Timestamp,Milliseconds,EMG 1,EMG 2,EMG 3,EMG 4,EMG 5,EMG 6,EMG 7,EMG 8

12:28:56.062646,062646,152,67,276,99,54,19,66,210
12:28:56.063607,063607,152,67,276,99,54,19,66,210
12:28:56.064642,064642,152,67,276,99,54,19,66,210
12:28:56.065642,065642,152,67,276,99,54,19,66,210
12:28:56.066645,066645,152,67,276,99,54,19,66,210
12:28:56.067644,067644,152,67,276,99,54,19,66,210
12:28:56.068631,068631,152,67,276,99,54,19,66,210
12:28:56.069605,069605,152,67,276,99,54,19,66,210
12:28:56.070643,070643,152,67,276,99,54,19,66,210
12:28:56.071668,071668,152,67,276,99,54,19,66,210
12:28:56.072609,072609,152,67,276,99,54,19,66,210
12:28:56.073633,073633,152,67,276,99,54,19,66,210
12:28:56.074633,074633,152,67,276,99,54,19,66,210
12:28:56.075632,075632,152,67,276,99,54,19,66,210
12:28:56.076633,076633,152,67,276,99,54,19,66,210
12:28:56.077605,077605,152,67,276,99,54,19,66,210
12:28:56.078607,078607,152,67,276,99,54,19,66,210
12:28:56.079607,079607,152,67,276,99,54,19,66,210
12:28:56.080633,080633,152,67,276,99,54,19,66,210
12:28:56.081632,081632,152,67,276,99,54,19,66,210
12:28:56.082605,082605,152,67,276,99,54,19,66,210
12:28:56.083607,083607,152,67,276,99,54,19,66,210
12:28:56.084642,084642,152,67,276,99,54,19,66,210
12:28:56.085607,085607,152,67,276,99,54,19,66,210
12:28:56.086644,086644,152,67,276,99,54,19,66,210
12:28:56.087646,087646,152,67,276,99,54,19,66,210
12:28:56.088642,088642,152,67,276,99,54,19,66,210
12:28:56.089643,089643,152,67,276,99,54,19,66,210
12:28:56.090607,090607,152,67,276,99,54,19,66,210
12:28:56.091607,091607,152,67,276,99,54,19,66,210
12:28:56.092606,092606,152,67,276,99,54,19,66,210
12:28:56.093609,093609,152,67,276,99,54,19,66,210
12:28:56.094608,094608,152,67,276,99,54,19,66,210
12:28:56.094881,094881,139,73,260,81,50,14,58,174
12:28:56.094881,094881,139,65,266,87,51,14,51,171
12:28:56.094881,094881,136,68,308,98,48,14,55,183
12:28:56.094881,094881,147,69,303,93,53,15,48,180
12:28:56.095608,095608,147,69,303,93,53,15,48,180
12:28:56.096609,096609,147,69,303,93,53,15,48,180
12:28:56.097615,097615,147,69,303,93,53,15,48,180
12:28:56.098141,098141,147,69,303,93,53,15,48,180
12:28:56.098663,098663,147,69,303,93,53,15,48,180
12:28:56.099662,099662,147,69,303,93,53,15,48,180
12:28:56.100665,100665,147,69,303,93,53,15,48,180
12:28:56.101184,101184,147,69,303,93,53,15,48,180
12:28:56.101238,101238,147,69,303,93,53,15,48,180
12:28:56.102185,102185,147,69,303,93,53,15,48,180
12:28:56.103185,103185,147,69,303,93,53,15,48,180
12:28:56.104187,104187,147,69,303,93,53,15,48,180
12:28:56.104704,104704,147,69,303,93,53,15,48,180
12:28:56.105705,105705,147,69,303,93,53,15,48,180
12:28:56.106705,106705,147,69,303,93,53,15,48,180
12:28:56.107704,107704,147,69,303,93,53,15,48,180
12:28:56.108704,108704,147,69,303,93,53,15,48,180
12:28:56.109705,109705,147,69,303,93,53,15,48,180
12:28:56.110706,110706,147,69,303,93,53,15,48,180
12:28:56.111703,111703,147,69,303,93,53,15,48,180
12:28:56.112706,112706,147,69,303,93,53,15,48,180
12:28:56.113704,113704,147,69,303,93,53,15,48,180
12:28:56.114703,114703,147,69,303,93,53,15,48,180
12:28:56.115706,115706,147,69,303,93,53,15,48,180
12:28:56.116742,116742,147,69,303,93,53,15,48,180
12:28:56.117741,117741,147,69,303,93,53,15,48,180
12:28:56.118740,118740,147,69,303,93,53,15,48,180
12:28:56.119705,119705,147,69,303,93,53,15,48,180
12:28:56.120703,120703,147,69,303,93,53,15,48,180
12:28:56.121747,121747,147,69,303,93,53,15,48,180
12:28:56.122740,122740,147,69,303,93,53,15,48,180
12:28:56.123745,123745,147,69,303,93,53,15,48,180
12:28:56.124740,124740,147,69,303,93,53,15,48,180
12:28:56.125703,125703,147,69,303,93,53,15,48,180
12:28:56.125703,125703,112,64,257,76,44,22,68,176
12:28:56.126752,126752,112,64,257,76,44,22,68,176
12:28:56.127755,127755,112,64,257,76,44,22,68,176
12:28:56.128754,128754,112,64,257,76,44,22,68,176
12:28:56.129752,129752,112,64,257,76,44,22,68,176
12:28:56.130743,130743,112,64,257,76,44,22,68,176
12:28:56.131703,131703,112,64,257,76,44,22,68,176
12:28:56.132704,132704,112,64,257,76,44,22,68,176
12:28:56.133704,133704,112,64,257,76,44,22,68,176
12:28:56.134705,134705,112,64,257,76,44,22,68,176
12:28:56.135709,135709,112,64,257,76,44,22,68,176
12:28:56.136741,136741,112,64,257,76,44,22,68,176
12:28:56.137742,137742,112,64,257,76,44,22,68,176
12:28:56.138726,138726,112,64,257,76,44,22,68,176
12:28:56.139740,139740,112,64,257,76,44,22,68,176
12:28:56.140742,140742,112,64,257,76,44,22,68,176
12:28:56.141740,141740,112,64,257,76,44,22,68,176
12:28:56.141740,141740,97,62,230,68,39,22,77,169
12:28:56.142705,142705,97,62,230,68,39,22,77,169
12:28:56.143705,143705,97,62,230,68,39,22,77,169
12:28:56.144744,144744,97,62,230,68,39,22,77,169
12:28:56.145740,145740,97,62,230,68,39,22,77,169
12:28:56.146740,146740,97,62,230,68,39,22,77,169
12:28:56.147705,147705,97,62,230,68,39,22,77,169
12:28:56.148743,148743,97,62,230,68,39,22,77,169
12:28:56.149705,149705,97,62,230,68,39,22,77,169
12:28:56.150740,150740,97,62,230,68,39,22,77,169
12:28:56.151741,151741,97,62,230,68,39,22,77,169
12:28:56.152707,152707,97,62,230,68,39,22,77,169
12:28:56.153740,153740,97,62,230,68,39,22,77,169
12:28:56.154742,154742,97,62,230,68,39,22,77,169
12:28:56.155741,155741,97,62,230,68,39,22,77,169
12:28:56.156706,156706,97,62,230,68,39,22,77,169
12:28:56.157749,157749,97,62,230,68,39,22,77,169
12:28:56.158704,158704,97,62,230,68,39,22,77,169
12:28:56.159702,159702,97,62,230,68,39,22,77,169
12:28:56.160702,160702,97,62,230,68,39,22,77,169
12:28:56.161703,161703,97,62,230,68,39,22,77,169
12:28:56.162703,162703,97,62,230,68,39,22,77,169
12:28:56.163704,163704,97,62,230,68,39,22,77,169
12:28:56.164702,164702,97,62,230,68,39,22,77,169
12:28:56.165702,165702,97,62,230,68,39,22,77,169
12:28:56.166702,166702,97,62,230,68,39,22,77,169
12:28:56.167702,167702,97,62,230,68,39,22,77,169
12:28:56.168702,168702,97,62,230,68,39,22,77,169
12:28:56.169703,169703,97,62,230,68,39,22,77,169
12:28:56.170702,170702,97,62,230,68,39,22,77,169
12:28:56.171702,171702,97,62,230,68,39,22,77,169
12:28:56.172702,172702,145,73,152,113,47,27,90,230
12:28:56.172702,172702,157,84,224,118,54,28,91,221
12:28:56.173704,173704,158,87,229,123,54,25,94,194
12:28:56.174703,174703,158,87,229,123,54,25,94,194
12:28:56.175702,175702,158,87,229,123,54,25,94,194
12:28:56.176702,176702,158,87,229,123,54,25,94,194
12:28:56.177702,177702,158,87,229,123,54,25,94,194
12:28:56.178702,178702,158,87,229,123,54,25,94,194
12:28:56.179702,179702,158,87,229,123,54,25,94,194
12:28:56.180702,180702,158,87,229,123,54,25,94,194
12:28:56.181702,181702,158,87,229,123,54,25,94,194
12:28:56.182702,182702,158,87,229,123,54,25,94,194
12:28:56.183702,183702,158,87,229,123,54,25,94,194
12:28:56.184702,184702,158,87,229,123,54,25,94,194
12:28:56.185702,185702,158,87,229,123,54,25,94,194
12:28:56.186702,186702,158,87,229,123,54,25,94,194
12:28:56.187702,187702,172,86,242,125,63,22,86,186
12:28:56.188740,188740,172,86,242,125,63,22,86,186
12:28:56.189746,189746,172,86,242,125,63,22,86,186
12:28:56.190740,190740,172,86,242,125,63,22,86,186
12:28:56.191746,191746,172,86,242,125,63,22,86,186
12:28:56.192744,192744,172,86,242,125,63,22,86,186
12:28:56.193705,193705,172,86,242,125,63,22,86,186
12:28:56.194739,194739,172,86,242,125,63,22,86,186
12:28:56.195745,195745,172,86,242,125,63,22,86,186
12:28:56.196705,196705,172,86,242,125,63,22,86,186
12:28:56.197703,197703,172,86,242,125,63,22,86,186
12:28:56.198706,198706,172,86,242,125,63,22,86,186
12:28:56.199741,199741,172,86,242,125,63,22,86,186
12:28:56.200740,200740,172,86,242,125,63,22,86,186
12:28:56.201742,201742,172,86,242,125,63,22,86,186
12:28:56.202704,202704,172,86,242,125,63,22,86,186
12:28:56.203740,203740,172,86,242,125,63,22,86,186
12:28:56.203740,203740,150,83,240,118,65,21,86,175
12:28:56.204752,204752,150,83,240,118,65,21,86,175
12:28:56.205740,205740,150,83,240,118,65,21,86,175
12:28:56.206742,206742,150,83,240,118,65,21,86,175
12:28:56.207705,207705,150,83,240,118,65,21,86,175
12:28:56.208744,208744,150,83,240,118,65,21,86,175
12:28:56.209713,209713,150,83,240,118,65,21,86,175
12:28:56.210705,210705,150,83,240,118,65,21,86,175
12:28:56.211740,211740,150,83,240,118,65,21,86,175
12:28:56.212759,212759,150,83,240,118,65,21,86,175
12:28:56.213752,213752,150,83,240,118,65,21,86,175
12:28:56.214740,214740,150,83,240,118,65,21,86,175
12:28:56.215705,215705,150,83,240,118,65,21,86,175
12:28:56.216704,216704,150,83,240,118,65,21,86,175
12:28:56.217704,217704,150,83,240,118,65,21,86,175
12:28:56.218704,218704,150,83,240,118,65,21,86,175
12:28:56.219705,219705,150,83,240,118,65,21,86,175
12:28:56.219705,219705,121,87,259,88,60,18,81,106
12:28:56.219705,219705,116,73,204,87,54,16,91,98
12:28:56.219705,219705,113,78,183,95,55,17,89,101
12:28:56.220704,220704,113,78,183,95,55,17,89,101
12:28:56.221704,221704,113,78,183,95,55,17,89,101
12:28:56.222704,222704,113,78,183,95,55,17,89,101
12:28:56.223704,223704,113,78,183,95,55,17,89,101
12:28:56.224729,224729,113,78,183,95,55,17,89,101
12:28:56.225704,225704,113,78,183,95,55,17,89,101
12:28:56.226728,226728,113,78,183,95,55,17,89,101
12:28:56.227703,227703,113,78,183,95,55,17,89,101
12:28:56.228732,228732,113,78,183,95,55,17,89,101
12:28:56.229729,229729,113,78,183,95,55,17,89,101
12:28:56.230733,230733,113,78,183,95,55,17,89,101
12:28:56.231730,231730,113,78,183,95,55,17,89,101
12:28:56.232736,232736,113,78,183,95,55,17,89,101
12:28:56.233735,233735,113,78,183,95,55,17,89,101
12:28:56.234702,234702,113,78,183,95,55,17,89,101
12:28:56.235702,235702,113,78,183,95,55,17,89,101
12:28:56.236703,236703,113,78,183,95,55,17,89,101
12:28:56.237703,237703,113,78,183,95,55,17,89,101
12:28:56.238731,238731,113,78,183,95,55,17,89,101
12:28:56.239730,239730,113,78,183,95,55,17,89,101
12:28:56.240704,240704,113,78,183,95,55,17,89,101
12:28:56.241703,241703,113,78,183,95,55,17,89,101
12:28:56.242704,242704,113,78,183,95,55,17,89,101
12:28:56.243703,243703,113,78,183,95,55,17,89,101
12:28:56.244703,244703,113,78,183,95,55,17,89,101
12:28:56.245704,245704,113,78,183,95,55,17,89,101
12:28:56.246703,246703,113,78,183,95,55,17,89,101
12:28:56.247705,247705,113,78,183,95,55,17,89,101
12:28:56.248702,248702,113,78,183,95,55,17,89,101
12:28:56.249729,249729,113,78,183,95,55,17,89,101
12:28:56.250705,250705,113,78,183,95,55,17,89,101
12:28:56.251743,251743,113,78,183,95,55,17,89,101
12:28:56.251743,251743,94,79,199,120,59,21,63,119
12:28:56.252705,252705,94,79,199,120,59,21,63,119
12:28:56.253740,253740,94,79,199,120,59,21,63,119
12:28:56.254741,254741,94,79,199,120,59,21,63,119
12:28:56.255746,255746,94,79,199,120,59,21,63,119
12:28:56.256702,256702,94,79,199,120,59,21,63,119
12:28:56.257703,257703,94,79,199,120,59,21,63,119
12:28:56.258704,258704,94,79,199,120,59,21,63,119
12:28:56.259705,259705,94,79,199,120,59,21,63,119
12:28:56.260705,260705,94,79,199,120,59,21,63,119
12:28:56.261708,261708,94,79,199,120,59,21,63,119
12:28:56.262702,262702,94,79,199,120,59,21,63,119
12:28:56.263730,263730,94,79,199,120,59,21,63,119
12:28:56.264729,264729,94,79,199,120,59,21,63,119
12:28:56.265731,265731,94,79,199,120,59,21,63,119
12:28:56.266728,266728,94,79,199,120,59,21,63,119
12:28:56.267728,267728,94,79,199,120,59,21,63,119
12:28:56.268730,268730,94,79,199,120,59,21,63,119
12:28:56.269703,269703,94,79,199,120,59,21,63,119
12:28:56.270729,270729,94,79,199,120,59,21,63,119
12:28:56.271730,271730,94,79,199,120,59,21,63,119
12:28:56.272704,272704,94,79,199,120,59,21,63,119
12:28:56.273729,273729,94,79,199,120,59,21,63,119
12:28:56.274702,274702,94,79,199,120,59,21,63,119
12:28:56.275704,275704,94,79,199,120,59,21,63,119
12:28:56.276732,276732,94,79,199,120,59,21,63,119
12:28:56.277703,277703,94,79,199,120,59,21,63,119
12:28:56.278704,278704,94,79,199,120,59,21,63,119
12:28:56.279731,279731,94,79,199,120,59,21,63,119
12:28:56.280704,280704,94,79,199,120,59,21,63,119
12:28:56.281705,281705,94,79,199,120,59,21,63,119
12:28:56.282731,282731,94,79,199,120,59,21,63,119
12:28:56.283704,283704,94,79,199,120,59,21,63,119
12:28:56.283704,283704,91,66,178,129,51,22,60,162
12:28:56.284731,284731,91,66,178,129,51,22,60,162
12:28:56.285734,285734,91,66,178,129,51,22,60,162
12:28:56.286704,286704,91,66,178,129,51,22,60,162
12:28:56.287728,287728,91,66,178,129,51,22,60,162
12:28:56.288729,288729,91,66,178,129,51,22,60,162
12:28:56.289728,289728,91,66,178,129,51,22,60,162
12:28:56.290732,290732,91,66,178,129,51,22,60,162
12:28:56.291739,291739,91,66,178,129,51,22,60,162
12:28:56.292740,292740,91,66,178,129,51,22,60,162
12:28:56.293733,293733,91,66,178,129,51,22,60,162
12:28:56.294732,294732,91,66,178,129,51,22,60,162
12:28:56.295705,295705,91,66,178,129,51,22,60,162
12:28:56.296702,296702,91,66,178,129,51,22,60,162
12:28:56.297703,297703,91,66,178,129,51,22,60,162
12:28:56.298731,298731,91,66,178,129,51,22,60,162
12:28:56.299733,299733,91,66,178,129,51,22,60,162
12:28:56.299733,299733,99,73,179,139,49,20,73,180
12:28:56.300704,300704,99,73,179,139,49,20,73,180
12:28:56.301703,301703,99,73,179,139,49,20,73,180
12:28:56.302703,302703,99,73,179,139,49,20,73,180
12:28:56.303702,303702,99,73,179,139,49,20,73,180
12:28:56.304704,304704,99,73,179,139,49,20,73,180
12:28:56.305702,305702,99,73,179,139,49,20,73,180
12:28:56.306728,306728,99,73,179,139,49,20,73,180
12:28:56.307703,307703,99,73,179,139,49,20,73,180
12:28:56.308705,308705,99,73,179,139,49,20,73,180
12:28:56.309704,309704,99,73,179,139,49,20,73,180
12:28:56.310703,310703,99,73,179,139,49,20,73,180
12:28:56.311705,311705,99,73,179,139,49,20,73,180
12:28:56.312705,312705,99,73,179,139,49,20,73,180
12:28:56.313741,313741,99,73,179,139,49,20,73,180
12:28:56.314740,314740,99,73,179,139,49,20,73,180
12:28:56.315705,315705,99,73,179,139,49,20,73,180
12:28:56.315948,315948,77,80,167,134,46,19,81,174
12:28:56.316741,316741,77,80,167,134,46,19,81,174
12:28:56.317705,317705,77,80,167,134,46,19,81,174
12:28:56.318740,318740,77,80,167,134,46,19,81,174
12:28:56.319704,319704,77,80,167,134,46,19,81,174
12:28:56.320704,320704,77,80,167,134,46,19,81,174
12:28:56.321705,321705,77,80,167,134,46,19,81,174
12:28:56.322704,322704,77,80,167,134,46,19,81,174
12:28:56.323706,323706,77,80,167,134,46,19,81,174
12:28:56.324704,324704,77,80,167,134,46,19,81,174
12:28:56.325705,325705,77,80,167,134,46,19,81,174
12:28:56.326741,326741,77,80,167,134,46,19,81,174
12:28:56.327707,327707,77,80,167,134,46,19,81,174
12:28:56.328740,328740,77,80,167,134,46,19,81,174
12:28:56.329741,329741,77,80,167,134,46,19,81,174
12:28:56.330702,330702,77,80,167,134,46,19,81,174
12:28:56.331705,331705,72,80,462,85,25,15,36,205
12:28:56.332706,332706,72,80,462,85,25,15,36,205
12:28:56.333705,333705,72,80,462,85,25,15,36,205
12:28:56.334730,334730,72,80,462,85,25,15,36,205
12:28:56.335712,335712,72,80,462,85,25,15,36,205
12:28:56.336702,336702,72,80,462,85,25,15,36,205
12:28:56.337702,337702,72,80,462,85,25,15,36,205
12:28:56.338704,338704,72,80,462,85,25,15,36,205
12:28:56.339703,339703,72,80,462,85,25,15,36,205
12:28:56.340703,340703,72,80,462,85,25,15,36,205
12:28:56.341703,341703,72,80,462,85,25,15,36,205
12:28:56.342704,342704,72,80,462,85,25,15,36,205
12:28:56.343702,343702,72,80,462,85,25,15,36,205
12:28:56.344705,344705,72,80,462,85,25,15,36,205
12:28:56.345704,345704,72,80,462,85,25,15,36,205
12:28:56.346730,346730,72,80,462,85,25,15,36,205
12:28:56.346730,346730,65,96,419,90,24,16,49,209
12:28:56.347707,347707,65,96,419,90,24,16,49,209
12:28:56.348730,348730,65,96,419,90,24,16,49,209
12:28:56.349737,349737,65,96,419,90,24,16,49,209
12:28:56.350725,350725,65,96,419,90,24,16,49,209
12:28:56.351704,351704,65,96,419,90,24,16,49,209
12:28:56.352734,352734,65,96,419,90,24,16,49,209
12:28:56.353730,353730,65,96,419,90,24,16,49,209
12:28:56.354728,354728,65,96,419,90,24,16,49,209
12:28:56.355706,355706,65,96,419,90,24,16,49,209
12:28:56.356704,356704,65,96,419,90,24,16,49,209
12:28:56.357705,357705,65,96,419,90,24,16,49,209
12:28:56.358703,358703,65,96,419,90,24,16,49,209
12:28:56.359703,359703,65,96,419,90,24,16,49,209
12:28:56.360702,360702,65,96,419,90,24,16,49,209
12:28:56.361731,361731,65,96,419,90,24,16,49,209
12:28:56.361731,361731,64,114,378,91,26,16,45,197
12:28:56.362703,362703,64,114,378,91,26,16,45,197
12:28:56.363701,363701,64,114,378,91,26,16,45,197
12:28:56.364702,364702,64,114,378,91,26,16,45,197
12:28:56.365702,365702,64,114,378,91,26,16,45,197
12:28:56.366702,366702,64,114,378,91,26,16,45,197
12:28:56.367700,367700,64,114,378,91,26,16,45,197
12:28:56.368701,368701,64,114,378,91,26,16,45,197
12:28:56.369701,369701,64,114,378,91,26,16,45,197
12:28:56.370701,370701,64,114,378,91,26,16,45,197
12:28:56.371701,371701,64,114,378,91,26,16,45,197
12:28:56.372701,372701,64,114,378,91,26,16,45,197
12:28:56.373701,373701,64,114,378,91,26,16,45,197
12:28:56.374700,374700,64,114,378,91,26,16,45,197
12:28:56.375701,375701,64,114,378,91,26,16,45,197
12:28:56.376701,376701,64,114,378,91,26,16,45,197
12:28:56.377701,377701,64,114,378,91,26,16,45,197
12:28:56.377701,377701,86,90,219,87,28,17,54,140
12:28:56.378702,378702,86,90,219,87,28,17,54,140
12:28:56.379701,379701,86,90,219,87,28,17,54,140
12:28:56.380702,380702,86,90,219,87,28,17,54,140
12:28:56.381703,381703,86,90,219,87,28,17,54,140
12:28:56.382702,382702,86,90,219,87,28,17,54,140
12:28:56.383702,383702,86,90,219,87,28,17,54,140
12:28:56.384701,384701,86,90,219,87,28,17,54,140
12:28:56.385704,385704,86,90,219,87,28,17,54,140
12:28:56.386704,386704,86,90,219,87,28,17,54,140
12:28:56.387701,387701,86,90,219,87,28,17,54,140
12:28:56.388701,388701,86,90,219,87,28,17,54,140
12:28:56.389701,389701,86,90,219,87,28,17,54,140
12:28:56.390700,390700,86,90,219,87,28,17,54,140
12:28:56.391700,391700,86,90,219,87,28,17,54,140
12:28:56.392701,392701,86,90,219,87,28,17,54,140
12:28:56.393701,393701,86,90,219,87,28,17,54,140
12:28:56.393701,393701,84,85,179,100,25,17,60,137
12:28:56.394702,394702,84,85,179,100,25,17,60,137
12:28:56.395701,395701,84,85,179,100,25,17,60,137
12:28:56.396701,396701,84,85,179,100,25,17,60,137
12:28:56.397701,397701,84,85,179,100,25,17,60,137
12:28:56.398701,398701,84,85,179,100,25,17,60,137
12:28:56.399701,399701,84,85,179,100,25,17,60,137
12:28:56.400701,400701,84,85,179,100,25,17,60,137
12:28:56.401701,401701,84,85,179,100,25,17,60,137
12:28:56.402703,402703,84,85,179,100,25,17,60,137
12:28:56.403702,403702,84,85,179,100,25,17,60,137
12:28:56.404702,404702,84,85,179,100,25,17,60,137
12:28:56.405702,405702,84,85,179,100,25,17,60,137
12:28:56.406704,406704,84,85,179,100,25,17,60,137
12:28:56.407701,407701,84,85,179,100,25,17,60,137
12:28:56.408701,408701,84,85,179,100,25,17,60,137
12:28:56.409701,409701,84,85,179,100,25,17,60,137
12:28:56.409701,409701,94,62,232,109,21,21,49,121
12:28:56.410703,410703,94,62,232,109,21,21,49,121
12:28:56.411701,411701,94,62,232,109,21,21,49,121
12:28:56.412701,412701,94,62,232,109,21,21,49,121
12:28:56.413701,413701,94,62,232,109,21,21,49,121
12:28:56.414702,414702,94,62,232,109,21,21,49,121
12:28:56.415701,415701,94,62,232,109,21,21,49,121
12:28:56.416700,416700,94,62,232,109,21,21,49,121
12:28:56.417700,417700,94,62,232,109,21,21,49,121
12:28:56.418701,418701,94,62,232,109,21,21,49,121
12:28:56.419701,419701,94,62,232,109,21,21,49,121
12:28:56.420701,420701,94,62,232,109,21,21,49,121
12:28:56.421701,421701,94,62,232,109,21,21,49,121
12:28:56.422701,422701,94,62,232,109,21,21,49,121
12:28:56.423704,423704,94,62,232,109,21,21,49,121
12:28:56.424703,424703,94,62,232,109,21,21,49,121
12:28:56.424703,424703,94,73,223,115,23,25,66,173
12:28:56.425704,425704,94,73,223,115,23,25,66,173
12:28:56.426704,426704,94,73,223,115,23,25,66,173
12:28:56.427704,427704,94,73,223,115,23,25,66,173
12:28:56.428705,428705,94,73,223,115,23,25,66,173
12:28:56.429710,429710,94,73,223,115,23,25,66,173
12:28:56.430739,430739,94,73,223,115,23,25,66,173
12:28:56.431738,431738,94,73,223,115,23,25,66,173
12:28:56.432743,432743,94,73,223,115,23,25,66,173
12:28:56.433704,433704,94,73,223,115,23,25,66,173
12:28:56.434741,434741,94,73,223,115,23,25,66,173
12:28:56.435740,435740,94,73,223,115,23,25,66,173
12:28:56.436717,436717,94,73,223,115,23,25,66,173
12:28:56.437704,437704,94,73,223,115,23,25,66,173
12:28:56.438739,438739,94,73,223,115,23,25,66,173
12:28:56.439745,439745,94,73,223,115,23,25,66,173
12:28:56.440738,440738,94,73,223,115,23,25,66,173
12:28:56.440738,440738,80,70,205,106,25,27,63,202
12:28:56.441744,441744,80,70,205,106,25,27,63,202
12:28:56.442739,442739,80,70,205,106,25,27,63,202
12:28:56.443738,443738,80,70,205,106,25,27,63,202
12:28:56.444702,444702,80,70,205,106,25,27,63,202
12:28:56.445745,445745,80,70,205,106,25,27,63,202
12:28:56.446739,446739,80,70,205,106,25,27,63,202
12:28:56.447704,447704,80,70,205,106,25,27,63,202
12:28:56.448704,448704,80,70,205,106,25,27,63,202
12:28:56.449739,449739,80,70,205,106,25,27,63,202
12:28:56.450732,450732,80,70,205,106,25,27,63,202
12:28:56.451728,451728,80,70,205,106,25,27,63,202
12:28:56.452729,452729,80,70,205,106,25,27,63,202
12:28:56.453727,453727,80,70,205,106,25,27,63,202
12:28:56.454728,454728,80,70,205,106,25,27,63,202
12:28:56.455728,455728,80,70,205,106,25,27,63,202
12:28:56.456728,456728,80,70,205,106,25,27,63,202
12:28:56.456728,456728,64,107,304,140,23,25,62,185
12:28:56.456728,456728,47,93,295,148,19,22,49,178
12:28:56.456728,456728,48,92,337,141,22,22,40,161
12:28:56.457751,457751,33,97,345,151,20,21,36,177
12:28:56.457751,457751,38,98,282,137,20,22,41,182
12:28:56.457751,457751,36,102,276,146,18,19,37,230
12:28:56.457751,457751,36,90,275,138,19,21,33,204
12:28:56.457751,457751,40,95,267,139,25,25,45,198
12:28:56.458751,458751,45,102,278,122,24,23,42,183
12:28:56.458751,458751,45,62,223,72,27,26,44,185
12:28:56.458751,458751,48,63,231,65,25,24,44,186
12:28:56.459703,459703,48,63,231,65,25,24,44,186
12:28:56.460740,460740,48,63,231,65,25,24,44,186
12:28:56.461703,461703,48,63,231,65,25,24,44,186
12:28:56.462738,462738,48,63,231,65,25,24,44,186
12:28:56.463738,463738,48,63,231,65,25,24,44,186
12:28:56.464741,464741,48,63,231,65,25,24,44,186
12:28:56.465739,465739,48,63,231,65,25,24,44,186
12:28:56.466740,466740,48,63,231,65,25,24,44,186
12:28:56.467738,467738,48,63,231,65,25,24,44,186
12:28:56.468704,468704,48,63,231,65,25,24,44,186
12:28:56.469704,469704,48,63,231,65,25,24,44,186
12:28:56.470730,470730,48,63,231,65,25,24,44,186
12:28:56.471743,471743,48,63,231,65,25,24,44,186
12:28:56.472738,472738,48,63,231,65,25,24,44,186
12:28:56.473704,473704,48,63,231,65,25,24,44,186
12:28:56.474703,474703,48,63,231,65,25,24,44,186
12:28:56.475704,475704,48,63,231,65,25,24,44,186
12:28:56.476705,476705,48,63,231,65,25,24,44,186
12:28:56.477749,477749,48,63,231,65,25,24,44,186
12:28:56.478740,478740,48,63,231,65,25,24,44,186
12:28:56.479741,479741,48,63,231,65,25,24,44,186
12:28:56.480741,480741,48,63,231,65,25,24,44,186
12:28:56.481741,481741,48,63,231,65,25,24,44,186
12:28:56.482708,482708,48,63,231,65,25,24,44,186
12:28:56.483753,483753,48,63,231,65,25,24,44,186
12:28:56.484703,484703,48,63,231,65,25,24,44,186
12:28:56.485704,485704,48,63,231,65,25,24,44,186
12:28:56.486705,486705,48,63,231,65,25,24,44,186
12:28:56.487704,487704,48,63,231,65,25,24,44,186
12:28:56.487704,487704,59,71,229,59,21,23,45,201
12:28:56.488705,488705,59,71,229,59,21,23,45,201
12:28:56.489708,489708,59,71,229,59,21,23,45,201
12:28:56.490706,490706,59,71,229,59,21,23,45,201
12:28:56.491707,491707,59,71,229,59,21,23,45,201
12:28:56.492705,492705,59,71,229,59,21,23,45,201
12:28:56.493707,493707,59,71,229,59,21,23,45,201
12:28:56.494706,494706,59,71,229,59,21,23,45,201
12:28:56.495705,495705,59,71,229,59,21,23,45,201
12:28:56.496706,496706,59,71,229,59,21,23,45,201
12:28:56.497705,497705,59,71,229,59,21,23,45,201
12:28:56.498705,498705,59,71,229,59,21,23,45,201
12:28:56.499705,499705,59,71,229,59,21,23,45,201
12:28:56.500704,500704,59,71,229,59,21,23,45,201
12:28:56.501705,501705,59,71,229,59,21,23,45,201
12:28:56.502704,502704,59,71,229,59,21,23,45,201
12:28:56.503704,503704,59,71,229,59,21,23,45,201
12:28:56.503704,503704,57,76,236,48,20,22,44,177
12:28:56.504706,504706,57,76,236,48,20,22,44,177
12:28:56.505704,505704,57,76,236,48,20,22,44,177
12:28:56.506706,506706,57,76,236,48,20,22,44,177
12:28:56.507706,507706,57,76,236,48,20,22,44,177
12:28:56.508706,508706,57,76,236,48,20,22,44,177
12:28:56.509708,509708,57,76,236,48,20,22,44,177
12:28:56.510707,510707,57,76,236,48,20,22,44,177
12:28:56.511705,511705,57,76,236,48,20,22,44,177
12:28:56.512709,512709,57,76,236,48,20,22,44,177
12:28:56.513705,513705,57,76,236,48,20,22,44,177
12:28:56.514705,514705,57,76,236,48,20,22,44,177
12:28:56.515704,515704,57,76,236,48,20,22,44,177
12:28:56.516704,516704,57,76,236,48,20,22,44,177
12:28:56.517704,517704,57,76,236,48,20,22,44,177
12:28:56.518704,518704,57,76,236,48,20,22,44,177
12:28:56.518704,518704,44,91,246,40,14,16,33,73
12:28:56.518704,518704,45,88,186,44,14,15,42,78
12:28:56.518704,518704,38,83,159,34,14,16,44,74
12:28:56.519710,519710,38,78,130,59,16,18,54,67
12:28:56.520704,520704,38,78,130,59,16,18,54,67
12:28:56.521705,521705,38,78,130,59,16,18,54,67
12:28:56.522704,522704,38,78,130,59,16,18,54,67
12:28:56.523704,523704,38,78,130,59,16,18,54,67
12:28:56.524705,524705,38,78,130,59,16,18,54,67
12:28:56.525704,525704,38,78,130,59,16,18,54,67
12:28:56.526704,526704,38,78,130,59,16,18,54,67
12:28:56.527707,527707,38,78,130,59,16,18,54,67
12:28:56.528706,528706,38,78,130,59,16,18,54,67
12:28:56.529707,529707,38,78,130,59,16,18,54,67
12:28:56.530706,530706,38,78,130,59,16,18,54,67
12:28:56.531708,531708,38,78,130,59,16,18,54,67
12:28:56.532706,532706,38,78,130,59,16,18,54,67
12:28:56.533706,533706,38,78,130,59,16,18,54,67
12:28:56.534707,534707,38,78,130,59,16,18,54,67
12:28:56.535707,535707,38,78,130,59,16,18,54,67
12:28:56.536705,536705,38,78,130,59,16,18,54,67
12:28:56.537741,537741,38,78,130,59,16,18,54,67
12:28:56.538705,538705,38,78,130,59,16,18,54,67
12:28:56.539708,539708,38,78,130,59,16,18,54,67
12:28:56.540743,540743,38,78,130,59,16,18,54,67
12:28:56.541741,541741,38,78,130,59,16,18,54,67
12:28:56.542740,542740,38,78,130,59,16,18,54,67
12:28:56.543741,543741,38,78,130,59,16,18,54,67
12:28:56.544741,544741,38,78,130,59,16,18,54,67
12:28:56.545742,545742,38,78,130,59,16,18,54,67
12:28:56.546749,546749,38,78,130,59,16,18,54,67
12:28:56.547741,547741,38,78,130,59,16,18,54,67
12:28:56.548706,548706,38,78,130,59,16,18,54,67
12:28:56.549742,549742,38,78,130,59,16,18,54,67
12:28:56.550741,550741,38,78,130,59,16,18,54,67
12:28:56.550741,550741,45,66,203,82,26,27,34,107
12:28:56.551705,551705,45,66,203,82,26,27,34,107
12:28:56.552705,552705,45,66,203,82,26,27,34,107
12:28:56.553706,553706,45,66,203,82,26,27,34,107
12:28:56.554742,554742,45,66,203,82,26,27,34,107
12:28:56.555743,555743,45,66,203,82,26,27,34,107
12:28:56.556727,556727,45,66,203,82,26,27,34,107
12:28:56.557702,557702,45,66,203,82,26,27,34,107
12:28:56.558742,558742,45,66,203,82,26,27,34,107
12:28:56.559741,559741,45,66,203,82,26,27,34,107
12:28:56.560705,560705,45,66,203,82,26,27,34,107
12:28:56.561741,561741,45,66,203,82,26,27,34,107
12:28:56.562704,562704,45,66,203,82,26,27,34,107
12:28:56.563741,563741,45,66,203,82,26,27,34,107
12:28:56.564743,564743,45,66,203,82,26,27,34,107
12:28:56.565740,565740,45,66,203,82,26,27,34,107
12:28:56.566740,566740,45,66,203,82,26,27,34,107
12:28:56.566740,566740,55,76,349,113,30,24,38,147
12:28:56.566740,566740,50,90,389,178,40,31,41,134
12:28:56.566740,566740,57,114,415,257,45,31,39,143
12:28:56.567740,567740,57,114,415,257,45,31,39,143
12:28:56.568740,568740,57,114,415,257,45,31,39,143
12:28:56.569705,569705,57,114,415,257,45,31,39,143
12:28:56.570705,570705,57,114,415,257,45,31,39,143
12:28:56.571705,571705,57,114,415,257,45,31,39,143
12:28:56.572704,572704,57,114,415,257,45,31,39,143
12:28:56.573744,573744,57,114,415,257,45,31,39,143
12:28:56.574705,574705,57,114,415,257,45,31,39,143
12:28:56.575742,575742,57,114,415,257,45,31,39,143
12:28:56.576743,576743,57,114,415,257,45,31,39,143
12:28:56.577741,577741,57,114,415,257,45,31,39,143
12:28:56.578742,578742,57,114,415,257,45,31,39,143
12:28:56.579743,579743,57,114,415,257,45,31,39,143
12:28:56.580741,580741,57,114,415,257,45,31,39,143
12:28:56.581740,581740,57,114,415,257,45,31,39,143
12:28:56.582705,582705,57,114,415,257,45,31,39,143
12:28:56.582705,582705,48,115,420,279,52,35,38,145
12:28:56.583740,583740,48,115,420,279,52,35,38,145
12:28:56.584705,584705,48,115,420,279,52,35,38,145
12:28:56.585740,585740,48,115,420,279,52,35,38,145
12:28:56.586740,586740,48,115,420,279,52,35,38,145
12:28:56.587702,587702,48,115,420,279,52,35,38,145
12:28:56.587702,587702,46,112,400,281,41,29,46,130
12:28:56.588703,588703,46,112,400,281,41,29,46,130
12:28:56.589740,589740,46,112,400,281,41,29,46,130
12:28:56.590704,590704,46,112,400,281,41,29,46,130
12:28:56.591741,591741,46,112,400,281,41,29,46,130
12:28:56.592743,592743,46,112,400,281,41,29,46,130
12:28:56.593708,593708,46,112,400,281,41,29,46,130
12:28:56.594746,594746,46,112,400,281,41,29,46,130
12:28:56.595713,595713,46,112,400,281,41,29,46,130
12:28:56.596705,596705,46,112,400,281,41,29,46,130
12:28:56.597740,597740,46,112,400,281,41,29,46,130
12:28:56.598740,598740,46,112,400,281,41,29,46,130
12:28:56.599705,599705,46,112,400,281,41,29,46,130
12:28:56.600705,600705,46,112,400,281,41,29,46,130
12:28:56.601740,601740,46,112,400,281,41,29,46,130
12:28:56.602752,602752,46,112,400,281,41,29,46,130
12:28:56.603742,603742,46,112,400,281,41,29,46,130
12:28:56.604740,604740,46,112,400,281,41,29,46,130
12:28:56.605748,605748,46,112,400,281,41,29,46,130
12:28:56.606741,606741,46,112,400,281,41,29,46,130
12:28:56.607705,607705,46,112,400,281,41,29,46,130
12:28:56.608702,608702,46,112,400,281,41,29,46,130
12:28:56.609741,609741,46,112,400,281,41,29,46,130
12:28:56.610703,610703,46,112,400,281,41,29,46,130
12:28:56.611740,611740,46,112,400,281,41,29,46,130
12:28:56.612750,612750,46,112,400,281,41,29,46,130
12:28:56.613740,613740,46,112,400,281,41,29,46,130
12:28:56.614705,614705,52,100,326,281,36,28,43,96
12:28:56.615706,615706,52,100,326,281,36,28,43,96
12:28:56.616705,616705,52,100,326,281,36,28,43,96
12:28:56.617706,617706,52,100,326,281,36,28,43,96
12:28:56.618707,618707,52,100,326,281,36,28,43,96
12:28:56.619706,619706,52,100,326,281,36,28,43,96
12:28:56.620705,620705,52,100,326,281,36,28,43,96
12:28:56.621704,621704,52,100,326,281,36,28,43,96
12:28:56.622704,622704,52,100,326,281,36,28,43,96
12:28:56.623704,623704,52,100,326,281,36,28,43,96
12:28:56.624704,624704,52,100,326,281,36,28,43,96
12:28:56.625704,625704,52,100,326,281,36,28,43,96
12:28:56.626704,626704,52,100,326,281,36,28,43,96
12:28:56.627704,627704,52,100,326,281,36,28,43,96
12:28:56.628703,628703,52,100,326,281,36,28,43,96
12:28:56.629704,629704,52,100,326,281,36,28,43,96
12:28:56.630704,630704,52,100,326,281,36,28,43,96
12:28:56.630704,630704,47,92,324,277,35,31,50,97
12:28:56.631707,631707,47,92,324,277,35,31,50,97
12:28:56.632706,632706,47,92,324,277,35,31,50,97
12:28:56.633706,633706,47,92,324,277,35,31,50,97
12:28:56.634706,634706,47,92,324,277,35,31,50,97
12:28:56.635705,635705,47,92,324,277,35,31,50,97
12:28:56.636705,636705,47,92,324,277,35,31,50,97
12:28:56.637707,637707,47,92,324,277,35,31,50,97
12:28:56.638705,638705,47,92,324,277,35,31,50,97
12:28:56.639705,639705,47,92,324,277,35,31,50,97
12:28:56.640704,640704,47,92,324,277,35,31,50,97
12:28:56.641704,641704,47,92,324,277,35,31,50,97
12:28:56.642704,642704,47,92,324,277,35,31,50,97
12:28:56.643704,643704,47,92,324,277,35,31,50,97
12:28:56.644704,644704,47,92,324,277,35,31,50,97
12:28:56.645704,645704,47,92,324,277,35,31,50,97
12:28:56.646704,646704,47,92,324,277,35,31,50,97
12:28:56.646704,646704,48,92,262,258,36,30,54,97
12:28:56.647705,647705,48,92,262,258,36,30,54,97
12:28:56.648704,648704,48,92,262,258,36,30,54,97
12:28:56.649704,649704,48,92,262,258,36,30,54,97
12:28:56.650704,650704,48,92,262,258,36,30,54,97
12:28:56.651704,651704,48,92,262,258,36,30,54,97
12:28:56.652706,652706,48,92,262,258,36,30,54,97
12:28:56.653706,653706,48,92,262,258,36,30,54,97
12:28:56.654707,654707,48,92,262,258,36,30,54,97
12:28:56.655703,655703,48,92,262,258,36,30,54,97
12:28:56.656705,656705,48,92,262,258,36,30,54,97
12:28:56.657705,657705,48,92,262,258,36,30,54,97
12:28:56.658705,658705,48,92,262,258,36,30,54,97
12:28:56.659705,659705,48,92,262,258,36,30,54,97
12:28:56.660705,660705,48,92,262,258,36,30,54,97
12:28:56.661705,661705,48,92,262,258,36,30,54,97
12:28:56.661705,661705,48,82,222,231,30,24,62,93
12:28:56.662706,662706,48,82,222,231,30,24,62,93
12:28:56.663704,663704,48,82,222,231,30,24,62,93
12:28:56.664705,664705,48,82,222,231,30,24,62,93
12:28:56.665704,665704,48,82,222,231,30,24,62,93
12:28:56.666704,666704,48,82,222,231,30,24,62,93
12:28:56.667704,667704,48,82,222,231,30,24,62,93
12:28:56.668705,668705,48,82,222,231,30,24,62,93
12:28:56.669706,669706,48,82,222,231,30,24,62,93
12:28:56.670704,670704,48,82,222,231,30,24,62,93
12:28:56.671704,671704,48,82,222,231,30,24,62,93
12:28:56.672704,672704,48,82,222,231,30,24,62,93
12:28:56.673707,673707,48,82,222,231,30,24,62,93
12:28:56.674707,674707,48,82,222,231,30,24,62,93
12:28:56.675706,675706,48,82,222,231,30,24,62,93
12:28:56.676706,676706,48,82,222,231,30,24,62,93
12:28:56.677705,677705,48,82,222,231,30,24,62,93
12:28:56.677705,677705,51,92,232,189,23,21,66,134
12:28:56.678707,678707,51,92,232,189,23,21,66,134
12:28:56.679707,679707,51,92,232,189,23,21,66,134
12:28:56.680704,680704,51,92,232,189,23,21,66,134
12:28:56.681705,681705,51,92,232,189,23,21,66,134
12:28:56.682704,682704,51,92,232,189,23,21,66,134
12:28:56.683703,683703,51,92,232,189,23,21,66,134
12:28:56.684705,684705,51,92,232,189,23,21,66,134
12:28:56.685705,685705,51,92,232,189,23,21,66,134
12:28:56.686704,686704,51,92,232,189,23,21,66,134
12:28:56.687704,687704,51,92,232,189,23,21,66,134
12:28:56.688704,688704,51,92,232,189,23,21,66,134
12:28:56.689704,689704,51,92,232,189,23,21,66,134
12:28:56.690703,690703,51,92,232,189,23,21,66,134
12:28:56.691704,691704,51,92,232,189,23,21,66,134
12:28:56.692704,692704,51,92,232,189,23,21,66,134
12:28:56.693704,693704,67,87,148,46,17,19,62,153
12:28:56.693704,693704,68,85,207,45,21,21,63,152
12:28:56.693704,693704,66,95,234,41,21,17,58,172
12:28:56.693704,693704,73,106,307,44,19,17,61,190
12:28:56.694710,694710,74,106,334,50,17,18,60,199
12:28:56.694710,694710,69,92,341,53,21,17,63,160
12:28:56.694710,694710,66,72,407,68,21,14,76,154
12:28:56.694710,694710,68,109,474,85,23,19,86,155
12:28:56.694710,694710,70,101,497,95,21,17,86,145
12:28:56.694710,694710,74,99,497,101,21,17,89,117
12:28:56.695709,695709,68,97,477,111,20,14,88,119
12:28:56.695709,695709,61,91,416,110,18,13,90,175
12:28:56.695709,695709,68,77,396,103,19,13,83,150
12:28:56.695709,695709,60,68,338,97,20,13,84,144
12:28:56.695709,695709,59,69,309,90,23,16,77,159
12:28:56.696741,696741,59,69,309,90,23,16,77,159
12:28:56.697706,697706,59,69,309,90,23,16,77,159
12:28:56.698741,698741,59,69,309,90,23,16,77,159
12:28:56.699743,699743,59,69,309,90,23,16,77,159
12:28:56.700739,700739,59,69,309,90,23,16,77,159
12:28:56.701741,701741,59,69,309,90,23,16,77,159
12:28:56.702704,702704,59,69,309,90,23,16,77,159
12:28:56.703741,703741,59,69,309,90,23,16,77,159
12:28:56.704742,704742,59,69,309,90,23,16,77,159
12:28:56.705740,705740,59,69,309,90,23,16,77,159
12:28:56.706742,706742,59,69,309,90,23,16,77,159
12:28:56.707740,707740,59,69,309,90,23,16,77,159
12:28:56.708706,708706,59,69,309,90,23,16,77,159
12:28:56.709741,709741,59,69,309,90,23,16,77,159
12:28:56.710706,710706,59,69,309,90,23,16,77,159
12:28:56.711705,711705,59,69,309,90,23,16,77,159
12:28:56.712704,712704,59,69,309,90,23,16,77,159
12:28:56.713704,713704,59,69,309,90,23,16,77,159
12:28:56.714704,714704,59,69,309,90,23,16,77,159
12:28:56.715702,715702,59,69,309,90,23,16,77,159
12:28:56.716705,716705,59,69,309,90,23,16,77,159
12:28:56.717705,717705,59,69,309,90,23,16,77,159
12:28:56.718716,718716,59,69,309,90,23,16,77,159
12:28:56.719708,719708,59,69,309,90,23,16,77,159
12:28:56.720706,720706,59,69,309,90,23,16,77,159
12:28:56.721706,721706,59,69,309,90,23,16,77,159
12:28:56.722704,722704,59,69,309,90,23,16,77,159
12:28:56.723704,723704,59,69,309,90,23,16,77,159
12:28:56.724705,724705,59,69,309,90,23,16,77,159
12:28:56.725704,725704,59,69,309,90,23,16,77,159
12:28:56.725704,725704,69,77,314,107,20,17,53,150
12:28:56.726705,726705,69,77,314,107,20,17,53,150
12:28:56.727704,727704,69,77,314,107,20,17,53,150
12:28:56.728704,728704,69,77,314,107,20,17,53,150
12:28:56.729705,729705,69,77,314,107,20,17,53,150
12:28:56.730704,730704,69,77,314,107,20,17,53,150
12:28:56.731704,731704,69,77,314,107,20,17,53,150
12:28:56.732704,732704,69,77,314,107,20,17,53,150
12:28:56.733704,733704,69,77,314,107,20,17,53,150
12:28:56.734704,734704,69,77,314,107,20,17,53,150
12:28:56.735705,735705,69,77,314,107,20,17,53,150
12:28:56.736702,736702,69,77,314,107,20,17,53,150
12:28:56.737706,737706,69,77,314,107,20,17,53,150
12:28:56.738705,738705,69,77,314,107,20,17,53,150
12:28:56.739706,739706,69,77,314,107,20,17,53,150
12:28:56.740705,740705,69,77,314,107,20,17,53,150
12:28:56.741707,741707,69,77,314,107,20,17,53,150
12:28:56.742707,742707,69,77,314,107,20,17,53,150
12:28:56.743704,743704,69,77,314,107,20,17,53,150
12:28:56.744704,744704,69,77,314,107,20,17,53,150
12:28:56.745704,745704,69,77,314,107,20,17,53,150
12:28:56.746704,746704,69,77,314,107,20,17,53,150
12:28:56.747704,747704,69,77,314,107,20,17,53,150
12:28:56.748704,748704,69,77,314,107,20,17,53,150
12:28:56.749705,749705,69,77,314,107,20,17,53,150
12:28:56.750704,750704,69,77,314,107,20,17,53,150
12:28:56.751704,751704,69,77,314,107,20,17,53,150
12:28:56.752704,752704,69,77,314,107,20,17,53,150
12:28:56.753704,753704,69,77,314,107,20,17,53,150
12:28:56.754705,754705,69,77,314,107,20,17,53,150
12:28:56.755704,755704,69,77,314,107,20,17,53,150
12:28:56.756705,756705,69,77,314,107,20,17,53,150
12:28:56.757706,757706,69,77,314,107,20,17,53,150
12:28:56.757706,757706,52,55,321,118,21,16,33,141
12:28:56.757706,757706,48,69,435,128,20,19,33,140
12:28:56.757706,757706,48,96,438,122,19,20,35,136
12:28:56.757706,757706,45,95,451,130,16,22,42,88
12:28:56.758707,758707,42,92,435,146,15,23,47,118
12:28:56.758707,758707,43,107,441,147,15,23,38,117
12:28:56.758707,758707,68,130,344,135,19,26,84,129
12:28:56.759707,759707,68,130,344,135,19,26,84,129
12:28:56.760706,760706,68,130,344,135,19,26,84,129
12:28:56.761705,761705,68,130,344,135,19,26,84,129
12:28:56.762704,762704,68,130,344,135,19,26,84,129
12:28:56.763706,763706,68,130,344,135,19,26,84,129
12:28:56.764704,764704,68,130,344,135,19,26,84,129
12:28:56.765704,765704,68,130,344,135,19,26,84,129
12:28:56.766704,766704,68,130,344,135,19,26,84,129
12:28:56.767704,767704,68,130,344,135,19,26,84,129
12:28:56.768704,768704,68,130,344,135,19,26,84,129
12:28:56.769705,769705,68,130,344,135,19,26,84,129
12:28:56.770704,770704,68,130,344,135,19,26,84,129
12:28:56.771705,771705,68,130,344,135,19,26,84,129
12:28:56.772704,772704,68,130,344,135,19,26,84,129
12:28:56.773704,773704,68,130,344,135,19,26,84,129
12:28:56.774705,774705,68,130,344,135,19,26,84,129
12:28:56.775705,775705,68,130,344,135,19,26,84,129
12:28:56.776704,776704,68,130,344,135,19,26,84,129
12:28:56.777706,777706,68,130,344,135,19,26,84,129
12:28:56.778705,778705,68,130,344,135,19,26,84,129
12:28:56.779707,779707,68,130,344,135,19,26,84,129
12:28:56.780707,780707,68,130,344,135,19,26,84,129
12:28:56.781706,781706,68,130,344,135,19,26,84,129
12:28:56.782706,782706,68,130,344,135,19,26,84,129
12:28:56.783704,783704,68,130,344,135,19,26,84,129
12:28:56.784705,784705,68,130,344,135,19,26,84,129
12:28:56.785705,785705,68,130,344,135,19,26,84,129
12:28:56.786704,786704,68,130,344,135,19,26,84,129
12:28:56.787704,787704,68,130,344,135,19,26,84,129
12:28:56.788704,788704,68,130,344,135,19,26,84,129
12:28:56.789704,789704,68,130,344,135,19,26,84,129
12:28:56.789704,789704,73,120,301,109,21,30,89,122
12:28:56.790705,790705,73,120,301,109,21,30,89,122
12:28:56.791704,791704,73,120,301,109,21,30,89,122
12:28:56.792704,792704,73,120,301,109,21,30,89,122
12:28:56.793704,793704,73,120,301,109,21,30,89,122
12:28:56.794704,794704,73,120,301,109,21,30,89,122
12:28:56.795704,795704,73,120,301,109,21,30,89,122
12:28:56.796704,796704,73,120,301,109,21,30,89,122
12:28:56.797706,797706,73,120,301,109,21,30,89,122
12:28:56.798706,798706,73,120,301,109,21,30,89,122
12:28:56.799707,799707,73,120,301,109,21,30,89,122
12:28:56.800706,800706,73,120,301,109,21,30,89,122
12:28:56.801704,801704,73,120,301,109,21,30,89,122
12:28:56.802707,802707,73,120,301,109,21,30,89,122
12:28:56.803705,803705,73,120,301,109,21,30,89,122
12:28:56.804704,804704,73,120,301,109,21,30,89,122
12:28:56.805704,805704,73,120,301,109,21,30,89,122
12:28:56.805704,805704,88,78,392,123,40,31,84,145
12:28:56.806706,806706,88,78,392,123,40,31,84,145
12:28:56.807705,807705,88,78,392,123,40,31,84,145
12:28:56.808704,808704,88,78,392,123,40,31,84,145
12:28:56.809705,809705,88,78,392,123,40,31,84,145
12:28:56.810704,810704,88,78,392,123,40,31,84,145
12:28:56.811705,811705,88,78,392,123,40,31,84,145
12:28:56.812704,812704,88,78,392,123,40,31,84,145
12:28:56.813704,813704,88,78,392,123,40,31,84,145
12:28:56.814705,814705,88,78,392,123,40,31,84,145
12:28:56.815703,815703,88,78,392,123,40,31,84,145
12:28:56.816704,816704,88,78,392,123,40,31,84,145
12:28:56.817703,817703,88,78,392,123,40,31,84,145
12:28:56.818704,818704,88,78,392,123,40,31,84,145
12:28:56.819707,819707,88,78,392,123,40,31,84,145
12:28:56.820705,820705,88,78,392,123,40,31,84,145
12:28:56.820705,820705,64,59,506,103,36,22,54,121
12:28:56.820705,820705,59,63,508,117,37,17,51,134
12:28:56.820705,820705,47,57,486,110,37,16,47,131
12:28:56.821707,821707,47,57,486,110,37,16,47,131
12:28:56.822707,822707,47,57,486,110,37,16,47,131
12:28:56.823707,823707,47,57,486,110,37,16,47,131
12:28:56.824706,824706,47,57,486,110,37,16,47,131
12:28:56.825705,825705,47,57,486,110,37,16,47,131
12:28:56.826705,826705,47,57,486,110,37,16,47,131
12:28:56.827704,827704,47,57,486,110,37,16,47,131
12:28:56.828704,828704,47,57,486,110,37,16,47,131
12:28:56.829705,829705,47,57,486,110,37,16,47,131
12:28:56.830704,830704,47,57,486,110,37,16,47,131
12:28:56.831705,831705,47,57,486,110,37,16,47,131
12:28:56.832704,832704,47,57,486,110,37,16,47,131
12:28:56.833704,833704,47,57,486,110,37,16,47,131
12:28:56.834703,834703,47,57,486,110,37,16,47,131
12:28:56.835705,835705,47,57,486,110,37,16,47,131
12:28:56.836705,836705,54,72,340,70,29,9,67,126
12:28:56.837706,837706,54,72,340,70,29,9,67,126
12:28:56.838705,838705,54,72,340,70,29,9,67,126
12:28:56.839705,839705,54,72,340,70,29,9,67,126
12:28:56.840707,840707,54,72,340,70,29,9,67,126
12:28:56.841705,841705,54,72,340,70,29,9,67,126
12:28:56.842706,842706,54,72,340,70,29,9,67,126
12:28:56.843707,843707,54,72,340,70,29,9,67,126
12:28:56.844706,844706,54,72,340,70,29,9,67,126
12:28:56.845705,845705,54,72,340,70,29,9,67,126
12:28:56.846708,846708,54,72,340,70,29,9,67,126
12:28:56.847705,847705,54,72,340,70,29,9,67,126
12:28:56.848706,848706,54,72,340,70,29,9,67,126
12:28:56.849706,849706,54,72,340,70,29,9,67,126
12:28:56.850704,850704,54,72,340,70,29,9,67,126
12:28:56.851704,851704,54,72,340,70,29,9,67,126
12:28:56.852706,852706,54,72,340,70,29,9,67,126
12:28:56.853704,853704,54,72,340,70,29,9,67,126
12:28:56.854704,854704,54,72,340,70,29,9,67,126
12:28:56.855704,855704,54,72,340,70,29,9,67,126
12:28:56.856704,856704,54,72,340,70,29,9,67,126
12:28:56.857705,857705,54,72,340,70,29,9,67,126
12:28:56.858704,858704,54,72,340,70,29,9,67,126
12:28:56.859705,859705,54,72,340,70,29,9,67,126
12:28:56.860706,860706,54,72,340,70,29,9,67,126
12:28:56.861707,861707,54,72,340,70,29,9,67,126
12:28:56.862706,862706,54,72,340,70,29,9,67,126
12:28:56.863707,863707,54,72,340,70,29,9,67,126
12:28:56.864706,864706,54,72,340,70,29,9,67,126
12:28:56.865707,865707,54,72,340,70,29,9,67,126
12:28:56.866704,866704,54,72,340,70,29,9,67,126
12:28:56.867704,867704,62,74,287,59,25,8,73,119
12:28:56.868706,868706,62,74,287,59,25,8,73,119
12:28:56.869705,869705,62,74,287,59,25,8,73,119
12:28:56.870704,870704,62,74,287,59,25,8,73,119
12:28:56.871704,871704,62,74,287,59,25,8,73,119
12:28:56.872705,872705,62,74,287,59,25,8,73,119
12:28:56.873704,873704,62,74,287,59,25,8,73,119
12:28:56.874705,874705,62,74,287,59,25,8,73,119
12:28:56.875704,875704,62,74,287,59,25,8,73,119
12:28:56.876704,876704,62,74,287,59,25,8,73,119
12:28:56.877703,877703,62,74,287,59,25,8,73,119
12:28:56.878703,878703,62,74,287,59,25,8,73,119
12:28:56.879704,879704,62,74,287,59,25,8,73,119
12:28:56.880704,880704,62,74,287,59,25,8,73,119
12:28:56.881706,881706,62,74,287,59,25,8,73,119
12:28:56.882706,882706,62,74,287,59,25,8,73,119
12:28:56.883705,883705,62,74,287,59,25,8,73,119
12:28:56.883705,883705,64,72,230,63,29,13,75,127
12:28:56.883705,883705,56,66,195,71,31,14,74,132
12:28:56.883705,883705,57,61,196,55,27,18,73,164
12:28:56.884708,884708,54,59,199,67,21,20,89,193
12:28:56.884708,884708,59,52,246,63,20,20,82,181
12:28:56.884708,884708,51,40,280,63,19,18,59,187
12:28:56.885704,885704,51,40,280,63,19,18,59,187
12:28:56.886701,886701,51,40,280,63,19,18,59,187
12:28:56.887701,887701,51,40,280,63,19,18,59,187
12:28:56.888702,888702,51,40,280,63,19,18,59,187
12:28:56.889701,889701,51,40,280,63,19,18,59,187
12:28:56.890701,890701,51,40,280,63,19,18,59,187
12:28:56.891700,891700,51,40,280,63,19,18,59,187
12:28:56.892700,892700,51,40,280,63,19,18,59,187
12:28:56.893701,893701,51,40,280,63,19,18,59,187
12:28:56.894701,894701,51,40,280,63,19,18,59,187
12:28:56.895702,895702,51,40,280,63,19,18,59,187
12:28:56.896701,896701,51,40,280,63,19,18,59,187
12:28:56.897701,897701,51,40,280,63,19,18,59,187
12:28:56.898700,898700,51,40,280,63,19,18,59,187
12:28:56.899701,899701,52,48,320,77,21,20,67,180
12:28:56.899701,899701,52,49,315,86,23,20,69,178
12:28:56.899701,899701,49,52,269,88,21,21,61,162
12:28:56.899701,899701,54,56,324,83,16,18,59,157
12:28:56.900702,900702,54,56,324,83,16,18,59,157
12:28:56.901701,901701,54,56,324,83,16,18,59,157
12:28:56.902703,902703,54,56,324,83,16,18,59,157
12:28:56.903701,903701,54,56,324,83,16,18,59,157
12:28:56.904702,904702,54,56,324,83,16,18,59,157
12:28:56.905702,905702,54,56,324,83,16,18,59,157
12:28:56.906701,906701,54,56,324,83,16,18,59,157
12:28:56.907702,907702,54,56,324,83,16,18,59,157
12:28:56.908702,908702,54,56,324,83,16,18,59,157
12:28:56.909701,909701,54,56,324,83,16,18,59,157
12:28:56.910701,910701,54,56,324,83,16,18,59,157
12:28:56.911701,911701,54,56,324,83,16,18,59,157
12:28:56.912701,912701,54,56,324,83,16,18,59,157
12:28:56.913700,913700,54,56,324,83,16,18,59,157
12:28:56.914700,914700,54,56,324,83,16,18,59,157
12:28:56.915700,915700,54,56,324,83,16,18,59,157
12:28:56.915700,915700,54,53,364,86,15,20,86,169
12:28:56.916701,916701,54,53,364,86,15,20,86,169
12:28:56.917701,917701,54,53,364,86,15,20,86,169
12:28:56.918701,918701,54,53,364,86,15,20,86,169
12:28:56.919701,919701,54,53,364,86,15,20,86,169
12:28:56.920701,920701,54,53,364,86,15,20,86,169
12:28:56.921701,921701,54,53,364,86,15,20,86,169
12:28:56.922701,922701,54,53,364,86,15,20,86,169
12:28:56.923703,923703,54,53,364,86,15,20,86,169
12:28:56.924702,924702,54,53,364,86,15,20,86,169
12:28:56.925701,925701,54,53,364,86,15,20,86,169
12:28:56.926703,926703,54,53,364,86,15,20,86,169
12:28:56.927701,927701,54,53,364,86,15,20,86,169
12:28:56.928702,928702,54,53,364,86,15,20,86,169
12:28:56.929701,929701,54,53,364,86,15,20,86,169
12:28:56.930701,930701,54,53,364,86,15,20,86,169
12:28:56.931701,931701,54,53,364,86,15,20,86,169
12:28:56.931701,931701,52,67,351,80,14,20,85,158
12:28:56.932703,932703,52,67,351,80,14,20,85,158
12:28:56.933703,933703,52,67,351,80,14,20,85,158
12:28:56.934703,934703,52,67,351,80,14,20,85,158
12:28:56.935738,935738,52,67,351,80,14,20,85,158
12:28:56.936703,936703,52,67,351,80,14,20,85,158
12:28:56.937737,937737,52,67,351,80,14,20,85,158
12:28:56.938739,938739,52,67,351,80,14,20,85,158
12:28:56.939762,939762,52,67,351,80,14,20,85,158
12:28:56.940738,940738,52,67,351,80,14,20,85,158
12:28:56.941740,941740,52,67,351,80,14,20,85,158
12:28:56.942738,942738,52,67,351,80,14,20,85,158
12:28:56.943704,943704,52,67,351,80,14,20,85,158
12:28:56.944702,944702,52,67,351,80,14,20,85,158
12:28:56.945742,945742,52,67,351,80,14,20,85,158
12:28:56.946704,946704,52,67,351,80,14,20,85,158
12:28:56.947704,947704,52,67,351,80,14,20,85,158
12:28:56.947704,947704,56,92,328,80,16,17,77,138
12:28:56.947704,947704,52,93,317,81,16,17,84,160
12:28:56.947704,947704,55,106,277,84,21,17,99,178
12:28:56.947704,947704,52,103,295,71,18,14,109,175
12:28:56.948749,948749,48,94,290,66,17,14,108,175
12:28:56.949738,949738,48,94,290,66,17,14,108,175
12:28:56.950704,950704,48,94,290,66,17,14,108,175
12:28:56.951703,951703,48,94,290,66,17,14,108,175
12:28:56.952703,952703,48,94,290,66,17,14,108,175
12:28:56.953742,953742,48,94,290,66,17,14,108,175
12:28:56.954738,954738,48,94,290,66,17,14,108,175
12:28:56.955702,955702,48,94,290,66,17,14,108,175
12:28:56.956703,956703,48,94,290,66,17,14,108,175
12:28:56.957704,957704,48,94,290,66,17,14,108,175
12:28:56.958738,958738,48,94,290,66,17,14,108,175
12:28:56.959702,959702,48,94,290,66,17,14,108,175
12:28:56.960704,960704,48,94,290,66,17,14,108,175
12:28:56.961739,961739,48,94,290,66,17,14,108,175
12:28:56.962741,962741,48,94,290,66,17,14,108,175
12:28:56.963739,963739,48,94,290,66,17,14,108,175
12:28:56.963739,963739,39,82,238,97,19,14,89,162
12:28:56.963739,963739,45,87,182,92,16,12,70,159
12:28:56.963739,963739,45,75,187,92,17,13,69,164
12:28:56.964739,964739,45,75,187,92,17,13,69,164
12:28:56.965704,965704,45,75,187,92,17,13,69,164
12:28:56.966746,966746,45,75,187,92,17,13,69,164
12:28:56.967703,967703,45,75,187,92,17,13,69,164
12:28:56.968741,968741,45,75,187,92,17,13,69,164
12:28:56.969742,969742,45,75,187,92,17,13,69,164
12:28:56.970737,970737,45,75,187,92,17,13,69,164
12:28:56.971704,971704,45,75,187,92,17,13,69,164
12:28:56.972737,972737,45,75,187,92,17,13,69,164
12:28:56.973740,973740,45,75,187,92,17,13,69,164
12:28:56.974738,974738,45,75,187,92,17,13,69,164
12:28:56.975739,975739,45,75,187,92,17,13,69,164
12:28:56.976739,976739,45,75,187,92,17,13,69,164
12:28:56.977703,977703,45,75,187,92,17,13,69,164
12:28:56.978737,978737,45,75,187,92,17,13,69,164
12:28:56.979738,979738,45,75,187,92,17,13,69,164
12:28:56.980740,980740,45,75,187,92,17,13,69,164
12:28:56.981738,981738,45,75,187,92,17,13,69,164
12:28:56.982703,982703,45,75,187,92,17,13,69,164
12:28:56.983702,983702,45,75,187,92,17,13,69,164
12:28:56.984741,984741,45,75,187,92,17,13,69,164
12:28:56.985703,985703,45,75,187,92,17,13,69,164
12:28:56.986704,986704,45,75,187,92,17,13,69,164
12:28:56.987706,987706,45,75,187,92,17,13,69,164
12:28:56.988705,988705,45,75,187,92,17,13,69,164
12:28:56.989705,989705,45,75,187,92,17,13,69,164
12:28:56.990740,990740,45,75,187,92,17,13,69,164
12:28:56.991741,991741,45,75,187,92,17,13,69,164
12:28:56.992705,992705,45,75,187,92,17,13,69,164
12:28:56.993741,993741,45,75,187,92,17,13,69,164
12:28:56.994742,994742,45,75,187,92,17,13,69,164
12:28:56.995740,995740,45,75,187,92,17,13,69,164
12:28:56.995740,995740,68,70,259,96,11,13,34,104
12:28:56.996705,996705,68,70,259,96,11,13,34,104
12:28:56.997740,997740,68,70,259,96,11,13,34,104
12:28:56.998703,998703,68,70,259,96,11,13,34,104
12:28:56.998804,998804,68,70,259,96,11,13,34,104
12:28:56.999740,999740,68,70,259,96,11,13,34,104
12:28:57.000740,000740,68,70,259,96,11,13,34,104
12:28:57.001744,001744,68,70,259,96,11,13,34,104
12:28:57.002740,002740,68,70,259,96,11,13,34,104
12:28:57.003742,003742,68,70,259,96,11,13,34,104
12:28:57.004740,004740,68,70,259,96,11,13,34,104
12:28:57.005742,005742,68,70,259,96,11,13,34,104
12:28:57.006703,006703,68,70,259,96,11,13,34,104
12:28:57.007703,007703,68,70,259,96,11,13,34,104
12:28:57.008704,008704,68,70,259,96,11,13,34,104
12:28:57.009703,009703,68,70,259,96,11,13,34,104
12:28:57.010706,010706,68,70,259,96,11,13,34,104
12:28:57.010706,010706,68,57,279,71,12,16,33,137
12:28:57.011741,011741,68,57,279,71,12,16,33,137
12:28:57.012749,012749,68,57,279,71,12,16,33,137
12:28:57.013741,013741,68,57,279,71,12,16,33,137
12:28:57.014759,014759,68,57,279,71,12,16,33,137
12:28:57.015702,015702,68,57,279,71,12,16,33,137
12:28:57.016705,016705,68,57,279,71,12,16,33,137
12:28:57.017744,017744,68,57,279,71,12,16,33,137
12:28:57.018740,018740,68,57,279,71,12,16,33,137
12:28:57.019704,019704,68,57,279,71,12,16,33,137
12:28:57.020703,020703,68,57,279,71,12,16,33,137
12:28:57.021705,021705,68,57,279,71,12,16,33,137
12:28:57.022704,022704,68,57,279,71,12,16,33,137
12:28:57.023730,023730,68,57,279,71,12,16,33,137
12:28:57.024731,024731,68,57,279,71,12,16,33,137
12:28:57.025730,025730,68,57,279,71,12,16,33,137
12:28:57.026731,026731,88,29,299,98,19,15,44,187
12:28:57.027703,027703,88,29,299,98,19,15,44,187
12:28:57.028703,028703,88,29,299,98,19,15,44,187
12:28:57.029702,029702,88,29,299,98,19,15,44,187
12:28:57.030702,030702,88,29,299,98,19,15,44,187
12:28:57.031702,031702,88,29,299,98,19,15,44,187
12:28:57.032703,032703,88,29,299,98,19,15,44,187
12:28:57.033702,033702,88,29,299,98,19,15,44,187
12:28:57.034702,034702,88,29,299,98,19,15,44,187
12:28:57.035702,035702,88,29,299,98,19,15,44,187
12:28:57.036702,036702,88,29,299,98,19,15,44,187
12:28:57.037702,037702,88,29,299,98,19,15,44,187
12:28:57.038702,038702,88,29,299,98,19,15,44,187
12:28:57.039702,039702,88,29,299,98,19,15,44,187
12:28:57.040702,040702,88,29,299,98,19,15,44,187
12:28:57.041702,041702,88,29,299,98,19,15,44,187
12:28:57.042702,042702,88,29,299,98,19,15,44,187
12:28:57.042702,042702,67,27,363,92,21,14,50,232
12:28:57.042702,042702,63,32,334,98,27,19,54,252
12:28:57.043742,043742,63,32,334,98,27,19,54,252
12:28:57.044743,044743,63,32,334,98,27,19,54,252
12:28:57.045741,045741,63,32,334,98,27,19,54,252
12:28:57.046741,046741,63,32,334,98,27,19,54,252
12:28:57.047741,047741,63,32,334,98,27,19,54,252
12:28:57.048704,048704,63,32,334,98,27,19,54,252
12:28:57.049740,049740,63,32,334,98,27,19,54,252
12:28:57.050740,050740,63,32,334,98,27,19,54,252
12:28:57.051743,051743,63,32,334,98,27,19,54,252
12:28:57.052741,052741,63,32,334,98,27,19,54,252
12:28:57.053743,053743,63,32,334,98,27,19,54,252
12:28:57.054741,054741,63,32,334,98,27,19,54,252
12:28:57.055740,055740,63,32,334,98,27,19,54,252
12:28:57.056740,056740,63,32,334,98,27,19,54,252
12:28:57.057705,057705,63,32,334,98,27,19,54,252
12:28:57.058702,058702,63,32,334,98,27,19,54,252
12:28:57.058702,058702,65,36,338,101,31,17,54,257
12:28:57.059744,059744,65,36,338,101,31,17,54,257
12:28:57.060742,060742,65,36,338,101,31,17,54,257
12:28:57.061736,061736,65,36,338,101,31,17,54,257
12:28:57.062740,062740,65,36,338,101,31,17,54,257
12:28:57.063740,063740,65,36,338,101,31,17,54,257
12:28:57.064752,064752,65,36,338,101,31,17,54,257
12:28:57.065756,065756,65,36,338,101,31,17,54,257
12:28:57.066752,066752,65,36,338,101,31,17,54,257
12:28:57.067752,067752,65,36,338,101,31,17,54,257
12:28:57.068737,068737,65,36,338,101,31,17,54,257
12:28:57.069704,069704,65,36,338,101,31,17,54,257
12:28:57.070746,070746,65,36,338,101,31,17,54,257
12:28:57.071741,071741,65,36,338,101,31,17,54,257
12:28:57.072741,072741,65,36,338,101,31,17,54,257
12:28:57.073705,073705,65,36,338,101,31,17,54,257
12:28:57.074741,074741,65,36,338,101,31,17,54,257
12:28:57.074741,074741,65,45,300,68,35,17,61,202
12:28:57.075704,075704,65,45,300,68,35,17,61,202
12:28:57.076707,076707,65,45,300,68,35,17,61,202
12:28:57.077703,077703,65,45,300,68,35,17,61,202
12:28:57.078702,078702,65,45,300,68,35,17,61,202
12:28:57.079704,079704,65,45,300,68,35,17,61,202
12:28:57.080702,080702,54,96,162,52,36,17,54,185
12:28:57.081705,081705,54,96,162,52,36,17,54,185
12:28:57.082704,082704,54,96,162,52,36,17,54,185
12:28:57.083705,083705,54,96,162,52,36,17,54,185
12:28:57.084703,084703,54,96,162,52,36,17,54,185
12:28:57.085705,085705,54,96,162,52,36,17,54,185
12:28:57.086741,086741,54,96,162,52,36,17,54,185
12:28:57.087709,087709,54,96,162,52,36,17,54,185
12:28:57.088753,088753,54,96,162,52,36,17,54,185
12:28:57.089703,089703,54,96,162,52,36,17,54,185
12:28:57.090741,090741,54,96,162,52,36,17,54,185
12:28:57.091704,091704,54,96,162,52,36,17,54,185
12:28:57.092744,092744,54,96,162,52,36,17,54,185
12:28:57.093705,093705,54,96,162,52,36,17,54,185
12:28:57.094705,094705,54,96,162,52,36,17,54,185
12:28:57.095740,095740,54,96,162,52,36,17,54,185
12:28:57.096747,096747,54,96,162,52,36,17,54,185
12:28:57.097705,097705,54,96,162,52,36,17,54,185
12:28:57.098705,098705,54,96,162,52,36,17,54,185
12:28:57.099740,099740,54,96,162,52,36,17,54,185
12:28:57.100741,100741,54,96,162,52,36,17,54,185
12:28:57.101743,101743,54,96,162,52,36,17,54,185
12:28:57.102740,102740,54,96,162,52,36,17,54,185
12:28:57.103755,103755,54,96,162,52,36,17,54,185
12:28:57.104751,104751,54,96,162,52,36,17,54,185
12:28:57.105740,105740,54,96,162,52,36,17,54,185
12:28:57.106740,106740,54,96,162,52,36,17,54,185
12:28:57.106740,106740,59,110,250,72,20,18,46,159
12:28:57.107705,107705,59,110,250,72,20,18,46,159
12:28:57.108744,108744,59,110,250,72,20,18,46,159
12:28:57.109705,109705,59,110,250,72,20,18,46,159
12:28:57.110705,110705,59,110,250,72,20,18,46,159
12:28:57.111704,111704,59,110,250,72,20,18,46,159
12:28:57.112702,112702,59,110,250,72,20,18,46,159
12:28:57.113740,113740,59,110,250,72,20,18,46,159
12:28:57.114740,114740,59,110,250,72,20,18,46,159
12:28:57.115742,115742,59,110,250,72,20,18,46,159
12:28:57.116740,116740,59,110,250,72,20,18,46,159
12:28:57.117704,117704,59,110,250,72,20,18,46,159
12:28:57.118704,118704,59,110,250,72,20,18,46,159
12:28:57.119704,119704,59,110,250,72,20,18,46,159
12:28:57.120702,120702,59,110,250,72,20,18,46,159
12:28:57.121739,121739,59,110,250,72,20,18,46,159
12:28:57.122741,122741,59,110,250,72,20,18,46,159
12:28:57.122741,122741,68,94,276,67,18,17,45,169
12:28:57.123702,123702,68,94,276,67,18,17,45,169
12:28:57.124704,124704,68,94,276,67,18,17,45,169
12:28:57.125741,125741,68,94,276,67,18,17,45,169
12:28:57.126751,126751,68,94,276,67,18,17,45,169
12:28:57.127741,127741,68,94,276,67,18,17,45,169
12:28:57.128751,128751,68,94,276,67,18,17,45,169
12:28:57.129756,129756,68,94,276,67,18,17,45,169
12:28:57.130741,130741,68,94,276,67,18,17,45,169
12:28:57.131703,131703,68,94,276,67,18,17,45,169
12:28:57.132705,132705,68,94,276,67,18,17,45,169
12:28:57.133707,133707,68,94,276,67,18,17,45,169
12:28:57.134740,134740,68,94,276,67,18,17,45,169
12:28:57.135746,135746,68,94,276,67,18,17,45,169
12:28:57.136702,136702,68,94,276,67,18,17,45,169
12:28:57.137705,137705,68,94,276,67,18,17,45,169
12:28:57.138752,138752,70,68,275,66,19,16,45,177
12:28:57.139703,139703,70,68,275,66,19,16,45,177
12:28:57.140743,140743,70,68,275,66,19,16,45,177
12:28:57.141740,141740,70,68,275,66,19,16,45,177
12:28:57.142705,142705,70,68,275,66,19,16,45,177
12:28:57.143702,143702,70,68,275,66,19,16,45,177
12:28:57.144740,144740,70,68,275,66,19,16,45,177
12:28:57.145743,145743,70,68,275,66,19,16,45,177
12:28:57.146705,146705,70,68,275,66,19,16,45,177
12:28:57.147737,147737,70,68,275,66,19,16,45,177
12:28:57.148705,148705,70,68,275,66,19,16,45,177
12:28:57.149743,149743,70,68,275,66,19,16,45,177
12:28:57.150740,150740,70,68,275,66,19,16,45,177
12:28:57.151740,151740,70,68,275,66,19,16,45,177
12:28:57.152704,152704,70,68,275,66,19,16,45,177
12:28:57.153741,153741,70,68,275,66,19,16,45,177
12:28:57.154741,154741,69,65,260,71,15,13,42,102
12:28:57.154741,154741,60,59,239,69,13,16,27,96
12:28:57.154741,154741,65,52,239,61,13,14,25,100
12:28:57.154741,154741,61,55,189,37,15,14,25,97
12:28:57.155732,155732,61,55,189,37,15,14,25,97
12:28:57.156702,156702,61,55,189,37,15,14,25,97
12:28:57.157705,157705,61,55,189,37,15,14,25,97
12:28:57.158702,158702,61,55,189,37,15,14,25,97
12:28:57.159703,159703,61,55,189,37,15,14,25,97
12:28:57.160706,160706,61,55,189,37,15,14,25,97
12:28:57.161743,161743,61,55,189,37,15,14,25,97
12:28:57.162739,162739,61,55,189,37,15,14,25,97
12:28:57.163707,163707,61,55,189,37,15,14,25,97
12:28:57.164751,164751,61,55,189,37,15,14,25,97
12:28:57.165750,165750,61,55,189,37,15,14,25,97
12:28:57.166750,166750,61,55,189,37,15,14,25,97
12:28:57.167752,167752,61,55,189,37,15,14,25,97
12:28:57.168712,168712,61,55,189,37,15,14,25,97
12:28:57.169740,169740,61,55,189,37,15,14,25,97
12:28:57.169740,169740,70,59,144,25,18,20,43,114
12:28:57.169740,169740,61,60,121,26,17,19,39,116
12:28:57.170740,170740,61,60,121,26,17,19,39,116
12:28:57.171750,171750,61,60,121,26,17,19,39,116
12:28:57.172741,172741,61,60,121,26,17,19,39,116
12:28:57.173703,173703,61,60,121,26,17,19,39,116
12:28:57.174740,174740,61,60,121,26,17,19,39,116
12:28:57.175704,175704,61,60,121,26,17,19,39,116
12:28:57.176741,176741,61,60,121,26,17,19,39,116
12:28:57.177739,177739,61,60,121,26,17,19,39,116
12:28:57.178751,178751,61,60,121,26,17,19,39,116
12:28:57.179751,179751,61,60,121,26,17,19,39,116
12:28:57.180750,180750,61,60,121,26,17,19,39,116
12:28:57.181742,181742,61,60,121,26,17,19,39,116
12:28:57.182705,182705,61,60,121,26,17,19,39,116
12:28:57.183737,183737,61,60,121,26,17,19,39,116
12:28:57.184740,184740,61,60,121,26,17,19,39,116
12:28:57.185741,185741,61,60,121,26,17,19,39,116
12:28:57.185741,185741,43,56,155,19,17,27,61,97
12:28:57.186704,186704,43,56,155,19,17,27,61,97
12:28:57.187740,187740,43,56,155,19,17,27,61,97
12:28:57.188743,188743,43,56,155,19,17,27,61,97
12:28:57.189705,189705,43,56,155,19,17,27,61,97
12:28:57.190702,190702,43,56,155,19,17,27,61,97
12:28:57.191740,191740,43,56,155,19,17,27,61,97
12:28:57.192731,192731,43,56,155,19,17,27,61,97
12:28:57.193743,193743,43,56,155,19,17,27,61,97
12:28:57.194715,194715,43,56,155,19,17,27,61,97
12:28:57.195743,195743,43,56,155,19,17,27,61,97
12:28:57.196740,196740,43,56,155,19,17,27,61,97
12:28:57.197742,197742,43,56,155,19,17,27,61,97
12:28:57.198740,198740,43,56,155,19,17,27,61,97
12:28:57.199746,199746,43,56,155,19,17,27,61,97
12:28:57.200704,200704,43,56,155,19,17,27,61,97
12:28:57.201702,201702,43,56,155,19,17,27,61,97
12:28:57.202704,202704,43,56,155,19,17,27,61,97
12:28:57.203703,203703,43,56,155,19,17,27,61,97
12:28:57.204732,204732,43,56,155,19,17,27,61,97
12:28:57.205728,205728,43,56,155,19,17,27,61,97
12:28:57.206730,206730,43,56,155,19,17,27,61,97
12:28:57.207704,207704,43,56,155,19,17,27,61,97
12:28:57.208702,208702,43,56,155,19,17,27,61,97
12:28:57.209747,209747,43,56,155,19,17,27,61,97
12:28:57.210730,210730,43,56,155,19,17,27,61,97
12:28:57.211732,211732,43,56,155,19,17,27,61,97
12:28:57.212730,212730,43,56,155,19,17,27,61,97
12:28:57.213740,213740,43,56,155,19,17,27,61,97
12:28:57.214724,214724,43,56,155,19,17,27,61,97
12:28:57.215729,215729,43,56,155,19,17,27,61,97
12:28:57.216703,216703,43,56,155,19,17,27,61,97
12:28:57.217703,217703,43,56,155,19,17,27,61,97
12:28:57.217703,217703,33,54,181,59,17,28,48,126
12:28:57.217703,217703,33,45,232,106,23,28,50,113
12:28:57.217703,217703,30,30,303,156,25,24,42,113
12:28:57.218731,218731,30,30,303,156,25,24,42,113
12:28:57.219729,219729,30,30,303,156,25,24,42,113
12:28:57.220729,220729,30,30,303,156,25,24,42,113
12:28:57.221729,221729,30,30,303,156,25,24,42,113
12:28:57.222730,222730,30,30,303,156,25,24,42,113
12:28:57.223703,223703,30,30,303,156,25,24,42,113
12:28:57.224704,224704,30,30,303,156,25,24,42,113
12:28:57.225731,225731,30,30,303,156,25,24,42,113
12:28:57.226743,226743,30,30,303,156,25,24,42,113
12:28:57.227744,227744,30,30,303,156,25,24,42,113
12:28:57.228739,228739,30,30,303,156,25,24,42,113
12:28:57.229740,229740,30,30,303,156,25,24,42,113
12:28:57.230728,230728,30,30,303,156,25,24,42,113
12:28:57.231729,231729,30,30,303,156,25,24,42,113
12:28:57.232704,232704,30,30,303,156,25,24,42,113
12:28:57.233702,233702,30,30,303,156,25,24,42,113
12:28:57.234740,234740,30,30,303,156,25,24,42,113
12:28:57.235705,235705,30,30,303,156,25,24,42,113
12:28:57.236743,236743,30,30,303,156,25,24,42,113
12:28:57.237752,237752,30,30,303,156,25,24,42,113
12:28:57.238751,238751,30,30,303,156,25,24,42,113
12:28:57.239751,239751,30,30,303,156,25,24,42,113
12:28:57.240754,240754,30,30,303,156,25,24,42,113
12:28:57.241750,241750,30,30,303,156,25,24,42,113
12:28:57.242739,242739,30,30,303,156,25,24,42,113
12:28:57.243703,243703,30,30,303,156,25,24,42,113
12:28:57.244740,244740,30,30,303,156,25,24,42,113
12:28:57.245704,245704,30,30,303,156,25,24,42,113
12:28:57.246740,246740,30,30,303,156,25,24,42,113
12:28:57.247703,247703,30,30,303,156,25,24,42,113
12:28:57.248740,248740,30,30,303,156,25,24,42,113
12:28:57.249740,249740,30,30,303,156,25,24,42,113
12:28:57.249740,249740,31,30,272,228,28,23,32,141
12:28:57.250707,250707,31,30,272,228,28,23,32,141
12:28:57.251705,251705,31,30,272,228,28,23,32,141
12:28:57.252732,252732,31,30,272,228,28,23,32,141
12:28:57.253728,253728,31,30,272,228,28,23,32,141
12:28:57.254740,254740,31,30,272,228,28,23,32,141
12:28:57.255739,255739,31,30,272,228,28,23,32,141
12:28:57.256703,256703,31,30,272,228,28,23,32,141
12:28:57.257702,257702,31,30,272,228,28,23,32,141
12:28:57.258702,258702,31,30,272,228,28,23,32,141
12:28:57.259702,259702,31,30,272,228,28,23,32,141
12:28:57.260704,260704,31,30,272,228,28,23,32,141
12:28:57.261702,261702,31,30,272,228,28,23,32,141
12:28:57.262705,262705,31,30,272,228,28,23,32,141
12:28:57.263739,263739,31,30,272,228,28,23,32,141
12:28:57.264740,264740,31,30,272,228,28,23,32,141
12:28:57.265740,265740,31,30,272,228,28,23,32,141
12:28:57.265740,265740,35,35,450,320,39,27,25,106
12:28:57.265740,265740,40,45,507,327,42,28,24,97
12:28:57.265740,265740,48,56,503,322,42,26,23,106
12:28:57.265740,265740,67,63,555,323,42,26,27,97
12:28:57.266740,266740,73,78,572,307,32,24,20,101
12:28:57.267739,267739,73,78,572,307,32,24,20,101
12:28:57.268702,268702,73,78,572,307,32,24,20,101
12:28:57.269705,269705,73,78,572,307,32,24,20,101
12:28:57.270740,270740,73,78,572,307,32,24,20,101
12:28:57.271740,271740,73,78,572,307,32,24,20,101
12:28:57.272703,272703,73,78,572,307,32,24,20,101
12:28:57.273743,273743,73,78,572,307,32,24,20,101
12:28:57.274740,274740,73,78,572,307,32,24,20,101
12:28:57.275705,275705,73,78,572,307,32,24,20,101
12:28:57.276704,276704,73,78,572,307,32,24,20,101
12:28:57.277705,277705,73,78,572,307,32,24,20,101
12:28:57.278740,278740,73,78,572,307,32,24,20,101
12:28:57.279740,279740,73,78,572,307,32,24,20,101
12:28:57.280741,280741,73,78,572,307,32,24,20,101
12:28:57.281745,281745,75,88,559,317,33,24,27,101
12:28:57.281745,281745,84,91,549,271,32,24,28,131
12:28:57.281745,281745,91,116,547,219,31,21,32,105
12:28:57.281745,281745,90,116,510,190,25,17,48,112
12:28:57.282705,282705,90,116,510,190,25,17,48,112
12:28:57.283703,283703,90,116,510,190,25,17,48,112
12:28:57.284753,284753,90,116,510,190,25,17,48,112
12:28:57.285740,285740,90,116,510,190,25,17,48,112
12:28:57.286739,286739,90,116,510,190,25,17,48,112
12:28:57.287739,287739,90,116,510,190,25,17,48,112
12:28:57.288739,288739,90,116,510,190,25,17,48,112
12:28:57.289742,289742,90,116,510,190,25,17,48,112
12:28:57.290739,290739,90,116,510,190,25,17,48,112
12:28:57.291740,291740,90,116,510,190,25,17,48,112
12:28:57.292739,292739,90,116,510,190,25,17,48,112
12:28:57.293702,293702,90,116,510,190,25,17,48,112
12:28:57.294740,294740,90,116,510,190,25,17,48,112
12:28:57.295703,295703,90,116,510,190,25,17,48,112
12:28:57.296740,296740,90,116,510,190,25,17,48,112
12:28:57.297703,297703,90,116,510,190,25,17,48,112
12:28:57.298142,298142,90,116,510,190,25,17,48,112
12:28:57.298702,298702,90,116,510,190,25,17,48,112
12:28:57.299740,299740,90,116,510,190,25,17,48,112
12:28:57.300742,300742,90,116,510,190,25,17,48,112
12:28:57.301739,301739,90,116,510,190,25,17,48,112
12:28:57.302742,302742,90,116,510,190,25,17,48,112
12:28:57.303302,303302,90,116,510,190,25,17,48,112
12:28:57.304334,304334,90,116,510,190,25,17,48,112
12:28:57.305337,305337,90,116,510,190,25,17,48,112
12:28:57.305882,305882,90,116,510,190,25,17,48,112
12:28:57.306928,306928,90,116,510,190,25,17,48,112
12:28:57.307893,307893,90,116,510,190,25,17,48,112
12:28:57.308931,308931,90,116,510,190,25,17,48,112
12:28:57.309893,309893,90,116,510,190,25,17,48,112
12:28:57.310928,310928,90,116,510,190,25,17,48,112
12:28:57.311931,311931,90,116,510,190,25,17,48,112
12:28:57.312928,312928,90,116,510,190,25,17,48,112
12:28:57.312928,312928,105,140,329,104,17,19,106,172
12:28:57.312928,312928,96,153,330,113,17,21,109,209
12:28:57.313892,313892,96,153,330,113,17,21,109,209
12:28:57.314890,314890,96,153,330,113,17,21,109,209
12:28:57.315890,315890,96,153,330,113,17,21,109,209
12:28:57.316890,316890,96,153,330,113,17,21,109,209
12:28:57.317890,317890,96,153,330,113,17,21,109,209
12:28:57.318893,318893,96,153,330,113,17,21,109,209
12:28:57.319892,319892,96,153,330,113,17,21,109,209
12:28:57.320930,320930,96,153,330,113,17,21,109,209
12:28:57.321892,321892,96,153,330,113,17,21,109,209
12:28:57.322893,322893,96,153,330,113,17,21,109,209
12:28:57.323893,323893,96,153,330,113,17,21,109,209
12:28:57.324890,324890,96,153,330,113,17,21,109,209
12:28:57.325891,325891,96,153,330,113,17,21,109,209
12:28:57.326929,326929,96,153,330,113,17,21,109,209
12:28:57.327929,327929,96,153,330,113,17,21,109,209
12:28:57.328929,328929,96,153,330,113,17,21,109,209
12:28:57.328929,328929,82,156,281,102,16,26,156,259
12:28:57.329929,329929,82,156,281,102,16,26,156,259
12:28:57.330928,330928,82,156,281,102,16,26,156,259
12:28:57.331931,331931,82,156,281,102,16,26,156,259
12:28:57.332893,332893,82,156,281,102,16,26,156,259
12:28:57.333928,333928,82,156,281,102,16,26,156,259
12:28:57.334925,334925,82,156,281,102,16,26,156,259
12:28:57.335928,335928,82,156,281,102,16,26,156,259
12:28:57.336891,336891,82,156,281,102,16,26,156,259
12:28:57.337894,337894,82,156,281,102,16,26,156,259
12:28:57.338930,338930,82,156,281,102,16,26,156,259
12:28:57.339893,339893,82,156,281,102,16,26,156,259
12:28:57.340931,340931,82,156,281,102,16,26,156,259
12:28:57.341929,341929,82,156,281,102,16,26,156,259
12:28:57.342928,342928,82,156,281,102,16,26,156,259
12:28:57.343895,343895,82,156,281,102,16,26,156,259
12:28:57.343895,343895,89,153,263,87,19,27,150,290
12:28:57.343895,343895,71,142,257,98,23,23,138,272
12:28:57.344893,344893,71,142,257,98,23,23,138,272
12:28:57.345929,345929,71,142,257,98,23,23,138,272
12:28:57.346928,346928,71,142,257,98,23,23,138,272
12:28:57.347931,347931,71,142,257,98,23,23,138,272
12:28:57.348928,348928,71,142,257,98,23,23,138,272
12:28:57.349893,349893,71,142,257,98,23,23,138,272
12:28:57.350929,350929,71,142,257,98,23,23,138,272
12:28:57.351929,351929,71,142,257,98,23,23,138,272
12:28:57.352931,352931,71,142,257,98,23,23,138,272
12:28:57.353928,353928,71,142,257,98,23,23,138,272
12:28:57.354930,354930,71,142,257,98,23,23,138,272
12:28:57.355928,355928,71,142,257,98,23,23,138,272
12:28:57.356929,356929,71,142,257,98,23,23,138,272
12:28:57.357928,357928,71,142,257,98,23,23,138,272
12:28:57.358892,358892,71,142,257,98,23,23,138,272
12:28:57.359894,359894,71,142,257,98,23,23,138,272
12:28:57.360895,360895,71,142,257,98,23,23,138,272
12:28:57.361930,361930,71,142,257,98,23,23,138,272
12:28:57.362929,362929,71,142,257,98,23,23,138,272
12:28:57.363928,363928,71,142,257,98,23,23,138,272
12:28:57.364928,364928,71,142,257,98,23,23,138,272
12:28:57.365929,365929,71,142,257,98,23,23,138,272
12:28:57.366929,366929,71,142,257,98,23,23,138,272
12:28:57.367930,367930,71,142,257,98,23,23,138,272
12:28:57.368892,368892,71,142,257,98,23,23,138,272
12:28:57.369929,369929,71,142,257,98,23,23,138,272
12:28:57.370891,370891,71,142,257,98,23,23,138,272
12:28:57.371891,371891,71,142,257,98,23,23,138,272
12:28:57.372891,372891,71,142,257,98,23,23,138,272
12:28:57.373892,373892,71,142,257,98,23,23,138,272
12:28:57.374890,374890,71,142,257,98,23,23,138,272
12:28:57.374890,374890,80,149,266,110,27,25,127,275
12:28:57.374890,374890,98,154,333,122,45,25,122,165
12:28:57.374890,374890,87,181,298,125,55,30,106,165
12:28:57.375892,375892,87,181,298,125,55,30,106,165
12:28:57.376890,376890,87,181,298,125,55,30,106,165
12:28:57.377890,377890,87,181,298,125,55,30,106,165
12:28:57.378890,378890,87,181,298,125,55,30,106,165
12:28:57.379890,379890,87,181,298,125,55,30,106,165
12:28:57.380890,380890,87,181,298,125,55,30,106,165
12:28:57.381890,381890,87,181,298,125,55,30,106,165
12:28:57.382891,382891,87,181,298,125,55,30,106,165
12:28:57.383890,383890,87,181,298,125,55,30,106,165
12:28:57.384890,384890,87,181,298,125,55,30,106,165
12:28:57.385890,385890,87,181,298,125,55,30,106,165
12:28:57.386890,386890,87,181,298,125,55,30,106,165
12:28:57.387890,387890,87,181,298,125,55,30,106,165
12:28:57.388890,388890,87,181,298,125,55,30,106,165
12:28:57.389890,389890,87,181,298,125,55,30,106,165
12:28:57.390890,390890,79,177,238,146,64,23,77,138
12:28:57.391928,391928,79,177,238,146,64,23,77,138
12:28:57.392939,392939,79,177,238,146,64,23,77,138
12:28:57.393893,393893,79,177,238,146,64,23,77,138
12:28:57.394929,394929,79,177,238,146,64,23,77,138
12:28:57.395891,395891,79,177,238,146,64,23,77,138
12:28:57.396890,396890,79,177,238,146,64,23,77,138
12:28:57.397937,397937,79,177,238,146,64,23,77,138
12:28:57.398893,398893,79,177,238,146,64,23,77,138
12:28:57.399928,399928,79,177,238,146,64,23,77,138
12:28:57.400893,400893,79,177,238,146,64,23,77,138
12:28:57.401943,401943,79,177,238,146,64,23,77,138
12:28:57.402892,402892,79,177,238,146,64,23,77,138
12:28:57.403931,403931,79,177,238,146,64,23,77,138
12:28:57.404939,404939,79,177,238,146,64,23,77,138
12:28:57.405928,405928,79,177,238,146,64,23,77,138
12:28:57.405928,405928,72,195,317,263,90,22,69,106
12:28:57.405928,405928,75,211,351,366,86,25,67,124
12:28:57.406894,406894,75,211,351,366,86,25,67,124
12:28:57.407940,407940,75,211,351,366,86,25,67,124
12:28:57.408940,408940,75,211,351,366,86,25,67,124
12:28:57.409890,409890,75,211,351,366,86,25,67,124
12:28:57.410893,410893,75,211,351,366,86,25,67,124
12:28:57.411931,411931,75,211,351,366,86,25,67,124
12:28:57.412893,412893,75,211,351,366,86,25,67,124
12:28:57.413928,413928,75,211,351,366,86,25,67,124
12:28:57.414928,414928,75,211,351,366,86,25,67,124
12:28:57.415944,415944,75,211,351,366,86,25,67,124
12:28:57.416942,416942,75,211,351,366,86,25,67,124
12:28:57.417935,417935,75,211,351,366,86,25,67,124
12:28:57.418890,418890,75,211,351,366,86,25,67,124
12:28:57.419930,419930,75,211,351,366,86,25,67,124
12:28:57.420914,420914,75,211,351,366,86,25,67,124
12:28:57.421891,421891,75,211,351,366,86,25,67,124
12:28:57.422895,422895,75,211,351,366,86,25,67,124
12:28:57.423894,423894,75,211,351,366,86,25,67,124
12:28:57.424896,424896,75,211,351,366,86,25,67,124
12:28:57.425894,425894,75,211,351,366,86,25,67,124
12:28:57.426894,426894,75,211,351,366,86,25,67,124
12:28:57.427893,427893,75,211,351,366,86,25,67,124
12:28:57.428893,428893,75,211,351,366,86,25,67,124
12:28:57.429893,429893,75,211,351,366,86,25,67,124
12:28:57.430896,430896,75,211,351,366,86,25,67,124
12:28:57.431893,431893,75,211,351,366,86,25,67,124
12:28:57.432921,432921,75,211,351,366,86,25,67,124
12:28:57.433893,433893,75,211,351,366,86,25,67,124
12:28:57.434890,434890,75,211,351,366,86,25,67,124
12:28:57.435892,435892,75,211,351,366,86,25,67,124
12:28:57.436921,436921,75,211,351,366,86,25,67,124
12:28:57.437893,437893,75,211,351,366,86,25,67,124
12:28:57.437893,437893,70,196,263,349,80,21,65,110
12:28:57.438891,438891,70,196,263,349,80,21,65,110
12:28:57.439892,439892,70,196,263,349,80,21,65,110
12:28:57.440918,440918,70,196,263,349,80,21,65,110
12:28:57.441890,441890,70,196,263,349,80,21,65,110
12:28:57.442916,442916,70,196,263,349,80,21,65,110
12:28:57.443891,443891,70,196,263,349,80,21,65,110
12:28:57.444892,444892,70,196,263,349,80,21,65,110
12:28:57.445921,445921,70,196,263,349,80,21,65,110
12:28:57.446893,446893,70,196,263,349,80,21,65,110
12:28:57.447919,447919,70,196,263,349,80,21,65,110
12:28:57.448891,448891,70,196,263,349,80,21,65,110
12:28:57.449893,449893,70,196,263,349,80,21,65,110
12:28:57.450921,450921,70,196,263,349,80,21,65,110
12:28:57.451893,451893,70,196,263,349,80,21,65,110
12:28:57.452890,452890,70,196,263,349,80,21,65,110
12:28:57.453918,453918,70,196,263,349,80,21,65,110
12:28:57.453918,453918,59,174,281,345,62,21,68,112
12:28:57.453918,453918,69,200,300,362,65,22,69,116
12:28:57.453918,453918,58,204,279,343,68,24,60,110
12:28:57.453918,453918,66,219,271,285,49,22,49,106
12:28:57.454893,454893,74,233,233,262,39,23,50,107
12:28:57.454893,454893,96,302,248,256,39,22,50,124
12:28:57.455919,455919,96,302,248,256,39,22,50,124
12:28:57.456891,456891,96,302,248,256,39,22,50,124
12:28:57.457919,457919,96,302,248,256,39,22,50,124
12:28:57.458892,458892,96,302,248,256,39,22,50,124
12:28:57.459921,459921,96,302,248,256,39,22,50,124
12:28:57.460918,460918,96,302,248,256,39,22,50,124
12:28:57.461892,461892,96,302,248,256,39,22,50,124
12:28:57.462917,462917,96,302,248,256,39,22,50,124
12:28:57.463892,463892,96,302,248,256,39,22,50,124
12:28:57.464890,464890,96,302,248,256,39,22,50,124
12:28:57.465918,465918,96,302,248,256,39,22,50,124
12:28:57.466921,466921,96,302,248,256,39,22,50,124
12:28:57.467893,467893,96,302,248,256,39,22,50,124
12:28:57.468895,468895,96,302,248,256,39,22,50,124
12:28:57.469918,469918,96,302,248,256,39,22,50,124
12:28:57.469918,469918,79,312,246,141,38,20,29,114
12:28:57.469918,469918,80,326,241,164,40,25,30,136
12:28:57.469918,469918,84,368,241,171,44,25,34,179
12:28:57.470893,470893,84,368,241,171,44,25,34,179
12:28:57.471917,471917,84,368,241,171,44,25,34,179
12:28:57.472919,472919,84,368,241,171,44,25,34,179
12:28:57.473892,473892,84,368,241,171,44,25,34,179
12:28:57.474890,474890,84,368,241,171,44,25,34,179
12:28:57.475890,475890,84,368,241,171,44,25,34,179
12:28:57.476919,476919,84,368,241,171,44,25,34,179
12:28:57.477917,477917,84,368,241,171,44,25,34,179
12:28:57.478917,478917,84,368,241,171,44,25,34,179
12:28:57.479917,479917,84,368,241,171,44,25,34,179
12:28:57.480920,480920,84,368,241,171,44,25,34,179
12:28:57.481918,481918,84,368,241,171,44,25,34,179
12:28:57.482921,482921,84,368,241,171,44,25,34,179
12:28:57.483890,483890,84,368,241,171,44,25,34,179
12:28:57.484893,484893,84,368,241,171,44,25,34,179
12:28:57.485893,485893,84,368,241,171,44,25,34,179
12:28:57.485893,485893,100,364,263,149,48,30,33,209
12:28:57.485893,485893,106,377,382,111,44,28,25,207
12:28:57.486893,486893,106,377,382,111,44,28,25,207
12:28:57.487891,487891,106,377,382,111,44,28,25,207
12:28:57.488890,488890,106,377,382,111,44,28,25,207
12:28:57.489891,489891,106,377,382,111,44,28,25,207
12:28:57.490890,490890,106,377,382,111,44,28,25,207
12:28:57.491890,491890,106,377,382,111,44,28,25,207
12:28:57.492890,492890,106,377,382,111,44,28,25,207
12:28:57.493890,493890,106,377,382,111,44,28,25,207
12:28:57.494890,494890,106,377,382,111,44,28,25,207
12:28:57.495890,495890,106,377,382,111,44,28,25,207
12:28:57.496890,496890,106,377,382,111,44,28,25,207
12:28:57.497890,497890,106,377,382,111,44,28,25,207
12:28:57.498890,498890,106,377,382,111,44,28,25,207
12:28:57.499890,499890,106,377,382,111,44,28,25,207
12:28:57.500890,500890,106,377,382,111,44,28,25,207
12:28:57.501891,501891,106,377,382,111,44,28,25,207
12:28:57.502890,502890,106,377,382,111,44,28,25,207
12:28:57.503890,503890,106,377,382,111,44,28,25,207
12:28:57.504890,504890,106,377,382,111,44,28,25,207
12:28:57.505890,505890,106,377,382,111,44,28,25,207
12:28:57.506890,506890,106,377,382,111,44,28,25,207
12:28:57.507891,507891,106,377,382,111,44,28,25,207
12:28:57.508893,508893,106,377,382,111,44,28,25,207
12:28:57.509891,509891,106,377,382,111,44,28,25,207
12:28:57.510891,510891,106,377,382,111,44,28,25,207
12:28:57.511890,511890,106,377,382,111,44,28,25,207
12:28:57.512890,512890,106,377,382,111,44,28,25,207
12:28:57.513890,513890,106,377,382,111,44,28,25,207
12:28:57.514890,514890,106,377,382,111,44,28,25,207
12:28:57.515890,515890,106,377,382,111,44,28,25,207
12:28:57.516891,516891,75,289,337,168,44,33,22,238
12:28:57.517163,517163,75,289,337,168,44,33,22,238
12:28:57.517928,517928,75,289,337,168,44,33,22,238
12:28:57.518893,518893,75,289,337,168,44,33,22,238
12:28:57.519932,519932,75,289,337,168,44,33,22,238
12:28:57.520453,520453,75,289,337,168,44,33,22,238
12:28:57.520960,520960,75,289,337,168,44,33,22,238
12:28:57.521015,521015,75,289,337,168,44,33,22,238
12:28:57.521969,521969,75,289,337,168,44,33,22,238
12:28:57.522969,522969,75,289,337,168,44,33,22,238
12:28:57.523969,523969,75,289,337,168,44,33,22,238
12:28:57.524984,524984,75,289,337,168,44,33,22,238
12:28:57.526006,526006,75,289,337,168,44,33,22,238
12:28:57.527011,527011,75,289,337,168,44,33,22,238
12:28:57.527971,527971,75,289,337,168,44,33,22,238
12:28:57.529022,529022,75,289,337,168,44,33,22,238
12:28:57.529974,529974,75,289,337,168,44,33,22,238
12:28:57.530971,530971,75,289,337,168,44,33,22,238
12:28:57.532007,532007,75,289,337,168,44,33,22,238
12:28:57.532007,532007,84,297,321,151,29,18,29,220
12:28:57.532971,532971,84,297,321,151,29,18,29,220
12:28:57.534008,534008,84,297,321,151,29,18,29,220
12:28:57.534971,534971,84,297,321,151,29,18,29,220
12:28:57.536009,536009,84,297,321,151,29,18,29,220
12:28:57.536969,536969,84,297,321,151,29,18,29,220
12:28:57.538008,538008,84,297,321,151,29,18,29,220
12:28:57.538968,538968,84,297,321,151,29,18,29,220
12:28:57.539969,539969,84,297,321,151,29,18,29,220
12:28:57.541013,541013,84,297,321,151,29,18,29,220
12:28:57.542007,542007,84,297,321,151,29,18,29,220
12:28:57.543006,543006,84,297,321,151,29,18,29,220
12:28:57.544006,544006,84,297,321,151,29,18,29,220
12:28:57.544969,544969,84,297,321,151,29,18,29,220
12:28:57.546008,546008,84,297,321,151,29,18,29,220
12:28:57.546999,546999,84,297,321,151,29,18,29,220
12:28:57.548008,548008,84,297,321,151,29,18,29,220
12:28:57.548008,548008,70,284,288,166,35,18,29,228
12:28:57.548970,548970,70,284,288,166,35,18,29,228
12:28:57.550011,550011,70,284,288,166,35,18,29,228
12:28:57.550969,550969,70,284,288,166,35,18,29,228
12:28:57.550969,550969,75,294,190,174,41,21,23,182
12:28:57.551972,551972,75,294,190,174,41,21,23,182
12:28:57.553008,553008,75,294,190,174,41,21,23,182
12:28:57.554009,554009,75,294,190,174,41,21,23,182
12:28:57.555007,555007,75,294,190,174,41,21,23,182
12:28:57.556007,556007,75,294,190,174,41,21,23,182
12:28:57.557006,557006,75,294,190,174,41,21,23,182
12:28:57.558006,558006,75,294,190,174,41,21,23,182
12:28:57.559037,559037,75,294,190,174,41,21,23,182
12:28:57.559971,559971,75,294,190,174,41,21,23,182
12:28:57.561010,561010,75,294,190,174,41,21,23,182
12:28:57.561971,561971,75,294,190,174,41,21,23,182
12:28:57.563009,563009,75,294,190,174,41,21,23,182
12:28:57.564007,564007,75,294,190,174,41,21,23,182
12:28:57.565006,565006,75,294,190,174,41,21,23,182
12:28:57.566006,566006,75,294,190,174,41,21,23,182
12:28:57.567009,567009,75,294,190,174,41,21,23,182
12:28:57.568009,568009,75,294,190,174,41,21,23,182
12:28:57.568969,568969,75,294,190,174,41,21,23,182
12:28:57.569971,569971,75,294,190,174,41,21,23,182
12:28:57.571007,571007,75,294,190,174,41,21,23,182
12:28:57.572007,572007,75,294,190,174,41,21,23,182
12:28:57.573005,573005,75,294,190,174,41,21,23,182
12:28:57.573971,573971,75,294,190,174,41,21,23,182
12:28:57.575017,575017,75,294,190,174,41,21,23,182
12:28:57.576018,576018,75,294,190,174,41,21,23,182
12:28:57.576972,576972,75,294,190,174,41,21,23,182
12:28:57.578010,578010,75,294,190,174,41,21,23,182
12:28:57.578969,578969,75,294,190,174,41,21,23,182
12:28:57.580008,580008,75,294,190,174,41,21,23,182
12:28:57.580008,580008,71,229,202,138,43,19,15,129
12:28:57.580008,580008,58,200,156,139,45,23,14,127
12:28:57.580008,580008,70,201,206,131,42,22,13,136
12:28:57.580008,580008,60,182,212,122,43,19,12,142
12:28:57.580971,580971,60,182,212,122,43,19,12,142
12:28:57.581997,581997,60,182,212,122,43,19,12,142
12:28:57.582971,582971,60,182,212,122,43,19,12,142
12:28:57.583970,583970,60,182,212,122,43,19,12,142
12:28:57.584971,584971,60,182,212,122,43,19,12,142
12:28:57.585999,585999,60,182,212,122,43,19,12,142
12:28:57.586971,586971,60,182,212,122,43,19,12,142
12:28:57.587997,587997,60,182,212,122,43,19,12,142
12:28:57.588998,588998,60,182,212,122,43,19,12,142
12:28:57.589971,589971,60,182,212,122,43,19,12,142
12:28:57.591000,591000,60,182,212,122,43,19,12,142
12:28:57.591968,591968,60,182,212,122,43,19,12,142
12:28:57.592971,592971,60,182,212,122,43,19,12,142
12:28:57.593996,593996,60,182,212,122,43,19,12,142
12:28:57.595002,595002,60,182,212,122,43,19,12,142
12:28:57.595997,595997,60,182,212,122,43,19,12,142
12:28:57.596996,596996,60,182,212,122,43,19,12,142
12:28:57.597998,597998,60,182,212,122,43,19,12,142
12:28:57.598996,598996,60,182,212,122,43,19,12,142
12:28:57.599054,599054,60,182,212,122,43,19,12,142
12:28:57.599972,599972,60,182,212,122,43,19,12,142
12:28:57.600987,600987,60,182,212,122,43,19,12,142
12:28:57.602001,602001,60,182,212,122,43,19,12,142
12:28:57.602997,602997,60,182,212,122,43,19,12,142
12:28:57.603995,603995,60,182,212,122,43,19,12,142
12:28:57.605005,605005,60,182,212,122,43,19,12,142
12:28:57.605997,605997,60,182,212,122,43,19,12,142
12:28:57.606969,606969,60,182,212,122,43,19,12,142
12:28:57.607970,607970,60,182,212,122,43,19,12,142
12:28:57.608969,608969,60,182,212,122,43,19,12,142
12:28:57.609971,609971,60,182,212,122,43,19,12,142
12:28:57.610972,610972,60,182,212,122,43,19,12,142
12:28:57.612007,612007,60,182,212,122,43,19,12,142
12:28:57.612007,612007,54,136,236,188,37,20,14,183
12:28:57.612971,612971,54,136,236,188,37,20,14,183
12:28:57.613972,613972,54,136,236,188,37,20,14,183
12:28:57.614997,614997,54,136,236,188,37,20,14,183
12:28:57.615996,615996,54,136,236,188,37,20,14,183
12:28:57.616995,616995,54,136,236,188,37,20,14,183
12:28:57.617998,617998,54,136,236,188,37,20,14,183
12:28:57.618996,618996,54,136,236,188,37,20,14,183
12:28:57.619996,619996,54,136,236,188,37,20,14,183
12:28:57.620992,620992,54,136,236,188,37,20,14,183
12:28:57.621969,621969,54,136,236,188,37,20,14,183
12:28:57.623006,623006,54,136,236,188,37,20,14,183
12:28:57.623975,623975,54,136,236,188,37,20,14,183
12:28:57.624971,624971,54,136,236,188,37,20,14,183
12:28:57.626007,626007,54,136,236,188,37,20,14,183
12:28:57.627010,627010,54,136,236,188,37,20,14,183
12:28:57.628006,628006,54,136,236,188,37,20,14,183
12:28:57.628006,628006,62,114,252,226,30,19,13,174
12:28:57.628971,628971,62,114,252,226,30,19,13,174
12:28:57.630006,630006,62,114,252,226,30,19,13,174
12:28:57.631009,631009,62,114,252,226,30,19,13,174
12:28:57.631972,631972,62,114,252,226,30,19,13,174
12:28:57.633007,633007,62,114,252,226,30,19,13,174
12:28:57.633970,633970,62,114,252,226,30,19,13,174
12:28:57.634969,634969,62,114,252,226,30,19,13,174
12:28:57.635969,635969,62,114,252,226,30,19,13,174
12:28:57.636969,636969,62,114,252,226,30,19,13,174
12:28:57.638006,638006,62,114,252,226,30,19,13,174
12:28:57.639006,639006,62,114,252,226,30,19,13,174
12:28:57.640007,640007,62,114,252,226,30,19,13,174
12:28:57.641009,641009,62,114,252,226,30,19,13,174
12:28:57.642007,642007,62,114,252,226,30,19,13,174
12:28:57.643009,643009,62,114,252,226,30,19,13,174
12:28:57.643971,643971,62,114,252,226,30,19,13,174
12:28:57.643971,643971,64,72,283,143,22,21,17,136
12:28:57.644971,644971,64,72,283,143,22,21,17,136
12:28:57.645971,645971,64,72,283,143,22,21,17,136
12:28:57.646970,646970,64,72,283,143,22,21,17,136
12:28:57.647969,647969,64,72,283,143,22,21,17,136
12:28:57.648996,648996,64,72,283,143,22,21,17,136
12:28:57.649990,649990,64,72,283,143,22,21,17,136
12:28:57.650996,650996,64,72,283,143,22,21,17,136
12:28:57.652001,652001,64,72,283,143,22,21,17,136
12:28:57.652971,652971,64,72,283,143,22,21,17,136
12:28:57.653970,653970,64,72,283,143,22,21,17,136
12:28:57.654969,654969,64,72,283,143,22,21,17,136
12:28:57.655970,655970,64,72,283,143,22,21,17,136
12:28:57.656999,656999,64,72,283,143,22,21,17,136
12:28:57.657996,657996,64,72,283,143,22,21,17,136
12:28:57.658996,658996,64,72,283,143,22,21,17,136
12:28:57.659972,659972,64,72,283,143,22,21,17,136
12:28:57.660996,660996,64,72,283,143,22,21,17,136
12:28:57.661998,661998,64,72,283,143,22,21,17,136
12:28:57.662997,662997,64,72,283,143,22,21,17,136
12:28:57.663998,663998,64,72,283,143,22,21,17,136
12:28:57.664996,664996,64,72,283,143,22,21,17,136
12:28:57.665994,665994,64,72,283,143,22,21,17,136
12:28:57.666995,666995,64,72,283,143,22,21,17,136
12:28:57.667994,667994,64,72,283,143,22,21,17,136
12:28:57.668996,668996,64,72,283,143,22,21,17,136
12:28:57.669996,669996,64,72,283,143,22,21,17,136
12:28:57.671001,671001,64,72,283,143,22,21,17,136
12:28:57.671997,671997,64,72,283,143,22,21,17,136
12:28:57.673003,673003,64,72,283,143,22,21,17,136
12:28:57.673971,673971,64,72,283,143,22,21,17,136
12:28:57.674999,674999,64,72,283,143,22,21,17,136
12:28:57.674999,674999,87,87,279,82,21,18,18,123
12:28:57.675972,675972,87,87,279,82,21,18,18,123
12:28:57.676997,676997,87,87,279,82,21,18,18,123
12:28:57.677998,677998,87,87,279,82,21,18,18,123
12:28:57.678995,678995,87,87,279,82,21,18,18,123
12:28:57.679995,679995,87,87,279,82,21,18,18,123
12:28:57.680994,680994,87,87,279,82,21,18,18,123
12:28:57.681970,681970,87,87,279,82,21,18,18,123
12:28:57.682996,682996,87,87,279,82,21,18,18,123
12:28:57.683996,683996,87,87,279,82,21,18,18,123
12:28:57.684971,684971,87,87,279,82,21,18,18,123
12:28:57.685996,685996,87,87,279,82,21,18,18,123
12:28:57.686970,686970,87,87,279,82,21,18,18,123
12:28:57.688000,688000,87,87,279,82,21,18,18,123
12:28:57.689009,689009,87,87,279,82,21,18,18,123
12:28:57.690006,690006,87,87,279,82,21,18,18,123
12:28:57.691008,691008,87,87,279,82,21,18,18,123
12:28:57.691008,691008,95,79,268,169,34,21,22,96
12:28:57.691972,691972,95,79,268,169,34,21,22,96
12:28:57.693019,693019,95,79,268,169,34,21,22,96
12:28:57.693969,693969,95,79,268,169,34,21,22,96
12:28:57.694970,694970,95,79,268,169,34,21,22,96
12:28:57.696009,696009,95,79,268,169,34,21,22,96
12:28:57.696969,696969,95,79,268,169,34,21,22,96
12:28:57.697974,697974,95,79,268,169,34,21,22,96
12:28:57.699006,699006,95,79,268,169,34,21,22,96
12:28:57.700006,700006,95,79,268,169,34,21,22,96
12:28:57.701006,701006,95,79,268,169,34,21,22,96
12:28:57.702006,702006,95,79,268,169,34,21,22,96
12:28:57.702971,702971,95,79,268,169,34,21,22,96
12:28:57.703972,703972,95,79,268,169,34,21,22,96
12:28:57.705011,705011,95,79,268,169,34,21,22,96
12:28:57.706007,706007,95,79,268,169,34,21,22,96
12:28:57.707009,707009,92,82,219,184,34,19,22,99
12:28:57.707971,707971,92,82,219,184,34,19,22,99
12:28:57.709006,709006,92,82,219,184,34,19,22,99
12:28:57.710008,710008,92,82,219,184,34,19,22,99
12:28:57.710970,710970,92,82,219,184,34,19,22,99
12:28:57.711969,711969,92,82,219,184,34,19,22,99
12:28:57.712969,712969,92,82,219,184,34,19,22,99
12:28:57.713969,713969,92,82,219,184,34,19,22,99
12:28:57.714970,714970,92,82,219,184,34,19,22,99
12:28:57.715971,715971,92,82,219,184,34,19,22,99
12:28:57.716974,716974,92,82,219,184,34,19,22,99
12:28:57.717971,717971,92,82,219,184,34,19,22,99
12:28:57.718970,718970,92,82,219,184,34,19,22,99
12:28:57.719969,719969,92,82,219,184,34,19,22,99
12:28:57.721010,721010,92,82,219,184,34,19,22,99
12:28:57.722007,722007,92,82,219,184,34,19,22,99
12:28:57.722007,722007,85,91,148,200,30,15,15,69
12:28:57.722973,722973,85,91,148,200,30,15,15,69
12:28:57.723997,723997,85,91,148,200,30,15,15,69
12:28:57.724971,724971,85,91,148,200,30,15,15,69
12:28:57.725998,725998,85,91,148,200,30,15,15,69
12:28:57.726996,726996,85,91,148,200,30,15,15,69
12:28:57.727999,727999,85,91,148,200,30,15,15,69
12:28:57.728996,728996,85,91,148,200,30,15,15,69
12:28:57.730010,730010,85,91,148,200,30,15,15,69
12:28:57.730997,730997,85,91,148,200,30,15,15,69
12:28:57.731978,731978,85,91,148,200,30,15,15,69
12:28:57.733001,733001,85,91,148,200,30,15,15,69
12:28:57.733996,733996,85,91,148,200,30,15,15,69
12:28:57.734999,734999,85,91,148,200,30,15,15,69
12:28:57.735971,735971,85,91,148,200,30,15,15,69
12:28:57.736997,736997,85,91,148,200,30,15,15,69
12:28:57.737970,737970,85,91,148,200,30,15,15,69
12:28:57.737970,737970,49,73,137,167,36,18,18,43
12:28:57.738973,738973,49,73,137,167,36,18,18,43
12:28:57.740015,740015,49,73,137,167,36,18,18,43
12:28:57.740995,740995,49,73,137,167,36,18,18,43
12:28:57.741971,741971,49,73,137,167,36,18,18,43
12:28:57.743009,743009,49,73,137,167,36,18,18,43
12:28:57.743972,743972,49,73,137,167,36,18,18,43
12:28:57.745007,745007,49,73,137,167,36,18,18,43
12:28:57.746011,746011,49,73,137,167,36,18,18,43
12:28:57.747010,747010,49,73,137,167,36,18,18,43
12:28:57.748007,748007,49,73,137,167,36,18,18,43
12:28:57.749007,749007,49,73,137,167,36,18,18,43
12:28:57.750008,750008,49,73,137,167,36,18,18,43
12:28:57.751008,751008,49,73,137,167,36,18,18,43
12:28:57.752006,752006,49,73,137,167,36,18,18,43
12:28:57.753008,753008,49,73,137,167,36,18,18,43
12:28:57.754006,754006,49,73,137,167,36,18,18,43
12:28:57.754006,754006,39,62,129,120,24,11,11,35
12:28:57.754970,754970,39,62,129,120,24,11,11,35
12:28:57.755969,755969,39,62,129,120,24,11,11,35
12:28:57.756971,756971,39,62,129,120,24,11,11,35
12:28:57.757971,757971,39,62,129,120,24,11,11,35
12:28:57.758969,758969,39,62,129,120,24,11,11,35
12:28:57.759969,759969,39,62,129,120,24,11,11,35
12:28:57.760969,760969,39,62,129,120,24,11,11,35
12:28:57.761969,761969,39,62,129,120,24,11,11,35
12:28:57.762968,762968,39,62,129,120,24,11,11,35
12:28:57.763968,763968,39,62,129,120,24,11,11,35
12:28:57.764969,764969,39,62,129,120,24,11,11,35
12:28:57.765968,765968,39,62,129,120,24,11,11,35
12:28:57.766968,766968,39,62,129,120,24,11,11,35
12:28:57.767968,767968,39,62,129,120,24,11,11,35
12:28:57.768968,768968,39,62,129,120,24,11,11,35
12:28:57.769969,769969,40,60,133,111,28,12,11,34
12:28:57.770972,770972,40,60,133,111,28,12,11,34
12:28:57.771970,771970,40,60,133,111,28,12,11,34
12:28:57.772996,772996,40,60,133,111,28,12,11,34
12:28:57.773997,773997,40,60,133,111,28,12,11,34
12:28:57.774971,774971,40,60,133,111,28,12,11,34
12:28:57.776014,776014,40,60,133,111,28,12,11,34
12:28:57.777007,777007,40,60,133,111,28,12,11,34
12:28:57.777973,777973,40,60,133,111,28,12,11,34
12:28:57.779010,779010,40,60,133,111,28,12,11,34
12:28:57.779974,779974,40,60,133,111,28,12,11,34
12:28:57.780973,780973,40,60,133,111,28,12,11,34
12:28:57.781997,781997,40,60,133,111,28,12,11,34
12:28:57.782971,782971,40,60,133,111,28,12,11,34
12:28:57.783969,783969,40,60,133,111,28,12,11,34
12:28:57.784999,784999,40,60,133,111,28,12,11,34
12:28:57.785998,785998,40,60,133,111,28,12,11,34
12:28:57.785998,785998,42,69,150,109,28,12,13,23
12:28:57.785998,785998,43,56,177,94,25,12,12,19
12:28:57.785998,785998,34,65,208,86,30,13,12,22
12:28:57.785998,785998,33,68,250,110,31,9,10,27
12:28:57.785998,785998,30,69,257,126,33,13,20,29
12:28:57.786996,786996,32,73,255,127,36,13,41,30
12:28:57.786996,786996,29,74,293,124,37,14,42,32
12:28:57.786996,786996,35,72,318,131,34,14,41,43
12:28:57.786996,786996,52,72,309,123,32,15,44,98
12:28:57.786996,786996,60,67,310,130,31,18,84,135
12:28:57.787996,787996,60,67,310,130,31,18,84,135
12:28:57.788999,788999,60,67,310,130,31,18,84,135
12:28:57.789969,789969,60,67,310,130,31,18,84,135
12:28:57.790997,790997,60,67,310,130,31,18,84,135
12:28:57.791999,791999,60,67,310,130,31,18,84,135
12:28:57.792997,792997,60,67,310,130,31,18,84,135
12:28:57.793969,793969,60,67,310,130,31,18,84,135
12:28:57.795007,795007,60,67,310,130,31,18,84,135
12:28:57.795971,795971,60,67,310,130,31,18,84,135
12:28:57.797007,797007,60,67,310,130,31,18,84,135
12:28:57.797968,797968,60,67,310,130,31,18,84,135
12:28:57.799011,799011,60,67,310,130,31,18,84,135
12:28:57.800007,800007,60,67,310,130,31,18,84,135
12:28:57.801008,801008,60,67,310,130,31,18,84,135
12:28:57.801972,801972,60,67,310,130,31,18,84,135
12:28:57.802970,802970,60,67,310,130,31,18,84,135
12:28:57.803973,803973,60,67,310,130,31,18,84,135
12:28:57.805006,805006,60,67,310,130,31,18,84,135
12:28:57.806007,806007,60,67,310,130,31,18,84,135
12:28:57.807007,807007,60,67,310,130,31,18,84,135
12:28:57.808007,808007,60,67,310,130,31,18,84,135
12:28:57.808970,808970,60,67,310,130,31,18,84,135
12:28:57.810009,810009,60,67,310,130,31,18,84,135
12:28:57.811007,811007,60,67,310,130,31,18,84,135
12:28:57.812012,812012,60,67,310,130,31,18,84,135
12:28:57.813006,813006,60,67,310,130,31,18,84,135
12:28:57.814006,814006,60,67,310,130,31,18,84,135
12:28:57.815006,815006,60,67,310,130,31,18,84,135
12:28:57.816006,816006,60,67,310,130,31,18,84,135
12:28:57.817008,817008,60,67,310,130,31,18,84,135
12:28:57.817008,817008,82,55,327,117,31,22,117,157
12:28:57.818018,818018,82,55,327,117,31,22,117,157
12:28:57.818970,818970,82,55,327,117,31,22,117,157
12:28:57.819972,819972,82,55,327,117,31,22,117,157
12:28:57.820970,820970,82,55,327,117,31,22,117,157
12:28:57.821968,821968,82,55,327,117,31,22,117,157
12:28:57.822971,822971,82,55,327,117,31,22,117,157
12:28:57.823971,823971,82,55,327,117,31,22,117,157
12:28:57.824972,824972,82,55,327,117,31,22,117,157
12:28:57.825971,825971,82,55,327,117,31,22,117,157
12:28:57.827007,827007,82,55,327,117,31,22,117,157
12:28:57.828006,828006,82,55,327,117,31,22,117,157
12:28:57.829006,829006,82,55,327,117,31,22,117,157
12:28:57.830006,830006,82,55,327,117,31,22,117,157
12:28:57.831010,831010,82,55,327,117,31,22,117,157
12:28:57.832006,832006,82,55,327,117,31,22,117,157
12:28:57.832971,832971,82,55,327,117,31,22,117,157
12:28:57.832971,832971,126,65,291,53,18,25,159,306
12:28:57.832971,832971,169,83,328,56,21,29,208,316
12:28:57.832971,832971,178,101,354,68,25,35,241,332
12:28:57.832971,832971,179,152,314,78,25,38,261,324
12:28:57.833972,833972,179,152,314,78,25,38,261,324
12:28:57.835009,835009,179,152,314,78,25,38,261,324
12:28:57.836010,836010,179,152,314,78,25,38,261,324
12:28:57.837007,837007,179,152,314,78,25,38,261,324
12:28:57.838007,838007,179,152,314,78,25,38,261,324
12:28:57.839006,839006,179,152,314,78,25,38,261,324
12:28:57.839971,839971,179,152,314,78,25,38,261,324
12:28:57.841007,841007,179,152,314,78,25,38,261,324
12:28:57.842013,842013,179,152,314,78,25,38,261,324
12:28:57.842972,842972,179,152,314,78,25,38,261,324
12:28:57.843971,843971,179,152,314,78,25,38,261,324
12:28:57.844996,844996,179,152,314,78,25,38,261,324
12:28:57.845997,845997,179,152,314,78,25,38,261,324
12:28:57.847000,847000,179,152,314,78,25,38,261,324
12:28:57.847996,847996,179,152,314,78,25,38,261,324
12:28:57.848970,848970,179,152,314,78,25,38,261,324
12:28:57.848970,848970,158,300,477,105,37,41,237,236
12:28:57.849972,849972,158,300,477,105,37,41,237,236
12:28:57.850995,850995,158,300,477,105,37,41,237,236
12:28:57.851996,851996,158,300,477,105,37,41,237,236
12:28:57.852998,852998,158,300,477,105,37,41,237,236
12:28:57.853996,853996,158,300,477,105,37,41,237,236
12:28:57.854995,854995,158,300,477,105,37,41,237,236
12:28:57.855996,855996,158,300,477,105,37,41,237,236
12:28:57.856996,856996,158,300,477,105,37,41,237,236
12:28:57.857996,857996,158,300,477,105,37,41,237,236
12:28:57.858998,858998,158,300,477,105,37,41,237,236
12:28:57.859997,859997,158,300,477,105,37,41,237,236
12:28:57.861007,861007,158,300,477,105,37,41,237,236
12:28:57.861972,861972,158,300,477,105,37,41,237,236
12:28:57.862970,862970,158,300,477,105,37,41,237,236
12:28:57.863970,863970,158,300,477,105,37,41,237,236
12:28:57.864972,864972,158,300,477,105,37,41,237,236
12:28:57.866006,866006,158,300,477,105,37,41,237,236
12:28:57.867008,867008,158,300,477,105,37,41,237,236
12:28:57.868013,868013,158,300,477,105,37,41,237,236
12:28:57.868971,868971,158,300,477,105,37,41,237,236
12:28:57.869970,869970,158,300,477,105,37,41,237,236
12:28:57.870969,870969,158,300,477,105,37,41,237,236
12:28:57.872006,872006,158,300,477,105,37,41,237,236
12:28:57.873006,873006,158,300,477,105,37,41,237,236
12:28:57.873971,873971,158,300,477,105,37,41,237,236
12:28:57.875007,875007,158,300,477,105,37,41,237,236
12:28:57.876007,876007,158,300,477,105,37,41,237,236
12:28:57.876971,876971,158,300,477,105,37,41,237,236
12:28:57.878010,878010,158,300,477,105,37,41,237,236
12:28:57.879006,879006,158,300,477,105,37,41,237,236
12:28:57.879971,879971,158,300,477,105,37,41,237,236
12:28:57.879971,879971,170,300,468,108,45,50,237,212
12:28:57.880969,880969,170,300,468,108,45,50,237,212
12:28:57.881970,881970,170,300,468,108,45,50,237,212
12:28:57.882970,882970,170,300,468,108,45,50,237,212
12:28:57.883970,883970,170,300,468,108,45,50,237,212
12:28:57.884974,884974,170,300,468,108,45,50,237,212
12:28:57.885969,885969,170,300,468,108,45,50,237,212
12:28:57.886969,886969,170,300,468,108,45,50,237,212
12:28:57.887970,887970,170,300,468,108,45,50,237,212
12:28:57.888970,888970,170,300,468,108,45,50,237,212
12:28:57.889970,889970,170,300,468,108,45,50,237,212
12:28:57.890970,890970,170,300,468,108,45,50,237,212
12:28:57.891969,891969,170,300,468,108,45,50,237,212
12:28:57.892969,892969,170,300,468,108,45,50,237,212
12:28:57.893968,893968,170,300,468,108,45,50,237,212
12:28:57.894969,894969,170,300,468,108,45,50,237,212
12:28:57.895997,895997,170,300,468,108,45,50,237,212
12:28:57.895997,895997,145,299,437,139,44,51,240,174
12:28:57.896972,896972,145,299,437,139,44,51,240,174
12:28:57.897999,897999,145,299,437,139,44,51,240,174
12:28:57.898995,898995,145,299,437,139,44,51,240,174
12:28:57.899968,899968,145,299,437,139,44,51,240,174
12:28:57.900974,900974,145,299,437,139,44,51,240,174
12:28:57.901975,901975,145,299,437,139,44,51,240,174
12:28:57.902972,902972,145,299,437,139,44,51,240,174
12:28:57.903972,903972,145,299,437,139,44,51,240,174
12:28:57.904971,904971,145,299,437,139,44,51,240,174
12:28:57.905971,905971,145,299,437,139,44,51,240,174
12:28:57.906971,906971,145,299,437,139,44,51,240,174
12:28:57.907971,907971,145,299,437,139,44,51,240,174
12:28:57.908971,908971,145,299,437,139,44,51,240,174
12:28:57.909970,909970,145,299,437,139,44,51,240,174
12:28:57.910974,910974,145,299,437,139,44,51,240,174
12:28:57.911973,911973,145,299,437,139,44,51,240,174
12:28:57.911973,911973,152,298,412,182,44,49,237,168
12:28:57.911973,911973,112,281,374,232,38,50,172,159
12:28:57.911973,911973,114,275,333,263,35,46,142,167
12:28:57.912970,912970,123,235,324,268,38,48,131,168
12:28:57.912970,912970,112,212,302,304,45,46,130,146
12:28:57.912970,912970,95,197,326,291,49,43,105,149
12:28:57.912970,912970,108,134,303,286,59,54,102,160
12:28:57.912970,912970,104,134,353,330,62,52,105,141
12:28:57.912970,912970,100,142,352,326,58,46,106,123
12:28:57.913971,913971,94,130,341,287,63,48,96,129
12:28:57.915007,915007,94,130,341,287,63,48,96,129
12:28:57.915975,915975,94,130,341,287,63,48,96,129
12:28:57.916971,916971,94,130,341,287,63,48,96,129
12:28:57.918009,918009,94,130,341,287,63,48,96,129
12:28:57.918969,918969,94,130,341,287,63,48,96,129
12:28:57.919970,919970,94,130,341,287,63,48,96,129
12:28:57.920971,920971,94,130,341,287,63,48,96,129
12:28:57.921970,921970,94,130,341,287,63,48,96,129
12:28:57.922970,922970,94,130,341,287,63,48,96,129
12:28:57.923971,923971,94,130,341,287,63,48,96,129
12:28:57.924970,924970,94,130,341,287,63,48,96,129
12:28:57.925972,925972,94,130,341,287,63,48,96,129
12:28:57.926973,926973,94,130,341,287,63,48,96,129
12:28:57.927971,927971,94,130,341,287,63,48,96,129
12:28:57.927971,927971,108,136,476,270,76,52,102,105
12:28:57.928972,928972,108,136,476,270,76,52,102,105
12:28:57.929975,929975,108,136,476,270,76,52,102,105
12:28:57.931013,931013,108,136,476,270,76,52,102,105
12:28:57.932008,932008,108,136,476,270,76,52,102,105
12:28:57.933008,933008,108,136,476,270,76,52,102,105
12:28:57.934428,934428,108,136,476,270,76,52,102,105
12:28:57.934460,934460,108,136,476,270,76,52,102,105
12:28:57.935438,935438,108,136,476,270,76,52,102,105
12:28:57.936439,936439,108,136,476,270,76,52,102,105
12:28:57.937441,937441,108,136,476,270,76,52,102,105
12:28:57.938438,938438,108,136,476,270,76,52,102,105
12:28:57.939440,939440,108,136,476,270,76,52,102,105
12:28:57.940439,940439,108,136,476,270,76,52,102,105
12:28:57.941442,941442,108,136,476,270,76,52,102,105
12:28:57.942439,942439,108,136,476,270,76,52,102,105
12:28:57.943440,943440,85,116,509,248,73,53,111,89
12:28:57.943440,943440,83,98,489,260,75,59,115,74
12:28:57.943440,943440,59,128,416,244,60,51,109,77
12:28:57.944439,944439,59,128,416,244,60,51,109,77
12:28:57.945479,945479,59,128,416,244,60,51,109,77
12:28:57.946475,946475,59,128,416,244,60,51,109,77
12:28:57.947440,947440,59,128,416,244,60,51,109,77
12:28:57.948438,948438,59,128,416,244,60,51,109,77
12:28:57.949438,949438,59,128,416,244,60,51,109,77
12:28:57.950479,950479,59,128,416,244,60,51,109,77
12:28:57.951440,951440,59,128,416,244,60,51,109,77
12:28:57.952477,952477,59,128,416,244,60,51,109,77
12:28:57.953476,953476,59,128,416,244,60,51,109,77
12:28:57.954478,954478,59,128,416,244,60,51,109,77
12:28:57.955476,955476,59,128,416,244,60,51,109,77
12:28:57.956475,956475,59,128,416,244,60,51,109,77
12:28:57.957476,957476,59,128,416,244,60,51,109,77
12:28:57.958440,958440,59,128,416,244,60,51,109,77
12:28:57.959438,959438,59,128,416,244,60,51,109,77
12:28:57.960440,960440,59,128,416,244,60,51,109,77
12:28:57.961440,961440,59,128,416,244,60,51,109,77
12:28:57.962476,962476,59,128,416,244,60,51,109,77
12:28:57.963475,963475,59,128,416,244,60,51,109,77
12:28:57.964475,964475,59,128,416,244,60,51,109,77
12:28:57.965476,965476,59,128,416,244,60,51,109,77
12:28:57.966478,966478,59,128,416,244,60,51,109,77
12:28:57.967438,967438,59,128,416,244,60,51,109,77
12:28:57.968443,968443,59,128,416,244,60,51,109,77
12:28:57.969439,969439,59,128,416,244,60,51,109,77
12:28:57.970440,970440,59,128,416,244,60,51,109,77
12:28:57.971438,971438,59,128,416,244,60,51,109,77
12:28:57.972438,972438,59,128,416,244,60,51,109,77
12:28:57.973437,973437,59,128,416,244,60,51,109,77
12:28:57.974477,974477,59,128,416,244,60,51,109,77
12:28:57.975480,975480,59,128,416,244,60,51,109,77
12:28:57.975480,975480,36,138,362,231,49,40,76,78
12:28:57.976439,976439,36,138,362,231,49,40,76,78
12:28:57.977437,977437,36,138,362,231,49,40,76,78
12:28:57.978437,978437,36,138,362,231,49,40,76,78
12:28:57.979437,979437,36,138,362,231,49,40,76,78
12:28:57.980437,980437,36,138,362,231,49,40,76,78
12:28:57.981437,981437,36,138,362,231,49,40,76,78
12:28:57.982438,982438,36,138,362,231,49,40,76,78
12:28:57.983439,983439,36,138,362,231,49,40,76,78
12:28:57.984437,984437,36,138,362,231,49,40,76,78
12:28:57.985438,985438,36,138,362,231,49,40,76,78
12:28:57.986439,986439,36,138,362,231,49,40,76,78
12:28:57.987438,987438,36,138,362,231,49,40,76,78
12:28:57.988438,988438,36,138,362,231,49,40,76,78
12:28:57.989440,989440,36,138,362,231,49,40,76,78
12:28:57.990438,990438,36,138,362,231,49,40,76,78
12:28:57.991437,991437,36,138,362,231,49,40,76,78
12:28:57.991437,991437,37,141,369,279,45,37,71,78
12:28:57.992438,992438,37,141,369,279,45,37,71,78
12:28:57.993473,993473,37,141,369,279,45,37,71,78
12:28:57.994477,994477,37,141,369,279,45,37,71,78
12:28:57.995440,995440,37,141,369,279,45,37,71,78
12:28:57.996475,996475,37,141,369,279,45,37,71,78
12:28:57.997439,997439,37,141,369,279,45,37,71,78
12:28:57.998439,998439,37,141,369,279,45,37,71,78
12:28:57.999438,999438,37,141,369,279,45,37,71,78
12:28:58.000440,000440,37,141,369,279,45,37,71,78
12:28:58.001476,001476,37,141,369,279,45,37,71,78
12:28:58.002478,002478,37,141,369,279,45,37,71,78
12:28:58.003477,003477,37,141,369,279,45,37,71,78
12:28:58.004439,004439,37,141,369,279,45,37,71,78
12:28:58.005487,005487,37,141,369,279,45,37,71,78
12:28:58.006438,006438,37,141,369,279,45,37,71,78
12:28:58.007439,007439,37,141,369,279,45,37,71,78
12:28:58.007439,007439,57,137,220,268,36,19,42,151
12:28:58.008439,008439,57,137,220,268,36,19,42,151
12:28:58.009442,009442,57,137,220,268,36,19,42,151
12:28:58.010441,010441,57,137,220,268,36,19,42,151
12:28:58.011441,011441,57,137,220,268,36,19,42,151
12:28:58.012444,012444,57,137,220,268,36,19,42,151
12:28:58.013441,013441,57,137,220,268,36,19,42,151
12:28:58.014441,014441,57,137,220,268,36,19,42,151
12:28:58.015441,015441,57,137,220,268,36,19,42,151
12:28:58.016440,016440,57,137,220,268,36,19,42,151
12:28:58.017440,017440,57,137,220,268,36,19,42,151
12:28:58.018440,018440,57,137,220,268,36,19,42,151
12:28:58.019441,019441,57,137,220,268,36,19,42,151
12:28:58.020441,020441,57,137,220,268,36,19,42,151
12:28:58.021440,021440,57,137,220,268,36,19,42,151
12:28:58.022441,022441,57,137,220,268,36,19,42,151
12:28:58.023440,023440,57,137,220,268,36,19,42,151
12:28:58.023440,023440,50,117,207,282,29,19,40,164
12:28:58.023440,023440,79,100,214,254,34,21,31,221
12:28:58.023440,023440,99,112,260,248,33,21,29,219
12:28:58.024440,024440,99,112,260,248,33,21,29,219
12:28:58.025443,025443,99,112,260,248,33,21,29,219
12:28:58.026439,026439,99,112,260,248,33,21,29,219
12:28:58.027442,027442,99,112,260,248,33,21,29,219
12:28:58.028441,028441,99,112,260,248,33,21,29,219
12:28:58.029441,029441,99,112,260,248,33,21,29,219
12:28:58.030443,030443,99,112,260,248,33,21,29,219
12:28:58.031441,031441,99,112,260,248,33,21,29,219
12:28:58.032441,032441,99,112,260,248,33,21,29,219
12:28:58.033440,033440,99,112,260,248,33,21,29,219
12:28:58.034440,034440,99,112,260,248,33,21,29,219
12:28:58.035440,035440,99,112,260,248,33,21,29,219
12:28:58.036440,036440,99,112,260,248,33,21,29,219
12:28:58.037440,037440,99,112,260,248,33,21,29,219
12:28:58.038440,038440,99,112,260,248,33,21,29,219
12:28:58.039442,039442,99,112,260,248,33,21,29,219
12:28:58.040441,040441,99,112,260,248,33,21,29,219
12:28:58.041439,041439,99,112,260,248,33,21,29,219
12:28:58.042439,042439,99,112,260,248,33,21,29,219
12:28:58.043440,043440,99,112,260,248,33,21,29,219
12:28:58.044440,044440,99,112,260,248,33,21,29,219
12:28:58.045441,045441,99,112,260,248,33,21,29,219
12:28:58.046440,046440,99,112,260,248,33,21,29,219
12:28:58.047440,047440,99,112,260,248,33,21,29,219
12:28:58.048442,048442,99,112,260,248,33,21,29,219
12:28:58.049442,049442,99,112,260,248,33,21,29,219
12:28:58.050442,050442,99,112,260,248,33,21,29,219
12:28:58.051439,051439,99,112,260,248,33,21,29,219
12:28:58.052443,052443,99,112,260,248,33,21,29,219
12:28:58.053441,053441,99,112,260,248,33,21,29,219
12:28:58.054440,054440,99,112,260,248,33,21,29,219
12:28:58.055440,055440,99,112,260,248,33,21,29,219
12:28:58.055440,055440,93,144,381,98,37,20,30,168
12:28:58.056442,056442,93,144,381,98,37,20,30,168
12:28:58.057440,057440,93,144,381,98,37,20,30,168
12:28:58.058440,058440,93,144,381,98,37,20,30,168
12:28:58.059440,059440,93,144,381,98,37,20,30,168
12:28:58.060440,060440,93,144,381,98,37,20,30,168
12:28:58.061440,061440,93,144,381,98,37,20,30,168
12:28:58.062441,062441,93,144,381,98,37,20,30,168
12:28:58.063440,063440,93,144,381,98,37,20,30,168
12:28:58.064441,064441,93,144,381,98,37,20,30,168
12:28:58.065440,065440,93,144,381,98,37,20,30,168
12:28:58.066440,066440,93,144,381,98,37,20,30,168
12:28:58.067441,067441,93,144,381,98,37,20,30,168
12:28:58.068441,068441,93,144,381,98,37,20,30,168
12:28:58.069442,069442,93,144,381,98,37,20,30,168
12:28:58.069442,069442,48,75,384,97,27,20,32,82
12:28:58.070439,070439,48,75,384,97,27,20,32,82
12:28:58.071437,071437,48,75,384,97,27,20,32,82
12:28:58.072438,072438,48,75,384,97,27,20,32,82
12:28:58.073437,073437,48,75,384,97,27,20,32,82
12:28:58.074437,074437,48,75,384,97,27,20,32,82
12:28:58.075437,075437,48,75,384,97,27,20,32,82
12:28:58.092437,092437,56,75,339,122,25,18,32,79
12:28:58.092437,092437,69,74,376,159,20,13,24,91
12:28:58.092437,092437,81,75,374,175,23,14,25,140
12:28:58.092437,092437,81,92,350,157,19,15,21,128
12:28:58.093442,093442,81,92,350,157,19,15,21,128
12:28:58.094439,094439,81,92,350,157,19,15,21,128
12:28:58.095439,095439,81,92,350,157,19,15,21,128
12:28:58.096437,096437,81,92,350,157,19,15,21,128
12:28:58.097437,097437,81,92,350,157,19,15,21,128
12:28:58.098436,098436,81,92,350,157,19,15,21,128
12:28:58.099436,099436,81,92,350,157,19,15,21,128
12:28:58.100437,100437,81,92,350,157,19,15,21,128
12:28:58.101436,101436,81,92,350,157,19,15,21,128
12:28:58.102437,102437,81,92,350,157,19,15,21,128
12:28:58.103438,103438,81,92,350,157,19,15,21,128
12:28:58.104438,104438,81,92,350,157,19,15,21,128
12:28:58.105436,105436,81,92,350,157,19,15,21,128
12:28:58.106436,106436,81,92,350,157,19,15,21,128
12:28:58.107436,107436,81,92,350,157,19,15,21,128
12:28:58.108436,108436,81,92,350,157,19,15,21,128
12:28:58.109436,109436,81,92,350,157,19,15,21,128
12:28:58.110438,110438,81,92,350,157,19,15,21,128
12:28:58.111438,111438,81,92,350,157,19,15,21,128
12:28:58.112438,112438,81,92,350,157,19,15,21,128
12:28:58.113437,113437,81,92,350,157,19,15,21,128
12:28:58.114438,114438,81,92,350,157,19,15,21,128
12:28:58.115437,115437,81,92,350,157,19,15,21,128
12:28:58.116436,116436,81,92,350,157,19,15,21,128
12:28:58.117436,117436,81,92,350,157,19,15,21,128
12:28:58.118436,118436,81,92,350,157,19,15,21,128
12:28:58.119437,119437,81,92,350,157,19,15,21,128
12:28:58.119437,119437,80,80,305,146,22,18,18,142
12:28:58.120438,120438,80,80,305,146,22,18,18,142
12:28:58.121437,121437,80,80,305,146,22,18,18,142
12:28:58.122436,122436,80,80,305,146,22,18,18,142
12:28:58.123437,123437,80,80,305,146,22,18,18,142
12:28:58.124438,124438,80,80,305,146,22,18,18,142
12:28:58.125438,125438,80,80,305,146,22,18,18,142
12:28:58.126440,126440,80,80,305,146,22,18,18,142
12:28:58.127437,127437,80,80,305,146,22,18,18,142
12:28:58.128440,128440,80,80,305,146,22,18,18,142
12:28:58.129440,129440,80,80,305,146,22,18,18,142
12:28:58.130439,130439,80,80,305,146,22,18,18,142
12:28:58.131440,131440,80,80,305,146,22,18,18,142
12:28:58.132439,132439,80,80,305,146,22,18,18,142
12:28:58.133438,133438,80,80,305,146,22,18,18,142
12:28:58.134439,134439,80,80,305,146,22,18,18,142
12:28:58.135439,135439,68,96,227,159,26,24,21,155
12:28:58.135439,135439,56,102,220,189,25,17,15,147
12:28:58.135439,135439,39,108,202,160,30,20,15,135
12:28:58.136442,136442,39,108,202,160,30,20,15,135
12:28:58.137440,137440,39,108,202,160,30,20,15,135
12:28:58.138439,138439,39,108,202,160,30,20,15,135
12:28:58.139439,139439,39,108,202,160,30,20,15,135
12:28:58.140441,140441,39,108,202,160,30,20,15,135
12:28:58.141438,141438,39,108,202,160,30,20,15,135
12:28:58.142439,142439,39,108,202,160,30,20,15,135
12:28:58.143440,143440,39,108,202,160,30,20,15,135
12:28:58.144438,144438,39,108,202,160,30,20,15,135
12:28:58.145474,145474,39,108,202,160,30,20,15,135
12:28:58.146439,146439,39,108,202,160,30,20,15,135
12:28:58.147438,147438,39,108,202,160,30,20,15,135
12:28:58.148439,148439,39,108,202,160,30,20,15,135
12:28:58.149439,149439,39,108,202,160,30,20,15,135
12:28:58.150439,150439,39,108,202,160,30,20,15,135
12:28:58.151441,151441,24,101,176,176,27,20,14,87
12:28:58.152440,152440,24,101,176,176,27,20,14,87
12:28:58.153440,153440,24,101,176,176,27,20,14,87
12:28:58.154439,154439,24,101,176,176,27,20,14,87
12:28:58.155439,155439,24,101,176,176,27,20,14,87
12:28:58.156440,156440,24,101,176,176,27,20,14,87
12:28:58.157438,157438,24,101,176,176,27,20,14,87
12:28:58.158439,158439,24,101,176,176,27,20,14,87
12:28:58.159438,159438,24,101,176,176,27,20,14,87
12:28:58.160437,160437,24,101,176,176,27,20,14,87
12:28:58.161439,161439,24,101,176,176,27,20,14,87
12:28:58.162439,162439,24,101,176,176,27,20,14,87
12:28:58.163437,163437,24,101,176,176,27,20,14,87
12:28:58.164437,164437,24,101,176,176,27,20,14,87
12:28:58.165436,165436,24,101,176,176,27,20,14,87
12:28:58.166436,166436,38,87,206,240,24,21,14,99
12:28:58.166436,166436,38,79,225,245,31,24,17,110
12:28:58.167439,167439,38,79,225,245,31,24,17,110
12:28:58.168436,168436,38,79,225,245,31,24,17,110
12:28:58.169436,169436,38,79,225,245,31,24,17,110
12:28:58.170437,170437,38,79,225,245,31,24,17,110
12:28:58.171437,171437,38,79,225,245,31,24,17,110
12:28:58.172437,172437,38,79,225,245,31,24,17,110
12:28:58.173439,173439,38,79,225,245,31,24,17,110
12:28:58.174439,174439,38,79,225,245,31,24,17,110
12:28:58.175438,175438,38,79,225,245,31,24,17,110
12:28:58.176439,176439,38,79,225,245,31,24,17,110
12:28:58.177441,177441,38,79,225,245,31,24,17,110
12:28:58.178478,178478,38,79,225,245,31,24,17,110
12:28:58.179478,179478,38,79,225,245,31,24,17,110
12:28:58.180440,180440,38,79,225,245,31,24,17,110
12:28:58.181439,181439,38,79,225,245,31,24,17,110
12:28:58.182475,182475,37,75,231,227,35,23,16,107
12:28:58.183438,183438,37,75,231,227,35,23,16,107
12:28:58.184439,184439,37,75,231,227,35,23,16,107
12:28:58.185438,185438,37,75,231,227,35,23,16,107
12:28:58.186439,186439,37,75,231,227,35,23,16,107
12:28:58.187439,187439,37,75,231,227,35,23,16,107
12:28:58.188439,188439,37,75,231,227,35,23,16,107
12:28:58.189439,189439,37,75,231,227,35,23,16,107
12:28:58.190440,190440,37,75,231,227,35,23,16,107
12:28:58.191439,191439,37,75,231,227,35,23,16,107
12:28:58.192439,192439,37,75,231,227,35,23,16,107
12:28:58.193438,193438,37,75,231,227,35,23,16,107
12:28:58.194438,194438,37,75,231,227,35,23,16,107
12:28:58.195439,195439,37,75,231,227,35,23,16,107
12:28:58.196440,196440,37,75,231,227,35,23,16,107
12:28:58.197441,197441,37,75,231,227,35,23,16,107
12:28:58.198439,198439,37,75,231,227,35,23,16,107
12:28:58.198439,198439,58,66,427,202,32,25,15,115
12:28:58.199440,199440,58,66,427,202,32,25,15,115
12:28:58.200439,200439,58,66,427,202,32,25,15,115
12:28:58.201438,201438,58,66,427,202,32,25,15,115
12:28:58.202439,202439,58,66,427,202,32,25,15,115
12:28:58.203439,203439,58,66,427,202,32,25,15,115
12:28:58.204438,204438,58,66,427,202,32,25,15,115
12:28:58.205441,205441,58,66,427,202,32,25,15,115
12:28:58.206440,206440,58,66,427,202,32,25,15,115
12:28:58.207440,207440,58,66,427,202,32,25,15,115
12:28:58.208440,208440,58,66,427,202,32,25,15,115
12:28:58.209442,209442,58,66,427,202,32,25,15,115
12:28:58.210441,210441,58,66,427,202,32,25,15,115
12:28:58.211441,211441,58,66,427,202,32,25,15,115
12:28:58.212439,212439,58,66,427,202,32,25,15,115
12:28:58.213439,213439,58,66,427,202,32,25,15,115
12:28:58.214439,214439,58,66,427,202,32,25,15,115
12:28:58.214439,214439,65,74,430,236,31,24,15,120
12:28:58.215439,215439,65,74,430,236,31,24,15,120
12:28:58.216440,216440,65,74,430,236,31,24,15,120
12:28:58.217439,217439,65,74,430,236,31,24,15,120
12:28:58.218439,218439,65,74,430,236,31,24,15,120
12:28:58.219439,219439,65,74,430,236,31,24,15,120
12:28:58.220440,220440,65,74,430,236,31,24,15,120
12:28:58.221439,221439,65,74,430,236,31,24,15,120
12:28:58.222440,222440,65,74,430,236,31,24,15,120
12:28:58.223439,223439,65,74,430,236,31,24,15,120
12:28:58.224437,224437,65,74,430,236,31,24,15,120
12:28:58.225440,225440,65,74,430,236,31,24,15,120
12:28:58.226439,226439,65,74,430,236,31,24,15,120
12:28:58.227439,227439,65,74,430,236,31,24,15,120
12:28:58.228439,228439,65,74,430,236,31,24,15,120
12:28:58.229439,229439,65,74,430,236,31,24,15,120
12:28:58.230439,230439,65,74,430,236,31,24,15,120
12:28:58.230439,230439,62,64,387,232,32,23,12,126
12:28:58.231441,231441,62,64,387,232,32,23,12,126
12:28:58.232438,232438,62,64,387,232,32,23,12,126
12:28:58.233439,233439,62,64,387,232,32,23,12,126
12:28:58.234438,234438,62,64,387,232,32,23,12,126
12:28:58.235439,235439,62,64,387,232,32,23,12,126
12:28:58.236439,236439,62,64,387,232,32,23,12,126
12:28:58.237439,237439,62,64,387,232,32,23,12,126
12:28:58.238439,238439,62,64,387,232,32,23,12,126
12:28:58.239439,239439,62,64,387,232,32,23,12,126
12:28:58.240439,240439,62,64,387,232,32,23,12,126
12:28:58.241438,241438,62,64,387,232,32,23,12,126
12:28:58.242440,242440,62,64,387,232,32,23,12,126
12:28:58.243438,243438,62,64,387,232,32,23,12,126
12:28:58.244437,244437,62,64,387,232,32,23,12,126
12:28:58.245439,245439,62,64,387,232,32,23,12,126
12:28:58.246439,246439,62,64,387,232,32,23,12,126
12:28:58.246439,246439,56,57,481,201,28,21,9,92
12:28:58.246439,246439,67,63,451,170,21,18,7,76
12:28:58.246439,246439,70,61,452,154,18,20,7,85
12:28:58.246439,246439,70,62,415,184,15,16,8,94
12:28:58.247439,247439,64,60,359,193,16,17,9,105
12:28:58.247439,247439,57,58,328,167,16,16,9,110
12:28:58.247439,247439,54,48,300,134,23,19,11,105
12:28:58.247439,247439,54,50,303,147,27,20,11,105
12:28:58.248437,248437,54,50,303,147,27,20,11,105
12:28:58.249439,249439,54,50,303,147,27,20,11,105
12:28:58.250439,250439,54,50,303,147,27,20,11,105
12:28:58.251439,251439,54,50,303,147,27,20,11,105
12:28:58.252438,252438,54,50,303,147,27,20,11,105
12:28:58.253438,253438,54,50,303,147,27,20,11,105
12:28:58.254439,254439,54,50,303,147,27,20,11,105
12:28:58.255437,255437,54,50,303,147,27,20,11,105
12:28:58.256441,256441,54,50,303,147,27,20,11,105
12:28:58.257438,257438,54,50,303,147,27,20,11,105
12:28:58.258438,258438,54,50,303,147,27,20,11,105
12:28:58.259439,259439,54,50,303,147,27,20,11,105
12:28:58.260438,260438,54,50,303,147,27,20,11,105
12:28:58.261439,261439,54,50,303,147,27,20,11,105
