EMG 1,EMG 2,EMG 3,EMG 4,EMG 5,EMG 6,EMG 7,EMG 8,Timestamp,Milliseconds
2,2,7,14,6,0,0,1,2021-08-06 13:49:17,433381
-3,0,2,-2,-22,-11,-5,-4,2021-08-06 13:49:17,433381
5,6,12,27,26,14,7,5,2021-08-06 13:49:17,433381
0,2,5,5,14,8,3,-1,2021-08-06 13:49:17,433381
-2,-2,-4,-8,3,0,-2,0,2021-08-06 13:49:17,433381
-8,-14,-27,-34,-14,-6,-6,-6,2021-08-06 13:49:17,433381
-4,-6,-13,-34,-21,-10,-7,-2,2021-08-06 13:49:17,433381
0,1,1,2,-4,-3,0,-1,2021-08-06 13:49:17,433381
2,6,19,34,14,5,3,0,2021-08-06 13:49:17,433381
5,7,17,41,18,7,5,3,2021-08-06 13:49:17,434380
-4,-5,-14,-37,-32,-13,-6,-4,2021-08-06 13:49:17,434380
-3,-6,-2,-23,7,5,-1,-2,2021-08-06 13:49:17,434380
-2,-2,-16,-9,-15,-5,-3,-3,2021-08-06 13:49:17,449433
1,2,4,9,10,3,-1,0,2021-08-06 13:49:17,449433
0,2,6,29,19,8,3,1,2021-08-06 13:49:17,465433
1,0,7,15,-1,-3,-2,-1,2021-08-06 13:49:17,465433
2,0,-5,-22,-16,-5,0,2,2021-08-06 13:49:17,465433
-3,-5,-9,-29,-17,-12,-4,-2,2021-08-06 13:49:17,465433
0,-1,-2,-5,-13,-8,-2,-2,2021-08-06 13:49:17,480382
-5,-3,-2,5,2,2,-1,-3,2021-08-06 13:49:17,480382
1,1,4,15,19,10,3,0,2021-08-06 13:49:17,495416
-1,0,-2,6,-5,2,1,-1,2021-08-06 13:49:17,495416
-1,-1,3,-3,-6,-5,-3,-2,2021-08-06 13:49:17,510419
2,-1,-1,3,0,1,2,2,2021-08-06 13:49:17,510419
2,2,-16,-11,-8,-5,0,1,2021-08-06 13:49:17,540431
-4,-5,6,-6,3,2,-2,-2,2021-08-06 13:49:17,540431
-3,-3,-13,-8,-8,-6,-5,-5,2021-08-06 13:49:17,554381
-4,-10,-18,-27,-15,-6,-2,-2,2021-08-06 13:49:17,554381
3,5,6,0,11,6,2,1,2021-08-06 13:49:17,554381
3,4,1,-8,-14,-10,-4,0,2021-08-06 13:49:17,554381
0,-2,6,15,7,4,2,-1,2021-08-06 13:49:17,554381
-1,4,7,12,5,0,-1,-2,2021-08-06 13:49:17,555422
2,3,9,22,8,6,3,1,2021-08-06 13:49:17,555422
2,3,4,18,5,4,2,2,2021-08-06 13:49:17,555422
3,3,-2,-20,-12,-4,-2,-1,2021-08-06 13:49:17,572419
-9,-14,-17,-35,-11,-9,-7,-6,2021-08-06 13:49:17,587416
-1,6,17,17,-1,-3,0,-2,2021-08-06 13:49:17,587416
-3,-1,-7,-22,-22,-14,-8,-5,2021-08-06 13:49:17,587416
1,1,-14,12,17,9,6,2,2021-08-06 13:49:17,587416
0,-3,-9,1,14,12,5,3,2021-08-06 13:49:17,587416
-7,-12,-12,-4,-14,-9,-6,-7,2021-08-06 13:49:17,618432
0,0,11,9,-4,-5,-1,-1,2021-08-06 13:49:17,618432
-1,0,3,-16,6,4,1,2,2021-08-06 13:49:17,618432
0,4,2,1,-5,-3,-1,1,2021-08-06 13:49:17,618432
-4,-4,0,4,12,3,0,-2,2021-08-06 13:49:17,618432
1,3,1,17,5,4,3,0,2021-08-06 13:49:17,618432
4,12,33,15,-1,-1,1,1,2021-08-06 13:49:17,634382
1,3,11,23,2,-1,-4,-4,2021-08-06 13:49:17,650383
4,-4,-22,-30,1,4,4,6,2021-08-06 13:49:17,666381
-8,-19,-42,-33,-15,-9,-5,-7,2021-08-06 13:49:17,666381
-12,-21,-30,-33,-37,-25,-14,-10,2021-08-06 13:49:17,666381
6,25,51,60,50,27,11,5,2021-08-06 13:49:17,666919
10,16,18,23,11,7,5,6,2021-08-06 13:49:17,666919
-1,-13,-11,-14,0,4,2,0,2021-08-06 13:49:17,666919
-11,-16,-35,-26,-18,-12,-8,-7,2021-08-06 13:49:17,682155
-6,-9,-8,-20,-23,-17,-9,-7,2021-08-06 13:49:17,697104
-3,2,20,15,6,1,-1,-2,2021-08-06 13:49:17,712129
6,17,16,-7,3,5,3,5,2021-08-06 13:49:17,728153
4,6,20,26,27,12,3,3,2021-08-06 13:49:17,728153
0,-2,-8,-9,-30,-18,-5,0,2021-08-06 13:49:17,728153
0,-1,-10,-19,-2,4,3,1,2021-08-06 13:49:17,728153
1,1,10,30,39,18,7,3,2021-08-06 13:49:17,728153
-4,-7,-11,-22,-22,-9,-3,-3,2021-08-06 13:49:17,728153
-1,-2,-8,1,11,7,2,1,2021-08-06 13:49:17,728153
-3,-4,0,2,-22,-14,-9,-6,2021-08-06 13:49:17,728153
-2,0,-2,-5,-16,-7,-5,-2,2021-08-06 13:49:17,729139
4,6,9,15,13,7,3,2,2021-08-06 13:49:17,744105
-3,-9,-14,-23,-10,-7,-4,-4,2021-08-06 13:49:17,760105
-3,-6,-8,-10,-2,-2,-1,0,2021-08-06 13:49:17,760105
0,2,3,-5,-3,-1,0,-2,2021-08-06 13:49:17,760105
2,4,12,18,8,3,2,0,2021-08-06 13:49:17,760105
2,1,1,4,-8,-4,1,0,2021-08-06 13:49:17,760105
-4,-4,-8,4,-1,-2,-4,-4,2021-08-06 13:49:17,760105
-1,1,7,1,8,3,0,-2,2021-08-06 13:49:17,760105
2,5,9,6,2,3,3,1,2021-08-06 13:49:17,776140
2,-2,-11,-15,0,1,1,2,2021-08-06 13:49:17,776140
-8,-15,-32,-47,-38,-21,-13,-7,2021-08-06 13:49:17,776140
-7,-13,-11,-1,4,-1,-3,-6,2021-08-06 13:49:17,776140
5,9,23,44,32,16,9,6,2021-08-06 13:49:17,808105
4,7,8,-2,4,5,4,3,2021-08-06 13:49:17,808105
-3,-3,5,-16,-11,-6,-3,-4,2021-08-06 13:49:17,823104
-3,-1,-4,5,-28,-18,-7,-5,2021-08-06 13:49:17,823104
4,7,5,28,38,18,9,5,2021-08-06 13:49:17,823104
0,-2,-14,-12,-7,-3,0,-1,2021-08-06 13:49:17,823104
-10,-14,-16,-36,-29,-16,-9,-8,2021-08-06 13:49:17,823104
2,0,2,11,12,5,1,1,2021-08-06 13:49:17,823104
3,6,15,28,17,12,6,3,2021-08-06 13:49:17,838142
3,8,11,22,13,6,2,2,2021-08-06 13:49:17,838142
1,-2,-7,-22,1,5,3,0,2021-08-06 13:49:17,838142
-4,-6,-8,-17,-13,-11,-5,-4,2021-08-06 13:49:17,838142
-1,-2,-2,-3,-8,-7,-6,-1,2021-08-06 13:49:17,869105
-2,0,6,14,-1,-3,-3,-2,2021-08-06 13:49:17,869105
7,11,13,38,24,11,6,7,2021-08-06 13:49:17,869105
0,2,-6,-13,-2,2,1,2,2021-08-06 13:49:17,869105
-9,-18,-24,-61,-42,-20,-10,-8,2021-08-06 13:49:17,869105
-6,-5,-14,-19,-21,-10,-5,-4,2021-08-06 13:49:17,869105
0,4,16,37,36,16,3,3,2021-08-06 13:49:17,901140
8,18,37,67,32,16,9,7,2021-08-06 13:49:17,909143
-2,-3,-6,4,-24,-16,-7,-5,2021-08-06 13:49:17,909143
-6,-13,-26,-81,-31,-12,-4,-4,2021-08-06 13:49:17,909143
0,-4,-21,-2,32,15,8,3,2021-08-06 13:49:17,909143
-4,-7,-9,-4,4,0,-1,-1,2021-08-06 13:49:17,910105
-4,-2,2,1,-11,-8,-7,-5,2021-08-06 13:49:17,910105
1,9,25,42,9,3,0,2,2021-08-06 13:49:17,910105
4,5,8,1,-9,-4,-1,1,2021-08-06 13:49:17,916155
-2,-4,-3,-8,-12,-4,-2,0,2021-08-06 13:49:17,916155
5,4,9,14,30,15,8,5,2021-08-06 13:49:17,932155
-7,-12,-33,-39,-20,-10,-7,-7,2021-08-06 13:49:17,932155
-9,-8,-7,-22,-20,-13,-8,-8,2021-08-06 13:49:17,932155
0,-1,-2,-2,-9,-6,-2,-1,2021-08-06 13:49:17,932155
8,10,11,9,-3,1,4,6,2021-08-06 13:49:17,962105
2,4,13,23,14,7,2,2,2021-08-06 13:49:17,962105
0,1,5,7,6,2,2,1,2021-08-06 13:49:17,977153
-8,-10,-14,-23,-21,-12,-9,-6,2021-08-06 13:49:17,977153
0,3,-2,0,12,7,5,3,2021-08-06 13:49:17,977153
3,4,9,21,25,12,5,2,2021-08-06 13:49:17,977153
-1,2,5,11,-4,-6,-2,-2,2021-08-06 13:49:17,977153
-6,-5,-5,-27,-34,-20,-10,-6,2021-08-06 13:49:17,977153
2,1,-5,14,44,28,10,4,2021-08-06 13:49:17,993153
-1,-3,1,8,-1,-1,0,-1,2021-08-06 13:49:17,993153
-2,-2,3,2,-10,-5,-4,-3,2021-08-06 13:49:17,993153
-1,1,-4,-9,-1,1,1,-1,2021-08-06 13:49:17,993153
-5,-7,-8,-19,-22,-13,-7,-6,2021-08-06 13:49:18,023142
2,7,13,25,22,6,3,4,2021-08-06 13:49:18,039149
3,5,6,12,8,6,3,2,2021-08-06 13:49:18,054758
0,-4,-12,-32,-10,-5,-2,-2,2021-08-06 13:49:18,054758
-3,-4,-12,-27,-29,-20,-11,-4,2021-08-06 13:49:18,054758
2,0,1,25,17,12,6,3,2021-08-06 13:49:18,054758
3,0,1,-4,1,3,3,1,2021-08-06 13:49:18,054758
1,1,14,15,17,10,5,2,2021-08-06 13:49:18,054758
-2,4,15,16,1,-4,-3,-1,2021-08-06 13:49:18,054758
-3,-4,-6,15,-17,-13,-8,-5,2021-08-06 13:49:18,055756
-2,-2,-13,-39,-21,-6,-2,1,2021-08-06 13:49:18,070721
-9,-14,-32,-55,-23,-10,-7,-7,2021-08-06 13:49:18,070721
-8,-14,-16,-30,-24,-15,-9,-7,2021-08-06 13:49:18,070721
-2,-3,-1,3,-1,-2,-1,-1,2021-08-06 13:49:18,070721
2,9,22,45,14,5,2,1,2021-08-06 13:49:18,070721
9,13,13,18,2,3,3,4,2021-08-06 13:49:18,070721
0,2,5,5,17,12,5,1,2021-08-06 13:49:18,101721
2,2,12,13,9,4,1,-1,2021-08-06 13:49:18,117719
1,-4,-6,3,8,1,1,0,2021-08-06 13:49:18,117719
5,11,11,30,18,8,3,5,2021-08-06 13:49:18,117719
-6,-8,-19,-31,-32,-15,-10,-6,2021-08-06 13:49:18,117719
-13,-19,-27,-69,-24,-13,-10,-9,2021-08-06 13:49:18,117719
-6,-6,-6,-7,-6,-6,-4,-3,2021-08-06 13:49:18,117719
8,10,11,38,36,18,13,9,2021-08-06 13:49:18,117719
4,8,11,23,2,0,2,0,2021-08-06 13:49:18,133769
4,9,20,22,8,3,2,1,2021-08-06 13:49:18,133769
-5,-6,-12,-11,-13,-9,-6,-3,2021-08-06 13:49:18,133769
2,2,-1,-5,13,11,4,2,2021-08-06 13:49:18,133769
-5,-9,-12,-23,-6,1,-2,-4,2021-08-06 13:49:18,164769
-3,-4,-13,-10,-7,-6,-4,-2,2021-08-06 13:49:18,180770
-2,0,13,11,-3,-4,-2,-3,2021-08-06 13:49:18,196719
6,10,22,47,25,8,4,6,2021-08-06 13:49:18,196719
3,4,1,0,1,5,3,2,2021-08-06 13:49:18,196719
-7,-13,-34,-64,-36,-17,-8,-6,2021-08-06 13:49:18,196719
-7,-14,-16,-18,-19,-10,-6,-6,2021-08-06 13:49:18,196719
-3,-2,-3,1,8,3,0,-3,2021-08-06 13:49:18,196719
0,0,12,18,6,0,0,0,2021-08-06 13:49:18,196719
2,6,17,30,5,2,0,1,2021-08-06 13:49:18,196719
3,7,2,-5,0,2,2,3,2021-08-06 13:49:18,196719
-7,-10,-10,-31,-30,-17,-8,-5,2021-08-06 13:49:18,197757
0,-2,-5,11,25,14,6,3,2021-08-06 13:49:18,228758
1,3,9,25,24,10,2,1,2021-08-06 13:49:18,244768
2,1,2,-9,-19,-9,-3,-1,2021-08-06 13:49:18,244768
0,-2,-1,19,15,4,2,-1,2021-08-06 13:49:18,244768
4,3,-3,1,6,1,2,3,2021-08-06 13:49:18,244768
-3,-6,-12,-5,-23,-14,-6,-3,2021-08-06 13:49:18,244768
-3,-1,-1,-41,4,7,0,1,2021-08-06 13:49:18,244768
-7,-6,-10,-18,-8,-7,-5,-6,2021-08-06 13:49:18,244768
-3,-3,-5,-2,-8,-5,-3,-2,2021-08-06 13:49:18,260759
2,5,13,16,11,7,3,2,2021-08-06 13:49:18,268768
2,2,5,24,7,1,-1,1,2021-08-06 13:49:18,268768
-3,-5,-3,-7,-14,-6,-2,-2,2021-08-06 13:49:18,269757
-2,-3,-4,-8,-2,-2,-2,-2,2021-08-06 13:49:18,276770
1,3,1,-7,-4,-4,-4,-2,2021-08-06 13:49:18,292769
-1,-2,-3,2,0,-1,-2,-1,2021-08-06 13:49:18,307721
0,-1,1,2,10,7,2,1,2021-08-06 13:49:18,307721
-7,-7,-9,-8,-17,-13,-8,-7,2021-08-06 13:49:18,307721
7,6,7,1,1,4,5,4,2021-08-06 13:49:18,307721
-4,-5,-8,2,-12,-8,-5,-4,2021-08-06 13:49:18,307721
1,1,7,2,12,11,4,2,2021-08-06 13:49:18,307721
-3,-4,-8,-11,-6,-2,-1,-4,2021-08-06 13:49:18,307721
1,-1,1,6,10,6,3,2,2021-08-06 13:49:18,307721
-2,-2,-1,-6,-8,-5,-3,-2,2021-08-06 13:49:18,308755
-2,-3,-3,-7,-20,-14,-6,-4,2021-08-06 13:49:18,308755
-3,-5,-7,-19,-11,-7,-3,-1,2021-08-06 13:49:18,338759
-3,-2,0,11,11,4,3,-3,2021-08-06 13:49:18,338759
6,11,16,35,21,11,7,6,2021-08-06 13:49:18,338759
3,1,-3,-13,3,1,0,-1,2021-08-06 13:49:18,338759
-2,-1,-2,-2,-7,-4,-3,-2,2021-08-06 13:49:18,370721
-7,-8,-10,-20,-18,-10,-8,-4,2021-08-06 13:49:18,386721
-2,0,1,6,4,-2,-1,-2,2021-08-06 13:49:18,386721
-1,-1,2,11,-3,0,1,-1,2021-08-06 13:49:18,386721
6,7,8,16,8,4,3,4,2021-08-06 13:49:18,386721
1,-1,-2,-15,-3,-3,-1,-2,2021-08-06 13:49:18,386721
-2,-1,-2,-4,-5,-1,0,-2,2021-08-06 13:49:18,386721
3,2,7,6,13,6,3,4,2021-08-06 13:49:18,386721
1,2,8,16,1,0,0,-1,2021-08-06 13:49:18,402773
-1,-1,-2,-8,5,1,-1,-1,2021-08-06 13:49:18,402773
0,-5,-14,-8,-4,-2,-3,0,2021-08-06 13:49:18,402773
-8,-9,-20,-45,-40,-21,-10,-8,2021-08-06 13:49:18,402773
-2,-5,-4,8,8,1,1,1,2021-08-06 13:49:18,418721
-1,3,11,6,-12,-4,-2,-1,2021-08-06 13:49:18,433756
4,4,14,13,27,16,6,5,2021-08-06 13:49:18,448769
1,4,0,15,3,2,1,1,2021-08-06 13:49:18,464769
-6,-5,-9,-23,-31,-18,-9,-5,2021-08-06 13:49:18,480769
4,4,7,21,29,18,8,5,2021-08-06 13:49:18,496721
-2,0,1,3,-2,-2,-1,-3,2021-08-06 13:49:18,496721
-4,-6,-1,0,-10,-6,-5,-3,2021-08-06 13:49:18,496721
3,2,5,12,23,12,5,3,2021-08-06 13:49:18,496721
-2,0,-4,-12,-9,-5,-3,-1,2021-08-06 13:49:18,496721
2,-2,-4,-3,4,5,3,2,2021-08-06 13:49:18,496721
1,3,5,7,3,0,1,2,2021-08-06 13:49:18,496721
-6,-4,-2,0,-14,-8,-5,-4,2021-08-06 13:49:18,496721
-6,-10,-23,-36,-18,-9,-6,-6,2021-08-06 13:49:18,496721
-3,-5,-8,-20,-6,-3,-1,-3,2021-08-06 13:49:18,496721
-3,-3,-2,-1,9,0,-3,-4,2021-08-06 13:49:18,496721
-3,-1,0,-8,-30,-17,-9,-4,2021-08-06 13:49:18,497721
13,19,31,57,51,29,15,11,2021-08-06 13:49:18,497721
3,5,8,31,27,13,6,3,2021-08-06 13:49:18,497721
0,-2,-7,-8,-5,-1,0,0,2021-08-06 13:49:18,497721
-4,-7,-4,-25,-13,-6,-4,-5,2021-08-06 13:49:18,512720
-3,-6,-23,-24,-14,-10,-4,-2,2021-08-06 13:49:18,512720
-2,-1,-2,-7,-18,-9,-4,-1,2021-08-06 13:49:18,528768
5,6,10,33,46,25,10,3,2021-08-06 13:49:18,528768
6,7,9,7,15,11,7,6,2021-08-06 13:49:18,544769
-7,-11,-7,-14,-25,-17,-9,-5,2021-08-06 13:49:18,544769
-2,-1,2,10,5,-4,-2,-3,2021-08-06 13:49:18,544769
-6,-7,-9,-23,-35,-21,-9,-5,2021-08-06 13:49:18,544769
3,5,1,-9,18,12,6,3,2021-08-06 13:49:18,560756
-5,-5,-5,-2,1,-1,-2,-1,2021-08-06 13:49:18,560756
-3,-3,0,4,-5,-4,-3,-4,2021-08-06 13:49:18,560756
-1,-4,-4,2,-20,-11,-6,-2,2021-08-06 13:49:18,560756
4,2,2,3,29,17,8,5,2021-08-06 13:49:18,576721
-3,-4,-6,-9,-12,-5,-4,-4,2021-08-06 13:49:18,576721
1,-1,1,-1,5,-1,-3,0,2021-08-06 13:49:18,576721
1,3,3,3,-5,0,1,-1,2021-08-06 13:49:18,576721
1,0,4,17,-1,-1,0,1,2021-08-06 13:49:18,608767
-1,-1,2,-1,0,-1,0,0,2021-08-06 13:49:18,608767
-7,-9,-15,-31,-23,-14,-9,-8,2021-08-06 13:49:18,608767
2,1,-1,-4,7,4,1,2,2021-08-06 13:49:18,608767
-2,-1,-1,0,-10,-7,-3,-2,2021-08-06 13:49:18,624756
0,3,7,15,10,4,0,0,2021-08-06 13:49:18,624756
-2,-2,-3,-16,-25,-12,-5,-2,2021-08-06 13:49:18,624756
-1,-1,2,6,13,5,1,1,2021-08-06 13:49:18,624756
-2,-3,-1,3,6,3,1,-2,2021-08-06 13:49:18,656769
-6,-8,-9,-12,-17,-9,-7,-7,2021-08-06 13:49:18,672756
8,10,10,11,14,11,7,7,2021-08-06 13:49:18,688721
-2,-1,0,-2,1,-2,-2,-1,2021-08-06 13:49:18,688721
-3,-2,-6,-6,-9,-5,-4,-4,2021-08-06 13:49:18,688721
-3,-5,-5,-6,-15,-9,-3,-3,2021-08-06 13:49:18,688721
2,2,3,9,15,8,4,2,2021-08-06 13:49:18,688721
0,1,2,5,4,4,1,0,2021-08-06 13:49:18,688721
-3,-2,-8,-17,-17,-10,-6,-2,2021-08-06 13:49:18,688721
-1,-2,0,-8,-15,-7,-2,-1,2021-08-06 13:49:18,688721
-9,-9,-14,-20,-23,-13,-9,-6,2021-08-06 13:49:18,689756
8,9,16,39,50,25,14,8,2021-08-06 13:49:18,689756
0,0,0,16,8,3,1,-1,2021-08-06 13:49:18,689756
3,0,-7,-30,-8,0,1,0,2021-08-06 13:49:18,689756
-10,-12,-6,-26,-27,-15,-10,-9,2021-08-06 13:49:18,704770
-5,-5,-14,-17,-21,-13,-9,-6,2021-08-06 13:49:18,720721
1,3,3,13,15,8,4,2,2021-08-06 13:49:18,752756
6,7,20,39,29,11,5,4,2021-08-06 13:49:18,768757
2,2,0,10,4,2,1,0,2021-08-06 13:49:18,784721
1,-2,-6,-14,-5,-3,-2,0,2021-08-06 13:49:18,784721
-2,-2,-3,-8,-14,-6,0,0,2021-08-06 13:49:18,784721
-2,-1,-7,-15,-10,-7,-6,-2,2021-08-06 13:49:18,784721
-4,-3,3,3,9,3,0,-1,2021-08-06 13:49:18,784721
0,2,7,13,6,6,2,-1,2021-08-06 13:49:18,784721
-2,-1,-2,-3,0,0,-3,-2,2021-08-06 13:49:18,784721
7,10,13,12,8,4,4,5,2021-08-06 13:49:18,785756
3,3,1,17,19,10,2,1,2021-08-06 13:49:18,785756
-3,-3,-4,-7,-9,-6,-2,-2,2021-08-06 13:49:18,785756
-5,-8,-13,-23,-29,-15,-7,-5,2021-08-06 13:49:18,785756
-6,-6,-5,-7,5,0,-1,-3,2021-08-06 13:49:18,785756
2,-1,2,-3,-6,-2,0,2,2021-08-06 13:49:18,785756
-2,-4,-10,-6,-2,-4,-2,-3,2021-08-06 13:49:18,785756
3,4,8,12,20,9,5,3,2021-08-06 13:49:18,800772
1,0,2,10,1,3,1,-1,2021-08-06 13:49:18,800772
0,3,3,8,9,5,3,0,2021-08-06 13:49:18,800772
-6,-6,0,-10,-18,-10,-5,-5,2021-08-06 13:49:18,800772
-2,-4,-7,-14,-21,-13,-6,-3,2021-08-06 13:49:18,816720
-1,-2,-3,-1,9,6,1,1,2021-08-06 13:49:18,816720
1,0,-3,-2,0,-2,2,3,2021-08-06 13:49:18,816720
-2,-3,-2,-1,1,-1,-1,-2,2021-08-06 13:49:18,816720
0,1,2,6,13,3,1,0,2021-08-06 13:49:18,831721
2,3,3,4,-2,0,2,3,2021-08-06 13:49:18,831721
-1,-2,-2,-4,-12,-6,-4,-2,2021-08-06 13:49:18,846719
2,2,0,0,-2,1,3,1,2021-08-06 13:49:18,846719
0,0,2,-2,4,-1,0,-1,2021-08-06 13:49:18,862719
-4,-4,-3,3,-3,-2,-4,-3,2021-08-06 13:49:18,862719
1,2,0,5,5,2,1,-1,2021-08-06 13:49:18,862719
-3,-7,-5,-7,-11,-6,-6,-3,2021-08-06 13:49:18,862719
-4,-3,-4,-8,-11,-4,-2,-3,2021-08-06 13:49:18,893769
-1,-3,-3,0,-3,-3,-2,-1,2021-08-06 13:49:18,909759
4,3,-1,0,15,7,3,2,2021-08-06 13:49:18,925759
-2,0,-2,-3,-9,-4,-3,-1,2021-08-06 13:49:18,941774
2,1,2,-10,-8,-3,-1,1,2021-08-06 13:49:18,957758
2,3,5,9,-5,-3,-1,0,2021-08-06 13:49:18,957758
-5,-7,-6,-4,-7,-5,-4,-3,2021-08-06 13:49:18,957758
8,8,7,15,46,23,12,7,2021-08-06 13:49:18,957758
-2,-1,2,12,15,8,1,0,2021-08-06 13:49:18,957758
-2,-1,-3,0,0,-3,-2,-1,2021-08-06 13:49:18,958720
-1,-4,-2,-6,-8,-5,-2,0,2021-08-06 13:49:18,958720
-8,-10,-9,-24,-38,-20,-10,-8,2021-08-06 13:49:18,958720
1,1,-2,3,9,3,3,1,2021-08-06 13:49:18,958720
-1,-2,-8,-6,-8,-6,-4,-4,2021-08-06 13:49:18,958720
1,2,5,13,10,6,2,0,2021-08-06 13:49:18,958720
-2,-1,-2,-5,-11,-7,-5,-1,2021-08-06 13:49:18,958720
-1,-1,4,-9,-12,-5,-2,0,2021-08-06 13:49:18,958720
-4,-6,-14,-9,-14,-6,-3,-4,2021-08-06 13:49:18,959758
2,2,3,9,22,11,5,3,2021-08-06 13:49:18,959758
4,8,15,29,21,10,5,2,2021-08-06 13:49:18,959758
-3,-3,-5,5,-11,-9,-6,-3,2021-08-06 13:49:18,989721
-2,-5,-12,-33,-11,-3,0,0,2021-08-06 13:49:18,989721
-6,-10,-14,-35,-29,-16,-8,-5,2021-08-06 13:49:18,989721
0,-1,0,-3,-5,-4,-1,0,2021-08-06 13:49:18,989721
2,5,7,18,11,4,0,-1,2021-08-06 13:49:19,000719
-2,-1,3,14,2,0,-1,-1,2021-08-06 13:49:19,001719
6,8,9,19,12,7,4,6,2021-08-06 13:49:19,001719
0,-1,-5,-32,-12,-2,-2,-2,2021-08-06 13:49:19,001719
-4,-7,-8,-7,-11,-4,-3,-3,2021-08-06 13:49:19,021758
-1,1,5,9,15,5,0,-1,2021-08-06 13:49:19,021758
1,4,7,18,23,11,1,2,2021-08-06 13:49:19,021758
-1,3,3,19,19,11,3,3,2021-08-06 13:49:19,021758
-2,-3,-5,-12,-15,-8,-4,-2,2021-08-06 13:49:19,053717
1,1,-1,-16,-20,-6,-4,-1,2021-08-06 13:49:19,068781
-1,-2,3,4,10,4,1,-4,2021-08-06 13:49:19,084721
-6,-5,-7,-13,-15,-11,-8,-4,2021-08-06 13:49:19,100762
-1,0,-9,-3,10,3,2,0,2021-08-06 13:49:19,100762
-3,-1,5,8,-6,-7,-3,-1,2021-08-06 13:49:19,100762
1,1,0,-2,-8,-4,0,-2,2021-08-06 13:49:19,100762
-1,-1,3,8,8,7,2,1,2021-08-06 13:49:19,100762
-3,-2,-2,-5,-3,-2,-1,-1,2021-08-06 13:49:19,116720
1,1,0,-4,-7,-5,0,0,2021-08-06 13:49:19,116720
-5,-4,-5,-10,-11,-5,-3,-4,2021-08-06 13:49:19,116720
0,-2,1,8,5,1,0,-1,2021-08-06 13:49:19,116720
4,8,12,16,20,11,4,6,2021-08-06 13:49:19,132719
-1,-3,-6,-7,3,2,1,-2,2021-08-06 13:49:19,132719
-2,-4,-10,-18,-14,-11,-3,-3,2021-08-06 13:49:19,132719
-6,-9,-15,-26,-38,-24,-11,-6,2021-08-06 13:49:19,132719
-1,-4,4,-3,-1,-1,-1,0,2021-08-06 13:49:19,132719
2,0,1,12,16,10,3,1,2021-08-06 13:49:19,132719
4,5,9,31,36,21,10,5,2021-08-06 13:49:19,132719
2,3,2,-1,1,0,2,-1,2021-08-06 13:49:19,132719
-2,-3,-12,-21,-37,-21,-10,-6,2021-08-06 13:49:19,148769
-1,1,5,7,13,7,3,1,2021-08-06 13:49:19,148769
-3,-2,-2,-5,-14,-6,-3,-3,2021-08-06 13:49:19,148769
0,3,3,14,14,9,2,3,2021-08-06 13:49:19,148769
-2,-1,4,2,3,1,0,-2,2021-08-06 13:49:19,164771
-1,-2,-5,-13,-13,-9,-5,-2,2021-08-06 13:49:19,180776
-7,-5,-12,-20,-28,-16,-8,-6,2021-08-06 13:49:19,196726
2,4,6,13,27,15,4,3,2021-08-06 13:49:19,212723
1,1,1,1,4,3,3,1,2021-08-06 13:49:19,212723
1,2,4,6,-2,-4,-1,-1,2021-08-06 13:49:19,212723
-1,-3,1,4,4,3,0,-1,2021-08-06 13:49:19,212723
-6,-8,-8,-22,-34,-21,-9,-7,2021-08-06 13:49:19,212723
3,3,3,20,32,21,8,5,2021-08-06 13:49:19,212723
2,2,0,11,9,4,0,1,2021-08-06 13:49:19,212723
-2,-4,-6,-24,-18,-8,-6,-2,2021-08-06 13:49:19,212723
3,4,8,22,20,14,6,3,2021-08-06 13:49:19,213760
-5,-7,-5,-4,-19,-14,-7,-7,2021-08-06 13:49:19,227772
-4,-6,-5,-2,-2,-2,-1,-3,2021-08-06 13:49:19,227772
7,8,9,-9,5,5,5,7,2021-08-06 13:49:19,227772
-6,-7,-13,-15,-16,-6,-6,-6,2021-08-06 13:49:19,227772
1,2,-2,-1,0,-2,-2,2,2021-08-06 13:49:19,243772
-1,-1,3,6,2,0,0,-1,2021-08-06 13:49:19,243772
0,-2,1,7,1,-2,0,-1,2021-08-06 13:49:19,243772
0,-1,3,-1,0,-2,1,-2,2021-08-06 13:49:19,243772
-1,-1,1,-3,-6,-4,-2,-4,2021-08-06 13:49:19,259760
3,4,5,6,16,12,5,5,2021-08-06 13:49:19,259760
-1,-1,4,-10,-12,-4,-3,0,2021-08-06 13:49:19,259760
0,-1,-12,3,2,-2,-2,-2,2021-08-06 13:49:19,259760
-1,1,5,14,21,13,6,3,2021-08-06 13:49:19,291772
1,0,0,-7,-12,-6,0,1,2021-08-06 13:49:19,307762
-4,-6,-11,-5,-8,-8,-5,-4,2021-08-06 13:49:19,323767
-6,-8,-7,-21,-17,-13,-6,-4,2021-08-06 13:49:19,323767
5,5,9,10,8,5,2,1,2021-08-06 13:49:19,323767
3,3,6,7,7,0,-2,-1,2021-08-06 13:49:19,323767
-2,3,-1,-9,-24,-7,-3,-1,2021-08-06 13:49:19,323767
-3,-7,-10,-3,11,0,0,-1,2021-08-06 13:49:19,323767
-5,-6,-9,-17,-13,-8,-4,-3,2021-08-06 13:49:19,323767
-2,-2,1,8,15,10,1,0,2021-08-06 13:49:19,323767
-3,-2,-2,14,1,-6,-3,-2,2021-08-06 13:49:19,323767
1,4,5,2,-2,1,1,2,2021-08-06 13:49:19,323767
-1,-3,-2,-18,-15,-6,-4,-2,2021-08-06 13:49:19,339760
0,2,3,11,24,10,3,2,2021-08-06 13:49:19,355772
-3,-4,-7,-5,-10,-7,-5,-4,2021-08-06 13:49:19,359722
3,5,8,6,1,3,2,3,2021-08-06 13:49:19,359722
3,2,7,9,22,8,5,1,2021-08-06 13:49:19,359722
-8,-8,-14,-15,-36,-23,-12,-9,2021-08-06 13:49:19,359722
-2,-5,-5,1,-7,-5,-3,-1,2021-08-06 13:49:19,359722
5,7,0,-4,40,24,13,7,2021-08-06 13:49:19,360722
-1,-3,-8,-15,-14,-6,-3,-3,2021-08-06 13:49:19,386725
-2,-4,-1,-3,-3,-2,-2,-4,2021-08-06 13:49:19,402759
-2,-1,6,13,8,2,-1,-2,2021-08-06 13:49:19,418760
-1,0,4,6,-19,-15,-6,-3,2021-08-06 13:49:19,434724
-2,-2,-12,-23,-24,-10,-2,-1,2021-08-06 13:49:19,434724
-2,-2,2,11,24,11,4,0,2021-08-06 13:49:19,434724
3,5,6,12,13,7,3,2,2021-08-06 13:49:19,434724
-2,-4,3,7,-7,-4,-4,-4,2021-08-06 13:49:19,434724
2,2,-1,2,4,2,1,2,2021-08-06 13:49:19,450768
-1,-2,-10,-22,-13,-8,-3,-1,2021-08-06 13:49:19,466760
-1,-4,-7,-7,1,-2,-1,0,2021-08-06 13:49:19,482765
1,0,1,-6,-7,-3,-3,0,2021-08-06 13:49:19,482765
-5,-6,-8,7,-6,-4,-7,-5,2021-08-06 13:49:19,482765
-2,-4,0,3,-3,-2,0,0,2021-08-06 13:49:19,482765
4,7,8,9,13,8,4,4,2021-08-06 13:49:19,482765
1,-1,-3,0,0,2,0,0,2021-08-06 13:49:19,482765
-1,2,5,0,-6,-2,0,2,2021-08-06 13:49:19,482765
1,-1,-1,-4,8,4,2,-1,2021-08-06 13:49:19,482765
-5,-4,-1,-4,-10,-8,-5,-4,2021-08-06 13:49:19,482765
-2,-3,-5,-3,-16,-10,-5,-3,2021-08-06 13:49:19,482765
3,3,-3,6,10,9,5,2,2021-08-06 13:49:19,483724
-3,-1,-4,-12,-13,-4,-4,-2,2021-08-06 13:49:19,483724
-1,-5,-4,-5,2,0,0,-1,2021-08-06 13:49:19,483724
-4,-3,2,-2,-9,-6,-4,-3,2021-08-06 13:49:19,483724
0,-1,3,2,4,-1,-1,-1,2021-08-06 13:49:19,498725
-1,0,-2,0,-7,-4,-2,-1,2021-08-06 13:49:19,498725
1,2,2,3,7,2,0,-1,2021-08-06 13:49:19,514760
-1,2,-2,-1,-2,-1,0,-1,2021-08-06 13:49:19,530777
-3,-4,-3,-5,-8,-9,-7,-3,2021-08-06 13:49:19,546725
0,2,4,4,4,4,1,1,2021-08-06 13:49:19,546725
-5,-6,-6,-3,-4,-1,-2,-3,2021-08-06 13:49:19,546725
6,6,9,16,20,10,8,6,2021-08-06 13:49:19,546725
3,3,3,13,23,9,4,1,2021-08-06 13:49:19,546725
-5,-5,-7,-18,-13,-7,-5,-4,2021-08-06 13:49:19,546725
-4,-5,-10,-13,-12,-10,-7,-5,2021-08-06 13:49:19,546725
-5,-7,-7,-9,-19,-11,-6,-3,2021-08-06 13:49:19,546725
1,3,9,21,19,9,3,2,2021-08-06 13:49:19,562724
3,4,1,5,4,2,2,1,2021-08-06 13:49:19,562724
-1,-2,-7,-19,-5,-3,-2,-3,2021-08-06 13:49:19,562724
-1,-2,-2,1,-4,1,0,0,2021-08-06 13:49:19,562724
-6,-6,-4,-11,-15,-9,-5,-4,2021-08-06 13:49:19,578772
4,4,8,27,37,19,9,4,2021-08-06 13:49:19,578772
0,2,1,5,1,4,0,2,2021-08-06 13:49:19,578772
-2,-3,0,-12,-7,-4,-4,-3,2021-08-06 13:49:19,578772
0,0,-3,-15,-14,-8,-5,-2,2021-08-06 13:49:19,610760
-3,-2,-6,-10,-24,-14,-5,-4,2021-08-06 13:49:19,610760
3,2,0,13,21,13,6,4,2021-08-06 13:49:19,610760
0,1,0,11,16,6,3,1,2021-08-06 13:49:19,610760
0,-3,-1,-7,-14,-7,-3,-1,2021-08-06 13:49:19,610760
-4,-5,-7,-20,-22,-14,-9,-4,2021-08-06 13:49:19,610760
-1,-1,0,1,5,1,0,-2,2021-08-06 13:49:19,626760
-1,-1,2,10,17,8,0,-1,2021-08-06 13:49:19,626760
4,5,9,24,24,16,10,6,2021-08-06 13:49:19,641763
-1,-4,-3,-2,-12,-7,-3,-1,2021-08-06 13:49:19,656772
-2,-5,-5,-18,-16,-9,-4,-4,2021-08-06 13:49:19,656772
1,2,-3,-11,-17,-8,-4,0,2021-08-06 13:49:19,656772
-2,-2,-2,-2,5,1,-2,-3,2021-08-06 13:49:19,656772
6,6,9,18,25,11,5,3,2021-08-06 13:49:19,657726
0,0,-2,19,14,6,3,2,2021-08-06 13:49:19,672762
-4,-6,-8,-21,-28,-17,-9,-4,2021-08-06 13:49:19,688759
-6,-4,-6,-18,-9,-6,-4,-5,2021-08-06 13:49:19,688759
3,4,11,22,24,13,3,2,2021-08-06 13:49:19,688759
2,3,2,-3,-1,3,4,3,2021-08-06 13:49:19,688759
-1,0,0,0,7,3,1,-1,2021-08-06 13:49:19,688759
-6,-7,-3,-12,-27,-17,-8,-5,2021-08-06 13:49:19,704774
-1,-2,-5,-1,-5,-3,-3,-2,2021-08-06 13:49:19,704774
-1,1,-2,3,2,0,0,-1,2021-08-06 13:49:19,704774
1,1,1,-2,-3,-2,1,0,2021-08-06 13:49:19,704774
-1,0,-2,-9,-3,-2,1,1,2021-08-06 13:49:19,719772
-2,-3,-9,-4,-4,-3,-2,-2,2021-08-06 13:49:19,719772
1,-1,4,6,-4,-3,-2,1,2021-08-06 13:49:19,720762
-2,-3,-4,-1,4,2,-1,-2,2021-08-06 13:49:19,720762
1,2,6,14,21,12,6,1,2021-08-06 13:49:19,736725
2,3,5,6,11,7,3,1,2021-08-06 13:49:19,752772
-2,-3,-3,-9,-18,-10,-6,-4,2021-08-06 13:49:19,768772
1,2,2,4,8,2,0,0,2021-08-06 13:49:19,784761
-3,-3,-4,-1,-2,0,-1,-2,2021-08-06 13:49:19,784761
0,0,0,-2,-5,-2,2,1,2021-08-06 13:49:19,800723
0,-1,1,1,15,7,0,-2,2021-08-06 13:49:19,800723
-1,-1,1,1,-5,-3,-3,-2,2021-08-06 13:49:19,800723
0,3,-3,-4,-15,-8,-4,-2,2021-08-06 13:49:19,800723
1,-1,-4,-11,-12,-3,-3,-1,2021-08-06 13:49:19,800723
-1,0,4,0,5,2,-1,0,2021-08-06 13:49:19,800723
-3,-6,-4,1,-4,-6,-3,-3,2021-08-06 13:49:19,800723
1,-1,-3,2,2,-2,0,2,2021-08-06 13:49:19,801725
-2,-3,1,1,-6,-2,-3,-2,2021-08-06 13:49:19,801725
0,1,4,-7,0,2,1,0,2021-08-06 13:49:19,801725
1,1,-4,0,3,5,2,1,2021-08-06 13:49:19,801725
-1,-3,-5,1,0,0,-1,0,2021-08-06 13:49:19,831773
0,0,0,0,9,4,2,-1,2021-08-06 13:49:19,847722
3,6,5,9,4,2,1,3,2021-08-06 13:49:19,863760
2,1,4,0,-6,-2,0,-1,2021-08-06 13:49:19,879760
-3,-4,-1,-14,-23,-12,-7,-6,2021-08-06 13:49:19,911725
0,0,2,-3,-1,-3,-2,-2,2021-08-06 13:49:19,927772
0,0,-9,4,10,5,1,-1,2021-08-06 13:49:19,943772
2,0,3,3,11,7,2,1,2021-08-06 13:49:19,943772
-5,-7,-7,-22,-35,-22,-10,-6,2021-08-06 13:49:19,943772
0,-2,-4,14,20,7,4,0,2021-08-06 13:49:19,943772
-1,-1,4,1,4,3,2,1,2021-08-06 13:49:19,943772
3,5,4,12,8,6,2,1,2021-08-06 13:49:19,943772
1,2,1,6,11,8,2,1,2021-08-06 13:49:19,943772
-3,-2,1,-18,-27,-12,-5,-1,2021-08-06 13:49:19,944760
-3,-4,-4,-6,-9,-10,-5,-5,2021-08-06 13:49:19,944760
0,1,2,11,17,5,2,2,2021-08-06 13:49:19,944760
1,3,8,16,19,10,3,2,2021-08-06 13:49:19,944760
-2,-2,-3,-3,-5,-4,-3,-2,2021-08-06 13:49:19,944760
-3,-5,-7,-10,-18,-13,-6,-2,2021-08-06 13:49:19,944760
-7,-6,-8,-20,-16,-12,-6,-5,2021-08-06 13:49:19,944760
0,-2,-1,4,9,8,2,0,2021-08-06 13:49:19,944760
4,6,9,22,31,17,7,5,2021-08-06 13:49:19,944760
-3,-3,-4,-6,-16,-12,-7,-4,2021-08-06 13:49:19,944760
-5,-6,-11,-21,-24,-14,-7,-3,2021-08-06 13:49:19,944760
2,4,2,12,14,6,5,4,2021-08-06 13:49:19,959723
-2,-1,5,5,-6,-2,-4,-2,2021-08-06 13:49:19,959723
2,4,0,6,13,10,4,1,2021-08-06 13:49:19,959723
-4,-4,-11,-16,-9,-4,-2,-2,2021-08-06 13:49:19,959723
-4,-6,-10,-11,-11,-7,-6,-3,2021-08-06 13:49:19,959723
-4,-3,-2,-4,-8,-7,-4,-2,2021-08-06 13:49:19,974760
0,1,5,4,-3,0,0,-1,2021-08-06 13:49:19,990724
0,-2,2,6,2,0,0,0,2021-08-06 13:49:19,990724
-1,-2,-5,-6,-4,-3,-1,-1,2021-08-06 13:49:19,990724
-3,-4,-6,-17,-16,-10,-5,-3,2021-08-06 13:49:19,990724
2,2,5,15,17,10,4,3,2021-08-06 13:49:19,990724
1,5,7,13,17,11,5,1,2021-08-06 13:49:19,990724
-2,-2,-1,-1,-1,-1,-2,-2,2021-08-06 13:49:20,006778
-1,-4,-12,-18,-24,-14,-4,-3,2021-08-06 13:49:20,022759
-2,-2,-3,1,5,1,0,-3,2021-08-06 13:49:20,022759
1,-1,-1,4,5,1,1,0,2021-08-06 13:49:20,022759
-1,-1,3,-3,-3,-2,1,-1,2021-08-06 13:49:20,038737
0,2,-1,-5,-8,-4,-2,-2,2021-08-06 13:49:20,038737
0,1,0,-4,-5,-4,0,0,2021-08-06 13:49:20,038737
3,1,2,8,6,3,1,1,2021-08-06 13:49:20,038737
-1,-1,0,5,7,3,1,1,2021-08-06 13:49:20,053771
-3,-4,-3,-3,-2,0,-1,-1,2021-08-06 13:49:20,053771
-5,-4,-2,-7,-11,-8,-4,-4,2021-08-06 13:49:20,053771
-1,-1,-2,1,9,4,-1,-1,2021-08-06 13:49:20,053771
-1,-2,-6,-10,-16,-10,-5,-3,2021-08-06 13:49:20,053771
6,4,8,25,41,23,12,5,2021-08-06 13:49:20,053771
-2,-1,-3,-1,-1,-1,-1,0,2021-08-06 13:49:20,069776
-4,-3,-7,-19,-24,-13,-7,-3,2021-08-06 13:49:20,079759
0,-1,-1,-1,1,-1,-2,0,2021-08-06 13:49:20,079759
-1,1,4,0,-8,-4,-3,-2,2021-08-06 13:49:20,079759
4,2,8,12,11,9,4,3,2021-08-06 13:49:20,079759
-2,-4,-10,-5,2,0,-1,-2,2021-08-06 13:49:20,080759
-4,-6,-2,-15,-16,-10,-6,-4,2021-08-06 13:49:20,116759
-2,-4,-7,-12,-16,-10,-4,-4,2021-08-06 13:49:20,132760
0,-1,-4,-2,1,1,-1,-1,2021-08-06 13:49:20,132760
-2,1,7,10,2,3,0,-1,2021-08-06 13:49:20,132760
2,4,7,13,18,11,3,1,2021-08-06 13:49:20,132760
-4,-1,0,0,1,1,-1,0,2021-08-06 13:49:20,132760
-2,-4,-4,-8,-11,-7,-3,-3,2021-08-06 13:49:20,132760
1,1,0,4,5,3,3,0,2021-08-06 13:49:20,132760
1,-4,-5,6,9,4,2,-2,2021-08-06 13:49:20,148760
-1,1,-1,-3,-6,-3,-2,0,2021-08-06 13:49:20,148760
1,0,-3,-12,-10,-3,-1,0,2021-08-06 13:49:20,148760
-1,0,1,2,8,2,-1,-1,2021-08-06 13:49:20,148760
-5,-5,-4,-4,-12,-10,-5,-5,2021-08-06 13:49:20,164763
4,4,2,2,7,6,3,2,2021-08-06 13:49:20,180773
0,0,1,1,-2,-2,-1,-1,2021-08-06 13:49:20,196740
2,0,4,5,-1,0,0,0,2021-08-06 13:49:20,211727
2,5,8,4,10,7,5,3,2021-08-06 13:49:20,211727
-6,-9,-16,-16,-19,-14,-6,-4,2021-08-06 13:49:20,211727
-5,-6,-8,-16,-22,-13,-6,-3,2021-08-06 13:49:20,211727
-1,-3,-3,4,9,6,0,-1,2021-08-06 13:49:20,211727
2,5,5,10,10,9,5,4,2021-08-06 13:49:20,211727
-2,0,6,6,5,3,-2,-2,2021-08-06 13:49:20,211727
3,5,10,15,19,11,6,3,2021-08-06 13:49:20,212726
-3,-3,-7,-17,-21,-13,-4,-5,2021-08-06 13:49:20,212726
-5,-8,-9,-13,-12,-8,-6,-4,2021-08-06 13:49:20,226762
3,2,2,7,8,5,2,1,2021-08-06 13:49:20,242777
-2,-1,-2,1,-1,-1,0,0,2021-08-06 13:49:20,242777
1,1,4,8,4,2,1,0,2021-08-06 13:49:20,258722
-2,-2,-2,-1,-5,-2,-1,-3,2021-08-06 13:49:20,258722
-2,-1,-2,-4,-7,-5,-2,1,2021-08-06 13:49:20,258722
-3,-4,-7,-11,-4,-5,-4,-2,2021-08-06 13:49:20,258722
0,0,0,-9,-9,-6,-2,-1,2021-08-06 13:49:20,258722
1,4,0,2,4,4,5,2,2021-08-06 13:49:20,258722
0,-1,1,6,10,4,-1,-2,2021-08-06 13:49:20,258722
1,1,2,11,16,9,2,1,2021-08-06 13:49:20,258722
-1,-1,-1,0,-4,-1,0,-2,2021-08-06 13:49:20,258722
-1,0,-3,-5,-10,-7,-2,-1,2021-08-06 13:49:20,290725
-4,-4,2,-6,-10,-7,-3,-3,2021-08-06 13:49:20,306772
-2,-4,-9,-11,-8,-4,-2,-3,2021-08-06 13:49:20,306772
-2,-1,1,-1,-7,-5,-2,-2,2021-08-06 13:49:20,306772
2,1,4,8,11,6,1,1,2021-08-06 13:49:20,306772
0,1,3,-4,-4,-2,1,0,2021-08-06 13:49:20,306772
-2,-2,1,0,1,1,1,-1,2021-08-06 13:49:20,306772
-3,-4,-8,-3,-6,-3,-4,-1,2021-08-06 13:49:20,306772
-1,-1,0,0,-1,0,-1,-1,2021-08-06 13:49:20,321751
1,2,1,8,11,7,0,0,2021-08-06 13:49:20,321751
3,3,4,5,6,3,2,0,2021-08-06 13:49:20,321751
-1,0,1,-5,-7,-7,-3,-1,2021-08-06 13:49:20,321751
-5,-5,-5,-7,-8,-8,-4,-5,2021-08-06 13:49:20,352773
-4,-2,-7,-13,-16,-10,-5,-4,2021-08-06 13:49:20,368776
2,4,5,14,15,10,6,1,2021-08-06 13:49:20,384761
3,5,3,6,10,8,4,3,2021-08-06 13:49:20,384761
-2,-1,-1,0,0,0,-2,-1,2021-08-06 13:49:20,384761
-1,-2,-2,-2,-3,0,-2,-2,2021-08-06 13:49:20,384761
-3,-2,-3,-9,-12,-6,-3,-3,2021-08-06 13:49:20,384761
0,-2,-1,0,0,0,-1,0,2021-08-06 13:49:20,384761
3,2,1,5,7,4,2,1,2021-08-06 13:49:20,384761
-1,-2,-1,1,0,-1,1,-1,2021-08-06 13:49:20,385759
0,-1,1,-5,-11,-9,-6,0,2021-08-06 13:49:20,385759
-2,-2,-6,-10,-16,-7,-3,-2,2021-08-06 13:49:20,385759
1,3,4,13,28,13,2,2,2021-08-06 13:49:20,416738
-3,-3,-4,-2,0,-2,-2,-1,2021-08-06 13:49:20,416738
-2,-4,-3,-2,-2,-2,-2,-1,2021-08-06 13:49:20,416738
-2,0,-3,-5,-9,-8,-3,-1,2021-08-06 13:49:20,416738
0,-2,-3,-5,-13,-7,-2,-1,2021-08-06 13:49:20,416738
-1,-1,-3,-2,-1,-2,0,-1,2021-08-06 13:49:20,416738
-3,-3,-3,0,3,0,-1,-4,2021-08-06 13:49:20,432760
0,0,2,7,13,9,2,0,2021-08-06 13:49:20,432760
1,3,3,0,-1,1,0,0,2021-08-06 13:49:20,438778
0,0,0,-3,-1,-1,1,0,2021-08-06 13:49:20,438778
-4,-9,-7,-12,-16,-11,-6,-5,2021-08-06 13:49:20,438778
0,-2,0,-1,2,0,-1,-1,2021-08-06 13:49:20,438778
1,2,2,1,7,5,2,0,2021-08-06 13:49:20,464767
1,1,1,0,-3,-4,-2,0,2021-08-06 13:49:20,480774
-5,-2,-5,-4,-2,-2,-1,-2,2021-08-06 13:49:20,512722
-1,1,1,5,7,2,2,0,2021-08-06 13:49:20,512722
0,-1,0,-3,-5,-2,-3,-3,2021-08-06 13:49:20,512722
-1,-2,0,3,4,3,1,1,2021-08-06 13:49:20,512722
3,3,5,1,0,0,1,2,2021-08-06 13:49:20,512722
-3,-3,-5,-5,-6,-5,-5,-1,2021-08-06 13:49:20,512722
-2,-2,-3,-4,-6,-3,-2,-1,2021-08-06 13:49:20,512722
-1,-2,-1,-2,-2,-1,-2,-1,2021-08-06 13:49:20,512722
0,-1,-2,0,1,-2,-1,0,2021-08-06 13:49:20,512722
0,-1,-1,0,-1,-1,-2,-3,2021-08-06 13:49:20,513759
1,0,0,2,2,0,1,1,2021-08-06 13:49:20,528759
0,-1,-1,-1,-2,0,0,-1,2021-08-06 13:49:20,544725
-2,-4,-3,-2,-2,-1,-1,-3,2021-08-06 13:49:20,576773
-2,0,1,0,0,-1,0,0,2021-08-06 13:49:20,576773
-3,-3,-4,-7,-8,-6,-3,-1,2021-08-06 13:49:20,576773
3,1,2,3,5,4,3,1,2021-08-06 13:49:20,576773
2,2,-1,0,0,3,0,2,2021-08-06 13:49:20,576773
0,0,4,4,4,4,-1,-2,2021-08-06 13:49:20,576773
-3,-3,-5,-2,-4,-3,-2,-3,2021-08-06 13:49:20,576773
1,2,1,-3,-8,-5,-1,1,2021-08-06 13:49:20,576773
-1,-1,-2,-1,-1,-2,-2,-3,2021-08-06 13:49:20,577759
0,-1,-1,-1,4,1,1,0,2021-08-06 13:49:20,577759
-2,-3,0,-2,-1,-2,-1,0,2021-08-06 13:49:20,592772
-2,-1,-1,-1,-2,-2,-2,-3,2021-08-06 13:49:20,592772
1,2,0,2,3,1,-1,0,2021-08-06 13:49:20,608762
0,-1,0,-1,-1,0,-1,0,2021-08-06 13:49:20,624723
-1,-2,-1,1,-1,-1,0,1,2021-08-06 13:49:20,640760
0,0,-2,-1,-1,-2,-1,-2,2021-08-06 13:49:20,640760
-2,-2,0,0,1,0,-3,-1,2021-08-06 13:49:20,640760
-3,-3,-1,0,-3,-2,0,-1,2021-08-06 13:49:20,640760
1,1,2,-1,0,0,-1,0,2021-08-06 13:49:20,640760
-1,-1,-1,0,2,2,1,0,2021-08-06 13:49:20,640760
0,3,0,1,0,1,2,1,2021-08-06 13:49:20,640760
-1,-3,0,0,0,-1,-2,-1,2021-08-06 13:49:20,640760
-2,-2,-3,0,0,-1,0,-1,2021-08-06 13:49:20,656773
-4,-3,-4,-6,-6,-5,-4,-4,2021-08-06 13:49:20,656773
1,3,3,2,2,0,0,0,2021-08-06 13:49:20,656773
1,4,2,2,0,1,2,2,2021-08-06 13:49:20,656773
-1,-2,-2,2,3,2,1,-1,2021-08-06 13:49:20,656773
0,1,1,0,1,0,-2,1,2021-08-06 13:49:20,656773
-3,-3,-1,-3,-3,-4,-3,-2,2021-08-06 13:49:20,688760
0,0,0,-4,-4,-2,0,0,2021-08-06 13:49:20,688760
1,2,2,4,2,2,2,-1,2021-08-06 13:49:20,688760
-3,-4,-2,-2,-3,-3,-3,-2,2021-08-06 13:49:20,688760
-1,-3,-3,-4,-6,-3,-1,0,2021-08-06 13:49:20,688760
2,3,1,3,8,7,2,2,2021-08-06 13:49:20,688760
-1,-2,-3,-3,-5,-4,-3,-2,2021-08-06 13:49:20,720759
-2,-3,-1,-1,1,-1,-2,-1,2021-08-06 13:49:20,720759
-2,-3,-1,0,-3,-2,-1,-1,2021-08-06 13:49:20,720759
-3,-3,-2,-3,-3,-3,-2,-3,2021-08-06 13:49:20,720759
-2,0,-2,0,1,0,0,0,2021-08-06 13:49:20,736725
1,1,1,-1,-1,-1,1,0,2021-08-06 13:49:20,752777
-3,-2,-4,-3,-6,-3,-4,-2,2021-08-06 13:49:20,768724
-2,-2,-2,-2,0,-2,0,-1,2021-08-06 13:49:20,768724
-1,1,1,0,1,0,0,0,2021-08-06 13:49:20,768724
-2,-2,-2,-1,-4,0,0,1,2021-08-06 13:49:20,768724
1,1,2,3,5,2,1,2,2021-08-06 13:49:20,768724
1,2,0,2,2,1,-1,0,2021-08-06 13:49:20,768724
-1,-1,-2,0,-2,-2,-2,0,2021-08-06 13:49:20,768724
-2,-2,-1,-2,-1,0,0,-3,2021-08-06 13:49:20,769772
1,-2,-1,-1,0,1,0,-2,2021-08-06 13:49:20,769772
-3,-3,-4,-2,-4,-4,-3,-2,2021-08-06 13:49:20,769772
0,0,0,-2,-2,0,0,-2,2021-08-06 13:49:20,800725
0,3,0,-1,-1,-1,-2,0,2021-08-06 13:49:20,800725
0,0,0,0,2,2,1,-2,2021-08-06 13:49:20,800725
-3,-1,-1,0,-2,0,-1,-1,2021-08-06 13:49:20,801762
-5,-7,-5,-3,-5,-4,-4,-5,2021-08-06 13:49:20,801762
3,1,2,2,2,4,-1,1,2021-08-06 13:49:20,801762
1,1,0,1,1,-1,0,0,2021-08-06 13:49:20,801762
0,-3,0,-1,-1,0,0,1,2021-08-06 13:49:20,801762
-1,0,0,-1,-1,0,-1,1,2021-08-06 13:49:20,863774
-3,-3,-4,-2,-3,-4,-2,-2,2021-08-06 13:49:20,879765
-2,-3,-3,-4,-6,-3,-3,-1,2021-08-06 13:49:20,911725
3,3,2,6,8,6,4,2,2021-08-06 13:49:20,911725
2,0,-2,0,1,1,2,0,2021-08-06 13:49:20,911725
-1,-2,-1,2,1,-1,0,-2,2021-08-06 13:49:20,911725
-3,-3,-4,-3,-2,-1,-2,-1,2021-08-06 13:49:20,911725
-1,0,-4,-3,-5,-4,-1,0,2021-08-06 13:49:20,912722
0,1,1,2,-1,0,1,0,2021-08-06 13:49:20,912722
1,1,-1,-2,-2,-2,0,0,2021-08-06 13:49:20,912722
1,3,3,1,2,0,2,-1,2021-08-06 13:49:20,912722
-4,-7,-7,-7,-6,-4,-4,-6,2021-08-06 13:49:20,912722
2,4,4,0,0,0,0,1,2021-08-06 13:49:20,912722
-2,-3,-2,-2,0,1,-1,-2,2021-08-06 13:49:20,912722
0,1,0,1,1,0,-2,-2,2021-08-06 13:49:20,912722
-1,-2,-2,-2,-1,-1,-4,-2,2021-08-06 13:49:20,913762
0,0,0,0,-1,0,-1,1,2021-08-06 13:49:20,926772
-1,-1,-3,-3,0,0,0,-1,2021-08-06 13:49:20,941774
-1,-3,-3,-1,-3,-2,-1,0,2021-08-06 13:49:20,957760
-2,-1,-1,1,-1,-2,-1,0,2021-08-06 13:49:20,957760
-3,-4,-4,-2,-1,-1,-3,-3,2021-08-06 13:49:20,957760
1,1,2,0,-1,-1,-1,-1,2021-08-06 13:49:20,957760
0,1,1,1,3,2,2,1,2021-08-06 13:49:20,957760
1,1,0,-2,-1,-3,0,0,2021-08-06 13:49:20,957760
0,-2,-2,-1,-2,-1,-1,-2,2021-08-06 13:49:20,958772
-1,-1,-3,1,-1,1,-2,-1,2021-08-06 13:49:20,958772
-3,-1,-3,-2,-2,-3,-3,-1,2021-08-06 13:49:20,958772
-2,-1,0,1,0,2,-2,0,2021-08-06 13:49:20,958772
0,-1,0,-3,-3,-3,-1,-1,2021-08-06 13:49:20,973760
1,-1,-1,1,1,1,1,1,2021-08-06 13:49:20,973760
1,1,-1,-1,-3,-2,1,0,2021-08-06 13:49:20,988759
-2,-2,-3,-1,-5,-1,1,0,2021-08-06 13:49:20,988759
4,6,5,3,5,3,2,3,2021-08-06 13:49:20,988759
-2,-1,-3,-1,-1,-2,-1,-2,2021-08-06 13:49:20,988759
1,-1,-1,-1,0,0,0,-1,2021-08-06 13:49:20,988759
-2,-2,-2,-4,-5,-3,-2,-4,2021-08-06 13:49:20,988759
1,-1,-2,0,3,1,1,1,2021-08-06 13:49:21,019772
-1,-2,-1,0,5,1,0,-1,2021-08-06 13:49:21,019772
-2,-1,0,1,0,2,1,0,2021-08-06 13:49:21,019772
-2,-1,0,1,1,0,-2,-2,2021-08-06 13:49:21,019772
-5,-4,-3,-3,-7,-5,-6,-5,2021-08-06 13:49:21,035738
-1,0,2,0,-1,-3,-1,-2,2021-08-06 13:49:21,035738
-2,-1,-3,-2,-5,-4,-3,-2,2021-08-06 13:49:21,035738
1,0,1,-2,0,-1,1,-1,2021-08-06 13:49:21,035738
-1,-1,-1,-1,1,-1,-1,-1,2021-08-06 13:49:21,051759
1,0,0,0,-3,-2,0,0,2021-08-06 13:49:21,051759
-1,-3,-3,-3,-2,0,0,0,2021-08-06 13:49:21,051759
-1,0,0,1,0,0,1,-1,2021-08-06 13:49:21,051759
-2,-2,-3,-3,-4,-1,1,-3,2021-08-06 13:49:21,067724
-4,-4,-4,-3,-2,-2,-2,-1,2021-08-06 13:49:21,067724
4,5,5,5,6,3,2,0,2021-08-06 13:49:21,067724
1,1,0,2,3,2,-1,0,2021-08-06 13:49:21,067724
-3,-4,-2,-3,-1,-1,-4,-3,2021-08-06 13:49:21,099724
-1,-3,-4,-2,-3,-3,-2,-1,2021-08-06 13:49:21,099724
-3,-2,-3,-3,-2,-2,-2,-1,2021-08-06 13:49:21,099724
1,0,-1,-1,-1,-2,1,1,2021-08-06 13:49:21,099724
0,-2,-1,0,-2,-3,-1,0,2021-08-06 13:49:21,099724
-2,-2,-4,-5,-5,-1,-2,-2,2021-08-06 13:49:21,099724
-4,-5,-3,-4,-3,-2,-2,-3,2021-08-06 13:49:21,115761
0,0,0,2,6,3,0,2,2021-08-06 13:49:21,131773
0,2,2,0,0,2,1,1,2021-08-06 13:49:21,131773
1,-2,-1,-1,-1,1,-1,0,2021-08-06 13:49:21,131773
0,1,2,2,1,1,0,0,2021-08-06 13:49:21,131773
-3,-5,-4,-4,-5,-6,-3,-2,2021-08-06 13:49:21,131773
-1,-1,0,3,0,-1,1,1,2021-08-06 13:49:21,147725
0,1,2,-1,-2,-2,-1,-1,2021-08-06 13:49:21,147725
-1,-2,-1,-2,-4,-4,-2,-2,2021-08-06 13:49:21,147725
-1,0,-1,-2,-4,-3,-1,0,2021-08-06 13:49:21,147725
-1,-1,-2,-1,3,0,0,0,2021-08-06 13:49:21,158723
-3,-1,-3,-2,-2,-1,0,-1,2021-08-06 13:49:21,158723
1,-1,-2,-2,-1,0,0,-2,2021-08-06 13:49:21,178762
0,2,2,1,1,0,0,-1,2021-08-06 13:49:21,194772
-3,-2,-3,-3,-4,-1,-2,-1,2021-08-06 13:49:21,194772
-3,-3,-2,-1,-4,-3,-4,-4,2021-08-06 13:49:21,194772
2,4,4,4,3,1,1,3,2021-08-06 13:49:21,194772
-1,0,0,0,2,1,0,-1,2021-08-06 13:49:21,194772
-1,-1,-2,-2,-6,-3,-1,-2,2021-08-06 13:49:21,209759
0,-2,-3,-3,-5,-1,-1,1,2021-08-06 13:49:21,209759
-2,-3,-3,1,4,1,-1,-1,2021-08-06 13:49:21,209759
0,-1,0,1,0,0,0,1,2021-08-06 13:49:21,209759
-1,-2,-3,-1,-1,-1,-1,-1,2021-08-06 13:49:21,224759
-2,0,1,2,0,0,0,1,2021-08-06 13:49:21,240725
-4,-4,-4,-5,-5,-5,-1,-2,2021-08-06 13:49:21,240725
3,3,2,2,0,2,3,2,2021-08-06 13:49:21,240725
1,1,2,4,10,5,2,-1,2021-08-06 13:49:21,240725
1,1,0,2,3,1,-1,0,2021-08-06 13:49:21,240725
0,-1,0,-3,-3,-1,-1,-1,2021-08-06 13:49:21,256772
-3,-4,-4,-2,-5,-4,-5,-3,2021-08-06 13:49:21,272762
-2,-4,-3,-5,-5,-2,0,0,2021-08-06 13:49:21,272762
3,2,2,2,1,2,1,1,2021-08-06 13:49:21,272762
-2,-3,-4,-2,0,-2,-3,-3,2021-08-06 13:49:21,272762
-5,-3,-4,-5,-5,-4,-3,-4,2021-08-06 13:49:21,272762
1,2,2,2,4,2,1,0,2021-08-06 13:49:21,288725
-2,-1,0,0,-1,-2,-1,-1,2021-08-06 13:49:21,288725
-1,-1,-2,1,-1,0,1,-1,2021-08-06 13:49:21,288725
-2,-2,-2,-5,-4,-1,-1,-2,2021-08-06 13:49:21,288725
0,-2,0,-1,-3,-4,-2,-1,2021-08-06 13:49:21,304772
-5,-6,-6,-4,-4,-1,-2,-3,2021-08-06 13:49:21,320762
4,6,8,7,4,5,3,4,2021-08-06 13:49:21,320762
-1,-1,0,0,0,2,0,0,2021-08-06 13:49:21,320762
-2,0,-1,-2,-3,-3,-1,0,2021-08-06 13:49:21,336725
-3,-2,-4,-3,-4,-3,-3,-6,2021-08-06 13:49:21,336725
1,-1,1,3,6,1,-1,1,2021-08-06 13:49:21,336725
1,-1,-1,-3,-2,-2,1,0,2021-08-06 13:49:21,336725
1,1,0,-1,-5,-1,1,0,2021-08-06 13:49:21,336725
-1,-1,0,0,4,-1,0,-1,2021-08-06 13:49:21,336725
0,-1,-1,2,3,2,0,0,2021-08-06 13:49:21,351773
0,2,-2,2,0,-1,-1,1,2021-08-06 13:49:21,351773
0,-1,-1,0,-2,-3,-2,-1,2021-08-06 13:49:21,367725
1,1,2,2,5,2,2,3,2021-08-06 13:49:21,383725
-3,-2,-3,-4,-6,-4,-3,-3,2021-08-06 13:49:21,415767
-3,-2,-2,-3,-5,-2,-2,-2,2021-08-06 13:49:21,415767
0,-1,-1,6,10,5,0,-3,2021-08-06 13:49:21,415767
-1,1,1,-3,-3,-2,-1,-1,2021-08-06 13:49:21,415767
-1,-2,-2,-1,-3,-2,-1,-2,2021-08-06 13:49:21,415767
0,2,-2,2,1,2,-1,1,2021-08-06 13:49:21,415767
-2,-1,-2,-5,-6,-3,-4,-2,2021-08-06 13:49:21,415767
2,-1,-1,-2,-1,-1,0,1,2021-08-06 13:49:21,415767
-3,-4,-4,-4,-4,-3,-2,-2,2021-08-06 13:49:21,415767
-1,0,1,-1,1,-1,0,-2,2021-08-06 13:49:21,416723
-1,-2,-1,-2,-1,-1,0,-1,2021-08-06 13:49:21,431772
0,-1,-1,-2,-2,-2,-2,-1,2021-08-06 13:49:21,447724
0,-2,0,3,1,3,2,1,2021-08-06 13:49:21,463760
1,2,1,1,3,2,0,-1,2021-08-06 13:49:21,463760
-1,-3,-3,-1,-1,-2,-1,-1,2021-08-06 13:49:21,463760
-4,-5,-3,-4,-5,-4,-3,-4,2021-08-06 13:49:21,463760
-1,-1,-3,-7,-10,-7,-3,-2,2021-08-06 13:49:21,463760
4,4,1,5,13,8,5,4,2021-08-06 13:49:21,463760
0,-1,-1,2,2,1,0,-2,2021-08-06 13:49:21,463760
-1,0,1,2,-2,-1,-1,-1,2021-08-06 13:49:21,463760
1,3,2,0,2,0,1,-2,2021-08-06 13:49:21,479750
-2,-4,-5,-3,-6,-4,-4,-3,2021-08-06 13:49:21,479750
-3,-3,-2,-5,-5,-2,-1,0,2021-08-06 13:49:21,479750
0,-3,-2,-2,-1,-2,-3,-2,2021-08-06 13:49:21,479750
0,-1,-1,-3,-1,-1,1,1,2021-08-06 13:49:21,495724
-3,-2,-3,-5,-5,-4,-4,-2,2021-08-06 13:49:21,495724
1,2,2,5,6,3,3,2,2021-08-06 13:49:21,510761
-1,0,-1,1,-3,0,-2,-1,2021-08-06 13:49:21,510761
-2,0,-1,-3,-2,-2,-4,-2,2021-08-06 13:49:21,510761
-1,-1,-3,-2,1,-1,0,-2,2021-08-06 13:49:21,510761
-2,-1,0,1,-2,-2,-3,-1,2021-08-06 13:49:21,519777
0,-1,0,-2,-3,0,-1,0,2021-08-06 13:49:21,519777
-3,-4,-3,0,7,2,0,-2,2021-08-06 13:49:21,542774
-4,-4,-3,-4,-6,-4,-4,-3,2021-08-06 13:49:21,542774
0,2,1,-1,-3,-1,1,0,2021-08-06 13:49:21,542774
1,0,0,-2,-2,-2,2,1,2021-08-06 13:49:21,542774
2,2,3,2,5,5,3,2,2021-08-06 13:49:21,542774
-3,-5,-3,1,-1,-1,-1,-1,2021-08-06 13:49:21,542774
1,3,4,0,1,0,0,1,2021-08-06 13:49:21,574760
1,1,1,3,3,1,0,1,2021-08-06 13:49:21,574760
-3,-3,-5,-4,-5,-3,-1,0,2021-08-06 13:49:21,590727
-2,-1,-1,1,3,1,1,-1,2021-08-06 13:49:21,590727
0,-5,-5,-7,-8,-6,-4,-2,2021-08-06 13:49:21,590727
2,3,2,6,7,4,0,-1,2021-08-06 13:49:21,590727
0,0,0,-1,-3,-4,-3,-2,2021-08-06 13:49:21,590727
0,2,5,6,5,3,0,0,2021-08-06 13:49:21,590727
-2,-2,2,-2,1,1,-1,-1,2021-08-06 13:49:21,606774
-1,-3,-11,-8,-3,-4,-2,-1,2021-08-06 13:49:21,606774
2,0,-5,-2,1,2,4,3,2021-08-06 13:49:21,606774
-4,-7,-5,-19,-24,-17,-9,-6,2021-08-06 13:49:21,606774
-4,-2,4,4,-7,-7,-5,-5,2021-08-06 13:49:21,638761
3,1,3,7,10,5,3,1,2021-08-06 13:49:21,638761
1,1,-6,-8,-1,1,-1,0,2021-08-06 13:49:21,638761
4,3,1,-2,8,9,4,2,2021-08-06 13:49:21,638761
-1,-4,-3,-2,4,3,-1,-1,2021-08-06 13:49:21,638761
-6,-7,-3,-4,-9,-8,-6,-5,2021-08-06 13:49:21,638761
-1,1,2,10,5,2,1,1,2021-08-06 13:49:21,654774
0,0,2,4,-3,-3,0,-1,2021-08-06 13:49:21,654774
-1,0,-4,-2,-5,-4,-2,-1,2021-08-06 13:49:21,670760
0,1,2,0,-2,0,0,-2,2021-08-06 13:49:21,686725
1,0,-1,2,1,1,-1,-1,2021-08-06 13:49:21,686725
-1,-1,0,4,9,3,0,1,2021-08-06 13:49:21,686725
0,1,-1,-1,-1,1,1,2,2021-08-06 13:49:21,686725
1,1,-1,-5,-4,-1,0,1,2021-08-06 13:49:21,686725
-7,-6,-1,-9,-16,-8,-7,-5,2021-08-06 13:49:21,686725
2,4,4,4,6,3,1,1,2021-08-06 13:49:21,686725
-5,-7,-15,-5,2,-3,-2,-4,2021-08-06 13:49:21,718774
2,4,5,1,3,4,3,2,2021-08-06 13:49:21,718774
0,3,6,6,9,5,2,1,2021-08-06 13:49:21,718774
0,-1,0,1,-5,-5,-2,-1,2021-08-06 13:49:21,718774
-1,-2,-3,-9,-11,-7,-2,1,2021-08-06 13:49:21,734733
-2,-4,-5,-3,-5,-1,-2,0,2021-08-06 13:49:21,750773
-3,-4,0,0,0,-3,-2,-3,2021-08-06 13:49:21,766724
1,0,-1,0,-1,3,-1,0,2021-08-06 13:49:21,766724
0,-1,1,1,2,1,0,-2,2021-08-06 13:49:21,766724
-2,0,3,6,2,-2,-1,-1,2021-08-06 13:49:21,766724
-1,-3,-4,-2,-3,-2,-1,-2,2021-08-06 13:49:21,766724
3,3,2,0,7,5,2,1,2021-08-06 13:49:21,766724
-2,0,2,1,-2,-2,-2,-2,2021-08-06 13:49:21,767723
-3,-2,1,-9,-7,-4,-2,-1,2021-08-06 13:49:21,767723
1,-1,-7,4,1,0,1,-1,2021-08-06 13:49:21,767723
-5,-7,-5,0,-4,-5,-4,-3,2021-08-06 13:49:21,767723
-1,1,0,-4,1,1,1,0,2021-08-06 13:49:21,797725
8,10,11,11,10,8,6,3,2021-08-06 13:49:21,812772
-3,-6,0,-6,-9,-7,-3,-3,2021-08-06 13:49:21,828760
1,2,-3,-3,-4,-1,1,-1,2021-08-06 13:49:21,828760
0,-1,-4,1,0,1,-2,-1,2021-08-06 13:49:21,828760
-4,-6,-4,0,1,-2,-1,-2,2021-08-06 13:49:21,828760
-3,-3,-3,-7,-6,-2,-3,-2,2021-08-06 13:49:21,828760
3,3,4,5,4,5,4,4,2021-08-06 13:49:21,828760
-3,-1,3,3,5,1,1,-2,2021-08-06 13:49:21,828760
-3,-3,-6,-5,-4,-2,-4,-6,2021-08-06 13:49:21,828760
-1,0,3,8,5,2,-3,-1,2021-08-06 13:49:21,844772
-1,-1,1,3,-4,-4,-3,0,2021-08-06 13:49:21,844772
2,2,-5,-11,-2,-1,-1,-1,2021-08-06 13:49:21,860760
-3,-4,-5,-15,-7,-4,-2,-3,2021-08-06 13:49:21,876760
1,1,1,0,0,0,1,0,2021-08-06 13:49:21,876760
-2,-3,-1,0,-3,-3,-1,-1,2021-08-06 13:49:21,876760
0,-1,1,5,3,2,2,2,2021-08-06 13:49:21,876760
0,3,1,9,4,2,1,2,2021-08-06 13:49:21,876760
-2,-1,-2,-5,-4,-2,-3,-2,2021-08-06 13:49:21,876760
-3,-3,-4,-2,-1,-1,-2,-1,2021-08-06 13:49:21,876760
-1,-4,-3,-2,-7,-4,-2,-1,2021-08-06 13:49:21,892776
0,-3,-2,0,3,3,1,1,2021-08-06 13:49:21,908759
1,2,3,0,-2,0,2,0,2021-08-06 13:49:21,924725
-6,-7,-8,-7,-4,-4,-4,-6,2021-08-06 13:49:21,924725
5,6,8,7,10,8,5,5,2021-08-06 13:49:21,924725
-1,1,0,0,-4,0,0,0,2021-08-06 13:49:21,924725
1,0,-2,-4,-5,-3,-1,-1,2021-08-06 13:49:21,939762
-1,-4,-4,-3,-1,-1,-2,-2,2021-08-06 13:49:21,955773
-1,-2,-2,-2,-1,0,-2,-2,2021-08-06 13:49:21,971731
2,1,-1,3,4,1,0,-1,2021-08-06 13:49:21,986725
0,-1,-2,-3,-4,-3,-2,0,2021-08-06 13:49:21,986725
-2,-3,-1,0,4,0,0,-1,2021-08-06 13:49:21,986725
-1,-1,-1,2,-3,-2,-1,-2,2021-08-06 13:49:21,986725
-2,-1,-1,6,2,1,0,-2,2021-08-06 13:49:21,986725
-2,-3,0,-9,-3,-2,-2,-2,2021-08-06 13:49:21,986725
-2,-3,-7,-13,-11,-6,-4,-1,2021-08-06 13:49:21,986725
-2,-1,-1,-5,-7,-6,-3,0,2021-08-06 13:49:21,986725
1,-1,2,6,16,7,2,2,2021-08-06 13:49:21,986725
2,2,4,10,11,6,3,-1,2021-08-06 13:49:21,986725
-1,-1,-1,-1,-3,-2,-2,-3,2021-08-06 13:49:21,986725
1,1,4,1,3,2,2,-1,2021-08-06 13:49:21,987780
-3,-3,-3,-5,-15,-8,-5,-3,2021-08-06 13:49:21,987780
-2,-2,-2,-1,-2,-1,-2,0,2021-08-06 13:49:21,987780
4,5,4,5,4,2,3,1,2021-08-06 13:49:21,987780
-4,-6,-5,-3,-4,-3,-4,-4,2021-08-06 13:49:22,033765
-3,-4,-6,-6,-6,-4,-1,-1,2021-08-06 13:49:22,033765
3,3,2,1,1,0,3,1,2021-08-06 13:49:22,033765
-1,-1,-1,-3,-4,-3,-1,-2,2021-08-06 13:49:22,033765
-2,-3,-1,1,0,-2,-4,-3,2021-08-06 13:49:22,033765
-1,-5,-2,-4,-4,-2,-1,-2,2021-08-06 13:49:22,033765
-4,-5,-6,-3,-3,-3,-4,-2,2021-08-06 13:49:22,049724
3,2,3,5,10,5,4,2,2021-08-06 13:49:22,065762
-1,0,0,-2,0,1,-2,-2,2021-08-06 13:49:22,065762
0,3,1,-1,-2,0,0,0,2021-08-06 13:49:22,065762
-3,-3,-3,-2,-6,-4,-3,-2,2021-08-06 13:49:22,065762
-4,-4,-3,-4,-8,-3,-2,-3,2021-08-06 13:49:22,065762
-1,-3,-2,2,7,3,1,1,2021-08-06 13:49:22,081769
0,0,1,0,-1,0,1,0,2021-08-06 13:49:22,081769
-3,-2,-1,0,-1,-2,-1,-2,2021-08-06 13:49:22,081769
-3,-2,-1,-2,-3,0,-1,0,2021-08-06 13:49:22,081769
1,0,1,0,2,0,1,0,2021-08-06 13:49:22,081769
-2,-3,-2,-3,-6,-3,-2,-2,2021-08-06 13:49:22,081769
0,0,0,3,3,1,-2,-2,2021-08-06 13:49:22,097722
0,1,1,0,-3,-2,-1,0,2021-08-06 13:49:22,097722
0,1,0,0,-3,0,1,0,2021-08-06 13:49:22,113759
-2,-2,-3,-4,-3,-4,-3,-3,2021-08-06 13:49:22,129773
1,-1,0,2,8,5,1,0,2021-08-06 13:49:22,129773
-1,-1,0,-3,-3,-1,0,0,2021-08-06 13:49:22,129773
-3,0,-1,0,0,-1,0,-1,2021-08-06 13:49:22,129773
2,2,2,2,1,1,1,0,2021-08-06 13:49:22,129773
1,-1,0,0,-3,-1,0,0,2021-08-06 13:49:22,129773
-2,-3,-4,-2,-1,-1,-4,-1,2021-08-06 13:49:22,130760
2,3,3,2,2,2,3,1,2021-08-06 13:49:22,145725
-4,-4,-4,-3,-4,-4,-3,-2,2021-08-06 13:49:22,145725
-2,-4,-5,-7,-7,-5,-2,-2,2021-08-06 13:49:22,145725
3,2,3,4,4,2,2,0,2021-08-06 13:49:22,145725
-3,-3,-1,-4,-6,-4,-3,-2,2021-08-06 13:49:22,176774
-1,-1,-1,-1,2,0,-1,-1,2021-08-06 13:49:22,192772
-2,-1,-4,-2,-5,-5,-1,-2,2021-08-06 13:49:22,208725
1,1,6,7,9,6,2,1,2021-08-06 13:49:22,208725
-2,-2,-1,-3,-5,-3,-3,-1,2021-08-06 13:49:22,208725
-2,-1,-1,0,0,-2,-1,-2,2021-08-06 13:49:22,208725
-2,-2,1,1,4,3,0,-1,2021-08-06 13:49:22,208725
-1,-1,-4,0,0,0,1,0,2021-08-06 13:49:22,208725
2,2,6,1,-1,-1,0,-2,2021-08-06 13:49:22,208725
-1,-2,-8,-6,-11,-5,-4,-2,2021-08-06 13:49:22,208725
-3,-1,-6,-4,-1,-1,-1,-2,2021-08-06 13:49:22,224759
-1,-2,-1,-4,-3,-3,-2,-2,2021-08-06 13:49:22,240760
2,1,1,7,15,8,3,1,2021-08-06 13:49:22,243772
0,0,3,1,1,0,0,0,2021-08-06 13:49:22,243772
-3,-3,-4,-5,-6,-4,-1,-2,2021-08-06 13:49:22,244723
3,3,2,2,0,0,-1,1,2021-08-06 13:49:22,244723
-1,-2,-3,-7,-6,-5,-2,-2,2021-08-06 13:49:22,244723
-3,-3,-3,-3,1,-2,0,0,2021-08-06 13:49:22,244723
-1,-2,-2,-2,-3,-1,-1,0,2021-08-06 13:49:22,255763
-2,-2,0,-1,-4,-2,-2,-2,2021-08-06 13:49:22,255763
-1,-1,-3,-3,-6,-3,-1,0,2021-08-06 13:49:22,271755
3,6,6,7,10,7,4,3,2021-08-06 13:49:22,271755
1,2,1,1,1,1,0,1,2021-08-06 13:49:22,271755
-4,-4,-5,-2,-1,-2,-2,-4,2021-08-06 13:49:22,271755
0,1,-2,-4,-8,-4,-3,0,2021-08-06 13:49:22,302773
2,-1,-2,0,1,1,-1,-1,2021-08-06 13:49:22,302773
0,0,1,3,2,1,0,-1,2021-08-06 13:49:22,302773
1,1,-1,-4,-1,0,0,-1,2021-08-06 13:49:22,302773
-3,-4,-4,-5,-4,-3,-2,-1,2021-08-06 13:49:22,318759
-1,-1,0,0,1,0,0,0,2021-08-06 13:49:22,318759
1,-1,2,2,3,0,-2,0,2021-08-06 13:49:22,318759
-4,-5,-5,-6,-10,-7,-4,-3,2021-08-06 13:49:22,318759
0,-1,0,1,4,3,3,1,2021-08-06 13:49:22,318759
-3,1,-1,-2,-2,-1,-1,-2,2021-08-06 13:49:22,318759
1,0,0,-3,-6,-4,0,1,2021-08-06 13:49:22,334725
-2,-2,-3,-3,1,2,0,-1,2021-08-06 13:49:22,334725
-4,-6,-4,-2,1,-2,-3,-3,2021-08-06 13:49:22,350725
1,2,4,5,-1,2,1,-1,2021-08-06 13:49:22,366724
1,2,0,3,1,1,-1,-1,2021-08-06 13:49:22,382760
9,6,3,1,-1,4,8,6,2021-08-06 13:49:22,382760
0,-2,-2,-2,-4,-3,-1,1,2021-08-06 13:49:22,382760
-19,-18,-13,-9,-7,-15,-16,-14,2021-08-06 13:49:22,382760
-8,-8,-6,-6,-4,-6,-8,-6,2021-08-06 13:49:22,382760
0,4,2,1,1,0,-2,1,2021-08-06 13:49:22,382760
-1,-1,-4,-4,-5,-1,-2,-1,2021-08-06 13:49:22,383726
10,8,6,2,5,7,8,9,2021-08-06 13:49:22,383726
1,-1,-3,-4,-2,-1,-1,-2,2021-08-06 13:49:22,414723
-3,-3,-3,-2,-2,-2,-2,-2,2021-08-06 13:49:22,429759
3,6,6,9,8,5,4,3,2021-08-06 13:49:22,445725
-4,-4,-3,-4,-3,-1,-3,-2,2021-08-06 13:49:22,445725
-1,-1,-1,-3,-5,-4,-2,-2,2021-08-06 13:49:22,445725
-1,-1,-1,-3,-8,-3,0,0,2021-08-06 13:49:22,445725
-2,-3,-1,5,8,4,0,-2,2021-08-06 13:49:22,445725
2,1,-1,1,10,4,1,0,2021-08-06 13:49:22,445725
1,4,6,10,12,5,4,1,2021-08-06 13:49:22,445725
1,-1,2,-2,-10,-5,-2,-2,2021-08-06 13:49:22,445725
-1,-1,-1,1,1,-1,-2,-2,2021-08-06 13:49:22,445725
-4,-2,-4,-2,-8,-5,-2,-4,2021-08-06 13:49:22,445725
-1,-1,-2,-6,-8,-4,-3,0,2021-08-06 13:49:22,461723
0,1,-1,2,10,6,2,2,2021-08-06 13:49:22,461723
-2,-1,-1,-3,-5,-3,-3,-1,2021-08-06 13:49:22,476772
0,-1,0,0,-1,0,0,1,2021-08-06 13:49:22,492772
4,5,4,5,6,5,5,3,2021-08-06 13:49:22,508723
-4,-3,-3,-1,-3,-3,-3,-4,2021-08-06 13:49:22,508723
-2,-2,-4,-3,-5,-3,-2,-3,2021-08-06 13:49:22,508723
-3,-3,-5,-6,-6,-3,-2,-2,2021-08-06 13:49:22,508723
-4,-4,-3,-6,-6,-6,-3,-2,2021-08-06 13:49:22,508723
-1,2,2,4,4,2,-1,0,2021-08-06 13:49:22,508723
5,5,3,2,6,6,5,4,2021-08-06 13:49:22,508723
-1,-6,-6,-8,-11,-7,-2,-3,2021-08-06 13:49:22,509723
3,3,4,7,11,7,4,3,2021-08-06 13:49:22,509723
-3,-5,1,-4,-3,-5,-5,-3,2021-08-06 13:49:22,509723
-3,-2,-5,0,6,2,-1,-1,2021-08-06 13:49:22,556776
-1,-2,-4,1,-1,1,0,-1,2021-08-06 13:49:22,572762
2,1,-1,-6,-7,-2,-1,0,2021-08-06 13:49:22,572762
-4,-3,-4,-3,-2,-2,-1,-3,2021-08-06 13:49:22,572762
-3,0,2,-2,-10,-6,-2,-3,2021-08-06 13:49:22,572762
0,3,1,3,4,2,0,-1,2021-08-06 13:49:22,572762
-2,-3,-4,0,-1,0,0,-2,2021-08-06 13:49:22,572762
1,1,1,0,-1,0,0,0,2021-08-06 13:49:22,572762
-3,-4,-2,0,-1,-1,-2,-3,2021-08-06 13:49:22,572762
1,1,0,1,1,1,-1,0,2021-08-06 13:49:22,572762
-1,-2,0,0,-7,-4,-2,0,2021-08-06 13:49:22,573725
1,-2,-5,-4,-4,-3,-1,0,2021-08-06 13:49:22,573725
-3,-2,-2,-5,-2,-3,-2,-3,2021-08-06 13:49:22,588762
-1,-1,-2,-3,-1,-2,1,1,2021-08-06 13:49:22,588762
-2,-1,0,-1,1,1,0,1,2021-08-06 13:49:22,588762
2,2,2,4,2,2,1,0,2021-08-06 13:49:22,588762
-2,-5,-4,-5,-6,-2,-3,-4,2021-08-06 13:49:22,605725
3,3,4,3,7,4,0,1,2021-08-06 13:49:22,605725
-4,-3,-4,-4,-4,-4,-2,-3,2021-08-06 13:49:22,620761
-2,-1,0,3,2,1,2,0,2021-08-06 13:49:22,620761
-3,-3,-4,-1,-1,-2,-3,-2,2021-08-06 13:49:22,636721
-1,-3,-2,-5,-6,-3,-2,0,2021-08-06 13:49:22,636721
0,-1,-1,-1,0,-2,-1,-1,2021-08-06 13:49:22,636721
-1,-1,0,2,4,2,0,-1,2021-08-06 13:49:22,636721
1,1,2,-4,-4,-3,-1,0,2021-08-06 13:49:22,652761
1,2,0,2,2,1,1,1,2021-08-06 13:49:22,652761
-1,-1,-1,-1,-4,-4,-2,-2,2021-08-06 13:49:22,652761
-1,-1,-1,-3,3,2,0,1,2021-08-06 13:49:22,652761
0,1,2,1,2,1,0,0,2021-08-06 13:49:22,684725
-2,-2,0,-1,2,1,1,0,2021-08-06 13:49:22,700762
1,2,3,1,4,3,2,1,2021-08-06 13:49:22,716722
-1,-2,-4,-4,-9,-5,-5,-2,2021-08-06 13:49:22,716722
-3,-3,-3,1,-3,-2,-1,-3,2021-08-06 13:49:22,716722
-1,-2,0,2,3,1,-1,-2,2021-08-06 13:49:22,716722
-3,-3,-4,-4,-5,-4,-4,-5,2021-08-06 13:49:22,716722
-2,-3,0,3,7,0,0,-1,2021-08-06 13:49:22,716722
0,1,3,2,-1,-2,1,0,2021-08-06 13:49:22,716722
-2,-2,-1,-7,-12,-6,-3,-3,2021-08-06 13:49:22,716722
4,2,-3,2,6,5,4,2,2021-08-06 13:49:22,716722
0,-1,-3,0,-2,-3,-3,0,2021-08-06 13:49:22,717764
-2,-4,-4,0,1,1,-1,-1,2021-08-06 13:49:22,732770
-2,-3,0,-2,-5,-4,-2,-2,2021-08-06 13:49:22,748725
-4,-4,0,-2,-2,-3,-1,-3,2021-08-06 13:49:22,763765
2,2,3,4,1,1,1,-1,2021-08-06 13:49:22,763765
-3,-1,-4,-6,-5,-3,-3,-1,2021-08-06 13:49:22,763765
0,0,-1,-4,-2,-3,0,0,2021-08-06 13:49:22,763765
-1,0,0,0,1,1,-1,0,2021-08-06 13:49:22,763765
-4,-3,-2,-3,-4,-4,-4,-3,2021-08-06 13:49:22,763765
0,-1,1,2,1,0,-1,0,2021-08-06 13:49:22,763765
0,1,0,3,3,3,0,0,2021-08-06 13:49:22,764762
0,0,0,-2,-1,0,-1,0,2021-08-06 13:49:22,764762
0,0,1,2,3,1,2,-1,2021-08-06 13:49:22,764762
1,-2,-3,-6,-5,-4,-2,0,2021-08-06 13:49:22,795759
-2,-1,0,-2,0,0,-1,1,2021-08-06 13:49:22,811724
-3,-5,-3,-2,-3,-2,-2,-3,2021-08-06 13:49:22,811724
-4,-4,-1,-1,3,2,-4,-2,2021-08-06 13:49:22,811724
2,1,3,1,2,1,1,-1,2021-08-06 13:49:22,811724
1,1,0,3,-1,0,-1,-2,2021-08-06 13:49:22,811724
-6,-5,-6,-6,-9,-8,-5,-3,2021-08-06 13:49:22,811724
4,3,2,0,0,0,1,1,2021-08-06 13:49:22,812764
-1,-1,-1,0,-1,-2,-2,-2,2021-08-06 13:49:22,843780
3,2,1,0,0,0,-1,-1,2021-08-06 13:49:22,859760
-2,-3,-3,-1,-1,-1,-1,-1,2021-08-06 13:49:22,875725
-2,-3,-2,-1,-2,-3,-1,-2,2021-08-06 13:49:22,891774
1,1,1,3,0,2,3,2,2021-08-06 13:49:22,906772
-1,0,-3,-3,-6,-4,-1,-2,2021-08-06 13:49:22,921756
-1,1,5,8,10,6,0,-1,2021-08-06 13:49:22,921756
-1,-2,-4,-7,-6,-2,1,1,2021-08-06 13:49:22,921756
1,1,-2,10,16,9,4,0,2021-08-06 13:49:22,921756
-3,-1,0,0,-1,-1,0,-1,2021-08-06 13:49:22,921756
0,1,0,-1,-2,-3,0,0,2021-08-06 13:49:22,921756
-3,-4,-1,-6,-8,-4,-3,-3,2021-08-06 13:49:22,921756
-3,-2,-2,-6,-8,-6,-5,-4,2021-08-06 13:49:22,921756
1,1,-2,4,1,2,1,2,2021-08-06 13:49:22,921756
2,0,-1,-2,-1,-1,-1,0,2021-08-06 13:49:22,921756
-2,-2,-2,-1,-2,-2,-1,-2,2021-08-06 13:49:22,921756
-1,-2,-2,-4,-5,-3,-2,-1,2021-08-06 13:49:22,921756
-2,-1,-2,-2,-5,-3,-2,-1,2021-08-06 13:49:22,922725
2,1,3,7,13,7,3,3,2021-08-06 13:49:22,922725
-1,-2,-2,-1,-3,-1,-2,-1,2021-08-06 13:49:22,922725
-2,-1,-2,-3,-3,-2,0,-1,2021-08-06 13:49:22,937725
-4,-3,-1,-4,-3,-4,-4,-3,2021-08-06 13:49:22,937725
1,1,-1,1,1,1,-1,-1,2021-08-06 13:49:22,937725
-2,-3,-6,-2,-2,-3,-2,-1,2021-08-06 13:49:22,937725
0,1,3,2,1,0,0,0,2021-08-06 13:49:22,952759
-1,1,2,-1,0,1,0,0,2021-08-06 13:49:22,952996
1,-1,-2,-1,-5,-2,-1,-1,2021-08-06 13:49:22,966725
-2,-2,-4,-2,-2,-2,-1,-2,2021-08-06 13:49:22,967774
0,1,2,1,0,1,-1,1,2021-08-06 13:49:22,967774
-7,-10,-7,-3,-1,-2,-3,-4,2021-08-06 13:49:22,967774
2,5,5,3,3,3,3,4,2021-08-06 13:49:22,967774
0,4,1,3,2,1,1,1,2021-08-06 13:49:22,967774
-3,-2,-1,-2,-3,-3,-3,-1,2021-08-06 13:49:23,000762
2,2,2,1,0,0,1,1,2021-08-06 13:49:23,016778
-4,-5,-4,-1,0,-1,-3,-4,2021-08-06 13:49:23,032762
-2,-4,-3,-2,-3,-2,-3,-4,2021-08-06 13:49:23,032762
1,0,-2,1,4,1,1,2,2021-08-06 13:49:23,032762
0,1,1,4,5,1,-1,-2,2021-08-06 13:49:23,032762
0,0,0,-1,0,1,3,1,2021-08-06 13:49:23,032762
0,2,3,2,1,0,-1,-1,2021-08-06 13:49:23,032762
-2,-3,-6,-10,-11,-7,-4,-4,2021-08-06 13:49:23,033724
-1,-2,2,1,2,0,0,-1,2021-08-06 13:49:23,033724
1,1,-2,-2,-4,-3,0,0,2021-08-06 13:49:23,048763
0,0,4,4,3,1,1,1,2021-08-06 13:49:23,048763
-4,-2,-3,-6,-7,-2,-1,-2,2021-08-06 13:49:23,048763
-1,0,0,-3,-1,-3,-1,0,2021-08-06 13:49:23,048763
-2,-3,-3,-5,-11,-6,-3,-2,2021-08-06 13:49:23,078722
-1,-1,0,0,3,1,0,-1,2021-08-06 13:49:23,094779
-1,-1,1,3,2,3,-1,-2,2021-08-06 13:49:23,094779
1,1,-2,-2,-3,-1,-1,-1,2021-08-06 13:49:23,094779
-2,-4,-2,-2,-2,-3,-3,-3,2021-08-06 13:49:23,094779
0,-1,-4,-5,-9,-5,-4,-1,2021-08-06 13:49:23,094779
-1,-2,-4,1,3,1,0,0,2021-08-06 13:49:23,094779
4,4,6,3,6,5,3,3,2021-08-06 13:49:23,094779
1,-1,0,-2,-4,-1,-3,-2,2021-08-06 13:49:23,095729
-6,-8,-7,-5,-10,-6,-4,-4,2021-08-06 13:49:23,095729
7,7,9,7,7,2,4,4,2021-08-06 13:49:23,126765
0,1,0,2,3,3,2,0,2021-08-06 13:49:23,142772
-1,-2,-1,-5,-4,-4,-2,-1,2021-08-06 13:49:23,174760
-1,-2,-1,-1,3,1,-1,1,2021-08-06 13:49:23,189726
-5,-5,-4,-3,-7,-6,-3,-3,2021-08-06 13:49:23,204772
-4,-3,-4,-3,-5,-6,-2,-1,2021-08-06 13:49:23,220759
-1,-3,-1,1,4,3,1,-2,2021-08-06 13:49:23,236725
0,-2,-3,-2,-3,-2,-1,-1,2021-08-06 13:49:23,236725
-1,-2,0,0,5,2,1,0,2021-08-06 13:49:23,236725
2,2,1,3,3,3,2,0,2021-08-06 13:49:23,236725
-4,-2,-2,-2,-5,-3,-2,-2,2021-08-06 13:49:23,236725
-1,0,0,-1,-1,-1,-1,0,2021-08-06 13:49:23,236725
-2,0,-1,-1,-1,0,-1,-1,2021-08-06 13:49:23,236725
-3,-2,-3,-3,-2,-2,-3,-2,2021-08-06 13:49:23,236725
-4,-5,-4,-2,1,-1,-2,-2,2021-08-06 13:49:23,237760
1,0,0,-2,1,1,2,1,2021-08-06 13:49:23,237760
4,4,2,-5,-7,-3,0,1,2021-08-06 13:49:23,237760
-1,-4,-2,3,4,1,-2,-3,2021-08-06 13:49:23,237760
0,1,-3,0,-1,-1,0,0,2021-08-06 13:49:23,237760
-2,-2,-1,1,8,2,-2,-2,2021-08-06 13:49:23,237760
-6,-5,-3,-2,-3,-1,0,-2,2021-08-06 13:49:23,237760
3,2,2,-2,-3,0,1,1,2021-08-06 13:49:23,237760
-1,0,0,-2,-3,0,-1,0,2021-08-06 13:49:23,238759
-1,-1,-2,-2,-1,-2,-2,0,2021-08-06 13:49:23,238759
-1,-4,-1,-1,-2,-1,0,-1,2021-08-06 13:49:23,238759
-2,-3,-3,0,0,-2,0,1,2021-08-06 13:49:23,238759
1,3,2,1,0,1,2,2,2021-08-06 13:49:23,238759
2,3,2,3,3,0,1,0,2021-08-06 13:49:23,238759
-2,-2,-2,-1,-4,-2,-2,-4,2021-08-06 13:49:23,252759
-4,-6,-5,-7,-6,-5,-4,-4,2021-08-06 13:49:23,268772
0,1,-1,0,1,1,1,0,2021-08-06 13:49:23,284759
-2,2,1,2,5,3,0,1,2021-08-06 13:49:23,300763
-1,-2,-1,-1,-1,-2,-1,-2,2021-08-06 13:49:23,316723
-5,-5,-5,-4,-8,-5,-4,-4,2021-08-06 13:49:23,316723
-1,-2,-2,-5,-6,-5,-2,-2,2021-08-06 13:49:23,316723
4,5,4,2,3,3,3,2,2021-08-06 13:49:23,316723
-1,0,0,-2,1,1,-1,0,2021-08-06 13:49:23,316723
-1,-1,-1,3,-1,-2,-1,0,2021-08-06 13:49:23,316723
-3,-4,-3,-3,-4,-5,-4,-2,2021-08-06 13:49:23,316723
-3,-4,-5,-3,-7,-3,-2,-2,2021-08-06 13:49:23,316723
1,-3,-2,-4,-4,-3,-3,-1,2021-08-06 13:49:23,317725
0,1,0,-2,0,1,-1,-2,2021-08-06 13:49:23,317725
-2,-1,0,4,7,1,-1,-2,2021-08-06 13:49:23,317725
0,1,0,-2,-3,-1,1,0,2021-08-06 13:49:23,317725
-2,-1,-4,-3,-7,-6,-2,-1,2021-08-06 13:49:23,328725
2,0,2,6,17,8,3,2,2021-08-06 13:49:23,328725
2,2,0,2,1,0,0,0,2021-08-06 13:49:23,328725
-4,-5,-3,-3,-3,-2,-4,-1,2021-08-06 13:49:23,328725
-3,-2,-1,-1,-3,-3,-2,0,2021-08-06 13:49:23,364759
6,7,5,1,-2,-1,1,3,2021-08-06 13:49:23,380773
1,3,1,-2,-1,0,-1,-1,2021-08-06 13:49:23,412721
-2,-4,-1,-1,-2,-2,-1,-2,2021-08-06 13:49:23,428724
0,-1,-2,-2,0,-3,-3,-2,2021-08-06 13:49:23,443759
-1,-1,-1,-3,-4,-3,-3,-2,2021-08-06 13:49:23,459759
2,2,2,3,7,3,2,0,2021-08-06 13:49:23,475757
-1,-1,-3,-3,-6,-3,-1,-1,2021-08-06 13:49:23,475757
1,1,2,3,8,5,2,2,2021-08-06 13:49:23,475757
0,-1,-1,-1,-3,-2,0,-2,2021-08-06 13:49:23,475757
-3,-4,-6,-7,-12,-8,-5,-2,2021-08-06 13:49:23,475757
-2,-2,-2,-3,1,0,-2,-3,2021-08-06 13:49:23,475757
4,1,4,9,17,11,6,3,2021-08-06 13:49:23,476724
-3,0,-1,-1,-5,-3,-1,-2,2021-08-06 13:49:23,476724
-2,-2,1,5,1,1,-1,-2,2021-08-06 13:49:23,476724
-1,-2,-3,-6,-10,-8,-2,-2,2021-08-06 13:49:23,476724
-3,-1,-1,0,1,2,0,-1,2021-08-06 13:49:23,476724
-1,-2,-2,-4,-4,-4,-2,-3,2021-08-06 13:49:23,476724
0,-1,0,0,1,1,1,-1,2021-08-06 13:49:23,476724
-1,-2,-2,1,-2,-1,-2,-1,2021-08-06 13:49:23,476724
-3,-4,-3,-6,-6,-3,-3,-2,2021-08-06 13:49:23,476724
-3,-4,-4,-2,-2,0,-1,0,2021-08-06 13:49:23,477761
-1,1,1,-1,0,1,0,1,2021-08-06 13:49:23,477761
-1,-1,0,1,-1,-2,-1,-2,2021-08-06 13:49:23,477761
0,0,-2,-2,-2,-1,0,-1,2021-08-06 13:49:23,477761
-3,-3,-4,1,3,0,0,-2,2021-08-06 13:49:23,477761
0,0,2,2,-2,-1,0,-1,2021-08-06 13:49:23,477761
0,1,0,-4,2,3,0,-1,2021-08-06 13:49:23,477761
-5,-1,-2,-3,-7,-3,-3,-2,2021-08-06 13:49:23,506772
-2,-1,-1,-2,-2,-2,-2,0,2021-08-06 13:49:23,522759
1,2,2,-1,-1,-1,1,0,2021-08-06 13:49:23,538759
0,1,2,4,4,3,0,2,2021-08-06 13:49:23,538759
-1,-1,-3,-1,-4,-1,-1,-2,2021-08-06 13:49:23,539225
-2,-2,-1,-6,-7,-5,-1,-2,2021-08-06 13:49:23,539225
1,1,1,4,10,5,2,1,2021-08-06 13:49:23,539225
1,0,0,4,4,2,1,1,2021-08-06 13:49:23,539225
1,1,0,-1,0,0,0,0,2021-08-06 13:49:23,539764
0,1,0,1,0,1,0,0,2021-08-06 13:49:23,539764
-2,-4,-5,-6,-5,-5,-3,-3,2021-08-06 13:49:23,539764
0,0,-1,-2,1,0,-1,-2,2021-08-06 13:49:23,539764
-1,-3,-1,0,2,-2,0,0,2021-08-06 13:49:23,554365
-1,-4,-4,-3,-6,-2,-3,-1,2021-08-06 13:49:23,570362
-2,-1,-2,-2,-4,0,0,2,2021-08-06 13:49:23,570362
-2,-1,0,4,8,5,0,0,2021-08-06 13:49:23,570362
-2,0,3,3,-2,-2,-2,-3,2021-08-06 13:49:23,570362
-1,2,2,2,2,1,-2,0,2021-08-06 13:49:23,570362
-3,-2,-3,-4,-7,-6,-3,-6,2021-08-06 13:49:23,570362
-3,-3,0,-2,-6,-3,-3,-3,2021-08-06 13:49:23,570362
0,0,0,1,1,1,1,3,2021-08-06 13:49:23,601363
3,1,0,-1,2,1,2,2,2021-08-06 13:49:23,617363
2,-1,-1,-1,0,2,1,1,2021-08-06 13:49:23,649329
-1,1,-2,-4,-6,-4,0,0,2021-08-06 13:49:23,649329
-2,-2,-2,-1,0,-2,-2,-2,2021-08-06 13:49:23,649329
-2,0,0,0,0,0,-2,-3,2021-08-06 13:49:23,649329
-2,-1,-4,-7,-4,-3,-2,0,2021-08-06 13:49:23,649329
-3,-3,-2,-1,0,-1,-1,-1,2021-08-06 13:49:23,649329
0,1,-1,0,-1,-2,-1,0,2021-08-06 13:49:23,649329
0,-3,-4,2,2,-2,0,-1,2021-08-06 13:49:23,649329
-1,-2,-2,0,-2,-1,-3,-2,2021-08-06 13:49:23,664325
2,0,3,2,6,3,3,1,2021-08-06 13:49:23,664325
0,-3,-3,-4,-4,-3,-1,-2,2021-08-06 13:49:23,664325
-4,-1,-3,-3,-3,-3,-3,0,2021-08-06 13:49:23,664325
-4,-4,-3,-4,-1,-1,-1,-2,2021-08-06 13:49:23,664325
3,5,2,2,4,4,1,1,2021-08-06 13:49:23,664325
1,1,2,5,2,1,-1,1,2021-08-06 13:49:23,679366
0,0,-1,-1,-2,-1,0,-1,2021-08-06 13:49:23,688366
-4,-4,-4,-2,-4,-4,-4,-1,2021-08-06 13:49:23,689365
-4,-5,-6,-6,-9,-7,-5,-3,2021-08-06 13:49:23,689365
-1,-2,0,1,5,2,1,-1,2021-08-06 13:49:23,689365
-1,-2,-1,-4,-3,-2,-1,0,2021-08-06 13:49:23,689365
-1,-1,0,-2,-2,-1,-2,0,2021-08-06 13:49:23,710363
2,0,2,3,3,0,0,-1,2021-08-06 13:49:23,710363
-1,-1,0,-3,-2,-3,0,-1,2021-08-06 13:49:23,710363
-3,-3,-1,-2,-4,-1,0,0,2021-08-06 13:49:23,710363
-4,0,-1,-1,-3,1,0,-1,2021-08-06 13:49:23,710363
1,2,2,-1,-4,-4,0,1,2021-08-06 13:49:23,710363
0,1,-2,0,2,3,0,-1,2021-08-06 13:49:23,757327
-1,-2,-1,0,1,0,-1,0,2021-08-06 13:49:23,757555
2,0,1,1,0,0,0,-1,2021-08-06 13:49:23,757555
0,2,2,1,-3,1,1,-1,2021-08-06 13:49:23,757555
-1,0,-1,-3,-3,-2,-1,-1,2021-08-06 13:49:23,757555
0,1,1,0,-1,1,1,-1,2021-08-06 13:49:23,757555
-2,0,-1,-2,-3,-1,-2,-1,2021-08-06 13:49:23,772873
-4,-6,-4,-6,-6,-4,-3,-3,2021-08-06 13:49:23,772873
0,0,0,-2,-3,-2,-1,-1,2021-08-06 13:49:23,772873
-2,-3,-2,0,-1,-1,-1,-1,2021-08-06 13:49:23,772873
2,1,2,4,4,2,0,0,2021-08-06 13:49:23,772873
-3,-2,-3,-5,-10,-5,-3,-2,2021-08-06 13:49:23,772873
0,-2,-2,-3,-3,0,1,0,2021-08-06 13:49:23,804890
3,3,3,6,10,6,2,2,2021-08-06 13:49:23,820878
3,1,-1,-1,2,1,0,0,2021-08-06 13:49:23,836877
-4,-3,-4,-1,-2,-5,-3,-2,2021-08-06 13:49:23,836877
-2,1,1,3,-1,2,-1,-3,2021-08-06 13:49:23,836877
0,-1,0,-2,-3,-2,0,-1,2021-08-06 13:49:23,836877
1,0,0,-1,0,-3,-1,0,2021-08-06 13:49:23,836877
-2,-4,-2,0,3,0,-2,-1,2021-08-06 13:49:23,836877
-1,-4,-3,-8,-9,-6,-4,-2,2021-08-06 13:49:23,836877
-3,-3,-2,-1,-3,-3,-1,-1,2021-08-06 13:49:23,836877
0,-1,0,1,-3,0,0,1,2021-08-06 13:49:23,836877
0,-1,0,1,4,4,1,0,2021-08-06 13:49:23,836877
-3,-2,-2,-1,0,-2,-1,-3,2021-08-06 13:49:23,867877
2,5,3,1,1,1,1,1,2021-08-06 13:49:23,883877
-3,-3,-2,-2,-2,-3,0,-4,2021-08-06 13:49:23,883877
0,-1,-2,-3,-6,-1,-2,0,2021-08-06 13:49:23,883877
-1,-1,-3,2,4,1,0,0,2021-08-06 13:49:23,883877
-3,-3,-3,-5,-8,-4,-3,-3,2021-08-06 13:49:23,883877
-1,-1,-1,-1,-2,-2,-1,-2,2021-08-06 13:49:23,883877
2,4,3,4,5,1,3,1,2021-08-06 13:49:23,883877
1,0,0,0,-3,0,0,0,2021-08-06 13:49:23,930890
-7,-6,-8,-5,-4,-5,-5,-5,2021-08-06 13:49:23,946840
6,7,8,4,1,2,3,5,2021-08-06 13:49:23,946840
1,0,1,0,-3,-1,-1,-1,2021-08-06 13:49:23,946840
-1,-1,-1,-4,-2,-4,0,-2,2021-08-06 13:49:23,946840
0,-1,-1,-2,-3,-1,-1,-1,2021-08-06 13:49:23,946840
-3,-4,-5,-4,-1,-2,-2,-4,2021-08-06 13:49:23,946840
-1,-3,-2,-3,-2,-2,-2,-1,2021-08-06 13:49:23,946840
-1,0,-2,0,-1,-3,-1,0,2021-08-06 13:49:23,947842
1,-1,-2,-1,2,4,3,0,2021-08-06 13:49:23,947842
-2,-3,-1,-1,2,1,-1,-1,2021-08-06 13:49:23,947842
3,6,4,1,-1,2,1,1,2021-08-06 13:49:23,947842
-1,-2,-1,-3,-4,-1,-3,-1,2021-08-06 13:49:23,947842
1,0,1,-1,-1,-1,-2,0,2021-08-06 13:49:23,947842
-1,-2,-4,0,0,1,0,-1,2021-08-06 13:49:23,947842
1,1,1,2,0,0,2,0,2021-08-06 13:49:23,948842
-3,-2,-1,1,-2,1,-2,-2,2021-08-06 13:49:23,978891
-1,0,1,-4,-4,-4,-1,-1,2021-08-06 13:49:23,994872
0,-1,0,3,4,2,0,0,2021-08-06 13:49:23,994872
-3,-3,-3,-7,-6,-5,-3,-2,2021-08-06 13:49:23,994872
3,1,2,6,11,3,3,2,2021-08-06 13:49:23,994872
0,0,-2,3,2,-1,0,0,2021-08-06 13:49:23,994872
-3,-3,-3,-5,-1,-2,-3,-2,2021-08-06 13:49:23,994872
-1,-1,1,-1,-4,-3,0,0,2021-08-06 13:49:23,994872
2,2,1,-3,-7,-3,-1,2,2021-08-06 13:49:24,025878
1,0,3,4,8,3,2,0,2021-08-06 13:49:24,041890
-3,-2,-4,-1,-3,-2,-1,-1,2021-08-06 13:49:24,048843
-2,-2,-5,-3,1,-1,-3,-2,2021-08-06 13:49:24,048843
-2,0,-2,-5,-5,-4,-2,-2,2021-08-06 13:49:24,048843
0,2,1,1,1,0,1,-1,2021-08-06 13:49:24,048843
-1,0,-3,-4,-9,-6,-3,-2,2021-08-06 13:49:24,049842
-3,-4,0,1,9,2,-1,-2,2021-08-06 13:49:24,049842
-1,-2,-2,-5,-7,-4,-2,-1,2021-08-06 13:49:24,049842
2,2,1,4,8,5,2,2,2021-08-06 13:49:24,049842
0,-1,0,1,2,-1,0,0,2021-08-06 13:49:24,057876
0,1,3,6,9,8,1,-1,2021-08-06 13:49:24,057876
-1,-1,-3,-2,-4,-4,-2,-1,2021-08-06 13:49:24,073842
0,-2,-1,-1,-3,-1,-1,-2,2021-08-06 13:49:24,073842
-2,-1,1,1,0,-1,0,-2,2021-08-06 13:49:24,073842
1,0,-3,-3,-5,-4,-3,-2,2021-08-06 13:49:24,073842
-2,-3,0,2,4,3,0,-2,2021-08-06 13:49:24,104851
-4,-4,-4,-6,-12,-8,-3,-1,2021-08-06 13:49:24,104851
3,2,3,3,3,3,4,1,2021-08-06 13:49:24,104851
0,-1,-1,2,3,1,1,1,2021-08-06 13:49:24,104851
-2,0,1,-1,0,0,-1,-1,2021-08-06 13:49:24,104851
-2,-2,-2,-4,-5,-3,-5,-2,2021-08-06 13:49:24,104851
-2,-2,-1,1,-2,1,-3,-2,2021-08-06 13:49:24,120880
-2,-3,-1,-4,-8,-5,-2,0,2021-08-06 13:49:24,136879
0,2,0,1,6,0,0,-1,2021-08-06 13:49:24,152878
0,0,2,0,2,2,1,0,2021-08-06 13:49:24,152878
-3,0,-2,1,-4,-1,-1,0,2021-08-06 13:49:24,152878
-3,-1,-1,-1,2,1,-2,-1,2021-08-06 13:49:24,152878
-4,-6,-6,-5,-2,-2,-2,-1,2021-08-06 13:49:24,152878
1,0,1,0,-4,-1,-2,1,2021-08-06 13:49:24,152878
1,1,-1,-3,-2,-3,-2,-1,2021-08-06 13:49:24,152878
0,0,-2,-1,-5,-3,-2,-1,2021-08-06 13:49:24,152878
-2,-2,-1,-2,-4,-2,0,-1,2021-08-06 13:49:24,168890
-1,-1,-3,-1,0,-1,-3,-2,2021-08-06 13:49:24,168890
-1,-1,-1,-2,-4,-2,0,-1,2021-08-06 13:49:24,184842
-2,-3,-3,-4,-4,-2,-2,0,2021-08-06 13:49:24,200880
1,0,0,4,2,1,0,-1,2021-08-06 13:49:24,216891
0,-1,-1,1,0,0,1,0,2021-08-06 13:49:24,232842
-2,0,-2,1,3,3,-1,0,2021-08-06 13:49:24,248842
-4,-3,-3,-4,-5,-4,-2,-2,2021-08-06 13:49:24,248842
2,2,-1,-3,-4,-1,1,2,2021-08-06 13:49:24,248842
1,3,2,1,-1,0,0,0,2021-08-06 13:49:24,248842
0,0,1,3,6,1,0,1,2021-08-06 13:49:24,248842
-3,-3,-4,0,-1,-1,-3,-4,2021-08-06 13:49:24,248842
-1,-2,0,0,-1,0,-1,0,2021-08-06 13:49:24,248842
-2,-2,-4,-4,-6,-5,-3,-2,2021-08-06 13:49:24,249878
-1,-2,-2,-5,-6,-3,-4,-1,2021-08-06 13:49:24,249878
4,4,3,2,8,4,2,4,2021-08-06 13:49:24,249878
-2,-2,-1,4,2,0,-2,0,2021-08-06 13:49:24,249878
-2,0,-2,-4,-1,-1,-1,-3,2021-08-06 13:49:24,249878
-1,-1,1,-3,-6,-3,-2,0,2021-08-06 13:49:24,249878
2,2,4,2,0,1,2,3,2021-08-06 13:49:24,249878
2,0,0,3,5,3,1,-1,2021-08-06 13:49:24,280890
0,-3,-2,3,1,1,-4,-1,2021-08-06 13:49:24,280890
-2,-2,-4,-3,-4,-3,-2,-2,2021-08-06 13:49:24,280890
-1,-1,-2,-3,-4,-3,-1,-1,2021-08-06 13:49:24,280890
0,-1,0,0,-1,-1,0,1,2021-08-06 13:49:24,296840
0,-2,0,1,0,-1,0,-2,2021-08-06 13:49:24,296840
-1,-1,-2,0,-2,-2,-1,-2,2021-08-06 13:49:24,312890
0,-1,-2,1,1,1,-1,0,2021-08-06 13:49:24,328880
-4,-3,-2,-4,-7,-4,-3,-4,2021-08-06 13:49:24,328880
1,0,-2,-3,-1,-1,0,0,2021-08-06 13:49:24,328880
3,3,3,2,3,4,4,3,2021-08-06 13:49:24,328880
-2,-1,-2,0,-2,-3,-1,-2,2021-08-06 13:49:24,328880
-2,0,-2,-3,-1,-1,-1,-1,2021-08-06 13:49:24,328880
-1,0,-1,-2,-3,-3,-2,-2,2021-08-06 13:49:24,328880
-2,-2,-1,-2,0,0,-2,-1,2021-08-06 13:49:24,344889
-1,-2,0,1,2,0,0,0,2021-08-06 13:49:24,344889
1,-2,2,-4,-1,-1,-1,0,2021-08-06 13:49:24,344889
1,0,0,2,0,0,0,-1,2021-08-06 13:49:24,344889
-2,-1,-5,-4,-9,-7,-4,-2,2021-08-06 13:49:24,360881
1,1,2,4,8,5,3,0,2021-08-06 13:49:24,360881
0,-2,-2,-3,-4,-2,-1,-1,2021-08-06 13:49:24,392889
-1,-3,-2,0,0,1,0,-1,2021-08-06 13:49:24,392889
-1,-3,-3,-2,0,1,0,-1,2021-08-06 13:49:24,392889
-2,-5,-2,-1,-6,-5,-3,-2,2021-08-06 13:49:24,392889
-3,-2,1,2,-1,-1,-3,-2,2021-08-06 13:49:24,392889
-5,-1,0,-2,-3,-1,-3,-1,2021-08-06 13:49:24,392889
3,5,5,2,-1,0,1,0,2021-08-06 13:49:24,392889
-2,-2,-3,-8,-7,-4,-4,-2,2021-08-06 13:49:24,393876
1,2,1,-1,1,0,1,0,2021-08-06 13:49:24,407877
-1,-1,-1,-1,4,1,1,0,2021-08-06 13:49:24,408879
-3,-4,-3,-1,-1,0,-2,-2,2021-08-06 13:49:24,424880
-3,-3,-3,-4,-4,-3,-1,-2,2021-08-06 13:49:24,440845
4,8,6,3,-2,2,2,3,2021-08-06 13:49:24,456895
-1,-1,-2,-2,-1,-3,0,-1,2021-08-06 13:49:24,456895
4,2,2,7,14,9,6,2,2021-08-06 13:49:24,456895
1,-1,1,4,5,2,-1,0,2021-08-06 13:49:24,456895
-2,-3,-4,-4,-4,-2,-2,-3,2021-08-06 13:49:24,456895
0,1,1,2,-1,0,-1,-1,2021-08-06 13:49:24,456895
-5,-4,-2,-3,-9,-5,-3,-3,2021-08-06 13:49:24,456895
-2,-3,-3,-3,-4,-1,-1,-1,2021-08-06 13:49:24,457841
-1,-2,0,0,1,0,-1,-2,2021-08-06 13:49:24,472842
0,2,2,2,0,1,2,1,2021-08-06 13:49:24,472842
-2,-2,-3,-1,-1,-3,-3,-1,2021-08-06 13:49:24,472842
-1,0,-5,-5,-4,-2,-3,0,2021-08-06 13:49:24,472842
2,1,2,7,11,5,3,1,2021-08-06 13:49:24,503892
-2,0,-2,-1,-2,0,-1,-2,2021-08-06 13:49:24,519905
-2,-4,-3,-3,-4,-3,-1,-1,2021-08-06 13:49:24,519905
3,5,4,4,8,5,3,3,2021-08-06 13:49:24,519905
-1,-1,-1,-3,-5,-3,-2,-2,2021-08-06 13:49:24,519905
-1,-3,0,3,3,2,1,2,2021-08-06 13:49:24,519905
0,1,0,3,2,2,0,-1,2021-08-06 13:49:24,519905
0,-1,-3,-5,-5,-3,-1,-1,2021-08-06 13:49:24,519905
1,-2,-3,-3,-4,-3,-2,-1,2021-08-06 13:49:24,551890
0,1,1,0,3,2,1,1,2021-08-06 13:49:24,551890
-5,-4,-4,-6,-7,-4,-3,-5,2021-08-06 13:49:24,551890
-1,-1,-2,2,0,0,-2,-2,2021-08-06 13:49:24,551890
-4,-1,-2,0,2,1,-2,-2,2021-08-06 13:49:24,551890
4,3,3,-1,-2,-1,-2,0,2021-08-06 13:49:24,551890
0,0,1,1,-1,-1,-2,-1,2021-08-06 13:49:24,551890
-4,-4,-4,-5,-8,-5,-5,-2,2021-08-06 13:49:24,551890
0,-1,-1,2,9,3,1,-2,2021-08-06 13:49:24,583895
0,-1,-2,-1,-1,-1,0,0,2021-08-06 13:49:24,599885
4,3,2,4,4,4,3,4,2021-08-06 13:49:24,599885
-3,-1,-3,-4,-4,-3,-1,-2,2021-08-06 13:49:24,599885
-4,-4,-3,-3,-4,-3,-3,-1,2021-08-06 13:49:24,599885
-2,-1,-2,-3,-2,-4,-1,-1,2021-08-06 13:49:24,599885
-1,-3,-3,-3,0,-3,-2,-2,2021-08-06 13:49:24,599885
2,1,2,0,-2,-1,0,1,2021-08-06 13:49:24,599885
3,0,0,-4,-9,-4,-1,-1,2021-08-06 13:49:24,615843
-2,-2,-2,2,5,2,-1,-3,2021-08-06 13:49:24,615843
0,2,0,-1,-3,0,-1,0,2021-08-06 13:49:24,615843
-4,-6,-5,-3,-1,-1,-3,-2,2021-08-06 13:49:24,615843
-2,-1,-1,1,-2,-2,0,1,2021-08-06 13:49:24,646881
0,2,3,0,-2,1,1,1,2021-08-06 13:49:24,646881
-2,-3,-3,-2,-2,-2,0,-3,2021-08-06 13:49:24,646881
-1,-2,0,3,1,0,1,-2,2021-08-06 13:49:24,646881
-2,-3,-1,-7,-2,-2,-3,-3,2021-08-06 13:49:24,661841
-2,-4,-5,-5,-9,-7,-6,-2,2021-08-06 13:49:24,661841
2,3,1,1,5,4,2,2,2021-08-06 13:49:24,661841
0,1,0,0,-3,-3,-2,-2,2021-08-06 13:49:24,661841
-3,-2,-4,-5,-9,-4,-1,-2,2021-08-06 13:49:24,676893
-1,-1,2,6,10,4,2,1,2021-08-06 13:49:24,692892
-1,0,0,3,2,1,1,-1,2021-08-06 13:49:24,708877
-1,-2,-2,-5,-5,-5,-1,-1,2021-08-06 13:49:24,724839
-1,-1,-1,4,3,2,0,-1,2021-08-06 13:49:24,739877
1,2,0,-6,-7,-3,-1,0,2021-08-06 13:49:24,739877
2,2,2,1,2,1,0,0,2021-08-06 13:49:24,739877
1,2,1,0,3,1,1,0,2021-08-06 13:49:24,739877
-5,-7,-7,-7,-7,-6,-3,-3,2021-08-06 13:49:24,739877
1,1,1,0,0,0,1,0,2021-08-06 13:49:24,739877
-2,0,0,-3,-3,-4,-3,-2,2021-08-06 13:49:24,739877
0,0,2,0,-1,-1,-2,-2,2021-08-06 13:49:24,740843
0,1,0,-2,0,0,1,0,2021-08-06 13:49:24,740843
-3,-4,-6,-4,-2,-1,2,-1,2021-08-06 13:49:24,740843
-1,-5,-1,-3,-1,-1,-2,-2,2021-08-06 13:49:24,740843
1,2,1,3,3,-1,-2,0,2021-08-06 13:49:24,740843
2,3,3,4,3,3,-1,0,2021-08-06 13:49:24,755877
-3,-2,-4,-4,-4,-4,-4,-2,2021-08-06 13:49:24,755877
-2,-1,-1,-2,-3,-1,0,-1,2021-08-06 13:49:24,755877
-2,-2,-2,-3,1,1,0,0,2021-08-06 13:49:24,755877
0,1,0,2,0,-1,0,-2,2021-08-06 13:49:24,787876
-1,-1,-1,-1,-5,-2,-1,-1,2021-08-06 13:49:24,803877
-2,-2,-2,-5,-5,-2,0,0,2021-08-06 13:49:24,803877
1,1,1,4,8,6,4,3,2021-08-06 13:49:24,803877
-1,-4,-3,-1,-1,-6,-6,-3,2021-08-06 13:49:24,803877
-3,-2,-1,2,1,-1,-7,-7,2021-08-06 13:49:24,803877
-2,-1,-3,-3,-8,-6,-4,-2,2021-08-06 13:49:24,803877
0,-2,-4,-3,0,1,1,1,2021-08-06 13:49:24,803877
-4,-3,-1,-3,-3,1,0,-1,2021-08-06 13:49:24,819873
6,6,8,6,10,6,6,8,2021-08-06 13:49:24,819873
-1,-1,-1,0,2,0,-1,-2,2021-08-06 13:49:24,819873
-2,-2,-4,-6,-8,-3,-1,-1,2021-08-06 13:49:24,819873
-1,-1,-1,1,2,1,1,-1,2021-08-06 13:49:24,850842
-4,-6,-6,-4,-8,-4,-5,-3,2021-08-06 13:49:24,865843
-4,-4,-4,-1,-2,-2,-4,-3,2021-08-06 13:49:24,880840
4,7,6,8,6,5,4,4,2021-08-06 13:49:24,895878
-1,-1,-1,-2,-2,-2,-2,0,2021-08-06 13:49:24,910843
-1,0,-1,1,0,0,0,-1,2021-08-06 13:49:24,910843
-1,-1,-1,-2,0,-2,-1,-1,2021-08-06 13:49:24,910843
-3,-4,-3,-3,-7,-4,-4,-3,2021-08-06 13:49:24,910843
1,1,0,5,3,0,-2,-1,2021-08-06 13:49:24,910843
-2,-2,-5,-3,-2,0,0,-1,2021-08-06 13:49:24,910843
2,1,1,2,1,3,-1,1,2021-08-06 13:49:24,910843
-1,-1,1,0,-1,-1,-1,-2,2021-08-06 13:49:24,910843
-1,-3,-3,-3,-5,-3,-2,-1,2021-08-06 13:49:24,910843
0,0,1,-2,-1,-2,-2,-1,2021-08-06 13:49:24,911842
1,0,-1,-1,-2,-1,-1,1,2021-08-06 13:49:24,911842
-2,0,-2,-1,-1,-2,-1,-2,2021-08-06 13:49:24,911842
-2,-1,-2,-3,-1,-3,0,-1,2021-08-06 13:49:24,911842
-2,-4,-1,0,-4,-2,-2,-2,2021-08-06 13:49:24,911842
0,1,2,5,12,6,3,1,2021-08-06 13:49:24,911842
-1,0,-1,1,2,1,0,-1,2021-08-06 13:49:24,911842
1,0,-2,0,0,1,2,1,2021-08-06 13:49:24,941839
-1,0,0,-2,-4,-4,0,-3,2021-08-06 13:49:24,957877
-1,-1,0,0,0,1,-1,-2,2021-08-06 13:49:24,973877
-1,-3,-2,-2,-4,-3,-3,-2,2021-08-06 13:49:24,973877
-2,-1,-1,0,4,2,1,0,2021-08-06 13:49:24,973877
0,0,1,0,0,0,0,2,2021-08-06 13:49:24,973877
-2,-4,-5,-4,-4,-3,-2,-2,2021-08-06 13:49:24,973877
1,2,2,3,4,1,0,0,2021-08-06 13:49:24,973877
0,-1,-1,-2,-4,-2,-1,0,2021-08-06 13:49:24,989850
-4,-5,-5,-4,-3,-5,-3,-4,2021-08-06 13:49:24,989850
0,-2,-3,-7,-3,-2,1,-1,2021-08-06 13:49:24,989850
4,4,4,2,3,3,2,2,2021-08-06 13:49:24,989850
1,2,2,2,2,1,0,-1,2021-08-06 13:49:24,989850
-2,-2,0,1,0,1,1,0,2021-08-06 13:49:24,989850
-1,-1,-1,-3,-6,-5,-1,-2,2021-08-06 13:49:24,989850
-2,-3,-2,-1,-1,-1,0,-2,2021-08-06 13:49:24,990843
0,0,2,1,1,1,1,2,2021-08-06 13:49:25,021842
-1,1,-1,4,6,3,1,1,2021-08-06 13:49:25,021842
-3,-2,0,3,-1,-3,-3,-1,2021-08-06 13:49:25,021842
-2,-3,-3,-5,-2,-2,-1,-1,2021-08-06 13:49:25,021842
0,0,-2,-4,-4,-4,-2,-4,2021-08-06 13:49:25,037877
0,-2,-1,-2,0,-2,-2,-1,2021-08-06 13:49:25,053879
0,0,0,-1,-3,-1,-1,-1,2021-08-06 13:49:25,053879
-1,0,-2,-2,-4,-1,-1,-1,2021-08-06 13:49:25,053879
0,0,3,5,5,2,1,1,2021-08-06 13:49:25,068890
0,0,-2,-2,-2,-1,-1,0,2021-08-06 13:49:25,068890
-2,-2,-2,-2,-4,-3,-2,-2,2021-08-06 13:49:25,068890
-2,-2,-1,1,1,0,0,-1,2021-08-06 13:49:25,068890
1,1,-1,-2,-3,-1,0,0,2021-08-06 13:49:25,084877
1,3,5,9,9,6,2,0,2021-08-06 13:49:25,100877
3,2,7,11,15,8,3,3,2021-08-06 13:49:25,100877
-7,-8,-11,-16,-18,-16,-5,-6,2021-08-06 13:49:25,100877
-3,-1,-5,-12,-10,-6,-1,-1,2021-08-06 13:49:25,100877
-3,-5,-2,0,0,-1,-1,-3,2021-08-06 13:49:25,100877
3,4,4,2,4,3,3,1,2021-08-06 13:49:25,116892
-1,-2,-3,0,-3,-1,-1,0,2021-08-06 13:49:25,116892
-1,-2,-2,2,1,0,0,1,2021-08-06 13:49:25,116892
-1,0,2,-3,-3,-2,-1,-1,2021-08-06 13:49:25,116892
-2,0,6,0,-4,0,-2,-4,2021-08-06 13:49:25,116892
-1,-1,3,5,5,3,0,0,2021-08-06 13:49:25,116892
-2,-3,-8,-1,-4,-3,-2,-3,2021-08-06 13:49:25,134843
1,-1,-5,-12,-6,-2,1,-1,2021-08-06 13:49:25,134843
3,4,3,4,6,4,2,1,2021-08-06 13:49:25,134843
2,4,7,5,5,2,2,1,2021-08-06 13:49:25,134843
1,0,4,1,2,0,0,1,2021-08-06 13:49:25,161841
-2,-2,-2,-2,-5,-3,-3,-1,2021-08-06 13:49:25,176877
-1,-3,-4,-2,1,0,1,2,2021-08-06 13:49:25,176877
-3,-2,-5,-2,-1,-2,-3,0,2021-08-06 13:49:25,176877
-3,-2,-3,1,2,0,-2,-2,2021-08-06 13:49:25,176877
-1,3,1,1,0,-2,-1,-2,2021-08-06 13:49:25,176877
-6,-6,-7,-7,-9,-6,-4,-3,2021-08-06 13:49:25,176877
-1,1,1,0,2,2,-2,-2,2021-08-06 13:49:25,176877
1,2,2,0,3,2,1,1,2021-08-06 13:49:25,206838
-1,-1,-1,-3,-4,-3,-2,-1,2021-08-06 13:49:25,222887
-1,-2,-4,-4,-3,-3,-3,-2,2021-08-06 13:49:25,222887
-2,-2,-1,0,-1,-1,0,1,2021-08-06 13:49:25,222887
1,-1,2,1,2,0,1,0,2021-08-06 13:49:25,222887
-3,-3,-3,-6,-4,-3,-1,-2,2021-08-06 13:49:25,222887
1,2,2,1,0,1,1,1,2021-08-06 13:49:25,222887
-1,-1,-1,-3,-2,-1,-1,-1,2021-08-06 13:49:25,222887
-1,0,2,0,-2,-1,-1,-2,2021-08-06 13:49:25,237875
0,1,1,3,1,1,1,2,2021-08-06 13:49:25,252883
-2,-4,-4,-4,-6,-3,-3,-3,2021-08-06 13:49:25,252883
1,0,0,3,1,1,0,0,2021-08-06 13:49:25,252883
-2,-4,-2,-2,-3,1,-1,-2,2021-08-06 13:49:25,252883
0,-1,0,2,3,2,0,1,2021-08-06 13:49:25,252883
-1,0,-2,-6,-7,-5,-4,0,2021-08-06 13:49:25,252883
1,-2,0,0,5,3,1,1,2021-08-06 13:49:25,252883
3,8,5,6,8,6,3,2,2021-08-06 13:49:25,268889
-2,-2,-3,-3,-7,-3,-2,-2,2021-08-06 13:49:25,268889
-3,-4,-4,-4,-7,-6,-4,-4,2021-08-06 13:49:25,283842
-1,-3,-3,0,2,0,1,-2,2021-08-06 13:49:25,283842
0,1,0,-2,3,1,0,0,2021-08-06 13:49:25,298842
0,3,2,3,3,2,1,-1,2021-08-06 13:49:25,298842
0,-2,-1,-2,-2,-1,-2,-1,2021-08-06 13:49:25,298842
-2,-1,-2,-4,-4,-2,0,-2,2021-08-06 13:49:25,298842
-2,-5,-4,-5,-6,-5,-4,-3,2021-08-06 13:49:25,330891
-1,-1,-1,2,0,0,-3,0,2021-08-06 13:49:25,330891
0,0,2,3,7,4,2,1,2021-08-06 13:49:25,330891
3,4,1,1,-1,0,-1,2,2021-08-06 13:49:25,330891
1,-1,0,-1,3,3,2,1,2021-08-06 13:49:25,346842
-3,-5,-5,-5,-8,-5,-4,-4,2021-08-06 13:49:25,362891
-1,-1,-1,-1,4,2,1,-1,2021-08-06 13:49:25,362891
1,0,3,4,4,1,1,0,2021-08-06 13:49:25,362891
-1,-1,0,1,-1,-1,-2,-2,2021-08-06 13:49:25,362891
-1,-2,-2,-3,-3,-2,1,1,2021-08-06 13:49:25,362891
0,-3,-2,-2,-5,-2,-1,-1,2021-08-06 13:49:25,362891
-2,-3,-4,-3,-3,-2,-2,-3,2021-08-06 13:49:25,362891
-1,-2,0,2,-3,-3,0,0,2021-08-06 13:49:25,378890
2,1,1,0,2,1,-1,0,2021-08-06 13:49:25,394840
1,2,-1,-2,-1,0,1,0,2021-08-06 13:49:25,394840
-2,-3,-2,-3,-3,-2,-2,-3,2021-08-06 13:49:25,394840
-3,-4,-5,-4,-4,-2,-2,-2,2021-08-06 13:49:25,394840
2,1,1,2,3,1,1,0,2021-08-06 13:49:25,394840
-1,0,0,0,-4,-4,-2,0,2021-08-06 13:49:25,394840
0,-2,-3,-4,-4,-2,-1,-2,2021-08-06 13:49:25,394840
3,5,4,7,7,4,3,3,2021-08-06 13:49:25,425877
-2,0,0,-5,-4,-2,-1,-1,2021-08-06 13:49:25,440843
0,-1,0,1,1,1,-1,-1,2021-08-06 13:49:25,455876
-1,-1,0,-4,-4,-3,-2,-2,2021-08-06 13:49:25,471842
-5,-5,-4,-5,-10,-7,-4,-4,2021-08-06 13:49:25,471842
-3,-4,-4,-2,0,-2,-2,-4,2021-08-06 13:49:25,471842
2,3,5,10,17,11,3,3,2021-08-06 13:49:25,471842
-2,-1,-2,-1,-1,-2,-2,0,2021-08-06 13:49:25,471842
-2,-1,-1,-5,-4,-3,-1,-2,2021-08-06 13:49:25,471842
1,-1,1,-1,-1,-2,0,0,2021-08-06 13:49:25,471842
-5,-4,-5,-5,-10,-7,-5,-2,2021-08-06 13:49:25,471842
0,-1,-1,1,4,1,-1,1,2021-08-06 13:49:25,471842
-2,-3,0,-2,-2,-1,-2,0,2021-08-06 13:49:25,495840
1,0,-1,2,3,4,2,0,2021-08-06 13:49:25,503877
0,0,-1,3,7,5,2,-2,2021-08-06 13:49:25,503877
0,1,1,0,-1,1,0,0,2021-08-06 13:49:25,503877
2,1,1,0,0,0,1,1,2021-08-06 13:49:25,503877
2,1,3,1,-2,-1,-1,0,2021-08-06 13:49:25,503877
-2,-2,-1,-1,-3,-3,-3,-2,2021-08-06 13:49:25,503877
-3,-1,-2,-2,-4,-2,-3,-2,2021-08-06 13:49:25,503877
-2,-3,-3,-2,0,0,-2,-2,2021-08-06 13:49:25,519900
-2,-4,-2,-1,-1,0,0,-1,2021-08-06 13:49:25,519900
-1,0,-2,-4,-5,-3,2,1,2021-08-06 13:49:25,519900
0,0,1,-1,-2,1,1,1,2021-08-06 13:49:25,519900
-1,-1,0,0,-1,0,-2,-2,2021-08-06 13:49:25,535840
-1,-1,-2,0,-2,-2,0,-1,2021-08-06 13:49:25,535840
-1,-2,0,-1,-3,1,0,1,2021-08-06 13:49:25,551885
3,0,2,7,10,4,2,0,2021-08-06 13:49:25,551885
-1,0,-1,0,0,-1,0,-2,2021-08-06 13:49:25,566892
-2,-4,-3,-2,-6,-3,-3,-2,2021-08-06 13:49:25,582877
-2,-3,-2,-6,-3,-3,-2,-2,2021-08-06 13:49:25,598878
1,-1,0,-2,0,1,2,0,2021-08-06 13:49:25,598878
-1,1,0,0,2,2,0,0,2021-08-06 13:49:25,598878
-2,-1,-2,0,-1,-1,1,-2,2021-08-06 13:49:25,598878
0,-1,0,1,-3,-4,-1,0,2021-08-06 13:49:25,598878
-3,-2,-3,-6,-2,-3,0,-1,2021-08-06 13:49:25,598878
1,0,0,0,0,0,0,-1,2021-08-06 13:49:25,598878
-3,-3,-5,-3,-3,-1,-2,-2,2021-08-06 13:49:25,599882
-3,-1,-2,0,-2,-1,-1,0,2021-08-06 13:49:25,629890
-1,0,0,0,-4,-3,-1,-1,2021-08-06 13:49:25,661842
0,0,2,0,0,0,-1,2,2021-08-06 13:49:25,661842
0,-1,-1,-1,1,1,0,1,2021-08-06 13:49:25,661842
-1,0,0,1,2,0,-1,-2,2021-08-06 13:49:25,661842
-4,-5,-5,-7,-11,-6,-4,-4,2021-08-06 13:49:25,661842
-2,-1,0,4,6,5,1,-2,2021-08-06 13:49:25,661842
0,1,3,0,1,0,0,-2,2021-08-06 13:49:25,661842
-1,-1,-2,-3,-3,-2,1,-3,2021-08-06 13:49:25,661842
0,0,2,-2,-3,-1,-1,0,2021-08-06 13:49:25,661842
-1,-1,-3,-3,-4,-5,-1,-1,2021-08-06 13:49:25,661842
-3,-2,-2,-3,-2,1,-1,-1,2021-08-06 13:49:25,662867
2,1,1,-1,0,0,-1,1,2021-08-06 13:49:25,662867
-1,0,0,2,-2,-1,-2,0,2021-08-06 13:49:25,662867
-2,-3,-3,-4,-6,-4,-2,-1,2021-08-06 13:49:25,676877
0,0,0,5,11,5,1,1,2021-08-06 13:49:25,692890
0,1,0,0,0,0,0,-2,2021-08-06 13:49:25,724878
0,1,1,1,3,1,0,-1,2021-08-06 13:49:25,739883
-1,-1,-3,-2,-3,-1,-1,1,2021-08-06 13:49:25,755842
-1,0,-3,1,-5,-4,-1,0,2021-08-06 13:49:25,770841
-1,-3,-1,-6,-5,-4,-2,0,2021-08-06 13:49:25,770841
0,-1,0,-1,0,0,0,0,2021-08-06 13:49:25,770841
-2,-1,1,-1,-2,-2,0,-1,2021-08-06 13:49:25,770841
1,1,2,0,-1,0,0,0,2021-08-06 13:49:25,770841
-1,-1,-2,2,1,0,-1,-2,2021-08-06 13:49:25,770841
-4,-4,-3,-1,3,-1,-1,-2,2021-08-06 13:49:25,770841
-3,-5,-5,-3,-4,-2,-2,-3,2021-08-06 13:49:25,771841
3,4,5,3,2,2,1,1,2021-08-06 13:49:25,771841
1,0,0,0,-3,-1,1,-1,2021-08-06 13:49:25,771841
2,2,1,4,2,2,0,0,2021-08-06 13:49:25,771841
-2,-4,-2,-2,-2,0,-2,-2,2021-08-06 13:49:25,771841
-2,-4,-2,-5,-5,-5,-3,-3,2021-08-06 13:49:25,771841
-1,0,0,-1,0,-1,0,1,2021-08-06 13:49:25,771841
-1,1,1,3,4,3,1,0,2021-08-06 13:49:25,771841
2,-1,-1,-2,-3,-2,-1,-1,2021-08-06 13:49:25,771841
-3,-1,-2,-6,-4,-1,-1,0,2021-08-06 13:49:25,772842
-1,-2,-1,3,1,0,-2,-1,2021-08-06 13:49:25,785838
-2,-3,-3,-3,-5,-5,-1,-2,2021-08-06 13:49:25,785838
0,1,0,-1,-1,-1,-1,-1,2021-08-06 13:49:25,801877
-1,-1,-1,-1,-1,0,1,0,2021-08-06 13:49:25,817877
-2,-2,-2,-2,-3,-2,-2,-2,2021-08-06 13:49:25,817877
-2,-2,-2,-1,-3,-1,-1,-1,2021-08-06 13:49:25,817877
2,2,3,1,2,1,0,1,2021-08-06 13:49:25,817877
0,-1,-3,0,0,-1,0,1,2021-08-06 13:49:25,817877
-1,0,0,-1,-2,-1,-1,-1,2021-08-06 13:49:25,817877
-1,0,1,2,5,1,0,-1,2021-08-06 13:49:25,817877
-3,-3,-3,-5,-4,-3,-3,-2,2021-08-06 13:49:25,849878
0,-1,-2,0,0,0,-2,-1,2021-08-06 13:49:25,852877
-1,0,0,-1,-2,-2,0,0,2021-08-06 13:49:25,852877
-3,-3,-1,-6,-7,-4,-1,-2,2021-08-06 13:49:25,852877
0,1,1,0,-1,-1,2,-1,2021-08-06 13:49:25,853842
-1,0,0,5,5,3,0,-1,2021-08-06 13:49:25,853842
0,1,-1,-3,5,3,1,-1,2021-08-06 13:49:25,865843
2,0,0,0,-2,-1,-2,-1,2021-08-06 13:49:25,865843
-3,-3,-2,-1,-1,0,0,0,2021-08-06 13:49:25,881878
-1,-1,0,-2,-6,-5,-2,-2,2021-08-06 13:49:25,881878
-1,0,0,0,-1,-1,-2,-1,2021-08-06 13:49:25,881878
-1,1,0,0,2,0,0,-1,2021-08-06 13:49:25,881878
-1,-1,-1,-3,-8,-4,-2,-1,2021-08-06 13:49:25,897841
0,0,-2,0,-2,-2,0,-2,2021-08-06 13:49:25,897841
2,0,1,8,18,6,2,1,2021-08-06 13:49:25,897841
-4,-5,-5,-4,-5,-3,-3,-3,2021-08-06 13:49:25,897841
1,0,1,3,4,3,-1,0,2021-08-06 13:49:25,928878
1,3,2,0,-1,0,2,0,2021-08-06 13:49:25,943878
-1,1,-1,-4,-5,-2,-1,-1,2021-08-06 13:49:25,943878
-1,-2,-1,-1,-2,-1,-1,0,2021-08-06 13:49:25,943878
-3,-2,-2,-5,-1,-5,-3,-2,2021-08-06 13:49:25,943878
-2,-3,0,0,1,-2,-3,-1,2021-08-06 13:49:25,943878
-2,-3,-1,1,-2,1,-3,-1,2021-08-06 13:49:25,943878
-4,-6,-6,-6,-7,-5,-3,-3,2021-08-06 13:49:25,943878
2,3,4,2,1,1,1,2,2021-08-06 13:49:25,959877
2,2,3,3,5,3,2,2,2021-08-06 13:49:25,959877
-1,-1,-2,-3,-5,-3,0,-3,2021-08-06 13:49:25,959877
-1,0,-1,-1,-1,-2,0,0,2021-08-06 13:49:25,959877
-3,-3,-4,-1,-3,-2,-1,0,2021-08-06 13:49:25,990843
-3,-3,-3,-4,-6,-4,-3,-1,2021-08-06 13:49:26,005890
-4,-6,-5,-7,-8,-6,-4,-3,2021-08-06 13:49:26,021842
7,9,8,9,14,8,5,5,2021-08-06 13:49:26,021842
3,3,2,2,3,2,2,0,2021-08-06 13:49:26,021842
-2,-3,-5,-2,-1,0,-2,0,2021-08-06 13:49:26,021842
-1,-3,-5,-6,-7,-4,-2,-1,2021-08-06 13:49:26,021842
-3,-3,-1,-4,-4,-4,-3,-2,2021-08-06 13:49:26,021842
-2,-1,-1,0,3,1,-1,-2,2021-08-06 13:49:26,021842
-3,-1,1,-3,-4,-2,-4,-4,2021-08-06 13:49:26,022879
-3,-2,1,3,-1,-2,0,-3,2021-08-06 13:49:26,022879
2,1,3,5,2,0,-1,0,2021-08-06 13:49:26,022879
0,1,1,5,6,2,-1,0,2021-08-06 13:49:26,052894
-3,-3,-4,-5,-5,-3,-1,-3,2021-08-06 13:49:26,068893
-3,-2,-5,-7,-4,-1,-1,0,2021-08-06 13:49:26,084892
0,1,1,4,7,4,2,2,2021-08-06 13:49:26,084892
1,0,-1,-1,-5,0,1,3,2021-08-06 13:49:26,084892
-1,-1,-2,0,-1,-3,0,0,2021-08-06 13:49:26,084892
2,3,2,4,3,1,3,2,2021-08-06 13:49:26,084892
-4,-3,-5,-6,-9,-4,-4,-4,2021-08-06 13:49:26,084892
-3,-4,-4,-3,-1,-2,0,-2,2021-08-06 13:49:26,084892
-1,-2,-2,-2,0,-2,-2,-1,2021-08-06 13:49:26,085877
-1,-3,-1,-5,-3,-2,-1,0,2021-08-06 13:49:26,085877
0,0,1,1,-1,0,0,0,2021-08-06 13:49:26,085877
-1,-1,0,1,-2,1,-1,-2,2021-08-06 13:49:26,100878
-1,-1,-2,-3,-5,-3,-2,-2,2021-08-06 13:49:26,116893
0,0,3,5,3,0,0,0,2021-08-06 13:49:26,116893
-1,-2,-2,-1,0,0,0,0,2021-08-06 13:49:26,116893
-2,-3,-1,-4,-5,-4,-3,-2,2021-08-06 13:49:26,116893
0,0,0,1,0,3,1,1,2021-08-06 13:49:26,116893
-1,0,-2,-4,-4,-3,0,-2,2021-08-06 13:49:26,116893
1,0,-2,2,0,-1,-1,-1,2021-08-06 13:49:26,116893
0,0,-2,0,-1,-1,-2,-1,2021-08-06 13:49:26,146842
-3,-2,0,-2,-1,-3,-2,-2,2021-08-06 13:49:26,161842
2,0,1,2,-1,1,0,0,2021-08-06 13:49:26,161842
0,1,1,5,11,6,4,1,2021-08-06 13:49:26,161842
-1,-1,-2,-3,0,-1,-2,-2,2021-08-06 13:49:26,161842
0,0,1,2,1,0,0,0,2021-08-06 13:49:26,161842
-1,-3,-3,-4,-6,-6,-3,-1,2021-08-06 13:49:26,161842
1,0,-2,-9,-10,-4,0,-1,2021-08-06 13:49:26,161842
-1,0,2,10,11,5,1,-1,2021-08-06 13:49:26,192891
0,1,-1,-3,-3,-1,1,1,2021-08-06 13:49:26,208877
-4,-3,-3,0,2,1,-2,-1,2021-08-06 13:49:26,217893
-2,-2,-2,-4,-7,-5,-4,-2,2021-08-06 13:49:26,217893
1,2,-1,-5,-7,-5,-2,0,2021-08-06 13:49:26,218882
1,0,0,1,3,1,0,0,2021-08-06 13:49:26,218882
2,2,2,2,-1,1,0,1,2021-08-06 13:49:26,218882
-2,-4,-2,-1,1,-1,-1,-2,2021-08-06 13:49:26,218882
0,0,0,-1,-3,-1,2,0,2021-08-06 13:49:26,218882
0,1,2,-2,-8,-4,0,-2,2021-08-06 13:49:26,218882
1,1,2,7,22,9,2,0,2021-08-06 13:49:26,218882
-2,-3,-1,0,-1,-1,-1,-2,2021-08-06 13:49:26,218882
-4,-5,-4,-3,-4,-4,-3,-2,2021-08-06 13:49:26,255892
-5,-4,-1,-4,-6,-5,-3,-2,2021-08-06 13:49:26,270877
1,0,0,-1,-6,0,-1,-1,2021-08-06 13:49:26,270877
-1,0,0,1,0,0,-1,-2,2021-08-06 13:49:26,270877
-1,0,1,-1,0,-1,0,-1,2021-08-06 13:49:26,270877
-5,-4,-4,-2,0,-3,-2,-2,2021-08-06 13:49:26,270877
-4,-3,-2,-4,-8,-4,-1,-1,2021-08-06 13:49:26,270877
0,-2,-2,-4,-3,1,2,0,2021-08-06 13:49:26,270877
1,2,-1,2,1,1,-3,2,2021-08-06 13:49:26,285840
1,-1,-1,-2,-1,-3,-5,-3,2021-08-06 13:49:26,285840
-3,-3,-4,-3,-2,-6,-6,-5,2021-08-06 13:49:26,285840
1,2,-1,-2,-1,-1,4,2,2021-08-06 13:49:26,285840
1,0,-1,-1,2,5,4,2,2021-08-06 13:49:26,301842
-5,-3,-2,0,4,-1,-4,-5,2021-08-06 13:49:26,301842
-5,-1,-1,-2,-2,-3,-2,-2,2021-08-06 13:49:26,317890
0,0,-1,-3,-4,-1,-2,-2,2021-08-06 13:49:26,317890
0,-1,0,0,1,1,2,0,2021-08-06 13:49:26,317890
4,-1,0,2,3,5,5,4,2021-08-06 13:49:26,317890
-2,-2,-1,0,-3,-3,-2,-2,2021-08-06 13:49:26,317890
-3,-2,-2,0,-1,-3,-4,-3,2021-08-06 13:49:26,317890
-1,-2,-3,-5,0,0,0,0,2021-08-06 13:49:26,348879
8,9,7,8,11,9,7,6,2021-08-06 13:49:26,348879
-3,-4,-1,1,-4,-4,-2,-3,2021-08-06 13:49:26,348879
-1,-2,-2,-2,-3,-2,-3,1,2021-08-06 13:49:26,348879
-6,-6,-6,-4,-6,-4,-4,-4,2021-08-06 13:49:26,364878
-1,0,-3,-4,-6,-1,-2,-3,2021-08-06 13:49:26,364878
0,1,-2,-3,-1,-1,1,0,2021-08-06 13:49:26,364878
1,2,2,1,2,3,2,2,2021-08-06 13:49:26,364878
-4,-4,-5,-6,-6,-4,0,-4,2021-08-06 13:49:26,380881
2,2,1,2,0,-1,-4,1,2021-08-06 13:49:26,396840
-6,-5,-3,-3,-4,-5,-8,-6,2021-08-06 13:49:26,396840
-3,-1,-2,-2,-1,-3,-3,-1,2021-08-06 13:49:26,396840
-1,-1,-1,-3,-7,-2,0,0,2021-08-06 13:49:26,396840
0,0,-1,4,8,6,6,2,2021-08-06 13:49:26,396840
-2,-2,-3,-5,-6,-5,-4,-4,2021-08-06 13:49:26,396840
3,4,3,1,7,3,4,2,2021-08-06 13:49:26,397841
1,0,2,3,0,-1,-1,0,2021-08-06 13:49:26,428892
-1,0,-1,-3,-7,-7,-4,-3,2021-08-06 13:49:26,444881
1,-1,-1,-1,0,3,1,1,2021-08-06 13:49:26,444881
-6,-6,-7,-6,-8,-7,-6,-5,2021-08-06 13:49:26,444881
1,3,3,0,1,1,0,1,2021-08-06 13:49:26,444881
-2,-4,-2,3,3,2,0,-1,2021-08-06 13:49:26,444881
2,1,-2,-3,0,3,5,2,2021-08-06 13:49:26,444881
0,2,3,7,8,6,3,-1,2021-08-06 13:49:26,444881
-2,-4,-3,0,-2,-4,-4,-3,2021-08-06 13:49:26,460841
-3,0,-1,-3,-6,-2,1,0,2021-08-06 13:49:26,476841
2,0,1,-1,3,2,1,1,2021-08-06 13:49:26,476841
0,0,-2,-1,-3,-2,-2,-1,2021-08-06 13:49:26,476841
-1,-1,-2,-1,2,-1,-2,-2,2021-08-06 13:49:26,476841
-3,-5,-4,1,-2,-3,-2,-2,2021-08-06 13:49:26,476841
-1,-1,-2,-4,-5,-2,-2,-2,2021-08-06 13:49:26,476841
5,4,3,2,0,1,1,4,2021-08-06 13:49:26,477841
-3,-3,-1,2,2,-2,-2,-4,2021-08-06 13:49:26,507877
1,-2,-1,-3,-3,0,-1,0,2021-08-06 13:49:26,507877
1,1,1,3,1,0,3,3,2021-08-06 13:49:26,507877
-3,-5,-5,-7,-9,-7,-4,-3,2021-08-06 13:49:26,507877
-3,-2,0,-1,-7,-3,-4,-3,2021-08-06 13:49:26,523841
0,0,-1,5,14,8,3,0,2021-08-06 13:49:26,523841
2,1,0,-5,-7,-3,0,-1,2021-08-06 13:49:26,523841
1,3,5,8,18,9,5,0,2021-08-06 13:49:26,523841
-2,-3,-5,-8,-11,-7,-4,-2,2021-08-06 13:49:26,539891
-3,-2,-3,-2,-5,-5,-4,-3,2021-08-06 13:49:26,539891
-2,-3,0,6,7,5,2,0,2021-08-06 13:49:26,539891
1,4,2,4,6,6,2,1,2021-08-06 13:49:26,539891
-2,-2,-2,-3,-4,-2,-2,-1,2021-08-06 13:49:26,571843
-3,-6,-4,-3,-3,-1,-2,-2,2021-08-06 13:49:26,571843
6,6,8,8,10,5,4,4,2021-08-06 13:49:26,571843
-5,-5,-1,-4,-9,-7,-4,-3,2021-08-06 13:49:26,571843
-3,-2,-3,-3,-1,-3,-1,-1,2021-08-06 13:49:26,571843
0,2,3,-3,-6,-1,0,2,2021-08-06 13:49:26,571843
-1,-2,-3,1,3,3,-1,-3,2021-08-06 13:49:26,578842
-5,-4,-4,-1,-3,-3,-3,-2,2021-08-06 13:49:26,579884
4,4,3,3,6,4,5,4,2021-08-06 13:49:26,602890
-1,-3,-5,-6,-7,-4,-2,-3,2021-08-06 13:49:26,618873
0,1,1,-2,-2,-1,-1,0,2021-08-06 13:49:26,618873
-3,-1,0,-5,-10,-6,-6,-2,2021-08-06 13:49:26,618873
1,1,0,4,13,7,2,0,2021-08-06 13:49:26,618873
0,0,0,5,9,5,2,0,2021-08-06 13:49:26,618873
-2,-3,-2,1,4,1,0,-1,2021-08-06 13:49:26,618873
2,-2,-2,-4,-7,-4,-2,-2,2021-08-06 13:49:26,618873
-1,0,1,1,1,1,0,0,2021-08-06 13:49:26,650890
2,4,2,-3,-4,0,1,-1,2021-08-06 13:49:26,650890
-3,-5,-7,-7,-7,-5,-4,-2,2021-08-06 13:49:26,650890
-3,-7,-5,-10,-16,-10,-6,-5,2021-08-06 13:49:26,650890
2,1,2,0,1,1,-1,-1,2021-08-06 13:49:26,666879
0,2,2,1,-2,-4,0,0,2021-08-06 13:49:26,666879
3,3,1,5,6,5,2,1,2021-08-06 13:49:26,666879
1,3,2,4,4,4,1,1,2021-08-06 13:49:26,666879
-2,-4,-3,-3,1,0,-2,-3,2021-08-06 13:49:26,682849
-4,-5,-4,-4,-4,-3,-2,-3,2021-08-06 13:49:26,682849
0,2,2,-2,-7,-3,-3,0,2021-08-06 13:49:26,682849
-1,-1,-2,-1,4,2,2,1,2021-08-06 13:49:26,682849
0,1,1,4,4,-1,-2,0,2021-08-06 13:49:26,697840
-5,-7,-8,-10,-10,-8,-6,-6,2021-08-06 13:49:26,712890
-1,-1,-1,-4,-7,-1,1,0,2021-08-06 13:49:26,728894
2,1,3,12,22,11,5,2,2021-08-06 13:49:26,728894
-1,-2,-3,-7,-7,-6,-1,-1,2021-08-06 13:49:26,728894
-1,-2,-1,-2,-5,-1,-1,0,2021-08-06 13:49:26,728894
-2,-2,-2,5,9,3,0,-2,2021-08-06 13:49:26,728894
0,0,-3,-6,-11,-7,-3,-2,2021-08-06 13:49:26,728894
2,3,2,8,5,4,3,2,2021-08-06 13:49:26,744881
-1,0,-1,-1,-1,-3,-2,-1,2021-08-06 13:49:26,744881
0,0,0,-3,-5,-2,-1,0,2021-08-06 13:49:26,744881
-3,-5,-7,-7,-8,-7,-5,-4,2021-08-06 13:49:26,744881
-1,-2,-1,-2,-1,-2,-3,-1,2021-08-06 13:49:26,760840
0,2,0,0,-1,-1,-1,2,2021-08-06 13:49:26,760840
-5,-4,-3,-3,-6,-3,-3,-2,2021-08-06 13:49:26,760840
5,6,5,10,13,7,6,3,2021-08-06 13:49:26,760840
-1,0,0,-4,-8,-3,-2,-3,2021-08-06 13:49:26,791881
0,1,2,4,6,4,1,0,2021-08-06 13:49:26,807877
-2,-3,-3,-3,0,-2,0,-1,2021-08-06 13:49:26,807877
-3,-4,-4,-4,-8,-6,-4,-5,2021-08-06 13:49:26,807877
1,1,-3,-6,-11,-4,-1,-1,2021-08-06 13:49:26,807877
0,-1,0,5,10,7,4,1,2021-08-06 13:49:26,807877
0,0,0,4,4,1,0,-3,2021-08-06 13:49:26,807877
-2,-3,-3,-1,-2,-4,0,0,2021-08-06 13:49:26,807877
-1,-2,-3,-4,-5,-4,-2,-1,2021-08-06 13:49:26,839878
-2,0,0,2,4,2,-2,-2,2021-08-06 13:49:26,855877
-1,-2,-3,-5,-8,-4,-3,-2,2021-08-06 13:49:26,871841
-1,-1,-2,-3,4,3,0,1,2021-08-06 13:49:26,871841
-3,-1,-3,-6,-7,-1,-2,-2,2021-08-06 13:49:26,871841
1,0,-1,0,-1,-2,1,1,2021-08-06 13:49:26,871841
0,-1,-1,2,3,-2,-2,0,2021-08-06 13:49:26,871841
-5,-4,-4,-8,-9,-7,-6,-4,2021-08-06 13:49:26,871841
0,1,4,3,3,-1,0,1,2021-08-06 13:49:26,871841
0,1,2,1,-3,-1,0,1,2021-08-06 13:49:26,871841
1,2,1,4,5,2,2,2,2021-08-06 13:49:26,872843
-2,-4,-5,-4,-10,-5,-2,-1,2021-08-06 13:49:26,872843
0,0,-1,1,6,4,4,1,2021-08-06 13:49:26,872843
-1,-3,-2,-1,2,0,0,-2,2021-08-06 13:49:26,872843
-2,-3,1,-1,-1,-2,-3,-3,2021-08-06 13:49:26,887876
-6,-6,-5,-1,-4,-5,-7,-7,2021-08-06 13:49:26,887876
-1,-1,1,1,-3,-1,-1,-2,2021-08-06 13:49:26,903878
5,8,6,2,1,2,3,3,2021-08-06 13:49:26,903878
1,2,3,5,4,4,2,0,2021-08-06 13:49:26,903878
0,2,4,0,0,-1,-1,0,2021-08-06 13:49:26,903878
-3,-3,-7,-4,-10,-6,-3,-1,2021-08-06 13:49:26,935877
-1,-5,-9,-9,-2,-2,-1,-2,2021-08-06 13:49:26,935877
1,0,0,8,15,7,1,1,2021-08-06 13:49:26,935877
-2,-1,1,0,2,4,3,-1,2021-08-06 13:49:26,935877
-1,-1,2,0,1,1,-1,-3,2021-08-06 13:49:26,935877
-2,-1,1,0,-6,-3,-2,-2,2021-08-06 13:49:26,935877
-2,-1,-4,-7,-10,-8,-5,-2,2021-08-06 13:49:26,939878
3,0,1,5,5,2,3,2,2021-08-06 13:49:26,939878
-2,-1,-3,-7,-7,-5,-3,-1,2021-08-06 13:49:26,967840
-3,-2,-3,-1,0,-1,-3,-2,2021-08-06 13:49:26,967840
0,0,-1,1,1,-1,0,-1,2021-08-06 13:49:26,967840
-1,-1,-1,-1,-4,-3,-2,-1,2021-08-06 13:49:26,967840
0,1,1,6,6,3,3,2,2021-08-06 13:49:26,982842
0,0,2,2,2,0,0,0,2021-08-06 13:49:26,982842
-3,-3,-5,-11,-10,-5,-4,-3,2021-08-06 13:49:26,982842
0,0,-3,4,7,4,0,-1,2021-08-06 13:49:26,982842
-5,-5,-5,-2,-2,-4,-3,-4,2021-08-06 13:49:26,998879
1,4,3,2,-2,0,-1,0,2021-08-06 13:49:27,014851
2,3,2,2,0,0,2,2,2021-08-06 13:49:27,014851
0,-1,-2,-5,-7,-2,-2,-1,2021-08-06 13:49:27,014851
-1,-1,0,0,4,2,-1,-1,2021-08-06 13:49:27,014851
-2,-6,-5,-3,-2,-4,-4,-2,2021-08-06 13:49:27,014851
-1,-2,1,0,2,2,0,-1,2021-08-06 13:49:27,030885
2,3,3,4,6,5,2,4,2021-08-06 13:49:27,030885
-6,-5,-7,-10,-11,-8,-6,-5,2021-08-06 13:49:27,046842
2,4,3,3,3,3,4,2,2021-08-06 13:49:27,046842
-1,0,1,0,-2,1,-2,0,2021-08-06 13:49:27,046842
-1,1,3,4,0,-1,-1,-1,2021-08-06 13:49:27,046842
0,0,-2,-3,-1,-2,-3,-1,2021-08-06 13:49:27,062877
-7,-7,-12,-13,-8,-6,-4,-5,2021-08-06 13:49:27,062877
1,-3,-4,-2,-2,-2,0,1,2021-08-06 13:49:27,094878
-2,-2,0,9,11,3,1,-1,2021-08-06 13:49:27,094878
3,4,8,3,8,5,2,2,2021-08-06 13:49:27,094878
-1,-1,-4,-10,-17,-9,-3,0,2021-08-06 13:49:27,094878
-2,-2,-2,-5,-6,-4,-3,-2,2021-08-06 13:49:27,094878
-4,-2,-2,0,2,-1,0,-3,2021-08-06 13:49:27,094878
2,1,2,3,0,3,4,1,2021-08-06 13:49:27,109846
1,-2,1,5,8,4,0,0,2021-08-06 13:49:27,109846
1,1,1,1,-1,0,0,-1,2021-08-06 13:49:27,109846
-3,-6,-5,-9,-13,-6,-3,-2,2021-08-06 13:49:27,109846
2,2,1,2,3,1,0,0,2021-08-06 13:49:27,124880
0,1,3,4,6,5,2,2,2021-08-06 13:49:27,124880
-2,-1,-1,-1,-1,-2,-2,-1,2021-08-06 13:49:27,124880
-2,-3,-4,-7,-8,-5,-4,-3,2021-08-06 13:49:27,124880
-1,0,-2,2,-1,-2,-1,1,2021-08-06 13:49:27,140843
-3,-3,-2,-1,3,0,-3,1,2021-08-06 13:49:27,140843
0,1,1,4,6,5,1,0,2021-08-06 13:49:27,140843
1,2,0,-1,-3,0,2,-1,2021-08-06 13:49:27,140843
-3,-4,-2,-1,2,0,0,-3,2021-08-06 13:49:27,171842
2,2,8,10,8,3,0,0,2021-08-06 13:49:27,171842
-4,-4,-6,-9,-10,-6,-5,-3,2021-08-06 13:49:27,171842
3,-1,-7,-8,-4,-2,-1,1,2021-08-06 13:49:27,171842
-5,-5,-2,-9,-8,-4,-4,-4,2021-08-06 13:49:27,171842
-2,1,7,2,4,1,-1,-2,2021-08-06 13:49:27,171842
-1,-2,-10,5,2,1,0,-3,2021-08-06 13:49:27,201877
-4,-2,-5,-3,-4,-3,-3,-2,2021-08-06 13:49:27,201877
-1,-1,-4,-4,-4,-2,-1,1,2021-08-06 13:49:27,201877
1,2,2,0,0,0,2,1,2021-08-06 13:49:27,201877
-2,-2,6,2,0,0,-1,-1,2021-08-06 13:49:27,201877
0,-1,0,0,-3,-4,-3,-2,2021-08-06 13:49:27,201877
1,1,0,6,6,4,2,1,2021-08-06 13:49:27,233884
-4,-3,-2,-1,-7,-4,-1,-2,2021-08-06 13:49:27,249877
-1,1,0,0,-1,0,2,0,2021-08-06 13:49:27,249877
-3,-5,-2,2,1,0,-2,-2,2021-08-06 13:49:27,249877
-2,0,0,0,-1,0,-2,0,2021-08-06 13:49:27,249877
1,3,0,-1,-5,-4,0,0,2021-08-06 13:49:27,249877
1,-1,-3,-6,-6,-4,1,2,2021-08-06 13:49:27,249877
-2,-3,-4,-1,7,4,1,1,2021-08-06 13:49:27,249877
0,1,2,5,8,3,2,1,2021-08-06 13:49:27,265843
-2,-3,-6,-4,0,-2,-2,-2,2021-08-06 13:49:27,265843
-1,-1,3,2,3,-2,-1,-1,2021-08-06 13:49:27,265843
2,4,7,3,2,0,1,2,2021-08-06 13:49:27,265843
0,0,-2,0,1,1,0,0,2021-08-06 13:49:27,296842
-1,-1,-3,0,-1,3,-1,0,2021-08-06 13:49:27,296842
-5,-5,-5,-11,-12,-9,-6,-4,2021-08-06 13:49:27,296842
-1,2,3,0,-2,0,1,0,2021-08-06 13:49:27,296842
1,0,1,5,8,3,2,1,2021-08-06 13:49:27,311875
-3,-4,-5,-8,-10,-5,-5,-4,2021-08-06 13:49:27,327843
-2,-4,-2,3,-2,-1,0,-1,2021-08-06 13:49:27,343881
2,3,0,-2,1,3,1,3,2021-08-06 13:49:27,343881
0,1,-1,-2,-3,-3,-2,-2,2021-08-06 13:49:27,343881
-4,-4,-3,-3,-1,-3,-4,-4,2021-08-06 13:49:27,343881
2,-1,0,-3,-1,0,0,1,2021-08-06 13:49:27,343881
-1,2,1,1,-2,-1,-1,-1,2021-08-06 13:49:27,343881
-2,-5,-4,-5,-11,-7,-3,-3,2021-08-06 13:49:27,344842
1,0,1,3,0,1,1,-1,2021-08-06 13:49:27,344842
1,1,0,1,3,3,1,1,2021-08-06 13:49:27,344842
-3,-4,-1,1,0,0,-2,0,2021-08-06 13:49:27,344842
2,4,2,0,2,3,0,1,2021-08-06 13:49:27,374841
-4,-3,-6,-4,-10,-6,-4,-2,2021-08-06 13:49:27,374841
-1,0,-2,-2,0,-1,-1,-1,2021-08-06 13:49:27,374841
1,0,0,-1,4,2,1,1,2021-08-06 13:49:27,374841
-2,-3,-2,3,2,0,1,1,2021-08-06 13:49:27,374841
-3,-2,-3,-5,-3,-3,-1,0,2021-08-06 13:49:27,374841
-1,2,2,-2,-4,-2,0,-1,2021-08-06 13:49:27,390843
-2,-2,-4,-5,-4,-4,-2,-2,2021-08-06 13:49:27,390843
-1,-2,0,4,3,2,0,-1,2021-08-06 13:49:27,406892
1,-3,-2,-3,-1,-1,-2,1,2021-08-06 13:49:27,406892
-1,-2,-2,-1,1,0,-1,1,2021-08-06 13:49:27,406892
-2,-3,-3,-7,-10,-5,-5,-5,2021-08-06 13:49:27,406892
-2,1,1,3,8,4,0,0,2021-08-06 13:49:27,438842
3,4,4,5,10,8,3,2,2021-08-06 13:49:27,438842
-4,-4,-3,-3,-4,-3,-3,-2,2021-08-06 13:49:27,438842
-1,0,2,3,0,0,2,1,2021-08-06 13:49:27,438842
0,-2,-1,1,2,0,0,-2,2021-08-06 13:49:27,438842
-4,-4,-4,-7,-11,-7,-4,-5,2021-08-06 13:49:27,438842
2,3,1,0,0,0,1,1,2021-08-06 13:49:27,438842
1,-1,2,7,9,5,1,1,2021-08-06 13:49:27,438842
-2,-3,-4,-8,-8,-3,-4,0,2021-08-06 13:49:27,469878
-4,-5,-2,-3,-1,-5,-3,-3,2021-08-06 13:49:27,469878
2,3,2,2,-1,0,0,0,2021-08-06 13:49:27,469878
-3,-1,-2,-1,-5,-4,-4,-3,2021-08-06 13:49:27,469878
3,1,1,-3,0,1,2,0,2021-08-06 13:49:27,501877
-3,-4,-4,-4,-2,-2,-3,-3,2021-08-06 13:49:27,501877
-5,-3,-3,-3,-2,-4,-3,-5,2021-08-06 13:49:27,501877
2,5,4,-1,-2,2,3,2,2021-08-06 13:49:27,501877
-2,1,-2,1,-1,-1,1,-2,2021-08-06 13:49:27,501877
0,-2,-3,-2,-2,-1,-1,0,2021-08-06 13:49:27,501877
0,0,1,-1,-2,-4,0,1,2021-08-06 13:49:27,501877
-3,-3,-3,1,9,4,0,-1,2021-08-06 13:49:27,501877
-3,-2,-2,-4,-7,-7,-3,-2,2021-08-06 13:49:27,531883
0,1,2,5,5,6,2,1,2021-08-06 13:49:27,531883
3,2,1,0,-1,1,0,0,2021-08-06 13:49:27,531883
-1,-3,-2,-3,-6,-2,-1,-1,2021-08-06 13:49:27,531883
1,0,3,0,1,0,0,2,2021-08-06 13:49:27,547840
0,2,2,4,2,0,-1,0,2021-08-06 13:49:27,547840
-3,-3,-6,-5,-8,-4,-4,-4,2021-08-06 13:49:27,547840
-1,-1,-6,-5,0,-1,0,0,2021-08-06 13:49:27,547840
-3,-5,-11,-13,-8,-5,-4,-3,2021-08-06 13:49:27,563877
-1,-1,1,0,-3,-3,1,0,2021-08-06 13:49:27,579878
2,3,7,9,11,9,3,3,2021-08-06 13:49:27,579878
-3,0,1,4,4,1,-1,-1,2021-08-06 13:49:27,579878
-1,-1,2,4,1,2,1,0,2021-08-06 13:49:27,579878
0,0,-2,-4,0,0,-1,0,2021-08-06 13:49:27,579878
-2,-2,0,0,1,0,0,-2,2021-08-06 13:49:27,579878
1,-2,0,3,0,0,-2,-2,2021-08-06 13:49:27,580877
-3,-3,-2,-4,-6,-5,-4,-4,2021-08-06 13:49:27,609878
0,0,-1,2,1,0,-1,0,2021-08-06 13:49:27,625884
-1,-3,-3,-3,-4,-4,-4,-2,2021-08-06 13:49:27,625884
-2,0,0,0,6,3,0,1,2021-08-06 13:49:27,625884
0,0,-2,0,-8,-3,-2,0,2021-08-06 13:49:27,625884
3,3,0,1,7,5,2,1,2021-08-06 13:49:27,625884
-2,-2,-4,-6,-9,-7,-4,-2,2021-08-06 13:49:27,625884
-2,-5,-2,-5,-9,-7,-2,-1,2021-08-06 13:49:27,625884
0,1,0,0,-1,-1,-1,1,2021-08-06 13:49:27,641890
-1,0,2,5,8,3,1,0,2021-08-06 13:49:27,641890
-1,-1,0,2,3,0,-1,0,2021-08-06 13:49:27,641890
-1,-2,-3,-1,-6,-3,-2,-1,2021-08-06 13:49:27,641890
3,1,1,3,7,4,3,0,2021-08-06 13:49:27,660841
1,-1,-2,-7,-8,-5,-2,-1,2021-08-06 13:49:27,660841
-3,-3,-3,-2,-3,-3,-3,-4,2021-08-06 13:49:27,688878
-2,-3,-2,-3,-4,-5,-3,-3,2021-08-06 13:49:27,688878
2,3,2,3,0,0,0,2,2021-08-06 13:49:27,703890
1,2,3,2,0,-2,3,1,2021-08-06 13:49:27,719799
2,3,6,11,8,6,4,2,2021-08-06 13:49:27,719799
0,-1,1,2,1,-1,-1,-1,2021-08-06 13:49:27,719799
-3,-4,-3,-3,-2,-1,-2,-2,2021-08-06 13:49:27,719799
-5,-6,-9,-18,-19,-11,-7,-5,2021-08-06 13:49:27,719799
-2,-5,-12,-3,1,-1,0,-1,2021-08-06 13:49:27,719799
2,1,2,3,3,2,2,1,2021-08-06 13:49:27,719799
0,-2,0,8,16,6,2,0,2021-08-06 13:49:27,719799
-1,-1,4,7,3,1,-1,0,2021-08-06 13:49:27,719799
-4,1,3,0,-4,-2,-3,-3,2021-08-06 13:49:27,735819
-4,-1,-2,-3,-8,-6,-4,-4,2021-08-06 13:49:27,735819
-1,1,-1,-3,-1,-2,0,0,2021-08-06 13:49:27,751816
-2,-1,-2,-4,-4,-3,-3,-3,2021-08-06 13:49:27,767819
2,0,0,1,4,3,2,1,2021-08-06 13:49:27,767819
3,5,2,3,10,5,1,2,2021-08-06 13:49:27,767819
-2,-2,-3,-10,-19,-9,-2,0,2021-08-06 13:49:27,767819
-1,-2,-2,4,4,2,2,-1,2021-08-06 13:49:27,767819
0,0,2,1,3,1,-1,0,2021-08-06 13:49:27,767819
-2,-1,-1,-5,-7,-4,-2,-2,2021-08-06 13:49:27,767819
-2,-3,0,-5,-4,-2,-3,-3,2021-08-06 13:49:27,799805
-3,-5,-6,-8,-10,-7,-5,-5,2021-08-06 13:49:27,815771
1,0,0,0,3,2,2,2,2021-08-06 13:49:27,815771
-3,-2,-3,-4,-5,-2,-1,-1,2021-08-06 13:49:27,815771
-2,2,3,8,7,3,-1,-1,2021-08-06 13:49:27,815771
2,3,7,6,6,3,2,2,2021-08-06 13:49:27,815771
-2,-2,-5,-9,-12,-7,-4,-1,2021-08-06 13:49:27,815771
2,0,-1,5,10,6,2,3,2021-08-06 13:49:27,815771
0,0,1,7,10,7,3,-1,2021-08-06 13:49:27,830822
-1,-3,-3,-2,-3,-4,-3,-2,2021-08-06 13:49:27,830822
-1,-2,-1,0,5,1,1,0,2021-08-06 13:49:27,830822
0,-3,-2,-5,-11,-6,-2,-3,2021-08-06 13:49:27,830822
0,1,-1,-4,-9,-5,-1,-1,2021-08-06 13:49:27,846773
1,3,2,6,9,5,2,1,2021-08-06 13:49:27,846773
-1,-2,-4,-6,-7,-5,-2,-2,2021-08-06 13:49:27,846773
-3,-4,-5,-8,-6,-5,-3,-4,2021-08-06 13:49:27,846773
-3,-4,-5,-7,-9,-7,-4,-3,2021-08-06 13:49:27,862768
0,1,1,2,1,2,0,1,2021-08-06 13:49:27,877805
-1,0,-1,-1,1,2,1,0,2021-08-06 13:49:27,877805
3,5,5,8,8,5,3,3,2021-08-06 13:49:27,877805
-1,-1,-2,-3,-3,-5,-4,-2,2021-08-06 13:49:27,909805
-1,-2,-5,-5,-6,-4,-1,0,2021-08-06 13:49:27,909805
-1,0,0,1,4,2,0,-1,2021-08-06 13:49:27,909805
-1,0,3,1,2,1,0,1,2021-08-06 13:49:27,909805
0,0,0,0,1,0,0,0,2021-08-06 13:49:27,909805
-3,-3,-4,-5,-8,-5,-3,-2,2021-08-06 13:49:27,909805
-1,-2,-1,-2,-3,-2,0,-2,2021-08-06 13:49:27,909805
-3,-2,-4,-4,-6,-4,-3,-2,2021-08-06 13:49:27,910769
2,2,1,0,4,4,4,2,2021-08-06 13:49:27,925806
-1,0,-1,-1,-1,-2,0,0,2021-08-06 13:49:27,941818
-1,-4,-3,-4,-6,-6,-3,-2,2021-08-06 13:49:27,957805
-2,-3,1,2,-4,-1,0,-3,2021-08-06 13:49:27,957805
-4,-5,-6,-3,-6,-6,-5,-4,2021-08-06 13:49:27,957805
-1,-2,-5,-5,3,3,1,0,2021-08-06 13:49:27,957805
8,8,11,13,16,9,6,7,2021-08-06 13:49:27,973769
-1,0,1,1,-2,-3,-1,-2,2021-08-06 13:49:27,989817
-1,-1,0,-2,-5,-2,-2,1,2021-08-06 13:49:28,005434
-5,-7,-6,-5,-7,-6,-5,-4,2021-08-06 13:49:28,021432
-3,-4,-6,-4,-6,-4,-3,-3,2021-08-06 13:49:28,025423
2,2,3,5,1,0,0,0,2021-08-06 13:49:28,025423
2,2,0,-6,-1,0,0,0,2021-08-06 13:49:28,026421
1,0,-2,-3,4,3,2,2,2021-08-06 13:49:28,026421
-3,-4,-6,-3,-4,-1,-2,-2,2021-08-06 13:49:28,026421
-2,-1,1,3,2,3,0,0,2021-08-06 13:49:28,026421
0,0,6,10,6,2,1,-1,2021-08-06 13:49:28,026421
-1,0,-4,-1,-3,-2,-1,1,2021-08-06 13:49:28,026421
-1,-2,-3,-7,-6,-3,-3,-1,2021-08-06 13:49:28,026421
-4,-4,-5,-4,0,-1,-1,-1,2021-08-06 13:49:28,026421
-2,-3,-3,-1,-3,-2,-1,-1,2021-08-06 13:49:28,026421
2,3,8,10,9,4,2,1,2021-08-06 13:49:28,027385
-1,-1,-2,1,0,0,-1,-1,2021-08-06 13:49:28,027385
-4,-4,-7,-15,-15,-10,-6,-3,2021-08-06 13:49:28,027385
-1,0,2,5,6,5,2,0,2021-08-06 13:49:28,053386
0,0,-1,2,4,0,-1,0,2021-08-06 13:49:28,053386
2,2,3,5,-3,2,1,-1,2021-08-06 13:49:28,053386
1,2,2,1,7,2,1,1,2021-08-06 13:49:28,053386
-1,-3,-4,-6,-4,-4,-2,1,2021-08-06 13:49:28,069434
-6,-7,-5,-14,-15,-11,-7,-5,2021-08-06 13:49:28,085421
-1,-1,0,-1,0,-1,-3,0,2021-08-06 13:49:28,116419
-3,-5,-12,1,-3,-4,-4,-3,2021-08-06 13:49:28,116419
3,1,-3,-2,-1,-1,1,1,2021-08-06 13:49:28,116419
1,1,5,2,7,8,4,-1,2021-08-06 13:49:28,116419
-2,-4,0,-8,-12,-5,-2,-2,2021-08-06 13:49:28,116419
-2,-4,0,-10,-13,-6,-4,-2,2021-08-06 13:49:28,116419
0,-1,-1,9,6,5,1,0,2021-08-06 13:49:28,116419
2,1,1,8,7,3,2,0,2021-08-06 13:49:28,116419
1,1,4,2,2,0,0,1,2021-08-06 13:49:28,116419
2,2,2,1,0,1,0,2,2021-08-06 13:49:28,116419
-7,-6,-6,-10,-8,-8,-6,-4,2021-08-06 13:49:28,131424
1,2,0,1,1,1,1,2,2021-08-06 13:49:28,147425
0,1,0,6,9,5,1,1,2021-08-06 13:49:28,147425
-1,1,3,3,1,1,-2,0,2021-08-06 13:49:28,147425
-3,-4,-2,-10,-14,-10,-5,-3,2021-08-06 13:49:28,147425
-1,-1,-1,2,-1,0,-1,0,2021-08-06 13:49:28,147425
-1,-3,-3,1,3,1,0,0,2021-08-06 13:49:28,147425
1,0,1,3,12,8,2,1,2021-08-06 13:49:28,147425
-1,-1,2,-2,1,-1,-2,-2,2021-08-06 13:49:28,163385
-1,-1,-2,1,-3,0,0,1,2021-08-06 13:49:28,179424
-3,-3,-2,2,9,1,0,-1,2021-08-06 13:49:28,179424
1,1,7,8,6,4,2,2,2021-08-06 13:49:28,179424
1,1,1,4,2,0,1,0,2021-08-06 13:49:28,179424
-4,-3,-7,-11,-20,-13,-7,-6,2021-08-06 13:49:28,179424
-4,-3,-1,-17,-9,-7,-2,-3,2021-08-06 13:49:28,180387
0,-1,-9,2,3,-1,1,-3,2021-08-06 13:49:28,180387
2,4,9,11,9,6,3,2,2021-08-06 13:49:28,225420
-1,-2,-3,5,5,1,-1,-3,2021-08-06 13:49:28,241424
0,-3,-13,-17,-5,0,3,1,2021-08-06 13:49:28,257386
-8,-8,-12,-35,-25,-15,-9,-7,2021-08-06 13:49:28,257386
-1,-3,0,2,-4,-1,-1,-1,2021-08-06 13:49:28,257386
-1,0,8,9,0,-1,-2,-1,2021-08-06 13:49:28,257386
2,6,11,24,12,6,3,2,2021-08-06 13:49:28,257386
1,2,-1,-2,-7,-3,-1,1,2021-08-06 13:49:28,257386
0,1,-3,-1,2,5,3,-1,2021-08-06 13:49:28,257386
-2,-2,2,-1,-2,0,-2,1,2021-08-06 13:49:28,257386
-3,-4,-5,-5,-7,-4,-5,-3,2021-08-06 13:49:28,257386
-1,3,7,13,11,6,1,1,2021-08-06 13:49:28,257386
-2,-1,0,1,-2,-3,-3,-1,2021-08-06 13:49:28,272420
5,7,6,15,19,8,5,4,2021-08-06 13:49:28,288385
-2,2,8,-11,-13,-6,-4,-4,2021-08-06 13:49:28,288385
-2,-9,-27,-13,-7,-1,-2,-1,2021-08-06 13:49:28,288385
-6,-10,-7,-27,-1,0,-2,-2,2021-08-06 13:49:28,288385
-4,-4,-8,-3,-9,-6,-3,-3,2021-08-06 13:49:28,288385
-4,-11,-26,6,-4,-4,-4,-3,2021-08-06 13:49:28,288385
6,10,23,29,33,18,10,4,2021-08-06 13:49:28,288385
-4,-4,2,-8,-21,-16,-8,-4,2021-08-06 13:49:28,304385
1,2,8,-13,-19,-7,-1,1,2021-08-06 13:49:28,320384
3,3,-3,0,13,8,3,2,2021-08-06 13:49:28,320384
0,0,-7,-19,-8,-1,0,0,2021-08-06 13:49:28,320384
-8,-11,-3,-11,-29,-17,-11,-8,2021-08-06 13:49:28,320384
1,3,-4,7,9,6,3,2,2021-08-06 13:49:28,320384
0,4,9,23,30,16,7,3,2021-08-06 13:49:28,335420
-6,-6,-5,-1,0,-2,0,-4,2021-08-06 13:49:28,335420
4,7,6,0,-3,-4,-2,1,2021-08-06 13:49:28,351419
-4,-2,8,-9,-29,-16,-7,-4,2021-08-06 13:49:28,367420
4,3,3,17,18,11,4,2,2021-08-06 13:49:28,367420
4,8,7,7,16,10,7,5,2021-08-06 13:49:28,367420
-9,-12,-26,-24,-21,-15,-7,-6,2021-08-06 13:49:28,367420
-1,-3,4,2,4,0,0,0,2021-08-06 13:49:28,367420
2,2,4,-5,-9,-5,-2,0,2021-08-06 13:49:28,367420
-3,-3,-13,-5,-16,-9,-4,-3,2021-08-06 13:49:28,367420
3,3,5,-6,12,11,4,2,2021-08-06 13:49:28,393434
1,-5,-18,0,10,5,2,1,2021-08-06 13:49:28,394386
-4,2,17,9,-11,-8,-5,-4,2021-08-06 13:49:28,394386
2,4,30,29,8,-2,-2,-1,2021-08-06 13:49:28,394386
2,5,-15,-11,-13,-5,0,1,2021-08-06 13:49:28,415435
6,2,-15,-27,19,16,9,6,2021-08-06 13:49:28,431434
-9,-12,-11,-10,-16,-11,-7,-7,2021-08-06 13:49:28,462385
-2,-1,1,1,-4,-2,0,-1,2021-08-06 13:49:28,462385
0,3,22,28,28,13,6,2,2021-08-06 13:49:28,462385
-6,-4,-10,-9,-22,-16,-9,-6,2021-08-06 13:49:28,462385
-4,-5,-11,-18,-20,-14,-5,-2,2021-08-06 13:49:28,462385
-1,-3,0,0,5,5,1,-1,2021-08-06 13:49:28,462385
5,9,11,16,13,8,7,4,2021-08-06 13:49:28,462385
-1,1,4,5,2,0,-1,-2,2021-08-06 13:49:28,463386
1,0,-4,-2,-7,-4,-2,-3,2021-08-06 13:49:28,463386
-4,-3,-3,-7,-19,-13,-9,-4,2021-08-06 13:49:28,463386
4,9,10,37,34,17,7,4,2021-08-06 13:49:28,463386
5,7,10,12,3,5,4,4,2021-08-06 13:49:28,463386
-4,-7,-24,-75,-30,-13,-5,-1,2021-08-06 13:49:28,477389
-9,-15,-27,-36,-33,-18,-10,-7,2021-08-06 13:49:28,493433
-5,-7,-7,1,6,2,-2,-2,2021-08-06 13:49:28,493433
-2,1,11,31,24,9,1,-1,2021-08-06 13:49:28,493433
3,4,20,31,9,6,5,4,2021-08-06 13:49:28,493433
3,11,22,9,2,0,1,1,2021-08-06 13:49:28,493433
1,1,-17,-4,0,2,0,2,2021-08-06 13:49:28,509385
-2,-1,2,-3,-1,-3,-2,-2,2021-08-06 13:49:28,509385
-3,-4,-16,-5,-6,-5,-5,-3,2021-08-06 13:49:28,509385
-1,-7,-17,-11,3,5,1,-1,2021-08-06 13:49:28,509385
-1,-1,10,1,-15,-7,-4,-5,2021-08-06 13:49:28,541434
-1,3,8,-3,9,1,-2,-2,2021-08-06 13:49:28,557386
6,7,8,4,11,12,8,7,2021-08-06 13:49:28,557386
-7,-9,-10,-3,-14,-15,-8,-5,2021-08-06 13:49:28,557386
-2,-3,7,13,3,0,-1,-3,2021-08-06 13:49:28,557386
0,0,-12,-2,-14,-6,-1,-1,2021-08-06 13:49:28,557386
-4,-3,-6,-35,-14,-7,-3,-4,2021-08-06 13:49:28,557386
-1,-2,-10,-17,6,1,-1,0,2021-08-06 13:49:28,557386
-2,1,4,-8,-24,-12,-6,-3,2021-08-06 13:49:28,589382
7,6,17,51,53,23,11,6,2021-08-06 13:49:28,589382
3,0,1,23,0,1,0,1,2021-08-06 13:49:28,589382
0,-1,-6,-35,-2,7,4,3,2021-08-06 13:49:28,589382
-9,-12,-12,-31,-14,-13,-7,-6,2021-08-06 13:49:28,589382
0,3,-2,6,-14,-7,0,2,2021-08-06 13:49:28,589382
-4,0,3,-1,-8,-10,-5,-4,2021-08-06 13:49:28,589382
8,7,22,35,47,30,15,9,2021-08-06 13:49:28,590423
2,1,-11,20,13,7,4,3,2021-08-06 13:49:28,605428
-3,-3,-3,-27,-20,-9,-5,-4,2021-08-06 13:49:28,620427
-4,-5,-3,-2,-4,-5,-6,-4,2021-08-06 13:49:28,620427
-3,-3,-5,-10,-30,-18,-7,-5,2021-08-06 13:49:28,620427
0,1,5,12,28,11,5,3,2021-08-06 13:49:28,620427
1,1,3,11,1,-1,-1,-1,2021-08-06 13:49:28,620427
-2,-2,1,6,-2,-3,-2,-3,2021-08-06 13:49:28,635419
-2,-4,-12,-19,-12,-7,-5,-2,2021-08-06 13:49:28,635419
-6,-11,-22,-30,-20,-10,-6,-7,2021-08-06 13:49:28,651426
-3,-2,5,-4,-3,-3,-4,-5,2021-08-06 13:49:28,667420
3,4,9,22,18,8,4,2,2021-08-06 13:49:28,682396
1,-2,1,0,-9,-3,1,-1,2021-08-06 13:49:28,682396
-3,0,-3,-20,-11,-7,-3,0,2021-08-06 13:49:28,682396
0,-1,-2,4,9,6,4,1,2021-08-06 13:49:28,682396
1,7,13,9,8,3,0,0,2021-08-06 13:49:28,682396
3,2,-21,20,21,13,4,4,2021-08-06 13:49:28,682396
-3,-9,-2,-21,-16,-10,-7,-6,2021-08-06 13:49:28,682396
-8,-9,-15,-29,-39,-19,-10,-7,2021-08-06 13:49:28,682396
6,10,24,49,64,33,14,7,2021-08-06 13:49:28,682396
2,8,21,14,2,-2,-1,0,2021-08-06 13:49:28,682396
1,3,-9,-8,-13,-5,-1,-1,2021-08-06 13:49:28,713384
-7,-13,-18,-41,-13,-7,-7,-7,2021-08-06 13:49:28,728386
-7,-7,-13,-22,-27,-17,-7,-5,2021-08-06 13:49:28,728386
3,5,8,15,5,2,2,2,2021-08-06 13:49:28,728386
7,11,25,38,22,12,6,6,2021-08-06 13:49:28,728386
2,0,-5,8,12,6,3,3,2021-08-06 13:49:28,728386
-6,-13,-23,-41,-30,-15,-5,-5,2021-08-06 13:49:28,744436
-8,-10,-5,-12,-15,-15,-10,-8,2021-08-06 13:49:28,757386
3,3,4,8,1,4,5,3,2021-08-06 13:49:28,757386
4,8,13,20,23,12,7,4,2021-08-06 13:49:28,757386
7,9,14,22,16,8,4,3,2021-08-06 13:49:28,758386
-3,-4,-8,0,-6,-2,-3,-4,2021-08-06 13:49:28,758386
-3,-8,-12,-38,-17,-4,-3,-2,2021-08-06 13:49:28,776420
-14,-17,-30,-45,-48,-27,-17,-12,2021-08-06 13:49:28,792433
3,1,8,21,26,16,7,4,2021-08-06 13:49:28,792433
5,10,18,37,26,11,5,3,2021-08-06 13:49:28,792433
-2,0,-3,15,-1,-3,-2,-3,2021-08-06 13:49:28,792433
0,-2,3,-14,-2,2,1,0,2021-08-06 13:49:28,792433
-2,-2,-14,-21,-31,-19,-9,-3,2021-08-06 13:49:28,792433
-4,-4,-1,-6,-12,-7,-3,-4,2021-08-06 13:49:28,792433
6,6,16,35,43,24,8,5,2021-08-06 13:49:28,808411
0,3,14,33,1,-1,-1,-1,2021-08-06 13:49:28,824385
-1,-2,-9,-4,-16,-4,-1,-1,2021-08-06 13:49:28,839424
-2,-4,-13,-69,-16,-6,-5,-1,2021-08-06 13:49:28,839424
-6,-8,-17,-17,-2,-5,-3,-4,2021-08-06 13:49:28,839424
0,3,12,27,14,5,1,-1,2021-08-06 13:49:28,839424
0,-4,-4,17,5,-1,-1,0,2021-08-06 13:49:28,839424
-1,-1,-10,-8,-9,-3,-1,-1,2021-08-06 13:49:28,839424
-6,-9,-8,-31,-27,-14,-8,-6,2021-08-06 13:49:28,839424
-2,-2,-1,-1,-2,-3,-1,1,2021-08-06 13:49:28,840420
0,4,9,21,21,11,3,-1,2021-08-06 13:49:28,855435
2,3,11,20,3,-1,0,0,2021-08-06 13:49:28,855435
4,7,6,11,5,5,4,2,2021-08-06 13:49:28,871422
-2,-1,-10,-18,-7,-1,-1,-2,2021-08-06 13:49:28,887419
-5,-4,-2,-6,8,2,-3,-4,2021-08-06 13:49:28,903386
4,7,13,26,17,9,5,3,2021-08-06 13:49:28,903386
1,0,-4,18,6,1,0,1,2021-08-06 13:49:28,903386
-3,-10,-17,-49,-34,-16,-5,-2,2021-08-06 13:49:28,903386
-8,-8,-4,-35,-36,-19,-8,-7,2021-08-06 13:49:28,903386
-2,-3,-11,13,1,-3,0,-2,2021-08-06 13:49:28,903386
3,6,3,13,8,1,1,2,2021-08-06 13:49:28,903386
2,2,-6,5,23,15,7,1,2021-08-06 13:49:28,904384
-3,-7,-4,-24,-13,-6,-3,-4,2021-08-06 13:49:28,919433
-16,-17,3,-7,-12,-8,-9,-12,2021-08-06 13:49:28,919433
16,24,29,37,20,12,11,12,2021-08-06 13:49:28,919433
4,7,1,10,-1,1,1,2,2021-08-06 13:49:28,919433
-2,-6,-33,-30,-12,-7,-2,-1,2021-08-06 13:49:28,935385
-5,-7,-5,-11,-1,-4,-5,-6,2021-08-06 13:49:28,935385
-10,-13,-10,-14,-13,-8,-6,-7,2021-08-06 13:49:28,951416
-3,0,14,2,-2,-3,-3,-1,2021-08-06 13:49:28,951416
2,10,22,40,10,2,1,1,2021-08-06 13:49:28,951416
11,11,11,49,41,20,11,8,2021-08-06 13:49:28,951416
0,0,-6,-37,-3,2,2,-3,2021-08-06 13:49:28,983384
-1,-4,-6,-22,-13,-7,-2,-2,2021-08-06 13:49:28,998384
-7,-10,-19,-31,-27,-16,-6,-3,2021-08-06 13:49:28,998384
-1,-3,-7,-5,-10,-4,-4,0,2021-08-06 13:49:28,998384
-3,1,19,46,9,0,-3,-3,2021-08-06 13:49:28,998384
10,11,1,8,13,12,8,7,2021-08-06 13:49:28,998384
-5,-15,-20,-42,-22,-8,-3,-6,2021-08-06 13:49:28,998384
-5,-7,0,-19,-17,-8,-3,-3,2021-08-06 13:49:28,998384
-4,-7,-21,-2,7,3,1,-1,2021-08-06 13:49:29,014381
7,13,18,26,11,6,5,4,2021-08-06 13:49:29,014381
6,9,12,21,15,10,6,5,2021-08-06 13:49:29,014381
4,5,3,2,1,1,3,1,2021-08-06 13:49:29,014381
-6,-10,-5,-11,-13,-7,-7,-6,2021-08-06 13:49:29,030420
-5,-6,-6,-2,-2,-5,-4,-4,2021-08-06 13:49:29,030420
6,10,16,19,15,9,7,6,2021-08-06 13:49:29,046420
1,1,2,-2,-5,-3,-1,0,2021-08-06 13:49:29,062383
-4,-4,-3,-3,-12,-10,-6,-4,2021-08-06 13:49:29,078386
-8,-10,-13,-18,-9,-8,-7,-6,2021-08-06 13:49:29,094435
4,2,1,-12,12,11,5,3,2021-08-06 13:49:29,110420
-5,-6,-13,-16,-3,-1,-3,-2,2021-08-06 13:49:29,110420
0,3,3,11,3,-1,1,0,2021-08-06 13:49:29,110420
0,0,13,40,19,5,3,1,2021-08-06 13:49:29,110420
1,1,2,12,3,0,-2,0,2021-08-06 13:49:29,110420
-8,-10,-19,-58,-41,-20,-11,-8,2021-08-06 13:49:29,110420
8,5,1,0,29,16,8,7,2021-08-06 13:49:29,110420
-2,2,7,8,0,-1,-1,-1,2021-08-06 13:49:29,111385
1,1,8,33,14,3,3,-1,2021-08-06 13:49:29,111385
7,8,10,7,-5,1,4,1,2021-08-06 13:49:29,111385
-6,-9,-17,-23,-17,-11,-5,-4,2021-08-06 13:49:29,111385
-3,-8,-15,-18,-4,-4,-6,-5,2021-08-06 13:49:29,111385
4,9,9,17,17,12,7,5,2021-08-06 13:49:29,111385
0,2,8,14,13,4,-1,0,2021-08-06 13:49:29,111385
-3,-1,3,9,-16,-9,-4,-3,2021-08-06 13:49:29,122385
-2,2,1,-35,-7,-1,-1,0,2021-08-06 13:49:29,122385
-4,-3,-7,-2,-11,-10,-7,-4,2021-08-06 13:49:29,141433
5,7,7,12,5,3,3,3,2021-08-06 13:49:29,141433
-1,-5,-16,-19,-5,-1,-1,-1,2021-08-06 13:49:29,157386
-10,-15,-23,-2,-11,-11,-7,-6,2021-08-06 13:49:29,157386
-2,-2,10,6,-4,-5,-3,-1,2021-08-06 13:49:29,157386
-2,1,1,-4,8,6,3,0,2021-08-06 13:49:29,157386
5,4,11,14,14,9,3,1,2021-08-06 13:49:29,173423
1,0,-3,-7,-8,-2,0,2,2021-08-06 13:49:29,188420
-5,-4,-5,-8,-9,-7,-7,-4,2021-08-06 13:49:29,203386
4,7,21,50,25,11,4,5,2021-08-06 13:49:29,203386
6,5,-4,-12,1,3,5,5,2021-08-06 13:49:29,203386
-14,-26,-30,-49,-30,-12,-8,-9,2021-08-06 13:49:29,203386
7,7,10,5,3,2,1,2,2021-08-06 13:49:29,203386
-5,-5,-8,6,-13,-10,-6,-2,2021-08-06 13:49:29,204385
0,4,6,4,21,16,8,2,2021-08-06 13:49:29,219433
0,1,3,1,-5,-4,-3,-3,2021-08-06 13:49:29,235419
-5,-7,-7,-7,-6,-6,-4,-3,2021-08-06 13:49:29,265385
1,0,-4,-1,-1,-4,-1,-2,2021-08-06 13:49:29,281413
-2,1,1,-3,-18,-12,-5,-3,2021-08-06 13:49:29,281413
-4,-4,-3,-2,-5,-4,-2,-5,2021-08-06 13:49:29,281413
2,2,0,-1,14,13,6,3,2021-08-06 13:49:29,281413
-1,2,2,0,5,1,2,3,2021-08-06 13:49:29,281413
2,4,6,0,-8,-4,-1,1,2021-08-06 13:49:29,281413
-1,-2,-2,4,4,2,-2,-1,2021-08-06 13:49:29,281413
4,4,4,0,0,0,4,4,2021-08-06 13:49:29,282400
-2,-1,-4,-11,-7,-3,-1,-2,2021-08-06 13:49:29,282400
-3,-3,2,-5,-5,-6,-3,-1,2021-08-06 13:49:29,282400
5,6,6,32,32,14,7,5,2021-08-06 13:49:29,282400
-11,-12,-18,-27,-18,-8,-8,-9,2021-08-06 13:49:29,282400
2,-5,-8,-14,-10,-5,-3,2,2021-08-06 13:49:29,282400
-8,-7,-7,-16,-26,-15,-10,-6,2021-08-06 13:49:29,282400
5,8,12,16,16,10,6,3,2021-08-06 13:49:29,282400
-6,-6,-6,2,-1,-1,0,-2,2021-08-06 13:49:29,282400
0,-1,0,-4,7,4,2,-2,2021-08-06 13:49:29,282400
0,-5,-4,0,2,-2,-3,-2,2021-08-06 13:49:29,313385
5,10,13,14,-2,-2,0,2,2021-08-06 13:49:29,329420
8,15,26,35,18,7,4,5,2021-08-06 13:49:29,329420
-1,-2,-9,5,8,8,3,0,2021-08-06 13:49:29,329420
-5,-8,-17,-55,-24,-6,-3,-3,2021-08-06 13:49:29,329420
-9,-12,-12,-39,-28,-15,-11,-9,2021-08-06 13:49:29,329420
1,-1,-14,3,9,3,1,3,2021-08-06 13:49:29,329420
-5,-4,0,11,-5,-7,-4,-5,2021-08-06 13:49:29,329420
-8,-7,-10,-4,-14,-10,-6,-9,2021-08-06 13:49:29,345385
5,6,20,26,30,18,10,5,2021-08-06 13:49:29,345385
5,8,14,6,0,0,1,5,2021-08-06 13:49:29,360421
3,5,7,18,17,9,3,3,2021-08-06 13:49:29,360421
-1,0,0,1,0,-2,-3,-2,2021-08-06 13:49:29,376425
-7,-9,-24,-33,-34,-18,-10,-6,2021-08-06 13:49:29,376425
-1,-1,-4,4,10,1,-2,-4,2021-08-06 13:49:29,376425
3,3,-4,-17,6,4,3,0,2021-08-06 13:49:29,376425
-1,0,8,12,7,5,1,0,2021-08-06 13:49:29,392438
4,7,18,33,17,4,0,3,2021-08-06 13:49:29,392438
-3,-4,-8,2,-17,-8,-3,-2,2021-08-06 13:49:29,392438
-2,-2,-9,-39,-12,-4,-2,-1,2021-08-06 13:49:29,392438
-1,-3,-7,-22,-28,-15,-5,-3,2021-08-06 13:49:29,408435
-5,-8,-14,-13,-4,0,2,-3,2021-08-06 13:49:29,408435
3,6,23,58,47,20,8,2,2021-08-06 13:49:29,408435
6,11,15,45,29,15,7,6,2021-08-06 13:49:29,408435
0,-3,-17,-36,-3,4,2,2,2021-08-06 13:49:29,439421
-12,-20,-16,-37,-44,-29,-17,-11,2021-08-06 13:49:29,454433
-7,-12,-30,-34,-28,-18,-11,-8,2021-08-06 13:49:29,470421
-1,1,13,20,3,0,-1,-1,2021-08-06 13:49:29,470421
10,17,26,52,42,19,8,8,2021-08-06 13:49:29,470421
4,6,3,-3,-5,2,2,2,2021-08-06 13:49:29,470421
-10,-13,-13,-45,-30,-18,-12,-10,2021-08-06 13:49:29,470421
4,5,3,15,17,9,5,5,2021-08-06 13:49:29,470421
-1,0,9,15,-11,-10,-5,-1,2021-08-06 13:49:29,470421
9,9,9,33,33,22,13,9,2021-08-06 13:49:29,471420
1,-2,-9,-25,8,12,6,2,2021-08-06 13:49:29,471420
-12,-16,-16,-44,-42,-26,-15,-13,2021-08-06 13:49:29,471420
-8,-9,-2,3,-15,-16,-11,-8,2021-08-06 13:49:29,484385
12,19,24,47,46,25,14,10,2021-08-06 13:49:29,484385
0,-1,-14,-46,-24,-4,-1,1,2021-08-06 13:49:29,484385
-9,-17,-19,-24,-12,-8,-6,-6,2021-08-06 13:49:29,484385
-3,-4,-9,10,6,-2,-2,-3,2021-08-06 13:49:29,518420
0,4,12,30,17,6,2,1,2021-08-06 13:49:29,550420
2,3,5,0,-5,-3,-2,2,2021-08-06 13:49:29,550420
-4,-5,-2,-6,-13,-7,-6,-3,2021-08-06 13:49:29,550420
-6,-8,-5,-12,-12,-9,-6,-6,2021-08-06 13:49:29,566433
12,17,19,21,15,15,11,9,2021-08-06 13:49:29,566433
1,-2,-12,2,1,2,2,0,2021-08-06 13:49:29,566433
-3,-3,-4,-24,-17,-10,-4,-3,2021-08-06 13:49:29,566433
-6,-7,-4,12,3,-2,-4,-7,2021-08-06 13:49:29,566433
2,1,-5,-3,-19,-10,-4,1,2021-08-06 13:49:29,566433
3,9,29,13,25,10,5,0,2021-08-06 13:49:29,566433
4,-3,-9,-7,1,3,2,1,2021-08-06 13:49:29,566433
4,0,-17,-6,7,7,6,4,2021-08-06 13:49:29,567433
-10,-14,-7,-23,-12,-13,-9,-9,2021-08-06 13:49:29,567433
-7,-8,-14,6,-20,-13,-8,-7,2021-08-06 13:49:29,567433
1,7,28,18,14,10,2,2,2021-08-06 13:49:29,567433
1,-1,-6,0,16,12,7,4,2021-08-06 13:49:29,582395
-5,-7,-18,-35,-29,-18,-9,-6,2021-08-06 13:49:29,582395
-6,-6,-3,-11,-27,-18,-8,-7,2021-08-06 13:49:29,582395
-3,1,-2,4,-3,-4,-2,-3,2021-08-06 13:49:29,582395
5,8,18,17,14,11,5,5,2021-08-06 13:49:29,612414
3,3,1,2,6,5,1,1,2021-08-06 13:49:29,612414
-1,-7,-4,-4,-3,-3,-3,-3,2021-08-06 13:49:29,612414
0,1,-2,-8,-10,-5,-1,-1,2021-08-06 13:49:29,612414
-5,-3,-6,-1,-9,-6,-5,-3,2021-08-06 13:49:29,643424
3,2,4,17,31,15,6,5,2021-08-06 13:49:29,659385
7,16,32,30,20,10,6,5,2021-08-06 13:49:29,659385
2,0,-10,16,3,0,0,1,2021-08-06 13:49:29,659385
-6,-12,-24,-62,-25,-10,-6,-5,2021-08-06 13:49:29,659385
-18,-26,-35,-71,-55,-31,-18,-15,2021-08-06 13:49:29,659385
3,2,4,8,5,4,2,4,2021-08-06 13:49:29,659385
5,10,13,39,19,7,5,3,2021-08-06 13:49:29,659385
7,11,22,40,23,13,7,6,2021-08-06 13:49:29,675423
-6,-6,3,-13,-12,-5,-4,-6,2021-08-06 13:49:29,691434
-9,-11,-15,-23,-18,-11,-10,-5,2021-08-06 13:49:29,691434
0,0,-3,8,6,2,1,-1,2021-08-06 13:49:29,691434
6,8,14,19,23,12,5,6,2021-08-06 13:49:29,691434
7,8,5,17,17,12,7,6,2021-08-06 13:49:29,691434
-10,-17,-14,-26,-35,-20,-10,-9,2021-08-06 13:49:29,691434
-4,-5,-12,-29,-8,-5,-4,-3,2021-08-06 13:49:29,691434
3,3,3,7,22,9,5,1,2021-08-06 13:49:29,707392
6,10,14,24,16,7,5,3,2021-08-06 13:49:29,707392
4,4,10,28,24,10,3,2,2021-08-06 13:49:29,707392
-9,-9,-10,-8,-28,-17,-10,-6,2021-08-06 13:49:29,707392
7,8,13,-14,-3,1,2,4,2021-08-06 13:49:29,738385
-4,-3,-22,-27,-22,-7,-4,-3,2021-08-06 13:49:29,738385
-2,-3,-12,-23,13,8,3,0,2021-08-06 13:49:29,738385
-8,-10,-1,-3,-7,-8,-5,-6,2021-08-06 13:49:29,738385
-2,2,6,18,-12,-11,-5,-3,2021-08-06 13:49:29,753386
3,2,9,24,12,9,6,3,2021-08-06 13:49:29,753386
7,12,11,13,10,10,5,6,2021-08-06 13:49:29,753386
-1,-4,-2,-25,-5,1,-1,-2,2021-08-06 13:49:29,753386
-10,-11,-23,-17,-21,-14,-8,-6,2021-08-06 13:49:29,769422
0,4,13,12,8,-1,-1,2,2021-08-06 13:49:29,785384
-2,-4,-12,15,0,-2,-1,0,2021-08-06 13:49:29,785384
14,17,18,5,13,13,10,9,2021-08-06 13:49:29,785384
-1,-1,-2,-30,-25,-11,-5,-2,2021-08-06 13:49:29,785384
-8,-12,-12,-14,-21,-16,-10,-8,2021-08-06 13:49:29,785384
-2,0,10,21,15,6,2,0,2021-08-06 13:49:29,785384
8,6,8,51,44,23,11,8,2021-08-06 13:49:29,785384
-2,-5,-18,-47,-13,-1,0,-2,2021-08-06 13:49:29,817384
-3,-2,6,-6,-6,-6,-5,-2,2021-08-06 13:49:29,817384
-9,-13,-19,-17,-24,-14,-9,-8,2021-08-06 13:49:29,817384
4,4,-1,2,2,2,2,2,2021-08-06 13:49:29,817384
6,10,18,32,24,11,5,2,2021-08-06 13:49:29,833384
-1,-2,-4,-8,4,2,0,-1,2021-08-06 13:49:29,833384
-4,-3,3,-12,-8,-8,-5,-3,2021-08-06 13:49:29,833384
-11,-14,-24,-4,-8,-4,-4,-5,2021-08-06 13:49:29,833384
8,6,-1,2,5,7,7,9,2021-08-06 13:49:29,845457
1,4,8,4,-3,-4,-1,0,2021-08-06 13:49:29,845457
1,3,8,10,3,-2,-1,-1,2021-08-06 13:49:29,845457
-2,0,2,-5,-12,-9,-3,-1,2021-08-06 13:49:29,845457
-4,-8,-3,-3,2,2,-1,-3,2021-08-06 13:49:29,865421
-3,-5,-7,-2,-5,-2,-1,-3,2021-08-06 13:49:29,865421
10,11,19,30,32,20,12,9,2021-08-06 13:49:29,881385
