EMG 1,EMG 2,EMG 3,EMG 4,EMG 5,EMG 6,EMG 7,EMG 8,Timestamp,Milliseconds
0,0,0,0,0,-1,0,-1,2021-08-16 12:29:27,981842
0,-2,0,0,0,-1,1,-1,2021-08-16 12:29:27,981842
0,0,-1,0,-2,0,0,-2,2021-08-16 12:29:27,981842
0,0,-2,-2,-1,-2,-1,0,2021-08-16 12:29:27,981842
-3,-2,-1,-1,0,-1,-1,0,2021-08-16 12:29:27,981842
-1,0,-1,-3,-1,-1,0,-2,2021-08-16 12:29:27,981842
-1,0,1,-2,-1,-2,-2,-1,2021-08-16 12:29:27,982845
-2,0,-1,-1,-1,-2,0,-1,2021-08-16 12:29:27,982845
-1,0,-1,-1,0,0,-1,-1,2021-08-16 12:29:27,997841
-2,-1,-2,-1,-3,0,-1,0,2021-08-16 12:29:27,997841
0,-1,-1,0,-2,1,-2,0,2021-08-16 12:29:27,997841
0,0,0,0,-1,0,-3,0,2021-08-16 12:29:27,997841
0,0,0,-1,-1,0,-1,-2,2021-08-16 12:29:28,013843
-1,-1,1,-1,-1,-2,-2,-3,2021-08-16 12:29:28,013843
0,0,-1,0,0,-2,1,0,2021-08-16 12:29:28,013843
-2,-3,-1,0,-2,0,-2,-2,2021-08-16 12:29:28,013843
-1,-2,-1,-2,-1,0,0,0,2021-08-16 12:29:28,029845
-3,0,0,0,1,-1,-1,-1,2021-08-16 12:29:28,029845
-1,-1,-3,-1,0,-2,0,-1,2021-08-16 12:29:28,045849
0,-1,-2,-1,0,-1,0,-1,2021-08-16 12:29:28,061843
-1,-1,0,-1,0,-2,1,0,2021-08-16 12:29:28,093367
1,0,1,-2,0,0,1,-2,2021-08-16 12:29:28,093367
0,0,0,0,-1,0,-1,-1,2021-08-16 12:29:28,093367
0,-2,-2,0,-1,-1,-1,0,2021-08-16 12:29:28,093367
0,0,-2,0,-3,0,-2,0,2021-08-16 12:29:28,093367
-1,-2,0,0,-2,-2,-1,-1,2021-08-16 12:29:28,094365
-1,0,-2,-1,-2,-2,-2,-1,2021-08-16 12:29:28,094365
-2,0,1,-2,-1,-1,-1,-1,2021-08-16 12:29:28,094365
0,0,-1,-1,-1,-2,-1,-1,2021-08-16 12:29:28,094365
1,0,-3,-1,0,-2,-1,0,2021-08-16 12:29:28,094365
-1,0,1,-1,0,-1,-1,-1,2021-08-16 12:29:28,109365
-1,0,-1,-2,-1,0,-1,0,2021-08-16 12:29:28,109365
-1,1,-1,-1,-1,-1,-1,-1,2021-08-16 12:29:28,109365
-1,-1,1,-3,0,-1,-2,1,2021-08-16 12:29:28,109365
-1,-1,0,-2,-1,0,0,-1,2021-08-16 12:29:28,141364
0,0,0,-1,-1,-1,-1,-2,2021-08-16 12:29:28,141364
-3,-1,-1,-2,0,0,0,-1,2021-08-16 12:29:28,157365
1,0,-2,-2,-2,-1,-1,1,2021-08-16 12:29:28,172365
-1,-1,-1,0,-1,0,-1,0,2021-08-16 12:29:28,172365
-1,-2,-1,-1,0,-1,-1,0,2021-08-16 12:29:28,172365
-1,-1,0,1,1,0,0,-1,2021-08-16 12:29:28,188364
-2,-1,0,0,-1,-1,0,0,2021-08-16 12:29:28,204366
0,-1,-2,0,0,-1,0,-1,2021-08-16 12:29:28,220365
-1,0,0,0,-1,0,-2,-2,2021-08-16 12:29:28,233363
1,-1,-2,-1,0,1,-1,0,2021-08-16 12:29:28,233363
-2,-2,-2,-2,-1,1,-1,-2,2021-08-16 12:29:28,233363
-1,-1,0,0,0,-1,-2,-1,2021-08-16 12:29:28,234365
0,-1,-1,-2,-4,-1,-1,0,2021-08-16 12:29:28,234365
-1,0,-1,-1,-1,0,0,-2,2021-08-16 12:29:28,234365
-1,0,0,-1,-1,-3,0,0,2021-08-16 12:29:28,234365
0,0,-1,-3,-1,-1,-1,-3,2021-08-16 12:29:28,234365
0,0,-1,0,0,0,0,-1,2021-08-16 12:29:28,234365
0,-1,1,-2,-3,-1,-2,-1,2021-08-16 12:29:28,235364
1,-2,-2,-1,0,0,0,0,2021-08-16 12:29:28,235364
-1,-1,-1,-1,-1,-1,-1,0,2021-08-16 12:29:28,268365
-1,0,-1,0,0,-2,1,0,2021-08-16 12:29:28,284364
0,-2,-1,0,0,-2,-2,-2,2021-08-16 12:29:28,284364
-1,1,0,1,-1,1,-1,-1,2021-08-16 12:29:28,284364
-1,0,-2,-1,0,-2,-2,-1,2021-08-16 12:29:28,284364
-2,0,-1,0,-1,0,-1,-1,2021-08-16 12:29:28,285369
-2,-2,-1,-1,-1,-1,-1,0,2021-08-16 12:29:28,285369
-1,-2,0,1,-1,-1,-3,-1,2021-08-16 12:29:28,285369
-1,0,0,-2,0,0,0,-1,2021-08-16 12:29:28,300363
0,-1,-1,-1,-2,-1,-1,-1,2021-08-16 12:29:28,316365
-1,0,-1,0,1,-1,0,-3,2021-08-16 12:29:28,316365
-1,0,-1,-1,-1,0,0,-2,2021-08-16 12:29:28,316365
1,-2,0,-2,-2,-1,-1,-1,2021-08-16 12:29:28,316365
-1,-2,-1,-1,0,-1,-1,-1,2021-08-16 12:29:28,316365
-1,-1,0,-2,-2,-2,-2,-1,2021-08-16 12:29:28,332368
-1,0,-2,-2,1,-1,-1,-1,2021-08-16 12:29:28,348365
0,-1,-3,-1,-2,0,-1,-1,2021-08-16 12:29:28,348365
0,-1,0,-1,-2,-1,-2,-1,2021-08-16 12:29:28,348365
1,-1,-2,0,-1,-1,0,0,2021-08-16 12:29:28,348365
0,0,0,-2,-1,-2,-3,0,2021-08-16 12:29:28,348365
-2,0,-2,1,-1,0,0,-1,2021-08-16 12:29:28,348365
-1,-1,-1,-1,1,0,1,-1,2021-08-16 12:29:28,349365
0,-1,1,-2,-1,-2,0,1,2021-08-16 12:29:28,349365
-1,0,-1,-1,-2,-1,-1,-1,2021-08-16 12:29:28,349365
1,0,-1,-1,-2,-1,-1,0,2021-08-16 12:29:28,349365
-2,-1,-1,-1,-2,1,-1,-1,2021-08-16 12:29:28,349365
0,1,-1,0,0,-1,-2,1,2021-08-16 12:29:28,364366
0,-1,-1,-1,-3,-1,-1,-2,2021-08-16 12:29:28,364366
-2,-2,1,-1,-1,-1,1,0,2021-08-16 12:29:28,380364
0,-2,-1,-1,0,-1,-1,-1,2021-08-16 12:29:28,380364
0,-1,-1,0,0,0,-1,-1,2021-08-16 12:29:28,396365
0,0,-1,0,1,0,-3,-2,2021-08-16 12:29:28,396365
-1,0,-1,-1,-1,1,0,-2,2021-08-16 12:29:28,396365
0,0,1,-1,1,-1,-2,0,2021-08-16 12:29:28,396365
-2,-1,0,0,-2,-1,-1,-1,2021-08-16 12:29:28,396365
-1,-1,-1,0,0,0,1,-1,2021-08-16 12:29:28,397366
0,-2,0,0,-1,-2,1,-1,2021-08-16 12:29:28,412364
1,-1,-1,-3,-1,-1,0,0,2021-08-16 12:29:28,412364
-1,-1,-1,-1,0,0,-1,0,2021-08-16 12:29:28,412364
-3,0,0,-1,-1,0,-1,0,2021-08-16 12:29:28,412364
-1,-2,0,-1,-1,0,-1,0,2021-08-16 12:29:28,443364
-1,-1,0,1,0,-1,0,0,2021-08-16 12:29:28,459365
1,-2,0,-2,0,-1,-1,-2,2021-08-16 12:29:28,459365
0,-1,0,-1,0,-1,-1,-1,2021-08-16 12:29:28,459365
-1,-2,-1,0,-1,0,-3,-1,2021-08-16 12:29:28,459365
-1,1,-1,0,-1,0,-1,0,2021-08-16 12:29:28,459365
-1,0,-2,-1,-1,-1,0,1,2021-08-16 12:29:28,460368
-1,-1,0,-1,0,-1,-1,-2,2021-08-16 12:29:28,460368
-2,-1,-2,-1,-1,-2,0,1,2021-08-16 12:29:28,475367
0,0,-3,-1,-2,-2,-1,-1,2021-08-16 12:29:28,491365
0,-1,0,0,-2,0,-2,0,2021-08-16 12:29:28,491365
-1,0,1,0,-1,0,-1,0,2021-08-16 12:29:28,491365
0,-1,-1,-1,0,-1,-1,-3,2021-08-16 12:29:28,491365
-2,-1,-2,-1,-2,-1,-1,-3,2021-08-16 12:29:28,507365
0,0,-1,0,-1,1,-1,0,2021-08-16 12:29:28,507365
0,-1,-1,-2,-1,-2,-1,0,2021-08-16 12:29:28,538363
0,-1,-1,-1,2,-1,-2,-1,2021-08-16 12:29:28,538363
0,0,-1,-1,0,-1,0,-2,2021-08-16 12:29:28,538363
-1,-1,1,-1,1,0,-1,-1,2021-08-16 12:29:28,538363
0,-3,0,0,-2,0,1,-1,2021-08-16 12:29:28,538363
-1,0,-1,-1,0,-1,0,0,2021-08-16 12:29:28,538363
-1,0,0,0,0,0,0,0,2021-08-16 12:29:28,538363
0,1,-2,-1,-2,-2,-1,-2,2021-08-16 12:29:28,539366
0,0,-2,1,1,0,0,0,2021-08-16 12:29:28,539366
-1,-1,-2,-1,-1,-1,-1,1,2021-08-16 12:29:28,554365
-2,-2,-2,0,0,-2,0,-2,2021-08-16 12:29:28,554365
-2,-1,0,-2,-1,-1,-2,-1,2021-08-16 12:29:28,554365
-2,-1,-1,-1,-2,-1,0,0,2021-08-16 12:29:28,554365
-1,-1,1,-1,-1,-1,-1,-2,2021-08-16 12:29:28,586366
0,-1,-1,-2,-1,-1,0,0,2021-08-16 12:29:28,586366
-1,-2,-3,-3,-1,0,0,-1,2021-08-16 12:29:28,586366
0,1,-1,-3,-3,-1,0,-2,2021-08-16 12:29:28,586366
-1,0,-1,-1,-2,-1,0,0,2021-08-16 12:29:28,602364
-1,-1,1,-2,-1,-1,0,1,2021-08-16 12:29:28,618365
0,-2,-1,-2,1,-2,-2,-1,2021-08-16 12:29:28,634364
0,-2,-1,0,0,0,-3,0,2021-08-16 12:29:28,634364
-1,-1,-1,-1,0,0,0,-1,2021-08-16 12:29:28,634364
-1,-1,-1,0,-2,-2,-2,0,2021-08-16 12:29:28,634364
-1,-1,-1,1,-1,-1,1,-1,2021-08-16 12:29:28,634364
-1,0,-2,-1,0,-1,-2,0,2021-08-16 12:29:28,634364
1,-2,-1,-2,-2,0,0,-1,2021-08-16 12:29:28,635366
0,-1,-1,-1,-2,-1,-2,0,2021-08-16 12:29:28,635366
-2,0,0,-1,0,-1,-1,-1,2021-08-16 12:29:28,635366
-1,0,0,-2,-1,-1,-1,-1,2021-08-16 12:29:28,635366
-1,-1,0,-1,1,0,0,-1,2021-08-16 12:29:28,650366
-1,-1,-1,0,-1,1,0,-1,2021-08-16 12:29:28,650366
0,-2,-2,-1,-1,-1,-1,-1,2021-08-16 12:29:28,650366
-1,-1,-1,-1,-1,-2,-1,-1,2021-08-16 12:29:28,650366
-1,-1,-3,0,-1,-3,-1,0,2021-08-16 12:29:28,682365
-1,-1,0,-1,-2,0,0,-2,2021-08-16 12:29:28,682365
1,0,0,0,0,-1,-1,-2,2021-08-16 12:29:28,682365
-2,0,-1,-1,-2,-1,0,-1,2021-08-16 12:29:28,682365
-1,-1,1,-2,-2,-1,-2,-2,2021-08-16 12:29:28,698366
-1,0,1,0,1,-2,0,-1,2021-08-16 12:29:28,714365
-1,-1,0,-1,-2,-1,0,0,2021-08-16 12:29:28,730366
-1,-1,0,-1,-2,0,1,-1,2021-08-16 12:29:28,746367
0,-1,-1,0,-2,0,0,1,2021-08-16 12:29:28,762365
0,-2,-2,-1,-1,0,-1,-2,2021-08-16 12:29:28,762365
0,0,-1,-2,-1,-1,-1,0,2021-08-16 12:29:28,762365
-1,-2,0,-1,1,-1,0,-1,2021-08-16 12:29:28,762365
-2,-1,-1,0,-1,-1,0,-1,2021-08-16 12:29:28,762365
0,0,-1,-1,-3,1,-1,0,2021-08-16 12:29:28,763367
0,-1,-1,-1,-1,-1,-2,-2,2021-08-16 12:29:28,766365
-1,-3,1,-1,-1,-1,-2,-2,2021-08-16 12:29:28,766365
-1,-1,2,0,1,0,-1,-1,2021-08-16 12:29:28,767367
0,-1,-1,-1,-1,0,-2,1,2021-08-16 12:29:28,767367
-2,1,1,0,0,-2,-1,-1,2021-08-16 12:29:28,767367
-1,0,-2,-1,0,-1,-1,0,2021-08-16 12:29:28,767367
0,0,-2,0,-1,1,1,-3,2021-08-16 12:29:28,767367
-1,-1,-1,0,0,-1,-1,-2,2021-08-16 12:29:28,767367
-3,-2,1,1,-1,-1,-1,0,2021-08-16 12:29:28,794366
1,-1,0,-1,-1,0,-1,1,2021-08-16 12:29:28,794366
-1,0,-1,-1,-1,-1,-2,-1,2021-08-16 12:29:28,794366
-1,1,0,2,-1,-2,-2,-1,2021-08-16 12:29:28,794366
0,-1,-1,-2,-1,-1,-1,-1,2021-08-16 12:29:28,810365
-1,-1,-3,0,-1,0,-1,0,2021-08-16 12:29:28,810365
-1,1,-1,0,-1,-1,1,0,2021-08-16 12:29:28,826367
-1,-1,-1,-2,-1,0,0,1,2021-08-16 12:29:28,842365
-2,0,0,0,-1,-1,0,-1,2021-08-16 12:29:28,858365
-1,-1,-2,-1,0,-1,0,1,2021-08-16 12:29:28,858365
0,0,0,-1,-1,-1,-1,0,2021-08-16 12:29:28,874365
-2,0,-1,1,-1,-1,0,0,2021-08-16 12:29:28,874365
0,-1,-1,-1,0,-1,0,-1,2021-08-16 12:29:28,874365
-1,-1,-2,-2,-1,-1,-1,-2,2021-08-16 12:29:28,874365
1,-2,-2,1,-1,0,-1,-1,2021-08-16 12:29:28,874365
-1,-1,1,-1,1,-2,0,-1,2021-08-16 12:29:28,875366
1,0,-1,-1,-1,0,-1,-1,2021-08-16 12:29:28,875366
0,0,0,1,-1,-2,1,0,2021-08-16 12:29:28,875366
-1,-1,-1,-3,0,-1,-2,0,2021-08-16 12:29:28,875366
1,-2,-1,-3,-1,1,-1,-1,2021-08-16 12:29:28,890365
0,-2,-2,-1,0,0,-2,0,2021-08-16 12:29:28,890365
-2,-1,-1,-1,-3,-1,0,-1,2021-08-16 12:29:28,890365
0,-2,1,-2,-1,-1,0,0,2021-08-16 12:29:28,890365
0,0,0,-2,-1,-2,0,-1,2021-08-16 12:29:28,890365
-1,0,-1,0,-1,-1,-1,-1,2021-08-16 12:29:28,906366
0,-1,0,-1,-1,-1,0,0,2021-08-16 12:29:28,906366
-2,0,-1,1,-1,-1,-1,-1,2021-08-16 12:29:28,922367
-1,-2,-1,-2,-2,-1,-1,-1,2021-08-16 12:29:28,938365
-1,-1,0,-1,-1,-2,-1,0,2021-08-16 12:29:28,938365
-1,0,0,-1,0,0,-1,-2,2021-08-16 12:29:28,938365
-2,-1,0,-2,0,0,0,-1,2021-08-16 12:29:28,938365
-1,-1,0,-1,-1,0,0,-1,2021-08-16 12:29:28,938365
-1,-1,-2,-1,-1,0,-1,-2,2021-08-16 12:29:28,938365
0,-3,-1,-1,-2,0,-1,1,2021-08-16 12:29:28,939367
-2,-2,-2,-1,-1,1,0,-1,2021-08-16 12:29:28,954368
2,0,-1,0,-1,0,0,1,2021-08-16 12:29:28,970367
-1,-1,-3,-1,0,-2,0,-1,2021-08-16 12:29:28,985400
1,0,-1,-1,0,-1,-2,0,2021-08-16 12:29:28,985400
0,-1,-2,-1,-1,-1,-2,-3,2021-08-16 12:29:28,985400
-1,0,0,0,0,-1,-1,0,2021-08-16 12:29:28,985400
-2,1,-2,-1,-3,-1,2,0,2021-08-16 12:29:28,985400
-1,-3,-1,0,1,0,0,-1,2021-08-16 12:29:28,986367
-2,-2,-1,0,-1,-2,-1,-1,2021-08-16 12:29:29,001365
0,0,-2,0,-3,1,-2,-2,2021-08-16 12:29:29,017366
-1,0,1,0,-2,0,-2,-1,2021-08-16 12:29:29,033365
-2,0,0,2,1,0,0,-1,2021-08-16 12:29:29,033365
0,1,-2,-1,-2,-1,-1,0,2021-08-16 12:29:29,033365
-1,-2,0,0,-2,-1,-1,-1,2021-08-16 12:29:29,049366
1,-1,0,-1,-1,-1,0,0,2021-08-16 12:29:29,065370
0,-1,-1,-2,-1,-2,0,-2,2021-08-16 12:29:29,081392
1,-1,-1,-1,0,-1,-1,2,2021-08-16 12:29:29,097364
-1,1,-2,-1,0,-3,-2,1,2021-08-16 12:29:29,097364
1,-1,-2,-1,0,-1,-1,-1,2021-08-16 12:29:29,097364
-1,0,0,1,-1,-1,0,-1,2021-08-16 12:29:29,113366
1,-1,0,-1,1,0,-1,0,2021-08-16 12:29:29,113366
-1,-1,-1,-1,-1,1,0,-2,2021-08-16 12:29:29,113366
-1,0,-1,-2,-2,-2,0,0,2021-08-16 12:29:29,113366
-1,1,-2,-1,0,-1,-2,-1,2021-08-16 12:29:29,113366
-2,-1,1,0,0,-1,-1,-1,2021-08-16 12:29:29,113366
0,0,-1,0,-1,0,-2,-1,2021-08-16 12:29:29,113366
0,-3,-1,-1,-1,0,-1,-1,2021-08-16 12:29:29,114366
0,-1,-2,0,-1,-2,-1,-1,2021-08-16 12:29:29,114366
0,0,-1,-1,-2,-1,-1,-2,2021-08-16 12:29:29,114366
-1,-2,0,1,0,-2,0,-1,2021-08-16 12:29:29,114366
-2,1,0,-2,-2,-1,-2,0,2021-08-16 12:29:29,114366
-1,-1,-1,-1,-3,-2,-2,0,2021-08-16 12:29:29,114366
-1,-1,0,-2,0,0,0,-2,2021-08-16 12:29:29,115364
-1,-1,-1,-2,0,0,-1,0,2021-08-16 12:29:29,115364
-1,-1,-2,0,0,0,0,-1,2021-08-16 12:29:29,129367
-2,-1,0,0,-1,1,1,0,2021-08-16 12:29:29,129367
-1,-1,-2,-1,-1,-1,-1,-1,2021-08-16 12:29:29,145366
0,0,-2,-1,0,-1,-1,0,2021-08-16 12:29:29,145366
-2,-1,0,0,0,1,-1,-1,2021-08-16 12:29:29,161364
-1,-1,0,-1,-1,-1,0,-1,2021-08-16 12:29:29,161364
0,0,-2,1,-1,-3,-1,0,2021-08-16 12:29:29,161364
-2,-1,-1,-1,0,-2,0,-2,2021-08-16 12:29:29,161364
0,-1,-1,-1,-1,-1,1,-3,2021-08-16 12:29:29,161364
0,-1,-2,-2,-1,-1,0,-2,2021-08-16 12:29:29,162367
-1,0,0,-1,-1,0,-1,-1,2021-08-16 12:29:29,192364
-3,-2,-1,-2,-1,-1,0,1,2021-08-16 12:29:29,208366
-1,0,1,-1,0,0,0,0,2021-08-16 12:29:29,208366
-2,-1,0,-1,0,0,-2,-2,2021-08-16 12:29:29,208366
-1,0,-1,-3,-2,-2,-2,-1,2021-08-16 12:29:29,224365
0,-2,-2,-2,0,-2,-1,0,2021-08-16 12:29:29,240370
0,-1,-1,0,-2,-1,-1,0,2021-08-16 12:29:29,240370
-1,0,-2,1,-2,0,1,-1,2021-08-16 12:29:29,240370
-1,-1,-1,0,1,-2,-1,-2,2021-08-16 12:29:29,240370
-1,-1,-1,0,0,0,-1,-2,2021-08-16 12:29:29,240370
0,0,-1,-1,-1,-1,-1,-2,2021-08-16 12:29:29,241365
-1,-1,-1,-1,1,-1,-1,1,2021-08-16 12:29:29,241365
0,-1,0,0,0,-1,-1,0,2021-08-16 12:29:29,241365
-1,0,0,-1,-1,-2,-1,-2,2021-08-16 12:29:29,241365
1,-2,-2,0,-1,-1,0,1,2021-08-16 12:29:29,241365
1,0,0,0,0,-1,-2,-2,2021-08-16 12:29:29,242366
0,-3,-1,-1,-1,0,1,-1,2021-08-16 12:29:29,272366
0,0,1,-2,-2,0,0,-1,2021-08-16 12:29:29,272366
-2,-3,0,-2,0,-1,-1,-2,2021-08-16 12:29:29,272366
-2,-2,-1,1,-1,-1,1,-1,2021-08-16 12:29:29,272366
-1,0,0,0,-1,-2,-1,0,2021-08-16 12:29:29,288365
0,1,-2,1,-1,0,-1,-2,2021-08-16 12:29:29,288365
-1,0,-1,-1,0,0,0,0,2021-08-16 12:29:29,296366
-1,-1,-1,-2,-1,-2,-3,0,2021-08-16 12:29:29,296366
-1,0,-1,-2,-1,1,-1,-2,2021-08-16 12:29:29,297366
0,-1,-2,1,0,-1,-2,0,2021-08-16 12:29:29,297366
-2,-2,-1,-1,0,-1,0,-2,2021-08-16 12:29:29,304366
-2,-2,-2,0,0,0,0,-1,2021-08-16 12:29:29,304366
1,1,-1,-1,1,-1,0,-1,2021-08-16 12:29:29,320363
-3,0,-2,-2,-1,-1,0,0,2021-08-16 12:29:29,336365
-1,0,0,-1,-1,-2,-1,1,2021-08-16 12:29:29,336365
0,-1,0,-1,-1,1,-1,1,2021-08-16 12:29:29,336365
-2,0,-2,0,0,0,-1,-1,2021-08-16 12:29:29,352366
-1,-2,0,2,0,-1,-2,-2,2021-08-16 12:29:29,352366
0,0,-2,0,0,-1,-1,0,2021-08-16 12:29:29,352366
0,0,-1,-1,-1,0,0,-1,2021-08-16 12:29:29,352366
0,-2,0,-1,-1,-2,-1,-1,2021-08-16 12:29:29,353365
0,-1,0,-1,-2,0,-1,-2,2021-08-16 12:29:29,353365
0,-2,-1,0,-1,-1,-2,-2,2021-08-16 12:29:29,368365
0,-1,0,-2,-2,-3,-1,-1,2021-08-16 12:29:29,368365
-1,-2,1,0,-1,-1,-1,0,2021-08-16 12:29:29,400364
-1,-1,0,-2,-1,0,0,-1,2021-08-16 12:29:29,431366
-1,-1,0,1,0,-1,-2,-1,2021-08-16 12:29:29,447366
-2,1,0,-1,-2,-1,0,0,2021-08-16 12:29:29,447366
-1,-1,-4,-1,-1,-2,0,1,2021-08-16 12:29:29,447366
0,-2,-1,-2,-1,1,-1,0,2021-08-16 12:29:29,447366
0,1,-1,-3,0,0,-1,0,2021-08-16 12:29:29,447366
-1,-1,-1,-1,0,-2,-1,-1,2021-08-16 12:29:29,447366
-1,0,-1,-1,-1,-1,-2,-1,2021-08-16 12:29:29,448365
-1,-3,-2,0,0,-1,1,0,2021-08-16 12:29:29,448365
-1,-1,-1,-1,-2,-2,-1,0,2021-08-16 12:29:29,448365
-1,-2,-1,1,-1,-2,-1,-2,2021-08-16 12:29:29,448365
0,-2,-2,-1,-1,-1,-1,-2,2021-08-16 12:29:29,448365
1,0,-1,0,0,-2,-1,-2,2021-08-16 12:29:29,448365
0,0,-1,0,-1,-1,2,0,2021-08-16 12:29:29,448365
1,0,-3,-1,-1,-1,-2,-3,2021-08-16 12:29:29,449366
-2,-2,-1,0,-1,0,0,-2,2021-08-16 12:29:29,463365
-2,-2,-1,-2,-3,0,-2,-1,2021-08-16 12:29:29,479366
-1,1,0,-1,1,0,-1,-2,2021-08-16 12:29:29,479366
-2,-2,1,0,-3,-1,-1,1,2021-08-16 12:29:29,479366
0,-1,-1,0,-1,1,0,-2,2021-08-16 12:29:29,495366
0,-1,0,0,-1,1,0,-2,2021-08-16 12:29:29,511365
-3,-2,-2,1,0,-1,0,-1,2021-08-16 12:29:29,511365
0,-1,-2,-1,-2,-2,0,-1,2021-08-16 12:29:29,511365
-1,-1,1,-2,-1,-1,0,0,2021-08-16 12:29:29,511365
-1,-1,0,-1,-1,-2,0,-1,2021-08-16 12:29:29,511365
-2,-1,-2,0,-2,0,-2,-2,2021-08-16 12:29:29,512368
-1,-1,-2,-1,-1,0,-1,-1,2021-08-16 12:29:29,512368
-2,-1,-1,0,-1,0,-1,1,2021-08-16 12:29:29,527366
1,0,-1,-2,1,-2,0,-1,2021-08-16 12:29:29,527366
1,0,0,-2,-3,-2,0,0,2021-08-16 12:29:29,527366
0,0,0,-1,-1,0,0,-2,2021-08-16 12:29:29,527366
-1,0,-1,-1,-1,1,-2,-2,2021-08-16 12:29:29,543366
-2,-1,-1,1,-2,2,-3,-1,2021-08-16 12:29:29,543366
0,-1,-1,-1,-1,-1,0,-1,2021-08-16 12:29:29,543366
-2,-2,0,-1,-1,-2,-1,-2,2021-08-16 12:29:29,543366
-2,-1,-1,-2,-2,-1,-1,-2,2021-08-16 12:29:29,575365
-1,-1,-1,0,-2,-2,-1,-2,2021-08-16 12:29:29,575365
0,-2,-1,0,0,-1,0,-1,2021-08-16 12:29:29,607367
0,1,-1,-2,0,-1,-1,-1,2021-08-16 12:29:29,607367
0,-1,-1,0,1,-1,1,-1,2021-08-16 12:29:29,607367
-2,-1,0,-2,-1,-1,0,1,2021-08-16 12:29:29,607367
-1,-1,0,-1,-1,0,1,-1,2021-08-16 12:29:29,608369
-1,-1,0,0,1,0,-2,-1,2021-08-16 12:29:29,608369
-1,-3,-1,-1,-1,-2,-1,-1,2021-08-16 12:29:29,608369
0,0,-1,-1,0,0,-1,-2,2021-08-16 12:29:29,608369
0,0,-1,-3,-2,0,-1,1,2021-08-16 12:29:29,608369
-1,-1,0,0,-1,-1,0,-2,2021-08-16 12:29:29,608369
-1,-2,0,0,-1,-2,-1,0,2021-08-16 12:29:29,623365
-2,-2,-2,0,-1,0,0,-1,2021-08-16 12:29:29,623365
0,1,-1,-3,0,0,-2,-2,2021-08-16 12:29:29,623365
2,-1,-1,2,-2,-1,-1,-1,2021-08-16 12:29:29,623365
1,0,-3,1,-1,-1,-2,-2,2021-08-16 12:29:29,655367
0,-1,-1,0,-1,0,-2,0,2021-08-16 12:29:29,655367
0,-3,-2,-1,-1,0,-1,-2,2021-08-16 12:29:29,655367
0,-1,-1,-2,-1,1,-2,-1,2021-08-16 12:29:29,671367
-2,-2,0,-1,-1,0,0,0,2021-08-16 12:29:29,687365
0,-1,-1,-2,-1,0,0,0,2021-08-16 12:29:29,687365
-1,-3,-2,0,-2,-1,-2,-1,2021-08-16 12:29:29,687365
-2,-2,-2,-2,0,-1,-3,0,2021-08-16 12:29:29,687365
0,1,0,0,0,-1,0,0,2021-08-16 12:29:29,687365
-1,-1,-2,0,-2,-1,-3,-2,2021-08-16 12:29:29,688366
0,0,1,0,0,1,-1,-1,2021-08-16 12:29:29,688366
0,-2,1,1,-2,0,0,0,2021-08-16 12:29:29,688366
-1,-2,0,-1,0,-1,-2,-2,2021-08-16 12:29:29,703365
-2,0,-2,0,-1,0,-1,-1,2021-08-16 12:29:29,703365
1,-1,-1,-3,0,-1,0,-1,2021-08-16 12:29:29,703365
-2,-1,-2,-1,-1,0,-1,-1,2021-08-16 12:29:29,703365
-1,-1,-2,-1,0,-1,0,-1,2021-08-16 12:29:29,734366
1,-1,0,0,-1,-2,-1,-1,2021-08-16 12:29:29,750365
-2,0,-2,1,-1,0,-3,0,2021-08-16 12:29:29,766363
-1,0,0,-2,-2,-2,-1,-1,2021-08-16 12:29:29,766363
0,0,-3,-1,-1,0,-1,-3,2021-08-16 12:29:29,766363
-2,-1,-3,-1,-1,-1,0,0,2021-08-16 12:29:29,766363
-2,-2,0,0,-1,0,-2,-2,2021-08-16 12:29:29,767368
-1,-1,-1,0,0,0,1,-1,2021-08-16 12:29:29,767368
0,0,-1,0,-1,-1,-2,-1,2021-08-16 12:29:29,767368
0,-1,1,-1,0,0,-2,1,2021-08-16 12:29:29,767368
-1,0,1,-1,-2,-2,-1,-2,2021-08-16 12:29:29,767368
1,-1,0,-1,-1,-1,-1,0,2021-08-16 12:29:29,767368
-2,-1,-2,-1,-2,0,0,-1,2021-08-16 12:29:29,798364
-3,0,0,-3,-1,-1,-1,-2,2021-08-16 12:29:29,798364
0,0,-2,0,-2,-1,-1,0,2021-08-16 12:29:29,798364
-2,-2,-1,-1,-1,-2,-1,-1,2021-08-16 12:29:29,798364
0,1,-2,-1,-2,1,1,0,2021-08-16 12:29:29,814366
0,-1,0,1,0,-1,-2,1,2021-08-16 12:29:29,814366
0,0,-1,-2,0,-1,0,-1,2021-08-16 12:29:29,814366
0,0,0,-2,1,-1,0,-1,2021-08-16 12:29:29,814366
-2,0,0,-1,-2,-1,-1,0,2021-08-16 12:29:29,830366
-1,-1,-1,0,0,0,1,-3,2021-08-16 12:29:29,844366
0,-2,-2,0,-2,-1,-1,0,2021-08-16 12:29:29,844366
0,-2,-4,-1,-1,0,0,-2,2021-08-16 12:29:29,844366
-2,-2,0,0,0,-1,-2,-1,2021-08-16 12:29:29,844366
0,-1,-1,-2,0,-1,0,0,2021-08-16 12:29:29,844366
-2,-2,0,0,0,-1,-1,0,2021-08-16 12:29:29,845366
0,-2,-1,0,1,0,1,-2,2021-08-16 12:29:29,845366
-1,-1,0,-1,0,-3,-2,0,2021-08-16 12:29:29,862366
-1,-1,-3,-1,-3,-2,-1,-1,2021-08-16 12:29:29,862366
-1,-1,0,-1,0,-2,-1,0,2021-08-16 12:29:29,862366
-2,-3,-2,-2,0,0,-1,0,2021-08-16 12:29:29,862366
1,-2,1,-1,-3,0,-1,-1,2021-08-16 12:29:29,892366
1,-1,-1,1,-1,-2,-2,-1,2021-08-16 12:29:29,892366
0,-1,-1,2,0,-1,-1,0,2021-08-16 12:29:29,908363
-2,1,-1,0,0,-2,-1,0,2021-08-16 12:29:29,908363
0,-1,-1,-2,0,0,0,-1,2021-08-16 12:29:29,908363
-2,-1,1,-1,-2,-1,0,-2,2021-08-16 12:29:29,908363
-1,-1,-1,-1,-1,-1,0,-1,2021-08-16 12:29:29,908363
1,0,-1,-1,-1,-1,-1,-1,2021-08-16 12:29:29,909366
-3,-1,-2,-1,1,0,-1,-2,2021-08-16 12:29:29,924364
-2,1,-1,0,-2,-1,-1,0,2021-08-16 12:29:29,924364
-1,-2,-2,0,-1,-1,-1,-1,2021-08-16 12:29:29,924364
0,0,1,-1,-1,-1,-1,-1,2021-08-16 12:29:29,924364
-2,-2,-1,-2,-1,-1,-1,0,2021-08-16 12:29:29,955410
-1,-1,-3,-1,-1,0,0,-3,2021-08-16 12:29:29,971410
-2,-1,-1,-2,-1,0,-2,-2,2021-08-16 12:29:29,971410
0,0,-2,0,-2,-1,-2,-1,2021-08-16 12:29:29,971410
-1,0,-1,-2,1,-1,1,-1,2021-08-16 12:29:29,971410
-2,-1,-1,-1,1,0,0,2,2021-08-16 12:29:29,971410
-2,-2,-2,-2,-1,0,0,1,2021-08-16 12:29:29,972410
-1,-1,-1,1,-1,1,0,-1,2021-08-16 12:29:29,972410
-1,0,-1,-1,-2,-1,-1,0,2021-08-16 12:29:29,986407
-2,-3,-1,-1,0,0,-1,0,2021-08-16 12:29:29,986407
0,0,-1,1,-1,-1,1,-1,2021-08-16 12:29:29,986407
-1,-1,0,-1,-2,0,-1,-1,2021-08-16 12:29:29,986407
-1,-1,-1,0,0,-2,-1,-2,2021-08-16 12:29:30,017407
-1,-1,-2,0,-2,-1,-1,-1,2021-08-16 12:29:30,017407
-1,-1,0,-1,0,-1,-2,-2,2021-08-16 12:29:30,017407
-1,-1,-2,2,0,0,1,-2,2021-08-16 12:29:30,017407
-2,0,0,0,-2,1,0,-1,2021-08-16 12:29:30,033407
-1,1,-1,-1,-1,-1,-1,-1,2021-08-16 12:29:30,049410
-2,-1,-1,-1,1,-1,0,-1,2021-08-16 12:29:30,065408
1,0,-1,0,-1,-2,1,-1,2021-08-16 12:29:30,065408
-1,-3,-2,-1,-1,-1,-2,-2,2021-08-16 12:29:30,065408
1,-1,0,-1,-2,-1,-1,-1,2021-08-16 12:29:30,065408
0,0,0,-2,-2,0,-1,-1,2021-08-16 12:29:30,065408
-3,-1,-2,-2,0,-2,0,-2,2021-08-16 12:29:30,066409
1,-1,0,1,0,0,-2,1,2021-08-16 12:29:30,066409
-1,-1,0,0,-1,0,-1,-1,2021-08-16 12:29:30,066409
0,0,-1,-2,0,-1,-1,0,2021-08-16 12:29:30,066409
-2,-1,-1,-2,0,0,-2,-1,2021-08-16 12:29:30,066409
-1,0,-2,-2,0,-2,-1,0,2021-08-16 12:29:30,097411
0,0,-1,0,0,1,2,0,2021-08-16 12:29:30,097411
-1,-2,-2,0,-1,0,-1,1,2021-08-16 12:29:30,097411
0,1,0,-1,-1,0,-1,1,2021-08-16 12:29:30,097411
0,0,0,-1,-1,-1,0,0,2021-08-16 12:29:30,098412
0,-1,1,0,-1,-1,-2,0,2021-08-16 12:29:30,098412
0,0,-2,1,-3,-1,-2,-1,2021-08-16 12:29:30,129408
-1,0,-1,0,-1,-1,-3,0,2021-08-16 12:29:30,145412
0,0,-2,-1,-2,0,0,-1,2021-08-16 12:29:30,161407
0,-2,-1,0,0,-1,-1,-1,2021-08-16 12:29:30,177409
-2,-1,0,0,-1,-1,-1,-1,2021-08-16 12:29:30,177409
-3,0,-1,1,-3,-1,0,-1,2021-08-16 12:29:30,193410
-1,-1,0,-2,-2,-1,1,-3,2021-08-16 12:29:30,193410
-2,-1,-1,-1,-1,-1,-2,1,2021-08-16 12:29:30,193410
0,-1,-1,-2,-1,-2,-1,-1,2021-08-16 12:29:30,193410
0,-1,-1,-1,-1,-1,-1,-1,2021-08-16 12:29:30,209409
-2,0,-2,0,1,0,0,1,2021-08-16 12:29:30,209409
-1,-1,0,-1,-1,1,0,2,2021-08-16 12:29:30,209409
-2,1,1,-2,-1,-1,1,-2,2021-08-16 12:29:30,241408
-2,-1,0,-1,0,0,0,0,2021-08-16 12:29:30,256408
-1,-1,-2,1,-1,-1,0,-1,2021-08-16 12:29:30,271408
-2,-2,-1,0,0,-3,-1,-2,2021-08-16 12:29:30,271408
-1,-1,-2,0,-1,0,-2,0,2021-08-16 12:29:30,271408
-1,0,-1,-1,-1,-1,0,-1,2021-08-16 12:29:30,271408
0,-2,-1,-1,-3,-2,-1,0,2021-08-16 12:29:30,271408
1,-1,0,-1,-2,-2,-1,-1,2021-08-16 12:29:30,271408
0,-2,0,-1,-1,0,0,0,2021-08-16 12:29:30,272410
-2,-2,-2,-1,-1,-2,-1,1,2021-08-16 12:29:30,272410
-2,0,-1,0,-1,-1,-3,-1,2021-08-16 12:29:30,272410
-1,-2,-2,-1,0,-2,-1,-1,2021-08-16 12:29:30,287409
1,-1,-1,-1,-1,-1,-1,-2,2021-08-16 12:29:30,287409
-2,-1,-1,0,0,1,-1,-1,2021-08-16 12:29:30,287409
-2,-1,0,0,1,-1,-3,0,2021-08-16 12:29:30,287409
-3,0,-1,-1,0,1,0,0,2021-08-16 12:29:30,287409
-1,-1,0,0,0,-2,-2,-1,2021-08-16 12:29:30,288409
0,-1,0,-1,0,-2,-2,-3,2021-08-16 12:29:30,288409
-1,0,0,0,0,-1,0,1,2021-08-16 12:29:30,288409
-1,1,0,1,0,0,-1,-2,2021-08-16 12:29:30,288409
-2,-1,-1,-2,-1,1,0,2,2021-08-16 12:29:30,288409
-1,0,0,-2,-1,-2,-1,1,2021-08-16 12:29:30,288409
-1,-2,-1,-1,-2,0,1,-1,2021-08-16 12:29:30,288409
0,0,-1,-2,1,-2,-2,1,2021-08-16 12:29:30,289411
-1,-2,0,0,-1,-1,2,0,2021-08-16 12:29:30,289411
1,-1,-2,-1,-1,-1,-1,-2,2021-08-16 12:29:30,289411
-1,-2,-2,-2,0,-1,-2,-1,2021-08-16 12:29:30,303410
-1,0,-1,-1,-1,0,0,0,2021-08-16 12:29:30,303672
0,1,-1,-2,-2,-2,0,0,2021-08-16 12:29:30,303672
-2,-2,-1,-1,0,-2,-1,0,2021-08-16 12:29:30,303672
0,-1,0,0,-1,0,1,-1,2021-08-16 12:29:30,334974
0,-1,-1,-2,-1,-1,-2,-1,2021-08-16 12:29:30,334974
0,0,-1,-3,-1,-1,-2,0,2021-08-16 12:29:30,350972
1,-1,0,-2,-3,0,-1,1,2021-08-16 12:29:30,350972
0,1,0,0,-1,0,0,0,2021-08-16 12:29:30,350972
-1,-1,-1,-1,-2,-1,0,0,2021-08-16 12:29:30,350972
-2,-1,0,0,0,0,-1,-1,2021-08-16 12:29:30,350972
-2,-2,0,-1,-1,-1,-3,-2,2021-08-16 12:29:30,351974
-1,-1,-1,-2,0,-1,1,1,2021-08-16 12:29:30,366974
1,-2,-1,-2,0,1,-1,-1,2021-08-16 12:29:30,366974
-2,-1,-3,0,-1,-1,0,0,2021-08-16 12:29:30,382974
-1,0,-2,2,-1,0,-1,-1,2021-08-16 12:29:30,382974
-2,0,-2,-1,0,-2,-2,0,2021-08-16 12:29:30,382974
1,0,0,0,-2,-1,-1,0,2021-08-16 12:29:30,382974
-1,-1,0,-1,-2,0,-2,-2,2021-08-16 12:29:30,383974
-1,-1,-1,-2,0,-1,3,-1,2021-08-16 12:29:30,383974
-1,0,-1,-2,0,-1,-1,-1,2021-08-16 12:29:30,413974
-1,-1,-3,0,-1,-2,-1,0,2021-08-16 12:29:30,413974
0,-2,0,-1,-2,-1,0,0,2021-08-16 12:29:30,413974
0,0,0,-1,1,-1,-2,1,2021-08-16 12:29:30,413974
-1,-1,-1,-1,-1,0,1,-1,2021-08-16 12:29:30,429973
-1,-1,0,-1,-2,-1,0,0,2021-08-16 12:29:30,445973
0,-1,-1,1,0,-1,-3,-2,2021-08-16 12:29:30,445973
-2,-1,-1,0,0,-2,1,-1,2021-08-16 12:29:30,445973
1,-2,-1,0,-1,0,-2,-1,2021-08-16 12:29:30,445973
-1,0,-3,-1,-1,0,-1,0,2021-08-16 12:29:30,445973
-1,0,-2,0,-2,-1,1,-1,2021-08-16 12:29:30,446975
0,-1,-1,-1,0,1,0,-1,2021-08-16 12:29:30,446975
-1,-2,0,-2,-2,2,-1,-3,2021-08-16 12:29:30,461974
-1,-3,-3,-1,0,0,0,0,2021-08-16 12:29:30,477973
-1,-1,0,1,1,-1,-2,-1,2021-08-16 12:29:30,477973
-1,0,-1,-2,-1,0,0,1,2021-08-16 12:29:30,477973
-2,-2,-1,-2,0,-2,0,-2,2021-08-16 12:29:30,477973
0,0,0,-2,-1,-1,-1,-1,2021-08-16 12:29:30,477973
0,0,-3,-1,-1,-2,1,-2,2021-08-16 12:29:30,493974
-2,-2,-1,-1,0,-2,-2,-2,2021-08-16 12:29:30,509973
0,0,0,0,0,-2,-1,0,2021-08-16 12:29:30,509973
0,-1,1,-3,-1,-2,-2,1,2021-08-16 12:29:30,509973
0,0,-1,-1,0,-1,-1,-1,2021-08-16 12:29:30,509973
-1,0,0,-1,-1,0,-1,-1,2021-08-16 12:29:30,509973
-1,-2,-2,0,0,-1,-2,1,2021-08-16 12:29:30,525975
-2,-2,-3,-2,1,0,-1,-2,2021-08-16 12:29:30,525975
-2,-2,-1,0,-1,-1,-1,-2,2021-08-16 12:29:30,525975
-2,-1,-1,-2,-2,-1,-2,-1,2021-08-16 12:29:30,525975
-1,-1,-2,0,-2,-1,0,-1,2021-08-16 12:29:30,557973
-1,-2,-2,1,-1,-1,0,-2,2021-08-16 12:29:30,557973
0,-1,-1,-2,0,1,-1,0,2021-08-16 12:29:30,557973
1,-1,-2,1,0,-1,0,-2,2021-08-16 12:29:30,557973
0,-1,-1,-1,0,-1,-1,-1,2021-08-16 12:29:30,573972
-1,0,0,-1,-2,-3,-1,0,2021-08-16 12:29:30,589972
0,0,-3,0,0,-2,-1,-2,2021-08-16 12:29:30,589972
-1,-1,0,1,0,-1,-1,-1,2021-08-16 12:29:30,589972
-1,-2,-1,-1,-1,-1,-1,0,2021-08-16 12:29:30,589972
0,-2,1,-1,-1,1,1,-1,2021-08-16 12:29:30,589972
-2,-2,-1,-1,0,1,1,0,2021-08-16 12:29:30,589972
0,0,-2,-3,-2,1,-1,1,2021-08-16 12:29:30,590973
-3,-1,-1,-1,-2,-1,-1,0,2021-08-16 12:29:30,605973
-1,-2,-1,0,-1,0,0,-2,2021-08-16 12:29:30,621973
0,0,-1,-2,-2,-3,-1,-1,2021-08-16 12:29:30,637974
1,-2,0,0,-1,0,-1,0,2021-08-16 12:29:30,637974
-1,1,0,-2,0,0,-1,0,2021-08-16 12:29:30,637974
-3,0,-2,-1,-1,0,-2,-1,2021-08-16 12:29:30,637974
0,0,-1,-1,-1,-1,0,-1,2021-08-16 12:29:30,638974
-2,-1,-2,0,0,-1,-1,-2,2021-08-16 12:29:30,638974
0,-1,0,-1,-2,-2,0,-1,2021-08-16 12:29:30,652974
-1,-1,-2,1,0,0,0,-1,2021-08-16 12:29:30,668972
-2,-2,0,1,0,-1,-1,0,2021-08-16 12:29:30,684973
0,-1,-3,-4,-2,-2,0,-1,2021-08-16 12:29:30,684973
-4,-1,0,0,-1,-2,-1,0,2021-08-16 12:29:30,684973
0,0,0,-1,-1,-1,-1,-1,2021-08-16 12:29:30,684973
-2,0,-2,-1,-2,-1,0,-2,2021-08-16 12:29:30,684973
1,-1,-1,0,0,-1,0,-1,2021-08-16 12:29:30,685973
1,-2,0,1,-1,-2,-1,-1,2021-08-16 12:29:30,685973
-1,0,-2,0,0,-1,-1,-2,2021-08-16 12:29:30,685973
-2,-1,1,0,-2,0,-2,0,2021-08-16 12:29:30,685973
0,-1,-1,-2,-3,0,0,1,2021-08-16 12:29:30,685973
-1,-1,-1,-2,0,0,-1,-1,2021-08-16 12:29:30,716977
-1,-1,-1,-1,-1,0,0,0,2021-08-16 12:29:30,732973
0,-1,0,0,-1,0,0,1,2021-08-16 12:29:30,747974
-1,-3,-1,1,-1,-1,-1,0,2021-08-16 12:29:30,747974
0,0,-2,0,1,1,-1,-1,2021-08-16 12:29:30,747974
-2,-2,0,-2,-1,-1,-1,-1,2021-08-16 12:29:30,747974
0,0,0,-1,-2,0,0,-2,2021-08-16 12:29:30,747974
-2,0,0,1,0,-1,-1,0,2021-08-16 12:29:30,747974
-1,-2,-1,0,0,-1,1,0,2021-08-16 12:29:30,748974
1,-2,-2,-1,-1,-2,-1,0,2021-08-16 12:29:30,748974
-1,-2,-1,-3,0,-1,-2,1,2021-08-16 12:29:30,748974
-2,0,-1,-2,-1,-2,-2,-1,2021-08-16 12:29:30,748974
-2,0,-1,0,-1,0,-2,-2,2021-08-16 12:29:30,779973
-1,-1,0,0,-1,-1,-1,-1,2021-08-16 12:29:30,795974
-2,0,0,-1,0,-1,-1,0,2021-08-16 12:29:30,811972
0,0,0,0,-2,0,-1,-1,2021-08-16 12:29:30,811972
-1,-2,-2,-1,-3,-1,-2,-2,2021-08-16 12:29:30,811972
0,0,0,0,-1,0,0,-2,2021-08-16 12:29:30,811972
0,-1,-1,1,0,0,0,-2,2021-08-16 12:29:30,811972
-1,0,-3,0,-1,0,-2,-3,2021-08-16 12:29:30,827972
1,-1,0,-1,-2,-1,0,-1,2021-08-16 12:29:30,843974
-2,-1,-1,-2,-1,-2,0,0,2021-08-16 12:29:30,843974
-2,-1,-2,-1,-1,-1,-1,0,2021-08-16 12:29:30,843974
0,-1,-1,0,-1,-1,1,-2,2021-08-16 12:29:30,843974
-2,-1,-1,-1,-1,-1,0,-1,2021-08-16 12:29:30,843974
-2,-1,1,1,-2,-1,-2,1,2021-08-16 12:29:30,843974
-1,-1,-2,1,-1,-1,-1,-1,2021-08-16 12:29:30,844974
-1,-1,-1,-2,-1,-2,-1,1,2021-08-16 12:29:30,844974
-1,-1,-1,-1,-1,-1,-1,-1,2021-08-16 12:29:30,844974
-1,-1,-2,-1,1,-1,-1,-1,2021-08-16 12:29:30,844974
-1,-1,-2,0,-2,0,-2,0,2021-08-16 12:29:30,844974
-1,-2,-1,0,0,1,0,-1,2021-08-16 12:29:30,844974
1,1,0,-1,-1,0,-1,-1,2021-08-16 12:29:30,875973
-2,0,-2,-1,-1,0,-1,-3,2021-08-16 12:29:30,875973
0,0,-1,-1,-1,-2,-1,-2,2021-08-16 12:29:30,875973
0,0,0,-1,0,0,-1,-1,2021-08-16 12:29:30,875973
-1,0,-1,-1,1,-2,1,-1,2021-08-16 12:29:30,891973
0,0,-1,-1,0,-2,1,0,2021-08-16 12:29:30,896972
-2,-1,-1,0,-1,1,-1,-2,2021-08-16 12:29:30,897973
-1,-2,-2,-1,-1,0,0,0,2021-08-16 12:29:30,897973
-2,-1,-1,1,0,-2,-3,-1,2021-08-16 12:29:30,897973
-1,-1,0,-1,-1,0,-2,1,2021-08-16 12:29:30,897973
-1,-1,-1,-1,-1,-1,0,-1,2021-08-16 12:29:30,923971
-1,0,-2,-2,0,0,0,-1,2021-08-16 12:29:30,923971
0,-1,0,0,-1,0,0,-1,2021-08-16 12:29:30,923971
-1,-1,-1,-1,-2,0,1,-1,2021-08-16 12:29:30,923971
-2,-1,-1,-2,0,-1,-3,-1,2021-08-16 12:29:30,923971
-2,0,-1,-1,0,-2,-1,-3,2021-08-16 12:29:30,923971
1,-2,-2,-1,0,-1,0,1,2021-08-16 12:29:30,955973
0,-1,0,0,0,-1,-2,-1,2021-08-16 12:29:30,955973
0,-3,-2,-1,-2,0,0,0,2021-08-16 12:29:30,955973
0,-1,0,-1,-3,-1,0,0,2021-08-16 12:29:30,955973
1,-1,-1,-2,-1,0,-1,-2,2021-08-16 12:29:30,971973
-2,0,1,-1,0,-1,-1,-1,2021-08-16 12:29:30,971973
1,0,0,-2,-1,-2,-1,1,2021-08-16 12:29:30,971973
0,-1,-2,0,0,-1,-1,-1,2021-08-16 12:29:30,971973
-1,-2,-2,-1,-1,0,-2,-2,2021-08-16 12:29:30,987973
0,-1,-1,-1,-1,-1,-1,0,2021-08-16 12:29:30,987973
0,-1,-3,0,-1,-1,0,-2,2021-08-16 12:29:30,987973
-2,-1,-1,-2,-2,1,-1,-1,2021-08-16 12:29:30,987973
-1,-1,-1,-1,0,-2,-1,1,2021-08-16 12:29:31,018974
-1,-1,-2,-1,-2,-1,-1,-3,2021-08-16 12:29:31,034974
-2,-1,0,-1,0,0,-1,0,2021-08-16 12:29:31,050976
1,-2,-2,0,-1,-2,-1,-2,2021-08-16 12:29:31,050976
-3,1,-1,0,-1,-1,0,-1,2021-08-16 12:29:31,050976
-1,0,-1,-1,-1,0,-1,0,2021-08-16 12:29:31,050976
1,0,-1,0,0,-1,-1,-2,2021-08-16 12:29:31,050976
-2,0,0,0,0,0,-2,-2,2021-08-16 12:29:31,050976
0,-1,-1,-1,-1,-2,-2,-1,2021-08-16 12:29:31,051974
-1,-2,-2,-2,-3,-1,0,0,2021-08-16 12:29:31,051974
0,-1,-1,0,-2,-1,0,-1,2021-08-16 12:29:31,066974
0,-1,-1,-3,0,-2,0,0,2021-08-16 12:29:31,083021
-2,-2,-1,1,0,1,-1,-2,2021-08-16 12:29:31,083021
-1,-1,-2,0,0,-1,0,-2,2021-08-16 12:29:31,083021
-2,0,-1,1,-1,-2,-1,0,2021-08-16 12:29:31,083021
-1,0,-3,-2,-1,0,0,1,2021-08-16 12:29:31,083021
-2,-1,-1,-2,-1,0,1,0,2021-08-16 12:29:31,083974
-1,-1,0,0,0,0,0,-2,2021-08-16 12:29:31,083974
-2,-1,-2,-1,-1,-2,1,0,2021-08-16 12:29:31,114973
0,-1,-1,-1,1,-1,-1,-1,2021-08-16 12:29:31,114973
1,0,-2,-1,-2,-1,-1,-1,2021-08-16 12:29:31,114973
-1,-1,-1,-1,0,0,-1,-2,2021-08-16 12:29:31,114973
-2,-2,-1,0,1,1,0,-1,2021-08-16 12:29:31,114973
0,0,-2,0,-1,-1,-1,0,2021-08-16 12:29:31,130972
-1,1,-1,0,1,0,0,-2,2021-08-16 12:29:31,130972
0,-1,0,0,0,0,-1,0,2021-08-16 12:29:31,130972
0,0,-1,-2,-1,-1,-2,-2,2021-08-16 12:29:31,130972
-1,-1,-2,0,-1,-1,0,0,2021-08-16 12:29:31,130972
1,-1,1,-1,-2,-1,-3,-2,2021-08-16 12:29:31,146975
1,-1,-2,-1,1,0,0,0,2021-08-16 12:29:31,146975
0,-3,-1,0,0,1,-1,-1,2021-08-16 12:29:31,146975
-1,-1,-1,-1,0,1,-2,-2,2021-08-16 12:29:31,146975
0,-1,-1,1,-1,-1,-1,0,2021-08-16 12:29:31,177976
-1,-1,1,0,-1,-1,-2,-1,2021-08-16 12:29:31,177976
1,-1,0,-1,-1,-2,0,-2,2021-08-16 12:29:31,193974
-2,-1,0,-1,-1,0,0,-1,2021-08-16 12:29:31,193974
-1,-1,-1,-1,-1,-2,-2,-2,2021-08-16 12:29:31,193974
-2,-1,0,0,-1,-1,0,0,2021-08-16 12:29:31,193974
-1,-2,0,0,-1,1,-1,0,2021-08-16 12:29:31,193974
0,0,-1,0,-2,0,-1,-1,2021-08-16 12:29:31,194974
-1,-2,-1,-1,1,0,-1,0,2021-08-16 12:29:31,210012
0,-1,-2,-1,-2,-3,-1,-1,2021-08-16 12:29:31,225976
-1,-1,0,-1,-1,-2,0,0,2021-08-16 12:29:31,256972
-2,1,-1,1,-1,-2,0,-2,2021-08-16 12:29:31,273021
-2,-1,-1,0,-1,1,0,-1,2021-08-16 12:29:31,273021
-1,0,-1,-1,-2,0,0,-1,2021-08-16 12:29:31,273021
0,2,-2,-2,0,0,1,0,2021-08-16 12:29:31,273021
-1,-2,-1,-2,-2,-1,-1,-1,2021-08-16 12:29:31,273021
-1,-1,-2,-1,-2,0,0,0,2021-08-16 12:29:31,273974
-1,-1,-1,-1,-1,-1,-2,0,2021-08-16 12:29:31,273974
-1,0,0,0,-1,-1,-1,-1,2021-08-16 12:29:31,273974
-3,-1,0,1,-1,-1,-1,0,2021-08-16 12:29:31,273974
0,-2,-1,-2,0,-1,-1,-3,2021-08-16 12:29:31,273974
0,0,-2,-2,0,-1,-1,-1,2021-08-16 12:29:31,273974
-1,-2,0,-3,0,-1,-1,0,2021-08-16 12:29:31,273974
1,-2,0,0,-1,-2,0,-2,2021-08-16 12:29:31,273974
-1,0,-1,-1,-1,-1,1,0,2021-08-16 12:29:31,288973
-1,-1,-2,-4,-2,-1,-2,-1,2021-08-16 12:29:31,288973
-1,1,-2,-1,-1,-1,0,-1,2021-08-16 12:29:31,288973
0,-1,-1,-2,1,0,-2,0,2021-08-16 12:29:31,288973
-3,1,-1,-1,0,-1,-1,0,2021-08-16 12:29:31,321014
-1,0,-1,-2,-2,-1,1,0,2021-08-16 12:29:31,321014
-2,1,-3,-1,-1,-1,0,-1,2021-08-16 12:29:31,321014
0,-2,0,-3,0,0,-1,0,2021-08-16 12:29:31,321014
-1,-1,-1,-1,-2,0,0,-1,2021-08-16 12:29:31,321014
0,-1,0,0,-1,-2,-2,0,2021-08-16 12:29:31,337025
-1,0,0,-1,-2,-1,-1,-1,2021-08-16 12:29:31,337025
-2,-1,-1,0,-2,0,-2,-1,2021-08-16 12:29:31,337025
0,-3,1,-1,0,-1,0,-2,2021-08-16 12:29:31,353012
0,-2,0,-1,-1,-2,-1,-2,2021-08-16 12:29:31,361975
-1,-2,0,-2,-1,-2,-1,-3,2021-08-16 12:29:31,361975
0,-1,-1,-2,-1,1,1,-1,2021-08-16 12:29:31,361975
0,0,0,-3,-2,0,-2,-3,2021-08-16 12:29:31,369023
-2,1,0,0,1,-1,-1,-1,2021-08-16 12:29:31,369023
-1,-3,-1,0,-2,-2,-1,-1,2021-08-16 12:29:31,369023
-1,-1,-1,-1,-1,-2,-1,-1,2021-08-16 12:29:31,369023
0,-2,-1,-2,-1,0,0,0,2021-08-16 12:29:31,384972
-1,-1,-3,1,0,0,2,-1,2021-08-16 12:29:31,384972
-1,-1,0,-1,-2,-1,0,-1,2021-08-16 12:29:31,400972
-1,-1,0,-1,-2,-1,-1,-2,2021-08-16 12:29:31,416973
-1,-1,-2,0,0,-2,-2,2,2021-08-16 12:29:31,433007
-2,0,0,0,-1,0,-1,-1,2021-08-16 12:29:31,433007
-1,-1,-1,-2,1,-1,0,0,2021-08-16 12:29:31,433007
-1,-1,1,-2,0,-3,-1,1,2021-08-16 12:29:31,433007
-1,-1,-1,0,-2,0,-1,-2,2021-08-16 12:29:31,433007
-1,0,-1,-2,-1,1,0,0,2021-08-16 12:29:31,433007
-1,-1,0,-1,0,-1,-1,-1,2021-08-16 12:29:31,433007
0,-1,-1,-1,-2,-1,-1,0,2021-08-16 12:29:31,433007
-1,-1,-1,0,-1,-1,-1,0,2021-08-16 12:29:31,448971
-2,-2,-1,-2,-2,-1,-2,-1,2021-08-16 12:29:31,448971
-1,-2,0,0,0,0,-2,-1,2021-08-16 12:29:31,448971
-1,-1,-1,-1,-1,-1,-1,0,2021-08-16 12:29:31,448971
0,0,-1,0,-1,-1,-1,-2,2021-08-16 12:29:31,465018
-1,-2,-2,-1,-1,-1,-2,1,2021-08-16 12:29:31,465018
1,-1,0,1,0,0,-1,0,2021-08-16 12:29:31,465018
0,0,0,-1,1,-1,0,-2,2021-08-16 12:29:31,465018
0,0,0,0,-2,-1,-2,0,2021-08-16 12:29:31,496972
0,-1,0,-1,2,-2,-1,-2,2021-08-16 12:29:31,512974
2,-1,-2,0,0,2,-2,1,2021-08-16 12:29:31,512974
-1,-2,-1,-1,-1,-1,0,0,2021-08-16 12:29:31,512974
-1,-2,-2,-2,-2,-1,1,0,2021-08-16 12:29:31,512974
1,-1,0,-2,-1,0,-1,1,2021-08-16 12:29:31,512974
-2,-1,-2,-2,-1,-1,1,-1,2021-08-16 12:29:31,512974
-1,1,-3,-1,-1,0,-1,-1,2021-08-16 12:29:31,513973
0,-2,0,0,0,-1,-1,1,2021-08-16 12:29:31,528971
-1,-1,-1,0,-2,-2,-2,0,2021-08-16 12:29:31,529331
-1,-1,-1,-1,0,-1,-2,-2,2021-08-16 12:29:31,529331
-1,0,-1,-1,0,0,-2,-1,2021-08-16 12:29:31,529331
1,-1,-1,0,-1,0,-1,-1,2021-08-16 12:29:31,559976
1,-2,-1,0,-1,1,0,-1,2021-08-16 12:29:31,575976
-1,-1,-1,0,-1,1,-1,-1,2021-08-16 12:29:31,575976
-1,-1,-1,0,-2,-1,0,0,2021-08-16 12:29:31,575976
-1,2,0,-1,-1,0,-1,-1,2021-08-16 12:29:31,575976
-1,-1,-2,-1,-1,-2,-1,0,2021-08-16 12:29:31,575976
-1,-1,-1,1,0,-1,1,-1,2021-08-16 12:29:31,575976
-2,-2,-1,-1,-1,-1,0,0,2021-08-16 12:29:31,575976
-1,1,-1,1,0,-1,-1,0,2021-08-16 12:29:31,592016
0,0,-1,-1,0,-2,-1,-1,2021-08-16 12:29:31,592016
1,1,0,0,0,-2,-1,-1,2021-08-16 12:29:31,592016
0,-1,0,1,-1,-1,0,-2,2021-08-16 12:29:31,592016
-1,-2,-1,-2,-2,-3,1,0,2021-08-16 12:29:31,607972
-2,-1,1,1,-2,-1,0,-1,2021-08-16 12:29:31,607972
-1,0,-1,-2,-1,0,-1,0,2021-08-16 12:29:31,607972
1,-1,-1,-1,0,-2,0,-1,2021-08-16 12:29:31,607972
-4,-1,-2,0,0,-1,-1,-1,2021-08-16 12:29:31,639973
-1,1,0,-1,-2,0,-1,-1,2021-08-16 12:29:31,639973
-2,-1,0,-2,-2,-2,0,-2,2021-08-16 12:29:31,639973
-2,0,0,-1,-3,-1,-2,0,2021-08-16 12:29:31,639973
2,-1,0,-2,0,0,-2,-2,2021-08-16 12:29:31,639973
0,-2,-1,1,-1,0,0,-1,2021-08-16 12:29:31,639973
0,0,1,2,-1,-2,-1,0,2021-08-16 12:29:31,655975
0,-1,0,-1,0,0,-1,-2,2021-08-16 12:29:31,655975
-1,-1,0,-1,-1,-2,1,0,2021-08-16 12:29:31,672021
0,-1,-1,-1,0,-1,1,-1,2021-08-16 12:29:31,672021
-1,-1,-2,-1,-3,0,0,-1,2021-08-16 12:29:31,672021
1,-1,-2,0,-2,0,-2,-1,2021-08-16 12:29:31,672021
-1,-2,1,0,-1,-1,-1,-1,2021-08-16 12:29:31,703971
-1,-2,0,-1,-1,-1,0,-1,2021-08-16 12:29:31,703971
-2,-1,0,-1,-1,0,-2,0,2021-08-16 12:29:31,703971
-2,0,-1,0,-1,-2,-2,-1,2021-08-16 12:29:31,703971
-1,0,0,-3,-3,-2,-2,-2,2021-08-16 12:29:31,703971
-2,1,-1,-1,-2,-2,-2,-1,2021-08-16 12:29:31,703971
-1,0,-1,0,-1,-1,-1,1,2021-08-16 12:29:31,718973
-2,-2,-1,-1,-1,-1,-1,0,2021-08-16 12:29:31,735002
-2,-1,-1,0,1,-1,-1,-2,2021-08-16 12:29:31,735217
-1,-1,-2,-1,-1,0,-2,-3,2021-08-16 12:29:31,735217
-1,-1,1,-1,1,0,0,1,2021-08-16 12:29:31,735217
-1,-1,-2,-1,-1,0,-1,0,2021-08-16 12:29:31,735217
-2,0,-1,-1,-1,-3,0,-1,2021-08-16 12:29:31,750973
-1,-1,-3,-2,-2,-1,-1,0,2021-08-16 12:29:31,750973
-1,-1,-1,-1,-2,1,0,-2,2021-08-16 12:29:31,750973
-2,0,0,0,-2,-3,-1,-1,2021-08-16 12:29:31,750973
-3,-2,-1,1,-1,-1,0,-1,2021-08-16 12:29:31,766974
0,0,-2,-2,-1,-1,-1,0,2021-08-16 12:29:31,766974
0,-1,-1,-1,-3,-1,-1,-3,2021-08-16 12:29:31,766974
1,-1,1,0,0,0,-2,-2,2021-08-16 12:29:31,766974
0,-2,-2,-1,-3,-2,-1,-1,2021-08-16 12:29:31,797976
-3,0,0,1,0,-1,0,-1,2021-08-16 12:29:31,813974
0,-1,-1,1,-1,-2,-2,0,2021-08-16 12:29:31,813974
0,0,0,-1,0,0,0,0,2021-08-16 12:29:31,813974
-2,-1,-1,-2,-1,1,1,1,2021-08-16 12:29:31,813974
-2,-3,0,0,-1,1,-2,-1,2021-08-16 12:29:31,813974
0,-2,-3,-2,-1,-2,-1,0,2021-08-16 12:29:31,829974
-1,-1,0,-1,-1,-2,1,-1,2021-08-16 12:29:31,829974
-1,-1,1,-2,-2,1,-1,-1,2021-08-16 12:29:31,829974
-1,1,-3,0,0,-1,1,0,2021-08-16 12:29:31,829974
-1,0,-1,-1,-1,-2,-1,-1,2021-08-16 12:29:31,841973
0,-2,-1,-1,-1,-1,0,0,2021-08-16 12:29:31,841973
-2,-1,-1,0,-1,0,0,-2,2021-08-16 12:29:31,842973
1,-1,0,0,-3,-3,-1,-2,2021-08-16 12:29:31,842973
-2,-2,-1,-3,-1,0,0,-2,2021-08-16 12:29:31,861973
0,-2,-2,0,1,0,0,-1,2021-08-16 12:29:31,861973
-2,0,-1,-1,0,-1,-1,2,2021-08-16 12:29:31,877973
0,-1,1,-1,1,0,-1,0,2021-08-16 12:29:31,877973
-1,-1,0,-1,-1,-2,-1,-1,2021-08-16 12:29:31,877973
-2,0,0,-2,-2,0,-1,-2,2021-08-16 12:29:31,877973
0,0,-1,0,0,0,0,-1,2021-08-16 12:29:31,893973
-2,0,-1,-1,-2,-1,0,-1,2021-08-16 12:29:31,893973
-1,0,0,-1,0,0,-1,2,2021-08-16 12:29:31,893973
-2,-2,0,-2,-1,-1,-1,0,2021-08-16 12:29:31,893973
1,-1,0,-1,-1,-1,-1,-3,2021-08-16 12:29:31,909973
-1,-2,-2,0,-1,0,-1,2,2021-08-16 12:29:31,909973
-2,1,-1,-1,-1,-1,0,-1,2021-08-16 12:29:31,909973
0,-2,-1,-1,0,0,-1,0,2021-08-16 12:29:31,909973
-2,-1,-1,-1,1,-2,-1,-1,2021-08-16 12:29:31,940973
1,-2,0,-2,-1,-1,-1,-1,2021-08-16 12:29:31,956973
-1,-2,0,-1,-2,-1,0,-1,2021-08-16 12:29:31,972971
-2,-1,0,0,0,1,-2,0,2021-08-16 12:29:31,972971
-1,-2,0,-1,-1,0,-2,0,2021-08-16 12:29:31,972971
-1,-1,-2,-1,-1,-2,-1,-1,2021-08-16 12:29:31,972971
0,-1,-2,0,0,0,-1,-2,2021-08-16 12:29:31,972971
0,1,0,-1,-2,-2,-1,-1,2021-08-16 12:29:31,972971
2,-1,-2,-1,1,0,-1,-1,2021-08-16 12:29:31,973974
-1,0,-1,0,0,-2,-1,0,2021-08-16 12:29:31,973974
-1,-2,-1,-1,-1,0,-1,0,2021-08-16 12:29:31,973974
1,-1,-2,0,-2,-2,-1,0,2021-08-16 12:29:31,973974
0,0,-2,-1,0,-2,0,-1,2021-08-16 12:29:32,003973
0,0,-1,-2,-2,1,0,0,2021-08-16 12:29:32,003973
1,0,-1,-3,-2,0,-1,-2,2021-08-16 12:29:32,003973
-1,0,-1,0,-1,0,-2,-1,2021-08-16 12:29:32,003973
-1,-2,1,-1,0,0,0,0,2021-08-16 12:29:32,018972
-3,0,0,-2,0,-1,0,-1,2021-08-16 12:29:32,018972
-2,0,0,-1,-1,0,-2,-2,2021-08-16 12:29:32,018972
-1,-1,-4,-2,0,1,-1,0,2021-08-16 12:29:32,018972
-3,0,0,0,-3,-2,-1,0,2021-08-16 12:29:32,034973
-1,-1,0,0,-2,0,-2,-1,2021-08-16 12:29:32,034973
0,-3,-1,-1,0,-1,0,0,2021-08-16 12:29:32,034973
-2,-1,0,0,0,0,-2,-2,2021-08-16 12:29:32,034973
-1,-1,-2,0,0,-1,-2,0,2021-08-16 12:29:32,050971
-2,-1,0,-2,0,0,-1,0,2021-08-16 12:29:32,050971
0,0,-1,-1,-2,-1,-2,0,2021-08-16 12:29:32,050971
-1,0,0,-1,0,-2,0,0,2021-08-16 12:29:32,050971
1,-1,-3,0,-2,0,-1,-1,2021-08-16 12:29:32,066973
0,-2,1,-1,-1,-1,-2,-1,2021-08-16 12:29:32,082973
0,0,-1,-2,0,0,0,-1,2021-08-16 12:29:32,098971
-1,0,0,0,1,-2,1,-1,2021-08-16 12:29:32,098971
-1,0,0,0,-2,-1,0,-2,2021-08-16 12:29:32,098971
-1,-2,-2,0,-1,-1,1,-1,2021-08-16 12:29:32,098971
0,-1,0,-1,-1,-1,0,-2,2021-08-16 12:29:32,098971
-2,-2,-2,-1,-2,-1,-2,-3,2021-08-16 12:29:32,098971
-1,0,-1,-1,-1,1,0,0,2021-08-16 12:29:32,115012
-1,-1,0,-1,-1,1,-1,0,2021-08-16 12:29:32,131012
0,-1,-3,-1,-1,-3,0,-2,2021-08-16 12:29:32,146973
-1,-1,1,0,-1,-1,-1,-1,2021-08-16 12:29:32,146973
1,-2,-1,-1,0,0,-2,0,2021-08-16 12:29:32,146973
-1,-1,-2,0,-1,-1,0,0,2021-08-16 12:29:32,146973
-1,-1,-2,-1,0,0,-1,1,2021-08-16 12:29:32,146973
0,-1,-1,-1,0,0,-2,2,2021-08-16 12:29:32,147973
-1,-1,-1,-2,0,-1,0,0,2021-08-16 12:29:32,147973
-1,1,0,-1,0,1,1,-2,2021-08-16 12:29:32,147973
-2,-1,-1,0,-1,-1,-1,0,2021-08-16 12:29:32,147973
1,-1,-1,-1,0,-1,1,1,2021-08-16 12:29:32,147973
-2,-1,-2,-1,-2,-1,0,0,2021-08-16 12:29:32,178971
-1,-1,0,0,-2,-1,-1,0,2021-08-16 12:29:32,178971
-1,1,-2,-1,-2,-2,-2,0,2021-08-16 12:29:32,178971
0,0,-1,0,-1,-1,1,-2,2021-08-16 12:29:32,178971
0,-1,-1,2,0,-1,-1,0,2021-08-16 12:29:32,178971
-1,1,-1,-2,0,-2,-1,0,2021-08-16 12:29:32,178971
-1,1,0,-1,-2,-1,2,-1,2021-08-16 12:29:32,194972
-1,-1,-2,-1,-2,-2,-1,-1,2021-08-16 12:29:32,194972
-1,0,0,-1,-1,0,0,-1,2021-08-16 12:29:32,210974
-1,0,-1,0,-1,0,-1,-2,2021-08-16 12:29:32,226974
1,-2,0,-1,-2,1,-2,1,2021-08-16 12:29:32,226974
-1,0,-1,-1,-2,0,0,-2,2021-08-16 12:29:32,226974
-2,-2,-1,-1,0,-1,-1,-1,2021-08-16 12:29:32,226974
0,-2,-1,0,0,-1,-1,-1,2021-08-16 12:29:32,226974
-1,-2,-2,0,1,-1,-1,-1,2021-08-16 12:29:32,226974
-1,-1,-1,-1,-1,-2,-1,0,2021-08-16 12:29:32,226974
-1,-1,-1,-2,-1,0,0,-1,2021-08-16 12:29:32,258974
-2,-1,-1,-1,0,-1,-1,-2,2021-08-16 12:29:32,258974
-1,0,-1,0,0,0,-2,-2,2021-08-16 12:29:32,258974
-1,0,-1,-2,-1,-1,0,0,2021-08-16 12:29:32,258974
0,-1,1,-2,1,-2,0,-1,2021-08-16 12:29:32,275021
1,0,-2,-1,-1,-1,0,-2,2021-08-16 12:29:32,275021
-2,-1,-1,0,-2,-2,-1,0,2021-08-16 12:29:32,275021
-1,-1,-1,-2,0,0,-1,-2,2021-08-16 12:29:32,275021
1,-1,-3,-1,-1,-1,0,-1,2021-08-16 12:29:32,290971
-1,-1,-1,0,-1,-2,-2,-2,2021-08-16 12:29:32,290971
-1,-1,0,-2,-1,-1,-1,-1,2021-08-16 12:29:32,290971
0,0,-1,-1,-2,0,1,-2,2021-08-16 12:29:32,290971
-1,-2,0,-1,-1,-3,-2,-1,2021-08-16 12:29:32,306973
1,-2,0,-1,-1,0,0,0,2021-08-16 12:29:32,321974
-1,0,-2,-1,-1,1,-1,0,2021-08-16 12:29:32,327971
-3,-2,0,0,0,0,-1,1,2021-08-16 12:29:32,327971
-1,1,0,0,0,0,1,-1,2021-08-16 12:29:32,327971
-2,-2,-2,-2,-1,-1,0,0,2021-08-16 12:29:32,328973
0,-1,1,0,1,-2,-4,0,2021-08-16 12:29:32,328973
1,0,-2,0,0,-2,-1,-2,2021-08-16 12:29:32,328973
-1,0,-1,-1,-2,0,-1,-1,2021-08-16 12:29:32,353974
0,0,0,-1,-2,-1,0,0,2021-08-16 12:29:32,353974
-1,-2,-2,0,0,1,2,-1,2021-08-16 12:29:32,353974
0,-2,-1,-2,0,-2,-2,1,2021-08-16 12:29:32,353974
-1,1,-2,-1,1,-1,-2,-1,2021-08-16 12:29:32,369010
-1,0,0,-1,-1,0,-1,-3,2021-08-16 12:29:32,369010
-1,-1,0,-2,1,0,0,-2,2021-08-16 12:29:32,369010
-2,-1,0,-1,-1,-1,-1,0,2021-08-16 12:29:32,369010
1,-1,1,-1,0,-1,-2,-1,2021-08-16 12:29:32,399971
0,0,-1,-1,0,-1,-2,-1,2021-08-16 12:29:32,399971
-2,1,-2,-2,-2,-1,0,0,2021-08-16 12:29:32,399971
-1,-1,-1,-3,0,-1,1,-1,2021-08-16 12:29:32,399971
1,-1,0,0,-1,-1,0,-1,2021-08-16 12:29:32,431971
-1,-1,-1,-1,1,-2,-1,1,2021-08-16 12:29:32,431971
0,-2,-1,0,-1,0,-1,-2,2021-08-16 12:29:32,431971
-1,2,-1,0,-1,-1,-2,0,2021-08-16 12:29:32,431971
-1,-2,-1,0,-3,-1,-1,0,2021-08-16 12:29:32,431971
0,-1,-1,-1,-1,-2,-1,-2,2021-08-16 12:29:32,431971
0,1,0,-1,0,-2,0,0,2021-08-16 12:29:32,431971
1,-1,0,0,-1,0,-2,-2,2021-08-16 12:29:32,432973
-2,0,0,-1,-2,-1,-2,0,2021-08-16 12:29:32,463973
-1,-1,-3,-1,-2,1,-1,0,2021-08-16 12:29:32,463973
-1,-1,-1,-2,-1,0,-1,-2,2021-08-16 12:29:32,463973
-1,-2,-3,-1,-2,0,0,-1,2021-08-16 12:29:32,463973
-1,-1,-1,-2,-1,0,0,-2,2021-08-16 12:29:32,479974
-2,0,1,-3,-1,0,0,1,2021-08-16 12:29:32,479974
-2,-1,-1,0,0,-1,-2,-1,2021-08-16 12:29:32,479974
1,-2,0,1,-2,0,-1,-2,2021-08-16 12:29:32,479974
0,-1,-2,0,0,-2,-2,-2,2021-08-16 12:29:32,495997
1,-1,-1,0,0,-1,-1,-1,2021-08-16 12:29:32,512022
-1,-1,0,-2,0,-2,0,-2,2021-08-16 12:29:32,528014
-3,-1,-3,-2,0,0,-3,-1,2021-08-16 12:29:32,544015
-2,-2,-1,0,0,0,1,1,2021-08-16 12:29:32,559976
-1,0,-1,0,-2,-2,-1,-2,2021-08-16 12:29:32,559976
-2,-1,0,-1,1,1,-1,-1,2021-08-16 12:29:32,559976
0,0,-1,2,0,-1,0,-2,2021-08-16 12:29:32,559976
-1,0,0,-1,-3,-1,-1,-1,2021-08-16 12:29:32,559976
0,-2,-1,-1,0,-1,-1,-2,2021-08-16 12:29:32,559976
-1,0,-1,1,-2,-1,0,0,2021-08-16 12:29:32,561013
-2,-1,-2,1,0,-2,-1,1,2021-08-16 12:29:32,561013
0,-2,-1,-1,-1,0,-2,-1,2021-08-16 12:29:32,561013
-1,-2,-1,0,0,-1,-1,-1,2021-08-16 12:29:32,561013
-1,-1,0,0,-1,-1,0,-2,2021-08-16 12:29:32,561013
-1,0,1,-1,0,-1,-1,-1,2021-08-16 12:29:32,561013
-1,-1,-1,-1,0,-1,0,-2,2021-08-16 12:29:32,575976
-2,-1,-1,-1,-2,1,0,0,2021-08-16 12:29:32,575976
-2,0,-1,0,0,-2,-1,0,2021-08-16 12:29:32,575976
-1,-2,-2,-1,-1,-2,0,-1,2021-08-16 12:29:32,575976
-2,-1,0,0,0,-1,-1,-1,2021-08-16 12:29:32,590973
-1,-1,0,1,1,-2,-1,-1,2021-08-16 12:29:32,590973
-1,-1,-1,-1,1,0,-1,-1,2021-08-16 12:29:32,590973
-2,-1,2,0,-2,0,0,0,2021-08-16 12:29:32,590973
-1,2,-1,0,1,-1,-1,0,2021-08-16 12:29:32,623021
-1,0,0,0,-3,0,-2,0,2021-08-16 12:29:32,623021
-1,0,-2,-1,-1,-2,-1,-2,2021-08-16 12:29:32,623021
0,0,0,-2,1,0,0,-2,2021-08-16 12:29:32,623021
0,-1,-2,-2,-1,-1,-1,0,2021-08-16 12:29:32,623021
0,-2,-2,1,1,-1,-1,-1,2021-08-16 12:29:32,623021
-2,-1,-2,0,-1,-1,-2,1,2021-08-16 12:29:32,639011
-1,-1,-1,0,-2,1,0,0,2021-08-16 12:29:32,639011
0,0,-1,-2,-1,1,0,-1,2021-08-16 12:29:32,654011
-1,0,0,-1,-1,-2,-1,-1,2021-08-16 12:29:32,654011
0,-1,0,-3,-3,-2,-2,-2,2021-08-16 12:29:32,654011
1,-2,-1,0,0,-1,-2,-1,2021-08-16 12:29:32,654011
0,-2,-1,-1,-2,1,-1,-1,2021-08-16 12:29:32,684972
-2,-1,-2,0,-1,-1,1,-3,2021-08-16 12:29:32,684972
-1,-2,-1,-1,-1,-1,1,-2,2021-08-16 12:29:32,684972
-1,0,0,0,-1,-3,0,-1,2021-08-16 12:29:32,684972
-3,0,-1,0,0,-1,-1,-1,2021-08-16 12:29:32,684972
0,-2,-1,-2,0,1,-2,-1,2021-08-16 12:29:32,684972
-2,-2,-2,-1,0,0,-1,1,2021-08-16 12:29:32,684972
-1,0,0,0,0,-2,-1,-1,2021-08-16 12:29:32,686011
0,-1,-1,-1,-1,-2,1,-2,2021-08-16 12:29:32,716975
-2,-1,-2,-1,-1,-1,0,0,2021-08-16 12:29:32,716975
0,-1,-1,-2,-1,-1,-1,0,2021-08-16 12:29:32,716975
1,-1,0,-2,1,-1,-1,-2,2021-08-16 12:29:32,716975
0,-1,-1,-1,0,-1,-1,0,2021-08-16 12:29:32,733019
0,1,-1,-1,-1,-1,-1,0,2021-08-16 12:29:32,733019
-2,-2,1,-2,-1,0,-1,0,2021-08-16 12:29:32,733019
-1,-1,-2,-3,0,0,1,0,2021-08-16 12:29:32,733019
-2,-1,-1,0,0,-3,-1,-2,2021-08-16 12:29:32,764543
-1,-1,-2,-1,0,-1,-2,-2,2021-08-16 12:29:32,764543
-2,0,0,1,0,-1,0,-1,2021-08-16 12:29:32,764543
0,1,-2,-1,-2,-1,-3,-2,2021-08-16 12:29:32,764543
-1,-1,0,-1,-2,-1,0,0,2021-08-16 12:29:32,764543
-1,0,-1,-1,-1,1,-1,-2,2021-08-16 12:29:32,764543
0,-1,0,0,-2,-1,2,-1,2021-08-16 12:29:32,779546
-4,-2,-2,-1,0,-1,-1,-1,2021-08-16 12:29:32,779546
-1,0,-1,0,-2,0,-1,0,2021-08-16 12:29:32,795544
0,-1,-1,1,-1,0,-2,-1,2021-08-16 12:29:32,795544
1,-1,-2,-1,-1,-2,0,1,2021-08-16 12:29:32,811580
-2,-1,-2,-3,-1,-1,0,-1,2021-08-16 12:29:32,827544
-1,0,-2,-3,0,-1,-2,0,2021-08-16 12:29:32,827544
-1,-1,1,-2,-1,0,1,-1,2021-08-16 12:29:32,827544
-1,-1,-1,1,-2,-1,-1,0,2021-08-16 12:29:32,827544
-1,1,-1,-1,-1,-1,-2,-1,2021-08-16 12:29:32,827544
-1,0,-2,0,0,-1,0,-2,2021-08-16 12:29:32,827544
0,0,0,-1,0,-4,-3,-1,2021-08-16 12:29:32,828544
1,-3,0,0,-1,-1,-1,-2,2021-08-16 12:29:32,828544
-1,-1,0,-1,-1,0,0,-2,2021-08-16 12:29:32,828544
-1,-1,-2,-1,-1,-1,0,-1,2021-08-16 12:29:32,859544
-1,1,-1,1,0,0,0,0,2021-08-16 12:29:32,859544
0,-1,-1,-1,-1,0,0,-1,2021-08-16 12:29:32,859544
0,-2,-1,0,0,-1,-2,0,2021-08-16 12:29:32,859544
1,-1,1,-1,-1,-2,-1,-1,2021-08-16 12:29:32,875546
-1,-2,0,-1,-1,-1,-1,0,2021-08-16 12:29:32,891545
0,0,-2,-1,0,-1,-3,-2,2021-08-16 12:29:32,891545
0,-1,-1,-1,-2,-1,0,-1,2021-08-16 12:29:32,891545
-1,-1,-1,-1,0,-1,-1,0,2021-08-16 12:29:32,892546
-2,-2,-1,-1,-2,-2,1,0,2021-08-16 12:29:32,892546
-4,0,-1,-2,0,0,-1,-2,2021-08-16 12:29:32,892546
0,-1,-1,-1,-1,-3,-1,0,2021-08-16 12:29:32,892546
0,-1,-1,1,-1,0,0,1,2021-08-16 12:29:32,923542
-1,0,0,-2,-2,-1,-1,-1,2021-08-16 12:29:32,923542
0,-1,-1,0,0,0,1,0,2021-08-16 12:29:32,923542
-1,0,0,0,-2,-1,-1,-2,2021-08-16 12:29:32,923542
-1,0,-1,-1,-1,-1,0,-1,2021-08-16 12:29:32,923542
-2,-2,-1,-1,-2,-1,-1,0,2021-08-16 12:29:32,923542
-1,-2,-2,-1,-2,-2,1,0,2021-08-16 12:29:32,924545
-1,-2,1,-1,0,0,-1,0,2021-08-16 12:29:32,924545
0,0,0,0,-1,-1,-2,0,2021-08-16 12:29:32,954542
-1,-2,-2,0,-1,0,-1,0,2021-08-16 12:29:32,954542
0,0,0,-3,0,-1,-1,1,2021-08-16 12:29:32,970542
0,-1,-1,-2,0,1,-2,0,2021-08-16 12:29:32,970542
-1,-1,1,-1,0,0,0,-2,2021-08-16 12:29:32,970542
-1,-1,-2,-1,1,-1,-1,0,2021-08-16 12:29:32,970542
-1,0,0,0,-1,-1,-1,-1,2021-08-16 12:29:32,970542
0,-1,-3,0,-1,-2,0,0,2021-08-16 12:29:32,971545
0,-1,0,-1,1,-1,-3,-1,2021-08-16 12:29:32,986542
-1,0,-1,-1,-1,-1,1,-1,2021-08-16 12:29:32,986542
-2,-2,0,-2,-1,0,-1,0,2021-08-16 12:29:32,986542
-1,-2,0,0,0,0,-2,-1,2021-08-16 12:29:32,986542
-1,-2,-1,-1,0,-1,0,0,2021-08-16 12:29:33,018544
-1,0,-2,-1,-1,-1,-1,-1,2021-08-16 12:29:33,034544
1,0,0,1,0,-2,-2,-2,2021-08-16 12:29:33,034544
-1,-1,-2,-1,0,0,1,-2,2021-08-16 12:29:33,034544
-1,-2,-2,-1,-1,-1,0,1,2021-08-16 12:29:33,034544
1,-1,0,-2,1,-1,0,-1,2021-08-16 12:29:33,034544
-1,-1,0,-1,-1,0,0,1,2021-08-16 12:29:33,034544
-1,-2,-1,0,0,0,0,0,2021-08-16 12:29:33,034544
-2,0,-1,-1,-2,0,-2,-1,2021-08-16 12:29:33,050545
-1,-2,-1,-1,-2,0,0,-1,2021-08-16 12:29:33,066593
-1,0,0,-1,-2,-1,-1,-1,2021-08-16 12:29:33,082542
0,-1,0,2,1,-1,-1,0,2021-08-16 12:29:33,082542
-1,-3,-1,-1,1,0,0,0,2021-08-16 12:29:33,082542
0,1,0,1,-3,-2,-2,0,2021-08-16 12:29:33,098543
-1,-2,-1,1,0,0,-1,-2,2021-08-16 12:29:33,098785
-2,0,-1,-1,-2,0,0,-1,2021-08-16 12:29:33,098785
0,-1,-1,0,-1,-1,-1,0,2021-08-16 12:29:33,098785
1,0,-1,-1,0,-1,0,0,2021-08-16 12:29:33,098785
-2,-3,-2,0,0,-1,-1,0,2021-08-16 12:29:33,098785
-1,0,-1,-1,-3,-1,-1,-2,2021-08-16 12:29:33,099544
-2,1,-2,-1,-1,-1,-2,-2,2021-08-16 12:29:33,114007
-1,-1,-1,-1,-1,0,1,-1,2021-08-16 12:29:33,114007
-1,0,-1,-3,0,-1,-1,0,2021-08-16 12:29:33,114007
0,-1,0,-1,0,-1,0,0,2021-08-16 12:29:33,114007
-2,-1,-2,0,-1,-1,0,-1,2021-08-16 12:29:33,146008
0,0,-2,-1,1,-2,-1,-1,2021-08-16 12:29:33,162007
0,0,-2,0,-1,0,0,0,2021-08-16 12:29:33,162007
-1,-1,-2,-3,-1,0,0,-1,2021-08-16 12:29:33,162007
-1,-1,-2,0,-1,-2,1,0,2021-08-16 12:29:33,162007
-1,2,-1,-1,-1,1,-1,0,2021-08-16 12:29:33,163009
-1,-2,0,0,-1,-1,0,0,2021-08-16 12:29:33,163009
-1,-1,1,0,-2,-1,-1,-1,2021-08-16 12:29:33,163009
-1,0,0,-1,-1,-1,-1,0,2021-08-16 12:29:33,163009
1,-3,-1,-1,0,-2,-2,-1,2021-08-16 12:29:33,163009
0,0,-1,-1,-1,-1,-1,-1,2021-08-16 12:29:33,178007
-1,0,-1,-1,-1,-2,-3,-1,2021-08-16 12:29:33,194008
0,0,-1,-1,-1,0,0,0,2021-08-16 12:29:33,194008
0,-1,0,0,0,-1,-2,-2,2021-08-16 12:29:33,194008
-1,0,-2,-1,-1,1,-1,-1,2021-08-16 12:29:33,194008
-1,-2,1,0,0,0,0,-1,2021-08-16 12:29:33,194008
0,0,0,-2,0,-1,-2,-1,2021-08-16 12:29:33,225057
-1,1,0,-1,-2,-2,0,-2,2021-08-16 12:29:33,225057
-1,-2,0,-1,-1,1,0,0,2021-08-16 12:29:33,225057
-2,-2,-2,-2,0,-1,-1,-1,2021-08-16 12:29:33,225057
0,-2,0,2,-1,0,0,-1,2021-08-16 12:29:33,225057
-2,-1,0,-1,-1,0,-2,1,2021-08-16 12:29:33,241049
-1,-1,-1,-2,-2,0,-1,-2,2021-08-16 12:29:33,255009
0,0,-1,-2,-2,-1,0,-1,2021-08-16 12:29:33,255009
-1,0,-1,-2,0,-1,0,-2,2021-08-16 12:29:33,255009
0,-1,1,0,-2,0,-1,-2,2021-08-16 12:29:33,255009
0,0,-1,-2,0,-3,0,-1,2021-08-16 12:29:33,256046
-1,0,-1,-1,0,-1,-3,0,2021-08-16 12:29:33,256046
1,-1,0,0,-2,0,-3,-1,2021-08-16 12:29:33,273006
-1,-2,0,-1,-1,-1,-2,-1,2021-08-16 12:29:33,273006
-2,-1,-2,1,-1,-2,-1,-1,2021-08-16 12:29:33,273006
1,0,-1,-1,-1,-1,0,-1,2021-08-16 12:29:33,273006
-2,0,-2,-1,0,0,-1,-1,2021-08-16 12:29:33,289058
-2,0,-1,-3,-2,0,-2,0,2021-08-16 12:29:33,289058
-1,-2,0,-1,0,-1,-1,-1,2021-08-16 12:29:33,305009
-1,-1,-3,-1,1,-2,-1,-1,2021-08-16 12:29:33,321009
-1,0,0,-1,-3,-2,-1,-1,2021-08-16 12:29:33,321009
-2,0,-1,1,0,0,0,0,2021-08-16 12:29:33,321009
-1,0,1,-1,0,-2,-1,-1,2021-08-16 12:29:33,321009
0,-1,-1,0,0,-1,0,-3,2021-08-16 12:29:33,321009
-1,-1,-1,-1,-2,-1,-2,-2,2021-08-16 12:29:33,337007
-1,-1,-2,-1,-1,0,0,-1,2021-08-16 12:29:33,353045
-2,-1,-1,-3,-1,0,-2,1,2021-08-16 12:29:33,353045
-1,-1,0,0,-3,1,-1,0,2021-08-16 12:29:33,353045
-1,-3,0,-2,0,-1,0,1,2021-08-16 12:29:33,353045
1,-1,-2,-2,0,0,0,1,2021-08-16 12:29:33,353045
1,0,-1,-1,-2,-1,-2,0,2021-08-16 12:29:33,354008
0,0,-2,-2,0,-3,-1,-1,2021-08-16 12:29:33,354008
-1,-1,0,-1,-2,-1,-1,1,2021-08-16 12:29:33,385038
-2,0,-2,0,0,0,0,-1,2021-08-16 12:29:33,401006
1,0,1,-1,-1,0,-2,-1,2021-08-16 12:29:33,401006
-1,0,-1,-1,-1,1,0,0,2021-08-16 12:29:33,401006
-2,0,-1,0,0,1,-2,0,2021-08-16 12:29:33,401006
0,-1,1,0,-1,-2,0,-1,2021-08-16 12:29:33,401006
1,-3,-1,-1,-1,-1,0,-2,2021-08-16 12:29:33,401006
-1,-1,-2,-2,-2,-2,-1,0,2021-08-16 12:29:33,401006
1,1,-2,-2,0,-1,0,-1,2021-08-16 12:29:33,417010
0,-1,-2,-1,-1,-2,-1,0,2021-08-16 12:29:33,417010
-1,0,-1,1,-1,-3,0,0,2021-08-16 12:29:33,417010
-1,-2,-1,0,-1,-1,-2,-2,2021-08-16 12:29:33,417010
1,-1,-2,-2,-1,-1,0,-1,2021-08-16 12:29:33,433006
-1,0,0,1,-2,1,0,3,2021-08-16 12:29:33,433006
0,-2,-1,0,0,0,0,-1,2021-08-16 12:29:33,433006
-1,-1,-1,-1,-1,0,-1,-1,2021-08-16 12:29:33,433006
-1,-1,-2,0,1,0,2,-1,2021-08-16 12:29:33,464043
-1,0,-3,-1,0,-1,-2,-2,2021-08-16 12:29:33,464043
0,-1,-2,-2,-1,-1,-1,1,2021-08-16 12:29:33,464043
0,0,0,-2,0,0,-2,0,2021-08-16 12:29:33,464043
-2,-2,-1,-2,-1,1,1,1,2021-08-16 12:29:33,480009
1,-1,0,-3,1,-2,0,-1,2021-08-16 12:29:33,480009
-1,0,-1,-1,0,-1,0,0,2021-08-16 12:29:33,480009
-1,-2,-1,-2,-1,-1,0,-2,2021-08-16 12:29:33,496045
0,0,0,0,0,-2,-3,0,2021-08-16 12:29:33,496045
-2,0,-1,0,0,-1,-1,0,2021-08-16 12:29:33,496045
-2,1,-1,-2,-3,-3,-1,-1,2021-08-16 12:29:33,496045
-2,0,-1,-1,-1,-1,0,0,2021-08-16 12:29:33,496045
-2,-1,-1,-1,-1,-1,-1,1,2021-08-16 12:29:33,528006
-1,-1,0,0,0,-1,-1,0,2021-08-16 12:29:33,528006
0,-1,-2,-1,0,-2,0,-1,2021-08-16 12:29:33,528006
1,-3,0,1,-1,1,-1,1,2021-08-16 12:29:33,528006
-1,0,-1,-2,-4,-2,0,-1,2021-08-16 12:29:33,544046
-2,-1,0,0,0,0,-1,-1,2021-08-16 12:29:33,560006
-2,0,-2,1,-1,0,0,-1,2021-08-16 12:29:33,576044
0,0,-1,-2,0,-2,-2,1,2021-08-16 12:29:33,576044
0,-1,0,0,-3,-1,-2,-2,2021-08-16 12:29:33,576044
-2,0,-1,-1,-1,0,1,-1,2021-08-16 12:29:33,576044
-1,-2,-2,0,-1,-1,-1,-1,2021-08-16 12:29:33,576044
-1,-1,-2,-1,0,0,1,-3,2021-08-16 12:29:33,576044
0,-1,0,-1,1,1,0,-1,2021-08-16 12:29:33,577009
1,-1,-2,-1,-2,-1,0,1,2021-08-16 12:29:33,577009
0,-2,-1,-1,-1,1,0,-2,2021-08-16 12:29:33,577009
-1,0,-2,0,-2,-1,-1,0,2021-08-16 12:29:33,577009
-1,0,-2,-1,-1,-1,-1,0,2021-08-16 12:29:33,607007
-1,-2,-1,-1,-2,-2,-1,-2,2021-08-16 12:29:33,607007
-1,-2,0,-2,1,0,-3,0,2021-08-16 12:29:33,607007
-1,-1,-1,1,-2,-1,0,0,2021-08-16 12:29:33,607007
-1,0,1,-1,-1,-1,-1,-2,2021-08-16 12:29:33,607007
0,1,-2,-1,-1,-1,-1,-1,2021-08-16 12:29:33,607007
0,-2,-2,1,-1,-1,-1,-1,2021-08-16 12:29:33,608009
0,-3,-1,-1,0,-2,-2,-1,2021-08-16 12:29:33,608009
0,-1,-1,-1,0,-1,0,-2,2021-08-16 12:29:33,639006
-1,-2,-2,-2,0,-1,-1,0,2021-08-16 12:29:33,639006
-3,0,0,-1,-1,-1,-1,-2,2021-08-16 12:29:33,639006
0,-2,1,-1,0,0,-2,-1,2021-08-16 12:29:33,639006
-1,-1,-1,0,0,-2,0,-1,2021-08-16 12:29:33,669006
0,-1,-1,-1,-2,0,-2,-2,2021-08-16 12:29:33,669006
0,1,-1,1,-2,-2,0,-1,2021-08-16 12:29:33,669006
-1,0,-1,0,-1,-1,0,0,2021-08-16 12:29:33,669006
-1,-1,-1,0,0,-1,-2,-1,2021-08-16 12:29:33,669006
0,0,0,0,-1,-1,-2,-1,2021-08-16 12:29:33,669006
-1,0,-2,-1,1,-1,-2,-1,2021-08-16 12:29:33,670008
1,0,-1,-1,-2,0,-1,-1,2021-08-16 12:29:33,670008
-1,-1,-2,-1,-1,-1,-1,1,2021-08-16 12:29:33,701008
-1,-1,-2,-2,0,-1,0,1,2021-08-16 12:29:33,701008
0,-1,0,-2,-1,0,-1,0,2021-08-16 12:29:33,701008
-2,0,-1,0,-1,-2,-1,-1,2021-08-16 12:29:33,701008
2,0,-2,0,-1,-1,-1,0,2021-08-16 12:29:33,716006
-2,-1,0,0,-2,0,0,-1,2021-08-16 12:29:33,716006
0,0,-1,-1,-1,0,1,-1,2021-08-16 12:29:33,716006
-1,0,-1,-1,-1,-1,0,0,2021-08-16 12:29:33,717010
-2,-3,-1,-2,0,-1,-1,-3,2021-08-16 12:29:33,733008
-1,0,0,0,-2,-2,-1,-1,2021-08-16 12:29:33,733008
1,-3,1,-1,0,0,-1,0,2021-08-16 12:29:33,733008
-2,1,0,0,-1,0,-1,-2,2021-08-16 12:29:33,733008
-1,1,0,-1,-1,0,-1,0,2021-08-16 12:29:33,765006
0,-1,-2,-1,-2,0,1,-1,2021-08-16 12:29:33,765006
-1,0,-1,-1,-2,0,1,-1,2021-08-16 12:29:33,765006
0,-1,-2,-2,-1,0,0,-1,2021-08-16 12:29:33,765006
-2,-1,-1,-1,0,-1,0,0,2021-08-16 12:29:33,781006
-1,1,-2,1,0,-2,-1,0,2021-08-16 12:29:33,797006
0,2,-1,-1,0,-2,-1,-3,2021-08-16 12:29:33,797006
-1,0,-1,1,0,-1,-2,-3,2021-08-16 12:29:33,813007
-1,-1,-1,-2,0,0,-1,-1,2021-08-16 12:29:33,829006
0,-2,0,-1,-1,-1,-1,-2,2021-08-16 12:29:33,829006
-1,-1,-1,0,-2,-1,-1,0,2021-08-16 12:29:33,829006
-2,0,-3,-1,1,-3,-1,-1,2021-08-16 12:29:33,829006
1,-1,0,-1,-2,0,0,0,2021-08-16 12:29:33,829006
0,-2,-1,1,0,-1,0,-2,2021-08-16 12:29:33,829006
1,0,-2,0,-2,0,0,-1,2021-08-16 12:29:33,830009
1,-1,-1,-1,-1,0,0,-2,2021-08-16 12:29:33,830009
1,1,1,0,0,-1,0,-1,2021-08-16 12:29:33,845008
-1,1,1,-2,0,0,0,-1,2021-08-16 12:29:33,861006
-1,-1,0,-1,0,-1,-2,-1,2021-08-16 12:29:33,877008
0,-1,-1,1,-2,0,-1,0,2021-08-16 12:29:33,893047
0,-1,-2,1,-1,-3,0,-1,2021-08-16 12:29:33,893047
1,-1,-2,-3,0,1,-1,0,2021-08-16 12:29:33,893047
-2,-1,-2,0,0,0,0,-1,2021-08-16 12:29:33,893047
-1,-2,-2,-1,1,0,-1,1,2021-08-16 12:29:33,893047
1,-1,-2,-1,-1,-1,-2,0,2021-08-16 12:29:33,925055
-1,0,0,-2,0,-1,-1,1,2021-08-16 12:29:33,925055
0,0,-2,-2,-1,0,-1,-1,2021-08-16 12:29:33,925055
-1,-1,-1,-1,-1,0,-1,-1,2021-08-16 12:29:33,941043
-1,0,0,-1,0,0,0,0,2021-08-16 12:29:33,941043
-3,-2,-1,1,0,-1,-2,-3,2021-08-16 12:29:33,941043
-2,-1,1,-1,-1,-1,-1,0,2021-08-16 12:29:33,941043
-1,-1,0,0,0,1,1,-1,2021-08-16 12:29:33,941043
-2,-3,-1,-1,0,-1,-1,-1,2021-08-16 12:29:33,941043
-1,-2,-2,-2,-1,-1,-1,-1,2021-08-16 12:29:33,941043
-2,-2,-1,-1,-2,-2,-2,0,2021-08-16 12:29:33,942009
0,-2,-1,-1,-2,0,0,0,2021-08-16 12:29:33,942009
-1,0,0,-1,-2,-1,-1,0,2021-08-16 12:29:33,942009
0,-1,-1,0,-1,-1,0,-1,2021-08-16 12:29:33,942009
-2,-2,0,1,-1,0,-1,-1,2021-08-16 12:29:33,942009
0,0,-1,-1,1,-1,-1,0,2021-08-16 12:29:33,942009
-3,0,-2,-1,-1,-2,-1,0,2021-08-16 12:29:33,957008
-3,1,1,0,-4,0,-1,-2,2021-08-16 12:29:33,957008
-1,-1,-1,-2,-3,-1,0,-1,2021-08-16 12:29:33,957008
1,0,0,-1,-2,-2,-1,1,2021-08-16 12:29:33,957008
0,-2,-2,-1,1,0,0,1,2021-08-16 12:29:33,973006
1,0,-2,-1,-1,-1,0,0,2021-08-16 12:29:33,973006
-1,-2,0,0,0,-1,-1,-1,2021-08-16 12:29:33,973006
-1,0,-1,1,-1,-1,0,-2,2021-08-16 12:29:33,973006
-1,1,0,0,-1,-1,-1,-2,2021-08-16 12:29:34,005007
-1,-2,0,-1,-2,0,-2,0,2021-08-16 12:29:34,021008
-2,-1,-1,0,0,0,0,-1,2021-08-16 12:29:34,021008
-1,0,-2,-1,-1,-1,0,1,2021-08-16 12:29:34,021008
0,-2,-2,-1,-2,-1,1,0,2021-08-16 12:29:34,021008
-1,-1,-3,0,-1,0,-1,-1,2021-08-16 12:29:34,021008
-1,0,0,-1,0,-1,-2,-2,2021-08-16 12:29:34,022009
-1,-2,0,-1,-1,-1,-3,0,2021-08-16 12:29:34,022009
-1,0,-3,-2,0,0,0,-2,2021-08-16 12:29:34,037006
0,-3,0,-1,-1,0,-2,-1,2021-08-16 12:29:34,037006
0,0,-1,-2,0,-1,0,0,2021-08-16 12:29:34,037006
-1,-1,-1,-1,0,-1,0,-1,2021-08-16 12:29:34,037006
-2,-1,-1,0,-2,-1,-3,0,2021-08-16 12:29:34,084008
0,-1,0,0,1,-2,0,0,2021-08-16 12:29:34,084008
-1,0,-3,0,-1,-1,-1,-1,2021-08-16 12:29:34,084008
-2,-2,0,-1,-2,-1,-1,-2,2021-08-16 12:29:34,084008
-1,-3,1,0,-2,0,-2,-1,2021-08-16 12:29:34,084008
-1,-1,-1,-1,-1,-1,0,-1,2021-08-16 12:29:34,084008
0,0,-2,-1,-2,-1,-2,-1,2021-08-16 12:29:34,085008
-2,-1,0,-2,-2,0,0,0,2021-08-16 12:29:34,085008
0,0,-1,-1,-2,-1,1,-1,2021-08-16 12:29:34,085008
-2,-1,-1,-1,-1,-1,-1,0,2021-08-16 12:29:34,085008
0,-1,1,-1,-1,0,0,-1,2021-08-16 12:29:34,100006
-1,-2,-2,-2,0,0,-1,-2,2021-08-16 12:29:34,100006
-1,-1,-1,0,1,-1,-1,-1,2021-08-16 12:29:34,116008
-1,0,-1,-1,-3,-1,0,-3,2021-08-16 12:29:34,116008
0,-2,0,0,-1,-1,-1,-1,2021-08-16 12:29:34,116008
0,-2,-1,0,-1,0,-1,-1,2021-08-16 12:29:34,116008
-1,0,0,-1,-1,0,1,0,2021-08-16 12:29:34,148008
-1,-1,-1,-1,-1,0,0,0,2021-08-16 12:29:34,148008
-1,-2,0,-1,0,0,-2,-1,2021-08-16 12:29:34,148008
0,1,-2,-1,-2,0,-1,0,2021-08-16 12:29:34,164007
-1,-1,0,-2,0,0,-1,-1,2021-08-16 12:29:34,183008
0,-1,0,-2,0,-2,0,-1,2021-08-16 12:29:34,183008
-2,-3,0,-1,0,-1,1,-1,2021-08-16 12:29:34,183008
-1,1,0,0,0,0,-1,-1,2021-08-16 12:29:34,183008
-1,-1,-2,1,-2,0,-2,-1,2021-08-16 12:29:34,184008
0,-1,-2,-1,0,1,-1,0,2021-08-16 12:29:34,184008
0,-2,-2,-2,0,0,0,-1,2021-08-16 12:29:34,184008
1,0,0,-2,0,-2,0,0,2021-08-16 12:29:34,184008
-1,-2,-1,0,-1,1,-1,0,2021-08-16 12:29:34,212006
0,0,-1,-1,-2,-2,-2,-1,2021-08-16 12:29:34,212006
-1,-1,-2,0,-1,-2,-1,-1,2021-08-16 12:29:34,212006
-2,-2,-2,-2,-2,0,-2,-1,2021-08-16 12:29:34,212006
2,0,-1,0,-2,0,-1,-1,2021-08-16 12:29:34,212006
0,-1,1,1,0,-1,-1,-1,2021-08-16 12:29:34,213009
-1,0,-2,0,-1,-1,-1,1,2021-08-16 12:29:34,213009
1,-1,0,-2,-2,-1,2,-1,2021-08-16 12:29:34,213009
-2,-1,1,0,0,-2,0,-1,2021-08-16 12:29:34,244046
-1,0,-1,0,0,-1,-1,-1,2021-08-16 12:29:34,260046
1,0,0,-1,-2,0,-1,0,2021-08-16 12:29:34,260046
-3,1,0,1,-1,-1,-3,-1,2021-08-16 12:29:34,260465
0,-1,-2,-2,-2,1,-1,-2,2021-08-16 12:29:34,260465
-2,-1,-1,0,0,1,-1,1,2021-08-16 12:29:34,260465
0,-1,1,-2,0,-1,1,0,2021-08-16 12:29:34,260465
0,-2,-2,-1,0,-2,-1,0,2021-08-16 12:29:34,261051
0,1,0,-3,-2,-2,0,0,2021-08-16 12:29:34,276012
-1,1,-2,-2,0,-2,-1,1,2021-08-16 12:29:34,276012
0,0,-3,0,0,1,0,-2,2021-08-16 12:29:34,276012
-1,0,-2,-1,-1,1,1,0,2021-08-16 12:29:34,276012
1,-2,1,0,0,-2,-1,-2,2021-08-16 12:29:34,308051
-2,-1,-2,-1,-2,0,1,-1,2021-08-16 12:29:34,308051
-1,1,-1,0,-2,0,0,1,2021-08-16 12:29:34,308051
0,-1,0,1,-1,-1,-2,-1,2021-08-16 12:29:34,308051
-1,-2,-3,-1,-2,-1,0,-1,2021-08-16 12:29:34,324008
0,-1,1,-1,-1,-1,-2,-2,2021-08-16 12:29:34,340046
-1,-1,0,-1,0,1,-1,-1,2021-08-16 12:29:34,340046
-1,-2,-1,-1,-1,-1,0,-1,2021-08-16 12:29:34,340046
-1,-2,-1,-1,-1,0,-2,-3,2021-08-16 12:29:34,340046
0,0,-2,-1,-1,1,-1,0,2021-08-16 12:29:34,340046
0,0,-1,-1,-3,-1,-2,-1,2021-08-16 12:29:34,340046
-2,-2,0,-2,0,-1,0,-1,2021-08-16 12:29:34,341008
-2,-1,-1,-1,-1,-1,-1,-1,2021-08-16 12:29:34,356046
-2,-1,-1,0,-1,-1,-1,-1,2021-08-16 12:29:34,356046
-1,0,-1,-1,0,-1,-1,-1,2021-08-16 12:29:34,356046
2,-2,1,0,-1,-1,-2,-1,2021-08-16 12:29:34,356046
-1,-1,-1,-1,-1,0,-2,-1,2021-08-16 12:29:34,387007
-1,-1,-1,-2,-1,-1,-2,-1,2021-08-16 12:29:34,403056
0,-2,-1,0,-2,0,-1,0,2021-08-16 12:29:34,403056
0,1,-3,-1,-2,0,-1,-1,2021-08-16 12:29:34,403056
0,-3,-1,-1,0,0,-1,-1,2021-08-16 12:29:34,403056
0,-2,-1,-1,-1,0,-1,-2,2021-08-16 12:29:34,403056
-1,-2,-1,-1,-1,-1,-2,-1,2021-08-16 12:29:34,403056
-1,0,-2,-1,0,-2,0,0,2021-08-16 12:29:34,403056
-2,0,-1,-1,-2,-1,0,0,2021-08-16 12:29:34,419006
0,0,-2,0,0,0,1,0,2021-08-16 12:29:34,435046
0,0,-1,0,-1,-1,0,-2,2021-08-16 12:29:34,435046
0,-2,0,0,-2,0,-1,-1,2021-08-16 12:29:34,435046
-2,1,-1,1,0,-1,-1,0,2021-08-16 12:29:34,435046
0,-2,0,-1,0,-1,-1,1,2021-08-16 12:29:34,435046
-1,1,0,0,1,-1,-2,-1,2021-08-16 12:29:34,436009
-1,-1,-3,0,-1,0,-2,-1,2021-08-16 12:29:34,436009
0,-1,-1,0,-1,1,0,1,2021-08-16 12:29:34,467007
-2,1,-2,-3,-3,1,0,-3,2021-08-16 12:29:34,467007
-2,0,-3,-1,-1,1,-1,-2,2021-08-16 12:29:34,482312
-1,0,-1,-1,0,-1,0,-1,2021-08-16 12:29:34,482312
-1,-1,-2,-1,-1,-2,-2,-2,2021-08-16 12:29:34,497520
1,-2,0,0,-1,-1,0,-1,2021-08-16 12:29:34,497520
0,-1,-2,-2,-1,0,-2,-2,2021-08-16 12:29:34,497520
0,-1,0,0,-1,0,-1,-1,2021-08-16 12:29:34,497520
-1,0,-1,-2,1,-2,-1,-1,2021-08-16 12:29:34,497520
-1,0,1,1,-1,-1,-1,1,2021-08-16 12:29:34,497520
0,-1,-1,0,-2,-1,0,-1,2021-08-16 12:29:34,498521
-1,-2,-1,1,-1,0,-2,0,2021-08-16 12:29:34,498521
-1,0,-1,-1,0,-1,-1,-2,2021-08-16 12:29:34,545523
-2,0,-3,-2,-2,1,-1,-2,2021-08-16 12:29:34,561522
-1,-1,1,-2,-1,-1,-1,-1,2021-08-16 12:29:34,577519
-1,1,-3,-2,-2,0,-1,-1,2021-08-16 12:29:34,577519
2,-1,1,0,-1,-1,1,1,2021-08-16 12:29:34,577519
0,-2,-1,0,0,-2,-2,1,2021-08-16 12:29:34,577519
-1,1,-1,-1,-2,-1,-1,-1,2021-08-16 12:29:34,577519
-3,-2,1,0,1,-2,-2,0,2021-08-16 12:29:34,577519
0,0,0,0,-1,0,-1,-1,2021-08-16 12:29:34,577519
0,-1,0,0,-1,0,-2,-1,2021-08-16 12:29:34,578522
0,-1,-1,-3,0,-1,-2,0,2021-08-16 12:29:34,578522
0,0,-2,0,-1,-3,-1,-1,2021-08-16 12:29:34,578522
-1,1,-1,-1,-2,1,-2,-1,2021-08-16 12:29:34,578522
-1,-1,0,-1,-1,-1,-2,0,2021-08-16 12:29:34,578522
-1,0,0,-2,-1,0,-2,-1,2021-08-16 12:29:34,578522
0,0,0,-3,-2,0,-1,-1,2021-08-16 12:29:34,578522
-1,-2,-2,2,-2,-2,-2,-1,2021-08-16 12:29:34,592522
-2,-1,-1,-1,-1,-2,1,-1,2021-08-16 12:29:34,608520
-1,0,-1,0,0,0,0,-2,2021-08-16 12:29:34,624519
0,0,0,-1,-1,-1,0,0,2021-08-16 12:29:34,624519
-1,0,0,-2,0,-1,-1,0,2021-08-16 12:29:34,624519
-1,-1,0,0,0,-1,0,-1,2021-08-16 12:29:34,624519
-1,0,0,0,-1,-1,-2,0,2021-08-16 12:29:34,624519
0,-2,-1,-1,-1,-1,-1,-1,2021-08-16 12:29:34,625521
-1,-1,0,0,0,-1,-1,-1,2021-08-16 12:29:34,640519
0,-1,-3,-2,-1,0,-1,-1,2021-08-16 12:29:34,640519
-2,0,-1,1,-1,-1,1,1,2021-08-16 12:29:34,640519
0,1,0,-1,-1,0,-2,-2,2021-08-16 12:29:34,640519
0,-2,-2,-2,-1,-2,-1,-3,2021-08-16 12:29:34,656519
-1,0,-1,-1,-1,-2,-1,-1,2021-08-16 12:29:34,656519
-1,-2,-1,1,-1,-2,-1,-1,2021-08-16 12:29:34,672522
-3,-2,-2,-1,-2,-1,0,0,2021-08-16 12:29:34,672522
0,-1,-1,-1,0,0,-2,-1,2021-08-16 12:29:34,672522
0,0,0,-1,0,-1,-2,-1,2021-08-16 12:29:34,672522
-2,-1,-2,-1,0,-1,-1,-1,2021-08-16 12:29:34,672522
-1,0,0,-1,-2,-2,-1,-1,2021-08-16 12:29:34,672522
-1,-1,0,-1,0,0,0,1,2021-08-16 12:29:34,718519
-1,0,-2,-1,0,-2,0,0,2021-08-16 12:29:34,734519
0,-2,0,0,-1,-1,-1,0,2021-08-16 12:29:34,734519
-1,-1,-2,-1,0,-2,-1,-1,2021-08-16 12:29:34,734519
0,1,-1,-1,-2,-1,0,-1,2021-08-16 12:29:34,734519
0,-2,-1,-2,-1,-1,-1,-1,2021-08-16 12:29:34,734519
-1,-2,-1,-1,-2,-2,-2,-1,2021-08-16 12:29:34,734519
-1,-1,-1,1,0,-1,-1,0,2021-08-16 12:29:34,734519
-1,-1,-2,-1,-2,-1,-1,-2,2021-08-16 12:29:34,735524
-1,-3,-1,-2,-3,0,-1,0,2021-08-16 12:29:34,735524
-1,0,-2,-1,0,0,-1,-1,2021-08-16 12:29:34,735524
-1,-1,0,-2,-1,0,-1,-1,2021-08-16 12:29:34,735524
-1,-1,0,1,-2,-1,-1,0,2021-08-16 12:29:34,766519
-1,-1,-1,0,-2,-1,-2,-2,2021-08-16 12:29:34,782519
-1,0,-2,0,-1,-1,-1,0,2021-08-16 12:29:34,782519
-1,1,0,-1,0,0,-2,-1,2021-08-16 12:29:34,782519
-3,-1,-2,0,-1,0,0,-2,2021-08-16 12:29:34,782519
-1,-2,-2,-1,0,0,-1,-1,2021-08-16 12:29:34,782519
-2,-1,0,-2,-1,-1,-1,-1,2021-08-16 12:29:34,783521
-2,-1,-1,-1,-1,-1,-2,0,2021-08-16 12:29:34,798519
-1,-1,-1,-3,-1,-1,-1,-1,2021-08-16 12:29:34,798519
-1,1,0,-1,0,-1,0,0,2021-08-16 12:29:34,798519
0,-1,-2,-1,1,-2,0,-1,2021-08-16 12:29:34,798519
0,-2,-3,-1,1,-2,-2,-1,2021-08-16 12:29:34,798519
0,-1,0,-2,0,-1,-1,-2,2021-08-16 12:29:34,830520
0,-1,0,0,-1,0,-2,0,2021-08-16 12:29:34,846520
-1,-1,2,-1,0,0,-3,0,2021-08-16 12:29:34,861520
-1,-1,1,0,-1,0,1,1,2021-08-16 12:29:34,861520
0,0,-1,0,0,-2,0,-1,2021-08-16 12:29:34,861520
-1,-1,-1,-1,1,-1,0,0,2021-08-16 12:29:34,877521
0,-1,-2,0,-1,-1,-1,-2,2021-08-16 12:29:34,877521
-1,-2,-2,-1,-1,-1,-1,-1,2021-08-16 12:29:34,877521
-1,0,0,0,-1,-1,0,0,2021-08-16 12:29:34,877521
-1,0,0,-1,-1,-1,-1,-1,2021-08-16 12:29:34,877521
-2,-1,-1,0,-1,1,-1,-1,2021-08-16 12:29:34,877521
-1,-1,-1,0,-2,-1,-1,-2,2021-08-16 12:29:34,877521
-1,-2,0,-1,-1,-1,-1,-1,2021-08-16 12:29:34,878522
-2,-2,0,-1,-2,-2,1,0,2021-08-16 12:29:34,878522
-1,-1,0,0,-2,-3,-1,-1,2021-08-16 12:29:34,878522
0,-1,-1,0,0,-2,0,-1,2021-08-16 12:29:34,878522
0,-1,-1,0,0,0,-2,0,2021-08-16 12:29:34,893521
-1,0,-1,-1,-1,0,-2,-1,2021-08-16 12:29:34,893521
-1,-1,0,-1,-2,1,0,0,2021-08-16 12:29:34,909521
0,-1,-1,0,-2,0,0,-1,2021-08-16 12:29:34,909521
-1,0,-2,-2,-1,-1,0,0,2021-08-16 12:29:34,925522
0,-1,0,0,0,-1,0,-3,2021-08-16 12:29:34,925522
0,-1,-1,0,0,0,-2,0,2021-08-16 12:29:34,925522
0,0,-3,1,-1,-1,0,-1,2021-08-16 12:29:34,925522
-1,-1,0,1,-1,-1,-3,0,2021-08-16 12:29:34,941519
0,0,1,-2,0,0,0,1,2021-08-16 12:29:34,941519
-2,-1,0,0,-1,-1,0,0,2021-08-16 12:29:34,956520
-2,-2,-1,-1,-1,-2,0,-2,2021-08-16 12:29:34,956520
-2,0,-2,0,-1,0,-2,-2,2021-08-16 12:29:34,956520
-1,-1,-1,-1,-1,-1,-2,0,2021-08-16 12:29:34,956520
1,0,-1,0,-1,-2,-2,0,2021-08-16 12:29:34,956520
0,-4,-2,1,0,0,-1,-2,2021-08-16 12:29:34,956520
-1,-2,-2,-2,-1,-1,-2,0,2021-08-16 12:29:34,987544
0,-1,-2,-1,-1,-1,0,-1,2021-08-16 12:29:34,987544
-1,-3,1,-1,-2,-1,0,-1,2021-08-16 12:29:34,987544
-2,-2,-1,-1,0,-1,0,-1,2021-08-16 12:29:34,987544
1,-1,-1,1,-3,-1,-1,0,2021-08-16 12:29:35,003545
-1,0,-2,1,-1,-1,0,-1,2021-08-16 12:29:35,019544
-1,0,-2,-2,-1,-1,0,-1,2021-08-16 12:29:35,019544
-2,0,1,-1,-2,-1,-2,-1,2021-08-16 12:29:35,019544
-1,-2,0,0,0,-2,0,-2,2021-08-16 12:29:35,019544
-1,-2,-3,-1,-1,-1,1,-1,2021-08-16 12:29:35,019544
-1,0,-2,-2,-1,-1,0,-1,2021-08-16 12:29:35,019544
-1,-1,-2,1,1,-1,-1,-1,2021-08-16 12:29:35,019544
-2,0,-1,-1,-1,1,0,1,2021-08-16 12:29:35,035585
0,-1,-1,0,0,-1,-1,0,2021-08-16 12:29:35,035585
0,-1,-2,-1,0,1,0,-2,2021-08-16 12:29:35,035585
-1,1,-1,-3,-1,0,-1,-1,2021-08-16 12:29:35,035585
-2,-1,1,1,-2,0,0,1,2021-08-16 12:29:35,067549
-1,-1,-2,0,-1,-2,0,-2,2021-08-16 12:29:35,067549
-2,-1,-1,-1,0,-1,-3,-2,2021-08-16 12:29:35,067549
0,1,-1,-1,-1,-1,1,0,2021-08-16 12:29:35,083544
0,-1,-2,-1,1,0,-1,-1,2021-08-16 12:29:35,083544
-2,-2,0,-1,-2,0,-2,0,2021-08-16 12:29:35,083544
0,0,-1,-2,-1,-2,-1,-1,2021-08-16 12:29:35,083544
0,-1,-1,-2,-2,0,-1,-2,2021-08-16 12:29:35,083544
-1,-2,-1,-1,-2,-2,-2,-2,2021-08-16 12:29:35,099544
-2,-1,-1,0,-1,1,-1,0,2021-08-16 12:29:35,099544
-1,0,-1,0,-1,-2,-2,0,2021-08-16 12:29:35,099544
-2,-1,1,-2,-1,-1,-1,0,2021-08-16 12:29:35,099544
0,0,0,1,0,-1,0,-3,2021-08-16 12:29:35,113545
-1,-3,-1,-1,-1,-3,-1,-1,2021-08-16 12:29:35,113545
-1,-1,-2,-1,-1,-2,-1,0,2021-08-16 12:29:35,131545
-1,-1,0,-1,-2,-1,0,0,2021-08-16 12:29:35,146546
0,0,1,-3,1,-3,-2,0,2021-08-16 12:29:35,162546
-1,-1,-2,-2,-1,0,-2,0,2021-08-16 12:29:35,178545
-2,-2,-2,-1,-2,-1,1,-1,2021-08-16 12:29:35,178545
-2,-1,0,-2,0,-1,-1,0,2021-08-16 12:29:35,178545
1,-1,-1,-1,-2,1,0,0,2021-08-16 12:29:35,178545
0,-1,0,1,0,-1,-1,-1,2021-08-16 12:29:35,178545
-1,-1,0,0,-1,0,-1,-1,2021-08-16 12:29:35,178545
1,-1,-1,-1,-1,-1,-2,1,2021-08-16 12:29:35,178545
-1,-2,-3,-1,0,-1,-1,0,2021-08-16 12:29:35,179546
-2,-2,1,-1,-1,0,1,-2,2021-08-16 12:29:35,179546
0,-1,0,1,-1,0,0,-2,2021-08-16 12:29:35,179546
-1,0,-1,0,-1,0,0,-1,2021-08-16 12:29:35,179546
-2,-2,-1,-2,-1,-3,1,0,2021-08-16 12:29:35,194546
0,0,-1,-1,-1,0,-1,-1,2021-08-16 12:29:35,194783
0,-1,-2,-2,0,0,0,-1,2021-08-16 12:29:35,210547
-1,-1,-1,0,0,1,-1,0,2021-08-16 12:29:35,210547
0,-1,-1,-1,-1,0,1,0,2021-08-16 12:29:35,210547
-1,1,-2,-1,-1,-1,0,-1,2021-08-16 12:29:35,210547
-1,-1,1,-1,0,-1,-1,-1,2021-08-16 12:29:35,226547
-1,1,-1,1,1,-1,-1,0,2021-08-16 12:29:35,226547
-2,1,-1,-3,-1,0,-1,-1,2021-08-16 12:29:35,242546
0,-1,-2,-1,-3,-1,0,0,2021-08-16 12:29:35,242546
0,-2,0,0,0,0,0,-1,2021-08-16 12:29:35,242546
-1,0,-1,1,-2,-2,-1,-1,2021-08-16 12:29:35,242546
-1,0,-1,-1,0,-1,0,-1,2021-08-16 12:29:35,258547
1,1,-1,-1,-1,0,-3,-1,2021-08-16 12:29:35,258547
-3,-2,-1,0,-1,-1,-1,1,2021-08-16 12:29:35,258547
0,-1,-2,-1,-1,-2,1,-1,2021-08-16 12:29:35,258547
-2,-1,0,-1,-1,-1,-2,-1,2021-08-16 12:29:35,290583
0,-1,-1,-1,0,0,0,-1,2021-08-16 12:29:35,306546
-2,0,-1,-1,-2,-1,-2,0,2021-08-16 12:29:35,306546
-2,-1,-1,-1,-1,-2,-1,-2,2021-08-16 12:29:35,306546
-1,-1,0,0,-1,0,-1,-1,2021-08-16 12:29:35,306546
-1,-1,0,-1,0,-1,0,-1,2021-08-16 12:29:35,306546
1,-2,1,-2,-1,-1,-1,-2,2021-08-16 12:29:35,306546
0,-1,0,-1,-1,0,-1,0,2021-08-16 12:29:35,306546
0,-1,-3,0,-1,-1,1,-2,2021-08-16 12:29:35,322594
-1,0,-1,0,-2,-2,-1,-1,2021-08-16 12:29:35,338573
-1,0,-2,-1,0,0,0,-1,2021-08-16 12:29:35,338573
-1,-2,0,-1,-2,1,-1,-1,2021-08-16 12:29:35,339056
-3,-1,0,-1,-2,-1,-2,-1,2021-08-16 12:29:35,339056
-1,-1,-2,-2,0,0,-1,1,2021-08-16 12:29:35,339056
-2,0,-1,-1,0,-1,0,0,2021-08-16 12:29:35,339056
0,-2,-1,-2,-1,-2,-2,1,2021-08-16 12:29:35,339546
1,0,0,0,0,0,-1,-2,2021-08-16 12:29:35,369960
-1,-3,-1,0,0,-2,-1,1,2021-08-16 12:29:35,384961
-1,0,-2,-3,0,-1,-3,0,2021-08-16 12:29:35,400960
-1,0,-1,-1,0,-1,0,0,2021-08-16 12:29:35,400960
0,-1,0,-1,-2,0,-1,0,2021-08-16 12:29:35,400960
-1,0,0,0,-2,-1,-1,-1,2021-08-16 12:29:35,400960
1,-2,-2,0,-2,-2,1,-1,2021-08-16 12:29:35,401961
-1,-1,0,0,-1,1,-1,0,2021-08-16 12:29:35,401961
0,-1,-2,0,0,-2,1,1,2021-08-16 12:29:35,401961
-1,1,-1,-2,0,-2,-1,-1,2021-08-16 12:29:35,401961
0,-1,0,-2,-1,0,0,0,2021-08-16 12:29:35,401961
-1,-1,0,-1,-2,-1,-1,-1,2021-08-16 12:29:35,401961
-1,0,-2,0,-1,-1,-2,0,2021-08-16 12:29:35,432961
-2,-1,-1,-1,-1,-1,0,-2,2021-08-16 12:29:35,448959
-1,0,-2,1,-2,-1,-2,-1,2021-08-16 12:29:35,448959
1,0,-1,-1,-1,-1,-1,-1,2021-08-16 12:29:35,448959
-1,-2,-2,-1,0,-2,-2,-2,2021-08-16 12:29:35,448959
-1,-1,0,-1,0,1,0,-1,2021-08-16 12:29:35,448959
0,0,-1,-1,-2,-2,-1,-2,2021-08-16 12:29:35,448959
0,0,-3,1,-2,0,1,0,2021-08-16 12:29:35,449962
-3,-1,-1,0,-1,-4,-2,-1,2021-08-16 12:29:35,449962
1,0,-1,0,0,0,-3,0,2021-08-16 12:29:35,449962
-2,-2,0,0,-2,-1,-2,-1,2021-08-16 12:29:35,464960
-1,-3,0,-3,-1,-1,-1,0,2021-08-16 12:29:35,464960
-1,-3,-2,0,1,1,0,-1,2021-08-16 12:29:35,480961
-1,-3,0,0,-1,-1,-3,0,2021-08-16 12:29:35,480961
0,0,-1,0,1,0,0,0,2021-08-16 12:29:35,480961
-2,-1,-1,0,-1,-1,-1,0,2021-08-16 12:29:35,480961
-2,-1,0,-1,-2,0,-1,0,2021-08-16 12:29:35,512962
-1,1,-2,-1,-1,-2,0,-1,2021-08-16 12:29:35,512962
-1,0,0,-1,0,0,0,-1,2021-08-16 12:29:35,512962
-1,-1,-1,-1,-1,-2,-3,-1,2021-08-16 12:29:35,528961
1,0,-2,-3,-2,-1,-3,1,2021-08-16 12:29:35,528961
0,-2,-1,-1,-1,1,-1,1,2021-08-16 12:29:35,528961
0,-2,-3,-1,0,0,-1,0,2021-08-16 12:29:35,528961
0,1,0,-1,1,-1,0,-2,2021-08-16 12:29:35,528961
0,-1,1,0,-1,-1,1,0,2021-08-16 12:29:35,544961
-1,0,1,-2,-1,-3,-1,-2,2021-08-16 12:29:35,561008
-1,0,-1,-1,0,0,0,-1,2021-08-16 12:29:35,561252
-2,-2,-1,-1,-1,-2,0,0,2021-08-16 12:29:35,561252
-1,0,0,-3,-1,-2,0,-2,2021-08-16 12:29:35,561252
-1,-3,0,-1,-1,-2,-2,0,2021-08-16 12:29:35,561993
0,-1,-1,-1,1,-3,-1,-1,2021-08-16 12:29:35,561993
-1,-1,-1,0,0,-1,-1,-1,2021-08-16 12:29:35,561993
0,-1,0,-1,-1,0,-1,-1,2021-08-16 12:29:35,576962
-1,-1,-1,-1,1,1,-2,-1,2021-08-16 12:29:35,576962
0,0,-1,-1,-2,-1,-1,0,2021-08-16 12:29:35,576962
-1,-1,-1,-1,-1,-1,0,-1,2021-08-16 12:29:35,576962
-2,1,-1,0,-1,1,-1,1,2021-08-16 12:29:35,608962
1,-2,-1,-2,-1,-1,-1,-1,2021-08-16 12:29:35,624965
-2,-1,-1,-1,-1,-1,0,-1,2021-08-16 12:29:35,641001
-2,-1,-1,-1,1,0,0,-2,2021-08-16 12:29:35,641001
0,-1,0,-1,-2,0,0,0,2021-08-16 12:29:35,641001
-1,-1,0,0,-3,0,1,-1,2021-08-16 12:29:35,641001
-1,-1,-2,-1,0,-1,0,0,2021-08-16 12:29:35,641001
-1,-1,-1,-1,0,-2,0,0,2021-08-16 12:29:35,641001
-1,-2,-1,-2,0,-1,1,-2,2021-08-16 12:29:35,641963
0,1,-2,1,-1,0,0,0,2021-08-16 12:29:35,641963
-1,0,-2,-1,-1,1,-2,-2,2021-08-16 12:29:35,641963
0,-2,0,0,-3,0,1,-2,2021-08-16 12:29:35,641963
-1,-1,-2,-2,-1,-1,-2,0,2021-08-16 12:29:35,673012
0,0,-2,-2,-1,-1,1,0,2021-08-16 12:29:35,687962
-1,-3,0,0,-3,-2,-1,0,2021-08-16 12:29:35,687962
-1,-1,-2,0,0,-1,-2,-1,2021-08-16 12:29:35,687962
-1,-1,-1,0,1,-1,0,-2,2021-08-16 12:29:35,687962
-1,0,-1,0,0,0,0,-1,2021-08-16 12:29:35,687962
1,0,-1,1,0,1,-3,-1,2021-08-16 12:29:35,687962
-1,-1,-1,-1,-1,-1,-1,-1,2021-08-16 12:29:35,687962
-2,-2,-2,0,-2,-1,-1,-3,2021-08-16 12:29:35,703989
-1,-1,-1,-1,0,-1,-1,-2,2021-08-16 12:29:35,703989
1,0,1,-2,-1,0,0,-1,2021-08-16 12:29:35,703989
0,0,1,-1,1,-2,-1,-2,2021-08-16 12:29:35,719960
-2,-1,0,0,-1,-1,0,-2,2021-08-16 12:29:35,735964
-2,-1,-1,-1,0,-1,-1,-3,2021-08-16 12:29:35,735964
0,-1,-1,-1,-1,-1,0,-2,2021-08-16 12:29:35,735964
-1,-1,-1,-1,-2,0,0,1,2021-08-16 12:29:35,735964
1,0,1,0,-1,-1,-1,0,2021-08-16 12:29:35,735964
-2,-1,-1,-1,-1,-2,0,-1,2021-08-16 12:29:35,735964
-2,-2,-2,-1,-1,-1,0,0,2021-08-16 12:29:35,751999
0,-1,-1,-1,-2,-1,0,-2,2021-08-16 12:29:35,751999
0,-2,-2,-1,-2,0,0,0,2021-08-16 12:29:35,751999
-3,-1,-1,-1,-1,-1,-2,0,2021-08-16 12:29:35,751999
0,0,0,-1,-1,1,-1,-1,2021-08-16 12:29:35,767962
0,-1,-2,-2,0,-1,0,0,2021-08-16 12:29:35,767962
-1,-1,-2,-1,-1,-1,0,-1,2021-08-16 12:29:35,783963
0,-1,-1,-1,-1,-1,1,-1,2021-08-16 12:29:35,783963
0,0,0,-1,-1,-1,-1,-1,2021-08-16 12:29:35,783963
-1,0,-1,1,-1,-1,-3,-1,2021-08-16 12:29:35,783963
1,0,-1,0,0,-1,-2,1,2021-08-16 12:29:35,814960
0,-2,0,-1,-1,-1,-1,0,2021-08-16 12:29:35,814960
-1,-2,-1,-2,0,-2,-2,-2,2021-08-16 12:29:35,814960
0,-2,-1,-2,-1,0,-1,-1,2021-08-16 12:29:35,814960
-1,-1,-1,-1,0,-2,-1,-2,2021-08-16 12:29:35,814960
-1,-1,-2,-1,-1,0,-1,-1,2021-08-16 12:29:35,815962
-1,-2,-1,0,0,0,-1,0,2021-08-16 12:29:35,830991
1,-1,-1,-2,0,-1,0,-1,2021-08-16 12:29:35,830991
0,-1,-2,-2,-1,-2,-2,-1,2021-08-16 12:29:35,846997
-1,-1,-2,0,-1,0,-3,-2,2021-08-16 12:29:35,846997
0,-1,-1,1,-1,-1,-1,0,2021-08-16 12:29:35,846997
-1,-2,-2,0,0,-1,0,-2,2021-08-16 12:29:35,846997
0,-1,0,0,-1,1,-1,0,2021-08-16 12:29:35,862962
-1,-1,0,0,-1,0,1,-2,2021-08-16 12:29:35,862962
-2,-1,-2,0,-2,-1,-1,-1,2021-08-16 12:29:35,862962
-2,0,1,-1,-2,-2,-1,0,2021-08-16 12:29:35,862962
-1,0,0,0,2,-2,-1,0,2021-08-16 12:29:35,879002
-1,1,-1,1,0,1,0,0,2021-08-16 12:29:35,879002
-2,0,-1,-1,0,0,-1,0,2021-08-16 12:29:35,895001
-1,0,0,0,-1,0,-1,-1,2021-08-16 12:29:35,895001
-1,-2,0,-1,-2,-1,-2,0,2021-08-16 12:29:35,895001
-1,-1,2,0,-1,-3,0,0,2021-08-16 12:29:35,895001
0,-1,-1,-3,-1,-3,0,-1,2021-08-16 12:29:35,895001
-1,-1,0,-2,0,-1,-1,-1,2021-08-16 12:29:35,895001
-1,-2,-1,0,-1,0,1,-1,2021-08-16 12:29:35,925997
-1,-2,-2,-2,-2,-2,-2,-2,2021-08-16 12:29:35,925997
0,0,-2,-1,-1,0,0,1,2021-08-16 12:29:35,925997
0,-1,-1,0,-2,-1,-2,1,2021-08-16 12:29:35,925997
0,-2,-1,-1,-1,-1,0,-3,2021-08-16 12:29:35,957960
0,-2,-2,-1,-1,0,-1,-2,2021-08-16 12:29:35,972959
-1,0,-1,-1,-1,-2,0,-1,2021-08-16 12:29:35,972959
-2,0,-1,0,1,-1,-1,-1,2021-08-16 12:29:35,972959
-1,-1,-2,-1,-1,-1,-1,0,2021-08-16 12:29:35,972959
0,-3,-1,-1,-1,0,-1,-1,2021-08-16 12:29:35,972959
0,-2,-2,-2,-2,0,1,-3,2021-08-16 12:29:35,972959
0,-1,0,0,0,-1,0,-1,2021-08-16 12:29:35,972959
-1,0,-1,-1,-1,-1,1,-1,2021-08-16 12:29:35,988962
-1,-1,0,-3,0,-1,-1,-3,2021-08-16 12:29:35,988962
0,-1,0,-1,1,1,-2,0,2021-08-16 12:29:35,988962
1,-1,0,0,-1,0,0,-1,2021-08-16 12:29:35,988962
0,-1,-1,-1,-2,0,0,-1,2021-08-16 12:29:36,004963
-1,0,-1,-1,-1,-1,-1,1,2021-08-16 12:29:36,004963
0,-3,-1,1,0,-1,-1,-1,2021-08-16 12:29:36,004963
-1,-2,-2,-1,-1,-1,-1,-1,2021-08-16 12:29:36,004963
-2,0,-1,-2,0,-3,0,-1,2021-08-16 12:29:36,020962
1,-1,-2,0,-1,-2,0,-1,2021-08-16 12:29:36,020962
0,0,0,-1,-2,0,-2,-1,2021-08-16 12:29:36,020962
-1,0,-1,-2,-1,1,-1,-1,2021-08-16 12:29:36,020962
-1,-1,-1,-1,-1,1,-2,1,2021-08-16 12:29:36,052960
-1,-2,-1,-1,0,1,-2,1,2021-08-16 12:29:36,052960
0,0,0,-2,-1,0,-1,0,2021-08-16 12:29:36,052960
-1,-2,0,-1,-1,-2,-1,-1,2021-08-16 12:29:36,052960
0,0,0,-2,-2,-1,-1,-2,2021-08-16 12:29:36,052960
-2,-1,-2,-1,-1,-2,-1,-1,2021-08-16 12:29:36,052960
-1,-3,-1,0,-2,-1,-1,0,2021-08-16 12:29:36,068961
0,-2,-1,0,0,-1,0,-2,2021-08-16 12:29:36,084962
-1,-2,-3,-1,0,-1,-2,-2,2021-08-16 12:29:36,084962
-1,-2,-1,-2,-1,-1,1,0,2021-08-16 12:29:36,084962
-2,0,-1,-1,-2,-2,0,-1,2021-08-16 12:29:36,084962
0,0,-2,0,-2,-1,-1,-2,2021-08-16 12:29:36,084962
-2,-1,0,0,-1,-2,0,-1,2021-08-16 12:29:36,100962
-2,-1,2,-1,-2,-1,-1,1,2021-08-16 12:29:36,100962
-3,0,-1,-1,0,-1,0,-2,2021-08-16 12:29:36,100962
-2,0,0,1,-1,0,0,-1,2021-08-16 12:29:36,100962
1,-1,-2,-2,0,-1,0,1,2021-08-16 12:29:36,116962
-2,-1,0,-1,0,-1,0,0,2021-08-16 12:29:36,116962
-1,-1,0,0,-1,-1,-1,-1,2021-08-16 12:29:36,132961
-1,-3,-1,-2,-1,-1,0,-1,2021-08-16 12:29:36,132961
-3,-2,1,1,1,2,0,0,2021-08-16 12:29:36,132961
-1,0,0,0,-2,-1,0,0,2021-08-16 12:29:36,132961
-1,0,0,-1,0,-1,-1,0,2021-08-16 12:29:36,148960
0,-1,-1,-2,-1,-1,-1,0,2021-08-16 12:29:36,148960
1,-1,-1,-3,-2,-1,-1,-1,2021-08-16 12:29:36,164987
1,-1,-4,-1,-1,0,-1,-1,2021-08-16 12:29:36,164987
-1,-1,-1,0,-2,0,-1,-1,2021-08-16 12:29:36,164987
-1,1,-1,0,-1,-2,-1,1,2021-08-16 12:29:36,164987
-1,1,-1,1,0,0,-1,-1,2021-08-16 12:29:36,196961
-1,0,-2,1,0,-1,0,-1,2021-08-16 12:29:36,228999
-1,-1,0,-1,-1,-1,-2,0,2021-08-16 12:29:36,244963
-1,-1,-2,0,0,-1,2,1,2021-08-16 12:29:36,244963
-1,-1,-1,-2,0,-1,-2,-2,2021-08-16 12:29:36,244963
-2,-1,0,0,0,-2,-1,0,2021-08-16 12:29:36,244963
-1,-2,-2,-1,-1,0,0,0,2021-08-16 12:29:36,244963
-1,0,-1,-1,-1,-1,-2,-3,2021-08-16 12:29:36,244963
-2,-1,1,-1,-1,-2,-1,-1,2021-08-16 12:29:36,244963
0,-1,0,-2,0,-1,0,0,2021-08-16 12:29:36,244963
-1,-2,1,-1,-1,1,0,-1,2021-08-16 12:29:36,245963
-1,-1,-1,0,-2,0,-2,1,2021-08-16 12:29:36,245963
0,0,-1,0,-1,0,-1,-1,2021-08-16 12:29:36,245963
-1,0,-2,-1,-1,-1,-2,-3,2021-08-16 12:29:36,245963
-2,-1,-2,0,0,-2,0,0,2021-08-16 12:29:36,245963
-1,-2,0,-2,-1,-1,-2,-2,2021-08-16 12:29:36,245963
-1,-2,-1,0,-1,-1,-1,-1,2021-08-16 12:29:36,261011
-1,-1,0,-1,-3,-1,0,-1,2021-08-16 12:29:36,261011
-2,-1,-2,-1,0,-1,0,-1,2021-08-16 12:29:36,275962
-3,-2,0,-2,0,-1,-2,0,2021-08-16 12:29:36,275962
1,-1,-1,0,0,-1,-1,0,2021-08-16 12:29:36,275962
-2,0,0,0,0,-1,-1,-1,2021-08-16 12:29:36,275962
0,0,0,0,0,-1,0,-3,2021-08-16 12:29:36,291961
0,0,-1,-1,0,0,0,1,2021-08-16 12:29:36,291961
-1,-2,-2,-1,0,-2,-2,0,2021-08-16 12:29:36,307962
0,0,0,0,0,-1,-1,-2,2021-08-16 12:29:36,307962
0,-1,-1,-1,-1,-1,-2,-1,2021-08-16 12:29:36,307962
0,-1,-2,0,-2,-1,-1,-1,2021-08-16 12:29:36,307962
-1,0,-1,-1,-1,1,0,-1,2021-08-16 12:29:36,322960
-3,-2,-1,0,1,0,1,0,2021-08-16 12:29:36,322960
0,-1,0,0,-1,0,-1,-2,2021-08-16 12:29:36,337962
-2,0,-1,-1,0,1,-3,-1,2021-08-16 12:29:36,337962
-1,-1,-3,0,-3,-3,0,0,2021-08-16 12:29:36,337962
-3,-2,-2,-1,-2,-1,-3,-1,2021-08-16 12:29:36,337962
-1,-2,0,-2,-1,-2,0,0,2021-08-16 12:29:36,337962
0,0,-1,-2,0,-1,0,0,2021-08-16 12:29:36,337962
0,-2,-2,-2,-2,-1,-1,-2,2021-08-16 12:29:36,368961
1,-1,-2,-1,-2,-1,1,0,2021-08-16 12:29:36,368961
0,-1,-2,-3,-1,-1,-2,0,2021-08-16 12:29:36,368961
0,-2,0,0,-1,-2,-1,-2,2021-08-16 12:29:36,368961
-2,-1,0,-1,-1,-1,0,-1,2021-08-16 12:29:36,383961
0,-1,-1,-1,-1,-1,0,-2,2021-08-16 12:29:36,383961
-2,0,-2,0,-1,0,-1,0,2021-08-16 12:29:36,383961
-2,-1,-2,1,-1,-1,0,0,2021-08-16 12:29:36,383961
-1,-1,-1,0,0,-1,0,0,2021-08-16 12:29:36,414999
-1,-2,-1,-2,0,0,-1,-3,2021-08-16 12:29:36,444010
-1,-1,0,-2,-2,-2,-1,-1,2021-08-16 12:29:36,444010
0,0,0,-1,-1,0,-1,0,2021-08-16 12:29:36,445010
0,-2,1,-1,0,0,0,-2,2021-08-16 12:29:36,445010
-1,-1,0,-1,-1,1,-1,1,2021-08-16 12:29:36,445010
0,-1,-2,1,0,-2,-1,0,2021-08-16 12:29:36,445010
0,-1,-1,0,-1,-1,0,-1,2021-08-16 12:29:36,445010
0,0,-1,0,0,-2,-3,-1,2021-08-16 12:29:36,446005
-1,0,-1,-1,-1,-1,0,-2,2021-08-16 12:29:36,446005
-1,-1,-2,-1,0,0,-2,-1,2021-08-16 12:29:36,462962
-1,0,-1,0,0,-1,0,-1,2021-08-16 12:29:36,462962
0,1,-1,-2,-1,0,-2,-1,2021-08-16 12:29:36,478961
0,-2,-2,1,-1,-1,-2,1,2021-08-16 12:29:36,494960
-1,-1,-2,-1,-1,-1,-2,1,2021-08-16 12:29:36,494960
1,0,-2,-1,0,-1,-2,-1,2021-08-16 12:29:36,494960
-1,-1,-1,-2,-1,-1,-1,1,2021-08-16 12:29:36,494960
1,-2,-3,0,-1,-1,1,-2,2021-08-16 12:29:36,494960
-1,-1,1,0,-1,0,1,-2,2021-08-16 12:29:36,494960
0,-2,0,0,0,1,0,-2,2021-08-16 12:29:36,495963
-1,-1,-2,0,-2,-1,-1,-1,2021-08-16 12:29:36,495963
-1,0,0,-1,1,0,-1,0,2021-08-16 12:29:36,495963
0,-1,-1,0,-1,-1,-1,0,2021-08-16 12:29:36,511015
-1,0,0,-2,-1,0,-1,-1,2021-08-16 12:29:36,527010
0,-1,1,0,-1,1,0,-1,2021-08-16 12:29:36,543015
-1,-2,-2,-1,-1,0,0,0,2021-08-16 12:29:36,558961
-2,0,-2,0,0,-1,-1,-1,2021-08-16 12:29:36,558961
-4,-1,-1,-2,-2,-1,-2,0,2021-08-16 12:29:36,558961
0,-2,-2,-1,-2,-2,-1,-2,2021-08-16 12:29:36,558961
0,-1,0,-1,-1,-2,-1,-1,2021-08-16 12:29:36,558961
0,-1,0,0,-1,-1,-1,-1,2021-08-16 12:29:36,558961
-2,0,-1,0,-2,-2,0,0,2021-08-16 12:29:36,559964
-1,0,0,-1,1,-2,-1,0,2021-08-16 12:29:36,559964
-2,0,0,0,-1,-1,-2,-1,2021-08-16 12:29:36,559964
0,-1,0,0,0,0,-1,-1,2021-08-16 12:29:36,559964
0,-2,-1,-1,0,0,-1,0,2021-08-16 12:29:36,559964
-1,-1,-1,-1,-2,1,0,0,2021-08-16 12:29:36,590961
-2,1,1,-2,-1,-2,0,-1,2021-08-16 12:29:36,590961
-1,-1,-1,-1,-1,-1,-1,-1,2021-08-16 12:29:36,590961
1,-1,1,-1,0,-3,-1,0,2021-08-16 12:29:36,590961
0,-1,-2,0,-1,-2,-1,-1,2021-08-16 12:29:36,606961
0,0,-2,-2,0,-1,-1,-1,2021-08-16 12:29:36,606961
-1,-1,-1,0,-1,-2,1,-2,2021-08-16 12:29:36,606961
1,-1,-1,0,-1,0,0,-1,2021-08-16 12:29:36,606961
-1,-1,0,0,0,-2,-2,-1,2021-08-16 12:29:36,623010
0,-2,1,-1,-1,-1,-1,-1,2021-08-16 12:29:36,638999
-2,-1,-2,0,-2,0,0,-3,2021-08-16 12:29:36,654962
-1,-3,0,-1,-2,0,0,-1,2021-08-16 12:29:36,654962
-3,-2,-1,0,-1,0,-1,0,2021-08-16 12:29:36,654962
0,-1,-3,-2,-2,0,0,0,2021-08-16 12:29:36,654962
1,-1,0,-2,-2,-2,-1,-1,2021-08-16 12:29:36,654962
1,1,-1,0,0,0,1,-3,2021-08-16 12:29:36,655962
-2,-1,0,-1,1,-1,2,0,2021-08-16 12:29:36,669960
-3,-1,-2,-1,-1,-2,-1,0,2021-08-16 12:29:36,669960
-1,-1,-2,-3,-1,-1,1,1,2021-08-16 12:29:36,669960
-1,-1,0,-1,-2,-1,-2,-1,2021-08-16 12:29:36,669960
0,-1,0,-2,-1,-2,-2,-1,2021-08-16 12:29:36,686010
0,0,-1,0,-1,0,-1,0,2021-08-16 12:29:36,702000
-1,-1,-2,0,-2,-1,-2,3,2021-08-16 12:29:36,702000
-1,0,-2,0,0,-1,-2,1,2021-08-16 12:29:36,702000
-1,-2,-2,-1,-2,-2,0,0,2021-08-16 12:29:36,702000
1,-1,1,0,0,-1,-1,0,2021-08-16 12:29:36,702000
0,-1,0,-2,-1,-1,-1,-1,2021-08-16 12:29:36,703000
-2,0,-1,-2,1,0,0,-1,2021-08-16 12:29:36,703000
-2,-1,0,-1,1,-1,0,-1,2021-08-16 12:29:36,734008
-1,0,0,-1,-1,-2,-1,-2,2021-08-16 12:29:36,734008
-1,-1,0,1,-2,0,-1,0,2021-08-16 12:29:36,734008
0,-1,-1,0,-1,-2,-1,0,2021-08-16 12:29:36,734008
1,-1,-1,-1,-2,-1,-2,0,2021-08-16 12:29:36,734008
-2,-1,-2,-1,-2,0,0,0,2021-08-16 12:29:36,734008
-1,-2,-2,0,-2,-1,0,-2,2021-08-16 12:29:36,749961
-3,-2,0,0,0,-1,-1,-1,2021-08-16 12:29:36,749961
-1,-1,-1,1,-1,0,0,1,2021-08-16 12:29:36,765962
-1,-2,0,0,0,-1,-2,-2,2021-08-16 12:29:36,765962
0,0,0,-2,0,0,-1,-2,2021-08-16 12:29:36,765962
0,0,-2,-1,-1,0,-1,0,2021-08-16 12:29:36,765962
-1,0,1,-1,-1,-1,1,-1,2021-08-16 12:29:36,798010
-1,0,-2,-2,-1,0,-1,-2,2021-08-16 12:29:36,813999
-1,-2,0,-3,0,-2,0,-1,2021-08-16 12:29:36,813999
-1,0,-1,-1,-1,0,-2,-1,2021-08-16 12:29:36,829962
0,-1,-3,-1,-1,0,-2,-1,2021-08-16 12:29:36,845998
-1,0,0,0,-2,-1,-1,1,2021-08-16 12:29:36,845998
-2,-1,-1,-2,-1,0,-2,0,2021-08-16 12:29:36,845998
-1,-1,0,-2,-2,-2,0,-1,2021-08-16 12:29:36,845998
-1,-1,-2,-2,-1,-1,-1,-1,2021-08-16 12:29:36,845998
0,-2,1,-1,-1,-2,0,-3,2021-08-16 12:29:36,845998
-1,-2,-1,-1,0,-1,-1,-1,2021-08-16 12:29:36,845998
-1,-2,0,-1,0,0,-1,0,2021-08-16 12:29:36,845998
-1,0,0,0,-1,2,-1,-1,2021-08-16 12:29:36,846963
-1,0,-2,0,0,-1,-1,-1,2021-08-16 12:29:36,846963
-1,-1,0,1,0,-2,0,0,2021-08-16 12:29:36,846963
0,0,-1,0,0,0,-1,-1,2021-08-16 12:29:36,846963
-1,-1,-1,-2,-1,-1,-1,-1,2021-08-16 12:29:36,877963
0,-1,-2,-1,0,-1,-1,-1,2021-08-16 12:29:36,881009
1,1,-2,-1,-2,0,-2,0,2021-08-16 12:29:36,881009
0,-1,-2,-2,-1,-1,0,0,2021-08-16 12:29:36,881009
-1,-2,-2,0,0,0,-1,-1,2021-08-16 12:29:36,881009
-1,0,0,-2,-1,-1,0,0,2021-08-16 12:29:36,882001
0,-1,-1,0,-3,0,-1,0,2021-08-16 12:29:36,882001
0,0,-2,0,1,0,-2,-2,2021-08-16 12:29:36,882001
-2,0,-1,-3,0,-1,-1,0,2021-08-16 12:29:36,908963
0,-1,-3,-1,0,-1,-1,0,2021-08-16 12:29:36,908963
0,-1,-1,0,-1,1,0,0,2021-08-16 12:29:36,908963
-2,-1,0,0,-1,-1,-1,-1,2021-08-16 12:29:36,908963
0,-2,1,-1,0,-1,-1,-3,2021-08-16 12:29:36,924960
0,1,0,-1,0,1,-1,0,2021-08-16 12:29:36,924960
1,0,-1,-2,0,-1,-2,-2,2021-08-16 12:29:36,924960
-1,-1,-2,-2,-1,-2,-1,-3,2021-08-16 12:29:36,924960
-1,-1,-3,1,-1,0,-1,0,2021-08-16 12:29:36,940961
-2,-3,0,1,-2,-2,-1,0,2021-08-16 12:29:36,940961
0,0,-2,0,-1,-1,0,-1,2021-08-16 12:29:36,940961
-1,-1,-1,-1,-3,-1,-1,-2,2021-08-16 12:29:36,940961
-2,-1,0,-1,0,-1,0,-1,2021-08-16 12:29:36,972959
0,-1,-2,-1,0,0,-2,-2,2021-08-16 12:29:36,972959
-1,0,-3,-2,1,0,0,0,2021-08-16 12:29:36,972959
0,-1,-2,-1,-2,-1,-1,0,2021-08-16 12:29:36,972959
1,0,-2,-2,0,-1,-2,-1,2021-08-16 12:29:36,972959
-3,0,-2,-1,-2,-2,0,0,2021-08-16 12:29:36,972959
-1,-1,-2,-1,0,-1,-1,0,2021-08-16 12:29:36,988997
0,0,-1,-2,0,0,0,-1,2021-08-16 12:29:36,988997
-3,-1,-2,0,0,-1,-2,0,2021-08-16 12:29:37,004961
0,-1,-2,-2,0,0,-1,-2,2021-08-16 12:29:37,004961
-2,-2,-1,-1,-1,-2,-1,-1,2021-08-16 12:29:37,004961
-1,-2,-1,0,-1,-1,0,-1,2021-08-16 12:29:37,004961
0,-2,-1,-1,0,-1,0,1,2021-08-16 12:29:37,036011
-1,0,0,1,-1,1,-2,0,2021-08-16 12:29:37,036011
-1,-1,1,-1,-1,0,-1,-1,2021-08-16 12:29:37,052000
1,-2,-1,2,0,-1,-1,0,2021-08-16 12:29:37,052000
0,0,0,-1,-3,-1,1,-3,2021-08-16 12:29:37,052000
-2,-2,1,-1,-2,-2,-2,0,2021-08-16 12:29:37,052000
0,0,-1,-4,-1,-1,0,0,2021-08-16 12:29:37,067961
-2,0,0,-1,0,0,1,-1,2021-08-16 12:29:37,083962
-1,-3,-1,-1,0,0,0,-1,2021-08-16 12:29:37,099962
0,0,0,-2,-2,-2,1,1,2021-08-16 12:29:37,099962
-2,-1,-2,1,-1,1,-1,-1,2021-08-16 12:29:37,099962
-2,-1,0,-2,-1,-2,0,-2,2021-08-16 12:29:37,099962
-1,0,-1,0,0,0,0,-1,2021-08-16 12:29:37,099962
-1,0,1,-1,0,0,-1,-2,2021-08-16 12:29:37,099962
-1,0,0,0,-3,-2,-1,0,2021-08-16 12:29:37,100962
0,-3,0,0,0,-1,0,0,2021-08-16 12:29:37,100962
-2,0,0,-1,-2,0,-1,-2,2021-08-16 12:29:37,100962
0,0,-2,-1,-2,1,0,-1,2021-08-16 12:29:37,100962
-1,-1,-2,1,1,-3,-2,-1,2021-08-16 12:29:37,100962
-1,-1,0,-1,0,-1,-2,-1,2021-08-16 12:29:37,100962
-1,1,-3,1,-1,0,-2,0,2021-08-16 12:29:37,131999
-1,-1,0,-1,0,0,-1,-1,2021-08-16 12:29:37,131999
0,0,0,-2,-1,-1,-1,-1,2021-08-16 12:29:37,131999
-1,0,-1,1,-2,-1,-3,-1,2021-08-16 12:29:37,131999
-1,-1,0,-2,0,0,-2,1,2021-08-16 12:29:37,147999
-1,-3,-4,0,0,-2,-1,-2,2021-08-16 12:29:37,163962
0,-3,-2,0,-1,1,1,-1,2021-08-16 12:29:37,163962
-2,-1,-1,-1,-1,0,-1,1,2021-08-16 12:29:37,163962
-1,-1,-1,-1,-2,0,1,0,2021-08-16 12:29:37,163962
-1,-1,-1,-3,0,-2,-1,-2,2021-08-16 12:29:37,163962
0,-2,1,-3,-2,-1,0,0,2021-08-16 12:29:37,179962
0,-2,-3,-2,-1,-2,1,-1,2021-08-16 12:29:37,179962
-1,0,-1,1,0,-1,-2,-2,2021-08-16 12:29:37,179962
0,0,-1,0,1,1,1,0,2021-08-16 12:29:37,179962
-1,-1,0,-1,-1,0,-1,-1,2021-08-16 12:29:37,179962
-2,1,-1,0,-2,-1,-3,-2,2021-08-16 12:29:37,179962
0,-1,-1,-2,-1,0,0,-1,2021-08-16 12:29:37,211959
-2,0,-2,0,-1,0,-2,0,2021-08-16 12:29:37,227962
-1,-1,-2,0,-1,0,-1,0,2021-08-16 12:29:37,227962
0,-2,0,0,-1,2,1,0,2021-08-16 12:29:37,227962
-2,0,-1,-1,-2,-1,-1,-1,2021-08-16 12:29:37,227962
-1,0,1,-3,-1,-1,-1,0,2021-08-16 12:29:37,227962
-1,-2,0,-2,0,-2,-1,-2,2021-08-16 12:29:37,227962
-1,1,-1,-1,-2,-2,1,-2,2021-08-16 12:29:37,228997
0,-1,-2,0,1,0,0,1,2021-08-16 12:29:37,243997
-1,-1,0,-2,-1,-1,-1,0,2021-08-16 12:29:37,259963
0,0,-2,0,1,0,-2,0,2021-08-16 12:29:37,259963
-1,-2,-1,-1,-1,0,0,-1,2021-08-16 12:29:37,259963
0,-2,-1,0,-1,-2,-2,-1,2021-08-16 12:29:37,259963
-1,-1,-1,1,0,-3,0,-1,2021-08-16 12:29:37,259963
-1,-1,-1,0,-2,0,0,0,2021-08-16 12:29:37,260962
-1,-1,0,1,0,0,-1,-3,2021-08-16 12:29:37,260962
-1,0,-4,-1,-1,0,0,-1,2021-08-16 12:29:37,290961
1,-1,-2,0,0,0,0,0,2021-08-16 12:29:37,307002
-1,-1,0,-1,-2,-2,-1,-1,2021-08-16 12:29:37,307002
0,0,-1,-1,-1,-2,1,0,2021-08-16 12:29:37,307002
-1,-2,-1,-2,-1,-2,-2,0,2021-08-16 12:29:37,307002
-2,-2,0,-1,-2,-1,-3,1,2021-08-16 12:29:37,307002
0,-1,-1,0,0,0,-1,0,2021-08-16 12:29:37,307002
0,-1,-1,0,0,0,-2,-1,2021-08-16 12:29:37,307962
0,0,0,-1,1,-2,1,0,2021-08-16 12:29:37,323010
0,0,-1,0,-1,1,0,-2,2021-08-16 12:29:37,323010
0,-2,0,-1,-2,-1,1,1,2021-08-16 12:29:37,323010
1,0,-1,-2,-1,-1,0,-1,2021-08-16 12:29:37,323010
-1,-1,-1,-1,-2,-1,0,0,2021-08-16 12:29:37,353960
-1,-2,-3,1,-2,-1,0,-1,2021-08-16 12:29:37,353960
-2,1,1,0,-2,-1,-2,-1,2021-08-16 12:29:37,353960
0,0,-2,-1,0,0,-3,-1,2021-08-16 12:29:37,353960
0,-1,1,0,-1,-1,-1,-1,2021-08-16 12:29:37,369961
0,1,0,-1,-1,2,-1,-2,2021-08-16 12:29:37,369961
-2,-1,-1,-1,-1,0,-1,-1,2021-08-16 12:29:37,369961
-1,-1,-1,-1,-2,-2,-1,1,2021-08-16 12:29:37,369961
0,0,-2,0,0,0,0,-1,2021-08-16 12:29:37,386007
-1,-2,-1,0,0,0,0,-1,2021-08-16 12:29:37,386007
0,0,0,1,-1,-1,0,-2,2021-08-16 12:29:37,386007
-1,-1,-1,1,0,-1,-1,0,2021-08-16 12:29:37,386007
-1,0,0,-1,0,0,-1,0,2021-08-16 12:29:37,416961
-2,-1,0,0,-2,-2,-2,-1,2021-08-16 12:29:37,416961
-1,-1,-2,-2,-2,0,-1,0,2021-08-16 12:29:37,416961
-2,0,-1,1,-2,-1,-1,-1,2021-08-16 12:29:37,416961
-1,0,-1,-1,-2,-1,-1,-1,2021-08-16 12:29:37,416961
0,0,0,-1,-1,-1,-1,0,2021-08-16 12:29:37,416961
-2,-2,-1,0,0,-1,-1,-1,2021-08-16 12:29:37,464961
0,-2,0,-5,0,0,-1,-1,2021-08-16 12:29:37,479963
0,0,-2,-1,-1,-1,-1,-1,2021-08-16 12:29:37,495960
-1,-1,-1,-1,-1,-2,-1,1,2021-08-16 12:29:37,495960
-1,-2,-1,-1,0,0,-1,-1,2021-08-16 12:29:37,495960
-1,0,-2,-1,0,0,-1,-1,2021-08-16 12:29:37,495960
-2,-1,-1,0,0,-1,0,-2,2021-08-16 12:29:37,495960
0,0,-2,0,-2,-1,-1,-1,2021-08-16 12:29:37,495960
-1,-1,0,5,0,-2,-2,-2,2021-08-16 12:29:37,495960
0,0,-1,11,-1,-2,-2,0,2021-08-16 12:29:37,495960
0,-2,-2,7,-1,-1,0,1,2021-08-16 12:29:37,496997
0,-1,-1,3,-1,0,-2,-3,2021-08-16 12:29:37,496997
-1,-1,-5,-4,-1,0,2,-2,2021-08-16 12:29:37,496997
-1,-1,-2,-8,-3,1,1,-1,2021-08-16 12:29:37,496997
-1,0,0,-7,-2,0,-2,0,2021-08-16 12:29:37,512007
-1,-2,-2,-6,0,-1,1,0,2021-08-16 12:29:37,527962
0,0,-2,-4,0,-1,-2,-2,2021-08-16 12:29:37,527962
-3,0,-2,-3,-2,-2,-1,1,2021-08-16 12:29:37,527962
0,0,0,-3,-2,-1,-1,-1,2021-08-16 12:29:37,527962
-1,-1,0,-3,-1,-1,0,-1,2021-08-16 12:29:37,527962
-1,0,-1,-1,-1,-1,-1,0,2021-08-16 12:29:37,527962
0,-1,-1,-1,-2,-1,0,-1,2021-08-16 12:29:37,529002
-2,0,2,-1,-1,1,-1,-1,2021-08-16 12:29:37,543961
0,-3,0,-2,-2,-2,-1,-1,2021-08-16 12:29:37,543961
1,-1,0,-2,0,1,-1,-1,2021-08-16 12:29:37,543961
-1,-2,0,-1,1,0,-1,-2,2021-08-16 12:29:37,543961
-2,-2,-2,-1,-1,-1,0,0,2021-08-16 12:29:37,574962
-2,-1,-1,0,-2,-2,1,-1,2021-08-16 12:29:37,574962
0,0,-1,-1,-1,0,-1,0,2021-08-16 12:29:37,574962
0,0,1,-2,1,-1,0,-1,2021-08-16 12:29:37,574962
0,-1,-1,-2,-1,-1,-2,-1,2021-08-16 12:29:37,590960
-2,0,0,-1,2,0,-1,-1,2021-08-16 12:29:37,590960
-1,-1,0,-1,1,1,0,-1,2021-08-16 12:29:37,590960
-1,0,-1,-1,-1,0,-2,-2,2021-08-16 12:29:37,590960
-2,-1,0,0,0,1,0,-1,2021-08-16 12:29:37,605962
-2,-1,-2,0,-2,0,0,-1,2021-08-16 12:29:37,605962
-2,0,0,0,-2,0,0,0,2021-08-16 12:29:37,605962
0,-1,-1,-1,-3,1,0,0,2021-08-16 12:29:37,605962
0,-2,-1,-1,-1,-3,-2,-2,2021-08-16 12:29:37,637962
-1,-1,0,-1,-1,0,0,0,2021-08-16 12:29:37,653961
-1,-2,-1,-2,-1,-1,0,-2,2021-08-16 12:29:37,653961
-1,-1,-2,-1,0,-2,-1,-1,2021-08-16 12:29:37,653961
-2,-1,-2,0,1,0,0,-1,2021-08-16 12:29:37,653961
0,0,0,1,-1,0,-1,-1,2021-08-16 12:29:37,653961
-1,0,-1,-1,-1,-1,0,-3,2021-08-16 12:29:37,653961
-1,-1,0,-1,0,0,-1,-1,2021-08-16 12:29:37,653961
0,1,0,1,-3,-2,0,-1,2021-08-16 12:29:37,669961
-1,0,0,0,1,-1,-1,0,2021-08-16 12:29:37,669961
-2,1,-1,0,-2,0,0,-2,2021-08-16 12:29:37,669961
0,0,-2,-3,1,-1,-2,0,2021-08-16 12:29:37,669961
-1,-2,-2,-1,-1,-1,0,-2,2021-08-16 12:29:37,686008
-1,-2,-2,1,-2,1,-2,-1,2021-08-16 12:29:37,686008
0,-1,-1,1,-1,-1,-2,0,2021-08-16 12:29:37,717961
0,-2,-1,-1,-2,0,1,-2,2021-08-16 12:29:37,717961
0,-1,0,-1,-1,-1,1,-1,2021-08-16 12:29:37,717961
0,0,-1,0,-1,0,-2,0,2021-08-16 12:29:37,717961
-1,-1,-1,-1,-1,-1,-1,-1,2021-08-16 12:29:37,717961
-1,-2,0,-1,-1,0,-1,1,2021-08-16 12:29:37,717961
-1,0,1,-2,-1,0,-2,0,2021-08-16 12:29:37,740999
0,0,-2,0,-1,-1,0,-2,2021-08-16 12:29:37,740999
-1,-2,0,-1,-1,-1,-1,0,2021-08-16 12:29:37,741962
-2,-2,-1,1,-1,-2,-1,-1,2021-08-16 12:29:37,741962
-1,-1,-1,-1,0,-1,0,0,2021-08-16 12:29:37,741962
0,-1,0,-1,-2,-2,0,-1,2021-08-16 12:29:37,741962
-1,-2,-1,0,-2,-1,-2,-1,2021-08-16 12:29:37,741962
0,-1,-1,1,1,1,0,-1,2021-08-16 12:29:37,741962
-2,-1,-1,-1,-1,1,-2,-3,2021-08-16 12:29:37,764960
-2,1,0,0,-1,0,0,1,2021-08-16 12:29:37,764960
-1,-1,-1,-2,-1,-1,0,-1,2021-08-16 12:29:37,764960
-2,1,0,-1,-3,-2,0,0,2021-08-16 12:29:37,780961
1,-2,-1,0,0,-1,-2,0,2021-08-16 12:29:37,796961
-1,-3,-1,0,0,1,1,-1,2021-08-16 12:29:37,796961
1,-2,-1,-1,-2,-1,-1,-1,2021-08-16 12:29:37,796961
-1,-1,0,-1,-1,-2,0,-3,2021-08-16 12:29:37,796961
0,-2,-1,-2,-1,-2,-1,-1,2021-08-16 12:29:37,812961
-2,0,-2,-2,-1,-2,-2,-3,2021-08-16 12:29:37,812961
0,0,-1,0,1,-1,-1,0,2021-08-16 12:29:37,812961
-1,-3,0,0,-2,-1,0,0,2021-08-16 12:29:37,828963
-1,0,-2,0,-1,0,0,-1,2021-08-16 12:29:37,828963
0,-2,0,0,-2,-2,-2,-2,2021-08-16 12:29:37,828963
-2,0,-1,1,0,0,1,0,2021-08-16 12:29:37,844963
0,-1,-1,-1,-2,-1,-3,-2,2021-08-16 12:29:37,844963
0,-1,-1,-1,-1,-1,-1,-1,2021-08-16 12:29:37,844963
0,-2,0,-1,0,-2,-2,0,2021-08-16 12:29:37,844963
0,-2,-1,-1,-1,-2,-1,-2,2021-08-16 12:29:37,844963
-2,1,-1,1,0,0,-1,-1,2021-08-16 12:29:37,844963
0,0,-2,-2,-1,-2,0,0,2021-08-16 12:29:37,860011
0,1,-2,-2,-1,-2,-1,-1,2021-08-16 12:29:37,860011
0,-1,-1,-3,-1,-1,0,-2,2021-08-16 12:29:37,860011
-1,-1,-2,0,0,-1,-1,-1,2021-08-16 12:29:37,860011
0,0,0,1,-1,-1,0,-1,2021-08-16 12:29:37,890963
-2,-1,-1,-2,-2,-1,1,0,2021-08-16 12:29:37,906963
-2,0,-1,-1,-1,-3,-2,0,2021-08-16 12:29:37,921961
0,-2,0,0,-2,-1,0,0,2021-08-16 12:29:37,921961
1,0,0,-2,1,0,-1,1,2021-08-16 12:29:37,921961
0,-2,-1,-1,-1,0,-1,-2,2021-08-16 12:29:37,921961
0,1,-2,-2,0,0,-1,-2,2021-08-16 12:29:37,921961
-1,0,-1,-1,0,1,-1,-1,2021-08-16 12:29:37,921961
-2,0,1,-1,0,0,-1,-1,2021-08-16 12:29:37,921961
-1,-2,-1,0,0,1,0,0,2021-08-16 12:29:37,922962
-1,-1,0,0,0,0,0,0,2021-08-16 12:29:37,922962
0,-1,0,-1,0,-1,-1,-1,2021-08-16 12:29:37,922962
-1,1,-1,-3,-2,-1,0,-1,2021-08-16 12:29:37,953961
0,1,-1,0,0,-2,-1,-2,2021-08-16 12:29:37,970000
-1,-2,-2,-1,-3,-2,1,0,2021-08-16 12:29:37,970000
-1,1,-1,-1,-2,0,-2,-1,2021-08-16 12:29:37,970000
0,0,0,1,-2,-1,-2,-2,2021-08-16 12:29:37,970000
1,-1,1,-2,0,-1,-1,-2,2021-08-16 12:29:37,970000
-1,-2,-2,0,-1,0,0,-1,2021-08-16 12:29:37,970000
-1,-1,-1,-3,-1,-1,0,0,2021-08-16 12:29:37,970962
0,-3,0,-2,0,-2,0,0,2021-08-16 12:29:37,986011
-2,-2,-1,0,0,-1,0,0,2021-08-16 12:29:37,986011
1,0,-1,0,-1,-2,-2,0,2021-08-16 12:29:37,986011
-2,0,1,-1,-1,-1,-1,-3,2021-08-16 12:29:37,986011
-1,0,0,-2,0,0,0,-3,2021-08-16 12:29:38,017478
0,0,0,0,-1,1,-2,0,2021-08-16 12:29:38,033479
0,-1,1,-1,0,-1,0,0,2021-08-16 12:29:38,049476
0,-2,-3,0,-1,0,-1,1,2021-08-16 12:29:38,049476
-1,-1,0,0,-1,1,-2,-1,2021-08-16 12:29:38,049476
-1,0,-1,-1,-2,-1,1,-1,2021-08-16 12:29:38,049476
-1,-3,-1,0,-1,0,-1,-2,2021-08-16 12:29:38,049476
-1,0,-1,0,-2,0,-1,-1,2021-08-16 12:29:38,049476
0,-2,-2,0,-2,-2,0,-1,2021-08-16 12:29:38,049476
-2,-2,0,0,-2,-2,-1,0,2021-08-16 12:29:38,049476
-1,1,0,0,0,0,-1,0,2021-08-16 12:29:38,049476
-1,-1,-1,-2,-1,-2,0,0,2021-08-16 12:29:38,050480
-1,-1,-2,-1,-1,-2,0,1,2021-08-16 12:29:38,064516
0,0,-1,-2,-1,0,-1,-2,2021-08-16 12:29:38,064516
0,0,-2,0,-1,-2,1,0,2021-08-16 12:29:38,064516
0,-1,0,-1,0,-1,-1,-2,2021-08-16 12:29:38,064516
-1,-1,1,-1,-1,1,-1,-2,2021-08-16 12:29:38,095475
0,-1,-3,0,-2,-1,-1,-2,2021-08-16 12:29:38,095475
-1,-2,0,-2,-1,0,0,-4,2021-08-16 12:29:38,095475
-1,-1,-2,1,1,-1,-2,-2,2021-08-16 12:29:38,095475
-1,-2,0,0,-2,-1,-1,0,2021-08-16 12:29:38,111476
-2,-1,-1,0,1,-1,-1,1,2021-08-16 12:29:38,127478
-1,-1,-1,-2,-1,-1,-2,-1,2021-08-16 12:29:38,142477
-1,0,-1,-2,-1,0,-1,0,2021-08-16 12:29:38,142477
-2,0,-2,-3,0,0,-2,-1,2021-08-16 12:29:38,158477
0,-2,-1,0,0,0,-1,-1,2021-08-16 12:29:38,158477
0,-1,-1,-1,1,-1,-1,-2,2021-08-16 12:29:38,158477
-1,-1,1,0,0,0,-1,-1,2021-08-16 12:29:38,158477
1,0,1,1,-2,-1,-1,-3,2021-08-16 12:29:38,158477
-1,0,-1,-1,-2,-2,-1,0,2021-08-16 12:29:38,158477
-1,-1,-2,0,-1,0,-1,0,2021-08-16 12:29:38,158477
-2,-1,0,-1,-1,-1,2,-1,2021-08-16 12:29:38,159478
0,-1,-1,0,0,0,-1,1,2021-08-16 12:29:38,159478
0,0,-1,-1,-2,0,-2,-2,2021-08-16 12:29:38,159478
-1,-2,1,-1,-3,-2,-1,0,2021-08-16 12:29:38,159478
0,-2,-1,-2,-1,0,-2,-1,2021-08-16 12:29:38,159478
0,-2,-3,1,-1,1,-1,-1,2021-08-16 12:29:38,190522
-1,0,-1,-2,0,0,0,0,2021-08-16 12:29:38,190522
0,1,0,-2,-1,-1,-1,1,2021-08-16 12:29:38,190522
1,0,0,-1,-1,-1,-1,-1,2021-08-16 12:29:38,190522
1,-1,0,-1,1,1,0,-1,2021-08-16 12:29:38,222525
-1,-3,-1,0,0,-1,-1,-2,2021-08-16 12:29:38,222525
-1,-1,1,-1,-1,-1,0,-1,2021-08-16 12:29:38,222525
0,-1,-1,-2,-1,-1,1,0,2021-08-16 12:29:38,222525
-2,-1,-1,-2,1,-1,0,-1,2021-08-16 12:29:38,222525
-1,0,-1,-2,0,-1,-1,-2,2021-08-16 12:29:38,222525
-2,0,-1,-1,0,-1,-1,-3,2021-08-16 12:29:38,223478
-2,-3,-2,2,-1,-1,-2,-1,2021-08-16 12:29:38,223478
-1,-1,-1,0,-2,-2,-1,-1,2021-08-16 12:29:38,254478
-1,0,-1,-1,-1,-1,0,-2,2021-08-16 12:29:38,270525
0,-1,0,1,0,0,-1,-1,2021-08-16 12:29:38,286526
0,1,-1,-2,-1,-1,-1,1,2021-08-16 12:29:38,286526
0,0,-2,-3,-1,-1,-1,0,2021-08-16 12:29:38,286526
0,-1,1,1,0,-1,-1,2,2021-08-16 12:29:38,286526
0,-1,0,0,-1,-1,-1,0,2021-08-16 12:29:38,286526
-1,0,-3,-1,-1,0,-2,0,2021-08-16 12:29:38,286526
0,-1,-2,1,0,-1,-1,-1,2021-08-16 12:29:38,287478
0,0,-3,0,0,0,-3,-2,2021-08-16 12:29:38,287478
-1,-2,-3,0,0,-1,0,-1,2021-08-16 12:29:38,287478
-1,-1,0,-2,-3,-1,0,-2,2021-08-16 12:29:38,287478
-1,-1,-2,-2,0,-1,0,0,2021-08-16 12:29:38,318515
-1,-1,1,-2,-1,-2,2,0,2021-08-16 12:29:38,318515
1,-1,-1,-1,0,-1,-1,-1,2021-08-16 12:29:38,318515
1,-1,0,0,0,1,0,0,2021-08-16 12:29:38,318515
-1,0,0,-1,-2,0,-1,0,2021-08-16 12:29:38,334527
-1,-3,0,0,0,-2,1,0,2021-08-16 12:29:38,350515
-1,-1,-2,-2,0,0,-1,0,2021-08-16 12:29:38,350515
0,-2,-2,-1,0,-1,-2,-1,2021-08-16 12:29:38,350515
0,-1,2,-1,-2,-1,0,-2,2021-08-16 12:29:38,350515
-1,-3,-1,-2,0,-1,0,-1,2021-08-16 12:29:38,350515
-1,-1,-1,-1,-1,-2,0,0,2021-08-16 12:29:38,350515
-1,0,-1,0,0,-1,-2,-2,2021-08-16 12:29:38,350515
-1,-1,-2,-1,-2,-1,-4,-1,2021-08-16 12:29:38,366476
0,0,-2,-2,-2,1,0,0,2021-08-16 12:29:38,366476
-2,-1,-1,-1,-2,0,0,0,2021-08-16 12:29:38,366476
0,0,0,-2,-1,-2,1,-1,2021-08-16 12:29:38,366476
-1,-2,-2,-1,1,-2,-2,-1,2021-08-16 12:29:38,398524
0,1,-1,0,-1,0,-1,-1,2021-08-16 12:29:38,398524
0,-1,0,-2,-2,0,-1,-1,2021-08-16 12:29:38,398524
-1,-1,0,1,-1,-1,-2,-1,2021-08-16 12:29:38,398524
0,1,0,0,1,-1,1,-1,2021-08-16 12:29:38,398524
-1,-2,-1,1,-2,-2,-2,-1,2021-08-16 12:29:38,398524
0,-2,-2,0,0,0,-1,-1,2021-08-16 12:29:38,399523
-2,-1,-1,-3,-1,-1,-1,-1,2021-08-16 12:29:38,399523
-2,-2,-1,0,-2,-1,1,0,2021-08-16 12:29:38,430526
0,-1,-2,-3,0,1,0,0,2021-08-16 12:29:38,430526
-1,1,0,-2,-1,0,-3,-2,2021-08-16 12:29:38,430526
1,-1,-1,0,-1,-2,-1,-1,2021-08-16 12:29:38,430526
0,-2,-1,-1,0,0,-1,0,2021-08-16 12:29:38,462526
0,1,-2,0,-1,-1,-1,-1,2021-08-16 12:29:38,462526
-2,0,-1,1,0,-1,-1,0,2021-08-16 12:29:38,462526
-1,-1,0,1,-2,0,0,0,2021-08-16 12:29:38,462526
-1,0,0,1,0,-2,-1,0,2021-08-16 12:29:38,478476
-1,-1,0,-1,-1,-1,-1,-1,2021-08-16 12:29:38,478476
-1,0,0,-1,-1,-1,-1,-2,2021-08-16 12:29:38,494521
0,-2,-1,-1,0,-1,-1,0,2021-08-16 12:29:38,510506
-1,-3,-2,0,0,1,-1,0,2021-08-16 12:29:38,526476
-2,-2,-1,-1,-1,1,1,-1,2021-08-16 12:29:38,526476
-1,0,-2,-1,-1,0,-2,-1,2021-08-16 12:29:38,526476
0,-2,-1,1,0,-1,0,0,2021-08-16 12:29:38,526476
-1,-1,-1,-1,0,0,-1,-2,2021-08-16 12:29:38,526476
-1,0,-1,-1,-1,-1,0,0,2021-08-16 12:29:38,526476
0,-1,0,-1,-1,0,0,-1,2021-08-16 12:29:38,526476
-1,0,-1,0,-1,-1,-2,-2,2021-08-16 12:29:38,527518
-1,-1,-1,0,-2,-2,-1,0,2021-08-16 12:29:38,527518
0,-2,-2,-2,0,-1,1,-1,2021-08-16 12:29:38,527518
-2,-1,-2,-1,-2,-2,-1,1,2021-08-16 12:29:38,527518
-1,-1,0,1,0,0,1,0,2021-08-16 12:29:38,527518
-1,0,-1,0,-2,1,-1,-1,2021-08-16 12:29:38,573526
-2,0,0,0,-2,-2,1,-1,2021-08-16 12:29:38,573526
-1,1,0,-1,0,-1,-2,-2,2021-08-16 12:29:38,573526
-1,0,-1,-3,-2,0,-1,-1,2021-08-16 12:29:38,573526
-1,1,-1,-1,-2,-2,0,0,2021-08-16 12:29:38,573526
-1,-2,0,0,-1,0,0,1,2021-08-16 12:29:38,573526
-1,-2,-3,-3,1,0,0,1,2021-08-16 12:29:38,573526
-1,0,0,-2,-1,0,0,0,2021-08-16 12:29:38,574479
-1,0,-1,0,-2,0,-1,-2,2021-08-16 12:29:38,581478
-1,0,-2,-1,0,-2,-3,-1,2021-08-16 12:29:38,581478
1,0,0,-1,-1,-1,1,0,2021-08-16 12:29:38,581478
0,-2,0,-3,0,-1,-1,-1,2021-08-16 12:29:38,581478
-1,-2,-1,1,0,-1,1,0,2021-08-16 12:29:38,619478
0,0,0,-1,1,0,-1,1,2021-08-16 12:29:38,635526
-2,-2,0,-1,-1,-1,-1,0,2021-08-16 12:29:38,635526
-1,-1,-3,0,-1,-1,-1,-2,2021-08-16 12:29:38,635526
-2,-1,-1,-2,-2,-3,-1,0,2021-08-16 12:29:38,635526
-1,-2,-2,0,-2,-1,-2,-2,2021-08-16 12:29:38,635526
-2,0,0,0,-1,-1,-1,-1,2021-08-16 12:29:38,635526
0,0,1,-1,-2,-1,0,-1,2021-08-16 12:29:38,635526
0,-1,-1,0,-1,0,-3,-2,2021-08-16 12:29:38,651517
0,1,-1,-1,0,-3,-1,-2,2021-08-16 12:29:38,667477
0,0,-2,-1,-1,-1,0,0,2021-08-16 12:29:38,682515
-1,-1,-1,-2,-1,-1,0,1,2021-08-16 12:29:38,682515
0,-1,-2,-1,0,-1,0,-1,2021-08-16 12:29:38,682515
0,-2,0,0,0,1,-1,1,2021-08-16 12:29:38,682515
-2,-1,-2,0,-1,-1,0,-1,2021-08-16 12:29:38,682515
-2,-2,-1,1,0,0,1,0,2021-08-16 12:29:38,682515
1,-2,0,-1,0,1,0,1,2021-08-16 12:29:38,682515
-2,0,1,0,-1,-1,-2,-2,2021-08-16 12:29:38,682515
0,-2,-1,-1,-1,0,1,-1,2021-08-16 12:29:38,698528
-1,0,-1,0,0,0,0,0,2021-08-16 12:29:38,714520
-2,0,-1,-1,0,0,0,-2,2021-08-16 12:29:38,730504
0,-2,-2,0,0,0,-2,-2,2021-08-16 12:29:38,730504
0,-1,0,0,0,0,-1,0,2021-08-16 12:29:38,730504
-1,-1,0,-2,0,-2,-1,-1,2021-08-16 12:29:38,730504
1,1,0,-1,-2,-2,0,-2,2021-08-16 12:29:38,730504
-1,-1,-1,-2,-2,0,-1,-1,2021-08-16 12:29:38,730504
-1,-2,-1,0,0,-2,1,-1,2021-08-16 12:29:38,730504
0,0,-2,0,0,0,-1,0,2021-08-16 12:29:38,731478
-1,-2,0,-1,0,0,-1,-2,2021-08-16 12:29:38,762475
0,1,-2,0,-1,-1,0,0,2021-08-16 12:29:38,762475
-1,-1,-1,0,-1,-1,-1,0,2021-08-16 12:29:38,762475
-1,-1,0,1,-1,-1,1,-1,2021-08-16 12:29:38,762475
-1,1,-1,0,-1,-2,0,-2,2021-08-16 12:29:38,762475
-1,0,0,0,0,0,1,-2,2021-08-16 12:29:38,762475
-1,0,-1,-1,-1,1,-2,-1,2021-08-16 12:29:38,778530
-1,-1,0,0,-3,-1,-1,-2,2021-08-16 12:29:38,778530
-2,-2,0,-1,0,-2,0,0,2021-08-16 12:29:38,794512
0,0,0,0,-1,0,-2,-2,2021-08-16 12:29:38,794512
-1,-1,-1,0,-1,-1,0,0,2021-08-16 12:29:38,794512
0,-1,-3,-1,0,0,-1,-2,2021-08-16 12:29:38,794512
-1,-1,-2,-1,1,0,-1,0,2021-08-16 12:29:38,810526
0,-1,-1,-1,2,-2,-1,0,2021-08-16 12:29:38,826477
1,1,0,-1,0,-2,-1,0,2021-08-16 12:29:38,826477
-1,-1,-2,-1,0,-2,0,0,2021-08-16 12:29:38,826477
-1,0,-2,-1,-2,-1,-1,0,2021-08-16 12:29:38,826477
-2,1,0,0,-1,-1,0,-1,2021-08-16 12:29:38,826477
-1,-1,1,-2,-2,0,-1,0,2021-08-16 12:29:38,826477
-1,-1,1,1,-1,-1,0,-1,2021-08-16 12:29:38,826477
-2,0,1,-1,1,-1,0,0,2021-08-16 12:29:38,858477
0,-1,-1,0,0,-3,-1,-1,2021-08-16 12:29:38,858477
-1,0,0,-3,0,-2,-1,-3,2021-08-16 12:29:38,858477
-1,1,-1,-2,1,-1,-1,-1,2021-08-16 12:29:38,858477
-1,-2,0,0,-1,0,-1,-1,2021-08-16 12:29:38,873523
-1,-1,-3,0,1,0,0,0,2021-08-16 12:29:38,889476
1,-2,-3,0,-1,0,0,0,2021-08-16 12:29:38,905478
1,-1,-1,-1,1,-1,-1,0,2021-08-16 12:29:38,905478
-1,1,-2,-1,-3,0,0,1,2021-08-16 12:29:38,905478
0,-1,-1,-1,-2,-2,0,-1,2021-08-16 12:29:38,905478
-1,-1,-2,0,0,0,-2,0,2021-08-16 12:29:38,905478
-3,0,0,-1,-1,-1,-1,-1,2021-08-16 12:29:38,905478
2,-1,-1,0,-1,-1,-1,-1,2021-08-16 12:29:38,905478
-1,-2,0,-3,-2,-2,-1,-2,2021-08-16 12:29:38,905478
0,-2,1,-2,1,-1,0,0,2021-08-16 12:29:38,905478
-1,-1,-2,-1,0,-1,-1,0,2021-08-16 12:29:38,906478
-2,-1,0,1,0,-2,-2,-1,2021-08-16 12:29:38,937524
0,-1,0,-1,0,0,-3,-1,2021-08-16 12:29:38,937524
-1,0,-1,1,-2,0,0,-1,2021-08-16 12:29:38,937524
-1,-1,0,-1,0,0,-1,-1,2021-08-16 12:29:38,937524
-1,-1,-1,-1,0,0,-1,0,2021-08-16 12:29:38,937524
-1,-2,-1,0,-3,-1,0,1,2021-08-16 12:29:38,937524
-1,-2,-2,-2,-1,-3,-2,-2,2021-08-16 12:29:38,953513
-1,-2,-2,0,-1,-1,0,-2,2021-08-16 12:29:38,969478
0,-1,-1,-1,-1,-1,0,0,2021-08-16 12:29:38,969478
0,0,0,0,-2,0,-2,1,2021-08-16 12:29:38,969478
-1,1,0,-1,-1,0,0,0,2021-08-16 12:29:38,969478
1,0,-1,-2,-2,1,1,0,2021-08-16 12:29:38,969478
0,-1,0,-1,-2,-1,-1,0,2021-08-16 12:29:39,001511
-1,0,0,0,0,0,-2,-2,2021-08-16 12:29:39,001511
0,-1,-1,0,-1,-1,-1,0,2021-08-16 12:29:39,001511
-2,-3,0,-1,-1,-1,-3,-1,2021-08-16 12:29:39,001511
-3,-3,0,-2,0,0,0,0,2021-08-16 12:29:39,001511
0,0,1,0,0,-1,0,0,2021-08-16 12:29:39,001511
0,-1,-2,0,1,-1,-1,-1,2021-08-16 12:29:39,017505
0,-1,-1,-1,0,-1,-2,-1,2021-08-16 12:29:39,017505
0,-1,-1,-1,-2,0,-1,-3,2021-08-16 12:29:39,033477
-3,0,-1,0,-2,0,-2,0,2021-08-16 12:29:39,033477
-2,-1,-1,-3,-2,-1,2,-1,2021-08-16 12:29:39,033477
2,-1,1,0,-2,-2,0,-1,2021-08-16 12:29:39,033477
-2,-2,0,0,-1,0,0,-2,2021-08-16 12:29:39,065490
0,-1,-2,-2,0,-3,-1,-1,2021-08-16 12:29:39,081479
0,-1,0,1,0,-1,-1,-1,2021-08-16 12:29:39,081479
-1,0,-1,-1,-3,-1,-2,-2,2021-08-16 12:29:39,081479
-1,0,-2,0,0,-1,0,0,2021-08-16 12:29:39,081479
0,-1,0,-1,-2,-1,1,-1,2021-08-16 12:29:39,081479
-2,-2,0,-1,-1,0,0,-1,2021-08-16 12:29:39,081479
-1,-1,1,-1,0,0,1,-1,2021-08-16 12:29:39,081479
0,-1,0,-1,0,0,-4,-1,2021-08-16 12:29:39,082478
-1,-2,-2,-2,0,-1,0,-1,2021-08-16 12:29:39,097525
0,-1,-3,-1,0,-2,-1,0,2021-08-16 12:29:39,113516
0,-1,-1,-1,-1,-1,-1,0,2021-08-16 12:29:39,129516
0,0,0,-1,-2,-1,1,0,2021-08-16 12:29:39,145525
1,0,0,-1,0,0,0,0,2021-08-16 12:29:39,145525
-1,-1,-1,1,-1,0,-3,-1,2021-08-16 12:29:39,145525
-2,-1,-2,0,-1,1,-1,-1,2021-08-16 12:29:39,145525
-1,-1,-3,0,-2,-2,-1,-1,2021-08-16 12:29:39,145525
-2,-2,-1,-1,-1,-2,-1,0,2021-08-16 12:29:39,145525
-2,2,0,0,0,-2,-1,-1,2021-08-16 12:29:39,146478
-1,-1,-1,0,-2,-2,-1,0,2021-08-16 12:29:39,146478
-1,1,0,0,-1,-1,-2,-1,2021-08-16 12:29:39,146478
-1,-1,-1,-1,0,-1,1,-2,2021-08-16 12:29:39,146478
0,-1,-1,0,-1,0,-1,-1,2021-08-16 12:29:39,146478
-2,-1,-1,-2,0,-1,0,-1,2021-08-16 12:29:39,146478
0,0,-2,-2,-1,0,-1,0,2021-08-16 12:29:39,177479
-1,-2,-2,-1,0,1,-1,0,2021-08-16 12:29:39,177479
-1,0,-2,0,-2,-1,-1,1,2021-08-16 12:29:39,177479
1,0,-2,0,0,-1,0,-2,2021-08-16 12:29:39,177479
-1,0,-1,-2,-1,1,0,-1,2021-08-16 12:29:39,192526
-1,0,0,-1,-1,0,-2,-2,2021-08-16 12:29:39,192526
-1,0,-1,-2,1,-1,1,-2,2021-08-16 12:29:39,192526
-1,-2,-1,-1,0,0,0,1,2021-08-16 12:29:39,192526
0,-4,-2,0,-1,-3,-2,-3,2021-08-16 12:29:39,208478
0,0,-1,0,-2,-1,0,0,2021-08-16 12:29:39,224477
0,1,-2,-1,-1,-3,-1,-1,2021-08-16 12:29:39,224477
-1,-2,0,-2,0,0,-1,-1,2021-08-16 12:29:39,224477
-1,-1,-1,-1,-2,-1,-2,-1,2021-08-16 12:29:39,224477
0,-2,-1,0,-1,-1,-1,-1,2021-08-16 12:29:39,224477
0,-3,-1,-3,-1,0,2,-2,2021-08-16 12:29:39,224477
-2,0,-2,-2,0,1,-1,0,2021-08-16 12:29:39,224477
1,-1,-1,-2,0,0,0,-2,2021-08-16 12:29:39,256479
1,-2,-2,1,-1,-1,0,-2,2021-08-16 12:29:39,256479
-2,-1,0,0,0,0,-3,-1,2021-08-16 12:29:39,256479
-1,-2,0,0,0,0,0,-1,2021-08-16 12:29:39,256479
-1,-2,-2,0,0,0,-1,-1,2021-08-16 12:29:39,272529
-1,1,-1,-1,0,-1,-1,0,2021-08-16 12:29:39,272529
0,-1,0,-1,-2,0,-1,-1,2021-08-16 12:29:39,272529
-1,0,0,0,-2,-1,-1,-1,2021-08-16 12:29:39,273151
0,0,0,-1,0,-1,-1,-2,2021-08-16 12:29:39,288297
0,-1,-2,-2,-1,0,-1,0,2021-08-16 12:29:39,303930
-2,-2,-2,-2,1,0,0,0,2021-08-16 12:29:39,319148
-1,-1,-2,-2,-1,-1,1,0,2021-08-16 12:29:39,319148
-2,-2,-1,-1,0,-1,0,-1,2021-08-16 12:29:39,319148
-3,-2,-1,-1,0,-2,1,-1,2021-08-16 12:29:39,319148
0,1,-1,-2,-1,-1,-1,0,2021-08-16 12:29:39,319148
-1,0,-1,-1,0,-4,-1,-2,2021-08-16 12:29:39,319148
-1,-2,0,-2,0,-1,0,1,2021-08-16 12:29:39,320147
-1,-1,-1,0,-1,0,-1,-2,2021-08-16 12:29:39,320147
0,-1,0,-1,-3,-1,-3,1,2021-08-16 12:29:39,335249
-1,-2,-1,-2,-2,-1,-1,0,2021-08-16 12:29:39,350262
-1,0,1,0,-2,0,-3,1,2021-08-16 12:29:39,350262
0,-2,1,-2,-1,-2,-1,0,2021-08-16 12:29:39,350262
-1,0,-1,1,-1,-1,0,-1,2021-08-16 12:29:39,350262
0,0,0,-3,0,-2,-2,0,2021-08-16 12:29:39,350262
0,-1,0,0,-1,-1,0,0,2021-08-16 12:29:39,380226
0,-1,-2,-1,0,1,-1,0,2021-08-16 12:29:39,380226
0,-1,0,-1,-1,-1,0,-1,2021-08-16 12:29:39,380226
-1,-1,-1,-1,-1,0,0,0,2021-08-16 12:29:39,380226
-3,-1,-3,1,-1,-1,0,-2,2021-08-16 12:29:39,380226
-1,-1,0,-1,-2,-2,-1,-1,2021-08-16 12:29:39,380226
0,-3,-1,0,-2,0,1,-1,2021-08-16 12:29:39,380226
0,-1,-2,-1,-1,0,-2,-1,2021-08-16 12:29:39,380226
0,0,-2,-2,0,0,-1,0,2021-08-16 12:29:39,412273
-1,0,-1,0,-1,0,0,-2,2021-08-16 12:29:39,412273
-1,-1,0,0,-1,-2,-2,-2,2021-08-16 12:29:39,412273
-1,-1,-1,-1,-1,-1,-1,-1,2021-08-16 12:29:39,412273
-1,-2,-2,0,-1,-1,-1,0,2021-08-16 12:29:39,444295
0,-2,-1,-1,-2,-2,-2,0,2021-08-16 12:29:39,460222
-2,-1,-2,-2,-2,1,-1,0,2021-08-16 12:29:39,476273
-1,-1,-1,0,0,-2,-1,-1,2021-08-16 12:29:39,492275
-1,-1,-1,-2,0,-1,0,-1,2021-08-16 12:29:39,492275
-2,1,0,0,-1,-1,0,0,2021-08-16 12:29:39,492275
0,-2,-2,-1,-1,-1,0,-2,2021-08-16 12:29:39,492275
1,0,-3,0,-2,1,-1,-2,2021-08-16 12:29:39,492275
-2,0,0,-3,0,-1,1,-2,2021-08-16 12:29:39,492275
-1,-1,0,-1,-2,0,0,-2,2021-08-16 12:29:39,493262
0,0,0,-2,0,-2,0,0,2021-08-16 12:29:39,493262
-1,-1,1,-2,-1,-1,1,-2,2021-08-16 12:29:39,493262
2,-3,-1,-2,0,0,-2,-1,2021-08-16 12:29:39,493262
0,-1,-2,-2,0,0,1,0,2021-08-16 12:29:39,493262
-3,-1,1,0,-1,0,0,-1,2021-08-16 12:29:39,493262
-2,-1,0,1,-2,-2,0,-1,2021-08-16 12:29:39,493262
-2,-1,-2,0,-1,-1,1,-1,2021-08-16 12:29:39,508223
0,-1,-1,-1,0,-1,-1,1,2021-08-16 12:29:39,523260
-1,0,-2,-1,-2,1,-1,0,2021-08-16 12:29:39,539222
-2,-1,-3,-1,-1,-2,0,-1,2021-08-16 12:29:39,539222
-2,-1,-2,0,-2,-1,-1,-2,2021-08-16 12:29:39,539222
-1,-1,-1,-1,0,-2,-1,-1,2021-08-16 12:29:39,539222
-1,-2,-1,0,0,-2,-1,-3,2021-08-16 12:29:39,539222
0,-1,0,0,1,1,-2,1,2021-08-16 12:29:39,539222
-1,0,-1,-1,-1,-1,-1,0,2021-08-16 12:29:39,555222
-3,-1,-2,-1,-2,0,-1,0,2021-08-16 12:29:39,555455
-1,1,-2,-1,-1,-1,0,-2,2021-08-16 12:29:39,555455
0,-1,-1,-2,-1,0,-2,-1,2021-08-16 12:29:39,555455
0,-1,-2,-2,0,-2,-3,-1,2021-08-16 12:29:39,571270
-2,-1,-1,-1,-2,-1,-1,-1,2021-08-16 12:29:39,587271
0,-2,-1,-1,-1,-2,0,0,2021-08-16 12:29:39,602223
-1,0,1,0,-2,-1,-1,-1,2021-08-16 12:29:39,602223
-1,-1,0,0,-3,-2,0,-1,2021-08-16 12:29:39,602223
-2,-1,-2,-2,-3,-2,-1,-1,2021-08-16 12:29:39,602223
1,-1,0,-1,0,-1,-2,-1,2021-08-16 12:29:39,602223
0,-2,-2,-1,1,0,0,0,2021-08-16 12:29:39,602223
-1,-2,-1,1,-1,0,0,-1,2021-08-16 12:29:39,618224
0,0,-1,0,0,-1,-2,-2,2021-08-16 12:29:39,618224
-2,-2,-1,-1,0,0,-3,-1,2021-08-16 12:29:39,618224
-1,-1,-2,1,1,-2,0,0,2021-08-16 12:29:39,618224
0,1,1,0,0,0,-1,-1,2021-08-16 12:29:39,634260
0,-2,0,6,-1,-1,0,-2,2021-08-16 12:29:39,634260
0,0,-2,6,-1,-1,-1,0,2021-08-16 12:29:39,634260
-2,-1,-1,4,-1,0,-2,1,2021-08-16 12:29:39,634260
-2,-1,-1,1,0,1,-1,0,2021-08-16 12:29:39,650226
-1,0,-1,-4,-1,1,0,0,2021-08-16 12:29:39,650226
-1,-1,0,-5,-2,-1,0,0,2021-08-16 12:29:39,650226
0,0,-1,-5,-1,0,-2,1,2021-08-16 12:29:39,650226
0,-1,-2,-2,-3,-1,0,-1,2021-08-16 12:29:39,682222
-1,0,-2,-5,-1,-1,-1,-3,2021-08-16 12:29:39,682222
0,-3,-2,-3,-1,0,0,-1,2021-08-16 12:29:39,682222
-1,-1,-1,-2,-1,0,0,-3,2021-08-16 12:29:39,682222
-1,0,-1,-1,-1,-2,-1,-2,2021-08-16 12:29:39,682222
-1,-2,0,0,-2,-2,-1,1,2021-08-16 12:29:39,682222
-1,0,0,-2,0,-1,-1,1,2021-08-16 12:29:39,713224
-1,-2,1,-4,-1,-1,0,-2,2021-08-16 12:29:39,713224
-1,0,-1,-2,-2,1,-2,0,2021-08-16 12:29:39,713224
-2,-2,-1,-1,-1,0,0,-1,2021-08-16 12:29:39,713224
0,0,-2,-2,0,0,0,1,2021-08-16 12:29:39,713224
0,-2,0,0,-2,1,0,0,2021-08-16 12:29:39,713224
-1,-1,1,-1,0,1,-1,0,2021-08-16 12:29:39,744224
1,-1,-2,0,1,-1,-1,0,2021-08-16 12:29:39,744224
-2,-2,0,-2,-1,-1,0,-1,2021-08-16 12:29:39,744224
-1,0,-2,-1,-1,-2,0,-2,2021-08-16 12:29:39,744224
0,-1,-2,-2,-1,-2,2,0,2021-08-16 12:29:39,744224
-1,-1,-1,-3,0,0,-1,-1,2021-08-16 12:29:39,744224
-2,-1,-1,-1,-1,-1,-1,0,2021-08-16 12:29:39,776223
-1,-1,-1,-3,-1,-1,-1,0,2021-08-16 12:29:39,792224
-1,0,-1,-1,-1,-1,0,-1,2021-08-16 12:29:39,792224
1,1,-1,1,0,0,1,-1,2021-08-16 12:29:39,792224
-1,-1,-1,1,-2,-1,0,-2,2021-08-16 12:29:39,792224
0,1,-1,1,0,-1,-1,0,2021-08-16 12:29:39,792224
0,0,0,-1,-2,-1,0,0,2021-08-16 12:29:39,792224
-1,-1,0,0,-1,-1,-2,-1,2021-08-16 12:29:39,792224
0,-1,-2,2,-2,-2,-1,0,2021-08-16 12:29:39,793225
-1,1,-2,-1,-1,-1,-2,-1,2021-08-16 12:29:39,793225
0,-2,-1,1,-1,-1,-3,-1,2021-08-16 12:29:39,808226
-1,-1,-2,1,-2,-2,-2,1,2021-08-16 12:29:39,808226
0,1,0,-1,-1,-2,-2,-3,2021-08-16 12:29:39,808226
-3,-1,-1,0,-1,-2,0,-2,2021-08-16 12:29:39,808226
-1,-2,1,1,0,-1,0,0,2021-08-16 12:29:39,840222
-1,-2,0,-2,0,-1,-3,-1,2021-08-16 12:29:39,840222
-2,-2,-1,-2,0,1,-1,-1,2021-08-16 12:29:39,840222
0,0,0,-1,-3,1,-1,-1,2021-08-16 12:29:39,840222
-1,-1,-2,-2,-1,1,-1,-1,2021-08-16 12:29:39,856222
-2,0,-1,0,-1,-1,-1,0,2021-08-16 12:29:39,856222
-2,-1,-1,-1,-1,-1,1,1,2021-08-16 12:29:39,856222
-1,-3,0,-1,0,-1,-1,0,2021-08-16 12:29:39,856222
1,0,-2,-2,0,-1,0,1,2021-08-16 12:29:39,888225
0,-1,0,1,-2,0,0,0,2021-08-16 12:29:39,888225
-2,0,-2,-1,-2,0,0,-2,2021-08-16 12:29:39,888225
-1,-1,-1,0,-1,0,-1,-1,2021-08-16 12:29:39,888225
-1,-1,-1,-2,-1,-1,-1,-2,2021-08-16 12:29:39,888225
0,0,-1,0,-1,-1,-2,-1,2021-08-16 12:29:39,889225
-1,-1,0,0,-1,-3,0,-1,2021-08-16 12:29:39,889225
0,-1,-2,-1,0,-2,-1,-1,2021-08-16 12:29:39,889225
0,-1,-1,0,1,-2,-1,-1,2021-08-16 12:29:39,920225
-2,0,-1,-1,0,-2,1,-2,2021-08-16 12:29:39,920225
2,1,-1,0,0,1,-1,0,2021-08-16 12:29:39,920225
0,-1,-1,-1,-1,0,-2,1,2021-08-16 12:29:39,920225
-2,-1,-2,0,0,-1,-1,0,2021-08-16 12:29:39,920225
0,0,0,-2,-1,0,1,-1,2021-08-16 12:29:39,921225
0,-1,0,1,-1,-1,-1,0,2021-08-16 12:29:39,951225
0,-1,-1,0,1,-1,0,-2,2021-08-16 12:29:39,967225
1,-1,-3,-1,-2,-2,-1,-1,2021-08-16 12:29:39,967225
-1,-1,-2,0,-1,-1,-1,-1,2021-08-16 12:29:39,967225
-1,0,0,-2,0,0,-1,-1,2021-08-16 12:29:39,967225
-1,0,-2,-1,-1,0,0,-3,2021-08-16 12:29:39,968225
-1,-1,-2,-2,-1,-1,0,0,2021-08-16 12:29:39,968225
-1,1,0,-3,-1,-2,-1,-1,2021-08-16 12:29:39,968225
-1,-1,0,-1,0,-2,-1,-2,2021-08-16 12:29:39,968225
-1,-3,-1,-2,-2,-2,-1,-1,2021-08-16 12:29:39,968225
-1,-2,-1,0,-1,1,-1,-2,2021-08-16 12:29:39,999223
-2,-1,-1,-1,-1,-1,0,0,2021-08-16 12:29:39,999223
-1,0,0,-2,-2,1,0,0,2021-08-16 12:29:39,999223
-1,1,-1,0,0,-2,-1,-2,2021-08-16 12:29:39,999223
-2,-2,0,-2,-1,-1,-1,-2,2021-08-16 12:29:40,015225
0,-2,-2,-2,-2,0,-3,0,2021-08-16 12:29:40,047225
-1,0,-1,0,-2,-1,-1,0,2021-08-16 12:29:40,047225
0,1,0,0,-1,-1,-1,-1,2021-08-16 12:29:40,047225
-1,0,1,0,-1,-3,0,-1,2021-08-16 12:29:40,047225
0,-2,-1,1,0,-1,1,0,2021-08-16 12:29:40,047225
-1,-1,-1,-2,-2,-1,0,-1,2021-08-16 12:29:40,048226
-2,-2,-1,1,0,0,1,0,2021-08-16 12:29:40,048226
-2,0,-1,0,-1,-1,-2,0,2021-08-16 12:29:40,048226
-1,-1,0,-2,-2,-1,-2,-1,2021-08-16 12:29:40,048226
-1,-2,-2,-3,0,-2,-1,-2,2021-08-16 12:29:40,062223
-2,-1,-1,-1,-3,-1,0,0,2021-08-16 12:29:40,062223
-2,-1,-1,-1,1,-1,-2,0,2021-08-16 12:29:40,078265
1,-1,-2,0,-2,-1,-2,-1,2021-08-16 12:29:40,094265
0,-2,-2,-1,0,1,-1,-1,2021-08-16 12:29:40,094265
0,-2,-2,-1,-1,-1,-3,-1,2021-08-16 12:29:40,094265
-2,-2,-1,0,-1,-1,0,-1,2021-08-16 12:29:40,094265
0,0,0,0,0,0,-1,-1,2021-08-16 12:29:40,110265
-1,0,-2,0,-3,-1,-1,-3,2021-08-16 12:29:40,126263
0,-1,1,1,0,0,0,-1,2021-08-16 12:29:40,126263
-1,-1,0,0,-1,-1,-1,-1,2021-08-16 12:29:40,126263
0,-1,1,0,0,-1,-1,1,2021-08-16 12:29:40,126263
-1,0,1,0,0,2,-1,0,2021-08-16 12:29:40,141263
-2,-1,0,-1,-1,-3,-1,-1,2021-08-16 12:29:40,141263
0,-1,-2,0,-1,-2,0,2,2021-08-16 12:29:40,141263
-2,0,-2,-3,-1,-1,0,-2,2021-08-16 12:29:40,141263
1,-1,-1,-1,-2,1,-1,-1,2021-08-16 12:29:40,142267
-1,-2,0,-2,-2,0,-1,-1,2021-08-16 12:29:40,142267
1,-2,0,-1,0,0,-3,0,2021-08-16 12:29:40,157264
-1,-1,0,-1,-2,-1,0,-1,2021-08-16 12:29:40,157264
0,-2,-2,0,-1,-1,-2,-1,2021-08-16 12:29:40,157264
-1,-1,-1,0,-3,0,-1,-1,2021-08-16 12:29:40,157264
1,-1,-1,-1,0,-1,0,-1,2021-08-16 12:29:40,173262
0,-1,0,0,0,0,-2,0,2021-08-16 12:29:40,173262
0,-1,-1,0,0,-2,1,-3,2021-08-16 12:29:40,173262
-2,0,-2,-2,0,0,-1,0,2021-08-16 12:29:40,173262
-1,-1,-2,-1,-1,-1,-1,-1,2021-08-16 12:29:40,189264
-2,0,-2,-1,-1,-2,0,0,2021-08-16 12:29:40,189264
-1,-1,-1,0,-1,-1,0,0,2021-08-16 12:29:40,189264
-1,-1,-1,-1,0,0,0,-1,2021-08-16 12:29:40,189264
-1,0,1,-1,0,-1,-1,0,2021-08-16 12:29:40,220262
0,-2,2,0,-1,0,-1,-1,2021-08-16 12:29:40,220262
-2,-1,0,-2,1,-2,0,1,2021-08-16 12:29:40,220262
-1,0,-1,-2,-1,-1,1,0,2021-08-16 12:29:40,220262
-1,-1,2,1,0,-1,-1,-2,2021-08-16 12:29:40,236263
-2,0,0,-2,-1,0,-1,-1,2021-08-16 12:29:40,251264
-1,0,0,-1,0,0,-2,-2,2021-08-16 12:29:40,251264
-2,-1,-2,0,1,-1,-1,-1,2021-08-16 12:29:40,251264
-1,0,-2,-1,-1,-2,-1,-2,2021-08-16 12:29:40,251264
0,-1,-1,1,-2,-1,-3,-2,2021-08-16 12:29:40,252264
0,-1,-1,0,-2,-2,-2,0,2021-08-16 12:29:40,252264
1,0,1,1,0,-3,0,-1,2021-08-16 12:29:40,252264
1,-1,-3,-1,-1,0,-2,0,2021-08-16 12:29:40,283264
0,0,-1,-2,-2,-3,1,-1,2021-08-16 12:29:40,283521
-2,-1,-1,-1,-1,-1,0,0,2021-08-16 12:29:40,283521
0,-3,-1,-2,-3,-4,1,0,2021-08-16 12:29:40,283521
-1,-1,0,-2,-1,0,0,2,2021-08-16 12:29:40,314787
-1,-2,-2,-2,-2,0,-1,-2,2021-08-16 12:29:40,330784
1,-3,-1,-2,-2,0,0,0,2021-08-16 12:29:40,330784
0,-1,-2,1,-1,1,-1,0,2021-08-16 12:29:40,330784
-1,-3,-2,-1,1,0,-2,0,2021-08-16 12:29:40,330784
0,0,-2,-1,0,-1,0,-1,2021-08-16 12:29:40,331785
-1,0,0,-1,1,-1,-1,-1,2021-08-16 12:29:40,331785
0,0,-2,0,-1,0,-1,-1,2021-08-16 12:29:40,331785
0,1,-1,1,0,-1,-1,-2,2021-08-16 12:29:40,346784
0,-1,-2,0,-1,0,-1,-2,2021-08-16 12:29:40,346784
0,-1,-1,-1,0,0,-2,1,2021-08-16 12:29:40,346784
-1,-1,0,-1,-1,1,0,0,2021-08-16 12:29:40,346784
0,0,-3,-3,-2,1,1,-1,2021-08-16 12:29:40,362787
-2,-1,-2,-1,-1,-1,-1,0,2021-08-16 12:29:40,362787
-1,-1,-1,-1,-1,-2,-1,-2,2021-08-16 12:29:40,363295
0,0,-2,-1,-2,-1,-1,1,2021-08-16 12:29:40,363295
-1,-1,-1,2,0,-1,-2,-1,2021-08-16 12:29:40,363786
-1,0,-1,-1,1,0,0,-1,2021-08-16 12:29:40,363786
-1,-1,0,-1,-1,-1,-1,-1,2021-08-16 12:29:40,378829
0,0,-1,1,0,-1,0,-1,2021-08-16 12:29:40,378829
0,0,-1,-1,-3,0,-1,-2,2021-08-16 12:29:40,394827
0,-1,-1,-1,0,-2,0,-1,2021-08-16 12:29:40,394827
-2,1,0,-1,0,0,0,-1,2021-08-16 12:29:40,394827
-1,1,-1,-3,0,0,-1,-1,2021-08-16 12:29:40,394827
-2,-2,0,-2,1,-1,-1,0,2021-08-16 12:29:40,426828
-1,-2,-1,-1,0,-1,-3,-1,2021-08-16 12:29:40,426828
-1,0,-1,0,-2,0,-2,0,2021-08-16 12:29:40,426828
0,0,-1,1,0,0,-3,-1,2021-08-16 12:29:40,426828
-2,0,1,1,-2,-1,0,-2,2021-08-16 12:29:40,426828
0,-2,0,-1,0,0,0,0,2021-08-16 12:29:40,427829
0,-2,-2,1,1,-2,-1,-1,2021-08-16 12:29:40,442829
-2,-1,-1,-1,-1,1,0,-2,2021-08-16 12:29:40,442829
0,-2,-2,0,-1,-3,0,0,2021-08-16 12:29:40,458829
-2,-1,0,-2,-1,0,2,1,2021-08-16 12:29:40,458829
1,-1,-1,-1,-1,-2,-2,-3,2021-08-16 12:29:40,458829
1,-2,-1,-2,-1,0,0,-2,2021-08-16 12:29:40,458829
-4,-1,-2,-2,-2,-2,1,-1,2021-08-16 12:29:40,490830
0,0,0,0,-1,0,1,-1,2021-08-16 12:29:40,490830
-1,1,-1,-1,0,-1,0,-1,2021-08-16 12:29:40,490830
-1,-1,0,0,-1,-1,-1,-1,2021-08-16 12:29:40,491830
