EMG 1,EMG 2,EMG 3,EMG 4,EMG 5,EMG 6,EMG 7,EMG 8,Timestamp
0,0,-2,0,-1,0,1,1,2021-08-16 12:26:18.016734
1,0,-1,-1,0,-1,0,-1,2021-08-16 12:26:18.016734
0,-1,-1,-1,-2,-1,-1,0,2021-08-16 12:26:18.017733
-1,-1,-2,-2,-2,-1,-2,0,2021-08-16 12:26:18.017733
-1,-3,0,-2,0,0,0,0,2021-08-16 12:26:18.019732
-1,-2,-1,-3,-1,-1,-1,-2,2021-08-16 12:26:18.019732
-2,0,-1,-2,0,-1,-2,-1,2021-08-16 12:26:18.019732
-1,0,0,-1,0,-1,1,0,2021-08-16 12:26:18.020732
-1,0,1,0,-1,0,-1,-1,2021-08-16 12:26:18.027733
-2,0,-1,0,-1,0,0,-1,2021-08-16 12:26:18.027733
-1,-2,-1,-2,0,1,0,-1,2021-08-16 12:26:18.032732
0,-1,-2,-1,-2,0,-2,-1,2021-08-16 12:26:18.032732
-1,-1,0,-1,-2,-2,0,-1,2021-08-16 12:26:18.047762
-2,-2,1,-1,-2,-2,-1,-2,2021-08-16 12:26:18.047762
-1,1,-1,0,-2,-1,0,-1,2021-08-16 12:26:18.057732
0,-1,-1,-2,-1,-2,-3,-1,2021-08-16 12:26:18.057732
0,-1,-2,-1,0,0,-1,-1,2021-08-16 12:26:18.062731
0,-1,-1,-1,-3,0,-1,0,2021-08-16 12:26:18.062731
-2,1,0,-1,1,-1,1,-2,2021-08-16 12:26:18.087759
-1,-2,0,-1,0,0,0,-1,2021-08-16 12:26:18.087759
0,-2,0,0,-1,0,-1,-2,2021-08-16 12:26:18.126735
-1,-1,0,-1,-1,-2,-1,-1,2021-08-16 12:26:18.126735
0,-1,-1,-2,-1,0,0,-1,2021-08-16 12:26:18.127736
-1,0,1,-3,-2,-1,-1,0,2021-08-16 12:26:18.127736
-1,0,-1,-1,-1,-1,-1,0,2021-08-16 12:26:18.127736
-1,-2,-2,-1,-1,-1,-1,-2,2021-08-16 12:26:18.127736
-1,0,-2,0,-1,0,-2,-1,2021-08-16 12:26:18.130733
-1,-1,-2,0,0,-1,1,1,2021-08-16 12:26:18.130733
-1,1,-1,0,1,1,0,-1,2021-08-16 12:26:18.138734
-2,0,1,0,-1,0,-2,-1,2021-08-16 12:26:18.138734
0,0,-2,0,0,-2,-2,-1,2021-08-16 12:26:18.145732
-1,-2,-2,0,-1,0,-2,-2,2021-08-16 12:26:18.145732
-2,-1,1,-1,-1,-2,0,-1,2021-08-16 12:26:18.152733
-1,-1,0,0,-1,-1,0,0,2021-08-16 12:26:18.152733
-3,-1,0,0,0,-2,0,-1,2021-08-16 12:26:18.167759
-1,-1,-2,-1,0,-2,-1,-2,2021-08-16 12:26:18.167759
0,-1,-1,-2,1,-1,-1,0,2021-08-16 12:26:18.175732
-1,0,0,1,0,0,-1,-1,2021-08-16 12:26:18.176735
0,-1,-1,0,0,0,0,-2,2021-08-16 12:26:18.190732
-1,-1,-1,0,-1,0,-3,0,2021-08-16 12:26:18.190732
-1,0,-1,0,-2,-1,-1,-2,2021-08-16 12:26:18.198731
1,0,-1,-1,-2,-2,0,-1,2021-08-16 12:26:18.198731
-1,-2,0,-3,0,0,-1,0,2021-08-16 12:26:18.213734
-1,-1,-2,-3,-1,-1,0,-2,2021-08-16 12:26:18.213734
1,0,0,-1,-1,-2,-2,-1,2021-08-16 12:26:18.214733
1,0,-1,-2,1,0,-1,-2,2021-08-16 12:26:18.214733
-1,0,0,0,-1,-2,-2,-2,2021-08-16 12:26:18.236776
0,0,-1,-1,0,-1,-1,0,2021-08-16 12:26:18.236776
-1,-3,-1,-1,0,0,-2,-1,2021-08-16 12:26:18.237734
1,-1,0,-1,0,0,-1,0,2021-08-16 12:26:18.237734
-1,1,-1,-2,0,0,0,-1,2021-08-16 12:26:18.258759
0,-1,0,-1,-1,-3,0,-2,2021-08-16 12:26:18.259734
-1,0,-1,1,1,-1,0,0,2021-08-16 12:26:18.259734
-1,-1,-1,-2,-2,-1,0,-1,2021-08-16 12:26:18.259734
1,-1,-1,1,-2,-2,0,-1,2021-08-16 12:26:18.273734
0,0,1,-1,-1,-1,-1,-1,2021-08-16 12:26:18.273734
-3,-1,-1,-1,0,-1,-1,-2,2021-08-16 12:26:18.274734
-2,-2,-1,0,-2,-1,1,0,2021-08-16 12:26:18.274734
-2,-2,1,0,0,-1,-1,1,2021-08-16 12:26:18.296734
0,0,-2,1,-1,-2,-1,-1,2021-08-16 12:26:18.296734
-1,-2,-1,-1,-2,-2,-1,-2,2021-08-16 12:26:18.297735
-1,-1,-1,-1,0,0,-1,1,2021-08-16 12:26:18.297735
-1,-1,-1,-4,-2,-1,-1,-2,2021-08-16 12:26:18.319733
1,-2,-1,-2,-1,-1,-1,0,2021-08-16 12:26:18.319733
-2,-1,-1,-3,-1,-2,1,-1,2021-08-16 12:26:18.319733
-1,1,-1,-2,-1,-3,-2,-2,2021-08-16 12:26:18.319733
-2,-2,-1,-1,-2,-1,-1,1,2021-08-16 12:26:18.333733
-1,-1,-1,-2,-1,-1,0,-2,2021-08-16 12:26:18.333733
1,0,-2,0,-1,0,-2,-1,2021-08-16 12:26:18.334733
-1,-1,-2,1,-2,0,-1,-2,2021-08-16 12:26:18.334733
-1,1,-1,-1,-1,-1,-1,0,2021-08-16 12:26:18.356770
-2,-1,0,-2,-2,-1,-1,-1,2021-08-16 12:26:18.356770
-1,-2,0,-1,-1,0,-1,-1,2021-08-16 12:26:18.357751
-1,1,-1,0,-1,0,-1,-1,2021-08-16 12:26:18.357751
1,-2,-1,0,0,0,-2,-1,2021-08-16 12:26:18.379732
-1,-1,1,1,1,0,0,-1,2021-08-16 12:26:18.379732
-1,1,-2,1,-2,0,-1,0,2021-08-16 12:26:18.379732
-2,-1,1,-1,-1,0,1,0,2021-08-16 12:26:18.379732
0,-3,-1,1,0,-1,0,1,2021-08-16 12:26:18.393734
0,0,-1,1,-1,-2,-1,-1,2021-08-16 12:26:18.393734
-1,-1,-1,-1,0,0,0,-1,2021-08-16 12:26:18.394736
0,0,-2,-2,-1,-2,-1,-2,2021-08-16 12:26:18.394736
-1,-2,-1,0,-1,-1,-2,-2,2021-08-16 12:26:18.416732
0,0,-1,-1,-3,1,-2,0,2021-08-16 12:26:18.416732
0,-1,1,-1,0,-2,-1,0,2021-08-16 12:26:18.417732
-2,-1,0,-2,0,0,-1,1,2021-08-16 12:26:18.417732
-1,0,0,-1,-1,-1,-1,-1,2021-08-16 12:26:18.439733
-1,-1,-1,0,-2,0,-3,-1,2021-08-16 12:26:18.439733
1,-1,-1,2,-2,1,-1,-1,2021-08-16 12:26:18.439733
0,-2,-1,-2,-2,0,-1,0,2021-08-16 12:26:18.440733
-1,1,-1,-1,-1,0,0,-1,2021-08-16 12:26:18.453734
-1,-1,-3,0,2,0,0,0,2021-08-16 12:26:18.453734
-1,-1,-1,-2,-2,-1,2,-1,2021-08-16 12:26:18.454732
-1,-1,-2,0,-1,0,0,-3,2021-08-16 12:26:18.454732
0,-1,-2,-1,-1,-1,1,0,2021-08-16 12:26:18.476771
-1,0,-1,-2,-1,-1,-1,-2,2021-08-16 12:26:18.476771
-3,0,-2,-1,-1,-1,-1,0,2021-08-16 12:26:18.478733
-1,-1,0,0,-1,0,0,-1,2021-08-16 12:26:18.478733
0,0,1,-2,-1,-1,-3,-1,2021-08-16 12:26:18.499774
0,0,0,1,1,0,-2,-1,2021-08-16 12:26:18.499774
-1,-1,-2,1,0,-1,-2,0,2021-08-16 12:26:18.501732
-1,0,-2,-1,-1,-2,-2,-1,2021-08-16 12:26:18.501732
-2,0,-1,-3,-2,-1,-1,-1,2021-08-16 12:26:18.512758
-1,-1,0,-2,0,0,1,0,2021-08-16 12:26:18.512758
-2,-2,-1,-2,-1,-1,0,-1,2021-08-16 12:26:18.521733
-1,-1,-2,1,-1,-1,-1,-1,2021-08-16 12:26:18.521733
1,-2,-1,-2,0,1,-1,-1,2021-08-16 12:26:18.536770
-3,-3,1,-2,0,0,-1,0,2021-08-16 12:26:18.536770
-1,0,-2,0,-1,1,-1,0,2021-08-16 12:26:18.538736
0,-1,1,-2,-1,-1,0,0,2021-08-16 12:26:18.538736
-1,-1,1,0,-1,-1,-2,0,2021-08-16 12:26:18.559734
1,-1,-1,-2,-1,-2,-1,-2,2021-08-16 12:26:18.559734
0,0,-1,-1,2,0,-1,0,2021-08-16 12:26:18.560732
0,-1,-1,0,-1,-2,-2,1,2021-08-16 12:26:18.561732
0,-1,-1,0,-1,-1,-1,-2,2021-08-16 12:26:18.572733
-1,0,0,-1,1,1,-1,-1,2021-08-16 12:26:18.572733
-1,-1,0,-1,-1,-1,-1,0,2021-08-16 12:26:18.581732
-1,0,-2,-2,-1,0,-1,-1,2021-08-16 12:26:18.581732
0,-1,-1,-1,0,0,0,-1,2021-08-16 12:26:18.596735
0,1,-2,1,-2,-1,-1,-1,2021-08-16 12:26:18.596735
-1,-1,-1,-2,-3,0,0,-1,2021-08-16 12:26:18.598732
1,0,0,1,-1,-1,-1,-1,2021-08-16 12:26:18.598732
-2,-2,-2,0,-1,-1,1,0,2021-08-16 12:26:18.619732
-1,-3,-1,-2,-1,-2,0,1,2021-08-16 12:26:18.619732
0,-1,0,0,-1,-1,-2,-3,2021-08-16 12:26:18.620732
0,-2,-2,-4,0,0,0,-1,2021-08-16 12:26:18.620732
0,0,0,0,-1,-3,-3,-1,2021-08-16 12:26:18.632769
-1,-1,0,-1,-2,0,-1,-1,2021-08-16 12:26:18.632769
-1,-1,-1,-1,0,-1,0,0,2021-08-16 12:26:18.641735
-1,-1,-2,-1,1,-1,-1,0,2021-08-16 12:26:18.642735
-3,-3,-1,-1,0,0,-1,-3,2021-08-16 12:26:18.656732
-1,-2,-1,-1,-2,-1,-2,1,2021-08-16 12:26:18.656732
-1,0,1,1,-1,-1,-2,0,2021-08-16 12:26:18.658733
-1,-1,0,-1,-2,0,-1,-1,2021-08-16 12:26:18.658733
-1,-1,-2,-1,-1,-1,0,-1,2021-08-16 12:26:18.679733
-1,0,0,0,0,-2,-1,0,2021-08-16 12:26:18.679733
1,0,-2,0,-2,0,-1,-2,2021-08-16 12:26:18.680734
-1,-1,-1,-1,-2,0,0,0,2021-08-16 12:26:18.680734
-1,0,0,-1,-1,0,-1,-1,2021-08-16 12:26:18.692735
0,0,-2,0,1,0,0,-1,2021-08-16 12:26:18.692735
-2,0,-2,-2,-1,1,-1,-1,2021-08-16 12:26:18.701736
-4,-1,-1,0,-1,0,-1,0,2021-08-16 12:26:18.701736
-1,-1,0,-2,-1,2,0,0,2021-08-16 12:26:18.716758
0,-1,0,0,-1,-1,-1,-2,2021-08-16 12:26:18.716758
0,-1,0,-1,0,0,2,1,2021-08-16 12:26:18.718733
0,0,1,0,-1,0,0,0,2021-08-16 12:26:18.718733
0,-1,-1,-2,-1,0,0,-1,2021-08-16 12:26:18.739733
0,-2,-1,0,-1,0,0,-2,2021-08-16 12:26:18.739733
1,-1,0,-2,0,0,-1,-1,2021-08-16 12:26:18.740735
-1,-1,0,-2,1,0,-1,-2,2021-08-16 12:26:18.740735
0,0,0,1,0,-1,-1,0,2021-08-16 12:26:18.752769
-1,-1,0,0,-2,-2,-2,-2,2021-08-16 12:26:18.752769
-1,-3,-2,1,-1,-1,0,-2,2021-08-16 12:26:18.761734
0,-3,0,2,-1,-1,-1,-1,2021-08-16 12:26:18.761734
-1,1,-1,-2,-1,-1,-1,-1,2021-08-16 12:26:18.776759
-1,0,-1,-1,-2,1,0,0,2021-08-16 12:26:18.776759
-2,0,-3,-1,-2,-2,0,0,2021-08-16 12:26:18.778731
-1,1,1,0,0,-1,-2,-1,2021-08-16 12:26:18.778731
-1,-1,-1,0,-2,-1,0,-1,2021-08-16 12:26:18.798732
-3,-2,-3,-1,0,-4,-1,0,2021-08-16 12:26:18.799735
-1,0,-1,0,-1,0,-2,0,2021-08-16 12:26:18.800788
-1,-2,0,0,0,-1,-2,-1,2021-08-16 12:26:18.800788
-1,-2,-2,0,-1,0,-1,-3,2021-08-16 12:26:18.812732
0,-1,0,0,0,0,-1,0,2021-08-16 12:26:18.812732
-2,0,1,-2,-1,0,-3,-1,2021-08-16 12:26:18.821731
0,-1,-1,0,-1,-1,-2,-1,2021-08-16 12:26:18.821731
-1,-1,-1,-1,-1,0,0,0,2021-08-16 12:26:18.836925
0,-2,-1,0,-2,-1,0,-1,2021-08-16 12:26:18.836925
-1,-1,0,-1,0,0,0,-2,2021-08-16 12:26:18.837924
0,-1,-1,-1,-1,0,0,1,2021-08-16 12:26:18.838925
0,-1,-2,-1,0,-2,0,0,2021-08-16 12:26:18.858923
-3,-1,-1,-3,-1,1,-1,0,2021-08-16 12:26:18.858923
-1,-1,0,-2,0,-2,-1,-2,2021-08-16 12:26:18.860924
0,-2,0,-2,-1,0,-1,-1,2021-08-16 12:26:18.860924
1,1,-2,0,-1,-2,-2,1,2021-08-16 12:26:18.872967
0,0,-2,-1,0,-1,-1,-1,2021-08-16 12:26:18.872967
1,-2,1,-2,-1,-2,-1,-1,2021-08-16 12:26:18.881924
-1,0,-1,1,-2,0,-1,-1,2021-08-16 12:26:18.881924
-1,-2,-1,0,0,1,0,-1,2021-08-16 12:26:18.896923
-1,0,-1,1,-1,0,-1,-1,2021-08-16 12:26:18.896923
-2,0,0,0,1,0,-1,-1,2021-08-16 12:26:18.902925
0,0,-1,-1,0,1,-1,0,2021-08-16 12:26:18.902925
-1,-2,0,-1,-1,0,-1,0,2021-08-16 12:26:18.918953
1,-1,-3,0,-1,-1,-1,-2,2021-08-16 12:26:18.918953
-1,-1,-2,0,-1,-1,0,-1,2021-08-16 12:26:18.920952
-1,-1,-2,-2,-1,-1,0,0,2021-08-16 12:26:18.920952
0,-1,-1,1,-2,0,-1,-1,2021-08-16 12:26:18.932963
-1,-2,-1,-2,-1,-1,0,0,2021-08-16 12:26:18.932963
0,-1,-2,-3,-1,-3,-1,0,2021-08-16 12:26:18.947962
-1,-1,-2,-1,-1,-3,-1,-1,2021-08-16 12:26:18.947962
-3,0,0,-2,-2,-2,-3,1,2021-08-16 12:26:18.956924
-1,0,0,-1,0,-1,-2,0,2021-08-16 12:26:18.956924
0,0,1,0,-1,0,-2,-1,2021-08-16 12:26:18.957924
-1,-1,0,0,-2,-1,-1,-2,2021-08-16 12:26:18.957924
-1,-1,-2,-1,-2,-1,-1,-2,2021-08-16 12:26:18.978924
0,0,0,0,-1,-1,-1,-1,2021-08-16 12:26:18.978924
-1,-2,-3,-1,-2,-1,0,-1,2021-08-16 12:26:18.986957
0,-1,-2,-1,1,-1,-2,0,2021-08-16 12:26:18.986957
-1,-2,0,0,-1,1,-1,-3,2021-08-16 12:26:18.992950
-1,-1,0,-1,0,0,-1,0,2021-08-16 12:26:18.992950
1,-1,-1,1,1,0,-1,-1,2021-08-16 12:26:19.001926
1,-1,0,-1,0,-1,0,-1,2021-08-16 12:26:19.001926
0,1,-3,0,1,-1,-1,-1,2021-08-16 12:26:19.016923
0,0,0,-2,-2,-1,0,0,2021-08-16 12:26:19.016923
-1,-2,1,-1,-3,-1,-1,0,2021-08-16 12:26:19.017924
-1,-2,0,-3,0,0,-1,1,2021-08-16 12:26:19.018925
0,-1,1,-2,0,-2,-1,-1,2021-08-16 12:26:19.038925
-1,-1,-2,-1,-3,0,-2,-1,2021-08-16 12:26:19.039924
-3,-1,-3,0,0,-2,0,-2,2021-08-16 12:26:19.040924
-1,1,-1,-1,-1,0,-1,-2,2021-08-16 12:26:19.040924
-1,-1,1,0,-1,0,-1,-1,2021-08-16 12:26:19.052926
1,-1,-2,-1,-1,0,0,-1,2021-08-16 12:26:19.052926
-1,-2,1,1,0,0,-1,-1,2021-08-16 12:26:19.061924
-1,-2,-1,-2,0,-1,0,-1,2021-08-16 12:26:19.061924
0,-1,-2,0,1,-2,0,-1,2021-08-16 12:26:19.076923
0,0,0,-1,0,0,-1,-1,2021-08-16 12:26:19.076923
-2,1,-2,-1,0,0,-1,0,2021-08-16 12:26:19.077923
-1,-2,0,-1,-1,0,0,-1,2021-08-16 12:26:19.078924
1,-2,0,-1,-2,-1,-1,0,2021-08-16 12:26:19.098950
-1,0,0,-2,0,0,-2,-3,2021-08-16 12:26:19.098950
0,0,-2,0,-1,-1,0,-1,2021-08-16 12:26:19.104923
0,0,-1,0,0,0,-2,-1,2021-08-16 12:26:19.105923
-1,-1,-2,-3,-1,-1,-1,1,2021-08-16 12:26:19.121926
-1,-3,-1,0,-1,-1,-1,0,2021-08-16 12:26:19.121926
-1,0,-1,-2,0,-1,-2,0,2021-08-16 12:26:19.122926
-1,0,-2,0,-1,0,0,-1,2021-08-16 12:26:19.122926
-2,-1,-1,-2,-2,0,0,0,2021-08-16 12:26:19.143927
-1,-1,-1,-1,0,-3,-2,-2,2021-08-16 12:26:19.143927
-1,-2,-1,-2,-1,0,-2,-1,2021-08-16 12:26:19.145924
0,-1,-1,-1,-2,0,-1,-2,2021-08-16 12:26:19.145924
-1,0,-2,-1,0,-1,-2,-1,2021-08-16 12:26:19.158923
0,1,-2,-1,0,-1,-1,-1,2021-08-16 12:26:19.158923
1,0,1,-1,-2,-2,0,-1,2021-08-16 12:26:19.165926
-1,-1,-1,0,1,-2,0,0,2021-08-16 12:26:19.165926
0,-2,-1,-1,0,0,0,-1,2021-08-16 12:26:19.181925
-2,-1,-1,0,-1,2,-2,0,2021-08-16 12:26:19.181925
-1,0,-1,-1,1,0,0,-1,2021-08-16 12:26:19.182923
1,0,0,-2,0,0,-2,-2,2021-08-16 12:26:19.183926
-1,0,-2,-2,-1,-1,0,0,2021-08-16 12:26:19.202924
0,-1,-1,-2,0,-1,-1,-1,2021-08-16 12:26:19.203926
-1,0,0,-4,-2,-1,-2,0,2021-08-16 12:26:19.211926
-1,-1,-2,0,-1,-1,-1,-1,2021-08-16 12:26:19.211926
-1,0,0,0,-1,-1,0,-1,2021-08-16 12:26:19.226929
-1,-2,0,0,0,-2,-1,0,2021-08-16 12:26:19.226929
0,-2,1,1,-1,-1,-1,-1,2021-08-16 12:26:19.228925
0,-2,0,-1,0,-1,0,-1,2021-08-16 12:26:19.228925
0,-1,0,-1,0,-3,-1,0,2021-08-16 12:26:19.241926
0,-1,-1,-1,-1,-1,-2,-1,2021-08-16 12:26:19.241926
-1,-1,-3,1,0,0,-1,-1,2021-08-16 12:26:19.242926
-2,0,-1,-2,-1,-1,-1,0,2021-08-16 12:26:19.243925
-2,-1,0,0,-1,0,-2,0,2021-08-16 12:26:19.264480
-1,-1,-1,-1,-1,-2,-1,0,2021-08-16 12:26:19.264480
-1,-2,-3,-1,-1,-1,-1,-1,2021-08-16 12:26:19.266480
0,0,-1,0,0,0,-1,-1,2021-08-16 12:26:19.266480
-1,0,0,-1,-1,-2,-3,-1,2021-08-16 12:26:19.277478
-1,-1,0,-1,-1,-1,1,0,2021-08-16 12:26:19.278477
-2,-1,0,-2,0,1,0,-1,2021-08-16 12:26:19.294514
-1,-1,-1,-2,-2,-2,0,1,2021-08-16 12:26:19.294514
0,0,-3,0,-1,0,0,-1,2021-08-16 12:26:19.301515
-2,-1,-1,-1,-2,0,0,-1,2021-08-16 12:26:19.301515
-1,0,-2,-1,-2,-1,0,-1,2021-08-16 12:26:19.303477
-1,1,0,0,0,0,-2,0,2021-08-16 12:26:19.303477
-1,-3,0,-2,-2,0,-1,-1,2021-08-16 12:26:19.324479
-1,0,1,-1,1,-1,-1,0,2021-08-16 12:26:19.324479
-2,-1,-2,0,-1,0,-1,-2,2021-08-16 12:26:19.325508
0,0,-1,0,-1,-1,-1,0,2021-08-16 12:26:19.326479
2,-2,0,1,-1,-1,0,-1,2021-08-16 12:26:19.338477
-1,-2,-1,-1,-2,-1,-1,-1,2021-08-16 12:26:19.338477
0,0,1,0,-1,-1,-2,0,2021-08-16 12:26:19.346479
-1,0,-1,-1,-1,0,0,-2,2021-08-16 12:26:19.347480
0,0,-3,-2,-1,0,-1,0,2021-08-16 12:26:19.361504
-2,0,-1,0,-1,-1,0,0,2021-08-16 12:26:19.361504
0,-2,-1,-1,0,-1,0,-1,2021-08-16 12:26:19.363506
0,-1,-1,0,-1,-1,-1,-2,2021-08-16 12:26:19.363506
0,0,-1,-1,-2,-1,-1,0,2021-08-16 12:26:19.384480
-2,0,0,-1,-2,0,-1,-1,2021-08-16 12:26:19.384480
-2,-1,-2,0,0,-2,-1,0,2021-08-16 12:26:19.385483
-1,0,-2,0,-1,0,0,-1,2021-08-16 12:26:19.386478
0,0,-3,-1,1,-1,1,-2,2021-08-16 12:26:19.406507
0,-1,-3,-1,-1,0,-1,0,2021-08-16 12:26:19.406507
-1,0,1,-2,-2,-1,0,0,2021-08-16 12:26:19.422513
0,-1,0,-2,-1,1,-1,-1,2021-08-16 12:26:19.422513
-3,1,2,-1,-1,-3,-1,-1,2021-08-16 12:26:19.423478
0,-1,-2,-2,-2,0,0,-1,2021-08-16 12:26:19.423478
0,-1,-2,0,-2,-2,0,-2,2021-08-16 12:26:19.424478
-1,-3,-1,-1,-1,-3,-1,1,2021-08-16 12:26:19.424478
-1,-2,-2,-1,0,0,-1,-1,2021-08-16 12:26:19.444479
0,0,-2,1,-2,-1,1,-1,2021-08-16 12:26:19.444479
-1,0,-1,-2,-1,0,0,1,2021-08-16 12:26:19.445478
-2,0,0,-2,-1,-1,-1,0,2021-08-16 12:26:19.446478
-1,-2,0,0,0,0,-1,0,2021-08-16 12:26:19.458477
-1,0,1,0,-1,0,0,0,2021-08-16 12:26:19.458477
-1,1,-2,-2,-2,-1,0,-2,2021-08-16 12:26:19.466479
-2,0,-2,0,-1,-1,1,-1,2021-08-16 12:26:19.467478
0,0,-1,-1,0,-1,-2,-1,2021-08-16 12:26:19.481480
0,-1,-2,0,-2,0,-3,-2,2021-08-16 12:26:19.482479
-1,-1,0,-1,-1,-1,-1,-1,2021-08-16 12:26:19.483477
0,-1,-1,-1,-1,-1,-2,-2,2021-08-16 12:26:19.483477
0,-1,0,-1,-1,-1,-1,-2,2021-08-16 12:26:19.504477
-1,-2,-1,-1,-1,-2,-1,-1,2021-08-16 12:26:19.504477
-1,-1,0,-1,-1,0,-2,-1,2021-08-16 12:26:19.505478
-2,-1,-1,-3,-1,-1,0,0,2021-08-16 12:26:19.506478
-1,1,-1,0,-1,1,0,1,2021-08-16 12:26:19.517480
0,-2,0,-1,1,0,-1,0,2021-08-16 12:26:19.518478
0,-2,-1,-2,-2,-1,-3,0,2021-08-16 12:26:19.534522
-1,-1,0,-1,-1,1,0,-1,2021-08-16 12:26:19.534522
-1,0,-3,0,-2,-1,-1,-1,2021-08-16 12:26:19.541515
-1,-1,1,-1,-1,-1,-2,-1,2021-08-16 12:26:19.541515
0,1,-2,-1,-1,-2,0,-1,2021-08-16 12:26:19.543482
0,-1,-3,-1,-2,1,-2,-1,2021-08-16 12:26:19.543482
-1,-3,0,-2,-1,0,1,1,2021-08-16 12:26:19.564477
-1,-1,-2,-3,0,-1,-3,-2,2021-08-16 12:26:19.564477
-1,-3,1,-2,0,-2,0,0,2021-08-16 12:26:19.565478
0,0,-1,1,-3,-2,0,0,2021-08-16 12:26:19.566478
0,0,-1,0,-2,-1,-1,-2,2021-08-16 12:26:19.577477
-1,-1,-2,0,-1,0,0,-1,2021-08-16 12:26:19.578479
-2,-1,0,1,-1,0,1,-2,2021-08-16 12:26:19.587477
0,-1,0,-1,-2,-2,-2,-1,2021-08-16 12:26:19.587477
0,-2,1,-1,-2,-3,-1,-1,2021-08-16 12:26:19.601503
-1,1,-1,1,-2,0,-1,0,2021-08-16 12:26:19.601503
-2,-1,-1,0,-1,-2,0,1,2021-08-16 12:26:19.603498
-1,-2,0,-2,-1,-1,-1,-2,2021-08-16 12:26:19.603498
0,-2,-2,0,-1,1,-1,-2,2021-08-16 12:26:19.624480
0,0,-1,-2,-1,0,0,-2,2021-08-16 12:26:19.624480
-1,0,-2,-1,0,-1,-2,-2,2021-08-16 12:26:19.625479
-1,1,-1,-2,1,0,-1,-2,2021-08-16 12:26:19.626479
-1,-1,0,0,-1,-1,0,0,2021-08-16 12:26:19.637503
0,0,-1,-1,0,-1,0,1,2021-08-16 12:26:19.638477
-1,-1,0,1,0,-1,-2,0,2021-08-16 12:26:19.646476
-2,0,0,-1,-1,-1,0,-2,2021-08-16 12:26:19.647477
-2,0,-1,-2,0,-1,-2,-1,2021-08-16 12:26:19.661477
-1,-2,0,0,-2,1,-1,-1,2021-08-16 12:26:19.662479
0,-1,-1,-2,-1,0,0,-1,2021-08-16 12:26:19.663477
0,-1,-1,0,-1,-3,0,-2,2021-08-16 12:26:19.663477
1,1,-2,-1,-1,-1,0,-3,2021-08-16 12:26:19.684478
-2,-1,-2,-2,-2,-1,-2,0,2021-08-16 12:26:19.684478
1,0,0,-1,-2,-1,0,0,2021-08-16 12:26:19.690477
-1,-2,0,-1,0,0,-1,0,2021-08-16 12:26:19.690477
-1,-1,0,-1,-1,1,0,-2,2021-08-16 12:26:19.706477
0,-2,-1,0,-1,0,-1,-1,2021-08-16 12:26:19.707477
-1,1,-4,-1,1,0,0,-1,2021-08-16 12:26:19.708505
-1,-1,-1,1,-2,-2,-1,0,2021-08-16 12:26:19.708505
-2,0,0,-1,-1,0,-1,2,2021-08-16 12:26:19.721478
-1,0,-1,0,0,-1,-1,-1,2021-08-16 12:26:19.721478
-1,-1,-1,0,-1,0,-1,-1,2021-08-16 12:26:19.729519
0,-2,-2,-2,0,0,1,-1,2021-08-16 12:26:19.729519
0,-1,-1,-1,0,0,0,0,2021-08-16 12:26:19.744479
-1,-1,-2,-1,0,0,0,-1,2021-08-16 12:26:19.744479
-1,0,-1,-3,-3,-2,0,-1,2021-08-16 12:26:19.745478
0,-1,-1,0,-1,-1,0,-1,2021-08-16 12:26:19.746479
-2,-2,0,0,-1,0,-1,-1,2021-08-16 12:26:19.766524
-1,-1,-1,0,-1,-1,-2,-1,2021-08-16 12:26:19.766524
-2,-2,-1,0,1,-1,-1,-1,2021-08-16 12:26:19.768476
-3,-1,0,-2,-1,1,-2,-1,2021-08-16 12:26:19.768476
-2,-1,-2,-2,-1,-1,0,-1,2021-08-16 12:26:19.781519
0,0,-2,1,0,-2,1,0,2021-08-16 12:26:19.782478
1,-1,2,0,0,0,-1,-1,2021-08-16 12:26:19.783478
-1,0,0,-1,-1,-1,0,0,2021-08-16 12:26:19.783478
-2,-1,-3,-1,0,-1,0,0,2021-08-16 12:26:19.804481
-1,-2,0,-2,-1,-1,-1,1,2021-08-16 12:26:19.804481
0,0,-1,0,0,0,0,-2,2021-08-16 12:26:19.806478
0,-1,-2,-2,0,-1,-1,1,2021-08-16 12:26:19.806478
-1,0,-1,0,-1,-1,0,-1,2021-08-16 12:26:19.843478
-1,-1,-1,-1,-1,-1,0,-2,2021-08-16 12:26:19.843478
-2,-1,-2,-3,-1,1,0,1,2021-08-16 12:26:19.844480
-1,0,-1,0,-2,-1,0,0,2021-08-16 12:26:19.845481
0,-3,0,-2,-3,0,-1,0,2021-08-16 12:26:19.845481
-1,-1,-1,0,-1,-1,-1,0,2021-08-16 12:26:19.845481
-1,-2,-2,-1,-1,-1,-2,0,2021-08-16 12:26:19.849507
-2,0,0,-1,0,-1,-1,-1,2021-08-16 12:26:19.849507
-1,-1,0,0,0,-2,-1,0,2021-08-16 12:26:19.864477
-1,-1,-2,-2,-1,0,0,-1,2021-08-16 12:26:19.864477
-1,0,0,-1,-1,-1,-2,-1,2021-08-16 12:26:19.865481
1,-2,-1,1,-1,0,-1,-2,2021-08-16 12:26:19.866478
0,0,-1,0,-2,-1,-1,-2,2021-08-16 12:26:19.887479
-1,-2,-1,0,0,-1,-1,-2,2021-08-16 12:26:19.887479
0,1,-1,0,0,-1,-2,-2,2021-08-16 12:26:19.888477
-1,-1,-2,-1,-1,-1,-2,-2,2021-08-16 12:26:19.889479
-2,0,-2,-1,-2,-3,-3,1,2021-08-16 12:26:19.901482
0,-2,0,-1,-1,0,0,-1,2021-08-16 12:26:19.901482
0,-1,0,-1,-2,0,-1,-2,2021-08-16 12:26:19.907506
0,-1,-3,-2,-1,-1,0,-2,2021-08-16 12:26:19.908478
-2,0,-1,-1,-1,-1,-2,-1,2021-08-16 12:26:19.924479
0,-2,-2,-1,-3,-2,-1,-1,2021-08-16 12:26:19.924479
-2,-3,-1,-1,-1,0,0,-1,2021-08-16 12:26:19.925477
0,0,-1,0,-2,-1,-1,0,2021-08-16 12:26:19.926479
-1,-1,-2,-1,0,0,0,-2,2021-08-16 12:26:19.946504
-2,2,-1,-2,-1,0,-1,-1,2021-08-16 12:26:19.946504
-2,0,1,0,-1,-3,-1,-1,2021-08-16 12:26:19.948477
-2,0,0,-1,-3,-1,0,0,2021-08-16 12:26:19.948477
-1,0,-1,0,0,0,0,0,2021-08-16 12:26:19.960478
-2,-1,1,-2,-2,0,0,0,2021-08-16 12:26:19.960478
-1,-1,-2,-1,-2,-2,1,-1,2021-08-16 12:26:19.969479
-2,-3,1,-1,0,0,-2,0,2021-08-16 12:26:19.969479
0,0,-1,0,-1,-2,-1,-2,2021-08-16 12:26:19.984478
0,-1,0,-1,1,0,-1,1,2021-08-16 12:26:19.984478
-1,1,-1,-2,0,1,-2,-1,2021-08-16 12:26:19.985498
-1,-1,0,-2,-1,1,-1,-1,2021-08-16 12:26:19.986478
1,-2,0,0,0,1,-2,-1,2021-08-16 12:26:20.006478
-3,-1,-2,-1,-1,-1,-1,-1,2021-08-16 12:26:20.006478
-1,-1,-2,-1,-2,-1,-1,0,2021-08-16 12:26:20.008478
-1,1,-2,0,-1,-2,-3,0,2021-08-16 12:26:20.008478
-2,-1,-1,0,-1,-1,-2,0,2021-08-16 12:26:20.021477
1,1,0,1,-1,0,0,0,2021-08-16 12:26:20.021477
0,0,-2,-1,0,0,0,1,2021-08-16 12:26:20.035540
-1,-1,0,-2,-2,-2,1,-1,2021-08-16 12:26:20.035540
0,-2,-2,-1,-1,0,1,0,2021-08-16 12:26:20.044479
0,0,0,-1,0,-2,0,-1,2021-08-16 12:26:20.044479
0,-1,0,-1,0,-1,0,0,2021-08-16 12:26:20.046478
1,-1,0,-1,-2,0,0,-1,2021-08-16 12:26:20.046478
0,0,-1,-2,-3,-1,-1,1,2021-08-16 12:26:20.067477
-2,-2,-1,-1,-1,0,0,-2,2021-08-16 12:26:20.067477
-2,-1,-1,-1,-1,-1,-2,-2,2021-08-16 12:26:20.072477
0,-1,-1,1,1,-1,-2,0,2021-08-16 12:26:20.072477
0,-1,1,0,0,-1,-1,-1,2021-08-16 12:26:20.081488
0,-1,-1,0,0,-1,-2,0,2021-08-16 12:26:20.081488
1,-1,-3,0,-1,-2,-1,0,2021-08-16 12:26:20.087523
-2,0,0,0,-2,0,-1,1,2021-08-16 12:26:20.088478
-2,-2,-1,-2,-1,-1,-1,-1,2021-08-16 12:26:20.104476
1,-1,-2,-2,-1,1,0,-1,2021-08-16 12:26:20.104476
-1,-1,-1,0,-2,-1,0,-1,2021-08-16 12:26:20.105477
-1,0,-1,-1,0,-1,-1,-1,2021-08-16 12:26:20.105477
-1,-1,-1,-1,0,-2,0,0,2021-08-16 12:26:20.126515
-2,-2,-1,0,-1,-1,-1,1,2021-08-16 12:26:20.127478
0,-3,0,0,-2,-2,0,-1,2021-08-16 12:26:20.128477
0,0,-3,-1,-1,0,0,-2,2021-08-16 12:26:20.128477
1,1,0,0,-1,0,-2,0,2021-08-16 12:26:20.141516
-1,0,-2,-1,-2,0,-1,-1,2021-08-16 12:26:20.141516
0,-2,0,-1,1,0,-1,2,2021-08-16 12:26:20.149516
0,0,-4,0,-1,-1,-2,1,2021-08-16 12:26:20.149516
-1,-2,-1,0,0,-1,-1,-1,2021-08-16 12:26:20.164478
-1,-1,0,-1,-1,-1,-2,0,2021-08-16 12:26:20.164478
-1,-1,0,0,-1,0,-1,-1,2021-08-16 12:26:20.165478
-2,0,-1,-1,-1,-2,-2,0,2021-08-16 12:26:20.166478
0,-1,0,0,-1,1,-1,-3,2021-08-16 12:26:20.186514
1,-1,-2,0,-1,-1,-2,-1,2021-08-16 12:26:20.187480
0,0,-2,1,-1,0,0,0,2021-08-16 12:26:20.188504
-3,0,-1,-1,0,-2,-1,-2,2021-08-16 12:26:20.188504
-2,0,-3,1,-1,-1,1,0,2021-08-16 12:26:20.200503
0,-1,-1,0,-1,-1,-1,-1,2021-08-16 12:26:20.200503
-1,-1,-3,-1,-2,0,1,0,2021-08-16 12:26:20.209477
-1,-2,0,-2,-2,0,-1,-1,2021-08-16 12:26:20.209477
0,-1,-2,-1,0,-3,-1,1,2021-08-16 12:26:20.224477
-1,-2,-1,-2,-1,0,-1,-3,2021-08-16 12:26:20.224477
-1,1,1,-1,-1,-2,-2,-1,2021-08-16 12:26:20.225477
0,-1,1,-1,0,0,-2,-1,2021-08-16 12:26:20.225477
-2,0,0,0,-1,-2,-2,-1,2021-08-16 12:26:20.246514
0,-1,-1,-1,-1,-3,-2,1,2021-08-16 12:26:20.247478
-1,0,-2,-1,0,0,-2,1,2021-08-16 12:26:20.248477
-1,-3,-3,-1,-2,0,1,-1,2021-08-16 12:26:20.248477
0,0,0,0,0,-1,-1,0,2021-08-16 12:26:20.260504
-2,0,0,1,1,0,0,-1,2021-08-16 12:26:20.260504
0,-1,-1,-2,0,0,-2,-2,2021-08-16 12:26:20.269479
1,-1,-2,1,0,-1,-1,-1,2021-08-16 12:26:20.269479
-3,-2,-2,0,-2,0,0,-1,2021-08-16 12:26:20.284478
-1,0,0,0,0,-1,-1,-1,2021-08-16 12:26:20.284478
-1,-1,-1,0,-2,0,2,-1,2021-08-16 12:26:20.285478
0,-3,-1,0,-1,-2,-2,0,2021-08-16 12:26:20.286478
-1,-1,0,-2,0,-1,-2,-1,2021-08-16 12:26:20.314479
0,-2,0,-2,0,-1,1,-2,2021-08-16 12:26:20.314479
-1,-1,0,-1,1,-1,-1,-1,2021-08-16 12:26:20.315478
-1,-1,-1,-1,-1,-1,0,0,2021-08-16 12:26:20.316479
0,0,-1,-1,-2,-2,-2,-1,2021-08-16 12:26:20.320477
-1,-2,-2,-2,-1,-1,0,0,2021-08-16 12:26:20.320477
-1,0,-2,1,0,-2,-1,-2,2021-08-16 12:26:20.329479
-1,-1,0,0,0,-1,-1,-3,2021-08-16 12:26:20.329479
-1,0,-1,-3,-1,-3,-1,-1,2021-08-16 12:26:20.344480
0,-1,-1,0,-2,-1,-2,-1,2021-08-16 12:26:20.344480
0,1,-1,-1,-2,-2,-1,-1,2021-08-16 12:26:20.345478
-1,0,-1,-2,-2,0,-2,-1,2021-08-16 12:26:20.346480
0,-1,0,1,0,0,-1,-2,2021-08-16 12:26:20.366505
-2,-1,-1,1,-1,-1,0,-2,2021-08-16 12:26:20.367477
-1,-2,-1,-2,-1,-2,-1,0,2021-08-16 12:26:20.368477
1,0,0,-1,-3,0,-1,-1,2021-08-16 12:26:20.368477
1,-1,-1,-1,0,0,0,0,2021-08-16 12:26:20.380510
0,-1,0,1,0,0,-1,-2,2021-08-16 12:26:20.380510
0,0,-2,0,-1,0,-1,-1,2021-08-16 12:26:20.389479
-2,-1,-1,0,0,-1,1,0,2021-08-16 12:26:20.389479
-2,0,-2,-2,-3,1,-1,-1,2021-08-16 12:26:20.404477
1,0,0,1,0,0,-1,1,2021-08-16 12:26:20.404477
0,-1,0,0,-1,0,-2,-1,2021-08-16 12:26:20.405479
0,0,0,0,0,-1,0,-1,2021-08-16 12:26:20.406478
-1,-1,-2,1,0,0,-1,-1,2021-08-16 12:26:20.426479
-2,2,-1,-1,-2,-1,1,-1,2021-08-16 12:26:20.426479
-1,-2,-1,-2,-1,0,-1,0,2021-08-16 12:26:20.428504
1,-1,-1,-3,2,-4,-1,2,2021-08-16 12:26:20.428504
-2,-1,0,-1,0,-1,-1,0,2021-08-16 12:26:20.440506
-1,-1,-2,-2,-1,-2,0,-1,2021-08-16 12:26:20.440506
0,-2,0,-1,-1,1,-1,-1,2021-08-16 12:26:20.449477
-1,0,-2,1,-1,-1,-1,-1,2021-08-16 12:26:20.449477
0,1,-1,0,0,0,0,0,2021-08-16 12:26:20.464484
0,0,-1,0,0,-1,-1,-2,2021-08-16 12:26:20.464484
0,-1,0,0,-1,-1,0,-1,2021-08-16 12:26:20.466478
-1,0,-1,-2,-2,0,-2,-1,2021-08-16 12:26:20.466478
1,-1,-1,-2,-1,-1,0,-1,2021-08-16 12:26:20.486514
-2,-1,-1,-1,0,0,0,0,2021-08-16 12:26:20.487479
0,-1,-2,-1,-1,-3,-1,-1,2021-08-16 12:26:20.488478
-2,-2,0,0,-2,-1,0,0,2021-08-16 12:26:20.488478
0,-3,-3,0,-1,-2,-1,-1,2021-08-16 12:26:20.500516
-1,0,-2,-1,-1,0,0,-1,2021-08-16 12:26:20.500516
-1,-1,-1,-1,-1,-3,0,0,2021-08-16 12:26:20.509479
-2,-2,-1,0,-3,-1,0,-2,2021-08-16 12:26:20.509479
-2,-1,-1,-2,-2,-1,0,-1,2021-08-16 12:26:20.524479
0,-2,-1,0,-3,-1,0,-1,2021-08-16 12:26:20.524479
1,1,-2,-1,0,-1,-3,0,2021-08-16 12:26:20.525478
0,-1,-2,-2,-3,0,-1,0,2021-08-16 12:26:20.526477
-1,0,-1,-1,-1,0,-1,-1,2021-08-16 12:26:20.546504
-1,0,-1,-2,-1,-1,-1,1,2021-08-16 12:26:20.547478
-1,-1,-1,1,-2,-2,0,-2,2021-08-16 12:26:20.548503
0,-1,-2,-1,0,-2,-2,-1,2021-08-16 12:26:20.548503
-2,-1,0,-2,-1,-1,-1,1,2021-08-16 12:26:20.560508
0,-2,0,0,-1,0,-2,-1,2021-08-16 12:26:20.560508
-3,-1,-1,-3,-2,-1,0,0,2021-08-16 12:26:20.569479
1,1,-1,0,-1,-2,-1,-1,2021-08-16 12:26:20.569479
1,0,-1,0,-1,0,-1,-3,2021-08-16 12:26:20.584482
1,-1,0,0,-2,0,0,-1,2021-08-16 12:26:20.584482
-1,-2,1,-2,-1,-1,-1,-1,2021-08-16 12:26:20.585478
-3,-1,0,1,-1,0,0,-2,2021-08-16 12:26:20.586477
-1,-1,-1,-1,0,0,-2,0,2021-08-16 12:26:20.606477
-1,-2,-1,-2,0,0,-1,-1,2021-08-16 12:26:20.606477
0,0,-1,0,1,1,0,-2,2021-08-16 12:26:20.608477
-1,-1,0,-2,-1,0,-2,0,2021-08-16 12:26:20.608477
-2,0,-1,0,-2,-1,-1,-1,2021-08-16 12:26:20.620502
-1,-2,-2,0,0,0,-1,-1,2021-08-16 12:26:20.620502
-1,-2,-2,1,-2,-2,-1,-1,2021-08-16 12:26:20.629478
0,-1,-1,-2,-1,0,-1,-1,2021-08-16 12:26:20.629478
2,-2,-1,-1,0,-1,-1,1,2021-08-16 12:26:20.644479
-2,-2,-1,0,-2,-2,-1,-3,2021-08-16 12:26:20.644479
-2,0,0,0,-1,-2,-1,0,2021-08-16 12:26:20.645478
-1,0,0,-1,-2,-1,-1,-3,2021-08-16 12:26:20.646477
-2,2,0,0,-3,0,0,-1,2021-08-16 12:26:20.666507
-2,1,-2,-2,0,-1,0,-1,2021-08-16 12:26:20.667477
0,0,-1,-1,-1,-2,0,-1,2021-08-16 12:26:20.668478
-1,-1,-1,1,1,0,-1,-2,2021-08-16 12:26:20.668478
0,-3,-1,0,-1,-2,-1,0,2021-08-16 12:26:20.689480
-1,-3,-3,-1,0,-2,-1,1,2021-08-16 12:26:20.689480
-2,1,-1,0,-1,-2,-1,-2,2021-08-16 12:26:20.690481
0,-1,0,-1,0,0,-1,1,2021-08-16 12:26:20.691477
-1,-1,-1,-2,-1,-1,-1,-2,2021-08-16 12:26:20.704477
1,0,-1,-1,0,1,-2,1,2021-08-16 12:26:20.704477
-1,-2,-1,-2,-1,0,-1,1,2021-08-16 12:26:20.705478
-2,0,-3,0,-1,-1,0,1,2021-08-16 12:26:20.706478
-2,-1,-1,0,0,0,-1,-1,2021-08-16 12:26:20.726517
-1,-2,0,-2,-1,-2,0,0,2021-08-16 12:26:20.726517
-1,-2,-1,-1,-1,0,-1,-1,2021-08-16 12:26:20.728515
-1,-1,-3,-1,-1,0,-1,0,2021-08-16 12:26:20.728515
0,-4,1,-1,-1,-1,-2,0,2021-08-16 12:26:20.749477
-2,-1,-2,0,-2,0,-2,0,2021-08-16 12:26:20.749477
-1,0,-2,-2,-1,0,-2,-1,2021-08-16 12:26:20.757477
0,-1,1,-1,-2,0,0,-1,2021-08-16 12:26:20.757477
0,0,0,1,0,-1,-1,0,2021-08-16 12:26:20.764480
-2,-1,0,-1,-2,-1,-2,0,2021-08-16 12:26:20.764480
0,-2,0,-1,-2,0,-1,-1,2021-08-16 12:26:20.765477
0,-2,-2,1,0,-2,-1,0,2021-08-16 12:26:20.766478
1,0,-2,-1,-2,-1,-2,0,2021-08-16 12:26:20.786514
0,-1,0,-1,0,-2,2,-1,2021-08-16 12:26:20.787478
-1,0,-1,-1,-1,-1,-1,0,2021-08-16 12:26:20.788508
-1,-1,-1,-3,0,-2,-1,-1,2021-08-16 12:26:20.788508
0,1,-2,0,0,-1,1,-1,2021-08-16 12:26:20.809480
-1,0,-1,0,-1,0,-2,0,2021-08-16 12:26:20.809480
-1,-1,-1,0,0,-2,-1,-1,2021-08-16 12:26:20.810477
-1,0,1,0,-2,-1,-1,-2,2021-08-16 12:26:20.811478
-1,-1,0,-2,-1,-1,-1,-1,2021-08-16 12:26:20.823478
0,-1,-2,0,0,-1,-2,0,2021-08-16 12:26:20.823478
-1,0,-2,-1,0,1,-2,-1,2021-08-16 12:26:20.830510
-1,-2,-1,1,-1,-1,0,-1,2021-08-16 12:26:20.830510
-2,0,-1,-1,0,-1,-1,0,2021-08-16 12:26:20.846505
0,-1,0,-1,0,-1,-1,-1,2021-08-16 12:26:20.847479
-2,-1,-1,-2,0,0,0,-1,2021-08-16 12:26:20.848477
0,0,-2,0,-2,-1,1,1,2021-08-16 12:26:20.848477
-2,-1,-1,0,0,0,2,-1,2021-08-16 12:26:20.869479
-1,1,-1,-2,-1,-1,-1,0,2021-08-16 12:26:20.869479
-2,-2,-2,-1,1,0,-1,0,2021-08-16 12:26:20.870477
-1,0,0,-2,-1,-2,-2,-2,2021-08-16 12:26:20.871478
-1,-1,-2,1,0,-1,1,-1,2021-08-16 12:26:20.883480
0,-1,0,0,-1,-1,0,-3,2021-08-16 12:26:20.883480
0,1,-1,-1,-1,-2,-2,-2,2021-08-16 12:26:20.890515
0,-3,-2,-1,-2,-1,0,0,2021-08-16 12:26:20.890515
-1,-1,0,-2,0,-2,-1,0,2021-08-16 12:26:20.906478
-1,-2,-1,1,-1,-1,0,-2,2021-08-16 12:26:20.906478
0,-2,-1,1,-3,0,1,1,2021-08-16 12:26:20.908505
0,0,-3,-1,0,0,-2,0,2021-08-16 12:26:20.908505
0,-1,1,-1,-1,-1,0,-2,2021-08-16 12:26:20.929478
-2,-2,-2,-1,-1,-1,-2,-1,2021-08-16 12:26:20.929478
-2,0,0,-1,-1,-1,0,1,2021-08-16 12:26:20.930480
-2,-1,0,0,0,-2,0,-2,2021-08-16 12:26:20.930480
-2,-2,-1,-1,-3,-2,-2,-1,2021-08-16 12:26:20.943477
-1,-1,1,-1,-1,-2,-1,0,2021-08-16 12:26:20.943477
-1,0,0,-1,-1,-1,-2,-1,2021-08-16 12:26:20.950477
-2,-1,-2,-1,0,-1,0,-2,2021-08-16 12:26:20.950477
-1,1,0,-1,0,0,-1,-2,2021-08-16 12:26:20.966478
-1,0,-2,0,-2,0,-1,-1,2021-08-16 12:26:20.966478
-1,-1,-2,0,0,-1,1,-2,2021-08-16 12:26:20.968478
1,-1,-1,-1,-1,-1,-2,-2,2021-08-16 12:26:20.968478
0,0,-2,1,-1,0,-2,0,2021-08-16 12:26:20.989482
-2,0,0,-4,-1,-1,-2,-1,2021-08-16 12:26:20.989482
0,-1,0,-1,1,0,0,-1,2021-08-16 12:26:20.990478
-1,0,0,-2,-2,0,-1,1,2021-08-16 12:26:20.991480
0,-1,-1,-3,-1,-2,-1,0,2021-08-16 12:26:21.003477
-1,0,-1,-1,-1,-1,0,1,2021-08-16 12:26:21.003477
-1,0,-1,0,-2,0,-2,0,2021-08-16 12:26:21.010511
-1,0,0,0,0,0,1,-1,2021-08-16 12:26:21.010511
-1,1,-1,-1,0,-1,-1,-2,2021-08-16 12:26:21.026479
-1,-1,-1,-1,-2,0,-1,-1,2021-08-16 12:26:21.027479
-2,-1,0,-2,-1,-1,-1,-2,2021-08-16 12:26:21.028477
-1,-1,0,0,-2,-1,-2,0,2021-08-16 12:26:21.028477
0,-2,-1,-1,-1,0,0,0,2021-08-16 12:26:21.049478
-1,-1,-1,-1,1,-1,-1,-1,2021-08-16 12:26:21.049478
0,-1,-2,-1,-1,-1,0,0,2021-08-16 12:26:21.050477
0,0,-1,-1,-1,-1,0,-2,2021-08-16 12:26:21.051478
-2,-1,-1,0,0,-2,0,-2,2021-08-16 12:26:21.063521
-3,-1,-1,-1,-2,1,-1,-3,2021-08-16 12:26:21.063521
0,-3,-2,2,-1,-1,-2,0,2021-08-16 12:26:21.070477
-2,-1,-1,-2,-1,-2,-3,-1,2021-08-16 12:26:21.070477
0,-1,0,1,-1,0,-1,-3,2021-08-16 12:26:21.086477
1,0,-1,-1,-1,0,0,-1,2021-08-16 12:26:21.086477
-1,-1,-1,-1,-1,0,0,1,2021-08-16 12:26:21.088504
-1,-2,-1,-2,0,0,-2,-2,2021-08-16 12:26:21.088504
-1,-1,1,-2,-2,-2,-2,0,2021-08-16 12:26:21.109479
0,-2,-1,-1,-2,0,0,-1,2021-08-16 12:26:21.109479
1,0,0,0,-2,-1,-3,-1,2021-08-16 12:26:21.110478
-2,-1,-1,-1,-1,0,-1,-1,2021-08-16 12:26:21.111477
-2,-2,-2,-1,1,-1,-1,0,2021-08-16 12:26:21.123480
0,-1,-2,1,-1,-2,0,-1,2021-08-16 12:26:21.123480
-2,0,-1,-1,-2,-2,-1,-1,2021-08-16 12:26:21.130505
0,1,-1,0,-1,-2,-2,-1,2021-08-16 12:26:21.130505
-1,0,-1,-1,0,-1,0,-2,2021-08-16 12:26:21.146514
-1,-1,-1,0,0,-1,-1,0,2021-08-16 12:26:21.147479
-2,-3,-2,0,1,1,0,1,2021-08-16 12:26:21.148479
-1,-1,-2,-1,0,-1,0,-1,2021-08-16 12:26:21.148479
-1,0,0,-1,-2,-2,-1,0,2021-08-16 12:26:21.169481
1,-1,0,-1,-2,-1,1,-1,2021-08-16 12:26:21.169481
-1,-1,0,-2,-2,-1,0,-1,2021-08-16 12:26:21.170478
0,-1,-1,-1,0,0,-1,0,2021-08-16 12:26:21.171480
-1,-1,-2,-2,-1,-1,-1,1,2021-08-16 12:26:21.191516
1,-2,-1,-2,0,-2,-1,-2,2021-08-16 12:26:21.192481
0,-1,0,-1,0,0,-1,-1,2021-08-16 12:26:21.192481
-1,-1,0,-1,-2,0,0,0,2021-08-16 12:26:21.192481
0,-2,-2,-1,0,0,-2,-2,2021-08-16 12:26:21.206479
-1,-2,-2,0,0,-2,-2,0,2021-08-16 12:26:21.206479
-1,0,-3,0,0,-2,-1,-3,2021-08-16 12:26:21.206479
-2,0,0,-1,-1,-2,0,-1,2021-08-16 12:26:21.207480
-1,0,0,-1,-2,-1,1,0,2021-08-16 12:26:21.228515
-1,-2,-1,-1,-1,0,-2,-1,2021-08-16 12:26:21.228515
2,0,0,-1,-1,0,0,-2,2021-08-16 12:26:21.229478
0,-1,-1,-1,-1,0,-1,-2,2021-08-16 12:26:21.229478
0,0,-1,-1,-1,-1,-1,-1,2021-08-16 12:26:21.251514
0,0,-1,0,-1,-2,0,-1,2021-08-16 12:26:21.251514
-2,-1,-2,0,0,-1,-1,-2,2021-08-16 12:26:21.252477
-1,-1,-1,0,0,0,0,-1,2021-08-16 12:26:21.252477
-1,-1,-1,-1,-2,1,-1,-1,2021-08-16 12:26:21.266478
-2,0,0,-2,-1,0,1,-2,2021-08-16 12:26:21.266478
-2,-3,-2,-3,-2,0,-1,-1,2021-08-16 12:26:21.266478
0,-1,-1,-1,0,-1,0,-1,2021-08-16 12:26:21.267478
-1,1,-3,-1,-1,-2,0,-1,2021-08-16 12:26:21.288503
0,0,-3,-2,-1,-1,0,0,2021-08-16 12:26:21.288503
-2,-1,1,-1,-1,0,-1,-4,2021-08-16 12:26:21.289477
-1,0,0,-2,-1,-1,-2,0,2021-08-16 12:26:21.289477
0,0,0,-1,-1,0,0,0,2021-08-16 12:26:21.302477
-1,1,0,0,0,-1,0,-1,2021-08-16 12:26:21.302477
0,0,0,1,-1,-1,0,-2,2021-08-16 12:26:21.311505
-2,-2,0,1,-1,-1,-1,-1,2021-08-16 12:26:21.311505
-1,-1,0,1,0,0,-1,-1,2021-08-16 12:26:21.326476
-1,-1,-2,0,-1,-1,-1,-1,2021-08-16 12:26:21.326476
0,-1,0,-1,1,-1,-1,1,2021-08-16 12:26:21.326476
0,-1,-2,-3,-2,0,-1,-1,2021-08-16 12:26:21.326476
1,0,-2,-1,-2,-1,-1,0,2021-08-16 12:26:21.348514
0,-1,1,0,-1,0,-2,-1,2021-08-16 12:26:21.348514
-2,-1,-1,-1,0,-1,0,-1,2021-08-16 12:26:21.349478
-2,-1,-1,-1,-1,-2,-1,0,2021-08-16 12:26:21.349478
-1,-2,0,-1,0,0,0,-2,2021-08-16 12:26:21.363477
0,0,-1,0,-1,-1,0,-1,2021-08-16 12:26:21.363477
0,-1,1,-2,0,0,0,0,2021-08-16 12:26:21.371478
-1,-2,-2,0,0,0,0,0,2021-08-16 12:26:21.371478
-1,-3,-2,0,0,0,-2,-1,2021-08-16 12:26:21.386477
0,-2,-1,1,0,-2,-2,0,2021-08-16 12:26:21.386477
1,-2,0,-1,0,0,0,-2,2021-08-16 12:26:21.386477
0,-1,1,0,-2,0,0,-1,2021-08-16 12:26:21.387480
-1,0,0,-2,-1,-3,-1,-1,2021-08-16 12:26:21.408496
1,0,-1,-1,-1,0,-1,0,2021-08-16 12:26:21.408496
-3,0,-1,-1,-1,1,0,-1,2021-08-16 12:26:21.409505
-1,-1,0,0,0,0,-1,-1,2021-08-16 12:26:21.409505
-1,0,-1,0,-2,-2,0,-2,2021-08-16 12:26:21.422514
0,-2,0,-2,-2,-1,-1,0,2021-08-16 12:26:21.423480
0,-1,-2,0,-1,-3,-1,-2,2021-08-16 12:26:21.431492
0,0,-2,0,-1,-2,-1,-1,2021-08-16 12:26:21.431492
-2,-2,0,-1,-1,-1,1,-1,2021-08-16 12:26:21.445476
-1,0,0,0,0,0,0,-1,2021-08-16 12:26:21.446479
-1,0,-1,0,0,0,-1,-1,2021-08-16 12:26:21.453477
1,-1,0,-1,-1,-1,0,-1,2021-08-16 12:26:21.453477
-2,-1,-1,-1,0,1,0,0,2021-08-16 12:26:21.468477
-1,0,0,-3,-2,0,0,-1,2021-08-16 12:26:21.468477
-1,-1,-2,1,-2,-2,-1,1,2021-08-16 12:26:21.469476
1,-2,-2,0,0,-1,1,-1,2021-08-16 12:26:21.469476
-1,-1,-1,0,-1,0,-1,-1,2021-08-16 12:26:21.483478
0,-2,0,0,-1,-2,-2,0,2021-08-16 12:26:21.483478
0,0,-2,-1,-1,0,-1,-2,2021-08-16 12:26:21.491477
-2,1,1,0,-2,0,-2,0,2021-08-16 12:26:21.491477
-1,-1,0,0,0,-2,1,-2,2021-08-16 12:26:21.506479
0,-2,-2,0,1,-2,-1,0,2021-08-16 12:26:21.506479
-2,-3,0,-1,-2,-1,-2,0,2021-08-16 12:26:21.506479
0,-1,-1,0,-1,-2,-1,0,2021-08-16 12:26:21.506479
1,-1,-2,-3,-1,0,-1,0,2021-08-16 12:26:21.528514
-2,1,-1,-2,0,-1,0,-2,2021-08-16 12:26:21.528514
-1,-1,-1,-1,-1,-1,-1,-1,2021-08-16 12:26:21.529478
-1,-2,-2,-2,-2,1,-1,-2,2021-08-16 12:26:21.529478
-1,1,1,-1,1,0,-1,0,2021-08-16 12:26:21.542476
0,-1,0,0,-1,-1,0,-1,2021-08-16 12:26:21.543479
0,0,-2,-1,0,-2,-1,0,2021-08-16 12:26:21.551478
0,-1,-1,0,-1,-2,-1,-1,2021-08-16 12:26:21.551478
0,1,-2,-1,-2,-3,0,-1,2021-08-16 12:26:21.566477
-1,-1,-2,0,-1,0,-1,0,2021-08-16 12:26:21.566477
0,-1,-1,0,-1,0,-1,0,2021-08-16 12:26:21.566477
-1,0,-1,-1,1,-1,-1,-1,2021-08-16 12:26:21.567478
1,-2,-1,-1,-1,0,-1,0,2021-08-16 12:26:21.588514
0,-1,0,-2,-2,-2,-2,-2,2021-08-16 12:26:21.588514
-2,-1,-2,0,-1,-2,-1,-1,2021-08-16 12:26:21.589480
-1,-1,-1,-1,0,0,1,0,2021-08-16 12:26:21.589480
1,-1,0,-1,-2,0,-1,-2,2021-08-16 12:26:21.611477
-1,-3,-2,1,0,-2,2,0,2021-08-16 12:26:21.611477
-1,-1,1,1,-2,-2,-1,-1,2021-08-16 12:26:21.612527
0,-3,0,-2,-2,-2,-2,-1,2021-08-16 12:26:21.612527
-1,-1,-1,0,2,0,-1,-1,2021-08-16 12:26:21.626480
0,0,-1,0,-1,-2,-1,0,2021-08-16 12:26:21.626480
0,-1,-2,-1,-1,-1,-1,-1,2021-08-16 12:26:21.626480
-1,1,-1,1,0,0,-1,-2,2021-08-16 12:26:21.627478
-1,0,0,-1,-3,2,-1,1,2021-08-16 12:26:21.648517
-2,-3,-1,0,0,0,-1,0,2021-08-16 12:26:21.648517
-2,0,-1,-1,-2,-1,-1,-1,2021-08-16 12:26:21.649481
0,-1,0,-1,-1,-1,0,-2,2021-08-16 12:26:21.649481
0,-3,0,0,-1,1,-2,-2,2021-08-16 12:26:21.671514
-3,0,0,-1,-1,1,-2,-2,2021-08-16 12:26:21.671514
0,0,0,-1,0,0,1,0,2021-08-16 12:26:21.672479
-1,-1,-1,-2,-1,-3,-2,1,2021-08-16 12:26:21.672479
1,-1,1,0,-1,-2,-1,-1,2021-08-16 12:26:21.686478
0,0,0,-1,-1,-1,-2,0,2021-08-16 12:26:21.686478
0,0,0,-1,1,-1,-1,-1,2021-08-16 12:26:21.686478
0,0,-1,0,-2,-1,-1,-1,2021-08-16 12:26:21.687477
-2,0,-2,-2,-1,-2,1,0,2021-08-16 12:26:21.708514
-2,0,-1,-1,-1,-2,-1,-1,2021-08-16 12:26:21.708514
-1,0,-1,-1,-2,-1,1,-2,2021-08-16 12:26:21.709516
-1,-1,-1,1,-2,0,-1,1,2021-08-16 12:26:21.709516
-1,-2,-2,0,1,-1,0,-1,2021-08-16 12:26:21.731503
-1,-1,-2,-3,-1,-1,-2,-1,2021-08-16 12:26:21.731503
-1,-1,-2,-1,0,-1,-1,0,2021-08-16 12:26:21.732479
0,-3,0,-3,0,-1,0,-1,2021-08-16 12:26:21.732479
-2,-1,0,-2,-1,0,-3,1,2021-08-16 12:26:21.746477
1,-1,0,2,-1,-1,-1,0,2021-08-16 12:26:21.746477
-2,-1,-1,0,0,-1,-1,-1,2021-08-16 12:26:21.746477
-1,1,-1,-1,-1,1,-1,-2,2021-08-16 12:26:21.747478
0,-1,-2,0,-1,-1,0,-1,2021-08-16 12:26:21.768509
-1,-1,-1,0,-1,0,1,-1,2021-08-16 12:26:21.768509
-1,0,0,-1,-1,0,-1,1,2021-08-16 12:26:21.769478
-1,-1,2,-1,1,0,0,-2,2021-08-16 12:26:21.769478
-2,1,-1,-1,-1,0,0,0,2021-08-16 12:26:21.791479
-2,-1,1,0,0,-1,-1,-1,2021-08-16 12:26:21.792478
0,1,-2,-1,-2,-2,-1,0,2021-08-16 12:26:21.792478
0,-1,-1,0,-1,-1,-1,0,2021-08-16 12:26:21.792478
-1,0,-2,-2,-1,-2,-2,-2,2021-08-16 12:26:21.806477
-1,-2,-3,-1,0,0,0,1,2021-08-16 12:26:21.806477
-3,-2,-1,-2,-3,0,-1,-1,2021-08-16 12:26:21.806477
-1,0,-2,1,-1,-1,1,-1,2021-08-16 12:26:21.807480
1,-1,0,-1,-2,-2,-1,0,2021-08-16 12:26:21.828479
0,0,0,-2,0,-1,-1,-1,2021-08-16 12:26:21.828479
-1,-2,0,0,1,0,0,-1,2021-08-16 12:26:21.829479
0,-1,-3,0,-1,1,0,-1,2021-08-16 12:26:21.829479
-2,-2,0,-1,0,0,0,-1,2021-08-16 12:26:21.851477
-2,-1,0,0,0,0,-1,-2,2021-08-16 12:26:21.852479
-2,-2,1,-2,-1,0,-2,0,2021-08-16 12:26:21.852479
-2,0,0,-1,-1,-1,-1,-1,2021-08-16 12:26:21.852479
0,-3,-1,-3,-1,-1,-1,0,2021-08-16 12:26:21.865511
-1,-1,0,0,-1,-1,-3,-3,2021-08-16 12:26:21.866480
0,0,-2,-2,1,-1,-1,-1,2021-08-16 12:26:21.873480
-1,-2,-2,-1,-1,-1,0,-1,2021-08-16 12:26:21.873480
0,-2,-1,-1,-1,0,-2,-3,2021-08-16 12:26:21.888479
-1,0,-2,0,1,0,-1,-1,2021-08-16 12:26:21.888479
-1,-2,-1,0,0,-1,-2,-2,2021-08-16 12:26:21.889477
1,1,0,-1,-1,-1,-1,0,2021-08-16 12:26:21.889477
-1,-1,-1,-2,0,-2,0,0,2021-08-16 12:26:21.911504
0,-1,-1,-2,-2,0,-1,0,2021-08-16 12:26:21.912478
-1,0,0,0,-2,-1,0,0,2021-08-16 12:26:21.912478
0,-1,0,0,0,-1,-2,-2,2021-08-16 12:26:21.912478
-2,-1,0,0,-2,-2,-2,-1,2021-08-16 12:26:21.926477
-1,-1,-2,-2,-1,-1,-2,0,2021-08-16 12:26:21.926477
0,-2,-2,-1,-2,-1,0,1,2021-08-16 12:26:21.926477
-1,-3,-1,-2,-1,-1,0,-1,2021-08-16 12:26:21.927477
1,-1,-1,0,-2,-1,-1,-3,2021-08-16 12:26:21.956477
-2,0,-1,0,-1,0,2,0,2021-08-16 12:26:21.957476
0,-1,0,-1,-1,0,-1,-1,2021-08-16 12:26:21.957476
-1,-1,-1,-1,-1,-1,-2,-1,2021-08-16 12:26:21.957476
-2,1,0,-1,-2,-1,0,0,2021-08-16 12:26:21.971516
-1,-1,-1,-3,-1,1,0,1,2021-08-16 12:26:21.972478
-1,-2,-3,-2,0,-1,0,-1,2021-08-16 12:26:21.972478
-2,-1,-1,-2,-2,-1,-1,-1,2021-08-16 12:26:21.972478
-1,0,-2,1,-2,-1,0,-1,2021-08-16 12:26:21.986516
0,0,1,-1,-2,0,-1,0,2021-08-16 12:26:21.986516
-1,1,-1,0,-2,1,-1,-2,2021-08-16 12:26:21.986516
-2,-3,-2,0,-2,-1,1,-2,2021-08-16 12:26:21.987478
1,0,-1,0,0,0,-1,0,2021-08-16 12:26:22.008477
0,-1,-1,-1,-2,0,-1,-3,2021-08-16 12:26:22.008477
0,-1,-2,-1,-1,-1,0,-1,2021-08-16 12:26:22.009479
-1,0,0,0,1,-2,-1,0,2021-08-16 12:26:22.009479
0,-1,-1,0,-1,-2,0,0,2021-08-16 12:26:22.031512
-2,-1,-1,-2,-1,-1,0,1,2021-08-16 12:26:22.032479
-1,-1,-1,-3,1,1,0,-1,2021-08-16 12:26:22.032479
-1,1,-1,-1,0,-1,-2,0,2021-08-16 12:26:22.032479
-1,0,-1,-1,0,-1,0,-2,2021-08-16 12:26:22.046478
0,-2,-2,-1,1,-2,0,-2,2021-08-16 12:26:22.046478
0,-2,-2,-1,-1,-1,-1,0,2021-08-16 12:26:22.046478
0,0,-3,-2,0,-2,0,-2,2021-08-16 12:26:22.047477
-1,0,-3,-2,-1,-2,0,0,2021-08-16 12:26:22.069477
0,0,0,0,0,-2,-2,-1,2021-08-16 12:26:22.069477
-1,0,0,1,-1,-2,-1,-1,2021-08-16 12:26:22.069477
0,-2,1,-2,0,-1,-2,0,2021-08-16 12:26:22.070478
-2,-3,-1,1,0,0,0,-1,2021-08-16 12:26:22.091479
0,-2,-1,0,-1,0,-1,-3,2021-08-16 12:26:22.092477
0,-1,0,0,-1,-1,-1,0,2021-08-16 12:26:22.092477
-1,0,1,-2,-2,0,-2,0,2021-08-16 12:26:22.092477
-1,-2,-2,0,1,0,-1,-2,2021-08-16 12:26:22.106477
0,0,-1,-1,-3,1,2,0,2021-08-16 12:26:22.106477
0,-2,0,0,-1,0,-2,-2,2021-08-16 12:26:22.106477
0,-1,-2,-1,-1,1,1,0,2021-08-16 12:26:22.107478
0,-1,1,-1,0,1,-2,0,2021-08-16 12:26:22.128516
-3,-1,-1,0,-1,-1,0,0,2021-08-16 12:26:22.128516
-1,-1,0,0,-1,0,-1,-1,2021-08-16 12:26:22.129479
-3,0,0,-1,-1,-1,0,0,2021-08-16 12:26:22.129479
0,0,0,-1,-1,0,-1,0,2021-08-16 12:26:22.151478
-2,-1,-2,-2,0,-1,-1,-1,2021-08-16 12:26:22.151478
-2,-2,1,-1,0,-1,-1,0,2021-08-16 12:26:22.152477
0,-1,-1,0,0,0,0,-3,2021-08-16 12:26:22.152477
0,0,-1,1,-1,0,0,0,2021-08-16 12:26:22.166490
-2,0,-1,-1,0,-2,0,-2,2021-08-16 12:26:22.166490
-1,-1,-2,-2,0,-1,-1,-2,2021-08-16 12:26:22.166490
1,-1,-2,0,-2,-1,-1,-1,2021-08-16 12:26:22.167478
0,0,0,0,-1,0,0,-1,2021-08-16 12:26:22.196477
-2,0,-2,0,-1,-1,-1,0,2021-08-16 12:26:22.197477
0,-1,-2,0,-3,-1,1,0,2021-08-16 12:26:22.197477
-1,-1,-1,-1,-1,0,-3,0,2021-08-16 12:26:22.197477
-1,-2,0,-1,-1,-2,-1,1,2021-08-16 12:26:22.212478
1,-1,0,-1,-1,-2,-1,-1,2021-08-16 12:26:22.212478
1,0,0,-1,-1,-1,0,-1,2021-08-16 12:26:22.212478
-1,0,-1,1,0,0,1,-1,2021-08-16 12:26:22.212478
-3,0,0,-3,-1,1,-2,0,2021-08-16 12:26:22.225492
-1,-2,0,1,1,0,-1,1,2021-08-16 12:26:22.225492
0,0,-2,-2,-1,-1,0,0,2021-08-16 12:26:22.233505
-1,-1,-1,0,1,0,-1,-2,2021-08-16 12:26:22.233505
1,1,-1,-3,0,-2,0,0,2021-08-16 12:26:22.248504
-2,0,-2,-1,-2,-3,-1,0,2021-08-16 12:26:22.248504
-2,1,-2,-1,-2,-1,-2,-1,2021-08-16 12:26:22.249479
-1,-2,-1,-1,-2,0,1,0,2021-08-16 12:26:22.249479
-2,-1,-2,2,-1,-1,1,-1,2021-08-16 12:26:22.271514
-1,-1,0,-1,0,0,0,0,2021-08-16 12:26:22.272478
-1,0,-1,-1,0,-1,0,0,2021-08-16 12:26:22.272478
0,-1,0,-2,-3,0,-2,-2,2021-08-16 12:26:22.272478
-1,-1,0,-2,-1,0,-1,0,2021-08-16 12:26:22.285516
0,-1,-1,-2,-1,-1,0,-2,2021-08-16 12:26:22.285516
0,-1,-2,-2,1,-1,-2,-2,2021-08-16 12:26:22.293479
-1,-1,-2,0,0,-1,-1,0,2021-08-16 12:26:22.293479
0,-2,-1,-2,-1,0,0,-1,2021-08-16 12:26:22.308504
-1,-1,-1,-1,0,0,-1,0,2021-08-16 12:26:22.308504
-1,0,0,1,0,1,-1,-1,2021-08-16 12:26:22.309477
0,0,0,0,-1,-3,-1,-1,2021-08-16 12:26:22.309477
-1,-1,-1,0,-2,0,-1,-2,2021-08-16 12:26:22.331477
-1,0,-1,-2,-2,-1,-2,-1,2021-08-16 12:26:22.332477
-3,-1,-1,-2,0,-2,1,-1,2021-08-16 12:26:22.332477
-1,0,-1,-2,-2,-2,0,1,2021-08-16 12:26:22.332477
1,1,0,-1,-2,-2,-1,0,2021-08-16 12:26:22.345501
1,-1,0,0,-2,-1,-2,-2,2021-08-16 12:26:22.345501
-1,0,-1,0,-2,0,-2,0,2021-08-16 12:26:22.353477
-1,-2,-1,-1,1,-1,0,-1,2021-08-16 12:26:22.353477
-2,-1,0,0,-2,-3,-1,-1,2021-08-16 12:26:22.368479
-1,1,-3,0,1,1,-1,-2,2021-08-16 12:26:22.368479
0,-1,0,0,-1,-1,0,-2,2021-08-16 12:26:22.369477
0,0,-2,0,-2,-1,-2,-1,2021-08-16 12:26:22.369477
-2,-2,-2,-1,-1,0,1,0,2021-08-16 12:26:22.391477
0,-1,-2,-1,-1,0,1,-1,2021-08-16 12:26:22.392477
-1,-2,-1,-1,0,1,1,1,2021-08-16 12:26:22.392477
-1,-1,-1,-1,0,-1,-1,1,2021-08-16 12:26:22.392477
1,-1,0,-1,1,0,-2,0,2021-08-16 12:26:22.405525
0,-1,1,1,-2,-2,-1,-1,2021-08-16 12:26:22.405525
0,0,0,0,-2,-1,0,0,2021-08-16 12:26:22.413502
-1,0,0,0,-1,-1,-1,-1,2021-08-16 12:26:22.413502
1,1,-1,-1,-1,-1,-1,-1,2021-08-16 12:26:22.428477
-2,-1,-1,0,-1,0,-2,0,2021-08-16 12:26:22.428477
0,0,-1,-1,-1,-1,-3,0,2021-08-16 12:26:22.429478
-1,-2,0,0,-1,0,0,-1,2021-08-16 12:26:22.429478
-1,-1,-1,0,0,0,-1,0,2021-08-16 12:26:22.451505
0,-1,0,-1,-2,-2,-1,0,2021-08-16 12:26:22.451505
-2,-1,-1,-1,-2,1,-2,1,2021-08-16 12:26:22.452477
0,-1,-1,-1,0,0,-1,0,2021-08-16 12:26:22.452477
-1,0,-2,-1,0,-1,0,-2,2021-08-16 12:26:22.465491
-1,1,0,0,1,-2,0,-1,2021-08-16 12:26:22.465491
-1,0,-2,-1,1,-2,0,0,2021-08-16 12:26:22.473517
-1,-1,0,0,-2,0,-2,-1,2021-08-16 12:26:22.473517
-1,0,0,0,-1,-1,-1,-1,2021-08-16 12:26:22.488477
-2,-2,-1,-2,-1,-1,-1,-1,2021-08-16 12:26:22.488477
0,-2,0,-1,0,-1,-1,0,2021-08-16 12:26:22.496478
0,0,-1,-1,-2,-1,-1,-2,2021-08-16 12:26:22.496478
2,-1,-1,-1,0,0,-1,-1,2021-08-16 12:26:22.511504
0,-1,-1,-2,-1,0,-1,0,2021-08-16 12:26:22.512478
-1,-2,0,-1,-1,-1,-2,-2,2021-08-16 12:26:22.512478
0,0,-1,-1,0,-1,0,0,2021-08-16 12:26:22.512478
-2,0,-1,0,-2,0,-2,1,2021-08-16 12:26:22.534479
-1,0,1,1,-1,0,-1,-1,2021-08-16 12:26:22.534479
-1,-2,-2,0,0,-1,1,0,2021-08-16 12:26:22.535477
-1,-1,0,-2,0,0,-1,-1,2021-08-16 12:26:22.535477
1,0,-2,-1,0,-2,-1,-2,2021-08-16 12:26:22.548505
1,-1,-1,-1,-1,0,-1,-1,2021-08-16 12:26:22.548505
-1,0,-1,-1,-1,-1,-1,-2,2021-08-16 12:26:22.549505
-3,-2,-1,1,-1,-1,0,0,2021-08-16 12:26:22.549505
-2,-1,-1,-1,-1,-1,0,0,2021-08-16 12:26:22.571516
0,-2,-3,-2,0,-2,0,0,2021-08-16 12:26:22.572478
-1,0,0,0,-1,0,-1,0,2021-08-16 12:26:22.572478
0,0,0,0,-1,0,0,-2,2021-08-16 12:26:22.572478
-2,-2,-1,1,-1,-1,-1,0,2021-08-16 12:26:22.594480
0,0,-1,-1,-1,-1,-2,-2,2021-08-16 12:26:22.594480
1,-1,0,-1,-1,0,-2,-1,2021-08-16 12:26:22.595478
0,-1,0,-1,0,-1,0,-1,2021-08-16 12:26:22.595478
-1,-1,0,-3,-2,-1,-3,-2,2021-08-16 12:26:22.608503
0,-2,0,-1,-1,-2,1,-1,2021-08-16 12:26:22.608503
0,0,-2,0,-2,-1,-2,1,2021-08-16 12:26:22.609478
2,0,-1,1,0,0,-1,-1,2021-08-16 12:26:22.609478
0,-1,1,0,1,0,0,-1,2021-08-16 12:26:22.631514
-1,-1,-1,0,-2,-1,-1,0,2021-08-16 12:26:22.632480
0,0,-2,-2,1,-2,-1,0,2021-08-16 12:26:22.632480
-2,-2,-1,-2,0,0,0,0,2021-08-16 12:26:22.632480
-2,-1,-2,0,1,-2,-1,0,2021-08-16 12:26:22.654477
-1,-1,0,-1,-1,0,-1,-1,2021-08-16 12:26:22.654477
0,0,-1,0,0,1,0,-2,2021-08-16 12:26:22.654477
-1,-2,-1,-2,-2,-1,-3,-1,2021-08-16 12:26:22.655477
-1,0,-1,-2,-2,0,1,0,2021-08-16 12:26:22.668504
-1,0,-1,0,0,0,-1,0,2021-08-16 12:26:22.668504
-1,-1,-1,0,-2,-1,-1,-2,2021-08-16 12:26:22.669478
-1,0,-1,-1,-1,-1,-1,-1,2021-08-16 12:26:22.669478
-3,-3,-1,-1,-1,-1,0,-2,2021-08-16 12:26:22.699477
0,-2,-1,-2,-2,0,-1,-1,2021-08-16 12:26:22.699477
0,-2,-1,1,-1,-1,-1,-1,2021-08-16 12:26:22.700479
-1,-1,-1,-1,-1,0,1,0,2021-08-16 12:26:22.700479
1,-2,1,1,0,-1,1,0,2021-08-16 12:26:22.714481
-3,-1,-1,-1,-1,-1,0,-2,2021-08-16 12:26:22.714481
-2,-2,-1,0,0,0,-1,-1,2021-08-16 12:26:22.715480
-2,1,-1,0,0,-1,-2,0,2021-08-16 12:26:22.715480
-1,0,0,-3,-2,-2,-2,-1,2021-08-16 12:26:22.728514
0,-1,-1,-1,0,0,-1,-1,2021-08-16 12:26:22.728514
0,-1,-2,-1,-2,-2,1,0,2021-08-16 12:26:22.729478
0,-2,-2,-1,-1,-2,-2,-1,2021-08-16 12:26:22.729478
0,-1,0,-1,-2,-1,-2,-2,2021-08-16 12:26:22.751505
1,-1,-2,1,1,-2,-1,0,2021-08-16 12:26:22.752477
-1,0,-2,-1,-1,1,-1,0,2021-08-16 12:26:22.752477
-3,-1,-2,-2,0,-1,0,-2,2021-08-16 12:26:22.752477
0,0,-1,-1,0,-1,-2,0,2021-08-16 12:26:22.774477
-2,0,1,2,-2,-2,-2,0,2021-08-16 12:26:22.774477
0,0,-2,-1,-1,0,-2,-1,2021-08-16 12:26:22.775477
0,-2,-1,-2,-2,-1,0,0,2021-08-16 12:26:22.775477
0,-1,-2,-1,-3,0,-2,-1,2021-08-16 12:26:22.788477
-1,-3,0,-2,-2,0,0,-1,2021-08-16 12:26:22.788477
0,-3,2,-1,-3,-2,1,0,2021-08-16 12:26:22.789478
-1,1,-1,1,-1,-2,-1,-2,2021-08-16 12:26:22.789478
1,0,-1,-2,0,0,0,1,2021-08-16 12:26:22.811477
1,0,-1,-1,-1,-1,-1,-1,2021-08-16 12:26:22.811477
-1,-1,0,1,-1,0,-1,-1,2021-08-16 12:26:22.812521
-1,0,-1,0,-2,-2,0,-2,2021-08-16 12:26:22.812521
-1,-2,-2,-1,1,0,-2,-1,2021-08-16 12:26:22.834478
-1,0,0,-2,0,-1,0,-1,2021-08-16 12:26:22.834478
-1,-1,0,-1,-1,-1,0,0,2021-08-16 12:26:22.835478
0,-1,0,-2,-1,0,-1,-1,2021-08-16 12:26:22.835478
-2,-1,0,1,0,-1,0,-1,2021-08-16 12:26:22.848512
-1,-3,-3,-1,-1,0,-1,0,2021-08-16 12:26:22.848512
-2,-1,-1,-1,-1,0,-2,0,2021-08-16 12:26:22.849514
-1,-1,0,1,-1,-2,0,0,2021-08-16 12:26:22.849514
-1,0,0,0,-2,-2,0,0,2021-08-16 12:26:22.871514
-2,-2,-1,0,-1,0,-1,-2,2021-08-16 12:26:22.872479
0,-1,-1,-1,-1,-2,0,0,2021-08-16 12:26:22.872479
-1,1,-1,-1,0,1,0,0,2021-08-16 12:26:22.872479
0,0,-1,-2,0,-2,0,-2,2021-08-16 12:26:22.894480
-2,-1,0,0,-1,-1,-3,0,2021-08-16 12:26:22.894480
-1,0,-2,0,-3,-1,-1,-2,2021-08-16 12:26:22.894480
-1,1,0,-1,0,-1,-1,-1,2021-08-16 12:26:22.895477
-2,-1,-1,-1,0,-1,-1,-1,2021-08-16 12:26:22.908478
-1,-2,0,-1,0,-2,1,-3,2021-08-16 12:26:22.908478
-2,-1,0,-2,0,-2,-1,-1,2021-08-16 12:26:22.909480
0,-1,0,-2,-2,1,-1,-1,2021-08-16 12:26:22.909480
0,-1,1,0,-2,-1,0,-1,2021-08-16 12:26:22.931503
-1,0,-1,-2,-1,-1,-2,1,2021-08-16 12:26:22.931503
-2,-2,-2,0,0,-2,0,-1,2021-08-16 12:26:22.933484
-1,-1,-3,0,-1,0,0,-1,2021-08-16 12:26:22.933484
-1,0,-2,-1,-2,0,1,-1,2021-08-16 12:26:22.954478
-1,1,-1,0,-2,-1,-1,-1,2021-08-16 12:26:22.954478
-1,0,-1,0,0,1,0,-1,2021-08-16 12:26:22.955478
0,-1,-2,1,-1,-1,-2,0,2021-08-16 12:26:22.956478
0,-2,-2,0,0,0,-2,0,2021-08-16 12:26:22.968477
-2,0,-2,-1,0,-2,1,1,2021-08-16 12:26:22.968477
-1,-1,-2,-1,-1,0,-2,-2,2021-08-16 12:26:22.976479
-1,-3,0,-1,-2,-2,0,-2,2021-08-16 12:26:22.977477
0,0,-1,0,-1,0,0,-1,2021-08-16 12:26:22.991522
-1,0,1,-2,-1,-1,-2,0,2021-08-16 12:26:22.992479
-2,-1,0,-2,0,-2,-1,-1,2021-08-16 12:26:22.993479
-1,-1,0,-1,-1,-1,0,-1,2021-08-16 12:26:22.993479
0,-1,1,-1,-1,-3,-3,-1,2021-08-16 12:26:23.021480
0,-2,-1,0,-2,-2,1,-1,2021-08-16 12:26:23.022478
0,-1,-1,-1,1,1,-2,-1,2021-08-16 12:26:23.023479
0,-1,0,0,0,1,-1,-2,2021-08-16 12:26:23.023479
-1,-1,-2,0,-1,-2,0,0,2021-08-16 12:26:23.027480
-1,0,-2,0,-1,-1,-1,-2,2021-08-16 12:26:23.028479
1,-2,-2,-3,-1,-1,0,-1,2021-08-16 12:26:23.036478
0,0,-2,0,-1,-3,-1,0,2021-08-16 12:26:23.037480
-1,-1,-1,-2,0,0,0,0,2021-08-16 12:26:23.051479
0,0,0,-1,0,-1,-2,-1,2021-08-16 12:26:23.051479
-1,0,-1,0,0,-2,0,0,2021-08-16 12:26:23.053495
0,-1,-1,-2,0,-1,-1,-2,2021-08-16 12:26:23.053495
0,-2,0,-1,0,0,-2,0,2021-08-16 12:26:23.074480
-2,-2,0,0,-1,0,0,-2,2021-08-16 12:26:23.074480
-1,-1,0,0,-3,0,-1,0,2021-08-16 12:26:23.075478
-2,0,0,0,0,-1,-1,0,2021-08-16 12:26:23.076478
-1,-1,0,1,-2,0,0,-1,2021-08-16 12:26:23.087477
-1,-2,-1,-1,-1,1,0,-1,2021-08-16 12:26:23.088478
-2,-1,0,-1,0,1,-2,1,2021-08-16 12:26:23.097479
-1,-3,-2,0,-1,0,0,2,2021-08-16 12:26:23.097479
-1,1,-1,-1,0,0,-2,-1,2021-08-16 12:26:23.111505
1,0,-1,-1,-1,0,-2,0,2021-08-16 12:26:23.112477
0,-1,0,0,-1,-3,-2,0,2021-08-16 12:26:23.113477
1,0,0,-2,1,-1,-1,-2,2021-08-16 12:26:23.113477
-2,-2,0,-1,0,-2,0,0,2021-08-16 12:26:23.134479
-2,-2,-2,-2,0,1,-1,0,2021-08-16 12:26:23.134479
-1,1,-1,-2,-2,0,0,-1,2021-08-16 12:26:23.135477
0,-1,0,-1,-2,-2,-1,-1,2021-08-16 12:26:23.136479
1,-1,-1,-2,0,0,-1,-1,2021-08-16 12:26:23.148478
-1,-1,-2,0,0,0,-1,0,2021-08-16 12:26:23.148478
-3,0,-2,-1,-1,0,-1,-2,2021-08-16 12:26:23.156477
0,-2,-2,1,-1,1,-1,0,2021-08-16 12:26:23.157478
-1,-1,-2,-1,0,0,-1,0,2021-08-16 12:26:23.171476
-2,-1,-1,1,0,-2,-2,0,2021-08-16 12:26:23.172477
0,-1,-1,0,0,-1,-1,-2,2021-08-16 12:26:23.173479
-1,0,0,-1,-1,-1,0,-1,2021-08-16 12:26:23.173479
-1,-1,0,-1,-1,-1,-2,-2,2021-08-16 12:26:23.194479
1,1,2,-1,0,0,0,1,2021-08-16 12:26:23.194479
1,-1,0,-2,0,-1,-2,0,2021-08-16 12:26:23.195477
-1,-2,-2,-2,0,-1,-1,0,2021-08-16 12:26:23.196481
-2,-2,-1,-2,-2,1,0,-4,2021-08-16 12:26:23.208477
-1,-2,0,-1,0,-1,-3,0,2021-08-16 12:26:23.208477
0,-1,-1,1,-2,-2,-1,0,2021-08-16 12:26:23.217479
-1,0,-2,-1,0,-1,-1,-1,2021-08-16 12:26:23.217479
0,-1,0,1,-1,0,-2,0,2021-08-16 12:26:23.231477
-1,1,-2,-1,-1,1,-1,-2,2021-08-16 12:26:23.231477
0,-1,-1,-2,1,-1,-1,0,2021-08-16 12:26:23.233496
-1,0,-2,-1,-1,-2,-2,0,2021-08-16 12:26:23.233496
-1,-1,-2,-1,1,-2,1,-1,2021-08-16 12:26:23.254480
-1,-1,-1,-1,-1,0,-3,0,2021-08-16 12:26:23.254480
-1,0,-2,-3,-1,0,-1,-1,2021-08-16 12:26:23.255480
-1,0,0,-1,0,-1,-1,-2,2021-08-16 12:26:23.256480
-2,0,1,-1,-1,-2,-1,0,2021-08-16 12:26:23.267491
0,-2,-2,-3,-1,-2,0,-2,2021-08-16 12:26:23.268479
-1,-2,1,-1,-1,-1,0,-2,2021-08-16 12:26:23.277476
0,-2,1,-1,0,0,0,-1,2021-08-16 12:26:23.277476
0,0,-1,1,1,-1,0,-1,2021-08-16 12:26:23.291517
0,-1,0,0,-1,-2,0,-1,2021-08-16 12:26:23.291517
0,-1,0,0,0,-1,0,-3,2021-08-16 12:26:23.293481
-1,0,0,-3,-1,-1,-1,-1,2021-08-16 12:26:23.293481
0,0,-1,-2,-1,-1,-1,0,2021-08-16 12:26:23.314478
1,-1,-3,-1,-1,-1,-1,-1,2021-08-16 12:26:23.314478
-2,0,-3,0,0,-1,0,-1,2021-08-16 12:26:23.316478
-2,-1,-1,0,-2,-1,-1,-1,2021-08-16 12:26:23.316478
-2,0,-2,-1,-2,-1,-2,2,2021-08-16 12:26:23.327477
-1,0,-1,-1,-2,-1,-2,-2,2021-08-16 12:26:23.328480
2,-1,-1,0,-1,-1,-2,-1,2021-08-16 12:26:23.336478
0,-1,-3,-1,0,2,-1,0,2021-08-16 12:26:23.337478
-1,-1,-2,-1,-1,0,-1,-3,2021-08-16 12:26:23.351477
-2,-1,0,0,0,0,0,0,2021-08-16 12:26:23.351477
-1,-1,0,0,0,0,-1,0,2021-08-16 12:26:23.353516
-1,-1,0,-1,-2,0,0,0,2021-08-16 12:26:23.353516
-1,-1,-2,-2,0,-2,0,-2,2021-08-16 12:26:23.374480
-1,0,-1,-2,-1,-1,0,1,2021-08-16 12:26:23.374480
-1,0,-2,-1,-1,-3,-1,0,2021-08-16 12:26:23.375503
0,-1,-1,0,0,-1,0,-1,2021-08-16 12:26:23.376480
-2,-1,-1,-1,0,-1,-1,0,2021-08-16 12:26:23.387478
0,0,1,0,0,0,-1,0,2021-08-16 12:26:23.388479
-1,-2,0,1,-2,-1,-1,-1,2021-08-16 12:26:23.396479
-2,-1,0,-1,-1,1,-1,0,2021-08-16 12:26:23.397478
0,-2,0,-1,-2,0,0,0,2021-08-16 12:26:23.411515
0,-1,0,-1,-1,-3,0,0,2021-08-16 12:26:23.411515
0,-1,-1,-2,0,0,-1,0,2021-08-16 12:26:23.413515
-2,0,-1,0,0,-2,0,-3,2021-08-16 12:26:23.413515
0,-1,-1,2,-1,-1,-1,-2,2021-08-16 12:26:23.434478
-2,-1,0,0,-1,1,-1,-1,2021-08-16 12:26:23.434478
-1,-2,0,-1,-3,0,-1,-2,2021-08-16 12:26:23.435495
0,-2,0,-1,-1,-1,1,-1,2021-08-16 12:26:23.436480
-1,-1,-1,-2,-2,-1,-2,1,2021-08-16 12:26:23.448479
-1,-1,-3,0,-1,-2,-1,0,2021-08-16 12:26:23.448479
-1,-1,-2,-2,0,0,-1,-1,2021-08-16 12:26:23.456480
0,0,-1,0,-1,0,-2,-2,2021-08-16 12:26:23.457478
-1,-2,1,0,-1,0,1,0,2021-08-16 12:26:23.471477
-1,-1,-1,0,0,1,-1,-1,2021-08-16 12:26:23.472478
-1,-3,0,0,-3,1,1,-1,2021-08-16 12:26:23.473516
-2,0,0,-1,-1,-1,-1,0,2021-08-16 12:26:23.473516
0,2,-1,0,0,-3,-2,-1,2021-08-16 12:26:23.494479
0,0,-1,-1,1,-1,-2,-1,2021-08-16 12:26:23.494479
-1,0,-1,0,0,-1,-1,0,2021-08-16 12:26:23.495477
-1,-2,-2,-1,0,-1,-1,0,2021-08-16 12:26:23.496477
-2,-2,-1,-4,0,1,1,-1,2021-08-16 12:26:23.516520
-2,-2,-2,-3,-1,-2,0,1,2021-08-16 12:26:23.516520
-1,0,-2,-3,-2,-2,-1,0,2021-08-16 12:26:23.518478
-1,0,-2,-1,-2,-2,0,1,2021-08-16 12:26:23.518478
-2,-3,1,-2,0,-1,-2,-1,2021-08-16 12:26:23.531476
0,-2,-1,-1,-1,-2,0,-3,2021-08-16 12:26:23.532477
0,0,-1,1,-1,0,-1,-2,2021-08-16 12:26:23.533515
-1,0,-1,-2,0,0,0,-1,2021-08-16 12:26:23.533515
-2,1,-1,0,0,0,0,0,2021-08-16 12:26:23.554479
0,-1,0,0,0,0,0,-2,2021-08-16 12:26:23.554479
-2,-1,-2,0,0,-1,0,-1,2021-08-16 12:26:23.555478
0,-1,-1,1,-2,0,-1,0,2021-08-16 12:26:23.556478
0,0,-1,-1,-1,1,-2,-2,2021-08-16 12:26:23.576504
-1,0,0,-1,-1,-1,-1,-1,2021-08-16 12:26:23.577476
-1,-3,0,-1,-1,-3,1,-1,2021-08-16 12:26:23.578477
0,-1,-1,-1,-2,0,0,-2,2021-08-16 12:26:23.578477
0,0,-1,0,-2,-1,0,1,2021-08-16 12:26:23.591477
-2,-1,-2,1,-2,0,-1,0,2021-08-16 12:26:23.591477
-2,0,-1,-1,0,-2,-2,0,2021-08-16 12:26:23.593513
-2,-1,-3,0,-1,-2,-2,-1,2021-08-16 12:26:23.593513
0,-3,-1,-1,-2,0,-2,0,2021-08-16 12:26:23.614479
-3,0,0,-3,-2,1,-1,1,2021-08-16 12:26:23.614479
-1,-1,-2,-1,-2,0,-1,-1,2021-08-16 12:26:23.615478
0,-3,0,0,-1,-2,0,0,2021-08-16 12:26:23.616479
-1,-1,-1,0,-1,-1,-1,-1,2021-08-16 12:26:23.636517
0,0,-1,1,0,-2,0,0,2021-08-16 12:26:23.637478
0,-1,0,-1,-1,1,0,-1,2021-08-16 12:26:23.638515
0,-2,-1,0,1,-2,-1,-1,2021-08-16 12:26:23.638515
-1,-1,-3,-2,-1,-4,0,-1,2021-08-16 12:26:23.651479
0,-1,-2,-1,-1,0,0,-1,2021-08-16 12:26:23.651479
-1,0,-1,-2,0,0,-1,0,2021-08-16 12:26:23.659525
-2,0,0,-1,-2,0,0,0,2021-08-16 12:26:23.659525
-2,-2,-1,0,-1,-1,0,1,2021-08-16 12:26:23.674477
-1,-2,-1,-1,-1,-2,-2,-3,2021-08-16 12:26:23.674477
-2,-1,-1,-1,0,-2,-2,-1,2021-08-16 12:26:23.675479
-2,-2,1,-2,-2,0,-2,-1,2021-08-16 12:26:23.675479
0,-2,-1,-2,-2,-2,-2,-4,2021-08-16 12:26:23.696506
1,-1,0,-2,-2,0,-1,0,2021-08-16 12:26:23.697478
0,-2,-2,0,0,0,0,1,2021-08-16 12:26:23.698477
0,0,-2,0,-2,0,-2,1,2021-08-16 12:26:23.698477
-2,-2,0,-2,0,-1,0,-1,2021-08-16 12:26:23.711505
0,-1,0,-2,-1,-1,-1,0,2021-08-16 12:26:23.711505
0,1,-1,-2,-2,-1,-1,-1,2021-08-16 12:26:23.717478
0,0,0,-2,-1,-1,0,-2,2021-08-16 12:26:23.718477
0,1,0,1,-2,-1,0,-1,2021-08-16 12:26:23.734479
-1,-2,-2,0,1,-1,0,-1,2021-08-16 12:26:23.734479
0,-1,-1,0,0,0,-1,-1,2021-08-16 12:26:23.736478
0,-2,0,-2,-1,-1,0,-1,2021-08-16 12:26:23.736478
-1,-1,0,0,0,1,-3,0,2021-08-16 12:26:23.756477
-1,-2,-1,-1,-1,0,-1,0,2021-08-16 12:26:23.756477
1,0,-1,-2,0,-1,0,-2,2021-08-16 12:26:23.758479
-1,-1,-1,0,0,-1,0,-1,2021-08-16 12:26:23.758479
-1,-1,0,-1,-1,-1,0,-2,2021-08-16 12:26:23.771480
-1,-1,-1,1,-1,-3,0,-1,2021-08-16 12:26:23.771480
-2,-1,0,-1,-1,-2,-1,1,2021-08-16 12:26:23.777506
0,-2,-1,-1,0,0,-1,0,2021-08-16 12:26:23.778478
0,0,-1,-2,-2,-1,0,0,2021-08-16 12:26:23.794480
0,-2,0,-3,0,0,-1,-2,2021-08-16 12:26:23.794480
-1,0,0,-1,-1,-1,-1,-1,2021-08-16 12:26:23.795480
-1,0,-1,-1,-2,0,0,-1,2021-08-16 12:26:23.796477
-2,-1,0,0,0,0,-2,0,2021-08-16 12:26:23.816514
0,0,1,-1,-2,-2,-3,0,2021-08-16 12:26:23.817479
-1,-1,0,0,-1,-1,-1,1,2021-08-16 12:26:23.818480
1,-1,-1,1,0,-1,0,-1,2021-08-16 12:26:23.818480
-1,-1,-1,-1,-2,0,0,-2,2021-08-16 12:26:23.831492
-1,0,-2,-1,-2,0,-1,-1,2021-08-16 12:26:23.831492
0,0,0,-2,0,-1,-1,0,2021-08-16 12:26:23.837514
-2,-1,-1,-2,-1,0,0,0,2021-08-16 12:26:23.838478
0,0,-1,-1,0,0,0,-1,2021-08-16 12:26:23.853994
-3,-1,-1,-1,-1,0,-1,-2,2021-08-16 12:26:23.853994
0,-2,0,-2,0,-1,-1,0,2021-08-16 12:26:23.856021
0,-1,-1,1,-1,-2,-1,-2,2021-08-16 12:26:23.856021
-1,0,0,-1,-1,-1,-1,0,2021-08-16 12:26:23.876991
-2,0,-1,-1,-1,-1,0,-1,2021-08-16 12:26:23.876991
0,-2,-2,1,-1,-2,-1,-1,2021-08-16 12:26:23.877992
-2,0,1,-1,0,-1,1,0,2021-08-16 12:26:23.878993
-1,-2,-3,0,2,-1,-1,-1,2021-08-16 12:26:23.890991
0,-1,-1,-1,-2,-1,-2,-1,2021-08-16 12:26:23.890991
-2,-1,-1,-2,0,-1,-1,-1,2021-08-16 12:26:23.897991
1,-1,-1,0,0,-3,0,0,2021-08-16 12:26:23.897991
-1,-1,-1,-1,-2,-1,-2,-2,2021-08-16 12:26:23.914036
-1,-1,0,1,-1,-2,0,-1,2021-08-16 12:26:23.914036
-2,0,-1,0,-2,1,0,0,2021-08-16 12:26:23.915993
-1,0,-2,-1,-1,-1,-2,0,2021-08-16 12:26:23.915993
0,0,-1,-1,-2,1,-3,0,2021-08-16 12:26:23.936993
-1,-2,-2,0,1,-3,-1,0,2021-08-16 12:26:23.936993
-1,0,-2,-1,-2,0,0,-3,2021-08-16 12:26:23.937994
0,-1,0,-2,-1,0,0,0,2021-08-16 12:26:23.938992
-2,-1,-3,-2,-2,-2,0,-1,2021-08-16 12:26:23.951017
0,0,-1,-2,0,-1,-1,-3,2021-08-16 12:26:23.951017
-1,-1,-1,2,0,0,-1,0,2021-08-16 12:26:23.958014
-1,-1,-1,-1,1,-1,-2,-2,2021-08-16 12:26:23.958014
1,0,-1,-1,-1,-2,-1,-1,2021-08-16 12:26:23.974018
1,0,-1,0,-1,-1,1,1,2021-08-16 12:26:23.974993
-1,0,0,-3,-1,0,0,0,2021-08-16 12:26:23.976019
1,-1,-2,-1,-1,0,-2,-1,2021-08-16 12:26:23.976019
-1,-1,0,1,-1,0,-1,0,2021-08-16 12:26:23.996990
-1,0,-3,-2,-1,0,-1,0,2021-08-16 12:26:23.996990
1,1,-1,-1,-2,-2,-1,-1,2021-08-16 12:26:23.997990
-1,-1,-1,0,-1,-1,-1,-2,2021-08-16 12:26:23.997990
0,-1,-1,-1,0,-2,0,0,2021-08-16 12:26:24.009992
-1,-2,1,1,0,-1,0,0,2021-08-16 12:26:24.010994
-1,-1,-1,-2,0,-1,-1,-1,2021-08-16 12:26:24.019991
-2,-1,0,-1,-2,-2,-2,-2,2021-08-16 12:26:24.019991
0,-1,-2,-2,0,-2,0,0,2021-08-16 12:26:24.033992
0,-1,0,-1,-2,-1,0,0,2021-08-16 12:26:24.034995
-1,-1,0,-1,0,-2,-2,-1,2021-08-16 12:26:24.035992
-1,-1,0,-1,-1,-1,-1,0,2021-08-16 12:26:24.035992
-2,-1,-2,-1,0,-2,1,-1,2021-08-16 12:26:24.056993
-1,0,-1,-2,-2,-1,-2,-1,2021-08-16 12:26:24.056993
-1,-2,-1,-2,-2,-1,0,-3,2021-08-16 12:26:24.057991
0,0,-2,-1,-3,0,-2,-1,2021-08-16 12:26:24.057991
-1,-1,-1,-1,0,-1,-1,-1,2021-08-16 12:26:24.070017
0,0,-1,-1,-1,-1,-1,0,2021-08-16 12:26:24.070993
1,0,-1,-1,-1,-2,0,-2,2021-08-16 12:26:24.078993
0,-1,-2,-3,0,-1,0,-1,2021-08-16 12:26:24.078993
0,-1,-1,-1,-2,1,-1,0,2021-08-16 12:26:24.094020
-1,-2,-2,0,-2,0,0,0,2021-08-16 12:26:24.094020
-1,0,-2,-1,-1,-1,1,1,2021-08-16 12:26:24.095991
-3,0,-1,0,-1,-1,-1,-1,2021-08-16 12:26:24.095991
0,0,0,-1,-1,-1,-1,-3,2021-08-16 12:26:24.116992
-1,-1,0,-2,0,1,-2,-1,2021-08-16 12:26:24.116992
-1,-1,-2,0,-3,0,-2,0,2021-08-16 12:26:24.117991
-2,-1,-1,-1,-1,-2,-1,-1,2021-08-16 12:26:24.118992
-3,-1,0,-1,2,-1,-1,-2,2021-08-16 12:26:24.129991
-1,0,0,0,0,0,-2,-1,2021-08-16 12:26:24.130994
-2,-1,0,-1,0,-1,-1,-1,2021-08-16 12:26:24.138992
-1,-1,0,0,-1,1,0,2,2021-08-16 12:26:24.139992
0,0,0,-1,0,-1,-1,-2,2021-08-16 12:26:24.154018
0,0,-2,0,-1,-2,0,-3,2021-08-16 12:26:24.154018
0,-2,0,-2,-1,-1,-2,-2,2021-08-16 12:26:24.155995
-2,0,-1,0,-1,0,-1,-1,2021-08-16 12:26:24.155995
0,-1,0,1,-1,-2,-1,0,2021-08-16 12:26:24.176993
-1,-2,-2,-1,0,-2,-2,0,2021-08-16 12:26:24.176993
-1,-1,-1,0,-1,0,0,-1,2021-08-16 12:26:24.178991
-1,-1,-1,0,0,-1,0,-1,2021-08-16 12:26:24.178991
-1,-1,-1,0,-1,0,1,-3,2021-08-16 12:26:24.190022
-1,0,0,0,-1,0,0,-2,2021-08-16 12:26:24.190992
-1,0,0,-2,0,0,-4,0,2021-08-16 12:26:24.198992
0,-1,-1,-2,0,-1,0,0,2021-08-16 12:26:24.199992
0,0,0,0,-1,-1,-1,0,2021-08-16 12:26:24.214020
-1,-3,-2,0,1,-1,0,0,2021-08-16 12:26:24.214020
-2,-1,-1,0,0,-1,-1,-1,2021-08-16 12:26:24.216005
2,0,-1,-2,-1,0,-1,-1,2021-08-16 12:26:24.216005
-1,-2,-1,-1,-1,0,-3,-1,2021-08-16 12:26:24.236993
-1,1,-2,0,-1,-1,-3,0,2021-08-16 12:26:24.236993
-1,-2,-1,1,-1,-1,-1,-1,2021-08-16 12:26:24.237991
-1,0,0,-1,-1,1,-1,-1,2021-08-16 12:26:24.237991
0,-1,-2,0,-1,0,-1,0,2021-08-16 12:26:24.250029
0,-1,0,-1,-1,0,-2,0,2021-08-16 12:26:24.250994
-1,0,-2,-1,0,-1,0,-1,2021-08-16 12:26:24.258992
1,-2,-1,-1,-2,-1,-1,0,2021-08-16 12:26:24.258992
-2,-2,-1,0,-1,-1,-1,-1,2021-08-16 12:26:24.274077
-2,-1,0,0,-2,-1,0,-1,2021-08-16 12:26:24.274077
-1,-1,-1,-1,-1,-2,-1,-1,2021-08-16 12:26:24.276053
-1,-2,0,1,0,-1,-1,0,2021-08-16 12:26:24.276053
-1,0,0,-1,-1,-1,1,0,2021-08-16 12:26:24.297041
0,-1,-1,-1,0,-2,-1,0,2021-08-16 12:26:24.297041
0,-1,-3,-1,-2,0,-1,0,2021-08-16 12:26:24.298039
0,0,1,0,-1,-1,-2,-1,2021-08-16 12:26:24.298039
-1,-2,-2,-1,1,0,-2,-1,2021-08-16 12:26:24.310065
1,0,-1,-2,-2,0,-2,-1,2021-08-16 12:26:24.311040
-1,0,-1,-1,0,0,0,0,2021-08-16 12:26:24.326041
0,-2,-2,0,1,-1,0,0,2021-08-16 12:26:24.326041
-1,0,0,0,0,-1,-1,-1,2021-08-16 12:26:24.334065
-1,-2,1,0,-1,-1,0,0,2021-08-16 12:26:24.334065
-1,0,0,-1,0,0,0,0,2021-08-16 12:26:24.336041
-1,1,-1,-1,-1,-3,0,0,2021-08-16 12:26:24.336041
-1,1,1,-2,0,-1,-1,-2,2021-08-16 12:26:24.357039
0,-2,-1,-3,0,-1,-1,0,2021-08-16 12:26:24.357039
0,-1,0,1,-1,0,-1,-1,2021-08-16 12:26:24.358040
0,0,-3,0,1,-1,0,-1,2021-08-16 12:26:24.359042
-1,0,-1,0,0,-2,0,1,2021-08-16 12:26:24.370080
-1,0,0,-1,-1,-1,-1,0,2021-08-16 12:26:24.371040
1,-2,-1,-1,-1,-2,-1,-1,2021-08-16 12:26:24.379040
-1,0,-1,0,-1,-1,0,-1,2021-08-16 12:26:24.380042
-1,-1,-2,-2,0,-1,-1,-1,2021-08-16 12:26:24.402040
-1,0,0,-1,1,-1,0,-3,2021-08-16 12:26:24.402040
-3,-1,0,-1,-1,-1,0,1,2021-08-16 12:26:24.403042
-1,-1,0,-1,-1,0,0,0,2021-08-16 12:26:24.403042
0,0,-2,0,0,-1,-1,1,2021-08-16 12:26:24.417039
-2,0,-2,-1,0,-1,-1,0,2021-08-16 12:26:24.417039
0,-1,-1,0,-2,-1,-2,-2,2021-08-16 12:26:24.423044
0,-2,-1,-1,-1,-1,0,-1,2021-08-16 12:26:24.423044
0,-1,0,-1,-3,-1,0,0,2021-08-16 12:26:24.430041
-1,-1,-1,-1,-2,-2,0,-2,2021-08-16 12:26:24.430041
-2,0,0,0,0,-1,0,-2,2021-08-16 12:26:24.445066
-2,-1,-1,0,-1,-1,-1,0,2021-08-16 12:26:24.446041
-1,-1,1,-2,0,-2,0,-1,2021-08-16 12:26:24.454065
-1,-1,-1,1,-1,-1,-2,0,2021-08-16 12:26:24.454065
-1,0,-3,-3,0,1,-2,0,2021-08-16 12:26:24.456039
-1,-1,0,-1,-1,0,-1,0,2021-08-16 12:26:24.456039
-2,-1,-2,-2,-2,0,-2,-1,2021-08-16 12:26:24.477041
-1,0,-2,0,-3,0,-1,1,2021-08-16 12:26:24.477041
0,-1,-1,-2,0,0,0,-2,2021-08-16 12:26:24.478039
-1,-1,0,-1,-1,-2,-1,-2,2021-08-16 12:26:24.478039
-1,0,0,0,0,0,-2,-3,2021-08-16 12:26:24.499040
1,0,-1,-1,0,1,-1,0,2021-08-16 12:26:24.500040
-2,-2,0,0,-2,-1,-1,-2,2021-08-16 12:26:24.501039
-2,-3,-2,0,-2,0,0,0,2021-08-16 12:26:24.501039
-2,-1,-1,1,-1,-1,-2,-1,2021-08-16 12:26:24.514076
-3,-1,-1,-2,-1,-1,-1,-1,2021-08-16 12:26:24.515040
-1,-1,-1,-2,0,0,0,0,2021-08-16 12:26:24.516039
-1,-1,-1,0,-1,1,-1,-2,2021-08-16 12:26:24.516039
0,-1,-2,-1,-1,-2,-1,0,2021-08-16 12:26:24.537042
-2,-1,-2,-2,-1,-1,0,0,2021-08-16 12:26:24.537042
-1,-1,-1,1,-2,-2,0,0,2021-08-16 12:26:24.538077
0,-1,-2,-1,0,0,-1,-1,2021-08-16 12:26:24.538077
-1,-1,-2,-2,0,-1,-2,-1,2021-08-16 12:26:24.559082
1,1,-1,0,0,0,-1,-2,2021-08-16 12:26:24.559082
-2,1,-2,0,0,-1,-1,-1,2021-08-16 12:26:24.561040
-1,-1,-1,1,1,-1,0,-2,2021-08-16 12:26:24.561040
-1,-2,-2,0,-3,1,-1,-2,2021-08-16 12:26:24.574066
-2,-3,-2,0,-1,-1,-1,-2,2021-08-16 12:26:24.574066
0,-3,-1,-1,-2,0,0,0,2021-08-16 12:26:24.580042
-1,-1,0,-3,-2,-1,-1,0,2021-08-16 12:26:24.581041
-1,0,-3,-2,0,-1,2,0,2021-08-16 12:26:24.597041
0,-1,1,-1,-1,1,-2,-1,2021-08-16 12:26:24.597041
-1,0,-1,-1,-2,-2,-2,-1,2021-08-16 12:26:24.598040
-1,-2,-2,-1,-1,-2,-1,-1,2021-08-16 12:26:24.599038
0,-2,-1,-1,-1,-1,-2,-2,2021-08-16 12:26:24.619039
0,0,-1,0,0,0,-2,-2,2021-08-16 12:26:24.619039
-1,0,0,-1,-1,-1,-2,-2,2021-08-16 12:26:24.621040
-1,0,1,-2,0,-1,-1,-1,2021-08-16 12:26:24.621040
-2,1,0,-1,-1,-1,0,-1,2021-08-16 12:26:24.634043
-1,-2,-1,-1,-2,-1,0,-1,2021-08-16 12:26:24.634043
-1,-1,-2,-2,-1,-3,-1,-2,2021-08-16 12:26:24.641040
-2,-1,-1,0,-3,-1,-1,-1,2021-08-16 12:26:24.641040
0,-1,-1,1,-1,0,1,0,2021-08-16 12:26:24.657042
0,-1,0,-1,-1,-1,0,-2,2021-08-16 12:26:24.657042
0,-2,0,1,0,1,0,-1,2021-08-16 12:26:24.659041
-1,1,-2,1,0,-1,-2,-1,2021-08-16 12:26:24.659041
-2,-2,-1,-2,-1,-1,1,0,2021-08-16 12:26:24.679079
-2,-1,-1,-1,0,-1,0,-1,2021-08-16 12:26:24.679079
-1,0,0,1,0,0,-1,-1,2021-08-16 12:26:24.681042
0,0,0,-1,0,-1,-1,-2,2021-08-16 12:26:24.681042
-1,-1,0,0,-1,0,0,-1,2021-08-16 12:26:24.694039
-1,-1,-1,-1,-1,-2,-1,0,2021-08-16 12:26:24.694039
0,-1,-1,-2,-1,-1,-1,-1,2021-08-16 12:26:24.700066
-2,0,0,-2,1,-1,-3,-2,2021-08-16 12:26:24.701040
-1,-2,-1,-2,-1,-1,-2,-3,2021-08-16 12:26:24.717041
0,0,-1,-1,0,0,0,-2,2021-08-16 12:26:24.717041
-2,-1,-1,0,-1,-2,-1,0,2021-08-16 12:26:24.718040
0,-3,-1,0,-1,-1,-1,-1,2021-08-16 12:26:24.718040
-1,-1,-1,-1,0,-1,0,0,2021-08-16 12:26:24.747042
-1,-1,0,-1,-3,-1,-2,-1,2021-08-16 12:26:24.747042
0,-1,-1,-1,-1,0,-1,1,2021-08-16 12:26:24.748040
0,-1,-1,-2,-1,0,0,0,2021-08-16 12:26:24.748040
0,1,-2,0,0,1,-1,-1,2021-08-16 12:26:24.754039
-2,-3,-3,0,0,-1,-1,0,2021-08-16 12:26:24.754039
-1,-1,-1,1,0,0,-1,-1,2021-08-16 12:26:24.760039
0,-1,-1,0,-1,-1,1,-1,2021-08-16 12:26:24.761041
-2,-2,-1,0,-3,-2,-1,-1,2021-08-16 12:26:24.777042
0,-2,0,0,-1,0,-1,0,2021-08-16 12:26:24.777042
0,0,0,-2,0,-1,0,-1,2021-08-16 12:26:24.778040
-2,-1,-1,-1,-1,-1,-1,-1,2021-08-16 12:26:24.779040
0,1,-1,0,2,-1,-1,-1,2021-08-16 12:26:24.799065
-1,0,-1,0,0,-2,0,1,2021-08-16 12:26:24.799065
-2,-1,-2,-2,-1,-2,-1,-2,2021-08-16 12:26:24.801040
0,-1,-2,-2,-1,-1,-1,-1,2021-08-16 12:26:24.801040
0,-2,-2,-1,-3,0,-2,-1,2021-08-16 12:26:24.814039
-1,-2,-2,-1,0,-3,-1,-4,2021-08-16 12:26:24.814039
-2,-2,-1,-1,1,1,-2,0,2021-08-16 12:26:24.820065
-3,-2,-1,0,0,-1,-1,1,2021-08-16 12:26:24.821039
0,0,0,-1,1,-2,-1,-2,2021-08-16 12:26:24.837080
-2,0,0,-1,0,-2,-1,0,2021-08-16 12:26:24.838041
0,0,-2,-2,-1,-1,1,0,2021-08-16 12:26:24.839040
0,0,-2,-1,-2,-1,-1,-1,2021-08-16 12:26:24.839040
0,-1,0,0,-1,0,-2,-1,2021-08-16 12:26:24.859041
0,-1,-1,-1,-1,0,-2,-2,2021-08-16 12:26:24.859041
-2,-1,0,-1,-1,-2,0,-1,2021-08-16 12:26:24.861041
-2,0,-1,-2,-2,0,0,-1,2021-08-16 12:26:24.861041
-2,0,-1,-1,0,-2,0,-1,2021-08-16 12:26:24.874040
1,-1,-1,0,0,0,-1,0,2021-08-16 12:26:24.874040
-1,-1,-1,0,0,-1,-1,-1,2021-08-16 12:26:24.880041
0,-1,-3,0,0,-1,-1,-2,2021-08-16 12:26:24.880041
0,-1,0,-1,-1,0,0,1,2021-08-16 12:26:24.897041
-1,1,-1,-2,-1,0,0,0,2021-08-16 12:26:24.897041
0,1,-1,-2,-3,0,-1,-1,2021-08-16 12:26:24.898039
-1,-1,0,0,-2,-2,-1,0,2021-08-16 12:26:24.898039
-1,1,0,-1,-1,-1,1,-1,2021-08-16 12:26:24.919040
-1,-2,-2,0,-1,-1,-1,0,2021-08-16 12:26:24.919040
-1,0,0,-1,-2,0,0,-2,2021-08-16 12:26:24.921048
1,-2,0,-2,0,1,0,1,2021-08-16 12:26:24.921048
0,-1,0,-1,-1,-1,-1,0,2021-08-16 12:26:24.934039
0,0,0,-1,0,0,0,-2,2021-08-16 12:26:24.934039
0,-2,-2,-1,0,-1,-1,0,2021-08-16 12:26:24.941039
0,0,-1,-1,-1,-2,-2,-2,2021-08-16 12:26:24.941039
-2,-1,-2,0,1,0,-1,-1,2021-08-16 12:26:24.957041
0,0,-3,-3,-2,0,0,0,2021-08-16 12:26:24.957041
1,-1,-2,0,0,-1,0,-1,2021-08-16 12:26:24.958040
-2,0,-2,-1,0,-3,0,-1,2021-08-16 12:26:24.959041
-1,-1,-1,-1,-2,0,-1,1,2021-08-16 12:26:24.979065
-1,-2,0,-1,-1,-1,-1,-1,2021-08-16 12:26:24.980040
-2,-1,-1,1,-1,-3,-2,0,2021-08-16 12:26:24.981040
0,1,0,-1,-3,0,-1,0,2021-08-16 12:26:24.981040
-1,-2,-2,-1,-2,0,-3,-1,2021-08-16 12:26:24.993039
0,0,1,0,0,0,-2,0,2021-08-16 12:26:24.993039
0,0,0,-1,0,-1,-2,1,2021-08-16 12:26:25.002077
0,-1,0,-1,0,-2,-2,-2,2021-08-16 12:26:25.002077
-1,-1,-2,-1,0,-1,0,0,2021-08-16 12:26:25.017042
-1,-1,-1,-2,0,0,-1,-1,2021-08-16 12:26:25.017042
-1,-1,-1,-1,-1,1,-1,0,2021-08-16 12:26:25.018040
-3,-1,-1,-1,-1,-1,0,0,2021-08-16 12:26:25.018040
-2,0,0,1,0,1,1,0,2021-08-16 12:26:25.039039
-1,-2,-2,0,-1,-1,-1,1,2021-08-16 12:26:25.040040
-1,-2,1,-2,-1,-1,0,0,2021-08-16 12:26:25.041066
1,-1,0,-1,0,0,0,-1,2021-08-16 12:26:25.041066
0,0,0,0,-3,-3,0,-1,2021-08-16 12:26:25.053040
-1,-1,-2,0,1,-1,-2,1,2021-08-16 12:26:25.053040
-1,0,-1,1,-1,-1,1,-1,2021-08-16 12:26:25.062077
0,-1,-2,-2,0,0,-1,0,2021-08-16 12:26:25.062077
0,0,0,-2,-1,-1,-1,0,2021-08-16 12:26:25.077039
0,-1,0,0,-1,-1,1,-2,2021-08-16 12:26:25.077039
-1,-1,0,0,-1,-2,-2,0,2021-08-16 12:26:25.078039
-1,-2,-1,0,-1,-2,0,-1,2021-08-16 12:26:25.078039
0,0,0,-2,1,-1,-2,-3,2021-08-16 12:26:25.099076
0,-1,-2,-2,-2,1,-2,0,2021-08-16 12:26:25.100040
-1,0,-1,-2,-1,0,-1,-1,2021-08-16 12:26:25.101040
0,0,-1,0,1,-2,-1,-1,2021-08-16 12:26:25.101040
-2,-3,0,-1,-1,-1,-2,-1,2021-08-16 12:26:25.113038
0,-1,0,0,-1,-2,0,-2,2021-08-16 12:26:25.113038
0,-2,-1,-1,-1,-2,-2,-1,2021-08-16 12:26:25.122041
-2,0,1,-2,-1,0,-2,-1,2021-08-16 12:26:25.122041
1,-2,-1,0,-1,1,-1,-1,2021-08-16 12:26:25.137041
-1,0,-1,-2,-1,-3,-1,-1,2021-08-16 12:26:25.137041
0,0,-1,1,-1,-1,0,-1,2021-08-16 12:26:25.138040
-1,-2,-1,1,0,-1,-2,0,2021-08-16 12:26:25.139040
-1,0,-2,0,-1,0,-1,1,2021-08-16 12:26:25.159076
-1,-1,1,-1,-2,0,0,0,2021-08-16 12:26:25.159076
1,-1,-1,-3,-1,-2,-1,-1,2021-08-16 12:26:25.161040
1,0,-2,-3,-1,-1,-3,-2,2021-08-16 12:26:25.161040
-2,0,0,-2,-1,-3,0,0,2021-08-16 12:26:25.173038
-1,0,-2,1,-1,0,0,-2,2021-08-16 12:26:25.173038
-1,0,-1,-2,-1,0,-1,0,2021-08-16 12:26:25.182039
-1,-1,0,-1,-1,-2,0,0,2021-08-16 12:26:25.182039
-1,-1,-2,-1,-1,1,-2,-1,2021-08-16 12:26:25.197042
-2,-1,-2,-1,-1,0,-1,1,2021-08-16 12:26:25.197042
-1,-1,0,0,0,0,-1,-1,2021-08-16 12:26:25.198038
-1,-2,-1,-1,0,-1,1,-1,2021-08-16 12:26:25.198038
0,-2,-2,-1,-1,-3,-1,-1,2021-08-16 12:26:25.219076
0,-1,1,-1,1,-2,0,-1,2021-08-16 12:26:25.219076
-2,-2,-1,-1,-1,1,0,-1,2021-08-16 12:26:25.221040
0,-1,0,0,-1,0,-1,-1,2021-08-16 12:26:25.221040
-1,-1,-1,-2,0,0,0,-1,2021-08-16 12:26:25.233038
0,0,-1,0,-2,1,-1,-1,2021-08-16 12:26:25.233038
0,-1,-1,-1,-2,-1,-1,0,2021-08-16 12:26:25.242041
1,-2,-1,1,0,-1,-1,-2,2021-08-16 12:26:25.242041
-1,-1,1,-2,0,0,-2,0,2021-08-16 12:26:25.257038
-3,0,0,-2,-1,-1,0,1,2021-08-16 12:26:25.257038
-1,0,-3,-2,1,-2,-1,-1,2021-08-16 12:26:25.258042
-1,-1,-1,0,-2,-2,-1,-2,2021-08-16 12:26:25.258042
-1,1,-3,-2,-1,-1,0,0,2021-08-16 12:26:25.279065
-1,-3,0,-1,-1,-2,0,-1,2021-08-16 12:26:25.279065
0,-1,0,-2,-1,0,0,-1,2021-08-16 12:26:25.281039
-2,0,-2,0,-2,-1,-1,1,2021-08-16 12:26:25.281039
-1,-2,-2,0,-1,-1,-1,0,2021-08-16 12:26:25.293039
-1,-1,0,0,0,-1,-1,-1,2021-08-16 12:26:25.293039
-1,-1,0,1,0,-1,-1,-2,2021-08-16 12:26:25.302039
-1,-1,1,-2,0,1,-1,-2,2021-08-16 12:26:25.302039
0,-1,0,-1,-2,0,0,-1,2021-08-16 12:26:25.317040
0,-2,-1,1,-1,1,-2,-1,2021-08-16 12:26:25.317040
0,0,0,0,-2,1,-1,-1,2021-08-16 12:26:25.318039
-1,-1,0,1,-1,-2,-1,-1,2021-08-16 12:26:25.319039
-1,-2,-1,1,0,-1,-1,-1,2021-08-16 12:26:25.340039
-2,-1,-1,-2,-1,0,-1,-2,2021-08-16 12:26:25.340039
-1,0,0,0,1,-1,0,-1,2021-08-16 12:26:25.341040
-1,-1,0,-1,0,-1,-1,0,2021-08-16 12:26:25.342042
1,-1,0,0,-2,-2,-1,1,2021-08-16 12:26:25.362042
-2,-1,-3,-4,-1,-1,-2,-1,2021-08-16 12:26:25.362042
-1,-2,-1,-1,-1,-2,-2,0,2021-08-16 12:26:25.363041
-2,-3,0,-1,-1,-1,0,-2,2021-08-16 12:26:25.364041
-1,1,0,0,-1,0,1,-1,2021-08-16 12:26:25.377039
-1,-1,-2,-1,-1,-2,0,-1,2021-08-16 12:26:25.377039
0,-1,-2,-2,-2,-1,-1,0,2021-08-16 12:26:25.378042
1,0,-1,-2,1,-1,-1,0,2021-08-16 12:26:25.379039
1,-3,0,-2,-2,-1,0,0,2021-08-16 12:26:25.399078
-1,0,0,-1,-2,-1,0,-1,2021-08-16 12:26:25.400040
-2,0,-2,-1,-2,-2,-1,0,2021-08-16 12:26:25.401039
0,0,-2,0,0,0,-1,-1,2021-08-16 12:26:25.401039
-2,-1,-2,-1,-1,-2,-3,0,2021-08-16 12:26:25.422039
0,-1,0,0,-1,0,-1,0,2021-08-16 12:26:25.422039
-1,-1,0,-1,-1,0,1,-1,2021-08-16 12:26:25.423041
0,-1,-1,-1,-1,0,2,1,2021-08-16 12:26:25.424043
-1,-1,-2,0,0,-1,0,0,2021-08-16 12:26:25.437041
0,0,0,-2,1,0,-1,0,2021-08-16 12:26:25.437041
1,-1,-2,-1,-2,0,0,-2,2021-08-16 12:26:25.438041
0,0,-1,1,0,1,0,-1,2021-08-16 12:26:25.438041
1,-1,1,-1,-1,0,0,-1,2021-08-16 12:26:25.459088
-2,-1,-1,0,-2,-1,1,-2,2021-08-16 12:26:25.460040
-1,-1,-1,-2,0,-2,-1,-1,2021-08-16 12:26:25.461041
-1,-1,-1,-1,-2,-1,-1,1,2021-08-16 12:26:25.461041
-1,-1,-2,-1,0,-2,-1,-4,2021-08-16 12:26:25.482041
-1,0,-1,0,0,-1,0,-1,2021-08-16 12:26:25.482041
-2,-1,-2,1,0,0,-1,0,2021-08-16 12:26:25.483041
-2,-1,0,-1,-2,-1,-2,-2,2021-08-16 12:26:25.484039
0,0,-1,-3,0,-1,-1,-1,2021-08-16 12:26:25.497040
-1,0,0,-3,1,-1,0,-2,2021-08-16 12:26:25.497040
0,-1,0,0,0,-1,-1,-1,2021-08-16 12:26:25.498040
-3,-1,-1,-3,-2,-1,0,-1,2021-08-16 12:26:25.498040
0,-1,1,0,-1,0,-1,-1,2021-08-16 12:26:25.519065
0,-1,0,0,-1,0,-2,-1,2021-08-16 12:26:25.519065
0,-1,0,1,1,-1,-1,0,2021-08-16 12:26:25.521039
0,0,-2,-1,0,-2,-1,-1,2021-08-16 12:26:25.521039
-2,1,-2,-1,-2,-1,-1,-2,2021-08-16 12:26:25.542042
-1,-1,1,1,-1,-2,-1,2,2021-08-16 12:26:25.542042
-1,-1,-1,0,-2,-1,0,-1,2021-08-16 12:26:25.543042
-2,-1,1,-1,-2,-1,-2,-1,2021-08-16 12:26:25.544039
-3,0,-1,0,-2,0,-1,-2,2021-08-16 12:26:25.556041
0,-1,-1,-1,1,0,-3,-1,2021-08-16 12:26:25.556041
-1,0,-1,-2,-2,-1,-2,-2,2021-08-16 12:26:25.563039
1,-1,-1,1,0,-1,-2,-2,2021-08-16 12:26:25.563039
-1,-2,-1,0,0,-1,-1,-1,2021-08-16 12:26:25.579076
-2,-1,-2,-1,-2,-2,0,-1,2021-08-16 12:26:25.579076
0,-3,-2,-3,0,1,0,0,2021-08-16 12:26:25.581039
-1,-1,-2,-3,-2,0,0,-1,2021-08-16 12:26:25.581039
-1,-1,-1,0,0,-2,0,-3,2021-08-16 12:26:25.602041
-1,-3,-1,0,-2,-1,1,0,2021-08-16 12:26:25.602041
-1,-2,1,-1,0,-1,-1,1,2021-08-16 12:26:25.603040
-1,-1,0,-1,-1,-1,-2,-2,2021-08-16 12:26:25.603040
-2,-1,-2,-1,-3,0,-2,0,2021-08-16 12:26:25.616039
0,-1,0,-1,-1,-1,-2,-2,2021-08-16 12:26:25.616039
-1,0,0,0,-1,-1,1,0,2021-08-16 12:26:25.623074
-1,-1,-1,0,2,-2,-1,-1,2021-08-16 12:26:25.623074
-1,-1,-1,-1,-1,-2,0,1,2021-08-16 12:26:25.639041
-1,0,-2,0,-1,-1,0,-1,2021-08-16 12:26:25.640040
-1,-1,-1,-1,0,-1,-1,0,2021-08-16 12:26:25.641062
-1,1,1,-1,0,-1,-2,-2,2021-08-16 12:26:25.641062
-1,-1,-1,0,0,-1,0,1,2021-08-16 12:26:25.662041
0,0,0,-1,0,0,0,-1,2021-08-16 12:26:25.662041
-2,-1,0,-1,-2,0,-2,-1,2021-08-16 12:26:25.663041
0,-3,-2,0,-1,0,0,0,2021-08-16 12:26:25.663041
-1,-1,-1,-2,-2,0,-3,-1,2021-08-16 12:26:25.676041
0,0,-1,0,-1,-1,1,0,2021-08-16 12:26:25.676041
0,0,0,-2,1,0,2,0,2021-08-16 12:26:25.684039
-3,-2,-2,-1,0,0,1,0,2021-08-16 12:26:25.685041
0,-1,1,0,-1,-1,0,-1,2021-08-16 12:26:25.699038
0,0,0,0,-1,0,-1,0,2021-08-16 12:26:25.699038
0,0,0,0,0,0,-1,-3,2021-08-16 12:26:25.701040
0,-1,-1,-1,-1,-2,-1,1,2021-08-16 12:26:25.701040
-1,-2,-2,-2,-1,-2,0,-1,2021-08-16 12:26:25.722041
-2,-3,-1,-1,-1,-1,-1,0,2021-08-16 12:26:25.722041
-1,0,0,0,-1,-1,-1,-2,2021-08-16 12:26:25.723042
-1,-1,-1,-2,-2,0,-1,-1,2021-08-16 12:26:25.724041
0,-2,-1,1,1,0,-1,-2,2021-08-16 12:26:25.736041
-1,-1,-1,-2,0,-2,-1,-2,2021-08-16 12:26:25.736041
-1,0,-1,-2,-2,-1,0,0,2021-08-16 12:26:25.743040
-1,0,0,-1,0,-1,1,0,2021-08-16 12:26:25.743040
-2,1,0,-2,0,-2,0,-1,2021-08-16 12:26:25.759039
1,0,-1,-2,0,1,0,-1,2021-08-16 12:26:25.759039
-2,-1,-2,-2,0,-3,-1,0,2021-08-16 12:26:25.761039
-1,-1,-1,-2,-2,1,-1,0,2021-08-16 12:26:25.761039
-1,-1,-1,-2,-2,-1,1,0,2021-08-16 12:26:25.782039
-2,-1,-1,1,-2,-1,-1,-1,2021-08-16 12:26:25.782039
0,0,-2,0,-1,-2,-1,-1,2021-08-16 12:26:25.783040
0,-1,0,0,-1,-2,-1,-2,2021-08-16 12:26:25.784040
-1,-1,0,-1,1,0,-2,0,2021-08-16 12:26:25.796074
-1,0,-1,1,0,0,-1,0,2021-08-16 12:26:25.796074
-2,-2,1,-2,-1,0,0,-1,2021-08-16 12:26:25.803040
-2,0,0,-1,0,0,-2,0,2021-08-16 12:26:25.803040
1,-1,0,-1,-3,-2,-1,0,2021-08-16 12:26:25.819064
0,-2,-1,0,0,-2,-1,0,2021-08-16 12:26:25.820040
0,1,-2,0,-1,1,-1,0,2021-08-16 12:26:25.821039
-1,-1,-1,0,-1,-2,-1,0,2021-08-16 12:26:25.821039
-2,0,-2,0,0,-1,-2,-1,2021-08-16 12:26:25.842038
-2,0,-2,-1,0,-2,-1,-1,2021-08-16 12:26:25.842038
-1,-2,0,-1,-1,-2,-1,0,2021-08-16 12:26:25.843040
-2,0,0,0,0,-1,0,-1,2021-08-16 12:26:25.844038
1,0,0,-2,0,0,-1,-2,2021-08-16 12:26:25.856042
0,-3,0,-1,0,-2,-1,0,2021-08-16 12:26:25.857041
-1,-2,1,0,0,-1,-1,0,2021-08-16 12:26:25.870038
-1,-1,-2,-2,0,-2,-1,-1,2021-08-16 12:26:25.870038
-1,1,-1,0,-1,0,1,-1,2021-08-16 12:26:25.879076
0,-1,-2,-1,0,0,-1,-1,2021-08-16 12:26:25.880043
-1,-1,-1,-1,-1,-1,0,-2,2021-08-16 12:26:25.881041
0,-2,-1,0,-1,-1,-1,-1,2021-08-16 12:26:25.881041
0,-1,0,0,-1,-2,-1,0,2021-08-16 12:26:25.902042
-1,-1,1,-2,0,-1,-3,-2,2021-08-16 12:26:25.902042
-2,-2,-3,-1,0,1,-1,1,2021-08-16 12:26:25.903042
-1,-1,-2,0,0,-2,-1,-1,2021-08-16 12:26:25.904042
0,-1,-1,-2,-1,0,-1,-2,2021-08-16 12:26:25.915065
-1,-1,0,-1,-1,-1,0,-2,2021-08-16 12:26:25.916039
1,-1,-1,0,-2,-1,0,-2,2021-08-16 12:26:25.924039
1,0,0,-1,0,0,-1,-1,2021-08-16 12:26:25.925040
-1,-2,-1,-1,-2,-1,-1,0,2021-08-16 12:26:25.939041
-1,-1,-1,-1,-2,-1,-1,0,2021-08-16 12:26:25.940040
-1,-2,-2,-1,0,-1,-2,-1,2021-08-16 12:26:25.941053
-1,0,-2,-2,-2,-1,-1,0,2021-08-16 12:26:25.941053
-2,-2,0,0,1,-1,0,-1,2021-08-16 12:26:25.962041
-1,0,0,-1,-2,-1,-1,0,2021-08-16 12:26:25.962041
1,-1,-1,-1,1,-1,-2,-3,2021-08-16 12:26:25.963050
0,-1,0,1,-1,0,0,-1,2021-08-16 12:26:25.964040
-1,1,-1,0,-2,1,-1,0,2021-08-16 12:26:25.976039
0,1,-2,-2,0,0,0,-1,2021-08-16 12:26:25.976039
-1,-2,0,-2,-1,-1,0,-2,2021-08-16 12:26:25.984042
-1,-2,0,0,-1,-2,-1,-1,2021-08-16 12:26:25.984042
-1,-1,-3,-3,-1,-1,-2,0,2021-08-16 12:26:25.998040
1,-2,-2,0,-1,-1,-2,0,2021-08-16 12:26:25.998040
-1,0,-2,0,-1,0,-1,0,2021-08-16 12:26:26.007047
-1,-1,0,-1,0,-1,0,-1,2021-08-16 12:26:26.007047
0,-1,0,0,-1,-1,1,-1,2021-08-16 12:26:26.022041
-3,-2,-1,-1,1,-2,1,-1,2021-08-16 12:26:26.022041
-1,-1,-2,-2,0,-1,-1,-1,2021-08-16 12:26:26.023041
-1,-2,0,1,-1,0,-3,-1,2021-08-16 12:26:26.024041
1,-1,0,0,0,-1,-1,-1,2021-08-16 12:26:26.035065
-1,-2,-1,-1,-1,0,-1,0,2021-08-16 12:26:26.036039
-2,0,0,-1,-1,-2,-1,-1,2021-08-16 12:26:26.052047
0,0,-1,-1,-2,1,0,0,2021-08-16 12:26:26.052047
-1,-1,0,-1,-1,0,0,0,2021-08-16 12:26:26.059067
-1,1,-1,-2,-1,0,-1,-2,2021-08-16 12:26:26.059067
-1,-1,-1,-1,-1,-1,2,-1,2021-08-16 12:26:26.065065
0,-1,-1,-1,-1,-1,0,-1,2021-08-16 12:26:26.066041
-1,-2,0,1,-2,0,-1,-3,2021-08-16 12:26:26.082039
0,0,0,-1,0,0,0,-1,2021-08-16 12:26:26.082039
-2,2,0,-1,-2,-1,-2,0,2021-08-16 12:26:26.083042
0,-1,-1,-1,0,-1,0,0,2021-08-16 12:26:26.083042
-2,0,-1,-1,1,-2,-1,0,2021-08-16 12:26:26.095065
0,-2,-1,0,-1,-1,0,-1,2021-08-16 12:26:26.096039
-2,0,0,0,0,-1,-1,0,2021-08-16 12:26:26.104040
1,0,0,-2,-2,0,-2,-2,2021-08-16 12:26:26.105043
0,-1,1,0,-1,0,0,-1,2021-08-16 12:26:26.119039
-1,0,-1,0,-1,1,-3,-1,2021-08-16 12:26:26.120039
-1,-1,-3,1,-3,0,1,0,2021-08-16 12:26:26.121041
-1,-1,-1,1,1,-3,0,-1,2021-08-16 12:26:26.121041
0,1,0,1,-1,-2,0,-1,2021-08-16 12:26:26.142042
-1,-1,0,-1,-2,-1,0,1,2021-08-16 12:26:26.142042
-1,-3,-2,0,0,1,-2,-1,2021-08-16 12:26:26.143040
-1,-2,-3,-1,-2,0,-2,2,2021-08-16 12:26:26.144040
0,0,-4,-1,0,-2,-1,-2,2021-08-16 12:26:26.155040
-1,-2,-1,-1,-2,-3,-1,-1,2021-08-16 12:26:26.156041
1,0,-1,0,-1,-1,-1,0,2021-08-16 12:26:26.164039
0,0,-2,-2,0,0,0,-2,2021-08-16 12:26:26.165040
-3,-2,0,-3,-1,-2,-1,-1,2021-08-16 12:26:26.179066
-1,0,-1,0,-1,-1,1,-1,2021-08-16 12:26:26.179066
0,-1,-1,-1,0,0,-1,-1,2021-08-16 12:26:26.181041
-2,-1,0,-2,0,-3,0,-2,2021-08-16 12:26:26.181041
0,-1,-1,-1,-2,1,-1,-1,2021-08-16 12:26:26.202041
-2,-1,-1,-1,0,-1,-2,-1,2021-08-16 12:26:26.202041
0,0,0,-1,-1,0,-1,-1,2021-08-16 12:26:26.203039
-2,0,-2,-1,-2,-2,0,0,2021-08-16 12:26:26.203039
-2,0,-2,-4,0,0,-2,-2,2021-08-16 12:26:26.215069
1,-1,1,-2,-1,-1,0,-1,2021-08-16 12:26:26.216039
-2,-1,-2,-1,-1,0,-1,0,2021-08-16 12:26:26.224068
0,-1,-2,0,-1,0,-1,0,2021-08-16 12:26:26.225040
-1,-1,-2,0,-1,0,-1,0,2021-08-16 12:26:26.239042
-1,-1,-1,0,-1,-1,-2,0,2021-08-16 12:26:26.240039
-1,-2,1,0,1,-1,-1,-2,2021-08-16 12:26:26.241039
-1,-2,0,-1,0,-1,-1,-4,2021-08-16 12:26:26.241039
-1,-1,-1,0,-1,-1,-1,0,2021-08-16 12:26:26.262041
-2,0,-2,0,-2,0,0,0,2021-08-16 12:26:26.262041
1,-1,-1,-2,-2,-2,-1,-1,2021-08-16 12:26:26.263039
-2,-2,-1,-2,-1,-1,-1,0,2021-08-16 12:26:26.263039
0,-2,-1,0,-1,0,-1,-2,2021-08-16 12:26:26.275039
0,-1,-2,-2,0,-1,0,0,2021-08-16 12:26:26.276042
-1,0,-1,0,0,-1,-2,-1,2021-08-16 12:26:26.284073
0,1,0,-1,0,1,-1,1,2021-08-16 12:26:26.284073
1,-2,-2,0,0,0,0,-1,2021-08-16 12:26:26.299068
-2,-1,-1,0,0,-1,-2,-1,2021-08-16 12:26:26.300040
0,-2,-1,0,-2,-2,1,-1,2021-08-16 12:26:26.301048
-1,0,-1,-3,-1,-2,-1,0,2021-08-16 12:26:26.301048
-2,-1,0,1,-2,-1,0,-1,2021-08-16 12:26:26.322040
-1,0,-2,-1,-1,0,-1,-2,2021-08-16 12:26:26.322040
0,0,-2,-3,-1,0,0,0,2021-08-16 12:26:26.323041
0,-1,-1,0,1,-1,0,-1,2021-08-16 12:26:26.323041
-1,0,0,-1,-3,-1,-1,0,2021-08-16 12:26:26.352042
0,-1,-1,-1,-2,0,-1,1,2021-08-16 12:26:26.352042
0,0,0,0,-2,-2,0,0,2021-08-16 12:26:26.353040
1,1,-1,0,-2,-2,-2,-1,2021-08-16 12:26:26.354040
-1,1,1,-1,-1,-1,-1,0,2021-08-16 12:26:26.359069
0,0,0,1,0,-1,0,-1,2021-08-16 12:26:26.360042
-1,-1,-1,0,-1,-1,0,-1,2021-08-16 12:26:26.361039
0,-2,-2,1,-1,1,-1,0,2021-08-16 12:26:26.361039
-2,-1,-3,-2,0,-1,0,-1,2021-08-16 12:26:26.382041
-2,-1,0,-1,-1,0,0,-2,2021-08-16 12:26:26.382041
-2,-2,-1,1,0,-1,0,-3,2021-08-16 12:26:26.383042
-2,1,-2,-1,0,1,0,0,2021-08-16 12:26:26.383042
0,-1,-1,-1,0,-1,-1,-1,2021-08-16 12:26:26.404076
-2,-1,0,-2,-2,-2,0,0,2021-08-16 12:26:26.405041
-2,-1,0,-3,-1,-1,0,-1,2021-08-16 12:26:26.406040
0,-1,-2,-1,-1,-2,-1,0,2021-08-16 12:26:26.406040
0,-1,1,0,0,0,0,0,2021-08-16 12:26:26.419039
-1,0,0,-1,-3,-2,0,-2,2021-08-16 12:26:26.420039
-1,0,0,1,-1,0,0,0,2021-08-16 12:26:26.421039
-1,-1,0,2,-1,-2,-1,-1,2021-08-16 12:26:26.421039
-1,-1,-2,-2,-1,0,-2,0,2021-08-16 12:26:26.442042
1,-1,-1,0,0,0,-1,1,2021-08-16 12:26:26.442042
0,-1,0,0,-2,0,-1,1,2021-08-16 12:26:26.443042
-1,-2,-1,-2,-1,-1,-2,-1,2021-08-16 12:26:26.443042
0,0,-1,-1,-1,-1,-1,-1,2021-08-16 12:26:26.464066
-2,0,-1,0,1,-2,-1,0,2021-08-16 12:26:26.465040
-1,0,-3,-2,-1,0,0,-1,2021-08-16 12:26:26.466040
-1,-2,0,-1,-1,-1,-1,-1,2021-08-16 12:26:26.466040
-1,0,-1,-4,-2,-2,-1,-1,2021-08-16 12:26:26.479077
1,-1,-2,-2,0,0,-1,1,2021-08-16 12:26:26.479077
0,0,-1,-2,-1,-1,0,-1,2021-08-16 12:26:26.481040
-2,-1,1,-2,0,-2,-1,-3,2021-08-16 12:26:26.481040
0,0,-2,0,0,-1,0,1,2021-08-16 12:26:26.509066
0,-2,1,0,-1,0,-1,0,2021-08-16 12:26:26.510040
-2,0,-1,0,0,-1,-1,0,2021-08-16 12:26:26.511040
0,-1,0,0,0,0,0,-1,2021-08-16 12:26:26.511040
-1,-1,-2,0,0,-1,-1,-2,2021-08-16 12:26:26.524038
-2,0,-2,-1,-1,1,2,0,2021-08-16 12:26:26.524038
0,-2,-2,0,-2,-2,-1,-2,2021-08-16 12:26:26.526039
-2,0,0,-1,0,0,-2,1,2021-08-16 12:26:26.526039
-1,-1,0,0,0,-1,-1,0,2021-08-16 12:26:26.539040
-1,0,0,-1,0,-1,-1,-1,2021-08-16 12:26:26.539040
0,-1,-1,1,-1,0,-1,0,2021-08-16 12:26:26.545066
-1,-1,-2,-2,-1,-1,0,-2,2021-08-16 12:26:26.546039
-1,-2,0,-1,-3,-1,0,1,2021-08-16 12:26:26.562042
-1,-1,-2,-1,-2,0,0,-2,2021-08-16 12:26:26.562042
-2,-3,0,-1,-1,-1,-1,0,2021-08-16 12:26:26.563040
0,-1,-3,-3,-1,0,-1,1,2021-08-16 12:26:26.564040
0,-1,-1,1,0,2,0,-1,2021-08-16 12:26:26.584039
-1,-1,0,0,-1,-1,-2,0,2021-08-16 12:26:26.584039
0,0,-1,-2,-1,-2,-1,0,2021-08-16 12:26:26.584039
-2,1,0,0,-1,-1,-1,-2,2021-08-16 12:26:26.584039
0,-2,0,-1,-2,-2,-2,-1,2021-08-16 12:26:26.598069
-1,0,0,-1,-1,1,-1,0,2021-08-16 12:26:26.598069
-2,0,-2,-1,-1,1,-1,-1,2021-08-16 12:26:26.606067
-2,-1,0,0,0,0,-1,0,2021-08-16 12:26:26.606067
-1,-1,0,-3,-2,-1,1,-1,2021-08-16 12:26:26.621039
0,-2,-2,-2,0,-1,1,-2,2021-08-16 12:26:26.621039
1,-2,-1,-1,-2,-3,-2,1,2021-08-16 12:26:26.622044
-2,-1,-1,0,-3,0,0,-1,2021-08-16 12:26:26.622044
-2,1,-2,0,0,-2,-2,1,2021-08-16 12:26:26.644039
-2,1,0,-1,0,-1,-1,-1,2021-08-16 12:26:26.644039
-1,-1,0,0,1,0,-1,1,2021-08-16 12:26:26.644039
0,-1,-1,-2,-1,0,0,0,2021-08-16 12:26:26.645040
0,0,-2,1,0,-2,0,-1,2021-08-16 12:26:26.658039
1,-1,-2,-1,-1,-1,-1,-1,2021-08-16 12:26:26.658039
-2,0,1,0,0,2,-1,-1,2021-08-16 12:26:26.666066
0,-1,-1,-2,-1,0,0,-3,2021-08-16 12:26:26.666066
-3,0,0,0,0,1,1,0,2021-08-16 12:26:26.681065
-2,0,0,-1,-1,-1,0,-2,2021-08-16 12:26:26.681065
-2,0,-2,1,0,-2,-2,-1,2021-08-16 12:26:26.682039
-1,0,-1,-1,-1,-1,-1,0,2021-08-16 12:26:26.682039
0,-2,1,-2,-2,-1,-1,-1,2021-08-16 12:26:26.704043
-1,0,-3,-1,-2,0,-1,-1,2021-08-16 12:26:26.704043
0,0,-1,-1,0,-1,0,-1,2021-08-16 12:26:26.704043
-2,0,-1,-1,0,-1,-1,-2,2021-08-16 12:26:26.704043
0,-1,-1,0,0,-1,0,-2,2021-08-16 12:26:26.718046
-1,-1,-1,1,0,-2,0,-1,2021-08-16 12:26:26.718046
0,-1,-2,-2,0,0,-1,-2,2021-08-16 12:26:26.726066
-1,0,-1,0,-1,-1,-2,-1,2021-08-16 12:26:26.726066
0,-2,0,-2,-1,0,-1,-1,2021-08-16 12:26:26.741039
0,-1,0,1,1,-1,-2,0,2021-08-16 12:26:26.741039
-1,0,0,-2,1,1,2,-1,2021-08-16 12:26:26.742039
-1,0,-1,-1,-1,-1,-1,-1,2021-08-16 12:26:26.742039
0,-3,-2,0,0,-3,-1,-2,2021-08-16 12:26:26.764040
-2,0,0,-1,-2,0,-1,0,2021-08-16 12:26:26.764040
-3,0,0,0,-2,-1,-1,-1,2021-08-16 12:26:26.764040
-1,-2,-1,-1,0,-1,-1,-1,2021-08-16 12:26:26.764040
0,0,-1,-4,-2,0,-1,0,2021-08-16 12:26:26.778039
-1,-2,-2,-3,0,-2,-1,0,2021-08-16 12:26:26.778039
-1,0,-1,-2,1,-1,-2,0,2021-08-16 12:26:26.794039
0,-1,-1,-1,0,-1,0,0,2021-08-16 12:26:26.794039
-2,0,-2,-1,0,0,-2,0,2021-08-16 12:26:26.803042
-3,-2,0,0,-1,-1,-2,-1,2021-08-16 12:26:26.803042
-2,-2,1,-1,-2,-1,0,0,2021-08-16 12:26:26.803042
-1,0,0,1,-1,0,0,-2,2021-08-16 12:26:26.803042
-2,1,-1,-1,-1,0,-2,-1,2021-08-16 12:26:26.824039
-1,0,-1,-1,-2,-1,-1,-1,2021-08-16 12:26:26.824039
0,-2,-2,-1,0,-2,-1,-3,2021-08-16 12:26:26.824039
0,0,-1,0,-1,-2,0,0,2021-08-16 12:26:26.825040
-1,-1,0,0,0,0,-1,-2,2021-08-16 12:26:26.838069
1,-1,-2,0,0,-2,0,0,2021-08-16 12:26:26.838069
-2,0,-2,-1,-2,-1,-1,-2,2021-08-16 12:26:26.846065
-1,0,-2,-1,-1,0,-1,0,2021-08-16 12:26:26.846065
-2,-1,-2,0,-1,0,-1,-1,2021-08-16 12:26:26.861040
-3,-1,-1,-3,-2,-1,-1,-1,2021-08-16 12:26:26.861040
0,0,1,0,-1,-1,-1,-2,2021-08-16 12:26:26.862042
-2,-1,0,-2,-2,-1,0,-1,2021-08-16 12:26:26.862042
-2,0,-1,0,-1,-2,0,0,2021-08-16 12:26:26.884039
1,0,-2,-2,0,0,-1,-2,2021-08-16 12:26:26.884039
0,0,0,-1,-1,0,0,-1,2021-08-16 12:26:26.884039
0,0,0,-2,-1,0,0,-1,2021-08-16 12:26:26.885042
-1,0,0,-1,-2,-1,0,-1,2021-08-16 12:26:26.899041
-1,-2,-1,-1,0,-1,-1,0,2021-08-16 12:26:26.899041
-3,0,-1,-3,0,0,-1,-1,2021-08-16 12:26:26.899041
-1,0,-1,-1,-1,-1,-3,0,2021-08-16 12:26:26.900039
-1,-1,-1,-1,1,1,-2,-1,2021-08-16 12:26:26.921039
0,0,-1,-1,0,0,-2,0,2021-08-16 12:26:26.921039
1,-1,-1,0,-1,-3,0,0,2021-08-16 12:26:26.922042
0,-2,-1,-1,-3,0,0,0,2021-08-16 12:26:26.922042
-1,0,-2,-1,-1,-1,0,-2,2021-08-16 12:26:26.944039
-2,-1,-1,-1,-2,-1,0,-2,2021-08-16 12:26:26.944039
-1,-1,-1,1,-1,-1,-1,-2,2021-08-16 12:26:26.944039
-2,-2,1,0,-1,-1,0,-1,2021-08-16 12:26:26.944039
0,-2,0,-1,-2,0,-1,0,2021-08-16 12:26:26.958039
-1,0,-2,1,-2,0,-1,-1,2021-08-16 12:26:26.958039
0,0,-1,-1,-2,1,-1,1,2021-08-16 12:26:26.966039
-1,1,0,-1,-1,-1,-2,-2,2021-08-16 12:26:26.966039
1,-1,0,1,0,-1,0,0,2021-08-16 12:26:26.981039
0,-1,0,-2,0,1,0,-1,2021-08-16 12:26:26.981039
-1,-2,1,1,1,-1,0,0,2021-08-16 12:26:26.982040
2,0,-3,-1,-1,-1,-1,-2,2021-08-16 12:26:26.982040
-1,0,-2,-2,-1,-2,1,-1,2021-08-16 12:26:27.004039
0,0,0,0,-3,-1,-1,-2,2021-08-16 12:26:27.004039
-2,-1,-1,-2,-2,-1,-3,0,2021-08-16 12:26:27.004039
0,0,-1,0,-2,-1,-2,0,2021-08-16 12:26:27.004039
-1,-1,-2,0,-2,-1,1,0,2021-08-16 12:26:27.018041
-2,-1,-1,0,0,-2,-2,-2,2021-08-16 12:26:27.018041
-2,0,-1,-1,-1,-1,-1,-1,2021-08-16 12:26:27.026040
-2,-1,-1,-4,0,0,-1,0,2021-08-16 12:26:27.026040
1,-1,-1,-1,-1,-1,0,0,2021-08-16 12:26:27.041039
0,1,0,0,1,-2,0,-1,2021-08-16 12:26:27.041039
1,-2,0,0,0,0,0,-1,2021-08-16 12:26:27.042040
-1,-1,0,1,-2,0,-4,0,2021-08-16 12:26:27.042040
0,0,-1,0,-2,0,-1,-2,2021-08-16 12:26:27.064039
-2,-3,0,-2,-1,0,1,0,2021-08-16 12:26:27.064039
-1,-1,-2,-2,0,0,0,-1,2021-08-16 12:26:27.064039
0,-2,-2,0,-1,-4,0,0,2021-08-16 12:26:27.065040
-3,-3,-1,0,-2,0,0,-2,2021-08-16 12:26:27.079039
0,-2,0,0,-1,-1,0,0,2021-08-16 12:26:27.080039
0,1,-1,1,0,-1,0,-1,2021-08-16 12:26:27.086039
0,-1,0,1,-1,-1,1,0,2021-08-16 12:26:27.086039
-2,0,0,0,0,0,-2,-2,2021-08-16 12:26:27.109038
-2,-1,-1,-1,-2,0,-2,0,2021-08-16 12:26:27.110039
0,-3,-2,0,-2,-2,-1,2,2021-08-16 12:26:27.110039
-1,-1,-2,-1,-2,-1,-1,-1,2021-08-16 12:26:27.110039
1,-2,0,0,0,1,-1,-1,2021-08-16 12:26:27.124041
-1,0,-2,-1,0,0,-1,-3,2021-08-16 12:26:27.124041
0,-1,-2,0,-2,-1,0,0,2021-08-16 12:26:27.124041
1,-1,0,0,1,0,-2,-1,2021-08-16 12:26:27.124041
0,-2,1,-2,0,-1,-2,-1,2021-08-16 12:26:27.138054
1,0,-1,-1,-1,-1,0,-3,2021-08-16 12:26:27.138054
0,0,0,-1,0,0,-1,-1,2021-08-16 12:26:27.146077
-1,-1,-1,0,-1,-2,1,-1,2021-08-16 12:26:27.146077
-1,0,-1,1,-1,-2,0,0,2021-08-16 12:26:27.161078
-1,-1,-1,0,1,0,-3,-2,2021-08-16 12:26:27.161078
0,1,0,-1,-2,0,0,-2,2021-08-16 12:26:27.162044
0,0,0,-2,-1,0,1,-1,2021-08-16 12:26:27.162044
-2,-1,-2,-2,0,-2,0,1,2021-08-16 12:26:27.184040
-1,0,0,1,0,0,-1,1,2021-08-16 12:26:27.184040
-1,0,0,0,-2,-1,-2,-2,2021-08-16 12:26:27.184040
-1,-1,1,-1,0,1,-2,-1,2021-08-16 12:26:27.184040
-1,0,0,-2,0,0,1,-2,2021-08-16 12:26:27.198041
-1,-1,0,-3,0,0,1,-1,2021-08-16 12:26:27.198041
-1,-1,0,-1,-1,0,-1,-3,2021-08-16 12:26:27.206077
-1,-1,1,-1,-2,-2,-1,-1,2021-08-16 12:26:27.206077
-2,0,1,1,2,-1,-2,-2,2021-08-16 12:26:27.221076
0,0,-2,0,-1,-1,2,1,2021-08-16 12:26:27.221076
-1,0,-3,0,-1,0,-1,0,2021-08-16 12:26:27.222040
-1,-1,-2,-3,-1,-1,0,-3,2021-08-16 12:26:27.222040
0,0,-2,-2,-1,0,-2,0,2021-08-16 12:26:27.244040
-1,0,1,1,0,-1,-2,-2,2021-08-16 12:26:27.244040
-1,-2,-3,0,0,-2,0,1,2021-08-16 12:26:27.244040
-2,-1,-3,-1,-1,-1,0,1,2021-08-16 12:26:27.244040
0,0,1,-1,-1,0,-2,0,2021-08-16 12:26:27.258077
0,-2,-1,-3,-1,0,0,0,2021-08-16 12:26:27.258077
-2,-1,0,0,-1,-1,0,-2,2021-08-16 12:26:27.266079
-1,-1,-1,0,0,0,-1,-1,2021-08-16 12:26:27.266079
0,0,1,1,-2,-1,-2,-1,2021-08-16 12:26:27.281076
-1,-1,-1,0,0,0,-2,-1,2021-08-16 12:26:27.281076
1,-2,1,-4,0,-1,-2,0,2021-08-16 12:26:27.282040
0,-1,1,-1,-1,0,-2,-1,2021-08-16 12:26:27.282040
-1,0,0,-2,0,1,0,0,2021-08-16 12:26:27.304040
0,1,-3,0,-1,1,-2,0,2021-08-16 12:26:27.304040
-1,-1,-2,-1,-1,-1,-1,-1,2021-08-16 12:26:27.304040
-1,-1,-1,-1,0,0,-1,-1,2021-08-16 12:26:27.304040
0,-2,-1,0,0,-2,0,1,2021-08-16 12:26:27.327040
-1,0,-2,0,-2,-2,-1,-2,2021-08-16 12:26:27.327040
0,-1,-1,0,0,-1,-2,-1,2021-08-16 12:26:27.328040
0,-1,-1,0,-2,-2,-1,-2,2021-08-16 12:26:27.328040
-1,-1,0,-1,0,0,1,0,2021-08-16 12:26:27.341082
-1,-3,-2,-2,-1,1,0,0,2021-08-16 12:26:27.341082
0,-1,-2,-1,-1,0,-2,-2,2021-08-16 12:26:27.342040
1,-1,-1,0,-1,-1,2,1,2021-08-16 12:26:27.342040
0,-2,-1,-1,-2,-3,-1,-2,2021-08-16 12:26:27.363082
1,0,0,-1,-1,0,0,0,2021-08-16 12:26:27.364039
-1,-1,-1,0,-1,-2,-2,-1,2021-08-16 12:26:27.364039
-1,-1,0,1,-2,-2,-1,-2,2021-08-16 12:26:27.364039
-2,-1,-2,-1,-2,-2,0,0,2021-08-16 12:26:27.394078
-2,-2,-1,-1,0,-1,-2,0,2021-08-16 12:26:27.394078
-2,-2,-1,0,-1,0,1,0,2021-08-16 12:26:27.395042
-1,0,1,-2,-1,0,0,1,2021-08-16 12:26:27.395042
1,0,0,0,-2,-1,-2,-1,2021-08-16 12:26:27.401077
0,0,-1,-4,-1,-1,-1,0,2021-08-16 12:26:27.401077
0,-1,0,-1,1,-1,0,0,2021-08-16 12:26:27.402040
0,0,-2,-1,-1,-1,-1,-1,2021-08-16 12:26:27.402040
-1,-2,-1,-2,-1,0,-1,-4,2021-08-16 12:26:27.424039
-1,-3,0,-2,0,0,0,1,2021-08-16 12:26:27.424039
-2,0,0,0,-1,-1,0,-1,2021-08-16 12:26:27.424039
-2,-1,-3,-1,0,1,-2,0,2021-08-16 12:26:27.424039
0,0,-1,0,1,0,-1,0,2021-08-16 12:26:27.447041
0,-1,0,1,-2,-1,-2,-2,2021-08-16 12:26:27.447041
-2,-1,-1,-2,-1,0,-1,1,2021-08-16 12:26:27.448041
-1,-1,0,-2,0,-2,-2,0,2021-08-16 12:26:27.448041
-3,0,-1,-2,0,0,-1,-1,2021-08-16 12:26:27.461077
-3,-2,1,-1,-1,-1,1,0,2021-08-16 12:26:27.461077
0,-1,0,-2,-1,-1,0,0,2021-08-16 12:26:27.462042
-1,0,0,-1,-1,-2,-2,-2,2021-08-16 12:26:27.462042
1,0,-4,-1,0,0,-2,0,2021-08-16 12:26:27.484039
-1,0,1,-1,-1,-2,-3,-2,2021-08-16 12:26:27.484039
0,-1,-1,0,-2,-1,-2,-1,2021-08-16 12:26:27.484039
-1,0,1,0,0,-2,0,-1,2021-08-16 12:26:27.484039
-1,-3,-1,-1,1,0,-2,0,2021-08-16 12:26:27.507041
-2,-1,-2,0,-1,0,0,-1,2021-08-16 12:26:27.507041
-1,0,-2,0,-1,-1,0,-2,2021-08-16 12:26:27.508040
-1,-3,1,0,-1,0,0,-1,2021-08-16 12:26:27.508040
-3,-1,-1,1,-2,-2,0,-1,2021-08-16 12:26:27.521082
1,0,0,-2,1,-1,-2,-1,2021-08-16 12:26:27.521082
0,-1,-2,-1,-2,-2,-1,1,2021-08-16 12:26:27.522042
0,0,-1,-2,-1,-1,0,-1,2021-08-16 12:26:27.522042
0,0,1,-1,-1,-2,-2,0,2021-08-16 12:26:27.544039
1,-1,0,-1,-2,0,0,-1,2021-08-16 12:26:27.544039
-2,-1,0,0,1,0,-2,0,2021-08-16 12:26:27.544039
0,0,-2,-2,0,-1,-2,-1,2021-08-16 12:26:27.545038
-1,-1,-1,0,-2,-2,-1,0,2021-08-16 12:26:27.567041
0,0,-2,-1,-1,-3,-1,-1,2021-08-16 12:26:27.567041
0,-2,0,1,0,1,-2,-2,2021-08-16 12:26:27.567041
0,-2,-1,-1,0,-1,0,-2,2021-08-16 12:26:27.568042
0,1,0,1,-1,-1,-1,-1,2021-08-16 12:26:27.581076
0,-1,-1,-1,-1,-1,-1,-2,2021-08-16 12:26:27.581076
-1,2,-3,-2,0,-2,0,-1,2021-08-16 12:26:27.582042
-1,0,-1,-1,0,-1,0,0,2021-08-16 12:26:27.582042
-1,-1,0,-1,-1,1,0,-2,2021-08-16 12:26:27.604040
-2,-1,-1,0,-1,0,-1,0,2021-08-16 12:26:27.604040
-1,0,0,-2,-1,-2,0,-2,2021-08-16 12:26:27.604040
-1,-2,0,0,0,0,-1,0,2021-08-16 12:26:27.604040
0,-1,-1,-2,0,1,0,2,2021-08-16 12:26:27.627042
0,0,-1,0,-1,-1,0,1,2021-08-16 12:26:27.627042
-1,-2,0,-1,1,0,0,1,2021-08-16 12:26:27.627042
-1,0,-1,-1,-1,-2,-3,-2,2021-08-16 12:26:27.628039
0,-2,-1,-3,-2,-2,-1,-3,2021-08-16 12:26:27.641077
0,0,0,-1,-1,-1,-1,-2,2021-08-16 12:26:27.641077
-1,0,0,0,-2,-1,0,-2,2021-08-16 12:26:27.642039
-1,-1,-2,0,-1,0,0,-1,2021-08-16 12:26:27.642039
-1,-2,-2,-2,-2,-1,0,-1,2021-08-16 12:26:27.664039
0,-3,-2,-2,0,0,1,0,2021-08-16 12:26:27.664039
0,-1,-3,-2,-1,0,0,0,2021-08-16 12:26:27.664039
0,0,-1,-2,-1,-1,0,0,2021-08-16 12:26:27.664039
-1,1,0,0,0,-2,-2,-1,2021-08-16 12:26:27.687042
-1,1,-1,0,-1,-4,-2,1,2021-08-16 12:26:27.687042
-1,1,-1,-1,0,0,-3,-2,2021-08-16 12:26:27.687042
-1,0,0,-1,1,0,-2,0,2021-08-16 12:26:27.688043
-1,-2,-2,0,0,0,-1,0,2021-08-16 12:26:27.701076
-3,-1,-2,0,-2,-1,0,0,2021-08-16 12:26:27.701076
0,-3,-2,-2,0,0,0,-2,2021-08-16 12:26:27.702040
0,-2,0,-1,-1,0,0,-2,2021-08-16 12:26:27.702040
0,-1,-1,-1,-1,0,0,-1,2021-08-16 12:26:27.724040
0,-1,-1,-1,-1,1,-1,-1,2021-08-16 12:26:27.724040
-1,0,1,0,-1,-2,-1,0,2021-08-16 12:26:27.724040
-1,-1,-1,-2,-2,-1,-1,-1,2021-08-16 12:26:27.725041
-3,-2,-2,-2,0,0,0,-1,2021-08-16 12:26:27.747041
-1,-2,-1,-1,1,1,-2,-1,2021-08-16 12:26:27.747041
-1,-2,0,-2,-2,-1,-1,1,2021-08-16 12:26:27.747041
-3,0,-2,-2,0,0,-1,0,2021-08-16 12:26:27.748038
0,-1,-1,-1,0,-1,-1,0,2021-08-16 12:26:27.761077
-2,1,-1,-2,-2,0,0,1,2021-08-16 12:26:27.761077
-1,-1,-1,-1,-1,0,-1,-2,2021-08-16 12:26:27.762040
-1,0,0,-1,0,0,-1,-1,2021-08-16 12:26:27.762040
-2,-1,-1,0,-1,0,0,-1,2021-08-16 12:26:27.784040
0,0,-1,-1,1,1,0,-2,2021-08-16 12:26:27.784040
-1,1,-1,1,-1,-1,-2,-1,2021-08-16 12:26:27.784040
0,-1,-1,1,-1,-1,0,-1,2021-08-16 12:26:27.785041
0,0,0,0,-1,-2,-1,-1,2021-08-16 12:26:27.814066
0,-1,0,1,-1,0,0,-1,2021-08-16 12:26:27.815041
-1,-1,0,-1,0,0,-1,-1,2021-08-16 12:26:27.815041
-1,-1,-3,1,0,-1,0,-2,2021-08-16 12:26:27.815041
-1,-1,-1,-2,0,-1,-2,-1,2021-08-16 12:26:27.821068
0,0,-3,-2,-1,-2,0,0,2021-08-16 12:26:27.821068
-1,0,-2,-1,1,-1,-1,1,2021-08-16 12:26:27.822039
-1,-2,-1,0,0,-1,-1,0,2021-08-16 12:26:27.822039
1,-1,0,0,0,-1,-1,0,2021-08-16 12:26:27.844040
-1,0,-2,0,-1,-2,-2,-2,2021-08-16 12:26:27.844040
1,-2,-2,-1,-2,0,0,0,2021-08-16 12:26:27.844040
-1,-1,0,-2,-1,-1,0,0,2021-08-16 12:26:27.845039
-1,-2,-1,-1,-3,-1,0,-1,2021-08-16 12:26:27.867040
-1,-2,1,-3,0,0,-1,0,2021-08-16 12:26:27.867040
-2,-2,-2,0,0,0,-3,-2,2021-08-16 12:26:27.867040
0,-2,-1,1,-2,-2,0,2,2021-08-16 12:26:27.868042
-1,0,-1,-1,-1,0,-1,0,2021-08-16 12:26:27.881091
-1,1,-1,-1,-2,-2,-1,-2,2021-08-16 12:26:27.881091
1,-1,-2,0,-2,-1,-1,-2,2021-08-16 12:26:27.882039
-2,-1,-1,0,-1,-1,0,-2,2021-08-16 12:26:27.882039
0,-1,-1,0,0,0,-2,-1,2021-08-16 12:26:27.904040
0,-1,-1,-1,-1,-1,1,-2,2021-08-16 12:26:27.904040
0,0,-2,1,1,1,-1,-1,2021-08-16 12:26:27.904040
-1,0,-2,-2,-3,-1,-1,0,2021-08-16 12:26:27.904040
0,0,-2,-2,-1,0,0,0,2021-08-16 12:26:27.927039
-1,-2,-1,0,-1,-1,1,-1,2021-08-16 12:26:27.927039
-2,-2,0,-2,-1,-2,-2,-1,2021-08-16 12:26:27.927039
0,0,-1,-1,1,1,-1,-1,2021-08-16 12:26:27.928044
-3,0,1,-1,-1,-1,0,-2,2021-08-16 12:26:27.940040
-1,-1,-1,1,-1,0,-2,-1,2021-08-16 12:26:27.941040
-2,-1,-2,-2,-2,-2,2,-1,2021-08-16 12:26:27.949042
0,-1,0,-1,-1,2,0,-2,2021-08-16 12:26:27.949042
-1,-1,-3,0,0,-1,0,0,2021-08-16 12:26:27.964041
0,-2,-1,0,0,-1,0,0,2021-08-16 12:26:27.964041
-1,0,1,1,-2,-2,-1,0,2021-08-16 12:26:27.964041
-1,-2,0,-2,0,-1,0,-1,2021-08-16 12:26:27.964041
-1,1,0,-2,-1,0,-2,-1,2021-08-16 12:26:27.987039
0,0,-1,-2,1,-1,-1,-1,2021-08-16 12:26:27.987039
-1,-1,-1,-3,0,-1,-1,-2,2021-08-16 12:26:27.988043
0,0,-2,-1,0,-1,-2,0,2021-08-16 12:26:27.988043
1,-1,1,-1,-2,0,1,0,2021-08-16 12:26:28.001041
-1,0,-1,1,-1,-1,-2,-1,2021-08-16 12:26:28.001041
0,-1,1,0,-1,1,-1,1,2021-08-16 12:26:28.009042
-1,-1,-2,0,-1,0,-1,-1,2021-08-16 12:26:28.009042
-2,-3,-2,0,0,-1,-1,-1,2021-08-16 12:26:28.024040
-1,-1,0,-2,0,-1,0,-1,2021-08-16 12:26:28.025042
0,-1,-1,0,-1,-1,-1,0,2021-08-16 12:26:28.025042
0,-2,-1,-1,-1,-2,-2,0,2021-08-16 12:26:28.025042
0,0,-1,-1,0,-1,0,0,2021-08-16 12:26:28.047041
-1,0,0,-2,-2,-1,-1,-1,2021-08-16 12:26:28.047041
-1,1,-2,-1,0,-1,-1,-2,2021-08-16 12:26:28.047041
0,0,0,0,-2,-1,-1,-1,2021-08-16 12:26:28.048042
-2,1,1,0,-1,-1,-1,-1,2021-08-16 12:26:28.060076
-2,-1,-2,-1,-1,-1,-2,0,2021-08-16 12:26:28.061042
-1,1,0,-1,-1,0,-1,-1,2021-08-16 12:26:28.069040
-1,-1,-1,-1,0,-1,-1,-1,2021-08-16 12:26:28.069040
1,-2,-1,-1,-2,-1,0,-1,2021-08-16 12:26:28.084079
-2,0,0,-1,-1,0,0,0,2021-08-16 12:26:28.085040
-1,-1,-1,-2,-1,0,-2,0,2021-08-16 12:26:28.085040
-1,0,-2,-1,0,-1,-2,0,2021-08-16 12:26:28.085040
0,-3,-1,1,0,0,-1,0,2021-08-16 12:26:28.107041
0,-1,-2,0,-2,-1,-2,-2,2021-08-16 12:26:28.107041
-1,-2,0,1,-1,-2,0,1,2021-08-16 12:26:28.108039
-1,0,2,-1,-1,-1,0,-1,2021-08-16 12:26:28.108039
-1,1,-1,-2,2,0,-1,-1,2021-08-16 12:26:28.120065
-1,-2,0,0,-2,0,0,-1,2021-08-16 12:26:28.121039
0,-1,-2,-1,0,0,0,-1,2021-08-16 12:26:28.129040
0,-1,0,1,0,0,-1,-2,2021-08-16 12:26:28.129040
0,0,-1,-2,-1,-2,-3,-1,2021-08-16 12:26:28.144071
0,-2,-1,-2,-1,-1,1,0,2021-08-16 12:26:28.145040
-2,-1,0,-2,0,0,-1,-1,2021-08-16 12:26:28.145040
-1,0,-2,-1,-2,0,-1,-1,2021-08-16 12:26:28.145040
-1,0,-2,0,-2,-1,-1,-2,2021-08-16 12:26:28.167039
-1,-1,-1,-1,-2,0,-1,0,2021-08-16 12:26:28.167039
-1,-1,-3,-2,-3,-1,-1,-2,2021-08-16 12:26:28.168040
-1,-1,0,0,0,0,0,-1,2021-08-16 12:26:28.168040
-1,0,0,0,-2,0,-1,0,2021-08-16 12:26:28.181045
0,-1,0,0,0,-1,0,0,2021-08-16 12:26:28.181045
-1,-2,-1,0,-2,-4,0,-2,2021-08-16 12:26:28.189039
-1,0,-1,-1,-1,0,-1,-1,2021-08-16 12:26:28.189039
1,-1,-1,0,-2,-2,-1,-1,2021-08-16 12:26:28.204076
-2,0,-2,1,-1,-1,-1,-1,2021-08-16 12:26:28.205040
0,0,0,-2,1,0,-1,-1,2021-08-16 12:26:28.205040
0,0,-2,-1,0,0,-1,-1,2021-08-16 12:26:28.205040
0,-1,2,0,0,-3,-1,0,2021-08-16 12:26:28.227039
-1,-1,-2,0,2,-1,-2,0,2021-08-16 12:26:28.227039
0,0,-1,0,-2,0,-1,-1,2021-08-16 12:26:28.228040
-2,-2,-1,-1,-1,0,-1,-1,2021-08-16 12:26:28.228040
1,0,0,-1,0,1,0,-1,2021-08-16 12:26:28.249069
0,-2,-1,-1,-1,-2,0,-1,2021-08-16 12:26:28.249069
0,-1,-1,0,-1,0,-1,-1,2021-08-16 12:26:28.250040
0,0,-1,-2,-2,-1,-2,-1,2021-08-16 12:26:28.250040
-3,-1,-2,-1,0,0,0,-1,2021-08-16 12:26:28.264070
1,0,-1,-4,0,-1,-1,0,2021-08-16 12:26:28.264070
-1,-1,-2,0,1,0,0,0,2021-08-16 12:26:28.265041
0,0,1,-1,-2,0,1,0,2021-08-16 12:26:28.265041
-1,-1,-1,-1,-1,-2,0,-1,2021-08-16 12:26:28.287041
-2,0,-1,0,-1,-2,-1,0,2021-08-16 12:26:28.287041
-1,-2,0,-1,0,-1,-1,0,2021-08-16 12:26:28.287041
-1,-1,-1,1,-2,-2,-1,0,2021-08-16 12:26:28.288039
-1,-1,0,2,0,0,0,0,2021-08-16 12:26:28.309039
0,-1,-2,0,-1,-1,0,-1,2021-08-16 12:26:28.310039
-1,1,-1,-1,1,1,0,-1,2021-08-16 12:26:28.310039
-1,-1,0,-2,-1,-1,0,-1,2021-08-16 12:26:28.310039
0,-3,-2,-3,0,1,-1,0,2021-08-16 12:26:28.332041
0,0,0,-2,0,0,-1,1,2021-08-16 12:26:28.332041
1,-1,0,0,-1,-2,-1,0,2021-08-16 12:26:28.333040
0,0,-1,0,-1,-1,0,-1,2021-08-16 12:26:28.334040
-2,-2,-1,-3,-1,-2,0,-1,2021-08-16 12:26:28.347041
-2,-1,0,-1,0,0,1,0,2021-08-16 12:26:28.347041
-1,-2,0,-2,-1,-2,0,0,2021-08-16 12:26:28.348042
-1,-1,-3,-1,1,-2,0,0,2021-08-16 12:26:28.348042
-1,-1,0,-1,-1,-2,-2,0,2021-08-16 12:26:28.369039
0,-2,-1,0,-1,-1,-1,-2,2021-08-16 12:26:28.369039
0,0,0,-2,-1,-1,-1,-1,2021-08-16 12:26:28.371040
1,-1,-1,-1,0,0,-1,0,2021-08-16 12:26:28.371040
-1,-1,-1,1,-1,-1,-1,-1,2021-08-16 12:26:28.383039
-2,-1,-1,0,-1,-1,-1,-2,2021-08-16 12:26:28.383039
-1,-2,-2,-1,0,0,0,0,2021-08-16 12:26:28.392077
-1,-1,-2,0,-2,1,-1,-1,2021-08-16 12:26:28.392077
0,-2,-1,0,-1,-1,-1,-1,2021-08-16 12:26:28.407041
-1,0,-1,-1,-1,-1,0,-2,2021-08-16 12:26:28.407041
0,0,-1,-1,1,-2,-1,-2,2021-08-16 12:26:28.408040
-1,-1,-1,-1,-1,-1,-1,1,2021-08-16 12:26:28.408040
1,0,0,-1,-2,-1,-1,-1,2021-08-16 12:26:28.429042
0,-1,-1,0,-1,2,-2,-1,2021-08-16 12:26:28.429042
-3,-2,0,-1,-1,-2,-1,0,2021-08-16 12:26:28.431042
0,0,-1,-2,1,-2,0,-1,2021-08-16 12:26:28.431042
-2,0,-2,0,-1,1,0,-1,2021-08-16 12:26:28.444040
0,-1,0,2,-1,0,-1,-1,2021-08-16 12:26:28.444040
0,1,-2,2,-1,0,0,1,2021-08-16 12:26:28.450039
-2,-1,0,0,0,1,0,-1,2021-08-16 12:26:28.450039
1,-2,0,-1,-2,-2,-1,-1,2021-08-16 12:26:28.467041
-2,-1,-1,-1,-1,-1,0,-1,2021-08-16 12:26:28.467041
0,0,-1,-1,-1,1,-2,0,2021-08-16 12:26:28.468040
-1,-1,-1,1,0,-1,-1,-1,2021-08-16 12:26:28.469039
1,1,-4,-3,2,-1,-1,0,2021-08-16 12:26:28.490042
0,-1,0,-1,-2,-1,-1,0,2021-08-16 12:26:28.490042
-1,0,-2,0,-1,-1,-1,0,2021-08-16 12:26:28.491040
0,-2,0,-1,-2,2,0,-1,2021-08-16 12:26:28.492039
-1,-2,-1,0,-3,-1,-2,-2,2021-08-16 12:26:28.503076
-1,-1,-1,-1,-2,-1,-1,0,2021-08-16 12:26:28.504044
-3,-1,0,-2,0,0,1,-2,2021-08-16 12:26:28.511039
0,-3,-2,-2,1,-1,-1,-2,2021-08-16 12:26:28.511039
-2,0,-1,1,-1,-1,-3,-2,2021-08-16 12:26:28.527041
-1,-1,0,0,0,-2,0,-1,2021-08-16 12:26:28.527041
1,-1,-2,-1,-2,-1,-1,0,2021-08-16 12:26:28.528041
0,0,-1,-2,-1,-3,-2,-1,2021-08-16 12:26:28.529042
0,0,0,-2,-1,0,-1,1,2021-08-16 12:26:28.549039
-1,0,-1,-2,0,-2,0,-1,2021-08-16 12:26:28.550038
0,-2,0,-1,0,-1,-1,-1,2021-08-16 12:26:28.551041
-1,-1,-2,0,0,-1,0,-1,2021-08-16 12:26:28.551041
-3,0,-1,0,-3,1,1,0,2021-08-16 12:26:28.564040
0,0,-1,-1,0,0,-1,0,2021-08-16 12:26:28.564040
-1,-1,-2,-1,-1,-2,-1,-2,2021-08-16 12:26:28.570077
1,0,-1,-2,-1,-2,-2,-1,2021-08-16 12:26:28.571042
-1,-1,0,-1,1,-2,0,-2,2021-08-16 12:26:28.587042
0,-2,-2,1,-2,0,0,0,2021-08-16 12:26:28.587042
-1,-1,-1,0,-2,0,0,-3,2021-08-16 12:26:28.588040
-2,0,-1,0,0,-1,-1,0,2021-08-16 12:26:28.589041
-2,0,-1,0,0,-2,-1,-2,2021-08-16 12:26:28.609090
-2,0,0,0,-2,-1,0,-1,2021-08-16 12:26:28.609090
-2,-1,-1,0,0,-1,0,-1,2021-08-16 12:26:28.615076
0,-2,-2,-1,-1,0,-1,-1,2021-08-16 12:26:28.616039
0,-2,-2,-1,0,-1,1,-1,2021-08-16 12:26:28.624077
0,0,1,1,0,-1,-1,-1,2021-08-16 12:26:28.624077
-2,-2,-1,0,1,0,-1,-1,2021-08-16 12:26:28.630041
-1,0,-2,0,-1,0,0,-1,2021-08-16 12:26:28.631040
-1,0,-1,1,-1,-1,-2,-1,2021-08-16 12:26:28.647041
0,-1,-3,-1,0,0,-2,-1,2021-08-16 12:26:28.647041
0,0,-1,-1,-2,-2,0,-1,2021-08-16 12:26:28.648039
-1,-2,0,-2,0,0,-1,1,2021-08-16 12:26:28.649041
-2,-1,-1,-2,-2,-1,0,-1,2021-08-16 12:26:28.669079
-1,-2,-1,-1,-2,0,-2,-2,2021-08-16 12:26:28.669079
-2,0,-1,1,-2,-1,0,-1,2021-08-16 12:26:28.671042
0,-1,0,1,-1,1,-1,-2,2021-08-16 12:26:28.671042
-1,0,0,1,-2,-1,-1,0,2021-08-16 12:26:28.684039
-1,-1,-1,-1,-1,-1,0,-2,2021-08-16 12:26:28.684039
-2,-1,0,-1,-1,-2,-2,-3,2021-08-16 12:26:28.690076
-2,0,-2,-2,-1,0,0,0,2021-08-16 12:26:28.691038
1,-3,0,-2,0,0,-2,-2,2021-08-16 12:26:28.707041
0,-1,1,0,-2,0,0,1,2021-08-16 12:26:28.707041
1,-3,-1,0,1,-2,-1,1,2021-08-16 12:26:28.708041
-1,0,-1,-1,-2,-1,0,-2,2021-08-16 12:26:28.708041
-1,-2,-2,0,-1,-1,-1,-2,2021-08-16 12:26:28.729067
0,1,-1,-2,-2,-1,-1,-1,2021-08-16 12:26:28.729067
-2,-1,-2,0,-1,-1,-3,0,2021-08-16 12:26:28.731039
-1,-1,0,1,0,-1,-2,-1,2021-08-16 12:26:28.731039
-1,0,-2,-3,0,0,0,1,2021-08-16 12:26:28.743067
-2,-1,-1,-2,1,-2,0,0,2021-08-16 12:26:28.743067
-2,-1,-1,-1,-2,1,-1,-1,2021-08-16 12:26:28.752040
-1,-1,1,0,-1,-1,0,-2,2021-08-16 12:26:28.752040
-2,-2,-2,0,-1,0,-1,-1,2021-08-16 12:26:28.767041
0,-1,-1,0,-1,-1,-1,-1,2021-08-16 12:26:28.767041
1,0,-1,-1,-1,0,-1,0,2021-08-16 12:26:28.768039
-1,0,-2,-2,0,0,-2,-2,2021-08-16 12:26:28.768039
-1,-1,-1,-1,0,0,0,-1,2021-08-16 12:26:28.789066
0,-2,-2,-1,-2,-1,0,0,2021-08-16 12:26:28.789066
1,-1,1,0,0,-1,-1,0,2021-08-16 12:26:28.791041
-2,-2,0,0,-2,-1,0,0,2021-08-16 12:26:28.791041
-2,-1,0,-1,-1,-1,-2,-2,2021-08-16 12:26:28.803042
-1,-1,-2,0,-1,-1,-2,-1,2021-08-16 12:26:28.803042
-1,-1,-2,-1,-1,0,0,0,2021-08-16 12:26:28.812067
-1,-1,-2,-1,-2,-1,-1,0,2021-08-16 12:26:28.812067
1,0,-1,-1,-2,-1,-2,1,2021-08-16 12:26:28.827041
0,0,0,0,-1,0,-2,0,2021-08-16 12:26:28.827041
-1,-1,0,0,-1,-1,-1,1,2021-08-16 12:26:28.829039
0,0,-1,-1,0,-1,-1,-2,2021-08-16 12:26:28.829039
-1,-1,-1,-1,1,0,-1,0,2021-08-16 12:26:28.849076
-1,0,-2,-1,-1,-1,0,0,2021-08-16 12:26:28.850040
0,-1,-1,-1,-1,-1,-1,-1,2021-08-16 12:26:28.851070
1,-1,-1,0,-1,-2,-1,-1,2021-08-16 12:26:28.851070
-2,0,-2,1,0,0,0,0,2021-08-16 12:26:28.863039
-1,-1,-1,-3,0,-1,-1,0,2021-08-16 12:26:28.863039
0,1,-3,-1,-2,-1,0,-1,2021-08-16 12:26:28.872041
0,-2,-1,-1,0,-2,0,-1,2021-08-16 12:26:28.872041
0,0,0,-1,-1,0,0,1,2021-08-16 12:26:28.887040
-1,-1,-1,0,0,1,0,-1,2021-08-16 12:26:28.887040
-2,0,0,-1,-1,-1,-1,-2,2021-08-16 12:26:28.888041
0,0,-2,0,-1,0,1,0,2021-08-16 12:26:28.888041
-3,-1,-1,0,-1,-1,-1,0,2021-08-16 12:26:28.909558
-1,0,-1,-1,0,0,-1,-2,2021-08-16 12:26:28.909558
-2,0,-2,-1,0,-2,0,-2,2021-08-16 12:26:28.910557
-1,-1,0,-1,-2,-1,0,-1,2021-08-16 12:26:28.911556
-1,0,-2,-1,-1,-2,1,-2,2021-08-16 12:26:28.922555
0,0,-2,-1,-1,-1,-1,-1,2021-08-16 12:26:28.923555
0,-4,-1,-1,0,0,-2,-2,2021-08-16 12:26:28.931554
0,-1,0,0,-1,1,-2,0,2021-08-16 12:26:28.931554
0,-1,-1,0,-1,0,-2,-1,2021-08-16 12:26:28.946555
-1,0,-1,0,0,-2,-1,0,2021-08-16 12:26:28.947555
-2,0,-2,0,0,-1,0,-1,2021-08-16 12:26:28.948554
-3,-1,-1,0,0,-2,0,-1,2021-08-16 12:26:28.948554
-2,-2,0,-1,-1,-1,0,-1,2021-08-16 12:26:28.969555
-2,0,-2,-1,0,-2,0,0,2021-08-16 12:26:28.969555
0,-1,0,-2,0,-1,-1,0,2021-08-16 12:26:28.970555
-2,0,-2,0,1,-1,-3,-3,2021-08-16 12:26:28.970555
-1,-1,-3,-1,0,-1,-1,0,2021-08-16 12:26:28.982557
-1,-1,0,0,-1,-2,-1,-1,2021-08-16 12:26:28.983555
0,0,0,-1,-2,-1,0,0,2021-08-16 12:26:28.991555
-1,-1,0,0,-1,-1,-1,-1,2021-08-16 12:26:28.992556
0,-1,1,0,-1,-1,0,-1,2021-08-16 12:26:29.006592
-1,-1,-2,-1,-1,0,-1,0,2021-08-16 12:26:29.007554
-1,-1,-1,-1,-1,-1,0,1,2021-08-16 12:26:29.008554
0,-1,0,0,-1,-2,-1,-1,2021-08-16 12:26:29.008554
-1,-1,0,0,0,-1,1,-2,2021-08-16 12:26:29.029557
0,-2,0,1,0,0,1,-2,2021-08-16 12:26:29.029557
0,0,-2,0,-2,0,0,-1,2021-08-16 12:26:29.030557
-1,-1,-1,-2,-1,0,-1,0,2021-08-16 12:26:29.031555
-2,-1,-1,-1,-1,0,-2,0,2021-08-16 12:26:29.042556
-1,-1,-2,-1,-1,-1,-3,1,2021-08-16 12:26:29.043556
-2,0,-1,0,0,0,-2,-2,2021-08-16 12:26:29.051558
-2,1,-1,-1,-2,0,0,0,2021-08-16 12:26:29.052555
0,-2,-1,0,0,-1,-2,0,2021-08-16 12:26:29.066600
-1,0,0,-1,-1,-1,0,-2,2021-08-16 12:26:29.067557
0,1,-1,1,0,-2,-3,0,2021-08-16 12:26:29.068558
-1,-1,-1,-2,-1,-1,0,0,2021-08-16 12:26:29.068558
-1,-1,0,-1,0,-2,-1,-1,2021-08-16 12:26:29.089557
-1,-1,-1,-2,-2,-1,-2,-2,2021-08-16 12:26:29.089557
0,-1,0,-1,-2,0,-1,-1,2021-08-16 12:26:29.090586
0,-1,-1,-1,-1,0,0,-2,2021-08-16 12:26:29.091554
0,-1,-1,-2,0,0,1,-1,2021-08-16 12:26:29.102580
0,0,0,-1,0,0,-1,0,2021-08-16 12:26:29.103557
-3,-4,-2,-2,0,-1,-1,0,2021-08-16 12:26:29.111555
0,-1,-3,1,-1,0,-2,0,2021-08-16 12:26:29.112555
-1,-2,-1,-1,-2,-2,-2,-1,2021-08-16 12:26:29.126595
-1,-1,-1,0,-2,-1,2,0,2021-08-16 12:26:29.127555
-1,-1,0,-1,0,-2,0,-1,2021-08-16 12:26:29.128555
1,0,-1,-1,0,-1,-1,-2,2021-08-16 12:26:29.128555
-1,-1,-1,-2,-2,0,-1,0,2021-08-16 12:26:29.149556
-1,-1,0,-2,2,-1,1,-1,2021-08-16 12:26:29.149556
-1,-1,-3,0,0,-1,0,-1,2021-08-16 12:26:29.150554
-2,-2,-1,0,0,-2,-1,-1,2021-08-16 12:26:29.151553
-1,1,-1,-1,-1,0,-1,-3,2021-08-16 12:26:29.162554
0,-1,-1,-1,-3,-2,-1,1,2021-08-16 12:26:29.163557
0,0,0,-2,-1,1,0,-1,2021-08-16 12:26:29.171557
-2,-2,0,0,0,-1,0,-1,2021-08-16 12:26:29.172557
0,0,-1,0,0,-1,-1,-1,2021-08-16 12:26:29.186592
-1,-2,0,0,-2,-1,1,0,2021-08-16 12:26:29.186592
-1,-1,-1,-1,-1,-2,-1,-2,2021-08-16 12:26:29.188556
0,-1,0,-1,-2,-1,-1,1,2021-08-16 12:26:29.188556
0,-1,-1,0,-1,-2,-1,0,2021-08-16 12:26:29.209554
0,-1,-1,1,0,0,-1,-1,2021-08-16 12:26:29.209554
-1,0,0,1,0,0,-2,0,2021-08-16 12:26:29.210555
0,-1,-2,1,0,-1,1,0,2021-08-16 12:26:29.211555
1,-1,-2,-1,0,0,-1,0,2021-08-16 12:26:29.232554
0,-1,-1,-2,-1,0,-1,-1,2021-08-16 12:26:29.232554
-2,1,0,-1,0,0,0,0,2021-08-16 12:26:29.233555
0,-1,0,-1,0,0,0,-1,2021-08-16 12:26:29.233555
0,0,-2,-2,-1,-1,-1,-2,2021-08-16 12:26:29.246596
-2,0,-1,-1,0,-2,1,-1,2021-08-16 12:26:29.246596
1,0,-1,-2,-1,0,-2,1,2021-08-16 12:26:29.248555
0,-2,-1,-2,-2,-1,0,-1,2021-08-16 12:26:29.248555
-1,0,1,0,-1,-1,-1,0,2021-08-16 12:26:29.269554
-1,-2,-1,-1,0,-2,-2,-2,2021-08-16 12:26:29.269554
-2,-1,-2,0,-2,0,-2,-1,2021-08-16 12:26:29.270554
-1,0,0,-2,0,-1,0,0,2021-08-16 12:26:29.270554
0,-1,-2,-1,0,0,0,0,2021-08-16 12:26:29.292153
-2,1,-1,0,0,-1,-2,0,2021-08-16 12:26:29.292153
-1,-1,0,1,-1,0,-1,0,2021-08-16 12:26:29.293662
1,-1,0,-1,0,0,-1,-1,2021-08-16 12:26:29.293662
-1,-2,0,0,-1,-1,-2,1,2021-08-16 12:26:29.306670
-2,-1,-1,-3,0,0,0,-1,2021-08-16 12:26:29.306670
-2,-3,-1,-1,-3,0,0,-2,2021-08-16 12:26:29.308671
-1,0,0,-2,-2,-1,-1,-1,2021-08-16 12:26:29.308671
0,-1,0,-1,-1,-1,0,-1,2021-08-16 12:26:29.329670
-1,-1,0,-1,-3,0,-1,0,2021-08-16 12:26:29.329670
0,-1,-1,0,0,-2,0,-1,2021-08-16 12:26:29.330671
-2,-1,-1,0,-2,0,-1,0,2021-08-16 12:26:29.330671
-1,-2,-1,0,-2,-1,-1,-2,2021-08-16 12:26:29.351671
1,1,-1,1,-1,0,-3,-2,2021-08-16 12:26:29.351671
-2,-3,-2,-2,0,-1,0,-2,2021-08-16 12:26:29.353671
-1,0,-1,0,0,-1,-1,0,2021-08-16 12:26:29.353671
-1,-1,-1,-3,-1,0,1,0,2021-08-16 12:26:29.366685
-2,0,-2,0,0,-1,1,-3,2021-08-16 12:26:29.366685
1,-1,1,-2,-1,-1,-1,-1,2021-08-16 12:26:29.372670
-1,0,-1,-1,-1,0,0,-1,2021-08-16 12:26:29.372670
-1,-2,1,1,-2,-2,-2,-1,2021-08-16 12:26:29.389671
-1,-1,-1,-1,-1,-1,-1,1,2021-08-16 12:26:29.389671
-2,-1,-2,-1,-1,0,-2,0,2021-08-16 12:26:29.390671
-2,-1,-2,-1,-2,0,-2,0,2021-08-16 12:26:29.390671
1,-2,0,0,1,-2,0,-1,2021-08-16 12:26:29.411714
-1,-1,-2,0,0,-2,-1,-2,2021-08-16 12:26:29.411714
0,1,-1,-1,0,-3,0,-2,2021-08-16 12:26:29.413671
-2,0,-1,1,-2,0,-1,-1,2021-08-16 12:26:29.413671
-1,-1,-2,-1,-1,-1,-3,-1,2021-08-16 12:26:29.426670
1,-3,-1,0,-3,1,-2,-1,2021-08-16 12:26:29.426670
-1,-2,0,1,-1,-2,0,-1,2021-08-16 12:26:29.432714
0,-1,-2,-1,-1,-1,-1,0,2021-08-16 12:26:29.433673
-1,1,1,0,-1,1,-2,0,2021-08-16 12:26:29.449669
-1,0,1,-1,-1,-1,0,-1,2021-08-16 12:26:29.449669
0,-1,-2,-2,-2,0,0,0,2021-08-16 12:26:29.450674
0,-2,0,-1,1,-1,0,-1,2021-08-16 12:26:29.450674
-1,-1,-2,0,-1,-1,0,-2,2021-08-16 12:26:29.471672
-3,0,-2,-3,-1,-2,0,0,2021-08-16 12:26:29.471672
-2,-1,-1,-2,-3,1,0,0,2021-08-16 12:26:29.473673
0,-2,-2,-1,0,-1,-1,0,2021-08-16 12:26:29.473673
0,-1,-2,-2,-1,0,1,0,2021-08-16 12:26:29.486671
0,-1,-2,0,0,1,0,-2,2021-08-16 12:26:29.486671
-1,-1,-1,-1,1,-1,-1,-1,2021-08-16 12:26:29.492724
-1,-1,-1,-1,-1,-1,0,-1,2021-08-16 12:26:29.492724
-2,-1,-1,0,1,0,1,-1,2021-08-16 12:26:29.509673
-1,-3,-1,-2,0,-2,-2,1,2021-08-16 12:26:29.509673
0,0,-1,-2,-1,-1,-2,-1,2021-08-16 12:26:29.510674
0,0,0,2,-1,0,-2,-2,2021-08-16 12:26:29.510674
-1,0,0,0,-2,-1,-1,-1,2021-08-16 12:26:29.531670
-2,-1,-1,1,-2,0,-1,-1,2021-08-16 12:26:29.531670
-1,-1,-2,0,0,-1,0,-1,2021-08-16 12:26:29.533673
-2,0,-1,-1,-1,0,0,-2,2021-08-16 12:26:29.533673
0,-1,-1,0,-1,-1,-1,-1,2021-08-16 12:26:29.545698
0,-1,0,-2,0,-1,0,0,2021-08-16 12:26:29.546670
-2,-1,-1,-1,-1,-2,-4,-1,2021-08-16 12:26:29.552673
0,1,-1,-2,-1,-2,0,0,2021-08-16 12:26:29.552673
0,-2,-2,1,0,0,0,0,2021-08-16 12:26:29.569670
-3,-1,-2,0,-1,0,-1,0,2021-08-16 12:26:29.569670
0,-2,-1,0,-1,-2,-1,-1,2021-08-16 12:26:29.570672
-1,-1,0,-2,-2,-2,-2,-2,2021-08-16 12:26:29.570672
-1,0,0,-1,-1,-1,-1,0,2021-08-16 12:26:29.591670
1,-1,1,-1,0,-1,-1,-1,2021-08-16 12:26:29.591670
0,-1,-1,-1,-2,-2,0,-1,2021-08-16 12:26:29.593672
-1,-1,-1,0,0,-1,-2,-2,2021-08-16 12:26:29.593672
0,-1,-1,-1,-1,-2,-1,-1,2021-08-16 12:26:29.605707
0,-1,-1,-1,0,-1,0,0,2021-08-16 12:26:29.606672
-3,-2,0,-3,-2,0,-1,-1,2021-08-16 12:26:29.612709
-1,-3,0,-1,-1,1,1,0,2021-08-16 12:26:29.612709
-2,-1,-2,-1,-2,-2,-1,-1,2021-08-16 12:26:29.629670
-2,0,-2,-3,0,0,-1,-1,2021-08-16 12:26:29.629670
-1,0,-1,-3,0,-1,-1,-1,2021-08-16 12:26:29.630671
0,-2,-1,-1,-1,-1,0,1,2021-08-16 12:26:29.630671
-1,-1,0,1,-1,0,0,-1,2021-08-16 12:26:29.651713
0,-1,0,1,-2,-1,-1,-1,2021-08-16 12:26:29.651713
-1,0,0,-2,-1,1,0,-1,2021-08-16 12:26:29.653673
0,-1,-2,-1,-1,0,-1,-1,2021-08-16 12:26:29.653673
-2,-1,0,0,-1,-1,0,0,2021-08-16 12:26:29.666670
-1,0,-1,-1,-2,-2,-1,-1,2021-08-16 12:26:29.666670
-1,0,-1,1,0,-1,0,-1,2021-08-16 12:26:29.672708
0,0,-1,-1,1,0,-1,-2,2021-08-16 12:26:29.672708
-1,-1,-1,-2,1,-1,-1,1,2021-08-16 12:26:29.689670
-2,1,-1,-1,-1,1,-1,-2,2021-08-16 12:26:29.689670
0,-1,-1,0,-1,-1,-1,-1,2021-08-16 12:26:29.690672
-1,1,-1,0,-3,-1,-2,-1,2021-08-16 12:26:29.690672
2,0,-1,-1,-2,-2,1,-1,2021-08-16 12:26:29.711696
0,-3,-1,-1,0,0,-2,-3,2021-08-16 12:26:29.711696
-1,-1,-2,0,0,-1,-1,-1,2021-08-16 12:26:29.713672
-2,-2,-3,0,0,0,0,-1,2021-08-16 12:26:29.713672
0,-2,-2,-1,-3,-1,-2,-2,2021-08-16 12:26:29.725672
0,-2,-1,0,-1,0,-2,-1,2021-08-16 12:26:29.725672
0,-2,0,0,-1,0,-2,-2,2021-08-16 12:26:29.734672
-1,-1,-2,-1,1,0,-1,0,2021-08-16 12:26:29.734672
-2,1,-1,-2,0,0,0,-2,2021-08-16 12:26:29.749672
-1,0,-2,-1,-2,0,-2,2,2021-08-16 12:26:29.749672
0,1,-1,-2,0,0,0,0,2021-08-16 12:26:29.750672
-1,-1,0,-1,-1,-2,1,-1,2021-08-16 12:26:29.750672
-1,-2,0,-1,-1,0,-1,-1,2021-08-16 12:26:29.771670
1,-1,-1,-2,-1,0,0,-3,2021-08-16 12:26:29.772672
0,0,-2,1,0,1,-1,0,2021-08-16 12:26:29.773671
0,0,0,1,-1,-1,-2,1,2021-08-16 12:26:29.773671
-3,1,0,-2,-2,-1,-1,-2,2021-08-16 12:26:29.785672
-1,-1,-1,1,-1,-3,0,0,2021-08-16 12:26:29.785672
-1,-3,1,-1,-1,-1,-1,-1,2021-08-16 12:26:29.794672
-1,-2,-1,-1,-1,-1,-2,-1,2021-08-16 12:26:29.794672
-1,-1,-1,-1,-1,-1,-1,-2,2021-08-16 12:26:29.809672
-2,0,-1,0,-2,-2,-1,-1,2021-08-16 12:26:29.809672
-3,-2,0,-1,0,-1,-1,0,2021-08-16 12:26:29.810672
0,-2,0,0,-1,0,0,-1,2021-08-16 12:26:29.811671
-1,-1,-1,-1,0,-1,-1,0,2021-08-16 12:26:29.831711
-1,-1,0,-1,-1,0,-1,-2,2021-08-16 12:26:29.831711
-1,-2,-1,-1,-1,-1,-2,-1,2021-08-16 12:26:29.833672
-1,-1,0,-1,0,-2,-1,-1,2021-08-16 12:26:29.833672
-1,-2,-1,-1,0,-1,-1,0,2021-08-16 12:26:29.845672
2,1,0,-1,0,-1,1,1,2021-08-16 12:26:29.845672
1,0,-2,-2,-1,-1,-1,-1,2021-08-16 12:26:29.854672
-1,0,-1,-2,0,-1,-1,0,2021-08-16 12:26:29.854672
-1,0,0,0,-1,-2,2,-1,2021-08-16 12:26:29.869671
0,-2,-1,0,0,-2,-1,1,2021-08-16 12:26:29.869671
-2,0,-1,-1,-1,-1,0,-1,2021-08-16 12:26:29.870670
0,1,0,0,-1,-2,0,0,2021-08-16 12:26:29.870670
-2,-1,-1,0,-2,-2,-2,-1,2021-08-16 12:26:29.891696
-1,-2,-2,0,1,0,-1,-1,2021-08-16 12:26:29.891696
1,0,1,1,-1,-2,-1,-1,2021-08-16 12:26:29.893670
0,0,0,0,-1,-1,1,-1,2021-08-16 12:26:29.893670
-1,0,-2,-1,-1,-1,-2,0,2021-08-16 12:26:29.905672
-1,-2,0,0,-2,-1,-1,0,2021-08-16 12:26:29.905672
-2,-1,-3,-1,-2,0,0,0,2021-08-16 12:26:29.914670
-1,0,-2,-1,-1,-2,-2,-2,2021-08-16 12:26:29.914670
0,-1,0,-1,1,0,-1,-1,2021-08-16 12:26:29.929673
0,-2,-1,-1,-1,1,0,-1,2021-08-16 12:26:29.929673
1,-1,0,-1,0,-1,0,-2,2021-08-16 12:26:29.930675
1,-2,-1,1,0,0,-1,0,2021-08-16 12:26:29.930675
-1,-1,0,-1,1,1,-1,0,2021-08-16 12:26:29.951700
0,0,-1,0,0,0,0,-2,2021-08-16 12:26:29.951700
0,0,-1,0,-1,-1,0,0,2021-08-16 12:26:29.953673
0,-2,0,-3,-2,-1,-1,-2,2021-08-16 12:26:29.953673
-1,0,-2,-3,0,-1,0,0,2021-08-16 12:26:29.965672
-1,-1,-1,0,-2,-1,-2,0,2021-08-16 12:26:29.965672
-2,0,-2,-3,0,0,-2,-1,2021-08-16 12:26:29.974672
-2,-1,0,-3,0,0,-1,1,2021-08-16 12:26:29.974672
0,-1,-1,0,-1,-1,-2,-1,2021-08-16 12:26:29.989672
-2,-2,0,-2,-1,-1,0,-1,2021-08-16 12:26:29.989672
0,-1,0,-1,0,-1,-2,-1,2021-08-16 12:26:29.990670
-1,0,-1,0,0,0,-1,-3,2021-08-16 12:26:29.990670
-1,-1,-2,-3,-1,0,-1,0,2021-08-16 12:26:30.011699
-1,-1,-1,-2,0,0,-2,0,2021-08-16 12:26:30.012671
-1,-1,-1,0,-1,0,-1,0,2021-08-16 12:26:30.013672
0,-1,-1,-1,-1,-1,0,-1,2021-08-16 12:26:30.013672
0,-1,-2,1,-1,0,0,-1,2021-08-16 12:26:30.025672
0,0,-4,-1,-2,-1,0,0,2021-08-16 12:26:30.025672
-2,-2,-2,-1,-2,0,0,0,2021-08-16 12:26:30.034675
-1,-2,-2,-2,0,-2,0,0,2021-08-16 12:26:30.034675
-2,-1,-1,1,-1,0,-2,-2,2021-08-16 12:26:30.056698
0,-1,-1,-1,-1,-2,0,-1,2021-08-16 12:26:30.056698
0,-2,-1,0,0,-1,0,-2,2021-08-16 12:26:30.058672
-1,-1,0,-2,-1,-1,0,0,2021-08-16 12:26:30.058672
1,-2,0,-1,0,-1,-1,0,2021-08-16 12:26:30.079672
-1,-1,-1,-1,-1,-1,0,-1,2021-08-16 12:26:30.079672
-1,0,-1,0,-1,-2,-1,-2,2021-08-16 12:26:30.080673
-1,-1,-1,0,-1,0,0,0,2021-08-16 12:26:30.080673
-1,-1,-1,-2,-1,-1,-1,-1,2021-08-16 12:26:30.085672
-4,-1,-1,-2,-1,-3,0,-1,2021-08-16 12:26:30.085672
-1,-1,-1,0,-3,-2,1,0,2021-08-16 12:26:30.094671
-2,0,1,1,-2,0,-1,-2,2021-08-16 12:26:30.094671
-1,1,0,-1,-1,-2,-1,-2,2021-08-16 12:26:30.109670
-1,-2,-1,-2,0,0,-1,-3,2021-08-16 12:26:30.109670
-1,-1,0,0,1,0,-1,0,2021-08-16 12:26:30.110671
1,0,-2,-1,1,-3,0,-1,2021-08-16 12:26:30.110671
-1,-2,-1,-1,-1,-1,1,0,2021-08-16 12:26:30.131696
-1,0,0,-2,-1,-1,0,2,2021-08-16 12:26:30.131696
-1,-2,-1,-3,-1,-3,-3,-1,2021-08-16 12:26:30.133672
-1,-2,2,0,-1,1,0,-1,2021-08-16 12:26:30.133672
-3,0,0,0,0,-2,-2,-1,2021-08-16 12:26:30.154670
-2,-1,-1,0,-1,-1,-1,-1,2021-08-16 12:26:30.154670
-2,0,-2,-1,0,1,0,1,2021-08-16 12:26:30.155674
0,0,-2,0,-1,-1,-1,0,2021-08-16 12:26:30.155674
0,-2,-1,0,0,0,0,-1,2021-08-16 12:26:30.169694
-1,-1,0,2,-1,-1,-2,-1,2021-08-16 12:26:30.169694
-1,-1,-1,-1,0,-1,1,-1,2021-08-16 12:26:30.171671
-2,-1,0,1,-1,-1,-2,-1,2021-08-16 12:26:30.171671
-1,-1,-1,-1,-2,-1,-1,0,2021-08-16 12:26:30.191670
-1,-1,-2,1,0,-1,-2,-1,2021-08-16 12:26:30.191670
0,0,1,2,0,-2,0,0,2021-08-16 12:26:30.193670
-2,-1,0,-1,0,-1,0,-2,2021-08-16 12:26:30.193670
0,0,0,-3,0,-1,0,-1,2021-08-16 12:26:30.214670
-3,0,-1,-1,-1,-1,-1,-2,2021-08-16 12:26:30.214670
0,0,-1,0,-2,0,-1,0,2021-08-16 12:26:30.215670
0,-2,-1,-1,-1,0,-1,-1,2021-08-16 12:26:30.215670
-1,-1,0,-1,-1,1,-1,-1,2021-08-16 12:26:30.227696
0,-2,0,-1,-1,-2,0,-1,2021-08-16 12:26:30.227696
-2,-1,-1,-3,0,-3,0,0,2021-08-16 12:26:30.236671
-2,-1,-1,-2,-3,-2,-2,-1,2021-08-16 12:26:30.236671
0,-3,-2,1,-1,-1,-1,0,2021-08-16 12:26:30.251707
0,-1,1,0,0,0,0,0,2021-08-16 12:26:30.251707
-1,-1,1,-1,-1,0,-2,0,2021-08-16 12:26:30.253671
-1,0,-2,0,0,-2,0,-3,2021-08-16 12:26:30.253671
0,-1,0,-1,-2,-1,0,-1,2021-08-16 12:26:30.273672
1,0,-1,-2,0,0,0,0,2021-08-16 12:26:30.273672
-1,-1,-2,-1,-1,0,0,-1,2021-08-16 12:26:30.281671
-1,0,-1,-1,-2,0,0,-1,2021-08-16 12:26:30.281671
1,1,-2,-2,-2,-2,-2,-4,2021-08-16 12:26:30.288703
0,-3,-1,0,-1,-1,-1,-2,2021-08-16 12:26:30.288703
0,-2,-1,-1,-2,-2,-1,-2,2021-08-16 12:26:30.295672
-1,-1,0,-1,-1,-1,-1,-1,2021-08-16 12:26:30.295672
-1,-2,1,-2,-1,-1,-1,0,2021-08-16 12:26:30.310706
0,1,-2,-1,-2,0,0,0,2021-08-16 12:26:30.310706
0,-1,-1,-1,-2,1,-3,-2,2021-08-16 12:26:30.319671
0,0,-1,0,0,-1,-1,0,2021-08-16 12:26:30.319671
-1,-1,0,0,0,0,-1,0,2021-08-16 12:26:30.334669
0,0,-2,0,-2,0,-2,-1,2021-08-16 12:26:30.334669
-1,1,0,1,-1,-1,-1,-1,2021-08-16 12:26:30.335671
-1,-1,0,0,-1,0,0,0,2021-08-16 12:26:30.336672
-2,-2,-1,1,-1,-1,-1,0,2021-08-16 12:26:30.348671
-2,-2,0,0,0,0,-1,0,2021-08-16 12:26:30.349671
0,-2,-1,-1,0,-2,-1,-1,2021-08-16 12:26:30.355672
0,-1,1,-2,-1,-2,-2,-1,2021-08-16 12:26:30.355672
-3,-1,-1,0,0,-4,-1,-1,2021-08-16 12:26:30.371674
-2,-1,0,-2,-1,-2,0,0,2021-08-16 12:26:30.371674
-1,-2,1,-2,-1,1,0,0,2021-08-16 12:26:30.373672
-2,0,-2,-2,-1,0,-1,0,2021-08-16 12:26:30.373672
-2,0,-1,-1,-2,1,-2,0,2021-08-16 12:26:30.394672
-1,-1,0,0,0,-1,0,-2,2021-08-16 12:26:30.394672
-1,0,-2,0,-1,-2,-1,-1,2021-08-16 12:26:30.395672
0,-2,-1,-1,0,0,-1,-1,2021-08-16 12:26:30.395672
0,0,-3,-1,-2,2,1,-1,2021-08-16 12:26:30.408671
1,-1,-1,-1,-1,-1,-1,0,2021-08-16 12:26:30.408671
0,1,-1,0,0,-1,-1,-1,2021-08-16 12:26:30.415673
-2,-2,1,-1,-2,-1,-1,0,2021-08-16 12:26:30.415673
0,-1,-1,-2,1,-1,0,-1,2021-08-16 12:26:30.431707
-1,-1,-1,-1,0,-2,-1,-1,2021-08-16 12:26:30.431707
-2,-1,-1,-1,-1,0,0,0,2021-08-16 12:26:30.433673
-2,-1,0,-1,-1,0,-1,0,2021-08-16 12:26:30.433673
-1,-1,-1,0,-1,-1,-1,-2,2021-08-16 12:26:30.454671
-2,-1,-1,0,-2,-1,-1,0,2021-08-16 12:26:30.454671
-1,0,-2,-1,-1,-1,1,0,2021-08-16 12:26:30.455672
0,0,0,-1,-1,-2,-2,1,2021-08-16 12:26:30.455672
