EMG 1,EMG 2,EMG 3,EMG 4,EMG 5,EMG 6,EMG 7,EMG 8,Timestamp
-2,-4,4,-1,-6,-4,0,-3,2021-08-06 17:32:04.885097
-4,-6,-1,-3,-5,2,-7,-2,2021-08-06 17:32:04.886097
-4,-4,3,-5,-2,-2,3,-3,2021-08-06 17:32:04.890097
-4,-5,2,-2,1,1,-1,1,2021-08-06 17:32:04.890097
-3,-2,-4,0,1,0,1,3,2021-08-06 17:32:04.890097
4,3,1,0,-6,-1,1,-3,2021-08-06 17:32:04.891099
1,-4,-1,-5,-2,1,0,1,2021-08-06 17:32:04.891099
0,-3,-1,0,-1,3,3,0,2021-08-06 17:32:04.891099
3,2,5,0,3,0,0,-2,2021-08-06 17:32:04.896098
-1,0,1,0,-2,-1,-2,-1,2021-08-06 17:32:04.896098
-1,-4,1,2,5,0,-1,3,2021-08-06 17:32:04.911097
-4,-2,-7,-1,0,-3,-3,2,2021-08-06 17:32:04.911097
-1,1,1,-1,-1,-4,1,2,2021-08-06 17:32:04.918102
0,-1,-2,4,1,-2,0,5,2021-08-06 17:32:04.919096
1,4,-3,-4,1,-5,-3,2,2021-08-06 17:32:04.927098
-1,3,0,-1,-1,1,2,2,2021-08-06 17:32:04.928097
-1,-3,0,-3,-1,-3,-1,0,2021-08-06 17:32:04.942122
1,4,-1,-3,-1,-1,13,5,2021-08-06 17:32:04.942122
-5,-2,-5,-3,0,-1,2,-1,2021-08-06 17:32:04.948128
1,3,3,5,0,0,6,-25,2021-08-06 17:32:04.949129
0,-2,-1,-2,-3,0,-6,-7,2021-08-06 17:32:04.956129
1,-3,0,-2,5,0,-7,6,2021-08-06 17:32:04.956129
5,-2,3,2,1,-3,-3,10,2021-08-06 17:32:04.971128
-2,-3,-4,-6,-5,-2,-1,19,2021-08-06 17:32:04.971128
8,-1,-3,1,2,-1,2,20,2021-08-06 17:32:04.978129
-1,1,-2,0,1,-3,1,6,2021-08-06 17:32:04.979129
1,2,-2,-1,1,-1,3,2,2021-08-06 17:32:04.987129
-2,-5,0,-2,3,-4,-11,-11,2021-08-06 17:32:04.987129
-4,-3,-1,3,2,2,-4,-16,2021-08-06 17:32:05.002128
-1,-2,0,-1,-1,3,-3,-13,2021-08-06 17:32:05.002128
-8,1,2,-2,-4,1,-6,-11,2021-08-06 17:32:05.008129
2,1,1,-5,-4,0,2,0,2021-08-06 17:32:05.009129
-3,3,-6,-7,1,2,-2,0,2021-08-06 17:32:05.016130
0,1,3,1,2,9,4,-2,2021-08-06 17:32:05.016130
2,-1,-2,0,2,10,2,-3,2021-08-06 17:32:05.031127
-5,-1,0,-2,-3,-3,-3,-1,2021-08-06 17:32:05.031127
-5,0,2,-3,-5,-2,2,-2,2021-08-06 17:32:05.038128
-5,0,0,-6,2,-4,-2,0,2021-08-06 17:32:05.039129
-1,3,1,4,-1,-5,2,0,2021-08-06 17:32:05.047140
-2,3,-1,1,-2,1,-2,2,2021-08-06 17:32:05.047140
-1,1,-4,0,3,1,-3,-1,2021-08-06 17:32:05.062130
-2,-1,-2,-6,-3,-4,0,9,2021-08-06 17:32:05.062130
7,-2,-1,-2,-4,0,-1,10,2021-08-06 17:32:05.068128
5,-4,1,0,2,-1,-4,14,2021-08-06 17:32:05.068128
0,1,0,-5,-8,-2,0,29,2021-08-06 17:32:05.085127
0,-4,-3,-5,1,-1,-5,67,2021-08-06 17:32:05.085127
-16,6,-2,-22,0,20,1,118,2021-08-06 17:32:05.091129
4,-6,-8,-2,-21,-22,-5,-92,2021-08-06 17:32:05.091129
1,-6,-1,0,-6,-10,-3,-104,2021-08-06 17:32:05.098129
0,-2,-1,-25,-28,-27,-15,-128,2021-08-06 17:32:05.098129
0,-5,0,-10,-6,-19,-12,-92,2021-08-06 17:32:05.107128
-3,-5,-3,26,21,24,14,120,2021-08-06 17:32:05.108130
-3,2,-3,-24,-14,-14,-14,-57,2021-08-06 17:32:05.122129
-2,-1,-4,31,21,20,19,72,2021-08-06 17:32:05.122129
0,6,4,-22,-23,-22,-22,-128,2021-08-06 17:32:05.128129
-1,-6,1,24,19,23,13,111,2021-08-06 17:32:05.129129
4,3,1,-30,-25,-26,-22,-109,2021-08-06 17:32:05.136128
1,-4,0,7,2,0,-8,-100,2021-08-06 17:32:05.136128
-1,-1,-4,-6,-9,-9,-12,-121,2021-08-06 17:32:05.151128
-5,1,-2,-16,-11,-10,-2,-111,2021-08-06 17:32:05.151128
-2,-2,1,10,7,13,24,30,2021-08-06 17:32:05.158129
-2,3,2,4,3,6,17,77,2021-08-06 17:32:05.158129
0,-6,-3,26,14,24,25,68,2021-08-06 17:32:05.167643
-2,6,3,-8,0,-5,-7,-61,2021-08-06 17:32:05.167643
1,-2,-5,23,23,17,5,32,2021-08-06 17:32:05.181641
0,1,3,-1,0,1,-6,-32,2021-08-06 17:32:05.181641
4,-2,-4,9,-2,-3,-6,-10,2021-08-06 17:32:05.188642
-3,7,4,-51,-32,-43,-34,-111,2021-08-06 17:32:05.188642
-5,2,4,-30,-23,-23,-20,-110,2021-08-06 17:32:05.195644
3,-5,-3,19,8,15,13,67,2021-08-06 17:32:05.195644
0,-6,1,4,3,2,8,52,2021-08-06 17:32:05.210643
0,-3,-4,-5,-3,2,1,-37,2021-08-06 17:32:05.211643
-1,-2,2,-2,-4,-5,3,8,2021-08-06 17:32:05.218642
2,3,-3,-11,-8,-11,-5,-15,2021-08-06 17:32:05.218642
1,2,-1,1,-6,-4,2,24,2021-08-06 17:32:05.227643
6,0,0,3,2,0,4,19,2021-08-06 17:32:05.227643
4,0,-1,7,1,7,-2,52,2021-08-06 17:32:05.241643
13,2,-5,-11,-9,-12,-11,-12,2021-08-06 17:32:05.241643
5,7,-3,0,2,-2,-5,-25,2021-08-06 17:32:05.248644
-4,4,1,-4,-2,-3,-10,-44,2021-08-06 17:32:05.248644
-4,-6,-2,1,6,8,0,-8,2021-08-06 17:32:05.255642
-9,2,3,-9,-2,-8,-12,-71,2021-08-06 17:32:05.256642
-12,-2,0,-8,-7,-6,-8,-49,2021-08-06 17:32:05.270643
-13,-7,-1,-4,-2,-1,-5,-3,2021-08-06 17:32:05.270643
-10,-1,1,9,3,7,2,19,2021-08-06 17:32:05.278643
-9,-7,3,-8,-8,-2,-2,-23,2021-08-06 17:32:05.278643
-15,-4,-1,-1,-1,-5,3,-19,2021-08-06 17:32:05.287642
-15,1,-2,-1,1,1,-3,5,2021-08-06 17:32:05.287642
2,1,-1,2,3,-1,6,10,2021-08-06 17:32:05.301643
-1,-1,0,-7,-5,-5,-3,-25,2021-08-06 17:32:05.301643
0,3,0,-3,2,-3,4,0,2021-08-06 17:32:05.308643
6,3,-1,-2,-3,6,-2,-3,2021-08-06 17:32:05.308643
8,1,-6,2,4,-4,-1,10,2021-08-06 17:32:05.315643
15,2,3,0,-1,0,4,5,2021-08-06 17:32:05.315643
23,-4,-1,-4,1,2,-7,1,2021-08-06 17:32:05.330642
16,1,-3,-1,-3,-1,-7,6,2021-08-06 17:32:05.330642
11,-2,1,1,-3,-2,1,13,2021-08-06 17:32:05.338642
9,3,6,0,1,-1,10,3,2021-08-06 17:32:05.338642
-2,-8,-1,-2,0,0,1,-2,2021-08-06 17:32:05.347642
-4,-9,-3,-4,5,-3,-7,-7,2021-08-06 17:32:05.347642
-6,3,-3,0,-2,-2,-1,9,2021-08-06 17:32:05.361642
-7,4,-2,0,-4,-5,2,-3,2021-08-06 17:32:05.361642
-8,1,1,-8,-2,0,-6,-13,2021-08-06 17:32:05.368642
-6,-3,-3,-1,-3,2,3,-5,2021-08-06 17:32:05.368642
-3,-4,0,3,4,1,4,8,2021-08-06 17:32:05.384643
-1,6,1,3,3,-2,5,0,2021-08-06 17:32:05.384643
-6,0,-8,0,5,-1,1,-4,2021-08-06 17:32:05.390643
-7,-13,-6,-3,-3,3,1,-1,2021-08-06 17:32:05.390643
0,3,2,0,0,2,-3,-1,2021-08-06 17:32:05.398642
3,5,1,-1,-5,-2,-1,-7,2021-08-06 17:32:05.398642
3,-2,-4,-1,-1,-2,-2,-2,2021-08-06 17:32:05.407642
4,-2,-1,5,4,4,0,-4,2021-08-06 17:32:05.407642
1,3,1,4,3,0,-1,5,2021-08-06 17:32:05.421641
1,0,-1,-2,-4,-4,-2,0,2021-08-06 17:32:05.421641
6,-1,1,3,-2,-7,3,1,2021-08-06 17:32:05.428643
-6,-4,-2,-3,-2,4,-1,-5,2021-08-06 17:32:05.428643
-1,-3,3,-2,0,2,-5,3,2021-08-06 17:32:05.435642
1,4,1,-1,0,-9,-4,-3,2021-08-06 17:32:05.436643
0,0,-3,-2,-1,0,-1,-6,2021-08-06 17:32:05.450642
-1,-5,0,3,2,1,-1,-2,2021-08-06 17:32:05.450642
-4,-2,1,-3,-7,-3,0,1,2021-08-06 17:32:05.458642
-2,2,-1,-3,-4,-6,0,-2,2021-08-06 17:32:05.458642
-6,3,3,-4,-3,-5,-2,-3,2021-08-06 17:32:05.467642
2,-5,-5,2,3,3,1,-2,2021-08-06 17:32:05.467642
-1,3,-3,0,-5,-2,0,4,2021-08-06 17:32:05.481641
1,7,1,3,0,-3,0,6,2021-08-06 17:32:05.481641
1,-5,-1,-3,2,-2,-1,2,2021-08-06 17:32:05.488644
-5,-7,-1,-7,-6,-4,-7,1,2021-08-06 17:32:05.488644
2,2,0,-2,0,1,-1,-5,2021-08-06 17:32:05.495642
5,9,3,5,1,2,3,2,2021-08-06 17:32:05.495642
-2,-3,-5,-3,-8,-2,-2,-4,2021-08-06 17:32:05.510642
-8,-9,-8,-6,-6,-7,-2,-9,2021-08-06 17:32:05.510642
-6,-9,-6,-2,-3,-3,-5,-4,2021-08-06 17:32:05.518643
3,7,4,-1,1,0,1,0,2021-08-06 17:32:05.518643
4,2,-3,-5,2,3,-1,-4,2021-08-06 17:32:05.533643
4,-26,-3,0,2,-3,-4,2,2021-08-06 17:32:05.533643
23,97,-1,5,3,-9,4,-9,2021-08-06 17:32:05.541642
-5,103,-16,-12,3,34,26,6,2021-08-06 17:32:05.541642
-30,127,14,12,-1,-16,-7,6,2021-08-06 17:32:05.548642
93,127,2,-8,0,-7,-19,2,2021-08-06 17:32:05.548642
-101,-9,2,2,-1,-9,-12,-2,2021-08-06 17:32:05.555642
-128,-101,5,6,1,-7,-3,-10,2021-08-06 17:32:05.555642
-100,-128,-4,-4,-7,4,8,-2,2021-08-06 17:32:05.570642
-1,-128,2,3,-1,1,10,2,2021-08-06 17:32:05.570642
67,-86,-2,-4,3,2,7,-2,2021-08-06 17:32:05.586642
104,63,-1,-9,-3,1,2,-7,2021-08-06 17:32:05.586642
115,-23,-2,2,5,4,-7,-8,2021-08-06 17:32:05.593643
110,66,10,9,-2,-8,-13,-6,2021-08-06 17:32:05.593643
-75,-30,-1,1,-6,4,0,-2,2021-08-06 17:32:05.601642
-114,36,3,2,-1,-1,-14,-11,2021-08-06 17:32:05.601642
-102,99,3,9,1,3,3,2,2021-08-06 17:32:05.608642
-61,127,10,11,-1,0,10,11,2021-08-06 17:32:05.608642
47,28,-2,-3,-3,11,14,3,2021-08-06 17:32:05.615643
75,-33,-6,0,20,-65,38,-17,2021-08-06 17:32:05.615643
105,-5,-1,3,111,-25,81,-38,2021-08-06 17:32:05.630642
100,-59,0,-9,127,20,-13,-16,2021-08-06 17:32:05.630642
127,-53,-1,-25,-74,-33,-97,77,2021-08-06 17:32:05.638641
83,-119,-1,-3,-109,-78,-100,71,2021-08-06 17:32:05.638641
-55,-25,-2,-7,-128,-73,3,48,2021-08-06 17:32:05.653644
-128,59,-8,-4,-19,77,74,-85,2021-08-06 17:32:05.653644
-95,127,-2,-3,120,127,74,-48,2021-08-06 17:32:05.661643
-81,127,-2,-17,99,-26,7,72,2021-08-06 17:32:05.661643
52,-17,-2,-3,78,106,-10,-2,2021-08-06 17:32:05.668642
-128,-83,1,5,-2,91,25,7,2021-08-06 17:32:05.668642
-102,-78,4,6,15,3,25,-67,2021-08-06 17:32:05.676642
9,-128,-1,2,-30,-3,4,-60,2021-08-06 17:32:05.676642
103,-82,-8,3,-30,-108,107,19,2021-08-06 17:32:05.692641
76,-83,-7,-4,-59,-128,109,41,2021-08-06 17:32:05.692641
-66,-62,-1,5,-24,-118,-85,10,2021-08-06 17:32:05.698641
-88,-128,-3,4,9,-109,-30,-2,2021-08-06 17:32:05.698641
-82,-119,0,-5,-6,-104,-128,10,2021-08-06 17:32:05.713642
79,-27,11,13,-3,-128,-24,15,2021-08-06 17:32:05.713642
127,92,10,10,-6,-128,122,20,2021-08-06 17:32:05.721643
5,116,2,7,19,86,127,-24,2021-08-06 17:32:05.721643
3,127,-1,2,2,102,45,-27,2021-08-06 17:32:05.728642
-12,36,2,1,-10,109,-112,22,2021-08-06 17:32:05.728642
28,103,-3,-18,5,72,-96,20,2021-08-06 17:32:05.735641
-66,-32,0,-13,1,-17,-128,-18,2021-08-06 17:32:05.735641
-62,-78,1,4,0,-75,-99,-8,2021-08-06 17:32:05.750643
-27,-82,-6,-14,3,-46,-121,9,2021-08-06 17:32:05.750643
46,-12,-6,-3,-2,10,-46,-15,2021-08-06 17:32:05.758642
125,-79,-5,-16,0,10,47,-38,2021-08-06 17:32:05.758642
7,-104,3,1,2,-18,104,-13,2021-08-06 17:32:05.773642
37,-49,73,-3,6,12,-77,-5,2021-08-06 17:32:05.773642
-111,-5,18,9,1,20,48,22,2021-08-06 17:32:05.781643
97,82,115,18,-2,8,-39,75,2021-08-06 17:32:05.781643
-122,127,80,64,4,-121,-83,-41,2021-08-06 17:32:05.788642
-111,103,-38,-59,15,76,56,91,2021-08-06 17:32:05.788642
127,53,-100,-56,-13,-42,-17,-111,2021-08-06 17:32:05.795643
38,74,-119,-64,11,39,127,95,2021-08-06 17:32:05.795643
4,53,-21,1,-86,97,106,53,2021-08-06 17:32:05.810642
-40,127,36,10,-106,52,-86,-3,2021-08-06 17:32:05.810642
-99,57,123,0,47,108,-106,21,2021-08-06 17:32:05.818642
71,114,-62,66,-120,-104,-128,-44,2021-08-06 17:32:05.819646
127,-72,109,92,4,-48,-104,37,2021-08-06 17:32:05.833643
-55,55,98,108,49,-11,55,-2,2021-08-06 17:32:05.833643
-108,-128,22,-89,67,-126,-74,-8,2021-08-06 17:32:05.841643
-128,-128,-44,-65,-29,-92,-116,-119,2021-08-06 17:32:05.841643
-128,-111,-128,-84,-73,-92,-118,-39,2021-08-06 17:32:05.855643
47,42,-128,-32,2,-128,-37,-9,2021-08-06 17:32:05.855643
127,86,-37,33,-104,-94,-47,16,2021-08-06 17:32:05.864644
47,125,62,-6,-61,-15,-41,-38,2021-08-06 17:32:05.864644
14,127,66,-28,-84,65,-75,-40,2021-08-06 17:32:05.879642
-41,-124,127,-22,-34,-55,-61,-21,2021-08-06 17:32:05.879642
84,-117,120,41,13,77,84,42,2021-08-06 17:32:05.879642
-47,-94,-74,3,14,127,100,20,2021-08-06 17:32:05.879642
-92,-84,-103,-27,5,127,127,25,2021-08-06 17:32:05.894641
-50,-101,-128,-11,28,34,124,18,2021-08-06 17:32:05.894641
48,85,82,11,5,-18,107,61,2021-08-06 17:32:05.901641
-8,21,127,8,16,3,64,25,2021-08-06 17:32:05.901641
127,-52,44,-40,61,-14,-2,-44,2021-08-06 17:32:05.915641
115,40,-61,-73,15,-38,-82,-104,2021-08-06 17:32:05.915641
24,38,52,33,-33,-54,-115,-17,2021-08-06 17:32:05.924644
56,-36,-71,60,32,-40,-116,104,2021-08-06 17:32:05.924644
82,95,-84,6,34,-79,-128,124,2021-08-06 17:32:05.939642
-71,-90,-67,126,-12,-68,-101,58,2021-08-06 17:32:05.940643
-4,-128,-16,123,-10,-37,-68,10,2021-08-06 17:32:05.940643
3,-26,-16,115,27,-38,-128,-80,2021-08-06 17:32:05.940643
-119,9,20,60,24,-27,32,-121,2021-08-06 17:32:05.953643
43,-3,-57,-33,28,-19,-80,33,2021-08-06 17:32:05.953643
26,127,-111,-103,72,-101,-48,-90,2021-08-06 17:32:05.962644
-77,-34,-100,-89,92,-91,-29,35,2021-08-06 17:32:05.962644
28,37,54,-109,10,-128,85,-45,2021-08-06 17:32:05.975642
-29,117,-90,-39,-71,-13,-12,36,2021-08-06 17:32:05.976644
62,-115,14,-51,8,107,-33,127,2021-08-06 17:32:05.991643
75,-89,-91,71,-40,109,54,-108,2021-08-06 17:32:05.991643
-73,-1,-6,70,54,126,-32,-54,2021-08-06 17:32:05.999644
-81,-58,107,2,119,68,-15,-103,2021-08-06 17:32:05.999644
-128,-83,15,-50,-111,-13,-22,-128,2021-08-06 17:32:06.000643
-105,-23,120,-32,90,55,103,40,2021-08-06 17:32:06.000643
-104,78,72,59,-17,-36,55,105,2021-08-06 17:32:06.013642
-32,24,120,31,35,-113,73,73,2021-08-06 17:32:06.013642
45,106,-113,84,115,-118,-45,3,2021-08-06 17:32:06.021642
-128,-62,124,111,64,74,28,-128,2021-08-06 17:32:06.021642
-75,7,-10,14,-76,39,-54,-55,2021-08-06 17:32:06.036643
-14,25,48,-109,-76,45,75,-2,2021-08-06 17:32:06.036643
39,20,73,-54,-55,28,-37,119,2021-08-06 17:32:06.044644
125,112,-2,-82,-42,26,-18,117,2021-08-06 17:32:06.044644
127,33,43,-1,-4,-18,-26,119,2021-08-06 17:32:06.067643
127,41,-59,-37,-116,-40,1,-30,2021-08-06 17:32:06.067643
6,0,-3,56,-73,1,-34,-107,2021-08-06 17:32:06.068643
-55,-45,86,5,-76,20,-46,-81,2021-08-06 17:32:06.068643
-71,-20,-20,85,10,-23,-47,-58,2021-08-06 17:32:06.073643
-115,19,95,126,-46,27,-42,-116,2021-08-06 17:32:06.073643
-99,111,9,-21,-40,-72,-77,-79,2021-08-06 17:32:06.089643
9,127,57,-128,-105,-111,-109,-104,2021-08-06 17:32:06.089643
-71,38,-74,-128,104,-89,-128,103,2021-08-06 17:32:06.089643
-23,42,-60,-100,17,-27,-38,71,2021-08-06 17:32:06.089643
38,-128,26,-34,99,116,127,123,2021-08-06 17:32:06.112642
113,-123,35,24,92,72,48,127,2021-08-06 17:32:06.112642
127,-89,127,86,111,71,84,66,2021-08-06 17:32:06.118641
122,-74,33,114,-62,63,81,117,2021-08-06 17:32:06.118641
-57,-106,-50,3,40,56,127,101,2021-08-06 17:32:06.127643
-105,-74,22,-83,-52,53,127,78,2021-08-06 17:32:06.127643
-102,-45,-18,-51,-49,116,106,10,2021-08-06 17:32:06.142642
-93,-6,-70,69,-9,84,124,-57,2021-08-06 17:32:06.142642
-13,96,-118,-62,-128,22,1,-66,2021-08-06 17:32:06.143643
-6,127,-121,78,-126,-19,-125,-112,2021-08-06 17:32:06.143643
-6,127,-128,-97,-128,-118,-128,-128,2021-08-06 17:32:06.148642
1,108,-93,-101,-89,-128,-128,-128,2021-08-06 17:32:06.148642
-128,127,-96,-11,-1,85,-93,-128,2021-08-06 17:32:06.164644
-128,-25,73,-79,79,60,72,-125,2021-08-06 17:32:06.164644
104,112,-91,86,64,-16,-120,84,2021-08-06 17:32:06.170643
-79,37,127,24,82,75,92,-41,2021-08-06 17:32:06.170643
112,-112,-76,-102,-90,-101,-44,107,2021-08-06 17:32:06.187642
88,-84,81,-116,95,66,-16,-92,2021-08-06 17:32:06.187642
76,-128,73,17,-43,-33,94,47,2021-08-06 17:32:06.209643
37,23,-26,-24,22,-91,-128,122,2021-08-06 17:32:06.209643
-128,74,106,-48,-19,-98,-55,31,2021-08-06 17:32:06.211643
-76,100,-128,-49,-128,-128,-116,63,2021-08-06 17:32:06.211643
-28,-52,104,-75,-44,77,-83,-44,2021-08-06 17:32:06.232644
13,-64,55,30,53,127,-101,-41,2021-08-06 17:32:06.232644
-111,-123,55,107,100,127,11,-111,2021-08-06 17:32:06.233643
-39,-80,69,100,121,-30,6,-69,2021-08-06 17:32:06.233643
-24,-92,-10,93,89,-62,-101,-128,2021-08-06 17:32:06.254643
17,-128,64,97,69,-128,-107,-105,2021-08-06 17:32:06.254643
127,-128,-84,-3,-92,-128,-111,62,2021-08-06 17:32:06.256642
-52,21,-96,99,91,-74,-8,127,2021-08-06 17:32:06.256642
-128,127,61,100,110,106,99,127,2021-08-06 17:32:06.268642
-112,119,47,105,46,105,127,26,2021-08-06 17:32:06.268642
53,127,60,111,-17,-25,127,-123,2021-08-06 17:32:06.283643
127,127,123,-2,-121,-89,105,77,2021-08-06 17:32:06.283643
127,-30,39,-109,-115,-43,23,66,2021-08-06 17:32:06.291642
105,-101,-13,-128,-121,60,113,71,2021-08-06 17:32:06.291642
-115,-88,48,-76,-10,127,37,-46,2021-08-06 17:32:06.298642
-120,-35,-128,-103,-128,-78,-117,-73,2021-08-06 17:32:06.298642
-80,-2,-5,-126,-93,-114,-109,-34,2021-08-06 17:32:06.314665
28,41,84,-123,11,-67,-6,105,2021-08-06 17:32:06.314665
26,44,-27,-73,17,-25,2,38,2021-08-06 17:32:06.316665
63,29,85,29,61,35,44,88,2021-08-06 17:32:06.316665
71,33,-59,-27,57,52,61,-10,2021-08-06 17:32:06.337666
71,-73,-72,-57,-73,-61,-70,-75,2021-08-06 17:32:06.337666
-17,-18,88,38,50,34,73,53,2021-08-06 17:32:06.338667
38,-80,-51,-22,-13,-8,-67,-51,2021-08-06 17:32:06.338667
29,-42,-58,29,22,74,9,-51,2021-08-06 17:32:06.360666
38,-45,19,41,34,-4,43,7,2021-08-06 17:32:06.360666
42,-16,-25,28,-35,-64,-48,-43,2021-08-06 17:32:06.361667
18,1,6,-41,49,71,31,46,2021-08-06 17:32:06.362667
17,-3,-22,40,7,10,42,-24,2021-08-06 17:32:06.382668
19,19,-82,9,-19,-11,-59,-56,2021-08-06 17:32:06.382668
-25,46,4,-4,70,18,38,53,2021-08-06 17:32:06.383666
-62,-45,-64,-82,102,104,54,63,2021-08-06 17:32:06.383666
-83,5,-114,41,-84,84,23,-18,2021-08-06 17:32:06.405665
-56,64,77,97,35,30,-2,-79,2021-08-06 17:32:06.406666
-4,32,67,84,-12,20,31,-66,2021-08-06 17:32:06.407668
6,-29,-54,-54,-121,-101,-87,70,2021-08-06 17:32:06.407668
-41,4,-49,-45,-43,-88,-41,39,2021-08-06 17:32:06.408668
14,52,-12,-23,-19,-48,-19,17,2021-08-06 17:32:06.408668
-24,-20,46,-81,25,-2,19,-5,2021-08-06 17:32:06.411668
-24,-60,74,-10,24,-90,-16,-23,2021-08-06 17:32:06.411668
-37,-1,43,-61,64,39,54,41,2021-08-06 17:32:06.412667
-45,-52,-82,-37,-4,22,-13,-22,2021-08-06 17:32:06.412667
-72,13,-61,-45,-2,8,-55,-16,2021-08-06 17:32:06.419667
106,0,32,78,71,68,74,38,2021-08-06 17:32:06.419667
75,-23,13,3,10,11,-17,-11,2021-08-06 17:32:06.433666
106,43,-70,-15,-32,-28,-59,-81,2021-08-06 17:32:06.433666
-35,-2,9,73,28,-12,27,-5,2021-08-06 17:32:06.442668
10,41,-117,-67,-115,-78,-121,-127,2021-08-06 17:32:06.442668
-57,107,66,79,-84,26,28,5,2021-08-06 17:32:06.455665
85,20,104,-128,-75,-112,-68,-75,2021-08-06 17:32:06.455665
-89,-111,71,-80,-127,54,-2,109,2021-08-06 17:32:06.464666
-104,127,-58,94,-32,-82,120,-115,2021-08-06 17:32:06.464666
80,61,-78,-55,-21,-7,111,-128,2021-08-06 17:32:06.470666
-128,117,48,1,59,47,108,-2,2021-08-06 17:32:06.470666
22,-62,-99,33,69,20,-99,-67,2021-08-06 17:32:06.479666
59,99,102,106,27,127,-128,42,2021-08-06 17:32:06.479666
44,-128,36,-68,49,-128,-124,16,2021-08-06 17:32:06.493667
44,55,10,-119,46,-46,31,125,2021-08-06 17:32:06.493667
127,127,-39,-47,30,-17,43,67,2021-08-06 17:32:06.502665
84,-128,95,38,120,-117,80,116,2021-08-06 17:32:06.502665
36,-81,-51,-26,106,-65,58,-16,2021-08-06 17:32:06.516667
-99,-128,-7,103,96,-44,115,71,2021-08-06 17:32:06.516667
-113,-84,-7,39,17,-91,115,-74,2021-08-06 17:32:06.525176
-128,-68,-38,-102,50,-62,127,44,2021-08-06 17:32:06.525176
-77,-28,41,23,-74,-100,-99,-93,2021-08-06 17:32:06.531183
101,-98,-17,38,-128,-128,-118,-77,2021-08-06 17:32:06.531183
-84,-84,20,-83,-120,-87,-80,-117,2021-08-06 17:32:06.540183
-82,-102,68,-26,-128,76,6,-77,2021-08-06 17:32:06.540183
-89,67,86,-10,-66,55,25,127,2021-08-06 17:32:06.553184
-32,-23,16,-6,-86,119,25,24,2021-08-06 17:32:06.553184
119,76,16,127,-4,57,22,127,2021-08-06 17:32:06.562183
91,96,72,-47,22,60,1,-46,2021-08-06 17:32:06.562183
52,33,93,71,47,70,20,93,2021-08-06 17:32:06.576186
51,72,81,-110,68,76,5,66,2021-08-06 17:32:06.576186
92,-92,90,-121,62,17,18,59,2021-08-06 17:32:06.593186
0,-128,-35,-88,14,27,-14,-22,2021-08-06 17:32:06.593186
-17,-79,-60,90,29,40,-4,-75,2021-08-06 17:32:06.594184
-7,-67,-121,120,44,37,-58,83,2021-08-06 17:32:06.594184
3,18,-66,-71,9,-26,58,127,2021-08-06 17:32:06.600183
29,-63,58,72,10,17,97,-8,2021-08-06 17:32:06.600183
55,59,-30,-16,5,14,120,-88,2021-08-06 17:32:06.613184
-72,-98,-81,117,16,0,127,-10,2021-08-06 17:32:06.614185
57,-58,-91,52,8,-12,5,-75,2021-08-06 17:32:06.622201
-63,-2,-71,127,-6,10,-128,-55,2021-08-06 17:32:06.623201
-77,14,-20,-97,2,5,-112,-107,2021-08-06 17:32:06.636183
-47,-86,-11,1,2,2,-103,96,2021-08-06 17:32:06.636183
15,29,17,-43,3,-5,-128,13,2021-08-06 17:32:06.645198
45,23,-65,108,-2,7,32,-35,2021-08-06 17:32:06.645198
17,1,23,-65,-7,-6,-86,76,2021-08-06 17:32:06.651194
20,46,-116,-128,8,6,-85,5,2021-08-06 17:32:06.651194
-24,-39,115,127,1,-7,-85,-32,2021-08-06 17:32:06.660184
-64,83,-104,-70,-3,-4,-128,-71,2021-08-06 17:32:06.660184
-128,91,-104,127,-2,1,-104,93,2021-08-06 17:32:06.674183
-115,0,-99,75,2,4,-76,-1,2021-08-06 17:32:06.674183
30,-41,25,56,2,-6,87,70,2021-08-06 17:32:06.690187
-107,116,-114,56,-6,-1,-39,-66,2021-08-06 17:32:06.690187
-25,-128,-37,-121,-1,3,-68,-96,2021-08-06 17:32:06.696184
80,-15,-66,61,4,4,-8,-128,2021-08-06 17:32:06.696184
-128,50,17,127,-3,-9,-38,49,2021-08-06 17:32:06.705197
59,100,-86,-123,-2,1,-4,127,2021-08-06 17:32:06.705197
7,-92,115,127,-2,0,60,47,2021-08-06 17:32:06.711184
40,-119,-70,78,1,-1,-115,20,2021-08-06 17:32:06.711184
-15,76,-120,102,-1,-8,39,-55,2021-08-06 17:32:06.720184
-96,-88,127,4,-2,0,-115,103,2021-08-06 17:32:06.720184
-33,38,-66,10,0,-1,40,35,2021-08-06 17:32:06.742182
-87,-44,115,105,0,-1,20,74,2021-08-06 17:32:06.742182
-3,-19,18,-119,0,-1,-22,-113,2021-08-06 17:32:06.744184
89,-12,91,127,-1,1,79,127,2021-08-06 17:32:06.744184
40,63,-37,111,72,-3,19,38,2021-08-06 17:32:06.756184
-36,24,-52,66,23,1,-74,-68,2021-08-06 17:32:06.756184
11,-15,32,-76,44,-2,-114,-50,2021-08-06 17:32:06.765183
78,33,-121,-86,84,-2,59,-71,2021-08-06 17:32:06.765183
-7,-25,-3,-128,-114,0,127,-51,2021-08-06 17:32:06.771183
93,104,-14,-40,-44,0,37,-46,2021-08-06 17:32:06.771183
85,36,-128,-75,63,-2,-128,-34,2021-08-06 17:32:06.780183
83,10,-62,30,-120,0,65,-57,2021-08-06 17:32:06.780183
-3,85,-43,3,-76,1,108,-5,2021-08-06 17:32:06.802183
6,47,64,-128,-128,0,127,-26,2021-08-06 17:32:06.802183
-128,-44,120,12,-64,-2,-43,-16,2021-08-06 17:32:06.804186
83,72,-13,17,21,1,30,-20,2021-08-06 17:32:06.804186
43,103,-35,-35,24,-1,-9,-1,2021-08-06 17:32:06.825200
-102,-10,123,-53,29,-1,101,-15,2021-08-06 17:32:06.825200
-74,-19,-54,17,15,-1,127,-6,2021-08-06 17:32:06.826184
-128,-95,-24,87,34,0,31,0,2021-08-06 17:32:06.826184
-110,-128,106,36,5,0,20,3,2021-08-06 17:32:06.831183
-90,127,78,73,46,-1,77,-17,2021-08-06 17:32:06.831183
-82,-67,-75,-72,2,0,127,5,2021-08-06 17:32:06.846184
-91,44,33,-77,-20,0,-41,-2,2021-08-06 17:32:06.846184
34,-59,-128,104,23,0,-96,1,2021-08-06 17:32:06.853184
86,3,59,-128,26,0,-49,-7,2021-08-06 17:32:06.853184
108,-32,-15,-46,-27,-1,-98,1,2021-08-06 17:32:06.862185
5,68,78,-63,-16,22,-80,-3,2021-08-06 17:32:06.862185
-17,100,119,-41,19,-17,-80,0,2021-08-06 17:32:06.876183
-64,-79,114,82,18,71,91,0,2021-08-06 17:32:06.876183
-34,127,-124,83,-28,75,19,-72,2021-08-06 17:32:06.885183
-51,-47,-87,16,2,20,-8,11,2021-08-06 17:32:06.885183
-31,-55,-105,111,13,-37,-58,-53,2021-08-06 17:32:06.891182
-50,-84,-128,112,-4,9,-22,-103,2021-08-06 17:32:06.891182
75,-43,127,-105,-8,-1,10,121,2021-08-06 17:32:06.906182
86,-67,127,44,1,-75,15,-109,2021-08-06 17:32:06.906182
72,-75,-80,57,-1,-43,-66,-36,2021-08-06 17:32:06.913183
52,-40,-110,-46,-2,-6,-26,115,2021-08-06 17:32:06.914183
61,-27,26,-22,-4,62,127,-110,2021-08-06 17:32:06.922185
-128,6,13,-77,1,108,32,116,2021-08-06 17:32:06.922185
44,-9,51,-128,-4,89,21,92,2021-08-06 17:32:06.936198
119,18,48,-70,6,-20,-17,36,2021-08-06 17:32:06.936198
-103,32,-128,42,-3,-68,-58,12,2021-08-06 17:32:06.945185
82,-7,65,-15,-8,-102,8,82,2021-08-06 17:32:06.945185
-39,92,127,36,3,-92,-49,-30,2021-08-06 17:32:06.951185
-107,76,114,67,4,22,-12,127,2021-08-06 17:32:06.951185
52,-42,29,80,66,34,-44,76,2021-08-06 17:32:06.966185
104,-39,3,127,109,38,-62,85,2021-08-06 17:32:06.966185
117,-128,-84,93,127,55,29,46,2021-08-06 17:32:06.973184
98,21,36,72,127,11,-52,-113,2021-08-06 17:32:06.973184
30,127,45,46,-65,21,-113,-78,2021-08-06 17:32:06.982183
-76,54,-89,-16,-116,12,-39,-128,2021-08-06 17:32:06.982183
-98,60,17,-13,-128,48,-38,-12,2021-08-06 17:32:06.996184
-117,-53,-128,-44,-128,21,23,91,2021-08-06 17:32:06.996184
-128,-116,-116,44,-84,14,8,127,2021-08-06 17:32:07.005183
-20,-120,-122,62,30,125,82,121,2021-08-06 17:32:07.005183
-1,-118,-107,73,89,127,67,126,2021-08-06 17:32:07.011182
66,-128,-128,100,127,83,127,92,2021-08-06 17:32:07.011182
91,-86,-70,127,24,106,126,110,2021-08-06 17:32:07.026183
87,-16,-48,-58,-60,114,-61,-23,2021-08-06 17:32:07.026183
127,45,31,-119,-103,113,-79,-67,2021-08-06 17:32:07.033183
127,127,66,-128,-116,3,-128,-127,2021-08-06 17:32:07.033183
-12,127,59,-128,-76,-107,-121,-108,2021-08-06 17:32:07.042185
-95,115,39,-121,-112,-128,-61,-97,2021-08-06 17:32:07.043194
-128,110,78,-127,-125,-128,-5,-123,2021-08-06 17:32:07.056182
-128,58,-13,-128,-128,-103,-42,-128,2021-08-06 17:32:07.056182
-98,37,57,-56,-112,-90,14,-128,2021-08-06 17:32:07.065183
-88,-48,-4,-40,-97,-79,34,-101,2021-08-06 17:32:07.065183
-74,-22,33,-13,-79,-65,21,-54,2021-08-06 17:32:07.079184
-42,-34,13,-25,-78,-54,15,-41,2021-08-06 17:32:07.079184
16,-37,8,18,-37,-37,23,-1,2021-08-06 17:32:07.086182
0,-34,-10,-6,-13,-51,16,-1,2021-08-06 17:32:07.086182
7,-35,-64,-48,9,-46,28,9,2021-08-06 17:32:07.102182
6,-27,-27,-66,-14,-54,7,29,2021-08-06 17:32:07.103191
30,-4,-12,-71,-99,-18,10,5,2021-08-06 17:32:07.104185
37,29,55,37,-121,18,3,26,2021-08-06 17:32:07.104185
14,15,5,115,36,-12,27,21,2021-08-06 17:32:07.124184
-19,7,-5,127,99,-12,14,9,2021-08-06 17:32:07.125184
11,4,-6,57,127,-9,-1,22,2021-08-06 17:32:07.131182
27,-1,-19,-28,68,2,23,28,2021-08-06 17:32:07.131182
25,-15,-11,-76,-69,-11,12,30,2021-08-06 17:32:07.147183
13,-2,67,-33,-66,38,-3,10,2021-08-06 17:32:07.147183
32,29,-29,-44,-46,99,-2,22,2021-08-06 17:32:07.149184
42,13,-12,-20,-10,100,11,8,2021-08-06 17:32:07.149184
33,-38,-17,-22,5,95,13,1,2021-08-06 17:32:07.162184
11,27,-52,-9,10,68,8,-8,2021-08-06 17:32:07.162184
7,5,-44,13,1,31,8,0,2021-08-06 17:32:07.164184
-34,42,19,13,36,-28,14,-18,2021-08-06 17:32:07.164184
-2,43,16,7,11,-8,12,8,2021-08-06 17:32:07.176184
7,71,-34,-3,-1,-36,5,-3,2021-08-06 17:32:07.176184
14,39,-5,4,9,-21,2,12,2021-08-06 17:32:07.185184
-1,32,-46,8,14,-30,-11,19,2021-08-06 17:32:07.185184
-35,15,10,2,2,-32,-7,6,2021-08-06 17:32:07.199184
-11,9,1,-11,-14,-21,-14,16,2021-08-06 17:32:07.199184
1,-4,33,7,5,-26,3,6,2021-08-06 17:32:07.206183
5,-23,10,8,7,-16,6,2,2021-08-06 17:32:07.206183
12,-12,21,9,-1,-14,7,13,2021-08-06 17:32:07.222182
6,-24,12,4,2,-1,6,-6,2021-08-06 17:32:07.222182
0,-18,96,13,-2,-17,-1,-1,2021-08-06 17:32:07.224183
4,-30,9,0,8,-6,6,4,2021-08-06 17:32:07.224183
6,3,-26,-3,2,-1,3,3,2021-08-06 17:32:07.236183
-1,-2,4,3,1,-4,7,-8,2021-08-06 17:32:07.236705
-1,-21,12,3,4,-5,6,-3,2021-08-06 17:32:07.245207
5,5,0,6,5,-4,4,-2,2021-08-06 17:32:07.245207
-5,-17,-31,-1,1,3,3,3,2021-08-06 17:32:07.259207
-3,-7,15,4,-6,-7,-4,-2,2021-08-06 17:32:07.259207
8,-1,-70,-2,-2,9,-2,-1,2021-08-06 17:32:07.266207
-9,-12,51,6,1,-13,2,3,2021-08-06 17:32:07.266207
1,10,19,2,0,-10,2,3,2021-08-06 17:32:07.282205
-5,-11,-26,10,2,4,1,-2,2021-08-06 17:32:07.282205
6,-1,-48,-8,5,-2,1,3,2021-08-06 17:32:07.284208
4,-3,-28,-12,2,4,-3,1,2021-08-06 17:32:07.284208
-1,16,1,3,-6,-3,-2,-2,2021-08-06 17:32:07.296208
-3,-35,-8,2,-6,4,-3,12,2021-08-06 17:32:07.296208
0,7,55,-4,5,1,1,-10,2021-08-06 17:32:07.305207
14,3,-17,4,-1,9,0,5,2021-08-06 17:32:07.305207
11,2,-41,-9,-2,3,5,-2,2021-08-06 17:32:07.319206
-6,2,26,3,1,-7,0,-4,2021-08-06 17:32:07.319206
-6,-16,7,-4,-2,1,-2,-7,2021-08-06 17:32:07.326207
-3,-7,-8,-7,-7,-3,-13,4,2021-08-06 17:32:07.326207
8,-4,-4,0,2,-5,3,2,2021-08-06 17:32:07.342208
-2,-2,-19,10,2,-5,-1,-1,2021-08-06 17:32:07.342208
-9,-2,-20,-3,-4,-2,-6,11,2021-08-06 17:32:07.344207
10,6,12,-1,0,3,3,-6,2021-08-06 17:32:07.344207
-2,-7,16,3,-2,5,-2,8,2021-08-06 17:32:07.356208
1,7,3,-5,0,-1,2,1,2021-08-06 17:32:07.356208
-4,11,62,3,5,-7,1,-8,2021-08-06 17:32:07.365207
12,-5,-37,2,-8,6,2,8,2021-08-06 17:32:07.365207
-7,8,-24,-1,3,-3,0,3,2021-08-06 17:32:07.379208
-5,16,14,14,4,-2,0,-9,2021-08-06 17:32:07.379208
0,-40,10,-15,-8,10,0,0,2021-08-06 17:32:07.386208
6,5,-37,-3,1,-1,-2,-3,2021-08-06 17:32:07.386208
-2,9,44,10,2,-11,-1,-9,2021-08-06 17:32:07.402207
-7,-3,0,3,1,0,-4,-5,2021-08-06 17:32:07.402207
3,0,-23,8,2,-5,1,1,2021-08-06 17:32:07.404208
4,17,35,-1,0,-1,0,1,2021-08-06 17:32:07.404208
-3,-3,14,8,0,-4,2,-4,2021-08-06 17:32:07.416207
-8,-22,-9,-5,-3,-3,-3,-5,2021-08-06 17:32:07.416207
5,17,11,2,1,-11,2,0,2021-08-06 17:32:07.432205
-3,-1,29,-4,-2,2,3,-1,2021-08-06 17:32:07.432205
-3,-10,-48,-3,-2,3,-1,0,2021-08-06 17:32:07.439205
-8,-10,25,-10,-4,1,-3,-3,2021-08-06 17:32:07.439205
9,7,-17,2,0,1,1,6,2021-08-06 17:32:07.446228
2,0,10,1,0,2,-4,2,2021-08-06 17:32:07.446228
2,-2,3,0,1,2,3,-5,2021-08-06 17:32:07.462720
-11,4,-7,-2,-4,-2,-2,6,2021-08-06 17:32:07.462720
4,3,-14,10,2,-4,4,-4,2021-08-06 17:32:07.463720
1,2,33,-9,-1,0,1,-6,2021-08-06 17:32:07.463720
3,-12,10,0,-4,-1,0,-4,2021-08-06 17:32:07.475718
-1,11,-17,6,1,-1,0,-1,2021-08-06 17:32:07.475718
-3,9,19,1,0,1,3,0,2021-08-06 17:32:07.484719
3,3,-7,1,0,2,0,1,2021-08-06 17:32:07.484719
-5,14,9,4,-1,-2,-1,2,2021-08-06 17:32:07.499719
-3,1,-8,7,0,-1,2,1,2021-08-06 17:32:07.499719
-1,0,-15,7,2,-1,1,0,2021-08-06 17:32:07.505718
-2,-6,33,-9,-4,-2,-1,-5,2021-08-06 17:32:07.505718
-4,0,-16,2,-1,-1,-3,3,2021-08-06 17:32:07.522719
1,-8,20,6,0,-3,0,-2,2021-08-06 17:32:07.522719
-4,6,-13,4,2,-1,0,3,2021-08-06 17:32:07.523720
-3,-7,-11,0,7,0,3,7,2021-08-06 17:32:07.524722
-6,6,-6,5,-2,4,-2,0,2021-08-06 17:32:07.535718
14,-25,-54,-8,-6,2,-3,-4,2021-08-06 17:32:07.536720
-2,-8,-47,-3,-2,1,0,4,2021-08-06 17:32:07.544719
0,10,12,-7,-2,-5,0,-6,2021-08-06 17:32:07.544719
-1,-12,-30,-5,0,1,0,-7,2021-08-06 17:32:07.558720
-4,21,17,3,8,-1,3,11,2021-08-06 17:32:07.559723
1,-11,19,-1,-4,-1,-3,5,2021-08-06 17:32:07.565719
4,5,-21,-3,0,0,-5,0,2021-08-06 17:32:07.565719
-6,-5,79,-2,4,-6,0,4,2021-08-06 17:32:07.604720
2,-2,1,0,1,-4,1,-7,2021-08-06 17:32:07.604720
-3,0,15,0,-3,1,-3,-8,2021-08-06 17:32:07.610720
-5,-8,33,3,-3,-1,-1,-4,2021-08-06 17:32:07.610720
2,20,23,6,5,4,1,9,2021-08-06 17:32:07.626720
-16,-17,30,2,-6,-1,-4,-1,2021-08-06 17:32:07.627719
-13,14,63,1,3,-1,-2,-10,2021-08-06 17:32:07.634719
-8,-8,12,-3,-2,0,-2,5,2021-08-06 17:32:07.634719
6,9,57,-2,3,0,0,-3,2021-08-06 17:32:07.642719
6,13,-3,-16,-3,6,2,0,2021-08-06 17:32:07.642719
7,-18,32,-2,2,6,1,6,2021-08-06 17:32:07.643720
5,0,56,-4,-9,4,0,0,2021-08-06 17:32:07.643720
8,-10,9,-15,-5,8,-4,2,2021-08-06 17:32:07.656718
11,15,61,0,0,2,-1,1,2021-08-06 17:32:07.656718
13,5,38,-6,2,3,1,0,2021-08-06 17:32:07.657720
15,5,25,-7,0,3,-1,9,2021-08-06 17:32:07.657720
6,0,18,-1,-3,3,-3,4,2021-08-06 17:32:07.672228
9,10,27,-6,-1,10,1,2,2021-08-06 17:32:07.672228
4,-3,23,-7,-6,0,-4,7,2021-08-06 17:32:07.674230
18,9,0,-6,-2,5,-4,3,2021-08-06 17:32:07.674230
15,1,-5,2,-1,6,-1,3,2021-08-06 17:32:07.685743
11,1,63,1,0,3,-1,1,2021-08-06 17:32:07.685743
11,2,-2,-8,-13,6,-4,1,2021-08-06 17:32:07.694741
13,-5,-2,-17,2,4,-2,0,2021-08-06 17:32:07.694741
9,-3,32,6,-6,5,0,17,2021-08-06 17:32:07.709743
14,8,-12,3,-3,6,1,0,2021-08-06 17:32:07.709743
10,-16,75,-5,-7,1,-5,3,2021-08-06 17:32:07.711744
14,2,-13,8,-4,4,1,6,2021-08-06 17:32:07.711744
9,12,10,2,-3,6,1,4,2021-08-06 17:32:07.732744
12,1,7,-15,-3,2,1,3,2021-08-06 17:32:07.732744
15,20,-19,26,-2,6,0,5,2021-08-06 17:32:07.733743
10,-4,13,12,-1,2,1,3,2021-08-06 17:32:07.733743
12,5,51,1,0,3,-2,-3,2021-08-06 17:32:07.745743
8,-2,8,4,-2,-2,-5,10,2021-08-06 17:32:07.746742
8,12,-14,-1,-1,2,-5,9,2021-08-06 17:32:07.754743
11,0,14,-5,-9,2,-2,-13,2021-08-06 17:32:07.754743
10,1,-30,10,0,3,-2,1,2021-08-06 17:32:07.769742
7,-4,17,9,-2,0,2,-5,2021-08-06 17:32:07.769742
14,19,16,-5,-7,6,-2,3,2021-08-06 17:32:07.771743
10,7,7,16,0,-2,-1,7,2021-08-06 17:32:07.771743
-10,-26,-33,0,-5,1,-2,-8,2021-08-06 17:32:07.792742
5,-12,50,8,-4,2,-2,-6,2021-08-06 17:32:07.792742
-2,-8,6,13,2,1,6,14,2021-08-06 17:32:07.793744
-11,-18,-4,-7,-2,-6,1,-8,2021-08-06 17:32:07.793744
2,5,-17,10,-2,-8,6,-7,2021-08-06 17:32:07.805743
-17,20,-18,11,0,-2,-14,-7,2021-08-06 17:32:07.805743
2,-5,-1,0,-7,0,-1,2,2021-08-06 17:32:07.814744
-13,-5,-18,14,5,-3,2,-7,2021-08-06 17:32:07.814744
-2,-1,-17,9,3,-9,4,-6,2021-08-06 17:32:07.829742
-6,6,-23,7,3,-4,2,-7,2021-08-06 17:32:07.829742
-10,-9,0,-5,-2,-5,-1,-7,2021-08-06 17:32:07.831741
-6,23,-9,6,-1,-1,-1,3,2021-08-06 17:32:07.831741
-10,-11,-15,-14,-7,-3,-6,-1,2021-08-06 17:32:07.852744
-2,0,-105,3,4,-3,3,0,2021-08-06 17:32:07.852744
-8,-18,-53,2,-2,-7,3,-12,2021-08-06 17:32:07.853744
-4,-8,56,-1,4,-3,3,0,2021-08-06 17:32:07.853744
3,9,29,4,-3,-4,-1,3,2021-08-06 17:32:07.865743
-5,4,22,-5,-1,0,0,0,2021-08-06 17:32:07.865743
-10,8,-69,3,5,-6,1,-9,2021-08-06 17:32:07.874744
-18,-4,-92,5,-1,-1,0,-2,2021-08-06 17:32:07.874744
-2,3,-48,9,4,-5,-1,-6,2021-08-06 17:32:07.889743
-3,-7,15,-1,-1,-2,-2,0,2021-08-06 17:32:07.889743
0,5,18,-5,2,-2,-4,0,2021-08-06 17:32:07.891743
10,2,13,10,1,1,-3,2,2021-08-06 17:32:07.891743
-9,5,-2,-6,-1,-5,-3,-11,2021-08-06 17:32:07.912259
-4,-7,-23,5,5,-1,2,-13,2021-08-06 17:32:07.912259
-5,-12,-34,2,0,-3,0,-4,2021-08-06 17:32:07.914259
-14,-8,-27,-1,2,-2,-1,-6,2021-08-06 17:32:07.914259
-3,-4,-24,-1,0,-1,-1,0,2021-08-06 17:32:07.926261
-2,-24,-37,-10,-9,-1,-2,0,2021-08-06 17:32:07.926261
2,15,76,3,1,-2,4,-4,2021-08-06 17:32:07.935260
-6,-3,55,-5,-1,-4,-3,-7,2021-08-06 17:32:07.935260
10,-3,3,-1,-3,2,-3,-4,2021-08-06 17:32:07.950261
-1,6,44,6,6,-3,4,7,2021-08-06 17:32:07.950261
2,15,-60,-1,-3,-3,-4,0,2021-08-06 17:32:07.951261
5,2,1,-1,0,-1,0,3,2021-08-06 17:32:07.951261
-10,8,58,0,3,-8,1,-3,2021-08-06 17:32:07.972261
-3,14,-53,3,2,1,0,1,2021-08-06 17:32:07.972261
-8,6,-18,2,3,-7,1,-5,2021-08-06 17:32:07.978260
-5,-5,-39,5,-1,-2,-1,0,2021-08-06 17:32:07.978260
-5,-6,-47,-3,0,1,2,7,2021-08-06 17:32:07.986260
-1,-2,-52,1,1,-1,0,-8,2021-08-06 17:32:07.986260
-6,4,-1,6,2,-4,-1,2,2021-08-06 17:32:07.995262
-2,-13,-27,-10,-4,0,-1,0,2021-08-06 17:32:07.995262
-3,4,-2,0,0,1,1,3,2021-08-06 17:32:08.010262
9,-15,65,-1,-9,0,-1,6,2021-08-06 17:32:08.010262
7,-16,19,-15,-4,6,-5,-4,2021-08-06 17:32:08.011259
20,15,88,1,1,2,1,2,2021-08-06 17:32:08.011259
3,-11,22,-15,-14,5,-8,-2,2021-08-06 17:32:08.032258
9,4,43,-11,-3,3,1,4,2021-08-06 17:32:08.032258
9,4,31,-6,-1,-1,-5,3,2021-08-06 17:32:08.034259
1,18,3,3,0,1,2,3,2021-08-06 17:32:08.034259
1,13,-12,-11,2,-3,0,3,2021-08-06 17:32:08.055260
2,-32,-18,-9,-6,2,0,5,2021-08-06 17:32:08.055260
-2,0,-36,2,0,-2,3,11,2021-08-06 17:32:08.056259
-7,-18,-16,-4,-6,-3,-7,-19,2021-08-06 17:32:08.056259
-5,-9,3,5,3,-3,-3,-4,2021-08-06 17:32:08.070260
-4,15,-15,9,4,-2,1,2,2021-08-06 17:32:08.070260
-11,-4,-21,-3,2,1,0,-4,2021-08-06 17:32:08.071260
-1,-9,-34,-3,-1,-3,-1,-1,2021-08-06 17:32:08.071260
-4,2,-31,5,2,-3,-2,-5,2021-08-06 17:32:08.092260
-12,10,-24,5,5,-4,-4,-8,2021-08-06 17:32:08.092260
-9,2,-29,0,-1,0,0,-7,2021-08-06 17:32:08.094264
-1,-1,-64,6,2,0,0,0,2021-08-06 17:32:08.094264
-3,-5,-44,1,1,-1,3,-2,2021-08-06 17:32:08.106258
-2,9,-7,5,2,-5,0,-1,2021-08-06 17:32:08.106258
-1,13,27,10,7,-7,0,-4,2021-08-06 17:32:08.115260
1,-24,-68,-11,-7,2,-4,6,2021-08-06 17:32:08.115260
-14,10,3,1,-1,-3,-2,-3,2021-08-06 17:32:08.130260
2,-9,-42,4,1,0,0,-1,2021-08-06 17:32:08.130260
-2,3,-5,1,1,1,-1,-4,2021-08-06 17:32:08.131262
-4,18,58,14,3,-5,0,-3,2021-08-06 17:32:08.131262
-1,-12,-10,-6,-10,2,-2,-3,2021-08-06 17:32:08.152260
-3,10,36,1,-5,-5,-3,-5,2021-08-06 17:32:08.152260
0,-1,34,5,-1,2,1,2,2021-08-06 17:32:08.154259
-8,-5,28,-7,2,1,-6,-5,2021-08-06 17:32:08.154259
7,2,16,1,-1,0,-2,-5,2021-08-06 17:32:08.175261
1,-1,25,5,-1,0,-2,-10,2021-08-06 17:32:08.175261
0,-17,1,-19,-9,-4,-5,-7,2021-08-06 17:32:08.176261
5,-4,39,-3,-6,-1,2,4,2021-08-06 17:32:08.176261
-9,-6,49,2,0,-4,-1,-2,2021-08-06 17:32:08.190260
-7,5,-10,-7,1,-1,-1,-1,2021-08-06 17:32:08.190260
-5,-7,8,-1,0,-5,-7,-6,2021-08-06 17:32:08.191260
-8,-5,18,0,-1,-5,-8,-3,2021-08-06 17:32:08.191260
-10,-8,-16,2,1,-3,2,10,2021-08-06 17:32:08.212260
-1,-11,-72,-5,1,-3,-1,3,2021-08-06 17:32:08.212260
-24,-10,-42,-2,4,-5,4,-4,2021-08-06 17:32:08.214262
-18,-6,-93,-5,1,-7,0,-3,2021-08-06 17:32:08.214262
-20,-3,-4,9,9,-6,2,-7,2021-08-06 17:32:08.235259
-16,-7,-40,0,5,-2,3,-5,2021-08-06 17:32:08.235259
-15,-5,-16,5,9,-3,-3,-2,2021-08-06 17:32:08.236260
-7,7,-106,1,4,0,8,-4,2021-08-06 17:32:08.236260
-3,1,-12,-6,2,-2,-1,-3,2021-08-06 17:32:08.257260
-11,-3,37,0,1,-1,3,11,2021-08-06 17:32:08.257260
9,12,54,-11,0,2,2,5,2021-08-06 17:32:08.259261
-2,-5,67,-5,2,1,4,4,2021-08-06 17:32:08.259261
21,-13,12,-19,-5,6,0,6,2021-08-06 17:32:08.272262
4,-7,45,-13,-6,-1,-6,-4,2021-08-06 17:32:08.272262
2,-19,1,-20,-7,2,-2,0,2021-08-06 17:32:08.274261
2,-10,7,-7,-2,1,0,2,2021-08-06 17:32:08.274261
-2,-5,-78,-2,2,4,-1,1,2021-08-06 17:32:08.295261
-7,-1,-17,-9,0,-3,0,-4,2021-08-06 17:32:08.295261
2,-16,-60,0,-3,2,-3,2,2021-08-06 17:32:08.296260
3,8,2,-17,0,2,-1,-1,2021-08-06 17:32:08.296260
6,1,50,0,-2,1,0,0,2021-08-06 17:32:08.310260
7,-1,65,-4,2,7,0,2,2021-08-06 17:32:08.310260
14,6,61,8,-8,5,0,3,2021-08-06 17:32:08.311260
7,-5,14,-31,-12,1,-3,4,2021-08-06 17:32:08.311260
10,0,8,2,2,3,1,4,2021-08-06 17:32:08.332258
8,-3,-18,-1,-7,0,-3,6,2021-08-06 17:32:08.332258
9,10,27,9,1,-1,-1,-2,2021-08-06 17:32:08.334260
7,6,-13,13,2,2,-1,1,2021-08-06 17:32:08.334260
5,2,40,-3,-1,0,-1,2,2021-08-06 17:32:08.362260
15,4,33,-17,-4,7,-5,2,2021-08-06 17:32:08.362260
9,3,43,-3,-2,0,-2,5,2021-08-06 17:32:08.364268
14,6,51,6,-6,3,-4,-12,2021-08-06 17:32:08.364268
11,-9,-6,-13,-1,1,1,6,2021-08-06 17:32:08.369258
3,-6,-12,6,-2,0,1,-3,2021-08-06 17:32:08.369258
4,-1,-15,-10,-6,2,-3,-8,2021-08-06 17:32:08.376259
-1,-1,21,-8,-5,1,-2,4,2021-08-06 17:32:08.376259
12,15,8,6,1,1,0,6,2021-08-06 17:32:08.392258
5,9,34,-5,-1,4,-2,2,2021-08-06 17:32:08.392258
11,10,58,-3,-3,3,0,5,2021-08-06 17:32:08.394259
9,9,17,0,-2,4,2,0,2021-08-06 17:32:08.394259
-2,-12,-8,4,-6,0,-4,-1,2021-08-06 17:32:08.415258
7,7,-20,2,-6,-6,-1,6,2021-08-06 17:32:08.415258
-1,-3,-21,-2,0,2,0,-3,2021-08-06 17:32:08.416261
10,-5,43,5,3,-3,0,8,2021-08-06 17:32:08.416261
-7,9,52,3,-8,5,-2,5,2021-08-06 17:32:08.428262
3,-3,32,-4,-3,1,0,-2,2021-08-06 17:32:08.428262
16,1,-37,2,-2,3,2,3,2021-08-06 17:32:08.437261
-5,7,-11,14,-3,0,2,-1,2021-08-06 17:32:08.437261
4,-27,-61,-16,-6,-1,-2,6,2021-08-06 17:32:08.452261
1,2,15,9,3,0,-1,-2,2021-08-06 17:32:08.452261
6,9,33,7,-3,1,-2,6,2021-08-06 17:32:08.454259
8,-13,58,-6,0,1,-1,1,2021-08-06 17:32:08.454259
4,-1,20,8,0,-1,-1,-4,2021-08-06 17:32:08.475261
-1,7,-24,7,-4,0,2,5,2021-08-06 17:32:08.475261
-1,-22,-75,-6,-4,0,-2,-3,2021-08-06 17:32:08.476263
-2,5,-1,12,7,1,1,12,2021-08-06 17:32:08.476263
6,-3,8,0,-4,1,-1,-4,2021-08-06 17:32:08.489258
5,16,36,-8,0,-2,-4,-11,2021-08-06 17:32:08.489258
-1,13,10,8,-1,0,3,-2,2021-08-06 17:32:08.496260
7,-30,-76,-10,-6,3,1,1,2021-08-06 17:32:08.496260
5,-4,-42,6,7,2,1,0,2021-08-06 17:32:08.512260
-6,-5,-3,11,0,-2,3,0,2021-08-06 17:32:08.513259
1,5,38,7,-1,-4,-2,-1,2021-08-06 17:32:08.514260
2,14,39,3,-7,0,-5,-2,2021-08-06 17:32:08.514260
-5,-2,13,-1,-4,-3,-1,-3,2021-08-06 17:32:08.535263
-1,-3,-24,9,2,-1,-1,-3,2021-08-06 17:32:08.535263
-10,-9,-47,12,1,-4,3,2,2021-08-06 17:32:08.536260
-7,-2,-14,-6,0,-7,-3,0,2021-08-06 17:32:08.536260
-11,18,18,11,1,-3,-3,-13,2021-08-06 17:32:08.549260
-2,1,18,2,-1,2,-2,-2,2021-08-06 17:32:08.549260
-3,2,6,0,1,-5,-1,-1,2021-08-06 17:32:08.556260
-1,-8,-73,1,-3,-4,-1,-6,2021-08-06 17:32:08.556260
-12,-2,-44,-7,0,-6,-1,-4,2021-08-06 17:32:08.597260
-15,-19,-85,0,2,-3,1,3,2021-08-06 17:32:08.597260
-1,0,-12,10,-1,-4,0,-3,2021-08-06 17:32:08.604261
0,4,28,12,3,-4,-1,3,2021-08-06 17:32:08.604261
-13,7,5,0,2,-4,-1,-6,2021-08-06 17:32:08.604261
-14,-22,3,-6,-2,-5,0,-6,2021-08-06 17:32:08.604261
-8,-12,-45,-4,3,-7,-2,-10,2021-08-06 17:32:08.605262
-13,6,-40,11,3,-10,2,-3,2021-08-06 17:32:08.605262
-12,-10,-36,7,4,-7,1,-4,2021-08-06 17:32:08.609262
-10,13,3,1,0,-4,1,-3,2021-08-06 17:32:08.609262
-14,-13,89,-12,-2,-7,-2,-8,2021-08-06 17:32:08.610262
-2,-1,1,-6,-1,2,-1,-5,2021-08-06 17:32:08.610262
-3,7,-14,5,3,-2,-1,-3,2021-08-06 17:32:08.624260
-2,-7,-37,-1,-1,-2,-2,-3,2021-08-06 17:32:08.624260
-4,-3,-53,-7,-1,2,-3,-4,2021-08-06 17:32:08.625263
-1,0,12,-3,-4,-2,1,-1,2021-08-06 17:32:08.625263
-4,-14,-3,1,-2,-4,-1,-1,2021-08-06 17:32:08.647260
5,1,-13,-4,-1,0,0,2,2021-08-06 17:32:08.647260
-8,-2,2,-2,0,-1,0,2,2021-08-06 17:32:08.647260
0,-5,-6,0,-5,2,-1,-3,2021-08-06 17:32:08.647260
0,10,-31,7,-1,3,-3,2,2021-08-06 17:32:08.670261
4,0,-23,-7,0,-3,-3,-3,2021-08-06 17:32:08.671260
-1,5,0,1,0,-1,2,-2,2021-08-06 17:32:08.671260
-8,-4,18,-1,0,0,-1,-1,2021-08-06 17:32:08.671260
5,5,-39,-2,0,5,-4,1,2021-08-06 17:32:08.684259
1,5,14,1,2,-2,3,-3,2021-08-06 17:32:08.684259
-14,-2,13,-2,-1,-2,-2,2,2021-08-06 17:32:08.685260
-2,-3,1,3,-1,-1,-6,-4,2021-08-06 17:32:08.685260
3,-5,27,-6,-3,-5,-6,3,2021-08-06 17:32:08.706279
4,2,13,6,0,2,-7,1,2021-08-06 17:32:08.707279
0,-8,-26,-7,-2,0,5,6,2021-08-06 17:32:08.707279
-1,2,-5,-2,0,-2,-10,-2,2021-08-06 17:32:08.707279
6,8,33,2,-1,-2,8,-3,2021-08-06 17:32:08.722281
3,7,0,4,-2,1,-4,6,2021-08-06 17:32:08.723280
-11,-1,11,-3,-3,1,-1,-5,2021-08-06 17:32:08.728282
1,0,-2,4,1,-1,3,4,2021-08-06 17:32:08.728282
0,4,24,-7,0,0,-3,-1,2021-08-06 17:32:08.743281
8,2,13,0,-4,-1,1,1,2021-08-06 17:32:08.743281
17,5,12,8,1,9,1,6,2021-08-06 17:32:08.751282
3,-8,28,-17,-4,-1,4,-6,2021-08-06 17:32:08.751282
1,-6,19,12,0,0,4,21,2021-08-06 17:32:08.766281
5,-4,8,-7,-4,3,-3,-4,2021-08-06 17:32:08.767280
10,6,24,1,-2,3,2,-1,2021-08-06 17:32:08.767280
11,14,30,-3,-6,-1,0,2,2021-08-06 17:32:08.767280
11,1,43,3,-6,0,-5,-14,2021-08-06 17:32:08.782281
9,-5,39,-8,-7,2,0,11,2021-08-06 17:32:08.782281
16,-1,-24,-8,-5,2,-6,-1,2021-08-06 17:32:08.788279
6,-1,-28,1,-3,2,2,3,2021-08-06 17:32:08.788279
3,2,-20,1,-3,5,-3,-5,2021-08-06 17:32:08.803280
1,-6,-38,8,3,4,5,1,2021-08-06 17:32:08.803280
1,8,20,8,-2,0,-4,-2,2021-08-06 17:32:08.811280
1,3,22,-4,1,4,3,1,2021-08-06 17:32:08.811280
4,-1,44,4,-2,-3,-7,1,2021-08-06 17:32:08.826281
-5,-8,-24,-2,-3,1,10,3,2021-08-06 17:32:08.827282
11,11,3,11,7,-3,0,0,2021-08-06 17:32:08.827282
5,-1,-44,0,-8,2,6,-5,2021-08-06 17:32:08.827282
3,9,-3,11,4,-2,0,-3,2021-08-06 17:32:08.842281
2,0,24,-1,-3,2,-4,0,2021-08-06 17:32:08.842281
-2,-15,26,0,-5,-1,1,0,2021-08-06 17:32:08.848279
4,16,28,15,7,-3,-2,11,2021-08-06 17:32:08.849282
0,-12,14,16,-2,-2,4,-6,2021-08-06 17:32:08.863280
4,2,-26,7,-2,-3,-1,-2,2021-08-06 17:32:08.863280
-2,6,-28,-4,4,0,1,-2,2021-08-06 17:32:08.871282
2,9,27,22,-3,-2,-3,5,2021-08-06 17:32:08.871282
6,9,24,-7,-1,3,2,2,2021-08-06 17:32:08.886279
-1,25,32,15,1,-4,-3,-7,2021-08-06 17:32:08.887281
-2,-9,-51,-7,-7,-6,-5,-6,2021-08-06 17:32:08.887281
-2,-16,5,6,-2,-4,0,-7,2021-08-06 17:32:08.887281
-2,-1,-56,-10,-5,-3,-4,-4,2021-08-06 17:32:08.902281
-6,5,60,7,-2,-7,0,-3,2021-08-06 17:32:08.903281
8,3,36,6,-3,-1,-2,0,2021-08-06 17:32:08.908280
-13,-15,-60,0,-2,-5,-4,-6,2021-08-06 17:32:08.908280
-15,2,-38,8,5,-4,4,-7,2021-08-06 17:32:08.923798
-13,-26,-46,-15,-7,-2,-5,-15,2021-08-06 17:32:08.923798
-9,-17,-10,7,-6,-3,-1,6,2021-08-06 17:32:08.930797
-1,6,6,1,2,-5,-1,-10,2021-08-06 17:32:08.930797
-7,-6,19,8,2,-5,1,-5,2021-08-06 17:32:08.946799
-2,8,-72,2,5,-3,1,-2,2021-08-06 17:32:08.946799
-3,9,-37,6,1,1,1,-9,2021-08-06 17:32:08.947798
-8,-8,-48,4,6,2,0,4,2021-08-06 17:32:08.947798
5,10,-19,-7,-8,1,-3,1,2021-08-06 17:32:08.970799
4,5,-4,-7,-3,0,-1,11,2021-08-06 17:32:08.970799
-2,-1,-7,8,0,-2,-2,-1,2021-08-06 17:32:08.971798
-2,3,15,-4,-1,0,1,-2,2021-08-06 17:32:08.971798
-10,0,15,7,5,-2,-1,-5,2021-08-06 17:32:08.983797
6,0,-4,0,-3,0,-4,2,2021-08-06 17:32:08.983797
-4,0,17,-1,-2,-2,-2,-3,2021-08-06 17:32:08.990799
6,23,7,2,1,-3,0,-4,2021-08-06 17:32:08.990799
-12,9,-15,5,2,1,1,8,2021-08-06 17:32:09.006798
4,-21,35,-1,-2,-1,1,-10,2021-08-06 17:32:09.006798
3,-13,-40,-11,-2,3,0,6,2021-08-06 17:32:09.007799
-9,-5,21,5,2,-3,6,7,2021-08-06 17:32:09.007799
5,-13,15,-16,-3,1,-16,2,2021-08-06 17:32:09.022799
-4,3,-4,3,0,2,-8,10,2021-08-06 17:32:09.022799
6,0,-16,4,-3,1,-8,-2,2021-08-06 17:32:09.028798
-2,-9,18,1,1,2,-3,-7,2021-08-06 17:32:09.028798
9,-6,12,-3,1,-2,2,1,2021-08-06 17:32:09.051813
-1,6,-36,0,1,-2,10,2,2021-08-06 17:32:09.051813
-2,11,54,6,3,-3,0,0,2021-08-06 17:32:09.052813
3,-2,-20,-3,-3,1,-6,2,2021-08-06 17:32:09.052813
3,0,-29,3,-3,0,7,-7,2021-08-06 17:32:09.073814
1,-10,0,3,-2,-2,0,-8,2021-08-06 17:32:09.073814
-5,7,-6,-5,-1,-1,0,-5,2021-08-06 17:32:09.074814
0,-16,-17,-3,-1,0,1,-4,2021-08-06 17:32:09.074814
0,0,5,4,-4,0,4,3,2021-08-06 17:32:09.088813
-7,-3,10,1,0,-2,-1,-3,2021-08-06 17:32:09.089813
-1,-1,-19,-3,0,0,3,2,2021-08-06 17:32:09.089813
-3,-5,14,-6,-6,-1,-4,1,2021-08-06 17:32:09.089813
2,0,-15,-1,0,5,-1,-1,2021-08-06 17:32:09.111815
-5,-7,15,-3,0,0,-6,-5,2021-08-06 17:32:09.111815
0,-2,2,1,0,1,4,-1,2021-08-06 17:32:09.112815
-1,2,-22,-3,-2,0,0,-3,2021-08-06 17:32:09.112815
-1,-11,-2,1,1,-2,3,1,2021-08-06 17:32:09.134814
-4,-2,2,9,0,-3,0,14,2021-08-06 17:32:09.134814
0,-3,25,-5,-5,-3,-6,-1,2021-08-06 17:32:09.134814
-4,1,6,0,2,2,-1,-6,2021-08-06 17:32:09.134814
-4,15,1,1,-4,-3,0,10,2021-08-06 17:32:09.148813
3,-2,1,-2,0,2,-7,-10,2021-08-06 17:32:09.149816
-2,1,-19,-2,-1,-3,3,-1,2021-08-06 17:32:09.149816
5,0,-18,3,-5,3,-2,1,2021-08-06 17:32:09.149816
8,12,-20,2,1,-4,-2,-4,2021-08-06 17:32:09.171814
-6,1,8,0,1,-2,-9,8,2021-08-06 17:32:09.171814
-3,-1,-4,-3,-3,3,-17,-2,2021-08-06 17:32:09.172814
4,1,6,-5,-1,-1,7,-3,2021-08-06 17:32:09.172814
-13,-8,-8,-2,1,-2,4,3,2021-08-06 17:32:09.193814
8,21,-4,-6,0,0,0,-24,2021-08-06 17:32:09.194815
0,4,14,1,-3,-2,4,2,2021-08-06 17:32:09.194815
-2,16,1,3,-1,-1,-5,2,2021-08-06 17:32:09.194815
-4,-4,11,-8,-5,0,-2,-7,2021-08-06 17:32:09.208816
0,11,46,4,3,-1,3,-5,2021-08-06 17:32:09.208816
-3,-10,-38,-8,-1,1,-1,-4,2021-08-06 17:32:09.216814
5,5,20,-3,2,0,-3,-5,2021-08-06 17:32:09.216814
-2,-14,-11,1,1,-1,3,-5,2021-08-06 17:32:09.231814
2,-4,-6,-6,-1,-2,0,1,2021-08-06 17:32:09.231814
2,-1,11,7,0,-2,1,-2,2021-08-06 17:32:09.232814
1,5,-16,-2,-6,-1,-5,2,2021-08-06 17:32:09.232814
1,-3,-8,-4,4,1,-5,-3,2021-08-06 17:32:09.255323
-4,-12,-9,6,1,2,11,2,2021-08-06 17:32:09.255323
-3,-5,14,-9,0,-1,-3,6,2021-08-06 17:32:09.255323
-8,-7,-27,-11,-3,-3,12,-4,2021-08-06 17:32:09.256324
0,-4,-15,7,2,0,-1,0,2021-08-06 17:32:09.268324
0,-3,24,1,2,-3,-2,1,2021-08-06 17:32:09.269324
4,1,-5,-3,-3,-1,8,-2,2021-08-06 17:32:09.276324
-3,-4,5,3,0,-1,-3,-15,2021-08-06 17:32:09.277324
3,-4,-8,-4,-3,-1,-5,3,2021-08-06 17:32:09.291324
-4,-9,7,-1,-4,1,-1,5,2021-08-06 17:32:09.292325
3,-2,-18,-1,-2,-2,1,-3,2021-08-06 17:32:09.292325
0,-9,10,3,1,-1,-2,4,2021-08-06 17:32:09.292325
1,-10,34,4,1,-2,-1,-4,2021-08-06 17:32:09.315323
2,-6,-30,-2,-4,1,-3,-3,2021-08-06 17:32:09.315323
0,1,9,3,0,0,2,1,2021-08-06 17:32:09.315323
2,-3,-22,-4,-2,-3,-1,2,2021-08-06 17:32:09.315323
-8,4,7,6,-3,0,-3,-3,2021-08-06 17:32:09.328324
4,3,-23,-3,-2,-4,7,9,2021-08-06 17:32:09.328324
1,-2,-3,-1,-2,0,-12,-3,2021-08-06 17:32:09.336323
-5,-13,34,5,2,0,2,4,2021-08-06 17:32:09.337324
11,-4,-43,-9,-3,-2,1,-3,2021-08-06 17:32:09.351323
0,6,-5,5,0,-3,-5,1,2021-08-06 17:32:09.352324
-6,-22,21,5,-4,3,2,-2,2021-08-06 17:32:09.352324
1,-5,16,-4,0,-3,-2,-3,2021-08-06 17:32:09.352324
3,6,6,1,1,-2,-4,5,2021-08-06 17:32:09.375328
-3,-4,-21,-1,-1,3,0,-8,2021-08-06 17:32:09.375328
-1,1,25,-1,3,-3,7,5,2021-08-06 17:32:09.375328
5,4,-5,4,2,0,-3,4,2021-08-06 17:32:09.375328
-7,2,0,-6,-2,1,3,-4,2021-08-06 17:32:09.388324
-6,-5,17,-3,0,0,-4,-3,2021-08-06 17:32:09.388324
0,5,11,0,-2,-2,2,-1,2021-08-06 17:32:09.396324
-2,8,0,7,0,-3,-2,-3,2021-08-06 17:32:09.397327
-6,2,-21,0,-4,-2,1,3,2021-08-06 17:32:09.411324
0,8,15,5,0,3,-1,-2,2021-08-06 17:32:09.412324
-3,1,-1,1,0,-1,-2,-5,2021-08-06 17:32:09.412324
-2,0,8,-6,3,1,3,3,2021-08-06 17:32:09.412324
-3,0,15,6,-1,-1,0,-2,2021-08-06 17:32:09.435326
-1,-2,2,1,-3,-3,-1,-5,2021-08-06 17:32:09.435326
1,-5,-26,-2,2,-1,4,-4,2021-08-06 17:32:09.435326
-2,-1,-6,-3,-4,-3,-4,1,2021-08-06 17:32:09.435326
0,-6,31,4,2,-2,0,-3,2021-08-06 17:32:09.448323
1,3,-3,-4,3,-4,3,-1,2021-08-06 17:32:09.448323
-7,-6,-1,-8,-5,0,-2,0,2021-08-06 17:32:09.456323
2,-10,-17,-3,-1,1,-3,-9,2021-08-06 17:32:09.457324
3,-8,4,-6,-1,-2,1,-1,2021-08-06 17:32:09.471326
-4,4,21,0,0,-1,-2,-4,2021-08-06 17:32:09.472326
-1,-2,6,2,-1,0,-1,-2,2021-08-06 17:32:09.472326
2,2,-22,-4,-3,1,-4,-2,2021-08-06 17:32:09.472326
-4,10,24,2,3,0,0,0,2021-08-06 17:32:09.495325
5,-7,-53,-10,-2,1,-2,0,2021-08-06 17:32:09.495325
3,5,2,12,1,1,2,-2,2021-08-06 17:32:09.495325
-2,2,-5,-5,0,-1,1,1,2021-08-06 17:32:09.495325
5,7,-45,-11,2,1,-3,-1,2021-08-06 17:32:09.517324
-3,-6,57,4,0,1,-1,0,2021-08-06 17:32:09.517324
7,-3,-45,-20,-2,1,-3,0,2021-08-06 17:32:09.518325
-2,-1,-15,5,3,0,1,-2,2021-08-06 17:32:09.518325
0,4,-27,13,-4,0,-2,3,2021-08-06 17:32:09.531323
-3,-4,41,2,3,-1,0,-1,2021-08-06 17:32:09.531323
-1,-5,18,10,2,-3,-1,-4,2021-08-06 17:32:09.532325
0,3,12,-8,-1,-1,3,-2,2021-08-06 17:32:09.532325
0,4,1,-1,-1,-1,-2,-4,2021-08-06 17:32:09.555324
5,2,-25,3,-6,-1,0,1,2021-08-06 17:32:09.555324
-5,4,32,2,3,-1,-1,1,2021-08-06 17:32:09.555324
0,0,-10,1,-3,-2,-1,-11,2021-08-06 17:32:09.556324
-7,0,25,1,-2,-1,-2,5,2021-08-06 17:32:09.577323
4,-3,-26,-4,-2,3,0,3,2021-08-06 17:32:09.577323
1,17,10,-1,-1,-2,0,-9,2021-08-06 17:32:09.578324
-2,4,27,3,1,-3,2,-1,2021-08-06 17:32:09.578324
-7,0,22,-12,-4,-1,-3,-6,2021-08-06 17:32:09.591323
-4,3,-31,-7,-5,-2,0,-1,2021-08-06 17:32:09.592324
0,3,-5,8,2,-1,-2,10,2021-08-06 17:32:09.592324
3,9,-11,6,5,2,-1,5,2021-08-06 17:32:09.592324
-1,-12,-32,-6,1,-1,0,-4,2021-08-06 17:32:09.615324
-7,0,43,0,-2,-1,-1,1,2021-08-06 17:32:09.615324
7,-5,-30,-3,-2,-1,1,-3,2021-08-06 17:32:09.615324
2,-3,8,-3,1,-2,1,3,2021-08-06 17:32:09.615324
0,-7,-7,11,2,0,2,4,2021-08-06 17:32:09.637325
15,2,-7,0,-1,-1,-2,-4,2021-08-06 17:32:09.637325
-10,6,27,1,-3,0,-5,-3,2021-08-06 17:32:09.638324
-2,-15,-34,-12,-3,1,0,0,2021-08-06 17:32:09.638324
5,-2,32,-2,-2,0,-3,3,2021-08-06 17:32:09.651324
-3,-10,-30,-12,-5,-2,0,-2,2021-08-06 17:32:09.652324
2,14,2,5,-1,-3,0,-3,2021-08-06 17:32:09.652324
-6,-1,-6,3,-6,-1,-3,0,2021-08-06 17:32:09.652324
1,-11,0,-5,-4,-3,-1,-4,2021-08-06 17:32:09.674325
0,-4,37,6,-6,1,-1,2,2021-08-06 17:32:09.674325
3,-6,-54,-12,0,1,1,1,2021-08-06 17:32:09.675325
-10,-4,2,2,1,-2,1,-2,2021-08-06 17:32:09.675325
3,9,-3,15,0,-3,-2,1,2021-08-06 17:32:09.697325
1,-11,-49,-7,0,-2,-3,10,2021-08-06 17:32:09.697325
-5,-5,4,0,-2,-2,-4,-12,2021-08-06 17:32:09.698324
0,5,28,9,-1,-2,-1,0,2021-08-06 17:32:09.698324
1,3,8,1,1,1,0,-2,2021-08-06 17:32:09.711323
-1,12,-6,-3,0,-2,2,-3,2021-08-06 17:32:09.712323
3,-3,-10,-4,-4,4,-2,-2,2021-08-06 17:32:09.712323
1,-8,-5,-2,1,0,0,4,2021-08-06 17:32:09.712323
4,8,-5,2,-1,-3,0,-9,2021-08-06 17:32:09.735323
-4,-3,8,0,1,0,-3,-2,2021-08-06 17:32:09.735323
-2,-6,-1,-1,-3,0,-1,4,2021-08-06 17:32:09.735323
-6,-1,10,3,0,0,-3,-2,2021-08-06 17:32:09.735323
-5,5,25,-3,6,-4,0,0,2021-08-06 17:32:09.757322
-2,11,26,8,5,1,-2,0,2021-08-06 17:32:09.757322
-3,0,10,1,-1,-1,-1,2,2021-08-06 17:32:09.758324
-4,-1,-27,0,1,0,-3,0,2021-08-06 17:32:09.758324
1,-8,-2,-1,-4,1,-1,-4,2021-08-06 17:32:09.771325
-4,18,-20,3,-1,1,-1,2,2021-08-06 17:32:09.772324
6,8,3,-2,2,-4,1,-15,2021-08-06 17:32:09.772324
0,5,7,2,0,0,0,-1,2021-08-06 17:32:09.772324
-1,-11,-29,-5,-3,-1,0,6,2021-08-06 17:32:09.795325
4,-2,-11,-10,-2,0,0,9,2021-08-06 17:32:09.795325
-1,-15,-33,-12,-4,0,1,16,2021-08-06 17:32:09.795325
0,7,-5,5,-1,-2,-3,0,2021-08-06 17:32:09.796326
3,-9,-15,-10,-1,0,-1,0,2021-08-06 17:32:09.818322
2,-6,25,10,-3,-2,-2,1,2021-08-06 17:32:09.818322
-4,-5,-10,2,1,-2,-4,-1,2021-08-06 17:32:09.818322
4,-7,11,-6,-3,1,1,1,2021-08-06 17:32:09.819323
2,14,-36,-2,2,-2,1,2,2021-08-06 17:32:09.832323
0,-1,-9,-10,-3,1,0,-5,2021-08-06 17:32:09.832323
1,3,36,1,0,-2,0,1,2021-08-06 17:32:09.833324
-3,12,0,8,1,0,2,0,2021-08-06 17:32:09.833324
-8,-2,29,-2,-5,0,-1,-6,2021-08-06 17:32:09.862323
0,-18,-9,-6,-4,-1,0,0,2021-08-06 17:32:09.862323
-1,8,2,3,1,-2,0,1,2021-08-06 17:32:09.863324
-3,-9,16,-2,0,1,-3,-18,2021-08-06 17:32:09.863324
4,-4,12,0,-3,2,-3,1,2021-08-06 17:32:09.877325
2,-5,-13,-7,-3,-3,-3,0,2021-08-06 17:32:09.877325
3,0,-11,-1,1,2,1,0,2021-08-06 17:32:09.878324
-1,-5,16,1,1,-3,1,4,2021-08-06 17:32:09.878324
-3,0,-3,5,-3,-3,0,-6,2021-08-06 17:32:09.892324
5,-2,8,-2,-2,4,-1,-6,2021-08-06 17:32:09.892324
-1,-10,-9,1,-2,-1,-1,-2,2021-08-06 17:32:09.893325
0,1,-7,0,1,-3,-2,4,2021-08-06 17:32:09.893325
-7,-5,3,-10,-6,0,-2,-7,2021-08-06 17:32:09.915323
-3,3,18,4,2,2,-1,0,2021-08-06 17:32:09.915323
4,4,6,2,-2,1,-2,0,2021-08-06 17:32:09.915323
-10,-5,-2,-3,-3,-2,0,-23,2021-08-06 17:32:09.915323
-4,0,-18,-4,0,2,1,4,2021-08-06 17:32:09.937324
-2,-2,-7,0,-3,-5,2,1,2021-08-06 17:32:09.937324
2,7,0,7,1,1,2,-1,2021-08-06 17:32:09.938324
-6,-16,-12,-4,-10,0,-3,2,2021-08-06 17:32:09.938324
1,6,2,2,2,0,-2,0,2021-08-06 17:32:09.952323
0,5,-30,-14,2,-1,2,-3,2021-08-06 17:32:09.952323
-4,9,40,8,2,-2,1,-2,2021-08-06 17:32:09.952323
9,0,-6,1,-1,-1,-3,6,2021-08-06 17:32:09.952323
-4,-9,0,0,-4,2,0,0,2021-08-06 17:32:09.975325
-2,3,5,4,-1,-3,-1,1,2021-08-06 17:32:09.975325
-7,11,-5,-6,-3,1,0,-9,2021-08-06 17:32:09.975325
0,12,-10,-6,1,-5,1,-1,2021-08-06 17:32:09.976326
1,0,9,-2,-3,-2,-1,1,2021-08-06 17:32:10.005322
-1,-4,11,5,-1,-3,-1,-1,2021-08-06 17:32:10.005322
-1,-4,8,-1,1,-1,1,0,2021-08-06 17:32:10.005322
4,0,-26,-1,-2,0,-2,-2,2021-08-06 17:32:10.006323
1,-2,-17,-10,1,0,0,-2,2021-08-06 17:32:10.011322
-2,-2,-4,9,0,4,0,-3,2021-08-06 17:32:10.012323
-5,-2,4,-10,-4,-2,-4,5,2021-08-06 17:32:10.012323
-7,4,9,5,-1,3,0,5,2021-08-06 17:32:10.012323
6,-1,10,-6,2,-3,-1,2,2021-08-06 17:32:10.035326
0,-6,6,-1,-2,1,-4,-4,2021-08-06 17:32:10.035326
-4,12,-6,7,-3,-2,0,-3,2021-08-06 17:32:10.035326
4,5,-34,-3,1,-1,-1,3,2021-08-06 17:32:10.036324
-8,-2,-10,-4,-1,-3,-4,-2,2021-08-06 17:32:10.057323
8,12,14,-3,-1,2,-1,-5,2021-08-06 17:32:10.057323
-7,3,4,5,3,-3,-1,12,2021-08-06 17:32:10.058324
-9,-3,8,4,-1,-2,0,-4,2021-08-06 17:32:10.058324
-2,12,8,6,-1,1,0,-2,2021-08-06 17:32:10.072324
-3,3,9,0,-2,-2,-1,10,2021-08-06 17:32:10.072324
6,-7,-12,-2,-1,1,-3,-19,2021-08-06 17:32:10.072324
-4,4,12,-1,4,0,-1,-2,2021-08-06 17:32:10.072324
-1,4,-2,3,2,-1,1,3,2021-08-06 17:32:10.102325
-3,-5,-2,-7,-1,0,0,-1,2021-08-06 17:32:10.102325
3,-6,-17,2,-2,1,-1,2,2021-08-06 17:32:10.103325
-1,-8,6,-2,1,-2,1,2,2021-08-06 17:32:10.103325
5,-5,-8,5,0,-1,-4,-2,2021-08-06 17:32:10.117323
1,9,25,0,0,-1,0,-2,2021-08-06 17:32:10.118322
-8,-10,-6,1,1,1,-1,4,2021-08-06 17:32:10.118322
-2,-2,-3,5,-1,-3,1,0,2021-08-06 17:32:10.118322
-4,-1,11,-5,-1,0,0,3,2021-08-06 17:32:10.131323
-6,3,-3,7,-2,-2,-1,-3,2021-08-06 17:32:10.131323
2,-5,2,2,4,2,-1,2,2021-08-06 17:32:10.139322
-3,-3,1,-2,-4,-3,-1,-3,2021-08-06 17:32:10.139322
-8,8,4,5,-1,0,0,1,2021-08-06 17:32:10.155324
-2,-1,2,0,-3,-2,-1,5,2021-08-06 17:32:10.155324
2,-4,-2,-7,-2,-2,1,2,2021-08-06 17:32:10.155324
0,4,11,1,2,-2,0,-5,2021-08-06 17:32:10.155324
-4,12,-4,-5,-2,-1,-1,-4,2021-08-06 17:32:10.177324
0,3,8,5,3,2,-2,-4,2021-08-06 17:32:10.178325
-4,0,2,-3,2,-2,1,-1,2021-08-06 17:32:10.179325
3,2,-12,1,0,-2,0,8,2021-08-06 17:32:10.179325
-7,1,-1,-4,-2,3,-1,2,2021-08-06 17:32:10.191324
4,-2,22,-6,-3,-3,-2,-3,2021-08-06 17:32:10.191324
2,-3,-6,0,-3,-3,1,-2,2021-08-06 17:32:10.200326
1,-19,-20,1,-3,0,-5,-2,2021-08-06 17:32:10.200326
7,-9,21,-2,3,-1,-1,0,2021-08-06 17:32:10.215323
-1,-1,-13,5,-1,2,1,3,2021-08-06 17:32:10.215323
-7,-9,2,-15,-3,-3,-4,-8,2021-08-06 17:32:10.216325
-3,-4,6,0,-3,0,0,15,2021-08-06 17:32:10.216325
2,-4,29,4,-2,0,0,-2,2021-08-06 17:32:10.237324
7,-3,-41,-7,-4,1,-3,1,2021-08-06 17:32:10.237324
3,-7,33,-1,4,-4,2,-3,2021-08-06 17:32:10.239325
-3,3,5,-5,-3,2,-2,-2,2021-08-06 17:32:10.239325
9,-4,-25,-2,-1,-1,-3,-3,2021-08-06 17:32:10.251340
-3,-5,8,-5,0,-1,1,-7,2021-08-06 17:32:10.251340
-5,-14,-10,-1,-4,-1,0,-3,2021-08-06 17:32:10.260340
-6,3,15,-4,-4,-2,-2,-13,2021-08-06 17:32:10.260340
-3,1,10,3,0,-1,-3,2,2021-08-06 17:32:10.275342
3,-8,7,-6,-1,1,0,-1,2021-08-06 17:32:10.275342
-1,2,-36,3,4,1,0,5,2021-08-06 17:32:10.276342
-3,-1,8,4,-2,-5,2,0,2021-08-06 17:32:10.276342
2,-7,-18,-5,4,3,0,7,2021-08-06 17:32:10.297342
3,-7,-8,0,0,-1,-1,9,2021-08-06 17:32:10.297342
-2,4,34,2,-3,-1,-2,-2,2021-08-06 17:32:10.303341
4,0,-32,-6,2,1,1,-10,2021-08-06 17:32:10.303341
-6,7,31,-1,-2,0,1,4,2021-08-06 17:32:10.311342
4,-23,-37,-1,-5,2,-1,-2,2021-08-06 17:32:10.311342
0,7,-1,-2,1,4,-1,-13,2021-08-06 17:32:10.320343
-7,-5,55,8,1,-2,-2,-1,2021-08-06 17:32:10.320343
3,-5,4,-2,0,-3,-1,-6,2021-08-06 17:32:10.335342
-3,0,3,-4,-3,-3,-2,-2,2021-08-06 17:32:10.335342
4,-7,-6,-6,-3,0,-1,-1,2021-08-06 17:32:10.336342
-2,-4,4,4,1,-1,0,7,2021-08-06 17:32:10.336342
0,0,1,4,0,0,0,-6,2021-08-06 17:32:10.357341
-2,-3,4,-4,-1,-2,2,12,2021-08-06 17:32:10.357341
-5,-10,-16,-1,-3,-3,-2,4,2021-08-06 17:32:10.359341
1,3,-3,4,3,1,-1,5,2021-08-06 17:32:10.359341
4,-12,-43,-9,-7,2,-1,2,2021-08-06 17:32:10.371341
-2,6,-33,2,4,0,-5,-8,2021-08-06 17:32:10.371341
-11,-10,32,-2,2,-3,2,-1,2021-08-06 17:32:10.380341
2,-22,17,3,2,0,0,0,2021-08-06 17:32:10.380341
-2,2,1,-2,-3,-1,0,-1,2021-08-06 17:32:10.410341
1,2,16,6,-5,1,-4,0,2021-08-06 17:32:10.410341
10,6,-31,-1,-1,0,-1,1,2021-08-06 17:32:10.411342
-3,9,27,4,7,-5,2,4,2021-08-06 17:32:10.411342
-4,-2,-2,-1,-2,-6,-3,-2,2021-08-06 17:32:10.417341
-10,-4,33,2,3,-1,0,-3,2021-08-06 17:32:10.417341
9,28,-27,10,2,-1,0,0,2021-08-06 17:32:10.419340
10,4,-14,2,-1,-1,0,-4,2021-08-06 17:32:10.419340
-5,-7,-8,0,-1,-3,-4,-3,2021-08-06 17:32:10.431340
-1,6,-30,-4,-1,2,2,-5,2021-08-06 17:32:10.431340
-7,-16,22,-4,-5,-2,-3,7,2021-08-06 17:32:10.440341
-2,11,-20,-2,0,0,-1,7,2021-08-06 17:32:10.440341
7,8,15,8,0,-1,-1,-4,2021-08-06 17:32:10.455341
-3,14,-4,3,3,-2,0,-5,2021-08-06 17:32:10.455341
-3,-13,17,4,-3,0,-2,2,2021-08-06 17:32:10.456341
-2,-4,-22,-5,-4,-1,-3,-6,2021-08-06 17:32:10.457341
1,-7,15,1,-2,-1,4,0,2021-08-06 17:32:10.478342
-8,4,1,1,3,-1,-2,2,2021-08-06 17:32:10.478342
2,1,1,-4,-3,0,-3,0,2021-08-06 17:32:10.479341
-6,-5,-14,-5,-2,-2,0,-4,2021-08-06 17:32:10.479341
5,1,27,1,2,-1,-1,6,2021-08-06 17:32:10.500341
-4,17,45,2,0,-3,-3,-4,2021-08-06 17:32:10.500341
4,-10,-7,-6,-7,-2,-1,2,2021-08-06 17:32:10.501341
-6,10,-4,4,0,0,-1,2,2021-08-06 17:32:10.501341
2,3,-20,3,0,3,4,0,2021-08-06 17:32:10.515341
-1,-6,4,-1,1,-2,2,-3,2021-08-06 17:32:10.515341
4,0,-27,-3,0,0,-7,1,2021-08-06 17:32:10.516341
-4,0,1,-5,-6,-1,4,-1,2021-08-06 17:32:10.516341
0,0,-9,1,-3,-1,-3,-5,2021-08-06 17:32:10.537343
5,-9,-21,-4,0,-2,-14,-15,2021-08-06 17:32:10.537343
1,16,3,3,0,2,3,-4,2021-08-06 17:32:10.539342
-7,-6,-10,0,1,1,-2,-7,2021-08-06 17:32:10.539342
6,-3,-1,2,0,-2,2,1,2021-08-06 17:32:10.559857
0,-5,-5,-11,-6,-4,-7,-2,2021-08-06 17:32:10.559857
2,-2,-21,-2,-2,-5,4,4,2021-08-06 17:32:10.561858
6,-4,26,0,3,1,-1,-9,2021-08-06 17:32:10.561858
-3,-1,25,5,1,1,-2,5,2021-08-06 17:32:10.574858
-4,-3,18,7,0,-3,4,4,2021-08-06 17:32:10.574858
13,14,16,-1,-1,4,-2,7,2021-08-06 17:32:10.576857
2,14,30,3,-2,-2,1,2,2021-08-06 17:32:10.576857
-9,-5,-30,-7,0,-5,-5,-2,2021-08-06 17:32:10.596858
9,5,42,1,-3,1,3,-1,2021-08-06 17:32:10.597857
-9,-23,-35,-3,-4,2,1,-1,2021-08-06 17:32:10.598857
-2,-1,26,-7,-2,-3,-4,-6,2021-08-06 17:32:10.598857
0,-2,-35,-1,-1,3,1,1,2021-08-06 17:32:10.619857
-1,-13,-17,-1,-1,0,1,7,2021-08-06 17:32:10.619857
-4,-4,-15,-8,1,-3,-2,-10,2021-08-06 17:32:10.621858
7,-6,-4,1,-4,4,-5,-3,2021-08-06 17:32:10.621858
-8,0,46,7,5,-1,2,-10,2021-08-06 17:32:10.633857
0,-9,16,-8,-6,-2,-4,7,2021-08-06 17:32:10.634858
-9,-2,-1,3,4,2,-2,6,2021-08-06 17:32:10.640856
11,4,-41,-2,-3,0,0,8,2021-08-06 17:32:10.640856
-8,0,44,4,-2,-1,-3,-4,2021-08-06 17:32:10.657857
0,4,-16,-2,0,-2,2,-1,2021-08-06 17:32:10.657857
2,2,38,9,0,0,2,-7,2021-08-06 17:32:10.658857
4,3,-28,-4,-3,0,-2,-3,2021-08-06 17:32:10.658857
1,3,-48,-9,-1,-2,-2,2,2021-08-06 17:32:10.679858
-14,-5,-36,-8,-4,-1,6,-2,2021-08-06 17:32:10.679858
2,9,22,-1,0,-2,3,-10,2021-08-06 17:32:10.681859
-5,-4,-12,-1,-1,-2,-18,6,2021-08-06 17:32:10.681859
-4,-3,24,6,3,-1,2,-13,2021-08-06 17:32:10.693856
-5,-5,4,-3,-4,-1,2,-3,2021-08-06 17:32:10.694857
-5,2,1,-10,-5,-1,-7,-9,2021-08-06 17:32:10.708859
5,-2,-24,-5,1,1,3,3,2021-08-06 17:32:10.708859
-6,-4,15,8,-1,0,3,5,2021-08-06 17:32:10.717855
3,0,-1,6,1,0,-1,0,2021-08-06 17:32:10.717855
0,-3,-20,-9,-3,-1,1,2,2021-08-06 17:32:10.718857
6,0,18,6,-2,-3,1,-6,2021-08-06 17:32:10.718857
-2,16,-45,4,0,1,0,-3,2021-08-06 17:32:10.739855
0,17,-21,13,3,2,0,-2,2021-08-06 17:32:10.739855
12,-7,-52,2,-6,-1,0,4,2021-08-06 17:32:10.741857
2,-6,9,2,0,-4,3,-1,2021-08-06 17:32:10.741857
-9,4,16,-4,6,-1,2,4,2021-08-06 17:32:10.754855
2,5,-6,9,-4,-3,-5,1,2021-08-06 17:32:10.754855
-3,4,-4,-4,1,0,-1,3,2021-08-06 17:32:10.760855
-4,-3,12,4,1,-4,1,-1,2021-08-06 17:32:10.760855
-2,6,8,7,1,1,-5,-6,2021-08-06 17:32:10.777856
-2,-4,-2,-3,0,2,2,3,2021-08-06 17:32:10.777856
0,-10,26,1,-1,-2,-2,-4,2021-08-06 17:32:10.778858
-2,-8,6,-4,0,-2,1,4,2021-08-06 17:32:10.778858
-2,-2,-25,-5,-3,-2,-2,-1,2021-08-06 17:32:10.799858
1,-6,-8,-8,0,-3,-1,-14,2021-08-06 17:32:10.799858
7,-12,-7,1,2,-2,-7,4,2021-08-06 17:32:10.801858
-2,-9,-16,-9,-6,3,-2,-3,2021-08-06 17:32:10.801858
0,0,-6,-1,-2,-5,3,8,2021-08-06 17:32:10.813857
12,7,-14,-1,2,0,-16,-4,2021-08-06 17:32:10.814856
-23,-13,28,2,1,2,2,0,2021-08-06 17:32:10.820857
-2,-4,0,-7,-7,0,-5,-11,2021-08-06 17:32:10.820857
0,-18,12,1,4,-3,1,-3,2021-08-06 17:32:10.837855
-7,-6,-26,2,1,0,5,25,2021-08-06 17:32:10.837855
2,8,15,6,2,-2,-1,2,2021-08-06 17:32:10.838856
0,8,20,2,-2,2,0,-1,2021-08-06 17:32:10.838856
-12,0,0,-9,-6,-4,-3,2,2021-08-06 17:32:10.859858
-2,-4,22,-1,2,0,6,-1,2021-08-06 17:32:10.859858
3,17,-9,-11,-4,-2,0,-8,2021-08-06 17:32:10.861859
-5,6,14,8,5,4,11,15,2021-08-06 17:32:10.861859
-1,-5,-8,-4,-6,-1,-3,-7,2021-08-06 17:32:10.873858
0,-6,-10,-4,-4,-2,-1,-3,2021-08-06 17:32:10.874859
-3,6,11,-6,3,1,0,-1,2021-08-06 17:32:10.880855
-11,-12,42,6,3,-2,-1,-6,2021-08-06 17:32:10.880855
6,6,-1,-4,-5,2,-2,-1,2021-08-06 17:32:10.897857
-10,6,-29,-1,3,0,0,4,2021-08-06 17:32:10.897857
10,3,-12,-1,-1,1,0,5,2021-08-06 17:32:10.898858
-1,18,-2,1,-2,-6,0,-3,2021-08-06 17:32:10.898858
0,-13,-22,-1,3,0,-1,-4,2021-08-06 17:32:10.919856
-1,-8,14,2,-4,1,-6,-5,2021-08-06 17:32:10.919856
5,-11,6,3,0,0,3,-5,2021-08-06 17:32:10.921859
5,-1,-44,-9,-3,1,-3,11,2021-08-06 17:32:10.921859
-1,4,32,-1,-3,-4,-1,-9,2021-08-06 17:32:10.933857
-4,9,42,-2,2,-2,4,2,2021-08-06 17:32:10.934857
4,-8,-7,-5,-4,1,-2,-1,2021-08-06 17:32:10.940856
4,-13,-17,-7,-1,-1,-5,-10,2021-08-06 17:32:10.941855
1,-8,-15,0,-2,0,0,8,2021-08-06 17:32:10.957858
5,0,29,9,-1,-1,2,-3,2021-08-06 17:32:10.957858
-3,-9,2,0,2,-3,-1,1,2021-08-06 17:32:10.958858
-3,-20,-46,-9,-1,0,2,-2,2021-08-06 17:32:10.958858
2,9,-33,-1,-3,0,1,8,2021-08-06 17:32:10.979855
-2,2,31,-4,5,0,3,-7,2021-08-06 17:32:10.979855
-7,3,1,4,-3,-3,-2,0,2021-08-06 17:32:10.981856
-4,4,-21,-2,-4,-2,-1,-2,2021-08-06 17:32:10.981856
-3,6,3,4,0,2,2,0,2021-08-06 17:32:10.993856
1,7,-38,-4,-4,-1,-2,-6,2021-08-06 17:32:10.993856
0,-5,14,2,-1,2,-2,4,2021-08-06 17:32:11.002857
0,6,17,-1,1,0,3,8,2021-08-06 17:32:11.002857
-9,6,-3,2,-3,-3,-2,-4,2021-08-06 17:32:11.017855
9,14,-28,-3,-1,-2,2,13,2021-08-06 17:32:11.017855
-3,8,50,3,1,0,3,-2,2021-08-06 17:32:11.018857
-9,6,2,-1,1,-2,-1,-5,2021-08-06 17:32:11.018857
5,-6,-2,-2,-4,0,-6,-3,2021-08-06 17:32:11.039856
-3,-11,14,-3,-3,0,-3,-1,2021-08-06 17:32:11.039856
-2,8,-2,0,0,-1,-1,1,2021-08-06 17:32:11.041857
3,0,-33,-4,-1,1,0,-2,2021-08-06 17:32:11.041857
-1,-3,-14,2,1,-2,2,2,2021-08-06 17:32:11.053858
-3,-18,10,-7,-6,1,-3,-7,2021-08-06 17:32:11.053858
2,6,35,-7,-3,-5,-3,-6,2021-08-06 17:32:11.062858
6,1,17,13,2,-1,1,-2,2021-08-06 17:32:11.062858
-9,-6,-36,-7,-3,1,0,-2,2021-08-06 17:32:11.077857
1,20,23,3,4,1,0,0,2021-08-06 17:32:11.077857
3,-6,-14,-1,-7,1,-1,2,2021-08-06 17:32:11.078857
-1,4,10,1,-3,0,0,-3,2021-08-06 17:32:11.078857
0,3,3,-1,1,0,0,6,2021-08-06 17:32:11.099857
5,-4,-33,-8,-6,-1,-2,-25,2021-08-06 17:32:11.099857
5,-7,-12,-3,-2,-1,0,6,2021-08-06 17:32:11.105858
5,-3,9,8,5,0,4,-4,2021-08-06 17:32:11.105858
0,3,14,-1,0,-3,-1,1,2021-08-06 17:32:11.113859
6,-9,-11,0,-2,-1,-2,-1,2021-08-06 17:32:11.113859
-5,1,-25,-5,0,1,0,-7,2021-08-06 17:32:11.122856
1,-6,-18,1,-5,-1,-7,8,2021-08-06 17:32:11.122856
2,1,7,2,4,0,1,-4,2021-08-06 17:32:11.137857
0,-2,23,-1,-1,-4,-1,3,2021-08-06 17:32:11.137857
1,-16,-6,9,2,1,0,-1,2021-08-06 17:32:11.138857
-11,21,18,5,2,-1,-1,1,2021-08-06 17:32:11.138857
-2,3,10,4,-1,1,-2,-3,2021-08-06 17:32:11.159859
3,-14,-49,-7,-4,-1,0,7,2021-08-06 17:32:11.159859
-3,7,30,11,2,2,1,2,2021-08-06 17:32:11.161862
3,-3,-35,-10,-5,-1,-3,-6,2021-08-06 17:32:11.161862
-3,1,21,-1,4,-3,-1,0,2021-08-06 17:32:11.173857
-3,1,-35,2,-4,2,1,1,2021-08-06 17:32:11.173857
-2,-2,-17,-3,-3,-2,-5,-1,2021-08-06 17:32:11.182857
-1,-10,-6,0,0,-3,3,-2,2021-08-06 17:32:11.182857
3,7,8,2,1,-2,-1,-2,2021-08-06 17:32:11.197857
-2,-5,40,-5,-2,0,0,9,2021-08-06 17:32:11.197857
2,5,-22,-1,-2,0,-1,0,2021-08-06 17:32:11.198857
-4,-4,11,-5,0,-5,1,-1,2021-08-06 17:32:11.198857
1,0,-4,4,-3,1,1,3,2021-08-06 17:32:11.219855
2,2,10,-2,3,2,1,3,2021-08-06 17:32:11.219855
-1,25,8,10,5,1,1,-4,2021-08-06 17:32:11.221856
-3,-16,-31,-16,-11,0,-3,-4,2021-08-06 17:32:11.221856
-7,3,2,-11,-2,-2,0,-3,2021-08-06 17:32:11.233857
2,-13,1,1,0,1,-1,-2,2021-08-06 17:32:11.233857
-1,-2,27,6,-3,-4,-2,2,2021-08-06 17:32:11.242860
7,13,-39,0,3,-1,-1,-3,2021-08-06 17:32:11.242860
-14,-15,-48,-8,-3,0,0,-5,2021-08-06 17:32:11.257859
2,-4,25,6,-1,-4,0,-3,2021-08-06 17:32:11.257859
1,-15,0,-11,-3,-1,2,-3,2021-08-06 17:32:11.259858
3,-11,1,4,4,-3,1,12,2021-08-06 17:32:11.260859
4,-9,4,3,-3,-2,-4,0,2021-08-06 17:32:11.279855
-3,5,-11,3,0,-3,1,6,2021-08-06 17:32:11.279855
-2,2,-4,-3,2,-1,-3,1,2021-08-06 17:32:11.281856
0,16,7,5,2,-3,4,-2,2021-08-06 17:32:11.281856
5,6,15,4,1,-1,0,7,2021-08-06 17:32:11.293856
-9,1,2,0,-1,1,-2,0,2021-08-06 17:32:11.293856
1,4,8,-1,-1,-2,0,-1,2021-08-06 17:32:11.302857
-2,-11,24,2,-4,3,-2,-3,2021-08-06 17:32:11.302857
6,1,10,0,-1,-1,-1,1,2021-08-06 17:32:11.317857
-2,7,12,9,4,2,3,-2,2021-08-06 17:32:11.317857
-4,-7,58,-10,-2,-2,0,-1,2021-08-06 17:32:11.318857
-7,-4,40,10,-2,-3,0,-4,2021-08-06 17:32:11.319858
4,-6,17,6,0,4,-3,2,2021-08-06 17:32:11.339856
-7,-5,22,-4,-3,-4,-2,-5,2021-08-06 17:32:11.339856
3,7,-60,4,-1,3,-1,-1,2021-08-06 17:32:11.341858
-3,-8,47,-6,1,-5,-3,-8,2021-08-06 17:32:11.341858
1,10,17,1,-1,4,4,-3,2021-08-06 17:32:11.353857
-4,-1,-22,-13,-2,-3,-7,5,2021-08-06 17:32:11.353857
2,-13,-34,-1,-4,1,-1,8,2021-08-06 17:32:11.362858
-2,-5,-16,-3,-1,1,1,-3,2021-08-06 17:32:11.362858
-1,-9,-38,-2,-3,-4,0,-1,2021-08-06 17:32:11.377856
0,12,18,-3,2,4,-2,-5,2021-08-06 17:32:11.377856
3,-4,-77,-16,-5,-3,1,7,2021-08-06 17:32:11.378859
3,2,33,16,4,-2,3,8,2021-08-06 17:32:11.378859
-5,-11,7,-20,-3,-3,-3,-6,2021-08-06 17:32:11.399857
5,-2,-7,4,-4,-1,0,0,2021-08-06 17:32:11.399857
-2,0,6,-10,-3,0,-2,1,2021-08-06 17:32:11.401856
3,1,-6,1,0,1,-4,-5,2021-08-06 17:32:11.401856
3,12,-28,2,2,-1,-2,1,2021-08-06 17:32:11.422856
-1,0,3,3,0,-3,8,1,2021-08-06 17:32:11.422856
-4,-8,43,-2,0,0,-3,-9,2021-08-06 17:32:11.423857
4,0,-24,-12,-2,-1,2,0,2021-08-06 17:32:11.423857
-4,-5,11,13,-5,0,-4,-3,2021-08-06 17:32:11.437858
3,-3,-7,-2,0,0,1,2,2021-08-06 17:32:11.437858
0,3,45,7,1,0,-2,-12,2021-08-06 17:32:11.438857
-6,2,24,-3,-3,-1,1,0,2021-08-06 17:32:11.438857
2,-1,-17,-9,1,-3,1,1,2021-08-06 17:32:11.459857
-1,2,-3,5,-1,-3,-3,3,2021-08-06 17:32:11.460857
2,0,-15,0,-5,-4,-3,2,2021-08-06 17:32:11.461858
-4,4,-5,-5,1,0,-1,-1,2021-08-06 17:32:11.461858
-2,0,7,3,-1,1,-1,-4,2021-08-06 17:32:11.482857
2,-5,-58,-1,2,2,-2,-1,2021-08-06 17:32:11.482857
1,1,38,3,2,-1,2,-2,2021-08-06 17:32:11.483858
-4,-10,-42,-3,-2,-1,-4,1,2021-08-06 17:32:11.483858
-4,3,19,5,2,-1,1,-4,2021-08-06 17:32:11.497856
4,-8,-12,-2,-3,-1,-2,-4,2021-08-06 17:32:11.497856
-2,15,-5,-9,0,2,2,2,2021-08-06 17:32:11.498858
-3,-6,1,0,-1,-1,-2,-3,2021-08-06 17:32:11.498858
2,-3,-1,0,1,3,-1,-1,2021-08-06 17:32:11.519857
-2,-3,7,-1,-2,-1,-4,-1,2021-08-06 17:32:11.519857
1,0,-14,0,2,2,0,0,2021-08-06 17:32:11.521858
-2,1,10,-1,-1,-1,-3,1,2021-08-06 17:32:11.521858
3,-6,-41,-13,-5,-1,-2,-3,2021-08-06 17:32:11.542857
1,2,26,6,-1,-2,0,0,2021-08-06 17:32:11.542857
4,-3,-28,6,-2,0,-1,-1,2021-08-06 17:32:11.543857
-2,2,-4,-3,1,1,1,-1,2021-08-06 17:32:11.543857
1,-8,1,-3,2,0,0,1,2021-08-06 17:32:11.557858
0,3,22,-1,-2,1,-2,-2,2021-08-06 17:32:11.557858
-3,-2,25,9,-3,1,-1,0,2021-08-06 17:32:11.558861
2,1,-26,1,1,0,0,-1,2021-08-06 17:32:11.558861
-7,-2,6,1,1,-4,2,-2,2021-08-06 17:32:11.579858
10,9,-4,5,-6,2,-1,1,2021-08-06 17:32:11.579858
-5,-4,41,5,2,-4,0,-6,2021-08-06 17:32:11.581858
-3,1,7,-1,-1,0,-2,-1,2021-08-06 17:32:11.581858
-5,3,25,0,0,-2,-1,-5,2021-08-06 17:32:11.602859
0,4,-7,7,3,3,0,-3,2021-08-06 17:32:11.602859
0,-3,-24,-3,-1,0,2,3,2021-08-06 17:32:11.603859
-2,0,16,8,1,-1,1,-4,2021-08-06 17:32:11.603859
-1,2,9,-3,3,-3,-1,0,2021-08-06 17:32:11.616858
-3,-5,4,4,-4,-1,-1,-4,2021-08-06 17:32:11.617337
1,2,-1,-3,0,-1,0,-2,2021-08-06 17:32:11.623857
-3,-5,-4,-3,-4,0,-2,-2,2021-08-06 17:32:11.623857
1,1,14,8,-3,0,3,1,2021-08-06 17:32:11.639857
-1,-4,-14,-12,-3,-3,-1,1,2021-08-06 17:32:11.639857
-2,-4,-34,-16,-7,-3,-4,-3,2021-08-06 17:32:11.641859
1,5,-15,1,1,6,-4,0,2021-08-06 17:32:11.641859
2,0,-2,9,6,-1,1,0,2021-08-06 17:32:11.662858
-4,0,11,0,-2,0,-2,-3,2021-08-06 17:32:11.662858
2,-5,12,5,-6,-9,-1,-3,2021-08-06 17:32:11.663857
-2,1,-14,-23,-2,5,0,-1,2021-08-06 17:32:11.663857
0,0,-7,14,3,-2,-2,1,2021-08-06 17:32:11.675859
0,-3,13,-4,3,2,1,-1,2021-08-06 17:32:11.675859
6,1,-14,5,-5,-5,-3,3,2021-08-06 17:32:11.684857
-5,-2,3,4,-4,0,0,-2,2021-08-06 17:32:11.684857
3,0,-7,7,3,0,2,3,2021-08-06 17:32:11.699857
-5,-2,12,-20,8,-1,2,-3,2021-08-06 17:32:11.699857
7,-3,-21,11,-12,-1,-1,-3,2021-08-06 17:32:11.701857
-1,-1,3,1,4,0,-1,1,2021-08-06 17:32:11.701857
-3,0,5,-6,-6,-2,-1,-2,2021-08-06 17:32:11.722857
-2,-5,-6,6,-15,-3,-2,0,2021-08-06 17:32:11.722857
0,0,2,-5,26,2,0,-1,2021-08-06 17:32:11.723859
-3,-1,18,2,-14,-5,1,-5,2021-08-06 17:32:11.723859
-3,-3,-14,5,8,6,-8,-1,2021-08-06 17:32:11.735856
2,-1,-4,-1,-7,7,0,1,2021-08-06 17:32:11.735856
-4,3,-3,0,3,-4,1,0,2021-08-06 17:32:11.744856
3,-2,4,10,-5,-8,0,0,2021-08-06 17:32:11.744856
-1,0,-8,-5,-12,1,-1,1,2021-08-06 17:32:11.759856
-5,-3,17,8,16,-4,-1,-4,2021-08-06 17:32:11.759856
3,-2,-9,-14,-13,3,-1,0,2021-08-06 17:32:11.761858
-4,3,5,6,2,-8,-4,0,2021-08-06 17:32:11.761858
-4,-2,9,-8,-12,7,1,-3,2021-08-06 17:32:11.782858
2,1,-2,8,12,-3,1,2,2021-08-06 17:32:11.782858
2,0,0,-4,5,1,-3,3,2021-08-06 17:32:11.783857
-2,-4,-7,-1,-1,-2,5,-1,2021-08-06 17:32:11.783857
-5,-2,-14,-7,-15,-3,-5,-4,2021-08-06 17:32:11.795858
11,1,7,-11,-6,4,0,0,2021-08-06 17:32:11.795858
-3,-1,25,3,-1,-1,-3,-1,2021-08-06 17:32:11.804856
-4,-2,-6,2,19,2,2,0,2021-08-06 17:32:11.804856
2,2,-4,-7,-13,-5,2,4,2021-08-06 17:32:11.819855
1,3,1,-4,-10,-6,-2,0,2021-08-06 17:32:11.819855
-3,-4,-14,0,1,0,1,-2,2021-08-06 17:32:11.821858
-1,4,0,4,0,0,1,-3,2021-08-06 17:32:11.821858
6,-5,-6,-7,4,-5,4,2,2021-08-06 17:32:11.842856
4,-1,-4,0,5,3,0,-2,2021-08-06 17:32:11.842856
-3,1,5,-1,-5,1,0,-4,2021-08-06 17:32:11.844856
-4,-1,-38,-4,-3,-2,-5,0,2021-08-06 17:32:11.844856
-1,-4,28,-2,6,0,-4,1,2021-08-06 17:32:11.855857
-1,-2,-11,-7,-8,2,-2,0,2021-08-06 17:32:11.855857
-5,3,9,4,3,1,2,-2,2021-08-06 17:32:11.864857
1,3,13,10,4,2,-1,1,2021-08-06 17:32:11.864857
7,-10,-13,-14,-1,1,-1,0,2021-08-06 17:32:11.879855
-4,-5,33,3,-11,0,-4,-1,2021-08-06 17:32:11.879855
-4,0,-21,5,2,-1,0,-1,2021-08-06 17:32:11.881856
0,-2,21,4,4,3,1,-1,2021-08-06 17:32:11.881856
6,4,6,-5,2,-3,-3,1,2021-08-06 17:32:11.902858
1,0,4,-2,2,0,1,1,2021-08-06 17:32:11.902858
-6,-3,-21,2,-3,-2,-2,-3,2021-08-06 17:32:11.903858
-6,-4,5,3,0,-2,-1,-4,2021-08-06 17:32:11.903858
5,2,11,-11,-7,2,-4,-1,2021-08-06 17:32:11.915857
1,-1,-22,7,0,-3,1,-1,2021-08-06 17:32:11.915857
-4,-1,11,0,0,1,1,-1,2021-08-06 17:32:11.924858
1,-1,-6,-4,0,0,2,2,2021-08-06 17:32:11.924858
1,-1,13,4,2,-1,-1,-1,2021-08-06 17:32:11.939856
-4,-1,-6,-2,-1,0,0,-3,2021-08-06 17:32:11.939856
-2,-5,1,2,-2,0,0,1,2021-08-06 17:32:11.941859
-7,-3,14,0,-1,-4,-2,-1,2021-08-06 17:32:11.941859
-1,3,-2,0,1,1,-1,-1,2021-08-06 17:32:11.962858
0,0,3,-1,2,1,-1,0,2021-08-06 17:32:11.962858
1,2,-13,4,-7,-2,0,0,2021-08-06 17:32:11.963857
-2,0,-14,0,10,-2,1,2,2021-08-06 17:32:11.963857
1,1,39,-5,-10,-2,-4,-3,2021-08-06 17:32:11.975857
-2,2,-18,3,-8,-1,2,-2,2021-08-06 17:32:11.975857
0,1,-15,-5,15,2,-5,-2,2021-08-06 17:32:11.984856
-4,-5,7,0,-12,-5,-1,-5,2021-08-06 17:32:11.984856
2,1,12,6,3,0,0,1,2021-08-06 17:32:11.999858
-2,-1,-12,-5,-3,-1,0,0,2021-08-06 17:32:11.999858
-5,1,12,10,-4,-4,1,-3,2021-08-06 17:32:12.001857
-2,-3,-11,-6,0,3,0,-2,2021-08-06 17:32:12.001857
3,-4,-19,4,5,1,-2,2,2021-08-06 17:32:12.022856
2,-5,29,-9,-3,-1,-1,0,2021-08-06 17:32:12.022856
-1,3,-34,3,5,0,-1,-2,2021-08-06 17:32:12.023857
-1,-1,-5,-8,-2,-5,-1,-2,2021-08-06 17:32:12.023857
3,4,-4,-5,-5,0,2,1,2021-08-06 17:32:12.035855
0,0,-10,-11,-5,-1,-3,2,2021-08-06 17:32:12.035855
-2,0,10,-11,0,-4,0,-5,2021-08-06 17:32:12.044856
5,-2,-8,4,1,-2,-2,0,2021-08-06 17:32:12.044856
1,-3,-13,-5,2,1,5,0,2021-08-06 17:32:12.059856
-1,1,-8,-3,1,1,-3,1,2021-08-06 17:32:12.059856
0,4,23,-4,-2,-3,-2,1,2021-08-06 17:32:12.061857
-7,-7,-44,2,-6,2,-4,-2,2021-08-06 17:32:12.061857
-2,6,33,0,1,-4,0,0,2021-08-06 17:32:12.081856
4,-5,2,-13,0,2,0,-4,2021-08-06 17:32:12.082858
-4,4,-21,5,-3,-3,-3,-1,2021-08-06 17:32:12.083857
2,-4,8,-3,2,-1,2,-2,2021-08-06 17:32:12.083857
3,-7,-15,-4,-3,3,-6,0,2021-08-06 17:32:12.095858
4,19,18,5,1,-1,1,-3,2021-08-06 17:32:12.095858
-6,-28,-11,-19,-7,-4,-1,-2,2021-08-06 17:32:12.104857
4,3,-11,8,-3,-2,-1,0,2021-08-06 17:32:12.104857
3,0,-5,8,2,2,-2,1,2021-08-06 17:32:12.119855
0,-4,0,-8,-3,-2,-3,0,2021-08-06 17:32:12.119855
1,1,-7,1,1,0,0,-1,2021-08-06 17:32:12.121857
-6,-9,11,-1,1,1,1,-2,2021-08-06 17:32:12.121857
3,-1,-5,0,0,-1,2,8,2021-08-06 17:32:12.150858
-14,-2,-7,3,-1,-1,-8,5,2021-08-06 17:32:12.150858
6,3,7,9,2,1,3,-4,2021-08-06 17:32:12.151857
1,2,28,-3,-3,-5,-1,19,2021-08-06 17:32:12.151857
1,2,-9,-5,-3,0,-3,-15,2021-08-06 17:32:12.155857
4,-7,26,19,3,-4,18,3,2021-08-06 17:32:12.156857
-2,0,-15,-16,-6,1,-22,-2,2021-08-06 17:32:12.164857
-6,7,5,-7,-1,-1,2,-1,2021-08-06 17:32:12.164857
-2,-3,11,9,-1,6,-2,7,2021-08-06 17:32:12.179857
8,4,-37,-1,-1,-3,3,3,2021-08-06 17:32:12.179857
-1,10,13,3,-2,-2,7,-2,2021-08-06 17:32:12.181857
0,-10,4,-2,1,-1,1,-8,2021-08-06 17:32:12.181857
-3,2,-1,-4,1,-2,-3,3,2021-08-06 17:32:12.202856
5,-9,26,13,0,2,-6,-12,2021-08-06 17:32:12.202856
1,1,38,-13,-7,-2,1,0,2021-08-06 17:32:12.203857
2,2,-15,-6,1,4,-4,-5,2021-08-06 17:32:12.203857
-4,0,7,-1,-2,-2,0,-6,2021-08-06 17:32:12.215858
6,8,4,14,5,0,-1,23,2021-08-06 17:32:12.215858
-16,-7,-41,-2,2,1,3,-8,2021-08-06 17:32:12.224858
-2,2,-1,10,1,-3,-5,6,2021-08-06 17:32:12.224858
-3,-6,71,0,-3,-3,-1,-5,2021-08-06 17:32:12.239855
6,2,-91,-8,0,0,-3,-6,2021-08-06 17:32:12.239855
3,14,-17,2,2,1,7,12,2021-08-06 17:32:12.241856
-1,-22,-18,-15,-8,2,-4,-8,2021-08-06 17:32:12.241856
-8,-3,38,-1,2,-3,-1,-1,2021-08-06 17:32:12.262377
2,-3,20,6,2,3,-6,-3,2021-08-06 17:32:12.262377
4,-5,5,-2,-7,-6,-2,-3,2021-08-06 17:32:12.264375
4,12,-25,0,-3,2,-2,-2,2021-08-06 17:32:12.264375
3,-4,-23,-21,-2,-1,-1,-2,2021-08-06 17:32:12.276375
-12,1,27,1,-3,-6,0,-10,2021-08-06 17:32:12.276375
-10,2,81,21,4,5,1,-1,2021-08-06 17:32:12.285377
6,-8,-42,-16,-3,2,-1,2,2021-08-06 17:32:12.285377
3,-12,14,22,-3,-6,1,-3,2021-08-06 17:32:12.299376
1,4,12,3,1,-3,3,21,2021-08-06 17:32:12.299376
-18,-9,-1,-2,1,2,-1,4,2021-08-06 17:32:12.306375
0,10,20,3,4,-1,10,-5,2021-08-06 17:32:12.306375
8,-2,-28,-3,0,4,-4,0,2021-08-06 17:32:12.322377
-26,-1,15,0,-2,0,0,-10,2021-08-06 17:32:12.322377
-2,-7,10,6,-1,-3,-2,-4,2021-08-06 17:32:12.324377
2,-5,4,-1,1,-1,8,2,2021-08-06 17:32:12.324377
8,7,-27,11,-1,2,-2,2,2021-08-06 17:32:12.336375
4,-7,-45,-16,-8,-3,-3,-7,2021-08-06 17:32:12.336375
-3,-19,43,-17,-8,3,-4,0,2021-08-06 17:32:12.345376
-1,-3,-1,1,-2,-13,-9,-4,2021-08-06 17:32:12.345376
0,-2,-15,0,3,3,-4,2,2021-08-06 17:32:12.358375
13,5,-9,7,3,2,-3,-4,2021-08-06 17:32:12.358375
-1,17,8,-2,2,-9,-1,-8,2021-08-06 17:32:12.367374
-3,3,9,2,-3,-5,1,14,2021-08-06 17:32:12.367374
-1,9,20,6,0,-3,3,-2,2021-08-06 17:32:12.382374
-7,-5,28,-6,-8,-12,-3,-1,2021-08-06 17:32:12.382374
10,-1,-52,2,6,-1,3,8,2021-08-06 17:32:12.384375
3,-2,52,2,2,0,-1,-33,2021-08-06 17:32:12.384375
-8,10,-54,3,1,-9,4,9,2021-08-06 17:32:12.405374
-5,-14,-32,-14,-5,0,-2,-5,2021-08-06 17:32:12.405374
7,3,-12,-8,-4,9,-1,2,2021-08-06 17:32:12.406374
1,-9,52,12,-4,12,-1,5,2021-08-06 17:32:12.406374
-5,-16,-37,-11,-1,5,-7,-2,2021-08-06 17:32:12.419375
6,10,10,-2,6,3,3,-11,2021-08-06 17:32:12.419375
8,2,0,8,-2,-1,-1,23,2021-08-06 17:32:12.426375
-7,1,-9,-8,-1,5,-3,-7,2021-08-06 17:32:12.426375
-4,3,12,1,-2,-2,7,-5,2021-08-06 17:32:12.450376
4,-1,1,3,1,3,-1,-3,2021-08-06 17:32:12.450376
-16,20,59,3,-4,-2,-29,-1,2021-08-06 17:32:12.451375
0,7,-10,-7,-5,1,-1,8,2021-08-06 17:32:12.451375
-8,9,15,6,-2,-5,-3,10,2021-08-06 17:32:12.465377
-2,4,0,-7,-1,-3,-3,20,2021-08-06 17:32:12.465377
7,-11,-22,10,0,1,7,-9,2021-08-06 17:32:12.466892
-17,-1,66,2,0,-4,1,-3,2021-08-06 17:32:12.466892
3,-5,-82,-25,-8,-2,-4,-10,2021-08-06 17:32:12.479888
-6,16,52,10,5,0,2,1,2021-08-06 17:32:12.479888
15,-19,3,0,-3,5,6,9,2021-08-06 17:32:12.485890
-33,6,20,-2,1,-3,-5,-7,2021-08-06 17:32:12.485890
-2,-10,-16,4,0,2,4,-3,2021-08-06 17:32:12.502889
7,-1,4,-6,-1,3,0,-9,2021-08-06 17:32:12.502889
3,-6,-24,-7,-3,1,4,1,2021-08-06 17:32:12.503888
7,3,2,2,2,2,-1,-5,2021-08-06 17:32:12.503888
-6,3,17,0,0,-1,-1,1,2021-08-06 17:32:12.524888
-4,-4,-41,-1,-2,-1,-2,-3,2021-08-06 17:32:12.524888
0,17,18,2,-1,-3,0,9,2021-08-06 17:32:12.526887
9,-5,-31,-6,0,-2,-2,-2,2021-08-06 17:32:12.526887
3,3,-55,0,0,0,-2,-3,2021-08-06 17:32:12.538887
3,-8,-38,-12,-2,-2,-1,0,2021-08-06 17:32:12.538887
-3,6,50,8,2,1,6,-2,2021-08-06 17:32:12.547888
14,-5,-35,8,2,0,0,4,2021-08-06 17:32:12.547888
-3,-18,39,7,0,-2,1,-4,2021-08-06 17:32:12.562889
2,-3,-16,-8,-2,0,1,-2,2021-08-06 17:32:12.562889
5,-5,-14,2,0,-3,-1,-10,2021-08-06 17:32:12.563889
5,-3,10,4,-2,-4,1,2,2021-08-06 17:32:12.563889
4,-4,37,2,-1,-1,2,-6,2021-08-06 17:32:12.584889
-4,-15,1,5,2,2,-3,4,2021-08-06 17:32:12.584889
-9,-10,-32,-18,-3,-7,-1,-11,2021-08-06 17:32:12.586891
13,-6,-2,0,1,3,-1,5,2021-08-06 17:32:12.586891
3,-21,-43,-9,-2,-1,0,6,2021-08-06 17:32:12.598888
1,16,51,7,-1,-2,2,-2,2021-08-06 17:32:12.598888
2,6,22,13,2,-1,2,-6,2021-08-06 17:32:12.605889
1,-16,-39,-18,-3,2,-3,0,2021-08-06 17:32:12.605889
-7,21,73,2,3,-2,0,-2,2021-08-06 17:32:12.622412
1,-41,-17,-8,-6,-1,-4,-1,2021-08-06 17:32:12.622412
4,-9,-24,-3,-4,4,2,-9,2021-08-06 17:32:12.624399
2,13,-25,2,0,-2,1,9,2021-08-06 17:32:12.624399
-3,10,75,5,-4,-6,-3,0,2021-08-06 17:32:12.644399
-6,12,3,7,0,-1,-3,4,2021-08-06 17:32:12.644399
5,1,-20,-1,0,1,2,-2,2021-08-06 17:32:12.652398
-3,12,-3,-1,-4,-1,-5,-3,2021-08-06 17:32:12.652398
4,0,-31,-6,-4,-1,0,12,2021-08-06 17:32:12.658401
1,-10,-15,-19,-6,-4,-2,-12,2021-08-06 17:32:12.658401
-5,-9,34,1,2,-2,-2,1,2021-08-06 17:32:12.667398
1,9,26,11,0,-2,2,-1,2021-08-06 17:32:12.667398
-2,-1,-1,7,3,4,0,-4,2021-08-06 17:32:12.682398
1,18,-25,6,3,4,5,4,2021-08-06 17:32:12.682398
13,7,-4,-6,-6,-2,-1,-4,2021-08-06 17:32:12.684397
-10,-13,-15,-8,3,-1,0,-2,2021-08-06 17:32:12.684397
-1,10,23,8,6,-1,0,-11,2021-08-06 17:32:12.704398
-4,-1,43,2,0,0,-1,1,2021-08-06 17:32:12.705398
-4,-3,-41,-15,0,-2,1,8,2021-08-06 17:32:12.706399
-2,9,18,15,-3,0,-2,0,2021-08-06 17:32:12.706399
-7,-16,-12,-12,4,-1,-1,-18,2021-08-06 17:32:12.719397
-4,4,-40,10,-6,3,-4,17,2021-08-06 17:32:12.719397
1,-3,33,-6,-5,-7,-5,-4,2021-08-06 17:32:12.726398
-7,-10,-13,-13,-2,1,-1,-2,2021-08-06 17:32:12.726398
1,18,27,6,5,0,7,-5,2021-08-06 17:32:12.742398
-11,-6,62,-13,-3,-3,2,-12,2021-08-06 17:32:12.742398
0,-7,-39,12,0,0,10,33,2021-08-06 17:32:12.744397
7,-5,-41,9,-1,-5,-30,21,2021-08-06 17:32:12.744397
12,-3,-57,-1,-4,0,-2,5,2021-08-06 17:32:12.764398
-21,6,-26,2,4,1,0,7,2021-08-06 17:32:12.764398
-2,-18,41,-7,-2,0,0,-19,2021-08-06 17:32:12.772398
-10,6,23,3,2,1,5,-12,2021-08-06 17:32:12.772398
-7,-9,-10,4,-8,1,-2,22,2021-08-06 17:32:12.779398
6,-4,-37,-3,0,-3,-4,-9,2021-08-06 17:32:12.779398
-4,2,4,2,4,0,-11,-1,2021-08-06 17:32:12.786400
8,5,-6,-8,1,-4,0,24,2021-08-06 17:32:12.786400
-13,-2,46,-2,-4,-1,-1,-38,2021-08-06 17:32:12.802397
10,-6,-31,-6,-4,0,6,-11,2021-08-06 17:32:12.802397
-4,-5,-31,-8,-8,-2,2,3,2021-08-06 17:32:12.804398
8,10,18,-1,3,-1,-20,-12,2021-08-06 17:32:12.804398
0,6,-6,0,-3,-1,4,9,2021-08-06 17:32:12.825398
0,4,30,1,2,-2,-4,-6,2021-08-06 17:32:12.825398
-4,5,-13,-3,-4,1,-1,-3,2021-08-06 17:32:12.826398
-2,29,-41,-5,-4,-1,8,-6,2021-08-06 17:32:12.826398
-2,-9,20,9,1,0,-4,3,2021-08-06 17:32:12.839399
6,-10,-14,-14,-1,0,-4,-3,2021-08-06 17:32:12.839399
3,7,18,3,5,0,0,-2,2021-08-06 17:32:12.847909
-10,1,39,-3,-1,-4,10,-14,2021-08-06 17:32:12.847909
-6,1,-9,-3,1,0,-4,1,2021-08-06 17:32:12.862910
6,1,4,10,1,0,4,6,2021-08-06 17:32:12.862910
3,-21,-3,-7,-3,1,-2,-7,2021-08-06 17:32:12.863909
-9,-16,-24,-2,-3,0,4,0,2021-08-06 17:32:12.863909
9,14,-65,-8,-8,0,-3,10,2021-08-06 17:32:12.884911
3,-7,-27,-11,-2,-1,-3,2,2021-08-06 17:32:12.884911
10,13,-5,5,6,4,0,1,2021-08-06 17:32:12.886911
0,-13,7,-2,-2,1,2,-6,2021-08-06 17:32:12.886911
0,5,-2,-2,1,0,3,0,2021-08-06 17:32:12.898908
-6,12,74,12,4,0,3,-5,2021-08-06 17:32:12.898908
-3,-12,17,-9,-7,-5,-8,3,2021-08-06 17:32:12.907910
-3,-3,60,-3,-1,-4,1,-25,2021-08-06 17:32:12.907910
2,-5,0,-6,2,-1,1,8,2021-08-06 17:32:12.922910
-12,13,-29,5,-3,-3,-2,21,2021-08-06 17:32:12.922910
3,-15,-11,1,-4,1,0,-10,2021-08-06 17:32:12.923910
4,0,13,4,-1,2,2,8,2021-08-06 17:32:12.923910
-1,-1,-15,-7,2,2,-5,-2,2021-08-06 17:32:12.944909
13,9,16,2,2,-2,10,-9,2021-08-06 17:32:12.944909
-12,8,80,18,1,-3,-11,1,2021-08-06 17:32:12.946910
-2,-12,-36,-13,-4,-3,2,4,2021-08-06 17:32:12.946910
-8,-6,26,0,-1,-1,-2,-6,2021-08-06 17:32:12.966909
8,-1,5,3,0,1,1,1,2021-08-06 17:32:12.967910
-2,8,26,3,2,2,0,-7,2021-08-06 17:32:12.968909
0,-4,-1,-7,3,1,11,5,2021-08-06 17:32:12.968909
3,-2,-20,2,3,-2,-6,-3,2021-08-06 17:32:12.981908
-6,-5,48,5,-4,-1,-4,-3,2021-08-06 17:32:12.982910
0,2,-52,-3,3,0,2,6,2021-08-06 17:32:12.983910
-9,8,21,17,-1,-4,3,15,2021-08-06 17:32:12.983910
11,-3,-13,-4,-3,-2,3,11,2021-08-06 17:32:13.004908
-13,-3,9,1,-2,0,-11,-8,2021-08-06 17:32:13.004908
-2,-2,-45,-15,-4,-1,5,-5,2021-08-06 17:32:13.006908
6,5,9,5,3,5,1,-5,2021-08-06 17:32:13.006908
-1,1,19,10,2,-2,1,-5,2021-08-06 17:32:13.018908
0,-9,36,-6,-2,1,-13,6,2021-08-06 17:32:13.018908
10,5,-32,-8,0,-1,1,-11,2021-08-06 17:32:13.027909
-4,-1,26,9,-4,-2,-1,-5,2021-08-06 17:32:13.027909
-2,-3,0,-7,-1,-3,0,-2,2021-08-06 17:32:13.041910
1,23,-13,3,0,-2,7,-3,2021-08-06 17:32:13.042911
-8,3,7,-7,1,-2,2,-1,2021-08-06 17:32:13.048908
8,-26,-17,-6,-6,1,-2,-3,2021-08-06 17:32:13.048908
-3,-14,12,0,-3,1,-2,-2,2021-08-06 17:32:13.064908
4,1,-3,-4,1,-2,-1,-4,2021-08-06 17:32:13.064908
-9,-5,-15,5,0,-1,0,26,2021-08-06 17:32:13.066909
-3,12,-23,-2,3,-4,1,10,2021-08-06 17:32:13.066909
-4,1,85,2,0,-1,0,-11,2021-08-06 17:32:13.078910
-12,-21,-21,6,0,-1,-10,-1,2021-08-06 17:32:13.078910
1,13,16,-9,-4,-1,10,-10,2021-08-06 17:32:13.087908
14,2,21,2,0,-1,-2,-9,2021-08-06 17:32:13.087908
-5,3,-38,-1,0,0,0,-3,2021-08-06 17:32:13.101909
8,-2,1,4,-3,1,-4,0,2021-08-06 17:32:13.102909
-8,-10,-2,5,2,1,2,-5,2021-08-06 17:32:13.103910
-5,8,10,-3,0,1,3,-3,2021-08-06 17:32:13.103910
5,0,7,-1,-2,-1,3,2,2021-08-06 17:32:13.124931
0,1,18,12,1,1,11,-7,2021-08-06 17:32:13.124931
0,-6,-22,-3,-5,-3,-4,2,2021-08-06 17:32:13.126928
-3,-4,-10,-2,-1,0,3,-3,2021-08-06 17:32:13.126928
-3,-10,-17,-8,1,-3,1,11,2021-08-06 17:32:13.138928
-6,6,-2,5,3,-2,0,-2,2021-08-06 17:32:13.138928
5,0,11,5,0,1,-2,-3,2021-08-06 17:32:13.147929
-2,-3,-59,-11,0,-5,-5,-14,2021-08-06 17:32:13.147929
-8,-2,23,1,-6,-2,-5,26,2021-08-06 17:32:13.161930
0,-16,12,-3,-2,2,1,-4,2021-08-06 17:32:13.162929
6,14,26,-1,0,-4,-2,-6,2021-08-06 17:32:13.163930
-6,-11,-13,1,1,0,-4,-1,2021-08-06 17:32:13.163930
-1,4,-7,1,2,3,2,-2,2021-08-06 17:32:13.184931
-2,-3,-2,-10,-1,-2,0,2,2021-08-06 17:32:13.184931
1,3,59,4,0,2,1,-9,2021-08-06 17:32:13.185931
8,10,11,3,-3,-2,-1,-3,2021-08-06 17:32:13.186931
1,4,-5,-2,-2,-1,0,-6,2021-08-06 17:32:13.198932
-10,-8,-22,-7,-2,0,3,4,2021-08-06 17:32:13.198932
1,11,-12,6,1,-2,0,-3,2021-08-06 17:32:13.207931
5,14,8,-8,1,-1,-3,-8,2021-08-06 17:32:13.207931
4,-6,2,-1,-1,2,3,-3,2021-08-06 17:32:13.222930
1,1,35,3,0,-1,-1,-4,2021-08-06 17:32:13.222930
-4,1,-37,-6,-4,-4,-7,5,2021-08-06 17:32:13.223931
0,-8,-3,-7,-7,0,-2,0,2021-08-06 17:32:13.223931
-5,3,6,5,0,1,-3,-4,2021-08-06 17:32:13.244930
0,-11,-61,-12,-3,1,-2,-6,2021-08-06 17:32:13.244930
2,-7,-4,2,3,-1,6,0,2021-08-06 17:32:13.246929
-2,-2,15,1,-2,1,2,-1,2021-08-06 17:32:13.246929
6,-6,-64,-14,-5,-1,-4,-9,2021-08-06 17:32:13.267929
4,-6,16,3,1,-2,-1,1,2021-08-06 17:32:13.267929
-6,-12,31,9,3,0,-4,1,2021-08-06 17:32:13.268929
1,-2,-74,-3,-1,0,1,16,2021-08-06 17:32:13.268929
-2,11,16,3,2,0,2,-23,2021-08-06 17:32:13.281929
12,12,-8,-1,-2,1,-1,3,2021-08-06 17:32:13.282930
-8,-5,-16,-1,-2,1,-2,8,2021-08-06 17:32:13.283930
5,-6,30,-4,-1,-2,0,2,2021-08-06 17:32:13.283930
-8,-8,-3,3,-1,-4,-2,2,2021-08-06 17:32:13.304931
3,6,-11,-7,-1,-3,-2,3,2021-08-06 17:32:13.304931
0,3,14,-4,-2,2,1,-4,2021-08-06 17:32:13.306930
-8,-1,2,2,-1,-2,-2,1,2021-08-06 17:32:13.306930
12,-10,-25,-7,-3,-2,-2,0,2021-08-06 17:32:13.327447
-5,3,26,2,-3,-1,0,-5,2021-08-06 17:32:13.327447
2,5,-50,-19,1,-1,0,-2,2021-08-06 17:32:13.329449
-8,-13,40,20,-2,-3,1,-3,2021-08-06 17:32:13.329449
4,-5,-41,-11,-1,2,-3,-3,2021-08-06 17:32:13.342448
1,4,13,-2,-1,-3,-2,2,2021-08-06 17:32:13.342448
2,17,-19,8,2,0,0,10,2021-08-06 17:32:13.344448
-6,20,15,-8,-1,-2,-3,-7,2021-08-06 17:32:13.344448
-7,9,42,10,4,-2,-5,3,2021-08-06 17:32:13.365448
0,-4,-26,-5,-5,1,-1,-2,2021-08-06 17:32:13.365448
-7,6,33,4,-3,-3,1,8,2021-08-06 17:32:13.366449
2,-6,-20,4,2,2,1,-5,2021-08-06 17:32:13.366449
-9,2,20,-8,-4,1,-2,1,2021-08-06 17:32:13.387449
2,-15,-11,-3,-1,-2,-2,-4,2021-08-06 17:32:13.387449
0,-8,-4,-2,-1,-2,0,0,2021-08-06 17:32:13.389449
-1,4,5,0,1,-5,-4,7,2021-08-06 17:32:13.389449
0,2,25,5,2,1,2,-12,2021-08-06 17:32:13.401960
9,-3,-34,1,0,-1,12,-3,2021-08-06 17:32:13.402960
-2,-8,-14,1,0,-1,-3,-5,2021-08-06 17:32:13.403962
2,-17,-44,-13,-3,2,1,-4,2021-08-06 17:32:13.403962
-2,-4,-40,-8,-4,-1,-7,3,2021-08-06 17:32:13.424964
-2,14,15,-7,1,-1,-2,-1,2021-08-06 17:32:13.424964
-2,-4,-2,8,-1,-1,3,6,2021-08-06 17:32:13.426962
0,17,15,-1,1,0,0,6,2021-08-06 17:32:13.426962
5,9,-18,1,0,0,4,-4,2021-08-06 17:32:13.446962
-8,10,34,5,1,-2,-3,-2,2021-08-06 17:32:13.447962
-3,-13,-27,-7,-2,-2,-2,-9,2021-08-06 17:32:13.448962
4,-4,-11,2,-4,1,0,4,2021-08-06 17:32:13.448962
-5,-4,20,-2,-1,0,-3,-3,2021-08-06 17:32:13.461962
2,6,20,9,2,-1,4,3,2021-08-06 17:32:13.461962
-4,-7,5,-2,-3,1,-4,-6,2021-08-06 17:32:13.468962
-2,-6,-32,-2,1,-2,-3,-2,2021-08-06 17:32:13.468962
-6,-1,53,-2,-1,-1,-1,2,2021-08-06 17:32:13.484961
2,-14,18,3,-2,-1,-5,-10,2021-08-06 17:32:13.484961
-5,8,-5,4,-3,0,2,-1,2021-08-06 17:32:13.485962
-3,-5,9,-1,1,3,1,4,2021-08-06 17:32:13.486963
5,-6,-67,-2,-3,-1,-1,2,2021-08-06 17:32:13.507962
-5,-12,-16,-11,1,-3,-3,1,2021-08-06 17:32:13.507962
6,-7,-16,3,-1,-3,-2,-1,2021-08-06 17:32:13.508962
-4,-2,22,0,-5,1,-3,2,2021-08-06 17:32:13.508962
2,-8,-46,-2,-3,-2,-1,1,2021-08-06 17:32:13.521964
-5,-20,-25,-21,-6,-2,-2,0,2021-08-06 17:32:13.521964
11,5,23,11,3,0,0,-6,2021-08-06 17:32:13.528962
-11,-2,-4,-10,-5,0,0,-2,2021-08-06 17:32:13.528962
3,-5,39,10,1,0,1,5,2021-08-06 17:32:13.544963
-1,-7,-17,8,-6,0,-3,4,2021-08-06 17:32:13.544963
-5,9,1,-25,0,-2,-2,0,2021-08-06 17:32:13.546962
7,-1,9,24,1,-4,-3,-4,2021-08-06 17:32:13.546962
-5,1,-4,5,3,1,3,1,2021-08-06 17:32:13.567960
2,12,17,13,2,-3,-3,-6,2021-08-06 17:32:13.567960
3,1,-33,-12,-1,0,-2,-3,2021-08-06 17:32:13.568961
0,-4,2,-8,0,-2,0,5,2021-08-06 17:32:13.568961
3,3,-21,-4,0,0,-3,13,2021-08-06 17:32:13.581962
4,11,-4,5,5,3,3,7,2021-08-06 17:32:13.581962
1,4,-1,1,-4,-2,-3,-3,2021-08-06 17:32:13.588962
4,-15,26,0,3,0,-4,-5,2021-08-06 17:32:13.588962
1,9,-2,15,-1,-1,7,0,2021-08-06 17:32:13.604960
1,1,-8,-13,0,3,-3,2,2021-08-06 17:32:13.604960
1,7,3,-5,-5,-3,-9,0,2021-08-06 17:32:13.606960
-2,6,-15,3,3,-3,-3,0,2021-08-06 17:32:13.606960
3,4,26,-2,-5,-2,0,-6,2021-08-06 17:32:13.627962
3,-10,-10,6,1,1,-3,1,2021-08-06 17:32:13.627962
-1,-3,7,4,1,2,1,-28,2021-08-06 17:32:13.628962
-2,-4,-22,-5,-1,-1,8,17,2021-08-06 17:32:13.628962
-8,-12,7,-13,-4,-5,-18,-2,2021-08-06 17:32:13.641963
5,12,7,-4,-2,-2,-2,-17,2021-08-06 17:32:13.641963
2,-6,-4,5,-3,0,-1,19,2021-08-06 17:32:13.648962
-11,2,-22,-5,-1,-3,2,-2,2021-08-06 17:32:13.648962
-7,1,18,4,1,1,3,-5,2021-08-06 17:32:13.664960
8,12,-17,3,-3,2,-1,15,2021-08-06 17:32:13.664960
2,-12,13,6,1,-4,16,2,2021-08-06 17:32:13.666962
1,20,8,-4,-4,-1,-16,-6,2021-08-06 17:32:13.666962
16,10,-29,-6,0,-1,7,-41,2021-08-06 17:32:13.686963
-12,-3,21,3,-1,-1,-2,1,2021-08-06 17:32:13.687962
0,2,9,6,0,1,3,4,2021-08-06 17:32:13.688962
3,-2,15,-9,-2,-1,-2,-7,2021-08-06 17:32:13.688962
1,-1,-2,8,-2,-4,-1,2,2021-08-06 17:32:13.701990
5,-5,-4,-2,-4,1,-2,3,2021-08-06 17:32:13.701990
-18,-4,49,-8,-3,-4,-3,-5,2021-08-06 17:32:13.708505
-1,6,25,6,1,-4,3,-8,2021-08-06 17:32:13.708505
1,-5,-21,7,-2,0,-2,12,2021-08-06 17:32:13.724504
-5,1,47,-1,0,-3,5,-9,2021-08-06 17:32:13.724504
9,11,7,17,2,2,-6,8,2021-08-06 17:32:13.726503
0,-2,40,-7,0,-4,-1,-3,2021-08-06 17:32:13.726503
3,-13,-12,-5,0,0,4,3,2021-08-06 17:32:13.746505
-2,-7,-67,0,-3,-1,-2,1,2021-08-06 17:32:13.746505
6,-1,-25,-6,-4,-4,-4,-6,2021-08-06 17:32:13.747503
-7,-4,4,-8,3,2,1,-4,2021-08-06 17:32:13.747503
-5,1,17,8,0,-2,-5,3,2021-08-06 17:32:13.761504
-4,1,37,-6,-1,-1,1,-2,2021-08-06 17:32:13.761504
-6,-11,-27,-1,5,-1,-1,4,2021-08-06 17:32:13.769502
-5,-5,-42,3,-1,2,2,-6,2021-08-06 17:32:13.769502
-5,1,27,-17,-2,-4,-1,4,2021-08-06 17:32:13.784503
-6,-4,-29,4,1,1,0,2,2021-08-06 17:32:13.784503
8,-1,-26,-3,-6,2,1,1,2021-08-06 17:32:13.784503
1,3,28,13,3,-2,-1,-3,2021-08-06 17:32:13.785504
-4,5,43,2,5,-2,1,-1,2021-08-06 17:32:13.806502
-5,-4,-23,-5,-3,-1,-2,1,2021-08-06 17:32:13.806502
-1,-6,26,-6,-5,0,-2,5,2021-08-06 17:32:13.807504
3,1,11,-1,-4,-2,2,10,2021-08-06 17:32:13.807504
4,6,13,5,-2,0,-3,-6,2021-08-06 17:32:13.829503
7,5,-16,-6,2,2,1,-4,2021-08-06 17:32:13.830504
1,-1,-23,-7,1,1,-4,3,2021-08-06 17:32:13.830504
-10,-23,-18,1,-5,-1,-2,5,2021-08-06 17:32:13.830504
-2,11,21,2,2,0,2,-2,2021-08-06 17:32:13.844502
-3,-22,9,2,-4,-4,-2,-2,2021-08-06 17:32:13.844502
-3,-2,4,-2,1,1,1,-11,2021-08-06 17:32:13.844502
5,0,-36,2,-1,-1,-1,-13,2021-08-06 17:32:13.845504
-2,-8,-44,-5,-2,-2,-2,2,2021-08-06 17:32:13.866504
0,6,-19,-1,-1,1,5,-3,2021-08-06 17:32:13.866504
4,-9,-21,-5,3,-2,-5,3,2021-08-06 17:32:13.867503
-1,4,35,12,3,2,-7,-23,2021-08-06 17:32:13.867503
7,5,19,-6,0,0,3,8,2021-08-06 17:32:13.881503
-1,-2,11,-7,-5,-4,-5,-7,2021-08-06 17:32:13.881503
-5,9,33,10,0,-3,-1,1,2021-08-06 17:32:13.889504
10,17,21,-3,6,-1,1,2,2021-08-06 17:32:13.889504
-4,-12,10,3,-1,0,1,-11,2021-08-06 17:32:13.904502
11,13,29,5,-2,-1,0,11,2021-08-06 17:32:13.904502
-14,-10,2,-3,-4,1,0,-7,2021-08-06 17:32:13.904502
-1,2,12,4,-2,-1,2,6,2021-08-06 17:32:13.905502
-6,-8,-27,-4,-3,3,-5,-1,2021-08-06 17:32:13.926502
0,-15,17,1,-3,0,-4,18,2021-08-06 17:32:13.926502
4,-6,-2,-1,2,-3,0,-3,2021-08-06 17:32:13.927502
-6,-16,-11,-6,-5,1,-1,-1,2021-08-06 17:32:13.927502
-6,-7,-31,4,-2,-1,-6,0,2021-08-06 17:32:13.941504
1,11,35,-3,2,-5,5,6,2021-08-06 17:32:13.941504
-2,-3,-3,1,1,0,-3,-9,2021-08-06 17:32:13.949506
0,6,-18,-1,-4,1,0,4,2021-08-06 17:32:13.949506
16,4,-59,-9,-1,1,22,-2,2021-08-06 17:32:13.964503
-15,5,1,0,3,-2,0,2,2021-08-06 17:32:13.964503
13,3,19,7,-1,-2,0,-1,2021-08-06 17:32:13.965504
-5,-15,-83,-18,-4,1,-3,-2,2021-08-06 17:32:13.965504
4,7,7,7,-3,-1,-3,0,2021-08-06 17:32:13.986503
-1,-7,-11,-4,-1,2,-4,-11,2021-08-06 17:32:13.986503
3,-1,-27,-3,1,0,18,0,2021-08-06 17:32:13.987503
6,-5,-7,-4,1,0,-16,-3,2021-08-06 17:32:13.987503
-3,2,27,4,0,1,3,9,2021-08-06 17:32:14.001503
0,-7,-41,-3,-3,-1,0,-3,2021-08-06 17:32:14.001503
1,3,-6,-4,1,0,-6,3,2021-08-06 17:32:14.009503
0,2,25,7,-4,-1,-2,13,2021-08-06 17:32:14.009503
-5,-15,-29,-5,0,1,-1,2,2021-08-06 17:32:14.024503
0,-1,54,-7,-5,-1,-2,-2,2021-08-06 17:32:14.024503
-1,-1,13,17,0,3,-1,-3,2021-08-06 17:32:14.024503
0,14,78,-6,1,-4,7,0,2021-08-06 17:32:14.025505
-21,-22,3,-9,-5,-2,-9,-2,2021-08-06 17:32:14.046505
-3,-5,-26,2,3,4,1,-6,2021-08-06 17:32:14.046505
-8,-2,38,-2,-4,-4,-3,12,2021-08-06 17:32:14.047504
-1,14,-29,-5,0,2,6,-3,2021-08-06 17:32:14.047504
13,2,-17,1,0,0,-4,-1,2021-08-06 17:32:14.061504
-16,-1,-13,2,-3,-4,-4,0,2021-08-06 17:32:14.061504
9,7,2,-5,-5,0,-2,-17,2021-08-06 17:32:14.069503
-5,-8,-13,5,1,2,-2,-6,2021-08-06 17:32:14.069503
1,11,46,4,0,-3,3,8,2021-08-06 17:32:14.084502
-4,8,-17,4,2,4,-2,-4,2021-08-06 17:32:14.084502
1,-2,5,-11,-3,-8,-5,3,2021-08-06 17:32:14.084502
-5,-20,4,3,-1,1,0,2,2021-08-06 17:32:14.085503
3,-2,-14,0,-3,0,-5,-8,2021-08-06 17:32:14.106502
2,3,20,3,-3,-3,3,-1,2021-08-06 17:32:14.106502
-8,-13,-10,-3,-2,1,-2,1,2021-08-06 17:32:14.107504
-1,-3,13,2,-4,-1,3,-5,2021-08-06 17:32:14.107504
-6,-10,14,3,0,0,-6,3,2021-08-06 17:32:14.121503
13,-6,-15,-4,-3,-1,-1,-1,2021-08-06 17:32:14.121503
-3,10,-16,-3,0,0,1,4,2021-08-06 17:32:14.129504
-4,-3,11,-1,0,-4,-1,-3,2021-08-06 17:32:14.129504
5,5,9,-3,-2,-3,-2,-2,2021-08-06 17:32:14.144504
-3,-7,-33,-7,-2,0,-1,3,2021-08-06 17:32:14.144504
5,2,-2,2,-4,3,-2,-6,2021-08-06 17:32:14.145503
0,17,-25,0,3,-2,3,1,2021-08-06 17:32:14.145503
-8,9,-14,3,4,-1,1,-2,2021-08-06 17:32:14.166503
11,14,19,3,3,-2,-4,-3,2021-08-06 17:32:14.167502
-10,2,50,4,0,-1,-1,7,2021-08-06 17:32:14.167502
1,3,-35,2,-2,0,2,-18,2021-08-06 17:32:14.167502
3,-4,1,0,1,0,0,-1,2021-08-06 17:32:14.190503
-2,-7,-2,5,0,-2,-1,-6,2021-08-06 17:32:14.190503
0,2,-33,-4,-3,2,0,16,2021-08-06 17:32:14.191504
-5,17,7,5,-1,-2,3,3,2021-08-06 17:32:14.191504
-18,-1,3,-2,0,0,-5,-11,2021-08-06 17:32:14.204503
3,-5,-24,5,1,2,8,-8,2021-08-06 17:32:14.204503
-1,-8,37,-3,-6,-6,-6,2,2021-08-06 17:32:14.204503
-1,4,32,8,3,0,-3,-2,2021-08-06 17:32:14.205504
-3,4,-17,-14,-4,0,-2,-2,2021-08-06 17:32:14.226502
0,-11,-12,1,-2,1,3,2,2021-08-06 17:32:14.226502
-3,-25,-39,-5,-3,-1,-4,-8,2021-08-06 17:32:14.227504
4,-9,21,-2,1,-4,-1,2,2021-08-06 17:32:14.227504
-2,8,9,13,3,1,0,3,2021-08-06 17:32:14.249503
-5,-22,8,-8,-5,-3,-5,-1,2021-08-06 17:32:14.250503
3,8,18,2,3,1,2,-5,2021-08-06 17:32:14.250503
4,-10,-68,-7,-4,0,-2,4,2021-08-06 17:32:14.250503
0,-14,-39,-11,-5,-4,-1,-1,2021-08-06 17:32:14.264502
-1,12,1,-1,3,-2,-4,-3,2021-08-06 17:32:14.264502
3,11,-1,10,3,2,-1,-6,2021-08-06 17:32:14.264502
-7,10,-24,-10,-4,1,-1,-3,2021-08-06 17:32:14.265503
2,7,18,11,3,-1,0,2,2021-08-06 17:32:14.286502
-7,6,58,-5,0,1,-1,-3,2021-08-06 17:32:14.286502
0,-1,-49,-7,0,0,0,-4,2021-08-06 17:32:14.287504
0,-7,36,13,4,3,-1,6,2021-08-06 17:32:14.287504
1,-2,2,-5,-3,-6,-3,-13,2021-08-06 17:32:14.317503
1,12,-22,-6,-4,-5,-4,8,2021-08-06 17:32:14.317503
8,22,-5,0,1,3,2,0,2021-08-06 17:32:14.318503
-3,-14,-10,5,-2,0,-1,-4,2021-08-06 17:32:14.318503
-2,-30,15,-3,-6,-4,-1,2,2021-08-06 17:32:14.324505
1,-4,-29,3,1,-1,0,-3,2021-08-06 17:32:14.324505
0,-8,32,-9,-4,-3,-3,-4,2021-08-06 17:32:14.324505
-1,1,-30,-11,-2,-2,-4,3,2021-08-06 17:32:14.325505
0,13,-2,11,1,4,1,2,2021-08-06 17:32:14.346504
-1,9,-10,5,-2,1,1,-7,2021-08-06 17:32:14.346504
4,8,20,2,-1,-3,-2,-6,2021-08-06 17:32:14.347505
6,-6,-6,3,3,1,0,12,2021-08-06 17:32:14.347505
-6,-26,-25,-10,-4,1,-3,-7,2021-08-06 17:32:14.369502
-2,15,-17,9,3,2,3,-1,2021-08-06 17:32:14.370504
-6,-1,33,8,-2,-4,-1,3,2021-08-06 17:32:14.370504
4,-4,-16,-4,-4,1,-2,2,2021-08-06 17:32:14.370504
-3,5,-13,-7,0,-2,-1,-8,2021-08-06 17:32:14.384503
6,-5,26,5,1,0,0,14,2021-08-06 17:32:14.384503
3,1,-45,-14,-5,0,0,1,2021-08-06 17:32:14.385504
-6,11,-11,1,-4,-3,-1,-11,2021-08-06 17:32:14.385504
0,11,37,-4,0,-2,0,11,2021-08-06 17:32:14.406503
-3,3,1,-7,-4,-3,-1,-9,2021-08-06 17:32:14.407503
-3,6,-1,12,0,1,-3,-1,2021-08-06 17:32:14.407503
0,-3,-19,-15,0,-3,-2,0,2021-08-06 17:32:14.407503
5,16,21,9,1,0,2,-3,2021-08-06 17:32:14.437504
-7,-14,32,-8,-3,-3,-2,-6,2021-08-06 17:32:14.437504
-14,-2,-27,-2,0,5,4,2,2021-08-06 17:32:14.438504
-4,-7,-1,7,3,3,-1,-2,2021-08-06 17:32:14.438504
-1,-7,23,-11,-1,-1,-2,-2,2021-08-06 17:32:14.444502
7,0,-45,-2,-1,1,-2,4,2021-08-06 17:32:14.444502
1,-12,29,2,0,-3,-2,0,2021-08-06 17:32:14.445505
5,-2,14,8,0,-4,-1,-6,2021-08-06 17:32:14.445505
-4,-2,5,-9,-9,0,-3,7,2021-08-06 17:32:14.466503
1,-22,-25,-3,0,2,0,4,2021-08-06 17:32:14.466503
9,-8,-37,-11,-2,-2,1,-5,2021-08-06 17:32:14.467504
-3,5,62,3,-1,1,-1,1,2021-08-06 17:32:14.467504
-6,-6,-33,-3,-4,-1,-1,0,2021-08-06 17:32:14.497503
0,-2,10,2,2,4,-4,-6,2021-08-06 17:32:14.497503
-8,-26,-44,-5,-4,-2,-3,-2,2021-08-06 17:32:14.498503
-4,6,33,-3,4,-4,0,0,2021-08-06 17:32:14.498503
3,15,1,14,-1,1,-1,2,2021-08-06 17:32:14.504503
3,11,23,3,3,-3,3,-2,2021-08-06 17:32:14.504503
-1,16,-6,1,2,0,3,0,2021-08-06 17:32:14.505503
-1,-10,7,-5,-3,-1,0,-4,2021-08-06 17:32:14.505503
1,5,-12,9,3,-3,0,-1,2021-08-06 17:32:14.526502
-3,-4,13,-7,-4,-1,-3,0,2021-08-06 17:32:14.526502
6,4,9,-4,3,2,-2,-1,2021-08-06 17:32:14.527504
-1,-2,-6,-7,-4,-1,0,-6,2021-08-06 17:32:14.527504
7,-1,-2,3,1,1,3,-2,2021-08-06 17:32:14.549505
-9,0,12,4,0,-1,-5,15,2021-08-06 17:32:14.550505
-2,-3,13,3,-1,1,0,4,2021-08-06 17:32:14.550505
-4,-4,-18,-5,-2,-4,3,3,2021-08-06 17:32:14.550505
4,-4,-11,-3,2,2,-1,-1,2021-08-06 17:32:14.564504
-3,5,55,-1,-1,-4,-6,-5,2021-08-06 17:32:14.564504
2,-8,14,-3,-3,0,2,4,2021-08-06 17:32:14.565503
-4,-6,26,7,-2,-2,1,-2,2021-08-06 17:32:14.565503
-9,3,4,-6,-1,-1,2,-1,2021-08-06 17:32:14.586504
-2,14,11,6,2,-1,1,-2,2021-08-06 17:32:14.586504
-5,3,27,3,-1,-4,-3,-4,2021-08-06 17:32:14.587503
6,-28,-67,-11,-4,-1,-1,-1,2021-08-06 17:32:14.587503
2,8,-41,-12,-2,-1,0,-3,2021-08-06 17:32:14.610504
-5,-6,-24,6,-4,2,-2,-5,2021-08-06 17:32:14.610504
2,17,-22,1,2,-1,-2,-3,2021-08-06 17:32:14.610504
4,8,-34,-5,-6,2,-3,-3,2021-08-06 17:32:14.611504
-2,16,63,17,7,0,0,4,2021-08-06 17:32:14.624504
3,-51,-79,-18,-12,-5,-3,-3,2021-08-06 17:32:14.624504
-1,4,42,5,0,-1,0,-3,2021-08-06 17:32:14.624504
-1,1,-27,-7,-1,-1,-1,0,2021-08-06 17:32:14.625506
3,-20,-76,-18,-4,1,-2,-1,2021-08-06 17:32:14.646503
4,16,24,4,3,1,1,0,2021-08-06 17:32:14.646503
-3,-16,-37,-9,-2,-2,-3,-4,2021-08-06 17:32:14.647504
7,9,9,9,1,-1,0,0,2021-08-06 17:32:14.647504
-10,-14,79,-8,-3,-4,-5,-3,2021-08-06 17:32:14.670503
8,34,-28,5,5,1,1,1,2021-08-06 17:32:14.670503
-7,-22,-39,-9,-7,0,-1,1,2021-08-06 17:32:14.670503
-6,24,11,5,2,-3,1,0,2021-08-06 17:32:14.670503
-1,25,23,1,-1,-3,-1,-4,2021-08-06 17:32:14.684503
1,-12,23,0,-4,-4,0,0,2021-08-06 17:32:14.684503
-1,4,-42,3,3,0,2,-3,2021-08-06 17:32:14.685504
0,12,-7,4,-2,-1,-1,2,2021-08-06 17:32:14.685504
-9,-17,39,-6,-2,-4,-1,-6,2021-08-06 17:32:14.706502
0,4,18,-2,5,-2,0,-5,2021-08-06 17:32:14.706502
4,-27,-10,-7,-6,-4,-6,5,2021-08-06 17:32:14.707506
-14,6,15,6,-4,0,-2,-30,2021-08-06 17:32:14.707506
3,-38,-78,-16,-6,2,-3,6,2021-08-06 17:32:14.730503
3,-19,20,-15,-3,-3,-3,-6,2021-08-06 17:32:14.730503
-1,-3,-8,8,1,1,0,19,2021-08-06 17:32:14.730503
1,3,2,-8,1,0,0,-5,2021-08-06 17:32:14.731503
3,11,35,6,1,-1,2,-4,2021-08-06 17:32:14.744502
-4,-6,-20,-6,-4,-2,-1,-2,2021-08-06 17:32:14.744502
0,21,-12,1,-4,0,-4,-5,2021-08-06 17:32:14.745505
3,-22,21,-5,2,2,-2,4,2021-08-06 17:32:14.745505
2,9,2,1,-1,-2,-2,1,2021-08-06 17:32:14.766503
3,7,-40,4,-4,1,1,14,2021-08-06 17:32:14.767503
7,12,-43,8,4,2,0,4,2021-08-06 17:32:14.767503
0,-6,6,0,-2,0,0,5,2021-08-06 17:32:14.767503
4,-7,-83,-4,-2,2,-2,2,2021-08-06 17:32:14.789503
-5,13,25,-2,3,0,0,4,2021-08-06 17:32:14.790504
-3,11,39,8,2,-3,2,-9,2021-08-06 17:32:14.790504
3,0,-11,3,-10,0,-4,5,2021-08-06 17:32:14.790504
5,-1,-7,-4,0,1,0,4,2021-08-06 17:32:14.804503
-8,-3,-19,10,1,-1,1,-6,2021-08-06 17:32:14.804503
5,11,20,-6,-5,-2,-1,-6,2021-08-06 17:32:14.805503
-7,-5,-14,9,4,-2,1,7,2021-08-06 17:32:14.805503
0,0,14,-3,1,-2,2,-3,2021-08-06 17:32:14.826502
-3,0,52,5,-2,-1,-3,-3,2021-08-06 17:32:14.826502
4,-9,-36,-4,0,2,3,-7,2021-08-06 17:32:14.827503
1,-6,56,-9,0,-5,0,5,2021-08-06 17:32:14.827503
0,11,-14,5,-2,0,2,1,2021-08-06 17:32:14.849504
-3,-4,2,1,0,3,-4,-7,2021-08-06 17:32:14.850503
-3,-4,-28,-18,-5,-3,-2,-4,2021-08-06 17:32:14.850503
1,3,16,11,3,0,0,0,2021-08-06 17:32:14.850503
1,-12,31,6,4,0,2,2,2021-08-06 17:32:14.863503
6,12,42,9,-1,-1,-1,7,2021-08-06 17:32:14.863503
-9,-9,16,0,-3,-4,-3,3,2021-08-06 17:32:14.871504
4,0,68,-1,1,1,3,1,2021-08-06 17:32:14.872504
-3,5,0,6,-1,-7,-3,-5,2021-08-06 17:32:14.886502
2,1,6,11,-3,-1,1,2,2021-08-06 17:32:14.886502
0,3,-5,-10,3,0,1,-2,2021-08-06 17:32:14.887504
-6,9,2,6,2,0,0,-4,2021-08-06 17:32:14.887504
-1,3,8,3,0,-3,-3,-4,2021-08-06 17:32:14.909503
-1,-3,-32,-16,-3,-3,-3,-1,2021-08-06 17:32:14.910505
-1,-1,31,10,3,-2,2,-6,2021-08-06 17:32:14.910505
0,-11,-29,-5,-3,-1,-2,-5,2021-08-06 17:32:14.910505
-1,4,-5,-3,-1,1,-1,0,2021-08-06 17:32:14.923506
-1,-24,14,1,-4,1,-1,-4,2021-08-06 17:32:14.923506
-7,-6,4,-5,0,-4,-1,-6,2021-08-06 17:32:14.931502
0,8,-15,5,3,0,-1,9,2021-08-06 17:32:14.931502
-1,11,19,2,2,0,0,-2,2021-08-06 17:32:14.946505
-12,-19,-34,-12,-4,-3,2,-4,2021-08-06 17:32:14.947505
1,3,41,10,1,0,-1,2,2021-08-06 17:32:14.947505
4,-16,-88,-23,-6,2,-3,-3,2021-08-06 17:32:14.947505
0,-6,17,11,0,-2,-1,3,2021-08-06 17:32:14.969503
0,6,-13,-11,3,2,1,-5,2021-08-06 17:32:14.970504
1,5,25,2,-5,-2,-3,-4,2021-08-06 17:32:14.970504
-2,-8,-42,3,2,-1,0,0,2021-08-06 17:32:14.970504
-5,-5,13,4,0,1,1,17,2021-08-06 17:32:14.983503
0,3,-6,3,2,-3,-3,11,2021-08-06 17:32:14.983503
-1,-1,-9,-7,-3,1,0,1,2021-08-06 17:32:14.991503
1,4,16,14,5,-2,-4,0,2021-08-06 17:32:14.991503
-2,-8,32,-29,-7,-3,-1,1,2021-08-06 17:32:15.006502
2,3,-12,10,0,-1,-2,-6,2021-08-06 17:32:15.007504
7,4,5,26,0,5,-1,2,2021-08-06 17:32:15.007504
-5,-5,51,-23,-2,-3,0,-3,2021-08-06 17:32:15.007504
-1,4,-28,15,6,1,0,-6,2021-08-06 17:32:15.029503
-1,-5,7,-16,-4,-5,-1,-2,2021-08-06 17:32:15.029503
1,3,15,-1,3,-1,-1,-3,2021-08-06 17:32:15.030503
-2,-3,4,2,-5,-1,0,-2,2021-08-06 17:32:15.030503
-4,2,-4,2,-4,-2,-1,-6,2021-08-06 17:32:15.043502
0,-5,-41,-6,-3,-2,-1,-4,2021-08-06 17:32:15.043502
-3,-3,14,4,1,-1,-1,1,2021-08-06 17:32:15.051503
2,-4,16,-10,-5,-3,1,1,2021-08-06 17:32:15.052505
-2,5,5,6,-1,1,-3,-2,2021-08-06 17:32:15.066503
3,6,-5,10,2,-4,1,3,2021-08-06 17:32:15.066503
-4,-6,21,-6,-6,4,-1,-1,2021-08-06 17:32:15.067505
0,-3,-27,-5,-3,-4,0,-4,2021-08-06 17:32:15.067505
5,-4,-7,4,-2,-2,-3,-3,2021-08-06 17:32:15.090502
-1,4,7,-4,10,0,-1,-1,2021-08-06 17:32:15.090502
-4,0,6,-2,-15,-1,4,-3,2021-08-06 17:32:15.090502
1,-2,-3,7,36,27,1,-2,2021-08-06 17:32:15.090502
1,0,1,-22,-20,-8,4,-1,2021-08-06 17:32:15.111503
1,10,-7,4,3,-4,-5,-4,2021-08-06 17:32:15.111503
5,4,2,6,10,-30,-6,2,2021-08-06 17:32:15.119502
-8,0,15,14,10,27,2,0,2021-08-06 17:32:15.119502
8,-2,-4,-15,-8,-12,-2,0,2021-08-06 17:32:15.126504
-1,0,6,-2,-24,-19,0,0,2021-08-06 17:32:15.127502
-10,0,-8,0,16,37,0,-3,2021-08-06 17:32:15.127502
5,-2,-15,-12,-13,-20,-2,1,2021-08-06 17:32:15.127502
0,-4,-26,19,2,-19,-4,3,2021-08-06 17:32:15.150504
-1,-3,-4,-35,-14,-14,-4,-4,2021-08-06 17:32:15.150504
1,-3,-24,25,3,-13,-4,-1,2021-08-06 17:32:15.150504
-2,1,12,-19,-7,3,0,-3,2021-08-06 17:32:15.150504
1,-2,-4,-3,-25,23,1,-4,2021-08-06 17:32:15.163504
0,0,7,7,2,11,-1,1,2021-08-06 17:32:15.163504
-2,-1,-22,-3,22,21,1,-1,2021-08-06 17:32:15.171505
-1,2,0,-3,-25,-3,-3,-3,2021-08-06 17:32:15.171505
1,-1,0,8,19,-14,-2,-3,2021-08-06 17:32:15.186502
0,1,2,11,-12,-3,3,1,2021-08-06 17:32:15.186502
-6,-3,-7,-10,-1,1,2,-3,2021-08-06 17:32:15.187505
3,-1,7,1,-10,-7,-7,2,2021-08-06 17:32:15.187505
-1,-3,1,7,6,-11,-1,0,2021-08-06 17:32:15.209503
-12,0,-5,0,3,32,-4,-6,2021-08-06 17:32:15.210503
0,-3,7,-22,-3,-8,5,0,2021-08-06 17:32:15.210503
0,3,-1,13,3,-19,2,-3,2021-08-06 17:32:15.210503
3,1,4,4,2,26,-4,0,2021-08-06 17:32:15.232504
3,-3,8,0,9,-26,-1,-4,2021-08-06 17:32:15.232504
-12,-2,-13,-4,-4,-6,-2,-5,2021-08-06 17:32:15.233504
2,0,2,7,-6,2,-1,-1,2021-08-06 17:32:15.233504
4,-1,13,-7,24,10,0,1,2021-08-06 17:32:15.246505
4,2,7,2,-13,-4,3,2,2021-08-06 17:32:15.246505
-4,-3,-3,-7,-14,2,-4,-4,2021-08-06 17:32:15.247503
-3,-2,11,-1,-7,-7,0,-1,2021-08-06 17:32:15.247503
3,1,3,-6,2,-13,-1,-1,2021-08-06 17:32:15.270505
2,-6,-34,2,6,13,-2,0,2021-08-06 17:32:15.270505
-3,0,2,6,-10,-14,-2,-3,2021-08-06 17:32:15.270505
-3,1,34,-1,7,20,1,-1,2021-08-06 17:32:15.270505
6,1,-20,2,6,0,1,1,2021-08-06 17:32:15.292503
-1,-2,10,-4,2,-2,5,1,2021-08-06 17:32:15.292503
-3,-2,-1,-1,-1,-12,-6,-2,2021-08-06 17:32:15.293503
1,-2,-9,-2,-10,-4,-3,1,2021-08-06 17:32:15.293503
-5,-5,-4,0,2,2,3,-2,2021-08-06 17:32:15.306503
-2,-3,5,-1,-1,12,-3,-3,2021-08-06 17:32:15.306503
3,3,-10,3,12,-4,3,2,2021-08-06 17:32:15.307505
2,-1,-3,0,20,6,-1,3,2021-08-06 17:32:15.307505
5,5,3,-3,-36,-13,-1,2,2021-08-06 17:32:15.329503
-10,-10,-11,0,23,22,0,6,2021-08-06 17:32:15.330503
3,2,4,-2,-15,-5,0,0,2021-08-06 17:32:15.330503
9,-1,-11,-1,-5,-1,-3,-11,2021-08-06 17:32:15.331504
-9,-2,9,0,8,2,-1,-8,2021-08-06 17:32:15.352502
1,1,2,2,-5,-14,-3,-12,2021-08-06 17:32:15.352502
-8,-2,-5,-4,-4,3,3,2,2021-08-06 17:32:15.354504
4,-2,-4,-3,6,-17,-2,10,2021-08-06 17:32:15.354504
5,-1,-7,-4,-7,11,-2,17,2021-08-06 17:32:15.366520
-6,1,13,6,-7,-3,0,14,2021-08-06 17:32:15.366520
-1,-1,-4,8,9,6,-2,7,2021-08-06 17:32:15.375542
0,5,-10,-1,-6,-4,0,-4,2021-08-06 17:32:15.375542
0,0,9,2,0,3,-7,-16,2021-08-06 17:32:15.389504
-1,0,0,-2,6,-1,3,-7,2021-08-06 17:32:15.390507
-5,4,8,-2,2,-7,0,-16,2021-08-06 17:32:15.396503
-2,-2,3,-4,-3,0,1,-2,2021-08-06 17:32:15.396503
-13,0,-5,1,-2,4,3,-6,2021-08-06 17:32:15.412505
6,6,8,6,4,4,0,-12,2021-08-06 17:32:15.412505
-4,-11,-41,-5,4,-1,1,-20,2021-08-06 17:32:15.414505
7,1,4,-4,-1,3,1,9,2021-08-06 17:32:15.414505
8,-1,0,2,-1,2,-1,7,2021-08-06 17:32:15.426502
-6,-1,-20,-9,-5,-7,0,11,2021-08-06 17:32:15.426502
-4,-1,4,1,-8,-5,-3,8,2021-08-06 17:32:15.435504
0,1,-3,0,-2,-3,-3,-5,2021-08-06 17:32:15.435504
-1,-2,11,4,3,4,0,-18,2021-08-06 17:32:15.449505
-5,-1,7,2,0,-1,1,-27,2021-08-06 17:32:15.450503
-6,2,2,1,-3,2,-3,1,2021-08-06 17:32:15.451504
0,-2,-3,2,4,-2,-4,-15,2021-08-06 17:32:15.451504
12,2,-6,-7,-3,0,0,15,2021-08-06 17:32:15.472504
-2,-5,1,-4,-6,-3,-3,9,2021-08-06 17:32:15.472504
3,-1,4,-3,-3,-2,-1,9,2021-08-06 17:32:15.474504
-6,-2,0,3,-3,-1,4,9,2021-08-06 17:32:15.474504
3,1,1,-4,6,7,1,11,2021-08-06 17:32:15.486505
-10,1,5,-3,-2,-3,-21,-9,2021-08-06 17:32:15.486505
1,0,6,3,3,3,2,6,2021-08-06 17:32:15.495505
-4,-2,-13,-11,-10,-4,-2,1,2021-08-06 17:32:15.495505
-1,0,9,-2,0,0,2,0,2021-08-06 17:32:15.509504
25,-1,-1,9,6,1,0,52,2021-08-06 17:32:15.510504
-11,4,37,9,0,0,12,42,2021-08-06 17:32:15.511505
6,2,7,4,-2,2,-7,-24,2021-08-06 17:32:15.511505
-2,-3,-19,-7,0,-1,1,-7,2021-08-06 17:32:15.532504
-10,-2,-5,4,2,-4,2,-46,2021-08-06 17:32:15.532504
2,-1,-2,-5,-4,-1,-2,-52,2021-08-06 17:32:15.534503
4,-2,4,8,2,-6,2,-16,2021-08-06 17:32:15.534503
2,2,6,7,2,-2,3,-16,2021-08-06 17:32:15.546505
2,0,4,7,0,1,8,-23,2021-08-06 17:32:15.546505
-2,-1,-21,-3,-1,-1,-6,-5,2021-08-06 17:32:15.555504
-7,-5,-8,-11,-4,1,1,8,2021-08-06 17:32:15.555504
-12,-8,2,-5,-4,-1,8,28,2021-08-06 17:32:15.569502
8,5,-6,-3,0,-6,-11,31,2021-08-06 17:32:15.570504
27,-5,-4,-6,0,-2,-9,31,2021-08-06 17:32:15.571504
2,2,8,1,-3,3,0,19,2021-08-06 17:32:15.571504
-3,-7,-35,2,1,0,0,4,2021-08-06 17:32:15.592502
-13,-4,17,-12,-5,-5,5,3,2021-08-06 17:32:15.592502
6,1,25,9,-2,-3,0,5,2021-08-06 17:32:15.594503
-7,1,-2,2,-11,3,-1,-19,2021-08-06 17:32:15.594503
2,3,17,0,10,5,-7,13,2021-08-06 17:32:15.606502
-4,6,12,8,-2,-2,5,6,2021-08-06 17:32:15.606502
-10,-12,-72,-8,5,-1,-5,7,2021-08-06 17:32:15.622503
2,0,20,5,1,3,5,41,2021-08-06 17:32:15.622503
3,-7,8,0,-13,-6,-4,-13,2021-08-06 17:32:15.630502
4,3,7,8,2,-2,0,-32,2021-08-06 17:32:15.630502
-23,5,7,24,-10,-10,5,-49,2021-08-06 17:32:15.631503
-21,2,-51,-71,26,14,6,-45,2021-08-06 17:32:15.631503
26,3,-57,52,1,5,-5,-7,2021-08-06 17:32:15.652502
2,14,23,92,-1,-9,0,3,2021-08-06 17:32:15.652502
2,-8,-39,-100,-31,-16,-5,16,2021-08-06 17:32:15.654503
-26,-32,15,123,-14,5,3,12,2021-08-06 17:32:15.654503
2,42,-29,-60,33,14,0,-3,2021-08-06 17:32:15.666503
30,-9,-34,-85,24,9,5,22,2021-08-06 17:32:15.666503
25,11,56,41,-2,13,-3,4,2021-08-06 17:32:15.675504
2,-6,-40,70,-23,-22,-6,-1,2021-08-06 17:32:15.675504
-6,8,89,22,-12,-7,0,2,2021-08-06 17:32:15.689502
-8,42,51,104,8,-3,1,-2,2021-08-06 17:32:15.690504
-33,-61,-21,-87,16,-1,-1,-9,2021-08-06 17:32:15.691504
13,26,-64,-46,-15,-2,-3,3,2021-08-06 17:32:15.691504
-17,-48,0,-39,-24,-17,-10,-8,2021-08-06 17:32:15.712503
-11,-2,2,-59,-3,5,5,1,2021-08-06 17:32:15.712503
-3,-16,85,51,-2,2,-7,-6,2021-08-06 17:32:15.714502
9,18,57,-33,5,1,3,11,2021-08-06 17:32:15.714502
1,0,-41,-2,8,-1,4,5,2021-08-06 17:32:15.726502
-2,-7,-41,-4,-2,3,-1,1,2021-08-06 17:32:15.726502
4,14,21,17,-5,3,-3,-13,2021-08-06 17:32:15.735503
11,-5,51,-47,10,2,-2,-10,2021-08-06 17:32:15.735503
6,4,60,0,-3,4,-5,-3,2021-08-06 17:32:15.749503
4,-25,-55,2,-26,-4,-9,-13,2021-08-06 17:32:15.750504
-9,18,-8,-10,32,8,11,1,2021-08-06 17:32:15.751503
1,8,74,12,4,-7,1,4,2021-08-06 17:32:15.751503
-18,5,7,8,-6,-4,2,8,2021-08-06 17:32:15.772504
-3,0,19,-8,3,-3,1,8,2021-08-06 17:32:15.772504
1,5,-66,2,-2,2,4,-9,2021-08-06 17:32:15.774505
-5,-3,9,5,-2,-11,-8,-15,2021-08-06 17:32:15.774505
-11,3,-32,4,5,3,-17,4,2021-08-06 17:32:15.786503
-1,3,0,-26,-5,-4,14,-3,2021-08-06 17:32:15.786503
0,2,3,9,3,2,-2,-2,2021-08-06 17:32:15.795504
13,-13,-37,4,2,3,0,17,2021-08-06 17:32:15.795504
8,0,23,-4,-6,-2,6,-6,2021-08-06 17:32:15.809502
5,-23,-5,-22,-5,2,-8,3,2021-08-06 17:32:15.810504
7,9,-7,2,-12,-1,-9,-5,2021-08-06 17:32:15.811503
0,-6,-21,-9,1,2,2,9,2021-08-06 17:32:15.811503
-10,1,-11,-15,-1,0,5,-11,2021-08-06 17:32:15.832504
0,-25,-50,-58,-9,2,-1,-8,2021-08-06 17:32:15.832504
-8,20,48,6,10,0,7,14,2021-08-06 17:32:15.833504
-4,-17,-56,-5,3,-3,-4,-7,2021-08-06 17:32:15.834504
-7,0,52,-26,0,-5,-2,-12,2021-08-06 17:32:15.846503
-12,5,11,7,-6,-6,-2,1,2021-08-06 17:32:15.846503
-2,21,13,1,1,7,1,-2,2021-08-06 17:32:15.855503
3,7,-8,30,5,0,1,0,2021-08-06 17:32:15.855503
8,3,-60,-27,-7,-7,2,-5,2021-08-06 17:32:15.869502
-8,-12,50,6,3,2,1,1,2021-08-06 17:32:15.869502
9,0,-44,-7,3,-7,1,4,2021-08-06 17:32:15.876502
-10,14,15,-1,-3,-1,-6,-9,2021-08-06 17:32:15.876502
13,-4,-53,-8,0,2,-5,7,2021-08-06 17:32:15.892502
5,4,37,10,-15,-1,-9,3,2021-08-06 17:32:15.892502
6,12,-22,11,4,-1,-3,-1,2021-08-06 17:32:15.898502
3,-8,34,-20,3,0,1,0,2021-08-06 17:32:15.898502
0,-1,-31,11,-2,0,1,-3,2021-08-06 17:32:15.906502
-13,2,5,-14,7,-1,1,-5,2021-08-06 17:32:15.906502
6,-15,-76,15,-10,-3,-2,1,2021-08-06 17:32:15.915504
-1,8,28,-15,-5,-4,1,1,2021-08-06 17:32:15.915504
-13,-6,17,1,0,0,7,-6,2021-08-06 17:32:15.929504
-10,12,49,25,11,1,8,-5,2021-08-06 17:32:15.930507
-1,-23,-18,-29,10,3,5,6,2021-08-06 17:32:15.937503
-7,15,59,-1,-3,-5,0,2,2021-08-06 17:32:15.937503
10,-3,-37,-8,-5,1,-6,1,2021-08-06 17:32:15.952502
-4,8,22,14,1,-6,-2,3,2021-08-06 17:32:15.953504
-3,-13,-32,10,-6,6,-2,-3,2021-08-06 17:32:15.954503
6,4,11,-34,-2,-5,-3,4,2021-08-06 17:32:15.954503
2,5,104,42,3,-2,2,-4,2021-08-06 17:32:15.966504
7,1,-34,-23,-1,3,-2,1,2021-08-06 17:32:15.966504
-2,14,32,-2,-11,-7,-4,1,2021-08-06 17:32:15.975504
2,-17,-12,7,13,7,1,-1,2021-08-06 17:32:15.975504
-1,1,42,17,-11,-3,-1,3,2021-08-06 17:32:15.990505
2,-21,-4,-15,-4,-1,-2,-3,2021-08-06 17:32:15.990505
2,-7,-28,12,1,2,1,-1,2021-08-06 17:32:15.991503
0,-9,-86,0,-4,2,-4,1,2021-08-06 17:32:15.991503
2,-7,52,-32,-4,-4,0,-2,2021-08-06 17:32:16.012504
7,-4,-4,4,4,2,2,1,2021-08-06 17:32:16.012504
-1,4,-41,-7,0,2,0,3,2021-08-06 17:32:16.014502
-1,19,-7,-15,-5,-8,-1,-5,2021-08-06 17:32:16.014502
-8,-32,28,34,-4,-2,-5,-5,2021-08-06 17:32:16.035504
4,3,-12,0,8,0,-1,1,2021-08-06 17:32:16.035504
-10,-14,28,-5,-9,-4,-1,-4,2021-08-06 17:32:16.036504
-2,18,33,-44,17,11,6,0,2021-08-06 17:32:16.036504
4,2,38,40,-7,-4,-5,-1,2021-08-06 17:32:16.049504
-12,4,55,29,19,4,1,-3,2021-08-06 17:32:16.050506
0,3,-38,0,-9,-6,0,1,2021-08-06 17:32:16.051503
8,0,-9,23,3,-1,-1,-3,2021-08-06 17:32:16.051503
-6,-6,-2,-15,-1,-4,1,9,2021-08-06 17:32:16.072504
-7,-10,-83,-19,-2,5,-5,0,2021-08-06 17:32:16.072504
2,21,108,40,8,5,4,0,2021-08-06 17:32:16.074504
2,-32,-23,12,0,0,0,2,2021-08-06 17:32:16.074504
3,15,-18,22,8,3,4,-5,2021-08-06 17:32:16.086502
1,21,-8,-8,-5,-2,-1,-1,2021-08-06 17:32:16.086502
0,-33,-11,-26,-9,-6,-2,3,2021-08-06 17:32:16.094503
-11,11,-27,14,4,-7,-1,-2,2021-08-06 17:32:16.095503
0,-1,38,-16,-11,6,-2,-5,2021-08-06 17:32:16.109505
-2,-20,-29,-37,-1,1,4,3,2021-08-06 17:32:16.109505
10,1,-42,16,9,-3,-3,-4,2021-08-06 17:32:16.115502
5,-7,44,21,-14,-3,-2,0,2021-08-06 17:32:16.116503
-4,5,-107,-28,4,-1,2,-5,2021-08-06 17:32:16.132504
-9,-5,52,7,-12,-5,-3,-1,2021-08-06 17:32:16.132504
2,28,0,1,-4,-6,0,0,2021-08-06 17:32:16.133505
-7,-24,-32,-5,-3,-1,-2,-4,2021-08-06 17:32:16.134503
19,-7,-90,-61,9,3,4,8,2021-08-06 17:32:16.155502
6,20,11,50,-10,-4,-3,-6,2021-08-06 17:32:16.155502
-12,4,29,-7,2,-2,-2,-4,2021-08-06 17:32:16.156502
-7,3,105,9,-8,1,0,-7,2021-08-06 17:32:16.156502
-6,-4,-12,14,0,-8,3,-1,2021-08-06 17:32:16.169502
9,6,-23,-5,9,3,-2,-1,2021-08-06 17:32:16.169502
-2,-4,16,5,-5,1,1,-1,2021-08-06 17:32:16.177502
13,20,-7,-19,12,4,1,2,2021-08-06 17:32:16.177502
-6,-37,-31,21,-5,1,-3,0,2021-08-06 17:32:16.192502
-9,15,44,-33,-5,-9,-3,0,2021-08-06 17:32:16.192502
-3,-2,-7,11,-9,-6,-4,-3,2021-08-06 17:32:16.193503
-1,-11,71,-3,0,4,1,1,2021-08-06 17:32:16.194502
5,22,-28,12,9,2,1,1,2021-08-06 17:32:16.215503
4,-17,-52,1,-4,1,1,0,2021-08-06 17:32:16.215503
1,-50,-56,-66,-11,-2,-6,-1,2021-08-06 17:32:16.216504
-2,0,-63,45,-17,-10,-3,0,2021-08-06 17:32:16.216504
1,35,-3,2,4,0,2,0,2021-08-06 17:32:16.238502
0,-25,22,-15,-8,-9,-2,-3,2021-08-06 17:32:16.238502
-8,2,35,19,17,14,1,-2,2021-08-06 17:32:16.239503
18,-10,-39,-9,10,-2,-3,3,2021-08-06 17:32:16.239503
-22,16,76,-12,-7,-5,-1,-5,2021-08-06 17:32:16.252502
9,-2,-52,7,-4,-2,-1,3,2021-08-06 17:32:16.252502
-5,5,41,-21,-9,-9,-4,-4,2021-08-06 17:32:16.254504
-9,-2,-4,35,-6,1,-1,6,2021-08-06 17:32:16.254504
8,11,19,-33,0,0,-3,-4,2021-08-06 17:32:16.274504
-1,-17,6,3,3,2,4,-4,2021-08-06 17:32:16.275503
15,6,-5,-33,-3,2,-1,6,2021-08-06 17:32:16.276503
1,5,-25,1,-15,-8,-2,-8,2021-08-06 17:32:16.276503
-8,-25,68,19,12,19,1,-2,2021-08-06 17:32:16.289503
-7,10,-15,38,-9,-5,-2,-2,2021-08-06 17:32:16.289503
2,0,-7,-25,4,-1,2,1,2021-08-06 17:32:16.296503
-1,-10,-91,-44,-12,-6,-4,2,2021-08-06 17:32:16.296503
4,-8,19,22,-1,0,1,1,2021-08-06 17:32:16.312504
-5,3,16,-12,0,-7,-3,1,2021-08-06 17:32:16.312504
2,11,-32,26,5,10,2,-1,2021-08-06 17:32:16.314503
-16,6,7,-13,-3,-5,-6,-4,2021-08-06 17:32:16.314503
7,-8,-21,-3,-8,-2,-4,3,2021-08-06 17:32:16.334502
2,-3,-30,9,11,5,2,1,2021-08-06 17:32:16.335503
4,-3,40,-33,-9,-11,-1,2,2021-08-06 17:32:16.336503
-1,-4,24,35,13,12,4,-2,2021-08-06 17:32:16.336503
-2,-2,-66,-29,-7,-5,-3,-1,2021-08-06 17:32:16.349504
0,-22,-42,23,0,2,-1,9,2021-08-06 17:32:16.349504
1,21,55,3,-6,-5,-4,-15,2021-08-06 17:32:16.356503
4,0,9,-6,0,11,3,5,2021-08-06 17:32:16.356503
2,6,-13,30,0,-7,-2,-19,2021-08-06 17:32:16.372504
-2,9,22,-53,-1,2,-2,6,2021-08-06 17:32:16.372504
7,-10,-55,30,6,4,4,5,2021-08-06 17:32:16.374504
-1,5,-5,-15,-4,-2,-2,0,2021-08-06 17:32:16.374504
-2,7,13,8,-1,-4,-1,1,2021-08-06 17:32:16.394502
-7,12,33,-14,-4,0,-1,-6,2021-08-06 17:32:16.395504
-6,-4,-19,-1,-10,-8,-5,-2,2021-08-06 17:32:16.396504
-5,1,43,-3,-7,5,0,1,2021-08-06 17:32:16.396504
4,-4,-86,-14,21,3,2,8,2021-08-06 17:32:16.408504
3,6,-11,-9,-4,2,0,-4,2021-08-06 17:32:16.408504
-5,-3,-11,11,2,-3,2,4,2021-08-06 17:32:16.417502
0,0,15,14,1,-2,2,2,2021-08-06 17:32:16.417502
-6,-11,22,2,-5,-5,-2,16,2021-08-06 17:32:16.432505
4,3,-18,-26,-6,-4,-4,29,2021-08-06 17:32:16.432505
-6,-7,43,-15,2,-6,-3,29,2021-08-06 17:32:16.433503
6,-12,-20,6,5,4,1,2,2021-08-06 17:32:16.434503
-2,18,48,-9,-6,-3,-2,-18,2021-08-06 17:32:16.454502
3,-3,1,14,5,0,1,-35,2021-08-06 17:32:16.455504
3,-9,-56,3,-5,3,-4,-29,2021-08-06 17:32:16.456502
-13,-4,12,19,2,-14,-5,-28,2021-08-06 17:32:16.456502
1,7,-25,-60,-10,16,2,-9,2021-08-06 17:32:16.468502
8,-3,11,4,9,-8,0,3,2021-08-06 17:32:16.469504
-4,11,37,22,-3,-1,1,7,2021-08-06 17:32:16.477504
6,-3,-73,-12,2,-3,0,15,2021-08-06 17:32:16.477504
-7,-10,21,-6,-5,-16,-2,11,2021-08-06 17:32:16.492502
-1,12,-35,-1,-7,24,0,6,2021-08-06 17:32:16.492502
3,9,24,42,3,-7,-2,-11,2021-08-06 17:32:16.494503
-4,-4,69,-10,4,-3,1,-12,2021-08-06 17:32:16.494503
2,4,25,7,-3,-4,-1,-5,2021-08-06 17:32:16.515502
-9,-9,-5,-6,-1,0,-3,-7,2021-08-06 17:32:16.515502
0,10,4,-3,4,4,-1,4,2021-08-06 17:32:16.516503
3,-21,-17,-4,-5,-2,-1,1,2021-08-06 17:32:16.516503
-14,-3,44,7,-2,-1,-1,4,2021-08-06 17:32:16.528504
-1,26,61,12,8,-2,0,9,2021-08-06 17:32:16.528504
-11,-28,-25,18,-1,0,-1,1,2021-08-06 17:32:16.537505
4,25,15,-30,4,2,0,12,2021-08-06 17:32:16.537505
0,-15,9,20,1,-4,-4,8,2021-08-06 17:32:16.552503
-3,-19,-35,-1,-8,12,0,-1,2021-08-06 17:32:16.552503
6,5,57,-7,-4,-13,-2,5,2021-08-06 17:32:16.554503
-17,3,19,-3,-1,15,0,-4,2021-08-06 17:32:16.554503
2,-8,42,62,17,-3,3,-6,2021-08-06 17:32:16.575504
1,0,-42,-54,-7,-3,0,-5,2021-08-06 17:32:16.575504
-2,3,12,-8,-7,3,0,-17,2021-08-06 17:32:16.576503
-6,3,7,4,-7,-6,2,5,2021-08-06 17:32:16.576503
1,-4,-78,-4,12,2,-3,2,2021-08-06 17:32:16.588503
0,-5,49,24,-14,-3,-1,-6,2021-08-06 17:32:16.588503
-3,5,35,8,12,6,-2,-5,2021-08-06 17:32:16.597503
7,1,-84,-33,-12,-6,2,-2,2021-08-06 17:32:16.597503
-3,-19,95,14,-13,-2,-2,11,2021-08-06 17:32:16.612502
3,20,3,-44,4,-5,1,13,2021-08-06 17:32:16.612502
3,20,14,37,-2,4,-1,2,2021-08-06 17:32:16.613503
8,-10,-50,-19,-8,-9,-4,-5,2021-08-06 17:32:16.614503
-2,14,-17,-14,0,1,3,5,2021-08-06 17:32:16.634503
1,-12,9,19,7,2,3,6,2021-08-06 17:32:16.635504
5,4,-12,-49,-10,-2,-4,-2,2021-08-06 17:32:16.636504
-7,1,11,37,1,0,-2,10,2021-08-06 17:32:16.636504
7,0,-61,-22,2,9,5,4,2021-08-06 17:32:16.648503
0,-1,29,16,-7,-14,-3,-21,2021-08-06 17:32:16.648503
-1,-5,-102,-32,14,10,5,-16,2021-08-06 17:32:16.657503
5,6,32,-15,0,-3,-4,-5,2021-08-06 17:32:16.657503
-12,0,28,31,-2,-5,-2,-10,2021-08-06 17:32:16.672504
-4,3,71,6,-9,-12,-3,4,2021-08-06 17:32:16.672504
6,-7,17,39,-2,7,0,24,2021-08-06 17:32:16.674504
1,9,38,8,18,3,4,19,2021-08-06 17:32:16.674504
6,1,-35,-35,-6,2,-3,17,2021-08-06 17:32:16.694502
-1,-12,-12,35,-3,-15,-6,-14,2021-08-06 17:32:16.695505
7,9,-12,-32,-7,12,3,-12,2021-08-06 17:32:16.696504
0,-1,25,9,2,-2,-1,-2,2021-08-06 17:32:16.696504
-1,-4,7,-10,1,2,0,29,2021-08-06 17:32:16.708505
6,-5,-76,4,-12,-4,-3,28,2021-08-06 17:32:16.709505
-7,-2,14,2,-12,-8,0,22,2021-08-06 17:32:16.717503
-6,2,-1,30,6,1,-1,-34,2021-08-06 17:32:16.717503
9,8,-24,-103,-10,3,3,-81,2021-08-06 17:32:16.732504
0,3,-31,40,27,5,-2,-59,2021-08-06 17:32:16.732504
-7,-24,-51,4,-9,-1,-3,-14,2021-08-06 17:32:16.734503
2,1,-8,0,-3,1,-5,-33,2021-08-06 17:32:16.734503
-5,-10,-75,8,-18,-8,-5,-35,2021-08-06 17:32:16.755504
-7,1,-11,-14,10,-1,7,-17,2021-08-06 17:32:16.755504
-3,1,5,31,27,26,3,6,2021-08-06 17:32:16.756503
14,0,-9,26,-2,-14,3,20,2021-08-06 17:32:16.756503
8,5,-60,-38,-12,-2,-3,19,2021-08-06 17:32:16.768503
-6,6,31,-3,-2,11,2,45,2021-08-06 17:32:16.768503
-4,-14,-65,-5,-3,-11,-2,39,2021-08-06 17:32:16.777503
-11,3,48,34,-5,1,1,58,2021-08-06 17:32:16.777503
5,6,63,-19,15,7,6,51,2021-08-06 17:32:16.792502
4,-10,7,15,16,-1,0,21,2021-08-06 17:32:16.792502
-4,6,83,-20,-2,-6,-3,0,2021-08-06 17:32:16.794505
-14,-1,-13,-40,-1,6,-2,-51,2021-08-06 17:32:16.794505
-10,-12,6,52,-4,-11,-1,-34,2021-08-06 17:32:16.814502
-4,-6,51,-66,-19,1,-1,-31,2021-08-06 17:32:16.815503
5,15,-27,22,10,-6,-2,-49,2021-08-06 17:32:16.816504
-7,-20,10,-11,-1,-9,-6,-68,2021-08-06 17:32:16.816504
2,-5,-78,7,-11,-11,-2,-21,2021-08-06 17:32:16.828507
4,5,-24,-19,-2,19,2,-5,2021-08-06 17:32:16.828507
-7,-19,60,42,-2,-10,-1,11,2021-08-06 17:32:16.837504
5,-4,12,-13,-2,-5,-1,20,2021-08-06 17:32:16.837504
-3,11,38,-26,5,1,0,2,2021-08-06 17:32:16.859502
1,-6,-23,32,-7,-3,-5,0,2021-08-06 17:32:16.860504
5,8,14,-19,-4,-1,-1,-15,2021-08-06 17:32:16.861504
-5,11,13,-11,4,7,6,26,2021-08-06 17:32:16.861504
-4,-12,-28,41,6,6,-1,8,2021-08-06 17:32:16.875503
4,3,40,-25,-11,-5,0,28,2021-08-06 17:32:16.875503
-3,5,40,15,9,-6,4,4,2021-08-06 17:32:16.876503
0,0,-23,-36,-7,2,-1,27,2021-08-06 17:32:16.876503
0,2,39,31,1,3,1,3,2021-08-06 17:32:16.888503
0,-2,-11,13,-11,-8,-4,19,2021-08-06 17:32:16.888503
-5,4,-13,-2,1,-2,5,-23,2021-08-06 17:32:16.897503
8,1,-21,7,10,9,-4,-7,2021-08-06 17:32:16.897503
3,8,-12,50,7,-7,-6,-9,2021-08-06 17:32:16.912504
-7,-16,38,7,-3,-5,-7,-9,2021-08-06 17:32:16.912504
-13,-13,28,-23,-9,-3,-4,-4,2021-08-06 17:32:16.913504
-4,14,-19,22,5,-7,3,-12,2021-08-06 17:32:16.914503
1,6,17,-20,-7,5,-2,0,2021-08-06 17:32:16.934504
1,1,-13,3,3,3,4,-8,2021-08-06 17:32:16.935504
4,-10,-23,12,7,3,-2,-3,2021-08-06 17:32:16.936504
4,10,43,-40,-8,0,-2,-15,2021-08-06 17:32:16.936504
-4,-4,25,34,1,-7,-2,-6,2021-08-06 17:32:16.948502
-3,-10,-38,-27,-1,-2,6,-10,2021-08-06 17:32:16.948502
7,12,24,-21,-4,-4,-4,-1,2021-08-06 17:32:16.957503
0,-7,-51,-10,-1,6,6,7,2021-08-06 17:32:16.957503
-4,-3,10,0,3,-5,1,19,2021-08-06 17:32:16.972503
5,11,-32,6,-3,-3,-2,26,2021-08-06 17:32:16.972503
-2,-10,-34,-1,1,10,0,32,2021-08-06 17:32:16.974504
-2,-9,-78,0,-12,-10,-3,21,2021-08-06 17:32:16.974504
3,-7,18,-4,-7,-4,-1,8,2021-08-06 17:32:16.994503
-5,11,21,29,7,3,2,-8,2021-08-06 17:32:16.995505
