EMG 1,EMG 2,EMG 3,EMG 4,EMG 5,EMG 6,EMG 7,EMG 8,Timestamp,Milliseconds
-11,5,42,5,2,0,0,6,2021-08-06 17:33:55,024445
-1,-4,-45,-1,1,3,5,-1,2021-08-06 17:33:55,024445
-9,-1,7,-4,-5,-1,-7,2,2021-08-06 17:33:55,024445
11,1,-2,5,5,-1,5,2,2021-08-06 17:33:55,024445
5,-5,35,-5,-3,0,-4,-9,2021-08-06 17:33:55,024445
2,6,-25,17,2,1,1,-6,2021-08-06 17:33:55,024445
-1,-9,0,-36,-6,-17,-5,-1,2021-08-06 17:33:55,039443
-7,5,6,2,-6,17,3,2,2021-08-06 17:33:55,039443
2,5,-10,9,-7,-7,2,-2,2021-08-06 17:33:55,039443
-6,-2,10,-2,19,-4,-5,8,2021-08-06 17:33:55,039443
1,4,-73,3,-1,4,3,-4,2021-08-06 17:33:55,055443
1,-6,63,5,-7,0,-4,-6,2021-08-06 17:33:55,055443
5,-2,-40,-21,-7,-5,7,36,2021-08-06 17:33:55,055443
-26,1,35,4,-13,-3,-17,-67,2021-08-06 17:33:55,055443
6,3,22,-3,2,2,-12,21,2021-08-06 17:33:55,087443
-14,-3,-13,-1,8,-3,8,-16,2021-08-06 17:33:55,103444
5,3,21,13,-3,2,1,-3,2021-08-06 17:33:55,119445
-4,-6,5,-17,-5,-4,-3,10,2021-08-06 17:33:55,135444
-1,0,16,13,6,5,2,3,2021-08-06 17:33:55,167443
-6,4,-41,-8,-5,-7,8,-2,2021-08-06 17:33:55,182443
-1,-5,7,-3,-2,-2,-15,-14,2021-08-06 17:33:55,182443
4,-1,27,4,5,-6,9,35,2021-08-06 17:33:55,182443
-6,2,-4,13,0,18,-17,-34,2021-08-06 17:33:55,188444
28,6,7,-5,3,-3,2,24,2021-08-06 17:33:55,188444
-27,1,-2,2,1,-5,6,0,2021-08-06 17:33:55,188444
8,-1,3,15,-18,2,-6,18,2021-08-06 17:33:55,188444
0,-2,48,-20,23,2,19,-1,2021-08-06 17:33:55,197443
-5,-16,-24,9,-12,-4,-9,-6,2021-08-06 17:33:55,197443
-3,2,40,14,-1,-2,-2,2,2021-08-06 17:33:55,213443
-2,0,-20,-6,0,1,0,0,2021-08-06 17:33:55,229444
1,-1,24,2,2,-2,0,1,2021-08-06 17:33:55,229444
2,-15,-37,-16,2,1,1,-9,2021-08-06 17:33:55,245444
-7,13,41,3,0,-1,9,8,2021-08-06 17:33:55,245444
-3,-7,14,8,-4,-2,4,-9,2021-08-06 17:33:55,245444
-2,5,40,8,1,1,-14,28,2021-08-06 17:33:55,245444
6,-9,77,-7,-4,-4,1,-52,2021-08-06 17:33:55,245444
-17,-6,14,-9,-3,-5,-20,6,2021-08-06 17:33:55,245444
-1,6,-89,0,-5,5,7,0,2021-08-06 17:33:55,245444
0,-8,-26,-19,-12,-9,-13,10,2021-08-06 17:33:55,245444
-3,3,58,5,28,9,2,10,2021-08-06 17:33:55,245444
-4,4,-10,-1,-6,-3,22,-7,2021-08-06 17:33:55,246445
4,14,56,23,5,3,-29,-3,2021-08-06 17:33:55,261444
-6,-13,-71,-24,-9,-2,8,-4,2021-08-06 17:33:55,261444
-13,-7,-55,-5,-15,-10,1,12,2021-08-06 17:33:55,276443
4,-5,-42,-4,0,-3,9,-13,2021-08-06 17:33:55,276443
-10,1,115,-1,3,-4,7,6,2021-08-06 17:33:55,276443
6,8,32,0,2,4,8,2,2021-08-06 17:33:55,276443
18,1,-67,3,-7,0,-15,7,2021-08-06 17:33:55,291443
-8,6,49,9,13,7,12,3,2021-08-06 17:33:55,291443
3,-22,-78,-11,-7,-2,3,15,2021-08-06 17:33:55,291443
-7,9,-17,6,4,-3,-18,-9,2021-08-06 17:33:55,291443
18,19,54,18,-2,-3,10,13,2021-08-06 17:33:55,291443
-2,-19,2,-36,-14,-5,-12,-26,2021-08-06 17:33:55,291443
-6,-3,35,3,-1,-2,-29,22,2021-08-06 17:33:55,291443
13,-8,-34,-7,4,6,2,-9,2021-08-06 17:33:55,291443
-14,9,69,19,2,3,7,2,2021-08-06 17:33:55,291443
7,1,-61,6,-6,-8,11,-3,2021-08-06 17:33:55,292445
-1,-4,46,1,0,0,17,-19,2021-08-06 17:33:55,292445
2,0,-9,-1,4,-2,0,-6,2021-08-06 17:33:55,307444
2,-3,11,-15,-5,0,-6,1,2021-08-06 17:33:55,323445
5,5,16,27,11,8,-11,-11,2021-08-06 17:33:55,369445
2,-4,-53,-43,-11,-7,8,-6,2021-08-06 17:33:55,369445
4,2,35,18,2,3,14,24,2021-08-06 17:33:55,369445
-14,-5,-73,4,-3,-2,-17,-34,2021-08-06 17:33:55,369445
5,-13,-39,-11,-4,-4,23,19,2021-08-06 17:33:55,369445
2,3,-49,-4,-4,-1,-15,-8,2021-08-06 17:33:55,370446
-1,2,72,-1,-3,0,4,11,2021-08-06 17:33:55,370446
1,4,-8,-3,2,0,14,2,2021-08-06 17:33:55,370446
13,3,31,20,5,1,-34,-1,2021-08-06 17:33:55,370446
5,8,-51,27,9,2,-2,-3,2021-08-06 17:33:55,370446
-16,-30,-16,-53,-18,-10,7,-22,2021-08-06 17:33:55,370446
3,18,28,14,5,0,-11,2,2021-08-06 17:33:55,370446
-2,-10,-51,-6,-7,-9,-13,4,2021-08-06 17:33:55,385444
-5,3,8,5,5,18,13,3,2021-08-06 17:33:55,385444
-1,2,-9,17,1,-2,-20,-39,2021-08-06 17:33:55,385827
-9,-6,13,-7,-6,-11,22,18,2021-08-06 17:33:55,416468
-3,3,-31,-4,-5,2,-22,3,2021-08-06 17:33:55,431468
7,0,-5,-6,10,-2,26,-12,2021-08-06 17:33:55,431468
-10,-2,76,3,9,-1,-16,15,2021-08-06 17:33:55,447470
-16,-12,-109,-11,-14,0,9,-22,2021-08-06 17:33:55,447470
9,3,44,4,2,2,2,-7,2021-08-06 17:33:55,463470
0,-3,5,7,-6,-7,-27,1,2021-08-06 17:33:55,463470
4,14,17,1,3,11,18,14,2021-08-06 17:33:55,463470
-7,-23,37,-23,-4,-10,-10,9,2021-08-06 17:33:55,463470
3,5,15,6,5,3,-4,4,2021-08-06 17:33:55,463470
-5,8,36,10,-1,-6,3,18,2021-08-06 17:33:55,463470
1,-2,5,9,0,0,7,-6,2021-08-06 17:33:55,464470
2,9,-30,12,4,5,-18,2,2021-08-06 17:33:55,464470
-5,-10,39,-36,-11,-7,19,6,2021-08-06 17:33:55,464470
-10,-7,-13,-10,-1,-2,-26,-20,2021-08-06 17:33:55,464470
6,1,12,20,2,-3,24,-2,2021-08-06 17:33:55,494469
6,-6,-4,-8,-7,1,8,20,2021-08-06 17:33:55,510470
-26,3,-33,18,10,-8,-3,-9,2021-08-06 17:33:55,510470
9,2,16,-12,-2,15,11,14,2021-08-06 17:33:55,510470
-1,9,1,14,-3,-8,-7,-15,2021-08-06 17:33:55,510470
2,-13,-15,-18,-4,1,-3,-12,2021-08-06 17:33:55,510470
9,2,-6,-4,0,-1,3,11,2021-08-06 17:33:55,510470
-4,-2,34,10,-16,-7,-12,-2,2021-08-06 17:33:55,511470
2,5,-27,5,24,4,-20,-5,2021-08-06 17:33:55,526468
7,20,-14,45,5,5,10,10,2021-08-06 17:33:55,526468
-7,-11,13,-78,-15,-3,-10,-14,2021-08-06 17:33:55,526468
9,-22,101,3,-8,-9,13,-10,2021-08-06 17:33:55,541469
-1,5,36,8,-9,4,-9,20,2021-08-06 17:33:55,541469
10,6,9,11,9,-1,3,-1,2021-08-06 17:33:55,541469
-18,9,13,22,12,8,-5,6,2021-08-06 17:33:55,541469
-3,-2,-28,2,3,-2,13,-3,2021-08-06 17:33:55,542470
-7,-4,-38,-1,-3,-7,-3,4,2021-08-06 17:33:55,542470
-2,-5,-4,-12,-6,0,-9,3,2021-08-06 17:33:55,542470
3,1,-34,14,-4,2,-7,-7,2021-08-06 17:33:55,573469
5,9,29,0,7,1,11,28,2021-08-06 17:33:55,573469
18,-12,-17,1,-2,-4,-4,-39,2021-08-06 17:33:55,573469
-11,6,-3,-5,1,9,-7,21,2021-08-06 17:33:55,588468
-2,-10,94,6,-7,-5,1,-9,2021-08-06 17:33:55,588468
-4,-1,-94,-11,1,-5,9,-3,2021-08-06 17:33:55,588468
6,1,-24,4,-5,-3,-23,9,2021-08-06 17:33:55,603469
3,1,5,14,3,-4,1,-8,2021-08-06 17:33:55,618984
6,4,36,-9,-8,6,11,7,2021-08-06 17:33:55,634982
2,2,-42,-5,30,9,1,0,2021-08-06 17:33:55,634982
-14,-10,25,3,-14,-6,15,-2,2021-08-06 17:33:55,634982
-3,-4,6,4,-5,-3,-9,25,2021-08-06 17:33:55,649982
3,1,2,-20,-8,-5,-5,-13,2021-08-06 17:33:55,664981
2,6,1,9,4,0,-13,-4,2021-08-06 17:33:55,679982
-14,-3,27,-11,-1,2,23,-3,2021-08-06 17:33:55,695982
-3,-1,-10,1,1,-1,-5,4,2021-08-06 17:33:55,710984
5,1,26,21,5,2,7,-3,2021-08-06 17:33:55,710984
-7,-3,-21,-2,-7,-4,6,-6,2021-08-06 17:33:55,710984
17,2,-30,-20,-5,-3,25,11,2021-08-06 17:33:55,710984
-21,-2,42,-3,-1,1,-12,-38,2021-08-06 17:33:55,710984
4,-6,-69,12,6,2,4,2,2021-08-06 17:33:55,711983
-4,-7,3,-5,-10,-3,-20,-3,2021-08-06 17:33:55,711983
-2,11,23,5,0,-13,-7,5,2021-08-06 17:33:55,711983
-5,-8,-14,-13,-6,14,-3,-17,2021-08-06 17:33:55,711983
-4,4,-8,-5,6,-1,6,48,2021-08-06 17:33:55,711983
-10,-9,-29,2,-5,-5,10,-66,2021-08-06 17:33:55,711983
0,6,-15,-2,0,1,-43,6,2021-08-06 17:33:55,711983
8,-4,-88,9,2,1,18,9,2021-08-06 17:33:55,711983
13,3,8,3,-20,-7,-12,-14,2021-08-06 17:33:55,725982
15,11,-5,21,31,4,1,14,2021-08-06 17:33:55,725982
-7,-8,-38,-35,-13,-2,-7,-5,2021-08-06 17:33:55,725982
-1,-5,60,-9,-2,-2,18,-15,2021-08-06 17:33:55,725982
0,-6,-73,9,2,5,-36,-14,2021-08-06 17:33:55,725982
9,6,58,-2,-13,-6,29,11,2021-08-06 17:33:55,725982
3,3,-22,7,5,5,-13,-10,2021-08-06 17:33:55,725982
-8,3,33,-8,7,-3,-17,3,2021-08-06 17:33:55,726983
4,-10,-41,-14,-6,-2,12,27,2021-08-06 17:33:55,726983
-2,8,24,14,-7,-13,-8,10,2021-08-06 17:33:55,726983
-5,-14,-51,-17,2,20,24,0,2021-08-06 17:33:55,756981
2,-3,19,-3,-2,-9,-6,-1,2021-08-06 17:33:55,756981
-4,6,44,27,11,-3,5,5,2021-08-06 17:33:55,788982
-6,-9,-86,-13,-2,0,-4,-2,2021-08-06 17:33:55,803982
3,1,65,-2,-27,-5,-5,-2,2021-08-06 17:33:55,819983
6,9,0,-16,29,-2,14,-1,2021-08-06 17:33:55,835982
6,1,-8,2,-4,3,27,-16,2021-08-06 17:33:55,851983
0,5,21,13,-2,4,-23,4,2021-08-06 17:33:55,851983
-6,2,-3,15,5,2,-18,-10,2021-08-06 17:33:55,867981
0,-7,-17,-14,-7,-2,-3,5,2021-08-06 17:33:55,882985
3,4,16,3,5,-5,0,-18,2021-08-06 17:33:55,882985
-3,-7,-19,-14,-7,2,5,-1,2021-08-06 17:33:55,882985
-4,7,45,10,2,-2,8,11,2021-08-06 17:33:55,882985
13,1,-33,5,-2,-5,-8,2,2021-08-06 17:33:55,882985
-4,-6,-48,8,4,0,4,15,2021-08-06 17:33:55,882985
-2,-7,21,-29,-11,1,-10,5,2021-08-06 17:33:55,882985
20,9,-5,21,14,0,12,-3,2021-08-06 17:33:55,883984
-3,-2,-53,8,-5,-10,10,19,2021-08-06 17:33:55,883984
-6,-4,24,-15,-10,15,-4,-13,2021-08-06 17:33:55,883984
-4,7,-40,13,-11,-9,15,-9,2021-08-06 17:33:55,883984
0,-17,-42,-31,15,-7,-17,30,2021-08-06 17:33:55,883984
0,8,-42,12,2,7,44,-15,2021-08-06 17:33:55,883984
-6,-3,68,5,-4,-4,-26,-10,2021-08-06 17:33:55,883984
8,4,15,-2,-2,2,7,6,2021-08-06 17:33:55,883984
15,3,22,20,-6,0,-7,-36,2021-08-06 17:33:55,884982
-5,-5,-3,-10,-4,-5,-8,-1,2021-08-06 17:33:55,884982
-7,-2,6,-20,8,-3,3,-1,2021-08-06 17:33:55,884982
0,-1,52,9,1,3,3,16,2021-08-06 17:33:55,884982
1,-3,-48,-7,-3,-4,16,1,2021-08-06 17:33:55,884982
-1,2,62,-10,-4,3,-22,5,2021-08-06 17:33:55,884982
6,1,-15,14,1,0,2,-3,2021-08-06 17:33:55,884982
-18,-9,42,2,6,-1,-9,3,2021-08-06 17:33:55,898984
0,-12,-42,-13,-4,-2,1,8,2021-08-06 17:33:55,905983
-2,3,29,-3,-4,-2,0,-10,2021-08-06 17:33:55,905983
-5,1,19,-10,-3,-18,-20,11,2021-08-06 17:33:55,913984
2,3,16,-19,-1,21,-2,-12,2021-08-06 17:33:55,913984
-13,3,-7,19,1,-1,4,6,2021-08-06 17:33:55,944982
4,-2,50,0,-5,-1,8,-7,2021-08-06 17:33:55,944982
11,1,-47,11,18,5,-1,-5,2021-08-06 17:33:55,959981
0,-9,14,-31,-11,-9,-12,-8,2021-08-06 17:33:55,975981
-8,9,-15,6,-4,-4,1,-6,2021-08-06 17:33:55,975981
-7,-23,-42,-2,-5,-4,-11,13,2021-08-06 17:33:55,991981
1,3,-24,3,-6,1,13,15,2021-08-06 17:33:56,006981
4,1,4,1,0,-3,-9,-64,2021-08-06 17:33:56,021983
-6,5,21,3,8,9,3,15,2021-08-06 17:33:56,037981
16,8,29,1,2,-1,-30,0,2021-08-06 17:33:56,053983
-35,-13,-31,-16,-5,-2,-9,-5,2021-08-06 17:33:56,053983
-11,-8,13,0,-4,-6,13,3,2021-08-06 17:33:56,053983
-16,-5,1,-10,-5,-6,4,-10,2021-08-06 17:33:56,053983
22,14,24,16,2,2,-16,10,2021-08-06 17:33:56,053983
-1,-8,-73,-11,-1,2,6,-5,2021-08-06 17:33:56,053983
7,7,7,17,-4,-3,6,24,2021-08-06 17:33:56,053983
1,-6,26,2,-1,-1,-11,-17,2021-08-06 17:33:56,053983
-12,2,10,-3,4,-14,-1,1,2021-08-06 17:33:56,054983
9,5,-23,-7,-7,20,-1,-4,2021-08-06 17:33:56,054983
-4,-8,-27,0,-15,-12,19,3,2021-08-06 17:33:56,054983
4,5,14,-14,28,0,-6,-9,2021-08-06 17:33:56,054983
-2,-6,-13,-1,-10,2,-3,10,2021-08-06 17:33:56,054983
-2,-10,-16,2,2,-10,17,-2,2021-08-06 17:33:56,054983
5,2,-17,9,-7,3,-8,12,2021-08-06 17:33:56,054983
2,-1,24,4,3,-2,-10,-21,2021-08-06 17:33:56,069982
-8,-5,-55,-8,-4,4,13,3,2021-08-06 17:33:56,069982
2,10,78,2,-5,-4,11,5,2021-08-06 17:33:56,084982
-8,-14,-53,-12,9,1,-8,6,2021-08-06 17:33:56,084982
9,-2,-52,-1,-7,0,4,10,2021-08-06 17:33:56,084982
-5,0,-14,-13,1,2,-2,-14,2021-08-06 17:33:56,084982
2,-2,58,14,-2,0,-8,0,2021-08-06 17:33:56,084982
7,13,29,4,6,-1,-14,12,2021-08-06 17:33:56,084982
-4,0,51,2,-4,-2,3,-4,2021-08-06 17:33:56,100982
7,-1,-20,7,0,2,7,-12,2021-08-06 17:33:56,115983
5,8,-45,10,-3,0,-5,2,2021-08-06 17:33:56,115983
-7,-9,11,-13,0,-5,-10,3,2021-08-06 17:33:56,115983
-4,0,13,0,-3,1,15,3,2021-08-06 17:33:56,115983
-6,-1,26,7,-10,-2,0,-8,2021-08-06 17:33:56,115983
-5,7,9,10,5,5,-4,-4,2021-08-06 17:33:56,131981
1,2,-50,-2,21,-1,16,-6,2021-08-06 17:33:56,131981
-6,-14,43,-5,-11,0,-39,-2,2021-08-06 17:33:56,131981
-3,6,21,-1,-6,-2,15,7,2021-08-06 17:33:56,131981
4,2,16,-14,0,0,0,-6,2021-08-06 17:33:56,131981
-3,-2,-33,7,-7,4,-4,-1,2021-08-06 17:33:56,131981
-5,-7,-40,-14,-9,-7,9,5,2021-08-06 17:33:56,163982
0,-1,-16,-2,4,-1,-7,-7,2021-08-06 17:33:56,179985
2,5,12,3,1,1,-1,-1,2021-08-06 17:33:56,179985
-2,-9,-12,2,-2,-4,-1,5,2021-08-06 17:33:56,179985
-1,11,76,18,6,2,8,-17,2021-08-06 17:33:56,195983
-3,-21,-21,-27,-4,0,-7,0,2021-08-06 17:33:56,210982
0,1,-34,-7,1,-2,-4,8,2021-08-06 17:33:56,225981
14,11,39,5,-3,0,-10,-2,2021-08-06 17:33:56,225981
5,2,-22,7,5,4,8,16,2021-08-06 17:33:56,240982
-7,2,90,-3,0,1,-2,-12,2021-08-06 17:33:56,240982
0,-16,-31,-7,-7,-16,-1,0,2021-08-06 17:33:56,240982
2,6,-6,-6,-7,13,-6,5,2021-08-06 17:33:56,240982
-1,-1,26,-6,7,0,3,0,2021-08-06 17:33:56,240982
3,4,18,9,8,-1,-4,-2,2021-08-06 17:33:56,240982
1,0,6,-3,-5,-7,-11,0,2021-08-06 17:33:56,240982
-5,0,39,3,-2,-4,7,-5,2021-08-06 17:33:56,240982
1,5,-39,2,-13,0,20,6,2021-08-06 17:33:56,241985
-2,0,2,3,7,3,-15,-8,2021-08-06 17:33:56,241985
4,1,-3,-9,5,2,1,-4,2021-08-06 17:33:56,241985
-8,-10,-38,1,-2,-1,-4,0,2021-08-06 17:33:56,241985
-8,-2,6,-9,-6,-1,-13,-5,2021-08-06 17:33:56,256981
11,-5,-51,-5,-7,-7,-3,17,2021-08-06 17:33:56,256981
-3,5,5,6,6,4,0,-20,2021-08-06 17:33:56,256981
8,6,58,-7,8,5,2,8,2021-08-06 17:33:56,256981
-3,4,-21,1,1,-13,10,8,2021-08-06 17:33:56,287983
-6,4,44,8,-3,19,-8,-10,2021-08-06 17:33:56,287983
-2,-19,-62,-14,-6,-2,0,7,2021-08-06 17:33:56,287983
-3,-2,-6,6,-2,-13,2,-9,2021-08-06 17:33:56,287983
1,0,2,0,-14,1,1,-3,2021-08-06 17:33:56,287983
2,8,-4,5,24,-4,3,12,2021-08-06 17:33:56,287983
0,-3,6,-18,-9,3,1,-5,2021-08-06 17:33:56,303983
3,5,43,10,1,3,1,1,2021-08-06 17:33:56,319982
-2,-13,-42,-7,-7,-3,-15,0,2021-08-06 17:33:56,334981
13,-1,-39,-18,-8,-4,4,-4,2021-08-06 17:33:56,349984
-3,-8,4,8,7,3,9,-9,2021-08-06 17:33:56,349984
-3,9,56,-2,1,-6,-8,-4,2021-08-06 17:33:56,349984
-3,-12,9,-1,-8,0,13,2,2021-08-06 17:33:56,349984
-5,4,8,8,4,-2,-1,-5,2021-08-06 17:33:56,349984
6,2,15,9,8,0,-1,15,2021-08-06 17:33:56,381981
-7,1,53,-7,-8,0,0,-30,2021-08-06 17:33:56,396981
4,16,17,14,9,-10,-2,-2,2021-08-06 17:33:56,412982
-14,-32,2,-24,-14,21,11,5,2021-08-06 17:33:56,412982
-12,-1,9,-13,-16,-5,-18,12,2021-08-06 17:33:56,412982
5,-11,-43,9,26,-2,-9,-3,2021-08-06 17:33:56,428992
1,8,-13,-6,-6,1,-1,-1,2021-08-06 17:33:56,444983
-4,0,-7,1,-3,-10,4,-8,2021-08-06 17:33:56,460982
4,10,15,16,-1,6,1,5,2021-08-06 17:33:56,460982
-7,-8,-30,-13,-9,-3,-1,2,2021-08-06 17:33:56,460982
3,8,-33,-5,17,4,-3,-2,2021-08-06 17:33:56,460982
3,-13,1,-2,-14,-10,-13,6,2021-08-06 17:33:56,460982
-6,-3,20,-3,0,-1,12,-9,2021-08-06 17:33:56,476982
0,6,12,3,-1,-1,-3,12,2021-08-06 17:33:56,476982
14,-6,-27,-2,-7,0,0,-10,2021-08-06 17:33:56,476982
-21,7,42,8,5,-1,-5,5,2021-08-06 17:33:56,476982
-8,1,-39,-11,3,-2,-4,-11,2021-08-06 17:33:56,476982
8,-3,19,2,-5,-7,-2,2,2021-08-06 17:33:56,492981
-4,1,0,12,-1,21,-3,16,2021-08-06 17:33:56,492981
3,-9,-75,-21,-2,-4,5,13,2021-08-06 17:33:56,492981
-6,-5,34,2,0,-7,-1,-44,2021-08-06 17:33:56,492981
10,8,8,11,-1,6,-7,3,2021-08-06 17:33:56,508983
-5,-5,29,-16,0,-7,6,9,2021-08-06 17:33:56,508983
7,10,37,18,3,-2,1,3,2021-08-06 17:33:56,508983
0,-5,-29,-5,-15,3,-1,4,2021-08-06 17:33:56,524981
-4,3,-22,-14,11,-5,2,1,2021-08-06 17:33:56,554982
-1,-13,2,4,-3,-1,-4,-11,2021-08-06 17:33:56,554982
-4,2,4,5,-1,0,-3,-4,2021-08-06 17:33:56,554982
7,6,24,12,0,-1,3,10,2021-08-06 17:33:56,554982
3,1,-18,0,-5,2,2,7,2021-08-06 17:33:56,554982
-10,-3,13,-5,-2,-2,-3,-30,2021-08-06 17:33:56,554982
3,18,20,23,7,1,6,-1,2021-08-06 17:33:56,554982
12,-18,21,-14,0,-2,-2,6,2021-08-06 17:33:56,554982
-13,-15,-8,-15,-10,-5,-22,3,2021-08-06 17:33:56,555988
-2,15,29,4,5,-10,-5,-3,2021-08-06 17:33:56,555988
19,-20,-44,-8,-9,16,4,6,2021-08-06 17:33:56,555988
5,13,-11,20,14,-1,3,6,2021-08-06 17:33:56,555988
4,-5,14,-21,2,0,3,-1,2021-08-06 17:33:56,555988
-7,-8,-21,-3,-2,-2,7,30,2021-08-06 17:33:56,555988
4,7,34,6,-1,-6,-18,-55,2021-08-06 17:33:56,555988
-5,-5,-9,-7,-6,1,-2,11,2021-08-06 17:33:56,556982
-3,-1,-26,-1,9,5,8,-6,2021-08-06 17:33:56,556982
2,2,27,3,0,-3,-5,17,2021-08-06 17:33:56,556982
-6,4,-19,-4,-8,-4,-1,3,2021-08-06 17:33:56,556982
0,11,65,23,9,6,4,-3,2021-08-06 17:33:56,570983
-1,3,-34,-15,-10,0,2,-6,2021-08-06 17:33:56,586985
-7,-18,13,-24,-8,-5,-6,-14,2021-08-06 17:33:56,602981
-4,4,41,15,7,-3,-14,9,2021-08-06 17:33:56,602981
0,0,29,1,-5,-2,13,-7,2021-08-06 17:33:56,602981
0,5,-6,17,-3,1,0,0,2021-08-06 17:33:56,602981
3,7,15,5,5,3,-6,-3,2021-08-06 17:33:56,602981
-8,-17,-64,-22,1,-10,13,4,2021-08-06 17:33:56,602981
0,3,13,3,5,21,0,8,2021-08-06 17:33:56,603983
6,-5,13,-10,-6,-4,5,-13,2021-08-06 17:33:56,603983
-8,-1,-14,7,2,-2,1,3,2021-08-06 17:33:56,618981
-1,6,46,4,-12,-8,-1,1,2021-08-06 17:33:56,618981
-1,-9,-39,-2,7,-8,0,-1,2021-08-06 17:33:56,618981
1,-1,25,3,-3,3,-5,5,2021-08-06 17:33:56,618981
4,-7,-5,-4,-14,0,-7,-8,2021-08-06 17:33:56,633989
2,11,-9,15,23,5,5,-5,2021-08-06 17:33:56,649983
-6,-8,26,-26,-9,-6,-6,13,2021-08-06 17:33:56,664981
-9,-7,-21,4,-6,3,-1,1,2021-08-06 17:33:56,679981
3,4,-18,16,1,-4,3,-3,2021-08-06 17:33:56,695982
19,7,18,8,-7,0,-3,21,2021-08-06 17:33:56,695982
-12,-12,-18,-30,-5,-5,-3,-46,2021-08-06 17:33:56,695982
-8,1,-56,-5,3,-1,3,5,2021-08-06 17:33:56,695982
11,-12,27,3,0,5,3,-5,2021-08-06 17:33:56,695982
0,11,39,3,3,-2,0,6,2021-08-06 17:33:56,711983
8,-11,-55,3,-4,-2,-6,13,2021-08-06 17:33:56,727982
2,-2,2,4,-3,-4,2,-4,2021-08-06 17:33:56,742982
-4,-1,-33,-3,1,-10,0,-2,2021-08-06 17:33:56,742982
-7,2,40,5,5,16,2,-23,2021-08-06 17:33:56,742982
17,4,49,-2,-3,-13,0,10,2021-08-06 17:33:56,742982
-31,-12,-54,-11,-1,1,-1,-2,2021-08-06 17:33:56,742982
10,4,-3,-2,-4,-3,2,2,2021-08-06 17:33:56,742982
-9,-4,-2,-10,-1,-4,-5,2,2021-08-06 17:33:56,742982
2,14,15,12,2,4,9,2,2021-08-06 17:33:56,742982
17,8,36,16,-5,0,1,3,2021-08-06 17:33:56,742982
-17,-1,10,-8,17,3,-2,-1,2021-08-06 17:33:56,743984
-8,-12,50,-8,-9,-3,2,-1,2021-08-06 17:33:56,743984
0,0,-38,-10,-6,1,-4,7,2021-08-06 17:33:56,743984
2,-3,28,-17,-2,-1,6,4,2021-08-06 17:33:56,743984
-2,11,-7,16,1,4,3,1,2021-08-06 17:33:56,773982
12,-1,-19,0,0,-2,7,8,2021-08-06 17:33:56,788983
-5,10,15,12,9,0,-13,3,2021-08-06 17:33:56,804981
1,-10,24,1,-7,-2,-1,-8,2021-08-06 17:33:56,804981
0,-5,16,-6,1,1,-1,16,2021-08-06 17:33:56,804981
-5,2,-74,-7,-10,-9,-4,-16,2021-08-06 17:33:56,804981
6,-7,-20,-7,-6,4,0,0,2021-08-06 17:33:56,804981
0,4,-13,12,13,6,1,17,2021-08-06 17:33:56,804981
12,8,2,12,-1,-1,2,-2,2021-08-06 17:33:56,804981
-12,-14,-33,-18,-2,-2,-4,-3,2021-08-06 17:33:56,805982
-8,-6,-24,-9,-9,-11,-5,-7,2021-08-06 17:33:56,820982
1,5,12,8,13,4,2,-11,2021-08-06 17:33:56,820982
-1,-8,-36,1,-1,5,5,-5,2021-08-06 17:33:56,836983
2,-3,28,5,-7,-7,-1,-2,2021-08-06 17:33:56,852982
-3,11,37,9,-1,-2,-3,-2,2021-08-06 17:33:56,867981
-2,4,7,15,-2,0,0,0,2021-08-06 17:33:56,882985
-8,-3,38,-35,-4,-2,-3,-8,2021-08-06 17:33:56,898984
0,-11,15,-16,-2,-3,1,7,2021-08-06 17:33:56,898984
-10,1,22,11,3,3,0,9,2021-08-06 17:33:56,898984
7,9,17,16,1,-4,-4,-1,2021-08-06 17:33:56,898984
3,-5,8,7,-3,-12,-1,-7,2021-08-06 17:33:56,914983
0,8,9,12,0,19,2,5,2021-08-06 17:33:56,914983
3,9,-39,-15,7,-3,4,7,2021-08-06 17:33:56,914983
-3,-16,106,-14,-8,-12,-7,-21,2021-08-06 17:33:56,914983
-18,-5,-128,-8,-18,-2,-3,20,2021-08-06 17:33:56,914983
-8,-2,11,7,22,-3,8,-26,2021-08-06 17:33:56,914983
6,11,-25,27,-2,6,-1,-5,2021-08-06 17:33:56,915984
-2,-2,-37,-7,-4,-2,1,10,2021-08-06 17:33:56,915984
7,4,48,-10,-2,3,-2,-8,2021-08-06 17:33:56,915984
-2,1,20,9,-1,-5,-6,2,2021-08-06 17:33:56,915984
-3,-13,14,-3,-1,0,3,6,2021-08-06 17:33:56,915984
-3,4,-28,-6,8,-2,-2,-10,2021-08-06 17:33:56,915984
-3,-13,3,-4,-7,0,-1,-1,2021-08-06 17:33:56,915984
4,15,15,15,2,0,0,8,2021-08-06 17:33:56,916984
-2,-14,8,-26,-10,-9,-4,-12,2021-08-06 17:33:56,916984
-10,-7,0,-6,-5,3,-2,2,2021-08-06 17:33:56,916984
5,9,-34,9,10,-7,0,-9,2021-08-06 17:33:56,929981
-4,1,55,-8,-2,15,-6,4,2021-08-06 17:33:56,959981
1,-12,-55,-5,-3,-11,-1,-5,2021-08-06 17:33:56,975983
-4,-14,-8,0,-5,-3,-2,-2,2021-08-06 17:33:56,975983
3,10,30,18,5,0,-3,4,2021-08-06 17:33:56,975983
2,-20,-59,-31,-12,-9,-3,1,2021-08-06 17:33:56,975983
7,17,7,6,7,4,1,27,2021-08-06 17:33:56,975983
-18,4,-17,-1,-13,-1,0,-17,2021-08-06 17:33:56,975983
4,4,69,15,26,2,-3,5,2021-08-06 17:33:56,976983
3,-10,-98,-14,-11,0,7,-6,2021-08-06 17:33:56,976983
-14,-6,46,-9,-8,-2,-15,7,2021-08-06 17:33:56,991983
13,15,-14,6,7,2,7,15,2021-08-06 17:33:56,992983
1,-8,29,3,-8,3,-2,-18,2021-08-06 17:33:56,992983
3,5,-46,1,1,-3,-1,8,2021-08-06 17:33:56,992983
-5,0,-17,11,3,-3,-1,-15,2021-08-06 17:33:56,992983
0,10,64,-5,-7,-10,-2,-8,2021-08-06 17:33:56,992983
-11,-7,-17,-17,-5,22,-1,-5,2021-08-06 17:33:57,021982
11,13,68,0,1,-10,-3,-5,2021-08-06 17:33:57,021982
-1,-4,30,5,2,-2,7,-1,2021-08-06 17:33:57,021982
1,-6,-53,11,1,-2,-6,-7,2021-08-06 17:33:57,021982
0,9,-37,7,-4,-3,2,8,2021-08-06 17:33:57,036982
5,-6,27,-14,1,-2,-3,-1,2021-08-06 17:33:57,036982
11,18,-28,11,-2,3,-1,-9,2021-08-06 17:33:57,036982
-25,-13,36,-8,0,2,1,5,2021-08-06 17:33:57,036982
-4,-8,-18,-6,3,-3,-2,7,2021-08-06 17:33:57,052982
-7,17,8,15,-17,-1,-1,-34,2021-08-06 17:33:57,052982
-3,-8,3,-10,20,-6,-2,0,2021-08-06 17:33:57,052982
16,0,6,12,-6,4,1,23,2021-08-06 17:33:57,067982
-4,-12,-81,-21,-8,-2,-6,-8,2021-08-06 17:33:57,082985
-1,5,15,5,6,-1,5,15,2021-08-06 17:33:57,098983
-10,4,25,0,-7,0,3,1,2021-08-06 17:33:57,114983
5,-7,-17,6,3,-2,-1,3,2021-08-06 17:33:57,114983
1,-8,-49,-10,0,5,-2,-1,2021-08-06 17:33:57,114983
1,7,96,5,3,-9,-2,3,2021-08-06 17:33:57,114983
-4,-24,-101,-21,-10,3,-3,-5,2021-08-06 17:33:57,114983
4,28,-1,1,7,0,4,-7,2021-08-06 17:33:57,114983
15,-8,19,11,-3,-5,0,0,2021-08-06 17:33:57,115985
0,6,-31,2,5,1,-2,1,2021-08-06 17:33:57,129981
-1,5,-8,6,-9,-5,2,-6,2021-08-06 17:33:57,129981
-10,-31,24,-12,9,3,-4,-10,2021-08-06 17:33:57,129981
7,10,-41,5,-4,-2,2,0,2021-08-06 17:33:57,129981
-7,-5,13,-7,-1,2,0,8,2021-08-06 17:33:57,129981
4,-16,19,-19,-22,-5,-4,-11,2021-08-06 17:33:57,129981
-30,-8,-28,-7,15,-3,-4,0,2021-08-06 17:33:57,129981
28,11,0,0,-5,1,1,2,2021-08-06 17:33:57,160982
-2,-7,-5,15,4,-1,4,2,2021-08-06 17:33:57,176984
1,20,64,21,-5,-10,-7,-4,2021-08-06 17:33:57,176984
12,-18,-73,-21,-6,23,-1,-4,2021-08-06 17:33:57,176984
-14,-3,10,-13,8,-8,4,12,2021-08-06 17:33:57,176984
2,-6,-38,-1,-2,-4,-3,10,2021-08-06 17:33:57,176984
-7,-23,-20,-18,-4,-4,0,-2,2021-08-06 17:33:57,176984
5,17,-6,10,-5,-4,1,14,2021-08-06 17:33:57,176984
-11,2,49,4,0,4,-4,-10,2021-08-06 17:33:57,208984
0,-11,-15,-2,-1,7,-1,-3,2021-08-06 17:33:57,224981
-2,13,-1,16,13,3,1,1,2021-08-06 17:33:57,240982
6,3,-33,-3,-4,-4,0,7,2021-08-06 17:33:57,256981
-5,1,70,-6,-6,-3,-5,-9,2021-08-06 17:33:57,256981
-7,-15,-15,-18,-5,-9,1,-5,2021-08-06 17:33:57,271982
0,2,19,5,-3,4,5,-3,2021-08-06 17:33:57,286983
1,2,-33,6,9,-6,-2,-8,2021-08-06 17:33:57,302981
2,10,43,6,-6,-8,1,-6,2021-08-06 17:33:57,302981
0,-12,-44,1,4,13,-6,-2,2021-08-06 17:33:57,302981
7,4,80,3,3,-3,4,6,2021-08-06 17:33:57,302981
3,-1,-6,-16,-16,-3,1,-5,2021-08-06 17:33:57,318982
-4,-2,-15,8,0,-7,1,-1,2021-08-06 17:33:57,334983
-3,3,-1,-3,3,-1,-13,4,2021-08-06 17:33:57,334983
3,2,-2,8,2,9,1,-3,2021-08-06 17:33:57,334983
18,9,59,-1,0,-3,-3,4,2021-08-06 17:33:57,334983
-12,-5,-20,-3,-1,0,-3,-5,2021-08-06 17:33:57,334983
-4,-13,10,-6,-10,-4,3,-1,2021-08-06 17:33:57,334983
-7,-9,-61,-5,5,3,-1,-1,2021-08-06 17:33:57,335983
-3,1,29,6,3,0,-4,1,2021-08-06 17:33:57,335983
-6,16,22,6,2,1,1,5,2021-08-06 17:33:57,350982
4,0,-50,5,-9,-2,1,15,2021-08-06 17:33:57,365984
-5,-4,-5,3,8,-1,-2,-2,2021-08-06 17:33:57,365984
0,-5,-1,-3,-10,-18,1,-5,2021-08-06 17:33:57,365984
-3,-9,41,-13,8,20,-4,5,2021-08-06 17:33:57,376983
20,9,-30,17,3,-6,3,-7,2021-08-06 17:33:57,376983
-10,-1,88,-22,-2,-3,0,-6,2021-08-06 17:33:57,376983
1,8,-14,2,-9,-1,-3,4,2021-08-06 17:33:57,376983
-1,-12,1,6,-2,-5,0,-8,2021-08-06 17:33:57,376983
4,-1,57,0,3,1,-2,-3,2021-08-06 17:33:57,376983
-11,2,21,5,1,5,0,6,2021-08-06 17:33:57,377983
1,7,45,12,3,6,10,-5,2021-08-06 17:33:57,397982
2,-7,-36,-9,-11,-9,-11,6,2021-08-06 17:33:57,413981
-13,5,49,10,1,-1,-5,-26,2021-08-06 17:33:57,413981
2,-5,-18,-27,-1,1,1,0,2021-08-06 17:33:57,413981
-2,-1,33,-2,-1,1,-3,-9,2021-08-06 17:33:57,413981
17,11,0,9,7,0,6,3,2021-08-06 17:33:57,428982
-8,-3,-18,1,-6,-1,3,9,2021-08-06 17:33:57,444981
4,4,16,13,2,1,-2,-4,2021-08-06 17:33:57,460982
-4,-3,-28,-7,-3,-2,-5,-1,2021-08-06 17:33:57,460982
-5,-3,4,-5,-8,4,-1,-3,2021-08-06 17:33:57,460982
-4,-2,-66,1,-13,1,1,19,2021-08-06 17:33:57,460982
5,5,70,3,27,-5,5,-34,2021-08-06 17:33:57,475981
-21,-20,-54,-30,-16,0,-19,0,2021-08-06 17:33:57,475981
0,4,44,11,-2,-7,4,-2,2021-08-06 17:33:57,475981
-12,-4,-1,-6,-1,-1,-5,5,2021-08-06 17:33:57,475981
8,6,-20,7,-4,4,3,12,2021-08-06 17:33:57,475981
6,-4,6,9,6,-3,4,2,2021-08-06 17:33:57,475981
1,9,56,0,2,4,4,-5,2021-08-06 17:33:57,475981
-7,1,-39,-3,5,-2,-3,-10,2021-08-06 17:33:57,475981
8,-9,-3,-10,-10,0,-1,15,2021-08-06 17:33:57,476982
3,-11,22,6,-1,-4,-6,-28,2021-08-06 17:33:57,476982
-11,-1,-31,-7,-10,-3,7,3,2021-08-06 17:33:57,476982
-2,-11,69,-22,-3,-4,-3,-6,2021-08-06 17:33:57,476982
13,8,-12,10,0,0,-1,16,2021-08-06 17:33:57,490981
0,9,19,16,3,-7,8,14,2021-08-06 17:33:57,506981
-5,-8,5,0,-1,14,1,-6,2021-08-06 17:33:57,538981
-8,3,-36,0,-10,-7,-2,-7,2021-08-06 17:33:57,553983
-7,3,-44,4,22,1,-2,-1,2021-08-06 17:33:57,569983
-10,-2,53,-8,-12,-3,-1,-4,2021-08-06 17:33:57,569983
-1,-6,-13,-13,-2,-5,-3,-4,2021-08-06 17:33:57,569983
18,3,3,7,0,1,0,23,2021-08-06 17:33:57,569983
-33,2,34,-18,-17,-1,-8,-54,2021-08-06 17:33:57,584982
10,-17,-94,-4,9,2,3,-4,2021-08-06 17:33:57,599986
8,-5,-32,-2,6,-5,-10,11,2021-08-06 17:33:57,599986
-4,13,76,10,2,2,1,-3,2021-08-06 17:33:57,615984
2,-5,-46,16,-5,-2,2,9,2021-08-06 17:33:57,615984
-2,-3,24,-24,-2,1,-3,1,2021-08-06 17:33:57,615984
-4,0,12,10,-1,0,-2,-4,2021-08-06 17:33:57,615984
-5,-3,-46,-18,6,-3,3,1,2021-08-06 17:33:57,615984
21,2,45,17,-1,-1,8,-1,2021-08-06 17:33:57,616983
0,12,12,14,-1,3,-4,13,2021-08-06 17:33:57,631983
9,-3,-5,-4,-3,-8,0,-4,2021-08-06 17:33:57,631983
-18,-2,15,-3,3,12,-4,1,2021-08-06 17:33:57,631983
-9,-12,-11,5,-9,-2,-2,7,2021-08-06 17:33:57,646982
8,8,-28,-13,0,-3,1,1,2021-08-06 17:33:57,661983
2,-9,-15,-13,-18,-5,0,-11,2021-08-06 17:33:57,677991
4,-2,21,14,22,-6,-2,-6,2021-08-06 17:33:57,677991
-6,-2,-8,-9,-5,3,-4,11,2021-08-06 17:33:57,677991
0,2,5,4,2,9,3,-28,2021-08-06 17:33:57,677991
-1,3,-56,-2,0,-4,-5,24,2021-08-06 17:33:57,677991
0,1,1,13,-8,-3,0,-2,2021-08-06 17:33:57,677991
8,-9,-57,-18,-4,-3,8,7,2021-08-06 17:33:57,678983
0,6,56,7,2,-3,-4,6,2021-08-06 17:33:57,678983
-9,6,15,2,2,2,3,-9,2021-08-06 17:33:57,678983
7,-10,-36,-3,-1,-1,-4,3,2021-08-06 17:33:57,678983
-14,3,57,-4,0,-2,-6,1,2021-08-06 17:33:57,678983
-1,11,-30,0,3,3,8,6,2021-08-06 17:33:57,678983
2,-14,-77,-22,-5,-15,-3,-12,2021-08-06 17:33:57,678983
-12,7,35,11,-4,19,-4,8,2021-08-06 17:33:57,678983
7,7,-7,16,11,0,1,-9,2021-08-06 17:33:57,678983
-1,-10,-10,-10,-5,-2,9,10,2021-08-06 17:33:57,678983
1,5,48,22,8,1,-10,-4,2021-08-06 17:33:57,678983
-4,-4,-42,-19,-3,-5,6,2,2021-08-06 17:33:57,679982
0,2,-27,-1,-22,-5,-7,-32,2021-08-06 17:33:57,679982
6,6,2,4,27,3,-2,0,2021-08-06 17:33:57,679982
-7,-11,40,-7,-10,-2,3,6,2021-08-06 17:33:57,679982
8,-2,-12,1,-3,-2,3,-5,2021-08-06 17:33:57,679982
-12,-2,-7,-7,-5,2,0,15,2021-08-06 17:33:57,679982
0,-3,26,14,-5,-2,-13,-2,2021-08-06 17:33:57,679982
-1,5,23,13,0,-2,7,-7,2021-08-06 17:33:57,693981
-2,-3,17,-18,-3,-6,-5,-5,2021-08-06 17:33:57,708982
6,-1,9,-3,3,-1,-1,0,2021-08-06 17:33:57,708982
-5,-11,-50,-7,-6,-2,-4,-2,2021-08-06 17:33:57,708982
-2,2,27,11,8,3,0,6,2021-08-06 17:33:57,740982
0,5,17,5,-3,-15,2,-7,2021-08-06 17:33:57,740982
18,-6,-32,10,-2,21,4,0,2021-08-06 17:33:57,740982
-2,4,9,-9,-2,-4,-3,8,2021-08-06 17:33:57,740982
15,-4,4,-1,3,-1,-5,2,2021-08-06 17:33:57,740982
-17,1,-13,-8,1,-4,-2,-20,2021-08-06 17:33:57,740982
-4,-6,73,-1,-3,-9,-9,-45,2021-08-06 17:33:57,740982
-8,-7,22,-6,-9,-2,3,11,2021-08-06 17:33:57,755982
-4,1,-44,4,0,3,1,-7,2021-08-06 17:33:57,761983
7,-3,-19,-17,-6,-2,-4,12,2021-08-06 17:33:57,762982
0,2,15,8,14,0,1,13,2021-08-06 17:33:57,762982
-1,-11,-59,-4,0,4,6,-10,2021-08-06 17:33:57,762982
15,7,49,3,-9,-6,8,3,2021-08-06 17:33:57,802982
4,0,12,-2,8,3,-10,-9,2021-08-06 17:33:57,817983
-10,-3,7,4,-11,-3,-3,33,2021-08-06 17:33:57,817983
-1,7,57,7,2,-5,-2,-8,2021-08-06 17:33:57,817983
8,-9,-54,-11,7,4,-2,0,2021-08-06 17:33:57,817983
2,-3,-13,-12,-8,-1,0,-3,2021-08-06 17:33:57,817983
0,5,22,11,1,-14,-2,10,2021-08-06 17:33:57,817983
-4,0,-11,-2,-3,17,-2,-3,2021-08-06 17:33:57,817983
2,5,5,0,3,-4,0,1,2021-08-06 17:33:57,833982
-17,-1,-33,7,3,1,1,-7,2021-08-06 17:33:57,833982
1,-9,-6,-5,-2,-6,-3,16,2021-08-06 17:33:57,833982
2,-1,-28,-15,-11,-7,3,-18,2021-08-06 17:33:57,833982
-8,8,18,11,6,4,-11,-22,2021-08-06 17:33:57,833982
5,2,42,10,0,-4,-1,15,2021-08-06 17:33:57,833982
-7,-2,-19,11,-10,0,1,4,2021-08-06 17:33:57,833982
-2,-8,-13,-23,19,-3,-5,-5,2021-08-06 17:33:57,833982
-5,2,59,-2,-9,3,2,11,2021-08-06 17:33:57,865985
1,1,4,13,2,0,3,-5,2021-08-06 17:33:57,881982
8,-11,-83,-33,-7,0,-2,-4,2021-08-06 17:33:57,896982
-6,3,4,13,2,0,-2,11,2021-08-06 17:33:57,896982
-12,3,57,3,1,-2,0,-5,2021-08-06 17:33:57,896982
8,-12,-39,-24,-5,-1,-2,-2,2021-08-06 17:33:57,896982
1,1,-90,-12,-5,-4,-1,1,2021-08-06 17:33:57,896982
-2,-1,65,10,-6,7,-4,-2,2021-08-06 17:33:57,896982
6,-6,-50,-8,2,1,2,6,2021-08-06 17:33:57,896982
13,9,43,-7,0,3,3,-3,2021-08-06 17:33:57,896982
-10,4,29,16,14,5,2,-7,2021-08-06 17:33:57,911983
-1,4,-21,-4,-8,-7,0,11,2021-08-06 17:33:57,911983
-10,-5,27,-8,-7,-3,-5,-24,2021-08-06 17:33:57,911983
9,1,-4,9,2,4,0,8,2021-08-06 17:33:57,911983
9,3,-14,-1,-1,0,-1,4,2021-08-06 17:33:57,927981
-3,-9,6,2,-4,-3,0,-4,2021-08-06 17:33:57,927981
-5,-1,-17,-5,1,0,2,9,2021-08-06 17:33:57,943982
-2,-3,-15,7,-3,-6,0,-3,2021-08-06 17:33:57,959981
-6,8,-31,11,4,1,-2,7,2021-08-06 17:33:57,959981
12,-3,55,5,1,-3,5,4,2021-08-06 17:33:57,959981
4,2,-81,0,-4,4,-13,13,2021-08-06 17:33:57,959981
-6,-3,10,2,10,-5,-6,-20,2021-08-06 17:33:57,959981
-14,-3,16,13,-13,0,-1,19,2021-08-06 17:33:57,974983
6,-4,-48,-27,2,-15,-4,-3,2021-08-06 17:33:57,990983
7,2,-12,8,4,16,-3,-12,2021-08-06 17:33:57,990983
-22,1,54,-7,-10,-6,9,18,2021-08-06 17:33:57,990983
2,3,75,8,7,5,2,-12,2021-08-06 17:33:57,990983
5,7,39,19,0,-1,2,3,2021-08-06 17:33:57,990983
-9,-11,-41,-22,3,-7,1,-2,2021-08-06 17:33:57,990983
5,9,-4,12,1,7,0,5,2021-08-06 17:33:57,990983
2,-14,-17,-17,-8,-10,-6,-9,2021-08-06 17:33:57,991983
-6,2,26,10,-3,6,-2,-13,2021-08-06 17:33:57,991983
2,5,-13,-1,-4,-2,-1,26,2021-08-06 17:33:58,036983
7,0,13,3,2,6,3,16,2021-08-06 17:33:58,036983
3,4,50,3,5,-3,-1,-33,2021-08-06 17:33:58,036983
0,-7,-102,-7,-3,2,-4,8,2021-08-06 17:33:58,036983
-12,-1,2,4,0,-2,-12,-9,2021-08-06 17:33:58,051982
9,-3,10,6,-4,-6,0,5,2021-08-06 17:33:58,051982
17,7,-14,-8,-1,4,11,-1,2021-08-06 17:33:58,051982
-32,-11,38,8,-7,0,-14,18,2021-08-06 17:33:58,051982
-10,-10,-19,6,2,-8,0,-20,2021-08-06 17:33:58,066982
-6,4,30,-7,3,11,-4,-5,2021-08-06 17:33:58,066982
21,1,-4,-3,7,5,0,-1,2021-08-06 17:33:58,066982
9,11,6,11,-3,-5,0,-3,2021-08-06 17:33:58,066982
3,8,54,10,-3,-3,7,2,2021-08-06 17:33:58,097981
-2,-19,-39,-3,-6,-8,-4,-10,2021-08-06 17:33:58,112982
-8,-6,-43,-28,-6,-2,-5,6,2021-08-06 17:33:58,123982
0,2,10,-3,-4,2,0,-20,2021-08-06 17:33:58,124983
-1,4,37,-3,8,0,4,10,2021-08-06 17:33:58,124983
1,-6,17,20,4,2,2,-3,2021-08-06 17:33:58,124983
-6,7,3,0,4,4,-1,1,2021-08-06 17:33:58,124983
0,-13,-9,-20,-11,-8,-3,-2,2021-08-06 17:33:58,124983
-1,-2,-28,-2,-4,-1,7,-3,2021-08-06 17:33:58,143983
2,-1,-3,-16,-3,-1,-5,-11,2021-08-06 17:33:58,159982
-7,-5,-4,-27,-2,-3,-3,13,2021-08-06 17:33:58,159982
12,5,-39,16,10,2,1,6,2021-08-06 17:33:58,159982
0,0,25,8,-7,-12,-1,9,2021-08-06 17:33:58,159982
20,-8,-14,-24,-5,16,-4,-21,2021-08-06 17:33:58,159982
-23,4,47,14,5,-6,-3,-8,2021-08-06 17:33:58,175981
10,2,-57,-15,0,3,5,0,2021-08-06 17:33:58,175981
0,-3,50,4,4,-1,0,-1,2021-08-06 17:33:58,175981
-2,2,-44,-2,-9,-8,1,-2,2021-08-06 17:33:58,175981
4,1,31,2,1,-1,-5,8,2021-08-06 17:33:58,175981
-17,-1,-37,13,-4,5,1,-11,2021-08-06 17:33:58,175981
2,-6,-4,-14,-5,0,3,-5,2021-08-06 17:33:58,175981
-5,6,25,3,5,0,-1,0,2021-08-06 17:33:58,175981
7,2,39,10,1,0,1,23,2021-08-06 17:33:58,176982
-2,1,8,-4,1,-3,-2,-51,2021-08-06 17:33:58,176982
18,-3,-24,-23,-9,-3,-1,5,2021-08-06 17:33:58,221982
-3,-2,-4,4,3,-3,-2,2,2021-08-06 17:33:58,221982
-2,1,-28,16,3,3,1,2,2021-08-06 17:33:58,221982
2,-4,-12,4,-4,-3,-2,13,2021-08-06 17:33:58,238005
-7,-2,-45,-30,-5,-2,-2,-6,2021-08-06 17:33:58,238005
-4,3,-30,15,-6,-2,1,-3,2021-08-06 17:33:58,238005
2,-1,6,-10,7,-17,-2,-6,2021-08-06 17:33:58,238005
3,2,113,6,2,22,3,16,2021-08-06 17:33:58,254005
-2,-2,-19,14,4,-3,1,-21,2021-08-06 17:33:58,254005
1,7,30,2,-2,-6,0,17,2021-08-06 17:33:58,254005
-3,-5,-84,0,-10,-4,-3,-8,2021-08-06 17:33:58,285006
4,-10,-47,-19,-6,-9,-2,4,2021-08-06 17:33:58,285006
-13,-2,73,3,9,7,1,8,2021-08-06 17:33:58,285006
0,1,26,-4,-6,-2,-4,-3,2021-08-06 17:33:58,285006
1,3,37,3,-4,4,1,-14,2021-08-06 17:33:58,285006
9,13,4,1,9,0,1,11,2021-08-06 17:33:58,285006
-4,-17,-87,-11,-5,0,-2,9,2021-08-06 17:33:58,285006
5,-10,-48,-8,-4,-5,1,-15,2021-08-06 17:33:58,286005
-17,-2,7,1,-4,2,-5,-11,2021-08-06 17:33:58,286005
-3,8,105,4,4,1,3,9,2021-08-06 17:33:58,286005
15,4,-64,12,-7,-2,-4,3,2021-08-06 17:33:58,301005
-5,4,62,-5,9,1,1,0,2021-08-06 17:33:58,317003
4,-3,43,9,-5,2,1,1,2021-08-06 17:33:58,317003
0,2,-40,4,4,-6,1,2,2021-08-06 17:33:58,317003
-3,2,16,0,2,-7,-2,-3,2021-08-06 17:33:58,317003
-3,-3,-31,-1,-5,13,-6,4,2021-08-06 17:33:58,317003
3,-7,16,8,2,-6,-1,23,2021-08-06 17:33:58,317003
-6,2,-7,-19,-10,-7,-4,-19,2021-08-06 17:33:58,317003
-3,2,56,15,1,1,0,2,2021-08-06 17:33:58,348005
-9,-10,-37,-16,11,-3,0,6,2021-08-06 17:33:58,348005
-2,0,-4,-9,-4,4,2,26,2021-08-06 17:33:58,364004
-10,1,1,31,2,0,-2,-20,2021-08-06 17:33:58,364004
-4,-9,-22,-36,-10,-5,-2,-2,2021-08-06 17:33:58,364004
1,6,51,9,7,-5,1,4,2021-08-06 17:33:58,364004
-8,-16,-20,-9,-11,-2,-5,-22,2021-08-06 17:33:58,364004
0,3,42,1,6,-2,3,12,2021-08-06 17:33:58,364004
1,8,16,1,-1,3,0,-5,2021-08-06 17:33:58,379005
-4,5,-12,20,-12,-5,1,-1,2021-08-06 17:33:58,379005
1,-9,-53,-28,7,0,0,-5,2021-08-06 17:33:58,395006
-4,-6,-46,8,-5,-2,-1,4,2021-08-06 17:33:58,395006
8,3,54,-24,-3,3,5,7,2021-08-06 17:33:58,395006
-24,-5,-19,3,-4,-7,-8,-5,2021-08-06 17:33:58,395006
9,6,-25,-2,0,1,0,-16,2021-08-06 17:33:58,411005
1,-3,24,6,-13,-10,-1,5,2021-08-06 17:33:58,411005
-7,2,-5,2,15,19,-1,-2,2021-08-06 17:33:58,427005
1,0,7,2,-4,-1,2,-4,2021-08-06 17:33:58,427005
-4,-1,68,15,2,-1,-3,-7,2021-08-06 17:33:58,427005
-2,0,-19,-45,-9,-1,-3,7,2021-08-06 17:33:58,427005
-2,-5,-31,0,-5,-9,-2,-6,2021-08-06 17:33:58,443004
7,1,-20,-8,-2,-1,1,3,2021-08-06 17:33:58,443259
1,2,24,23,-1,3,0,-1,2021-08-06 17:33:58,443259
5,4,8,6,2,0,0,27,2021-08-06 17:33:58,443259
1,1,-18,14,3,3,2,-6,2021-08-06 17:33:58,474515
1,-5,-14,-18,-4,2,0,-16,2021-08-06 17:33:58,490515
3,2,15,-2,7,1,1,-2,2021-08-06 17:33:58,523514
4,8,31,18,1,0,-3,10,2021-08-06 17:33:58,524522
-6,-17,-71,-17,-4,-5,-2,10,2021-08-06 17:33:58,524522
-4,-15,-25,6,-2,-4,-1,-6,2021-08-06 17:33:58,524522
6,10,11,-13,-1,-1,-2,6,2021-08-06 17:33:58,524522
-3,-3,77,28,1,1,5,-15,2021-08-06 17:33:58,524522
-5,1,-14,-24,-3,-3,-6,-2,2021-08-06 17:33:58,524522
6,2,20,6,2,1,2,3,2021-08-06 17:33:58,524522
-4,0,6,-6,-3,-1,-1,-2,2021-08-06 17:33:58,524522
-2,-6,20,-4,2,-13,1,-5,2021-08-06 17:33:58,524522
3,0,-18,23,-13,13,-3,-3,2021-08-06 17:33:58,524522
0,-1,-30,-15,14,-6,-1,5,2021-08-06 17:33:58,524522
5,11,25,11,-4,3,5,5,2021-08-06 17:33:58,524522
-2,-12,-64,-31,2,-4,-1,11,2021-08-06 17:33:58,524522
4,5,73,11,-6,-7,2,14,2021-08-06 17:33:58,538515
-22,8,15,14,-7,1,-1,-37,2021-08-06 17:33:58,538515
11,-6,-109,-27,-2,-2,-2,5,2021-08-06 17:33:58,554515
-8,2,47,20,-4,1,-2,2,2021-08-06 17:33:58,569515
5,6,-2,7,6,-1,-2,2,2021-08-06 17:33:58,585513
8,-5,-30,-15,4,4,1,2,2021-08-06 17:33:58,585513
-10,3,51,20,-1,-4,-4,-3,2021-08-06 17:33:58,585513
2,2,-14,-7,-1,6,1,-8,2021-08-06 17:33:58,585513
11,-2,-4,21,0,-3,2,0,2021-08-06 17:33:58,585513
-4,-1,-45,-30,-5,-4,-4,5,2021-08-06 17:33:58,601515
-5,-15,-10,-12,-9,-5,-4,-7,2021-08-06 17:33:58,632515
8,4,-3,6,0,6,-2,2,2021-08-06 17:33:58,648516
-4,6,65,0,14,3,0,-5,2021-08-06 17:33:58,648516
9,-1,-46,-8,-4,1,3,13,2021-08-06 17:33:58,648516
18,-8,-10,-10,-6,-9,-3,-7,2021-08-06 17:33:58,648516
-4,-4,-11,4,-2,15,-1,-9,2021-08-06 17:33:58,648516
-2,6,37,15,-9,-4,3,23,2021-08-06 17:33:58,648516
0,-2,-28,-8,19,-1,1,7,2021-08-06 17:33:58,649517
-2,7,71,-13,-1,5,0,3,2021-08-06 17:33:58,649517
-2,-16,-8,-1,-5,-8,-3,-9,2021-08-06 17:33:58,649517
0,-1,44,18,-1,-2,2,4,2021-08-06 17:33:58,649517
6,4,20,17,-9,7,2,9,2021-08-06 17:33:58,649517
-7,4,-5,5,0,-8,0,-11,2021-08-06 17:33:58,649517
-5,4,-40,-30,2,-2,-6,8,2021-08-06 17:33:58,664514
-8,-4,14,23,2,0,-1,-8,2021-08-06 17:33:58,664514
1,-5,77,16,-4,-3,0,-2,2021-08-06 17:33:58,664514
-7,-6,-21,-8,2,5,3,3,2021-08-06 17:33:58,664514
3,1,-54,-10,-3,-1,0,-4,2021-08-06 17:33:58,664514
8,-3,17,-4,-3,-2,-1,2,2021-08-06 17:33:58,680514
0,4,18,2,-2,-15,-5,-2,2021-08-06 17:33:58,680514
-15,-10,-91,4,-6,21,-1,0,2021-08-06 17:33:58,680514
-4,4,30,-10,6,-6,0,4,2021-08-06 17:33:58,696514
-2,0,-70,-1,4,-2,1,-7,2021-08-06 17:33:58,696514
3,4,121,-7,1,0,-1,4,2021-08-06 17:33:58,696514
-1,4,11,3,-14,-5,0,-4,2021-08-06 17:33:58,712513
-2,-3,-81,1,15,-2,-3,-11,2021-08-06 17:33:58,728514
-5,-2,46,-6,-4,-1,-1,-4,2021-08-06 17:33:58,744514
1,0,18,17,-6,1,0,0,2021-08-06 17:33:58,744514
3,-5,-64,-1,5,-2,1,22,2021-08-06 17:33:58,744514
-2,5,78,11,-7,4,0,-51,2021-08-06 17:33:58,744514
-3,-3,-38,-32,-5,-9,-6,-1,2021-08-06 17:33:58,744514
-10,-3,41,9,1,0,-1,2,2021-08-06 17:33:58,744514
3,0,-22,6,-2,-1,0,3,2021-08-06 17:33:58,745516
1,-4,-11,7,6,-4,-3,12,2021-08-06 17:33:58,745516
-13,-9,-30,-51,-11,-2,-2,-9,2021-08-06 17:33:58,760514
4,2,-73,14,9,8,2,12,2021-08-06 17:33:58,760514
-1,8,64,21,9,0,-4,-25,2021-08-06 17:33:58,760514
0,-10,-44,-15,-12,-5,-1,9,2021-08-06 17:33:58,760514
-5,-3,-28,-3,-5,-14,-2,-5,2021-08-06 17:33:58,775515
14,9,30,18,-1,21,-1,8,2021-08-06 17:33:58,775515
-5,-6,-26,-45,2,-9,1,-2,2021-08-06 17:33:58,822514
2,-3,-4,6,-4,1,2,4,2021-08-06 17:33:58,838515
0,4,17,21,1,-1,2,3,2021-08-06 17:33:58,838515
0,-5,-23,-4,-4,-3,-3,-6,2021-08-06 17:33:58,838515
-1,7,91,-3,-12,-1,-1,-2,2021-08-06 17:33:58,838515
-1,-2,12,11,23,1,1,2,2021-08-06 17:33:58,869515
6,2,-32,3,-4,7,1,-2,2021-08-06 17:33:58,885515
-6,-2,22,-20,1,0,3,-5,2021-08-06 17:33:58,895514
15,0,-9,8,-3,-1,-2,-2,2021-08-06 17:33:58,895514
-3,9,61,13,-2,0,1,12,2021-08-06 17:33:58,895514
1,-9,-56,-52,-11,0,-1,-4,2021-08-06 17:33:58,895514
-4,-9,-14,-3,3,-5,-3,-6,2021-08-06 17:33:58,895514
-6,1,7,4,2,-3,-2,22,2021-08-06 17:33:58,895514
5,2,71,-8,-10,-2,-1,-14,2021-08-06 17:33:58,895514
0,0,56,56,11,5,1,2,2021-08-06 17:33:58,916516
-6,-9,17,-44,-13,-7,-4,-8,2021-08-06 17:33:58,916516
2,1,-14,6,1,-5,-1,7,2021-08-06 17:33:58,916516
-7,-3,-28,6,7,22,5,4,2021-08-06 17:33:58,916516
-4,10,63,13,4,-2,-5,-7,2021-08-06 17:33:58,916516
7,-5,-65,-8,-11,-16,-4,5,2021-08-06 17:33:58,916516
-2,1,-24,-20,5,2,2,-10,2021-08-06 17:33:58,916516
0,3,25,-6,-9,-5,-2,4,2021-08-06 17:33:58,917515
-5,2,8,2,-1,3,-1,-3,2021-08-06 17:33:58,917515
20,-2,-18,13,0,3,2,2,2021-08-06 17:33:58,917515
-8,-1,22,19,5,-5,-3,-8,2021-08-06 17:33:58,917515
7,0,-22,-23,-1,-1,2,-4,2021-08-06 17:33:58,917515
-6,-4,-26,-11,-2,3,1,12,2021-08-06 17:33:58,917515
-11,-8,-51,-25,3,-5,-4,-1,2021-08-06 17:33:58,917515
0,0,34,25,-9,3,0,-10,2021-08-06 17:33:58,932516
2,1,27,21,-6,-8,-4,9,2021-08-06 17:33:58,948514
1,-2,-83,3,7,2,1,7,2021-08-06 17:33:58,948514
-9,14,48,10,-1,4,0,-19,2021-08-06 17:33:58,948514
-16,-17,3,-17,2,1,-1,9,2021-08-06 17:33:58,948514
4,8,-31,8,1,-1,1,6,2021-08-06 17:33:58,948514
0,-2,-14,-20,-4,-3,-3,-11,2021-08-06 17:33:58,949515
-8,-6,32,21,-5,-3,-1,6,2021-08-06 17:33:58,949515
4,5,-10,2,5,-10,2,-2,2021-08-06 17:33:58,964513
-4,-8,41,8,0,17,-2,-4,2021-08-06 17:33:58,964513
3,2,30,12,-2,-6,0,7,2021-08-06 17:33:58,995516
-6,-1,-55,-13,-5,-6,-2,14,2021-08-06 17:33:59,011515
5,9,-34,30,3,3,2,-31,2021-08-06 17:33:59,027515
20,-13,-88,-35,-12,-8,-1,0,2021-08-06 17:33:59,043514
-12,6,113,20,13,8,3,-5,2021-08-06 17:33:59,074540
1,-9,-73,-44,2,1,-1,22,2021-08-06 17:33:59,074540
0,3,62,11,8,-1,-6,-49,2021-08-06 17:33:59,074540
-6,-1,-59,3,-7,-4,-2,7,2021-08-06 17:33:59,074540
2,0,25,-3,-1,0,-2,-5,2021-08-06 17:33:59,074540
5,5,-45,2,-6,1,1,3,2021-08-06 17:33:59,074540
-5,-8,2,-13,-1,2,3,20,2021-08-06 17:33:59,089539
-4,-3,11,-8,2,-4,0,-4,2021-08-06 17:33:59,104538
-4,2,4,31,-2,-6,-6,-8,2021-08-06 17:33:59,104538
-6,-3,17,2,-3,-2,-1,-11,2021-08-06 17:33:59,104538
6,-1,-2,-16,0,4,-4,3,2021-08-06 17:33:59,104538
-2,13,50,31,3,-2,-2,-4,2021-08-06 17:33:59,104538
5,-17,-86,-30,-11,-8,-1,3,2021-08-06 17:33:59,104538
-4,4,34,31,-2,3,1,-7,2021-08-06 17:33:59,104538
24,-2,-22,-31,4,4,-1,7,2021-08-06 17:33:59,104538
-5,-12,-49,14,-5,-11,-2,2,2021-08-06 17:33:59,105540
-8,2,7,1,0,5,1,4,2021-08-06 17:33:59,105540
6,0,17,-6,1,-1,0,-6,2021-08-06 17:33:59,105540
-7,-5,-37,6,1,0,-1,7,2021-08-06 17:33:59,105540
-4,7,32,1,-14,0,-2,-5,2021-08-06 17:33:59,105540
6,5,33,-27,25,0,1,6,2021-08-06 17:33:59,105540
-9,-12,-25,17,-12,2,-3,-29,2021-08-06 17:33:59,105540
-3,0,-13,6,-11,-1,2,17,2021-08-06 17:33:59,105540
6,-1,-43,-11,-3,-5,-4,-1,2021-08-06 17:33:59,105540
-8,-3,6,9,-2,-1,-3,-6,2021-08-06 17:33:59,120540
4,15,85,10,8,2,2,12,2021-08-06 17:33:59,120540
6,-7,-80,-4,1,5,-1,-1,2021-08-06 17:33:59,120540
-8,-19,-21,-28,-12,-8,-4,-6,2021-08-06 17:33:59,120540
0,-3,41,1,-6,-2,-2,2,2021-08-06 17:33:59,152541
7,8,36,-6,9,5,3,-1,2021-08-06 17:33:59,152541
3,10,23,22,0,-5,-1,0,2021-08-06 17:33:59,152541
-8,-4,-5,9,3,-5,1,4,2021-08-06 17:33:59,152541
0,0,-11,10,-8,7,0,-6,2021-08-06 17:33:59,152541
19,5,35,11,6,-10,-2,-2,2021-08-06 17:33:59,152541
-12,-10,-60,-19,-7,3,-2,-2,2021-08-06 17:33:59,199541
0,10,16,2,6,2,0,3,2021-08-06 17:33:59,199541
-3,-5,48,9,-4,-4,-1,11,2021-08-06 17:33:59,199541
3,-5,-77,-15,-5,1,0,-27,2021-08-06 17:33:59,199541
1,4,4,0,-1,-1,0,11,2021-08-06 17:33:59,199541
-4,-9,-9,14,7,2,-3,-3,2021-08-06 17:33:59,199541
7,-3,-61,-25,2,-4,-2,-2,2021-08-06 17:33:59,199541
-2,-2,9,5,-11,-1,-1,7,2021-08-06 17:33:59,200540
-8,1,43,13,7,-3,0,0,2021-08-06 17:33:59,215541
5,4,47,-4,-6,6,0,-3,2021-08-06 17:33:59,215541
-4,-1,-56,-21,-5,0,-1,-6,2021-08-06 17:33:59,231540
-7,-1,4,11,7,-3,0,5,2021-08-06 17:33:59,246538
0,-5,13,-6,-7,-4,-4,-7,2021-08-06 17:33:59,261540
3,3,51,-3,0,-1,0,0,2021-08-06 17:33:59,261540
0,3,19,3,4,3,4,10,2021-08-06 17:33:59,261540
-8,0,-33,-6,1,4,-1,-11,2021-08-06 17:33:59,261540
-5,0,100,13,-5,-4,2,9,2021-08-06 17:33:59,277540
-6,0,53,-4,1,0,0,4,2021-08-06 17:33:59,277734
-3,-5,-47,-1,-6,-12,-7,-13,2021-08-06 17:33:59,284539
-4,-9,0,-3,1,4,-2,13,2021-08-06 17:33:59,284539
-9,4,-2,-11,3,7,6,-4,2021-08-06 17:33:59,285539
3,10,-10,-5,-3,-4,-1,-5,2021-08-06 17:33:59,285539
1,-5,4,-19,5,-1,1,6,2021-08-06 17:33:59,285539
2,10,73,26,0,-1,-2,3,2021-08-06 17:33:59,285539
2,-13,-87,-17,0,-3,-3,-4,2021-08-06 17:33:59,285539
3,0,-13,-1,-9,-2,-3,1,2021-08-06 17:33:59,285539
-2,4,-1,22,-1,6,2,-6,2021-08-06 17:33:59,308539
3,-1,3,-23,3,2,0,2,2021-08-06 17:33:59,323541
0,7,93,6,2,-1,2,-1,2021-08-06 17:33:59,323541
-2,3,2,13,1,-2,-1,0,2021-08-06 17:33:59,323541
-5,-16,22,-36,-12,-7,-10,-10,2021-08-06 17:33:59,323541
-1,-2,3,-1,8,-1,2,4,2021-08-06 17:33:59,323541
6,6,-15,-7,-4,-10,1,6,2021-08-06 17:33:59,324541
-3,8,21,20,7,22,2,2,2021-08-06 17:33:59,324541
2,-5,-38,20,-3,-7,0,-3,2021-08-06 17:33:59,339540
-3,0,9,-22,-2,0,1,11,2021-08-06 17:33:59,354540
-5,2,25,10,-5,-5,-4,-14,2021-08-06 17:33:59,369539
-3,-2,9,-14,-6,-2,2,1,2021-08-06 17:33:59,385540
10,-8,-25,11,26,3,-2,-2,2021-08-06 17:33:59,401540
-4,1,20,1,-16,-5,-4,21,2021-08-06 17:33:59,401540
1,4,82,17,3,8,3,5,2021-08-06 17:33:59,401540
-3,-13,-73,-32,-6,-6,-1,-1,2021-08-06 17:33:59,417540
6,8,51,20,-4,3,-1,0,2021-08-06 17:33:59,432540
0,-3,-19,11,6,-5,-1,5,2021-08-06 17:33:59,448540
3,0,-125,-3,-3,2,-4,1,2021-08-06 17:33:59,448540
-1,-4,35,-4,-1,-2,0,-5,2021-08-06 17:33:59,448540
3,10,0,-1,1,2,4,8,2021-08-06 17:33:59,448540
-3,-14,27,7,-3,-2,-5,-13,2021-08-06 17:33:59,448540
-1,3,17,-15,-2,-2,-4,-5,2021-08-06 17:33:59,464538
-2,-9,-83,-24,2,-11,2,5,2021-08-06 17:33:59,464538
10,1,13,5,1,19,0,-5,2021-08-06 17:33:59,464538
2,6,-19,14,-7,-3,3,-7,2021-08-06 17:33:59,464538
1,-3,21,8,9,-1,-3,0,2021-08-06 17:33:59,464538
0,-11,-76,-28,-20,-4,-2,6,2021-08-06 17:33:59,464538
-14,-6,61,7,18,-8,0,-7,2021-08-06 17:33:59,464538
1,10,7,28,-7,3,0,-7,2021-08-06 17:33:59,480540
10,-8,10,-28,-2,5,2,4,2021-08-06 17:33:59,496538
8,-3,-21,-5,5,-3,-2,-2,2021-08-06 17:33:59,496538
-5,9,-3,-6,-12,-3,2,-2,2021-08-06 17:33:59,511541
-6,-6,-20,-3,4,1,1,9,2021-08-06 17:33:59,511541
8,3,14,20,-1,-1,-1,-14,2021-08-06 17:33:59,511541
-1,6,16,0,7,0,-6,-5,2021-08-06 17:33:59,511541
-2,-6,-70,-23,-7,-1,3,-1,2021-08-06 17:33:59,511541
-5,-1,57,10,2,-6,-5,5,2021-08-06 17:33:59,527540
2,-5,-60,-12,-14,-1,1,3,2021-08-06 17:33:59,542540
1,5,68,11,12,6,1,-5,2021-08-06 17:33:59,557541
-3,3,65,17,-7,2,-1,4,2021-08-06 17:33:59,557541
6,0,-40,-14,2,-4,2,-10,2021-08-06 17:33:59,573541
-6,-4,40,-3,0,3,1,1,2021-08-06 17:33:59,573541
-3,-6,2,0,-14,-8,0,18,2021-08-06 17:33:59,589540
-9,6,66,-13,20,-1,0,-44,2021-08-06 17:33:59,604539
8,-6,-80,-22,-11,5,-3,-4,2021-08-06 17:33:59,619540
-10,-2,9,-1,-5,-9,-5,1,2021-08-06 17:33:59,619540
-2,8,67,5,11,4,3,12,2021-08-06 17:33:59,619540
0,-7,-75,28,-11,-2,0,9,2021-08-06 17:33:59,619540
-2,-1,27,-6,-1,-3,-1,-5,2021-08-06 17:33:59,619540
-7,-2,-34,-1,2,-1,-3,-3,2021-08-06 17:33:59,635540
2,1,3,3,-1,-3,-3,-13,2021-08-06 17:33:59,635540
1,6,-21,2,-11,2,0,6,2021-08-06 17:33:59,635540
-6,-1,31,0,11,-1,-2,-6,2021-08-06 17:33:59,635540
2,-3,-41,1,-4,1,0,10,2021-08-06 17:33:59,651540
-1,-5,-17,-10,-5,-8,1,-6,2021-08-06 17:33:59,651540
1,1,50,11,2,13,1,2,2021-08-06 17:33:59,651540
2,4,-17,0,4,0,-1,5,2021-08-06 17:33:59,651540
-7,-10,-48,-16,-1,-5,1,-3,2021-08-06 17:33:59,651540
12,6,42,15,2,1,-4,-7,2021-08-06 17:33:59,651540
-1,-5,-25,-14,4,-12,-2,7,2021-08-06 17:33:59,652540
-1,0,48,-10,-9,3,0,-5,2021-08-06 17:33:59,652540
2,0,51,17,-3,3,-2,-1,2021-08-06 17:33:59,652540
-5,0,-3,13,0,-4,-3,-5,2021-08-06 17:33:59,652540
-4,4,23,-2,-5,-1,1,8,2021-08-06 17:33:59,667540
-2,-5,-42,-29,-6,0,-1,-2,2021-08-06 17:33:59,667540
-2,0,14,4,11,-3,2,-2,2021-08-06 17:33:59,667540
0,3,63,17,-2,4,-3,2,2021-08-06 17:33:59,667540
2,-4,-11,-4,-2,-5,-4,0,2021-08-06 17:33:59,667540
-4,-1,-11,13,-1,0,2,0,2021-08-06 17:33:59,667540
-7,4,-5,-3,-3,0,-4,-2,2021-08-06 17:33:59,667540
-7,-12,-33,-13,0,-2,0,-1,2021-08-06 17:33:59,668540
-1,3,-28,0,-1,-1,-3,2,2021-08-06 17:33:59,668540
-1,0,-3,-1,4,0,4,2,2021-08-06 17:33:59,668540
9,0,16,-3,-2,-11,1,5,2021-08-06 17:33:59,668540
-2,3,-16,7,14,27,2,14,2021-08-06 17:33:59,668540
2,4,0,5,-3,-5,1,-6,2021-08-06 17:33:59,677540
0,-2,7,-14,-7,-5,-2,2,2021-08-06 17:33:59,678541
1,-16,-90,-8,-5,-7,-2,-3,2021-08-06 17:33:59,698540
1,4,40,11,8,-5,0,9,2021-08-06 17:33:59,713539
-2,-5,-16,2,-16,0,-4,0,2021-08-06 17:33:59,713539
-5,9,46,12,13,7,3,-4,2021-08-06 17:33:59,728540
-10,-5,14,-8,-11,-1,-3,0,2021-08-06 17:33:59,743539
1,-8,-35,-27,-7,-5,0,-11,2021-08-06 17:33:59,743539
3,3,-2,18,0,2,-1,2,2021-08-06 17:33:59,743539
0,-4,22,5,-7,-8,-6,-7,2021-08-06 17:33:59,743539
1,-1,-28,-9,4,3,1,1,2021-08-06 17:33:59,743539
-4,-2,-5,-18,-2,-3,0,-5,2021-08-06 17:33:59,743539
-2,1,36,3,-2,-2,1,1,2021-08-06 17:33:59,743539
12,5,10,12,3,1,0,6,2021-08-06 17:33:59,743539
-3,-10,-35,-24,1,2,-4,-5,2021-08-06 17:33:59,774540
-6,0,25,20,-1,-11,0,-6,2021-08-06 17:33:59,774540
-1,0,-15,-8,-3,9,-1,3,2021-08-06 17:33:59,774540
-1,-2,-48,-17,-4,-8,-1,-2,2021-08-06 17:33:59,774540
-4,4,51,10,5,8,4,1,2021-08-06 17:33:59,774540
-6,8,-17,20,0,-5,0,-4,2021-08-06 17:33:59,790540
-1,-15,-67,-37,-3,-8,-4,-3,2021-08-06 17:33:59,790540
-3,-2,37,14,7,4,-3,-4,2021-08-06 17:33:59,806540
5,12,-22,3,-4,5,2,2,2021-08-06 17:33:59,821541
-1,-7,-13,-14,0,-2,0,1,2021-08-06 17:33:59,837540
-2,-2,50,16,-2,-3,0,0,2021-08-06 17:33:59,837540
-5,-6,-30,-12,2,2,-2,-2,2021-08-06 17:33:59,837540
10,5,34,12,0,-2,0,-2,2021-08-06 17:33:59,837540
1,8,32,-7,-6,1,-1,-2,2021-08-06 17:33:59,837540
4,-8,-57,-3,2,1,-2,-2,2021-08-06 17:33:59,837540
-8,3,3,9,2,-3,-1,0,2021-08-06 17:33:59,837540
-4,-6,58,1,-3,0,-2,-1,2021-08-06 17:33:59,852540
2,2,-25,-15,-4,-15,0,-2,2021-08-06 17:33:59,868542
-1,5,-42,-10,-6,18,0,2,2021-08-06 17:33:59,868542
3,-11,-16,8,5,-7,0,-1,2021-08-06 17:33:59,884539
-1,-2,14,11,-2,-1,-2,0,2021-08-06 17:33:59,884539
-1,2,26,-16,2,-1,-2,-2,2021-08-06 17:33:59,884539
-7,6,-22,-20,-7,-5,2,1,2021-08-06 17:33:59,884539
-2,-12,24,22,6,-1,-1,-2,2021-08-06 17:33:59,884539
1,6,13,-12,-4,2,0,-1,2021-08-06 17:33:59,884539
1,-7,-64,-12,-7,0,-4,-1,2021-08-06 17:33:59,884539
-3,4,51,11,4,-7,-1,-3,2021-08-06 17:33:59,884539
8,9,-10,2,-8,4,-2,0,2021-08-06 17:33:59,885540
-3,-8,-14,1,2,-7,-3,-2,2021-08-06 17:33:59,885540
-2,4,12,18,4,6,1,-2,2021-08-06 17:33:59,885540
1,-4,16,-10,0,-3,0,1,2021-08-06 17:33:59,899540
-5,-1,11,-10,-6,-1,1,-1,2021-08-06 17:33:59,915540
-1,6,-6,-6,6,-1,-1,0,2021-08-06 17:33:59,947540
1,-6,-90,0,-6,-10,-3,-4,2021-08-06 17:33:59,947540
3,6,38,2,2,9,2,3,2021-08-06 17:33:59,947540
-5,-9,62,-3,-7,-7,-2,1,2021-08-06 17:33:59,947540
-1,3,29,8,2,6,-2,-1,2021-08-06 17:33:59,947540
-2,-2,-50,8,-5,0,1,1,2021-08-06 17:33:59,947540
21,5,15,-9,7,-7,-1,-3,2021-08-06 17:33:59,948540
-2,-7,-61,-16,-13,0,0,1,2021-08-06 17:33:59,948540
1,1,31,15,17,0,3,0,2021-08-06 17:33:59,962540
-4,-6,18,7,-1,6,-4,-2,2021-08-06 17:33:59,962540
1,0,4,11,-1,-3,-2,0,2021-08-06 17:33:59,978541
-1,5,4,-25,-8,2,-2,0,2021-08-06 17:33:59,994539
1,-4,-41,8,-1,-2,2,1,2021-08-06 17:33:59,994539
0,-5,57,0,-5,2,1,0,2021-08-06 17:33:59,994539
-9,3,-18,1,7,-1,2,-1,2021-08-06 17:33:59,994539
-1,-2,23,4,-1,-3,-2,-3,2021-08-06 17:33:59,994539
-2,-7,-78,-10,-6,0,-4,-1,2021-08-06 17:33:59,994539
0,5,-2,7,6,2,-1,2,2021-08-06 17:34:00,009539
5,-9,-14,-12,-11,-22,-5,-2,2021-08-06 17:34:00,025539
-4,0,27,5,5,19,1,1,2021-08-06 17:34:00,041540
-3,0,12,1,4,-4,1,-2,2021-08-06 17:34:00,057541
8,1,3,2,-1,3,3,3,2021-08-06 17:34:00,057541
-9,-3,16,-12,-2,-5,-2,-2,2021-08-06 17:34:00,057541
3,17,42,17,3,-3,1,0,2021-08-06 17:34:00,057541
-1,-21,-59,-21,-22,-3,-5,-1,2021-08-06 17:34:00,057541
-9,-2,-6,-2,27,-1,-2,-3,2021-08-06 17:34:00,057541
10,0,-6,27,-4,3,1,0,2021-08-06 17:34:00,058541
0,0,0,-22,6,2,1,1,2021-08-06 17:34:00,058541
-4,8,-27,-9,-9,2,0,-3,2021-08-06 17:34:00,058541
2,-4,18,-8,-7,-5,-2,-3,2021-08-06 17:34:00,058541
-11,1,19,9,1,1,0,3,2021-08-06 17:34:00,073540
0,-3,-63,15,1,-1,0,0,2021-08-06 17:34:00,073540
4,3,59,-18,0,-4,-1,-2,2021-08-06 17:34:00,073540
2,-3,-11,-1,0,2,1,2,2021-08-06 17:34:00,073540
-4,-10,-11,-7,-4,-2,-5,-3,2021-08-06 17:34:00,088540
-3,-3,57,8,-3,-4,0,2,2021-08-06 17:34:00,088540
-8,2,-27,2,10,7,0,-2,2021-08-06 17:34:00,104539
0,3,42,20,-3,-3,1,-3,2021-08-06 17:34:00,118539
1,5,12,-8,-4,5,0,1,2021-08-06 17:34:00,119540
2,-1,-67,-12,-7,-11,0,-2,2021-08-06 17:34:00,119540
-4,-7,39,-2,23,1,-3,-1,2021-08-06 17:34:00,119540
-9,5,-39,0,-15,5,-5,-3,2021-08-06 17:34:00,119540
-1,0,16,0,-4,-5,1,1,2021-08-06 17:34:00,119540
4,-9,-47,-18,-7,-4,-2,-2,2021-08-06 17:34:00,119540
-3,7,35,16,1,-1,2,-1,2021-08-06 17:34:00,135540
3,-2,-39,4,0,1,2,7,2021-08-06 17:34:00,135540
-8,-3,8,8,8,2,-2,1,2021-08-06 17:34:00,135540
1,2,24,-7,-5,-2,-3,5,2021-08-06 17:34:00,135540
4,1,-6,10,-3,-1,-2,2,2021-08-06 17:34:00,151539
-2,-4,7,-2,3,-3,0,-5,2021-08-06 17:34:00,151539
-3,-7,-7,-6,-10,14,-1,6,2021-08-06 17:34:00,167540
-1,1,1,4,13,-1,1,-3,2021-08-06 17:34:00,167540
4,4,34,8,-7,-8,-1,-4,2021-08-06 17:34:00,167540
-7,5,6,-1,0,-1,0,6,2021-08-06 17:34:00,167540
-11,-6,-28,-9,3,-3,0,-5,2021-08-06 17:34:00,199540
-3,-12,-10,1,-1,5,2,-3,2021-08-06 17:34:00,199540
-3,4,20,6,-8,-2,-2,-1,2021-08-06 17:34:00,231540
-4,-6,-14,-23,-12,-5,-2,-6,2021-08-06 17:34:00,246539
1,2,-25,3,22,-1,-2,-3,2021-08-06 17:34:00,261540
0,8,4,4,-5,1,-3,-4,2021-08-06 17:34:00,261540
-2,-4,-9,-6,0,4,4,5,2021-08-06 17:34:00,292539
0,0,22,9,-8,4,0,-5,2021-08-06 17:34:00,308541
5,0,2,6,1,-4,1,-3,2021-08-06 17:34:00,323539
5,-3,-74,-7,2,-2,-1,6,2021-08-06 17:34:00,323539
-3,-1,60,-1,-1,-3,-2,-2,2021-08-06 17:34:00,339541
-3,-9,-18,-7,5,2,-3,-4,2021-08-06 17:34:00,339541
5,-9,-11,8,-1,-2,-1,-4,2021-08-06 17:34:00,339541
-5,2,64,-11,-4,-21,-4,-3,2021-08-06 17:34:00,339541
6,2,32,-28,-4,18,-2,-1,2021-08-06 17:34:00,354541
3,7,-63,5,4,-1,1,-1,2021-08-06 17:34:00,354541
-1,4,1,12,-2,-4,-4,1,2021-08-06 17:34:00,354541
-2,-3,19,10,-6,-1,-1,-2,2021-08-06 17:34:00,354541
2,0,-23,-7,0,-4,1,-3,2021-08-06 17:34:00,370541
4,-3,21,0,2,4,-3,3,2021-08-06 17:34:00,370541
-2,4,48,-2,-12,-1,1,0,2021-08-06 17:34:00,370541
-4,-3,-5,8,-9,1,-2,-2,2021-08-06 17:34:00,370541
-6,-9,-79,-9,21,-4,-2,-1,2021-08-06 17:34:00,370541
-1,-1,105,6,-9,2,0,-1,2021-08-06 17:34:00,370541
-12,1,-58,-3,-5,-2,0,-3,2021-08-06 17:34:00,370541
9,5,27,-5,-2,3,0,0,2021-08-06 17:34:00,386541
3,-3,-53,-3,-2,-3,0,2,2021-08-06 17:34:00,401540
-5,-1,26,-4,2,-5,-4,-2,2021-08-06 17:34:00,401540
4,-8,-24,-2,-1,-1,-3,-3,2021-08-06 17:34:00,417541
2,4,3,13,1,-11,1,1,2021-08-06 17:34:00,417541
1,2,-60,6,-6,18,1,2,2021-08-06 17:34:00,417541
1,-7,50,-22,-2,-9,0,-3,2021-08-06 17:34:00,417541
3,12,29,15,-2,-2,-1,0,2021-08-06 17:34:00,433540
-5,-17,-16,-18,4,3,-3,-1,2021-08-06 17:34:00,449540
-1,7,73,34,1,-7,0,-1,2021-08-06 17:34:00,449540
9,-3,-87,-11,-2,3,0,2,2021-08-06 17:34:00,449540
-1,4,82,-3,3,4,2,2,2021-08-06 17:34:00,449540
-8,1,-85,5,-6,0,-4,-1,2021-08-06 17:34:00,449540
7,-3,47,4,2,-8,-3,-1,2021-08-06 17:34:00,480541
0,1,1,-5,0,3,-1,1,2021-08-06 17:34:00,496539
1,9,37,-1,-11,-3,3,3,2021-08-06 17:34:00,527538
1,-11,-78,-2,24,3,2,1,2021-08-06 17:34:00,527538
-3,1,42,15,-15,-1,-1,-1,2021-08-06 17:34:00,533540
-8,-14,-87,-35,2,-6,-3,-2,2021-08-06 17:34:00,533540
5,1,-30,13,-5,-3,-2,0,2021-08-06 17:34:00,533540
-5,2,22,-14,-7,3,-2,-3,2021-08-06 17:34:00,533540
3,3,-5,-10,-2,-4,-3,-2,2021-08-06 17:34:00,534540
5,4,11,21,5,6,2,2,2021-08-06 17:34:00,534540
0,-5,3,-15,3,-2,0,-2,2021-08-06 17:34:00,534540
-2,5,54,4,-4,4,1,-3,2021-08-06 17:34:00,534540
6,-14,-55,-2,-1,-10,-2,-1,2021-08-06 17:34:00,534540
0,10,50,4,-8,2,1,-1,2021-08-06 17:34:00,534540
-5,-8,6,-6,8,0,-2,-1,2021-08-06 17:34:00,534540
0,4,-3,-1,0,-4,-1,-2,2021-08-06 17:34:00,534540
-2,-1,46,6,-10,-1,-2,-2,2021-08-06 17:34:00,534540
2,2,0,6,-14,-2,-2,-1,2021-08-06 17:34:00,535540
-2,-9,-15,-3,26,-1,-1,-2,2021-08-06 17:34:00,535540
-2,9,60,15,-6,5,3,3,2021-08-06 17:34:00,535540
-8,-5,-42,-13,-2,3,3,2,2021-08-06 17:34:00,535540
-4,-4,0,-1,2,0,-2,0,2021-08-06 17:34:00,535540
0,1,-56,-7,-8,-4,0,-2,2021-08-06 17:34:00,542539
-4,-18,8,-8,-6,-19,-6,-4,2021-08-06 17:34:00,542539
2,6,45,1,0,20,-1,0,2021-08-06 17:34:00,542539
-1,5,38,12,3,-8,1,1,2021-08-06 17:34:00,542539
4,3,-5,3,1,2,4,0,2021-08-06 17:34:00,542539
2,-2,-1,-1,4,-1,-2,0,2021-08-06 17:34:00,542539
-6,-2,-11,-17,-4,-4,-2,-3,2021-08-06 17:34:00,542539
-2,-2,14,14,5,0,1,-4,2021-08-06 17:34:00,542539
2,0,21,-6,-6,6,-4,-2,2021-08-06 17:34:00,542539
2,-3,-43,-15,-4,0,-2,0,2021-08-06 17:34:00,543539
-2,4,-34,7,-1,-9,-1,1,2021-08-06 17:34:00,543539
0,-2,-12,-22,-19,-1,-2,-2,2021-08-06 17:34:00,543539
-3,0,46,8,32,4,2,0,2021-08-06 17:34:00,543539
0,3,-44,5,-4,6,1,1,2021-08-06 17:34:00,543539
6,-3,50,-5,-3,-5,-2,-2,2021-08-06 17:34:00,543539
-8,-3,-35,11,-2,-5,-4,-1,2021-08-06 17:34:00,543539
0,3,21,-10,-16,-2,-2,1,2021-08-06 17:34:00,558539
3,5,12,9,-3,-11,-1,1,2021-08-06 17:34:00,558539
-12,-8,-55,-18,6,14,0,0,2021-08-06 17:34:00,573547
3,2,36,6,1,-7,-3,-1,2021-08-06 17:34:00,589539
0,-2,-10,-5,-7,-1,-2,-1,2021-08-06 17:34:00,589539
-4,-8,1,-3,3,1,2,1,2021-08-06 17:34:00,589539
1,3,16,-12,-6,-8,0,0,2021-08-06 17:34:00,605540
0,-3,-11,9,1,-2,-3,-2,2021-08-06 17:34:00,621540
-1,-2,14,5,-1,1,-1,0,2021-08-06 17:34:00,637539
4,5,-45,19,0,5,-2,0,2021-08-06 17:34:00,653540
-6,-8,-17,-18,-7,-10,-4,-2,2021-08-06 17:34:00,669539
-5,3,34,10,10,6,-2,0,2021-08-06 17:34:00,669539
6,1,-28,11,-6,-5,-1,0,2021-08-06 17:34:00,685539
-4,3,34,3,3,4,2,-1,2021-08-06 17:34:00,701541
0,6,30,-2,-4,-3,1,0,2021-08-06 17:34:00,717539
-4,-6,-26,-6,20,1,-2,-5,2021-08-06 17:34:00,717539
-1,-5,-19,-10,-14,-1,-3,-1,2021-08-06 17:34:00,717539
6,1,10,15,-3,4,-1,0,2021-08-06 17:34:00,717539
-2,-2,-4,7,-7,-12,-2,-1,2021-08-06 17:34:00,717539
-2,1,41,11,5,16,4,3,2021-08-06 17:34:00,717539
-6,-8,-9,-39,-1,-10,-1,1,2021-08-06 17:34:00,717539
-1,1,-64,-13,-1,1,-3,-1,2021-08-06 17:34:00,718540
-5,1,56,12,2,-7,-2,-3,2021-08-06 17:34:00,733541
-5,-7,-28,9,-2,0,0,0,2021-08-06 17:34:00,749542
-2,4,16,-13,-1,5,0,-2,2021-08-06 17:34:00,765540
-5,0,-55,-9,-1,-1,1,1,2021-08-06 17:34:00,765540
0,0,56,8,-4,-1,0,-1,2021-08-06 17:34:00,765540
0,-2,-29,-5,3,0,3,0,2021-08-06 17:34:00,765540
1,0,-20,14,-3,3,-4,-2,2021-08-06 17:34:00,765540
-4,-2,49,-13,-9,-4,-5,-1,2021-08-06 17:34:00,781540
3,3,-48,20,13,4,2,-2,2021-08-06 17:34:00,797540
6,-6,21,-11,-2,-1,-1,-3,2021-08-06 17:34:00,812540
-3,1,28,-21,-3,-3,1,0,2021-08-06 17:34:00,828543
-8,-9,-24,-3,-2,2,-2,-2,2021-08-06 17:34:00,844539
20,2,25,8,-9,-15,-3,-2,2021-08-06 17:34:00,844539
6,2,-14,-10,0,18,3,1,2021-08-06 17:34:00,844539
1,-1,11,14,1,-4,-1,1,2021-08-06 17:34:00,844539
-1,0,41,-4,1,-1,2,-1,2021-08-06 17:34:00,860539
-2,2,-61,4,-1,1,0,2,2021-08-06 17:34:00,876540
-3,-2,-3,-13,-6,-7,-2,0,2021-08-06 17:34:00,876540
-1,-3,37,10,7,2,-1,-2,2021-08-06 17:34:00,892539
8,6,18,15,0,3,0,0,2021-08-06 17:34:00,892539
-2,1,-32,-25,2,0,-2,-1,2021-08-06 17:34:00,892539
4,0,3,-1,-8,-9,-5,-1,2021-08-06 17:34:00,892539
-7,-7,-54,-7,-8,3,-2,-5,2021-08-06 17:34:00,892539
2,4,37,8,6,-2,2,1,2021-08-06 17:34:00,892539
9,2,35,15,4,3,1,1,2021-08-06 17:34:00,892539
-5,-11,-69,-19,-3,-1,-2,-1,2021-08-06 17:34:00,893540
7,4,-2,8,-11,-13,1,-2,2021-08-06 17:34:00,893540
-4,-9,1,-9,14,15,-2,-3,2021-08-06 17:34:00,893540
2,4,13,-6,-7,-3,0,-1,2021-08-06 17:34:00,893540
4,6,11,3,2,-2,-1,1,2021-08-06 17:34:00,893540
0,1,-46,3,-9,-6,0,-2,2021-08-06 17:34:00,893540
0,0,19,0,7,-1,2,-1,2021-08-06 17:34:00,893540
-10,-7,-14,0,-2,6,-2,1,2021-08-06 17:34:00,893540
1,3,45,15,0,-6,0,-2,2021-08-06 17:34:00,893540
-1,-15,-68,-23,0,3,-3,2,2021-08-06 17:34:00,894542
-5,3,16,-3,-4,0,-2,-3,2021-08-06 17:34:00,894542
-2,0,24,-6,1,0,-4,-5,2021-08-06 17:34:00,894542
-8,2,19,4,-2,-5,0,0,2021-08-06 17:34:00,894542
1,1,52,17,0,2,-2,-2,2021-08-06 17:34:00,894542
5,-3,-62,-20,-2,-2,-2,1,2021-08-06 17:34:00,894542
-3,1,21,-2,-3,-1,3,3,2021-08-06 17:34:00,894542
-3,-8,-33,-11,-19,-4,-2,-2,2021-08-06 17:34:00,894542
0,5,27,2,32,7,0,-1,2021-08-06 17:34:00,895541
-8,-4,12,5,-7,-2,-2,-1,2021-08-06 17:34:00,895541
-4,-4,-40,-2,-7,2,-2,0,2021-08-06 17:34:00,895541
5,8,0,3,-3,-8,-1,-2,2021-08-06 17:34:00,895541
-5,-12,-60,-14,-5,1,0,1,2021-08-06 17:34:00,907541
-3,-3,-2,-4,-3,-8,-1,0,2021-08-06 17:34:00,907541
-3,1,58,20,8,6,-1,-2,2021-08-06 17:34:00,923538
2,-3,-55,-16,-2,1,-1,-2,2021-08-06 17:34:00,923538
2,2,-39,1,-4,-4,0,-4,2021-08-06 17:34:00,923538
6,6,13,15,1,0,3,1,2021-08-06 17:34:00,923538
-8,-15,-50,-16,-4,-1,-5,-1,2021-08-06 17:34:00,939540
-3,-1,30,14,4,1,-2,0,2021-08-06 17:34:00,939540
-2,-3,9,-20,-3,1,-2,0,2021-08-06 17:34:00,939540
4,1,11,0,-6,0,1,-3,2021-08-06 17:34:00,939540
-11,-5,22,4,5,2,1,-3,2021-08-06 17:34:00,939540
3,1,-1,3,6,-3,-1,1,2021-08-06 17:34:00,939540
-1,1,-2,1,-7,1,0,0,2021-08-06 17:34:00,970540
0,1,17,3,3,-4,0,0,2021-08-06 17:34:00,986540
-5,5,-41,-14,-14,10,0,-2,2021-08-06 17:34:01,001539
-3,-5,25,-11,21,-1,-2,-1,2021-08-06 17:34:01,001539
-6,-1,19,19,-8,-1,0,0,2021-08-06 17:34:01,001539
9,-1,-15,-4,-6,-2,0,-2,2021-08-06 17:34:01,001539
-1,0,-15,6,6,-5,-1,0,2021-08-06 17:34:01,001539
0,0,-34,-7,-11,1,0,-1,2021-08-06 17:34:01,001539
2,9,61,20,1,5,4,2,2021-08-06 17:34:01,001539
-2,-9,-8,-21,4,-7,-3,-2,2021-08-06 17:34:01,001539
6,-8,-20,-16,-6,-2,1,3,2021-08-06 17:34:01,002543
3,3,-8,10,1,1,-1,-1,2021-08-06 17:34:01,002543
1,2,24,6,4,-6,-3,-2,2021-08-06 17:34:01,032539
-6,1,11,0,-4,0,-2,-1,2021-08-06 17:34:01,032539
2,1,-56,7,7,-2,-1,0,2021-08-06 17:34:01,032539
-13,1,58,-2,-7,-1,0,-3,2021-08-06 17:34:01,032539
-1,-9,7,-6,-1,-14,0,-1,2021-08-06 17:34:01,048540
2,5,12,6,1,17,-1,1,2021-08-06 17:34:01,048540
-4,-1,-20,3,8,-7,-1,0,2021-08-06 17:34:01,064539
-4,-5,36,-3,-6,-5,0,-3,2021-08-06 17:34:01,064539
0,6,7,10,13,2,2,1,2021-08-06 17:34:01,064539
-2,-9,-1,2,-7,-2,-3,-2,2021-08-06 17:34:01,080540
3,-3,-17,-14,-7,-3,-2,-1,2021-08-06 17:34:01,096540
3,8,10,20,4,3,2,1,2021-08-06 17:34:01,096540
-2,0,5,-1,-1,3,-1,-2,2021-08-06 17:34:01,096540
-10,-15,-1,-15,-9,-7,-3,-4,2021-08-06 17:34:01,096540
1,8,66,8,10,-1,-3,0,2021-08-06 17:34:01,112540
-1,-10,-57,1,-8,-2,-2,1,2021-08-06 17:34:01,112540
-6,-3,21,-15,-2,2,-2,-1,2021-08-06 17:34:01,112540
9,10,45,12,7,1,4,2,2021-08-06 17:34:01,128540
0,-4,-47,-6,-10,-6,-3,1,2021-08-06 17:34:01,128540
-1,0,-5,-18,-4,11,-2,1,2021-08-06 17:34:01,128540
12,-6,-38,7,4,2,-1,-1,2021-08-06 17:34:01,128540
0,0,-23,4,-1,-8,-3,-2,2021-08-06 17:34:01,144538
2,0,26,-7,-9,3,3,-1,2021-08-06 17:34:01,159538
1,3,10,16,15,-5,0,1,2021-08-06 17:34:01,159538
-4,5,14,-9,-2,3,0,2,2021-08-06 17:34:01,174539
-7,-14,-39,-1,-9,0,-1,-2,2021-08-06 17:34:01,190540
-7,6,16,-8,-1,-1,3,-1,2021-08-06 17:34:01,221540
-1,-2,80,-2,1,-2,-1,0,2021-08-06 17:34:01,237540
3,-3,-61,2,-12,-8,-7,-2,2021-08-06 17:34:01,253542
-2,9,21,11,7,-3,-2,2,2021-08-06 17:34:01,269541
6,6,-19,-2,2,1,-1,-2,2021-08-06 17:34:01,285540
2,-5,11,0,4,4,1,-1,2021-08-06 17:34:01,285540
-11,-4,11,0,-6,-2,-2,-2,2021-08-06 17:34:01,285540
4,0,-6,-16,-6,-5,-2,1,2021-08-06 17:34:01,285540
2,-5,-4,5,3,1,0,0,2021-08-06 17:34:01,285540
5,2,-6,-5,-4,0,0,-1,2021-08-06 17:34:01,286541
1,2,-4,7,6,-6,0,0,2021-08-06 17:34:01,286541
-1,-7,-36,-12,-7,10,-3,-1,2021-08-06 17:34:01,286541
11,-7,-9,-17,-2,-10,-1,-3,2021-08-06 17:34:01,286541
6,2,-36,0,-7,1,0,1,2021-08-06 17:34:01,300540
-1,6,51,8,6,0,0,-1,2021-08-06 17:34:01,316539
-8,-6,-22,-2,9,-5,0,-3,2021-08-06 17:34:01,316539
-4,-3,27,9,-4,7,1,-1,2021-08-06 17:34:01,316539
0,3,5,7,-3,-6,-2,-2,2021-08-06 17:34:01,316539
3,-2,5,-16,-10,1,0,-2,2021-08-06 17:34:01,316539
2,6,20,7,1,-2,-1,0,2021-08-06 17:34:01,316539
-3,3,-1,8,9,1,0,-1,2021-08-06 17:34:01,316539
0,4,-11,-1,-4,0,2,1,2021-08-06 17:34:01,331540
1,0,44,2,5,4,3,-1,2021-08-06 17:34:01,331540
-4,-4,-66,1,-2,-4,-2,1,2021-08-06 17:34:01,331540
-17,-5,-19,-19,-2,-4,-2,-2,2021-08-06 17:34:01,331540
-2,-4,2,0,0,1,0,1,2021-08-06 17:34:01,347540
6,8,63,11,2,2,-2,1,2021-08-06 17:34:01,362541
4,3,19,6,0,-3,1,0,2021-08-06 17:34:01,365540
-3,-8,-53,-3,-3,6,1,0,2021-08-06 17:34:01,366541
1,6,6,-1,1,2,-2,-2,2021-08-06 17:34:01,366541
-2,-4,-26,4,-1,-6,-1,-1,2021-08-06 17:34:01,366541
0,7,69,-16,-3,2,3,-1,2021-08-06 17:34:01,366541
-1,0,3,10,7,-3,2,0,2021-08-06 17:34:01,366541
-6,-7,-31,-11,-5,-3,-6,-1,2021-08-06 17:34:01,366541
11,-9,-16,-11,-18,2,-1,-1,2021-08-06 17:34:01,378540
-4,2,15,13,23,-4,0,-1,2021-08-06 17:34:01,378540
7,3,20,6,-4,2,-2,-2,2021-08-06 17:34:01,378540
-8,0,-1,3,0,-3,-3,-2,2021-08-06 17:34:01,378540
-5,3,-43,-17,-7,-3,-2,-1,2021-08-06 17:34:01,378540
3,-3,8,-12,-3,-2,1,-2,2021-08-06 17:34:01,378540
-1,2,59,9,3,2,2,1,2021-08-06 17:34:01,378540
-3,-9,0,-3,-4,-2,-2,-2,2021-08-06 17:34:01,378540
-1,-1,-52,-4,3,-8,-2,-1,2021-08-06 17:34:01,379540
-4,3,-25,3,0,19,0,0,2021-08-06 17:34:01,379540
3,5,47,-2,-2,-4,-2,-3,2021-08-06 17:34:01,393539
0,-2,-11,3,3,-4,0,-1,2021-08-06 17:34:01,408538
-4,-1,25,-7,0,2,0,0,2021-08-06 17:34:01,424540
3,4,-14,2,1,-4,0,1,2021-08-06 17:34:01,424540
-1,-9,-2,6,-16,-3,-1,-1,2021-08-06 17:34:01,424540
-1,-4,-56,-3,15,1,-3,-4,2021-08-06 17:34:01,424540
-1,-2,-9,-3,1,1,-1,-1,2021-08-06 17:34:01,424540
-3,4,29,-3,-7,1,2,-1,2021-08-06 17:34:01,424540
9,-1,21,3,1,-3,0,0,2021-08-06 17:34:01,424540
4,-1,-22,-15,-7,0,5,-1,2021-08-06 17:34:01,424540
0,-5,28,3,1,3,-2,2,2021-08-06 17:34:01,425540
-1,-1,-6,7,0,-6,-1,0,2021-08-06 17:34:01,425540
-2,3,-47,4,-9,-1,-2,-2,2021-08-06 17:34:01,425540
-2,2,36,-8,4,-2,-1,-1,2021-08-06 17:34:01,425540
-1,-3,6,-2,0,2,-1,0,2021-08-06 17:34:01,456539
5,5,-10,4,-6,-2,-2,-1,2021-08-06 17:34:01,456539
-3,-7,-15,-3,4,-9,-2,0,2021-08-06 17:34:01,456539
2,-2,12,2,-2,19,1,0,2021-08-06 17:34:01,456539
-1,5,-1,2,-3,-1,-1,-2,2021-08-06 17:34:01,472540
1,0,4,-1,-2,-7,0,0,2021-08-06 17:34:01,488539
-6,2,75,-2,10,-1,-4,0,2021-08-06 17:34:01,488539
18,1,-36,5,-2,-5,1,1,2021-08-06 17:34:01,488539
-4,0,0,-8,-7,2,-3,-1,2021-08-06 17:34:01,503541
-1,-9,5,8,-6,0,-2,-4,2021-08-06 17:34:01,519540
3,3,-31,-7,-5,-1,0,-1,2021-08-06 17:34:01,549540
-7,-9,15,-13,-8,-8,-8,-3,2021-08-06 17:34:01,565540
-2,0,9,8,12,0,0,1,2021-08-06 17:34:01,581540
-3,1,67,-3,-5,3,4,-1,2021-08-06 17:34:01,581540
-2,4,-24,7,10,6,2,4,2021-08-06 17:34:01,581540
-5,0,25,9,-7,-6,1,0,2021-08-06 17:34:01,581540
2,-1,-18,-13,-3,-2,-1,1,2021-08-06 17:34:01,581540
-3,-1,13,8,-2,-17,-3,0,2021-08-06 17:34:01,596540
-3,-4,2,-15,-4,22,-1,0,2021-08-06 17:34:01,612540
-4,8,42,2,5,-1,2,0,2021-08-06 17:34:01,612540
-2,-9,-49,-8,-1,-3,-4,-2,2021-08-06 17:34:01,612540
-6,6,43,7,1,-2,-1,0,2021-08-06 17:34:01,627540
-1,3,-9,2,4,-6,0,-1,2021-08-06 17:34:01,642540
-2,-6,-54,-17,-9,-4,-2,-2,2021-08-06 17:34:01,643202
-4,2,28,9,-7,6,2,-1,2021-08-06 17:34:01,658570
2,-5,-36,-3,18,0,-1,-1,2021-08-06 17:34:01,658570
4,4,8,10,-1,-3,-2,0,2021-08-06 17:34:01,658570
-5,-5,-8,-2,-3,0,3,3,2021-08-06 17:34:01,658570
-3,3,15,-7,-5,-5,-1,-2,2021-08-06 17:34:01,658570
-6,-15,-70,-10,-8,2,-3,-1,2021-08-06 17:34:01,658570
-1,0,8,4,5,-5,-3,0,2021-08-06 17:34:01,674570
0,-1,-16,10,-2,0,1,2,2021-08-06 17:34:01,674570
-3,0,-11,-5,-1,-2,1,0,2021-08-06 17:34:01,674570
5,4,19,3,-4,0,-1,-1,2021-08-06 17:34:01,674570
-4,-4,-9,-15,1,1,-1,-4,2021-08-06 17:34:01,674570
2,6,24,24,2,-13,0,-1,2021-08-06 17:34:01,674570
-1,-4,-13,-16,2,20,-2,-2,2021-08-06 17:34:01,674570
-1,1,-22,-2,-1,-7,-1,-1,2021-08-06 17:34:01,674570
1,-1,-45,1,-1,-6,-1,-3,2021-08-06 17:34:01,675570
-2,-4,-7,-6,-12,-1,-4,-3,2021-08-06 17:34:01,690569
0,4,15,13,26,-3,2,1,2021-08-06 17:34:01,690569
5,0,30,1,-9,5,-3,1,2021-08-06 17:34:01,690569
-4,-3,-20,-3,-6,2,0,-2,2021-08-06 17:34:01,706568
1,-7,-1,-4,-1,-3,-2,-2,2021-08-06 17:34:01,706568
-6,2,17,10,-7,-5,-1,-2,2021-08-06 17:34:01,706568
3,-7,-38,-27,-3,1,-4,0,2021-08-06 17:34:01,706568
-8,6,101,18,0,-3,-1,-1,2021-08-06 17:34:01,706568
-4,-4,-82,-15,2,2,-2,-1,2021-08-06 17:34:01,706568
3,-2,-18,-8,-4,-1,-2,-1,2021-08-06 17:34:01,706568
-5,0,-3,9,4,-8,-2,0,2021-08-06 17:34:01,707572
6,1,-25,2,-7,15,1,-1,2021-08-06 17:34:01,707572
2,6,53,-5,-1,-2,1,-1,2021-08-06 17:34:01,707572
-4,-7,-25,2,9,-6,-1,-1,2021-08-06 17:34:01,707572
2,2,-8,-4,-13,-1,0,0,2021-08-06 17:34:01,707572
0,-4,-30,-3,2,-4,1,0,2021-08-06 17:34:01,707572
-4,-5,59,5,-7,2,-5,-4,2021-08-06 17:34:01,707572
3,-4,-20,-5,-1,-1,-1,2,2021-08-06 17:34:01,737569
-2,4,25,5,3,3,4,0,2021-08-06 17:34:01,750569
-3,-1,-39,7,-6,-6,-2,-1,2021-08-06 17:34:01,751569
5,7,22,-13,6,1,-2,0,2021-08-06 17:34:01,751569
0,-9,-61,-11,0,-2,0,-1,2021-08-06 17:34:01,751569
-10,6,-18,8,2,2,1,1,2021-08-06 17:34:01,751569
-5,-14,53,-16,-6,-7,-2,1,2021-08-06 17:34:01,751569
-2,6,-3,-1,-7,-1,2,-1,2021-08-06 17:34:01,751569
-1,5,15,11,15,-1,0,-1,2021-08-06 17:34:01,769571
3,-3,-15,-5,-6,12,1,-3,2021-08-06 17:34:01,769571
4,-1,-26,-4,1,-1,0,0,2021-08-06 17:34:01,785570
-1,4,-13,0,0,-5,-2,-2,2021-08-06 17:34:01,801570
0,-9,-19,1,-16,-4,-1,-1,2021-08-06 17:34:01,801570
1,-1,-25,8,5,-3,-1,-3,2021-08-06 17:34:01,801570
1,7,37,11,1,-4,0,-1,2021-08-06 17:34:01,832571
1,-1,-2,-5,2,11,3,-1,2021-08-06 17:34:01,848570
-2,-3,-5,-11,-8,-7,-2,-1,2021-08-06 17:34:01,848570
17,-1,40,2,1,-2,-2,-1,2021-08-06 17:34:01,880085
0,-4,-40,-2,1,-4,-5,-3,2021-08-06 17:34:01,896086
2,6,29,8,5,2,3,2,2021-08-06 17:34:01,912086
1,3,0,5,-10,3,1,-1,2021-08-06 17:34:01,912086
-3,0,3,-1,5,-3,-5,0,2021-08-06 17:34:01,912086
-6,-8,-31,3,0,4,4,0,2021-08-06 17:34:01,912086
-1,-1,4,-13,-2,-8,-3,-3,2021-08-06 17:34:01,912086
0,-2,25,0,-19,8,-2,-3,2021-08-06 17:34:01,912086
1,1,2,-8,21,1,2,1,2021-08-06 17:34:01,912086
3,8,-6,7,-2,-4,-1,-2,2021-08-06 17:34:01,913085
-3,-2,54,3,-2,0,-1,0,2021-08-06 17:34:01,913085
-1,-1,16,18,-4,-9,-1,1,2021-08-06 17:34:01,913085
-5,-6,-4,-16,-10,1,-2,-2,2021-08-06 17:34:01,913085
-1,-1,6,-18,2,1,1,0,2021-08-06 17:34:01,913085
-2,-2,-20,2,6,-3,-2,-2,2021-08-06 17:34:01,927086
0,8,25,5,-2,0,1,2,2021-08-06 17:34:01,943085
-1,1,56,14,-1,2,1,4,2021-08-06 17:34:01,943085
-2,-4,-68,-9,3,-4,-1,-3,2021-08-06 17:34:01,943085
-16,-5,11,-13,-11,-3,-3,-3,2021-08-06 17:34:01,943085
-1,8,-2,-1,3,-4,-1,0,2021-08-06 17:34:01,943085
-5,-19,-52,-14,-9,-15,-5,-2,2021-08-06 17:34:01,943085
0,6,61,8,1,16,4,2,2021-08-06 17:34:01,943085
0,-4,-37,-8,-7,-8,-3,-3,2021-08-06 17:34:01,943085
-6,1,5,20,24,5,-2,-3,2021-08-06 17:34:01,944085
-4,4,70,-20,-10,-8,3,2,2021-08-06 17:34:01,944085
6,3,-29,1,-5,-3,-6,-1,2021-08-06 17:34:01,944085
2,0,11,10,-2,6,2,0,2021-08-06 17:34:01,944085
0,-1,36,-6,-4,-6,1,0,2021-08-06 17:34:01,974086
2,-3,-14,7,-3,3,2,-2,2021-08-06 17:34:01,990085
-12,-2,38,-1,-1,-7,-5,-4,2021-08-06 17:34:02,006085
1,-2,-88,-4,4,5,-1,1,2021-08-06 17:34:02,006085
-4,-13,-98,-10,-3,-2,-1,-4,2021-08-06 17:34:02,006085
-4,8,55,-12,2,3,0,0,2021-08-06 17:34:02,006085
3,-6,27,-6,-6,-4,1,2,2021-08-06 17:34:02,006085
2,2,28,20,9,0,2,2,2021-08-06 17:34:02,006085
0,1,-26,-7,-3,-14,-2,-1,2021-08-06 17:34:02,006085
0,-9,-53,1,-20,21,-2,-4,2021-08-06 17:34:02,006085
1,3,55,-6,22,-7,0,1,2021-08-06 17:34:02,007086
3,-2,-32,3,-4,-3,-3,-1,2021-08-06 17:34:02,007086
4,-1,16,-22,-9,-4,-2,0,2021-08-06 17:34:02,007086
6,4,-33,5,-5,-2,1,-1,2021-08-06 17:34:02,007086
-7,-5,1,8,-5,-3,-2,-3,2021-08-06 17:34:02,007086
15,7,1,14,12,7,3,-1,2021-08-06 17:34:02,007086
0,-2,41,-12,-3,3,-1,-1,2021-08-06 17:34:02,038084
-1,-2,-23,-1,0,-4,-2,-2,2021-08-06 17:34:02,054084
2,2,-12,-8,-7,0,1,0,2021-08-06 17:34:02,054084
-3,-6,7,11,-2,-4,0,0,2021-08-06 17:34:02,054084
3,5,-5,-22,0,2,-4,1,2021-08-06 17:34:02,070085
-2,-4,-6,12,9,-2,-1,-2,2021-08-06 17:34:02,086085
1,-2,1,10,-2,-1,1,0,2021-08-06 17:34:02,102085
-3,3,12,0,0,-2,2,0,2021-08-06 17:34:02,117084
-3,-7,2,3,-2,-9,1,-1,2021-08-06 17:34:02,117084
-4,8,31,0,9,21,-4,-3,2021-08-06 17:34:02,132086
2,0,15,7,-1,-5,1,3,2021-08-06 17:34:02,132086
-2,-3,15,-2,-1,-7,-2,0,2021-08-06 17:34:02,132086
-2,3,23,9,3,3,-1,-1,2021-08-06 17:34:02,132086
-2,1,17,-23,-7,-13,-2,-2,2021-08-06 17:34:02,132086
6,-6,-13,7,2,4,0,-2,2021-08-06 17:34:02,132086
-4,4,26,-13,-14,4,0,0,2021-08-06 17:34:02,148085
-3,-7,-36,16,11,0,-1,-3,2021-08-06 17:34:02,162085
3,5,33,-4,4,-5,1,1,2021-08-06 17:34:02,162085
0,0,-21,8,-7,3,-1,2,2021-08-06 17:34:02,162085
-4,-2,-40,-13,0,-2,-2,-3,2021-08-06 17:34:02,163084
5,-2,-24,-7,-1,2,0,0,2021-08-06 17:34:02,195084
-3,-6,56,9,1,-4,-1,3,2021-08-06 17:34:02,195084
-5,-3,27,-28,-9,-6,-4,-5,2021-08-06 17:34:02,195084
1,-2,19,19,4,2,-2,1,2021-08-06 17:34:02,211086
-2,3,13,2,-2,1,-5,-3,2021-08-06 17:34:02,211086
2,-2,-2,13,2,-7,3,2,2021-08-06 17:34:02,227084
-2,-1,-63,-11,-1,6,-2,0,2021-08-06 17:34:02,227084
1,-6,8,-9,-1,-6,1,-1,2021-08-06 17:34:02,227084
-1,3,8,0,7,4,1,-1,2021-08-06 17:34:02,242085
16,1,-27,6,2,-7,-4,-2,2021-08-06 17:34:02,242085
1,-2,-10,6,-6,1,3,1,2021-08-06 17:34:02,258085
-4,-2,-24,-1,1,2,-5,-1,2021-08-06 17:34:02,274086
2,-2,-35,-7,-13,-4,2,2,2021-08-06 17:34:02,274086
-5,-3,-20,-11,0,-2,-4,0,2021-08-06 17:34:02,274086
-4,3,17,13,11,4,1,-1,2021-08-06 17:34:02,274086
3,5,42,1,-5,2,0,0,2021-08-06 17:34:02,290086
-2,-7,0,9,-4,0,2,-2,2021-08-06 17:34:02,320085
-4,1,3,-6,3,1,-1,-1,2021-08-06 17:34:02,336085
-2,-3,-4,-18,-4,-2,-2,-5,2021-08-06 17:34:02,336085
-2,-6,-40,-16,7,-1,2,-1,2021-08-06 17:34:02,336085
-5,-7,70,-19,-10,-6,-6,-3,2021-08-06 17:34:02,336085
-8,4,13,20,-1,-4,2,-1,2021-08-06 17:34:02,336085
13,6,22,12,1,8,1,0,2021-08-06 17:34:02,352084
-1,-6,-26,-6,-4,-7,-2,-3,2021-08-06 17:34:02,352084
3,6,-69,8,-3,2,-1,0,2021-08-06 17:34:02,352084
-4,-2,-25,2,11,-4,0,-2,2021-08-06 17:34:02,352084
-1,1,45,10,-6,-3,-2,1,2021-08-06 17:34:02,352084
-3,2,-18,-35,2,4,-1,0,2021-08-06 17:34:02,352084
1,-5,23,4,-9,-3,-3,-1,2021-08-06 17:34:02,352084
1,3,15,-4,-7,1,3,-1,2021-08-06 17:34:02,352084
-1,1,-24,9,4,-3,0,-1,2021-08-06 17:34:02,367085
1,0,-22,10,4,4,0,-1,2021-08-06 17:34:02,367085
0,5,85,5,3,-3,0,1,2021-08-06 17:34:02,367085
-2,-2,-34,-3,-6,2,-3,-3,2021-08-06 17:34:02,367085
-2,-9,3,-10,8,-1,-1,-2,2021-08-06 17:34:02,367085
-6,3,20,3,-10,-4,-1,-2,2021-08-06 17:34:02,367085
17,5,15,17,3,2,2,1,2021-08-06 17:34:02,367085
1,4,41,-12,-5,0,-1,-2,2021-08-06 17:34:02,367085
1,-1,-65,-1,-4,-16,2,0,2021-08-06 17:34:02,367085
-4,-4,8,9,2,16,-1,0,2021-08-06 17:34:02,368085
-2,3,16,15,9,0,5,0,2021-08-06 17:34:02,368085
1,-4,-28,-13,-14,-2,-3,2,2021-08-06 17:34:02,368085
2,4,-4,-7,16,-5,-3,0,2021-08-06 17:34:02,368085
-8,-11,3,-9,-9,-7,-4,-4,2021-08-06 17:34:02,368085
-6,-1,-14,-4,-1,5,-2,-1,2021-08-06 17:34:02,368085
0,0,-18,17,0,2,3,2,2021-08-06 17:34:02,368085
-4,-4,8,-12,-8,4,1,-1,2021-08-06 17:34:02,369085
3,4,21,7,7,-5,0,-2,2021-08-06 17:34:02,369085
-4,-12,-45,-5,1,1,-2,-3,2021-08-06 17:34:02,369085
-1,-4,-85,-10,0,-5,0,1,2021-08-06 17:34:02,369085
-1,7,52,22,-3,2,-3,-2,2021-08-06 17:34:02,369085
3,-7,-14,-11,1,1,1,0,2021-08-06 17:34:02,369085
-6,-4,13,-18,-3,-7,-2,-3,2021-08-06 17:34:02,399087
-3,1,24,8,3,2,1,-3,2021-08-06 17:34:02,399087
13,-3,-10,-4,-4,-10,0,-1,2021-08-06 17:34:02,399087
3,5,-19,4,0,8,-2,0,2021-08-06 17:34:02,399087
1,0,26,5,-6,-5,3,1,2021-08-06 17:34:02,399087
-6,-12,-27,-16,5,0,-3,-2,2021-08-06 17:34:02,400086
-4,5,12,3,-2,0,-1,0,2021-08-06 17:34:02,400086
0,4,27,2,0,-4,1,1,2021-08-06 17:34:02,400086
1,-3,-29,5,5,4,0,-1,2021-08-06 17:34:02,447084
2,-5,-21,0,-10,-1,-1,-1,2021-08-06 17:34:02,447084
-10,-4,37,3,3,-2,0,-2,2021-08-06 17:34:02,447084
-8,-5,-3,-15,-5,-6,-4,-1,2021-08-06 17:34:02,447084
15,8,-5,2,-1,3,-2,-1,2021-08-06 17:34:02,463086
0,2,27,6,2,-2,1,0,2021-08-06 17:34:02,479087
0,3,0,-1,-3,5,0,-1,2021-08-06 17:34:02,495087
-1,-9,-34,-3,5,-8,1,0,2021-08-06 17:34:02,526085
-5,7,62,4,-1,-2,-1,0,2021-08-06 17:34:02,526085
-2,-3,4,-2,-4,-1,0,-1,2021-08-06 17:34:02,526085
0,-7,-64,1,-5,-9,-2,1,2021-08-06 17:34:02,526085
-4,-7,-38,-2,-4,21,-1,-2,2021-08-06 17:34:02,526085
-5,-5,28,9,1,-6,5,-3,2021-08-06 17:34:02,526085
1,5,-87,-12,-10,-3,-3,1,2021-08-06 17:34:02,527086
-7,-1,-22,-23,17,0,-3,-2,2021-08-06 17:34:02,527086
2,8,37,20,-7,-4,-1,1,2021-08-06 17:34:02,527086
-3,-7,-41,-34,0,2,-2,-1,2021-08-06 17:34:02,558086
0,3,60,24,-3,5,1,1,2021-08-06 17:34:02,574086
-3,-4,46,-9,-11,-4,0,-2,2021-08-06 17:34:02,584085
4,-5,-19,2,2,-3,-2,1,2021-08-06 17:34:02,584085
-3,-2,-19,16,4,4,-3,0,2021-08-06 17:34:02,584085
0,4,-9,-5,3,-5,0,2,2021-08-06 17:34:02,584085
-5,-9,-10,-10,-5,3,2,2,2021-08-06 17:34:02,585086
-1,-3,19,12,0,-6,-2,-5,2021-08-06 17:34:02,585086
-6,-2,68,-9,-4,-4,-5,-2,2021-08-06 17:34:02,585086
2,-3,-11,-1,1,0,0,-1,2021-08-06 17:34:02,605084
-2,8,1,15,8,17,-1,-1,2021-08-06 17:34:02,621084
-3,-2,-15,-7,-5,-3,2,1,2021-08-06 17:34:02,637085
0,1,-45,-10,-7,-7,-2,-1,2021-08-06 17:34:02,637085
-1,-4,1,1,1,-3,-4,0,2021-08-06 17:34:02,637085
2,4,44,9,-1,-2,-1,-1,2021-08-06 17:34:02,637085
0,-2,19,6,-15,-2,-1,0,2021-08-06 17:34:02,637085
-3,-7,-67,-2,25,4,1,-2,2021-08-06 17:34:02,652085
-1,0,49,-4,-7,-3,1,-3,2021-08-06 17:34:02,652085
-1,-1,-35,3,-7,1,-2,3,2021-08-06 17:34:02,652085
-4,-1,42,-7,3,-3,-1,-3,2021-08-06 17:34:02,652085
19,9,-3,13,-2,0,1,3,2021-08-06 17:34:02,652085
-9,-12,-57,-19,0,-1,0,-1,2021-08-06 17:34:02,668084
0,2,16,-1,-2,-1,-1,-1,2021-08-06 17:34:02,668084
-2,4,-12,-31,-1,-4,-2,-1,2021-08-06 17:34:02,668084
-5,-2,58,17,-12,-2,-3,-1,2021-08-06 17:34:02,668084
2,2,-19,7,10,-4,0,-2,2021-08-06 17:34:02,668084
-1,-3,-1,2,0,18,1,-1,2021-08-06 17:34:02,668084
0,2,50,13,3,-8,0,-2,2021-08-06 17:34:02,668084
-4,0,22,-2,-2,-3,0,-1,2021-08-06 17:34:02,668084
-1,-1,19,18,-1,1,-4,-2,2021-08-06 17:34:02,669086
-4,-11,-28,-51,-4,-8,0,0,2021-08-06 17:34:02,669086
8,5,24,13,4,2,-2,1,2021-08-06 17:34:02,669086
-8,5,-45,1,-20,-1,-1,-2,2021-08-06 17:34:02,669086
-4,0,74,-3,23,-1,-3,-1,2021-08-06 17:34:02,669086
14,-4,-76,4,-9,0,0,0,2021-08-06 17:34:02,669086
-2,-5,16,2,2,1,1,0,2021-08-06 17:34:02,669086
0,1,-23,-14,-6,-5,0,0,2021-08-06 17:34:02,700084
6,-1,-54,5,-2,1,-2,-1,2021-08-06 17:34:02,700084
-2,-1,36,7,4,-3,0,-2,2021-08-06 17:34:02,700084
0,-3,-65,-11,-3,0,-1,-2,2021-08-06 17:34:02,700084
-6,-7,11,-5,3,-1,0,-1,2021-08-06 17:34:02,700084
-1,3,30,-5,-8,1,-2,-1,2021-08-06 17:34:02,700084
-1,-2,5,-13,0,-6,0,0,2021-08-06 17:34:02,715086
-3,-1,-70,6,3,-2,-5,-3,2021-08-06 17:34:02,731085
1,3,56,-10,0,7,2,2,2021-08-06 17:34:02,731085
-1,-10,-50,-7,-1,-5,0,-3,2021-08-06 17:34:02,731085
0,0,17,15,-3,-2,-3,0,2021-08-06 17:34:02,731085
-2,4,12,6,0,-5,3,2,2021-08-06 17:34:02,731085
-3,-2,-27,-3,0,0,-2,-2,2021-08-06 17:34:02,762086
3,3,45,-9,-3,6,-1,-2,2021-08-06 17:34:02,778085
-6,0,-27,10,-2,-9,-1,-2,2021-08-06 17:34:02,793084
-1,-3,11,2,-18,-2,-1,-2,2021-08-06 17:34:02,793084
-6,-6,-12,8,26,5,1,-1,2021-08-06 17:34:02,793084
1,6,25,-1,-5,3,1,3,2021-08-06 17:34:02,793084
-4,-3,-24,5,-8,-4,-4,-3,2021-08-06 17:34:02,793084
-1,0,16,-10,3,0,-2,-2,2021-08-06 17:34:02,793084
2,-4,-8,-13,-13,-2,-2,-2,2021-08-06 17:34:02,793084
-8,-2,-36,-2,2,-4,1,0,2021-08-06 17:34:02,793084
0,10,30,5,5,2,1,2,2021-08-06 17:34:02,794085
-5,-9,32,7,-3,-13,-1,-4,2021-08-06 17:34:02,794085
-4,-2,-59,-9,2,18,-3,0,2021-08-06 17:34:02,824085
5,1,34,8,3,-2,3,-1,2021-08-06 17:34:02,824085
-5,1,7,-17,-5,-4,-2,0,2021-08-06 17:34:02,824085
2,3,15,6,2,-1,-2,2,2021-08-06 17:34:02,824085
0,-6,-42,2,-3,-8,-3,-2,2021-08-06 17:34:02,824085
-7,-6,38,-6,-7,2,-3,-2,2021-08-06 17:34:02,824085
1,5,60,23,8,7,3,-1,2021-08-06 17:34:02,839085
1,-5,-50,-27,0,3,2,0,2021-08-06 17:34:02,854086
3,8,-21,6,-7,-6,-2,0,2021-08-06 17:34:02,854086
7,-6,15,1,10,3,0,-2,2021-08-06 17:34:02,854086
-5,-5,-27,-1,-7,-5,-1,-3,2021-08-06 17:34:02,854086
3,4,-34,-22,1,-1,-2,2,2021-08-06 17:34:02,870085
-8,-13,-45,9,-6,-2,1,0,2021-08-06 17:34:02,870085
-3,-3,-9,-5,-1,1,-1,0,2021-08-06 17:34:02,885085
-4,1,9,-1,5,-1,-2,-1,2021-08-06 17:34:02,900084
2,2,26,13,2,-2,1,1,2021-08-06 17:34:02,900084
5,0,-20,-3,-2,10,1,-1,2021-08-06 17:34:02,900084
-5,6,37,8,-4,-1,0,-1,2021-08-06 17:34:02,900084
-4,-10,-83,-14,0,-6,-2,-1,2021-08-06 17:34:02,900084
-3,1,-5,5,4,3,0,-1,2021-08-06 17:34:02,900084
-1,2,64,-8,-2,-11,-3,-3,2021-08-06 17:34:02,916086
0,-4,-25,3,-1,3,-1,0,2021-08-06 17:34:02,932086
0,-2,15,1,-7,6,0,-3,2021-08-06 17:34:02,940085
1,0,-15,5,-3,-7,-3,-3,2021-08-06 17:34:02,940085
-3,6,34,8,3,-3,-1,0,2021-08-06 17:34:02,941086
-6,-7,-37,-12,-17,1,-1,-1,2021-08-06 17:34:02,941086
-2,6,18,-1,21,-2,-1,-1,2021-08-06 17:34:02,941086
1,-5,-6,6,-2,5,2,-2,2021-08-06 17:34:02,941086
1,-6,10,-6,-5,0,-1,-2,2021-08-06 17:34:02,963086
-7,7,3,2,-7,-4,-4,0,2021-08-06 17:34:02,978085
-1,-6,-22,4,-6,-7,-2,0,2021-08-06 17:34:02,993084
1,4,26,5,3,7,-1,-2,2021-08-06 17:34:03,009084
-4,-3,42,13,7,6,0,-2,2021-08-06 17:34:03,009084
5,-2,16,-28,0,-9,1,0,2021-08-06 17:34:03,024085
2,-5,-29,-17,-10,-2,-2,-1,2021-08-06 17:34:03,024085
-3,-2,37,12,4,-8,-4,-3,2021-08-06 17:34:03,024085
4,4,17,-1,-7,-5,0,1,2021-08-06 17:34:03,024085
1,-1,-8,10,5,1,-2,-3,2021-08-06 17:34:03,024085
-1,1,60,7,1,1,-1,0,2021-08-06 17:34:03,040087
0,-4,-90,-13,-7,2,4,4,2021-08-06 17:34:03,056084
-5,-2,3,-5,4,-4,-2,-3,2021-08-06 17:34:03,056084
21,1,6,3,1,-1,0,1,2021-08-06 17:34:03,056084
2,1,32,-8,-12,0,-2,-1,2021-08-06 17:34:03,056084
-6,9,45,9,16,1,0,-2,2021-08-06 17:34:03,056084
-3,-16,-18,-17,-8,-2,-2,0,2021-08-06 17:34:03,056084
-4,2,-39,10,6,1,0,0,2021-08-06 17:34:03,056084
0,0,4,6,-7,-1,-4,-1,2021-08-06 17:34:03,072086
1,-4,8,-17,-10,-10,4,3,2021-08-06 17:34:03,072086
-1,9,20,14,8,17,0,-1,2021-08-06 17:34:03,072086
-5,-4,-25,-7,1,-4,-1,-3,2021-08-06 17:34:03,072086
-3,-4,-26,4,-4,-5,0,1,2021-08-06 17:34:03,088084
-2,-3,-9,-15,-4,-4,-2,-2,2021-08-06 17:34:03,088084
1,0,13,3,4,-4,0,-2,2021-08-06 17:34:03,088084
1,4,-58,6,-3,4,0,0,2021-08-06 17:34:03,088084
-5,-4,56,-8,3,3,0,-4,2021-08-06 17:34:03,088084
16,6,53,14,-3,0,-1,0,2021-08-06 17:34:03,088084
0,-13,-83,-11,-6,-6,0,1,2021-08-06 17:34:03,088084
-1,6,39,18,1,2,-2,-1,2021-08-06 17:34:03,104084
0,-5,-33,-25,-8,-2,0,1,2021-08-06 17:34:03,104084
-3,0,19,5,20,5,-2,-3,2021-08-06 17:34:03,104084
3,3,20,8,-10,-3,0,-1,2021-08-06 17:34:03,136085
-4,-6,5,-10,1,-2,2,-1,2021-08-06 17:34:03,152085
0,1,2,12,-4,-3,-1,0,2021-08-06 17:34:03,152085
-11,-6,-18,-1,-3,0,-1,-2,2021-08-06 17:34:03,152085
1,4,-13,-13,3,8,2,1,2021-08-06 17:34:03,152085
-6,-6,9,-5,-1,-2,-5,0,2021-08-06 17:34:03,152085
1,6,48,15,6,-3,1,0,2021-08-06 17:34:03,152085
2,-2,-6,-9,-5,4,-2,1,2021-08-06 17:34:03,152085
-1,2,18,-1,-2,-13,0,-3,2021-08-06 17:34:03,153087
-4,2,-8,-2,-6,-3,-3,0,2021-08-06 17:34:03,153087
4,-4,-30,-3,0,7,-1,0,2021-08-06 17:34:03,153087
-1,4,15,14,10,-3,-1,0,2021-08-06 17:34:03,153087
-2,1,47,8,-7,-3,1,1,2021-08-06 17:34:03,197085
2,1,18,-3,-2,-3,-4,-2,2021-08-06 17:34:03,197085
1,-1,-22,5,2,-3,-1,0,2021-08-06 17:34:03,197085
-3,-2,-30,-11,-8,2,-1,1,2021-08-06 17:34:03,197085
13,-3,9,-3,-15,-2,-1,-2,2021-08-06 17:34:03,197085
-2,-1,-16,21,28,1,1,-3,2021-08-06 17:34:03,197085
-3,-9,-21,-31,-12,-4,-4,-3,2021-08-06 17:34:03,198087
0,2,-18,-1,-1,4,-1,0,2021-08-06 17:34:03,213085
-6,-6,-37,0,2,-12,0,-1,2021-08-06 17:34:03,213085
-3,0,50,1,-11,17,-1,0,2021-08-06 17:34:03,213085
2,2,2,3,0,-7,-2,-1,2021-08-06 17:34:03,213085
0,-7,13,-11,-3,-5,-3,-3,2021-08-06 17:34:03,229086
0,4,20,3,8,3,-3,2,2021-08-06 17:34:03,245087
2,-2,-12,-4,-8,-10,0,-2,2021-08-06 17:34:03,245087
-4,3,3,5,10,2,1,3,2021-08-06 17:34:03,245087
-4,-3,84,10,-8,-1,-2,-2,2021-08-06 17:34:03,245087
-3,-4,-105,-8,3,-4,-2,2,2021-08-06 17:34:03,261086
-1,4,18,0,-8,-2,-3,-3,2021-08-06 17:34:03,277117
-3,-2,6,2,1,6,-1,1,2021-08-06 17:34:03,277117
-2,1,1,2,-15,-4,-2,0,2021-08-06 17:34:03,293118
-13,0,-13,-16,24,3,-1,-3,2021-08-06 17:34:03,309119
2,-4,-12,-9,-10,-3,1,0,2021-08-06 17:34:03,324118
4,-1,3,10,-2,-2,2,-2,2021-08-06 17:34:03,326119
-2,-3,-34,1,-2,2,1,0,2021-08-06 17:34:03,326119
-10,0,15,4,-11,-9,-4,-1,2021-08-06 17:34:03,326119
0,2,-5,-2,5,16,1,-1,2021-08-06 17:34:03,326119
-2,4,44,9,4,2,1,-2,2021-08-06 17:34:03,326119
5,0,-27,-11,6,-1,0,0,2021-08-06 17:34:03,327119
3,-7,-38,3,-16,-3,-6,-4,2021-08-06 17:34:03,340117
-2,-5,-25,-14,4,-13,0,0,2021-08-06 17:34:03,356117
0,0,-9,-1,-8,2,0,0,2021-08-06 17:34:03,372118
6,2,9,10,8,3,1,-1,2021-08-06 17:34:03,387118
0,5,38,12,2,2,0,0,2021-08-06 17:34:03,387118
-3,-1,-6,-16,-4,-1,1,0,2021-08-06 17:34:03,387118
1,-2,10,1,-1,1,0,0,2021-08-06 17:34:03,387118
-5,-11,-97,-8,6,-1,-1,0,2021-08-06 17:34:03,402118
2,0,53,0,-2,0,-1,-3,2021-08-06 17:34:03,402118
1,-1,57,8,-3,-4,0,0,2021-08-06 17:34:03,402118
-3,1,6,-8,1,0,2,1,2021-08-06 17:34:03,402118
-2,2,21,-1,-9,-2,-1,-1,2021-08-06 17:34:03,402118
3,2,9,12,7,-6,-1,0,2021-08-06 17:34:03,402118
-1,2,-38,-8,2,19,-1,-1,2021-08-06 17:34:03,402118
4,-6,31,2,-5,-7,-2,-4,2021-08-06 17:34:03,418118
0,6,5,5,2,-4,2,0,2021-08-06 17:34:03,418118
-1,-14,-73,-23,-3,2,0,-1,2021-08-06 17:34:03,418118
0,3,42,-2,-6,-10,-1,0,2021-08-06 17:34:03,433118
-2,-1,-12,7,4,1,-1,-1,2021-08-06 17:34:03,433118
-3,2,25,11,-4,6,-2,-1,2021-08-06 17:34:03,433118
-1,7,36,-3,2,1,-2,0,2021-08-06 17:34:03,433118
6,-7,-62,1,-5,-6,-2,-1,2021-08-06 17:34:03,433118
2,4,-2,-13,-11,0,0,-1,2021-08-06 17:34:03,449119
-3,-5,0,-1,22,-5,-1,0,2021-08-06 17:34:03,449119
-2,-2,10,-5,-14,3,-1,-1,2021-08-06 17:34:03,465117
1,1,17,6,-1,-3,0,0,2021-08-06 17:34:03,481119
-1,3,13,-2,2,0,-3,-1,2021-08-06 17:34:03,481342
0,-6,-22,3,-9,-7,0,-3,2021-08-06 17:34:03,496628
1,5,60,1,3,15,0,-1,2021-08-06 17:34:03,496628
-5,-3,33,5,-1,-7,-3,0,2021-08-06 17:34:03,496628
-2,0,-33,1,5,-6,0,0,2021-08-06 17:34:03,496628
0,2,13,-6,-3,2,-1,0,2021-08-06 17:34:03,496628
1,2,-29,6,6,-4,-1,-1,2021-08-06 17:34:03,496628
-5,-6,0,-7,-8,-2,-1,-2,2021-08-06 17:34:03,497627
-4,-1,10,6,0,3,-2,0,2021-08-06 17:34:03,497627
-5,-2,-25,-14,-12,-3,-3,-4,2021-08-06 17:34:03,497627
1,1,12,4,6,-1,2,1,2021-08-06 17:34:03,497627
-3,2,21,8,-6,0,0,-1,2021-08-06 17:34:03,497627
-3,-2,12,3,8,-2,1,1,2021-08-06 17:34:03,497627
-2,-11,-3,-15,-10,2,-2,-1,2021-08-06 17:34:03,497627
-3,3,2,-24,11,-3,-1,-3,2021-08-06 17:34:03,512628
-1,1,-10,9,0,0,0,-1,2021-08-06 17:34:03,512628
3,-3,-15,9,-2,-3,-2,1,2021-08-06 17:34:03,512628
3,2,-13,15,-1,-7,1,0,2021-08-06 17:34:03,512628
-9,-10,-48,-24,-11,10,-4,-4,2021-08-06 17:34:03,544628
1,0,71,1,8,-9,0,1,2021-08-06 17:34:03,559627
2,-3,-40,-13,-1,1,-5,0,2021-08-06 17:34:03,559627
-1,8,57,16,2,0,2,1,2021-08-06 17:34:03,559627
-2,-8,-47,1,-3,-3,0,-1,2021-08-06 17:34:03,559627
3,4,-12,-3,6,3,1,-2,2021-08-06 17:34:03,559627
1,-4,21,-2,-4,-4,-3,-2,2021-08-06 17:34:03,559627
-4,1,10,-2,-1,3,0,1,2021-08-06 17:34:03,559627
19,-1,6,-4,1,-2,3,2,2021-08-06 17:34:03,574628
0,-2,-23,6,-1,1,-1,2,2021-08-06 17:34:03,574628
-1,-3,8,-8,-7,-4,0,-2,2021-08-06 17:34:03,590627
-1,0,12,0,8,1,-3,-1,2021-08-06 17:34:03,606626
1,4,29,15,-4,3,-3,1,2021-08-06 17:34:03,606626
0,-4,-37,-25,5,-4,1,-2,2021-08-06 17:34:03,606626
2,1,14,5,5,2,1,1,2021-08-06 17:34:03,621628
0,1,-59,-14,-11,-14,-2,-2,2021-08-06 17:34:03,621628
-4,-5,24,29,0,14,2,-1,2021-08-06 17:34:03,621628
-2,1,-33,-17,-6,-6,0,0,2021-08-06 17:34:03,621628
-7,-4,28,-4,4,0,-2,-6,2021-08-06 17:34:03,621628
4,-2,19,6,6,2,1,1,2021-08-06 17:34:03,621628
0,5,1,4,-6,-4,3,3,2021-08-06 17:34:03,622628
-6,0,-3,5,-2,0,-6,-2,2021-08-06 17:34:03,622628
2,3,-23,1,1,3,2,2,2021-08-06 17:34:03,653629
5,3,11,-2,-3,0,-1,-3,2021-08-06 17:34:03,653629
-4,-4,-14,3,1,-3,2,-1,2021-08-06 17:34:03,653629
-4,-2,-10,-3,1,1,0,-2,2021-08-06 17:34:03,653629
-2,-5,3,-2,-7,-4,2,-2,2021-08-06 17:34:03,653629
-2,-5,10,-9,3,5,-1,1,2021-08-06 17:34:03,653629
-1,4,27,13,4,-5,1,0,2021-08-06 17:34:03,685628
2,0,-10,-10,-20,-4,-2,0,2021-08-06 17:34:03,685628
-4,-3,-50,-3,26,0,0,-2,2021-08-06 17:34:03,685628
-6,-2,-17,2,-9,5,-2,-2,2021-08-06 17:34:03,685628
-9,-7,-13,-8,-6,0,-4,-3,2021-08-06 17:34:03,685628
3,8,51,17,2,-6,1,3,2021-08-06 17:34:03,685628
3,-8,-81,0,-9,1,-4,0,2021-08-06 17:34:03,700627
-5,-5,-56,-9,2,-4,-1,-2,2021-08-06 17:34:03,720628
0,0,38,-5,3,-4,-4,-2,2021-08-06 17:34:03,721629
0,1,13,4,0,3,0,0,2021-08-06 17:34:03,721629
-1,4,53,4,-2,-3,1,-1,2021-08-06 17:34:03,721629
1,0,-9,1,6,3,-2,-1,2021-08-06 17:34:03,721629
2,-3,-2,-3,-11,-5,-3,-1,2021-08-06 17:34:03,731626
2,-3,-11,-5,2,0,0,0,2021-08-06 17:34:03,731626
-4,4,35,5,1,0,-2,-4,2021-08-06 17:34:03,731626
-3,1,4,-3,-5,3,0,-4,2021-08-06 17:34:03,731626
1,0,-1,-4,1,-3,0,0,2021-08-06 17:34:03,747628
0,1,35,16,5,2,3,0,2021-08-06 17:34:03,747628
-3,-3,-89,-26,-5,0,-1,-2,2021-08-06 17:34:03,763626
1,5,94,17,-2,1,-2,-2,2021-08-06 17:34:03,779628
-2,-13,-53,-20,-20,-6,-3,-2,2021-08-06 17:34:03,779628
-6,-5,-11,3,31,-1,0,-3,2021-08-06 17:34:03,779628
3,3,33,5,-12,-12,-1,0,2021-08-06 17:34:03,779628
1,-1,-22,0,-2,14,1,3,2021-08-06 17:34:03,779628
4,5,22,-3,2,-9,3,0,2021-08-06 17:34:03,795629
0,-5,-38,-2,-8,0,-5,-6,2021-08-06 17:34:03,811628
-1,-1,-2,4,0,-3,-2,0,2021-08-06 17:34:03,827627
3,4,2,-8,4,-3,0,-2,2021-08-06 17:34:03,827627
-6,-5,18,0,-1,0,-1,-1,2021-08-06 17:34:03,842626
-2,0,-26,-7,-4,1,1,-1,2021-08-06 17:34:03,857628
-1,4,21,8,5,2,1,-2,2021-08-06 17:34:03,873628
-2,-11,-9,-1,-1,-1,-1,-2,2021-08-06 17:34:03,889626
-1,9,42,8,2,-1,-2,-1,2021-08-06 17:34:03,904626
-2,0,-31,5,0,-1,-2,-2,2021-08-06 17:34:03,920628
1,-6,10,-16,-9,-3,0,1,2021-08-06 17:34:03,920628
-2,-5,18,-7,-17,-5,-3,-2,2021-08-06 17:34:03,936628
0,7,0,5,27,-2,-4,1,2021-08-06 17:34:03,952626
5,-4,28,14,-11,3,2,0,2021-08-06 17:34:03,968628
2,3,-14,-13,-3,3,-2,0,2021-08-06 17:34:03,984627
-2,-2,12,-2,6,-14,-2,-2,2021-08-06 17:34:03,999628
2,3,-1,2,-5,14,1,1,2021-08-06 17:34:04,015630
-2,-5,-5,-7,-1,-7,-1,1,2021-08-06 17:34:04,031627
2,7,27,3,-2,5,-2,0,2021-08-06 17:34:04,046628
-2,-5,13,4,4,-8,-2,-3,2021-08-06 17:34:04,046628
0,2,-30,-4,-5,0,-2,-3,2021-08-06 17:34:04,046628
-4,1,7,1,0,3,0,-1,2021-08-06 17:34:04,046628
10,-3,5,7,-7,-3,-1,-2,2021-08-06 17:34:04,046628
-10,0,-28,-3,4,2,0,-1,2021-08-06 17:34:04,046628
1,6,25,13,5,-1,4,1,2021-08-06 17:34:04,046628
-1,-7,-31,-26,-6,0,-1,-1,2021-08-06 17:34:04,047629
0,6,47,12,3,1,3,1,2021-08-06 17:34:04,047629
1,-3,41,-4,-6,-3,-1,-2,2021-08-06 17:34:04,047629
1,-7,-54,1,2,-13,-1,1,2021-08-06 17:34:04,062628
-1,0,-8,0,4,19,0,0,2021-08-06 17:34:04,062628
-5,0,-22,0,-1,0,0,0,2021-08-06 17:34:04,094664
5,-2,0,3,5,-1,3,3,2021-08-06 17:34:04,094664
0,-1,-3,-2,-13,-3,-2,1,2021-08-06 17:34:04,094664
-2,2,10,-4,-3,-8,-4,-2,2021-08-06 17:34:04,094664
-2,-4,-11,2,5,2,-2,0,2021-08-06 17:34:04,094664
-1,1,-6,2,-5,8,0,0,2021-08-06 17:34:04,094664
-3,-8,-56,-8,1,-6,-5,-2,2021-08-06 17:34:04,095665
3,3,27,26,1,-1,-2,1,2021-08-06 17:34:04,095665
-3,-2,-40,-18,-2,1,-2,-3,2021-08-06 17:34:04,095665
-2,0,28,-14,-1,-5,-2,-2,2021-08-06 17:34:04,095665
1,-2,20,8,4,3,0,-1,2021-08-06 17:34:04,095665
-2,2,19,6,-2,-1,-1,1,2021-08-06 17:34:04,110665
-3,0,14,-12,-1,1,-1,-1,2021-08-06 17:34:04,110665
8,-7,-14,1,-7,-1,-3,-1,2021-08-06 17:34:04,110665
-2,4,-27,-1,-5,2,1,-1,2021-08-06 17:34:04,110665
2,1,5,3,20,-2,1,-1,2021-08-06 17:34:04,125664
-6,-5,-23,-3,-9,-4,-1,-3,2021-08-06 17:34:04,125664
3,7,-8,-4,3,8,1,0,2021-08-06 17:34:04,125664
2,2,71,5,-8,-3,1,1,2021-08-06 17:34:04,125664
-3,-9,-36,-9,-2,-5,-3,0,2021-08-06 17:34:04,127664
3,0,-20,3,5,-4,-1,-1,2021-08-06 17:34:04,127664
-3,-4,42,-1,-4,0,-3,-2,2021-08-06 17:34:04,127664
1,2,17,4,-1,2,1,1,2021-08-06 17:34:04,127664
1,-2,9,-4,-4,-6,-2,-1,2021-08-06 17:34:04,128664
-7,-4,-13,-1,5,1,-2,-2,2021-08-06 17:34:04,128664
1,2,3,6,0,4,1,-1,2021-08-06 17:34:04,128664
0,2,16,-2,-4,-1,1,-3,2021-08-06 17:34:04,128664
-2,-7,-43,-12,-2,-2,-2,-1,2021-08-06 17:34:04,128664
0,4,33,7,-5,2,0,0,2021-08-06 17:34:04,128664
-3,4,-46,10,2,-2,4,2,2021-08-06 17:34:04,128664
-1,-9,-32,-8,-1,-3,-8,-1,2021-08-06 17:34:04,128664
-1,1,19,13,-5,-3,2,-3,2021-08-06 17:34:04,128664
-1,-7,-5,-28,-2,14,0,1,2021-08-06 17:34:04,128664
0,1,0,-2,-7,-3,-1,0,2021-08-06 17:34:04,129664
-7,2,10,6,23,-2,1,-3,2021-08-06 17:34:04,140664
-3,-9,-20,-6,-12,3,4,2,2021-08-06 17:34:04,156663
19,3,10,3,0,-8,0,-1,2021-08-06 17:34:04,171666
-2,-1,18,-1,-9,-3,-2,0,2021-08-06 17:34:04,171666
-1,-2,-26,-8,-3,5,0,-2,2021-08-06 17:34:04,171666
-1,1,33,-4,2,-3,0,-2,2021-08-06 17:34:04,171666
-2,2,1,12,-6,-2,0,0,2021-08-06 17:34:04,171666
3,-2,-48,-5,14,7,-2,1,2021-08-06 17:34:04,171666
1,3,66,10,-7,-2,-1,-1,2021-08-06 17:34:04,171666
-1,2,-58,-14,-4,-1,-1,2,2021-08-06 17:34:04,171666
-7,-12,5,2,-5,-7,0,-2,2021-08-06 17:34:04,172665
-3,2,-9,6,1,-1,1,-1,2021-08-06 17:34:04,172665
0,0,7,-8,2,1,-1,0,2021-08-06 17:34:04,172665
0,4,2,2,-1,2,0,-2,2021-08-06 17:34:04,187665
-5,-2,0,-10,-5,-6,-4,-5,2021-08-06 17:34:04,187665
-1,-5,-43,7,-2,-6,-2,-1,2021-08-06 17:34:04,187665
2,3,-9,-2,2,6,0,2,2021-08-06 17:34:04,187665
3,-1,11,1,4,-4,-2,0,2021-08-06 17:34:04,202665
-4,5,18,9,3,3,1,0,2021-08-06 17:34:04,202665
-2,-8,-48,-25,-7,-9,-2,-3,2021-08-06 17:34:04,217663
-2,3,19,14,-1,3,2,-1,2021-08-06 17:34:04,233664
2,-3,-21,-2,-2,3,-1,-2,2021-08-06 17:34:04,233664
-2,-3,20,5,0,-6,-2,1,2021-08-06 17:34:04,249664
0,1,1,2,-1,2,0,1,2021-08-06 17:34:04,249664
2,0,-20,-8,-5,-2,-2,0,2021-08-06 17:34:04,249664
0,-1,8,9,0,0,3,1,2021-08-06 17:34:04,249664
-2,-1,-5,-6,5,1,-1,-1,2021-08-06 17:34:04,249664
1,2,0,-8,-6,-2,-1,-1,2021-08-06 17:34:04,249664
-2,-5,-3,3,-2,0,-2,-1,2021-08-06 17:34:04,249664
10,4,3,6,2,-2,-5,-3,2021-08-06 17:34:04,249664
-3,-6,5,-10,-7,-1,-1,2,2021-08-06 17:34:04,264665
0,3,48,5,6,3,-1,-1,2021-08-06 17:34:04,280663
-4,-10,-72,-4,3,-3,2,0,2021-08-06 17:34:04,280889
-8,1,49,-3,-11,-4,-2,-3,2021-08-06 17:34:04,280889
3,4,-33,11,2,1,2,1,2021-08-06 17:34:04,280889
-2,-2,15,0,2,-2,-3,-3,2021-08-06 17:34:04,280889
1,-1,29,-5,-3,-2,-1,-1,2021-08-06 17:34:04,296175
-1,-1,30,4,-1,1,0,-1,2021-08-06 17:34:04,296175
2,-2,-44,-13,0,-11,-1,0,2021-08-06 17:34:04,296175
-2,-6,16,6,-4,14,-2,0,2021-08-06 17:34:04,296175
-2,0,1,-9,-2,-9,-1,-4,2021-08-06 17:34:04,312176
0,2,2,0,2,2,0,-2,2021-08-06 17:34:04,312176
1,4,19,11,16,2,4,-1,2021-08-06 17:34:04,312176
0,-2,-2,1,-5,-6,0,-2,2021-08-06 17:34:04,312176
-1,1,8,-3,-8,-2,-1,0,2021-08-06 17:34:04,344174
-2,-5,-34,-9,-4,-3,-1,-1,2021-08-06 17:34:04,344174
-4,2,23,12,5,5,1,0,2021-08-06 17:34:04,344174
2,-1,-28,-8,2,-5,-2,0,2021-08-06 17:34:04,344174
-3,-6,-22,-8,-7,0,-2,-2,2021-08-06 17:34:04,360175
-3,3,21,1,1,-6,-2,0,2021-08-06 17:34:04,360175
0,0,-31,5,-4,4,0,1,2021-08-06 17:34:04,360175
0,2,41,5,1,-2,0,-2,2021-08-06 17:34:04,360175
-2,0,14,4,2,2,2,0,2021-08-06 17:34:04,376174
2,-3,-32,-10,-6,3,0,-1,2021-08-06 17:34:04,391175
2,3,-4,3,8,-17,0,-1,2021-08-06 17:34:04,407176
-2,3,17,3,-9,13,-2,1,2021-08-06 17:34:04,407176
2,1,-45,2,3,-4,2,-1,2021-08-06 17:34:04,407176
-3,-3,-8,-1,3,2,0,-1,2021-08-06 17:34:04,407176
-1,2,-4,2,-5,0,-2,-2,2021-08-06 17:34:04,423176
3,-9,0,-12,-6,-6,-2,-2,2021-08-06 17:34:04,439176
-8,-8,-10,8,14,2,-7,-2,2021-08-06 17:34:04,455174
-3,3,54,-5,-7,-1,-1,-1,2021-08-06 17:34:04,471175
0,-2,-24,-4,1,3,-1,0,2021-08-06 17:34:04,487175
1,11,13,3,1,-2,0,1,2021-08-06 17:34:04,487175
-1,-2,26,3,-7,3,-2,-2,2021-08-06 17:34:04,487175
-1,-4,-41,-10,4,-2,-3,-1,2021-08-06 17:34:04,487175
-4,0,57,-3,-6,3,-3,-3,2021-08-06 17:34:04,487175
-1,3,46,9,4,-3,-1,1,2021-08-06 17:34:04,488175
-1,-6,-37,-10,-13,-3,0,1,2021-08-06 17:34:04,488175
-1,4,15,8,10,0,1,0,2021-08-06 17:34:04,488175
0,-3,-8,4,-6,1,0,1,2021-08-06 17:34:04,503175
1,5,35,-1,1,4,0,0,2021-08-06 17:34:04,503175
-2,-5,-37,-17,-4,-3,-2,-2,2021-08-06 17:34:04,519174
2,2,13,0,-2,-4,4,1,2021-08-06 17:34:04,535174
-2,-8,21,-4,-3,-1,-3,0,2021-08-06 17:34:04,535174
-1,0,-12,6,5,-7,-3,0,2021-08-06 17:34:04,549175
3,7,44,7,-17,2,4,1,2021-08-06 17:34:04,550176
-1,-6,-7,-1,24,4,-1,-1,2021-08-06 17:34:04,550176
-1,3,22,-2,-6,-2,-3,-1,2021-08-06 17:34:04,550176
-3,0,-43,4,-3,0,2,-2,2021-08-06 17:34:04,550176
2,0,28,-9,-1,-2,-1,-1,2021-08-06 17:34:04,550176
-1,-8,-33,-4,-13,-5,-4,-3,2021-08-06 17:34:04,551176
-2,-2,-43,-4,1,0,2,1,2021-08-06 17:34:04,551176
2,-6,-24,-4,-4,-1,1,0,2021-08-06 17:34:04,551176
7,12,18,9,14,6,2,2,2021-08-06 17:34:04,551176
-1,-7,0,-6,-6,-11,-1,0,2021-08-06 17:34:04,551176
-2,6,45,8,0,18,1,1,2021-08-06 17:34:04,551176
-4,-7,-40,-3,-3,-3,-4,-3,2021-08-06 17:34:04,551176
1,1,43,-3,4,-5,0,0,2021-08-06 17:34:04,551176
-2,-2,56,7,-3,3,-1,0,2021-08-06 17:34:04,551176
-2,-6,-10,-11,-4,-5,0,-2,2021-08-06 17:34:04,566176
0,5,27,3,4,0,3,0,2021-08-06 17:34:04,582176
1,-5,-17,-1,-2,-1,-2,-1,2021-08-06 17:34:04,582176
1,6,17,5,-8,-1,-4,1,2021-08-06 17:34:04,597174
-2,-4,-21,-9,6,0,-4,-3,2021-08-06 17:34:04,612176
-1,1,14,0,1,0,-1,0,2021-08-06 17:34:04,612176
-2,1,0,5,-2,-2,0,-3,2021-08-06 17:34:04,612176
-1,-2,0,-2,-4,-1,-1,-2,2021-08-06 17:34:04,612176
2,-2,-21,0,-9,1,1,0,2021-08-06 17:34:04,612176
-1,-3,14,-3,10,-1,0,0,2021-08-06 17:34:04,628176
2,3,9,3,1,0,-2,0,2021-08-06 17:34:04,644174
1,6,6,4,-6,3,1,-1,2021-08-06 17:34:04,644174
1,4,9,-1,0,-3,-1,-1,2021-08-06 17:34:04,644174
-3,-4,-10,-2,-1,-3,-3,-3,2021-08-06 17:34:04,644174
5,-3,21,-2,-2,-1,0,-1,2021-08-06 17:34:04,644174
-4,-2,-31,-8,0,1,0,-2,2021-08-06 17:34:04,644174
2,-2,-9,4,2,-3,-4,-1,2021-08-06 17:34:04,645176
1,-1,-6,-1,-2,0,0,0,2021-08-06 17:34:04,645176
0,-1,-19,2,-1,-1,2,2,2021-08-06 17:34:04,660175
0,2,6,-3,-2,-5,-4,0,2021-08-06 17:34:04,660175
-1,-5,7,-5,-3,5,-2,-3,2021-08-06 17:34:04,676175
-3,-7,-22,-3,-6,-2,-2,1,2021-08-06 17:34:04,676175
-6,-2,-31,-6,10,-1,0,-2,2021-08-06 17:34:04,676175
0,2,-2,2,-1,1,0,0,2021-08-06 17:34:04,676175
-1,3,7,8,0,-8,1,-2,2021-08-06 17:34:04,676175
1,0,-24,-6,-4,1,0,-3,2021-08-06 17:34:04,676175
-4,-9,11,-2,-9,-3,-4,-1,2021-08-06 17:34:04,707174
-1,-1,8,-10,-1,-1,0,-2,2021-08-06 17:34:04,723173
1,-11,-28,0,-1,-1,1,1,2021-08-06 17:34:04,739173
-1,4,35,15,16,2,0,1,2021-08-06 17:34:04,739173
-2,1,9,-4,-5,0,-1,-2,2021-08-06 17:34:04,739173
2,3,-28,1,-2,-1,2,1,2021-08-06 17:34:04,739173
-3,1,60,-2,-7,-2,-2,-1,2021-08-06 17:34:04,739173
-3,-5,-55,-4,-1,-2,0,-2,2021-08-06 17:34:04,755173
-4,-7,5,-5,-1,-4,-2,-1,2021-08-06 17:34:04,755173
0,-4,37,8,-2,3,-1,1,2021-08-06 17:34:04,755173
-1,-1,-10,-2,3,0,1,-2,2021-08-06 17:34:04,755173
4,3,16,0,-3,-4,-1,-1,2021-08-06 17:34:04,755173
-6,7,-20,6,7,12,-1,-1,2021-08-06 17:34:04,755173
0,-3,8,-16,-11,-4,-3,-4,2021-08-06 17:34:04,755173
-1,-2,-15,4,8,-7,0,0,2021-08-06 17:34:04,756175
-4,-3,14,-4,4,2,0,0,2021-08-06 17:34:04,756175
1,-2,-1,7,-5,-3,1,-1,2021-08-06 17:34:04,787174
-2,-3,-29,2,8,2,6,1,2021-08-06 17:34:04,787174
1,2,5,-4,-7,3,-3,-1,2021-08-06 17:34:04,787174
0,-2,-26,-5,-10,-4,-5,-3,2021-08-06 17:34:04,787174
2,1,2,-1,3,-5,-8,1,2021-08-06 17:34:04,802175
-3,0,14,-5,-12,-2,-1,-2,2021-08-06 17:34:04,818175
-1,-3,26,-5,20,0,1,-1,2021-08-06 17:34:04,818175
2,-5,-16,7,-9,-2,0,0,2021-08-06 17:34:04,818175
-1,0,-18,0,-4,-1,-2,-2,2021-08-06 17:34:04,818175
-2,1,22,8,3,1,-3,0,2021-08-06 17:34:04,818175
-1,0,-13,0,-9,1,1,1,2021-08-06 17:34:04,818175
-1,-1,2,-8,5,2,-1,-3,2021-08-06 17:34:04,818175
0,-1,-32,0,0,-14,2,0,2021-08-06 17:34:04,850214
2,3,1,9,4,17,-1,1,2021-08-06 17:34:04,866212
-3,0,-18,-11,-3,-6,3,-2,2021-08-06 17:34:04,882176
-2,-2,14,4,3,-1,-20,1,2021-08-06 17:34:04,882176
2,3,37,0,-8,-2,11,-2,2021-08-06 17:34:04,882176
0,3,-74,-10,4,-5,-4,-1,2021-08-06 17:34:04,882176
-1,-5,-34,3,-2,1,4,0,2021-08-06 17:34:04,882176
-3,1,2,-5,0,-1,9,0,2021-08-06 17:34:04,882176
-5,-1,25,0,-1,1,-13,-2,2021-08-06 17:34:04,882176
3,-1,21,0,-1,-1,7,-2,2021-08-06 17:34:04,882176
-2,2,41,2,-16,-3,-19,1,2021-08-06 17:34:04,882176
4,3,-36,-11,20,-8,3,-3,2021-08-06 17:34:04,883210
-2,-5,15,4,-2,9,3,-3,2021-08-06 17:34:04,898174
0,3,32,7,-6,1,2,0,2021-08-06 17:34:04,914177
-1,-2,-8,0,2,-4,-3,-1,2021-08-06 17:34:04,921213
-4,1,0,5,-12,-3,9,-1,2021-08-06 17:34:04,921213
4,4,37,-11,3,-1,-7,0,2021-08-06 17:34:04,921213
-3,-6,-44,-6,4,-8,-5,-1,2021-08-06 17:34:04,921213
