EMG 1,EMG 2,EMG 3,EMG 4,EMG 5,EMG 6,EMG 7,EMG 8,Timestamp,Milliseconds
-2,-2,-1,-3,2,1,-4,-4,2021-08-07 10:49:19,512032
-2,-2,-1,2,-2,-4,-4,-3,2021-08-07 10:49:19,512032
-4,-4,-7,-7,0,1,1,-2,2021-08-07 10:49:19,512032
4,4,3,9,8,8,7,4,2021-08-07 10:49:19,512032
0,1,1,2,0,-4,-5,-3,2021-08-07 10:49:19,512032
-6,-7,-6,-14,-24,-18,-11,-7,2021-08-07 10:49:19,512032
3,3,3,12,21,10,5,3,2021-08-07 10:49:19,512032
1,0,1,0,6,-1,1,0,2021-08-07 10:49:19,512032
3,1,-1,-3,-1,2,6,3,2021-08-07 10:49:19,528031
-1,-1,-1,-1,-2,-1,0,-2,2021-08-07 10:49:19,528031
-3,-3,1,2,-12,-8,-5,-2,2021-08-07 10:49:19,528031
-2,-2,-2,-1,0,1,-1,-1,2021-08-07 10:49:19,528031
2,0,2,2,1,1,1,1,2021-08-07 10:49:19,559030
-2,0,0,-2,-1,-2,-4,-1,2021-08-07 10:49:19,559030
0,-3,-2,-10,-9,-4,-2,-2,2021-08-07 10:49:19,559030
-2,0,1,2,4,0,-4,-2,2021-08-07 10:49:19,559030
-1,-1,-2,-3,-8,-3,-2,-2,2021-08-07 10:49:19,559030
0,-1,1,3,14,8,2,3,2021-08-07 10:49:19,559030
1,3,1,4,12,8,2,1,2021-08-07 10:49:19,590032
1,1,3,12,2,2,-2,-1,2021-08-07 10:49:19,606032
-5,-4,-5,-4,-8,-5,-4,-5,2021-08-07 10:49:19,606032
2,3,-2,-2,-4,2,7,4,2021-08-07 10:49:19,606032
0,-3,-2,-5,-3,-3,-2,-1,2021-08-07 10:49:19,606032
-1,2,-1,-10,-11,-7,-6,-2,2021-08-07 10:49:19,606032
-1,0,2,9,5,-1,1,1,2021-08-07 10:49:19,606032
-2,-2,-3,4,3,2,-1,-2,2021-08-07 10:49:19,606032
-1,-2,0,-4,1,1,2,-1,2021-08-07 10:49:19,653032
-2,-2,-2,-5,-4,-3,-6,-3,2021-08-07 10:49:19,653032
-2,-1,-1,-2,1,-4,-4,-3,2021-08-07 10:49:19,653032
-2,-1,-3,0,-2,-4,-2,-3,2021-08-07 10:49:19,653032
2,-1,-2,-2,1,-2,1,3,2021-08-07 10:49:19,653032
0,0,0,2,3,4,6,3,2021-08-07 10:49:19,653032
1,-1,-2,-2,-5,0,2,1,2021-08-07 10:49:19,653032
-1,-2,-5,-14,-17,-7,-5,-1,2021-08-07 10:49:19,654034
-1,-1,-1,4,15,7,1,-1,2021-08-07 10:49:19,669032
1,1,2,3,8,4,0,1,2021-08-07 10:49:19,669032
1,3,2,2,0,-1,1,0,2021-08-07 10:49:19,669032
-3,-3,-2,1,-3,-2,-2,-2,2021-08-07 10:49:19,669032
-7,-5,-11,-21,-26,-14,-9,-5,2021-08-07 10:49:19,680032
3,4,4,3,4,1,2,4,2021-08-07 10:49:19,680032
2,0,3,8,11,7,1,1,2021-08-07 10:49:19,680032
1,2,5,10,18,9,2,0,2021-08-07 10:49:19,680032
-3,-4,-2,-2,-5,-4,-3,-6,2021-08-07 10:49:19,700031
-2,-1,-3,-6,-1,2,1,0,2021-08-07 10:49:19,716030
-2,-1,-2,-5,-12,-3,-1,-2,2021-08-07 10:49:19,716030
-2,-2,0,3,5,-1,-3,-1,2021-08-07 10:49:19,716030
0,-1,0,1,-4,-2,-4,-2,2021-08-07 10:49:19,716030
-3,-2,-4,-9,-9,-7,-6,-4,2021-08-07 10:49:19,716030
-1,-2,-1,-1,-1,0,2,1,2021-08-07 10:49:19,731034
-3,-2,-4,-2,-4,-1,1,-2,2021-08-07 10:49:19,731034
1,2,0,-7,-8,-1,1,1,2021-08-07 10:49:19,731034
2,2,3,8,6,-1,2,2,2021-08-07 10:49:19,731034
0,0,1,2,5,2,0,-1,2021-08-07 10:49:19,762031
-1,0,-1,6,7,1,1,-2,2021-08-07 10:49:19,778032
-2,-2,-1,1,-7,-5,-2,-2,2021-08-07 10:49:19,794032
-1,0,-3,2,9,4,2,-1,2021-08-07 10:49:19,794032
-2,1,-1,1,-1,-2,0,-1,2021-08-07 10:49:19,794032
-1,1,1,-6,-5,-2,-1,1,2021-08-07 10:49:19,794032
2,2,3,1,5,1,0,1,2021-08-07 10:49:19,794032
0,-3,-3,-1,-6,-4,-4,-4,2021-08-07 10:49:19,794032
-1,-1,-3,-3,-1,0,-2,0,2021-08-07 10:49:19,794032
0,-3,-3,-5,-8,-2,0,-1,2021-08-07 10:49:19,794032
1,1,-2,5,7,5,3,2,2021-08-07 10:49:19,794032
-2,-3,-1,0,-2,0,0,-1,2021-08-07 10:49:19,794032
-1,0,3,6,6,2,0,-3,2021-08-07 10:49:19,840032
-4,-3,1,1,-4,-3,-5,-4,2021-08-07 10:49:19,840032
-3,2,2,8,6,0,-1,-3,2021-08-07 10:49:19,840032
0,0,0,-4,-5,-2,-4,-2,2021-08-07 10:49:19,840032
3,1,1,-5,-7,-1,-2,1,2021-08-07 10:49:19,840032
0,-2,-3,-5,-4,-3,0,0,2021-08-07 10:49:19,840032
2,0,2,5,3,0,1,2,2021-08-07 10:49:19,840032
0,-2,-3,-4,-5,-1,0,-1,2021-08-07 10:49:19,840032
0,0,1,-1,4,-1,0,0,2021-08-07 10:49:19,856031
0,-1,-1,-2,0,0,-1,-2,2021-08-07 10:49:19,872030
-1,-2,1,3,3,1,0,-2,2021-08-07 10:49:19,888032
-1,-3,-5,-9,-13,-7,-2,-2,2021-08-07 10:49:19,888032
-1,-4,-1,1,3,1,-2,0,2021-08-07 10:49:19,888032
-3,-4,-4,-12,-12,-6,-3,-2,2021-08-07 10:49:19,888032
0,-2,-1,0,3,1,0,-1,2021-08-07 10:49:19,888032
-1,0,-1,2,2,-1,0,1,2021-08-07 10:49:19,888032
0,-2,-1,7,4,-1,1,-2,2021-08-07 10:49:19,904032
0,1,1,1,0,1,0,1,2021-08-07 10:49:19,904032
-2,-4,-4,-7,-7,-4,0,-2,2021-08-07 10:49:19,904032
-2,-3,-3,-9,-11,-5,-4,-3,2021-08-07 10:49:19,904032
-1,-1,-3,-1,4,1,0,0,2021-08-07 10:49:19,904032
2,-1,-1,4,4,2,0,0,2021-08-07 10:49:19,904032
0,0,1,0,0,-1,-1,-2,2021-08-07 10:49:19,920031
-1,-1,0,8,6,1,-1,-1,2021-08-07 10:49:19,920031
-5,-4,-5,-15,-21,-12,-6,-5,2021-08-07 10:49:19,952033
0,0,-2,-5,4,1,1,2,2021-08-07 10:49:19,952033
-1,-1,-2,4,8,4,1,0,2021-08-07 10:49:19,952033
1,3,4,7,4,3,1,1,2021-08-07 10:49:19,952033
0,2,1,1,2,4,3,2,2021-08-07 10:49:19,968032
1,1,-1,-5,-6,-3,-1,0,2021-08-07 10:49:19,968032
-4,-4,-6,-9,-12,-8,-6,-2,2021-08-07 10:49:19,984032
-1,-2,-2,0,2,0,-1,0,2021-08-07 10:49:19,984032
-3,-5,-5,-3,-2,-1,-3,-2,2021-08-07 10:49:19,984032
1,2,3,2,-6,-1,-1,1,2021-08-07 10:49:19,984032
1,1,1,9,16,7,2,1,2021-08-07 10:49:19,984032
0,1,2,2,1,1,-1,0,2021-08-07 10:49:19,984032
-2,-5,-5,-2,1,-2,-3,-2,2021-08-07 10:49:20,000031
-1,-3,-1,2,-1,-2,-2,-2,2021-08-07 10:49:20,016030
-1,0,-5,-12,-21,-8,-3,-1,2021-08-07 10:49:20,063030
2,0,-1,-11,3,2,2,1,2021-08-07 10:49:20,063030
2,2,4,15,13,5,2,0,2021-08-07 10:49:20,063030
-3,-3,-3,1,3,0,-1,0,2021-08-07 10:49:20,063030
-1,-2,-2,-5,-3,-2,-2,-2,2021-08-07 10:49:20,063030
-3,-1,-3,-8,-14,-7,-1,-2,2021-08-07 10:49:20,063030
-2,-1,-3,-4,-7,-3,-2,-3,2021-08-07 10:49:20,063030
-2,-2,2,0,3,0,-3,-3,2021-08-07 10:49:20,063030
-2,-2,-3,-4,-5,-4,-3,0,2021-08-07 10:49:20,063030
-2,-3,-1,0,4,1,0,0,2021-08-07 10:49:20,063030
3,4,4,2,3,2,0,1,2021-08-07 10:49:20,063030
-2,-5,-8,-10,-11,-7,-2,-4,2021-08-07 10:49:20,064035
2,3,5,6,12,8,3,3,2021-08-07 10:49:20,064035
-3,-3,0,4,-2,-2,-1,-3,2021-08-07 10:49:20,064035
-1,0,0,3,6,2,1,0,2021-08-07 10:49:20,079030
0,3,3,2,0,0,1,-1,2021-08-07 10:49:20,079030
0,-2,-1,-3,-4,-2,-1,-2,2021-08-07 10:49:20,079030
-2,0,0,1,-1,-2,-1,-1,2021-08-07 10:49:20,079030
-2,-2,-3,-6,-8,-6,-3,-1,2021-08-07 10:49:20,095031
-1,-1,-3,-8,-6,-2,-2,-1,2021-08-07 10:49:20,095031
1,1,2,7,15,4,2,1,2021-08-07 10:49:20,095031
0,2,-2,-8,-9,-5,-2,-1,2021-08-07 10:49:20,095031
-4,-4,-5,-13,-6,-2,-1,-4,2021-08-07 10:49:20,126034
1,2,5,15,7,4,0,2,2021-08-07 10:49:20,141032
-1,0,0,3,7,1,0,-2,2021-08-07 10:49:20,157031
0,-1,-3,-2,-3,-4,-3,0,2021-08-07 10:49:20,173032
0,1,2,1,-2,0,-1,0,2021-08-07 10:49:20,173032
2,0,3,5,4,1,0,0,2021-08-07 10:49:20,189030
-4,-3,-4,-11,-12,-7,-3,-4,2021-08-07 10:49:20,189030
1,-1,0,5,1,0,-1,-2,2021-08-07 10:49:20,189030
0,1,0,-3,-3,-2,1,0,2021-08-07 10:49:20,189030
0,-3,-3,-6,-5,-3,0,-2,2021-08-07 10:49:20,189030
-1,-1,3,19,23,10,3,2,2021-08-07 10:49:20,189030
-4,-3,-5,-10,-13,-8,-4,-2,2021-08-07 10:49:20,189030
0,-1,2,5,7,3,0,2,2021-08-07 10:49:20,189030
0,3,1,-1,-2,2,0,1,2021-08-07 10:49:20,189030
-2,-3,-4,-10,-13,-7,-4,-3,2021-08-07 10:49:20,189030
1,-1,2,7,7,3,1,1,2021-08-07 10:49:20,190034
0,-2,-3,-1,-2,-1,-1,-2,2021-08-07 10:49:20,190034
-5,-2,-5,-6,-4,-3,-3,-1,2021-08-07 10:49:20,190034
-1,0,0,-5,-10,-5,-3,0,2021-08-07 10:49:20,221032
-1,-2,-1,-1,-1,0,-2,-2,2021-08-07 10:49:20,221032
-1,-1,0,-1,1,2,-1,-1,2021-08-07 10:49:20,221032
0,-1,0,2,5,2,-2,-1,2021-08-07 10:49:20,221032
1,2,1,-2,-3,-2,0,1,2021-08-07 10:49:20,221032
-1,0,0,4,4,1,1,1,2021-08-07 10:49:20,221032
0,1,1,1,1,0,-1,-1,2021-08-07 10:49:20,237032
-3,-6,-10,-24,-20,-10,-4,-5,2021-08-07 10:49:20,237032
4,5,13,30,24,12,6,3,2021-08-07 10:49:20,237032
-2,-3,-4,-5,-6,-3,-2,-2,2021-08-07 10:49:20,237032
-1,-2,-1,-2,-3,-2,0,0,2021-08-07 10:49:20,268032
-2,-2,-2,-6,-6,-2,-1,-2,2021-08-07 10:49:20,268032
-1,-2,-8,-21,-14,-5,-1,0,2021-08-07 10:49:20,268032
3,2,6,5,4,4,0,1,2021-08-07 10:49:20,268032
-1,0,2,12,17,5,-3,-3,2021-08-07 10:49:20,268032
-2,-2,-1,5,1,-2,-2,-3,2021-08-07 10:49:20,268032
0,-1,-5,-9,-7,1,4,2,2021-08-07 10:49:20,283033
-1,-1,-3,-1,-2,3,3,2,2021-08-07 10:49:20,283033
-1,-1,-2,-7,-10,-9,-10,-5,2021-08-07 10:49:20,299033
-3,-2,-2,-3,-1,-9,-9,-5,2021-08-07 10:49:20,299033
1,2,4,18,20,7,0,0,2021-08-07 10:49:20,299033
-1,-1,-3,-8,-4,1,1,1,2021-08-07 10:49:20,299033
-1,-2,-3,-1,-9,-4,2,1,2021-08-07 10:49:20,330032
-1,-2,-2,0,0,2,1,-2,2021-08-07 10:49:20,346035
1,-1,2,3,-7,0,4,0,2021-08-07 10:49:20,346035
2,3,-1,-1,6,5,2,1,2021-08-07 10:49:20,346035
2,2,4,12,12,4,-1,-1,2021-08-07 10:49:20,346035
-2,-2,-2,-4,-5,-6,-3,-3,2021-08-07 10:49:20,346035
-5,-4,-6,-8,-6,-6,-4,-4,2021-08-07 10:49:20,346035
1,1,3,8,8,5,1,1,2021-08-07 10:49:20,346035
-1,-1,-3,-9,-12,-4,-2,-2,2021-08-07 10:49:20,362032
-1,0,2,6,7,3,1,1,2021-08-07 10:49:20,362032
-5,-5,-7,-15,-21,-11,-6,-5,2021-08-07 10:49:20,362032
-1,1,3,4,5,1,0,0,2021-08-07 10:49:20,362032
-2,-3,-5,-7,-3,1,2,1,2021-08-07 10:49:20,378032
5,4,3,8,11,7,5,3,2021-08-07 10:49:20,378032
-4,-5,-4,-5,-10,-6,-7,-6,2021-08-07 10:49:20,378032
-3,-3,-4,-12,-9,-7,-4,-5,2021-08-07 10:49:20,378032
0,1,0,3,14,6,3,2,2021-08-07 10:49:20,394032
-2,0,1,5,4,2,-1,-1,2021-08-07 10:49:20,394032
-3,-2,2,3,2,-5,-6,-2,2021-08-07 10:49:20,409032
0,-1,-2,-4,-6,-7,-2,-2,2021-08-07 10:49:20,409032
0,-2,-3,-15,-18,-3,5,2,2021-08-07 10:49:20,409032
1,-1,-1,1,4,4,3,1,2021-08-07 10:49:20,409032
1,2,-2,-1,4,0,-2,-2,2021-08-07 10:49:20,441032
-5,-3,0,-2,-2,-5,-7,-4,2021-08-07 10:49:20,441032
-5,-3,-5,-11,-16,-7,-4,-1,2021-08-07 10:49:20,441032
4,1,2,2,1,2,4,2,2021-08-07 10:49:20,441032
3,2,1,4,8,5,3,1,2021-08-07 10:49:20,441032
-1,-1,2,10,4,-1,1,1,2021-08-07 10:49:20,441032
-1,-2,0,3,3,1,-1,-2,2021-08-07 10:49:20,457034
-4,-2,-3,-7,-10,-3,-1,-3,2021-08-07 10:49:20,473034
-3,-2,-3,-10,-12,-5,-4,-2,2021-08-07 10:49:20,473034
2,2,3,12,15,7,3,0,2021-08-07 10:49:20,473034
2,2,1,7,6,3,2,2,2021-08-07 10:49:20,473034
-4,-6,-3,-3,-3,-4,-6,-3,2021-08-07 10:49:20,473034
2,2,2,1,-6,-4,-1,2,2021-08-07 10:49:20,473034
-4,-5,-7,-14,-11,-5,-2,-4,2021-08-07 10:49:20,473034
-1,0,0,-3,0,1,0,-2,2021-08-07 10:49:20,504034
0,1,0,3,1,1,1,1,2021-08-07 10:49:20,520031
-1,1,0,3,4,1,1,0,2021-08-07 10:49:20,520031
-1,-2,-3,0,-1,-2,-1,-2,2021-08-07 10:49:20,520031
-1,-2,-3,-2,-4,-3,-3,-4,2021-08-07 10:49:20,520031
2,2,1,-1,-1,2,1,2,2021-08-07 10:49:20,520031
0,-3,-5,-11,-13,-6,-3,0,2021-08-07 10:49:20,520031
-2,-2,0,0,2,-1,-4,-3,2021-08-07 10:49:20,520031
-1,0,2,9,7,1,0,0,2021-08-07 10:49:20,527034
-1,-1,-2,1,0,-1,-1,-1,2021-08-07 10:49:20,528032
0,0,3,5,0,0,0,-1,2021-08-07 10:49:20,552031
0,-1,-7,-15,-16,-5,-1,1,2021-08-07 10:49:20,552031
0,0,-1,2,8,2,0,0,2021-08-07 10:49:20,552031
1,1,3,10,8,0,1,1,2021-08-07 10:49:20,552031
-4,-5,-5,-3,-2,0,0,0,2021-08-07 10:49:20,552031
-2,-2,-4,-5,-5,-1,0,-1,2021-08-07 10:49:20,552031
-6,-3,-2,-10,-16,-6,-5,-4,2021-08-07 10:49:20,583031
-2,-1,0,1,4,2,-2,-3,2021-08-07 10:49:20,583031
1,2,1,2,8,4,0,0,2021-08-07 10:49:20,583031
0,2,5,12,13,4,1,-1,2021-08-07 10:49:20,583031
0,-2,-3,-8,-9,-3,-2,-2,2021-08-07 10:49:20,599032
1,2,-2,-1,-2,0,0,1,2021-08-07 10:49:20,599032
-2,-2,-4,-6,-10,-6,-1,-3,2021-08-07 10:49:20,599032
1,0,0,0,4,0,1,1,2021-08-07 10:49:20,599032
1,-1,-2,-5,-5,-3,0,0,2021-08-07 10:49:20,614034
-2,-1,-2,-4,-3,-1,-3,-1,2021-08-07 10:49:20,614034
-3,-2,-5,-5,1,-1,-3,-3,2021-08-07 10:49:20,645032
2,4,9,19,18,8,4,2,2021-08-07 10:49:20,661035
0,-2,-2,1,-1,-4,-2,-2,2021-08-07 10:49:20,677033
2,3,1,-2,-4,-2,2,0,2021-08-07 10:49:20,677033
-2,-2,-4,-8,-7,-2,1,-2,2021-08-07 10:49:20,677033
-2,-3,-7,-8,-10,-8,-4,-3,2021-08-07 10:49:20,677033
1,-1,2,5,7,3,-1,0,2021-08-07 10:49:20,677033
-1,-2,1,3,3,3,-1,-1,2021-08-07 10:49:20,677033
-1,1,2,2,5,4,0,0,2021-08-07 10:49:20,678034
-1,-1,-3,-7,-7,-3,-1,-1,2021-08-07 10:49:20,678034
1,3,3,1,0,-2,0,1,2021-08-07 10:49:20,678034
-6,-8,-9,-9,-3,-4,-2,-3,2021-08-07 10:49:20,678034
0,-1,-5,-9,-14,-6,-3,-2,2021-08-07 10:49:20,678034
1,0,-1,0,3,3,1,0,2021-08-07 10:49:20,678034
-1,0,-1,-2,-2,-2,0,-3,2021-08-07 10:49:20,709032
1,1,4,8,6,3,1,0,2021-08-07 10:49:20,709032
-1,-1,-1,-3,-6,-3,-3,-1,2021-08-07 10:49:20,709032
-1,0,2,5,7,2,-2,-1,2021-08-07 10:49:20,709032
1,2,1,-1,-4,-1,0,1,2021-08-07 10:49:20,725032
-1,-2,-3,-2,-2,-3,-1,-2,2021-08-07 10:49:20,725032
-1,-2,0,1,6,2,-1,-2,2021-08-07 10:49:20,725032
1,0,-3,-5,-6,-2,-2,1,2021-08-07 10:49:20,725032
-1,-2,-4,0,3,0,0,-1,2021-08-07 10:49:20,741032
-2,0,-1,-3,-4,-3,0,-1,2021-08-07 10:49:20,741032
-1,2,1,0,-1,1,1,1,2021-08-07 10:49:20,757032
-5,-3,-2,-3,-7,-4,-3,-1,2021-08-07 10:49:20,757032
-4,-2,-4,-9,-4,-2,-3,-2,2021-08-07 10:49:20,757032
-1,-2,-3,-6,-19,-11,-4,-2,2021-08-07 10:49:20,757032
0,0,-1,1,14,9,4,-1,2021-08-07 10:49:20,757032
5,4,9,22,26,10,5,2,2021-08-07 10:49:20,757032
-3,-4,-3,-3,-7,-3,0,-1,2021-08-07 10:49:20,788030
-1,-1,-2,-3,-3,-2,-2,-2,2021-08-07 10:49:20,804030
-1,-1,-2,-5,-7,-3,-3,-1,2021-08-07 10:49:20,819032
-3,-3,-4,-6,-6,-2,-1,-2,2021-08-07 10:49:20,819032
-2,0,0,7,6,3,-1,0,2021-08-07 10:49:20,819032
-2,-3,-3,-4,-2,-2,-1,-3,2021-08-07 10:49:20,819032
-1,-2,-1,-4,-4,-5,-1,-1,2021-08-07 10:49:20,819032
-2,-2,-4,-9,-10,-5,-3,-4,2021-08-07 10:49:20,819032
3,3,4,5,5,2,2,0,2021-08-07 10:49:20,819032
-1,-1,-1,0,3,3,1,1,2021-08-07 10:49:20,820033
0,-3,0,4,2,1,-2,-2,2021-08-07 10:49:20,820033
-2,-3,-4,-7,-8,-5,-2,-2,2021-08-07 10:49:20,820033
-1,-1,-1,-5,-5,-3,-1,-1,2021-08-07 10:49:20,851030
-1,1,2,7,10,3,2,1,2021-08-07 10:49:20,851030
-1,-2,-3,-4,0,0,-1,0,2021-08-07 10:49:20,851030
-2,-1,1,3,-3,-1,-2,-1,2021-08-07 10:49:20,851030
-2,-1,-1,5,7,2,-1,-2,2021-08-07 10:49:20,851030
-1,0,-3,-5,-5,-2,-2,-2,2021-08-07 10:49:20,851030
3,3,3,8,9,3,2,2,2021-08-07 10:49:20,867032
-1,-1,-2,-5,-9,-4,1,-2,2021-08-07 10:49:20,867032
-2,-2,-4,-7,-5,-2,-2,-2,2021-08-07 10:49:20,883030
-1,-3,-1,2,-1,-1,-3,-2,2021-08-07 10:49:20,899032
-4,-2,-2,-2,-5,-4,-1,-1,2021-08-07 10:49:20,914034
0,2,0,1,-5,-1,-1,-1,2021-08-07 10:49:20,914034
0,1,2,7,8,3,1,-1,2021-08-07 10:49:20,914034
3,2,3,4,10,3,2,1,2021-08-07 10:49:20,914034
-2,-2,-1,-4,-8,-4,-2,-2,2021-08-07 10:49:20,914034
-2,-2,-2,-2,-1,-4,-2,-1,2021-08-07 10:49:20,914034
-3,-5,-8,-16,-23,-12,-4,-3,2021-08-07 10:49:20,930032
-1,-2,-2,0,9,4,0,-1,2021-08-07 10:49:20,930032
2,4,4,15,15,7,4,2,2021-08-07 10:49:20,930032
-1,-2,-3,-5,-4,-2,-1,-2,2021-08-07 10:49:20,930032
-2,0,-4,-5,-5,-4,-3,-2,2021-08-07 10:49:20,946032
-2,0,0,0,-1,-1,0,0,2021-08-07 10:49:20,946032
-2,0,-1,-3,-5,-4,-2,-1,2021-08-07 10:49:20,946032
1,0,-2,-5,-3,-2,-2,1,2021-08-07 10:49:20,946032
0,-1,1,2,0,1,-2,-2,2021-08-07 10:49:20,956032
0,1,2,3,3,0,-2,0,2021-08-07 10:49:20,956032
-2,-3,-3,-3,-2,-1,-2,-3,2021-08-07 10:49:20,962031
-1,-2,-1,2,4,1,-1,-2,2021-08-07 10:49:20,962031
0,0,2,3,4,2,2,1,2021-08-07 10:49:20,994032
-1,-2,-3,-4,-9,-3,-3,-2,2021-08-07 10:49:20,994032
0,-3,-2,-2,-8,-4,-1,-1,2021-08-07 10:49:20,994032
2,2,3,15,22,8,1,1,2021-08-07 10:49:20,994032
2,1,3,3,4,3,2,3,2021-08-07 10:49:20,994032
-3,-3,-4,-3,-4,-2,-2,0,2021-08-07 10:49:20,994032
-4,-2,-4,-6,-11,-6,-3,-4,2021-08-07 10:49:21,009030
-3,-3,-4,-14,-17,-8,-2,-2,2021-08-07 10:49:21,009030
-3,-2,-4,-5,6,2,-2,-1,2021-08-07 10:49:21,025033
1,4,5,9,6,2,0,0,2021-08-07 10:49:21,041032
2,1,2,4,5,6,4,2,2021-08-07 10:49:21,041032
-3,-6,-5,-9,-10,-3,0,-2,2021-08-07 10:49:21,041032
-1,1,2,1,3,0,-1,-2,2021-08-07 10:49:21,041032
-2,-5,-6,-11,-13,-7,-6,-5,2021-08-07 10:49:21,041032
-1,0,-2,2,2,-5,-6,-2,2021-08-07 10:49:21,041032
0,-2,-1,-2,0,-1,0,-1,2021-08-07 10:49:21,041032
-3,-2,0,1,-2,-1,2,-1,2021-08-07 10:49:21,073032
0,-2,-3,-4,-3,-2,-2,1,2021-08-07 10:49:21,073032
4,3,4,1,5,7,11,7,2021-08-07 10:49:21,073032
3,0,0,-2,-9,4,4,2,2021-08-07 10:49:21,073032
0,1,-2,-5,-1,-5,-8,-4,2021-08-07 10:49:21,089032
-7,-1,3,7,4,-8,-8,-7,2021-08-07 10:49:21,105032
-1,-2,-1,-4,-7,-5,-6,-3,2021-08-07 10:49:21,121032
-4,-3,-5,-7,-6,-4,-1,-1,2021-08-07 10:49:21,121032
2,-1,-1,2,5,9,9,5,2021-08-07 10:49:21,121032
4,1,-3,-9,-8,4,6,5,2021-08-07 10:49:21,121032
1,2,6,15,16,4,-2,0,2021-08-07 10:49:21,121032
-5,-3,-3,-2,-4,-9,-11,-8,2021-08-07 10:49:21,121032
-5,-4,-4,-5,-8,-7,-5,-4,2021-08-07 10:49:21,121032
1,-1,-1,-1,2,5,5,2,2021-08-07 10:49:21,121032
-2,-1,-3,-7,-6,1,2,0,2021-08-07 10:49:21,122033
1,2,-1,-1,-5,0,0,2,2021-08-07 10:49:21,122033
-2,-2,-3,-7,-6,-4,-1,-1,2021-08-07 10:49:21,152032
1,0,1,6,16,7,4,1,2021-08-07 10:49:21,152032
-2,-1,-4,-4,-6,-4,-1,-3,2021-08-07 10:49:21,152032
-1,0,2,2,3,0,-3,-3,2021-08-07 10:49:21,152032
-2,-4,-8,-7,-16,-8,-2,-2,2021-08-07 10:49:21,184032
-1,1,1,-3,3,1,1,0,2021-08-07 10:49:21,200032
-1,-3,-2,4,5,1,-3,-3,2021-08-07 10:49:21,200032
-2,-2,-3,-3,-3,-2,1,-1,2021-08-07 10:49:21,200032
-3,-2,-2,-7,-5,-1,0,-1,2021-08-07 10:49:21,200032
1,0,1,6,2,-1,-2,0,2021-08-07 10:49:21,200032
-2,-3,-4,-8,-12,-6,-3,-2,2021-08-07 10:49:21,200032
0,-2,-1,-6,-9,-2,-1,1,2021-08-07 10:49:21,201033
1,-2,2,7,11,6,2,1,2021-08-07 10:49:21,201033
1,0,-1,3,9,2,0,0,2021-08-07 10:49:21,201033
1,2,7,9,12,6,2,0,2021-08-07 10:49:21,201033
-1,-2,-2,-10,-12,-6,-2,-2,2021-08-07 10:49:21,201033
-1,0,-2,-6,-13,-7,-3,-2,2021-08-07 10:49:21,232033
-5,-2,-2,-1,-3,-4,-2,-4,2021-08-07 10:49:21,232033
-3,-2,-3,-4,-7,-4,-2,-3,2021-08-07 10:49:21,232033
4,3,5,10,20,9,4,2,2021-08-07 10:49:21,232033
0,1,2,14,13,5,-1,-1,2021-08-07 10:49:21,232033
1,-1,-2,-7,-8,-3,1,-1,2021-08-07 10:49:21,232033
-2,-4,-5,-9,-10,-4,-4,-1,2021-08-07 10:49:21,264032
-2,-1,-2,-4,-3,-1,-3,-3,2021-08-07 10:49:21,264032
3,2,1,1,2,0,0,2,2021-08-07 10:49:21,264032
0,-1,-1,-7,-8,-4,-1,-2,2021-08-07 10:49:21,264032
0,2,0,-1,1,0,-2,0,2021-08-07 10:49:21,264032
-2,0,-2,0,1,-1,0,0,2021-08-07 10:49:21,264032
-2,-4,1,4,3,1,-1,0,2021-08-07 10:49:21,296033
-3,-4,-3,-3,-4,-2,-1,-3,2021-08-07 10:49:21,296033
0,-2,-1,4,4,0,2,-1,2021-08-07 10:49:21,296033
0,-1,1,3,5,2,0,-1,2021-08-07 10:49:21,296033
-7,-5,-7,-22,-33,-14,-8,-7,2021-08-07 10:49:21,296033
3,5,12,23,25,13,4,3,2021-08-07 10:49:21,296033
1,3,2,9,20,7,2,1,2021-08-07 10:49:21,312031
0,1,4,12,6,1,1,0,2021-08-07 10:49:21,328031
-1,1,0,2,-3,-5,-3,0,2021-08-07 10:49:21,343032
-7,-7,-10,-24,-31,-12,-6,-4,2021-08-07 10:49:21,359034
-2,-3,-6,-10,-8,-2,0,-1,2021-08-07 10:49:21,359034
4,5,5,12,17,6,4,3,2021-08-07 10:49:21,359034
0,-1,0,-5,-6,-2,-1,-1,2021-08-07 10:49:21,359034
-1,1,0,1,2,0,0,-3,2021-08-07 10:49:21,359034
1,-1,-1,-2,-1,0,0,-1,2021-08-07 10:49:21,359034
-4,-3,-5,-8,-9,-3,-3,-2,2021-08-07 10:49:21,359034
-1,-2,0,2,7,2,-1,-1,2021-08-07 10:49:21,359034
0,-2,-4,-7,-10,-4,-3,-1,2021-08-07 10:49:21,359034
1,1,3,4,6,2,0,0,2021-08-07 10:49:21,360033
-1,-2,-1,-3,-1,1,-1,-2,2021-08-07 10:49:21,360033
-1,-1,-3,-2,0,-1,1,0,2021-08-07 10:49:21,390033
-1,-1,1,8,4,0,1,0,2021-08-07 10:49:21,390033
-1,-1,-3,-10,-12,-4,-2,-1,2021-08-07 10:49:21,390033
2,1,1,5,6,6,3,1,2021-08-07 10:49:21,390033
3,4,2,4,7,4,2,1,2021-08-07 10:49:21,398033
0,0,-2,-4,-4,-2,-1,-2,2021-08-07 10:49:21,398033
-3,-2,-1,-3,-4,-3,-4,-1,2021-08-07 10:49:21,422032
-1,-3,-4,-6,-4,-5,-4,-3,2021-08-07 10:49:21,422032
-2,-1,-2,0,0,-1,0,0,2021-08-07 10:49:21,422032
0,-1,-2,-2,0,-1,-2,0,2021-08-07 10:49:21,422032
-1,0,0,-1,-2,0,0,-1,2021-08-07 10:49:21,422032
-3,-2,-2,-9,-6,-4,-1,-2,2021-08-07 10:49:21,422032
1,-1,1,7,8,2,1,0,2021-08-07 10:49:21,453032
0,1,0,-2,-2,-1,-1,1,2021-08-07 10:49:21,469032
0,-1,-2,0,0,0,-1,0,2021-08-07 10:49:21,469032
-1,-1,0,1,-2,-2,-2,-2,2021-08-07 10:49:21,469032
-2,-3,-1,-4,-2,0,-1,-1,2021-08-07 10:49:21,469032
-3,-2,0,-3,-3,-1,-1,-2,2021-08-07 10:49:21,469032
1,-1,1,1,0,0,-1,-1,2021-08-07 10:49:21,469032
-1,-1,-1,-2,-3,-2,-1,-2,2021-08-07 10:49:21,469032
-2,0,0,0,1,1,-2,-2,2021-08-07 10:49:21,484032
0,-2,-1,1,1,0,-2,0,2021-08-07 10:49:21,484032
-1,-1,-1,1,-1,-2,0,-1,2021-08-07 10:49:21,484032
-2,-1,-2,1,-1,-1,-2,-1,2021-08-07 10:49:21,484032
0,-1,0,1,2,0,1,-1,2021-08-07 10:49:21,500032
-2,1,0,0,1,1,0,-3,2021-08-07 10:49:21,500032
-2,-2,-2,-4,-6,-4,-3,-1,2021-08-07 10:49:21,500032
-1,-1,-2,-4,-4,-3,-3,0,2021-08-07 10:49:21,500032
-2,0,0,5,3,0,0,1,2021-08-07 10:49:21,532034
-1,0,-1,0,-2,1,0,-1,2021-08-07 10:49:21,548033
0,-1,-1,-4,-3,0,-2,-1,2021-08-07 10:49:21,564032
-4,-4,-5,-10,-12,-5,-3,-4,2021-08-07 10:49:21,564032
1,2,2,4,8,6,2,2,2021-08-07 10:49:21,564032
2,4,10,23,22,10,4,2,2021-08-07 10:49:21,564032
1,-1,-1,0,1,2,1,0,2021-08-07 10:49:21,564032
0,0,1,10,6,1,0,0,2021-08-07 10:49:21,564032
-4,-5,-10,-27,-34,-15,-6,-6,2021-08-07 10:49:21,565032
-1,-2,0,13,20,8,2,0,2021-08-07 10:49:21,565032
-1,1,1,-1,-5,-3,-1,-1,2021-08-07 10:49:21,565032
0,-1,-2,-4,-2,1,0,-1,2021-08-07 10:49:21,565032
-3,-4,-4,-6,-6,-6,-2,-3,2021-08-07 10:49:21,595032
-1,-3,-5,-9,-7,-4,-1,-2,2021-08-07 10:49:21,611032
-1,-1,-1,2,4,1,-1,-1,2021-08-07 10:49:21,611032
1,0,3,2,2,0,-1,0,2021-08-07 10:49:21,611032
0,-1,0,4,3,0,-1,0,2021-08-07 10:49:21,611032
0,-2,-5,-13,-25,-10,-5,-2,2021-08-07 10:49:21,611032
2,1,9,20,31,15,6,2,2021-08-07 10:49:21,611032
-1,-2,-2,0,3,-1,0,1,2021-08-07 10:49:21,611032
1,1,1,5,5,2,3,0,2021-08-07 10:49:21,626032
-1,-3,-1,2,-3,-5,-4,-3,2021-08-07 10:49:21,626032
-1,-1,-5,-15,-14,-6,-2,0,2021-08-07 10:49:21,626032
0,0,0,2,5,1,1,-1,2021-08-07 10:49:21,626032
-1,-2,1,-3,-4,-3,-3,0,2021-08-07 10:49:21,657033
0,-2,-4,-6,2,-1,-2,0,2021-08-07 10:49:21,673033
-4,-4,-5,-7,-10,-3,-3,-3,2021-08-07 10:49:21,673033
0,2,2,0,2,1,1,-1,2021-08-07 10:49:21,673033
0,0,2,6,5,1,0,0,2021-08-07 10:49:21,673033
-3,-1,-4,-11,-12,-4,-3,0,2021-08-07 10:49:21,673033
-2,0,0,-3,5,1,0,-1,2021-08-07 10:49:21,673033
-3,-2,-1,5,2,-2,-2,-2,2021-08-07 10:49:21,674033
1,0,0,2,4,3,1,0,2021-08-07 10:49:21,705030
-1,-1,1,0,-2,-1,-1,0,2021-08-07 10:49:21,705030
-4,-4,-7,-12,-18,-7,-4,-3,2021-08-07 10:49:21,705030
-3,-2,-2,-1,-7,-3,-3,0,2021-08-07 10:49:21,705030
-1,0,0,-4,0,0,1,0,2021-08-07 10:49:21,705030
1,1,2,7,6,2,1,-1,2021-08-07 10:49:21,705030
2,2,4,9,10,2,1,3,2021-08-07 10:49:21,705030
-3,-3,-3,-10,-10,-2,-2,-2,2021-08-07 10:49:21,706035
-1,-2,-3,-2,-2,-4,-1,-2,2021-08-07 10:49:21,720032
-3,-3,-3,-8,-9,-4,-1,-3,2021-08-07 10:49:21,736034
0,-1,-2,1,-5,-4,-1,-2,2021-08-07 10:49:21,736034
1,-1,0,2,1,1,1,1,2021-08-07 10:49:21,752031
1,1,2,4,6,6,3,1,2021-08-07 10:49:21,768033
-3,-2,-4,-7,-6,-5,-6,-5,2021-08-07 10:49:21,768033
-5,-4,-6,-10,-7,-9,-10,-7,2021-08-07 10:49:21,768033
0,2,5,7,10,4,1,1,2021-08-07 10:49:21,768033
-2,-2,-2,-7,-10,-5,-2,-1,2021-08-07 10:49:21,768033
2,2,3,11,13,8,6,3,2021-08-07 10:49:21,768033
1,-1,-2,-4,-5,-2,0,0,2021-08-07 10:49:21,768033
0,-3,-6,-6,-7,-3,0,-2,2021-08-07 10:49:21,768033
1,0,-1,-2,-3,1,4,1,2021-08-07 10:49:21,784031
0,0,0,-1,-2,1,-1,-2,2021-08-07 10:49:21,800032
-3,-3,-1,1,-1,-5,-7,-5,2021-08-07 10:49:21,800032
-5,-3,-5,-7,-2,-6,-5,-5,2021-08-07 10:49:21,800032
1,0,3,9,8,3,-1,1,2021-08-07 10:49:21,800032
1,-1,-3,-9,-14,-6,3,2,2021-08-07 10:49:21,800032
3,3,3,7,7,6,7,5,2021-08-07 10:49:21,815033
2,1,1,5,8,4,-1,-1,2021-08-07 10:49:21,831033
-6,-4,-6,-6,-5,-4,-7,-7,2021-08-07 10:49:21,840033
-1,-1,-1,2,6,5,3,1,2021-08-07 10:49:21,840033
2,-1,-2,-6,-7,-4,-4,-1,2021-08-07 10:49:21,840033
-4,-3,-2,-1,-6,-9,-7,-4,2021-08-07 10:49:21,840033
1,1,3,6,5,2,3,3,2021-08-07 10:49:21,841034
1,0,-4,-8,-9,-1,2,1,2021-08-07 10:49:21,841034
-2,-2,-4,-6,4,2,0,-1,2021-08-07 10:49:21,841034
-1,0,3,7,4,-2,-6,-5,2021-08-07 10:49:21,841034
-3,-3,-2,-3,-2,-4,-5,-4,2021-08-07 10:49:21,863244
-2,-2,-2,-3,-4,-4,-2,-3,2021-08-07 10:49:21,879033
0,-2,-4,-10,-10,-1,4,2,2021-08-07 10:49:21,894035
3,4,1,-3,-3,4,6,3,2021-08-07 10:49:21,894035
0,0,1,6,7,2,1,-1,2021-08-07 10:49:21,894035
-1,1,2,3,9,0,-5,-2,2021-08-07 10:49:21,894035
0,0,1,4,1,1,-1,0,2021-08-07 10:49:21,910033
-1,-1,-1,-5,-3,-2,0,1,2021-08-07 10:49:21,910033
-3,-5,-5,-12,-16,-6,-3,-2,2021-08-07 10:49:21,910033
-1,1,3,4,2,1,1,1,2021-08-07 10:49:21,910033
-1,-1,-1,4,8,4,1,0,2021-08-07 10:49:21,910033
3,2,-1,1,-2,1,1,2,2021-08-07 10:49:21,926032
-3,-2,-3,-5,-5,-3,-3,-1,2021-08-07 10:49:21,942032
0,0,-4,-4,-4,-3,-3,-1,2021-08-07 10:49:21,942032
-4,-1,1,3,1,-1,-1,-2,2021-08-07 10:49:21,942032
0,0,2,0,-1,2,2,2,2021-08-07 10:49:21,942032
-2,-2,-1,0,0,-1,-3,-1,2021-08-07 10:49:21,942032
-1,-2,-2,-7,-4,-5,-2,0,2021-08-07 10:49:21,942032
-1,1,2,4,0,-1,0,-1,2021-08-07 10:49:21,974033
-1,-2,-6,-6,-4,-1,-2,-3,2021-08-07 10:49:21,990034
0,2,2,13,16,5,1,-1,2021-08-07 10:49:22,006032
-3,-3,0,3,-2,-2,-3,-1,2021-08-07 10:49:22,022033
2,2,2,1,-1,2,2,2,2021-08-07 10:49:22,022033
0,0,1,3,0,1,0,0,2021-08-07 10:49:22,022033
1,1,-1,-4,-3,-1,-1,0,2021-08-07 10:49:22,022033
-1,-2,-2,-1,-2,-1,-1,-2,2021-08-07 10:49:22,022033
-2,-2,-3,-2,-3,-3,-4,-2,2021-08-07 10:49:22,038032
-1,-1,-1,-2,-2,0,-1,0,2021-08-07 10:49:22,054033
2,2,2,3,7,5,2,1,2021-08-07 10:49:22,070033
0,1,-2,-4,-4,-2,-1,-1,2021-08-07 10:49:22,070033
-2,-4,-4,-7,-7,-5,-2,-3,2021-08-07 10:49:22,070033
0,0,2,-2,1,0,1,2,2021-08-07 10:49:22,086033
1,2,3,6,5,1,3,0,2021-08-07 10:49:22,102031
1,1,3,9,17,7,3,0,2021-08-07 10:49:22,118032
-2,-1,-4,-4,-8,-4,-3,-3,2021-08-07 10:49:22,118032
-1,-1,-2,-10,-5,-1,-2,-1,2021-08-07 10:49:22,118032
-1,-3,-3,-4,-5,-2,-1,0,2021-08-07 10:49:22,118032
-1,-1,-1,-2,-4,-3,0,1,2021-08-07 10:49:22,118032
-2,-3,-3,-2,-7,-3,-1,-2,2021-08-07 10:49:22,134032
-3,-4,-5,-5,-1,0,-1,-4,2021-08-07 10:49:22,134032
-4,0,2,7,9,3,-2,-3,2021-08-07 10:49:22,134032
-3,-1,0,1,1,1,-2,-3,2021-08-07 10:49:22,134032
0,2,1,1,0,1,-1,0,2021-08-07 10:49:22,134032
0,0,-2,-5,-8,-6,-2,-2,2021-08-07 10:49:22,134032
1,0,-3,-7,-6,-4,0,-1,2021-08-07 10:49:22,134032
1,-2,-3,-2,-6,-3,-2,-2,2021-08-07 10:49:22,134032
0,-2,1,4,5,0,2,0,2021-08-07 10:49:22,135033
0,-1,0,3,0,-1,0,1,2021-08-07 10:49:22,135033
0,1,-2,-4,-1,0,2,2,2021-08-07 10:49:22,135033
0,0,-2,-4,2,2,0,0,2021-08-07 10:49:22,135033
-3,-2,-2,-4,-7,-3,-2,-4,2021-08-07 10:49:22,135033
2,2,2,10,7,3,3,1,2021-08-07 10:49:22,135033
-1,-2,-2,-3,1,-1,-2,-4,2021-08-07 10:49:22,135033
-1,-1,-1,2,-4,-4,-1,0,2021-08-07 10:49:22,136032
-2,-2,-1,-1,2,0,1,-1,2021-08-07 10:49:22,136032
-4,-3,-1,-1,-1,-2,-3,-2,2021-08-07 10:49:22,136032
-4,-4,-8,-20,-23,-11,-6,-5,2021-08-07 10:49:22,150033
0,-1,0,0,5,3,1,0,2021-08-07 10:49:22,150033
2,3,2,9,14,5,1,1,2021-08-07 10:49:22,150033
-2,-2,-3,-6,3,0,0,0,2021-08-07 10:49:22,150033
0,-2,-2,-1,-5,-3,-2,-1,2021-08-07 10:49:22,166033
-3,-3,0,-2,-6,-4,-3,-2,2021-08-07 10:49:22,182033
0,1,0,-4,-7,-3,2,2,2021-08-07 10:49:22,182033
0,-1,-1,5,11,5,0,-1,2021-08-07 10:49:22,182033
0,-1,1,3,6,3,1,0,2021-08-07 10:49:22,182033
-2,-1,-2,-3,-6,-3,-1,-1,2021-08-07 10:49:22,182033
-4,-2,-2,-2,-6,-3,-3,-3,2021-08-07 10:49:22,198033
-1,-1,-2,-7,-10,-6,-1,0,2021-08-07 10:49:22,198033
2,3,4,6,9,4,2,2,2021-08-07 10:49:22,214032
0,0,-1,3,2,0,0,-1,2021-08-07 10:49:22,230032
1,0,1,2,3,2,1,1,2021-08-07 10:49:22,230032
-4,-3,-4,-7,-9,-4,-3,-3,2021-08-07 10:49:22,230032
-3,-3,-2,-1,-2,1,-3,-2,2021-08-07 10:49:22,230032
-2,-1,1,0,-1,0,0,1,2021-08-07 10:49:22,230032
1,1,1,2,2,0,-1,0,2021-08-07 10:49:22,231034
-1,-2,0,0,1,0,-1,0,2021-08-07 10:49:22,231034
-1,-1,-1,0,-3,-1,-1,-1,2021-08-07 10:49:22,246033
-2,-1,-1,-2,-3,-2,0,-3,2021-08-07 10:49:22,246033
0,-1,-2,1,0,-1,-1,-1,2021-08-07 10:49:22,246033
0,0,0,1,0,1,0,2,2021-08-07 10:49:22,246033
0,-1,-1,2,0,-1,0,0,2021-08-07 10:49:22,277032
0,-2,-1,-1,-4,-2,-1,-1,2021-08-07 10:49:22,277032
-2,-2,-1,-1,0,0,-2,-1,2021-08-07 10:49:22,277032
0,2,0,3,2,1,1,1,2021-08-07 10:49:22,277032
-3,-1,-2,-1,-3,-1,-2,0,2021-08-07 10:49:22,277032
-1,0,-1,-4,-1,-1,-3,-2,2021-08-07 10:49:22,277032
-2,0,0,-1,0,0,0,-1,2021-08-07 10:49:22,293032
-1,-1,0,1,-1,-1,0,-1,2021-08-07 10:49:22,293032
-3,-1,-2,0,-1,-1,-1,-1,2021-08-07 10:49:22,308032
0,-1,-3,-3,-3,-3,-1,-1,2021-08-07 10:49:22,324032
-3,-1,-4,-11,-13,-5,-2,-1,2021-08-07 10:49:22,340034
1,1,5,11,17,7,2,0,2021-08-07 10:49:22,340034
1,1,3,11,11,2,2,1,2021-08-07 10:49:22,340034
-1,-1,-1,-1,1,1,-1,-2,2021-08-07 10:49:22,340034
-1,-1,2,0,-1,-2,0,1,2021-08-07 10:49:22,340034
-3,-3,-4,-7,-9,-4,-3,-2,2021-08-07 10:49:22,341033
-3,-2,-4,-11,-16,-6,-4,-1,2021-08-07 10:49:22,341033
-2,-2,-4,-14,-5,-1,-1,-1,2021-08-07 10:49:22,341033
3,1,5,25,25,12,3,3,2021-08-07 10:49:22,341033
0,0,-1,-2,-2,-1,0,-1,2021-08-07 10:49:22,341033
-1,-1,2,3,2,0,1,-1,2021-08-07 10:49:22,372034
-3,-3,-6,-9,-13,-7,-4,-3,2021-08-07 10:49:22,387032
-3,-3,-6,-11,-10,-5,-3,-2,2021-08-07 10:49:22,403033
2,2,2,6,5,2,2,1,2021-08-07 10:49:22,403033
-1,-3,-3,-3,-3,-2,-3,-2,2021-08-07 10:49:22,403033
0,-2,1,1,2,0,-1,-1,2021-08-07 10:49:22,403033
-2,-1,0,-4,-4,-4,-1,-2,2021-08-07 10:49:22,403033
-2,-4,-9,-19,-16,-10,-5,-2,2021-08-07 10:49:22,403033
0,1,5,9,11,6,3,2,2021-08-07 10:49:22,404036
1,3,6,13,13,6,3,2,2021-08-07 10:49:22,404036
-1,1,-3,-4,-3,-2,0,0,2021-08-07 10:49:22,419035
-4,-2,-4,-9,-9,-4,-3,-3,2021-08-07 10:49:22,435032
2,1,3,2,11,7,2,1,2021-08-07 10:49:22,451032
2,1,2,11,15,8,4,4,2021-08-07 10:49:22,467032
0,0,2,3,1,2,4,0,2021-08-07 10:49:22,483030
-4,-3,-2,-5,-10,-5,-5,-3,2021-08-07 10:49:22,483030
-6,-5,-4,-13,-12,-11,-11,-8,2021-08-07 10:49:22,483030
-2,-2,-2,1,-1,-2,-3,-4,2021-08-07 10:49:22,483030
-2,-1,-3,-5,-5,-2,-3,-1,2021-08-07 10:49:22,499032
1,-1,-1,-2,0,4,3,0,2021-08-07 10:49:22,515032
1,-2,0,0,-4,0,0,-2,2021-08-07 10:49:22,515032
1,-1,-2,-3,-5,-2,0,0,2021-08-07 10:49:22,515032
-1,-3,-1,0,0,0,-1,-4,2021-08-07 10:49:22,515032
-1,1,0,-1,1,-1,0,-1,2021-08-07 10:49:22,515032
-2,-2,-5,-6,-13,-6,-1,0,2021-08-07 10:49:22,516032
-1,0,-1,1,8,5,-1,-1,2021-08-07 10:49:22,516032
1,1,3,11,7,1,-1,0,2021-08-07 10:49:22,516032
2,3,2,12,13,7,4,2,2021-08-07 10:49:22,516032
-1,1,1,5,-2,0,1,-1,2021-08-07 10:49:22,516032
-2,-4,-10,-24,-30,-14,-7,-3,2021-08-07 10:49:22,516032
-2,0,3,9,11,1,-3,-4,2021-08-07 10:49:22,516032
-3,-3,-3,-2,-1,-5,-6,-4,2021-08-07 10:49:22,516032
-2,-2,-4,-5,-7,-2,0,-2,2021-08-07 10:49:22,516032
-2,0,0,2,2,2,1,-2,2021-08-07 10:49:22,517031
-1,-2,-3,-6,-5,-3,-1,-1,2021-08-07 10:49:22,530030
0,0,-1,-1,-2,0,0,0,2021-08-07 10:49:22,530030
0,0,0,-1,4,2,2,0,2021-08-07 10:49:22,546032
-1,-1,0,4,3,0,-1,-1,2021-08-07 10:49:22,562033
-2,-3,-3,-7,-7,-2,1,-1,2021-08-07 10:49:22,578032
0,0,0,2,-1,0,0,0,2021-08-07 10:49:22,578032
1,3,3,5,6,3,1,1,2021-08-07 10:49:22,578032
0,0,0,1,-1,-2,-1,0,2021-08-07 10:49:22,578032
0,0,-2,-5,-6,-3,-3,1,2021-08-07 10:49:22,578032
-2,-3,-1,2,1,-2,-2,-3,2021-08-07 10:49:22,578032
0,-3,-2,1,1,-1,0,0,2021-08-07 10:49:22,594031
-2,-1,0,1,-3,-2,-2,-1,2021-08-07 10:49:22,609032
0,3,4,6,9,1,-4,-1,2021-08-07 10:49:22,625032
0,1,-3,-3,-2,0,-1,-1,2021-08-07 10:49:22,625032
-3,-1,-1,0,-3,-1,-1,0,2021-08-07 10:49:22,625032
-2,0,-1,1,-2,0,1,1,2021-08-07 10:49:22,625032
-3,-3,-4,-6,-7,-5,-4,-5,2021-08-07 10:49:22,625032
-4,-4,-7,-13,-13,-5,-2,-4,2021-08-07 10:49:22,625032
4,5,10,28,26,10,5,4,2021-08-07 10:49:22,625032
1,1,3,2,9,4,4,2,2021-08-07 10:49:22,625032
0,0,0,-4,-7,-1,1,0,2021-08-07 10:49:22,626034
-2,-1,-1,-3,0,-5,-2,-1,2021-08-07 10:49:22,626034
-2,-4,-4,-8,-9,-3,1,-1,2021-08-07 10:49:22,657033
-2,-2,-3,0,0,1,-2,-1,2021-08-07 10:49:22,657033
5,4,1,-5,-1,-2,0,3,2021-08-07 10:49:22,657033
-2,-2,2,7,0,-4,-5,-4,2021-08-07 10:49:22,657033
-2,-3,-6,-14,-12,-5,-5,-2,2021-08-07 10:49:22,657033
2,2,4,5,8,2,1,0,2021-08-07 10:49:22,658031
-2,-5,-5,-6,-7,-1,3,1,2021-08-07 10:49:22,658031
1,2,2,1,5,5,3,3,2021-08-07 10:49:22,658031
0,0,0,0,3,0,-2,-2,2021-08-07 10:49:22,689032
-4,-1,-2,-3,-7,-4,-4,-3,2021-08-07 10:49:22,689032
0,-1,-4,-5,-4,-2,-2,0,2021-08-07 10:49:22,689032
1,1,1,2,5,2,2,2,2021-08-07 10:49:22,689032
0,-2,-3,-2,-2,-2,-4,-3,2021-08-07 10:49:22,721033
-2,-3,-3,-7,-8,-5,-2,-3,2021-08-07 10:49:22,721033
-2,-3,-2,0,0,0,-1,-2,2021-08-07 10:49:22,721033
-1,0,-1,-4,8,3,0,0,2021-08-07 10:49:22,721033
-2,-1,-2,-5,-6,-5,-2,-1,2021-08-07 10:49:22,721033
1,0,-3,-5,-3,-1,0,-1,2021-08-07 10:49:22,721033
1,-1,1,4,4,2,-1,-2,2021-08-07 10:49:22,721033
-1,-2,-1,-3,-8,-4,-4,-4,2021-08-07 10:49:22,721033
0,0,-2,-6,-2,0,-2,0,2021-08-07 10:49:22,753032
-2,-3,-1,-3,-3,-3,-3,-2,2021-08-07 10:49:22,753032
1,3,3,5,5,6,3,0,2021-08-07 10:49:22,753032
-1,-3,0,3,0,1,1,-1,2021-08-07 10:49:22,753032
-3,-1,-4,-3,-3,-3,-3,-3,2021-08-07 10:49:22,769033
1,-1,-1,-1,-2,-2,0,0,2021-08-07 10:49:22,769033
0,-1,0,-1,0,-1,-1,-2,2021-08-07 10:49:22,769033
0,-1,1,2,1,-1,0,-1,2021-08-07 10:49:22,769033
-4,-4,-1,2,1,-2,-2,-5,2021-08-07 10:49:22,785033
-1,-1,-5,-8,-5,-3,-2,-1,2021-08-07 10:49:22,801032
2,4,3,6,4,1,0,0,2021-08-07 10:49:22,801032
2,1,1,-1,-2,-1,0,1,2021-08-07 10:49:22,801032
0,-3,-3,-3,-1,0,0,1,2021-08-07 10:49:22,801032
-1,-4,-4,0,-1,0,-1,-2,2021-08-07 10:49:22,801032
-2,-4,-3,-6,-5,-1,-1,0,2021-08-07 10:49:22,801032
-2,-2,-3,0,1,1,0,-3,2021-08-07 10:49:22,801032
-3,-2,1,3,1,0,-2,-3,2021-08-07 10:49:22,833034
-1,1,8,14,14,3,2,-3,2021-08-07 10:49:22,849032
-2,1,-2,-3,-6,-5,-2,-3,2021-08-07 10:49:22,849032
0,1,0,6,-1,-1,-2,-1,2021-08-07 10:49:22,849032
0,-2,-5,-17,-13,-5,-3,0,2021-08-07 10:49:22,849032
2,3,6,14,12,3,2,4,2021-08-07 10:49:22,849032
-2,-3,-2,-5,-1,-1,-1,-1,2021-08-07 10:49:22,849032
1,1,0,0,-1,0,-1,1,2021-08-07 10:49:22,850033
-1,-1,-5,-10,-8,-2,-1,-1,2021-08-07 10:49:22,865031
-3,-2,-3,-7,-7,-3,-2,-2,2021-08-07 10:49:22,880030
0,-2,0,5,3,2,1,0,2021-08-07 10:49:22,896031
-2,-2,-1,2,-1,-1,-2,-3,2021-08-07 10:49:22,912034
0,1,0,2,-1,0,-2,0,2021-08-07 10:49:22,912034
-4,-5,-6,-17,-16,-8,-3,-4,2021-08-07 10:49:22,912034
1,3,5,16,20,7,4,0,2021-08-07 10:49:22,912034
-2,-5,-3,-5,-4,-2,-2,-2,2021-08-07 10:49:22,912034
-2,-1,1,0,3,1,-2,-2,2021-08-07 10:49:22,912034
-1,-1,-1,-1,-6,-3,-4,-2,2021-08-07 10:49:22,913033
-2,-2,-6,-12,-8,-4,-2,-1,2021-08-07 10:49:22,913033
2,4,4,5,3,2,1,1,2021-08-07 10:49:22,913033
-1,0,2,3,0,-3,0,-2,2021-08-07 10:49:22,928033
2,2,3,5,4,3,3,3,2021-08-07 10:49:22,943032
0,-1,0,4,-2,0,-1,-2,2021-08-07 10:49:22,959031
0,0,-1,4,17,5,0,1,2021-08-07 10:49:22,975031
0,-1,-2,-3,-4,-1,-1,0,2021-08-07 10:49:22,990034
0,0,-2,-3,-4,-1,0,-2,2021-08-07 10:49:22,990034
-4,-4,-4,-8,-11,-8,-3,-2,2021-08-07 10:49:22,990034
-3,-2,-5,-10,-10,-4,-3,0,2021-08-07 10:49:22,990034
0,1,5,8,9,4,2,1,2021-08-07 10:49:22,990034
-1,-3,-4,-6,-10,-3,-6,-3,2021-08-07 10:49:22,990034
0,0,-1,1,-1,1,0,1,2021-08-07 10:49:22,991032
3,2,3,8,8,1,2,1,2021-08-07 10:49:22,991032
0,-3,-4,-5,0,-2,-1,-1,2021-08-07 10:49:22,991032
-1,-1,-3,-6,-11,-4,-1,-1,2021-08-07 10:49:22,991032
-1,-3,1,-1,6,2,-1,-1,2021-08-07 10:49:22,991032
0,2,2,12,11,4,3,0,2021-08-07 10:49:22,991032
1,1,0,0,-2,-2,0,2,2021-08-07 10:49:23,022031
-1,-3,1,7,8,0,-1,-1,2021-08-07 10:49:23,038030
-3,-2,-5,-14,-15,-6,-4,-2,2021-08-07 10:49:23,054030
-2,-3,-5,-11,-11,-5,-2,-2,2021-08-07 10:49:23,069030
1,0,-1,0,8,3,0,0,2021-08-07 10:49:23,069030
1,2,1,4,4,2,1,1,2021-08-07 10:49:23,069030
0,-1,0,3,4,0,0,-3,2021-08-07 10:49:23,069030
-1,-3,-2,-6,-8,-2,-2,-2,2021-08-07 10:49:23,069030
-4,-4,-3,-8,-6,-4,-3,-3,2021-08-07 10:49:23,069030
3,4,3,8,7,4,1,1,2021-08-07 10:49:23,069030
0,-2,-3,-4,0,-1,-1,0,2021-08-07 10:49:23,070033
0,-1,0,0,-10,-4,-2,-2,2021-08-07 10:49:23,070033
-5,-2,-1,1,1,-2,-3,-3,2021-08-07 10:49:23,070033
3,4,6,17,22,11,5,4,2021-08-07 10:49:23,070033
-2,-2,-3,-5,-8,-4,-2,-1,2021-08-07 10:49:23,070033
-7,-7,-5,-9,-13,-7,-4,-6,2021-08-07 10:49:23,070033
3,5,1,-3,3,4,3,4,2021-08-07 10:49:23,084031
-2,-2,-2,-5,-9,-6,-2,-2,2021-08-07 10:49:23,084031
-1,-2,0,5,2,0,-1,0,2021-08-07 10:49:23,084031
-4,-3,-4,-12,-22,-8,-3,-1,2021-08-07 10:49:23,084031
-1,-2,-2,3,14,5,1,-1,2021-08-07 10:49:23,116032
1,2,-2,-1,8,4,3,0,2021-08-07 10:49:23,116032
-4,-4,-7,-14,-14,-5,-3,-2,2021-08-07 10:49:23,116032
-3,-3,-4,-8,-9,-8,-6,-3,2021-08-07 10:49:23,116032
2,1,2,1,7,5,0,1,2021-08-07 10:49:23,132030
-3,-3,-1,-1,-6,-4,-4,-4,2021-08-07 10:49:23,147034
2,3,4,11,17,7,2,1,2021-08-07 10:49:23,163030
0,-1,-2,-9,-10,-5,-1,-1,2021-08-07 10:49:23,179032
0,1,0,1,-4,-1,0,1,2021-08-07 10:49:23,179032
-4,-4,-4,-6,-10,-5,-5,-1,2021-08-07 10:49:23,179032
-2,-2,-2,0,4,1,0,-1,2021-08-07 10:49:23,179032
3,2,2,4,4,3,2,2,2021-08-07 10:49:23,179032
3,2,0,6,11,3,2,2,2021-08-07 10:49:23,179032
-3,-3,-1,2,4,1,-1,-3,2021-08-07 10:49:23,180032
0,1,-1,1,-10,-5,-1,-1,2021-08-07 10:49:23,180032
0,0,-3,-6,0,-2,-1,-1,2021-08-07 10:49:23,180032
-2,-1,-1,-10,-9,-6,-2,-3,2021-08-07 10:49:23,195032
-2,-2,-3,-1,2,0,-1,-1,2021-08-07 10:49:23,211033
-1,0,0,-1,-2,0,-2,0,2021-08-07 10:49:23,227032
1,1,0,4,10,5,2,1,2021-08-07 10:49:23,227032
-4,-8,-12,-20,-25,-11,-5,-6,2021-08-07 10:49:23,227032
3,2,6,9,14,6,3,3,2021-08-07 10:49:23,227032
0,2,5,7,4,2,1,2,2021-08-07 10:49:23,227032
0,0,-1,0,2,2,1,0,2021-08-07 10:49:23,227032
-5,-5,-6,-11,-14,-8,-3,-3,2021-08-07 10:49:23,227032
-3,-4,-5,-13,-26,-15,-3,-2,2021-08-07 10:49:23,228032
1,0,-1,3,17,8,2,1,2021-08-07 10:49:23,228032
-1,2,3,11,13,6,0,0,2021-08-07 10:49:23,228032
-3,-1,-2,-2,-7,-4,-2,-3,2021-08-07 10:49:23,259032
1,-1,-2,7,12,5,2,1,2021-08-07 10:49:23,275031
0,-1,-6,-18,-20,-9,-3,-3,2021-08-07 10:49:23,307032
2,4,7,18,18,8,3,2,2021-08-07 10:49:23,307032
0,-1,-1,-1,1,1,0,0,2021-08-07 10:49:23,323032
-3,-2,4,5,-1,-1,-2,-2,2021-08-07 10:49:23,323032
-4,-5,-7,-11,-8,-5,-2,-3,2021-08-07 10:49:23,323032
-3,-2,-6,-13,-16,-7,-5,-3,2021-08-07 10:49:23,323032
2,2,5,12,10,3,2,2,2021-08-07 10:49:23,324033
1,0,0,-1,-1,0,-1,-1,2021-08-07 10:49:23,324033
0,1,4,6,6,2,-1,-2,2021-08-07 10:49:23,324033
-3,-4,-4,-2,-2,-3,0,-2,2021-08-07 10:49:23,324033
0,0,1,6,-5,-3,-1,-1,2021-08-07 10:49:23,324033
-1,-1,-5,-7,3,1,-1,0,2021-08-07 10:49:23,324033
-5,-3,-5,-13,-16,-7,-4,-4,2021-08-07 10:49:23,324033
5,7,9,19,18,8,5,4,2021-08-07 10:49:23,324033
1,1,5,5,-3,-1,-1,-1,2021-08-07 10:49:23,324033
-3,-5,-10,-22,-20,-8,-4,-4,2021-08-07 10:49:23,325033
5,4,7,18,12,4,3,2,2021-08-07 10:49:23,325033
0,-1,2,6,12,4,1,0,2021-08-07 10:49:23,325033
-2,-3,-2,4,1,-2,-2,-1,2021-08-07 10:49:23,355032
-4,-2,-4,-10,-17,-8,-3,-2,2021-08-07 10:49:23,355032
2,3,4,10,18,6,2,1,2021-08-07 10:49:23,355032
-4,-3,-4,-9,-13,-7,-3,-4,2021-08-07 10:49:23,355032
-2,-1,-2,-2,-5,-3,-2,-2,2021-08-07 10:49:23,371032
2,1,0,10,15,6,2,0,2021-08-07 10:49:23,371032
-3,-2,-5,-6,-5,-2,-1,0,2021-08-07 10:49:23,371032
-2,-1,-1,-6,-3,-2,-2,-1,2021-08-07 10:49:23,371032
-2,-1,-2,-2,-4,-3,-2,-2,2021-08-07 10:49:23,387032
-3,-4,-4,-11,-9,-5,-4,-3,2021-08-07 10:49:23,387032
2,2,3,5,5,2,2,1,2021-08-07 10:49:23,387032
-1,-1,-2,1,3,3,-3,-1,2021-08-07 10:49:23,387032
-1,1,1,0,-1,1,0,0,2021-08-07 10:49:23,418031
0,0,-3,-9,-5,-3,-2,-1,2021-08-07 10:49:23,418031
-3,-4,2,10,6,1,-1,-1,2021-08-07 10:49:23,418031
-3,-3,-6,-17,-19,-10,-3,-2,2021-08-07 10:49:23,418031
1,1,0,-2,4,0,-1,-1,2021-08-07 10:49:23,434032
-1,-1,2,3,-2,-3,-2,-2,2021-08-07 10:49:23,434032
-3,-4,-6,-13,-6,-1,0,-2,2021-08-07 10:49:23,434032
1,1,4,7,11,7,2,1,2021-08-07 10:49:23,434032
1,1,3,5,3,1,0,2,2021-08-07 10:49:23,450032
-1,0,-2,3,5,3,1,0,2021-08-07 10:49:23,450032
4,2,4,5,1,-1,1,1,2021-08-07 10:49:23,450032
-2,-3,-3,-1,-6,-4,-3,-2,2021-08-07 10:49:23,450032
-3,-3,-2,1,1,0,0,0,2021-08-07 10:49:23,466032
-3,0,4,2,-3,-1,-1,-2,2021-08-07 10:49:23,466032
-1,1,-4,-15,-14,-6,-3,-1,2021-08-07 10:49:23,466032
1,1,4,9,15,6,2,1,2021-08-07 10:49:23,466032
-4,-3,-5,-4,-7,-2,-3,-4,2021-08-07 10:49:23,497032
1,2,3,4,-1,0,2,1,2021-08-07 10:49:23,497032
-3,-3,-7,-13,-12,-6,-4,-3,2021-08-07 10:49:23,497032
3,4,8,16,13,5,4,2,2021-08-07 10:49:23,497032
-2,-3,-3,-7,-8,-5,-2,-2,2021-08-07 10:49:23,497032
-3,-4,-3,-4,-1,-1,-1,-3,2021-08-07 10:49:23,497032
1,2,-1,4,-5,0,-1,3,2021-08-07 10:49:23,513031
1,2,3,-2,-2,0,-3,1,2021-08-07 10:49:23,513031
-1,-2,-5,-8,-5,-2,-4,-2,2021-08-07 10:49:23,529031
3,1,3,13,16,8,3,1,2021-08-07 10:49:23,529031
-2,0,1,8,3,0,0,-1,2021-08-07 10:49:23,529031
-3,-5,-9,-17,-14,-8,-3,-2,2021-08-07 10:49:23,529031
-3,0,-1,-6,-6,-4,-3,-3,2021-08-07 10:49:23,545033
1,0,2,3,4,0,-1,-1,2021-08-07 10:49:23,545033
-2,-3,-1,-6,-7,-3,-3,-5,2021-08-07 10:49:23,545033
0,-1,-5,-14,-11,-6,-4,-2,2021-08-07 10:49:23,545033
2,2,5,14,12,6,3,1,2021-08-07 10:49:23,561032
-3,-5,-8,-18,-17,-7,-4,0,2021-08-07 10:49:23,561032
1,1,2,9,13,7,1,1,2021-08-07 10:49:23,577032
-3,-5,-4,-1,-8,-3,-1,-2,2021-08-07 10:49:23,593031
-3,-1,-2,-5,-3,-2,-3,-3,2021-08-07 10:49:23,609032
-5,-2,-3,-7,-3,-3,-3,-4,2021-08-07 10:49:23,609032
-3,-1,3,3,-5,-4,-4,-4,2021-08-07 10:49:23,609032
3,2,4,12,11,5,2,2,2021-08-07 10:49:23,609032
1,2,2,7,12,6,1,3,2021-08-07 10:49:23,609032
-1,0,-2,-2,-8,-3,1,0,2021-08-07 10:49:23,609032
0,-2,-1,3,6,1,1,-1,2021-08-07 10:49:23,609032
-5,-3,-5,-15,-30,-12,-5,-5,2021-08-07 10:49:23,609032
0,0,1,4,18,9,2,2,2021-08-07 10:49:23,625033
4,1,5,13,11,5,2,2,2021-08-07 10:49:23,625033
-2,0,-3,-9,-8,-4,-1,-2,2021-08-07 10:49:23,625033
-3,-3,-2,0,-1,-2,-1,-2,2021-08-07 10:49:23,625033
-4,-4,-6,-10,-16,-7,-2,-2,2021-08-07 10:49:23,657032
0,-1,-3,-7,-4,-2,0,0,2021-08-07 10:49:23,657032
-2,-3,-5,-2,-2,-2,-3,-3,2021-08-07 10:49:23,657032
1,-1,-3,-3,1,2,1,1,2021-08-07 10:49:23,670032
0,-1,1,5,2,0,0,-1,2021-08-07 10:49:23,671031
0,0,0,-3,0,2,0,0,2021-08-07 10:49:23,671031
-2,-3,0,4,0,-2,-2,-1,2021-08-07 10:49:23,671031
-5,-5,-7,-11,-19,-11,-4,-4,2021-08-07 10:49:23,671031
0,0,0,0,13,5,2,-1,2021-08-07 10:49:23,689034
0,0,0,1,-1,-1,-1,-2,2021-08-07 10:49:23,689034
-1,-2,-3,-9,-7,-4,-2,-1,2021-08-07 10:49:23,689034
2,2,4,17,17,7,2,1,2021-08-07 10:49:23,689034
-1,-1,-2,-8,-19,-9,-5,-2,2021-08-07 10:49:23,705032
-2,-1,-4,-9,-4,-1,-2,-1,2021-08-07 10:49:23,705032
1,1,2,10,12,5,2,1,2021-08-07 10:49:23,705032
0,0,0,2,2,-1,-1,-2,2021-08-07 10:49:23,705032
0,-2,0,0,-3,-1,1,-2,2021-08-07 10:49:23,737031
-5,-4,0,2,-3,-3,-2,-3,2021-08-07 10:49:23,753031
0,0,-4,-8,-7,-1,1,0,2021-08-07 10:49:23,753031
0,-1,-2,-7,1,1,1,0,2021-08-07 10:49:23,753031
3,1,4,10,11,5,3,1,2021-08-07 10:49:23,753031
-2,0,0,-4,-9,-6,-3,-1,2021-08-07 10:49:23,753031
-3,-3,-2,0,-1,-1,-2,-2,2021-08-07 10:49:23,753031
-1,-2,-5,-7,-6,-4,-2,-1,2021-08-07 10:49:23,753031
-7,-6,-10,-14,-5,-6,-4,-4,2021-08-07 10:49:23,769031
3,4,5,15,25,15,7,1,2021-08-07 10:49:23,769031
1,2,3,10,4,1,2,-1,2021-08-07 10:49:23,769031
-3,-2,-3,-8,-7,-4,-3,-2,2021-08-07 10:49:23,769031
-1,0,-2,-9,-19,-8,-4,0,2021-08-07 10:49:23,800030
0,1,1,0,2,-1,-2,0,2021-08-07 10:49:23,800030
0,-1,-5,-2,4,1,0,0,2021-08-07 10:49:23,800030
-1,-1,-4,-4,-4,-2,-1,-2,2021-08-07 10:49:23,800030
-1,-1,-2,-3,-3,-1,-1,1,2021-08-07 10:49:23,816031
-3,-2,-3,-1,-8,-2,-1,-1,2021-08-07 10:49:23,816031
-1,1,1,-3,4,2,0,0,2021-08-07 10:49:23,816031
5,5,10,21,18,10,4,5,2021-08-07 10:49:23,816031
0,0,1,3,-2,-2,-1,-2,2021-08-07 10:49:23,832035
2,-2,-2,-6,-7,-4,-2,-1,2021-08-07 10:49:23,832035
-5,-6,-9,-17,-25,-16,-8,-6,2021-08-07 10:49:23,832035
-2,-4,-6,-10,-15,-6,-3,-4,2021-08-07 10:49:23,832035
6,7,13,24,34,17,6,4,2021-08-07 10:49:23,848033
4,3,5,24,24,11,5,3,2021-08-07 10:49:23,848033
-2,-1,-1,-2,-3,-4,-1,-2,2021-08-07 10:49:23,848033
-3,0,-2,-5,0,-2,-2,0,2021-08-07 10:49:23,848033
-2,-4,-7,-17,-23,-10,-4,-3,2021-08-07 10:49:23,879030
-4,-3,-4,-15,-21,-10,-4,-3,2021-08-07 10:49:23,879030
1,0,2,9,20,8,1,3,2021-08-07 10:49:23,879030
-1,-1,0,2,1,1,0,-1,2021-08-07 10:49:23,879030
-3,-2,-4,-5,-12,-6,-3,-3,2021-08-07 10:49:23,879030
-1,-3,-5,-13,-1,-2,-1,-2,2021-08-07 10:49:23,879030
2,2,4,9,6,3,0,0,2021-08-07 10:49:23,895032
-1,-1,-1,-2,1,-1,-2,-2,2021-08-07 10:49:23,911032
5,4,5,13,9,2,3,1,2021-08-07 10:49:23,943031
-1,0,-3,-8,-16,-6,-1,0,2021-08-07 10:49:23,943031
0,1,1,2,10,3,2,1,2021-08-07 10:49:23,943031
-3,-3,-3,1,-1,-4,-3,-4,2021-08-07 10:49:23,943031
-4,-4,-3,-4,2,0,-2,-2,2021-08-07 10:49:23,943031
-1,0,0,-3,-8,-3,-1,0,2021-08-07 10:49:23,943031
-3,-3,-5,-15,-15,-5,-1,-4,2021-08-07 10:49:23,943031
2,1,3,9,11,6,4,1,2021-08-07 10:49:23,944034
-3,-3,-3,-4,3,-2,-3,-1,2021-08-07 10:49:23,944034
-3,-3,-1,-2,-4,-4,-3,-2,2021-08-07 10:49:23,959031
-2,-1,-4,-11,-9,-3,-2,0,2021-08-07 10:49:23,974032
-1,0,2,7,6,2,0,0,2021-08-07 10:49:23,974032
0,0,0,1,-2,0,0,-1,2021-08-07 10:49:23,989031
1,1,0,8,10,2,1,0,2021-08-07 10:49:24,005030
2,-1,3,5,1,1,-1,0,2021-08-07 10:49:24,021032
-5,-7,-8,-18,-20,-11,-5,-4,2021-08-07 10:49:24,021032
3,4,7,14,12,6,2,4,2021-08-07 10:49:24,021032
-1,-1,-3,-5,-13,-7,-3,-2,2021-08-07 10:49:24,021032
-2,0,0,2,7,5,1,-1,2021-08-07 10:49:24,021032
-3,-2,-5,-3,1,-1,-1,-1,2021-08-07 10:49:24,021032
-1,-2,-1,6,4,1,1,0,2021-08-07 10:49:24,021032
-1,-3,-1,-3,-12,-6,-3,0,2021-08-07 10:49:24,022033
2,1,3,6,7,4,2,2,2021-08-07 10:49:24,022033
3,2,3,6,5,1,2,0,2021-08-07 10:49:24,022033
-4,-3,-3,-4,-6,-5,-4,-3,2021-08-07 10:49:24,036032
-5,-3,-7,-10,-14,-7,-4,-4,2021-08-07 10:49:24,036032
0,1,2,10,6,5,3,1,2021-08-07 10:49:24,036032
0,1,3,-1,5,3,-2,2,2021-08-07 10:49:24,036032
0,0,-3,-8,-7,-3,0,-1,2021-08-07 10:49:24,052033
-4,-5,-8,-17,-17,-11,-5,-5,2021-08-07 10:49:24,068032
3,4,6,17,22,7,3,4,2021-08-07 10:49:24,084030
0,-3,-2,-2,-3,-1,1,-1,2021-08-07 10:49:24,099031
-2,-2,0,4,-1,0,-2,-4,2021-08-07 10:49:24,099031
1,1,1,-1,8,6,1,1,2021-08-07 10:49:24,099031
-2,-4,-4,-6,-9,-6,-2,-3,2021-08-07 10:49:24,099031
-1,-3,-4,-8,-8,-3,-2,-3,2021-08-07 10:49:24,099031
2,0,2,4,1,1,2,2,2021-08-07 10:49:24,099031
1,2,4,13,16,6,1,1,2021-08-07 10:49:24,100032
-5,-3,-6,-7,-15,-9,-6,-3,2021-08-07 10:49:24,113032
2,1,2,3,2,4,2,2,2021-08-07 10:49:24,113032
-7,-8,-10,-16,-17,-8,-6,-5,2021-08-07 10:49:24,113032
1,-1,-3,-2,1,-1,-1,-1,2021-08-07 10:49:24,113032
2,5,9,8,6,5,1,0,2021-08-07 10:49:24,113032
-2,0,-2,4,2,-2,-1,-2,2021-08-07 10:49:24,113032
1,-3,-4,-2,0,0,-1,1,2021-08-07 10:49:24,131033
0,0,1,5,3,0,3,1,2021-08-07 10:49:24,147031
-4,-5,-7,-10,-12,-7,-6,-3,2021-08-07 10:49:24,147031
-5,-3,-6,-15,-17,-10,-5,-4,2021-08-07 10:49:24,147031
2,1,2,0,2,4,-1,1,2021-08-07 10:49:24,163031
0,0,4,15,15,5,1,0,2021-08-07 10:49:24,163031
1,-1,-1,-3,-6,-2,-1,0,2021-08-07 10:49:24,163031
0,0,-1,-1,-1,0,-1,-1,2021-08-07 10:49:24,163031
0,0,-1,-4,-6,-4,-1,0,2021-08-07 10:49:24,179031
-1,-1,1,2,3,2,0,-1,2021-08-07 10:49:24,195031
-3,0,-3,-6,-5,-5,-2,-2,2021-08-07 10:49:24,211031
-3,-3,-2,-6,-10,-5,-4,-3,2021-08-07 10:49:24,227033
2,4,3,4,-3,1,1,1,2021-08-07 10:49:24,227033
0,0,-4,0,17,3,-1,1,2021-08-07 10:49:24,243031
8,7,13,30,22,13,7,7,2021-08-07 10:49:24,243031
-2,-2,2,11,16,3,2,-2,2021-08-07 10:49:24,243031
-5,-5,-7,-12,-12,-7,-4,-4,2021-08-07 10:49:24,243031
-2,1,3,-2,-8,-4,-3,-1,2021-08-07 10:49:24,243031
-4,-3,-4,-10,-13,-6,-5,-5,2021-08-07 10:49:24,243031
2,1,1,5,8,3,2,1,2021-08-07 10:49:24,243031
-1,-2,-1,-1,-4,-3,-2,-2,2021-08-07 10:49:24,243031
-4,-4,-3,-4,-12,-7,-3,-4,2021-08-07 10:49:24,243031
-5,-8,-12,-34,-20,-11,-5,-2,2021-08-07 10:49:24,244033
6,8,14,33,34,17,4,4,2021-08-07 10:49:24,244033
-2,-2,-5,0,12,2,0,-3,2021-08-07 10:49:24,244033
-1,-2,-2,-10,-11,-3,1,0,2021-08-07 10:49:24,244033
-4,-1,-5,-11,-16,-9,-4,-4,2021-08-07 10:49:24,244033
-3,-3,-7,-18,-14,-6,-6,-2,2021-08-07 10:49:24,244033
3,5,8,11,23,9,2,1,2021-08-07 10:49:24,274031
3,3,3,12,9,6,1,1,2021-08-07 10:49:24,274031
0,-2,0,6,8,2,0,-1,2021-08-07 10:49:24,274031
-2,-5,-7,-15,-18,-7,-3,0,2021-08-07 10:49:24,274031
-1,-3,-3,-9,-4,-4,-1,-1,2021-08-07 10:49:24,305031
-4,-2,-4,-5,-10,-6,-3,-2,2021-08-07 10:49:24,321030
1,0,0,-2,0,1,1,1,2021-08-07 10:49:24,337032
0,1,1,5,1,0,1,1,2021-08-07 10:49:24,337032
0,-1,-2,-5,-3,2,1,0,2021-08-07 10:49:24,337032
0,-3,-5,-4,-1,-1,1,0,2021-08-07 10:49:24,337032
1,-1,-1,1,-8,-4,0,-1,2021-08-07 10:49:24,337032
-4,0,4,9,22,7,1,-2,2021-08-07 10:49:24,337032
0,1,2,1,4,4,2,-1,2021-08-07 10:49:24,337032
-5,0,-2,-7,-16,-8,-7,-4,2021-08-07 10:49:24,338032
0,0,-3,-4,1,-2,0,-1,2021-08-07 10:49:24,338032
4,4,2,9,11,5,3,3,2021-08-07 10:49:24,338032
0,1,-2,0,0,-2,-2,0,2021-08-07 10:49:24,353032
1,0,-1,-2,-5,-2,-1,-1,2021-08-07 10:49:24,369032
-3,-6,-6,-15,-21,-10,-3,-4,2021-08-07 10:49:24,369032
1,1,2,10,14,6,1,0,2021-08-07 10:49:24,369032
-2,-3,-3,-5,-6,-1,-4,-2,2021-08-07 10:49:24,369032
2,2,4,9,14,6,2,0,2021-08-07 10:49:24,369032
-2,0,1,4,-3,-3,-1,0,2021-08-07 10:49:24,369032
-2,-4,-7,-12,-14,-6,-2,-2,2021-08-07 10:49:24,369032
-5,-6,-7,-12,-13,-9,-4,-4,2021-08-07 10:49:24,401032
1,1,2,8,14,4,5,0,2021-08-07 10:49:24,401032
3,2,5,6,4,2,0,0,2021-08-07 10:49:24,401032
-3,-2,-4,-10,-11,-6,-3,-3,2021-08-07 10:49:24,401032
0,0,1,-1,-10,-1,1,1,2021-08-07 10:49:24,417032
0,1,3,10,27,12,3,0,2021-08-07 10:49:24,433030
-3,-3,-2,2,7,3,-2,-2,2021-08-07 10:49:24,433030
0,1,-2,-8,-11,-3,-1,0,2021-08-07 10:49:24,433030
-2,-3,-3,-6,-8,-7,-4,-2,2021-08-07 10:49:24,433030
0,-2,-2,-2,-7,-3,-1,0,2021-08-07 10:49:24,433030
0,-2,-4,0,7,2,0,-1,2021-08-07 10:49:24,433030
-2,-1,2,-5,-3,-3,-3,-3,2021-08-07 10:49:24,433030
2,3,2,5,-3,-3,-1,0,2021-08-07 10:49:24,449032
-1,-2,-7,-22,-25,-8,-3,-2,2021-08-07 10:49:24,449032
1,2,5,24,43,17,6,2,2021-08-07 10:49:24,449032
-3,-4,-4,-2,-15,-7,-3,-4,2021-08-07 10:49:24,449032
-2,-1,1,6,11,2,2,-2,2021-08-07 10:49:24,481032
2,3,0,-2,-8,-4,-3,-1,2021-08-07 10:49:24,497030
-3,-5,-7,-20,-28,-11,-6,-4,2021-08-07 10:49:24,497030
4,3,5,11,24,11,2,1,2021-08-07 10:49:24,497030
-4,-5,-3,0,-10,-8,-4,-4,2021-08-07 10:49:24,497030
-1,-1,-1,-6,-4,0,0,0,2021-08-07 10:49:24,497030
-1,-1,3,7,4,0,0,-1,2021-08-07 10:49:24,497030
-2,0,-1,2,-2,1,1,1,2021-08-07 10:49:24,497030
0,0,-1,0,9,4,0,1,2021-08-07 10:49:24,513030
-1,0,-1,1,-7,-4,-1,-3,2021-08-07 10:49:24,513030
-1,-2,-3,-3,-2,-1,-1,-2,2021-08-07 10:49:24,513030
3,2,-1,-9,-12,-5,-1,0,2021-08-07 10:49:24,513030
-5,-9,-10,-15,-18,-8,-6,-5,2021-08-07 10:49:24,545032
-1,-1,1,11,23,8,2,1,2021-08-07 10:49:24,545032
6,11,11,8,4,5,5,4,2021-08-07 10:49:24,545032
-4,-5,-2,2,1,-1,-1,-4,2021-08-07 10:49:24,545032
0,3,-1,2,0,-1,1,0,2021-08-07 10:49:24,545032
-3,-5,-7,-14,-21,-10,-6,-2,2021-08-07 10:49:24,546032
-1,-1,3,11,21,9,1,2,2021-08-07 10:49:24,557032
1,0,-1,4,14,5,2,1,2021-08-07 10:49:24,557032
0,-4,-3,4,8,5,2,-1,2021-08-07 10:49:24,576032
-1,-2,0,0,-6,-6,-4,-4,2021-08-07 10:49:24,576032
-4,-6,-10,-21,-23,-11,-4,-3,2021-08-07 10:49:24,576032
0,3,7,8,-1,1,0,0,2021-08-07 10:49:24,576032
3,5,7,13,15,9,5,3,2021-08-07 10:49:24,592031
-2,-4,-6,-9,-8,-5,-2,-2,2021-08-07 10:49:24,592031
-3,-2,-1,4,-7,-6,-3,-2,2021-08-07 10:49:24,592031
3,3,2,-4,-2,-1,0,3,2021-08-07 10:49:24,592031
2,5,5,-1,-8,-1,-1,0,2021-08-07 10:49:24,607032
-3,-2,-1,3,0,-3,-2,-2,2021-08-07 10:49:24,622032
-3,-6,-8,-10,-3,0,0,-2,2021-08-07 10:49:24,638031
2,0,-2,0,-8,-2,1,-1,2021-08-07 10:49:24,638031
-2,-2,-3,-1,-3,-1,-3,-1,2021-08-07 10:49:24,638031
1,3,3,-3,1,1,4,1,2021-08-07 10:49:24,638031
-5,-6,-4,-1,-6,-5,-5,-5,2021-08-07 10:49:24,638031
-3,-6,-3,2,-2,-1,-3,-3,2021-08-07 10:49:24,638031
1,1,-1,-4,-4,0,-1,0,2021-08-07 10:49:24,654030
-5,-6,-8,-15,-25,-11,-4,-4,2021-08-07 10:49:24,670030
9,9,17,42,54,27,10,6,2021-08-07 10:49:24,686030
-3,-3,-6,-15,-18,-8,-4,-4,2021-08-07 10:49:24,686030
-1,-2,-1,-2,-3,-2,-2,0,2021-08-07 10:49:24,686030
3,3,5,17,24,9,3,2,2021-08-07 10:49:24,686030
-4,-4,-3,-9,-22,-12,-5,-3,2021-08-07 10:49:24,686030
-1,-2,-2,-2,4,0,0,0,2021-08-07 10:49:24,686030
-3,-3,-4,-8,-18,-10,-4,-2,2021-08-07 10:49:24,686030
0,0,-2,-4,2,5,0,0,2021-08-07 10:49:24,686030
-1,0,0,-1,4,1,-1,-2,2021-08-07 10:49:24,687032
2,4,3,12,27,11,4,2,2021-08-07 10:49:24,687032
-2,-3,-2,-3,-7,-5,-4,-3,2021-08-07 10:49:24,718030
2,2,0,4,5,2,1,1,2021-08-07 10:49:24,734034
-4,-6,-9,-17,-24,-11,-6,-6,2021-08-07 10:49:24,734034
-4,-4,-7,-23,-27,-10,-5,-4,2021-08-07 10:49:24,734034
4,4,9,14,21,10,4,3,2021-08-07 10:49:24,734034
0,-1,0,9,15,7,2,0,2021-08-07 10:49:24,734034
-3,-4,-5,1,-1,0,-2,-1,2021-08-07 10:49:24,734034
0,3,2,5,7,2,1,1,2021-08-07 10:49:24,734034
-1,-3,-4,-8,-7,-6,-4,-3,2021-08-07 10:49:24,750030
2,4,8,9,10,7,2,1,2021-08-07 10:49:24,750030
-4,-5,-10,-22,-30,-15,-6,-4,2021-08-07 10:49:24,750030
-5,-8,-10,-4,6,-2,-4,-4,2021-08-07 10:49:24,750030
3,2,4,12,11,5,3,3,2021-08-07 10:49:24,782035
0,-1,-1,-5,-5,-3,-3,-2,2021-08-07 10:49:24,798031
0,2,3,-3,-3,-1,0,1,2021-08-07 10:49:24,830036
0,0,2,-1,-6,-1,0,-2,2021-08-07 10:49:24,830036
-3,-4,-5,-4,1,-2,-4,-6,2021-08-07 10:49:24,830036
0,-2,-6,-12,-9,-5,0,-2,2021-08-07 10:49:24,830036
0,0,0,-5,-9,-2,-2,-1,2021-08-07 10:49:24,830036
2,4,6,16,21,9,2,2,2021-08-07 10:49:24,830036
-2,-3,-1,0,3,0,0,-1,2021-08-07 10:49:24,831034
-8,-12,-10,-10,-10,-6,-5,-6,2021-08-07 10:49:24,831034
6,9,8,5,1,1,3,6,2021-08-07 10:49:24,831034
-4,-7,-8,-15,-27,-11,-4,-4,2021-08-07 10:49:24,831034
-1,0,0,0,7,0,-2,-3,2021-08-07 10:49:24,831034
0,3,1,-3,-1,1,2,0,2021-08-07 10:49:24,831034
-2,-4,-3,8,7,-1,-1,-1,2021-08-07 10:49:24,831034
-7,-10,-8,-8,-12,-7,-6,-5,2021-08-07 10:49:24,831034
9,14,13,11,6,7,5,6,2021-08-07 10:49:24,862032
-3,-4,-4,-10,-23,-12,-6,-3,2021-08-07 10:49:24,862032
1,3,4,12,16,7,1,2,2021-08-07 10:49:24,862032
-1,1,1,-5,11,5,2,1,2021-08-07 10:49:24,862032
-5,-8,-9,-10,-9,-4,-3,-4,2021-08-07 10:49:24,862032
1,2,5,9,0,-1,1,1,2021-08-07 10:49:24,878032
-3,-5,-6,-15,-18,-8,-4,-4,2021-08-07 10:49:24,910032
3,2,6,14,14,4,3,2,2021-08-07 10:49:24,910032
1,0,-1,7,11,5,3,1,2021-08-07 10:49:24,910032
-1,2,-3,-1,-3,-1,-1,0,2021-08-07 10:49:24,910032
0,2,1,-2,1,1,0,-1,2021-08-07 10:49:24,910032
-2,0,-3,-4,-12,-5,-4,-3,2021-08-07 10:49:24,910032
-5,-7,-4,-12,-17,-10,-5,-5,2021-08-07 10:49:24,911032
3,5,3,8,7,6,4,3,2021-08-07 10:49:24,911032
-1,-3,-5,-10,-5,-2,-3,-2,2021-08-07 10:49:24,911032
1,2,2,2,0,-2,1,-1,2021-08-07 10:49:24,911032
-2,-4,-3,-4,0,1,1,-2,2021-08-07 10:49:24,926032
-4,-3,-3,1,3,0,-1,-1,2021-08-07 10:49:24,958032
0,-1,-4,-10,-6,-2,0,0,2021-08-07 10:49:24,958032
2,2,3,3,-1,1,1,0,2021-08-07 10:49:24,958032
-3,-2,-3,-9,-11,-3,-3,-1,2021-08-07 10:49:24,958032
-2,-4,-5,-6,-12,-10,-3,-3,2021-08-07 10:49:24,958032
0,-1,1,10,22,11,2,0,2021-08-07 10:49:24,958032
7,7,8,27,47,18,7,2,2021-08-07 10:49:24,958032
-3,-3,-4,-6,-9,-4,-2,0,2021-08-07 10:49:24,974030
-1,0,1,-1,2,0,-2,-1,2021-08-07 10:49:24,974030
-5,-6,-6,-16,-32,-17,-7,-4,2021-08-07 10:49:24,990032
-4,-4,-4,-12,-11,-5,-4,-3,2021-08-07 10:49:24,990032
2,2,4,14,19,8,2,2,2021-08-07 10:49:24,990032
0,-2,1,-4,-4,-1,-2,-1,2021-08-07 10:49:24,990032
0,3,3,4,-2,1,0,0,2021-08-07 10:49:24,990032
-2,-1,-6,-11,-13,-2,0,1,2021-08-07 10:49:24,990032
-3,-3,-3,-13,-7,-7,-4,-4,2021-08-07 10:49:25,022033
3,3,4,12,6,3,2,2,2021-08-07 10:49:25,037032
2,2,0,9,14,5,2,0,2021-08-07 10:49:25,052032
-3,-3,0,1,-2,-2,-3,-2,2021-08-07 10:49:25,052032
1,2,2,4,-4,-3,-1,0,2021-08-07 10:49:25,052032
-6,-4,-5,-10,-12,-4,-5,-3,2021-08-07 10:49:25,052032
-1,-1,0,-4,-4,-4,-3,-2,2021-08-07 10:49:25,052032
2,2,2,15,27,10,4,2,2021-08-07 10:49:25,052032
-1,-1,0,0,1,-1,0,-1,2021-08-07 10:49:25,052032
-1,-2,0,0,2,1,0,-1,2021-08-07 10:49:25,052032
-3,-3,-3,-7,-12,-6,-2,-2,2021-08-07 10:49:25,052032
-5,-5,-7,-13,-21,-10,-6,-5,2021-08-07 10:49:25,053032
3,4,6,12,16,10,4,4,2021-08-07 10:49:25,082031
-1,0,0,5,6,1,1,-1,2021-08-07 10:49:25,098032
-2,-3,-3,-8,-8,-4,-3,-3,2021-08-07 10:49:25,114032
-4,-1,1,-4,-14,-8,-5,-3,2021-08-07 10:49:25,114032
-3,-4,-3,-7,-12,-6,-5,-4,2021-08-07 10:49:25,114032
6,6,5,13,12,9,5,5,2021-08-07 10:49:25,114032
3,3,9,30,43,17,7,4,2021-08-07 10:49:25,114032
6,10,17,3,-8,-1,3,2,2021-08-07 10:49:25,114032
-3,-2,-3,-5,-7,-3,-2,-1,2021-08-07 10:49:25,114032
-6,-17,-26,-13,-13,-7,-5,-4,2021-08-07 10:49:25,115033
-12,-15,-34,-26,-27,-13,-7,-7,2021-08-07 10:49:25,115033
-5,-5,1,8,21,7,-2,-4,2021-08-07 10:49:25,115033
1,6,8,-1,-6,-1,-1,1,2021-08-07 10:49:25,130034
2,9,16,-1,-1,-2,0,-1,2021-08-07 10:49:25,130034
6,5,9,10,13,7,4,4,2021-08-07 10:49:25,130034
-1,-2,-6,-13,-10,-5,-1,0,2021-08-07 10:49:25,130034
-3,-5,-6,-8,-10,-7,-4,-2,2021-08-07 10:49:25,162034
0,-2,1,2,8,1,0,1,2021-08-07 10:49:25,162034
-2,-4,-2,-4,-8,-5,-2,-4,2021-08-07 10:49:25,162034
-3,-3,-6,-7,-12,-5,-3,-2,2021-08-07 10:49:25,162034
2,0,-1,6,7,1,2,0,2021-08-07 10:49:25,162034
-2,-5,-9,-26,-25,-7,-4,-2,2021-08-07 10:49:25,163032
4,8,17,36,43,15,5,3,2021-08-07 10:49:25,178032
-1,-3,-3,-2,-1,1,0,-1,2021-08-07 10:49:25,194034
-2,-1,-7,-1,-4,-3,-1,-1,2021-08-07 10:49:25,194034
-5,-1,-3,-13,-12,-8,-5,-4,2021-08-07 10:49:25,194034
2,4,8,17,24,13,3,4,2021-08-07 10:49:25,194034
-3,-5,-7,-5,-9,-4,-1,-1,2021-08-07 10:49:25,194034
-2,-3,-5,-9,-6,-5,-3,-1,2021-08-07 10:49:25,226032
3,6,7,16,19,9,3,1,2021-08-07 10:49:25,226032
-1,-2,-3,-17,-28,-13,-5,-3,2021-08-07 10:49:25,226032
-1,-2,-5,3,2,0,-2,0,2021-08-07 10:49:25,226032
-3,-3,-7,-5,-5,-1,-2,-1,2021-08-07 10:49:25,226032
-3,-1,0,4,3,1,0,-1,2021-08-07 10:49:25,226032
2,6,8,3,3,2,2,3,2021-08-07 10:49:25,242032
1,-1,-2,-12,-21,-9,-1,-1,2021-08-07 10:49:25,242032
0,-1,-5,5,7,0,-1,-3,2021-08-07 10:49:25,258034
-1,-1,-1,-4,-8,-3,-2,-1,2021-08-07 10:49:25,258034
1,-1,1,8,12,8,2,0,2021-08-07 10:49:25,258034
-4,-4,-4,-13,-19,-10,-4,-3,2021-08-07 10:49:25,258034
-1,0,2,12,22,11,2,3,2021-08-07 10:49:25,274034
3,3,2,7,15,5,5,2,2021-08-07 10:49:25,290032
-5,-4,-6,-16,-29,-13,-3,-3,2021-08-07 10:49:25,290032
1,0,-1,0,9,4,-1,0,2021-08-07 10:49:25,290032
1,1,3,2,-2,-2,-1,0,2021-08-07 10:49:25,290032
-2,-4,-7,-10,-12,-5,-4,-1,2021-08-07 10:49:25,290032
-4,-5,-4,-12,-21,-10,-6,-4,2021-08-07 10:49:25,290032
0,0,-1,0,2,0,0,-2,2021-08-07 10:49:25,290032
3,3,6,16,28,12,5,2,2021-08-07 10:49:25,322032
4,5,7,10,20,11,5,4,2021-08-07 10:49:25,322032
-3,-6,-8,-17,-20,-11,-4,-4,2021-08-07 10:49:25,322032
-8,-10,-15,-23,-32,-19,-8,-6,2021-08-07 10:49:25,338035
0,2,2,-2,-2,5,0,0,2021-08-07 10:49:25,354032
-1,1,0,6,6,1,-2,-1,2021-08-07 10:49:25,354032
1,1,4,13,10,6,2,1,2021-08-07 10:49:25,354032
0,-1,0,-6,-14,-4,-1,1,2021-08-07 10:49:25,354032
-4,-4,-3,-13,-23,-11,-4,-2,2021-08-07 10:49:25,355032
2,3,5,13,22,11,3,2,2021-08-07 10:49:25,355032
-2,-2,-8,-1,4,0,0,0,2021-08-07 10:49:25,355032
-3,-1,-2,3,1,1,-1,-3,2021-08-07 10:49:25,355032
-2,-3,-3,-7,-9,-7,-2,-2,2021-08-07 10:49:25,370030
-1,-3,-1,-8,-14,-7,-5,-3,2021-08-07 10:49:25,370030
-4,-2,-3,-19,-10,-6,-4,-4,2021-08-07 10:49:25,370030
3,4,4,22,17,8,3,2,2021-08-07 10:49:25,370030
-2,1,1,5,16,5,0,-2,2021-08-07 10:49:25,402032
0,1,1,2,0,-1,1,0,2021-08-07 10:49:25,402032
0,-3,-5,-11,-9,-2,-2,0,2021-08-07 10:49:25,402032
-6,-7,-8,-20,-26,-12,-5,-5,2021-08-07 10:49:25,402032
5,7,9,21,34,16,6,3,2021-08-07 10:49:25,402032
0,1,1,0,-6,-4,-1,0,2021-08-07 10:49:25,402032
0,1,2,5,10,3,-1,2,2021-08-07 10:49:25,418031
0,-1,0,0,-2,-2,0,1,2021-08-07 10:49:25,418031
-3,-5,-8,-16,-24,-12,-6,-4,2021-08-07 10:49:25,434030
-4,-4,-5,-12,-17,-10,-3,-2,2021-08-07 10:49:25,434030
0,-2,-2,-8,-7,-2,-2,0,2021-08-07 10:49:25,434030
4,6,9,25,39,17,6,4,2021-08-07 10:49:25,434030
-1,-5,-3,-1,-9,-4,-2,-2,2021-08-07 10:49:25,466032
4,3,3,8,17,8,3,0,2021-08-07 10:49:25,481032
-4,-5,-7,-14,-21,-11,-6,-4,2021-08-07 10:49:25,481032
1,0,1,-4,-4,0,1,2,2021-08-07 10:49:25,481032
-1,0,-1,-5,3,1,1,0,2021-08-07 10:49:25,481032
-5,-1,0,5,-1,-3,-2,-3,2021-08-07 10:49:25,481032
-2,-3,-3,-4,-7,-4,-1,0,2021-08-07 10:49:25,481032
0,-2,-2,-1,1,0,-1,0,2021-08-07 10:49:25,481032
3,2,2,2,-3,0,-1,2,2021-08-07 10:49:25,497032
-1,-4,-1,-5,0,0,0,-1,2021-08-07 10:49:25,497032
-2,-2,0,2,-1,0,-2,-4,2021-08-07 10:49:25,497032
2,3,2,6,13,7,3,2,2021-08-07 10:49:25,497032
-1,-1,-2,0,-2,-2,-2,-1,2021-08-07 10:49:25,513032
-2,-2,-5,-2,-3,-2,-2,-2,2021-08-07 10:49:25,513032
-2,-1,-2,0,-4,-4,-1,-1,2021-08-07 10:49:25,513032
-4,-5,-5,-9,-18,-7,-6,-2,2021-08-07 10:49:25,513032
2,3,3,-2,2,0,1,0,2021-08-07 10:49:25,529035
2,1,3,5,14,6,0,0,2021-08-07 10:49:25,529035
-1,-4,-6,2,8,1,1,0,2021-08-07 10:49:25,561030
-4,-5,-6,-12,-16,-8,-4,-2,2021-08-07 10:49:25,576032
-1,-1,1,6,-1,1,1,0,2021-08-07 10:49:25,592032
-1,2,3,6,9,5,0,1,2021-08-07 10:49:25,592032
1,2,5,6,11,4,1,1,2021-08-07 10:49:25,592032
1,0,-1,-3,-1,-1,1,-1,2021-08-07 10:49:25,592032
-7,-8,-11,-24,-34,-15,-5,-5,2021-08-07 10:49:25,592032
0,0,3,11,10,4,-1,-1,2021-08-07 10:49:25,592032
3,1,1,5,7,7,3,2,2021-08-07 10:49:25,592032
0,2,6,11,21,6,2,2,2021-08-07 10:49:25,593032
-2,-1,1,11,7,1,-1,-1,2021-08-07 10:49:25,593032
0,-3,-3,-12,-15,-6,-1,-1,2021-08-07 10:49:25,593032
1,1,1,-1,-8,-5,-1,-1,2021-08-07 10:49:25,593032
-3,-3,-4,-4,-2,-3,-3,-3,2021-08-07 10:49:25,593032
-9,-7,-15,-31,-21,-10,-6,-2,2021-08-07 10:49:25,622032
4,6,12,39,39,17,7,3,2021-08-07 10:49:25,638031
2,2,4,7,-2,0,0,1,2021-08-07 10:49:25,654032
1,1,4,4,8,3,2,-1,2021-08-07 10:49:25,654032
-2,-1,-3,-1,-3,-6,-2,-1,2021-08-07 10:49:25,654032
-3,-5,-8,-17,-22,-11,-5,-2,2021-08-07 10:49:25,654032
-2,-2,1,0,3,0,0,-2,2021-08-07 10:49:25,654032
-2,0,-4,-11,-20,-10,-4,-4,2021-08-07 10:49:25,654032
3,4,8,3,1,1,3,2,2021-08-07 10:49:25,655032
-2,0,-1,-8,5,5,1,0,2021-08-07 10:49:25,655032
1,-2,-6,13,13,3,0,0,2021-08-07 10:49:25,655032
-1,-2,-2,-2,-9,-4,-3,-1,2021-08-07 10:49:25,655032
2,-1,-1,1,3,0,-2,-1,2021-08-07 10:49:25,686032
-3,-2,-2,-7,-14,-9,-3,-4,2021-08-07 10:49:25,702030
-3,-1,-1,-6,-5,-2,-2,-3,2021-08-07 10:49:25,734031
1,1,0,3,9,5,3,0,2021-08-07 10:49:25,750031
-1,-1,0,0,-3,-1,-1,-1,2021-08-07 10:49:25,750031
0,-1,-3,-1,-2,0,0,1,2021-08-07 10:49:25,750031
-4,-2,-5,-21,-30,-13,-5,-2,2021-08-07 10:49:25,750031
2,0,2,13,33,14,5,2,2021-08-07 10:49:25,750031
0,0,-3,0,2,1,-1,-1,2021-08-07 10:49:25,750031
-2,-2,-2,-1,-1,-1,-1,-1,2021-08-07 10:49:25,750031
0,1,1,3,5,1,0,0,2021-08-07 10:49:25,751033
-2,-2,-2,-13,-18,-7,-3,-1,2021-08-07 10:49:25,751033
0,-1,1,-1,-7,-3,0,1,2021-08-07 10:49:25,751033
-3,-4,-7,-14,-11,-8,-4,-2,2021-08-07 10:49:25,751033
4,5,5,8,25,14,6,4,2021-08-07 10:49:25,751033
0,2,2,14,12,2,1,-1,2021-08-07 10:49:25,751033
-1,-2,-3,2,4,2,-2,-3,2021-08-07 10:49:25,751033
-1,0,0,-2,-9,-5,-1,-2,2021-08-07 10:49:25,751033
-4,-3,0,-11,-17,-10,-5,-3,2021-08-07 10:49:25,751033
0,-2,-6,0,4,3,0,0,2021-08-07 10:49:25,752035
0,0,1,5,1,0,0,0,2021-08-07 10:49:25,797032
-2,-1,-3,-9,-14,-5,-2,0,2021-08-07 10:49:25,813032
-3,-2,-2,-3,-10,-2,-2,-1,2021-08-07 10:49:25,813032
1,1,5,8,24,9,3,2,2021-08-07 10:49:25,813032
-2,-3,-4,-5,-9,-5,-2,-1,2021-08-07 10:49:25,829032
-3,-3,-5,-3,0,-2,-2,-2,2021-08-07 10:49:25,845032
0,3,3,5,2,-1,0,1,2021-08-07 10:49:25,861032
-2,1,2,-4,-9,-4,-2,-1,2021-08-07 10:49:25,861032
0,0,-1,2,5,3,2,0,2021-08-07 10:49:25,861032
-4,-5,-6,-9,-14,-9,-4,-3,2021-08-07 10:49:25,861032
2,2,-1,-3,-3,-1,1,1,2021-08-07 10:49:25,861032
-2,-5,-2,2,1,0,-2,-2,2021-08-07 10:49:25,861032
-1,-1,-1,-3,-5,-3,-1,0,2021-08-07 10:49:25,861032
3,2,3,11,14,7,1,1,2021-08-07 10:49:25,861032
-1,-1,-4,-7,-7,-3,-4,-4,2021-08-07 10:49:25,871032
0,1,0,-5,-6,-3,-1,-1,2021-08-07 10:49:25,871032
-2,-1,0,12,11,5,2,2,2021-08-07 10:49:25,871032
-2,-2,-4,-14,-15,-7,-4,-1,2021-08-07 10:49:25,871032
1,3,4,12,18,6,1,3,2021-08-07 10:49:25,871032
-2,-2,-5,-9,-16,-8,-5,-4,2021-08-07 10:49:25,872032
0,-2,0,2,-2,-3,-2,-2,2021-08-07 10:49:25,872032
1,1,0,0,3,0,-1,-2,2021-08-07 10:49:25,872032
-2,-4,-5,-3,-4,-5,-1,-2,2021-08-07 10:49:25,892032
1,0,-1,-4,-5,-1,1,2,2021-08-07 10:49:25,892032
1,2,3,9,15,4,2,1,2021-08-07 10:49:25,908032
0,-2,-2,6,1,2,2,0,2021-08-07 10:49:25,924032
-3,-3,-1,-2,2,1,-2,-2,2021-08-07 10:49:25,924032
-7,-5,-5,-4,-11,-9,-6,-6,2021-08-07 10:49:25,924032
-1,-1,0,-6,-4,2,-1,-3,2021-08-07 10:49:25,924032
-2,-1,4,9,15,4,1,-1,2021-08-07 10:49:25,924032
2,4,1,6,5,1,1,1,2021-08-07 10:49:25,924032
1,-1,-2,-9,-15,-7,-1,0,2021-08-07 10:49:25,924032
0,-1,-4,-4,-7,-5,-4,-2,2021-08-07 10:49:25,940032
0,-2,-4,-9,-11,-6,-2,1,2021-08-07 10:49:25,940032
2,0,1,2,2,5,2,2,2021-08-07 10:49:25,940032
3,2,2,5,18,6,2,3,2021-08-07 10:49:25,940032
-6,-6,-4,-4,-14,-8,-4,-4,2021-08-07 10:49:25,956033
4,3,2,4,6,5,4,3,2021-08-07 10:49:25,956033
0,1,2,5,0,-1,0,2,2021-08-07 10:49:25,956033
-1,1,4,13,14,5,1,0,2021-08-07 10:49:25,972030
0,1,-2,-2,5,0,0,-2,2021-08-07 10:49:25,972030
-5,-6,-4,-10,-21,-10,-5,-4,2021-08-07 10:49:25,988032
-2,-2,-1,-8,-5,-1,0,-2,2021-08-07 10:49:25,988032
3,1,4,9,5,3,2,-1,2021-08-07 10:49:25,988032
-1,-2,-3,-8,-6,-3,-1,-1,2021-08-07 10:49:25,988032
-2,-4,-4,-5,-5,-2,-2,-2,2021-08-07 10:49:25,988032
-3,-2,-4,-9,-6,-4,-2,-1,2021-08-07 10:49:26,004031
-1,0,-1,-3,-9,-4,-1,-1,2021-08-07 10:49:26,020032
0,2,2,1,3,1,1,0,2021-08-07 10:49:26,020032
1,1,-1,6,8,4,1,-1,2021-08-07 10:49:26,020032
-5,-6,-6,-13,-13,-7,-5,-4,2021-08-07 10:49:26,020032
3,4,6,24,25,13,6,5,2021-08-07 10:49:26,020032
-1,-1,0,1,5,0,-1,-1,2021-08-07 10:49:26,036031
3,2,6,11,16,5,2,1,2021-08-07 10:49:26,052032
-1,-1,-1,4,1,1,-1,-2,2021-08-07 10:49:26,068034
-2,-4,-7,-19,-20,-7,-4,-2,2021-08-07 10:49:26,068034
0,0,-1,-1,1,0,-1,1,2021-08-07 10:49:26,068034
-2,-3,-3,-1,6,3,0,0,2021-08-07 10:49:26,068034
-5,-4,-4,-8,-13,-7,-3,-3,2021-08-07 10:49:26,068034
0,1,1,-1,0,-3,0,1,2021-08-07 10:49:26,068034
-1,0,2,3,1,2,1,1,2021-08-07 10:49:26,084031
-3,-2,-4,-10,-7,-3,-1,-2,2021-08-07 10:49:26,100030
-2,-1,1,3,3,0,0,-1,2021-08-07 10:49:26,116032
-3,-1,-2,-7,0,-2,-2,-2,2021-08-07 10:49:26,116032
2,3,4,8,9,4,3,3,2021-08-07 10:49:26,116032
-2,-3,-5,-8,-6,-6,-2,-3,2021-08-07 10:49:26,116032
-1,-1,-7,-21,-19,-7,-2,-2,2021-08-07 10:49:26,116032
-1,-3,-1,-1,-11,-4,-1,-1,2021-08-07 10:49:26,116032
4,3,9,28,45,18,5,3,2021-08-07 10:49:26,116032
-2,-3,-2,-7,-18,-8,-3,-1,2021-08-07 10:49:26,116032
4,6,7,16,32,9,4,4,2021-08-07 10:49:26,116032
-6,-6,-11,-23,-31,-13,-6,-6,2021-08-07 10:49:26,116032
-3,-1,-2,-9,-14,-6,-2,-4,2021-08-07 10:49:26,148033
2,1,3,3,-5,-1,-2,0,2021-08-07 10:49:26,163032
1,0,1,6,16,6,2,1,2021-08-07 10:49:26,179031
-2,-4,-1,0,-1,-2,-4,-2,2021-08-07 10:49:26,179031
-3,-3,-2,-6,-13,-5,-3,-2,2021-08-07 10:49:26,179031
-3,-1,1,8,11,3,0,-1,2021-08-07 10:49:26,179031
0,-2,-3,-2,2,1,1,0,2021-08-07 10:49:26,179031
-5,-3,-3,-2,-4,-5,-5,-3,2021-08-07 10:49:26,180031
1,1,-4,-2,1,3,2,3,2021-08-07 10:49:26,180031
-5,-3,-7,-16,-19,-11,-6,-3,2021-08-07 10:49:26,180031
2,4,11,24,21,8,5,3,2021-08-07 10:49:26,180031
0,-2,-1,-9,-18,-8,-2,-2,2021-08-07 10:49:26,180031
0,0,2,10,23,9,2,1,2021-08-07 10:49:26,211032
0,1,2,7,11,4,1,-1,2021-08-07 10:49:26,211032
2,0,-2,-1,-3,-3,-1,-3,2021-08-07 10:49:26,211032
-2,-1,-2,-4,-8,-4,-2,-1,2021-08-07 10:49:26,211032
-4,-4,-8,-20,-29,-12,-6,-6,2021-08-07 10:49:26,211032
1,-1,1,6,10,5,1,0,2021-08-07 10:49:26,211032
1,3,2,2,-4,1,0,-1,2021-08-07 10:49:26,243032
-1,1,-1,-1,2,0,0,1,2021-08-07 10:49:26,259032
-6,-7,-6,-14,-28,-15,-7,-6,2021-08-07 10:49:26,259032
5,5,0,-2,0,4,2,3,2021-08-07 10:49:26,259032
-2,-4,0,10,13,5,-2,-2,2021-08-07 10:49:26,259032
2,2,2,8,2,3,1,1,2021-08-07 10:49:26,259032
-1,0,0,1,4,0,-1,-1,2021-08-07 10:49:26,259032
2,3,3,5,11,7,5,2,2021-08-07 10:49:26,259032
-4,-3,-3,-12,-16,-10,-3,-4,2021-08-07 10:49:26,259032
-2,-1,-3,1,0,-1,-3,-1,2021-08-07 10:49:26,259032
-2,0,0,-5,-4,-1,1,-1,2021-08-07 10:49:26,274030
-2,-1,-1,-2,4,0,-2,-2,2021-08-07 10:49:26,274264
-1,-5,-9,-2,0,1,0,-1,2021-08-07 10:49:26,274264
1,1,3,8,15,3,1,0,2021-08-07 10:49:26,274264
-1,-3,-3,-8,-19,-9,-3,-1,2021-08-07 10:49:26,295032
-3,0,1,-3,-5,-3,-1,0,2021-08-07 10:49:26,296031
-2,-2,-1,-4,-5,-1,-2,-2,2021-08-07 10:49:26,296031
