Timestamp,Milliseconds,Angle,Angular Velocity
12:21:23.433037,433037,119.99677882428672,277.10514072535767
12:21:23.437037,437037,120.77017157441826,193.34818753288374
12:21:23.441036,441036,122.71429784933086,486.15310700490255
12:21:23.446055,446055,122.5102904447863,40.64702222445806
12:21:23.450038,450038,121.48105481214225,258.40713849963834
12:21:23.454036,454036,121.26289064239792,54.5683265993814
12:21:23.458074,458074,121.81811962613293,137.50098656141802
12:21:23.462075,462075,121.99717659070882,44.75305288075285
12:21:23.466074,466074,122.72774258919783,182.68717141510695
12:21:23.471060,471060,121.88503331750607,169.0150966088568
12:21:23.475090,475090,122.10838092879445,55.42124349587469
12:21:23.479082,479082,121.70203772656596,101.78937931575258
12:21:23.483038,483038,122.2492597144622,138.32709501927104
12:21:23.487036,487036,124.06944573122726,455.2741412618969
12:21:23.491037,491037,123.42421190055695,161.2681406324186
12:21:23.496037,496037,123.03708459019222,77.42546207294652
12:21:23.500039,500039,123.11269103068956,18.892164042313507
12:21:23.504062,504062,123.9289951251982,202.90929517987522
12:21:23.508063,508063,123.29059988806758,159.55891955276772
12:21:23.512038,512038,122.7106492368541,145.8995348964729
12:21:23.516062,516062,123.73444656692094,254.42279574225685
12:21:23.521036,521036,124.34950798383592,123.65529089565405
12:21:23.525037,525037,123.09091263980292,314.57019345988436
12:21:23.529038,529038,122.28177438597785,202.23400495502835
12:21:23.533039,533039,119.59350862617524,671.898465334321
12:21:23.537076,537076,121.29540900213527,421.57552042606807
12:21:23.541072,541072,118.10186184311779,799.1859757301011
12:21:23.546047,546047,118.09042175225507,2.2995157513005733
12:21:23.549571,549571,118.00857322851606,23.22602830278436
12:21:23.553606,553606,118.29992666773339,72.20655247021854
12:21:23.558578,558578,120.81960333629752,506.77326399117675
12:21:23.562603,562603,121.77759371095802,238.01003097155206
12:21:23.566602,566602,122.60907221225597,207.9216057259193
12:21:23.570577,570577,123.56502378474433,240.49096163229171
12:21:23.574579,574579,123.68559907152006,30.128757315275507
12:21:23.578576,578576,127.73438868417264,1012.957121003899
12:21:23.583577,583577,130.11931107822372,476.88910099001674
12:21:23.587618,587618,131.08556955486074,239.11370369636796
12:21:23.591578,591578,130.00518405487114,272.8246212094958
12:21:23.595605,595605,132.1727301979468,538.2533258196345
12:21:23.599578,599578,129.57399611936586,654.0986857742125
12:21:23.603602,603602,126.54865636392901,751.8239948898723
12:21:23.608578,608578,125.64564020538394,181.4743083892828
12:21:23.612604,612604,127.08911847949285,358.53906460728075
12:21:23.616604,616604,125.11306036544401,494.01452851220995
12:21:23.620604,620604,123.03034840866788,520.6779891940342
12:21:23.624577,624577,122.82457099057609,51.793963778450696
12:21:23.628578,628578,123.64712152856227,205.5862379370593
12:21:23.633577,633577,123.59391090010895,10.644254541571165
12:21:23.637613,637613,124.73379993887042,282.43038621443685
12:21:23.641612,641612,125.11723681552276,95.88318996057508
12:21:23.645579,645579,125.95119475211924,210.22383075283
12:21:23.649578,649578,126.52507174502144,143.50512450667662
12:21:23.653576,653576,125.7769834701231,187.115626537853
12:21:23.658577,658577,126.18336632248061,81.26031840782038
12:21:23.662614,662614,125.08706444245867,271.56350756054997
12:21:23.666605,666605,125.95981133735239,218.67875091298495
12:21:23.670604,670604,125.63659464963311,80.82437802432634
12:21:23.674603,674603,121.92389406411695,928.4072481910878
12:21:23.678603,678603,122.50077900225216,144.2212345338021
12:21:23.683579,683579,119.96575215601847,509.45073276400547
12:21:23.687602,687602,121.09858328200113,281.5886467766995
12:21:23.691605,691605,121.62108696891617,130.52802570947898
12:21:23.695612,695612,122.0871976786336,116.32411023644288
12:21:23.699603,699603,122.08538864476482,0.45327834346812446
12:21:23.703577,703577,123.20026864757907,280.5435336724323
12:21:23.708576,708576,122.28460837254181,183.1686887451999
12:21:23.712578,712578,122.07265925360129,52.96079933546322
12:21:23.716577,716577,122.86588488802222,198.3559976046349
12:21:23.720578,720578,122.45069378186503,103.77183358090355
12:21:23.724614,724614,123.51183213341471,262.9183229805964
12:21:23.728578,728578,122.36836358535113,288.4633067768872
12:21:23.733578,733578,125.38852114175927,604.0315112816273
12:21:23.737581,737581,126.02653016850505,159.38271964670935
12:21:23.741616,741616,125.60576421592182,104.27904648902704
12:21:23.745618,745618,124.57183477828293,258.35318281831314
12:21:23.749578,749578,125.36368212712931,199.96145172888248
12:21:23.753577,753577,126.9784335470878,403.7888021901712
12:21:23.758582,758582,124.15211055348527,564.6998988216845
12:21:23.762578,762578,124.19407153440189,10.500745975128444
12:21:23.766577,766577,123.18476239624314,252.39038213521914
12:21:23.770577,770577,123.79591948327547,152.7892717580812
12:21:23.774579,774579,123.26330945426453,133.08596427059956
12:21:23.778578,778578,121.84083283691669,355.70808135729936
12:21:23.783577,783577,121.75424346337688,17.32133897575693
12:21:23.787579,787579,121.91652011037974,40.548887307060255
12:21:23.791578,791578,122.2431159061524,81.66936628473651
12:21:23.795577,795577,122.80915200338984,141.54441041196384
12:21:23.799577,799577,122.66546552353854,35.92161996282428
12:21:23.803577,803577,123.20102465237527,133.8897822091809
12:21:23.808578,808578,123.39370126561006,38.52761712353429
12:21:23.812578,812578,123.4337989491221,10.024420878011142
12:21:23.816576,816576,123.24435613522222,47.3843956728083
12:21:23.820612,820612,123.18970830328885,13.540097109357252
12:21:23.824603,824603,123.1619658930374,6.951242859295602
12:21:23.828577,828577,123.73129551805813,143.26361978377662
12:21:23.833578,833578,123.58352029283553,29.549135217477016
12:21:23.837577,837577,124.24610802588013,165.68835534998826
12:21:23.841578,841578,124.90190057459895,163.90716038960795
12:21:23.845577,845577,123.22752547250806,418.69845013525673
12:21:23.849577,849577,122.5878833868379,159.91052141754025
12:21:23.854579,854579,124.12416835071524,307.13413911981917
12:21:23.858577,858577,122.653109062795,367.94879637824937
12:21:23.862577,862577,123.12829935558396,118.79757319724149
12:21:23.866577,866577,123.53957355573813,102.8185500385419
12:21:23.870578,870578,124.18491659861155,161.2954368591404
12:21:23.874578,874578,123.75504071247454,107.46897153425294
12:21:23.878578,878578,122.94061173324587,203.6072448071664
12:21:23.883578,883578,122.63777349646523,60.56764735612887
12:21:23.887577,887577,122.92847410816044,72.69332625536751
12:21:23.891577,891577,123.72132219530647,198.21202178650665
12:21:23.895578,895578,124.42886382996215,176.84119836432978
12:21:23.899578,899578,124.08925332559316,84.90262609224786
12:21:23.903577,903577,125.67501558882981,396.539700734345
12:21:23.908577,908577,124.14703387148013,305.59634346993505
12:21:23.912578,912578,125.09984599238749,238.14349435325
12:21:23.916580,916580,124.80180752965074,74.47237949443813
12:21:23.920577,920577,123.51280981795489,322.49129639626125
12:21:23.924578,924578,125.80186298231222,572.1202610240757
12:21:23.928578,928578,125.57108808616485,57.69372403684159
12:21:23.933577,933577,124.4979299661509,214.67455891457152
12:21:23.937577,937577,123.2634249050609,308.62626527250114
12:21:23.941578,941578,123.31343067068005,12.498316825580421
12:21:23.945578,945578,122.97148730579103,85.48584122225478
12:21:23.949579,949579,123.82248904556145,212.69726062744928
12:21:23.953577,953577,123.8274775624255,1.2477530925577234
12:21:23.958578,958578,126.73984290903789,582.3565980028774
12:21:23.962577,962577,126.41137491756615,82.13753225099778
12:21:23.966578,966578,127.201350864736,197.44462563605353
12:21:23.970579,970579,122.60489377567173,1148.8270654996934
12:21:23.974577,974577,123.23885340626713,158.5691922449722412:21:23.978579,978579,124.34308589873996,275.92016303668964
12:21:23.983579,983579,125.56172119579193,243.727059410395
12:21:23.987578,987578,126.11873352717315,139.28790482150941
12:21:23.991579,991579,127.86380122111285,436.15788401392217
12:21:23.995578,995578,127.85671024425368,1.7731875116715936
12:21:23.999577,999577,127.79968367294222,14.26020787983339
12:21:24.003577,003577,128.64318226471022,0.8468861363132497
12:21:24.008577,008577,128.03366604663984,121.90324361407647
12:21:24.012578,012578,127.67894618890307,88.65779998419596
12:21:24.016581,016581,126.86212556506435,204.0521168720267
12:21:24.020579,020579,124.60134062460313,565.4789746026066
12:21:24.024579,024579,125.08804170542057,121.67527020435998
12:21:24.028578,028578,125.12890242474495,10.217734264662488
12:21:24.033578,033578,126.93824742891292,361.8690008335932
12:21:24.037579,037579,124.46532899412935,618.0750899234105
12:21:24.041577,041577,126.49157886871538,506.8158765847995
12:21:24.045579,045579,126.76925343383473,69.38394930518616
12:21:24.049578,049578,125.53415430484,308.85199524749515
12:21:24.053577,053577,127.42765423928631,473.49335695081544
12:21:24.058577,058577,125.63844042084699,357.84276368786436
12:21:24.062579,062579,126.00606440291791,91.86006548498854
12:21:24.066577,066577,125.02523957102517,245.3288724093914
12:21:24.070577,070577,125.95638077288318,232.78530046450285
12:21:24.074577,074577,126.15568808816442,49.82682882031142
12:21:24.078577,078577,126.93082730323047,193.78480376651197
12:21:24.083578,083578,126.94106592112261,2.0473141156052965
12:21:24.087578,087578,127.78600274530595,211.23420604583387
12:21:24.091578,091578,126.74947605493382,259.1316725930319
12:21:24.095578,095578,125.88763952837174,215.45913164052166
12:21:24.099581,099581,125.90846284865,5.201928623099661
12:21:24.103578,103578,123.17506365552414,683.8626953029428
12:21:24.108579,108579,124.55313786881881,275.55973071279084
12:21:24.112579,112579,123.61917134727807,233.49163038518483
12:21:24.116578,116578,126.18078585779793,640.563768572108
12:21:24.120577,120577,123.85596820184779,581.3497514253918
12:21:24.124579,124579,124.90525342653152,262.19021106539947
12:21:24.128578,128578,124.38813597957461,129.31168966164103
12:21:24.133576,133576,122.90707588407919,296.33055131961237
12:21:24.137576,137576,124.32933178450351,355.5639751060795
12:21:24.141576,141576,123.52549487925106,200.95922631311325
12:21:24.145577,145577,122.46293955012803,265.5724391709645
12:21:24.149577,149577,121.18579514844635,319.2861004204204
12:21:24.153576,153576,122.11813705257913,233.14376197368938
12:21:24.158576,158576,123.12504133387085,201.38085625834492
12:21:24.162578,162578,121.78587136822125,334.6251788229892
12:21:24.166576,166576,123.39404025175824,402.2433425555254
12:21:24.170581,170581,122.77999139851586,153.3205626073359
12:21:24.174579,174579,123.18784736910679,102.01500014780639
12:21:24.178577,178577,125.79937774181131,653.209197775018
12:21:24.183578,183578,127.15899795328932,271.8696683619281
12:21:24.187578,187578,125.66723497516628,372.94074453075865
12:21:24.191580,191580,128.6264779112451,739.4410135129492
12:21:24.195578,195578,126.85926869550377,442.0233155931295
12:21:24.199580,199580,125.71813906247252,285.13983833864444
12:21:24.203578,203578,124.74612689870077,243.1246032445601
12:21:24.208579,208579,124.01631088109961,145.93401671688704
12:21:24.212579,212579,122.40778231385615,402.132141810867
12:21:24.216578,216578,124.10558057097938,424.5557032066114
12:21:24.220577,220577,124.06434919779699,10.310420900824845
12:21:24.224578,224578,124.47033978305046,101.47227824380826
12:21:24.228578,228578,123.32964459238823,285.17379766555706
12:21:24.233578,233578,124.0481179996249,143.69468144733446
12:21:24.237577,237577,124.0931638709013,11.264283890069056
12:21:24.241580,241580,124.51375060201354,105.06788186666296
12:21:24.245578,245578,124.41320788875942,25.148252439752017
12:21:24.249578,249578,126.28151118659933,467.07582445997883
12:21:24.253578,253578,127.02464141792134,185.78255783050324
12:21:24.258578,258578,125.91695944853873,221.5363938765222
12:21:24.262578,262578,125.04692851129717,217.5077343103915
12:21:24.266578,266578,123.58576944159329,365.2897674259705
12:21:24.270580,270580,123.2088051209127,94.19398317855703
12:21:24.274579,274579,124.96785537909973,439.87253267992776
12:21:24.278577,278577,124.79548185007555,43.11493972590915
12:21:24.283581,283581,124.80081871562119,1.066519893214195
12:21:24.287578,287578,127.38441869103869,646.3847824412057
12:21:24.291578,291578,127.08088888304766,75.88245199775656
12:21:24.295578,295578,126.51186045321143,142.25710745905928
12:21:24.299578,299578,125.3986255313273,278.3087304710321
12:21:24.303578,303578,125.38139638838925,4.307285734512334
12:21:24.308579,308579,123.10884132078083,454.4201294957853
12:21:24.312578,312578,123.73137637386559,155.67268144155054
12:21:24.316578,316578,121.83387759048982,474.37469584394165
12:21:24.320578,320578,122.91964906888364,271.44286959845584
12:21:24.324579,324579,121.69187881536324,306.86584691837146
12:21:24.328581,328581,121.23059638105316,115.26297708897508
12:21:24.333578,333578,122.46736212990331,247.5016507604856
12:21:24.337579,337579,124.12446997936198,414.17341900991465
12:21:24.341098,341098,124.39060376509426,75.62767426322227
12:21:24.345620,345620,125.30879847449563,203.05057704585946
12:21:24.349620,349620,124.23485053344056,268.48698526376677
12:21:24.353620,353620,123.2501591813127,246.172838031967
12:21:24.357620,357620,125.24258333058782,498.10603731878086
12:21:24.362620,362620,123.87585314877184,273.3460363631963
12:21:24.366623,366623,123.15984610757987,178.8676095907999
12:21:24.370620,370620,124.05688248830761,224.42741574374304
12:21:24.374618,374618,125.81506089196704,439.7644831564354
12:21:24.378620,378620,125.40927567804621,101.39560567736686
12:21:24.382620,382620,126.34009565241412,232.70499359197672
12:21:24.387620,387620,126.1582724242505,36.364645632724546
12:21:24.391620,391620,124.42240226601992,433.96753955764564
12:21:24.395620,395620,125.89404083039733,367.9096410943536
12:21:24.399620,399620,126.14758299112592,63.38554018214637
12:21:24.403620,403620,126.42805829514673,70.1188260052028
12:21:24.407618,407618,126.3395625785612,22.13499664470408
12:21:24.412620,412620,126.45765183517763,23.608407960101733
12:21:24.416620,416620,127.13460046957809,169.23715860011512
12:21:24.420619,420619,126.34605833281239,197.18483039902446
12:21:24.424620,424620,126.24727866720838,24.68874421494956
12:21:24.428619,428619,127.06869393712704,205.40516877185794
12:21:24.433619,433619,126.18603255492681,176.53227644004517
12:21:24.437618,437618,126.66926721416404,120.8388745279385
12:21:24.441618,441618,125.03303622357855,409.05774764637215
12:21:24.445619,445619,125.27793583784191,61.209601165548705
12:21:24.449619,449619,124.77707434591075,125.21537298279029
12:21:24.453619,453619,124.65413195869407,30.735596804170484
12:21:24.457623,457623,125.79103342105381,283.9414241657705
12:21:24.462621,462621,126.12943185362928,67.70676922278389
12:21:24.466619,466619,126.56919570548435,109.99596094423767
12:21:24.470619,470619,124.94211368034726,406.7705062842712
12:21:24.474620,474620,125.61401324556567,167.93290807758322
12:21:24.478620,478620,123.99930944151963,403.6759510115111
12:21:24.483620,483620,123.53250921704084,93.36004489575771
12:21:24.487621,487621,123.46642923650033,16.515866168584772
12:21:24.491620,491620,123.50043901678023,8.504571212778746
12:21:24.495620,495620,123.80058229936718,75.03582064673608
12:21:24.499620,499620,123.11579419516843,171.19702604968623
12:21:24.503620,503620,123.9984180182506,220.65595577054253
12:21:24.508620,508620,127.90321715351683,780.9598270532462
12:21:24.512619,512619,128.90494516123744,250.4946255865469
12:21:24.516620,516620,127.95071301859004,238.49841105908496
12:21:24.520620,520620,127.8085294243253,35.545898566184064
12:21:24.524620,524620,126.31765754683697,372.71796937208281212:21:24.528624,528624,125.2430536493288,268.382591785257
12:21:24.533620,533620,125.30563777525411,12.526846662392344
12:21:24.537620,537620,125.26773441587665,9.475839844366618
12:21:24.541621,541621,126.24611906217665,244.53502781804556
12:21:24.545620,545620,125.65208752621723,148.54502024491538
12:21:24.549619,549619,125.5266186567714,31.375061126737997
12:21:24.553620,553620,124.85580437446713,167.66165516227886
12:21:24.557620,557620,123.78467865836888,267.7814290245628
12:21:24.562126,562126,123.0642293622731,159.88666136169095
12:21:24.566133,566133,121.74378007579078,329.5356342606227
12:21:24.570135,570135,122.0377974979808,73.46762173663757
12:21:24.575137,575137,121.18087745764596,171.31548187421868
12:21:24.579134,579134,119.71985679614133,365.5293123604288
12:21:24.583135,583135,121.62217388811186,475.46040789066
12:21:24.587135,587135,122.05465269624965,108.11970203444687
12:21:24.591136,591136,122.12440234079017,17.43305287191255
12:21:24.596135,596135,122.41486063982059,58.10328046217627
12:21:24.600135,600135,123.37857445462612,240.9284537013825
12:21:24.604134,604134,124.08643623826295,177.00969833379082
12:21:24.608139,608139,124.87439117771484,196.74280635502953
12:21:24.612135,612135,124.38389902748787,122.7457833400826
12:21:24.616133,616133,125.07391050507707,172.5891639792884
12:21:24.621136,621136,123.50285465480069,314.02275640143523
12:21:24.625134,625134,125.44998007887057,487.0248684516962
12:21:24.629135,629135,122.9151091147533,633.5593511915172
12:21:24.633135,633135,122.7881316255615,31.744372297950463
12:21:24.637135,637135,122.45024347837236,84.47203679728688
12:21:24.641136,641136,121.8276639131889,155.60598979841473
12:21:24.646135,646135,120.37323255328828,290.9444608722994
12:21:24.650134,650134,120.80695804664133,108.45848796025298
12:21:24.654135,654135,118.87587533276108,482.6500159660694
12:21:24.658134,658134,120.38446464468421,377.2416383903805
12:21:24.662135,662135,120.05701828999302,81.84112839069991
12:21:24.666136,666136,120.03925234525003,4.440376091724647
12:21:24.671135,671135,119.95808628859398,16.236458622936393
12:21:24.675134,675134,121.5166833155014,389.7466934002053
12:21:24.679135,679135,123.74879008864654,557.8872214809167
12:21:24.683133,683133,123.03295681491639,179.0478423537156
12:21:24.687136,687136,122.74492871361069,71.95306053102641
12:21:24.691136,691136,123.7207722324538,243.96087971077662
12:21:24.696135,696135,121.851809165266,373.8673869149414
12:21:24.700135,700135,121.52976741456527,80.51043767518351
12:21:24.704135,704135,121.6454807744494,28.92833997103139
12:21:24.708134,708134,121.98455566381872,84.7899198222877
12:21:24.712135,712135,122.26414104052805,69.87887445871547
12:21:24.716134,716134,121.41121412353897,213.28505050989665
12:21:24.721135,721135,121.89735150324752,97.20803433484342
12:21:24.725134,725134,120.6220915823957,318.89470388892806
12:21:24.729135,729135,120.84344955440967,55.32566158809703
12:21:24.733135,733135,118.56726098912358,569.0471413215228
12:21:24.737134,737134,120.02065179044078,363.4385599692919
12:21:24.741133,741133,118.52332939599353,374.4242046629788
12:21:24.746137,746137,117.85804375624191,132.95076733645405
12:21:24.750134,750134,119.62318029325186,441.6153457618092
12:21:24.754134,754134,119.21173583809654,102.86111378882978
12:21:24.758136,758136,119.26594913224268,13.546550261403675
12:21:24.762134,762134,121.41052365137631,536.4118357012575
12:21:24.766134,766134,121.47665235876616,16.532176847462665
12:21:24.770135,770135,122.76389915782373,321.73126694765557
12:21:24.775134,775134,122.77435150857525,2.0908883279698074
12:21:24.779136,779136,122.29094140382769,120.79213012182976
12:21:24.783136,783136,121.82378504585002,116.78908949441791
12:21:24.787135,787135,121.24516821234138,144.69038097240136
12:21:24.791134,791134,120.44234073502378,200.75705859405014
12:21:24.796136,796136,120.2949241145783,29.471535474906677
12:21:24.800133,800133,121.1832902401688,222.2582250664269
12:21:24.804133,804133,121.46221462978686,69.73109740451378
12:21:24.808133,808133,121.06433890972711,99.46893001493606
12:21:24.812134,812134,118.64370932747468,605.006144027101
12:21:24.816135,816135,120.44291099633737,449.68799521686907
12:21:24.821133,821133,120.49494760776986,10.41148688124938
12:21:24.825133,825133,121.28846186534983,198.3785643949929
12:21:24.829135,829135,120.74367817785989,136.12785794351308
12:21:24.833135,833135,121.25597450496903,128.0740817772852
12:21:24.837136,837136,121.19283240958241,15.781578452042979
12:21:24.841134,841134,121.80554091760193,153.25375388182164
12:21:24.846135,846135,124.09096868540277,456.99415472922215
12:21:24.850135,850135,126.51079978477269,604.9577748424788
12:21:24.854135,854135,127.0874221004911,144.1555789296025
12:21:24.858134,858134,127.59753844491786,127.56097635077836
12:21:24.862136,862136,126.99107779600693,151.53939253146555
12:21:24.866135,866135,124.85978236822449,532.9570962196668
12:21:24.871137,871137,123.43212229315465,285.4178478748176
12:21:24.875138,875138,123.79468706189641,90.61853755105288
12:21:24.879136,879136,122.38059426584819,353.70004903657406
12:21:24.883134,883134,122.5942624791206,53.44377520570617
12:21:24.887134,887134,121.497607022156,274.16386424114944
12:21:24.891135,891135,122.16373472318443,166.490302681437
12:21:24.895138,895138,120.95943783875414,300.8485846690712
12:21:24.900135,900135,121.66222020347912,140.64085745947204
12:21:24.904135,904135,120.99768453087975,166.13391814984269
12:21:24.908136,908136,120.4871357014744,127.60530602483166
12:21:24.912134,912134,122.02412295938694,384.4390339951333
12:21:24.916136,916136,121.738929860963,71.26264328434429
12:21:24.920134,920134,122.98746246555204,312.28929579515875
12:21:24.925133,925133,121.9326801446734,210.9986639085105
12:21:24.929135,929135,120.77780584527619,288.574287705449
12:21:24.933133,933133,120.71469436244107,15.785763590576739
12:21:24.937134,937134,121.1945155850949,119.9253243323768
12:21:24.941135,941135,121.63643496107159,110.45223093643621
12:21:24.946137,946137,122.88072485250687,248.75847489709847
12:21:24.950140,950140,124.17095966052771,322.3169642819988
12:21:24.954135,954135,124.2003289616519,7.351514674390822
12:21:24.958136,958136,125.05622669123215,213.92095215702304
12:21:24.962135,962135,123.63619828302247,355.0958760214275
12:21:24.966133,966133,122.87058305409666,191.49955700995756
12:21:24.971135,971135,122.60621371342012,52.85272704448979
12:21:24.975137,975137,122.60019447378902,1.5040578788358216
12:21:24.979134,979134,123.51888251649984,229.8443939731865
12:21:24.983135,983135,123.5801838579858,15.32150499524069
12:21:24.987135,987135,123.26414544078999,79.0096042989532
12:21:24.991135,991135,123.24870942155476,3.859004808806077
12:21:24.996135,996135,123.17770563572147,14.200757166659628
12:21:25.000135,000135,123.44511020452892,0.26847848273840363
12:21:25.004135,004135,124.24144590452985,199.08392500023453
12:21:25.008135,008135,125.43759150539167,299.03640021545283
12:21:25.012135,012135,125.33000525023986,26.896563787950356
12:21:25.016137,016137,125.1727815915168,39.286271544994776
12:21:25.020135,020135,124.8365005624901,84.11231341338008
12:21:25.025136,025136,124.62195200423974,42.9011314237866
12:21:25.029135,029135,125.11317242449074,122.83581401625328
12:21:25.033137,033137,127.64101193702082,631.6440561044675
12:21:25.037135,037135,128.49751024639627,214.2316931904586
12:21:25.041135,041135,128.6021126811479,26.15060868790664
12:21:25.046134,046134,130.67859130924717,415.37880138012935
12:21:25.050136,050136,126.6963838207726,995.0543449461697
12:21:25.054135,054135,124.24150578262541,613.8729777812417
12:21:25.058136,058136,123.42041039155932,205.22254213099092
12:21:25.062135,062135,123.78418300984558,90.96589604557694
12:21:25.066135,066135,125.679295560762,473.7781377291057
12:21:25.071136,071136,123.24413871678628,486.933981998744
12:21:25.075135,075135,123.58385552958619,84.9504408101792
12:21:25.079136,079136,123.0108595849713,143.21318285800754
12:21:25.083135,083135,123.00581015986786,1.2626719438450946
12:21:25.087135,087135,122.79442158737929,52.847143122143336
12:21:25.091134,091134,122.55404903582257,60.10816493041197
12:21:25.096136,096136,123.05311037864868,99.77235962137343
12:21:25.100135,100135,123.56987724292988,129.22402207581763
12:21:25.104135,104135,124.18640626832004,154.13225634754113
12:21:25.108134,108134,124.38435511251723,49.49958594578277
12:21:25.112135,112135,123.75512138625085,157.26911428802245
12:21:25.116136,116136,125.69671802414516,485.27784001357327
12:21:25.121134,121134,125.37861292520381,63.646478379620845
12:21:25.125135,125135,124.46610400457536,228.07021260396255
12:21:25.129135,129135,123.50014509322504,241.48972783757827
12:21:25.133136,133136,122.90644416434954,148.38813518508033
12:21:25.137132,137132,123.14053203445161,58.58054807359178
12:21:25.141135,141135,122.08770209197438,263.0102279483466
12:21:25.146135,146135,121.66636527834608,84.26736272566018
12:21:25.150135,150135,121.88101686352009,53.66289629350263
12:21:25.154135,154135,118.60595283842055,818.7660062748847
12:21:25.158135,158135,118.42236633216581,45.89662656368532
12:21:25.162134,162134,118.22491741894261,49.3745719487867
12:21:25.166136,166136,119.2110522070406,246.4104917786069
12:21:25.170135,170135,122.94057515261008,932.6138898648375
12:21:25.175135,175135,122.72594777775942,42.92547497013288
12:21:25.179135,179135,123.09749863167862,92.88771347980074
12:21:25.183134,183134,124.54853790397448,362.8505307066413
12:21:25.187134,187134,125.21807599082975,167.38452171381724
12:21:25.191134,191134,126.77602847693781,389.48812152701606
12:21:25.196134,196134,127.45182455095092,135.15921480262136
12:21:25.200134,200134,127.51003366268054,14.5522779324061
12:21:25.204136,204136,126.68140633876845,207.0533043258589
12:21:25.208136,208136,125.57942661384598,275.4949312306181
12:21:25.212135,212135,123.11472437966417,616.3296409556925
12:21:25.216136,216136,123.67265193920097,139.44702812717006
12:21:25.221134,221134,120.721106117874,590.5453824183621
12:21:25.225136,225136,119.54828290664646,293.05927317029926
12:21:25.229136,229136,120.92089515937185,343.1530631813473
12:21:25.233135,233135,120.83771815227361,20.799451637470103
12:21:25.237135,237135,121.18717262726526,87.36361874791143
12:21:25.241135,241135,124.31502288458117,781.9625643289783
12:21:25.246134,246134,122.9988277549244,263.2916842682061
12:21:25.250138,250138,121.46787690121472,382.3553580693515
12:21:25.254136,254136,121.54996992629617,20.53352303187805
12:21:25.258133,258133,122.09504328150861,136.37061676568368
12:21:25.262134,262134,121.86952117787007,56.366434301059556
12:21:25.266133,266133,122.42058560429822,137.80055674622537
12:21:25.271135,271135,122.22810089553687,38.48154913261809
12:21:25.275134,275134,121.50714778347302,180.28334885317656
12:21:25.279133,279133,120.55660369812576,237.6954451981147
12:21:25.283133,283133,122.7597493098305,550.7864029261852
12:21:25.287136,287136,122.90733276632064,36.868212962812656
12:21:25.291133,291133,123.70373684216038,199.2504568025384
12:21:25.296134,296134,122.01333023900568,338.0137178873623
12:21:25.300133,300133,123.02334645004073,252.5671945574021
12:21:25.304136,304136,120.86216119044346,539.8913963520547
12:21:25.308135,308135,121.9565202985329,273.65819157025135
12:21:25.312135,312135,121.18277445224619,193.43646157167527
12:21:25.316134,316134,122.2988783812963,279.09575620157847
12:21:25.321136,321136,122.87071114618068,114.32082464701655
12:21:25.325134,325134,121.73941989140874,282.9642958409049
12:21:25.329134,329134,120.93604975272594,200.84253467070212
12:21:25.333136,333136,121.42156147676597,121.31727237382246
12:21:25.337135,337135,121.14509819420356,69.13310391658355
12:21:25.341134,341134,122.17058705806652,256.43632504700196
12:21:25.346135,346135,121.96518032513454,41.07313196000328
12:21:25.350136,350136,122.92392264359857,239.62567319770878
12:21:25.354135,354135,123.85327076285033,232.39512859508778
12:21:25.358138,358138,123.4633040958017,97.41860281004884
12:21:25.362135,362135,124.26500980176716,200.57685913571692
12:21:25.366869,366869,126.91996450430605,560.8269333626716
12:21:25.370658,370658,124.6493305728714,599.2699739864463
12:21:25.375182,375182,125.1100515937388,101.83930611569323
12:21:25.379182,379182,124.48771484016984,155.58418839223975
12:21:25.383183,383183,125.35548681516863,216.88877155680794
12:21:25.387183,387183,125.65330087260624,74.4535143594014
12:21:25.391182,391182,125.2524724253174,100.23216986467382
12:21:25.395185,395185,124.3627186116983,222.27174959258278
12:21:25.400182,400182,124.14511251495773,43.547347756767564
12:21:25.404184,404184,123.0809244987178,265.91404703646293
12:21:25.408181,408181,123.50796098391345,106.83925073696348
12:21:25.412183,412183,121.35844071322134,537.1115119170684
12:21:25.416186,416186,120.34201440198882,253.91614070260346
12:21:25.420181,420181,120.38400020585759,10.509587952132481
12:21:25.425180,425180,121.32257943510706,187.75339652919982
12:21:25.429181,429181,119.16151035510065,540.1322369423677
12:21:25.433185,433185,121.46313671242721,574.8317575740682
12:21:25.437186,437186,118.80505364435366,664.3546783488007
12:21:25.441187,441187,119.88117542951527,268.96320548902867
12:21:25.445183,445183,119.48163927272341,99.98402322118457
12:21:25.450183,450183,118.16211758766242,263.9043370121982
12:21:25.454183,454183,118.49725957827037,83.78549765198784
12:21:25.458182,458182,116.87191574587564,406.43756749055603
12:21:25.462182,462182,119.45715472301089,646.3097442838119
12:21:25.466181,466181,119.35445734515211,25.680764655857597
12:21:25.470182,470182,119.55923221750446,51.180922857372025
12:21:25.475183,475183,121.03425925462767,294.9464181410142
12:21:25.479183,479183,120.80480260120373,57.36416335598449
12:21:25.483182,483182,120.68863243182372,29.049804796202192
12:21:25.487183,487183,119.73835527624671,237.509911416399
12:21:25.491189,491189,121.27133532019499,382.6710044803508
12:21:25.495183,495183,120.23455465244977,259.58454375193276
12:21:25.500182,500182,120.89452116314263,132.01970607978677
12:21:25.504185,504185,121.84431532038292,237.270586370295
12:21:25.508183,508183,122.7641214915544,230.06657608091226
12:21:25.512183,512183,123.39610194495617,157.99511335044158
12:21:25.516185,516185,125.71675099980664,579.8723275488413
12:21:25.520182,520182,131.9384799575232,1556.5996891960417
12:21:25.525182,525182,131.1935876649211,148.97845852042337
12:21:25.529182,529182,130.69069560756176,125.72301433983313
12:21:25.533183,533183,128.1562468762901,633.4538193630723
12:21:25.537183,537183,124.97921319637885,794.2584199778153
12:21:25.541183,541183,124.1684031370436,202.7025148338133
12:21:25.545184,545184,125.72324175252886,388.6125007461301
12:21:25.550182,550182,124.32673381486562,279.41335287379843
12:21:25.554183,554183,123.32096918448599,251.3783130166534
12:21:25.558183,558183,121.13134002205008,547.4072906089766
12:21:25.562183,562183,118.74276234125476,597.1444201988305
12:21:25.566181,566181,119.24174823545206,124.80887798832016
12:21:25.570182,570182,118.0538559903218,296.8988365734245
12:21:25.575184,575184,119.25830145046861,240.79277491939516
12:21:25.579184,579184,120.17258513104694,228.57092014458402
12:21:25.583183,583183,121.27012225642615,274.4528945684433
12:21:25.587182,587182,121.27986703128862,2.436802916346294
12:21:25.591184,591184,122.45886127966115,294.6012614624019
12:21:25.596184,596184,122.48186867692287,4.6014794523443925
12:21:25.600182,600182,123.16268097221288,170.2882179314684
12:21:25.604184,604184,125.13909354320246,493.8562146400751
12:21:25.608182,608182,124.36517769482447,193.57574996948375
12:21:25.612183,612183,124.24603514363606,29.77819324878866
12:21:25.616182,616182,123.89289676207312,88.30667205875032
12:21:25.620183,620183,121.97237467354455,480.0105195022672
12:21:25.625182,625182,121.41848841571354,110.79941144849174112:21:25.629184,629184,121.73658780798979,79.48510551630497
12:21:25.633182,633182,122.99058526885817,313.656193313751
12:21:25.637185,637185,122.79896132038054,47.870084555989756
12:21:25.641184,641184,124.992270717193,548.464465319443
12:21:25.645182,645182,124.711002976691,70.35211118108762
12:21:25.650182,650182,124.79044433112288,15.888270886375722
12:21:25.654185,654185,123.49199366204682,324.36939022634556
12:21:25.658185,658185,124.19671456219217,176.18022503633668
12:21:25.662185,662185,125.71707130467257,380.0891856201005
12:21:25.666183,666183,123.96903179243446,437.22849230567994
12:21:25.670182,670182,123.49246551625062,119.17136188643302
12:21:25.675182,675182,122.8072597579002,137.0411516700841
12:21:25.679181,679181,123.17231458358926,91.28652805427791
12:21:25.683184,683184,123.5559169017907,95.82870801934553
12:21:25.687183,687183,122.28242916091168,318.4515481067816
12:21:25.691180,691180,122.59792711160397,78.93368793902675
12:21:25.695182,695182,124.52502855154205,481.53459268817704
12:21:25.700182,700182,123.44443892154393,216.11792599962314
12:21:25.704182,704182,122.76864508032061,168.9484603058311
12:21:25.708183,708183,123.31059041920847,135.4524716040631
12:21:25.712182,712182,123.55646508314811,61.48403699415984
12:21:25.716183,716183,123.04972011738079,126.65457779738192
12:21:25.720183,720183,122.93517351862502,28.636649688941418
12:21:25.725182,725182,121.86889350026122,213.29866340544078
12:21:25.729183,729183,120.72848975402802,285.02967913851637
12:21:25.733184,733184,119.77753818111238,237.67847361050784
12:21:25.737181,737181,120.27796790384166,125.2013316810807
12:21:25.741181,741181,121.65849459926002,345.13167385459195
12:21:25.745183,745183,120.54865401971105,277.32148414517053
12:21:25.750184,750184,120.65318986583722,20.9029886275082
12:21:25.754186,754186,120.57974054763362,18.353152974412907
12:21:25.758183,758183,121.72261566057647,285.9332281568292
12:21:25.762181,762181,121.83613566888168,28.394199175891814
12:21:25.766184,766184,121.9858851179347,37.409305284291456
12:21:25.771182,771182,121.66159933404799,64.88311002135018
12:21:25.775182,775182,119.77297980215556,472.1548829731077
12:21:25.779183,779183,120.72582244779649,238.15112362932462
12:21:25.783184,783184,119.86324072708985,215.59153229358742
12:21:25.787183,787183,120.04603802388026,45.71075188557431
12:21:25.791181,791181,120.20535778690478,39.849865688976266
12:21:25.795182,795182,120.60650145243282,100.26085116921747
12:21:25.800183,800183,121.36499181557646,151.66773908091105
12:21:25.804183,804183,120.63315339076722,182.95960620231
12:21:25.808183,808183,121.10667859333451,118.38130064182195
12:21:25.812183,812183,120.63463902076646,118.0098931420126
12:21:25.816183,816183,120.05973785147613,143.72529232258202
12:21:25.820180,820180,118.84143138342829,304.80522092765636
12:21:25.825180,825180,118.11328704509762,145.62886766613303
12:21:25.829181,829181,118.98647271149311,218.24185613483772
12:21:25.833181,833181,118.83837001951935,37.025672993440395
12:21:25.837184,837184,118.70598686872678,33.070984459795966
12:21:25.841183,841183,118.81173307509926,26.443162383714125
12:21:25.845183,845183,120.63599125321849,456.06454452980927
12:21:25.850186,850186,119.66691649636539,193.69873213134196
12:21:25.854183,854183,120.76673365783219,275.1606608623474
12:21:25.858182,858182,117.98967417362005,694.4384806732047
12:21:25.862183,862183,119.58879920215331,399.68133679911654
12:21:25.866182,866182,118.51354093180068,268.8817880351674
12:21:25.870183,870183,118.9165956118874,100.73848540033131
12:21:25.875183,875183,118.85724985969388,11.869150438704423
12:21:25.879186,879186,119.45754580046153,149.9615140563706
12:21:25.883183,883183,119.47142144301928,3.471514275143797
12:21:25.887182,887182,119.35227151867736,29.794929817935945
12:21:25.891410,891410,118.71252015121323,151.3130008193304
12:21:25.895183,895183,117.63399101475018,285.8545286146427
12:21:25.900182,900182,119.58486685831066,390.2532193559676
12:21:25.904182,904182,119.83827707100413,63.35255317336674
12:21:25.908183,908183,121.50094173433527,415.5622752639696
12:21:25.912184,912184,121.06248708219107,109.5862664694331
12:21:25.916182,916182,120.14757110151015,228.8434168786685
12:21:25.920182,920182,121.45218997344455,326.15471798359863
12:21:25.925182,925182,120.76310086564787,137.81782155933513
12:21:25.929184,929184,121.6892344313862,231.41768259328475
12:21:25.933182,933182,121.76185097267341,18.163216930269567
12:21:25.937184,937184,120.801562865651,239.95205073024022
12:21:25.941184,941184,120.42172881382955,94.95851295536184
12:21:25.945183,945183,119.79405918035363,156.9566475308622
12:21:25.950183,950183,118.93264866598588,172.28210287354955
12:21:25.954184,954184,119.8356970376934,225.70566651025064
12:21:25.958182,958182,120.15904844667706,80.87829139161303
12:21:25.962182,962182,120.4172461966002,64.54943748078534
12:21:25.966183,966183,119.42661514342419,247.59586432792224
12:21:25.970184,970184,120.59920425986189,293.0740106067748
12:21:25.975182,975182,119.98995442995833,121.89872547090059
12:21:25.979183,979183,119.99214264285395,0.5469164947807749
12:21:25.983182,983182,120.50699471079287,128.74520328555087
12:21:25.987182,987182,122.97937366441965,618.0947384066968
12:21:25.991183,991183,125.76418544444002,696.0289377706479
12:21:25.995184,995184,123.98065774860369,445.77048133874695
12:21:26.000185,000185,123.12092942736102,0.8640494324543746
12:21:26.004184,004184,124.11973741191402,249.76443724756106
12:21:26.008181,008181,124.93324112182843,203.52857390903534
12:21:26.012183,012183,124.70580352305603,56.83098420099877
12:21:26.016184,016184,125.86111044136345,288.75454094161887
12:21:26.020183,020183,124.9093205281052,238.0069800595781
12:21:26.025182,025182,122.94068711966085,393.80544277742496
12:21:26.029184,029184,122.26311480920178,169.30842340306586
12:21:26.033184,033184,122.93714258422692,168.5069437562845
12:21:26.037184,037184,121.2709408727249,416.550427875503
12:21:26.041182,041182,121.16719905696743,25.948428153445082
12:21:26.045183,045183,122.17122372082235,250.94343010620358
12:21:26.050182,050182,122.0449342416523,25.26294842369566
12:21:26.054185,054185,122.50667420925062,115.34848053917547
12:21:26.058183,058183,123.9375577073533,357.89982443789086
12:21:26.062182,062182,122.92468936388978,253.28040596737273
12:21:26.066183,066183,123.33943848856421,103.66136582715058
12:21:26.070182,070182,122.4338488825573,226.45401500547965
12:21:26.075183,075183,122.2983634188252,27.091674411536786
12:21:26.079186,079186,121.95235838605802,86.43643086864374
12:21:26.083182,083182,119.53547499849259,604.8256725639225
12:21:26.087182,087182,116.05759340735317,869.4703977848554
12:21:26.091183,091183,113.92780477875301,532.3140786303805
12:21:26.095182,095182,116.57104560265314,660.9754498374916
12:21:26.100184,100184,116.89066302702922,63.89792570493333
12:21:26.104183,104183,119.6858089716017,698.961226449733
12:21:26.108185,108185,118.68956486539125,248.9365582734769
12:21:26.112183,112183,116.89446011243241,449.0006885840008
12:21:26.116183,116183,118.21466668391638,330.0516428709912
12:21:26.120181,120181,119.94583746232288,433.0091992012276
12:21:26.125180,125180,122.31299761836873,473.52673655647953
12:21:26.129181,129181,121.61915848834424,173.41642839902173
12:21:26.133183,133183,122.00423582269065,96.22122297511383
12:21:26.137182,137182,123.92774443643168,480.9974027859552
12:21:26.141181,141181,122.6015251413762,331.63773319716944
12:21:26.145182,145182,122.43523630770885,41.56181796234736
12:21:26.150182,150182,122.42459420628072,2.1284202856264756
12:21:26.154180,154180,120.25236919367197,543.3279171107426
12:21:26.158180,158180,120.06548647815242,46.72067887988618
12:21:26.162181,162181,119.78698598499098,69.60772136002129
12:21:26.166183,166183,119.76798479619177,4.747923238183041
12:21:26.171186,171186,121.49051244000823,344.29894939365636
12:21:26.175182,175182,123.27190759583428,445.7945835400517512:21:26.179182,179182,123.0053506778799,66.6392294885938
12:21:26.183184,183184,123.29661375913071,72.77938062238984
12:21:26.187187,187187,124.05163951682776,188.61497819062083
12:21:26.191182,191182,124.03508666089871,4.143393223792068
12:21:26.196186,196186,123.5943586163439,88.0751487919298
12:21:26.200182,200182,123.31656721986569,69.51736648603784
12:21:26.204181,204181,126.84990186597928,883.5545501659384
12:21:26.208182,208182,128.4089841584324,389.67315482457195
12:21:26.212183,212183,126.08261961448922,581.4457745421572
12:21:26.216180,216180,125.35497997978692,182.04644350820604
12:21:26.221182,221182,122.84376836735181,502.04150588466706
12:21:26.225180,225180,123.16360680496228,79.99960920722143
12:21:26.229183,229183,123.58700745634259,105.77083471903704
12:21:26.233185,233185,123.26462371610576,80.55565723059229
12:21:26.237183,237183,123.98604381255028,180.44524673449683
12:21:26.241184,241184,125.32613745693007,334.9396761759039
12:21:26.245182,245182,123.60649247436791,430.12630879493713
12:21:26.250182,250182,124.11597079311109,101.89566374863546
12:21:26.254183,254183,124.91592481945926,199.93852195655455
12:21:26.258185,258185,124.07001051342576,211.37289006334495
12:21:26.262182,262182,125.82399443606748,438.8250994850445
12:21:26.266183,266183,124.75433935767681,267.3469328644507
12:21:26.270182,270182,124.68956083651979,16.19867995924575
12:21:26.275185,275185,126.96479159513461,454.7732877503148
12:21:26.279183,279183,126.50591931181488,114.7754585592134
12:21:26.283184,283184,125.88680339084593,154.74029516844578
12:21:26.287182,287182,126.3048433098324,104.56226087705855
12:21:26.291182,291182,126.0258916552083,69.73791365602722
12:21:26.295181,295181,126.66116404553209,158.85781203395638
12:21:26.300183,300183,126.26657905426922,78.88544407494491
12:21:26.304183,304183,126.16460042292073,25.494657837121792
12:21:26.308183,308183,124.68970858757554,368.72295883629744
12:21:26.312183,312183,124.74205666160134,13.087018506450221
12:21:26.316182,316182,124.49356973848144,62.13726509624869
12:21:26.320181,320181,124.86089360942151,91.85393121782177
12:21:26.325182,325182,125.10129871868104,48.071407570391266
12:21:26.329183,329183,126.52657975899352,356.2312022775516
12:21:26.333183,333183,125.66436369537028,215.55401590580914
12:21:26.337183,337183,124.74889069354668,228.86825045589987
12:21:26.341184,341184,122.93652604110095,452.9779186317763
12:21:26.346183,346183,125.68326617526819,549.4579184171314
12:21:26.350185,350185,125.70360677420999,5.082608431234427
12:21:26.354184,354184,126.85127958596648,286.98995042673
12:21:26.358182,358182,125.32744468533456,381.1492998078853
12:21:26.362182,362182,127.44242361104612,528.7447314278921
12:21:26.366183,366183,128.12911255987595,171.62932987498763
12:21:26.370183,370183,128.31254057439335,45.85700362935086
12:21:26.375182,375182,128.06939246983023,48.639348782380225
12:21:26.379184,379184,127.2191170691974,212.4626188487853
12:21:26.383183,383183,128.9141795690347,423.87159285754086
12:21:26.387183,387183,129.0059247112184,22.936285545924306
12:21:26.391183,391183,129.59749468201207,147.89249269841775
12:21:26.395182,395182,128.21333171429583,346.12727374749585
12:21:26.400182,400182,129.60491721443006,278.3171000268453
12:21:26.404183,404183,128.86485906719446,184.9682947352164
12:21:26.408182,408182,128.0139379167906,212.7834834718302
12:21:26.412182,412182,128.12272729334012,27.1973441373774
12:21:26.416183,416183,128.37321442637096,62.60613172477997
12:21:26.421186,421186,128.03033769610116,68.53422551865036
12:21:26.425183,425183,128.86201381583226,208.0750862474605
12:21:26.429182,429182,129.4552126732748,148.33679856027268
12:21:26.433184,433184,128.7229167631238,182.98248629459792
12:21:26.437183,437183,128.6896768943651,8.312045200974937
12:21:26.441182,441182,128.34661556979117,85.78677783794399
12:21:26.445183,445183,128.7638920704166,104.29305189338508
12:21:26.450183,450183,129.06240120002082,59.701825920842566
12:21:26.454183,454183,127.9408495043684,280.3879239131035
12:21:26.458183,458183,127.70477399092478,59.0188783609058
12:21:26.462182,462182,127.30179254102202,100.77055511446706
12:21:26.466183,466183,126.40727962080888,223.57233696904407
12:21:26.470182,470182,126.10624034795994,75.27863787170274
12:21:26.475182,475182,126.04283095673918,12.68187824415179
12:21:26.479182,479182,125.22524107197222,204.39747119174
12:21:26.483182,483182,126.37660437737091,287.84082634967234
12:21:26.487182,487182,126.22403687323458,38.141876034082145
12:21:26.491182,491182,125.51871164611737,176.33130677930353
12:21:26.496182,496182,123.06917153434556,489.90802235436206
12:21:26.500184,500184,123.62705358439422,139.40081210611228
12:21:26.504182,504182,125.30271597095415,419.1251592195936
12:21:26.508182,508182,124.5179493510598,196.19165497358892
12:21:26.512184,512184,123.80891649667977,177.1696287806164
12:21:26.516183,516183,124.5859796640496,194.31437043506673
12:21:26.520183,520183,124.75833579633418,43.0890330711442
12:21:26.525183,525183,124.84561747646309,17.456336025782093
12:21:26.529184,529184,123.71440301845523,282.7329312691479
12:21:26.533186,533186,124.12216676108218,101.88999066140796
12:21:26.537183,537183,124.79382789996629,168.041315707807
12:21:26.541183,541183,124.63303753660762,40.197590839667896
12:21:26.545184,545184,124.4678161266353,41.29502873589556
12:21:26.550182,550182,125.06182666224258,118.84964698024851
12:21:26.554182,554182,126.2809813133872,304.7886627861551
12:21:26.558183,558183,127.04880605184103,191.90820756156592
12:21:26.562183,562183,125.76135260910128,321.8633606849366
12:21:26.566182,566182,126.7771684012233,254.01745239360505
12:21:26.570182,570182,126.339189586153,109.4947037675773
12:21:26.575183,575183,126.20247509079493,27.337431585295633
12:21:26.579187,579187,126.30278304676501,25.051937055464737
12:21:26.583182,583182,126.68257278174065,95.0662665771292
12:21:26.587183,587183,127.19105396454162,127.08852356935206
12:21:26.591182,591182,125.27117342008007,480.09015865505097
12:21:26.595183,595183,125.10464431021087,41.62187199930076
12:21:26.600186,600186,124.35744530773724,149.35019038049884
12:21:26.604182,604182,124.10488045365086,63.20441793953271
12:21:26.608184,608184,125.4585017441055,338.23620451140437
12:21:26.612183,612183,124.682866171892,193.9573823989754
12:21:26.616182,616182,124.39645113176257,71.62166544871887
12:21:26.620181,620181,125.3194551788101,230.80871394036694
12:21:26.625182,625182,124.66570978396737,130.72293438166963
12:21:26.629182,629182,123.73351714818838,233.04815894474729
12:21:26.633184,633184,125.50012259472496,441.43064631098775
12:21:26.637183,637183,124.07234588388249,357.0334360696338
12:21:26.641183,641183,123.75903565684682,78.3275567589179
12:21:26.645185,645185,123.87919767676479,30.02549223337582
12:21:26.650182,650182,123.5988164464723,56.10991200570164
12:21:26.654185,654185,122.29657868761362,325.31545312482655
12:21:26.658180,658180,121.83045744890059,116.67615487184709
12:21:26.662181,662181,122.76236731353396,232.91923634925482
12:21:26.666181,666181,121.0015874345016,440.1949697580889
12:21:26.671184,671184,121.80711894344589,161.0096959712741
12:21:26.675180,675180,120.13196247152761,419.2083263058736
12:21:26.679181,679181,119.11693173470637,253.69426064015124
12:21:26.683183,683183,117.19535516782766,480.1540646873345
12:21:26.687183,687183,115.62116050277719,393.54866626261753
12:21:26.691182,691182,114.03957817626117,395.49445524281407
12:21:26.695182,695182,115.96790362910164,482.08136321011705
12:21:26.700183,700183,117.51786020543,309.92932939979113
12:21:26.704183,704183,117.63879792496994,30.234429884984593
12:21:26.708182,708182,117.83370388447408,48.738674544671284
12:21:26.712183,712183,119.91526784660222,520.2609253007106
12:21:26.716183,716183,120.47704053177061,140.44317129209816
12:21:26.720181,720181,121.61254176687599,284.0173174350626
12:21:26.725181,725181,123.47558272552914,372.60819173062885
12:21:26.729182,729182,123.89009606411668,103.60243403837532
12:21:26.733183,733183,123.68624449911324,50.950153712430065
12:21:26.737184,737184,123.9703735935694,71.01451998404451
12:21:26.741180,741180,125.36970464756388,350.1829464450633
12:21:26.745182,745182,122.51010945708347,714.5415268566729
12:21:26.750185,750185,122.37448489372639,27.10864748292697
12:21:26.754181,754181,123.40433059383498,257.71914417132007
12:21:26.758182,758182,122.64693309947444,189.30204807811705
12:21:26.762182,762182,124.06744082159229,355.12693052946173
12:21:26.766183,766183,124.82891514299696,190.3210001011439
12:21:26.770182,770182,125.27345045911558,111.16161943451304
12:21:26.775183,775183,125.59180776428457,63.658729287939934
12:21:26.779182,779182,126.20569026993007,153.50900366229212
12:21:26.783182,783182,126.63222380025107,106.63338258024879
12:21:26.787181,787181,126.75406176845823,30.467108828997244
12:21:26.791184,791184,126.09413056868813,164.85915557584298
12:21:26.796186,796186,126.7894286860054,139.00402185471103
12:21:26.800183,800183,128.11241626396694,330.99514084601986
12:21:26.804182,804182,127.13273397836099,244.98181685570052
12:21:26.808182,808182,126.0509788715531,270.4387767019725
12:21:26.812182,812182,125.00020079259804,262.69451973876556
12:21:26.816185,816185,125.35641027980878,88.98563257825332
12:21:26.820182,820182,123.48130837198504,469.12732244777277
12:21:26.825186,825186,123.93276458528462,90.21906740599105
12:21:26.829183,829183,123.45540576411219,119.42927725104585
12:21:26.833184,833184,121.45309322552473,500.45302139151727
12:21:26.837183,837183,121.04793837126869,101.31404207452856
12:21:26.841183,841183,124.54269256494,873.6885484178281
12:21:26.846183,846183,122.60158634546448,388.22124389510293
12:21:26.850182,850182,126.86023286645607,1064.927862213451
12:21:26.854182,854182,129.11876065331785,564.6319467154441
12:21:26.858183,858183,128.68995136540534,107.17552809610459
12:21:26.862183,862183,131.77006366873078,770.0280758313625
12:21:26.866183,866183,129.6541410839113,528.9806462048716
12:21:26.870183,870183,129.41953924110038,58.65046070272939
12:21:26.875182,875182,129.62098913081212,40.2980375498578
12:21:26.879186,879186,128.16897563607722,362.64073295077407
12:21:26.883182,883182,127.30693593275863,215.72565148112778
12:21:26.887184,887184,126.5453274751571,190.30696091992493
12:21:26.891184,891184,125.85053360254321,173.69846815347145
12:21:26.895183,895183,124.77250459756935,269.5746449046904
12:21:26.900185,900185,119.18360188122426,1117.3336098250877
12:21:26.904182,904182,120.09559405027021,228.16916913834
12:21:26.908182,908182,120.81827173607391,180.66942145092568
12:21:26.912182,912182,124.10509302359486,821.7053218802376
12:21:26.916183,916183,122.87604371109462,307.1855317421237
12:21:26.920182,920182,124.96142788343737,521.4764121887328
12:21:26.925186,925186,126.14001298072469,235.52859658020083
12:21:26.929182,929182,126.20538268680602,16.358785305637433
12:21:26.933183,933183,124.77385932845345,357.79139174020594
12:21:26.937183,937183,125.47112867702496,174.31733714287745
12:21:26.941183,941183,125.12518963963605,86.4847593472291
12:21:26.945183,945183,126.2967785908366,292.89723780013685
12:21:26.950181,950181,126.71019285541787,82.71593929197225
12:21:26.954183,954183,128.6865102804117,493.8324400284451
12:21:26.958183,958183,126.3348174943553,587.9231965141009
12:21:26.962181,962181,126.19270685473062,35.5454326224837
12:21:26.966181,966181,125.74097386132186,112.93324835218854
12:21:26.971183,971183,125.5897566143482,30.23135685199087
12:21:26.975182,975182,125.72336102737098,33.40945561960002
12:21:26.979183,979183,126.64128363703597,229.423296592098
12:21:26.983182,983182,127.06952179999769,107.08631231850941
12:21:26.987181,987181,126.9389638483641,32.64764982085298
12:21:26.991180,991180,127.67867975681717,184.97522091849925
12:21:26.996187,996187,126.79894998907606,175.69997358520288
12:21:27.000183,000183,126.19729414958988,0.6040697020154383
12:21:27.004183,004183,124.9733783420579,305.97895188299515
12:21:27.008182,008182,124.94662049385191,6.691134835206032
12:21:27.012183,012183,123.12556267405132,455.1506672833257
12:21:27.016182,016182,124.79259185650433,416.8615109909995
12:21:27.020183,020183,123.71723655169271,268.7716332945821
12:21:27.025184,025184,125.61351653150133,379.1801599297391
12:21:27.029183,029183,126.36408260077803,187.68843942903248
12:21:27.033183,033183,125.70504551011865,164.75927266484547
12:21:27.037183,037183,127.37041086316812,416.3413382623666
12:21:27.041181,041181,125.6405343326058,432.68547537826964
12:21:27.045183,045183,125.62304067348246,4.371229166249848
12:21:27.050181,050181,124.46948353874292,230.80374844728757
12:21:27.054182,054182,124.91314993741155,110.88887744779444
12:21:27.058183,058183,125.11975645572454,51.63871989827419
12:21:27.062184,062184,125.15270410969434,8.234854778755127
12:21:27.066182,066182,125.49339884939762,85.21629307235641
12:21:27.070183,070183,124.40405210667691,272.2686185255454
12:21:27.075182,075182,125.66411860615588,252.06371263832102
12:21:27.079182,079182,126.05873154091628,98.6532336901007
12:21:27.083185,083185,126.69906267286646,159.96281087938468
12:21:27.087183,087183,127.48778046382117,197.27808678206762
12:21:27.091182,091182,128.05831987821017,142.6705212275577
12:21:27.096185,096185,128.36526612124987,61.35243714565338
12:21:27.100183,100183,126.69313695129142,418.2414131962113
12:21:27.104184,104184,128.0246315034415,332.79044042741214
12:21:27.108185,108185,127.62433067105106,100.05019554872342
12:21:27.112183,112183,128.50634087408892,220.61285718806027
12:21:27.116183,116183,128.5796514462419,18.327643038247743
12:21:27.121183,121183,129.6512448130285,214.31867335732022
12:21:27.125182,125182,131.45086660310656,450.0179520075142
12:21:27.129184,129184,131.0164120299705,108.55936360221523
12:21:27.133183,133183,131.8412118198947,206.2515103586431
12:21:27.137182,137182,127.55182658992086,1072.6144611087386
12:21:27.141183,141183,126.8490506835275,175.65006408232193
12:21:27.145183,145183,127.31705601874324,117.00133380393751
12:21:27.150182,150182,125.93751780290503,275.9628357347889
12:21:27.154185,154185,125.50278735125907,108.60116203996043
12:21:27.158182,158182,125.96566140711278,115.80536798941787
12:21:27.162184,162184,124.53759885272132,356.8372199878709
12:21:27.166183,166183,125.11445144619984,144.24921067229815
12:21:27.170183,170183,124.78856574202152,81.47142604457969
12:21:27.175182,175182,125.20639272049739,83.58211211759803
12:21:27.179183,179183,126.18328269263691,244.16145267171137
12:21:27.183182,183182,125.6049403527789,144.62174039960271
12:21:27.187181,187181,124.99435694813799,152.68402216576789
12:21:27.191184,191184,125.1306615454758,34.050611375921086
12:21:27.195183,195183,125.43454952723523,75.9909931881547
12:21:27.200183,200183,122.63542140330344,559.8256247863588
12:21:27.204183,204183,123.88420468836225,312.1958212647016
12:21:27.208183,208183,121.4069195928376,619.3212738811624
12:21:27.212182,212182,122.53600625025813,282.3422499176118
12:21:27.216184,216184,122.58805209847516,13.004959574471279
12:21:27.220182,220182,123.14695135086373,139.7947104523689
12:21:27.225184,225184,121.00524323610209,428.1703548104041
12:21:27.229182,229182,124.14793158250653,786.0651191606906
12:21:27.233182,233182,122.93186369124534,304.0169728152975
12:21:27.237182,237182,122.6486569132743,70.80169449276141
12:21:27.241182,241182,121.47368003316465,293.7442200274098
12:21:27.245183,245183,120.2779446055973,298.85914210631256
12:21:27.250185,250185,121.2013019185458,184.5976235402832
12:21:27.254183,254183,122.2682751611274,266.87674901991267
12:21:27.258180,258180,121.68250670007976,146.55202928387533
12:21:27.262184,262184,121.32099042173508,90.2887808053648
12:21:27.266181,266181,123.3458712548627,506.60015840070685
12:21:27.271183,271183,122.71993990025065,125.13621643583556
12:21:27.275183,275183,123.0473086340438,81.84218344828764
12:21:27.279182,279182,122.56002208611555,121.85210000706415
12:21:27.283183,283183,121.93675604088676,155.77756691546833
12:21:27.287183,287183,119.40583147277216,632.7311420286499
12:21:27.291182,291182,118.50630425552632,224.93803882116705
12:21:27.296182,296182,118.2877581743312,43.70921623902291
12:21:27.300182,300182,119.12628436841547,209.6315485210667
12:21:27.304182,304182,116.95300371572202,543.3201631733624
12:21:27.308185,308185,115.60596353724176,336.5076638721599
12:21:27.312182,312182,114.15347912228708,363.39364897540213
12:21:27.316182,316182,116.4488738080844,573.8486714493298
12:21:27.321184,321184,118.37727162596698,385.52535343514256
12:21:27.325182,325182,120.20420722742581,456.96238155548485
12:21:27.329182,329182,120.63058187370153,106.59366156892958
12:21:27.333183,333183,120.98640058484672,88.93244467512872
12:21:27.337185,337185,120.77771643910667,52.14496395303623
12:21:27.341185,341185,121.11394086617105,84.05610676609498
12:21:27.345183,345183,120.68356724185246,107.64722969449498
12:21:27.350182,350182,123.39462661405133,542.3203385074764
12:21:27.354183,354183,122.46629040203447,232.0260464925916
12:21:27.358182,358182,122.08110779989265,96.3197304680732
12:21:27.362181,362181,121.70915046540142,93.0125867694993
12:21:27.366183,366183,120.41241052006876,324.0229748457423
12:21:27.370183,370183,117.36392949703482,762.1202557584859
12:21:27.375183,375183,117.87357336427888,101.9287734488131
12:21:27.379182,379182,119.22747273294256,338.55948203642805
12:21:27.383184,383184,119.79366895915925,141.47831739547462
12:21:27.387182,387182,120.44585155355973,163.1272122062246
12:21:27.391186,391186,119.67071648653759,193.59017657895816
12:21:27.395184,395184,119.50425108413802,41.6371691844839
12:21:27.400182,400182,120.18438864667145,136.08194528480024
12:21:27.404182,404182,120.5991802578211,103.6979027874132
12:21:27.408183,408183,120.80274975019962,50.87965318133468
12:21:27.412184,412184,118.7338346523367,517.0994995908341
12:21:27.416183,416183,118.64032639327009,23.382910494276036
12:21:27.421183,421183,117.62193325055641,203.6786285427354
12:21:27.425182,425182,119.29635677319358,418.7105582988672
12:21:27.429182,429182,120.19525405835479,224.72432129030295
12:21:27.433183,433183,121.15283873748444,239.33633569848854
12:21:27.437182,437182,122.17623241154321,255.91239661384512
12:21:27.441182,441182,121.49135196553564,171.2201115018921
12:21:27.446184,446184,122.5863835249338,218.91874438187753
12:21:27.450184,450184,123.61401134447155,256.9069548844389
12:21:27.454182,454182,124.8001035208294,296.6713797793512
12:21:27.458182,458182,125.01603677316929,53.98331308497362
12:21:27.462183,462183,126.42611060596043,352.43035061013285
12:21:27.466181,466181,124.9533158377496,368.3828834944553
12:21:27.470182,470182,124.51763173094544,108.89380325022753
12:21:27.475183,475183,124.55643116724328,7.758335592448732
12:21:27.479191,479191,125.82284672343174,315.97194515680206
12:21:27.483182,483182,126.74842763689648,231.91704171003312
12:21:27.487184,487184,127.2981281856145,137.3564589500304
12:21:27.491182,491182,126.74228311491407,139.0307830666404
12:21:27.495183,495183,126.94289725219028,50.140999069283794
12:21:27.500184,500184,126.57200036780172,74.16454396891764
12:21:27.504184,504184,129.38648468341617,703.6210789036126
12:21:27.508184,508184,129.37203131510483,3.6133420778341474
12:21:27.512183,512183,128.99337310405986,94.688224817449
12:21:27.516182,516182,128.62164720136312,92.95471435277278
12:21:27.520183,520183,129.00413538650085,95.59814674774589
12:21:27.525182,525182,129.57392268969116,113.98025668939988
12:21:27.529184,529184,130.0645495457322,122.59541630211062
12:21:27.533182,533182,130.6297346906236,141.3669697077007
12:21:27.537182,537182,129.7634229093905,216.57794530827346
12:21:27.541183,541183,127.40277555590389,590.0143347879562
12:21:27.545183,545183,128.86262173757137,364.96154541687173
12:21:27.550184,550184,126.26429772002933,519.5608913301421
12:21:27.554182,554182,125.969637623669,73.70187502759671
12:21:27.558183,558183,125.03568878777322,233.4288517610039
12:21:27.562184,562184,125.3877575673706,87.99519610031848
12:21:27.566183,566183,124.83930110982914,137.14840148573703
12:21:27.571183,571183,124.61789042516045,44.28213693373664
12:21:27.575181,575181,124.86909433493857,62.83239364134885
12:21:27.579181,579181,124.53365983510781,83.85862495768848
12:21:27.583182,583182,124.11695427017831,104.15035364396421
12:21:27.587180,587180,125.32881936562158,303.11783277720673
12:21:27.591183,591183,126.32183030953874,248.0666859648154
12:21:27.595182,595182,125.36725350935977,238.70387601374586
12:21:27.600182,600182,124.55374211477077,162.70227891779996
12:21:27.604183,604183,123.44713789045456,276.58191060140325
12:21:27.608181,608181,126.19868787958089,688.231613088127
12:21:27.612180,612180,125.28492489292839,228.4978711309078
12:21:27.616183,616183,125.00812843066998,69.14725512325835
12:21:27.620180,620180,126.34093365189437,333.4513938514862
12:21:27.625184,625184,126.84720832640333,101.1739957052275
12:21:27.629183,629183,129.17124839504936,581.1553059880039
12:21:27.633182,633182,128.02547167760198,286.51580831392243
12:21:27.637184,637184,128.56542422327885,134.92067608117654
12:21:27.641183,641183,126.77392416551156,447.9870111946222
12:21:27.646183,646183,127.0237277568831,49.9607182743091
12:21:27.650183,650183,126.20100228006947,205.68136920340763
12:21:27.654183,654183,126.16062405421712,10.094556463087656
12:21:27.658182,658182,125.93405612125053,56.65614727846677
12:21:27.662183,662183,126.36140719126585,106.81106473764548
12:21:27.666183,666183,127.23634969159076,218.73562508122646
12:21:27.671184,671184,126.84805604249593,77.64320117873103
12:21:27.675182,675182,126.93477224964512,21.689896735666508
12:21:27.679184,679184,126.04199251227531,223.08339264612866
12:21:27.683185,683185,126.07319926177605,7.7997374408247335
12:21:27.687185,687185,127.89046245529627,454.31579838005473
12:21:27.691181,691181,126.6082075672291,320.88460662341635
12:21:27.695183,695183,127.2939586601745,171.3520971877549
12:21:27.700182,700182,126.45879796170452,167.06555280455632
12:21:27.704183,704183,126.52611341130647,16.8246562364282
12:21:27.708182,708182,125.76500090372257,190.32570832305643
12:21:27.712181,712181,125.3104843473929,113.65755347078392
12:21:27.716182,716182,123.17406565280568,533.9711808515922
12:21:27.720184,720184,120.80521138027407,591.9176093282375
12:21:27.725182,725182,120.67745168820964,25.562163278197268
12:21:27.729183,729183,121.17593288105323,124.58915092316535
12:21:27.733183,733183,122.04025873273942,216.08146292154728
12:21:27.737182,737182,123.18670866760195,286.68415475432136
12:21:27.741184,741184,124.7201665393049,383.172881484995
12:21:27.745182,745182,121.70666203235926,753.7530032380282
12:21:27.750183,750183,123.24234390154949,307.0749588462763
12:21:27.754184,754184,123.04199896939423,50.07371461016267
12:21:27.758182,758182,122.45009929718331,148.04894252399055
12:21:27.762183,762183,122.7749154874307,81.18375162394142
12:21:27.766182,766182,123.63293392443752,214.55824881390836
12:21:27.770182,770182,124.66311548537728,257.54539023493805
12:21:27.775183,775183,125.20618754654825,108.59269369545581
12:21:27.779183,779183,126.61797502528935,352.946869685276
12:21:27.783182,783182,126.06880321565703,137.327284229139
12:21:27.787183,787183,125.22688898746397,210.4259505606253
12:21:27.791183,791183,125.07376328742566,38.28142500957554
12:21:27.796182,796182,127.79840799363548,545.0379488317294
12:21:27.800182,800182,128.21619051159578,104.44562949007619
12:21:27.804182,804182,129.2106513563407,248.61521118622676
12:21:27.808182,808182,126.53969277964438,667.7396441740768
12:21:27.812183,812183,126.7223538635516,45.65385751242695
12:21:27.816182,816182,124.66632539543434,514.1356509420509
12:21:27.820180,820180,126.90043328623933,558.8063758891927
12:21:27.825181,825181,126.13074250941143,153.90737389080192
12:21:27.829182,829182,126.31792153706725,46.78306114866679
12:21:27.833183,833183,124.52492627434846,448.13678148432643
12:21:27.837183,837183,124.97060955301424,111.42081966644568
12:21:27.841182,841182,122.6435374452919,581.9135053069127
12:21:27.845183,845183,120.55269425513896,522.5801525001095
12:21:27.850183,850183,122.28218104661077,345.8973582943628
12:21:27.854183,854183,119.7373885510693,636.198123885368
12:21:27.858182,858182,118.6043481773607,283.33092615868867
12:21:27.862183,862183,120.29694304465279,423.04295608400065
12:21:27.866181,866181,120.54023001725632,60.85216923549971
12:21:27.870182,870182,119.8055673641956,183.61975832559955
12:21:27.875183,875183,119.56721194101569,47.66155232551709
12:21:27.879181,879181,118.95088273670443,154.15938076819816
12:21:27.883182,883182,117.30610597018854,411.09141877427874
12:21:27.887181,887181,119.3934540572112,521.967513634074
12:21:27.891181,891181,120.9633206737942,392.46665414574977
12:21:27.895182,895182,119.5870680822009,343.9771536099224
12:21:27.900182,900182,119.6179757986586,6.181543291540947
12:21:27.904183,904183,118.96393149475652,163.47020842341487
12:21:27.908183,908183,118.6324033581936,82.88203414073081
12:21:27.912182,912182,117.75036227511748,220.5654121220599
12:21:27.916182,916182,118.01118339461952,65.20527987551006
12:21:27.920184,920184,116.86590643429844,286.17615200426883
12:21:27.925181,925181,117.48913847044182,124.72123997265918
12:21:27.929181,929181,118.47641963066359,246.82029005544237
12:21:27.933181,933181,116.94660719298102,382.45310942064134
12:21:27.937181,937181,116.59988640710498,86.68019646901115
12:21:27.941182,941182,118.97072652981574,592.5618902051388
12:21:27.946182,946182,121.30838521792035,467.5317376209222
12:21:27.950182,950182,120.31509917778504,248.32151003382563
12:21:27.954183,954183,124.110940960322,948.7232648180338
12:21:27.958182,958182,124.55325663105272,110.6065693250116
12:21:27.962181,962181,125.77717961842724,306.05726115892014
12:21:27.966184,966184,125.39875183527438,94.53604375539807
12:21:27.971186,971186,122.68132360354194,543.2683390108839
12:21:27.975182,975182,126.2155604366272,884.443651923238
12:21:27.979182,979182,124.86879283938059,336.6918993116528
12:21:27.983182,983182,125.54840820634227,169.90384174042106
12:21:27.987183,987183,124.94090006193696,151.83907633224578
12:21:27.991185,991185,124.38062042600292,139.99990902899484
12:21:27.995182,995182,123.67372599340273,176.85625033780187
12:21:28.000182,000182,121.66013090735683,2.0237136543174836
12:21:28.004183,004183,120.88555633582571,193.59524407176173
12:21:28.008182,008182,119.74555472513877,285.07167058938165
12:21:28.012182,012182,118.220707188964,381.2118840436938
12:21:28.016182,016182,117.89929542049684,80.35294211678945
12:21:28.021184,021184,118.61338364099973,142.7605398846236
12:21:28.025183,025183,120.33558729827395,430.6585789632961
12:21:28.029182,029182,119.93896658120602,99.17997426054828
12:21:28.033181,033181,120.7673819682892,207.15563567971566
12:21:28.037185,037185,121.4133465096209,161.329805527396
12:21:28.041183,041183,123.20365086389516,447.7999885628488
12:21:28.045181,045181,121.39894567557317,451.4019980795371
12:21:28.050184,050184,121.77504205083174,75.17417054938429
12:21:28.054182,054182,123.81696646703801,510.73647228771165
12:21:28.058182,058182,123.13577598032938,170.29762167715745
12:21:28.062182,062182,123.70905422403376,143.31956092609488
12:21:28.066184,066184,123.27396366214641,108.71828133117184
12:21:28.070182,070182,123.35715740717946,20.808840678600024
12:21:28.075182,075182,123.011730648804,69.08535167509058
12:21:28.079182,079182,122.30452990456682,176.80018605929604
12:21:28.083182,083182,122.3583550966299,13.456298015768198
12:21:28.087182,087182,121.41372409672628,236.15774997590222
12:21:28.091183,091183,122.77845527903456,341.0975211967698
12:21:28.096183,096183,121.08313189729319,339.06467634827493
12:21:28.100183,100183,120.88217368245297,50.239553710053286
12:21:28.104183,104183,120.08792184399637,198.5629596141507
12:21:28.108183,108183,120.26018641730523,43.066143327216366
12:21:28.112183,112183,121.2264592112323,241.56819848176525
12:21:28.116181,116181,118.8044360724625,605.8086890369691
12:21:28.121180,121180,118.684168338266,24.058358510999923
12:21:28.125183,125183,118.07373674275046,152.49352873233823
12:21:28.129184,129184,117.54013383602049,133.36738483628284
12:21:28.133183,133183,116.02436960248573,379.0358173380228
12:21:28.137182,137182,116.84654024050091,205.5940580182996
12:21:28.141183,141183,117.1523339837864,76.42932848925052
12:21:28.145183,145183,115.36050774918,447.956558651601
12:21:28.150185,150185,115.36236908494509,0.37211830569471394
12:21:28.154182,154182,118.26292460260184,725.6831417705168
12:21:28.158182,158182,120.69872976089195,608.9512895725271
12:21:28.162184,162184,122.43056144530085,432.74155032706204
12:21:28.166180,166180,123.43495797374565,251.35048259379394
12:21:28.170180,170180,124.11337230204308,169.60358207435533
12:21:28.175181,175181,122.62161910845842,298.2909805208272
12:21:28.179184,179184,122.8058530903301,46.02397748480769
12:21:28.183181,183181,125.4526796343196,662.2032884637205
12:21:28.187180,187180,123.60571313292476,461.8570896211132
12:21:28.191183,191183,124.68251456064218,268.9986079733733
12:21:28.196181,196181,123.42742718954347,251.11792138829742
12:21:28.200183,200183,124.35334085810278,231.36273577194342
12:21:28.204181,204181,123.6938833081413,164.94686092083234
12:21:28.208182,208182,124.44494280699776,187.71794522780888
12:21:28.212181,212181,125.20286874045803,189.52886558146312
12:21:28.216181,216181,124.529364447638,168.3760732050068
12:21:28.220180,220180,126.21644067049208,421.8745243446047
12:21:28.225182,225182,125.26004340678031,191.20297155373137
12:21:28.229186,229186,125.9695992215013,177.21174193830814
12:21:28.233182,233182,125.62082327738854,87.28126729548532
12:21:28.237183,237183,124.25009415697838,342.59663094480396
12:21:28.241184,241184,125.52276734807874,318.0887755811964
12:21:28.245186,245186,126.01428972280857,122.81918409041118
12:21:28.250182,250182,125.3280808745312,137.35165097625588
12:21:28.254183,254183,124.38925300375135,234.64830561855692
12:21:28.258187,258187,125.88870600211472,374.48876083001176
12:21:28.262182,262182,125.21159383082893,169.48990520294987
12:21:28.266181,266181,125.55259089641307,85.27058404204388
12:21:28.270181,270181,125.2170565542168,83.88358554906716
12:21:28.275183,275183,125.62767003399634,82.08986001190362
12:21:28.279182,279182,128.5686182600167,735.4209117330252
12:21:28.283181,283181,127.69892904696759,217.476672430386
12:21:28.287181,287181,128.36311233369997,166.04582168309534
12:21:28.291182,291182,128.03238457177613,82.66127516216923
12:21:28.295185,295185,126.32089255812271,427.5523391589875
12:21:28.300183,300183,126.56815727408562,49.47273228549687
12:21:28.304182,304182,125.75331955663319,203.76036945547241
12:21:28.308183,308183,125.09059792272883,165.63899872640695
12:21:28.312182,312182,125.64390300799047,138.36086153079302
12:21:28.316182,316182,126.0780431209791,108.53502824715733
12:21:28.320182,320182,125.91114996676495,41.723288553537685
12:21:28.325188,325188,127.18428110035806,254.32104146885956
12:21:28.329182,329182,127.97344807257245,197.58812524145938
12:21:28.333184,333184,128.00468929287115,7.806401873737193
12:21:28.337183,337183,128.21444562707106,52.45219659912706
12:21:28.341186,341186,128.1942081361424,5.0555810463778315
12:21:28.345182,345182,126.7671622304624,357.11859501501584
12:21:28.350182,350182,127.26480921268397,99.52939644431353
12:21:28.354183,354183,126.7833411799674,120.33692394815732
12:21:28.358184,358184,126.44149333429019,85.44060126898471
12:21:28.362185,362185,126.72013470182226,69.64293115023105
12:21:28.366182,366182,126.39774207254462,80.65865130789193
12:21:28.370185,370185,126.34662505112593,12.76967809610054
12:21:28.375184,375184,128.25239663571915,381.2305630312513
12:21:28.379185,379185,128.28167209430987,7.317035388832182
12:21:28.383182,383182,130.05134421688572,442.7500932138742
12:21:28.387183,387183,129.3586340637454,173.13425472140096
12:21:28.391183,391183,128.37069881207196,246.98381291835858
12:21:28.396182,396182,128.29159045103168,15.824837175491824
12:21:28.400185,400185,127.54666720342745,186.09124346845718
12:21:28.404183,404183,129.38164152525218,458.97306698967765
12:21:28.408182,408182,126.40995013931717,743.1086236396607
12:21:28.412183,412183,126.86224367639267,113.04512298812567
12:21:28.416183,416183,124.59152121101586,567.6806163442017
12:21:28.420183,420183,124.82307037414083,57.887290781241774
12:21:28.425182,425182,125.01644971860343,38.68360561364254
12:21:28.429183,429183,125.90174042958908,221.26736090618778
12:21:28.433184,433184,125.73330776720456,42.09764118583305
12:21:28.437184,437184,126.31102474701719,144.42924495315523
12:21:28.441184,441184,125.12918899773054,295.45893732166206
12:21:28.445182,445182,125.56560477571604,109.15852375825463
12:21:28.450181,450181,126.4017756431681,167.267627015814
12:21:28.454181,454181,129.05337069375125,662.8987626457885
12:21:28.458181,458181,129.1585307250501,26.290007824712802
12:21:28.462183,462183,130.0564114981197,224.35801426027032
12:21:28.466183,466183,132.40497740301888,587.1414762247937
12:21:28.470182,470182,130.2186085253531,546.7289016418567
12:21:28.475183,475183,130.86970037569964,130.19233160298862
12:21:28.479184,479184,128.53442537321732,583.6728324124767
12:21:28.483181,483181,129.0118215958546,119.43863463529689
12:21:28.487181,487181,128.20780649726444,201.00377464753905
12:21:28.491180,491180,128.04891410909633,39.733030299603044
12:21:28.495183,495183,129.62376255290954,393.41704816717703
12:21:28.500183,500183,128.88692106735715,147.3682971104779
12:21:28.504182,504182,127.22605885138265,415.3193838395859
12:21:28.508183,508183,127.86330439730023,159.27156858724808
12:21:28.512181,512181,127.36716215618846,124.09760908248363
12:21:28.516182,516182,126.97171211799795,98.83780009760147
12:21:28.520182,520182,125.96852532587171,250.7966980315608
12:21:28.525182,525182,127.34852664811828,276.00026444931416
12:21:28.529182,529182,127.78952833150133,110.25042084576242
12:21:28.533183,533183,126.3114443062207,369.4286491578698
12:21:28.537183,537183,125.54438578181887,191.7646311004546
12:21:28.541184,541184,125.92744020739048,95.7396714750314
12:21:28.545183,545183,125.91854320579392,2.2248066007880696
12:21:28.550182,550182,126.38093595123837,92.49704849858911
12:21:28.554182,554182,128.16620217124697,446.3165550021486
12:21:28.558185,558185,127.76781534829077,99.52206419090626
12:21:28.562182,562182,128.8434317677585,269.1059343176685
12:21:28.566185,566185,129.16636930245724,80.67387826598862
12:21:28.571183,571183,135.23458295383173,1214.1283816275495
12:21:28.575182,575182,131.90834763989028,831.7667701779077
12:21:28.579183,579183,133.49717289873732,397.1070379522714
12:21:28.583184,583184,131.42353627502723,518.2795860310139
12:21:28.587183,587183,133.0477490246716,406.15472609261246
12:21:28.591181,591181,129.35083000959162,924.6920998199026
12:21:28.596182,596182,128.6442929283127,141.27916042370006
12:21:28.600180,600180,128.61004262550117,8.566859132448439
12:21:28.604182,604182,127.59041118676892,254.78046944833764
12:21:28.608182,608182,126.4708444311841,279.8916888962033
12:21:28.612182,612182,124.73558931723682,433.81377848682234
12:21:28.616181,616181,123.74811470616676,246.93038536385487
12:21:28.620183,620183,121.18686771942508,639.9917508100148
12:21:28.625182,625182,121.49686112255293,62.011082842138016
12:21:28.629183,629183,122.50230121324151,251.29719837255192
12:21:28.633183,633183,120.91414473445431,397.0391196967995
12:21:28.637183,637183,122.22779753220959,328.4131994388204
12:21:28.641182,641182,123.56697598713095,334.8783333136666
12:21:28.645183,645183,123.04430904657988,130.63407661861083
12:21:28.650183,650183,123.1476461761705,20.667425918122717
12:21:28.654181,654181,122.82131431876616,81.62377623920486
12:21:28.658180,658180,123.9382286262454,279.2984014701797
12:21:28.662181,662181,124.74199283759891,200.89083013084476
12:21:28.666183,666183,126.33690243353,398.5281349153136
12:21:28.671181,671181,125.27461324181718,212.5428554847582
12:21:28.675180,675180,125.7450265239017,117.63272870330626
12:21:28.679181,679181,125.5121404690158,58.20696198097863
12:21:28.683183,683183,124.54936348346135,240.57395940890945
12:21:28.687182,687182,125.97904710473966,357.5102828903013
12:21:28.691182,691182,128.24296838774325,565.9803207508958
12:21:28.696182,696182,128.05309802492087,37.97407256447514
12:21:28.700182,700182,127.38223901387883,167.71475276051007
12:21:28.704184,704184,129.0122266755632,407.2932687866985
12:21:28.708183,708183,125.29218910162373,930.2419539733595
12:21:28.712182,712182,125.03032457980598,65.48250107970898
12:21:28.716182,716182,125.30920223216596,69.71941308999519
12:21:28.721184,721184,124.80316342066745,101.16729538154998
12:21:28.725184,725184,124.2942485200603,127.22872515178807
12:21:28.729183,729183,124.68741170024826,98.31537389046484
12:21:28.733182,733182,125.19340718628334,126.53050413480263
12:21:28.737181,737181,125.53819918242586,86.21955392411067
12:21:28.741182,741182,125.79831490055176,65.01267636238505
12:21:28.746183,746183,125.03722087671844,152.18836709324592
12:21:28.750186,750186,123.77503797688287,315.3092430266214
12:21:28.754182,754182,123.70895750335505,16.536655036991764
12:21:28.758182,758182,124.26392748385123,138.74249512404546
12:21:28.762182,762182,124.19358615896935,17.585331220470124
12:21:28.766183,766183,125.36989213024088,294.00299206986546
12:21:28.771184,771184,126.2017001007734,166.32832844081364
12:21:28.775183,775183,126.24961538832203,11.981817341493748
12:21:28.779181,779181,126.47200108642907,55.62423664508427
12:21:28.783182,783182,126.3276514420714,36.07839149154582
12:21:28.787182,787182,126.03945831832192,72.04828093736992
12:21:28.791182,791182,125.9458583349429,23.399995844755495
12:21:28.795183,795183,124.14334556769363,450.51556292158676
12:21:28.800183,800183,123.80430849555621,67.80741442748308
12:21:28.804184,804184,124.88121371693364,269.1590155904599
12:21:28.808183,808183,125.41918930386919,134.52752861604023
12:21:28.812183,812183,125.13821415309171,70.24378769436979
12:21:28.816183,816183,126.85481889944235,429.15118658766005
12:21:28.821182,821182,125.93645179427577,183.7101630659294
12:21:28.825182,825182,126.18429251080005,61.96017913106999
12:21:28.829183,829183,126.48164320669021,74.31909419899013
12:21:28.833182,833182,126.81827225377573,84.17830634796782
12:21:28.837182,837182,129.44486444536216,656.6480478966064
12:21:28.841181,841181,126.94224938779918,625.8102169449805
12:21:28.846183,846183,127.56952543498878,125.4050474189517
12:21:28.850182,850182,127.25748223924447,78.03030651270538
12:21:28.854180,854180,128.46422219847295,301.835907761002
12:21:28.858182,858182,129.08831365063756,155.9448905958536
12:21:28.862183,862183,129.73046884879767,160.49867487131
12:21:28.866182,866182,131.98270763376183,563.200496365132
12:21:28.870182,870182,131.5876662142151,98.76035488668577
12:21:28.875183,875183,130.7608078941082,165.33859630211543
12:21:28.879182,879182,133.01269373353014,563.1122379149614
12:21:28.883185,883185,131.1297780317683,470.37614333296176
12:21:28.887182,887182,130.96937614843696,40.13056875940252
12:21:28.891183,891183,129.18175526319573,446.7935229295773
12:21:28.895183,895183,134.0323392597142,1212.6459991296201
12:21:28.900182,900182,133.223181712571,161.86388220508118
12:21:28.904185,904185,134.84940387474538,406.25085240428984
12:21:28.908182,908182,135.3646612443999,128.91102568289583
12:21:28.912183,912183,135.98545362072764,155.159304255868
12:21:28.916180,916180,136.67396525715216,172.25710193257996
12:21:28.920182,920182,133.9257905482249,686.7003270682787
12:21:28.925184,925184,133.083900268514,168.31073164952497
12:21:28.929181,929181,131.85045630908104,308.5924341838746
12:21:28.933183,933183,132.5608123238084,177.50025355506062
12:21:28.937182,937182,130.67490583590433,471.59452060616803
12:21:28.941180,941180,131.88497211310994,302.6679032530297
12:21:28.945181,945181,129.92336834524068,490.2783723742223
12:21:28.950181,950181,127.5005119671865,484.5712756108355
12:21:28.954182,954182,127.12078351642977,94.90838559278424
12:21:28.958183,958183,125.81784146586641,325.6540991160609
12:21:28.962182,962182,126.71581328392398,224.5490917873394
12:21:28.966183,966183,124.93421121150818,445.2891958049972
12:21:28.971184,971184,127.04997116294722,423.06737681244374
12:21:28.975182,975182,125.41352735341857,409.31561018725444
12:21:28.979182,979182,126.52316104429975,277.4084227202955
12:21:28.983183,983183,124.5773611213943,486.328398626706
12:21:28.987183,987183,126.15507641077608,394.4288223454428
12:21:28.991184,991184,127.1686087769991,253.3197616153506
12:21:28.996185,996185,127.87856561162029,141.96297432937317
12:21:29.000183,000183,128.14004567671566,0.2625296586707353
12:21:29.004182,004182,127.99780120238354,35.57001108580058
12:21:29.008181,008181,128.3013757396603,75.91261247230791
12:21:29.012184,012184,127.92585232146507,93.81049667630002
12:21:29.016182,016182,74.64141160422837,13327.774066342348
12:21:29.020182,020182,117.38285542982663,10685.360956399567
12:21:29.025182,025182,126.27862629327792,1779.1541726902578
12:21:29.029182,029182,128.50245844684488,555.9580383917399
12:21:29.033184,033184,128.6307104208552,32.04697001756901
12:21:29.037182,037182,130.6989151422948,517.3098352775386
12:21:29.041183,041183,131.08571380602316,96.67549705782821
12:21:29.045184,045184,131.11868508207593,8.24075882348481
12:21:29.050183,050183,133.4201877868581,460.3926194803293
12:21:29.054185,054185,136.63747630551282,803.920169578892
12:21:29.058182,058182,136.29775087200522,84.99510470542799
12:21:29.062183,062183,136.4280011564112,32.554432493370285
12:21:29.066180,066180,135.75154536246507,169.2408791458926
12:21:29.070180,070180,133.46146555129124,572.5199527934564
12:21:29.075180,075180,134.37276272087814,182.25943391738042
12:21:29.079181,079181,134.6121115555338,59.822253100639344
12:21:29.083183,083183,133.51658594511366,273.7445303398649
12:21:29.087181,087181,132.34975517313623,291.8536198042598
12:21:29.091182,091182,135.64668964171204,824.0276102413928
12:21:29.096183,096183,80.78854062606236,10969.435915946748
12:21:29.100182,100182,123.82269928996944,10761.229973470137
12:21:29.104184,104184,134.21334385324258,2596.362959338616
12:21:29.108182,108182,134.10257716332194,27.70552524278086
12:21:29.112184,112184,138.03624939802248,982.9265953774457
12:21:29.116181,116181,136.17875736821028,464.721548614509
12:21:29.120182,120182,134.2556973929856,480.64483259801915
12:21:29.125184,125184,134.5971242995873,68.25807808910376
12:21:29.129182,129182,134.39461318735425,50.65310461056886
12:21:29.133182,133182,134.37898111829674,3.908017264379282
12:21:29.137182,137182,133.80758584299375,142.84881882574751
12:21:29.141182,141182,138.5776675187277,1192.5204189334906
12:21:29.145182,145182,139.89485140673244,329.29597200118366
12:21:29.150182,150182,134.0571700566199,1167.5362700225094
12:21:29.154182,154182,133.75212017135607,76.26247131595676
12:21:29.158183,158183,136.4075109119057,663.681764696231
12:21:29.162180,162180,135.12734715455127,320.28115020125483
12:21:29.166182,166182,138.48045724268212,837.8585927363437
12:21:29.170183,170183,137.4388288485839,260.3420130212975
12:21:29.175184,175184,138.42812774770672,197.82021578140672
12:21:29.179181,179181,138.48460354635716,14.129546822726782
12:21:29.183182,183182,138.11574342843988,92.19198148394882
12:21:29.187181,187181,136.85750006901176,314.6394997319633
12:21:29.191182,191182,135.86228956385156,248.7404411797555
12:21:29.196183,196183,135.02584255498957,167.2559505822826
12:21:29.200183,200183,135.31562232698164,72.44494299801829
12:21:29.204184,204184,136.27896955925402,240.77661391461714
12:21:29.208182,208182,136.1483198155754,32.678775307308
12:21:29.212181,212181,135.10464023208516,260.98514215810087
12:21:29.216183,216183,138.0244031863981,729.5759506029344
12:21:29.221183,221183,140.96606452886002,588.3322684923826
12:21:29.225184,225184,139.95291351355297,253.22444771483256
12:21:29.229184,229184,139.0561073239671,224.20154739646847
12:21:29.233181,233181,137.3121173983889,436.32472493825503
12:21:29.237181,237181,138.6620976405808,337.4950605479796
12:21:29.241182,241182,142.65744865102184,998.5881055838607
12:21:29.246184,246184,144.0184895051865,272.09933110049104
12:21:29.250184,250184,142.55827570579547,365.0534498477569
12:21:29.254180,254180,142.54780782031628,2.6195909607575296
12:21:29.258180,258180,145.19325178230852,661.3609904980606
12:21:29.262183,262183,142.75463664769484,609.1968859889294
12:21:29.266183,266183,143.19414048634536,109.87595966263086
12:21:29.270184,270184,141.71416772721133,369.9007146048559
12:21:29.275182,275182,141.91928390655625,41.03965172967438
12:21:29.279182,279182,142.13506179872746,53.944473042804475
12:21:29.283183,283183,142.6570553691241,130.46577615511907
12:21:29.287183,287183,141.87698416793287,195.0178002978049
12:21:29.291182,291182,140.14626428727027,432.78816720745306
12:21:29.295183,295183,137.4106983501207,683.7205541488561
12:21:29.300182,300182,137.39210131705784,3.7201506427006694
12:21:29.304182,304182,133.57633274930186,953.9421419389953
12:21:29.308183,308183,135.65189875134513,518.7618100583039
12:21:29.312182,312182,133.95276825525306,424.88884623457545
12:21:29.316183,316183,138.52756603058512,1143.4135904354057
12:21:29.320183,320183,138.32576900073204,50.44925746327067
12:21:29.325183,325183,140.55645374352432,446.1369485584555
12:21:29.329181,329181,138.42324700011088,533.568470088404
12:21:29.333183,333183,137.53894021360193,220.9662135204757
12:21:29.337182,337182,140.58720034099508,762.2555957472241
12:21:29.341182,341182,140.2425953160584,86.1512562341673
12:21:29.345182,345182,142.469860696694,556.8163451589
12:21:29.350183,350183,139.95470883637714,502.9297861061541
12:21:29.354182,354182,140.8629608081205,227.11977287906186
12:21:29.358183,358183,137.82842352800972,758.444708850483
12:21:29.362183,362183,136.45070360711787,344.42998022296223
12:21:29.366184,366184,137.23836977674475,196.86732557532468
12:21:29.371186,371186,135.2187484160139,403.76276703935184
12:21:29.375182,375182,138.45656129939192,810.2634843288319
12:21:29.379182,379182,136.48327252763966,493.32219293806645
12:21:29.383181,383181,136.8551925073508,93.00324573922266
12:21:29.387181,387181,136.01132209179292,210.9676038894719
12:21:29.391180,391180,135.61060631737266,100.20399460371667
12:21:29.396183,396183,136.66340909015165,210.43429397941017
12:21:29.400184,400184,136.4161021226271,61.81128905886952
12:21:29.404181,404181,136.46403469480177,11.992137146524662
12:21:29.408183,408183,137.37164992981542,226.79041354663943
12:21:29.412182,412182,137.36651883366014,1.2830948125235089
12:21:29.416181,416181,138.14285402560793,194.13233106971595
12:21:29.420184,420184,138.9033974064156,189.99335018927334
12:21:29.425182,425182,139.8358196598063,186.55907430786553
12:21:29.429183,429183,140.8529495062077,254.21890687362875
12:21:29.433185,433185,137.0941615097288,939.2273854270117
12:21:29.437183,437183,136.27243250766767,205.53501802429184
12:21:29.441182,441182,135.93525258663092,84.31605927400597
12:21:29.445183,445183,135.1738713563256,190.29773314304373
12:21:29.450184,450184,133.31538087643455,371.6237712239672
12:21:29.454183,454183,133.911900127629,149.1671045747564
12:21:29.458183,458183,134.94303187619113,257.7829371405329
12:21:29.462183,462183,133.99316485654535,237.46675491144487
12:21:29.466182,466182,133.45911362321846,133.54619488044307
12:21:29.470182,470182,135.61762734342543,539.6284300517422
12:21:29.475183,475183,131.9091057411564,741.5560092519556
12:21:29.479183,479183,134.18341639598177,568.5776637063426
12:21:29.483183,483183,134.33748847198476,38.51801900074747
12:21:29.487181,487181,134.42241153348118,21.241386067139967
12:21:29.491182,491182,135.51215195758303,272.36701427189394
12:21:29.496183,496183,134.34058270652267,234.26699681270978
12:21:29.500183,500183,137.5419166946347,800.3334970280065
12:21:29.504186,504186,135.66364376607046,469.21631990113144
12:21:29.508180,508180,136.09783428292485,108.71069525648123
12:21:29.512181,512181,136.71549495746078,154.37657449035905
12:21:29.516182,516182,136.87412728985802,39.64817105654748
12:21:29.521185,521185,134.7351426140861,427.5404109078398
12:21:29.525183,525183,134.92321309061646,47.04113970244028
12:21:29.529184,529184,134.76734667568383,38.956864517028706
12:21:29.533182,533182,134.1539533710706,153.42503867264273
12:21:29.537184,537184,135.5148435565682,340.05252011434163
12:21:29.541182,541182,134.48733306100507,257.0061269542573
12:21:29.545183,545183,135.7778218296114,322.5415567623938
12:21:29.550184,550184,136.68308978826482,181.0173882530316
12:21:29.554183,554183,135.22310320828353,365.0879169745662
12:21:29.558186,558186,136.23622281839505,253.09008496415603
12:21:29.562183,562183,138.09385070379923,464.7555380045496
12:21:29.566184,566184,137.88856354766395,51.308961793372774
12:21:29.571183,571183,135.32783097339004,512.2489646477122
12:21:29.575185,575185,138.79476267204583,866.2997747765613
12:21:29.579182,579182,137.75387079294248,260.4182834884553
12:21:29.583184,583184,138.30941331230125,138.81622172882723
12:21:29.587185,587185,138.80568417211018,124.03670577578872
12:21:29.591183,591183,138.06483964579107,185.30378347151284
12:21:29.595182,595182,138.974615947097,227.5009505641223
12:21:29.600183,600183,138.32147739895865,130.6015893098068
12:21:29.604183,604183,138.45097027663607,32.37321941935534
12:21:29.608182,608182,140.65369530894426,550.818962817753
12:21:29.612182,612182,139.78257305800045,217.78056273595325
12:21:29.616182,616182,140.67448472832132,222.97791758021646
12:21:29.621183,621183,141.7615354884061,217.36667868122234
12:21:29.625183,625183,138.9811563120098,695.0947940990773
12:21:29.629183,629183,139.8301599629056,212.25091272395247
12:21:29.633182,633182,138.52330067298578,326.79652161035955
12:21:29.637183,637183,139.50075059605578,244.3014054161453
12:21:29.641182,641182,139.61647944737075,28.93944769066503
12:21:29.645182,645182,138.72351968526604,223.23994052617735
12:21:29.650183,650183,139.66993945900794,189.2461055272734
12:21:29.654183,654183,137.58345470119946,521.6211894521194
12:21:29.658182,658182,137.68547679177345,25.511900618653698
12:21:29.662185,662185,140.51874424820667,707.7860245898626
12:21:29.666182,666182,141.3363925271538,204.56549385717594
12:21:29.670183,670183,142.506796143089,292.52777204078626
12:21:29.675182,675182,142.68906296679447,36.46065687246962
12:21:29.679182,679182,141.5746658149566,278.59928795946587
12:21:29.683182,683182,142.72249526199911,286.9573617606278
12:21:29.687182,687182,141.7758337182822,236.66538592922848
12:21:29.691183,691183,136.80930363035208,1241.3221914346723
12:21:29.695183,695183,138.1003018838427,322.74956337265337
12:21:29.700182,700182,139.36680700431552,253.35169443345242
12:21:29.704183,704183,137.50053194085413,466.45215282713997
12:21:29.708186,708186,135.36029005175521,534.6594776664793
12:21:29.712182,712182,134.88915734398336,117.90107802098545
12:21:29.716183,716183,134.26334062263948,156.41507656682853
12:21:29.720182,720182,136.80305569929214,635.0875410484294
12:21:29.725182,725182,133.95586148655798,569.4388425468333
12:21:29.729185,729185,134.65091765858412,173.63381764330302
12:21:29.733183,733183,135.0248965214647,93.54148646337947
12:21:29.737183,737183,136.59600920208067,392.7781701539885
12:21:29.741182,741182,137.99637437500147,350.17883793968497
12:21:29.746184,746184,136.65224414879603,268.71855781796006
12:21:29.750183,750183,138.17538665804707,380.8808475246424
12:21:29.754182,754182,137.07634518294805,274.829076043768
12:21:29.758180,758180,133.99625023927328,770.4089403888859
12:21:29.762181,762181,134.4472250802756,112.71553136773467
12:21:29.766181,766181,134.3472814592487,24.985905256720287
12:21:29.770181,770181,134.7152489636293,91.99187609515036
12:21:29.775182,775182,136.35259816673752,327.40435974969307
12:21:29.779184,779184,134.98021814190088,342.9235444369426
12:21:29.783183,783183,139.7498052565703,1192.69495240546
12:21:29.787182,787182,139.06591890973675,171.01434029346345
12:21:29.791182,791182,139.68430204582228,154.59578402138163
12:21:29.795183,795183,139.59826760589354,21.50323417364121
12:21:29.800183,800183,135.2397130372794,871.7109137228306
12:21:29.804183,804183,137.1510805474387,477.84187753983076
12:21:29.808181,808181,138.3999674078161,312.37790404636877
12:21:29.812181,812181,136.5777740141031,455.54834842824476
12:21:29.816181,816181,137.87824600055652,325.1179966133506
12:21:29.820183,820183,138.00013966167123,30.458186185585067
12:21:29.825182,825182,138.31946998971145,63.878841376319926
12:21:29.829182,829182,136.93301382334377,346.6140415919199
12:21:29.833182,833182,137.49783440853545,141.2051462979207
12:21:29.837183,837183,136.83817987945818,164.87241416577666
12:21:29.841183,841183,135.9764862067033,215.42341818872046
12:21:29.845182,845182,137.59919538934358,405.7787403451559
12:21:29.850183,850183,136.76436556513173,166.932578326705
12:21:29.854182,854182,137.42540732026708,165.30176422489566
12:21:29.858182,858182,137.5915357515762,41.532107827279674
12:21:29.862182,862182,136.1993777781309,348.0394933613269
12:21:29.866182,866182,132.54599185864853,913.3464798705901
12:21:29.870183,870183,139.0687622411907,1630.2850243794494
12:21:29.875184,875184,137.25047760306313,363.5842107833592
12:21:29.879182,879182,138.05437595995159,201.07512678550606
12:21:29.883182,883182,137.9331464250962,30.307383713847003
12:21:29.887183,887183,137.78070485919028,38.10086625991434
12:21:29.891180,891180,137.4353803415341,86.39592635881075
12:21:29.895183,895183,134.59289787615813,710.0880503062654
12:21:29.900183,900183,134.9763482738164,76.69007953165305
12:21:29.904183,904183,134.98733368175542,2.7463519847543694
12:21:29.908185,908185,135.21858135716883,57.78302733968361
12:21:29.912186,912186,134.8561628050102,90.58199254152207
12:21:29.916183,916183,137.72858594545573,718.6447686878994
12:21:29.920184,920184,137.06260086132002,166.45465736958576
12:21:29.925183,925183,137.3195667870529,51.403465839744975
12:21:29.929182,929182,139.4213148920264,525.5684183479608
12:21:29.933181,933181,137.20428091393788,554.3970937955796
12:21:29.937181,937181,138.39290691458183,297.1565001609875
12:21:29.941182,941182,139.8995398983769,376.5641049225373
12:21:29.946182,946182,138.25030940138683,329.8460993980143
12:21:29.950181,950181,137.2179456967188,258.15546503326556
12:21:29.954184,954184,135.22302260030767,498.357006348021
12:21:29.958183,958183,134.43042145153086,198.19983715349107
12:21:29.962181,962181,136.4413885172678,502.99326306576666
12:21:29.966182,966182,138.58389054467082,535.4916339422709
12:21:29.970183,970183,139.8502344728453,316.5068553297872
12:21:29.975184,975184,136.30559070917187,708.7869953356197
12:21:29.979184,979184,132.6095760425808,924.0036666477636
12:21:29.983182,983182,134.52850727587898,479.97279472190274
12:21:29.987181,987181,133.05827454101797,367.6500962393133
12:21:29.991181,991181,134.93754110680388,469.81664144647795
12:21:29.996184,996184,131.81074219888964,624.9847907084221
12:21:30.000183,000183,132.056941731272,0.2471880373436861
12:21:30.004183,004183,137.16717502047675,1277.5583223011893
12:21:30.008184,008184,133.32634988025677,959.9662934816237
12:21:30.012184,012184,133.2519008708155,18.61225236032027
12:21:30.016182,016182,135.3120865676233,515.3040762400753
12:21:30.021183,021183,137.2464439556085,386.79411877328283
12:21:30.025181,025181,135.85450881721076,348.157863531201
12:21:30.029182,029182,136.35569872196567,125.26615964881512
12:21:30.033181,033181,135.05608011235165,324.9858988782233
12:21:30.037180,037180,135.6550503318122,149.77999986510127
12:21:30.041183,041183,135.7825923822222,31.861616390207292
12:21:30.045183,045183,133.85423004526555,482.0905842391596
12:21:30.050182,050182,134.74352280009623,177.89412979209388
12:21:30.054183,054183,135.65499888254084,227.81206759425342
12:21:30.058183,058183,135.36694974492875,72.01228440302287
12:21:30.062182,062182,140.30161295185349,1233.974295305011
12:21:30.066182,066182,139.53406452003426,191.88710795480546
12:21:30.070182,070182,139.23229035578666,75.44354106190099
12:21:30.075184,075184,136.71392654285796,503.47137403612504
12:21:30.079183,079183,140.10689135061452,848.453315267956
12:21:30.083182,083182,139.17659932007837,232.63116542539413
12:21:30.087183,087183,140.6745564280232,374.3956780666938
12:21:30.091183,091183,139.31828290229197,339.06838143280993
12:21:30.095182,095182,140.20679972256565,222.18475125623388
12:21:30.100183,100183,136.6833604395937,704.546947204946
12:21:30.104182,104182,135.6294407332006,263.5458130515421
12:21:30.108185,108185,135.67078263336904,10.32772924517797
12:21:30.112183,112183,132.31851501518167,838.4861476206527
12:21:30.116182,116182,133.70155223107125,345.8457654137466
12:21:30.120183,120183,134.65485147999857,238.26524592035057
12:21:30.125184,125184,139.16411700061562,901.6727695694959
12:21:30.129182,129182,141.64301541302044,620.03462041141
12:21:30.133181,133181,136.84591916090017,1199.573956519197
12:21:30.137181,137181,137.02625242474738,45.08331596180426
12:21:30.141182,141182,138.3046337402959,319.5154500246261
12:21:30.145183,145183,137.1869131954206,279.3602961447916
12:21:30.150185,150185,139.29611013888106,421.67072040393055
12:21:30.154183,154183,135.15672333477963,1035.364383216967
12:21:30.158182,158182,136.73989279974285,395.89133907557385
12:21:30.162183,162183,137.01690651348144,69.23611940479812
12:21:30.166182,166182,137.7498824576358,183.28980849071306
12:21:30.170180,170180,136.60972825721333,285.18114067595604
12:21:30.175181,175181,138.9011287211754,458.1884551013951
12:21:30.179180,179180,137.00246926181032,474.7835607314559
12:21:30.183182,183182,135.91203060190728,272.4734282616299
12:21:30.187185,187185,133.28283418108003,656.8065003315619
12:21:30.191182,191182,137.42067415070616,1035.236419721323
12:21:30.195182,195182,134.7338988884718,671.6938155585907
12:21:30.200184,200184,135.45945048184436,145.05229775540934
12:21:30.204182,204182,137.36968733492418,477.7981123261188
12:21:30.208184,208184,132.3404941503944,1256.669961151871
12:21:30.212182,212182,132.35215112380945,2.9157012043665174
12:21:30.216183,216183,136.49306656319817,1034.9701173178507
12:21:30.220182,220182,134.97382500743933,379.90536528103
12:21:30.225182,225182,132.49068929222926,496.6271430420136
12:21:30.229181,229181,134.17485855359087,421.1476022409611
12:21:30.233184,233184,136.02519464735678,462.2373454324053
12:21:30.237180,237180,138.0287219617635,501.3832118134911
12:21:30.241182,241182,137.7591211111152,67.36652939737338
12:21:30.245182,245182,137.14148816072765,154.40823759688982
12:21:30.250184,250184,137.22024927372223,15.745924229225196
12:21:30.254182,254182,134.6767997601606,636.1804686247189
12:21:30.258182,258182,134.26315583478046,103.41098134503568
12:21:30.262183,262183,134.9966044516262,183.31632513015464
96180426
12:21:30.141182,141182,138.3046337402959,319.5154500246261
12:21:30.145183,145183,137.1869131954206,279.3602961447916
12:21:30.150185,150185,139.29611013888106,421.67072040393055
12:21:30.154183,154183,135.15672333477963,1035.364383216967
12:21:30.158182,158182,136.73989279974285,395.89133907557385
12:21:30.162183,162183,137.01690651348144,69.23611940479812
12:21:30.166182,166182,137.7498824576358,183.28980849071306
12:21:30.170180,170180,136.60972825721333,285.18114067595604
12:21:30.175181,175181,138.9011287211754,458.1884551013951
12:21:30.179180,179180,137.00246926181032,474.7835607314559
12:21:30.183182,183182,135.91203060190728,272.4734282616299
12:21:30.187185,187185,133.28283418108003,656.8065003315619
12:21:30.191182,191182,137.42067415070616,1035.236419721323
12:21:30.195182,195182,134.7338988884718,671.6938155585907
12:21:30.200184,200184,135.45945048184436,145.05229775540934
12:21:30.204182,204182,137.36968733492418,477.7981123261188
12:21:30.208184,208184,132.3404941503944,1256.669961151871
12:21:30.212182,212182,132.35215112380945,2.9157012043665174
12:21:30.216183,216183,136.49306656319817,1034.9701173178507
12:21:30.220182,220182,134.97382500743933,379.90536528103
12:21:30.225182,225182,132.49068929222926,496.6271430420136
12:21:30.229181,229181,134.17485855359087,421.1476022409611
12:21:30.233184,233184,136.02519464735678,462.2373454324053
12:21:30.237180,237180,138.0287219617635,501.3832118134911
12:21:30.241182,241182,137.7591211111152,67.36652939737338
12:21:30.245182,245182,137.14148816072765,154.40823759688982
12:21:30.250184,250184,137.22024927372223,15.745924229225196
12:21:30.254182,254182,134.6767997601606,636.1804686247189
12:21:30.258182,258182,134.26315583478046,103.41098134503568
12:21:30.262183,262183,134.9966044516262,183.31632513015464
