Timestamp,Milliseconds,Angle,Angular Velocity
12:19:46.520773,520773,130.65275281135123,250.88234760894136
12:19:46.524776,524776,129.55918056685903,273.1881699955553
12:19:46.528775,528775,129.97549614004745,104.1049195269886
12:19:46.533774,533774,129.06257986947276,182.61977807055368
12:19:46.537776,537776,128.2246081130752,209.38824497690268
12:19:46.541774,541774,128.9672525136277,185.7539771266901
12:19:46.545773,545773,128.56147023056735,101.47093849971169
12:19:46.549775,549775,129.88650706910371,331.0936628026893
12:19:46.553776,553776,131.990669644074,525.9091664509559
12:19:46.558774,558774,131.02181212374356,193.84904368355964
12:19:46.562775,562775,132.60155035331,394.83584842950023
12:19:46.566776,566776,131.7630199550713,209.58020450854858
12:19:46.570777,570777,133.28504232590643,380.41049008626476
12:19:46.574774,574774,132.77301139437046,128.10381074205026
12:19:46.578778,578778,132.7943247125266,5.323006532500449
12:19:46.583774,583774,133.7267969132271,186.64375514421866
12:19:46.587777,587777,131.64477174318347,520.1162053568913
12:19:46.591778,591778,130.230826284048,353.39801528004904
12:19:46.595776,595776,129.87226965590307,89.68399903574904
12:19:46.599776,599776,128.74284283375812,282.3567055362375
12:19:46.603774,603774,127.72272656702691,255.15664500530457
12:19:46.608778,608778,127.55270175309644,33.97778056164422
12:19:46.612776,612776,126.91441524948314,159.65145162913987
12:19:46.616777,616777,127.65450141128761,184.97529662696076
12:19:46.620776,620776,125.86242512684595,448.13110388638734
12:19:46.624775,624775,126.61813690132009,188.9751874153879
12:19:46.629776,629776,129.2712630266597,530.5191212436763
12:19:46.633776,633776,125.42022834528511,962.7586703436499
12:19:46.637777,637777,126.74428510398495,330.9314568107572
12:19:46.641777,641777,126.7114484797657,8.209156054810762
12:19:46.645778,645778,127.92688289012023,303.7826569243985
12:19:46.649777,649777,126.64954116799987,319.4152843511764
12:19:46.654777,654777,127.44927650704446,159.9470678089176
12:19:46.658776,658776,125.86511907961062,396.13839145632335
12:19:46.662779,662779,126.93437161456687,267.1127991397074
12:19:46.666776,666776,125.85105816247288,271.03163675106066
12:19:46.670777,670777,124.97912202003205,217.92955322190215
12:19:46.674777,674777,126.92242849088679,485.8266177136841
12:19:46.678776,678776,126.47834783966371,111.04792478696551
12:19:46.683777,683777,126.46985127727203,1.6989726838001185
12:19:46.687776,687776,126.62921766418161,39.851559617299834
12:19:46.691777,691777,126.6387022604762,2.3705564345373604
12:19:46.695777,695777,126.59119280984733,11.877362657216395
12:19:46.699777,699777,125.94616522601213,161.25689595880033
12:19:46.703775,703775,125.20934027936107,184.29838585569155
12:19:46.708776,708776,125.39443023674507,37.010589358927
12:19:46.712772,712772,125.28860070900083,26.483865801860368
12:19:46.716777,716777,126.00675499073854,179.31442740017746
12:19:46.720778,720778,126.83891437857257,207.9878499960073
12:19:46.724775,724775,129.5383641144123,675.3689606804443
12:19:46.728777,728777,128.15422652251564,345.8614672405448
12:19:46.733776,733776,128.98055286698798,165.29832856017904
12:19:46.737775,737775,128.49922829346076,120.36123369022695
12:19:46.741777,741777,131.23729230092007,684.1739149073749
12:19:46.745777,745777,130.21162178428614,256.4176291584843
12:19:46.749775,749775,131.30862021464716,274.3868009907519
12:19:46.754775,754775,128.98840505533437,464.043031862559
12:19:46.758774,758774,128.34320275393148,161.340910578367
12:19:46.762778,762778,126.89493987795223,361.7040149798335
12:19:46.766777,766777,128.42413252261693,382.39375960607754
12:19:46.770774,770774,129.5658957847528,285.65505682658693
12:19:46.774776,774776,131.87802821589673,577.74423566815
12:19:46.778775,778775,130.40533338289697,368.2657746936144
12:19:46.783777,783777,129.9386998450667,93.28939180932865
12:19:46.787777,787777,129.872069548346,16.657574180179324
12:19:46.791776,791776,129.68808558374275,46.00749302406678
12:19:46.795776,795776,128.44106380673807,311.75544425116897
12:19:46.799776,799776,126.88081700787663,390.06169971536053
12:19:46.804779,804779,124.99307292425453,377.32242327045685
12:19:46.808776,808776,126.68697431017912,423.79319137467866
12:19:46.812776,812776,126.09569495659314,147.81983839649726
12:19:46.816775,816775,126.64777257328845,138.05391765324183
12:19:46.820778,820778,126.24301585940124,101.11334346420428
12:19:46.824779,824779,126.18451727503576,14.620990843659238
12:19:46.829777,829777,126.43079691100984,49.275637449795205
12:19:46.833776,833776,128.35384099841386,480.8812421615461
12:19:46.837777,837777,127.06889764489858,321.15554949144564
12:19:46.841776,841776,127.7503875366631,170.41507671030604
12:19:46.845777,845777,127.95829733949141,51.96445959217977
12:19:46.849775,849775,127.78087599343549,44.37752527661891
12:19:46.854777,854777,126.53397230627668,249.28102502175247
12:19:46.858777,858777,125.99238110641329,135.39779996584755
12:19:46.862772,862772,126.53607833151504,136.09442430582033
12:19:46.866777,866777,125.46935541575554,266.34779419712834
12:19:46.870777,870777,125.86344464886007,98.52230827613084
12:19:46.874778,874778,124.05301073821894,452.4953538218253
12:19:46.878778,878778,123.92409537366483,32.22884113852942
12:19:46.883778,883778,123.38215900081035,108.3872745708959
12:19:46.887778,887778,124.32544399389181,235.82124827036566
12:19:46.891776,891776,125.13638400969444,202.8364221617381
12:19:46.895777,895777,125.87544858488708,184.7199638072089
12:19:46.899778,899778,126.58744575621094,177.9548041299321
12:19:46.904776,904776,130.7113212039788,825.1051316062142
12:19:46.908776,908776,129.7162183614501,248.77571063217374
12:19:46.912775,912775,129.6652836591623,12.736859786897877
12:19:46.916778,916778,131.17928343860936,378.2162826497781
12:19:46.920778,920778,129.02846660756344,537.7042077614789
12:19:46.924776,924776,129.5529695771779,131.19133807264774
12:19:46.929778,929778,129.681689160975,25.73362331009734
12:19:46.933777,933777,125.93260309222813,937.5058936601307
12:19:46.937778,937778,126.15917196433048,56.62806101033441
12:19:46.941777,941777,124.82309664196565,334.1023561802537
12:19:46.945778,945778,125.14249140324829,79.8287331373751
12:19:46.949776,949776,124.93582906465743,51.69143036289643
12:19:46.954776,954776,124.7574305007153,35.67971278842492
12:19:46.958775,958775,121.91279017182998,711.3379167005049
12:19:46.962775,962775,120.44071142700074,368.01968620731174
12:19:46.966778,966778,120.24351973607159,49.26097699953663
12:19:46.970775,970775,119.71611976166675,131.94895531769924
12:19:46.974775,974775,121.39694333637223,420.20589367637126
12:19:46.979777,979777,123.01299444877964,323.0809900854468
12:19:46.983777,983777,122.30294417249422,177.5125690713537
12:19:46.987778,987778,121.31274408931857,247.48814875672355
12:19:46.991776,991776,122.82446688967279,378.11975996853954
12:19:46.995775,995775,122.32458619905447,125.00142301033414
12:19:46.999778,999778,123.58284936137413,314.3300430476305
12:19:47.004777,004777,123.73601303799468,0.1539331886305148
12:19:47.008775,008775,124.48837523140688,188.18464067338576
12:19:47.012778,012778,125.29888282146483,202.47504123356288
12:19:47.016778,016778,124.39042889670117,227.11348119091568
12:19:47.020777,020777,124.5857079985892,48.831983467875304
12:19:47.024778,024778,125.15857502331562,143.18096094136976
12:19:47.029777,029777,125.28261661942446,24.81328187814339
12:19:47.033777,033777,126.13937163935691,214.18875498311252
12:19:47.037775,037775,126.71968925683335,145.15198035928935
12:19:47.041777,041777,127.1195662232718,99.91928196862952
12:19:47.045777,045777,129.5444430029501,606.2191949195715
12:19:47.049776,049776,126.65562688950425,722.3846245175897
12:19:47.053778,053778,130.37624853938104,929.6905671856047
12:19:47.058778,058778,128.82934693220625,309.38032143495775
12:19:47.062774,062774,126.55562127793219,569.0004139824912:191212:21:09.045761,045761,125.3743979747426,20.892285527808607
12:21:09.049772,049772,125.58643691480424,52.86435803082319
12:21:09.053772,053772,125.49489327907135,22.88590893322251
12:21:09.058725,058725,125.7349093224208,48.458720643944325
12:21:09.062725,062725,125.04037424773698,173.6337686709568
12:21:09.066760,066760,125.9103429899974,215.60563624793693
12:21:09.070723,070723,126.63686838243183,183.3271240056586
12:21:09.074774,074774,126.43657524704678,49.44288703654722
12:21:09.078772,078772,128.7520206316162,579.1509216031588
12:21:09.083725,083725,127.42590041322589,267.74080726636686
12:21:09.087722,087722,128.90906713209185,371.0699822031422
12:21:09.091773,091773,125.91143816942066,739.9725901434673
12:21:09.095759,095759,128.58756163329178,671.3806984122232
12:21:09.099762,099762,127.68623185557759,225.16357174973666
12:21:09.103775,103775,130.00426576194107,577.6311752712389
12:21:09.107763,107763,128.98830943671854,254.75334132962197
12:21:09.112724,112724,130.83743999816375,372.73343306696376
12:21:09.116724,116724,129.88447329407254,238.24167602280255
12:21:09.120723,120723,132.61000993904673,681.5545498810199
12:21:09.124725,124725,131.9811563135478,157.13483895525226
12:21:09.128774,128774,130.89258262076925,268.85001056521793
12:21:09.133726,133726,129.71000432006187,238.80821904430064
12:21:09.137722,137722,130.30293055916297,148.37993971499088
12:21:09.141773,141773,128.46708690808947,453.18283166465153
12:21:09.145722,145722,128.9219412627881,115.18216123034317
12:21:09.149725,149725,127.77445161844673,286.65741802182436
12:21:09.153764,153764,127.84098908351463,16.473747231467094
12:21:09.157764,157764,128.2101034993925,92.27860396946497
12:21:09.162725,162725,129.07784428940644,174.91247531021048
12:21:09.166775,166775,128.3390310760054,182.42301565457896
12:21:09.170726,170726,128.5438006099728,51.82726751895921
12:21:09.174760,174760,129.59411139987552,260.36459838936787
12:21:09.178761,178761,128.06428562830968,382.36085267829026
12:21:09.183724,183724,128.5054573786868,88.89215200022623
12:21:09.187724,187724,128.15768955689302,86.94195544844519
12:21:09.191760,191760,127.45580936032972,173.9049049958609
12:21:09.195761,195761,125.63629202252766,454.76564303975715
12:21:09.199725,199725,126.45645980497368,206.90408235267927
12:21:09.203773,203773,124.57625058601845,464.478561994869
12:21:09.208724,208724,124.40015463164643,35.56775487215032
12:21:09.212722,212722,123.77605716869068,156.10241694741012
12:21:09.216772,216772,125.17807018404791,346.1760531746239
12:21:09.220774,220774,123.76129335255979,354.0171992723941
12:21:09.224759,224759,126.78743856467453,759.3839930024445
12:21:09.228764,228764,126.24264564281962,136.02819521970196
12:21:09.233723,233723,126.42577958150616,36.92961054376649
12:21:09.237725,237725,127.22613326272285,199.98842609112725
12:21:09.241777,241777,127.12674283428909,24.528733572005073
12:21:09.245725,245725,128.45679137123093,336.89172668233164
12:21:09.249775,249775,127.74330931384804,176.16840923034331
12:21:09.253726,253726,127.29449098990008,113.59613362388284
12:21:09.258726,258726,126.96277068173032,66.34406163395283
12:21:09.262722,262722,126.26131760761493,175.53880733618414
12:21:09.266772,266772,126.39033649762264,31.85651605128742
12:21:09.270723,270723,126.77567193033289,97.52858332327244
12:21:09.274778,274778,127.42828132047461,160.93943036787172
12:21:09.278774,278774,128.12397210665787,174.09679333915497
12:21:09.283723,283723,126.49745999218192,328.65470084379825
12:21:09.287722,287722,126.01128854374616,121.57325542279442
12:21:09.291772,291772,126.91742710441916,223.73791621555554
12:21:09.295761,295761,126.47873854802233,109.9745691644087
12:21:09.299772,299772,126.17942760537295,74.62252372211033
12:21:09.303773,303773,126.337406060384,39.48474256712008
12:21:09.308725,308725,127.58607239152765,252.15394409201394
12:21:09.312723,312723,127.2737129135013,78.1289339735747
12:21:09.316761,316761,126.04488060440949,304.3170651539906
12:21:09.320723,320723,126.72054054785553,170.5350690171756
12:21:09.324762,324762,126.56606364545164,38.246323942535255
12:21:09.328723,328723,126.17590433545921,98.50020449190279
12:21:09.333759,333759,126.27085533848448,18.85444857531225
12:21:09.336723,336723,125.97583028895393,99.53611657575948
12:21:09.341874,341874,125.93804042154076,7.336413786287545
12:21:09.345910,345910,126.8295834626166,220.8976811387103
12:21:09.349914,349914,125.87145873142933,239.2918909059113
12:21:09.353876,353876,126.7584802047646,223.8822497060239
12:21:09.357921,357921,125.65188590152209,273.57090315018604
12:21:09.362872,362872,126.04829611859044,80.0666970447082
12:21:09.366886,366886,125.25924582733015,196.57456184860374
12:21:09.370872,370872,125.4002375348962,35.37172793930224
12:21:09.374909,374909,125.7730854465724,92.35766947639063
12:21:09.378921,378921,125.84224480451675,17.23812511075715
12:21:09.382922,382922,125.49890993761558,85.81226365937853
12:21:09.387874,387874,125.19956446123906,60.44940960753549
12:21:09.391886,391886,125.35593862110775,38.97661013676229
12:21:09.395909,395909,125.12729691884219,56.83363218134792
12:21:09.399873,399873,125.95044857708253,207.6568259940299
12:21:09.403921,403921,126.19579523897599,60.609353234551406
12:21:09.407909,407909,126.30288209852915,26.85227170340109
12:21:09.412874,412874,126.33601886383263,6.674071561627745
12:21:09.416890,416890,127.22510034779502,221.3848316639407
12:21:09.420909,420909,127.27320992666897,11.970534678762894
12:21:09.424909,424909,126.68451221327068,147.1744283495724
12:21:09.428921,428921,126.5393033908316,36.19362473556169
12:21:09.432874,432874,127.09939968366453,141.68891799466832
12:21:09.437873,437873,126.26078942440952,167.75560297159552
12:21:09.441889,441889,125.84022703341643,104.72171090465584
12:21:09.445873,445873,126.17401681973367,83.78257688685746
12:21:09.449923,449923,125.29916254180966,216.0134019565435
12:21:09.453921,453921,124.25480175373154,261.2208074232424
12:21:09.457910,457910,125.38572757360862,283.51111052320823
12:21:09.462873,462873,125.59860942373983,42.89378402804978
12:21:09.466910,466910,124.6763525213935,228.4510533431592
12:21:09.470922,470922,124.79263623955275,28.983977606992074
12:21:09.474921,474921,124.57426627972033,54.60614149347721
12:21:09.478909,478909,124.80620146525315,58.15827119679521
12:21:09.482909,482909,123.88478951562833,230.35298740620647
12:21:09.487874,487874,122.97613454521685,183.01207863272427
12:21:09.491910,491910,122.57416145954608,99.59689932377981
12:21:09.495921,495921,122.21880109836214,88.59645005832478
12:21:09.499874,499874,123.2085254930574,250.3729812029493
12:21:09.503921,503921,122.49351222320253,176.67735850132556
12:21:09.507874,507874,122.67293482021996,45.38896964771951
12:21:09.512872,512872,122.17876652992,98.87320734293064
12:21:09.516874,516874,122.29165505706473,28.208027772297118
12:21:09.520874,520874,121.60166608934391,172.49724193020555
12:21:09.524874,524874,121.21686021273284,96.20146915276706
12:21:09.528910,528910,120.68239859804696,132.42359134932636
12:21:09.532910,532910,120.64679800753866,8.900147627073807
12:21:09.537874,537874,120.02375549682007,125.51218991107794
12:21:09.541884,541884,118.55394659223336,366.5358864306019
12:21:09.545912,545912,118.04816520264289,125.5663827185867
12:21:09.549921,549921,120.2824556596384,557.3186472924692
12:21:09.553875,553875,120.45764664800483,44.30728082104805
12:21:09.557909,557909,120.32871056118769,31.962341798992142
12:21:09.562874,562874,120.58684965740645,51.99176157477453
12:21:09.566888,566888,121.78100850914474,297.4984682955391
12:21:09.570872,570872,121.66951995805547,27.984074068590928
12:21:09.574921,574921,121.42789409867692,59.67544069611226
12:21:09.578921,578921,122.10074493415662,168.2127088699268
12:21:09.582875,582875,121.39824422714952,177.66836292541834
12:21:09.587874,587874,122.08806824368233,137.9924017869195
12:21:09.591891,591891,121.61043879424524,12:19:47.633776,6337712:21:09.595911,595911,122.59492088539902,244.89604257556704
12:21:09.599909,599909,123.42792021093358,208.35400838783355
12:21:09.603932,603932,123.117219031913,77.23121526735848
12:21:09.607876,607876,123.51851943754848,101.74959574936148
12:21:09.612873,612873,123.55723829234284,7.7484200108801256
12:21:09.616894,616894,123.69473168095207,34.19382954718461
12:21:09.620874,620874,123.70855397755422,3.472938844759565
12:21:09.624909,624909,123.74206036884446,8.303938361894813
12:21:09.628873,628873,123.2554595383049,122.75500265881892
12:21:09.632905,632905,124.3028246733638,259.76317833802
12:21:09.637873,637873,124.25629855775158,9.365160147388055
12:21:09.641888,641888,125.21661102937368,239.18118844884262
12:21:09.645912,645912,124.69250437971142,130.24519126795676
12:21:09.649921,649921,124.64902355981117,10.845801920741632
12:21:09.653921,653921,123.9557034642943,173.3300238792168
12:21:09.657917,657917,125.03326931707512,269.66112431952496
12:21:09.662874,662874,124.47500461004054,112.62148618813424
12:21:09.666889,666889,126.17172979786238,422.5965598560001
12:21:09.670922,670922,123.73589779578822,603.9752050766587
12:21:09.674909,674909,125.41893450957431,422.1311045362665
12:21:09.678906,678906,127.23027141445472,453.1741068002017
12:21:09.682914,682914,127.66621485360398,108.76832314103183
12:21:09.687875,687875,128.88909212978402,246.49814073373167
12:21:09.691887,691887,129.05300852341585,40.85652882149473
12:21:09.695909,695909,129.6949332341925,159.60335921845729
12:21:09.699910,699910,128.85261268524695,210.52750536004422
12:21:09.703909,703909,128.25149610809018,150.31672347006082
12:21:09.707911,707911,129.15221959872096,225.06833848845113
12:21:09.712873,712873,127.57018016920335,318.8310015150357
12:21:09.716889,716889,126.77959197590525,196.85960988498658
12:21:09.720909,720909,126.87210200879154,23.012445991615753
12:21:09.724909,724909,128.3601151815923,372.0032932001906
12:21:09.728921,728921,129.2835202446902,230.16078342420306
12:21:09.732872,732872,128.96360287696373,80.97123961692617
12:21:09.737871,737871,128.08957202405009,174.8411388104918
12:21:09.741871,741871,129.70803962452771,404.6169001194073
12:21:09.745909,745909,130.0360684896685,81.23547923248992
12:21:09.749917,749917,130.47338283408791,109.1103653741032
12:21:09.753911,753911,129.75406827638142,180.09878760803625
12:21:09.757911,757911,128.76031608282608,248.43804838883443
12:21:09.762874,762874,128.61432049793228,29.416801308441787
12:21:09.766874,766874,125.95469457040828,664.9064818810011
12:21:09.770923,770923,125.36743134676594,145.03907721470452
12:21:09.774908,774908,125.66417048985724,74.46402586983717
12:21:09.778925,778925,125.55673565682814,26.74504182950039
12:21:09.782916,782916,126.73793572604706,295.96594067123965
12:21:09.787874,787874,126.78283446891463,9.055817440010804
12:21:09.791888,791888,126.10703248389845,168.3612319422468
12:21:09.795909,795909,125.04353745965126,264.48520871603796
12:21:09.799910,799910,125.50919398018512,116.38503387499505
12:21:09.803928,803928,126.57151949695766,264.39161691700997
12:21:09.807909,807909,126.16182820803603,102.91165258016466
12:21:09.812875,812875,126.38014100458254,43.961497492249954
12:21:09.816874,816874,126.9216520479605,135.41161374792847
12:21:09.820909,820909,126.81592527839415,26.202421206037105
12:21:09.824921,824921,126.75407090071268,15.417342393188035
12:21:09.828921,828921,126.62230648477563,32.94110398426042
12:21:09.832910,832910,128.18308429129414,391.2704453543498
12:21:09.837876,837876,127.7661770046951,83.9523331854695
12:21:09.841910,841910,130.58686590249565,699.2287798216536
12:21:09.845872,845872,130.3307653184327,64.63921859236474
12:21:09.849873,849873,128.78118526875,387.2981878737073
12:21:09.853873,853873,128.9863210084445,51.283934923624486
12:21:09.857872,857872,128.87560964301983,27.6847625468025
12:21:09.862873,862873,129.6115264474669,147.15393010339372
12:21:09.866876,866876,128.71397898033123,224.218702756849
12:21:09.870909,870909,128.7224236969478,2.0939044424909454
12:21:09.874925,874925,129.07536405726688,87.883555856345
12:21:09.878921,878921,128.7388824326036,84.20461077659976
12:21:09.882910,882910,126.3194430019747,606.5278091323349
12:21:09.887874,887874,128.04313878031354,347.2392784727712
12:21:09.891874,891874,128.94134522936275,224.55161226230302
12:21:09.895910,895910,131.2981952474117,583.9568924799206
12:21:09.899921,899921,129.86389652287724,357.59130504474484
12:21:09.903922,903922,129.45806761083395,101.43187004331175
12:21:09.907910,907910,128.32621081631208,283.815645567168
12:21:09.912874,912874,131.03109103277936,544.8993183858328
12:21:09.916891,916891,128.17192375624282,711.7668101908238
12:21:09.920909,920909,129.12764176227915,237.85913539978475
12:21:09.924911,924911,129.21796382786255,22.56923177995837
12:21:09.928922,928922,129.6475829464044,107.11022651255672
12:21:09.932910,932910,128.47720709401457,293.47438625622834
12:21:09.937875,937875,128.39241173081382,17.07862300115902
12:21:09.941893,941893,128.45551144624798,15.704259689935993
12:21:09.945923,945923,128.4646252296574,2.2614847169772645
12:21:09.949912,949912,127.59034705426049,219.17226758508642
12:21:09.953874,953874,127.85129258961378,65.8620735369224
12:21:09.957909,957909,127.30724162832377,134.8329519925679
12:21:09.962873,962873,127.96565829513533,132.63832933351358
12:21:09.966891,966891,128.49530291815825,131.8179748688198
12:21:09.970876,970876,128.1183050477122,94.60423348708835
12:21:09.974912,974912,128.00840029362195,27.231108545652084
12:21:09.978909,978909,128.3421216358357,83.49295526988979
12:21:09.982914,982914,126.52612621971764,453.4320639495772
12:21:09.987872,987872,129.3075613297506,560.9994171103185
12:21:09.991887,991887,128.95909736087495,86.79052773988761
12:21:09.995884,995884,129.54297496171958,146.07895943073063
12:21:09.999921,999921,129.7118469093683,41.83104970243023
12:21:10.003872,003872,129.6550273374742,0.05704495651729542
12:21:10.007872,007872,129.79517394089612,35.036650855481355
12:21:10.012874,012874,131.15108958398739,271.0746987387575
12:21:10.016892,016892,130.59370535978402,138.72180791522166
12:21:10.020874,020874,130.96096202228762,92.22919701245421
12:21:10.024909,024909,128.53951868459023,600.1098730352869
12:21:10.028909,028909,128.96892876918986,107.35252114990601
12:21:10.032874,032874,128.2728203238465,175.56329012442768
12:21:10.037872,037872,126.5129474472902,352.11542147985216
12:21:10.041887,041887,124.94216723877351,391.2279473266985
12:21:10.045873,045873,126.15392604493074,304.00371454019944
12:21:10.049924,049924,125.48264051522501,165.70859780442544
12:21:10.053872,053872,126.53548986521541,266.679166664234
12:21:10.057910,057910,124.20731597242401,576.56609529257
12:21:10.062873,062873,124.59589878714968,78.29595299731332
12:21:10.066887,066887,123.90923240656177,171.06785764521885
12:21:10.070872,070872,124.69328822180074,196.75177295833672
12:21:10.074922,074922,122.48923082994811,544.2117016920072
12:21:10.078873,078873,123.99440914167394,380.96135452438074
12:21:10.083873,083873,123.6417279817176,70.53623199126946
12:21:10.087874,087874,123.68472876109804,10.747507968120274
12:21:10.091887,091887,123.77105437189138,21.51149035468181
12:21:10.095909,095909,124.1600220403223,96.71001204150228
12:21:10.099924,099924,122.7037279737318,362.7133416165633
12:21:10.103922,103922,121.68488871405503,254.83723353595974
12:21:10.107922,107922,122.08757690518924,100.67204778355077
12:21:10.112874,112874,121.74428323244055,69.3242473240481
12:21:10.116890,116890,122.70574498824708,239.40780772074822
12:21:10.120873,120873,124.07732398842214,344.3582727027518
12:21:10.124921,124921,125.1405500350411,262.6546557853174
12:21:10.128921,128921,125.7937876229615,163.30939698010027
12:21:10.132875,132875,65.2329540941478,15316.34636540559
12:21:10.137874,137874,110.08051916766712,8971.307276159096
12:21:10.141879,141879,121.03380541988315,2734.9021212:19:48.112:21:10.145909,145909,124.47771529017874,854.5682060286811
12:21:10.149909,149909,125.61220757899466,283.6230722039801
12:21:10.153873,153873,124.61764464834862,250.89882206005058
12:21:10.157913,157913,125.02418429777651,100.62862609601449
12:21:10.162874,162874,124.40587351594277,124.63430393746057
12:21:10.166872,166872,124.95087039361356,136.31737810674923
12:21:10.170873,170873,123.882100506594,267.12569033230596
12:21:10.174909,174909,123.9321196058895,12.393235702551282
12:21:10.178924,178924,122.70512502045263,305.6026364724458
12:21:10.182875,182875,122.98630944534274,71.16791315872283
12:21:10.187875,187875,124.24275626552539,251.28936403652915
12:21:10.191896,191896,124.58173697731517,84.3025893533418
12:21:10.195873,195873,124.39588906802487,46.73067872524579
12:21:10.199916,199916,124.18269250393341,52.732269129720876
12:21:10.203909,203909,124.65350566631534,117.90963245227394
12:21:10.207876,207876,124.81576330960576,40.901851094130784
12:21:10.212874,212874,67.2305443044882,11521.652462008315
12:21:10.216911,216911,62.0084798183454,1293.5507768498405
12:21:10.220909,220909,109.61084088692972,11906.54353891554
12:21:10.224873,224873,69.23578362057401,10185.433215528687
12:21:10.228901,228901,107.2534348343542,9438.344392696172
12:21:10.232909,232909,117.79916984056828,2631.1714087360497
12:21:10.237875,237875,121.88015475489875,821.7851216936109
12:21:10.241335,241335,122.56529868381027,198.01847656402165
12:21:10.245851,245851,122.73495610188917,37.56807309098728
12:21:10.249851,249851,124.05849281526528,330.8841783440286
12:21:10.253851,253851,124.93017000928761,217.91929850558134
12:21:10.257800,257800,124.47091912976794,116.29548734354827
12:21:10.262801,262801,125.25193704505278,156.17234858725237
12:21:10.266800,266800,124.40591119884374,211.5593513901088
12:21:10.270804,270804,124.6534971978677,61.83466509089765
12:21:10.274839,274839,124.51173085476488,35.134161859433945
12:21:10.278850,278850,123.69482695592384,203.6658935031248
12:21:10.282842,282842,123.95190390685443,64.39803380024597
12:21:10.287804,287804,125.39863217387061,291.5615209625521
12:21:10.291852,291852,71.61315277825535,13286.926728165823
12:21:10.295839,295839,106.03914959523577,8634.561529215052
12:21:10.299840,299840,118.95961324338987,3229.308584892301
12:21:10.303804,303804,122.7635405634086,959.6183955647654
12:21:10.308803,308803,124.01994091884526,251.33033715476452
12:21:10.312804,312804,125.2455051949132,306.31449039438695
12:21:10.316851,316851,125.31876611912831,18.10252636894135
12:21:10.320852,320852,85.74635259727569,9890.63072278246
12:21:10.324851,324851,71.68938803192066,3515.1199213190876
12:21:10.328850,328850,93.94485540684182,5565.258158269859
12:21:10.332820,332820,109.38281570692428,3888.6549874263105
12:21:10.337804,337804,116.47459237483109,1422.9086412333095
12:21:10.341851,341851,118.82112387992832,579.8199913756442
12:21:10.345802,345802,119.01323552809139,48.623550534817355
12:21:10.349851,349851,119.39718850675872,94.82661858911784
12:21:10.353852,353852,121.75475004240208,589.2430731425533
12:21:10.357852,357852,119.64360632819933,527.7859285506885
12:21:10.362805,362805,120.59417571316408,191.91790530279658
12:21:10.366841,366841,121.84164251592368,309.08493626352924
12:21:10.370803,370803,92.8757909286577,7310.916604559815
12:21:10.374850,374850,101.70248667974812,2181.0466397554796
12:21:10.378851,378851,80.87832730478765,5204.7386590753495
12:21:10.382840,382840,91.49665851535332,2661.903035990391
12:21:10.387804,387804,78.38535492744693,2641.2779185951636
12:21:10.391850,391850,87.86986653952228,2344.169948609825
12:21:10.395846,395846,94.47139194962885,1652.0333859125562
12:21:10.399850,399850,100.52928888775821,1512.961273259081
12:21:10.403850,403850,103.45033262311608,730.2609338394674
12:21:10.407851,407851,88.12357860026607,3830.730823006751
12:21:10.412804,412804,93.61015545338479,1107.7280139549202
12:21:10.416840,416840,99.32178591185969,1415.171074944227
12:21:10.420802,420802,102.69245607875642,850.7496635276955
12:21:10.424854,424854,104.13298530656972,355.5106682658688
12:21:10.428850,428850,105.94041911411894,452.31076264995403
12:21:10.432855,432855,108.64637736752636,675.645007092988
12:21:10.437804,437804,109.00679933573134,72.8272314012909
12:21:10.441839,441839,109.82682611213525,203.22844520542918
12:21:10.445851,445851,110.25981238255906,107.92279920832776
12:21:10.449840,449840,111.45455763529284,299.5099655888146
12:21:10.453851,453851,110.9024291617814,137.65357105745323
12:21:10.457847,457847,113.21059505001716,577.6190911500908
12:21:10.462804,462804,113.40211852379481,38.636972720930025
12:21:10.466852,466852,116.05528789435552,655.4272160476047
12:21:10.470802,470802,116.47747467108644,106.88272828631008
12:21:10.474843,474843,117.28972214157108,201.00160120876896
12:21:10.478804,478804,116.0775273163355,306.03252341216125
12:21:10.482804,482804,117.2873781558806,302.4627098862744
12:21:10.487804,487804,64.37646376757397,10582.182877661327
12:21:10.491854,491854,92.09406344094668,6843.851771203141
12:21:10.495840,495840,107.13572816424698,3773.623864350301
12:21:10.499835,499835,112.81146182446173,1420.7093016807873
12:21:10.503853,503853,116.80176590098641,993.1070374625884
12:21:10.507839,507839,117.55324612339204,188.52991028741408
12:21:10.512803,512803,117.91500038659674,72.87555664881184
12:21:10.516853,516853,120.59748014299161,662.3406805913257
12:21:10.520852,520852,117.91765513273674,670.1237835095958
12:21:10.524842,524842,121.24355651179647,833.5592428721127
12:21:10.528851,528851,118.82889722997889,602.3096238008425
12:21:10.532839,532839,120.37368937694706,387.36011709332075
12:21:10.537804,537804,119.46801676503907,182.4114021969765
12:21:10.540850,540850,120.67207859254611,395.292786443548
12:21:10.545248,545248,119.39293554720822,290.846531454727
12:21:10.550248,550248,121.48950921696232,419.31473395081866
12:21:10.554286,554286,120.6643970072332,204.33685233509487
12:21:10.558283,558283,119.12520761845603,385.0861618156554
12:21:10.562287,562287,120.88240930029451,438.86155890071956
12:21:10.566290,566290,119.68292509487397,299.64631661767334
12:21:10.571247,571247,119.22057847755816,93.27145800197745
12:21:10.575248,575248,118.99676325725805,55.93982011999767
12:21:10.579295,579295,118.00409756606632,245.28433189812995
12:21:10.583295,583295,117.8788776731555,31.30497322770509
12:21:10.587247,587247,116.67000081706372,305.88989273577357
12:21:10.591245,591245,117.63885985914594,242.3359284847962
12:21:10.595245,595245,116.32313370074857,328.93153959934193
12:21:10.600245,600245,117.72919024138422,281.2113081271292
12:21:10.604283,604283,118.68318310461441,236.25380466324862
12:21:10.608283,608283,118.5689741443296,28.552240071203272
12:21:10.612283,612283,116.59035127399447,494.65571758378246
12:21:10.616287,616287,116.95636199508485,91.41126900359042
12:21:10.620248,620248,117.09937674264047,36.10571763585594
12:21:10.625248,625248,117.73321361216902,126.7673739057102
12:21:10.629295,629295,119.32901111261697,394.3161602292917
12:21:10.633284,633284,119.65720367176249,82.27439437090011
12:21:10.637284,637284,119.85037240911011,48.29218433690485
12:21:10.641248,641248,119.84943270536016,0.23705947274209685
12:21:10.646248,646248,120.03100788639408,36.31503620678416
12:21:10.650246,650246,119.24489230808386,196.6272081816449
12:21:10.654248,654248,119.07475406892664,42.513303137737445
12:21:10.658284,658284,119.44366813404119,91.40586350707437
12:21:10.662248,662248,118.37515783314007,269.5535572404451
12:21:10.666296,666296,118.42711046179419,12.834147394792677
12:21:10.671266,671266,117.33043448482084,220.65915029644756
12:21:10.675248,675248,117.16892504672684,40.55987897890526
12:21:10.679299,679299,117.59979205802372,106.3606544796057
12:21:10.683288,683288,117.1894078749777,102.87896290950607
12:21:10.687297,687297,117.10874277543296,20.12100263026828
12:21:10.691295,691295,117.29003285747245,45.34519310642717
12:21:10.696247,696247,117.39164455375708,20.51932477476195
12:21:10.700248,700248,116.26968601729618,280.4195292329154
12:21:10.704294,704294,116.82563404597963,137.40682864148437
12:21:10.708283,708283,116.808369614292,4.32800994926588
12:21:10.712299,712299,117.33981854676612,132.33290151248016
12:21:10.716248,716248,117.69437364719293,89.78351492195688
12:21:10.721249,721249,117.54731133275135,29.40658157200238
12:21:10.725246,725246,117.02675877007901,130.23581753123236
12:21:10.729295,729295,117.66656557744005,158.0160057695827
12:21:10.733245,733245,116.31042451167964,343.3268520912434
12:21:10.737245,737245,115.9846851991753,81.43482812608482
12:21:10.741245,741245,114.87366745465744,277.75443612946657
12:21:10.746248,746248,115.16980268365263,59.1915308805112
12:21:10.750248,750248,115.26900005719466,24.79934338550649
12:21:10.754283,754283,115.31588248623466,11.618941521684388
12:21:10.758275,758275,115.84542884275537,132.6518929160099
12:21:10.762249,762249,116.06768851704231,55.92845351961389
12:21:10.766283,766283,117.10995439926751,258.3703228123933
12:21:10.770247,770247,118.99435539418072,475.3786566380442
12:21:10.775248,775248,118.51371443701265,96.1089696396847
12:21:10.779295,779295,120.61389981612875,518.948697582431
12:21:10.783284,783284,120.85283827955367,59.89933903858496
12:21:10.787248,787248,122.61383856877403,444.24830706870904
12:21:10.791298,791298,121.39518768741594,300.90145218718203
12:21:10.796263,796263,120.75604715808569,128.7292103384186
12:21:10.800247,800247,120.34477873861616,103.23002496725307
12:21:10.804295,804295,120.65747565874658,77.24726287806833
12:21:10.808247,808247,119.24389263134219,357.6880130071826
12:21:10.812296,812296,118.86045176724726,94.70013931709961
12:21:10.816301,816301,120.37618900777613,378.4612335902318
12:21:10.821248,821248,121.2130234336434,169.15998097175387
12:21:10.825248,825248,120.63677284799279,144.0626464126531
12:21:10.829295,829295,121.09450070252461,113.10300334366816
12:21:10.833285,833285,121.2995913057327,51.40115368623852
12:21:10.837283,837283,121.10733191201851,48.08889287498635
12:21:10.841295,841295,121.55103779405013,110.59468644855993
12:21:10.846247,846247,121.07169410326547,96.79799894682144
12:21:10.850246,850246,121.86785372833836,199.08967868789418
12:21:10.854248,854248,121.08962611308841,194.45967397549882
12:21:10.858286,858286,119.84941488586811,307.1350240763496
12:21:10.862283,862283,119.05077242303581,199.8104735632487
12:21:10.866296,866296,118.81720736936454,58.20210657146039
12:21:10.871265,871265,116.19121038429289,528.475947891256
12:21:10.875248,875248,117.56854747483821,345.8039393786906
12:21:10.879296,879296,116.07863588462666,368.0611635898093
12:21:10.883286,883286,115.65892158807657,105.19155302007452
12:21:10.887248,887248,118.04431241810141,602.0673473056149
12:21:10.891295,891295,121.00279032208579,731.0298749652517
12:21:10.895284,895284,118.69719445140139,577.9884358697416
12:21:10.900248,900248,117.71155781263839,198.55693770406882
12:21:10.904248,904248,116.48829840985219,305.81485069654946
12:21:10.908285,908285,116.12158073636769,90.8391561764928
12:21:10.912283,912283,115.64742023480842,118.59942510236826
12:21:10.916283,916283,113.82512575630105,455.57361962684337
12:21:10.921247,921247,114.19595324472485,74.70336189037056
12:21:10.925247,925247,113.85212755795827,85.95642169164464
12:21:10.929296,929296,112.89853890027061,235.51214069836027
12:21:10.933247,933247,111.67045741181472,310.8280153014136
12:21:10.937284,937284,111.53396725399494,33.80979881589765
12:21:10.941247,941247,110.97866148867492,140.12257515014593
12:21:10.946247,946247,111.2237600994959,49.01972216419779
12:21:10.950248,950248,113.49856421734039,568.5588897386858
12:21:10.954286,954286,113.68420344027149,45.9730616471276
12:21:10.958284,958284,113.96935618142344,71.32384721159255
12:21:10.962301,962301,113.10350334560697,215.54713363616352
12:21:10.966300,966300,113.23406623142698,32.64888367592206
12:21:10.971249,971249,114.90687747519965,338.00995024705406
12:21:10.975246,975246,114.40726566015012,124.99670128834964
12:21:10.979295,979295,114.78026611984141,92.12162501637386
12:21:10.983283,983283,114.80097523332951,5.192856942852421
12:21:10.987246,987246,114.50533821091778,74.59929911978931
12:21:10.991284,991284,115.11551264458592,151.10808164144007
12:21:10.996268,996268,113.9445558433777,234.94317841256424
12:21:11.000248,000248,114.18103329239082,0.23742239012582328
12:21:11.004248,004248,113.52263950225519,164.5984475339084
12:21:11.008248,008248,113.60156478252662,19.731320067858604
12:21:11.012295,012295,113.48766815768963,28.143470431676995
12:21:11.016285,016285,111.5536624015213,484.7132220973265
12:21:11.021250,021250,111.71950396503654,33.4021275962223
12:21:11.025248,025248,111.99796513111231,69.65011657723159
12:21:11.029295,029295,112.18057040692696,45.12114549410716
12:21:11.033298,033298,113.0438985061146,215.6702720928405
12:21:11.037297,037297,111.32839673106669,428.9826894343365
12:21:11.041296,041296,111.7344498588349,101.5386666087065
12:21:11.046247,046247,111.8490885969222,23.154663317974904
12:21:11.050248,050248,110.62594842594078,305.708615591458
12:21:11.054248,054248,111.84490598024651,304.7393885764329
12:21:11.058283,058283,111.42187255110946,104.84099854697637
12:21:11.062249,062249,111.97973154235518,140.66036087890149
12:21:11.066293,066293,111.85894101087545,29.869073066203583
12:21:11.070246,070246,114.72946507169671,726.1634355732997
12:21:11.075248,075248,113.6472930875412,216.34785768802638
12:21:11.079283,079283,113.30970632867354,83.6646242546861
12:21:11.083249,083249,113.13607383398542,43.78025584672747
12:21:11.087247,087247,114.34438953724307,302.23004083483085
12:21:11.091295,091295,114.12060651650124,55.28236678404992
12:21:11.096247,096247,114.06301776465544,11.629392537519976
12:21:11.100250,100250,114.71494964395889,162.86082420770603
12:21:11.104248,104248,114.08324178261675,158.0059683196938
12:21:11.108283,108283,113.4573439516985,155.1171823837046
12:21:11.112298,112298,113.40878384558556,12.094671510073317
12:21:11.116296,116296,113.72788165604766,79.8143597954219
12:21:11.121247,121247,113.11979796448185,122.82037801773575
12:21:11.125248,125248,112.99873815309327,30.25738850001914
12:21:11.129297,129297,112.12533069537014,215.7094239869431
12:21:11.133248,133248,112.34747699807824,56.22533604355789
12:21:11.137295,137295,111.54146698087278,199.162346727317
12:21:11.141295,141295,112.9031801072161,340.4282815858295
12:21:11.145283,145283,114.31361388330724,353.66945237992456
12:21:11.150246,150246,112.86829063476526,291.2196753056582
12:21:11.154296,154296,112.87470375896726,1.5834874572835171
12:21:11.158248,158248,114.20960996231348,337.77990975359864
12:21:11.162286,162286,115.63304301006484,352.50942242480426
12:21:11.166296,166296,116.99122221134549,338.6980551822067
12:21:11.170246,170246,116.68082880447257,78.58060933491615
12:21:11.175248,175248,119.64490564618262,592.5783370072077
12:21:11.179295,179295,118.72017273805521,228.49837117059803
12:21:11.183296,183296,120.91363217508345,548.2278023064829
12:21:11.187296,187296,119.17759767658765,434.0086246239494
12:21:11.191284,191284,119.27210175086596,23.697109899274068
12:21:11.195283,195283,118.1610388154148,277.83519266095493
12:21:11.200248,200248,116.86951921545115,260.12479354756283
12:21:11.204248,204248,115.87938873145296,247.53262099954654
12:21:11.208283,208283,116.49490877171263,152.5452392217268
12:21:11.212295,212295,116.18875899017779,76.30851982423772
12:21:11.216296,216296,117.3468295390708,289.4452759042759
12:21:11.220248,220248,116.82747541899137,131.41551621442997
12:21:11.225246,225246,118.07622490906223,249.84983794935255
12:21:11.229296,229296,118.19041982546076,28.19627565395843
12:21:11.233247,233247,117.91681162611326,69.25036683055096
12:21:11.237283,237283,117.43388556677712,119.65462322500915
12:21:11.241248,241248,115.49789572822078,488.26982056906394
12:21:11.246247,246247,116.95000338324395,290.47962693001995
12:21:11.250247,250247,116.08411758683249,216.47144910286542
12:21:11.254284,254284,116.32299672152583,59.1724386161344
12:21:11.258251,258251,117.1210379197769,201.1699516639955
12:21:11.262296,262296,117.58875194334736,115.62769433138827
12:21:11.266295,266295,117.62999095286469,10.312330461947115
12:21:11.271252,271252,116.98045547975781,131.03398690879163
12:21:11.275248,275248,116.97239615120147,2.0168489880736717
12:21:11.279302,279302,116.20418859738226,189.4937231917142
12:21:11.283289,283289,116.92042189812301,179.6421622123787
12:21:11.287284,287284,117.0954162681193,43.80334668242406
12:21:11.291303,291303,118.10026163441535,250.02372886191904
12:21:11.296247,296247,118.34011890067184,48.51481922663695
12:21:11.300248,300248,118.99060193835061,162.5801143910942
12:21:11.304285,304285,118.87053580558968,29.74142500889903
12:21:11.308288,308288,118.45435118292374,103.96817953183559
12:21:11.312294,312294,117.79328947608985,165.01789985868476
12:21:11.316296,316296,116.49592371217807,324.17935130229495
12:21:11.321247,321247,116.72803928669654,46.882564031200566
12:21:11.325245,325245,117.43545883397826,176.943358499679
12:21:11.329245,329245,116.90853341006797,131.73135597757124
12:21:11.333245,333245,118.80282209484363,473.5721711939149
12:21:11.337245,337245,119.4855939109374,170.69295402344054
12:21:11.341283,341283,118.45712577855481,254.69740772228457
12:21:11.345283,345283,118.13437456992655,80.68780215706539
12:21:11.350248,350248,118.28863386602266,31.0693446316444
12:21:11.354296,354296,117.69171284286949,147.46072706353058
12:21:11.358283,358283,116.44507085304299,312.6766967209682
12:21:11.362249,362249,116.83872935540884,99.25832132270608
12:21:11.366295,366295,115.56116137150067,315.7607473821479
12:21:11.371247,371247,115.92736350628921,73.95035032078698
12:21:11.375248,375248,115.66108250817571,66.55361112559392
12:21:11.379296,379296,113.30826960802789,581.228483238099
12:21:11.383247,383247,114.5190656280725,306.4530549340956
12:21:11.387296,387296,111.84940979571232,659.3370788738399
12:21:11.391296,391296,112.91569158486331,266.5704472877479
12:21:11.395285,395285,113.18078529310623,66.45618156001885
12:21:11.400248,400248,114.79881664080402,326.0188087241173
12:21:11.404295,404295,113.96675126351596,205.60053800050912
12:21:11.408248,408248,114.07691031137182,27.867201582559872
12:21:11.412283,412283,112.88720719788006,294.8458769496306
12:21:11.416297,416297,113.54107218140676,162.89610949843106
12:21:11.420287,420287,113.64295149888949,25.533663529505418
12:21:11.425248,425248,114.59094614675682,191.08942710488463
12:21:11.429299,429299,114.26360455707221,80.80513198830103
12:21:11.433297,433297,114.2265104574311,9.278163992273468
12:21:11.437295,437295,114.02463416416752,50.494320476133296
12:21:11.441295,441295,114.15787418181026,33.31000441068355
12:21:11.446247,446247,115.73715317585304,318.91740590524654
12:21:11.450248,450248,116.79968356638263,265.5662060808768
12:21:11.454295,454295,117.97719547801634,290.959207223552
12:21:11.458284,458284,118.63899391464909,165.9058502463651
12:21:11.462294,462294,118.0220863145572,153.8422942872549
12:21:11.466297,466297,118.45003015734551,106.90578136105655
12:21:11.470283,470283,117.86040783270616,147.92331275447827
12:21:11.475249,475249,118.31092658334418,90.72065055135427
12:21:11.479295,479295,118.21329226993922,24.131071034346782
12:21:11.483296,483296,118.0024033598215,52.70905026686251
12:21:11.487284,487284,117.06751938718249,234.42426595762635
12:21:11.491288,491288,116.0790794500718,246.86312115651444
12:21:11.495283,495283,115.95333107925447,31.476438252148665
12:21:11.500246,500246,116.26482045939727,62.76231717566038
12:21:11.504284,504284,117.02051845617166,187.14660643248814
12:21:11.508289,508289,116.97744113040616,10.755886583144777
12:21:11.512297,512297,117.76617356460663,196.78952949113494
12:21:11.516295,516295,118.17780805115167,102.96010168710357
12:21:11.521254,521254,120.28106769421164,424.1297929138881
12:21:11.525248,525248,119.1972389417982,271.3642344550422
12:21:11.529295,529295,119.2787743950598,20.147134485197473
12:21:11.533296,533296,118.71571840786403,140.72881459529296
12:21:11.537287,537287,119.52940643449523,203.8807383190172
12:21:11.541248,541248,118.44591253870045,273.5404937628816
12:21:11.546250,546250,119.44281071249381,199.2999147927538
12:21:11.550248,550248,118.8088615548662,158.56657269324955
12:21:11.554295,554295,118.27225191687259,132.59442500459764
12:21:11.558283,558283,117.7070450454033,141.7268985630105
12:21:11.562285,562285,117.96388733778866,64.17848385441216
12:21:11.566302,566302,119.45015721747333,369.9949912085313
12:21:11.571246,571246,118.29566884493052,233.5130203363299
12:21:11.575248,575248,119.74768974065577,362.82381202530104
12:21:11.579245,579245,118.6483682463277,275.03665107031935
12:21:11.583245,583245,119.06584244111568,104.36854869699275
12:21:11.587245,587245,118.91382546859282,38.0042431307146
12:21:11.591245,591245,118.65687593025856,64.23738458356354
12:21:11.595283,595283,119.46737505920846,200.71796160225352
12:21:11.600247,600247,119.14020793852708,65.90796145877934
12:21:11.604248,604248,120.72026434039608,394.9153716243442
12:21:11.608297,608297,121.30887516375508,145.37190006396418
12:21:11.612285,612285,121.75321994231982,111.42045600921281
12:21:11.616284,616284,121.5679454594028,46.33020328007587
12:21:11.621247,621247,120.55656165928536,203.78476730151695
12:21:11.625248,625248,120.34337531378452,53.283265558821356
12:21:11.629295,629295,120.71414233448435,91.61527568565113
12:21:11.633247,633247,119.72764798855648,249.61901465786093
12:21:11.637295,637295,118.71865181717783,249.25794747496417
12:21:11.641296,641296,117.25445162761102,365.9585577522645
12:21:11.646248,646248,118.04538366542586,159.71971684467707
12:21:11.650246,650246,117.09964867840613,236.5520227663165
12:21:11.654296,654296,117.44996476377591,86.49779885673668
12:21:11.658288,658288,117.3030918999888,36.79179954586912
12:21:11.662249,662249,117.95448909462039,164.4527126058028
12:21:11.666296,666296,116.43323848709787,375.8958753453219
12:21:11.671247,671247,115.85502590770561,116.78702876030246
12:21:11.675246,675246,116.90676664559544,263.000934706134
12:21:11.679295,679295,117.516966968395,150.70395722389645
12:21:11.683295,683295,115.53423565340582,495.68282874729516
12:21:11.687254,687254,117.20804304572842,422.7853984143979
12:21:11.691295,691295,116.50788762418367,173.262910553019
12:21:11.695284,695284,117.7138776942636,302.3289220556366
12:21:11.700248,700248,117.61731870908082,19.451850359142124
12:21:11.704297,704297,118.20477258207289,145.08616275427798
12:21:11.708286,708286,117.4128226793667,198.53344264381877
12:21:11.712298,712298,118.4217164057466,251.4690245214096
12:21:11.716295,716295,118.0697762639544,88.05107375336462
12:21:11.720246,720246,116.7658218490908,330.03148946180636
12:21:11.725249,725249,117.3166980808837,110.10918085006963
12:21:11.729299,729299,116.39109905309049,228.5429698254843
12:21:11.733247,733247,117.56497235105574,297.3336620985963
12:21:11.737259,737259,119.52939813962242,489.6375345380538
12:21:11.741295,741295,118.43541551440889,271.056150944878
12:21:11.745248,745248,120.04850612465022,408.06744503954695
12:21:11.750248,750248,119.07853689025086,193.9938468798715
12:21:11.754297,754297,118.75970784248342,78.74266430413365
12:21:11.758246,758246,118.93949014568956,45.52603271869808
12:21:11.762295,762295,119.2457664809081,75.64246362522633
12:21:11.766296,766296,118.5795939028193,166.5015191424156
12:21:11.771248,771248,117.34771433897745,248.76404762557425
12:21:11.775248,775248,116.66479799692566,170.7290855129493
12:21:11.779285,779285,117.70550166531164,257.7913471354935
12:21:11.783290,783290,117.2531733361928,112.94090614702672
12:21:11.787296,787296,115.66285825062721,396.983296446728
12:21:11.791295,791295,116.65878200574137,249.04319957843526
12:21:11.796254,796254,116.05846602284453,121.05585458698225
12:21:11.800248,800248,116.46904316923089,102.79848432307436
12:21:11.804294,804294,115.46672170298531,247.73145483083928
12:21:11.808283,808283,116.47630744452688,253.09243959427693
12:21:11.812295,812295,118.16337576288514,420.5055629008617
12:21:11.816246,816246,118.67132719901419,128.56275275349225
12:21:11.820245,820245,120.0257435924853,338.68877056041816
12:21:11.825245,825245,119.66280177039563,72.58836441793335
12:21:11.829245,829245,121.08350221951719,355.17511228038853
12:21:11.833283,833283,119.81772051684321,313.4674845651254
12:21:11.837248,837248,119.10562291788128,179.59586354651515
12:21:11.841247,841247,119.91004076255511,201.15474985592292
12:21:11.846247,846247,119.86115468447613,9.777215615795853
12:21:11.850248,850248,119.13341282164966,181.88999320831715
12:21:11.854283,854283,118.61847673179801,127.61737047128743
12:21:11.858246,858246,118.47189940834491,36.98645557736597
12:21:11.862296,862296,119.86190349576623,343.21088578304136
12:21:11.866296,866296,120.36594466904594,126.01029331992919
12:21:11.871249,871249,121.45488162143546,219.8540182494482
12:21:11.875248,875248,119.97953697761874,368.9283930524446
12:21:11.879299,879299,119.38540298048811,146.66353915838715
12:21:11.883247,883247,118.27203177382749,282.0089175938745
12:21:11.887249,887249,116.88998306736254,345.3395068628078
12:21:11.891295,891295,115.11402760967715,438.94104243336244
12:21:11.895283,895283,115.02064268537677,23.41648051664508
12:21:11.900246,900246,114.69749178459163,65.11200902380358
12:21:11.904254,904254,114.4512208589645,61.44484172333573
12:21:11.908296,908296,117.1215001438362,660.6331729024486
12:21:11.912283,912283,115.72531061844596,350.1854841711164
12:21:11.916296,916296,117.18544667948265,363.8514978910273
12:21:11.921248,921248,117.57055068984825,77.76736881373076
12:21:11.925248,925248,116.32189367975438,312.16425252346625
12:21:11.929295,929295,117.44404392207893,277.2795261488883
12:21:11.933249,933249,117.10683954595319,85.28183513549321
12:21:11.937299,937299,117.96495881911046,211.88130201414108
12:21:11.941283,941283,118.35528985421462,97.97465740566116
12:21:11.945283,945283,117.54025658470451,203.75831737752748
12:21:11.950248,950248,117.67369766947378,26.876351413751006
12:21:11.954298,954298,117.92568633907413,62.219424592679275
12:21:11.958283,958283,116.88880710747999,260.1955411779528
12:21:11.962251,962251,114.90622287119612,499.6432047086366
12:21:11.966283,966283,112.97168594429216,479.7958648075296
12:21:11.971271,971271,114.5090474997545,308.21201994032475
12:21:11.975248,975248,114.49912305352514,2.495460454956655
12:21:11.979295,979295,116.18290992416405,416.0580357397854
12:21:11.983247,983247,115.91988645847586,66.55452067008919
12:21:11.987295,987295,117.66741829707908,431.7025292992151
12:21:11.991248,991248,115.53767595658964,538.7660866403853
12:21:11.996250,996250,115.93670291996212,79.7734832811831
12:21:12.000248,000248,114.03783388773158,1.9064911839841043
12:21:12.004248,004248,114.74790879388365,177.51872653801826
12:21:12.008283,008283,115.78647578995836,257.38959010525565
12:21:12.012283,012283,115.32208131954705,116.09861760282669
12:21:12.016297,016297,116.08497927478649,190.05928132522132
12:21:12.021246,021246,116.70161506266392,124.59805776468534
12:21:12.025248,025248,118.25459304911391,388.05047137680873
12:21:12.029295,029295,118.23730249568135,4.272437220795494
12:21:12.033247,033247,118.68649701940771,113.66258191456532
12:21:12.037289,037289,118.29683446238155,96.40340351958345
12:21:12.041295,041295,118.81796889280703,130.0884748940281
12:21:12.045247,045247,118.42502787684512,99.42839472720384
12:21:12.050248,050248,119.75678596414807,266.298357789031
12:21:12.054287,054287,117.91445596588551,456.1351815455698
12:21:12.058249,058249,119.05086259489283,286.8265090881689
12:21:12.062295,062295,118.2330938773176,202.11782441305832
12:21:12.066298,066298,116.1040849102008,531.8533517653768
12:21:12.071247,071247,114.36890990455474,350.61123573369485
12:21:12.074779,074779,115.8092142805759,407.7871959289808
12:21:12.078823,078823,116.02970914634048,54.52395295860007
12:21:12.082789,082789,117.16468344272299,286.176070696548
12:21:12.087788,087788,116.14890411440577,203.1965049644374
12:21:12.091836,091836,116.83721104682756,170.03629753502855
12:21:12.095791,095791,118.03384954085,302.5634624582648
12:21:12.099824,099824,116.89330863429154,282.8021092383973
12:21:12.103817,103817,116.46016861994289,108.47483454762131
12:21:12.107825,107825,117.05005731017178,147.1778169233756
12:21:12.112788,112788,116.89223908403476,31.798957513001096
12:21:12.116840,116840,116.37698953282178,127.15931668632149
12:21:12.120788,120788,117.59187201861086,307.72099437413266
12:21:12.124787,124787,117.79780410089816,51.495894545462555
12:21:12.128823,128823,118.16562955527685,91.13613834952656
12:21:12.132830,132830,117.83681599226624,82.05978612693102
12:21:12.137788,137788,118.73751293731326,181.66537818616712
12:21:12.141826,141826,117.93341589630482,199.13250148797243
12:21:12.145790,145790,118.57045410327031,160.70590488533938
12:21:12.149825,149825,119.45917216926834,220.25230879753022
12:21:12.153786,153786,120.43274632085767,245.78999030278524
12:21:12.157825,157825,119.98815721713567,110.07405390492927
12:21:12.162788,162788,121.76349484469635,357.7146136531711
12:21:12.166837,166837,120.36989855092662,344.18283372924986
12:21:12.170788,170788,120.41099358597259,10.401173132363962
12:21:12.174836,174836,120.03338540231944,93.28265406451376
12:21:12.178839,178839,121.24839701273142,303.52525865900014
12:21:12.182788,182788,121.15169432359801,24.487892918057387
12:21:12.187788,187788,121.39201241369184,48.06361801876733
12:21:12.191836,191836,122.43727996678686,258.2182690452114
12:21:12.195824,195824,121.88784893376851,137.7710714689947
12:21:12.199838,199838,123.0169308626164,281.28598127750263
12:21:12.203788,203788,121.82723886298572,301.18784800776757
12:21:12.208788,208788,121.90404985846246,15.362199095346796
12:21:12.212788,212788,121.03502755052814,217.2555769835789
12:21:12.216841,216841,120.50233790760994,131.43095063365408
12:21:12.220824,220824,119.32205763806168,296.3294676244696
12:21:12.224791,224791,118.90699281744415,104.62939768528622
12:21:12.228839,228839,119.09042990685218,45.315486513841606
12:21:12.232831,232831,120.6060345780495,379.66048877688456
12:21:12.237788,237788,119.7743646036199,167.77687601968967
12:21:12.241823,241823,121.55362729505195,440.9572965135197
12:21:12.245825,245825,122.00422655654772,112.59351861463459
12:21:12.249836,249836,121.16246775075197,209.86257935570902
12:21:12.253789,253789,122.95580101275453,453.6638659252624
12:21:12.257823,257823,121.7257505370198,304.9207921999822
12:21:12.262787,262787,121.84214365166915,23.447444530487733
12:21:12.266844,266844,123.55419532908067,421.99942751085115
12:21:12.270787,270787,128.00926673639654,1129.86847763527
12:21:12.274836,274836,125.2620309236574,678.4973605184329
12:21:12.278844,278844,125.00023430450454,65.3185177527098
12:21:12.282824,282824,124.73437673368468,66.79838462810582
12:21:12.287788,287788,125.24031332871436,101.92115129526205
12:21:12.292072,292072,126.01845525688462,181.63910554861272
12:21:12.296082,296082,123.68516920158022,581.8668467093264
12:21:12.300123,300123,123.53319913145083,37.60704531784069
12:21:12.304117,304117,122.60826652615954,231.58052210598126
12:21:12.308083,308083,122.95181863465099,86.62433396153587
12:21:12.312130,312130,122.00146368338261,234.82949129438606
12:21:12.317117,317117,121.4929652778513,101.96478955911627
12:21:12.321081,321081,119.83551027209847,418.1268934795214
12:21:12.325119,325119,119.06314534642804,191.274127209121
12:21:12.329130,329130,118.26768295184962,198.32021804498183
12:21:12.333115,333115,120.3611564103519,525.3383835639332
12:21:12.337119,337119,118.9264624162336,358.31518334622655
12:21:12.342082,342082,120.39076811341731,295.04446850366793
12:21:12.346082,346082,121.74951585986774,339.6869366126083
12:21:12.350130,350130,121.74732076901527,0.5422655267952752
12:21:12.354130,354130,120.4398356463294,326.87128067146887
12:21:12.358117,358117,119.98354420229904,114.44480662913364
12:21:12.362130,362130,119.88596055273425,24.316882522999457
12:21:12.367101,367101,119.86033746345552,5.1545140371604035
12:21:12.371084,371084,119.93886895712356,19.7166692613703
12:21:12.375118,375118,120.80315456484499,214.25027459628842
12:21:12.379134,379134,121.16196980241857,89.34642369860067
12:21:12.383083,383083,120.63126430690227,134.38984439511296
12:21:12.387082,387082,119.95763599714834,168.4491897359147
12:21:12.391129,391129,120.33699079321329,93.73728590683093
12:21:12.396082,396082,121.27553367473385,189.4897802383528
12:21:12.400134,400134,122.10539046189871,204.80177373268936
12:21:12.404083,404083,121.64507422040053,116.56526753562338
12:21:12.408119,408119,122.30329338482863,163.08700803471356
12:21:12.412130,412130,124.19672904872068,472.06074891350016
12:21:12.417117,417117,122.43622271605415,353.0191162355198
12:21:12.421082,421082,121.54301768494366,225.27239120062626
12:21:12.425118,425118,121.61283178734168,17.297844994552225
12:21:12.429130,429130,121.09946162211371,127.9586653110589
12:21:12.433120,433120,121.67398431392319,143.9906495763101
12:21:12.437120,437120,120.25495093286527,354.7583452644787
12:21:12.441080,441080,121.55984242954231,329.51805471642524
12:21:12.446082,446082,121.55203442509053,1.5609764997578917
12:21:12.450080,450080,122.32968262035929,194.50930346892633
12:21:12.454080,454080,120.86447827762238,366.3010856842277
12:21:12.458079,458079,119.71625972679814,287.1264193108876
12:21:12.462079,462079,117.51275858030755,550.8752866226487
12:21:12.466080,466080,117.8171262867734,76.07290838936612
12:21:12.471080,471080,117.41945730078388,79.53379719790519
12:21:12.475079,475079,117.46564466622023,11.549728791286055
12:21:12.479119,479119,115.86455054469238,396.3104261207551
12:21:12.483142,483142,116.77234157852364,225.6502694087147
12:21:12.487108,487108,116.49774724144672,69.23709961596563
12:21:12.492094,492094,116.95732812121425,92.17426389240453
12:21:12.496081,496081,117.83133514691632,219.21420258391532
12:21:12.500129,500129,120.4929450759291,657.5123342422884
12:21:12.504116,504116,119.6802569469793,203.83449434406862
12:21:12.508115,508115,121.15091286958354,367.75591963096707
12:21:12.512118,512118,121.32075618977655,42.429008292033494
12:21:12.517091,517091,121.65258748896905,66.72658338879975
12:21:12.521081,521081,122.40236189341157,187.9133845720599
12:21:12.525111,525111,120.88301156675722,377.010006613982
12:21:12.529127,529127,120.81942338420093,15.833710795888353
12:21:12.533130,533130,120.94694581626062,31.85671547831425
12:21:12.537119,537119,119.20000504830449,437.939525684666
12:21:12.542113,542113,119.11011506502103,17.999596172097693
12:21:12.546082,546082,118.36866258223404,186.8109052121433
12:21:12.550118,550118,118.7455680897397,93.38590374273252
12:21:12.554080,554080,118.99633399200597,63.29275675574621
12:21:12.558108,558108,117.94314744860604,261.46637125122425
12:21:12.562083,562083,118.00857454508386,16.459646912658915
12:21:12.567091,567091,118.69606721392171,137.2788875474936
12:21:12.571080,571080,118.50404541026074,48.137829947596884
12:21:12.575129,575129,119.07640063514083,141.35718075576298
12:21:12.579131,579131,119.2140657039953,34.399067679778675
12:21:12.583121,583121,120.06884940679744,214.23150446168867
12:21:12.587082,587082,119.7496184898344,80.59351602197331
12:21:12.592081,592081,119.74032163293506,1.8597433285336868
12:21:12.596082,596082,120.12314087077132,95.68088923675548
12:21:12.600130,600130,121.75316771003394,402.6746144423449
12:21:12.604129,604129,122.01918547288052,66.5210709793917
12:21:12.608083,608083,122.3684316770922,88.32731517746113
12:21:12.612131,612131,120.27197591906102,517.8991497112606
12:21:12.617081,617081,120.7434494646027,95.24718091751197
12:21:12.621080,621080,120.49944240761263,61.01701850214334
12:21:12.625123,625123,121.06551654232611,140.01338973867786
12:21:12.629129,629129,121.08963258152964,6.019979831136795
12:21:12.633133,633133,120.85907093408952,57.58282903100055
12:21:12.637129,637129,121.0923242175784,58.3716925647843
12:21:12.642100,642100,120.29574883758791,160.24449406366648
12:21:12.646081,646081,120.06057305093724,59.074550778867525
12:21:12.650130,650130,120.02309811796943,9.25535514146975
12:21:12.654121,654121,120.63894842290615,154.30977322393593
12:21:12.658130,658130,121.11970948818094,119.92044531673511
12:21:12.662083,662083,120.59030248072385,133.92537502076786
12:21:12.666083,666083,119.37744247877065,303.21500048830075
12:21:12.671082,671082,119.05136002247147,65.2295371672686
12:21:12.675119,675119,119.68250876241092,156.3410304531702
12:21:12.679082,679082,115.88404805301172,958.4811277817798
12:21:12.683083,683083,116.40590188676957,130.43085072677957
12:21:12.687117,687117,114.57786158535312,453.1582303957488
12:21:12.692082,692082,114.64012317137338,12.540097889276089
12:21:12.696082,696082,112.60954419126459,507.64474502719634
12:21:12.700134,700134,115.29088132796092,661.7317711491431
12:21:12.704126,704126,112.7146616331079,645.3456149431421
12:21:12.708123,708123,112.48843549787375,56.59898304582002
12:21:12.712121,712121,114.13977010551376,413.0401719960004
12:21:12.717122,717122,116.08423501939185,388.8152197316723
12:21:12.721081,721081,117.17310197242287,275.03585577949366
12:21:12.725131,725131,117.76716379738255,146.68193208881013
12:21:12.729129,729129,116.8356253338963,233.00111642977697
12:21:12.733118,733118,117.88359151500724,262.7140088019395
12:21:12.737130,737130,117.95771813545112,18.476226431674302
12:21:12.741084,741084,118.16351550891069,52.047894147591
12:21:12.746082,746082,117.11493863508159,209.7992944836146
12:21:12.750130,750130,117.4476498412786,82.19150350716855
12:21:12.754130,754130,117.26120135355781,46.612121930198924
12:21:12.758119,758119,117.39044065081832,32.398921348837156
12:21:12.762129,762129,119.39947015750681,501.00486451084595
12:21:12.767085,767085,118.89000117141451,102.79842334388643
12:21:12.771081,771081,119.61083081462881,180.38779860217755
12:21:12.775120,775120,122.2261222882517,647.5096493248055
12:21:12.779133,779133,122.93483058579456,176.6031142643548
12:21:12.783119,783119,121.16241697341907,444.6597120861735
12:21:12.787082,787082,118.70923757928904,619.0207908478505
12:21:12.792080,792080,118.70426185457573,0.995543159924856
12:21:12.796082,796082,118.25445708611167,112.39499461870625
12:21:12.800130,800130,118.37796732535074,30.51142273692372
12:21:12.804135,804135,118.24765145533704,32.538294635131905
12:21:12.808120,808120,118.57257432606171,81.53647947921635
12:21:12.812134,812134,119.24565932838644,167.68435533750016
12:21:12.817090,817090,118.43993962998633,162.57459612593036
12:21:12.821082,821082,118.90355425071304,116.1359270357505
12:21:12.825118,825118,117.82027938184157,268.40308941314925
12:21:12.829117,829117,117.9960467762285,43.95283680593238
12:21:12.833118,833118,119.27511211382661,319.68641279632897
12:21:12.837080,837080,118.92902231377961,87.35229683164985
12:21:12.842081,842081,119.93145052081665,200.44555229694896
12:21:12.846081,846081,121.47372814037662,385.56940488999203
12:21:12.850081,850081,122.28896987045879,203.81043252054099
12:21:12.854129,854129,123.47798322511078,293.7285955167961
12:21:12.858117,858117,123.04223678169942,109.26440406503534
12:21:12.862131,862131,125.40376147460834,588.3220460660013
12:21:12.867082,867082,126.45445979419488,212.21941417623316
12:21:12.871082,871082,126.52935334992407,18.723388932297524
12:21:12.875117,875117,125.86304260990718,165.13277323838477
12:21:12.879129,879129,124.66485844979503,298.65008975876094
12:21:12.883118,883118,124.10911767827403,139.31831825545297
12:21:12.887080,887080,124.70470556004712,150.32505849901182
12:21:12.891133,891133,125.14837665708697,109.46733210951237
12:21:12.896081,896081,128.74074037626116,726.0233870602642
12:21:12.900131,900131,126.59643364254872,529.4584527685038
12:21:12.904129,904129,129.3496810926363,688.6561906172049
12:21:12.908084,908084,128.3867660309914,243.46777791274505
12:21:12.912124,912124,127.60427091915126,193.68690887132038
12:21:12.917095,917095,126.77145938068287,167.53400492222715
12:21:12.921080,921080,127.38866527880752,154.8822830927609
12:21:12.925118,925118,127.27800167680326,27.40554779699498
12:21:12.929130,929130,125.66553149643467,401.9118096631579
12:21:12.933125,933125,126.61090587872476,236.63939481604442
12:21:12.937130,937130,124.75402821627222,463.6398657809106
12:21:12.942096,942096,123.28694341491543,295.4258560927891
12:21:12.946082,946082,125.20873209903878,482.13464227881497
12:21:12.950130,950130,124.9998089277869,51.61145534878518
12:21:12.954136,954136,124.83448827673412,41.26826037263628
12:21:12.958126,958126,125.01568508471847,45.41273383066405
12:21:12.962118,962118,123.78522656108642,308.2310930942014
12:21:12.966080,966080,124.92235836511618,287.0095416531458
12:21:12.971082,971082,125.3713555361872,89.76352880268165
12:21:12.975120,975120,125.50976234504337,34.27607945918146
12:21:12.979118,979118,125.77977912372101,67.53796365123644
12:21:12.983134,983134,124.47383503483736,325.1852810965262
12:21:12.987113,987113,125.5912207592889,280.8207399978732
12:21:12.992119,992119,125.84392469999645,50.480211887244856
12:21:12.996082,996082,124.8223863165489,257.768958730141
12:21:13.000130,000130,124.27052902164839,0.5541002928861177
12:21:13.004121,004121,123.39883903561051,218.41392784712576
12:21:13.008117,008117,124.25705364128021,214.76841983726257
12:21:13.012118,012118,123.9475711237072,77.35129157035797
12:21:13.016131,016131,123.70430315698623,60.61997675578826
12:21:13.021082,021082,124.01760477443143,63.28047211577565
12:21:13.025129,025129,123.52174175621579,122.52607319388288
12:21:13.029129,029129,124.58843298793191,266.6728079290301
12:21:13.033131,033131,124.59104756885577,0.6533185716794986
12:21:13.037130,037130,124.09424763109524,124.2310422006822
12:21:13.041131,041131,122.82765629460121,316.5686919505201
12:21:13.046082,046082,124.86446076365303,411.3925407093145
12:21:13.050133,050133,122.54141500080219,573.4499538017376
12:21:13.054082,054082,121.07245523148485,371.98272203528404
12:21:13.058085,058085,123.36473820051317,572.641261311097
12:21:13.062129,062129,120.53301432201569,700.228456601752
12:21:13.067083,067083,120.92485427149731,79.09567006088442
12:21:13.071082,071082,119.91749814585927,251.90200691123783
12:21:13.075134,075134,119.87088066570745,11.504807539936708
12:21:13.079129,079129,118.85201404534607,255.0354494020974
12:21:13.083118,083118,120.0227775555096,293.4979970327247
12:21:13.087084,087084,120.02832326280432,1.3983124797566642
12:21:13.092082,092082,120.90152893248104,174.7110183426814
12:21:13.096083,096083,120.93647080401094,8.733284561333479
12:21:13.100083,100083,120.24768893192712,172.19546802095564
12:21:13.104134,104134,120.35297746392648,25.990750925540237
12:21:13.108081,108081,119.5408451029513,205.75940232459692
12:21:13.112117,112117,120.26096421743844,178.42396295519012
12:21:13.117121,117121,120.70935545061975,89.6065613871526
12:21:13.121083,121083,121.04355400083634,84.3509717861141
12:21:13.125119,125119,122.29307822713443,309.59470423639556
12:21:13.129130,129130,123.43531634193829,284.776393618514
12:21:13.133118,133118,126.40895308956043,745.6461252813784
12:21:13.137080,137080,127.49268929683394,273.5326116288535
12:21:13.141135,141135,125.87111962736897,399.8938765634957
12:21:13.146081,146081,125.2959032880524,116.29930030662531
12:21:13.150129,150129,126.15485181153161,212.19084078043812
12:21:13.154130,154130,127.23675417644344,270.4079892306489
12:21:13.158130,158130,125.4382105098836,449.63591663995925
12:21:13.162129,162129,124.76533124236934,168.26188234915264
12:21:13.167113,167113,124.43404779639401,66.46939124705668
12:21:13.171082,171082,123.00192477323972,360.82716632761145
12:21:13.175120,175120,122.86717523023266,33.370367262768916
12:21:13.179130,179130,122.90159154636919,8.582622477937342
12:21:13.183118,183118,122.45790328526425,111.25583277455827
12:21:13.187118,187118,121.70682580369927,187.7693703912442
12:21:13.192080,192080,122.81677236475474,223.68935128082748
12:21:13.196082,196082,119.46182400609297,838.317930700093
12:21:13.200130,200130,120.73071219550823,313.4605211006088
12:21:13.204130,204130,118.30966707460752,605.2612802251787
12:21:13.208081,208081,118.00897491672164,76.10532976104192
12:21:13.212120,212120,119.01575592162008,249.2649182714639
12:21:13.217118,217118,118.86867581201567,29.427793038098635
12:21:13.221082,221082,121.29716889310681,612.6370033025096
12:21:13.225123,225123,120.71875065382501,143.1374014555314
12:21:13.229084,229084,120.42262127850397,74.76126617547187
12:21:13.233113,233113,119.89557701116992,130.81267494019568
12:21:13.237118,237118,120.37728371306567,120.27633006135979
12:21:13.241130,241130,119.85434236347973,130.3443044830346
12:21:13.246082,246082,121.80848912781678,394.61768262056825
12:21:13.250130,250130,121.9838725339265,43.3259402444952
12:21:13.254118,254118,124.51971589436056,635.8684454448489
12:21:13.258106,258106,123.89988069352975,155.4250754340036
12:21:13.262126,262126,124.70466222474198,200.1944107493105
12:21:13.266083,266083,124.58278872247996,30.799469866570494
12:21:13.271081,271081,125.45435744092256,174.38349708735558
12:21:13.275107,275107,125.34483606625847,27.203520780948324
12:21:13.279106,279106,124.61045588885202,183.64095459026012
12:21:13.283084,283084,122.922101987757,424.4228006774794
12:21:13.287082,287082,122.04614071455532,219.09986823453775
12:21:13.291118,291118,121.01108401281327,256.45607079832763
12:21:13.296083,296083,120.14611981294472,174.2123262575131
12:21:13.300118,300118,119.38684658265274,188.17180428549722
12:21:13.304083,304083,119.19613708399892,48.09823421281638
12:21:13.308110,308110,120.62692356390527,355.2983560730929
12:21:13.312121,312121,120.43682635189037,47.39396958735745
12:21:13.316085,316085,121.85872269721253,358.7024080025614
12:21:13.321082,321082,120.45357605608694,281.19804705334866
12:21:13.325137,325137,120.4957445255855,10.399129346127914
12:21:13.329108,329108,121.01649359915648,131.13801903071837
12:21:13.333083,333083,119.45870024288932,391.8976996898502
12:21:13.337111,337111,119.19537074887194,65.37475025257795
12:21:13.341107,341107,120.26347009462174,267.2921285660161
12:21:13.346082,346082,118.77429683880587,299.33130770168253
12:21:13.350118,350118,117.68263767229568,270.48046742075906
12:21:13.354083,354083,118.30550923494076,157.09244959522664
12:21:13.358083,358083,117.83938125668959,116.5319945627914
12:21:13.362129,362129,117.3266004639629,126.73771446532061
12:21:13.366119,366119,119.16100373528232,459.75019331313706
12:21:13.371084,371084,119.17308266301697,2.432815253705723
12:21:13.375118,375118,119.34781958397143,43.316043865755745
12:21:13.379118,379118,119.40816427627628,15.086173076213072
12:21:13.383121,383121,119.38098102273378,6.790720345366824
12:21:13.387081,387081,118.52171734444443,216.98577734579598
12:21:13.391118,391118,117.23112553756795,319.6908117107946
12:21:13.396083,396083,116.67885721908351,111.2322897249621
12:21:13.400083,400083,116.235669292365,110.79698167962704
12:21:13.404081,404081,117.262414809337,256.81478663631805
12:21:13.408082,408082,115.45439278534481,451.89253286483233
12:21:13.412118,412118,116.21500792453524,188.45766580536048
12:21:13.416083,416083,115.0734864089194,287.89949952480447
12:21:13.421083,421083,116.98333850134671,381.9704184854629
12:21:13.425103,425103,116.59849335249095,95.73262409347265
12:21:13.429108,429108,118.48347180856753,470.6562936520802
12:21:13.433111,433111,118.92335920120414,109.88943108583726
12:21:13.437108,437108,119.95158136632767,257.24847763911373
12:21:13.441108,441108,119.6075233266052,86.01450993061732
12:21:13.446082,446082,120.69419252314418,218.4698826978242
12:21:13.450110,450110,120.04528202753488,161.09992443130588
12:21:13.454111,454111,121.15494391187329,277.3461345509642
12:21:13.458108,458108,119.49796690095931,414.5551691053232
12:21:13.462109,462109,120.18272930951683,171.14781518558303
12:21:13.467082,467082,119.33577568384298,170.3104013017993
12:21:13.471082,471082,119.3011795018632,8.64904549494483
12:21:13.475107,475107,120.24629141085288,234.81041217134748
12:21:13.479104,479104,120.4488798125099,50.68511424994359
12:21:13.483109,483109,120.06412543379419,96.06850904262477
12:21:13.487119,487119,120.87916791443311,203.25248893738717
12:21:13.492084,492084,119.9384007044335,189.4798006041503
12:21:13.496082,496082,120.42721510406413,122.26473227379363
12:21:13.500083,500083,119.45841080439507,242.14053978231937
12:21:13.504120,504120,118.90684646163523,136.62728331925842
12:21:13.508083,508083,119.02684141523228,30.278817460776548
12:21:13.512082,512082,120.84187930202663,453.87293993356917
12:21:13.517096,517096,119.15529425911294,336.3751581399464
12:21:13.521081,521081,120.16629325144751,253.70112731106096
12:21:13.525113,525113,121.25014249824885,268.8118171630297
12:21:13.529083,529083,121.75972102321016,128.35731107337858
12:21:13.533110,533110,121.02426109182571,182.63221539221615
12:21:13.537107,537107,120.5075060060995,129.28573573335075
12:21:13.541108,541108,120.71063538526485,50.769652378242135
12:21:13.546083,546083,122.01900854951323,262.98958075344314
12:21:13.550109,550109,121.52299632971038,123.20224038818928
12:21:13.554109,554109,122.66956976677626,286.64335926647055
12:21:13.558108,558108,122.35891603635751,77.68285331801695
12:21:13.562085,562085,124.98547657787313,660.4376518771979
12:21:13.566083,566083,125.72653353405238,185.35691750356426
12:21:13.571082,571082,126.80616845669327,215.9701785638912
12:21:13.575106,575106,124.2742830379559,629.1961776186319
12:21:13.579107,579107,126.00983927105737,433.7806131220886
12:21:13.583109,583109,124.8965346171845,278.18706993325173
12:21:13.587109,587109,125.2466625412886,87.53198102602511
12:21:13.591108,591108,130.26193303700958,1254.1311567194257
12:21:13.596082,596082,130.33866259768604,15.42612800089563
12:21:13.600110,600110,126.07994430019508,1057.2786240047064
12:21:13.604111,604111,127.99164053601211,477.80460780230754
12:21:13.608089,608089,127.82537911656637,41.795228618840156
12:21:13.612106,612106,127.91366776686972,21.978752876115173
12:21:13.617082,617082,125.4109429823764,502.95916087084487
12:21:13.621082,621082,125.54520018820253,33.564301456532775
12:21:13.625119,625119,126.38536215382456,208.1154237359501
12:21:13.629107,629107,125.92838406326268,114.58828750297785
12:21:13.633115,633115,125.57164117040438,89.00770779897877
12:21:13.637111,637111,125.75127001336487,44.95216290302729
12:21:13.641109,641109,125.59694638414894,38.600207407688295
12:21:13.646084,646084,124.8996982160663,140.15038554424876
12:21:13.650110,650110,122.15725900454036,681.1821191072861
12:21:13.654109,654109,122.69641602248603,134.82296022647395
12:21:13.658656,658656,124.94305975413384,494.093629128614
12:21:13.662291,662291,126.19068732346466,343.22629142525903
12:21:13.666291,666291,127.16545849446244,243.69279274944589
12:21:13.671252,671252,122.6999383132188,900.1250113371593
12:21:13.675252,675252,122.96742164899662,66.87083394445636
12:21:13.679290,679290,122.06734702483057,222.90109563299956
12:21:13.683295,683295,123.00616533256431,234.41156248033465
12:21:13.687253,687253,123.00928539536308,0.7882927738179707
12:21:13.691291,691291,125.33420528456472,575.7602499261114
12:21:13.695294,695294,124.87428973697722,114.89271735885572
12:21:13.700254,700254,126.3574457111917,299.0233818980813
12:21:13.704251,704251,125.47441805450404,220.9226061265097
12:21:13.708251,708251,126.24118770333152,191.69241220686928
12:21:13.712250,712250,125.57798390383803,165.8424104759909
12:21:13.716251,716251,125.62288142736074,11.221575486804975
12:21:13.721253,721253,125.48957970682379,26.649684233696252
12:21:13.725254,725254,127.64419404904199,538.518955815595
12:21:13.729291,729291,126.35102322611868,320.3296564090416
12:21:13.733291,733291,126.75256723188929,100.38600144265075
12:21:13.737250,737250,125.08724794013912,420.6413972594508
12:21:13.741251,741251,124.95716325801783,32.51304226975578
12:21:13.745250,745250,124.4144996931181,135.6998161789763
12:21:13.750253,750253,123.50903763211782,180.98382190691157
12:21:13.754270,754270,123.52947990768328,5.0889408925709825
12:21:13.758285,758285,122.81762765722394,177.298194385889
12:21:13.762290,762290,122.37057150864155,111.62450651245712
12:21:13.766288,766288,123.02044873960496,162.5505830323692
12:21:13.770253,770253,122.55715192028191,116.84661269181545
12:21:13.775252,775252,122.43105078887578,25.225271335493233
12:21:13.779276,779276,123.56869902990947,282.7157656644353
12:21:13.783254,783254,123.3429601668025,56.74682330491925
12:21:13.787276,787276,121.7233279381125,402.6932443286907
12:21:13.791287,791287,121.70150142363052,5.441664044374643
12:21:13.795288,795288,120.56794591762775,283.3180469889439
12:21:13.800255,800255,120.35963653351246,41.93867205864624
12:21:13.804306,804306,121.43375721015492,265.14951287150467
12:21:13.808255,808255,118.10164425131407,843.7865178123202
12:21:13.812301,812301,119.15863423714161,261.24319966078644
12:21:13.816291,816291,119.13659796296972,5.522875732304712
12:21:13.821252,821252,120.85926880564857,347.2426612938625
12:21:13.825256,825256,121.2189215766853,89.82336938979407
12:21:13.829294,829294,121.62882084024487,101.51046645853552
12:21:13.833290,833290,120.26747905069408,340.67612351120925
12:21:13.837290,837290,121.65056941926336,345.7725921423211
12:21:13.841291,841291,120.1841354518132,366.51686264687766
12:21:13.845283,845283,118.79556616323642,347.83799814047836
12:21:13.850251,850251,120.3537722099207,313.64856012163654
12:21:13.854280,854280,120.05514460428284,74.11953478229373
12:21:13.858254,858254,119.9120746986442,36.001486069109255
12:21:13.862279,862279,119.20549195879721,175.5485067942841
12:21:13.866257,866257,119.42251975952324,54.55701375717178
12:21:13.870253,870253,119.48690022571209,16.111227774987725
12:21:13.875254,875254,120.18537303869113,139.6666292699528
12:21:13.878279,878279,120.82198102358943,210.4489206275388
12:21:13.883663,883663,120.90890239138949,16.144384806846045
12:21:13.887661,887661,121.49260750491375,145.99927802007514
12:21:13.891705,891705,122.56514973489931,265.2181577610183
12:21:13.895700,895700,121.9792474790296,146.6588875768991
12:21:13.899703,899703,119.8013010922265,544.078537797427
12:21:13.903661,903661,120.84255515782823,263.07581243095865
12:21:13.908662,908662,121.49469553671226,130.40199537772995
12:21:13.912698,912698,120.7588256827563,182.32652476609545
12:21:13.916703,916703,121.03957850142072,70.10057894242817
12:21:13.920701,920701,121.15155190156908,28.007353713946443
12:21:13.924705,924705,124.05269553726122,724.5613475754587
12:21:13.928664,928664,124.05683748823547,1.0462114105223994
12:21:13.933664,933664,125.47724442770038,284.0813878929822
12:21:13.937699,937699,125.63909335346654,40.11125793460987
12:21:13.941702,941702,124.76237842089189,219.01447228944372
12:21:13.945703,945703,126.08838826299083,331.41960562332935
12:21:13.949664,949664,124.80235789796092,324.67315451399037
12:21:13.953663,953663,123.43275893383817,342.4853623712789
12:21:13.958662,958662,123.27320837106133,31.91649585453955
12:21:13.962682,962682,123.69324320976118,104.4862782835444
12:21:13.966689,966689,122.79389623107166,224.44396772885497
12:21:13.970663,970663,121.89949410547199,225.06344378451655
12:21:13.974691,974691,122.96862049184578,265.4236311752224
12:21:13.978687,978687,123.10181009687471,33.33073198922212
12:21:13.983663,983663,122.30111389704746,160.9116157209118
12:21:13.987661,987661,122.94732535309844,161.63368085317097
12:21:13.991693,991693,120.77564748305535,538.6105828479871
12:21:13.995687,995687,121.9176763560792,285.9361224396211
12:21:13.999689,999689,122.10671853833782,47.236927101103866
12:21:14.003664,003664,121.95380702360737,0.1535217637413198
12:21:14.007692,007692,122.96703589588273,251.54639331563126
12:21:14.012689,012689,122.97247830770824,1.0891358466105163
12:21:14.016690,016690,122.9701105508014,0.5917912788926892
12:21:14.020692,020692,123.50341774149,133.26016758835664
12:21:14.024704,024704,123.57559714771371,17.99087891917021
12:21:14.028695,028695,123.12251315782402,113.52643194429754
12:21:14.033667,033667,122.49364932751055,126.4810599986853
12:21:14.037661,037661,122.56779176823444,18.56345536401841
12:21:14.041701,041701,120.76237506326477,446.88532301229526
12:21:14.045700,045700,120.9305595778362,42.05664280355995
12:21:14.049701,049701,120.8783320070197,13.05362929680393
12:21:14.053664,053664,119.83880753821363,262.30746121778054
12:21:14.058663,058663,123.6159716112953,755.5839314026134
12:21:14.062661,062661,122.76984554067951,211.63733632210645
12:21:14.066701,066701,124.06313778656596,320.1218430412
12:21:14.070664,070664,124.51098764456601,113.00778652537338
12:21:14.074691,074691,124.5117541514855,0.19034192189967328
12:21:14.078688,078688,125.116983102086,151.4208032525622
12:21:14.083664,083664,124.00697409117075,223.0725504250902
12:21:14.087661,087661,122.18487550799264,455.8665457038038
12:21:14.091665,091665,121.27259675525612,227.84184633779375
12:21:14.095699,095699,120.84782673588735,105.29747629369481
12:21:14.099700,099700,120.54710255576857,75.16225446607784
12:21:14.103662,103662,119.95713956194237,148.90534927466058
12:21:14.108663,108663,121.35763168450745,280.0424160298107
12:21:14.112684,112684,120.41901721540187,233.42811964824358
12:21:14.116706,116706,121.07738402800017,163.69140044711645
12:21:14.120702,120702,120.32748311813674,187.66289035621307
12:21:14.124704,124704,120.79728098744214,117.39077194037867
12:21:14.128664,128664,121.20460956539807,102.860752009075
12:21:14.133662,133662,121.31646641053824,22.380321156496027
12:21:14.137691,137691,120.93952013909832,93.55827039958295
12:21:14.141701,141701,121.57505581378409,158.48769942288516
12:21:14.145702,145702,121.63090970799536,13.959983556927675
12:21:14.149702,149702,121.11023571294686,130.16849876212433
12:21:14.153701,153701,120.56656566682645,135.95149940495403
12:21:14.158663,158663,118.77126287199705,361.8103173779517
12:21:14.162691,162691,118.67187807195941,24.673485610139092
12:21:14.166701,166701,118.84933251003723,44.25297707676227
12:21:14.170702,170702,121.51272077089372,665.6806450528601
12:21:14.174689,174689,120.5497319175068,241.53219297389458
12:21:14.178663,178663,121.12416074185253,144.54676002660557
12:21:14.183661,183661,120.42574405148848,139.73923376631765
12:21:14.187694,187694,122.91640833690393,617.5711096988466
12:21:14.191700,191700,121.9230000130934,247.98011078645217
12:21:14.195703,195703,121.76111347275491,40.44130410654158
12:21:14.199700,199700,123.1871311958096,356.7720097709994
12:21:14.203712,203712,122.51168483114245,168.35652160198217
12:21:14.208662,208662,124.6344882522574,428.84917598281856
12:21:14.212660,212660,125.61034003601092,244.08498843259795
12:21:14.216689,216689,123.4679811728869,531.7346396435917
12:21:14.220694,220694,122.67838102463199,197.15359506988898
12:21:14.224705,224705,120.83548964828093,459.45933092771435
12:21:14.228690,228690,120.88075231416859,11.358259946715805
12:21:14.233663,233663,120.64854991981765,46.69261901285643
12:21:14.237690,237690,121.51150816134032,214.29308207664818
12:21:14.241701,241701,122.5860848993001,267.90743903260733
12:21:14.245700,245700,122.95189643941633,91.47575396754846
12:21:14.249664,249664,122.78174377261524,42.92448708402803
12:21:14.253691,253691,123.48590782563802,174.86070350702246
12:21:14.258660,258660,123.58074076452326,19.084914245367862
12:21:14.262660,262660,122.66199696684357,229.68594941992038
12:21:14.266660,266660,123.64286508661648,245.2170299432268
12:21:14.270661,270661,122.65837641503022,246.06065273338234
12:21:14.274701,274701,121.22981962035405,353.60316699905167
12:21:14.278702,278702,119.19903706935723,507.56874556281383
12:21:14.283664,283664,119.96972302375805,155.31760467569896
12:21:14.287662,287662,121.26674889669532,324.41867757310376
12:21:14.291702,291702,120.02557254188882,307.22187000160847
12:21:14.295700,295700,117.76654292956175,565.0399230432889
12:21:14.299700,299700,118.01937385876307,63.20773230033083
12:21:14.303664,303664,116.23711283774406,449.61176110469495
12:21:14.308663,308663,116.23882783831138,0.3430687272086183
12:21:14.312661,312661,119.03907165033712,700.4111585857281
12:21:14.316704,316704,118.5231238289271,127.61509310166295
12:21:14.320664,320664,118.88663462611214,91.79565585480886
12:21:14.324700,324700,121.28395166148674,593.9834081701187
12:21:14.328701,328701,123.04665363166238,440.5653512061087
12:21:14.333664,333664,124.54609564099087,302.12412035633486
12:21:14.337705,337705,126.60305382678743,509.0220702292898
12:21:14.341700,341700,126.53857178368627,16.140686633583286
12:21:14.345702,345702,127.65105723090606,277.9823706196393
12:21:14.349691,349691,127.67212135358449,5.2805521881235205
12:21:14.353694,353694,127.8807144127799,52.10918291166829
12:21:14.358662,358662,126.06472569624752,365.5371812665809
12:21:14.362675,362675,125.56168633541773,125.35244476197072
12:21:14.366702,366702,124.52551975664048,257.304837044265
12:21:14.370690,370690,124.69777573436019,43.19357515539488
12:21:14.374664,374664,124.79052010482543,23.337788239869255
12:21:14.378700,378700,123.76931839454006,253.02321860390683
12:21:14.383663,383663,127.2782872011083,707.0257518775405
12:21:14.387661,387661,126.58488167589485,173.43810035353926
12:21:14.391664,391664,127.40088340566356,203.84754678209214
12:21:14.395713,395713,127.3867837346794,3.4822600603027585
12:21:14.399714,399714,125.28846357173241,524.4489285046214
12:21:14.403697,403697,125.88743869426878,150.38290799306384
12:21:14.408662,408662,125.52830302409212,72.33346831352583
12:21:14.412681,412681,124.41591711373432,276.7817642094554
12:21:14.416692,416692,124.58760813974446,42.80504263528726
12:21:14.420662,420662,121.02794488913405,896.64061728222
12:21:14.424690,424690,123.09729452100393,513.7412194314506
12:21:14.428662,428662,121.92833839788076,294.2991246533652
12:21:14.433661,433661,120.97048611487482,191.60877835686105
12:21:14.437679,437679,120.47810486741888,122.54386447385227
12:21:14.441690,441690,121.63455062321447,288.3185629009194
12:21:14.445691,445691,123.50343206765965,467.1035852149911
12:21:14.449697,449697,121.6845916885177,454.0290512086735
12:21:14.453688,453688,123.99239997266595,578.2531406034205
12:21:14.458662,458662,123.4731776482625,104.38727873008519
12:21:14.462680,462680,123.23513625622611,59.2437511290178
12:21:14.466662,466662,123.54961989106643,78.97630206939091
12:21:14.470688,470688,122.06778130172054,368.0672104684262
12:21:14.474664,474664,122.24132054592557,43.64669119844849
12:21:14.478688,478688,122.99177776454286,186.49533265837107
12:21:14.483661,483661,122.90029017797302,18.39686035991164
12:21:14.487661,487661,122.69780189603425,50.62207048469247
12:21:14.491660,491660,125.41751031016277,680.0971278140833
12:21:14.495665,495665,124.96934634483016,111.90111493947848
12:21:14.499705,499705,124.12679413183385,208.55252796938362
12:21:14.503702,503702,124.9369141819393,202.68202404439668
12:21:14.508663,508663,125.18921867766468,50.85758833408245
12:21:14.512661,512661,123.059256108211,532.7570208738573
12:21:14.516703,516703,121.71230592998344,333.238539888065
12:21:14.520708,520708,121.84160917434389,32.28545427227045
12:21:14.524712,524712,123.09268978392014,312.4576946993629
12:21:14.528715,528715,123.9388830289109,211.38976892099873
12:21:14.533662,533662,123.09036230123981,171.52228172045415
12:21:14.537690,537690,123.6056448830059,127.92516925672463
12:21:14.541700,541700,122.4629818559109,284.9533733403983
12:21:14.545685,545685,124.73835520581586,570.9845294617234
12:21:14.549662,549662,124.78555185166661,11.867399006976786
12:21:14.553660,553660,125.332782052898,136.87598830199752
12:21:14.558665,558665,124.61555675838437,143.30175714557944
12:21:14.562691,562691,124.32000272481208,73.41133471740866
12:21:14.566702,566702,124.22198149299349,24.438103170927953
12:21:14.570664,570664,124.9724748251361,189.42285011171398
12:21:14.574709,574709,124.11672714887004,211.55690389766693
12:21:14.578662,578662,124.24161781301648,31.59389429456981
12:21:14.583662,583662,125.92693339388786,337.06311617427787
12:21:14.587662,587662,124.3536228220782,393.3276429524177
12:21:14.591703,591703,124.76276637340378,101.24809485909046
12:21:14.595702,595702,123.99204355000018,192.7288880729188
12:21:14.599702,599702,125.31186277816155,329.95480704034463
12:21:14.603662,603662,125.85519551362194,137.20523622736917
12:21:14.608662,608662,123.94231131346478,382.57684003143027
12:21:14.612680,612680,123.46184024533308,119.5796585693644
12:21:14.616700,616700,122.32768590261318,282.1279459502228
12:21:14.620714,620714,120.9784661122272,336.12849785400783
12:21:14.624711,624711,120.29787053354855,170.27660212125306
12:21:14.628702,628702,120.77167909647298,118.71925906400212
12:21:14.633663,633663,119.88389319152519,178.953014502679
12:21:14.637688,637688,120.23666409480192,87.64494491347448
12:21:14.641704,641704,121.0008612791883,190.28814352250393
12:21:14.645700,645700,121.70315924299861,175.75024119377113
12:21:14.649703,649703,121.49932588687142,50.92014892010773
12:21:14.653662,653662,120.5951735707737,228.37896339927306
12:21:14.658663,658663,119.55930002465523,207.13328256717986
12:21:14.662694,662694,119.74780695864779,46.764310094903614
12:21:14.666704,666704,119.32125548917998,106.37193752314472
12:21:14.670665,670665,119.1937727013619,32.184495788457845
12:21:14.674701,674701,119.95759471346342,189.25223292902083
12:21:14.678701,678701,120.00659976789798,12.251263608639817
12:21:14.683663,683663,121.72353239614563,346.0162491430164
12:21:14.687692,687692,120.66058985358715,263.8229194734362
12:21:14.691704,691704,121.9713249202829,326.70365570681497
12:21:14.695701,695701,120.5941748415171,344.5459291383023
12:21:14.699700,699700,121.96838363532098,343.6381079779629
12:21:14.703662,703662,122.9144612373178,238.78788541060558
12:21:14.708663,708663,123.13788012021644,44.67484161140609
12:21:14.712696,712696,123.82298889923152,169.87572006324854
12:21:14.716703,716703,123.37098325304048,112.80400453981532
12:21:14.720664,720664,123.10627079296232,66.82970463977735
12:21:14.724713,724713,123.80662288478233,172.96915085700374
12:21:14.728661,728661,124.62804608382835,208.06058739767565
12:21:14.733663,733663,123.74553993243698,176.4306580150676
12:21:14.737701,737701,123.94656837075277,49.784160058392295
12:21:14.741711,741711,123.1762958427019,192.08791223213652
12:21:14.745694,745694,120.16155001271385,756.90329650717
12:21:14.749686,749686,119.76064538554823,100.42701081303007
12:21:14.753691,753691,118.91802345823312,210.39249121475848
12:21:14.758664,758664,121.7898507884121,577.4838789822992
12:21:14.762689,762689,120.48768545734646,323.5193369107174
12:21:14.766700,766700,121.50541701904389,253.7351188475271
12:21:14.770699,770699,121.35992515966753,36.38206035918071
12:21:14.774702,774702,121.09243937663645,66.82132976044893
12:21:14.778704,778704,121.18096964191423,22.121505566662268
12:21:14.783663,783663,122.33972275372584,233.666689213875
12:21:14.787690,787690,122.42518308459657,21.22183532921061
12:21:14.791700,791700,123.3543106093586,231.7026246289371
12:21:14.795701,795701,121.58249577242586,442.8429984835661
12:21:14.799662,799662,122.78007061986781,302.3415418939551
12:21:14.803713,803713,123.27579730917748,122.37143651188917
12:21:14.808661,808661,123.25651650025704,3.896687332344771
12:21:14.812661,812661,123.17956721789982,19.23732058930483
12:21:14.816701,816701,122.4133252117384,189.66386291124255
12:21:14.820664,820664,122.07540943465636,85.26767022004323
12:21:14.824685,824685,121.42360367733968,162.10041216530215
12:21:14.828704,828704,122.07564963165925,162.24084456819142
12:21:14.833661,833661,121.87405727458524,40.668218090378396
12:21:14.837680,837680,121.74765336354142,31.451582742926927
12:21:14.841664,841664,120.9634943692739,196.82705679405478
12:21:14.845693,845693,119.46576122108166,371.73818520532126
12:21:14.849691,849691,119.69850621296717,58.21535564920233
12:21:14.853689,853689,118.51462783565195,296.1176531553838
12:21:14.858662,858662,118.88734632169415,74.94841866925454
12:21:14.862691,862691,119.87089212647172,244.11660580232396
12:21:14.866701,866701,120.7382707071055,216.30388544483375
12:21:14.870662,870662,121.21470929486328,120.28240034278811
12:21:14.874704,874704,121.47655015195359,64.78002402036262
12:21:14.878703,878703,123.26062380562978,446.1299459055234
12:21:14.883662,883662,123.2721166488798,2.3175727465265124
12:21:14.887661,887661,123.79906405680654,131.76979443029285
12:21:14.891701,891701,122.99490527626519,199.04920310429628
12:21:14.895710,895710,123.14312163968069,36.970906314667005
12:21:14.899704,899704,124.62639743456293,371.376012739671
12:21:14.903701,903701,122.08409923585549,636.0515883681367
12:21:14.908663,908663,122.94259370361682,173.0137984202604
12:21:14.912694,912694,127.27295766473372,1074.2654331721415
12:21:14.916664,916664,126.11342439261753,292.0738720695699
12:21:14.920688,920688,126.36399077305644,62.26798718660824
12:21:14.924700,924700,126.09747348606334,66.43003165331679
12:21:14.928703,928703,126.06079673435106,9.16231619092634
12:21:14.933664,933664,125.53473690099715,106.0390714279202
12:21:14.937661,937661,126.42902109137223,223.73885173257167
12:21:14.941702,941702,126.97054436158928,134.00724331032947
12:21:14.945663,945663,127.133729149643,41.197876307429055
12:21:14.949712,949712,127.98039461296409,209.10483164264954
12:21:14.953664,953664,125.98044196406909,506.06089293901925
12:21:14.958662,958662,126.40358376872207,84.66222582092544
12:21:14.962701,962701,125.9335350533011,116.37749824733163
12:21:14.966702,966702,125.55033969930395,95.77489477559415
12:21:14.970702,970702,126.4521776649736,225.45949141741417
12:21:14.974661,974661,126.47257395217959,5.15187855670202
12:21:14.978702,978702,127.25204468698965,192.89055550855272
12:21:14.983662,983662,125.70837614010232,311.22349735631695
12:21:14.987661,987661,125.93071434639968,55.598451187138174
12:21:14.991713,991713,125.26683170874985,163.8407299234537
12:21:14.995700,995700,126.15222675642326,222.07049101414916
12:21:14.999703,999703,126.12981757347102,5.598097165187368
12:21:15.003701,003701,125.81019585940898,0.3209046910167225
12:21:15.008665,008665,124.8631824838356,190.7762642170381
12:21:15.012690,012690,125.10162185554162,59.239595454912305
12:21:15.016703,016703,123.59482134250577,375.4798188477089
12:21:15.020664,020664,123.46459857137415,32.87623608472949
12:21:15.024702,024702,123.65930110221268,48.21756583420664
12:21:15.028661,028661,124.83044269653858,295.81752824599715
12:21:15.033664,033664,125.88460624947558,210.7062868153105
12:21:15.037679,037679,126.20895697160333,80.78473776531676
12:21:15.041689,041689,126.50704521819716,74.33622109571947
12:21:15.045687,045687,125.8330636644781,168.57967826889933
12:21:15.049692,049692,126.21521520216395,95.41861115751382
12:21:15.053691,053691,124.99204425783182,305.8692033838772
12:21:15.058663,058663,124.65499463605016,67.78954581288404
12:21:15.062692,062692,124.70748368178305,13.027809812083325
12:21:15.066664,066664,124.5164870474171,48.0857589038129
12:21:15.070665,070665,123.6888303941409,206.86244770712509
12:21:15.074701,074701,124.59149281836739,223.65273147336265
12:21:15.078702,078702,124.68907751633851,24.39007697353892
12:21:15.083662,083662,124.50669478098482,36.77071277292307
12:21:15.087689,087689,123.97497342833547,132.03907441006749
12:21:15.091702,091702,123.71361082862374,65.12898074052605
12:21:15.095701,095701,123.26748419845978,111.5595474278469
12:21:15.099663,099663,123.92264179217047,165.3603214817474
12:21:15.103702,103702,124.15929244203006,58.591396350482334
12:21:15.108662,108662,123.85476794755093,61.39606743531032
12:21:15.112697,112697,123.75332663844486,25.140349220833862
12:21:15.116664,116664,124.18956360846687,109.96646584875437
12:21:15.120664,120664,124.3488769023179,39.828323462757
12:21:15.124661,124661,124.83398803391007,121.36880950517315
12:21:15.128699,128699,126.01923708293842,293.52378628735585
12:21:15.133663,133663,125.05893347221053,193.45358797902722
12:21:15.137688,137688,125.63648073639344,143.49000352370464
12:21:15.141699,141699,124.69658969011401,234.3283585837516
12:21:15.145701,145701,126.18890143336984,372.89149006892194
12:21:15.149665,149665,124.0417183484337,541.6708085106285
12:21:15.153701,153701,122.81899194013458,302.95500701167595
12:21:15.158663,158663,122.72892990681628,18.150349318481297
12:21:15.162684,162684,121.43180252574476,322.5882569190547
12:21:15.166700,166700,120.5677153454246,215.16115047812622
12:21:15.170662,170662,121.99995990279272,361.495345120677
12:21:15.174700,174700,121.13113505928862,215.1621702585687
12:21:15.178699,178699,122.60285718573323,368.02253724546233
12:21:15.183662,183662,124.34393936527724,350.81244802418064
12:21:15.187661,187661,124.6374975102966,73.40788822689696
12:21:15.191662,191662,124.48388281959268,38.39407415744019
12:21:15.195664,195664,124.67436689692767,47.59722072338482
12:21:15.199704,199704,125.98712939658054,324.9412127853655
12:21:15.203665,203665,126.6929222681626,178.18552678163653
12:21:15.208662,208662,126.49215825435412,40.17690890704042
12:21:15.212689,212689,125.70850097943863,194.600763574745
12:21:15.216704,216704,125.7804543940314,17.921149338174246
12:21:15.220663,220663,125.85982617210509,20.048441039073673
12:21:15.224693,224693,127.33862329890681,366.9471778664325
12:21:15.228660,228660,124.86776123104566,622.8540629849125
12:21:15.233660,233660,125.60130320783381,146.70839535762923
12:21:15.237661,237661,124.3296943731064,317.8227529936022
12:21:15.241660,241660,123.82609587904551,125.93110629179684
12:21:15.245697,245697,122.98541799935454,208.24322013648055
12:21:15.249702,249702,123.01445848069548,7.251056514592358
12:21:15.253692,253692,123.20891631251943,48.736298702745266
12:21:15.258662,258662,124.01536620249482,162.2635593511837
12:21:15.262661,262661,124.71056688653759,173.84363191867322
12:21:15.266661,266661,122.94518759131746,441.34482380503215
12:21:15.270701,270701,124.05633686048493,275.03694781373014
12:21:15.274973,274973,124.31519664370434,60.594518543868645
12:21:15.278891,278891,124.64115851823011,83.19598635165238
12:21:15.283246,283246,123.58520584807015,242.4690402204289
12:21:15.287207,287207,125.17343238361502,400.96605290201376
12:21:15.291210,291210,123.94451441690993,306.9992422445909
12:21:15.295215,295215,124.31878056913696,93.44972589938496
12:21:15.300211,300211,123.5993157763855,144.00816508235923
12:21:15.304213,304213,124.5407512269127,235.24124201079675
12:21:15.308208,308208,123.80795401482554,183.42858875773805
12:21:15.312206,312206,123.04507396246868,190.81542079961554
12:21:15.316247,316247,123.15612343949816,27.480692162702816
12:21:15.320212,320212,122.96717310948202,47.6545599031881
12:21:15.325211,325211,120.36877460247507,519.7836581330162
12:21:15.329264,329264,120.53969989482259,42.172536972000756
12:21:15.333248,333248,120.92902984126711,97.72338013165644
12:21:15.337249,337249,121.77046045906329,210.30507817949953
12:21:15.341246,341246,120.50114581525484,317.56683607917006
12:21:15.346207,346207,122.698177528738,442.86065581196453
12:21:15.350218,350218,121.22047379227564,368.41279891856385
12:21:15.354247,354247,122.50435547734592,318.66013528674216
12:21:15.358211,358211,124.82395338810691,585.1659714331458
12:21:15.362257,362257,124.38098088185521,109.48405987437134
12:21:15.366251,366251,123.91161416041405,117.51795729623481
12:21:15.371208,371208,124.48495490581517,115.6628495866705
12:21:15.375210,375210,124.27044647298888,53.60030805254685
12:21:15.379246,379246,122.86173874906503,349.03561048658423
12:21:15.383259,383259,122.29493762280113,141.24124751156168
12:21:15.387209,387209,122.65630881943318,91.48637889418971
12:21:15.391207,391207,124.24805601879686,398.13586777480765
12:21:15.396209,396209,123.31076354286924,187.3835417688165
12:21:15.400208,400208,125.40262736005133,523.0967284776412
12:21:15.404246,404246,124.44999793891431,235.91615184175794
12:21:15.408244,408244,124.86321300707645,103.35544476291781
12:21:15.412246,412246,124.80277632129521,15.101620634992713
12:21:15.416247,416247,124.78132468454908,5.3615687943353425
12:21:15.420211,420211,122.77391471965377,506.4101828696525
12:21:15.425211,425211,121.91682747668897,171.41744859296182
12:21:15.429252,429252,123.18797176869577,314.5618144040607
12:21:15.433207,433207,122.15226834391486,261.871915241699
12:21:15.437246,437246,124.00243687933906,458.0758938906172
12:21:15.441211,441211,123.2336605016988,193.89063748808695
12:21:15.445246,445246,124.0514623667517,202.6770421444609
12:21:15.450207,450207,125.18530405617628,228.55103596544754
12:21:15.454210,454210,125.97501418670241,197.27957295181906
12:21:15.458211,458211,125.73077002633482,61.04577864723469
12:21:15.462246,462246,127.90129689739877,537.9248751087835
12:21:15.466254,466254,127.17700917803995,180.7105088220591
12:21:15.470250,470250,126.6533372191481,131.04903876172503
12:21:15.475213,475213,125.66532228124385,199.07615109898316
12:21:15.479210,479210,124.96218148070055,175.91713798931576
12:21:15.483236,483236,124.61547754891424,86.11622746803485
12:21:15.487208,487208,123.95381946882398,166.58058411134505
12:21:15.491236,491236,124.42089405022439,115.95694672304137
12:21:15.495210,495210,122.70920284019216,430.72249874993156
12:21:15.500208,500208,124.09574394378267,277.41918839345794
12:21:15.504211,504211,122.92076107117552,293.52557397130795
12:21:15.508210,508210,123.05077359383091,32.51125847846753
12:21:15.512233,512233,123.42112735808858,92.0591012323321
12:21:15.516235,516235,123.2763599764668,36.173758526184415
12:21:15.521208,521208,124.49819644804612,245.69404214343913
12:21:15.525209,525209,124.30058264915306,49.39110194777777
12:21:15.529238,529238,123.7817415590732,128.7766418664334
12:21:15.533209,533209,121.38623760578426,603.2495475419132
12:21:15.537206,537206,122.62529634464303,309.99718260164457
12:21:15.541234,541234,120.946860828868,416.69203470085284
12:21:15.546208,546208,122.1724720955157,246.403551798895
12:21:15.550210,550210,120.70898379908154,365.68922949379413
12:21:15.554249,554249,122.26404441703917,385.0112943693083
12:21:15.558236,558236,122.45614397382143,48.18147900232079
12:21:15.562239,562239,123.03735108822684,145.19288393840017
12:21:15.566247,566247,123.89858537429888,214.87881389022783
12:21:15.570259,570259,124.37350367623708,118.37445212816627
12:21:15.575208,575208,124.45296096510754,16.055221028583123
12:21:15.579210,579210,123.65341138205049,199.7875020132542
12:21:15.583208,583208,124.28726411243426,158.5424538228527
12:21:15.587246,587246,124.68772827765551,99.17388935642677
12:21:15.591211,591211,125.27280560990954,147.56048732762437
12:21:15.595210,595210,124.5092156379498,190.94522929726085
12:21:15.600208,600208,124.68555029321632,35.281043470694215
12:21:15.604259,604259,124.556870757037,31.764881801856234
12:21:15.608246,608246,125.35454050001859,200.0676556261808
12:21:15.612246,612246,125.79855400790821,111.00337697240548
12:21:15.616247,616247,126.4594863332391,165.19178338687578
12:21:15.621211,621211,125.57295797791318,178.59153008177313
12:21:15.625207,625207,127.37625604357733,451.275792208246
12:21:15.629247,629247,129.0783162090375,421.3020211535068
12:21:15.633211,633211,129.4584897049883,95.90653278274462
12:21:15.637211,637211,127.53607509456184,480.6036526066144
12:21:15.641256,641256,131.2132137127397,909.057754802933
12:21:15.645257,645257,130.69875046649133,128.5836656456807
12:21:15.650207,650207,131.63560043663657,189.26262023136002
12:21:15.654246,654246,132.49107331423502,211.80313879635023
12:21:15.658248,658248,130.193180801373,574.1860351979096
12:21:15.662250,662250,130.65289121798523,114.87016906852553
12:21:15.666248,666248,131.8988846648542,311.65418881164715
12:21:15.671212,671212,129.96312209455542,389.9602276991897
12:21:15.675210,675210,129.77318028148883,47.509207870580845
12:21:15.679246,679246,129.98249655011344,51.86230639856408
12:21:15.683247,683247,129.7345076523274,61.981729014253894
12:21:15.687247,687247,127.4765136939349,564.498489598126
12:21:15.691258,691258,128.87544091710353,348.7726809196278
12:21:15.696207,696207,128.57706395733015,60.290353560997836
12:21:15.700207,700207,130.53796071873668,490.22419035163267
12:21:15.704247,704247,129.51862297547163,252.31132259036013
12:21:15.708247,708247,128.1524782788034,341.53617416706084
12:21:15.712244,712244,126.99768865338075,288.9140919246028
12:21:15.716249,716249,127.04010077767941,10.589793832375623
12:21:15.721210,721210,128.19005615067235,231.7991076381646
12:21:15.725214,725214,127.91540505483317,68.5941797800138
12:21:15.729246,729246,127.68697937884365,56.653193449783515
12:21:15.733258,733258,127.41630581802472,67.465992228046
12:21:15.737246,737246,125.02896481440075,598.6311443390103
12:21:15.741246,741246,126.51518874361683,371.5559823040202
12:21:15.746207,746207,126.89015138838701,75.58206909296081
12:21:15.750213,750213,126.91757229204424,6.84495847659265
12:21:15.754208,754208,125.97574031265806,235.75268570367453
12:21:15.758247,758247,128.9528093635252,737.0807256417785
12:21:15.762249,762249,127.01462430735832,484.3041119857288
12:21:15.766248,766248,128.10937241908823,273.7554667991781
12:21:15.771208,771208,128.95145692795086,169.77510259327147
12:21:15.775214,775214,128.98983741594645,9.580750872590118
12:21:15.779246,779246,128.46307338972778,130.64583983598007
12:21:15.783211,783211,127.27072420020603,300.7185849991802
12:21:15.787209,787209,128.23774705747027,241.87665264238123
12:21:15.791250,791250,128.14385775223215,23.234176005474332
12:21:15.796208,796208,128.35160754405277,41.90193461488861
12:21:15.800207,800207,130.33679884616032,496.4219310096404
12:21:15.804262,804262,128.54957317789712,440.74615740153007
12:21:15.808209,808209,129.46628134383204,232.25441244867514
12:21:15.812258,812258,127.46915440319273,493.23955066418995
12:21:15.816208,816208,127.53072747681907,15.588119905401129
12:21:15.820206,820206,127.09263096180175,109.57891821343699
12:21:15.825206,825206,127.92109314893759,165.69243742716822
12:21:15.829206,829206,126.75075069683957,292.585613024503
12:21:15.833245,833245,128.30778155800022,385.49909907418686
12:21:15.837210,837210,128.40668960284214,24.945282431757928
12:21:15.841246,841246,127.4117174294258,246.5243244341747
12:21:15.846207,846207,126.51783646951787,180.1816085281056
12:21:15.850207,850207,125.37501115727864,285.7063280598098
12:21:15.854213,854213,125.54968202249233,43.60231283417344
12:21:15.858210,858210,126.41230750088572,215.81823327330076
12:21:15.862246,862246,125.52395590817748,220.10693575526088
12:21:15.866247,866247,125.00823969011766,128.89683030737865
12:21:15.871209,871209,125.91839513716653,183.4251203242372
12:21:15.875208,875208,126.45945546179766,135.2989058842542
12:21:15.879258,879258,128.8678506360069,594.6654751133908
12:21:15.883210,883210,128.5680882249605,75.85081251174131
12:21:15.887247,887247,127.88659600745667,168.8115475610147
12:21:15.891210,891210,125.82951423661031,519.0718573924719
12:21:15.895247,895247,127.2919428415685,362.25628064359455
12:21:15.900207,900207,125.41479674441092,378.456874426931
12:21:15.904250,904250,126.26404615192018,210.05426849103694
12:21:15.908257,908257,125.12250917108778,284.8856952414272
12:21:15.912210,912210,125.15339520809432,7.8133157112418195
12:21:15.916236,916236,124.66170712639554,122.12818720784469
12:21:15.921209,921209,125.13930442193711,96.03806465746452
12:21:15.925209,925209,125.8527632005691,178.3646946579971
12:21:15.929211,929211,125.23985173574214,153.15129056146048
12:21:15.933211,933211,122.0257917440189,803.514997930808
12:21:15.937247,937247,123.39615688508793,339.53546607260404
12:21:15.941256,941256,121.85143318264261,385.3139691806746
12:21:15.946207,946207,123.28877534454614,290.3135047270309
12:21:15.950208,950208,121.7888407888975,374.88991643305076
12:21:15.954249,954249,121.82906220707262,9.953332881742618
12:21:15.958247,958247,123.09913604282085,317.6772975858482
12:21:15.962247,962247,124.4845169918804,346.34523726488806
12:21:15.966250,966250,125.26431129300431,194.8024734259091
12:21:15.971211,971211,125.29353088109995,5.889858515549835
12:21:15.975210,975210,125.45449432294211,40.25092319133693
12:21:15.979210,979210,123.81028028455684,411.0535095963179
12:21:15.983223,983223,121.40197273049023,600.1264774648917
12:21:15.987247,987247,120.78723535180364,152.7677382421929
12:21:15.991210,991210,121.18422312192392,100.17354784765989
12:21:15.996207,996207,121.6934152120799,101.89955776585501
12:21:16.000208,000208,121.23103888015628,0.46423373108167965
12:21:16.004247,004247,118.97323524404017,559.000652665538
12:21:16.008249,008249,118.13593684877098,209.21998882288526
12:21:16.012252,012252,116.20135952535038,483.2818694530597
12:21:16.016249,016249,116.12768182435254,18.43325018710238
12:21:16.020248,020248,116.3795171023225,62.97456313327326
12:21:16.025211,025211,118.64045421167145,455.55855517810966
12:21:16.029246,029246,116.88611719312088,434.77993024797325
12:21:16.033207,033207,119.4221811183398,640.2585016962665
12:21:16.037210,037210,121.07604890790684,413.15707958207463
12:21:16.041257,041257,121.64962411491986,141.72849197257764
12:21:16.046207,046207,122.60118301542384,192.2341213139359
12:21:16.050211,050211,123.80161781685361,299.80889146597525
12:21:16.054209,054209,125.16422538773597,340.82230387252645
12:21:16.058210,058210,124.73337359601565,107.68602642347281
12:21:16.062237,062237,125.20482633441978,117.07294224090506
12:21:16.066238,066238,123.60496062483607,399.8664607807324
12:21:16.071208,071208,122.7784913186535,166.29161090192633
12:21:16.075206,075206,120.59123117926649,547.0885791363199
12:21:16.079236,079236,121.74005924827706,285.06899975448556
12:21:16.083236,083236,122.58611842786453,211.51479489686764
12:21:16.087210,087210,121.61585783496346,244.15213711652495
12:21:16.091210,091210,123.5418489156734,481.49777017748363
12:21:16.095209,095209,125.97978329846403,609.6360046988322
12:21:16.100208,100208,123.65779062921466,464.491432136301
12:21:16.104246,104246,123.0769196670255,143.8511545787896
12:21:16.108247,108247,124.27156791388865,298.5874148620692
12:21:16.112243,112243,123.35557676578385,229.22701404023877
12:21:16.116210,116210,122.65759187833933,175.94779113801854
12:21:16.121208,121208,123.24713730393705,117.95626762659462
12:21:16.125209,125209,122.57561761640838,167.83796239157016
12:21:16.129233,129233,122.86825171385583,72.72219121457432
12:21:16.133247,133247,124.15846091265702,321.4273041358229
12:21:16.137207,137207,122.22850029609816,487.3637920603178
12:21:16.141246,141246,121.64038287266433,145.60966165729855
12:21:16.146211,146211,122.17103172675411,106.87791623157624
12:21:16.150210,150210,122.78375321512284,153.21867676137396
12:21:16.154234,154234,123.60388110694869,203.80911824698015
12:21:16.158237,158237,123.31157926038425,73.0206961190212
12:21:16.162237,162237,122.22108018791849,272.6247681164402
12:21:16.166235,166235,122.32286110599529,25.45795849844881
12:21:16.171208,171208,122.73692481335166,83.2623582055855
12:21:16.175209,175209,123.43418332414173,174.2710599325329
12:21:16.179233,179233,124.93493788060778,372.95093351541976
12:21:16.183206,183206,123.78893207616287,288.448478340023
12:21:16.187206,187206,122.78436531757083,251.14168964800854
12:21:16.191207,191207,123.43064775392926,161.53022653297504
12:21:16.195206,195206,123.5759896859262,36.34456914152
12:21:16.200207,200207,122.89614606038317,135.94153680124552
12:21:16.204207,204207,122.86057987475222,8.891546407738815
12:21:16.208206,208206,123.57467299353287,178.56792167558214
12:21:16.212209,212209,124.48936188267383,228.50084665025275
12:21:16.216246,216246,124.44220334099553,11.6815807972009
12:21:16.221208,221208,124.11367056420073,66.20974945481697
12:21:16.225210,225210,124.06506193664572,12.146083846829624
12:21:16.229210,229210,126.37409695269835,577.2587540131582
12:21:16.233210,233210,126.19697065015119,44.28157563679136
12:21:16.237246,237246,127.8866150847407,418.6433187783723
12:21:16.241247,241247,125.86931240455947,504.1996201402727
12:21:16.246212,246212,126.58359065008162,143.86268791986953
12:21:16.250209,250209,125.12053815628676,366.0376516874812
12:21:16.254210,254210,125.3426851976261,55.522879614931384
12:21:16.258258,258258,125.01364208649707,81.2853535397788
12:21:16.262210,262210,124.83598497272875,44.95372311951396
12:21:16.266235,266235,124.40806972947199,106.31434615074852
12:21:16.271214,271214,123.8420048281985,113.69048027184017
12:21:16.275208,275208,125.66653300157226,456.81726924731197
12:21:16.279240,279240,125.95417147087848,71.33890607793066
12:21:16.283238,283238,124.84315457100716,277.8931715536059
12:21:16.287211,287211,124.58004388715369,66.224687604699
12:21:16.291210,291210,127.59916214162612,754.9683056945315
12:21:16.296209,296209,127.25232704517272,69.38089546977474
12:21:16.300209,300209,128.74980882283106,374.3704444145841
12:21:16.304237,304237,129.1572795167391,101.15955658094303
12:21:16.308210,308210,129.77230807704828,154.80205394140057
12:21:16.312207,312207,131.01708359865464,311.42745098983164
12:21:16.316234,316234,131.22048565198656,50.50957371043651
12:21:16.321209,321209,130.47502207912873,149.84192419252855
12:21:16.325208,325208,129.64331492186935,207.97878401084958
12:21:16.329257,329257,130.0300185616312,95.50596190710348
12:21:16.333208,333208,129.26432025218946,193.79861033706547
12:21:16.337247,337247,126.78009581795098,615.0592805740243
12:21:16.341258,341258,126.90921168060234,32.19044194748459
12:21:16.346212,346212,127.10641918054131,39.807731114043
12:21:16.350210,350210,127.7377439531819,157.9101482342662
12:21:16.354258,354258,128.092792498949,87.70962098989382
12:21:16.358211,358211,128.8791983270626,198.93899016281333
12:21:16.362257,362257,127.70026559716487,291.38228618332283
12:21:16.366259,366259,127.57238236218313,31.954831329769565
12:21:16.371208,371208,128.70495016848895,228.84780891206603
12:21:16.375211,375211,127.51219815462161,297.9645300692817
12:21:16.379252,379252,128.47221745870513,237.5697362245772
12:21:16.383246,383246,128.96657210486336,123.7743230240933
12:21:16.387209,387209,126.81776646939964,542.2169153327571
12:21:16.391246,391246,128.1608626823628,332.6966096019685
12:21:16.396209,396209,127.54660959036792,123.7664904281419
12:21:16.400210,400210,127.45453476463514,23.01295319489631
12:21:16.404235,404235,127.60829324137583,38.200863786507135
12:21:16.408237,408237,127.70056213965616,23.05569672172006
12:21:16.412233,412233,127.71548642527999,3.7348062121708008
12:21:16.416207,416207,127.73046645504947,3.7695092525101463
12:21:16.420234,420234,127.24001062119066,121.79186338683962
12:21:16.425209,425209,124.5731597797535,536.0504203893803
12:21:16.429233,429233,124.61212125863426,9.682276063808361
12:21:16.433207,433207,124.60669917235121,1.3643901064538584
12:21:16.437247,437247,124.81543411144199,51.66706413137987
12:21:16.441246,441246,123.22997581600967,396.4636897805246
12:21:16.446209,446209,123.14649215436535,16.82120927751816
12:21:16.450210,450210,122.40726544783031,184.7604865121308
12:21:16.454246,454246,123.51809191414908,275.2295506240758
12:21:16.458246,458246,122.34069761366096,294.3485751220294
12:21:16.462210,462210,122.70364447569737,91.56076237043628
12:21:16.466207,466207,124.7767258659701,518.6593420747395
12:21:16.471209,471209,126.23406545293186,291.3513768416136
12:21:16.475207,475207,123.47833785968089,689.2765365810322
12:21:16.479247,479247,125.78449316805539,570.8305218748761
12:21:16.483250,483250,124.3839858141779,349.86444013926723
12:21:16.487211,487211,126.16144219021324,448.7393022053349
12:21:16.491256,491256,124.40720305233611,433.6808746296963
12:21:16.496212,496212,124.80916222626645,81.10556374704126
12:21:16.500209,500209,123.57725529736165,308.2078881423082
12:21:16.504245,504245,123.5449703966337,7.9992320931477785
12:21:16.508246,508246,121.60849521948352,483.99779483883674
12:21:16.512246,512246,121.96462500639194,89.03244672710642
12:21:16.516236,516236,120.34586614082335,405.7039763329811
12:21:16.521209,521209,120.22893230902646,23.51374055839234
12:21:16.525208,525208,121.05165878871405,205.73305318519346
