EMG 1,EMG 2,EMG 3,EMG 4,EMG 5,EMG 6,EMG 7,EMG 8,Timestamp,Milliseconds
-2,-1,-3,-1,-2,-1,-1,-3,2021-08-07 12:15:24,858403
2,1,1,0,-3,-2,0,0,2021-08-07 12:15:24,858403
-4,-4,-2,1,-2,-3,-2,-3,2021-08-07 12:15:24,858403
-4,-3,-2,-6,-6,-4,-3,-1,2021-08-07 12:15:24,858403
5,5,2,0,0,3,3,4,2021-08-07 12:15:24,858403
-2,-3,-4,-7,-3,-2,-3,-1,2021-08-07 12:15:24,858403
-4,-3,-1,2,-1,-2,-2,-3,2021-08-07 12:15:24,858403
0,0,1,-2,-1,-2,-2,-2,2021-08-07 12:15:24,858403
1,2,-1,2,1,0,3,1,2021-08-07 12:15:24,858403
0,-2,-3,-2,2,2,1,-1,2021-08-07 12:15:24,858403
1,3,5,6,5,2,0,-1,2021-08-07 12:15:24,874402
-6,-8,-8,-8,-10,-6,-6,-3,2021-08-07 12:15:24,874402
1,1,2,-2,4,4,3,3,2021-08-07 12:15:24,874402
4,6,8,10,5,4,2,3,2021-08-07 12:15:24,874402
-2,-5,-6,-9,-6,-5,-3,-2,2021-08-07 12:15:24,890403
0,2,5,10,11,5,2,-1,2021-08-07 12:15:24,890403
-4,-5,-6,-11,-11,-9,-6,-4,2021-08-07 12:15:24,906405
-1,0,-2,-5,-4,-3,1,-1,2021-08-07 12:15:24,906405
-1,-2,-4,-11,-8,-5,-5,-1,2021-08-07 12:15:24,922405
3,3,3,9,8,4,2,1,2021-08-07 12:15:24,938646
-1,-3,-1,4,0,0,0,0,2021-08-07 12:15:24,938646
-5,-5,-2,-2,-4,-2,-2,-3,2021-08-07 12:15:24,938646
-4,-3,-3,-4,-4,-4,-3,-3,2021-08-07 12:15:24,938646
-1,1,-1,-5,-1,0,1,1,2021-08-07 12:15:24,938646
13,17,11,9,14,12,7,7,2021-08-07 12:15:24,970404
1,1,0,6,7,2,2,0,2021-08-07 12:15:24,970404
-1,-2,-2,-1,0,0,0,-2,2021-08-07 12:15:24,986404
-3,-5,-5,-6,-8,-4,-2,-4,2021-08-07 12:15:25,002404
-1,-2,6,12,3,0,-2,-1,2021-08-07 12:15:25,002404
1,-1,1,-2,2,2,-1,0,2021-08-07 12:15:25,002404
3,3,0,-5,-3,-2,0,1,2021-08-07 12:15:25,002404
-2,-4,-6,-3,-7,-4,-3,-3,2021-08-07 12:15:25,002404
-3,-4,-5,-9,-8,-5,-4,-2,2021-08-07 12:15:25,002404
0,2,0,1,2,1,-1,-1,2021-08-07 12:15:25,003404
0,-1,1,2,0,0,-1,-1,2021-08-07 12:15:25,003404
1,2,3,5,10,4,1,1,2021-08-07 12:15:25,003404
-4,-5,-6,-4,-7,-7,-2,-3,2021-08-07 12:15:25,003404
0,0,1,3,1,0,0,0,2021-08-07 12:15:25,003404
-1,1,1,0,0,0,1,1,2021-08-07 12:15:25,034405
2,5,3,-2,-6,-3,1,1,2021-08-07 12:15:25,050405
-5,-7,-7,-5,0,-3,-3,-4,2021-08-07 12:15:25,050405
-4,-5,-4,-2,-5,-3,-2,-3,2021-08-07 12:15:25,050405
4,5,7,11,9,6,2,1,2021-08-07 12:15:25,050405
-1,2,3,2,-3,-1,0,0,2021-08-07 12:15:25,050405
-3,-3,-2,-3,-2,-4,-3,-1,2021-08-07 12:15:25,050405
-1,-3,0,-1,-1,1,2,0,2021-08-07 12:15:25,050405
-2,-3,-5,-2,1,0,-2,-1,2021-08-07 12:15:25,062404
-1,-4,-3,-7,0,-1,-1,-1,2021-08-07 12:15:25,062404
-1,0,2,8,3,2,1,-2,2021-08-07 12:15:25,082407
-2,-3,-5,-12,-10,-6,-2,-3,2021-08-07 12:15:25,082407
2,3,6,7,8,5,3,2,2021-08-07 12:15:25,082407
-2,-3,-3,-4,3,0,-3,-3,2021-08-07 12:15:25,082407
-1,-1,4,8,1,0,-1,-1,2021-08-07 12:15:25,082407
-1,-1,-4,-7,-9,-3,-4,-1,2021-08-07 12:15:25,082407
0,-1,0,2,3,1,1,1,2021-08-07 12:15:25,113405
3,5,1,-4,-5,-2,-1,1,2021-08-07 12:15:25,129402
-1,-1,-4,-9,-3,-3,-3,-2,2021-08-07 12:15:25,129402
-4,-2,-2,-1,-2,-2,-3,-2,2021-08-07 12:15:25,145402
1,0,-2,-4,-8,-3,-1,-2,2021-08-07 12:15:25,145402
-1,-1,2,9,9,2,0,-1,2021-08-07 12:15:25,145402
-4,-5,-5,-9,-7,-4,-3,-3,2021-08-07 12:15:25,145402
-1,0,-1,-1,1,-1,0,0,2021-08-07 12:15:25,145402
-2,-2,-3,-4,-7,-3,-5,-1,2021-08-07 12:15:25,146404
0,0,-1,-3,-2,0,1,0,2021-08-07 12:15:25,146404
-1,-4,-2,-2,2,1,-2,-2,2021-08-07 12:15:25,146404
-3,-3,-3,-6,-9,-5,-4,-2,2021-08-07 12:15:25,146404
-2,-3,-1,-5,-1,-1,-1,-2,2021-08-07 12:15:25,177404
2,1,5,13,11,5,2,2,2021-08-07 12:15:25,177404
1,1,-2,-8,-9,-4,-1,1,2021-08-07 12:15:25,177404
-2,-2,-5,-8,0,0,-3,-1,2021-08-07 12:15:25,177404
1,3,4,13,3,3,1,1,2021-08-07 12:15:25,177404
-4,-7,-8,-12,-9,-5,-5,-2,2021-08-07 12:15:25,177404
4,4,4,7,6,4,1,0,2021-08-07 12:15:25,193405
0,-2,-1,-8,-9,-6,-5,-1,2021-08-07 12:15:25,209403
-1,1,-2,-5,-2,0,1,1,2021-08-07 12:15:25,209403
-2,-1,3,12,10,4,-1,-2,2021-08-07 12:15:25,209403
-2,-2,-2,-1,2,1,0,0,2021-08-07 12:15:25,209403
1,2,1,3,1,-1,1,0,2021-08-07 12:15:25,209403
-5,-6,-10,-14,-11,-8,-6,-5,2021-08-07 12:15:25,241403
6,8,8,10,7,4,4,4,2021-08-07 12:15:25,257403
1,0,-1,2,0,0,-1,0,2021-08-07 12:15:25,273404
0,1,0,5,3,1,0,-1,2021-08-07 12:15:25,273404
-2,-4,-2,1,3,-2,-2,-1,2021-08-07 12:15:25,273404
-3,-4,-7,-11,-13,-8,-5,-3,2021-08-07 12:15:25,273404
-6,-6,-8,-15,-22,-12,-7,-4,2021-08-07 12:15:25,273404
3,5,6,14,31,18,9,8,2021-08-07 12:15:25,273404
1,2,6,9,5,3,1,1,2021-08-07 12:15:25,274407
-2,-1,-3,-3,-5,-2,0,-1,2021-08-07 12:15:25,274407
-3,-4,-4,-7,-7,-5,-3,-4,2021-08-07 12:15:25,274407
1,1,2,-1,-9,-4,-2,0,2021-08-07 12:15:25,274407
-1,-2,-6,-9,-6,-4,-2,-2,2021-08-07 12:15:25,289404
1,1,4,9,13,6,2,0,2021-08-07 12:15:25,289404
-2,-2,-1,2,4,1,0,-2,2021-08-07 12:15:25,289404
-1,-3,-2,-2,-4,-3,0,0,2021-08-07 12:15:25,289404
1,1,1,2,2,1,1,-1,2021-08-07 12:15:25,304402
-3,-2,-4,-9,-10,-6,-2,-1,2021-08-07 12:15:25,320403
-1,0,0,-1,5,0,-1,2,2021-08-07 12:15:25,320403
0,-1,1,4,2,1,0,0,2021-08-07 12:15:25,320403
0,1,0,-3,-4,-3,-1,-1,2021-08-07 12:15:25,320403
-5,-4,-5,-10,-9,-6,-3,-3,2021-08-07 12:15:25,320403
-2,-4,-6,-4,4,3,0,-3,2021-08-07 12:15:25,336402
1,4,2,6,2,2,1,0,2021-08-07 12:15:25,336402
-1,-1,0,7,1,-1,-1,-1,2021-08-07 12:15:25,352403
-4,-4,-5,-6,-4,-2,-1,-2,2021-08-07 12:15:25,368405
3,5,4,1,-1,-2,-1,1,2021-08-07 12:15:25,368405
0,0,0,0,1,2,1,-3,2021-08-07 12:15:25,368405
-2,-4,-3,-4,-2,-1,-1,-2,2021-08-07 12:15:25,368405
-2,-3,-1,5,5,2,0,-2,2021-08-07 12:15:25,368405
-4,-5,-4,-4,-4,-4,-1,0,2021-08-07 12:15:25,368405
3,5,5,3,-1,1,3,3,2021-08-07 12:15:25,369404
-2,-3,-1,-1,0,0,-1,1,2021-08-07 12:15:25,400403
1,1,-1,-2,-5,-3,-2,0,2021-08-07 12:15:25,400403
-2,0,-1,-2,-1,0,-1,-2,2021-08-07 12:15:25,416405
-4,-4,-3,1,5,-1,-2,-3,2021-08-07 12:15:25,432402
-4,-6,-9,-11,-7,-4,-3,-4,2021-08-07 12:15:25,448404
8,10,11,13,10,8,6,5,2021-08-07 12:15:25,448404
0,0,0,-2,-5,-2,-1,0,2021-08-07 12:15:25,448404
-1,-1,0,3,3,0,-3,0,2021-08-07 12:15:25,448404
-1,-5,-3,-7,-5,-2,-1,-2,2021-08-07 12:15:25,448404
-2,-3,-3,-4,-3,-3,-4,-3,2021-08-07 12:15:25,464404
-1,-1,0,2,-1,-1,-1,-3,2021-08-07 12:15:25,480402
0,-1,-2,-6,-9,-4,-2,0,2021-08-07 12:15:25,480402
0,2,4,4,10,4,2,0,2021-08-07 12:15:25,480402
-1,-3,-4,-3,-5,-3,-3,-1,2021-08-07 12:15:25,480402
0,-3,-1,1,3,2,1,0,2021-08-07 12:15:25,480402
-2,-2,-4,-4,-6,-3,-1,-1,2021-08-07 12:15:25,480402
-2,0,-1,-2,-4,-3,-2,-3,2021-08-07 12:15:25,480402
-1,0,-3,-10,-11,-5,-2,0,2021-08-07 12:15:25,496404
2,1,0,8,6,1,0,0,2021-08-07 12:15:25,496404
1,1,0,2,4,3,2,1,2021-08-07 12:15:25,496404
2,4,5,11,10,6,1,2,2021-08-07 12:15:25,496404
-2,-2,-2,0,-1,-2,0,-3,2021-08-07 12:15:25,510405
-2,-8,-9,-12,-9,-4,-2,-2,2021-08-07 12:15:25,510405
-2,-4,-7,-11,-8,-6,-3,-2,2021-08-07 12:15:25,511404
-1,-1,-1,-3,-2,1,0,0,2021-08-07 12:15:25,511404
-7,-6,-4,-9,-8,-5,-5,-5,2021-08-07 12:15:25,511404
-1,3,1,3,4,1,-2,0,2021-08-07 12:15:25,511404
1,3,9,16,16,10,1,-1,2021-08-07 12:15:25,511404
1,1,2,1,-4,-1,-2,0,2021-08-07 12:15:25,528403
-2,-4,-5,-1,-1,-1,-3,-3,2021-08-07 12:15:25,528403
2,3,1,-4,-6,-4,-1,3,2021-08-07 12:15:25,528403
-1,-3,-3,-7,-6,-5,-1,0,2021-08-07 12:15:25,528403
-1,-2,-4,0,-3,-3,0,0,2021-08-07 12:15:25,544402
2,3,3,8,9,5,4,3,2021-08-07 12:15:25,559404
-2,-3,-2,-4,-3,-2,-1,-2,2021-08-07 12:15:25,591404
-2,0,-1,-5,-11,-7,-2,-1,2021-08-07 12:15:25,591404
2,2,2,2,3,2,0,1,2021-08-07 12:15:25,591404
-2,-4,-4,-7,-3,-4,-1,-3,2021-08-07 12:15:25,591404
-1,1,4,7,13,9,1,-1,2021-08-07 12:15:25,591404
-1,0,1,2,-2,-1,-3,0,2021-08-07 12:15:25,591404
-6,-7,-10,-13,-13,-9,-5,-3,2021-08-07 12:15:25,592405
2,4,2,1,1,0,0,0,2021-08-07 12:15:25,592405
0,2,5,10,6,3,1,1,2021-08-07 12:15:25,607404
-5,-7,-9,-15,-16,-9,-5,-6,2021-08-07 12:15:25,607404
1,3,9,17,16,9,4,-1,2021-08-07 12:15:25,607404
0,-1,-6,-10,-7,-3,-3,-1,2021-08-07 12:15:25,607404
3,4,5,10,10,6,3,1,2021-08-07 12:15:25,607404
-4,-4,-5,-1,-2,-2,-4,-3,2021-08-07 12:15:25,607404
1,3,0,1,-2,-1,-1,0,2021-08-07 12:15:25,638403
-2,-3,-3,-4,-3,-3,-2,-4,2021-08-07 12:15:25,654404
-1,0,-3,-8,-7,-4,-2,-2,2021-08-07 12:15:25,670403
-1,-1,-2,-1,-3,-3,-2,-1,2021-08-07 12:15:25,670403
-1,-1,-1,-7,-8,-4,-2,-1,2021-08-07 12:15:25,670403
-2,-1,1,2,0,1,-1,-1,2021-08-07 12:15:25,670403
0,-1,1,3,3,-1,1,0,2021-08-07 12:15:25,670403
4,3,3,9,13,7,6,2,2021-08-07 12:15:25,671404
-5,-6,-7,-6,-5,-4,-4,-3,2021-08-07 12:15:25,671404
3,5,8,10,6,4,1,3,2021-08-07 12:15:25,671404
-5,-7,-7,-10,-16,-8,-5,-5,2021-08-07 12:15:25,686403
5,6,7,7,6,4,3,5,2021-08-07 12:15:25,702405
3,3,4,8,7,3,2,0,2021-08-07 12:15:25,718405
-4,-5,-4,-6,-3,-2,-2,-2,2021-08-07 12:15:25,734431
-2,-3,-4,-4,-4,-3,1,-2,2021-08-07 12:15:25,734431
0,1,3,1,-1,-1,0,-1,2021-08-07 12:15:25,734431
-4,-4,-8,-16,-13,-8,-6,-4,2021-08-07 12:15:25,734431
-3,-5,-5,-5,-6,-5,-1,-4,2021-08-07 12:15:25,750430
6,9,10,18,20,11,7,5,2021-08-07 12:15:25,766431
-2,-3,-2,6,5,2,0,-2,2021-08-07 12:15:25,782428
-1,-2,-2,-1,-3,-2,-2,-2,2021-08-07 12:15:25,798431
-2,-3,-5,-5,-6,-3,-3,-1,2021-08-07 12:15:25,814431
-2,-2,-4,-14,-15,-9,-4,-2,2021-08-07 12:15:25,829430
0,2,1,-1,4,4,2,2,2021-08-07 12:15:25,829430
-1,-2,-1,4,6,2,0,-1,2021-08-07 12:15:25,829430
0,2,3,6,6,3,0,0,2021-08-07 12:15:25,829430
0,-1,-2,-1,-5,-2,0,0,2021-08-07 12:15:25,829430
1,3,-1,-6,-6,-5,0,-1,2021-08-07 12:15:25,829430
-1,-1,1,0,-3,-2,0,0,2021-08-07 12:15:25,830430
-1,-1,-2,-2,-1,-2,-1,0,2021-08-07 12:15:25,830430
-6,-7,-8,-14,-12,-8,-6,-5,2021-08-07 12:15:25,830430
-1,-3,3,9,7,5,2,0,2021-08-07 12:15:25,830430
3,2,1,1,6,6,5,3,2021-08-07 12:15:25,830430
2,1,4,7,8,3,2,1,2021-08-07 12:15:25,830430
-1,-1,-1,1,-4,0,-1,-1,2021-08-07 12:15:25,830430
-4,-6,-7,-13,-9,-5,-4,-3,2021-08-07 12:15:25,830430
-2,-4,-3,-3,-1,-3,-4,-3,2021-08-07 12:15:25,831430
-1,2,2,2,-1,0,-1,0,2021-08-07 12:15:25,831430
-2,-3,-7,-10,-5,-3,-1,0,2021-08-07 12:15:25,831430
-4,-6,-7,-8,-12,-6,-5,-4,2021-08-07 12:15:25,831430
5,9,11,9,7,5,4,5,2021-08-07 12:15:25,831430
0,0,-2,-2,2,0,1,0,2021-08-07 12:15:25,831430
0,-1,2,9,9,3,1,0,2021-08-07 12:15:25,831430
-3,-4,-4,-6,-9,-5,-2,-4,2021-08-07 12:15:25,831430
-3,-3,-3,-8,-8,-8,-4,-3,2021-08-07 12:15:25,861429
-2,-2,-1,-1,-1,-1,0,-2,2021-08-07 12:15:25,861429
2,3,2,3,4,3,2,1,2021-08-07 12:15:25,861429
-2,-2,-1,0,-1,-4,-1,-2,2021-08-07 12:15:25,861429
-1,-1,-3,-6,-3,0,-1,-2,2021-08-07 12:15:25,861429
-1,-1,-1,-5,-4,-3,-3,-2,2021-08-07 12:15:25,861429
-2,0,0,2,3,2,-2,0,2021-08-07 12:15:25,861429
-1,0,-1,-3,-4,-1,-1,2,2021-08-07 12:15:25,862431
2,0,-2,-2,-1,-1,1,2,2021-08-07 12:15:25,892430
1,3,5,8,9,4,2,1,2021-08-07 12:15:25,892430
0,-3,-2,-3,-2,0,-3,-1,2021-08-07 12:15:25,892430
0,1,0,4,1,1,-1,0,2021-08-07 12:15:25,892430
-3,-5,-4,-5,-5,-3,-3,-1,2021-08-07 12:15:25,923429
-4,-8,-8,-10,-6,-4,-2,-2,2021-08-07 12:15:25,923429
5,7,5,5,-1,-2,1,3,2021-08-07 12:15:25,923429
0,-2,-8,-19,-16,-9,-4,0,2021-08-07 12:15:25,923429
-1,1,8,27,26,9,3,-2,2021-08-07 12:15:25,923429
-1,-2,-3,-2,-4,-2,-2,-3,2021-08-07 12:15:25,923429
-3,-4,-2,2,2,1,-1,-1,2021-08-07 12:15:25,954948
-2,0,1,1,-2,-3,-2,-2,2021-08-07 12:15:25,954948
-4,-3,-6,-13,-13,-7,-1,-2,2021-08-07 12:15:25,970947
-2,-3,-5,-6,-4,-2,-3,-3,2021-08-07 12:15:25,970947
-1,-3,-1,2,1,1,-2,-3,2021-08-07 12:15:25,970947
-1,2,2,2,3,3,0,0,2021-08-07 12:15:25,970947
0,1,-3,-4,-7,-3,-3,-1,2021-08-07 12:15:25,970947
-3,-3,-2,-2,-1,-1,-2,-3,2021-08-07 12:15:25,970947
-1,1,-2,-4,-2,0,2,0,2021-08-07 12:15:25,971948
4,4,4,8,12,6,4,4,2021-08-07 12:15:25,971948
-1,-2,-1,3,-1,-2,-1,-3,2021-08-07 12:15:26,002974
2,2,1,1,-3,-2,0,0,2021-08-07 12:15:26,002974
-5,-6,-6,-5,-4,-5,-4,-6,2021-08-07 12:15:26,002974
-3,-2,-3,2,-2,-1,-1,-1,2021-08-07 12:15:26,002974
1,0,0,-3,-4,-3,-2,-1,2021-08-07 12:15:26,002974
1,1,0,0,-1,1,0,-1,2021-08-07 12:15:26,002974
3,3,3,3,5,4,3,1,2021-08-07 12:15:26,018949
-1,1,3,11,10,3,1,-2,2021-08-07 12:15:26,018949
0,-6,-11,-23,-23,-10,-4,-2,2021-08-07 12:15:26,034987
-1,0,4,11,9,3,1,1,2021-08-07 12:15:26,034987
-1,-2,3,7,4,-1,-2,-3,2021-08-07 12:15:26,034987
-2,-4,-4,-6,-3,-2,-2,-1,2021-08-07 12:15:26,034987
-4,-2,0,1,0,0,0,-2,2021-08-07 12:15:26,066951
-2,-3,-2,-9,-9,-6,-1,-1,2021-08-07 12:15:26,066951
0,-1,-3,-5,-4,-2,-1,3,2021-08-07 12:15:26,082948
1,-1,1,0,0,0,-1,-1,2021-08-07 12:15:26,114988
-3,-2,-2,-5,-5,-2,-3,-2,2021-08-07 12:15:26,114988
-2,-3,-4,-1,1,1,-2,-1,2021-08-07 12:15:26,114988
0,3,1,-3,-6,-3,-1,1,2021-08-07 12:15:26,130950
0,1,2,1,9,6,3,1,2021-08-07 12:15:26,130950
1,2,3,12,8,6,1,1,2021-08-07 12:15:26,130950
-1,0,0,3,0,0,0,0,2021-08-07 12:15:26,130950
-2,-5,-5,-7,-5,-1,-2,-4,2021-08-07 12:15:26,130950
-2,-3,-5,-8,-9,-4,-2,-2,2021-08-07 12:15:26,130950
4,9,7,6,6,1,3,5,2021-08-07 12:15:26,130950
-4,-5,-3,-3,-3,-2,-3,-3,2021-08-07 12:15:26,130950
-3,-4,-4,-8,-11,-6,-4,-2,2021-08-07 12:15:26,130950
3,4,5,14,13,7,3,0,2021-08-07 12:15:26,130950
-3,-6,-4,1,3,1,-1,-1,2021-08-07 12:15:26,131948
0,1,0,-2,-4,-2,-2,-1,2021-08-07 12:15:26,131948
-1,0,-3,-7,-4,-2,-2,-1,2021-08-07 12:15:26,146947
-2,-3,-5,-7,-9,-4,-2,-2,2021-08-07 12:15:26,162947
0,-1,-1,0,0,0,0,-1,2021-08-07 12:15:26,178985
1,0,4,9,10,2,1,0,2021-08-07 12:15:26,178985
1,0,0,1,2,2,1,1,2021-08-07 12:15:26,178985
-4,-5,-4,-3,-4,-4,-3,-2,2021-08-07 12:15:26,178985
1,4,-2,-10,-7,-4,0,2,2021-08-07 12:15:26,178985
1,4,2,2,-3,0,1,2,2021-08-07 12:15:26,178985
-1,0,2,9,9,4,1,0,2021-08-07 12:15:26,178985
1,2,3,3,0,0,0,0,2021-08-07 12:15:26,179947
-5,-7,-6,-6,-5,-5,-4,-4,2021-08-07 12:15:26,194947
-3,-5,-6,-10,-11,-5,-2,-2,2021-08-07 12:15:26,194947
1,4,5,9,5,2,3,1,2021-08-07 12:15:26,194947
-1,-3,-2,-2,6,1,-1,-2,2021-08-07 12:15:26,194947
-1,1,1,3,0,0,-1,0,2021-08-07 12:15:26,210951
-1,-2,-3,-2,2,1,0,0,2021-08-07 12:15:26,210951
0,0,-1,-5,-9,-4,-2,0,2021-08-07 12:15:26,210951
-2,-2,-5,-8,-7,-3,-2,-1,2021-08-07 12:15:26,210951
-2,-2,-1,1,3,-1,0,-2,2021-08-07 12:15:26,242958
1,2,0,0,-1,0,-1,0,2021-08-07 12:15:26,258948
-2,-5,-8,-9,-7,-4,-2,-1,2021-08-07 12:15:26,289950
4,4,5,8,6,3,3,1,2021-08-07 12:15:26,304947
-3,-5,-5,-7,-10,-6,-4,-3,2021-08-07 12:15:26,304947
2,2,-1,-1,3,3,2,2,2021-08-07 12:15:26,304947
-3,-1,1,3,7,1,-2,-3,2021-08-07 12:15:26,304947
-2,1,2,4,0,0,0,0,2021-08-07 12:15:26,304947
0,1,2,7,5,3,2,1,2021-08-07 12:15:26,304947
-6,-4,-4,-8,-10,-6,-5,-3,2021-08-07 12:15:26,304947
-1,2,1,1,-2,0,-3,0,2021-08-07 12:15:26,305950
-4,-4,-3,-8,-7,-5,-5,-3,2021-08-07 12:15:26,305950
-5,-7,-4,-7,-7,-5,-4,-4,2021-08-07 12:15:26,305950
6,10,7,4,5,4,3,3,2021-08-07 12:15:26,305950
-1,-3,-4,-2,-1,1,2,1,2021-08-07 12:15:26,305950
-1,1,-3,-2,-3,-1,-1,0,2021-08-07 12:15:26,305950
-1,-4,-4,-2,-2,-1,1,0,2021-08-07 12:15:26,320949
-1,-4,0,4,4,3,0,-1,2021-08-07 12:15:26,320949
-1,-1,2,8,6,3,-1,-3,2021-08-07 12:15:26,320949
-6,-4,-5,-16,-21,-11,-9,-6,2021-08-07 12:15:26,321953
2,4,5,8,10,4,0,0,2021-08-07 12:15:26,336952
1,2,3,7,6,4,1,1,2021-08-07 12:15:26,352978
-1,0,-1,-3,-2,-3,0,0,2021-08-07 12:15:26,352978
0,-2,-1,1,-1,-2,0,-1,2021-08-07 12:15:26,352978
-4,-3,-8,-14,-13,-6,-4,-1,2021-08-07 12:15:26,352978
4,6,4,5,1,0,1,1,2021-08-07 12:15:26,352978
-2,-4,-4,-5,-2,-1,1,-1,2021-08-07 12:15:26,352978
3,4,1,1,2,2,1,2,2021-08-07 12:15:26,353949
-3,-5,-1,-3,-3,-2,-1,-4,2021-08-07 12:15:26,384988
-9,-10,-8,-4,3,0,-4,-3,2021-08-07 12:15:26,384988
5,6,6,4,4,4,4,3,2021-08-07 12:15:26,384988
1,-1,2,2,3,3,1,-1,2021-08-07 12:15:26,384988
6,7,7,10,8,4,2,3,2021-08-07 12:15:26,384988
-5,-6,-4,-5,-7,-3,-1,-4,2021-08-07 12:15:26,384988
-2,-3,-6,-9,-11,-9,-3,-4,2021-08-07 12:15:26,416949
-2,-3,-1,0,0,0,-1,0,2021-08-07 12:15:26,432948
0,2,-2,-4,3,2,-1,1,2021-08-07 12:15:26,432948
-1,-2,0,3,0,-2,-1,-2,2021-08-07 12:15:26,432948
-2,-2,-2,-1,-3,-1,-1,0,2021-08-07 12:15:26,432948
0,-2,-1,0,1,-1,1,0,2021-08-07 12:15:26,432948
0,1,-1,-2,-2,0,-1,-1,2021-08-07 12:15:26,433947
-1,-1,-4,-8,-10,-6,-3,-1,2021-08-07 12:15:26,433947
0,-1,1,2,3,3,0,-2,2021-08-07 12:15:26,433947
0,-1,2,3,5,1,1,1,2021-08-07 12:15:26,433947
0,-3,-4,-5,-9,-3,-2,-1,2021-08-07 12:15:26,444949
-2,0,0,-3,2,2,1,0,2021-08-07 12:15:26,444949
-2,0,0,-1,1,-1,0,0,2021-08-07 12:15:26,464976
-1,0,1,3,-2,0,-2,-1,2021-08-07 12:15:26,464976
0,-2,0,4,1,0,-1,-3,2021-08-07 12:15:26,480946
-2,-2,-1,-6,-4,-4,-2,-2,2021-08-07 12:15:26,480946
-2,-3,-1,-5,-11,-6,-4,-2,2021-08-07 12:15:26,480946
4,7,6,9,8,5,4,5,2021-08-07 12:15:26,480946
0,-1,0,0,0,0,-1,0,2021-08-07 12:15:26,496946
-1,-3,-6,-4,-8,-5,-4,-2,2021-08-07 12:15:26,496946
-1,-2,-1,2,4,1,-1,0,2021-08-07 12:15:26,496946
-3,-2,-2,0,-1,-1,-2,-3,2021-08-07 12:15:26,496946
-2,-3,-2,-3,-3,0,0,-4,2021-08-07 12:15:26,511948
-1,-3,-4,0,3,0,1,0,2021-08-07 12:15:26,511948
2,4,2,4,5,3,1,1,2021-08-07 12:15:26,511948
1,1,-2,-5,-3,0,0,1,2021-08-07 12:15:26,511948
-2,-3,-1,1,0,-3,0,0,2021-08-07 12:15:26,527950
-3,-2,-3,-12,-11,-7,-3,-2,2021-08-07 12:15:26,527950
0,-1,0,7,7,3,1,1,2021-08-07 12:15:26,527950
1,-1,0,0,4,2,1,-1,2021-08-07 12:15:26,527950
-3,-1,0,1,5,1,-2,0,2021-08-07 12:15:26,559947
-1,-1,-2,3,-1,-1,-2,-2,2021-08-07 12:15:26,559947
1,2,-1,-4,-9,-5,-2,-1,2021-08-07 12:15:26,559947
-5,-7,-7,-9,-9,-6,-5,-3,2021-08-07 12:15:26,559947
0,0,0,-2,-3,-1,-1,2,2021-08-07 12:15:26,575947
1,2,5,7,12,5,2,1,2021-08-07 12:15:26,575947
0,0,-1,4,0,0,1,0,2021-08-07 12:15:26,575947
-6,-7,-10,-13,-6,-4,-4,-5,2021-08-07 12:15:26,575947
2,1,2,0,1,1,-1,1,2021-08-07 12:15:26,606948
2,4,4,8,3,2,1,3,2021-08-07 12:15:26,606948
-2,-3,-1,-2,1,0,0,-2,2021-08-07 12:15:26,606948
-2,-1,-2,-4,-4,-3,0,-2,2021-08-07 12:15:26,606948
-3,-2,-3,-1,-4,-2,-1,-3,2021-08-07 12:15:26,622946
0,-1,0,2,3,1,1,1,2021-08-07 12:15:26,638947
0,-3,-2,-6,-2,-1,-3,0,2021-08-07 12:15:26,638947
1,1,2,3,-2,-2,-2,0,2021-08-07 12:15:26,638947
-1,0,-2,-1,-1,1,1,1,2021-08-07 12:15:26,638947
0,-2,-2,-2,-5,-2,0,-2,2021-08-07 12:15:26,638947
-4,-5,-6,-3,-3,-2,-1,-3,2021-08-07 12:15:26,638947
0,0,1,-7,-3,-2,1,0,2021-08-07 12:15:26,638947
2,0,5,13,10,5,2,1,2021-08-07 12:15:26,654948
0,-1,-2,-3,-2,1,-2,-2,2021-08-07 12:15:26,654948
-1,0,-3,-7,-7,-5,-2,-1,2021-08-07 12:15:26,654948
1,3,-1,4,1,1,0,1,2021-08-07 12:15:26,654948
0,-2,1,2,3,0,0,-2,2021-08-07 12:15:26,686948
-1,-2,-1,-2,2,0,1,-1,2021-08-07 12:15:26,702947
0,-2,0,5,1,0,-1,0,2021-08-07 12:15:26,718949
0,-3,-5,-12,-13,-7,-2,-1,2021-08-07 12:15:26,734947
-4,-2,-1,3,8,1,-1,-2,2021-08-07 12:15:26,765946
0,1,2,4,-3,-2,0,0,2021-08-07 12:15:26,780946
1,3,2,0,-2,-1,-1,-2,2021-08-07 12:15:26,796946
-1,-1,-1,1,5,2,-1,-1,2021-08-07 12:15:26,796946
-1,-2,-3,-5,-2,-1,-1,-2,2021-08-07 12:15:26,796946
-2,-1,-2,-3,-3,-3,-2,-1,2021-08-07 12:15:26,796946
-1,0,1,-3,-2,-2,-1,-1,2021-08-07 12:15:26,796946
-2,-1,-1,2,-3,-2,-1,-2,2021-08-07 12:15:26,796946
3,1,-1,-8,-7,-5,-1,0,2021-08-07 12:15:26,796946
0,1,1,2,4,3,0,1,2021-08-07 12:15:26,796946
-2,0,-1,3,1,0,-1,-2,2021-08-07 12:15:26,796946
-2,-1,0,-1,0,-1,-1,-1,2021-08-07 12:15:26,797947
-7,-6,-6,-9,-6,-3,-4,-3,2021-08-07 12:15:26,797947
-1,0,-2,-3,-4,-2,-2,1,2021-08-07 12:15:26,797947
3,5,2,-5,-3,1,0,3,2021-08-07 12:15:26,797947
1,3,11,24,17,7,4,0,2021-08-07 12:15:26,797947
-1,-1,-5,-11,-10,-5,-3,-3,2021-08-07 12:15:26,812947
-2,0,1,6,5,1,-1,-1,2021-08-07 12:15:26,812947
-4,-5,-4,-4,-4,-3,-2,-3,2021-08-07 12:15:26,812947
1,2,0,0,6,3,1,3,2021-08-07 12:15:26,812947
-3,0,1,1,-2,-4,-1,-2,2021-08-07 12:15:26,812947
-1,-1,-2,-4,-5,-3,-2,-1,2021-08-07 12:15:26,812947
1,0,-1,0,2,0,-3,0,2021-08-07 12:15:26,812947
-3,-1,-2,-3,-6,-2,-2,-1,2021-08-07 12:15:26,813948
0,-2,-2,-1,-1,0,0,0,2021-08-07 12:15:26,813948
0,-1,-3,-3,-1,-1,-1,-1,2021-08-07 12:15:26,813948
-1,-2,0,2,3,2,1,-1,2021-08-07 12:15:26,813948
0,-1,-2,-2,-3,-1,-1,-3,2021-08-07 12:15:26,813948
-1,0,1,1,2,1,-1,-1,2021-08-07 12:15:26,844945
-1,-1,0,0,-2,-2,0,-2,2021-08-07 12:15:26,860946
2,0,-1,-1,2,-1,1,0,2021-08-07 12:15:26,876947
-2,-1,-2,-2,-2,-3,-1,-3,2021-08-07 12:15:26,892946
-2,-1,-2,-4,-6,-5,-4,-2,2021-08-07 12:15:26,900947
-1,-5,-5,1,2,1,1,-1,2021-08-07 12:15:26,901948
3,6,4,3,4,4,1,1,2021-08-07 12:15:26,901948
1,2,0,-6,-3,-1,-3,-1,2021-08-07 12:15:26,901948
2,1,3,6,3,1,1,0,2021-08-07 12:15:26,901948
-4,-3,-1,-4,-3,-1,-3,0,2021-08-07 12:15:26,901948
-1,0,4,7,2,1,1,0,2021-08-07 12:15:26,901948
-2,-2,-4,-3,-2,-3,-2,-3,2021-08-07 12:15:26,902947
0,-1,-5,-6,-5,-2,-2,-1,2021-08-07 12:15:26,902947
0,1,1,3,3,1,-2,-2,2021-08-07 12:15:26,902947
-3,-3,-2,-4,-2,-1,-2,-2,2021-08-07 12:15:26,902947
-3,-1,-3,-5,-2,0,0,1,2021-08-07 12:15:26,902947
0,-1,0,-6,-5,-3,-1,0,2021-08-07 12:15:26,924948
1,1,0,5,2,1,2,1,2021-08-07 12:15:26,924948
-1,0,2,5,6,2,1,2,2021-08-07 12:15:26,924948
1,-2,-2,0,-2,-2,-3,-2,2021-08-07 12:15:26,924948
-6,-4,-6,-6,-5,-2,-2,-4,2021-08-07 12:15:26,924948
1,3,-1,-9,-10,-3,0,1,2021-08-07 12:15:26,924948
0,-1,0,5,8,1,2,-3,2021-08-07 12:15:26,940952
0,-2,0,6,3,2,2,0,2021-08-07 12:15:26,956946
0,-1,1,2,3,0,-3,-1,2021-08-07 12:15:26,956946
-2,-1,-4,-7,-8,-6,-3,-4,2021-08-07 12:15:26,956946
-3,-3,-4,-5,-7,-5,-3,-2,2021-08-07 12:15:26,956946
0,1,2,5,7,3,1,1,2021-08-07 12:15:26,956946
4,7,7,8,5,3,3,3,2021-08-07 12:15:26,972947
-1,-1,-1,-5,-3,-3,-1,0,2021-08-07 12:15:26,972947
-4,-6,-7,-5,-5,-3,-4,-4,2021-08-07 12:15:26,972947
0,0,0,-1,1,0,0,-2,2021-08-07 12:15:26,972947
-1,1,1,3,1,-1,-1,0,2021-08-07 12:15:26,988948
-1,-3,-1,-2,-2,0,-2,-1,2021-08-07 12:15:26,988948
-1,-1,-4,-7,-6,-3,-2,-2,2021-08-07 12:15:27,004946
-2,-1,-1,-7,-8,-4,-2,-2,2021-08-07 12:15:27,004946
-3,-7,-4,-2,-1,-1,-3,-4,2021-08-07 12:15:27,020995
2,4,5,11,9,4,5,2,2021-08-07 12:15:27,036950
3,3,6,6,4,2,1,3,2021-08-07 12:15:27,036950
-1,-4,-6,-2,-4,-3,-3,-2,2021-08-07 12:15:27,036950
0,-1,-3,-8,-6,-2,-1,-1,2021-08-07 12:15:27,036950
1,0,1,3,4,4,1,1,2021-08-07 12:15:27,036950
-1,-2,0,1,4,0,0,0,2021-08-07 12:15:27,036950
-4,-4,-3,-3,-5,-4,-3,-3,2021-08-07 12:15:27,036950
-1,0,-4,-7,-5,-5,-1,-1,2021-08-07 12:15:27,052951
1,-3,-4,-4,2,1,2,0,2021-08-07 12:15:27,052951
3,4,5,8,8,6,5,1,2021-08-07 12:15:27,052951
0,0,1,5,4,1,0,0,2021-08-07 12:15:27,052951
-4,-8,-7,-3,-2,-1,-3,-3,2021-08-07 12:15:27,084948
-2,1,-1,-10,-10,-4,-3,-3,2021-08-07 12:15:27,084948
-2,-2,-3,-5,-5,-2,-2,-2,2021-08-07 12:15:27,084948
-2,-1,-2,-4,-3,-2,-2,0,2021-08-07 12:15:27,085400
-2,-2,-1,3,3,1,1,-1,2021-08-07 12:15:27,100975
-1,0,-1,0,-2,0,1,1,2021-08-07 12:15:27,116975
-4,-3,-3,-6,-3,-1,-4,-2,2021-08-07 12:15:27,116975
-2,-1,-1,-3,-3,-2,-3,0,2021-08-07 12:15:27,116975
6,7,5,7,0,3,2,4,2021-08-07 12:15:27,132977
-2,-2,-3,-3,-5,-6,-6,-4,2021-08-07 12:15:27,132977
-1,1,-1,0,5,4,0,-1,2021-08-07 12:15:27,132977
4,1,3,6,6,2,2,1,2021-08-07 12:15:27,132977
0,-3,-2,-3,-1,-1,0,1,2021-08-07 12:15:27,132977
1,-6,-6,-6,-5,-2,-1,-2,2021-08-07 12:15:27,132977
-4,-8,-7,-11,-10,-4,-2,-3,2021-08-07 12:15:27,133978
0,3,4,2,1,0,0,1,2021-08-07 12:15:27,133978
-1,-1,0,-2,0,-2,-2,-3,2021-08-07 12:15:27,164974
-5,2,4,4,4,1,-2,-2,2021-08-07 12:15:27,180974
-2,-1,-3,-3,-5,-5,-5,-1,2021-08-07 12:15:27,195976
-4,-5,-7,-10,-8,-4,-4,-4,2021-08-07 12:15:27,195976
1,3,3,4,-1,-1,-2,1,2021-08-07 12:15:27,195976
1,-2,-4,-9,-3,-1,0,2,2021-08-07 12:15:27,195976
3,0,1,0,4,2,3,0,2021-08-07 12:15:27,195976
-1,-2,-2,7,7,1,-1,-1,2021-08-07 12:15:27,196976
3,4,5,2,5,4,2,1,2021-08-07 12:15:27,196976
1,1,1,8,11,6,6,2,2021-08-07 12:15:27,196976
2,3,0,-6,-11,-4,-1,2,2021-08-07 12:15:27,196976
-10,-7,-1,2,2,-6,-8,-11,2021-08-07 12:15:27,196976
-4,-3,-5,-11,-12,-7,-7,-2,2021-08-07 12:15:27,226975
1,-2,0,-2,-3,-4,-2,1,2021-08-07 12:15:27,226975
2,0,0,5,5,3,3,2,2021-08-07 12:15:27,226975
0,1,1,-1,1,3,2,1,2021-08-07 12:15:27,226975
-7,-5,-3,3,2,-2,-3,-7,2021-08-07 12:15:27,242975
-1,-2,-1,-3,-3,-3,-2,-2,2021-08-07 12:15:27,242975
-3,-5,-7,-6,-10,-6,-4,-3,2021-08-07 12:15:27,242975
5,3,1,-4,-1,-1,0,2,2021-08-07 12:15:27,242975
1,0,0,3,2,2,3,3,2021-08-07 12:15:27,258977
2,1,1,0,0,3,0,0,2021-08-07 12:15:27,274974
-4,-5,-6,-6,-3,-4,-3,-4,2021-08-07 12:15:27,290974
-1,-1,-2,-1,-3,1,0,-1,2021-08-07 12:15:27,307200
1,-5,-3,1,-1,-1,-1,0,2021-08-07 12:15:27,322494
2,5,2,2,2,-1,-1,0,2021-08-07 12:15:27,322494
0,2,3,7,4,1,0,-1,2021-08-07 12:15:27,322494
0,0,-1,-5,-5,-2,-1,0,2021-08-07 12:15:27,322494
-4,-3,-1,1,4,0,-1,-2,2021-08-07 12:15:27,322494
-7,-7,-4,-2,-4,-4,-4,-4,2021-08-07 12:15:27,322494
3,4,4,0,-2,-2,2,0,2021-08-07 12:15:27,322494
4,2,0,-2,-3,-1,3,4,2021-08-07 12:15:27,322494
-3,-4,-3,2,6,3,-2,-3,2021-08-07 12:15:27,323494
-2,-1,1,6,5,1,0,-2,2021-08-07 12:15:27,323494
-5,-5,-6,-6,-7,-4,-4,-2,2021-08-07 12:15:27,323494
-2,-2,-3,-7,-11,-5,-2,0,2021-08-07 12:15:27,338494
2,5,6,2,0,1,1,2,2021-08-07 12:15:27,338494
0,2,1,2,2,1,0,0,2021-08-07 12:15:27,338494
1,1,3,1,-2,0,-1,-1,2021-08-07 12:15:27,338494
-3,-6,-8,-10,-7,-5,-3,-2,2021-08-07 12:15:27,338494
1,1,5,8,12,5,3,-1,2021-08-07 12:15:27,363522
1,0,1,6,1,1,-1,0,2021-08-07 12:15:27,363522
-1,-1,0,2,2,0,-1,-1,2021-08-07 12:15:27,363522
0,-1,-3,-5,-5,-2,-1,0,2021-08-07 12:15:27,364523
0,2,1,-5,-5,-4,-2,0,2021-08-07 12:15:27,386526
-2,-3,-6,-4,-8,-4,-3,-3,2021-08-07 12:15:27,386526
1,2,2,0,-2,2,2,1,2021-08-07 12:15:27,386526
2,1,4,14,11,5,1,-1,2021-08-07 12:15:27,386526
-3,-6,-6,-9,-9,-5,-3,-4,2021-08-07 12:15:27,402524
-1,-1,-1,-6,-1,-1,0,-1,2021-08-07 12:15:27,418523
-5,-4,-2,-1,0,0,-2,-2,2021-08-07 12:15:27,434541
-1,2,0,-3,-3,-1,-1,0,2021-08-07 12:15:27,449524
3,2,2,1,-1,2,0,2,2021-08-07 12:15:27,465526
-2,-2,0,0,-1,-1,-2,-1,2021-08-07 12:15:27,465526
-2,-4,-1,2,1,1,-1,-2,2021-08-07 12:15:27,465526
1,2,3,0,-1,0,0,0,2021-08-07 12:15:27,465526
-5,-5,-6,-6,-5,-5,-4,-3,2021-08-07 12:15:27,465526
0,1,0,2,0,-1,-1,-1,2021-08-07 12:15:27,466524
2,2,1,1,1,2,2,2,2021-08-07 12:15:27,466524
-2,-3,0,2,-1,-2,-1,-1,2021-08-07 12:15:27,466524
-4,-4,-4,-3,-4,-3,0,0,2021-08-07 12:15:27,466524
1,2,-1,-5,-2,1,0,-1,2021-08-07 12:15:27,466524
-1,0,1,3,3,-1,-1,-2,2021-08-07 12:15:27,466524
-3,-4,-5,-8,-4,-2,-2,-3,2021-08-07 12:15:27,466524
0,1,2,5,3,1,1,1,2021-08-07 12:15:27,481521
0,-2,-2,-2,-1,0,0,0,2021-08-07 12:15:27,481521
-1,-1,-3,-2,-8,-5,-2,-2,2021-08-07 12:15:27,481521
-1,-3,-5,-7,2,0,0,-1,2021-08-07 12:15:27,481521
-1,1,2,4,5,1,0,1,2021-08-07 12:15:27,497523
0,-1,-2,0,-2,-1,-2,-1,2021-08-07 12:15:27,497523
0,-1,-3,-7,-7,-6,-3,-2,2021-08-07 12:15:27,497523
0,0,-3,-6,-3,-3,-4,-1,2021-08-07 12:15:27,497523
-3,-4,-4,0,-3,0,-2,-3,2021-08-07 12:15:27,529524
2,3,3,-1,1,1,0,1,2021-08-07 12:15:27,529524
0,2,-1,-2,-1,0,2,1,2021-08-07 12:15:27,529524
-2,-2,-1,0,-1,0,0,-3,2021-08-07 12:15:27,529524
-1,-3,-2,-5,-3,-1,-1,0,2021-08-07 12:15:27,545524
-4,-5,-3,-3,-7,-3,-3,-4,2021-08-07 12:15:27,560524
-2,-2,-1,-1,0,1,-2,0,2021-08-07 12:15:27,576781
0,-1,1,4,3,1,-1,-1,2021-08-07 12:15:27,576781
3,2,4,5,7,4,1,-2,2021-08-07 12:15:27,576781
-3,-3,-1,0,-1,-1,-1,-2,2021-08-07 12:15:27,576781
0,-1,-1,-3,2,1,-1,0,2021-08-07 12:15:27,576781
-1,3,3,6,0,0,-1,-1,2021-08-07 12:15:27,577526
-2,-4,-6,-13,-11,-8,-4,-2,2021-08-07 12:15:27,577526
6,7,5,4,7,4,3,3,2021-08-07 12:15:27,577526
-1,-1,0,1,3,1,0,0,2021-08-07 12:15:27,577526
-4,-7,-6,-6,-8,-3,-4,-3,2021-08-07 12:15:27,577526
2,6,4,-1,-2,-1,1,2,2021-08-07 12:15:27,607523
-1,-2,-3,-5,1,-2,1,0,2021-08-07 12:15:27,607523
1,3,6,14,7,2,1,1,2021-08-07 12:15:27,607523
-1,-2,0,1,-1,-2,-1,-2,2021-08-07 12:15:27,623523
-3,-4,-4,-6,-7,-2,-4,-1,2021-08-07 12:15:27,639528
-3,-3,-4,-6,-5,-3,-1,-1,2021-08-07 12:15:27,639528
3,1,2,0,2,2,1,-1,2021-08-07 12:15:27,639528
-4,-5,-3,-6,-6,-5,-2,-2,2021-08-07 12:15:27,639528
2,1,0,4,4,2,1,0,2021-08-07 12:15:27,639528
-1,-2,-4,-2,-1,1,-1,-2,2021-08-07 12:15:27,639528
-3,-4,-2,-1,-7,-5,-4,-3,2021-08-07 12:15:27,640524
0,2,2,6,7,4,1,3,2021-08-07 12:15:27,640524
1,3,-3,0,2,3,1,-1,2021-08-07 12:15:27,671522
-3,-1,-2,-5,-1,-2,-2,-2,2021-08-07 12:15:27,687522
-1,-1,-3,-8,-6,-4,-1,-1,2021-08-07 12:15:27,687522
0,1,4,13,9,1,3,0,2021-08-07 12:15:27,687522
-3,-6,-3,-9,-14,-8,-5,-4,2021-08-07 12:15:27,687522
-2,-3,-1,1,1,0,-3,-2,2021-08-07 12:15:27,687522
0,0,2,3,6,2,-1,0,2021-08-07 12:15:27,687522
0,2,-1,0,-2,0,0,-1,2021-08-07 12:15:27,687522
-2,-3,-3,-2,-1,-2,-1,-1,2021-08-07 12:15:27,703522
1,3,4,5,-1,-2,0,2,2021-08-07 12:15:27,719562
-3,-2,-4,-6,-4,-3,-2,-1,2021-08-07 12:15:27,735522
0,-2,-2,-1,-1,0,0,-1,2021-08-07 12:15:27,735522
3,3,2,0,1,1,1,1,2021-08-07 12:15:27,735522
-3,-5,-4,-8,-11,-6,-3,-3,2021-08-07 12:15:27,735522
0,1,3,11,13,6,1,0,2021-08-07 12:15:27,735522
3,5,6,5,3,3,2,3,2021-08-07 12:15:27,735522
-2,-2,-1,-7,-5,-5,-2,-1,2021-08-07 12:15:27,735522
0,0,-3,-3,-1,-1,-1,0,2021-08-07 12:15:27,736524
3,2,-2,-1,-1,-1,2,1,2021-08-07 12:15:27,736524
0,0,1,0,-4,-2,-2,-1,2021-08-07 12:15:27,736524
-5,-3,-2,-1,-1,-1,-5,-4,2021-08-07 12:15:27,751532
-2,-5,-9,-13,-9,-4,-4,-2,2021-08-07 12:15:27,751532
0,1,6,11,8,4,0,0,2021-08-07 12:15:27,751532
-1,-3,-3,-4,-2,-1,-1,-1,2021-08-07 12:15:27,751532
1,2,3,11,9,5,1,0,2021-08-07 12:15:27,783523
-2,-2,-1,-1,-2,0,-1,-1,2021-08-07 12:15:27,783523
-6,-8,-9,-11,-10,-7,-4,-6,2021-08-07 12:15:27,783523
2,5,3,0,-2,0,0,1,2021-08-07 12:15:27,783523
1,-1,-2,-3,-1,1,3,1,2021-08-07 12:15:27,799523
-1,1,4,5,2,1,1,-1,2021-08-07 12:15:27,799523
-2,-5,-6,-7,-7,-4,-3,-2,2021-08-07 12:15:27,799523
-1,-2,-2,-4,-4,-4,-1,-1,2021-08-07 12:15:27,799523
-2,-2,-5,-5,-3,-1,-4,-1,2021-08-07 12:15:27,815525
2,3,7,12,9,6,2,3,2021-08-07 12:15:27,815525
-2,-5,-5,-7,-8,-3,-1,0,2021-08-07 12:15:27,831523
1,3,1,0,-1,0,-2,-2,2021-08-07 12:15:27,831523
-1,0,2,6,6,2,1,1,2021-08-07 12:15:27,839525
2,3,4,7,3,1,1,2,2021-08-07 12:15:27,839525
-3,-3,-2,-6,-5,-3,-2,-4,2021-08-07 12:15:27,839525
2,0,-3,-3,-3,-1,-1,0,2021-08-07 12:15:27,839525
-4,-5,-7,-8,-7,-6,-2,-2,2021-08-07 12:15:27,863523
4,4,2,3,3,0,2,3,2021-08-07 12:15:27,879523
0,2,1,-1,-1,0,1,1,2021-08-07 12:15:27,879523
-3,-3,-3,-2,0,0,-1,-1,2021-08-07 12:15:27,879523
0,-4,-4,-4,-9,-7,-3,-3,2021-08-07 12:15:27,879523
-3,-4,1,6,9,4,0,-1,2021-08-07 12:15:27,879523
2,3,1,1,1,2,0,1,2021-08-07 12:15:27,879523
-3,-4,-5,-7,-6,-3,-3,-2,2021-08-07 12:15:27,880524
1,3,3,9,8,3,3,1,2021-08-07 12:15:27,910523
-4,-6,-7,-11,-12,-8,-6,-3,2021-08-07 12:15:27,910523
1,5,1,-2,-1,0,0,1,2021-08-07 12:15:27,910523
-3,-5,-4,-2,-2,-4,-3,-3,2021-08-07 12:15:27,910523
4,1,0,0,1,3,3,2,2021-08-07 12:15:27,910523
5,2,0,7,10,7,4,2,2021-08-07 12:15:27,910523
-3,-2,-2,0,-1,-1,-2,-1,2021-08-07 12:15:27,926524
-3,1,3,3,4,1,-1,-2,2021-08-07 12:15:27,926524
-3,-1,0,-6,-5,-3,-3,-5,2021-08-07 12:15:27,958523
-2,0,2,1,-4,-4,-3,-4,2021-08-07 12:15:27,958523
1,-2,-2,-2,-4,-3,-3,-1,2021-08-07 12:15:27,958523
0,-1,-4,-7,-3,-2,-2,-1,2021-08-07 12:15:27,958523
0,1,0,2,1,1,0,1,2021-08-07 12:15:27,958523
0,-2,-2,1,2,2,1,0,2021-08-07 12:15:27,958523
-2,-4,-2,0,-1,-3,-2,-2,2021-08-07 12:15:27,959524
3,0,-5,-9,-4,1,3,2,2021-08-07 12:15:27,959524
0,1,1,0,1,-1,1,-2,2021-08-07 12:15:27,974523
-3,-5,-5,-8,-8,-5,-5,-2,2021-08-07 12:15:27,990523
0,1,-2,-3,1,1,-1,1,2021-08-07 12:15:28,006523
-1,1,6,10,7,0,1,0,2021-08-07 12:15:28,021523
-5,-4,-6,-6,-4,-1,-3,-3,2021-08-07 12:15:28,021523
0,1,6,9,1,0,1,0,2021-08-07 12:15:28,021523
-2,-2,-1,-1,0,-1,1,-1,2021-08-07 12:15:28,021523
-4,-6,-4,-2,-3,-3,-4,-4,2021-08-07 12:15:28,021523
2,2,-1,-1,-1,-1,-1,1,2021-08-07 12:15:28,021523
-2,-2,-2,-3,-1,-2,-2,-2,2021-08-07 12:15:28,021523
2,2,-3,-4,-2,-1,1,1,2021-08-07 12:15:28,022524
-3,-4,-1,-2,-3,-4,-2,-2,2021-08-07 12:15:28,022524
-1,1,3,4,2,2,-1,1,2021-08-07 12:15:28,037523
1,-1,0,-1,-2,1,-1,-3,2021-08-07 12:15:28,053523
0,-1,1,2,2,2,0,0,2021-08-07 12:15:28,068524
-1,-1,-5,-9,-6,-3,-3,-2,2021-08-07 12:15:28,084524
-2,-5,-5,-3,-5,-4,-4,-3,2021-08-07 12:15:28,084524
-1,1,4,6,5,3,2,1,2021-08-07 12:15:28,084524
0,0,1,1,1,1,0,-1,2021-08-07 12:15:28,084524
0,-1,-3,1,-4,-3,-1,0,2021-08-07 12:15:28,084524
2,0,2,3,0,-1,-1,-1,2021-08-07 12:15:28,084524
3,4,1,3,8,3,2,3,2021-08-07 12:15:28,084524
-2,-2,2,13,5,0,0,-3,2021-08-07 12:15:28,084524
2,2,-1,-2,3,4,2,3,2021-08-07 12:15:28,085525
-1,-1,-1,-5,-8,-5,-5,-4,2021-08-07 12:15:28,100525
-1,-2,-6,-8,-6,-3,0,0,2021-08-07 12:15:28,116523
-1,3,0,-2,-1,-1,-1,-1,2021-08-07 12:15:28,132525
-2,-2,3,5,0,-1,-2,-2,2021-08-07 12:15:28,163523
0,0,0,0,6,4,1,1,2021-08-07 12:15:28,163523
1,-1,0,0,-1,-3,-1,0,2021-08-07 12:15:28,163523
-1,-4,-7,-10,-10,-4,-3,-3,2021-08-07 12:15:28,163523
-2,-3,-1,4,2,0,-1,-1,2021-08-07 12:15:28,163523
1,1,0,0,0,1,3,1,2021-08-07 12:15:28,163523
-1,0,2,6,1,1,1,1,2021-08-07 12:15:28,164524
0,0,-3,-3,-4,-3,0,0,2021-08-07 12:15:28,164524
-2,-3,-6,-8,-4,-5,-2,-3,2021-08-07 12:15:28,164524
-2,-2,2,7,6,1,-2,-1,2021-08-07 12:15:28,164524
-3,-4,-7,-13,-12,-5,-4,-2,2021-08-07 12:15:28,164524
2,2,5,14,11,4,2,1,2021-08-07 12:15:28,164524
-2,-2,-3,-7,-4,-1,0,-2,2021-08-07 12:15:28,165523
-2,-1,2,0,0,1,1,-1,2021-08-07 12:15:28,179523
1,2,0,-3,-1,0,0,-1,2021-08-07 12:15:28,195525
1,1,4,3,4,1,2,1,2021-08-07 12:15:28,195525
0,-1,0,4,3,0,-1,-2,2021-08-07 12:15:28,195525
-7,-8,-7,-3,-3,-4,-4,-4,2021-08-07 12:15:28,195525
2,4,1,-3,-5,-2,-1,0,2021-08-07 12:15:28,195525
-5,-3,-4,-12,-11,-6,-3,-2,2021-08-07 12:15:28,195525
1,5,6,10,10,5,1,1,2021-08-07 12:15:28,195525
0,-2,0,2,0,0,0,-1,2021-08-07 12:15:28,227524
-2,-4,-4,-4,-3,-4,-2,-2,2021-08-07 12:15:28,243525
0,0,0,-1,-2,0,-2,0,2021-08-07 12:15:28,243525
-1,-2,-2,1,-4,-1,0,0,2021-08-07 12:15:28,243525
-1,-1,-3,-5,-3,-2,-4,-2,2021-08-07 12:15:28,243525
0,0,-1,1,2,2,0,-2,2021-08-07 12:15:28,243525
-2,-2,-3,-7,-6,-3,-4,-2,2021-08-07 12:15:28,243525
-1,0,2,-2,5,3,0,1,2021-08-07 12:15:28,244526
2,4,5,11,6,2,3,3,2021-08-07 12:15:28,259523
-1,-1,-2,-1,-1,1,0,-1,2021-08-07 12:15:28,275523
-3,-3,-3,-5,-5,-3,-3,-1,2021-08-07 12:15:28,275523
-2,-2,-6,-7,-8,-5,-2,-3,2021-08-07 12:15:28,275523
0,1,-1,-1,-3,0,0,1,2021-08-07 12:15:28,275523
-1,0,0,0,2,0,0,0,2021-08-07 12:15:28,275523
0,-1,0,2,2,0,0,-1,2021-08-07 12:15:28,291523
0,-1,0,-2,-2,-2,-2,2,2021-08-07 12:15:28,291523
1,1,-1,-3,2,0,0,1,2021-08-07 12:15:28,291523
1,-1,0,0,-3,-2,-1,0,2021-08-07 12:15:28,291523
-2,-3,-2,-5,-3,-1,-2,-2,2021-08-07 12:15:28,316524
-1,0,0,1,1,-1,-1,-1,2021-08-07 12:15:28,317524
0,-2,-3,-4,-2,-1,0,-1,2021-08-07 12:15:28,317524
-2,-1,-2,-4,-4,-3,-3,0,2021-08-07 12:15:28,317524
-1,0,-1,2,5,3,1,-2,2021-08-07 12:15:28,317524
0,-3,2,2,0,-1,-1,-2,2021-08-07 12:15:28,317524
0,-1,-2,-4,-3,-2,-2,0,2021-08-07 12:15:28,355523
0,1,-1,-2,0,0,0,-1,2021-08-07 12:15:28,355523
1,0,-2,-1,-1,-1,-1,-1,2021-08-07 12:15:28,355523
-4,-2,-3,-6,-5,-4,-3,-1,2021-08-07 12:15:28,355523
0,1,3,7,7,5,2,0,2021-08-07 12:15:28,355523
-3,-3,-1,2,4,-1,1,-2,2021-08-07 12:15:28,355523
-6,-8,-7,-5,-5,-4,-3,-4,2021-08-07 12:15:28,371523
3,7,2,-2,-2,2,1,4,2021-08-07 12:15:28,371523
1,5,-1,-1,-5,0,0,1,2021-08-07 12:15:28,387523
-4,-3,-4,-4,-4,-2,-4,0,2021-08-07 12:15:28,403523
-2,-3,-4,-6,-6,-5,-3,-2,2021-08-07 12:15:28,403523
-1,-2,0,10,9,3,1,-2,2021-08-07 12:15:28,403523
0,0,1,-1,-2,-1,0,1,2021-08-07 12:15:28,403523
-1,-1,-2,-2,-3,-1,0,-2,2021-08-07 12:15:28,403523
-1,0,0,1,0,0,-1,0,2021-08-07 12:15:28,403523
-2,-1,-3,-9,-5,-3,-2,0,2021-08-07 12:15:28,403523
-1,-1,1,2,3,0,-1,0,2021-08-07 12:15:28,419523
0,0,2,2,0,0,-1,0,2021-08-07 12:15:28,419523
1,-1,-5,-2,-5,-3,-3,0,2021-08-07 12:15:28,419523
1,3,1,-4,-3,0,1,0,2021-08-07 12:15:28,419523
-2,0,1,2,1,1,-1,0,2021-08-07 12:15:28,451523
-2,-1,-3,-7,-4,-2,-1,-2,2021-08-07 12:15:28,467522
2,3,2,5,4,2,2,0,2021-08-07 12:15:28,483523
-4,-6,-2,1,-2,-3,-2,-3,2021-08-07 12:15:28,483523
-3,-7,-4,-5,-3,-2,-3,-1,2021-08-07 12:15:28,483523
4,3,2,6,5,1,2,1,2021-08-07 12:15:28,483523
0,0,-1,-6,-4,-1,-3,-1,2021-08-07 12:15:28,499523
1,0,2,3,2,0,2,0,2021-08-07 12:15:28,515523
-5,-6,-7,-11,-10,-8,-2,-2,2021-08-07 12:15:28,515523
0,-1,-1,0,1,2,-1,0,2021-08-07 12:15:28,515523
1,2,3,5,8,3,1,0,2021-08-07 12:15:28,515523
-3,-2,-4,-4,-7,-4,-2,-3,2021-08-07 12:15:28,515523
-3,-2,-5,-4,-3,-3,-4,-4,2021-08-07 12:15:28,516524
0,-1,2,1,-3,-1,-1,0,2021-08-07 12:15:28,516524
2,3,4,6,5,2,1,1,2021-08-07 12:15:28,516524
-1,-1,1,1,2,0,-1,0,2021-08-07 12:15:28,516524
-1,-1,-2,-3,-4,-3,-1,0,2021-08-07 12:15:28,516524
-3,-3,-2,-1,-5,-2,-2,-1,2021-08-07 12:15:28,516524
-4,-5,-5,-10,-7,-4,-4,-3,2021-08-07 12:15:28,516524
0,-1,-3,-2,0,-1,0,2,2021-08-07 12:15:28,517524
2,2,5,5,4,2,1,1,2021-08-07 12:15:28,546521
-1,-2,-1,2,0,-2,-2,-2,2021-08-07 12:15:28,546521
-3,-2,-2,-4,-6,-1,-2,0,2021-08-07 12:15:28,546879
-4,-4,-7,-7,-7,-5,-4,-3,2021-08-07 12:15:28,546879
5,6,3,2,2,2,3,1,2021-08-07 12:15:28,561523
0,-1,0,2,8,3,0,-2,2021-08-07 12:15:28,561523
0,-3,-1,3,2,1,1,-2,2021-08-07 12:15:28,561523
-1,-1,-2,-5,-4,-2,-2,-2,2021-08-07 12:15:28,561523
-2,-3,-2,-3,-3,-3,-4,-2,2021-08-07 12:15:28,593523
0,2,3,4,2,1,1,3,2021-08-07 12:15:28,609523
-1,-1,1,9,8,3,2,1,2021-08-07 12:15:28,625522
-2,-1,-3,-2,-4,0,-3,-1,2021-08-07 12:15:28,625522
-2,0,-2,-9,-9,-5,-3,-2,2021-08-07 12:15:28,625522
-2,-3,-2,-3,1,1,-1,-2,2021-08-07 12:15:28,625522
0,1,-1,-2,-3,-1,0,1,2021-08-07 12:15:28,625522
-1,0,-1,1,-2,-1,-2,0,2021-08-07 12:15:28,625522
-1,-2,-2,1,3,-1,-1,-1,2021-08-07 12:15:28,625522
-1,0,-4,-9,-10,-4,-1,0,2021-08-07 12:15:28,625522
-1,1,3,7,11,5,2,-2,2021-08-07 12:15:28,626525
-3,-4,-1,-1,-2,-2,-1,-3,2021-08-07 12:15:28,626525
0,0,-2,-2,-1,1,-1,0,2021-08-07 12:15:28,641521
-4,-4,-2,-1,-4,-4,-3,-2,2021-08-07 12:15:28,641521
0,0,-6,-15,-15,-8,-3,0,2021-08-07 12:15:28,641521
3,4,7,9,11,6,2,1,2021-08-07 12:15:28,641521
1,2,3,7,9,4,3,-2,2021-08-07 12:15:28,657523
-1,-1,-4,-6,-9,-5,-3,-2,2021-08-07 12:15:28,673524
-2,-1,4,5,4,1,-1,-1,2021-08-07 12:15:28,673524
-1,-3,-3,-4,-3,-3,-3,-2,2021-08-07 12:15:28,673524
-3,-4,-9,-12,-9,-5,0,-1,2021-08-07 12:15:28,673524
3,8,7,6,9,5,2,3,2021-08-07 12:15:28,673524
1,0,0,1,-1,-1,-2,-2,2021-08-07 12:15:28,689523
-2,-1,-2,-6,-5,-1,-3,-2,2021-08-07 12:15:28,705522
0,1,4,8,4,2,-1,1,2021-08-07 12:15:28,721524
1,-5,-6,-10,-3,-1,-1,-1,2021-08-07 12:15:28,721524
-3,-5,-5,-6,-5,-4,-1,-1,2021-08-07 12:15:28,721524
5,5,9,15,15,7,3,3,2021-08-07 12:15:28,721524
0,-3,-3,-2,-3,-1,-2,-1,2021-08-07 12:15:28,721524
1,0,-4,-4,-5,-3,-2,-1,2021-08-07 12:15:28,721524
-1,0,-3,-8,-8,-6,-2,-1,2021-08-07 12:15:28,737522
-1,0,0,7,12,5,1,0,2021-08-07 12:15:28,737522
-2,-3,-4,-6,-8,-4,-4,0,2021-08-07 12:15:28,737522
-1,1,1,-5,-4,1,1,1,2021-08-07 12:15:28,737522
1,-1,0,8,7,2,-1,-1,2021-08-07 12:15:28,737522
-1,-2,-4,-4,-3,-2,0,-2,2021-08-07 12:15:28,738523
2,4,7,10,15,7,4,3,2021-08-07 12:15:28,769523
-2,-2,-2,-2,-5,-4,0,-1,2021-08-07 12:15:28,769523
-1,-1,-1,-2,-7,-4,-2,-2,2021-08-07 12:15:28,769523
-4,-5,-6,-8,-8,-7,-4,-4,2021-08-07 12:15:28,769523
-2,0,-7,-14,-15,-6,-2,-2,2021-08-07 12:15:28,769523
2,0,3,13,14,6,3,0,2021-08-07 12:15:28,769523
2,0,-1,-2,0,3,3,5,2021-08-07 12:15:28,781522
-2,-4,-3,-1,-1,-1,0,0,2021-08-07 12:15:28,781522
-2,-2,1,3,-2,-3,-3,-4,2021-08-07 12:15:28,801522
-4,-1,-2,-5,-3,-4,-3,-2,2021-08-07 12:15:28,817524
-3,1,1,-2,1,-1,-2,-4,2021-08-07 12:15:28,833523
-2,-1,-1,0,-8,-4,-3,-2,2021-08-07 12:15:28,833523
0,-2,-3,-6,-7,-6,-4,-1,2021-08-07 12:15:28,833523
-2,-4,-8,-15,-15,-7,-6,-4,2021-08-07 12:15:28,833523
7,7,10,22,26,12,6,6,2021-08-07 12:15:28,833523
2,0,1,0,-1,0,0,0,2021-08-07 12:15:28,834522
-1,-3,-4,-4,3,1,0,-1,2021-08-07 12:15:28,834522
-2,-3,-2,2,0,-2,-2,-2,2021-08-07 12:15:28,834522
-3,-4,-7,-19,-19,-9,-4,-4,2021-08-07 12:15:28,865524
0,-1,2,0,2,2,-1,0,2021-08-07 12:15:28,865524
1,2,6,7,7,3,1,1,2021-08-07 12:15:28,865524
-3,-2,-3,-3,-3,-2,-2,0,2021-08-07 12:15:28,881523
0,0,-1,3,3,0,-2,-2,2021-08-07 12:15:28,897523
0,1,-2,-1,-3,-1,1,0,2021-08-07 12:15:28,897523
-3,-1,0,0,-4,-2,-3,-2,2021-08-07 12:15:28,897523
2,2,4,8,12,6,2,2,2021-08-07 12:15:28,897523
-4,-2,-3,-4,-3,-2,-1,-2,2021-08-07 12:15:28,898525
-1,-1,1,4,-1,-2,-1,-1,2021-08-07 12:15:28,898525
-1,-1,-3,-6,-4,-2,-1,-1,2021-08-07 12:15:28,898525
0,-1,-2,-2,-2,-3,-1,-3,2021-08-07 12:15:28,898525
0,-2,-2,-5,-5,-2,0,-1,2021-08-07 12:15:28,898525
-3,-2,0,-1,1,-1,-2,0,2021-08-07 12:15:28,898525
-4,-6,-5,-1,1,-1,-1,-2,2021-08-07 12:15:28,929563
0,3,2,0,-2,-1,-1,0,2021-08-07 12:15:28,929563
-2,-3,-4,-4,-4,-2,-1,-2,2021-08-07 12:15:28,929563
0,0,2,3,4,1,1,1,2021-08-07 12:15:28,929563
1,1,1,-1,3,1,1,0,2021-08-07 12:15:28,945523
-4,-2,-3,6,7,2,1,0,2021-08-07 12:15:28,961524
1,0,0,0,-2,-1,0,1,2021-08-07 12:15:28,961524
-2,-2,-2,-1,-5,-3,-2,-2,2021-08-07 12:15:28,961524
0,-1,-1,0,0,0,-2,-1,2021-08-07 12:15:28,961524
1,0,2,-2,-7,-1,-1,0,2021-08-07 12:15:28,961524
-3,0,-2,-2,-4,-1,-2,-1,2021-08-07 12:15:28,961524
-3,-2,-4,-3,1,0,-1,-3,2021-08-07 12:15:28,961524
0,0,1,-2,-4,-1,1,1,2021-08-07 12:15:28,977552
-2,-3,-4,0,-1,-1,-1,-1,2021-08-07 12:15:28,977552
-3,-2,1,3,0,-3,-3,-2,2021-08-07 12:15:28,977552
-4,-3,-6,-5,-2,-1,-2,-4,2021-08-07 12:15:28,977552
0,1,-1,-7,-5,-3,-2,0,2021-08-07 12:15:29,009525
-1,-1,-1,-5,1,1,1,0,2021-08-07 12:15:29,025524
0,0,0,5,7,2,0,-1,2021-08-07 12:15:29,025524
-1,0,0,-5,-4,-4,-1,0,2021-08-07 12:15:29,025524
-2,-4,-3,-1,-1,-1,-2,-2,2021-08-07 12:15:29,025524
0,-1,-1,-3,-6,-2,-2,-1,2021-08-07 12:15:29,025524
1,-1,-2,-1,2,1,0,-1,2021-08-07 12:15:29,025524
-1,-2,-5,-9,-6,-4,-2,-2,2021-08-07 12:15:29,026523
0,-1,2,4,-3,-1,-1,0,2021-08-07 12:15:29,041522
2,3,2,-2,-2,0,0,2,2021-08-07 12:15:29,041522
4,6,8,17,17,8,3,1,2021-08-07 12:15:29,041522
-2,-2,-4,-4,-6,-3,-1,-1,2021-08-07 12:15:29,041522
2,4,2,4,3,4,4,1,2021-08-07 12:15:29,073522
-3,-4,-6,-4,-10,-7,-2,-3,2021-08-07 12:15:29,073522
-3,-4,-1,2,-2,-1,-1,-2,2021-08-07 12:15:29,073522
3,3,5,6,6,4,2,2,2021-08-07 12:15:29,073522
0,0,-1,1,0,0,-2,-1,2021-08-07 12:15:29,105523
-3,-5,-2,-4,-3,-4,-3,-3,2021-08-07 12:15:29,105523
-3,-2,-4,-4,-2,-2,-3,-3,2021-08-07 12:15:29,105523
0,-1,0,1,-1,0,2,1,2021-08-07 12:15:29,105523
-2,-2,0,1,-4,-3,-1,-1,2021-08-07 12:15:29,105523
1,3,3,13,20,9,3,1,2021-08-07 12:15:29,105523
1,-1,-6,-18,-19,-9,-3,-2,2021-08-07 12:15:29,121522
1,-1,1,7,8,1,0,0,2021-08-07 12:15:29,121522
2,2,0,2,0,2,1,1,2021-08-07 12:15:29,121522
0,1,2,-2,-5,-2,1,0,2021-08-07 12:15:29,121522
-3,-5,-9,-11,-11,-5,-3,-3,2021-08-07 12:15:29,121522
1,2,-2,-9,-8,-3,-3,0,2021-08-07 12:15:29,121522
3,6,2,1,0,0,0,1,2021-08-07 12:15:29,153525
-2,-2,-2,0,-1,1,-1,-2,2021-08-07 12:15:29,153525
1,-1,1,1,0,-1,-1,2,2021-08-07 12:15:29,185526
-4,-6,-6,-6,-4,-5,-5,-3,2021-08-07 12:15:29,185526
-3,-4,1,13,14,5,1,-1,2021-08-07 12:15:29,185526
5,7,5,8,3,3,2,4,2021-08-07 12:15:29,185526
0,-3,-3,-4,-8,-2,-2,-2,2021-08-07 12:15:29,185526
-3,-3,-5,-4,-6,-4,-5,-3,2021-08-07 12:15:29,185526
-3,-6,-10,-23,-17,-10,-5,-5,2021-08-07 12:15:29,186524
-1,-1,2,2,3,2,0,0,2021-08-07 12:15:29,186524
-1,1,1,6,6,3,1,1,2021-08-07 12:15:29,186524
0,1,0,5,12,7,1,0,2021-08-07 12:15:29,186524
1,0,6,13,7,4,0,1,2021-08-07 12:15:29,217530
-2,-6,-6,-14,-14,-7,-4,-3,2021-08-07 12:15:29,217530
-1,0,-1,-2,-3,-2,-3,-2,2021-08-07 12:15:29,217530
-1,-1,-2,-3,-8,-4,0,-1,2021-08-07 12:15:29,217530
-5,-5,-7,-11,-5,-3,-2,-3,2021-08-07 12:15:29,217530
0,-3,-2,4,3,-1,-1,-2,2021-08-07 12:15:29,217530
-2,-1,0,0,-2,-2,-2,-1,2021-08-07 12:15:29,217530
-2,-2,-4,-8,-9,-6,-2,-1,2021-08-07 12:15:29,217530
3,5,7,7,8,5,3,3,2021-08-07 12:15:29,249526
1,1,2,13,20,9,4,2,2021-08-07 12:15:29,249526
4,4,5,2,0,1,2,1,2021-08-07 12:15:29,249526
0,-2,-3,1,3,-2,-1,-2,2021-08-07 12:15:29,249526
1,1,1,2,0,-1,1,1,2021-08-07 12:15:29,265522
-3,-3,-5,-13,-11,-6,-3,-2,2021-08-07 12:15:29,281525
-4,-4,-2,3,4,1,-2,-1,2021-08-07 12:15:29,281525
-2,0,-3,-8,-6,-2,-1,-1,2021-08-07 12:15:29,281525
0,0,0,8,11,4,1,-1,2021-08-07 12:15:29,281525
-2,-1,-3,-5,-6,-4,-2,-3,2021-08-07 12:15:29,282525
-4,-2,-4,-7,-6,-2,-3,-3,2021-08-07 12:15:29,282525
-2,0,-3,-8,-16,-8,-3,-2,2021-08-07 12:15:29,282525
-2,-4,-4,-8,0,-1,-1,-2,2021-08-07 12:15:29,312526
0,1,5,15,17,7,3,0,2021-08-07 12:15:29,328562
1,-3,-3,-5,-3,-3,0,-1,2021-08-07 12:15:29,360525
0,-2,1,6,6,3,0,0,2021-08-07 12:15:29,376525
0,0,-2,-11,-17,-9,-5,-2,2021-08-07 12:15:29,392564
-2,-3,-4,-3,0,-1,-2,-1,2021-08-07 12:15:29,392564
3,5,7,14,17,7,5,4,2021-08-07 12:15:29,392564
0,-1,0,-3,-3,-2,-1,0,2021-08-07 12:15:29,392564
-3,-4,-4,1,-3,-2,-2,-3,2021-08-07 12:15:29,392564
-1,0,-3,-9,-13,-7,-4,1,2021-08-07 12:15:29,392564
-1,-1,2,3,4,1,0,-1,2021-08-07 12:15:29,392564
2,3,5,12,13,7,4,2,2021-08-07 12:15:29,393524
-1,0,-1,0,-1,0,0,-2,2021-08-07 12:15:29,393524
-4,-4,-5,-13,-15,-7,-4,-4,2021-08-07 12:15:29,393524
-2,-5,-5,-3,-4,-4,-3,-3,2021-08-07 12:15:29,393524
3,2,3,7,4,3,1,0,2021-08-07 12:15:29,393524
0,0,0,3,2,1,0,1,2021-08-07 12:15:29,393524
-1,-2,-4,0,-2,-2,0,1,2021-08-07 12:15:29,394522
-3,-4,0,-6,-8,-5,-4,-3,2021-08-07 12:15:29,394522
1,4,20,6,-8,-6,-3,-1,2021-08-07 12:15:29,394522
4,5,8,27,27,15,7,4,2021-08-07 12:15:29,394522
3,2,-18,-10,1,3,3,1,2021-08-07 12:15:29,394522
-8,-6,-23,-31,-13,-10,-7,-4,2021-08-07 12:15:29,424528
-7,-13,-12,-12,-10,-6,-5,-5,2021-08-07 12:15:29,440524
-5,-5,2,-5,-8,-5,-5,-3,2021-08-07 12:15:29,455523
3,6,19,22,11,4,1,1,2021-08-07 12:15:29,455523
3,3,0,2,-3,1,1,3,2021-08-07 12:15:29,455523
0,2,-2,2,8,3,2,0,2021-08-07 12:15:29,455523
2,2,0,-5,-6,-5,0,0,2021-08-07 12:15:29,455523
-2,-4,2,4,2,-1,-1,-2,2021-08-07 12:15:29,455523
1,0,-2,-12,-19,-6,-1,0,2021-08-07 12:15:29,456524
1,1,1,13,14,5,2,1,2021-08-07 12:15:29,456524
1,-2,-1,-1,3,2,1,1,2021-08-07 12:15:29,456524
-5,-6,-5,-3,-1,-3,-3,-4,2021-08-07 12:15:29,456524
-1,-1,0,-6,-6,-5,-3,-1,2021-08-07 12:15:29,471522
2,4,3,2,-1,1,2,5,2021-08-07 12:15:29,471522
-1,-1,-5,-3,-4,-3,-3,-2,2021-08-07 12:15:29,487524
-1,-1,0,-5,-5,-4,-3,0,2021-08-07 12:15:29,487524
-4,-5,-3,-2,-3,-4,-2,-4,2021-08-07 12:15:29,487524
1,-1,-4,2,12,6,1,1,2021-08-07 12:15:29,487524
-4,-1,-1,0,2,-1,-2,-2,2021-08-07 12:15:29,503567
-1,-1,0,-2,-7,-2,-2,-2,2021-08-07 12:15:29,503567
-4,-5,-3,-1,1,-1,-1,-2,2021-08-07 12:15:29,503567
-2,-1,-4,-10,-11,-6,-3,-2,2021-08-07 12:15:29,503567
-1,-3,-2,-4,2,-1,0,-2,2021-08-07 12:15:29,519549
0,4,6,6,5,1,1,1,2021-08-07 12:15:29,534573
1,1,2,3,4,0,-1,0,2021-08-07 12:15:29,566554
-2,-3,-5,-7,-5,-3,-3,-3,2021-08-07 12:15:29,566554
-4,-2,-4,-10,-11,-6,-3,-1,2021-08-07 12:15:29,566554
-2,-2,-4,-10,-11,-5,-2,-2,2021-08-07 12:15:29,566554
0,3,-1,13,19,8,4,1,2021-08-07 12:15:29,566554
1,-1,-3,-7,-4,0,0,1,2021-08-07 12:15:29,566554
-1,-1,2,6,0,-1,0,-2,2021-08-07 12:15:29,567524
-2,1,9,10,8,2,1,-1,2021-08-07 12:15:29,567524
3,3,4,-5,-5,-2,1,1,2021-08-07 12:15:29,567524
-5,-6,-12,-5,-5,-7,-3,-6,2021-08-07 12:15:29,567524
-1,-3,-10,-11,-8,-2,-2,-1,2021-08-07 12:15:29,582525
-1,-2,2,3,1,0,-1,-1,2021-08-07 12:15:29,582525
1,2,6,4,-4,-1,-1,-2,2021-08-07 12:15:29,582525
0,1,4,2,2,1,0,0,2021-08-07 12:15:29,582525
2,3,2,0,2,2,1,2,2021-08-07 12:15:29,614527
-1,-4,-2,0,0,-3,-2,-2,2021-08-07 12:15:29,614527
-4,-4,-3,-1,1,1,2,-1,2021-08-07 12:15:29,614527
-2,1,4,6,5,1,0,-1,2021-08-07 12:15:29,614527
0,3,-2,-9,-7,-4,-2,-1,2021-08-07 12:15:29,630524
0,-2,-3,0,1,-1,-1,-1,2021-08-07 12:15:29,630524
1,1,-1,-1,2,0,0,0,2021-08-07 12:15:29,630524
-2,-4,1,5,4,2,-2,-1,2021-08-07 12:15:29,630524
0,1,2,0,-4,-3,-2,0,2021-08-07 12:15:29,646526
1,0,-7,-13,-16,-6,-3,-1,2021-08-07 12:15:29,646526
-1,-2,0,-5,0,-1,-2,-1,2021-08-07 12:15:29,646526
0,-1,0,3,6,4,2,1,2021-08-07 12:15:29,646526
3,3,5,8,5,3,4,2,2021-08-07 12:15:29,662550
-2,-2,-4,-2,1,0,2,0,2021-08-07 12:15:29,678539
-6,-7,-6,-12,-19,-11,-6,-6,2021-08-07 12:15:29,694551
1,4,-2,-4,5,6,1,1,2021-08-07 12:15:29,694551
-5,-4,-2,-1,-2,-3,-2,-4,2021-08-07 12:15:29,694551
-2,-1,-3,-7,-6,-5,-5,-2,2021-08-07 12:15:29,694551
-4,-2,2,5,1,-1,-3,-3,2021-08-07 12:15:29,694551
2,-1,-3,-3,-5,-4,0,1,2021-08-07 12:15:29,694551
1,-1,2,-2,-5,-2,1,1,2021-08-07 12:15:29,694551
1,0,4,3,9,4,2,1,2021-08-07 12:15:29,694551
-1,-4,-6,-3,-6,-3,-2,0,2021-08-07 12:15:29,710524
-3,-4,-1,3,-1,-3,-4,-4,2021-08-07 12:15:29,710524
1,2,0,4,6,4,1,-1,2021-08-07 12:15:29,717522
1,0,-3,-7,-4,-4,0,-2,2021-08-07 12:15:29,717522
-2,-1,1,1,0,-2,-1,0,2021-08-07 12:15:29,718523
2,-1,3,12,6,3,3,2,2021-08-07 12:15:29,718523
-6,-10,-13,-16,-13,-8,-6,-5,2021-08-07 12:15:29,758523
2,2,3,6,10,6,2,2,2021-08-07 12:15:29,758523
2,3,3,9,7,4,3,2,2021-08-07 12:15:29,758523
0,2,0,0,-1,-2,1,0,2021-08-07 12:15:29,758523
0,0,2,-1,0,1,1,-1,2021-08-07 12:15:29,758523
-5,-5,-10,-15,-14,-9,-5,-5,2021-08-07 12:15:29,758523
-1,0,3,15,17,8,2,0,2021-08-07 12:15:29,774525
-2,-2,4,-8,-12,-6,-3,-1,2021-08-07 12:15:29,774525
-2,-3,4,6,6,2,0,-2,2021-08-07 12:15:29,790525
8,8,2,17,7,5,6,4,2021-08-07 12:15:29,806526
-4,-9,-20,-36,-21,-10,-6,-7,2021-08-07 12:15:29,822524
-5,-6,-8,-15,-11,-7,-6,-4,2021-08-07 12:15:29,822524
2,-2,-3,-5,-6,-4,-1,1,2021-08-07 12:15:29,838529
-1,2,12,17,16,8,2,1,2021-08-07 12:15:29,853548
1,1,6,15,10,5,1,1,2021-08-07 12:15:29,885523
3,8,4,3,1,1,2,1,2021-08-07 12:15:29,885523
1,1,3,2,0,-2,1,0,2021-08-07 12:15:29,885523
-4,-3,-5,-8,-12,-6,-4,-3,2021-08-07 12:15:29,885523
1,-1,-2,-1,0,-1,-1,0,2021-08-07 12:15:29,885523
-2,-3,-3,-5,-6,-3,-4,-1,2021-08-07 12:15:29,885523
-1,0,4,11,11,4,0,1,2021-08-07 12:15:29,885523
-1,-1,-1,2,1,-1,-1,0,2021-08-07 12:15:29,886525
-4,-5,-8,-22,-24,-11,-7,-4,2021-08-07 12:15:29,886525
0,1,-1,0,8,3,1,0,2021-08-07 12:15:29,886525
0,1,0,4,0,2,0,-1,2021-08-07 12:15:29,886525
-3,-4,0,3,-2,-4,-3,-3,2021-08-07 12:15:29,886525
-1,0,7,7,6,3,1,0,2021-08-07 12:15:29,886525
3,3,2,0,-1,0,1,0,2021-08-07 12:15:29,887525
-2,0,-11,-12,-7,-3,-1,0,2021-08-07 12:15:29,887525
-6,-8,-10,-16,-11,-7,-5,-5,2021-08-07 12:15:29,887525
1,1,-1,-6,-7,-3,0,0,2021-08-07 12:15:29,901563
0,-1,5,15,10,2,0,-2,2021-08-07 12:15:29,917560
0,0,5,6,6,2,0,0,2021-08-07 12:15:29,933525
4,3,1,-5,-4,1,0,2,2021-08-07 12:15:29,933525
1,3,3,15,10,3,2,1,2021-08-07 12:15:29,933525
-7,-8,-10,-16,-16,-10,-6,-5,2021-08-07 12:15:29,933525
2,4,2,4,11,6,1,2,2021-08-07 12:15:29,933525
-6,-7,-8,-9,-12,-6,-2,-4,2021-08-07 12:15:29,933525
1,3,6,8,1,3,0,0,2021-08-07 12:15:29,934524
-3,-5,0,9,11,6,0,-3,2021-08-07 12:15:29,934524
2,3,0,-1,-2,-2,-1,0,2021-08-07 12:15:29,934524
-3,-5,-10,-27,-24,-12,-6,-2,2021-08-07 12:15:29,934524
1,4,7,19,20,9,5,3,2021-08-07 12:15:29,948524
-5,-5,-6,-8,-11,-4,-3,-2,2021-08-07 12:15:29,948524
-3,-4,-6,-8,-11,-6,-3,-2,2021-08-07 12:15:29,964524
-1,1,5,10,8,5,3,1,2021-08-07 12:15:29,964524
-4,-5,-7,-8,-6,-5,-2,-4,2021-08-07 12:15:29,964524
4,6,4,-2,-2,0,1,2,2021-08-07 12:15:29,964524
0,-1,2,6,0,-1,-1,-1,2021-08-07 12:15:29,995524
-2,-1,1,1,4,1,0,-2,2021-08-07 12:15:29,995524
2,-1,5,5,2,0,0,1,2021-08-07 12:15:29,995524
0,1,-5,4,7,5,1,2,2021-08-07 12:15:29,995524
-3,-5,-9,-19,-11,-6,-3,-3,2021-08-07 12:15:29,995524
-3,-2,0,3,-5,-3,-1,-2,2021-08-07 12:15:29,995524
-2,-2,-2,-2,4,1,0,0,2021-08-07 12:15:30,027521
3,3,1,-10,-7,-4,1,3,2021-08-07 12:15:30,027521
2,2,3,12,10,5,4,0,2021-08-07 12:15:30,027521
2,2,5,20,15,7,2,1,2021-08-07 12:15:30,027521
-2,-1,0,-7,-3,-2,-2,-3,2021-08-07 12:15:30,027521
1,4,4,6,4,1,2,2,2021-08-07 12:15:30,027521
-5,-5,-9,-8,-10,-7,-3,-2,2021-08-07 12:15:30,057523
-3,-3,-7,-8,-3,-3,-3,-3,2021-08-07 12:15:30,073523
-4,-6,-8,-18,-21,-11,-7,-3,2021-08-07 12:15:30,089524
0,3,4,12,8,3,1,0,2021-08-07 12:15:30,089524
1,1,4,2,1,1,-2,-2,2021-08-07 12:15:30,089524
2,-1,-1,4,7,3,2,3,2021-08-07 12:15:30,089524
-2,-2,-2,-3,-5,-4,-4,-2,2021-08-07 12:15:30,089524
-1,1,0,-11,-10,-5,-3,-1,2021-08-07 12:15:30,090523
-1,1,2,4,0,0,1,-1,2021-08-07 12:15:30,090523
3,4,9,14,16,6,2,2,2021-08-07 12:15:30,090523
-3,-6,-7,1,2,0,-1,-3,2021-08-07 12:15:30,090523
-1,-5,-5,-5,-9,-5,-4,-2,2021-08-07 12:15:30,090523
-4,-4,-12,-33,-37,-18,-7,-4,2021-08-07 12:15:30,104559
3,5,14,34,46,23,8,3,2021-08-07 12:15:30,120526
-1,1,8,17,10,5,1,1,2021-08-07 12:15:30,120526
-1,3,4,10,15,5,2,0,2021-08-07 12:15:30,120526
-1,1,-1,-3,-5,-3,-1,2,2021-08-07 12:15:30,120526
-3,-3,-12,-27,-24,-11,-4,-3,2021-08-07 12:15:30,120526
-1,-2,-3,-7,-9,-4,-3,-1,2021-08-07 12:15:30,136522
-5,-7,-4,1,2,1,-3,-5,2021-08-07 12:15:30,136522
6,9,14,18,17,9,5,3,2021-08-07 12:15:30,136522
-2,-3,-12,-14,-10,-6,-2,-2,2021-08-07 12:15:30,136522
-3,-3,-7,-2,0,-3,-3,-2,2021-08-07 12:15:30,136522
-1,0,-9,-22,-13,-5,-2,-1,2021-08-07 12:15:30,136522
-1,-1,6,12,12,5,2,1,2021-08-07 12:15:30,168525
3,2,7,8,-2,-1,-2,1,2021-08-07 12:15:30,168525
1,1,0,-4,-6,-2,-1,-2,2021-08-07 12:15:30,168525
1,1,1,-2,3,1,0,1,2021-08-07 12:15:30,168525
0,-1,1,8,11,4,1,0,2021-08-07 12:15:30,200522
-3,-3,-4,-6,-9,-6,-3,-3,2021-08-07 12:15:30,216522
-3,-4,-9,-19,-17,-7,-4,-4,2021-08-07 12:15:30,216522
2,2,3,2,2,2,0,0,2021-08-07 12:15:30,216522
-2,-1,1,10,11,4,0,0,2021-08-07 12:15:30,216522
-6,-5,-5,-11,-17,-10,-5,-4,2021-08-07 12:15:30,216522
1,3,7,12,17,6,4,3,2021-08-07 12:15:30,216522
1,1,3,13,4,1,2,0,2021-08-07 12:15:30,216522
0,-2,-9,-13,-8,-3,-1,-4,2021-08-07 12:15:30,232522
-3,-5,-11,-21,-15,-6,-4,-2,2021-08-07 12:15:30,248523
-5,-7,-10,-16,-14,-10,-4,-5,2021-08-07 12:15:30,248523
-1,-2,-1,4,5,3,1,0,2021-08-07 12:15:30,248523
-2,-2,5,16,10,3,1,-1,2021-08-07 12:15:30,264522
6,10,10,13,9,5,5,4,2021-08-07 12:15:30,264522
3,7,8,6,4,3,4,1,2021-08-07 12:15:30,264522
-5,-8,-7,-11,-18,-9,-5,-3,2021-08-07 12:15:30,264522
-7,-9,-7,-10,-7,-5,-4,-6,2021-08-07 12:15:30,264522
2,1,0,-2,5,3,1,1,2021-08-07 12:15:30,264522
1,1,3,6,-1,0,-1,0,2021-08-07 12:15:30,280521
-3,-6,-13,-28,-22,-10,-5,-3,2021-08-07 12:15:30,296522
6,9,18,39,26,13,8,7,2021-08-07 12:15:30,312521
-1,-3,-1,1,-1,0,-2,-3,2021-08-07 12:15:30,312521
3,3,0,1,5,2,1,2,2021-08-07 12:15:30,312521
-4,-5,-2,-4,-8,-7,-4,-5,2021-08-07 12:15:30,312521
-3,-2,-5,-17,-17,-9,-5,-3,2021-08-07 12:15:30,312521
-2,-3,-1,3,9,4,1,0,2021-08-07 12:15:30,313524
3,5,5,16,11,7,3,4,2021-08-07 12:15:30,313524
-2,-3,-5,-11,-8,-5,-3,-3,2021-08-07 12:15:30,313524
-1,-3,-5,-9,-7,-2,-3,-2,2021-08-07 12:15:30,327523
-1,-4,-3,-2,-5,-3,-3,-3,2021-08-07 12:15:30,359523
0,-2,1,3,6,3,1,-1,2021-08-07 12:15:30,359523
1,1,4,16,10,5,0,0,2021-08-07 12:15:30,359523
1,4,2,-1,-3,-4,-1,-1,2021-08-07 12:15:30,359523
-2,-3,1,-1,-3,0,-3,-1,2021-08-07 12:15:30,359523
-6,-4,-6,-13,-16,-8,-6,-4,2021-08-07 12:15:30,359523
3,1,-1,4,9,3,1,2,2021-08-07 12:15:30,360523
-1,-3,-5,-6,-4,-2,-1,0,2021-08-07 12:15:30,360523
-2,-3,-1,-3,-6,-4,-2,-2,2021-08-07 12:15:30,360523
1,2,0,-2,7,3,0,0,2021-08-07 12:15:30,375523
-3,-3,-2,-1,-2,-3,-2,-2,2021-08-07 12:15:30,375523
1,0,-1,6,6,4,3,2,2021-08-07 12:15:30,375523
-2,-3,-2,-4,-4,-3,-1,-2,2021-08-07 12:15:30,375523
1,1,3,1,2,3,2,1,2021-08-07 12:15:30,391523
0,1,3,2,-5,-3,0,-1,2021-08-07 12:15:30,407523
-4,-3,-3,-5,-3,-3,-2,-1,2021-08-07 12:15:30,407523
-2,-1,-3,-9,-7,-4,-2,-2,2021-08-07 12:15:30,407523
-3,-5,-10,-13,-12,-6,-5,-4,2021-08-07 12:15:30,407523
-1,0,0,6,13,4,1,2,2021-08-07 12:15:30,423564
3,2,4,8,4,4,2,2,2021-08-07 12:15:30,423564
-1,-1,-3,1,-5,-1,-1,-1,2021-08-07 12:15:30,423564
-2,-3,-4,-3,-6,-2,-4,-5,2021-08-07 12:15:30,423564
-2,-4,-4,-4,-3,-1,-1,1,2021-08-07 12:15:30,423564
-1,-3,-2,-10,-5,-3,-4,-2,2021-08-07 12:15:30,439523
3,5,5,4,7,3,2,2,2021-08-07 12:15:30,439523
0,0,2,6,1,0,1,0,2021-08-07 12:15:30,455523
1,-1,2,10,0,1,0,-1,2021-08-07 12:15:30,455523
-7,-11,-15,-23,-16,-10,-7,-5,2021-08-07 12:15:30,471523
1,1,-2,2,8,1,0,2,2021-08-07 12:15:30,471523
0,1,7,12,8,1,1,-1,2021-08-07 12:15:30,471523
0,1,3,0,-6,-2,-2,-1,2021-08-07 12:15:30,471523
-1,0,-3,-5,-5,-3,0,-1,2021-08-07 12:15:30,487522
0,-2,-4,-5,-4,0,-2,-1,2021-08-07 12:15:30,502562
-3,-4,-3,-3,-3,-3,-1,0,2021-08-07 12:15:30,502562
2,3,1,1,6,1,1,2,2021-08-07 12:15:30,502562
0,1,0,-1,-3,-1,-3,-2,2021-08-07 12:15:30,502562
-5,-7,-3,-8,-9,-6,-4,-7,2021-08-07 12:15:30,502562
5,3,3,13,13,7,2,2,2021-08-07 12:15:30,502562
-1,0,-2,-7,-7,-2,-1,0,2021-08-07 12:15:30,503525
3,3,3,4,4,2,1,1,2021-08-07 12:15:30,534562
1,1,4,4,1,2,2,2,2021-08-07 12:15:30,534562
-6,-11,-10,-14,-10,-7,-2,-2,2021-08-07 12:15:30,534562
2,1,-1,0,1,2,2,2,2021-08-07 12:15:30,534562
-6,-6,-5,-5,-4,-3,-3,-4,2021-08-07 12:15:30,550562
0,2,3,10,13,3,0,-2,2021-08-07 12:15:30,550562
-3,0,0,-2,1,-1,-3,-3,2021-08-07 12:15:30,550562
-1,1,4,8,4,0,-2,-2,2021-08-07 12:15:30,550562
0,-2,-4,-8,-6,-3,-2,-1,2021-08-07 12:15:30,566527
1,-2,-3,-1,-6,-1,-3,0,2021-08-07 12:15:30,566527
-1,0,-5,-13,-10,-7,-1,0,2021-08-07 12:15:30,566527
-2,-3,-4,-9,-3,-1,-2,-1,2021-08-07 12:15:30,566527
-1,0,1,5,0,-2,0,-1,2021-08-07 12:15:30,597524
-3,-4,-8,-18,-12,-6,-4,-2,2021-08-07 12:15:30,613546
3,3,7,16,10,7,3,2,2021-08-07 12:15:30,629556
3,5,9,11,14,8,4,0,2021-08-07 12:15:30,629556
0,2,2,8,3,0,2,0,2021-08-07 12:15:30,629556
0,-1,-7,-8,-4,-1,1,0,2021-08-07 12:15:30,629556
-1,-2,-5,-11,-9,-7,-5,-2,2021-08-07 12:15:30,645523
-6,-7,-3,-4,-7,-7,-3,-4,2021-08-07 12:15:30,645523
0,-1,1,2,2,1,0,-1,2021-08-07 12:15:30,646526
-1,0,4,5,-3,-2,0,-4,2021-08-07 12:15:30,646526
0,-2,-2,0,-2,-1,1,-1,2021-08-07 12:15:30,646526
7,11,8,9,10,7,3,4,2021-08-07 12:15:30,646526
2,2,7,7,3,2,0,2,2021-08-07 12:15:30,646526
-3,-5,-2,1,-1,-1,-2,-2,2021-08-07 12:15:30,646526
1,2,2,5,3,2,0,1,2021-08-07 12:15:30,647523
-6,-8,-14,-20,-18,-10,-7,-5,2021-08-07 12:15:30,647523
3,3,0,-3,-2,1,0,2,2021-08-07 12:15:30,677525
-2,0,1,2,2,-1,-2,-5,2021-08-07 12:15:30,677525
-2,-3,-3,-1,1,0,-1,-2,2021-08-07 12:15:30,677525
-3,-6,-3,-2,-6,-4,-2,-4,2021-08-07 12:15:30,677525
0,-1,-5,-4,-4,-2,-1,-1,2021-08-07 12:15:30,677525
-1,-2,2,4,9,3,2,2,2021-08-07 12:15:30,677525
-1,-1,-2,-6,-8,-6,-1,-2,2021-08-07 12:15:30,693525
-1,-1,-1,-2,-2,-1,0,2,2021-08-07 12:15:30,693525
-3,-5,-3,-12,-10,-6,-2,-2,2021-08-07 12:15:30,709574
-2,1,2,-1,0,-2,-2,-3,2021-08-07 12:15:30,725523
2,6,12,17,15,7,5,2,2021-08-07 12:15:30,741526
0,-4,-7,-6,-6,0,0,0,2021-08-07 12:15:30,741526
-2,-3,-6,-10,-7,-6,-2,-1,2021-08-07 12:15:30,741526
-1,0,-7,-14,-13,-5,-4,-2,2021-08-07 12:15:30,741526
-1,-1,2,2,1,1,-2,-1,2021-08-07 12:15:30,741526
-1,1,2,2,0,-1,-2,-1,2021-08-07 12:15:30,741526
-2,-4,0,3,1,0,0,-2,2021-08-07 12:15:30,741526
-4,-8,-6,-3,-8,-4,-2,-3,2021-08-07 12:15:30,742563
3,2,6,7,15,8,6,4,2021-08-07 12:15:30,757525
2,5,4,1,0,-1,1,0,2021-08-07 12:15:30,757525
-1,-2,-7,-11,0,-1,-2,-1,2021-08-07 12:15:30,772524
0,3,4,12,4,0,0,2,2021-08-07 12:15:30,772524
-6,-7,-7,-14,-17,-9,-5,-5,2021-08-07 12:15:30,772524
0,-1,-1,2,0,-1,1,0,2021-08-07 12:15:30,772524
2,3,9,22,26,13,5,1,2021-08-07 12:15:30,788524
-4,-7,-9,-16,-13,-7,-4,-4,2021-08-07 12:15:30,788524
0,1,1,0,2,0,-3,0,2021-08-07 12:15:30,788524
-3,-3,-5,-12,-11,-6,-4,-3,2021-08-07 12:15:30,788524
-1,2,2,6,3,2,2,0,2021-08-07 12:15:30,803563
-1,0,3,4,0,-1,-1,-2,2021-08-07 12:15:30,819523
-3,-2,-1,-3,-1,-1,-1,-2,2021-08-07 12:15:30,834524
3,2,5,7,3,3,1,1,2021-08-07 12:15:30,834524
-2,-1,-2,3,2,-1,1,-1,2021-08-07 12:15:30,834524
-1,-3,-9,-12,-4,-3,-2,0,2021-08-07 12:15:30,834524
-6,-7,-13,-14,-10,-7,-8,-4,2021-08-07 12:15:30,835525
-3,-1,-2,-11,-9,-5,-3,0,2021-08-07 12:15:30,835525
0,-1,2,5,3,2,0,-1,2021-08-07 12:15:30,850522
5,13,15,22,19,8,5,5,2021-08-07 12:15:30,850522
0,2,5,8,0,-1,1,-2,2021-08-07 12:15:30,850522
1,-5,-5,-1,2,1,-1,-1,2021-08-07 12:15:30,850522
-4,-8,-15,-15,-14,-7,-7,-4,2021-08-07 12:15:30,881522
-4,-9,-14,-17,-12,-8,-6,-2,2021-08-07 12:15:30,897527
-1,1,-2,-4,-5,-2,-2,-2,2021-08-07 12:15:30,897527
-1,-1,6,11,4,0,-1,-1,2021-08-07 12:15:30,897527
-1,-1,-1,-9,-8,-5,-4,-2,2021-08-07 12:15:30,897527
4,5,7,12,9,6,4,2,2021-08-07 12:15:30,897527
2,1,-1,3,-3,-2,0,1,2021-08-07 12:15:30,897527
0,2,2,2,9,6,1,1,2021-08-07 12:15:30,898524
-2,-2,2,7,1,0,0,-2,2021-08-07 12:15:30,913559
-3,-4,-2,-6,-7,-1,-3,-2,2021-08-07 12:15:30,913559
-1,-1,2,9,4,2,1,0,2021-08-07 12:15:30,913559
-7,-10,-10,-14,-9,-6,-5,-6,2021-08-07 12:15:30,913559
4,9,10,10,9,3,2,5,2021-08-07 12:15:30,929522
-2,-2,-2,2,-2,-3,0,-1,2021-08-07 12:15:30,945524
3,2,-7,-18,-11,-3,0,3,2021-08-07 12:15:30,945524
-3,-3,-11,-13,-4,-1,-2,-2,2021-08-07 12:15:30,945524
-4,-4,-6,-10,-3,-5,-4,-3,2021-08-07 12:15:30,945524
2,2,12,20,11,5,2,1,2021-08-07 12:15:30,945524
-3,-2,3,8,8,4,0,0,2021-08-07 12:15:30,946524
4,7,7,11,8,4,4,4,2021-08-07 12:15:30,946524
0,-1,-3,-7,-3,-1,-1,0,2021-08-07 12:15:30,977522
-2,0,0,3,1,0,1,-1,2021-08-07 12:15:30,993526
-2,-5,-2,-6,-5,-3,-3,-3,2021-08-07 12:15:30,993526
-2,-1,-1,0,-7,-4,-2,-1,2021-08-07 12:15:30,993526
-1,-2,-2,-7,-8,-3,-1,-1,2021-08-07 12:15:30,993526
-2,-4,-5,-9,-7,-4,-2,-2,2021-08-07 12:15:30,993526
1,3,5,7,6,3,2,2,2021-08-07 12:15:30,993526
2,2,3,8,2,0,3,1,2021-08-07 12:15:30,993526
-3,-2,-4,-1,-2,-2,-2,-2,2021-08-07 12:15:31,009523
0,-4,-3,-2,4,2,-1,-1,2021-08-07 12:15:31,025523
-2,-2,-6,-8,-10,-6,-3,-3,2021-08-07 12:15:31,057522
-4,-6,-9,-18,-11,-7,-4,-4,2021-08-07 12:15:31,073524
2,6,14,23,14,8,2,2,2021-08-07 12:15:31,073524
3,5,0,-2,6,3,5,3,2021-08-07 12:15:31,073524
3,3,-3,-3,-2,1,1,3,2021-08-07 12:15:31,073524
-3,-4,-5,-9,-6,-6,-3,-4,2021-08-07 12:15:31,073524
-4,-4,-6,-11,-11,-6,-4,-4,2021-08-07 12:15:31,073524
-4,-7,-5,-2,-8,-5,-6,-3,2021-08-07 12:15:31,073524
4,4,11,16,20,10,4,2,2021-08-07 12:15:31,073524
4,5,4,12,12,4,4,4,2021-08-07 12:15:31,073524
-4,-3,-7,-14,-12,-6,-2,-3,2021-08-07 12:15:31,073524
-5,-6,-10,-15,-12,-7,-5,-4,2021-08-07 12:15:31,074523
-3,-1,0,4,2,-1,-1,-1,2021-08-07 12:15:31,074523
-2,-2,4,5,3,-1,-2,-1,2021-08-07 12:15:31,074523
1,1,4,4,0,3,1,1,2021-08-07 12:15:31,089523
-2,-2,-3,-6,-6,-4,-2,-2,2021-08-07 12:15:31,089523
-3,-6,-8,-9,-8,-3,-3,-2,2021-08-07 12:15:31,089523
1,4,11,22,15,7,2,0,2021-08-07 12:15:31,089523
1,1,0,-2,-7,-3,0,2,2021-08-07 12:15:31,104522
-2,-3,-7,-8,-3,-1,-1,-2,2021-08-07 12:15:31,105523
-4,-4,-3,1,-1,-2,-2,-1,2021-08-07 12:15:31,121523
-4,-7,-12,-14,-8,-5,-4,-4,2021-08-07 12:15:31,137522
-1,1,4,4,0,-1,-2,-1,2021-08-07 12:15:31,153524
3,7,8,2,0,0,2,2,2021-08-07 12:15:31,169521
5,4,2,3,10,7,4,3,2021-08-07 12:15:31,169521
-5,-6,-11,-11,-8,-7,-5,-5,2021-08-07 12:15:31,169521
-4,-5,-4,-5,-5,-5,-1,-4,2021-08-07 12:15:31,169521
-4,-8,-6,-4,-3,-4,-5,-3,2021-08-07 12:15:31,169521
-1,1,0,0,-3,-3,-1,0,2021-08-07 12:15:31,169521
2,2,7,9,-1,2,1,2,2021-08-07 12:15:31,170523
-2,1,-3,-9,0,1,0,0,2021-08-07 12:15:31,170523
0,3,10,15,5,2,1,0,2021-08-07 12:15:31,170523
-3,-4,-7,-9,-8,-4,-3,-3,2021-08-07 12:15:31,170523
0,2,-1,1,4,3,1,1,2021-08-07 12:15:31,170523
-5,-9,-10,-12,-12,-10,-4,-4,2021-08-07 12:15:31,185525
0,1,0,2,4,1,1,1,2021-08-07 12:15:31,201523
0,-1,-3,-11,-8,-3,-2,-2,2021-08-07 12:15:31,201523
3,5,7,2,0,3,2,3,2021-08-07 12:15:31,201523
1,-1,-2,5,2,2,0,-1,2021-08-07 12:15:31,201523
-2,-3,-9,-10,-7,-3,-3,-1,2021-08-07 12:15:31,217523
-1,0,1,-4,-8,-6,-2,-3,2021-08-07 12:15:31,233523
-1,-2,2,11,8,2,-1,-1,2021-08-07 12:15:31,233523
0,-2,-4,1,8,3,0,-1,2021-08-07 12:15:31,233523
2,2,-1,-11,-6,-4,-2,0,2021-08-07 12:15:31,233523
-3,-5,-1,3,2,-1,-1,-1,2021-08-07 12:15:31,233523
2,4,2,-5,-10,-5,0,-1,2021-08-07 12:15:31,233523
1,2,5,14,13,6,4,0,2021-08-07 12:15:31,249523
2,2,3,13,11,6,2,0,2021-08-07 12:15:31,249523
-3,-3,-4,-9,-11,-6,-3,-4,2021-08-07 12:15:31,265523
-4,-6,-4,-2,-3,-2,-5,-3,2021-08-07 12:15:31,265523
0,0,-2,-8,-1,0,0,2,2021-08-07 12:15:31,265523
0,2,5,16,15,8,3,1,2021-08-07 12:15:31,265523
-1,-1,-3,-3,-3,-2,-1,-1,2021-08-07 12:15:31,265523
-1,-1,-2,-6,-9,-2,-2,0,2021-08-07 12:15:31,265523
1,2,2,5,4,1,1,0,2021-08-07 12:15:31,297525
-2,-1,1,5,3,0,-2,0,2021-08-07 12:15:31,313524
-1,1,3,-1,0,2,0,-1,2021-08-07 12:15:31,328522
-4,-5,-4,-6,-8,-5,-2,0,2021-08-07 12:15:31,328522
3,7,4,-4,-2,-1,1,1,2021-08-07 12:15:31,328522
0,0,3,2,-3,0,0,-2,2021-08-07 12:15:31,328522
-4,-4,-3,-8,-6,-7,-2,-2,2021-08-07 12:15:31,328522
0,-1,1,8,12,4,3,1,2021-08-07 12:15:31,329525
-2,-3,-7,-1,-1,-2,-3,-2,2021-08-07 12:15:31,329525
2,1,2,0,1,2,2,2,2021-08-07 12:15:31,329525
-6,-14,-9,-5,-4,-3,-3,-4,2021-08-07 12:15:31,329525
2,11,2,2,6,2,2,2,2021-08-07 12:15:31,329525
-8,-18,-12,-11,-16,-11,-8,-7,2021-08-07 12:15:31,360523
4,7,6,15,22,10,5,3,2021-08-07 12:15:31,376523
10,13,11,9,5,8,5,6,2021-08-07 12:15:31,408523
0,1,3,3,9,4,2,0,2021-08-07 12:15:31,424524
-1,5,3,0,-2,-2,-1,-2,2021-08-07 12:15:31,424524
-5,-4,-3,-11,-13,-9,-4,-5,2021-08-07 12:15:31,424524
-4,-7,-6,-5,-5,-5,-3,-3,2021-08-07 12:15:31,424524
1,0,-1,1,2,0,0,-3,2021-08-07 12:15:31,424524
1,2,1,-1,-2,0,1,3,2021-08-07 12:15:31,424524
-2,-11,-8,-8,-6,-3,-2,-1,2021-08-07 12:15:31,425524
3,3,0,2,3,1,3,2,2021-08-07 12:15:31,425524
-3,-4,-9,-9,-10,-6,-3,-2,2021-08-07 12:15:31,425524
-4,-5,0,-4,-6,-3,-3,-5,2021-08-07 12:15:31,425524
0,3,3,10,11,4,2,1,2021-08-07 12:15:31,425524
0,4,5,9,7,1,0,-3,2021-08-07 12:15:31,439523
-3,-1,-1,-3,-7,-5,-3,-3,2021-08-07 12:15:31,439523
6,5,13,19,15,7,3,3,2021-08-07 12:15:31,439523
0,-3,-10,-16,-13,-6,-4,-3,2021-08-07 12:15:31,439523
-7,-9,-14,-15,-10,-8,-6,-4,2021-08-07 12:15:31,439523
-1,-5,0,3,7,2,0,-1,2021-08-07 12:15:31,439523
0,-4,-5,-5,-3,-2,1,2,2021-08-07 12:15:31,455523
-1,3,4,0,-8,-5,-3,0,2021-08-07 12:15:31,470522
3,6,7,10,10,6,3,2,2021-08-07 12:15:31,486522
2,-1,-2,4,-1,3,2,0,2021-08-07 12:15:31,502524
-5,-5,-3,-5,-8,-4,-2,-5,2021-08-07 12:15:31,517521
-2,-2,-3,-9,-12,-8,-3,-2,2021-08-07 12:15:31,533522
3,5,4,10,11,6,1,3,2021-08-07 12:15:31,548522
1,0,-2,-6,3,1,-1,1,2021-08-07 12:15:31,548522
1,1,2,5,2,1,0,0,2021-08-07 12:15:31,548522
-5,-7,-10,-8,-11,-5,-5,-5,2021-08-07 12:15:31,548522
-3,-3,1,-1,-4,-3,-3,-3,2021-08-07 12:15:31,548522
4,5,2,0,-2,0,2,2,2021-08-07 12:15:31,548522
-1,1,0,4,5,1,-2,0,2021-08-07 12:15:31,549523
-2,-1,-5,-6,0,-1,-1,-2,2021-08-07 12:15:31,549523
-2,-4,-4,-10,-9,-5,-3,-4,2021-08-07 12:15:31,549523
-2,-4,-5,-6,-10,-6,-4,-1,2021-08-07 12:15:31,549523
-2,-1,-3,-4,6,-1,1,-1,2021-08-07 12:15:31,549523
1,5,8,7,6,5,1,2,2021-08-07 12:15:31,549523
-4,-7,-8,-4,-6,-3,-3,-2,2021-08-07 12:15:31,549523
0,-1,2,7,3,2,0,-1,2021-08-07 12:15:31,550522
0,-1,-6,-13,-11,-6,-2,-1,2021-08-07 12:15:31,550522
3,9,10,14,9,4,4,2,2021-08-07 12:15:31,550522
-1,3,0,3,0,0,0,2,2021-08-07 12:15:31,550522
-3,-3,-2,-3,-7,-3,-2,-3,2021-08-07 12:15:31,550522
-4,-5,-5,-15,-13,-6,-2,-5,2021-08-07 12:15:31,579526
-4,-7,-3,5,8,3,-2,-4,2021-08-07 12:15:31,579526
7,8,7,4,6,5,4,5,2021-08-07 12:15:31,579526
-1,-2,-1,0,-2,-4,-1,-2,2021-08-07 12:15:31,579526
