Timestamp,Milliseconds,EMG 1,EMG 2,EMG 3,EMG 4,EMG 5,EMG 6,EMG 7,EMG 8

16:54:31.623347,623347,17,0,3,7,4,3,6,29
16:54:31.624348,624348,22,3,4,8,7,6,8,46
16:54:31.624348,624348,29,10,8,8,9,15,8,56
16:54:31.624348,624348,29,10,8,8,10,17,17,83
16:54:31.624348,624348,36,14,13,14,13,19,41,116
16:54:31.624348,624348,36,22,18,16,17,19,68,139
16:54:31.624348,624348,47,33,23,17,19,22,76,157
16:54:31.624348,624348,61,38,38,23,22,24,85,165
16:54:31.625349,625349,61,38,38,23,22,24,85,165
16:54:31.626348,626348,61,38,38,23,22,24,85,165
16:54:31.627348,627348,61,38,38,23,22,24,85,165
16:54:31.628348,628348,61,38,38,23,22,24,85,165
16:54:31.629348,629348,61,38,38,23,22,24,85,165
16:54:31.630349,630349,61,38,38,23,22,24,85,165
16:54:31.631349,631349,61,38,38,23,22,24,85,165
16:54:31.631349,631349,61,78,53,25,22,23,157,247
16:54:31.632349,632349,61,78,53,25,22,23,157,247
16:54:31.633349,633349,61,78,53,25,22,23,157,247
16:54:31.634349,634349,61,78,53,25,22,23,157,247
16:54:31.635349,635349,61,78,53,25,22,23,157,247
16:54:31.636350,636350,61,78,53,25,22,23,157,247
16:54:31.637349,637349,61,78,53,25,22,23,157,247
16:54:31.638349,638349,61,78,53,25,22,23,157,247
16:54:31.639350,639350,61,78,53,25,22,23,157,247
16:54:31.640351,640351,61,78,53,25,22,23,157,247
16:54:31.641349,641349,61,78,53,25,22,23,157,247
16:54:31.642349,642349,61,78,53,25,22,23,157,247
16:54:31.643349,643349,61,78,53,25,22,23,157,247
16:54:31.644349,644349,61,78,53,25,22,23,157,247
16:54:31.645349,645349,61,78,53,25,22,23,157,247
16:54:31.646350,646350,61,78,53,25,22,23,157,247
16:54:31.646350,646350,55,73,51,26,22,15,162,250
16:54:31.647350,647350,55,73,51,26,22,15,162,250
16:54:31.648348,648348,55,73,51,26,22,15,162,250
16:54:31.649349,649349,55,73,51,26,22,15,162,250
16:54:31.650350,650350,55,73,51,26,22,15,162,250
16:54:31.651350,651350,55,73,51,26,22,15,162,250
16:54:31.652351,652351,55,73,51,26,22,15,162,250
16:54:31.652351,652351,56,76,55,27,21,14,162,236
16:54:31.653350,653350,56,76,55,27,21,14,162,236
16:54:31.654350,654350,56,76,55,27,21,14,162,236
16:54:31.655350,655350,56,76,55,27,21,14,162,236
16:54:31.656351,656351,56,76,55,27,21,14,162,236
16:54:31.657350,657350,56,76,55,27,21,14,162,236
16:54:31.658349,658349,56,76,55,27,21,14,162,236
16:54:31.659350,659350,56,76,55,27,21,14,162,236
16:54:31.660350,660350,56,76,55,27,21,14,162,236
16:54:31.661350,661350,56,76,55,27,21,14,162,236
16:54:31.662349,662349,56,76,55,27,21,14,162,236
16:54:31.663349,663349,56,76,55,27,21,14,162,236
16:54:31.664349,664349,56,76,55,27,21,14,162,236
16:54:31.665349,665349,56,76,55,27,21,14,162,236
16:54:31.666349,666349,56,76,55,27,21,14,162,236
16:54:31.667349,667349,56,76,55,27,21,14,162,236
16:54:31.668350,668350,56,76,55,27,21,14,162,236
16:54:31.669348,669348,56,76,55,27,21,14,162,236
16:54:31.670348,670348,56,76,55,27,21,14,162,236
16:54:31.671348,671348,56,76,55,27,21,14,162,236
16:54:31.671348,671348,60,75,55,23,19,19,148,204
16:54:31.672350,672350,60,75,55,23,19,19,148,204
16:54:31.673349,673349,60,75,55,23,19,19,148,204
16:54:31.674350,674350,60,75,55,23,19,19,148,204
16:54:31.675349,675349,60,75,55,23,19,19,148,204
16:54:31.676349,676349,60,75,55,23,19,19,148,204
16:54:31.677349,677349,64,67,54,23,19,21,129,182
16:54:31.678349,678349,64,67,54,23,19,21,129,182
16:54:31.679349,679349,64,67,54,23,19,21,129,182
16:54:31.680348,680348,64,67,54,23,19,21,129,182
16:54:31.681349,681349,64,67,54,23,19,21,129,182
16:54:31.682350,682350,64,67,54,23,19,21,129,182
16:54:31.682350,682350,53,57,52,24,19,20,126,165
16:54:31.683349,683349,53,57,52,24,19,20,126,165
16:54:31.684350,684350,53,57,52,24,19,20,126,165
16:54:31.685349,685349,53,57,52,24,19,20,126,165
16:54:31.686350,686350,53,57,52,24,19,20,126,165
16:54:31.687349,687349,53,57,52,24,19,20,126,165
16:54:31.688349,688349,53,57,52,24,19,20,126,165
16:54:31.689351,689351,53,57,52,24,19,20,126,165
16:54:31.689351,689351,40,39,36,24,19,22,105,192
16:54:31.689351,689351,42,31,31,20,16,21,80,161
16:54:31.689351,689351,54,23,33,25,19,22,78,158
16:54:31.689351,689351,51,16,35,23,25,23,77,186
16:54:31.690349,690349,51,16,35,23,25,23,77,186
16:54:31.691348,691348,51,16,35,23,25,23,77,186
16:54:31.692348,692348,51,16,35,23,25,23,77,186
16:54:31.693348,693348,51,16,35,23,25,23,77,186
16:54:31.694348,694348,51,16,35,23,25,23,77,186
16:54:31.695349,695349,51,16,35,23,25,23,77,186
16:54:31.696348,696348,51,16,35,23,25,23,77,186
16:54:31.697348,697348,51,16,35,23,25,23,77,186
16:54:31.698349,698349,51,16,35,23,25,23,77,186
16:54:31.699350,699350,51,16,35,23,25,23,77,186
16:54:31.700349,700349,51,16,35,23,25,23,77,186
16:54:31.701348,701348,51,16,35,23,25,23,77,186
16:54:31.702348,702348,51,16,35,23,25,23,77,186
16:54:31.703348,703348,51,16,35,23,25,23,77,186
16:54:31.704348,704348,66,28,54,24,31,24,72,182
16:54:31.705349,705349,66,28,54,24,31,24,72,182
16:54:31.706348,706348,66,28,54,24,31,24,72,182
16:54:31.707349,707349,66,28,54,24,31,24,72,182
16:54:31.708348,708348,66,28,54,24,31,24,72,182
16:54:31.709348,709348,66,28,54,24,31,24,72,182
16:54:31.710348,710348,66,28,54,24,31,24,72,182
16:54:31.711348,711348,66,28,54,24,31,24,72,182
16:54:31.712348,712348,66,28,54,24,31,24,72,182
16:54:31.713349,713349,66,28,54,24,31,24,72,182
16:54:31.714348,714348,66,28,54,24,31,24,72,182
16:54:31.715348,715348,66,28,54,24,31,24,72,182
16:54:31.716349,716349,66,28,54,24,31,24,72,182
16:54:31.717348,717348,66,28,54,24,31,24,72,182
16:54:31.718348,718348,66,28,54,24,31,24,72,182
16:54:31.719348,719348,66,28,54,24,31,24,72,182
16:54:31.720348,720348,66,28,54,24,31,24,72,182
16:54:31.721349,721349,66,28,54,24,31,24,72,182
16:54:31.722349,722349,66,28,54,24,31,24,72,182
16:54:31.722349,722349,54,45,50,26,33,18,92,195
16:54:31.723349,723349,54,45,50,26,33,18,92,195
16:54:31.724349,724349,54,45,50,26,33,18,92,195
16:54:31.725348,725348,54,45,50,26,33,18,92,195
16:54:31.726348,726348,54,45,50,26,33,18,92,195
16:54:31.727348,727348,54,45,50,26,33,18,92,195
16:54:31.728348,728348,54,45,50,26,33,18,92,195
16:54:31.729348,729348,54,45,50,26,33,18,92,195
16:54:31.730348,730348,54,45,50,26,33,18,92,195
16:54:31.731349,731349,54,45,50,26,33,18,92,195
16:54:31.732348,732348,54,45,50,26,33,18,92,195
16:54:31.733349,733349,54,45,50,26,33,18,92,195
16:54:31.734349,734349,54,45,50,26,33,18,92,195
16:54:31.735349,735349,54,45,50,26,33,18,92,195
16:54:31.736347,736347,54,45,50,26,33,18,92,195
16:54:31.737350,737350,54,45,50,26,33,18,92,195
16:54:31.738350,738350,54,45,50,26,33,18,92,195
16:54:31.739349,739349,54,45,50,26,33,18,92,195
16:54:31.740349,740349,54,45,50,26,33,18,92,195
16:54:31.741349,741349,54,45,50,26,33,18,92,195
16:54:31.742349,742349,54,45,50,26,33,18,92,195
16:54:31.743348,743348,54,45,50,26,33,18,92,195
16:54:31.744347,744347,54,45,50,26,33,18,92,195
16:54:31.745348,745348,54,45,50,26,33,18,92,195
16:54:31.746348,746348,54,45,50,26,33,18,92,195
16:54:31.747347,747347,54,45,50,26,33,18,92,195
16:54:31.748347,748347,54,45,50,26,33,18,92,195
16:54:31.749350,749350,54,45,50,26,33,18,92,195
16:54:31.750349,750349,54,45,50,26,33,18,92,195
16:54:31.751347,751347,54,45,50,26,33,18,92,195
16:54:31.751347,751347,56,55,46,30,34,35,100,195
16:54:31.752348,752348,56,55,46,30,34,35,100,195
16:54:31.753347,753347,56,55,46,30,34,35,100,195
16:54:31.754347,754347,56,55,46,30,34,35,100,195
16:54:31.755348,755348,56,55,46,30,34,35,100,195
16:54:31.756347,756347,56,55,46,30,34,35,100,195
16:54:31.756347,756347,44,50,16,60,51,44,90,239
16:54:31.757348,757348,44,50,16,60,51,44,90,239
16:54:31.758348,758348,44,50,16,60,51,44,90,239
16:54:31.759348,759348,44,50,16,60,51,44,90,239
16:54:31.760349,760349,44,50,16,60,51,44,90,239
16:54:31.761347,761347,44,50,16,60,51,44,90,239
16:54:31.762347,762347,44,50,16,60,51,44,90,239
16:54:31.763348,763348,44,50,16,60,51,44,90,239
16:54:31.764347,764347,44,50,16,60,51,44,90,239
16:54:31.765348,765348,44,50,16,60,51,44,90,239
16:54:31.766350,766350,44,50,16,60,51,44,90,239
16:54:31.767349,767349,44,50,16,60,51,44,90,239
16:54:31.768347,768347,44,50,16,60,51,44,90,239
16:54:31.769347,769347,44,50,16,60,51,44,90,239
16:54:31.770347,770347,44,50,16,60,51,44,90,239
16:54:31.770347,770347,54,56,63,98,124,53,78,255
16:54:31.771348,771348,54,56,63,98,124,53,78,255
16:54:31.772348,772348,54,56,63,98,124,53,78,255
16:54:31.773347,773347,54,56,63,98,124,53,78,255
16:54:31.774347,774347,54,56,63,98,124,53,78,255
16:54:31.775347,775347,54,56,63,98,124,53,78,255
16:54:31.776347,776347,54,56,63,98,124,53,78,255
16:54:31.777348,777348,54,56,63,98,124,53,78,255
16:54:31.778347,778347,54,56,63,98,124,53,78,255
16:54:31.779348,779348,54,56,63,98,124,53,78,255
16:54:31.780349,780349,54,56,63,98,124,53,78,255
16:54:31.781347,781347,54,56,63,98,124,53,78,255
16:54:31.782349,782349,54,56,63,98,124,53,78,255
16:54:31.783349,783349,54,56,63,98,124,53,78,255
16:54:31.784347,784347,54,56,63,98,124,53,78,255
16:54:31.785348,785348,54,56,63,98,124,53,78,255
16:54:31.786348,786348,54,56,63,98,124,53,78,255
16:54:31.786348,786348,54,64,72,96,143,43,90,272
16:54:31.787348,787348,54,64,72,96,143,43,90,272
16:54:31.788347,788347,54,64,72,96,143,43,90,272
16:54:31.789348,789348,54,64,72,96,143,43,90,272
16:54:31.790348,790348,54,64,72,96,143,43,90,272
16:54:31.791347,791347,54,64,72,96,143,43,90,272
16:54:31.792347,792347,54,64,72,96,143,43,90,272
16:54:31.793348,793348,54,64,72,96,143,43,90,272
16:54:31.794351,794351,54,64,72,96,143,43,90,272
16:54:31.794351,794351,66,60,74,89,156,45,121,240
16:54:31.795350,795350,66,60,74,89,156,45,121,240
16:54:31.796349,796349,66,60,74,89,156,45,121,240
16:54:31.797349,797349,66,60,74,89,156,45,121,240
16:54:31.798349,798349,66,60,74,89,156,45,121,240
16:54:31.799350,799350,66,60,74,89,156,45,121,240
16:54:31.800350,800350,66,60,74,89,156,45,121,240
16:54:31.801350,801350,66,60,74,89,156,45,121,240
16:54:31.802349,802349,66,60,74,89,156,45,121,240
16:54:31.802349,802349,62,59,72,75,171,47,116,238
16:54:31.802349,802349,61,60,76,81,166,43,111,192
16:54:31.803349,803349,61,60,76,81,166,43,111,192
16:54:31.804348,804348,61,60,76,81,166,43,111,192
16:54:31.805348,805348,61,60,76,81,166,43,111,192
16:54:31.806348,806348,61,60,76,81,166,43,111,192
16:54:31.807348,807348,61,60,76,81,166,43,111,192
16:54:31.808348,808348,61,60,76,81,166,43,111,192
16:54:31.809348,809348,61,60,76,81,166,43,111,192
16:54:31.810348,810348,61,60,76,81,166,43,111,192
16:54:31.811348,811348,61,60,76,81,166,43,111,192
16:54:31.812348,812348,61,60,76,81,166,43,111,192
16:54:31.813348,813348,61,60,76,81,166,43,111,192
16:54:31.814348,814348,61,60,76,81,166,43,111,192
16:54:31.815349,815349,61,60,76,81,166,43,111,192
16:54:31.816349,816349,61,60,76,81,166,43,111,192
16:54:31.817348,817348,61,60,76,81,166,43,111,192
16:54:31.818348,818348,61,60,76,81,166,43,111,192
16:54:31.819348,819348,61,60,76,81,166,43,111,192
16:54:31.820348,820348,61,60,76,81,166,43,111,192
16:54:31.821348,821348,61,60,76,81,166,43,111,192
16:54:31.822349,822349,61,60,76,81,166,43,111,192
16:54:31.823349,823349,61,60,76,81,166,43,111,192
16:54:31.824348,824348,61,60,76,81,166,43,111,192
16:54:31.825349,825349,61,60,76,81,166,43,111,192
16:54:31.826348,826348,61,60,76,81,166,43,111,192
16:54:31.827348,827348,61,60,76,81,166,43,111,192
16:54:31.828348,828348,61,60,76,81,166,43,111,192
16:54:31.829348,829348,61,60,76,81,166,43,111,192
16:54:31.830348,830348,61,60,76,81,166,43,111,192
16:54:31.831349,831349,61,60,76,81,166,43,111,192
16:54:31.832349,832349,61,60,76,81,166,43,111,192
16:54:31.833348,833348,61,60,76,81,166,43,111,192
16:54:31.833348,833348,60,59,72,56,150,45,116,139
16:54:31.833348,833348,60,43,43,46,91,46,108,140
16:54:31.833348,833348,59,45,42,47,94,46,89,192
16:54:31.833348,833348,55,44,41,62,111,47,83,170
16:54:31.833348,833348,64,56,44,63,156,53,86,176
16:54:31.833348,833348,60,53,62,76,151,52,83,136
16:54:31.834349,834349,60,53,62,76,151,52,83,136
16:54:31.835348,835348,60,53,62,76,151,52,83,136
16:54:31.836348,836348,60,53,62,76,151,52,83,136
16:54:31.837348,837348,60,53,62,76,151,52,83,136
16:54:31.838348,838348,60,53,62,76,151,52,83,136
16:54:31.839348,839348,60,53,62,76,151,52,83,136
16:54:31.840348,840348,60,53,62,76,151,52,83,136
16:54:31.841348,841348,60,53,62,76,151,52,83,136
16:54:31.842348,842348,60,53,62,76,151,52,83,136
16:54:31.843348,843348,60,53,62,76,151,52,83,136
16:54:31.844348,844348,60,53,62,76,151,52,83,136
16:54:31.845348,845348,60,53,62,76,151,52,83,136
16:54:31.846348,846348,60,53,62,76,151,52,83,136
16:54:31.847348,847348,47,56,112,91,197,50,53,166
16:54:31.848349,848349,47,56,112,91,197,50,53,166
16:54:31.849349,849349,47,56,112,91,197,50,53,166
16:54:31.850349,850349,47,56,112,91,197,50,53,166
16:54:31.851348,851348,47,56,112,91,197,50,53,166
16:54:31.852348,852348,47,56,112,91,197,50,53,166
16:54:31.853349,853349,47,56,112,91,197,50,53,166
16:54:31.854349,854349,47,56,112,91,197,50,53,166
16:54:31.855348,855348,47,56,112,91,197,50,53,166
16:54:31.856348,856348,47,56,112,91,197,50,53,166
16:54:31.857348,857348,47,56,112,91,197,50,53,166
16:54:31.858349,858349,47,56,112,91,197,50,53,166
16:54:31.859349,859349,47,56,112,91,197,50,53,166
16:54:31.860349,860349,47,56,112,91,197,50,53,166
16:54:31.861349,861349,62,58,155,131,197,80,107,351
16:54:31.862349,862349,62,58,155,131,197,80,107,351
16:54:31.863348,863348,62,58,155,131,197,80,107,351
16:54:31.864348,864348,62,58,155,131,197,80,107,351
16:54:31.865349,865349,62,58,155,131,197,80,107,351
16:54:31.866349,866349,62,58,155,131,197,80,107,351
16:54:31.867348,867348,62,58,155,131,197,80,107,351
16:54:31.868348,868348,62,58,155,131,197,80,107,351
16:54:31.869350,869350,62,58,155,131,197,80,107,351
16:54:31.870348,870348,62,58,155,131,197,80,107,351
16:54:31.871348,871348,62,58,155,131,197,80,107,351
16:54:31.872348,872348,62,58,155,131,197,80,107,351
16:54:31.873348,873348,62,58,155,131,197,80,107,351
16:54:31.874348,874348,62,58,155,131,197,80,107,351
16:54:31.875348,875348,62,58,155,131,197,80,107,351
16:54:31.876348,876348,62,58,155,131,197,80,107,351
16:54:31.877348,877348,62,58,155,131,197,80,107,351
16:54:31.878350,878350,62,58,155,131,197,80,107,351
16:54:31.879349,879349,62,58,155,131,197,80,107,351
16:54:31.880348,880348,62,58,155,131,197,80,107,351
16:54:31.881348,881348,62,58,155,131,197,80,107,351
16:54:31.882349,882349,62,58,155,131,197,80,107,351
16:54:31.883349,883349,62,58,155,131,197,80,107,351
16:54:31.884349,884349,62,58,155,131,197,80,107,351
16:54:31.885348,885348,62,58,155,131,197,80,107,351
16:54:31.886348,886348,62,58,155,131,197,80,107,351
16:54:31.886348,886348,56,56,173,137,194,72,118,307
16:54:31.887349,887349,56,56,173,137,194,72,118,307
16:54:31.888348,888348,56,56,173,137,194,72,118,307
16:54:31.889349,889349,56,56,173,137,194,72,118,307
16:54:31.890348,890348,56,56,173,137,194,72,118,307
16:54:31.891349,891349,56,56,173,137,194,72,118,307
16:54:31.892348,892348,56,56,173,137,194,72,118,307
16:54:31.892348,892348,40,43,184,139,224,71,108,356
16:54:31.892348,892348,42,37,165,137,220,72,125,356
16:54:31.893349,893349,42,37,165,137,220,72,125,356
16:54:31.894348,894348,42,37,165,137,220,72,125,356
16:54:31.895348,895348,42,37,165,137,220,72,125,356
16:54:31.896348,896348,42,37,165,137,220,72,125,356
16:54:31.897348,897348,42,37,165,137,220,72,125,356
16:54:31.898347,898347,42,37,165,137,220,72,125,356
16:54:31.899349,899349,42,37,165,137,220,72,125,356
16:54:31.900348,900348,42,37,165,137,220,72,125,356
16:54:31.900348,900348,37,38,175,136,166,78,126,368
16:54:31.901349,901349,37,38,175,136,166,78,126,368
16:54:31.902348,902348,37,38,175,136,166,78,126,368
16:54:31.903348,903348,37,38,175,136,166,78,126,368
16:54:31.904348,904348,37,38,175,136,166,78,126,368
16:54:31.905348,905348,37,38,175,136,166,78,126,368
16:54:31.906348,906348,37,38,175,136,166,78,126,368
16:54:31.907348,907348,37,38,175,136,166,78,126,368
16:54:31.907348,907348,39,40,161,143,211,84,138,359
16:54:31.907348,907348,41,50,197,137,224,67,113,336
16:54:31.907348,907348,42,55,213,113,238,68,99,241
16:54:31.908348,908348,42,55,213,113,238,68,99,241
16:54:31.909348,909348,42,55,213,113,238,68,99,241
16:54:31.910348,910348,42,55,213,113,238,68,99,241
16:54:31.911348,911348,42,55,213,113,238,68,99,241
16:54:31.912348,912348,42,55,213,113,238,68,99,241
16:54:31.913348,913348,42,55,213,113,238,68,99,241
16:54:31.914348,914348,42,55,213,113,238,68,99,241
16:54:31.915348,915348,42,55,213,113,238,68,99,241
16:54:31.916350,916350,42,55,213,113,238,68,99,241
16:54:31.917350,917350,42,55,213,113,238,68,99,241
16:54:31.918348,918348,42,55,213,113,238,68,99,241
16:54:31.919348,919348,42,55,213,113,238,68,99,241
16:54:31.920348,920348,42,55,213,113,238,68,99,241
16:54:31.921349,921349,42,55,213,113,238,68,99,241
16:54:31.922349,922349,42,55,213,113,238,68,99,241
16:54:31.923348,923348,42,55,213,113,238,68,99,241
16:54:31.924347,924347,42,55,213,113,238,68,99,241
16:54:31.924347,924347,45,45,165,178,265,71,154,145
16:54:31.925348,925348,45,45,165,178,265,71,154,145
16:54:31.926349,926349,45,45,165,178,265,71,154,145
16:54:31.927349,927349,45,45,165,178,265,71,154,145
16:54:31.928349,928349,45,45,165,178,265,71,154,145
16:54:31.929348,929348,45,45,165,178,265,71,154,145
16:54:31.930348,930348,45,45,165,178,265,71,154,145
16:54:31.931348,931348,45,45,165,178,265,71,154,145
16:54:31.932349,932349,45,45,165,178,265,71,154,145
16:54:31.933348,933348,45,45,165,178,265,71,154,145
16:54:31.934347,934347,45,45,165,178,265,71,154,145
16:54:31.935348,935348,45,45,165,178,265,71,154,145
16:54:31.936347,936347,45,45,165,178,265,71,154,145
16:54:31.937347,937347,45,45,165,178,265,71,154,145
16:54:31.938347,938347,45,45,165,178,265,71,154,145
16:54:31.939348,939348,45,45,165,178,265,71,154,145
16:54:31.940348,940348,45,45,165,178,265,71,154,145
16:54:31.941348,941348,45,45,165,178,265,71,154,145
16:54:31.942348,942348,45,45,165,178,265,71,154,145
16:54:31.943350,943350,45,45,165,178,265,71,154,145
16:54:31.944348,944348,45,45,165,178,265,71,154,145
16:54:31.945348,945348,45,45,165,178,265,71,154,145
16:54:31.946347,946347,45,45,165,178,265,71,154,145
16:54:31.947348,947348,45,45,165,178,265,71,154,145
16:54:31.948348,948348,45,45,165,178,265,71,154,145
16:54:31.949350,949350,45,45,165,178,265,71,154,145
16:54:31.950349,950349,45,45,165,178,265,71,154,145
16:54:31.950349,950349,48,49,163,161,242,67,147,147
16:54:31.951349,951349,48,49,163,161,242,67,147,147
16:54:31.952348,952348,48,49,163,161,242,67,147,147
16:54:31.953349,953349,48,49,163,161,242,67,147,147
16:54:31.954349,954349,48,49,163,161,242,67,147,147
16:54:31.955348,955348,48,49,163,161,242,67,147,147
16:54:31.956348,956348,48,49,163,161,242,67,147,147
16:54:31.956348,956348,46,39,119,178,326,53,177,201
16:54:31.957348,957348,46,39,119,178,326,53,177,201
16:54:31.958348,958348,46,39,119,178,326,53,177,201
16:54:31.959347,959347,46,39,119,178,326,53,177,201
16:54:31.960348,960348,46,39,119,178,326,53,177,201
16:54:31.961348,961348,46,39,119,178,326,53,177,201
16:54:31.962350,962350,46,39,119,178,326,53,177,201
16:54:31.963348,963348,46,39,119,178,326,53,177,201
16:54:31.964348,964348,46,39,119,178,326,53,177,201
16:54:31.965349,965349,46,39,119,178,326,53,177,201
16:54:31.966349,966349,46,39,119,178,326,53,177,201
16:54:31.967348,967348,46,39,119,178,326,53,177,201
16:54:31.968348,968348,46,39,119,178,326,53,177,201
16:54:31.969349,969349,46,39,119,178,326,53,177,201
16:54:31.970348,970348,46,39,119,178,326,53,177,201
16:54:31.971350,971350,46,39,119,178,326,53,177,201
16:54:31.972348,972348,46,39,119,178,326,53,177,201
16:54:31.973348,973348,46,39,119,178,326,53,177,201
16:54:31.974348,974348,47,51,117,173,318,47,170,243
16:54:31.974348,974348,53,58,108,163,309,44,139,271
16:54:31.975349,975349,53,58,108,163,309,44,139,271
16:54:31.976349,976349,53,58,108,163,309,44,139,271
16:54:31.977348,977348,53,58,108,163,309,44,139,271
16:54:31.978348,978348,53,58,108,163,309,44,139,271
16:54:31.979348,979348,53,58,108,163,309,44,139,271
16:54:31.980348,980348,53,58,108,163,309,44,139,271
16:54:31.981348,981348,53,58,108,163,309,44,139,271
16:54:31.982349,982349,53,58,108,163,309,44,139,271
16:54:31.983349,983349,53,58,98,101,254,32,135,304
16:54:31.984349,984349,53,58,98,101,254,32,135,304
16:54:31.985348,985348,53,58,98,101,254,32,135,304
16:54:31.986347,986347,53,58,98,101,254,32,135,304
16:54:31.987348,987348,53,58,98,101,254,32,135,304
16:54:31.988349,988349,53,58,98,101,254,32,135,304
16:54:31.989348,989348,53,58,98,101,254,32,135,304
16:54:31.990348,990348,53,58,98,101,254,32,135,304
16:54:31.991348,991348,53,58,98,101,254,32,135,304
16:54:31.992348,992348,53,58,98,101,254,32,135,304
16:54:31.993348,993348,53,58,98,101,254,32,135,304
16:54:31.994348,994348,53,58,98,101,254,32,135,304
16:54:31.995348,995348,53,58,98,101,254,32,135,304
16:54:31.996348,996348,53,58,98,101,254,32,135,304
16:54:31.997350,997350,53,58,98,101,254,32,135,304
16:54:31.998350,998350,53,58,98,101,254,32,135,304
16:54:31.999349,999349,53,58,98,101,254,32,135,304
16:54:32.000349,000349,53,58,98,101,254,32,135,304
16:54:32.001349,001349,53,58,98,101,254,32,135,304
16:54:32.002348,002348,53,58,98,101,254,32,135,304
16:54:32.003348,003348,53,58,98,101,254,32,135,304
16:54:32.004348,004348,53,58,98,101,254,32,135,304
16:54:32.005348,005348,53,58,98,101,254,32,135,304
16:54:32.006348,006348,53,58,98,101,254,32,135,304
16:54:32.006348,006348,46,59,102,71,130,36,125,345
16:54:32.007349,007349,46,59,102,71,130,36,125,345
16:54:32.008347,008347,46,59,102,71,130,36,125,345
16:54:32.009348,009348,46,59,102,71,130,36,125,345
16:54:32.010348,010348,46,59,102,71,130,36,125,345
16:54:32.011348,011348,46,59,102,71,130,36,125,345
16:54:32.012348,012348,46,59,102,71,130,36,125,345
16:54:32.012348,012348,38,57,84,55,112,33,128,328
16:54:32.013349,013349,38,57,84,55,112,33,128,328
16:54:32.014348,014348,38,57,84,55,112,33,128,328
16:54:32.015348,015348,38,57,84,55,112,33,128,328
16:54:32.016350,016350,38,57,84,55,112,33,128,328
16:54:32.017349,017349,38,57,84,55,112,33,128,328
16:54:32.018348,018348,38,57,84,55,112,33,128,328
16:54:32.019348,019348,38,57,84,55,112,33,128,328
16:54:32.020348,020348,38,43,81,65,108,28,138,288
16:54:32.021348,021348,38,43,81,65,108,28,138,288
16:54:32.022348,022348,38,43,81,65,108,28,138,288
16:54:32.023348,023348,38,43,81,65,108,28,138,288
16:54:32.024348,024348,38,43,81,65,108,28,138,288
16:54:32.025348,025348,38,43,81,65,108,28,138,288
16:54:32.026347,026347,38,43,81,65,108,28,138,288
16:54:32.026347,026347,26,30,61,58,64,23,157,252
16:54:32.027348,027348,26,30,61,58,64,23,157,252
16:54:32.028348,028348,26,30,61,58,64,23,157,252
16:54:32.029348,029348,26,30,61,58,64,23,157,252
16:54:32.030348,030348,26,30,61,58,64,23,157,252
16:54:32.031348,031348,26,30,61,58,64,23,157,252
16:54:32.032348,032348,26,30,61,58,64,23,157,252
16:54:32.033348,033348,26,30,61,58,64,23,157,252
16:54:32.034348,034348,26,30,61,58,64,23,157,252
16:54:32.035348,035348,26,30,61,58,64,23,157,252
16:54:32.036348,036348,26,30,61,58,64,23,157,252
16:54:32.037348,037348,26,30,61,58,64,23,157,252
16:54:32.038348,038348,26,30,61,58,64,23,157,252
16:54:32.039348,039348,26,30,61,58,64,23,157,252
16:54:32.040348,040348,26,30,61,58,64,23,157,252
16:54:32.041348,041348,26,30,61,58,64,23,157,252
16:54:32.042348,042348,26,30,61,58,64,23,157,252
16:54:32.043349,043349,26,30,61,58,64,23,157,252
16:54:32.044349,044349,26,30,61,58,64,23,157,252
16:54:32.044349,044349,29,32,55,50,49,21,160,188
16:54:32.044349,044349,26,30,44,55,42,20,188,145
16:54:32.044349,044349,23,24,34,50,54,29,198,139
16:54:32.045349,045349,23,24,34,50,54,29,198,139
16:54:32.046348,046348,23,24,34,50,54,29,198,139
16:54:32.047349,047349,23,24,34,50,54,29,198,139
16:54:32.048348,048348,23,24,34,50,54,29,198,139
16:54:32.049350,049350,23,24,34,50,54,29,198,139
16:54:32.050349,050349,23,24,34,50,54,29,198,139
16:54:32.051349,051349,23,24,34,50,54,29,198,139
16:54:32.052348,052348,23,24,34,50,54,29,198,139
16:54:32.053348,053348,23,24,34,50,54,29,198,139
16:54:32.054348,054348,23,24,34,50,54,29,198,139
16:54:32.055348,055348,23,24,34,50,54,29,198,139
16:54:32.056348,056348,23,24,34,50,54,29,198,139
16:54:32.057349,057349,23,24,34,50,54,29,198,139
16:54:32.058348,058348,23,24,34,50,54,29,198,139
16:54:32.059348,059348,23,24,34,50,54,29,198,139
16:54:32.060348,060348,23,24,34,50,54,29,198,139
16:54:32.061348,061348,23,24,34,50,54,29,198,139
16:54:32.062348,062348,23,24,34,50,54,29,198,139
16:54:32.063348,063348,23,24,34,50,54,29,198,139
16:54:32.064348,064348,23,24,34,50,54,29,198,139
16:54:32.065348,065348,22,34,35,84,54,29,199,128
16:54:32.065348,065348,20,38,37,74,54,30,182,129
16:54:32.065348,065348,22,38,38,68,56,32,213,129
16:54:32.066350,066350,22,38,38,68,56,32,213,129
16:54:32.067349,067349,22,38,38,68,56,32,213,129
16:54:32.068348,068348,22,38,38,68,56,32,213,129
16:54:32.069348,069348,22,38,38,68,56,32,213,129
16:54:32.070348,070348,22,38,38,68,56,32,213,129
16:54:32.071348,071348,22,38,38,68,56,32,213,129
16:54:32.072348,072348,22,38,38,68,56,32,213,129
16:54:32.073348,073348,22,38,38,68,56,32,213,129
16:54:32.074348,074348,22,38,38,68,56,32,213,129
16:54:32.075348,075348,22,38,38,68,56,32,213,129
16:54:32.076347,076347,22,38,38,68,56,32,213,129
16:54:32.077348,077348,22,38,38,68,56,32,213,129
16:54:32.078347,078347,22,38,38,68,56,32,213,129
16:54:32.079348,079348,22,38,38,68,56,32,213,129
16:54:32.080349,080349,22,38,38,68,56,32,213,129
16:54:32.080349,080349,21,38,38,63,58,31,241,130
16:54:32.080349,080349,26,42,37,72,61,31,231,145
16:54:32.081349,081349,26,42,37,72,61,31,231,145
16:54:32.082349,082349,26,42,37,72,61,31,231,145
16:54:32.083348,083348,26,42,37,72,61,31,231,145
16:54:32.084348,084348,26,42,37,72,61,31,231,145
16:54:32.085348,085348,26,42,37,72,61,31,231,145
16:54:32.086347,086347,26,42,37,72,61,31,231,145
16:54:32.087347,087347,26,42,37,72,61,31,231,145
16:54:32.087347,087347,25,39,34,75,57,31,212,153
16:54:32.087347,087347,23,40,30,83,57,32,224,148
16:54:32.088349,088349,23,40,30,83,57,32,224,148
16:54:32.088866,088866,23,40,30,83,57,32,224,148
16:54:32.093860,093860,23,40,30,83,57,32,224,148
16:54:32.094858,094858,23,40,30,83,57,32,224,148
16:54:32.095858,095858,23,40,30,83,57,32,224,148
16:54:32.096858,096858,23,40,30,83,57,32,224,148
16:54:32.097859,097859,23,40,30,83,57,32,224,148
16:54:32.098859,098859,23,40,30,83,57,32,224,148
16:54:32.099860,099860,23,40,30,83,57,32,224,148
16:54:32.100860,100860,23,40,30,83,57,32,224,148
16:54:32.101860,101860,23,40,30,83,57,32,224,148
16:54:32.102860,102860,23,40,30,83,57,32,224,148
16:54:32.103860,103860,24,27,17,52,36,17,172,125
16:54:32.104859,104859,24,27,17,52,36,17,172,125
16:54:32.105858,105858,24,27,17,52,36,17,172,125
16:54:32.106860,106860,24,27,17,52,36,17,172,125
16:54:32.107861,107861,24,27,17,52,36,17,172,125
16:54:32.108860,108860,24,27,17,52,36,17,172,125
16:54:32.109859,109859,24,27,17,52,36,17,172,125
16:54:32.110860,110860,24,27,17,52,36,17,172,125
16:54:32.111860,111860,24,27,17,52,36,17,172,125
16:54:32.112860,112860,24,27,17,52,36,17,172,125
16:54:32.113860,113860,24,27,17,52,36,17,172,125
16:54:32.114860,114860,24,27,17,52,36,17,172,125
16:54:32.116022,116022,24,27,17,52,36,17,172,125
16:54:32.117008,117008,24,27,17,52,36,17,172,125
16:54:32.118007,118007,24,27,17,52,36,17,172,125
16:54:32.119007,119007,24,27,17,52,36,17,172,125
16:54:32.120007,120007,24,27,17,52,36,17,172,125
16:54:32.121007,121007,24,27,17,52,36,17,172,125
16:54:32.122007,122007,24,27,17,52,36,17,172,125
16:54:32.123007,123007,24,27,17,52,36,17,172,125
16:54:32.124007,124007,24,27,17,52,36,17,172,125
16:54:32.125007,125007,24,27,17,52,36,17,172,125
16:54:32.125007,125007,36,25,17,56,26,21,151,130
16:54:32.125007,125007,34,24,19,46,20,23,136,119
16:54:32.126040,126040,34,24,19,46,20,23,136,119
16:54:32.127006,127006,34,24,19,46,20,23,136,119
16:54:32.128006,128006,34,24,19,46,20,23,136,119
16:54:32.129005,129005,34,24,19,46,20,23,136,119
16:54:32.130031,130031,34,24,19,46,20,23,136,119
16:54:32.131030,131030,34,24,19,46,20,23,136,119
16:54:32.132031,132031,34,24,19,46,20,23,136,119
16:54:32.133006,133006,34,24,19,46,20,23,136,119
16:54:32.134005,134005,34,24,19,46,20,23,136,119
16:54:32.135040,135040,34,24,19,46,20,23,136,119
16:54:32.136042,136042,34,24,19,46,20,23,136,119
16:54:32.137040,137040,34,24,19,46,20,23,136,119
16:54:32.138040,138040,34,24,19,46,20,23,136,119
16:54:32.139044,139044,34,24,19,46,20,23,136,119
16:54:32.139044,139044,32,22,20,54,14,25,127,98
16:54:32.140005,140005,32,22,20,54,14,25,127,98
16:54:32.141004,141004,32,22,20,54,14,25,127,98
16:54:32.142003,142003,32,22,20,54,14,25,127,98
16:54:32.143003,143003,32,22,20,54,14,25,127,98
16:54:32.144008,144008,32,22,20,54,14,25,127,98
16:54:32.145007,145007,32,22,20,54,14,25,127,98
16:54:32.146030,146030,32,22,20,54,14,25,127,98
16:54:32.147019,147019,32,20,18,61,21,23,106,97
16:54:32.148018,148018,32,20,18,61,21,23,106,97
16:54:32.149018,149018,32,20,18,61,21,23,106,97
16:54:32.150018,150018,32,20,18,61,21,23,106,97
16:54:32.151016,151016,32,20,18,61,21,23,106,97
16:54:32.152017,152017,32,20,18,61,21,23,106,97
16:54:32.153016,153016,32,20,18,61,21,23,106,97
16:54:32.154017,154017,32,20,18,61,21,23,106,97
16:54:32.155016,155016,32,20,18,61,21,23,106,97
16:54:32.156017,156017,32,20,18,61,21,23,106,97
16:54:32.157016,157016,32,20,18,61,21,23,106,97
16:54:32.158016,158016,32,20,18,61,21,23,106,97
16:54:32.159016,159016,32,20,18,61,21,23,106,97
16:54:32.160017,160017,32,20,18,61,21,23,106,97
16:54:32.161018,161018,32,20,18,61,21,23,106,97
16:54:32.162017,162017,32,20,18,61,21,23,106,97
16:54:32.163016,163016,32,20,18,61,21,23,106,97
16:54:32.164017,164017,32,20,18,61,21,23,106,97
16:54:32.165016,165016,32,20,18,61,21,23,106,97
16:54:32.166018,166018,32,20,18,61,21,23,106,97
16:54:32.167017,167017,32,20,18,61,21,23,106,97
16:54:32.168016,168016,32,20,18,61,21,23,106,97
16:54:32.169016,169016,32,20,18,61,21,23,106,97
16:54:32.170016,170016,32,20,18,61,21,23,106,97
16:54:32.171017,171017,30,18,16,68,21,25,108,111
16:54:32.172018,172018,30,18,16,68,21,25,108,111
16:54:32.173018,173018,30,18,16,68,21,25,108,111
16:54:32.174018,174018,30,18,16,68,21,25,108,111
16:54:32.175017,175017,30,18,16,68,21,25,108,111
16:54:32.176018,176018,30,18,16,68,21,25,108,111
16:54:32.177017,177017,20,25,27,89,23,25,145,147
16:54:32.178018,178018,20,25,27,89,23,25,145,147
16:54:32.179018,179018,20,25,27,89,23,25,145,147
16:54:32.180018,180018,20,25,27,89,23,25,145,147
16:54:32.181017,181017,20,25,27,89,23,25,145,147
16:54:32.182018,182018,20,25,27,89,23,25,145,147
16:54:32.183018,183018,20,25,27,89,23,25,145,147
16:54:32.184019,184019,20,25,27,89,23,25,145,147
16:54:32.185018,185018,20,25,27,89,23,25,145,147
16:54:32.186017,186017,20,25,27,89,23,25,145,147
16:54:32.187016,187016,20,25,27,89,23,25,145,147
16:54:32.187016,187016,19,30,27,98,24,29,138,147
16:54:32.188017,188017,19,30,27,98,24,29,138,147
16:54:32.189016,189016,19,30,27,98,24,29,138,147
16:54:32.190017,190017,19,30,27,98,24,29,138,147
16:54:32.191016,191016,19,30,27,98,24,29,138,147
16:54:32.192018,192018,19,30,27,98,24,29,138,147
16:54:32.193017,193017,19,30,27,98,24,29,138,147
16:54:32.193017,193017,21,32,25,111,24,34,122,139
16:54:32.193017,193017,21,33,24,111,22,31,120,142
16:54:32.193017,193017,19,37,23,92,22,31,153,156
16:54:32.194017,194017,19,37,23,92,22,31,153,156
16:54:32.195016,195016,19,37,23,92,22,31,153,156
16:54:32.196017,196017,19,37,23,92,22,31,153,156
16:54:32.197017,197017,19,37,23,92,22,31,153,156
16:54:32.198016,198016,19,37,23,92,22,31,153,156
16:54:32.199019,199019,19,37,23,92,22,31,153,156
16:54:32.199019,199019,20,38,23,74,18,31,171,170
16:54:32.200017,200017,20,38,23,74,18,31,171,170
16:54:32.201016,201016,20,38,23,74,18,31,171,170
16:54:32.202016,202016,20,38,23,74,18,31,171,170
16:54:32.203016,203016,20,38,23,74,18,31,171,170
16:54:32.204017,204017,20,38,23,74,18,31,171,170
16:54:32.205016,205016,22,37,20,88,18,32,196,173
16:54:32.206020,206020,22,37,20,88,18,32,196,173
16:54:32.207017,207017,22,37,20,88,18,32,196,173
16:54:32.208017,208017,22,37,20,88,18,32,196,173
16:54:32.209017,209017,22,37,20,88,18,32,196,173
16:54:32.210017,210017,22,37,20,88,18,32,196,173
16:54:32.211017,211017,22,37,20,88,18,32,196,173
16:54:32.212017,212017,22,37,20,88,18,32,196,173
16:54:32.213017,213017,22,37,20,88,18,32,196,173
16:54:32.214017,214017,22,37,20,88,18,32,196,173
16:54:32.215017,215017,22,37,20,88,18,32,196,173
16:54:32.216017,216017,22,37,20,88,18,32,196,173
16:54:32.217017,217017,22,37,20,88,18,32,196,173
16:54:32.218017,218017,22,37,20,88,18,32,196,173
16:54:32.219017,219017,22,37,20,88,18,32,196,173
16:54:32.220017,220017,22,37,20,88,18,32,196,173
16:54:32.221017,221017,22,37,20,88,18,32,196,173
16:54:32.221017,221017,21,31,17,117,19,36,127,116
16:54:32.222018,222018,21,31,17,117,19,36,127,116
16:54:32.223017,223017,21,31,17,117,19,36,127,116
16:54:32.224017,224017,21,31,17,117,19,36,127,116
16:54:32.225016,225016,21,31,17,117,19,36,127,116
16:54:32.226017,226017,21,31,17,117,19,36,127,116
16:54:32.227017,227017,21,31,17,117,19,36,127,116
16:54:32.228016,228016,21,31,17,117,19,36,127,116
16:54:32.229016,229016,21,31,17,117,19,36,127,116
16:54:32.229016,229016,21,26,21,130,18,30,138,106
16:54:32.230018,230018,21,26,21,130,18,30,138,106
16:54:32.231018,231018,21,26,21,130,18,30,138,106
16:54:32.232017,232017,21,26,21,130,18,30,138,106
16:54:32.233019,233019,21,26,21,130,18,30,138,106
16:54:32.234017,234017,21,26,21,130,18,30,138,106
16:54:32.235019,235019,21,26,21,130,18,30,138,106
16:54:32.236018,236018,21,26,21,130,18,30,138,106
16:54:32.237017,237017,21,26,21,130,18,30,138,106
16:54:32.238019,238019,21,26,21,130,18,30,138,106
16:54:32.239017,239017,21,26,21,130,18,30,138,106
16:54:32.240017,240017,21,26,21,130,18,30,138,106
16:54:32.241018,241018,21,26,21,130,18,30,138,106
16:54:32.242017,242017,21,26,21,130,18,30,138,106
16:54:32.243017,243017,21,26,21,130,18,30,138,106
16:54:32.244017,244017,21,26,21,130,18,30,138,106
16:54:32.245017,245017,21,26,21,130,18,30,138,106
16:54:32.246017,246017,21,26,21,130,18,30,138,106
16:54:32.246017,246017,25,22,34,218,16,36,106,77
16:54:32.247017,247017,25,22,34,218,16,36,106,77
16:54:32.248018,248018,25,22,34,218,16,36,106,77
16:54:32.249018,249018,25,22,34,218,16,36,106,77
16:54:32.250016,250016,25,22,34,218,16,36,106,77
16:54:32.251016,251016,25,22,34,218,16,36,106,77
16:54:32.252016,252016,25,22,34,218,16,36,106,77
16:54:32.252016,252016,28,26,34,205,11,38,109,64
16:54:32.253017,253017,28,26,34,205,11,38,109,64
16:54:32.254017,254017,28,26,34,205,11,38,109,64
16:54:32.255017,255017,28,26,34,205,11,38,109,64
16:54:32.256017,256017,28,26,34,205,11,38,109,64
16:54:32.257017,257017,28,26,34,205,11,38,109,64
16:54:32.258017,258017,28,26,34,205,11,38,109,64
16:54:32.258017,258017,28,36,41,174,12,45,88,41
16:54:32.259017,259017,28,36,41,174,12,45,88,41
16:54:32.260016,260016,28,36,41,174,12,45,88,41
16:54:32.261017,261017,28,36,41,174,12,45,88,41
16:54:32.262017,262017,28,36,41,174,12,45,88,41
16:54:32.263017,263017,28,36,41,174,12,45,88,41
16:54:32.264017,264017,28,36,41,174,12,45,88,41
16:54:32.265017,265017,28,36,41,174,12,45,88,41
16:54:32.266017,266017,28,36,41,174,12,45,88,41
16:54:32.266017,266017,28,41,40,188,12,42,91,53
16:54:32.267017,267017,28,41,40,188,12,42,91,53
16:54:32.268017,268017,28,41,40,188,12,42,91,53
16:54:32.269017,269017,28,41,40,188,12,42,91,53
16:54:32.270017,270017,28,41,40,188,12,42,91,53
16:54:32.271017,271017,28,41,40,188,12,42,91,53
16:54:32.272018,272018,28,41,40,188,12,42,91,53
16:54:32.273017,273017,28,41,40,188,12,42,91,53
16:54:32.274017,274017,28,41,40,188,12,42,91,53
16:54:32.275017,275017,28,41,40,188,12,42,91,53
16:54:32.276017,276017,28,41,40,188,12,42,91,53
16:54:32.277017,277017,28,41,40,188,12,42,91,53
16:54:32.278018,278018,28,41,40,188,12,42,91,53
16:54:32.279017,279017,28,41,40,188,12,42,91,53
16:54:32.280017,280017,28,41,40,188,12,42,91,53
16:54:32.281017,281017,28,41,40,188,12,42,91,53
16:54:32.282018,282018,28,41,40,188,12,42,91,53
16:54:32.282018,282018,23,40,39,208,14,39,96,62
16:54:32.283018,283018,23,40,39,208,14,39,96,62
16:54:32.284018,284018,23,40,39,208,14,39,96,62
16:54:32.285018,285018,23,40,39,208,14,39,96,62
16:54:32.286017,286017,23,40,39,208,14,39,96,62
16:54:32.287017,287017,23,40,39,208,14,39,96,62
16:54:32.288017,288017,23,40,39,208,14,39,96,62
16:54:32.289018,289018,23,40,39,208,14,39,96,62
16:54:32.289018,289018,26,57,35,255,18,46,101,58
16:54:32.290017,290017,26,57,35,255,18,46,101,58
16:54:32.291017,291017,26,57,35,255,18,46,101,58
16:54:32.292017,292017,26,57,35,255,18,46,101,58
16:54:32.293017,293017,26,57,35,255,18,46,101,58
16:54:32.294017,294017,26,57,35,255,18,46,101,58
16:54:32.295018,295018,26,57,35,255,18,46,101,58
16:54:32.296018,296018,26,57,35,255,18,46,101,58
16:54:32.297018,297018,26,57,35,255,18,46,101,58
16:54:32.298018,298018,26,57,35,255,18,46,101,58
16:54:32.299018,299018,26,57,35,255,18,46,101,58
16:54:32.300019,300019,26,57,35,255,18,46,101,58
16:54:32.301018,301018,26,57,35,255,18,46,101,58
16:54:32.302018,302018,26,57,35,255,18,46,101,58
16:54:32.303017,303017,26,57,35,255,18,46,101,58
16:54:32.304018,304018,26,57,35,255,18,46,101,58
16:54:32.305017,305017,26,57,35,255,18,46,101,58
16:54:32.306018,306018,21,61,29,297,17,41,151,63
16:54:32.307018,307018,21,61,29,297,17,41,151,63
16:54:32.308016,308016,21,61,29,297,17,41,151,63
16:54:32.309017,309017,21,61,29,297,17,41,151,63
16:54:32.310016,310016,21,61,29,297,17,41,151,63
16:54:32.311017,311017,21,61,29,297,17,41,151,63
16:54:32.312018,312018,21,61,29,297,17,41,151,63
16:54:32.313018,313018,21,61,29,297,17,41,151,63
16:54:32.314018,314018,21,61,29,297,17,41,151,63
16:54:32.315016,315016,21,61,29,297,17,41,151,63
16:54:32.316018,316018,21,61,29,297,17,41,151,63
16:54:32.317018,317018,21,61,29,297,17,41,151,63
16:54:32.318017,318017,21,61,29,297,17,41,151,63
16:54:32.319016,319016,21,61,29,297,17,41,151,63
16:54:32.320016,320016,21,61,29,297,17,41,151,63
16:54:32.320016,320016,17,63,27,332,21,45,155,53
16:54:32.321018,321018,17,63,27,332,21,45,155,53
16:54:32.322018,322018,17,63,27,332,21,45,155,53
16:54:32.323018,323018,17,63,27,332,21,45,155,53
16:54:32.324018,324018,17,63,27,332,21,45,155,53
16:54:32.325017,325017,17,63,27,332,21,45,155,53
16:54:32.326017,326017,17,63,27,332,21,45,155,53
16:54:32.327018,327018,17,63,27,332,21,45,155,53
16:54:32.328017,328017,17,64,28,373,21,46,158,49
16:54:32.328017,328017,16,58,27,384,26,39,151,58
16:54:32.329017,329017,16,58,27,384,26,39,151,58
16:54:32.330017,330017,16,58,27,384,26,39,151,58
16:54:32.331017,331017,16,58,27,384,26,39,151,58
16:54:32.332017,332017,16,58,27,384,26,39,151,58
16:54:32.333018,333018,16,58,27,384,26,39,151,58
16:54:32.334017,334017,16,58,27,384,26,39,151,58
16:54:32.335017,335017,16,58,27,384,26,39,151,58
16:54:32.336017,336017,16,58,27,384,26,39,151,58
16:54:32.337016,337016,16,58,27,384,26,39,151,58
16:54:32.338016,338016,16,58,27,384,26,39,151,58
16:54:32.339016,339016,16,58,27,384,26,39,151,58
16:54:32.340016,340016,16,58,27,384,26,39,151,58
16:54:32.341016,341016,16,58,27,384,26,39,151,58
16:54:32.342017,342017,16,58,27,384,26,39,151,58
16:54:32.343016,343016,16,58,27,384,26,39,151,58
16:54:32.343016,343016,22,48,21,293,22,34,118,70
16:54:32.344017,344017,22,48,21,293,22,34,118,70
16:54:32.345017,345017,22,48,21,293,22,34,118,70
16:54:32.346017,346017,22,48,21,293,22,34,118,70
16:54:32.347016,347016,22,48,21,293,22,34,118,70
16:54:32.348017,348017,22,48,21,293,22,34,118,70
16:54:32.349017,349017,22,48,21,293,22,34,118,70
16:54:32.349017,349017,19,43,25,258,21,28,76,67
16:54:32.350017,350017,19,43,25,258,21,28,76,67
16:54:32.351016,351016,19,43,25,258,21,28,76,67
16:54:32.352017,352017,19,43,25,258,21,28,76,67
16:54:32.353018,353018,19,43,25,258,21,28,76,67
16:54:32.354018,354018,19,43,25,258,21,28,76,67
16:54:32.355018,355018,19,43,25,258,21,28,76,67
16:54:32.356017,356017,19,43,25,258,21,28,76,67
16:54:32.357016,357016,19,43,25,258,21,28,76,67
16:54:32.358017,358017,19,43,25,258,21,28,76,67
16:54:32.359017,359017,19,43,25,258,21,28,76,67
16:54:32.360017,360017,19,43,25,258,21,28,76,67
16:54:32.361016,361016,19,43,25,258,21,28,76,67
16:54:32.362017,362017,19,43,25,258,21,28,76,67
16:54:32.363017,363017,19,43,25,258,21,28,76,67
16:54:32.364017,364017,19,43,25,258,21,28,76,67
16:54:32.365016,365016,18,39,26,320,24,21,60,61
16:54:32.366018,366018,18,39,26,320,24,21,60,61
16:54:32.367018,367018,18,39,26,320,24,21,60,61
16:54:32.368017,368017,18,39,26,320,24,21,60,61
16:54:32.369016,369016,18,39,26,320,24,21,60,61
16:54:32.370017,370017,18,39,26,320,24,21,60,61
16:54:32.371017,371017,18,39,26,320,24,21,60,61
16:54:32.372016,372016,18,39,26,320,24,21,60,61
16:54:32.373016,373016,18,39,26,320,24,21,60,61
16:54:32.373016,373016,18,31,23,308,18,19,104,62
16:54:32.374017,374017,18,31,23,308,18,19,104,62
16:54:32.375016,375016,18,31,23,308,18,19,104,62
16:54:32.376017,376017,18,31,23,308,18,19,104,62
16:54:32.377017,377017,18,31,23,308,18,19,104,62
16:54:32.378016,378016,18,31,23,308,18,19,104,62
16:54:32.379017,379017,18,31,23,308,18,19,104,62
16:54:32.380018,380018,18,31,23,308,18,19,104,62
16:54:32.381017,381017,18,31,23,308,18,19,104,62
16:54:32.382017,382017,18,31,23,308,18,19,104,62
16:54:32.383018,383018,18,31,23,308,18,19,104,62
16:54:32.384018,384018,18,31,23,308,18,19,104,62
16:54:32.385017,385017,18,31,23,308,18,19,104,62
16:54:32.386016,386016,18,31,23,308,18,19,104,62
16:54:32.387016,387016,18,31,23,308,18,19,104,62
16:54:32.388016,388016,18,31,23,308,18,19,104,62
16:54:32.389016,389016,18,31,23,308,18,19,104,62
16:54:32.389016,389016,18,44,39,356,19,28,134,71
16:54:32.390016,390016,18,44,39,356,19,28,134,71
16:54:32.391016,391016,18,44,39,356,19,28,134,71
16:54:32.392016,392016,18,44,39,356,19,28,134,71
16:54:32.393016,393016,18,44,39,356,19,28,134,71
16:54:32.394018,394018,18,44,39,356,19,28,134,71
16:54:32.395019,395019,18,44,39,356,19,28,134,71
16:54:32.396018,396018,18,44,39,356,19,28,134,71
16:54:32.397017,397017,18,44,39,356,19,28,134,71
16:54:32.398016,398016,18,44,39,356,19,28,134,71
16:54:32.399018,399018,18,44,39,356,19,28,134,71
16:54:32.400018,400018,18,44,39,356,19,28,134,71
16:54:32.401017,401017,18,44,39,356,19,28,134,71
16:54:32.402017,402017,18,44,39,356,19,28,134,71
16:54:32.403017,403017,18,51,32,392,21,30,133,66
16:54:32.404017,404017,18,51,32,392,21,30,133,66
16:54:32.405016,405016,18,51,32,392,21,30,133,66
16:54:32.406017,406017,18,51,32,392,21,30,133,66
16:54:32.407016,407016,18,51,32,392,21,30,133,66
16:54:32.408017,408017,18,51,32,392,21,30,133,66
16:54:32.409016,409016,18,51,32,392,21,30,133,66
16:54:32.409016,409016,23,57,39,368,18,32,140,62
16:54:32.410017,410017,23,57,39,368,18,32,140,62
16:54:32.411018,411018,23,57,39,368,18,32,140,62
16:54:32.412017,412017,23,57,39,368,18,32,140,62
16:54:32.413017,413017,23,57,39,368,18,32,140,62
16:54:32.414017,414017,23,57,39,368,18,32,140,62
16:54:32.415017,415017,23,57,39,368,18,32,140,62
16:54:32.416020,416020,23,57,39,368,18,32,140,62
16:54:32.417018,417018,23,57,39,368,18,32,140,62
16:54:32.418019,418019,23,57,39,368,18,32,140,62
16:54:32.419018,419018,23,57,39,368,18,32,140,62
16:54:32.420017,420017,23,57,39,368,18,32,140,62
16:54:32.421018,421018,23,57,39,368,18,32,140,62
16:54:32.422016,422016,23,57,39,368,18,32,140,62
16:54:32.423016,423016,23,57,39,368,18,32,140,62
16:54:32.424017,424017,23,57,39,368,18,32,140,62
16:54:32.425016,425016,23,57,39,368,18,32,140,62
16:54:32.425016,425016,26,61,38,379,19,35,126,61
16:54:32.426018,426018,26,61,38,379,19,35,126,61
16:54:32.427017,427017,26,61,38,379,19,35,126,61
16:54:32.428017,428017,26,61,38,379,19,35,126,61
16:54:32.429019,429019,26,61,38,379,19,35,126,61
16:54:32.430017,430017,26,61,38,379,19,35,126,61
16:54:32.431017,431017,26,61,38,379,19,35,126,61
16:54:32.431017,431017,29,61,39,335,18,45,89,56
16:54:32.432017,432017,29,61,39,335,18,45,89,56
16:54:32.433019,433019,29,61,39,335,18,45,89,56
16:54:32.434017,434017,29,61,39,335,18,45,89,56
16:54:32.435016,435016,29,61,39,335,18,45,89,56
16:54:32.436016,436016,29,61,39,335,18,45,89,56
16:54:32.437016,437016,30,54,39,340,18,42,84,50
16:54:32.438017,438017,30,54,39,340,18,42,84,50
16:54:32.439016,439016,30,54,39,340,18,42,84,50
16:54:32.440017,440017,30,54,39,340,18,42,84,50
16:54:32.441016,441016,30,54,39,340,18,42,84,50
16:54:32.442017,442017,30,54,39,340,18,42,84,50
16:54:32.443017,443017,30,54,39,340,18,42,84,50
16:54:32.444017,444017,30,54,39,340,18,42,84,50
16:54:32.445018,445018,30,54,39,340,18,42,84,50
16:54:32.446019,446019,30,54,39,340,18,42,84,50
16:54:32.447017,447017,30,54,39,340,18,42,84,50
16:54:32.447017,447017,32,32,25,267,13,39,97,68
16:54:32.448017,448017,32,32,25,267,13,39,97,68
16:54:32.449016,449016,32,32,25,267,13,39,97,68
16:54:32.450018,450018,32,32,25,267,13,39,97,68
16:54:32.451016,451016,32,32,25,267,13,39,97,68
16:54:32.452016,452016,32,32,25,267,13,39,97,68
16:54:32.453018,453018,32,32,25,267,13,39,97,68
16:54:32.454017,454017,32,32,25,267,13,39,97,68
16:54:32.455018,455018,32,32,25,267,13,39,97,68
16:54:32.456016,456016,32,32,25,267,13,39,97,68
16:54:32.457016,457016,32,32,25,267,13,39,97,68
16:54:32.458016,458016,32,32,25,267,13,39,97,68
16:54:32.459017,459017,32,32,25,267,13,39,97,68
16:54:32.460016,460016,32,32,25,267,13,39,97,68
16:54:32.461017,461017,32,32,25,267,13,39,97,68
16:54:32.462016,462016,32,32,25,267,13,39,97,68
16:54:32.463016,463016,31,20,20,252,19,36,88,93
16:54:32.464017,464017,31,20,20,252,19,36,88,93
16:54:32.465016,465016,31,20,20,252,19,36,88,93
16:54:32.466017,466017,31,20,20,252,19,36,88,93
16:54:32.467016,467016,31,20,20,252,19,36,88,93
16:54:32.468017,468017,31,20,20,252,19,36,88,93
16:54:32.469016,469016,31,20,20,252,19,36,88,93
16:54:32.470017,470017,31,20,20,252,19,36,88,93
16:54:32.471017,471017,31,20,20,252,19,36,88,93
16:54:32.472017,472017,31,20,20,252,19,36,88,93
16:54:32.473017,473017,31,20,20,252,19,36,88,93
16:54:32.474017,474017,31,20,20,252,19,36,88,93
16:54:32.475017,475017,31,20,20,252,19,36,88,93
16:54:32.476017,476017,31,20,20,252,19,36,88,93
16:54:32.476017,476017,23,17,19,224,18,31,91,110
16:54:32.477017,477017,23,17,19,224,18,31,91,110
16:54:32.478018,478018,23,17,19,224,18,31,91,110
16:54:32.479019,479019,23,17,19,224,18,31,91,110
16:54:32.480018,480018,23,17,19,224,18,31,91,110
16:54:32.481018,481018,23,17,19,224,18,31,91,110
16:54:32.482018,482018,23,17,19,224,18,31,91,110
16:54:32.483019,483019,23,17,19,224,18,31,91,110
16:54:32.484018,484018,23,17,19,224,18,31,91,110
16:54:32.485017,485017,23,17,19,224,18,31,91,110
16:54:32.486017,486017,23,17,19,224,18,31,91,110
16:54:32.486017,486017,23,19,21,255,18,32,104,110
16:54:32.487018,487018,23,19,21,255,18,32,104,110
16:54:32.488017,488017,23,19,21,255,18,32,104,110
16:54:32.489017,489017,23,19,21,255,18,32,104,110
16:54:32.490017,490017,23,19,21,255,18,32,104,110
16:54:32.491017,491017,23,19,21,255,18,32,104,110
16:54:32.492017,492017,23,19,21,255,18,32,104,110
16:54:32.492017,492017,17,38,20,246,20,30,172,118
16:54:32.493017,493017,17,38,20,246,20,30,172,118
16:54:32.494017,494017,17,38,20,246,20,30,172,118
16:54:32.495016,495016,17,38,20,246,20,30,172,118
16:54:32.496016,496016,17,38,20,246,20,30,172,118
16:54:32.497017,497017,17,38,20,246,20,30,172,118
16:54:32.498016,498016,17,38,20,246,20,30,172,118
16:54:32.498204,498204,17,38,20,246,20,30,172,118
16:54:32.499019,499019,17,38,20,246,20,30,172,118
16:54:32.500018,500018,17,38,20,246,20,30,172,118
16:54:32.501017,501017,17,38,20,246,20,30,172,118
16:54:32.502017,502017,17,38,20,246,20,30,172,118
16:54:32.503017,503017,17,38,20,246,20,30,172,118
16:54:32.504017,504017,17,38,20,246,20,30,172,118
16:54:32.505016,505016,17,38,20,246,20,30,172,118
16:54:32.506017,506017,17,38,20,246,20,30,172,118
16:54:32.507016,507016,17,38,20,246,20,30,172,118
16:54:32.507016,507016,20,39,19,212,18,31,166,106
16:54:32.508017,508017,20,39,19,212,18,31,166,106
16:54:32.509017,509017,20,39,19,212,18,31,166,106
16:54:32.510017,510017,20,39,19,212,18,31,166,106
16:54:32.511018,511018,20,39,19,212,18,31,166,106
16:54:32.512016,512016,20,39,19,212,18,31,166,106
16:54:32.513017,513017,20,39,19,212,18,31,166,106
16:54:32.514017,514017,20,39,19,212,18,31,166,106
16:54:32.515018,515018,20,39,19,212,18,31,166,106
16:54:32.516018,516018,20,39,19,212,18,31,166,106
16:54:32.516018,516018,17,46,14,183,17,40,193,89
16:54:32.517018,517018,17,46,14,183,17,40,193,89
16:54:32.518018,518018,17,46,14,183,17,40,193,89
16:54:32.519017,519017,17,46,14,183,17,40,193,89
16:54:32.520017,520017,17,46,14,183,17,40,193,89
16:54:32.521019,521019,17,46,14,183,17,40,193,89
16:54:32.522020,522020,17,46,14,183,17,40,193,89
16:54:32.522020,522020,18,47,16,170,18,41,190,76
16:54:32.523019,523019,18,47,16,170,18,41,190,76
16:54:32.524020,524020,18,47,16,170,18,41,190,76
16:54:32.525017,525017,18,47,16,170,18,41,190,76
16:54:32.526017,526017,18,47,16,170,18,41,190,76
16:54:32.527016,527016,18,47,16,170,18,41,190,76
16:54:32.528016,528016,18,47,16,170,18,41,190,76
16:54:32.528016,528016,19,46,36,206,26,34,197,71
16:54:32.529017,529017,19,46,36,206,26,34,197,71
16:54:32.530016,530016,19,46,36,206,26,34,197,71
16:54:32.531017,531017,19,46,36,206,26,34,197,71
16:54:32.532017,532017,19,46,36,206,26,34,197,71
16:54:32.533017,533017,19,46,36,206,26,34,197,71
16:54:32.534017,534017,19,46,36,206,26,34,197,71
16:54:32.535017,535017,19,46,36,206,26,34,197,71
16:54:32.536017,536017,19,46,36,206,26,34,197,71
16:54:32.537019,537019,19,46,36,206,26,34,197,71
16:54:32.538017,538017,19,46,36,206,26,34,197,71
16:54:32.539016,539016,19,46,36,206,26,34,197,71
16:54:32.540017,540017,19,46,36,206,26,34,197,71
16:54:32.541017,541017,19,46,36,206,26,34,197,71
16:54:32.542017,542017,19,46,36,206,26,34,197,71
16:54:32.543017,543017,19,46,36,206,26,34,197,71
16:54:32.544016,544016,19,46,36,206,26,34,197,71
16:54:32.545016,545016,19,46,36,206,26,34,197,71
16:54:32.545016,545016,17,31,41,189,24,40,184,50
16:54:32.545016,545016,17,33,43,216,24,42,219,48
16:54:32.546018,546018,17,33,43,216,24,42,219,48
16:54:32.547017,547017,17,33,43,216,24,42,219,48
16:54:32.548017,548017,17,33,43,216,24,42,219,48
16:54:32.549018,549018,17,33,43,216,24,42,219,48
16:54:32.550018,550018,17,33,43,216,24,42,219,48
16:54:32.551018,551018,17,33,43,216,24,42,219,48
16:54:32.552017,552017,17,33,43,216,24,42,219,48
16:54:32.553017,553017,17,33,43,216,24,42,219,48
16:54:32.554017,554017,17,33,43,216,24,42,219,48
16:54:32.555016,555016,17,33,43,216,24,42,219,48
16:54:32.556017,556017,17,33,43,216,24,42,219,48
16:54:32.557016,557016,17,33,43,216,24,42,219,48
16:54:32.558017,558017,17,33,43,216,24,42,219,48
16:54:32.559016,559016,17,33,43,216,24,42,219,48
16:54:32.560016,560016,17,33,43,216,24,42,219,48
16:54:32.561016,561016,17,33,43,216,24,42,219,48
16:54:32.562017,562017,17,33,43,216,24,42,219,48
16:54:32.563016,563016,17,33,43,216,24,42,219,48
16:54:32.564017,564017,17,33,43,216,24,42,219,48
16:54:32.565017,565017,17,33,43,216,24,42,219,48
16:54:32.566018,566018,17,33,43,216,24,42,219,48
16:54:32.567017,567017,17,33,43,216,24,42,219,48
16:54:32.568016,568016,17,33,43,216,24,42,219,48
16:54:32.569016,569016,16,33,43,248,20,34,254,41
16:54:32.569016,569016,16,30,39,244,20,28,259,36
16:54:32.569016,569016,16,30,28,242,16,33,248,35
16:54:32.570018,570018,16,30,28,242,16,33,248,35
16:54:32.571018,571018,16,30,28,242,16,33,248,35
16:54:32.572018,572018,16,30,28,242,16,33,248,35
16:54:32.573018,573018,16,30,28,242,16,33,248,35
16:54:32.574018,574018,16,30,28,242,16,33,248,35
16:54:32.575017,575017,16,30,28,242,16,33,248,35
16:54:32.576018,576018,16,30,28,242,16,33,248,35
16:54:32.577017,577017,16,30,28,242,16,33,248,35
16:54:32.578017,578017,16,30,28,242,16,33,248,35
16:54:32.579017,579017,16,30,28,242,16,33,248,35
16:54:32.580017,580017,16,30,28,242,16,33,248,35
16:54:32.581018,581018,16,30,28,242,16,33,248,35
16:54:32.582017,582017,16,30,28,242,16,33,248,35
16:54:32.582017,582017,22,29,23,192,14,27,267,37
16:54:32.583017,583017,22,29,23,192,14,27,267,37
16:54:32.584017,584017,22,29,23,192,14,27,267,37
16:54:32.585018,585018,22,29,23,192,14,27,267,37
16:54:32.586017,586017,22,29,23,192,14,27,267,37
16:54:32.587017,587017,22,29,23,192,14,27,267,37
16:54:32.588019,588019,22,29,23,192,14,27,267,37
16:54:32.589018,589018,22,29,23,192,14,27,267,37
16:54:32.589018,589018,21,28,18,136,15,28,318,36
16:54:32.590017,590017,21,28,18,136,15,28,318,36
16:54:32.591018,591018,21,28,18,136,15,28,318,36
16:54:32.592018,592018,21,28,18,136,15,28,318,36
16:54:32.593017,593017,21,28,18,136,15,28,318,36
16:54:32.594017,594017,21,28,18,136,15,28,318,36
16:54:32.595017,595017,21,28,18,136,15,28,318,36
16:54:32.595017,595017,23,30,20,131,16,28,319,39
16:54:32.595017,595017,24,28,23,119,13,36,294,35
16:54:32.596017,596017,24,28,23,119,13,36,294,35
16:54:32.597017,597017,24,28,23,119,13,36,294,35
16:54:32.598018,598018,24,28,23,119,13,36,294,35
16:54:32.599018,599018,24,28,23,119,13,36,294,35
16:54:32.600017,600017,24,28,23,119,13,36,294,35
16:54:32.601017,601017,24,28,23,119,13,36,294,35
16:54:32.602017,602017,24,28,23,119,13,36,294,35
16:54:32.603017,603017,24,28,23,119,13,36,294,35
16:54:32.604017,604017,24,28,23,119,13,36,294,35
16:54:32.605017,605017,24,28,23,119,13,36,294,35
16:54:32.606017,606017,24,28,23,119,13,36,294,35
16:54:32.606017,606017,21,38,13,112,11,39,270,39
16:54:32.607017,607017,21,38,13,112,11,39,270,39
16:54:32.608017,608017,21,38,13,112,11,39,270,39
16:54:32.609017,609017,21,38,13,112,11,39,270,39
16:54:32.610017,610017,21,38,13,112,11,39,270,39
16:54:32.611017,611017,21,38,13,112,11,39,270,39
16:54:32.612017,612017,24,36,16,116,13,43,235,39
16:54:32.612017,612017,24,39,20,104,11,42,218,37
16:54:32.613017,613017,24,39,20,104,11,42,218,37
16:54:32.614017,614017,24,39,20,104,11,42,218,37
16:54:32.615018,615018,24,39,20,104,11,42,218,37
16:54:32.616018,616018,24,39,20,104,11,42,218,37
16:54:32.617018,617018,24,39,20,104,11,42,218,37
16:54:32.618017,618017,24,39,20,104,11,42,218,37
16:54:32.619017,619017,24,39,20,104,11,42,218,37
16:54:32.620017,620017,24,39,20,104,11,42,218,37
16:54:32.621017,621017,24,39,20,104,11,42,218,37
16:54:32.622018,622018,24,39,20,104,11,42,218,37
16:54:32.623018,623018,24,39,20,104,11,42,218,37
16:54:32.624017,624017,24,39,20,104,11,42,218,37
16:54:32.625018,625018,24,39,20,104,11,42,218,37
16:54:32.626017,626017,24,39,20,104,11,42,218,37
16:54:32.627017,627017,24,39,20,104,11,42,218,37
16:54:32.628017,628017,24,39,20,104,11,42,218,37
16:54:32.629017,629017,24,39,20,104,11,42,218,37
16:54:32.629017,629017,17,46,21,134,15,46,201,43
16:54:32.630017,630017,17,46,21,134,15,46,201,43
16:54:32.631018,631018,17,46,21,134,15,46,201,43
16:54:32.632017,632017,17,46,21,134,15,46,201,43
16:54:32.633018,633018,17,46,21,134,15,46,201,43
16:54:32.634016,634016,17,46,21,134,15,46,201,43
16:54:32.635017,635017,17,46,21,134,15,46,201,43
16:54:32.636019,636019,17,46,21,134,15,46,201,43
16:54:32.637017,637017,17,46,21,134,15,46,201,43
16:54:32.638017,638017,17,46,21,134,15,46,201,43
16:54:32.639016,639016,17,46,21,134,15,46,201,43
16:54:32.640016,640016,17,46,21,134,15,46,201,43
16:54:32.641017,641017,17,46,21,134,15,46,201,43
16:54:32.642017,642017,17,46,21,134,15,46,201,43
16:54:32.643017,643017,17,46,21,134,15,46,201,43
16:54:32.643017,643017,13,57,22,141,18,44,203,45
16:54:32.644017,644017,13,57,22,141,18,44,203,45
16:54:32.645016,645016,13,57,22,141,18,44,203,45
16:54:32.646017,646017,13,57,22,141,18,44,203,45
16:54:32.647018,647018,13,57,22,141,18,44,203,45
16:54:32.648017,648017,13,57,22,141,18,44,203,45
16:54:32.649017,649017,13,57,22,141,18,44,203,45
16:54:32.650017,650017,13,61,18,142,20,36,212,50
16:54:32.651018,651018,13,61,18,142,20,36,212,50
16:54:32.652016,652016,13,61,18,142,20,36,212,50
16:54:32.653018,653018,13,61,18,142,20,36,212,50
16:54:32.654017,654017,13,61,18,142,20,36,212,50
16:54:32.655017,655017,13,61,18,142,20,36,212,50
16:54:32.656016,656016,13,61,18,142,20,36,212,50
16:54:32.656016,656016,14,57,20,144,24,33,230,45
16:54:32.656016,656016,18,45,21,113,24,30,249,41
16:54:32.657017,657017,18,45,21,113,24,30,249,41
16:54:32.658016,658016,18,45,21,113,24,30,249,41
16:54:32.658109,658109,18,45,21,113,24,30,249,41
16:54:32.659016,659016,18,45,21,113,24,30,249,41
16:54:32.660017,660017,18,45,21,113,24,30,249,41
16:54:32.661017,661017,18,45,21,113,24,30,249,41
16:54:32.662017,662017,18,45,21,113,24,30,249,41
16:54:32.663017,663017,18,45,21,113,24,30,249,41
16:54:32.664017,664017,18,45,21,113,24,30,249,41
16:54:32.665017,665017,18,45,21,113,24,30,249,41
16:54:32.665017,665017,25,46,18,99,26,28,232,52
16:54:32.666017,666017,25,46,18,99,26,28,232,52
16:54:32.667016,667016,25,46,18,99,26,28,232,52
16:54:32.668017,668017,25,46,18,99,26,28,232,52
16:54:32.669018,669018,25,46,18,99,26,28,232,52
16:54:32.670016,670016,25,46,18,99,26,28,232,52
16:54:32.671017,671017,30,59,21,161,24,30,176,52
16:54:32.672018,672018,30,59,21,161,24,30,176,52
16:54:32.673018,673018,30,59,21,161,24,30,176,52
16:54:32.674018,674018,30,59,21,161,24,30,176,52
16:54:32.675019,675019,30,59,21,161,24,30,176,52
16:54:32.676019,676019,30,59,21,161,24,30,176,52
16:54:32.677019,677019,30,59,21,161,24,30,176,52
16:54:32.678017,678017,30,59,21,161,24,30,176,52
16:54:32.679019,679019,30,59,21,161,24,30,176,52
16:54:32.680017,680017,30,59,21,161,24,30,176,52
16:54:32.681020,681020,30,59,21,161,24,30,176,52
16:54:32.682017,682017,30,59,21,161,24,30,176,52
16:54:32.683021,683021,30,59,21,161,24,30,176,52
16:54:32.684021,684021,30,59,21,161,24,30,176,52
16:54:32.685020,685020,30,59,21,161,24,30,176,52
16:54:32.686020,686020,30,59,21,161,24,30,176,52
16:54:32.687020,687020,30,59,21,161,24,30,176,52
16:54:32.688018,688018,30,59,21,161,24,30,176,52
16:54:32.689021,689021,32,39,17,170,18,35,171,59
16:54:32.690018,690018,32,39,17,170,18,35,171,59
16:54:32.691018,691018,32,39,17,170,18,35,171,59
16:54:32.692017,692017,32,39,17,170,18,35,171,59
16:54:32.693017,693017,32,39,17,170,18,35,171,59
16:54:32.694017,694017,32,39,17,170,18,35,171,59
16:54:32.695017,695017,32,39,17,170,18,35,171,59
16:54:32.696017,696017,32,39,17,170,18,35,171,59
16:54:32.697016,697016,32,39,17,170,18,35,171,59
16:54:32.698016,698016,32,39,17,170,18,35,171,59
16:54:32.699019,699019,32,39,17,170,18,35,171,59
16:54:32.700018,700018,33,60,18,190,15,34,164,66
16:54:32.701018,701018,33,60,18,190,15,34,164,66
16:54:32.702017,702017,33,60,18,190,15,34,164,66
16:54:32.703016,703016,33,60,18,190,15,34,164,66
16:54:32.704016,704016,33,60,18,190,15,34,164,66
16:54:32.705017,705017,33,60,18,190,15,34,164,66
16:54:32.706017,706017,33,60,18,190,15,34,164,66
16:54:32.707017,707017,33,60,18,190,15,34,164,66
16:54:32.708016,708016,33,60,18,190,15,34,164,66
16:54:32.709016,709016,33,60,18,190,15,34,164,66
16:54:32.710017,710017,33,60,18,190,15,34,164,66
16:54:32.711017,711017,31,77,19,195,14,32,208,71
16:54:32.711017,711017,24,84,22,180,13,32,271,67
16:54:32.712021,712021,24,84,22,180,13,32,271,67
16:54:32.713020,713020,24,84,22,180,13,32,271,67
16:54:32.714021,714021,24,84,22,180,13,32,271,67
16:54:32.715020,715020,24,84,22,180,13,32,271,67
16:54:32.716021,716021,24,84,22,180,13,32,271,67
16:54:32.717020,717020,24,84,22,180,13,32,271,67
16:54:32.718020,718020,24,84,22,180,13,32,271,67
16:54:32.719021,719021,24,84,22,180,13,32,271,67
16:54:32.720021,720021,24,84,22,180,13,32,271,67
16:54:32.721021,721021,24,84,22,180,13,32,271,67
16:54:32.722020,722020,24,84,22,180,13,32,271,67
16:54:32.723020,723020,24,84,22,180,13,32,271,67
16:54:32.724020,724020,24,84,22,180,13,32,271,67
16:54:32.725020,725020,24,84,22,180,13,32,271,67
16:54:32.725020,725020,22,78,18,143,15,37,322,61
16:54:32.726018,726018,22,78,18,143,15,37,322,61
16:54:32.727017,727017,22,78,18,143,15,37,322,61
16:54:32.728018,728018,22,78,18,143,15,37,322,61
16:54:32.729018,729018,22,78,18,143,15,37,322,61
16:54:32.730017,730017,22,78,18,143,15,37,322,61
16:54:32.731017,731017,22,78,18,143,15,37,322,61
16:54:32.732018,732018,22,78,18,143,15,37,322,61
16:54:32.732018,732018,26,89,22,109,13,30,360,56
16:54:32.733017,733017,26,89,22,109,13,30,360,56
16:54:32.734017,734017,26,89,22,109,13,30,360,56
16:54:32.735020,735020,26,89,22,109,13,30,360,56
16:54:32.736018,736018,26,89,22,109,13,30,360,56
16:54:32.737017,737017,26,89,22,109,13,30,360,56
16:54:32.738018,738018,26,89,22,109,13,30,360,56
16:54:32.739017,739017,26,89,22,109,13,30,360,56
16:54:32.740016,740016,26,89,22,109,13,30,360,56
16:54:32.741016,741016,26,89,22,109,13,30,360,56
16:54:32.742019,742019,26,89,22,109,13,30,360,56
16:54:32.743019,743019,26,89,22,109,13,30,360,56
16:54:32.744018,744018,26,89,22,109,13,30,360,56
16:54:32.745018,745018,26,89,22,109,13,30,360,56
16:54:32.746018,746018,26,93,23,97,16,27,374,45
16:54:32.747018,747018,26,93,23,97,16,27,374,45
16:54:32.748018,748018,26,93,23,97,16,27,374,45
16:54:32.749020,749020,26,93,23,97,16,27,374,45
16:54:32.750019,750019,26,93,23,97,16,27,374,45
16:54:32.751019,751019,26,93,23,97,16,27,374,45
16:54:32.752018,752018,26,93,23,97,16,27,374,45
16:54:32.753018,753018,26,93,23,97,16,27,374,45
16:54:32.754019,754019,26,93,23,97,16,27,374,45
16:54:32.754019,754019,34,90,20,82,17,27,387,48
16:54:32.755017,755017,34,90,20,82,17,27,387,48
16:54:32.756017,756017,34,90,20,82,17,27,387,48
16:54:32.757017,757017,34,90,20,82,17,27,387,48
16:54:32.758017,758017,34,90,20,82,17,27,387,48
16:54:32.759019,759019,34,90,20,82,17,27,387,48
16:54:32.760018,760018,40,79,22,86,16,26,388,50
16:54:32.761017,761017,40,79,22,86,16,26,388,50
16:54:32.762017,762017,40,79,22,86,16,26,388,50
16:54:32.763018,763018,40,79,22,86,16,26,388,50
16:54:32.764017,764017,40,79,22,86,16,26,388,50
16:54:32.765016,765016,40,79,22,86,16,26,388,50
16:54:32.766018,766018,40,79,22,86,16,26,388,50
16:54:32.767017,767017,40,79,22,86,16,26,388,50
16:54:32.768017,768017,40,79,22,86,16,26,388,50
16:54:32.769017,769017,40,79,22,86,16,26,388,50
16:54:32.770016,770016,40,79,22,86,16,26,388,50
16:54:32.771018,771018,40,79,22,86,16,26,388,50
16:54:32.772018,772018,40,79,22,86,16,26,388,50
16:54:32.773017,773017,40,79,22,86,16,26,388,50
16:54:32.774017,774017,40,79,22,86,16,26,388,50
16:54:32.775017,775017,40,79,22,86,16,26,388,50
16:54:32.776017,776017,40,79,22,86,16,26,388,50
16:54:32.777017,777017,40,79,22,86,16,26,388,50
16:54:32.778017,778017,40,79,22,86,16,26,388,50
16:54:32.778017,778017,43,60,19,79,16,28,348,41
16:54:32.779019,779019,43,60,19,79,16,28,348,41
16:54:32.780017,780017,43,60,19,79,16,28,348,41
16:54:32.781018,781018,43,60,19,79,16,28,348,41
16:54:32.782018,782018,43,60,19,79,16,28,348,41
16:54:32.783019,783019,43,60,19,79,16,28,348,41
16:54:32.784019,784019,43,60,19,79,16,28,348,41
16:54:32.784019,784019,44,50,15,80,16,29,298,44
16:54:32.785017,785017,44,50,15,80,16,29,298,44
16:54:32.786017,786017,44,50,15,80,16,29,298,44
16:54:32.787017,787017,44,50,15,80,16,29,298,44
16:54:32.788017,788017,44,50,15,80,16,29,298,44
16:54:32.789016,789016,44,50,15,80,16,29,298,44
16:54:32.790016,790016,44,50,15,80,16,29,298,44
16:54:32.790016,790016,64,64,21,53,17,21,247,42
16:54:32.791017,791017,64,64,21,53,17,21,247,42
16:54:32.792017,792017,64,64,21,53,17,21,247,42
16:54:32.793017,793017,64,64,21,53,17,21,247,42
16:54:32.794017,794017,64,64,21,53,17,21,247,42
16:54:32.795017,795017,64,64,21,53,17,21,247,42
16:54:32.796017,796017,64,64,21,53,17,21,247,42
16:54:32.796017,796017,68,51,17,56,15,29,247,43
16:54:32.796017,796017,71,58,17,68,16,38,243,45
16:54:32.797017,797017,71,58,17,68,16,38,243,45
16:54:32.798017,798017,71,58,17,68,16,38,243,45
16:54:32.799018,799018,71,58,17,68,16,38,243,45
16:54:32.800017,800017,71,58,17,68,16,38,243,45
16:54:32.801017,801017,71,58,17,68,16,38,243,45
16:54:32.802018,802018,71,58,17,68,16,38,243,45
16:54:32.803017,803017,71,58,17,68,16,38,243,45
16:54:32.804017,804017,71,58,17,68,16,38,243,45
16:54:32.805017,805017,71,58,17,68,16,38,243,45
16:54:32.806016,806016,71,58,17,68,16,38,243,45
16:54:32.807018,807018,71,58,17,68,16,38,243,45
16:54:32.808017,808017,71,58,17,68,16,38,243,45
16:54:32.808017,808017,55,59,17,74,20,38,205,35
16:54:32.809017,809017,55,59,17,74,20,38,205,35
16:54:32.810016,810016,55,59,17,74,20,38,205,35
16:54:32.811017,811017,55,59,17,74,20,38,205,35
16:54:32.812017,812017,55,59,17,74,20,38,205,35
16:54:32.813019,813019,55,59,18,165,25,41,218,36
16:54:32.814016,814016,55,59,18,165,25,41,218,36
16:54:32.815017,815017,55,59,18,165,25,41,218,36
16:54:32.816017,816017,55,59,18,165,25,41,218,36
16:54:32.817017,817017,55,59,18,165,25,41,218,36
16:54:32.818016,818016,55,59,18,165,25,41,218,36
16:54:32.819016,819016,55,59,18,165,25,41,218,36
16:54:32.820017,820017,55,59,18,165,25,41,218,36
16:54:32.821018,821018,55,59,18,165,25,41,218,36
16:54:32.822016,822016,55,59,18,165,25,41,218,36
16:54:32.823016,823016,55,59,18,165,25,41,218,36
16:54:32.824017,824017,55,59,18,165,25,41,218,36
16:54:32.825017,825017,55,59,18,165,25,41,218,36
16:54:32.826018,826018,55,59,18,165,25,41,218,36
16:54:32.827016,827016,55,59,18,165,25,41,218,36
16:54:32.828018,828018,55,59,18,165,25,41,218,36
16:54:32.829018,829018,55,59,18,165,25,41,218,36
16:54:32.830018,830018,55,59,18,165,25,41,218,36
16:54:32.831017,831017,55,59,18,165,25,41,218,36
16:54:32.832017,832017,47,60,15,205,27,41,193,35
16:54:32.833018,833018,47,60,15,205,27,41,193,35
16:54:32.834018,834018,47,60,15,205,27,41,193,35
16:54:32.835018,835018,47,60,15,205,27,41,193,35
16:54:32.836018,836018,47,60,15,205,27,41,193,35
16:54:32.837019,837019,47,60,15,205,27,41,193,35
16:54:32.838018,838018,47,60,15,205,27,41,193,35
16:54:32.838018,838018,39,46,12,223,23,45,206,40
16:54:32.839020,839020,39,46,12,223,23,45,206,40
16:54:32.840020,840020,39,46,12,223,23,45,206,40
16:54:32.841019,841019,39,46,12,223,23,45,206,40
16:54:32.842019,842019,39,46,12,223,23,45,206,40
16:54:32.843020,843020,39,46,12,223,23,45,206,40
16:54:32.844020,844020,39,46,12,223,23,45,206,40
16:54:32.845019,845019,39,46,12,223,23,45,206,40
16:54:32.846019,846019,39,46,12,223,23,45,206,40
16:54:32.847018,847018,39,46,12,223,23,45,206,40
16:54:32.848019,848019,39,46,12,223,23,45,206,40
16:54:32.849019,849019,39,46,12,223,23,45,206,40
16:54:32.850023,850023,39,46,12,223,23,45,206,40
16:54:32.851018,851018,39,46,12,223,23,45,206,40
16:54:32.852018,852018,39,46,12,223,23,45,206,40
16:54:32.853019,853019,39,46,12,223,23,45,206,40
16:54:32.853019,853019,38,64,11,224,23,41,173,44
16:54:32.854019,854019,38,64,11,224,23,41,173,44
16:54:32.855018,855018,38,64,11,224,23,41,173,44
16:54:32.856018,856018,38,64,11,224,23,41,173,44
16:54:32.857018,857018,38,64,11,224,23,41,173,44
16:54:32.858019,858019,38,64,11,224,23,41,173,44
16:54:32.859018,859018,38,64,11,224,23,41,173,44
16:54:32.859018,859018,38,69,11,217,22,34,158,44
16:54:32.860018,860018,38,69,11,217,22,34,158,44
16:54:32.861019,861019,38,69,11,217,22,34,158,44
16:54:32.862018,862018,38,69,11,217,22,34,158,44
16:54:32.863018,863018,38,69,11,217,22,34,158,44
16:54:32.864019,864019,38,69,11,217,22,34,158,44
16:54:32.864019,864019,36,65,14,184,18,44,140,46
16:54:32.865019,865019,36,65,14,184,18,44,140,46
16:54:32.866020,866020,36,65,14,184,18,44,140,46
16:54:32.867024,867024,36,65,14,184,18,44,140,46
16:54:32.868020,868020,36,65,14,184,18,44,140,46
16:54:32.869020,869020,36,65,14,184,18,44,140,46
16:54:32.870019,870019,36,65,14,184,18,44,140,46
16:54:32.871018,871018,36,65,14,184,18,44,140,46
16:54:32.872019,872019,36,65,14,184,18,44,140,46
16:54:32.873019,873019,36,65,14,184,18,44,140,46
16:54:32.874019,874019,36,65,14,184,18,44,140,46
16:54:32.875018,875018,36,65,14,184,18,44,140,46
16:54:32.875018,875018,29,63,15,162,16,39,149,51
16:54:32.876018,876018,29,63,15,162,16,39,149,51
16:54:32.877018,877018,29,63,15,162,16,39,149,51
16:54:32.878018,878018,29,63,15,162,16,39,149,51
16:54:32.879018,879018,29,63,15,162,16,39,149,51
16:54:32.880018,880018,29,63,15,162,16,39,149,51
16:54:32.881018,881018,29,63,15,162,16,39,149,51
16:54:32.882018,882018,29,63,15,162,16,39,149,51
16:54:32.883018,883018,29,63,15,162,16,39,149,51
16:54:32.884018,884018,29,63,15,162,16,39,149,51
16:54:32.885018,885018,29,63,15,162,16,39,149,51
16:54:32.886017,886017,29,63,15,162,16,39,149,51
16:54:32.887018,887018,29,63,15,162,16,39,149,51
16:54:32.888018,888018,29,63,15,162,16,39,149,51
16:54:32.889019,889019,29,63,15,162,16,39,149,51
16:54:32.889019,889019,19,59,18,223,17,39,152,51
16:54:32.890018,890018,19,59,18,223,17,39,152,51
16:54:32.891018,891018,19,59,18,223,17,39,152,51
16:54:32.892017,892017,19,59,18,223,17,39,152,51
16:54:32.893020,893020,19,59,18,223,17,39,152,51
16:54:32.894019,894019,19,59,18,223,17,39,152,51
16:54:32.894019,894019,21,25,21,223,20,38,192,51
16:54:32.895018,895018,21,25,21,223,20,38,192,51
16:54:32.896017,896017,21,25,21,223,20,38,192,51
16:54:32.897018,897018,21,25,21,223,20,38,192,51
16:54:32.898017,898017,21,25,21,223,20,38,192,51
16:54:32.899017,899017,21,25,21,223,20,38,192,51
16:54:32.900017,900017,21,25,21,223,20,38,192,51
16:54:32.901017,901017,21,25,21,223,20,38,192,51
16:54:32.902017,902017,21,25,21,223,20,38,192,51
16:54:32.903017,903017,21,25,21,223,20,38,192,51
16:54:32.904017,904017,21,25,21,223,20,38,192,51
16:54:32.905017,905017,21,25,21,223,20,38,192,51
16:54:32.906017,906017,21,25,21,223,20,38,192,51
16:54:32.907017,907017,21,25,21,223,20,38,192,51
16:54:32.908017,908017,21,25,21,223,20,38,192,51
16:54:32.909017,909017,21,25,21,223,20,38,192,51
16:54:32.910017,910017,21,25,21,223,20,38,192,51
16:54:32.911017,911017,21,25,21,223,20,38,192,51
16:54:32.912017,912017,21,25,21,223,20,38,192,51
16:54:32.913018,913018,20,57,17,186,18,22,218,66
16:54:32.914019,914019,20,57,17,186,18,22,218,66
16:54:32.915017,915017,20,57,17,186,18,22,218,66
16:54:32.916017,916017,20,57,17,186,18,22,218,66
16:54:32.917016,917016,20,57,17,186,18,22,218,66
16:54:32.918017,918017,20,57,17,186,18,22,218,66
16:54:32.919016,919016,20,57,17,186,18,22,218,66
16:54:32.920017,920017,20,57,17,186,18,22,218,66
16:54:32.921017,921017,20,57,17,186,18,22,218,66
16:54:32.922017,922017,20,57,17,186,18,22,218,66
16:54:32.923016,923016,20,57,17,186,18,22,218,66
16:54:32.924017,924017,20,57,17,186,18,22,218,66
16:54:32.925018,925018,20,57,17,186,18,22,218,66
16:54:32.926018,926018,20,57,17,186,18,22,218,66
16:54:32.927018,927018,20,57,17,186,18,22,218,66
16:54:32.928017,928017,20,57,17,186,18,22,218,66
16:54:32.929016,929016,20,57,17,186,18,22,218,66
16:54:32.929016,929016,22,72,18,206,17,19,202,69
16:54:32.930017,930017,22,72,18,206,17,19,202,69
16:54:32.931017,931017,22,72,18,206,17,19,202,69
16:54:32.932017,932017,22,72,18,206,17,19,202,69
16:54:32.933017,933017,22,72,18,206,17,19,202,69
16:54:32.934017,934017,22,72,18,206,17,19,202,69
16:54:32.935016,935016,22,72,18,206,17,19,202,69
16:54:32.935016,935016,24,78,15,223,18,19,206,75
16:54:32.936017,936017,24,78,15,223,18,19,206,75
16:54:32.937016,937016,24,78,15,223,18,19,206,75
16:54:32.938016,938016,24,78,15,223,18,19,206,75
16:54:32.939016,939016,24,78,15,223,18,19,206,75
16:54:32.940016,940016,24,78,15,223,18,19,206,75
16:54:32.941016,941016,24,78,15,223,18,19,206,75
16:54:32.942017,942017,24,78,15,223,18,19,206,75
16:54:32.943016,943016,24,78,15,223,18,19,206,75
16:54:32.944019,944019,24,78,15,223,18,19,206,75
16:54:32.945019,945019,24,78,15,223,18,19,206,75
16:54:32.946019,946019,24,78,15,223,18,19,206,75
16:54:32.947016,947016,24,78,15,223,18,19,206,75
16:54:32.948016,948016,25,88,14,163,18,14,211,66
16:54:32.948016,948016,21,87,13,156,17,15,192,68
16:54:32.948016,948016,18,90,13,161,12,15,165,63
16:54:32.948016,948016,19,85,16,148,12,18,183,54
16:54:32.948016,948016,16,78,18,159,12,22,151,52
16:54:32.949017,949017,16,78,18,159,12,22,151,52
16:54:32.950016,950016,16,78,18,159,12,22,151,52
16:54:32.951017,951017,16,78,18,159,12,22,151,52
16:54:32.952016,952016,16,78,18,159,12,22,151,52
16:54:32.953017,953017,16,78,18,159,12,22,151,52
16:54:32.954017,954017,16,78,18,159,12,22,151,52
16:54:32.955016,955016,16,78,18,159,12,22,151,52
16:54:32.956016,956016,16,78,18,159,12,22,151,52
16:54:32.957017,957017,16,78,18,159,12,22,151,52
16:54:32.958016,958016,16,78,18,159,12,22,151,52
16:54:32.959016,959016,16,78,18,159,12,22,151,52
16:54:32.960017,960017,16,78,18,159,12,22,151,52
16:54:32.961016,961016,16,78,18,159,12,22,151,52
16:54:32.962016,962016,16,78,18,159,12,22,151,52
16:54:32.963017,963017,16,78,18,159,12,22,151,52
16:54:32.964017,964017,16,78,18,159,12,22,151,52
16:54:32.965018,965018,16,78,18,159,12,22,151,52
16:54:32.966019,966019,16,78,18,159,12,22,151,52
16:54:32.967017,967017,16,78,18,159,12,22,151,52
16:54:32.968016,968016,16,78,18,159,12,22,151,52
16:54:32.969016,969016,16,78,18,159,12,22,151,52
16:54:32.970016,970016,16,78,18,159,12,22,151,52
16:54:32.971017,971017,16,78,18,159,12,22,151,52
16:54:32.972017,972017,16,78,18,159,12,22,151,52
16:54:32.973017,973017,16,78,18,159,12,22,151,52
16:54:32.974017,974017,16,78,18,159,12,22,151,52
16:54:32.975017,975017,16,78,18,159,12,22,151,52
16:54:32.976017,976017,16,78,18,159,12,22,151,52
16:54:32.977018,977018,16,78,18,159,12,22,151,52
16:54:32.978017,978017,16,78,18,159,12,22,151,52
16:54:32.979017,979017,16,78,18,159,12,22,151,52
16:54:32.980017,980017,28,36,17,63,12,20,112,37
16:54:32.981018,981018,28,36,17,63,12,20,112,37
16:54:32.982017,982017,28,36,17,63,12,20,112,37
16:54:32.983018,983018,28,36,17,63,12,20,112,37
16:54:32.984018,984018,28,36,17,63,12,20,112,37
16:54:32.985017,985017,28,36,17,63,12,20,112,37
16:54:32.986018,986018,28,36,17,63,12,20,112,37
16:54:32.987017,987017,28,36,17,63,12,20,112,37
16:54:32.988016,988016,28,36,17,63,12,20,112,37
16:54:32.989016,989016,28,36,17,63,12,20,112,37
16:54:32.989016,989016,32,24,21,82,17,21,117,41
16:54:32.990017,990017,32,24,21,82,17,21,117,41
16:54:32.991017,991017,32,24,21,82,17,21,117,41
16:54:32.992017,992017,32,24,21,82,17,21,117,41
16:54:32.993017,993017,32,24,21,82,17,21,117,41
16:54:32.994017,994017,32,24,21,82,17,21,117,41
16:54:32.995016,995016,32,24,21,82,17,21,117,41
16:54:32.995016,995016,34,23,20,82,17,20,106,44
16:54:32.996017,996017,34,23,20,82,17,20,106,44
16:54:32.997016,997016,34,23,20,82,17,20,106,44
16:54:32.998016,998016,34,23,20,82,17,20,106,44
16:54:32.999016,999016,34,23,20,82,17,20,106,44
16:54:33.000016,000016,34,23,20,82,17,20,106,44
16:54:33.001016,001016,34,23,20,82,17,20,106,44
16:54:33.002016,002016,34,23,20,82,17,20,106,44
16:54:33.003016,003016,34,23,20,82,17,20,106,44
16:54:33.004016,004016,34,23,20,82,17,20,106,44
16:54:33.005016,005016,34,23,20,82,17,20,106,44
16:54:33.006017,006017,34,23,20,82,17,20,106,44
16:54:33.007016,007016,34,23,20,82,17,20,106,44
16:54:33.008017,008017,34,23,20,82,17,20,106,44
16:54:33.009016,009016,34,23,20,82,17,20,106,44
16:54:33.010017,010017,34,23,20,82,17,20,106,44
16:54:33.011017,011017,38,26,23,62,18,16,109,62
16:54:33.011017,011017,36,32,26,63,17,16,102,70
16:54:33.011017,011017,27,30,23,64,15,18,97,66
16:54:33.012017,012017,27,30,23,64,15,18,97,66
16:54:33.013016,013016,27,30,23,64,15,18,97,66
16:54:33.014016,014016,27,30,23,64,15,18,97,66
16:54:33.015016,015016,27,30,23,64,15,18,97,66
16:54:33.016018,016018,27,30,23,64,15,18,97,66
16:54:33.017017,017017,27,30,23,64,15,18,97,66
16:54:33.018019,018019,27,30,23,64,15,18,97,66
16:54:33.019018,019018,27,30,23,64,15,18,97,66
16:54:33.020018,020018,27,30,23,64,15,18,97,66
16:54:33.021017,021017,27,30,23,64,15,18,97,66
16:54:33.022018,022018,27,30,23,64,15,18,97,66
16:54:33.023017,023017,27,30,23,64,15,18,97,66
16:54:33.024017,024017,27,30,23,64,15,18,97,66
16:54:33.025017,025017,27,30,23,64,15,18,97,66
16:54:33.026017,026017,27,30,23,64,15,18,97,66
16:54:33.027017,027017,27,30,23,64,15,18,97,66
16:54:33.028017,028017,27,30,23,64,15,18,97,66
16:54:33.029017,029017,27,30,23,64,15,18,97,66
16:54:33.030017,030017,27,30,23,64,15,18,97,66
16:54:33.031017,031017,27,30,23,64,15,18,97,66
16:54:33.032017,032017,27,30,23,64,15,18,97,66
16:54:33.032017,032017,39,34,23,68,11,18,156,66
16:54:33.033017,033017,39,34,23,68,11,18,156,66
16:54:33.034017,034017,39,34,23,68,11,18,156,66
16:54:33.035017,035017,39,34,23,68,11,18,156,66
16:54:33.036016,036016,39,34,23,68,11,18,156,66
16:54:33.037016,037016,39,34,23,68,11,18,156,66
16:54:33.038016,038016,39,34,23,68,11,18,156,66
16:54:33.039016,039016,39,34,23,68,11,18,156,66
16:54:33.040016,040016,39,34,23,68,11,18,156,66
16:54:33.041017,041017,39,34,23,68,11,18,156,66
16:54:33.042017,042017,39,34,23,68,11,18,156,66
16:54:33.043016,043016,39,34,23,68,11,18,156,66
16:54:33.044016,044016,39,34,23,68,11,18,156,66
16:54:33.045016,045016,39,34,23,68,11,18,156,66
16:54:33.046016,046016,39,34,23,68,11,18,156,66
16:54:33.047016,047016,39,34,23,68,11,18,156,66
16:54:33.048016,048016,39,34,23,68,11,18,156,66
16:54:33.048016,048016,40,55,21,62,12,22,152,72
16:54:33.049018,049018,35,53,17,73,10,21,250,57
16:54:33.050018,050018,35,53,17,73,10,21,250,57
16:54:33.051017,051017,35,53,17,73,10,21,250,57
16:54:33.052017,052017,35,53,17,73,10,21,250,57
16:54:33.053017,053017,35,53,17,73,10,21,250,57
16:54:33.054017,054017,35,53,17,73,10,21,250,57
16:54:33.055017,055017,35,53,17,73,10,21,250,57
16:54:33.056017,056017,35,53,17,73,10,21,250,57
16:54:33.057017,057017,35,53,17,73,10,21,250,57
16:54:33.058016,058016,35,53,17,73,10,21,250,57
16:54:33.059016,059016,35,53,17,73,10,21,250,57
16:54:33.060016,060016,35,53,17,73,10,21,250,57
16:54:33.061017,061017,35,53,17,73,10,21,250,57
16:54:33.062017,062017,35,53,17,73,10,21,250,57
16:54:33.063017,063017,35,53,17,73,10,21,250,57
16:54:33.064017,064017,35,53,17,73,10,21,250,57
16:54:33.065017,065017,35,53,17,73,10,21,250,57
16:54:33.066019,066019,35,53,17,73,10,21,250,57
16:54:33.067017,067017,35,53,17,73,10,21,250,57
16:54:33.068016,068016,35,53,17,73,10,21,250,57
16:54:33.069017,069017,35,53,17,73,10,21,250,57
16:54:33.070016,070016,35,53,17,73,10,21,250,57
16:54:33.070016,070016,40,50,15,98,14,24,288,49
16:54:33.071018,071018,40,50,15,98,14,24,288,49
16:54:33.072017,072017,40,50,15,98,14,24,288,49
16:54:33.073017,073017,40,50,15,98,14,24,288,49
16:54:33.074017,074017,40,50,15,98,14,24,288,49
16:54:33.075017,075017,40,50,15,98,14,24,288,49
16:54:33.076016,076016,40,50,15,98,14,24,288,49
16:54:33.076016,076016,42,47,15,73,15,22,385,60
16:54:33.076016,076016,35,44,14,69,16,23,375,55
16:54:33.077017,077017,35,44,14,69,16,23,375,55
16:54:33.078016,078016,35,44,14,69,16,23,375,55
16:54:33.079016,079016,35,44,14,69,16,23,375,55
16:54:33.080016,080016,35,44,14,69,16,23,375,55
16:54:33.081017,081017,35,44,14,69,16,23,375,55
16:54:33.082018,082018,35,44,14,69,16,23,375,55
16:54:33.083019,083019,35,44,14,69,16,23,375,55
16:54:33.084017,084017,35,44,14,69,16,23,375,55
16:54:33.085016,085016,35,44,14,69,16,23,375,55
16:54:33.086016,086016,35,44,14,69,16,23,375,55
16:54:33.087016,087016,35,44,14,69,16,23,375,55
16:54:33.088016,088016,35,44,14,69,16,23,375,55
16:54:33.089018,089018,35,44,14,69,16,23,375,55
16:54:33.090016,090016,35,44,14,69,16,23,375,55
16:54:33.091017,091017,35,44,14,69,16,23,375,55
16:54:33.092017,092017,35,44,14,69,16,23,375,55
16:54:33.093016,093016,35,44,14,69,16,23,375,55
16:54:33.094016,094016,23,43,13,76,15,24,350,49
16:54:33.095017,095017,23,43,13,76,15,24,350,49
16:54:33.096016,096016,23,43,13,76,15,24,350,49
16:54:33.097016,097016,23,43,13,76,15,24,350,49
16:54:33.098016,098016,23,43,13,76,15,24,350,49
16:54:33.099018,099018,23,43,13,76,15,24,350,49
16:54:33.100016,100016,20,35,17,75,16,24,369,50
16:54:33.101017,101017,20,35,17,75,16,24,369,50
16:54:33.102017,102017,20,35,17,75,16,24,369,50
16:54:33.103017,103017,20,35,17,75,16,24,369,50
16:54:33.104016,104016,20,35,17,75,16,24,369,50
16:54:33.105016,105016,20,35,17,75,16,24,369,50
16:54:33.106016,106016,31,47,15,75,18,25,302,50
16:54:33.107017,107017,31,47,15,75,18,25,302,50
16:54:33.108016,108016,31,47,15,75,18,25,302,50
16:54:33.109016,109016,31,47,15,75,18,25,302,50
16:54:33.110016,110016,31,47,15,75,18,25,302,50
16:54:33.111017,111017,31,47,15,75,18,25,302,50
16:54:33.112017,112017,31,47,15,75,18,25,302,50
16:54:33.113017,113017,31,47,15,75,18,25,302,50
16:54:33.114017,114017,31,47,15,75,18,25,302,50
16:54:33.115017,115017,31,47,15,75,18,25,302,50
16:54:33.116016,116016,31,47,15,75,18,25,302,50
16:54:33.117017,117017,31,47,15,75,18,25,302,50
16:54:33.118017,118017,31,47,15,75,18,25,302,50
16:54:33.119017,119017,31,47,15,75,18,25,302,50
16:54:33.120016,120016,31,47,15,75,18,25,302,50
16:54:33.121016,121016,31,47,15,75,18,25,302,50
16:54:33.122016,122016,28,53,16,51,16,26,304,53
16:54:33.122016,122016,25,72,17,59,18,26,245,51
16:54:33.123017,123017,25,72,17,59,18,26,245,51
16:54:33.124017,124017,25,72,17,59,18,26,245,51
16:54:33.125016,125016,25,72,17,59,18,26,245,51
16:54:33.126016,126016,25,72,17,59,18,26,245,51
16:54:33.127016,127016,25,72,17,59,18,26,245,51
16:54:33.128016,128016,25,72,17,59,18,26,245,51
16:54:33.129016,129016,25,72,17,59,18,26,245,51
16:54:33.130016,130016,25,72,17,59,18,26,245,51
16:54:33.131016,131016,25,72,17,59,18,26,245,51
16:54:33.131016,131016,33,84,28,51,20,29,241,40
16:54:33.132017,132017,33,84,28,51,20,29,241,40
16:54:33.133017,133017,33,84,28,51,20,29,241,40
16:54:33.134017,134017,33,84,28,51,20,29,241,40
16:54:33.135016,135016,33,84,28,51,20,29,241,40
16:54:33.136017,136017,33,84,28,51,20,29,241,40
16:54:33.137016,137016,33,84,28,51,20,29,241,40
16:54:33.138016,138016,33,84,28,51,20,29,241,40
16:54:33.139016,139016,33,84,28,51,20,29,241,40
16:54:33.140016,140016,33,84,28,51,20,29,241,40
16:54:33.141016,141016,33,84,28,51,20,29,241,40
16:54:33.142016,142016,33,84,28,51,20,29,241,40
16:54:33.143016,143016,33,84,28,51,20,29,241,40
16:54:33.144017,144017,33,84,28,51,20,29,241,40
16:54:33.145016,145016,33,84,28,51,20,29,241,40
16:54:33.158017,158017,23,78,29,46,18,23,208,49
16:54:33.158017,158017,26,70,32,47,18,26,181,48
16:54:33.159017,159017,26,70,32,47,18,26,181,48
16:54:33.160017,160017,26,70,32,47,18,26,181,48
16:54:33.161017,161017,26,70,32,47,18,26,181,48
16:54:33.162016,162016,26,70,32,47,18,26,181,48
16:54:33.163016,163016,26,70,32,47,18,26,181,48
16:54:33.164016,164016,26,70,32,47,18,26,181,48
16:54:33.165016,165016,26,70,32,47,18,26,181,48
16:54:33.166016,166016,26,70,32,47,18,26,181,48
16:54:33.166016,166016,26,67,31,49,16,24,161,50
16:54:33.167017,167017,26,67,31,49,16,24,161,50
16:54:33.168016,168016,26,67,31,49,16,24,161,50
16:54:33.169016,169016,26,67,31,49,16,24,161,50
16:54:33.170016,170016,26,67,31,49,16,24,161,50
16:54:33.171017,171017,26,67,31,49,16,24,161,50
16:54:33.172016,172016,26,67,31,49,16,24,161,50
16:54:33.172016,172016,24,73,27,31,14,24,170,61
16:54:33.173017,173017,24,73,27,31,14,24,170,61
16:54:33.174016,174016,24,73,27,31,14,24,170,61
16:54:33.175017,175017,24,73,27,31,14,24,170,61
16:54:33.176017,176017,24,73,27,31,14,24,170,61
16:54:33.177017,177017,24,73,27,31,14,24,170,61
16:54:33.178016,178016,24,73,27,31,14,24,170,61
16:54:33.179016,179016,24,73,27,31,14,24,170,61
16:54:33.180016,180016,24,73,27,31,14,24,170,61
16:54:33.181017,181017,24,73,27,31,14,24,170,61
16:54:33.182017,182017,24,73,27,31,14,24,170,61
16:54:33.183017,183017,24,73,27,31,14,24,170,61
16:54:33.184016,184016,24,73,27,31,14,24,170,61
16:54:33.185016,185016,24,73,27,31,14,24,170,61
16:54:33.186016,186016,24,73,27,31,14,24,170,61
16:54:33.187018,187018,24,73,27,31,14,24,170,61
16:54:33.188017,188017,24,73,27,31,14,24,170,61
16:54:33.189016,189016,24,73,27,31,14,24,170,61
16:54:33.189016,189016,29,72,27,31,14,27,179,61
16:54:33.190017,190017,29,72,27,31,14,27,179,61
16:54:33.191016,191016,29,72,27,31,14,27,179,61
16:54:33.192016,192016,29,72,27,31,14,27,179,61
16:54:33.193017,193017,29,72,27,31,14,27,179,61
16:54:33.194016,194016,29,72,27,31,14,27,179,61
16:54:33.194016,194016,29,64,23,31,15,26,216,54
16:54:33.195017,195017,29,64,23,31,15,26,216,54
16:54:33.196017,196017,29,64,23,31,15,26,216,54
16:54:33.197016,197016,29,64,23,31,15,26,216,54
16:54:33.198016,198016,29,64,23,31,15,26,216,54
16:54:33.199018,199018,29,64,23,31,15,26,216,54
16:54:33.200017,200017,29,64,23,31,15,26,216,54
16:54:33.200017,200017,37,64,20,29,17,30,249,47
16:54:33.201017,201017,37,64,20,29,17,30,249,47
16:54:33.202017,202017,37,64,20,29,17,30,249,47
16:54:33.203017,203017,37,64,20,29,17,30,249,47
16:54:33.204017,204017,37,64,20,29,17,30,249,47
16:54:33.205017,205017,37,64,20,29,17,30,249,47
16:54:33.206017,206017,37,64,20,29,17,30,249,47
16:54:33.207017,207017,37,64,20,29,17,30,249,47
16:54:33.208016,208016,37,64,20,29,17,30,249,47
16:54:33.209018,209018,37,64,20,29,17,30,249,47
16:54:33.210017,210017,37,64,20,29,17,30,249,47
16:54:33.211017,211017,37,64,20,29,17,30,249,47
16:54:33.212017,212017,37,64,20,29,17,30,249,47
16:54:33.213017,213017,37,64,20,29,17,30,249,47
16:54:33.214016,214016,37,64,20,29,17,30,249,47
16:54:33.215015,215015,37,64,20,29,17,30,249,47
16:54:33.216016,216016,37,64,20,29,17,30,249,47
16:54:33.217015,217015,37,64,20,29,17,30,249,47
16:54:33.218015,218015,37,64,20,29,17,30,249,47
16:54:33.219015,219015,37,64,20,29,17,30,249,47
16:54:33.220016,220016,37,64,20,29,17,30,249,47
16:54:33.221015,221015,37,64,20,29,17,30,249,47
16:54:33.221015,221015,34,73,19,74,16,28,284,50
16:54:33.222016,222016,34,73,19,74,16,28,284,50
16:54:33.223015,223015,34,73,19,74,16,28,284,50
16:54:33.224017,224017,34,73,19,74,16,28,284,50
16:54:33.225015,225015,34,73,19,74,16,28,284,50
16:54:33.226017,226017,28,56,13,78,19,23,254,73
16:54:33.227016,227016,28,56,13,78,19,23,254,73
16:54:33.228015,228015,28,56,13,78,19,23,254,73
16:54:33.229017,229017,28,56,13,78,19,23,254,73
16:54:33.230018,230018,28,56,13,78,19,23,254,73
16:54:33.231017,231017,28,56,13,78,19,23,254,73
16:54:33.232016,232016,28,56,13,78,19,23,254,73
16:54:33.233017,233017,28,56,13,78,19,23,254,73
16:54:33.234017,234017,28,56,13,78,19,23,254,73
16:54:33.235017,235017,28,56,13,78,19,23,254,73
16:54:33.236017,236017,25,61,15,78,17,21,242,77
16:54:33.236017,236017,28,59,14,84,16,20,205,81
16:54:33.237017,237017,28,59,14,84,16,20,205,81
16:54:33.238015,238015,28,59,14,84,16,20,205,81
16:54:33.239016,239016,28,59,14,84,16,20,205,81
16:54:33.240015,240015,28,59,14,84,16,20,205,81
16:54:33.241016,241016,28,59,14,84,16,20,205,81
16:54:33.242015,242015,28,59,14,84,16,20,205,81
16:54:33.243016,243016,28,59,14,84,16,20,205,81
16:54:33.244015,244015,28,59,14,84,16,20,205,81
16:54:33.245017,245017,28,59,14,84,16,20,205,81
16:54:33.246017,246017,28,59,14,84,16,20,205,81
16:54:33.247017,247017,28,59,14,84,16,20,205,81
16:54:33.248016,248016,28,59,14,84,16,20,205,81
16:54:33.249019,249019,28,59,14,84,16,20,205,81
16:54:33.250017,250017,28,59,14,84,16,20,205,81
16:54:33.250017,250017,31,55,14,71,15,23,194,78
16:54:33.250017,250017,33,67,16,41,14,24,201,80
16:54:33.251017,251017,33,67,16,41,14,24,201,80
16:54:33.252017,252017,33,67,16,41,14,24,201,80
16:54:33.253016,253016,33,67,16,41,14,24,201,80
16:54:33.254018,254018,33,67,16,41,14,24,201,80
16:54:33.255018,255018,33,67,16,41,14,24,201,80
16:54:33.256018,256018,33,67,16,41,14,24,201,80
16:54:33.257017,257017,33,67,16,41,14,24,201,80
16:54:33.258017,258017,33,67,16,41,14,24,201,80
16:54:33.259017,259017,33,67,16,41,14,24,201,80
16:54:33.260016,260016,33,67,16,41,14,24,201,80
16:54:33.261016,261016,33,67,16,41,14,24,201,80
16:54:33.262017,262017,33,67,16,41,14,24,201,80
16:54:33.263016,263016,33,67,16,41,14,24,201,80
16:54:33.264017,264017,33,67,16,41,14,24,201,80
16:54:33.265016,265016,33,67,16,41,14,24,201,80
16:54:33.266017,266017,33,67,16,41,14,24,201,80
16:54:33.267016,267016,33,67,16,41,14,24,201,80
16:54:33.268017,268017,33,67,16,41,14,24,201,80
16:54:33.269018,269018,33,67,16,41,14,24,201,80
16:54:33.270017,270017,33,67,16,41,14,24,201,80
16:54:33.271016,271016,33,67,16,41,14,24,201,80
16:54:33.272017,272017,33,67,16,41,14,24,201,80
16:54:33.273016,273016,33,67,16,41,14,24,201,80
16:54:33.273016,273016,32,65,17,42,15,22,192,75
16:54:33.273016,273016,32,66,16,44,14,22,218,80
16:54:33.273016,273016,34,64,16,44,13,24,208,76
16:54:33.273016,273016,33,60,15,38,11,23,200,61
16:54:33.274017,274017,33,60,15,38,11,23,200,61
16:54:33.275016,275016,33,60,15,38,11,23,200,61
16:54:33.276016,276016,33,60,15,38,11,23,200,61
16:54:33.277016,277016,33,60,15,38,11,23,200,61
16:54:33.278016,278016,33,60,15,38,11,23,200,61
16:54:33.279016,279016,33,60,15,38,11,23,200,61
16:54:33.280017,280017,33,60,15,38,11,23,200,61
16:54:33.281016,281016,33,60,15,38,11,23,200,61
16:54:33.282018,282018,33,60,15,38,11,23,200,61
16:54:33.283017,283017,33,60,15,38,11,23,200,61
16:54:33.284017,284017,33,60,15,38,11,23,200,61
16:54:33.285018,285018,33,60,15,38,11,23,200,61
16:54:33.286017,286017,33,60,15,38,11,23,200,61
16:54:33.287016,287016,33,60,15,38,11,23,200,61
16:54:33.288016,288016,33,60,15,38,11,23,200,61
16:54:33.288016,288016,35,61,12,44,12,22,237,58
16:54:33.289017,289017,35,61,12,44,12,22,237,58
16:54:33.290016,290016,35,61,12,44,12,22,237,58
16:54:33.291016,291016,35,61,12,44,12,22,237,58
16:54:33.292016,292016,35,61,12,44,12,22,237,58
16:54:33.293016,293016,35,61,12,44,12,22,237,58
16:54:33.294017,294017,35,61,12,44,12,22,237,58
16:54:33.295016,295016,35,61,12,44,12,22,237,58
16:54:33.295016,295016,36,64,14,39,13,22,293,65
16:54:33.296017,296017,36,64,14,39,13,22,293,65
16:54:33.297016,297016,36,64,14,39,13,22,293,65
16:54:33.298016,298016,36,64,14,39,13,22,293,65
16:54:33.299017,299017,36,64,14,39,13,22,293,65
16:54:33.300018,300018,36,64,14,39,13,22,293,65
16:54:33.301016,301016,24,66,15,34,12,21,274,62
16:54:33.302017,302017,24,66,15,34,12,21,274,62
16:54:33.303016,303016,24,66,15,34,12,21,274,62
16:54:33.304017,304017,24,66,15,34,12,21,274,62
16:54:33.305016,305016,24,66,15,34,12,21,274,62
16:54:33.306017,306017,24,66,15,34,12,21,274,62
16:54:33.307016,307016,24,66,15,34,12,21,274,62
16:54:33.308018,308018,24,66,15,34,12,21,274,62
16:54:33.309016,309016,24,66,15,34,12,21,274,62
16:54:33.310016,310016,24,66,15,34,12,21,274,62
16:54:33.311016,311016,24,66,15,34,12,21,274,62
16:54:33.311016,311016,28,70,15,28,12,21,269,65
16:54:33.312017,312017,28,70,15,28,12,21,269,65
16:54:33.313016,313016,28,70,15,28,12,21,269,65
16:54:33.314017,314017,28,70,15,28,12,21,269,65
16:54:33.315017,315017,28,70,15,28,12,21,269,65
16:54:33.316018,316018,28,70,15,28,12,21,269,65
16:54:33.317016,317016,28,70,15,28,12,21,269,65
16:54:33.317016,317016,30,56,13,29,11,20,242,61
16:54:33.317016,317016,36,61,13,25,9,19,251,61
16:54:33.317016,317016,33,61,13,23,11,19,248,49
16:54:33.318017,318017,33,61,13,23,11,19,248,49
16:54:33.319016,319016,33,61,13,23,11,19,248,49
16:54:33.320017,320017,33,61,13,23,11,19,248,49
16:54:33.321017,321017,33,61,13,23,11,19,248,49
16:54:33.322017,322017,33,61,13,23,11,19,248,49
16:54:33.323017,323017,33,61,13,23,11,19,248,49
16:54:33.324017,324017,33,61,13,23,11,19,248,49
16:54:33.325016,325016,33,61,13,23,11,19,248,49
16:54:33.326016,326016,33,61,13,23,11,19,248,49
16:54:33.327016,327016,33,61,13,23,11,19,248,49
16:54:33.328017,328017,33,61,13,23,11,19,248,49
16:54:33.329016,329016,33,61,13,23,11,19,248,49
16:54:33.330017,330017,33,61,13,23,11,19,248,49
16:54:33.331016,331016,33,61,13,23,11,19,248,49
16:54:33.332016,332016,33,61,13,23,11,19,248,49
16:54:33.333016,333016,33,90,15,19,9,22,204,51
16:54:33.334017,334017,33,90,15,19,9,22,204,51
16:54:33.335016,335016,33,90,15,19,9,22,204,51
16:54:33.336016,336016,33,90,15,19,9,22,204,51
16:54:33.337016,337016,33,90,15,19,9,22,204,51
16:54:33.338016,338016,33,90,15,19,9,22,204,51
16:54:33.339016,339016,33,90,15,19,9,22,204,51
16:54:33.340016,340016,33,90,15,19,9,22,204,51
16:54:33.341016,341016,33,90,15,19,9,22,204,51
16:54:33.342017,342017,33,90,15,19,9,22,204,51
16:54:33.343018,343018,33,90,15,19,9,22,204,51
16:54:33.344017,344017,33,90,15,19,9,22,204,51
16:54:33.345016,345016,33,90,15,19,9,22,204,51
16:54:33.346016,346016,33,90,15,19,9,22,204,51
16:54:33.347016,347016,33,90,15,19,9,22,204,51
16:54:33.347016,347016,34,106,20,19,10,22,170,57
16:54:33.347016,347016,35,100,22,21,10,16,166,61
16:54:33.348017,348017,35,100,22,21,10,16,166,61
16:54:33.349017,349017,35,100,22,21,10,16,166,61
16:54:33.350017,350017,35,100,22,21,10,16,166,61
16:54:33.351016,351016,35,100,22,21,10,16,166,61
16:54:33.352017,352017,35,100,22,21,10,16,166,61
16:54:33.353016,353016,35,100,22,21,10,16,166,61
16:54:33.354017,354017,35,100,22,21,10,16,166,61
16:54:33.355016,355016,35,100,22,21,10,16,166,61
16:54:33.356019,356019,35,100,22,21,10,16,166,61
16:54:33.357017,357017,35,100,22,21,10,16,166,61
16:54:33.358017,358017,35,100,22,21,10,16,166,61
16:54:33.359017,359017,35,100,22,21,10,16,166,61
16:54:33.360017,360017,35,100,22,21,10,16,166,61
16:54:33.361017,361017,35,100,22,21,10,16,166,61
16:54:33.361017,361017,31,90,21,18,11,16,201,57
16:54:33.361017,361017,27,92,20,15,13,19,208,70
16:54:33.362017,362017,27,92,20,15,13,19,208,70
16:54:33.363017,363017,27,92,20,15,13,19,208,70
16:54:33.364017,364017,27,92,20,15,13,19,208,70
16:54:33.365018,365018,27,92,20,15,13,19,208,70
16:54:33.366019,366019,27,92,20,15,13,19,208,70
16:54:33.367018,367018,27,92,20,15,13,19,208,70
16:54:33.368018,368018,27,92,20,15,13,19,208,70
16:54:33.369018,369018,26,80,18,16,13,22,183,80
16:54:33.370019,370019,26,80,18,16,13,22,183,80
16:54:33.371017,371017,26,80,18,16,13,22,183,80
16:54:33.372017,372017,26,80,18,16,13,22,183,80
16:54:33.373017,373017,26,80,18,16,13,22,183,80
16:54:33.374017,374017,26,80,18,16,13,22,183,80
16:54:33.375018,375018,26,80,18,16,13,22,183,80
16:54:33.376017,376017,26,80,18,16,13,22,183,80
16:54:33.377017,377017,26,80,18,16,13,22,183,80
16:54:33.378016,378016,26,80,18,16,13,22,183,80
16:54:33.379016,379016,26,80,18,16,13,22,183,80
16:54:33.380016,380016,26,80,18,16,13,22,183,80
16:54:33.381017,381017,26,80,18,16,13,22,183,80
16:54:33.382018,382018,26,80,18,16,13,22,183,80
16:54:33.383017,383017,26,80,18,16,13,22,183,80
16:54:33.384017,384017,26,80,18,16,13,22,183,80
16:54:33.385017,385017,26,80,18,16,13,22,183,80
16:54:33.386017,386017,26,80,18,16,13,22,183,80
16:54:33.387018,387018,26,80,18,16,13,22,183,80
16:54:33.388017,388017,26,80,18,16,13,22,183,80
16:54:33.389018,389018,26,80,18,16,13,22,183,80
16:54:33.390017,390017,26,80,18,16,13,22,183,80
16:54:33.391018,391018,26,80,18,16,13,22,183,80
16:54:33.392017,392017,26,80,18,16,13,22,183,80
16:54:33.393018,393018,24,32,11,13,12,22,177,65
16:54:33.394017,394017,24,32,11,13,12,22,177,65
16:54:33.395017,395017,24,32,11,13,12,22,177,65
16:54:33.396016,396016,24,32,11,13,12,22,177,65
16:54:33.397016,397016,24,32,11,13,12,22,177,65
16:54:33.398016,398016,24,32,11,13,12,22,177,65
16:54:33.399017,399017,24,32,11,13,12,22,177,65
16:54:33.400017,400017,24,32,11,13,12,22,177,65
16:54:33.401017,401017,24,32,11,13,12,22,177,65
16:54:33.402016,402016,24,32,11,13,12,22,177,65
16:54:33.403017,403017,24,32,11,13,12,22,177,65
16:54:33.404017,404017,24,32,11,13,12,22,177,65
16:54:33.405016,405016,24,32,11,13,12,22,177,65
16:54:33.406017,406017,24,32,11,13,12,22,177,65
16:54:33.407016,407016,24,32,11,13,12,22,177,65
16:54:33.407016,407016,25,35,11,18,11,21,156,72
16:54:33.408017,408017,25,35,11,18,11,21,156,72
16:54:33.409017,409017,25,35,11,18,11,21,156,72
16:54:33.409017,409017,23,49,10,20,13,18,142,54
16:54:33.410019,410019,23,49,10,20,13,18,142,54
16:54:33.411018,411018,23,49,10,20,13,18,142,54
16:54:33.412018,412018,23,49,10,20,13,18,142,54
16:54:33.413018,413018,23,49,10,20,13,18,142,54
16:54:33.414018,414018,23,49,10,20,13,18,142,54
16:54:33.415018,415018,23,49,10,20,13,18,142,54
16:54:33.416018,416018,23,49,10,20,13,18,142,54
16:54:33.416018,416018,28,45,16,19,10,12,110,64
16:54:33.417019,417019,28,45,16,19,10,12,110,64
16:54:33.418017,418017,28,45,16,19,10,12,110,64
16:54:33.419017,419017,28,45,16,19,10,12,110,64
16:54:33.420017,420017,28,45,16,19,10,12,110,64
16:54:33.421018,421018,28,45,16,19,10,12,110,64
16:54:33.422017,422017,28,45,16,19,10,12,110,64
16:54:33.423017,423017,28,45,16,19,10,12,110,64
16:54:33.424017,424017,28,45,16,19,10,12,110,64
16:54:33.425018,425018,28,45,16,19,10,12,110,64
16:54:33.426017,426017,28,45,16,19,10,12,110,64
16:54:33.427018,427018,28,45,16,19,10,12,110,64
16:54:33.428018,428018,28,45,16,19,10,12,110,64
16:54:33.429017,429017,28,45,16,19,10,12,110,64
16:54:33.430017,430017,28,45,16,19,10,12,110,64
16:54:33.431017,431017,28,45,16,19,10,12,110,64
16:54:33.431017,431017,27,66,13,23,12,16,121,63
16:54:33.432018,432018,27,66,13,23,12,16,121,63
16:54:33.433018,433018,27,66,13,23,12,16,121,63
16:54:33.434017,434017,27,66,13,23,12,16,121,63
16:54:33.435016,435016,27,66,13,23,12,16,121,63
16:54:33.436016,436016,27,66,13,23,12,16,121,63
16:54:33.437017,437017,27,66,13,23,12,16,121,63
16:54:33.438016,438016,27,66,13,23,12,16,121,63
16:54:33.439016,439016,27,66,13,23,12,16,121,63
16:54:33.440017,440017,27,66,13,23,12,16,121,63
16:54:33.441016,441016,27,66,13,23,12,16,121,63
16:54:33.442017,442017,27,66,13,23,12,16,121,63
16:54:33.443017,443017,27,66,13,23,12,16,121,63
16:54:33.444017,444017,27,66,13,23,12,16,121,63
16:54:33.445016,445016,27,66,13,23,12,16,121,63
16:54:33.446017,446017,27,66,13,23,12,16,121,63
16:54:33.447016,447016,27,66,13,23,12,16,121,63
16:54:33.448048,448048,27,66,13,23,12,16,121,63
16:54:33.449019,449019,27,66,13,23,12,16,121,63
16:54:33.450017,450017,27,66,13,23,12,16,121,63
16:54:33.451045,451045,27,66,13,23,12,16,121,63
16:54:33.452043,452043,27,66,13,23,12,16,121,63
16:54:33.453018,453018,27,66,13,23,12,16,121,63
16:54:33.454019,454019,21,72,14,27,15,20,137,62
16:54:33.455067,455067,21,72,14,27,15,20,137,62
16:54:33.456076,456076,21,72,14,27,15,20,137,62
16:54:33.457052,457052,21,72,14,27,15,20,137,62
16:54:33.458053,458053,21,72,14,27,15,20,137,62
16:54:33.459018,459018,21,72,14,27,15,20,137,62
16:54:33.460045,460045,44,68,15,22,10,22,142,75
16:54:33.461018,461018,44,68,15,22,10,22,142,75
16:54:33.462018,462018,44,68,15,22,10,22,142,75
16:54:33.463018,463018,44,68,15,22,10,22,142,75
16:54:33.464018,464018,44,68,15,22,10,22,142,75
16:54:33.465018,465018,44,68,15,22,10,22,142,75
16:54:33.466565,466565,44,68,15,22,10,22,142,75
16:54:33.466565,466565,38,68,12,22,12,24,106,64
16:54:33.467549,467549,38,68,12,22,12,24,106,64
16:54:33.468545,468545,38,68,12,22,12,24,106,64
16:54:33.469599,469599,38,68,12,22,12,24,106,64
16:54:33.470539,470539,38,68,12,22,12,24,106,64
16:54:33.471538,471538,38,68,12,22,12,24,106,64
16:54:33.472538,472538,38,68,12,22,12,24,106,64
16:54:33.473538,473538,38,68,12,22,12,24,106,64
16:54:33.474538,474538,38,68,12,22,12,24,106,64
16:54:33.474538,474538,42,49,14,19,14,24,131,86
16:54:33.475542,475542,42,49,14,19,14,24,131,86
16:54:33.476540,476540,42,49,14,19,14,24,131,86
16:54:33.477542,477542,42,49,14,19,14,24,131,86
16:54:33.478541,478541,42,49,14,19,14,24,131,86
16:54:33.479541,479541,42,49,14,19,14,24,131,86
16:54:33.480540,480540,42,49,14,19,14,24,131,86
16:54:33.481540,481540,42,49,14,19,14,24,131,86
16:54:33.482542,482542,42,49,14,19,14,24,131,86
16:54:33.483542,483542,42,49,14,19,14,24,131,86
16:54:33.484541,484541,42,49,14,19,14,24,131,86
16:54:33.485542,485542,42,49,14,19,14,24,131,86
16:54:33.486541,486541,42,49,14,19,14,24,131,86
16:54:33.487541,487541,42,49,14,19,14,24,131,86
16:54:33.488541,488541,42,49,14,19,14,24,131,86
16:54:33.489541,489541,42,49,14,19,14,24,131,86
16:54:33.489541,489541,41,52,14,22,14,24,142,88
16:54:33.490541,490541,41,52,14,22,14,24,142,88
16:54:33.491542,491542,41,52,14,22,14,24,142,88
16:54:33.492541,492541,41,52,14,22,14,24,142,88
16:54:33.493540,493540,41,52,14,22,14,24,142,88
16:54:33.494541,494541,41,52,14,22,14,24,142,88
16:54:33.495541,495541,41,52,14,22,14,24,142,88
16:54:33.495541,495541,38,40,14,19,12,19,113,105
16:54:33.496541,496541,38,40,14,19,12,19,113,105
16:54:33.497540,497540,38,40,14,19,12,19,113,105
16:54:33.498540,498540,38,40,14,19,12,19,113,105
16:54:33.499541,499541,38,40,14,19,12,19,113,105
16:54:33.500540,500540,38,40,14,19,12,19,113,105
16:54:33.501540,501540,38,40,14,19,12,19,113,105
16:54:33.502543,502543,38,40,14,19,12,19,113,105
16:54:33.503542,503542,38,40,14,19,12,19,113,105
16:54:33.504543,504543,38,40,14,19,12,19,113,105
16:54:33.505542,505542,38,40,14,19,12,19,113,105
16:54:33.506543,506543,38,40,14,19,12,19,113,105
16:54:33.507543,507543,38,40,14,19,12,19,113,105
16:54:33.508542,508542,38,40,14,19,12,19,113,105
16:54:33.509542,509542,38,40,14,19,12,19,113,105
16:54:33.510542,510542,38,40,14,19,12,19,113,105
16:54:33.511542,511542,38,40,14,19,12,19,113,105
16:54:33.512543,512543,38,40,14,19,12,19,113,105
16:54:33.513542,513542,38,40,14,19,12,19,113,105
16:54:33.514541,514541,38,40,14,19,12,19,113,105
16:54:33.515540,515540,38,40,14,19,12,19,113,105
16:54:33.516574,516574,38,40,14,19,12,19,113,105
16:54:33.517577,517577,38,40,14,19,12,19,113,105
16:54:33.518543,518543,38,40,14,19,12,19,113,105
16:54:33.519566,519566,38,40,14,19,12,19,113,105
16:54:33.520564,520564,30,47,12,15,14,21,105,104
16:54:33.521565,521565,30,47,12,15,14,21,105,104
16:54:33.522541,522541,30,47,12,15,14,21,105,104
16:54:33.523565,523565,30,47,12,15,14,21,105,104
16:54:33.524566,524566,30,47,12,15,14,21,105,104
16:54:33.525565,525565,30,47,12,15,14,21,105,104
16:54:33.526564,526564,30,47,12,15,14,21,105,104
16:54:33.526564,526564,32,83,12,21,16,24,81,58
16:54:33.527540,527540,32,83,12,21,16,24,81,58
16:54:33.528539,528539,32,83,12,21,16,24,81,58
16:54:33.529539,529539,32,83,12,21,16,24,81,58
16:54:33.530539,530539,32,83,12,21,16,24,81,58
16:54:33.531539,531539,32,83,12,21,16,24,81,58
16:54:33.532539,532539,32,83,12,21,16,24,81,58
16:54:33.533540,533540,32,83,12,21,16,24,81,58
16:54:33.534539,534539,32,83,12,21,16,24,81,58
16:54:33.535576,535576,32,83,12,21,16,24,81,58
16:54:33.536574,536574,32,83,12,21,16,24,81,58
16:54:33.537574,537574,32,83,12,21,16,24,81,58
16:54:33.538574,538574,32,83,12,21,16,24,81,58
16:54:33.539574,539574,32,83,12,21,16,24,81,58
16:54:33.540574,540574,32,83,12,21,16,24,81,58
16:54:33.540574,540574,32,91,12,20,15,26,70,55
16:54:33.541541,541541,32,91,12,20,15,26,70,55
16:54:33.542541,542541,32,91,12,20,15,26,70,55
16:54:33.543540,543540,32,91,12,20,15,26,70,55
16:54:33.544539,544539,32,91,12,20,15,26,70,55
16:54:33.545540,545540,32,91,12,20,15,26,70,55
16:54:33.546540,546540,32,91,12,20,15,26,70,55
16:54:33.546540,546540,27,88,19,20,14,24,144,55
16:54:33.547540,547540,27,88,19,20,14,24,144,55
16:54:33.548540,548540,27,88,19,20,14,24,144,55
16:54:33.549541,549541,27,88,19,20,14,24,144,55
16:54:33.550539,550539,27,88,19,20,14,24,144,55
16:54:33.551539,551539,27,88,19,20,14,24,144,55
16:54:33.552539,552539,27,88,19,20,14,24,144,55
16:54:33.553539,553539,27,88,19,20,14,24,144,55
16:54:33.554539,554539,27,88,19,20,14,24,144,55
16:54:33.555541,555541,27,88,19,20,14,24,144,55
16:54:33.556539,556539,27,88,19,20,14,24,144,55
16:54:33.557540,557540,27,88,19,20,14,24,144,55
16:54:33.558539,558539,27,88,19,20,14,24,144,55
16:54:33.559540,559540,27,88,19,20,14,24,144,55
16:54:33.560539,560539,27,88,19,20,14,24,144,55
16:54:33.561539,561539,27,88,19,20,14,24,144,55
16:54:33.562540,562540,27,88,19,20,14,24,144,55
16:54:33.563539,563539,27,88,19,20,14,24,144,55
16:54:33.564539,564539,27,88,19,20,14,24,144,55
16:54:33.565541,565541,27,88,19,20,14,24,144,55
16:54:33.566540,566540,27,88,19,20,14,24,144,55
16:54:33.567542,567542,27,88,19,20,14,24,144,55
16:54:33.568541,568541,27,88,19,20,14,24,144,55
16:54:33.569540,569540,27,88,19,20,14,24,144,55
16:54:33.570576,570576,27,88,19,20,14,24,144,55
16:54:33.571541,571541,27,88,19,20,14,24,144,55
16:54:33.572541,572541,27,88,19,20,14,24,144,55
16:54:33.573567,573567,27,88,19,20,14,24,144,55
16:54:33.573567,573567,25,73,14,13,12,24,145,63
16:54:33.573567,573567,20,58,15,12,13,24,165,68
16:54:33.574540,574540,20,58,15,12,13,24,165,68
16:54:33.575539,575539,20,58,15,12,13,24,165,68
16:54:33.576539,576539,20,58,15,12,13,24,165,68
16:54:33.577539,577539,20,58,15,12,13,24,165,68
16:54:33.578539,578539,20,58,15,12,13,24,165,68
16:54:33.579539,579539,20,58,15,12,13,24,165,68
16:54:33.580539,580539,20,58,15,12,13,24,165,68
16:54:33.581540,581540,20,58,15,12,13,24,165,68
16:54:33.582539,582539,20,58,15,12,13,24,165,68
16:54:33.583539,583539,20,58,15,12,13,24,165,68
16:54:33.584539,584539,20,58,15,12,13,24,165,68
16:54:33.585541,585541,25,36,17,12,11,21,192,69
16:54:33.586543,586543,25,36,17,12,11,21,192,69
16:54:33.587543,587543,25,36,17,12,11,21,192,69
16:54:33.588542,588542,25,36,17,12,11,21,192,69
16:54:33.589542,589542,25,36,17,12,11,21,192,69
16:54:33.590543,590543,25,36,17,12,11,21,192,69
16:54:33.591543,591543,25,36,17,12,11,21,192,69
16:54:33.592542,592542,25,36,17,12,11,21,192,69
16:54:33.593542,593542,25,36,17,12,11,21,192,69
16:54:33.594542,594542,25,36,17,12,11,21,192,69
16:54:33.595542,595542,25,36,17,12,11,21,192,69
16:54:33.595542,595542,26,19,16,11,14,21,228,51
16:54:33.596540,596540,26,19,16,11,14,21,228,51
16:54:33.597539,597539,26,19,16,11,14,21,228,51
16:54:33.598540,598540,26,19,16,11,14,21,228,51
16:54:33.599540,599540,26,19,16,11,14,21,228,51
16:54:33.600539,600539,26,19,16,11,14,21,228,51
16:54:33.601540,601540,26,19,16,11,14,21,228,51
16:54:33.602540,602540,26,19,16,11,14,21,228,51
16:54:33.603540,603540,26,19,16,11,14,21,228,51
16:54:33.604540,604540,26,19,16,11,14,21,228,51
16:54:33.605539,605539,26,19,16,11,14,21,228,51
16:54:33.606539,606539,26,19,16,11,14,21,228,51
16:54:33.607539,607539,26,19,16,11,14,21,228,51
16:54:33.608540,608540,26,19,16,11,14,21,228,51
16:54:33.609539,609539,26,19,16,11,14,21,228,51
16:54:33.610539,610539,26,19,16,11,14,21,228,51
16:54:33.611539,611539,26,19,16,11,14,21,228,51
16:54:33.611539,611539,32,25,20,14,19,19,235,47
16:54:33.612540,612540,32,25,20,14,19,19,235,47
16:54:33.613539,613539,32,25,20,14,19,19,235,47
16:54:33.614543,614543,32,25,20,14,19,19,235,47
16:54:33.615542,615542,32,25,20,14,19,19,235,47
16:54:33.616572,616572,32,25,20,14,19,19,235,47
16:54:33.617554,617554,32,25,20,14,19,19,235,47
16:54:33.618554,618554,32,25,20,14,19,19,235,47
16:54:33.619555,619555,32,25,20,14,19,19,235,47
16:54:33.620554,620554,32,25,20,14,19,19,235,47
16:54:33.621553,621553,32,25,20,14,19,19,235,47
16:54:33.622553,622553,32,25,20,14,19,19,235,47
16:54:33.623553,623553,32,25,20,14,19,19,235,47
16:54:33.624554,624554,32,25,20,14,19,19,235,47
16:54:33.625553,625553,32,25,20,14,19,19,235,47
16:54:33.626553,626553,32,25,20,14,19,19,235,47
16:54:33.627553,627553,32,25,20,14,19,19,235,47
16:54:33.628553,628553,32,25,20,14,19,19,235,47
16:54:33.629553,629553,32,25,20,14,19,19,235,47
16:54:33.630553,630553,32,25,20,14,19,19,235,47
16:54:33.631553,631553,32,25,20,14,19,19,235,47
16:54:33.632553,632553,32,25,20,14,19,19,235,47
16:54:33.633554,633554,32,25,20,14,19,19,235,47
16:54:33.633554,633554,27,60,15,39,16,28,271,90
16:54:33.634553,634553,27,60,15,39,16,28,271,90
16:54:33.635552,635552,27,60,15,39,16,28,271,90
16:54:33.636552,636552,27,60,15,39,16,28,271,90
16:54:33.637551,637551,27,60,15,39,16,28,271,90
16:54:33.638552,638552,27,60,15,39,16,28,271,90
16:54:33.639551,639551,27,60,15,39,16,28,271,90
16:54:33.640552,640552,27,60,15,39,16,28,271,90
16:54:33.641551,641551,27,60,15,39,16,28,271,90
16:54:33.642551,642551,27,60,15,39,16,28,271,90
16:54:33.643551,643551,27,60,15,39,16,28,271,90
16:54:33.644552,644552,27,60,15,39,16,28,271,90
16:54:33.645551,645551,27,60,15,39,16,28,271,90
16:54:33.646552,646552,27,60,15,39,16,28,271,90
16:54:33.647551,647551,27,60,15,39,16,28,271,90
16:54:33.648551,648551,27,60,15,39,16,28,271,90
16:54:33.649551,649551,27,60,15,39,16,28,271,90
16:54:33.650551,650551,27,60,15,39,16,28,271,90
16:54:33.651551,651551,27,60,15,39,16,28,271,90
16:54:33.652552,652552,27,60,15,39,16,28,271,90
16:54:33.653551,653551,27,60,15,39,16,28,271,90
16:54:33.654551,654551,27,60,15,39,16,28,271,90
16:54:33.655551,655551,27,60,15,39,16,28,271,90
16:54:33.656551,656551,27,60,15,39,16,28,271,90
16:54:33.656551,656551,19,76,12,36,12,29,220,93
16:54:33.657553,657553,19,76,12,36,12,29,220,93
16:54:33.658552,658552,19,76,12,36,12,29,220,93
16:54:33.659552,659552,19,76,12,36,12,29,220,93
16:54:33.660551,660551,19,76,12,36,12,29,220,93
16:54:33.661552,661552,19,76,12,36,12,29,220,93
16:54:33.662552,662552,19,76,12,36,12,29,220,93
16:54:33.663552,663552,19,76,12,36,12,29,220,93
16:54:33.664551,664551,19,76,12,36,12,29,220,93
16:54:33.665551,665551,19,76,12,36,12,29,220,93
16:54:33.666552,666552,19,76,12,36,12,29,220,93
16:54:33.667552,667552,19,76,12,36,12,29,220,93
16:54:33.668552,668552,19,76,12,36,12,29,220,93
16:54:33.669551,669551,19,76,12,36,12,29,220,93
16:54:33.670551,670551,19,76,12,36,12,29,220,93
16:54:33.671551,671551,19,76,12,36,12,29,220,93
16:54:33.672554,672554,19,76,12,36,12,29,220,93
16:54:33.673553,673553,19,76,12,36,12,29,220,93
16:54:33.674552,674552,19,76,12,36,12,29,220,93
16:54:33.675553,675553,19,76,12,36,12,29,220,93
16:54:33.676553,676553,19,76,12,36,12,29,220,93
16:54:33.677551,677551,19,76,12,36,12,29,220,93
16:54:33.677551,677551,32,66,10,35,14,23,194,84
16:54:33.678552,678552,32,66,10,35,14,23,194,84
16:54:33.679551,679551,32,66,10,35,14,23,194,84
16:54:33.680551,680551,32,66,10,35,14,23,194,84
16:54:33.681551,681551,32,66,10,35,14,23,194,84
16:54:33.682553,682553,32,66,10,35,14,23,194,84
16:54:33.683552,683552,32,66,10,35,14,23,194,84
16:54:33.684552,684552,32,66,10,35,14,23,194,84
16:54:33.685552,685552,32,66,10,35,14,23,194,84
16:54:33.686551,686551,32,66,10,35,14,23,194,84
16:54:33.687552,687552,32,66,10,35,14,23,194,84
16:54:33.688552,688552,32,66,10,35,14,23,194,84
16:54:33.689552,689552,32,66,10,35,14,23,194,84
16:54:33.690552,690552,32,66,10,35,14,23,194,84
16:54:33.691552,691552,32,66,10,35,14,23,194,84
16:54:33.692551,692551,32,66,10,35,14,23,194,84
16:54:33.692551,692551,30,52,17,27,9,30,206,141
16:54:33.693553,693553,30,52,17,27,9,30,206,141
16:54:33.694551,694551,30,52,17,27,9,30,206,141
16:54:33.695551,695551,30,52,17,27,9,30,206,141
16:54:33.696552,696552,30,52,17,27,9,30,206,141
16:54:33.697553,697553,30,52,17,27,9,30,206,141
16:54:33.698551,698551,30,52,17,27,9,30,206,141
16:54:33.699552,699552,30,52,17,27,9,30,206,141
16:54:33.700551,700551,30,52,17,27,9,30,206,141
16:54:33.701552,701552,30,52,17,27,9,30,206,141
16:54:33.702551,702551,30,52,17,27,9,30,206,141
16:54:33.703551,703551,30,52,17,27,9,30,206,141
16:54:33.704552,704552,30,52,17,27,9,30,206,141
16:54:33.705551,705551,30,52,17,27,9,30,206,141
16:54:33.705551,705551,28,54,16,26,11,24,197,149
16:54:33.706552,706552,28,54,16,26,11,24,197,149
16:54:33.707551,707551,28,54,16,26,11,24,197,149
16:54:33.708552,708552,28,54,16,26,11,24,197,149
16:54:33.709552,709552,28,54,16,26,11,24,197,149
16:54:33.710552,710552,28,54,16,26,11,24,197,149
16:54:33.711551,711551,28,54,16,26,11,24,197,149
16:54:33.712551,712551,28,54,16,26,11,24,197,149
16:54:33.713553,713553,28,54,16,26,11,24,197,149
16:54:33.714552,714552,15,40,16,38,7,23,191,142
16:54:33.715554,715554,15,40,16,38,7,23,191,142
16:54:33.716552,716552,15,40,16,38,7,23,191,142
16:54:33.717552,717552,15,40,16,38,7,23,191,142
16:54:33.718553,718553,15,40,16,38,7,23,191,142
16:54:33.719552,719552,15,40,16,38,7,23,191,142
16:54:33.720551,720551,15,40,16,38,7,23,191,142
16:54:33.721552,721552,15,40,16,38,7,23,191,142
16:54:33.722552,722552,15,40,16,38,7,23,191,142
16:54:33.723554,723554,15,40,16,38,7,23,191,142
16:54:33.724553,724553,15,40,16,38,7,23,191,142
16:54:33.725555,725555,15,40,16,38,7,23,191,142
16:54:33.726556,726556,15,40,16,38,7,23,191,142
16:54:33.726591,726591,15,40,16,38,7,23,191,142
16:54:33.727563,727563,15,40,16,38,7,23,191,142
16:54:33.728563,728563,15,40,16,38,7,23,191,142
16:54:33.729565,729565,15,40,16,38,7,23,191,142
16:54:33.730564,730564,15,40,16,38,7,23,191,142
16:54:33.730564,730564,17,42,14,48,15,23,202,109
16:54:33.731564,731564,17,42,14,48,15,23,202,109
16:54:33.732564,732564,17,42,14,48,15,23,202,109
16:54:33.733564,733564,17,42,14,48,15,23,202,109
16:54:33.734563,734563,17,42,14,48,15,23,202,109
16:54:33.735564,735564,17,42,14,48,15,23,202,109
16:54:33.736564,736564,17,42,14,48,15,23,202,109
16:54:33.737563,737563,17,42,14,48,15,23,202,109
16:54:33.738563,738563,17,42,14,48,15,23,202,109
16:54:33.738587,738587,17,42,14,48,15,23,202,109
16:54:33.739564,739564,17,42,14,48,15,23,202,109
16:54:33.740563,740563,17,42,14,48,15,23,202,109
16:54:33.741564,741564,17,42,14,48,15,23,202,109
16:54:33.742563,742563,17,42,14,48,15,23,202,109
16:54:33.743565,743565,17,42,14,48,15,23,202,109
16:54:33.744564,744564,17,42,14,48,15,23,202,109
16:54:33.745565,745565,17,42,14,48,15,23,202,109
16:54:33.746563,746563,17,42,14,48,15,23,202,109
16:54:33.747564,747564,17,42,14,48,15,23,202,109
16:54:33.748564,748564,17,42,14,48,15,23,202,109
16:54:33.749564,749564,17,42,14,48,15,23,202,109
16:54:33.750563,750563,17,42,14,48,15,23,202,109
16:54:33.751563,751563,17,42,14,48,15,23,202,109
16:54:33.752563,752563,17,42,14,48,15,23,202,109
16:54:33.752563,752563,25,45,13,49,15,16,191,58
16:54:33.753564,753564,25,45,13,49,15,16,191,58
16:54:33.754563,754563,25,45,13,49,15,16,191,58
16:54:33.755563,755563,25,45,13,49,15,16,191,58
16:54:33.756647,756647,25,45,13,49,15,16,191,58
16:54:33.756676,756676,25,45,13,49,15,16,191,58
16:54:33.757654,757654,25,45,13,49,15,16,191,58
16:54:33.758654,758654,25,45,13,49,15,16,191,58
16:54:33.758654,758654,33,48,14,56,14,22,208,83
16:54:33.759654,759654,33,48,14,56,14,22,208,83
16:54:33.760654,760654,33,48,14,56,14,22,208,83
16:54:33.761654,761654,33,48,14,56,14,22,208,83
16:54:33.761654,761654,35,72,17,44,14,22,231,101
16:54:33.762654,762654,35,72,17,44,14,22,231,101
16:54:33.763653,763653,35,72,17,44,14,22,231,101
16:54:33.764653,764653,35,72,17,44,14,22,231,101
16:54:33.765653,765653,35,72,17,44,14,22,231,101
16:54:33.766653,766653,35,72,17,44,14,22,231,101
16:54:33.767653,767653,35,72,17,44,14,22,231,101
16:54:33.768653,768653,35,72,17,44,14,22,231,101
16:54:33.769653,769653,35,72,17,44,14,22,231,101
16:54:33.770653,770653,35,72,17,44,14,22,231,101
16:54:33.771653,771653,35,72,17,44,14,22,231,101
16:54:33.772653,772653,35,72,17,44,14,22,231,101
16:54:33.773653,773653,35,72,17,44,14,22,231,101
16:54:33.774653,774653,35,72,17,44,14,22,231,101
16:54:33.774653,774653,33,68,17,43,10,18,295,113
16:54:33.775656,775656,33,68,17,43,10,18,295,113
16:54:33.776655,776655,33,68,17,43,10,18,295,113
16:54:33.777654,777654,33,68,17,43,10,18,295,113
16:54:33.778654,778654,33,68,17,43,10,18,295,113
16:54:33.779654,779654,33,68,17,43,10,18,295,113
16:54:33.780654,780654,33,68,17,43,10,18,295,113
16:54:33.781656,781656,33,68,17,43,10,18,295,113
16:54:33.782655,782655,33,68,17,43,10,18,295,113
16:54:33.783656,783656,33,68,17,43,10,18,295,113
16:54:33.784655,784655,33,68,17,43,10,18,295,113
16:54:33.785655,785655,33,68,17,43,10,18,295,113
16:54:33.786654,786654,33,68,17,43,10,18,295,113
16:54:33.787655,787655,33,68,17,43,10,18,295,113
16:54:33.788655,788655,33,68,17,43,10,18,295,113
16:54:33.789654,789654,33,68,17,43,10,18,295,113
16:54:33.790655,790655,33,68,17,43,10,18,295,113
16:54:33.791655,791655,33,68,17,43,10,18,295,113
16:54:33.792655,792655,33,68,17,43,10,18,295,113
16:54:33.793654,793654,33,68,17,43,10,18,295,113
16:54:33.794654,794654,33,68,17,43,10,18,295,113
16:54:33.795654,795654,33,68,17,43,10,18,295,113
16:54:33.796655,796655,33,68,17,43,10,18,295,113
16:54:33.797655,797655,33,95,20,51,9,28,289,235
16:54:33.798654,798654,33,95,20,51,9,28,289,235
16:54:33.799657,799657,33,95,20,51,9,28,289,235
16:54:33.800655,800655,33,95,20,51,9,28,289,235
16:54:33.801655,801655,33,95,20,51,9,28,289,235
16:54:33.802655,802655,33,95,20,51,9,28,289,235
16:54:33.803654,803654,33,95,20,51,9,28,289,235
16:54:33.804654,804654,33,95,20,51,9,28,289,235
16:54:33.805654,805654,33,95,20,51,9,28,289,235
16:54:33.806655,806655,33,95,20,51,9,28,289,235
16:54:33.807654,807654,33,95,20,51,9,28,289,235
16:54:33.808654,808654,33,95,20,51,9,28,289,235
16:54:33.809654,809654,33,95,20,51,9,28,289,235
16:54:33.810654,810654,33,95,20,51,9,28,289,235
16:54:33.811654,811654,33,95,20,51,9,28,289,235
16:54:33.812654,812654,33,95,20,51,9,28,289,235
16:54:33.812654,812654,27,93,18,51,9,30,263,271
16:54:33.812654,812654,31,81,15,42,9,32,219,295
16:54:33.813655,813655,31,81,15,42,9,32,219,295
16:54:33.814654,814654,31,81,15,42,9,32,219,295
16:54:33.815654,815654,31,81,15,42,9,32,219,295
16:54:33.816656,816656,31,81,15,42,9,32,219,295
16:54:33.817655,817655,31,81,15,42,9,32,219,295
16:54:33.818654,818654,31,81,15,42,9,32,219,295
16:54:33.819654,819654,31,81,15,42,9,32,219,295
16:54:33.820654,820654,31,81,15,42,9,32,219,295
16:54:33.821655,821655,31,81,15,42,9,32,219,295
16:54:33.822654,822654,31,81,15,42,9,32,219,295
16:54:33.823655,823655,31,81,15,42,9,32,219,295
16:54:33.824654,824654,31,81,15,42,9,32,219,295
16:54:33.825654,825654,31,81,15,42,9,32,219,295
16:54:33.826654,826654,31,81,15,42,9,32,219,295
16:54:33.827654,827654,31,81,15,42,9,32,219,295
16:54:33.828654,828654,31,81,15,42,9,32,219,295
16:54:33.829654,829654,31,81,15,42,9,32,219,295
16:54:33.830655,830655,31,81,15,42,9,32,219,295
16:54:33.831655,831655,31,81,15,42,9,32,219,295
16:54:33.832655,832655,31,81,15,42,9,32,219,295
16:54:33.833655,833655,31,81,15,42,9,32,219,295
16:54:33.834654,834654,31,81,15,42,9,32,219,295
16:54:33.835655,835655,31,81,15,42,9,32,219,295
16:54:33.836654,836654,31,81,15,42,9,32,219,295
16:54:33.836654,836654,30,69,14,41,14,40,223,300
16:54:33.837654,837654,30,69,14,41,14,40,223,300
16:54:33.838654,838654,30,69,14,41,14,40,223,300
16:54:33.839654,839654,30,69,14,41,14,40,223,300
16:54:33.840654,840654,30,69,14,41,14,40,223,300
16:54:33.841654,841654,30,69,14,41,14,40,223,300
16:54:33.842654,842654,30,69,14,41,14,40,223,300
16:54:33.843687,843687,30,69,14,41,14,40,223,300
16:54:33.844654,844654,30,69,14,41,14,40,223,300
16:54:33.845655,845655,30,69,14,41,14,40,223,300
16:54:33.846654,846654,30,69,14,41,14,40,223,300
16:54:33.847653,847653,30,69,14,41,14,40,223,300
16:54:33.848654,848654,30,69,14,41,14,40,223,300
16:54:33.849654,849654,30,69,14,41,14,40,223,300
16:54:33.850653,850653,30,69,14,41,14,40,223,300
16:54:33.850653,850653,35,56,15,51,19,50,196,197
16:54:33.851654,851654,35,56,15,51,19,50,196,197
16:54:33.852653,852653,35,56,15,51,19,50,196,197
16:54:33.853653,853653,35,56,15,51,19,50,196,197
16:54:33.854653,854653,35,56,15,51,19,50,196,197
16:54:33.855653,855653,35,56,15,51,19,50,196,197
16:54:33.856653,856653,35,56,15,51,19,50,196,197
16:54:33.857653,857653,35,56,15,51,19,50,196,197
16:54:33.858653,858653,35,56,15,51,19,50,196,197
16:54:33.859653,859653,35,56,15,51,19,50,196,197
16:54:33.860652,860652,35,56,15,51,19,50,196,197
16:54:33.861654,861654,35,56,15,51,19,50,196,197
16:54:33.862653,862653,35,56,15,51,19,50,196,197
16:54:33.863653,863653,35,56,15,51,19,50,196,197
16:54:33.864653,864653,35,56,15,51,19,50,196,197
16:54:33.865653,865653,35,56,15,51,19,50,196,197
16:54:33.866655,866655,35,56,15,51,19,50,196,197
16:54:33.867654,867654,35,56,15,51,19,50,196,197
16:54:33.868654,868654,35,56,15,51,19,50,196,197
16:54:33.869654,869654,35,56,15,51,19,50,196,197
16:54:33.870654,870654,35,56,15,51,19,50,196,197
16:54:33.871654,871654,35,56,15,51,19,50,196,197
16:54:33.872653,872653,35,56,15,51,19,50,196,197
16:54:33.873654,873654,29,41,17,46,21,53,198,191
16:54:33.874655,874655,29,41,17,46,21,53,198,191
16:54:33.875688,875688,29,41,17,46,21,53,198,191
16:54:33.876688,876688,29,41,17,46,21,53,198,191
16:54:33.877654,877654,29,41,17,46,21,53,198,191
16:54:33.878689,878689,29,41,17,46,21,53,198,191
16:54:33.879688,879688,36,33,20,40,24,58,266,162
16:54:33.879688,879688,32,52,21,42,25,57,216,154
16:54:33.880654,880654,32,52,21,42,25,57,216,154
16:54:33.881653,881653,32,52,21,42,25,57,216,154
16:54:33.882654,882654,32,52,21,42,25,57,216,154
16:54:33.883655,883655,32,52,21,42,25,57,216,154
16:54:33.884655,884655,32,52,21,42,25,57,216,154
16:54:33.885655,885655,32,52,21,42,25,57,216,154
16:54:33.886654,886654,32,52,21,42,25,57,216,154
16:54:33.887653,887653,32,52,21,42,25,57,216,154
16:54:33.888653,888653,32,52,21,42,25,57,216,154
16:54:33.889653,889653,32,52,21,42,25,57,216,154
16:54:33.890653,890653,32,52,21,42,25,57,216,154
16:54:33.891653,891653,32,52,21,42,25,57,216,154
16:54:33.892653,892653,32,52,21,42,25,57,216,154
16:54:33.893653,893653,32,52,21,42,25,57,216,154
16:54:33.894653,894653,32,52,21,42,25,57,216,154
16:54:33.895654,895654,32,52,21,42,25,57,216,154
16:54:33.895654,895654,30,80,15,27,17,52,198,135
16:54:33.896654,896654,30,80,15,27,17,52,198,135
16:54:33.897653,897653,30,80,15,27,17,52,198,135
16:54:33.898653,898653,30,80,15,27,17,52,198,135
16:54:33.899652,899652,30,80,15,27,17,52,198,135
16:54:33.900652,900652,30,80,15,27,17,52,198,135
16:54:33.901653,901653,30,80,15,27,17,52,198,135
16:54:33.902653,902653,30,80,15,27,17,52,198,135
16:54:33.903652,903652,30,80,15,27,17,52,198,135
