EMG 1,EMG 2,EMG 3,EMG 4,EMG 5,EMG 6,EMG 7,EMG 8,Timestamp,Milliseconds
3,-6,-52,11,0,0,0,3,2021-08-04 12:25:36,852439
2,-3,-78,-25,-1,-1,-1,3,2021-08-04 12:25:36,852439
1,45,9,20,1,0,-1,-6,2021-08-04 12:25:36,872437
-5,-25,-29,-20,-4,-2,-2,2,2021-08-04 12:25:36,872437
-2,9,32,-5,-2,-2,-2,3,2021-08-04 12:25:36,872437
-1,-10,-31,2,2,2,-2,-18,2021-08-04 12:25:36,872437
1,5,33,12,1,0,1,11,2021-08-04 12:25:36,886434
-19,5,29,-23,-3,-1,0,7,2021-08-04 12:25:36,891435
0,-3,25,-20,-4,-3,-4,-22,2021-08-04 12:25:36,897438
4,13,-4,18,4,1,-1,35,2021-08-04 12:25:36,903434
0,-14,28,6,-1,-2,-1,0,2021-08-04 12:25:36,911434
12,16,-5,20,-2,-3,0,12,2021-08-04 12:25:36,911434
-7,-15,29,-21,-6,-4,-4,-7,2021-08-04 12:25:37,142437
3,2,-12,19,1,-1,0,-1,2021-08-04 12:25:37,142437
1,-11,-19,5,1,-1,0,-1,2021-08-04 12:25:37,142437
1,-10,27,-10,-3,-1,-1,-11,2021-08-04 12:25:37,142437
0,11,-33,14,4,2,2,14,2021-08-04 12:25:37,142437
-2,-10,-61,-18,-4,-3,-5,-27,2021-08-04 12:25:37,142437
0,2,-13,-1,-1,-2,-1,16,2021-08-04 12:25:37,142437
0,-6,53,1,0,-1,-2,-48,2021-08-04 12:25:37,142437
-3,0,-1,4,-2,-1,2,9,2021-08-04 12:25:37,157437
1,4,-40,3,3,2,2,4,2021-08-04 12:25:37,162438
-6,8,50,-8,0,-1,0,-6,2021-08-04 12:25:37,165438
-12,29,-24,-8,-2,0,-2,10,2021-08-04 12:25:37,165438
8,11,6,7,0,1,3,-8,2021-08-04 12:25:37,178437
-2,-25,1,-5,-4,-4,-1,4,2021-08-04 12:25:37,178437
4,-5,3,0,0,-2,-2,-3,2021-08-04 12:25:37,188438
-2,-2,-19,5,5,2,2,11,2021-08-04 12:25:37,188438
2,0,-19,3,1,0,-2,-7,2021-08-04 12:25:37,197437
-3,-1,-37,2,1,-1,1,4,2021-08-04 12:25:37,197437
-1,-12,22,-6,-5,-2,-2,26,2021-08-04 12:25:37,197437
4,-9,29,8,-4,-3,-2,1,2021-08-04 12:25:37,197437
6,10,-27,-10,2,1,-1,-9,2021-08-04 12:25:37,212437
1,8,30,3,0,-1,0,4,2021-08-04 12:25:37,212437
-2,-10,24,6,0,2,0,-9,2021-08-04 12:25:37,224437
4,2,-69,2,-7,-6,-2,14,2021-08-04 12:25:37,224437
2,3,37,2,2,2,2,0,2021-08-04 12:25:37,263437
5,21,-18,7,4,4,1,-3,2021-08-04 12:25:37,263437
-17,-31,-1,-15,-3,-3,-2,8,2021-08-04 12:25:37,263437
0,2,30,6,0,-2,-1,-7,2021-08-04 12:25:37,263437
-22,26,-49,11,2,0,0,6,2021-08-04 12:25:37,263437
1,-5,54,-9,1,-1,-2,-2,2021-08-04 12:25:37,263437
0,12,-49,-4,2,2,2,-4,2021-08-04 12:25:37,263437
-2,3,-1,1,-3,-1,2,8,2021-08-04 12:25:37,263437
8,-14,85,-7,-3,-2,1,-4,2021-08-04 12:25:37,271437
2,-2,-63,0,-3,-3,-6,-6,2021-08-04 12:25:37,271437
6,15,34,20,-2,-1,-1,-1,2021-08-04 12:25:37,284437
-1,-12,3,-13,-1,0,-1,8,2021-08-04 12:25:37,296437
3,-11,-34,-14,-3,0,-1,3,2021-08-04 12:25:37,296437
-5,14,-1,2,3,1,2,3,2021-08-04 12:25:37,296437
4,-7,81,25,-4,-3,-1,-5,2021-08-04 12:25:37,308437
1,-4,-13,-21,-5,-3,-2,-7,2021-08-04 12:25:37,308437
1,-9,-15,10,-1,-3,0,-2,2021-08-04 12:25:37,308437
-4,-11,-3,-6,3,1,0,-3,2021-08-04 12:25:37,308437
-2,-1,-74,0,0,0,0,4,2021-08-04 12:25:37,321437
4,4,24,15,-2,-3,-1,-3,2021-08-04 12:25:37,321437
-11,-15,-20,-14,0,-1,0,-1,2021-08-04 12:25:37,337437
-5,-9,26,4,-4,-1,-1,4,2021-08-04 12:25:37,337437
5,3,-18,-4,4,3,3,-3,2021-08-04 12:25:37,344437
4,-8,18,9,-8,-4,-5,-20,2021-08-04 12:25:37,344437
5,-3,-13,-6,-1,0,-1,14,2021-08-04 12:25:37,358437
-4,3,0,6,1,-1,-1,0,2021-08-04 12:25:37,358437
1,-5,-36,-5,-1,-1,-3,9,2021-08-04 12:25:37,368437
3,20,-2,-15,2,3,2,1,2021-08-04 12:25:37,368437
-15,-3,26,17,-1,2,0,-5,2021-08-04 12:25:37,368437
-3,-17,43,6,-3,0,1,-5,2021-08-04 12:25:37,368437
5,1,-7,-12,-4,-4,-2,3,2021-08-04 12:25:37,381437
-7,-4,-55,-2,2,-1,0,3,2021-08-04 12:25:37,381437
8,20,9,0,-2,0,1,-2,2021-08-04 12:25:37,402439
-1,9,46,3,2,0,0,-2,2021-08-04 12:25:37,409438
5,-27,-2,-9,0,1,0,6,2021-08-04 12:25:37,409438
8,-5,24,5,1,0,-4,-51,2021-08-04 12:25:37,409438
5,0,3,7,3,0,-3,-2,2021-08-04 12:25:37,409438
-2,-12,-59,-13,-7,-2,0,0,2021-08-04 12:25:37,409438
-9,22,-1,7,-1,-1,-2,-17,2021-08-04 12:25:37,435435
-1,0,43,18,0,0,0,17,2021-08-04 12:25:37,435435
-2,1,-108,-40,0,1,1,-1,2021-08-04 12:25:37,435435
8,-2,33,7,0,-1,-1,-3,2021-08-04 12:25:37,435435
2,41,6,-3,2,0,-1,-10,2021-08-04 12:25:37,449434
3,-5,-31,-6,-1,-2,-2,18,2021-08-04 12:25:37,449434
4,22,-3,22,-1,-2,-1,-8,2021-08-04 12:25:37,452435
-1,-13,-64,-12,-3,0,0,11,2021-08-04 12:25:37,452435
-6,-11,8,-11,-2,-1,0,-9,2021-08-04 12:25:37,464434
2,-3,34,3,1,1,1,7,2021-08-04 12:25:37,470434
12,-12,-9,0,-2,-3,0,6,2021-08-04 12:25:37,470434
0,17,16,7,-1,0,0,-3,2021-08-04 12:25:37,470434
-6,-30,56,-6,-4,-4,-2,1,2021-08-04 12:25:37,488434
3,18,-16,1,0,-1,-1,15,2021-08-04 12:25:37,488434
2,-3,-18,-4,-2,-1,-2,0,2021-08-04 12:25:37,488434
4,19,9,2,0,0,1,3,2021-08-04 12:25:37,488434
3,16,54,12,3,2,0,2,2021-08-04 12:25:37,502434
7,-19,-72,-29,-5,-5,-2,3,2021-08-04 12:25:37,502434
-1,-7,6,-2,-1,-1,-3,-7,2021-08-04 12:25:37,516472
-5,-9,69,-1,-2,-2,-1,-4,2021-08-04 12:25:37,516472
11,1,6,8,3,2,2,13,2021-08-04 12:25:37,525473
-14,-9,64,-3,-2,1,-3,-6,2021-08-04 12:25:37,525473
-1,-4,4,2,-4,-3,-2,-1,2021-08-04 12:25:37,531436
-4,-11,-30,-11,2,1,1,-3,2021-08-04 12:25:37,531436
10,4,24,-7,0,-1,-1,2,2021-08-04 12:25:37,547436
-19,-19,-57,3,-1,1,3,-3,2021-08-04 12:25:37,547436
-3,-8,36,-1,-1,-2,-5,-25,2021-08-04 12:25:37,552472
-1,-2,-4,7,1,-1,0,12,2021-08-04 12:25:37,552472
-10,2,20,-4,-5,-2,-4,-20,2021-08-04 12:25:37,561439
3,15,-20,-5,-1,2,0,1,2021-08-04 12:25:37,561439
-8,4,65,-5,-1,0,-1,1,2021-08-04 12:25:37,575437
7,1,-47,-6,-5,-2,1,-2,2021-08-04 12:25:37,575437
-2,-10,-34,2,-1,0,0,1,2021-08-04 12:25:37,585470
-3,7,62,5,-3,-3,-2,-2,2021-08-04 12:25:37,585470
13,-6,-13,-12,-5,0,-1,5,2021-08-04 12:25:37,585470
1,25,27,12,1,2,-1,3,2021-08-04 12:25:37,585470
-9,9,-3,-1,-2,-3,-2,8,2021-08-04 12:25:37,608437
2,2,-40,-13,-3,-1,-1,-6,2021-08-04 12:25:37,608437
-3,-9,-4,9,4,1,0,1,2021-08-04 12:25:37,608437
-1,-16,5,-7,-6,-3,-2,-2,2021-08-04 12:25:37,608437
5,4,42,15,4,1,2,7,2021-08-04 12:25:37,629437
-5,5,30,-16,1,0,-1,-32,2021-08-04 12:25:37,636437
-23,0,41,-4,-7,-3,-2,-1,2021-08-04 12:25:37,636437
-4,-12,-33,0,0,-3,-1,-1,2021-08-04 12:25:37,636437
-1,-9,31,6,-1,-1,-1,-8,2021-08-04 12:25:37,645473
-2,-11,-28,-13,-2,-2,0,8,2021-08-04 12:25:37,645473
3,4,8,-1,0,3,3,2,2021-08-04 12:25:37,650474
-2,2,39,-1,-1,-1,-3,-7,2021-08-04 12:25:37,650474
-5,2,-38,2,-3,-2,0,1,2021-08-04 12:25:37,667455
0,-5,20,-2,-2,-2,-2,22,2021-08-04 12:25:37,667455
-1,11,34,4,1,-2,-2,-3,2021-08-04 12:25:37,674437
-3,-11,-26,0,0,-2,-1,1,2021-08-04 12:25:37,674437
11,-5,-2,-10,-2,-1,1,2,2021-08-04 12:25:37,688437
13,-13,-44,6,0,0,1,0,2021-08-04 12:25:37,688437
4,-10,-37,1,0,2,0,0,2021-08-04 12:25:37,697437
7,-17,60,4,0,1,-3,28,2021-08-04 12:25:37,697437
1,39,-44,-15,0,-1,-1,-11,2021-08-04 12:25:37,704472
0,-24,7,9,5,0,2,-7,2021-08-04 12:25:37,704472
0,2,10,2,-4,-5,0,25,2021-08-04 12:25:37,712437
2,1,-10,-4,1,-1,-2,-11,2021-08-04 12:25:37,712437
-7,-13,-49,-2,-5,-2,-4,-3,2021-08-04 12:25:37,727470
-2,5,5,12,1,3,1,5,2021-08-04 12:25:37,727470
-1,4,-22,3,3,0,0,-4,2021-08-04 12:25:37,741439
-6,-2,-44,-8,-3,0,1,-8,2021-08-04 12:25:37,741439
-2,26,62,2,-1,0,1,2,2021-08-04 12:25:37,749437
-2,5,-16,-13,-1,0,-1,1,2021-08-04 12:25:37,749437
-1,0,28,30,1,-1,0,-6,2021-08-04 12:25:37,757437
-2,-8,42,-18,-3,-4,-2,-10,2021-08-04 12:25:37,757437
5,-6,-55,-2,-2,0,-1,-2,2021-08-04 12:25:37,765437
-15,-4,29,2,2,5,1,7,2021-08-04 12:25:37,765437
-6,21,36,13,0,0,1,18,2021-08-04 12:25:37,771472
1,-14,-60,-4,-2,-1,0,-10,2021-08-04 12:25:37,771472
2,-13,-41,7,-2,-3,-2,22,2021-08-04 12:25:37,787437
-7,18,-15,-1,1,0,-2,6,2021-08-04 12:25:37,787437
4,-16,45,-11,0,-1,-1,-5,2021-08-04 12:25:37,793437
-14,-2,-29,-6,-1,-1,0,-4,2021-08-04 12:25:37,793437
-4,-2,-32,-6,0,-1,-1,0,2021-08-04 12:25:37,810437
8,3,29,20,-2,-2,0,3,2021-08-04 12:25:37,810437
-1,-4,-39,-13,1,0,0,-8,2021-08-04 12:25:37,810437
0,16,3,4,1,-1,-1,7,2021-08-04 12:25:37,810437
3,6,39,19,4,5,2,-5,2021-08-04 12:25:37,825437
-3,4,-22,-20,-3,-4,-4,-6,2021-08-04 12:25:37,831439
1,-10,-41,-19,-4,-2,-1,-10,2021-08-04 12:25:37,831439
0,-2,34,10,0,-2,-1,-4,2021-08-04 12:25:37,831439
-3,-3,32,-5,-1,-1,0,-5,2021-08-04 12:25:37,847438
3,19,-34,14,4,3,2,0,2021-08-04 12:25:37,847438
-6,6,2,3,-5,-4,-5,-42,2021-08-04 12:25:37,861439
5,-22,8,-7,-1,-1,0,22,2021-08-04 12:25:37,861439
-3,-13,3,2,0,-2,-3,6,2021-08-04 12:25:37,869438
14,-6,-61,5,-1,-2,-1,-5,2021-08-04 12:25:37,869438
10,6,54,-3,-3,0,-1,13,2021-08-04 12:25:37,877438
-12,9,2,-14,-1,-1,-2,-17,2021-08-04 12:25:37,877438
2,-13,46,-4,-2,-2,-1,-4,2021-08-04 12:25:37,885436
-4,-5,3,8,2,0,0,4,2021-08-04 12:25:37,885436
1,19,52,-2,-1,0,-2,8,2021-08-04 12:25:37,891439
6,13,26,4,-3,0,-1,-5,2021-08-04 12:25:37,891439
4,-14,-63,-12,0,1,0,2,2021-08-04 12:25:37,906474
-7,-19,34,-1,-3,-2,-2,-7,2021-08-04 12:25:37,906474
-6,-26,0,7,3,-2,-1,0,2021-08-04 12:25:37,920436
2,10,86,-5,-3,-1,0,-1,2021-08-04 12:25:37,920436
-11,-10,-41,-6,-2,-3,-1,-9,2021-08-04 12:25:37,934465
1,-4,75,5,-1,-1,-1,4,2021-08-04 12:25:37,934465
1,-5,-31,7,1,-2,0,17,2021-08-04 12:25:37,934465
-5,13,-91,-13,1,-1,-1,3,2021-08-04 12:25:37,934465
-1,-1,47,2,-2,-1,-2,-5,2021-08-04 12:25:37,944436
-5,-6,27,-6,-3,0,0,-7,2021-08-04 12:25:37,944436
8,13,-11,2,0,1,1,17,2021-08-04 12:25:37,959463
5,-30,-13,4,1,1,-1,-37,2021-08-04 12:25:37,959463
-3,10,2,4,-2,-1,-2,1,2021-08-04 12:25:37,972434
-5,32,37,-6,-4,-2,-1,14,2021-08-04 12:25:37,978434
2,-1,-29,-8,1,1,-1,-11,2021-08-04 12:25:37,978434
5,8,69,15,2,1,0,2,2021-08-04 12:25:37,978434
-2,-7,-102,-8,1,1,1,-4,2021-08-04 12:25:37,990436
-3,-3,77,2,-5,-3,-3,-7,2021-08-04 12:25:37,990436
-8,-20,-19,-2,-2,-1,-1,-6,2021-08-04 12:25:37,990436
2,11,-6,9,1,0,0,18,2021-08-04 12:25:37,990436
12,-16,8,-14,-3,-1,-1,17,2021-08-04 12:25:38,011434
4,6,61,1,2,2,0,0,2021-08-04 12:25:38,011434
-2,-21,-7,-4,-2,-2,-1,-4,2021-08-04 12:25:38,026434
-1,8,-48,-7,0,-2,1,10,2021-08-04 12:25:38,026434
-6,9,44,12,-1,-2,-1,-8,2021-08-04 12:25:38,026434
8,-9,-107,0,-2,-1,-2,-4,2021-08-04 12:25:38,026434
-4,11,51,-9,-1,2,-2,-6,2021-08-04 12:25:38,042435
1,-6,-13,1,-1,-1,-1,-2,2021-08-04 12:25:38,042435
-12,-6,22,-9,-5,-1,0,-4,2021-08-04 12:25:38,049434
5,4,-5,8,4,-1,0,-8,2021-08-04 12:25:38,056434
-5,-13,-22,0,-2,-3,-3,0,2021-08-04 12:25:38,056434
6,15,-18,2,-1,0,0,0,2021-08-04 12:25:38,056434
-8,-4,18,7,-3,-3,-2,-1,2021-08-04 12:25:38,070434
-2,-13,-3,8,0,0,1,7,2021-08-04 12:25:38,070434
4,4,-111,-24,-2,-1,-2,-20,2021-08-04 12:25:38,078434
10,15,64,2,0,1,0,2,2021-08-04 12:25:38,078434
1,3,21,11,0,1,2,11,2021-08-04 12:25:38,091434
-5,12,36,6,-3,-3,-2,-1,2021-08-04 12:25:38,091434
5,2,4,-17,0,1,3,7,2021-08-04 12:25:38,091434
-10,-2,-1,9,-3,-1,-1,-3,2021-08-04 12:25:38,091434
8,2,-16,-13,-3,-1,-2,-6,2021-08-04 12:25:38,105434
5,-8,-3,0,-2,-1,0,-1,2021-08-04 12:25:38,106434
-7,6,-27,10,4,0,0,0,2021-08-04 12:25:38,117434
-1,-10,-18,-4,1,1,2,2,2021-08-04 12:25:38,122435
-1,6,122,-9,-1,-3,-2,-3,2021-08-04 12:25:38,129435
6,-11,-31,6,3,2,1,-1,2021-08-04 12:25:38,136435
2,14,52,-4,-3,-2,-3,-2,2021-08-04 12:25:38,136435
-5,4,39,13,-1,-1,0,13,2021-08-04 12:25:38,136435
-1,-10,-36,-7,0,-2,-1,-3,2021-08-04 12:25:38,148434
-2,54,-1,-13,-1,2,0,-33,2021-08-04 12:25:38,148434
2,-3,7,16,0,1,0,0,2021-08-04 12:25:38,148434
-7,-5,-32,-3,-2,-2,-5,-2,2021-08-04 12:25:38,148434
4,-6,26,5,2,1,2,0,2021-08-04 12:25:38,177459
-5,-17,-64,-9,-6,-4,-4,4,2021-08-04 12:25:38,177459
-7,-1,49,18,-4,-2,0,1,2021-08-04 12:25:38,177459
8,-8,28,-21,-5,-5,-2,-13,2021-08-04 12:25:38,177459
-5,13,-110,-4,1,0,-1,-5,2021-08-04 12:25:38,184459
-10,-11,47,0,-1,-1,0,3,2021-08-04 12:25:38,184459
0,5,47,10,2,2,-2,1,2021-08-04 12:25:38,198459
-1,-20,-77,-9,-2,-4,-2,0,2021-08-04 12:25:38,204459
-6,-31,25,6,-5,-4,-2,-4,2021-08-04 12:25:38,204459
-4,2,40,5,2,0,-1,7,2021-08-04 12:25:38,204459
1,-2,-68,1,1,-1,2,-6,2021-08-04 12:25:38,213459
2,7,6,-5,-2,0,-1,16,2021-08-04 12:25:38,213459
-5,-16,35,-5,-4,-1,0,9,2021-08-04 12:25:38,230459
0,-7,-51,-3,1,-3,-2,-33,2021-08-04 12:25:38,230459
-6,-4,-37,-6,-1,0,-3,-13,2021-08-04 12:25:38,244460
1,2,32,0,-2,0,1,-3,2021-08-04 12:25:38,250460
5,1,-23,-3,1,-1,-1,7,2021-08-04 12:25:38,250460
-11,-11,-52,5,0,0,-1,13,2021-08-04 12:25:38,250460
7,6,81,-12,0,-2,-1,4,2021-08-04 12:25:38,259459
-9,-11,-24,13,-5,-2,-1,-10,2021-08-04 12:25:38,259459
2,-3,47,-7,-1,-1,0,-7,2021-08-04 12:25:38,275459
9,5,46,-6,-3,-4,-1,2,2021-08-04 12:25:38,275459
2,1,54,-5,-2,-1,-2,2,2021-08-04 12:25:38,275459
3,4,-1,-1,2,0,-1,-2,2021-08-04 12:25:38,275459
-2,6,2,9,-2,0,0,-6,2021-08-04 12:25:38,296459
-1,-2,-16,4,-2,0,-2,7,2021-08-04 12:25:38,296459
-2,-2,-29,-4,1,1,0,4,2021-08-04 12:25:38,296459
-5,-9,-49,-17,-1,2,-3,-4,2021-08-04 12:25:38,296459
4,17,26,3,-2,0,0,15,2021-08-04 12:25:38,311460
2,4,34,-8,0,0,-2,-10,2021-08-04 12:25:38,311460
-3,0,-11,6,-4,-2,0,4,2021-08-04 12:25:38,317460
8,-1,45,15,3,1,2,-2,2021-08-04 12:25:38,317460
1,-1,-40,-8,1,-2,-2,11,2021-08-04 12:25:38,333459
-18,-2,11,0,2,2,0,-4,2021-08-04 12:25:38,333459
0,-2,26,5,-5,-4,-5,-13,2021-08-04 12:25:38,333459
-5,-5,59,5,0,-3,1,-2,2021-08-04 12:25:38,333459
1,9,-59,-1,1,0,-1,-7,2021-08-04 12:25:38,348462
-12,-3,-3,-17,-3,-2,-1,7,2021-08-04 12:25:38,348462
2,10,-50,11,5,1,0,-1,2021-08-04 12:25:38,356461
0,-18,-42,-8,-7,-4,-2,-5,2021-08-04 12:25:38,356461
-2,-5,10,10,5,2,2,-9,2021-08-04 12:25:38,370459
11,-10,-4,-3,1,0,0,4,2021-08-04 12:25:38,370459
-2,-7,-74,-5,0,3,1,5,2021-08-04 12:25:38,379459
3,19,39,6,0,1,0,1,2021-08-04 12:25:38,379459
-1,0,-36,-13,-4,-1,-2,-8,2021-08-04 12:25:38,394460
5,-2,-57,-20,-7,-2,1,10,2021-08-04 12:25:38,400460
-1,-3,25,3,-1,-2,-1,-41,2021-08-04 12:25:38,406459
-3,-16,-58,6,0,-1,-1,18,2021-08-04 12:25:38,406459
3,3,34,-5,-1,-1,0,-3,2021-08-04 12:25:38,406459
-7,-15,-5,4,1,0,-1,-6,2021-08-04 12:25:38,406459
7,3,14,3,-3,-3,0,8,2021-08-04 12:25:38,416459
-14,-5,4,-11,0,0,0,-25,2021-08-04 12:25:38,416459
3,-1,-22,6,1,1,-2,-3,2021-08-04 12:25:38,432459
4,15,47,-1,-2,-1,0,14,2021-08-04 12:25:38,432459
-4,-32,-41,-16,-3,-1,0,-3,2021-08-04 12:25:38,438460
2,17,25,15,-1,0,-1,-1,2021-08-04 12:25:38,438460
1,-5,-63,-20,0,1,1,3,2021-08-04 12:25:38,455459
6,9,22,19,-2,-1,0,-4,2021-08-04 12:25:38,461459
1,3,76,4,1,0,-1,8,2021-08-04 12:25:38,467459
1,-8,-43,-16,0,0,-2,-1,2021-08-04 12:25:38,467459
-6,18,43,4,-2,0,-1,-6,2021-08-04 12:25:38,467459
-15,5,-38,-1,-2,3,-1,22,2021-08-04 12:25:38,467459
9,0,16,-1,-3,-3,0,7,2021-08-04 12:25:38,475459
-14,15,-16,4,3,0,1,-1,2021-08-04 12:25:38,475459
-1,-1,92,6,-2,0,0,-2,2021-08-04 12:25:38,491459
5,-10,-3,-18,-3,-4,-2,2,2021-08-04 12:25:38,491459
-7,3,-34,11,-2,-3,0,8,2021-08-04 12:25:38,498459
2,3,41,7,-1,1,0,-25,2021-08-04 12:25:38,498459
6,-25,-25,-10,-3,-3,-4,6,2021-08-04 12:25:38,512460
-12,-3,10,7,2,1,0,-4,2021-08-04 12:25:38,518459
-6,-10,67,-1,3,0,2,2,2021-08-04 12:25:38,518459
-1,-8,-95,-15,-6,-7,-2,1,2021-08-04 12:25:38,518459
-2,3,0,-1,0,1,0,8,2021-08-04 12:25:38,533459
3,-12,11,11,2,0,-1,-5,2021-08-04 12:25:38,533459
1,8,-21,-7,1,1,-1,-1,2021-08-04 12:25:38,533459
-1,15,24,0,0,-1,0,14,2021-08-04 12:25:38,533459
-2,2,-18,-5,-1,-3,-2,-6,2021-08-04 12:25:38,557460
7,2,15,12,-3,-1,-2,-4,2021-08-04 12:25:38,557460
-14,-1,-77,-17,-1,1,0,10,2021-08-04 12:25:38,557460
7,-4,34,2,-1,-1,-3,-2,2021-08-04 12:25:38,557460
-8,27,-7,9,3,1,0,-6,2021-08-04 12:25:38,575459
6,-7,1,0,3,0,-1,-7,2021-08-04 12:25:38,575459
4,10,28,10,-3,-2,-1,-12,2021-08-04 12:25:38,575459
13,6,13,11,5,3,-1,10,2021-08-04 12:25:38,575459
-19,-15,2,-20,-8,-7,-2,-17,2021-08-04 12:25:38,589460
4,11,39,3,2,0,1,11,2021-08-04 12:25:38,589460
-4,-4,19,3,0,2,3,-4,2021-08-04 12:25:38,596459
7,-9,-50,-5,-2,0,-1,0,2021-08-04 12:25:38,596459
20,-26,20,22,-3,-1,0,4,2021-08-04 12:25:38,611460
-5,-1,1,-9,-1,-2,-1,-10,2021-08-04 12:25:38,611460
5,-7,-6,-18,-4,-3,-1,4,2021-08-04 12:25:38,619459
-14,32,39,11,3,3,1,22,2021-08-04 12:25:38,619459
-2,-16,-29,5,-1,-1,-2,-1,2021-08-04 12:25:38,635459
0,0,14,-17,-6,-3,0,-22,2021-08-04 12:25:38,635459
6,1,-45,5,2,1,-1,11,2021-08-04 12:25:38,635459
5,-14,34,-8,-3,-2,-2,4,2021-08-04 12:25:38,635459
-9,6,-8,0,0,-1,-1,-18,2021-08-04 12:25:38,650460
-4,1,14,-2,2,0,0,7,2021-08-04 12:25:38,650460
0,15,12,11,-1,0,-5,7,2021-08-04 12:25:38,650460
-10,-7,18,-21,-4,-5,-22,-24,2021-08-04 12:25:38,650460
-13,7,45,1,4,1,12,9,2021-08-04 12:25:38,671461
9,-4,-62,1,-1,-2,0,20,2021-08-04 12:25:38,671461
-6,-3,6,-11,0,-1,-7,-10,2021-08-04 12:25:38,675497
3,-6,-4,10,-3,-1,0,17,2021-08-04 12:25:38,675497
-3,-9,-71,-17,-3,-2,-8,-4,2021-08-04 12:25:38,695460
-5,1,39,3,-4,0,1,-13,2021-08-04 12:25:38,695460
7,-24,0,6,1,0,2,24,2021-08-04 12:25:38,695460
-17,-5,4,2,-1,-1,2,-19,2021-08-04 12:25:38,695460
5,12,-15,3,0,-1,-2,-2,2021-08-04 12:25:38,709462
1,2,2,2,0,-3,1,14,2021-08-04 12:25:38,709462
5,4,-40,-8,-2,-2,-3,2,2021-08-04 12:25:38,716500
-12,-4,49,11,2,2,6,-3,2021-08-04 12:25:38,716500
2,-9,-35,-18,-3,-2,-4,-1,2021-08-04 12:25:38,731472
-4,0,36,-1,-1,-1,-4,-21,2021-08-04 12:25:38,731472
3,1,19,5,1,0,2,11,2021-08-04 12:25:38,744501
5,-3,-38,-5,-2,-4,-2,20,2021-08-04 12:25:38,744501
1,17,57,8,3,4,2,-2,2021-08-04 12:25:38,755462
3,5,-21,3,-1,-1,0,-2,2021-08-04 12:25:38,755462
-12,-6,-10,1,0,0,-1,-13,2021-08-04 12:25:38,755462
4,7,2,12,-1,1,4,-7,2021-08-04 12:25:38,755462
1,-6,-45,-9,-3,-3,-1,16,2021-08-04 12:25:38,768499
-2,-1,23,-1,-4,-3,-4,-14,2021-08-04 12:25:38,768499
3,17,18,3,4,3,3,11,2021-08-04 12:25:38,776462
1,1,14,-8,-3,-2,-2,-10,2021-08-04 12:25:38,776462
21,7,22,13,3,2,-2,7,2021-08-04 12:25:38,789496
-19,-9,-22,-5,3,2,2,-4,2021-08-04 12:25:38,789496
0,-1,2,-22,-7,-5,-9,1,2021-08-04 12:25:38,797501
-3,-4,-21,5,4,2,3,-15,2021-08-04 12:25:38,797501
5,-3,31,0,-3,-4,-3,23,2021-08-04 12:25:38,815499
5,7,7,3,2,2,2,4,2021-08-04 12:25:38,815499
-15,-33,73,4,-1,-2,0,-14,2021-08-04 12:25:38,815499
4,8,48,21,2,0,1,-3,2021-08-04 12:25:38,815499
-9,-17,-29,-48,-8,-5,-4,-9,2021-08-04 12:25:38,835499
4,26,16,10,2,0,0,27,2021-08-04 12:25:38,835499
-2,-13,13,5,-1,0,3,-20,2021-08-04 12:25:38,835499
9,-5,-53,-6,-2,-2,-2,26,2021-08-04 12:25:38,835499
-3,12,-33,6,3,1,1,-6,2021-08-04 12:25:38,857499
5,-5,21,3,-2,-1,0,6,2021-08-04 12:25:38,857499
0,12,16,3,-5,-4,-2,-7,2021-08-04 12:25:38,857499
3,-12,11,-8,-2,-1,0,-7,2021-08-04 12:25:38,857499
-4,0,-11,1,0,-1,-1,-4,2021-08-04 12:25:38,873462
1,-6,-36,-9,1,0,-3,-8,2021-08-04 12:25:38,879498
3,8,-27,7,1,1,0,-5,2021-08-04 12:25:38,885462
-4,-9,-2,-8,-4,-2,-1,-7,2021-08-04 12:25:38,885462
1,15,3,18,1,1,-2,-2,2021-08-04 12:25:38,885462
-5,-11,20,-21,-5,-3,-1,-17,2021-08-04 12:25:38,885462
4,-1,43,7,-1,-1,-1,16,2021-08-04 12:25:38,896462
-1,15,-59,-27,-5,-1,-4,-5,2021-08-04 12:25:38,896462
12,-6,0,14,4,1,1,-1,2021-08-04 12:25:38,911462
-14,-9,7,7,-1,1,1,-32,2021-08-04 12:25:38,911462
-12,6,28,-4,2,0,-6,-20,2021-08-04 12:25:38,918462
-5,-9,-58,-4,-5,-4,8,-1,2021-08-04 12:25:38,918462
7,19,45,15,4,1,1,-4,2021-08-04 12:25:38,932499
1,-9,-88,-8,-4,-4,-2,-1,2021-08-04 12:25:38,932499
-4,0,-7,-18,-2,0,5,10,2021-08-04 12:25:38,941525
1,-5,6,-6,4,1,-4,-1,2021-08-04 12:25:38,954536
-10,7,-22,-3,-3,-2,-3,-4,2021-08-04 12:25:38,960534
5,-2,32,-1,0,1,7,9,2021-08-04 12:25:38,960534
2,-11,0,3,-1,0,-6,-5,2021-08-04 12:25:38,960534
2,6,4,1,-1,-2,0,1,2021-08-04 12:25:38,960534
-6,-13,50,6,-2,-1,1,1,2021-08-04 12:25:38,974509
0,2,19,-1,-1,-1,-7,4,2021-08-04 12:25:38,974509
12,9,-89,-14,0,-1,2,11,2021-08-04 12:25:38,974509
-11,-1,82,12,0,-2,-4,-9,2021-08-04 12:25:38,974509
-13,-14,27,-14,-5,-2,0,26,2021-08-04 12:25:38,993509
3,-11,-83,1,3,2,-3,-5,2021-08-04 12:25:38,993509
-1,7,99,22,-4,-1,-4,-4,2021-08-04 12:25:39,009510
1,-20,-58,-27,-5,-2,16,0,2021-08-04 12:25:39,016509
-7,22,9,5,3,2,-2,1,2021-08-04 12:25:39,016509
8,16,-33,2,-2,0,-2,3,2021-08-04 12:25:39,016509
-14,30,19,-9,4,1,7,-4,2021-08-04 12:25:39,022510
6,24,71,14,-3,-3,-18,-8,2021-08-04 12:25:39,022510
3,-8,43,0,-2,-1,1,-2,2021-08-04 12:25:39,030509
-2,-5,-14,-3,-1,0,6,-8,2021-08-04 12:25:39,030509
0,19,-23,8,2,0,-4,34,2021-08-04 12:25:39,039509
5,-16,5,-12,-1,1,-1,-1,2021-08-04 12:25:39,039509
-3,3,-74,2,-3,-2,-1,-9,2021-08-04 12:25:39,053508
2,11,46,14,2,1,-2,2,2021-08-04 12:25:39,053508
12,-6,13,-9,-3,0,-1,-4,2021-08-04 12:25:39,062508
-6,-5,-8,1,-1,-2,-3,-4,2021-08-04 12:25:39,062508
0,-5,71,8,-1,-3,-1,0,2021-08-04 12:25:39,078509
6,1,-22,-8,2,-1,-1,4,2021-08-04 12:25:39,078509
-2,-21,-26,-2,-4,-3,0,-14,2021-08-04 12:25:39,078509
-4,20,-24,-7,0,2,3,6,2021-08-04 12:25:39,078509
5,-6,22,14,0,-1,-3,-14,2021-08-04 12:25:39,092509
-5,9,-23,5,-1,0,-1,8,2021-08-04 12:25:39,098509
-4,-9,53,7,-3,-4,-2,-9,2021-08-04 12:25:39,098509
-3,-6,-18,-13,-1,0,-1,0,2021-08-04 12:25:39,098509
3,-13,7,-9,1,0,1,0,2021-08-04 12:25:39,113509
-2,2,58,6,-2,0,-2,1,2021-08-04 12:25:39,113509
-1,-1,-60,3,-1,-2,0,-4,2021-08-04 12:25:39,121509
-7,-13,-11,6,-1,1,-1,-1,2021-08-04 12:25:39,121509
7,21,77,6,3,2,1,-4,2021-08-04 12:25:39,137509
-6,-53,-53,-13,-4,-3,-3,3,2021-08-04 12:25:39,137509
-5,11,-15,-17,-2,-2,-1,-12,2021-08-04 12:25:39,137509
-3,30,-29,8,0,-2,-1,2,2021-08-04 12:25:39,137509
3,7,0,5,1,-2,-1,-1,2021-08-04 12:25:39,150509
4,21,-36,4,2,1,0,1,2021-08-04 12:25:39,150509
-2,5,11,-10,0,-1,-1,-3,2021-08-04 12:25:39,157509
6,-5,-15,5,1,0,0,0,2021-08-04 12:25:39,157509
-1,19,33,0,2,3,0,-3,2021-08-04 12:25:39,172509
-15,-22,-26,10,0,-1,-2,0,2021-08-04 12:25:39,172509
4,-7,-46,-20,-6,-1,-1,-3,2021-08-04 12:25:39,181509
-10,4,29,-7,-3,-1,-1,-1,2021-08-04 12:25:39,187510
0,1,-10,1,-1,0,0,-3,2021-08-04 12:25:39,196510
7,5,66,6,0,0,0,-1,2021-08-04 12:25:39,196510
2,-34,-65,4,0,1,1,-2,2021-08-04 12:25:39,196510
0,6,26,5,1,0,2,11,2021-08-04 12:25:39,196510
-13,-10,-53,2,-1,-3,-4,1,2021-08-04 12:25:39,212022
-4,20,-34,-7,-3,-2,-2,-5,2021-08-04 12:25:39,218016
1,8,102,16,5,3,1,-1,2021-08-04 12:25:39,224523
1,-14,17,9,-1,1,-2,10,2021-08-04 12:25:39,230524
-4,-3,-22,-24,-10,-5,-4,-8,2021-08-04 12:25:39,237523
10,-5,33,5,3,1,1,9,2021-08-04 12:25:39,237523
0,14,14,5,-1,-3,0,-1,2021-08-04 12:25:39,237523
0,-16,-10,-38,-2,-3,-1,-11,2021-08-04 12:25:39,237523
-3,1,6,17,0,1,0,0,2021-08-04 12:25:39,255523
-5,-5,3,-7,-2,-2,-1,-3,2021-08-04 12:25:39,255523
3,-10,53,2,1,-1,2,18,2021-08-04 12:25:39,255523
7,-6,48,12,-4,-4,-3,-50,2021-08-04 12:25:39,255523
-15,-7,-10,-10,-2,0,0,-16,2021-08-04 12:25:39,279523
9,-2,-14,-3,-2,-4,0,22,2021-08-04 12:25:39,286523
-6,-14,21,19,-1,-4,-10,-2,2021-08-04 12:25:39,286523
7,9,0,12,4,2,-1,10,2021-08-04 12:25:39,286523
5,-16,-74,-28,-2,1,-4,3,2021-08-04 12:25:39,292524
3,13,69,16,1,-1,1,-1,2021-08-04 12:25:39,292524
-10,-22,20,-9,-7,-2,-10,-6,2021-08-04 12:25:39,303523
4,-8,-13,8,-3,-1,11,31,2021-08-04 12:25:39,303523
-12,-3,-7,-4,-4,-5,-12,8,2021-08-04 12:25:39,317523
-1,-29,5,2,2,5,28,-13,2021-08-04 12:25:39,324523
17,13,-8,-10,-2,-2,-4,-24,2021-08-04 12:25:39,324523
-40,-6,22,-5,3,0,2,19,2021-08-04 12:25:39,324523
3,-6,-50,15,-3,-4,2,-35,2021-08-04 12:25:39,331523
0,-23,16,-32,-7,-4,7,9,2021-08-04 12:25:39,331523
-3,-6,-40,19,-1,1,-1,-16,2021-08-04 12:25:39,339523
11,-4,-11,5,3,0,6,-7,2021-08-04 12:25:39,339523
17,-18,22,-2,2,1,-2,15,2021-08-04 12:25:39,361523
-17,9,16,3,-1,-1,-9,-13,2021-08-04 12:25:39,361523
0,-2,-25,-5,-2,2,5,10,2021-08-04 12:25:39,361523
-2,-6,67,-1,-3,0,-12,-24,2021-08-04 12:25:39,361523
12,29,-4,5,1,-3,6,20,2021-08-04 12:25:39,377523
1,-15,-37,5,2,2,-10,-7,2021-08-04 12:25:39,377523
-2,-5,-61,-31,0,0,3,7,2021-08-04 12:25:39,377523
-19,8,-18,12,-4,-3,-6,-1,2021-08-04 12:25:39,377523
-2,6,27,3,0,3,2,-3,2021-08-04 12:25:39,391523
17,32,77,-4,-1,-1,-4,0,2021-08-04 12:25:39,391523
-11,-15,-60,4,2,-2,-2,1,2021-08-04 12:25:39,397525
10,1,-44,2,0,-3,-3,-1,2021-08-04 12:25:39,397525
-4,7,5,-16,2,0,2,-3,2021-08-04 12:25:39,413524
-4,-32,-27,3,-2,2,-5,3,2021-08-04 12:25:39,413723
1,20,19,10,-2,-2,1,-5,2021-08-04 12:25:39,423523
13,-1,-28,-19,-2,-1,-1,6,2021-08-04 12:25:39,429523
-11,21,40,22,1,-2,1,2,2021-08-04 12:25:39,437523
-2,34,-43,8,0,-1,-4,-4,2021-08-04 12:25:39,437523
-2,3,-46,-37,-5,-1,1,1,2021-08-04 12:25:39,437523
-1,-1,-28,11,-2,-1,0,0,2021-08-04 12:25:39,437523
2,-3,56,-2,4,0,0,3,2021-08-04 12:25:39,451522
-13,5,64,-10,2,-3,-5,-7,2021-08-04 12:25:39,451522
-1,0,93,15,-2,-1,0,2,2021-08-04 12:25:39,457523
8,-1,2,0,-1,-1,-1,4,2021-08-04 12:25:39,457523
5,-15,-5,-5,-3,0,2,0,2021-08-04 12:25:39,483523
-3,-1,-1,-4,0,-1,-4,-2,2021-08-04 12:25:39,483523
2,-8,3,0,2,0,1,1,2021-08-04 12:25:39,483523
-9,-39,57,-11,-3,-3,-4,-4,2021-08-04 12:25:39,483523
3,4,71,8,1,1,1,-1,2021-08-04 12:25:39,498523
-1,-20,-93,0,-2,-2,-3,-5,2021-08-04 12:25:39,498523
-6,4,-5,-3,-3,0,1,14,2021-08-04 12:25:39,498523
5,5,31,3,1,1,-3,-2,2021-08-04 12:25:39,498523
-2,-30,-128,-26,-7,-3,0,19,2021-08-04 12:25:39,511523
-4,6,122,2,0,0,-3,-37,2021-08-04 12:25:39,517524
4,13,4,16,1,-2,-2,-10,2021-08-04 12:25:39,523523
-5,27,-15,-2,1,3,2,10,2021-08-04 12:25:39,523523
5,7,4,11,-2,-1,-1,6,2021-08-04 12:25:39,533523
-10,7,23,-14,-3,-3,-1,9,2021-08-04 12:25:39,539522
4,6,-38,3,-1,0,-4,-7,2021-08-04 12:25:39,540523
-1,2,-10,17,1,-1,0,-8,2021-08-04 12:25:39,540523
-1,-9,-3,-10,-2,1,-1,-10,2021-08-04 12:25:39,557524
1,16,24,-7,-5,-3,-1,14,2021-08-04 12:25:39,563524
-4,-34,-64,0,3,0,0,-11,2021-08-04 12:25:39,563524
2,3,-9,1,-2,-2,-1,3,2021-08-04 12:25:39,563524
-2,-9,-10,6,-1,0,1,-6,2021-08-04 12:25:39,571525
1,8,9,-3,-5,-1,0,13,2021-08-04 12:25:39,577523
-11,-9,26,3,0,-1,-1,1,2021-08-04 12:25:39,577523
10,16,51,-9,-4,-1,0,6,2021-08-04 12:25:39,577523
-12,-35,4,-2,-3,-4,-5,-8,2021-08-04 12:25:39,593523
-1,10,-22,7,-1,0,-3,-1,2021-08-04 12:25:39,599523
2,6,-14,-10,-1,-2,0,1,2021-08-04 12:25:39,599523
6,-7,58,-2,1,-2,-1,16,2021-08-04 12:25:39,599523
-5,-2,-49,-2,-2,-2,0,-21,2021-08-04 12:25:39,617523
6,5,-3,9,2,0,-2,10,2021-08-04 12:25:39,624523
-1,4,119,4,-2,-2,-2,-1,2021-08-04 12:25:39,624523
1,-23,-55,3,-2,1,-1,3,2021-08-04 12:25:39,624523
0,30,55,-3,1,0,0,6,2021-08-04 12:25:39,632523
6,-22,52,4,-3,-3,-1,-6,2021-08-04 12:25:39,638523
3,-19,-53,-13,3,0,4,-3,2021-08-04 12:25:39,645523
-1,3,58,5,0,0,-3,-4,2021-08-04 12:25:39,645523
0,8,62,4,-1,-1,0,2,2021-08-04 12:25:39,653523
3,-18,-80,-1,1,2,-2,-6,2021-08-04 12:25:39,653523
-6,5,-8,8,-1,-1,0,2,2021-08-04 12:25:39,663523
-4,-4,-51,-11,-2,-1,-2,-9,2021-08-04 12:25:39,663523
3,-7,-27,-6,0,2,-1,6,2021-08-04 12:25:39,678523
-1,7,8,3,-5,-5,-1,5,2021-08-04 12:25:39,684523
1,3,-24,-6,-1,2,0,5,2021-08-04 12:25:39,684523
-1,-2,-56,13,2,1,1,-14,2021-08-04 12:25:39,684523
-14,-6,-60,-25,-3,-3,-2,8,2021-08-04 12:25:39,690524
-18,1,-36,7,0,1,-1,-10,2021-08-04 12:25:39,690524
-14,-4,-23,-9,-7,-5,-4,-4,2021-08-04 12:25:39,699523
5,9,65,14,4,3,2,19,2021-08-04 12:25:39,706523
4,23,-14,6,0,2,-1,-2,2021-08-04 12:25:39,713526
-6,-59,-71,-8,-4,-1,-1,6,2021-08-04 12:25:39,713526
5,15,58,3,-3,-3,-2,2,2021-08-04 12:25:39,722526
-1,12,25,-6,-1,0,-1,1,2021-08-04 12:25:39,722526
1,4,-13,9,4,0,-1,-1,2021-08-04 12:25:39,735526
-1,10,-53,-14,-5,-3,0,-4,2021-08-04 12:25:39,741526
5,3,45,4,0,1,0,2,2021-08-04 12:25:39,741526
-8,-6,-3,-13,-4,-4,1,-13,2021-08-04 12:25:39,741526
5,-4,-6,4,-2,-1,-2,-2,2021-08-04 12:25:39,752524
2,8,44,7,3,-1,1,-6,2021-08-04 12:25:39,757524
-4,-14,-2,-8,-2,1,-1,-3,2021-08-04 12:25:39,757524
2,2,-102,-4,-4,-3,-6,-6,2021-08-04 12:25:39,757524
-10,-6,16,-9,-5,-2,0,-6,2021-08-04 12:25:39,782644
9,4,33,1,-2,-3,-15,15,2021-08-04 12:25:39,782644
7,-13,-44,-5,-1,0,14,-4,2021-08-04 12:25:39,782644
-8,-3,49,-1,2,0,0,-18,2021-08-04 12:25:39,782644
-5,7,-29,-1,0,1,-4,6,2021-08-04 12:25:39,796651
1,-14,27,7,-1,0,1,10,2021-08-04 12:25:39,796651
-8,39,-10,2,0,0,-11,-9,2021-08-04 12:25:39,796651
8,-8,-116,-8,-3,-2,17,7,2021-08-04 12:25:39,796651
7,26,61,1,1,-1,2,-10,2021-08-04 12:25:39,812502
-6,0,5,-4,-5,-4,-1,-6,2021-08-04 12:25:39,812502
-4,7,28,12,5,2,-5,8,2021-08-04 12:25:39,819502
-1,0,29,-3,-1,-1,-2,3,2021-08-04 12:25:39,819502
-5,-11,45,2,-1,-1,-3,-1,2021-08-04 12:25:39,832503
5,24,-16,-5,3,2,4,-7,2021-08-04 12:25:39,832503
1,-24,-41,-8,-3,-2,-1,0,2021-08-04 12:25:39,841557
-1,-1,-13,13,-1,-3,-4,-3,2021-08-04 12:25:39,841557
2,-10,13,-4,3,0,1,-7,2021-08-04 12:25:39,857528
-8,54,51,4,1,1,1,2,2021-08-04 12:25:39,862536
-1,-26,-5,-11,-3,1,1,-2,2021-08-04 12:25:39,862536
-4,-15,14,-4,-1,-1,-4,-6,2021-08-04 12:25:39,862536
2,-7,66,13,-1,-1,0,8,2021-08-04 12:25:39,871555
1,-4,-48,-6,0,-2,0,-2,2021-08-04 12:25:39,871555
3,3,33,8,-1,1,-2,-1,2021-08-04 12:25:39,879554
5,-1,-19,-17,-3,0,0,3,2021-08-04 12:25:39,885554
7,-8,9,1,-2,1,1,-3,2021-08-04 12:25:39,890577
-9,-23,-24,11,-1,-1,-9,-5,2021-08-04 12:25:39,890577
2,5,-22,-21,-3,0,7,19,2021-08-04 12:25:39,901573
7,8,32,13,-4,-2,-10,-5,2021-08-04 12:25:39,907572
-3,-10,-41,-16,-4,0,-1,-10,2021-08-04 12:25:39,917581
3,-3,-55,4,2,1,2,-5,2021-08-04 12:25:39,924490
-3,-16,-66,7,3,-1,0,8,2021-08-04 12:25:39,931485
-8,-1,87,-2,-2,-1,-1,-4,2021-08-04 12:25:39,931485
-2,-8,-50,1,-5,-5,-2,8,2021-08-04 12:25:39,931485
4,6,37,-3,1,1,3,3,2021-08-04 12:25:39,931485
-13,13,-21,-11,0,-3,-3,-12,2021-08-04 12:25:39,939464
2,-2,79,24,2,2,2,-1,2021-08-04 12:25:39,939464
-1,-3,-9,-55,-3,-5,0,-5,2021-08-04 12:25:39,954575
-2,-5,72,15,-1,-1,5,1,2021-08-04 12:25:39,961721
3,-3,-24,-18,-3,-2,-4,-3,2021-08-04 12:25:39,961721
-5,-6,12,7,0,-1,-3,0,2021-08-04 12:25:39,961721
3,36,43,23,1,0,-2,7,2021-08-04 12:25:39,976313
-3,-2,-28,-8,-3,0,-1,-4,2021-08-04 12:25:39,976313
9,14,23,0,-1,-2,0,-4,2021-08-04 12:25:39,985367
-13,-2,-48,3,0,1,0,2,2021-08-04 12:25:39,985367
0,-11,-32,3,-1,1,-1,-1,2021-08-04 12:25:39,991312
1,-16,-16,-19,-4,-2,0,-3,2021-08-04 12:25:39,991312
6,5,72,21,-2,-3,-2,-1,2021-08-04 12:25:39,999312
1,-7,-68,-25,-2,-3,-3,1,2021-08-04 12:25:39,999312
4,4,32,21,-1,0,2,1,2021-08-04 12:25:40,014374
-10,-11,-20,-15,-1,0,-2,10,2021-08-04 12:25:40,021320
2,4,61,15,1,-1,-2,-29,2021-08-04 12:25:40,021320
7,5,1,1,-4,-3,1,5,2021-08-04 12:25:40,021320
4,7,-12,-5,0,-3,-3,-1,2021-08-04 12:25:40,041356
0,-1,8,5,0,-2,0,-3,2021-08-04 12:25:40,041356
0,-6,28,1,0,1,0,0,2021-08-04 12:25:40,041356
3,19,-2,-8,-2,0,1,-14,2021-08-04 12:25:40,041356
0,-11,-63,5,1,4,-3,3,2021-08-04 12:25:40,059345
1,31,20,0,-1,-3,5,1,2021-08-04 12:25:40,059345
0,12,58,12,2,-2,1,4,2021-08-04 12:25:40,059345
5,-18,7,-20,-1,0,-2,-10,2021-08-04 12:25:40,059345
-17,-22,28,11,-4,-4,-5,-1,2021-08-04 12:25:40,074354
7,16,61,6,3,3,2,4,2021-08-04 12:25:40,074354
-2,-2,-68,-7,0,0,2,1,2021-08-04 12:25:40,089354
-2,-3,-10,5,-6,-6,-3,9,2021-08-04 12:25:40,089354
0,-8,63,-6,0,1,-1,-5,2021-08-04 12:25:40,096354
5,10,-65,-2,1,1,11,-2,2021-08-04 12:25:40,096354
-1,-26,40,20,3,2,-1,0,2021-08-04 12:25:40,110355
-5,-15,-52,-28,-2,-1,-1,-1,2021-08-04 12:25:40,117345
-2,9,-17,3,-2,1,0,0,2021-08-04 12:25:40,117345
6,8,-1,1,-1,0,-4,-8,2021-08-04 12:25:40,117345
3,26,19,2,-3,-1,-2,10,2021-08-04 12:25:40,117345
-5,3,52,9,3,0,2,-2,2021-08-04 12:25:40,117345
0,0,31,2,0,-1,1,-5,2021-08-04 12:25:40,133354
-3,-10,-24,7,0,-1,-3,2,2021-08-04 12:25:40,133354
-2,-8,-67,-15,-7,-2,-1,0,2021-08-04 12:25:40,142352
2,7,-16,-1,5,3,-2,1,2021-08-04 12:25:40,142352
3,12,18,-18,-1,0,2,-1,2021-08-04 12:25:40,157354
-10,-31,-17,6,1,-3,-6,-6,2021-08-04 12:25:40,164355
-1,3,10,-12,-5,-3,-3,-1,2021-08-04 12:25:40,164355
-1,11,77,10,-3,-4,0,-2,2021-08-04 12:25:40,164355
-3,-34,-39,-8,7,2,2,0,2021-08-04 12:25:40,179354
-4,9,-40,-3,-2,-2,-2,-3,2021-08-04 12:25:40,186354
-3,-20,-93,-29,-7,-1,-2,-1,2021-08-04 12:25:40,186354
2,-7,13,-3,0,-1,-3,4,2021-08-04 12:25:40,186354
2,18,-19,13,-5,-3,2,0,2021-08-04 12:25:40,193355
-4,-25,27,-7,-3,-1,-3,-4,2021-08-04 12:25:40,199323
8,-29,13,-3,-7,-5,-3,0,2021-08-04 12:25:40,199323
1,16,3,11,3,2,-1,1,2021-08-04 12:25:40,205322
2,-10,-62,-6,-4,-2,0,0,2021-08-04 12:25:40,211352
0,-1,-40,5,1,0,-2,0,2021-08-04 12:25:40,211352
-1,8,76,1,2,1,-3,0,2021-08-04 12:25:40,224375
2,3,-40,-14,-6,-1,0,0,2021-08-04 12:25:40,230334
-5,-32,59,32,1,-1,-3,-3,2021-08-04 12:25:40,242356
1,7,-28,-22,-8,-4,-4,-2,2021-08-04 12:25:40,249365
8,-5,-14,4,4,3,3,3,2021-08-04 12:25:40,249365
-6,-11,9,8,0,-3,-1,0,2021-08-04 12:25:40,249365
-3,-7,-55,-11,-3,1,-2,-3,2021-08-04 12:25:40,249365
2,23,32,4,1,1,2,2,2021-08-04 12:25:40,249365
-6,-8,-57,7,3,1,-2,0,2021-08-04 12:25:40,261368
-6,15,44,-4,-3,-3,0,1,2021-08-04 12:25:40,261368
4,-7,18,1,-1,-1,2,-1,2021-08-04 12:25:40,275369
-3,-14,-40,-4,2,3,-1,-2,2021-08-04 12:25:40,282368
3,21,41,14,4,0,-1,-1,2021-08-04 12:25:40,289359
-3,-3,35,5,-6,1,0,-2,2021-08-04 12:25:40,289359
-1,24,13,0,-1,-4,-1,3,2021-08-04 12:25:40,299367
0,-10,-43,-8,0,2,-1,0,2021-08-04 12:25:40,305330
-10,-6,84,21,2,-2,-2,-2,2021-08-04 12:25:40,305330
4,1,5,-5,-1,-1,-1,0,2021-08-04 12:25:40,305330
-7,-4,-62,-28,-4,-4,-2,-4,2021-08-04 12:25:40,323368
1,-3,100,18,-3,-1,-3,-2,2021-08-04 12:25:40,335358
-8,-4,-46,-24,2,1,2,-2,2021-08-04 12:25:40,341368
4,-1,-22,10,3,2,-1,-1,2021-08-04 12:25:40,341368
-1,1,3,21,-1,-2,-1,-3,2021-08-04 12:25:40,341368
-4,-7,-39,-27,-1,-1,0,0,2021-08-04 12:25:40,341368
1,-14,1,6,-3,0,-2,-2,2021-08-04 12:25:40,341368
-2,0,1,3,2,-1,3,-2,2021-08-04 12:25:40,341368
-12,22,38,10,-1,0,-2,-2,2021-08-04 12:25:40,364373
4,-6,43,-8,1,-1,-2,-1,2021-08-04 12:25:40,364373
-3,-18,28,-6,-7,-4,-2,-2,2021-08-04 12:25:40,364373
0,-11,-21,3,-1,-2,-1,1,2021-08-04 12:25:40,364373
-4,-17,-72,-3,2,0,0,-3,2021-08-04 12:25:40,373367
-8,-3,73,11,-4,-6,-2,-4,2021-08-04 12:25:40,373367
1,31,57,12,1,1,0,0,2021-08-04 12:25:40,381367
0,-20,-55,-5,-3,-2,-3,0,2021-08-04 12:25:40,387367
2,0,73,-4,-1,-4,-2,0,2021-08-04 12:25:40,400367
4,-20,-48,-13,3,0,-1,-2,2021-08-04 12:25:40,400367
-1,-6,20,10,1,0,1,-2,2021-08-04 12:25:40,407365
-3,-8,-54,-2,0,-1,-1,-3,2021-08-04 12:25:40,413332
4,-9,-11,-11,1,-2,0,1,2021-08-04 12:25:40,425332
12,19,23,10,-1,-3,1,0,2021-08-04 12:25:40,425332
-7,-50,11,-8,-5,-4,-2,1,2021-08-04 12:25:40,425534
-2,6,-57,-11,1,0,1,-6,2021-08-04 12:25:40,425534
-10,-10,-77,-13,-5,0,-1,1,2021-08-04 12:25:40,431330
7,-6,11,4,-2,0,0,-1,2021-08-04 12:25:40,431330
4,19,-57,-4,-1,-1,-2,3,2021-08-04 12:25:40,438331
4,-3,14,-1,1,-1,-2,-4,2021-08-04 12:25:40,438331
7,-12,29,10,3,0,1,-3,2021-08-04 12:25:40,456366
-5,6,17,-9,-1,1,-1,-1,2021-08-04 12:25:40,456366
3,24,-64,-11,-3,-3,1,11,2021-08-04 12:25:40,464367
3,-17,27,-8,-4,-1,-3,-23,2021-08-04 12:25:40,464367
9,27,15,16,3,0,-2,1,2021-08-04 12:25:40,479366
-9,2,31,-12,-6,-2,0,3,2021-08-04 12:25:40,479366
11,-10,27,-11,-5,-4,-3,-6,2021-08-04 12:25:40,479366
-3,-15,26,8,-1,1,4,3,2021-08-04 12:25:40,479366
-9,10,-37,-3,-1,0,-6,-8,2021-08-04 12:25:40,493355
11,-7,-11,7,1,1,2,2,2021-08-04 12:25:40,493355
-9,19,-53,0,4,1,0,-21,2021-08-04 12:25:40,502335
3,5,51,-16,-6,-5,1,-2,2021-08-04 12:25:40,502335
-7,-3,7,5,1,2,5,17,2021-08-04 12:25:40,516330
9,3,31,7,0,-2,-3,-23,2021-08-04 12:25:40,521331
-8,31,-53,-3,-1,1,17,-8,2021-08-04 12:25:40,521331
-1,13,14,5,0,0,-18,1,2021-08-04 12:25:40,521331
6,13,92,7,3,2,18,16,2021-08-04 12:25:40,539330
-17,-9,-17,-10,-3,-2,3,24,2021-08-04 12:25:40,544332
-9,1,-31,0,-1,-1,-4,-25,2021-08-04 12:25:40,550332
-3,-3,28,6,0,-2,-4,6,2021-08-04 12:25:40,557330
14,-11,-50,-13,-2,-1,-16,-22,2021-08-04 12:25:40,563330
3,-12,61,29,5,3,1,15,2021-08-04 12:25:40,563330
-18,-12,57,-18,-4,-2,-7,15,2021-08-04 12:25:40,563330
-3,-3,-6,3,-3,-3,-21,-7,2021-08-04 12:25:40,563330
-29,-1,0,1,1,2,5,-25,2021-08-04 12:25:40,576331
10,23,21,16,1,2,1,15,2021-08-04 12:25:40,576331
0,-2,15,-14,2,-1,-6,-1,2021-08-04 12:25:40,585334
-15,4,-34,-12,-4,-4,-2,-51,2021-08-04 12:25:40,585334
26,-10,-33,2,-2,-1,1,2,2021-08-04 12:25:40,599330
-20,29,-4,1,0,1,3,-4,2021-08-04 12:25:40,599330
16,5,33,12,-1,-2,-6,45,2021-08-04 12:25:40,607331
5,7,40,-4,7,6,28,43,2021-08-04 12:25:40,607331
-4,-4,3,7,-4,-8,-31,-43,2021-08-04 12:25:40,614330
-24,-23,-108,-18,-3,0,-15,-40,2021-08-04 12:25:40,614330
14,-20,51,10,4,-2,1,11,2021-08-04 12:25:40,621330
16,3,14,-1,-3,-3,-18,32,2021-08-04 12:25:40,621330
-40,-15,3,0,-2,3,24,-35,2021-08-04 12:25:40,637331
14,8,-14,-2,-2,-1,-5,9,2021-08-04 12:25:40,637331
8,15,38,5,-4,-5,-7,-12,2021-08-04 12:25:40,645330
6,4,-45,-2,7,4,-7,9,2021-08-04 12:25:40,645330
1,12,-18,4,-3,-4,5,24,2021-08-04 12:25:40,659330
0,-22,0,-12,-4,-8,-11,-15,2021-08-04 12:25:40,665330
13,-14,-12,5,2,6,18,10,2021-08-04 12:25:40,665330
-2,22,-34,2,-3,-5,2,4,2021-08-04 12:25:40,665330
3,-20,29,1,-2,-1,10,10,2021-08-04 12:25:40,675331
-2,-5,-33,-16,1,0,-6,1,2021-08-04 12:25:40,681330
12,6,-64,9,0,2,19,-15,2021-08-04 12:25:40,681330
-30,-32,25,7,-5,-3,-9,4,2021-08-04 12:25:40,681330
5,22,-20,-30,-4,-5,-7,4,2021-08-04 12:25:40,697330
8,1,28,15,0,1,-7,4,2021-08-04 12:25:40,704330
0,3,-8,1,1,-1,-11,-11,2021-08-04 12:25:40,704330
-8,-9,19,8,1,3,10,-10,2021-08-04 12:25:40,704330
-4,24,2,-3,-1,-2,-3,12,2021-08-04 12:25:40,720330
0,-4,6,-12,-6,-3,1,5,2021-08-04 12:25:40,727330
-5,11,37,4,-1,-2,-1,-22,2021-08-04 12:25:40,740331
2,-6,-47,-3,-2,-2,11,3,2021-08-04 12:25:40,743333
2,-13,23,14,3,1,-6,8,2021-08-04 12:25:40,743333
9,15,-46,-8,2,2,6,-4,2021-08-04 12:25:40,743333
-4,-7,-56,16,-1,-1,-9,7,2021-08-04 12:25:40,743333
-6,-31,86,-15,0,-2,0,-7,2021-08-04 12:25:40,743333
2,3,-30,-14,-1,0,-4,2,2021-08-04 12:25:40,755385
0,-4,-65,13,0,-3,0,-1,2021-08-04 12:25:40,755385
-4,-3,51,-2,-4,-1,-1,4,2021-08-04 12:25:40,764329
4,14,-51,-7,0,1,4,0,2021-08-04 12:25:40,764329
6,-7,22,1,3,3,-4,3,2021-08-04 12:25:40,779377
-4,5,68,16,-7,-5,6,0,2021-08-04 12:25:40,785384
-6,-2,-92,-48,1,-2,-4,3,2021-08-04 12:25:40,791388
5,1,-53,24,-4,-1,4,-4,2021-08-04 12:25:40,791388
4,6,90,2,4,4,0,6,2021-08-04 12:25:40,791388
-3,29,-73,-12,-3,-3,0,-4,2021-08-04 12:25:40,791388
-1,15,47,12,2,-1,-2,0,2021-08-04 12:25:40,801371
0,-25,5,1,-3,-2,-3,-5,2021-08-04 12:25:40,801371
-2,19,-83,-19,0,-1,-2,2,2021-08-04 12:25:40,816333
-1,-16,46,19,0,0,2,-4,2021-08-04 12:25:40,822381
0,7,-25,1,-2,1,-2,-1,2021-08-04 12:25:40,828331
-1,11,44,-5,3,3,3,-1,2021-08-04 12:25:40,828331
-3,-16,-28,15,-1,-1,-2,-1,2021-08-04 12:25:40,839389
2,4,-11,-31,-4,-3,1,-4,2021-08-04 12:25:40,846332
-5,-16,105,4,-8,-4,-3,-2,2021-08-04 12:25:40,846332
10,13,-3,14,7,2,4,18,2021-08-04 12:25:40,852389
-4,-4,-42,-20,-5,-8,-7,-10,2021-08-04 12:25:40,852389
-3,-6,34,15,3,1,1,23,2021-08-04 12:25:40,852389
-25,-26,-67,-12,-4,-1,-2,3,2021-08-04 12:25:40,863332
9,2,0,-3,-3,-2,-3,-33,2021-08-04 12:25:40,863332
3,-1,10,6,0,2,3,-14,2021-08-04 12:25:40,873332
3,1,41,-5,-2,-3,-3,37,2021-08-04 12:25:40,873332
6,-13,-42,8,1,-1,1,-2,2021-08-04 12:25:40,885332
10,2,84,-12,-6,-6,12,-36,2021-08-04 12:25:40,885332
-24,3,-5,2,0,-1,-3,13,2021-08-04 12:25:40,898334
16,-5,13,7,1,1,7,-17,2021-08-04 12:25:40,904373
-26,29,0,-6,0,2,21,-4,2021-08-04 12:25:40,917334
-15,15,-5,-6,-2,1,-14,7,2021-08-04 12:25:40,917334
20,-6,34,0,-5,-4,-7,23,2021-08-04 12:25:40,917334
10,15,26,-1,2,4,6,-24,2021-08-04 12:25:40,917334
-1,-12,-17,-5,0,0,-5,4,2021-08-04 12:25:40,917334
-3,9,-34,12,2,-2,9,-9,2021-08-04 12:25:40,917334
11,-6,107,-12,-1,0,-4,36,2021-08-04 12:25:40,936334
-6,-25,-2,-1,3,1,3,-18,2021-08-04 12:25:40,942334
18,-15,-111,1,-2,-3,-13,-17,2021-08-04 12:25:40,948334
-2,2,19,-8,-6,-2,-4,33,2021-08-04 12:25:40,948334
-4,1,81,8,-2,-3,-2,-33,2021-08-04 12:25:40,959333
-1,3,36,-15,-1,-4,0,2,2021-08-04 12:25:40,959333
2,1,43,0,-4,-2,-4,-10,2021-08-04 12:25:40,966334
-4,-1,-78,0,1,0,2,31,2021-08-04 12:25:40,966334
6,4,-52,-6,2,1,3,-20,2021-08-04 12:25:40,981334
-12,-7,83,3,-2,0,-4,9,2021-08-04 12:25:40,988331
-18,23,-64,1,0,-4,-9,-6,2021-08-04 12:25:40,995332
-2,6,-23,3,0,0,11,-8,2021-08-04 12:25:40,995332
6,-12,30,-5,-2,-2,0,8,2021-08-04 12:25:40,995332
-11,-16,5,4,-3,-3,-4,-9,2021-08-04 12:25:40,995332
4,5,-24,-5,1,1,3,16,2021-08-04 12:25:41,009332
6,0,18,6,0,-1,-6,-7,2021-08-04 12:25:41,016331
-9,3,55,-6,1,0,3,-3,2021-08-04 12:25:41,016331
7,2,51,7,-3,-2,8,-3,2021-08-04 12:25:41,016331
13,5,79,14,-1,-3,1,-9,2021-08-04 12:25:41,026333
-18,21,-42,-16,-4,-3,-16,14,2021-08-04 12:25:41,026333
4,-31,-62,0,-2,1,-2,-3,2021-08-04 12:25:41,043334
-7,9,25,12,3,2,0,3,2021-08-04 12:25:41,049331
-4,-14,-38,-20,-2,-4,-1,4,2021-08-04 12:25:41,055330
-3,16,79,0,2,1,3,-9,2021-08-04 12:25:41,055330
1,5,-66,10,1,-1,0,7,2021-08-04 12:25:41,055330
-4,-6,-57,-8,-2,-2,-4,-9,2021-08-04 12:25:41,055330
9,9,9,4,-2,2,-2,25,2021-08-04 12:25:41,064368
-19,1,66,0,0,-3,-5,-4,2021-08-04 12:25:41,064368
2,34,15,9,-2,-1,4,1,2021-08-04 12:25:41,079204
1,3,-30,-9,-1,-1,-1,-11,2021-08-04 12:25:41,079204
7,-19,13,-8,-3,-1,-2,1,2021-08-04 12:25:41,087074
0,-31,-45,-3,-3,0,-1,-7,2021-08-04 12:25:41,093108
-17,-1,49,-8,0,0,-2,2,2021-08-04 12:25:41,103092
-2,11,-30,6,0,-1,-1,17,2021-08-04 12:25:41,109095
7,-44,64,-1,-3,-4,-8,-15,2021-08-04 12:25:41,115163
-4,13,-3,-2,2,3,1,3,2021-08-04 12:25:41,115163
-2,-11,-50,13,0,2,0,-12,2021-08-04 12:25:41,115163
-4,-6,-112,-29,-6,-6,-8,2,2021-08-04 12:25:41,115163
-1,14,-20,5,0,0,0,2,2021-08-04 12:25:41,125171
1,-35,32,5,-1,-3,-3,-6,2021-08-04 12:25:41,125171
6,19,-27,-5,-2,-1,-2,-7,2021-08-04 12:25:41,139234
-8,2,-62,2,0,-1,-2,-5,2021-08-04 12:25:41,139234
-1,16,21,3,2,1,6,1,2021-08-04 12:25:41,145237
8,-18,38,-1,0,-1,-2,-16,2021-08-04 12:25:41,145237
-6,11,-45,1,-1,1,-1,4,2021-08-04 12:25:41,162274
-5,-14,58,-2,-2,0,-1,0,2021-08-04 12:25:41,162274
-6,85,-24,2,3,2,-1,-3,2021-08-04 12:25:41,162274
-3,8,13,12,-2,1,-5,17,2021-08-04 12:25:41,162274
-8,-16,-38,-13,-3,-3,-2,-17,2021-08-04 12:25:41,177286
20,19,45,6,2,1,-3,14,2021-08-04 12:25:41,177286
7,-21,-1,6,-4,-3,-2,-15,2021-08-04 12:25:41,184282
3,13,-37,5,6,5,14,31,2021-08-04 12:25:41,184282
1,-1,7,3,-3,-4,-10,22,2021-08-04 12:25:41,200281
-6,15,-1,-12,0,-2,-19,-20,2021-08-04 12:25:41,206285
-26,-2,16,2,-3,1,-1,-5,2021-08-04 12:25:41,206285
0,-17,-34,-7,-1,-1,-3,-34,2021-08-04 12:25:41,206285
-10,-2,-36,2,1,-2,3,16,2021-08-04 12:25:41,223284
5,-17,56,-1,-4,-3,-3,2,2021-08-04 12:25:41,223284
-34,-7,-3,-5,-2,-3,7,11,2021-08-04 12:25:41,223284
2,-2,65,11,1,1,-3,-13,2021-08-04 12:25:41,223284
11,-13,-57,-33,-3,-1,1,-6,2021-08-04 12:25:41,235282
-9,-5,-27,9,-1,-1,0,-5,2021-08-04 12:25:41,241281
16,14,39,10,0,2,-3,3,2021-08-04 12:25:41,246282
12,-1,-10,-5,-2,0,4,20,2021-08-04 12:25:41,246282
6,-7,85,1,-5,-2,-5,-18,2021-08-04 12:25:41,259282
5,-7,-53,9,-1,-1,4,7,2021-08-04 12:25:41,266271
12,-49,-16,-28,-3,-2,-2,-5,2021-08-04 12:25:41,266271
4,20,-71,19,3,2,9,4,2021-08-04 12:25:41,266271
-25,-11,70,-16,-7,-6,-2,-17,2021-08-04 12:25:41,281562
1,15,-28,16,3,4,2,-11,2021-08-04 12:25:41,288560
-15,-22,64,3,0,-1,16,9,2021-08-04 12:25:41,293563
8,3,-80,-18,-3,-5,-16,14,2021-08-04 12:25:41,293563
12,-15,-27,19,3,1,-7,-6,2021-08-04 12:25:41,299617
-22,15,-2,-9,-3,-1,2,7,2021-08-04 12:25:41,299617
-17,39,41,7,2,1,4,-9,2021-08-04 12:25:41,299617
1,-14,-29,-14,-3,0,-1,3,2021-08-04 12:25:41,299617
3,9,74,17,-1,-2,-4,-1,2021-08-04 12:25:41,319617
5,1,-35,-5,-1,1,5,-4,2021-08-04 12:25:41,319617
24,7,53,5,0,1,-6,15,2021-08-04 12:25:41,326579
-8,3,14,1,2,-2,-3,-43,2021-08-04 12:25:41,332560
2,10,-39,-6,-3,0,2,9,2021-08-04 12:25:41,343585
-1,-1,49,3,0,-3,0,-6,2021-08-04 12:25:41,349561
4,2,-77,-21,-3,-2,-9,-3,2021-08-04 12:25:41,349561
18,-1,32,-12,-2,1,2,18,2021-08-04 12:25:41,349561
-2,-5,-11,13,6,3,-2,-27,2021-08-04 12:25:41,356562
-4,-16,6,-4,-6,-4,9,7,2021-08-04 12:25:41,356562
2,-23,-92,-2,-3,-3,-14,-4,2021-08-04 12:25:41,364560
-8,5,9,1,-2,-6,-6,-21,2021-08-04 12:25:41,364560
7,4,33,3,4,4,5,39,2021-08-04 12:25:41,378563
8,-10,27,-16,-5,-2,-7,-18,2021-08-04 12:25:41,383586
-4,-5,66,8,-2,-1,-1,-10,2021-08-04 12:25:41,388595
-3,1,-29,-2,-1,0,0,-15,2021-08-04 12:25:41,388595
-7,11,38,6,2,1,3,-3,2021-08-04 12:25:41,403596
13,-8,-34,-3,-1,0,6,10,2021-08-04 12:25:41,409584
9,16,-7,4,1,-2,0,-13,2021-08-04 12:25:41,409584
-5,-18,4,-6,-4,-2,4,-5,2021-08-04 12:25:41,409584
-1,-15,-16,18,1,-1,-2,-5,2021-08-04 12:25:41,417562
-7,-25,-11,-17,-2,0,2,11,2021-08-04 12:25:41,423596
6,-2,6,4,-1,-1,-9,-21,2021-08-04 12:25:41,430563
0,-27,-38,-12,-5,-2,-2,-5,2021-08-04 12:25:41,430563
-6,35,8,9,3,3,14,-12,2021-08-04 12:25:41,438562
-33,-6,-3,0,-1,-3,5,-4,2021-08-04 12:25:41,438562
-9,6,-16,12,2,2,-1,-4,2021-08-04 12:25:41,445619
-5,-27,-46,-14,-1,-4,5,10,2021-08-04 12:25:41,451597
14,-5,-10,-3,-1,-1,1,10,2021-08-04 12:25:41,461562
-10,-6,-42,0,-2,4,10,-15,2021-08-04 12:25:41,468585
11,10,34,5,1,-2,4,14,2021-08-04 12:25:41,475585
-1,9,-8,10,3,5,2,8,2021-08-04 12:25:41,475585
-18,-4,-10,-14,-4,-2,-1,1,2021-08-04 12:25:41,475585
-1,12,-2,-4,-3,-5,-20,0,2021-08-04 12:25:41,475585
-3,-59,26,-10,-4,-1,14,36,2021-08-04 12:25:41,489562
20,8,4,5,0,-2,-6,12,2021-08-04 12:25:41,489562
-6,-13,-6,3,-3,-3,-3,2,2021-08-04 12:25:41,500563
11,37,34,8,5,3,-8,-5,2021-08-04 12:25:41,506560
-2,-6,-105,-3,-5,-5,-12,-2,2021-08-04 12:25:41,519559
-4,6,79,-3,1,0,-4,-7,2021-08-04 12:25:41,519559
3,13,-2,-12,-5,-2,4,11,2021-08-04 12:25:41,519559
-3,-60,-4,-1,2,3,-4,-15,2021-08-04 12:25:41,519559
4,0,1,6,-1,0,-7,23,2021-08-04 12:25:41,524559
-34,44,-43,15,-3,-3,-5,-6,2021-08-04 12:25:41,524559
0,-6,31,-14,0,-1,6,-3,2021-08-04 12:25:41,536559
18,19,16,11,-3,-4,-12,-34,2021-08-04 12:25:41,536559
-2,-5,14,-12,1,2,7,41,2021-08-04 12:25:41,545559
8,-13,-29,2,-3,0,3,3,2021-08-04 12:25:41,545559
2,0,2,-12,-1,-1,-4,2,2021-08-04 12:25:41,560559
-2,-10,33,9,-1,-3,-1,2,2021-08-04 12:25:41,565560
-5,16,-9,-6,-1,0,5,-18,2021-08-04 12:25:41,565560
-2,-21,47,-5,-2,-3,-2,-2,2021-08-04 12:25:41,565560
4,-3,-56,1,2,-2,-2,0,2021-08-04 12:25:41,582559
-2,-1,10,-16,-3,1,6,21,2021-08-04 12:25:41,582559
-1,-1,57,9,-5,-3,-9,-22,2021-08-04 12:25:41,582559
2,20,76,-3,-4,-2,-1,9,2021-08-04 12:25:41,582559
4,-2,-41,9,3,2,0,-6,2021-08-04 12:25:41,596559
5,-23,-42,-15,-2,-2,0,6,2021-08-04 12:25:41,602559
-23,23,59,9,3,3,0,-23,2021-08-04 12:25:41,608559
-2,7,-46,-3,-1,0,-3,-1,2021-08-04 12:25:41,608559
6,-11,17,4,-1,-1,-2,9,2021-08-04 12:25:41,620559
-5,16,50,11,0,2,3,13,2021-08-04 12:25:41,620559
16,-12,-16,-18,-3,-4,-7,16,2021-08-04 12:25:41,625559
-13,-8,45,6,4,3,2,-24,2021-08-04 12:25:41,625559
-1,10,30,2,5,2,-3,1,2021-08-04 12:25:41,642559
1,-8,42,-2,-4,-3,0,8,2021-08-04 12:25:41,653560
10,13,-56,-29,-2,-3,-1,0,2021-08-04 12:25:41,653560
-9,-10,7,0,1,0,7,5,2021-08-04 12:25:41,653560
-4,-3,8,4,-2,-2,3,-2,2021-08-04 12:25:41,653560
3,8,23,-11,3,0,-1,-8,2021-08-04 12:25:41,653560
-2,-8,-27,13,-1,0,-2,-12,2021-08-04 12:25:41,660561
-1,-4,-12,-22,-4,-2,-7,1,2021-08-04 12:25:41,660561
-2,-2,-30,-21,2,0,-1,-4,2021-08-04 12:25:41,680559
1,5,-27,26,2,0,1,2,2021-08-04 12:25:41,680559
2,2,27,-8,-2,-1,1,18,2021-08-04 12:25:41,685559
10,3,44,0,-6,-4,-4,-22,2021-08-04 12:25:41,685559
-8,-4,37,12,3,2,1,-2,2021-08-04 12:25:41,701559
-1,-4,-48,-22,-3,-4,-4,12,2021-08-04 12:25:41,701559
11,1,25,17,5,2,0,-7,2021-08-04 12:25:41,708559
-22,8,-42,7,0,0,14,-12,2021-08-04 12:25:41,708559
12,-2,-47,-2,-2,-2,-9,-14,2021-08-04 12:25:41,716559
-11,21,26,10,2,2,-13,-32,2021-08-04 12:25:41,722559
-34,44,-14,0,-1,0,9,5,2021-08-04 12:25:41,722559
9,-7,8,-2,0,1,3,33,2021-08-04 12:25:41,722559
-7,-15,-22,-16,-9,-5,-4,-28,2021-08-04 12:25:41,739591
-2,10,-35,9,4,0,-1,17,2021-08-04 12:25:41,739591
15,-18,12,-8,-2,-2,0,-17,2021-08-04 12:25:41,746591
3,15,7,6,-1,-1,-6,35,2021-08-04 12:25:41,746591
1,5,-41,-5,0,1,4,-6,2021-08-04 12:25:41,760592
5,-17,60,-15,-7,-4,1,30,2021-08-04 12:25:41,760592
4,-3,-11,13,3,1,-2,-5,2021-08-04 12:25:41,767591
12,23,26,11,2,3,0,4,2021-08-04 12:25:41,767591
-6,-18,9,14,-1,0,-3,-12,2021-08-04 12:25:41,780594
14,-1,-22,-4,2,2,6,4,2021-08-04 12:25:41,786592
-16,-8,27,8,-3,-2,-6,20,2021-08-04 12:25:41,786592
2,-3,21,0,-3,-3,-15,-21,2021-08-04 12:25:41,786592
16,0,-10,-18,-3,-3,4,17,2021-08-04 12:25:41,798591
16,15,-1,18,2,2,7,14,2021-08-04 12:25:41,798591
7,-7,-6,2,2,-1,-2,18,2021-08-04 12:25:41,806592
3,-15,-18,-2,-2,-1,-7,2,2021-08-04 12:25:41,812592
15,6,14,4,1,1,-4,53,2021-08-04 12:25:41,829592
-34,-6,10,0,-2,-1,10,33,2021-08-04 12:25:41,835591
-39,-15,4,-11,-8,-6,4,-75,2021-08-04 12:25:41,835591
14,-1,-30,-1,-1,-1,-14,7,2021-08-04 12:25:41,835591
0,10,-18,15,1,-2,-3,24,2021-08-04 12:25:41,846591
-11,-7,-60,-11,0,1,-1,-14,2021-08-04 12:25:41,846591
14,20,68,6,-1,0,-8,-5,2021-08-04 12:25:41,846591
-13,-39,-23,-7,-3,-5,-2,-4,2021-08-04 12:25:41,846591
-11,10,49,5,-3,-2,1,-30,2021-08-04 12:25:41,860591
5,-10,-1,3,-2,-2,-5,-31,2021-08-04 12:25:41,860591
12,3,14,8,3,1,3,17,2021-08-04 12:25:41,860591
5,8,-18,-8,-1,1,1,-19,2021-08-04 12:25:41,860591
-5,-1,-43,-1,-2,1,-2,2,2021-08-04 12:25:41,883591
-1,13,86,-6,-7,-6,0,-6,2021-08-04 12:25:41,889591
2,-11,-58,-8,0,0,-4,7,2021-08-04 12:25:41,895591
9,17,-8,4,0,-1,5,-8,2021-08-04 12:25:41,895591
-5,-21,115,8,-1,-1,-3,31,2021-08-04 12:25:41,895591
13,13,-58,-12,-3,-1,-5,-8,2021-08-04 12:25:41,895591
9,-24,-45,1,1,1,5,-4,2021-08-04 12:25:41,904592
-19,4,-74,-3,-2,-1,-4,-40,2021-08-04 12:25:41,904592
0,14,40,18,6,3,0,-10,2021-08-04 12:25:41,919592
-1,-3,40,-9,-3,-5,-7,-8,2021-08-04 12:25:41,926591
19,-3,25,-17,-2,1,-4,6,2021-08-04 12:25:41,926591
10,11,29,26,8,5,2,1,2021-08-04 12:25:41,926591
-3,5,-61,-40,-4,-2,2,-2,2021-08-04 12:25:41,940592
-3,13,-37,22,3,4,4,6,2021-08-04 12:25:41,940592
-1,-15,5,4,-5,-5,-10,-14,2021-08-04 12:25:41,947592
-4,0,-34,-23,-6,-4,17,-3,2021-08-04 12:25:41,947592
-10,24,-26,14,1,2,-1,-39,2021-08-04 12:25:41,966592
2,1,50,14,2,1,3,-9,2021-08-04 12:25:41,972592
1,-13,63,-28,-8,-6,1,-4,2021-08-04 12:25:41,972592
9,1,-52,-19,-5,-1,-2,19,2021-08-04 12:25:41,972592
-25,-20,-5,5,-2,-5,2,0,2021-08-04 12:25:41,979593
10,-9,-128,-6,0,1,2,33,2021-08-04 12:25:41,979593
-4,8,1,32,2,0,-59,-33,2021-08-04 12:25:41,985592
-30,-26,41,-16,-6,-7,16,-4,2021-08-04 12:25:41,985592
17,-15,-24,4,0,0,-3,9,2021-08-04 12:25:42,001593
-4,12,95,-4,-3,0,-5,-8,2021-08-04 12:25:42,001593
-10,4,-19,5,-2,-1,16,34,2021-08-04 12:25:42,009593
11,-8,-47,4,5,3,-11,1,2021-08-04 12:25:42,009593
-6,-9,-26,-17,-5,-2,0,-13,2021-08-04 12:25:42,026626
-3,30,88,9,-2,-3,8,3,2021-08-04 12:25:42,026626
-2,-32,-112,-26,-1,-2,9,-15,2021-08-04 12:25:42,026626
-5,-12,39,-6,-5,-4,-6,62,2021-08-04 12:25:42,026626
-11,9,3,17,9,3,6,-21,2021-08-04 12:25:42,039626
-5,-21,9,-1,-4,-2,-9,-12,2021-08-04 12:25:42,039626
25,12,-13,13,0,4,3,3,2021-08-04 12:25:42,045640
-16,-8,-27,-23,-4,-2,-3,21,2021-08-04 12:25:42,045640
-7,3,13,7,-1,1,63,18,2021-08-04 12:25:42,062651
-1,8,-24,-12,-6,-5,-55,-81,2021-08-04 12:25:42,069653
17,-24,2,-2,2,-2,1,22,2021-08-04 12:25:42,069653
-2,22,5,13,0,0,-17,-27,2021-08-04 12:25:42,069653
21,-10,12,-9,-1,-1,3,25,2021-08-04 12:25:42,085595
-10,-12,1,4,1,1,9,3,2021-08-04 12:25:42,085595
22,23,24,8,-2,2,23,15,2021-08-04 12:25:42,085595
-9,-10,-39,-13,1,-4,-15,-42,2021-08-04 12:25:42,085595
-31,17,102,-5,-1,1,-13,-1,2021-08-04 12:25:42,099596
15,-26,-82,-13,-1,0,20,42,2021-08-04 12:25:42,106595
-3,-1,22,7,0,0,-7,-46,2021-08-04 12:25:42,106595
4,0,32,2,1,1,16,14,2021-08-04 12:25:42,106595
11,-1,-27,-7,-8,-6,-28,9,2021-08-04 12:25:42,121598
-15,-17,44,-14,0,-2,7,16,2021-08-04 12:25:42,127649
-24,13,48,8,1,2,12,2,2021-08-04 12:25:42,127649
7,3,-28,-1,-3,1,1,-5,2021-08-04 12:25:42,127649
-1,-14,-68,-3,1,0,1,4,2021-08-04 12:25:42,145593
2,24,35,9,1,-1,-25,-47,2021-08-04 12:25:42,145593
-7,4,-18,-14,-2,-3,0,14,2021-08-04 12:25:42,145593
16,40,-9,17,4,2,2,22,2021-08-04 12:25:42,145593
-2,-7,52,-15,-7,-3,-15,6,2021-08-04 12:25:42,158593
1,-2,33,21,2,0,16,16,2021-08-04 12:25:42,158593
7,3,13,-18,-5,-4,-8,2,2021-08-04 12:25:42,174632
-22,-4,-34,-11,-4,-1,9,-9,2021-08-04 12:25:42,174632
-3,11,-7,18,4,-2,-30,22,2021-08-04 12:25:42,181632
14,-10,14,-23,-3,0,10,-3,2021-08-04 12:25:42,181632
0,1,16,3,0,0,-2,-3,2021-08-04 12:25:42,188632
-2,-4,-6,5,1,2,5,5,2021-08-04 12:25:42,188632
5,-8,1,-1,0,0,-1,-5,2021-08-04 12:25:42,205632
-13,-13,33,2,-3,-1,15,0,2021-08-04 12:25:42,205632
-12,-6,-120,-9,1,4,4,14,2021-08-04 12:25:42,211632
32,-11,13,-7,-6,-6,-6,-4,2021-08-04 12:25:42,218634
6,3,-42,-8,-1,-2,-2,-27,2021-08-04 12:25:42,218634
11,1,-8,5,2,0,-10,8,2021-08-04 12:25:42,218634
-8,5,-44,24,0,0,11,-7,2021-08-04 12:25:42,227667
25,-20,127,4,-1,-2,-3,1,2021-08-04 12:25:42,227667
-34,-12,-1,-38,-5,-2,-6,-25,2021-08-04 12:25:42,242689
-3,0,4,6,4,1,26,27,2021-08-04 12:25:42,249634
16,-3,41,5,0,-1,-41,3,2021-08-04 12:25:42,249634
-1,0,11,20,4,1,-3,21,2021-08-04 12:25:42,249634
26,2,-15,2,-1,-1,-4,-54,2021-08-04 12:25:42,265664
-10,-11,-35,-4,-4,-2,-1,3,2021-08-04 12:25:42,265664
-12,-30,-25,-8,-1,-2,10,-2,2021-08-04 12:25:42,265664
-2,13,-63,8,-2,2,-2,-10,2021-08-04 12:25:42,265664
-16,0,61,-4,0,0,5,19,2021-08-04 12:25:42,279667
5,7,2,-32,-9,-4,-9,-36,2021-08-04 12:25:42,286667
4,10,5,6,4,2,7,-1,2021-08-04 12:25:42,286667
-6,-4,13,10,2,2,15,1,2021-08-04 12:25:42,286667
-7,12,72,15,-2,-3,6,21,2021-08-04 12:25:42,302669
4,-1,0,2,5,1,-10,15,2021-08-04 12:25:42,309631
-8,10,-5,8,-2,-2,0,3,2021-08-04 12:25:42,309631
-24,-15,-20,-28,0,1,-20,-34,2021-08-04 12:25:42,315665
14,9,-38,26,2,5,30,44,2021-08-04 12:25:42,324629
-3,6,-54,2,1,-2,-49,11,2021-08-04 12:25:42,330629
-6,-3,68,5,0,-4,0,-9,2021-08-04 12:25:42,330629
18,19,101,-15,-5,-3,-1,2,2021-08-04 12:25:42,330629
5,-11,-105,-3,1,0,-12,-23,2021-08-04 12:25:42,338629
4,2,40,43,4,3,12,6,2021-08-04 12:25:42,338629
-31,-7,-35,-42,-4,-2,4,-31,2021-08-04 12:25:42,346629
-77,-12,11,2,4,0,-12,18,2021-08-04 12:25:42,346629
63,-12,-79,-6,-2,-1,20,19,2021-08-04 12:25:42,361629
44,32,-71,11,-1,-1,-19,-28,2021-08-04 12:25:42,361629
-56,-30,82,-19,-6,1,18,-6,2021-08-04 12:25:42,367629
-1,18,-49,17,4,0,37,18,2021-08-04 12:25:42,367629
50,0,10,-13,-4,-6,-26,10,2021-08-04 12:25:42,386630
0,-5,-6,9,1,1,16,-8,2021-08-04 12:25:42,386630
-26,25,-63,16,-3,-4,-6,7,2021-08-04 12:25:42,386630
-23,13,74,0,2,3,12,-20,2021-08-04 12:25:42,386630
-7,-15,-10,-6,-2,-3,-12,-6,2021-08-04 12:25:42,397135
-73,-18,-1,-21,-11,-4,-4,-51,2021-08-04 12:25:42,397135
1,12,65,10,3,2,-7,32,2021-08-04 12:25:42,407135
83,-21,-79,1,1,-1,-14,-45,2021-08-04 12:25:42,407135
-19,15,2,16,4,1,-2,-25,2021-08-04 12:25:42,421135
-6,-19,9,-24,-13,-6,5,20,2021-08-04 12:25:42,421135
28,3,-6,6,2,3,0,-8,2021-08-04 12:25:42,429135
-3,-1,-73,-2,-4,-3,0,33,2021-08-04 12:25:42,429135
-9,4,6,13,4,0,2,-7,2021-08-04 12:25:42,445135
5,-4,31,-29,-2,-1,0,7,2021-08-04 12:25:42,445135
15,-21,-64,-11,-11,-3,2,2,2021-08-04 12:25:42,445135
2,-20,-12,7,2,-2,-3,1,2021-08-04 12:25:42,445135
-25,11,35,11,1,-1,-5,-1,2021-08-04 12:25:42,458135
2,3,-16,14,0,-1,9,14,2021-08-04 12:25:42,458135
15,5,34,-22,7,2,0,-5,2021-08-04 12:25:42,467135
-12,-9,18,3,0,-1,-6,-4,2021-08-04 12:25:42,467135
-19,4,85,-39,-7,-4,-5,-17,2021-08-04 12:25:42,481135
7,-9,-71,-14,-7,-2,1,10,2021-08-04 12:25:42,488135
6,-14,-4,-3,-2,-1,0,-25,2021-08-04 12:25:42,488135
3,-21,-5,-34,-3,-5,-11,3,2021-08-04 12:25:42,488135
-4,0,-20,6,-1,1,5,-1,2021-08-04 12:25:42,504135
11,10,58,30,4,2,5,7,2021-08-04 12:25:42,504135
0,-8,-34,12,-2,-1,0,8,2021-08-04 12:25:42,504135
-5,-13,-17,-39,-3,-4,-3,-12,2021-08-04 12:25:42,504135
2,-2,6,21,0,2,2,-2,2021-08-04 12:25:42,519135
-7,-10,-21,-7,0,0,-5,-9,2021-08-04 12:25:42,519135
6,4,32,12,3,0,1,-23,2021-08-04 12:25:42,526135
-33,12,25,34,3,2,1,2,2021-08-04 12:25:42,526135
4,-4,-45,-21,0,0,10,5,2021-08-04 12:25:42,542135
1,3,4,5,2,0,-9,14,2021-08-04 12:25:42,549135
-8,-5,19,-15,-5,-3,41,-4,2021-08-04 12:25:42,549135
3,18,-21,3,0,-4,-34,-21,2021-08-04 12:25:42,549135
18,-15,24,10,-2,0,5,29,2021-08-04 12:25:42,559135
-35,-1,7,-5,1,1,4,-20,2021-08-04 12:25:42,559135
8,2,12,-17,0,-2,-10,66,2021-08-04 12:25:42,572135
10,2,-12,-2,0,2,14,-28,2021-08-04 12:25:42,578135
2,8,-95,7,1,2,-1,-1,2021-08-04 12:25:42,578135
19,-6,68,15,-1,-2,-5,-16,2021-08-04 12:25:42,578135
2,-6,-43,-17,-6,-4,-6,18,2021-08-04 12:25:42,587135
-7,13,-61,21,1,1,4,13,2021-08-04 12:25:42,587135
9,-15,37,-3,3,4,-9,-7,2021-08-04 12:25:42,602135
3,10,3,-23,-5,-1,8,10,2021-08-04 12:25:42,602135
-5,7,16,16,2,0,-16,-12,2021-08-04 12:25:42,609134
-3,6,34,8,-1,-2,3,10,2021-08-04 12:25:42,609134
-4,-7,-22,-18,-3,-2,-1,-10,2021-08-04 12:25:42,625135
-3,-9,37,7,1,0,5,-5,2021-08-04 12:25:42,625135
18,-2,-85,4,-1,-1,-8,23,2021-08-04 12:25:42,625135
1,3,0,-26,0,2,0,-15,2021-08-04 12:25:42,625135
-34,13,55,22,1,0,8,-8,2021-08-04 12:25:42,639135
10,-4,-11,1,-4,-2,-30,-14,2021-08-04 12:25:42,646135
4,15,-60,-13,3,-1,-7,15,2021-08-04 12:25:42,646135
8,-8,64,7,-3,-1,-8,-1,2021-08-04 12:25:42,646135
-39,4,-75,3,-2,-2,15,-3,2021-08-04 12:25:42,662135
2,3,63,-13,-2,-3,-3,17,2021-08-04 12:25:42,662135
-6,5,9,24,3,2,6,-23,2021-08-04 12:25:42,670134
27,0,-23,15,2,1,-3,11,2021-08-04 12:25:42,670134
6,-4,17,-17,-3,1,-7,2,2021-08-04 12:25:42,684134
5,18,4,19,-2,-2,6,6,2021-08-04 12:25:42,684134
-1,5,24,-11,0,1,-1,-3,2021-08-04 12:25:42,697135
2,2,34,-1,-4,-3,6,16,2021-08-04 12:25:42,697135
5,-9,85,1,-2,-6,-14,-10,2021-08-04 12:25:42,697135
-22,-7,-73,-16,4,6,16,15,2021-08-04 12:25:42,697135
10,-5,118,-10,-9,-8,-7,-32,2021-08-04 12:25:42,707135
-14,-2,-58,0,3,0,-3,7,2021-08-04 12:25:42,707135
12,8,8,12,0,1,-1,-16,2021-08-04 12:25:42,723134
3,-1,24,1,1,1,-1,12,2021-08-04 12:25:42,723134
1,0,-30,-5,-4,-1,1,1,2021-08-04 12:25:42,730135
-13,-10,-51,4,-1,-2,-3,2,2021-08-04 12:25:42,730135
-12,2,-21,-2,-5,-4,-14,2,2021-08-04 12:25:42,745169
16,-7,-20,23,4,1,11,-8,2021-08-04 12:25:42,751137
18,-3,-11,-19,-2,1,-3,17,2021-08-04 12:25:42,756192
-19,13,-1,7,0,1,2,-21,2021-08-04 12:25:42,756192
7,-14,-29,11,2,3,-1,9,2021-08-04 12:25:42,756192
7,15,33,-7,-1,-4,3,9,2021-08-04 12:25:42,756192
-5,-15,22,7,-1,-3,-3,10,2021-08-04 12:25:42,768135
4,1,-59,-17,0,2,4,7,2021-08-04 12:25:42,768135
-7,-2,39,3,2,0,7,-5,2021-08-04 12:25:42,782196
10,-10,15,-10,-6,-3,-23,10,2021-08-04 12:25:42,782196
-20,-2,-17,13,3,3,2,-10,2021-08-04 12:25:42,789199
3,2,17,8,0,2,7,2,2021-08-04 12:25:42,789199
-3,-3,-13,-32,-5,-2,-8,-1,2021-08-04 12:25:42,805194
9,-7,-89,-12,-2,-1,8,-5,2021-08-04 12:25:42,805194
-2,12,33,0,-2,-4,-2,1,2021-08-04 12:25:42,812194
-1,-2,12,3,3,3,1,12,2021-08-04 12:25:42,812194
-20,-6,53,-2,-6,-2,1,-9,2021-08-04 12:25:42,819194
3,-8,-8,-4,-3,-2,-1,-8,2021-08-04 12:25:42,825193
8,8,19,15,2,-1,1,-11,2021-08-04 12:25:42,825193
-14,-1,33,1,0,1,6,32,2021-08-04 12:25:42,825193
8,14,12,0,-1,1,0,-11,2021-08-04 12:25:42,843163
1,-9,5,2,-3,-4,9,18,2021-08-04 12:25:42,843163
-30,-6,24,-20,1,0,-4,-10,2021-08-04 12:25:42,843163
12,5,-41,15,-5,-1,0,8,2021-08-04 12:25:42,843163
5,10,14,-7,-1,-3,-2,-3,2021-08-04 12:25:42,865161
-4,-2,7,3,-3,-1,-4,-9,2021-08-04 12:25:42,865161
11,6,-9,18,7,3,4,-3,2021-08-04 12:25:42,871165
1,-1,-19,-8,-1,-1,-2,0,2021-08-04 12:25:42,871165
-4,12,24,-7,-3,-1,-23,7,2021-08-04 12:25:42,887138
4,5,10,9,1,2,9,-31,2021-08-04 12:25:42,887138
-16,-7,-35,4,-1,-1,-4,2,2021-08-04 12:25:42,887138
-3,2,77,-7,0,-2,-4,-57,2021-08-04 12:25:42,887138
8,-6,9,16,0,-1,-4,2,2021-08-04 12:25:42,903138
-10,-10,-19,-23,-1,-1,2,6,2021-08-04 12:25:42,903138
9,3,-19,3,-3,-2,-2,3,2021-08-04 12:25:42,903138
-3,0,-27,11,6,2,-2,-9,2021-08-04 12:25:42,903138
0,-9,-38,-17,-2,-1,5,20,2021-08-04 12:25:42,925164
-4,2,23,25,-1,-3,-2,-7,2021-08-04 12:25:42,925164
0,-1,49,-1,0,0,17,-9,2021-08-04 12:25:42,931161
-4,-9,-16,-9,-1,-2,-19,3,2021-08-04 12:25:42,931161
19,7,-46,12,-1,1,-1,5,2021-08-04 12:25:42,947171
-2,-7,6,-10,0,-2,2,33,2021-08-04 12:25:42,947171
11,7,22,-2,-1,3,2,-23,2021-08-04 12:25:42,947171
4,-8,12,-2,-2,0,4,17,2021-08-04 12:25:42,947171
-22,-4,23,17,1,1,5,-11,2021-08-04 12:25:42,963138
1,5,23,-27,-4,-4,-39,-19,2021-08-04 12:25:42,968139
15,3,0,21,0,-1,17,3,2021-08-04 12:25:42,968139
1,-9,9,-12,-3,-3,0,14,2021-08-04 12:25:42,968139
5,-2,6,7,0,2,1,0,2021-08-04 12:25:42,984140
-6,-8,40,-4,-4,-2,1,-23,2021-08-04 12:25:42,990140
-10,1,1,1,-1,-3,-13,11,2021-08-04 12:25:43,004140
2,-2,-39,-6,-2,1,-1,-1,2021-08-04 12:25:43,004140
4,0,12,-5,0,0,5,14,2021-08-04 12:25:43,004140
-11,0,-21,9,2,-1,6,-33,2021-08-04 12:25:43,004140
24,0,-54,-9,-4,-1,-10,12,2021-08-04 12:25:43,004140
-1,-3,39,-13,-2,-3,4,9,2021-08-04 12:25:43,004140
6,-5,-80,9,1,0,-1,-1,2021-08-04 12:25:43,023140
-12,2,-11,14,-1,-1,6,12,2021-08-04 12:25:43,023140
8,0,19,-18,2,3,8,-6,2021-08-04 12:25:43,023140
-34,-3,-1,9,-4,-2,-40,-34,2021-08-04 12:25:43,023140
16,-8,19,-8,-3,-4,7,41,2021-08-04 12:25:43,045137
9,2,-87,3,1,-1,9,4,2021-08-04 12:25:43,045137
0,-1,-4,3,0,0,3,-1,2021-08-04 12:25:43,069185
6,0,23,4,0,1,9,-7,2021-08-04 12:25:43,075140
-6,0,-1,-24,-1,0,-7,1,2021-08-04 12:25:43,075140
-1,1,-8,9,-3,1,0,15,2021-08-04 12:25:43,075140
-10,3,12,0,-2,-2,0,-6,2021-08-04 12:25:43,075140
8,-7,-63,-22,-2,0,10,13,2021-08-04 12:25:43,075140
-15,-4,29,2,-2,-4,-8,-32,2021-08-04 12:25:43,083140
7,9,31,3,1,2,-2,5,2021-08-04 12:25:43,090136
-12,-9,-46,-3,-1,0,-7,-12,2021-08-04 12:25:43,096136
2,3,41,6,-1,-1,0,38,2021-08-04 12:25:43,096136
4,5,-12,7,-1,0,3,-43,2021-08-04 12:25:43,106136
3,-2,41,-8,-1,-1,-1,4,2021-08-04 12:25:43,112136
-9,-3,18,-6,-1,-3,-6,5,2021-08-04 12:25:43,118136
0,-6,-12,-4,0,0,2,-16,2021-08-04 12:25:43,124137
11,2,17,-2,0,0,2,4,2021-08-04 12:25:43,124137
6,-6,-80,2,0,-1,3,-3,2021-08-04 12:25:43,124137
-4,7,49,7,0,1,-6,4,2021-08-04 12:25:43,124137
8,0,-16,8,1,0,6,-21,2021-08-04 12:25:43,124137
2,-6,5,-45,-9,-4,6,19,2021-08-04 12:25:43,141140
-3,2,-17,9,-1,-1,-8,-7,2021-08-04 12:25:43,141140
1,2,-1,7,1,0,-1,28,2021-08-04 12:25:43,163140
7,-2,30,1,0,0,6,-29,2021-08-04 12:25:43,163140
-5,2,31,9,2,-1,-2,-4,2021-08-04 12:25:43,163140
-4,-4,-50,-8,0,1,0,4,2021-08-04 12:25:43,163140
-7,-5,29,-7,-3,-3,1,-11,2021-08-04 12:25:43,168173
2,-3,10,-8,-3,-4,-1,-2,2021-08-04 12:25:43,168173
-24,3,11,16,3,2,2,-18,2021-08-04 12:25:43,189137
-3,-6,-4,-24,-3,-5,-5,-7,2021-08-04 12:25:43,195175
0,-1,1,15,1,1,-7,-10,2021-08-04 12:25:43,195175
-1,7,33,14,0,1,2,9,2021-08-04 12:25:43,195175
-4,-7,-36,-10,-3,-2,-2,0,2021-08-04 12:25:43,202138
8,4,31,9,0,-1,1,21,2021-08-04 12:25:43,202138
-15,-8,-18,-7,-1,-1,-1,-32,2021-08-04 12:25:43,214172
-1,0,2,-11,-2,-2,4,9,2021-08-04 12:25:43,214172
8,6,3,3,0,-1,-7,2,2021-08-04 12:25:43,224174
-1,-5,47,11,-1,-2,1,13,2021-08-04 12:25:43,224174
0,13,-77,-5,-1,-4,-3,-15,2021-08-04 12:25:43,230174
-5,-7,-9,-16,-3,-3,-1,-1,2021-08-04 12:25:43,230174
1,0,60,8,3,0,0,-2,2021-08-04 12:25:43,249138
4,23,-62,-31,-3,2,4,-7,2021-08-04 12:25:43,255173
-20,-5,10,7,-1,-3,-6,1,2021-08-04 12:25:43,262172
-1,-2,-10,7,0,0,-3,2,2021-08-04 12:25:43,262172
8,-3,-34,-11,0,0,0,-15,2021-08-04 12:25:43,262172
-6,1,30,0,0,-1,2,-4,2021-08-04 12:25:43,262172
3,-11,-7,6,-3,-1,1,4,2021-08-04 12:25:43,270173
13,18,-47,29,4,3,0,5,2021-08-04 12:25:43,270173
-32,-11,-56,-43,-4,-4,1,14,2021-08-04 12:25:43,285137
6,-5,7,-7,0,0,-5,-35,2021-08-04 12:25:43,285137
8,-2,-20,-1,0,2,2,8,2021-08-04 12:25:43,292140
-4,-16,95,16,-1,-1,6,-1,2021-08-04 12:25:43,292140
11,-4,-47,-1,-7,-5,-4,-2,2021-08-04 12:25:43,307170
4,20,16,10,3,0,-13,5,2021-08-04 12:25:43,307170
-6,4,-10,-23,-1,0,0,11,2021-08-04 12:25:43,307170
-3,-5,-9,-15,-5,-1,-1,-1,2021-08-04 12:25:43,307170
4,2,85,21,-1,-3,2,-5,2021-08-04 12:25:43,330138
0,0,-28,-21,0,0,6,-16,2021-08-04 12:25:43,330138
14,-4,-23,0,2,0,-2,30,2021-08-04 12:25:43,330138
-34,13,-7,-9,1,0,-1,27,2021-08-04 12:25:43,330138
5,-1,-33,1,-1,-2,-8,-47,2021-08-04 12:25:43,345172
-2,-12,35,7,-1,0,2,-3,2021-08-04 12:25:43,345172
3,9,21,1,1,-1,0,-2,2021-08-04 12:25:43,352155
5,0,-69,-20,-3,1,1,-2,2021-08-04 12:25:43,352155
1,2,-1,7,2,-2,-1,14,2021-08-04 12:25:43,367181
-11,-9,30,-3,-3,-1,3,15,2021-08-04 12:25:43,367181
1,-2,-25,17,-1,-1,1,-5,2021-08-04 12:25:43,367181
-2,-9,-6,-27,-3,-3,-2,-2,2021-08-04 12:25:43,367181
2,-10,61,-2,-5,1,-4,4,2021-08-04 12:25:43,389180
8,27,39,20,4,0,0,9,2021-08-04 12:25:43,389180
-11,-18,-56,-3,0,3,-1,4,2021-08-04 12:25:43,389180
3,-1,82,-6,-3,-4,-1,-10,2021-08-04 12:25:43,389180
4,0,-40,10,3,0,2,8,2021-08-04 12:25:43,411146
-1,-13,-1,-4,0,1,5,10,2021-08-04 12:25:43,411146
11,-1,-10,4,-2,-3,-26,-1,2021-08-04 12:25:43,411146
-6,6,-6,4,1,2,37,19,2021-08-04 12:25:43,411146
4,2,18,-2,0,1,-14,3,2021-08-04 12:25:43,426180
-6,-5,-29,-3,-2,-3,-1,7,2021-08-04 12:25:43,426180
14,8,34,5,2,0,-5,-23,2021-08-04 12:25:43,426180
-4,-18,38,14,-3,-1,1,30,2021-08-04 12:25:43,426180
1,6,-22,-19,-3,-2,2,-4,2021-08-04 12:25:43,449182
0,-9,-2,11,4,-1,4,-6,2021-08-04 12:25:43,449182
-4,-9,39,-1,-2,-2,-2,4,2021-08-04 12:25:43,449182
2,-4,-29,-15,-3,-1,-15,-31,2021-08-04 12:25:43,449182
-1,7,10,6,2,3,7,13,2021-08-04 12:25:43,465171
-2,2,-9,1,-4,-1,-4,0,2021-08-04 12:25:43,465171
-12,-9,-9,-9,-5,-6,5,-9,2021-08-04 12:25:43,471171
8,11,68,14,3,1,-5,-7,2021-08-04 12:25:43,471171
-2,-9,-5,-1,-4,-1,-8,-7,2021-08-04 12:25:43,488143
13,1,14,-12,-1,0,6,15,2021-08-04 12:25:43,488143
0,5,-70,-7,-1,1,-6,16,2021-08-04 12:25:43,488143
3,9,26,5,2,-1,27,3,2021-08-04 12:25:43,488143
4,-8,14,-4,0,4,8,-16,2021-08-04 12:25:43,510143
8,-6,-4,3,-3,-7,-31,30,2021-08-04 12:25:43,516143
-1,14,29,10,1,4,-32,2,2021-08-04 12:25:43,516143
-1,3,-85,-25,-3,-4,43,7,2021-08-04 12:25:43,516143
23,-7,20,-3,-2,4,-14,5,2021-08-04 12:25:43,524143
-29,-1,21,20,-1,-2,15,4,2021-08-04 12:25:43,530143
3,-5,44,-4,-2,-4,-12,-10,2021-08-04 12:25:43,530143
2,-6,-71,4,2,2,-5,-4,2021-08-04 12:25:43,530143
3,3,18,7,-1,-1,25,-6,2021-08-04 12:25:43,546143
0,-13,-24,-7,2,1,-1,-6,2021-08-04 12:25:43,552143
-14,-7,-8,16,-3,-3,12,-18,2021-08-04 12:25:43,552143
5,-7,38,-26,-1,1,-32,-4,2021-08-04 12:25:43,552143
-9,2,-23,0,-5,-6,1,-20,2021-08-04 12:25:43,571144
7,8,-5,-2,3,2,-9,-3,2021-08-04 12:25:43,571144
-29,4,44,0,-1,0,23,-6,2021-08-04 12:25:43,571144
7,-6,26,18,2,0,-13,5,2021-08-04 12:25:43,571144
-10,7,-43,1,0,-1,-10,11,2021-08-04 12:25:43,584145
-3,12,-19,-10,-3,-2,7,-7,2021-08-04 12:25:43,584145
8,7,1,4,2,2,7,5,2021-08-04 12:25:43,592143
-2,0,19,-4,-3,-4,-29,-19,2021-08-04 12:25:43,592143
1,-7,19,-5,-2,-2,-11,-2,2021-08-04 12:25:43,608143
-1,-9,-4,-2,-4,-1,20,5,2021-08-04 12:25:43,608143
5,-4,-12,-4,1,0,7,-18,2021-08-04 12:25:43,608143
-3,-1,-24,-5,-2,-1,-11,14,2021-08-04 12:25:43,608143
6,0,-6,12,1,4,-6,3,2021-08-04 12:25:43,622143
6,4,8,5,-1,-1,-5,6,2021-08-04 12:25:43,622143
7,-3,-11,-38,-5,-3,6,-9,2021-08-04 12:25:43,628144
-3,-2,-5,31,-1,-3,-10,-6,2021-08-04 12:25:43,628144
-4,2,19,15,-4,-4,-7,5,2021-08-04 12:25:43,650144
-12,-15,-13,-27,4,0,4,0,2021-08-04 12:25:43,650144
6,-12,24,3,-2,-2,-10,0,2021-08-04 12:25:43,650144
-3,-4,10,-7,-1,0,2,-9,2021-08-04 12:25:43,650144
3,2,19,5,0,-3,-11,18,2021-08-04 12:25:43,676143
-4,-2,-12,17,-6,-3,-2,-19,2021-08-04 12:25:43,676143
-3,-4,7,-8,0,-1,24,-3,2021-08-04 12:25:43,676143
-2,6,-37,-30,1,3,2,2,2021-08-04 12:25:43,676143
-8,-23,9,9,1,-1,-2,-18,2021-08-04 12:25:43,683143
-9,-12,-24,-1,-2,-3,12,-6,2021-08-04 12:25:43,683143
8,-1,1,5,3,2,6,-11,2021-08-04 12:25:43,683143
-30,2,21,17,0,-1,9,-39,2021-08-04 12:25:43,683143
16,2,-34,-30,-1,-4,20,69,2021-08-04 12:25:43,705145
-11,0,35,13,-9,-5,-20,-40,2021-08-04 12:25:43,705145
1,4,-15,-5,-1,-2,12,12,2021-08-04 12:25:43,710146
9,13,-27,9,0,1,-10,-3,2021-08-04 12:25:43,710146
-1,6,54,15,4,2,4,-14,2021-08-04 12:25:43,728145
-6,7,-25,-6,-1,1,8,0,2021-08-04 12:25:43,733145
17,-9,-116,-9,-1,1,-15,27,2021-08-04 12:25:43,739145
3,-8,94,-1,-2,-3,-5,-25,2021-08-04 12:25:43,739145
-4,0,-64,-4,-2,-2,-3,18,2021-08-04 12:25:43,750147
10,-6,72,-6,-1,-2,-1,10,2021-08-04 12:25:43,750147
1,1,-6,13,3,3,1,2,2021-08-04 12:25:43,750147
-33,-7,-29,-4,-4,-2,-7,51,2021-08-04 12:25:43,750147
13,9,-13,8,0,1,15,-7,2021-08-04 12:25:43,759146
-15,2,-7,-23,-1,0,-13,-29,2021-08-04 12:25:43,759146
1,-2,45,10,1,-2,-1,-3,2021-08-04 12:25:43,771143
-3,-10,-20,16,-2,1,-2,7,2021-08-04 12:25:43,771143
-2,-2,-46,-9,-6,-4,-18,-18,2021-08-04 12:25:43,787147
-1,3,-6,-1,-2,0,-3,-16,2021-08-04 12:25:43,787147
-6,4,17,-20,2,0,-4,2,2021-08-04 12:25:43,794147
35,4,44,11,-2,-3,-3,10,2021-08-04 12:25:43,794147
-13,-2,23,9,-4,-2,3,-26,2021-08-04 12:25:43,811145
3,8,-38,11,6,3,1,0,2021-08-04 12:25:43,811145
-12,13,-58,-34,-1,2,-1,5,2021-08-04 12:25:43,811145
8,2,47,13,-3,-2,2,2,2021-08-04 12:25:43,811145
-4,12,-15,-4,-3,-2,5,0,2021-08-04 12:25:43,823146
9,-1,-32,16,3,0,-4,14,2021-08-04 12:25:43,823146
-6,-1,-24,-22,-3,-1,-1,-2,2021-08-04 12:25:43,831145
-1,1,-14,38,5,1,-1,-5,2021-08-04 12:25:43,831145
2,9,-51,-38,-10,-6,-6,-5,2021-08-04 12:25:43,850678
0,6,4,-12,3,1,-14,4,2021-08-04 12:25:43,850678
1,16,18,26,3,2,18,5,2021-08-04 12:25:43,850678
15,-10,-60,-17,-3,-3,-31,-3,2021-08-04 12:25:43,850678
4,5,45,6,5,2,9,-2,2021-08-04 12:25:43,869228
3,-14,36,-3,-9,-4,-15,29,2021-08-04 12:25:43,869228
-19,-8,-27,-17,-1,-1,13,8,2021-08-04 12:25:43,869228
23,5,19,-5,2,1,17,3,2021-08-04 12:25:43,869228
-17,-5,-28,-8,-1,-1,-8,4,2021-08-04 12:25:43,883227
-3,-13,11,2,3,0,-8,-19,2021-08-04 12:25:43,883227
-1,2,23,19,-2,-1,-6,4,2021-08-04 12:25:43,892193
-10,-17,0,-3,-2,-2,6,-5,2021-08-04 12:25:43,892193
-6,-19,47,-1,0,0,-5,13,2021-08-04 12:25:43,905194
4,-9,-4,-6,-3,-3,13,-6,2021-08-04 12:25:43,905194
-4,3,-3,30,1,0,-13,-6,2021-08-04 12:25:43,913194
-5,-13,0,-25,-2,-2,3,-7,2021-08-04 12:25:43,913194
-2,2,35,-27,-7,-3,2,-4,2021-08-04 12:25:43,930193
2,-1,-70,0,0,1,-13,11,2021-08-04 12:25:43,930193
-1,-2,127,24,0,-2,3,-23,2021-08-04 12:25:43,930193
14,13,9,-13,0,-1,-24,22,2021-08-04 12:25:43,930193
9,4,43,34,2,1,24,-3,2021-08-04 12:25:43,946195
-1,12,-8,-3,1,1,7,6,2021-08-04 12:25:43,946195
-3,-9,-72,-22,-1,-1,-11,-5,2021-08-04 12:25:43,946195
-11,-2,-12,17,-4,-3,0,-11,2021-08-04 12:25:43,946195
2,6,65,6,1,2,17,3,2021-08-04 12:25:43,968193
2,-1,11,-2,1,-2,4,2,2021-08-04 12:25:43,968193
3,1,3,9,0,-2,-2,3,2021-08-04 12:25:43,968193
-8,7,87,-3,-3,0,-3,-6,2021-08-04 12:25:43,968193
1,3,23,2,-3,-3,-2,6,2021-08-04 12:25:43,989197
-7,2,-12,3,-1,-2,3,-3,2021-08-04 12:25:44,001197
3,-10,-16,9,-4,-2,-12,-1,2021-08-04 12:25:44,001197
2,6,-22,6,1,2,21,-4,2021-08-04 12:25:44,001197
-4,-9,31,-3,-1,0,-11,-4,2021-08-04 12:25:44,001197
6,9,38,10,1,0,3,0,2021-08-04 12:25:44,001197
-5,-2,3,-17,-3,-2,1,10,2021-08-04 12:25:44,011191
13,1,-28,-1,-3,-2,-3,-15,2021-08-04 12:25:44,011191
-35,-5,33,7,-2,-1,-9,-10,2021-08-04 12:25:44,027191
-2,-22,-86,-6,-2,0,1,-9,2021-08-04 12:25:44,032191
-2,-2,-31,-10,4,1,-11,24,2021-08-04 12:25:44,032191
-13,-7,95,-21,-5,-1,10,3,2021-08-04 12:25:44,032191
29,-1,-14,2,0,-2,-3,-15,2021-08-04 12:25:44,049193
-31,-8,-50,33,-7,-6,3,-1,2021-08-04 12:25:44,049193
4,2,7,-45,-2,0,43,-2,2021-08-04 12:25:44,049193
10,7,-51,3,3,0,-24,15,2021-08-04 12:25:44,049193
4,-9,40,15,-4,-3,13,-7,2021-08-04 12:25:44,062194
-2,-7,-20,-48,-1,-1,-10,12,2021-08-04 12:25:44,062194
18,1,-11,47,2,2,0,-2,2021-08-04 12:25:44,072191
-16,-8,-41,-6,-8,-3,7,-2,2021-08-04 12:25:44,072191
-3,-2,-11,31,5,3,4,13,2021-08-04 12:25:44,085196
26,10,88,-6,-2,-1,-5,-8,2021-08-04 12:25:44,085196
-7,2,-22,3,-9,-5,-14,-17,2021-08-04 12:25:44,095227
4,-3,11,20,5,2,2,2,2021-08-04 12:25:44,095227
-6,-4,13,-30,-5,-2,-17,9,2021-08-04 12:25:44,109198
14,3,13,3,2,1,14,-16,2021-08-04 12:25:44,109198
-21,1,-10,-39,3,1,-12,5,2021-08-04 12:25:44,109198
1,3,0,16,1,1,4,-5,2021-08-04 12:25:44,109198
0,-10,-8,-44,-5,-4,0,-3,2021-08-04 12:25:44,124195
0,11,6,4,-1,-3,-5,24,2021-08-04 12:25:44,124195
3,-4,50,-4,-4,-1,-3,-1,2021-08-04 12:25:44,131194
-8,3,-37,7,0,-2,0,-2,2021-08-04 12:25:44,138229
-1,-8,-4,-13,-6,-3,-7,-10,2021-08-04 12:25:44,146194
-7,-7,55,0,0,-1,-1,4,2021-08-04 12:25:44,146194
-5,-2,-58,8,1,-2,-9,-7,2021-08-04 12:25:44,154229
0,3,37,-3,-2,-1,6,-5,2021-08-04 12:25:44,154229
1,11,-66,4,0,-1,-8,0,2021-08-04 12:25:44,170193
-4,-1,12,-9,-2,-3,-1,-17,2021-08-04 12:25:44,170193
-2,-4,-14,17,-1,0,3,-5,2021-08-04 12:25:44,170193
1,-6,19,-14,-1,-1,-1,-4,2021-08-04 12:25:44,170193
-5,-1,-52,-11,1,1,-1,3,2021-08-04 12:25:44,183233
-5,-1,32,4,3,3,2,-4,2021-08-04 12:25:44,183233
7,-10,-29,8,-2,-1,-5,-2,2021-08-04 12:25:44,190230
-20,-3,17,-13,-3,-1,-1,4,2021-08-04 12:25:44,190230
2,3,15,20,-1,-2,-6,1,2021-08-04 12:25:44,207196
2,3,-18,4,1,1,5,-1,2021-08-04 12:25:44,219196
-12,-14,13,-4,1,1,-1,-14,2021-08-04 12:25:44,226198
11,5,-31,-10,-2,-3,-1,46,2021-08-04 12:25:44,226198
-1,-6,41,10,-4,-5,-2,-25,2021-08-04 12:25:44,226198
-3,-1,8,0,6,2,2,13,2021-08-04 12:25:44,226198
1,-1,-20,-4,-3,1,2,-2,2021-08-04 12:25:44,226198
0,-1,24,-4,-7,-7,-11,5,2021-08-04 12:25:44,226198
-3,1,16,0,0,0,-2,-56,2021-08-04 12:25:44,243195
6,8,-25,3,-1,1,-1,23,2021-08-04 12:25:44,250194
2,10,4,9,3,1,-2,-4,2021-08-04 12:25:44,250194
-1,-10,-1,-6,-1,-3,0,-14,2021-08-04 12:25:44,250194
2,8,-13,-17,3,1,-1,21,2021-08-04 12:25:44,267226
-8,-17,-33,5,-6,-3,-3,-14,2021-08-04 12:25:44,273196
-6,-6,-23,1,-4,-4,-4,3,2021-08-04 12:25:44,273196
3,-11,-53,-14,-2,0,1,-16,2021-08-04 12:25:44,273196
5,-8,22,27,1,-4,-2,21,2021-08-04 12:25:44,288226
1,17,-5,-24,-3,0,2,-1,2021-08-04 12:25:44,294227
-1,5,12,-2,3,1,0,9,2021-08-04 12:25:44,300228
7,11,19,11,1,1,2,-8,2021-08-04 12:25:44,306193
-1,-18,-25,-2,-3,0,0,-6,2021-08-04 12:25:44,306193
3,21,-65,1,-4,-4,-1,0,2021-08-04 12:25:44,306193
-16,-7,7,-12,0,-2,-1,-1,2021-08-04 12:25:44,306193
7,20,100,26,1,-1,0,-9,2021-08-04 12:25:44,306193
-4,-13,-97,-25,-5,-2,0,10,2021-08-04 12:25:44,326226
1,7,55,19,-1,-3,-2,-3,2021-08-04 12:25:44,332193
5,11,25,11,1,1,0,-7,2021-08-04 12:25:44,338227
15,8,-50,-6,2,-2,-2,-46,2021-08-04 12:25:44,344227
6,20,25,10,-1,2,1,20,2021-08-04 12:25:44,344227
-18,-20,-39,-13,0,0,-4,-16,2021-08-04 12:25:44,344227
2,18,-17,7,4,-1,-1,-17,2021-08-04 12:25:44,351193
-3,-12,87,-6,-4,-1,-1,20,2021-08-04 12:25:44,351193
4,6,-14,10,-4,-3,-2,4,2021-08-04 12:25:44,364228
-7,-4,5,-11,0,1,1,-16,2021-08-04 12:25:44,364228
-7,21,62,7,4,6,3,5,2021-08-04 12:25:44,378231
-5,-14,-69,-8,-3,-4,-1,2,2021-08-04 12:25:44,378231
6,-8,-8,1,-1,-2,-2,4,2021-08-04 12:25:44,393194
-10,5,45,-5,-1,0,21,10,2021-08-04 12:25:44,393194
5,-17,-20,0,0,-3,-33,3,2021-08-04 12:25:44,393194
2,12,37,6,4,3,5,2,2021-08-04 12:25:44,393194
-36,-9,-16,-9,-3,-2,-1,-3,2021-08-04 12:25:44,409194
7,-2,-56,-9,-4,-3,-4,-5,2021-08-04 12:25:44,409194
14,-5,17,9,-1,-2,12,3,2021-08-04 12:25:44,409194
-28,0,1,-6,0,1,0,-5,2021-08-04 12:25:44,409194
20,-4,-19,-8,-5,-2,1,-1,2021-08-04 12:25:44,425194
1,2,16,16,1,0,-9,-6,2021-08-04 12:25:44,425194
1,-5,-45,1,1,1,2,7,2021-08-04 12:25:44,432194
5,3,-5,-8,-1,2,-14,-1,2021-08-04 12:25:44,439201
1,4,48,-1,-1,0,13,3,2021-08-04 12:25:44,446194
8,10,3,5,0,-1,-3,23,2021-08-04 12:25:44,446194
4,-4,11,-10,-3,1,-1,11,2021-08-04 12:25:44,454202
1,-8,-15,15,0,0,2,0,2021-08-04 12:25:44,454202
-3,-9,17,-23,-5,-3,-6,-4,2021-08-04 12:25:44,470203
-3,-7,42,12,-1,-1,-4,-4,2021-08-04 12:25:44,476202
-4,8,-31,2,2,0,2,-6,2021-08-04 12:25:44,476202
2,4,17,0,1,0,-1,3,2021-08-04 12:25:44,476202
-2,1,52,-1,-2,-2,-4,5,2021-08-04 12:25:44,484202
3,-4,66,0,-3,-2,-1,-5,2021-08-04 12:25:44,490202
-18,-5,-27,1,2,1,3,6,2021-08-04 12:25:44,501202
7,-4,-26,3,-3,-3,0,-9,2021-08-04 12:25:44,501202
1,2,26,7,2,1,-2,0,2021-08-04 12:25:44,508200
-3,-7,-23,10,1,-1,-1,-4,2021-08-04 12:25:44,508200
-4,12,6,-33,-6,-4,-2,-3,2021-08-04 12:25:44,508200
5,-20,-37,5,-2,-2,-1,-1,2021-08-04 12:25:44,508200
10,13,14,-10,0,1,0,13,2021-08-04 12:25:44,525200
-46,-9,-47,2,1,1,-5,-47,2021-08-04 12:25:44,525200
4,27,24,9,-3,2,5,26,2021-08-04 12:25:44,525200
-3,-9,-33,-15,-3,0,-1,-3,2021-08-04 12:25:44,525200
9,-2,20,11,-1,-1,2,-4,2021-08-04 12:25:44,543233
20,0,-1,7,1,1,0,12,2021-08-04 12:25:44,549231
-36,-18,-16,-34,-2,-1,-1,-23,2021-08-04 12:25:44,549231
-1,-1,32,0,-5,-4,0,-2,2021-08-04 12:25:44,549231
-8,0,32,9,-3,-3,-4,3,2021-08-04 12:25:44,567229
3,-3,16,-4,2,1,16,-8,2021-08-04 12:25:44,567229
11,-6,-53,2,0,0,-29,23,2021-08-04 12:25:44,573236
2,8,43,-9,3,1,7,15,2021-08-04 12:25:44,573236
-1,6,36,9,-6,-5,-5,-12,2021-08-04 12:25:44,588205
6,3,-24,-16,-1,-1,3,17,2021-08-04 12:25:44,588205
17,5,-10,0,3,1,7,-11,2021-08-04 12:25:44,596204
-9,0,26,16,-3,-1,-1,0,2021-08-04 12:25:44,596204
11,2,-43,-21,2,-1,0,9,2021-08-04 12:25:44,602205
-5,-7,65,19,0,-2,-8,-11,2021-08-04 12:25:44,602205
7,-8,-26,6,-4,-2,4,-7,2021-08-04 12:25:44,612204
4,-5,-36,-16,-3,-1,-5,5,2021-08-04 12:25:44,618204
-2,2,25,16,4,1,4,-16,2021-08-04 12:25:44,627204
8,-13,-85,-18,-4,-1,-5,9,2021-08-04 12:25:44,627204
-10,-10,55,5,-1,-2,1,-8,2021-08-04 12:25:44,635203
-5,-12,-33,1,1,-2,2,-13,2021-08-04 12:25:44,635203
-3,-2,-50,14,-2,-1,-1,24,2021-08-04 12:25:44,648262
1,16,5,-22,1,0,-4,2,2021-08-04 12:25:44,648262
-3,-10,-19,4,-3,-3,4,-23,2021-08-04 12:25:44,657237
6,12,10,-4,-4,-4,-2,-9,2021-08-04 12:25:44,657237
-16,0,15,3,2,0,-1,17,2021-08-04 12:25:44,664205
6,-12,-51,-5,1,0,-3,2,2021-08-04 12:25:44,670237
11,-8,19,-1,-3,-2,2,-5,2021-08-04 12:25:44,676236
2,-3,-37,-5,0,0,1,1,2021-08-04 12:25:44,676236
-1,2,26,1,-3,-1,-4,-18,2021-08-04 12:25:44,687204
-4,12,79,16,2,-1,2,-1,2021-08-04 12:25:44,687204
1,-7,17,-19,0,0,-2,-1,2021-08-04 12:25:44,693229
6,-1,26,18,0,1,-1,28,2021-08-04 12:25:44,699203
-2,-3,-39,-31,-5,-3,-2,-19,2021-08-04 12:25:44,704229
9,2,-47,-10,-5,-1,-1,2,2021-08-04 12:25:44,704229
-16,-7,-4,9,8,1,2,-2,2021-08-04 12:25:44,713201
1,8,4,-10,-2,-1,-2,12,2021-08-04 12:25:44,713201
0,-13,23,12,-4,-3,-2,-16,2021-08-04 12:25:44,725202
-6,-2,2,11,3,1,1,5,2021-08-04 12:25:44,725202
3,1,-39,-10,-2,-2,0,7,2021-08-04 12:25:44,730202
-4,3,19,5,0,-1,-1,-25,2021-08-04 12:25:44,737202
2,-4,-75,-14,0,1,2,-2,2021-08-04 12:25:44,746202
3,-1,-4,8,0,0,-2,-2,2021-08-04 12:25:44,752207
-27,5,27,9,-2,0,-2,-3,2021-08-04 12:25:44,758203
6,-5,-31,-1,0,-2,-2,-5,2021-08-04 12:25:44,763203
0,9,-4,2,1,-1,-1,23,2021-08-04 12:25:44,763203
-5,3,7,-3,2,0,-1,-12,2021-08-04 12:25:44,769203
8,-9,19,11,-2,1,4,10,2021-08-04 12:25:44,778203
-6,2,-18,-44,-4,-3,-1,-8,2021-08-04 12:25:44,784203
-2,-11,37,20,0,-1,-6,4,2021-08-04 12:25:44,808203
5,0,-15,-15,-1,0,1,2,2021-08-04 12:25:44,808203
3,-11,21,3,-1,-1,2,-4,2021-08-04 12:25:44,808203
-8,-13,40,12,-1,-3,-5,11,2021-08-04 12:25:44,808203
2,-2,-14,12,-1,-2,3,-7,2021-08-04 12:25:44,808203
-3,-4,26,-14,-1,0,-2,0,2021-08-04 12:25:44,808203
0,10,17,10,1,1,1,3,2021-08-04 12:25:44,808203
1,-2,3,-4,-5,-2,-1,-5,2021-08-04 12:25:44,808203
-2,7,-6,-9,3,3,0,-14,2021-08-04 12:25:44,828206
-6,-11,-10,11,-5,-2,-2,16,2021-08-04 12:25:44,834205
4,7,-20,-4,0,1,-2,6,2021-08-04 12:25:44,840205
4,7,31,11,0,-1,3,-4,2021-08-04 12:25:44,840205
8,2,19,-2,-1,-1,-2,-3,2021-08-04 12:25:44,861206
-21,0,-2,6,3,1,3,16,2021-08-04 12:25:44,861206
-17,-8,19,-6,-3,-2,-1,-14,2021-08-04 12:25:44,861206
-2,0,39,-1,-3,-1,-3,-9,2021-08-04 12:25:44,861206
5,0,-39,-10,-2,-3,1,5,2021-08-04 12:25:44,861206
-1,-7,41,12,-2,-1,-4,-8,2021-08-04 12:25:44,861206
4,0,17,-5,1,1,1,-2,2021-08-04 12:25:44,875203
-4,1,-11,1,-4,0,-2,8,2021-08-04 12:25:44,880205
-2,2,37,3,-2,0,0,-1,2021-08-04 12:25:44,889228
5,-5,-46,-1,2,-1,0,-5,2021-08-04 12:25:44,896237
-3,7,-12,-6,0,0,1,-14,2021-08-04 12:25:44,896237
6,1,-2,2,-3,-2,-3,30,2021-08-04 12:25:44,902205
-6,-6,-44,-6,-3,-1,-3,-36,2021-08-04 12:25:44,912204
1,3,11,-6,1,0,-3,3,2021-08-04 12:25:44,912204
-3,0,-16,2,-3,0,1,2,2021-08-04 12:25:44,912204
-7,-3,-29,-7,0,-1,5,-14,2021-08-04 12:25:44,912204
-3,-4,-18,-16,-3,-3,-4,17,2021-08-04 12:25:44,926202
-4,5,0,11,4,0,-1,-21,2021-08-04 12:25:44,932204
5,2,-20,-1,-2,-1,-5,2,2021-08-04 12:25:44,938205
16,-4,37,4,-3,1,-2,0,2021-08-04 12:25:44,945202
-29,-2,-42,2,2,0,1,-6,2021-08-04 12:25:44,945202
9,2,8,-6,-2,-2,-3,-8,2021-08-04 12:25:44,945202
11,-1,-20,4,1,-2,1,6,2021-08-04 12:25:44,957204
3,4,-17,12,0,-2,0,15,2021-08-04 12:25:44,963203
7,2,-14,-30,-1,-2,-2,4,2021-08-04 12:25:44,972203
-1,-3,11,-3,3,2,1,-5,2021-08-04 12:25:44,978202
-3,-8,3,-2,-5,-4,-2,1,2021-08-04 12:25:44,978202
-8,4,12,1,-2,-2,1,-4,2021-08-04 12:25:44,978202
13,6,36,12,2,2,0,1,2021-08-04 12:25:44,986205
-3,8,-43,6,-1,-1,0,9,2021-08-04 12:25:44,992201
4,-2,86,-10,0,-1,-1,5,2021-08-04 12:25:44,998201
-12,-8,-39,-8,-1,1,0,-2,2021-08-04 12:25:45,004202
3,3,-13,2,-4,-3,-3,-22,2021-08-04 12:25:45,010201
10,0,46,-6,2,-1,-2,-4,2021-08-04 12:25:45,015201
-35,-7,14,23,-4,-1,-2,3,2021-08-04 12:25:45,021201
4,4,-7,-12,3,2,1,-13,2021-08-04 12:25:45,021201
-5,-5,10,-1,-6,-2,0,-1,2021-08-04 12:25:45,033201
5,1,-18,0,-3,-1,4,33,2021-08-04 12:25:45,039201
8,1,2,17,-5,-2,-5,-53,2021-08-04 12:25:45,039201
-28,-3,13,-18,-1,-2,-5,-7,2021-08-04 12:25:45,039201
4,-3,-46,1,3,1,0,12,2021-08-04 12:25:45,045200
-1,-2,-25,-12,-2,-1,-3,8,2021-08-04 12:25:45,045200
4,5,26,1,-1,2,-1,6,2021-08-04 12:25:45,055200
6,6,9,2,-1,0,3,9,2021-08-04 12:25:45,055200
1,-14,-15,-7,0,-1,0,-3,2021-08-04 12:25:45,069235
-12,-2,1,3,-4,-4,-3,-10,2021-08-04 12:25:45,069235
9,4,19,-25,2,0,-1,7,2021-08-04 12:25:45,082203
2,-1,-24,5,1,-1,-1,-6,2021-08-04 12:25:45,082203
3,6,35,-6,-3,-4,0,11,2021-08-04 12:25:45,093203
-4,-9,-36,3,-1,-1,0,-8,2021-08-04 12:25:45,099203
5,1,-30,-2,1,-1,0,16,2021-08-04 12:25:45,099203
13,0,-23,-8,1,-1,0,7,2021-08-04 12:25:45,099203
-10,-4,42,19,0,-2,-4,-39,2021-08-04 12:25:45,107203
2,1,-2,-5,-1,0,-2,-12,2021-08-04 12:25:45,107203
0,4,-38,1,0,0,-2,3,2021-08-04 12:25:45,115203
-1,0,47,-2,0,1,-1,-8,2021-08-04 12:25:45,115203
4,6,-42,24,1,1,0,12,2021-08-04 12:25:45,128205
-4,-1,25,-33,-2,0,1,-4,2021-08-04 12:25:45,128205
-2,-2,-41,17,0,-2,-1,-1,2021-08-04 12:25:45,137205
15,0,37,2,-3,-2,0,4,2021-08-04 12:25:45,137205
-21,-1,22,-2,2,-1,1,10,2021-08-04 12:25:45,152206
-8,-21,-28,8,2,1,2,-15,2021-08-04 12:25:45,152206
-1,-1,19,4,-5,-4,-5,34,2021-08-04 12:25:45,152206
0,-4,16,-10,-3,-2,0,-17,2021-08-04 12:25:45,152206
8,10,50,7,3,3,2,6,2021-08-04 12:25:45,167206
