Timestamp,Milliseconds,EMG 1,EMG 2,EMG 3,EMG 4,EMG 5,EMG 6,EMG 7,EMG 8

12:13:29.672366,672366,2,6,7,2,50,8,5,6
12:13:29.673368,673368,2,6,7,2,50,8,5,6
12:13:29.674367,674367,2,6,7,2,50,8,5,6
12:13:29.675394,675394,2,6,7,2,50,8,5,6
12:13:29.676394,676394,2,6,7,2,50,8,5,6
12:13:29.677394,677394,2,6,7,2,50,8,5,6
12:13:29.678392,678392,2,6,7,2,50,8,5,6
12:13:29.679369,679369,2,6,7,2,50,8,5,6
12:13:29.680370,680370,2,6,7,2,50,8,5,6
12:13:29.681377,681377,2,6,7,2,50,8,5,6
12:13:29.682394,682394,2,6,7,2,50,8,5,6
12:13:29.683397,683397,2,6,7,2,50,8,5,6
12:13:29.684367,684367,2,6,7,2,50,8,5,6
12:13:29.685366,685366,2,6,7,2,50,8,5,6
12:13:29.686389,686389,2,6,7,2,50,8,5,6
12:13:29.687395,687395,2,6,7,2,50,8,5,6
12:13:29.688396,688396,4,20,41,95,249,31,12,13
12:13:29.689399,689399,4,20,41,95,249,31,12,13
12:13:29.690369,690369,4,20,41,95,249,31,12,13
12:13:29.691368,691368,4,20,41,95,249,31,12,13
12:13:29.692394,692394,4,20,41,95,249,31,12,13
12:13:29.693368,693368,4,20,41,95,249,31,12,13
12:13:29.694368,694368,4,20,41,95,249,31,12,13
12:13:29.695394,695394,4,20,41,95,249,31,12,13
12:13:29.696393,696393,4,20,41,95,249,31,12,13
12:13:29.697385,697385,4,20,41,95,249,31,12,13
12:13:29.698407,698407,4,20,41,95,249,31,12,13
12:13:29.699369,699369,4,20,41,95,249,31,12,13
12:13:29.700371,700371,4,20,41,95,249,31,12,13
12:13:29.701396,701396,4,20,41,95,249,31,12,13
12:13:29.702397,702397,4,20,41,95,249,31,12,13
12:13:29.703368,703368,4,20,41,95,249,31,12,13
12:13:29.704368,704368,4,20,41,95,249,31,12,13
12:13:29.704368,704368,5,26,47,95,260,40,15,14
12:13:29.705368,705368,5,26,47,95,260,40,15,14
12:13:29.706367,706367,5,26,47,95,260,40,15,14
12:13:29.707366,707366,5,26,47,95,260,40,15,14
12:13:29.708366,708366,5,26,47,95,260,40,15,14
12:13:29.709366,709366,5,26,47,95,260,40,15,14
12:13:29.710366,710366,5,26,47,95,260,40,15,14
12:13:29.711366,711366,5,26,47,95,260,40,15,14
12:13:29.712366,712366,5,26,47,95,260,40,15,14
12:13:29.713366,713366,5,26,47,95,260,40,15,14
12:13:29.714366,714366,5,26,47,95,260,40,15,14
12:13:29.715366,715366,5,26,47,95,260,40,15,14
12:13:29.716366,716366,5,26,47,95,260,40,15,14
12:13:29.717366,717366,5,26,47,95,260,40,15,14
12:13:29.718366,718366,5,26,47,95,260,40,15,14
12:13:29.719366,719366,5,26,47,95,260,40,15,14
12:13:29.720366,720366,5,26,47,95,260,40,15,14
12:13:29.720366,720366,10,43,70,118,473,50,24,17
12:13:29.720366,720366,10,41,67,129,451,46,22,12
12:13:29.720366,720366,13,42,64,114,428,44,25,14
12:13:29.721366,721366,39,40,54,112,484,62,24,34
12:13:29.721366,721366,59,34,45,125,522,52,26,36
12:13:29.721366,721366,62,26,31,119,372,57,27,41
12:13:29.721366,721366,61,26,35,118,369,68,27,46
12:13:29.721366,721366,63,23,38,113,384,68,23,45
12:13:29.722416,722416,63,23,38,113,384,68,23,45
12:13:29.723416,723416,63,23,38,113,384,68,23,45
12:13:29.724417,724417,63,23,38,113,384,68,23,45
12:13:29.725404,725404,63,23,38,113,384,68,23,45
12:13:29.726406,726406,63,23,38,113,384,68,23,45
12:13:29.727367,727367,63,23,38,113,384,68,23,45
12:13:29.728412,728412,63,23,38,113,384,68,23,45
12:13:29.729366,729366,63,23,38,113,384,68,23,45
12:13:29.730404,730404,63,23,38,113,384,68,23,45
12:13:29.731404,731404,63,23,38,113,384,68,23,45
12:13:29.732406,732406,63,23,38,113,384,68,23,45
12:13:29.733417,733417,63,23,38,113,384,68,23,45
12:13:29.734369,734369,63,23,38,113,384,68,23,45
12:13:29.735405,735405,63,23,38,113,384,68,23,45
12:13:29.736404,736404,63,23,38,113,384,68,23,45
12:13:29.737372,737372,63,23,38,113,384,68,23,45
12:13:29.738366,738366,63,23,38,113,384,68,23,45
12:13:29.739412,739412,63,23,38,113,384,68,23,45
12:13:29.740369,740369,63,23,38,113,384,68,23,45
12:13:29.741367,741367,63,23,38,113,384,68,23,45
12:13:29.742367,742367,63,23,38,113,384,68,23,45
12:13:29.743369,743369,63,23,38,113,384,68,23,45
12:13:29.744369,744369,63,23,38,113,384,68,23,45
12:13:29.745393,745393,63,23,38,113,384,68,23,45
12:13:29.746395,746395,63,23,38,113,384,68,23,45
12:13:29.747396,747396,63,23,38,113,384,68,23,45
12:13:29.748366,748366,63,23,38,113,384,68,23,45
12:13:29.749366,749366,63,23,38,113,384,68,23,45
12:13:29.750365,750365,63,23,38,113,384,68,23,45
12:13:29.751369,751369,62,28,43,104,278,75,24,26
12:13:29.751369,751369,40,29,42,97,319,76,26,27
12:13:29.751369,751369,22,32,51,104,365,92,21,28
12:13:29.751369,751369,24,37,55,89,389,109,25,29
12:13:29.752367,752367,24,39,56,83,428,128,20,26
12:13:29.753367,753367,24,39,56,83,428,128,20,26
12:13:29.754366,754366,24,39,56,83,428,128,20,26
12:13:29.755368,755368,24,39,56,83,428,128,20,26
12:13:29.756366,756366,24,39,56,83,428,128,20,26
12:13:29.757366,757366,24,39,56,83,428,128,20,26
12:13:29.758366,758366,24,39,56,83,428,128,20,26
12:13:29.759366,759366,24,39,56,83,428,128,20,26
12:13:29.760366,760366,24,39,56,83,428,128,20,26
12:13:29.761366,761366,24,39,56,83,428,128,20,26
12:13:29.762366,762366,24,39,56,83,428,128,20,26
12:13:29.763368,763368,24,39,56,83,428,128,20,26
12:13:29.764367,764367,24,39,56,83,428,128,20,26
12:13:29.765367,765367,24,39,56,83,428,128,20,26
12:13:29.766369,766369,24,39,56,83,428,128,20,26
12:13:29.767366,767366,24,39,56,83,428,128,20,26
12:13:29.767366,767366,20,37,54,93,433,127,21,25
12:13:29.768403,768403,20,37,54,93,433,127,21,25
12:13:29.769369,769369,20,37,54,93,433,127,21,25
12:13:29.770368,770368,20,37,54,93,433,127,21,25
12:13:29.771403,771403,20,37,54,93,433,127,21,25
12:13:29.772367,772367,20,37,54,93,433,127,21,25
12:13:29.773367,773367,20,37,54,93,433,127,21,25
12:13:29.774406,774406,20,37,54,93,433,127,21,25
12:13:29.775373,775373,20,37,54,93,433,127,21,25
12:13:29.776367,776367,20,37,54,93,433,127,21,25
12:13:29.777404,777404,20,37,54,93,433,127,21,25
12:13:29.778404,778404,20,37,54,93,433,127,21,25
12:13:29.779406,779406,20,37,54,93,433,127,21,25
12:13:29.780412,780412,20,37,54,93,433,127,21,25
12:13:29.781406,781406,20,37,54,93,433,127,21,25
12:13:29.782404,782404,20,37,54,93,433,127,21,25
12:13:29.783369,783369,24,39,58,130,339,112,34,75
12:13:29.783369,783369,33,41,53,132,347,94,30,89
12:13:29.784372,784372,33,41,53,132,347,94,30,89
12:13:29.785369,785369,33,41,53,132,347,94,30,89
12:13:29.786404,786404,33,41,53,132,347,94,30,89
12:13:29.787369,787369,33,41,53,132,347,94,30,89
12:13:29.788367,788367,33,41,53,132,347,94,30,89
12:13:29.789369,789369,33,41,53,132,347,94,30,89
12:13:29.790368,790368,33,41,53,132,347,94,30,89
12:13:29.791369,791369,33,41,53,132,347,94,30,89
12:13:29.792367,792367,33,41,53,132,347,94,30,89
12:13:29.793394,793394,33,41,53,132,347,94,30,89
12:13:29.794393,794393,33,41,53,132,347,94,30,89
12:13:29.795395,795395,33,41,53,132,347,94,30,89
12:13:29.796393,796393,33,41,53,132,347,94,30,89
12:13:29.797366,797366,33,41,53,132,347,94,30,89
12:13:29.798389,798389,33,41,53,132,347,94,30,89
12:13:29.798389,798389,45,41,47,152,251,53,35,96
12:13:29.799387,799387,45,41,47,152,251,53,35,96
12:13:29.800368,800368,45,41,47,152,251,53,35,96
12:13:29.801368,801368,45,41,47,152,251,53,35,96
12:13:29.802368,802368,45,41,47,152,251,53,35,96
12:13:29.803366,803366,45,41,47,152,251,53,35,96
12:13:29.804366,804366,45,41,47,152,251,53,35,96
12:13:29.805367,805367,45,41,47,152,251,53,35,96
12:13:29.806367,806367,45,41,47,152,251,53,35,96
12:13:29.807366,807366,45,41,47,152,251,53,35,96
12:13:29.808365,808365,45,41,47,152,251,53,35,96
12:13:29.809369,809369,45,41,47,152,251,53,35,96
12:13:29.810366,810366,45,41,47,152,251,53,35,96
12:13:29.811366,811366,45,41,47,152,251,53,35,96
12:13:29.812369,812369,45,41,47,152,251,53,35,96
12:13:29.813368,813368,45,41,47,152,251,53,35,96
12:13:29.814366,814366,45,41,47,152,251,53,35,96
12:13:29.814366,814366,45,37,41,153,307,61,38,97
12:13:29.815367,815367,45,37,41,153,307,61,38,97
12:13:29.816648,816648,45,37,41,153,307,61,38,97
12:13:29.816697,816697,45,37,41,153,307,61,38,97
12:13:29.817645,817645,45,37,41,153,307,61,38,97
12:13:29.818645,818645,45,37,41,153,307,61,38,97
12:13:29.819648,819648,45,37,41,153,307,61,38,97
12:13:29.820672,820672,45,37,41,153,307,61,38,97
12:13:29.821664,821664,45,37,41,153,307,61,38,97
12:13:29.822645,822645,45,37,41,153,307,61,38,97
12:13:29.823648,823648,45,37,41,153,307,61,38,97
12:13:29.824646,824646,45,37,41,153,307,61,38,97
12:13:29.825648,825648,45,37,41,153,307,61,38,97
12:13:29.826647,826647,45,37,41,153,307,61,38,97
12:13:29.827648,827648,45,37,41,153,307,61,38,97
12:13:29.828645,828645,45,37,41,153,307,61,38,97
12:13:29.829647,829647,45,37,41,153,307,61,38,97
12:13:29.829647,829647,45,32,42,168,333,54,38,112
12:13:29.830647,830647,45,32,42,168,333,54,38,112
12:13:29.831646,831646,45,32,42,168,333,54,38,112
12:13:29.832648,832648,45,32,42,168,333,54,38,112
12:13:29.833646,833646,45,32,42,168,333,54,38,112
12:13:29.834647,834647,45,32,42,168,333,54,38,112
12:13:29.835647,835647,45,32,42,168,333,54,38,112
12:13:29.836684,836684,45,32,42,168,333,54,38,112
12:13:29.837646,837646,45,32,42,168,333,54,38,112
12:13:29.838647,838647,45,32,42,168,333,54,38,112
12:13:29.839647,839647,45,32,42,168,333,54,38,112
12:13:29.840684,840684,45,32,42,168,333,54,38,112
12:13:29.841676,841676,45,32,42,168,333,54,38,112
12:13:29.842685,842685,45,32,42,168,333,54,38,112
12:13:29.843649,843649,45,32,42,168,333,54,38,112
12:13:29.844687,844687,45,32,42,168,333,54,38,112
12:13:29.845649,845649,45,32,42,168,333,54,38,112
12:13:29.845649,845649,43,27,34,180,324,54,29,61
12:13:29.845649,845649,37,27,36,190,345,49,33,50
12:13:29.845649,845649,35,23,34,204,307,46,37,48
12:13:29.846650,846650,30,23,32,207,291,46,30,53
12:13:29.846650,846650,22,20,33,196,255,45,26,48
12:13:29.847648,847648,22,20,33,196,255,45,26,48
12:13:29.848648,848648,22,20,33,196,255,45,26,48
12:13:29.849648,849648,22,20,33,196,255,45,26,48
12:13:29.850649,850649,22,20,33,196,255,45,26,48
12:13:29.851648,851648,22,20,33,196,255,45,26,48
12:13:29.852648,852648,22,20,33,196,255,45,26,48
12:13:29.853648,853648,22,20,33,196,255,45,26,48
12:13:29.854649,854649,22,20,33,196,255,45,26,48
12:13:29.855648,855648,22,20,33,196,255,45,26,48
12:13:29.856648,856648,22,20,33,196,255,45,26,48
12:13:29.857648,857648,22,20,33,196,255,45,26,48
12:13:29.858648,858648,22,20,33,196,255,45,26,48
12:13:29.859649,859649,22,20,33,196,255,45,26,48
12:13:29.860648,860648,22,20,33,196,255,45,26,48
12:13:29.861648,861648,22,20,33,196,255,45,26,48
12:13:29.862650,862650,22,20,33,196,255,45,26,48
12:13:29.863648,863648,22,20,33,196,255,45,26,48
12:13:29.864648,864648,22,20,33,196,255,45,26,48
12:13:29.865650,865650,22,20,33,196,255,45,26,48
12:13:29.866655,866655,22,20,33,196,255,45,26,48
12:13:29.867650,867650,22,20,33,196,255,45,26,48
12:13:29.868649,868649,22,20,33,196,255,45,26,48
12:13:29.869648,869648,22,20,33,196,255,45,26,48
12:13:29.870648,870648,22,20,33,196,255,45,26,48
12:13:29.871649,871649,22,20,33,196,255,45,26,48
12:13:29.872648,872648,22,20,33,196,255,45,26,48
12:13:29.873648,873648,22,20,33,196,255,45,26,48
12:13:29.874648,874648,22,20,33,196,255,45,26,48
12:13:29.875648,875648,22,20,33,196,255,45,26,48
12:13:29.876648,876648,22,20,33,196,255,45,26,48
12:13:29.877648,877648,22,20,33,196,255,45,26,48
12:13:29.877648,877648,21,23,28,130,198,36,28,34
12:13:29.877648,877648,20,19,22,113,201,36,26,34
12:13:29.878649,878649,20,19,22,113,201,36,26,34
12:13:29.879648,879648,20,19,22,113,201,36,26,34
12:13:29.880648,880648,20,19,22,113,201,36,26,34
12:13:29.881648,881648,20,19,22,113,201,36,26,34
12:13:29.882648,882648,20,19,22,113,201,36,26,34
12:13:29.883649,883649,20,19,22,113,201,36,26,34
12:13:29.884649,884649,20,19,22,113,201,36,26,34
12:13:29.885648,885648,20,19,22,113,201,36,26,34
12:13:29.886648,886648,20,19,22,113,201,36,26,34
12:13:29.887648,887648,20,19,22,113,201,36,26,34
12:13:29.888650,888650,40,16,20,125,208,43,39,114
12:13:29.889649,889649,40,16,20,125,208,43,39,114
12:13:29.890648,890648,40,16,20,125,208,43,39,114
12:13:29.891649,891649,40,16,20,125,208,43,39,114
12:13:29.892649,892649,40,16,20,125,208,43,39,114
12:13:29.893650,893650,40,16,20,125,208,43,39,114
12:13:29.894648,894648,40,16,20,125,208,43,39,114
12:13:29.895684,895684,40,16,20,125,208,43,39,114
12:13:29.896684,896684,40,16,20,125,208,43,39,114
12:13:29.897647,897647,40,16,20,125,208,43,39,114
12:13:29.898649,898649,40,16,20,125,208,43,39,114
12:13:29.899649,899649,40,16,20,125,208,43,39,114
12:13:29.900647,900647,40,16,20,125,208,43,39,114
12:13:29.901648,901648,40,16,20,125,208,43,39,114
12:13:29.902646,902646,40,16,20,125,208,43,39,114
12:13:29.903647,903647,40,16,20,125,208,43,39,114
12:13:29.904647,904647,40,16,20,125,208,43,39,114
12:13:29.905647,905647,40,16,20,125,208,43,39,114
12:13:29.906646,906646,40,16,20,125,208,43,39,114
12:13:29.907645,907645,40,16,20,125,208,43,39,114
12:13:29.908646,908646,40,16,20,125,208,43,39,114
12:13:29.909647,909647,40,16,20,125,208,43,39,114
12:13:29.910649,910649,40,16,20,125,208,43,39,114
12:13:29.911648,911648,40,16,20,125,208,43,39,114
12:13:29.912647,912647,40,16,20,125,208,43,39,114
12:13:29.913648,913648,40,16,20,125,208,43,39,114
12:13:29.914649,914649,40,16,20,125,208,43,39,114
12:13:29.915648,915648,40,16,20,125,208,43,39,114
12:13:29.916648,916648,40,16,20,125,208,43,39,114
12:13:29.917648,917648,40,16,20,125,208,43,39,114
12:13:29.918647,918647,40,16,20,125,208,43,39,114
12:13:29.919648,919648,40,16,20,125,208,43,39,114
12:13:29.920648,920648,40,16,20,125,208,43,39,114
12:13:29.921648,921648,40,16,20,125,208,43,39,114
12:13:29.922649,922649,40,16,20,125,208,43,39,114
12:13:29.923649,923649,40,16,20,125,208,43,39,114
12:13:29.924648,924648,40,16,20,125,208,43,39,114
12:13:29.924648,924648,156,18,23,179,468,58,63,170
12:13:29.925650,925650,156,18,23,179,468,58,63,170
12:13:29.926649,926649,156,18,23,179,468,58,63,170
12:13:29.927647,927647,156,18,23,179,468,58,63,170
12:13:29.928647,928647,156,18,23,179,468,58,63,170
12:13:29.929650,929650,156,18,23,179,468,58,63,170
12:13:29.930650,930650,156,18,23,179,468,58,63,170
12:13:29.931648,931648,156,18,23,179,468,58,63,170
12:13:29.932647,932647,156,18,23,179,468,58,63,170
12:13:29.933647,933647,156,18,23,179,468,58,63,170
12:13:29.934649,934649,156,18,23,179,468,58,63,170
12:13:29.935648,935648,156,18,23,179,468,58,63,170
12:13:29.936647,936647,156,18,23,179,468,58,63,170
12:13:29.937647,937647,156,18,23,179,468,58,63,170
12:13:29.938648,938648,156,18,23,179,468,58,63,170
12:13:29.939648,939648,156,18,23,179,468,58,63,170
12:13:29.940648,940648,156,18,23,179,468,58,63,170
12:13:29.941648,941648,156,18,23,179,468,58,63,170
12:13:29.942648,942648,156,18,23,179,468,58,63,170
12:13:29.943648,943648,156,18,23,179,468,58,63,170
12:13:29.944648,944648,156,18,23,179,468,58,63,170
12:13:29.945647,945647,156,18,23,179,468,58,63,170
12:13:29.946648,946648,156,18,23,179,468,58,63,170
12:13:29.947648,947648,156,18,23,179,468,58,63,170
12:13:29.948648,948648,156,18,23,179,468,58,63,170
12:13:29.949648,949648,156,18,23,179,468,58,63,170
12:13:29.950650,950650,156,18,23,179,468,58,63,170
12:13:29.951649,951649,156,18,23,179,468,58,63,170
12:13:29.952648,952648,156,18,23,179,468,58,63,170
12:13:29.953649,953649,156,18,23,179,468,58,63,170
12:13:29.954650,954650,156,18,23,179,468,58,63,170
12:13:29.955648,955648,156,18,23,179,468,58,63,170
12:13:29.956648,956648,156,18,23,179,468,58,63,170
12:13:29.956648,956648,196,18,23,188,437,46,58,145
12:13:29.957649,957649,196,18,23,188,437,46,58,145
12:13:29.958648,958648,196,18,23,188,437,46,58,145
12:13:29.959648,959648,196,18,23,188,437,46,58,145
12:13:29.960647,960647,196,18,23,188,437,46,58,145
12:13:29.961647,961647,196,18,23,188,437,46,58,145
12:13:29.962647,962647,196,18,23,188,437,46,58,145
12:13:29.963648,963648,196,18,23,188,437,46,58,145
12:13:29.964649,964649,196,18,23,188,437,46,58,145
12:13:29.965649,965649,196,18,23,188,437,46,58,145
12:13:29.966648,966648,196,18,23,188,437,46,58,145
12:13:29.967649,967649,196,18,23,188,437,46,58,145
12:13:29.968647,968647,196,18,23,188,437,46,58,145
12:13:29.969647,969647,196,18,23,188,437,46,58,145
12:13:29.970647,970647,196,18,23,188,437,46,58,145
12:13:29.971650,971650,196,18,23,188,437,46,58,145
12:13:29.971650,971650,214,25,27,195,433,53,58,94
12:13:29.972649,972649,214,25,27,195,433,53,58,94
12:13:29.973648,973648,214,25,27,195,433,53,58,94
12:13:29.974649,974649,214,25,27,195,433,53,58,94
12:13:29.975648,975648,214,25,27,195,433,53,58,94
12:13:29.976648,976648,214,25,27,195,433,53,58,94
12:13:29.977648,977648,214,25,27,195,433,53,58,94
12:13:29.978647,978647,214,25,27,195,433,53,58,94
12:13:29.979648,979648,214,25,27,195,433,53,58,94
12:13:29.980649,980649,214,25,27,195,433,53,58,94
12:13:29.981648,981648,214,25,27,195,433,53,58,94
12:13:29.982648,982648,214,25,27,195,433,53,58,94
12:13:29.983648,983648,214,25,27,195,433,53,58,94
12:13:29.984649,984649,214,25,27,195,433,53,58,94
12:13:29.985648,985648,214,25,27,195,433,53,58,94
12:13:29.986648,986648,214,25,27,195,433,53,58,94
12:13:29.987647,987647,214,25,27,195,433,53,58,94
12:13:29.988647,988647,214,25,27,195,433,53,58,94
12:13:29.989648,989648,214,25,27,195,433,53,58,94
12:13:29.990682,990682,214,25,27,195,433,53,58,94
12:13:29.991683,991683,214,25,27,195,433,53,58,94
12:13:29.992648,992648,214,25,27,195,433,53,58,94
12:13:29.993701,993701,214,25,27,195,433,53,58,94
12:13:29.994695,994695,214,25,27,195,433,53,58,94
12:13:29.995695,995695,214,25,27,195,433,53,58,94
12:13:29.996686,996686,214,25,27,195,433,53,58,94
12:13:29.997686,997686,214,25,27,195,433,53,58,94
12:13:29.998684,998684,214,25,27,195,433,53,58,94
12:13:29.999646,999646,214,25,27,195,433,53,58,94
12:13:30.000468,000468,214,25,27,195,433,53,58,94
12:13:30.000647,000647,214,25,27,195,433,53,58,94
12:13:30.001651,001651,214,25,27,195,433,53,58,94
12:13:30.002646,002646,214,25,27,195,433,53,58,94
12:13:30.003646,003646,214,25,27,195,433,53,58,94
12:13:30.003646,003646,214,23,26,215,363,74,54,81
12:13:30.003646,003646,209,24,28,202,350,81,48,88
12:13:30.003646,003646,163,25,27,178,291,79,41,101
12:13:30.004649,004649,175,27,26,147,265,87,34,146
12:13:30.004649,004649,163,23,26,143,257,88,35,125
12:13:30.004649,004649,91,16,21,123,256,70,40,132
12:13:30.005647,005647,91,16,21,123,256,70,40,132
12:13:30.006645,006645,91,16,21,123,256,70,40,132
12:13:30.007154,007154,91,16,21,123,256,70,40,132
12:13:30.008220,008220,91,16,21,123,256,70,40,132
12:13:30.009164,009164,91,16,21,123,256,70,40,132
12:13:30.010164,010164,91,16,21,123,256,70,40,132
12:13:30.011163,011163,91,16,21,123,256,70,40,132
12:13:30.012164,012164,91,16,21,123,256,70,40,132
12:13:30.013166,013166,91,16,21,123,256,70,40,132
12:13:30.014166,014166,91,16,21,123,256,70,40,132
12:13:30.015165,015165,91,16,21,123,256,70,40,132
12:13:30.016164,016164,91,16,21,123,256,70,40,132
12:13:30.017163,017163,91,16,21,123,256,70,40,132
12:13:30.018213,018213,91,16,21,123,256,70,40,132
12:13:30.019213,019213,91,16,21,123,256,70,40,132
12:13:30.019213,019213,74,18,23,129,237,55,39,142
12:13:30.020163,020163,74,18,23,129,237,55,39,142
12:13:30.021168,021168,74,18,23,129,237,55,39,142
12:13:30.022205,022205,74,18,23,129,237,55,39,142
12:13:30.023204,023204,74,18,23,129,237,55,39,142
12:13:30.024201,024201,74,18,23,129,237,55,39,142
12:13:30.025163,025163,74,18,23,129,237,55,39,142
12:13:30.026212,026212,74,18,23,129,237,55,39,142
12:13:30.027164,027164,74,18,23,129,237,55,39,142
12:13:30.028166,028166,74,18,23,129,237,55,39,142
12:13:30.029164,029164,74,18,23,129,237,55,39,142
12:13:30.030165,030165,74,18,23,129,237,55,39,142
12:13:30.031165,031165,74,18,23,129,237,55,39,142
12:13:30.032164,032164,74,18,23,129,237,55,39,142
12:13:30.033163,033163,74,18,23,129,237,55,39,142
12:13:30.034165,034165,74,18,23,129,237,55,39,142
12:13:30.035202,035202,74,18,23,129,237,55,39,142
12:13:30.035202,035202,82,18,23,135,262,55,42,131
12:13:30.036165,036165,82,18,23,135,262,55,42,131
12:13:30.037165,037165,82,18,23,135,262,55,42,131
12:13:30.038165,038165,82,18,23,135,262,55,42,131
12:13:30.039165,039165,82,18,23,135,262,55,42,131
12:13:30.040167,040167,82,18,23,135,262,55,42,131
12:13:30.041165,041165,82,18,23,135,262,55,42,131
12:13:30.042166,042166,82,18,23,135,262,55,42,131
12:13:30.043165,043165,82,18,23,135,262,55,42,131
12:13:30.044165,044165,82,18,23,135,262,55,42,131
12:13:30.045165,045165,82,18,23,135,262,55,42,131
12:13:30.046165,046165,82,18,23,135,262,55,42,131
12:13:30.047166,047166,82,18,23,135,262,55,42,131
12:13:30.048166,048166,82,18,23,135,262,55,42,131
12:13:30.049165,049165,82,18,23,135,262,55,42,131
12:13:30.050165,050165,82,18,23,135,262,55,42,131
12:13:30.051165,051165,82,18,23,135,262,55,42,131
12:13:30.051165,051165,83,21,25,160,278,60,47,90
12:13:30.051165,051165,74,21,25,175,303,60,49,103
12:13:30.051165,051165,59,19,25,155,307,64,51,97
12:13:30.052167,052167,67,19,25,167,341,64,46,92
12:13:30.052167,052167,66,19,25,152,286,62,56,100
12:13:30.053167,053167,66,19,25,152,286,62,56,100
12:13:30.054165,054165,66,19,25,152,286,62,56,100
12:13:30.055167,055167,66,19,25,152,286,62,56,100
12:13:30.056167,056167,66,19,25,152,286,62,56,100
12:13:30.057165,057165,66,19,25,152,286,62,56,100
12:13:30.058165,058165,66,19,25,152,286,62,56,100
12:13:30.059165,059165,66,19,25,152,286,62,56,100
12:13:30.060165,060165,66,19,25,152,286,62,56,100
12:13:30.061165,061165,66,19,25,152,286,62,56,100
12:13:30.062165,062165,66,19,25,152,286,62,56,100
12:13:30.063167,063167,66,19,25,152,286,62,56,100
12:13:30.064166,064166,66,19,25,152,286,62,56,100
12:13:30.065166,065166,66,19,25,152,286,62,56,100
12:13:30.066165,066165,66,19,25,152,286,62,56,100
12:13:30.067165,067165,66,19,25,152,286,62,56,100
12:13:30.067165,067165,82,18,27,139,308,55,53,87
12:13:30.068167,068167,82,18,27,139,308,55,53,87
12:13:30.069165,069165,82,18,27,139,308,55,53,87
12:13:30.070165,070165,82,18,27,139,308,55,53,87
12:13:30.071165,071165,82,18,27,139,308,55,53,87
12:13:30.072165,072165,82,18,27,139,308,55,53,87
12:13:30.073165,073165,82,18,27,139,308,55,53,87
12:13:30.074165,074165,82,18,27,139,308,55,53,87
12:13:30.075165,075165,82,18,27,139,308,55,53,87
12:13:30.076167,076167,82,18,27,139,308,55,53,87
12:13:30.077166,077166,82,18,27,139,308,55,53,87
12:13:30.078165,078165,82,18,27,139,308,55,53,87
12:13:30.079166,079166,82,18,27,139,308,55,53,87
12:13:30.080166,080166,82,18,27,139,308,55,53,87
12:13:30.081164,081164,82,18,27,139,308,55,53,87
12:13:30.082164,082164,82,18,27,139,308,55,53,87
12:13:30.083165,083165,82,18,27,139,308,55,53,87
12:13:30.083165,083165,85,18,25,142,312,54,47,99
12:13:30.083165,083165,83,16,20,120,316,55,49,99
12:13:30.083165,083165,108,13,21,126,296,56,54,92
12:13:30.084167,084167,106,12,18,148,204,33,38,72
12:13:30.085170,085170,106,12,18,148,204,33,38,72
12:13:30.086166,086166,106,12,18,148,204,33,38,72
12:13:30.087166,087166,106,12,18,148,204,33,38,72
12:13:30.088166,088166,106,12,18,148,204,33,38,72
12:13:30.089165,089165,106,12,18,148,204,33,38,72
12:13:30.090166,090166,106,12,18,148,204,33,38,72
12:13:30.091165,091165,106,12,18,148,204,33,38,72
12:13:30.092166,092166,106,12,18,148,204,33,38,72
12:13:30.093166,093166,106,12,18,148,204,33,38,72
12:13:30.094165,094165,106,12,18,148,204,33,38,72
12:13:30.095165,095165,106,12,18,148,204,33,38,72
12:13:30.096166,096166,106,12,18,148,204,33,38,72
12:13:30.097168,097168,106,12,18,148,204,33,38,72
12:13:30.098165,098165,106,12,18,148,204,33,38,72
12:13:30.099165,099165,106,12,18,148,204,33,38,72
12:13:30.100167,100167,106,12,18,148,204,33,38,72
12:13:30.101166,101166,106,12,18,148,204,33,38,72
12:13:30.102165,102165,106,12,18,148,204,33,38,72
12:13:30.103165,103165,106,12,18,148,204,33,38,72
12:13:30.104165,104165,106,12,18,148,204,33,38,72
12:13:30.105165,105165,106,12,18,148,204,33,38,72
12:13:30.106165,106165,106,12,18,148,204,33,38,72
12:13:30.107165,107165,106,12,18,148,204,33,38,72
12:13:30.108165,108165,106,12,18,148,204,33,38,72
12:13:30.109166,109166,106,12,18,148,204,33,38,72
12:13:30.110165,110165,106,12,18,148,204,33,38,72
12:13:30.111167,111167,106,12,18,148,204,33,38,72
12:13:30.112166,112166,106,12,18,148,204,33,38,72
12:13:30.113165,113165,106,12,18,148,204,33,38,72
12:13:30.114165,114165,106,12,18,148,204,33,38,72
12:13:30.115166,115166,106,12,18,148,204,33,38,72
12:13:30.115166,115166,73,17,21,154,241,27,36,69
12:13:30.116165,116165,73,17,21,154,241,27,36,69
12:13:30.117166,117166,73,17,21,154,241,27,36,69
12:13:30.118166,118166,73,17,21,154,241,27,36,69
12:13:30.119166,119166,73,17,21,154,241,27,36,69
12:13:30.120166,120166,73,17,21,154,241,27,36,69
12:13:30.121166,121166,73,17,21,154,241,27,36,69
12:13:30.122164,122164,73,17,21,154,241,27,36,69
12:13:30.123165,123165,73,17,21,154,241,27,36,69
12:13:30.124165,124165,73,17,21,154,241,27,36,69
12:13:30.125165,125165,73,17,21,154,241,27,36,69
12:13:30.126166,126166,73,17,21,154,241,27,36,69
12:13:30.127165,127165,73,17,21,154,241,27,36,69
12:13:30.128165,128165,73,17,21,154,241,27,36,69
12:13:30.129165,129165,73,17,21,154,241,27,36,69
12:13:30.130165,130165,73,17,21,154,241,27,36,69
12:13:30.130165,130165,84,19,26,95,216,60,45,68
12:13:30.131167,131167,84,19,26,95,216,60,45,68
12:13:30.132165,132165,84,19,26,95,216,60,45,68
12:13:30.133165,133165,84,19,26,95,216,60,45,68
12:13:30.134166,134166,84,19,26,95,216,60,45,68
12:13:30.135166,135166,84,19,26,95,216,60,45,68
12:13:30.136166,136166,84,19,26,95,216,60,45,68
12:13:30.137165,137165,84,19,26,95,216,60,45,68
12:13:30.138167,138167,84,19,26,95,216,60,45,68
12:13:30.139167,139167,84,19,26,95,216,60,45,68
12:13:30.140167,140167,84,19,26,95,216,60,45,68
12:13:30.141166,141166,84,19,26,95,216,60,45,68
12:13:30.142166,142166,84,19,26,95,216,60,45,68
12:13:30.143167,143167,84,19,26,95,216,60,45,68
12:13:30.144166,144166,84,19,26,95,216,60,45,68
12:13:30.145172,145172,84,19,26,95,216,60,45,68
12:13:30.146167,146167,84,19,26,95,216,60,45,68
12:13:30.147170,147170,84,19,26,95,216,60,45,68
12:13:30.148166,148166,84,19,26,95,216,60,45,68
12:13:30.149165,149165,84,19,26,95,216,60,45,68
12:13:30.150165,150165,84,19,26,95,216,60,45,68
12:13:30.151167,151167,84,19,26,95,216,60,45,68
12:13:30.152167,152167,84,19,26,95,216,60,45,68
12:13:30.153165,153165,84,19,26,95,216,60,45,68
12:13:30.154165,154165,84,19,26,95,216,60,45,68
12:13:30.155166,155166,84,19,26,95,216,60,45,68
12:13:30.156165,156165,84,19,26,95,216,60,45,68
12:13:30.157165,157165,84,19,26,95,216,60,45,68
12:13:30.158165,158165,84,19,26,95,216,60,45,68
12:13:30.159167,159167,84,19,26,95,216,60,45,68
12:13:30.160167,160167,84,19,26,95,216,60,45,68
12:13:30.161166,161166,84,19,26,95,216,60,45,68
12:13:30.162166,162166,84,19,26,95,216,60,45,68
12:13:30.162166,162166,80,19,26,85,323,57,43,65
12:13:30.162166,162166,99,18,28,94,330,56,44,84
12:13:30.162166,162166,96,15,23,84,302,60,47,85
12:13:30.162166,162166,93,18,27,80,333,69,47,101
12:13:30.163167,163167,112,18,27,92,316,69,46,92
12:13:30.163167,163167,109,19,33,96,339,55,55,73
12:13:30.163167,163167,90,20,29,92,367,50,46,67
12:13:30.164165,164165,90,20,29,92,367,50,46,67
12:13:30.165165,165165,90,20,29,92,367,50,46,67
12:13:30.166166,166166,90,20,29,92,367,50,46,67
12:13:30.167166,167166,90,20,29,92,367,50,46,67
12:13:30.168165,168165,90,20,29,92,367,50,46,67
12:13:30.169164,169164,90,20,29,92,367,50,46,67
12:13:30.170165,170165,90,20,29,92,367,50,46,67
12:13:30.171165,171165,90,20,29,92,367,50,46,67
12:13:30.172166,172166,90,20,29,92,367,50,46,67
12:13:30.173166,173166,90,20,29,92,367,50,46,67
12:13:30.174166,174166,90,20,29,92,367,50,46,67
12:13:30.175167,175167,90,20,29,92,367,50,46,67
12:13:30.176165,176165,90,20,29,92,367,50,46,67
12:13:30.177165,177165,90,20,29,92,367,50,46,67
12:13:30.178166,178166,90,20,29,92,367,50,46,67
12:13:30.179166,179166,90,20,29,92,367,50,46,67
12:13:30.180167,180167,90,20,29,92,367,50,46,67
12:13:30.181166,181166,90,20,29,92,367,50,46,67
12:13:30.182165,182165,90,20,29,92,367,50,46,67
12:13:30.183165,183165,90,20,29,92,367,50,46,67
12:13:30.184165,184165,90,20,29,92,367,50,46,67
12:13:30.185165,185165,90,20,29,92,367,50,46,67
12:13:30.186165,186165,90,20,29,92,367,50,46,67
12:13:30.187165,187165,90,20,29,92,367,50,46,67
12:13:30.188165,188165,90,20,29,92,367,50,46,67
12:13:30.189165,189165,90,20,29,92,367,50,46,67
12:13:30.190165,190165,90,20,29,92,367,50,46,67
12:13:30.191165,191165,90,20,29,92,367,50,46,67
12:13:30.192165,192165,90,20,29,92,367,50,46,67
12:13:30.193164,193164,90,20,29,92,367,50,46,67
12:13:30.193164,193164,131,21,31,115,275,44,58,86
12:13:30.193164,193164,136,22,28,107,264,43,52,97
12:13:30.194166,194166,136,22,28,107,264,43,52,97
12:13:30.195165,195165,136,22,28,107,264,43,52,97
12:13:30.196165,196165,136,22,28,107,264,43,52,97
12:13:30.197165,197165,136,22,28,107,264,43,52,97
12:13:30.198165,198165,136,22,28,107,264,43,52,97
12:13:30.199165,199165,136,22,28,107,264,43,52,97
12:13:30.200166,200166,136,22,28,107,264,43,52,97
12:13:30.201167,201167,136,22,28,107,264,43,52,97
12:13:30.202165,202165,136,22,28,107,264,43,52,97
12:13:30.203166,203166,136,22,28,107,264,43,52,97
12:13:30.204165,204165,136,22,28,107,264,43,52,97
12:13:30.205168,205168,136,22,28,107,264,43,52,97
12:13:30.206165,206165,136,22,28,107,264,43,52,97
12:13:30.207165,207165,136,22,28,107,264,43,52,97
12:13:30.208166,208166,136,22,28,107,264,43,52,97
12:13:30.209166,209166,136,22,28,107,264,43,52,97
12:13:30.209166,209166,137,20,25,103,278,39,51,79
12:13:30.209166,209166,141,17,22,127,307,31,53,61
12:13:30.209166,209166,124,17,24,107,277,28,55,75
12:13:30.210167,210167,124,17,24,107,277,28,55,75
12:13:30.211165,211165,124,17,24,107,277,28,55,75
12:13:30.212166,212166,124,17,24,107,277,28,55,75
12:13:30.213166,213166,124,17,24,107,277,28,55,75
12:13:30.214165,214165,124,17,24,107,277,28,55,75
12:13:30.215166,215166,124,17,24,107,277,28,55,75
12:13:30.216165,216165,124,17,24,107,277,28,55,75
12:13:30.217166,217166,124,17,24,107,277,28,55,75
12:13:30.218166,218166,124,17,24,107,277,28,55,75
12:13:30.219165,219165,124,17,24,107,277,28,55,75
12:13:30.220166,220166,124,17,24,107,277,28,55,75
12:13:30.221167,221167,124,17,24,107,277,28,55,75
12:13:30.222167,222167,124,17,24,107,277,28,55,75
12:13:30.223166,223166,124,17,24,107,277,28,55,75
12:13:30.224165,224165,124,17,24,107,277,28,55,75
12:13:30.225166,225166,124,17,24,107,277,28,55,75
12:13:30.225166,225166,109,18,22,124,252,66,30,70
12:13:30.226166,226166,109,18,22,124,252,66,30,70
12:13:30.227165,227165,109,18,22,124,252,66,30,70
12:13:30.228165,228165,109,18,22,124,252,66,30,70
12:13:30.229166,229166,109,18,22,124,252,66,30,70
12:13:30.230166,230166,109,18,22,124,252,66,30,70
12:13:30.231166,231166,109,18,22,124,252,66,30,70
12:13:30.232165,232165,109,18,22,124,252,66,30,70
12:13:30.233165,233165,109,18,22,124,252,66,30,70
12:13:30.234166,234166,109,18,22,124,252,66,30,70
12:13:30.235166,235166,109,18,22,124,252,66,30,70
12:13:30.236165,236165,109,18,22,124,252,66,30,70
12:13:30.237165,237165,109,18,22,124,252,66,30,70
12:13:30.238165,238165,109,18,22,124,252,66,30,70
12:13:30.239165,239165,109,18,22,124,252,66,30,70
12:13:30.240165,240165,109,18,22,124,252,66,30,70
12:13:30.241165,241165,109,18,22,124,252,66,30,70
12:13:30.242166,242166,109,18,22,124,252,66,30,70
12:13:30.243166,243166,109,18,22,124,252,66,30,70
12:13:30.244165,244165,109,18,22,124,252,66,30,70
12:13:30.245165,245165,109,18,22,124,252,66,30,70
12:13:30.246165,246165,109,18,22,124,252,66,30,70
12:13:30.247166,247166,109,18,22,124,252,66,30,70
12:13:30.248165,248165,109,18,22,124,252,66,30,70
12:13:30.249165,249165,109,18,22,124,252,66,30,70
12:13:30.250166,250166,109,18,22,124,252,66,30,70
12:13:30.251166,251166,109,18,22,124,252,66,30,70
12:13:30.252166,252166,109,18,22,124,252,66,30,70
12:13:30.253165,253165,109,18,22,124,252,66,30,70
12:13:30.254165,254165,109,18,22,124,252,66,30,70
12:13:30.255166,255166,109,18,22,124,252,66,30,70
12:13:30.256165,256165,109,18,22,124,252,66,30,70
12:13:30.257167,257167,109,18,22,124,252,66,30,70
12:13:30.257167,257167,81,21,22,115,288,71,41,56
12:13:30.257167,257167,71,22,22,125,283,70,44,61
12:13:30.257167,257167,63,22,24,102,215,73,40,71
12:13:30.257167,257167,64,22,24,97,232,72,39,62
12:13:30.258166,258166,64,22,24,97,232,72,39,62
12:13:30.259165,259165,64,22,24,97,232,72,39,62
12:13:30.260165,260165,64,22,24,97,232,72,39,62
12:13:30.261165,261165,64,22,24,97,232,72,39,62
12:13:30.262164,262164,64,22,24,97,232,72,39,62
12:13:30.263166,263166,64,22,24,97,232,72,39,62
12:13:30.264167,264167,64,22,24,97,232,72,39,62
12:13:30.265167,265167,64,22,24,97,232,72,39,62
12:13:30.266165,266165,64,22,24,97,232,72,39,62
12:13:30.267167,267167,64,22,24,97,232,72,39,62
12:13:30.268165,268165,64,22,24,97,232,72,39,62
12:13:30.269165,269165,64,22,24,97,232,72,39,62
12:13:30.270165,270165,64,22,24,97,232,72,39,62
12:13:30.271166,271166,64,22,24,97,232,72,39,62
12:13:30.272166,272166,64,22,24,97,232,72,39,62
12:13:30.273166,273166,64,22,24,97,232,72,39,62
12:13:30.273166,273166,56,17,24,83,297,45,45,70
12:13:30.274166,274166,56,17,24,83,297,45,45,70
12:13:30.275166,275166,56,17,24,83,297,45,45,70
12:13:30.276166,276166,56,17,24,83,297,45,45,70
12:13:30.277165,277165,56,17,24,83,297,45,45,70
12:13:30.278166,278166,56,17,24,83,297,45,45,70
12:13:30.279166,279166,56,17,24,83,297,45,45,70
12:13:30.280167,280167,56,17,24,83,297,45,45,70
12:13:30.281165,281165,56,17,24,83,297,45,45,70
12:13:30.282165,282165,56,17,24,83,297,45,45,70
12:13:30.283165,283165,56,17,24,83,297,45,45,70
12:13:30.284167,284167,56,17,24,83,297,45,45,70
12:13:30.285167,285167,56,17,24,83,297,45,45,70
12:13:30.286166,286166,56,17,24,83,297,45,45,70
12:13:30.287165,287165,56,17,24,83,297,45,45,70
12:13:30.288165,288165,56,17,24,83,297,45,45,70
12:13:30.289165,289165,56,17,24,83,297,45,45,70
12:13:30.289165,289165,66,17,19,67,326,39,45,68
12:13:30.290167,290167,66,17,19,67,326,39,45,68
12:13:30.291165,291165,66,17,19,67,326,39,45,68
12:13:30.292165,292165,66,17,19,67,326,39,45,68
12:13:30.293165,293165,66,17,19,67,326,39,45,68
12:13:30.294165,294165,66,17,19,67,326,39,45,68
12:13:30.295167,295167,66,17,19,67,326,39,45,68
12:13:30.296165,296165,66,17,19,67,326,39,45,68
12:13:30.297166,297166,66,17,19,67,326,39,45,68
12:13:30.298166,298166,66,17,19,67,326,39,45,68
12:13:30.299166,299166,66,17,19,67,326,39,45,68
12:13:30.300166,300166,66,17,19,67,326,39,45,68
12:13:30.301168,301168,66,17,19,67,326,39,45,68
12:13:30.302166,302166,66,17,19,67,326,39,45,68
12:13:30.303166,303166,66,17,19,67,326,39,45,68
12:13:30.304165,304165,66,17,19,67,326,39,45,68
12:13:30.305167,305167,66,17,19,67,326,39,45,68
12:13:30.305167,305167,54,16,20,78,357,35,41,67
12:13:30.306165,306165,54,16,20,78,357,35,41,67
12:13:30.307163,307163,54,16,20,78,357,35,41,67
12:13:30.308163,308163,54,16,20,78,357,35,41,67
12:13:30.309164,309164,54,16,20,78,357,35,41,67
12:13:30.310163,310163,54,16,20,78,357,35,41,67
12:13:30.311163,311163,54,16,20,78,357,35,41,67
12:13:30.312163,312163,54,16,20,78,357,35,41,67
12:13:30.313163,313163,54,16,20,78,357,35,41,67
12:13:30.314163,314163,54,16,20,78,357,35,41,67
12:13:30.315163,315163,54,16,20,78,357,35,41,67
12:13:30.316163,316163,54,16,20,78,357,35,41,67
12:13:30.317163,317163,54,16,20,78,357,35,41,67
12:13:30.318163,318163,54,16,20,78,357,35,41,67
12:13:30.319163,319163,54,16,20,78,357,35,41,67
12:13:30.320163,320163,54,16,20,78,357,35,41,67
12:13:30.321163,321163,54,16,20,78,357,35,41,67
12:13:30.321163,321163,69,15,19,112,393,35,44,66
12:13:30.322163,322163,69,15,19,112,393,35,44,66
12:13:30.323166,323166,69,15,19,112,393,35,44,66
12:13:30.324166,324166,69,15,19,112,393,35,44,66
12:13:30.325163,325163,69,15,19,112,393,35,44,66
12:13:30.326170,326170,69,15,19,112,393,35,44,66
12:13:30.327165,327165,69,15,19,112,393,35,44,66
12:13:30.328164,328164,69,15,19,112,393,35,44,66
12:13:30.329164,329164,69,15,19,112,393,35,44,66
12:13:30.330163,330163,69,15,19,112,393,35,44,66
12:13:30.331165,331165,69,15,19,112,393,35,44,66
12:13:30.332165,332165,69,15,19,112,393,35,44,66
12:13:30.333164,333164,69,15,19,112,393,35,44,66
12:13:30.334163,334163,69,15,19,112,393,35,44,66
12:13:30.335164,335164,69,15,19,112,393,35,44,66
12:13:30.336164,336164,69,15,19,112,393,35,44,66
12:13:30.337163,337163,69,15,19,112,393,35,44,66
12:13:30.337163,337163,116,22,25,162,642,58,28,63
12:13:30.337163,337163,128,27,32,172,526,59,24,82
12:13:30.337163,337163,112,26,32,177,581,62,24,111
12:13:30.338164,338164,112,26,32,177,581,62,24,111
12:13:30.339166,339166,112,26,32,177,581,62,24,111
12:13:30.340165,340165,112,26,32,177,581,62,24,111
12:13:30.341164,341164,112,26,32,177,581,62,24,111
12:13:30.342164,342164,112,26,32,177,581,62,24,111
12:13:30.343164,343164,112,26,32,177,581,62,24,111
12:13:30.344164,344164,112,26,32,177,581,62,24,111
12:13:30.345165,345165,112,26,32,177,581,62,24,111
12:13:30.346165,346165,112,26,32,177,581,62,24,111
12:13:30.347163,347163,112,26,32,177,581,62,24,111
12:13:30.348166,348166,112,26,32,177,581,62,24,111
12:13:30.349164,349164,112,26,32,177,581,62,24,111
12:13:30.350164,350164,112,26,32,177,581,62,24,111
12:13:30.351165,351165,112,26,32,177,581,62,24,111
12:13:30.352165,352165,112,26,32,177,581,62,24,111
12:13:30.352165,352165,128,24,29,166,557,60,30,107
12:13:30.353165,353165,128,24,29,166,557,60,30,107
12:13:30.354165,354165,128,24,29,166,557,60,30,107
12:13:30.355165,355165,128,24,29,166,557,60,30,107
12:13:30.356203,356203,128,24,29,166,557,60,30,107
12:13:30.357202,357202,128,24,29,166,557,60,30,107
12:13:30.358202,358202,128,24,29,166,557,60,30,107
12:13:30.359164,359164,128,24,29,166,557,60,30,107
12:13:30.360215,360215,128,24,29,166,557,60,30,107
12:13:30.361167,361167,128,24,29,166,557,60,30,107
12:13:30.362164,362164,128,24,29,166,557,60,30,107
12:13:30.363166,363166,128,24,29,166,557,60,30,107
12:13:30.364164,364164,128,24,29,166,557,60,30,107
12:13:30.365164,365164,128,24,29,166,557,60,30,107
12:13:30.366201,366201,128,24,29,166,557,60,30,107
12:13:30.367202,367202,128,24,29,166,557,60,30,107
12:13:30.367444,367444,113,23,29,132,558,62,28,115
12:13:30.368195,368195,113,23,29,132,558,62,28,115
12:13:30.369190,369190,113,23,29,132,558,62,28,115
12:13:30.370201,370201,113,23,29,132,558,62,28,115
12:13:30.372165,372165,113,23,29,132,558,62,28,115
12:13:30.373163,373163,113,23,29,132,558,62,28,115
12:13:30.374165,374165,113,23,29,132,558,62,28,115
12:13:30.375163,375163,113,23,29,132,558,62,28,115
12:13:30.376164,376164,113,23,29,132,558,62,28,115
12:13:30.377163,377163,113,23,29,132,558,62,28,115
12:13:30.378166,378166,113,23,29,132,558,62,28,115
12:13:30.379212,379212,113,23,29,132,558,62,28,115
12:13:30.380201,380201,113,23,29,132,558,62,28,115
12:13:30.381212,381212,113,23,29,132,558,62,28,115
12:13:30.382164,382164,113,23,29,132,558,62,28,115
12:13:30.382164,382164,76,19,18,90,411,43,37,86
12:13:30.383166,383166,76,19,18,90,411,43,37,86
12:13:30.384165,384165,76,19,18,90,411,43,37,86
12:13:30.385201,385201,76,19,18,90,411,43,37,86
12:13:30.386165,386165,76,19,18,90,411,43,37,86
12:13:30.387165,387165,76,19,18,90,411,43,37,86
12:13:30.388167,388167,76,19,18,90,411,43,37,86
12:13:30.389167,389167,76,19,18,90,411,43,37,86
12:13:30.390166,390166,76,19,18,90,411,43,37,86
12:13:30.391166,391166,76,19,18,90,411,43,37,86
12:13:30.392166,392166,76,19,18,90,411,43,37,86
12:13:30.393166,393166,76,19,18,90,411,43,37,86
12:13:30.394165,394165,76,19,18,90,411,43,37,86
12:13:30.395166,395166,76,19,18,90,411,43,37,86
12:13:30.396165,396165,76,19,18,90,411,43,37,86
12:13:30.397165,397165,76,19,18,90,411,43,37,86
12:13:30.398166,398166,76,19,18,90,411,43,37,86
12:13:30.399166,399166,76,19,18,90,411,43,37,86
12:13:30.399166,399166,59,21,18,101,409,48,31,87
12:13:30.400167,400167,59,21,18,101,409,48,31,87
12:13:30.401166,401166,59,21,18,101,409,48,31,87
12:13:30.402165,402165,59,21,18,101,409,48,31,87
12:13:30.403165,403165,59,21,18,101,409,48,31,87
12:13:30.404165,404165,59,21,18,101,409,48,31,87
12:13:30.405166,405166,59,21,18,101,409,48,31,87
12:13:30.406166,406166,59,21,18,101,409,48,31,87
12:13:30.407165,407165,59,21,18,101,409,48,31,87
12:13:30.408165,408165,59,21,18,101,409,48,31,87
12:13:30.409167,409167,59,21,18,101,409,48,31,87
12:13:30.410166,410166,59,21,18,101,409,48,31,87
12:13:30.411165,411165,59,21,18,101,409,48,31,87
12:13:30.412165,412165,59,21,18,101,409,48,31,87
12:13:30.413166,413166,59,21,18,101,409,48,31,87
12:13:30.414166,414166,59,21,18,101,409,48,31,87
12:13:30.415167,415167,59,21,18,101,409,48,31,87
12:13:30.415167,415167,79,15,19,118,444,52,40,65
12:13:30.416165,416165,79,15,19,118,444,52,40,65
12:13:30.417166,417166,79,15,19,118,444,52,40,65
12:13:30.418165,418165,79,15,19,118,444,52,40,65
12:13:30.419165,419165,79,15,19,118,444,52,40,65
12:13:30.420164,420164,79,15,19,118,444,52,40,65
12:13:30.421164,421164,79,15,19,118,444,52,40,65
12:13:30.422166,422166,79,15,19,118,444,52,40,65
12:13:30.423165,423165,79,15,19,118,444,52,40,65
12:13:30.424165,424165,79,15,19,118,444,52,40,65
12:13:30.425166,425166,79,15,19,118,444,52,40,65
12:13:30.426166,426166,79,15,19,118,444,52,40,65
12:13:30.427165,427165,79,15,19,118,444,52,40,65
12:13:30.428165,428165,79,15,19,118,444,52,40,65
12:13:30.429166,429166,79,15,19,118,444,52,40,65
12:13:30.430168,430168,79,15,19,118,444,52,40,65
12:13:30.431167,431167,79,15,19,118,444,52,40,65
12:13:30.431167,431167,93,18,21,100,462,47,41,59
12:13:30.431167,431167,93,19,20,79,450,53,47,50
12:13:30.431167,431167,79,20,21,79,411,50,44,41
12:13:30.432167,432167,79,20,21,79,411,50,44,41
12:13:30.433165,433165,79,20,21,79,411,50,44,41
12:13:30.434165,434165,79,20,21,79,411,50,44,41
12:13:30.435165,435165,79,20,21,79,411,50,44,41
12:13:30.436165,436165,79,20,21,79,411,50,44,41
12:13:30.437165,437165,79,20,21,79,411,50,44,41
12:13:30.438166,438166,79,20,21,79,411,50,44,41
12:13:30.439165,439165,79,20,21,79,411,50,44,41
12:13:30.440164,440164,79,20,21,79,411,50,44,41
12:13:30.441165,441165,79,20,21,79,411,50,44,41
12:13:30.442165,442165,79,20,21,79,411,50,44,41
12:13:30.443165,443165,79,20,21,79,411,50,44,41
12:13:30.444165,444165,79,20,21,79,411,50,44,41
12:13:30.445166,445166,79,20,21,79,411,50,44,41
12:13:30.446165,446165,79,20,21,79,411,50,44,41
12:13:30.447166,447166,97,21,29,92,448,66,35,42
12:13:30.448167,448167,97,21,29,92,448,66,35,42
12:13:30.449165,449165,97,21,29,92,448,66,35,42
12:13:30.450166,450166,97,21,29,92,448,66,35,42
12:13:30.451167,451167,97,21,29,92,448,66,35,42
12:13:30.452167,452167,97,21,29,92,448,66,35,42
12:13:30.453166,453166,97,21,29,92,448,66,35,42
12:13:30.454165,454165,97,21,29,92,448,66,35,42
12:13:30.455166,455166,97,21,29,92,448,66,35,42
12:13:30.456164,456164,97,21,29,92,448,66,35,42
12:13:30.457165,457165,97,21,29,92,448,66,35,42
12:13:30.458164,458164,97,21,29,92,448,66,35,42
12:13:30.459165,459165,97,21,29,92,448,66,35,42
12:13:30.460165,460165,97,21,29,92,448,66,35,42
12:13:30.461166,461166,97,21,29,92,448,66,35,42
12:13:30.462164,462164,97,21,29,92,448,66,35,42
12:13:30.463165,463165,97,21,29,92,448,66,35,42
12:13:30.464167,464167,97,21,29,92,448,66,35,42
12:13:30.465166,465166,97,21,29,92,448,66,35,42
12:13:30.466165,466165,97,21,29,92,448,66,35,42
12:13:30.467165,467165,97,21,29,92,448,66,35,42
12:13:30.468165,468165,97,21,29,92,448,66,35,42
12:13:30.469164,469164,97,21,29,92,448,66,35,42
12:13:30.470166,470166,97,21,29,92,448,66,35,42
12:13:30.471166,471166,97,21,29,92,448,66,35,42
12:13:30.472166,472166,97,21,29,92,448,66,35,42
12:13:30.473165,473165,97,21,29,92,448,66,35,42
12:13:30.474165,474165,97,21,29,92,448,66,35,42
12:13:30.475167,475167,97,21,29,92,448,66,35,42
12:13:30.476165,476165,97,21,29,92,448,66,35,42
12:13:30.477165,477165,97,21,29,92,448,66,35,42
12:13:30.478165,478165,97,21,29,92,448,66,35,42
12:13:30.479165,479165,97,21,29,92,448,66,35,42
12:13:30.479165,479165,82,23,34,117,370,64,32,44
12:13:30.480166,480166,82,23,34,117,370,64,32,44
12:13:30.481165,481165,82,23,34,117,370,64,32,44
12:13:30.482165,482165,82,23,34,117,370,64,32,44
12:13:30.483164,483164,82,23,34,117,370,64,32,44
12:13:30.484166,484166,82,23,34,117,370,64,32,44
12:13:30.485166,485166,82,23,34,117,370,64,32,44
12:13:30.486165,486165,82,23,34,117,370,64,32,44
12:13:30.487165,487165,82,23,34,117,370,64,32,44
12:13:30.488165,488165,82,23,34,117,370,64,32,44
12:13:30.489165,489165,82,23,34,117,370,64,32,44
12:13:30.490166,490166,82,23,34,117,370,64,32,44
12:13:30.491166,491166,82,23,34,117,370,64,32,44
12:13:30.492167,492167,82,23,34,117,370,64,32,44
12:13:30.493167,493167,82,23,34,117,370,64,32,44
12:13:30.494165,494165,82,23,34,117,370,64,32,44
12:13:30.495165,495165,64,25,32,130,364,73,33,36
12:13:30.496165,496165,64,25,32,130,364,73,33,36
12:13:30.497166,497166,64,25,32,130,364,73,33,36
12:13:30.498165,498165,64,25,32,130,364,73,33,36
12:13:30.499165,499165,64,25,32,130,364,73,33,36
12:13:30.500165,500165,64,25,32,130,364,73,33,36
12:13:30.501164,501164,64,25,32,130,364,73,33,36
12:13:30.502165,502165,64,25,32,130,364,73,33,36
12:13:30.503164,503164,64,25,32,130,364,73,33,36
12:13:30.504165,504165,64,25,32,130,364,73,33,36
12:13:30.505168,505168,64,25,32,130,364,73,33,36
12:13:30.506165,506165,64,25,32,130,364,73,33,36
12:13:30.507165,507165,64,25,32,130,364,73,33,36
12:13:30.508164,508164,64,25,32,130,364,73,33,36
12:13:30.509165,509165,64,25,32,130,364,73,33,36
12:13:30.510165,510165,64,25,32,130,364,73,33,36
12:13:30.511166,511166,64,25,32,130,364,73,33,36
12:13:30.511166,511166,50,21,40,136,461,73,28,30
12:13:30.511166,511166,55,24,47,139,435,77,23,25
12:13:30.511166,511166,26,26,44,200,311,67,26,27
12:13:30.511166,511166,28,24,44,204,325,70,31,28
12:13:30.512166,512166,30,21,42,202,369,61,29,28
12:13:30.513166,513166,30,21,42,202,369,61,29,28
12:13:30.514167,514167,30,21,42,202,369,61,29,28
12:13:30.515166,515166,30,21,42,202,369,61,29,28
12:13:30.516165,516165,30,21,42,202,369,61,29,28
12:13:30.517166,517166,30,21,42,202,369,61,29,28
12:13:30.518166,518166,30,21,42,202,369,61,29,28
12:13:30.519171,519171,30,21,42,202,369,61,29,28
12:13:30.520166,520166,30,21,42,202,369,61,29,28
12:13:30.521165,521165,30,21,42,202,369,61,29,28
12:13:30.522165,522165,30,21,42,202,369,61,29,28
12:13:30.523165,523165,30,21,42,202,369,61,29,28
12:13:30.524165,524165,30,21,42,202,369,61,29,28
12:13:30.525167,525167,30,21,42,202,369,61,29,28
12:13:30.526165,526165,30,21,42,202,369,61,29,28
12:13:30.527165,527165,30,21,42,202,369,61,29,28
12:13:30.527165,527165,30,19,45,201,360,60,27,27
12:13:30.528164,528164,30,19,45,201,360,60,27,27
12:13:30.529167,529167,30,19,45,201,360,60,27,27
12:13:30.530166,530166,30,19,45,201,360,60,27,27
12:13:30.531165,531165,30,19,45,201,360,60,27,27
12:13:30.532164,532164,30,19,45,201,360,60,27,27
12:13:30.533165,533165,30,19,45,201,360,60,27,27
12:13:30.534164,534164,30,19,45,201,360,60,27,27
12:13:30.535167,535167,30,19,45,201,360,60,27,27
12:13:30.536166,536166,30,19,45,201,360,60,27,27
12:13:30.537162,537162,30,19,45,201,360,60,27,27
12:13:30.538163,538163,30,19,45,201,360,60,27,27
12:13:30.539166,539166,30,19,45,201,360,60,27,27
12:13:30.540168,540168,30,19,45,201,360,60,27,27
12:13:30.541163,541163,30,19,45,201,360,60,27,27
12:13:30.542164,542164,30,19,45,201,360,60,27,27
12:13:30.543164,543164,23,11,34,239,430,59,23,20
12:13:30.543164,543164,23,12,35,210,422,60,20,18
12:13:30.544164,544164,23,12,35,210,422,60,20,18
12:13:30.545168,545168,23,12,35,210,422,60,20,18
12:13:30.546165,546165,23,12,35,210,422,60,20,18
12:13:30.547165,547165,23,12,35,210,422,60,20,18
12:13:30.548166,548166,23,12,35,210,422,60,20,18
12:13:30.549165,549165,23,12,35,210,422,60,20,18
12:13:30.550166,550166,23,12,35,210,422,60,20,18
12:13:30.551164,551164,23,12,35,210,422,60,20,18
12:13:30.552164,552164,23,12,35,210,422,60,20,18
12:13:30.553165,553165,23,12,35,210,422,60,20,18
12:13:30.554167,554167,23,12,35,210,422,60,20,18
12:13:30.555166,555166,23,12,35,210,422,60,20,18
12:13:30.556165,556165,23,12,35,210,422,60,20,18
12:13:30.557165,557165,23,12,35,210,422,60,20,18
12:13:30.558164,558164,18,10,32,167,433,60,17,18
12:13:30.559166,559166,18,10,32,167,433,60,17,18
12:13:30.560166,560166,18,10,32,167,433,60,17,18
12:13:30.561163,561163,18,10,32,167,433,60,17,18
12:13:30.562165,562165,18,10,32,167,433,60,17,18
12:13:30.563165,563165,18,10,32,167,433,60,17,18
12:13:30.564166,564166,18,10,32,167,433,60,17,18
12:13:30.565169,565169,18,10,32,167,433,60,17,18
12:13:30.566165,566165,18,10,32,167,433,60,17,18
12:13:30.567164,567164,18,10,32,167,433,60,17,18
12:13:30.568165,568165,18,10,32,167,433,60,17,18
12:13:30.569164,569164,18,10,32,167,433,60,17,18
12:13:30.570165,570165,18,10,32,167,433,60,17,18
12:13:30.571165,571165,18,10,32,167,433,60,17,18
12:13:30.572165,572165,18,10,32,167,433,60,17,18
12:13:30.573165,573165,18,10,32,167,433,60,17,18
12:13:30.574165,574165,18,10,32,167,433,60,17,18
12:13:30.574165,574165,11,10,29,143,383,67,17,21
12:13:30.575164,575164,11,10,29,143,383,67,17,21
12:13:30.576168,576168,11,10,29,143,383,67,17,21
12:13:30.577167,577167,11,10,29,143,383,67,17,21
12:13:30.578168,578168,11,10,29,143,383,67,17,21
12:13:30.579171,579171,11,10,29,143,383,67,17,21
12:13:30.580166,580166,11,10,29,143,383,67,17,21
12:13:30.581164,581164,11,10,29,143,383,67,17,21
12:13:30.582165,582165,11,10,29,143,383,67,17,21
12:13:30.583164,583164,11,10,29,143,383,67,17,21
12:13:30.584164,584164,11,10,29,143,383,67,17,21
12:13:30.585203,585203,11,10,29,143,383,67,17,21
12:13:30.586201,586201,11,10,29,143,383,67,17,21
12:13:30.587200,587200,11,10,29,143,383,67,17,21
12:13:30.588166,588166,11,10,29,143,383,67,17,21
12:13:30.589166,589166,11,10,29,143,383,67,17,21
12:13:30.590201,590201,11,10,29,143,383,67,17,21
12:13:30.590201,590201,11,12,28,158,388,64,20,20
12:13:30.591169,591169,11,12,28,158,388,64,20,20
12:13:30.592166,592166,11,12,28,158,388,64,20,20
12:13:30.593168,593168,11,12,28,158,388,64,20,20
12:13:30.594168,594168,11,12,28,158,388,64,20,20
12:13:30.595169,595169,11,12,28,158,388,64,20,20
12:13:30.596164,596164,11,12,28,158,388,64,20,20
12:13:30.597170,597170,11,12,28,158,388,64,20,20
12:13:30.598208,598208,11,12,28,158,388,64,20,20
12:13:30.599181,599181,11,12,28,158,388,64,20,20
12:13:30.600203,600203,11,12,28,158,388,64,20,20
12:13:30.601201,601201,11,12,28,158,388,64,20,20
12:13:30.602167,602167,11,12,28,158,388,64,20,20
12:13:30.603204,603204,11,12,28,158,388,64,20,20
12:13:30.604205,604205,11,12,28,158,388,64,20,20
12:13:30.605201,605201,11,12,28,158,388,64,20,20
12:13:30.606166,606166,11,12,28,158,388,64,20,20
12:13:30.606166,606166,9,13,24,163,369,58,27,23
12:13:30.607165,607165,9,13,24,163,369,58,27,23
12:13:30.608163,608163,9,13,24,163,369,58,27,23
12:13:30.609164,609164,9,13,24,163,369,58,27,23
12:13:30.610163,610163,9,13,24,163,369,58,27,23
12:13:30.611163,611163,9,13,24,163,369,58,27,23
12:13:30.612163,612163,9,13,24,163,369,58,27,23
12:13:30.613163,613163,9,13,24,163,369,58,27,23
12:13:30.614163,614163,9,13,24,163,369,58,27,23
12:13:30.615163,615163,9,13,24,163,369,58,27,23
12:13:30.616163,616163,9,13,24,163,369,58,27,23
12:13:30.617164,617164,9,13,24,163,369,58,27,23
12:13:30.618165,618165,9,13,24,163,369,58,27,23
12:13:30.619163,619163,9,13,24,163,369,58,27,23
12:13:30.620163,620163,9,13,24,163,369,58,27,23
12:13:30.621163,621163,9,13,24,163,369,58,27,23
12:13:30.622163,622163,9,12,24,125,312,51,28,23
12:13:30.622163,622163,11,12,21,114,278,45,27,23
12:13:30.622163,622163,9,14,22,106,231,40,23,20
12:13:30.622163,622163,12,18,25,102,247,45,22,15
12:13:30.623164,623164,12,18,30,114,268,44,21,14
12:13:30.624164,624164,12,18,30,114,268,44,21,14
12:13:30.625165,625165,12,18,30,114,268,44,21,14
12:13:30.626167,626167,12,18,30,114,268,44,21,14
12:13:30.627164,627164,12,18,30,114,268,44,21,14
12:13:30.628165,628165,12,18,30,114,268,44,21,14
12:13:30.629166,629166,12,18,30,114,268,44,21,14
12:13:30.630164,630164,12,18,30,114,268,44,21,14
12:13:30.631166,631166,12,18,30,114,268,44,21,14
12:13:30.631166,631166,8,18,31,120,271,48,15,13
12:13:30.632169,632169,8,18,31,120,271,48,15,13
12:13:30.633164,633164,8,18,31,120,271,48,15,13
12:13:30.634165,634165,8,18,31,120,271,48,15,13
12:13:30.635165,635165,8,18,31,120,271,48,15,13
12:13:30.636167,636167,8,18,31,120,271,48,15,13
12:13:30.637163,637163,8,18,31,120,271,48,15,13
12:13:30.638165,638165,8,18,31,120,271,48,15,13
12:13:30.639168,639168,8,18,31,120,271,48,15,13
12:13:30.640165,640165,8,18,31,120,271,48,15,13
12:13:30.641164,641164,8,18,31,120,271,48,15,13
12:13:30.642167,642167,8,18,31,120,271,48,15,13
12:13:30.643167,643167,8,18,31,120,271,48,15,13
12:13:30.644166,644166,8,18,31,120,271,48,15,13
12:13:30.645163,645163,8,18,31,120,271,48,15,13
12:13:30.646163,646163,8,18,31,120,271,48,15,13
12:13:30.647165,647165,8,18,31,120,271,48,15,13
12:13:30.648164,648164,8,18,31,120,271,48,15,13
12:13:30.649168,649168,8,18,31,120,271,48,15,13
12:13:30.650169,650169,8,18,31,120,271,48,15,13
12:13:30.651165,651165,8,18,31,120,271,48,15,13
12:13:30.652191,652191,8,18,31,120,271,48,15,13
12:13:30.653164,653164,8,18,31,120,271,48,15,13
12:13:30.654165,654165,8,18,31,120,271,48,15,13
12:13:30.654165,654165,8,18,33,120,219,49,17,12
12:13:30.655165,655165,8,18,33,120,219,49,17,12
12:13:30.656165,656165,8,18,33,120,219,49,17,12
12:13:30.657165,657165,8,18,33,120,219,49,17,12
12:13:30.658167,658167,8,18,33,120,219,49,17,12
12:13:30.659168,659168,8,18,33,120,219,49,17,12
12:13:30.660166,660166,8,18,33,120,219,49,17,12
12:13:30.661167,661167,8,18,33,120,219,49,17,12
12:13:30.662165,662165,8,18,33,120,219,49,17,12
12:13:30.663166,663166,8,18,33,120,219,49,17,12
12:13:30.664166,664166,8,18,33,120,219,49,17,12
12:13:30.665165,665165,8,18,33,120,219,49,17,12
12:13:30.666165,666165,8,18,33,120,219,49,17,12
12:13:30.667164,667164,8,18,33,120,219,49,17,12
12:13:30.668165,668165,8,18,33,120,219,49,17,12
12:13:30.669165,669165,8,18,33,120,219,49,17,12
12:13:30.670165,670165,8,18,33,120,219,49,17,12
12:13:30.670165,670165,11,22,40,100,199,46,17,15
12:13:30.671163,671163,11,22,40,100,199,46,17,15
12:13:30.672166,672166,11,22,40,100,199,46,17,15
12:13:30.673165,673165,11,22,40,100,199,46,17,15
12:13:30.674163,674163,11,22,40,100,199,46,17,15
12:13:30.675166,675166,11,22,40,100,199,46,17,15
12:13:30.676164,676164,11,22,40,100,199,46,17,15
12:13:30.677164,677164,11,22,40,100,199,46,17,15
12:13:30.678166,678166,11,22,40,100,199,46,17,15
12:13:30.679203,679203,11,22,40,100,199,46,17,15
12:13:30.680186,680186,11,22,40,100,199,46,17,15
12:13:30.681165,681165,11,22,40,100,199,46,17,15
12:13:30.682165,682165,11,22,40,100,199,46,17,15
12:13:30.683166,683166,11,22,40,100,199,46,17,15
12:13:30.684166,684166,11,22,40,100,199,46,17,15
12:13:30.685164,685164,11,22,40,100,199,46,17,15
12:13:30.686199,686199,11,22,40,100,199,46,17,15
12:13:30.686199,686199,11,23,39,115,212,64,16,15
12:13:30.687164,687164,11,23,39,115,212,64,16,15
12:13:30.688165,688165,11,23,39,115,212,64,16,15
12:13:30.689165,689165,11,23,39,115,212,64,16,15
12:13:30.690197,690197,11,23,39,115,212,64,16,15
12:13:30.691164,691164,11,23,39,115,212,64,16,15
12:13:30.692164,692164,11,23,39,115,212,64,16,15
12:13:30.693164,693164,11,23,39,115,212,64,16,15
12:13:30.694164,694164,11,23,39,115,212,64,16,15
12:13:30.695164,695164,11,23,39,115,212,64,16,15
12:13:30.696164,696164,11,23,39,115,212,64,16,15
12:13:30.697164,697164,11,23,39,115,212,64,16,15
12:13:30.698165,698165,11,23,39,115,212,64,16,15
12:13:30.699164,699164,11,23,39,115,212,64,16,15
12:13:30.700164,700164,11,23,39,115,212,64,16,15
12:13:30.701169,701169,11,23,39,115,212,64,16,15
12:13:30.702167,702167,11,23,39,115,212,64,16,15
12:13:30.702167,702167,9,21,41,105,217,68,15,13
12:13:30.703167,703167,9,21,41,105,217,68,15,13
12:13:30.704167,704167,9,21,41,105,217,68,15,13
12:13:30.705167,705167,9,21,41,105,217,68,15,13
12:13:30.706165,706165,9,21,41,105,217,68,15,13
12:13:30.707164,707164,9,21,41,105,217,68,15,13
12:13:30.708165,708165,9,21,41,105,217,68,15,13
12:13:30.709200,709200,9,21,41,105,217,68,15,13
12:13:30.710164,710164,9,21,41,105,217,68,15,13
12:13:30.711165,711165,9,21,41,105,217,68,15,13
12:13:30.712165,712165,9,21,41,105,217,68,15,13
12:13:30.713165,713165,9,21,41,105,217,68,15,13
12:13:30.714165,714165,9,21,41,105,217,68,15,13
12:13:30.715201,715201,9,21,41,105,217,68,15,13
12:13:30.716164,716164,9,21,41,105,217,68,15,13
12:13:30.717165,717165,9,21,41,105,217,68,15,13
12:13:30.718164,718164,9,21,41,105,217,68,15,13
12:13:30.718164,718164,10,19,41,106,221,63,15,12
12:13:30.718164,718164,13,21,38,98,215,66,20,13
12:13:30.718164,718164,13,20,34,102,184,62,23,14
12:13:30.719165,719165,15,24,37,93,169,61,23,14
12:13:30.719165,719165,16,21,31,75,139,68,25,13
12:13:30.719165,719165,19,21,32,66,140,64,28,15
12:13:30.719165,719165,20,23,32,63,150,71,28,14
12:13:30.719165,719165,18,17,25,65,169,62,37,18
12:13:30.720164,720164,18,16,27,60,154,57,37,23
12:13:30.720164,720164,22,19,29,62,154,52,41,24
12:13:30.720164,720164,31,19,29,65,117,54,48,29
12:13:30.721164,721164,31,19,29,65,117,54,48,29
12:13:30.722168,722168,31,19,29,65,117,54,48,29
12:13:30.723167,723167,31,19,29,65,117,54,48,29
12:13:30.724164,724164,31,19,29,65,117,54,48,29
12:13:30.725166,725166,31,19,29,65,117,54,48,29
12:13:30.726165,726165,31,19,29,65,117,54,48,29
12:13:30.727165,727165,31,19,29,65,117,54,48,29
12:13:30.728199,728199,31,19,29,65,117,54,48,29
12:13:30.729165,729165,31,19,29,65,117,54,48,29
12:13:30.730201,730201,31,19,29,65,117,54,48,29
12:13:30.731164,731164,31,19,29,65,117,54,48,29
12:13:30.732165,732165,31,19,29,65,117,54,48,29
12:13:30.733165,733165,31,19,29,65,117,54,48,29
12:13:30.734164,734164,31,19,29,65,117,54,48,29
12:13:30.734164,734164,34,19,31,67,102,50,42,33
12:13:30.734164,734164,37,17,23,72,130,58,43,39
12:13:30.734164,734164,56,18,24,67,192,51,49,48
12:13:30.734164,734164,63,17,24,85,243,52,51,50
12:13:30.735168,735168,63,17,24,85,243,52,51,50
12:13:30.736166,736166,63,17,24,85,243,52,51,50
12:13:30.737165,737165,63,17,24,85,243,52,51,50
12:13:30.738165,738165,63,17,24,85,243,52,51,50
12:13:30.739207,739207,63,17,24,85,243,52,51,50
12:13:30.740202,740202,63,17,24,85,243,52,51,50
12:13:30.741200,741200,63,17,24,85,243,52,51,50
12:13:30.742165,742165,63,17,24,85,243,52,51,50
12:13:30.743166,743166,63,17,24,85,243,52,51,50
12:13:30.744164,744164,63,17,24,85,243,52,51,50
12:13:30.745165,745165,63,17,24,85,243,52,51,50
12:13:30.746165,746165,63,17,24,85,243,52,51,50
12:13:30.747165,747165,63,17,24,85,243,52,51,50
12:13:30.748164,748164,63,17,24,85,243,52,51,50
12:13:30.749164,749164,63,17,24,85,243,52,51,50
12:13:30.750164,750164,63,17,24,85,243,52,51,50
12:13:30.750164,750164,64,15,24,100,276,52,52,51
12:13:30.751164,751164,64,15,24,100,276,52,52,51
12:13:30.752203,752203,64,15,24,100,276,52,52,51
12:13:30.753164,753164,64,15,24,100,276,52,52,51
12:13:30.754165,754165,64,15,24,100,276,52,52,51
12:13:30.755201,755201,64,15,24,100,276,52,52,51
12:13:30.756202,756202,64,15,24,100,276,52,52,51
12:13:30.760165,760165,64,15,24,100,276,52,52,51
12:13:30.761200,761200,64,15,24,100,276,52,52,51
12:13:30.762200,762200,64,15,24,100,276,52,52,51
12:13:30.763203,763203,64,15,24,100,276,52,52,51
12:13:30.764164,764164,64,15,24,100,276,52,52,51
12:13:30.765166,765166,64,15,24,100,276,52,52,51
12:13:30.766168,766168,63,19,25,93,287,60,50,47
12:13:30.767167,767167,63,19,25,93,287,60,50,47
12:13:30.768203,768203,63,19,25,93,287,60,50,47
12:13:30.769180,769180,63,19,25,93,287,60,50,47
12:13:30.770165,770165,63,19,25,93,287,60,50,47
12:13:30.771164,771164,63,19,25,93,287,60,50,47
12:13:30.772163,772163,63,19,25,93,287,60,50,47
12:13:30.773164,773164,63,19,25,93,287,60,50,47
12:13:30.774165,774165,63,19,25,93,287,60,50,47
12:13:30.775165,775165,63,19,25,93,287,60,50,47
12:13:30.776165,776165,63,19,25,93,287,60,50,47
12:13:30.777215,777215,63,19,25,93,287,60,50,47
12:13:30.778199,778199,63,19,25,93,287,60,50,47
12:13:30.779164,779164,63,19,25,93,287,60,50,47
12:13:30.780166,780166,63,19,25,93,287,60,50,47
12:13:30.781203,781203,63,19,25,93,287,60,50,47
12:13:30.782201,782201,63,19,25,93,287,60,50,47
12:13:30.782201,782201,102,20,23,111,400,70,69,51
12:13:30.783165,783165,102,20,23,111,400,70,69,51
12:13:30.784168,784168,102,20,23,111,400,70,69,51
12:13:30.785167,785167,102,20,23,111,400,70,69,51
12:13:30.786165,786165,102,20,23,111,400,70,69,51
12:13:30.787165,787165,102,20,23,111,400,70,69,51
12:13:30.788204,788204,102,20,23,111,400,70,69,51
12:13:30.789165,789165,102,20,23,111,400,70,69,51
12:13:30.790164,790164,102,20,23,111,400,70,69,51
12:13:30.791164,791164,102,20,23,111,400,70,69,51
12:13:30.792165,792165,102,20,23,111,400,70,69,51
12:13:30.793165,793165,102,20,23,111,400,70,69,51
12:13:30.794164,794164,102,20,23,111,400,70,69,51
12:13:30.795202,795202,102,20,23,111,400,70,69,51
12:13:30.796193,796193,102,20,23,111,400,70,69,51
12:13:30.797204,797204,102,20,23,111,400,70,69,51
12:13:30.798200,798200,127,21,23,111,434,70,60,53
12:13:30.799164,799164,127,21,23,111,434,70,60,53
12:13:30.800164,800164,127,21,23,111,434,70,60,53
12:13:30.801164,801164,127,21,23,111,434,70,60,53
12:13:30.802165,802165,127,21,23,111,434,70,60,53
12:13:30.803200,803200,127,21,23,111,434,70,60,53
12:13:30.804203,804203,127,21,23,111,434,70,60,53
12:13:30.805165,805165,127,21,23,111,434,70,60,53
12:13:30.806202,806202,127,21,23,111,434,70,60,53
12:13:30.807201,807201,127,21,23,111,434,70,60,53
12:13:30.808163,808163,127,21,23,111,434,70,60,53
12:13:30.809165,809165,127,21,23,111,434,70,60,53
12:13:30.810200,810200,127,21,23,111,434,70,60,53
12:13:30.811202,811202,127,21,23,111,434,70,60,53
12:13:30.812200,812200,127,21,23,111,434,70,60,53
12:13:30.813182,813182,127,21,23,111,434,70,60,53
12:13:30.814200,814200,127,21,23,111,434,70,60,53
12:13:30.814200,814200,160,21,21,108,418,80,85,61
12:13:30.814200,814200,171,19,20,117,428,96,78,61
12:13:30.814200,814200,206,20,19,100,419,95,75,78
12:13:30.815164,815164,202,16,16,75,358,62,79,289
12:13:30.816164,816164,202,16,16,75,358,62,79,289
12:13:30.817165,817165,202,16,16,75,358,62,79,289
12:13:30.818198,818198,202,16,16,75,358,62,79,289
12:13:30.819200,819200,202,16,16,75,358,62,79,289
12:13:30.820202,820202,202,16,16,75,358,62,79,289
12:13:30.821199,821199,202,16,16,75,358,62,79,289
12:13:30.822164,822164,202,16,16,75,358,62,79,289
12:13:30.823201,823201,202,16,16,75,358,62,79,289
12:13:30.824200,824200,202,16,16,75,358,62,79,289
12:13:30.825166,825166,202,16,16,75,358,62,79,289
12:13:30.826168,826168,202,16,16,75,358,62,79,289
12:13:30.827166,827166,202,16,16,75,358,62,79,289
12:13:30.830165,830165,202,16,16,75,358,62,79,289
12:13:30.831197,831197,202,16,16,75,358,62,79,289
12:13:30.832164,832164,202,16,16,75,358,62,79,289
12:13:30.833200,833200,202,16,16,75,358,62,79,289
12:13:30.834165,834165,202,16,16,75,358,62,79,289
12:13:30.835163,835163,202,16,16,75,358,62,79,289
12:13:30.836164,836164,202,16,16,75,358,62,79,289
12:13:30.837163,837163,202,16,16,75,358,62,79,289
12:13:30.838164,838164,202,16,16,75,358,62,79,289
12:13:30.839164,839164,202,16,16,75,358,62,79,289
12:13:30.840166,840166,202,16,16,75,358,62,79,289
12:13:30.841202,841202,202,16,16,75,358,62,79,289
12:13:30.842164,842164,202,16,16,75,358,62,79,289
12:13:30.843166,843166,202,16,16,75,358,62,79,289
12:13:30.844202,844202,202,16,16,75,358,62,79,289
12:13:30.844202,844202,193,16,16,75,376,63,70,281
12:13:30.845166,845166,193,16,16,75,376,63,70,281
12:13:30.846164,846164,193,16,16,75,376,63,70,281
12:13:30.847164,847164,193,16,16,75,376,63,70,281
12:13:30.848166,848166,193,16,16,75,376,63,70,281
12:13:30.849171,849171,193,16,16,75,376,63,70,281
12:13:30.850204,850204,193,16,16,75,376,63,70,281
12:13:30.851165,851165,193,16,16,75,376,63,70,281
12:13:30.852164,852164,193,16,16,75,376,63,70,281
12:13:30.853164,853164,193,16,16,75,376,63,70,281
12:13:30.854164,854164,193,16,16,75,376,63,70,281
12:13:30.855204,855204,193,16,16,75,376,63,70,281
12:13:30.856202,856202,193,16,16,75,376,63,70,281
12:13:30.857202,857202,193,16,16,75,376,63,70,281
12:13:30.858203,858203,193,16,16,75,376,63,70,281
12:13:30.859200,859200,193,16,16,75,376,63,70,281
12:13:30.859200,859200,184,12,20,75,361,52,56,303
12:13:30.860166,860166,184,12,20,75,361,52,56,303
12:13:30.861202,861202,184,12,20,75,361,52,56,303
12:13:30.862180,862180,184,12,20,75,361,52,56,303
12:13:30.863165,863165,184,12,20,75,361,52,56,303
12:13:30.864165,864165,184,12,20,75,361,52,56,303
12:13:30.865163,865163,184,12,20,75,361,52,56,303
12:13:30.866167,866167,184,12,20,75,361,52,56,303
12:13:30.867165,867165,184,12,20,75,361,52,56,303
12:13:30.868165,868165,184,12,20,75,361,52,56,303
12:13:30.869168,869168,184,12,20,75,361,52,56,303
12:13:30.870168,870168,184,12,20,75,361,52,56,303
12:13:30.871167,871167,184,12,20,75,361,52,56,303
12:13:30.872165,872165,184,12,20,75,361,52,56,303
12:13:30.873167,873167,184,12,20,75,361,52,56,303
12:13:30.874202,874202,184,12,20,75,361,52,56,303
12:13:30.875204,875204,184,12,20,75,361,52,56,303
12:13:30.875204,875204,163,15,24,67,288,48,67,286
12:13:30.875204,875204,128,12,24,78,360,59,61,208
12:13:30.875204,875204,104,14,23,94,246,61,52,146
12:13:30.876165,876165,104,14,23,94,246,61,52,146
12:13:30.877166,877166,104,14,23,94,246,61,52,146
12:13:30.878202,878202,104,14,23,94,246,61,52,146
12:13:30.879207,879207,104,14,23,94,246,61,52,146
12:13:30.880204,880204,104,14,23,94,246,61,52,146
12:13:30.881202,881202,104,14,23,94,246,61,52,146
12:13:30.882199,882199,104,14,23,94,246,61,52,146
12:13:30.883202,883202,104,14,23,94,246,61,52,146
12:13:30.884164,884164,104,14,23,94,246,61,52,146
12:13:30.885165,885165,104,14,23,94,246,61,52,146
12:13:30.886164,886164,104,14,23,94,246,61,52,146
12:13:30.887164,887164,104,14,23,94,246,61,52,146
12:13:30.888165,888165,104,14,23,94,246,61,52,146
12:13:30.889165,889165,104,14,23,94,246,61,52,146
12:13:30.890166,890166,104,14,23,94,246,61,52,146
12:13:30.891165,891165,104,14,23,94,246,61,52,146
12:13:30.891165,891165,56,16,18,93,278,57,49,137
12:13:30.891165,891165,40,15,17,95,282,53,48,128
12:13:30.891165,891165,62,16,18,92,292,54,45,129
12:13:30.892165,892165,62,16,18,92,292,54,45,129
12:13:30.893164,893164,62,16,18,92,292,54,45,129
12:13:30.894192,894192,62,16,18,92,292,54,45,129
12:13:30.895166,895166,62,16,18,92,292,54,45,129
12:13:30.896192,896192,62,16,18,92,292,54,45,129
12:13:30.897163,897163,62,16,18,92,292,54,45,129
12:13:30.898166,898166,62,16,18,92,292,54,45,129
12:13:30.899192,899192,62,16,18,92,292,54,45,129
12:13:30.900196,900196,62,16,18,92,292,54,45,129
12:13:30.901166,901166,62,16,18,92,292,54,45,129
12:13:30.902164,902164,62,16,18,92,292,54,45,129
12:13:30.903164,903164,62,16,18,92,292,54,45,129
12:13:30.904163,904163,62,16,18,92,292,54,45,129
12:13:30.905163,905163,62,16,18,92,292,54,45,129
12:13:30.906163,906163,62,16,18,92,292,54,45,129
12:13:30.907163,907163,62,16,18,92,292,54,45,129
12:13:30.907163,907163,53,14,16,83,239,43,48,125
12:13:30.908167,908167,53,14,16,83,239,43,48,125
12:13:30.909163,909163,53,14,16,83,239,43,48,125
12:13:30.910167,910167,53,14,16,83,239,43,48,125
12:13:30.911167,911167,53,14,16,83,239,43,48,125
12:13:30.912167,912167,53,14,16,83,239,43,48,125
12:13:30.913165,913165,53,14,16,83,239,43,48,125
12:13:30.914164,914164,53,14,16,83,239,43,48,125
12:13:30.915202,915202,53,14,16,83,239,43,48,125
12:13:30.916167,916167,53,14,16,83,239,43,48,125
12:13:30.917165,917165,53,14,16,83,239,43,48,125
12:13:30.918164,918164,53,14,16,83,239,43,48,125
12:13:30.919166,919166,53,14,16,83,239,43,48,125
12:13:30.920164,920164,53,14,16,83,239,43,48,125
12:13:30.921203,921203,53,14,16,83,239,43,48,125
12:13:30.922203,922203,53,14,16,83,239,43,48,125
12:13:30.923200,923200,53,14,16,83,239,43,48,125
12:13:30.923200,923200,81,16,17,75,316,70,51,126
12:13:30.924167,924167,81,16,17,75,316,70,51,126
12:13:30.925164,925164,81,16,17,75,316,70,51,126
12:13:30.926162,926162,81,16,17,75,316,70,51,126
12:13:30.927161,927161,81,16,17,75,316,70,51,126
12:13:30.928161,928161,81,16,17,75,316,70,51,126
12:13:30.929161,929161,122,22,19,71,313,80,41,89
12:13:30.930165,930165,122,22,19,71,313,80,41,89
12:13:30.931166,931166,122,22,19,71,313,80,41,89
12:13:30.932169,932169,122,22,19,71,313,80,41,89
12:13:30.933165,933165,122,22,19,71,313,80,41,89
12:13:30.934165,934165,122,22,19,71,313,80,41,89
12:13:30.935166,935166,122,22,19,71,313,80,41,89
12:13:30.936166,936166,122,22,19,71,313,80,41,89
12:13:30.937199,937199,122,22,19,71,313,80,41,89
12:13:30.938200,938200,122,22,19,71,313,80,41,89
12:13:30.939165,939165,122,22,19,71,313,80,41,89
12:13:30.939397,939397,128,20,17,74,273,84,36,91
12:13:30.940164,940164,128,20,17,74,273,84,36,91
12:13:30.941165,941165,128,20,17,74,273,84,36,91
12:13:30.942165,942165,128,20,17,74,273,84,36,91
12:13:30.943201,943201,128,20,17,74,273,84,36,91
12:13:30.944192,944192,128,20,17,74,273,84,36,91
12:13:30.945200,945200,128,20,17,74,273,84,36,91
12:13:30.946164,946164,128,20,17,74,273,84,36,91
12:13:30.947190,947190,128,20,17,74,273,84,36,91
12:13:30.948194,948194,128,20,17,74,273,84,36,91
12:13:30.949175,949175,128,20,17,74,273,84,36,91
12:13:30.950164,950164,128,20,17,74,273,84,36,91
12:13:30.951165,951165,128,20,17,74,273,84,36,91
12:13:30.952165,952165,128,20,17,74,273,84,36,91
12:13:30.953164,953164,128,20,17,74,273,84,36,91
12:13:30.954164,954164,128,20,17,74,273,84,36,91
12:13:30.955164,955164,128,20,17,74,273,84,36,91
12:13:30.955164,955164,107,20,19,69,293,102,36,149
12:13:30.955164,955164,82,23,17,77,318,96,39,149
12:13:30.955164,955164,82,25,16,71,271,79,38,139
12:13:30.956165,956165,82,25,16,71,271,79,38,139
12:13:30.957164,957164,82,25,16,71,271,79,38,139
12:13:30.958164,958164,82,25,16,71,271,79,38,139
12:13:30.959163,959163,82,25,16,71,271,79,38,139
12:13:30.960163,960163,82,25,16,71,271,79,38,139
12:13:30.961163,961163,82,25,16,71,271,79,38,139
12:13:30.962163,962163,82,25,16,71,271,79,38,139
12:13:30.963163,963163,82,25,16,71,271,79,38,139
12:13:30.964163,964163,82,25,16,71,271,79,38,139
12:13:30.965163,965163,82,25,16,71,271,79,38,139
12:13:30.966163,966163,82,25,16,71,271,79,38,139
12:13:30.967163,967163,82,25,16,71,271,79,38,139
12:13:30.968163,968163,82,25,16,71,271,79,38,139
12:13:30.969163,969163,82,25,16,71,271,79,38,139
12:13:30.970163,970163,82,25,16,71,271,79,38,139
12:13:30.970527,970527,82,25,16,71,271,79,38,139
12:13:30.971165,971165,82,25,16,71,271,79,38,139
12:13:30.972165,972165,82,25,16,71,271,79,38,139
12:13:30.973165,973165,82,25,16,71,271,79,38,139
12:13:30.974165,974165,82,25,16,71,271,79,38,139
12:13:30.975167,975167,82,25,16,71,271,79,38,139
12:13:30.976166,976166,82,25,16,71,271,79,38,139
12:13:30.977201,977201,82,25,16,71,271,79,38,139
12:13:30.978199,978199,82,25,16,71,271,79,38,139
12:13:30.979199,979199,82,25,16,71,271,79,38,139
12:13:30.980165,980165,82,25,16,71,271,79,38,139
12:13:30.981165,981165,82,25,16,71,271,79,38,139
12:13:30.982164,982164,82,25,16,71,271,79,38,139
12:13:30.983201,983201,82,25,16,71,271,79,38,139
12:13:30.984200,984200,82,25,16,71,271,79,38,139
12:13:30.985178,985178,82,25,16,71,271,79,38,139
12:13:30.986199,986199,82,25,16,71,271,79,38,139
12:13:30.986199,986199,63,24,19,101,281,77,55,144
12:13:30.987202,987202,63,24,19,101,281,77,55,144
12:13:30.988164,988164,63,24,19,101,281,77,55,144
12:13:30.989211,989211,63,24,19,101,281,77,55,144
12:13:30.990211,990211,63,24,19,101,281,77,55,144
12:13:30.991215,991215,63,24,19,101,281,77,55,144
12:13:30.992166,992166,63,24,19,101,281,77,55,144
12:13:30.993168,993168,63,24,19,101,281,77,55,144
12:13:30.994166,994166,63,24,19,101,281,77,55,144
12:13:30.995166,995166,63,24,19,101,281,77,55,144
12:13:30.996165,996165,63,24,19,101,281,77,55,144
12:13:30.997165,997165,63,24,19,101,281,77,55,144
12:13:30.998164,998164,63,24,19,101,281,77,55,144
12:13:30.999165,999165,63,24,19,101,281,77,55,144
12:13:31.000200,000200,63,24,19,101,281,77,55,144
12:13:31.001165,001165,63,24,19,101,281,77,55,144
12:13:31.002165,002165,63,24,19,101,281,77,55,144
12:13:31.002165,002165,64,29,29,111,335,54,51,89
12:13:31.003164,003164,64,29,29,111,335,54,51,89
12:13:31.004201,004201,64,29,29,111,335,54,51,89
12:13:31.005202,005202,64,29,29,111,335,54,51,89
12:13:31.006200,006200,64,29,29,111,335,54,51,89
12:13:31.007200,007200,64,29,29,111,335,54,51,89
12:13:31.008202,008202,64,29,29,111,335,54,51,89
12:13:31.009165,009165,64,29,29,111,335,54,51,89
12:13:31.010202,010202,64,29,29,111,335,54,51,89
12:13:31.011165,011165,64,29,29,111,335,54,51,89
12:13:31.012164,012164,64,29,29,111,335,54,51,89
12:13:31.013166,013166,64,29,29,111,335,54,51,89
12:13:31.014201,014201,64,29,29,111,335,54,51,89
12:13:31.015165,015165,64,29,29,111,335,54,51,89
12:13:31.016165,016165,64,29,29,111,335,54,51,89
12:13:31.017166,017166,64,29,29,111,335,54,51,89
12:13:31.018200,018200,64,29,29,111,335,54,51,89
12:13:31.018200,018200,62,27,53,329,324,79,29,93
12:13:31.019164,019164,62,27,53,329,324,79,29,93
12:13:31.020199,020199,62,27,53,329,324,79,29,93
12:13:31.021164,021164,62,27,53,329,324,79,29,93
12:13:31.022164,022164,62,27,53,329,324,79,29,93
12:13:31.023200,023200,62,27,53,329,324,79,29,93
12:13:31.024202,024202,62,27,53,329,324,79,29,93
12:13:31.025202,025202,62,27,53,329,324,79,29,93
12:13:31.026197,026197,62,27,53,329,324,79,29,93
12:13:31.027201,027201,62,27,53,329,324,79,29,93
12:13:31.028200,028200,62,27,53,329,324,79,29,93
12:13:31.029200,029200,62,27,53,329,324,79,29,93
12:13:31.030215,030215,62,27,53,329,324,79,29,93
12:13:31.031210,031210,62,27,53,329,324,79,29,93
12:13:31.032211,032211,62,27,53,329,324,79,29,93
12:13:31.033210,033210,62,27,53,329,324,79,29,93
12:13:31.034166,034166,57,24,57,336,318,80,21,92
12:13:31.035168,035168,57,24,57,336,318,80,21,92
12:13:31.036165,036165,57,24,57,336,318,80,21,92
12:13:31.037164,037164,57,24,57,336,318,80,21,92
12:13:31.038165,038165,57,24,57,336,318,80,21,92
12:13:31.039166,039166,57,24,57,336,318,80,21,92
12:13:31.040204,040204,57,24,57,336,318,80,21,92
12:13:31.041202,041202,57,24,57,336,318,80,21,92
12:13:31.042202,042202,57,24,57,336,318,80,21,92
12:13:31.043202,043202,57,24,57,336,318,80,21,92
12:13:31.044204,044204,57,24,57,336,318,80,21,92
12:13:31.045169,045169,57,24,57,336,318,80,21,92
12:13:31.046212,046212,57,24,57,336,318,80,21,92
12:13:31.047164,047164,57,24,57,336,318,80,21,92
12:13:31.048203,048203,57,24,57,336,318,80,21,92
12:13:31.049165,049165,56,24,59,387,290,112,28,83
12:13:31.049165,049165,45,25,57,440,295,126,32,77
12:13:31.049165,049165,36,21,57,460,264,126,32,64
12:13:31.049165,049165,36,26,61,448,236,122,28,64
12:13:31.050165,050165,38,28,60,458,222,122,28,63
12:13:31.050165,050165,39,31,60,456,235,119,29,63
12:13:31.050165,050165,36,29,58,403,192,100,37,55
12:13:31.051164,051164,36,29,58,403,192,100,37,55
12:13:31.052163,052163,36,29,58,403,192,100,37,55
12:13:31.053205,053205,36,29,58,403,192,100,37,55
12:13:31.054200,054200,36,29,58,403,192,100,37,55
12:13:31.055163,055163,36,29,58,403,192,100,37,55
12:13:31.056203,056203,36,29,58,403,192,100,37,55
12:13:31.057204,057204,36,29,58,403,192,100,37,55
12:13:31.058164,058164,36,29,58,403,192,100,37,55
12:13:31.059166,059166,36,29,58,403,192,100,37,55
12:13:31.060164,060164,36,29,58,403,192,100,37,55
12:13:31.061163,061163,36,29,58,403,192,100,37,55
12:13:31.062167,062167,36,29,58,403,192,100,37,55
12:13:31.063202,063202,36,29,58,403,192,100,37,55
12:13:31.064202,064202,36,29,58,403,192,100,37,55
12:13:31.065202,065202,36,29,58,403,192,100,37,55
12:13:31.066203,066203,36,29,58,403,192,100,37,55
12:13:31.067204,067204,36,29,58,403,192,100,37,55
12:13:31.068203,068203,36,29,58,403,192,100,37,55
12:13:31.069164,069164,36,29,58,403,192,100,37,55
12:13:31.070204,070204,36,29,58,403,192,100,37,55
12:13:31.071202,071202,36,29,58,403,192,100,37,55
12:13:31.072164,072164,36,29,58,403,192,100,37,55
12:13:31.073203,073203,36,29,58,403,192,100,37,55
12:13:31.074200,074200,36,29,58,403,192,100,37,55
12:13:31.075164,075164,36,29,58,403,192,100,37,55
12:13:31.076166,076166,36,29,58,403,192,100,37,55
12:13:31.077202,077202,36,29,58,403,192,100,37,55
12:13:31.078167,078167,36,29,58,403,192,100,37,55
12:13:31.079170,079170,36,29,58,403,192,100,37,55
12:13:31.080166,080166,36,29,58,403,192,100,37,55
12:13:31.081208,081208,38,30,65,330,181,86,40,54
12:13:31.081208,081208,41,26,54,276,230,93,39,52
12:13:31.081208,081208,38,27,52,281,251,90,36,49
12:13:31.081208,081208,33,29,56,215,241,57,29,48
12:13:31.081208,081208,30,31,61,161,220,45,26,44
12:13:31.082202,082202,30,32,59,164,238,43,26,42
12:13:31.083205,083205,30,32,59,164,238,43,26,42
12:13:31.084202,084202,30,32,59,164,238,43,26,42
12:13:31.085203,085203,30,32,59,164,238,43,26,42
12:13:31.086202,086202,30,32,59,164,238,43,26,42
12:13:31.087166,087166,30,32,59,164,238,43,26,42
12:13:31.088204,088204,30,32,59,164,238,43,26,42
12:13:31.089203,089203,30,32,59,164,238,43,26,42
12:13:31.090204,090204,30,32,59,164,238,43,26,42
12:13:31.091166,091166,30,32,59,164,238,43,26,42
12:13:31.092182,092182,30,32,59,164,238,43,26,42
12:13:31.093214,093214,30,32,59,164,238,43,26,42
12:13:31.094213,094213,30,32,59,164,238,43,26,42
12:13:31.095214,095214,30,32,59,164,238,43,26,42
12:13:31.096164,096164,30,32,59,164,238,43,26,42
12:13:31.097166,097166,31,26,55,173,234,53,27,39
12:13:31.097166,097166,28,26,54,163,232,61,30,33
12:13:31.098169,098169,28,26,54,163,232,61,30,33
12:13:31.099167,099167,28,26,54,163,232,61,30,33
12:13:31.100169,100169,28,26,54,163,232,61,30,33
12:13:31.101171,101171,28,26,54,163,232,61,30,33
12:13:31.102169,102169,28,26,54,163,232,61,30,33
12:13:31.103204,103204,28,26,54,163,232,61,30,33
12:13:31.104204,104204,28,26,54,163,232,61,30,33
12:13:31.105187,105187,28,26,54,163,232,61,30,33
12:13:31.106164,106164,28,26,54,163,232,61,30,33
12:13:31.107203,107203,28,26,54,163,232,61,30,33
12:13:31.108205,108205,28,26,54,163,232,61,30,33
12:13:31.109203,109203,28,26,54,163,232,61,30,33
12:13:31.110202,110202,28,26,54,163,232,61,30,33
12:13:31.111164,111164,28,26,54,163,232,61,30,33
12:13:31.112202,112202,28,26,54,163,232,61,30,33
12:13:31.113166,113166,28,26,54,163,232,61,30,33
12:13:31.113166,113166,21,23,50,171,260,78,20,24
12:13:31.114166,114166,21,23,50,171,260,78,20,24
12:13:31.115205,115205,21,23,50,171,260,78,20,24
12:13:31.116208,116208,21,23,50,171,260,78,20,24
12:13:31.117165,117165,21,23,50,171,260,78,20,24
12:13:31.118171,118171,21,23,50,171,260,78,20,24
12:13:31.119202,119202,21,23,50,171,260,78,20,24
12:13:31.120166,120166,21,23,50,171,260,78,20,24
12:13:31.121164,121164,21,23,50,171,260,78,20,24
12:13:31.122166,122166,21,23,50,171,260,78,20,24
12:13:31.123203,123203,21,23,50,171,260,78,20,24
12:13:31.124204,124204,21,23,50,171,260,78,20,24
12:13:31.125202,125202,21,23,50,171,260,78,20,24
12:13:31.126166,126166,21,23,50,171,260,78,20,24
12:13:31.127167,127167,21,23,50,171,260,78,20,24
12:13:31.128190,128190,21,23,50,171,260,78,20,24
12:13:31.129209,129209,21,23,50,171,260,78,20,24
12:13:31.129209,129209,14,24,49,148,316,78,17,22
12:13:31.129209,129209,12,27,47,149,330,72,16,25
12:13:31.129209,129209,12,27,45,126,302,73,17,24
12:13:31.129209,129209,13,25,39,146,289,75,20,35
12:13:31.130203,130203,15,21,35,164,319,74,21,30
12:13:31.130203,130203,16,20,37,148,364,68,30,29
12:13:31.131205,131205,16,20,37,148,364,68,30,29
12:13:31.132202,132202,16,20,37,148,364,68,30,29
12:13:31.133204,133204,16,20,37,148,364,68,30,29
12:13:31.134165,134165,16,20,37,148,364,68,30,29
12:13:31.135164,135164,16,20,37,148,364,68,30,29
12:13:31.136164,136164,16,20,37,148,364,68,30,29
12:13:31.137164,137164,16,20,37,148,364,68,30,29
12:13:31.138165,138165,16,20,37,148,364,68,30,29
12:13:31.139164,139164,16,20,37,148,364,68,30,29
12:13:31.140166,140166,16,20,37,148,364,68,30,29
12:13:31.141167,141167,16,20,37,148,364,68,30,29
12:13:31.142205,142205,16,20,37,148,364,68,30,29
12:13:31.143206,143206,16,20,37,148,364,68,30,29
12:13:31.144202,144202,16,20,37,148,364,68,30,29
12:13:31.145207,145207,16,20,37,148,364,68,30,29
12:13:31.145207,145207,67,21,43,141,352,52,32,42
12:13:31.146203,146203,67,21,43,141,352,52,32,42
12:13:31.147164,147164,67,21,43,141,352,52,32,42
12:13:31.148164,148164,67,21,43,141,352,52,32,42
12:13:31.149164,149164,67,21,43,141,352,52,32,42
12:13:31.150210,150210,67,21,43,141,352,52,32,42
12:13:31.151202,151202,67,21,43,141,352,52,32,42
12:13:31.152205,152205,67,21,43,141,352,52,32,42
12:13:31.153224,153224,67,21,43,141,352,52,32,42
12:13:31.154166,154166,67,21,43,141,352,52,32,42
12:13:31.155203,155203,67,21,43,141,352,52,32,42
12:13:31.156215,156215,67,21,43,141,352,52,32,42
12:13:31.157213,157213,67,21,43,141,352,52,32,42
12:13:31.158203,158203,67,21,43,141,352,52,32,42
12:13:31.159166,159166,67,21,43,141,352,52,32,42
12:13:31.160203,160203,67,21,43,141,352,52,32,42
12:13:31.161164,161164,67,21,43,141,352,52,32,42
12:13:31.161164,161164,86,21,45,126,332,41,33,115
12:13:31.162165,162165,86,21,45,126,332,41,33,115
12:13:31.163165,163165,86,21,45,126,332,41,33,115
12:13:31.164202,164202,86,21,45,126,332,41,33,115
12:13:31.165209,165209,86,21,45,126,332,41,33,115
12:13:31.166166,166166,86,21,45,126,332,41,33,115
12:13:31.167202,167202,86,21,45,126,332,41,33,115
12:13:31.168207,168207,86,21,45,126,332,41,33,115
12:13:31.169202,169202,86,21,45,126,332,41,33,115
12:13:31.170203,170203,86,21,45,126,332,41,33,115
12:13:31.171208,171208,86,21,45,126,332,41,33,115
12:13:31.172164,172164,86,21,45,126,332,41,33,115
12:13:31.173202,173202,86,21,45,126,332,41,33,115
12:13:31.174203,174203,86,21,45,126,332,41,33,115
12:13:31.175203,175203,86,21,45,126,332,41,33,115
12:13:31.176203,176203,86,21,45,126,332,41,33,115
12:13:31.176203,176203,95,23,38,105,315,38,45,142
12:13:31.177166,177166,95,23,38,105,315,38,45,142
12:13:31.178209,178209,95,23,38,105,315,38,45,142
12:13:31.179187,179187,95,23,38,105,315,38,45,142
12:13:31.180167,180167,95,23,38,105,315,38,45,142
12:13:31.181166,181166,95,23,38,105,315,38,45,142
12:13:31.182203,182203,95,23,38,105,315,38,45,142
12:13:31.183170,183170,95,23,38,105,315,38,45,142
12:13:31.184165,184165,95,23,38,105,315,38,45,142
12:13:31.185164,185164,95,23,38,105,315,38,45,142
12:13:31.186163,186163,95,23,38,105,315,38,45,142
12:13:31.187164,187164,95,23,38,105,315,38,45,142
12:13:31.188166,188166,95,23,38,105,315,38,45,142
12:13:31.189166,189166,95,23,38,105,315,38,45,142
12:13:31.190166,190166,95,23,38,105,315,38,45,142
12:13:31.191203,191203,95,23,38,105,315,38,45,142
12:13:31.192202,192202,117,16,29,72,237,34,56,157
12:13:31.193165,193165,117,16,29,72,237,34,56,157
12:13:31.194163,194163,117,16,29,72,237,34,56,157
12:13:31.195163,195163,117,16,29,72,237,34,56,157
12:13:31.196163,196163,117,16,29,72,237,34,56,157
12:13:31.197163,197163,117,16,29,72,237,34,56,157
12:13:31.198163,198163,117,16,29,72,237,34,56,157
12:13:31.199163,199163,117,16,29,72,237,34,56,157
12:13:31.200165,200165,117,16,29,72,237,34,56,157
12:13:31.201166,201166,117,16,29,72,237,34,56,157
12:13:31.202166,202166,117,16,29,72,237,34,56,157
12:13:31.203165,203165,124,24,21,43,228,63,62,128
12:13:31.204166,204166,124,24,21,43,228,63,62,128
12:13:31.205166,205166,124,24,21,43,228,63,62,128
12:13:31.206202,206202,124,24,21,43,228,63,62,128
12:13:31.207202,207202,124,24,21,43,228,63,62,128
12:13:31.208203,208203,124,24,21,43,228,63,62,128
12:13:31.209201,209201,124,24,21,43,228,63,62,128
12:13:31.210166,210166,124,24,21,43,228,63,62,128
12:13:31.211165,211165,124,24,21,43,228,63,62,128
12:13:31.212184,212184,124,24,21,43,228,63,62,128
12:13:31.213203,213203,124,24,21,43,228,63,62,128
12:13:31.214203,214203,124,24,21,43,228,63,62,128
12:13:31.215202,215202,124,24,21,43,228,63,62,128
12:13:31.216165,216165,124,24,21,43,228,63,62,128
12:13:31.217172,217172,124,24,21,43,228,63,62,128
12:13:31.218204,218204,124,24,21,43,228,63,62,128
12:13:31.219202,219202,124,24,21,43,228,63,62,128
12:13:31.220206,220206,124,24,21,43,228,63,62,128
12:13:31.221167,221167,124,24,21,43,228,63,62,128
12:13:31.222174,222174,124,24,21,43,228,63,62,128
12:13:31.223204,223204,124,24,21,43,228,63,62,128
12:13:31.223204,223204,127,28,20,47,267,82,62,152
12:13:31.224202,224202,127,28,20,47,267,82,62,152
12:13:31.225175,225175,127,28,20,47,267,82,62,152
12:13:31.226164,226164,127,28,20,47,267,82,62,152
12:13:31.227164,227164,127,28,20,47,267,82,62,152
12:13:31.228164,228164,127,28,20,47,267,82,62,152
12:13:31.229164,229164,127,28,20,47,267,82,62,152
12:13:31.230165,230165,127,28,20,47,267,82,62,152
12:13:31.231165,231165,127,28,20,47,267,82,62,152
12:13:31.232165,232165,127,28,20,47,267,82,62,152
12:13:31.233167,233167,127,28,20,47,267,82,62,152
12:13:31.234164,234164,127,28,20,47,267,82,62,152
12:13:31.235164,235164,127,28,20,47,267,82,62,152
12:13:31.236164,236164,127,28,20,47,267,82,62,152
12:13:31.237165,237165,127,28,20,47,267,82,62,152
12:13:31.238163,238163,127,28,20,47,267,82,62,152
12:13:31.239205,239205,127,28,20,47,267,82,62,152
12:13:31.239205,239205,115,36,22,56,306,72,89,163
12:13:31.240166,240166,115,36,22,56,306,72,89,163
12:13:31.241164,241164,115,36,22,56,306,72,89,163
12:13:31.242166,242166,115,36,22,56,306,72,89,163
12:13:31.243165,243165,115,36,22,56,306,72,89,163
12:13:31.244191,244191,115,36,22,56,306,72,89,163
12:13:31.245194,245194,115,36,22,56,306,72,89,163
12:13:31.246164,246164,115,36,22,56,306,72,89,163
12:13:31.247165,247165,115,36,22,56,306,72,89,163
12:13:31.248192,248192,115,36,22,56,306,72,89,163
12:13:31.249176,249176,115,36,22,56,306,72,89,163
12:13:31.250165,250165,115,36,22,56,306,72,89,163
12:13:31.251191,251191,115,36,22,56,306,72,89,163
12:13:31.252197,252197,115,36,22,56,306,72,89,163
12:13:31.253190,253190,115,36,22,56,306,72,89,163
12:13:31.254165,254165,115,36,22,56,306,72,89,163
12:13:31.255192,255192,115,36,22,56,306,72,89,163
12:13:31.255192,255192,122,36,22,63,279,72,87,157
12:13:31.256167,256167,122,36,22,63,279,72,87,157
12:13:31.257206,257206,122,36,22,63,279,72,87,157
12:13:31.258202,258202,122,36,22,63,279,72,87,157
12:13:31.259163,259163,122,36,22,63,279,72,87,157
12:13:31.260203,260203,122,36,22,63,279,72,87,157
12:13:31.261165,261165,122,36,22,63,279,72,87,157
12:13:31.262202,262202,122,36,22,63,279,72,87,157
12:13:31.263200,263200,122,36,22,63,279,72,87,157
12:13:31.264164,264164,122,36,22,63,279,72,87,157
12:13:31.265203,265203,122,36,22,63,279,72,87,157
12:13:31.266165,266165,122,36,22,63,279,72,87,157
12:13:31.267167,267167,122,36,22,63,279,72,87,157
12:13:31.268205,268205,122,36,22,63,279,72,87,157
12:13:31.269202,269202,122,36,22,63,279,72,87,157
12:13:31.270168,270168,122,36,22,63,279,72,87,157
12:13:31.271425,271425,93,20,18,111,270,36,51,148
12:13:31.271425,271425,99,16,17,98,252,34,56,150
12:13:31.271425,271425,94,14,24,110,259,36,58,148
12:13:31.272166,272166,94,14,24,110,259,36,58,148
12:13:31.273163,273163,94,14,24,110,259,36,58,148
12:13:31.274179,274179,94,14,24,110,259,36,58,148
12:13:31.275205,275205,94,14,24,110,259,36,58,148
12:13:31.276202,276202,94,14,24,110,259,36,58,148
12:13:31.277202,277202,94,14,24,110,259,36,58,148
12:13:31.278202,278202,94,14,24,110,259,36,58,148
12:13:31.279170,279170,94,14,24,110,259,36,58,148
12:13:31.280166,280166,94,14,24,110,259,36,58,148
12:13:31.281165,281165,94,14,24,110,259,36,58,148
12:13:31.282203,282203,94,14,24,110,259,36,58,148
12:13:31.283192,283192,94,14,24,110,259,36,58,148
12:13:31.284167,284167,94,14,24,110,259,36,58,148
12:13:31.285167,285167,94,14,24,110,259,36,58,148
12:13:31.286166,286166,94,14,24,110,259,36,58,148
12:13:31.287168,287168,94,14,24,110,259,36,58,148
12:13:31.288165,288165,94,14,24,110,259,36,58,148
12:13:31.289166,289166,94,14,24,110,259,36,58,148
12:13:31.290191,290191,94,14,24,110,259,36,58,148
12:13:31.291164,291164,94,14,24,110,259,36,58,148
12:13:31.292191,292191,94,14,24,110,259,36,58,148
12:13:31.293190,293190,94,14,24,110,259,36,58,148
12:13:31.294164,294164,94,14,24,110,259,36,58,148
12:13:31.295191,295191,94,14,24,110,259,36,58,148
12:13:31.296191,296191,94,14,24,110,259,36,58,148
12:13:31.297163,297163,94,14,24,110,259,36,58,148
12:13:31.298190,298190,94,14,24,110,259,36,58,148
12:13:31.299191,299191,94,14,24,110,259,36,58,148
12:13:31.300194,300194,94,14,24,110,259,36,58,148
12:13:31.301165,301165,94,14,24,110,259,36,58,148
12:13:31.302192,302192,94,14,24,110,259,36,58,148
12:13:31.303165,303165,94,14,24,110,259,36,58,148
12:13:31.303165,303165,106,21,35,116,217,41,46,137
12:13:31.303165,303165,87,21,36,118,256,40,38,117
12:13:31.303165,303165,82,20,37,113,291,42,39,132
12:13:31.303165,303165,59,19,38,130,282,35,40,137
12:13:31.304165,304165,59,19,38,130,282,35,40,137
12:13:31.305193,305193,59,19,38,130,282,35,40,137
12:13:31.306191,306191,59,19,38,130,282,35,40,137
12:13:31.307193,307193,59,19,38,130,282,35,40,137
12:13:31.308166,308166,59,19,38,130,282,35,40,137
12:13:31.309165,309165,59,19,38,130,282,35,40,137
12:13:31.310166,310166,59,19,38,130,282,35,40,137
12:13:31.311190,311190,59,19,38,130,282,35,40,137
12:13:31.312191,312191,59,19,38,130,282,35,40,137
12:13:31.313191,313191,59,19,38,130,282,35,40,137
12:13:31.314166,314166,59,19,38,130,282,35,40,137
12:13:31.315166,315166,59,19,38,130,282,35,40,137
12:13:31.316192,316192,59,19,38,130,282,35,40,137
12:13:31.317191,317191,59,19,38,130,282,35,40,137
12:13:31.318195,318195,59,19,38,130,282,35,40,137
12:13:31.319191,319191,59,19,38,130,282,35,40,137
12:13:31.319191,319191,62,21,39,121,271,45,36,121
12:13:31.319191,319191,64,22,38,108,267,57,34,117
12:13:31.319191,319191,63,22,40,109,277,60,29,115
12:13:31.319191,319191,64,27,42,102,245,64,29,83
12:13:31.320191,320191,64,27,42,102,245,64,29,83
12:13:31.321193,321193,64,27,42,102,245,64,29,83
12:13:31.322166,322166,64,27,42,102,245,64,29,83
12:13:31.323164,323164,64,27,42,102,245,64,29,83
12:13:31.324164,324164,64,27,42,102,245,64,29,83
12:13:31.325164,325164,64,27,42,102,245,64,29,83
12:13:31.326164,326164,64,27,42,102,245,64,29,83
12:13:31.327164,327164,64,27,42,102,245,64,29,83
12:13:31.328204,328204,64,27,42,102,245,64,29,83
12:13:31.329170,329170,64,27,42,102,245,64,29,83
12:13:31.330164,330164,64,27,42,102,245,64,29,83
12:13:31.331163,331163,64,27,42,102,245,64,29,83
12:13:31.332204,332204,64,27,42,102,245,64,29,83
12:13:31.333202,333202,64,27,42,102,245,64,29,83
12:13:31.334202,334202,64,27,42,102,245,64,29,83
12:13:31.335202,335202,64,27,42,102,245,64,29,83
12:13:31.335202,335202,69,29,40,106,250,60,26,96
12:13:31.336166,336166,69,29,40,106,250,60,26,96
12:13:31.337166,337166,69,29,40,106,250,60,26,96
12:13:31.338203,338203,69,29,40,106,250,60,26,96
12:13:31.339204,339204,69,29,40,106,250,60,26,96
12:13:31.340202,340202,69,29,40,106,250,60,26,96
12:13:31.341166,341166,69,29,40,106,250,60,26,96
12:13:31.342218,342218,69,29,40,106,250,60,26,96
12:13:31.343214,343214,69,29,40,106,250,60,26,96
12:13:31.344213,344213,69,29,40,106,250,60,26,96
12:13:31.345215,345215,69,29,40,106,250,60,26,96
12:13:31.346164,346164,69,29,40,106,250,60,26,96
12:13:31.347168,347168,69,29,40,106,250,60,26,96
12:13:31.348203,348203,69,29,40,106,250,60,26,96
12:13:31.349166,349166,69,29,40,106,250,60,26,96
12:13:31.350166,350166,69,29,40,106,250,60,26,96
12:13:31.351202,351202,69,29,40,106,250,60,26,96
12:13:31.351202,351202,56,22,32,99,279,56,23,93
12:13:31.352164,352164,56,22,32,99,279,56,23,93
12:13:31.353195,353195,56,22,32,99,279,56,23,93
12:13:31.354191,354191,56,22,32,99,279,56,23,93
12:13:31.355197,355197,56,22,32,99,279,56,23,93
12:13:31.356164,356164,56,22,32,99,279,56,23,93
12:13:31.356250,356250,56,22,32,99,279,56,23,93
12:13:31.357193,357193,56,22,32,99,279,56,23,93
12:13:31.358192,358192,56,22,32,99,279,56,23,93
12:13:31.359190,359190,56,22,32,99,279,56,23,93
12:13:31.360191,360191,56,22,32,99,279,56,23,93
12:13:31.361191,361191,56,22,32,99,279,56,23,93
12:13:31.362163,362163,56,22,32,99,279,56,23,93
12:13:31.363191,363191,56,22,32,99,279,56,23,93
12:13:31.364194,364194,56,22,32,99,279,56,23,93
12:13:31.365191,365191,56,22,32,99,279,56,23,93
12:13:31.366191,366191,56,22,32,99,279,56,23,93
12:13:31.367164,367164,56,22,32,99,279,56,23,93
12:13:31.367164,367164,57,24,33,130,226,68,22,119
12:13:31.368165,368165,57,24,33,130,226,68,22,119
12:13:31.369164,369164,57,24,33,130,226,68,22,119
12:13:31.370163,370163,57,24,33,130,226,68,22,119
12:13:31.371166,371166,57,24,33,130,226,68,22,119
12:13:31.372164,372164,57,24,33,130,226,68,22,119
12:13:31.373192,373192,57,24,33,130,226,68,22,119
12:13:31.374191,374191,57,24,33,130,226,68,22,119
12:13:31.375191,375191,57,24,33,130,226,68,22,119
12:13:31.376191,376191,57,24,33,130,226,68,22,119
12:13:31.377164,377164,57,24,33,130,226,68,22,119
12:13:31.378165,378165,57,24,33,130,226,68,22,119
12:13:31.379190,379190,57,24,33,130,226,68,22,119
12:13:31.380205,380205,57,24,33,130,226,68,22,119
12:13:31.381190,381190,57,24,33,130,226,68,22,119
12:13:31.382189,382189,57,24,33,130,226,68,22,119
12:13:31.383201,383201,57,24,33,130,226,68,22,119
12:13:31.383201,383201,47,25,42,196,249,62,28,87
12:13:31.383201,383201,46,23,44,251,316,63,26,82
12:13:31.383201,383201,35,19,54,339,414,71,26,85
12:13:31.384165,384165,28,19,80,340,436,74,29,92
12:13:31.384165,384165,23,24,98,362,417,75,25,71
12:13:31.385205,385205,23,24,98,362,417,75,25,71
12:13:31.386201,386201,23,24,98,362,417,75,25,71
12:13:31.387166,387166,23,24,98,362,417,75,25,71
12:13:31.388166,388166,23,24,98,362,417,75,25,71
12:13:31.389166,389166,23,24,98,362,417,75,25,71
12:13:31.390167,390167,23,24,98,362,417,75,25,71
12:13:31.391169,391169,23,24,98,362,417,75,25,71
12:13:31.392164,392164,23,24,98,362,417,75,25,71
12:13:31.393202,393202,23,24,98,362,417,75,25,71
12:13:31.394202,394202,23,24,98,362,417,75,25,71
12:13:31.395202,395202,23,24,98,362,417,75,25,71
12:13:31.396204,396204,23,24,98,362,417,75,25,71
12:13:31.397164,397164,23,24,98,362,417,75,25,71
12:13:31.398163,398163,23,24,98,362,417,75,25,71
12:13:31.399164,399164,23,24,98,362,417,75,25,71
12:13:31.399164,399164,29,24,96,380,449,93,26,39
12:13:31.400166,400166,29,24,96,380,449,93,26,39
12:13:31.401165,401165,29,24,96,380,449,93,26,39
12:13:31.402163,402163,29,24,96,380,449,93,26,39
12:13:31.403164,403164,29,24,96,380,449,93,26,39
12:13:31.404167,404167,29,24,96,380,449,93,26,39
12:13:31.405164,405164,29,24,96,380,449,93,26,39
12:13:31.406192,406192,29,24,96,380,449,93,26,39
12:13:31.407192,407192,29,24,96,380,449,93,26,39
12:13:31.408202,408202,29,24,96,380,449,93,26,39
12:13:31.409166,409166,29,24,96,380,449,93,26,39
12:13:31.410193,410193,29,24,96,380,449,93,26,39
12:13:31.411165,411165,29,24,96,380,449,93,26,39
12:13:31.412164,412164,29,24,96,380,449,93,26,39
12:13:31.413166,413166,29,24,96,380,449,93,26,39
12:13:31.414190,414190,29,24,96,380,449,93,26,39
12:13:31.414190,414190,33,24,112,414,448,87,19,37
12:13:31.415191,415191,33,24,112,414,448,87,19,37
12:13:31.416192,416192,33,24,112,414,448,87,19,37
12:13:31.417205,417205,33,24,112,414,448,87,19,37
12:13:31.418201,418201,33,24,112,414,448,87,19,37
12:13:31.419205,419205,33,24,112,414,448,87,19,37
12:13:31.420201,420201,33,24,112,414,448,87,19,37
12:13:31.421204,421204,33,24,112,414,448,87,19,37
12:13:31.422164,422164,33,24,112,414,448,87,19,37
12:13:31.423163,423163,33,24,112,414,448,87,19,37
12:13:31.424163,424163,33,24,112,414,448,87,19,37
12:13:31.425164,425164,33,24,112,414,448,87,19,37
12:13:31.426164,426164,33,24,112,414,448,87,19,37
12:13:31.427163,427163,33,24,112,414,448,87,19,37
12:13:31.428164,428164,33,24,112,414,448,87,19,37
12:13:31.429164,429164,33,24,112,414,448,87,19,37
12:13:31.430166,430166,27,39,128,425,487,84,22,42
12:13:31.431166,431166,27,39,128,425,487,84,22,42
12:13:31.432165,432165,27,39,128,425,487,84,22,42
12:13:31.433164,433164,27,39,128,425,487,84,22,42
12:13:31.434165,434165,27,39,128,425,487,84,22,42
12:13:31.435201,435201,27,39,128,425,487,84,22,42
12:13:31.436190,436190,27,39,128,425,487,84,22,42
12:13:31.437194,437194,27,39,128,425,487,84,22,42
12:13:31.438190,438190,27,39,128,425,487,84,22,42
12:13:31.439166,439166,27,39,128,425,487,84,22,42
12:13:31.440209,440209,27,39,128,425,487,84,22,42
12:13:31.441202,441202,27,39,128,425,487,84,22,42
12:13:31.442202,442202,27,39,128,425,487,84,22,42
12:13:31.443191,443191,27,39,128,425,487,84,22,42
12:13:31.444205,444205,27,39,128,425,487,84,22,42
12:13:31.445198,445198,27,39,128,425,487,84,22,42
12:13:31.445198,445198,26,36,120,437,546,93,20,48
12:13:31.446201,446201,26,36,120,437,546,93,20,48
12:13:31.446252,446252,26,36,120,437,546,93,20,48
12:13:31.447166,447166,26,36,120,437,546,93,20,48
12:13:31.448202,448202,26,36,120,437,546,93,20,48
12:13:31.449166,449166,26,36,120,437,546,93,20,48
12:13:31.450167,450167,26,36,120,437,546,93,20,48
12:13:31.451168,451168,26,36,120,437,546,93,20,48
12:13:31.452167,452167,26,36,120,437,546,93,20,48
12:13:31.453164,453164,26,36,120,437,546,93,20,48
12:13:31.454169,454169,26,36,120,437,546,93,20,48
12:13:31.455192,455192,26,36,120,437,546,93,20,48
12:13:31.456190,456190,26,36,120,437,546,93,20,48
12:13:31.457190,457190,26,36,120,437,546,93,20,48
12:13:31.458192,458192,26,36,120,437,546,93,20,48
12:13:31.459189,459189,26,36,120,437,546,93,20,48
12:13:31.460193,460193,26,36,120,437,546,93,20,48
12:13:31.461165,461165,26,36,120,437,546,93,20,48
12:13:31.461165,461165,23,41,126,362,350,73,20,50
12:13:31.462166,462166,23,41,126,362,350,73,20,50
12:13:31.463162,463162,23,41,126,362,350,73,20,50
12:13:31.464162,464162,23,41,126,362,350,73,20,50
12:13:31.465164,465164,23,41,126,362,350,73,20,50
12:13:31.466163,466163,23,41,126,362,350,73,20,50
12:13:31.467165,467165,23,41,126,362,350,73,20,50
12:13:31.468163,468163,23,41,126,362,350,73,20,50
12:13:31.469165,469165,23,41,126,362,350,73,20,50
12:13:31.470202,470202,23,41,126,362,350,73,20,50
12:13:31.471167,471167,23,41,126,362,350,73,20,50
12:13:31.472166,472166,23,41,126,362,350,73,20,50
12:13:31.473202,473202,23,41,126,362,350,73,20,50
12:13:31.474167,474167,20,79,91,212,250,50,29,23
12:13:31.475166,475166,20,79,91,212,250,50,29,23
12:13:31.476165,476165,20,79,91,212,250,50,29,23
12:13:31.477192,477192,20,79,91,212,250,50,29,23
12:13:31.478166,478166,20,79,91,212,250,50,29,23
12:13:31.479165,479165,20,79,91,212,250,50,29,23
12:13:31.480164,480164,20,79,91,212,250,50,29,23
12:13:31.481163,481163,20,79,91,212,250,50,29,23
12:13:31.482167,482167,20,79,91,212,250,50,29,23
12:13:31.483202,483202,20,79,91,212,250,50,29,23
12:13:31.484203,484203,20,79,91,212,250,50,29,23
12:13:31.485203,485203,20,79,91,212,250,50,29,23
12:13:31.486202,486202,20,79,91,212,250,50,29,23
12:13:31.487166,487166,20,79,91,212,250,50,29,23
12:13:31.488163,488163,20,79,91,212,250,50,29,23
12:13:31.489202,489202,20,79,91,212,250,50,29,23
12:13:31.490166,490166,20,79,91,212,250,50,29,23
12:13:31.491166,491166,20,79,91,212,250,50,29,23
12:13:31.492167,492167,20,79,91,212,250,50,29,23
12:13:31.493204,493204,20,79,91,212,250,50,29,23
12:13:31.493204,493204,42,84,114,257,262,48,35,62
12:13:31.494164,494164,42,84,114,257,262,48,35,62
12:13:31.495203,495203,42,84,114,257,262,48,35,62
12:13:31.496165,496165,42,84,114,257,262,48,35,62
12:13:31.497166,497166,42,84,114,257,262,48,35,62
12:13:31.498167,498167,42,84,114,257,262,48,35,62
12:13:31.499204,499204,42,84,114,257,262,48,35,62
12:13:31.500165,500165,42,84,114,257,262,48,35,62
12:13:31.501164,501164,42,84,114,257,262,48,35,62
12:13:31.502191,502191,42,84,114,257,262,48,35,62
12:13:31.503202,503202,42,84,114,257,262,48,35,62
12:13:31.504166,504166,42,84,114,257,262,48,35,62
12:13:31.505167,505167,42,84,114,257,262,48,35,62
12:13:31.506207,506207,42,84,114,257,262,48,35,62
12:13:31.507212,507212,42,84,114,257,262,48,35,62
12:13:31.508204,508204,42,84,114,257,262,48,35,62
12:13:31.509201,509201,42,84,114,257,262,48,35,62
12:13:31.509201,509201,52,86,124,265,275,51,37,81
12:13:31.510166,510166,52,86,124,265,275,51,37,81
12:13:31.511166,511166,52,86,124,265,275,51,37,81
12:13:31.512165,512165,52,86,124,265,275,51,37,81
12:13:31.513165,513165,52,86,124,265,275,51,37,81
12:13:31.514169,514169,52,86,124,265,275,51,37,81
12:13:31.515165,515165,52,86,124,265,275,51,37,81
12:13:31.516165,516165,52,86,124,265,275,51,37,81
12:13:31.517165,517165,52,86,124,265,275,51,37,81
12:13:31.518203,518203,52,86,124,265,275,51,37,81
12:13:31.519170,519170,52,86,124,265,275,51,37,81
12:13:31.520164,520164,52,86,124,265,275,51,37,81
12:13:31.521164,521164,52,86,124,265,275,51,37,81
12:13:31.522163,522163,52,86,124,265,275,51,37,81
12:13:31.523202,523202,52,86,124,265,275,51,37,81
12:13:31.524203,524203,52,86,124,265,275,51,37,81
12:13:31.525210,525210,166,125,178,251,313,52,51,141
12:13:31.526165,526165,166,125,178,251,313,52,51,141
12:13:31.527212,527212,166,125,178,251,313,52,51,141
12:13:31.528202,528202,166,125,178,251,313,52,51,141
12:13:31.529204,529204,166,125,178,251,313,52,51,141
12:13:31.530199,530199,166,125,178,251,313,52,51,141
12:13:31.531222,531222,166,125,178,251,313,52,51,141
12:13:31.532213,532213,166,125,178,251,313,52,51,141
12:13:31.533202,533202,166,125,178,251,313,52,51,141
12:13:31.534163,534163,166,125,178,251,313,52,51,141
12:13:31.535168,535168,166,125,178,251,313,52,51,141
12:13:31.536165,536165,166,125,178,251,313,52,51,141
12:13:31.537165,537165,166,125,178,251,313,52,51,141
12:13:31.538166,538166,166,125,178,251,313,52,51,141
12:13:31.539190,539190,166,125,178,251,313,52,51,141
12:13:31.540192,540192,166,125,178,251,313,52,51,141
12:13:31.541197,541197,166,125,178,251,313,52,51,141
12:13:31.541197,541197,172,108,222,427,290,65,57,107
12:13:31.542165,542165,172,108,222,427,290,65,57,107
12:13:31.543191,543191,172,108,222,427,290,65,57,107
12:13:31.544189,544189,172,108,222,427,290,65,57,107
12:13:31.545205,545205,172,108,222,427,290,65,57,107
12:13:31.546189,546189,172,108,222,427,290,65,57,107
12:13:31.547195,547195,172,108,222,427,290,65,57,107
12:13:31.548192,548192,172,108,222,427,290,65,57,107
12:13:31.549201,549201,172,108,222,427,290,65,57,107
12:13:31.550164,550164,172,108,222,427,290,65,57,107
12:13:31.551192,551192,172,108,222,427,290,65,57,107
12:13:31.552191,552191,172,108,222,427,290,65,57,107
12:13:31.553165,553165,172,108,222,427,290,65,57,107
12:13:31.554164,554164,172,108,222,427,290,65,57,107
12:13:31.555166,555166,172,108,222,427,290,65,57,107
12:13:31.556194,556194,172,108,222,427,290,65,57,107
12:13:31.557167,557167,172,108,222,427,290,65,57,107
12:13:31.557167,557167,170,98,215,410,267,62,52,98
12:13:31.558166,558166,170,98,215,410,267,62,52,98
12:13:31.559195,559195,170,98,215,410,267,62,52,98
12:13:31.560164,560164,170,98,215,410,267,62,52,98
12:13:31.561180,561180,170,98,215,410,267,62,52,98
12:13:31.562165,562165,170,98,215,410,267,62,52,98
12:13:31.563193,563193,170,98,215,410,267,62,52,98
12:13:31.564192,564192,170,98,215,410,267,62,52,98
12:13:31.565194,565194,170,98,215,410,267,62,52,98
12:13:31.566190,566190,170,98,215,410,267,62,52,98
12:13:31.567192,567192,170,98,215,410,267,62,52,98
12:13:31.568189,568189,170,98,215,410,267,62,52,98
12:13:31.569189,569189,170,98,215,410,267,62,52,98
12:13:31.570190,570190,170,98,215,410,267,62,52,98
12:13:31.571191,571191,170,98,215,410,267,62,52,98
12:13:31.572164,572164,170,98,215,410,267,62,52,98
12:13:31.573202,573202,170,98,215,410,267,62,52,98
12:13:31.573202,573202,131,56,191,410,309,35,41,114
12:13:31.574211,574211,131,56,191,410,309,35,41,114
12:13:31.575164,575164,131,56,191,410,309,35,41,114
12:13:31.576166,576166,131,56,191,410,309,35,41,114
12:13:31.577164,577164,131,56,191,410,309,35,41,114
12:13:31.578164,578164,131,56,191,410,309,35,41,114
12:13:31.579164,579164,131,56,191,410,309,35,41,114
12:13:31.580164,580164,131,56,191,410,309,35,41,114
12:13:31.581166,581166,131,56,191,410,309,35,41,114
12:13:31.582202,582202,131,56,191,410,309,35,41,114
12:13:31.583202,583202,131,56,191,410,309,35,41,114
12:13:31.584202,584202,131,56,191,410,309,35,41,114
12:13:31.585203,585203,131,56,191,410,309,35,41,114
12:13:31.586168,586168,131,56,191,410,309,35,41,114
12:13:31.587164,587164,131,56,191,410,309,35,41,114
12:13:31.588201,588201,131,56,191,410,309,35,41,114
12:13:31.589166,589166,131,56,191,410,309,35,41,114
12:13:31.590165,590165,131,56,191,410,309,35,41,114
12:13:31.591163,591163,131,56,191,410,309,35,41,114
12:13:31.592163,592163,131,56,191,410,309,35,41,114
12:13:31.593163,593163,131,56,191,410,309,35,41,114
12:13:31.594163,594163,131,56,191,410,309,35,41,114
12:13:31.595163,595163,131,56,191,410,309,35,41,114
12:13:31.596164,596164,131,56,191,410,309,35,41,114
12:13:31.597165,597165,131,56,191,410,309,35,41,114
12:13:31.598163,598163,131,56,191,410,309,35,41,114
12:13:31.599163,599163,131,56,191,410,309,35,41,114
12:13:31.600163,600163,131,56,191,410,309,35,41,114
12:13:31.601164,601164,131,56,191,410,309,35,41,114
12:13:31.602163,602163,131,56,191,410,309,35,41,114
12:13:31.603163,603163,131,56,191,410,309,35,41,114
12:13:31.604163,604163,131,56,191,410,309,35,41,114
12:13:31.604163,604163,139,47,182,383,317,32,65,117
12:13:31.605167,605167,139,47,182,383,317,32,65,117
12:13:31.606167,606167,139,47,182,383,317,32,65,117
12:13:31.607164,607164,139,47,182,383,317,32,65,117
12:13:31.608163,608163,139,47,182,383,317,32,65,117
12:13:31.609165,609165,139,47,182,383,317,32,65,117
12:13:31.610168,610168,139,47,182,383,317,32,65,117
12:13:31.611203,611203,139,47,182,383,317,32,65,117
12:13:31.612194,612194,139,47,182,383,317,32,65,117
12:13:31.613203,613203,139,47,182,383,317,32,65,117
12:13:31.614202,614202,139,47,182,383,317,32,65,117
12:13:31.615202,615202,139,47,182,383,317,32,65,117
12:13:31.616165,616165,139,47,182,383,317,32,65,117
12:13:31.617168,617168,139,47,182,383,317,32,65,117
12:13:31.618173,618173,139,47,182,383,317,32,65,117
12:13:31.619165,619165,139,47,182,383,317,32,65,117
12:13:31.620166,620166,139,47,182,383,317,32,65,117
12:13:31.620166,620166,148,57,190,397,307,33,70,115
12:13:31.620166,620166,143,64,190,460,332,41,77,107
12:13:31.620166,620166,150,75,206,473,275,37,97,104
12:13:31.621166,621166,161,90,225,532,245,40,99,115
12:13:31.622208,622208,161,90,225,532,245,40,99,115
12:13:31.623207,623207,161,90,225,532,245,40,99,115
12:13:31.624166,624166,161,90,225,532,245,40,99,115
12:13:31.625202,625202,161,90,225,532,245,40,99,115
12:13:31.626201,626201,161,90,225,532,245,40,99,115
12:13:31.627163,627163,161,90,225,532,245,40,99,115
12:13:31.628166,628166,161,90,225,532,245,40,99,115
12:13:31.629204,629204,161,90,225,532,245,40,99,115
12:13:31.630168,630168,161,90,225,532,245,40,99,115
12:13:31.631164,631164,161,90,225,532,245,40,99,115
12:13:31.632166,632166,161,90,225,532,245,40,99,115
12:13:31.633163,633163,161,90,225,532,245,40,99,115
12:13:31.634202,634202,161,90,225,532,245,40,99,115
12:13:31.635202,635202,161,90,225,532,245,40,99,115
12:13:31.636200,636200,161,90,225,532,245,40,99,115
12:13:31.636200,636200,107,90,148,684,247,50,83,71
12:13:31.637203,637203,107,90,148,684,247,50,83,71
12:13:31.638169,638169,107,90,148,684,247,50,83,71
12:13:31.639208,639208,107,90,148,684,247,50,83,71
12:13:31.640202,640202,107,90,148,684,247,50,83,71
12:13:31.641165,641165,107,90,148,684,247,50,83,71
12:13:31.642165,642165,107,90,148,684,247,50,83,71
12:13:31.643164,643164,107,90,148,684,247,50,83,71
12:13:31.644163,644163,107,90,148,684,247,50,83,71
12:13:31.645163,645163,107,90,148,684,247,50,83,71
12:13:31.646163,646163,107,90,148,684,247,50,83,71
12:13:31.647163,647163,107,90,148,684,247,50,83,71
12:13:31.648163,648163,107,90,148,684,247,50,83,71
12:13:31.649163,649163,107,90,148,684,247,50,83,71
12:13:31.650163,650163,107,90,148,684,247,50,83,71
12:13:31.651163,651163,107,90,148,684,247,50,83,71
12:13:31.652163,652163,81,56,116,643,219,36,97,70
12:13:31.653209,653209,81,56,116,643,219,36,97,70
12:13:31.654204,654204,81,56,116,643,219,36,97,70
12:13:31.655202,655202,81,56,116,643,219,36,97,70
12:13:31.656202,656202,81,56,116,643,219,36,97,70
12:13:31.657204,657204,81,56,116,643,219,36,97,70
12:13:31.658202,658202,81,56,116,643,219,36,97,70
12:13:31.659165,659165,81,56,116,643,219,36,97,70
12:13:31.660202,660202,81,56,116,643,219,36,97,70
12:13:31.661164,661164,81,56,116,643,219,36,97,70
12:13:31.662165,662165,81,56,116,643,219,36,97,70
12:13:31.663165,663165,81,56,116,643,219,36,97,70
12:13:31.664164,664164,81,56,116,643,219,36,97,70
12:13:31.665164,665164,81,56,116,643,219,36,97,70
12:13:31.666164,666164,81,56,116,643,219,36,97,70
12:13:31.667165,667165,81,56,116,643,219,36,97,70
12:13:31.668166,668166,81,56,116,643,219,36,97,70
12:13:31.669205,669205,81,56,116,643,219,36,97,70
12:13:31.670201,670201,81,56,116,643,219,36,97,70
12:13:31.671201,671201,81,56,116,643,219,36,97,70
12:13:31.672164,672164,81,56,116,643,219,36,97,70
12:13:31.673163,673163,81,56,116,643,219,36,97,70
12:13:31.674163,674163,81,56,116,643,219,36,97,70
12:13:31.675164,675164,81,56,116,643,219,36,97,70
12:13:31.676163,676163,81,56,116,643,219,36,97,70
12:13:31.677164,677164,81,56,116,643,219,36,97,70
12:13:31.678163,678163,81,56,116,643,219,36,97,70
12:13:31.679163,679163,81,56,116,643,219,36,97,70
12:13:31.680203,680203,81,56,116,643,219,36,97,70
12:13:31.681204,681204,81,56,116,643,219,36,97,70
12:13:31.682167,682167,81,56,116,643,219,36,97,70
12:13:31.683167,683167,81,56,116,643,219,36,97,70
12:13:31.683167,683167,73,54,107,483,202,51,112,123
12:13:31.684165,684165,73,54,107,483,202,51,112,123
12:13:31.685202,685202,73,54,107,483,202,51,112,123
12:13:31.686166,686166,73,54,107,483,202,51,112,123
12:13:31.687165,687165,73,54,107,483,202,51,112,123
12:13:31.688165,688165,73,54,107,483,202,51,112,123
12:13:31.689201,689201,73,54,107,483,202,51,112,123
12:13:31.690165,690165,73,54,107,483,202,51,112,123
12:13:31.691166,691166,73,54,107,483,202,51,112,123
12:13:31.692166,692166,73,54,107,483,202,51,112,123
12:13:31.693204,693204,73,54,107,483,202,51,112,123
12:13:31.694201,694201,73,54,107,483,202,51,112,123
12:13:31.695201,695201,73,54,107,483,202,51,112,123
12:13:31.696202,696202,73,54,107,483,202,51,112,123
12:13:31.697163,697163,73,54,107,483,202,51,112,123
12:13:31.698202,698202,73,54,107,483,202,51,112,123
12:13:31.699166,699166,73,54,107,483,202,51,112,123
12:13:31.699166,699166,113,55,102,454,162,57,123,125
12:13:31.699166,699166,105,46,102,414,148,49,120,126
12:13:31.699166,699166,105,42,106,418,163,52,125,134
12:13:31.700169,700169,99,37,95,500,161,68,131,126
12:13:31.701164,701164,99,37,95,500,161,68,131,126
12:13:31.702165,702165,99,37,95,500,161,68,131,126
12:13:31.703164,703164,99,37,95,500,161,68,131,126
12:13:31.704165,704165,99,37,95,500,161,68,131,126
12:13:31.705165,705165,99,37,95,500,161,68,131,126
12:13:31.706169,706169,99,37,95,500,161,68,131,126
12:13:31.707171,707171,99,37,95,500,161,68,131,126
12:13:31.708168,708168,99,37,95,500,161,68,131,126
12:13:31.709168,709168,99,37,95,500,161,68,131,126
12:13:31.710168,710168,99,37,95,500,161,68,131,126
12:13:31.711168,711168,99,37,95,500,161,68,131,126
12:13:31.712168,712168,99,37,95,500,161,68,131,126
12:13:31.713164,713164,99,37,95,500,161,68,131,126
12:13:31.714203,714203,99,37,95,500,161,68,131,126
12:13:31.715164,715164,98,37,81,426,140,70,124,119
12:13:31.715164,715164,93,38,82,381,134,80,134,126
12:13:31.715164,715164,94,33,77,375,126,75,118,121
12:13:31.715164,715164,93,33,68,362,114,75,108,99
12:13:31.716205,716205,93,33,68,362,114,75,108,99
12:13:31.717164,717164,93,33,68,362,114,75,108,99
12:13:31.718164,718164,93,33,68,362,114,75,108,99
12:13:31.719162,719162,93,33,68,362,114,75,108,99
12:13:31.720201,720201,93,33,68,362,114,75,108,99
12:13:31.721167,721167,93,33,68,362,114,75,108,99
12:13:31.722166,722166,93,33,68,362,114,75,108,99
12:13:31.723205,723205,93,33,68,362,114,75,108,99
12:13:31.724202,724202,93,33,68,362,114,75,108,99
12:13:31.725169,725169,93,33,68,362,114,75,108,99
12:13:31.726165,726165,93,33,68,362,114,75,108,99
12:13:31.727202,727202,93,33,68,362,114,75,108,99
12:13:31.728165,728165,93,33,68,362,114,75,108,99
12:13:31.729163,729163,93,33,68,362,114,75,108,99
12:13:31.730192,730192,93,33,68,362,114,75,108,99
12:13:31.731164,731164,93,33,68,362,114,75,108,99
12:13:31.732166,732166,45,42,103,470,150,73,104,58
12:13:31.733164,733164,45,42,103,470,150,73,104,58
12:13:31.734164,734164,45,42,103,470,150,73,104,58
12:13:31.735164,735164,45,42,103,470,150,73,104,58
12:13:31.736165,736165,45,42,103,470,150,73,104,58
12:13:31.737164,737164,45,42,103,470,150,73,104,58
12:13:31.738164,738164,45,42,103,470,150,73,104,58
12:13:31.739164,739164,45,42,103,470,150,73,104,58
12:13:31.740163,740163,45,42,103,470,150,73,104,58
12:13:31.741213,741213,45,42,103,470,150,73,104,58
12:13:31.742165,742165,45,42,103,470,150,73,104,58
12:13:31.743202,743202,45,42,103,470,150,73,104,58
12:13:31.744202,744202,45,42,103,470,150,73,104,58
12:13:31.745204,745204,45,42,103,470,150,73,104,58
12:13:31.746202,746202,45,42,103,470,150,73,104,58
12:13:31.747202,747202,45,42,103,470,150,73,104,58
12:13:31.748199,748199,45,42,103,470,150,73,104,58
12:13:31.749164,749164,45,42,103,470,150,73,104,58
12:13:31.750168,750168,45,42,103,470,150,73,104,58
12:13:31.751166,751166,45,42,103,470,150,73,104,58
12:13:31.752210,752210,45,42,103,470,150,73,104,58
12:13:31.753166,753166,45,42,103,470,150,73,104,58
12:13:31.754202,754202,45,42,103,470,150,73,104,58
12:13:31.755204,755204,45,42,103,470,150,73,104,58
12:13:31.756202,756202,45,42,103,470,150,73,104,58
12:13:31.757204,757204,45,42,103,470,150,73,104,58
12:13:31.758201,758201,45,42,103,470,150,73,104,58
12:13:31.759201,759201,45,42,103,470,150,73,104,58
12:13:31.760202,760202,45,42,103,470,150,73,104,58
12:13:31.775168,775168,118,52,109,313,189,63,47,89
12:13:31.776167,776167,118,52,109,313,189,63,47,89
12:13:31.777165,777165,118,52,109,313,189,63,47,89
12:13:31.778165,778165,118,52,109,313,189,63,47,89
12:13:31.779167,779167,118,52,109,313,189,63,47,89
12:13:31.780166,780166,118,52,109,313,189,63,47,89
12:13:31.781166,781166,118,52,109,313,189,63,47,89
12:13:31.782165,782165,118,52,109,313,189,63,47,89
12:13:31.783165,783165,118,52,109,313,189,63,47,89
12:13:31.784167,784167,118,52,109,313,189,63,47,89
12:13:31.785166,785166,118,52,109,313,189,63,47,89
12:13:31.786165,786165,118,52,109,313,189,63,47,89
12:13:31.787165,787165,118,52,109,313,189,63,47,89
12:13:31.788167,788167,118,52,109,313,189,63,47,89
12:13:31.789166,789166,118,52,109,313,189,63,47,89
12:13:31.790165,790165,118,52,109,313,189,63,47,89
12:13:31.791165,791165,118,52,109,313,189,63,47,89
12:13:31.792165,792165,118,52,109,313,189,63,47,89
12:13:31.793166,793166,118,52,109,313,189,63,47,89
12:13:31.794165,794165,118,52,109,313,189,63,47,89
12:13:31.794165,794165,102,52,124,298,267,74,56,88
12:13:31.794165,794165,100,48,100,316,243,81,76,94
12:13:31.794165,794165,94,40,99,403,234,72,75,98
12:13:31.794165,794165,96,36,97,493,213,67,70,97
12:13:31.795167,795167,96,36,97,493,213,67,70,97
12:13:31.796165,796165,96,36,97,493,213,67,70,97
12:13:31.797166,797166,96,36,97,493,213,67,70,97
12:13:31.798165,798165,96,36,97,493,213,67,70,97
12:13:31.799165,799165,96,36,97,493,213,67,70,97
12:13:31.800165,800165,96,36,97,493,213,67,70,97
12:13:31.801165,801165,96,36,97,493,213,67,70,97
12:13:31.802165,802165,96,36,97,493,213,67,70,97
12:13:31.803165,803165,96,36,97,493,213,67,70,97
12:13:31.804166,804166,96,36,97,493,213,67,70,97
12:13:31.805167,805167,96,36,97,493,213,67,70,97
12:13:31.806165,806165,96,36,97,493,213,67,70,97
12:13:31.807165,807165,96,36,97,493,213,67,70,97
12:13:31.808165,808165,96,36,97,493,213,67,70,97
12:13:31.809166,809166,96,36,97,493,213,67,70,97
12:13:31.810167,810167,96,36,97,493,213,67,70,97
12:13:31.811165,811165,96,36,97,493,213,67,70,97
12:13:31.812165,812165,96,36,97,493,213,67,70,97
12:13:31.813165,813165,96,36,97,493,213,67,70,97
12:13:31.814165,814165,96,36,97,493,213,67,70,97
12:13:31.815166,815166,96,36,97,493,213,67,70,97
12:13:31.816166,816166,96,36,97,493,213,67,70,97
12:13:31.817166,817166,96,36,97,493,213,67,70,97
12:13:31.818165,818165,96,36,97,493,213,67,70,97
12:13:31.819165,819165,96,36,97,493,213,67,70,97
12:13:31.820165,820165,96,36,97,493,213,67,70,97
12:13:31.821165,821165,96,36,97,493,213,67,70,97
12:13:31.822165,822165,96,36,97,493,213,67,70,97
12:13:31.823166,823166,96,36,97,493,213,67,70,97
12:13:31.824166,824166,96,36,97,493,213,67,70,97
12:13:31.825166,825166,96,36,97,493,213,67,70,97
12:13:31.825166,825166,65,30,60,537,253,79,73,63
12:13:31.825166,825166,72,22,62,543,240,72,86,63
12:13:31.826168,826168,72,22,62,543,240,72,86,63
12:13:31.827166,827166,72,22,62,543,240,72,86,63
12:13:31.828165,828165,72,22,62,543,240,72,86,63
12:13:31.829165,829165,72,22,62,543,240,72,86,63
12:13:31.830166,830166,72,22,62,543,240,72,86,63
12:13:31.831165,831165,72,22,62,543,240,72,86,63
12:13:31.832165,832165,72,22,62,543,240,72,86,63
12:13:31.833166,833166,72,22,62,543,240,72,86,63
12:13:31.834165,834165,72,22,62,543,240,72,86,63
12:13:31.835166,835166,72,22,62,543,240,72,86,63
12:13:31.836165,836165,72,22,62,543,240,72,86,63
12:13:31.837165,837165,72,22,62,543,240,72,86,63
12:13:31.838166,838166,72,22,62,543,240,72,86,63
12:13:31.839165,839165,72,22,62,543,240,72,86,63
12:13:31.840165,840165,72,22,62,543,240,72,86,63
12:13:31.840165,840165,73,29,83,465,270,65,53,54
12:13:31.841166,841166,73,29,83,465,270,65,53,54
12:13:31.842165,842165,73,29,83,465,270,65,53,54
12:13:31.843165,843165,73,29,83,465,270,65,53,54
12:13:31.844165,844165,73,29,83,465,270,65,53,54
12:13:31.845165,845165,73,29,83,465,270,65,53,54
12:13:31.846166,846166,73,29,83,465,270,65,53,54
12:13:31.847167,847167,73,29,83,465,270,65,53,54
12:13:31.848166,848166,73,29,83,465,270,65,53,54
12:13:31.849165,849165,73,29,83,465,270,65,53,54
12:13:31.850165,850165,73,29,83,465,270,65,53,54
12:13:31.851165,851165,73,29,83,465,270,65,53,54
12:13:31.852165,852165,73,29,83,465,270,65,53,54
12:13:31.853165,853165,73,29,83,465,270,65,53,54
12:13:31.854165,854165,73,29,83,465,270,65,53,54
12:13:31.855166,855166,73,29,83,465,270,65,53,54
12:13:31.856165,856165,73,29,83,465,270,65,53,54
12:13:31.856165,856165,56,35,93,128,211,69,52,56
12:13:31.857167,857167,56,35,93,128,211,69,52,56
12:13:31.858165,858165,56,35,93,128,211,69,52,56
12:13:31.859165,859165,56,35,93,128,211,69,52,56
12:13:31.860165,860165,56,35,93,128,211,69,52,56
12:13:31.861165,861165,56,35,93,128,211,69,52,56
12:13:31.862165,862165,56,35,93,128,211,69,52,56
12:13:31.863165,863165,56,35,93,128,211,69,52,56
12:13:31.864165,864165,56,35,93,128,211,69,52,56
12:13:31.865165,865165,56,35,93,128,211,69,52,56
12:13:31.866165,866165,56,35,93,128,211,69,52,56
12:13:31.867165,867165,56,35,93,128,211,69,52,56
12:13:31.868165,868165,56,35,93,128,211,69,52,56
12:13:31.869165,869165,56,35,93,128,211,69,52,56
12:13:31.870165,870165,56,35,93,128,211,69,52,56
12:13:31.871165,871165,56,35,93,128,211,69,52,56
12:13:31.872165,872165,31,56,141,247,190,58,34,38
12:13:31.873166,873166,31,56,141,247,190,58,34,38
12:13:31.874165,874165,31,56,141,247,190,58,34,38
12:13:31.875166,875166,31,56,141,247,190,58,34,38
12:13:31.876165,876165,31,56,141,247,190,58,34,38
12:13:31.877165,877165,31,56,141,247,190,58,34,38
12:13:31.878165,878165,31,56,141,247,190,58,34,38
12:13:31.879165,879165,31,56,141,247,190,58,34,38
12:13:31.880165,880165,31,56,141,247,190,58,34,38
12:13:31.881165,881165,31,56,141,247,190,58,34,38
12:13:31.882165,882165,31,56,141,247,190,58,34,38
12:13:31.883164,883164,31,56,141,247,190,58,34,38
12:13:31.884166,884166,31,56,141,247,190,58,34,38
12:13:31.885166,885166,31,56,141,247,190,58,34,38
12:13:31.886165,886165,31,56,141,247,190,58,34,38
12:13:31.887165,887165,31,56,141,247,190,58,34,38
12:13:31.888167,888167,31,56,141,247,190,58,34,38
12:13:31.888167,888167,29,52,130,249,175,54,34,37
12:13:31.889166,889166,29,52,130,249,175,54,34,37
12:13:31.890165,890165,29,52,130,249,175,54,34,37
12:13:31.891165,891165,29,52,130,249,175,54,34,37
12:13:31.892165,892165,29,52,130,249,175,54,34,37
12:13:31.893165,893165,29,52,130,249,175,54,34,37
12:13:31.894164,894164,29,52,130,249,175,54,34,37
12:13:31.895165,895165,29,52,130,249,175,54,34,37
12:13:31.896165,896165,29,52,130,249,175,54,34,37
12:13:31.897165,897165,29,52,130,249,175,54,34,37
12:13:31.898165,898165,29,52,130,249,175,54,34,37
12:13:31.899165,899165,29,52,130,249,175,54,34,37
12:13:31.900165,900165,29,52,130,249,175,54,34,37
12:13:31.901165,901165,29,52,130,249,175,54,34,37
12:13:31.902165,902165,29,52,130,249,175,54,34,37
12:13:31.903165,903165,29,52,130,249,175,54,34,37
12:13:31.904165,904165,29,52,130,249,175,54,34,37
12:13:31.904165,904165,49,64,168,309,188,68,36,36
12:13:31.905168,905168,49,64,168,309,188,68,36,36
12:13:31.906165,906165,49,64,168,309,188,68,36,36
12:13:31.907165,907165,49,64,168,309,188,68,36,36
12:13:31.908165,908165,49,64,168,309,188,68,36,36
12:13:31.909166,909166,49,64,168,309,188,68,36,36
12:13:31.910165,910165,49,64,168,309,188,68,36,36
12:13:31.911165,911165,49,64,168,309,188,68,36,36
12:13:31.912165,912165,49,64,168,309,188,68,36,36
12:13:31.913166,913166,49,64,168,309,188,68,36,36
12:13:31.914165,914165,49,64,168,309,188,68,36,36
12:13:31.915166,915166,49,64,168,309,188,68,36,36
12:13:31.916165,916165,49,64,168,309,188,68,36,36
