EMG 1,EMG 2,EMG 3,EMG 4,EMG 5,EMG 6,EMG 7,EMG 8,Timestamp
2,3,23,0,1,4,2,0,2021-08-02 17:17:34.109406
1,-1,-72,-14,1,1,0,1,2021-08-02 17:17:34.111411
-2,-8,13,-6,-5,-5,-5,-3,2021-08-02 17:17:34.133407
-2,1,25,33,-1,-2,-1,-1,2021-08-02 17:17:34.133407
-1,5,-23,-26,5,3,3,1,2021-08-02 17:17:34.133407
-1,-2,8,11,8,1,3,0,2021-08-02 17:17:34.134407
-3,-6,-65,-11,-6,-5,-5,-1,2021-08-02 17:17:34.139409
0,1,9,-14,-2,-1,0,-1,2021-08-02 17:17:34.139409
1,2,-5,9,0,1,1,2,2021-08-02 17:17:34.149406
1,2,58,8,3,1,1,0,2021-08-02 17:17:34.149406
-1,-7,-24,-14,-3,-2,-4,-1,2021-08-02 17:17:34.163408
-2,-4,-67,-12,-6,-3,-4,-2,2021-08-02 17:17:34.163408
-2,-5,39,-4,0,0,-1,-2,2021-08-02 17:17:34.168409
-2,-1,-54,5,-7,-3,-2,0,2021-08-02 17:17:34.168409
-1,2,51,7,-3,-3,-3,-2,2021-08-02 17:17:34.201406
1,0,-40,-17,-2,0,0,1,2021-08-02 17:17:34.202408
1,1,5,-4,-1,1,3,-2,2021-08-02 17:17:34.202408
-2,-2,33,8,0,1,0,-2,2021-08-02 17:17:34.202408
0,-2,-9,3,-2,-2,-4,0,2021-08-02 17:17:34.202408
0,0,39,8,0,1,-2,-1,2021-08-02 17:17:34.202408
1,-1,-18,-5,-2,-1,1,1,2021-08-02 17:17:34.211409
1,0,-1,14,0,-2,-1,-1,2021-08-02 17:17:34.211409
-2,-3,-33,-26,-1,-1,-3,-2,2021-08-02 17:17:34.245452
1,1,21,-2,-5,1,1,0,2021-08-02 17:17:34.245452
-1,2,15,14,1,3,2,-2,2021-08-02 17:17:34.246451
2,0,30,-7,-1,-1,1,0,2021-08-02 17:17:34.246451
-3,-4,-5,-2,-3,-5,-4,-1,2021-08-02 17:17:34.246451
-2,-3,-20,-13,-1,-1,-1,-1,2021-08-02 17:17:34.246451
3,4,5,2,3,3,1,1,2021-08-02 17:17:34.246451
0,6,-25,3,2,3,1,-2,2021-08-02 17:17:34.246451
-3,-11,14,-6,-10,-4,-3,-3,2021-08-02 17:17:34.267976
1,3,1,-5,5,0,1,1,2021-08-02 17:17:34.267976
1,1,-35,-3,-6,-1,0,1,2021-08-02 17:17:34.273980
-3,0,26,-4,1,-2,-2,-3,2021-08-02 17:17:34.274979
-1,0,11,5,-2,-2,-3,0,2021-08-02 17:17:34.283036
0,-3,-3,5,-1,-1,-2,0,2021-08-02 17:17:34.283036
1,1,-40,-14,3,3,3,2,2021-08-02 17:17:34.289019
-2,-3,12,14,0,0,1,0,2021-08-02 17:17:34.289019
-1,-4,-23,-8,-4,-4,-6,-2,2021-08-02 17:17:34.316016
1,2,23,-5,1,-2,0,-1,2021-08-02 17:17:34.317016
-2,-1,-29,10,3,1,-1,-3,2021-08-02 17:17:34.317016
-1,-4,29,5,-3,-2,-2,-1,2021-08-02 17:17:34.318019
-3,-8,-34,-25,1,-3,-1,-3,2021-08-02 17:17:34.318019
-1,3,5,7,-4,1,1,1,2021-08-02 17:17:34.318019
1,0,14,5,3,2,3,0,2021-08-02 17:17:34.329019
-2,-3,3,9,0,-1,0,0,2021-08-02 17:17:34.329019
-5,-3,22,-1,-7,-7,-6,-2,2021-08-02 17:17:34.341020
0,3,-1,0,-5,-1,-1,-1,2021-08-02 17:17:34.341020
0,0,9,-14,9,2,3,-1,2021-08-02 17:17:34.348020
1,2,27,17,0,-1,-1,0,2021-08-02 17:17:34.348020
1,-3,-78,-11,-8,-5,-4,-1,2021-08-02 17:17:34.365019
-1,-4,-10,-3,0,-1,-1,-2,2021-08-02 17:17:34.366018
1,5,43,10,0,1,0,-1,2021-08-02 17:17:34.366018
-2,-3,-10,-4,1,-1,2,-2,2021-08-02 17:17:34.366018
-4,-1,52,6,-4,-4,-4,-2,2021-08-02 17:17:34.401017
0,-1,-22,-14,3,-1,0,0,2021-08-02 17:17:34.401017
1,-1,-9,12,0,1,3,0,2021-08-02 17:17:34.401017
-1,-2,-45,-22,-5,-2,-3,-2,2021-08-02 17:17:34.401017
-2,-2,19,5,-2,0,-1,-2,2021-08-02 17:17:34.405018
0,1,-30,15,2,0,-1,-1,2021-08-02 17:17:34.405018
-1,-1,24,-6,7,3,1,0,2021-08-02 17:17:34.408019
2,3,-38,-16,-2,2,0,2,2021-08-02 17:17:34.408019
-4,-4,15,-2,-10,-6,-4,-3,2021-08-02 17:17:34.427016
-1,-1,42,12,-1,-2,-1,-2,2021-08-02 17:17:34.427016
-1,3,-8,7,-1,-2,0,-1,2021-08-02 17:17:34.428016
-1,1,7,5,2,-1,-1,-1,2021-08-02 17:17:34.429016
0,-3,-3,-13,-2,0,-3,-2,2021-08-02 17:17:34.444015
1,0,-28,-7,5,0,2,0,2021-08-02 17:17:34.444015
-1,1,47,11,-1,1,1,-1,2021-08-02 17:17:34.447018
-2,-9,-78,-30,-5,-4,-2,-3,2021-08-02 17:17:34.447018
-1,-1,13,22,-2,-4,-3,0,2021-08-02 17:17:34.481015
-1,2,23,-19,-1,-1,-1,-1,2021-08-02 17:17:34.482018
0,4,37,14,2,2,2,1,2021-08-02 17:17:34.482018
-1,-2,-41,13,-2,1,2,-2,2021-08-02 17:17:34.482018
-3,-5,22,-49,-2,-2,-3,-2,2021-08-02 17:17:34.489018
-3,-4,-20,11,-2,0,-1,0,2021-08-02 17:17:34.489018
0,2,-29,-13,0,1,1,-2,2021-08-02 17:17:34.490016
-1,1,29,13,5,1,1,1,2021-08-02 17:17:34.490016
-2,-1,6,17,-3,-3,-4,-1,2021-08-02 17:17:34.501016
-1,-12,-21,-10,-1,1,0,1,2021-08-02 17:17:34.501016
2,4,30,8,3,3,3,-1,2021-08-02 17:17:34.510015
-3,-8,-27,-10,-7,-2,-4,-1,2021-08-02 17:17:34.510015
-3,0,-68,-2,-2,-2,-4,-3,2021-08-02 17:17:34.524016
3,1,52,-17,-1,-1,0,1,2021-08-02 17:17:34.525016
2,2,-13,12,3,2,3,6,2021-08-02 17:17:34.529019
-4,-2,1,6,-2,-3,-2,-12,2021-08-02 17:17:34.529019
7,-4,-7,3,-2,-2,-4,2,2021-08-02 17:17:34.565017
-1,4,4,12,3,1,1,-4,2021-08-02 17:17:34.565017
2,0,-27,-18,-2,0,0,13,2021-08-02 17:17:34.565017
-1,3,21,-9,-2,0,0,0,2021-08-02 17:17:34.565017
-6,-11,34,6,-4,-3,-4,-4,2021-08-02 17:17:34.566020
1,2,-25,4,2,1,2,2,2021-08-02 17:17:34.566020
-3,1,-3,16,2,1,0,-3,2021-08-02 17:17:34.567018
5,1,16,-28,2,2,0,-2,2021-08-02 17:17:34.567018
-3,-7,-13,14,-9,-4,-5,-6,2021-08-02 17:17:34.606016
2,10,19,-40,0,1,1,6,2021-08-02 17:17:34.606016
-8,-7,1,13,-2,0,-1,-20,2021-08-02 17:17:34.607020
-7,-1,-41,-2,-4,-5,-3,2,2021-08-02 17:17:34.607020
-3,-5,12,7,0,-3,-3,1,2021-08-02 17:17:34.607020
3,9,-20,17,4,3,2,0,2021-08-02 17:17:34.607020
3,4,11,-9,0,1,4,-1,2021-08-02 17:17:34.613019
-4,4,39,8,-2,-1,-3,1,2021-08-02 17:17:34.613019
-2,-12,-45,-21,-3,-4,-4,-2,2021-08-02 17:17:34.620018
0,5,30,14,0,1,0,-1,2021-08-02 17:17:34.620018
-1,-2,-11,-13,2,-1,1,-1,2021-08-02 17:17:34.634017
1,5,0,22,1,0,0,2,2021-08-02 17:17:34.634017
-5,0,-12,-4,-5,-5,-2,-1,2021-08-02 17:17:34.647015
0,-4,44,48,1,0,-2,-3,2021-08-02 17:17:34.647015
2,2,-36,-50,-1,3,1,3,2021-08-02 17:17:34.649017
-2,-9,-1,0,-7,-2,-2,-2,2021-08-02 17:17:34.650019
0,9,31,21,-2,-2,-3,-1,2021-08-02 17:17:34.686016
-3,-16,-89,-10,0,-1,-1,-1,2021-08-02 17:17:34.686016
0,9,71,25,1,0,-1,0,2021-08-02 17:17:34.686016
0,-8,20,0,-2,0,-1,-1,2021-08-02 17:17:34.687017
-1,2,10,-32,-4,-5,-4,1,2021-08-02 17:17:34.687017
1,5,-33,20,1,0,2,-2,2021-08-02 17:17:34.687017
2,-4,-7,-6,0,-1,2,0,2021-08-02 17:17:34.690018
0,-1,1,-9,0,0,2,-4,2021-08-02 17:17:34.691019
-3,0,20,8,-1,-2,-2,-2,2021-08-02 17:17:34.739019
-2,7,23,10,3,2,2,0,2021-08-02 17:17:34.739019
3,-13,-32,-13,0,0,-1,-2,2021-08-02 17:17:34.739019
-2,3,10,-14,-3,0,-1,1,2021-08-02 17:17:34.739019
-1,0,19,21,-3,-3,-1,-1,2021-08-02 17:17:34.739019
-3,-4,-18,-4,0,0,0,4,2021-08-02 17:17:34.739019
0,3,1,-10,-1,-2,1,-9,2021-08-02 17:17:34.740018
0,-7,7,2,-2,-3,-4,0,2021-08-02 17:17:34.740018
-2,-3,-25,-2,-3,-3,-2,-1,2021-08-02 17:17:34.766018
3,13,69,20,2,2,2,0,2021-08-02 17:17:34.767018
-1,-6,-42,-2,2,2,1,1,2021-08-02 17:17:34.767018
-2,-3,62,13,-6,-2,-2,-1,2021-08-02 17:17:34.767018
-2,-3,-75,-33,-4,-3,-1,-2,2021-08-02 17:17:34.767018
0,-2,2,3,-2,-1,0,-1,2021-08-02 17:17:34.768019
-2,5,43,5,2,1,0,1,2021-08-02 17:17:34.773018
-2,0,-49,-17,0,0,-2,-2,2021-08-02 17:17:34.774018
-4,-12,22,8,-2,-2,-4,0,2021-08-02 17:17:34.808018
-1,5,20,-10,-2,-2,-1,0,2021-08-02 17:17:34.808018
-4,-4,-42,4,-3,-1,-2,-1,2021-08-02 17:17:34.809018
0,-5,-8,7,2,1,1,1,2021-08-02 17:17:34.809018
-1,0,-1,-6,-4,-1,-3,-1,2021-08-02 17:17:34.809018
0,1,15,1,3,0,0,-1,2021-08-02 17:17:34.809018
-1,-4,-6,-6,-2,-1,-1,0,2021-08-02 17:17:34.809018
-1,-2,-19,-1,-1,-1,-1,-3,2021-08-02 17:17:34.810018
2,2,-17,-8,0,-1,-1,0,2021-08-02 17:17:34.827017
0,-5,57,30,1,0,1,0,2021-08-02 17:17:34.827017
2,6,-37,2,2,2,0,1,2021-08-02 17:17:34.832018
-3,-4,-37,-34,-7,-4,-5,-3,2021-08-02 17:17:34.832018
0,1,6,15,-1,-1,-3,0,2021-08-02 17:17:34.862016
2,-14,-26,-15,4,1,1,0,2021-08-02 17:17:34.862016
0,9,80,19,1,1,3,1,2021-08-02 17:17:34.862016
-2,-1,30,6,-4,-2,-2,-1,2021-08-02 17:17:34.862016
-4,-4,-51,-21,-5,-3,-5,-4,2021-08-02 17:17:34.867019
-2,-16,-3,-7,0,0,1,1,2021-08-02 17:17:34.868020
-3,-8,9,10,-3,-1,0,-1,2021-08-02 17:17:34.869019
-1,0,-25,-16,4,-2,-1,-1,2021-08-02 17:17:34.869019
-3,-4,6,11,-3,-4,-2,-2,2021-08-02 17:17:34.892018
2,12,-13,-2,5,4,2,-2,2021-08-02 17:17:34.892018
-1,3,14,21,0,0,0,0,2021-08-02 17:17:34.895016
-1,-4,27,-9,-5,-3,1,1,2021-08-02 17:17:34.895016
-3,-4,24,-11,-8,-7,-6,-3,2021-08-02 17:17:34.929016
-2,-5,-65,-11,0,-2,-1,-2,2021-08-02 17:17:34.930017
0,6,-12,-13,7,6,4,1,2021-08-02 17:17:34.930017
-1,0,-4,36,-3,-3,-4,-2,2021-08-02 17:17:34.930017
-4,-11,8,-18,-4,-3,-5,-3,2021-08-02 17:17:34.931016
0,4,7,-22,0,0,-1,-1,2021-08-02 17:17:34.931016
0,9,16,18,-4,-3,-1,1,2021-08-02 17:17:34.931016
-2,-4,-59,-12,-1,-2,-1,-2,2021-08-02 17:17:34.931016
0,-5,64,27,-5,-2,-3,0,2021-08-02 17:17:34.969017
2,6,-59,-18,-1,0,0,0,2021-08-02 17:17:34.970018
0,-5,-21,-6,3,1,1,-1,2021-08-02 17:17:34.970018
-1,-2,-40,6,-2,0,-3,-2,2021-08-02 17:17:34.970018
-1,3,22,-22,-4,-1,-2,-1,2021-08-02 17:17:34.970018
0,-8,38,12,0,-1,0,0,2021-08-02 17:17:34.970018
-1,1,24,-1,0,1,1,0,2021-08-02 17:17:34.972019
-3,-10,-42,-20,-4,-3,-4,-1,2021-08-02 17:17:34.973018
-2,-5,-17,8,0,-2,0,0,2021-08-02 17:17:35.009020
2,9,5,1,0,1,1,0,2021-08-02 17:17:35.009020
0,-3,20,-4,6,2,3,-1,2021-08-02 17:17:35.009020
-2,-4,2,4,-3,-1,-1,-2,2021-08-02 17:17:35.010018
-2,-2,16,-3,1,-2,-4,-1,2021-08-02 17:17:35.010018
-3,1,21,7,-9,-4,-2,-2,2021-08-02 17:17:35.010018
1,-2,-29,9,-2,-1,-1,1,2021-08-02 17:17:35.010018
-2,2,46,-8,-2,2,0,-3,2021-08-02 17:17:35.011015
2,0,11,-3,2,-1,-1,1,2021-08-02 17:17:35.046016
1,5,-59,-35,0,2,1,0,2021-08-02 17:17:35.046016
0,3,-1,13,1,0,0,0,2021-08-02 17:17:35.047017
-4,-1,102,10,-8,-5,-5,-3,2021-08-02 17:17:35.047017
-1,-6,-30,-7,-6,-5,-2,0,2021-08-02 17:17:35.049015
0,4,62,13,0,3,2,-1,2021-08-02 17:17:35.049015
3,1,-26,-2,8,4,1,1,2021-08-02 17:17:35.049015
-2,-3,20,0,-2,-2,-3,0,2021-08-02 17:17:35.049015
-3,-4,-14,-24,-4,-4,-4,-3,2021-08-02 17:17:35.087018
-3,3,25,11,1,-2,2,0,2021-08-02 17:17:35.088017
0,-2,-41,-16,-2,2,1,1,2021-08-02 17:17:35.088017
0,-3,-11,7,6,2,0,-1,2021-08-02 17:17:35.089015
-3,1,31,12,-3,-4,-3,-2,2021-08-02 17:17:35.089015
0,2,-24,-2,-1,0,0,1,2021-08-02 17:17:35.089015
-1,-4,14,6,7,2,0,0,2021-08-02 17:17:35.093020
-2,0,-16,6,-8,-4,-3,-2,2021-08-02 17:17:35.093020
-3,-5,-38,-30,3,1,-1,-1,2021-08-02 17:17:35.125017
1,3,9,19,-3,2,0,1,2021-08-02 17:17:35.126015
0,0,24,12,1,0,1,-1,2021-08-02 17:17:35.126015
-1,-6,20,-27,-8,-6,-4,-2,2021-08-02 17:17:35.126015
-4,0,-15,36,-1,-1,-2,-1,2021-08-02 17:17:35.126015
1,4,18,-19,3,2,2,-1,2021-08-02 17:17:35.127015
-1,1,-42,-7,-3,1,-1,-2,2021-08-02 17:17:35.130019
-5,-10,15,20,-3,-6,-7,-2,2021-08-02 17:17:35.130019
0,2,-16,-16,-4,-2,-1,5,2021-08-02 17:17:35.172073
3,2,21,21,9,4,3,-5,2021-08-02 17:17:35.173072
-5,-10,-53,-40,-9,-3,-5,0,2021-08-02 17:17:35.173072
0,5,8,-17,3,0,-1,-7,2021-08-02 17:17:35.173072
-3,-2,-9,18,-3,-4,-3,16,2021-08-02 17:17:35.174073
-1,2,24,5,5,3,0,4,2021-08-02 17:17:35.174073
-1,1,25,35,3,0,3,0,2021-08-02 17:17:35.174073
7,-2,-42,-63,-8,-4,-3,-7,2021-08-02 17:17:35.174073
0,-7,19,15,2,-2,-2,5,2021-08-02 17:17:35.188073
-5,4,-16,-25,3,1,6,-3,2021-08-02 17:17:35.188073
-4,-3,30,5,-5,-2,-7,-14,2021-08-02 17:17:35.193073
-6,-7,-3,3,-4,-3,-7,-2,2021-08-02 17:17:35.194072
9,16,-27,22,4,3,2,-8,2021-08-02 17:17:35.234071
-9,-28,-61,0,0,-2,3,24,2021-08-02 17:17:35.234071
9,2,47,-41,-8,-2,-6,-22,2021-08-02 17:17:35.234071
-4,-5,-50,9,-3,-4,-4,-15,2021-08-02 17:17:35.234071
-3,5,18,2,-3,-2,-6,5,2021-08-02 17:17:35.234071
14,8,-16,19,6,3,3,-11,2021-08-02 17:17:35.235071
-8,-1,33,18,0,0,4,20,2021-08-02 17:17:35.236072
12,-6,54,-2,-2,-2,0,-3,2021-08-02 17:17:35.236072
-32,-5,-67,-72,-9,-5,-6,17,2021-08-02 17:17:35.243073
2,4,23,31,3,2,4,5,2021-08-02 17:17:35.243073
-13,-1,-18,8,4,1,-7,42,2021-08-02 17:17:35.263070
5,2,59,23,-6,-3,-3,4,2021-08-02 17:17:35.264070
-5,-2,9,-14,-2,-3,2,-26,2021-08-02 17:17:35.266072
17,-4,-52,-27,-1,0,-5,-41,2021-08-02 17:17:35.266072
-24,-12,-1,2,-2,-1,8,-13,2021-08-02 17:17:35.273073
-9,0,7,40,1,0,-2,3,2021-08-02 17:17:35.273073
2,-4,-3,-18,-1,-1,-4,5,2021-08-02 17:17:35.306070
0,3,6,0,-4,-1,5,-7,2021-08-02 17:17:35.306070
15,9,7,0,3,3,2,-14,2021-08-02 17:17:35.307070
-6,-3,-18,4,-4,-3,-4,3,2021-08-02 17:17:35.307070
0,-6,12,0,-6,-4,-2,-10,2021-08-02 17:17:35.307070
-5,10,-18,-14,3,2,-2,-15,2021-08-02 17:17:35.307070
3,-4,30,13,-2,2,1,1,2021-08-02 17:17:35.312074
-5,1,-27,-6,-3,-3,-4,3,2021-08-02 17:17:35.312074
10,-6,-27,-7,-2,-1,-3,-8,2021-08-02 17:17:35.334070
-9,5,74,19,1,-2,-2,7,2021-08-02 17:17:35.334070
12,5,-46,6,2,3,2,-2,2021-08-02 17:17:35.334070
-5,-5,23,-18,1,0,-1,6,2021-08-02 17:17:35.335070
-1,-7,-54,2,-6,-3,-7,-4,2021-08-02 17:17:35.364070
0,-2,-17,-2,8,3,0,11,2021-08-02 17:17:35.364070
1,4,21,3,-2,-1,5,-2,2021-08-02 17:17:35.365070
0,1,7,7,3,2,2,0,2021-08-02 17:17:35.365070
2,-3,31,23,-4,-5,-6,-1,2021-08-02 17:17:35.365070
-7,-5,-16,-29,-1,1,-2,7,2021-08-02 17:17:35.365070
6,4,-18,21,1,4,5,-3,2021-08-02 17:17:35.372073
-3,3,-53,-23,3,0,-2,-2,2021-08-02 17:17:35.372073
-5,-3,112,0,-8,-5,-5,-3,2021-08-02 17:17:35.392070
3,-2,-1,-8,1,0,0,7,2021-08-02 17:17:35.392070
1,-1,18,31,5,-1,1,-2,2021-08-02 17:17:35.394071
-2,1,-18,-17,-3,-1,0,-1,2021-08-02 17:17:35.395071
2,-2,-14,3,-1,-1,1,0,2021-08-02 17:17:35.430073
-1,18,-16,-18,-12,-3,-2,2,2021-08-02 17:17:35.431073
-1,-16,47,-16,5,-1,2,-1,2021-08-02 17:17:35.431073
-5,-10,5,15,-8,-4,-3,0,2021-08-02 17:17:35.431073
1,-4,-24,-3,-3,-6,-4,-4,2021-08-02 17:17:35.432073
5,6,17,11,-4,-1,1,2,2021-08-02 17:17:35.432073
-1,3,-2,-25,2,2,2,0,2021-08-02 17:17:35.432073
-5,-9,-66,22,-9,-8,-4,-2,2021-08-02 17:17:35.432073
-1,-5,7,30,1,-3,-4,-1,2021-08-02 17:17:35.452072
-1,1,51,-39,-4,-2,-3,1,2021-08-02 17:17:35.452072
3,13,-70,1,8,5,5,-1,2021-08-02 17:17:35.458073
-3,-9,23,-29,-9,-4,-6,-2,2021-08-02 17:17:35.459073
0,4,-23,-5,-5,-3,-2,-4,2021-08-02 17:17:35.476073
-3,-5,7,30,2,0,1,2,2021-08-02 17:17:35.476073
4,20,49,10,4,2,3,2,2021-08-02 17:17:35.477072
-2,-13,-67,-15,1,2,1,0,2021-08-02 17:17:35.477072
-6,-7,-51,-9,-10,-7,-5,-5,2021-08-02 17:17:35.482074
1,6,29,21,3,-1,0,-1,2021-08-02 17:17:35.482074
0,-1,7,-27,5,0,0,0,2021-08-02 17:17:35.511072
0,-4,22,18,-3,-3,-4,3,2021-08-02 17:17:35.511072
-3,-7,-31,-16,-2,0,-1,-6,2021-08-02 17:17:35.516072
2,0,4,27,6,4,5,2,2021-08-02 17:17:35.516072
-3,-5,-22,-33,-6,-2,-3,-1,2021-08-02 17:17:35.516072
1,0,-25,1,-5,-3,-3,-3,2021-08-02 17:17:35.517074
1,0,-43,-32,-4,0,0,1,2021-08-02 17:17:35.533070
-2,-4,54,25,9,3,1,0,2021-08-02 17:17:35.533070
1,5,-47,27,-4,-1,0,1,2021-08-02 17:17:35.533070
-3,-4,54,-41,-8,-6,-2,-1,2021-08-02 17:17:35.533070
4,2,-28,28,4,0,-1,7,2021-08-02 17:17:35.553072
-9,0,-50,19,3,3,3,-3,2021-08-02 17:17:35.553072
1,-4,11,-37,-13,-6,-5,-5,2021-08-02 17:17:35.553072
-3,1,20,0,-1,-2,-3,2,2021-08-02 17:17:35.554070
4,-4,-37,-8,11,3,3,0,2021-08-02 17:17:35.594074
0,-3,56,17,3,3,2,-1,2021-08-02 17:17:35.594074
-3,6,-17,20,2,-1,-1,2,2021-08-02 17:17:35.594074
-6,-3,-31,-26,-12,-8,-6,5,2021-08-02 17:17:35.594074
4,3,20,-22,1,0,2,-7,2021-08-02 17:17:35.595072
3,-1,-15,-18,5,1,5,4,2021-08-02 17:17:35.595072
-5,-5,-7,12,-3,2,2,-4,2021-08-02 17:17:35.595072
2,2,24,24,-4,-4,-7,0,2021-08-02 17:17:35.595072
-5,0,29,30,3,1,0,9,2021-08-02 17:17:35.601073
1,-2,-27,-43,-5,-2,-3,0,2021-08-02 17:17:35.601073
2,1,-5,-5,-2,3,3,-4,2021-08-02 17:17:35.611073
-9,-14,-49,-10,-7,-4,-5,-6,2021-08-02 17:17:35.611073
0,6,41,15,0,-3,-1,-2,2021-08-02 17:17:35.638071
3,1,-12,-21,4,2,3,-3,2021-08-02 17:17:35.639071
-2,-4,29,47,4,-1,-2,2,2021-08-02 17:17:35.639071
-1,-1,-9,-29,-5,-3,-5,-5,2021-08-02 17:17:35.639071
-5,-6,21,-8,-2,-1,-2,-4,2021-08-02 17:17:35.678072
2,2,-2,51,4,3,2,2,2021-08-02 17:17:35.678072
-1,-3,-24,-56,0,-1,1,3,2021-08-02 17:17:35.679073
-2,-5,-20,-9,-5,-4,-2,-5,2021-08-02 17:17:35.679073
0,4,3,22,0,-3,-2,-3,2021-08-02 17:17:35.679073
-2,2,-12,-8,0,0,1,1,2021-08-02 17:17:35.679073
1,-2,10,30,3,2,0,1,2021-08-02 17:17:35.680073
-2,-2,26,-7,-2,-3,-3,-5,2021-08-02 17:17:35.680073
-5,-3,-46,-2,0,-2,-3,0,2021-08-02 17:17:35.685073
3,5,9,-30,-1,2,2,1,2021-08-02 17:17:35.685073
-1,-6,28,10,-7,-3,-2,-2,2021-08-02 17:17:35.692074
0,1,18,27,2,-3,-3,-1,2021-08-02 17:17:35.693073
-1,-3,16,-13,4,1,0,-3,2021-08-02 17:17:35.725070
0,0,-18,-3,-2,0,0,1,2021-08-02 17:17:35.725070
2,3,-20,-10,0,1,1,-1,2021-08-02 17:17:35.726070
-4,-5,7,-1,-2,-4,-5,-5,2021-08-02 17:17:35.726070
2,4,30,14,-4,-3,1,1,2021-08-02 17:17:35.730074
-3,-2,29,-1,3,-2,0,-2,2021-08-02 17:17:35.730074
-2,-4,-18,-17,3,4,-1,-1,2021-08-02 17:17:35.731074
-3,-2,-6,6,-4,-1,-2,-2,2021-08-02 17:17:35.731074
1,3,10,-18,-3,-1,1,0,2021-08-02 17:17:35.755070
2,0,-2,15,-1,-1,-1,1,2021-08-02 17:17:35.756073
0,3,-14,5,1,1,3,-2,2021-08-02 17:17:35.756073
-1,-3,20,23,-3,-4,-3,0,2021-08-02 17:17:35.756073
-4,-3,-8,-26,-1,-1,-1,-2,2021-08-02 17:17:35.788070
-3,-3,-22,10,-1,1,1,2,2021-08-02 17:17:35.789072
1,0,-1,-2,1,0,-1,0,2021-08-02 17:17:35.789072
2,3,-16,-9,0,-2,-5,-13,2021-08-02 17:17:35.789072
-10,1,35,0,-2,1,1,2,2021-08-02 17:17:35.790073
-2,-10,-56,-1,-2,1,-1,-2,2021-08-02 17:17:35.791073
-3,5,24,4,2,-2,4,10,2021-08-02 17:17:35.792073
3,-7,5,-3,-8,-4,-8,-15,2021-08-02 17:17:35.793074
-26,-4,27,7,0,-2,2,-39,2021-08-02 17:17:35.811070
22,5,-19,-11,4,2,-6,13,2021-08-02 17:17:35.811070
-11,-10,-23,-2,-4,-1,-2,-54,2021-08-02 17:17:35.816073
0,-2,5,33,-8,-5,-11,3,2021-08-02 17:17:35.816073
-2,0,55,-42,3,0,7,19,2021-08-02 17:17:35.839070
15,8,11,19,3,3,6,-12,2021-08-02 17:17:35.839070
-7,-18,-86,-14,-4,-1,-4,-9,2021-08-02 17:17:35.840070
12,0,7,12,0,-1,3,9,2021-08-02 17:17:35.840070
-17,0,-13,-6,-3,-1,8,-9,2021-08-02 17:17:35.874071
-11,0,17,-7,-1,-1,-13,-7,2021-08-02 17:17:35.875070
16,9,24,28,6,2,13,-20,2021-08-02 17:17:35.875070
-5,-7,-55,-55,-5,-2,-5,-1,2021-08-02 17:17:35.875070
25,-6,-3,5,-5,-3,-2,37,2021-08-02 17:17:35.875070
-8,4,1,-14,2,2,7,-9,2021-08-02 17:17:35.875070
0,4,1,18,1,2,1,17,2021-08-02 17:17:35.875070
-10,-5,30,-13,-6,-5,0,-20,2021-08-02 17:17:35.876071
-2,-4,-47,9,0,-2,-8,-12,2021-08-02 17:17:35.899071
10,1,11,45,5,2,1,21,2021-08-02 17:17:35.899071
-7,2,21,-86,-3,-1,-6,-4,2021-08-02 17:17:35.899071
1,-2,-45,-4,-4,-1,0,23,2021-08-02 17:17:35.899071
5,-2,-6,7,-1,-2,-7,4,2021-08-02 17:17:35.913072
4,-9,-26,-2,-3,-2,1,14,2021-08-02 17:17:35.913072
-26,2,11,33,1,-2,0,-1,2021-08-02 17:17:35.913072
8,0,1,-41,-3,-2,-1,22,2021-08-02 17:17:35.913072
5,-5,-5,18,-3,-2,-7,7,2021-08-02 17:17:35.931072
21,8,-6,-5,4,4,1,-14,2021-08-02 17:17:35.931072
3,8,33,24,4,5,4,7,2021-08-02 17:17:35.933071
-13,-14,-68,-38,-10,-7,-6,6,2021-08-02 17:17:35.933071
11,-3,19,26,0,-2,-5,5,2021-08-02 17:17:35.987070
-14,1,-36,-13,3,0,7,3,2021-08-02 17:17:35.987070
11,6,60,-12,-1,-1,-1,4,2021-08-02 17:17:35.987070
-7,-9,33,37,0,-2,5,-10,2021-08-02 17:17:35.987070
0,-1,-13,-18,-5,-1,-14,12,2021-08-02 17:17:35.988070
-12,3,26,7,-1,0,5,-34,2021-08-02 17:17:35.988070
8,8,-16,29,4,4,2,20,2021-08-02 17:17:35.988070
-2,-5,35,15,-2,-1,2,-17,2021-08-02 17:17:35.988070
-6,-7,-37,16,-7,-7,-4,-13,2021-08-02 17:17:35.989072
-9,0,1,-12,1,-1,-3,11,2021-08-02 17:17:35.989630
4,5,-33,-67,2,3,6,8,2021-08-02 17:17:35.994123
-5,1,26,27,1,-1,-6,-6,2021-08-02 17:17:35.994123
-1,-4,-30,-12,-2,-2,-2,16,2021-08-02 17:17:36.007122
-6,-3,87,10,0,1,-4,-11,2021-08-02 17:17:36.007122
18,-5,-49,14,4,2,4,2,2021-08-02 17:17:36.015122
-5,2,50,19,-4,-3,-6,3,2021-08-02 17:17:36.016122
-1,-13,-74,-43,-10,-7,-7,-12,2021-08-02 17:17:36.064120
-2,8,50,-12,3,-1,7,3,2021-08-02 17:17:36.064120
-4,5,43,30,1,3,0,-2,2021-08-02 17:17:36.064120
1,-1,-32,-38,1,0,-6,4,2021-08-02 17:17:36.064120
-3,0,6,14,-6,-6,-2,-10,2021-08-02 17:17:36.065121
2,4,-38,29,2,0,5,7,2021-08-02 17:17:36.065121
2,0,-31,-14,5,4,3,-1,2021-08-02 17:17:36.065121
-5,-6,1,-20,2,-2,-7,-4,2021-08-02 17:17:36.065121
-2,3,13,6,2,0,-1,-7,2021-08-02 17:17:36.065121
2,4,-29,7,2,4,2,5,2021-08-02 17:17:36.066124
0,-3,31,-14,-5,-2,-2,3,2021-08-02 17:17:36.074123
-3,-2,-38,19,-2,-3,-1,0,2021-08-02 17:17:36.074123
3,-6,-6,-73,-4,-2,-1,-5,2021-08-02 17:17:36.107122
-2,5,25,35,2,0,2,3,2021-08-02 17:17:36.107122
1,3,34,22,8,4,6,5,2021-08-02 17:17:36.107122
-4,-8,-72,-30,-13,-7,-6,-5,2021-08-02 17:17:36.108120
2,6,46,44,3,0,-1,0,2021-08-02 17:17:36.122122
-3,-3,6,-5,1,1,2,0,2021-08-02 17:17:36.122122
-2,-3,-45,-29,-3,1,0,0,2021-08-02 17:17:36.122122
-4,-4,47,0,-7,-4,-5,-1,2021-08-02 17:17:36.123123
-1,1,-1,34,5,0,-2,-2,2021-08-02 17:17:36.161125
0,2,-17,11,3,3,4,-1,2021-08-02 17:17:36.161125
-3,-2,31,-15,-1,-3,-4,-2,2021-08-02 17:17:36.161125
-3,-10,-37,-10,-5,-4,-4,0,2021-08-02 17:17:36.161125
2,4,-10,-33,1,0,0,1,2021-08-02 17:17:36.162125
3,3,29,31,3,2,0,1,2021-08-02 17:17:36.162125
-2,0,-14,17,4,-1,-1,2,2021-08-02 17:17:36.162125
0,0,-12,-9,-8,-2,-4,-1,2021-08-02 17:17:36.162125
-5,0,-22,5,4,-3,1,-2,2021-08-02 17:17:36.175123
1,-2,-3,-14,2,2,0,0,2021-08-02 17:17:36.175123
-4,-4,-14,6,-8,-4,-4,-2,2021-08-02 17:17:36.175123
-1,-2,10,-18,0,-2,-2,-1,2021-08-02 17:17:36.175123
3,7,36,15,1,2,2,0,2021-08-02 17:17:36.191120
-1,-1,-14,-4,0,-1,1,2,2021-08-02 17:17:36.191120
-3,-4,-17,1,-2,-3,-2,-1,2021-08-02 17:17:36.198126
-2,1,12,32,-7,-5,-2,-2,2021-08-02 17:17:36.198126
2,2,21,-27,-1,2,1,-1,2021-08-02 17:17:36.211123
0,-1,9,-8,2,1,1,-1,2021-08-02 17:17:36.211123
-2,-3,52,0,-4,-2,-4,0,2021-08-02 17:17:36.211123
-7,-14,-53,9,-4,-6,-5,-3,2021-08-02 17:17:36.211123
3,3,27,34,5,4,4,-2,2021-08-02 17:17:36.248121
-1,5,-2,-52,-2,1,3,1,2021-08-02 17:17:36.248121
0,0,3,17,-2,-2,-4,0,2021-08-02 17:17:36.249124
-3,-4,13,-10,-4,-4,-3,-3,2021-08-02 17:17:36.249124
3,1,10,9,0,0,1,11,2021-08-02 17:17:36.253126
-6,3,35,12,0,-1,-1,-1,2021-08-02 17:17:36.254123
-4,1,-90,-7,-1,-2,0,-10,2021-08-02 17:17:36.254123
5,-17,17,-22,-2,-3,-5,2,2021-08-02 17:17:36.254123
-2,5,20,11,2,1,2,-17,2021-08-02 17:17:36.291644
12,1,12,13,-1,0,0,4,2021-08-02 17:17:36.292648
-19,1,16,11,-2,-2,-6,-3,2021-08-02 17:17:36.292648
-14,-3,3,-24,-3,0,4,5,2021-08-02 17:17:36.292648
15,-3,9,11,0,1,-1,-17,2021-08-02 17:17:36.292648
3,-4,2,-26,-1,0,2,6,2021-08-02 17:17:36.293643
-1,-7,-5,33,-3,-2,-6,-7,2021-08-02 17:17:36.293643
-20,5,9,-31,-3,-1,-1,-9,2021-08-02 17:17:36.293643
-7,-1,3,-10,-5,1,9,-3,2021-08-02 17:17:36.336641
-5,-2,-25,5,2,1,-12,-10,2021-08-02 17:17:36.336641
2,-5,23,-8,-3,-6,-5,7,2021-08-02 17:17:36.336641
20,5,-24,16,0,-3,1,28,2021-08-02 17:17:36.336641
4,4,-30,2,6,4,1,-1,2021-08-02 17:17:36.336641
14,1,33,20,0,1,8,1,2021-08-02 17:17:36.337642
-2,-12,-26,-25,-6,-4,-4,-26,2021-08-02 17:17:36.337642
-3,3,38,-4,0,1,-3,15,2021-08-02 17:17:36.337642
-7,-1,-7,20,-2,1,3,-26,2021-08-02 17:17:36.366643
-9,9,15,-6,4,2,2,15,2021-08-02 17:17:36.366643
6,-7,-39,-35,-10,-5,-8,-23,2021-08-02 17:17:36.370641
5,-2,18,17,-2,-3,-2,-12,2021-08-02 17:17:36.370641
5,6,54,-2,4,3,2,21,2021-08-02 17:17:36.370641
3,0,-31,17,5,4,-3,0,2021-08-02 17:17:36.370641
-8,-7,6,-37,-8,0,5,-2,2021-08-02 17:17:36.376641
-8,-3,-15,-13,-5,-5,-4,-13,2021-08-02 17:17:36.377643
-1,-1,-31,-10,3,1,-4,11,2021-08-02 17:17:36.391641
1,4,-12,-1,1,0,8,-2,2021-08-02 17:17:36.391641
6,0,9,18,-1,-2,1,15,2021-08-02 17:17:36.391641
5,-4,3,11,-3,-3,-6,-12,2021-08-02 17:17:36.392641
-10,6,-16,-5,4,2,7,7,2021-08-02 17:17:36.411639
-1,2,-14,22,-2,-1,2,10,2021-08-02 17:17:36.411639
-2,-12,29,-23,-5,-3,-4,-5,2021-08-02 17:17:36.424638
-2,1,-4,17,-4,-5,-1,0,2021-08-02 17:17:36.424638
-6,1,-3,44,4,-2,-8,-15,2021-08-02 17:17:36.443638
2,4,19,-46,3,1,0,-4,2021-08-02 17:17:36.443638
-10,-3,43,5,-7,-3,-1,6,2021-08-02 17:17:36.444643
-2,-5,-47,-22,-4,-2,-2,-4,2021-08-02 17:17:36.444643
3,-2,-12,5,-2,-2,2,8,2021-08-02 17:17:36.452641
-3,0,36,-22,3,1,1,-16,2021-08-02 17:17:36.452641
11,3,32,22,-1,-2,1,8,2021-08-02 17:17:36.452641
-9,-7,-24,-4,-6,-5,-7,10,2021-08-02 17:17:36.452641
5,3,2,6,5,1,1,13,2021-08-02 17:17:36.469641
3,-2,-13,3,-4,1,3,-5,2021-08-02 17:17:36.469641
3,0,-55,15,0,0,-2,1,2021-08-02 17:17:36.470642
4,0,41,-28,-3,-6,-5,6,2021-08-02 17:17:36.471641
-9,-4,18,7,1,0,-1,-3,2021-08-02 17:17:36.497639
-5,-2,3,14,1,-2,2,-5,2021-08-02 17:17:36.497639
-2,-9,-15,6,0,0,-3,15,2021-08-02 17:17:36.501642
2,-2,-6,-36,-2,-1,-5,-12,2021-08-02 17:17:36.502641
2,5,25,-24,-2,0,0,0,2021-08-02 17:17:36.537640
-1,-1,22,9,4,2,3,-2,2021-08-02 17:17:36.537640
-9,0,12,9,-4,-1,0,-5,2021-08-02 17:17:36.538647
-4,-10,-35,35,1,-2,-4,-8,2021-08-02 17:17:36.538647
7,3,6,-52,-1,0,2,3,2021-08-02 17:17:36.538647
-2,1,25,11,-4,-3,-1,4,2021-08-02 17:17:36.538647
-6,-5,-73,10,2,-2,-5,-20,2021-08-02 17:17:36.538647
-1,-2,53,9,-5,-4,-6,2,2021-08-02 17:17:36.539642
6,2,7,15,2,-1,0,7,2021-08-02 17:17:36.553637
-2,1,-64,-8,3,4,2,-4,2021-08-02 17:17:36.554639
1,2,3,-22,0,0,0,7,2021-08-02 17:17:36.561641
-1,-2,-6,-6,-6,-3,-3,-5,2021-08-02 17:17:36.562644
2,2,-4,15,1,0,0,-7,2021-08-02 17:17:36.568640
-2,-1,10,8,3,1,3,1,2021-08-02 17:17:36.569641
1,1,6,-11,-1,-1,0,-2,2021-08-02 17:17:36.578643
-3,-4,-74,-10,-4,-4,-4,-3,2021-08-02 17:17:36.578643
0,2,40,13,-2,-2,-1,2,2021-08-02 17:17:36.592641
-1,-4,-20,4,-1,0,0,-1,2021-08-02 17:17:36.592641
1,3,23,1,2,0,0,8,2021-08-02 17:17:36.593640
-4,-7,-4,4,-5,-4,-5,-4,2021-08-02 17:17:36.593640
-1,-8,-63,8,0,1,0,-4,2021-08-02 17:17:36.610641
0,4,44,-35,0,2,2,2,2021-08-02 17:17:36.610641
-5,-5,9,15,-4,-4,-3,-6,2021-08-02 17:17:36.616638
-1,5,-22,1,-1,-2,-4,2,2021-08-02 17:17:36.616638
3,-1,20,9,-2,0,-1,-1,2021-08-02 17:17:36.629645
-9,-2,-3,8,3,3,0,-3,2021-08-02 17:17:36.630644
-1,-3,-13,-1,-6,-3,-2,1,2021-08-02 17:17:36.638642
-3,-6,-13,-22,-5,-6,-4,-3,2021-08-02 17:17:36.638642
1,2,-21,-1,8,2,1,3,2021-08-02 17:17:36.682642
4,-2,40,22,-4,2,0,-1,2021-08-02 17:17:36.682642
-2,1,2,-30,-4,-1,-1,-1,2021-08-02 17:17:36.683639
-1,-3,28,13,-4,-1,-4,-4,2021-08-02 17:17:36.683639
0,5,-11,-7,2,2,0,-1,2021-08-02 17:17:36.683639
2,1,10,10,2,-1,0,0,2021-08-02 17:17:36.683639
-2,-2,-50,3,0,1,-1,-3,2021-08-02 17:17:36.683639
0,-8,40,-20,-9,-4,-1,2,2021-08-02 17:17:36.684644
-2,0,14,-1,0,-2,-2,-4,2021-08-02 17:17:36.700640
1,0,33,25,1,0,0,0,2021-08-02 17:17:36.700640
-2,-8,-61,-44,-4,-3,-3,2,2021-08-02 17:17:36.707641
-2,1,-1,21,-1,-4,-3,-4,2021-08-02 17:17:36.707641
1,2,35,3,2,0,3,2,2021-08-02 17:17:36.715641
0,-3,-95,-13,3,-1,-2,-2,2021-08-02 17:17:36.716641
-1,-2,49,-1,-3,-1,-2,-3,2021-08-02 17:17:36.716641
-1,-2,22,20,-3,-2,-3,-4,2021-08-02 17:17:36.716641
-2,2,16,-3,0,1,0,-1,2021-08-02 17:17:36.731640
0,2,-24,-6,2,3,0,-1,2021-08-02 17:17:36.731640
1,-1,10,-7,-4,-2,-2,2,2021-08-02 17:17:36.738641
-4,-4,-1,18,-2,0,-3,-5,2021-08-02 17:17:36.738641
-3,0,28,-15,-5,-1,-3,1,2021-08-02 17:17:36.753641
0,1,12,-12,-3,1,2,0,2021-08-02 17:17:36.753641
-2,-4,-12,21,-4,-3,-5,-1,2021-08-02 17:17:36.755640
2,3,25,-42,0,-1,-2,2,2021-08-02 17:17:36.755640
0,2,-27,14,2,2,4,0,2021-08-02 17:17:36.781641
-1,-1,-21,-1,-1,-1,-1,1,2021-08-02 17:17:36.781641
-1,-3,62,6,0,-2,-3,-1,2021-08-02 17:17:36.781641
0,-4,-67,4,-2,-2,-3,-3,2021-08-02 17:17:36.781641
1,2,28,9,0,1,2,1,2021-08-02 17:17:36.786642
0,0,-11,-41,0,0,2,-2,2021-08-02 17:17:36.787642
-4,-2,-2,16,-7,-3,-3,-2,2021-08-02 17:17:36.795640
-1,-4,-29,-11,-3,-4,-3,-1,2021-08-02 17:17:36.796640
0,1,-29,-6,0,-1,0,-1,2021-08-02 17:17:36.819638
-2,-1,16,19,0,0,0,0,2021-08-02 17:17:36.819638
-1,-5,-7,-3,-4,-4,-3,0,2021-08-02 17:17:36.819638
-1,0,0,-13,0,-1,-1,-2,2021-08-02 17:17:36.819638
0,0,-22,3,3,4,3,1,2021-08-02 17:17:36.849639
2,1,-8,32,3,2,0,0,2021-08-02 17:17:36.849639
-1,-2,37,-32,-4,-4,-3,-1,2021-08-02 17:17:36.849639
-2,-7,-42,-27,0,-2,-3,-1,2021-08-02 17:17:36.849639
2,2,31,40,-1,0,0,0,2021-08-02 17:17:36.849639
-1,1,10,4,-4,-2,1,-2,2021-08-02 17:17:36.850639
-5,-4,19,15,-3,-5,-5,0,2021-08-02 17:17:36.856643
-1,0,-1,-1,-1,-1,0,0,2021-08-02 17:17:36.856643
3,2,-42,-26,5,2,3,1,2021-08-02 17:17:36.869640
1,-1,8,0,2,4,1,-1,2021-08-02 17:17:36.869640
-6,-4,2,9,-5,-4,-4,-4,2021-08-02 17:17:36.878640
9,0,-17,-10,-5,-2,-2,-2,2021-08-02 17:17:36.878640
-1,0,0,-19,4,1,3,1,2021-08-02 17:17:36.900637
2,1,-31,9,1,0,0,-2,2021-08-02 17:17:36.900637
-3,-8,-21,-15,-5,-6,-5,-1,2021-08-02 17:17:36.901638
-5,-1,17,27,2,0,-4,0,2021-08-02 17:17:36.901638
1,3,6,-2,-2,1,3,0,2021-08-02 17:17:36.906641
0,0,5,-3,1,0,1,0,2021-08-02 17:17:36.906641
-1,-3,-20,-8,-3,0,-4,-1,2021-08-02 17:17:36.915641
-2,1,5,0,-2,-3,1,-1,2021-08-02 17:17:36.916642
1,1,2,2,4,1,1,2,2021-08-02 17:17:36.930640
-4,-3,30,-13,-1,0,0,1,2021-08-02 17:17:36.931640
2,-3,14,6,-4,-3,-5,0,2021-08-02 17:17:36.938836
-3,-4,-39,-1,1,-1,-2,-1,2021-08-02 17:17:36.938836
1,4,45,-15,0,0,0,-3,2021-08-02 17:17:36.958642
-1,0,-21,27,3,2,1,-1,2021-08-02 17:17:36.958642
-4,-5,-9,-22,-6,-5,-4,-3,2021-08-02 17:17:36.958642
-2,0,36,-3,-1,-2,-3,-1,2021-08-02 17:17:36.958642
3,5,28,15,5,1,3,1,2021-08-02 17:17:36.968640
-1,-2,-53,-8,-2,-1,2,0,2021-08-02 17:17:36.968640
-2,-5,-13,-13,-5,-4,-2,-3,2021-08-02 17:17:36.978641
-1,0,32,5,1,-1,-2,0,2021-08-02 17:17:36.978641
3,-2,-103,-7,-2,1,-1,0,2021-08-02 17:17:36.989640
-1,2,67,-3,1,1,0,-3,2021-08-02 17:17:36.989640
-2,-3,-18,10,-5,-2,-7,0,2021-08-02 17:17:36.996641
-2,-2,11,11,0,-2,-4,-2,2021-08-02 17:17:36.996641
1,2,20,12,4,4,2,0,2021-08-02 17:17:37.014642
2,2,6,6,-1,-1,1,2,2021-08-02 17:17:37.015641
-3,-4,-16,-13,-8,-5,-1,-4,2021-08-02 17:17:37.015641
-2,-1,23,-4,-4,-4,-2,-3,2021-08-02 17:17:37.015641
0,3,28,16,4,1,2,1,2021-08-02 17:17:37.029638
0,0,-13,1,2,0,2,-1,2021-08-02 17:17:37.030638
-3,-7,-69,1,-5,-3,-4,-1,2021-08-02 17:17:37.034639
0,2,22,13,-1,0,0,0,2021-08-02 17:17:37.034639
-1,4,16,-21,2,3,1,-1,2021-08-02 17:17:37.049644
-5,-8,8,-5,-9,-5,-4,-4,2021-08-02 17:17:37.049644
0,-2,29,17,1,-4,-1,-1,2021-08-02 17:17:37.057643
1,2,-29,3,2,1,0,0,2021-08-02 17:17:37.058641
2,1,11,-31,-2,0,2,-1,2021-08-02 17:17:37.074639
-1,4,-12,1,1,2,1,-1,2021-08-02 17:17:37.074639
0,-4,4,-1,-2,-3,-6,0,2021-08-02 17:17:37.074639
-3,-3,47,0,-5,-5,-1,-2,2021-08-02 17:17:37.074639
0,0,-57,58,6,2,1,0,2021-08-02 17:17:37.099637
-1,-3,38,-45,-2,-1,0,0,2021-08-02 17:17:37.099637
-1,-4,-47,-26,-3,-2,-5,-2,2021-08-02 17:17:37.099637
1,-2,-3,6,-1,-4,-1,-2,2021-08-02 17:17:37.099637
0,1,-6,34,4,3,2,1,2021-08-02 17:17:37.109641
-1,-3,4,-6,-2,-1,-2,-1,2021-08-02 17:17:37.110641
-6,-4,1,-10,-8,-5,-5,-1,2021-08-02 17:17:37.117640
1,3,-48,26,3,2,3,9,2021-08-02 17:17:37.117640
-1,0,49,-68,-2,1,2,-8,2021-08-02 17:17:37.131641
2,2,5,5,0,-1,1,-1,2021-08-02 17:17:37.131641
-4,-7,-39,20,-7,-6,-5,-5,2021-08-02 17:17:37.138641
-5,1,25,-9,-2,-2,-2,6,2021-08-02 17:17:37.138641
1,0,-21,11,1,0,0,-2,2021-08-02 17:17:37.169638
2,2,-4,15,4,3,3,2,2021-08-02 17:17:37.169638
-3,-5,36,-4,-5,-2,-2,-1,2021-08-02 17:17:37.169638
-1,0,5,11,0,-3,-1,-2,2021-08-02 17:17:37.169638
-2,-3,-4,-16,1,2,-1,-1,2021-08-02 17:17:37.169638
-1,5,-7,9,0,-1,-1,-1,2021-08-02 17:17:37.170638
0,-2,-25,5,-4,-3,-2,-1,2021-08-02 17:17:37.180640
-5,-7,6,-67,-3,-1,-1,0,2021-08-02 17:17:37.180640
-4,4,53,26,-3,-2,0,-1,2021-08-02 17:17:37.193639
1,-10,-109,-1,-1,0,1,-1,2021-08-02 17:17:37.193639
-1,-1,9,2,2,-2,-1,5,2021-08-02 17:17:37.193639
-1,0,12,1,-4,-3,-5,1,2021-08-02 17:17:37.193639
2,2,21,8,4,3,3,4,2021-08-02 17:17:37.208638
0,1,4,16,0,0,1,-3,2021-08-02 17:17:37.208638
-5,-10,-6,-49,-11,-4,-5,-6,2021-08-02 17:17:37.213640
3,-12,-47,0,0,-3,-2,3,2021-08-02 17:17:37.213640
-5,5,-22,2,3,2,3,-1,2021-08-02 17:17:37.232639
-2,-2,-12,25,2,2,1,3,2021-08-02 17:17:37.232639
-5,-2,46,-17,-6,-2,-6,-5,2021-08-02 17:17:37.238641
0,5,48,31,1,2,-2,-5,2021-08-02 17:17:37.238641
1,-2,-56,-51,-4,-1,3,-8,2021-08-02 17:17:37.252640
0,-4,-22,-20,1,0,-1,4,2021-08-02 17:17:37.253641
-4,0,0,19,-3,-3,-3,2,2021-08-02 17:17:37.253641
0,-9,-5,5,-4,-2,-1,-13,2021-08-02 17:17:37.253641
1,1,-6,16,3,0,1,4,2021-08-02 17:17:37.268640
0,8,43,6,0,1,2,-5,2021-08-02 17:17:37.269641
-1,-9,-23,-24,-6,-3,-5,10,2021-08-02 17:17:37.275642
0,6,-34,-9,1,-1,1,3,2021-08-02 17:17:37.275642
3,-4,-1,0,5,3,3,7,2021-08-02 17:17:37.300638
-3,0,12,-2,-3,-3,1,-3,2021-08-02 17:17:37.300638
0,0,20,10,0,0,-3,-2,2021-08-02 17:17:37.300638
0,-1,-27,-2,-3,-4,-4,-4,2021-08-02 17:17:37.300638
-1,9,46,41,3,1,1,8,2021-08-02 17:17:37.321637
3,-12,-79,-88,-4,-1,1,0,2021-08-02 17:17:37.322638
-7,0,31,7,-3,-4,-5,-7,2021-08-02 17:17:37.322638
0,2,4,2,3,2,1,-5,2021-08-02 17:17:37.322638
3,-1,32,45,3,2,1,-2,2021-08-02 17:17:37.328640
-3,5,16,-16,1,1,-2,-2,2021-08-02 17:17:37.328640
-1,-6,-35,-18,-6,-6,-5,-5,2021-08-02 17:17:37.333640
-2,-1,62,12,0,0,0,0,2021-08-02 17:17:37.334639
0,-11,-86,-4,1,-1,0,-5,2021-08-02 17:17:37.362641
-3,5,60,22,-2,-1,0,-3,2021-08-02 17:17:37.362641
9,-1,-24,-15,-5,-2,-1,-2,2021-08-02 17:17:37.362641
0,9,16,-8,0,-2,-1,-3,2021-08-02 17:17:37.362641
1,2,1,-8,2,4,1,-1,2021-08-02 17:17:37.375640
-1,1,7,7,2,3,1,2,2021-08-02 17:17:37.375640
-4,2,23,0,-7,-5,-6,-2,2021-08-02 17:17:37.375640
0,-19,-8,2,-1,0,-1,1,2021-08-02 17:17:37.375640
4,4,18,-11,1,0,2,3,2021-08-02 17:17:37.398639
1,9,14,27,2,1,0,0,2021-08-02 17:17:37.399639
-3,-12,1,-9,-4,-5,-4,-3,2021-08-02 17:17:37.404640
1,5,-24,-7,-4,-3,-1,-2,2021-08-02 17:17:37.405641
-1,2,-21,-23,2,1,1,2,2021-08-02 17:17:37.414638
1,-8,33,19,3,1,1,-1,2021-08-02 17:17:37.414638
-2,2,12,27,0,-4,-3,-2,2021-08-02 17:17:37.415638
-1,-1,-53,-6,-5,-3,-2,2,2021-08-02 17:17:37.415638
-1,0,33,-24,2,1,1,-3,2021-08-02 17:17:37.444640
-2,1,-35,15,-4,-2,-1,-1,2021-08-02 17:17:37.444640
-1,-6,-14,-14,-1,-2,-3,-3,2021-08-02 17:17:37.444640
-1,-10,27,21,1,1,-1,0,2021-08-02 17:17:37.444640
-2,4,-27,-9,-6,-2,-1,0,2021-08-02 17:17:37.448641
1,7,43,5,3,1,-1,-3,2021-08-02 17:17:37.449641
4,-8,-74,-11,-6,-3,-4,2,2021-08-02 17:17:37.473638
-2,2,69,1,1,0,-1,5,2021-08-02 17:17:37.473638
0,1,-63,15,6,4,3,0,2021-08-02 17:17:37.475638
-3,-5,19,-4,-5,-2,-1,-1,2021-08-02 17:17:37.475638
-5,-6,-3,-1,-5,-3,-2,0,2021-08-02 17:17:37.475638
-2,6,17,-14,3,1,2,-8,2021-08-02 17:17:37.476638
12,5,-3,27,2,3,2,2,2021-08-02 17:17:37.492640
-4,-4,-3,-11,-1,-1,-1,-2,2021-08-02 17:17:37.493639
-2,-5,-20,-10,-5,-4,-4,3,2021-08-02 17:17:37.499640
0,2,-32,21,-1,0,-2,-5,2021-08-02 17:17:37.500640
-4,4,50,35,-2,-3,-2,2,2021-08-02 17:17:37.508641
2,-4,-27,-81,-2,1,1,-6,2021-08-02 17:17:37.508641
-4,-3,18,30,-3,-3,-4,-6,2021-08-02 17:17:37.515640
0,5,-22,-20,2,0,0,2,2021-08-02 17:17:37.515640
0,0,5,13,2,2,3,0,2021-08-02 17:17:37.529640
1,-3,36,29,3,-1,1,3,2021-08-02 17:17:37.529640
-2,-5,11,-8,-4,-3,-3,-2,2021-08-02 17:17:37.538638
-2,-2,-24,-7,0,0,-2,0,2021-08-02 17:17:37.538638
-1,-1,25,-24,0,1,0,-3,2021-08-02 17:17:37.568641
0,3,-2,18,1,-1,-1,-1,2021-08-02 17:17:37.569643
-2,-2,5,1,-3,-4,-4,-1,2021-08-02 17:17:37.569643
1,1,16,17,0,-1,-2,0,2021-08-02 17:17:37.569643
1,0,29,-6,1,1,1,-2,2021-08-02 17:17:37.574640
-3,-5,-34,-26,-9,-4,-4,-1,2021-08-02 17:17:37.574640
-3,-8,5,-10,0,-3,-4,-3,2021-08-02 17:17:37.576641
2,4,2,3,-1,0,0,-1,2021-08-02 17:17:37.576641
-2,1,5,13,2,1,2,-4,2021-08-02 17:17:37.612638
1,0,-42,9,2,0,0,2,2021-08-02 17:17:37.612638
-3,-5,1,-11,-4,-2,-5,-1,2021-08-02 17:17:37.616638
-1,5,-5,4,-1,-3,-1,-12,2021-08-02 17:17:37.616638
-5,1,-28,-37,-1,1,2,2,2021-08-02 17:17:37.617640
9,-3,13,27,0,0,-1,-1,2021-08-02 17:17:37.617640
-3,1,13,19,-4,-4,-2,-4,2021-08-02 17:17:37.619641
0,2,54,-7,2,2,1,0,2021-08-02 17:17:37.619641
-1,-2,-50,5,-2,-1,-1,-1,2021-08-02 17:17:37.642639
-5,0,-14,-12,-4,-2,-2,-3,2021-08-02 17:17:37.642639
0,-6,-27,-26,0,-2,0,0,2021-08-02 17:17:37.642639
2,3,3,4,1,2,0,5,2021-08-02 17:17:37.642639
-1,2,49,0,1,1,2,0,2021-08-02 17:17:37.654639
-5,-5,-29,-9,-4,-2,-3,0,2021-08-02 17:17:37.654639
-4,-6,29,41,-4,-4,-3,-4,2021-08-02 17:17:37.658641
-2,-1,-70,-33,0,-2,-1,2,2021-08-02 17:17:37.659640
1,1,68,27,3,2,0,-2,2021-08-02 17:17:37.678639
-2,-1,-46,-18,-1,0,1,-2,2021-08-02 17:17:37.678639
-2,-7,-36,-7,-5,-1,-5,0,2021-08-02 17:17:37.680641
3,3,10,-17,0,0,1,0,2021-08-02 17:17:37.680641
0,-7,11,2,5,1,0,-1,2021-08-02 17:17:37.712642
-1,9,-2,-16,3,0,2,3,2021-08-02 17:17:37.713640
-3,-14,-20,1,-3,-5,-5,-4,2021-08-02 17:17:37.713640
-1,1,2,5,-3,-3,-2,2,2021-08-02 17:17:37.713640
2,3,-20,-10,3,3,3,2,2021-08-02 17:17:37.713640
1,1,41,24,3,1,2,-8,2021-08-02 17:17:37.713640
0,1,-11,0,-3,-3,-5,2,2021-08-02 17:17:37.720640
-2,-3,26,-14,-1,-1,0,0,2021-08-02 17:17:37.720640
0,6,20,24,4,1,1,1,2021-08-02 17:17:37.731640
-1,-7,-25,20,1,1,0,-1,2021-08-02 17:17:37.732640
-3,-3,8,-44,-6,-3,-3,-2,2021-08-02 17:17:37.739640
1,0,-14,-29,-1,-1,-1,6,2021-08-02 17:17:37.739640
3,11,-5,28,5,3,3,2,2021-08-02 17:17:37.772638
-3,-5,0,2,-3,0,-1,1,2021-08-02 17:17:37.773638
-2,-5,-38,-1,-3,-2,-2,-3,2021-08-02 17:17:37.773638
0,0,17,14,-1,-2,0,1,2021-08-02 17:17:37.773638
-1,-2,32,-17,-3,-3,0,-2,2021-08-02 17:17:37.773638
0,3,-9,2,0,1,0,2,2021-08-02 17:17:37.773638
-3,-7,12,4,-7,-5,-5,-1,2021-08-02 17:17:37.776640
-3,-2,5,26,2,-1,-1,-3,2021-08-02 17:17:37.776640
-1,1,-30,-54,-2,3,4,-1,2021-08-02 17:17:37.794640
-2,-4,6,8,-4,-3,-2,0,2021-08-02 17:17:37.794640
0,2,-9,-22,-3,-2,-2,-3,2021-08-02 17:17:37.801641
0,-3,3,29,0,0,2,-1,2021-08-02 17:17:37.801641
0,3,-3,5,1,2,2,0,2021-08-02 17:17:37.822637
-4,-8,-7,-20,-3,-2,-2,0,2021-08-02 17:17:37.822637
-4,-4,11,19,-1,-2,-4,-3,2021-08-02 17:17:37.823639
-1,0,51,-13,-1,0,-3,2,2021-08-02 17:17:37.823639
1,-2,-49,5,3,0,3,-5,2021-08-02 17:17:37.828641
-3,4,22,-4,2,0,0,0,2021-08-02 17:17:37.828641
-4,-5,-14,9,-9,-6,-7,-3,2021-08-02 17:17:37.861638
2,1,-25,-8,3,-1,0,0,2021-08-02 17:17:37.862639
-1,-2,-4,6,1,3,2,1,2021-08-02 17:17:37.862639
-2,0,-15,21,-3,-1,-2,-1,2021-08-02 17:17:37.862639
-1,0,29,-11,-2,-4,-4,-1,2021-08-02 17:17:37.863638
-1,-4,-50,-5,0,1,0,0,2021-08-02 17:17:37.863638
-1,-2,-7,-13,2,2,1,1,2021-08-02 17:17:37.899641
2,1,-3,-5,0,1,0,-2,2021-08-02 17:17:37.900639
-3,-7,13,-10,-4,-6,-4,-1,2021-08-02 17:17:37.900639
-1,-2,47,9,0,-4,-2,-3,2021-08-02 17:17:37.900639
2,0,-37,-3,5,4,4,1,2021-08-02 17:17:37.900639
-1,0,61,51,-3,1,1,-1,2021-08-02 17:17:37.900639
-2,-1,-18,-40,-10,-8,-10,-2,2021-08-02 17:17:37.901638
-4,-3,22,8,-3,-3,-4,-2,2021-08-02 17:17:37.901638
2,6,-13,20,9,3,7,0,2021-08-02 17:17:37.915640
1,2,0,-47,4,3,5,1,2021-08-02 17:17:37.915640
-3,-6,-10,8,-8,-4,-5,-2,2021-08-02 17:17:37.924642
-5,-14,-43,-24,-11,-9,-9,-2,2021-08-02 17:17:37.924642
2,10,61,31,8,6,8,1,2021-08-02 17:17:37.953638
7,10,-24,21,10,8,12,0,2021-08-02 17:17:37.954641
-5,-12,8,-25,-9,-5,-6,-6,2021-08-02 17:17:37.954641
0,-5,-9,-24,-13,-9,-11,1,2021-08-02 17:17:37.954641
0,-1,6,21,2,1,3,1,2021-08-02 17:17:37.954641
1,9,42,51,9,4,6,-2,2021-08-02 17:17:37.954641
-1,-10,-24,-56,-9,-4,-4,0,2021-08-02 17:17:37.956640
-1,-1,-90,10,-8,-5,-7,-3,2021-08-02 17:17:37.956640
2,6,35,2,7,2,4,-2,2021-08-02 17:17:37.992637
3,4,-13,-7,8,7,6,3,2021-08-02 17:17:37.992637
-8,-8,56,-9,-11,-7,-7,-2,2021-08-02 17:17:37.992637
-3,-2,-9,8,-2,-6,-7,-4,2021-08-02 17:17:37.992637
3,9,32,24,4,1,2,1,2021-08-02 17:17:37.993640
-1,-2,-41,-30,4,4,3,-2,2021-08-02 17:17:37.993640
-3,-4,5,5,-6,-4,-4,-1,2021-08-02 17:17:37.993640
-3,-8,4,-2,-4,-6,-4,-5,2021-08-02 17:17:37.994641
2,7,9,-3,2,2,3,-1,2021-08-02 17:17:38.010641
2,0,27,7,1,2,1,2,2021-08-02 17:17:38.010641
-2,-2,-43,-2,-3,-2,-4,-1,2021-08-02 17:17:38.033638
-6,-7,-5,1,-4,-6,-2,5,2021-08-02 17:17:38.033638
2,5,-7,2,6,3,2,3,2021-08-02 17:17:38.037639
-3,1,13,-3,-1,1,0,9,2021-08-02 17:17:38.037639
-2,-6,1,-6,-6,-4,-7,0,2021-08-02 17:17:38.070641
-1,1,-8,0,-1,-3,-1,-2,2021-08-02 17:17:38.070641
1,5,17,15,6,4,2,-3,2021-08-02 17:17:38.070641
0,-4,-20,-47,-1,2,2,-2,2021-08-02 17:17:38.070641
-4,-2,21,32,-8,-9,-7,-2,2021-08-02 17:17:38.071641
-3,1,-19,12,0,-3,-2,-3,2021-08-02 17:17:38.071641
1,2,27,-5,2,4,4,0,2021-08-02 17:17:38.071641
-1,-4,-21,0,-2,0,-1,-4,2021-08-02 17:17:38.071641
-3,-7,-16,-2,-2,-3,-4,2,2021-08-02 17:17:38.078640
1,3,22,11,0,-2,-1,-10,2021-08-02 17:17:38.078640
0,3,-35,-5,4,-1,2,0,2021-08-02 17:17:38.090640
-2,-4,16,15,-1,-1,-2,0,2021-08-02 17:17:38.090640
1,-3,-31,-18,-4,-2,-3,-2,2021-08-02 17:17:38.105641
-2,-1,-10,-25,2,1,2,0,2021-08-02 17:17:38.105641
0,3,11,4,1,3,4,2,2021-08-02 17:17:38.122640
-3,-4,13,13,-5,-3,-5,-4,2021-08-02 17:17:38.122640
-5,-8,-23,-6,-4,-4,-7,-3,2021-08-02 17:17:38.122640
4,6,45,20,3,2,2,3,2021-08-02 17:17:38.123640
-1,4,-20,-6,3,2,1,-3,2021-08-02 17:17:38.129640
-3,-5,-30,-18,-11,-5,-4,-2,2021-08-02 17:17:38.129640
0,-4,-3,-5,0,-1,-2,-1,2021-08-02 17:17:38.145638
2,0,11,12,2,2,2,-8,2021-08-02 17:17:38.145638
-2,-1,37,-15,-3,1,1,3,2021-08-02 17:17:38.152642
-1,-2,12,32,-2,-4,-5,-2,2021-08-02 17:17:38.152642
-4,-5,-3,-11,-7,-7,-6,-4,2021-08-02 17:17:38.161640
1,0,1,-8,2,1,3,2,2021-08-02 17:17:38.161640
2,3,-2,5,2,1,1,1,2021-08-02 17:17:38.187638
-1,-3,17,-1,-2,-1,-3,-3,2021-08-02 17:17:38.188638
-2,-6,-9,-9,-3,-5,-3,1,2021-08-02 17:17:38.188638
1,5,13,0,3,2,2,4,2021-08-02 17:17:38.188638
0,3,12,8,3,2,0,-1,2021-08-02 17:17:38.188638
-5,-10,-13,0,-9,-7,-8,-4,2021-08-02 17:17:38.189638
0,-2,12,-1,0,-2,-4,-2,2021-08-02 17:17:38.203708
-5,-2,28,-25,1,0,0,0,2021-08-02 17:17:38.203708
2,4,-7,20,2,3,2,-2,2021-08-02 17:17:38.218706
-2,-4,8,5,-2,-3,-3,7,2021-08-02 17:17:38.219706
0,0,-28,6,-2,-2,-2,-4,2021-08-02 17:17:38.220708
-1,3,1,6,5,3,0,-3,2021-08-02 17:17:38.221708
-2,-3,-26,-21,-1,1,3,0,2021-08-02 17:17:38.260708
2,-4,-14,-4,-4,-1,-3,-4,2021-08-02 17:17:38.260708
-4,-4,24,4,-3,-3,-3,1,2021-08-02 17:17:38.261708
1,2,-1,7,1,-1,3,2,2021-08-02 17:17:38.261708
-3,2,-10,0,2,0,3,-1,2021-08-02 17:17:38.261708
-4,-5,-14,-13,-4,-3,-4,-4,2021-08-02 17:17:38.262708
-1,-3,-36,-15,-4,-6,-5,-4,2021-08-02 17:17:38.262708
2,6,16,13,4,3,2,1,2021-08-02 17:17:38.262708
2,-2,-5,0,1,3,1,4,2021-08-02 17:17:38.284709
0,-2,-9,-15,-3,-2,-2,-7,2021-08-02 17:17:38.284709
-3,-3,16,1,-6,-3,-4,-1,2021-08-02 17:17:38.290709
3,3,-23,0,4,2,3,4,2021-08-02 17:17:38.291709
-1,0,26,-10,1,1,-1,-1,2021-08-02 17:17:38.298709
-4,-6,20,-2,-7,-5,-5,-1,2021-08-02 17:17:38.298709
-2,0,-6,8,-4,-2,-2,-1,2021-08-02 17:17:38.298709
2,-3,3,2,2,1,2,1,2021-08-02 17:17:38.298709
-2,-3,-36,-33,-4,-1,2,-3,2021-08-02 17:17:38.310709
-3,-11,13,3,-5,-5,-5,-4,2021-08-02 17:17:38.310709
-2,-2,-2,10,-1,-3,-5,0,2021-08-02 17:17:38.330707
4,9,2,20,5,4,4,4,2021-08-02 17:17:38.330707
4,1,19,6,2,2,3,-12,2021-08-02 17:17:38.332708
-4,-7,-46,-61,-7,-4,-4,3,2021-08-02 17:17:38.332708
-1,-4,-19,-17,-7,-3,-3,-2,2021-08-02 17:17:38.343706
1,4,22,22,2,1,2,0,2021-08-02 17:17:38.343706
3,1,20,25,3,2,1,-1,2021-08-02 17:17:38.361705
-4,-5,-22,-4,-5,-2,-3,-5,2021-08-02 17:17:38.362705
0,-2,2,-19,0,-2,-3,3,2021-08-02 17:17:38.362705
-2,1,-13,0,2,1,4,-3,2021-08-02 17:17:38.362705
-2,2,24,14,1,2,-1,4,2021-08-02 17:17:38.375706
-5,-5,0,-9,-6,-5,-5,-1,2021-08-02 17:17:38.375706
-2,0,18,4,-2,-3,-3,-3,2021-08-02 17:17:38.380708
-1,0,-8,3,1,2,3,-3,2021-08-02 17:17:38.381708
2,5,-4,-11,-1,-1,2,3,2021-08-02 17:17:38.406710
-4,-3,-11,-5,-5,-5,-4,-6,2021-08-02 17:17:38.406710
-2,-4,-10,7,-4,-3,-4,0,2021-08-02 17:17:38.406710
3,4,62,7,1,2,3,2,2021-08-02 17:17:38.406710
-1,-2,-13,-23,1,4,5,1,2021-08-02 17:17:38.415708
-2,-7,-3,-4,-6,-2,-5,1,2021-08-02 17:17:38.415708
2,-2,2,-5,-2,-2,-2,-2,2021-08-02 17:17:38.434709
0,4,27,36,4,1,-1,0,2021-08-02 17:17:38.434709
2,2,-26,17,2,1,3,8,2021-08-02 17:17:38.438708
-4,-6,4,-27,-7,-6,-7,-5,2021-08-02 17:17:38.439708
-3,-3,-4,-13,-3,-3,-2,-1,2021-08-02 17:17:38.439708
2,3,-45,-14,6,5,4,2,2021-08-02 17:17:38.439708
-1,-1,50,18,1,3,3,2,2021-08-02 17:17:38.457705
-4,-2,-33,-4,-4,-4,-4,-3,2021-08-02 17:17:38.457705
-1,-3,26,11,-2,-3,-3,-3,2021-08-02 17:17:38.462707
3,4,-23,-15,4,2,2,0,2021-08-02 17:17:38.463708
2,1,2,2,3,0,0,-4,2021-08-02 17:17:38.485705
-2,-5,-11,21,-5,-5,-5,-1,2021-08-02 17:17:38.485705
-2,-2,20,4,-2,-5,-4,2,2021-08-02 17:17:38.490708
2,1,-10,-6,2,3,2,-7,2021-08-02 17:17:38.490708
1,2,-40,8,2,2,1,-2,2021-08-02 17:17:38.490708
-5,-7,38,-27,-9,-6,-6,-4,2021-08-02 17:17:38.490708
-1,-2,-25,-5,-3,-3,-2,0,2021-08-02 17:17:38.498707
-1,0,-8,-10,1,1,3,-1,2021-08-02 17:17:38.498707
0,3,-5,6,2,0,2,0,2021-08-02 17:17:38.530707
-2,-4,-26,8,-5,-5,-6,0,2021-08-02 17:17:38.530707
-1,-5,3,13,-1,-4,-3,-3,2021-08-02 17:17:38.530707
1,1,-16,-17,2,1,4,3,2021-08-02 17:17:38.530707
-2,0,2,-7,1,2,2,-2,2021-08-02 17:17:38.533709
-2,-7,0,12,-5,-6,-4,4,2021-08-02 17:17:38.533709
-1,2,-28,-4,-1,-1,-5,1,2021-08-02 17:17:38.544707
-1,5,24,10,4,2,2,2,2021-08-02 17:17:38.544707
0,-1,21,0,1,2,2,0,2021-08-02 17:17:38.578709
-2,-7,-27,-27,-7,-4,-5,-1,2021-08-02 17:17:38.579709
-1,-4,-1,16,-3,-3,-3,-4,2021-08-02 17:17:38.579709
2,0,-52,-24,3,1,1,0,2021-08-02 17:17:38.579709
-2,-1,9,22,2,2,0,-1,2021-08-02 17:17:38.579709
-1,-1,9,-16,-6,-3,-4,-2,2021-08-02 17:17:38.579709
-2,1,15,-6,0,-2,-3,1,2021-08-02 17:17:38.579709
0,0,-36,22,3,5,4,-5,2021-08-02 17:17:38.579709
2,4,3,-22,3,1,2,0,2021-08-02 17:17:38.615710
-4,-12,2,34,-8,-7,-7,-5,2021-08-02 17:17:38.615710
-2,1,-31,-10,-2,-3,-4,0,2021-08-02 17:17:38.615710
3,4,57,10,3,2,4,3,2021-08-02 17:17:38.615710
1,0,7,-11,-1,-1,3,2,2021-08-02 17:17:38.619705
-5,-7,6,-14,-9,-5,-6,-4,2021-08-02 17:17:38.620708
-1,-5,-24,6,-4,-4,-3,-3,2021-08-02 17:17:38.620708
1,6,-12,-3,6,5,4,2,2021-08-02 17:17:38.620708
3,0,-27,-7,2,3,2,-2,2021-08-02 17:17:38.657705
-2,-4,-3,1,-7,-5,-5,-10,2021-08-02 17:17:38.658707
-2,-7,23,0,-2,-2,0,0,2021-08-02 17:17:38.658707
2,5,25,10,3,3,2,4,2021-08-02 17:17:38.658707
-4,-1,-27,-2,1,1,0,0,2021-08-02 17:17:38.659707
-1,-3,-16,4,-4,-3,-4,0,2021-08-02 17:17:38.659707
0,-1,-6,-6,-3,-3,-1,-6,2021-08-02 17:17:38.662708
1,3,8,7,4,5,6,0,2021-08-02 17:17:38.662708
2,1,32,0,-3,1,2,4,2021-08-02 17:17:38.694709
-5,-7,14,-1,-7,-7,-6,-1,2021-08-02 17:17:38.694709
-4,-4,-35,1,-2,-2,-3,0,2021-08-02 17:17:38.694709
0,4,44,-2,1,-1,0,4,2021-08-02 17:17:38.694709
0,3,-15,-11,0,1,1,-3,2021-08-02 17:17:38.703706
-4,-7,-5,-16,-7,-4,-3,-2,2021-08-02 17:17:38.703706
-1,0,0,-4,1,-3,-1,-2,2021-08-02 17:17:38.703706
3,0,6,20,4,5,5,0,2021-08-02 17:17:38.703706
-1,-3,23,16,-1,-1,0,-1,2021-08-02 17:17:38.733707
2,-2,-10,-10,-6,-5,-6,0,2021-08-02 17:17:38.733707
-3,2,29,-1,-3,-4,-5,0,2021-08-02 17:17:38.733707
0,4,-13,-11,2,3,5,-1,2021-08-02 17:17:38.733707
-1,-2,-6,-9,0,1,1,-2,2021-08-02 17:17:38.739707
-3,-8,-5,14,-5,-4,-5,0,2021-08-02 17:17:38.739707
1,1,1,-16,0,-1,-2,-2,2021-08-02 17:17:38.745707
1,4,24,22,3,1,1,6,2021-08-02 17:17:38.745707
-3,0,-78,-3,0,0,-2,-11,2021-08-02 17:17:38.768707
-4,-8,15,-27,-7,-5,-5,-2,2021-08-02 17:17:38.768707
0,-2,1,0,-2,0,1,-1,2021-08-02 17:17:38.768707
-1,2,19,19,4,2,3,1,2021-08-02 17:17:38.768707
0,4,38,22,3,2,0,1,2021-08-02 17:17:38.776709
-1,-4,-38,-11,-5,-5,-5,-1,2021-08-02 17:17:38.776709
0,0,31,6,-1,0,0,-8,2021-08-02 17:17:38.783708
-3,2,5,-30,1,0,1,-4,2021-08-02 17:17:38.783708
1,-2,-2,16,3,1,4,4,2021-08-02 17:17:38.814708
-3,-2,18,5,-4,-6,-6,-2,2021-08-02 17:17:38.815708
-1,-2,-13,-3,-3,-2,-2,2,2021-08-02 17:17:38.815708
0,3,0,-8,0,0,2,-1,2021-08-02 17:17:38.815708
2,0,8,-4,1,2,4,-2,2021-08-02 17:17:38.815708
-2,-5,-3,-5,-3,-2,-5,2,2021-08-02 17:17:38.816708
0,0,11,4,-2,-2,-4,0,2021-08-02 17:17:38.823708
0,2,-3,7,3,2,3,-1,2021-08-02 17:17:38.823708
2,2,20,5,1,1,2,1,2021-08-02 17:17:38.848707
-6,-11,-66,-14,-7,-6,-6,-2,2021-08-02 17:17:38.848707
-2,-2,44,8,-3,-3,-3,0,2021-08-02 17:17:38.848707
3,8,5,-3,5,5,4,-2,2021-08-02 17:17:38.849708
0,1,12,-2,-2,2,1,-2,2021-08-02 17:17:38.861708
-2,-5,-10,11,-5,-4,-9,4,2021-08-02 17:17:38.861708
0,-1,-14,8,2,-2,-1,5,2021-08-02 17:17:38.868708
2,6,22,-13,4,4,1,-2,2021-08-02 17:17:38.868708
-3,-3,2,-11,-3,-1,-1,-1,2021-08-02 17:17:38.881706
-4,-8,-30,-8,-6,-5,-4,-5,2021-08-02 17:17:38.881706
-1,-3,-26,-5,1,-3,0,5,2021-08-02 17:17:38.887708
2,7,24,32,4,5,4,-7,2021-08-02 17:17:38.888707
1,-2,-49,-1,-1,1,0,1,2021-08-02 17:17:38.895708
-4,-4,39,-3,-10,-6,-7,-6,2021-08-02 17:17:38.895708
-1,0,11,-8,-1,-1,-1,-3,2021-08-02 17:17:38.910707
-3,0,-31,6,3,0,3,2,2021-08-02 17:17:38.910707
-2,2,1,-3,1,0,1,1,2021-08-02 17:17:38.917707
0,-5,13,-5,-5,-3,-4,-3,2021-08-02 17:17:38.917707
-2,-3,-17,-7,-2,-2,-3,-5,2021-08-02 17:17:38.924708
3,3,19,14,4,3,4,2,2021-08-02 17:17:38.924708
0,2,-2,-18,0,0,-1,2,2021-08-02 17:17:38.932706
-5,-4,25,8,-5,-6,-5,-2,2021-08-02 17:17:38.932706
1,0,-61,-12,0,3,0,-2,2021-08-02 17:17:38.948708
2,1,7,11,-1,-1,0,2,2021-08-02 17:17:38.949708
-2,-1,11,10,3,0,0,-2,2021-08-02 17:17:38.957708
-1,-4,-44,-16,-4,-4,-4,-1,2021-08-02 17:17:38.957708
-1,2,41,-14,1,1,0,-8,2021-08-02 17:17:38.974706
3,4,-22,16,2,3,5,4,2021-08-02 17:17:38.975705
-2,-3,3,-1,-1,-1,-1,0,2021-08-02 17:17:38.979709
-3,-3,11,-4,-5,-5,-5,-2,2021-08-02 17:17:38.979709
3,0,-15,-7,-2,0,0,-3,2021-08-02 17:17:38.981709
0,1,-25,-10,3,3,3,0,2021-08-02 17:17:38.981709
-1,2,23,21,1,-1,1,-1,2021-08-02 17:17:38.996707
-1,-8,-21,-22,-5,-5,-5,1,2021-08-02 17:17:38.997706
0,2,0,21,-1,-4,0,1,2021-08-02 17:17:38.998707
-1,2,-14,9,4,4,3,-1,2021-08-02 17:17:38.999707
-1,-2,29,-3,-2,0,0,0,2021-08-02 17:17:39.019707
-5,-5,2,6,-7,-6,-5,-5,2021-08-02 17:17:39.019707
2,1,-9,-4,2,1,-1,3,2021-08-02 17:17:39.021706
2,1,12,1,4,2,3,-2,2021-08-02 17:17:39.022706
1,-1,-23,-8,0,1,1,0,2021-08-02 17:17:39.041705
-3,-5,-15,5,-7,-6,-7,-3,2021-08-02 17:17:39.041705
-1,0,9,-15,-2,-1,-2,-1,2021-08-02 17:17:39.041705
0,3,13,0,3,4,3,3,2021-08-02 17:17:39.042707
-2,-1,-13,1,-1,-2,-1,-2,2021-08-02 17:17:39.071707
0,-4,6,-9,-6,-3,-4,0,2021-08-02 17:17:39.071707
-1,-3,-12,-4,-4,-2,-1,0,2021-08-02 17:17:39.072708
2,4,35,8,5,4,4,1,2021-08-02 17:17:39.072708
-2,-2,23,16,0,0,0,-2,2021-08-02 17:17:39.077708
-4,-7,-61,-37,-8,-6,-6,-2,2021-08-02 17:17:39.077708
-4,1,31,15,-1,-2,-1,0,2021-08-02 17:17:39.080707
3,5,-7,-2,5,4,4,3,2021-08-02 17:17:39.081707
2,-2,31,-17,-3,1,0,0,2021-08-02 17:17:39.098708
-5,-9,13,1,-4,-6,-7,-3,2021-08-02 17:17:39.098708
0,1,6,7,2,1,-2,0,2021-08-02 17:17:39.099708
2,3,3,-4,-1,-1,0,-1,2021-08-02 17:17:39.099708
0,0,7,9,-2,0,-1,0,2021-08-02 17:17:39.111708
-3,-4,24,0,-6,-4,-5,2,2021-08-02 17:17:39.112706
-2,-1,3,8,-1,-1,0,-12,2021-08-02 17:17:39.122706
2,8,5,11,1,0,1,1,2021-08-02 17:17:39.122706
-1,-2,-15,-1,0,1,-1,0,2021-08-02 17:17:39.137706
-1,0,-27,-16,-4,-3,-5,0,2021-08-02 17:17:39.137706
1,-1,15,0,2,1,0,4,2021-08-02 17:17:39.146710
1,1,-2,1,2,4,3,0,2021-08-02 17:17:39.146710
-2,-5,-54,-7,-4,-2,-3,-2,2021-08-02 17:17:39.163709
-2,-3,19,-3,-3,-5,-3,-4,2021-08-02 17:17:39.163709
-1,3,1,17,0,0,1,1,2021-08-02 17:17:39.163709
1,2,-21,-16,5,5,5,2,2021-08-02 17:17:39.163709
-3,-8,14,14,-7,-4,-2,-2,2021-08-02 17:17:39.171709
-4,-1,58,8,-3,-3,-5,-2,2021-08-02 17:17:39.171709
-1,-7,-67,-35,-2,-1,-1,1,2021-08-02 17:17:39.186707
1,1,67,13,2,1,3,0,2021-08-02 17:17:39.186707
0,0,-8,5,0,1,-2,-4,2021-08-02 17:17:39.193709
-1,-4,-11,-5,-8,-4,-4,-3,2021-08-02 17:17:39.193709
1,3,15,15,2,-2,0,1,2021-08-02 17:17:39.207708
2,2,-17,-5,3,3,3,-2,2021-08-02 17:17:39.207708
-1,-1,6,-21,0,1,-1,1,2021-08-02 17:17:39.230708
-3,-5,-43,11,-5,-5,-4,-4,2021-08-02 17:17:39.230708
1,6,23,-1,2,2,1,2,2021-08-02 17:17:39.230708
1,-1,-27,3,5,-1,3,-1,2021-08-02 17:17:39.230708
0,0,-12,-7,-1,-1,0,0,2021-08-02 17:17:39.230708
-3,-7,-32,2,-4,-3,-4,-1,2021-08-02 17:17:39.230708
-1,2,-13,5,3,1,-1,7,2021-08-02 17:17:39.247707
0,2,56,13,2,2,1,3,2021-08-02 17:17:39.247707
-4,-8,-97,-7,-3,-1,-2,-4,2021-08-02 17:17:39.253709
-1,-5,45,-38,-8,-5,-3,-2,2021-08-02 17:17:39.253709
2,1,2,25,0,-1,-3,0,2021-08-02 17:17:39.272708
-1,4,-20,-25,2,3,3,2,2021-08-02 17:17:39.272708
-1,-2,19,4,-2,-2,-1,-3,2021-08-02 17:17:39.278709
-1,-3,-28,0,-3,-4,-2,1,2021-08-02 17:17:39.278709
1,2,1,8,3,0,3,-2,2021-08-02 17:17:39.281706
0,2,18,6,1,0,3,-1,2021-08-02 17:17:39.281706
-2,1,-5,-16,-3,-3,-3,-2,2021-08-02 17:17:39.296710
-1,-4,41,21,-1,-3,-5,-3,2021-08-02 17:17:39.296710
-1,4,37,-1,-1,-1,-1,-2,2021-08-02 17:17:39.302708
3,0,-21,-6,4,4,2,-1,2021-08-02 17:17:39.302708
-3,-3,24,-10,-1,-4,-3,-2,2021-08-02 17:17:39.330708
-4,-7,-52,-15,-7,-5,-6,-3,2021-08-02 17:17:39.330708
2,2,32,-4,1,2,2,6,2021-08-02 17:17:39.330708
0,0,-2,34,3,2,-1,2,2021-08-02 17:17:39.330708
-2,-4,14,-24,-4,-1,-2,0,2021-08-02 17:17:39.345707
-1,-4,14,-3,-6,-6,-6,-1,2021-08-02 17:17:39.345707
0,0,-31,-3,4,-1,2,-1,2021-08-02 17:17:39.345707
1,2,-24,11,2,3,7,-3,2021-08-02 17:17:39.346707
0,-1,41,10,-3,-2,-3,0,2021-08-02 17:17:39.352708
-7,-5,-35,-10,-4,-4,-6,-4,2021-08-02 17:17:39.353708
1,2,-14,-10,4,2,5,-1,2021-08-02 17:17:39.366708
0,3,12,18,5,2,3,-1,2021-08-02 17:17:39.366708
-3,-8,24,-5,-6,-3,-3,-1,2021-08-02 17:17:39.394708
-1,-6,-36,-19,-5,-4,-5,-3,2021-08-02 17:17:39.394708
0,3,45,9,2,0,0,-2,2021-08-02 17:17:39.395707
0,0,-15,3,3,3,3,0,2021-08-02 17:17:39.395707
0,-2,-25,-3,-3,-1,-2,-1,2021-08-02 17:17:39.401707
-3,-3,22,-1,-6,-4,-5,-2,2021-08-02 17:17:39.401707
2,1,-1,-8,3,3,1,0,2021-08-02 17:17:39.405710
-1,1,53,16,1,2,1,-3,2021-08-02 17:17:39.405710
-4,-6,-75,-12,-5,-3,-2,-2,2021-08-02 17:17:39.411707
-5,-7,13,10,-6,-6,-9,-1,2021-08-02 17:17:39.412710
0,5,2,-7,3,2,0,-3,2021-08-02 17:17:39.431707
-3,-1,16,8,3,2,2,0,2021-08-02 17:17:39.431707
-1,-3,-7,-15,-2,0,-2,2,2021-08-02 17:17:39.440709
-3,-2,5,-7,-5,-5,-5,-9,2021-08-02 17:17:39.441709
-1,-1,16,20,0,-1,0,0,2021-08-02 17:17:39.446708
1,1,-20,-27,2,3,3,0,2021-08-02 17:17:39.447708
-1,0,-5,2,-1,-1,-2,-2,2021-08-02 17:17:39.469705
0,-5,-20,-13,-2,-4,-3,2,2021-08-02 17:17:39.469705
1,2,-31,14,1,0,1,0,2021-08-02 17:17:39.469705
-1,-1,-12,-4,1,1,0,-2,2021-08-02 17:17:39.470710
-3,-2,-21,12,-3,-3,-6,-1,2021-08-02 17:17:39.482708
-5,-3,31,-8,-8,-5,-6,-2,2021-08-02 17:17:39.482708
3,5,-11,-6,5,4,3,1,2021-08-02 17:17:39.487707
1,2,4,8,-2,1,3,1,2021-08-02 17:17:39.488705
-2,-3,21,42,-5,-3,-2,0,2021-08-02 17:17:39.506705
-2,-7,-55,-49,-3,-5,-3,0,2021-08-02 17:17:39.506705
0,0,6,4,-1,1,1,-2,2021-08-02 17:17:39.511708
3,3,-13,20,-1,0,2,-1,2021-08-02 17:17:39.512708
0,-3,19,-28,-1,3,-2,0,2021-08-02 17:17:39.527706
-2,-2,3,31,-4,-4,-5,-1,2021-08-02 17:17:39.528705
0,3,18,-20,3,2,3,1,2021-08-02 17:17:39.528705
1,-1,-45,-27,0,2,3,-2,2021-08-02 17:17:39.528705
-3,-3,58,18,-7,-2,-4,-2,2021-08-02 17:17:39.555706
0,-7,-26,-48,0,-2,-1,0,2021-08-02 17:17:39.555706
0,0,-21,1,-1,1,2,-1,2021-08-02 17:17:39.556707
0,3,44,21,4,2,0,0,2021-08-02 17:17:39.556707
-1,-5,-39,-24,-6,-5,-4,-2,2021-08-02 17:17:39.556707
-2,0,16,11,-5,-3,-1,2,2021-08-02 17:17:39.556707
0,4,3,36,7,2,2,-1,2021-08-02 17:17:39.561709
3,1,26,-8,5,2,2,2,2021-08-02 17:17:39.562709
-4,-10,-90,-24,-8,-2,-4,-2,2021-08-02 17:17:39.606706
-3,-3,-26,14,-8,-7,-8,-4,2021-08-02 17:17:39.607705
0,4,19,1,4,3,4,-1,2021-08-02 17:17:39.607705
0,1,3,17,-1,2,0,-1,2021-08-02 17:17:39.607705
-4,-9,-5,-53,-6,-5,-5,-2,2021-08-02 17:17:39.607705
-1,0,20,9,-2,-3,-5,-1,2021-08-02 17:17:39.608705
1,6,1,26,7,3,2,0,2021-08-02 17:17:39.608705
1,4,-4,0,4,3,2,0,2021-08-02 17:17:39.608705
-2,-3,-30,7,-3,-2,-3,-2,2021-08-02 17:17:39.613709
0,-1,-25,-29,-7,-3,-3,-1,2021-08-02 17:17:39.613709
-1,-1,-17,34,5,-1,1,-1,2021-08-02 17:17:39.623707
1,2,47,10,6,3,3,-1,2021-08-02 17:17:39.623707
-3,-2,16,8,-4,-5,-5,0,2021-08-02 17:17:39.644708
1,-3,10,7,-4,-4,-3,2,2021-08-02 17:17:39.644708
1,3,8,-28,1,0,0,-1,2021-08-02 17:17:39.647705
1,0,-30,-5,1,4,4,0,2021-08-02 17:17:39.647705
-3,-10,3,7,-3,-4,-3,-3,2021-08-02 17:17:39.683705
-2,0,23,-1,-2,-1,-3,0,2021-08-02 17:17:39.683705
1,-3,-35,-1,1,0,3,1,2021-08-02 17:17:39.683705
-1,1,45,-19,-3,-1,-2,-2,2021-08-02 17:17:39.683705
-2,-1,-7,13,-4,-3,-4,-1,2021-08-02 17:17:39.683705
0,-5,20,-2,-3,-4,-5,-2,2021-08-02 17:17:39.683705
2,7,17,-3,2,2,2,0,2021-08-02 17:17:39.686705
0,-1,-17,-3,2,2,1,-1,2021-08-02 17:17:39.686705
-5,-6,5,4,-4,-3,-4,7,2021-08-02 17:17:39.711708
-2,-1,24,6,-1,-3,-1,-16,2021-08-02 17:17:39.711708
-11,1,-10,-18,-2,0,-1,2,2021-08-02 17:17:39.711708
6,-2,-55,-16,2,3,23,14,2021-08-02 17:17:39.711708
-13,-3,24,7,-6,-6,-30,-32,2021-08-02 17:17:39.729705
5,-3,-40,7,1,-2,-2,7,2021-08-02 17:17:39.729705
-1,6,27,6,3,2,2,-5,2021-08-02 17:17:39.730706
13,0,-32,-13,0,0,3,17,2021-08-02 17:17:39.730706
-6,6,37,2,-2,-2,6,-5,2021-08-02 17:17:39.735709
-8,-9,-39,8,-4,-5,-15,4,2021-08-02 17:17:39.735709
16,4,39,-7,3,3,2,7,2021-08-02 17:17:39.746707
-12,9,-9,31,6,2,0,-4,2021-08-02 17:17:39.746707
13,-22,-16,-18,-9,-6,-10,-9,2021-08-02 17:17:39.784705
0,3,2,-1,2,-1,5,2,2021-08-02 17:17:39.784705
5,5,17,8,3,5,5,-3,2021-08-02 17:17:39.784705
0,-6,52,2,-3,1,-3,-10,2021-08-02 17:17:39.784705
-13,2,2,1,-3,-4,-16,2,2021-08-02 17:17:39.785707
-14,-4,-13,-6,-1,-3,-5,-5,2021-08-02 17:17:39.785707
14,7,40,9,5,4,7,12,2021-08-02 17:17:39.785707
3,2,-30,-42,-1,2,0,-11,2021-08-02 17:17:39.786708
1,-9,-36,14,-9,-6,7,24,2021-08-02 17:17:39.798705
4,-1,51,-2,-4,-3,-3,-42,2021-08-02 17:17:39.798705
-2,3,-45,21,4,1,-3,12,2021-08-02 17:17:39.806709
-9,-3,10,10,2,-1,0,-12,2021-08-02 17:17:39.807707
15,0,-13,-30,-6,-5,1,14,2021-08-02 17:17:39.820705
-9,0,16,29,-2,-2,-2,16,2021-08-02 17:17:39.821705
6,5,1,-1,4,0,4,-9,2021-08-02 17:17:39.826707
-7,1,-6,2,1,2,1,-10,2021-08-02 17:17:39.826707
1,-9,-23,-22,-9,-6,-4,-10,2021-08-02 17:17:39.864706
2,-3,-27,-6,-3,-4,-4,3,2021-08-02 17:17:39.864706
-7,0,-1,5,5,3,3,-6,2021-08-02 17:17:39.864706
3,3,7,25,0,0,-4,6,2021-08-02 17:17:39.864706
-4,-5,31,-2,-6,-4,-2,4,2021-08-02 17:17:39.865709
-6,-1,-14,2,-4,-6,-3,-4,2021-08-02 17:17:39.865709
-2,-2,-66,-21,0,1,5,2,2021-08-02 17:17:39.865709
6,7,2,-7,6,5,1,4,2021-08-02 17:17:39.866708
-8,-3,8,0,-6,-5,-4,-3,2021-08-02 17:17:39.893707
8,-3,20,8,-2,-4,-4,2,2021-08-02 17:17:39.893707
-16,1,23,-16,3,0,1,-16,2021-08-02 17:17:39.897706
-5,-1,-3,-3,0,0,-1,-12,2021-08-02 17:17:39.897706
0,-5,1,2,-6,-3,-5,9,2021-08-02 17:17:39.900708
0,-3,9,-16,-2,1,1,-15,2021-08-02 17:17:39.900708
5,-3,16,-4,-2,-1,1,-10,2021-08-02 17:17:39.903706
-4,4,11,26,0,-1,-1,14,2021-08-02 17:17:39.904705
-7,-5,-28,-18,-5,-3,-4,-13,2021-08-02 17:17:39.922708
0,3,11,5,0,-4,-5,7,2021-08-02 17:17:39.922708
0,6,0,3,4,5,7,8,2021-08-02 17:17:39.925708
3,-9,-42,28,3,2,2,6,2021-08-02 17:17:39.925708
-5,-15,28,-21,-8,-6,-6,0,2021-08-02 17:17:39.949708
7,4,-45,-32,0,-1,0,11,2021-08-02 17:17:39.949708
-9,4,44,8,-2,-1,-1,-6,2021-08-02 17:17:39.950707
20,5,10,18,2,1,2,11,2021-08-02 17:17:39.950707
-5,-10,-26,2,-1,-3,-3,-11,2021-08-02 17:17:39.968705
-9,-3,23,-39,-10,-5,-3,18,2021-08-02 17:17:39.969707
9,10,-3,11,8,6,19,-1,2021-08-02 17:17:39.973705
-4,0,-42,19,-2,3,-12,0,2021-08-02 17:17:39.973705
-3,-10,19,6,-5,-6,-11,-7,2021-08-02 17:17:39.975708
-11,-4,-18,-14,-2,-1,-1,-3,2021-08-02 17:17:39.975708
2,1,28,16,3,1,5,19,2021-08-02 17:17:39.991707
-3,2,23,-22,1,3,6,9,2021-08-02 17:17:39.991707
-1,1,3,3,-7,-6,-6,-29,2021-08-02 17:17:39.995707
18,-5,18,-2,-5,-3,-6,12,2021-08-02 17:17:39.996707
-51,3,6,9,6,4,0,9,2021-08-02 17:17:40.026708
24,1,-16,-40,0,0,-3,-19,2021-08-02 17:17:40.026708
-6,-6,-26,20,-7,-5,-5,6,2021-08-02 17:17:40.026708
-4,-1,0,21,1,-3,-1,-11,2021-08-02 17:17:40.026708
15,5,28,12,5,4,-3,-5,2021-08-02 17:17:40.026708
-11,-3,-2,-33,0,2,15,-8,2021-08-02 17:17:40.026708
-14,-7,-29,-15,-9,-4,-15,2,2021-08-02 17:17:40.043705
-7,-4,-4,-1,-4,-5,-4,-9,2021-08-02 17:17:40.043705
11,5,-53,-1,5,3,-4,-16,2021-08-02 17:17:40.044707
-20,-5,4,8,-1,3,10,8,2021-08-02 17:17:40.045708
24,-8,-3,-1,-7,-5,2,-5,2021-08-02 17:17:40.068705
-8,-6,24,4,-4,-3,-2,7,2021-08-02 17:17:40.068705
13,7,-4,14,4,3,-3,13,2021-08-02 17:17:40.069707
15,7,55,-16,4,1,2,8,2021-08-02 17:17:40.069707
-35,-10,-25,-12,-6,-4,0,3,2021-08-02 17:17:40.100708
1,-6,-19,-48,-7,-5,-8,-2,2021-08-02 17:17:40.100708
14,8,22,34,1,-1,7,15,2021-08-02 17:17:40.100708
-7,6,-1,6,4,3,0,-24,2021-08-02 17:17:40.100708
5,-12,-12,-7,-4,-3,-6,4,2021-08-02 17:17:40.100708
-9,6,-3,35,3,1,2,1,2021-08-02 17:17:40.101707
5,-5,-3,-32,2,4,5,-10,2021-08-02 17:17:40.105707
-6,1,-26,4,-4,-2,-2,17,2021-08-02 17:17:40.105707
-8,-2,1,-16,-9,-6,-7,-8,2021-08-02 17:17:40.122708
-7,0,-9,19,-1,-2,0,-14,2021-08-02 17:17:40.122708
16,2,12,27,8,4,3,8,2021-08-02 17:17:40.125707
-6,4,34,16,2,3,5,-15,2021-08-02 17:17:40.125707
-2,-8,-40,-98,-16,-8,-4,0,2021-08-02 17:17:40.147708
4,2,30,29,-2,-4,-3,-6,2021-08-02 17:17:40.148708
-5,2,-4,-2,4,2,16,5,2021-08-02 17:17:40.148708
11,1,27,18,4,1,-14,4,2021-08-02 17:17:40.148708
-4,1,-9,15,-2,-3,1,4,2021-08-02 17:17:40.153709
4,-5,24,-10,-1,-1,-3,12,2021-08-02 17:17:40.154708
-14,1,0,-29,-1,1,1,-7,2021-08-02 17:17:40.172705
6,2,-15,2,0,0,6,-3,2021-08-02 17:17:40.172705
-4,-4,-3,25,-8,-6,-5,4,2021-08-02 17:17:40.177708
-3,-4,-9,3,0,-3,-1,-4,2021-08-02 17:17:40.177708
4,3,30,12,4,3,-1,-10,2021-08-02 17:17:40.186707
-3,-4,-21,-5,1,4,4,9,2021-08-02 17:17:40.186707
-8,-6,-1,-14,-7,-3,-5,-6,2021-08-02 17:17:40.220708
12,0,-10,21,-1,-2,-5,6,2021-08-02 17:17:40.220708
8,7,24,38,5,4,2,-1,2021-08-02 17:17:40.220708
-10,0,4,-27,-3,-1,-2,21,2021-08-02 17:17:40.220708
7,-5,13,-6,-6,-5,-2,-4,2021-08-02 17:17:40.224708
-8,4,15,-6,1,3,2,-5,2021-08-02 17:17:40.224708
4,1,-50,1,4,3,1,-13,2021-08-02 17:17:40.224708
1,5,18,22,2,2,5,-1,2021-08-02 17:17:40.224708
-1,-3,-46,-12,-4,-3,-5,3,2021-08-02 17:17:40.259708
16,5,-31,14,2,1,1,-13,2021-08-02 17:17:40.260708
-14,-6,1,-17,-5,-3,-4,40,2021-08-02 17:17:40.260708
-9,-1,58,24,-3,-3,-6,-4,2021-08-02 17:17:40.260708
9,-11,-59,-22,-5,-6,0,-4,2021-08-02 17:17:40.260708
-3,-3,33,13,1,-1,10,-3,2021-08-02 17:17:40.260708
3,8,-17,-17,3,5,-20,1,2021-08-02 17:17:40.260708
-1,0,-2,6,1,2,2,-42,2021-08-02 17:17:40.262708
-7,-7,35,-1,-7,-4,-7,5,2021-08-02 17:17:40.301705
-8,-2,-51,-4,-1,-2,-4,5,2021-08-02 17:17:40.301705
2,2,-14,-10,3,1,11,-7,2021-08-02 17:17:40.301705
-15,-4,30,2,-3,-2,0,18,2021-08-02 17:17:40.302705
-10,-2,-14,1,-3,-3,-6,3,2021-08-02 17:17:40.304710
13,-5,-46,-42,-1,-1,-5,-46,2021-08-02 17:17:40.304710
-1,12,40,37,4,3,6,-3,2021-08-02 17:17:40.304710
13,-10,-60,-14,0,1,2,12,2021-08-02 17:17:40.305708
-33,-5,30,19,-4,-5,-5,-2,2021-08-02 17:17:40.321297
-3,-4,3,-43,-2,-3,3,15,2021-08-02 17:17:40.321297
6,5,53,53,7,4,7,-6,2021-08-02 17:17:40.328360
-5,-10,-78,-84,-6,0,1,-12,2021-08-02 17:17:40.328360
4,-5,0,15,-6,-7,-9,-9,2021-08-02 17:17:40.336360
-6,-3,18,17,-3,-3,-10,53,2021-08-02 17:17:40.336360
-10,6,42,-9,7,3,0,-44,2021-08-02 17:17:40.342361
20,2,-52,25,0,1,5,2,2021-08-02 17:17:40.342361
1,-10,-21,-27,-5,-4,-8,-3,2021-08-02 17:17:40.356426
-6,1,-7,-5,0,0,14,-5,2021-08-02 17:17:40.357424
6,-4,18,4,3,2,-17,9,2021-08-02 17:17:40.363425
-3,4,27,23,1,1,0,1,2021-08-02 17:17:40.363425
1,-4,-19,-19,-2,-3,-2,-5,2021-08-02 17:17:40.392424
-6,-3,-14,-27,-6,-3,-5,-5,2021-08-02 17:17:40.392424
1,-1,-5,-9,-2,2,10,5,2021-08-02 17:17:40.392424
-1,4,45,13,2,1,4,-8,2021-08-02 17:17:40.392424
0,-1,-4,13,-5,-5,-11,3,2021-08-02 17:17:40.393423
-3,-2,29,18,1,-2,-5,-1,2021-08-02 17:17:40.393423
5,3,13,-5,5,5,10,5,2021-08-02 17:17:40.405424
-3,1,-35,-5,-4,-2,-5,0,2021-08-02 17:17:40.405424
3,1,100,22,-8,-7,-1,-2,2021-08-02 17:17:40.432422
-4,-11,-58,-20,-6,-2,-7,-4,2021-08-02 17:17:40.432422
3,1,14,-5,3,1,7,1,2021-08-02 17:17:40.433424
-4,3,13,7,2,-1,3,1,2021-08-02 17:17:40.433424
0,-3,-8,6,-4,-5,-8,2,2021-08-02 17:17:40.439423
2,4,23,10,3,1,-1,-7,2021-08-02 17:17:40.439423
1,5,-3,4,2,2,2,7,2021-08-02 17:17:40.446422
1,-1,-10,-16,0,1,3,2,2021-08-02 17:17:40.446422
-2,-9,-49,-23,-8,-5,-6,-6,2021-08-02 17:17:40.470423
-3,-2,54,23,-1,-1,-6,3,2021-08-02 17:17:40.470423
2,3,-39,-18,7,6,10,0,2021-08-02 17:17:40.470423
-1,0,47,32,0,1,-3,-4,2021-08-02 17:17:40.470423
-3,-9,-56,-31,-5,-3,-6,0,2021-08-02 17:17:40.476423
1,6,26,8,1,0,0,-1,2021-08-02 17:17:40.476423
-1,-1,-25,16,1,1,3,-2,2021-08-02 17:17:40.484423
-3,0,-1,-5,1,0,-2,0,2021-08-02 17:17:40.484423
0,-1,-14,-8,-7,-6,-6,-3,2021-08-02 17:17:40.505424
-3,-13,39,6,0,-1,-3,-2,2021-08-02 17:17:40.505424
-1,7,-71,-13,2,4,9,1,2021-08-02 17:17:40.506422
6,-6,-9,-7,-2,-2,-3,0,2021-08-02 17:17:40.507421
-2,-3,-19,-16,-8,-6,-1,1,2021-08-02 17:17:40.521422
-2,7,-19,10,4,-2,-2,-3,2021-08-02 17:17:40.522423
10,8,48,9,1,3,5,3,2021-08-02 17:17:40.527423
-14,-7,-61,-14,-2,0,1,-5,2021-08-02 17:17:40.527423
-8,-6,5,1,-7,-5,-4,6,2021-08-02 17:17:40.536495
26,9,-25,-5,-1,-3,16,-10,2021-08-02 17:17:40.536495
-4,-1,50,25,5,1,-19,1,2021-08-02 17:17:40.543481
1,2,12,-25,-2,-1,3,-1,2021-08-02 17:17:40.543481
-3,-10,-54,-8,-8,-3,-6,-1,2021-08-02 17:17:40.559479
-2,2,-9,-3,2,1,1,1,2021-08-02 17:17:40.560481
0,0,20,7,2,3,10,-8,2021-08-02 17:17:40.564480
1,-3,14,7,-2,-1,0,14,2021-08-02 17:17:40.565481
-5,-3,25,5,-3,-7,-11,-38,2021-08-02 17:17:40.582479
2,4,-4,-5,0,2,-4,0,2021-08-02 17:17:40.582479
9,9,-16,-1,0,2,7,-2,2021-08-02 17:17:40.589481
-26,-10,11,-6,-5,-1,-8,-3,2021-08-02 17:17:40.589481
-1,-6,0,-3,-4,-3,1,8,2021-08-02 17:17:40.596481
-7,7,51,16,2,-2,0,-27,2021-08-02 17:17:40.596481
-2,2,-45,-4,1,-1,2,3,2021-08-02 17:17:40.603480
12,-2,12,-5,-2,0,2,6,2021-08-02 17:17:40.603480
-7,-5,32,16,-5,-7,-9,-19,2021-08-02 17:17:40.620478
-4,1,-26,-9,3,1,-2,7,2021-08-02 17:17:40.621481
6,3,1,0,3,4,13,7,2021-08-02 17:17:40.624478
-3,-3,-12,-3,-4,-2,-18,-10,2021-08-02 17:17:40.626483
-8,-6,-26,-10,-3,-3,-5,12,2021-08-02 17:17:40.643478
8,-1,37,4,1,3,7,8,2021-08-02 17:17:40.644480
-2,1,-40,-1,1,2,5,-5,2021-08-02 17:17:40.644480
1,-4,5,-5,-1,-1,5,-2,2021-08-02 17:17:40.644480
0,1,25,-13,-4,-3,3,1,2021-08-02 17:17:40.656482
-6,0,-17,-6,1,0,-6,9,2021-08-02 17:17:40.656482
-2,0,18,11,3,2,5,-4,2021-08-02 17:17:40.663481
0,3,5,-8,-2,1,0,-5,2021-08-02 17:17:40.663481
0,-5,39,27,-5,-6,-9,4,2021-08-02 17:17:40.682480
-6,-3,-58,-15,-1,-2,0,-4,2021-08-02 17:17:40.682480
-1,-1,3,3,2,1,2,5,2021-08-02 17:17:40.685482
6,-1,-8,9,-2,-3,0,1,2021-08-02 17:17:40.685482
-1,-4,41,-17,-3,-3,-4,3,2021-08-02 17:17:40.712479
-2,2,33,28,0,3,0,4,2021-08-02 17:17:40.712479
2,12,10,0,2,3,1,2,2021-08-02 17:17:40.712479
-3,-8,-18,-6,-7,-2,-1,1,2021-08-02 17:17:40.712479
1,-8,13,-26,2,0,-2,0,2021-08-02 17:17:40.718482
-5,2,42,16,-1,-2,-2,-1,2021-08-02 17:17:40.718482
4,3,18,5,-3,0,2,3,2021-08-02 17:17:40.724483
-4,7,57,-1,-4,-6,-3,-7,2021-08-02 17:17:40.724483
0,0,-25,13,1,-2,-2,0,2021-08-02 17:17:40.756479
-1,-13,-39,-30,4,0,-2,2,2021-08-02 17:17:40.756479
-3,-1,43,13,3,1,1,-3,2021-08-02 17:17:40.757482
0,-3,-88,2,-6,-2,-5,-3,2021-08-02 17:17:40.757482
-2,9,2,-2,-3,-5,-2,2,2021-08-02 17:17:40.766007
-1,-13,-54,14,8,2,-1,3,2021-08-02 17:17:40.766007
4,9,25,-2,1,2,3,-1,2021-08-02 17:17:40.766007
-4,-32,-23,-14,-5,-2,-2,-4,2021-08-02 17:17:40.766007
0,2,-9,-8,-7,-3,-5,0,2021-08-02 17:17:40.779004
8,38,64,1,4,4,4,0,2021-08-02 17:17:40.779004
-11,-35,-73,3,4,0,0,-1,2021-08-02 17:17:40.785007
-2,-3,8,5,-5,-2,-1,-3,2021-08-02 17:17:40.785007
-1,-11,-23,-31,-5,-3,-5,1,2021-08-02 17:17:40.809006
-3,-12,-46,2,-5,0,0,1,2021-08-02 17:17:40.809006
2,14,63,5,5,1,2,0,2021-08-02 17:17:40.810006
-4,-1,15,4,-4,-3,-5,-3,2021-08-02 17:17:40.810006
1,-2,-40,0,-12,-6,-4,-2,2021-08-02 17:17:40.842005
0,8,17,13,12,3,4,0,2021-08-02 17:17:40.843006
2,2,16,-9,-3,1,2,0,2021-08-02 17:17:40.843006
-4,-4,-27,4,-1,-3,0,-2,2021-08-02 17:17:40.843006
-3,-9,4,-1,-7,-5,-7,-3,2021-08-02 17:17:40.843006
4,14,-2,-16,1,-1,3,1,2021-08-02 17:17:40.843006
2,2,-30,20,4,3,1,-2,2021-08-02 17:17:40.844005
1,3,99,3,1,3,2,2,2021-08-02 17:17:40.844005
-4,-8,-53,-10,-10,-6,-5,-2,2021-08-02 17:17:40.867006
-4,-4,-3,-18,-2,0,0,0,2021-08-02 17:17:40.867006
0,9,57,14,5,2,2,-1,2021-08-02 17:17:40.871004
1,12,-37,-10,-5,-4,-3,0,2021-08-02 17:17:40.871004
-2,-29,14,7,2,-1,-1,-1,2021-08-02 17:17:40.902006
2,8,52,21,-1,1,1,-1,2021-08-02 17:17:40.902006
0,9,-60,-12,4,4,3,1,2021-08-02 17:17:40.903007
-8,-17,-14,-4,-7,-6,-5,-6,2021-08-02 17:17:40.903007
-6,-5,-19,-22,-4,-6,-5,1,2021-08-02 17:17:40.904006
2,2,-7,12,6,3,2,2,2021-08-02 17:17:40.904006
1,7,10,3,-1,-1,1,-2,2021-08-02 17:17:40.905007
2,-2,-16,5,-1,-2,-3,-1,2021-08-02 17:17:40.905007
0,3,33,19,-1,-4,-2,-1,2021-08-02 17:17:40.938003
2,-5,-21,17,0,4,4,6,2021-08-02 17:17:40.938003
3,8,28,-63,-4,2,3,0,2021-08-02 17:17:40.938003
-5,-6,-26,6,-9,-5,-5,-3,2021-08-02 17:17:40.939007
-3,-7,-12,-6,-2,-2,-4,-3,2021-08-02 17:17:40.943008
2,10,14,23,1,1,0,-1,2021-08-02 17:17:40.943008
-4,-13,-24,-24,-3,0,0,-4,2021-08-02 17:17:40.945007
-3,-1,-4,34,-2,-3,-5,-3,2021-08-02 17:17:40.945007
16,7,-3,-60,-6,-2,-1,14,2021-08-02 17:17:40.975520
-15,-3,32,38,2,0,-4,-31,2021-08-02 17:17:40.975520
3,-6,-18,0,4,5,5,3,2021-08-02 17:17:40.975520
-1,-5,-31,-56,-6,-2,-3,16,2021-08-02 17:17:40.975520
-3,6,37,61,2,0,-5,-10,2021-08-02 17:17:40.978518
4,1,-20,0,1,0,13,31,2021-08-02 17:17:40.979521
-5,1,15,6,3,2,-13,-6,2021-08-02 17:17:40.986519
0,-4,-6,-34,-6,-3,-3,1,2021-08-02 17:17:40.986519
-4,-2,3,-2,-5,-5,-2,-3,2021-08-02 17:17:41.015556
4,12,-33,-8,8,4,1,0,2021-08-02 17:17:41.015556
-6,-13,-20,12,-5,0,7,4,2021-08-02 17:17:41.015556
-4,-9,37,4,1,0,-2,-1,2021-08-02 17:17:41.015556
-4,1,-23,-8,-2,-5,-9,-6,2021-08-02 17:17:41.016557
2,2,31,-15,1,0,5,0,2021-08-02 17:17:41.016557
6,7,11,50,4,4,3,3,2021-08-02 17:17:41.024556
-1,0,-48,-9,-2,-1,-3,-10,2021-08-02 17:17:41.026555
-6,-6,19,-18,-9,-8,-5,-5,2021-08-02 17:17:41.045553
0,6,23,10,1,-1,-2,0,2021-08-02 17:17:41.045553
5,3,-18,-9,4,3,5,-3,2021-08-02 17:17:41.050556
-5,-19,-19,-13,-8,-2,-5,-6,2021-08-02 17:17:41.051556
-6,-3,3,2,-7,-2,-1,0,2021-08-02 17:17:41.079554
-2,4,9,15,9,0,-2,-1,2021-08-02 17:17:41.079554
2,-1,11,6,3,1,3,1,2021-08-02 17:17:41.079554
-2,4,24,-4,0,-3,-1,0,2021-08-02 17:17:41.079554
2,0,7,3,0,-1,-1,-2,2021-08-02 17:17:41.079554
-6,-16,-26,-13,-8,-3,-3,-4,2021-08-02 17:17:41.080553
1,5,-22,33,5,1,1,-1,2021-08-02 17:17:41.084556
-1,0,16,-40,-6,-3,-4,-4,2021-08-02 17:17:41.084556
-1,-1,12,9,0,-2,-4,0,2021-08-02 17:17:41.102555
3,7,-11,-4,0,0,2,-2,2021-08-02 17:17:41.103555
-1,-8,-8,-22,0,1,3,1,2021-08-02 17:17:41.107555
2,10,16,37,-5,-4,-5,-1,2021-08-02 17:17:41.107555
-2,-21,-47,-30,-1,-2,-5,-2,2021-08-02 17:17:41.129556
-1,-10,54,31,8,2,2,-1,2021-08-02 17:17:41.129556
2,8,5,-1,4,5,5,3,2021-08-02 17:17:41.130558
-3,-2,-9,-8,-6,-3,-4,-4,2021-08-02 17:17:41.130558
-3,1,-2,-1,-5,-4,-3,-2,2021-08-02 17:17:41.136558
2,7,-13,-15,3,5,2,0,2021-08-02 17:17:41.136558
0,2,7,14,0,2,2,0,2021-08-02 17:17:41.150556
-5,-13,-68,-28,-8,-7,-4,1,2021-08-02 17:17:41.150556
-1,-1,5,4,-2,-4,-4,-3,2021-08-02 17:17:41.180557
0,3,-8,-18,-1,-2,0,-1,2021-08-02 17:17:41.180557
2,9,36,21,6,4,5,5,2021-08-02 17:17:41.180557
-3,-13,-31,-23,-7,-3,1,-1,2021-08-02 17:17:41.180557
-5,-7,-20,14,-5,-5,-6,-2,2021-08-02 17:17:41.184557
3,6,6,-9,2,3,3,1,2021-08-02 17:17:41.184557
5,5,36,-4,0,0,9,2,2021-08-02 17:17:41.184557
-15,2,43,23,0,-2,-14,-3,2021-08-02 17:17:41.185556
-4,-15,-34,-20,-7,-5,0,-7,2021-08-02 17:17:41.196556
12,2,36,7,1,0,-3,2,2021-08-02 17:17:41.196556
-22,-4,-15,-23,-1,0,8,-2,2021-08-02 17:17:41.207628
3,-1,12,22,-5,-3,-1,-3,2021-08-02 17:17:41.208137
-3,2,-6,-16,-2,-2,-2,10,2021-08-02 17:17:41.232149
0,5,-12,8,2,2,1,-11,2021-08-02 17:17:41.232149
7,2,-12,1,4,3,8,4,2021-08-02 17:17:41.233150
16,-2,6,-3,-6,-5,-4,-39,2021-08-02 17:17:41.233150
-6,1,25,1,-4,-3,13,9,2021-08-02 17:17:41.244148
18,2,16,14,5,0,-20,9,2021-08-02 17:17:41.244148
-20,-2,-26,-20,-2,-2,-4,-4,2021-08-02 17:17:41.250150
-5,-5,-14,0,-4,-1,0,4,2021-08-02 17:17:41.250150
1,-1,-14,4,-3,-7,-7,-4,2021-08-02 17:17:41.261147
7,-1,12,-19,2,2,14,4,2021-08-02 17:17:41.261147
8,0,-4,8,-1,0,-2,-7,2021-08-02 17:17:41.267151
-4,-2,47,10,-4,-3,-7,7,2021-08-02 17:17:41.268150
-5,-7,-21,-5,-4,-3,-10,-7,2021-08-02 17:17:41.284147
-8,7,-24,13,2,0,1,-7,2021-08-02 17:17:41.285148
5,6,17,14,6,6,9,6,2021-08-02 17:17:41.286151
-4,-13,-11,-2,-6,-6,-5,1,2021-08-02 17:17:41.286151
1,3,34,-14,-4,-2,-8,5,2021-08-02 17:17:41.315148
1,5,6,8,3,2,4,-8,2021-08-02 17:17:41.315148
1,1,-15,8,2,5,2,13,2021-08-02 17:17:41.315148
-1,-3,-6,-23,-3,-1,11,-2,2021-08-02 17:17:41.316148
1,0,-6,12,0,-2,-25,-7,2021-08-02 17:17:41.316148
-5,-5,-22,8,-2,-1,5,4,2021-08-02 17:17:41.316148
3,5,2,17,1,0,0,-1,2021-08-02 17:17:41.346149
-8,-15,4,-39,-8,-5,-8,1,2021-08-02 17:17:41.346149
-9,1,2,-8,-4,-4,-2,-14,2021-08-02 17:17:41.346149
15,-4,4,4,3,6,6,11,2021-08-02 17:17:41.346149
-4,1,-31,15,2,4,2,-25,2021-08-02 17:17:41.352151
9,6,21,10,-7,-6,-9,3,2021-08-02 17:17:41.352151
-1,-16,-7,-43,-1,-2,3,-3,2021-08-02 17:17:41.366150
-7,4,-10,7,1,3,3,-2,2021-08-02 17:17:41.366150
6,6,17,14,5,3,-1,-2,2021-08-02 17:17:41.371151
-6,-16,-12,-1,-4,-3,-7,1,2021-08-02 17:17:41.372150
-1,4,4,16,-1,-4,-1,-8,2021-08-02 17:17:41.387150
-3,6,19,-26,3,2,3,5,2021-08-02 17:17:41.387150
4,-11,-7,-5,0,-1,-2,10,2021-08-02 17:17:41.387150
-5,5,-6,10,-6,-6,-7,-2,2021-08-02 17:17:41.387150
2,-1,13,19,-1,0,-2,2,2021-08-02 17:17:41.400149
-3,7,-26,-16,6,4,8,2,2021-08-02 17:17:41.400149
1,2,33,-25,-3,1,1,-4,2021-08-02 17:17:41.407150
-3,-3,-22,8,-5,-5,-9,1,2021-08-02 17:17:41.407150
2,-6,-31,4,-1,-3,-1,-2,2021-08-02 17:17:41.435147
-2,18,29,11,6,5,5,-2,2021-08-02 17:17:41.436150
-2,-12,26,-9,-4,-1,-2,-1,2021-08-02 17:17:41.436150
-2,-8,-44,-24,-8,-7,-9,-3,2021-08-02 17:17:41.436150
-2,7,21,17,-3,-5,-3,4,2021-08-02 17:17:41.455147
2,21,56,22,6,2,6,2,2021-08-02 17:17:41.455147
4,-22,-73,-1,2,5,1,3,2021-08-02 17:17:41.456147
-5,-10,-8,-17,-9,-6,-4,-1,2021-08-02 17:17:41.456147
-1,2,-2,1,-1,-3,0,-4,2021-08-02 17:17:41.461152
2,1,-23,-17,2,2,5,4,2021-08-02 17:17:41.461152
-3,12,20,9,1,-1,1,-2,2021-08-02 17:17:41.469396
10,-6,28,11,-3,-4,-6,-1,2021-08-02 17:17:41.469396
-10,1,-54,-30,-1,-1,-2,-5,2021-08-02 17:17:41.480673
-1,-5,7,34,4,4,4,-2,2021-08-02 17:17:41.480673
-1,6,8,-7,2,0,-1,-1,2021-08-02 17:17:41.495672
-8,-7,-53,-15,-8,-6,-4,-2,2021-08-02 17:17:41.495672
2,4,39,12,-1,-1,-1,4,2021-08-02 17:17:41.518672
-1,-2,-24,3,2,3,0,-4,2021-08-02 17:17:41.519671
1,4,5,7,2,2,3,-1,2021-08-02 17:17:41.521670
-8,-8,28,-4,-8,-6,-7,-2,2021-08-02 17:17:41.521670
2,-3,-5,-3,-5,-5,-3,-1,2021-08-02 17:17:41.524673
-3,5,23,-4,5,4,5,0,2021-08-02 17:17:41.524673
1,3,-41,-7,-1,1,-1,1,2021-08-02 17:17:41.525673
-3,-8,-56,0,-2,-2,-3,3,2021-08-02 17:17:41.525673
-1,-1,44,-13,-4,-2,-2,-1,2021-08-02 17:17:41.541672
3,3,18,-16,1,1,3,-1,2021-08-02 17:17:41.542672
1,0,32,6,2,0,-1,2,2021-08-02 17:17:41.549672
-2,8,8,11,-5,-4,-4,-4,2021-08-02 17:17:41.549672
-2,-27,-49,-18,-4,-5,-3,3,2021-08-02 17:17:41.567671
0,6,42,19,5,3,3,-4,2021-08-02 17:17:41.567671
2,3,-16,-11,1,1,3,-2,2021-08-02 17:17:41.567671
-4,-8,-29,-8,-8,-4,-5,13,2021-08-02 17:17:41.567671
0,6,-14,19,1,-1,-1,-3,2021-08-02 17:17:41.601672
-1,-3,-38,-12,1,1,1,13,2021-08-02 17:17:41.601672
14,3,78,2,-1,0,0,-3,2021-08-02 17:17:41.602672
-13,-6,13,3,-5,-4,-6,-3,2021-08-02 17:17:41.602672
2,0,-46,-13,0,-2,-2,-2,2021-08-02 17:17:41.602672
0,-1,32,-3,1,4,1,-18,2021-08-02 17:17:41.602672
-1,2,-8,1,1,1,2,1,2021-08-02 17:17:41.608673
-3,-9,-10,1,-5,-6,-2,4,2021-08-02 17:17:41.608673
0,4,-18,9,1,-1,-1,0,2021-08-02 17:17:41.650669
-1,1,-11,-13,2,1,1,-2,2021-08-02 17:17:41.651671
1,-1,5,10,2,1,0,7,2021-08-02 17:17:41.651671
0,-7,12,-22,-5,-4,-6,-11,2021-08-02 17:17:41.651671
-2,8,26,9,-1,0,0,0,2021-08-02 17:17:41.651671
5,4,-20,-3,5,4,4,4,2021-08-02 17:17:41.652671
-8,-10,-68,3,-4,-3,-3,-5,2021-08-02 17:17:41.652671
-6,-6,21,-4,-8,-8,-5,-4,2021-08-02 17:17:41.652671
1,2,23,7,-1,-1,-3,-3,2021-08-02 17:17:41.673670
3,9,6,18,6,3,4,3,2021-08-02 17:17:41.673670
1,8,0,-17,4,2,2,0,2021-08-02 17:17:41.673670
-2,-2,28,0,-5,-4,-4,-7,2021-08-02 17:17:41.673670
-2,-9,-36,-8,-3,1,-2,1,2021-08-02 17:17:41.684675
-2,2,33,13,5,1,1,-2,2021-08-02 17:17:41.685671
-2,2,13,6,0,0,0,0,2021-08-02 17:17:41.685671
-4,-11,-74,-40,-10,-7,-9,-4,2021-08-02 17:17:41.685671
0,-2,59,20,-2,-3,0,0,2021-08-02 17:17:41.705672
2,1,-12,16,3,4,3,2,2021-08-02 17:17:41.705672
-2,-1,16,-6,-1,0,-1,-2,2021-08-02 17:17:41.705672
-2,-2,0,-4,-4,-2,-5,-4,2021-08-02 17:17:41.706672
-1,0,-6,-13,-3,-2,-3,1,2021-08-02 17:17:41.731673
1,-4,-34,0,4,4,3,-7,2021-08-02 17:17:41.731673
-1,6,65,3,1,1,-1,2,2021-08-02 17:17:41.732673
-3,-10,-62,-18,-4,-4,-5,-5,2021-08-02 17:17:41.732673
-4,4,32,15,0,-2,-2,3,2021-08-02 17:17:41.746670
-2,-4,33,8,0,-1,0,1,2021-08-02 17:17:41.746670
-1,-6,6,-3,-2,0,0,-2,2021-08-02 17:17:41.746670
-2,-4,-10,-25,-6,-5,-7,-3,2021-08-02 17:17:41.747670
-1,-2,19,18,1,0,-1,1,2021-08-02 17:17:41.772670
0,0,-19,-1,0,1,3,0,2021-08-02 17:17:41.772670
1,-1,-50,7,-2,2,0,-1,2021-08-02 17:17:41.772670
-1,-5,11,-2,-2,-3,-3,2,2021-08-02 17:17:41.772670
3,4,14,-10,-2,-2,0,-2,2021-08-02 17:17:41.782672
1,8,35,1,3,3,3,-1,2021-08-02 17:17:41.782672
-2,-1,-34,2,2,1,3,-3,2021-08-02 17:17:41.789672
-4,-7,9,-9,-6,-6,-6,-1,2021-08-02 17:17:41.789672
-1,3,4,6,-2,-3,-2,-3,2021-08-02 17:17:41.805671
0,0,-10,8,2,0,1,-1,2021-08-02 17:17:41.806671
2,2,-11,-20,1,1,0,2,2021-08-02 17:17:41.806671
-1,-2,32,28,-5,-3,-6,-2,2021-08-02 17:17:41.806671
2,2,-25,-18,0,1,-1,-2,2021-08-02 17:17:41.831672
1,5,-5,-3,4,3,5,2,2021-08-02 17:17:41.831672
-2,-5,1,-4,-2,-3,1,-2,2021-08-02 17:17:41.837672
-4,-10,40,12,-3,-6,-6,-1,2021-08-02 17:17:41.837672
-2,0,14,-6,-2,-2,-2,-3,2021-08-02 17:17:41.845672
1,3,1,5,4,4,4,4,2021-08-02 17:17:41.846672
2,6,3,-4,-1,2,1,-1,2021-08-02 17:17:41.849671
-4,-12,-58,-23,-7,-4,-5,-2,2021-08-02 17:17:41.850671
-2,2,30,1,-3,-2,-3,-1,2021-08-02 17:17:41.871669
2,3,5,3,4,3,5,-1,2021-08-02 17:17:41.872671
-3,-3,54,-1,-3,-3,-2,-1,2021-08-02 17:17:41.872671
-5,-5,-4,12,-6,-8,-7,-2,2021-08-02 17:17:41.872671
1,5,-17,6,4,0,1,-1,2021-08-02 17:17:41.880672
2,3,-34,-7,3,4,2,3,2021-08-02 17:17:41.880672
-2,-4,11,-9,0,2,2,0,2021-08-02 17:17:41.887672
2,2,-24,14,-4,-4,-4,-1,2021-08-02 17:17:41.887672
-1,2,6,-7,-1,-1,-1,-1,2021-08-02 17:17:41.901669
0,-1,-68,-15,1,2,1,2,2021-08-02 17:17:41.902673
-3,-3,21,11,-3,-1,-2,-2,2021-08-02 17:17:41.914669
-1,-5,-9,-24,-3,-5,-6,-2,2021-08-02 17:17:41.914669
1,5,4,24,4,2,1,1,2021-08-02 17:17:41.926671
1,2,8,-4,0,2,3,0,2021-08-02 17:17:41.926671
-1,-2,-3,6,1,0,0,-2,2021-08-02 17:17:41.926671
-2,-4,-18,-1,-7,-2,-3,-1,2021-08-02 17:17:41.926671
-1,-7,-13,5,-2,-4,-1,-1,2021-08-02 17:17:41.954671
1,3,26,-31,0,3,5,1,2021-08-02 17:17:41.955670
0,4,7,31,-4,-2,-2,1,2021-08-02 17:17:41.955670
-6,-9,4,-4,-6,-5,-5,-2,2021-08-02 17:17:41.955670
0,4,6,8,2,0,-1,4,2021-08-02 17:17:41.961673
0,-2,-22,8,3,3,1,5,2021-08-02 17:17:41.961673
1,6,-15,-18,2,2,1,1,2021-08-02 17:17:41.972671
-3,-11,21,-3,-6,-2,-2,-1,2021-08-02 17:17:41.972671
0,-3,4,-10,0,1,1,-1,2021-08-02 17:17:41.986673
3,11,18,16,2,1,2,-1,2021-08-02 17:17:41.986673
-5,-17,-75,-22,-6,-3,-3,-3,2021-08-02 17:17:41.987672
-2,1,-2,-8,-7,-5,-6,-1,2021-08-02 17:17:41.987672
-1,-5,-5,-10,0,0,0,-3,2021-08-02 17:17:42.004669
1,12,20,19,6,2,3,-3,2021-08-02 17:17:42.004669
-2,-6,-2,9,-3,-2,-3,-2,2021-08-02 17:17:42.009673
-1,-2,27,-5,-5,-6,-5,-2,2021-08-02 17:17:42.009673
1,3,-27,5,0,0,-1,-2,2021-08-02 17:17:42.020672
1,-6,12,-19,1,3,4,0,2021-08-02 17:17:42.021672
1,6,-14,4,2,-1,1,0,2021-08-02 17:17:42.029670
-4,-7,22,-10,-8,-6,-5,-3,2021-08-02 17:17:42.029670
4,3,19,-1,1,2,3,0,2021-08-02 17:17:42.052669
-1,6,2,28,4,2,4,-1,2021-08-02 17:17:42.052669
-5,-12,-28,-16,-4,-3,-2,-1,2021-08-02 17:17:42.053669
-1,4,5,0,-2,-4,-4,-1,2021-08-02 17:17:42.053669
-2,2,4,8,3,-2,0,-1,2021-08-02 17:17:42.064672
-2,-6,-2,-2,0,2,3,-2,2021-08-02 17:17:42.065673
2,10,12,3,3,2,0,2,2021-08-02 17:17:42.065673
-3,-10,-65,-1,-10,-8,-9,-4,2021-08-02 17:17:42.066673
-1,-1,34,7,0,0,0,2,2021-08-02 17:17:42.083257
1,6,-18,10,2,2,2,-1,2021-08-02 17:17:42.084259
0,-4,26,-10,0,0,-1,1,2021-08-02 17:17:42.109258
-1,-3,-23,-5,-2,-2,-5,1,2021-08-02 17:17:42.109258
0,6,12,-6,3,1,2,-1,2021-08-02 17:17:42.109258
0,-4,20,12,2,0,2,-2,2021-08-02 17:17:42.109258
-4,5,-6,-3,-4,-1,-2,-4,2021-08-02 17:17:42.109258
-1,-2,44,-9,-4,-3,-5,-2,2021-08-02 17:17:42.109258
-1,-4,-55,-8,-5,-1,1,-1,2021-08-02 17:17:42.122256
1,-2,7,-5,4,1,1,2,2021-08-02 17:17:42.122256
-1,-11,27,-1,-4,-2,-3,-1,2021-08-02 17:17:42.128257
-4,4,7,-1,-1,-3,-4,-2,2021-08-02 17:17:42.128257
-4,-14,-4,7,1,1,1,-1,2021-08-02 17:17:42.145256
2,8,0,-3,3,2,2,0,2021-08-02 17:17:42.146254
-3,-3,-6,4,-6,-3,-4,-3,2021-08-02 17:17:42.151254
-2,-6,-5,-10,-3,-4,-4,-3,2021-08-02 17:17:42.152258
0,3,14,-2,2,0,2,1,2021-08-02 17:17:42.165255
1,-1,25,6,1,4,3,1,2021-08-02 17:17:42.165255
-1,3,11,3,-5,-4,-1,-1,2021-08-02 17:17:42.166256
-6,-11,-22,-15,-7,-3,-5,-3,2021-08-02 17:17:42.166256
3,5,-2,-4,2,3,2,2,2021-08-02 17:17:42.187254
-1,2,-23,11,0,-1,0,-13,2021-08-02 17:17:42.187254
1,0,0,-10,0,-1,-2,2,2021-08-02 17:17:42.187254
-1,-2,-15,11,0,-2,-3,0,2021-08-02 17:17:42.187254
-1,6,25,5,1,0,0,-2,2021-08-02 17:17:42.201256
-1,-4,-26,-3,2,2,2,3,2021-08-02 17:17:42.201256
-2,-2,-12,-2,-2,-4,-4,-3,2021-08-02 17:17:42.222254
-4,-2,11,2,-4,-3,-5,-4,2021-08-02 17:17:42.223254
3,2,-13,-9,5,2,1,2,2021-08-02 17:17:42.223254
-1,3,21,24,0,2,2,1,2021-08-02 17:17:42.223254
-3,-8,2,-16,-3,-3,-2,-3,2021-08-02 17:17:42.234257
-2,-6,-36,-23,-6,-1,-1,4,2021-08-02 17:17:42.234257
0,7,61,24,0,0,0,-5,2021-08-02 17:17:42.242257
0,1,15,-9,1,2,12,5,2021-08-02 17:17:42.242257
-3,-6,0,-6,-5,-3,-21,-3,2021-08-02 17:17:42.246256
-1,0,15,-2,-3,-3,-3,2,2021-08-02 17:17:42.246256
-4,2,-18,3,0,0,1,7,2021-08-02 17:17:42.275256
17,2,23,7,2,3,4,-1,2021-08-02 17:17:42.276255
-10,-5,-17,3,-4,-2,4,3,2021-08-02 17:17:42.276255
-2,-7,4,-4,-5,-6,-7,7,2021-08-02 17:17:42.276255
3,2,-17,-12,1,3,6,-3,2021-08-02 17:17:42.285254
-6,3,27,9,3,3,2,2,2021-08-02 17:17:42.285254
6,-6,-33,-9,-5,-1,4,0,2021-08-02 17:17:42.291257
-4,-4,-44,-21,-4,-6,5,-19,2021-08-02 17:17:42.291257
6,4,15,-1,5,1,-16,0,2021-08-02 17:17:42.306258
3,0,-35,27,-1,0,0,-16,2021-08-02 17:17:42.306258
-9,-9,38,-13,-6,-4,-1,-4,2021-08-02 17:17:42.307255
-9,-4,29,0,-5,-4,-10,2,2021-08-02 17:17:42.307255
9,0,-48,-13,2,1,8,-2,2021-08-02 17:17:42.347256
4,7,-22,-3,5,3,4,3,2021-08-02 17:17:42.347256
3,-4,-16,0,-2,-3,-4,1,2021-08-02 17:17:42.347256
0,-3,6,16,-3,-3,-4,-5,2021-08-02 17:17:42.348256
-3,1,28,-4,0,-2,2,8,2021-08-02 17:17:42.348256
-5,2,-5,-6,1,0,-4,1,2021-08-02 17:17:42.348256
0,-2,-30,20,-2,-1,2,-1,2021-08-02 17:17:42.353257
-6,-7,-1,-47,-5,-4,-7,-4,2021-08-02 17:17:42.353257
0,0,2,17,3,2,4,7,2021-08-02 17:17:42.370255
-7,1,33,10,3,3,0,-4,2021-08-02 17:17:42.371254
-2,-2,-3,9,-4,-3,-2,7,2021-08-02 17:17:42.371254
2,2,1,20,-1,-5,-7,-15,2021-08-02 17:17:42.371254
10,4,23,7,1,2,5,-1,2021-08-02 17:17:42.381256
-12,-4,-104,-29,1,0,3,-2,2021-08-02 17:17:42.381256
15,1,39,-48,-2,0,0,7,2021-08-02 17:17:42.388257
-4,-2,-15,30,-7,-5,-3,-1,2021-08-02 17:17:42.388257
-3,-6,8,-12,3,2,3,7,2021-08-02 17:17:42.405256
5,5,18,13,3,4,1,10,2021-08-02 17:17:42.405256
-7,-4,39,14,-5,-4,-10,-17,2021-08-02 17:17:42.410256
1,-3,10,-12,-4,-4,2,11,2021-08-02 17:17:42.411257
-1,1,-38,-21,3,2,-2,-6,2021-08-02 17:17:42.427258
3,0,52,46,2,4,19,7,2021-08-02 17:17:42.427258
-6,-1,-91,-15,-7,-4,-27,-21,2021-08-02 17:17:42.427258
0,-8,60,-15,-4,-5,-6,54,2021-08-02 17:17:42.427258
-1,1,5,18,-1,-1,-7,-66,2021-08-02 17:17:42.441256
-11,3,8,-21,3,0,1,-1,2021-08-02 17:17:42.442257
12,-4,38,14,0,-1,4,-10,2021-08-02 17:17:42.460776
-24,-8,-40,9,-6,-4,0,1,2021-08-02 17:17:42.460776
1,5,-4,4,4,2,0,-3,2021-08-02 17:17:42.464770
1,3,16,3,3,2,6,3,2021-08-02 17:17:42.465772
-11,-9,1,-5,-7,-2,-8,-18,2021-08-02 17:17:42.471774
10,2,-19,-16,-2,-2,-4,-3,2021-08-02 17:17:42.472773
-3,7,28,9,2,-2,-3,15,2021-08-02 17:17:42.486772
1,-2,-4,-18,0,2,13,-9,2021-08-02 17:17:42.486772
-3,0,16,36,-1,-2,-20,6,2021-08-02 17:17:42.486772
1,-6,-66,-62,-5,-1,-2,-28,2021-08-02 17:17:42.487774
0,3,26,41,3,1,5,16,2021-08-02 17:17:42.499771
5,5,43,-20,-2,-1,-5,17,2021-08-02 17:17:42.500772
-5,-4,-18,-7,-2,-3,4,-27,2021-08-02 17:17:42.513773
0,-3,20,44,-1,-3,-4,-3,2021-08-02 17:17:42.513773
-1,4,-29,-24,-2,-1,2,2,2021-08-02 17:17:42.522773
4,-9,-2,14,1,1,-7,-31,2021-08-02 17:17:42.522773
-2,-2,-1,-3,-3,0,12,30,2021-08-02 17:17:42.530774
-5,-3,5,-15,-3,-7,-11,-8,2021-08-02 17:17:42.530774
7,9,23,8,6,3,6,13,2021-08-02 17:17:42.545773
8,5,3,7,-1,0,-9,5,2021-08-02 17:17:42.546773
-16,-5,3,0,-7,-2,8,3,2021-08-02 17:17:42.546773
-4,-2,21,-10,-5,-5,-6,-13,2021-08-02 17:17:42.546773
-1,-1,-14,5,4,1,-3,6,2021-08-02 17:17:42.560776
4,2,-11,0,3,4,7,9,2021-08-02 17:17:42.560776
2,-2,-13,-15,-5,-2,-5,1,2021-08-02 17:17:42.580772
-11,-5,-13,10,-5,-4,-6,0,2021-08-02 17:17:42.581772
-4,2,3,16,2,0,-1,1,2021-08-02 17:17:42.586773
-3,1,14,-11,3,4,5,-2,2021-08-02 17:17:42.586773
-2,-5,-9,-11,-7,-4,3,3,2021-08-02 17:17:42.592774
4,-2,23,7,0,0,-2,-36,2021-08-02 17:17:42.592774
0,-1,-28,-27,2,0,6,4,2021-08-02 17:17:42.607773
-1,1,-22,2,4,3,-1,-9,2021-08-02 17:17:42.607773
-8,-5,-7,-24,-5,-4,-4,8,2021-08-02 17:17:42.608771
13,-5,-19,13,-3,-3,-3,2,2021-08-02 17:17:42.608771
-23,-2,10,-12,-1,0,1,-6,2021-08-02 17:17:42.620773
2,8,9,22,3,2,9,3,2021-08-02 17:17:42.620773
-3,-6,-5,-6,-6,-7,-7,-1,2021-08-02 17:17:42.630771
-1,-5,11,7,-2,-3,-1,3,2021-08-02 17:17:42.631771
4,1,1,-8,2,2,3,2,2021-08-02 17:17:42.644773
-5,-2,-30,9,0,1,3,3,2021-08-02 17:17:42.645771
3,2,-29,-64,-5,-2,-20,5,2021-08-02 17:17:42.649770
0,-1,15,40,-4,-5,-6,1,2021-08-02 17:17:42.650774
6,2,-10,-1,4,2,6,-9,2021-08-02 17:17:42.671773
-1,5,22,10,4,4,0,8,2021-08-02 17:17:42.671773
-2,-8,-16,-8,-4,-3,3,-6,2021-08-02 17:17:42.671773
-5,-2,-34,1,-4,-4,-5,9,2021-08-02 17:17:42.671773
10,5,18,-8,1,1,-2,1,2021-08-02 17:17:42.681773
-2,1,31,14,5,3,3,6,2021-08-02 17:17:42.681773
7,-7,-50,31,-6,-6,-8,-19,2021-08-02 17:17:42.687773
-14,-3,-4,-68,-5,-4,4,-2,2021-08-02 17:17:42.687773
1,3,-7,11,4,3,7,6,2021-08-02 17:17:42.705773
9,-1,-52,-20,0,5,12,5,2021-08-02 17:17:42.705773
-2,-4,21,25,-3,-4,-10,-3,2021-08-02 17:17:42.711775
-4,-3,5,-11,-7,-5,-9,4,2021-08-02 17:17:42.711775
8,9,32,20,3,2,2,-4,2021-08-02 17:17:42.745772
3,-1,-3,9,4,0,0,-2,2021-08-02 17:17:42.745772
-14,-8,44,1,-5,-5,2,-4,2021-08-02 17:17:42.745772
-2,-6,-52,-18,-9,-8,-5,5,2021-08-02 17:17:42.745772
-3,4,24,4,5,3,6,-2,2021-08-02 17:17:42.746772
2,4,9,-7,5,2,-8,4,2021-08-02 17:17:42.746772
-1,-7,28,-5,-6,-3,3,21,2021-08-02 17:17:42.747770
4,4,24,13,1,-2,-8,-10,2021-08-02 17:17:42.747770
-1,-2,-23,-1,-1,0,17,17,2021-08-02 17:17:42.764772
1,3,23,32,1,-2,-4,-1,2021-08-02 17:17:42.764772
12,-3,5,-11,-3,-2,-2,30,2021-08-02 17:17:42.771772
-8,-4,-68,-40,-2,-1,-3,-7,2021-08-02 17:17:42.771772
2,2,24,50,6,5,9,-10,2021-08-02 17:17:42.800773
-3,1,29,-6,1,2,-5,24,2021-08-02 17:17:42.800773
1,-5,-29,-36,-5,-7,-2,-1,2021-08-02 17:17:42.801778
8,1,-10,24,2,-2,-5,-1,2021-08-02 17:17:42.801778
-10,1,-13,0,3,3,6,-2,2021-08-02 17:17:42.802772
2,-6,4,-12,-2,-2,11,-9,2021-08-02 17:17:42.802772
-6,-6,-19,-21,-7,-3,-15,-7,2021-08-02 17:17:42.811774
5,-2,9,1,-1,-2,0,2,2021-08-02 17:17:42.812771
-2,3,29,-9,1,2,-16,2,2021-08-02 17:17:42.824772
0,5,0,-19,-1,4,10,0,2021-08-02 17:17:42.824772
-12,-8,-12,23,-5,-2,-1,-42,2021-08-02 17:17:42.830771
-3,-2,28,-18,-5,-5,-7,-11,2021-08-02 17:17:42.830771
9,6,-6,6,6,4,1,1,2021-08-02 17:17:42.852771
-7,2,33,24,-1,1,-5,20,2021-08-02 17:17:42.852771
-1,-4,-13,-8,-6,-5,13,-38,2021-08-02 17:17:42.852771
-9,-3,21,2,-4,-3,-24,1,2021-08-02 17:17:42.852771
1,3,-25,1,4,0,1,-7,2021-08-02 17:17:42.863773
13,3,10,2,4,2,0,-20,2021-08-02 17:17:42.863773
-16,-4,29,7,-4,-4,-10,7,2021-08-02 17:17:42.869774
10,-6,9,0,-4,-3,1,3,2021-08-02 17:17:42.869774
4,6,33,32,2,3,9,9,2021-08-02 17:17:42.892770
-12,3,3,-64,-3,0,-11,-14,2021-08-02 17:17:42.892770
-3,-8,-13,13,-11,-8,-4,16,2021-08-02 17:17:42.892770
-3,-2,16,5,3,-3,1,0,2021-08-02 17:17:42.892770
6,1,-23,1,2,2,6,8,2021-08-02 17:17:42.912775
6,0,-20,20,4,1,9,0,2021-08-02 17:17:42.912775
-13,-5,-26,-27,-6,-4,-14,0,2021-08-02 17:17:42.913773
-4,-2,50,31,-1,-3,0,4,2021-08-02 17:17:42.913773
2,1,-66,-42,1,0,2,6,2021-08-02 17:17:42.920772
-8,1,-12,-4,0,-1,4,5,2021-08-02 17:17:42.920772
3,-6,-10,15,-4,-4,-2,-9,2021-08-02 17:17:42.930771
1,2,0,-10,-2,-1,8,5,2021-08-02 17:17:42.931328
-2,7,19,17,5,0,-1,-2,2021-08-02 17:17:42.951814
6,0,-9,-38,-2,2,-1,-2,2021-08-02 17:17:42.951814
-1,-6,-13,-2,-6,-6,-9,4,2021-08-02 17:17:42.951814
-15,-6,-10,-1,-3,-2,-1,-5,2021-08-02 17:17:42.951814
-4,3,13,33,2,2,5,-5,2021-08-02 17:17:42.971813
-6,-6,2,-12,0,-3,-5,-6,2021-08-02 17:17:42.971813
-3,-6,-27,-17,-7,-6,-6,6,2021-08-02 17:17:42.972813
-3,1,-19,-3,-3,-3,0,-5,2021-08-02 17:17:42.972813
0,6,37,2,5,5,-1,11,2021-08-02 17:17:42.982813
1,0,-60,23,2,3,1,-11,2021-08-02 17:17:42.983811
-1,-7,-30,-39,-11,-4,-4,-2,2021-08-02 17:17:42.991812
5,-2,-6,11,-2,-2,0,0,2021-08-02 17:17:42.991812
-3,-3,15,-2,1,1,-9,-8,2021-08-02 17:17:43.006811
5,4,24,19,5,3,1,3,2021-08-02 17:17:43.006811
-1,-8,-19,-8,-6,-3,3,-1,2021-08-02 17:17:43.011816
-4,6,35,5,-2,-3,-6,-4,2021-08-02 17:17:43.011816
5,-1,-3,6,5,1,3,1,2021-08-02 17:17:43.043813
-5,-2,-62,-3,-1,2,13,0,2021-08-02 17:17:43.043813
0,-3,-21,3,-6,-4,-19,-3,2021-08-02 17:17:43.044813
4,0,-3,-57,-6,-1,1,3,2021-08-02 17:17:43.044813
2,3,8,17,5,5,4,-1,2021-08-02 17:17:43.044813
0,5,55,30,6,3,1,0,2021-08-02 17:17:43.044813
-7,-4,-23,-11,-4,-6,-3,2,2021-08-02 17:17:43.049814
14,-4,-9,11,-2,-5,-4,-15,2021-08-02 17:17:43.049814
0,7,13,21,5,4,7,1,2021-08-02 17:17:43.063814
-5,-9,-25,-12,-6,-2,-6,-2,2021-08-02 17:17:43.064813
1,-1,1,-46,5,-1,0,1,2021-08-02 17:17:43.071812
-3,-8,4,13,-6,-3,-4,1,2021-08-02 17:17:43.072812
-1,-4,7,-25,2,2,2,-4,2021-08-02 17:17:43.101812
6,10,43,39,15,7,5,0,2021-08-02 17:17:43.101812
-1,-6,6,2,-10,-5,-6,1,2021-08-02 17:17:43.101812
-5,-2,-51,-19,2,0,1,4,2021-08-02 17:17:43.102813
1,9,4,-18,-6,-1,3,-2,2021-08-02 17:17:43.102813
1,3,35,33,-2,-1,-2,1,2021-08-02 17:17:43.102813
-2,-8,9,11,5,0,-2,-2,2021-08-02 17:17:43.109815
-5,-1,13,19,-8,-6,-6,-1,2021-08-02 17:17:43.109815
0,-3,-50,-14,4,2,4,-2,2021-08-02 17:17:43.127816
-1,4,20,-60,-8,-1,-1,-2,2021-08-02 17:17:43.127816
-5,-7,-13,12,-15,-8,-9,-2,2021-08-02 17:17:43.132814
2,1,10,50,14,1,3,3,2021-08-02 17:17:43.132814
4,11,-24,-12,2,2,3,2,2021-08-02 17:17:43.151811
-2,-17,-8,-4,-3,0,1,-1,2021-08-02 17:17:43.151811
-3,-12,13,-1,-13,-6,-5,-1,2021-08-02 17:17:43.154811
-2,1,-22,-30,0,0,-2,2,2021-08-02 17:17:43.154811
-1,1,-10,9,4,2,2,-2,2021-08-02 17:17:43.162813
1,7,-10,35,1,0,0,1,2021-08-02 17:17:43.162813
-3,-5,17,-56,1,-1,-5,-1,2021-08-02 17:17:43.169813
-1,-7,18,4,-3,-1,-2,1,2021-08-02 17:17:43.169813
1,13,16,3,3,2,3,1,2021-08-02 17:17:43.188813
-2,-2,-4,2,-4,1,1,-3,2021-08-02 17:17:43.188813
-1,-12,-6,20,-5,-5,-5,-2,2021-08-02 17:17:43.191812
-3,5,-1,-8,-2,-4,-3,-4,2021-08-02 17:17:43.191812
3,3,24,11,7,4,5,2,2021-08-02 17:17:43.208812
1,6,-16,1,5,3,1,2,2021-08-02 17:17:43.209815
-4,-4,-54,-21,-11,-6,-6,-3,2021-08-02 17:17:43.214812
-4,-2,39,15,0,0,-1,0,2021-08-02 17:17:43.214812
0,-5,11,11,-2,2,3,0,2021-08-02 17:17:43.225810
4,2,11,0,4,3,4,-1,2021-08-02 17:17:43.225810
-4,-4,21,5,-3,-7,-5,-3,2021-08-02 17:17:43.229810
-1,-3,-49,-14,-5,0,-1,0,2021-08-02 17:17:43.230813
-1,0,26,2,3,5,2,1,2021-08-02 17:17:43.244813
0,-6,-4,-12,1,1,-1,-3,2021-08-02 17:17:43.245811
-3,-6,2,9,-3,-3,-4,3,2021-08-02 17:17:43.251812
18,2,14,0,-3,-4,0,-4,2021-08-02 17:17:43.252061
-16,-2,-11,12,3,1,-13,-5,2021-08-02 17:17:43.281845
-3,2,17,0,8,2,5,7,2021-08-02 17:17:43.282845
4,-6,-8,-2,-10,-5,-9,19,2021-08-02 17:17:43.282845
3,-1,13,6,3,2,2,14,2021-08-02 17:17:43.282845
12,3,-22,-11,2,3,19,-25,2021-08-02 17:17:43.290847
-5,0,24,18,-4,-5,-5,10,2021-08-02 17:17:43.290847
9,2,25,-2,-2,-3,-8,-5,2021-08-02 17:17:43.290847
-29,-2,-48,0,-2,0,-6,-1,2021-08-02 17:17:43.290847
-1,-3,4,0,1,1,6,12,2021-08-02 17:17:43.314845
-5,4,4,11,0,2,4,-7,2021-08-02 17:17:43.314845
7,-3,14,-18,-4,-6,-6,27,2021-08-02 17:17:43.315845
-6,-5,30,29,0,-3,3,-6,2021-08-02 17:17:43.315845
0,6,8,11,6,4,4,0,2021-08-02 17:17:43.346845
4,-4,-38,-18,-1,2,-3,-3,2021-08-02 17:17:43.347845
5,1,24,-15,-6,-3,17,3,2021-08-02 17:17:43.347845
-21,-3,4,23,0,-3,-29,5,2021-08-02 17:17:43.347845
-5,3,3,-11,4,4,6,14,2021-08-02 17:17:43.347845
-20,-3,-10,-18,0,0,21,-4,2021-08-02 17:17:43.347845
-4,-18,-5,2,-9,-5,-39,-19,2021-08-02 17:17:43.348847
3,0,-2,8,0,0,12,12,2021-08-02 17:17:43.348847
6,4,16,-24,2,-1,3,26,2021-08-02 17:17:43.366844
4,2,-40,-25,-3,-1,-15,-4,2021-08-02 17:17:43.366844
-13,1,8,18,-3,-1,14,-19,2021-08-02 17:17:43.371846
2,-5,-23,-6,2,5,14,-19,2021-08-02 17:17:43.372847
6,6,-1,18,4,3,-26,1,2021-08-02 17:17:43.385847
6,-3,-31,18,1,0,-1,-7,2021-08-02 17:17:43.386845
-17,-11,-3,-68,-16,-12,-13,-6,2021-08-02 17:17:43.396962
24,8,12,8,3,1,22,38,2021-08-02 17:17:43.396962
-9,9,6,23,5,5,0,-18,2021-08-02 17:17:43.411965
1,-3,-36,-25,-4,-1,-8,9,2021-08-02 17:17:43.411965
-4,1,4,47,-2,-3,0,-20,2021-08-02 17:17:43.411965
-8,-7,-16,-47,-4,-5,-5,7,2021-08-02 17:17:43.411965
2,3,17,3,6,5,20,-5,2021-08-02 17:17:43.423962
4,-1,42,18,-2,1,-34,-8,2021-08-02 17:17:43.424963
-3,-3,-53,-13,-5,-3,7,-4,2021-08-02 17:17:43.445966
0,0,45,3,-3,-1,-6,-32,2021-08-02 17:17:43.446963
3,4,8,7,4,1,26,23,2021-08-02 17:17:43.446963
-5,-1,52,25,-1,-3,-29,-22,2021-08-02 17:17:43.447962
-4,-2,-23,26,-2,-3,9,9,2021-08-02 17:17:43.453966
7,1,8,-43,-2,-1,-5,-16,2021-08-02 17:17:43.453966
18,1,-1,32,6,1,3,-6,2021-08-02 17:17:43.467962
-14,-3,-11,-8,-2,3,22,31,2021-08-02 17:17:43.468962
-28,-6,1,10,-6,-3,-19,-21,2021-08-02 17:17:43.469962
6,11,22,39,6,3,17,6,2021-08-02 17:17:43.470963
6,-4,-56,-43,-7,-2,-9,-7,2021-08-02 17:17:43.483966
-4,-3,45,9,-2,-4,11,7,2021-08-02 17:17:43.483966
12,-4,7,-7,-2,-3,-16,1,2021-08-02 17:17:43.491962
-5,3,7,22,5,4,14,-4,2021-08-02 17:17:43.492966
1,4,36,-42,1,4,8,4,2021-08-02 17:17:43.505964
-1,2,23,12,-1,-1,6,-6,2021-08-02 17:17:43.505964
-6,-6,-45,-24,-8,-7,-3,4,2021-08-02 17:17:43.518963
9,2,13,1,1,-1,-14,-8,2021-08-02 17:17:43.518963
13,4,12,28,4,2,10,13,2021-08-02 17:17:43.530966
-3,-6,-35,9,-1,1,0,-8,2021-08-02 17:17:43.530966
-1,-6,48,-53,-8,-7,-1,1,2021-08-02 17:17:43.530966
-12,-7,-44,-11,3,0,-20,0,2021-08-02 17:17:43.531964
-3,0,-2,37,-3,0,-7,-23,2021-08-02 17:17:43.543966
7,5,38,-31,-5,-2,4,1,2021-08-02 17:17:43.543966
5,-7,-37,10,-4,-3,-3,4,2021-08-02 17:17:43.551962
-1,-5,-29,-24,3,1,7,-5,2021-08-02 17:17:43.551962
-7,-8,58,58,2,0,-1,4,2021-08-02 17:17:43.574963
5,1,-50,-48,1,-2,-5,-10,2021-08-02 17:17:43.576963
-3,-9,-31,15,-10,-7,-4,-9,2021-08-02 17:17:43.577965
6,11,-34,-54,-3,3,-1,11,2021-08-02 17:17:43.577965
-5,-2,20,22,3,0,1,-6,2021-08-02 17:17:43.589966
2,-5,-46,3,5,5,8,-4,2021-08-02 17:17:43.589966
1,6,23,34,-3,-2,-4,2,2021-08-02 17:17:43.592965
-6,-7,-32,32,-8,-11,-7,-5,2021-08-02 17:17:43.593968
0,1,28,-44,-2,2,1,-1,2021-08-02 17:17:43.612966
1,-1,-89,-10,-6,-2,2,0,2021-08-02 17:17:43.613969
-10,-8,-9,38,-9,-8,-11,-4,2021-08-02 17:17:43.613969
4,14,7,41,9,4,2,-1,2021-08-02 17:17:43.614965
2,-7,16,-82,5,5,9,0,2021-08-02 17:17:43.625965
-5,-19,4,5,-11,-5,-5,-1,2021-08-02 17:17:43.625965
1,4,0,-13,3,1,-4,1,2021-08-02 17:17:43.633965
0,-7,15,14,1,1,2,-2,2021-08-02 17:17:43.633965
0,11,48,58,6,3,2,0,2021-08-02 17:17:43.655962
-2,-4,-68,-32,-3,-1,1,-5,2021-08-02 17:17:43.655962
-2,-5,-29,-5,-6,-4,-5,-1,2021-08-02 17:17:43.655962
-1,9,50,7,-1,-1,1,-1,2021-08-02 17:17:43.656964
0,3,-17,-24,10,6,3,-1,2021-08-02 17:17:43.662966
0,-3,28,28,-2,-2,-2,-3,2021-08-02 17:17:43.662966
-10,-8,-44,-20,-4,-6,-2,22,2021-08-02 17:17:43.684965
24,9,8,-1,4,1,-2,-12,2021-08-02 17:17:43.684965
-2,2,-41,-6,1,4,4,3,2021-08-02 17:17:43.685964
9,11,60,-7,-6,-5,2,-5,2021-08-02 17:17:43.685964
-5,-3,15,-6,-1,-3,-8,9,2021-08-02 17:17:43.698966
-2,-6,-22,-10,1,2,6,-10,2021-08-02 17:17:43.698966
3,7,23,11,0,2,15,0,2021-08-02 17:17:43.716964
1,-7,-2,6,-2,-2,-24,1,2021-08-02 17:17:43.716964
-6,-3,3,-20,-4,-4,-5,-9,2021-08-02 17:17:43.717963
-6,0,43,9,2,0,-3,18,2021-08-02 17:17:43.717963
1,-3,-58,15,-1,-1,5,-28,2021-08-02 17:17:43.724965
-7,-1,0,-4,-2,-1,3,-1,2021-08-02 17:17:43.724965
-4,-6,57,-6,-7,-6,-11,-11,2021-08-02 17:17:43.731962
8,4,-5,-6,4,1,2,4,2021-08-02 17:17:43.731962
-6,2,2,12,3,3,-2,6,2021-08-02 17:17:43.756962
4,-3,-9,-15,-7,-4,-1,12,2021-08-02 17:17:43.757962
-3,-7,-46,-42,-1,0,-2,-12,2021-08-02 17:17:43.757962
-3,0,86,25,1,-1,7,-4,2021-08-02 17:17:43.757962
3,3,-52,34,7,1,-3,6,2021-08-02 17:17:43.774962
-10,-7,-2,-11,-6,-3,-5,-1,2021-08-02 17:17:43.774962
7,-3,56,-4,-4,-6,-1,-13,2021-08-02 17:17:43.774962
2,4,-58,-22,0,1,-1,2,2021-08-02 17:17:43.774962
-5,2,-6,1,3,5,6,17,2021-08-02 17:17:43.786962
-5,1,21,16,-5,-2,-2,-16,2021-08-02 17:17:43.787964
-4,-9,-35,0,-3,-3,-3,-7,2021-08-02 17:17:43.792963
-5,6,20,12,3,4,7,9,2021-08-02 17:17:43.792963
4,2,-1,-44,-3,2,-7,-17,2021-08-02 17:17:43.811966
1,-4,6,13,-1,-1,5,17,2021-08-02 17:17:43.812964
-5,-4,23,-13,-6,-6,-8,-38,2021-08-02 17:17:43.818965
-4,0,-48,20,-1,0,-5,17,2021-08-02 17:17:43.818965
2,4,14,9,2,1,5,7,2021-08-02 17:17:43.846964
-1,-4,1,-9,-1,1,-3,-2,2021-08-02 17:17:43.846964
-1,-4,20,37,1,-2,1,2,2021-08-02 17:17:43.846964
-5,-2,-15,-48,1,-2,1,-3,2021-08-02 17:17:43.847964
-2,3,-12,7,4,5,-13,-1,2021-08-02 17:17:43.847964
0,0,43,13,-4,-4,7,0,2021-08-02 17:17:43.847964
9,0,-15,5,-5,-4,-10,4,2021-08-02 17:17:43.851961
-10,5,9,16,2,-3,-4,-1,2021-08-02 17:17:43.851961
10,1,2,8,1,3,13,13,2021-08-02 17:17:43.867964
-9,-4,12,-2,-4,-3,-5,-13,2021-08-02 17:17:43.867964
6,0,-36,-12,-4,-1,-5,33,2021-08-02 17:17:43.873965
7,-1,35,0,8,4,9,-5,2021-08-02 17:17:43.873965
-6,-5,22,12,0,-1,2,1,2021-08-02 17:17:43.901965
-3,-5,-42,-61,-7,-6,-7,-1,2021-08-02 17:17:43.901965
-4,3,39,10,-5,-5,3,32,2021-08-02 17:17:43.902964
3,9,25,7,2,4,-5,-10,2021-08-02 17:17:43.902964
-6,-4,5,18,3,0,2,-10,2021-08-02 17:17:43.903962
1,-6,-63,-9,-3,-1,5,10,2021-08-02 17:17:43.903962
-1,-6,-10,-7,-4,-6,-8,-7,2021-08-02 17:17:43.914966
-13,2,-7,-11,3,1,-4,-7,2021-08-02 17:17:43.914966
7,7,33,25,8,4,3,3,2021-08-02 17:17:43.936964
-3,-2,3,-40,-15,-6,3,-8,2021-08-02 17:17:43.936964
10,-7,-43,-2,-3,-7,-6,-9,2021-08-02 17:17:43.937963
-1,3,11,28,4,3,-3,7,2021-08-02 17:17:43.937963
-6,6,-4,-16,0,0,9,-15,2021-08-02 17:17:43.950964
6,-4,12,19,-3,-1,-5,1,2021-08-02 17:17:43.950964
-3,-13,-32,-2,-6,-4,-4,-7,2021-08-02 17:17:43.950964
1,3,40,-19,-1,1,-2,15,2021-08-02 17:17:43.950964
-1,-7,-12,-13,-1,0,13,-9,2021-08-02 17:17:43.969962
-4,-11,-34,1,-2,-3,-23,12,2021-08-02 17:17:43.970962
-6,5,24,-2,-3,-4,-8,-25,2021-08-02 17:17:43.971965
6,5,1,46,3,3,12,0,2021-08-02 17:17:43.972964
-2,9,2,-61,0,3,2,11,2021-08-02 17:17:43.991962
-4,-9,25,24,-6,-7,11,-16,2021-08-02 17:17:43.992962
-15,-12,-48,-28,-7,-6,-14,-6,2021-08-02 17:17:43.993963
3,0,-21,14,4,1,6,-1,2021-08-02 17:17:43.993963
6,10,9,-8,1,2,-9,-3,2021-08-02 17:17:44.010964
-3,-3,9,-25,-4,-3,5,-1,2021-08-02 17:17:44.010964
4,-3,6,9,-1,-3,5,-1,2021-08-02 17:17:44.010964
-28,-1,9,3,0,-1,-3,5,2021-08-02 17:17:44.010964
3,3,-31,12,5,3,3,-3,2021-08-02 17:17:44.023965
-10,-7,35,9,-2,-3,-10,7,2021-08-02 17:17:44.023965
-4,1,-4,31,-2,-3,0,-30,2021-08-02 17:17:44.035964
11,7,10,-44,4,5,5,-3,2021-08-02 17:17:44.036962
-3,2,8,26,3,1,1,-4,2021-08-02 17:17:44.045968
-9,-13,47,9,-8,-7,-11,-1,2021-08-02 17:17:44.046965
-4,-5,-22,-7,-4,-6,-2,18,2021-08-02 17:17:44.057962
12,4,-17,13,5,1,4,-14,2021-08-02 17:17:44.057962
1,8,17,21,5,6,-1,5,2021-08-02 17:17:44.079962
0,-8,-45,-65,-4,-1,-3,-8,2021-08-02 17:17:44.079962
0,-2,12,-12,-1,-2,-6,17,2021-08-02 17:17:44.079962
6,4,34,33,1,2,10,-4,2021-08-02 17:17:44.079962
-15,-7,-11,9,2,2,9,4,2021-08-02 17:17:44.083964
-1,0,-19,32,-7,-5,-15,-3,2021-08-02 17:17:44.083964
-1,0,-14,-56,1,2,11,-2,2021-08-02 17:17:44.108962
-3,-1,-31,-19,3,1,-2,0,2021-08-02 17:17:44.108962
4,-2,36,-28,3,2,5,-3,2021-08-02 17:17:44.108962
-1,-5,-15,25,-5,-2,4,0,2021-08-02 17:17:44.108962
-8,-1,-4,1,-5,-4,-9,1,2021-08-02 17:17:44.113964
10,6,-29,6,6,5,7,-1,2021-08-02 17:17:44.113964
3,-1,19,21,-3,-1,-7,-1,2021-08-02 17:17:44.143965
1,-4,-28,-61,-6,-4,-8,-8,2021-08-02 17:17:44.143965
-30,-4,-31,0,-3,-5,-5,27,2021-08-02 17:17:44.143965
17,0,3,0,3,1,0,-20,2021-08-02 17:17:44.143965
12,4,20,25,2,0,4,21,2021-08-02 17:17:44.143965
-12,-4,-49,-5,-6,-3,-15,-37,2021-08-02 17:17:44.144964
3,-4,23,22,-6,-6,10,-17,2021-08-02 17:17:44.152964
9,17,20,-14,7,4,-21,27,2021-08-02 17:17:44.152964
-15,-15,-40,-7,-2,3,1,-2,2021-08-02 17:17:44.168964
-2,-15,41,22,-6,-6,0,1,2021-08-02 17:17:44.168964
3,5,-6,-27,-4,-2,-10,-6,2021-08-02 17:17:44.174966
-8,-5,-34,33,5,1,9,-18,2021-08-02 17:17:44.174966
12,10,35,-34,-2,2,0,0,2021-08-02 17:17:44.187962
-4,-4,25,-18,-4,-5,-9,11,2021-08-02 17:17:44.188962
-2,-9,0,13,-3,-4,-5,-9,2021-08-02 17:17:44.202962
-5,2,23,-3,5,5,9,5,2021-08-02 17:17:44.203962
2,4,-20,36,3,1,-2,3,2021-08-02 17:17:44.217962
-3,-3,10,27,-4,-1,9,-1,2021-08-02 17:17:44.217962
1,-5,-28,-62,-7,-6,-2,-1,2021-08-02 17:17:44.217962
1,5,-5,25,6,2,-22,-2,2021-08-02 17:17:44.217962
-2,-2,36,-13,-3,1,0,6,2021-08-02 17:17:44.226962
-1,-5,-24,11,-3,-3,-4,0,2021-08-02 17:17:44.226962
6,-3,18,-34,-3,-3,-9,15,2021-08-02 17:17:44.237962
-2,4,16,15,3,4,19,5,2021-08-02 17:17:44.237962
1,3,-14,7,2,2,6,0,2021-08-02 17:17:44.250962
-2,-4,-13,-12,-7,-4,-14,3,2021-08-02 17:17:44.250962
-4,-1,24,23,-2,-2,1,2,2021-08-02 17:17:44.257965
12,0,14,-4,4,1,10,-4,2021-08-02 17:17:44.257965
-2,-5,-81,-34,-5,-2,-4,-6,2021-08-02 17:17:44.289962
-5,-7,-5,-42,-7,-5,-2,1,2021-08-02 17:17:44.289962
0,-3,20,42,1,-1,-6,-6,2021-08-02 17:17:44.289962
2,6,35,-21,0,1,6,-1,2021-08-02 17:17:44.289962
-4,-3,12,10,1,0,-4,-8,2021-08-02 17:17:44.290962
-4,-7,-18,19,-3,-3,-4,4,2021-08-02 17:17:44.290962
-3,0,-7,2,-1,0,-4,5,2021-08-02 17:17:44.294965
3,8,-25,-10,4,3,2,16,2021-08-02 17:17:44.294965
-3,-1,13,-14,0,0,13,-26,2021-08-02 17:17:44.320964
-5,-5,-9,6,-9,-6,-19,-4,2021-08-02 17:17:44.320964
5,1,0,10,0,0,2,1,2021-08-02 17:17:44.320964
0,5,35,11,3,3,0,16,2021-08-02 17:17:44.320964
4,6,-42,-8,1,1,2,2,2021-08-02 17:17:44.338962
-6,-13,21,6,-7,-6,-5,-6,2021-08-02 17:17:44.339964
1,4,12,-7,-2,-4,-4,-14,2021-08-02 17:17:44.339964
10,-4,-24,-21,-2,1,9,2,2021-08-02 17:17:44.339964
-26,-3,21,7,4,3,-6,-3,2021-08-02 17:17:44.345965
2,-1,-99,-21,-5,-4,-6,1,2021-08-02 17:17:44.345965
-8,-5,64,12,-6,-3,8,-5,2021-08-02 17:17:44.358964
-3,2,-5,3,2,1,5,-10,2021-08-02 17:17:44.358964
4,8,16,1,4,3,1,8,2021-08-02 17:17:44.370965
5,-7,15,-3,-6,-6,-6,-2,2021-08-02 17:17:44.371964
-3,4,-29,-10,-2,-1,-4,-4,2021-08-02 17:17:44.376964
-4,3,-1,11,2,0,-5,-2,2021-08-02 17:17:44.377964
0,-1,-33,-16,4,3,5,-2,2021-08-02 17:17:44.400962
-6,-2,17,8,-1,-2,3,0,2021-08-02 17:17:44.401962
4,-5,-23,15,-3,-1,7,1,2021-08-02 17:17:44.401962
-7,2,2,-2,2,3,-2,-12,2021-08-02 17:17:44.401962
6,1,29,21,-1,-3,-3,6,2021-08-02 17:17:44.406964
-1,-9,-16,-36,-8,-7,-9,-3,2021-08-02 17:17:44.406964
-1,-2,-21,14,1,-1,5,-2,2021-08-02 17:17:44.415962
3,8,2,17,8,7,11,1,2021-08-02 17:17:44.415962
4,-3,57,28,1,3,2,2,2021-08-02 17:17:44.437962
-5,-13,-76,-25,-7,-6,-6,-5,2021-08-02 17:17:44.438964
-1,-1,20,-3,-6,-6,-10,-5,2021-08-02 17:17:44.438964
0,11,25,4,6,3,8,2,2021-08-02 17:17:44.438964
3,-2,-37,26,0,1,-1,-3,2021-08-02 17:17:44.465962
-4,-4,-7,-39,-9,-4,-1,-1,2021-08-02 17:17:44.465962
-1,-5,-13,-5,-5,-6,-12,-3,2021-08-02 17:17:44.466963
2,1,-21,5,6,5,6,-1,2021-08-02 17:17:44.466963
3,3,53,19,7,4,6,2,2021-08-02 17:17:44.466963
-2,-5,30,13,-8,-4,-4,-2,2021-08-02 17:17:44.466963
-1,-5,-23,-43,-6,-3,-7,-3,2021-08-02 17:17:44.474962
-1,5,19,-8,1,3,5,1,2021-08-02 17:17:44.474962
2,6,8,24,8,2,1,0,2021-08-02 17:17:44.496964
-6,-6,25,40,-11,-7,-5,-2,2021-08-02 17:17:44.497962
2,1,30,-27,2,2,-3,0,2021-08-02 17:17:44.497962
-1,-1,-25,-13,-5,-1,16,-1,2021-08-02 17:17:44.497962
3,1,-21,-15,-1,2,-24,0,2021-08-02 17:17:44.521962
-2,-6,20,11,-5,-4,-5,-2,2021-08-02 17:17:44.521962
2,6,10,17,-2,0,0,7,2021-08-02 17:17:44.521962
-2,-13,-16,0,7,3,-1,-4,2021-08-02 17:17:44.521962
2,6,9,-6,-1,1,12,2,2021-08-02 17:17:44.524966
-1,0,12,-19,-10,-7,-17,3,2021-08-02 17:17:44.525964
-5,-2,-23,10,1,-1,-3,-8,2021-08-02 17:17:44.546962
15,6,20,10,5,4,5,3,2021-08-02 17:17:44.547962
-8,-4,-17,-17,-2,1,6,7,2021-08-02 17:17:44.547962
10,-3,-16,-14,-2,-3,-6,-33,2021-08-02 17:17:44.547962
8,6,69,11,-2,-5,-6,-6,2021-08-02 17:17:44.559963
3,5,-51,17,7,5,5,6,2021-08-02 17:17:44.559963
0,-12,-37,-39,-8,0,4,3,2021-08-02 17:17:44.581962
-9,-2,2,25,-3,-4,-1,6,2021-08-02 17:17:44.581962
0,-7,-21,-25,1,-1,-4,-1,2021-08-02 17:17:44.582963
1,9,-18,27,3,4,3,-4,2021-08-02 17:17:44.582963
2,6,38,2,-1,-1,-2,-1,2021-08-02 17:17:44.586965
-6,-18,-7,-36,-12,-6,-4,4,2021-08-02 17:17:44.586965
-3,-2,-3,40,0,-3,-3,-3,2021-08-02 17:17:44.596962
-4,2,35,-25,4,2,-1,5,2021-08-02 17:17:44.596962
3,8,0,32,2,3,8,-2,2021-08-02 17:17:44.607962
-2,-7,-67,-62,-6,-6,-4,-1,2021-08-02 17:17:44.608962
-4,-4,21,29,11,0,-2,2,2021-08-02 17:17:44.617964
-4,1,39,33,-2,-1,3,-1,2021-08-02 17:17:44.618963
5,0,-62,10,0,4,1,-3,2021-08-02 17:17:44.652962
-5,-3,8,-16,-8,-5,-2,-1,2021-08-02 17:17:44.652962
-3,-7,-38,-7,-2,-2,-1,0,2021-08-02 17:17:44.653962
4,5,-6,-17,6,3,5,0,2021-08-02 17:17:44.653962
0,-1,72,47,-4,-3,-1,-4,2021-08-02 17:17:44.653962
-7,-4,27,-42,-5,-6,-6,3,2021-08-02 17:17:44.653962
-3,0,-34,-51,-9,-1,0,-2,2021-08-02 17:17:44.654965
0,0,38,24,1,0,2,0,2021-08-02 17:17:44.654965
-1,-11,-34,13,7,1,3,-1,2021-08-02 17:17:44.668962
-3,-7,14,-5,-4,-5,-5,-1,2021-08-02 17:17:44.668962
-1,0,-8,-4,1,0,0,-1,2021-08-02 17:17:44.683964
0,5,15,-2,0,2,17,0,2021-08-02 17:17:44.683964
-1,1,-3,5,1,1,-23,-2,2021-08-02 17:17:44.693964
-2,-4,-11,13,4,-2,-1,0,2021-08-02 17:17:44.693964
-2,-2,-2,-7,-7,-4,0,-3,2021-08-02 17:17:44.693964
-3,-1,-1,6,2,0,-10,-1,2021-08-02 17:17:44.693964
2,8,47,-2,0,2,20,-2,2021-08-02 17:17:44.706962
-6,-7,-63,-20,-17,-9,-10,-2,2021-08-02 17:17:44.706962
0,-1,-3,12,11,4,0,3,2021-08-02 17:17:44.717964
-3,-1,-20,-24,-6,2,-3,-2,2021-08-02 17:17:44.718964
-1,-1,15,16,3,-2,3,-2,2021-08-02 17:17:44.729962
-2,-6,3,-5,-5,-3,-6,-1,2021-08-02 17:17:44.729962
-1,0,12,34,-7,-4,4,2,2021-08-02 17:17:44.740962
2,4,1,-8,13,5,3,0,2021-08-02 17:17:44.740962
-2,-6,-16,-27,-5,-1,0,0,2021-08-02 17:17:44.760962
-3,-4,7,20,-7,-5,2,1,2021-08-02 17:17:44.760962
0,7,8,8,2,1,-8,6,2021-08-02 17:17:44.760962
3,2,-36,18,4,4,22,-16,2021-08-02 17:17:44.760962
-12,-7,3,-26,-8,-1,-23,6,2021-08-02 17:17:44.765965
4,4,29,8,-2,-6,-17,-15,2021-08-02 17:17:44.765965
3,-2,20,-3,-1,1,4,15,2021-08-02 17:17:44.779965
8,-2,-23,4,5,3,4,-5,2021-08-02 17:17:44.779965
2,1,-8,-2,2,3,12,8,2021-08-02 17:17:44.798964
-9,-8,9,0,-7,-8,-12,-1,2021-08-02 17:17:44.798964
4,5,6,-8,3,3,6,1,2021-08-02 17:17:44.798964
-2,5,8,14,2,3,-1,6,2021-08-02 17:17:44.799962
1,-5,-49,-17,-1,0,3,-9,2021-08-02 17:17:44.831962
0,-8,4,7,-1,-3,-3,3,2021-08-02 17:17:44.831962
-3,2,-2,-6,-1,-3,31,-4,2021-08-02 17:17:44.832962
3,1,6,0,3,2,-46,11,2021-08-02 17:17:44.832962
0,0,24,0,-1,2,8,-13,2021-08-02 17:17:44.833963
-3,-1,-15,7,-6,-1,-3,1,2021-08-02 17:17:44.833963
-5,-3,-30,-19,-2,-3,-1,-6,2021-08-02 17:17:44.834962
-1,8,34,19,4,5,14,3,2021-08-02 17:17:44.834962
-1,-4,-10,6,-3,-5,-4,1,2021-08-02 17:17:44.857962
-1,-5,10,2,-4,-3,-5,6,2021-08-02 17:17:44.857962
-1,-2,20,-6,0,-2,-10,-12,2021-08-02 17:17:44.857962
-2,5,8,-4,2,3,9,2,2021-08-02 17:17:44.858962
10,-2,-12,-5,1,-1,-6,0,2021-08-02 17:17:44.877962
-13,-11,-26,-14,-6,-5,5,0,2021-08-02 17:17:44.877962
1,0,4,5,2,1,-8,-4,2021-08-02 17:17:44.877962
-5,9,23,-2,2,0,4,1,2021-08-02 17:17:44.877962
8,-1,20,1,-1,-2,7,-1,2021-08-02 17:17:44.886965
-6,-12,-52,-28,-7,-5,-7,-6,2021-08-02 17:17:44.886965
-1,9,-11,1,3,-2,-8,11,2021-08-02 17:17:44.894966
-1,-5,30,3,3,2,8,-34,2021-08-02 17:17:44.894966
-7,1,-26,4,-5,-2,-3,-1,2021-08-02 17:17:44.908066
1,-7,6,8,-7,-4,-4,2,2021-08-02 17:17:44.908066
1,2,-13,-44,-1,-1,-4,-13,2021-08-02 17:17:44.918066
4,5,23,15,-2,2,9,35,2021-08-02 17:17:44.918066
-3,4,-9,30,-4,-3,-5,-19,2021-08-02 17:17:44.931066
3,-2,-11,-33,-2,-1,0,0,2021-08-02 17:17:44.931066
-3,0,15,43,-2,0,1,-3,2021-08-02 17:17:44.937066
0,1,1,-29,6,5,4,-5,2021-08-02 17:17:44.938069
-3,0,33,24,-3,-2,-2,1,2021-08-02 17:17:44.948069
-6,-1,7,63,13,-2,-4,3,2021-08-02 17:17:44.948069
1,-4,-37,-16,-4,0,-3,11,2021-08-02 17:17:44.954066
1,-12,5,-77,-8,-4,-1,-16,2021-08-02 17:17:44.955068
-12,-10,-25,-7,5,4,1,36,2021-08-02 17:17:44.970066
7,6,35,15,-8,-7,-8,4,2021-08-02 17:17:44.971066
-7,-3,-12,14,1,0,-1,-6,2021-08-02 17:17:44.976068
18,7,-38,58,6,6,5,16,2021-08-02 17:17:44.977068
-27,5,19,-86,-3,-1,0,-27,2021-08-02 17:17:44.991067
-6,-17,48,35,-4,-3,-3,25,2021-08-02 17:17:44.991067
11,5,-38,10,5,1,-4,-15,2021-08-02 17:17:44.993068
-7,-2,67,-77,-4,-1,4,-21,2021-08-02 17:17:44.994067
12,1,-65,1,-2,-1,-3,56,2021-08-02 17:17:45.005066
-12,-2,-28,-28,-9,-8,-8,-41,2021-08-02 17:17:45.005066
-1,12,45,25,1,-1,0,3,2021-08-02 17:17:45.014068
0,2,-32,39,9,7,8,2,2021-08-02 17:17:45.014068
16,15,6,6,5,3,5,12,2021-08-02 17:17:45.027065
-36,-22,17,-28,-14,-10,-9,-46,2021-08-02 17:17:45.028065
-4,-2,44,-5,-5,-2,-2,2,2021-08-02 17:17:45.037066
2,2,-21,-2,1,0,3,21,2021-08-02 17:17:45.037066
-9,12,23,-8,-4,0,0,-35,2021-08-02 17:17:45.051065
11,-7,-36,-15,-5,-4,-7,17,2021-08-02 17:17:45.051065
-5,0,58,29,5,0,-2,-2,2021-08-02 17:17:45.057066
4,10,20,14,12,11,5,14,2021-08-02 17:17:45.059066
1,-15,-78,-32,-8,0,1,-20,2021-08-02 17:17:45.065066
7,7,7,-4,-9,-8,-5,2,2021-08-02 17:17:45.065066
-17,-25,-67,-13,0,-2,1,-21,2021-08-02 17:17:45.077069
19,13,72,19,2,0,-2,11,2021-08-02 17:17:45.077069
-21,0,-27,41,0,0,-2,-16,2021-08-02 17:17:45.087067
23,0,-50,-42,-7,-3,-2,11,2021-08-02 17:17:45.088068
8,-13,-29,-33,-6,-5,-2,-4,2021-08-02 17:17:45.097067
6,28,10,17,8,3,11,6,2021-08-02 17:17:45.098067
-10,-36,-31,2,-2,3,1,-8,2021-08-02 17:17:45.111066
5,44,15,31,-5,-5,7,14,2021-08-02 17:17:45.111066
-2,-49,38,-20,-5,-3,-19,-12,2021-08-02 17:17:45.118069
-10,14,40,30,6,3,0,-30,2021-08-02 17:17:45.119068
30,9,-67,-8,-5,-3,-2,5,2021-08-02 17:17:45.134616
-11,-9,74,26,-8,-6,-4,-14,2021-08-02 17:17:45.134616
19,41,-80,-18,4,3,9,49,2021-08-02 17:17:45.135584
-13,-49,-20,17,3,4,3,-13,2021-08-02 17:17:45.136581
-4,7,127,25,1,-2,-1,-10,2021-08-02 17:17:45.147099
-23,-14,-29,-45,-20,-9,-13,1,2021-08-02 17:17:45.147099
11,22,25,46,5,2,4,6,2021-08-02 17:17:45.156096
-14,-1,-16,-9,1,-1,-3,-16,2021-08-02 17:17:45.157096
8,22,-43,18,2,1,2,36,2021-08-02 17:17:45.172099
-2,-10,-86,-27,-1,-4,-6,-8,2021-08-02 17:17:45.172099
-13,10,42,15,8,4,5,2,2021-08-02 17:17:45.178099
1,-7,-122,-23,-1,2,5,10,2021-08-02 17:17:45.178099
-6,-6,55,-7,-4,0,-1,-10,2021-08-02 17:17:45.194100
9,3,27,19,2,-2,-7,-2,2021-08-02 17:17:45.194100
-11,-19,-41,-19,-7,-5,-6,7,2021-08-02 17:17:45.195099
0,8,33,23,6,0,-4,5,2021-08-02 17:17:45.196098
12,2,14,7,10,7,-3,-1,2021-08-02 17:17:45.220097
0,-1,26,-17,-2,4,-3,0,2021-08-02 17:17:45.220097
-10,7,27,-21,-10,-10,-7,-3,2021-08-02 17:17:45.220097
6,-35,49,33,2,1,7,0,2021-08-02 17:17:45.221097
-1,-5,-25,-65,-5,-2,2,14,2021-08-02 17:17:45.231097
15,-31,-6,28,0,-3,-6,-8,2021-08-02 17:17:45.231097
-4,14,79,16,2,-2,-3,-13,2021-08-02 17:17:45.238098
-8,4,-127,4,-10,-5,-5,2,2021-08-02 17:17:45.238098
8,5,62,-8,3,-1,4,13,2021-08-02 17:17:45.254097
-12,-22,-3,0,-1,0,-1,-13,2021-08-02 17:17:45.254097
-7,-8,19,-5,-4,-2,3,1,2021-08-02 17:17:45.255097
5,17,36,31,2,2,2,2,2021-08-02 17:17:45.256097
-3,-11,-24,-14,0,-1,0,-6,2021-08-02 17:17:45.267098
9,9,-33,-12,-7,-5,-4,0,2021-08-02 17:17:45.268098
16,-7,6,15,6,5,4,8,2021-08-02 17:17:45.277097
-21,16,34,9,1,2,3,-2,2021-08-02 17:17:45.277097
-26,-30,-118,-56,-21,-13,-13,-17,2021-08-02 17:17:45.291098
-3,15,-1,6,0,-4,-5,1,2021-08-02 17:17:45.291098
9,15,35,36,13,9,13,-4,2021-08-02 17:17:45.298100
-1,-1,-4,-11,2,5,5,6,2021-08-02 17:17:45.298100
-6,-10,80,3,-10,-10,-10,-9,2021-08-02 17:17:45.314099
-12,14,-35,-4,-2,-2,-3,-3,2021-08-02 17:17:45.314099
6,16,43,18,11,10,12,2,2021-08-02 17:17:45.316098
3,3,-44,-25,-2,1,0,2,2021-08-02 17:17:45.316098
-1,-12,6,22,-12,-13,-13,-5,2021-08-02 17:17:45.327099
-12,10,3,-23,-3,-4,-1,4,2021-08-02 17:17:45.328097
11,-5,33,44,17,10,9,-2,2021-08-02 17:17:45.337099
8,5,6,-40,-6,1,1,2,2021-08-02 17:17:45.337099
2,-6,46,6,-6,-7,-10,-7,2021-08-02 17:17:45.350134
-12,1,10,13,4,-1,-1,5,2021-08-02 17:17:45.351138
2,-3,-69,-5,8,8,7,-3,2021-08-02 17:17:45.357135
7,6,15,-2,0,-2,0,-1,2021-08-02 17:17:45.358135
-14,-27,-24,-4,-19,-13,-12,-3,2021-08-02 17:17:45.374140
8,-1,31,-8,2,0,1,4,2021-08-02 17:17:45.374140
6,35,-46,9,9,11,13,3,2021-08-02 17:17:45.375138
-8,-22,-32,-8,1,0,-1,-1,2021-08-02 17:17:45.375138
1,7,-11,-23,-16,-11,-13,-6,2021-08-02 17:17:45.388135
14,-9,10,19,0,-4,-2,6,2021-08-02 17:17:45.388135
-1,22,33,5,9,5,7,7,2021-08-02 17:17:45.396135
8,7,-5,10,0,2,2,7,2021-08-02 17:17:45.397137
-4,-14,-22,-10,-11,-9,-10,-8,2021-08-02 17:17:45.411134
-11,-2,8,-2,1,1,0,3,2021-08-02 17:17:45.411134
7,5,-36,-12,6,5,6,0,2021-08-02 17:17:45.417136
-1,3,36,11,2,-1,0,-3,2021-08-02 17:17:45.418135
-7,-16,-1,-3,-11,-8,-8,2,2021-08-02 17:17:45.434135
-8,-9,-25,-22,3,-1,-3,-5,2021-08-02 17:17:45.434135
6,39,-9,23,5,3,5,-2,2021-08-02 17:17:45.435138
-14,-55,38,-27,-6,-3,-3,-6,2021-08-02 17:17:45.436138
-7,1,-59,0,-8,-5,-6,-5,2021-08-02 17:17:45.447135
3,0,3,11,-8,-5,-5,0,2021-08-02 17:17:45.448135
1,3,54,-25,7,5,5,-1,2021-08-02 17:17:45.464135
9,13,-18,5,1,2,2,3,2021-08-02 17:17:45.464135
-2,-9,19,7,-6,-4,-3,-2,2021-08-02 17:17:45.471137
-5,-8,-6,-9,-1,-4,-4,-2,2021-08-02 17:17:45.471137
0,-7,-71,-7,0,2,0,2,2021-08-02 17:17:45.477138
1,26,74,26,0,2,4,-1,2021-08-02 17:17:45.477138
-1,-17,-10,-33,-1,-1,-3,-2,2021-08-02 17:17:45.494136
-1,4,52,11,-4,-4,-4,-1,2021-08-02 17:17:45.494136
0,5,-26,22,2,0,1,-1,2021-08-02 17:17:45.495136
7,-8,-7,6,1,3,3,-1,2021-08-02 17:17:45.496138
-4,-8,46,-6,5,5,1,-2,2021-08-02 17:17:45.507138
-1,6,67,6,-8,-8,-9,-2,2021-08-02 17:17:45.508137
0,-6,88,25,2,-2,-1,0,2021-08-02 17:17:45.516135
14,12,32,10,6,6,4,0,2021-08-02 17:17:45.517135
-5,8,-68,9,-10,-5,-4,-2,2021-08-02 17:17:45.531136
-7,-15,-59,-29,-7,-5,-5,1,2021-08-02 17:17:45.531136
2,-1,-28,-3,2,0,1,-2,2021-08-02 17:17:45.538139
-6,23,-30,18,12,7,8,2,2021-08-02 17:17:45.538139
1,-21,-19,-41,-3,2,1,0,2021-08-02 17:17:45.554170
-8,-39,-66,2,-9,-6,-7,-4,2021-08-02 17:17:45.555170
-3,18,-16,-9,-6,-5,-5,-1,2021-08-02 17:17:45.555170
-2,9,8,12,3,1,1,-1,2021-08-02 17:17:45.556170
-2,-6,51,-6,-3,-5,-4,-2,2021-08-02 17:17:45.567170
-2,-9,-68,-6,-2,-4,-2,-1,2021-08-02 17:17:45.568170
3,12,124,6,-2,1,1,1,2021-08-02 17:17:45.580171
-6,-24,36,-12,3,3,3,-1,2021-08-02 17:17:45.580171
1,15,-68,16,-3,-3,-5,-3,2021-08-02 17:17:45.590170
5,11,27,-34,-7,-6,-7,-2,2021-08-02 17:17:45.592172
-8,-46,-32,22,-1,0,0,-4,2021-08-02 17:17:45.597170
4,33,-37,1,8,5,5,3,2021-08-02 17:17:45.598170
0,0,71,3,1,2,-2,-2,2021-08-02 17:17:45.614172
-3,-7,-55,35,-3,0,0,2,2021-08-02 17:17:45.614172
-3,53,82,-44,-9,-7,-5,-5,2021-08-02 17:17:45.615172
4,-7,-70,10,2,2,4,2,2021-08-02 17:17:45.615172
-3,6,71,-25,-10,-6,-3,-3,2021-08-02 17:17:45.628172
5,29,-39,-21,1,-1,-3,0,2021-08-02 17:17:45.628172
14,30,98,44,-2,-5,-3,-8,2021-08-02 17:17:45.636171
-24,-8,21,8,9,9,7,19,2021-08-02 17:17:45.636171
5,-30,72,-19,-2,-3,-3,-21,2021-08-02 17:17:45.650170
-12,-42,-1,-46,-15,-6,-8,3,2021-08-02 17:17:45.651171
6,0,49,33,0,0,-3,1,2021-08-02 17:17:45.657172
19,-9,2,36,11,7,13,0,2021-08-02 17:17:45.658170
-17,-34,-122,-20,2,7,1,1,2021-08-02 17:17:45.675171
-13,26,77,10,-12,-8,-7,-4,2021-08-02 17:17:45.675171
-10,-123,-4,-31,-16,-15,-13,-7,2021-08-02 17:17:45.675171
35,86,-11,-1,20,13,13,7,2021-08-02 17:17:45.675171
-6,45,-7,44,-1,0,5,7,2021-08-02 17:17:45.687173
-28,-47,72,-35,-15,-10,-10,-16,2021-08-02 17:17:45.688173
15,58,-128,-13,12,10,6,13,2021-08-02 17:17:45.696173
-21,-31,36,-29,-14,-11,-8,-12,2021-08-02 17:17:45.696173
23,24,-4,-7,1,-3,-3,11,2021-08-02 17:17:45.711173
-12,-10,-46,22,-2,-3,-6,-5,2021-08-02 17:17:45.711173
1,43,27,6,12,10,12,1,2021-08-02 17:17:45.717171
-1,20,44,-16,-5,-4,-4,-6,2021-08-02 17:17:45.718170
-8,-34,-73,9,-11,-10,-10,-3,2021-08-02 17:17:45.742170
21,90,58,27,16,9,8,3,2021-08-02 17:17:45.742170
-23,-39,-21,8,-1,3,2,-6,2021-08-02 17:17:45.743171
1,4,12,-4,-15,-7,-7,-5,2021-08-02 17:17:45.743171
-13,-24,11,1,-10,-10,-15,-6,2021-08-02 17:17:45.748174
9,16,-57,39,-1,-7,-3,-1,2021-08-02 17:17:45.748174
-1,28,6,-2,20,13,14,4,2021-08-02 17:17:45.756172
1,7,-5,-30,-5,3,1,-3,2021-08-02 17:17:45.757172
-4,-3,41,23,-19,-14,-15,-2,2021-08-02 17:17:45.770171
2,-12,12,-7,4,1,1,1,2021-08-02 17:17:45.771170
3,-5,-9,24,10,9,10,-1,2021-08-02 17:17:45.777172
-4,-8,-48,-44,-2,0,-1,-2,2021-08-02 17:17:45.778170
-7,6,8,-5,-10,-7,-10,-5,2021-08-02 17:17:45.794173
0,-12,17,-8,-1,-3,1,-2,2021-08-02 17:17:45.794173
6,23,-25,5,7,5,9,3,2021-08-02 17:17:45.796172
4,0,66,15,1,2,-1,0,2021-08-02 17:17:45.796172
-3,1,-109,-52,-8,-4,-8,1,2021-08-02 17:17:45.807173
-3,2,127,21,-1,-2,-2,-1,2021-08-02 17:17:45.808172
0,46,47,-1,6,4,3,0,2021-08-02 17:17:45.816172
-2,-11,12,21,-5,-3,-5,-6,2021-08-02 17:17:45.817172
-3,-14,-32,-55,-12,-8,-7,1,2021-08-02 17:17:45.830170
7,11,-43,-22,4,3,3,2,2021-08-02 17:17:45.831170
4,8,66,15,12,8,9,1,2021-08-02 17:17:45.837171
-7,-11,31,18,-4,-1,-4,-2,2021-08-02 17:17:45.838173
-7,5,5,-6,-9,-9,-10,-4,2021-08-02 17:17:45.854174
9,6,-33,7,5,6,4,3,2021-08-02 17:17:45.854174
1,-6,-14,-3,10,9,9,0,2021-08-02 17:17:45.855172
-6,-4,-68,-4,-7,-5,-8,-4,2021-08-02 17:17:45.856173
-2,-9,52,34,-7,-9,-8,-1,2021-08-02 17:17:45.868172
-2,-5,-49,-37,1,0,0,0,2021-08-02 17:17:45.868172
5,-1,-18,-1,8,5,7,3,2021-08-02 17:17:45.876172
-1,10,-21,17,2,1,2,-2,2021-08-02 17:17:45.877172
-5,-3,-4,-10,-7,-7,-7,-4,2021-08-02 17:17:45.890170
3,22,-53,10,2,3,1,1,2021-08-02 17:17:45.891173
-3,-44,-70,-16,1,2,2,0,2021-08-02 17:17:45.897170
4,7,12,9,-5,-4,-1,1,2021-08-02 17:17:45.898170
-7,2,71,-8,-15,-12,-9,-3,2021-08-02 17:17:45.914173
-15,-8,-40,20,2,1,-2,0,2021-08-02 17:17:45.914173
50,9,6,-3,8,6,7,5,2021-08-02 17:17:45.915172
3,-15,-55,-8,0,0,-1,-7,2021-08-02 17:17:45.916175
-7,-30,-35,-12,-4,-4,7,31,2021-08-02 17:17:45.927174
12,5,95,-7,4,2,-28,-64,2021-08-02 17:17:45.928173
4,6,-25,24,0,1,9,8,2021-08-02 17:17:45.936173
5,-5,-8,3,0,-2,13,19,2021-08-02 17:17:45.936173
-7,26,36,-17,-4,-6,-28,-52,2021-08-02 17:17:45.950172
-61,-41,8,-2,4,-1,3,10,2021-08-02 17:17:45.951173
18,14,17,4,4,5,29,60,2021-08-02 17:17:45.958171
32,16,12,0,9,23,6,106,2021-08-02 17:17:45.958171
-39,68,36,28,7,8,23,-90,2021-08-02 17:17:45.981172
42,-27,98,-9,1,4,9,103,2021-08-02 17:17:45.982176
-19,3,-128,-27,-14,-13,-7,-25,2021-08-02 17:17:45.983173
-41,-29,84,20,-10,-10,-25,40,2021-08-02 17:17:45.983173
16,-72,-45,-20,-5,-9,-58,-48,2021-08-02 17:17:45.997172
-6,45,10,46,2,1,2,48,2021-08-02 17:17:45.998172
-14,13,100,57,0,-2,-22,-47,2021-08-02 17:17:46.000171
12,12,-15,-125,-8,-5,19,53,2021-08-02 17:17:46.000171
-6,-10,-35,29,-1,1,13,27,2021-08-02 17:17:46.010172
7,3,-3,-28,5,7,5,-17,2021-08-02 17:17:46.011172
-3,-19,47,-9,5,9,11,28,2021-08-02 17:17:46.017696
-11,16,-114,40,2,-2,-3,-62,2021-08-02 17:17:46.017696
-1,-8,-24,-11,-34,-24,-12,16,2021-08-02 17:17:46.032696
10,10,-93,-22,13,-2,2,-15,2021-08-02 17:17:46.033696
-5,-33,-10,19,13,27,15,10,2021-08-02 17:17:46.039695
-10,-23,-25,-6,-7,-4,-8,-61,2021-08-02 17:17:46.039695
9,17,9,75,-2,-2,-6,25,2021-08-02 17:17:46.047694
7,-9,-62,-17,-14,-20,3,0,2021-08-02 17:17:46.047694
-10,32,80,-32,11,3,-4,-24,2021-08-02 17:17:46.056696
-4,-25,-23,37,3,5,-6,-24,2021-08-02 17:17:46.056696
1,-8,84,-41,-20,-9,-1,36,2021-08-02 17:17:46.070696
-4,18,9,88,5,1,-1,-12,2021-08-02 17:17:46.070696
10,24,-84,-24,12,6,6,4,2021-08-02 17:17:46.077695
-5,-15,89,20,5,-1,-5,-12,2021-08-02 17:17:46.077695
-5,6,-46,-34,-9,-7,0,21,2021-08-02 17:17:46.092696
-1,-8,-21,5,10,2,-2,-16,2021-08-02 17:17:46.093695
-1,12,34,4,-4,-7,-9,-3,2021-08-02 17:17:46.099695
6,3,-122,-3,3,2,9,-2,2021-08-02 17:17:46.099695
-4,-20,6,-32,0,5,-2,2,2021-08-02 17:17:46.115695
-2,-3,33,-62,-5,-4,-7,-9,2021-08-02 17:17:46.116696
-5,-6,-39,19,-2,2,3,8,2021-08-02 17:17:46.117698
2,22,45,13,1,2,4,-9,2021-08-02 17:17:46.117698
1,-2,29,29,2,-6,-2,6,2021-08-02 17:17:46.130695
-6,6,-18,-3,-9,0,-2,-1,2021-08-02 17:17:46.130695
-6,12,25,-7,5,4,13,15,2021-08-02 17:17:46.137696
18,-4,34,-7,-1,-1,-6,13,2021-08-02 17:17:46.137696
11,-14,-43,3,-4,-2,-6,-6,2021-08-02 17:17:46.152696
5,-8,18,-26,-6,-3,-8,-6,2021-08-02 17:17:46.153696
-15,-2,-22,-9,-1,0,-3,-2,2021-08-02 17:17:46.159695
-11,13,53,29,7,3,14,-5,2021-08-02 17:17:46.159695
-1,-3,-41,-27,-3,-4,-2,10,2021-08-02 17:17:46.175696
4,-11,7,17,-4,-1,-7,2,2021-08-02 17:17:46.176695
4,11,74,49,13,5,10,-2,2021-08-02 17:17:46.177694
1,10,-57,-62,-5,-1,1,-11,2021-08-02 17:17:46.177694
-5,-11,-6,-43,1,-3,-8,2,2021-08-02 17:17:46.189692
-5,2,88,50,-8,-9,-4,-10,2021-08-02 17:17:46.189692
-1,-5,-102,-16,-3,4,0,-3,2021-08-02 17:17:46.198694
-2,6,46,41,-2,-1,0,-9,2021-08-02 17:17:46.198694
-8,-4,10,-58,-9,-8,-9,2,2021-08-02 17:17:46.212694
2,0,-71,28,-4,1,2,4,2021-08-02 17:17:46.213695
11,4,28,9,18,2,4,-1,2021-08-02 17:17:46.219700
2,16,23,-2,7,5,1,-1,2021-08-02 17:17:46.219700
-12,-11,60,37,-17,-10,-4,-2,2021-08-02 17:17:46.235696
-5,-5,-28,-37,-2,0,-2,-2,2021-08-02 17:17:46.236694
7,12,-54,2,-3,-1,1,1,2021-08-02 17:17:46.237695
-7,-25,10,-14,-8,-4,-4,-11,2021-08-02 17:17:46.237695
-1,14,3,-8,3,0,-2,4,2021-08-02 17:17:46.258695
-5,-27,29,-4,-18,-7,-4,-5,2021-08-02 17:17:46.258695
-1,5,-11,-11,5,4,1,-3,2021-08-02 17:17:46.259695
0,-5,63,0,9,6,6,2,2021-08-02 17:17:46.260694
-1,2,-76,-1,-16,-7,-8,1,2021-08-02 17:17:46.272694
1,2,79,-24,6,-1,5,1,2021-08-02 17:17:46.273696
2,5,43,10,-1,2,-9,-2,2021-08-02 17:17:46.279696
-3,1,-107,-2,-4,-1,-3,-4,2021-08-02 17:17:46.279696
-4,-11,-61,13,-3,-5,19,-1,2021-08-02 17:17:46.296693
3,6,21,1,1,-2,-32,-3,2021-08-02 17:17:46.296693
-2,9,58,-11,4,4,15,25,2021-08-02 17:17:46.297693
-9,0,2,5,0,2,5,-59,2021-08-02 17:17:46.297693
6,-12,-25,-13,-8,-7,-18,-29,2021-08-02 17:17:46.318696
-2,2,-29,-6,-2,-2,14,28,2021-08-02 17:17:46.318696
2,-3,28,-2,4,1,-6,-4,2021-08-02 17:17:46.319698
-3,4,23,11,0,-1,-9,17,2021-08-02 17:17:46.320696
-8,-7,-16,-6,1,-2,-3,1,2021-08-02 17:17:46.332696
1,2,-9,40,-7,-6,7,-16,2021-08-02 17:17:46.333695
4,5,50,-17,7,9,5,4,2021-08-02 17:17:46.339695
1,-2,-16,8,9,4,4,13,2021-08-02 17:17:46.339695
-2,-4,60,-23,-14,-10,-16,1,2021-08-02 17:17:46.355694
-2,-4,-19,13,-7,-4,-2,1,2021-08-02 17:17:46.356695
1,6,-21,-35,4,3,26,-2,2021-08-02 17:17:46.357693
-2,-3,25,16,-9,-3,-15,0,2021-08-02 17:17:46.357693
-1,-6,-53,-4,0,-2,12,5,2021-08-02 17:17:46.369693
1,11,17,-8,4,3,-27,-3,2021-08-02 17:17:46.369693
-2,-5,42,30,-1,-6,-35,-9,2021-08-02 17:17:46.378694
