EMG 1,EMG 2,EMG 3,EMG 4,EMG 5,EMG 6,EMG 7,EMG 8,Timestamp
-1,-2,-1,-1,0,-1,0,0,2021-08-07 10:48:09.747880
1,-1,1,0,1,0,-1,-2,2021-08-07 10:48:09.748881
1,1,-1,2,3,2,1,0,2021-08-07 10:48:09.754879
-1,-3,-3,-4,-5,-3,-1,-3,2021-08-07 10:48:09.755880
0,1,2,6,4,1,1,0,2021-08-07 10:48:09.770883
0,1,-2,-4,-5,-2,0,-1,2021-08-07 10:48:09.770883
-1,-3,1,1,1,-2,-1,-3,2021-08-07 10:48:09.778883
1,2,1,-1,2,0,-1,0,2021-08-07 10:48:09.778883
-2,-1,-5,-6,-9,-6,-3,-3,2021-08-07 10:48:09.792879
1,-1,2,7,7,3,0,0,2021-08-07 10:48:09.792879
-2,-1,-1,-2,-6,-2,-2,-2,2021-08-07 10:48:09.800882
-1,0,2,0,0,-1,0,0,2021-08-07 10:48:09.800882
0,-2,-1,0,0,0,-3,-1,2021-08-07 10:48:09.807881
-2,-2,-3,-3,-1,-2,0,1,2021-08-07 10:48:09.807881
-2,0,-2,0,1,1,1,1,2021-08-07 10:48:09.814880
0,0,0,0,-1,-1,0,0,2021-08-07 10:48:09.815880
-1,-2,-1,-5,-7,-2,-2,0,2021-08-07 10:48:09.830881
1,-1,1,5,10,3,-1,2,2021-08-07 10:48:09.830881
0,-1,0,2,-1,-2,-1,0,2021-08-07 10:48:09.838879
-1,0,-2,0,0,0,0,-1,2021-08-07 10:48:09.838879
0,-1,0,0,-2,-3,0,-2,2021-08-07 10:48:09.852883
-1,1,-1,-3,-3,-1,-1,-1,2021-08-07 10:48:09.852883
0,-1,1,6,8,2,0,-2,2021-08-07 10:48:09.860882
0,0,0,-2,-1,-1,-1,0,2021-08-07 10:48:09.860882
-1,-1,0,1,0,0,-2,-1,2021-08-07 10:48:09.867880
-2,-2,-4,-9,-7,-5,-3,-2,2021-08-07 10:48:09.867880
0,1,-1,0,0,1,-1,0,2021-08-07 10:48:09.874883
0,-2,1,5,4,2,0,1,2021-08-07 10:48:09.875881
0,1,2,8,6,1,0,0,2021-08-07 10:48:09.889880
0,-3,-4,-11,-10,-5,-1,-3,2021-08-07 10:48:09.890881
0,-1,-3,-5,-6,-3,-1,-3,2021-08-07 10:48:09.898880
-2,-2,-4,-6,-3,-4,-1,-1,2021-08-07 10:48:09.898880
0,3,3,6,6,3,1,0,2021-08-07 10:48:09.912880
-1,1,1,4,0,1,1,0,2021-08-07 10:48:09.912880
-2,-3,-2,0,-1,-3,-1,-1,2021-08-07 10:48:09.920880
-3,-2,-1,-3,-5,-2,-1,-1,2021-08-07 10:48:09.920880
-2,-2,-2,-7,-6,-1,-4,-1,2021-08-07 10:48:09.927882
0,-1,0,2,4,1,0,0,2021-08-07 10:48:09.927882
-1,0,-1,-2,1,-1,-1,0,2021-08-07 10:48:09.934882
0,-1,0,1,0,-1,-2,-2,2021-08-07 10:48:09.935883
0,0,0,-1,-1,1,0,-1,2021-08-07 10:48:09.949881
0,1,-1,2,1,0,-2,-1,2021-08-07 10:48:09.950881
-2,-2,-2,-5,-6,-3,-3,-1,2021-08-07 10:48:09.958880
-1,-1,-2,-1,0,-1,-1,1,2021-08-07 10:48:09.959881
2,1,-2,2,2,0,0,1,2021-08-07 10:48:09.972882
1,-1,-1,2,1,4,2,1,2021-08-07 10:48:09.972882
0,-2,-3,-5,-8,-3,0,-2,2021-08-07 10:48:09.981884
-3,-2,-6,-7,-6,-2,-1,-3,2021-08-07 10:48:09.981884
0,0,6,15,15,6,2,0,2021-08-07 10:48:09.987881
-4,-1,0,2,1,-1,-3,-2,2021-08-07 10:48:09.987881
-1,0,1,3,2,-1,-1,-2,2021-08-07 10:48:10.004880
0,0,2,-1,-3,-2,-3,-3,2021-08-07 10:48:10.004880
-1,0,-4,-10,-11,-6,-3,0,2021-08-07 10:48:10.009879
0,0,-2,-1,-2,-1,-1,-1,2021-08-07 10:48:10.010881
2,1,2,1,4,0,1,2,2021-08-07 10:48:10.018883
1,-1,0,1,0,1,-2,1,2021-08-07 10:48:10.019880
-1,-2,-2,-3,-2,-1,0,-2,2021-08-07 10:48:10.032880
1,-2,-1,-1,-2,-2,-1,-1,2021-08-07 10:48:10.032880
1,-2,-4,-3,-4,0,0,0,2021-08-07 10:48:10.041881
-2,-1,-2,-2,-2,-2,0,-1,2021-08-07 10:48:10.041881
0,0,1,6,9,3,1,2,2021-08-07 10:48:10.047883
-2,-2,-1,-2,-4,-3,-3,-1,2021-08-07 10:48:10.047883
0,0,1,1,1,0,-1,-1,2021-08-07 10:48:10.063881
2,1,6,9,8,5,1,2,2021-08-07 10:48:10.064883
-2,-1,-3,-5,-4,-3,-2,-2,2021-08-07 10:48:10.069881
-3,-4,-5,-12,-10,-5,-2,-2,2021-08-07 10:48:10.070880
-3,-3,-5,-10,-9,-5,-5,-3,2021-08-07 10:48:10.086880
1,0,0,5,9,3,1,-1,2021-08-07 10:48:10.086880
0,0,1,-1,-2,-1,-1,1,2021-08-07 10:48:10.092881
1,3,2,9,7,2,1,0,2021-08-07 10:48:10.092881
-1,-2,0,-1,0,0,0,0,2021-08-07 10:48:10.101881
-3,0,-4,-6,-8,-5,-1,-1,2021-08-07 10:48:10.101881
-1,-4,-4,-7,-5,-2,0,-1,2021-08-07 10:48:10.107883
-2,-4,-2,1,-1,0,-1,0,2021-08-07 10:48:10.107883
-1,1,2,1,0,-1,-2,1,2021-08-07 10:48:10.123881
0,0,1,2,-3,-3,-2,-1,2021-08-07 10:48:10.124880
-1,1,0,2,10,4,0,0,2021-08-07 10:48:10.130881
1,2,0,1,-1,-1,1,-1,2021-08-07 10:48:10.130881
-2,-2,0,-1,-4,-2,-1,-2,2021-08-07 10:48:10.138880
-2,-1,-1,-1,1,0,-1,0,2021-08-07 10:48:10.139883
-2,-3,-3,-7,-10,-7,-4,-3,2021-08-07 10:48:10.152880
-2,0,-3,-6,-4,-1,-1,0,2021-08-07 10:48:10.152880
0,1,3,10,9,5,0,2,2021-08-07 10:48:10.161881
0,-2,0,3,2,-1,-1,-2,2021-08-07 10:48:10.161881
-3,-3,-3,-5,-9,-6,-1,-2,2021-08-07 10:48:10.167881
-1,-1,-2,-5,-3,-3,-2,-1,2021-08-07 10:48:10.167881
3,3,4,10,12,4,3,2,2021-08-07 10:48:10.183881
0,0,0,-3,-2,0,0,0,2021-08-07 10:48:10.184881
0,-1,0,0,2,1,-2,-1,2021-08-07 10:48:10.189883
-2,-2,1,-5,-8,-5,-2,-1,2021-08-07 10:48:10.190880
-2,-3,-3,-5,-6,-3,-1,-1,2021-08-07 10:48:10.198882
0,1,2,7,13,6,1,1,2021-08-07 10:48:10.199881
-1,-2,-1,-1,-5,-4,-2,-2,2021-08-07 10:48:10.212881
0,-1,-1,-1,-3,-2,1,-1,2021-08-07 10:48:10.212881
-4,-1,-3,-2,4,0,-1,-3,2021-08-07 10:48:10.221881
-1,-2,-1,-2,-5,-2,-2,-1,2021-08-07 10:48:10.221881
-3,-2,-7,-12,-15,-8,-2,-1,2021-08-07 10:48:10.227882
-1,0,0,8,13,5,1,0,2021-08-07 10:48:10.227882
2,4,5,9,3,3,2,0,2021-08-07 10:48:10.243883
-2,-2,-2,-1,-4,-2,-1,-1,2021-08-07 10:48:10.244882
-2,0,1,-1,1,1,-1,0,2021-08-07 10:48:10.249883
-2,-3,-2,-5,-5,-2,-2,0,2021-08-07 10:48:10.250880
-2,-3,-5,-11,-9,-5,-2,-3,2021-08-07 10:48:10.259882
1,2,2,7,1,1,0,0,2021-08-07 10:48:10.259882
-1,-2,-1,-2,1,0,-1,0,2021-08-07 10:48:10.272881
1,2,1,1,2,0,2,-1,2021-08-07 10:48:10.272881
-2,-2,-4,-3,-3,-3,-1,-2,2021-08-07 10:48:10.281881
-1,-1,-3,-5,-4,-3,1,0,2021-08-07 10:48:10.281881
-1,-1,-3,-4,-2,-1,0,0,2021-08-07 10:48:10.287881
0,0,0,4,5,0,0,0,2021-08-07 10:48:10.287881
-1,-1,-1,-5,-6,-2,-1,0,2021-08-07 10:48:10.303881
0,-1,-2,-7,-8,-4,-2,-2,2021-08-07 10:48:10.304883
0,0,3,8,9,4,2,0,2021-08-07 10:48:10.309881
-2,-1,1,-4,-1,0,-1,-1,2021-08-07 10:48:10.310881
-2,-2,-2,-3,-8,-3,-2,-2,2021-08-07 10:48:10.318882
1,0,0,-1,6,2,-1,-2,2021-08-07 10:48:10.319883
0,-1,0,-4,-7,-3,-2,-2,2021-08-07 10:48:10.332880
0,0,-2,2,-1,0,-1,0,2021-08-07 10:48:10.332880
0,-1,1,2,5,2,3,1,2021-08-07 10:48:10.341881
-1,-1,1,2,-2,-1,-1,-1,2021-08-07 10:48:10.341881
-1,-2,-2,1,5,-1,-1,-1,2021-08-07 10:48:10.347881
1,-1,1,-2,-3,0,-2,-2,2021-08-07 10:48:10.347881
0,0,-1,-2,-4,-2,-1,0,2021-08-07 10:48:10.363880
-1,0,1,5,3,0,1,-1,2021-08-07 10:48:10.364882
-2,-2,-3,-2,-5,-3,-1,0,2021-08-07 10:48:10.370882
-1,1,2,6,7,2,0,2,2021-08-07 10:48:10.370882
0,-2,-1,0,3,0,-1,0,2021-08-07 10:48:10.378881
-1,-1,-1,-2,-1,-2,-1,-2,2021-08-07 10:48:10.379885
-1,-1,-2,1,-4,-3,-2,-2,2021-08-07 10:48:10.392879
0,-3,-3,-3,-3,-3,-3,-3,2021-08-07 10:48:10.392879
-2,-2,-2,-3,-2,-3,-2,-2,2021-08-07 10:48:10.401881
0,0,-2,-5,-5,-1,-1,0,2021-08-07 10:48:10.401881
1,1,2,6,5,2,0,0,2021-08-07 10:48:10.407880
1,-1,1,2,5,1,1,-3,2021-08-07 10:48:10.407880
0,0,0,0,-1,-2,-2,1,2021-08-07 10:48:10.423881
0,-1,-3,-2,-1,-2,0,0,2021-08-07 10:48:10.424881
0,0,-2,-3,-6,-1,-1,-1,2021-08-07 10:48:10.430882
-1,-1,-3,-9,-7,-4,-2,-3,2021-08-07 10:48:10.430882
-2,0,0,6,4,2,-1,-2,2021-08-07 10:48:10.438884
-1,0,1,0,2,0,0,1,2021-08-07 10:48:10.439882
0,0,1,1,0,1,0,-1,2021-08-07 10:48:10.452881
0,0,0,2,-1,-1,-1,0,2021-08-07 10:48:10.452881
0,-1,-3,-6,-6,-2,-3,0,2021-08-07 10:48:10.461881
-1,-1,-1,-1,0,1,-2,-1,2021-08-07 10:48:10.461881
0,1,-1,3,5,1,1,0,2021-08-07 10:48:10.475881
-3,-1,0,3,-2,-2,-3,-1,2021-08-07 10:48:10.475881
-1,-1,-2,-2,-1,0,0,-2,2021-08-07 10:48:10.483882
-1,-2,-1,0,-1,-1,-3,-1,2021-08-07 10:48:10.484882
-2,-1,-1,0,-2,0,-2,-2,2021-08-07 10:48:10.498881
0,0,-3,-3,-2,-2,-2,0,2021-08-07 10:48:10.499882
-6,-6,-10,-26,-28,-12,-5,-5,2021-08-07 10:48:10.500881
3,5,14,39,43,18,6,4,2021-08-07 10:48:10.500881
-1,0,1,-3,-5,-2,0,-1,2021-08-07 10:48:10.512882
0,-1,1,3,8,3,2,0,2021-08-07 10:48:10.512882
-1,-2,0,0,-4,-5,-4,-2,2021-08-07 10:48:10.521881
-3,-3,-8,-17,-17,-7,-5,-3,2021-08-07 10:48:10.521881
-1,0,1,5,4,0,-1,0,2021-08-07 10:48:10.534882
-1,-1,-1,-2,-3,-1,-1,-1,2021-08-07 10:48:10.535882
1,-2,0,3,5,1,2,0,2021-08-07 10:48:10.543883
-2,-3,-4,-5,-7,-4,-3,-2,2021-08-07 10:48:10.544880
-1,0,1,2,3,1,-1,1,2021-08-07 10:48:10.558881
-1,-3,-4,-9,-9,-5,-3,-1,2021-08-07 10:48:10.559881
1,1,1,3,8,3,1,-2,2021-08-07 10:48:10.560884
-1,-1,-1,1,-3,0,1,0,2021-08-07 10:48:10.560884
-3,-2,-1,-7,-6,-3,-3,-1,2021-08-07 10:48:10.572881
-3,-2,-3,-1,-2,-3,-1,-1,2021-08-07 10:48:10.572881
-1,-2,-3,-6,-2,0,-2,0,2021-08-07 10:48:10.581882
0,0,-1,0,-1,-1,0,-1,2021-08-07 10:48:10.581882
0,0,0,1,-1,-1,0,-1,2021-08-07 10:48:10.603882
0,-1,-1,-6,-7,-2,0,0,2021-08-07 10:48:10.603882
3,3,7,21,18,6,3,1,2021-08-07 10:48:10.605882
-3,-3,-6,-12,-11,-5,-2,0,2021-08-07 10:48:10.605882
0,0,-1,2,2,1,-1,-1,2021-08-07 10:48:10.618879
-2,0,-1,-2,-3,0,-1,-1,2021-08-07 10:48:10.618879
-1,0,0,-3,-1,-2,-1,-3,2021-08-07 10:48:10.620882
-3,-1,-2,-4,-2,-2,0,0,2021-08-07 10:48:10.620882
0,-1,-1,0,2,0,-1,-1,2021-08-07 10:48:10.632882
-1,-1,-3,0,-2,-1,-3,1,2021-08-07 10:48:10.632882
-1,-1,-3,-1,-5,-1,-1,-1,2021-08-07 10:48:10.641884
-2,-2,-1,-3,-1,1,-2,0,2021-08-07 10:48:10.641884
0,-2,-4,-7,-4,-3,-1,-2,2021-08-07 10:48:10.655883
0,1,0,3,6,0,1,0,2021-08-07 10:48:10.656883
0,-1,0,-1,-5,-1,-1,1,2021-08-07 10:48:10.662881
-2,0,-1,0,3,2,1,-1,2021-08-07 10:48:10.662881
-1,1,2,1,0,-1,1,-1,2021-08-07 10:48:10.678879
-1,-2,-1,1,1,1,-2,-2,2021-08-07 10:48:10.679883
0,-1,-1,1,-1,-1,-2,-1,2021-08-07 10:48:10.680882
1,0,-2,-8,-8,-6,-2,-2,2021-08-07 10:48:10.680882
2,0,0,-1,2,3,0,1,2021-08-07 10:48:10.692881
-1,-1,-1,2,-1,-1,1,-2,2021-08-07 10:48:10.692881
-1,-2,-1,-3,-1,0,0,-1,2021-08-07 10:48:10.701883
-2,-3,-2,-8,-7,-3,-2,-4,2021-08-07 10:48:10.701883
-1,-1,0,5,1,-1,-1,-1,2021-08-07 10:48:10.715881
0,0,1,3,4,1,1,0,2021-08-07 10:48:10.715881
-1,-2,-1,-2,1,0,-2,0,2021-08-07 10:48:10.722882
0,0,0,3,0,0,0,0,2021-08-07 10:48:10.722882
-1,0,-2,1,1,0,1,0,2021-08-07 10:48:10.737882
-1,-3,-4,-10,-13,-7,-4,-1,2021-08-07 10:48:10.738881
2,0,1,5,9,4,1,0,2021-08-07 10:48:10.746881
0,0,1,4,3,1,1,0,2021-08-07 10:48:10.746881
-1,-4,-3,-7,-6,-1,-1,1,2021-08-07 10:48:10.752881
-1,-2,-2,-5,-6,-2,-1,0,2021-08-07 10:48:10.752881
-5,-3,-1,0,6,1,-2,-2,2021-08-07 10:48:10.761882
0,0,2,1,-3,-4,-3,-4,2021-08-07 10:48:10.761882
-1,-2,1,4,7,1,-2,-4,2021-08-07 10:48:10.775879
0,0,-1,-6,-1,-1,-2,-1,2021-08-07 10:48:10.775879
0,0,2,3,-6,-5,0,0,2021-08-07 10:48:10.782882
1,-1,0,0,1,1,1,0,2021-08-07 10:48:10.782882
-1,-1,1,-1,-3,-2,0,0,2021-08-07 10:48:10.799886
-2,-2,0,0,0,0,2,0,2021-08-07 10:48:10.799886
0,-1,-3,-4,-3,-1,0,-1,2021-08-07 10:48:10.800882
-1,-2,-3,-6,-7,-2,-3,-1,2021-08-07 10:48:10.800882
0,-2,-2,2,6,0,0,-2,2021-08-07 10:48:10.812880
0,-1,1,3,3,1,-2,0,2021-08-07 10:48:10.812880
-1,1,2,5,2,0,0,-1,2021-08-07 10:48:10.821883
-1,-2,-2,-6,-5,-4,-1,-2,2021-08-07 10:48:10.821883
-1,-2,-4,-11,-11,-5,-3,-2,2021-08-07 10:48:10.835881
0,1,3,5,10,4,-1,-2,2021-08-07 10:48:10.835881
1,-1,-1,-1,0,0,-2,-2,2021-08-07 10:48:10.842880
0,0,-1,0,-1,-1,0,-2,2021-08-07 10:48:10.842880
-1,-2,-1,-2,-4,-2,0,-1,2021-08-07 10:48:10.858881
-2,-3,-3,-5,-8,-5,-2,-4,2021-08-07 10:48:10.859883
-2,-2,-4,-4,-3,-3,-2,-2,2021-08-07 10:48:10.860881
0,0,4,10,14,7,3,0,2021-08-07 10:48:10.860881
0,-1,-2,-3,0,0,-1,2,2021-08-07 10:48:10.872881
0,-1,0,3,-3,-2,1,-1,2021-08-07 10:48:10.872881
-3,-1,-3,-9,-9,-5,0,-1,2021-08-07 10:48:10.881881
-1,1,0,4,6,2,-1,-1,2021-08-07 10:48:10.881881
-2,0,0,-1,-5,-4,-1,-1,2021-08-07 10:48:10.895881
2,1,2,3,9,4,0,0,2021-08-07 10:48:10.895881
0,-1,1,0,2,1,-2,0,2021-08-07 10:48:10.902881
-2,-3,-2,-2,-3,-4,-2,-3,2021-08-07 10:48:10.902881
-2,-3,-2,-7,-9,-4,-2,-2,2021-08-07 10:48:10.918880
1,4,1,2,3,2,3,2,2021-08-07 10:48:10.919882
-1,-1,0,0,3,0,-1,-1,2021-08-07 10:48:10.920880
-1,-2,-2,-2,-5,-1,-1,1,2021-08-07 10:48:10.920880
0,0,-2,-2,0,0,-2,-1,2021-08-07 10:48:10.932882
0,0,-1,-3,-4,-2,-2,-1,2021-08-07 10:48:10.932882
1,0,1,6,1,0,0,1,2021-08-07 10:48:10.941882
-1,-2,-2,-6,-2,-3,-3,-2,2021-08-07 10:48:10.941882
1,1,0,2,3,3,1,-1,2021-08-07 10:48:10.956882
1,-1,-1,1,1,-1,-2,0,2021-08-07 10:48:10.956882
0,0,-2,-1,-1,1,0,1,2021-08-07 10:48:10.962881
-1,-3,-7,-13,-14,-7,-3,-3,2021-08-07 10:48:10.962881
-1,1,3,10,11,5,1,0,2021-08-07 10:48:10.978879
-1,-2,1,0,0,-3,-1,-1,2021-08-07 10:48:10.979881
-1,-2,-3,-5,-6,-3,-3,-1,2021-08-07 10:48:10.980883
-1,-1,-2,-6,-5,-3,0,-1,2021-08-07 10:48:10.980883
-2,-3,-2,0,-2,-2,-2,-1,2021-08-07 10:48:10.992882
2,3,5,12,10,6,3,3,2021-08-07 10:48:10.992882
-1,-2,-2,0,2,1,1,0,2021-08-07 10:48:11.001881
-1,-1,0,1,0,2,0,-1,2021-08-07 10:48:11.001881
0,0,-1,-7,-5,-4,-2,-1,2021-08-07 10:48:11.015885
-4,-2,-2,-4,-5,-2,-1,-1,2021-08-07 10:48:11.015885
-2,-3,-2,-3,-2,0,0,-1,2021-08-07 10:48:11.022882
0,0,-1,2,-1,0,0,1,2021-08-07 10:48:11.022882
0,-2,0,2,5,3,0,0,2021-08-07 10:48:11.038881
-1,-1,-1,-2,-3,0,-1,-1,2021-08-07 10:48:11.039881
-1,-1,1,2,2,-1,0,-2,2021-08-07 10:48:11.040883
0,-1,0,1,0,0,-2,1,2021-08-07 10:48:11.040883
-2,-1,-1,0,-1,-1,-2,-1,2021-08-07 10:48:11.052881
-2,-2,-5,-5,-8,-5,-2,-3,2021-08-07 10:48:11.052881
0,0,-2,-1,-5,-2,-2,0,2021-08-07 10:48:11.061882
0,1,0,-3,2,-1,1,1,2021-08-07 10:48:11.061882
-1,-1,-1,0,3,-1,-1,-2,2021-08-07 10:48:11.075881
-2,0,-1,0,0,0,-2,0,2021-08-07 10:48:11.075881
-1,-1,-1,0,0,-2,-3,-3,2021-08-07 10:48:11.082881
-1,-2,-3,-6,-3,-2,-1,-3,2021-08-07 10:48:11.082881
0,0,1,7,2,2,1,0,2021-08-07 10:48:11.098885
-1,-2,-4,-6,-6,-3,0,-2,2021-08-07 10:48:11.098885
-1,0,2,4,5,4,0,-2,2021-08-07 10:48:11.104881
-2,-1,-2,0,-4,-2,-1,-1,2021-08-07 10:48:11.105882
-2,-2,0,-5,-2,-2,-1,-2,2021-08-07 10:48:11.112881
-1,1,1,-1,1,0,0,-1,2021-08-07 10:48:11.112881
1,-1,-1,-3,-2,-1,0,-1,2021-08-07 10:48:11.121881
-1,1,1,4,3,2,0,0,2021-08-07 10:48:11.121881
0,0,0,-1,-2,0,-1,-2,2021-08-07 10:48:11.135880
-1,-1,-3,-4,-4,-3,-3,-2,2021-08-07 10:48:11.135880
-1,-1,-3,-3,-5,-3,-3,0,2021-08-07 10:48:11.142881
1,1,0,5,10,4,2,1,2021-08-07 10:48:11.142881
-1,-1,-2,-1,-1,-2,1,1,2021-08-07 10:48:11.158931
-2,-3,-2,-2,0,-1,-2,-2,2021-08-07 10:48:11.158931
1,0,-1,-1,-2,-1,0,-1,2021-08-07 10:48:11.165934
-1,-1,0,0,-2,0,-1,0,2021-08-07 10:48:11.165934
0,-1,-2,-3,-3,0,0,1,2021-08-07 10:48:11.181936
0,0,1,2,0,0,0,0,2021-08-07 10:48:11.181936
0,0,-1,0,0,0,0,0,2021-08-07 10:48:11.182931
0,-1,-2,-1,-1,-1,-1,-1,2021-08-07 10:48:11.183931
-1,-1,-4,-2,-1,1,1,0,2021-08-07 10:48:11.195930
-1,-3,-1,-1,1,-1,0,-1,2021-08-07 10:48:11.195930
-1,-2,0,-2,-2,-1,-1,1,2021-08-07 10:48:11.202930
-1,-1,-1,-1,-1,-1,-1,-1,2021-08-07 10:48:11.202930
-1,-1,-1,-2,-2,-3,-2,0,2021-08-07 10:48:11.218931
-1,-1,-2,1,1,-1,-2,-1,2021-08-07 10:48:11.218931
-2,0,1,0,-2,0,-1,-1,2021-08-07 10:48:11.224931
-1,-2,-1,0,-1,-2,1,0,2021-08-07 10:48:11.225932
0,-1,-3,0,-1,0,-1,-1,2021-08-07 10:48:11.241935
0,-1,-2,-1,-1,-1,1,-2,2021-08-07 10:48:11.241935
0,-1,0,0,-1,-1,-1,-1,2021-08-07 10:48:11.242931
0,-1,-1,0,0,-1,-3,0,2021-08-07 10:48:11.243937
0,0,0,-1,0,0,1,-1,2021-08-07 10:48:11.255931
-1,0,0,-2,-2,-1,0,1,2021-08-07 10:48:11.256931
-1,-1,-1,-3,-3,-2,-2,0,2021-08-07 10:48:11.262931
0,0,1,2,2,1,-2,-3,2021-08-07 10:48:11.262931
-2,-2,-1,-6,-9,-3,-2,-1,2021-08-07 10:48:11.278933
-2,-4,-4,-2,0,-2,-3,-2,2021-08-07 10:48:11.278933
1,1,0,0,9,4,3,1,2021-08-07 10:48:11.285932
2,1,3,3,4,0,2,0,2021-08-07 10:48:11.285932
-1,-1,-1,-1,-3,-3,-1,-3,2021-08-07 10:48:11.301932
-1,-1,-3,-3,-5,-1,-1,-2,2021-08-07 10:48:11.302934
-3,-2,-5,-10,-8,-5,-3,-3,2021-08-07 10:48:11.303933
-1,-1,-2,1,0,-1,0,-1,2021-08-07 10:48:11.303933
-1,0,0,-3,1,1,0,-1,2021-08-07 10:48:11.315930
0,-2,0,3,-1,0,0,1,2021-08-07 10:48:11.315930
0,-2,-1,-3,-8,-5,-1,0,2021-08-07 10:48:11.322934
1,0,1,0,6,2,0,-1,2021-08-07 10:48:11.322934
-1,-1,-2,0,-2,-2,-1,0,2021-08-07 10:48:11.338933
-1,1,-1,-1,0,-1,-1,1,2021-08-07 10:48:11.338933
1,0,0,1,2,-1,-1,1,2021-08-07 10:48:11.345933
-2,-2,-2,-6,-7,-4,0,0,2021-08-07 10:48:11.345933
-2,-1,-2,0,1,0,-2,-1,2021-08-07 10:48:11.361934
0,-1,0,-2,-3,-2,0,-1,2021-08-07 10:48:11.361934
0,0,0,3,4,3,1,0,2021-08-07 10:48:11.362931
-2,-1,-2,-1,-7,-3,-2,-2,2021-08-07 10:48:11.363934
-1,-1,-1,-2,0,1,-1,-1,2021-08-07 10:48:11.376452
0,-1,2,2,2,3,-1,-1,2021-08-07 10:48:11.376452
-1,-3,0,0,1,0,0,-1,2021-08-07 10:48:11.382451
-1,-1,-3,-1,-4,-2,-1,-1,2021-08-07 10:48:11.383452
0,-1,-1,0,-2,-1,0,-1,2021-08-07 10:48:11.398452
-2,-2,-3,-5,-2,-3,-1,-2,2021-08-07 10:48:11.399451
-1,0,1,0,-1,-1,0,-1,2021-08-07 10:48:11.405451
-1,-1,0,-2,0,-2,-2,0,2021-08-07 10:48:11.405451
-1,-2,-1,-1,-1,-2,-3,-1,2021-08-07 10:48:11.421450
-2,-1,-1,0,-2,-2,-1,0,2021-08-07 10:48:11.422452
0,0,-1,-2,-1,0,0,0,2021-08-07 10:48:11.423452
-1,-1,-1,-1,-1,-1,0,-1,2021-08-07 10:48:11.423452
-1,0,0,0,0,-1,-1,0,2021-08-07 10:48:11.436452
1,1,1,3,1,-2,-1,-1,2021-08-07 10:48:11.436452
0,0,0,0,-1,-1,-1,-2,2021-08-07 10:48:11.450451
-2,-2,-1,-2,-1,-2,-1,-2,2021-08-07 10:48:11.450451
-1,-1,0,1,2,-1,-1,-1,2021-08-07 10:48:11.458452
0,0,0,1,1,-1,-1,-1,2021-08-07 10:48:11.458452
0,-1,-1,0,-2,-1,1,0,2021-08-07 10:48:11.465452
-3,1,0,-1,0,0,-2,-1,2021-08-07 10:48:11.465452
-1,2,-1,0,1,0,0,1,2021-08-07 10:48:11.481494
-1,-7,-4,0,-1,-1,-1,0,2021-08-07 10:48:11.481494
-1,-2,-3,-2,-1,-1,-1,0,2021-08-07 10:48:11.483505
-1,-2,-1,1,0,-1,0,0,2021-08-07 10:48:11.483505
-1,1,0,-1,0,0,1,-1,2021-08-07 10:48:11.496508
0,2,-1,0,0,-1,-2,-2,2021-08-07 10:48:11.496508
0,-1,-1,-2,0,-1,0,-1,2021-08-07 10:48:11.502504
0,-2,1,-1,-3,-1,-1,-2,2021-08-07 10:48:11.502504
-1,-1,0,0,-2,-2,-2,-1,2021-08-07 10:48:11.518504
0,-1,1,-1,-3,-2,-1,-1,2021-08-07 10:48:11.518504
0,0,0,-2,-1,-2,-2,-1,2021-08-07 10:48:11.525508
0,-1,0,2,1,1,1,0,2021-08-07 10:48:11.525508
0,0,-1,-4,-1,0,0,-1,2021-08-07 10:48:11.541504
-1,0,1,4,3,1,1,-1,2021-08-07 10:48:11.541504
0,0,-2,-3,-3,-3,-2,-1,2021-08-07 10:48:11.543507
1,1,-2,-2,-6,-2,-2,1,2021-08-07 10:48:11.543507
-1,-2,-2,-1,-2,-2,1,2,2021-08-07 10:48:11.556503
-2,-2,-2,-3,0,0,2,-1,2021-08-07 10:48:11.556503
-4,-3,-1,0,-1,-1,-1,-4,2021-08-07 10:48:11.562505
-3,-3,-5,-9,-6,-5,-4,-4,2021-08-07 10:48:11.563504
-1,0,5,13,13,3,-1,-1,2021-08-07 10:48:11.578508
0,1,0,1,1,-1,0,0,2021-08-07 10:48:11.578508
0,1,-1,-1,0,0,-1,1,2021-08-07 10:48:11.585505
2,-1,-3,-2,-2,-1,0,1,2021-08-07 10:48:11.585505
-1,-2,-3,-4,-6,-3,-3,-1,2021-08-07 10:48:11.601505
0,0,-4,-7,-4,-3,-1,-1,2021-08-07 10:48:11.601505
1,0,1,3,3,1,0,2,2021-08-07 10:48:11.603510
-2,-2,-2,-2,-3,-4,-1,0,2021-08-07 10:48:11.603510
0,-2,-2,-3,-1,1,1,-3,2021-08-07 10:48:11.616508
0,-1,2,5,4,3,0,-1,2021-08-07 10:48:11.616508
-1,-1,-3,-4,-2,-1,-1,0,2021-08-07 10:48:11.622507
-1,0,1,1,-1,-2,-1,-1,2021-08-07 10:48:11.623507
1,-2,0,-1,2,0,0,0,2021-08-07 10:48:11.638503
-1,-1,1,-4,-7,-3,-1,0,2021-08-07 10:48:11.638503
-1,0,1,2,3,0,0,-1,2021-08-07 10:48:11.645505
1,-1,-1,0,2,3,0,0,2021-08-07 10:48:11.645505
-1,-2,-1,3,-2,-1,-2,-1,2021-08-07 10:48:11.661505
-2,-2,-2,-7,-4,-3,-2,1,2021-08-07 10:48:11.661505
-1,0,-1,-1,-3,-1,0,0,2021-08-07 10:48:11.663505
-1,0,-2,2,4,2,0,-3,2021-08-07 10:48:11.663505
-2,-2,-2,-3,-3,-2,-1,0,2021-08-07 10:48:11.675506
-1,2,1,5,5,2,0,-1,2021-08-07 10:48:11.675506
-2,-2,-1,-1,-1,-1,0,-1,2021-08-07 10:48:11.684505
-2,-1,0,0,-2,-1,0,-2,2021-08-07 10:48:11.684505
-2,-2,-2,-4,-4,-1,-2,0,2021-08-07 10:48:11.699014
0,-2,-1,-1,-3,-4,-2,-1,2021-08-07 10:48:11.699014
0,-1,-1,-4,-4,-4,0,-1,2021-08-07 10:48:11.705028
-1,-1,-1,0,0,0,0,-1,2021-08-07 10:48:11.705028
0,0,-3,0,2,1,0,-1,2021-08-07 10:48:11.722024
1,2,5,7,4,2,3,2,2021-08-07 10:48:11.722024
-1,1,0,1,0,0,-1,-2,2021-08-07 10:48:11.723026
-1,-2,0,-1,0,-2,-2,0,2021-08-07 10:48:11.723026
0,-1,-2,-2,-4,-4,-2,-2,2021-08-07 10:48:11.735026
-3,-1,-1,-3,-4,-2,-2,-3,2021-08-07 10:48:11.736025
1,0,2,4,3,1,0,0,2021-08-07 10:48:11.744029
0,0,0,2,1,0,-1,-1,2021-08-07 10:48:11.745031
-2,0,0,-6,-5,-3,-1,-1,2021-08-07 10:48:11.759027
-2,-1,-3,-5,0,0,-2,0,2021-08-07 10:48:11.759027
-2,-1,-1,-1,-3,-2,-1,-1,2021-08-07 10:48:11.766028
-1,-1,-2,0,-2,-1,-1,-3,2021-08-07 10:48:11.766028
-1,0,-1,2,2,-1,1,0,2021-08-07 10:48:11.782025
0,-3,-2,-1,-3,0,-2,-2,2021-08-07 10:48:11.782025
0,-1,0,0,0,0,-1,-1,2021-08-07 10:48:11.783026
-2,-2,-1,-5,-7,-4,-2,-1,2021-08-07 10:48:11.783026
1,0,1,2,3,3,0,1,2021-08-07 10:48:11.795024
-1,-2,0,2,9,2,-1,-1,2021-08-07 10:48:11.796027
0,-1,-2,-1,0,-1,-2,-1,2021-08-07 10:48:11.804023
-2,-1,-1,-3,-1,-2,0,-1,2021-08-07 10:48:11.805026
-4,-4,-3,-7,-9,-5,-4,-3,2021-08-07 10:48:11.819027
2,0,0,4,2,1,1,-1,2021-08-07 10:48:11.819027
-1,-1,0,0,1,0,0,0,2021-08-07 10:48:11.825025
0,1,0,1,-3,-1,-1,0,2021-08-07 10:48:11.826026
-3,0,-2,-2,-3,-2,0,-3,2021-08-07 10:48:11.842027
-1,-2,-1,1,1,-1,0,0,2021-08-07 10:48:11.842027
-2,-1,-1,-1,-2,-2,-2,-1,2021-08-07 10:48:11.843027
-2,-2,1,0,1,-2,0,-1,2021-08-07 10:48:11.844028
1,-1,2,4,2,1,-2,0,2021-08-07 10:48:11.855024
-1,-2,-2,-5,-5,-2,-3,-2,2021-08-07 10:48:11.856027
2,0,-1,0,-1,1,-1,0,2021-08-07 10:48:11.864027
-2,-1,-1,-1,-1,-1,0,0,2021-08-07 10:48:11.865026
-3,0,-1,-2,-3,-2,-1,-2,2021-08-07 10:48:11.879026
-1,1,3,2,1,0,1,1,2021-08-07 10:48:11.879026
0,-1,-1,-3,-2,-1,-1,-1,2021-08-07 10:48:11.885024
1,-1,1,2,2,0,-1,-1,2021-08-07 10:48:11.886026
1,-1,-1,-2,-1,0,-2,-1,2021-08-07 10:48:11.902025
-1,-1,-2,1,-4,-3,0,-2,2021-08-07 10:48:11.902025
-2,0,-1,1,3,-2,0,-2,2021-08-07 10:48:11.903027
0,-1,-2,1,2,0,-2,0,2021-08-07 10:48:11.903027
-2,-1,0,2,1,0,0,-1,2021-08-07 10:48:11.915026
-2,-1,-3,-4,-4,-4,-4,-1,2021-08-07 10:48:11.916029
-4,-3,-3,-4,-8,-4,-3,-1,2021-08-07 10:48:11.924026
0,0,1,5,10,5,1,1,2021-08-07 10:48:11.925026
2,-2,0,-2,-2,-2,-2,0,2021-08-07 10:48:11.939025
0,0,0,0,-1,0,2,-1,2021-08-07 10:48:11.939025
-1,-1,0,4,3,0,-2,-2,2021-08-07 10:48:11.945028
0,-2,-2,-5,-5,-2,-1,-2,2021-08-07 10:48:11.945028
-2,-3,-5,-12,-18,-11,-4,-4,2021-08-07 10:48:11.962025
3,3,6,10,15,8,3,3,2021-08-07 10:48:11.962025
-1,0,0,3,1,2,2,0,2021-08-07 10:48:11.963026
0,0,0,0,-2,0,0,0,2021-08-07 10:48:11.963026
-1,1,0,2,3,1,1,-1,2021-08-07 10:48:11.975025
-2,-3,-5,-13,-14,-8,-2,-3,2021-08-07 10:48:11.976025
-1,-2,-3,-5,-3,-3,-1,-2,2021-08-07 10:48:11.984027
-2,2,3,4,2,0,-1,2,2021-08-07 10:48:11.985028
-2,-2,-3,-1,1,-1,-1,1,2021-08-07 10:48:11.999025
0,-2,-3,-3,-4,-3,-3,-2,2021-08-07 10:48:11.999025
1,1,-1,1,2,1,1,-1,2021-08-07 10:48:12.005025
-2,-2,-4,-4,-5,-1,-1,-1,2021-08-07 10:48:12.006025
1,1,-1,-1,0,1,0,0,2021-08-07 10:48:12.021023
1,-1,-1,-3,-1,0,-1,0,2021-08-07 10:48:12.021023
1,-1,0,2,1,0,-1,-2,2021-08-07 10:48:12.028025
0,-2,-2,-3,-3,-3,-2,-2,2021-08-07 10:48:12.028025
-2,-1,-1,3,3,0,-1,-1,2021-08-07 10:48:12.035026
-2,-2,-4,-2,-3,-1,-1,-2,2021-08-07 10:48:12.036026
0,-1,-1,-4,-4,-2,-3,-1,2021-08-07 10:48:12.044025
-2,-1,-2,-4,-2,-2,-2,-1,2021-08-07 10:48:12.045027
-2,0,2,5,6,2,0,0,2021-08-07 10:48:12.059027
0,-1,-4,-3,-7,-5,-1,-3,2021-08-07 10:48:12.059027
-2,0,0,-3,-1,-1,-2,-1,2021-08-07 10:48:12.065024
0,-1,1,5,5,0,-2,0,2021-08-07 10:48:12.066025
-2,-1,0,-1,-2,-2,-1,-3,2021-08-07 10:48:12.081025
-1,-1,-1,1,0,-1,-2,-2,2021-08-07 10:48:12.081025
0,-1,0,0,-5,-1,-1,-2,2021-08-07 10:48:12.088025
-1,-1,-4,-7,-5,-4,-2,-1,2021-08-07 10:48:12.088025
0,-2,0,3,1,-1,0,-2,2021-08-07 10:48:12.095025
0,-3,0,-1,0,-1,0,-1,2021-08-07 10:48:12.095025
0,-1,0,2,3,2,1,0,2021-08-07 10:48:12.104026
0,1,0,-2,-4,-2,0,0,2021-08-07 10:48:12.105025
0,0,-1,-1,-2,-2,-1,1,2021-08-07 10:48:12.119028
-3,-3,-4,-10,-6,-4,-3,-2,2021-08-07 10:48:12.119028
-1,-2,0,4,6,1,0,0,2021-08-07 10:48:12.125027
1,1,1,4,1,1,-1,0,2021-08-07 10:48:12.126026
1,-1,-3,0,1,-1,0,-1,2021-08-07 10:48:12.141027
1,-1,-2,-6,-7,-5,-3,0,2021-08-07 10:48:12.141027
-1,0,1,-1,6,3,2,-2,2021-08-07 10:48:12.148026
-1,0,1,2,2,2,2,-1,2021-08-07 10:48:12.148026
-2,-1,-2,-4,-3,-1,-2,-2,2021-08-07 10:48:12.164025
0,0,0,0,-2,-2,0,0,2021-08-07 10:48:12.164025
-1,-1,-4,-8,-6,-3,-1,0,2021-08-07 10:48:12.166025
-1,0,-1,2,2,1,1,-1,2021-08-07 10:48:12.166025
0,-1,2,3,1,1,-1,0,2021-08-07 10:48:12.179025
-2,-1,0,-1,0,1,-2,0,2021-08-07 10:48:12.179025
-1,0,-3,-1,-4,-3,0,-1,2021-08-07 10:48:12.185026
-2,-2,-3,-4,-3,0,-2,-3,2021-08-07 10:48:12.186026
-1,-2,-1,-3,-3,-2,-2,-1,2021-08-07 10:48:12.201026
2,2,1,1,5,3,2,3,2021-08-07 10:48:12.201026
-2,-1,-1,4,4,2,-1,0,2021-08-07 10:48:12.208025
-2,-2,-3,0,0,-3,-1,-1,2021-08-07 10:48:12.208025
-2,0,-2,-4,-5,-3,-1,-3,2021-08-07 10:48:12.223026
-3,-1,-1,2,-1,-1,-2,-1,2021-08-07 10:48:12.224026
0,-1,-1,-1,0,-1,-2,0,2021-08-07 10:48:12.232027
1,-1,-2,-3,-2,0,-1,-1,2021-08-07 10:48:12.232027
0,-2,1,4,3,3,1,1,2021-08-07 10:48:12.238025
-1,-1,-3,-5,-7,-3,-1,-3,2021-08-07 10:48:12.239025
0,0,3,3,-1,0,-1,0,2021-08-07 10:48:12.245024
0,0,0,0,6,3,1,-2,2021-08-07 10:48:12.246025
1,-1,-1,-3,-2,-3,-2,1,2021-08-07 10:48:12.261026
-2,-3,-2,-2,-4,-1,-1,-1,2021-08-07 10:48:12.261026
-1,-1,-2,0,-2,-2,-2,-1,2021-08-07 10:48:12.268025
-1,-2,-4,-4,-10,-4,-3,-1,2021-08-07 10:48:12.268025
0,2,2,2,3,3,1,0,2021-08-07 10:48:12.284025
-1,0,0,4,3,1,-1,-1,2021-08-07 10:48:12.285025
-3,-2,1,0,-3,-2,-1,-2,2021-08-07 10:48:12.286028
-2,0,1,-1,-2,0,-2,0,2021-08-07 10:48:12.286028
-3,-2,-4,-5,-6,-3,-3,-3,2021-08-07 10:48:12.299028
-1,0,2,2,5,2,0,0,2021-08-07 10:48:12.299028
-1,-2,0,-4,-6,-4,-2,0,2021-08-07 10:48:12.305023
-1,-2,0,-2,1,-2,-1,-1,2021-08-07 10:48:12.305023
-2,-1,-3,-2,-1,-3,-1,-2,2021-08-07 10:48:12.321023
0,0,3,2,3,2,2,-1,2021-08-07 10:48:12.321023
-1,-2,-1,0,-3,-1,-1,-1,2021-08-07 10:48:12.328026
0,0,1,-1,-1,-2,-1,1,2021-08-07 10:48:12.328026
-2,-2,-3,-5,-5,-2,-2,-1,2021-08-07 10:48:12.344025
0,-1,-2,1,1,-2,-2,-1,2021-08-07 10:48:12.344025
1,1,0,1,5,2,3,1,2021-08-07 10:48:12.346026
-2,-2,0,-1,-9,-4,-3,-1,2021-08-07 10:48:12.346026
-2,0,0,0,7,1,1,-1,2021-08-07 10:48:12.359026
0,1,-1,2,3,2,0,0,2021-08-07 10:48:12.359026
-1,-3,-4,-8,-5,-2,-1,1,2021-08-07 10:48:12.365026
2,0,-1,3,3,3,0,1,2021-08-07 10:48:12.366025
-1,-3,-3,-2,-4,-1,-1,-1,2021-08-07 10:48:12.381026
-2,-2,-1,-2,-2,-3,-1,-2,2021-08-07 10:48:12.381026
-2,-1,-1,1,-1,-1,-2,-5,2021-08-07 10:48:12.388025
-3,-2,1,-1,2,-3,-2,-4,2021-08-07 10:48:12.388025
-1,-1,2,1,-4,-3,-4,1,2021-08-07 10:48:12.404024
2,0,-1,0,3,1,0,0,2021-08-07 10:48:12.405029
0,-1,-2,-5,-9,-3,-3,1,2021-08-07 10:48:12.406026
2,2,-1,-1,6,2,0,2,2021-08-07 10:48:12.406026
3,2,2,8,5,3,2,-1,2021-08-07 10:48:12.419024
0,-2,-1,-2,-2,-3,-2,-1,2021-08-07 10:48:12.419024
-1,0,-1,1,0,0,1,1,2021-08-07 10:48:12.425026
-2,-3,-3,-3,-5,-4,0,-3,2021-08-07 10:48:12.426026
-2,-2,-1,-3,-1,0,0,-2,2021-08-07 10:48:12.441026
0,0,0,-1,2,1,-1,0,2021-08-07 10:48:12.441026
0,-1,-1,0,-2,0,-1,-1,2021-08-07 10:48:12.448027
-1,0,-1,-2,1,0,-2,-1,2021-08-07 10:48:12.448027
0,-1,0,4,2,-1,-2,0,2021-08-07 10:48:12.464027
-3,0,-1,-3,-6,-2,-1,0,2021-08-07 10:48:12.465026
0,-1,-1,-1,0,-2,-1,-2,2021-08-07 10:48:12.466024
-2,0,0,0,1,0,-2,0,2021-08-07 10:48:12.466024
-1,0,-1,-5,-2,-3,-1,-2,2021-08-07 10:48:12.479027
-2,-2,-1,0,-2,0,0,-2,2021-08-07 10:48:12.479027
0,0,0,1,2,0,0,0,2021-08-07 10:48:12.485025
0,-2,0,2,-2,-1,0,-2,2021-08-07 10:48:12.486025
-1,-1,-2,-2,-1,-2,0,1,2021-08-07 10:48:12.501025
-1,-1,-2,0,-1,0,-2,0,2021-08-07 10:48:12.501025
0,0,-1,-1,0,0,0,-2,2021-08-07 10:48:12.508027
0,-2,-2,-2,-1,0,0,-1,2021-08-07 10:48:12.508027
0,-1,0,-2,-1,0,-1,0,2021-08-07 10:48:12.524027
-2,-1,-2,-1,1,-1,0,0,2021-08-07 10:48:12.524027
-1,0,-1,-1,-1,-1,-2,0,2021-08-07 10:48:12.526024
1,-2,-1,-1,-2,0,0,0,2021-08-07 10:48:12.526024
0,-2,1,-1,-1,0,0,0,2021-08-07 10:48:12.539025
0,-2,1,-1,-1,-1,0,-1,2021-08-07 10:48:12.539025
-2,-1,-1,-2,0,-1,-1,-2,2021-08-07 10:48:12.545023
1,0,1,1,1,1,-1,0,2021-08-07 10:48:12.546024
-1,-1,-1,-1,-1,0,-2,0,2021-08-07 10:48:12.561025
-1,0,0,-2,-2,-2,-2,-1,2021-08-07 10:48:12.561025
-1,-1,0,0,0,-3,-1,0,2021-08-07 10:48:12.568023
0,-1,-2,0,0,-1,0,0,2021-08-07 10:48:12.568023
-1,0,-2,-2,-2,1,-1,-2,2021-08-07 10:48:12.584025
0,-1,-2,-1,-1,-1,-1,1,2021-08-07 10:48:12.585024
0,-1,-1,1,-1,-1,-1,-2,2021-08-07 10:48:12.586026
-2,-1,-1,1,-2,-1,-1,-1,2021-08-07 10:48:12.586026
-1,0,-2,-1,1,-2,-2,-2,2021-08-07 10:48:12.599026
-2,-2,-2,0,-1,0,-1,-1,2021-08-07 10:48:12.599026
0,0,-1,-2,-1,1,-1,-1,2021-08-07 10:48:12.605023
-2,-3,0,-2,-1,0,-1,-1,2021-08-07 10:48:12.605023
-1,-2,-1,0,-2,-3,0,-2,2021-08-07 10:48:12.621024
0,-1,-1,-1,-2,-3,-2,-1,2021-08-07 10:48:12.621024
0,-1,-1,1,-1,-1,-2,-1,2021-08-07 10:48:12.628024
-2,0,-1,-2,-2,-3,-3,-3,2021-08-07 10:48:12.628024
-2,-3,-5,-13,-13,-5,-3,-2,2021-08-07 10:48:12.643024
3,3,9,21,26,10,3,1,2021-08-07 10:48:12.644027
-1,-2,0,3,1,-1,-1,-1,2021-08-07 10:48:12.652027
-2,-1,1,3,7,2,0,0,2021-08-07 10:48:12.652027
-2,-3,-4,-2,-7,-3,-2,-1,2021-08-07 10:48:12.658025
-2,-3,-6,-9,-9,-7,-3,-2,2021-08-07 10:48:12.658025
-2,-1,-3,-6,-7,-2,-1,-1,2021-08-07 10:48:12.667025
2,2,4,7,4,2,1,1,2021-08-07 10:48:12.667025
0,2,1,3,8,2,0,1,2021-08-07 10:48:12.682025
-4,-4,-6,-15,-12,-5,-3,-2,2021-08-07 10:48:12.682025
3,2,6,13,14,5,2,0,2021-08-07 10:48:12.688026
-1,0,-5,-8,-11,-4,-2,0,2021-08-07 10:48:12.688026
-1,-1,2,2,3,0,-1,-1,2021-08-07 10:48:12.703025
0,-1,-1,0,-2,-1,-2,-2,2021-08-07 10:48:12.704026
-2,-4,-4,-9,-6,-5,-2,-2,2021-08-07 10:48:12.704026
1,2,1,0,2,0,0,-1,2021-08-07 10:48:12.704026
2,0,2,6,3,2,1,0,2021-08-07 10:48:12.726026
0,-2,-4,-10,-12,-6,-3,-1,2021-08-07 10:48:12.726026
0,-1,3,9,16,5,1,0,2021-08-07 10:48:12.727030
0,0,1,3,2,0,0,0,2021-08-07 10:48:12.727030
-1,1,-1,2,-1,-1,0,0,2021-08-07 10:48:12.742025
-2,0,0,-4,-7,-3,-1,1,2021-08-07 10:48:12.742025
-3,-2,-1,1,-3,-1,-1,0,2021-08-07 10:48:12.748026
-1,-3,-2,-4,-4,-2,0,0,2021-08-07 10:48:12.748026
-3,-3,-2,-4,-2,-3,-3,-2,2021-08-07 10:48:12.764027
-1,-1,0,2,2,0,0,0,2021-08-07 10:48:12.764027
0,0,-1,-4,-5,-1,-2,-3,2021-08-07 10:48:12.764027
-1,0,-1,0,2,1,-1,0,2021-08-07 10:48:12.764027
0,0,0,-1,-4,-2,0,0,2021-08-07 10:48:12.786027
-2,-4,-5,-7,-10,-5,-2,-3,2021-08-07 10:48:12.786027
2,1,2,6,12,7,1,1,2021-08-07 10:48:12.787026
-1,-1,-3,-5,-6,-2,-2,-3,2021-08-07 10:48:12.787026
-2,-1,-2,-2,-1,-1,-2,1,2021-08-07 10:48:12.802028
2,1,-1,1,3,1,0,-1,2021-08-07 10:48:12.802028
-2,-4,-4,-9,-11,-6,-3,-3,2021-08-07 10:48:12.808025
-1,-3,-2,-3,-2,-2,-1,-2,2021-08-07 10:48:12.808025
-2,-3,-3,-6,-7,-5,-3,-3,2021-08-07 10:48:12.824026
1,3,6,9,10,5,0,1,2021-08-07 10:48:12.824026
0,-1,-2,-2,-2,-1,-1,1,2021-08-07 10:48:12.824026
0,-1,-2,0,0,-1,-1,-2,2021-08-07 10:48:12.824026
0,0,2,3,2,2,0,1,2021-08-07 10:48:12.839024
-3,-3,-6,-9,-12,-4,-3,-3,2021-08-07 10:48:12.839024
0,1,1,1,4,2,-1,1,2021-08-07 10:48:12.845025
-1,0,-2,0,-2,-2,-2,-2,2021-08-07 10:48:12.846026
0,-2,-1,-4,0,-1,-1,0,2021-08-07 10:48:12.862027
1,2,2,5,2,2,1,1,2021-08-07 10:48:12.862027
0,-1,-3,-3,-1,-2,-1,-1,2021-08-07 10:48:12.868026
0,-1,0,-3,-4,-2,1,1,2021-08-07 10:48:12.868026
-1,-1,-1,-4,-3,1,-1,-2,2021-08-07 10:48:12.884026
0,1,0,3,2,0,0,-1,2021-08-07 10:48:12.884026
-1,-1,-2,-4,-7,-2,-1,-2,2021-08-07 10:48:12.884026
-1,-1,-1,-2,-2,-1,-2,0,2021-08-07 10:48:12.884026
1,-2,-3,2,0,-1,-2,-2,2021-08-07 10:48:12.899023
0,0,1,4,6,0,0,0,2021-08-07 10:48:12.900025
0,-1,-5,-9,-10,-4,-2,1,2021-08-07 10:48:12.905023
0,0,2,3,3,2,-1,-1,2021-08-07 10:48:12.906027
0,1,3,8,3,2,1,0,2021-08-07 10:48:12.922026
-1,-2,-3,-2,-2,-3,-1,-1,2021-08-07 10:48:12.922026
-1,0,0,-1,-4,-3,-1,-2,2021-08-07 10:48:12.928025
-1,-2,-2,5,11,4,-1,-1,2021-08-07 10:48:12.928025
-2,-3,-3,-3,-2,-3,-3,-2,2021-08-07 10:48:12.943024
-1,-2,-3,-8,-5,-3,-1,-1,2021-08-07 10:48:12.944029
-2,1,1,0,-4,-4,-2,-1,2021-08-07 10:48:12.944029
0,-1,-1,1,0,1,0,1,2021-08-07 10:48:12.944029
-1,-1,-1,1,1,-2,-2,-2,2021-08-07 10:48:12.960026
-1,0,-3,-3,-4,-2,-2,-2,2021-08-07 10:48:12.960026
-3,-3,-1,0,3,-1,-1,-1,2021-08-07 10:48:12.965026
-1,-1,-2,-4,-4,-3,-1,-1,2021-08-07 10:48:12.966026
1,0,0,1,4,2,1,0,2021-08-07 10:48:12.982028
-2,-2,-1,-3,-8,-7,-3,-1,2021-08-07 10:48:12.982028
-2,0,0,1,2,1,0,0,2021-08-07 10:48:12.988025
0,2,1,2,5,0,1,-1,2021-08-07 10:48:12.988025
0,-1,0,-3,-3,-1,0,0,2021-08-07 10:48:13.003025
-1,1,3,7,4,2,1,3,2021-08-07 10:48:13.003025
-1,-1,-1,-3,-3,-2,-2,-2,2021-08-07 10:48:13.011026
-3,-2,-4,-6,-5,-4,-3,-1,2021-08-07 10:48:13.011026
-2,0,0,1,1,1,-1,0,2021-08-07 10:48:13.026027
0,-3,-1,-4,2,2,-1,-1,2021-08-07 10:48:13.026027
-1,-2,-1,-6,-8,-3,0,-1,2021-08-07 10:48:13.027026
1,1,3,5,2,1,1,0,2021-08-07 10:48:13.027026
0,1,0,2,4,1,0,-1,2021-08-07 10:48:13.040026
-1,-1,-2,0,-2,-1,-1,0,2021-08-07 10:48:13.040026
1,-1,-2,-5,-5,-3,-1,-2,2021-08-07 10:48:13.048026
-1,-1,-3,-6,-4,-2,-2,-3,2021-08-07 10:48:13.048026
0,0,1,1,5,2,0,0,2021-08-07 10:48:13.063023
-2,-2,-2,1,-2,-2,-2,-1,2021-08-07 10:48:13.063023
-3,-2,-2,-2,-5,-4,-2,-1,2021-08-07 10:48:13.070025
-2,-1,-2,-10,-11,-5,-1,-3,2021-08-07 10:48:13.071027
0,0,0,8,6,4,2,1,2021-08-07 10:48:13.086023
-1,-1,-4,-9,-2,0,-2,-2,2021-08-07 10:48:13.086023
2,2,4,10,8,4,2,2,2021-08-07 10:48:13.087025
-2,-2,-4,-7,-6,-4,-3,0,2021-08-07 10:48:13.087025
-3,-1,-1,-8,-9,-5,-3,-3,2021-08-07 10:48:13.100023
0,2,5,9,6,1,0,1,2021-08-07 10:48:13.101025
0,0,2,1,6,4,0,1,2021-08-07 10:48:13.108027
0,0,0,3,1,0,-3,-1,2021-08-07 10:48:13.108027
-3,-4,-5,-8,-10,-5,-3,-1,2021-08-07 10:48:13.123026
-1,-1,-2,-2,-1,0,0,-1,2021-08-07 10:48:13.123026
-1,-1,-2,-3,-2,-1,0,-1,2021-08-07 10:48:13.130024
-2,-2,0,1,-2,0,-1,0,2021-08-07 10:48:13.131029
-1,0,1,1,0,0,1,1,2021-08-07 10:48:13.146025
0,0,2,1,1,0,-1,-1,2021-08-07 10:48:13.146025
-1,-1,-1,0,-2,-2,-2,-2,2021-08-07 10:48:13.147026
-1,-1,-4,-9,-5,-2,-1,-1,2021-08-07 10:48:13.147026
1,-1,0,1,5,1,0,1,2021-08-07 10:48:13.161025
0,0,-1,-1,0,-2,0,0,2021-08-07 10:48:13.161025
-1,-1,0,1,6,2,-1,-1,2021-08-07 10:48:13.168025
-3,-1,-4,-3,-7,-6,-3,-2,2021-08-07 10:48:13.168025
4,2,4,7,2,3,2,1,2021-08-07 10:48:13.184027
1,0,0,6,10,3,2,-1,2021-08-07 10:48:13.185027
-1,-3,-3,-5,-8,-3,-1,-1,2021-08-07 10:48:13.190028
0,-2,-2,-2,-1,-2,2,1,2021-08-07 10:48:13.191026
-2,-3,-3,-6,-1,-3,-1,-1,2021-08-07 10:48:13.206024
-1,-1,-2,-1,-2,0,-1,-1,2021-08-07 10:48:13.206024
-2,-2,-2,-1,-3,-2,-2,-3,2021-08-07 10:48:13.207026
-3,-2,0,1,4,-1,-3,-3,2021-08-07 10:48:13.207026
-3,-2,-3,-5,-8,-5,-6,-4,2021-08-07 10:48:13.220024
0,1,2,0,3,0,0,-1,2021-08-07 10:48:13.220024
1,2,2,4,4,0,1,0,2021-08-07 10:48:13.228028
0,0,-1,-7,-8,-3,-3,0,2021-08-07 10:48:13.228028
1,0,-1,3,-2,-1,0,0,2021-08-07 10:48:13.243025
-1,-2,-1,0,0,-1,0,0,2021-08-07 10:48:13.243025
-1,0,-3,-3,-3,-3,1,0,2021-08-07 10:48:13.250026
-2,-2,-3,0,2,1,0,-1,2021-08-07 10:48:13.251027
-1,-2,-1,-2,-5,-3,-2,-2,2021-08-07 10:48:13.267025
0,-2,2,7,4,2,-1,1,2021-08-07 10:48:13.267025
0,0,0,-4,-2,-1,-2,0,2021-08-07 10:48:13.267025
-2,-1,-1,4,3,0,-2,-1,2021-08-07 10:48:13.268027
0,1,0,-3,1,-1,0,-1,2021-08-07 10:48:13.281026
0,-1,1,6,5,1,2,0,2021-08-07 10:48:13.281026
-2,-3,-3,-6,-6,-4,0,-2,2021-08-07 10:48:13.288026
1,1,0,2,-2,-1,1,1,2021-08-07 10:48:13.288026
-3,-2,0,3,5,0,-1,-2,2021-08-07 10:48:13.303023
-3,0,-2,-5,0,2,1,1,2021-08-07 10:48:13.303023
-1,0,0,0,-1,-2,-1,-1,2021-08-07 10:48:13.310023
1,0,-1,-2,-5,-2,-1,0,2021-08-07 10:48:13.311026
0,-1,-3,-5,-3,-1,-1,-1,2021-08-07 10:48:13.328029
0,0,3,8,2,2,0,-1,2021-08-07 10:48:13.328029
-2,-2,-3,-5,-1,1,-1,-1,2021-08-07 10:48:13.328029
1,1,5,10,11,4,2,-2,2021-08-07 10:48:13.328029
-1,1,-3,-6,-7,-2,-1,0,2021-08-07 10:48:13.340026
-1,-2,-5,-9,-10,-5,-2,-3,2021-08-07 10:48:13.341027
-1,-1,-3,-3,-5,-1,-3,-1,2021-08-07 10:48:13.348025
0,0,3,2,2,1,-1,0,2021-08-07 10:48:13.348025
-1,-1,-1,-1,1,-2,0,-1,2021-08-07 10:48:13.363027
-1,1,0,2,4,1,0,-1,2021-08-07 10:48:13.363027
0,-3,1,0,-2,-2,-1,-2,2021-08-07 10:48:13.379025
0,0,-3,-1,2,0,-2,-1,2021-08-07 10:48:13.379025
-1,1,0,1,-1,0,0,0,2021-08-07 10:48:13.387026
-1,-3,-5,-15,-11,-2,-3,-2,2021-08-07 10:48:13.387026
-1,1,4,11,5,1,0,-1,2021-08-07 10:48:13.387026
1,0,0,-1,0,-3,0,0,2021-08-07 10:48:13.387026
-3,-3,-3,-8,-11,-4,-4,-2,2021-08-07 10:48:13.400027
0,-2,-4,-5,2,2,0,0,2021-08-07 10:48:13.401025
1,2,0,5,9,3,1,1,2021-08-07 10:48:13.408026
-1,-1,1,6,1,3,1,0,2021-08-07 10:48:13.408026
-1,-1,-2,0,-1,-1,-1,1,2021-08-07 10:48:13.423025
-2,-2,-1,-1,-6,-5,-3,-1,2021-08-07 10:48:13.423025
1,0,-3,-3,-3,-1,0,0,2021-08-07 10:48:13.430025
-2,-2,-1,0,3,1,-2,-2,2021-08-07 10:48:13.431025
0,0,1,1,-2,2,1,0,2021-08-07 10:48:13.446028
0,1,1,-1,-1,0,0,0,2021-08-07 10:48:13.446028
-1,-2,-4,-4,-5,-1,-1,-1,2021-08-07 10:48:13.447025
-1,-4,0,0,1,0,1,-1,2021-08-07 10:48:13.447025
0,-2,-2,-1,4,1,-1,0,2021-08-07 10:48:13.460029
-3,-1,0,1,1,0,-1,-2,2021-08-07 10:48:13.461027
0,-1,-1,-4,-3,0,0,-2,2021-08-07 10:48:13.468028
-2,-3,-5,-13,-12,-4,-1,0,2021-08-07 10:48:13.468028
-3,-1,1,5,4,0,-2,-1,2021-08-07 10:48:13.491027
0,-2,2,5,2,-1,1,1,2021-08-07 10:48:13.491027
0,-2,0,-4,-2,-3,-1,-1,2021-08-07 10:48:13.498025
0,0,0,2,-4,-2,0,-2,2021-08-07 10:48:13.499030
0,0,-1,-3,2,1,1,0,2021-08-07 10:48:13.506025
-1,-1,0,1,5,2,2,2,2021-08-07 10:48:13.506025
-1,-1,-1,3,3,-2,-1,-2,2021-08-07 10:48:13.507029
-2,0,-2,-7,-6,-1,-2,1,2021-08-07 10:48:13.507029
0,0,0,1,-2,-1,-1,-2,2021-08-07 10:48:13.522025
0,-2,-5,-5,-8,-3,-4,-1,2021-08-07 10:48:13.522025
-1,-1,0,1,4,1,-1,-1,2021-08-07 10:48:13.528025
-2,0,-1,-2,-2,-3,-1,-1,2021-08-07 10:48:13.528025
-1,-1,-2,-1,-2,-1,0,-2,2021-08-07 10:48:13.543023
0,-2,-4,-5,-5,-4,-2,-3,2021-08-07 10:48:13.543023
1,-1,-1,-2,-2,-2,0,0,2021-08-07 10:48:13.550023
2,0,1,7,5,2,-1,-1,2021-08-07 10:48:13.551025
0,-1,-1,-5,-5,-3,-1,0,2021-08-07 10:48:13.566026
3,1,4,8,10,3,2,0,2021-08-07 10:48:13.566026
-2,-2,-4,-4,-5,-2,-2,-2,2021-08-07 10:48:13.567025
-2,-4,-5,-6,-3,-1,-1,-2,2021-08-07 10:48:13.567025
-4,-2,-3,-5,-4,-3,-1,-2,2021-08-07 10:48:13.580025
1,0,-1,0,6,3,1,0,2021-08-07 10:48:13.581029
-2,1,1,0,0,0,-3,2,2021-08-07 10:48:13.588025
-2,-3,0,-2,-5,-2,-1,-2,2021-08-07 10:48:13.588025
3,1,1,4,13,5,2,1,2021-08-07 10:48:13.602545
-3,-3,-2,-7,-11,-7,-3,-2,2021-08-07 10:48:13.603547
0,-1,0,-2,-1,1,-1,-1,2021-08-07 10:48:13.610067
-2,-2,-2,-5,-3,-2,-2,-3,2021-08-07 10:48:13.611071
3,2,3,10,8,6,3,3,2021-08-07 10:48:13.626067
0,-1,-1,-1,-1,-1,-1,-3,2021-08-07 10:48:13.626067
0,0,-2,-5,-3,-2,0,0,2021-08-07 10:48:13.627067
-1,0,-2,-5,-5,-4,-1,-1,2021-08-07 10:48:13.627067
-1,-2,-2,-1,-3,-3,-2,-1,2021-08-07 10:48:13.640072
-1,-1,-4,-6,-4,-2,-2,-1,2021-08-07 10:48:13.640072
-2,-1,-1,2,1,-1,1,-1,2021-08-07 10:48:13.648068
0,0,3,8,7,2,0,-3,2021-08-07 10:48:13.648068
-2,-4,-3,-4,-5,-3,-3,-2,2021-08-07 10:48:13.663068
0,-1,0,2,-3,1,-1,0,2021-08-07 10:48:13.663068
0,-1,-2,-7,-2,-2,-2,-1,2021-08-07 10:48:13.670066
0,0,-2,2,4,1,0,1,2021-08-07 10:48:13.671066
-1,-1,1,-2,-2,0,-1,-1,2021-08-07 10:48:13.686067
-4,-2,-2,-8,-14,-7,-4,-1,2021-08-07 10:48:13.686067
-1,0,1,1,5,1,0,-1,2021-08-07 10:48:13.687069
0,0,3,7,6,3,0,1,2021-08-07 10:48:13.687069
0,-1,-3,-7,-8,-5,-3,0,2021-08-07 10:48:13.700067
-1,1,1,-3,-3,-1,0,0,2021-08-07 10:48:13.700067
1,0,3,5,7,3,1,1,2021-08-07 10:48:13.708070
-1,0,-2,-7,-7,-4,-1,-2,2021-08-07 10:48:13.708070
-3,-2,-3,-1,-2,-2,-2,0,2021-08-07 10:48:13.723066
-2,0,-2,-5,0,-1,-1,-1,2021-08-07 10:48:13.723066
1,1,1,6,5,3,1,1,2021-08-07 10:48:13.730067
-1,-1,-1,0,1,-1,0,0,2021-08-07 10:48:13.731071
0,-1,0,-1,-5,-1,-2,-2,2021-08-07 10:48:13.746067
-3,-3,-2,2,4,1,-1,-1,2021-08-07 10:48:13.746067
-2,-2,-3,-4,-6,-4,-3,-2,2021-08-07 10:48:13.747067
-1,-2,-2,-7,-5,-2,-4,-1,2021-08-07 10:48:13.747067
-1,0,0,3,3,1,1,0,2021-08-07 10:48:13.760066
-1,0,1,3,1,0,-1,0,2021-08-07 10:48:13.760066
-3,-1,-3,-5,-6,-3,-3,-1,2021-08-07 10:48:13.768065
-1,0,-4,-3,-2,-3,-2,-1,2021-08-07 10:48:13.768065
0,0,1,5,6,1,-2,-1,2021-08-07 10:48:13.783067
4,3,1,5,9,6,1,1,2021-08-07 10:48:13.783067
-1,-2,-2,-2,-5,-3,-4,-3,2021-08-07 10:48:13.790068
-4,-2,-3,-4,-5,-3,-2,-1,2021-08-07 10:48:13.790068
-2,-2,0,-3,-6,-2,-2,-1,2021-08-07 10:48:13.807069
0,-1,-1,2,1,-1,-1,-1,2021-08-07 10:48:13.808069
-1,-2,-1,-4,-7,-4,-1,-1,2021-08-07 10:48:13.808069
1,2,4,12,13,5,2,2,2021-08-07 10:48:13.808069
1,2,0,5,9,2,1,0,2021-08-07 10:48:13.820070
-2,-2,-1,-4,-8,-5,-1,0,2021-08-07 10:48:13.820070
-2,-1,-2,-4,-6,-3,-1,-1,2021-08-07 10:48:13.827587
-2,-3,-3,-8,-7,-2,-2,-1,2021-08-07 10:48:13.828586
-1,0,2,4,2,0,0,-1,2021-08-07 10:48:13.842585
0,-2,-1,1,-1,-1,-3,-1,2021-08-07 10:48:13.842585
1,1,-1,5,3,2,2,1,2021-08-07 10:48:13.850585
-1,1,1,4,5,2,0,0,2021-08-07 10:48:13.850585
-1,-2,-5,-9,-8,-3,-2,-1,2021-08-07 10:48:13.865584
-2,-2,-1,-3,-7,-2,-1,-2,2021-08-07 10:48:13.866585
-1,-3,-3,-3,-3,-2,-2,-1,2021-08-07 10:48:13.866585
2,1,2,7,10,4,2,0,2021-08-07 10:48:13.866585
-2,0,0,1,2,-1,-1,0,2021-08-07 10:48:13.880585
0,2,0,-2,-2,-1,0,-2,2021-08-07 10:48:13.880585
-3,-2,-2,-6,-11,-6,-4,-3,2021-08-07 10:48:13.887585
0,-2,-1,2,1,2,2,0,2021-08-07 10:48:13.887585
-2,-1,0,-5,-5,-2,0,0,2021-08-07 10:48:13.902585
-2,-1,-4,-4,-7,-2,0,0,2021-08-07 10:48:13.902585
0,-1,0,2,8,4,1,1,2021-08-07 10:48:13.910584
-2,-1,-1,0,-4,-3,-3,0,2021-08-07 10:48:13.910584
-2,-2,-3,-2,-2,-2,0,-1,2021-08-07 10:48:13.925587
1,-2,0,2,1,-2,0,0,2021-08-07 10:48:13.925587
0,2,2,3,-3,-1,0,0,2021-08-07 10:48:13.933584
-1,-2,-2,-4,-5,-2,-1,-2,2021-08-07 10:48:13.933584
0,2,0,3,6,1,0,-1,2021-08-07 10:48:13.940586
-3,-3,-3,-6,-6,-3,-4,-2,2021-08-07 10:48:13.940586
0,0,0,1,2,3,-1,0,2021-08-07 10:48:13.947586
-1,-1,-3,-5,-6,-2,-2,-3,2021-08-07 10:48:13.947586
1,2,2,6,8,4,2,0,2021-08-07 10:48:13.962588
0,-2,-1,-2,0,-2,-2,-2,2021-08-07 10:48:13.963586
-2,0,1,1,3,1,0,1,2021-08-07 10:48:13.970585
-2,-2,-4,-6,-9,-5,-1,-2,2021-08-07 10:48:13.970585
-2,-2,-2,-8,-10,-4,0,-1,2021-08-07 10:48:13.985586
2,2,3,15,17,6,3,3,2021-08-07 10:48:13.985586
3,1,3,3,1,0,2,-2,2021-08-07 10:48:13.993585
0,-1,-3,-7,-3,-2,-3,1,2021-08-07 10:48:13.993585
-1,-2,-3,-3,-5,-2,-3,-1,2021-08-07 10:48:14.000585
1,-1,-2,-3,-1,-1,2,1,2021-08-07 10:48:14.000585
-2,-3,-4,1,-1,-1,-2,-2,2021-08-07 10:48:14.007586
-1,-1,-2,3,2,1,0,-1,2021-08-07 10:48:14.007586
-4,-3,-4,-7,-6,-4,-4,-4,2021-08-07 10:48:14.022584
-3,0,3,2,-1,1,-2,-2,2021-08-07 10:48:14.023586
-3,0,1,1,4,0,-2,-3,2021-08-07 10:48:14.030587
-1,1,0,-3,-6,-3,-1,0,2021-08-07 10:48:14.030587
1,0,-1,-2,-4,-3,-2,0,2021-08-07 10:48:14.045584
1,0,-1,-1,2,0,1,1,2021-08-07 10:48:14.045584
0,-1,0,3,4,-1,-1,-1,2021-08-07 10:48:14.053584
1,2,1,3,6,3,1,1,2021-08-07 10:48:14.053584
0,-1,-1,-2,-5,-1,-2,-1,2021-08-07 10:48:14.068586
-2,-2,-4,-2,0,-1,-2,-2,2021-08-07 10:48:14.068586
0,-1,-1,-3,-6,-2,-1,-1,2021-08-07 10:48:14.069586
-2,-2,-2,-3,-1,-2,1,0,2021-08-07 10:48:14.069586
-1,-1,0,3,-1,1,0,-2,2021-08-07 10:48:14.084586
-3,0,-2,-4,-6,-4,-3,-2,2021-08-07 10:48:14.084586
-1,-2,-2,-7,-4,-1,-1,0,2021-08-07 10:48:14.090588
0,-1,-1,0,2,0,-1,-2,2021-08-07 10:48:14.090588
0,0,-1,-6,-1,-1,0,0,2021-08-07 10:48:14.105585
-2,-1,-1,1,0,0,-2,0,2021-08-07 10:48:14.105585
-1,-3,-2,0,1,-2,-2,-2,2021-08-07 10:48:14.113585
-2,-1,-3,-4,-7,-5,-2,-2,2021-08-07 10:48:14.113585
0,-1,1,5,5,1,1,0,2021-08-07 10:48:14.128585
-3,-2,-2,-5,-5,-5,-2,-1,2021-08-07 10:48:14.128585
-1,1,0,-4,-2,-2,-1,1,2021-08-07 10:48:14.129590
0,0,1,0,-1,-2,-1,0,2021-08-07 10:48:14.129590
1,0,-2,-4,-1,-1,0,-1,2021-08-07 10:48:14.151590
-1,-1,2,0,-3,-1,1,-1,2021-08-07 10:48:14.151590
1,0,1,6,5,0,2,-1,2021-08-07 10:48:14.151590
-1,-3,1,3,6,0,0,-2,2021-08-07 10:48:14.151590
-3,-3,-1,-2,-1,0,-2,-1,2021-08-07 10:48:14.165585
0,0,-1,0,-7,-3,-1,-1,2021-08-07 10:48:14.165585
0,-1,-3,-4,-1,-1,-1,-1,2021-08-07 10:48:14.173587
0,2,2,5,5,3,1,0,2021-08-07 10:48:14.173587
-1,-1,-3,-6,-2,-3,-1,-1,2021-08-07 10:48:14.188583
0,0,2,2,0,0,-1,0,2021-08-07 10:48:14.188583
-4,-3,-2,-3,-2,-1,-2,-3,2021-08-07 10:48:14.189585
2,3,1,6,7,0,0,0,2021-08-07 10:48:14.189585
-3,-4,-4,-7,-6,-4,-1,-3,2021-08-07 10:48:14.202583
0,-2,-4,-5,-3,-5,-1,0,2021-08-07 10:48:14.202583
0,-1,-2,0,-2,0,0,-3,2021-08-07 10:48:14.210584
-1,-2,0,1,-1,-1,-1,-1,2021-08-07 10:48:14.210584
0,1,0,4,4,3,1,1,2021-08-07 10:48:14.225585
-2,-2,-3,-5,-6,-1,-1,-1,2021-08-07 10:48:14.225585
-1,-1,-2,2,4,-1,0,-1,2021-08-07 10:48:14.233585
0,-2,-3,-6,-5,-1,-2,-1,2021-08-07 10:48:14.233585
2,1,1,-2,-1,-1,-1,0,2021-08-07 10:48:14.248585
0,1,2,7,6,3,0,-1,2021-08-07 10:48:14.248585
-1,-1,-1,-4,-5,-1,-2,0,2021-08-07 10:48:14.249585
-4,-3,-3,-6,-6,-2,-3,-2,2021-08-07 10:48:14.249585
0,-4,0,3,-2,-3,-2,-1,2021-08-07 10:48:14.262588
3,1,3,4,13,6,3,0,2021-08-07 10:48:14.263585
0,0,2,7,4,1,1,1,2021-08-07 10:48:14.270585
-3,-3,-3,-4,-7,-4,-3,-3,2021-08-07 10:48:14.270585
0,1,1,2,-2,0,0,0,2021-08-07 10:48:14.285586
-1,-1,-3,-6,-1,-4,-3,1,2021-08-07 10:48:14.285586
0,-2,-1,-6,-8,-4,-2,0,2021-08-07 10:48:14.293586
2,0,2,10,14,5,2,1,2021-08-07 10:48:14.293586
-1,-1,-4,-10,-12,-6,-2,-2,2021-08-07 10:48:14.316585
4,5,8,25,21,9,5,3,2021-08-07 10:48:14.316585
-1,-1,-3,-12,-6,-1,-2,-1,2021-08-07 10:48:14.317585
0,1,0,4,8,4,1,0,2021-08-07 10:48:14.317585
-1,-1,1,2,-6,-4,-2,0,2021-08-07 10:48:14.322585
-3,-3,-5,-11,-19,-8,-5,-5,2021-08-07 10:48:14.323585
1,1,0,8,14,6,2,1,2021-08-07 10:48:14.330589
-2,0,1,-1,-4,1,1,0,2021-08-07 10:48:14.330589
1,-1,-4,-2,2,2,1,-1,2021-08-07 10:48:14.345586
-4,-2,-6,-14,-13,-7,-1,-1,2021-08-07 10:48:14.345586
-1,-2,-2,-2,-6,-4,-3,-1,2021-08-07 10:48:14.353586
-1,-2,-3,-7,-8,-5,-3,-2,2021-08-07 10:48:14.353586
-3,1,1,2,4,2,-1,0,2021-08-07 10:48:14.368585
0,-1,2,1,0,-1,1,0,2021-08-07 10:48:14.368585
-1,0,-1,-3,-7,-1,0,0,2021-08-07 10:48:14.369585
-1,-1,0,2,5,1,1,1,2021-08-07 10:48:14.369585
-1,-1,0,-2,-4,-2,-1,-1,2021-08-07 10:48:14.382585
-2,-1,-3,-5,0,0,0,-2,2021-08-07 10:48:14.382585
0,1,2,7,11,4,2,0,2021-08-07 10:48:14.390585
0,-3,-4,-10,-13,-5,-2,-2,2021-08-07 10:48:14.390585
-2,-2,-1,2,4,1,-1,-1,2021-08-07 10:48:14.405584
0,0,1,1,3,3,1,-1,2021-08-07 10:48:14.405584
-1,0,-2,-2,-3,-2,-3,-3,2021-08-07 10:48:14.413583
0,0,1,1,1,-2,1,-2,2021-08-07 10:48:14.413583
-1,-2,-3,-3,-1,-2,0,0,2021-08-07 10:48:14.429588
2,-1,2,4,3,0,-1,1,2021-08-07 10:48:14.429588
-3,-3,-2,-5,-4,-3,-2,-3,2021-08-07 10:48:14.429588
-1,-2,-1,-2,-6,-3,-1,0,2021-08-07 10:48:14.429588
-1,1,1,0,-1,0,0,0,2021-08-07 10:48:14.442586
-1,-2,-1,0,2,1,-2,-1,2021-08-07 10:48:14.442586
-2,-1,-4,-2,-6,-3,-1,0,2021-08-07 10:48:14.450586
-3,-2,-3,-6,-3,-2,-4,-1,2021-08-07 10:48:14.450586
1,2,-1,3,6,2,0,-2,2021-08-07 10:48:14.465586
-2,-2,-3,-6,-7,-5,-2,-1,2021-08-07 10:48:14.465586
1,0,0,-1,-3,-2,-1,1,2021-08-07 10:48:14.473586
0,0,-1,2,0,0,-1,-1,2021-08-07 10:48:14.473586
-3,-5,-5,-9,-7,-4,-3,-1,2021-08-07 10:48:14.488585
1,-1,-3,6,6,3,0,-1,2021-08-07 10:48:14.488585
1,-1,1,-1,-3,0,2,0,2021-08-07 10:48:14.489585
-1,0,-1,-1,1,-1,-1,-1,2021-08-07 10:48:14.489585
0,0,0,3,5,2,1,0,2021-08-07 10:48:14.502584
-1,-2,-2,-3,-5,-2,-2,0,2021-08-07 10:48:14.502584
-2,-1,1,2,0,-2,-1,0,2021-08-07 10:48:14.510587
-1,0,-1,-3,-10,-5,-2,-2,2021-08-07 10:48:14.510587
0,0,-1,-1,-3,-1,-1,-1,2021-08-07 10:48:14.534586
0,1,-2,2,7,4,0,-2,2021-08-07 10:48:14.534586
-1,1,-3,-5,-6,-2,-2,0,2021-08-07 10:48:14.534586
-1,-1,-3,-5,-4,-3,-3,-2,2021-08-07 10:48:14.534586
-1,-2,0,0,-3,-2,-2,0,2021-08-07 10:48:14.548586
-1,-2,-1,0,0,-2,0,-1,2021-08-07 10:48:14.548586
0,-1,1,7,2,1,-1,-1,2021-08-07 10:48:14.549589
-1,-1,1,2,0,-1,-3,-2,2021-08-07 10:48:14.549589
1,1,-1,-3,2,2,1,0,2021-08-07 10:48:14.562585
0,1,1,1,1,1,-1,1,2021-08-07 10:48:14.563588
-3,-5,-7,-12,-12,-7,-5,-4,2021-08-07 10:48:14.570585
1,1,1,4,6,3,2,2,2021-08-07 10:48:14.570585
1,2,2,9,5,3,0,-1,2021-08-07 10:48:14.585585
-1,1,-1,0,4,-1,0,1,2021-08-07 10:48:14.585585
0,-1,-1,3,2,1,0,-2,2021-08-07 10:48:14.593586
-1,-4,-5,-6,-8,-4,-3,-3,2021-08-07 10:48:14.594587
-1,1,3,0,1,0,-1,0,2021-08-07 10:48:14.608585
-1,-1,-2,-3,-2,-3,-1,-3,2021-08-07 10:48:14.608585
-1,-1,-1,-3,-1,-1,-1,0,2021-08-07 10:48:14.609586
-1,-3,-2,-3,-3,-1,2,0,2021-08-07 10:48:14.609586
-2,-3,-3,0,2,-3,-2,-2,2021-08-07 10:48:14.631588
0,-1,0,-2,-6,-2,-2,0,2021-08-07 10:48:14.631588
-1,0,-2,-5,3,1,-1,0,2021-08-07 10:48:14.631588
-2,1,-2,-4,-5,-3,0,-1,2021-08-07 10:48:14.631588
2,-2,0,-1,-2,-3,-1,-2,2021-08-07 10:48:14.645586
1,-2,-1,-1,-3,-1,-1,-3,2021-08-07 10:48:14.645586
0,0,2,5,1,1,1,0,2021-08-07 10:48:14.653583
1,1,4,3,8,4,1,1,2021-08-07 10:48:14.653583
0,-2,-4,-7,-4,-5,0,0,2021-08-07 10:48:14.668583
-3,-2,-4,-8,-10,-5,-2,-2,2021-08-07 10:48:14.668583
-2,-3,-1,-9,-4,-4,-1,-2,2021-08-07 10:48:14.669587
-2,-1,0,6,3,2,-2,-1,2021-08-07 10:48:14.669587
0,-1,-1,-3,-6,-1,0,-2,2021-08-07 10:48:14.682586
-1,0,-1,-2,6,2,0,0,2021-08-07 10:48:14.683589
1,0,1,2,-5,0,0,1,2021-08-07 10:48:14.690592
-3,-3,-5,-6,-4,-3,-2,-2,2021-08-07 10:48:14.690592
0,-1,1,4,8,2,0,2,2021-08-07 10:48:14.706588
-1,0,-1,-1,-4,-1,0,-1,2021-08-07 10:48:14.707585
0,1,1,5,5,2,-1,-1,2021-08-07 10:48:14.713585
0,0,1,6,-2,-3,-3,0,2021-08-07 10:48:14.713585
-3,-3,-4,-7,-3,1,-1,-3,2021-08-07 10:48:14.728583
0,0,2,-1,1,0,-1,0,2021-08-07 10:48:14.728583
-1,0,0,1,-1,-1,0,-1,2021-08-07 10:48:14.729586
0,-2,1,2,0,1,-1,-1,2021-08-07 10:48:14.729586
0,0,-1,-1,1,-1,1,-1,2021-08-07 10:48:14.742587
-1,-3,-2,-2,-4,-2,-1,-1,2021-08-07 10:48:14.742587
-2,-2,-4,-2,-3,-2,-1,-1,2021-08-07 10:48:14.750587
-2,-1,-4,-9,-9,-4,-1,0,2021-08-07 10:48:14.750587
0,-1,-3,1,2,1,0,1,2021-08-07 10:48:14.774589
-1,-3,-2,-8,-12,-5,-3,-3,2021-08-07 10:48:14.774589
6,7,10,25,34,14,6,6,2021-08-07 10:48:14.774589
-2,-1,-1,-2,-7,-4,-1,-2,2021-08-07 10:48:14.775589
-3,-3,-1,-1,-4,-3,-3,-2,2021-08-07 10:48:14.788586
-1,0,-4,-7,-7,-3,-1,1,2021-08-07 10:48:14.788586
-5,-3,-3,-9,-8,-4,-3,-3,2021-08-07 10:48:14.795585
-1,-1,-1,-3,2,0,-1,0,2021-08-07 10:48:14.796588
1,3,4,12,12,5,2,1,2021-08-07 10:48:14.802586
0,-1,0,4,4,1,-2,1,2021-08-07 10:48:14.802586
0,-2,-2,-4,-7,-3,-2,-1,2021-08-07 10:48:14.810587
1,0,-1,-2,-1,0,-1,0,2021-08-07 10:48:14.810587
0,-3,-5,-7,-9,-5,0,-2,2021-08-07 10:48:14.825585
-2,-3,0,-5,-3,-1,1,0,2021-08-07 10:48:14.825585
-2,-4,-4,-3,-5,-1,-1,0,2021-08-07 10:48:14.833586
-1,1,2,8,4,2,1,-1,2021-08-07 10:48:14.833586
-3,-3,-1,-1,-2,-3,-2,-2,2021-08-07 10:48:14.847586
-1,2,3,6,14,5,1,-1,2021-08-07 10:48:14.848585
-3,-1,-1,-3,-5,-4,-4,-5,2021-08-07 10:48:14.856586
-2,-1,0,1,0,-2,-1,-2,2021-08-07 10:48:14.856586
1,2,1,-2,-5,-3,-2,0,2021-08-07 10:48:14.862585
-2,-3,-4,-6,-7,-2,-1,-2,2021-08-07 10:48:14.862585
0,-1,-3,-4,-4,-3,0,0,2021-08-07 10:48:14.878585
-1,-1,-2,4,8,3,0,-1,2021-08-07 10:48:14.878585
0,0,3,2,1,1,-1,0,2021-08-07 10:48:14.885588
2,-1,-1,4,-1,0,2,-1,2021-08-07 10:48:14.885588
-3,-2,-2,-7,-4,-3,-1,-1,2021-08-07 10:48:14.893585
1,1,1,4,5,2,1,1,2021-08-07 10:48:14.893585
-3,-2,-5,-2,-3,-2,-2,-1,2021-08-07 10:48:14.907585
1,1,2,3,2,1,1,1,2021-08-07 10:48:14.908585
-2,-2,-1,-4,-7,-3,-1,-1,2021-08-07 10:48:14.915586
-1,0,-1,2,0,0,-1,-1,2021-08-07 10:48:14.916585
-1,0,-1,1,2,1,0,1,2021-08-07 10:48:14.930586
0,0,-1,-4,-6,-4,-1,-2,2021-08-07 10:48:14.931585
3,2,-1,2,4,1,2,1,2021-08-07 10:48:14.931585
0,-1,1,-4,2,1,1,0,2021-08-07 10:48:14.931585
-3,-4,-3,-5,-7,-3,-3,-3,2021-08-07 10:48:14.945585
1,1,1,3,2,0,1,0,2021-08-07 10:48:14.945585
0,-2,-1,3,-1,-1,-2,0,2021-08-07 10:48:14.953585
2,1,3,7,11,4,0,2,2021-08-07 10:48:14.953585
1,3,2,4,-2,1,0,1,2021-08-07 10:48:14.967584
-2,-2,-3,-1,-2,0,-1,-2,2021-08-07 10:48:14.967584
-1,-1,-2,-8,-5,-3,-1,-4,2021-08-07 10:48:14.983585
0,1,1,-2,-3,-4,0,1,2021-08-07 10:48:14.983585
-2,-3,-2,-2,-5,0,-2,-1,2021-08-07 10:48:14.990586
-3,-1,0,3,9,2,0,-1,2021-08-07 10:48:14.991587
1,1,1,2,0,1,0,0,2021-08-07 10:48:14.991587
-2,-2,-4,-5,-8,-2,-2,-3,2021-08-07 10:48:14.991587
-1,-1,0,0,4,0,1,-1,2021-08-07 10:48:15.005583
-1,-2,-2,-5,-9,-2,-1,-1,2021-08-07 10:48:15.005583
-2,-1,-2,0,1,-2,-1,-1,2021-08-07 10:48:15.013585
1,0,0,-1,1,0,1,-2,2021-08-07 10:48:15.013585
-3,-3,-3,-4,-7,-4,-1,-1,2021-08-07 10:48:15.027589
-1,0,0,4,3,0,-1,-1,2021-08-07 10:48:15.028586
-2,-1,-2,-4,2,0,1,-1,2021-08-07 10:48:15.035586
-3,-3,-3,-9,-12,-5,-4,-1,2021-08-07 10:48:15.036585
1,2,4,12,18,8,1,0,2021-08-07 10:48:15.050584
-2,-1,-2,-5,-8,-5,-2,-3,2021-08-07 10:48:15.051584
1,-1,-1,-3,-2,-1,-1,0,2021-08-07 10:48:15.051584
0,2,2,9,13,6,2,1,2021-08-07 10:48:15.051584
-2,-2,-2,-7,-3,-3,-2,-3,2021-08-07 10:48:15.065586
-1,-2,-4,-5,-1,-3,-4,-3,2021-08-07 10:48:15.065586
-1,1,1,6,-2,-1,0,-2,2021-08-07 10:48:15.073587
-2,-4,-4,-10,-10,-5,-1,-2,2021-08-07 10:48:15.073587
0,-1,1,-2,-3,-4,-1,1,2021-08-07 10:48:15.087584
0,-2,-1,-1,-1,0,1,0,2021-08-07 10:48:15.087584
-3,-2,0,2,0,0,-1,0,2021-08-07 10:48:15.096585
-3,-2,-3,-6,-3,-1,-2,-1,2021-08-07 10:48:15.096585
0,0,-1,0,3,0,1,-1,2021-08-07 10:48:15.111587
-1,0,0,0,-5,-2,-2,-1,2021-08-07 10:48:15.111587
0,-3,0,-3,-3,-1,-2,0,2021-08-07 10:48:15.111587
0,2,-2,0,0,-1,0,0,2021-08-07 10:48:15.112587
-1,-2,-3,-4,-1,-1,-2,0,2021-08-07 10:48:15.125590
-2,-1,0,0,-2,-1,-1,1,2021-08-07 10:48:15.125590
0,-1,0,3,3,3,0,-1,2021-08-07 10:48:15.133585
-1,-2,-2,-5,-7,-3,-2,-3,2021-08-07 10:48:15.133585
-1,0,-1,-6,-8,-4,-1,-2,2021-08-07 10:48:15.156586
0,1,3,9,14,4,1,0,2021-08-07 10:48:15.156586
-1,0,0,1,-1,-1,1,0,2021-08-07 10:48:15.157588
-1,-2,-2,-5,-8,-5,-3,-2,2021-08-07 10:48:15.157588
1,-1,-1,6,1,-1,-1,1,2021-08-07 10:48:15.171586
0,0,1,2,5,0,1,0,2021-08-07 10:48:15.171586
0,-2,-1,-2,-3,-1,-1,-2,2021-08-07 10:48:15.172059
-1,-2,-4,-3,-3,-2,0,0,2021-08-07 10:48:15.172059
-1,-3,-3,-2,-6,-3,-1,-1,2021-08-07 10:48:15.185629
1,-1,0,1,-2,0,-2,0,2021-08-07 10:48:15.185629
0,0,-1,-2,-4,-2,-2,-2,2021-08-07 10:48:15.193628
-1,-2,-1,3,4,2,-1,0,2021-08-07 10:48:15.193628
0,-1,-2,-2,-3,-1,-1,-2,2021-08-07 10:48:15.207628
0,0,-4,-6,-1,-1,-2,0,2021-08-07 10:48:15.208631
0,1,0,1,4,1,1,-1,2021-08-07 10:48:15.215628
1,-1,1,0,-2,-3,-1,-1,2021-08-07 10:48:15.216628
0,-2,0,0,1,-1,-1,-2,2021-08-07 10:48:15.230630
-1,-1,-1,1,-2,-2,0,-2,2021-08-07 10:48:15.231629
-1,-1,-2,-4,-4,0,0,-1,2021-08-07 10:48:15.231629
-3,0,-1,-2,-1,-3,-1,-2,2021-08-07 10:48:15.231629
3,3,5,14,14,8,2,1,2021-08-07 10:48:15.245627
-1,-1,-1,-2,-6,-2,0,-1,2021-08-07 10:48:15.245627
-1,-1,-1,-1,-2,-2,-2,-2,2021-08-07 10:48:15.260629
-2,-3,-2,-5,-8,-5,-2,-1,2021-08-07 10:48:15.261630
-3,-3,-2,-6,-3,-2,-1,-3,2021-08-07 10:48:15.267629
-1,-2,-1,-1,-2,-3,-2,-1,2021-08-07 10:48:15.267629
-1,0,-1,1,-1,-2,0,0,2021-08-07 10:48:15.275630
2,2,2,3,4,3,1,0,2021-08-07 10:48:15.276630
0,0,1,2,-1,1,0,-1,2021-08-07 10:48:15.292630
1,1,0,2,6,1,0,0,2021-08-07 10:48:15.292630
-4,-2,-1,-2,-3,-3,-2,-2,2021-08-07 10:48:15.293629
-2,-2,-3,-4,-7,-4,-3,0,2021-08-07 10:48:15.293629
-3,-2,-2,0,-1,-2,-2,-2,2021-08-07 10:48:15.305629
4,3,3,11,11,7,4,1,2021-08-07 10:48:15.305629
2,-1,-1,-1,2,0,-1,0,2021-08-07 10:48:15.313631
0,1,-1,-2,2,1,0,0,2021-08-07 10:48:15.313631
-2,-2,-2,-4,-7,-3,-2,-2,2021-08-07 10:48:15.327630
-3,-5,-5,-11,-11,-6,-4,-2,2021-08-07 10:48:15.328630
-2,-1,-1,0,1,-1,-1,-2,2021-08-07 10:48:15.335629
1,1,1,2,5,1,0,0,2021-08-07 10:48:15.336628
1,0,3,6,1,-2,-2,1,2021-08-07 10:48:15.350627
-1,1,0,-4,1,-1,1,0,2021-08-07 10:48:15.350627
1,-1,0,0,1,2,0,1,2021-08-07 10:48:15.367629
-2,0,-2,0,1,-1,-2,-2,2021-08-07 10:48:15.367629
-2,0,-3,-6,-5,-3,0,-1,2021-08-07 10:48:15.368629
-3,-1,-2,-4,-5,-4,-2,0,2021-08-07 10:48:15.368629
-2,-2,-4,-2,-4,-2,-1,-1,2021-08-07 10:48:15.374630
-1,-2,1,8,3,0,-1,-2,2021-08-07 10:48:15.374630
1,-1,-2,-1,3,1,0,2,2021-08-07 10:48:15.387627
0,-1,1,-4,-4,1,-1,-2,2021-08-07 10:48:15.387627
-2,-1,-2,-5,-7,-5,-2,0,2021-08-07 10:48:15.397146
-1,-1,0,-2,-1,-1,0,-1,2021-08-07 10:48:15.397146
0,1,0,1,4,3,0,1,2021-08-07 10:48:15.410146
-2,-3,-3,-1,-8,-4,-1,-3,2021-08-07 10:48:15.410146
-1,-2,-4,-13,-4,-4,-3,0,2021-08-07 10:48:15.435147
2,2,5,16,9,6,1,0,2021-08-07 10:48:15.435147
0,0,-2,-1,1,-1,0,0,2021-08-07 10:48:15.436150
-2,-1,-1,0,0,-2,-2,-1,2021-08-07 10:48:15.436150
-1,0,0,2,1,1,0,-2,2021-08-07 10:48:15.437149
-1,-3,-6,-11,-11,-6,-1,1,2021-08-07 10:48:15.437149
-1,-2,-3,-4,-4,-3,-2,-1,2021-08-07 10:48:15.448145
-2,-2,-2,-2,-6,-4,-2,-1,2021-08-07 10:48:15.448145
0,1,1,5,8,4,0,1,2021-08-07 10:48:15.457146
0,1,1,3,5,4,3,0,2021-08-07 10:48:15.457146
0,1,-1,0,1,1,0,0,2021-08-07 10:48:15.470146
-1,-1,-3,-6,-3,-2,-1,-1,2021-08-07 10:48:15.470146
-1,-1,0,1,-4,-3,-1,-2,2021-08-07 10:48:15.480150
-2,-1,0,1,1,0,-1,-1,2021-08-07 10:48:15.480150
-2,-2,-2,-3,-3,0,0,0,2021-08-07 10:48:15.485146
-1,0,2,6,10,4,0,1,2021-08-07 10:48:15.485146
1,-1,0,2,-2,1,0,-1,2021-08-07 10:48:15.494146
-2,-4,-3,-5,-7,-4,-4,-3,2021-08-07 10:48:15.495149
-1,1,-1,-7,-4,-3,-1,-2,2021-08-07 10:48:15.508145
-1,0,-2,-1,-2,0,-1,-1,2021-08-07 10:48:15.508145
-1,1,1,6,3,1,-2,-2,2021-08-07 10:48:15.517145
-2,-3,-4,-8,-11,-5,-3,-1,2021-08-07 10:48:15.517145
0,0,0,8,10,5,0,1,2021-08-07 10:48:15.539145
-1,-1,-4,-12,-10,-3,0,0,2021-08-07 10:48:15.539145
1,4,3,12,9,4,2,1,2021-08-07 10:48:15.541148
-2,-2,-3,-6,-7,-3,-1,-3,2021-08-07 10:48:15.541148
-2,-1,0,1,-3,-1,0,-1,2021-08-07 10:48:15.545145
0,-1,-2,-3,-1,-2,-2,0,2021-08-07 10:48:15.545145
1,-1,-1,0,5,1,0,1,2021-08-07 10:48:15.554147
-2,-2,-3,-4,-7,-5,-2,-3,2021-08-07 10:48:15.554147
0,-1,1,1,0,0,-1,0,2021-08-07 10:48:15.568147
1,-1,-3,1,0,0,-1,-1,2021-08-07 10:48:15.568147
0,-1,-1,-3,-4,-3,-1,0,2021-08-07 10:48:15.577148
0,3,4,3,6,2,1,-1,2021-08-07 10:48:15.577148
-2,-3,-2,-7,-5,-4,-1,-4,2021-08-07 10:48:15.590150
-3,-1,-3,-2,-4,-2,-1,-2,2021-08-07 10:48:15.591146
-1,1,2,6,8,0,0,0,2021-08-07 10:48:15.607147
0,-3,-4,-8,-5,-2,1,-1,2021-08-07 10:48:15.608147
-1,0,-2,-2,-1,-1,-3,0,2021-08-07 10:48:15.608147
-2,-2,-1,2,4,0,-1,-1,2021-08-07 10:48:15.608147
-1,-2,-3,-1,-2,0,-1,-1,2021-08-07 10:48:15.614148
-1,0,0,0,-1,-1,-1,0,2021-08-07 10:48:15.614148
1,1,1,4,-2,-1,2,0,2021-08-07 10:48:15.628144
1,1,-1,-3,-5,-2,-3,0,2021-08-07 10:48:15.628144
-2,-2,-1,1,2,2,0,1,2021-08-07 10:48:15.637146
1,-1,-1,2,3,0,-1,-1,2021-08-07 10:48:15.638146
-1,-2,-3,-5,-8,-5,-4,-1,2021-08-07 10:48:15.650145
-2,-3,-4,-6,-3,-1,-1,-2,2021-08-07 10:48:15.650145
3,3,4,8,11,5,4,2,2021-08-07 10:48:15.659148
-1,-1,-2,0,-1,1,1,1,2021-08-07 10:48:15.659148
-1,-1,0,5,6,3,0,-1,2021-08-07 10:48:15.665147
-3,-2,-1,-2,-6,-6,-3,-5,2021-08-07 10:48:15.665147
-8,-5,-4,-8,-11,-5,-6,-5,2021-08-07 10:48:15.674148
0,2,4,5,3,1,-1,0,2021-08-07 10:48:15.675146
0,-2,0,-2,-1,-2,-2,-2,2021-08-07 10:48:15.688147
1,2,1,1,2,0,1,0,2021-08-07 10:48:15.688147
-1,-1,-5,-8,-6,-3,-1,-1,2021-08-07 10:48:15.697145
2,0,2,13,11,7,1,3,2021-08-07 10:48:15.697145
-1,-1,-1,-4,-8,-2,0,-1,2021-08-07 10:48:15.710146
-1,-1,1,6,5,1,1,0,2021-08-07 10:48:15.710146
0,0,-3,-5,-8,-2,-2,-1,2021-08-07 10:48:15.719147
-2,-3,-7,-13,-10,-5,-2,-1,2021-08-07 10:48:15.719147
-1,0,1,3,2,0,-1,-3,2021-08-07 10:48:15.734146
2,0,3,7,9,5,0,1,2021-08-07 10:48:15.734146
-2,-3,-4,-3,-8,-6,-4,-3,2021-08-07 10:48:15.736146
1,1,-1,-2,0,0,1,-1,2021-08-07 10:48:15.736146
-2,-1,1,0,4,4,1,-1,2021-08-07 10:48:15.748147
0,-1,-2,-3,-6,-3,-1,-2,2021-08-07 10:48:15.748147
0,-3,0,-4,-3,-1,-3,-1,2021-08-07 10:48:15.757148
0,-1,-2,-9,-7,-4,-2,-3,2021-08-07 10:48:15.757148
-3,-4,-5,-7,-11,-7,-3,-1,2021-08-07 10:48:15.771147
2,4,9,12,21,9,3,2,2021-08-07 10:48:15.771147
1,1,0,3,4,1,2,0,2021-08-07 10:48:15.778146
-3,-3,-2,-6,-5,1,-3,-3,2021-08-07 10:48:15.778146
0,1,-1,-4,-2,-1,0,-2,2021-08-07 10:48:15.785145
-3,-2,-2,-3,-10,-5,-3,-2,2021-08-07 10:48:15.785145
0,0,1,7,9,4,3,1,2021-08-07 10:48:15.794146
-2,-2,-1,-4,-4,-3,-1,-1,2021-08-07 10:48:15.794146
-1,-2,-4,-3,-1,-2,-3,-2,2021-08-07 10:48:15.817147
-3,-4,-6,-17,-21,-8,-4,-2,2021-08-07 10:48:15.817147
0,2,5,10,20,8,3,1,2021-08-07 10:48:15.818147
-1,1,-1,1,-4,-3,0,-2,2021-08-07 10:48:15.818147
-1,2,2,5,7,2,3,1,2021-08-07 10:48:15.831147
2,2,0,10,12,4,2,1,2021-08-07 10:48:15.831147
0,-4,-4,-7,-11,-5,-4,-1,2021-08-07 10:48:15.838146
-2,-1,-2,-2,0,-1,-1,-1,2021-08-07 10:48:15.838146
-1,-1,-2,-6,-9,-5,-2,-1,2021-08-07 10:48:15.854147
-1,-1,-2,-6,-9,-4,-3,-1,2021-08-07 10:48:15.854147
-3,-1,-2,0,1,0,-3,-2,2021-08-07 10:48:15.856147
2,4,7,16,14,7,5,4,2021-08-07 10:48:15.856147
0,-1,-1,-1,-4,-1,-2,0,2021-08-07 10:48:15.868147
0,-2,0,4,7,2,2,0,2021-08-07 10:48:15.868147
-2,-3,-1,-5,-6,-3,-1,-1,2021-08-07 10:48:15.877147
1,0,0,-3,-4,-1,-1,-1,2021-08-07 10:48:15.877147
-1,-3,-1,1,-1,-2,-1,0,2021-08-07 10:48:15.891146
-2,-2,-2,-8,-8,-3,-1,-1,2021-08-07 10:48:15.891146
0,-2,-4,-5,-8,-3,-2,-2,2021-08-07 10:48:15.898147
2,2,2,10,19,6,3,1,2021-08-07 10:48:15.898147
-2,-2,-2,-3,-1,-2,-1,1,2021-08-07 10:48:15.914147
2,2,1,3,1,1,2,1,2021-08-07 10:48:15.914147
-4,-3,-5,-16,-25,-11,-4,-5,2021-08-07 10:48:15.916149
-1,0,5,20,30,11,3,2,2021-08-07 10:48:15.916149
-1,-1,2,6,3,1,-1,-3,2021-08-07 10:48:15.928145
-4,-1,-2,-1,-2,-2,-1,-1,2021-08-07 10:48:15.928145
-2,-1,-2,-4,-10,-5,-2,-1,2021-08-07 10:48:15.937148
-3,-4,-6,-9,-13,-7,-3,-2,2021-08-07 10:48:15.937148
0,-1,2,1,5,2,0,-1,2021-08-07 10:48:15.951144
0,-2,-2,-2,-2,-2,-2,0,2021-08-07 10:48:15.951144
1,0,1,2,1,1,2,0,2021-08-07 10:48:15.958146
-3,-2,-5,-11,-10,-5,-4,-2,2021-08-07 10:48:15.958146
1,-1,-2,-4,-1,-1,0,-1,2021-08-07 10:48:15.974147
-1,0,0,7,2,2,2,-1,2021-08-07 10:48:15.974147
1,0,2,1,6,2,0,0,2021-08-07 10:48:15.976147
-2,-3,-5,-9,-10,-6,-2,0,2021-08-07 10:48:15.976147
-2,0,-1,-3,-6,-3,-1,0,2021-08-07 10:48:15.988148
-1,-3,-5,-10,-15,-7,-3,-1,2021-08-07 10:48:15.988148
