EMG 1,EMG 2,EMG 3,EMG 4,EMG 5,EMG 6,EMG 7,EMG 8,Timestamp,Milliseconds
-2,-2,-8,-14,-8,-4,-3,-1,2021-08-07 10:50:39,681665
-1,-1,0,-4,-4,-3,-1,-2,2021-08-07 10:50:39,681665
-2,-2,0,0,0,0,-1,-1,2021-08-07 10:50:39,697664
-1,-1,3,5,0,-1,-1,-2,2021-08-07 10:50:39,713665
1,0,2,4,2,3,1,-1,2021-08-07 10:50:39,713665
0,-1,0,0,-2,-1,-3,-2,2021-08-07 10:50:39,713665
-4,-7,-6,-7,-5,-3,-3,-4,2021-08-07 10:50:39,713665
9,9,9,7,7,4,4,6,2021-08-07 10:50:39,713665
-1,0,0,2,2,1,0,0,2021-08-07 10:50:39,714666
0,0,0,3,0,-3,0,1,2021-08-07 10:50:39,729664
-2,-1,-2,-3,-5,-2,-2,0,2021-08-07 10:50:39,729664
-7,-8,-9,-9,-2,-2,-4,-4,2021-08-07 10:50:39,729664
-1,-1,-1,-2,-3,-1,-1,-1,2021-08-07 10:50:39,729664
1,2,3,9,6,4,1,2,2021-08-07 10:50:39,729664
2,0,-1,-5,-1,0,0,-2,2021-08-07 10:50:39,729664
-2,-2,-2,-3,-3,-3,0,-2,2021-08-07 10:50:39,730668
-1,-2,-1,-1,-1,-2,-2,0,2021-08-07 10:50:39,730668
-2,-3,-5,-11,-7,-2,-5,-2,2021-08-07 10:50:39,730668
0,0,-2,-2,-3,-2,-1,1,2021-08-07 10:50:39,745665
-1,0,1,0,2,1,0,0,2021-08-07 10:50:39,745665
-2,0,0,3,4,2,1,0,2021-08-07 10:50:39,761664
1,-1,-1,-2,-9,-4,1,-1,2021-08-07 10:50:39,776666
-2,-1,1,5,8,2,0,-2,2021-08-07 10:50:39,776666
0,-1,-3,-5,-2,-1,-1,-1,2021-08-07 10:50:39,776666
-1,0,1,-2,-1,-1,-2,-2,2021-08-07 10:50:39,824664
-3,-1,-3,-5,-5,-3,-3,-2,2021-08-07 10:50:39,824664
-1,-1,-3,-5,-4,-4,-1,-2,2021-08-07 10:50:39,824664
-1,-2,0,3,1,1,-1,-1,2021-08-07 10:50:39,824664
0,0,-1,1,1,0,-1,-1,2021-08-07 10:50:39,824664
-1,-1,-1,-5,-1,-1,0,-1,2021-08-07 10:50:39,824664
-5,-4,-2,-8,-6,-2,-4,-2,2021-08-07 10:50:39,825666
-1,-1,-3,-9,-12,-6,-1,0,2021-08-07 10:50:39,825666
2,3,7,17,27,12,5,0,2021-08-07 10:50:39,825666
1,0,1,6,2,2,2,0,2021-08-07 10:50:39,825666
0,1,3,13,10,4,1,0,2021-08-07 10:50:39,836665
-2,-2,-3,-8,-10,-8,-3,-2,2021-08-07 10:50:39,836665
-1,-2,-6,-19,-20,-8,-4,-1,2021-08-07 10:50:39,836665
1,0,0,1,2,3,2,1,2021-08-07 10:50:39,836665
2,1,3,13,23,7,3,0,2021-08-07 10:50:39,856666
0,0,-4,-4,-4,-2,-1,-2,2021-08-07 10:50:39,856666
-1,2,1,4,-2,-2,0,0,2021-08-07 10:50:39,856666
-2,-2,0,-5,-7,-5,-2,-2,2021-08-07 10:50:39,856666
-2,-2,-6,-11,-14,-5,-2,-2,2021-08-07 10:50:39,888665
-3,-2,-1,2,3,1,-2,-1,2021-08-07 10:50:39,904665
-3,-4,-3,-6,-6,-3,-1,-2,2021-08-07 10:50:39,920666
0,0,0,1,-1,-1,1,-1,2021-08-07 10:50:39,920666
-3,-1,-1,-2,-4,-1,-1,-1,2021-08-07 10:50:39,920666
1,0,2,5,10,3,0,1,2021-08-07 10:50:39,920666
1,-1,-3,-5,-3,-2,0,0,2021-08-07 10:50:39,936665
0,0,0,3,1,-1,-1,-2,2021-08-07 10:50:39,936665
-1,0,3,-4,-4,-4,-1,-2,2021-08-07 10:50:39,952666
2,2,1,-3,-4,-2,-2,0,2021-08-07 10:50:39,952666
-3,-6,-14,-25,-24,-9,-5,-3,2021-08-07 10:50:39,952666
1,0,2,14,27,12,2,4,2021-08-07 10:50:39,952666
2,-1,0,5,2,0,1,3,2021-08-07 10:50:39,952666
-4,-5,-3,-12,-14,-6,-2,-2,2021-08-07 10:50:39,952666
0,1,10,17,19,8,2,-1,2021-08-07 10:50:39,953665
-4,-1,2,1,2,-1,-4,-3,2021-08-07 10:50:39,953665
-4,-4,-5,-10,-8,-2,-4,-3,2021-08-07 10:50:39,953665
-1,1,2,9,13,5,-1,2,2021-08-07 10:50:39,953665
-1,0,-3,-8,-18,-8,-3,-1,2021-08-07 10:50:39,968664
0,-4,-5,-6,1,-1,-2,-1,2021-08-07 10:50:39,984666
1,-1,-2,-7,-15,-5,-1,0,2021-08-07 10:50:39,984666
1,-2,-6,-17,-21,-7,0,1,2021-08-07 10:50:39,984666
0,1,4,14,20,5,1,1,2021-08-07 10:50:39,984666
-3,-4,-6,-24,-29,-8,0,-2,2021-08-07 10:50:39,984666
8,9,15,56,82,36,15,6,2021-08-07 10:50:40,016665
-3,-4,-7,-14,-17,-9,-6,-6,2021-08-07 10:50:40,016665
-5,-3,-1,2,-1,-11,-11,-7,2021-08-07 10:50:40,016665
-2,-1,-4,-21,-34,-18,-7,-3,2021-08-07 10:50:40,016665
-5,-6,-11,-29,-33,-15,-5,-3,2021-08-07 10:50:40,016665
4,4,10,28,37,20,11,4,2021-08-07 10:50:40,016665
1,-1,-1,2,-2,2,1,1,2021-08-07 10:50:40,032667
-3,-2,-3,0,-2,-4,-2,-1,2021-08-07 10:50:40,032667
-1,-2,-6,-14,-21,-7,-2,-2,2021-08-07 10:50:40,047664
-2,-2,-1,6,8,4,1,-2,2021-08-07 10:50:40,047664
3,2,1,2,4,3,2,1,2021-08-07 10:50:40,047664
-4,-3,-4,-2,-2,-6,-6,-4,2021-08-07 10:50:40,047664
-1,-2,0,4,2,2,-1,1,2021-08-07 10:50:40,063691
-2,2,0,-1,-5,-4,-4,1,2021-08-07 10:50:40,063691
-1,-2,-1,-4,-3,0,3,1,2021-08-07 10:50:40,063691
0,0,-2,-2,-2,0,0,1,2021-08-07 10:50:40,063691
-1,-3,-2,-3,-5,-5,-4,-3,2021-08-07 10:50:40,079665
-2,0,5,15,10,3,0,-1,2021-08-07 10:50:40,095666
0,-3,-4,-8,1,1,-1,1,2021-08-07 10:50:40,095666
1,2,1,-4,1,-1,1,1,2021-08-07 10:50:40,095666
0,-1,1,9,5,1,-1,0,2021-08-07 10:50:40,095666
-5,-2,-6,-3,7,-1,-2,-2,2021-08-07 10:50:40,095666
3,4,8,21,19,8,4,3,2021-08-07 10:50:40,111665
1,-1,0,2,-7,-4,-1,0,2021-08-07 10:50:40,111665
-5,-3,-7,-25,-37,-17,-7,-6,2021-08-07 10:50:40,127667
1,0,0,4,15,3,0,0,2021-08-07 10:50:40,142666
-2,-3,-3,-5,1,0,-1,-3,2021-08-07 10:50:40,158664
-1,-2,0,2,0,0,0,0,2021-08-07 10:50:40,158664
0,-2,-1,-6,-12,-4,-2,0,2021-08-07 10:50:40,158664
3,2,3,6,5,2,-1,1,2021-08-07 10:50:40,158664
-3,-3,-3,-9,-11,-6,-3,-1,2021-08-07 10:50:40,158664
-1,0,1,9,8,4,2,-1,2021-08-07 10:50:40,158664
0,0,1,1,8,2,0,0,2021-08-07 10:50:40,158664
-5,-4,-5,-14,-23,-10,-4,-5,2021-08-07 10:50:40,158664
-3,-2,-4,-4,3,1,-1,-1,2021-08-07 10:50:40,158664
2,2,3,10,8,4,0,-1,2021-08-07 10:50:40,158664
2,2,4,6,10,2,1,1,2021-08-07 10:50:40,189666
0,-1,-1,-5,-9,-2,-1,-2,2021-08-07 10:50:40,205665
-4,-7,-7,-17,-22,-9,-5,-4,2021-08-07 10:50:40,205665
1,1,2,8,6,3,1,1,2021-08-07 10:50:40,205665
-4,-4,-5,-13,-11,-6,-4,-4,2021-08-07 10:50:40,205665
6,7,13,31,39,16,7,4,2021-08-07 10:50:40,205665
-3,0,-5,-5,-9,-3,-1,-1,2021-08-07 10:50:40,205665
-3,-2,-2,-5,2,0,-2,-3,2021-08-07 10:50:40,205665
0,-1,-2,-6,-7,-5,-3,-1,2021-08-07 10:50:40,221667
0,-1,-2,-7,-14,-5,-2,1,2021-08-07 10:50:40,221667
1,-1,-1,3,2,0,1,0,2021-08-07 10:50:40,221667
0,-1,-1,1,4,1,-1,1,2021-08-07 10:50:40,221667
-1,-2,-2,1,-2,-3,-2,-1,2021-08-07 10:50:40,250666
-1,-3,-3,-9,-9,-4,-1,-1,2021-08-07 10:50:40,250666
0,2,2,5,8,3,1,1,2021-08-07 10:50:40,251665
-2,-3,-3,-5,-6,-3,-3,-2,2021-08-07 10:50:40,251665
-2,-1,0,4,4,1,0,0,2021-08-07 10:50:40,269667
-2,0,-1,-2,-2,-1,0,-2,2021-08-07 10:50:40,269667
1,0,2,2,0,1,-1,1,2021-08-07 10:50:40,269667
-1,-2,0,0,1,-1,1,-1,2021-08-07 10:50:40,285665
-2,0,-2,1,3,0,0,2,2021-08-07 10:50:40,301666
-1,-1,-3,-5,-5,-3,-2,-1,2021-08-07 10:50:40,317664
1,1,-1,1,-5,-3,-3,0,2021-08-07 10:50:40,317664
-1,-1,-1,1,2,0,-1,-2,2021-08-07 10:50:40,317664
0,-1,-1,-1,3,2,0,1,2021-08-07 10:50:40,317664
-1,0,0,-4,-8,-3,-2,-2,2021-08-07 10:50:40,317664
-1,0,-1,-2,0,-1,-1,0,2021-08-07 10:50:40,317664
1,-1,-1,0,3,2,-2,0,2021-08-07 10:50:40,318666
0,1,0,1,1,1,-1,0,2021-08-07 10:50:40,333666
-2,-3,-4,-4,-6,-2,-3,-1,2021-08-07 10:50:40,333666
-1,-2,0,1,0,0,0,-1,2021-08-07 10:50:40,333666
-1,-2,-1,0,0,1,0,-1,2021-08-07 10:50:40,333666
1,2,2,1,1,0,-1,-1,2021-08-07 10:50:40,349665
0,0,-1,-6,-6,-2,-1,0,2021-08-07 10:50:40,349665
-1,-1,2,5,2,0,0,0,2021-08-07 10:50:40,349665
-2,0,-1,1,-1,-1,0,0,2021-08-07 10:50:40,349665
-1,0,0,0,1,1,-1,-1,2021-08-07 10:50:40,380666
-1,-1,-4,-4,-5,-2,-2,-2,2021-08-07 10:50:40,380666
-1,-1,-4,-8,-12,-4,-2,-1,2021-08-07 10:50:40,380666
-1,0,1,5,13,2,1,-1,2021-08-07 10:50:40,380666
0,-1,0,6,6,2,0,-1,2021-08-07 10:50:40,380666
2,2,-3,-9,-9,-5,0,-1,2021-08-07 10:50:40,380666
1,1,0,4,10,4,2,0,2021-08-07 10:50:40,380666
-2,-1,-2,-5,-12,-3,-2,1,2021-08-07 10:50:40,380666
-2,-3,0,6,0,-2,-1,0,2021-08-07 10:50:40,396665
3,1,1,1,7,3,0,1,2021-08-07 10:50:40,396665
1,-1,-1,1,8,0,-2,-1,2021-08-07 10:50:40,396665
0,-3,-4,-8,-9,-4,-2,-2,2021-08-07 10:50:40,396665
-3,-4,-7,-16,-17,-8,-4,-3,2021-08-07 10:50:40,427669
1,1,0,4,5,3,1,0,2021-08-07 10:50:40,427669
-1,1,1,-4,0,0,-1,1,2021-08-07 10:50:40,427669
0,3,2,14,19,10,2,2,2021-08-07 10:50:40,427669
-2,1,0,-3,-6,-3,-1,0,2021-08-07 10:50:40,443664
-5,-7,-6,-6,-7,-7,-3,-4,2021-08-07 10:50:40,443664
-1,1,-2,-8,-14,-7,-3,-2,2021-08-07 10:50:40,443664
-1,0,-4,-10,-11,-7,-2,-1,2021-08-07 10:50:40,443664
4,3,6,10,13,7,4,3,2021-08-07 10:50:40,459666
-3,-1,-1,-6,-5,-2,-1,-1,2021-08-07 10:50:40,459666
-1,-3,0,9,4,3,0,-2,2021-08-07 10:50:40,459666
-2,-2,-1,-1,-4,-4,-2,-2,2021-08-07 10:50:40,459666
-3,0,0,-1,1,-1,0,-1,2021-08-07 10:50:40,491664
-1,-2,-4,0,1,-2,-2,-1,2021-08-07 10:50:40,491664
-1,-3,-4,-7,-9,-3,-3,-2,2021-08-07 10:50:40,491664
-1,-1,0,2,2,0,-1,0,2021-08-07 10:50:40,491664
0,1,0,-2,-1,0,-2,-2,2021-08-07 10:50:40,507670
1,1,4,10,11,5,2,0,2021-08-07 10:50:40,523664
-1,0,-3,-3,-4,-3,0,-1,2021-08-07 10:50:40,539666
-1,-2,-4,-9,-7,-3,-3,-2,2021-08-07 10:50:40,555667
1,1,3,1,6,3,1,0,2021-08-07 10:50:40,571665
-2,-4,-4,-6,-10,-3,-3,-2,2021-08-07 10:50:40,571665
-2,-1,-2,-1,-1,0,0,-3,2021-08-07 10:50:40,571665
-3,-2,-3,-3,-10,-4,-3,-3,2021-08-07 10:50:40,587668
-1,0,-2,-4,0,0,-1,-1,2021-08-07 10:50:40,603664
-1,1,1,5,10,4,1,-1,2021-08-07 10:50:40,603664
2,1,3,11,18,7,2,-1,2021-08-07 10:50:40,603664
-2,-3,-3,-3,-5,-3,-2,-2,2021-08-07 10:50:40,603664
-2,-2,-4,-9,-15,-9,-4,-3,2021-08-07 10:50:40,603664
2,1,1,-5,-6,-1,1,2,2021-08-07 10:50:40,604666
-2,-3,-2,-3,1,-1,0,-1,2021-08-07 10:50:40,604666
2,-1,3,2,3,0,0,0,2021-08-07 10:50:40,604666
1,-1,3,10,9,3,2,-1,2021-08-07 10:50:40,604666
-4,-3,-5,-2,-8,-2,-1,-2,2021-08-07 10:50:40,604666
-2,0,-4,-9,-17,-8,-3,-1,2021-08-07 10:50:40,604666
0,0,-3,-9,3,1,0,0,2021-08-07 10:50:40,604666
2,2,7,24,22,10,4,0,2021-08-07 10:50:40,604666
5,2,6,9,5,3,3,2,2021-08-07 10:50:40,605666
-5,-4,-1,4,3,0,-3,-5,2021-08-07 10:50:40,605666
-5,-4,-6,-12,-14,-8,-3,-3,2021-08-07 10:50:40,605666
3,4,-1,-7,-3,4,4,4,2021-08-07 10:50:40,635666
-3,-3,-2,-5,-4,-3,-5,-3,2021-08-07 10:50:40,650665
0,0,-1,-2,-3,-10,-8,-4,2021-08-07 10:50:40,650665
-2,-3,0,2,0,-3,-2,-2,2021-08-07 10:50:40,650665
-4,-4,-4,-6,-3,-3,-3,-3,2021-08-07 10:50:40,650665
-1,0,-1,2,2,1,3,2,2021-08-07 10:50:40,650665
3,2,0,-8,-7,4,8,6,2021-08-07 10:50:40,650665
6,3,3,14,11,14,12,9,2021-08-07 10:50:40,650665
0,0,-1,3,5,1,-7,-3,2021-08-07 10:50:40,666666
-14,-10,-4,-5,-10,-21,-21,-17,2021-08-07 10:50:40,666666
-7,-6,-2,-3,-5,-8,-9,-5,2021-08-07 10:50:40,666666
-4,-2,0,-1,-3,-3,-2,-3,2021-08-07 10:50:40,666666
3,3,-2,-6,-9,2,5,3,2021-08-07 10:50:40,698664
11,9,8,9,14,12,9,8,2021-08-07 10:50:40,698664
0,1,1,4,5,0,0,-1,2021-08-07 10:50:40,698664
5,4,6,11,9,9,9,5,2021-08-07 10:50:40,698664
-4,-4,-7,-11,-8,-3,-3,-3,2021-08-07 10:50:40,698664
-5,-6,-7,-7,-12,-10,-10,-7,2021-08-07 10:50:40,698664
2,4,3,3,2,-1,-2,0,2021-08-07 10:50:40,698664
-2,-1,-3,-3,-4,-4,-2,-3,2021-08-07 10:50:40,698664
-7,-7,-7,-16,-11,-8,-6,-4,2021-08-07 10:50:40,730667
6,8,8,16,20,14,11,8,2021-08-07 10:50:40,730667
0,0,-2,-4,-2,5,2,1,2021-08-07 10:50:40,731667
1,1,3,8,7,2,-3,-2,2021-08-07 10:50:40,731667
-4,-5,-5,-6,-9,-4,-4,-3,2021-08-07 10:50:40,746665
-3,-4,-3,-4,-5,-5,-3,-3,2021-08-07 10:50:40,746665
1,1,1,0,1,0,3,2,2021-08-07 10:50:40,746665
-2,-1,-4,-13,-11,-8,-5,-4,2021-08-07 10:50:40,746665
-4,-6,-8,-14,-22,-13,-5,-4,2021-08-07 10:50:40,762665
5,4,4,11,21,15,6,6,2021-08-07 10:50:40,762665
1,1,0,2,7,3,0,0,2021-08-07 10:50:40,762665
2,3,6,13,11,2,-1,-1,2021-08-07 10:50:40,762665
-2,1,1,0,-1,-3,-1,-2,2021-08-07 10:50:40,778665
-6,-7,-11,-25,-30,-14,-7,-5,2021-08-07 10:50:40,778665
1,0,-2,-4,-8,-2,0,-1,2021-08-07 10:50:40,794667
1,4,3,11,19,10,3,1,2021-08-07 10:50:40,794667
1,2,5,13,15,2,1,1,2021-08-07 10:50:40,810666
0,-1,-1,0,-2,0,-1,-1,2021-08-07 10:50:40,826666
-4,-5,-4,-6,-7,-3,0,-4,2021-08-07 10:50:40,826666
-3,-3,-6,-9,-13,-9,-5,-3,2021-08-07 10:50:40,826666
1,2,4,5,5,3,1,3,2021-08-07 10:50:40,826666
-1,0,-6,-16,-12,-4,-1,-2,2021-08-07 10:50:40,826666
1,1,4,15,11,8,2,1,2021-08-07 10:50:40,826666
-3,-3,-4,-8,-8,-3,-3,-3,2021-08-07 10:50:40,826666
0,-2,-3,-2,1,1,1,-2,2021-08-07 10:50:40,858668
0,1,-2,4,4,1,1,0,2021-08-07 10:50:40,858668
-1,1,1,-4,-12,-6,-1,-1,2021-08-07 10:50:40,858668
0,0,0,1,4,1,1,-1,2021-08-07 10:50:40,874666
-2,-4,-3,-2,-3,-1,-1,-2,2021-08-07 10:50:40,906666
-2,0,-3,-9,-11,-4,-2,-1,2021-08-07 10:50:40,906666
-1,-1,0,3,0,-2,-1,0,2021-08-07 10:50:40,906666
0,-1,1,1,5,1,0,-1,2021-08-07 10:50:40,906666
0,1,5,10,11,6,2,3,2021-08-07 10:50:40,922666
-3,-4,-1,-1,2,1,-2,-1,2021-08-07 10:50:40,938664
-2,-2,-4,-5,-3,-3,-1,-1,2021-08-07 10:50:40,938664
-4,-5,-8,-21,-22,-10,-7,-5,2021-08-07 10:50:40,938664
-1,2,-1,2,-3,-4,-1,-1,2021-08-07 10:50:40,938664
5,6,8,19,17,8,4,3,2021-08-07 10:50:40,938664
-1,-3,-4,-4,-1,0,-1,-2,2021-08-07 10:50:40,939667
-2,-3,-3,-7,-10,-5,-5,-3,2021-08-07 10:50:40,939667
-1,-1,-3,-9,0,0,0,-1,2021-08-07 10:50:40,939667
-4,-1,2,4,0,0,0,-3,2021-08-07 10:50:40,939667
2,2,2,6,4,3,2,1,2021-08-07 10:50:40,939667
0,1,2,-1,-4,-1,-1,-2,2021-08-07 10:50:40,939667
-2,-3,-4,-5,-6,-4,-4,-1,2021-08-07 10:50:40,954668
-1,1,2,7,8,3,3,-1,2021-08-07 10:50:40,954668
-1,-1,2,7,11,4,0,-1,2021-08-07 10:50:40,954668
-3,-4,-4,-7,-2,-3,-2,0,2021-08-07 10:50:40,954668
-1,-1,2,0,-3,-1,-1,-2,2021-08-07 10:50:40,970664
-2,-4,-4,-9,-11,-5,-1,0,2021-08-07 10:50:40,986664
-2,0,-1,-3,-3,0,-2,-1,2021-08-07 10:50:41,002667
0,0,-1,7,7,3,2,2,2021-08-07 10:50:41,002667
1,0,0,1,-2,0,0,-1,2021-08-07 10:50:41,002667
-2,-4,-4,-3,-7,-5,-1,-2,2021-08-07 10:50:41,018665
-4,-3,-2,-3,-3,-1,-1,-2,2021-08-07 10:50:41,018665
2,3,4,1,1,1,0,1,2021-08-07 10:50:41,018665
-1,0,-1,0,-4,-3,0,-2,2021-08-07 10:50:41,018665
-1,-4,-2,2,4,0,-1,0,2021-08-07 10:50:41,034666
-2,-3,-2,-4,-2,-2,0,0,2021-08-07 10:50:41,050666
0,-3,-4,-2,-5,-3,0,0,2021-08-07 10:50:41,050666
0,1,-1,5,9,5,1,0,2021-08-07 10:50:41,050666
-1,-1,0,-3,-1,-1,0,1,2021-08-07 10:50:41,050666
-2,0,-1,-4,-2,-1,-1,-1,2021-08-07 10:50:41,050666
-1,-1,1,3,2,1,0,-1,2021-08-07 10:50:41,050666
0,-2,0,-2,1,-1,-4,0,2021-08-07 10:50:41,050666
0,-1,-4,-4,-2,-2,-2,-2,2021-08-07 10:50:41,051666
1,0,4,2,2,1,0,-1,2021-08-07 10:50:41,051666
-1,2,0,3,3,2,2,-1,2021-08-07 10:50:41,051666
-3,-4,-5,-3,-8,-4,0,0,2021-08-07 10:50:41,081666
-1,-4,-5,-6,-1,0,-1,1,2021-08-07 10:50:41,081666
-2,0,-2,-3,-4,-2,-1,-2,2021-08-07 10:50:41,081666
-2,0,1,2,2,1,-2,1,2021-08-07 10:50:41,081666
-3,-1,-1,-7,-8,-1,-1,-2,2021-08-07 10:50:41,097666
-1,-3,-4,-12,-22,-9,-6,-3,2021-08-07 10:50:41,097666
3,4,5,18,32,11,4,4,2021-08-07 10:50:41,097666
1,2,5,7,10,4,2,1,2021-08-07 10:50:41,097666
1,3,4,9,6,3,1,0,2021-08-07 10:50:41,113666
-2,-1,0,1,-3,0,1,0,2021-08-07 10:50:41,129664
-1,-3,-7,-11,-18,-9,-3,-1,2021-08-07 10:50:41,141665
-1,-2,-2,-7,-7,-3,-1,-2,2021-08-07 10:50:41,142665
-3,-3,-2,-4,-1,-1,-2,-1,2021-08-07 10:50:41,142665
0,3,2,5,5,1,1,-2,2021-08-07 10:50:41,142665
-1,-3,-3,-4,-5,-1,-1,-2,2021-08-07 10:50:41,142665
-1,-2,-2,-4,-7,-4,-2,-2,2021-08-07 10:50:41,142665
1,0,0,4,7,2,1,-1,2021-08-07 10:50:41,160665
0,-1,1,4,8,2,-1,-1,2021-08-07 10:50:41,160665
1,-1,1,0,-4,-1,-2,2,2021-08-07 10:50:41,160665
-3,-3,-2,1,-5,-3,-3,-4,2021-08-07 10:50:41,160665
-4,-3,-5,-13,-20,-10,-4,-3,2021-08-07 10:50:41,176667
-1,1,2,8,24,10,4,2,2021-08-07 10:50:41,176667
2,2,1,1,6,2,0,2,2021-08-07 10:50:41,176667
0,-1,-2,-3,-3,-3,0,0,2021-08-07 10:50:41,176667
-2,0,-1,5,2,1,0,0,2021-08-07 10:50:41,192666
-2,0,0,-3,-15,-7,-4,-2,2021-08-07 10:50:41,207665
-4,-3,-3,-8,-9,-2,-1,-3,2021-08-07 10:50:41,223665
-1,2,4,9,8,3,-1,0,2021-08-07 10:50:41,239666
-1,-2,1,-4,-4,-2,-2,-1,2021-08-07 10:50:41,239666
-4,-4,-4,-7,-5,-5,-2,-1,2021-08-07 10:50:41,239666
-1,0,-1,-2,-4,-3,-1,0,2021-08-07 10:50:41,239666
-1,-2,-3,0,1,0,0,1,2021-08-07 10:50:41,239666
1,1,0,3,10,3,1,-1,2021-08-07 10:50:41,239666
2,2,1,3,2,-1,-2,1,2021-08-07 10:50:41,239666
-1,-2,-2,-2,-2,-2,-2,-2,2021-08-07 10:50:41,240665
-2,-4,-3,-6,-5,-1,0,-3,2021-08-07 10:50:41,240665
0,-2,-3,-4,-2,-2,-2,-1,2021-08-07 10:50:41,255665
1,0,1,6,8,3,0,-1,2021-08-07 10:50:41,255665
0,1,1,1,-1,-1,0,0,2021-08-07 10:50:41,255665
-2,-2,-3,-2,-5,-2,-1,-2,2021-08-07 10:50:41,255665
-1,-2,0,-3,-11,-4,-1,0,2021-08-07 10:50:41,271666
2,2,2,5,19,8,4,2,2021-08-07 10:50:41,271666
1,0,5,7,6,4,-1,0,2021-08-07 10:50:41,271666
-1,-4,-5,-9,-5,-3,-3,-2,2021-08-07 10:50:41,271666
0,2,3,5,5,1,0,-1,2021-08-07 10:50:41,287665
-2,-3,-1,-4,-12,-6,0,-2,2021-08-07 10:50:41,303665
-2,-3,-1,1,-1,-1,0,-2,2021-08-07 10:50:41,303665
-3,-1,-3,-3,0,-2,-2,-2,2021-08-07 10:50:41,303665
-1,-5,-3,-2,0,0,-2,-4,2021-08-07 10:50:41,303665
3,3,4,5,3,0,0,1,2021-08-07 10:50:41,303665
-2,-2,-4,-3,-1,1,-2,-1,2021-08-07 10:50:41,303665
0,1,-1,-4,-6,-3,0,0,2021-08-07 10:50:41,319665
1,1,0,-1,-1,-2,-1,0,2021-08-07 10:50:41,334665
0,-1,-2,-1,-2,-1,2,0,2021-08-07 10:50:41,334665
0,-2,-2,-5,-7,-3,0,-1,2021-08-07 10:50:41,334665
-1,-1,-1,-2,-3,-3,-7,-2,2021-08-07 10:50:41,334665
-4,-3,0,5,1,-5,-6,-4,2021-08-07 10:50:41,350665
-2,-2,-3,-5,-8,-3,-4,-4,2021-08-07 10:50:41,366665
1,1,1,7,4,3,1,2,2021-08-07 10:50:41,382664
2,-2,-4,-4,1,1,4,1,2021-08-07 10:50:41,382664
3,4,3,-1,-1,6,8,4,2021-08-07 10:50:41,382664
-5,-6,-6,-6,-19,-8,-7,-5,2021-08-07 10:50:41,382664
0,4,2,11,16,2,-5,0,2021-08-07 10:50:41,382664
-2,0,4,7,5,-4,-5,-5,2021-08-07 10:50:41,382664
0,-2,-3,-4,2,0,-1,-1,2021-08-07 10:50:41,398665
-1,-3,-4,-7,-11,-3,2,0,2021-08-07 10:50:41,398665
-3,-3,-5,-8,-4,1,3,0,2021-08-07 10:50:41,398665
-3,-1,1,-1,-1,0,-1,-2,2021-08-07 10:50:41,398665
-1,-2,-2,1,4,0,-1,-2,2021-08-07 10:50:41,414665
-1,1,-1,0,1,1,-1,1,2021-08-07 10:50:41,429665
1,1,1,2,-3,-4,-2,0,2021-08-07 10:50:41,429665
3,2,2,1,1,0,1,1,2021-08-07 10:50:41,429665
1,-1,-1,-3,-5,-2,-1,0,2021-08-07 10:50:41,445666
0,-1,-3,-3,-1,-2,-2,-1,2021-08-07 10:50:41,445666
-5,-4,-7,-7,-1,-1,-2,-3,2021-08-07 10:50:41,445666
1,2,2,7,6,4,4,3,2021-08-07 10:50:41,445666
-2,-1,-3,-3,1,-1,0,0,2021-08-07 10:50:41,445666
0,1,2,1,6,0,0,1,2021-08-07 10:50:41,446666
-1,-1,-2,-5,-10,-5,-1,-2,2021-08-07 10:50:41,446666
-1,-2,-2,-2,-2,0,0,-1,2021-08-07 10:50:41,446666
-1,1,0,2,3,2,-1,0,2021-08-07 10:50:41,477665
0,1,-2,-3,-1,-1,0,-1,2021-08-07 10:50:41,493666
-1,-1,-3,-5,-7,-6,-3,-2,2021-08-07 10:50:41,508664
0,-1,-3,0,1,1,0,1,2021-08-07 10:50:41,524669
-3,-2,-2,-1,0,1,1,0,2021-08-07 10:50:41,540666
-1,-1,1,0,0,0,-1,-1,2021-08-07 10:50:41,540666
-1,-2,1,1,-1,1,-1,-1,2021-08-07 10:50:41,540666
0,0,1,1,2,1,-1,-1,2021-08-07 10:50:41,540666
-1,0,0,2,-2,-1,-1,-2,2021-08-07 10:50:41,540666
-3,-2,-4,-5,0,-1,0,-1,2021-08-07 10:50:41,540666
-3,-4,-3,-6,-6,-4,-2,-2,2021-08-07 10:50:41,540666
-1,-1,-2,-1,-2,-2,-1,1,2021-08-07 10:50:41,541666
-1,-1,-3,-4,-7,-3,-2,-3,2021-08-07 10:50:41,556666
3,2,5,8,6,4,1,0,2021-08-07 10:50:41,572666
1,1,1,5,9,5,2,1,2021-08-07 10:50:41,581665
-3,-2,-1,-1,-1,0,0,-2,2021-08-07 10:50:41,581665
-1,-1,-1,-4,-4,-2,-1,-3,2021-08-07 10:50:41,581665
-2,-3,-5,-13,-18,-10,-4,-3,2021-08-07 10:50:41,582665
3,1,4,8,14,5,2,1,2021-08-07 10:50:41,582665
-1,0,-1,0,-8,-3,-2,0,2021-08-07 10:50:41,582665
-2,-3,-4,-3,7,2,0,-1,2021-08-07 10:50:41,582665
-2,-1,-1,2,0,-1,-2,-1,2021-08-07 10:50:41,582665
0,2,0,-4,-8,-4,-1,1,2021-08-07 10:50:41,582665
0,0,0,0,1,1,0,-1,2021-08-07 10:50:41,582665
1,1,2,2,-3,-4,0,1,2021-08-07 10:50:41,583666
-3,-4,-3,-4,-2,-2,-1,-2,2021-08-07 10:50:41,583666
0,0,1,0,2,1,0,2,2021-08-07 10:50:41,583666
1,-2,0,-5,-6,0,-3,-3,2021-08-07 10:50:41,583666
1,-2,-2,-3,-6,-3,-2,2,2021-08-07 10:50:41,604666
3,2,4,12,12,4,1,2,2021-08-07 10:50:41,604666
-2,-3,-5,-9,-12,-8,-3,-4,2021-08-07 10:50:41,604666
0,1,0,-1,5,4,2,1,2021-08-07 10:50:41,604666
1,3,3,7,13,7,0,0,2021-08-07 10:50:41,635666
-4,-2,-2,-2,-2,-1,-3,-1,2021-08-07 10:50:41,651664
-2,-3,-2,-3,-3,-2,-3,-3,2021-08-07 10:50:41,667664
0,-1,-2,2,-2,-2,0,-2,2021-08-07 10:50:41,667664
-4,-3,-2,-4,-3,-2,-1,-3,2021-08-07 10:50:41,667664
0,0,-2,-1,-2,-2,0,0,2021-08-07 10:50:41,667664
-2,-1,-2,-4,-5,-2,-1,0,2021-08-07 10:50:41,667664
0,-1,-1,-2,-1,-2,-1,1,2021-08-07 10:50:41,667664
-1,-1,1,-1,0,0,1,0,2021-08-07 10:50:41,667664
-1,0,-1,-1,-4,-2,-1,-2,2021-08-07 10:50:41,668664
-2,-4,-2,-3,-4,-1,-1,-3,2021-08-07 10:50:41,668664
2,1,2,10,21,7,0,1,2021-08-07 10:50:41,668664
1,0,0,1,1,1,1,0,2021-08-07 10:50:41,698666
-2,-2,-2,-5,-5,-1,-1,-1,2021-08-07 10:50:41,698666
0,-2,-3,-4,-4,-3,-1,-1,2021-08-07 10:50:41,698666
-1,2,3,6,-4,-2,0,0,2021-08-07 10:50:41,698666
2,0,0,2,4,1,-1,-2,2021-08-07 10:50:41,714666
-1,-3,-6,-7,-3,-2,-1,-2,2021-08-07 10:50:41,730666
1,0,0,3,1,-1,0,0,2021-08-07 10:50:41,730666
-1,-2,-3,-3,-4,-3,1,0,2021-08-07 10:50:41,730666
1,3,2,-1,-1,0,0,2,2021-08-07 10:50:41,730666
0,0,0,0,-2,-2,0,0,2021-08-07 10:50:41,730666
-3,-2,-2,1,0,-2,-2,-3,2021-08-07 10:50:41,730666
-2,-1,-4,-4,-3,-1,0,-1,2021-08-07 10:50:41,730666
-2,-4,-3,-5,-4,-2,-2,-2,2021-08-07 10:50:41,761666
0,0,0,1,2,1,1,0,2021-08-07 10:50:41,776666
0,0,1,1,3,0,0,-1,2021-08-07 10:50:41,792666
-1,-2,-2,-4,-4,-2,-1,-2,2021-08-07 10:50:41,792666
-3,-3,-2,-4,-9,-5,-3,1,2021-08-07 10:50:41,792666
-1,0,2,3,4,2,0,1,2021-08-07 10:50:41,792666
2,1,3,12,16,7,3,1,2021-08-07 10:50:41,792666
-5,-4,-3,-7,-10,-5,-4,-3,2021-08-07 10:50:41,792666
-1,1,-3,-7,-5,-1,-1,-1,2021-08-07 10:50:41,793666
-1,-1,2,8,3,1,-1,-1,2021-08-07 10:50:41,793666
-1,-2,-2,-5,-8,-3,-2,-1,2021-08-07 10:50:41,793666
-1,0,1,1,2,0,0,0,2021-08-07 10:50:41,793666
-3,-2,-3,-3,-4,-3,-1,-2,2021-08-07 10:50:41,824664
-1,-2,0,1,2,0,0,-1,2021-08-07 10:50:41,840666
-2,0,-3,-3,-3,0,0,-1,2021-08-07 10:50:41,840666
0,-2,-2,-2,-5,-2,-2,-1,2021-08-07 10:50:41,840666
0,-3,-1,-1,0,-2,-1,-1,2021-08-07 10:50:41,872666
-1,1,-2,-2,-1,-1,-1,1,2021-08-07 10:50:41,888666
2,1,1,4,6,1,1,0,2021-08-07 10:50:41,904666
-1,-3,-2,-6,-5,-2,-2,-2,2021-08-07 10:50:41,904666
0,1,0,1,-4,-3,-2,0,2021-08-07 10:50:41,904666
-3,-1,-1,1,3,-1,-2,-3,2021-08-07 10:50:41,904666
-6,-7,-7,-7,-7,-5,-3,-2,2021-08-07 10:50:41,904666
3,5,4,3,1,1,-1,1,2021-08-07 10:50:41,904666
3,2,5,7,4,3,2,2,2021-08-07 10:50:41,904666
-1,0,2,0,0,-1,0,-1,2021-08-07 10:50:41,905666
0,0,-2,-3,-2,-3,0,-1,2021-08-07 10:50:41,905666
-4,-4,-5,-3,-2,-3,-3,-5,2021-08-07 10:50:41,905666
-3,-3,-4,-3,1,-2,-2,-1,2021-08-07 10:50:41,905666
0,-1,-3,-13,-17,-8,-4,-2,2021-08-07 10:50:41,905666
-1,-1,1,3,1,1,-1,0,2021-08-07 10:50:41,905666
1,0,2,9,14,6,3,2,2021-08-07 10:50:41,905666
0,1,1,3,1,-1,0,-1,2021-08-07 10:50:41,906666
-4,-5,-6,-12,-9,-6,-4,-3,2021-08-07 10:50:41,906666
2,1,1,-6,-15,-7,-2,-2,2021-08-07 10:50:41,906666
-1,2,0,7,16,7,0,0,2021-08-07 10:50:41,906666
-2,-1,0,1,-2,-2,0,-2,2021-08-07 10:50:41,935666
-2,-3,-2,1,4,2,0,0,2021-08-07 10:50:41,951664
0,0,0,3,-3,1,0,0,2021-08-07 10:50:41,951664
-2,-3,-5,-11,-11,-4,-2,-1,2021-08-07 10:50:41,951664
2,3,4,10,8,5,1,2,2021-08-07 10:50:41,951664
0,0,1,-3,-2,0,-2,-1,2021-08-07 10:50:41,951664
-1,-2,-2,-5,-1,-1,-1,0,2021-08-07 10:50:41,951664
0,-2,0,-1,-4,-2,-2,-1,2021-08-07 10:50:41,951664
-2,-3,-3,-4,2,-1,2,0,2021-08-07 10:50:41,967666
1,4,4,3,3,1,2,1,2021-08-07 10:50:41,967666
-2,1,1,0,5,2,2,-1,2021-08-07 10:50:41,967666
-3,-4,-4,-11,-11,-5,-2,-3,2021-08-07 10:50:41,967666
-1,-2,-4,-4,-6,-3,-1,0,2021-08-07 10:50:41,999666
1,0,-1,4,3,2,0,0,2021-08-07 10:50:41,999666
2,1,2,-1,-4,0,-1,1,2021-08-07 10:50:41,999666
-2,-2,0,4,17,4,0,-2,2021-08-07 10:50:41,999666
-2,0,1,11,6,4,0,-1,2021-08-07 10:50:42,015665
0,-1,-1,3,3,1,0,-1,2021-08-07 10:50:42,015665
-3,-2,-3,-8,-12,-6,-4,-2,2021-08-07 10:50:42,015665
-2,-2,-1,-5,-13,-7,-3,-1,2021-08-07 10:50:42,015665
-1,-3,-4,-11,-6,-4,-4,-2,2021-08-07 10:50:42,047664
-1,0,-1,-1,-4,-4,-2,0,2021-08-07 10:50:42,063664
1,1,-2,1,2,0,0,1,2021-08-07 10:50:42,078665
1,1,2,0,-2,-1,1,2,2021-08-07 10:50:42,094668
-2,-2,-4,-11,-8,-3,-3,-3,2021-08-07 10:50:42,110668
0,1,0,3,5,3,-1,2,2021-08-07 10:50:42,110668
0,2,2,7,5,2,0,-1,2021-08-07 10:50:42,110668
0,-2,-6,-11,-8,-4,0,-2,2021-08-07 10:50:42,110668
0,0,2,6,-1,1,-1,0,2021-08-07 10:50:42,110668
0,-1,0,5,4,3,2,1,2021-08-07 10:50:42,110668
3,5,1,1,11,6,5,2,2021-08-07 10:50:42,126666
0,3,2,-3,-5,-4,-3,0,2021-08-07 10:50:42,126666
2,-4,-4,1,-2,-2,2,0,2021-08-07 10:50:42,126666
1,-1,-3,-7,-9,4,13,6,2021-08-07 10:50:42,126666
-7,-4,1,10,16,3,-7,-4,2021-08-07 10:50:42,126666
-11,-7,-6,-7,-14,-25,-24,-13,2021-08-07 10:50:42,127666
-17,-6,-6,-12,-16,-24,-22,-18,2021-08-07 10:50:42,142666
1,0,2,9,11,3,2,2,2021-08-07 10:50:42,142666
5,-1,-5,-17,-26,-3,9,8,2021-08-07 10:50:42,142666
8,6,6,11,20,23,17,11,2021-08-07 10:50:42,142666
5,4,5,15,10,9,6,4,2021-08-07 10:50:42,142666
1,-2,-2,-9,-10,-3,0,-1,2021-08-07 10:50:42,142666
-1,0,3,8,14,4,2,1,2021-08-07 10:50:42,143666
1,-2,-3,-3,-5,-3,-2,-2,2021-08-07 10:50:42,143666
1,-2,-2,-3,0,2,2,1,2021-08-07 10:50:42,143666
-3,-3,-4,-9,-12,-7,-6,-4,2021-08-07 10:50:42,143666
-1,-3,0,2,5,0,-3,-1,2021-08-07 10:50:42,158667
-4,-3,1,9,13,3,1,-2,2021-08-07 10:50:42,174666
-1,0,-2,-11,-7,0,0,-2,2021-08-07 10:50:42,189668
-3,1,3,12,10,3,-4,-2,2021-08-07 10:50:42,205664
-3,-3,-3,-5,-8,-8,-8,-7,2021-08-07 10:50:42,205664
0,2,1,1,-6,0,1,2,2021-08-07 10:50:42,206193
3,1,0,-1,3,4,2,4,2021-08-07 10:50:42,221692
-2,-2,-6,-12,-9,-8,-6,-5,2021-08-07 10:50:42,237693
-1,-1,-3,-9,-10,-5,-3,-2,2021-08-07 10:50:42,253691
2,1,2,11,17,10,6,3,2021-08-07 10:50:42,253691
1,-2,-2,2,4,1,1,0,2021-08-07 10:50:42,253691
-1,-3,-1,-1,-6,-5,-6,-3,2021-08-07 10:50:42,253691
0,0,-2,-2,0,-2,1,0,2021-08-07 10:50:42,253691
0,0,-2,-6,-9,-2,1,0,2021-08-07 10:50:42,253691
-1,-2,0,1,1,-3,-1,-1,2021-08-07 10:50:42,254693
-2,0,1,2,6,1,-1,-1,2021-08-07 10:50:42,254693
-2,-3,-3,0,-8,-3,-3,-3,2021-08-07 10:50:42,254693
-4,-3,-3,-7,-8,-4,-4,-1,2021-08-07 10:50:42,254693
1,2,0,1,3,3,1,1,2021-08-07 10:50:42,254693
0,-2,-2,-3,-3,-2,0,0,2021-08-07 10:50:42,254693
-2,-2,-2,-6,-9,-5,-4,0,2021-08-07 10:50:42,255695
-1,-2,-1,2,6,1,-1,-2,2021-08-07 10:50:42,255695
0,0,-2,4,1,0,1,0,2021-08-07 10:50:42,269693
0,1,2,4,2,0,0,0,2021-08-07 10:50:42,284695
0,1,2,11,18,8,4,0,2021-08-07 10:50:42,300694
-2,-3,-4,-7,-16,-9,-3,-3,2021-08-07 10:50:42,300694
-4,0,-3,-9,-3,-2,0,0,2021-08-07 10:50:42,300694
-2,-2,-4,-6,-7,-5,-4,-1,2021-08-07 10:50:42,300694
-1,-3,-4,-5,0,2,0,-1,2021-08-07 10:50:42,301695
3,3,6,12,8,5,1,2,2021-08-07 10:50:42,301695
-1,-2,-1,-1,-1,0,-2,0,2021-08-07 10:50:42,316694
0,-1,-2,0,2,0,-2,-2,2021-08-07 10:50:42,332693
0,-2,-1,-2,-5,-4,-3,-1,2021-08-07 10:50:42,332693
-1,-2,-4,-7,-8,-3,-1,1,2021-08-07 10:50:42,332693
0,-1,0,-3,0,-1,-1,0,2021-08-07 10:50:42,332693
-1,-1,-2,0,1,-1,-1,-1,2021-08-07 10:50:42,332693
0,1,-1,-1,0,-1,-2,0,2021-08-07 10:50:42,333692
0,-1,-1,-4,-6,-4,2,-2,2021-08-07 10:50:42,333692
-3,-2,-1,-3,-8,-6,-1,-2,2021-08-07 10:50:42,362692
0,0,0,6,7,4,0,-2,2021-08-07 10:50:42,378693
3,3,4,7,13,9,5,0,2021-08-07 10:50:42,410945
-2,-2,-6,-16,-17,-7,-4,0,2021-08-07 10:50:42,410945
0,-1,-3,-7,4,-1,-1,-3,2021-08-07 10:50:42,410945
2,3,9,31,31,9,3,2,2021-08-07 10:50:42,410945
-2,-2,-5,-5,-7,-6,-4,-1,2021-08-07 10:50:42,410945
-3,0,-1,0,-6,-2,-1,-3,2021-08-07 10:50:42,411696
-1,-2,-3,-8,-12,-4,-2,-1,2021-08-07 10:50:42,411696
0,-3,-1,-2,14,4,2,-1,2021-08-07 10:50:42,426693
2,0,0,-1,-4,-4,0,0,2021-08-07 10:50:42,426693
-1,-2,-2,-5,-2,-1,-2,-1,2021-08-07 10:50:42,426693
-1,-1,-1,-4,-8,-3,-2,-1,2021-08-07 10:50:42,426693
-2,-1,0,-5,-8,-2,-2,-1,2021-08-07 10:50:42,426693
-2,-2,0,5,3,3,0,-1,2021-08-07 10:50:42,426693
-1,-1,-3,-4,-5,-3,0,-1,2021-08-07 10:50:42,427695
-2,0,0,4,2,-1,-2,-1,2021-08-07 10:50:42,442693
-2,-1,-2,-5,-8,-1,-1,0,2021-08-07 10:50:42,442693
-1,1,2,4,1,-2,-1,0,2021-08-07 10:50:42,442693
1,-1,1,3,9,4,1,-1,2021-08-07 10:50:42,442693
1,-1,0,6,4,3,0,-1,2021-08-07 10:50:42,442693
-3,-2,-6,-11,-12,-6,-3,-2,2021-08-07 10:50:42,442693
-2,-1,-2,-5,-9,-4,-4,-3,2021-08-07 10:50:42,458693
-1,-2,-2,-5,-8,-3,-3,-2,2021-08-07 10:50:42,465691
0,2,4,16,16,6,1,1,2021-08-07 10:50:42,465691
-2,-2,-4,-7,-6,-1,-1,-1,2021-08-07 10:50:42,465691
-2,0,-2,-1,-2,-3,-2,-1,2021-08-07 10:50:42,474691
-1,2,3,3,4,2,1,1,2021-08-07 10:50:42,474691
0,0,1,2,6,1,-1,0,2021-08-07 10:50:42,505692
1,1,-1,-4,-8,-2,-2,-1,2021-08-07 10:50:42,521691
-3,-2,-5,-5,-8,-4,-3,-1,2021-08-07 10:50:42,521691
0,0,1,0,4,2,0,-1,2021-08-07 10:50:42,521691
1,2,3,7,6,3,1,0,2021-08-07 10:50:42,521691
0,-2,-3,-3,-2,-1,0,-1,2021-08-07 10:50:42,521691
-2,-1,-1,-6,-7,-5,-1,-3,2021-08-07 10:50:42,521691
1,3,3,4,6,0,-1,-1,2021-08-07 10:50:42,521691
0,-1,1,2,-4,-2,-2,-2,2021-08-07 10:50:42,537694
-7,-10,-12,-12,-16,-6,-3,-2,2021-08-07 10:50:42,552725
1,-3,-6,-5,12,5,1,0,2021-08-07 10:50:42,552725
-3,-2,-1,2,4,1,0,0,2021-08-07 10:50:42,552725
0,3,2,1,-2,-1,-2,-3,2021-08-07 10:50:42,552725
2,2,4,2,0,-2,-1,0,2021-08-07 10:50:42,552725
-1,1,1,-4,-10,-3,0,1,2021-08-07 10:50:42,553726
0,0,0,6,5,1,0,0,2021-08-07 10:50:42,553726
-1,-1,-2,-2,-2,-1,-2,-1,2021-08-07 10:50:42,584727
-2,0,0,-1,-3,-2,-2,-2,2021-08-07 10:50:42,600726
-2,-3,-2,-3,-2,-1,-2,-1,2021-08-07 10:50:42,600726
-1,-1,0,4,2,-1,-2,0,2021-08-07 10:50:42,600726
-3,-4,-4,-11,-11,-4,0,0,2021-08-07 10:50:42,600726
0,-1,-1,-3,2,-1,0,0,2021-08-07 10:50:42,600726
1,2,7,15,22,10,3,2,2021-08-07 10:50:42,600726
-1,-4,-5,-8,-10,-3,-3,-2,2021-08-07 10:50:42,600726
-2,-3,-3,-3,0,0,0,0,2021-08-07 10:50:42,616725
0,3,1,2,2,0,-1,-1,2021-08-07 10:50:42,616725
0,0,1,-3,-7,-1,-1,-1,2021-08-07 10:50:42,631727
0,-3,-3,-6,-9,-5,-2,-1,2021-08-07 10:50:42,631727
-6,-6,-12,-23,-27,-11,-5,-5,2021-08-07 10:50:42,631727
9,10,16,37,49,23,11,7,2021-08-07 10:50:42,631727
-2,-1,-2,-1,-6,-5,-1,-2,2021-08-07 10:50:42,631727
0,-1,0,-1,-2,0,0,-3,2021-08-07 10:50:42,631727
1,-2,-4,-4,-2,-3,-2,-1,2021-08-07 10:50:42,663726
-6,-8,-9,-20,-24,-12,-7,-5,2021-08-07 10:50:42,679724
0,-2,1,6,3,3,0,0,2021-08-07 10:50:42,695725
0,2,2,6,7,2,2,2,2021-08-07 10:50:42,711725
0,-1,-3,-4,-4,-3,-2,1,2021-08-07 10:50:42,727726
2,0,-1,-1,-2,-1,-1,-2,2021-08-07 10:50:42,727726
-2,-2,0,2,2,1,0,0,2021-08-07 10:50:42,727726
-2,-2,-3,-5,-7,-4,-2,-2,2021-08-07 10:50:42,727726
-2,1,0,2,2,1,-1,0,2021-08-07 10:50:42,742726
-3,0,-3,-5,-5,-2,-2,-3,2021-08-07 10:50:42,742726
-2,-1,-3,-2,-2,-2,-3,-3,2021-08-07 10:50:42,742726
0,-2,0,4,2,2,-1,1,2021-08-07 10:50:42,742726
-1,1,-2,3,4,1,0,-3,2021-08-07 10:50:42,742726
-2,-1,-1,-3,-7,-4,-1,0,2021-08-07 10:50:42,742726
0,0,1,2,4,3,0,0,2021-08-07 10:50:42,742726
-2,-1,-3,-2,-1,-2,-1,-1,2021-08-07 10:50:42,743726
0,1,1,2,6,2,1,1,2021-08-07 10:50:42,743726
-2,-2,-2,-5,-9,-4,-3,-2,2021-08-07 10:50:42,743726
1,0,-3,-3,-5,-4,-1,0,2021-08-07 10:50:42,743726
-2,0,-3,-1,0,0,-1,-2,2021-08-07 10:50:42,743726
1,1,1,4,1,1,0,0,2021-08-07 10:50:42,743726
-1,0,1,1,-4,-1,0,0,2021-08-07 10:50:42,743726
-3,-4,-5,-7,-8,-3,-1,-3,2021-08-07 10:50:42,790725
2,1,0,1,4,-1,1,0,2021-08-07 10:50:42,806726
1,0,0,-1,3,0,1,0,2021-08-07 10:50:42,806726
1,1,2,5,11,3,2,1,2021-08-07 10:50:42,806726
-1,0,0,4,-3,-3,-3,-1,2021-08-07 10:50:42,806726
-5,-3,-2,-2,-7,-5,-3,-2,2021-08-07 10:50:42,806726
-3,-2,-1,-9,-7,-2,-2,0,2021-08-07 10:50:42,806726
-1,-2,-1,-6,-10,-6,-3,-1,2021-08-07 10:50:42,806726
1,0,1,-3,-5,-3,0,0,2021-08-07 10:50:42,806726
1,0,-1,-2,5,3,1,0,2021-08-07 10:50:42,806726
1,0,6,15,14,5,2,0,2021-08-07 10:50:42,807726
-1,-1,-1,1,-1,0,0,1,2021-08-07 10:50:42,807726
-2,-2,-2,-4,-4,-2,-1,0,2021-08-07 10:50:42,822725
-2,-2,-4,-8,-12,-5,-2,-1,2021-08-07 10:50:42,822725
-1,-3,-2,-7,-7,-4,-1,-2,2021-08-07 10:50:42,838726
1,0,-1,6,10,1,1,0,2021-08-07 10:50:42,838726
-2,0,-1,-4,-6,-3,-2,-2,2021-08-07 10:50:42,838726
-1,1,1,2,4,1,0,-2,2021-08-07 10:50:42,838726
1,-2,-3,-3,-4,-2,0,-1,2021-08-07 10:50:42,854726
-1,-2,-4,-5,-4,-3,-2,-2,2021-08-07 10:50:42,870726
-1,-3,-6,-13,-8,-3,-2,-1,2021-08-07 10:50:42,870726
0,2,3,5,9,2,1,2,2021-08-07 10:50:42,870726
-3,0,0,8,1,-1,-2,-4,2021-08-07 10:50:42,870726
-1,-2,-3,-5,-2,-1,0,0,2021-08-07 10:50:42,870726
0,-1,1,0,3,1,0,1,2021-08-07 10:50:42,870726
-1,-3,-4,-4,-5,-3,-2,-1,2021-08-07 10:50:42,870726
-1,-1,-1,-3,-10,-3,-1,-1,2021-08-07 10:50:42,896725
-4,-6,-3,-11,-14,-5,-3,-2,2021-08-07 10:50:42,897725
4,5,7,22,49,20,7,4,2021-08-07 10:50:42,897725
-4,-3,-3,-4,-10,-2,-2,-3,2021-08-07 10:50:42,897725
1,0,-1,-7,-3,-3,0,1,2021-08-07 10:50:42,918725
1,2,4,10,8,6,1,0,2021-08-07 10:50:42,934723
1,0,0,0,5,1,1,-1,2021-08-07 10:50:42,934723
2,-3,-2,0,-2,-2,-1,0,2021-08-07 10:50:42,934723
-3,-5,-8,-18,-20,-9,-3,0,2021-08-07 10:50:42,934723
-2,-7,-13,-30,-31,-12,-4,-3,2021-08-07 10:50:42,934723
-2,1,5,25,23,8,1,-1,2021-08-07 10:50:42,934723
-2,-2,0,-3,-14,-6,-3,-4,2021-08-07 10:50:42,935727
-6,-4,-2,0,1,1,-4,-5,2021-08-07 10:50:42,964726
4,6,12,30,47,16,5,1,2021-08-07 10:50:42,964726
-2,-3,-5,-16,-22,-9,-5,-4,2021-08-07 10:50:42,964726
0,0,0,1,4,0,1,-1,2021-08-07 10:50:42,964726
-1,-1,-2,-15,-25,-12,-5,-3,2021-08-07 10:50:42,980725
2,0,0,-1,-1,-2,-1,1,2021-08-07 10:50:42,980725
-2,-2,-2,-4,-3,-2,0,-1,2021-08-07 10:50:42,980725
-1,-1,-3,-2,-11,-4,-2,0,2021-08-07 10:50:42,980725
1,0,0,7,19,9,2,1,2021-08-07 10:50:43,012725
-1,-1,1,9,4,3,1,0,2021-08-07 10:50:43,028725
-2,-1,-3,-10,-15,-5,-2,-1,2021-08-07 10:50:43,044726
-1,-3,-2,-3,2,0,-2,-2,2021-08-07 10:50:43,044726
0,2,4,12,16,8,5,2,2021-08-07 10:50:43,044726
-3,-2,-3,-9,-14,-8,-2,-2,2021-08-07 10:50:43,044726
-3,-2,-7,-14,-20,-9,-4,-1,2021-08-07 10:50:43,044726
0,2,4,9,13,6,0,-1,2021-08-07 10:50:43,044726
0,-1,2,6,5,2,-1,0,2021-08-07 10:50:43,045725
-2,-2,0,3,1,1,-1,-4,2021-08-07 10:50:43,045725
-1,-3,-1,-6,-9,-6,0,-1,2021-08-07 10:50:43,045725
-1,-3,-3,-4,2,0,-2,0,2021-08-07 10:50:43,045725
-2,-5,-7,-16,-16,-7,-2,-3,2021-08-07 10:50:43,060726
3,4,11,24,26,9,2,3,2021-08-07 10:50:43,075725
1,2,7,14,6,1,1,2,2021-08-07 10:50:43,107725
-4,-3,-1,-2,-1,-1,0,-2,2021-08-07 10:50:43,107725
-2,-2,-3,-8,-15,-8,-3,-2,2021-08-07 10:50:43,107725
0,1,1,5,10,7,3,2,2021-08-07 10:50:43,123725
2,-2,-1,4,14,5,1,0,2021-08-07 10:50:43,139728
-4,-2,1,1,-5,-9,-7,-3,2021-08-07 10:50:43,139728
-4,-1,-3,-3,-1,-2,0,-1,2021-08-07 10:50:43,139728
-4,-2,-5,-17,-17,-6,0,0,2021-08-07 10:50:43,139728
-2,-3,-2,-7,-13,-4,-3,-2,2021-08-07 10:50:43,139728
2,-1,-1,0,2,0,-2,2,2021-08-07 10:50:43,140725
-2,-3,-3,-4,10,1,-2,-2,2021-08-07 10:50:43,140725
0,-1,-6,-10,-12,-5,-5,-2,2021-08-07 10:50:43,140725
1,2,6,13,12,9,4,2,2021-08-07 10:50:43,140725
-3,-3,-1,1,6,2,1,-1,2021-08-07 10:50:43,140725
0,-2,-2,1,9,5,1,0,2021-08-07 10:50:43,140725
0,1,-2,-11,-10,-4,-2,-2,2021-08-07 10:50:43,140725
-2,-3,-5,-10,-12,-5,-3,-4,2021-08-07 10:50:43,141725
1,1,2,3,0,-1,1,1,2021-08-07 10:50:43,141725
-2,-2,-1,4,-2,0,-2,-1,2021-08-07 10:50:43,155725
-2,-3,-3,-3,10,2,0,1,2021-08-07 10:50:43,155725
1,1,2,5,-2,-3,-3,-2,2021-08-07 10:50:43,171726
1,1,3,7,10,7,2,1,2021-08-07 10:50:43,171726
-1,2,3,4,3,0,-1,1,2021-08-07 10:50:43,171726
-4,-5,-7,-9,-13,-8,-3,-5,2021-08-07 10:50:43,171726
0,1,-1,-4,-5,-2,-1,0,2021-08-07 10:50:43,171726
0,-1,0,-2,-2,0,-1,-1,2021-08-07 10:50:43,172726
-2,-4,-5,-8,-8,-4,-2,-4,2021-08-07 10:50:43,203725
1,1,4,14,5,0,-1,0,2021-08-07 10:50:43,219725
0,1,-1,1,7,3,1,1,2021-08-07 10:50:43,235736
1,4,4,0,-5,1,2,0,2021-08-07 10:50:43,235736
0,0,0,4,1,1,0,-1,2021-08-07 10:50:43,251725
-2,0,3,6,4,0,0,-1,2021-08-07 10:50:43,251725
-5,-6,-6,-6,-6,-3,-3,-4,2021-08-07 10:50:43,251725
-3,-4,-4,-5,-5,-2,-2,-1,2021-08-07 10:50:43,251725
1,2,3,9,12,3,1,1,2021-08-07 10:50:43,251725
0,-2,-3,-10,-12,-5,-2,-2,2021-08-07 10:50:43,251725
-1,-2,0,-2,-5,-3,0,0,2021-08-07 10:50:43,251725
-2,-2,-2,0,4,3,1,0,2021-08-07 10:50:43,251725
2,2,5,8,14,7,3,2,2021-08-07 10:50:43,251725
-4,-3,-6,0,-3,-2,-3,-2,2021-08-07 10:50:43,251725
4,3,3,-5,-9,-3,-1,0,2021-08-07 10:50:43,252728
-3,-5,-6,-9,-9,-7,-3,-3,2021-08-07 10:50:43,252728
-3,-2,-2,-4,-13,-7,-1,-3,2021-08-07 10:50:43,282725
-1,1,0,-7,-9,-2,-2,-1,2021-08-07 10:50:43,282725
1,3,6,19,10,4,2,2,2021-08-07 10:50:43,282725
1,2,3,16,22,9,3,1,2021-08-07 10:50:43,282725
3,0,0,-1,-7,1,0,0,2021-08-07 10:50:43,313726
-4,-6,-7,-7,-5,-6,-3,-4,2021-08-07 10:50:43,329725
-5,-3,-4,-19,-26,-12,-5,-3,2021-08-07 10:50:43,344724
-1,0,-2,3,2,3,2,0,2021-08-07 10:50:43,344724
-2,1,1,9,19,3,1,-1,2021-08-07 10:50:43,344724
-2,-3,-2,-9,-14,-8,-3,-2,2021-08-07 10:50:43,344724
-3,-4,-5,-9,4,1,-1,-1,2021-08-07 10:50:43,344724
-1,-2,0,-3,-12,-5,-3,0,2021-08-07 10:50:43,344724
-1,-1,0,-3,0,0,-1,-1,2021-08-07 10:50:43,345725
-2,-1,-1,-1,6,2,0,-1,2021-08-07 10:50:43,345725
1,2,2,4,0,0,1,-1,2021-08-07 10:50:43,345725
0,1,-1,-6,-3,-3,1,0,2021-08-07 10:50:43,345725
3,4,3,6,4,4,2,1,2021-08-07 10:50:43,360724
0,-2,-3,-7,-4,-2,-2,-1,2021-08-07 10:50:43,376725
-2,-2,-4,0,-2,-2,-3,-1,2021-08-07 10:50:43,376725
0,-3,-3,-8,-5,-2,-2,-1,2021-08-07 10:50:43,376725
-1,-1,2,4,5,1,-1,0,2021-08-07 10:50:43,376725
-4,-4,-4,-8,-10,-5,-4,-3,2021-08-07 10:50:43,376725
0,0,5,17,19,8,2,2,2021-08-07 10:50:43,376725
-1,0,-4,-13,-10,-5,-1,-1,2021-08-07 10:50:43,377726
-3,-1,2,6,6,-1,-1,0,2021-08-07 10:50:43,407723
1,0,2,-2,-6,0,1,2,2021-08-07 10:50:43,423724
-1,-3,-5,-9,-3,-4,-2,-3,2021-08-07 10:50:43,439724
0,1,1,2,9,6,1,2,2021-08-07 10:50:43,439724
0,-1,2,10,1,-1,-1,0,2021-08-07 10:50:43,439724
-2,-2,0,-1,-4,-1,-4,-1,2021-08-07 10:50:43,439724
2,1,1,8,23,6,3,2,2021-08-07 10:50:43,439724
-1,-2,-4,-3,-5,-5,-1,-2,2021-08-07 10:50:43,439724
-2,-5,-9,-21,-18,-6,-3,-2,2021-08-07 10:50:43,440726
3,4,7,16,15,6,5,2,2021-08-07 10:50:43,440726
-1,-4,-4,-12,-14,-8,-3,-1,2021-08-07 10:50:43,440726
-2,-1,-1,-1,1,-4,-1,-2,2021-08-07 10:50:43,440726
-2,-2,-3,-5,-10,-5,-3,-1,2021-08-07 10:50:43,455726
-1,-2,-2,-4,1,1,-2,0,2021-08-07 10:50:43,455726
0,2,5,10,10,7,1,-1,2021-08-07 10:50:43,455726
1,1,-1,-2,-1,0,1,1,2021-08-07 10:50:43,455726
0,0,-1,3,5,2,1,-1,2021-08-07 10:50:43,487724
-1,-1,-6,-13,-12,-5,-1,-1,2021-08-07 10:50:43,502728
-2,-2,-3,-2,-5,0,-1,-2,2021-08-07 10:50:43,518726
4,5,9,26,21,8,3,1,2021-08-07 10:50:43,518726
-3,-1,0,-6,-6,-3,-3,-2,2021-08-07 10:50:43,518726
0,-2,0,3,5,0,2,-2,2021-08-07 10:50:43,518726
-1,-1,-1,-6,-11,-6,0,0,2021-08-07 10:50:43,518726
-2,-3,-2,2,-4,-1,-1,-2,2021-08-07 10:50:43,518726
-2,-3,-1,-23,-37,-14,-4,-2,2021-08-07 10:50:43,519726
5,5,3,32,54,21,7,3,2021-08-07 10:50:43,519726
-7,-8,-19,-41,-26,-10,-8,-5,2021-08-07 10:50:43,519726
-1,0,3,12,7,3,-2,-2,2021-08-07 10:50:43,519726
-1,-1,0,-2,14,3,1,0,2021-08-07 10:50:43,534726
-1,0,7,10,-2,-1,0,-1,2021-08-07 10:50:43,534726
0,-1,0,7,12,5,-1,0,2021-08-07 10:50:43,534726
-1,-1,-6,-17,-21,-9,-3,-1,2021-08-07 10:50:43,534726
-4,-5,-8,-12,-14,-8,-3,-3,2021-08-07 10:50:43,550725
0,0,0,3,-9,-3,0,0,2021-08-07 10:50:43,566726
0,0,0,4,6,3,0,1,2021-08-07 10:50:43,582725
-2,-4,-6,-8,-12,-7,-3,-3,2021-08-07 10:50:43,582725
-1,0,-2,2,4,1,-3,-1,2021-08-07 10:50:43,582725
1,0,-2,-17,-17,-6,-3,1,2021-08-07 10:50:43,582725
3,2,9,19,7,4,2,1,2021-08-07 10:50:43,582725
-5,-5,-6,-8,-5,-3,-4,-2,2021-08-07 10:50:43,582725
0,1,2,13,12,6,1,1,2021-08-07 10:50:43,598724
-2,0,-4,-15,-4,-3,-1,-2,2021-08-07 10:50:43,614726
2,4,10,26,18,6,4,2,2021-08-07 10:50:43,645725
-4,-3,-5,-15,-22,-11,-4,-3,2021-08-07 10:50:43,676725
3,3,6,13,34,15,5,3,2021-08-07 10:50:43,676725
-7,-5,-6,-5,-8,-7,-6,-6,2021-08-07 10:50:43,676725
0,-1,-2,-12,-18,-9,-3,-2,2021-08-07 10:50:43,676725
-1,-1,-2,-8,0,0,0,0,2021-08-07 10:50:43,676725
-1,-3,-6,-5,-23,-9,-3,-3,2021-08-07 10:50:43,676725
-3,-3,-4,-6,-12,-6,-3,-3,2021-08-07 10:50:43,676725
-1,0,-3,0,15,5,1,0,2021-08-07 10:50:43,677726
-3,-1,2,4,-5,-3,-1,-4,2021-08-07 10:50:43,677726
0,0,1,1,3,0,-1,-1,2021-08-07 10:50:43,677726
0,0,-1,0,0,1,1,2,2021-08-07 10:50:43,677726
-5,-3,-7,-26,-20,-10,-5,-3,2021-08-07 10:50:43,677726
2,3,13,20,25,6,1,1,2021-08-07 10:50:43,677726
3,3,6,17,6,7,2,2,2021-08-07 10:50:43,677726
0,-3,-7,-3,12,3,1,-1,2021-08-07 10:50:43,678727
-7,-8,-18,-34,-32,-16,-9,-6,2021-08-07 10:50:43,678727
1,-1,-4,-3,-2,2,1,1,2021-08-07 10:50:43,678727
0,-3,-4,-6,0,-2,1,-1,2021-08-07 10:50:43,707725
0,0,5,8,3,2,2,0,2021-08-07 10:50:43,723724
0,2,10,27,26,12,2,-3,2021-08-07 10:50:43,723724
-3,-2,-1,-5,-5,-2,-2,-4,2021-08-07 10:50:43,723724
1,2,3,6,-6,-2,-2,-1,2021-08-07 10:50:43,723724
-1,-2,0,-5,-6,-3,-2,-1,2021-08-07 10:50:43,723724
1,-1,-4,-6,-10,-7,-2,1,2021-08-07 10:50:43,723724
4,2,5,12,2,2,2,2,2021-08-07 10:50:43,723724
-2,-1,-1,9,17,7,1,-1,2021-08-07 10:50:43,724728
-5,-3,-5,-5,-12,-7,-4,-2,2021-08-07 10:50:43,724728
-3,-5,-9,-22,-17,-7,-3,-3,2021-08-07 10:50:43,739725
5,6,11,25,25,10,3,4,2021-08-07 10:50:43,739725
-3,-4,-8,-28,-19,-8,-3,-1,2021-08-07 10:50:43,755725
5,3,9,30,31,12,5,3,2021-08-07 10:50:43,771725
-8,-8,-11,-30,-43,-18,-7,-4,2021-08-07 10:50:43,781725
2,0,2,4,25,12,4,2,2021-08-07 10:50:43,782725
4,4,4,14,7,4,4,2,2021-08-07 10:50:43,782725
-2,-1,-2,-10,-8,-3,-2,-2,2021-08-07 10:50:43,782725
-2,-1,1,3,-2,-2,-2,-2,2021-08-07 10:50:43,802725
-5,-6,-10,-15,-9,-4,-3,-1,2021-08-07 10:50:43,818726
-3,-1,4,10,-2,-4,-2,-3,2021-08-07 10:50:43,818726
1,-1,-4,-11,-3,2,2,1,2021-08-07 10:50:43,818726
2,2,1,5,-2,0,1,1,2021-08-07 10:50:43,818726
-6,-8,-10,-17,-18,-12,-8,-4,2021-08-07 10:50:43,818726
-5,-7,-13,-31,-25,-9,-7,-3,2021-08-07 10:50:43,818726
5,7,16,44,42,14,5,2,2021-08-07 10:50:43,818726
1,2,7,11,6,4,3,0,2021-08-07 10:50:43,819727
1,-2,-5,-15,-18,-6,-2,-2,2021-08-07 10:50:43,819727
2,4,8,25,39,14,5,2,2021-08-07 10:50:43,849726
-5,-3,-7,-24,-29,-12,-7,-7,2021-08-07 10:50:43,865725
4,4,5,17,20,8,4,3,2021-08-07 10:50:43,865725
-3,-4,-4,-4,-4,-3,-3,-3,2021-08-07 10:50:43,865725
-1,-2,-4,-16,-12,-5,-1,-2,2021-08-07 10:50:43,865725
-2,-2,-1,-3,-8,-3,-2,0,2021-08-07 10:50:43,865725
2,2,7,20,27,10,4,1,2021-08-07 10:50:43,865725
-1,0,-1,-11,-13,-6,-1,-1,2021-08-07 10:50:43,866726
-4,-3,-7,-20,-25,-11,-4,-2,2021-08-07 10:50:43,881725
-3,-3,-1,13,14,3,-1,-1,2021-08-07 10:50:43,881725
-3,-4,-4,-7,1,-1,-4,-3,2021-08-07 10:50:43,881725
1,1,-1,3,1,1,1,-1,2021-08-07 10:50:43,881725
-2,-4,-5,-14,-21,-9,-4,-4,2021-08-07 10:50:43,897725
4,6,12,23,17,6,4,3,2021-08-07 10:50:43,897725
-1,-1,2,8,2,2,1,1,2021-08-07 10:50:43,897725
-1,1,-2,-3,-5,0,1,0,2021-08-07 10:50:43,897725
-1,0,4,17,29,8,2,0,2021-08-07 10:50:43,929725
-1,-3,-10,-21,-20,-7,-3,-2,2021-08-07 10:50:43,929725
1,1,6,14,9,1,1,0,2021-08-07 10:50:43,929725
0,2,6,18,19,7,3,2,2021-08-07 10:50:43,929725
-3,-5,-9,-22,-31,-14,-7,-5,2021-08-07 10:50:43,929725
-4,-5,-4,-8,-3,-2,-2,-2,2021-08-07 10:50:43,929725
0,-2,0,11,1,0,-1,-1,2021-08-07 10:50:43,945724
-1,-2,-8,-20,-20,-10,-3,-1,2021-08-07 10:50:43,945724
3,2,4,9,17,6,2,2,2021-08-07 10:50:43,961726
-1,1,5,14,4,2,0,0,2021-08-07 10:50:43,976725
-3,-4,-5,-6,-4,-2,-2,-3,2021-08-07 10:50:43,976725
-1,-1,-2,-4,-7,-3,0,0,2021-08-07 10:50:43,976725
-6,-3,-4,-9,-16,-8,-5,-4,2021-08-07 10:50:43,976725
4,3,-3,-2,17,7,2,2,2021-08-07 10:50:43,976725
-2,-2,-4,-15,-20,-6,-1,-2,2021-08-07 10:50:43,976725
0,1,5,16,22,7,0,1,2021-08-07 10:50:43,977725
-2,-1,-1,7,5,0,-2,-1,2021-08-07 10:50:43,992726
-2,-1,-3,-14,-16,-8,-3,-3,2021-08-07 10:50:44,008725
-2,-1,-5,-13,-11,-6,-2,-2,2021-08-07 10:50:44,024725
0,0,3,5,8,4,1,-1,2021-08-07 10:50:44,024725
-2,-2,-5,-8,-3,-3,0,-1,2021-08-07 10:50:44,024725
-4,-7,-14,-27,-29,-9,-4,-4,2021-08-07 10:50:44,024725
3,5,6,24,33,10,0,1,2021-08-07 10:50:44,024725
0,1,0,-8,-26,-9,-2,-3,2021-08-07 10:50:44,024725
8,11,18,32,43,21,11,6,2021-08-07 10:50:44,056724
-6,-5,-8,-24,-27,-14,-6,-5,2021-08-07 10:50:44,072725
0,-1,0,22,23,11,4,2,2021-08-07 10:50:44,103725
-1,0,-2,-8,-7,-4,-2,0,2021-08-07 10:50:44,103725
-2,-5,-4,-5,-14,-5,-5,-3,2021-08-07 10:50:44,103725
1,2,6,9,11,4,3,2,2021-08-07 10:50:44,103725
-1,-2,-3,-11,-11,-5,-2,-1,2021-08-07 10:50:44,103725
-2,-4,-2,0,-1,-1,-1,-2,2021-08-07 10:50:44,103725
-3,-8,-12,-15,-13,-5,-1,0,2021-08-07 10:50:44,103725
-2,-1,-5,-19,-15,-9,-5,-3,2021-08-07 10:50:44,104726
0,-1,0,-1,-8,-1,-3,-1,2021-08-07 10:50:44,104726
4,7,13,36,50,16,5,2,2021-08-07 10:50:44,104726
6,7,7,8,-2,1,1,3,2021-08-07 10:50:44,104726
-6,-10,-13,-12,-10,-5,-4,-4,2021-08-07 10:50:44,104726
-3,-5,-14,-39,-25,-12,-3,-2,2021-08-07 10:50:44,104726
-4,-6,-9,-20,-30,-13,-7,-4,2021-08-07 10:50:44,104726
-2,-1,3,8,22,9,0,-1,2021-08-07 10:50:44,119725
8,11,19,34,21,10,4,6,2021-08-07 10:50:44,119725
-2,-2,4,20,25,9,1,-2,2021-08-07 10:50:44,119725
4,6,4,7,16,8,6,4,2021-08-07 10:50:44,119725
-6,-8,-7,-10,-11,-8,-4,-4,2021-08-07 10:50:44,135723
-1,0,-1,-7,-10,-5,-1,-2,2021-08-07 10:50:44,135723
1,1,1,-8,-12,-4,0,2,2021-08-07 10:50:44,135723
-1,-3,0,3,2,-2,-2,-3,2021-08-07 10:50:44,135723
-2,-3,-4,1,-3,-2,-2,0,2021-08-07 10:50:44,166725
-5,-5,-9,-10,-4,-3,-3,-4,2021-08-07 10:50:44,166725
1,0,0,-6,-8,-3,-1,0,2021-08-07 10:50:44,166725
-1,2,1,7,6,2,0,0,2021-08-07 10:50:44,166725
-1,-1,-6,-17,-19,-8,-2,-1,2021-08-07 10:50:44,166725
-4,-4,-8,-11,1,2,0,-2,2021-08-07 10:50:44,167725
-3,-2,-3,-6,-11,-5,-2,0,2021-08-07 10:50:44,182725
1,0,3,9,19,10,2,-1,2021-08-07 10:50:44,182725
0,1,8,6,-7,-3,-2,-1,2021-08-07 10:50:44,198725
-4,-3,-2,-2,-11,-7,-3,-2,2021-08-07 10:50:44,214724
1,0,3,8,14,5,0,-3,2021-08-07 10:50:44,215725
2,3,4,6,-5,1,-1,2,2021-08-07 10:50:44,215725
2,4,1,-1,-4,0,0,-1,2021-08-07 10:50:44,215725
-1,-3,-2,0,6,3,1,0,2021-08-07 10:50:44,216726
-3,-3,-6,-17,-20,-7,-4,-3,2021-08-07 10:50:44,216726
-3,-4,-6,-1,1,-1,-3,-2,2021-08-07 10:50:44,216726
-4,-3,-5,-1,5,-3,-1,-2,2021-08-07 10:50:44,245725
7,9,8,9,1,2,3,3,2021-08-07 10:50:44,261729
-4,-3,-4,-6,-7,-5,-2,-3,2021-08-07 10:50:44,261729
0,-1,0,-8,-5,-5,0,1,2021-08-07 10:50:44,261729
-1,0,0,7,7,4,1,2,2021-08-07 10:50:44,261729
-5,-7,-8,-12,-19,-12,-7,-5,2021-08-07 10:50:44,261729
4,5,3,6,18,12,6,3,2021-08-07 10:50:44,261729
-6,-6,-8,-21,-22,-10,-5,-5,2021-08-07 10:50:44,262727
4,5,16,36,40,17,5,4,2021-08-07 10:50:44,292725
2,1,3,14,9,3,-1,0,2021-08-07 10:50:44,292725
2,1,-4,2,5,0,2,2,2021-08-07 10:50:44,292725
-7,-7,-9,-18,-19,-11,-5,-4,2021-08-07 10:50:44,292725
-3,-2,-7,-21,-19,-7,-1,-4,2021-08-07 10:50:44,292725
0,2,3,14,10,4,-1,1,2021-08-07 10:50:44,308724
2,2,5,9,-3,-3,0,0,2021-08-07 10:50:44,340726
-1,-2,-3,-7,-4,3,-1,-1,2021-08-07 10:50:44,340726
-2,-4,-4,3,3,0,-1,-2,2021-08-07 10:50:44,340726
5,7,8,-2,-3,3,3,2,2021-08-07 10:50:44,340726
-2,1,2,12,21,6,1,0,2021-08-07 10:50:44,340726
-3,-5,-6,-15,-19,-8,-3,0,2021-08-07 10:50:44,340726
-1,-3,-1,-2,-10,-5,-1,-2,2021-08-07 10:50:44,341726
0,0,3,4,3,0,-2,-2,2021-08-07 10:50:44,341726
0,2,4,4,-7,-3,-3,-1,2021-08-07 10:50:44,372726
2,-1,-8,-4,7,2,1,0,2021-08-07 10:50:44,388725
-5,-7,-18,-32,-20,-8,-6,-6,2021-08-07 10:50:44,404725
-6,-6,-6,-1,10,3,1,-4,2021-08-07 10:50:44,420725
0,-2,2,-2,-6,-3,-3,-1,2021-08-07 10:50:44,435725
-1,1,10,11,2,0,-1,-2,2021-08-07 10:50:44,435725
5,4,-2,7,-4,0,1,3,2021-08-07 10:50:44,435725
-1,-1,-6,-6,-1,-1,-1,-1,2021-08-07 10:50:44,435725
1,1,3,10,11,4,2,1,2021-08-07 10:50:44,435725
0,0,0,4,6,2,-1,-1,2021-08-07 10:50:44,435725
-4,-3,-1,-6,-12,-7,-3,-2,2021-08-07 10:50:44,436727
-1,-1,-1,0,-4,-2,-1,-2,2021-08-07 10:50:44,436727
5,4,3,-1,-1,1,1,1,2021-08-07 10:50:44,436727
0,0,0,-1,2,4,3,0,2021-08-07 10:50:44,436727
-3,-1,1,0,0,-2,-2,0,2021-08-07 10:50:44,436727
-7,-6,-12,-13,-18,-10,-4,-4,2021-08-07 10:50:44,436727
-1,-2,-4,-9,-7,-2,-1,0,2021-08-07 10:50:44,436727
2,5,5,11,8,2,2,2,2021-08-07 10:50:44,436727
1,0,2,3,9,3,0,-2,2021-08-07 10:50:44,437725
-5,-5,-4,-1,-5,-5,-2,-4,2021-08-07 10:50:44,437725
4,7,0,-12,-17,-3,1,2,2021-08-07 10:50:44,437725
-3,-3,-1,7,14,4,1,-2,2021-08-07 10:50:44,437725
0,1,5,8,1,-1,1,0,2021-08-07 10:50:44,467726
-5,-7,-8,-18,-26,-10,-5,-4,2021-08-07 10:50:44,483725
-1,-3,-2,10,23,8,1,-1,2021-08-07 10:50:44,483725
0,3,1,5,6,1,1,0,2021-08-07 10:50:44,483725
1,1,1,13,4,-1,1,0,2021-08-07 10:50:44,483725
5,5,6,-3,0,2,2,3,2021-08-07 10:50:44,483725
-5,-7,-5,-3,-11,-5,-4,-4,2021-08-07 10:50:44,483725
0,0,-2,-1,1,-2,-2,-1,2021-08-07 10:50:44,484725
-2,-1,-1,-2,0,1,0,0,2021-08-07 10:50:44,499725
0,-2,-4,-6,-2,1,0,1,2021-08-07 10:50:44,499725
-5,-4,-3,-6,-7,-5,-2,-6,2021-08-07 10:50:44,499725
-6,-7,-4,1,2,-2,-5,-4,2021-08-07 10:50:44,499725
2,6,8,10,5,1,0,-1,2021-08-07 10:50:44,531724
2,3,3,6,4,1,0,-1,2021-08-07 10:50:44,547724
-3,-4,-7,-18,-3,-3,-3,-1,2021-08-07 10:50:44,563725
2,-1,-4,9,10,1,0,1,2021-08-07 10:50:44,563725
0,-4,-5,-12,-17,-9,-6,-2,2021-08-07 10:50:44,563725
4,3,6,8,12,7,5,4,2021-08-07 10:50:44,563725
-4,-4,-7,-16,-21,-9,-5,-3,2021-08-07 10:50:44,563725
3,2,4,5,6,5,4,3,2021-08-07 10:50:44,563725
6,7,12,29,35,13,8,6,2021-08-07 10:50:44,564726
0,0,5,16,15,5,2,-2,2021-08-07 10:50:44,564726
-4,-5,-3,2,0,-3,-2,-2,2021-08-07 10:50:44,578724
-1,1,-1,-11,-15,-6,-1,-1,2021-08-07 10:50:44,594726
-4,-1,-5,-19,-22,-10,-5,-2,2021-08-07 10:50:44,594726
2,0,2,6,7,3,2,1,2021-08-07 10:50:44,594726
-5,-7,-8,-4,-9,-6,-5,-4,2021-08-07 10:50:44,594726
-3,-3,-7,-10,-2,1,0,1,2021-08-07 10:50:44,594726
-2,-5,-6,-12,-9,-3,-3,-3,2021-08-07 10:50:44,595728
2,4,5,9,5,0,0,2,2021-08-07 10:50:44,595728
1,3,2,1,-1,2,2,1,2021-08-07 10:50:44,595728
-3,-1,1,-3,-13,-9,-6,-3,2021-08-07 10:50:44,595728
1,0,-2,9,16,8,2,1,2021-08-07 10:50:44,626726
-5,-7,-11,-17,-17,-11,-5,-5,2021-08-07 10:50:44,642725
-1,-4,-4,1,5,4,0,-1,2021-08-07 10:50:44,655724
0,2,2,1,-11,-5,-1,-1,2021-08-07 10:50:44,655724
-4,-5,-8,-20,-16,-5,-3,-4,2021-08-07 10:50:44,656726
6,9,15,41,43,18,6,5,2021-08-07 10:50:44,656726
0,0,-1,-3,-8,-2,-2,-1,2021-08-07 10:50:44,656726
-2,-3,-2,-7,-5,-2,-2,-1,2021-08-07 10:50:44,656726
-5,-6,-10,-30,-33,-13,-6,-3,2021-08-07 10:50:44,656726
5,8,15,49,59,23,8,4,2021-08-07 10:50:44,657725
1,2,4,9,-1,-1,1,-1,2021-08-07 10:50:44,657725
-2,-3,-5,-11,-8,-4,-2,-2,2021-08-07 10:50:44,657725
-3,-5,-8,-4,-6,-4,-4,-3,2021-08-07 10:50:44,689726
-2,-4,-8,-29,-31,-12,-6,-2,2021-08-07 10:50:44,705725
1,4,4,5,7,2,2,0,2021-08-07 10:50:44,721725
4,1,0,2,-10,-2,0,2,2021-08-07 10:50:44,721725
0,0,1,5,11,4,0,0,2021-08-07 10:50:44,737727
-5,-5,-7,-13,-2,-3,-4,-2,2021-08-07 10:50:44,737727
-2,0,7,8,1,-4,-3,-3,2021-08-07 10:50:44,737727
2,1,-3,7,9,6,1,0,2021-08-07 10:50:44,737727
-1,0,-1,-9,-12,-4,0,1,2021-08-07 10:50:44,753726
-1,-2,-2,1,-1,0,0,1,2021-08-07 10:50:44,753726
-3,-3,-8,-4,-3,-4,-2,-2,2021-08-07 10:50:44,753726
-2,-2,5,4,6,0,0,-2,2021-08-07 10:50:44,753726
-1,0,-4,-1,-5,-2,-1,-1,2021-08-07 10:50:44,769726
-1,-1,2,-2,-7,-4,-3,-2,2021-08-07 10:50:44,769726
0,-1,1,1,-4,1,-1,0,2021-08-07 10:50:44,769726
-2,-4,-2,-3,4,0,-2,-1,2021-08-07 10:50:44,769726
5,4,8,26,23,10,5,2,2021-08-07 10:50:44,769726
1,2,4,-5,-4,-1,-1,1,2021-08-07 10:50:44,770726
1,3,-3,2,-3,-2,1,1,2021-08-07 10:50:44,770726
-4,-9,-14,-30,-29,-10,-6,-6,2021-08-07 10:50:44,770726
-5,-7,-9,-14,11,0,0,-3,2021-08-07 10:50:44,770726
-2,-1,0,7,5,0,0,-2,2021-08-07 10:50:44,770726
1,0,2,10,16,6,2,1,2021-08-07 10:50:44,785725
0,2,6,7,-13,-6,-2,-2,2021-08-07 10:50:44,785725
4,5,5,7,8,6,4,2,2021-08-07 10:50:44,801725
-4,-6,-11,-21,-12,-3,-1,-2,2021-08-07 10:50:44,817725
-3,-3,-5,-4,-5,-5,-4,-1,2021-08-07 10:50:44,817725
-2,-1,-2,-9,-9,-4,-1,-1,2021-08-07 10:50:44,818726
0,0,0,14,5,2,-1,0,2021-08-07 10:50:44,818726
-1,1,2,-2,-6,-3,-3,-2,2021-08-07 10:50:44,819726
1,0,-1,-13,-6,-2,-1,1,2021-08-07 10:50:44,819726
-2,-4,-8,-1,-12,-8,-4,-2,2021-08-07 10:50:44,819726
0,2,4,11,18,7,1,0,2021-08-07 10:50:44,833725
4,1,2,7,4,3,1,-1,2021-08-07 10:50:44,833725
-2,-5,-4,-15,-13,-7,-4,-3,2021-08-07 10:50:44,849726
0,0,-1,-10,-1,-2,-1,0,2021-08-07 10:50:44,849726
-7,-6,-5,-16,-24,-15,-8,-5,2021-08-07 10:50:44,865725
0,-3,-4,4,-6,2,-1,0,2021-08-07 10:50:44,881725
-1,-2,3,2,6,2,0,2,2021-08-07 10:50:44,881725
4,6,2,4,15,10,6,4,2021-08-07 10:50:44,881725
1,1,3,2,-2,1,1,1,2021-08-07 10:50:44,881725
-1,0,1,3,11,1,0,-1,2021-08-07 10:50:44,881725
-1,0,0,7,-1,-1,-1,0,2021-08-07 10:50:44,897725
-3,-2,-1,1,4,2,-1,-2,2021-08-07 10:50:44,897725
-2,-4,-1,-5,-5,-3,-1,-1,2021-08-07 10:50:44,897725
-2,-3,-7,-5,-11,-7,-4,-1,2021-08-07 10:50:44,897725
2,1,-3,-2,2,1,2,-1,2021-08-07 10:50:44,897725
1,0,4,4,0,-2,-2,-2,2021-08-07 10:50:44,897725
3,3,1,-2,-1,-1,-1,1,2021-08-07 10:50:44,927725
0,0,4,14,6,2,2,-1,2021-08-07 10:50:44,943727
-2,-3,-4,-4,15,5,2,-1,2021-08-07 10:50:44,959729
0,1,-5,-11,1,3,-1,2,2021-08-07 10:50:44,959729
-4,-3,-7,-17,-24,-13,-6,-4,2021-08-07 10:50:44,959729
-2,-4,-3,-4,-5,-3,-2,-1,2021-08-07 10:50:44,959729
3,2,7,12,1,-1,0,0,2021-08-07 10:50:44,959729
2,1,7,11,6,2,0,1,2021-08-07 10:50:44,960726
2,5,5,14,7,5,3,3,2021-08-07 10:50:44,960726
-4,-4,-14,-32,-22,-8,-5,-5,2021-08-07 10:50:44,960726
-7,-6,-8,-14,-16,-10,-5,-7,2021-08-07 10:50:44,960726
-2,-2,1,4,-1,0,0,-3,2021-08-07 10:50:44,960726
0,2,2,7,2,0,-2,0,2021-08-07 10:50:44,975724
2,1,6,8,6,3,1,1,2021-08-07 10:50:44,991724
2,4,3,11,9,8,2,2,2021-08-07 10:50:44,991724
-2,-7,-11,-6,2,-2,-2,0,2021-08-07 10:50:44,991724
-2,-4,-5,-13,-6,-3,-3,-2,2021-08-07 10:50:45,007725
2,6,7,2,-2,-2,0,-1,2021-08-07 10:50:45,022725
-1,-1,0,-8,-18,-6,-1,-2,2021-08-07 10:50:45,022725
3,4,8,16,33,14,4,3,2021-08-07 10:50:45,022725
-8,-11,-17,-21,-32,-14,-8,-7,2021-08-07 10:50:45,022725
-3,-4,-7,-1,18,4,-2,-1,2021-08-07 10:50:45,022725
-4,-4,-7,-21,-35,-15,-8,-2,2021-08-07 10:50:45,022725
6,5,17,34,46,18,8,5,2021-08-07 10:50:45,023726
0,1,3,7,5,2,1,0,2021-08-07 10:50:45,038726
-1,-2,-8,-14,-17,-7,-1,-1,2021-08-07 10:50:45,038726
-5,-4,-6,-13,-11,-6,-4,-4,2021-08-07 10:50:45,054724
-6,-4,-6,-14,-23,-14,-6,-5,2021-08-07 10:50:45,054724
2,3,2,4,8,5,3,2,2021-08-07 10:50:45,054724
-2,0,0,4,-2,0,-1,-1,2021-08-07 10:50:45,054724
1,1,-1,-1,6,1,-1,0,2021-08-07 10:50:45,054724
-1,0,2,8,3,2,1,-2,2021-08-07 10:50:45,054724
0,0,5,11,8,3,1,1,2021-08-07 10:50:45,085725
2,1,3,7,4,1,2,0,2021-08-07 10:50:45,085725
-4,-8,-8,-21,-16,-8,-5,-4,2021-08-07 10:50:45,085725
4,5,-2,-1,1,3,0,1,2021-08-07 10:50:45,090725
-5,-7,-11,-7,6,-1,-5,-4,2021-08-07 10:50:45,090725
1,4,5,9,-1,-2,0,2,2021-08-07 10:50:45,091725
3,2,7,20,22,11,4,2,2021-08-07 10:50:45,101723
-4,-6,-7,-15,-14,-9,-3,-2,2021-08-07 10:50:45,117727
-3,-5,-6,-13,-18,-4,-2,-5,2021-08-07 10:50:45,133760
-2,0,1,-3,6,-1,-3,-1,2021-08-07 10:50:45,149759
5,10,14,22,17,7,4,1,2021-08-07 10:50:45,149759
-3,-2,-6,4,-4,0,-1,-2,2021-08-07 10:50:45,149759
-1,-2,-7,-14,-1,-1,-2,-1,2021-08-07 10:50:45,149759
-4,-6,-5,-19,-12,-5,-4,-3,2021-08-07 10:50:45,149759
0,2,6,16,16,6,2,2,2021-08-07 10:50:45,150759
1,1,0,-1,-7,-2,-1,-2,2021-08-07 10:50:45,150759
-1,0,7,13,5,1,-2,0,2021-08-07 10:50:45,150759
0,-1,-5,-11,-10,-2,-1,1,2021-08-07 10:50:45,150759
-2,-3,-5,-5,-9,-3,-2,-2,2021-08-07 10:50:45,165759
-5,-4,-2,-3,1,0,-3,-4,2021-08-07 10:50:45,165759
5,2,5,-4,0,1,2,0,2021-08-07 10:50:45,181761
2,3,3,6,-4,-4,0,2,2021-08-07 10:50:45,197760
2,3,6,18,28,11,6,1,2021-08-07 10:50:45,213757
-2,-6,-5,-4,5,1,1,0,2021-08-07 10:50:45,213757
-9,-10,-14,-26,-33,-15,-9,-8,2021-08-07 10:50:45,213757
4,3,3,8,13,10,4,1,2021-08-07 10:50:45,213757
1,3,-1,-2,-8,-3,-1,1,2021-08-07 10:50:45,213757
-1,-2,0,-9,-14,-8,-3,-3,2021-08-07 10:50:45,213757
1,3,12,19,21,5,3,2,2021-08-07 10:50:45,213757
-6,-10,-17,-17,-19,-6,-4,-3,2021-08-07 10:50:45,213757
1,-3,-5,6,21,5,0,-2,2021-08-07 10:50:45,229759
-2,-1,-2,-15,-19,-6,-2,-1,2021-08-07 10:50:45,229759
1,1,0,4,7,2,1,0,2021-08-07 10:50:45,245758
-2,1,5,8,-3,-3,-1,-1,2021-08-07 10:50:45,245758
0,-1,-3,-7,-11,-3,-1,-1,2021-08-07 10:50:45,261759
-2,-1,-2,3,1,-1,-2,-1,2021-08-07 10:50:45,261759
1,0,2,1,3,2,-1,0,2021-08-07 10:50:45,261759
-2,-2,-3,-10,-14,-4,-2,-1,2021-08-07 10:50:45,261759
1,-1,1,7,10,5,1,-1,2021-08-07 10:50:45,261759
0,3,5,7,6,2,1,1,2021-08-07 10:50:45,262759
0,1,2,1,-8,-2,-2,0,2021-08-07 10:50:45,276758
-2,-3,-2,-2,3,-1,-3,-4,2021-08-07 10:50:45,291763
-6,-9,-14,-31,-29,-14,-7,-4,2021-08-07 10:50:45,307759
-3,-7,-11,-16,-5,-6,-6,-2,2021-08-07 10:50:45,307759
3,2,4,25,23,10,5,4,2021-08-07 10:50:45,307759
-2,-1,-1,-3,-6,-2,-2,0,2021-08-07 10:50:45,323759
0,2,1,-4,-12,-7,-2,-1,2021-08-07 10:50:45,340032
-3,-3,-4,4,-2,-3,-3,-4,2021-08-07 10:50:45,340032
1,1,-2,-8,-4,-2,2,3,2021-08-07 10:50:45,340032
-1,-3,-2,0,-1,0,-1,0,2021-08-07 10:50:45,340032
1,-1,1,12,13,5,1,1,2021-08-07 10:50:45,340032
3,3,4,3,5,3,3,3,2021-08-07 10:50:45,340761
-2,-1,1,7,-1,-3,-3,-5,2021-08-07 10:50:45,340761
-5,-3,-1,-11,-3,-3,-3,-5,2021-08-07 10:50:45,340761
-3,-1,1,-4,-2,-1,-3,-2,2021-08-07 10:50:45,340761
-1,0,-4,4,-1,-3,-2,-1,2021-08-07 10:50:45,340761
1,3,3,10,7,1,0,0,2021-08-07 10:50:45,371269
-2,-4,-9,-14,-7,-4,0,-2,2021-08-07 10:50:45,371269
-3,-3,-16,-35,-18,-7,-3,-2,2021-08-07 10:50:45,387270
0,1,8,12,4,0,-1,1,2021-08-07 10:50:45,387270
4,2,5,6,8,5,1,1,2021-08-07 10:50:45,387270
-2,-2,-3,6,0,-3,-2,-2,2021-08-07 10:50:45,387270
-1,-1,-2,-7,-7,-1,0,0,2021-08-07 10:50:45,387270
2,1,1,1,6,6,3,1,2021-08-07 10:50:45,387270
0,-2,-1,1,1,1,-1,-2,2021-08-07 10:50:45,403269
2,6,10,12,16,11,3,1,2021-08-07 10:50:45,418270
0,1,3,14,8,2,0,0,2021-08-07 10:50:45,434271
-5,-7,-10,-26,-32,-14,-5,-4,2021-08-07 10:50:45,434271
0,2,5,12,22,10,3,2,2021-08-07 10:50:45,434271
1,-1,-7,-18,1,-1,-1,-2,2021-08-07 10:50:45,434271
-2,0,2,5,-3,-2,-2,-2,2021-08-07 10:50:45,435273
-3,0,4,-1,-11,-6,-3,-1,2021-08-07 10:50:45,435273
-1,-1,0,2,2,0,2,0,2021-08-07 10:50:45,435273
1,0,-2,4,0,-1,0,-1,2021-08-07 10:50:45,435273
-5,-4,-4,-9,-7,-5,-4,-3,2021-08-07 10:50:45,450270
1,-1,-4,-4,-1,1,0,2,2021-08-07 10:50:45,450270
-4,-1,3,-17,-18,-9,-5,-3,2021-08-07 10:50:45,450270
0,3,2,8,6,2,1,1,2021-08-07 10:50:45,466270
7,7,16,35,27,12,5,4,2021-08-07 10:50:45,481269
0,-1,-3,6,8,3,2,0,2021-08-07 10:50:45,481269
-2,-5,-15,-21,-14,-3,-2,1,2021-08-07 10:50:45,481269
-2,0,9,14,7,1,-1,0,2021-08-07 10:50:45,481269
-4,-4,-7,-10,-4,-2,-1,-2,2021-08-07 10:50:45,481269
-4,-3,-5,-5,-10,-6,-3,-2,2021-08-07 10:50:45,481269
-3,-3,-4,-13,-10,-6,-3,-2,2021-08-07 10:50:45,512271
-1,-2,-2,-4,-8,-4,-4,-1,2021-08-07 10:50:45,528272
4,4,8,10,9,5,2,2,2021-08-07 10:50:45,528272
-1,1,3,3,5,3,0,-2,2021-08-07 10:50:45,529271
2,2,1,11,13,6,4,1,2021-08-07 10:50:45,529271
-2,-3,-6,-11,-12,-7,-3,-2,2021-08-07 10:50:45,529271
-5,-6,-8,-13,-22,-10,-7,-3,2021-08-07 10:50:45,529271
-2,0,-2,-5,-2,-4,-3,-2,2021-08-07 10:50:45,544270
0,2,0,5,7,3,0,1,2021-08-07 10:50:45,560269
3,1,3,16,29,12,4,1,2021-08-07 10:50:45,560269
2,2,4,7,-1,0,3,0,2021-08-07 10:50:45,576272
-1,0,-3,-7,-11,-7,-2,-3,2021-08-07 10:50:45,592270
-4,-6,-10,-26,-31,-13,-4,-5,2021-08-07 10:50:45,608271
-2,-1,0,20,21,7,1,-1,2021-08-07 10:50:45,624271
1,3,0,5,21,6,1,1,2021-08-07 10:50:45,640271
0,-2,-4,-4,-3,-1,-2,0,2021-08-07 10:50:45,640271
-3,-2,0,3,0,0,-2,-3,2021-08-07 10:50:45,640271
-3,-2,-2,-13,-24,-10,-4,-4,2021-08-07 10:50:45,640271
-3,-4,-3,6,0,-2,-3,-3,2021-08-07 10:50:45,656270
1,1,-3,1,1,1,0,0,2021-08-07 10:50:45,656270
-2,-3,-7,-12,1,1,-1,0,2021-08-07 10:50:45,656270
0,0,1,-3,-1,-1,-2,0,2021-08-07 10:50:45,671269
-2,-2,1,-7,-6,-3,-2,-2,2021-08-07 10:50:45,687270
7,11,22,34,28,13,6,4,2021-08-07 10:50:45,687270
-3,-4,-8,9,-1,-2,-1,-2,2021-08-07 10:50:45,687270
-2,-2,-6,-17,-32,-13,-3,-3,2021-08-07 10:50:45,703270
-4,-5,-12,-16,3,-2,-4,-2,2021-08-07 10:50:45,719269
0,-1,9,6,-8,-4,0,0,2021-08-07 10:50:45,719269
-2,-4,-7,-10,3,-1,0,-4,2021-08-07 10:50:45,719269
1,1,-2,1,14,6,3,2,2021-08-07 10:50:45,719269
-1,0,9,1,-14,-5,0,0,2021-08-07 10:50:45,719269
-2,-4,-12,-4,-3,-5,-4,-2,2021-08-07 10:50:45,720270
2,4,9,12,4,0,0,0,2021-08-07 10:50:45,720270
-1,-3,-5,-3,-7,-5,-2,-3,2021-08-07 10:50:45,720270
-1,-3,-7,-14,-7,-4,-5,0,2021-08-07 10:50:45,720270
-1,-2,2,-5,-4,0,0,0,2021-08-07 10:50:45,720270
5,8,13,17,10,5,3,4,2021-08-07 10:50:45,720270
0,-1,-2,-9,-11,-3,-2,0,2021-08-07 10:50:45,721270
0,-1,-3,-2,0,-3,-1,0,2021-08-07 10:50:45,721270
-4,-3,-9,-12,-1,1,0,-1,2021-08-07 10:50:45,721270
-2,2,8,20,24,4,-2,0,2021-08-07 10:50:45,721270
-4,-1,2,15,10,4,1,0,2021-08-07 10:50:45,721270
9,8,2,0,-6,4,6,2,2021-08-07 10:50:45,721270
-12,-18,-38,-67,-57,-27,-12,-9,2021-08-07 10:50:45,721270
1,0,11,7,13,5,2,1,2021-08-07 10:50:45,722270
3,5,3,13,8,6,2,3,2021-08-07 10:50:45,722270
0,3,10,21,25,10,2,1,2021-08-07 10:50:45,722270
3,4,8,17,10,5,1,1,2021-08-07 10:50:45,722270
-6,-7,-9,-18,-29,-12,-7,-6,2021-08-07 10:50:45,751270
2,1,9,0,0,-2,0,-1,2021-08-07 10:50:45,751270
-2,-2,-1,2,-4,-1,0,-1,2021-08-07 10:50:45,751270
-2,0,2,-3,-17,-8,-3,-4,2021-08-07 10:50:45,751270
-2,-6,-16,-22,-5,-5,-2,0,2021-08-07 10:50:45,751270
-2,-4,-10,-5,26,7,2,-1,2021-08-07 10:50:45,752270
-6,-4,0,-6,-4,-4,-3,-5,2021-08-07 10:50:45,767272
2,4,5,27,25,9,3,1,2021-08-07 10:50:45,767272
-1,-1,-4,-14,-35,-15,-5,-2,2021-08-07 10:50:45,783270
-1,-4,-13,-26,-23,-12,-5,-2,2021-08-07 10:50:45,799270
-4,-9,-4,1,4,-1,-2,-2,2021-08-07 10:50:45,799270
-1,0,5,10,13,2,-1,-1,2021-08-07 10:50:45,799270
2,4,3,6,-8,0,1,0,2021-08-07 10:50:45,799270
6,9,12,18,21,10,6,3,2021-08-07 10:50:45,799270
-4,-5,-3,4,2,-4,-2,-4,2021-08-07 10:50:45,799270
1,0,1,-2,-2,0,1,0,2021-08-07 10:50:45,800270
-1,-1,-4,-8,-13,-6,-2,-2,2021-08-07 10:50:45,830271
-2,-3,5,6,-4,-1,-1,-2,2021-08-07 10:50:45,830271
0,-2,-3,-5,-6,-3,-2,0,2021-08-07 10:50:45,830271
2,2,-1,0,17,9,4,3,2021-08-07 10:50:45,830271
-2,-3,-4,-7,1,0,-1,-2,2021-08-07 10:50:45,846269
-1,-4,-3,-16,-28,-12,-5,-2,2021-08-07 10:50:45,846269
2,3,0,7,10,6,4,2,2021-08-07 10:50:45,846269
-1,-3,-3,-6,-6,-4,-1,-1,2021-08-07 10:50:45,846269
-3,-2,-1,-7,1,-3,-1,-2,2021-08-07 10:50:45,862270
-2,-4,1,15,6,3,0,0,2021-08-07 10:50:45,877272
1,2,-8,-17,-18,-8,-2,0,2021-08-07 10:50:45,877272
2,3,5,1,13,6,1,2,2021-08-07 10:50:45,877272
-4,-5,-3,4,1,-1,-2,-1,2021-08-07 10:50:45,877272
2,2,0,-5,-6,0,-1,0,2021-08-07 10:50:45,877272
5,2,8,15,13,5,4,2,2021-08-07 10:50:45,877272
1,0,4,7,-7,-2,1,-2,2021-08-07 10:50:45,878270
-8,-10,-17,-32,-22,-13,-9,-5,2021-08-07 10:50:45,909270
1,1,5,29,30,14,2,1,2021-08-07 10:50:45,909270
4,4,0,6,21,9,5,3,2021-08-07 10:50:45,925270
-4,-2,-1,-11,-13,-6,-4,-3,2021-08-07 10:50:45,940271
-1,-7,-5,-6,-10,-3,0,-1,2021-08-07 10:50:45,940271
0,4,0,-16,-24,-11,-3,-1,2021-08-07 10:50:45,940271
2,5,14,16,18,7,2,-1,2021-08-07 10:50:45,940271
-1,1,-1,16,10,3,0,-2,2021-08-07 10:50:45,940271
3,1,0,12,13,8,4,1,2021-08-07 10:50:45,940271
-5,-10,-18,-25,-16,-8,-5,-4,2021-08-07 10:50:45,940271
-8,-12,-11,-26,-32,-19,-10,-7,2021-08-07 10:50:45,940271
0,-1,2,1,7,6,0,1,2021-08-07 10:50:45,941271
3,7,15,29,30,13,4,1,2021-08-07 10:50:45,956273
-2,-3,-4,-14,-15,-5,-2,-3,2021-08-07 10:50:45,956273
3,6,9,17,11,6,3,4,2021-08-07 10:50:45,970270
-4,-7,-4,-7,-17,-9,-4,-5,2021-08-07 10:50:45,970270
1,4,0,-1,0,2,1,1,2021-08-07 10:50:45,988268
-6,-4,-3,-13,-9,-7,-5,-5,2021-08-07 10:50:46,004270
-3,-6,-11,-29,-31,-9,-4,-4,2021-08-07 10:50:46,020272
4,7,12,37,58,21,7,5,2021-08-07 10:50:46,036271
0,-1,-3,-3,-13,-4,0,1,2021-08-07 10:50:46,036271
2,2,8,11,17,6,2,1,2021-08-07 10:50:46,036271
-4,-7,-6,-14,-30,-10,-6,-5,2021-08-07 10:50:46,036271
4,4,-2,-3,1,1,0,1,2021-08-07 10:50:46,036271
2,0,-3,-1,10,2,0,-1,2021-08-07 10:50:46,036271
-5,-3,1,-5,-14,-8,-5,-3,2021-08-07 10:50:46,052270
4,3,4,8,6,3,3,1,2021-08-07 10:50:46,052270
-1,-1,2,16,12,7,0,-1,2021-08-07 10:50:46,052270
-3,-6,-17,-31,-19,-8,-5,-2,2021-08-07 10:50:46,052270
-3,-3,4,-9,-7,-5,-4,-3,2021-08-07 10:50:46,052270
-2,1,-10,14,10,2,0,-1,2021-08-07 10:50:46,052270
0,0,5,-13,-23,-10,-4,-1,2021-08-07 10:50:46,053271
3,6,9,13,11,4,2,1,2021-08-07 10:50:46,068270
-1,-5,-12,-12,-7,-4,-1,-2,2021-08-07 10:50:46,068270
-2,-1,5,15,14,6,0,0,2021-08-07 10:50:46,068270
3,3,-1,-14,-22,-9,1,1,2021-08-07 10:50:46,068270
-1,-1,1,1,8,9,4,1,2021-08-07 10:50:46,084272
3,6,11,25,26,5,2,1,2021-08-07 10:50:46,100271
-4,-5,-9,-7,-2,-1,-2,-3,2021-08-07 10:50:46,100271
-7,-8,-10,-20,-19,-9,-7,-3,2021-08-07 10:50:46,100271
2,4,7,15,15,4,3,3,2021-08-07 10:50:46,100271
2,1,5,10,12,5,3,1,2021-08-07 10:50:46,100271
-1,1,8,-2,-4,-4,-2,-2,2021-08-07 10:50:46,101272
3,6,9,22,13,5,3,3,2021-08-07 10:50:46,101272
-3,-2,-8,-11,-15,-8,-4,-2,2021-08-07 10:50:46,132270
-2,-6,-17,-30,-15,-7,-2,-3,2021-08-07 10:50:46,147270
-4,-7,-13,-16,-13,-7,-4,-4,2021-08-07 10:50:46,163268
-7,-7,2,-5,0,-4,-6,-4,2021-08-07 10:50:46,179269
1,3,5,8,-4,-2,-1,0,2021-08-07 10:50:46,179269
5,4,7,21,18,11,5,3,2021-08-07 10:50:46,179269
2,0,0,-10,-3,-1,1,0,2021-08-07 10:50:46,179269
-3,-4,-7,-12,-19,-9,-3,-4,2021-08-07 10:50:46,179269
3,3,12,29,35,15,3,1,2021-08-07 10:50:46,195270
1,3,-2,-7,-17,-6,-1,0,2021-08-07 10:50:46,211269
-2,-6,-12,-20,-7,-4,0,0,2021-08-07 10:50:46,227269
-4,-6,-13,-3,15,6,2,-1,2021-08-07 10:50:46,243272
-8,-5,-3,-9,-19,-11,-7,-5,2021-08-07 10:50:46,259271
-2,1,9,14,9,2,-1,-3,2021-08-07 10:50:46,259271
5,10,12,18,13,5,2,1,2021-08-07 10:50:46,259271
0,1,-5,-9,-6,-5,-2,-3,2021-08-07 10:50:46,259271
1,-2,-3,-5,-3,-1,0,1,2021-08-07 10:50:46,275271
-5,-6,-11,-16,-18,-7,-4,0,2021-08-07 10:50:46,291270
0,-2,2,-8,-9,-4,-2,-1,2021-08-07 10:50:46,307269
0,-4,-8,-16,-16,-6,-4,-2,2021-08-07 10:50:46,307269
1,2,6,13,14,7,2,2,2021-08-07 10:50:46,307269
2,3,9,27,19,11,4,2,2021-08-07 10:50:46,307269
0,2,1,9,13,3,2,1,2021-08-07 10:50:46,307269
-4,-7,-10,-29,-27,-9,-4,-2,2021-08-07 10:50:46,307269
-1,1,2,6,15,5,-1,-1,2021-08-07 10:50:46,307269
-1,-2,-5,1,-8,-6,-3,-2,2021-08-07 10:50:46,308271
-3,-1,7,13,8,2,-1,-1,2021-08-07 10:50:46,308271
2,4,6,10,7,2,1,1,2021-08-07 10:50:46,308271
2,-2,-9,-24,-22,-10,-2,0,2021-08-07 10:50:46,308271
-2,-2,-2,-4,5,2,0,-1,2021-08-07 10:50:46,308271
-4,-2,-8,-16,-15,-6,-3,-2,2021-08-07 10:50:46,308271
-2,2,6,11,8,3,0,0,2021-08-07 10:50:46,309274
0,1,2,9,10,7,2,0,2021-08-07 10:50:46,323272
-1,-2,-7,-17,-7,-3,-3,-2,2021-08-07 10:50:46,339269
-3,-5,-10,-10,-10,-7,-4,-3,2021-08-07 10:50:46,355270
4,4,12,24,18,8,3,2,2021-08-07 10:50:46,371270
0,2,4,13,10,2,-1,-2,2021-08-07 10:50:46,387269
-1,-1,-4,-5,-5,-2,-1,-2,2021-08-07 10:50:46,387269
-1,-3,-3,3,-4,-2,-1,-4,2021-08-07 10:50:46,387269
5,5,5,-6,-9,-2,3,3,2021-08-07 10:50:46,387269
-1,-4,-5,-7,-2,-5,-2,-2,2021-08-07 10:50:46,397270
-3,-6,-7,4,14,4,-1,0,2021-08-07 10:50:46,398270
-3,-5,-11,-8,1,-2,-2,-3,2021-08-07 10:50:46,398270
