EMG 1,EMG 2,EMG 3,EMG 4,EMG 5,EMG 6,EMG 7,EMG 8,Timestamp,Milliseconds
1,2,2,3,1,0,-1,1,2021-08-07 11:49:21,293751
0,-1,0,2,4,2,0,-3,2021-08-07 11:49:21,293751
-2,-2,-2,-1,-2,0,-1,-1,2021-08-07 11:49:21,293751
-1,0,0,-4,-2,-2,-2,-1,2021-08-07 11:49:21,293751
0,0,2,2,-2,-1,0,0,2021-08-07 11:49:21,293751
-2,0,-3,-2,-1,-1,-2,0,2021-08-07 11:49:21,293751
3,1,2,6,3,2,0,-1,2021-08-07 11:49:21,293751
-3,-2,-3,-4,-5,-2,-1,-2,2021-08-07 11:49:21,293751
0,-1,1,2,2,1,1,0,2021-08-07 11:49:21,293751
-2,-3,-2,-1,-2,-1,-2,-1,2021-08-07 11:49:21,294749
-2,-1,0,9,6,3,2,1,2021-08-07 11:49:21,294749
0,0,1,2,0,0,0,-1,2021-08-07 11:49:21,294749
0,-1,-2,-1,-1,-2,-2,-2,2021-08-07 11:49:21,309749
2,-1,0,-4,-2,-1,0,0,2021-08-07 11:49:21,309749
-2,-1,-3,-7,-7,-5,-2,-1,2021-08-07 11:49:21,325749
1,0,3,6,9,3,3,3,2021-08-07 11:49:21,325749
-1,-1,-2,-3,-3,-3,0,-1,2021-08-07 11:49:21,325749
-2,-3,-1,-1,-2,-3,-2,-1,2021-08-07 11:49:21,325749
0,-1,-1,-4,-1,-1,-2,-1,2021-08-07 11:49:21,357748
-1,-2,-1,-3,-2,-1,-2,-2,2021-08-07 11:49:21,357748
-1,-3,-3,-5,-8,-3,-1,-2,2021-08-07 11:49:21,357748
-1,-1,-2,0,4,0,0,1,2021-08-07 11:49:21,357748
-1,-1,0,2,0,-1,-1,-1,2021-08-07 11:49:21,389750
-3,-4,-7,-13,-14,-7,-3,-3,2021-08-07 11:49:21,405750
2,2,6,15,10,6,2,2,2021-08-07 11:49:21,421748
0,0,-1,0,2,0,0,-2,2021-08-07 11:49:21,421748
-2,-3,-1,-1,0,0,-1,-1,2021-08-07 11:49:21,421748
-1,0,-2,-2,0,0,-1,-1,2021-08-07 11:49:21,421748
-1,-1,-2,-9,-10,-5,-1,-3,2021-08-07 11:49:21,421748
-1,-1,-2,-3,-1,0,0,0,2021-08-07 11:49:21,421748
-1,1,0,-1,0,-1,0,-2,2021-08-07 11:49:21,422749
-2,-2,-3,-4,-4,-1,-1,-1,2021-08-07 11:49:21,422749
0,1,-1,1,0,-2,-1,-1,2021-08-07 11:49:21,422749
0,1,-2,-1,0,2,-1,-1,2021-08-07 11:49:21,422749
-2,-1,-2,-6,-6,-2,-2,-3,2021-08-07 11:49:21,422749
0,-2,-3,-7,-8,-4,-2,-1,2021-08-07 11:49:21,422749
-3,-3,-3,-4,5,1,0,-2,2021-08-07 11:49:21,430749
3,2,7,12,6,1,2,2,2021-08-07 11:49:21,430749
-1,1,2,6,5,2,-1,0,2021-08-07 11:49:21,453749
1,1,3,7,0,1,1,1,2021-08-07 11:49:21,469750
-3,-2,-4,-12,-14,-5,-2,-1,2021-08-07 11:49:21,500750
-1,-1,2,8,9,3,0,-1,2021-08-07 11:49:21,500750
0,-2,-4,-9,-10,-4,-1,-3,2021-08-07 11:49:21,500750
-2,-1,2,3,5,-1,-2,-2,2021-08-07 11:49:21,500750
0,-1,-1,6,11,7,3,2,2021-08-07 11:49:21,516750
-2,-1,-4,-7,-5,-2,-3,-4,2021-08-07 11:49:21,516750
-3,-4,-6,-13,-22,-14,-8,-3,2021-08-07 11:49:21,516750
0,0,1,-9,-11,-3,-4,1,2021-08-07 11:49:21,516750
7,9,14,32,32,17,15,7,2021-08-07 11:49:21,516750
4,-3,-9,-21,-31,7,19,10,2021-08-07 11:49:21,516750
11,10,12,24,48,29,0,5,2021-08-07 11:49:21,516750
-29,-21,-9,2,1,-52,-55,-39,2021-08-07 11:49:21,516750
-15,-14,-13,-25,-34,-33,-27,-18,2021-08-07 11:49:21,532749
-2,-3,0,1,-3,-6,-1,0,2021-08-07 11:49:21,548750
1,-4,-10,-30,-56,-9,13,7,2021-08-07 11:49:21,548750
17,13,12,20,37,42,32,21,2021-08-07 11:49:21,548750
4,2,4,9,16,8,5,2,2021-08-07 11:49:21,548750
-1,-4,-2,-5,-6,-3,-1,-3,2021-08-07 11:49:21,548750
0,-2,-1,0,-2,-1,2,0,2021-08-07 11:49:21,548750
2,1,-3,-2,-7,2,3,3,2021-08-07 11:49:21,548750
0,-2,-2,-6,-8,-3,-2,0,2021-08-07 11:49:21,564748
-1,0,-2,0,1,-1,-4,-2,2021-08-07 11:49:21,564748
-4,-2,4,9,11,-3,-6,-3,2021-08-07 11:49:21,564748
2,3,-1,1,9,7,4,3,2021-08-07 11:49:21,564748
-1,-3,-5,-7,-12,-2,0,0,2021-08-07 11:49:21,595749
0,3,5,6,8,0,-4,0,2021-08-07 11:49:21,595749
-4,-2,0,0,7,-2,-4,-4,2021-08-07 11:49:21,595749
-1,-2,-7,-11,-14,-1,3,2,2021-08-07 11:49:21,595749
-2,-3,-4,-6,-8,1,-4,-2,2021-08-07 11:49:21,611750
-3,-2,0,7,15,0,-5,-4,2021-08-07 11:49:21,627751
-3,-3,-2,-7,-6,-7,-1,0,2021-08-07 11:49:21,659750
4,2,3,7,7,8,6,3,2021-08-07 11:49:21,675750
-1,-3,-3,-10,-4,-5,-3,-1,2021-08-07 11:49:21,675750
-2,-4,-2,0,-5,-5,-5,-3,2021-08-07 11:49:21,675750
-1,-1,-2,0,2,2,-1,-2,2021-08-07 11:49:21,675750
3,0,2,0,-3,3,1,2,2021-08-07 11:49:21,675750
0,-1,-2,-2,0,-3,-2,-3,2021-08-07 11:49:21,675750
-2,-3,-1,-7,-8,-6,-4,-3,2021-08-07 11:49:21,675750
0,-1,2,9,14,4,2,0,2021-08-07 11:49:21,675750
-1,0,1,-1,-6,-2,0,-2,2021-08-07 11:49:21,675750
-2,0,-1,1,1,1,0,0,2021-08-07 11:49:21,675750
0,0,-1,-5,-4,-1,-1,0,2021-08-07 11:49:21,676751
-2,-1,0,4,-2,-3,-3,-4,2021-08-07 11:49:21,691750
0,0,-1,1,5,2,2,1,2021-08-07 11:49:21,722749
-1,1,-1,-5,-8,-3,0,3,2021-08-07 11:49:21,722749
0,-1,-1,-1,-4,-4,-1,-1,2021-08-07 11:49:21,722749
0,0,3,14,21,7,2,3,2021-08-07 11:49:21,722749
-1,-1,-3,-3,-9,-4,0,-2,2021-08-07 11:49:21,722749
2,1,1,-2,0,3,1,2,2021-08-07 11:49:21,722749
-3,-1,-3,0,6,1,-3,-2,2021-08-07 11:49:21,722749
0,-1,-2,-2,-3,-1,1,0,2021-08-07 11:49:21,723752
-1,0,-1,-5,-10,-2,0,-1,2021-08-07 11:49:21,723752
0,1,3,7,9,2,0,-1,2021-08-07 11:49:21,723752
-4,-5,-4,-4,-3,-3,-3,-3,2021-08-07 11:49:21,723752
1,0,-1,-5,-7,-1,0,0,2021-08-07 11:49:21,738750
-1,-2,-1,-2,1,-1,-1,1,2021-08-07 11:49:21,738750
-1,1,-2,-7,-7,-1,0,-1,2021-08-07 11:49:21,738750
-1,-2,-2,-1,0,-2,-3,-2,2021-08-07 11:49:21,738750
-1,-1,0,2,0,0,-3,-1,2021-08-07 11:49:21,738750
-2,-4,-5,-11,-13,-7,-3,-3,2021-08-07 11:49:21,738750
1,2,4,15,26,9,3,2,2021-08-07 11:49:21,769750
1,1,2,4,0,-1,0,0,2021-08-07 11:49:21,769750
0,-1,-1,0,2,3,-1,0,2021-08-07 11:49:21,769750
-1,0,1,-2,-4,-2,-1,-1,2021-08-07 11:49:21,769750
-1,-1,-5,-15,-12,-4,-2,-2,2021-08-07 11:49:21,785750
-1,0,-1,0,1,-1,-1,0,2021-08-07 11:49:21,801750
-4,-1,-4,-10,-8,-5,-2,-2,2021-08-07 11:49:21,833751
0,-2,-4,-5,-3,-1,-1,-1,2021-08-07 11:49:21,833751
-1,-1,3,10,3,1,0,0,2021-08-07 11:49:21,833751
-1,-1,-2,0,3,1,0,-1,2021-08-07 11:49:21,833751
-3,-2,-1,-4,-3,-1,-2,-4,2021-08-07 11:49:21,833751
2,3,0,4,6,1,1,1,2021-08-07 11:49:21,833751
1,-1,-4,-6,-7,-5,-1,-1,2021-08-07 11:49:21,833751
-2,-4,-4,-11,-13,-6,-2,-2,2021-08-07 11:49:21,833751
0,0,-2,-3,-5,-2,0,0,2021-08-07 11:49:21,834750
0,1,3,8,14,6,2,1,2021-08-07 11:49:21,834750
2,0,1,12,11,5,4,2,2021-08-07 11:49:21,834750
-2,-2,-1,3,3,0,-1,0,2021-08-07 11:49:21,834750
-1,-1,-2,0,-4,-2,-1,-2,2021-08-07 11:49:21,865749
-2,0,3,8,1,0,-2,-2,2021-08-07 11:49:21,865749
-2,-1,0,-1,-4,-2,-3,-5,2021-08-07 11:49:21,865749
-2,0,-1,-1,-2,-2,-3,1,2021-08-07 11:49:21,865749
-1,0,-1,-4,-2,-3,0,-1,2021-08-07 11:49:21,865749
0,-2,-3,-8,-8,-3,0,-1,2021-08-07 11:49:21,865749
0,-1,-2,-6,0,-2,0,0,2021-08-07 11:49:21,897750
1,0,3,11,10,5,1,-1,2021-08-07 11:49:21,897750
1,-1,2,1,-3,-1,0,1,2021-08-07 11:49:21,897750
-1,-1,-1,3,1,1,-1,0,2021-08-07 11:49:21,897750
-2,-2,-4,-8,-9,-5,-2,-3,2021-08-07 11:49:21,897750
-2,0,1,1,3,0,-1,-1,2021-08-07 11:49:21,897750
-2,-1,0,0,1,0,-1,-2,2021-08-07 11:49:21,929750
-3,-4,-8,-17,-20,-8,-4,-3,2021-08-07 11:49:21,945752
0,1,5,25,14,6,1,2,2021-08-07 11:49:21,945752
0,2,0,-1,3,2,0,-1,2021-08-07 11:49:21,945752
0,-2,1,5,4,0,-1,-1,2021-08-07 11:49:21,945752
-2,-1,-1,-6,-3,-3,-1,0,2021-08-07 11:49:21,945752
-2,-2,-2,-8,-11,-4,-2,-3,2021-08-07 11:49:21,945752
1,-2,-1,-3,-4,-2,0,-1,2021-08-07 11:49:21,946749
-2,-2,-2,-5,-6,-4,-3,-1,2021-08-07 11:49:21,946749
0,-1,1,5,8,3,1,1,2021-08-07 11:49:21,946749
-1,0,-1,-3,-2,-2,-1,0,2021-08-07 11:49:21,960750
-2,-2,-3,-3,-3,0,-2,-2,2021-08-07 11:49:21,960750
-4,-2,-4,-8,-5,-5,-3,-1,2021-08-07 11:49:21,976751
1,1,-1,1,4,1,3,0,2021-08-07 11:49:21,976751
0,1,1,4,4,2,0,0,2021-08-07 11:49:21,992749
-4,-4,-5,-13,-16,-9,-4,-3,2021-08-07 11:49:22,008750
2,1,1,6,4,2,1,2,2021-08-07 11:49:22,024750
-1,-3,-3,-4,-2,-3,-2,0,2021-08-07 11:49:22,024750
-1,1,4,22,30,10,0,0,2021-08-07 11:49:22,024750
0,-2,1,0,-1,-1,0,0,2021-08-07 11:49:22,024750
-4,-4,-3,-8,-7,-5,-5,-4,2021-08-07 11:49:22,024750
-2,-2,-4,-10,-15,-7,-3,-1,2021-08-07 11:49:22,024750
0,-2,-6,-14,-13,-5,-2,-2,2021-08-07 11:49:22,025750
0,3,6,15,16,6,2,3,2021-08-07 11:49:22,025750
0,0,0,0,0,1,-1,0,2021-08-07 11:49:22,025750
0,0,3,6,8,2,1,-1,2021-08-07 11:49:22,025750
-3,-3,-5,-11,-11,-6,-4,-2,2021-08-07 11:49:22,055752
-2,-1,-3,-4,0,0,0,-1,2021-08-07 11:49:22,071749
0,-3,0,-2,-1,0,0,-1,2021-08-07 11:49:22,087750
0,1,0,5,3,2,1,0,2021-08-07 11:49:22,087750
-3,-2,-5,-12,-12,-7,-3,-1,2021-08-07 11:49:22,087750
0,2,-1,-4,-1,0,1,0,2021-08-07 11:49:22,087750
3,1,3,11,12,5,3,3,2021-08-07 11:49:22,087750
0,0,0,4,2,0,-1,1,2021-08-07 11:49:22,087750
0,-1,1,3,-1,-4,-1,-2,2021-08-07 11:49:22,088750
-3,-2,-6,-12,-10,-5,-4,-3,2021-08-07 11:49:22,088750
0,-1,-2,-1,-3,-1,0,-1,2021-08-07 11:49:22,103752
-4,-1,0,0,0,1,-2,-3,2021-08-07 11:49:22,103752
0,0,0,-1,-6,-3,0,0,2021-08-07 11:49:22,103752
0,-2,1,2,3,1,-1,-1,2021-08-07 11:49:22,103752
-1,-1,-4,-4,6,0,-1,-1,2021-08-07 11:49:22,103752
0,1,3,9,3,2,-1,1,2021-08-07 11:49:22,103752
-2,-4,-4,-6,-7,-1,-1,-1,2021-08-07 11:49:22,135750
-1,-2,-3,-6,-6,-4,-3,-2,2021-08-07 11:49:22,135750
-3,-1,0,-3,-4,-2,-2,-3,2021-08-07 11:49:22,151750
0,-2,-3,-8,-4,-2,-2,-1,2021-08-07 11:49:22,167750
1,0,0,1,5,1,-2,-1,2021-08-07 11:49:22,167750
-1,-2,-1,0,1,1,-1,-1,2021-08-07 11:49:22,167750
0,-2,0,1,1,0,0,-1,2021-08-07 11:49:22,167750
-4,-3,-4,-7,-11,-5,-3,-5,2021-08-07 11:49:22,167750
1,3,4,7,12,8,5,4,2021-08-07 11:49:22,167750
1,0,-2,-2,-3,-1,-1,0,2021-08-07 11:49:22,183750
-1,-1,-1,0,-2,-2,-3,-1,2021-08-07 11:49:22,183750
1,0,2,2,6,2,2,0,2021-08-07 11:49:22,183750
-3,-3,-3,-4,-8,-3,-3,-2,2021-08-07 11:49:22,183750
0,0,3,9,4,0,-1,0,2021-08-07 11:49:22,183750
-1,0,-1,-2,0,0,2,0,2021-08-07 11:49:22,183750
0,1,1,8,5,1,0,0,2021-08-07 11:49:22,184750
-3,-2,-5,-9,-11,-5,-1,-2,2021-08-07 11:49:22,214750
1,1,1,2,2,0,0,1,2021-08-07 11:49:22,214750
0,-2,-2,-7,-9,-3,0,-2,2021-08-07 11:49:22,214750
-1,-1,-4,-6,2,0,-2,-1,2021-08-07 11:49:22,214750
-1,-2,-2,-3,-4,-2,-2,-1,2021-08-07 11:49:22,229750
0,-1,-1,0,-1,1,0,0,2021-08-07 11:49:22,229750
0,0,1,7,6,1,-2,-1,2021-08-07 11:49:22,229750
-3,-3,-2,-3,-3,-1,-3,-2,2021-08-07 11:49:22,229750
-1,0,-1,-2,0,0,-1,-1,2021-08-07 11:49:22,261752
-1,-2,-3,-11,-8,-3,-1,0,2021-08-07 11:49:22,261752
1,-1,0,0,1,-2,-1,0,2021-08-07 11:49:22,261752
1,1,0,5,7,3,2,0,2021-08-07 11:49:22,261752
-3,-3,-2,-6,-5,-4,-3,-2,2021-08-07 11:49:22,261752
-1,0,0,4,4,2,-1,-1,2021-08-07 11:49:22,262750
-2,0,-5,-5,-7,-4,-3,-3,2021-08-07 11:49:22,277751
2,-1,2,0,-1,-1,-2,-2,2021-08-07 11:49:22,277751
0,-1,-1,0,1,0,0,0,2021-08-07 11:49:22,277751
0,0,0,5,3,1,-1,-2,2021-08-07 11:49:22,293749
-3,-2,-4,-7,-11,-4,-2,-1,2021-08-07 11:49:22,309750
-3,-3,-1,4,3,1,-1,-2,2021-08-07 11:49:22,309750
-1,-2,-3,-5,-3,-2,-2,-3,2021-08-07 11:49:22,309750
0,0,3,8,1,-1,-1,0,2021-08-07 11:49:22,309750
-1,-1,0,1,1,0,0,0,2021-08-07 11:49:22,309750
-1,-3,-5,-6,2,-2,-3,-2,2021-08-07 11:49:22,309750
4,2,4,6,7,5,1,2,2021-08-07 11:49:22,325752
-1,0,1,8,8,2,-1,-1,2021-08-07 11:49:22,325752
-2,-4,-4,-6,-12,-7,-3,-2,2021-08-07 11:49:22,341748
-1,-1,-4,-15,-11,-4,1,1,2021-08-07 11:49:22,341748
-1,-2,0,3,4,1,-2,-1,2021-08-07 11:49:22,341748
1,2,0,3,4,3,2,-1,2021-08-07 11:49:22,341748
0,2,6,13,9,3,1,1,2021-08-07 11:49:22,356750
-3,-2,-5,-11,-8,-5,-5,-3,2021-08-07 11:49:22,372751
-1,-3,-1,0,-6,-4,-4,-4,2021-08-07 11:49:22,372751
-3,-3,-4,-10,-13,-5,-3,-2,2021-08-07 11:49:22,388749
0,1,1,4,5,1,1,0,2021-08-07 11:49:22,401750
2,3,4,12,12,7,4,4,2021-08-07 11:49:22,401750
-2,-2,-2,-5,-9,-5,-2,-2,2021-08-07 11:49:22,401750
-1,-2,5,13,6,2,0,-1,2021-08-07 11:49:22,401750
0,-1,-3,-9,-8,-4,-1,-1,2021-08-07 11:49:22,402754
0,-1,-1,1,0,2,-1,0,2021-08-07 11:49:22,402754
0,2,2,9,15,6,4,0,2021-08-07 11:49:22,420750
-2,-3,-4,-11,-9,-3,-1,-1,2021-08-07 11:49:22,420750
1,0,1,3,6,2,0,-1,2021-08-07 11:49:22,420750
1,0,2,7,2,-1,0,0,2021-08-07 11:49:22,420750
-3,-1,-5,-8,-9,-5,-3,-4,2021-08-07 11:49:22,420750
0,-1,-2,-6,-2,-1,-2,-1,2021-08-07 11:49:22,420750
-1,0,-2,-1,0,1,0,-1,2021-08-07 11:49:22,436750
-2,-2,-2,-4,-8,-3,-2,-4,2021-08-07 11:49:22,452750
0,-2,-1,-1,-6,-4,-2,-2,2021-08-07 11:49:22,452750
1,1,-1,0,11,3,2,1,2021-08-07 11:49:22,452750
0,2,2,3,1,2,-1,0,2021-08-07 11:49:22,452750
-2,-2,-1,-1,-1,-3,0,-2,2021-08-07 11:49:22,452750
-1,-1,-2,-9,-8,-3,-1,-1,2021-08-07 11:49:22,483750
-1,-1,-2,1,3,0,-2,0,2021-08-07 11:49:22,483750
1,0,1,5,7,2,0,1,2021-08-07 11:49:22,483750
-1,0,0,1,-1,-2,0,-1,2021-08-07 11:49:22,499749
-1,-2,-3,-6,-9,-5,-3,-1,2021-08-07 11:49:22,515749
-2,-2,-6,-11,-7,-2,0,0,2021-08-07 11:49:22,515749
2,1,3,4,4,1,1,0,2021-08-07 11:49:22,515749
-1,-2,0,3,-1,-1,-1,-1,2021-08-07 11:49:22,515749
0,-1,-1,-2,1,-1,0,-1,2021-08-07 11:49:22,515749
-1,-1,-2,-9,-11,-6,-2,-1,2021-08-07 11:49:22,515749
-2,-4,-1,2,-5,-2,-2,-1,2021-08-07 11:49:22,515749
1,1,1,-1,4,2,0,2,2021-08-07 11:49:22,515749
-1,-1,0,2,-1,-1,1,1,2021-08-07 11:49:22,531749
1,1,2,7,9,4,1,-1,2021-08-07 11:49:22,547750
-2,-1,-3,-3,-3,-1,-1,-2,2021-08-07 11:49:22,547750
-2,-1,-1,-1,-5,-3,-3,-2,2021-08-07 11:49:22,547750
-3,-2,-3,-1,-1,0,-3,-1,2021-08-07 11:49:22,547750
-2,0,1,-3,-6,-3,-3,0,2021-08-07 11:49:22,547750
-1,-1,-4,-7,-5,-2,-1,-2,2021-08-07 11:49:22,563750
1,-2,-3,-3,-1,-1,-2,-1,2021-08-07 11:49:22,563750
-1,1,0,5,4,0,1,1,2021-08-07 11:49:22,563750
-1,-1,0,-2,-6,-3,0,1,2021-08-07 11:49:22,563750
1,-1,-2,-3,1,1,-1,0,2021-08-07 11:49:22,563750
-1,-3,-2,-3,-3,-2,0,-1,2021-08-07 11:49:22,564751
0,-3,-3,-2,1,-1,-1,-2,2021-08-07 11:49:22,594749
0,0,0,2,-1,0,1,-2,2021-08-07 11:49:22,610754
-2,-2,0,-2,-2,-1,-2,-4,2021-08-07 11:49:22,610754
1,3,9,18,17,8,2,0,2021-08-07 11:49:22,610754
-1,0,0,-3,-2,-2,-2,-2,2021-08-07 11:49:22,610754
1,-1,0,3,-1,-3,-2,-1,2021-08-07 11:49:22,610754
0,-1,-3,-12,-6,-3,-3,0,2021-08-07 11:49:22,611749
2,1,1,2,-1,-2,-1,-1,2021-08-07 11:49:22,611749
2,0,0,1,1,1,0,2,2021-08-07 11:49:22,641748
0,-3,-2,-7,-7,-5,-3,-3,2021-08-07 11:49:22,657750
-3,-1,-2,-1,-1,-1,-1,-1,2021-08-07 11:49:22,673751
-1,-2,-2,-6,-5,-3,0,1,2021-08-07 11:49:22,673751
-2,0,0,1,1,-1,-1,-1,2021-08-07 11:49:22,689751
-2,-3,-7,-9,-6,-4,-2,-2,2021-08-07 11:49:22,704750
2,2,5,9,-1,1,1,0,2021-08-07 11:49:22,704750
-2,-1,0,7,15,4,-1,-2,2021-08-07 11:49:22,704750
1,0,0,-1,2,0,0,-1,2021-08-07 11:49:22,704750
-3,-3,-6,-10,-12,-7,-3,-3,2021-08-07 11:49:22,704750
1,1,4,16,17,6,5,1,2021-08-07 11:49:22,720754
-4,-2,-2,-5,-9,-3,-2,-1,2021-08-07 11:49:22,720754
-2,1,-1,-1,-2,-1,-1,-3,2021-08-07 11:49:22,720754
-1,0,1,3,3,1,-1,0,2021-08-07 11:49:22,720754
-3,-4,-9,-16,-12,-6,-3,-3,2021-08-07 11:49:22,736751
-1,-2,-3,-1,-3,-1,-1,-1,2021-08-07 11:49:22,736751
1,0,-1,-1,0,-2,-2,0,2021-08-07 11:49:22,736751
-2,-3,-3,-5,-6,-2,-1,-2,2021-08-07 11:49:22,736751
-2,0,0,-6,-2,-1,-2,1,2021-08-07 11:49:22,736751
0,-1,0,3,2,1,-1,-1,2021-08-07 11:49:22,736751
0,-2,0,5,8,4,0,-1,2021-08-07 11:49:22,737750
-1,1,1,5,3,-1,1,-2,2021-08-07 11:49:22,737750
-1,-2,-2,-3,-6,-3,-2,-1,2021-08-07 11:49:22,737750
-1,-2,-3,-8,-9,-6,-3,-2,2021-08-07 11:49:22,737750
-2,-2,-5,-14,-18,-8,-3,-1,2021-08-07 11:49:22,752752
2,2,5,16,31,12,4,2,2021-08-07 11:49:22,752752
-1,-1,0,-1,-4,-1,-2,-3,2021-08-07 11:49:22,752752
-2,-2,-6,-11,-13,-5,-2,0,2021-08-07 11:49:22,753751
0,2,1,9,5,2,1,0,2021-08-07 11:49:22,768750
-1,0,-1,-2,-6,-3,-2,0,2021-08-07 11:49:22,768750
-1,-2,-3,-4,-3,-2,-2,-1,2021-08-07 11:49:22,768750
1,-1,1,9,10,5,0,0,2021-08-07 11:49:22,768750
-2,-2,-2,-7,-6,-1,-2,1,2021-08-07 11:49:22,800750
0,0,1,5,-1,-1,-1,-1,2021-08-07 11:49:22,816751
-1,-2,-1,-2,-2,-1,-1,0,2021-08-07 11:49:22,832752
-4,-4,-3,-8,-10,-5,-2,-2,2021-08-07 11:49:22,848753
-2,1,2,3,3,-1,1,1,2021-08-07 11:49:22,864751
-1,-1,-4,-13,-13,-6,-2,-3,2021-08-07 11:49:22,864751
3,1,4,19,16,6,3,2,2021-08-07 11:49:22,864751
1,0,3,2,3,1,1,1,2021-08-07 11:49:22,864751
-4,-5,-7,-8,-5,-2,-5,-5,2021-08-07 11:49:22,865751
0,1,2,12,1,0,0,1,2021-08-07 11:49:22,865751
-2,-2,0,-2,1,0,-1,-1,2021-08-07 11:49:22,865751
0,0,-4,-5,-2,-2,-2,-2,2021-08-07 11:49:22,865751
-2,-1,2,4,4,-1,0,-1,2021-08-07 11:49:22,865751
-5,-5,-4,-8,-8,-4,-3,-2,2021-08-07 11:49:22,865751
0,0,-3,-5,-5,-3,0,-1,2021-08-07 11:49:22,865751
-1,0,0,3,2,1,0,1,2021-08-07 11:49:22,866751
-1,-1,-1,-3,-3,0,0,-1,2021-08-07 11:49:22,866751
-2,-3,-3,-6,-6,-3,-4,-1,2021-08-07 11:49:22,866751
-2,0,1,4,3,2,1,0,2021-08-07 11:49:22,880753
1,-1,0,0,3,0,1,-1,2021-08-07 11:49:22,896749
-1,-1,0,-3,-7,-2,-2,-3,2021-08-07 11:49:22,896749
0,0,0,1,6,3,2,1,2021-08-07 11:49:22,896749
-1,-3,-3,-10,-12,-5,-4,-2,2021-08-07 11:49:22,896749
0,1,1,3,4,2,3,2,2021-08-07 11:49:22,896749
0,0,2,7,8,4,2,0,2021-08-07 11:49:22,912748
-2,-1,-3,-9,-12,-4,-2,-2,2021-08-07 11:49:22,916750
-2,-1,-1,-1,1,-3,-2,-1,2021-08-07 11:49:22,916750
0,0,0,-2,-6,-3,-2,-1,2021-08-07 11:49:22,916750
-1,-4,-3,0,-1,-2,-2,-1,2021-08-07 11:49:22,928751
0,0,-1,-1,5,2,1,0,2021-08-07 11:49:22,928751
-2,-2,-5,-11,-9,-5,-2,-2,2021-08-07 11:49:22,928751
-2,-2,-3,-1,2,0,-4,-3,2021-08-07 11:49:22,928751
-1,2,1,3,-1,1,0,1,2021-08-07 11:49:22,960751
-3,-4,-5,-6,-10,-6,-3,-3,2021-08-07 11:49:22,960751
3,3,4,11,14,7,3,1,2021-08-07 11:49:22,960751
-4,-3,-2,-5,-9,-3,-3,-2,2021-08-07 11:49:22,960751
0,-1,-3,-4,0,0,0,-1,2021-08-07 11:49:22,976751
0,2,1,6,5,3,0,0,2021-08-07 11:49:22,976751
-2,-2,-1,-3,-3,-3,-1,0,2021-08-07 11:49:22,992750
0,1,-1,-2,-3,-2,0,-2,2021-08-07 11:49:22,992750
-1,-1,-1,-3,-2,-2,-1,-1,2021-08-07 11:49:22,992750
0,-3,-1,-4,-6,-2,0,-3,2021-08-07 11:49:22,992750
1,0,0,3,4,3,0,0,2021-08-07 11:49:22,992750
-1,-4,-3,-2,-4,-5,-1,-2,2021-08-07 11:49:23,008750
0,0,2,1,4,1,0,-1,2021-08-07 11:49:23,008750
-1,0,2,7,7,3,0,-1,2021-08-07 11:49:23,008750
-3,-1,-3,-6,-8,-5,-2,-2,2021-08-07 11:49:23,008750
-2,0,0,2,-1,0,-1,-1,2021-08-07 11:49:23,008750
-3,-3,-4,-8,-6,-4,-3,-2,2021-08-07 11:49:23,039750
5,5,8,17,12,7,5,4,2021-08-07 11:49:23,039750
-4,-5,-5,-7,-7,-2,-3,-3,2021-08-07 11:49:23,039750
1,0,0,-3,-3,-2,1,-1,2021-08-07 11:49:23,040753
-4,-4,-3,3,6,1,-2,-3,2021-08-07 11:49:23,055751
2,4,6,4,9,5,2,3,2021-08-07 11:49:23,071748
-2,-1,-1,-2,-4,-2,-1,-1,2021-08-07 11:49:23,087751
-2,-3,-6,-4,-7,-4,-4,0,2021-08-07 11:49:23,087751
1,-1,0,-2,-4,-2,-1,-2,2021-08-07 11:49:23,087751
-2,-2,0,2,0,0,-1,0,2021-08-07 11:49:23,087751
-1,0,-2,-5,-6,-2,-1,0,2021-08-07 11:49:23,087751
1,0,3,4,13,6,0,0,2021-08-07 11:49:23,087751
0,-1,-3,-6,-2,-1,-1,-1,2021-08-07 11:49:23,088752
-3,-1,-3,-2,2,-4,-3,-1,2021-08-07 11:49:23,088752
-1,-2,-3,-2,-5,-2,0,1,2021-08-07 11:49:23,088752
-3,-3,-3,-2,-3,-2,0,-1,2021-08-07 11:49:23,088752
-2,1,2,5,-2,-2,-1,-1,2021-08-07 11:49:23,119753
-1,-2,-4,-6,-4,-1,-1,-2,2021-08-07 11:49:23,119753
-1,1,1,11,12,1,-1,-2,2021-08-07 11:49:23,119753
2,1,2,4,1,1,1,-1,2021-08-07 11:49:23,119753
1,-1,-4,-2,0,1,0,1,2021-08-07 11:49:23,135752
-5,-3,-4,-17,-16,-8,-5,-4,2021-08-07 11:49:23,151753
-1,0,-1,-1,0,2,1,0,2021-08-07 11:49:23,167749
-1,-3,-13,-17,-4,-3,-2,-1,2021-08-07 11:49:23,167749
0,0,5,5,2,-1,-1,0,2021-08-07 11:49:23,167749
-1,-2,-1,-3,-9,-3,-1,-2,2021-08-07 11:49:23,167749
1,2,6,11,15,7,3,1,2021-08-07 11:49:23,167749
0,-1,2,4,-3,-3,0,-2,2021-08-07 11:49:23,168754
1,0,-1,6,2,0,0,1,2021-08-07 11:49:23,168754
0,-1,-2,0,0,-3,-1,-1,2021-08-07 11:49:23,168754
2,0,0,-2,-2,-1,-1,0,2021-08-07 11:49:23,168754
-2,-3,-3,-4,-3,-2,-2,-1,2021-08-07 11:49:23,168754
0,1,-1,-3,-1,-1,-1,-2,2021-08-07 11:49:23,198749
-1,-1,-2,-4,-1,-2,-3,-1,2021-08-07 11:49:23,214748
-1,-1,-1,2,0,1,0,-2,2021-08-07 11:49:23,214748
-1,1,-2,-1,1,-1,1,0,2021-08-07 11:49:23,214748
-3,-3,-1,-4,-4,-2,-1,-1,2021-08-07 11:49:23,214748
0,0,0,0,1,-1,1,-2,2021-08-07 11:49:23,214748
-2,-1,-4,-7,-5,-2,-2,-1,2021-08-07 11:49:23,214748
-2,-1,-1,-7,-3,-3,-2,-2,2021-08-07 11:49:23,214748
0,-1,1,5,1,2,0,0,2021-08-07 11:49:23,230751
0,1,-1,2,2,2,1,-1,2021-08-07 11:49:23,230751
-3,-2,-4,-4,-5,-5,-3,-2,2021-08-07 11:49:23,230751
-1,-2,1,0,0,0,0,-1,2021-08-07 11:49:23,230751
0,1,1,-2,-3,-2,0,-1,2021-08-07 11:49:23,262750
-2,-2,-2,-1,0,-1,0,-1,2021-08-07 11:49:23,262750
-1,-2,-1,-3,-3,-1,-1,0,2021-08-07 11:49:23,262750
0,-1,0,-1,0,-1,-1,-1,2021-08-07 11:49:23,262750
-1,2,1,2,1,0,0,0,2021-08-07 11:49:23,278748
0,-3,-1,-5,-4,-1,-1,0,2021-08-07 11:49:23,278748
-1,-1,2,5,4,0,1,2,2021-08-07 11:49:23,278748
-2,0,0,3,2,1,-1,0,2021-08-07 11:49:23,278748
0,-1,-4,-4,1,1,-2,1,2021-08-07 11:49:23,294750
1,0,1,2,1,0,0,0,2021-08-07 11:49:23,294750
0,-1,-1,-4,1,-1,-1,-1,2021-08-07 11:49:23,294750
0,-1,1,-1,-4,-3,-3,-1,2021-08-07 11:49:23,294750
-2,-3,-4,-11,-5,-3,-2,-2,2021-08-07 11:49:23,310751
-2,-3,-2,4,1,0,-1,-1,2021-08-07 11:49:23,310751
1,1,0,-2,-3,0,-1,-1,2021-08-07 11:49:23,310751
-2,0,-4,-6,-8,-3,-1,-2,2021-08-07 11:49:23,310751
-1,-2,-2,-1,2,-1,-1,-1,2021-08-07 11:49:23,340751
2,2,1,3,5,2,-1,1,2021-08-07 11:49:23,340751
0,-1,0,4,1,-1,-1,-2,2021-08-07 11:49:23,356750
0,-2,0,-1,-1,-4,-1,-2,2021-08-07 11:49:23,372751
-1,0,-2,-2,-5,-3,-1,0,2021-08-07 11:49:23,372751
-1,-3,-4,-7,-5,0,-1,0,2021-08-07 11:49:23,372751
-3,-2,-3,-3,-5,-2,-1,-1,2021-08-07 11:49:23,388750
0,-3,0,-1,1,3,0,0,2021-08-07 11:49:23,388750
-2,-2,0,2,3,2,1,0,2021-08-07 11:49:23,388750
-2,0,1,4,1,-2,-3,-2,2021-08-07 11:49:23,388750
-4,-1,-2,-5,-5,-1,-2,-4,2021-08-07 11:49:23,388750
-2,1,1,2,-3,-3,-1,-1,2021-08-07 11:49:23,389753
0,1,-2,-2,-2,-2,0,-2,2021-08-07 11:49:23,389753
1,1,-1,-3,-1,-1,-1,0,2021-08-07 11:49:23,389753
1,-1,-3,-6,-5,-3,-1,1,2021-08-07 11:49:23,389753
0,1,2,9,11,5,1,2,2021-08-07 11:49:23,389753
0,0,-1,3,5,-2,1,-2,2021-08-07 11:49:23,419797
-1,-2,-2,-6,-6,-4,-2,-1,2021-08-07 11:49:23,419797
-1,-1,-3,-2,-3,-2,-2,-3,2021-08-07 11:49:23,419797
-1,-1,-1,-3,-4,-2,-2,-1,2021-08-07 11:49:23,419797
1,0,3,4,1,1,-2,0,2021-08-07 11:49:23,435795
-1,-2,0,0,4,2,0,0,2021-08-07 11:49:23,451794
0,1,-2,-3,-2,-1,-2,0,2021-08-07 11:49:23,451794
-2,-1,-1,-4,-3,-4,-1,-2,2021-08-07 11:49:23,451794
1,0,0,-3,-5,-2,0,1,2021-08-07 11:49:23,451794
-2,-1,-2,-3,-1,-3,-1,-2,2021-08-07 11:49:23,462793
1,0,5,11,16,6,2,1,2021-08-07 11:49:23,462793
-2,-2,-1,0,-1,-2,-4,-1,2021-08-07 11:49:23,462793
0,-3,-1,-1,-1,0,0,1,2021-08-07 11:49:23,462793
-1,0,-2,-2,-4,-2,-1,-3,2021-08-07 11:49:23,463794
-2,-3,-4,-5,-6,-4,-4,-2,2021-08-07 11:49:23,482795
-1,-1,-4,-4,-2,0,1,-1,2021-08-07 11:49:23,498793
-2,0,1,-2,-2,-1,0,1,2021-08-07 11:49:23,498793
-1,-4,-4,-10,-4,-1,-3,-1,2021-08-07 11:49:23,514795
-1,-1,1,1,-2,-2,0,-2,2021-08-07 11:49:23,514795
0,-1,2,4,2,0,1,-1,2021-08-07 11:49:23,514795
0,-1,-2,4,5,0,0,-1,2021-08-07 11:49:23,514795
-2,-2,-1,0,-1,-1,1,-1,2021-08-07 11:49:23,514795
-4,-1,-2,-4,-3,-3,-2,-2,2021-08-07 11:49:23,514795
1,0,0,-2,-7,-1,-2,0,2021-08-07 11:49:23,515795
-7,-6,-11,-15,-8,-5,-6,-5,2021-08-07 11:49:23,530794
6,7,10,17,11,7,4,4,2021-08-07 11:49:23,530794
0,-3,-3,-4,-1,-2,-2,-2,2021-08-07 11:49:23,561793
-1,-1,-2,5,3,2,0,-1,2021-08-07 11:49:23,561793
-2,-1,-2,-1,-3,-3,-2,-2,2021-08-07 11:49:23,561793
-1,0,0,-2,-2,0,0,1,2021-08-07 11:49:23,561793
-2,-2,-2,-3,-4,-1,-1,-1,2021-08-07 11:49:23,561793
0,2,1,0,1,2,1,-1,2021-08-07 11:49:23,577793
-1,-3,0,0,-1,-1,-1,0,2021-08-07 11:49:23,593794
-4,-4,-4,-3,-5,-2,-3,-2,2021-08-07 11:49:23,593794
2,1,2,6,4,3,2,1,2021-08-07 11:49:23,593794
-4,-2,-1,-4,-3,-4,-1,-2,2021-08-07 11:49:23,593794
-1,0,0,3,2,1,1,-1,2021-08-07 11:49:23,593794
0,0,1,3,3,0,2,0,2021-08-07 11:49:23,593794
-1,-1,-1,-3,-4,-2,-3,-3,2021-08-07 11:49:23,594797
-1,-2,-4,-4,0,-2,0,-1,2021-08-07 11:49:23,594797
2,1,-1,-8,-9,-3,1,0,2021-08-07 11:49:23,609794
-1,-2,-4,-5,-5,-4,-1,-1,2021-08-07 11:49:23,609794
2,0,4,10,11,3,1,0,2021-08-07 11:49:23,609794
-1,-1,-2,5,8,3,1,0,2021-08-07 11:49:23,609794
2,3,5,4,3,3,0,1,2021-08-07 11:49:23,657794
-2,-2,-2,-7,-7,-2,-2,-1,2021-08-07 11:49:23,657794
-2,-3,-3,-6,-6,-3,-3,-2,2021-08-07 11:49:23,657794
0,-3,-1,-4,-6,-2,-2,-2,2021-08-07 11:49:23,657794
-1,-1,-1,7,5,3,1,0,2021-08-07 11:49:23,657794
-2,-1,-1,-1,-1,-1,-1,-1,2021-08-07 11:49:23,658794
-2,0,-2,-2,-4,-3,-1,0,2021-08-07 11:49:23,658794
-2,-4,-3,-6,-7,-5,-2,-1,2021-08-07 11:49:23,658794
0,-1,0,-3,3,3,-1,-2,2021-08-07 11:49:23,673795
-1,0,3,5,6,3,0,-2,2021-08-07 11:49:23,673795
0,0,-1,0,-3,-2,1,0,2021-08-07 11:49:23,673795
-1,0,-2,3,3,1,0,1,2021-08-07 11:49:23,673795
0,2,2,4,0,0,0,-1,2021-08-07 11:49:23,705312
0,-2,-4,-5,-2,-4,-2,-1,2021-08-07 11:49:23,721312
1,1,1,-6,-4,-1,-1,0,2021-08-07 11:49:23,737311
0,-1,-1,-1,-3,-1,0,0,2021-08-07 11:49:23,737311
0,-3,-4,-7,-8,-3,0,0,2021-08-07 11:49:23,737311
-3,1,2,11,8,1,1,1,2021-08-07 11:49:23,737311
-1,-2,-2,-5,-4,-3,0,-1,2021-08-07 11:49:23,753312
-2,-2,2,3,3,0,-1,0,2021-08-07 11:49:23,769313
0,-1,3,8,5,1,0,1,2021-08-07 11:49:23,785312
-1,-2,-1,-1,-3,-2,-2,-2,2021-08-07 11:49:23,785312
-1,-1,0,-1,1,-1,-1,-2,2021-08-07 11:49:23,785312
0,1,1,0,0,1,-2,-1,2021-08-07 11:49:23,801312
1,0,0,1,-1,0,-1,-1,2021-08-07 11:49:23,801312
-2,-1,-1,2,0,0,1,-2,2021-08-07 11:49:23,801312
-2,-1,-1,-4,-2,-3,-2,-1,2021-08-07 11:49:23,817311
0,0,0,2,1,1,1,0,2021-08-07 11:49:23,817311
1,1,0,0,-2,-2,-1,-1,2021-08-07 11:49:23,817311
1,-2,-3,-5,-4,0,-2,-2,2021-08-07 11:49:23,817311
-2,-2,-3,1,2,1,0,-2,2021-08-07 11:49:23,818313
0,0,-1,2,-2,-2,-1,-2,2021-08-07 11:49:23,818313
0,-1,6,9,1,-1,0,0,2021-08-07 11:49:23,818313
-1,-2,-2,-7,1,0,-1,0,2021-08-07 11:49:23,818313
-2,-2,-14,-8,7,4,1,-1,2021-08-07 11:49:23,833311
-5,-4,-5,-13,-6,-3,-3,-2,2021-08-07 11:49:23,833311
-3,-4,-7,-16,-15,-8,-4,-1,2021-08-07 11:49:23,833311
-1,-2,0,0,-3,-3,-2,-2,2021-08-07 11:49:23,833311
0,1,6,10,1,2,0,2,2021-08-07 11:49:23,833311
1,0,4,5,0,0,-2,-2,2021-08-07 11:49:23,833311
0,-1,-1,-2,0,0,0,-3,2021-08-07 11:49:23,834312
1,3,5,12,15,6,4,1,2021-08-07 11:49:23,834312
-1,-1,-2,-2,-8,-5,-1,-3,2021-08-07 11:49:23,848312
0,-1,-3,-4,-3,-1,-1,-1,2021-08-07 11:49:23,848312
1,2,3,4,0,1,1,2,2021-08-07 11:49:23,848312
-3,-2,-3,-4,-5,-3,-1,-2,2021-08-07 11:49:23,864311
0,-1,0,0,-1,-2,0,-1,2021-08-07 11:49:23,864311
-2,-2,-2,-4,-4,-3,-2,-1,2021-08-07 11:49:23,864311
-4,-3,-6,-7,-5,-3,-2,-2,2021-08-07 11:49:23,880312
-2,0,-2,-1,-3,-1,-4,-1,2021-08-07 11:49:23,880312
-3,-2,-1,-3,-2,-2,-1,-2,2021-08-07 11:49:23,880312
0,1,3,3,0,0,0,0,2021-08-07 11:49:23,880312
-1,0,-2,-3,3,1,0,1,2021-08-07 11:49:23,896310
0,-1,-3,-1,-2,-3,0,-1,2021-08-07 11:49:23,896310
-2,-5,-2,-2,-5,-3,-2,-2,2021-08-07 11:49:23,896310
-1,1,-2,0,1,0,-1,0,2021-08-07 11:49:23,896310
1,1,2,8,8,5,0,0,2021-08-07 11:49:23,912311
-1,0,0,1,-1,-1,-1,0,2021-08-07 11:49:23,912311
-1,-1,-2,-5,-6,-3,-2,-1,2021-08-07 11:49:23,912311
-1,-2,-2,-2,-3,-2,-1,-1,2021-08-07 11:49:23,912311
-1,-2,-3,-5,1,-2,0,-1,2021-08-07 11:49:23,944315
1,-1,2,6,1,0,1,0,2021-08-07 11:49:23,960312
1,-1,2,3,6,5,-1,0,2021-08-07 11:49:23,976312
-1,0,-1,2,0,0,0,-3,2021-08-07 11:49:23,976312
-4,-3,-2,-3,-6,-3,-4,-2,2021-08-07 11:49:23,976312
0,-1,-3,-6,-6,-4,-1,-2,2021-08-07 11:49:23,976312
0,-1,1,-4,-5,-3,0,-1,2021-08-07 11:49:23,976312
1,-1,-1,-1,1,-2,0,-1,2021-08-07 11:49:23,976312
-1,-2,-1,2,4,1,0,-3,2021-08-07 11:49:23,977313
1,1,1,2,2,2,-1,0,2021-08-07 11:49:23,977313
1,1,-1,0,-2,-2,-2,-1,2021-08-07 11:49:23,992311
-1,-2,-1,-4,-5,0,-1,-1,2021-08-07 11:49:24,004312
-1,0,-1,-1,-2,-2,-2,-1,2021-08-07 11:49:24,004312
-1,-2,-3,-7,-1,1,-1,-1,2021-08-07 11:49:24,005311
-1,0,-2,-4,-4,-3,-2,-1,2021-08-07 11:49:24,005311
-1,-1,-3,-5,-2,-2,-1,1,2021-08-07 11:49:24,005311
-3,-1,-1,-3,-1,-2,-1,-3,2021-08-07 11:49:24,023312
2,2,0,8,5,3,2,1,2021-08-07 11:49:24,039313
2,1,1,-5,-6,-2,0,0,2021-08-07 11:49:24,055311
1,-1,2,6,9,2,1,-1,2021-08-07 11:49:24,055311
0,0,1,1,2,1,1,0,2021-08-07 11:49:24,055311
-5,-4,-8,-21,-17,-6,-4,-2,2021-08-07 11:49:24,055311
-1,0,3,15,12,4,1,-1,2021-08-07 11:49:24,055311
-1,-3,-5,-4,-8,-5,-2,-1,2021-08-07 11:49:24,055311
-1,-1,-4,-4,-2,-2,-3,-1,2021-08-07 11:49:24,056313
-3,-3,-2,-5,-5,-3,-1,-1,2021-08-07 11:49:24,056313
-1,-2,-2,-6,-6,-3,-4,0,2021-08-07 11:49:24,056313
0,1,3,6,8,3,1,0,2021-08-07 11:49:24,056313
-1,-2,-1,0,-2,0,0,-1,2021-08-07 11:49:24,087312
-1,-1,-1,0,-2,-2,-1,-3,2021-08-07 11:49:24,103311
-2,-2,-2,-2,-4,-2,-1,-2,2021-08-07 11:49:24,103311
-1,-1,-1,-1,1,0,-1,1,2021-08-07 11:49:24,103311
-1,-1,0,1,-2,-1,-1,-1,2021-08-07 11:49:24,103311
0,-3,0,-4,-5,-2,-2,-1,2021-08-07 11:49:24,103311
0,1,0,8,13,5,1,0,2021-08-07 11:49:24,104313
-1,1,0,4,2,1,0,0,2021-08-07 11:49:24,104313
1,0,0,1,0,1,-1,1,2021-08-07 11:49:24,119313
-1,-4,-6,-12,-10,-6,-3,-4,2021-08-07 11:49:24,134312
3,2,3,9,9,5,1,2,2021-08-07 11:49:24,134312
-3,-1,0,-1,-2,-2,0,-1,2021-08-07 11:49:24,134312
-1,-1,-1,-1,-1,-1,-1,0,2021-08-07 11:49:24,134312
0,1,0,5,3,0,-1,1,2021-08-07 11:49:24,134312
-4,-4,-5,-15,-14,-7,-3,-2,2021-08-07 11:49:24,134312
0,-2,-2,-2,5,1,-3,-3,2021-08-07 11:49:24,134312
3,3,3,8,-4,-4,1,0,2021-08-07 11:49:24,149311
1,-3,-4,-8,0,-1,0,1,2021-08-07 11:49:24,165311
0,0,0,4,7,4,2,3,2021-08-07 11:49:24,181312
0,-2,-1,6,3,2,1,0,2021-08-07 11:49:24,197311
-4,-3,-3,-4,-4,-2,-3,-4,2021-08-07 11:49:24,197311
-4,0,5,8,4,-1,-2,-1,2021-08-07 11:49:24,197311
-5,-2,-3,-11,-15,-10,-5,-3,2021-08-07 11:49:24,197311
-4,-1,-2,-4,2,-1,-2,-3,2021-08-07 11:49:24,197311
2,2,1,2,-1,0,0,3,2021-08-07 11:49:24,197311
4,4,4,7,12,6,4,2,2021-08-07 11:49:24,197311
0,-1,-1,-2,-3,-1,0,0,2021-08-07 11:49:24,197311
-2,-4,-6,-12,-11,-3,-2,-2,2021-08-07 11:49:24,198314
-1,0,-2,-3,1,-1,0,1,2021-08-07 11:49:24,212315
1,1,2,7,2,3,0,3,2021-08-07 11:49:24,212315
1,-2,-1,-1,-2,-4,-1,-2,2021-08-07 11:49:24,212315
0,0,-2,-5,-5,-3,1,-1,2021-08-07 11:49:24,212315
-1,-3,-4,-4,-2,-1,0,-1,2021-08-07 11:49:24,244313
-1,-3,-2,0,-4,-2,0,-2,2021-08-07 11:49:24,244313
-1,-1,-1,-2,2,1,0,-2,2021-08-07 11:49:24,244313
0,0,-1,-2,-6,-1,-1,1,2021-08-07 11:49:24,244313
-1,-1,0,-1,-2,0,-1,-1,2021-08-07 11:49:24,276312
-1,-1,-1,-2,-5,-2,0,-1,2021-08-07 11:49:24,276312
-2,-3,-3,4,4,1,-2,0,2021-08-07 11:49:24,276312
0,-1,-3,-4,-2,-2,-2,-2,2021-08-07 11:49:24,276312
0,1,2,3,7,4,2,2,2021-08-07 11:49:24,276312
-2,-1,-4,-4,-3,-1,-2,-2,2021-08-07 11:49:24,277316
0,-2,-1,-4,-5,-2,-1,-2,2021-08-07 11:49:24,277316
0,-1,3,6,-1,-3,-1,0,2021-08-07 11:49:24,277316
-2,-1,-3,-6,-5,-3,-1,-2,2021-08-07 11:49:24,307311
-2,-2,-3,-8,-6,-2,-2,-2,2021-08-07 11:49:24,307311
0,1,3,8,10,4,0,1,2021-08-07 11:49:24,307311
-1,0,-2,0,-1,-2,-1,-1,2021-08-07 11:49:24,307311
0,-1,0,0,-1,-2,-1,-2,2021-08-07 11:49:24,323314
0,-1,-2,5,1,-1,0,-1,2021-08-07 11:49:24,323314
-3,-2,-3,-5,-4,-2,-1,-2,2021-08-07 11:49:24,323314
1,-1,1,1,0,-1,1,-2,2021-08-07 11:49:24,323314
0,0,-1,-1,-1,-1,0,0,2021-08-07 11:49:24,339314
0,1,0,-2,0,1,-2,1,2021-08-07 11:49:24,339314
1,-1,-1,-4,-4,-2,-1,-3,2021-08-07 11:49:24,339314
-1,0,-2,-1,-1,0,-1,0,2021-08-07 11:49:24,340313
-2,-1,-2,-3,-2,-1,1,0,2021-08-07 11:49:24,355312
-2,-1,-2,0,-4,-3,-2,0,2021-08-07 11:49:24,355312
1,2,2,8,10,4,2,0,2021-08-07 11:49:24,355312
-3,-1,0,-1,-1,-1,-1,-2,2021-08-07 11:49:24,371361
0,0,0,0,0,0,0,-1,2021-08-07 11:49:24,387361
-1,-3,-2,-2,-1,-2,-1,0,2021-08-07 11:49:24,387361
-1,-3,-2,-7,-8,-4,-2,-3,2021-08-07 11:49:24,387361
1,0,-1,-2,0,0,-1,-1,2021-08-07 11:49:24,387361
0,0,0,3,1,-1,-1,1,2021-08-07 11:49:24,419359
-1,-1,-2,-2,-2,-1,-2,-4,2021-08-07 11:49:24,435360
-2,-1,-2,-4,-3,-3,-1,0,2021-08-07 11:49:24,435360
0,0,2,4,4,1,0,1,2021-08-07 11:49:24,450359
-1,0,-1,3,-1,0,-1,-3,2021-08-07 11:49:24,466359
-1,0,0,1,3,-1,0,-1,2021-08-07 11:49:24,482359
-2,-3,-2,-4,-4,-2,-3,-3,2021-08-07 11:49:24,482359
0,-1,-2,-4,-4,-3,-3,-1,2021-08-07 11:49:24,482359
-2,-4,-4,-11,-8,-4,-3,-1,2021-08-07 11:49:24,482359
1,0,3,9,-1,-1,-1,0,2021-08-07 11:49:24,482359
1,1,3,9,14,5,1,0,2021-08-07 11:49:24,483358
-2,-2,-2,0,-3,-2,-1,-1,2021-08-07 11:49:24,483358
-1,0,-2,-3,0,0,1,-1,2021-08-07 11:49:24,498359
-1,0,2,0,4,1,1,-2,2021-08-07 11:49:24,498359
-1,-1,0,5,-4,-3,1,-2,2021-08-07 11:49:24,498359
-1,-2,-4,-8,-12,-6,-3,-1,2021-08-07 11:49:24,498359
-2,-1,-3,-8,-1,-2,-2,-1,2021-08-07 11:49:24,498359
0,-2,-2,-6,-2,0,0,-3,2021-08-07 11:49:24,498359
1,1,3,6,3,3,-1,1,2021-08-07 11:49:24,499359
1,2,1,4,4,4,2,0,2021-08-07 11:49:24,499359
1,-1,0,0,-5,-3,-3,-3,2021-08-07 11:49:24,499359
1,2,0,-1,3,1,0,1,2021-08-07 11:49:24,499359
-1,-2,-3,-5,-4,-3,-1,0,2021-08-07 11:49:24,499359
-1,0,-1,-3,0,0,-2,0,2021-08-07 11:49:24,499359
0,1,-1,0,-1,-3,0,-1,2021-08-07 11:49:24,514359
-3,-3,-1,-1,2,2,0,0,2021-08-07 11:49:24,514359
-1,-2,0,-3,-4,-3,-2,-1,2021-08-07 11:49:24,514359
-2,-2,-1,-2,1,-1,-2,0,2021-08-07 11:49:24,514359
0,1,4,8,6,3,-1,-1,2021-08-07 11:49:24,528359
2,0,0,1,-1,0,0,1,2021-08-07 11:49:24,528359
-2,-1,-3,-3,-6,-4,1,-1,2021-08-07 11:49:24,528359
-2,-2,0,-3,-2,0,-1,-2,2021-08-07 11:49:24,528359
-1,-2,1,3,3,1,-1,0,2021-08-07 11:49:24,561360
-1,-2,-1,-5,-4,-2,-1,-1,2021-08-07 11:49:24,577359
-2,-2,-2,-6,-8,-4,-2,-2,2021-08-07 11:49:24,593358
1,0,2,1,4,0,0,-1,2021-08-07 11:49:24,593358
0,-3,-3,-3,-4,-1,0,-1,2021-08-07 11:49:24,593358
-2,-1,2,4,6,2,0,-1,2021-08-07 11:49:24,593358
-2,-1,-3,-4,1,0,-1,0,2021-08-07 11:49:24,594359
-1,0,0,5,-3,-2,-2,0,2021-08-07 11:49:24,594359
-3,-2,-5,-11,-12,-5,-2,0,2021-08-07 11:49:24,624357
3,0,2,0,1,-1,0,-2,2021-08-07 11:49:24,624357
0,-1,0,-3,2,1,0,-2,2021-08-07 11:49:24,624357
-1,0,-1,-1,-2,-1,0,0,2021-08-07 11:49:24,624357
-2,0,-1,1,3,1,0,-2,2021-08-07 11:49:24,624357
-4,0,-4,-1,-8,-5,-3,-1,2021-08-07 11:49:24,625359
-1,1,-2,-4,-7,-4,-2,0,2021-08-07 11:49:24,625359
-1,0,0,1,-1,-1,1,0,2021-08-07 11:49:24,625359
1,1,3,6,7,1,1,0,2021-08-07 11:49:24,640359
-2,-3,-4,-7,-6,-4,-2,-3,2021-08-07 11:49:24,656358
-2,-3,-2,0,-2,-1,-2,0,2021-08-07 11:49:24,672611
0,1,0,1,3,1,-1,1,2021-08-07 11:49:24,688358
-1,-1,1,-1,-1,0,-2,-1,2021-08-07 11:49:24,688358
-2,-2,-1,0,-1,-1,-1,-1,2021-08-07 11:49:24,688358
-1,1,1,1,-1,0,-2,0,2021-08-07 11:49:24,688358
-1,-2,-3,-8,-7,-4,-2,-2,2021-08-07 11:49:24,704359
2,3,3,9,11,4,1,0,2021-08-07 11:49:24,720357
-1,-1,-1,-1,-1,-1,-2,0,2021-08-07 11:49:24,720357
-1,0,-4,-6,-9,-5,-1,-2,2021-08-07 11:49:24,720357
-1,-1,2,6,10,4,-1,-1,2021-08-07 11:49:24,720357
-3,-2,-4,-7,-9,-7,-4,-3,2021-08-07 11:49:24,721360
0,0,-2,-4,0,-1,0,1,2021-08-07 11:49:24,721360
2,3,2,-2,-3,0,2,2,2021-08-07 11:49:24,721360
1,0,1,7,10,4,1,0,2021-08-07 11:49:24,721360
-1,0,-1,-3,-6,-2,-2,-1,2021-08-07 11:49:24,721360
-2,-2,0,5,0,-2,-3,-1,2021-08-07 11:49:24,721360
-4,-3,-7,-8,-4,-2,-3,-4,2021-08-07 11:49:24,722359
0,1,2,2,0,0,0,-2,2021-08-07 11:49:24,722359
-1,-1,0,1,1,0,-1,0,2021-08-07 11:49:24,736359
-1,0,-1,0,-2,-2,-1,-1,2021-08-07 11:49:24,736359
-3,-4,-2,-3,-5,-4,-3,-2,2021-08-07 11:49:24,736359
-2,-2,-3,2,2,2,1,-1,2021-08-07 11:49:24,736359
-1,-1,-4,-1,-6,-3,-1,-1,2021-08-07 11:49:24,767359
-1,0,-1,2,11,4,2,2,2021-08-07 11:49:24,767359
0,-1,0,5,2,0,-2,-1,2021-08-07 11:49:24,767359
2,1,-1,2,4,1,1,2,2021-08-07 11:49:24,767359
2,0,1,-1,-2,-1,-1,-1,2021-08-07 11:49:24,767359
-2,-2,-2,-4,-5,-3,-1,-1,2021-08-07 11:49:24,767359
0,0,-1,2,1,1,0,1,2021-08-07 11:49:24,767359
-3,-4,-4,-11,-14,-6,-2,-1,2021-08-07 11:49:24,767359
-2,0,2,5,6,1,0,-1,2021-08-07 11:49:24,798361
0,0,-1,1,0,0,-1,1,2021-08-07 11:49:24,798361
-1,0,2,7,8,3,1,0,2021-08-07 11:49:24,798361
-1,-1,-6,-8,-9,-5,-5,-4,2021-08-07 11:49:24,798361
-1,-1,-4,-6,-2,-1,-1,0,2021-08-07 11:49:24,830359
0,-1,1,-2,-2,-1,-1,-2,2021-08-07 11:49:24,830359
0,-1,0,0,2,0,2,1,2021-08-07 11:49:24,830359
-2,0,2,1,1,0,-1,0,2021-08-07 11:49:24,830359
-2,-3,-1,0,-1,0,0,-2,2021-08-07 11:49:24,830359
-1,-2,-2,-4,-3,-2,1,-1,2021-08-07 11:49:24,831361
1,0,1,0,-1,0,0,1,2021-08-07 11:49:24,831361
-2,-3,0,-3,-4,-4,0,-2,2021-08-07 11:49:24,831361
-1,-3,-2,-3,-4,-1,0,0,2021-08-07 11:49:24,862358
-2,1,1,-3,-1,-1,-3,-2,2021-08-07 11:49:24,862358
2,2,3,7,6,4,1,2,2021-08-07 11:49:24,862358
-1,-1,1,8,5,1,0,-1,2021-08-07 11:49:24,862358
0,0,0,1,3,1,1,1,2021-08-07 11:49:24,877362
-4,-3,-3,-5,-9,-5,-2,-3,2021-08-07 11:49:24,877362
-1,-1,-3,-4,-5,-3,0,-1,2021-08-07 11:49:24,877362
0,0,0,0,1,0,-1,0,2021-08-07 11:49:24,877362
-2,-1,-1,1,-1,-1,-2,0,2021-08-07 11:49:24,893358
1,-2,0,0,0,0,1,0,2021-08-07 11:49:24,893358
-3,-5,-3,-1,-1,-1,-1,-4,2021-08-07 11:49:24,893358
-1,-1,-2,-4,-3,-1,-1,0,2021-08-07 11:49:24,893358
1,0,0,1,1,-1,0,0,2021-08-07 11:49:24,925358
-2,-1,0,2,-1,0,-1,-2,2021-08-07 11:49:24,925358
-2,-2,-2,-4,-2,0,-1,-1,2021-08-07 11:49:24,925358
1,0,1,-4,-5,-3,-3,-1,2021-08-07 11:49:24,925358
0,1,2,1,3,-1,1,-1,2021-08-07 11:49:24,941359
-2,-4,-6,-5,-5,-3,-1,0,2021-08-07 11:49:24,957357
-2,-4,-6,-9,-7,-5,-3,0,2021-08-07 11:49:24,972359
-2,-1,-2,2,1,3,3,0,2021-08-07 11:49:24,988359
1,-1,0,2,4,3,4,1,2021-08-07 11:49:25,004358
1,1,2,4,2,1,-1,-1,2021-08-07 11:49:25,004358
-4,-3,-5,-10,-14,-8,-7,-5,2021-08-07 11:49:25,004358
-3,-1,1,1,1,-1,-3,-2,2021-08-07 11:49:25,004358
3,4,5,14,18,8,2,1,2021-08-07 11:49:25,004358
1,2,-1,-2,-5,-3,-1,1,2021-08-07 11:49:25,005359
0,-1,-1,-1,0,0,0,0,2021-08-07 11:49:25,005359
1,0,-1,-5,-7,-3,-2,-2,2021-08-07 11:49:25,005359
0,-3,-5,-10,-12,-6,-2,0,2021-08-07 11:49:25,020359
0,1,-2,-1,5,2,0,-2,2021-08-07 11:49:25,020359
2,1,3,6,5,4,2,0,2021-08-07 11:49:25,020359
-2,-2,-2,0,5,1,0,0,2021-08-07 11:49:25,020359
-2,-1,-3,-2,-3,-1,-1,0,2021-08-07 11:49:25,020359
-1,-1,0,-4,-4,-3,-1,-1,2021-08-07 11:49:25,021361
-2,0,0,0,-2,-2,-1,0,2021-08-07 11:49:25,021361
1,0,0,1,0,1,2,-1,2021-08-07 11:49:25,021361
-1,-2,-3,-4,-6,-2,-2,-2,2021-08-07 11:49:25,036359
0,1,-1,-3,-1,-1,-1,1,2021-08-07 11:49:25,051358
-1,0,0,2,0,-1,-1,-1,2021-08-07 11:49:25,051358
2,3,2,8,6,2,1,2,2021-08-07 11:49:25,052366
0,0,-1,-4,-4,-4,-2,0,2021-08-07 11:49:25,052366
-1,-3,-3,-5,-3,1,-1,-1,2021-08-07 11:49:25,052366
-2,0,1,6,4,-1,1,-1,2021-08-07 11:49:25,052366
-3,-2,-4,-5,1,1,-1,0,2021-08-07 11:49:25,053359
-1,-2,-2,-3,0,-2,-1,-1,2021-08-07 11:49:25,084360
-1,-2,0,4,2,0,-3,-1,2021-08-07 11:49:25,100359
0,0,0,-1,-2,0,0,0,2021-08-07 11:49:25,100359
-1,-2,-3,-4,-7,-5,-2,-1,2021-08-07 11:49:25,100359
-1,0,1,3,3,3,1,0,2021-08-07 11:49:25,100359
-1,-2,-1,2,0,0,0,-1,2021-08-07 11:49:25,100359
-1,0,-1,0,1,0,-1,-1,2021-08-07 11:49:25,100359
-1,-1,0,-2,-6,-3,-1,-1,2021-08-07 11:49:25,101362
1,-1,-1,-2,-1,0,0,-1,2021-08-07 11:49:25,131360
-1,0,-1,-1,-4,-3,0,-1,2021-08-07 11:49:25,147357
-2,-1,-1,-2,0,0,-2,-2,2021-08-07 11:49:25,147357
-1,-2,-3,-2,0,-1,-2,-1,2021-08-07 11:49:25,147357
-1,1,0,-2,-5,-1,-1,-1,2021-08-07 11:49:25,147357
-1,-1,-1,2,3,2,-1,0,2021-08-07 11:49:25,147357
-1,0,-2,-5,-8,-3,-1,-1,2021-08-07 11:49:25,147357
0,-2,-3,-5,-7,-1,-2,-2,2021-08-07 11:49:25,148362
0,-2,0,3,6,3,-2,0,2021-08-07 11:49:25,163358
-1,-2,3,5,4,1,-2,-3,2021-08-07 11:49:25,163358
1,0,0,-1,3,1,-1,-1,2021-08-07 11:49:25,163358
-2,-3,-1,-3,-5,-5,-2,-2,2021-08-07 11:49:25,164360
-1,-1,0,2,1,-1,0,-2,2021-08-07 11:49:25,179358
-1,0,-2,-3,-6,-4,-1,1,2021-08-07 11:49:25,179358
0,-1,-1,-3,-2,-3,-2,-1,2021-08-07 11:49:25,179358
0,-1,0,-2,-3,-2,-1,-2,2021-08-07 11:49:25,179358
-1,-2,-3,-6,-6,-2,-2,-2,2021-08-07 11:49:25,195358
-3,-1,-2,0,-3,-3,0,0,2021-08-07 11:49:25,195358
0,-2,0,2,4,3,2,-2,2021-08-07 11:49:25,195358
-1,2,-2,-8,-4,-2,0,-1,2021-08-07 11:49:25,195358
0,1,1,5,1,0,1,0,2021-08-07 11:49:25,243358
-1,-1,-2,1,3,2,-1,-2,2021-08-07 11:49:25,243358
-1,-3,-2,-3,-4,-2,-1,1,2021-08-07 11:49:25,243358
0,-1,0,4,2,1,0,0,2021-08-07 11:49:25,243358
-2,1,-2,-6,-6,-4,-2,-2,2021-08-07 11:49:25,243358
0,1,-3,-3,1,-1,0,-1,2021-08-07 11:49:25,243358
-2,-2,-2,1,4,1,-2,-1,2021-08-07 11:49:25,243358
0,1,2,5,4,0,0,0,2021-08-07 11:49:25,243358
-2,-2,-2,-6,-8,-5,-3,1,2021-08-07 11:49:25,258358
2,0,-1,-4,4,3,1,1,2021-08-07 11:49:25,258358
-2,-2,-4,-5,-7,-3,-1,0,2021-08-07 11:49:25,258358
0,1,1,4,5,3,1,1,2021-08-07 11:49:25,258358
0,0,-1,0,2,1,0,-1,2021-08-07 11:49:25,274359
-4,-3,-2,-2,-1,-1,-2,1,2021-08-07 11:49:25,274359
0,-1,0,3,2,-1,1,0,2021-08-07 11:49:25,274359
-3,-2,-5,-11,-12,-6,-3,-3,2021-08-07 11:49:25,274359
1,0,0,0,3,1,1,2,2021-08-07 11:49:25,305358
3,3,5,10,5,-1,0,-3,2021-08-07 11:49:25,321357
0,-1,0,3,5,3,1,1,2021-08-07 11:49:25,321357
-4,-6,-6,-10,-9,-4,-1,0,2021-08-07 11:49:25,321357
-2,-3,-3,-9,-9,-4,-3,-1,2021-08-07 11:49:25,321357
-3,-2,0,2,-2,-3,0,-1,2021-08-07 11:49:25,321357
2,2,4,4,3,0,1,1,2021-08-07 11:49:25,321357
1,0,1,6,8,3,2,-2,2021-08-07 11:49:25,321357
-3,-3,-1,4,6,1,-1,-1,2021-08-07 11:49:25,337359
0,-1,-2,-4,-6,-2,-2,-1,2021-08-07 11:49:25,337359
-2,-2,-2,-10,-13,-6,-5,-2,2021-08-07 11:49:25,337359
-1,-2,0,-1,4,1,-1,-1,2021-08-07 11:49:25,337359
0,1,4,9,6,2,2,2,2021-08-07 11:49:25,369363
0,-1,2,6,5,0,0,0,2021-08-07 11:49:25,369363
-2,-1,-1,-2,-2,-2,-2,-2,2021-08-07 11:49:25,369363
-2,0,-1,-2,-4,-2,-2,-2,2021-08-07 11:49:25,385360
-1,-3,-3,-7,-10,-5,-2,-2,2021-08-07 11:49:25,400358
-1,1,-2,-8,-1,0,0,0,2021-08-07 11:49:25,400358
-2,-2,-2,-1,1,0,-2,-4,2021-08-07 11:49:25,400358
1,-1,1,4,1,0,-1,-1,2021-08-07 11:49:25,400358
-2,-3,-1,1,0,-1,-1,-2,2021-08-07 11:49:25,400358
-2,-2,-4,-10,-12,-5,-3,0,2021-08-07 11:49:25,400358
0,3,3,4,6,2,3,1,2021-08-07 11:49:25,400358
0,2,2,6,8,2,1,1,2021-08-07 11:49:25,400358
-1,-2,-1,-5,-4,-1,-1,-3,2021-08-07 11:49:25,416361
0,-2,-1,1,2,0,-1,0,2021-08-07 11:49:25,416361
0,-1,-2,-3,-5,-3,0,-2,2021-08-07 11:49:25,416361
-1,-3,-3,-7,-5,-1,0,0,2021-08-07 11:49:25,416361
0,2,1,4,-5,-2,-1,-1,2021-08-07 11:49:25,432358
-3,-2,0,5,3,0,0,-3,2021-08-07 11:49:25,448358
0,0,1,0,4,0,-1,-1,2021-08-07 11:49:25,448358
0,1,1,3,3,2,0,2,2021-08-07 11:49:25,448358
-3,-2,-4,-6,-2,-1,-2,-2,2021-08-07 11:49:25,448358
-1,-2,-4,-5,-5,-3,-1,0,2021-08-07 11:49:25,464358
1,0,2,1,-4,-1,0,1,2021-08-07 11:49:25,464358
-1,-1,-1,-3,-2,-3,-1,-1,2021-08-07 11:49:25,464358
-1,-2,-1,1,6,1,0,-1,2021-08-07 11:49:25,480359
2,0,-1,-2,-4,-1,-1,0,2021-08-07 11:49:25,480359
-1,-1,-1,2,3,0,-1,-1,2021-08-07 11:49:25,496359
0,-1,-4,-10,-9,-3,-2,-2,2021-08-07 11:49:25,496359
-2,-2,-3,-2,-1,-2,-2,-1,2021-08-07 11:49:25,496359
2,3,5,15,11,5,3,0,2021-08-07 11:49:25,496359
-2,-1,-1,0,0,0,-2,-1,2021-08-07 11:49:25,496359
-1,-1,1,2,-2,-2,-3,-2,2021-08-07 11:49:25,497359
1,1,1,2,2,1,0,-1,2021-08-07 11:49:25,528358
0,-1,-5,-11,-8,-2,-1,-2,2021-08-07 11:49:25,544358
-1,0,-2,-4,-3,0,-1,-1,2021-08-07 11:49:25,544358
-1,-2,-1,-1,0,0,-2,0,2021-08-07 11:49:25,544358
0,-2,-4,-8,-2,-1,0,-1,2021-08-07 11:49:25,544358
-1,0,2,6,1,-1,-2,-3,2021-08-07 11:49:25,544358
1,-1,-2,0,-2,-1,-1,-2,2021-08-07 11:49:25,544358
-1,-1,0,-2,1,-1,0,-1,2021-08-07 11:49:25,544358
0,-1,-1,-6,-3,-3,0,0,2021-08-07 11:49:25,560359
-1,-3,-1,-1,-2,-1,0,-1,2021-08-07 11:49:25,576359
-2,-1,-2,-3,-2,-3,-3,-2,2021-08-07 11:49:25,576359
0,3,2,5,1,3,0,2,2021-08-07 11:49:25,576359
1,1,0,0,1,0,-1,-1,2021-08-07 11:49:25,588359
-3,-3,-4,-2,-2,-1,-1,-1,2021-08-07 11:49:25,588359
-1,-1,-1,3,2,0,0,-1,2021-08-07 11:49:25,588359
1,1,-1,0,-1,-1,2,1,2021-08-07 11:49:25,588359
2,-1,-1,3,4,0,1,-1,2021-08-07 11:49:25,606359
-2,-3,-5,-10,-8,-5,-2,-2,2021-08-07 11:49:25,622359
2,0,0,-3,1,3,1,3,2021-08-07 11:49:25,622359
0,-2,-1,2,1,-1,0,-2,2021-08-07 11:49:25,622359
0,-1,-3,-8,-5,-4,-1,-2,2021-08-07 11:49:25,622359
0,0,2,8,4,0,-1,-1,2021-08-07 11:49:25,622359
-2,-3,-4,-4,0,-2,0,-1,2021-08-07 11:49:25,622359
1,1,2,4,2,1,0,-2,2021-08-07 11:49:25,623360
-2,-3,-1,-1,-5,-2,-2,-1,2021-08-07 11:49:25,638359
-2,-2,-4,-12,-7,-2,-1,-1,2021-08-07 11:49:25,654359
-2,-2,-4,-3,-5,-3,-2,-2,2021-08-07 11:49:25,654359
0,1,-3,-5,-2,-1,-1,-1,2021-08-07 11:49:25,654359
-1,1,3,13,6,2,-1,0,2021-08-07 11:49:25,654359
3,2,2,4,16,7,3,3,2021-08-07 11:49:25,654359
-2,-2,1,8,5,3,0,0,2021-08-07 11:49:25,654359
0,0,2,0,-3,-3,0,-1,2021-08-07 11:49:25,655358
1,1,0,-3,-6,-3,0,0,2021-08-07 11:49:25,685357
-1,-2,-4,1,-2,-2,-1,-1,2021-08-07 11:49:25,701358
-1,-3,-1,-6,-6,-3,-1,-2,2021-08-07 11:49:25,701358
-3,-2,-3,-4,-4,-3,-2,-2,2021-08-07 11:49:25,701358
-2,-2,2,1,5,1,-1,-2,2021-08-07 11:49:25,702361
-1,0,0,-5,-5,-2,0,-1,2021-08-07 11:49:25,702361
-1,-2,-1,3,2,0,0,-1,2021-08-07 11:49:25,702361
-2,-2,-3,-3,-5,-2,-2,-1,2021-08-07 11:49:25,716358
2,-1,1,3,4,3,1,1,2021-08-07 11:49:25,716358
-1,-1,-1,-7,-7,-2,-1,-1,2021-08-07 11:49:25,716358
-1,0,-2,-2,-3,-3,1,-1,2021-08-07 11:49:25,716358
-2,-4,-2,-2,-2,-3,-1,-1,2021-08-07 11:49:25,716358
-2,0,-2,-1,-1,-2,-2,-1,2021-08-07 11:49:25,748358
-1,-1,1,5,2,1,0,1,2021-08-07 11:49:25,748358
0,-1,-1,-8,-6,-2,-1,-1,2021-08-07 11:49:25,764357
0,0,0,3,2,1,1,0,2021-08-07 11:49:25,780359
-2,-2,-3,1,3,-1,-1,-1,2021-08-07 11:49:25,780359
-2,0,0,1,-1,-3,-2,0,2021-08-07 11:49:25,780359
1,1,0,-3,-6,-2,-1,-1,2021-08-07 11:49:25,780359
0,0,-2,-1,1,0,0,-2,2021-08-07 11:49:25,780359
0,-1,-1,-2,-3,-1,-1,-2,2021-08-07 11:49:25,780359
1,0,-3,-2,-1,0,0,1,2021-08-07 11:49:25,780359
0,-2,-1,-1,1,1,2,1,2021-08-07 11:49:25,781359
-2,-2,-2,-6,-6,-2,-1,1,2021-08-07 11:49:25,781359
-2,-1,-1,-3,0,0,-2,-2,2021-08-07 11:49:25,812358
-4,0,1,7,7,-1,-1,-3,2021-08-07 11:49:25,812358
-2,0,1,0,-3,-1,-4,-4,2021-08-07 11:49:25,812358
1,2,4,9,7,1,0,0,2021-08-07 11:49:25,812358
0,0,-4,-4,-6,-4,-3,-1,2021-08-07 11:49:25,812358
0,-2,-2,-10,-8,-5,-2,0,2021-08-07 11:49:25,812358
0,0,3,4,2,0,2,1,2021-08-07 11:49:25,812358
-1,-4,-5,-2,-4,0,0,0,2021-08-07 11:49:25,812358
-3,-4,-1,6,5,2,0,-1,2021-08-07 11:49:25,844359
-1,-1,0,-3,-6,0,-1,-2,2021-08-07 11:49:25,860359
0,1,1,5,4,0,-1,-1,2021-08-07 11:49:25,860359
1,1,2,4,10,4,1,2,2021-08-07 11:49:25,860359
1,-1,0,-2,-3,-3,0,-1,2021-08-07 11:49:25,860359
-2,-2,-3,-4,-5,-3,-4,-3,2021-08-07 11:49:25,860359
-3,-1,-3,-4,-5,-2,-1,-2,2021-08-07 11:49:25,861362
-1,-2,-2,-9,-7,-3,-3,-2,2021-08-07 11:49:25,861362
-4,-3,-4,-8,-10,-4,-4,-2,2021-08-07 11:49:25,875358
1,1,4,10,11,6,2,0,2021-08-07 11:49:25,890358
3,3,3,4,8,6,2,2,2021-08-07 11:49:25,906358
-3,0,-2,1,-1,-1,-2,-1,2021-08-07 11:49:25,922356
-1,0,-1,-2,-4,-2,0,0,2021-08-07 11:49:25,954360
-5,-6,-6,-11,-10,-5,-3,-2,2021-08-07 11:49:25,954360
0,0,0,0,-1,-1,-1,1,2021-08-07 11:49:25,954360
-1,0,1,3,2,1,0,-2,2021-08-07 11:49:25,954360
-1,-1,-3,-6,-6,-2,-3,1,2021-08-07 11:49:25,954360
-2,-4,-6,-12,-12,-4,-4,-3,2021-08-07 11:49:25,954360
1,1,5,14,20,7,3,0,2021-08-07 11:49:25,970358
-1,-1,0,0,-1,-1,-1,0,2021-08-07 11:49:25,970358
-1,1,2,6,8,4,1,-2,2021-08-07 11:49:25,970358
-2,0,0,0,0,-1,-2,-1,2021-08-07 11:49:25,970358
-3,-2,-3,-10,-10,-4,-3,-1,2021-08-07 11:49:25,970358
-3,-1,-3,-2,-4,-5,-5,-2,2021-08-07 11:49:25,971358
-1,-2,-1,-3,0,-1,-2,0,2021-08-07 11:49:25,971358
2,1,5,6,8,3,0,0,2021-08-07 11:49:25,971358
-2,-2,-3,-4,-2,-3,-2,-2,2021-08-07 11:49:25,971358
0,-1,-1,1,1,1,1,-2,2021-08-07 11:49:25,971358
-1,-4,-4,-8,-9,-6,-2,-1,2021-08-07 11:49:25,986361
-1,-1,-4,-3,-1,-2,0,-2,2021-08-07 11:49:25,986361
0,-1,0,2,0,-1,-1,-1,2021-08-07 11:49:25,986361
-1,-3,-3,-3,-3,-1,-1,0,2021-08-07 11:49:25,986361
0,0,1,1,2,-2,2,1,2021-08-07 11:49:26,002361
0,-1,-1,1,-2,-1,0,0,2021-08-07 11:49:26,002361
-1,-1,-4,-6,-7,-4,-2,-1,2021-08-07 11:49:26,002361
0,0,-1,-1,5,2,3,-1,2021-08-07 11:49:26,002361
0,-1,0,5,5,2,0,-2,2021-08-07 11:49:26,018358
-2,-3,-3,-4,-5,-2,-2,0,2021-08-07 11:49:26,034359
-2,-2,-2,0,-3,-1,-1,-2,2021-08-07 11:49:26,034590
1,2,2,-1,-2,-1,-2,1,2021-08-07 11:49:26,034590
1,0,3,6,9,4,2,0,2021-08-07 11:49:26,050361
1,0,3,6,2,4,0,-1,2021-08-07 11:49:26,050361
-2,-4,-2,-3,-4,-3,-1,-3,2021-08-07 11:49:26,050361
0,-1,-1,1,3,1,0,-2,2021-08-07 11:49:26,050361
-1,-1,0,0,-2,0,1,0,2021-08-07 11:49:26,050361
-3,-1,-3,-4,-4,-3,-1,0,2021-08-07 11:49:26,051359
0,-1,-3,-9,-8,-2,-1,-1,2021-08-07 11:49:26,051359
0,0,1,6,7,0,1,0,2021-08-07 11:49:26,051359
-1,-2,-3,-3,1,0,-3,-2,2021-08-07 11:49:26,081359
-3,-2,0,-1,-1,-2,-1,-2,2021-08-07 11:49:26,081359
-1,-2,-2,-2,-2,-1,-1,1,2021-08-07 11:49:26,081359
1,1,0,-3,-5,-2,0,1,2021-08-07 11:49:26,081359
-2,-1,-5,-5,-4,-3,-2,-2,2021-08-07 11:49:26,113358
1,0,2,6,5,2,1,0,2021-08-07 11:49:26,113358
0,-1,-1,3,2,0,0,1,2021-08-07 11:49:26,113358
-1,-1,-1,-1,-2,0,-1,1,2021-08-07 11:49:26,113358
1,2,1,7,3,0,1,3,2021-08-07 11:49:26,113358
-1,-4,-3,-8,-7,-4,-1,-3,2021-08-07 11:49:26,113358
0,1,0,1,2,-1,-1,-1,2021-08-07 11:49:26,129358
-4,-3,-4,-7,-5,-3,-2,-2,2021-08-07 11:49:26,129358
1,0,1,1,0,0,0,-1,2021-08-07 11:49:26,145358
0,0,-1,1,1,-1,-1,-1,2021-08-07 11:49:26,145358
1,0,-1,2,1,1,0,0,2021-08-07 11:49:26,145358
-3,-3,-4,-4,-5,-4,-2,-1,2021-08-07 11:49:26,145358
-2,-1,1,1,-1,0,-1,-3,2021-08-07 11:49:26,161359
0,-1,0,2,3,0,0,0,2021-08-07 11:49:26,161359
0,-2,-3,-4,-2,-2,0,0,2021-08-07 11:49:26,161359
-1,-3,-5,-9,-8,-4,-2,-4,2021-08-07 11:49:26,161359
0,1,4,4,2,1,-1,0,2021-08-07 11:49:26,176358
1,1,1,3,3,1,1,1,2021-08-07 11:49:26,176358
-2,-2,-3,-2,-3,-1,-2,-2,2021-08-07 11:49:26,191357
0,-1,0,1,-2,-1,0,-1,2021-08-07 11:49:26,207360
-1,0,-2,-6,-2,-1,-1,-1,2021-08-07 11:49:26,222359
-1,0,-1,-4,-4,-2,-2,-1,2021-08-07 11:49:26,238358
-2,0,1,4,5,2,1,-1,2021-08-07 11:49:26,238358
-2,-4,-5,-6,-5,-4,-3,-2,2021-08-07 11:49:26,238358
3,2,6,17,15,7,4,2,2021-08-07 11:49:26,238358
-3,-3,-2,-8,-8,-4,-1,-2,2021-08-07 11:49:26,238358
0,1,1,7,5,2,1,-1,2021-08-07 11:49:26,239359
-1,1,-3,1,-2,-1,-1,0,2021-08-07 11:49:26,239359
-3,-4,-5,-11,-9,-6,-3,-3,2021-08-07 11:49:26,239359
-1,0,-3,-7,-4,-1,-2,-1,2021-08-07 11:49:26,239359
-2,-1,0,6,9,2,0,-1,2021-08-07 11:49:26,239359
0,0,1,-1,0,0,-1,0,2021-08-07 11:49:26,239359
-2,-3,-5,-7,-7,-4,-2,-1,2021-08-07 11:49:26,270360
0,-1,-1,0,-2,-2,0,0,2021-08-07 11:49:26,286358
-2,-3,-2,-6,-6,-2,-3,-1,2021-08-07 11:49:26,302359
-1,-4,-1,-6,0,1,-1,-1,2021-08-07 11:49:26,302359
-2,-1,-3,4,0,0,-1,0,2021-08-07 11:49:26,302359
1,1,0,-1,0,0,-1,0,2021-08-07 11:49:26,318358
0,0,0,-4,-5,-5,-2,0,2021-08-07 11:49:26,334358
-3,0,-3,-3,-1,-2,-1,-1,2021-08-07 11:49:26,350359
-1,-2,-1,-2,-1,-1,-1,-2,2021-08-07 11:49:26,350359
1,-1,-1,1,-1,0,0,1,2021-08-07 11:49:26,350359
0,0,0,-3,-6,-2,-2,1,2021-08-07 11:49:26,350359
1,1,1,10,15,5,0,-2,2021-08-07 11:49:26,350359
-2,-3,-2,-7,-8,-3,-2,-1,2021-08-07 11:49:26,350359
-3,-3,-2,-2,1,0,-1,-3,2021-08-07 11:49:26,351360
1,0,0,3,1,1,0,0,2021-08-07 11:49:26,351360
0,-1,-1,-2,-8,-5,0,1,2021-08-07 11:49:26,351360
1,0,-1,-3,0,-2,-1,-1,2021-08-07 11:49:26,351360
-1,-1,-1,1,0,-2,-1,-1,2021-08-07 11:49:26,351360
-2,0,-1,-6,-5,-3,-1,-2,2021-08-07 11:49:26,351360
2,1,2,3,1,2,0,-1,2021-08-07 11:49:26,351360
-2,-1,1,2,2,0,-1,0,2021-08-07 11:49:26,352360
0,0,0,0,0,-2,1,0,2021-08-07 11:49:26,352360
-1,-1,-2,-1,1,2,-1,0,2021-08-07 11:49:26,366361
-2,0,-1,2,-2,-1,0,-2,2021-08-07 11:49:26,366361
0,1,-3,-2,-2,-1,1,-1,2021-08-07 11:49:26,382356
-1,0,-2,-3,0,-2,-1,1,2021-08-07 11:49:26,382356
0,-2,-3,-7,-1,-2,-1,-2,2021-08-07 11:49:26,382356
0,2,3,9,1,-1,0,2,2021-08-07 11:49:26,382356
0,-2,0,4,6,2,-1,-1,2021-08-07 11:49:26,413358
-3,-3,-1,-2,-2,-1,-1,0,2021-08-07 11:49:26,413358
0,-1,-3,-9,-11,-5,-2,-1,2021-08-07 11:49:26,413358
-1,-1,-1,-1,-1,2,0,0,2021-08-07 11:49:26,413358
-2,0,1,2,7,3,-1,0,2021-08-07 11:49:26,413358
0,1,0,4,2,1,-1,-1,2021-08-07 11:49:26,413358
-1,-3,-1,-2,-4,-3,-3,-1,2021-08-07 11:49:26,428357
0,-1,-2,-3,-5,-3,-2,-1,2021-08-07 11:49:26,428357
-3,-3,-3,-8,-12,-5,-2,-3,2021-08-07 11:49:26,460361
-1,-3,-1,1,0,0,-1,-1,2021-08-07 11:49:26,460361
-2,-2,-3,-3,-2,-1,-1,-1,2021-08-07 11:49:26,460361
1,2,4,6,8,4,2,1,2021-08-07 11:49:26,460361
0,-2,-2,0,-2,-1,-2,0,2021-08-07 11:49:26,460361
0,-1,0,1,1,0,-1,-2,2021-08-07 11:49:26,460361
-2,-1,-2,-1,-2,-2,0,-2,2021-08-07 11:49:26,476358
-5,-5,-10,-20,-15,-8,-5,-6,2021-08-07 11:49:26,476358
2,5,8,12,12,5,3,2,2021-08-07 11:49:26,476358
-2,-3,-3,-4,-6,-3,-2,-2,2021-08-07 11:49:26,491357
1,1,2,11,8,4,1,1,2021-08-07 11:49:26,491357
-1,-4,-2,-4,-2,-2,-3,-2,2021-08-07 11:49:26,491357
-1,-2,-4,-11,-11,-5,-2,-2,2021-08-07 11:49:26,491357
-1,1,1,1,2,0,-1,-1,2021-08-07 11:49:26,491357
-1,-2,-1,2,6,1,-1,-2,2021-08-07 11:49:26,507359
0,1,-1,4,1,1,0,2,2021-08-07 11:49:26,507359
-1,-1,-4,-3,-5,-2,-2,-3,2021-08-07 11:49:26,522357
-2,0,0,2,2,-1,-2,-1,2021-08-07 11:49:26,538359
-3,-3,-2,-8,-8,-2,-1,-3,2021-08-07 11:49:26,554360
2,2,4,5,8,3,2,2,2021-08-07 11:49:26,554360
-1,-3,-5,-6,-2,0,0,-3,2021-08-07 11:49:26,554360
2,0,1,5,4,5,4,2,2021-08-07 11:49:26,554360
0,0,0,2,0,0,1,1,2021-08-07 11:49:26,554360
-2,-1,1,0,-4,-5,-6,-4,2021-08-07 11:49:26,554360
-5,-5,-8,-17,-19,-14,-10,-6,2021-08-07 11:49:26,555359
-1,-1,0,6,6,2,1,0,2021-08-07 11:49:26,555359
4,4,5,13,11,7,6,3,2021-08-07 11:49:26,555359
0,-2,-2,0,2,1,0,0,2021-08-07 11:49:26,555359
1,0,2,-3,-3,0,3,0,2021-08-07 11:49:26,586360
-1,0,-4,-8,-7,-1,0,-2,2021-08-07 11:49:26,586360
1,-1,-1,-6,-3,-1,-2,-1,2021-08-07 11:49:26,602360
-3,-3,-3,-2,-5,-5,0,-2,2021-08-07 11:49:26,602360
3,1,2,7,4,5,7,5,2021-08-07 11:49:26,602360
4,2,-1,-6,1,7,10,6,2021-08-07 11:49:26,602360
0,0,-3,-4,-6,-2,-9,-4,2021-08-07 11:49:26,602360
-16,-11,-5,3,9,-19,-25,-19,2021-08-07 11:49:26,602360
-7,-6,-5,-8,-7,-7,-9,-7,2021-08-07 11:49:26,618357
2,1,3,9,2,5,8,5,2021-08-07 11:49:26,618357
5,3,3,5,3,9,10,7,2021-08-07 11:49:26,626358
6,3,1,-3,-3,2,2,3,2021-08-07 11:49:26,627359
-6,-6,-7,-6,-10,-11,-10,-7,2021-08-07 11:49:26,650361
-1,-1,1,1,-1,-4,-3,-3,2021-08-07 11:49:26,650361
-1,-2,-3,-2,-1,-2,1,1,2021-08-07 11:49:26,650361
8,7,3,4,0,11,13,8,2021-08-07 11:49:26,650361
2,2,0,6,21,11,5,4,2021-08-07 11:49:26,666359
-2,-4,-3,-1,-5,-5,-3,-3,2021-08-07 11:49:26,666359
-6,-5,-4,-6,-10,-7,-6,-4,2021-08-07 11:49:26,682361
-1,-1,0,5,3,3,0,-1,2021-08-07 11:49:26,682361
-1,3,2,1,2,1,0,-1,2021-08-07 11:49:26,682361
-5,-4,-2,-7,-11,-9,-12,-6,2021-08-07 11:49:26,682361
-4,-2,2,2,4,-9,-7,-5,2021-08-07 11:49:26,682361
-1,-1,-4,-5,-7,-2,1,1,2021-08-07 11:49:26,682361
1,1,1,-1,-3,4,4,3,2021-08-07 11:49:26,698359
1,1,0,2,4,2,0,2,2021-08-07 11:49:26,698359
3,2,-1,-4,-1,4,7,1,2021-08-07 11:49:26,698359
11,7,5,1,7,12,10,9,2021-08-07 11:49:26,698359
-11,-13,-9,-12,-14,-16,-12,-9,2021-08-07 11:49:26,730360
-4,-1,4,14,20,8,1,-4,2021-08-07 11:49:26,730360
-3,-4,-7,-6,-12,-14,-18,-6,2021-08-07 11:49:26,730360
-2,-2,-1,4,12,25,46,13,2021-08-07 11:49:26,730360
32,20,13,24,38,63,38,35,2021-08-07 11:49:26,730360
8,7,3,-6,-25,-67,-71,-29,2021-08-07 11:49:26,745356
-69,-42,-28,-33,-42,-45,-40,-57,2021-08-07 11:49:26,761362
10,4,0,-5,0,41,41,31,2021-08-07 11:49:26,761362
18,8,2,-2,3,20,16,9,2021-08-07 11:49:26,761362
-12,-5,0,3,0,-18,-13,-16,2021-08-07 11:49:26,761362
49,23,10,9,12,13,2,37,2021-08-07 11:49:26,761362
21,3,1,0,-3,-4,-11,-3,2021-08-07 11:49:26,761362
-54,-13,1,11,5,-6,18,-22,2021-08-07 11:49:26,793358
-17,-11,-4,-6,6,32,44,19,2021-08-07 11:49:26,793358
15,7,5,6,9,0,2,1,2021-08-07 11:49:26,793358
3,-9,-6,-7,-9,-16,-19,-7,2021-08-07 11:49:26,793358
11,2,-2,-7,-9,-7,-10,10,2021-08-07 11:49:26,793358
2,4,7,13,12,9,5,0,2021-08-07 11:49:26,793358
13,9,2,4,7,35,37,25,2021-08-07 11:49:26,809358
39,23,12,6,5,-5,-19,9,2021-08-07 11:49:26,809358
-59,-34,-21,-10,-29,-72,-77,-69,2021-08-07 11:49:26,824358
-6,-4,-5,3,16,12,4,4,2021-08-07 11:49:26,840358
5,3,1,0,1,1,14,13,2021-08-07 11:49:26,856360
-15,-6,-8,-8,-10,-3,2,-4,2021-08-07 11:49:26,856360
0,-4,-5,-10,-11,-14,-7,-4,2021-08-07 11:49:26,856360
1,2,-3,-9,-7,15,15,7,2021-08-07 11:49:26,856360
26,17,12,18,26,37,25,20,2021-08-07 11:49:26,856360
-30,-16,-14,-25,-35,-39,-31,-28,2021-08-07 11:49:26,856360
2,1,5,14,1,-3,-1,2,2021-08-07 11:49:26,857359
17,4,-2,-6,4,20,15,15,2021-08-07 11:49:26,857359
-9,-3,3,4,5,-8,-10,-13,2021-08-07 11:49:26,872358
-26,-12,-4,-8,-11,-22,-16,-19,2021-08-07 11:49:26,872358
20,11,10,14,19,23,17,19,2021-08-07 11:49:26,888358
13,6,2,3,3,6,6,5,2021-08-07 11:49:26,888358
-24,-13,-13,-34,-54,-37,-22,-24,2021-08-07 11:49:26,888358
-14,-7,-5,-4,-11,-6,-4,-7,2021-08-07 11:49:26,888358
21,9,4,5,35,28,16,19,2021-08-07 11:49:26,904359
-2,0,6,21,27,-2,-7,-7,2021-08-07 11:49:26,904359
-13,-8,-1,0,-3,-7,-5,-8,2021-08-07 11:49:26,904359
4,3,2,-2,-3,6,6,5,2021-08-07 11:49:26,904359
5,5,4,-10,-31,-15,-7,0,2021-08-07 11:49:26,919361
-1,-4,-9,-11,-16,1,1,-1,2021-08-07 11:49:26,919361
-4,-4,-3,2,37,18,10,4,2021-08-07 11:49:26,919361
-8,-5,-7,-10,-24,-26,-20,-13,2021-08-07 11:49:26,919361
0,1,1,2,12,1,-2,-1,2021-08-07 11:49:26,951358
-2,1,-1,-7,-11,-6,-2,0,2021-08-07 11:49:26,951358
9,5,3,1,7,13,10,8,2021-08-07 11:49:26,951358
-1,1,6,33,38,13,4,0,2021-08-07 11:49:26,967359
-7,-7,-5,-12,-19,-10,-5,-6,2021-08-07 11:49:26,967359
4,-1,-1,-2,0,3,3,2,2021-08-07 11:49:26,967359
-3,-1,0,-8,-23,-10,-6,-4,2021-08-07 11:49:26,967359
-10,-8,-8,-19,-18,-11,-6,-5,2021-08-07 11:49:26,967359
7,0,0,-5,2,12,7,7,2021-08-07 11:49:26,983358
14,16,22,57,66,29,14,10,2021-08-07 11:49:26,983358
-9,-4,-1,10,-1,-14,-12,-9,2021-08-07 11:49:26,983358
-2,-1,-1,-10,-9,-1,0,-2,2021-08-07 11:49:26,983358
5,2,-3,-7,-5,-2,2,5,2021-08-07 11:49:26,999359
-8,-8,-9,-27,-31,-16,-8,-7,2021-08-07 11:49:27,015359
-1,0,-2,4,3,0,-1,-1,2021-08-07 11:49:27,031359
0,-2,-5,-14,-10,0,2,2,2021-08-07 11:49:27,031359
1,0,1,5,3,1,-1,-1,2021-08-07 11:49:27,031359
-6,-3,2,-3,-20,-12,-6,-5,2021-08-07 11:49:27,031359
2,2,8,17,8,3,0,1,2021-08-07 11:49:27,031359
7,6,5,25,26,16,9,8,2021-08-07 11:49:27,031359
-7,-13,-20,-30,-14,-9,-4,-7,2021-08-07 11:49:27,032359
-15,-15,-18,-52,-43,-24,-15,-11,2021-08-07 11:49:27,032359
1,1,-2,13,8,4,2,3,2021-08-07 11:49:27,047359
2,3,5,9,6,4,2,0,2021-08-07 11:49:27,047359
3,2,8,24,14,2,0,1,2021-08-07 11:49:27,079359
-2,-3,-2,0,0,-1,-2,-1,2021-08-07 11:49:27,079359
-2,-1,3,-6,-11,-3,-3,-1,2021-08-07 11:49:27,079359
2,2,8,14,16,5,-1,-1,2021-08-07 11:49:27,079359
2,1,-2,-1,-11,-6,-1,-1,2021-08-07 11:49:27,079359
-4,-4,-7,-15,-15,-6,-4,-1,2021-08-07 11:49:27,079359
-5,-7,-7,-11,-13,-6,-6,-6,2021-08-07 11:49:27,080358
5,7,9,23,39,18,7,3,2021-08-07 11:49:27,080358
-2,-2,0,-4,-9,-4,0,-3,2021-08-07 11:49:27,110359
0,-1,-4,-4,-9,-3,-1,0,2021-08-07 11:49:27,110359
0,-1,-1,1,6,0,0,-2,2021-08-07 11:49:27,110359
-1,-2,-3,-8,-11,-2,-1,0,2021-08-07 11:49:27,110359
0,-1,-2,-2,5,0,0,-1,2021-08-07 11:49:27,126360
3,2,4,17,9,3,3,1,2021-08-07 11:49:27,142358
-1,-1,-5,-10,-10,-2,-2,-3,2021-08-07 11:49:27,142358
-5,-6,-5,-13,-16,-8,-5,-4,2021-08-07 11:49:27,142358
2,2,4,3,2,1,3,2,2021-08-07 11:49:27,142358
-3,0,-1,0,3,-3,-1,-2,2021-08-07 11:49:27,142358
-3,0,-4,-3,-7,-2,0,-1,2021-08-07 11:49:27,143360
-2,-1,-2,1,-6,-3,-3,-2,2021-08-07 11:49:27,143360
0,-2,3,2,8,3,-1,-1,2021-08-07 11:49:27,158360
0,-1,-1,1,-8,-2,-2,0,2021-08-07 11:49:27,174359
0,-1,1,-4,0,1,-1,-1,2021-08-07 11:49:27,174359
-2,-4,-6,-12,-11,-6,-3,-2,2021-08-07 11:49:27,189359
0,2,3,14,5,0,-2,0,2021-08-07 11:49:27,205361
2,2,3,3,1,2,2,0,2021-08-07 11:49:27,221361
0,0,4,12,18,6,3,2,2021-08-07 11:49:27,221361
-2,-3,-3,-11,-12,-4,-2,-2,2021-08-07 11:49:27,221361
-2,-1,-3,-4,-12,-7,-3,-2,2021-08-07 11:49:27,221361
0,-1,-1,4,7,4,0,1,2021-08-07 11:49:27,222360
-2,-2,0,10,8,1,-1,-2,2021-08-07 11:49:27,222360
0,0,-2,-3,1,-2,-1,-1,2021-08-07 11:49:27,222360
-4,-3,-6,-19,-25,-13,-7,-4,2021-08-07 11:49:27,222360
3,6,11,29,19,9,4,2,2021-08-07 11:49:27,222360
0,0,-3,2,0,-1,1,2,2021-08-07 11:49:27,222360
-5,-6,-10,-28,-29,-8,-4,-4,2021-08-07 11:49:27,222360
-2,0,5,22,41,10,1,1,2021-08-07 11:49:27,253357
-3,-2,-3,-2,-6,-2,-1,-2,2021-08-07 11:49:27,269361
0,-2,-1,-6,1,-1,0,0,2021-08-07 11:49:27,269361
0,-1,1,6,1,-1,0,1,2021-08-07 11:49:27,269361
-4,-2,-9,-24,-35,-11,-5,-2,2021-08-07 11:49:27,285362
-3,-3,-6,-9,-6,-6,-4,-3,2021-08-07 11:49:27,285362
2,5,6,14,20,9,3,1,2021-08-07 11:49:27,285362
1,0,0,5,2,1,0,0,2021-08-07 11:49:27,285362
1,1,-2,-7,-4,0,0,0,2021-08-07 11:49:27,285362
-3,-3,-3,-7,-6,-4,-4,-2,2021-08-07 11:49:27,286359
-3,-5,-8,-20,-15,-7,-3,-5,2021-08-07 11:49:27,286359
0,3,7,17,17,5,3,3,2021-08-07 11:49:27,286359
-4,-2,4,-4,-4,-4,-2,-2,2021-08-07 11:49:27,301358
-3,-6,-14,-21,-27,-12,-4,-4,2021-08-07 11:49:27,301358
6,5,10,25,37,15,6,4,2021-08-07 11:49:27,301358
-3,-2,-7,-1,5,1,0,-2,2021-08-07 11:49:27,301358
1,2,1,8,7,3,1,1,2021-08-07 11:49:27,332358
-2,0,-1,-9,-11,-5,-2,-1,2021-08-07 11:49:27,332358
0,0,2,-2,-5,-2,0,1,2021-08-07 11:49:27,332358
0,0,2,2,8,2,0,0,2021-08-07 11:49:27,332358
2,5,5,14,14,7,2,-1,2021-08-07 11:49:27,332358
-1,-1,-4,-13,-18,-7,-4,-3,2021-08-07 11:49:27,332358
-2,0,1,12,7,3,0,1,2021-08-07 11:49:27,348358
-1,-2,-2,1,-7,-1,-1,-1,2021-08-07 11:49:27,348358
-4,-6,-11,-21,-17,-7,-5,-3,2021-08-07 11:49:27,364358
-2,-3,-1,-4,6,2,0,0,2021-08-07 11:49:27,364358
-1,-1,-3,-10,-15,-7,-2,-2,2021-08-07 11:49:27,365358
0,1,5,12,9,4,2,-2,2021-08-07 11:49:27,365358
2,0,-1,4,10,4,3,1,2021-08-07 11:49:27,395360
-1,-3,-2,-3,-5,-2,-1,-1,2021-08-07 11:49:27,395593
-4,-5,-8,-21,-18,-8,-5,-2,2021-08-07 11:49:27,395593
-2,-1,3,8,4,-2,-3,-1,2021-08-07 11:49:27,395593
-1,-1,-4,-5,-13,-6,-3,-1,2021-08-07 11:49:27,411358
2,2,4,13,16,7,1,2,2021-08-07 11:49:27,411358
-1,-2,-7,-9,-8,-2,0,-1,2021-08-07 11:49:27,411358
-2,-2,-4,-9,-8,-6,-3,-1,2021-08-07 11:49:27,411358
1,2,6,4,2,2,0,2,2021-08-07 11:49:27,427359
1,2,5,20,20,5,3,1,2021-08-07 11:49:27,443358
-5,-5,-7,-15,-22,-9,-5,-5,2021-08-07 11:49:27,459361
2,2,2,9,27,12,2,1,2021-08-07 11:49:27,459361
0,-2,1,-3,-2,0,-2,0,2021-08-07 11:49:27,459361
0,0,-4,2,0,-2,-1,-1,2021-08-07 11:49:27,459361
0,0,-1,0,-3,-2,0,1,2021-08-07 11:49:27,459361
2,2,5,9,0,-2,1,1,2021-08-07 11:49:27,460359
-1,0,4,0,0,1,1,-1,2021-08-07 11:49:27,460359
-2,-4,-13,-16,-5,1,-1,0,2021-08-07 11:49:27,460359
-2,-6,-9,-14,-9,-3,-4,-3,2021-08-07 11:49:27,460359
-2,0,-3,-9,-1,0,-2,0,2021-08-07 11:49:27,460359
-4,-3,0,4,-7,-5,-3,-2,2021-08-07 11:49:27,490361
1,1,4,-6,4,2,0,1,2021-08-07 11:49:27,490361
5,7,13,27,19,9,4,3,2021-08-07 11:49:27,490361
0,-1,-1,-8,3,-3,0,1,2021-08-07 11:49:27,522358
-2,-4,-7,-14,-16,-7,-3,-4,2021-08-07 11:49:27,522358
1,2,7,12,10,4,2,1,2021-08-07 11:49:27,522358
-1,-1,-2,1,5,-1,-1,-1,2021-08-07 11:49:27,522358
-3,-4,-4,-10,-5,-3,-1,-2,2021-08-07 11:49:27,522358
-1,-4,-7,-6,-4,-3,-2,1,2021-08-07 11:49:27,522358
-1,-5,-6,-19,-24,-10,-4,-1,2021-08-07 11:49:27,523359
0,-2,-1,-5,-4,1,0,0,2021-08-07 11:49:27,523359
1,2,7,21,21,9,3,3,2021-08-07 11:49:27,523359
-5,-5,-7,-8,-8,-4,-3,-5,2021-08-07 11:49:27,553359
-7,-6,-4,-4,2,0,-4,-7,2021-08-07 11:49:27,569358
4,7,15,23,14,3,1,3,2021-08-07 11:49:27,585357
-2,-2,-5,-4,-19,-8,-5,-4,2021-08-07 11:49:27,585357
-3,-5,-10,-18,-14,-5,-2,0,2021-08-07 11:49:27,585357
4,3,4,13,21,8,4,4,2021-08-07 11:49:27,585357
-1,-1,1,4,3,0,1,0,2021-08-07 11:49:27,585357
-1,0,-2,-7,-8,-2,-2,-1,2021-08-07 11:49:27,586358
0,1,0,7,2,0,0,-3,2021-08-07 11:49:27,586358
-2,-1,-1,-5,-7,-3,-3,-2,2021-08-07 11:49:27,586358
-3,-4,-6,-1,-5,-3,-3,-1,2021-08-07 11:49:27,586358
2,0,-2,-5,1,0,-1,0,2021-08-07 11:49:27,586358
-1,-3,-1,0,1,1,0,0,2021-08-07 11:49:27,601361
-1,0,0,1,-1,-1,0,-1,2021-08-07 11:49:27,601361
1,3,8,18,20,7,2,2,2021-08-07 11:49:27,601361
-4,-3,-4,-9,-20,-10,-5,-5,2021-08-07 11:49:27,601361
0,1,-2,3,10,5,0,0,2021-08-07 11:49:27,632358
-2,-1,1,6,2,-1,-1,-2,2021-08-07 11:49:27,648360
-1,-1,-1,3,2,1,-1,0,2021-08-07 11:49:27,648360
-1,-1,-2,-6,-12,-5,0,0,2021-08-07 11:49:27,648360
-1,-1,-2,1,1,-1,-2,-1,2021-08-07 11:49:27,648360
-1,-3,-5,-13,-16,-6,-4,-2,2021-08-07 11:49:27,648360
0,-2,-1,-3,-3,-1,-2,-3,2021-08-07 11:49:27,648360
-2,-1,-1,-1,-3,-1,-1,-1,2021-08-07 11:49:27,648360
2,1,2,8,5,2,1,0,2021-08-07 11:49:27,664358
-1,0,0,1,9,4,1,1,2021-08-07 11:49:27,666358
-3,-5,-10,-19,-18,-11,-4,-5,2021-08-07 11:49:27,666358
1,0,-1,-4,1,0,-3,-1,2021-08-07 11:49:27,666358
0,0,3,6,5,1,-1,0,2021-08-07 11:49:27,695361
0,-1,-4,-2,-2,-1,0,-1,2021-08-07 11:49:27,695361
-1,-2,-4,-4,-11,-4,-1,-1,2021-08-07 11:49:27,695361
0,-2,0,-1,6,2,-1,-1,2021-08-07 11:49:27,695361
1,2,4,12,8,2,2,0,2021-08-07 11:49:27,711359
-4,-6,-9,-25,-29,-14,-6,-2,2021-08-07 11:49:27,711359
0,2,-1,-6,-1,2,0,1,2021-08-07 11:49:27,727359
5,7,9,32,54,19,9,5,2021-08-07 11:49:27,743358
0,-2,-3,-11,-11,-5,-3,-2,2021-08-07 11:49:27,743358
-1,1,5,10,7,3,-1,0,2021-08-07 11:49:27,743358
-3,-7,-10,-35,-37,-16,-6,-4,2021-08-07 11:49:27,759361
-3,-4,-4,-3,-6,-3,-2,-2,2021-08-07 11:49:27,759361
-1,-1,0,6,10,3,0,0,2021-08-07 11:49:27,759361
1,-2,-3,-10,-14,-7,-3,-3,2021-08-07 11:49:27,759361
-2,-2,-1,4,4,2,-2,-3,2021-08-07 11:49:27,759361
-5,-3,-3,-6,-6,-3,-4,-2,2021-08-07 11:49:27,759361
0,-2,2,4,5,2,2,1,2021-08-07 11:49:27,760361
3,1,2,4,2,1,2,2,2021-08-07 11:49:27,760361
-2,-4,-5,-10,-7,-2,-2,-2,2021-08-07 11:49:27,775361
-3,-5,-4,5,2,-1,0,-1,2021-08-07 11:49:27,775361
2,3,4,-1,-4,-2,0,0,2021-08-07 11:49:27,775361
-2,-1,-1,4,1,-2,-1,-1,2021-08-07 11:49:27,775361
-1,1,1,5,4,1,1,-1,2021-08-07 11:49:27,791358
-1,-3,-3,-4,-5,-3,-2,-1,2021-08-07 11:49:27,807358
-3,-4,-6,-14,-10,-4,-4,-2,2021-08-07 11:49:27,823359
-1,0,3,3,4,2,0,0,2021-08-07 11:49:27,855361
1,3,1,0,0,-1,0,0,2021-08-07 11:49:27,871358
-4,-4,-3,-6,-8,-3,-3,-4,2021-08-07 11:49:27,871358
0,2,5,19,16,6,2,0,2021-08-07 11:49:27,871358
1,0,-2,-4,-3,-1,1,-1,2021-08-07 11:49:27,871358
-2,-2,-2,-7,-7,-4,-3,1,2021-08-07 11:49:27,871358
-2,-2,-2,-5,-4,-1,0,0,2021-08-07 11:49:27,872358
1,0,3,5,5,2,0,-1,2021-08-07 11:49:27,872358
-2,0,-2,6,3,1,-2,1,2021-08-07 11:49:27,872358
-3,0,0,-1,1,-1,-1,-3,2021-08-07 11:49:27,872358
0,1,-1,-6,-13,-6,-2,-1,2021-08-07 11:49:27,872358
-1,0,1,7,0,-1,-1,2,2021-08-07 11:49:27,872358
-1,-1,-1,-3,6,2,0,-2,2021-08-07 11:49:27,872358
0,-2,-2,-2,-3,-3,-2,-1,2021-08-07 11:49:27,873358
0,0,2,4,-1,-1,0,-1,2021-08-07 11:49:27,873358
0,-1,-5,-7,-4,-2,0,0,2021-08-07 11:49:27,903358
-2,-1,-1,-9,-13,-4,-2,0,2021-08-07 11:49:27,919357
1,1,1,2,4,2,0,1,2021-08-07 11:49:27,919357
-1,1,-3,0,0,1,-2,0,2021-08-07 11:49:27,919357
-4,-6,-7,-16,-8,-4,-4,-5,2021-08-07 11:49:27,919357
-2,2,3,12,7,0,-2,-2,2021-08-07 11:49:27,919357
1,0,3,5,11,4,1,0,2021-08-07 11:49:27,919357
0,1,3,0,-5,-3,-1,0,2021-08-07 11:49:27,920360
0,0,-2,-8,-6,-3,-1,-1,2021-08-07 11:49:27,920360
1,-1,3,3,-7,0,1,0,2021-08-07 11:49:27,920360
0,-1,2,18,33,6,1,0,2021-08-07 11:49:27,935357
-3,-6,-10,-22,-20,-8,-5,-4,2021-08-07 11:49:27,951357
0,2,2,8,8,3,1,1,2021-08-07 11:49:27,966357
-3,-2,-5,-8,-8,-6,-3,-2,2021-08-07 11:49:27,982356
-2,-3,-3,-4,-7,0,-1,-1,2021-08-07 11:49:27,997356
-1,-1,2,4,10,2,0,-1,2021-08-07 11:49:27,997356
0,0,3,13,3,0,0,0,2021-08-07 11:49:27,997356
2,1,2,3,3,1,0,1,2021-08-07 11:49:27,997356
0,0,-1,-5,-9,-3,-1,-2,2021-08-07 11:49:27,997356
-1,0,-1,-1,-6,-4,-1,1,2021-08-07 11:49:27,997356
2,2,3,1,2,2,2,2,2021-08-07 11:49:27,998358
0,-2,0,3,4,1,1,0,2021-08-07 11:49:27,998358
-3,-4,-5,-3,3,0,-4,-4,2021-08-07 11:49:27,998358
-3,-4,-6,-18,-16,-7,-4,-2,2021-08-07 11:49:27,998358
-4,-2,4,7,12,4,0,-3,2021-08-07 11:49:28,013357
1,-1,-4,-6,-3,0,-1,1,2021-08-07 11:49:28,028356
0,-2,-4,1,2,1,1,0,2021-08-07 11:49:28,028356
0,2,4,11,2,2,-1,-1,2021-08-07 11:49:28,028356
0,-2,-5,-11,-11,-4,-3,0,2021-08-07 11:49:28,028356
-2,1,2,-6,-7,-4,-3,-2,2021-08-07 11:49:28,028356
-3,-4,-2,-3,-10,-7,-3,-3,2021-08-07 11:49:28,044358
0,1,2,12,15,3,2,-1,2021-08-07 11:49:28,044358
0,-1,-3,-7,-9,-4,-1,0,2021-08-07 11:49:28,044358
-2,-4,-6,-8,-6,0,1,-3,2021-08-07 11:49:28,044358
-2,-1,-5,-11,-2,-3,0,-1,2021-08-07 11:49:28,044358
0,0,-1,0,-1,-1,-1,-1,2021-08-07 11:49:28,044358
0,-2,-4,-2,1,1,2,-1,2021-08-07 11:49:28,075358
-2,-1,0,5,1,-1,-2,0,2021-08-07 11:49:28,075358
0,-1,0,-4,-15,-3,-1,0,2021-08-07 11:49:28,075358
1,1,8,18,16,5,2,2,2021-08-07 11:49:28,075358
-2,-1,0,2,-2,-2,0,-2,2021-08-07 11:49:28,075358
-3,-4,-7,-12,-8,-5,-3,0,2021-08-07 11:49:28,075358
-4,-4,-5,-20,-26,-9,-5,-4,2021-08-07 11:49:28,091358
7,8,14,41,46,18,8,4,2021-08-07 11:49:28,091358
0,-1,-4,-3,-5,-1,-1,-1,2021-08-07 11:49:28,107357
-2,-1,-1,-5,-1,-2,-1,-2,2021-08-07 11:49:28,122356
0,1,3,6,-2,-3,0,1,2021-08-07 11:49:28,125358
-4,-6,-8,-22,-25,-10,-5,-3,2021-08-07 11:49:28,125358
-1,-1,-2,-3,-3,-2,-1,0,2021-08-07 11:49:28,125358
0,0,2,6,17,5,2,0,2021-08-07 11:49:28,125358
