EMG 1,EMG 2,EMG 3,EMG 4,EMG 5,EMG 6,EMG 7,EMG 8,Timestamp
-15,-14,-13,-25,-34,-33,-27,-18,2021-08-07 11:49:21.518751
-2,-3,0,1,-3,-6,-1,0,2021-08-07 11:49:21.518751
1,-4,-10,-30,-56,-9,13,7,2021-08-07 11:49:21.520750
17,13,12,20,37,42,32,21,2021-08-07 11:49:21.520750
4,2,4,9,16,8,5,2,2021-08-07 11:49:21.532749
-1,-4,-2,-5,-6,-3,-1,-3,2021-08-07 11:49:21.532749
0,-2,-1,0,-2,-1,2,0,2021-08-07 11:49:21.541752
2,1,-3,-2,-7,2,3,3,2021-08-07 11:49:21.541752
0,-2,-2,-6,-8,-3,-2,0,2021-08-07 11:49:21.556751
-1,0,-2,0,1,-1,-4,-2,2021-08-07 11:49:21.556751
-4,-2,4,9,11,-3,-6,-3,2021-08-07 11:49:21.557749
2,3,-1,1,9,7,4,3,2021-08-07 11:49:21.557749
-1,-3,-5,-7,-12,-2,0,0,2021-08-07 11:49:21.578749
0,3,5,6,8,0,-4,0,2021-08-07 11:49:21.578749
-4,-2,0,0,7,-2,-4,-4,2021-08-07 11:49:21.580750
-1,-2,-7,-11,-14,-1,3,2,2021-08-07 11:49:21.580750
-2,-3,-4,-6,-8,1,-4,-2,2021-08-07 11:49:21.601748
-3,-2,0,7,15,0,-5,-4,2021-08-07 11:49:21.601748
-3,-3,-2,-7,-6,-7,-1,0,2021-08-07 11:49:21.602753
4,2,3,7,7,8,6,3,2021-08-07 11:49:21.602753
-1,-3,-3,-10,-4,-5,-3,-1,2021-08-07 11:49:21.623750
-2,-4,-2,0,-5,-5,-5,-3,2021-08-07 11:49:21.623750
-1,-1,-2,0,2,2,-1,-2,2021-08-07 11:49:21.625750
3,0,2,0,-3,3,1,2,2021-08-07 11:49:21.625750
0,-1,-2,-2,0,-3,-2,-3,2021-08-07 11:49:21.638750
-2,-3,-1,-7,-8,-6,-4,-3,2021-08-07 11:49:21.638750
0,-1,2,9,14,4,2,0,2021-08-07 11:49:21.640752
-1,0,1,-1,-6,-2,0,-2,2021-08-07 11:49:21.640752
-2,0,-1,1,1,1,0,0,2021-08-07 11:49:21.652752
0,0,-1,-5,-4,-1,-1,0,2021-08-07 11:49:21.652752
-2,-1,0,4,-2,-3,-3,-4,2021-08-07 11:49:21.661750
0,0,-1,1,5,2,2,1,2021-08-07 11:49:21.661750
-1,1,-1,-5,-8,-3,0,3,2021-08-07 11:49:21.676751
0,-1,-1,-1,-4,-4,-1,-1,2021-08-07 11:49:21.676751
0,0,3,14,21,7,2,3,2021-08-07 11:49:21.678751
-1,-1,-3,-3,-9,-4,0,-2,2021-08-07 11:49:21.678751
2,1,1,-2,0,3,1,2,2021-08-07 11:49:21.698752
-3,-1,-3,0,6,1,-3,-2,2021-08-07 11:49:21.698752
0,-1,-2,-2,-3,-1,1,0,2021-08-07 11:49:21.700750
-1,0,-1,-5,-10,-2,0,-1,2021-08-07 11:49:21.700750
0,1,3,7,9,2,0,-1,2021-08-07 11:49:21.712749
-4,-5,-4,-4,-3,-3,-3,-3,2021-08-07 11:49:21.712749
1,0,-1,-5,-7,-1,0,0,2021-08-07 11:49:21.728750
-1,-2,-1,-2,1,-1,-1,1,2021-08-07 11:49:21.728750
-1,1,-2,-7,-7,-1,0,-1,2021-08-07 11:49:21.736752
-1,-2,-2,-1,0,-2,-3,-2,2021-08-07 11:49:21.736752
-1,-1,0,2,0,0,-3,-1,2021-08-07 11:49:21.737751
-2,-4,-5,-11,-13,-7,-3,-3,2021-08-07 11:49:21.737751
1,2,4,15,26,9,3,2,2021-08-07 11:49:21.758748
1,1,2,4,0,-1,0,0,2021-08-07 11:49:21.758748
0,-1,-1,0,2,3,-1,0,2021-08-07 11:49:21.760750
-1,0,1,-2,-4,-2,-1,-1,2021-08-07 11:49:21.760750
-1,-1,-5,-15,-12,-4,-2,-2,2021-08-07 11:49:21.772751
-1,0,-1,0,1,-1,-1,0,2021-08-07 11:49:21.772751
-4,-1,-4,-10,-8,-5,-2,-2,2021-08-07 11:49:21.781751
0,-2,-4,-5,-3,-1,-1,-1,2021-08-07 11:49:21.781751
-1,-1,3,10,3,1,0,0,2021-08-07 11:49:21.796751
-1,-1,-2,0,3,1,0,-1,2021-08-07 11:49:21.796751
-3,-2,-1,-4,-3,-1,-2,-4,2021-08-07 11:49:21.797750
2,3,0,4,6,1,1,1,2021-08-07 11:49:21.797750
1,-1,-4,-6,-7,-5,-1,-1,2021-08-07 11:49:21.818752
-2,-4,-4,-11,-13,-6,-2,-2,2021-08-07 11:49:21.819752
0,0,-2,-3,-5,-2,0,0,2021-08-07 11:49:21.820751
0,1,3,8,14,6,2,1,2021-08-07 11:49:21.820751
2,0,1,12,11,5,4,2,2021-08-07 11:49:21.832753
-2,-2,-1,3,3,0,-1,0,2021-08-07 11:49:21.832753
-1,-1,-2,0,-4,-2,-1,-2,2021-08-07 11:49:21.848751
-2,0,3,8,1,0,-2,-2,2021-08-07 11:49:21.848751
-2,-1,0,-1,-4,-2,-3,-5,2021-08-07 11:49:21.856754
-2,0,-1,-1,-2,-2,-3,1,2021-08-07 11:49:21.856754
-1,0,-1,-4,-2,-3,0,-1,2021-08-07 11:49:21.857753
0,-2,-3,-8,-8,-3,0,-1,2021-08-07 11:49:21.857753
0,-1,-2,-6,0,-2,0,0,2021-08-07 11:49:21.886752
1,0,3,11,10,5,1,-1,2021-08-07 11:49:21.886752
1,-1,2,1,-3,-1,0,1,2021-08-07 11:49:21.887750
-1,-1,-1,3,1,1,-1,0,2021-08-07 11:49:21.887750
-2,-2,-4,-8,-9,-5,-2,-3,2021-08-07 11:49:21.892751
-2,0,1,1,3,0,-1,-1,2021-08-07 11:49:21.892751
-2,-1,0,0,1,0,-1,-2,2021-08-07 11:49:21.901752
-3,-4,-8,-17,-20,-8,-4,-3,2021-08-07 11:49:21.901752
0,1,5,25,14,6,1,2,2021-08-07 11:49:21.916750
0,2,0,-1,3,2,0,-1,2021-08-07 11:49:21.916750
0,-2,1,5,4,0,-1,-1,2021-08-07 11:49:21.917750
-2,-1,-1,-6,-3,-3,-1,0,2021-08-07 11:49:21.917750
-2,-2,-2,-8,-11,-4,-2,-3,2021-08-07 11:49:21.938752
1,-2,-1,-3,-4,-2,0,-1,2021-08-07 11:49:21.938752
-2,-2,-2,-5,-6,-4,-3,-1,2021-08-07 11:49:21.940756
0,-1,1,5,8,3,1,1,2021-08-07 11:49:21.940756
-1,0,-1,-3,-2,-2,-1,0,2021-08-07 11:49:21.952751
-2,-2,-3,-3,-3,0,-2,-2,2021-08-07 11:49:21.952751
-4,-2,-4,-8,-5,-5,-3,-1,2021-08-07 11:49:21.961750
1,1,-1,1,4,1,3,0,2021-08-07 11:49:21.961750
0,1,1,4,4,2,0,0,2021-08-07 11:49:21.976751
-4,-4,-5,-13,-16,-9,-4,-3,2021-08-07 11:49:21.976751
2,1,1,6,4,2,1,2,2021-08-07 11:49:21.977752
-1,-3,-3,-4,-2,-3,-2,0,2021-08-07 11:49:21.977752
-1,1,4,22,30,10,0,0,2021-08-07 11:49:21.998748
0,-2,1,0,-1,-1,0,0,2021-08-07 11:49:21.998748
-4,-4,-3,-8,-7,-5,-5,-4,2021-08-07 11:49:22.000753
-2,-2,-4,-10,-15,-7,-3,-1,2021-08-07 11:49:22.000753
0,-2,-6,-14,-13,-5,-2,-2,2021-08-07 11:49:22.012751
0,3,6,15,16,6,2,3,2021-08-07 11:49:22.012751
0,0,0,0,0,1,-1,0,2021-08-07 11:49:22.021752
0,0,3,6,8,2,1,-1,2021-08-07 11:49:22.021752
-3,-3,-5,-11,-11,-6,-4,-2,2021-08-07 11:49:22.036754
-2,-1,-3,-4,0,0,0,-1,2021-08-07 11:49:22.036754
0,-3,0,-2,-1,0,0,-1,2021-08-07 11:49:22.037750
0,1,0,5,3,2,1,0,2021-08-07 11:49:22.037750
-3,-2,-5,-12,-12,-7,-3,-1,2021-08-07 11:49:22.058748
0,2,-1,-4,-1,0,1,0,2021-08-07 11:49:22.058748
3,1,3,11,12,5,3,3,2021-08-07 11:49:22.060750
0,0,0,4,2,0,-1,1,2021-08-07 11:49:22.060750
0,-1,1,3,-1,-4,-1,-2,2021-08-07 11:49:22.072751
-3,-2,-6,-12,-10,-5,-4,-3,2021-08-07 11:49:22.072751
0,-1,-2,-1,-3,-1,0,-1,2021-08-07 11:49:22.096749
-4,-1,0,0,0,1,-2,-3,2021-08-07 11:49:22.096749
0,0,0,-1,-6,-3,0,0,2021-08-07 11:49:22.097750
0,-2,1,2,3,1,-1,-1,2021-08-07 11:49:22.097750
-1,-1,-4,-4,6,0,-1,-1,2021-08-07 11:49:22.099757
0,1,3,9,3,2,-1,1,2021-08-07 11:49:22.099757
-2,-4,-4,-6,-7,-1,-1,-1,2021-08-07 11:49:22.119751
-1,-2,-3,-6,-6,-4,-3,-2,2021-08-07 11:49:22.119751
-3,-1,0,-3,-4,-2,-2,-3,2021-08-07 11:49:22.141749
0,-2,-3,-8,-4,-2,-2,-1,2021-08-07 11:49:22.142752
1,0,0,1,5,1,-2,-1,2021-08-07 11:49:22.142752
-1,-2,-1,0,1,1,-1,-1,2021-08-07 11:49:22.142752
0,-2,0,1,1,0,0,-1,2021-08-07 11:49:22.144752
-4,-3,-4,-7,-11,-5,-3,-5,2021-08-07 11:49:22.144752
1,3,4,7,12,8,5,4,2021-08-07 11:49:22.155749
1,0,-2,-2,-3,-1,-1,0,2021-08-07 11:49:22.155749
-1,-1,-1,0,-2,-2,-3,-1,2021-08-07 11:49:22.162751
1,0,2,2,6,2,2,0,2021-08-07 11:49:22.162751
-3,-3,-3,-4,-8,-3,-3,-2,2021-08-07 11:49:22.178752
0,0,3,9,4,0,-1,0,2021-08-07 11:49:22.178752
-1,0,-1,-2,0,0,2,0,2021-08-07 11:49:22.180751
0,1,1,8,5,1,0,0,2021-08-07 11:49:22.180751
-3,-2,-5,-9,-11,-5,-1,-2,2021-08-07 11:49:22.201752
1,1,1,2,2,0,0,1,2021-08-07 11:49:22.201752
0,-2,-2,-7,-9,-3,0,-2,2021-08-07 11:49:22.202756
-1,-1,-4,-6,2,0,-2,-1,2021-08-07 11:49:22.202756
-1,-2,-2,-3,-4,-2,-2,-1,2021-08-07 11:49:22.216752
0,-1,-1,0,-1,1,0,0,2021-08-07 11:49:22.216752
0,0,1,7,6,1,-2,-1,2021-08-07 11:49:22.217750
-3,-3,-2,-3,-3,-1,-3,-2,2021-08-07 11:49:22.217750
-1,0,-1,-2,0,0,-1,-1,2021-08-07 11:49:22.246753
-1,-2,-3,-11,-8,-3,-1,0,2021-08-07 11:49:22.246753
1,-1,0,0,1,-2,-1,0,2021-08-07 11:49:22.247750
1,1,0,5,7,3,2,0,2021-08-07 11:49:22.247750
-3,-3,-2,-6,-5,-4,-3,-2,2021-08-07 11:49:22.261752
-1,0,0,4,4,2,-1,-1,2021-08-07 11:49:22.261752
-2,0,-5,-5,-7,-4,-3,-3,2021-08-07 11:49:22.262750
2,-1,2,0,-1,-1,-2,-2,2021-08-07 11:49:22.262750
0,-1,-1,0,1,0,0,0,2021-08-07 11:49:22.276753
0,0,0,5,3,1,-1,-2,2021-08-07 11:49:22.276753
-3,-2,-4,-7,-11,-4,-2,-1,2021-08-07 11:49:22.277751
-3,-3,-1,4,3,1,-1,-2,2021-08-07 11:49:22.277751
-1,-2,-3,-5,-3,-2,-2,-3,2021-08-07 11:49:22.298751
0,0,3,8,1,-1,-1,0,2021-08-07 11:49:22.298751
-1,-1,0,1,1,0,0,0,2021-08-07 11:49:22.300750
-1,-3,-5,-6,2,-2,-3,-2,2021-08-07 11:49:22.300750
4,2,4,6,7,5,1,2,2021-08-07 11:49:22.321750
-1,0,1,8,8,2,-1,-1,2021-08-07 11:49:22.321750
-2,-4,-4,-6,-12,-7,-3,-2,2021-08-07 11:49:22.322750
-1,-1,-4,-15,-11,-4,1,1,2021-08-07 11:49:22.322750
-1,-2,0,3,4,1,-2,-1,2021-08-07 11:49:22.335749
1,2,0,3,4,3,2,-1,2021-08-07 11:49:22.335749
0,2,6,13,9,3,1,1,2021-08-07 11:49:22.349752
-3,-2,-5,-11,-8,-5,-5,-3,2021-08-07 11:49:22.349752
-1,-3,-1,0,-6,-4,-4,-4,2021-08-07 11:49:22.357751
-3,-3,-4,-10,-13,-5,-3,-2,2021-08-07 11:49:22.357751
0,1,1,4,5,1,1,0,2021-08-07 11:49:22.366752
2,3,4,12,12,7,4,4,2021-08-07 11:49:22.366752
-2,-2,-2,-5,-9,-5,-2,-2,2021-08-07 11:49:22.381753
-1,-2,5,13,6,2,0,-1,2021-08-07 11:49:22.381753
0,-1,-3,-9,-8,-4,-1,-1,2021-08-07 11:49:22.382752
0,-1,-1,1,0,2,-1,0,2021-08-07 11:49:22.382752
0,2,2,9,15,6,4,0,2021-08-07 11:49:22.403750
-2,-3,-4,-11,-9,-3,-1,-1,2021-08-07 11:49:22.403750
1,0,1,3,6,2,0,-1,2021-08-07 11:49:22.405752
1,0,2,7,2,-1,0,0,2021-08-07 11:49:22.405752
-3,-1,-5,-8,-9,-5,-3,-4,2021-08-07 11:49:22.417750
0,-1,-2,-6,-2,-1,-2,-1,2021-08-07 11:49:22.417750
-1,0,-2,-1,0,1,0,-1,2021-08-07 11:49:22.426751
-2,-2,-2,-4,-8,-3,-2,-4,2021-08-07 11:49:22.426751
0,-2,-1,-1,-6,-4,-2,-2,2021-08-07 11:49:22.441749
1,1,-1,0,11,3,2,1,2021-08-07 11:49:22.441749
0,2,2,3,1,2,-1,0,2021-08-07 11:49:22.442748
-2,-2,-1,-1,-1,-3,0,-2,2021-08-07 11:49:22.442748
-1,-1,-2,-9,-8,-3,-1,-1,2021-08-07 11:49:22.463750
-1,-1,-2,1,3,0,-2,0,2021-08-07 11:49:22.463750
1,0,1,5,7,2,0,1,2021-08-07 11:49:22.465750
-1,0,0,1,-1,-2,0,-1,2021-08-07 11:49:22.465750
-1,-2,-3,-6,-9,-5,-3,-1,2021-08-07 11:49:22.477752
-2,-2,-6,-11,-7,-2,0,0,2021-08-07 11:49:22.477752
2,1,3,4,4,1,1,0,2021-08-07 11:49:22.486751
-1,-2,0,3,-1,-1,-1,-1,2021-08-07 11:49:22.486751
0,-1,-1,-2,1,-1,0,-1,2021-08-07 11:49:22.501754
-1,-1,-2,-9,-11,-6,-2,-1,2021-08-07 11:49:22.501754
-2,-4,-1,2,-5,-2,-2,-1,2021-08-07 11:49:22.502750
1,1,1,-1,4,2,0,2,2021-08-07 11:49:22.503753
-1,-1,0,2,-1,-1,1,1,2021-08-07 11:49:22.523749
1,1,2,7,9,4,1,-1,2021-08-07 11:49:22.523749
-2,-1,-3,-3,-3,-1,-1,-2,2021-08-07 11:49:22.525753
-2,-1,-1,-1,-5,-3,-3,-2,2021-08-07 11:49:22.525753
-3,-2,-3,-1,-1,0,-3,-1,2021-08-07 11:49:22.537752
-2,0,1,-3,-6,-3,-3,0,2021-08-07 11:49:22.537752
-1,-1,-4,-7,-5,-2,-1,-2,2021-08-07 11:49:22.553753
1,-2,-3,-3,-1,-1,-2,-1,2021-08-07 11:49:22.553753
-1,1,0,5,4,0,1,1,2021-08-07 11:49:22.561751
-1,-1,0,-2,-6,-3,0,1,2021-08-07 11:49:22.561751
1,-1,-2,-3,1,1,-1,0,2021-08-07 11:49:22.562750
-1,-3,-2,-3,-3,-2,0,-1,2021-08-07 11:49:22.562750
0,-3,-3,-2,1,-1,-1,-2,2021-08-07 11:49:22.583750
0,0,0,2,-1,0,1,-2,2021-08-07 11:49:22.583750
-2,-2,0,-2,-2,-1,-2,-4,2021-08-07 11:49:22.585755
1,3,9,18,17,8,2,0,2021-08-07 11:49:22.585755
-1,0,0,-3,-2,-2,-2,-2,2021-08-07 11:49:22.597749
1,-1,0,3,-1,-3,-2,-1,2021-08-07 11:49:22.597749
0,-1,-3,-12,-6,-3,-3,0,2021-08-07 11:49:22.606752
2,1,1,2,-1,-2,-1,-1,2021-08-07 11:49:22.606752
2,0,0,1,1,1,0,2,2021-08-07 11:49:22.621751
0,-3,-2,-7,-7,-5,-3,-3,2021-08-07 11:49:22.621751
-3,-1,-2,-1,-1,-1,-1,-1,2021-08-07 11:49:22.622750
-1,-2,-2,-6,-5,-3,0,1,2021-08-07 11:49:22.622750
-2,0,0,1,1,-1,-1,-1,2021-08-07 11:49:22.643752
-2,-3,-7,-9,-6,-4,-2,-2,2021-08-07 11:49:22.643752
2,2,5,9,-1,1,1,0,2021-08-07 11:49:22.645750
-2,-1,0,7,15,4,-1,-2,2021-08-07 11:49:22.645750
1,0,0,-1,2,0,0,-1,2021-08-07 11:49:22.657750
-3,-3,-6,-10,-12,-7,-3,-3,2021-08-07 11:49:22.657750
1,1,4,16,17,6,5,1,2021-08-07 11:49:22.666751
-4,-2,-2,-5,-9,-3,-2,-1,2021-08-07 11:49:22.666751
-2,1,-1,-1,-2,-1,-1,-3,2021-08-07 11:49:22.680750
-1,0,1,3,3,1,-1,0,2021-08-07 11:49:22.680750
-3,-4,-9,-16,-12,-6,-3,-3,2021-08-07 11:49:22.687754
-1,-2,-3,-1,-3,-1,-1,-1,2021-08-07 11:49:22.687754
1,0,-1,-1,0,-2,-2,0,2021-08-07 11:49:22.703750
-2,-3,-3,-5,-6,-2,-1,-2,2021-08-07 11:49:22.703750
-2,0,0,-6,-2,-1,-2,1,2021-08-07 11:49:22.705757
0,-1,0,3,2,1,-1,-1,2021-08-07 11:49:22.705757
0,-2,0,5,8,4,0,-1,2021-08-07 11:49:22.726750
-1,1,1,5,3,-1,1,-2,2021-08-07 11:49:22.726750
-1,-2,-2,-3,-6,-3,-2,-1,2021-08-07 11:49:22.727752
-1,-2,-3,-8,-9,-6,-3,-2,2021-08-07 11:49:22.727752
-2,-2,-5,-14,-18,-8,-3,-1,2021-08-07 11:49:22.741751
2,2,5,16,31,12,4,2,2021-08-07 11:49:22.741751
-1,-1,0,-1,-4,-1,-2,-3,2021-08-07 11:49:22.742750
-2,-2,-6,-11,-13,-5,-2,0,2021-08-07 11:49:22.742750
0,2,1,9,5,2,1,0,2021-08-07 11:49:22.763750
-1,0,-1,-2,-6,-3,-2,0,2021-08-07 11:49:22.763750
-1,-2,-3,-4,-3,-2,-2,-1,2021-08-07 11:49:22.765752
1,-1,1,9,10,5,0,0,2021-08-07 11:49:22.765752
-2,-2,-2,-7,-6,-1,-2,1,2021-08-07 11:49:22.786752
0,0,1,5,-1,-1,-1,-1,2021-08-07 11:49:22.786752
-1,-2,-1,-2,-2,-1,-1,0,2021-08-07 11:49:22.787752
-4,-4,-3,-8,-10,-5,-2,-2,2021-08-07 11:49:22.787752
-2,1,2,3,3,-1,1,1,2021-08-07 11:49:22.801751
-1,-1,-4,-13,-13,-6,-2,-3,2021-08-07 11:49:22.801751
3,1,4,19,16,6,3,2,2021-08-07 11:49:22.803753
1,0,3,2,3,1,1,1,2021-08-07 11:49:22.803753
-4,-5,-7,-8,-5,-2,-5,-5,2021-08-07 11:49:22.823751
0,1,2,12,1,0,0,1,2021-08-07 11:49:22.823751
-2,-2,0,-2,1,0,-1,-1,2021-08-07 11:49:22.825750
0,0,-4,-5,-2,-2,-2,-2,2021-08-07 11:49:22.825750
-2,-1,2,4,4,-1,0,-1,2021-08-07 11:49:22.862750
-5,-5,-4,-8,-8,-4,-3,-2,2021-08-07 11:49:22.862750
0,0,-3,-5,-5,-3,0,-1,2021-08-07 11:49:22.864751
-1,0,0,3,2,1,0,1,2021-08-07 11:49:22.864751
-1,-1,-1,-3,-3,0,0,-1,2021-08-07 11:49:22.864751
-2,-3,-3,-6,-6,-3,-4,-1,2021-08-07 11:49:22.865751
-2,0,1,4,3,2,1,0,2021-08-07 11:49:22.868750
1,-1,0,0,3,0,1,-1,2021-08-07 11:49:22.868750
-1,-1,0,-3,-7,-2,-2,-3,2021-08-07 11:49:22.883752
0,0,0,1,6,3,2,1,2021-08-07 11:49:22.883752
-1,-3,-3,-10,-12,-5,-4,-2,2021-08-07 11:49:22.885751
0,1,1,3,4,2,3,2,2021-08-07 11:49:22.885751
0,0,2,7,8,4,2,0,2021-08-07 11:49:22.906750
-2,-1,-3,-9,-12,-4,-2,-2,2021-08-07 11:49:22.906750
-2,-1,-1,-1,1,-3,-2,-1,2021-08-07 11:49:22.907750
0,0,0,-2,-6,-3,-2,-1,2021-08-07 11:49:22.907750
-1,-4,-3,0,-1,-2,-2,-1,2021-08-07 11:49:22.920751
0,0,-1,-1,5,2,1,0,2021-08-07 11:49:22.920751
-2,-2,-5,-11,-9,-5,-2,-2,2021-08-07 11:49:22.927750
-2,-2,-3,-1,2,0,-4,-3,2021-08-07 11:49:22.927750
-1,2,1,3,-1,1,0,1,2021-08-07 11:49:22.943751
-3,-4,-5,-6,-10,-6,-3,-3,2021-08-07 11:49:22.943751
3,3,4,11,14,7,3,1,2021-08-07 11:49:22.945752
-4,-3,-2,-5,-9,-3,-3,-2,2021-08-07 11:49:22.945752
0,-1,-3,-4,0,0,0,-1,2021-08-07 11:49:22.966751
0,2,1,6,5,3,0,0,2021-08-07 11:49:22.966751
-2,-2,-1,-3,-3,-3,-1,0,2021-08-07 11:49:22.967750
0,1,-1,-2,-3,-2,0,-2,2021-08-07 11:49:22.967750
-1,-1,-1,-3,-2,-2,-1,-1,2021-08-07 11:49:22.980751
0,-3,-1,-4,-6,-2,0,-3,2021-08-07 11:49:22.980751
1,0,0,3,4,3,0,0,2021-08-07 11:49:22.987752
-1,-4,-3,-2,-4,-5,-1,-2,2021-08-07 11:49:22.987752
0,0,2,1,4,1,0,-1,2021-08-07 11:49:23.003750
-1,0,2,7,7,3,0,-1,2021-08-07 11:49:23.003750
-3,-1,-3,-6,-8,-5,-2,-2,2021-08-07 11:49:23.005750
-2,0,0,2,-1,0,-1,-1,2021-08-07 11:49:23.005750
-3,-3,-4,-8,-6,-4,-3,-2,2021-08-07 11:49:23.025752
5,5,8,17,12,7,5,4,2021-08-07 11:49:23.025752
-4,-5,-5,-7,-7,-2,-3,-3,2021-08-07 11:49:23.033750
1,0,0,-3,-3,-2,1,-1,2021-08-07 11:49:23.034750
-4,-4,-3,3,6,1,-2,-3,2021-08-07 11:49:23.040753
2,4,6,4,9,5,2,3,2021-08-07 11:49:23.040753
-2,-1,-1,-2,-4,-2,-1,-1,2021-08-07 11:49:23.047753
-2,-3,-6,-4,-7,-4,-4,0,2021-08-07 11:49:23.047753
1,-1,0,-2,-4,-2,-1,-2,2021-08-07 11:49:23.063748
-2,-2,0,2,0,0,-1,0,2021-08-07 11:49:23.063748
-1,0,-2,-5,-6,-2,-1,0,2021-08-07 11:49:23.065750
1,0,3,4,13,6,0,0,2021-08-07 11:49:23.065750
0,-1,-3,-6,-2,-1,-1,-1,2021-08-07 11:49:23.086754
-3,-1,-3,-2,2,-4,-3,-1,2021-08-07 11:49:23.086754
-1,-2,-3,-2,-5,-2,0,1,2021-08-07 11:49:23.087751
-3,-3,-3,-2,-3,-2,0,-1,2021-08-07 11:49:23.087751
-2,1,2,5,-2,-2,-1,-1,2021-08-07 11:49:23.100750
-1,-2,-4,-6,-4,-1,-1,-2,2021-08-07 11:49:23.100750
-1,1,1,11,12,1,-1,-2,2021-08-07 11:49:23.107754
2,1,2,4,1,1,1,-1,2021-08-07 11:49:23.107754
1,-1,-4,-2,0,1,0,1,2021-08-07 11:49:23.123750
-5,-3,-4,-17,-16,-8,-5,-4,2021-08-07 11:49:23.123750
-1,0,-1,-1,0,2,1,0,2021-08-07 11:49:23.125753
-1,-3,-13,-17,-4,-3,-2,-1,2021-08-07 11:49:23.125753
0,0,5,5,2,-1,-1,0,2021-08-07 11:49:23.146750
-1,-2,-1,-3,-9,-3,-1,-2,2021-08-07 11:49:23.146750
1,2,6,11,15,7,3,1,2021-08-07 11:49:23.147751
0,-1,2,4,-3,-3,0,-2,2021-08-07 11:49:23.147751
1,0,-1,6,2,0,0,1,2021-08-07 11:49:23.160753
0,-1,-2,0,0,-3,-1,-1,2021-08-07 11:49:23.160753
2,0,0,-2,-2,-1,-1,0,2021-08-07 11:49:23.167749
-2,-3,-3,-4,-3,-2,-2,-1,2021-08-07 11:49:23.167749
0,1,-1,-3,-1,-1,-1,-2,2021-08-07 11:49:23.183752
-1,-1,-2,-4,-1,-2,-3,-1,2021-08-07 11:49:23.183752
-1,-1,-1,2,0,1,0,-2,2021-08-07 11:49:23.185751
-1,1,-2,-1,1,-1,1,0,2021-08-07 11:49:23.185751
-3,-3,-1,-4,-4,-2,-1,-1,2021-08-07 11:49:23.206752
0,0,0,0,1,-1,1,-2,2021-08-07 11:49:23.206752
-2,-1,-4,-7,-5,-2,-2,-1,2021-08-07 11:49:23.207750
-2,-1,-1,-7,-3,-3,-2,-2,2021-08-07 11:49:23.207750
0,-1,1,5,1,2,0,0,2021-08-07 11:49:23.219755
0,1,-1,2,2,2,1,-1,2021-08-07 11:49:23.219755
-3,-2,-4,-4,-5,-5,-3,-2,2021-08-07 11:49:23.228750
-1,-2,1,0,0,0,0,-1,2021-08-07 11:49:23.229751
0,1,1,-2,-3,-2,0,-1,2021-08-07 11:49:23.243753
-2,-2,-2,-1,0,-1,0,-1,2021-08-07 11:49:23.243753
-1,-2,-1,-3,-3,-1,-1,0,2021-08-07 11:49:23.245749
0,-1,0,-1,0,-1,-1,-1,2021-08-07 11:49:23.245749
-1,2,1,2,1,0,0,0,2021-08-07 11:49:23.265750
0,-3,-1,-5,-4,-1,-1,0,2021-08-07 11:49:23.266750
-1,-1,2,5,4,0,1,2,2021-08-07 11:49:23.272751
-2,0,0,3,2,1,-1,0,2021-08-07 11:49:23.272751
0,-1,-4,-4,1,1,-2,1,2021-08-07 11:49:23.279750
1,0,1,2,1,0,0,0,2021-08-07 11:49:23.280750
0,-1,-1,-4,1,-1,-1,-1,2021-08-07 11:49:23.288750
0,-1,1,-1,-4,-3,-3,-1,2021-08-07 11:49:23.288750
-2,-3,-4,-11,-5,-3,-2,-2,2021-08-07 11:49:23.303750
-2,-3,-2,4,1,0,-1,-1,2021-08-07 11:49:23.303750
1,1,0,-2,-3,0,-1,-1,2021-08-07 11:49:23.305752
-2,0,-4,-6,-8,-3,-1,-2,2021-08-07 11:49:23.305752
-1,-2,-2,-1,2,-1,-1,-1,2021-08-07 11:49:23.326751
2,2,1,3,5,2,-1,1,2021-08-07 11:49:23.326751
0,-1,0,4,1,-1,-1,-2,2021-08-07 11:49:23.327752
0,-2,0,-1,-1,-4,-1,-2,2021-08-07 11:49:23.327752
-1,0,-2,-2,-5,-3,-1,0,2021-08-07 11:49:23.339753
-1,-3,-4,-7,-5,0,-1,0,2021-08-07 11:49:23.339753
-3,-2,-3,-3,-5,-2,-1,-1,2021-08-07 11:49:23.348749
0,-3,0,-1,1,3,0,0,2021-08-07 11:49:23.348749
-2,-2,0,2,3,2,1,0,2021-08-07 11:49:23.363750
-2,0,1,4,1,-2,-3,-2,2021-08-07 11:49:23.363750
-4,-1,-2,-5,-5,-1,-2,-4,2021-08-07 11:49:23.365751
-2,1,1,2,-3,-3,-1,-1,2021-08-07 11:49:23.365751
0,1,-2,-2,-2,-2,0,-2,2021-08-07 11:49:23.386754
1,1,-1,-3,-1,-1,-1,0,2021-08-07 11:49:23.386754
1,-1,-3,-6,-5,-3,-1,1,2021-08-07 11:49:23.387753
0,1,2,9,11,5,1,2,2021-08-07 11:49:23.387753
0,0,-1,3,5,-2,1,-2,2021-08-07 11:49:23.399783
-1,-2,-2,-6,-6,-4,-2,-1,2021-08-07 11:49:23.399783
-1,-1,-3,-2,-3,-2,-2,-3,2021-08-07 11:49:23.408794
-1,-1,-1,-3,-4,-2,-2,-1,2021-08-07 11:49:23.409796
1,0,3,4,1,1,-2,0,2021-08-07 11:49:23.423795
-1,-2,0,0,4,2,0,0,2021-08-07 11:49:23.423795
0,1,-2,-3,-2,-1,-2,0,2021-08-07 11:49:23.425796
-2,-1,-1,-4,-3,-4,-1,-2,2021-08-07 11:49:23.425796
1,0,0,-3,-5,-2,0,1,2021-08-07 11:49:23.446796
-2,-1,-2,-3,-1,-3,-1,-2,2021-08-07 11:49:23.446796
1,0,5,11,16,6,2,1,2021-08-07 11:49:23.447795
-2,-2,-1,0,-1,-2,-4,-1,2021-08-07 11:49:23.447795
0,-3,-1,-1,-1,0,0,1,2021-08-07 11:49:23.459794
-1,0,-2,-2,-4,-2,-1,-3,2021-08-07 11:49:23.459794
-2,-3,-4,-5,-6,-4,-4,-2,2021-08-07 11:49:23.468795
-1,-1,-4,-4,-2,0,1,-1,2021-08-07 11:49:23.469796
-2,0,1,-2,-2,-1,0,1,2021-08-07 11:49:23.483796
-1,-4,-4,-10,-4,-1,-3,-1,2021-08-07 11:49:23.483796
-1,-1,1,1,-2,-2,0,-2,2021-08-07 11:49:23.485794
0,-1,2,4,2,0,1,-1,2021-08-07 11:49:23.485794
0,-1,-2,4,5,0,0,-1,2021-08-07 11:49:23.505794
-2,-2,-1,0,-1,-1,1,-1,2021-08-07 11:49:23.505794
-4,-1,-2,-4,-3,-3,-2,-2,2021-08-07 11:49:23.513795
1,0,0,-2,-7,-1,-2,0,2021-08-07 11:49:23.513795
-7,-6,-11,-15,-8,-5,-6,-5,2021-08-07 11:49:23.519796
6,7,10,17,11,7,4,4,2021-08-07 11:49:23.519796
0,-3,-3,-4,-1,-2,-2,-2,2021-08-07 11:49:23.528795
-1,-1,-2,5,3,2,0,-1,2021-08-07 11:49:23.528795
-2,-1,-2,-1,-3,-3,-2,-2,2021-08-07 11:49:23.543793
-1,0,0,-2,-2,0,0,1,2021-08-07 11:49:23.543793
-2,-2,-2,-3,-4,-1,-1,-1,2021-08-07 11:49:23.545795
0,2,1,0,1,2,1,-1,2021-08-07 11:49:23.545795
-1,-3,0,0,-1,-1,-1,0,2021-08-07 11:49:23.566798
-4,-4,-4,-3,-5,-2,-3,-2,2021-08-07 11:49:23.566798
2,1,2,6,4,3,2,1,2021-08-07 11:49:23.567794
-4,-2,-1,-4,-3,-4,-1,-2,2021-08-07 11:49:23.567794
-1,0,0,3,2,1,1,-1,2021-08-07 11:49:23.588794
0,0,1,3,3,0,2,0,2021-08-07 11:49:23.588794
-1,-1,-1,-3,-4,-2,-3,-3,2021-08-07 11:49:23.590796
-1,-2,-4,-4,0,-2,0,-1,2021-08-07 11:49:23.590796
2,1,-1,-8,-9,-3,1,0,2021-08-07 11:49:23.603797
-1,-2,-4,-5,-5,-4,-1,-1,2021-08-07 11:49:23.603797
2,0,4,10,11,3,1,0,2021-08-07 11:49:23.605797
-1,-1,-2,5,8,3,1,0,2021-08-07 11:49:23.605797
2,3,5,4,3,3,0,1,2021-08-07 11:49:23.626796
-2,-2,-2,-7,-7,-2,-2,-1,2021-08-07 11:49:23.626796
-2,-3,-3,-6,-6,-3,-3,-2,2021-08-07 11:49:23.627795
0,-3,-1,-4,-6,-2,-2,-2,2021-08-07 11:49:23.627795
-1,-1,-1,7,5,3,1,0,2021-08-07 11:49:23.648794
-2,-1,-1,-1,-1,-1,-1,-1,2021-08-07 11:49:23.648794
-2,0,-2,-2,-4,-3,-1,0,2021-08-07 11:49:23.650793
-2,-4,-3,-6,-7,-5,-2,-1,2021-08-07 11:49:23.650793
0,-1,0,-3,3,3,-1,-2,2021-08-07 11:49:23.663795
-1,0,3,5,6,3,0,-2,2021-08-07 11:49:23.663795
0,0,-1,0,-3,-2,1,0,2021-08-07 11:49:23.671792
-1,0,-2,3,3,1,0,1,2021-08-07 11:49:23.671792
0,2,2,4,0,0,0,-1,2021-08-07 11:49:23.686795
0,-2,-4,-5,-2,-4,-2,-1,2021-08-07 11:49:23.686795
1,1,1,-6,-4,-1,-1,0,2021-08-07 11:49:23.687793
0,-1,-1,-1,-3,-1,0,0,2021-08-07 11:49:23.687793
0,-3,-4,-7,-8,-3,0,0,2021-08-07 11:49:23.709311
-3,1,2,11,8,1,1,1,2021-08-07 11:49:23.709311
-1,-2,-2,-5,-4,-3,0,-1,2021-08-07 11:49:23.710312
-2,-2,2,3,3,0,-1,0,2021-08-07 11:49:23.710312
0,-1,3,8,5,1,0,1,2021-08-07 11:49:23.724314
-1,-2,-1,-1,-3,-2,-2,-2,2021-08-07 11:49:23.724314
-1,-1,0,-1,1,-1,-1,-2,2021-08-07 11:49:23.725313
0,1,1,0,0,1,-2,-1,2021-08-07 11:49:23.726313
1,0,0,1,-1,0,-1,-1,2021-08-07 11:49:23.746310
-2,-1,-1,2,0,0,1,-2,2021-08-07 11:49:23.746310
-2,-1,-1,-4,-2,-3,-2,-1,2021-08-07 11:49:23.748312
0,0,0,2,1,1,1,0,2021-08-07 11:49:23.748312
1,1,0,0,-2,-2,-1,-1,2021-08-07 11:49:23.776310
1,-2,-3,-5,-4,0,-2,-2,2021-08-07 11:49:23.776310
-2,-2,-3,1,2,1,0,-2,2021-08-07 11:49:23.778315
0,0,-1,2,-2,-2,-1,-2,2021-08-07 11:49:23.778315
0,-1,6,9,1,-1,0,0,2021-08-07 11:49:23.783314
-1,-2,-2,-7,1,0,-1,0,2021-08-07 11:49:23.783314
-2,-2,-14,-8,7,4,1,-1,2021-08-07 11:49:23.790314
-5,-4,-5,-13,-6,-3,-3,-2,2021-08-07 11:49:23.790314
-3,-4,-7,-16,-15,-8,-4,-1,2021-08-07 11:49:23.806311
-1,-2,0,0,-3,-3,-2,-2,2021-08-07 11:49:23.806311
0,1,6,10,1,2,0,2,2021-08-07 11:49:23.808313
1,0,4,5,0,0,-2,-2,2021-08-07 11:49:23.808313
0,-1,-1,-2,0,0,0,-3,2021-08-07 11:49:23.829315
1,3,5,12,15,6,4,1,2021-08-07 11:49:23.829315
-1,-1,-2,-2,-8,-5,-1,-3,2021-08-07 11:49:23.830312
0,-1,-3,-4,-3,-1,-1,-1,2021-08-07 11:49:23.830312
1,2,3,4,0,1,1,2,2021-08-07 11:49:23.843312
-3,-2,-3,-4,-5,-3,-1,-2,2021-08-07 11:49:23.843312
0,-1,0,0,-1,-2,0,-1,2021-08-07 11:49:23.850316
-2,-2,-2,-4,-4,-3,-2,-1,2021-08-07 11:49:23.850316
-4,-3,-6,-7,-5,-3,-2,-2,2021-08-07 11:49:23.866315
-2,0,-2,-1,-3,-1,-4,-1,2021-08-07 11:49:23.866315
-3,-2,-1,-3,-2,-2,-1,-2,2021-08-07 11:49:23.868313
0,1,3,3,0,0,0,0,2021-08-07 11:49:23.868313
-1,0,-2,-3,3,1,0,1,2021-08-07 11:49:23.889312
0,-1,-3,-1,-2,-3,0,-1,2021-08-07 11:49:23.889312
-2,-5,-2,-2,-5,-3,-2,-2,2021-08-07 11:49:23.890313
-1,1,-2,0,1,0,-1,0,2021-08-07 11:49:23.890313
1,1,2,8,8,5,0,0,2021-08-07 11:49:23.903312
-1,0,0,1,-1,-1,-1,0,2021-08-07 11:49:23.903312
-1,-1,-2,-5,-6,-3,-2,-1,2021-08-07 11:49:23.910314
-1,-2,-2,-2,-3,-2,-1,-1,2021-08-07 11:49:23.910314
-1,-2,-3,-5,1,-2,0,-1,2021-08-07 11:49:23.925311
1,-1,2,6,1,0,1,0,2021-08-07 11:49:23.925311
1,-1,2,3,6,5,-1,0,2021-08-07 11:49:23.934311
-1,0,-1,2,0,0,0,-3,2021-08-07 11:49:23.934311
-4,-3,-2,-3,-6,-3,-4,-2,2021-08-07 11:49:23.949314
0,-1,-3,-6,-6,-4,-1,-2,2021-08-07 11:49:23.949314
0,-1,1,-4,-5,-3,0,-1,2021-08-07 11:49:23.950311
1,-1,-1,-1,1,-2,0,-1,2021-08-07 11:49:23.950311
-1,-2,-1,2,4,1,0,-3,2021-08-07 11:49:23.962313
1,1,1,2,2,2,-1,0,2021-08-07 11:49:23.962313
1,1,-1,0,-2,-2,-2,-1,2021-08-07 11:49:23.977313
-1,-2,-1,-4,-5,0,-1,-1,2021-08-07 11:49:23.977313
-1,0,-1,-1,-2,-2,-2,-1,2021-08-07 11:49:23.986313
-1,-2,-3,-7,-1,1,-1,-1,2021-08-07 11:49:23.986313
-1,0,-2,-4,-4,-3,-2,-1,2021-08-07 11:49:23.988312
-1,-1,-3,-5,-2,-2,-1,1,2021-08-07 11:49:23.988312
-3,-1,-1,-3,-1,-2,-1,-3,2021-08-07 11:49:24.009314
2,2,0,8,5,3,2,1,2021-08-07 11:49:24.009314
2,1,1,-5,-6,-2,0,0,2021-08-07 11:49:24.010312
1,-1,2,6,9,2,1,-1,2021-08-07 11:49:24.010312
0,0,1,1,2,1,1,0,2021-08-07 11:49:24.024313
-5,-4,-8,-21,-17,-6,-4,-2,2021-08-07 11:49:24.024313
-1,0,3,15,12,4,1,-1,2021-08-07 11:49:24.030312
-1,-3,-5,-4,-8,-5,-2,-1,2021-08-07 11:49:24.030312
-1,-1,-4,-4,-2,-2,-3,-1,2021-08-07 11:49:24.046313
-3,-3,-2,-5,-5,-3,-1,-1,2021-08-07 11:49:24.046313
-1,-2,-2,-6,-6,-3,-4,0,2021-08-07 11:49:24.048315
0,1,3,6,8,3,1,0,2021-08-07 11:49:24.048315
-1,-2,-1,0,-2,0,0,-1,2021-08-07 11:49:24.069312
-1,-1,-1,0,-2,-2,-1,-3,2021-08-07 11:49:24.069312
-2,-2,-2,-2,-4,-2,-1,-2,2021-08-07 11:49:24.070312
-1,-1,-1,-1,1,0,-1,1,2021-08-07 11:49:24.070312
-1,-1,0,1,-2,-1,-1,-1,2021-08-07 11:49:24.083312
0,-3,0,-4,-5,-2,-2,-1,2021-08-07 11:49:24.083312
0,1,0,8,13,5,1,0,2021-08-07 11:49:24.090314
-1,1,0,4,2,1,0,0,2021-08-07 11:49:24.090314
1,0,0,1,0,1,-1,1,2021-08-07 11:49:24.106313
-1,-4,-6,-12,-10,-6,-3,-4,2021-08-07 11:49:24.106313
3,2,3,9,9,5,1,2,2021-08-07 11:49:24.108312
-3,-1,0,-1,-2,-2,0,-1,2021-08-07 11:49:24.108312
-1,-1,-1,-1,-1,-1,-1,0,2021-08-07 11:49:24.129312
0,1,0,5,3,0,-1,1,2021-08-07 11:49:24.129312
-4,-4,-5,-15,-14,-7,-3,-2,2021-08-07 11:49:24.130312
0,-2,-2,-2,5,1,-3,-3,2021-08-07 11:49:24.130312
3,3,3,8,-4,-4,1,0,2021-08-07 11:49:24.142311
1,-3,-4,-8,0,-1,0,1,2021-08-07 11:49:24.143313
0,0,0,4,7,4,2,3,2021-08-07 11:49:24.151312
0,-2,-1,6,3,2,1,0,2021-08-07 11:49:24.152314
-4,-3,-3,-4,-4,-2,-3,-4,2021-08-07 11:49:24.166311
-4,0,5,8,4,-1,-2,-1,2021-08-07 11:49:24.166311
-5,-2,-3,-11,-15,-10,-5,-3,2021-08-07 11:49:24.168312
-4,-1,-2,-4,2,-1,-2,-3,2021-08-07 11:49:24.168312
2,2,1,2,-1,0,0,3,2021-08-07 11:49:24.189313
4,4,4,7,12,6,4,2,2021-08-07 11:49:24.189313
0,-1,-1,-2,-3,-1,0,0,2021-08-07 11:49:24.190312
-2,-4,-6,-12,-11,-3,-2,-2,2021-08-07 11:49:24.190312
-1,0,-2,-3,1,-1,0,1,2021-08-07 11:49:24.202314
1,1,2,7,2,3,0,3,2021-08-07 11:49:24.203314
1,-2,-1,-1,-2,-4,-1,-2,2021-08-07 11:49:24.211312
0,0,-2,-5,-5,-3,1,-1,2021-08-07 11:49:24.211312
-1,-3,-4,-4,-2,-1,0,-1,2021-08-07 11:49:24.226312
-1,-3,-2,0,-4,-2,0,-2,2021-08-07 11:49:24.226312
-1,-1,-1,-2,2,1,0,-2,2021-08-07 11:49:24.228312
0,0,-1,-2,-6,-1,-1,1,2021-08-07 11:49:24.228312
-1,-1,0,-1,-2,0,-1,-1,2021-08-07 11:49:24.249315
-1,-1,-1,-2,-5,-2,0,-1,2021-08-07 11:49:24.249315
-2,-3,-3,4,4,1,-2,0,2021-08-07 11:49:24.250313
0,-1,-3,-4,-2,-2,-2,-2,2021-08-07 11:49:24.250313
0,1,2,3,7,4,2,2,2021-08-07 11:49:24.262311
-2,-1,-4,-4,-3,-1,-2,-2,2021-08-07 11:49:24.262311
0,-2,-1,-4,-5,-2,-1,-2,2021-08-07 11:49:24.271313
0,-1,3,6,-1,-3,-1,0,2021-08-07 11:49:24.271313
-2,-1,-3,-6,-5,-3,-1,-2,2021-08-07 11:49:24.294318
-2,-2,-3,-8,-6,-2,-2,-2,2021-08-07 11:49:24.294318
0,1,3,8,10,4,0,1,2021-08-07 11:49:24.294318
-1,0,-2,0,-1,-2,-1,-1,2021-08-07 11:49:24.294318
0,-1,0,0,-1,-2,-1,-2,2021-08-07 11:49:24.308313
0,-1,-2,5,1,-1,0,-1,2021-08-07 11:49:24.308313
-3,-2,-3,-5,-4,-2,-1,-2,2021-08-07 11:49:24.309312
1,-1,1,1,0,-1,1,-2,2021-08-07 11:49:24.309312
0,0,-1,-1,-1,-1,0,0,2021-08-07 11:49:24.330311
0,1,0,-2,0,1,-2,1,2021-08-07 11:49:24.331312
1,-1,-1,-4,-4,-2,-1,-3,2021-08-07 11:49:24.331312
-1,0,-2,-1,-1,0,-1,0,2021-08-07 11:49:24.331312
-2,-1,-2,-3,-2,-1,1,0,2021-08-07 11:49:24.345311
-2,-1,-2,0,-4,-3,-2,0,2021-08-07 11:49:24.346312
1,2,2,8,10,4,2,0,2021-08-07 11:49:24.346312
-3,-1,0,-1,-1,-1,-1,-2,2021-08-07 11:49:24.346312
0,0,0,0,0,0,0,-1,2021-08-07 11:49:24.368359
-1,-3,-2,-2,-1,-2,-1,0,2021-08-07 11:49:24.368359
-1,-3,-2,-7,-8,-4,-2,-3,2021-08-07 11:49:24.369360
1,0,-1,-2,0,0,-1,-1,2021-08-07 11:49:24.369360
0,0,0,3,1,-1,-1,1,2021-08-07 11:49:24.399359
-1,-1,-2,-2,-2,-1,-2,-4,2021-08-07 11:49:24.399359
-2,-1,-2,-4,-3,-3,-1,0,2021-08-07 11:49:24.399359
0,0,2,4,4,1,0,1,2021-08-07 11:49:24.400361
-1,0,-1,3,-1,0,-1,-3,2021-08-07 11:49:24.405359
-1,0,0,1,3,-1,0,-1,2021-08-07 11:49:24.406361
-2,-3,-2,-4,-4,-2,-3,-3,2021-08-07 11:49:24.406361
0,-1,-2,-4,-4,-3,-3,-1,2021-08-07 11:49:24.406361
-2,-4,-4,-11,-8,-4,-3,-1,2021-08-07 11:49:24.428357
1,0,3,9,-1,-1,-1,0,2021-08-07 11:49:24.428357
1,1,3,9,14,5,1,0,2021-08-07 11:49:24.429358
-2,-2,-2,0,-3,-2,-1,-1,2021-08-07 11:49:24.429358
-1,0,-2,-3,0,0,1,-1,2021-08-07 11:49:24.451359
-1,0,2,0,4,1,1,-2,2021-08-07 11:49:24.451359
-1,-1,0,5,-4,-3,1,-2,2021-08-07 11:49:24.452360
-1,-2,-4,-8,-12,-6,-3,-1,2021-08-07 11:49:24.452360
-2,-1,-3,-8,-1,-2,-2,-1,2021-08-07 11:49:24.465359
0,-2,-2,-6,-2,0,0,-3,2021-08-07 11:49:24.466359
1,1,3,6,3,3,-1,1,2021-08-07 11:49:24.466359
1,2,1,4,4,4,2,0,2021-08-07 11:49:24.466359
1,-1,0,0,-5,-3,-3,-3,2021-08-07 11:49:24.488360
1,2,0,-1,3,1,0,1,2021-08-07 11:49:24.488360
-1,-2,-3,-5,-4,-3,-1,0,2021-08-07 11:49:24.489361
-1,0,-1,-3,0,0,-2,0,2021-08-07 11:49:24.489361
0,1,-1,0,-1,-3,0,-1,2021-08-07 11:49:24.511359
-3,-3,-1,-1,2,2,0,0,2021-08-07 11:49:24.511359
-1,-2,0,-3,-4,-3,-2,-1,2021-08-07 11:49:24.512360
-2,-2,-1,-2,1,-1,-2,0,2021-08-07 11:49:24.512360
0,1,4,8,6,3,-1,-1,2021-08-07 11:49:24.525358
2,0,0,1,-1,0,0,1,2021-08-07 11:49:24.525358
-2,-1,-3,-3,-6,-4,1,-1,2021-08-07 11:49:24.526359
-2,-2,0,-3,-2,0,-1,-2,2021-08-07 11:49:24.526359
-1,-2,1,3,3,1,-1,0,2021-08-07 11:49:24.548361
-1,-2,-1,-5,-4,-2,-1,-1,2021-08-07 11:49:24.548361
-2,-2,-2,-6,-8,-4,-2,-2,2021-08-07 11:49:24.549360
1,0,2,1,4,0,0,-1,2021-08-07 11:49:24.549360
0,-3,-3,-3,-4,-1,0,-1,2021-08-07 11:49:24.571361
-2,-1,2,4,6,2,0,-1,2021-08-07 11:49:24.571361
-2,-1,-3,-4,1,0,-1,0,2021-08-07 11:49:24.572359
-1,0,0,5,-3,-2,-2,0,2021-08-07 11:49:24.572359
-3,-2,-5,-11,-12,-5,-2,0,2021-08-07 11:49:24.610361
3,0,2,0,1,-1,0,-2,2021-08-07 11:49:24.610361
0,-1,0,-3,2,1,0,-2,2021-08-07 11:49:24.610361
-1,0,-1,-1,-2,-1,0,0,2021-08-07 11:49:24.611359
-2,0,-1,1,3,1,0,-2,2021-08-07 11:49:24.612361
-4,0,-4,-1,-8,-5,-3,-1,2021-08-07 11:49:24.612361
-1,1,-2,-4,-7,-4,-2,0,2021-08-07 11:49:24.615360
-1,0,0,1,-1,-1,1,0,2021-08-07 11:49:24.615360
1,1,3,6,7,1,1,0,2021-08-07 11:49:24.631359
-2,-3,-4,-7,-6,-4,-2,-3,2021-08-07 11:49:24.631359
-2,-3,-2,0,-2,-1,-2,0,2021-08-07 11:49:24.632361
0,1,0,1,3,1,-1,1,2021-08-07 11:49:24.632361
-1,-1,1,-1,-1,0,-2,-1,2021-08-07 11:49:24.646358
-2,-2,-1,0,-1,-1,-1,-1,2021-08-07 11:49:24.646358
-1,1,1,1,-1,0,-2,0,2021-08-07 11:49:24.646358
-1,-2,-3,-8,-7,-4,-2,-2,2021-08-07 11:49:24.647361
2,3,3,9,11,4,1,0,2021-08-07 11:49:24.676358
-1,-1,-1,-1,-1,-1,-2,0,2021-08-07 11:49:24.676358
-1,0,-4,-6,-9,-5,-1,-2,2021-08-07 11:49:24.677360
-1,-1,2,6,10,4,-1,-1,2021-08-07 11:49:24.677360
-3,-2,-4,-7,-9,-7,-4,-3,2021-08-07 11:49:24.707359
0,0,-2,-4,0,-1,0,1,2021-08-07 11:49:24.708359
2,3,2,-2,-3,0,2,2,2021-08-07 11:49:24.708359
1,0,1,7,10,4,1,0,2021-08-07 11:49:24.708359
-1,0,-1,-3,-6,-2,-2,-1,2021-08-07 11:49:24.710360
-2,-2,0,5,0,-2,-3,-1,2021-08-07 11:49:24.710360
-4,-3,-7,-8,-4,-2,-3,-4,2021-08-07 11:49:24.713360
0,1,2,2,0,0,0,-2,2021-08-07 11:49:24.713360
-1,-1,0,1,1,0,-1,0,2021-08-07 11:49:24.728360
-1,0,-1,0,-2,-2,-1,-1,2021-08-07 11:49:24.728360
-3,-4,-2,-3,-5,-4,-3,-2,2021-08-07 11:49:24.729359
-2,-2,-3,2,2,2,1,-1,2021-08-07 11:49:24.729359
-1,-1,-4,-1,-6,-3,-1,-1,2021-08-07 11:49:24.751359
-1,0,-1,2,11,4,2,2,2021-08-07 11:49:24.751359
0,-1,0,5,2,0,-2,-1,2021-08-07 11:49:24.752358
2,1,-1,2,4,1,1,2,2021-08-07 11:49:24.752358
2,0,1,-1,-2,-1,-1,-1,2021-08-07 11:49:24.765358
-2,-2,-2,-4,-5,-3,-1,-1,2021-08-07 11:49:24.766360
0,0,-1,2,1,1,0,1,2021-08-07 11:49:24.766360
-3,-4,-4,-11,-14,-6,-2,-1,2021-08-07 11:49:24.766360
-2,0,2,5,6,1,0,-1,2021-08-07 11:49:24.788360
0,0,-1,1,0,0,-1,1,2021-08-07 11:49:24.788360
-1,0,2,7,8,3,1,0,2021-08-07 11:49:24.789359
-1,-1,-6,-8,-9,-5,-5,-4,2021-08-07 11:49:24.789359
-1,-1,-4,-6,-2,-1,-1,0,2021-08-07 11:49:24.811360
0,-1,1,-2,-2,-1,-1,-2,2021-08-07 11:49:24.811360
0,-1,0,0,2,0,2,1,2021-08-07 11:49:24.812359
-2,0,2,1,1,0,-1,0,2021-08-07 11:49:24.812359
-2,-3,-1,0,-1,0,0,-2,2021-08-07 11:49:24.825358
-1,-2,-2,-4,-3,-2,1,-1,2021-08-07 11:49:24.825358
1,0,1,0,-1,0,0,1,2021-08-07 11:49:24.826359
-2,-3,0,-3,-4,-4,0,-2,2021-08-07 11:49:24.826359
-1,-3,-2,-3,-4,-1,0,0,2021-08-07 11:49:24.848359
-2,1,1,-3,-1,-1,-3,-2,2021-08-07 11:49:24.848359
2,2,3,7,6,4,1,2,2021-08-07 11:49:24.848359
-1,-1,1,8,5,1,0,-1,2021-08-07 11:49:24.849358
0,0,0,1,3,1,1,1,2021-08-07 11:49:24.871359
-4,-3,-3,-5,-9,-5,-2,-3,2021-08-07 11:49:24.871359
-1,-1,-3,-4,-5,-3,0,-1,2021-08-07 11:49:24.872359
0,0,0,0,1,0,-1,0,2021-08-07 11:49:24.872359
-2,-1,-1,1,-1,-1,-2,0,2021-08-07 11:49:24.885359
1,-2,0,0,0,0,1,0,2021-08-07 11:49:24.885359
-3,-5,-3,-1,-1,-1,-1,-4,2021-08-07 11:49:24.886357
-1,-1,-2,-4,-3,-1,-1,0,2021-08-07 11:49:24.886357
1,0,0,1,1,-1,0,0,2021-08-07 11:49:24.908357
-2,-1,0,2,-1,0,-1,-2,2021-08-07 11:49:24.908357
-2,-2,-2,-4,-2,0,-1,-1,2021-08-07 11:49:24.909359
1,0,1,-4,-5,-3,-3,-1,2021-08-07 11:49:24.909359
0,1,2,1,3,-1,1,-1,2021-08-07 11:49:24.930358
-2,-4,-6,-5,-5,-3,-1,0,2021-08-07 11:49:24.930358
-2,-4,-6,-9,-7,-5,-3,0,2021-08-07 11:49:24.938358
-2,-1,-2,2,1,3,3,0,2021-08-07 11:49:24.938358
1,-1,0,2,4,3,4,1,2021-08-07 11:49:24.945359
1,1,2,4,2,1,-1,-1,2021-08-07 11:49:24.945359
-4,-3,-5,-10,-14,-8,-7,-5,2021-08-07 11:49:24.946359
-3,-1,1,1,1,-1,-3,-2,2021-08-07 11:49:24.946359
3,4,5,14,18,8,2,1,2021-08-07 11:49:24.968358
1,2,-1,-2,-5,-3,-1,1,2021-08-07 11:49:24.968358
0,-1,-1,-1,0,0,0,0,2021-08-07 11:49:24.969358
1,0,-1,-5,-7,-3,-2,-2,2021-08-07 11:49:24.969358
0,-3,-5,-10,-12,-6,-2,0,2021-08-07 11:49:24.991358
0,1,-2,-1,5,2,0,-2,2021-08-07 11:49:24.991358
2,1,3,6,5,4,2,0,2021-08-07 11:49:24.992362
-2,-2,-2,0,5,1,0,0,2021-08-07 11:49:24.992362
-2,-1,-3,-2,-3,-1,-1,0,2021-08-07 11:49:25.005359
-1,-1,0,-4,-4,-3,-1,-1,2021-08-07 11:49:25.006360
-2,0,0,0,-2,-2,-1,0,2021-08-07 11:49:25.006360
1,0,0,1,0,1,2,-1,2021-08-07 11:49:25.006360
-1,-2,-3,-4,-6,-2,-2,-2,2021-08-07 11:49:25.028357
0,1,-1,-3,-1,-1,-1,1,2021-08-07 11:49:25.028357
-1,0,0,2,0,-1,-1,-1,2021-08-07 11:49:25.029358
2,3,2,8,6,2,1,2,2021-08-07 11:49:25.029358
0,0,-1,-4,-4,-4,-2,0,2021-08-07 11:49:25.051358
-1,-3,-3,-5,-3,1,-1,-1,2021-08-07 11:49:25.051358
-2,0,1,6,4,-1,1,-1,2021-08-07 11:49:25.052366
-3,-2,-4,-5,1,1,-1,0,2021-08-07 11:49:25.052366
-1,-2,-2,-3,0,-2,-1,-1,2021-08-07 11:49:25.065359
-1,-2,0,4,2,0,-3,-1,2021-08-07 11:49:25.066363
0,0,0,-1,-2,0,0,0,2021-08-07 11:49:25.066363
-1,-2,-3,-4,-7,-5,-2,-1,2021-08-07 11:49:25.066363
-1,0,1,3,3,3,1,0,2021-08-07 11:49:25.088358
-1,-2,-1,2,0,0,0,-1,2021-08-07 11:49:25.088358
-1,0,-1,0,1,0,-1,-1,2021-08-07 11:49:25.089360
-1,-1,0,-2,-6,-3,-1,-1,2021-08-07 11:49:25.089360
1,-1,-1,-2,-1,0,0,-1,2021-08-07 11:49:25.111359
-1,0,-1,-1,-4,-3,0,-1,2021-08-07 11:49:25.111359
-2,-1,-1,-2,0,0,-2,-2,2021-08-07 11:49:25.112360
-1,-2,-3,-2,0,-1,-2,-1,2021-08-07 11:49:25.112360
-1,1,0,-2,-5,-1,-1,-1,2021-08-07 11:49:25.125358
-1,-1,-1,2,3,2,-1,0,2021-08-07 11:49:25.125358
-1,0,-2,-5,-8,-3,-1,-1,2021-08-07 11:49:25.126362
0,-2,-3,-5,-7,-1,-2,-2,2021-08-07 11:49:25.126362
0,-2,0,3,6,3,-2,0,2021-08-07 11:49:25.148362
-1,-2,3,5,4,1,-2,-3,2021-08-07 11:49:25.148362
1,0,0,-1,3,1,-1,-1,2021-08-07 11:49:25.149360
-2,-3,-1,-3,-5,-5,-2,-2,2021-08-07 11:49:25.149360
-1,-1,0,2,1,-1,0,-2,2021-08-07 11:49:25.171358
-1,0,-2,-3,-6,-4,-1,1,2021-08-07 11:49:25.171358
0,-1,-1,-3,-2,-3,-2,-1,2021-08-07 11:49:25.172360
0,-1,0,-2,-3,-2,-1,-2,2021-08-07 11:49:25.172360
-1,-2,-3,-6,-6,-2,-2,-2,2021-08-07 11:49:25.185359
-3,-1,-2,0,-3,-3,0,0,2021-08-07 11:49:25.185359
0,-2,0,2,4,3,2,-2,2021-08-07 11:49:25.193359
-1,2,-2,-8,-4,-2,0,-1,2021-08-07 11:49:25.193359
0,1,1,5,1,0,1,0,2021-08-07 11:49:25.208357
-1,-1,-2,1,3,2,-1,-2,2021-08-07 11:49:25.208357
-1,-3,-2,-3,-4,-2,-1,1,2021-08-07 11:49:25.209358
0,-1,0,4,2,1,0,0,2021-08-07 11:49:25.209358
-2,1,-2,-6,-6,-4,-2,-2,2021-08-07 11:49:25.231360
0,1,-3,-3,1,-1,0,-1,2021-08-07 11:49:25.231360
-2,-2,-2,1,4,1,-2,-1,2021-08-07 11:49:25.232360
0,1,2,5,4,0,0,0,2021-08-07 11:49:25.232360
-2,-2,-2,-6,-8,-5,-3,1,2021-08-07 11:49:25.245358
2,0,-1,-4,4,3,1,1,2021-08-07 11:49:25.245358
-2,-2,-4,-5,-7,-3,-1,0,2021-08-07 11:49:25.253358
0,1,1,4,5,3,1,1,2021-08-07 11:49:25.253358
0,0,-1,0,2,1,0,-1,2021-08-07 11:49:25.268359
-4,-3,-2,-2,-1,-1,-2,1,2021-08-07 11:49:25.268359
0,-1,0,3,2,-1,1,0,2021-08-07 11:49:25.269360
-3,-2,-5,-11,-12,-6,-3,-3,2021-08-07 11:49:25.269360
1,0,0,0,3,1,1,2,2021-08-07 11:49:25.291358
3,3,5,10,5,-1,0,-3,2021-08-07 11:49:25.291358
0,-1,0,3,5,3,1,1,2021-08-07 11:49:25.292364
-4,-6,-6,-10,-9,-4,-1,0,2021-08-07 11:49:25.292364
-2,-3,-3,-9,-9,-4,-3,-1,2021-08-07 11:49:25.305358
-3,-2,0,2,-2,-3,0,-1,2021-08-07 11:49:25.305358
2,2,4,4,3,0,1,1,2021-08-07 11:49:25.313357
1,0,1,6,8,3,2,-2,2021-08-07 11:49:25.313357
-3,-3,-1,4,6,1,-1,-1,2021-08-07 11:49:25.328360
0,-1,-2,-4,-6,-2,-2,-1,2021-08-07 11:49:25.328360
-2,-2,-2,-10,-13,-6,-5,-2,2021-08-07 11:49:25.329360
-1,-2,0,-1,4,1,-1,-1,2021-08-07 11:49:25.329360
0,1,4,9,6,2,2,2,2021-08-07 11:49:25.351358
0,-1,2,6,5,0,0,0,2021-08-07 11:49:25.352360
-2,-1,-1,-2,-2,-2,-2,-2,2021-08-07 11:49:25.352360
-2,0,-1,-2,-4,-2,-2,-2,2021-08-07 11:49:25.352360
-1,-3,-3,-7,-10,-5,-2,-2,2021-08-07 11:49:25.365362
-1,1,-2,-8,-1,0,0,0,2021-08-07 11:49:25.365362
-2,-2,-2,-1,1,0,-2,-4,2021-08-07 11:49:25.373359
1,-1,1,4,1,0,-1,-1,2021-08-07 11:49:25.373359
-2,-3,-1,1,0,-1,-1,-2,2021-08-07 11:49:25.388360
-2,-2,-4,-10,-12,-5,-3,0,2021-08-07 11:49:25.388360
0,3,3,4,6,2,3,1,2021-08-07 11:49:25.389361
0,2,2,6,8,2,1,1,2021-08-07 11:49:25.389361
-1,-2,-1,-5,-4,-1,-1,-3,2021-08-07 11:49:25.411359
0,-2,-1,1,2,0,-1,0,2021-08-07 11:49:25.411359
0,-1,-2,-3,-5,-3,0,-2,2021-08-07 11:49:25.412361
-1,-3,-3,-7,-5,-1,0,0,2021-08-07 11:49:25.412361
0,2,1,4,-5,-2,-1,-1,2021-08-07 11:49:25.425359
-3,-2,0,5,3,0,0,-3,2021-08-07 11:49:25.425359
0,0,1,0,4,0,-1,-1,2021-08-07 11:49:25.433359
0,1,1,3,3,2,0,2,2021-08-07 11:49:25.433359
-3,-2,-4,-6,-2,-1,-2,-2,2021-08-07 11:49:25.448358
-1,-2,-4,-5,-5,-3,-1,0,2021-08-07 11:49:25.448358
1,0,2,1,-4,-1,0,1,2021-08-07 11:49:25.449359
-1,-1,-1,-3,-2,-3,-1,-1,2021-08-07 11:49:25.449359
-1,-2,-1,1,6,1,0,-1,2021-08-07 11:49:25.471359
2,0,-1,-2,-4,-1,-1,0,2021-08-07 11:49:25.471359
-1,-1,-1,2,3,0,-1,-1,2021-08-07 11:49:25.472360
0,-1,-4,-10,-9,-3,-2,-2,2021-08-07 11:49:25.472360
-2,-2,-3,-2,-1,-2,-2,-1,2021-08-07 11:49:25.494359
2,3,5,15,11,5,3,0,2021-08-07 11:49:25.494359
-2,-1,-1,0,0,0,-2,-1,2021-08-07 11:49:25.494359
-1,-1,1,2,-2,-2,-3,-2,2021-08-07 11:49:25.494359
1,1,1,2,2,1,0,-1,2021-08-07 11:49:25.508359
0,-1,-5,-11,-8,-2,-1,-2,2021-08-07 11:49:25.508359
-1,0,-2,-4,-3,0,-1,-1,2021-08-07 11:49:25.509362
-1,-2,-1,-1,0,0,-2,0,2021-08-07 11:49:25.509362
0,-2,-4,-8,-2,-1,0,-1,2021-08-07 11:49:25.531358
-1,0,2,6,1,-1,-2,-3,2021-08-07 11:49:25.531358
1,-1,-2,0,-2,-1,-1,-2,2021-08-07 11:49:25.532359
-1,-1,0,-2,1,-1,0,-1,2021-08-07 11:49:25.532359
0,-1,-1,-6,-3,-3,0,0,2021-08-07 11:49:25.553359
-1,-3,-1,-1,-2,-1,0,-1,2021-08-07 11:49:25.553359
-2,-1,-2,-3,-2,-3,-3,-2,2021-08-07 11:49:25.554363
0,3,2,5,1,3,0,2,2021-08-07 11:49:25.554363
1,1,0,0,1,0,-1,-1,2021-08-07 11:49:25.568359
-3,-3,-4,-2,-2,-1,-1,-1,2021-08-07 11:49:25.568359
-1,-1,-1,3,2,0,0,-1,2021-08-07 11:49:25.569361
1,1,-1,0,-1,-1,2,1,2021-08-07 11:49:25.569361
2,-1,-1,3,4,0,1,-1,2021-08-07 11:49:25.591358
-2,-3,-5,-10,-8,-5,-2,-2,2021-08-07 11:49:25.591358
2,0,0,-3,1,3,1,3,2021-08-07 11:49:25.592360
0,-2,-1,2,1,-1,0,-2,2021-08-07 11:49:25.592360
0,-1,-3,-8,-5,-4,-1,-2,2021-08-07 11:49:25.614360
0,0,2,8,4,0,-1,-1,2021-08-07 11:49:25.614360
-2,-3,-4,-4,0,-2,0,-1,2021-08-07 11:49:25.614360
1,1,2,4,2,1,0,-2,2021-08-07 11:49:25.614360
-2,-3,-1,-1,-5,-2,-2,-1,2021-08-07 11:49:25.628358
-2,-2,-4,-12,-7,-2,-1,-1,2021-08-07 11:49:25.628358
-2,-2,-4,-3,-5,-3,-2,-2,2021-08-07 11:49:25.629360
0,1,-3,-5,-2,-1,-1,-1,2021-08-07 11:49:25.629360
-1,1,3,13,6,2,-1,0,2021-08-07 11:49:25.651358
3,2,2,4,16,7,3,3,2021-08-07 11:49:25.651358
-2,-2,1,8,5,3,0,0,2021-08-07 11:49:25.652362
0,0,2,0,-3,-3,0,-1,2021-08-07 11:49:25.652362
1,1,0,-3,-6,-3,0,0,2021-08-07 11:49:25.674359
-1,-2,-4,1,-2,-2,-1,-1,2021-08-07 11:49:25.674359
-1,-3,-1,-6,-6,-3,-1,-2,2021-08-07 11:49:25.674359
-3,-2,-3,-4,-4,-3,-2,-2,2021-08-07 11:49:25.674359
-2,-2,2,1,5,1,-1,-2,2021-08-07 11:49:25.688358
-1,0,0,-5,-5,-2,0,-1,2021-08-07 11:49:25.688358
-1,-2,-1,3,2,0,0,-1,2021-08-07 11:49:25.689361
-2,-2,-3,-3,-5,-2,-2,-1,2021-08-07 11:49:25.689361
2,-1,1,3,4,3,1,1,2021-08-07 11:49:25.711359
-1,-1,-1,-7,-7,-2,-1,-1,2021-08-07 11:49:25.711359
-1,0,-2,-2,-3,-3,1,-1,2021-08-07 11:49:25.712360
-2,-4,-2,-2,-2,-3,-1,-1,2021-08-07 11:49:25.712360
-2,0,-2,-1,-1,-2,-2,-1,2021-08-07 11:49:25.734359
-1,-1,1,5,2,1,0,1,2021-08-07 11:49:25.734359
0,-1,-1,-8,-6,-2,-1,-1,2021-08-07 11:49:25.734359
0,0,0,3,2,1,1,0,2021-08-07 11:49:25.735361
-2,-2,-3,1,3,-1,-1,-1,2021-08-07 11:49:25.748358
-2,0,0,1,-1,-3,-2,0,2021-08-07 11:49:25.748358
1,1,0,-3,-6,-2,-1,-1,2021-08-07 11:49:25.749360
0,0,-2,-1,1,0,0,-2,2021-08-07 11:49:25.749360
0,-1,-1,-2,-3,-1,-1,-2,2021-08-07 11:49:25.771357
1,0,-3,-2,-1,0,0,1,2021-08-07 11:49:25.771357
0,-2,-1,-1,1,1,2,1,2021-08-07 11:49:25.772359
-2,-2,-2,-6,-6,-2,-1,1,2021-08-07 11:49:25.772359
-2,-1,-1,-3,0,0,-2,-2,2021-08-07 11:49:25.793359
-4,0,1,7,7,-1,-1,-3,2021-08-07 11:49:25.794358
-2,0,1,0,-3,-1,-4,-4,2021-08-07 11:49:25.794358
1,2,4,9,7,1,0,0,2021-08-07 11:49:25.794358
0,0,-4,-4,-6,-4,-3,-1,2021-08-07 11:49:25.808361
0,-2,-2,-10,-8,-5,-2,0,2021-08-07 11:49:25.808361
0,0,3,4,2,0,2,1,2021-08-07 11:49:25.809359
-1,-4,-5,-2,-4,0,0,0,2021-08-07 11:49:25.809359
-3,-4,-1,6,5,2,0,-1,2021-08-07 11:49:25.831361
-1,-1,0,-3,-6,0,-1,-2,2021-08-07 11:49:25.831361
0,1,1,5,4,0,-1,-1,2021-08-07 11:49:25.832358
1,1,2,4,10,4,1,2,2021-08-07 11:49:25.832358
1,-1,0,-2,-3,-3,0,-1,2021-08-07 11:49:25.854359
-2,-2,-3,-4,-5,-3,-4,-3,2021-08-07 11:49:25.854359
-3,-1,-3,-4,-5,-2,-1,-2,2021-08-07 11:49:25.854359
-1,-2,-2,-9,-7,-3,-3,-2,2021-08-07 11:49:25.854359
-4,-3,-4,-8,-10,-4,-4,-2,2021-08-07 11:49:25.868358
1,1,4,10,11,6,2,0,2021-08-07 11:49:25.868358
3,3,3,4,8,6,2,2,2021-08-07 11:49:25.869360
-3,0,-2,1,-1,-1,-2,-1,2021-08-07 11:49:25.869360
-1,0,-1,-2,-4,-2,0,0,2021-08-07 11:49:25.891360
-5,-6,-6,-11,-10,-5,-3,-2,2021-08-07 11:49:25.891360
0,0,0,0,-1,-1,-1,1,2021-08-07 11:49:25.892360
-1,0,1,3,2,1,0,-2,2021-08-07 11:49:25.892360
-1,-1,-3,-6,-6,-2,-3,1,2021-08-07 11:49:25.914358
-2,-4,-6,-12,-12,-4,-4,-3,2021-08-07 11:49:25.914358
1,1,5,14,20,7,3,0,2021-08-07 11:49:25.914358
-1,-1,0,0,-1,-1,-1,0,2021-08-07 11:49:25.914358
-1,1,2,6,8,4,1,-2,2021-08-07 11:49:25.928359
-2,0,0,0,0,-1,-2,-1,2021-08-07 11:49:25.928359
-3,-2,-3,-10,-10,-4,-3,-1,2021-08-07 11:49:25.929361
-3,-1,-3,-2,-4,-5,-5,-2,2021-08-07 11:49:25.929361
-1,-2,-1,-3,0,-1,-2,0,2021-08-07 11:49:25.951358
2,1,5,6,8,3,0,0,2021-08-07 11:49:25.951358
-2,-2,-3,-4,-2,-3,-2,-2,2021-08-07 11:49:25.952362
0,-1,-1,1,1,1,1,-2,2021-08-07 11:49:25.952362
-1,-4,-4,-8,-9,-6,-2,-1,2021-08-07 11:49:25.973360
-1,-1,-4,-3,-1,-2,0,-2,2021-08-07 11:49:25.973360
0,-1,0,2,0,-1,-1,-1,2021-08-07 11:49:25.974361
-1,-3,-3,-3,-3,-1,-1,0,2021-08-07 11:49:25.974361
0,0,1,1,2,-2,2,1,2021-08-07 11:49:25.988359
0,-1,-1,1,-2,-1,0,0,2021-08-07 11:49:25.988359
-1,-1,-4,-6,-7,-4,-2,-1,2021-08-07 11:49:25.989360
0,0,-1,-1,5,2,3,-1,2021-08-07 11:49:25.989360
0,-1,0,5,5,2,0,-2,2021-08-07 11:49:26.011360
-2,-3,-3,-4,-5,-2,-2,0,2021-08-07 11:49:26.011360
-2,-2,-2,0,-3,-1,-1,-2,2021-08-07 11:49:26.012359
1,2,2,-1,-2,-1,-2,1,2021-08-07 11:49:26.012359
1,0,3,6,9,4,2,0,2021-08-07 11:49:26.034359
1,0,3,6,2,4,0,-1,2021-08-07 11:49:26.034590
-2,-4,-2,-3,-4,-3,-1,-3,2021-08-07 11:49:26.034590
0,-1,-1,1,3,1,0,-2,2021-08-07 11:49:26.035360
-1,-1,0,0,-2,0,1,0,2021-08-07 11:49:26.048358
-3,-1,-3,-4,-4,-3,-1,0,2021-08-07 11:49:26.048358
0,-1,-3,-9,-8,-2,-1,-1,2021-08-07 11:49:26.049360
0,0,1,6,7,0,1,0,2021-08-07 11:49:26.049360
-1,-2,-3,-3,1,0,-3,-2,2021-08-07 11:49:26.071359
-3,-2,0,-1,-1,-2,-1,-2,2021-08-07 11:49:26.071359
-1,-2,-2,-2,-2,-1,-1,1,2021-08-07 11:49:26.077358
1,1,0,-3,-5,-2,0,1,2021-08-07 11:49:26.077358
-2,-1,-5,-5,-4,-3,-2,-2,2021-08-07 11:49:26.093358
1,0,2,6,5,2,1,0,2021-08-07 11:49:26.094360
0,-1,-1,3,2,0,0,1,2021-08-07 11:49:26.095363
-1,-1,-1,-1,-2,0,-1,1,2021-08-07 11:49:26.095363
1,2,1,7,3,0,1,3,2021-08-07 11:49:26.107358
-1,-4,-3,-8,-7,-4,-1,-3,2021-08-07 11:49:26.107358
0,1,0,1,2,-1,-1,-1,2021-08-07 11:49:26.116359
-4,-3,-4,-7,-5,-3,-2,-2,2021-08-07 11:49:26.116359
1,0,1,1,0,0,0,-1,2021-08-07 11:49:26.131358
0,0,-1,1,1,-1,-1,-1,2021-08-07 11:49:26.131358
1,0,-1,2,1,1,0,0,2021-08-07 11:49:26.133362
-3,-3,-4,-4,-5,-4,-2,-1,2021-08-07 11:49:26.133362
-2,-1,1,1,-1,0,-1,-3,2021-08-07 11:49:26.153358
0,-1,0,2,3,0,0,0,2021-08-07 11:49:26.154359
0,-2,-3,-4,-2,-2,0,0,2021-08-07 11:49:26.155362
-1,-3,-5,-9,-8,-4,-2,-4,2021-08-07 11:49:26.155362
0,1,4,4,2,1,-1,0,2021-08-07 11:49:26.167358
1,1,1,3,3,1,1,1,2021-08-07 11:49:26.167358
-2,-2,-3,-2,-3,-1,-2,-2,2021-08-07 11:49:26.176358
0,-1,0,1,-2,-1,0,-1,2021-08-07 11:49:26.176358
-1,0,-2,-6,-2,-1,-1,-1,2021-08-07 11:49:26.191357
-1,0,-1,-4,-4,-2,-2,-1,2021-08-07 11:49:26.191357
-2,0,1,4,5,2,1,-1,2021-08-07 11:49:26.193362
-2,-4,-5,-6,-5,-4,-3,-2,2021-08-07 11:49:26.193362
3,2,6,17,15,7,4,2,2021-08-07 11:49:26.214358
-3,-3,-2,-8,-8,-4,-1,-2,2021-08-07 11:49:26.214358
0,1,1,7,5,2,1,-1,2021-08-07 11:49:26.216359
-1,1,-3,1,-2,-1,-1,0,2021-08-07 11:49:26.216359
-3,-4,-5,-11,-9,-6,-3,-3,2021-08-07 11:49:26.227361
-1,0,-3,-7,-4,-1,-2,-1,2021-08-07 11:49:26.228359
-2,-1,0,6,9,2,0,-1,2021-08-07 11:49:26.236361
0,0,1,-1,0,0,-1,0,2021-08-07 11:49:26.236361
-2,-3,-5,-7,-7,-4,-2,-1,2021-08-07 11:49:26.251359
0,-1,-1,0,-2,-2,0,0,2021-08-07 11:49:26.251359
-2,-3,-2,-6,-6,-2,-3,-1,2021-08-07 11:49:26.257359
-1,-4,-1,-6,0,1,-1,-1,2021-08-07 11:49:26.258360
-2,-1,-3,4,0,0,-1,0,2021-08-07 11:49:26.274359
1,1,0,-1,0,0,-1,0,2021-08-07 11:49:26.274359
0,0,0,-4,-5,-5,-2,0,2021-08-07 11:49:26.275359
-3,0,-3,-3,-1,-2,-1,-1,2021-08-07 11:49:26.275359
-1,-2,-1,-2,-1,-1,-1,-2,2021-08-07 11:49:26.287359
1,-1,-1,1,-1,0,0,1,2021-08-07 11:49:26.287359
0,0,0,-3,-6,-2,-2,1,2021-08-07 11:49:26.296360
1,1,1,10,15,5,0,-2,2021-08-07 11:49:26.296360
-2,-3,-2,-7,-8,-3,-2,-1,2021-08-07 11:49:26.311360
-3,-3,-2,-2,1,0,-1,-3,2021-08-07 11:49:26.311360
1,0,0,3,1,1,0,0,2021-08-07 11:49:26.313360
0,-1,-1,-2,-8,-5,0,1,2021-08-07 11:49:26.313360
1,0,-1,-3,0,-2,-1,-1,2021-08-07 11:49:26.334358
-1,-1,-1,1,0,-2,-1,-1,2021-08-07 11:49:26.334358
-2,0,-1,-6,-5,-3,-1,-2,2021-08-07 11:49:26.340359
2,1,2,3,1,2,0,-1,2021-08-07 11:49:26.340359
-2,-1,1,2,2,0,-1,0,2021-08-07 11:49:26.347358
0,0,0,0,0,-2,1,0,2021-08-07 11:49:26.347358
-1,-1,-2,-1,1,2,-1,0,2021-08-07 11:49:26.356359
-2,0,-1,2,-2,-1,0,-2,2021-08-07 11:49:26.356359
0,1,-3,-2,-2,-1,1,-1,2021-08-07 11:49:26.371356
-1,0,-2,-3,0,-2,-1,1,2021-08-07 11:49:26.371356
0,-2,-3,-7,-1,-2,-1,-2,2021-08-07 11:49:26.373359
0,2,3,9,1,-1,0,2,2021-08-07 11:49:26.373359
0,-2,0,4,6,2,-1,-1,2021-08-07 11:49:26.394362
-3,-3,-1,-2,-2,-1,-1,0,2021-08-07 11:49:26.394362
0,-1,-3,-9,-11,-5,-2,-1,2021-08-07 11:49:26.395362
-1,-1,-1,-1,-1,2,0,0,2021-08-07 11:49:26.395362
-2,0,1,2,7,3,-1,0,2021-08-07 11:49:26.407359
0,1,0,4,2,1,-1,-1,2021-08-07 11:49:26.407359
-1,-3,-1,-2,-4,-3,-3,-1,2021-08-07 11:49:26.416359
0,-1,-2,-3,-5,-3,-2,-1,2021-08-07 11:49:26.416359
-3,-3,-3,-8,-12,-5,-2,-3,2021-08-07 11:49:26.446359
-1,-3,-1,1,0,0,-1,-1,2021-08-07 11:49:26.446359
-2,-2,-3,-3,-2,-1,-1,-1,2021-08-07 11:49:26.448362
1,2,4,6,8,4,2,1,2021-08-07 11:49:26.448362
0,-2,-2,0,-2,-1,-2,0,2021-08-07 11:49:26.454360
0,-1,0,1,1,0,-1,-2,2021-08-07 11:49:26.454360
-2,-1,-2,-1,-2,-2,0,-2,2021-08-07 11:49:26.455359
-5,-5,-10,-20,-15,-8,-5,-6,2021-08-07 11:49:26.455359
2,5,8,12,12,5,3,2,2021-08-07 11:49:26.476358
-2,-3,-3,-4,-6,-3,-2,-2,2021-08-07 11:49:26.476358
1,1,2,11,8,4,1,1,2021-08-07 11:49:26.478359
-1,-4,-2,-4,-2,-2,-3,-2,2021-08-07 11:49:26.478359
-1,-2,-4,-11,-11,-5,-2,-2,2021-08-07 11:49:26.490358
-1,1,1,1,2,0,-1,-1,2021-08-07 11:49:26.490358
-1,-2,-1,2,6,1,-1,-2,2021-08-07 11:49:26.499359
0,1,-1,4,1,1,0,2,2021-08-07 11:49:26.499359
-1,-1,-4,-3,-5,-2,-2,-3,2021-08-07 11:49:26.513358
-2,0,0,2,2,-1,-2,-1,2021-08-07 11:49:26.514358
-3,-3,-2,-8,-8,-2,-1,-3,2021-08-07 11:49:26.515359
2,2,4,5,8,3,2,2,2021-08-07 11:49:26.515359
-1,-3,-5,-6,-2,0,0,-3,2021-08-07 11:49:26.536359
2,0,1,5,4,5,4,2,2021-08-07 11:49:26.536359
0,0,0,2,0,0,1,1,2021-08-07 11:49:26.538359
-2,-1,1,0,-4,-5,-6,-4,2021-08-07 11:49:26.538359
-5,-5,-8,-17,-19,-14,-10,-6,2021-08-07 11:49:26.551358
-1,-1,0,6,6,2,1,0,2021-08-07 11:49:26.551358
4,4,5,13,11,7,6,3,2021-08-07 11:49:26.553358
0,-2,-2,0,2,1,0,0,2021-08-07 11:49:26.553358
1,0,2,-3,-3,0,3,0,2021-08-07 11:49:26.574362
-1,0,-4,-8,-7,-1,0,-2,2021-08-07 11:49:26.574362
1,-1,-1,-6,-3,-1,-2,-1,2021-08-07 11:49:26.575360
-3,-3,-3,-2,-5,-5,0,-2,2021-08-07 11:49:26.575360
3,1,2,7,4,5,7,5,2021-08-07 11:49:26.596360
4,2,-1,-6,1,7,10,6,2021-08-07 11:49:26.596360
0,0,-3,-4,-6,-2,-9,-4,2021-08-07 11:49:26.598359
-16,-11,-5,3,9,-19,-25,-19,2021-08-07 11:49:26.598359
-7,-6,-5,-8,-7,-7,-9,-7,2021-08-07 11:49:26.611359
2,1,3,9,2,5,8,5,2021-08-07 11:49:26.611359
5,3,3,5,3,9,10,7,2021-08-07 11:49:26.613360
6,3,1,-3,-3,2,2,3,2021-08-07 11:49:26.613360
-6,-6,-7,-6,-10,-11,-10,-7,2021-08-07 11:49:26.633360
-1,-1,1,1,-1,-4,-3,-3,2021-08-07 11:49:26.633360
-1,-2,-3,-2,-1,-2,1,1,2021-08-07 11:49:26.641358
8,7,3,4,0,11,13,8,2021-08-07 11:49:26.641358
2,2,0,6,21,11,5,4,2021-08-07 11:49:26.656359
-2,-4,-3,-1,-5,-5,-3,-3,2021-08-07 11:49:26.656359
-6,-5,-4,-6,-10,-7,-6,-4,2021-08-07 11:49:26.658359
-1,-1,0,5,3,3,0,-1,2021-08-07 11:49:26.658359
-1,3,2,1,2,1,0,-1,2021-08-07 11:49:26.670359
-5,-4,-2,-7,-11,-9,-12,-6,2021-08-07 11:49:26.671361
-4,-2,2,2,4,-9,-7,-5,2021-08-07 11:49:26.677359
-1,-1,-4,-5,-7,-2,1,1,2021-08-07 11:49:26.677359
1,1,1,-1,-3,4,4,3,2021-08-07 11:49:26.694360
1,1,0,2,4,2,0,2,2021-08-07 11:49:26.694360
3,2,-1,-4,-1,4,7,1,2021-08-07 11:49:26.695359
11,7,5,1,7,12,10,9,2021-08-07 11:49:26.695359
-11,-13,-9,-12,-14,-16,-12,-9,2021-08-07 11:49:26.716359
-4,-1,4,14,20,8,1,-4,2021-08-07 11:49:26.717360
-3,-4,-7,-6,-12,-14,-18,-6,2021-08-07 11:49:26.718359
-2,-2,-1,4,12,25,46,13,2021-08-07 11:49:26.718359
32,20,13,24,38,63,38,35,2021-08-07 11:49:26.730360
8,7,3,-6,-25,-67,-71,-29,2021-08-07 11:49:26.730360
-69,-42,-28,-33,-42,-45,-40,-57,2021-08-07 11:49:26.756358
10,4,0,-5,0,41,41,31,2021-08-07 11:49:26.756358
18,8,2,-2,3,20,16,9,2021-08-07 11:49:26.756358
-12,-5,0,3,0,-18,-13,-16,2021-08-07 11:49:26.757359
49,23,10,9,12,13,2,37,2021-08-07 11:49:26.760359
21,3,1,0,-3,-4,-11,-3,2021-08-07 11:49:26.760359
-54,-13,1,11,5,-6,18,-22,2021-08-07 11:49:26.777362
-17,-11,-4,-6,6,32,44,19,2021-08-07 11:49:26.777362
15,7,5,6,9,0,2,1,2021-08-07 11:49:26.778361
3,-9,-6,-7,-9,-16,-19,-7,2021-08-07 11:49:26.778361
11,2,-2,-7,-9,-7,-10,10,2021-08-07 11:49:26.790360
2,4,7,13,12,9,5,0,2021-08-07 11:49:26.790360
13,9,2,4,7,35,37,25,2021-08-07 11:49:26.805359
39,23,12,6,5,-5,-19,9,2021-08-07 11:49:26.805359
-59,-34,-21,-10,-29,-72,-77,-69,2021-08-07 11:49:26.814358
-6,-4,-5,3,16,12,4,4,2021-08-07 11:49:26.814358
5,3,1,0,1,1,14,13,2021-08-07 11:49:26.815358
-15,-6,-8,-8,-10,-3,2,-4,2021-08-07 11:49:26.815358
0,-4,-5,-10,-11,-14,-7,-4,2021-08-07 11:49:26.836361
1,2,-3,-9,-7,15,15,7,2021-08-07 11:49:26.837359
26,17,12,18,26,37,25,20,2021-08-07 11:49:26.838361
-30,-16,-14,-25,-35,-39,-31,-28,2021-08-07 11:49:26.838361
2,1,5,14,1,-3,-1,2,2021-08-07 11:49:26.850361
17,4,-2,-6,4,20,15,15,2021-08-07 11:49:26.850361
-9,-3,3,4,5,-8,-10,-13,2021-08-07 11:49:26.859358
-26,-12,-4,-8,-11,-22,-16,-19,2021-08-07 11:49:26.859358
20,11,10,14,19,23,17,19,2021-08-07 11:49:26.874359
13,6,2,3,3,6,6,5,2021-08-07 11:49:26.874359
-24,-13,-13,-34,-54,-37,-22,-24,2021-08-07 11:49:26.875359
-14,-7,-5,-4,-11,-6,-4,-7,2021-08-07 11:49:26.875359
21,9,4,5,35,28,16,19,2021-08-07 11:49:26.896358
-2,0,6,21,27,-2,-7,-7,2021-08-07 11:49:26.896358
-13,-8,-1,0,-3,-7,-5,-8,2021-08-07 11:49:26.898359
4,3,2,-2,-3,6,6,5,2021-08-07 11:49:26.898359
5,5,4,-10,-31,-15,-7,0,2021-08-07 11:49:26.911360
-1,-4,-9,-11,-16,1,1,-1,2021-08-07 11:49:26.911360
-4,-4,-3,2,37,18,10,4,2021-08-07 11:49:26.919361
-8,-5,-7,-10,-24,-26,-20,-13,2021-08-07 11:49:26.919361
0,1,1,2,12,1,-2,-1,2021-08-07 11:49:26.933358
-2,1,-1,-7,-11,-6,-2,0,2021-08-07 11:49:26.934360
9,5,3,1,7,13,10,8,2021-08-07 11:49:26.935360
-1,1,6,33,38,13,4,0,2021-08-07 11:49:26.935360
-7,-7,-5,-12,-19,-10,-5,-6,2021-08-07 11:49:26.956361
4,-1,-1,-2,0,3,3,2,2021-08-07 11:49:26.956361
-3,-1,0,-8,-23,-10,-6,-4,2021-08-07 11:49:26.958360
-10,-8,-8,-19,-18,-11,-6,-5,2021-08-07 11:49:26.958360
7,0,0,-5,2,12,7,7,2021-08-07 11:49:26.970359
14,16,22,57,66,29,14,10,2021-08-07 11:49:26.970359
-9,-4,-1,10,-1,-14,-12,-9,2021-08-07 11:49:26.979359
-2,-1,-1,-10,-9,-1,0,-2,2021-08-07 11:49:26.979359
5,2,-3,-7,-5,-2,2,5,2021-08-07 11:49:26.993359
-8,-8,-9,-27,-31,-16,-8,-7,2021-08-07 11:49:26.994359
-1,0,-2,4,3,0,-1,-1,2021-08-07 11:49:26.995358
0,-2,-5,-14,-10,0,2,2,2021-08-07 11:49:26.995358
1,0,1,5,3,1,-1,-1,2021-08-07 11:49:27.016360
-6,-3,2,-3,-20,-12,-6,-5,2021-08-07 11:49:27.016360
2,2,8,17,8,3,0,1,2021-08-07 11:49:27.018361
7,6,5,25,26,16,9,8,2021-08-07 11:49:27.018361
-7,-13,-20,-30,-14,-9,-4,-7,2021-08-07 11:49:27.030359
-15,-15,-18,-52,-43,-24,-15,-11,2021-08-07 11:49:27.030359
1,1,-2,13,8,4,2,3,2021-08-07 11:49:27.039359
2,3,5,9,6,4,2,0,2021-08-07 11:49:27.039359
3,2,8,24,14,2,0,1,2021-08-07 11:49:27.061360
-2,-3,-2,0,0,-1,-2,-1,2021-08-07 11:49:27.061360
-2,-1,3,-6,-11,-3,-3,-1,2021-08-07 11:49:27.063359
2,2,8,14,16,5,-1,-1,2021-08-07 11:49:27.063359
2,1,-2,-1,-11,-6,-1,-1,2021-08-07 11:49:27.076357
-4,-4,-7,-15,-15,-6,-4,-1,2021-08-07 11:49:27.076357
-5,-7,-7,-11,-13,-6,-6,-6,2021-08-07 11:49:27.078358
5,7,9,23,39,18,7,3,2021-08-07 11:49:27.078358
-2,-2,0,-4,-9,-4,0,-3,2021-08-07 11:49:27.090359
0,-1,-4,-4,-9,-3,-1,0,2021-08-07 11:49:27.090359
0,-1,-1,1,6,0,0,-2,2021-08-07 11:49:27.099364
-1,-2,-3,-8,-11,-2,-1,0,2021-08-07 11:49:27.099364
0,-1,-2,-2,5,0,0,-1,2021-08-07 11:49:27.114357
3,2,4,17,9,3,3,1,2021-08-07 11:49:27.114357
-1,-1,-5,-10,-10,-2,-2,-3,2021-08-07 11:49:27.115360
-5,-6,-5,-13,-16,-8,-5,-4,2021-08-07 11:49:27.116360
2,2,4,3,2,1,3,2,2021-08-07 11:49:27.136359
-3,0,-1,0,3,-3,-1,-2,2021-08-07 11:49:27.136359
-3,0,-4,-3,-7,-2,0,-1,2021-08-07 11:49:27.138359
-2,-1,-2,1,-6,-3,-3,-2,2021-08-07 11:49:27.138359
0,-2,3,2,8,3,-1,-1,2021-08-07 11:49:27.150361
0,-1,-1,1,-8,-2,-2,0,2021-08-07 11:49:27.150361
0,-1,1,-4,0,1,-1,-1,2021-08-07 11:49:27.159360
-2,-4,-6,-12,-11,-6,-3,-2,2021-08-07 11:49:27.159360
0,2,3,14,5,0,-2,0,2021-08-07 11:49:27.174359
2,2,3,3,1,2,2,0,2021-08-07 11:49:27.174359
0,0,4,12,18,6,3,2,2021-08-07 11:49:27.175360
-2,-3,-3,-11,-12,-4,-2,-2,2021-08-07 11:49:27.175360
-2,-1,-3,-4,-12,-7,-3,-2,2021-08-07 11:49:27.196358
0,-1,-1,4,7,4,0,1,2021-08-07 11:49:27.196358
-2,-2,0,10,8,1,-1,-2,2021-08-07 11:49:27.198358
0,0,-2,-3,1,-2,-1,-1,2021-08-07 11:49:27.198358
-4,-3,-6,-19,-25,-13,-7,-4,2021-08-07 11:49:27.210360
3,6,11,29,19,9,4,2,2021-08-07 11:49:27.210360
0,0,-3,2,0,-1,1,2,2021-08-07 11:49:27.219360
-5,-6,-10,-28,-29,-8,-4,-4,2021-08-07 11:49:27.219360
-2,0,5,22,41,10,1,1,2021-08-07 11:49:27.233357
-3,-2,-3,-2,-6,-2,-1,-2,2021-08-07 11:49:27.234359
0,-2,-1,-6,1,-1,0,0,2021-08-07 11:49:27.235359
0,-1,1,6,1,-1,0,1,2021-08-07 11:49:27.235359
-4,-2,-9,-24,-35,-11,-5,-2,2021-08-07 11:49:27.264359
-3,-3,-6,-9,-6,-6,-4,-3,2021-08-07 11:49:27.264359
2,5,6,14,20,9,3,1,2021-08-07 11:49:27.265361
1,0,0,5,2,1,0,0,2021-08-07 11:49:27.265361
1,1,-2,-7,-4,0,0,0,2021-08-07 11:49:27.270363
-3,-3,-3,-7,-6,-4,-4,-2,2021-08-07 11:49:27.270363
-3,-5,-8,-20,-15,-7,-3,-5,2021-08-07 11:49:27.279359
0,3,7,17,17,5,3,3,2021-08-07 11:49:27.279359
-4,-2,4,-4,-4,-4,-2,-2,2021-08-07 11:49:27.293359
-3,-6,-14,-21,-27,-12,-4,-4,2021-08-07 11:49:27.294358
6,5,10,25,37,15,6,4,2021-08-07 11:49:27.295359
-3,-2,-7,-1,5,1,0,-2,2021-08-07 11:49:27.295359
1,2,1,8,7,3,1,1,2021-08-07 11:49:27.316359
-2,0,-1,-9,-11,-5,-2,-1,2021-08-07 11:49:27.316359
0,0,2,-2,-5,-2,0,1,2021-08-07 11:49:27.318360
0,0,2,2,8,2,0,0,2021-08-07 11:49:27.318360
2,5,5,14,14,7,2,-1,2021-08-07 11:49:27.330359
-1,-1,-4,-13,-18,-7,-4,-3,2021-08-07 11:49:27.330359
-2,0,1,12,7,3,0,1,2021-08-07 11:49:27.339359
-1,-2,-2,1,-7,-1,-1,-1,2021-08-07 11:49:27.339359
-4,-6,-11,-21,-17,-7,-5,-3,2021-08-07 11:49:27.354362
-2,-3,-1,-4,6,2,0,0,2021-08-07 11:49:27.354362
-1,-1,-3,-10,-15,-7,-2,-2,2021-08-07 11:49:27.355360
0,1,5,12,9,4,2,-2,2021-08-07 11:49:27.355360
2,0,-1,4,10,4,3,1,2021-08-07 11:49:27.376363
-1,-3,-2,-3,-5,-2,-1,-1,2021-08-07 11:49:27.376363
-4,-5,-8,-21,-18,-8,-5,-2,2021-08-07 11:49:27.378359
-2,-1,3,8,4,-2,-3,-1,2021-08-07 11:49:27.378359
-1,-1,-4,-5,-13,-6,-3,-1,2021-08-07 11:49:27.399358
2,2,4,13,16,7,1,2,2021-08-07 11:49:27.399358
-1,-2,-7,-9,-8,-2,0,-1,2021-08-07 11:49:27.400357
-2,-2,-4,-9,-8,-6,-3,-1,2021-08-07 11:49:27.400357
1,2,6,4,2,2,0,2,2021-08-07 11:49:27.414362
1,2,5,20,20,5,3,1,2021-08-07 11:49:27.414362
-5,-5,-7,-15,-22,-9,-5,-5,2021-08-07 11:49:27.415360
2,2,2,9,27,12,2,1,2021-08-07 11:49:27.415360
0,-2,1,-3,-2,0,-2,0,2021-08-07 11:49:27.436359
0,0,-4,2,0,-2,-1,-1,2021-08-07 11:49:27.437360
0,0,-1,0,-3,-2,0,1,2021-08-07 11:49:27.438359
2,2,5,9,0,-2,1,1,2021-08-07 11:49:27.438359
-1,0,4,0,0,1,1,-1,2021-08-07 11:49:27.459361
-2,-4,-13,-16,-5,1,-1,0,2021-08-07 11:49:27.459361
-2,-6,-9,-14,-9,-3,-4,-3,2021-08-07 11:49:27.460359
-2,0,-3,-9,-1,0,-2,0,2021-08-07 11:49:27.460359
-4,-3,0,4,-7,-5,-3,-2,2021-08-07 11:49:27.474365
1,1,4,-6,4,2,0,1,2021-08-07 11:49:27.474365
5,7,13,27,19,9,4,3,2021-08-07 11:49:27.475360
0,-1,-1,-8,3,-3,0,1,2021-08-07 11:49:27.475360
-2,-4,-7,-14,-16,-7,-3,-4,2021-08-07 11:49:27.496356
1,2,7,12,10,4,2,1,2021-08-07 11:49:27.496356
-1,-1,-2,1,5,-1,-1,-1,2021-08-07 11:49:27.498358
-3,-4,-4,-10,-5,-3,-1,-2,2021-08-07 11:49:27.498358
-1,-4,-7,-6,-4,-3,-2,1,2021-08-07 11:49:27.518358
-1,-5,-6,-19,-24,-10,-4,-1,2021-08-07 11:49:27.519360
0,-2,-1,-5,-4,1,0,0,2021-08-07 11:49:27.520359
1,2,7,21,21,9,3,3,2021-08-07 11:49:27.520359
-5,-5,-7,-8,-8,-4,-3,-5,2021-08-07 11:49:27.541359
-7,-6,-4,-4,2,0,-4,-7,2021-08-07 11:49:27.541359
4,7,15,23,14,3,1,3,2021-08-07 11:49:27.543359
-2,-2,-5,-4,-19,-8,-5,-4,2021-08-07 11:49:27.543359
-3,-5,-10,-18,-14,-5,-2,0,2021-08-07 11:49:27.556359
4,3,4,13,21,8,4,4,2021-08-07 11:49:27.556359
-1,-1,1,4,3,0,1,0,2021-08-07 11:49:27.558358
-1,0,-2,-7,-8,-2,-2,-1,2021-08-07 11:49:27.558358
0,1,0,7,2,0,0,-3,2021-08-07 11:49:27.579363
-2,-1,-1,-5,-7,-3,-3,-2,2021-08-07 11:49:27.579363
-3,-4,-6,-1,-5,-3,-3,-1,2021-08-07 11:49:27.580360
2,0,-2,-5,1,0,-1,0,2021-08-07 11:49:27.580360
-1,-3,-1,0,1,1,0,0,2021-08-07 11:49:27.593360
-1,0,0,1,-1,-1,0,-1,2021-08-07 11:49:27.593360
1,3,8,18,20,7,2,2,2021-08-07 11:49:27.600360
-4,-3,-4,-9,-20,-10,-5,-5,2021-08-07 11:49:27.600360
0,1,-2,3,10,5,0,0,2021-08-07 11:49:27.616361
-2,-1,1,6,2,-1,-1,-2,2021-08-07 11:49:27.616361
-1,-1,-1,3,2,1,-1,0,2021-08-07 11:49:27.618359
-1,-1,-2,-6,-12,-5,0,0,2021-08-07 11:49:27.618359
-1,-1,-2,1,1,-1,-2,-1,2021-08-07 11:49:27.639360
-1,-3,-5,-13,-16,-6,-4,-2,2021-08-07 11:49:27.639360
0,-2,-1,-3,-3,-1,-2,-3,2021-08-07 11:49:27.640360
-2,-1,-1,-1,-3,-1,-1,-1,2021-08-07 11:49:27.640360
2,1,2,8,5,2,1,0,2021-08-07 11:49:27.653359
-1,0,0,1,9,4,1,1,2021-08-07 11:49:27.653359
-3,-5,-10,-19,-18,-11,-4,-5,2021-08-07 11:49:27.660361
1,0,-1,-4,1,0,-3,-1,2021-08-07 11:49:27.660361
0,0,3,6,5,1,-1,0,2021-08-07 11:49:27.676357
0,-1,-4,-2,-2,-1,0,-1,2021-08-07 11:49:27.676357
-1,-2,-4,-4,-11,-4,-1,-1,2021-08-07 11:49:27.678358
0,-2,0,-1,6,2,-1,-1,2021-08-07 11:49:27.678358
1,2,4,12,8,2,2,0,2021-08-07 11:49:27.698360
-4,-6,-9,-25,-29,-14,-6,-2,2021-08-07 11:49:27.699360
0,2,-1,-6,-1,2,0,1,2021-08-07 11:49:27.700359
5,7,9,32,54,19,9,5,2021-08-07 11:49:27.700359
0,-2,-3,-11,-11,-5,-3,-2,2021-08-07 11:49:27.713359
-1,1,5,10,7,3,-1,0,2021-08-07 11:49:27.714360
-3,-7,-10,-35,-37,-16,-6,-4,2021-08-07 11:49:27.720359
-3,-4,-4,-3,-6,-3,-2,-2,2021-08-07 11:49:27.720359
-1,-1,0,6,10,3,0,0,2021-08-07 11:49:27.736359
1,-2,-3,-10,-14,-7,-3,-3,2021-08-07 11:49:27.736359
-2,-2,-1,4,4,2,-2,-3,2021-08-07 11:49:27.738359
-5,-3,-3,-6,-6,-3,-4,-2,2021-08-07 11:49:27.738359
