EMG 1,EMG 2,EMG 3,EMG 4,EMG 5,EMG 6,EMG 7,EMG 8,Timestamp,Milliseconds
-1,-1,0,3,4,-1,-2,-3,2021-08-07 11:50:01,306544
0,-1,-3,-6,-7,-5,-1,-2,2021-08-07 11:50:01,306544
0,-1,-2,-2,0,0,0,0,2021-08-07 11:50:01,306544
-2,-1,-1,-3,-7,-5,-4,-3,2021-08-07 11:50:01,306544
-1,-2,-1,-5,-5,-1,-1,-1,2021-08-07 11:50:01,306544
-2,-1,0,0,-1,0,0,-1,2021-08-07 11:50:01,306544
-1,-1,-3,-7,-10,-4,0,-1,2021-08-07 11:50:01,306544
2,2,4,8,10,3,1,0,2021-08-07 11:50:01,306544
-1,-2,-2,1,-2,0,-2,-1,2021-08-07 11:50:01,322544
1,1,0,-7,-2,-1,-1,-1,2021-08-07 11:50:01,322544
-1,-1,1,5,5,4,2,0,2021-08-07 11:50:01,322544
-4,-4,-6,-12,-10,-6,-4,-3,2021-08-07 11:50:01,322544
-2,-1,3,12,15,1,-4,-4,2021-08-07 11:50:01,338544
-2,-1,-1,-2,-2,-2,-2,-1,2021-08-07 11:50:01,338544
1,3,2,4,6,3,2,0,2021-08-07 11:50:01,338544
-2,-1,-3,-13,-16,-7,-3,-2,2021-08-07 11:50:01,338544
-1,0,0,-2,1,2,1,1,2021-08-07 11:50:01,354542
-1,-1,0,7,4,1,0,0,2021-08-07 11:50:01,354542
-2,-2,0,0,-2,0,-1,-3,2021-08-07 11:50:01,385545
-1,-3,-4,-6,-2,-3,-1,-3,2021-08-07 11:50:01,401542
-2,-1,-3,-10,-8,-4,-2,-2,2021-08-07 11:50:01,401542
0,-1,3,7,2,2,1,1,2021-08-07 11:50:01,401542
-1,-1,1,1,-1,-2,-1,1,2021-08-07 11:50:01,401542
0,-2,-3,-2,-5,-3,-2,-2,2021-08-07 11:50:01,401542
-1,-2,-3,-7,-10,-5,-1,2,2021-08-07 11:50:01,401542
0,0,1,3,13,5,1,-1,2021-08-07 11:50:01,402544
-1,-2,-1,-4,3,1,0,-3,2021-08-07 11:50:01,433544
-1,-1,-2,0,-2,-2,-1,-2,2021-08-07 11:50:01,433544
-1,1,2,0,2,0,2,0,2021-08-07 11:50:01,433544
0,0,1,-3,-5,-3,-1,-1,2021-08-07 11:50:01,433544
1,0,2,-3,-4,-2,-2,1,2021-08-07 11:50:01,433544
-2,-3,-4,-2,1,-1,-2,-1,2021-08-07 11:50:01,433544
-1,-5,-5,-2,-2,-2,-2,-3,2021-08-07 11:50:01,434544
2,2,1,-2,1,1,0,1,2021-08-07 11:50:01,434544
0,2,1,3,3,1,1,1,2021-08-07 11:50:01,449544
-1,-1,1,2,1,1,0,-3,2021-08-07 11:50:01,449544
-2,-1,-4,-5,-8,-5,-3,-2,2021-08-07 11:50:01,449544
0,0,-4,-10,-8,-1,0,1,2021-08-07 11:50:01,449544
-1,-1,1,14,11,3,0,0,2021-08-07 11:50:01,465542
1,4,3,8,12,5,3,1,2021-08-07 11:50:01,465542
0,0,1,1,0,0,-1,-1,2021-08-07 11:50:01,481543
-1,-2,-1,-2,-7,-4,-2,-1,2021-08-07 11:50:01,496544
-3,-5,-7,-14,-16,-8,-5,-4,2021-08-07 11:50:01,499545
0,0,1,-3,-3,0,-2,2,2021-08-07 11:50:01,499545
-1,-1,2,8,14,4,2,1,2021-08-07 11:50:01,512543
0,0,0,4,0,-1,-2,0,2021-08-07 11:50:01,512543
-2,-2,-3,0,0,-1,-1,-2,2021-08-07 11:50:01,512543
-4,-4,-5,-3,-8,-6,-3,-3,2021-08-07 11:50:01,512543
0,1,0,-4,-5,-3,-1,-1,2021-08-07 11:50:01,528545
-2,-2,0,2,4,1,-1,-2,2021-08-07 11:50:01,528545
-2,-2,-2,-4,-7,-3,-1,0,2021-08-07 11:50:01,528545
0,-1,-2,-15,-13,-4,-1,1,2021-08-07 11:50:01,528545
1,2,6,14,10,5,-1,2,2021-08-07 11:50:01,544544
-1,0,1,5,9,4,1,-1,2021-08-07 11:50:01,544544
0,-2,0,-2,-4,-2,-1,-3,2021-08-07 11:50:01,544544
-5,-6,-5,-7,-10,-6,-4,-4,2021-08-07 11:50:01,544544
1,2,-2,-15,-5,0,1,2,2021-08-07 11:50:01,576544
-1,0,2,13,13,4,1,-1,2021-08-07 11:50:01,576544
1,0,-3,-6,-3,-1,0,0,2021-08-07 11:50:01,576544
-2,-2,-1,4,3,-1,-1,0,2021-08-07 11:50:01,576544
-3,-5,-6,-13,-14,-7,-3,-5,2021-08-07 11:50:01,576544
-3,0,0,2,5,2,-1,-3,2021-08-07 11:50:01,577547
-1,0,-2,-2,0,0,-2,0,2021-08-07 11:50:01,592544
-1,0,-2,-1,-1,-1,-2,-1,2021-08-07 11:50:01,592544
-1,1,0,1,-1,0,0,0,2021-08-07 11:50:01,607545
0,-1,-1,-4,-3,-2,-1,-2,2021-08-07 11:50:01,623543
-1,0,0,4,3,0,0,0,2021-08-07 11:50:01,623543
0,-1,-1,-3,-1,-1,0,-1,2021-08-07 11:50:01,623543
1,-1,-1,6,3,3,0,1,2021-08-07 11:50:01,623543
0,1,-1,-4,-3,-3,0,-2,2021-08-07 11:50:01,623543
-1,0,-2,-3,-1,-1,0,-2,2021-08-07 11:50:01,623543
0,-1,1,1,-2,0,0,-1,2021-08-07 11:50:01,624547
0,-1,-1,0,2,1,0,0,2021-08-07 11:50:01,654543
-2,-2,-5,-5,-4,-2,0,-1,2021-08-07 11:50:01,654543
0,-1,0,3,1,1,0,1,2021-08-07 11:50:01,654543
0,0,-1,-3,-1,-2,-2,-2,2021-08-07 11:50:01,654543
-1,-2,-3,-4,-8,-3,-2,-3,2021-08-07 11:50:01,686543
0,1,2,3,4,2,0,-1,2021-08-07 11:50:01,702544
2,2,1,1,0,0,-1,0,2021-08-07 11:50:01,718543
0,0,-2,2,0,0,-1,0,2021-08-07 11:50:01,718543
0,-1,0,1,-2,-3,0,-2,2021-08-07 11:50:01,718543
-2,-3,-2,-4,-4,-3,-2,0,2021-08-07 11:50:01,718543
-2,-2,-6,-8,-4,-3,-2,-1,2021-08-07 11:50:01,718543
0,0,2,3,3,0,0,-1,2021-08-07 11:50:01,718543
0,-1,-2,-4,0,0,-2,-2,2021-08-07 11:50:01,719545
-2,1,3,10,1,0,-1,-1,2021-08-07 11:50:01,719545
-3,-3,-2,-3,-2,-1,-2,-3,2021-08-07 11:50:01,719545
0,1,1,-3,-4,-2,-1,-1,2021-08-07 11:50:01,719545
-3,-3,-5,-10,-9,-5,-2,-1,2021-08-07 11:50:01,719545
2,1,2,4,9,3,0,0,2021-08-07 11:50:01,720544
0,0,2,3,0,1,-1,-3,2021-08-07 11:50:01,734545
0,0,0,3,0,0,-1,-2,2021-08-07 11:50:01,750544
-3,-1,0,1,3,-1,-2,-1,2021-08-07 11:50:01,750544
-2,-1,0,-9,-10,-4,-2,0,2021-08-07 11:50:01,750544
-1,1,1,10,12,4,2,0,2021-08-07 11:50:01,750544
-1,-1,-2,-6,-6,-3,-1,-2,2021-08-07 11:50:01,750544
-2,-2,-2,0,-1,-1,-2,-1,2021-08-07 11:50:01,766543
-1,0,-3,-1,-2,-1,0,-3,2021-08-07 11:50:01,782544
0,-1,0,-3,-6,-4,-2,-2,2021-08-07 11:50:01,797544
-3,-2,-1,-1,-1,1,-2,0,2021-08-07 11:50:01,797544
-2,-1,0,1,-1,1,-1,0,2021-08-07 11:50:01,797544
-1,-2,-3,-8,-7,-4,0,-3,2021-08-07 11:50:01,797544
0,0,0,3,-1,-1,-1,-1,2021-08-07 11:50:01,797544
-1,-2,-2,5,7,0,0,-1,2021-08-07 11:50:01,798545
0,1,-3,-6,-6,-1,0,-1,2021-08-07 11:50:01,813544
-3,-5,-6,-7,-9,-5,-3,-4,2021-08-07 11:50:01,829544
1,2,7,18,15,6,1,0,2021-08-07 11:50:01,845546
2,1,4,10,5,3,-1,0,2021-08-07 11:50:01,845546
1,1,2,10,18,7,0,-2,2021-08-07 11:50:01,845546
-2,-3,-4,-9,-10,-5,-4,0,2021-08-07 11:50:01,845546
-3,-4,-7,-19,-14,-5,-1,0,2021-08-07 11:50:01,845546
-2,-2,-2,0,3,0,0,-1,2021-08-07 11:50:01,845546
-1,-2,-2,2,-2,-1,1,-1,2021-08-07 11:50:01,846545
1,-3,-3,-2,-1,-1,0,-1,2021-08-07 11:50:01,846545
-4,-3,-1,-2,-2,0,-1,-2,2021-08-07 11:50:01,846545
-4,-2,-3,-7,-6,-2,-4,-3,2021-08-07 11:50:01,846545
-4,-1,1,0,-1,-2,-2,-2,2021-08-07 11:50:01,877545
1,3,4,4,5,0,0,0,2021-08-07 11:50:01,893545
0,2,0,1,-1,-1,-2,-1,2021-08-07 11:50:01,909544
1,0,0,-7,-5,-3,0,0,2021-08-07 11:50:01,909544
1,-2,-2,-3,-4,-2,-1,0,2021-08-07 11:50:01,909544
2,-3,0,2,2,-1,1,2,2021-08-07 11:50:01,923544
-2,-3,-3,-5,-5,-3,-1,-3,2021-08-07 11:50:01,923544
1,1,0,-1,6,2,1,1,2021-08-07 11:50:01,923544
1,2,0,-1,3,1,3,2,2021-08-07 11:50:01,923544
-4,-3,-2,-1,-5,-2,-4,-2,2021-08-07 11:50:01,924545
3,2,0,2,2,2,2,2,2021-08-07 11:50:01,924545
-3,-1,-2,-5,-4,-1,-1,-1,2021-08-07 11:50:01,924545
-1,-2,-1,-4,-6,-3,-3,-3,2021-08-07 11:50:01,924545
-2,1,-3,-5,0,-2,0,-2,2021-08-07 11:50:01,924545
0,1,-2,-1,-4,-4,-2,-1,2021-08-07 11:50:01,924545
1,0,-1,1,-4,-2,0,0,2021-08-07 11:50:01,924545
1,-2,0,5,5,1,1,1,2021-08-07 11:50:01,941543
-1,-2,0,0,-1,1,-2,-2,2021-08-07 11:50:01,956543
-4,-6,-6,-12,-6,-4,-4,-3,2021-08-07 11:50:01,972543
0,2,0,1,1,0,0,-1,2021-08-07 11:50:01,972543
-3,-4,-3,-5,-7,-6,-2,-2,2021-08-07 11:50:01,972543
1,3,3,3,4,3,0,0,2021-08-07 11:50:01,972543
-2,-2,-1,-5,-6,-4,-3,-3,2021-08-07 11:50:01,972543
0,-2,0,0,-1,-1,0,-2,2021-08-07 11:50:01,972543
2,1,1,3,9,4,2,2,2021-08-07 11:50:01,988542
-4,-6,-7,-14,-12,-5,-3,-1,2021-08-07 11:50:01,988542
3,4,8,15,6,5,2,2,2021-08-07 11:50:01,988542
-2,-3,-1,2,2,-1,-1,-3,2021-08-07 11:50:01,988542
-2,-1,-2,-4,-8,-4,-3,-2,2021-08-07 11:50:02,004544
0,0,0,4,5,3,1,-1,2021-08-07 11:50:02,004544
-2,-2,-4,-8,-2,-2,-4,-3,2021-08-07 11:50:02,004544
0,1,1,5,7,3,1,0,2021-08-07 11:50:02,004544
-1,0,0,-2,-5,-3,-3,-2,2021-08-07 11:50:02,035545
-1,0,-1,-3,-5,-2,0,0,2021-08-07 11:50:02,051543
-2,0,-1,-5,-6,-4,-1,0,2021-08-07 11:50:02,067543
-2,-3,-3,-6,-4,-3,-1,0,2021-08-07 11:50:02,067543
0,1,3,-2,-2,0,-1,1,2021-08-07 11:50:02,067543
0,1,1,5,3,0,-2,-1,2021-08-07 11:50:02,067543
0,-2,-1,6,8,3,0,0,2021-08-07 11:50:02,067543
0,1,1,-5,-3,-2,0,-1,2021-08-07 11:50:02,083544
-1,0,-1,5,1,0,-1,-3,2021-08-07 11:50:02,099544
-3,-3,-2,-6,-5,-4,-2,-2,2021-08-07 11:50:02,099544
2,2,2,6,6,2,3,0,2021-08-07 11:50:02,099544
1,0,1,-3,-5,-2,0,-2,2021-08-07 11:50:02,099544
-2,-2,-1,0,-2,-1,-1,-2,2021-08-07 11:50:02,099544
-1,0,-1,7,3,0,0,-1,2021-08-07 11:50:02,099544
-2,-2,-1,-4,-2,-2,0,-1,2021-08-07 11:50:02,100546
-2,-1,-3,-2,1,0,0,0,2021-08-07 11:50:02,100546
-1,0,1,1,2,1,0,-2,2021-08-07 11:50:02,115544
-2,-1,-2,-2,-2,-1,-3,-2,2021-08-07 11:50:02,130543
-4,-2,-2,-4,-6,-3,-4,-2,2021-08-07 11:50:02,130543
1,1,0,6,4,2,0,0,2021-08-07 11:50:02,130543
0,-1,-1,-2,0,-1,-1,0,2021-08-07 11:50:02,130543
1,-1,1,1,1,1,-1,0,2021-08-07 11:50:02,130543
-1,-1,-1,-2,-1,-2,0,-2,2021-08-07 11:50:02,146543
-2,-2,-3,0,-1,-1,-2,-1,2021-08-07 11:50:02,146543
-2,-1,-2,0,-1,-1,0,-1,2021-08-07 11:50:02,146543
0,0,0,1,1,0,0,0,2021-08-07 11:50:02,146543
-2,-1,-1,-2,-1,-1,0,-1,2021-08-07 11:50:02,146543
0,0,-1,-1,-2,-2,-1,1,2021-08-07 11:50:02,147544
1,-1,0,-1,-1,-1,1,0,2021-08-07 11:50:02,178543
0,0,1,0,0,0,0,-3,2021-08-07 11:50:02,194543
-1,-1,-1,0,-1,0,-2,-2,2021-08-07 11:50:02,226544
0,-1,-1,-1,-3,-1,-1,-1,2021-08-07 11:50:02,226544
1,-1,1,-1,1,-1,-2,0,2021-08-07 11:50:02,226544
-1,-1,-2,0,0,-1,0,0,2021-08-07 11:50:02,226544
0,1,-2,-1,-2,0,-1,-2,2021-08-07 11:50:02,226544
-1,-1,0,-1,0,1,-2,-1,2021-08-07 11:50:02,226544
0,-1,-2,-5,-2,0,1,-2,2021-08-07 11:50:02,227545
0,1,-1,2,1,0,-1,-3,2021-08-07 11:50:02,227545
0,-3,-2,-3,-2,0,0,-1,2021-08-07 11:50:02,227545
1,-1,-1,-1,-1,-3,-1,-2,2021-08-07 11:50:02,227545
-2,-1,-3,-2,-5,-5,-3,-2,2021-08-07 11:50:02,227545
0,-1,4,11,9,5,1,3,2021-08-07 11:50:02,227545
0,-2,-2,-3,-2,-2,-2,-2,2021-08-07 11:50:02,227545
-1,1,-1,-5,-4,0,2,0,2021-08-07 11:50:02,228544
0,0,-1,-1,1,-1,-4,-3,2021-08-07 11:50:02,242543
-1,-1,-2,-5,-6,-3,-3,-1,2021-08-07 11:50:02,242543
0,0,2,2,1,-1,0,1,2021-08-07 11:50:02,273544
-1,1,-2,-1,-1,-2,-1,-1,2021-08-07 11:50:02,273544
-3,-1,-3,-3,-2,-2,-1,-1,2021-08-07 11:50:02,273544
-3,-2,-5,-5,-6,-4,-2,-2,2021-08-07 11:50:02,273544
-2,-4,-2,-4,-4,-1,-2,-2,2021-08-07 11:50:02,273544
2,1,2,6,9,3,2,1,2021-08-07 11:50:02,273544
0,0,0,3,0,1,0,0,2021-08-07 11:50:02,289545
0,-1,2,1,6,1,0,-1,2021-08-07 11:50:02,305544
-1,-1,-4,-4,-5,-1,-1,-1,2021-08-07 11:50:02,305544
-1,-3,-3,-4,-15,-7,-3,-3,2021-08-07 11:50:02,305544
2,1,7,16,25,10,3,1,2021-08-07 11:50:02,305544
-3,-1,-2,-3,-5,-1,-1,-3,2021-08-07 11:50:02,305544
-1,0,-3,-3,0,-2,1,0,2021-08-07 11:50:02,305544
-1,0,1,0,0,-1,0,0,2021-08-07 11:50:02,305544
-3,-1,-3,-9,-10,-5,-2,-4,2021-08-07 11:50:02,336544
-1,-2,-2,-2,-3,-2,-1,-1,2021-08-07 11:50:02,351543
0,-1,0,4,4,1,0,0,2021-08-07 11:50:02,351543
-2,-1,-1,-5,-3,-1,-1,0,2021-08-07 11:50:02,351543
-3,-2,-4,-2,-6,-4,-1,0,2021-08-07 11:50:02,352546
-3,-2,-2,-3,-2,-2,-1,-2,2021-08-07 11:50:02,352546
0,1,2,3,2,1,0,-1,2021-08-07 11:50:02,352546
-1,-2,-2,0,2,0,-2,-1,2021-08-07 11:50:02,352546
-1,-2,-2,-3,0,0,0,1,2021-08-07 11:50:02,383546
0,1,-2,0,-2,-2,0,-1,2021-08-07 11:50:02,383546
-2,-1,-1,-3,-2,-1,-1,-1,2021-08-07 11:50:02,383546
-1,-1,1,0,4,2,0,-2,2021-08-07 11:50:02,383546
-2,-1,-3,0,-3,-2,-1,-2,2021-08-07 11:50:02,383546
0,-2,-3,-6,-5,-1,-2,0,2021-08-07 11:50:02,383546
1,0,1,4,2,1,0,0,2021-08-07 11:50:02,384544
-2,-1,-1,-2,2,-2,-2,-1,2021-08-07 11:50:02,384544
1,-1,-2,-2,-4,-2,-1,0,2021-08-07 11:50:02,415543
0,0,-1,-2,-1,-1,0,1,2021-08-07 11:50:02,430545
-2,-1,-2,-2,-3,-2,-2,0,2021-08-07 11:50:02,430545
0,-1,2,-1,1,0,-2,-1,2021-08-07 11:50:02,430545
0,2,-2,-4,-2,0,0,0,2021-08-07 11:50:02,430545
-1,-1,0,2,2,0,0,-2,2021-08-07 11:50:02,430545
-1,0,0,-2,-1,-1,0,-1,2021-08-07 11:50:02,430545
0,0,-1,0,-1,-1,1,-2,2021-08-07 11:50:02,431546
-1,-2,0,1,0,0,0,0,2021-08-07 11:50:02,461545
1,0,-1,-2,0,-2,-1,1,2021-08-07 11:50:02,477543
-3,-1,1,-1,-2,-1,-1,0,2021-08-07 11:50:02,493544
0,-2,-1,-1,-1,0,-2,-3,2021-08-07 11:50:02,493544
0,-1,0,-2,-1,-1,-2,0,2021-08-07 11:50:02,493544
-2,-2,0,1,0,-2,-2,-1,2021-08-07 11:50:02,493544
0,0,-2,-2,0,-2,-2,0,2021-08-07 11:50:02,493544
-2,-1,-2,-2,-1,1,0,-1,2021-08-07 11:50:02,493544
0,0,0,0,1,1,-1,-1,2021-08-07 11:50:02,493544
-1,-1,-3,0,0,0,0,-1,2021-08-07 11:50:02,494545
-1,-2,-2,-4,-8,-4,-2,-3,2021-08-07 11:50:02,494545
-4,-2,-5,-10,-6,-1,-1,-2,2021-08-07 11:50:02,494545
2,2,4,11,11,5,2,2,2021-08-07 11:50:02,524544
0,0,1,3,6,2,1,0,2021-08-07 11:50:02,524544
0,-1,-2,-1,-1,0,-1,-1,2021-08-07 11:50:02,524544
-2,-2,-2,3,-2,-5,-2,-2,2021-08-07 11:50:02,524544
-3,-2,-2,-7,-7,-4,-2,-1,2021-08-07 11:50:02,524544
2,3,5,8,11,5,1,1,2021-08-07 11:50:02,524544
-2,-2,-3,-2,-1,0,0,-2,2021-08-07 11:50:02,539545
0,-2,-2,0,-1,-2,0,0,2021-08-07 11:50:02,539545
-1,-3,-3,-6,-7,-3,-3,-3,2021-08-07 11:50:02,555544
-3,-5,-4,-6,-6,-3,-4,-3,2021-08-07 11:50:02,555544
2,1,1,2,1,2,1,0,2021-08-07 11:50:02,555544
2,1,0,-1,-2,-1,0,2,2021-08-07 11:50:02,555544
-2,-2,-1,3,1,1,-1,-1,2021-08-07 11:50:02,571545
-3,-3,-3,-5,-5,-4,-2,-2,2021-08-07 11:50:02,586545
-1,2,1,5,6,1,0,1,2021-08-07 11:50:02,601544
-1,-1,-1,0,0,0,-1,0,2021-08-07 11:50:02,617545
0,1,1,-3,-4,-2,-1,0,2021-08-07 11:50:02,617545
-3,-4,-3,-4,-4,-3,-3,-3,2021-08-07 11:50:02,617545
0,-2,0,4,4,-1,-1,0,2021-08-07 11:50:02,617545
3,3,2,0,-1,1,1,1,2021-08-07 11:50:02,617545
1,-2,-2,-1,1,-1,-1,1,2021-08-07 11:50:02,617545
-1,-1,-2,-7,-5,-2,-1,0,2021-08-07 11:50:02,618545
-1,-1,0,-1,-2,-1,2,2,2021-08-07 11:50:02,618545
1,-1,0,5,5,4,3,1,2021-08-07 11:50:02,618545
-4,-1,2,10,7,2,-1,-3,2021-08-07 11:50:02,633544
-4,-1,0,-5,-4,-2,-5,-4,2021-08-07 11:50:02,633544
-3,-2,0,0,-3,-2,-3,-3,2021-08-07 11:50:02,633544
-3,0,0,-1,-2,-1,-2,-1,2021-08-07 11:50:02,633544
0,-1,-5,-8,-7,-5,-1,-1,2021-08-07 11:50:02,665544
2,4,4,6,5,1,0,2,2021-08-07 11:50:02,665544
-1,-1,-3,-10,-8,-3,-1,-1,2021-08-07 11:50:02,665544
0,1,1,-1,-1,-1,-2,1,2021-08-07 11:50:02,665544
2,-1,-2,0,5,0,1,1,2021-08-07 11:50:02,665544
0,0,0,6,1,1,2,0,2021-08-07 11:50:02,665544
0,-4,-2,-4,-2,-3,-2,-1,2021-08-07 11:50:02,666544
-2,-3,-3,-7,-4,-1,0,0,2021-08-07 11:50:02,666544
-2,-3,-3,-3,-3,0,-1,-1,2021-08-07 11:50:02,697542
-1,0,-2,1,0,-1,-2,0,2021-08-07 11:50:02,697542
-3,0,-1,2,0,0,-3,-3,2021-08-07 11:50:02,697542
-1,-1,-1,-5,-7,-4,-2,0,2021-08-07 11:50:02,697542
-2,0,-3,-2,-4,-2,-1,-2,2021-08-07 11:50:02,713543
1,-2,-2,0,6,2,1,-1,2021-08-07 11:50:02,729582
-2,-1,0,2,2,3,-1,-2,2021-08-07 11:50:02,745544
-2,-2,-2,0,2,0,0,-3,2021-08-07 11:50:02,745544
0,1,3,2,-1,2,0,1,2021-08-07 11:50:02,745544
-1,0,-1,-1,-5,-3,-1,-2,2021-08-07 11:50:02,745544
1,0,-2,-6,-8,-2,0,-1,2021-08-07 11:50:02,745544
1,1,1,9,13,4,1,0,2021-08-07 11:50:02,746545
0,-2,-3,-7,-5,-3,0,-3,2021-08-07 11:50:02,761543
-1,0,2,4,0,0,0,0,2021-08-07 11:50:02,777547
0,-2,-2,-5,-3,-3,-2,-1,2021-08-07 11:50:02,777547
-1,-1,-3,-6,-3,-1,0,0,2021-08-07 11:50:02,790544
0,0,0,2,0,-1,-2,-1,2021-08-07 11:50:02,790544
1,-2,-2,-5,-6,-3,-3,-2,2021-08-07 11:50:02,790544
-2,0,-1,1,-1,-1,-1,-2,2021-08-07 11:50:02,790544
0,1,2,4,6,3,1,1,2021-08-07 11:50:02,790544
-2,0,0,-9,-5,-3,-2,-1,2021-08-07 11:50:02,791545
-2,-1,2,6,2,1,1,0,2021-08-07 11:50:02,791545
0,0,2,6,5,0,1,2,2021-08-07 11:50:02,808543
-1,-1,-2,-2,-3,-3,-3,-3,2021-08-07 11:50:02,808543
-1,1,-2,0,-4,-5,-1,-2,2021-08-07 11:50:02,808543
-1,-3,-3,-9,-5,-2,-2,0,2021-08-07 11:50:02,808543
2,0,-2,-1,-2,0,-1,1,2021-08-07 11:50:02,808543
0,-2,1,1,2,1,-2,-1,2021-08-07 11:50:02,808543
2,1,3,6,9,5,1,2,2021-08-07 11:50:02,839545
0,2,-1,-3,-2,-1,0,-1,2021-08-07 11:50:02,855543
0,0,0,1,0,-3,0,-2,2021-08-07 11:50:02,855543
-2,-2,-4,-6,-7,-4,-3,-2,2021-08-07 11:50:02,855543
0,-1,-1,0,-1,-1,-1,1,2021-08-07 11:50:02,855543
-2,-2,-6,-9,-6,-5,-1,-3,2021-08-07 11:50:02,855543
1,3,3,3,1,2,3,0,2021-08-07 11:50:02,855543
0,-1,0,6,6,1,0,1,2021-08-07 11:50:02,855543
-3,-1,-1,-1,-1,-1,-2,-4,2021-08-07 11:50:02,886545
1,-2,1,1,-1,-1,-1,0,2021-08-07 11:50:02,886545
-1,-3,-1,-4,-3,-2,-1,-1,2021-08-07 11:50:02,886545
0,0,-2,-5,-9,-5,-2,-2,2021-08-07 11:50:02,886545
-1,-2,0,4,2,-1,0,-1,2021-08-07 11:50:02,902544
1,1,1,-1,2,0,0,-2,2021-08-07 11:50:02,918545
-2,-3,-4,-4,-2,-1,-4,-2,2021-08-07 11:50:02,934543
-1,-1,1,2,1,1,-1,-1,2021-08-07 11:50:02,934543
-1,0,-1,-2,-1,-1,0,-2,2021-08-07 11:50:02,934543
-2,-2,-3,0,-3,-2,-1,-1,2021-08-07 11:50:02,934543
-1,-1,-2,-1,-2,-2,-2,-1,2021-08-07 11:50:02,934543
1,1,0,1,0,-1,1,0,2021-08-07 11:50:02,934543
-1,-2,-3,-2,0,-3,-2,-2,2021-08-07 11:50:02,935544
0,1,2,2,0,1,0,1,2021-08-07 11:50:02,935544
1,0,0,-1,0,0,0,0,2021-08-07 11:50:02,935544
0,-2,-1,-3,-4,-2,-3,1,2021-08-07 11:50:02,935544
-2,-2,-2,-2,-5,-3,-1,0,2021-08-07 11:50:02,966544
2,-1,-1,-2,0,-1,1,-1,2021-08-07 11:50:02,982544
1,1,0,0,2,0,0,0,2021-08-07 11:50:02,998545
-2,1,-1,-1,-1,-3,0,-1,2021-08-07 11:50:02,998545
1,0,0,-1,0,1,0,0,2021-08-07 11:50:03,014545
-2,-1,-1,0,0,1,0,-3,2021-08-07 11:50:03,014545
-2,-2,-1,-1,-3,-1,-1,0,2021-08-07 11:50:03,014545
-1,-2,-1,-2,0,-3,-1,0,2021-08-07 11:50:03,014545
0,0,-2,-3,-5,-3,-2,0,2021-08-07 11:50:03,014545
-2,-1,0,2,6,2,1,0,2021-08-07 11:50:03,014545
0,1,1,1,8,2,1,2,2021-08-07 11:50:03,015547
0,-1,-2,-4,-4,1,0,0,2021-08-07 11:50:03,015547
0,-1,1,4,2,-1,0,0,2021-08-07 11:50:03,015547
-2,0,-2,-5,-8,-3,-3,-2,2021-08-07 11:50:03,015547
0,-3,-4,-4,0,-2,-1,-2,2021-08-07 11:50:03,015547
-1,-1,1,4,6,2,0,-2,2021-08-07 11:50:03,015547
0,-1,-2,-3,-3,-1,1,-2,2021-08-07 11:50:03,030543
-2,-1,-2,-4,-3,-1,-2,-1,2021-08-07 11:50:03,030543
-1,-1,-2,-3,-2,-3,-1,0,2021-08-07 11:50:03,030543
0,1,-1,-2,-4,-2,-3,-2,2021-08-07 11:50:03,030543
-3,-1,2,6,4,2,-1,-1,2021-08-07 11:50:03,061544
1,3,6,9,6,2,1,0,2021-08-07 11:50:03,077544
-4,-5,-7,-8,-8,-4,-1,-3,2021-08-07 11:50:03,093544
-4,-7,-10,-13,-11,-6,-3,-2,2021-08-07 11:50:03,093544
-2,-4,-3,-6,-5,-4,-4,-1,2021-08-07 11:50:03,093544
2,2,4,7,7,4,2,1,2021-08-07 11:50:03,093544
3,3,5,6,4,3,1,1,2021-08-07 11:50:03,093544
-3,-3,-5,-6,-9,-6,-1,-3,2021-08-07 11:50:03,094545
-2,0,-5,-7,-8,-4,-1,-3,2021-08-07 11:50:03,094545
-2,-3,-2,-1,-1,-1,-1,0,2021-08-07 11:50:03,094545
0,0,0,6,4,3,1,0,2021-08-07 11:50:03,124543
2,1,2,6,6,3,2,1,2021-08-07 11:50:03,140543
1,-1,0,0,0,-1,0,-1,2021-08-07 11:50:03,140543
-1,-1,-2,-1,-2,-2,-2,-2,2021-08-07 11:50:03,140543
-3,-1,-2,0,-2,-2,0,0,2021-08-07 11:50:03,140543
0,-1,1,-1,0,-1,0,0,2021-08-07 11:50:03,140543
-2,0,0,-2,2,-1,-1,0,2021-08-07 11:50:03,140543
0,-1,-5,-5,-4,-2,0,-1,2021-08-07 11:50:03,141547
0,-1,0,-3,-3,-1,-2,0,2021-08-07 11:50:03,141547
-1,0,1,6,4,2,0,-1,2021-08-07 11:50:03,141547
-1,-2,0,0,0,1,-2,1,2021-08-07 11:50:03,156544
-1,-2,-6,-6,-3,-3,-2,-2,2021-08-07 11:50:03,172543
-1,-2,-2,-7,-7,-4,-3,-1,2021-08-07 11:50:03,172543
0,0,0,-3,-1,2,0,1,2021-08-07 11:50:03,172543
0,0,1,5,4,2,0,-1,2021-08-07 11:50:03,172543
-3,-3,-5,-8,-8,-6,-2,-3,2021-08-07 11:50:03,172543
1,1,2,5,5,3,2,-1,2021-08-07 11:50:03,172543
-2,0,-1,-3,-6,-2,-3,-1,2021-08-07 11:50:03,172543
0,-2,-3,-6,0,0,-1,0,2021-08-07 11:50:03,203544
-1,-1,1,2,-2,-1,-2,1,2021-08-07 11:50:03,203544
0,1,-1,1,3,1,-1,1,2021-08-07 11:50:03,203544
1,0,1,6,8,4,2,0,2021-08-07 11:50:03,203544
-1,1,2,5,0,-1,0,-1,2021-08-07 11:50:03,219544
-2,-3,-3,-5,-4,-1,-2,-2,2021-08-07 11:50:03,219544
-1,-2,0,-1,-1,-1,-1,-1,2021-08-07 11:50:03,228543
-2,-1,0,1,-2,-2,-1,-1,2021-08-07 11:50:03,228543
0,-2,-2,-4,-4,1,0,0,2021-08-07 11:50:03,229544
1,0,0,-4,1,0,-1,-1,2021-08-07 11:50:03,229544
1,2,-2,0,-2,-1,-1,-3,2021-08-07 11:50:03,229544
-4,0,-3,-4,-3,-4,-4,-3,2021-08-07 11:50:03,229544
-1,-1,-1,4,3,0,0,-1,2021-08-07 11:50:03,267544
-4,-3,-2,-4,-4,-2,-1,-2,2021-08-07 11:50:03,267544
-3,-3,-5,-5,-3,-2,-2,-1,2021-08-07 11:50:03,267544
3,2,4,7,13,6,4,4,2021-08-07 11:50:03,267544
0,0,-2,-7,-8,-4,-2,-1,2021-08-07 11:50:03,267544
-2,0,0,0,3,-1,0,0,2021-08-07 11:50:03,267544
-1,-2,0,1,0,-2,-2,-4,2021-08-07 11:50:03,283544
-4,-4,-8,-11,-11,-4,-3,-2,2021-08-07 11:50:03,299546
-2,-2,-1,1,2,0,2,1,2021-08-07 11:50:03,299546
3,3,5,7,1,3,1,3,2021-08-07 11:50:03,299546
0,1,-3,-5,-3,1,3,1,2021-08-07 11:50:03,299546
-4,-4,0,2,1,0,-2,-2,2021-08-07 11:50:03,299546
-1,-2,-1,-2,-5,-5,-5,-3,2021-08-07 11:50:03,315545
0,-1,-3,-6,-6,-9,-6,-5,2021-08-07 11:50:03,315545
0,2,3,6,5,1,-1,-2,2021-08-07 11:50:03,315545
2,1,1,-1,-2,2,2,2,2021-08-07 11:50:03,315545
-4,-4,-3,-2,-1,0,1,-1,2021-08-07 11:50:03,331545
-4,-3,-2,1,1,2,-1,0,2021-08-07 11:50:03,347546
0,0,-1,-1,-1,-1,-2,-1,2021-08-07 11:50:03,363545
-2,-2,-1,1,0,0,-1,1,2021-08-07 11:50:03,379544
1,3,2,-6,-3,-1,0,0,2021-08-07 11:50:03,379544
-1,-2,-3,1,0,0,-1,0,2021-08-07 11:50:03,379544
0,1,0,0,1,0,0,-2,2021-08-07 11:50:03,379544
0,1,0,-4,-3,0,-3,-2,2021-08-07 11:50:03,379544
0,0,0,4,4,0,0,2,2021-08-07 11:50:03,380544
1,1,1,1,-1,1,0,-1,2021-08-07 11:50:03,380544
-1,-3,-3,-2,-6,-4,-3,-2,2021-08-07 11:50:03,380544
-2,-2,0,0,-1,-3,-2,-2,2021-08-07 11:50:03,380544
-1,-1,-3,-5,-4,-2,-1,-1,2021-08-07 11:50:03,395544
-2,-4,-6,-7,-2,-1,1,-1,2021-08-07 11:50:03,411545
-3,-1,1,4,2,1,0,1,2021-08-07 11:50:03,426544
0,-1,0,0,2,1,0,-1,2021-08-07 11:50:03,426544
-3,-3,-1,-1,-2,-1,-3,-4,2021-08-07 11:50:03,426544
-2,4,4,4,3,1,-1,0,2021-08-07 11:50:03,442545
-2,-1,-1,-3,-5,-2,-3,-2,2021-08-07 11:50:03,458545
2,2,-1,-3,-3,-2,-1,0,2021-08-07 11:50:03,458545
0,0,-3,-5,-3,-3,0,0,2021-08-07 11:50:03,458545
2,0,3,-1,1,1,1,2,2021-08-07 11:50:03,458545
1,-1,0,3,3,1,2,1,2021-08-07 11:50:03,458545
0,-2,-1,-1,-2,-1,-1,-1,2021-08-07 11:50:03,459545
-1,-3,-2,-1,-1,-1,-3,-2,2021-08-07 11:50:03,459545
0,1,0,5,3,-1,-2,-2,2021-08-07 11:50:03,459545
-1,-3,-3,-7,-3,-4,-1,-1,2021-08-07 11:50:03,459545
-1,-2,-2,-3,-2,-2,0,-2,2021-08-07 11:50:03,459545
-2,0,0,-1,-2,0,0,1,2021-08-07 11:50:03,474543
-2,-1,-1,0,3,3,0,-1,2021-08-07 11:50:03,474543
-2,-1,-4,-2,-2,-2,-2,-1,2021-08-07 11:50:03,474543
1,0,0,2,2,1,-1,-1,2021-08-07 11:50:03,474543
-1,-2,-5,-7,-7,-5,-5,-1,2021-08-07 11:50:03,505545
2,2,2,8,9,4,2,2,2021-08-07 11:50:03,521544
0,1,0,1,2,1,1,0,2021-08-07 11:50:03,537543
-3,-2,-1,0,-1,-2,0,0,2021-08-07 11:50:03,537543
-2,-3,-1,2,1,0,-2,-4,2021-08-07 11:50:03,537543
0,0,-3,-12,-13,-6,-2,-2,2021-08-07 11:50:03,537543
3,-1,1,1,8,4,1,0,2021-08-07 11:50:03,537543
-2,-1,1,0,-4,-1,-2,0,2021-08-07 11:50:03,538544
-2,-1,-1,0,4,0,-2,-1,2021-08-07 11:50:03,538544
-1,0,-2,1,-1,-3,-2,-2,2021-08-07 11:50:03,538544
0,-2,-1,-3,-5,-1,-1,-2,2021-08-07 11:50:03,538544
0,-1,0,-1,-2,-2,-3,-1,2021-08-07 11:50:03,538544
0,0,0,5,3,3,0,0,2021-08-07 11:50:03,568543
-3,-4,-4,-7,-6,-4,-2,-2,2021-08-07 11:50:03,584543
-1,-1,-1,0,-2,-1,-1,0,2021-08-07 11:50:03,599544
0,1,-1,3,2,2,0,0,2021-08-07 11:50:03,599544
1,1,0,-3,-1,-1,1,2,2021-08-07 11:50:03,599544
0,0,-2,-1,0,1,0,1,2021-08-07 11:50:03,599544
-2,-1,0,1,0,0,-2,-1,2021-08-07 11:50:03,599544
-3,-2,-3,-6,-4,-4,-2,-1,2021-08-07 11:50:03,599544
4,2,3,8,7,2,2,2,2021-08-07 11:50:03,600546
0,-2,0,6,5,1,0,-2,2021-08-07 11:50:03,600546
-1,1,3,3,0,0,1,0,2021-08-07 11:50:03,600546
0,-1,-2,-2,-3,-1,-1,-1,2021-08-07 11:50:03,600546
-3,1,-2,-6,-5,-1,-1,1,2021-08-07 11:50:03,615546
-2,-4,-2,-2,-5,-2,-2,-3,2021-08-07 11:50:03,631544
-1,0,3,4,3,1,-1,0,2021-08-07 11:50:03,647545
-2,-2,-1,-2,1,-1,-3,-2,2021-08-07 11:50:03,647545
1,3,2,3,1,0,2,2,2021-08-07 11:50:03,647545
1,0,1,3,0,-2,-1,0,2021-08-07 11:50:03,647545
-4,-2,0,-1,-1,0,-3,-3,2021-08-07 11:50:03,647545
-1,-1,-10,-21,-20,-8,-1,0,2021-08-07 11:50:03,648544
-3,-5,-5,-6,1,-1,-1,-2,2021-08-07 11:50:03,648544
4,8,18,27,25,12,4,1,2021-08-07 11:50:03,648544
4,5,8,27,27,12,8,3,2021-08-07 11:50:03,648544
-10,-15,-25,-46,-42,-23,-10,-6,2021-08-07 11:50:03,648544
-5,-2,-5,-10,-20,-13,-6,-5,2021-08-07 11:50:03,672544
-2,-1,-7,-12,-11,-5,-3,-3,2021-08-07 11:50:03,673545
10,9,23,40,44,25,9,4,2021-08-07 11:50:03,679808
4,5,9,21,31,18,9,4,2021-08-07 11:50:03,695575
-7,-9,-15,-34,-40,-25,-9,-6,2021-08-07 11:50:03,711576
-9,-10,-12,-27,-39,-25,-12,-8,2021-08-07 11:50:03,727576
-4,-1,-4,-14,-13,-9,-7,-1,2021-08-07 11:50:03,742577
2,5,9,19,18,10,4,1,2021-08-07 11:50:03,742577
2,1,4,8,22,14,7,2,2021-08-07 11:50:03,742577
2,2,6,20,22,12,6,3,2021-08-07 11:50:03,742577
0,-3,-5,-12,-19,-9,-3,0,2021-08-07 11:50:03,742577
-1,1,5,15,10,2,0,-1,2021-08-07 11:50:03,742577
2,5,4,5,5,4,0,1,2021-08-07 11:50:03,743577
-2,-4,-5,-7,-5,-1,1,-1,2021-08-07 11:50:03,743577
-4,-6,-15,-24,-20,-11,-5,-3,2021-08-07 11:50:03,743577
0,0,1,-5,-4,-2,-1,1,2021-08-07 11:50:03,743577
1,1,4,18,16,6,0,-1,2021-08-07 11:50:03,758576
-1,-1,0,6,10,6,3,1,2021-08-07 11:50:03,773576
-1,-1,-4,-8,-9,-5,-3,-1,2021-08-07 11:50:03,788576
0,1,-1,-1,-6,-4,-3,0,2021-08-07 11:50:03,804574
0,-2,1,2,-1,-1,-1,-1,2021-08-07 11:50:03,804574
-1,-4,-6,-8,-3,-1,-2,0,2021-08-07 11:50:03,804574
-3,-1,-3,-4,-8,-5,-2,-2,2021-08-07 11:50:03,804574
-1,-2,0,0,2,1,-1,-1,2021-08-07 11:50:03,805579
1,1,1,4,8,1,2,2,2021-08-07 11:50:03,820575
-3,-2,-2,-3,-2,-1,0,-3,2021-08-07 11:50:03,836574
-2,-3,-6,-13,-10,-6,-1,-2,2021-08-07 11:50:03,836574
0,0,0,1,0,1,-1,-3,2021-08-07 11:50:03,836574
2,1,2,1,0,2,2,2,2021-08-07 11:50:03,836574
-1,-1,-3,-8,-6,-4,-2,-2,2021-08-07 11:50:03,836574
1,-3,-5,-6,0,0,0,0,2021-08-07 11:50:03,836574
1,1,3,9,5,1,0,1,2021-08-07 11:50:03,836574
-3,-1,-1,2,-1,0,-1,-2,2021-08-07 11:50:03,837578
-2,-2,-1,0,2,-2,-2,-1,2021-08-07 11:50:03,837578
-2,-4,-4,-7,-9,-5,-2,-2,2021-08-07 11:50:03,837578
-1,-2,-4,2,2,0,-2,-1,2021-08-07 11:50:03,837578
-1,0,0,-2,-2,-1,0,-2,2021-08-07 11:50:03,868576
1,2,1,-2,1,1,2,3,2021-08-07 11:50:03,884574
-1,-1,-2,-3,-5,-3,-2,-3,2021-08-07 11:50:03,900798
-2,-3,-1,1,-2,-3,0,-1,2021-08-07 11:50:03,916091
-3,-4,-5,-5,-4,-2,-3,-3,2021-08-07 11:50:03,948093
-2,-1,-2,0,-1,-1,-1,0,2021-08-07 11:50:03,964089
0,0,2,-1,4,3,0,0,2021-08-07 11:50:03,964089
-2,-1,-1,-2,-6,-2,-3,-3,2021-08-07 11:50:03,964089
1,2,4,8,11,4,2,1,2021-08-07 11:50:03,964089
2,1,1,0,0,0,0,-1,2021-08-07 11:50:03,964089
-4,-3,-2,-5,-10,-5,-6,-4,2021-08-07 11:50:03,965091
-2,-3,-3,-8,-6,-2,0,-2,2021-08-07 11:50:03,965091
1,2,1,7,9,2,1,0,2021-08-07 11:50:03,965091
-1,-2,0,0,5,1,-1,0,2021-08-07 11:50:03,965091
-2,0,-1,3,-2,-1,1,0,2021-08-07 11:50:03,965091
-3,-2,-3,-11,-13,-5,-2,-4,2021-08-07 11:50:03,965091
-2,0,1,5,6,2,-2,0,2021-08-07 11:50:03,965091
-2,-3,-2,-3,-5,-2,-1,-2,2021-08-07 11:50:03,965091
-1,-2,-2,-1,1,1,0,-3,2021-08-07 11:50:03,966090
2,1,5,4,2,1,1,1,2021-08-07 11:50:03,966090
-2,-4,-4,-7,-13,-7,-4,-2,2021-08-07 11:50:03,966090
4,4,5,3,7,3,1,2,2021-08-07 11:50:03,966090
-2,-1,-2,-3,-2,-2,0,-2,2021-08-07 11:50:03,966090
1,1,1,5,5,2,1,0,2021-08-07 11:50:03,966090
-1,-2,-1,-4,-4,-3,-3,-4,2021-08-07 11:50:03,980089
-2,-1,-4,-3,-5,-4,-2,-3,2021-08-07 11:50:03,996090
1,1,1,-3,-2,-2,-2,0,2021-08-07 11:50:04,012089
-1,0,-1,2,2,0,0,-1,2021-08-07 11:50:04,028089
-3,-3,-2,-3,-3,-2,-2,0,2021-08-07 11:50:04,028089
-2,-3,-1,3,2,-2,0,-1,2021-08-07 11:50:04,028089
1,1,1,-1,2,2,1,0,2021-08-07 11:50:04,028089
0,3,2,8,7,4,1,0,2021-08-07 11:50:04,028089
1,0,-2,-5,-1,1,1,-1,2021-08-07 11:50:04,028089
0,0,-1,1,-3,0,0,-2,2021-08-07 11:50:04,029092
-2,-1,-1,4,5,0,-2,-2,2021-08-07 11:50:04,029092
1,-1,-1,-2,0,-1,-1,0,2021-08-07 11:50:04,029092
-3,0,0,-3,-8,-2,-1,-1,2021-08-07 11:50:04,029092
-3,-3,-5,-8,-11,-4,-3,-1,2021-08-07 11:50:04,029092
0,2,0,-1,5,2,1,2,2021-08-07 11:50:04,029092
0,0,3,11,7,0,-1,-1,2021-08-07 11:50:04,030091
0,-1,0,-2,0,1,0,-1,2021-08-07 11:50:04,060090
-2,-3,-3,-5,-5,-3,-3,-3,2021-08-07 11:50:04,075089
-1,-4,-4,-6,-9,-2,-1,-1,2021-08-07 11:50:04,090090
-1,1,1,-2,2,0,0,-1,2021-08-07 11:50:04,090090
-1,-3,-2,-4,-3,-2,-1,1,2021-08-07 11:50:04,090090
0,-1,-2,-2,0,1,0,-1,2021-08-07 11:50:04,090090
-1,0,5,8,4,0,1,0,2021-08-07 11:50:04,090090
0,1,-2,-3,0,1,0,-2,2021-08-07 11:50:04,090090
-1,1,-1,0,-1,-3,-1,-2,2021-08-07 11:50:04,106090
-1,-1,0,0,-5,-2,-1,-1,2021-08-07 11:50:04,106090
-2,-1,-3,-5,-2,-4,-1,0,2021-08-07 11:50:04,106090
1,3,2,1,4,1,-1,0,2021-08-07 11:50:04,106090
-2,0,-2,-3,-6,-2,-1,-1,2021-08-07 11:50:04,114089
0,0,-1,-5,-6,-1,1,2,2021-08-07 11:50:04,114089
0,0,2,8,12,4,-1,-2,2021-08-07 11:50:04,114089
-2,-3,-2,-5,-8,-5,-2,-1,2021-08-07 11:50:04,114089
2,0,-1,-1,0,-1,-1,0,2021-08-07 11:50:04,138090
1,-2,0,-2,1,-1,-1,0,2021-08-07 11:50:04,138090
-2,-4,-5,-7,-9,-3,-2,-1,2021-08-07 11:50:04,154089
-5,-6,-6,-7,-8,-4,-2,-2,2021-08-07 11:50:04,154089
-2,-3,-2,2,1,0,-1,-1,2021-08-07 11:50:04,154089
1,2,4,12,17,8,2,1,2021-08-07 11:50:04,154089
-2,0,3,3,-3,-2,-2,-3,2021-08-07 11:50:04,154089
-3,0,-1,-4,-3,-2,-3,-4,2021-08-07 11:50:04,154089
0,1,0,1,-6,-4,-3,-1,2021-08-07 11:50:04,186090
0,0,-4,-7,-6,-1,-2,-2,2021-08-07 11:50:04,218089
0,0,0,-5,-3,-2,0,1,2021-08-07 11:50:04,218089
1,1,-2,4,7,0,-2,2,2021-08-07 11:50:04,218089
-2,-2,0,-2,1,0,-1,-2,2021-08-07 11:50:04,218089
-1,1,0,2,-1,0,-1,-1,2021-08-07 11:50:04,218089
-3,-2,-4,-5,-3,-1,0,0,2021-08-07 11:50:04,218089
-1,-3,-2,1,-5,-2,-1,-1,2021-08-07 11:50:04,218089
1,1,3,5,5,2,0,1,2021-08-07 11:50:04,219091
1,0,0,-1,2,1,0,-2,2021-08-07 11:50:04,234090
1,0,-1,-4,-2,0,-1,-2,2021-08-07 11:50:04,250090
-3,-1,-2,0,-1,-2,-2,-3,2021-08-07 11:50:04,250090
-2,-4,-2,1,2,2,1,0,2021-08-07 11:50:04,250090
0,0,-2,-11,-7,-3,-1,-1,2021-08-07 11:50:04,250090
0,-2,-2,4,1,-2,0,-1,2021-08-07 11:50:04,250090
-2,-4,-5,-9,-5,-3,-3,-2,2021-08-07 11:50:04,250090
2,2,2,2,4,0,1,2,2021-08-07 11:50:04,251090
0,1,4,8,5,4,1,-1,2021-08-07 11:50:04,251090
-4,-4,-6,-6,-6,-5,-4,-3,2021-08-07 11:50:04,251090
1,-1,-1,-8,-1,0,-1,1,2021-08-07 11:50:04,251090
-3,-2,-2,-2,-5,-4,-3,-4,2021-08-07 11:50:04,282089
-2,-3,-2,-2,-1,1,-1,0,2021-08-07 11:50:04,282089
2,1,2,4,5,3,2,2,2021-08-07 11:50:04,282089
-2,-2,-5,-12,-14,-4,-3,-3,2021-08-07 11:50:04,282089
1,0,2,4,8,2,2,1,2021-08-07 11:50:04,298091
0,2,2,6,2,-1,-1,-1,2021-08-07 11:50:04,298091
0,0,2,1,-1,2,1,-2,2021-08-07 11:50:04,298091
-2,-3,-4,-5,-2,-5,-1,-2,2021-08-07 11:50:04,298091
-2,-3,-5,-10,-4,-3,-2,-1,2021-08-07 11:50:04,314091
0,-3,-4,-6,-3,-3,-1,0,2021-08-07 11:50:04,314091
0,1,2,-6,-4,-2,-1,0,2021-08-07 11:50:04,314091
0,2,4,12,8,3,1,0,2021-08-07 11:50:04,314091
-3,-5,-8,-14,-17,-8,-5,-4,2021-08-07 11:50:04,346090
0,1,3,8,-1,-1,1,1,2021-08-07 11:50:04,362089
3,3,5,18,35,16,6,3,2021-08-07 11:50:04,394090
-1,1,-1,-6,-6,-1,-1,-2,2021-08-07 11:50:04,394090
-1,-1,-2,4,12,4,3,-1,2021-08-07 11:50:04,410090
-3,-3,-4,-14,-25,-12,-5,-4,2021-08-07 11:50:04,410090
-2,-2,-3,-2,-7,-2,-2,-2,2021-08-07 11:50:04,410090
0,0,0,4,7,2,2,0,2021-08-07 11:50:04,410090
-2,-1,-3,-6,-7,-2,-1,-1,2021-08-07 11:50:04,410090
-2,-1,-2,-10,-5,-4,-2,-2,2021-08-07 11:50:04,411091
1,1,-1,-3,-6,-2,0,2,2021-08-07 11:50:04,426091
0,1,1,2,0,0,-1,0,2021-08-07 11:50:04,442121
-2,1,1,7,-1,1,-1,-2,2021-08-07 11:50:04,442121
-1,-2,-3,5,5,2,1,0,2021-08-07 11:50:04,442121
0,-2,-4,-6,-8,-2,-1,-1,2021-08-07 11:50:04,442121
-3,-1,-1,0,-2,-3,-2,-3,2021-08-07 11:50:04,442121
-1,0,1,4,5,1,-2,-1,2021-08-07 11:50:04,442121
2,-1,-4,-4,2,1,2,1,2021-08-07 11:50:04,443121
-2,-2,-1,-1,-5,-2,-2,-2,2021-08-07 11:50:04,443121
2,0,4,9,4,3,2,1,2021-08-07 11:50:04,443121
1,3,5,8,11,4,3,2,2021-08-07 11:50:04,443121
-6,-4,-4,-6,-2,-2,-3,-2,2021-08-07 11:50:04,443121
-3,-4,-5,-9,-19,-8,-4,-4,2021-08-07 11:50:04,443121
0,-1,-1,0,9,2,-1,-1,2021-08-07 11:50:04,444121
0,-1,-3,-4,-6,-4,-4,-2,2021-08-07 11:50:04,458120
3,2,2,4,6,3,2,2,2021-08-07 11:50:04,458120
-3,-4,-5,-11,-10,-7,-3,-2,2021-08-07 11:50:04,458120
2,2,3,9,7,4,3,4,2021-08-07 11:50:04,458120
0,-1,-4,-5,-4,-1,-2,-1,2021-08-07 11:50:04,490120
-2,0,-4,-5,-5,-2,-3,-5,2021-08-07 11:50:04,506121
1,1,2,6,1,-2,-1,0,2021-08-07 11:50:04,522119
-2,-1,-2,-2,-4,-3,-2,-2,2021-08-07 11:50:04,538119
1,0,0,1,3,2,2,2,2021-08-07 11:50:04,538119
0,-1,1,2,-3,-1,0,2,2021-08-07 11:50:04,538119
-2,0,-1,-3,0,-1,-2,-3,2021-08-07 11:50:04,538119
-1,-1,-6,-13,-9,-2,0,0,2021-08-07 11:50:04,538119
1,0,2,2,4,2,0,1,2021-08-07 11:50:04,538119
-2,0,2,8,5,0,-2,0,2021-08-07 11:50:04,539121
-2,-1,1,4,4,1,-3,0,2021-08-07 11:50:04,539121
-1,-2,-3,-6,-5,-4,-1,-1,2021-08-07 11:50:04,539121
-3,-2,-3,-13,-18,-7,-5,-4,2021-08-07 11:50:04,539121
0,-1,0,0,4,1,4,1,2021-08-07 11:50:04,539121
2,2,0,-3,-7,0,2,1,2021-08-07 11:50:04,539121
0,-2,-3,-11,-7,0,-3,-3,2021-08-07 11:50:04,539121
2,3,10,31,24,4,-1,-1,2021-08-07 11:50:04,554121
-4,-1,0,2,0,-2,-2,-3,2021-08-07 11:50:04,564120
-2,-2,0,3,3,2,1,-1,2021-08-07 11:50:04,564120
-2,-2,-3,-4,-8,-5,-2,-1,2021-08-07 11:50:04,564120
-2,-2,-10,-25,-23,-8,-2,-1,2021-08-07 11:50:04,586119
2,1,5,15,11,4,2,0,2021-08-07 11:50:04,586119
-2,-2,-4,4,6,-1,-3,-3,2021-08-07 11:50:04,586119
-3,-2,0,3,2,1,0,1,2021-08-07 11:50:04,586119
0,2,-1,-4,0,1,-1,0,2021-08-07 11:50:04,602120
2,1,-4,-9,-6,-2,0,-2,2021-08-07 11:50:04,618119
0,-1,1,-1,-1,0,-2,0,2021-08-07 11:50:04,618119
-2,-4,2,8,7,0,-3,-2,2021-08-07 11:50:04,633120
-3,-3,-5,-4,-6,-2,0,0,2021-08-07 11:50:04,664637
0,1,-3,-12,-7,-2,-2,0,2021-08-07 11:50:04,664637
0,-1,1,4,3,1,1,0,2021-08-07 11:50:04,664637
0,0,-1,-2,-2,-2,-1,0,2021-08-07 11:50:04,664637
-3,-3,-2,0,-4,-2,-2,-3,2021-08-07 11:50:04,664637
0,-1,0,-2,-2,-1,-2,0,2021-08-07 11:50:04,664637
1,1,1,-1,0,0,0,0,2021-08-07 11:50:04,664637
0,0,0,-1,-1,-2,1,-1,2021-08-07 11:50:04,664637
-2,-3,-1,-4,-3,0,0,1,2021-08-07 11:50:04,665640
-3,-2,-1,-1,-1,-2,0,-1,2021-08-07 11:50:04,665640
0,0,-2,-3,-1,-1,0,-1,2021-08-07 11:50:04,665640
-1,3,-1,-5,-6,-1,-1,-1,2021-08-07 11:50:04,665640
2,1,4,9,4,1,1,0,2021-08-07 11:50:04,665640
-1,-2,-1,2,4,-1,-2,-2,2021-08-07 11:50:04,665640
-3,-3,-3,-6,-9,-6,-4,-2,2021-08-07 11:50:04,680637
0,-2,-4,-8,2,-1,-1,-2,2021-08-07 11:50:04,680637
2,1,4,13,8,2,0,0,2021-08-07 11:50:04,696637
-2,0,1,3,2,0,-1,1,2021-08-07 11:50:04,696637
-2,-1,-3,-6,-3,-4,0,-3,2021-08-07 11:50:04,696637
0,-1,1,2,-7,-3,-2,-1,2021-08-07 11:50:04,696637
-2,-1,-2,-6,-5,-4,-3,-1,2021-08-07 11:50:04,728670
0,2,0,0,2,3,1,-1,2021-08-07 11:50:04,744672
-2,0,-1,0,-2,-1,-1,0,2021-08-07 11:50:04,760671
-1,-1,2,4,9,3,0,0,2021-08-07 11:50:04,776671
-2,-1,-3,-4,-3,-2,1,-1,2021-08-07 11:50:04,776671
-2,-4,-1,-1,-6,-3,-1,-1,2021-08-07 11:50:04,776671
-2,-2,-3,-1,1,-2,-1,-1,2021-08-07 11:50:04,776671
-2,0,-2,-2,-6,-3,-1,-2,2021-08-07 11:50:04,776671
0,-3,-3,-3,7,3,1,-1,2021-08-07 11:50:04,776671
-1,-1,-1,-7,-5,-4,-2,-1,2021-08-07 11:50:04,777672
2,3,4,11,12,5,2,1,2021-08-07 11:50:04,777672
0,-1,-1,-1,-3,-2,-1,-1,2021-08-07 11:50:04,777672
-1,-1,-3,-3,-2,-4,0,-1,2021-08-07 11:50:04,777672
-1,-2,-1,-1,1,0,-1,-1,2021-08-07 11:50:04,777672
-1,-3,-1,1,-1,-2,-1,-2,2021-08-07 11:50:04,777672
-2,-2,0,1,-1,-1,-2,-1,2021-08-07 11:50:04,777672
-1,1,1,-2,-4,-1,-1,0,2021-08-07 11:50:04,808671
-1,-1,-3,-7,-5,-2,0,1,2021-08-07 11:50:04,824669
-1,-1,1,0,-2,-3,0,0,2021-08-07 11:50:04,840671
-1,-1,-2,2,5,3,2,-2,2021-08-07 11:50:04,840671
-2,-2,-2,-7,-5,-1,-1,-3,2021-08-07 11:50:04,840671
1,-1,0,3,1,1,1,0,2021-08-07 11:50:04,840671
0,-1,-2,-2,-2,-1,-1,-1,2021-08-07 11:50:04,840671
0,0,-1,-1,-5,-3,-2,0,2021-08-07 11:50:04,841671
0,0,-1,0,0,-1,0,1,2021-08-07 11:50:04,856671
0,1,-2,-2,0,-1,-1,-1,2021-08-07 11:50:04,856671
0,0,-3,-5,-6,-1,0,-1,2021-08-07 11:50:04,856671
-3,-4,-2,-3,-5,-4,-3,-3,2021-08-07 11:50:04,856671
2,3,6,14,14,6,2,1,2021-08-07 11:50:04,856671
-1,-1,-1,6,3,1,-1,-1,2021-08-07 11:50:04,856671
0,0,-3,-9,-4,-1,0,0,2021-08-07 11:50:04,857671
-2,-3,-2,1,-2,-4,-2,0,2021-08-07 11:50:04,857671
-2,-2,-3,-7,-5,-2,-1,-1,2021-08-07 11:50:04,888670
-1,-2,-1,-2,-3,-1,-3,-2,2021-08-07 11:50:04,904669
1,1,6,17,19,6,1,0,2021-08-07 11:50:04,904669
1,2,-1,-3,-4,-1,3,3,2021-08-07 11:50:04,904669
-3,-5,-5,-8,-11,-5,-4,-3,2021-08-07 11:50:04,904669
-2,-2,-2,-3,-3,-2,-3,0,2021-08-07 11:50:04,904669
0,-1,0,3,2,1,0,0,2021-08-07 11:50:04,904669
-1,-3,-4,-5,-3,-2,-2,-3,2021-08-07 11:50:04,905671
-2,-5,-4,-8,-5,-6,-3,-2,2021-08-07 11:50:04,920671
0,0,-3,-6,-8,-3,-2,-2,2021-08-07 11:50:04,920671
-1,-2,-2,-2,2,0,0,-1,2021-08-07 11:50:04,920671
2,2,7,9,10,4,2,1,2021-08-07 11:50:04,920671
2,4,4,11,14,5,2,1,2021-08-07 11:50:04,936904
-1,-4,-4,-2,-1,-1,0,-1,2021-08-07 11:50:04,952190
-3,-7,-6,-13,-17,-8,-4,-2,2021-08-07 11:50:04,968190
1,3,3,7,13,6,1,0,2021-08-07 11:50:04,968190
-3,-2,-2,-7,-13,-6,-4,-2,2021-08-07 11:50:04,968190
2,1,3,6,8,1,1,-1,2021-08-07 11:50:04,968190
-1,-1,-1,-8,-10,-5,-1,-1,2021-08-07 11:50:04,969189
-1,-4,-4,-1,6,1,0,0,2021-08-07 11:50:04,969189
2,1,3,10,7,6,2,1,2021-08-07 11:50:04,984189
-3,-2,-3,-1,-1,-1,-2,-2,2021-08-07 11:50:04,999190
-4,-2,-2,-9,-11,-4,-4,-2,2021-08-07 11:50:04,999190
-4,0,1,-5,-6,-5,-5,-6,2021-08-07 11:50:04,999190
-2,-1,0,3,1,-1,-3,-2,2021-08-07 11:50:04,999190
-2,-3,-2,-3,-2,-2,-3,-1,2021-08-07 11:50:04,999190
4,3,0,2,-1,0,-1,2,2021-08-07 11:50:04,999190
2,3,1,1,1,2,2,1,2021-08-07 11:50:04,999190
1,-2,-3,-6,-3,-2,-2,0,2021-08-07 11:50:05,030190
0,1,-1,-6,-4,-1,0,0,2021-08-07 11:50:05,046189
0,1,1,7,6,3,0,0,2021-08-07 11:50:05,062188
-3,-4,-6,-8,-6,-2,-2,-1,2021-08-07 11:50:05,078189
-1,-1,0,3,-3,-1,1,0,2021-08-07 11:50:05,093189
-3,-1,-2,0,-2,-4,-1,-2,2021-08-07 11:50:05,093189
-2,-1,1,7,15,6,1,0,2021-08-07 11:50:05,093189
1,-1,0,-5,-4,-2,0,-2,2021-08-07 11:50:05,093189
0,-1,-1,-1,-4,-3,-1,0,2021-08-07 11:50:05,093189
0,0,-2,-9,-9,-3,-2,-1,2021-08-07 11:50:05,093189
1,0,2,5,6,2,0,1,2021-08-07 11:50:05,094190
-1,-3,-1,-2,-2,-1,-1,-2,2021-08-07 11:50:05,094190
-2,-2,-3,-8,-7,-3,-2,-3,2021-08-07 11:50:05,094190
-1,1,1,6,8,3,0,-1,2021-08-07 11:50:05,094190
-2,-1,-2,-8,-8,-2,-1,0,2021-08-07 11:50:05,094190
-1,-2,-4,-1,-3,-2,-1,1,2021-08-07 11:50:05,094190
2,3,1,0,-1,0,2,0,2021-08-07 11:50:05,095190
-4,-4,-2,0,-4,-4,-4,-4,2021-08-07 11:50:05,095190
-1,-2,-4,-9,-9,-4,-2,-3,2021-08-07 11:50:05,095190
0,0,-1,-1,-3,-3,-3,0,2021-08-07 11:50:05,095190
4,2,4,8,9,11,11,6,2021-08-07 11:50:05,109190
4,2,0,-1,0,6,7,7,2021-08-07 11:50:05,109190
1,-1,0,4,11,0,-5,-3,2021-08-07 11:50:05,109190
-12,-9,-4,0,-8,-20,-21,-15,2021-08-07 11:50:05,109190
-8,-6,-5,-10,-7,-10,-10,-7,2021-08-07 11:50:05,141190
-2,0,1,1,-2,-2,-1,-1,2021-08-07 11:50:05,141190
1,0,-2,-4,-4,1,5,2,2021-08-07 11:50:05,141190
9,6,4,1,8,15,20,12,2021-08-07 11:50:05,141190
2,0,-2,-6,-4,1,1,0,2021-08-07 11:50:05,173191
7,6,4,9,8,1,-2,3,2021-08-07 11:50:05,189188
-15,-12,-8,-5,-11,-15,-15,-14,2021-08-07 11:50:05,189188
-2,-2,-1,-4,-3,-4,-2,-1,2021-08-07 11:50:05,189188
-3,-2,-4,-6,-3,-3,0,-1,2021-08-07 11:50:05,189188
6,4,3,-1,-4,4,7,5,2021-08-07 11:50:05,189188
5,3,4,11,19,7,6,1,2021-08-07 11:50:05,189188
-2,-2,1,7,6,1,0,-1,2021-08-07 11:50:05,189188
-3,-3,-3,-5,-6,-1,0,0,2021-08-07 11:50:05,205189
-5,-6,-7,-9,-7,-5,-6,-6,2021-08-07 11:50:05,205189
1,0,3,6,4,-1,0,-2,2021-08-07 11:50:05,205189
0,1,1,-1,-4,0,0,-1,2021-08-07 11:50:05,205189
1,-1,0,1,1,1,-3,1,2021-08-07 11:50:05,221190
-6,-4,-2,-2,-2,-4,-4,-5,2021-08-07 11:50:05,221190
-3,-3,-5,-6,-10,-5,-4,-2,2021-08-07 11:50:05,221190
0,-2,-3,2,4,5,1,-1,2021-08-07 11:50:05,221190
2,3,1,4,0,-2,-1,-1,2021-08-07 11:50:05,237189
4,3,4,0,3,1,3,3,2021-08-07 11:50:05,253188
-2,-1,-3,-3,-3,1,-1,-1,2021-08-07 11:50:05,268188
-5,-6,-6,-4,-4,-2,-3,-5,2021-08-07 11:50:05,284188
-2,-1,3,4,1,-4,-3,-2,2021-08-07 11:50:05,284188
0,1,1,0,3,0,0,0,2021-08-07 11:50:05,284188
3,3,1,-1,-1,0,3,2,2021-08-07 11:50:05,284188
0,1,1,-1,-4,-4,-3,-1,2021-08-07 11:50:05,284188
-3,-5,-6,-5,-2,-3,-1,-3,2021-08-07 11:50:05,284188
-1,0,-1,1,2,1,1,2,2021-08-07 11:50:05,285190
0,1,-1,-3,-4,-2,-2,-1,2021-08-07 11:50:05,285190
-2,-1,-2,-2,-3,-2,-2,-2,2021-08-07 11:50:05,285190
1,0,0,-3,-1,1,0,0,2021-08-07 11:50:05,299191
-6,-5,-7,-8,-11,-6,-4,-4,2021-08-07 11:50:05,299191
2,5,7,15,9,5,3,4,2021-08-07 11:50:05,299191
-2,-2,-4,-11,-3,-2,-1,0,2021-08-07 11:50:05,315190
3,3,7,21,16,6,1,3,2021-08-07 11:50:05,347189
-2,-1,-2,-4,-6,-5,-2,-2,2021-08-07 11:50:05,347189
-1,-2,-2,-5,0,0,-1,-1,2021-08-07 11:50:05,347189
0,1,-2,-4,-3,-3,-2,-1,2021-08-07 11:50:05,347189
-1,-1,-3,-5,-8,-5,0,-1,2021-08-07 11:50:05,347189
-1,-2,1,6,6,3,1,-2,2021-08-07 11:50:05,348190
2,-1,0,-4,-6,-1,1,1,2021-08-07 11:50:05,348190
-4,-3,-3,-6,-9,-6,-3,-2,2021-08-07 11:50:05,348190
-4,-4,-4,-9,-4,-3,-3,-3,2021-08-07 11:50:05,348190
-2,-1,2,10,7,3,1,2,2021-08-07 11:50:05,348190
0,0,1,3,8,3,1,-1,2021-08-07 11:50:05,363189
0,2,3,5,2,1,1,1,2021-08-07 11:50:05,379188
-2,-1,-3,-6,-7,-4,-3,-1,2021-08-07 11:50:05,395192
-3,-5,-4,-7,-3,-3,-2,-2,2021-08-07 11:50:05,411190
-2,-2,-1,0,-2,-2,-2,0,2021-08-07 11:50:05,427189
-1,-1,-1,-3,-7,-4,-2,0,2021-08-07 11:50:05,443189
0,2,3,7,11,5,1,1,2021-08-07 11:50:05,444190
-2,1,2,0,3,-1,-1,-1,2021-08-07 11:50:05,444190
-2,-4,-4,-3,-8,-5,-2,-2,2021-08-07 11:50:05,444190
0,-3,-2,-2,-2,-2,-2,0,2021-08-07 11:50:05,444190
1,-1,-1,-4,3,1,-1,0,2021-08-07 11:50:05,444190
1,1,0,3,4,0,0,0,2021-08-07 11:50:05,444190
-3,-1,-2,-4,-5,-4,-1,-1,2021-08-07 11:50:05,445190
0,0,1,1,2,1,0,-2,2021-08-07 11:50:05,445190
-4,-4,-4,-3,-6,-4,-2,-3,2021-08-07 11:50:05,445190
1,0,1,3,3,-1,-2,-1,2021-08-07 11:50:05,445190
0,-2,-2,-5,-6,-3,-3,0,2021-08-07 11:50:05,445190
0,2,0,6,5,2,1,0,2021-08-07 11:50:05,445190
-2,-1,-2,-1,-1,-2,1,-1,2021-08-07 11:50:05,475189
0,-1,-1,-2,-4,-2,-1,-1,2021-08-07 11:50:05,491189
-1,0,-1,-4,-5,-2,-2,-1,2021-08-07 11:50:05,506188
-1,-2,-1,-1,-1,1,0,-3,2021-08-07 11:50:05,506188
-1,-2,-3,-4,-2,-3,-2,-1,2021-08-07 11:50:05,506188
-1,0,1,2,1,0,1,-2,2021-08-07 11:50:05,506188
-1,-1,-2,-1,1,0,0,0,2021-08-07 11:50:05,506188
0,-1,0,3,0,-2,1,0,2021-08-07 11:50:05,506188
-1,-4,0,-2,-4,-1,0,-2,2021-08-07 11:50:05,507191
-3,-2,-4,-8,-9,-1,-3,-1,2021-08-07 11:50:05,507191
1,0,-2,0,5,1,1,-1,2021-08-07 11:50:05,507191
1,0,1,2,0,2,-1,0,2021-08-07 11:50:05,507191
2,3,4,15,9,5,4,3,2021-08-07 11:50:05,522188
-3,-3,-4,-7,-4,-6,-2,-4,2021-08-07 11:50:05,522188
-3,-1,-4,-6,-8,-5,-3,-3,2021-08-07 11:50:05,522188
-3,-3,-2,-7,-8,-7,-4,-3,2021-08-07 11:50:05,522188
-2,1,1,2,4,0,0,-1,2021-08-07 11:50:05,538189
4,3,5,11,16,10,4,3,2021-08-07 11:50:05,538189
-3,-2,-1,-1,-4,-1,-2,-2,2021-08-07 11:50:05,538189
0,0,-3,-5,1,-1,-1,0,2021-08-07 11:50:05,538189
-2,-1,-3,-11,-13,-7,-3,-2,2021-08-07 11:50:05,569190
-1,-2,-3,-4,-5,-3,-1,-2,2021-08-07 11:50:05,584190
1,-3,0,3,5,1,-1,-1,2021-08-07 11:50:05,600188
-1,-1,2,3,2,0,-1,1,2021-08-07 11:50:05,600188
-3,-6,-5,-5,-4,-1,-1,-2,2021-08-07 11:50:05,600188
1,1,2,1,-1,0,0,0,2021-08-07 11:50:05,600188
0,0,-1,2,-3,-1,0,1,2021-08-07 11:50:05,600188
-1,-2,-3,-6,1,0,0,-1,2021-08-07 11:50:05,601190
1,1,1,2,0,0,-1,0,2021-08-07 11:50:05,616188
-1,-1,-2,3,5,3,1,0,2021-08-07 11:50:05,616188
-2,-1,-1,-3,-2,-1,-1,-1,2021-08-07 11:50:05,616188
1,0,1,6,3,2,1,0,2021-08-07 11:50:05,616188
-1,2,-1,0,0,0,-1,0,2021-08-07 11:50:05,616188
-5,-6,-5,-9,-12,-5,-5,-4,2021-08-07 11:50:05,616188
-1,0,-1,1,1,0,1,2,2021-08-07 11:50:05,632189
1,0,1,-3,-4,0,1,1,2021-08-07 11:50:05,632189
-1,-3,-3,-3,-3,-4,-3,-2,2021-08-07 11:50:05,648190
-1,-1,-3,-5,-9,-5,-3,-2,2021-08-07 11:50:05,648190
1,1,1,6,17,9,1,0,2021-08-07 11:50:05,664190
-1,-1,2,8,4,2,-1,-1,2021-08-07 11:50:05,664190
-1,-3,-3,-8,-7,-2,0,-1,2021-08-07 11:50:05,664190
-1,-2,-2,-1,-5,-2,-2,-2,2021-08-07 11:50:05,664190
0,-1,-1,-3,-7,-3,0,-1,2021-08-07 11:50:05,664190
1,-1,0,2,6,1,2,0,2021-08-07 11:50:05,665190
-2,-2,-2,0,2,-1,-2,-3,2021-08-07 11:50:05,680190
1,1,0,-2,-2,-2,-1,1,2021-08-07 11:50:05,696190
-1,1,0,-1,-5,-2,-1,-1,2021-08-07 11:50:05,711189
-1,1,0,-4,-5,-2,-1,0,2021-08-07 11:50:05,711189
-5,-2,-4,-4,-5,-4,-1,-2,2021-08-07 11:50:05,711189
-3,0,1,2,5,0,0,-1,2021-08-07 11:50:05,711189
-3,-1,3,8,2,0,-1,-1,2021-08-07 11:50:05,711189
0,2,0,-5,0,0,-1,1,2021-08-07 11:50:05,711189
0,-1,-1,1,1,0,1,-1,2021-08-07 11:50:05,727188
-1,-3,-2,-2,0,1,1,0,2021-08-07 11:50:05,743190
0,-1,-1,-4,-5,-2,1,0,2021-08-07 11:50:05,743190
-3,-3,-3,-5,-6,-3,-1,-4,2021-08-07 11:50:05,743190
2,3,4,5,5,4,1,3,2021-08-07 11:50:05,743190
0,-2,2,4,-5,-4,-4,0,2021-08-07 11:50:05,743190
-3,-5,-8,-9,-5,-7,-7,-4,2021-08-07 11:50:05,743190
0,-1,-3,-9,-8,-2,3,0,2021-08-07 11:50:05,743190
4,1,-1,-4,-8,4,5,3,2021-08-07 11:50:05,759190
6,5,6,12,18,9,4,4,2021-08-07 11:50:05,759190
-15,-12,-8,-4,-8,-20,-18,-15,2021-08-07 11:50:05,759190
-3,-5,-5,-2,-3,-7,-5,-3,2021-08-07 11:50:05,759190
0,-3,-3,-7,-9,-4,1,0,2021-08-07 11:50:05,791188
0,-2,-3,-4,-7,2,6,3,2021-08-07 11:50:05,807190
4,2,1,-7,-2,5,4,1,2021-08-07 11:50:05,807190
2,2,5,22,16,7,1,0,2021-08-07 11:50:05,807190
-5,-4,-3,0,-1,-1,-5,-3,2021-08-07 11:50:05,807190
1,1,-2,-2,-2,0,0,-1,2021-08-07 11:50:05,807190
2,0,-3,0,3,3,3,2,2021-08-07 11:50:05,807190
-3,-4,-4,-7,-6,-3,-3,-2,2021-08-07 11:50:05,807190
0,0,0,5,3,2,3,1,2021-08-07 11:50:05,823190
-1,0,6,17,9,1,-2,-5,2021-08-07 11:50:05,839189
-2,0,0,-6,-8,-2,-2,-2,2021-08-07 11:50:05,839189
-3,0,2,1,1,2,0,0,2021-08-07 11:50:05,839189
-3,-3,-2,4,6,-2,-6,-5,2021-08-07 11:50:05,839189
1,1,-2,-7,1,-2,-1,0,2021-08-07 11:50:05,839189
1,1,-1,-5,-4,0,2,1,2021-08-07 11:50:05,839189
2,-1,-1,3,-2,4,8,4,2021-08-07 11:50:05,840190
4,4,4,2,4,3,-1,1,2021-08-07 11:50:05,870190
-2,-2,-1,-1,5,-7,-9,-5,2021-08-07 11:50:05,885189
-1,-2,-1,11,3,-3,-5,-2,2021-08-07 11:50:05,885189
-5,-5,-6,-13,-13,-8,-4,-6,2021-08-07 11:50:05,885189
0,-1,0,2,2,2,4,0,2021-08-07 11:50:05,886190
11,10,7,5,12,22,22,15,2021-08-07 11:50:05,886190
2,2,3,2,4,2,-3,0,2021-08-07 11:50:05,886190
-10,-7,-5,-3,-3,-5,-1,-7,2021-08-07 11:50:05,886190
2,1,2,3,2,10,5,4,2021-08-07 11:50:05,902190
-2,-5,-6,-9,-11,-17,-17,-4,2021-08-07 11:50:05,918189
-18,-13,-12,-15,-20,-36,-26,-20,2021-08-07 11:50:05,934188
6,5,4,4,9,10,7,8,2021-08-07 11:50:05,934188
-5,-7,-8,-13,-8,-6,-2,-1,2021-08-07 11:50:05,934188
4,5,-1,-11,-11,0,4,3,2021-08-07 11:50:05,934188
9,7,10,22,28,30,21,10,2021-08-07 11:50:05,934188
0,-1,-4,-2,-3,-6,-7,-2,2021-08-07 11:50:05,935190
-11,-6,-6,-16,-19,-18,-11,-9,2021-08-07 11:50:05,935190
0,-3,-5,-4,-3,9,7,3,2021-08-07 11:50:05,935190
12,9,8,18,20,18,16,11,2021-08-07 11:50:05,950189
-19,-14,-5,-5,-7,-21,-23,-23,2021-08-07 11:50:05,950189
-7,-4,-5,-6,-6,-3,-2,-1,2021-08-07 11:50:05,966191
-6,-7,-5,-2,-5,-10,-7,-6,2021-08-07 11:50:05,982189
-3,-5,-9,-21,-23,-15,-3,-3,2021-08-07 11:50:05,997188
10,9,2,-6,-3,7,8,10,2021-08-07 11:50:05,997188
0,0,2,1,-4,-9,-8,-5,2021-08-07 11:50:05,997188
-8,-4,3,9,10,4,0,-4,2021-08-07 11:50:05,997188
3,2,3,4,7,16,11,7,2021-08-07 11:50:05,997188
2,1,2,5,7,4,1,4,2021-08-07 11:50:05,997188
2,2,1,-2,-1,-3,-4,-2,2021-08-07 11:50:05,997188
-1,1,-1,-4,-10,-2,0,0,2021-08-07 11:50:05,997188
0,2,1,-5,-10,-2,-1,-1,2021-08-07 11:50:05,997188
-2,2,5,3,-1,-4,-2,-4,2021-08-07 11:50:05,998190
5,2,4,17,34,18,10,5,2021-08-07 11:50:06,028190
-7,-12,-11,-7,3,-6,-4,-4,2021-08-07 11:50:06,028190
-14,-13,-18,-33,-44,-26,-18,-11,2021-08-07 11:50:06,028190
1,-2,-10,-20,-11,-3,-1,2,2021-08-07 11:50:06,028190
7,8,10,14,15,12,7,6,2021-08-07 11:50:06,044189
-3,0,2,7,-2,-4,-5,-6,2021-08-07 11:50:06,060189
-5,-5,-4,-15,-12,-9,-5,-5,2021-08-07 11:50:06,060189
6,5,7,13,9,7,4,4,2021-08-07 11:50:06,060189
0,3,3,10,2,-2,-1,-1,2021-08-07 11:50:06,060189
-5,-4,-5,-11,-11,-5,-4,-3,2021-08-07 11:50:06,060189
-1,-3,0,4,5,1,0,0,2021-08-07 11:50:06,060189
1,-1,1,10,14,5,1,0,2021-08-07 11:50:06,060189
-4,-4,-6,-11,-14,-9,-4,-3,2021-08-07 11:50:06,092189
-7,-6,-8,-24,-27,-12,-4,-5,2021-08-07 11:50:06,092189
4,3,6,22,28,17,7,3,2021-08-07 11:50:06,092189
3,2,4,7,10,4,1,3,2021-08-07 11:50:06,092189
-4,-4,-6,-6,-4,-2,-3,-5,2021-08-07 11:50:06,092189
-1,1,2,5,0,2,2,1,2021-08-07 11:50:06,092189
-1,-3,-2,-10,-10,-5,-3,-2,2021-08-07 11:50:06,108191
0,0,-1,6,4,-3,-3,0,2021-08-07 11:50:06,108191
-3,0,-2,-5,-7,-2,-2,1,2021-08-07 11:50:06,123190
-3,-2,-4,0,6,0,-2,-1,2021-08-07 11:50:06,123190
1,1,2,8,14,2,1,2,2021-08-07 11:50:06,123190
-4,-4,-5,-5,-8,-2,-3,-2,2021-08-07 11:50:06,123190
3,2,4,3,-4,-5,0,2,2021-08-07 11:50:06,155190
5,6,4,1,5,2,1,2,2021-08-07 11:50:06,155190
1,0,1,3,5,2,0,2,2021-08-07 11:50:06,155190
-4,-5,-7,-21,-23,-8,-2,-4,2021-08-07 11:50:06,155190
-2,-2,-3,6,6,1,-3,-1,2021-08-07 11:50:06,155190
0,-1,1,4,7,2,-2,-1,2021-08-07 11:50:06,155190
1,2,3,9,4,3,2,2,2021-08-07 11:50:06,171189
0,-2,-4,-8,-14,-6,-1,-2,2021-08-07 11:50:06,171189
1,-1,-4,-14,-5,1,-2,-1,2021-08-07 11:50:06,187192
0,2,4,6,7,1,0,-1,2021-08-07 11:50:06,203187
0,-1,-3,-3,4,3,0,0,2021-08-07 11:50:06,219190
0,0,4,9,5,3,1,3,2021-08-07 11:50:06,235189
1,3,4,2,-1,-1,0,0,2021-08-07 11:50:06,235189
-1,-2,-1,2,2,1,-1,-1,2021-08-07 11:50:06,235189
0,1,1,-1,-4,-2,0,0,2021-08-07 11:50:06,235189
-1,0,0,5,6,2,-1,0,2021-08-07 11:50:06,235189
0,-1,-3,-6,-7,-2,0,1,2021-08-07 11:50:06,235189
-2,-2,-2,-3,-7,-3,-3,-1,2021-08-07 11:50:06,235189
-2,0,0,5,5,0,-2,-3,2021-08-07 11:50:06,236190
1,1,0,0,-1,1,1,0,2021-08-07 11:50:06,236190
-2,-1,-3,-3,-2,-1,0,0,2021-08-07 11:50:06,236190
0,1,1,2,-1,-1,-1,0,2021-08-07 11:50:06,236190
-4,-2,-2,-4,-5,-4,-2,-2,2021-08-07 11:50:06,236190
0,-3,-3,-13,-14,-5,-1,-2,2021-08-07 11:50:06,236190
5,5,10,25,31,15,7,4,2021-08-07 11:50:06,267188
-2,-3,-2,-8,-6,-4,-3,-2,2021-08-07 11:50:06,267188
-2,-2,0,2,2,0,-2,-1,2021-08-07 11:50:06,267188
1,4,4,6,2,1,1,2,2021-08-07 11:50:06,267188
1,-2,0,6,4,0,-1,-1,2021-08-07 11:50:06,283192
-2,-3,-6,-7,2,0,-1,-1,2021-08-07 11:50:06,299188
-2,-1,-3,-9,-9,-4,-1,-3,2021-08-07 11:50:06,315191
-5,-3,-2,0,-4,-2,-3,-2,2021-08-07 11:50:06,315191
-4,0,1,-2,-6,-3,-2,-1,2021-08-07 11:50:06,315191
1,-1,0,2,-5,-1,0,1,2021-08-07 11:50:06,315191
-3,-3,-2,-5,-5,-3,-1,-1,2021-08-07 11:50:06,315191
2,3,1,6,9,3,0,0,2021-08-07 11:50:06,315191
-3,-2,-1,-5,-6,-4,-1,-3,2021-08-07 11:50:06,326189
0,1,5,4,-1,-1,-1,-2,2021-08-07 11:50:06,326189
7,8,10,21,14,8,5,4,2021-08-07 11:50:06,346188
-1,-3,-6,-6,-4,-1,-1,-2,2021-08-07 11:50:06,362190
-7,-11,-22,-42,-21,-12,-7,-5,2021-08-07 11:50:06,362190
-3,0,1,-7,-4,-4,-2,0,2021-08-07 11:50:06,362190
1,2,13,5,4,1,-2,0,2021-08-07 11:50:06,362190
-2,-4,-12,2,-3,-2,-1,-1,2021-08-07 11:50:06,362190
0,-5,-17,-9,-8,-1,-1,0,2021-08-07 11:50:06,362190
-3,-1,-3,-1,3,0,0,-2,2021-08-07 11:50:06,363190
-3,-3,-5,-9,-12,-5,-3,-2,2021-08-07 11:50:06,363190
5,5,17,19,23,8,3,2,2021-08-07 11:50:06,363190
-2,-1,6,2,-6,-4,0,-3,2021-08-07 11:50:06,394188
1,1,-3,3,0,-1,0,1,2021-08-07 11:50:06,394188
0,-3,-1,0,-5,-2,-2,-1,2021-08-07 11:50:06,394188
-4,-2,-3,-2,1,-1,-2,-1,2021-08-07 11:50:06,394188
0,1,2,5,-3,-4,-3,-2,2021-08-07 11:50:06,394188
2,3,2,2,2,3,2,1,2021-08-07 11:50:06,394188
-1,-1,-5,-5,-5,-5,-2,-2,2021-08-07 11:50:06,410191
0,-2,-6,-9,1,1,0,0,2021-08-07 11:50:06,410191
1,2,4,4,3,0,-1,0,2021-08-07 11:50:06,441190
-1,-4,-6,-11,-10,-5,-1,-3,2021-08-07 11:50:06,441190
-1,0,-5,-5,0,0,-1,0,2021-08-07 11:50:06,441190
-3,0,7,7,2,-1,-3,-3,2021-08-07 11:50:06,441190
0,3,0,6,3,3,2,3,2021-08-07 11:50:06,441190
-2,-2,-7,-12,-8,-4,-2,-1,2021-08-07 11:50:06,441190
0,-2,-7,-6,-3,0,0,-1,2021-08-07 11:50:06,456189
-1,0,2,-5,-8,-4,-2,-2,2021-08-07 11:50:06,472189
-1,1,7,9,11,1,-1,-2,2021-08-07 11:50:06,472189
-1,-3,1,11,5,1,-1,0,2021-08-07 11:50:06,472189
0,0,0,8,8,4,2,1,2021-08-07 11:50:06,472189
1,0,1,-1,-6,-3,0,-1,2021-08-07 11:50:06,472189
-5,-6,-6,-14,-21,-11,-4,-5,2021-08-07 11:50:06,487188
5,7,9,23,24,12,4,6,2021-08-07 11:50:06,487188
-5,-6,-11,-28,-18,-9,-4,-4,2021-08-07 11:50:06,487188
1,0,0,9,7,4,2,3,2021-08-07 11:50:06,487188
3,2,3,4,-1,0,1,2,2021-08-07 11:50:06,503189
0,4,11,9,4,3,1,-1,2021-08-07 11:50:06,503189
-3,1,16,23,7,3,-1,-2,2021-08-07 11:50:06,503189
0,-1,0,5,-8,-3,-1,-2,2021-08-07 11:50:06,503189
-5,-10,-39,-52,-23,-7,-6,-2,2021-08-07 11:50:06,519189
-10,-14,-21,-38,-21,-12,-8,-7,2021-08-07 11:50:06,535190
-3,-6,-13,-8,-4,-3,-3,-3,2021-08-07 11:50:06,551190
-2,-1,1,-7,-2,-2,-2,-1,2021-08-07 11:50:06,551190
5,11,29,53,31,15,9,5,2021-08-07 11:50:06,551190
5,6,9,14,5,4,3,1,2021-08-07 11:50:06,551190
-2,0,3,-2,-3,-3,-2,-1,2021-08-07 11:50:06,551190
0,2,3,2,-1,1,1,-1,2021-08-07 11:50:06,551190
-4,-4,-5,-7,-12,-8,-5,-6,2021-08-07 11:50:06,566189
-1,0,-1,4,10,4,2,-1,2021-08-07 11:50:06,582190
2,2,2,2,1,0,2,1,2021-08-07 11:50:06,582190
-2,-4,-8,-14,-11,-5,-2,-1,2021-08-07 11:50:06,582190
3,5,12,22,21,8,3,3,2021-08-07 11:50:06,582190
-3,-3,-4,-11,-17,-8,-3,-3,2021-08-07 11:50:06,582190
0,-3,-7,-9,-5,-3,-2,-1,2021-08-07 11:50:06,582190
-3,-2,-9,-10,-3,-2,-1,-1,2021-08-07 11:50:06,582190
0,-2,-2,-12,-5,-4,-4,-3,2021-08-07 11:50:06,598188
-4,-3,2,9,0,0,-1,-2,2021-08-07 11:50:06,614189
-3,-4,-9,-7,-6,0,-1,0,2021-08-07 11:50:06,614189
-1,-2,-4,-15,-4,-3,-1,-3,2021-08-07 11:50:06,614189
-2,-1,5,3,1,0,0,-3,2021-08-07 11:50:06,630190
-1,-1,-5,2,-2,0,-1,-1,2021-08-07 11:50:06,646188
1,3,5,7,4,1,0,1,2021-08-07 11:50:06,662190
2,-1,2,3,-2,0,2,1,2021-08-07 11:50:06,662190
0,-1,-3,-7,-9,-1,-1,-2,2021-08-07 11:50:06,662190
3,4,7,16,24,9,6,4,2021-08-07 11:50:06,662190
-2,-3,-6,-1,2,0,2,-1,2021-08-07 11:50:06,662190
-3,-4,-2,-3,-4,-4,-3,-3,2021-08-07 11:50:06,662190
-3,-2,2,-2,-8,-2,-4,-2,2021-08-07 11:50:06,663190
-4,-2,-2,-3,-5,-3,-3,-4,2021-08-07 11:50:06,663190
-2,-1,0,5,18,3,-2,-4,2021-08-07 11:50:06,663190
2,5,4,6,1,0,-1,0,2021-08-07 11:50:06,663190
-1,-2,-3,-8,-8,-4,-1,1,2021-08-07 11:50:06,694189
-3,-3,-6,-9,-8,-5,-5,-1,2021-08-07 11:50:06,710189
2,2,0,-6,-7,-5,-1,1,2021-08-07 11:50:06,710189
0,0,-1,4,3,0,0,-2,2021-08-07 11:50:06,710189
3,3,4,14,17,7,3,2,2021-08-07 11:50:06,710189
-3,-6,-5,-10,-12,-5,-4,-3,2021-08-07 11:50:06,710189
-1,-1,-3,-6,-1,-1,1,-1,2021-08-07 11:50:06,710189
-3,-3,-5,-5,-7,-4,-3,-2,2021-08-07 11:50:06,711190
-1,3,7,15,10,5,2,2,2021-08-07 11:50:06,726190
4,3,4,11,12,4,2,1,2021-08-07 11:50:06,726190
-1,-3,3,4,-10,-3,-1,-3,2021-08-07 11:50:06,726190
-4,-5,-11,-21,-9,-2,-2,-1,2021-08-07 11:50:06,726190
-1,-3,-1,8,14,2,0,-1,2021-08-07 11:50:06,757191
-2,-5,-10,-18,-17,-8,-4,-3,2021-08-07 11:50:06,757191
-2,-1,-2,3,-1,-2,-3,-3,2021-08-07 11:50:06,757191
-1,-1,3,5,-2,1,1,-1,2021-08-07 11:50:06,757191
4,4,7,11,7,3,1,1,2021-08-07 11:50:06,761190
-1,1,5,-2,-4,-2,0,-1,2021-08-07 11:50:06,761190
-5,-5,-13,-12,-14,-6,-3,0,2021-08-07 11:50:06,761190
1,-1,3,14,16,4,1,0,2021-08-07 11:50:06,762190
-4,-4,-4,-10,-8,-5,-3,-2,2021-08-07 11:50:06,789190
-1,0,3,10,5,1,-1,0,2021-08-07 11:50:06,789190
0,0,1,-4,-5,-1,-2,-1,2021-08-07 11:50:06,789190
-4,-2,-4,-6,0,-2,-3,-1,2021-08-07 11:50:06,789190
-1,1,3,4,2,0,-2,1,2021-08-07 11:50:06,805189
-1,-3,-4,-14,-9,-4,-2,-1,2021-08-07 11:50:06,805189
3,1,0,5,7,2,1,1,2021-08-07 11:50:06,805189
-1,-1,-1,4,4,3,0,-2,2021-08-07 11:50:06,805189
-2,-2,-5,-7,-9,-5,-3,-3,2021-08-07 11:50:06,836188
-1,1,2,9,4,2,2,-2,2021-08-07 11:50:06,851191
1,2,0,-5,-7,-2,0,1,2021-08-07 11:50:06,867189
1,0,3,10,10,3,2,1,2021-08-07 11:50:06,867189
-4,-3,-7,-15,-14,-6,-5,-5,2021-08-07 11:50:06,867189
-1,-1,-2,-7,-3,-1,-1,0,2021-08-07 11:50:06,867189
-4,-4,-5,-12,-8,-5,-5,-3,2021-08-07 11:50:06,867189
3,4,6,7,-2,-1,0,1,2021-08-07 11:50:06,867189
-2,-5,-5,-10,-6,-3,-1,-1,2021-08-07 11:50:06,868189
3,3,4,15,7,2,1,2,2021-08-07 11:50:06,883188
0,1,2,7,3,2,0,-1,2021-08-07 11:50:06,899190
-1,-1,-3,-4,-3,-1,-1,-1,2021-08-07 11:50:06,899190
-2,-2,-6,-13,-8,-3,-1,-1,2021-08-07 11:50:06,899190
-2,-6,-15,-24,-12,-6,-3,-3,2021-08-07 11:50:06,899190
-1,-1,6,7,4,1,0,0,2021-08-07 11:50:06,899190
-3,-3,0,4,0,1,-1,0,2021-08-07 11:50:06,900189
-1,-4,-11,1,0,-1,1,0,2021-08-07 11:50:06,900189
1,1,4,8,5,2,0,2,2021-08-07 11:50:06,900189
1,1,5,7,2,2,2,2,2021-08-07 11:50:06,915189
3,3,5,3,15,5,4,3,2021-08-07 11:50:06,915189
1,1,3,-3,-7,-4,-2,-2,2021-08-07 11:50:06,931190
-3,-3,-4,-5,-1,-2,-3,-3,2021-08-07 11:50:06,931190
-4,-2,-3,-6,-8,-6,-4,-3,2021-08-07 11:50:06,931190
-6,-6,-11,-21,-26,-12,-8,-5,2021-08-07 11:50:06,931190
5,6,11,17,20,11,4,5,2021-08-07 11:50:06,947188
1,3,5,17,9,2,2,0,2021-08-07 11:50:06,963188
2,3,5,11,2,1,3,1,2021-08-07 11:50:06,963188
-2,-3,-2,-1,-5,-4,-2,-4,2021-08-07 11:50:06,963188
-2,-1,-7,-15,-15,-5,-1,-2,2021-08-07 11:50:06,963188
-3,-3,-3,-12,2,0,-2,-2,2021-08-07 11:50:06,963188
0,0,0,4,9,3,2,0,2021-08-07 11:50:06,963188
-3,-4,-10,-18,-17,-8,-3,-2,2021-08-07 11:50:06,963188
-1,0,2,7,5,2,0,-1,2021-08-07 11:50:06,994190
-1,0,2,4,-6,-4,-3,-2,2021-08-07 11:50:06,994190
0,-3,-5,-5,0,1,-2,-2,2021-08-07 11:50:06,994190
2,2,4,9,13,3,1,0,2021-08-07 11:50:06,994190
-1,-2,0,0,0,-3,-1,-1,2021-08-07 11:50:07,010191
0,-1,1,-4,-6,-4,1,1,2021-08-07 11:50:07,026189
-2,-2,-3,-5,-6,-4,-3,-1,2021-08-07 11:50:07,026189
0,-1,-2,0,-2,-2,-3,-2,2021-08-07 11:50:07,026189
-1,-3,-3,-6,-6,-2,-2,-2,2021-08-07 11:50:07,026189
-2,-3,-4,0,6,3,1,1,2021-08-07 11:50:07,026189
1,0,0,-1,1,0,1,0,2021-08-07 11:50:07,026189
1,2,2,4,1,1,3,0,2021-08-07 11:50:07,027190
-1,-1,4,7,1,-1,-1,-1,2021-08-07 11:50:07,042189
-1,-1,-2,-3,-4,-2,-2,-2,2021-08-07 11:50:07,058190
3,3,9,16,16,5,2,0,2021-08-07 11:50:07,073191
-1,-2,-9,-13,-8,-2,-1,-1,2021-08-07 11:50:07,089189
-2,-5,-7,-23,-10,-5,-2,-3,2021-08-07 11:50:07,089189
-3,-2,-2,6,2,1,-1,-2,2021-08-07 11:50:07,089189
-1,-3,0,1,1,-1,-1,0,2021-08-07 11:50:07,089189
-1,0,4,4,-1,-1,-2,0,2021-08-07 11:50:07,089189
0,0,2,0,-12,-5,-1,-1,2021-08-07 11:50:07,089189
3,1,2,1,6,2,1,2,2021-08-07 11:50:07,089189
1,2,1,6,8,3,0,-1,2021-08-07 11:50:07,090190
-1,0,1,-1,0,0,0,-2,2021-08-07 11:50:07,090190
1,0,-2,4,3,1,-1,0,2021-08-07 11:50:07,105189
-4,-4,-6,-13,-16,-8,-6,-4,2021-08-07 11:50:07,105189
-3,-2,-4,-9,-14,-4,-1,-2,2021-08-07 11:50:07,105189
-4,-4,3,3,13,2,-1,-1,2021-08-07 11:50:07,105189
2,2,-2,12,12,5,3,2,2021-08-07 11:50:07,137188
2,0,0,1,-3,-1,2,1,2021-08-07 11:50:07,137188
0,-1,-3,-4,-6,-3,-4,-1,2021-08-07 11:50:07,137188
0,0,3,1,-4,-1,-2,0,2021-08-07 11:50:07,137188
-5,-5,-3,-11,-5,-5,-3,-4,2021-08-07 11:50:07,137188
-1,-1,-2,-3,-2,-2,-1,-1,2021-08-07 11:50:07,138190
-3,-4,-5,-8,-10,-6,-3,-4,2021-08-07 11:50:07,153190
6,5,6,9,21,8,6,4,2021-08-07 11:50:07,153190
0,1,1,-1,3,1,0,-1,2021-08-07 11:50:07,169190
-4,-5,-4,-9,-15,-9,-3,-1,2021-08-07 11:50:07,185189
-3,-3,-3,1,12,4,1,-1,2021-08-07 11:50:07,200191
3,3,2,9,3,2,1,0,2021-08-07 11:50:07,200191
-1,0,0,-3,-6,-2,-2,-3,2021-08-07 11:50:07,200191
2,0,1,5,6,4,1,1,2021-08-07 11:50:07,200191
-1,1,1,-3,-7,-4,0,0,2021-08-07 11:50:07,200191
-4,-3,-3,-6,-7,-3,0,-1,2021-08-07 11:50:07,201190
0,0,2,9,12,4,0,0,2021-08-07 11:50:07,217188
-5,-3,-3,-4,-8,-5,-3,-2,2021-08-07 11:50:07,217188
0,-1,-2,0,2,-1,0,1,2021-08-07 11:50:07,217188
0,-1,-5,-4,-10,-4,-2,0,2021-08-07 11:50:07,217188
2,0,3,-1,-4,1,-1,0,2021-08-07 11:50:07,217188
-2,-2,-3,1,12,5,0,-2,2021-08-07 11:50:07,217188
-2,-1,-2,2,1,-1,-1,-3,2021-08-07 11:50:07,233188
0,-2,-1,-5,-5,-3,1,0,2021-08-07 11:50:07,249189
-4,0,-1,-1,-9,-5,-2,0,2021-08-07 11:50:07,249189
3,3,3,4,11,6,1,1,2021-08-07 11:50:07,265189
-1,0,3,10,0,0,2,1,2021-08-07 11:50:07,281189
-4,-3,-2,-1,-2,-1,-1,-4,2021-08-07 11:50:07,281189
1,-1,-3,-1,4,1,2,0,2021-08-07 11:50:07,281189
-2,-2,-4,-13,-15,-8,-4,-2,2021-08-07 11:50:07,281189
0,-2,1,-4,5,3,-1,-1,2021-08-07 11:50:07,297188
-3,-2,1,9,3,1,-2,-1,2021-08-07 11:50:07,313189
0,0,-4,-4,3,2,0,0,2021-08-07 11:50:07,313189
-3,-1,-2,-3,-9,-5,-3,-4,2021-08-07 11:50:07,313189
3,4,6,15,9,5,4,3,2021-08-07 11:50:07,313189
2,1,2,-2,-5,-2,0,0,2021-08-07 11:50:07,313189
0,0,-1,-1,2,-1,-1,-2,2021-08-07 11:50:07,314189
1,1,3,-6,-11,-4,-1,0,2021-08-07 11:50:07,314189
-4,-4,-7,-10,-10,-5,-2,-3,2021-08-07 11:50:07,314189
2,1,5,13,18,7,2,0,2021-08-07 11:50:07,314189
1,2,6,13,8,3,1,1,2021-08-07 11:50:07,314189
0,-2,-3,7,6,4,1,0,2021-08-07 11:50:07,314189
-4,-4,-8,-20,-17,-7,-6,-3,2021-08-07 11:50:07,345188
-1,-2,-8,-16,-13,-5,-2,-2,2021-08-07 11:50:07,361189
-3,-4,-6,-5,0,-1,-2,-3,2021-08-07 11:50:07,361189
0,3,8,8,1,1,0,0,2021-08-07 11:50:07,361189
-1,-1,0,-5,-5,-3,-2,-1,2021-08-07 11:50:07,361189
4,7,7,18,17,8,4,3,2021-08-07 11:50:07,361189
-3,-5,-7,-13,-11,-5,-4,-3,2021-08-07 11:50:07,361189
-5,-5,-8,-15,-4,-2,-4,-4,2021-08-07 11:50:07,362190
-1,-2,-1,4,4,1,0,-1,2021-08-07 11:50:07,362190
-4,-5,-4,-7,-11,-6,-5,-2,2021-08-07 11:50:07,362190
-1,0,3,1,-10,-5,-1,-1,2021-08-07 11:50:07,377190
1,1,2,10,5,2,1,1,2021-08-07 11:50:07,377190
3,1,3,9,7,3,0,2,2021-08-07 11:50:07,393188
-1,0,-1,-7,-2,-2,0,0,2021-08-07 11:50:07,393188
-1,-4,-10,-15,-8,-2,-4,-2,2021-08-07 11:50:07,408189
-4,-6,-6,-6,-7,-6,-5,-4,2021-08-07 11:50:07,408189
-3,-2,-5,-10,-5,-2,-3,-3,2021-08-07 11:50:07,423190
3,3,6,13,12,5,2,0,2021-08-07 11:50:07,423190
-2,0,2,-3,-12,-7,-1,-1,2021-08-07 11:50:07,423190
1,-3,-3,-6,-8,-3,-1,1,2021-08-07 11:50:07,423190
7,7,12,29,32,13,6,6,2021-08-07 11:50:07,423190
2,2,-1,-4,-9,-3,0,1,2021-08-07 11:50:07,424192
-2,-1,1,6,5,-1,-3,-1,2021-08-07 11:50:07,454188
-6,-4,-5,-17,-12,-6,-4,-4,2021-08-07 11:50:07,454188
-4,-3,-8,-15,-12,-7,-3,-3,2021-08-07 11:50:07,454188
-4,-7,-13,-13,-10,-6,-3,-4,2021-08-07 11:50:07,470189
1,4,6,16,5,4,2,2,2021-08-07 11:50:07,486188
4,4,2,1,7,6,4,4,2021-08-07 11:50:07,486188
5,5,6,17,13,6,5,2,2021-08-07 11:50:07,486188
-7,-10,-13,-18,-11,-8,-3,-5,2021-08-07 11:50:07,486188
-4,-2,-3,0,-1,0,-1,-2,2021-08-07 11:50:07,486188
-5,-3,-2,2,3,0,-3,-5,2021-08-07 11:50:07,486188
-6,-3,0,-10,-10,-5,-5,-5,2021-08-07 11:50:07,487190
0,1,5,4,-8,-5,-6,-2,2021-08-07 11:50:07,487190
2,2,2,-2,5,2,3,3,2021-08-07 11:50:07,502190
5,5,4,8,11,6,5,3,2021-08-07 11:50:07,518188
3,1,-1,4,5,4,0,1,2021-08-07 11:50:07,518188
0,-1,1,-1,1,-1,-1,-1,2021-08-07 11:50:07,518188
-4,-4,-5,-15,-15,-7,-3,-2,2021-08-07 11:50:07,518188
-1,-2,-1,-3,-9,-5,-3,-1,2021-08-07 11:50:07,518188
0,-2,-6,-6,3,1,1,1,2021-08-07 11:50:07,518188
-5,-5,-8,-13,-7,-5,-3,-3,2021-08-07 11:50:07,519190
0,-2,-2,0,0,0,-2,-2,2021-08-07 11:50:07,550190
1,-1,-1,-2,-4,-4,-1,0,2021-08-07 11:50:07,550190
-3,-3,-1,-1,-10,-5,-2,-3,2021-08-07 11:50:07,550190
1,2,3,7,10,5,2,0,2021-08-07 11:50:07,550190
-1,-4,-3,-1,-3,-1,-1,-2,2021-08-07 11:50:07,582189
3,4,5,11,4,3,2,3,2021-08-07 11:50:07,598188
-2,-1,-3,-8,-4,-2,-3,-1,2021-08-07 11:50:07,614188
0,0,1,7,1,0,-1,0,2021-08-07 11:50:07,614188
2,3,5,13,8,2,2,0,2021-08-07 11:50:07,614188
-3,-4,-6,-14,-8,-5,-3,-4,2021-08-07 11:50:07,614188
-2,-2,-4,-7,-5,0,1,-1,2021-08-07 11:50:07,614188
0,2,3,8,6,2,1,1,2021-08-07 11:50:07,614188
-3,-3,-1,-2,-3,-4,-4,-4,2021-08-07 11:50:07,614188
0,2,0,12,17,5,1,0,2021-08-07 11:50:07,614188
1,-1,-1,-4,-7,-3,-3,-1,2021-08-07 11:50:07,615191
-1,-2,-1,-4,-8,-1,-2,0,2021-08-07 11:50:07,615191
0,0,3,4,3,1,0,0,2021-08-07 11:50:07,629190
-1,1,0,2,-1,2,1,-2,2021-08-07 11:50:07,629190
-2,-4,-5,-4,-3,-3,-3,-2,2021-08-07 11:50:07,629190
-1,-2,-5,-8,-9,-1,-2,0,2021-08-07 11:50:07,629190
0,-1,0,-9,3,1,0,2,2021-08-07 11:50:07,640190
-1,3,5,4,2,1,1,0,2021-08-07 11:50:07,640190
0,-3,-10,1,-4,0,0,0,2021-08-07 11:50:07,640190
2,3,5,14,17,6,2,2,2021-08-07 11:50:07,641190
-1,0,1,-3,-3,-2,-1,-1,2021-08-07 11:50:07,676188
0,0,4,16,5,2,1,0,2021-08-07 11:50:07,692190
1,3,2,-3,-4,-3,0,0,2021-08-07 11:50:07,692190
-4,-7,-10,-19,-16,-7,-3,-4,2021-08-07 11:50:07,692190
-2,-1,-4,-4,6,-1,-1,-1,2021-08-07 11:50:07,692190
-2,-2,-1,-6,-3,-1,-2,-2,2021-08-07 11:50:07,692190
-1,0,7,11,7,0,-1,-1,2021-08-07 11:50:07,692190
2,3,4,8,1,2,2,1,2021-08-07 11:50:07,693190
1,3,1,-2,3,2,-1,0,2021-08-07 11:50:07,708189
-5,-8,-14,-21,-12,-5,-4,-4,2021-08-07 11:50:07,723188
-1,-1,-1,-3,-7,-4,-3,-1,2021-08-07 11:50:07,755188
-2,-1,1,-5,-3,-1,-2,-3,2021-08-07 11:50:07,755188
0,-1,-2,-6,-9,-4,-2,-2,2021-08-07 11:50:07,755188
6,4,5,18,26,11,6,2,2021-08-07 11:50:07,755188
1,0,2,7,10,5,3,1,2021-08-07 11:50:07,755188
-3,-2,-3,-2,0,-3,-1,-1,2021-08-07 11:50:07,755188
2,3,4,5,-4,-1,0,0,2021-08-07 11:50:07,756189
-2,-2,0,1,-8,-5,-2,-1,2021-08-07 11:50:07,756189
-4,-4,-5,-15,-13,-5,-2,-2,2021-08-07 11:50:07,756189
1,0,1,2,2,2,-1,-1,2021-08-07 11:50:07,756189
-4,-5,-6,-9,-12,-6,-3,-3,2021-08-07 11:50:07,756189
-1,1,3,4,6,2,1,-1,2021-08-07 11:50:07,756189
2,1,4,5,7,1,2,1,2021-08-07 11:50:07,770190
1,0,-2,1,-3,-1,1,1,2021-08-07 11:50:07,786188
-1,0,0,4,5,2,0,-1,2021-08-07 11:50:07,802188
-2,-3,0,-10,-15,-6,-4,-2,2021-08-07 11:50:07,818189
-3,-1,-7,-1,0,1,-3,0,2021-08-07 11:50:07,834188
1,2,3,4,6,0,0,1,2021-08-07 11:50:07,834188
3,-1,-2,-1,6,4,3,1,2021-08-07 11:50:07,834188
-3,-6,-7,-7,-8,-6,-5,-2,2021-08-07 11:50:07,834188
-3,-2,-1,-11,-10,-4,-3,-2,2021-08-07 11:50:07,834188
3,5,6,5,0,1,1,3,2021-08-07 11:50:07,834188
-1,-2,0,11,3,1,0,-1,2021-08-07 11:50:07,835189
0,1,-2,-2,7,4,1,0,2021-08-07 11:50:07,835189
0,-2,-1,-3,-5,-4,-1,-3,2021-08-07 11:50:07,835189
-2,-3,-5,-10,-5,-1,-2,-3,2021-08-07 11:50:07,835189
-2,1,5,6,-2,-1,-1,-1,2021-08-07 11:50:07,849189
0,0,-2,5,0,0,-1,0,2021-08-07 11:50:07,865188
-1,-1,-1,-3,0,-1,-2,-1,2021-08-07 11:50:07,881190
0,1,1,3,3,3,0,0,2021-08-07 11:50:07,881190
-2,-1,-2,-4,-5,-3,-3,1,2021-08-07 11:50:07,881190
-2,-2,-1,-1,-6,-3,-1,-1,2021-08-07 11:50:07,881190
0,1,3,2,2,0,1,-1,2021-08-07 11:50:07,881190
-2,-4,-4,-5,-5,-5,-2,-2,2021-08-07 11:50:07,881190
-2,-4,-10,-19,-14,-6,-4,0,2021-08-07 11:50:07,882191
1,2,0,4,8,2,-1,1,2021-08-07 11:50:07,882191
1,3,7,12,9,4,2,0,2021-08-07 11:50:07,897189
3,3,9,26,26,11,3,2,2021-08-07 11:50:07,897189
-1,0,-1,-1,2,1,0,-1,2021-08-07 11:50:07,913188
-6,-7,-11,-24,-22,-10,-5,-5,2021-08-07 11:50:07,929189
-4,-6,-5,-26,-19,-9,-7,-4,2021-08-07 11:50:07,929189
-6,-9,-16,-13,-14,-7,-5,-4,2021-08-07 11:50:07,929189
0,1,2,7,11,6,1,1,2021-08-07 11:50:07,929189
4,4,7,12,4,3,3,3,2021-08-07 11:50:07,929189
1,1,-2,2,-2,0,2,0,2021-08-07 11:50:07,929189
-2,2,5,3,-2,-1,-1,-2,2021-08-07 11:50:07,930189
-1,-1,1,2,2,1,0,-2,2021-08-07 11:50:07,945188
-2,-2,-3,-4,-7,-4,-2,-3,2021-08-07 11:50:07,961189
0,-3,-6,-9,-3,0,-2,-1,2021-08-07 11:50:07,992190
-4,-5,-6,-13,-9,-5,-2,-2,2021-08-07 11:50:08,008189
-1,-3,2,11,13,5,1,1,2021-08-07 11:50:08,024189
-1,-1,1,0,-6,-4,-1,0,2021-08-07 11:50:08,024189
1,2,0,5,6,3,1,0,2021-08-07 11:50:08,024189
-1,-4,-3,-4,-7,-4,-3,-1,2021-08-07 11:50:08,024189
-1,-1,1,-5,-3,-1,-1,-2,2021-08-07 11:50:08,024189
3,3,8,22,14,6,3,1,2021-08-07 11:50:08,024189
-2,-6,-9,-9,-8,-4,-2,-1,2021-08-07 11:50:08,024189
-5,-5,-13,-26,-20,-9,-7,-5,2021-08-07 11:50:08,024189
-1,-3,1,-2,-3,-3,0,-1,2021-08-07 11:50:08,024189
-4,-3,-6,-7,-11,-5,-4,-4,2021-08-07 11:50:08,024189
3,6,10,27,26,12,5,3,2021-08-07 11:50:08,025189
3,5,4,4,8,5,3,2,2021-08-07 11:50:08,025189
1,-2,-3,-4,-2,-3,0,-3,2021-08-07 11:50:08,025189
-3,-1,4,-2,-3,-3,-3,-2,2021-08-07 11:50:08,025189
-3,-5,-8,-5,-9,-8,-4,-3,2021-08-07 11:50:08,025189
-1,0,4,3,1,1,0,1,2021-08-07 11:50:08,025189
2,3,2,-2,-4,0,1,1,2021-08-07 11:50:08,056189
-1,-2,-3,-3,-4,-1,0,1,2021-08-07 11:50:08,056189
0,1,1,-2,7,4,0,-1,2021-08-07 11:50:08,056189
-3,-4,-8,-7,-3,-2,-3,-1,2021-08-07 11:50:08,056189
-2,-3,-2,6,2,-2,-1,0,2021-08-07 11:50:08,056189
-4,-4,-6,-9,0,-2,-2,-1,2021-08-07 11:50:08,056189
1,4,5,4,-4,-2,1,1,2021-08-07 11:50:08,065189
1,1,5,11,6,1,1,0,2021-08-07 11:50:08,065189
