EMG 1,EMG 2,EMG 3,EMG 4,EMG 5,EMG 6,EMG 7,EMG 8,Timestamp,Milliseconds
-2,-1,0,-1,-5,-3,-3,-2,2021-08-07 10:30:48,309427
-2,-1,2,6,11,2,-3,-2,2021-08-07 10:30:48,325425
1,0,1,3,-3,-2,-2,-2,2021-08-07 10:30:48,325425
0,-1,-2,0,2,0,-1,-2,2021-08-07 10:30:48,325425
0,-1,-4,-2,-1,-3,-1,1,2021-08-07 10:30:48,325425
-2,-2,-3,-4,-9,-4,-2,-1,2021-08-07 10:30:48,325425
0,1,2,5,8,4,2,2,2021-08-07 10:30:48,325425
1,0,-1,2,-1,1,-1,0,2021-08-07 10:30:48,325425
1,0,1,0,0,2,0,1,2021-08-07 10:30:48,325425
0,-1,0,-4,-6,-5,-2,-1,2021-08-07 10:30:48,325425
-3,-3,-5,-11,-8,-4,-4,-2,2021-08-07 10:30:48,325425
-2,-2,-1,3,5,2,1,0,2021-08-07 10:30:48,326427
-3,-3,-1,0,2,0,0,-3,2021-08-07 10:30:48,326427
1,1,-1,3,5,2,1,1,2021-08-07 10:30:48,326427
-3,-2,-1,-6,-10,-5,-1,-2,2021-08-07 10:30:48,357425
-1,-3,-2,-4,2,-1,0,-1,2021-08-07 10:30:48,357425
0,0,-3,-4,-5,-3,-1,-2,2021-08-07 10:30:48,357425
-2,-1,0,4,8,1,1,1,2021-08-07 10:30:48,357425
1,0,-1,0,-2,-2,0,0,2021-08-07 10:30:48,372461
-1,-2,0,0,-4,-2,-2,-2,2021-08-07 10:30:48,388428
-1,-3,-3,-4,-3,-2,-1,-1,2021-08-07 10:30:48,402426
-3,-2,-3,-10,-10,-4,-3,-2,2021-08-07 10:30:48,402426
4,1,2,4,7,3,3,3,2021-08-07 10:30:48,403426
1,3,4,2,0,1,1,0,2021-08-07 10:30:48,403426
-2,-2,-3,-7,-2,-3,-1,-2,2021-08-07 10:30:48,403426
-1,-1,2,10,13,6,2,1,2021-08-07 10:30:48,403426
-5,-3,-5,-11,-22,-12,-4,-4,2021-08-07 10:30:48,403426
-3,-2,-1,-2,2,0,-1,-3,2021-08-07 10:30:48,403426
1,1,3,1,2,0,-1,3,2021-08-07 10:30:48,420426
-1,-1,-5,-1,0,-1,-1,-4,2021-08-07 10:30:48,420426
1,1,-1,3,4,1,0,-2,2021-08-07 10:30:48,420426
0,0,2,-12,-14,-6,-1,-2,2021-08-07 10:30:48,420426
-1,-1,-2,1,-4,-2,0,-2,2021-08-07 10:30:48,420426
-1,-2,-7,-1,5,2,0,-1,2021-08-07 10:30:48,420426
-1,-1,-1,1,-2,-1,-1,-1,2021-08-07 10:30:48,436427
2,2,8,22,17,6,3,2,2021-08-07 10:30:48,436427
2,5,19,20,5,2,0,-1,2021-08-07 10:30:48,452426
-1,-2,-8,-14,-10,-4,-3,-1,2021-08-07 10:30:48,452426
-6,-8,-32,-50,-24,-11,-8,-5,2021-08-07 10:30:48,452426
-3,-6,-20,-23,-5,-1,-4,-2,2021-08-07 10:30:48,452426
-5,-5,-8,-6,-2,-1,-3,-2,2021-08-07 10:30:48,483426
-2,1,11,15,3,1,-1,-1,2021-08-07 10:30:48,499425
1,2,15,15,6,3,3,0,2021-08-07 10:30:48,499425
2,2,5,9,3,0,0,0,2021-08-07 10:30:48,499425
3,2,2,4,-4,-2,1,-2,2021-08-07 10:30:48,499425
-3,-3,-3,-7,-2,-4,-3,-2,2021-08-07 10:30:48,499425
3,5,9,6,7,4,4,3,2021-08-07 10:30:48,499425
-2,0,1,12,7,2,0,-1,2021-08-07 10:30:48,499425
-1,-4,-5,-1,1,0,0,0,2021-08-07 10:30:48,529425
-2,-1,-1,-7,-10,-7,-1,-3,2021-08-07 10:30:48,529425
-2,-3,-4,-5,-3,-1,-2,-1,2021-08-07 10:30:48,544425
-2,-2,-1,2,-3,-2,-1,-1,2021-08-07 10:30:48,560426
-4,-4,-1,-4,-5,-3,-2,-2,2021-08-07 10:30:48,576426
1,3,2,4,6,3,0,0,2021-08-07 10:30:48,576426
-1,0,3,4,0,-2,-2,-5,2021-08-07 10:30:48,576426
0,-2,3,-9,-9,-2,-2,-1,2021-08-07 10:30:48,576426
-4,-6,-20,-25,-14,-8,-3,-4,2021-08-07 10:30:48,576426
-3,-5,1,-9,-15,-8,-5,-3,2021-08-07 10:30:48,576426
6,6,5,37,51,23,8,5,2021-08-07 10:30:48,576426
0,2,3,4,0,0,0,0,2021-08-07 10:30:48,576426
-1,-1,5,3,0,-2,-1,-2,2021-08-07 10:30:48,577426
-2,-5,-8,-14,-18,-9,-3,-3,2021-08-07 10:30:48,577426
-3,-5,-6,-9,-8,-4,-3,-3,2021-08-07 10:30:48,577426
2,3,4,2,2,2,2,1,2021-08-07 10:30:48,577426
1,2,0,0,2,0,0,1,2021-08-07 10:30:48,608425
1,1,2,6,-2,0,0,-1,2021-08-07 10:30:48,608425
-1,-2,5,-2,-5,-3,-2,-2,2021-08-07 10:30:48,608425
-3,-3,-5,-5,2,1,-1,-3,2021-08-07 10:30:48,608425
-2,-3,-3,-2,-2,0,0,-2,2021-08-07 10:30:48,608425
2,2,1,3,0,3,3,2,2021-08-07 10:30:48,608425
-2,-4,-4,-6,-3,-4,-2,-1,2021-08-07 10:30:48,639426
0,0,-3,-2,-8,-6,-2,-2,2021-08-07 10:30:48,655426
-3,-1,0,6,8,2,-1,-2,2021-08-07 10:30:48,671426
2,4,5,10,20,10,3,2,2021-08-07 10:30:48,687426
-2,-3,-2,-3,-18,-8,-3,-3,2021-08-07 10:30:48,691425
2,0,0,4,8,4,2,3,2021-08-07 10:30:48,691425
-2,-3,-4,-8,-13,-10,-4,-3,2021-08-07 10:30:48,691425
0,0,-1,3,4,3,1,0,2021-08-07 10:30:48,692426
2,3,4,-2,6,3,0,2,2021-08-07 10:30:48,692426
-4,-6,-8,-5,-7,-6,-4,-4,2021-08-07 10:30:48,692426
-1,-2,-3,0,-5,0,-1,-1,2021-08-07 10:30:48,692426
-2,-1,1,-6,-3,-4,-3,-4,2021-08-07 10:30:48,703426
-3,-2,-8,-5,-3,1,1,-1,2021-08-07 10:30:48,718426
1,-1,3,1,-7,-3,-2,0,2021-08-07 10:30:48,718426
3,3,-1,3,17,8,1,2,2021-08-07 10:30:48,718426
-3,-4,-4,-6,-8,-5,-4,-3,2021-08-07 10:30:48,718426
-4,-5,-5,-14,-14,-5,-3,-3,2021-08-07 10:30:48,718426
5,7,12,29,27,11,3,4,2021-08-07 10:30:48,718426
-2,-4,-6,-4,-6,-3,-1,-3,2021-08-07 10:30:48,718426
0,1,-1,-3,-2,0,-2,-1,2021-08-07 10:30:48,718426
0,-1,1,-1,-10,-6,-1,-3,2021-08-07 10:30:48,718426
-1,-2,-6,-8,-3,-2,0,-2,2021-08-07 10:30:48,718426
-1,-1,-1,1,3,1,-1,1,2021-08-07 10:30:48,734426
-2,-3,-2,4,0,-1,-1,1,2021-08-07 10:30:48,750426
-3,-3,-4,-10,-12,-8,-3,-2,2021-08-07 10:30:48,750426
-2,0,0,-2,-1,0,-1,-1,2021-08-07 10:30:48,750426
-1,2,3,11,9,1,1,0,2021-08-07 10:30:48,766426
-1,0,-3,-2,3,2,2,0,2021-08-07 10:30:48,782426
2,2,4,15,8,3,-1,1,2021-08-07 10:30:48,782426
-2,0,0,-14,-16,-8,-2,-1,2021-08-07 10:30:48,782426
-2,-4,-9,-14,-12,-6,-3,-2,2021-08-07 10:30:48,782426
2,0,1,6,5,1,2,0,2021-08-07 10:30:48,782426
-3,-3,-2,-7,-5,-1,-2,-1,2021-08-07 10:30:48,782426
1,3,6,6,9,5,1,1,2021-08-07 10:30:48,782426
0,-1,-2,1,-4,-3,0,-1,2021-08-07 10:30:48,797426
1,0,-4,-10,-9,-4,-1,-2,2021-08-07 10:30:48,813425
-1,-1,-1,8,8,2,0,0,2021-08-07 10:30:48,813425
-6,-6,-8,-11,-5,-2,-3,-3,2021-08-07 10:30:48,813425
1,1,7,3,-2,1,0,1,2021-08-07 10:30:48,813425
0,0,2,8,5,-1,-1,-1,2021-08-07 10:30:48,813425
0,0,0,0,0,2,0,1,2021-08-07 10:30:48,813425
0,-1,-4,-7,-9,-3,-2,-2,2021-08-07 10:30:48,813425
0,0,4,12,9,5,0,0,2021-08-07 10:30:48,844425
-2,-1,-4,-8,-6,-4,-1,-2,2021-08-07 10:30:48,860426
1,1,5,-6,-3,-3,-1,-1,2021-08-07 10:30:48,860426
-2,-6,-13,-14,-9,-5,-3,-4,2021-08-07 10:30:48,860426
0,0,0,4,4,-1,0,0,2021-08-07 10:30:48,876425
-3,-5,-6,-11,-11,-8,-5,-2,2021-08-07 10:30:48,876425
1,1,3,5,5,3,-1,1,2021-08-07 10:30:48,891425
-1,0,1,3,-5,0,-1,-1,2021-08-07 10:30:48,906426
-1,0,0,-3,10,1,1,-1,2021-08-07 10:30:48,906426
-1,-2,-3,-1,-3,1,0,-1,2021-08-07 10:30:48,906426
4,4,3,1,0,0,2,2,2021-08-07 10:30:48,906426
-1,-1,0,5,5,0,-2,0,2021-08-07 10:30:48,906426
1,0,0,1,-1,1,0,0,2021-08-07 10:30:48,906426
-1,0,3,4,3,0,2,1,2021-08-07 10:30:48,906426
-2,-5,-6,-7,-5,-1,-3,-2,2021-08-07 10:30:48,906426
-1,-1,-1,-5,-5,-3,-1,-1,2021-08-07 10:30:48,906426
-1,0,1,-5,-4,0,-1,-1,2021-08-07 10:30:48,922426
0,1,1,-2,2,0,0,0,2021-08-07 10:30:48,938426
0,0,-1,7,5,1,-1,-1,2021-08-07 10:30:48,938426
-1,-2,0,2,-1,0,-1,0,2021-08-07 10:30:48,938426
0,-1,-1,-7,-12,-5,-2,-2,2021-08-07 10:30:48,938426
-2,-1,-3,-4,-4,0,-2,0,2021-08-07 10:30:48,954426
0,2,3,10,14,5,2,0,2021-08-07 10:30:48,954426
-2,-3,-4,-3,-1,-3,0,-2,2021-08-07 10:30:48,970428
0,-1,-2,-8,-8,-3,-1,0,2021-08-07 10:30:48,993425
0,-1,1,-3,-5,-1,-1,-2,2021-08-07 10:30:48,993425
0,-1,0,0,1,-3,0,0,2021-08-07 10:30:48,993425
-2,-3,-2,-2,1,-2,-1,0,2021-08-07 10:30:48,993425
4,3,6,6,16,9,5,3,2021-08-07 10:30:48,993425
-2,0,-2,1,0,-2,-1,0,2021-08-07 10:30:48,993425
-3,-1,-2,-1,-4,-3,-2,-2,2021-08-07 10:30:49,017426
-1,-3,-2,-6,-3,-2,-3,-4,2021-08-07 10:30:49,017426
-3,-3,-2,-3,-5,-2,-4,-1,2021-08-07 10:30:49,017426
-1,-2,-2,-3,-5,-5,-3,0,2021-08-07 10:30:49,017426
-2,-3,-6,-15,-16,-5,-3,-3,2021-08-07 10:30:49,017426
3,5,7,29,32,12,5,2,2021-08-07 10:30:49,017426
-1,-1,-1,-2,0,0,0,-1,2021-08-07 10:30:49,017426
1,0,0,3,7,2,1,2,2021-08-07 10:30:49,017426
-2,-4,-6,-10,-15,-7,-3,0,2021-08-07 10:30:49,018426
-3,-3,-6,-15,-18,-7,-3,0,2021-08-07 10:30:49,033426
-2,-3,-3,-3,-2,0,-2,-1,2021-08-07 10:30:49,049427
0,-1,2,9,7,3,1,-2,2021-08-07 10:30:49,049427
-3,0,1,7,5,2,-1,-3,2021-08-07 10:30:49,049427
-1,0,1,2,2,1,-1,-1,2021-08-07 10:30:49,049427
-2,0,-1,-2,-11,-8,-2,-2,2021-08-07 10:30:49,064427
-4,-4,-7,-19,-19,-9,-4,-3,2021-08-07 10:30:49,080427
3,2,6,25,34,15,6,3,2021-08-07 10:30:49,080427
3,1,-3,-6,9,4,2,2,2021-08-07 10:30:49,080427
0,2,-2,-7,-8,-4,1,-1,2021-08-07 10:30:49,080427
-2,-2,-2,2,-5,-3,-2,-3,2021-08-07 10:30:49,080427
-2,-1,-4,-10,-10,-5,-2,-3,2021-08-07 10:30:49,080427
-2,1,0,-4,-9,-4,-2,0,2021-08-07 10:30:49,096426
-1,-2,-2,1,-4,-1,-3,-3,2021-08-07 10:30:49,112426
1,-1,1,3,5,1,-1,-1,2021-08-07 10:30:49,112426
0,0,-1,-3,-1,1,2,0,2021-08-07 10:30:49,112426
-4,-5,-5,-5,-8,-4,-3,-2,2021-08-07 10:30:49,112426
-4,-5,-4,-11,-12,-7,-4,-3,2021-08-07 10:30:49,112426
5,4,9,27,29,16,5,3,2021-08-07 10:30:49,112426
0,1,1,1,-3,-3,-2,0,2021-08-07 10:30:49,112426
1,1,-3,-1,-2,0,1,0,2021-08-07 10:30:49,112426
0,-1,0,3,5,1,0,0,2021-08-07 10:30:49,144425
-3,-3,-6,-10,-13,-6,-4,-2,2021-08-07 10:30:49,144425
-3,-4,-5,-16,-14,-7,-4,-2,2021-08-07 10:30:49,160425
0,2,4,13,11,4,1,-1,2021-08-07 10:30:49,160425
-5,-5,-8,-13,-16,-7,-4,-5,2021-08-07 10:30:49,160425
1,2,8,20,22,10,2,2,2021-08-07 10:30:49,160425
1,0,0,2,7,1,0,-1,2021-08-07 10:30:49,160425
-1,-2,-5,-7,-7,-4,-4,-2,2021-08-07 10:30:49,160425
-1,-2,-1,0,-3,-2,-2,-2,2021-08-07 10:30:49,176425
1,3,2,-7,-12,-4,-1,0,2021-08-07 10:30:49,192425
1,1,2,4,0,1,0,1,2021-08-07 10:30:49,207426
-3,-3,-1,0,-4,-5,-3,-3,2021-08-07 10:30:49,222426
0,2,0,3,5,3,1,-1,2021-08-07 10:30:49,237426
-3,-4,-6,-8,-1,-1,-2,-2,2021-08-07 10:30:49,237426
-1,-1,-2,-3,0,0,1,1,2021-08-07 10:30:49,237426
-1,-2,0,1,-1,0,0,-1,2021-08-07 10:30:49,237426
-1,0,1,2,1,-2,-2,-2,2021-08-07 10:30:49,237426
-1,0,-1,-6,-5,-3,-1,0,2021-08-07 10:30:49,237426
-1,0,1,0,2,-1,-1,1,2021-08-07 10:30:49,237426
1,-1,-2,-9,-15,-5,-2,0,2021-08-07 10:30:49,238428
0,0,1,4,13,7,1,0,2021-08-07 10:30:49,253426
1,1,4,14,12,4,2,1,2021-08-07 10:30:49,253426
-2,-3,-5,-8,-14,-5,-4,-1,2021-08-07 10:30:49,253426
-2,0,1,1,6,1,0,0,2021-08-07 10:30:49,253426
2,2,2,3,-1,-2,0,-2,2021-08-07 10:30:49,253426
-1,-2,-4,-10,-8,-5,-3,-1,2021-08-07 10:30:49,253426
-2,-3,-1,0,-6,-3,-2,-1,2021-08-07 10:30:49,269425
-3,-2,-5,-8,-9,-5,-2,-1,2021-08-07 10:30:49,269425
0,-3,-2,2,3,0,0,1,2021-08-07 10:30:49,285425
1,2,-1,0,1,2,1,-2,2021-08-07 10:30:49,285425
1,0,3,10,9,3,1,0,2021-08-07 10:30:49,285425
-2,-2,-3,-9,-7,-3,-1,-2,2021-08-07 10:30:49,285425
-1,0,1,0,-5,-2,-2,-1,2021-08-07 10:30:49,301425
-1,-3,-5,-5,-9,-3,-1,-2,2021-08-07 10:30:49,301425
-2,-3,-5,-13,-8,-5,-2,-2,2021-08-07 10:30:49,301425
3,3,8,15,21,7,4,3,2021-08-07 10:30:49,301425
-1,-1,0,4,9,3,0,-1,2021-08-07 10:30:49,332425
-1,2,1,-3,-2,-2,-1,1,2021-08-07 10:30:49,348430
-1,0,0,2,-1,0,0,-1,2021-08-07 10:30:49,348430
-4,-4,-6,-10,-12,-4,-4,-3,2021-08-07 10:30:49,348430
0,-1,2,4,4,1,2,1,2021-08-07 10:30:49,348430
-3,-4,-5,-5,-4,-6,-3,-3,2021-08-07 10:30:49,348430
3,5,4,6,7,5,0,2,2021-08-07 10:30:49,348430
2,1,1,0,-4,-2,0,-1,2021-08-07 10:30:49,348430
-1,-1,-2,2,9,2,0,0,2021-08-07 10:30:49,364428
1,0,1,4,2,1,1,-1,2021-08-07 10:30:49,380426
-3,-2,-2,1,-1,-1,1,-1,2021-08-07 10:30:49,380426
1,-1,0,1,0,-1,-1,-1,2021-08-07 10:30:49,380426
-1,-1,-3,-3,-8,-3,-3,-2,2021-08-07 10:30:49,396426
-2,-2,0,-8,-4,0,-1,1,2021-08-07 10:30:49,396426
-2,-2,-2,-6,-8,-5,-4,-3,2021-08-07 10:30:49,396426
1,-1,-1,1,9,4,0,0,2021-08-07 10:30:49,396426
0,1,2,11,9,2,2,1,2021-08-07 10:30:49,396426
1,1,1,1,-3,-1,0,-2,2021-08-07 10:30:49,396426
-2,-1,-2,-5,-7,-2,-2,-3,2021-08-07 10:30:49,411426
-1,0,-1,-9,-14,-4,-2,0,2021-08-07 10:30:49,411426
-1,-3,0,-1,5,1,-2,-2,2021-08-07 10:30:49,427425
-2,-2,-4,-4,-4,-2,-2,-1,2021-08-07 10:30:49,427425
1,-1,-2,0,6,1,-2,0,2021-08-07 10:30:49,427425
-2,-2,-1,1,-3,-3,-2,-2,2021-08-07 10:30:49,427425
0,-2,0,-5,-6,-2,-2,-1,2021-08-07 10:30:49,443428
-2,-1,0,-3,-5,-2,-2,-1,2021-08-07 10:30:49,459425
-3,-3,-4,-5,-5,-4,-1,-4,2021-08-07 10:30:49,475425
-1,-1,-2,-3,4,4,-1,-2,2021-08-07 10:30:49,475425
-1,1,0,-2,-5,-2,-1,-2,2021-08-07 10:30:49,475425
0,0,1,1,1,0,1,-2,2021-08-07 10:30:49,475425
-1,-1,-1,6,5,-1,0,0,2021-08-07 10:30:49,506425
-2,-2,-3,-5,-3,-4,-2,0,2021-08-07 10:30:49,522426
0,-2,-1,-3,-8,-3,-2,-1,2021-08-07 10:30:49,538425
0,0,-1,-3,2,0,0,0,2021-08-07 10:30:49,538425
2,0,2,3,5,4,3,2,2021-08-07 10:30:49,538425
1,0,1,3,-2,-3,-1,1,2021-08-07 10:30:49,538425
-2,-1,-2,-2,0,0,0,0,2021-08-07 10:30:49,538425
-2,-4,-7,-7,-5,-1,-3,0,2021-08-07 10:30:49,538425
-3,-3,-3,-5,-6,-6,-4,-1,2021-08-07 10:30:49,554426
-1,-2,-1,-3,-1,0,-1,-1,2021-08-07 10:30:49,570426
-1,-1,0,-4,-8,-6,-2,-1,2021-08-07 10:30:49,570426
-1,2,3,5,7,3,1,-1,2021-08-07 10:30:49,570426
-2,-2,-3,-6,-10,-4,-2,-3,2021-08-07 10:30:49,570426
2,4,5,10,9,5,1,2,2021-08-07 10:30:49,570426
2,3,3,9,14,4,0,1,2021-08-07 10:30:49,570426
-2,-2,1,3,2,1,-1,-1,2021-08-07 10:30:49,570426
1,-1,-2,-3,-4,-2,1,0,2021-08-07 10:30:49,570426
-6,-8,-8,-17,-26,-13,-7,-6,2021-08-07 10:30:49,570426
4,7,7,21,34,16,7,4,2021-08-07 10:30:49,570426
2,1,3,7,8,2,2,-2,2021-08-07 10:30:49,571426
-1,-1,-1,0,-4,-3,-2,0,2021-08-07 10:30:49,586430
0,0,-1,-4,-1,0,0,-1,2021-08-07 10:30:49,586430
-3,-4,-4,-5,-8,-4,-1,-2,2021-08-07 10:30:49,586430
-2,-3,-2,-5,-9,-4,-3,-2,2021-08-07 10:30:49,586430
1,0,1,3,11,5,1,0,2021-08-07 10:30:49,586430
-3,-4,-2,-1,-3,-4,-2,-2,2021-08-07 10:30:49,586430
-4,-5,-5,-14,-18,-8,-3,-1,2021-08-07 10:30:49,604427
0,0,-1,-2,9,4,2,0,2021-08-07 10:30:49,604427
0,1,0,-3,-7,-2,-1,-1,2021-08-07 10:30:49,604427
0,2,-3,1,2,0,-1,-1,2021-08-07 10:30:49,618426
-1,-2,-2,-1,-1,-4,-2,-3,2021-08-07 10:30:49,618426
0,-3,-3,-1,-5,-3,-3,0,2021-08-07 10:30:49,618426
0,2,0,4,2,-2,-1,0,2021-08-07 10:30:49,634426
1,2,2,1,5,5,2,2,2021-08-07 10:30:49,634426
-1,0,-2,-3,-5,-1,-1,-2,2021-08-07 10:30:49,650425
-5,-4,-6,-12,-10,-6,-3,-1,2021-08-07 10:30:49,650425
-3,-2,-3,-2,-6,-4,-2,-2,2021-08-07 10:30:49,650425
0,0,2,5,13,5,3,0,2021-08-07 10:30:49,666426
0,-2,-5,-11,-10,-2,-2,-2,2021-08-07 10:30:49,682426
0,0,0,4,-2,0,0,-1,2021-08-07 10:30:49,682426
0,0,0,-2,4,3,0,0,2021-08-07 10:30:49,682426
-2,-2,0,0,-7,-4,-2,-2,2021-08-07 10:30:49,682426
-2,-3,-5,-10,-7,-5,-3,-2,2021-08-07 10:30:49,682426
0,-1,0,8,8,3,1,-1,2021-08-07 10:30:49,682426
0,-1,0,2,0,2,1,-1,2021-08-07 10:30:49,698425
0,-1,0,0,7,0,1,0,2021-08-07 10:30:49,698425
-3,-3,-4,-9,-19,-8,-4,-2,2021-08-07 10:30:49,698425
0,1,1,-2,1,0,-1,0,2021-08-07 10:30:49,698425
0,-1,0,2,1,0,-1,-1,2021-08-07 10:30:49,714425
-3,-3,-6,-4,-8,-4,-4,-2,2021-08-07 10:30:49,730426
0,0,2,4,2,-2,-1,-1,2021-08-07 10:30:49,730426
1,4,2,-2,-4,-2,1,0,2021-08-07 10:30:49,730426
2,4,7,11,10,6,2,1,2021-08-07 10:30:49,730426
-1,0,2,8,2,1,0,-1,2021-08-07 10:30:49,730426
-7,-8,-16,-26,-18,-11,-6,-4,2021-08-07 10:30:49,762426
-3,-3,-5,-6,-7,-4,-3,-2,2021-08-07 10:30:49,762426
0,-2,-2,-2,4,0,-2,-1,2021-08-07 10:30:49,762426
-1,1,2,3,2,1,0,-1,2021-08-07 10:30:49,762426
3,1,5,5,2,2,2,3,2021-08-07 10:30:49,778425
0,1,1,8,9,1,1,-1,2021-08-07 10:30:49,778425
0,-2,-2,-4,-3,-1,0,0,2021-08-07 10:30:49,778425
-2,-1,-1,-2,-2,-2,-2,-3,2021-08-07 10:30:49,793425
-1,1,3,6,3,3,-1,0,2021-08-07 10:30:49,809425
-4,-4,-8,-9,-13,-6,-3,-4,2021-08-07 10:30:49,809425
-2,0,0,-1,-1,-1,0,-1,2021-08-07 10:30:49,809425
-1,0,-4,0,8,2,1,-1,2021-08-07 10:30:49,809425
1,2,3,3,3,0,0,0,2021-08-07 10:30:49,809425
1,0,-1,-2,-2,-1,-1,-1,2021-08-07 10:30:49,809425
-3,-3,-6,-9,-5,-1,-2,0,2021-08-07 10:30:49,809425
2,0,-2,-4,-8,-1,0,2,2021-08-07 10:30:49,809425
0,2,2,6,10,4,2,1,2021-08-07 10:30:49,825426
-3,-2,-1,-3,-9,-2,-2,-3,2021-08-07 10:30:49,825426
-3,0,-1,0,3,0,-1,-3,2021-08-07 10:30:49,825426
-4,-3,-1,3,2,-3,-2,-3,2021-08-07 10:30:49,825426
-1,0,3,-1,-6,-2,-2,0,2021-08-07 10:30:49,856427
1,-1,1,-1,1,-1,-2,-2,2021-08-07 10:30:49,871426
1,0,0,2,-3,-1,-1,0,2021-08-07 10:30:49,903425
0,1,0,-2,-2,-1,-1,-2,2021-08-07 10:30:49,914425
0,-1,-3,-1,-2,-2,0,-1,2021-08-07 10:30:49,934425
0,-1,-1,-4,-1,0,1,1,2021-08-07 10:30:49,934425
-1,-1,-1,0,1,0,-1,-2,2021-08-07 10:30:49,934425
1,1,2,3,2,1,0,0,2021-08-07 10:30:49,934425
-3,-1,-3,0,-2,0,0,1,2021-08-07 10:30:49,934425
-2,0,0,1,0,-2,-1,-1,2021-08-07 10:30:49,934425
-2,-1,0,4,-1,0,-1,-2,2021-08-07 10:30:49,934425
1,2,1,2,-1,0,1,1,2021-08-07 10:30:49,935426
1,2,-2,-5,3,0,-1,0,2021-08-07 10:30:49,935426
0,1,-2,1,3,2,0,1,2021-08-07 10:30:49,935426
0,-1,-1,1,0,-1,-1,-1,2021-08-07 10:30:49,935426
-2,-3,-2,-4,-5,-3,-3,-2,2021-08-07 10:30:49,935426
-2,0,1,3,2,-1,-1,-1,2021-08-07 10:30:49,935426
-3,-2,-2,-5,-9,-3,-2,0,2021-08-07 10:30:49,935426
-3,-3,-5,-12,-10,-6,-2,-2,2021-08-07 10:30:49,935426
1,2,3,13,20,10,4,1,2021-08-07 10:30:49,935426
-1,-2,-1,1,2,0,0,-1,2021-08-07 10:30:49,950426
-1,1,0,-1,-1,-1,0,0,2021-08-07 10:30:49,950426
-4,0,0,2,-4,-1,-1,0,2021-08-07 10:30:49,950426
-2,-1,-4,-8,-9,-3,-1,-1,2021-08-07 10:30:49,950426
-1,-2,0,-2,0,1,-3,1,2021-08-07 10:30:49,966425
1,1,0,-2,0,0,1,1,2021-08-07 10:30:49,966425
1,0,-1,0,-1,1,1,-1,2021-08-07 10:30:49,982427
-1,-3,-5,-5,-3,-3,-1,-2,2021-08-07 10:30:49,998426
-1,-1,-1,0,1,-1,0,-4,2021-08-07 10:30:50,014425
0,-3,1,1,2,-2,0,-1,2021-08-07 10:30:50,030425
1,0,1,0,3,2,0,1,2021-08-07 10:30:50,046425
-1,-2,0,-2,-5,-1,-2,-1,2021-08-07 10:30:50,046425
-2,-2,-2,-5,-11,-5,-3,-4,2021-08-07 10:30:50,046425
-2,-1,0,5,6,0,-2,-1,2021-08-07 10:30:50,046425
2,-1,0,1,7,2,1,1,2021-08-07 10:30:50,046425
-1,-1,-1,-4,-6,-2,0,0,2021-08-07 10:30:50,046425
0,1,1,2,0,0,1,0,2021-08-07 10:30:50,046425
-4,-2,-3,-2,-5,-1,0,-4,2021-08-07 10:30:50,046425
-1,-1,0,-2,-2,-2,-3,-1,2021-08-07 10:30:50,046425
-3,-3,-2,-5,-6,-2,-2,-3,2021-08-07 10:30:50,047426
0,0,1,8,6,4,2,1,2021-08-07 10:30:50,047426
1,-3,-1,-4,1,1,0,0,2021-08-07 10:30:50,047426
-1,0,0,-3,1,0,0,0,2021-08-07 10:30:50,047426
-1,-1,1,-2,-4,-1,-1,-2,2021-08-07 10:30:50,047426
-2,-3,-7,-13,-9,-4,-4,-3,2021-08-07 10:30:50,062426
1,0,3,11,8,2,1,1,2021-08-07 10:30:50,078425
-1,1,3,13,9,6,2,-2,2021-08-07 10:30:50,078425
0,-2,-1,-2,-6,-3,-1,0,2021-08-07 10:30:50,078425
-2,-1,-1,-4,-1,-3,-3,-1,2021-08-07 10:30:50,094425
0,1,0,4,1,1,-1,-1,2021-08-07 10:30:50,094425
-3,-2,-4,-9,-9,-4,-3,-1,2021-08-07 10:30:50,094425
-2,-1,-1,2,2,-1,-2,-3,2021-08-07 10:30:50,094425
-1,0,-2,-1,-3,-1,1,0,2021-08-07 10:30:50,110425
-3,-2,-3,-9,-8,-3,-4,-3,2021-08-07 10:30:50,110425
1,2,4,11,11,5,2,1,2021-08-07 10:30:50,110425
-3,-2,-2,-4,-3,-2,-2,-1,2021-08-07 10:30:50,110425
0,-1,0,-1,-2,-1,1,-1,2021-08-07 10:30:50,126426
-2,-3,-3,-8,-12,-6,-1,-1,2021-08-07 10:30:50,142425
1,-2,0,-1,1,2,1,0,2021-08-07 10:30:50,142425
-3,-2,-4,-4,-4,-5,-3,-1,2021-08-07 10:30:50,142425
0,-1,-1,-8,-12,-3,0,0,2021-08-07 10:30:50,142425
2,2,8,27,42,17,5,2,2021-08-07 10:30:50,142425
0,-1,0,-7,-15,-7,-1,0,2021-08-07 10:30:50,142425
-2,0,0,3,6,1,0,1,2021-08-07 10:30:50,142425
0,-3,-6,-13,-6,-2,-2,0,2021-08-07 10:30:50,173443
-2,-1,-3,-10,-18,-8,-4,-1,2021-08-07 10:30:50,189445
-2,-1,1,11,10,3,-1,-1,2021-08-07 10:30:50,189445
1,-1,2,3,1,0,2,1,2021-08-07 10:30:50,189445
0,-1,2,7,1,-2,0,0,2021-08-07 10:30:50,205445
-1,-2,-6,-10,-5,-3,1,-1,2021-08-07 10:30:50,205445
-3,-4,-5,-10,-7,-4,-3,-2,2021-08-07 10:30:50,205445
1,2,1,-2,-1,-1,-1,1,2021-08-07 10:30:50,205445
0,0,3,9,16,5,0,-1,2021-08-07 10:30:50,205445
-2,0,-2,-4,-4,-3,-2,-1,2021-08-07 10:30:50,205445
0,-3,-2,1,-5,-3,-2,0,2021-08-07 10:30:50,205445
-2,-3,-5,-13,-7,-5,-3,-3,2021-08-07 10:30:50,205445
2,2,4,5,5,3,3,2,2021-08-07 10:30:50,237444
0,3,4,9,5,2,1,0,2021-08-07 10:30:50,237444
-1,-1,-2,-1,0,0,-2,-2,2021-08-07 10:30:50,237444
-2,-2,-3,-4,-1,-2,-3,-2,2021-08-07 10:30:50,237444
2,1,2,4,1,0,0,0,2021-08-07 10:30:50,237444
-3,-4,-5,-6,-12,-7,-4,-3,2021-08-07 10:30:50,237444
0,1,-1,-10,-12,-5,0,0,2021-08-07 10:30:50,253444
2,0,4,16,17,7,2,2,2021-08-07 10:30:50,253444
-1,0,0,5,7,2,0,-2,2021-08-07 10:30:50,269445
-2,-1,-2,-6,-7,-3,-1,-1,2021-08-07 10:30:50,269445
-1,-1,-2,1,1,-1,-1,-1,2021-08-07 10:30:50,269445
-2,-2,-1,-3,-5,-1,-1,-3,2021-08-07 10:30:50,269445
-2,-2,-2,-2,-3,-1,-2,-2,2021-08-07 10:30:50,301445
0,-2,-2,-5,-5,-2,-2,0,2021-08-07 10:30:50,317444
-2,-4,-5,-12,-17,-9,-4,-1,2021-08-07 10:30:50,332444
-1,-1,-2,-2,-6,-1,0,-2,2021-08-07 10:30:50,332444
0,0,5,17,26,8,2,0,2021-08-07 10:30:50,332444
0,-1,-1,-3,-6,-2,-2,-1,2021-08-07 10:30:50,332444
-1,1,3,5,7,1,0,-1,2021-08-07 10:30:50,332444
-2,-2,-2,-10,-10,-3,0,0,2021-08-07 10:30:50,332444
-3,-3,-9,-15,-14,-7,-3,-2,2021-08-07 10:30:50,332444
0,1,1,11,10,3,0,0,2021-08-07 10:30:50,332444
0,2,0,2,8,4,1,-1,2021-08-07 10:30:50,333444
0,0,1,1,-2,-1,-1,0,2021-08-07 10:30:50,333444
-2,-2,-4,-7,-10,-6,-3,-2,2021-08-07 10:30:50,348446
1,0,1,-2,-6,-2,-1,1,2021-08-07 10:30:50,348446
-1,-1,0,5,7,3,0,-2,2021-08-07 10:30:50,348446
-1,-1,0,2,5,2,1,-2,2021-08-07 10:30:50,348446
-1,-2,-3,-6,-12,-6,0,-1,2021-08-07 10:30:50,364445
-1,-3,-4,-5,-6,-3,-1,0,2021-08-07 10:30:50,364445
1,1,3,9,8,2,0,0,2021-08-07 10:30:50,364445
2,0,0,-2,1,-1,-3,1,2021-08-07 10:30:50,364445
-3,-3,-1,-4,-9,-3,-2,-4,2021-08-07 10:30:50,380445
-2,0,-1,3,6,2,0,0,2021-08-07 10:30:50,380445
-2,-2,-4,-7,-4,-2,0,-2,2021-08-07 10:30:50,380445
-1,0,-1,0,0,-1,-1,-2,2021-08-07 10:30:50,380445
-1,-1,0,2,-2,-2,-1,-1,2021-08-07 10:30:50,412444
-1,0,-1,-3,-4,0,-1,0,2021-08-07 10:30:50,428444
0,-1,-1,3,6,1,1,0,2021-08-07 10:30:50,428444
-1,-1,0,1,-1,-1,0,0,2021-08-07 10:30:50,428444
-2,-1,-2,-2,-2,1,-2,0,2021-08-07 10:30:50,428444
1,0,0,2,3,0,1,1,2021-08-07 10:30:50,428444
-2,-4,-4,-7,-13,-7,-2,-2,2021-08-07 10:30:50,428444
2,1,2,10,6,3,0,1,2021-08-07 10:30:50,428444
0,-1,-3,-2,-1,1,0,2,2021-08-07 10:30:50,458443
2,2,-3,-13,-5,0,0,0,2021-08-07 10:30:50,473444
0,-1,2,8,4,1,-1,-2,2021-08-07 10:30:50,489445
-2,-3,-2,-8,-5,-3,-1,-2,2021-08-07 10:30:50,489445
-1,-2,0,6,4,0,-1,-2,2021-08-07 10:30:50,489445
-2,-2,-2,0,-5,-2,-2,-3,2021-08-07 10:30:50,489445
0,1,-1,-7,-6,-3,-1,0,2021-08-07 10:30:50,489445
-3,-3,-7,-11,-10,-7,-3,-1,2021-08-07 10:30:50,489445
1,4,6,16,17,6,2,2,2021-08-07 10:30:50,489445
0,-2,-2,-5,-5,-3,-1,-3,2021-08-07 10:30:50,489445
0,1,1,7,13,5,3,2,2021-08-07 10:30:50,489445
-2,-2,-2,0,-1,-2,-1,-1,2021-08-07 10:30:50,489445
-2,-1,-2,-4,0,-2,-2,-2,2021-08-07 10:30:50,505444
-4,-6,-7,-12,-7,-3,-1,-2,2021-08-07 10:30:50,505444
2,3,4,9,4,0,1,-1,2021-08-07 10:30:50,505444
-1,-1,0,-2,-5,-2,-1,-1,2021-08-07 10:30:50,505444
0,0,-1,-3,-5,-1,0,-1,2021-08-07 10:30:50,536443
0,-2,0,5,7,0,-1,0,2021-08-07 10:30:50,552445
-4,-3,-4,-10,-14,-5,-4,-2,2021-08-07 10:30:50,568445
-1,0,0,0,7,2,-2,-1,2021-08-07 10:30:50,568445
1,-1,-2,-8,-11,-3,-1,0,2021-08-07 10:30:50,568445
1,3,5,20,18,7,3,1,2021-08-07 10:30:50,568445
0,-2,-1,-5,-2,1,0,1,2021-08-07 10:30:50,568445
0,1,1,3,-1,0,0,-2,2021-08-07 10:30:50,568445
-2,-3,-4,-5,-9,-5,-1,0,2021-08-07 10:30:50,568445
0,-3,-2,-5,-5,-2,-2,0,2021-08-07 10:30:50,568445
0,-4,-2,-3,-4,-1,0,-1,2021-08-07 10:30:50,569445
-1,-3,-5,-10,-5,-1,1,0,2021-08-07 10:30:50,569445
-5,-7,-4,-10,-6,-5,-5,-5,2021-08-07 10:30:50,600444
2,6,7,11,19,8,4,3,2021-08-07 10:30:50,600444
-2,-2,-2,-6,-17,-9,-6,-4,2021-08-07 10:30:50,600444
4,4,9,19,22,9,3,1,2021-08-07 10:30:50,600444
-1,0,-2,3,-3,-3,-2,0,2021-08-07 10:30:50,600444
-1,-2,-5,-2,8,2,-2,0,2021-08-07 10:30:50,600444
1,0,-3,-6,-3,0,1,2,2021-08-07 10:30:50,616443
-1,-2,-7,-11,-13,-7,-2,-1,2021-08-07 10:30:50,616443
0,2,0,-10,-10,-6,-2,-1,2021-08-07 10:30:50,632444
-3,-1,4,9,2,0,0,-1,2021-08-07 10:30:50,648445
-3,-2,-6,-13,-7,-4,-3,-2,2021-08-07 10:30:50,664445
0,0,-1,4,2,0,1,1,2021-08-07 10:30:50,664445
0,0,1,6,5,4,-1,-1,2021-08-07 10:30:50,664445
-1,-1,-4,-8,-9,-4,-2,-3,2021-08-07 10:30:50,664445
0,0,1,4,4,0,0,0,2021-08-07 10:30:50,664445
-1,-2,-3,-3,-6,-3,-3,-2,2021-08-07 10:30:50,664445
1,0,3,8,7,0,-3,-3,2021-08-07 10:30:50,664445
0,0,-1,-7,-12,-3,-2,0,2021-08-07 10:30:50,664445
1,0,-1,-9,1,0,0,0,2021-08-07 10:30:50,664445
-3,-2,-5,-2,-2,-2,-2,-2,2021-08-07 10:30:50,664445
3,1,1,11,15,7,3,3,2021-08-07 10:30:50,696444
-3,-4,-2,-4,-6,-4,-2,-2,2021-08-07 10:30:50,712444
-2,-2,-1,8,7,2,0,-2,2021-08-07 10:30:50,727445
2,1,7,7,5,3,2,0,2021-08-07 10:30:50,742445
-1,-1,-1,-3,-12,-5,0,0,2021-08-07 10:30:50,742445
-2,-3,-9,-7,-3,-4,-4,-3,2021-08-07 10:30:50,742445
1,2,8,7,10,4,1,-1,2021-08-07 10:30:50,742445
-2,-2,-6,-5,-1,0,1,-1,2021-08-07 10:30:50,742445
-4,-2,-2,-12,-11,-7,-5,-4,2021-08-07 10:30:50,742445
-2,-2,-1,-10,-20,-7,-2,0,2021-08-07 10:30:50,742445
-1,-3,-4,-1,4,0,-1,-1,2021-08-07 10:30:50,743445
0,0,1,-3,-1,0,0,-2,2021-08-07 10:30:50,743445
3,2,6,14,14,6,2,2,2021-08-07 10:30:50,743445
0,1,0,3,-5,-3,0,1,2021-08-07 10:30:50,743445
-1,-1,-3,-6,2,-1,-1,0,2021-08-07 10:30:50,743445
-3,-3,-3,-9,-10,-6,-5,-3,2021-08-07 10:30:50,743445
1,1,-2,-1,0,1,0,0,2021-08-07 10:30:50,790444
0,-1,3,5,10,3,0,-2,2021-08-07 10:30:50,790444
-2,0,-1,-1,-4,-2,-2,-1,2021-08-07 10:30:50,790444
0,0,0,-2,-2,-1,-1,-1,2021-08-07 10:30:50,790444
-6,-4,-6,-11,-7,-5,-3,-4,2021-08-07 10:30:50,790444
-1,1,2,1,1,0,-1,1,2021-08-07 10:30:50,790444
1,1,0,3,-1,-1,0,1,2021-08-07 10:30:50,790444
-3,-1,-4,-9,-11,-5,-3,-2,2021-08-07 10:30:50,790444
-2,-3,-1,-1,-2,-1,0,-2,2021-08-07 10:30:50,806444
3,3,5,6,11,7,4,1,2021-08-07 10:30:50,806444
0,-2,-1,10,8,4,1,0,2021-08-07 10:30:50,806444
-3,-3,0,4,0,1,-2,-1,2021-08-07 10:30:50,806444
1,0,-2,-11,-6,-3,0,0,2021-08-07 10:30:50,838444
0,-2,-4,-2,-2,-2,-3,-2,2021-08-07 10:30:50,838444
0,0,-2,-1,-7,-3,-1,0,2021-08-07 10:30:50,838444
0,-1,-2,-3,-1,-1,-1,0,2021-08-07 10:30:50,838444
-1,-1,-2,2,3,0,0,0,2021-08-07 10:30:50,870446
-3,-2,0,7,5,2,-2,-1,2021-08-07 10:30:50,886444
1,1,2,-2,0,-1,-1,0,2021-08-07 10:30:50,886444
0,1,0,2,-8,-2,0,0,2021-08-07 10:30:50,886444
-1,0,-4,-9,2,1,-1,0,2021-08-07 10:30:50,886444
0,-1,-1,-1,-5,-3,-1,-2,2021-08-07 10:30:50,886444
-3,-2,0,-4,-7,-4,-2,-1,2021-08-07 10:30:50,886444
2,1,6,18,25,10,3,1,2021-08-07 10:30:50,886444
0,-1,1,0,-1,1,0,0,2021-08-07 10:30:50,886444
-2,-2,-2,-4,-6,-3,0,-2,2021-08-07 10:30:50,887446
-2,-3,-3,-6,-7,-5,-4,-4,2021-08-07 10:30:50,887446
1,-1,-3,-8,-11,-5,-2,-1,2021-08-07 10:30:50,887446
0,1,-1,5,3,0,2,1,2021-08-07 10:30:50,918445
0,0,0,-5,-6,-4,-1,-1,2021-08-07 10:30:50,934445
-1,-1,-4,-3,0,1,0,-1,2021-08-07 10:30:50,950444
1,3,2,6,10,4,2,-1,2021-08-07 10:30:50,965445
-1,-2,0,0,-1,-2,-2,-3,2021-08-07 10:30:50,965445
-2,-2,-1,-1,-3,-2,-1,-1,2021-08-07 10:30:50,965445
-1,-3,-3,-6,-7,-4,-1,-3,2021-08-07 10:30:50,965445
2,2,-1,-4,-5,-1,-1,0,2021-08-07 10:30:50,965445
-3,-3,-2,0,-1,1,-1,-1,2021-08-07 10:30:50,965445
-2,-3,-2,-3,-6,-3,-1,0,2021-08-07 10:30:50,965445
1,2,5,10,20,8,2,0,2021-08-07 10:30:50,965445
-1,-1,-1,3,0,-1,1,-1,2021-08-07 10:30:50,965445
1,0,0,-1,-5,-2,-2,-2,2021-08-07 10:30:50,965445
1,2,1,3,2,-1,-2,0,2021-08-07 10:30:50,966444
-1,-2,2,3,-2,-1,1,-1,2021-08-07 10:30:50,966444
-2,-2,-2,-2,-2,-3,-2,-2,2021-08-07 10:30:50,966444
0,0,0,-1,-3,-2,1,0,2021-08-07 10:30:50,997445
0,-1,-1,-3,-2,1,0,-1,2021-08-07 10:30:51,013443
-2,-1,-2,-7,-6,-3,-1,-3,2021-08-07 10:30:51,028444
-2,-2,-4,-8,-4,-3,-1,-1,2021-08-07 10:30:51,044443
-1,1,0,-2,-1,1,0,-1,2021-08-07 10:30:51,059446
1,0,8,25,16,4,-1,1,2021-08-07 10:30:51,059446
0,0,-4,-5,-4,-2,1,1,2021-08-07 10:30:51,059446
-4,-3,-7,-16,-12,-6,-6,-4,2021-08-07 10:30:51,059446
2,4,11,21,14,5,1,2,2021-08-07 10:30:51,059446
0,2,-3,-6,4,3,3,1,2021-08-07 10:30:51,059446
-1,-3,-5,-4,-9,-7,-4,-2,2021-08-07 10:30:51,060445
-2,0,-1,-4,-7,-4,-2,-1,2021-08-07 10:30:51,060445
-2,-3,-4,-7,-4,-2,-1,-2,2021-08-07 10:30:51,060445
0,0,3,5,4,1,0,-1,2021-08-07 10:30:51,060445
0,0,2,1,5,1,-1,0,2021-08-07 10:30:51,060445
0,-2,-2,4,10,3,2,2,2021-08-07 10:30:51,075445
-3,-3,-7,-15,-21,-12,-6,-2,2021-08-07 10:30:51,075445
-1,-1,-1,-6,0,-1,-3,-2,2021-08-07 10:30:51,075445
-3,-5,-9,-20,-25,-10,-5,-5,2021-08-07 10:30:51,091443
1,3,8,17,19,13,4,2,2021-08-07 10:30:51,106445
1,1,3,12,13,3,3,0,2021-08-07 10:30:51,106445
-3,-2,-3,-4,-1,-2,-1,-1,2021-08-07 10:30:51,122445
-1,-1,-3,-1,-4,-2,-2,-1,2021-08-07 10:30:51,129444
0,3,4,5,-8,-5,0,0,2021-08-07 10:30:51,129444
1,-1,1,12,16,7,1,-2,2021-08-07 10:30:51,129444
3,2,-1,-10,-11,-3,1,1,2021-08-07 10:30:51,129444
-1,1,0,4,5,2,2,-1,2021-08-07 10:30:51,130445
-1,-2,-2,-1,-1,0,0,0,2021-08-07 10:30:51,130445
-2,-3,-8,-14,-12,-6,-4,-1,2021-08-07 10:30:51,130445
-3,-4,-3,-1,-3,-3,-3,-3,2021-08-07 10:30:51,130445
-1,0,-1,2,4,4,0,0,2021-08-07 10:30:51,130445
1,1,1,2,1,1,2,0,2021-08-07 10:30:51,138445
-1,-2,-3,-2,0,-1,-3,-1,2021-08-07 10:30:51,154445
-3,-2,-2,-11,-12,-5,-1,-3,2021-08-07 10:30:51,154445
-1,-1,-1,4,3,1,0,0,2021-08-07 10:30:51,154445
-2,-1,-3,-2,1,-2,-3,-4,2021-08-07 10:30:51,154445
2,2,8,11,1,2,1,1,2021-08-07 10:30:51,170444
-2,-2,-4,-1,1,0,-3,0,2021-08-07 10:30:51,186446
1,1,-4,4,7,3,1,1,2021-08-07 10:30:51,186446
0,-1,-1,0,-2,-2,-1,1,2021-08-07 10:30:51,202446
0,-1,-1,-3,-1,0,0,-1,2021-08-07 10:30:51,233444
-2,-3,-3,-2,-10,-5,-4,-3,2021-08-07 10:30:51,249444
-2,-2,-1,-4,-5,-4,-2,-3,2021-08-07 10:30:51,249444
1,0,0,-2,4,3,1,0,2021-08-07 10:30:51,249444
-1,-1,-1,-4,-5,-3,0,0,2021-08-07 10:30:51,249444
0,1,1,1,1,2,0,1,2021-08-07 10:30:51,249444
0,0,4,4,3,0,1,0,2021-08-07 10:30:51,249444
-2,-4,-2,-2,-3,-3,-3,-2,2021-08-07 10:30:51,249444
-3,-3,-3,-7,-5,-3,-1,-3,2021-08-07 10:30:51,249444
0,0,0,4,8,2,0,-1,2021-08-07 10:30:51,249444
-2,-1,1,2,0,-1,-2,-1,2021-08-07 10:30:51,249444
0,-1,-2,-3,-7,-4,-1,0,2021-08-07 10:30:51,250445
1,0,-1,0,2,2,2,2,2021-08-07 10:30:51,250445
-1,-2,-3,-2,2,1,-2,-1,2021-08-07 10:30:51,250445
0,-2,1,0,-1,-2,-2,0,2021-08-07 10:30:51,264445
-2,-1,-1,-5,-3,-1,-2,-2,2021-08-07 10:30:51,264445
0,1,-1,3,2,2,0,-1,2021-08-07 10:30:51,264445
0,1,-1,0,1,-1,1,-1,2021-08-07 10:30:51,280445
-1,-1,-1,-6,-7,-1,-1,-1,2021-08-07 10:30:51,296445
-2,-2,0,5,4,-1,-1,0,2021-08-07 10:30:51,296445
-1,-1,0,1,0,0,-1,1,2021-08-07 10:30:51,296445
-2,-3,-5,-10,-5,-2,-2,-4,2021-08-07 10:30:51,296445
2,4,5,10,5,4,3,3,2021-08-07 10:30:51,312444
0,-1,-2,-5,-5,-4,-1,-1,2021-08-07 10:30:51,327444
-2,-1,-1,-3,-3,-2,-1,-1,2021-08-07 10:30:51,327444
-3,-4,-3,0,-2,-3,-1,-1,2021-08-07 10:30:51,327444
0,1,2,-4,-2,-1,-2,-2,2021-08-07 10:30:51,327444
-1,2,0,-5,-9,-3,-1,0,2021-08-07 10:30:51,327444
3,3,3,10,14,7,2,1,2021-08-07 10:30:51,327444
-3,-2,-4,-7,-7,-4,1,-2,2021-08-07 10:30:51,327444
-2,-1,-1,4,7,1,-1,-2,2021-08-07 10:30:51,327444
3,0,-2,-8,-4,0,1,2,2021-08-07 10:30:51,327444
-3,-2,0,-1,-3,-1,-1,-1,2021-08-07 10:30:51,359444
-3,-3,-2,3,2,1,0,0,2021-08-07 10:30:51,375443
-4,-4,-4,-6,-4,-2,-3,-5,2021-08-07 10:30:51,391444
-3,-1,-2,-5,-9,-5,-3,-2,2021-08-07 10:30:51,391444
-1,1,2,4,5,-1,-1,-1,2021-08-07 10:30:51,391444
1,1,0,-1,-2,-2,-3,-2,2021-08-07 10:30:51,391444
-1,-2,-4,-7,-8,-5,-1,0,2021-08-07 10:30:51,391444
1,-1,1,5,11,4,0,0,2021-08-07 10:30:51,391444
-1,-1,-6,-8,-4,-3,-1,-1,2021-08-07 10:30:51,391444
-1,0,3,3,6,2,0,2,2021-08-07 10:30:51,391444
0,2,4,10,4,1,2,2,2021-08-07 10:30:51,407444
-2,-2,-5,-9,-5,-1,-1,0,2021-08-07 10:30:51,407444
-1,-1,-1,3,-4,-4,-3,-2,2021-08-07 10:30:51,407444
-2,-2,-3,-7,-6,-2,-3,-2,2021-08-07 10:30:51,407444
0,0,-3,-6,-3,-1,-1,-1,2021-08-07 10:30:51,407444
0,1,2,1,4,1,1,-1,2021-08-07 10:30:51,407444
-1,-2,-1,-5,-1,-1,0,-1,2021-08-07 10:30:51,422444
1,2,4,6,1,1,1,0,2021-08-07 10:30:51,422444
-2,-2,0,3,1,1,-1,-2,2021-08-07 10:30:51,422444
-1,-1,0,1,-3,-2,0,-1,2021-08-07 10:30:51,422444
-2,-2,-4,-12,-8,-4,-1,0,2021-08-07 10:30:51,453444
0,0,-1,4,2,0,1,0,2021-08-07 10:30:51,453444
0,-1,-2,-1,-3,-3,0,0,2021-08-07 10:30:51,453444
-1,-2,-3,-5,-8,-5,-2,-2,2021-08-07 10:30:51,453444
3,1,7,22,24,11,4,3,2021-08-07 10:30:51,485445
1,1,-1,-2,-3,-2,0,-2,2021-08-07 10:30:51,485445
-2,-1,0,-3,1,-1,-1,-1,2021-08-07 10:30:51,485445
-2,-1,-3,-6,-9,-7,-2,-2,2021-08-07 10:30:51,485445
-3,-1,-2,-3,-8,-4,-3,-2,2021-08-07 10:30:51,485445
2,0,0,-2,-7,-3,-2,-1,2021-08-07 10:30:51,485445
0,-2,-2,3,6,1,-1,-1,2021-08-07 10:30:51,485445
-2,-3,-4,-5,-1,-1,-2,-2,2021-08-07 10:30:51,485445
0,2,2,1,-1,-1,-1,-1,2021-08-07 10:30:51,517444
2,0,2,3,5,0,3,1,2021-08-07 10:30:51,533445
-3,-2,-5,-8,-8,-4,-2,-2,2021-08-07 10:30:51,549445
-2,-3,-3,-3,1,-2,-2,-2,2021-08-07 10:30:51,549445
-1,-1,-4,-9,-7,-3,-3,-2,2021-08-07 10:30:51,549445
-1,-3,-3,-1,-3,-2,-3,0,2021-08-07 10:30:51,549445
3,1,4,6,7,3,2,2,2021-08-07 10:30:51,549445
-2,-2,-1,2,-1,-2,-2,-2,2021-08-07 10:30:51,549445
-1,-1,-1,-5,-4,-1,-1,-1,2021-08-07 10:30:51,549445
2,4,4,6,4,2,1,1,2021-08-07 10:30:51,549445
-2,-3,-6,-7,-4,-2,-4,-1,2021-08-07 10:30:51,549445
0,1,3,10,7,2,1,-1,2021-08-07 10:30:51,549445
1,-3,-5,-12,-13,-6,-3,-1,2021-08-07 10:30:51,581444
-1,-1,-2,-6,-4,-2,-2,1,2021-08-07 10:30:51,597445
0,1,2,6,8,2,1,1,2021-08-07 10:30:51,597445
-1,-1,-1,2,-5,-2,0,-1,2021-08-07 10:30:51,613443
-1,-1,0,2,0,2,1,1,2021-08-07 10:30:51,645445
1,1,1,3,8,4,2,-1,2021-08-07 10:30:51,645445
-2,-1,-1,0,5,2,-1,-1,2021-08-07 10:30:51,645445
-2,-2,0,1,-2,0,-2,-2,2021-08-07 10:30:51,645445
-1,0,1,6,0,-3,-1,-1,2021-08-07 10:30:51,645445
-4,-4,-4,-9,-12,-5,-3,-2,2021-08-07 10:30:51,645445
-2,-2,-1,-3,-3,-1,-1,1,2021-08-07 10:30:51,645445
-1,1,2,5,2,2,1,1,2021-08-07 10:30:51,645445
-3,-3,-7,-11,-3,-3,-2,-1,2021-08-07 10:30:51,645445
-1,0,3,6,2,2,-1,-2,2021-08-07 10:30:51,645445
-1,-1,-4,-10,-10,-6,-2,-3,2021-08-07 10:30:51,646445
0,-1,-2,-3,-3,-1,-2,-1,2021-08-07 10:30:51,646445
0,-1,-1,-1,-3,-3,-1,-1,2021-08-07 10:30:51,646445
1,1,3,7,12,3,1,2,2021-08-07 10:30:51,646445
-2,-3,-2,-6,-9,-3,-2,-3,2021-08-07 10:30:51,661445
2,2,3,9,4,2,1,2,2021-08-07 10:30:51,661445
-1,0,-1,5,2,2,0,-2,2021-08-07 10:30:51,677445
-1,-1,-3,-2,-2,-1,-1,-3,2021-08-07 10:30:51,677445
0,-1,0,4,0,-1,0,-1,2021-08-07 10:30:51,692444
0,-1,-1,-2,1,0,0,-1,2021-08-07 10:30:51,692444
0,1,1,-2,0,1,-1,1,2021-08-07 10:30:51,692444
-1,-1,6,3,1,-3,-1,0,2021-08-07 10:30:51,692444
-1,-3,-11,-20,-10,-4,-2,-1,2021-08-07 10:30:51,692444
-5,-7,-8,-11,-9,-7,-6,-3,2021-08-07 10:30:51,692444
1,0,1,2,1,-1,0,1,2021-08-07 10:30:51,723444
-3,-3,-4,-5,-8,-3,-4,-2,2021-08-07 10:30:51,739445
0,2,9,8,6,2,0,0,2021-08-07 10:30:51,751444
2,0,-2,2,5,3,2,2,2021-08-07 10:30:51,751444
-1,-1,0,6,6,1,-1,-1,2021-08-07 10:30:51,771444
-1,-3,-5,-11,-11,-5,-1,0,2021-08-07 10:30:51,771444
1,2,6,15,9,3,1,0,2021-08-07 10:30:51,771444
-1,-1,2,6,1,1,0,0,2021-08-07 10:30:51,771444
1,1,1,0,-4,-2,1,-1,2021-08-07 10:30:51,771444
-3,-3,-6,-8,-1,-2,-2,-2,2021-08-07 10:30:51,771444
-2,-2,-6,-13,-17,-9,-2,-2,2021-08-07 10:30:51,771444
-3,-2,-3,-11,3,0,-3,-2,2021-08-07 10:30:51,771444
-1,1,5,12,1,1,-1,-1,2021-08-07 10:30:51,772445
-2,-2,-3,-3,-2,-1,0,0,2021-08-07 10:30:51,772445
3,0,1,5,1,2,1,1,2021-08-07 10:30:51,772445
0,-1,-1,0,0,1,0,-1,2021-08-07 10:30:51,772445
-5,-5,-6,-9,-9,-6,-4,-4,2021-08-07 10:30:51,787444
-1,0,-1,-1,1,-1,0,0,2021-08-07 10:30:51,802444
0,0,2,5,0,0,0,0,2021-08-07 10:30:51,818444
0,-1,-2,-4,-4,-2,-2,-1,2021-08-07 10:30:51,834445
0,-1,-2,-5,-1,-3,1,-1,2021-08-07 10:30:51,834445
0,1,-1,-6,-3,0,-1,0,2021-08-07 10:30:51,834445
-3,-3,-6,-15,-11,-7,-3,-4,2021-08-07 10:30:51,834445
4,5,7,17,13,6,3,2,2021-08-07 10:30:51,834445
1,2,0,5,8,2,3,1,2021-08-07 10:30:51,834445
-2,-1,-3,-1,-7,-3,-1,-2,2021-08-07 10:30:51,834445
-1,-2,0,3,8,2,0,-1,2021-08-07 10:30:51,834445
-4,-1,-2,-5,-9,-4,-2,-1,2021-08-07 10:30:51,835446
-2,-4,-3,-5,-4,-4,-2,-1,2021-08-07 10:30:51,850445
1,-1,-2,-5,-3,-2,-2,0,2021-08-07 10:30:51,866444
-3,-2,-1,1,0,-1,-1,-2,2021-08-07 10:30:51,866444
-3,0,0,1,2,-2,-1,0,2021-08-07 10:30:51,866444
1,6,6,10,7,5,2,4,2021-08-07 10:30:51,866444
1,0,-1,0,-3,-2,-3,-1,2021-08-07 10:30:51,866444
-1,-2,-2,1,1,0,-2,0,2021-08-07 10:30:51,866444
0,-3,-2,-2,-1,-1,-2,-2,2021-08-07 10:30:51,866444
-1,-1,-2,-7,-8,-4,-2,-2,2021-08-07 10:30:51,897445
-1,-2,-4,-1,-3,-1,-1,-1,2021-08-07 10:30:51,912443
-1,1,3,10,9,3,1,-1,2021-08-07 10:30:51,912443
-1,-1,0,0,-1,-2,0,0,2021-08-07 10:30:51,912443
-2,-2,-4,-7,-4,0,-1,-2,2021-08-07 10:30:51,912443
-1,-1,2,8,4,1,1,0,2021-08-07 10:30:51,912443
1,0,0,-5,-6,-1,0,0,2021-08-07 10:30:51,912443
-1,-1,0,2,-4,-3,-2,-1,2021-08-07 10:30:51,912443
1,-2,-6,-19,-6,-3,-2,0,2021-08-07 10:30:51,928444
0,1,4,15,12,5,1,0,2021-08-07 10:30:51,928444
-1,-1,-4,-2,-5,-5,-2,-1,2021-08-07 10:30:51,928444
0,2,-1,-3,-2,1,0,0,2021-08-07 10:30:51,928444
-1,-2,-3,-3,-6,-4,-2,-1,2021-08-07 10:30:51,960443
-2,0,-1,-5,-1,-1,-1,-3,2021-08-07 10:30:51,960443
2,3,2,2,2,0,1,1,2021-08-07 10:30:51,960443
-3,-1,-1,-4,-7,-3,-1,0,2021-08-07 10:30:51,960443
-3,-4,-3,-4,-7,-5,-2,-3,2021-08-07 10:30:51,960443
3,3,4,9,12,8,4,2,2021-08-07 10:30:51,960443
-1,-1,-3,-4,-3,0,-1,-1,2021-08-07 10:30:51,976443
-1,-1,-1,1,3,2,0,-1,2021-08-07 10:30:51,991444
-2,-3,-2,-1,-1,-1,-2,0,2021-08-07 10:30:52,006445
-5,-5,-3,-4,-8,-3,-1,-2,2021-08-07 10:30:52,006445
-1,-2,-2,-6,-4,-1,-2,-2,2021-08-07 10:30:52,006445
-1,-2,-3,-6,-4,-2,-3,-3,2021-08-07 10:30:52,006445
-2,-1,-3,0,0,1,0,-2,2021-08-07 10:30:52,006445
2,1,0,2,1,-1,2,-1,2021-08-07 10:30:52,006445
-2,0,-5,-5,-8,-2,0,-1,2021-08-07 10:30:52,022445
-1,-1,-1,-1,5,-1,-2,-3,2021-08-07 10:30:52,022445
0,1,4,12,7,1,-1,0,2021-08-07 10:30:52,022445
-1,-1,-2,-3,5,1,-2,-1,2021-08-07 10:30:52,022445
-2,-1,-1,1,-1,-1,0,-2,2021-08-07 10:30:52,022445
-2,-2,-3,-4,-6,-3,-1,-2,2021-08-07 10:30:52,022445
-3,-1,-2,-7,-3,-2,-2,-1,2021-08-07 10:30:52,051444
-1,-1,0,-2,0,0,0,0,2021-08-07 10:30:52,051444
0,-2,1,5,5,1,0,1,2021-08-07 10:30:52,052445
1,-1,0,-1,-4,-2,1,0,2021-08-07 10:30:52,052445
1,-1,1,10,8,3,2,0,2021-08-07 10:30:52,086445
-2,0,-2,-8,-7,-2,0,-1,2021-08-07 10:30:52,086445
-2,-2,-1,-3,-2,-1,-1,-1,2021-08-07 10:30:52,086445
-2,-1,-1,-1,-2,-1,-1,-1,2021-08-07 10:30:52,086445
-2,-2,-4,-6,-5,-3,-2,0,2021-08-07 10:30:52,086445
-4,-4,-2,2,-2,-3,-4,-4,2021-08-07 10:30:52,086445
4,6,9,13,12,7,4,3,2021-08-07 10:30:52,102444
3,4,4,4,3,2,1,1,2021-08-07 10:30:52,102444
0,-1,1,0,-4,1,-2,-3,2021-08-07 10:30:52,118445
-3,-2,-3,-6,-11,-8,-3,-3,2021-08-07 10:30:52,118445
-2,-2,-2,3,7,1,-2,-2,2021-08-07 10:30:52,118445
-1,-1,-1,-3,1,1,0,0,2021-08-07 10:30:52,118445
-1,0,-3,-1,-1,-1,0,-1,2021-08-07 10:30:52,134445
-1,0,0,-3,-4,-2,-1,0,2021-08-07 10:30:52,134445
-1,-5,-5,-7,-7,-3,0,-1,2021-08-07 10:30:52,134445
1,-2,-3,-3,-5,-1,1,0,2021-08-07 10:30:52,134445
0,-3,-1,4,12,4,0,-1,2021-08-07 10:30:52,150444
-3,-1,-1,2,-1,0,-1,-3,2021-08-07 10:30:52,166445
-1,1,4,6,6,1,0,-4,2021-08-07 10:30:52,213443
0,1,0,-4,-6,-2,-1,-1,2021-08-07 10:30:52,213443
-2,-2,-1,1,-1,-3,-1,-1,2021-08-07 10:30:52,213443
1,0,0,3,2,0,-2,1,2021-08-07 10:30:52,213443
0,0,-2,-2,-7,-3,-2,0,2021-08-07 10:30:52,213443
-1,-2,-2,-4,1,-1,-2,-2,2021-08-07 10:30:52,213443
1,0,4,3,2,1,0,1,2021-08-07 10:30:52,213443
3,2,-1,-2,2,2,2,3,2021-08-07 10:30:52,213443
0,-2,-1,-5,-5,-4,-2,-1,2021-08-07 10:30:52,213443
-2,-3,-2,1,-1,0,-1,-1,2021-08-07 10:30:52,214445
-3,-3,-5,-11,-14,-7,-3,-4,2021-08-07 10:30:52,214445
-1,-2,3,11,11,4,1,-3,2021-08-07 10:30:52,228444
1,-1,-2,-5,-3,-1,-1,1,2021-08-07 10:30:52,259445
-1,1,3,5,5,1,0,0,2021-08-07 10:30:52,275446
-3,0,1,1,-1,0,0,-2,2021-08-07 10:30:52,275446
-2,-2,-8,-10,-10,-4,-3,0,2021-08-07 10:30:52,275446
-2,-3,-2,-2,-3,-1,0,-2,2021-08-07 10:30:52,275446
-1,-3,1,0,0,0,-1,-2,2021-08-07 10:30:52,275446
1,-1,1,12,7,4,-1,2,2021-08-07 10:30:52,275446
3,1,1,-3,4,2,1,1,2021-08-07 10:30:52,275446
-2,0,-6,-22,-14,-8,-2,1,2021-08-07 10:30:52,275446
-5,-3,-7,-8,-9,-9,-3,-2,2021-08-07 10:30:52,276445
-1,0,2,-5,-4,-2,-1,-1,2021-08-07 10:30:52,276445
0,1,5,10,5,2,-2,-1,2021-08-07 10:30:52,276445
-1,1,-2,9,6,4,0,0,2021-08-07 10:30:52,276445
-1,-6,-4,-2,-1,0,0,0,2021-08-07 10:30:52,276445
0,-1,0,1,1,-1,0,-1,2021-08-07 10:30:52,291446
-1,-2,-2,-6,-3,-3,-1,-2,2021-08-07 10:30:52,306445
-4,0,-2,-2,-4,-3,-2,-2,2021-08-07 10:30:52,322444
0,0,-1,-1,4,1,0,0,2021-08-07 10:30:52,322444
0,0,3,14,9,3,2,0,2021-08-07 10:30:52,322444
2,2,0,1,-2,0,1,2,2021-08-07 10:30:52,322444
-1,-2,1,-4,-4,-3,-3,-3,2021-08-07 10:30:52,322444
-1,0,-2,-5,-3,-1,-1,0,2021-08-07 10:30:52,322444
-2,-2,-1,-5,-4,-2,-2,-1,2021-08-07 10:30:52,322444
0,-1,-2,-5,-3,-4,-1,-2,2021-08-07 10:30:52,322444
-4,-4,-4,-11,-11,-4,-3,-4,2021-08-07 10:30:52,338444
1,1,1,11,19,8,4,1,2021-08-07 10:30:52,338444
3,3,1,-7,-5,-1,1,2,2021-08-07 10:30:52,348444
1,0,0,5,5,2,0,1,2021-08-07 10:30:52,348444
-1,-3,-4,-6,-7,-2,-2,-2,2021-08-07 10:30:52,348444
-2,-4,-2,0,-7,-3,-2,-3,2021-08-07 10:30:52,348444
-1,0,0,-2,1,0,-1,0,2021-08-07 10:30:52,386444
-2,-1,-2,-3,-6,-5,-2,-1,2021-08-07 10:30:52,402445
0,0,-2,-2,1,0,-2,-2,2021-08-07 10:30:52,402445
-1,-2,0,1,2,3,-1,-2,2021-08-07 10:30:52,402445
1,1,0,3,0,2,0,1,2021-08-07 10:30:52,402445
-3,-2,-7,-10,-8,-3,-3,-3,2021-08-07 10:30:52,402445
0,0,2,13,3,-1,1,1,2021-08-07 10:30:52,402445
2,3,3,9,10,4,2,3,2021-08-07 10:30:52,402445
-4,-3,-8,-11,-11,-4,-3,-4,2021-08-07 10:30:52,418445
-4,-3,2,-1,5,0,-2,-2,2021-08-07 10:30:52,418445
0,2,1,1,7,3,1,0,2021-08-07 10:30:52,434445
-2,1,-2,-6,-10,-5,-2,-3,2021-08-07 10:30:52,450444
-3,-1,-4,-6,-4,-3,-3,0,2021-08-07 10:30:52,450444
0,-1,1,4,-2,-1,1,1,2021-08-07 10:30:52,450444
-3,-3,-2,-1,1,0,-2,-2,2021-08-07 10:30:52,450444
0,-1,2,-3,-5,-4,-1,-2,2021-08-07 10:30:52,450444
0,-1,-2,-2,2,0,0,-1,2021-08-07 10:30:52,450444
-2,-2,-7,-6,-6,-4,-2,-2,2021-08-07 10:30:52,450444
1,1,1,1,0,0,1,2,2021-08-07 10:30:52,450444
0,-1,-3,-1,-2,-4,-3,-1,2021-08-07 10:30:52,450444
0,1,1,0,-2,0,-1,-1,2021-08-07 10:30:52,481444
-3,-3,-1,-7,-14,-6,-4,-2,2021-08-07 10:30:52,497445
4,3,7,19,19,8,4,3,2021-08-07 10:30:52,529445
-1,1,-3,-10,-7,-4,-1,-3,2021-08-07 10:30:52,545445
-4,-5,-10,-17,-15,-8,-4,-3,2021-08-07 10:30:52,545445
0,2,6,15,12,6,1,0,2021-08-07 10:30:52,545445
1,-2,2,0,1,-1,-3,-2,2021-08-07 10:30:52,545445
-1,-2,-9,-5,-7,-3,-2,-2,2021-08-07 10:30:52,545445
0,0,4,10,5,1,0,0,2021-08-07 10:30:52,545445
-3,-2,-4,-6,-5,-2,-1,-2,2021-08-07 10:30:52,545445
-2,-2,-1,-6,-10,-5,-2,-1,2021-08-07 10:30:52,545445
0,1,5,14,15,6,2,2,2021-08-07 10:30:52,545445
-2,-1,-4,-2,-4,1,1,-1,2021-08-07 10:30:52,545445
2,-1,0,0,2,3,1,0,2021-08-07 10:30:52,545445
-2,-2,-2,-4,-5,-1,-3,-1,2021-08-07 10:30:52,561443
-2,-2,-4,-11,-10,-4,-3,0,2021-08-07 10:30:52,561443
-1,1,1,4,-2,-2,1,0,2021-08-07 10:30:52,561443
-1,-1,-1,-7,-1,0,-2,-1,2021-08-07 10:30:52,561443
1,2,8,20,18,7,3,2,2021-08-07 10:30:52,576444
-1,-2,-1,-1,-5,-3,-2,0,2021-08-07 10:30:52,576444
-1,-2,0,0,-4,-3,-3,-1,2021-08-07 10:30:52,592445
-1,-2,-2,-3,3,0,-2,0,2021-08-07 10:30:52,592445
1,0,-3,-8,-3,-2,1,0,2021-08-07 10:30:52,592445
0,1,3,5,6,3,0,1,2021-08-07 10:30:52,592445
1,0,1,1,-2,0,0,0,2021-08-07 10:30:52,592445
0,-1,-2,-3,1,0,1,1,2021-08-07 10:30:52,592445
-5,-4,-6,-8,-8,-6,-2,-3,2021-08-07 10:30:52,592445
1,1,0,-1,3,-1,-1,-1,2021-08-07 10:30:52,593444
1,-2,-1,-2,3,2,-1,-1,2021-08-07 10:30:52,623443
-3,-3,-2,2,-3,-4,-2,-4,2021-08-07 10:30:52,639445
-1,-1,-3,-1,-1,1,-1,-1,2021-08-07 10:30:52,639445
0,-2,2,2,-6,-4,-1,0,2021-08-07 10:30:52,639445
-2,0,1,0,1,1,-1,-1,2021-08-07 10:30:52,639445
0,1,-1,-9,-6,-2,-1,1,2021-08-07 10:30:52,639445
-3,-5,-7,-7,-9,-3,-3,-3,2021-08-07 10:30:52,639445
2,3,8,5,6,3,2,2,2021-08-07 10:30:52,639445
0,0,-4,1,4,2,-1,-2,2021-08-07 10:30:52,671444
0,0,1,0,-2,0,0,1,2021-08-07 10:30:52,687445
-1,-1,-1,4,1,0,-1,-3,2021-08-07 10:30:52,703444
-2,-4,-7,-13,-14,-6,-2,-2,2021-08-07 10:30:52,703444
-2,-3,0,0,5,0,0,-2,2021-08-07 10:30:52,703444
1,4,3,11,7,4,2,2,2021-08-07 10:30:52,703444
3,2,0,-4,0,0,-1,0,2021-08-07 10:30:52,703444
-2,-1,-1,1,0,-1,0,-3,2021-08-07 10:30:52,703444
-2,-2,-4,-13,-19,-10,-3,-4,2021-08-07 10:30:52,703444
-2,-4,-5,-2,8,0,-1,-3,2021-08-07 10:30:52,704444
1,0,6,10,9,5,1,2,2021-08-07 10:30:52,719444
-1,-2,1,3,3,0,1,-1,2021-08-07 10:30:52,719444
-1,-2,-11,-10,-9,-6,-2,-2,2021-08-07 10:30:52,719444
-2,-1,0,-4,-13,-6,-2,-1,2021-08-07 10:30:52,719444
1,0,2,8,7,2,1,1,2021-08-07 10:30:52,719444
-2,1,-2,-1,2,3,-1,-2,2021-08-07 10:30:52,719444
-2,-1,2,-2,-5,-3,-2,0,2021-08-07 10:30:52,735444
0,2,2,2,1,2,-2,-1,2021-08-07 10:30:52,750444
-3,-2,0,-4,-5,-4,-1,-3,2021-08-07 10:30:52,750444
-4,-5,-6,-5,-10,-5,-3,-3,2021-08-07 10:30:52,750444
0,1,2,3,11,3,1,2,2021-08-07 10:30:52,750444
3,4,2,-1,1,1,1,2,2021-08-07 10:30:52,750444
-2,-2,-3,-5,-2,-3,0,-2,2021-08-07 10:30:52,766446
-1,-3,-2,-3,-7,-6,-4,-3,2021-08-07 10:30:52,766446
-4,-4,-1,6,1,-1,-1,-3,2021-08-07 10:30:52,766446
-1,-1,2,7,6,0,0,0,2021-08-07 10:30:52,766446
-2,-3,-5,-10,-11,-4,-2,-2,2021-08-07 10:30:52,781444
3,3,2,3,1,2,3,4,2021-08-07 10:30:52,781444
3,3,5,14,13,7,1,2,2021-08-07 10:30:52,797444
-1,1,9,5,3,1,-1,-2,2021-08-07 10:30:52,797444
-2,-3,0,-4,-5,-3,-2,-3,2021-08-07 10:30:52,797444
-4,-8,-24,-21,-10,-7,-2,-3,2021-08-07 10:30:52,797444
-7,-8,-11,-19,-18,-15,-8,-6,2021-08-07 10:30:52,813444
0,2,5,11,0,1,0,0,2021-08-07 10:30:52,828445
4,8,14,17,12,6,3,2,2021-08-07 10:30:52,828445
0,4,14,11,13,9,3,1,2021-08-07 10:30:52,828445
-3,-9,-25,-33,-16,-7,-3,-3,2021-08-07 10:30:52,828445
-6,-7,-15,-10,-7,-4,-6,-4,2021-08-07 10:30:52,828445
-2,0,0,-5,-1,0,-2,0,2021-08-07 10:30:52,843444
0,2,7,10,0,-1,-1,0,2021-08-07 10:30:52,843444
1,7,15,19,18,9,3,2,2021-08-07 10:30:52,859444
-1,-4,-4,-12,-10,-6,-3,-2,2021-08-07 10:30:52,859444
0,0,-3,1,-3,-1,0,-1,2021-08-07 10:30:52,859444
0,0,2,1,-5,-3,-2,-2,2021-08-07 10:30:52,859444
7,8,11,21,12,7,5,3,2021-08-07 10:30:52,875443
-1,-2,-4,-3,-5,-1,-2,-1,2021-08-07 10:30:52,875443
0,-2,-4,-3,0,0,-2,0,2021-08-07 10:30:52,875443
-4,-4,-2,-7,1,-3,-2,-3,2021-08-07 10:30:52,891443
1,0,-2,-2,-1,-1,1,0,2021-08-07 10:30:52,907444
1,0,0,-3,-9,-5,1,0,2021-08-07 10:30:52,907444
-2,-3,-1,-4,-4,-3,-2,-3,2021-08-07 10:30:52,907444
0,1,-2,10,12,7,3,1,2021-08-07 10:30:52,907444
-1,-1,-1,-1,-1,1,-1,-2,2021-08-07 10:30:52,907444
-1,0,1,0,1,1,1,-1,2021-08-07 10:30:52,907444
-3,-4,-8,-10,-11,-6,-3,-3,2021-08-07 10:30:52,923444
-1,-1,0,-3,-3,-4,0,0,2021-08-07 10:30:52,923444
1,3,6,2,-3,0,-1,0,2021-08-07 10:30:52,939444
-1,-2,-4,-3,1,2,0,2,2021-08-07 10:30:52,949444
-1,-3,-3,2,-1,-2,3,0,2021-08-07 10:30:52,949444
1,1,1,1,1,1,0,2,2021-08-07 10:30:52,955444
-1,-1,0,6,6,3,2,-2,2021-08-07 10:30:52,971445
-5,-6,-6,-6,-8,-3,-3,-3,2021-08-07 10:30:52,987445
-5,-1,-3,-6,2,-1,-2,-4,2021-08-07 10:30:52,987445
-2,0,0,-5,-3,-1,-3,-3,2021-08-07 10:30:52,987445
-1,2,2,1,-2,-1,0,0,2021-08-07 10:30:52,987445
6,5,5,9,5,1,2,2,2021-08-07 10:30:52,987445
0,0,-4,-1,-2,-2,0,0,2021-08-07 10:30:52,987445
1,1,0,-5,-7,-3,-2,-1,2021-08-07 10:30:52,987445
-2,-5,-4,-10,-7,-5,-3,-3,2021-08-07 10:30:53,003444
-2,-4,-7,-5,-2,-1,-1,-2,2021-08-07 10:30:53,003444
4,4,0,8,13,6,3,3,2021-08-07 10:30:53,019445
-2,-2,-2,-7,-9,-6,-4,-2,2021-08-07 10:30:53,019445
-1,-1,2,5,4,4,1,0,2021-08-07 10:30:53,019445
-1,-1,1,4,8,1,1,-2,2021-08-07 10:30:53,019445
-3,-3,-4,-12,-15,-7,-2,-1,2021-08-07 10:30:53,035444
0,1,0,3,1,1,0,1,2021-08-07 10:30:53,050445
0,1,4,15,9,1,0,1,2021-08-07 10:30:53,050445
-3,-3,-2,-6,-5,-1,-3,-1,2021-08-07 10:30:53,066445
-2,-2,6,-3,-4,-2,-4,-1,2021-08-07 10:30:53,082444
0,-4,-8,-5,-9,-6,-4,-2,2021-08-07 10:30:53,082444
0,0,0,3,10,4,1,0,2021-08-07 10:30:53,082444
0,1,-2,-3,0,0,1,-2,2021-08-07 10:30:53,082444
-2,-4,-3,-1,-1,-2,-1,-2,2021-08-07 10:30:53,082444
-1,-1,-2,-10,-6,-2,0,0,2021-08-07 10:30:53,082444
0,2,1,3,3,2,-1,-1,2021-08-07 10:30:53,082444
-1,-2,-2,1,-1,-1,-3,-2,2021-08-07 10:30:53,082444
-1,1,3,7,-3,-1,-1,-1,2021-08-07 10:30:53,082444
-1,-3,-1,0,7,5,1,0,2021-08-07 10:30:53,083446
0,1,-2,-6,-3,-3,-1,1,2021-08-07 10:30:53,098445
-2,0,2,-3,-6,-2,-2,-2,2021-08-07 10:30:53,114444
0,-4,-7,-10,-5,-5,-2,-2,2021-08-07 10:30:53,130445
-1,-1,-1,0,-4,-2,-1,-1,2021-08-07 10:30:53,130445
-2,-4,-6,-15,-19,-7,-4,-1,2021-08-07 10:30:53,130445
4,4,7,15,27,10,4,4,2021-08-07 10:30:53,130445
-2,0,-4,-3,-10,-5,-1,-1,2021-08-07 10:30:53,130445
1,1,3,8,18,5,2,1,2021-08-07 10:30:53,130445
-4,-5,-3,-11,-9,-2,0,-1,2021-08-07 10:30:53,130445
-1,-2,-2,-6,-10,-5,-2,-3,2021-08-07 10:30:53,131445
-2,-1,-1,1,3,1,-2,-1,2021-08-07 10:30:53,146444
0,-1,-1,1,-2,-3,-1,-1,2021-08-07 10:30:53,146444
2,1,5,7,4,-1,1,0,2021-08-07 10:30:53,161444
-3,-2,-1,1,-7,-4,-2,0,2021-08-07 10:30:53,177444
0,-1,-3,-4,-4,-1,2,0,2021-08-07 10:30:53,193445
-1,1,7,20,12,5,1,-2,2021-08-07 10:30:53,193445
4,2,2,-3,1,2,1,1,2021-08-07 10:30:53,193445
-3,-5,-11,-21,-13,-7,-5,-3,2021-08-07 10:30:53,193445
1,2,5,8,1,2,1,2,2021-08-07 10:30:53,193445
-3,-5,-6,-4,-2,0,-3,-2,2021-08-07 10:30:53,193445
-2,-5,-2,2,6,2,0,0,2021-08-07 10:30:53,193445
0,1,2,2,-6,-2,-2,0,2021-08-07 10:30:53,193445
-4,-5,-9,-19,-12,-6,-5,-3,2021-08-07 10:30:53,193445
2,3,7,21,23,10,5,3,2021-08-07 10:30:53,194444
-3,0,-2,-2,-6,-4,-3,-1,2021-08-07 10:30:53,225445
-1,-2,1,2,5,3,1,0,2021-08-07 10:30:53,241445
0,-2,-2,-7,-5,-4,-3,-1,2021-08-07 10:30:53,241445
-3,-1,-2,-5,-5,-2,-1,-2,2021-08-07 10:30:53,241445
0,-2,-3,-4,-5,-4,-4,-3,2021-08-07 10:30:53,257444
-1,-2,1,1,-2,-2,1,0,2021-08-07 10:30:53,262443
-1,-2,-4,-7,-3,-2,-1,-2,2021-08-07 10:30:53,263445
2,0,2,-4,-7,-4,-1,0,2021-08-07 10:30:53,263445
-1,0,1,10,5,0,0,0,2021-08-07 10:30:53,263445
-3,-3,-4,-4,-10,-6,-3,-1,2021-08-07 10:30:53,263445
3,3,6,9,19,9,2,3,2021-08-07 10:30:53,263445
-3,-3,-8,-17,-20,-8,-3,-2,2021-08-07 10:30:53,263445
3,0,-1,5,11,5,3,1,2021-08-07 10:30:53,288445
0,1,0,8,9,2,-1,1,2021-08-07 10:30:53,288445
-4,-2,-2,-4,-4,-3,-3,-3,2021-08-07 10:30:53,320444
-5,-3,-5,-7,-11,-6,-2,-3,2021-08-07 10:30:53,336444
0,0,0,1,3,0,0,0,2021-08-07 10:30:53,336444
0,-2,-2,-10,-10,-5,-2,-2,2021-08-07 10:30:53,336444
3,5,10,20,18,7,3,3,2021-08-07 10:30:53,336444
-2,-1,-1,-7,-12,-5,-2,-1,2021-08-07 10:30:53,336444
-3,-5,-14,-19,-11,-6,-4,-3,2021-08-07 10:30:53,336444
-4,-4,-5,-13,-6,-3,-2,-1,2021-08-07 10:30:53,336444
5,7,12,29,30,14,6,4,2021-08-07 10:30:53,336444
-1,-4,0,1,0,0,-2,-2,2021-08-07 10:30:53,336444
-1,1,2,-2,-6,-4,-2,-2,2021-08-07 10:30:53,336444
0,-1,-4,-6,-8,-3,-1,0,2021-08-07 10:30:53,337445
-4,-6,-9,-14,-18,-9,-5,-5,2021-08-07 10:30:53,337445
5,6,10,23,33,15,9,6,2021-08-07 10:30:53,337445
-3,-1,-3,-8,-12,-5,-3,-2,2021-08-07 10:30:53,368445
-3,-3,-6,-5,-8,-6,-2,-3,2021-08-07 10:30:53,384444
-3,-3,-6,-10,-3,-2,-2,-4,2021-08-07 10:30:53,384444
-1,-2,-2,-5,-6,-2,-2,0,2021-08-07 10:30:53,384444
3,2,3,2,5,3,1,0,2021-08-07 10:30:53,384444
0,2,3,7,5,1,1,2,2021-08-07 10:30:53,384444
-3,-2,-4,-13,-10,-4,-3,-2,2021-08-07 10:30:53,384444
0,0,-3,-7,-4,-2,-1,-1,2021-08-07 10:30:53,384444
2,0,6,9,8,2,1,0,2021-08-07 10:30:53,400443
1,5,8,14,11,9,3,2,2021-08-07 10:30:53,416445
0,-3,-8,-5,1,0,0,-1,2021-08-07 10:30:53,416445
-8,-10,-9,-23,-25,-15,-9,-6,2021-08-07 10:30:53,416445
-3,-2,-7,-6,-11,-7,-4,-1,2021-08-07 10:30:53,416445
-1,2,-3,-6,9,3,0,-2,2021-08-07 10:30:53,416445
-1,-1,2,4,-1,0,0,1,2021-08-07 10:30:53,416445
-2,-3,-3,-3,-7,-2,-2,-2,2021-08-07 10:30:53,416445
2,3,10,22,16,8,4,3,2021-08-07 10:30:53,448444
-3,-5,-11,-20,-17,-7,-5,-3,2021-08-07 10:30:53,464445
0,1,3,-3,4,4,-1,1,2021-08-07 10:30:53,480446
1,3,3,-3,-1,0,1,2,2021-08-07 10:30:53,480446
-5,-6,-7,-5,-8,-3,-4,-3,2021-08-07 10:30:53,480446
0,2,5,19,14,5,1,0,2021-08-07 10:30:53,496444
2,1,3,9,5,1,1,-1,2021-08-07 10:30:53,512443
0,-1,0,0,-3,-1,-2,-3,2021-08-07 10:30:53,528445
0,0,3,2,0,1,1,0,2021-08-07 10:30:53,528445
-1,-3,2,1,-2,-2,0,-1,2021-08-07 10:30:53,528445
-2,-2,3,6,-1,-2,-1,-2,2021-08-07 10:30:53,528445
0,-2,-5,3,12,4,0,0,2021-08-07 10:30:53,528445
-5,-6,-15,-30,-25,-10,-4,-4,2021-08-07 10:30:53,528445
3,0,-5,0,26,9,4,3,2021-08-07 10:30:53,528445
-4,-2,0,-3,-13,-7,-2,-3,2021-08-07 10:30:53,528445
1,2,1,2,2,1,-1,0,2021-08-07 10:30:53,529446
-2,0,8,5,-10,-5,-2,-1,2021-08-07 10:30:53,529446
3,0,3,10,13,5,2,0,2021-08-07 10:30:53,529446
-1,-2,-10,-10,-2,0,-1,0,2021-08-07 10:30:53,529446
-4,-4,-8,-15,-13,-8,-4,-4,2021-08-07 10:30:53,529446
-1,0,-1,3,8,1,0,1,2021-08-07 10:30:53,529446
2,0,5,1,-17,-6,-2,-2,2021-08-07 10:30:53,529446
-1,1,3,6,11,4,2,2,2021-08-07 10:30:53,544445
0,1,4,16,13,5,2,1,2021-08-07 10:30:53,544445
-2,-3,-1,-15,-8,-4,-2,-2,2021-08-07 10:30:53,560445
0,1,4,8,-2,-1,1,-1,2021-08-07 10:30:53,560445
-1,-3,-4,0,-6,-5,-3,-3,2021-08-07 10:30:53,560445
-2,-2,-4,-7,-6,-5,0,-1,2021-08-07 10:30:53,560445
-1,0,-7,-8,-8,-4,-1,2,2021-08-07 10:30:53,576445
-2,0,-5,-5,18,9,2,1,2021-08-07 10:30:53,576445
-5,-4,-5,-4,-14,-8,-4,-3,2021-08-07 10:30:53,576445
2,2,9,9,4,4,1,0,2021-08-07 10:30:53,576445
3,3,7,17,14,5,2,-1,2021-08-07 10:30:53,606443
-1,-1,-7,-17,-21,-10,-3,-2,2021-08-07 10:30:53,638445
-2,-2,-2,-2,-12,-5,-3,-2,2021-08-07 10:30:53,654445
-1,-2,-4,1,9,6,1,0,2021-08-07 10:30:53,654445
-5,-5,-4,-13,-11,-6,-5,-3,2021-08-07 10:30:53,654445
0,-1,-1,8,4,2,1,1,2021-08-07 10:30:53,654445
-1,1,2,1,5,2,1,-1,2021-08-07 10:30:53,654445
-2,-1,0,-1,-9,-4,-1,-2,2021-08-07 10:30:53,654445
2,0,3,7,8,4,2,1,2021-08-07 10:30:53,654445
2,1,4,3,-1,-2,0,0,2021-08-07 10:30:53,655445
0,-2,-7,-11,-11,-5,-1,-2,2021-08-07 10:30:53,655445
-1,-3,-16,-22,-14,-8,-4,-4,2021-08-07 10:30:53,655445
1,3,5,12,23,8,3,0,2021-08-07 10:30:53,655445
-4,-3,3,2,-12,-4,-4,-3,2021-08-07 10:30:53,655445
1,1,1,6,7,4,2,1,2021-08-07 10:30:53,655445
-1,0,-2,-6,-8,-2,0,-2,2021-08-07 10:30:53,655445
1,-2,-7,1,16,6,1,-1,2021-08-07 10:30:53,686445
-2,0,0,-11,-9,-5,0,0,2021-08-07 10:30:53,702444
1,2,6,13,7,1,1,2,2021-08-07 10:30:53,702444
2,1,8,9,3,1,3,1,2021-08-07 10:30:53,702444
-2,-2,-5,2,-2,-1,0,-1,2021-08-07 10:30:53,702444
-5,-4,-8,-12,-6,-4,-5,-6,2021-08-07 10:30:53,702444
-6,-2,0,-2,-3,-2,-3,-3,2021-08-07 10:30:53,702444
-1,1,1,2,2,2,0,0,2021-08-07 10:30:53,702444
1,2,4,8,-2,0,0,0,2021-08-07 10:30:53,718444
-1,-2,-1,-3,-4,-3,-1,-1,2021-08-07 10:30:53,718444
3,1,-4,-7,4,2,1,1,2021-08-07 10:30:53,718444
-1,0,1,9,0,-2,-1,-1,2021-08-07 10:30:53,718444
4,5,6,5,-1,-1,2,4,2021-08-07 10:30:53,748444
-2,-3,-7,-5,-4,-2,-3,-2,2021-08-07 10:30:53,764444
1,0,4,-5,1,2,0,1,2021-08-07 10:30:53,796443
-4,-9,-20,-18,-12,-6,-4,-2,2021-08-07 10:30:53,796443
-5,-4,-6,-8,-2,-1,-2,-3,2021-08-07 10:30:53,796443
0,1,1,3,-7,-5,-2,-1,2021-08-07 10:30:53,796443
1,6,14,17,2,-1,1,0,2021-08-07 10:30:53,796443
1,3,11,26,24,11,2,1,2021-08-07 10:30:53,796443
-3,-7,-21,-39,-24,-9,-4,-3,2021-08-07 10:30:53,796443
-4,-5,-8,-13,1,-1,0,-1,2021-08-07 10:30:53,796443
-2,-3,-7,-12,-7,-4,-2,-3,2021-08-07 10:30:53,796443
-1,0,9,9,-1,-2,-2,-1,2021-08-07 10:30:53,796443
-1,1,9,19,6,2,0,-1,2021-08-07 10:30:53,796443
5,5,12,18,11,6,4,3,2021-08-07 10:30:53,797447
-1,-5,-15,-9,1,1,-1,-2,2021-08-07 10:30:53,797447
1,3,-1,-5,-4,-3,-1,1,2021-08-07 10:30:53,812443
-4,-4,-3,-14,-5,-4,-3,-2,2021-08-07 10:30:53,827444
-2,-3,-7,-9,-15,-8,-2,-1,2021-08-07 10:30:53,842445
-3,-3,1,2,1,-1,-1,-2,2021-08-07 10:30:53,842445
3,5,9,24,25,11,4,3,2021-08-07 10:30:53,842445
2,2,1,-2,-5,0,1,0,2021-08-07 10:30:53,842445
-2,1,-2,-2,2,2,0,0,2021-08-07 10:30:53,843445
-2,-3,-3,-10,-13,-6,-3,-3,2021-08-07 10:30:53,843445
-2,-3,-6,-11,-10,-5,-4,-3,2021-08-07 10:30:53,843445
2,0,6,9,7,1,0,1,2021-08-07 10:30:53,858444
-2,-3,-9,-13,-13,-6,-3,-4,2021-08-07 10:30:53,858444
-3,-3,-2,4,1,-1,-2,-2,2021-08-07 10:30:53,858444
-2,-4,-3,-14,-5,-3,0,-1,2021-08-07 10:30:53,858444
0,-1,-2,1,0,-1,0,-1,2021-08-07 10:30:53,873445
2,3,7,11,21,9,4,3,2021-08-07 10:30:53,873445
5,9,10,16,5,3,3,3,2021-08-07 10:30:53,873445
-1,0,5,9,-2,0,0,-2,2021-08-07 10:30:53,873445
-4,-2,-11,-8,-10,-6,-5,-1,2021-08-07 10:30:53,919446
-5,-5,-3,-12,-6,-4,-5,-5,2021-08-07 10:30:53,934444
0,-1,-5,0,3,1,0,0,2021-08-07 10:30:53,950444
1,-1,-2,3,0,-3,0,-1,2021-08-07 10:30:53,950444
0,-2,-4,-4,-2,2,-1,0,2021-08-07 10:30:53,966445
0,1,4,1,-3,-2,-1,0,2021-08-07 10:30:53,982445
-3,-2,7,-3,-4,-2,-2,-2,2021-08-07 10:30:53,982445
0,-3,-1,9,11,5,2,-1,2021-08-07 10:30:53,982445
-5,-10,-27,-28,-23,-9,-5,-5,2021-08-07 10:30:53,982445
4,5,12,18,17,7,1,1,2021-08-07 10:30:53,982445
2,2,4,7,4,2,0,2,2021-08-07 10:30:53,982445
-3,-2,-2,-15,-11,-5,-2,-1,2021-08-07 10:30:53,982445
-1,0,9,7,-2,-3,-1,0,2021-08-07 10:30:53,982445
-2,-2,-6,-5,4,3,-1,-1,2021-08-07 10:30:53,982445
-1,-3,-1,1,-1,-2,-1,0,2021-08-07 10:30:53,982445
0,0,-3,-3,-4,-3,-2,-1,2021-08-07 10:30:53,983445
2,2,6,15,17,6,2,1,2021-08-07 10:30:53,983445
0,-2,-5,-10,-18,-9,-2,-2,2021-08-07 10:30:53,983445
-2,-4,-3,-2,3,-1,-2,-4,2021-08-07 10:30:53,983445
1,3,9,12,7,4,2,2,2021-08-07 10:30:53,983445
-2,-3,-8,-10,4,2,1,0,2021-08-07 10:30:53,998443
2,1,4,9,5,1,0,0,2021-08-07 10:30:54,014444
-5,-5,-8,-17,-18,-10,-5,-3,2021-08-07 10:30:54,045444
0,1,5,7,7,3,1,0,2021-08-07 10:30:54,060443
4,3,16,23,9,3,2,1,2021-08-07 10:30:54,060443
3,0,-7,-5,-4,-1,3,0,2021-08-07 10:30:54,060443
-4,-7,-19,-30,-19,-10,-3,-4,2021-08-07 10:30:54,060443
-7,-6,-9,-21,-8,-7,-5,-5,2021-08-07 10:30:54,060443
0,2,3,6,3,1,1,-1,2021-08-07 10:30:54,060443
2,0,5,15,8,3,-1,0,2021-08-07 10:30:54,060443
1,4,3,5,4,2,1,1,2021-08-07 10:30:54,060443
-1,0,-4,-1,-4,-2,-1,-2,2021-08-07 10:30:54,060443
-4,-2,-1,-7,-2,-1,-2,-2,2021-08-07 10:30:54,060443
-3,-4,0,1,-3,0,-1,-2,2021-08-07 10:30:54,060443
1,-1,2,5,-4,-3,-3,-1,2021-08-07 10:30:54,061444
0,1,-1,-7,-17,-5,0,0,2021-08-07 10:30:54,061444
1,5,13,39,45,17,6,1,2021-08-07 10:30:54,076443
-2,0,4,14,5,2,1,0,2021-08-07 10:30:54,092444
-2,-5,-13,-19,-9,-4,-2,-2,2021-08-07 10:30:54,092444
-4,-9,-23,-38,-14,-6,-4,-2,2021-08-07 10:30:54,092444
0,0,4,-6,-18,-7,-2,-1,2021-08-07 10:30:54,092444
4,5,10,15,13,4,2,2,2021-08-07 10:30:54,092444
-2,-2,0,-1,-1,-1,0,-1,2021-08-07 10:30:54,108443
-1,-3,-9,-12,-5,1,0,-1,2021-08-07 10:30:54,123444
-5,-6,-7,-20,-25,-11,-5,-3,2021-08-07 10:30:54,123444
1,2,5,23,36,13,3,3,2021-08-07 10:30:54,123444
1,2,4,3,-6,-1,-1,1,2021-08-07 10:30:54,123444
0,2,3,9,6,1,0,-1,2021-08-07 10:30:54,123444
-1,-2,-2,-5,-3,-1,-1,0,2021-08-07 10:30:54,138445
-7,-9,-12,-26,-29,-15,-7,-5,2021-08-07 10:30:54,138445
3,2,4,4,11,4,2,1,2021-08-07 10:30:54,138445
5,7,13,17,13,6,2,3,2021-08-07 10:30:54,138445
2,2,1,3,-8,-3,0,-1,2021-08-07 10:30:54,170445
-4,-4,-11,-20,-8,-4,-5,-5,2021-08-07 10:30:54,170445
-5,-5,-3,-5,2,-2,-3,-2,2021-08-07 10:30:54,170445
1,0,1,9,2,0,0,-1,2021-08-07 10:30:54,170445
-1,-2,-6,-7,-5,-3,-2,-1,2021-08-07 10:30:54,170445
-1,0,2,4,2,2,0,1,2021-08-07 10:30:54,170445
0,1,2,9,3,2,1,1,2021-08-07 10:30:54,191444
-4,-5,-6,-14,-23,-11,-4,-3,2021-08-07 10:30:54,191444
-4,-5,-8,-9,3,-1,-1,-3,2021-08-07 10:30:54,191444
0,-1,3,8,11,5,2,1,2021-08-07 10:30:54,191444
2,2,5,9,6,4,1,0,2021-08-07 10:30:54,191444
1,3,8,15,10,3,2,1,2021-08-07 10:30:54,191444
1,1,-2,-3,-8,-2,0,-2,2021-08-07 10:30:54,217444
-4,-8,-8,-27,-27,-12,-5,-3,2021-08-07 10:30:54,233444
2,3,1,20,23,8,3,1,2021-08-07 10:30:54,233444
-2,0,-2,2,3,-2,0,-1,2021-08-07 10:30:54,233444
0,2,2,3,1,1,-1,1,2021-08-07 10:30:54,233444
-1,-1,-4,-5,-7,-2,-2,0,2021-08-07 10:30:54,233444
-4,-4,-3,-9,-12,-6,-4,-3,2021-08-07 10:30:54,249444
2,1,7,3,3,2,0,2,2021-08-07 10:30:54,249444
0,-2,1,9,5,2,1,1,2021-08-07 10:30:54,265444
3,3,2,5,10,7,3,3,2021-08-07 10:30:54,281445
-3,-4,-10,-8,-9,-4,-3,-4,2021-08-07 10:30:54,297446
-4,-2,-3,-17,-9,-4,-2,-3,2021-08-07 10:30:54,297446
2,3,10,12,1,1,1,0,2021-08-07 10:30:54,297446
0,-1,4,3,0,-1,-1,-2,2021-08-07 10:30:54,297446
-1,0,-2,-1,1,1,0,0,2021-08-07 10:30:54,297446
-4,-4,-7,-7,1,-1,-2,-1,2021-08-07 10:30:54,297446
-4,-4,-7,-11,-11,-7,-4,-3,2021-08-07 10:30:54,297446
-4,-3,-9,-17,-18,-9,-4,-2,2021-08-07 10:30:54,297446
4,7,15,24,18,10,4,2,2021-08-07 10:30:54,297446
2,3,8,19,20,7,3,2,2021-08-07 10:30:54,298446
-2,-2,-5,-8,-1,-1,0,-1,2021-08-07 10:30:54,328445
-3,-4,-8,-10,-14,-5,-1,-2,2021-08-07 10:30:54,344445
1,1,5,6,2,-1,0,0,2021-08-07 10:30:54,344445
-1,-1,-4,-8,-7,-2,-2,-2,2021-08-07 10:30:54,344445
2,0,0,-3,5,0,0,0,2021-08-07 10:30:54,344445
-4,-6,-15,-12,-5,-3,-3,-3,2021-08-07 10:30:54,344445
-5,-7,-9,-24,-20,-9,-5,-2,2021-08-07 10:30:54,376445
2,2,9,13,13,6,0,1,2021-08-07 10:30:54,376445
-1,5,11,19,12,5,2,2,2021-08-07 10:30:54,376445
3,3,8,11,-12,-4,2,0,2021-08-07 10:30:54,376445
-4,-4,-17,-22,-2,0,-2,-3,2021-08-07 10:30:54,376445
-3,-3,0,-4,13,5,0,-2,2021-08-07 10:30:54,376445
-2,-4,-10,-9,-6,-3,-3,-4,2021-08-07 10:30:54,376445
2,3,10,17,6,3,3,1,2021-08-07 10:30:54,376445
-1,-1,0,-4,-9,-1,-1,-1,2021-08-07 10:30:54,377446
6,7,6,11,14,7,7,4,2021-08-07 10:30:54,377446
-2,-2,-2,-1,-1,-1,-3,-2,2021-08-07 10:30:54,408444
-4,-4,-9,-8,-3,-4,-3,-4,2021-08-07 10:30:54,408444
0,-2,2,-1,-8,-3,-2,-2,2021-08-07 10:30:54,408444
-1,0,-2,-5,-14,-5,-4,1,2021-08-07 10:30:54,424443
4,4,10,22,10,2,2,2,2021-08-07 10:30:54,440444
1,-1,-8,-10,6,6,2,0,2021-08-07 10:30:54,440444
-6,-7,-9,-21,-7,-4,-4,-4,2021-08-07 10:30:54,440444
-6,-8,-13,-7,-11,-8,-5,-4,2021-08-07 10:30:54,440444
0,4,10,7,2,1,1,1,2021-08-07 10:30:54,440444
2,7,19,24,9,2,1,1,2021-08-07 10:30:54,440444
3,3,-2,12,10,7,5,2,2021-08-07 10:30:54,440444
-6,-12,-19,-30,-24,-16,-8,-6,2021-08-07 10:30:54,440444
-3,-2,-3,-6,-2,0,-4,-3,2021-08-07 10:30:54,471445
-1,-1,2,1,6,2,-1,0,2021-08-07 10:30:54,471445
3,2,5,3,7,2,0,0,2021-08-07 10:30:54,471445
3,3,5,5,-1,5,4,1,2021-08-07 10:30:54,471445
0,0,-1,-1,1,0,1,2,2021-08-07 10:30:54,471445
3,3,9,21,21,9,5,3,2021-08-07 10:30:54,471445
-2,1,3,4,-5,-3,-1,-2,2021-08-07 10:30:54,487445
-6,-6,-6,-7,-12,-7,-7,-7,2021-08-07 10:30:54,487445
-4,-5,-8,-17,-5,-3,-4,-4,2021-08-07 10:30:54,503444
-3,-3,-11,-28,-15,-9,-7,-2,2021-08-07 10:30:54,511444
0,-1,-4,9,-3,-3,-1,1,2021-08-07 10:30:54,512445
-2,0,2,2,-5,-2,-1,-2,2021-08-07 10:30:54,512445
4,4,5,4,11,7,4,3,2021-08-07 10:30:54,512445
1,-1,2,8,-1,-1,-2,-1,2021-08-07 10:30:54,512445
1,0,6,16,12,1,1,0,2021-08-07 10:30:54,519443
-3,-7,-11,-10,-18,-10,-5,-3,2021-08-07 10:30:54,535444
-2,-5,-19,-45,-15,-4,-2,-1,2021-08-07 10:30:54,551446
0,1,1,11,7,2,0,-1,2021-08-07 10:30:54,566444
2,4,10,6,1,2,0,1,2021-08-07 10:30:54,582444
4,5,16,16,9,3,2,3,2021-08-07 10:30:54,582444
-1,-2,-5,8,3,0,1,0,2021-08-07 10:30:54,582444
-8,-13,-23,-41,-26,-12,-6,-5,2021-08-07 10:30:54,582444
-6,-6,-11,-11,-8,-6,-3,-3,2021-08-07 10:30:54,582444
2,0,3,10,6,2,2,1,2021-08-07 10:30:54,582444
2,5,11,18,10,4,1,0,2021-08-07 10:30:54,582444
2,7,10,14,10,5,3,2,2021-08-07 10:30:54,582444
-2,0,4,-5,-14,-7,-3,-1,2021-08-07 10:30:54,582444
-1,1,-1,6,12,3,1,0,2021-08-07 10:30:54,582444
-2,-2,0,3,-17,-9,-4,-2,2021-08-07 10:30:54,613444
-3,-6,-14,-7,12,7,0,0,2021-08-07 10:30:54,629443
-1,-4,-7,-13,-6,-5,-5,-4,2021-08-07 10:30:54,629443
2,3,7,1,-2,1,2,1,2021-08-07 10:30:54,629443
-1,-6,-12,-14,-10,-7,-2,-2,2021-08-07 10:30:54,629443
-3,-2,-4,-5,-10,-6,-4,-3,2021-08-07 10:30:54,629443
-2,-4,-7,-15,-5,-3,-3,-2,2021-08-07 10:30:54,645444
-4,-2,-3,-4,-8,-4,-2,-3,2021-08-07 10:30:54,645444
2,4,17,28,14,6,3,2,2021-08-07 10:30:54,645444
3,4,10,14,8,0,0,2,2021-08-07 10:30:54,645444
-2,-1,-8,-5,-3,0,0,1,2021-08-07 10:30:54,645444
-3,-5,-5,-8,-3,-3,-2,-3,2021-08-07 10:30:54,645444
-7,-8,-13,-24,-19,-9,-7,-4,2021-08-07 10:30:54,661444
0,3,1,-1,-7,-2,0,2,2021-08-07 10:30:54,661444
3,6,18,29,22,8,4,1,2021-08-07 10:30:54,661444
-1,0,-2,3,-9,-5,-2,-1,2021-08-07 10:30:54,661444
0,-1,-5,-11,8,3,0,0,2021-08-07 10:30:54,677444
-1,-1,7,4,6,2,1,-2,2021-08-07 10:30:54,693445
-3,-7,-13,-21,-8,-5,-4,-2,2021-08-07 10:30:54,724443
0,0,-2,-3,-8,-4,-3,-2,2021-08-07 10:30:54,724443
0,0,7,18,4,2,0,-1,2021-08-07 10:30:54,724443
1,1,2,7,9,3,1,1,2021-08-07 10:30:54,724443
-4,-4,-13,-26,-19,-8,-4,-3,2021-08-07 10:30:54,724443
-3,-5,-6,-9,2,0,-2,-3,2021-08-07 10:30:54,724443
1,2,5,3,-5,-1,-1,-1,2021-08-07 10:30:54,724443
2,2,9,13,5,2,1,1,2021-08-07 10:30:54,724443
4,6,4,17,12,7,4,2,2021-08-07 10:30:54,724443
-2,-2,-5,-6,-4,-2,-3,-2,2021-08-07 10:30:54,724443
-2,-2,-5,-2,-3,-2,-2,-2,2021-08-07 10:30:54,755444
-8,-9,-10,-27,-21,-13,-6,-6,2021-08-07 10:30:54,771444
-1,-2,-5,6,6,3,0,-1,2021-08-07 10:30:54,771444
5,5,9,18,19,9,5,4,2021-08-07 10:30:54,771444
-1,3,5,7,-4,0,0,-1,2021-08-07 10:30:54,771444
-1,1,-1,-3,-5,-2,-1,0,2021-08-07 10:30:54,771444
-3,-4,-6,-4,-2,-3,-2,-3,2021-08-07 10:30:54,771444
-3,-3,0,-3,2,-2,0,-2,2021-08-07 10:30:54,771444
-1,-1,0,3,-4,-4,-1,-3,2021-08-07 10:30:54,787444
0,-1,-3,-8,-8,-4,-2,-1,2021-08-07 10:30:54,802445
0,-1,6,-4,-2,1,0,1,2021-08-07 10:30:54,802445
-1,-2,-5,-6,-2,-3,-2,-2,2021-08-07 10:30:54,802445
1,1,0,-3,9,4,1,2,2021-08-07 10:30:54,802445
-3,-4,-7,-6,-14,-8,-4,-3,2021-08-07 10:30:54,802445
5,9,9,14,10,4,2,3,2021-08-07 10:30:54,802445
-5,-6,-10,-11,-9,-4,-5,-4,2021-08-07 10:30:54,802445
-1,-2,4,3,2,0,-1,-1,2021-08-07 10:30:54,818445
2,4,5,-2,-4,0,0,0,2021-08-07 10:30:54,823443
1,2,1,-1,7,3,0,1,2021-08-07 10:30:54,823443
3,4,1,1,3,1,3,3,2021-08-07 10:30:54,823443
-2,-2,-5,-7,-8,-5,-4,-2,2021-08-07 10:30:54,850444
-5,-7,-9,-14,-15,-8,-5,-3,2021-08-07 10:30:54,866444
1,0,13,23,17,8,2,1,2021-08-07 10:30:54,898443
3,4,-1,11,13,7,2,1,2021-08-07 10:30:54,913445
-7,-8,-17,-38,-25,-11,-8,-4,2021-08-07 10:30:54,913445
0,2,8,13,14,6,2,1,2021-08-07 10:30:54,929444
-3,-6,-12,-11,-18,-8,-3,-3,2021-08-07 10:30:54,929444
1,3,9,16,13,3,0,1,2021-08-07 10:30:54,929444
1,2,5,13,2,1,1,2,2021-08-07 10:30:54,929444
2,1,0,4,11,4,1,1,2021-08-07 10:30:54,929444
0,0,0,2,1,-1,-1,-3,2021-08-07 10:30:54,945443
-6,-6,-6,-16,-18,-7,-3,-3,2021-08-07 10:30:54,961444
1,2,-1,6,12,3,0,3,2021-08-07 10:30:54,961444
2,3,7,13,11,4,1,0,2021-08-07 10:30:54,961444
0,0,-3,-1,-3,-1,-1,-1,2021-08-07 10:30:54,961444
-1,-4,-10,-23,-16,-6,-3,-2,2021-08-07 10:30:54,961444
-5,-4,0,-6,-10,-5,-4,-2,2021-08-07 10:30:54,961444
-2,-3,-1,-2,0,-1,-1,-2,2021-08-07 10:30:54,961444
2,0,2,12,6,4,2,2,2021-08-07 10:30:54,976443
-2,-4,-6,-4,3,-1,0,-1,2021-08-07 10:30:54,992444
-2,0,-3,-10,-10,-5,-1,-1,2021-08-07 10:30:54,992444
1,2,4,18,14,4,1,1,2021-08-07 10:30:54,992444
-2,1,4,-9,-9,-3,-2,-1,2021-08-07 10:30:54,992444
0,-1,1,2,-3,-2,0,-2,2021-08-07 10:30:54,992444
-3,-6,-9,-10,-8,-7,-4,-3,2021-08-07 10:30:54,992444
-3,-6,-7,-8,-6,-2,-2,-4,2021-08-07 10:30:54,992444
0,3,7,12,14,3,1,2,2021-08-07 10:30:54,992444
1,2,3,3,6,5,1,1,2021-08-07 10:30:54,992444
3,3,2,-1,3,2,3,1,2021-08-07 10:30:54,992444
-7,-8,-19,-30,-26,-12,-7,-6,2021-08-07 10:30:54,993445
-4,-4,-4,-10,-8,-6,-2,-3,2021-08-07 10:30:54,993445
-1,0,6,13,17,5,0,0,2021-08-07 10:30:54,993445
2,3,4,13,10,6,1,0,2021-08-07 10:30:54,993445
0,3,1,0,-3,-1,-2,0,2021-08-07 10:30:54,993445
3,0,-4,-2,-3,0,1,2,2021-08-07 10:30:54,993445
-3,1,3,4,1,-1,-1,-1,2021-08-07 10:30:54,993445
-2,-2,-1,-3,-9,-4,-1,-2,2021-08-07 10:30:55,024443
2,1,3,6,10,4,2,2,2021-08-07 10:30:55,024443
-8,-9,-11,-27,-32,-17,-7,-6,2021-08-07 10:30:55,024443
1,2,4,11,16,9,3,3,2021-08-07 10:30:55,024443
1,0,0,9,9,4,1,0,2021-08-07 10:30:55,039445
-1,0,-2,-3,-6,-2,-1,-1,2021-08-07 10:30:55,055443
-1,1,4,3,-4,-3,-2,-1,2021-08-07 10:30:55,071443
-4,-5,-5,-14,-19,-7,-3,-3,2021-08-07 10:30:55,071443
3,1,-2,-7,-1,1,4,2,2021-08-07 10:30:55,071443
-2,-5,-6,-1,6,3,0,-1,2021-08-07 10:30:55,071443
-2,-4,-3,-2,3,1,-2,-2,2021-08-07 10:30:55,071443
1,3,8,7,2,-1,1,0,2021-08-07 10:30:55,071443
1,2,7,17,10,3,1,0,2021-08-07 10:30:55,087444
0,1,2,-2,-7,-2,0,0,2021-08-07 10:30:55,087444
0,0,-1,-6,-3,-3,-2,0,2021-08-07 10:30:55,087444
-1,-3,-9,-5,1,3,-1,0,2021-08-07 10:30:55,087444
-5,-7,-18,-14,4,-1,-1,-2,2021-08-07 10:30:55,087444
-5,-5,2,-3,-10,-9,-6,-3,2021-08-07 10:30:55,087444
-1,0,2,11,5,1,0,0,2021-08-07 10:30:55,119478
-2,-1,5,-1,-14,-7,-2,-2,2021-08-07 10:30:55,123479
