EMG 1,EMG 2,EMG 3,EMG 4,EMG 5,EMG 6,EMG 7,EMG 8,Timestamp,Milliseconds
-3,-2,-5,-9,-14,-5,-5,-1,2021-08-07 10:32:38,564629
1,0,1,7,15,6,1,2,2021-08-07 10:32:38,564629
-1,1,1,0,-6,-2,0,0,2021-08-07 10:32:38,564629
0,-2,-2,1,9,0,-1,-2,2021-08-07 10:32:38,564629
1,1,1,-2,-8,-3,-1,1,2021-08-07 10:32:38,564629
1,0,0,8,11,5,0,1,2021-08-07 10:32:38,564629
0,0,-1,2,2,1,-1,-1,2021-08-07 10:32:38,564629
-4,-1,-3,-4,-10,-4,-2,-1,2021-08-07 10:32:38,564629
-1,-3,-4,-15,-9,-5,-1,-1,2021-08-07 10:32:38,564629
-2,2,6,14,9,2,0,0,2021-08-07 10:32:38,580629
0,-1,0,-2,-1,0,-1,0,2021-08-07 10:32:38,580629
-2,-2,-1,-2,1,-1,-1,-1,2021-08-07 10:32:38,580629
-4,-5,-5,-4,-7,-5,-4,-5,2021-08-07 10:32:38,580629
-2,-3,-4,-10,-9,-5,-2,-2,2021-08-07 10:32:38,580629
-2,0,4,11,11,2,0,-1,2021-08-07 10:32:38,596630
1,0,-5,-16,-22,-9,-4,0,2021-08-07 10:32:38,596630
2,2,5,15,15,7,3,2,2021-08-07 10:32:38,596630
-2,-2,-4,-5,2,0,-1,-2,2021-08-07 10:32:38,596630
-1,-1,1,-1,-9,-5,-4,-2,2021-08-07 10:32:38,612628
0,-3,0,5,15,4,1,0,2021-08-07 10:32:38,612628
-1,0,-1,2,-2,-2,-2,-1,2021-08-07 10:32:38,627628
-2,-3,-3,-9,-12,-7,0,-3,2021-08-07 10:32:38,632628
-1,-1,0,-3,-3,-1,-1,-2,2021-08-07 10:32:38,659630
-3,-1,-1,-3,-3,-1,-3,-1,2021-08-07 10:32:38,659630
-2,0,-3,-2,-3,0,-2,-1,2021-08-07 10:32:38,659630
-3,-3,-3,-3,-3,-3,-3,-2,2021-08-07 10:32:38,659630
3,7,5,3,3,2,2,4,2021-08-07 10:32:38,659630
0,-1,-1,-6,-4,-2,-1,-2,2021-08-07 10:32:38,659630
-2,-1,0,6,4,3,1,0,2021-08-07 10:32:38,659630
-1,-2,-1,0,0,0,0,-1,2021-08-07 10:32:38,659630
-2,-3,-2,-3,-2,-3,-1,-2,2021-08-07 10:32:38,675630
-1,-2,-1,3,1,-1,-2,0,2021-08-07 10:32:38,675630
1,0,-1,-3,-1,-1,-1,1,2021-08-07 10:32:38,691629
-3,-2,-2,-1,1,0,-1,-1,2021-08-07 10:32:38,691629
-3,-4,-3,-3,-5,-4,-4,-2,2021-08-07 10:32:38,691629
-1,-2,-6,-12,-6,-2,-2,-2,2021-08-07 10:32:38,691629
4,4,8,22,19,9,3,2,2021-08-07 10:32:38,707628
2,1,0,-3,-4,-2,-2,-1,2021-08-07 10:32:38,707628
-2,-1,2,7,8,4,0,-1,2021-08-07 10:32:38,723628
-3,-1,1,4,1,-1,-2,-1,2021-08-07 10:32:38,723848
-3,-3,-4,-6,-6,-3,-1,-2,2021-08-07 10:32:38,739216
-2,-2,-3,-10,-11,-4,-3,-2,2021-08-07 10:32:38,755217
-1,0,-2,1,-3,-2,-2,0,2021-08-07 10:32:38,771215
-1,-3,-2,-1,-1,-1,-2,-1,2021-08-07 10:32:38,787216
1,1,2,-3,-3,0,-1,0,2021-08-07 10:32:38,787216
2,1,-3,-3,-2,0,1,3,2021-08-07 10:32:38,803216
-2,-3,-3,-1,5,1,0,-1,2021-08-07 10:32:38,819215
2,2,2,8,4,2,1,0,2021-08-07 10:32:38,819215
-2,-1,-1,-5,-6,-3,-4,-1,2021-08-07 10:32:38,819215
-2,-5,-5,-10,-19,-9,-2,-4,2021-08-07 10:32:38,819215
-5,-7,-9,-21,-16,-7,-4,-3,2021-08-07 10:32:38,819215
7,11,15,44,51,19,8,5,2021-08-07 10:32:38,819215
3,1,0,0,1,-1,2,1,2021-08-07 10:32:38,819215
-1,1,-1,-4,-1,-2,-2,-1,2021-08-07 10:32:38,819215
-4,-3,-6,-16,-29,-12,-5,-2,2021-08-07 10:32:38,820217
-3,-2,-1,0,1,1,0,-1,2021-08-07 10:32:38,820217
-1,-1,-3,-6,4,0,-1,-2,2021-08-07 10:32:38,820217
-1,1,0,6,3,0,1,-1,2021-08-07 10:32:38,820217
1,0,-1,3,2,-1,1,-1,2021-08-07 10:32:38,820217
-2,0,-1,-3,-4,-2,-2,-1,2021-08-07 10:32:38,835216
2,1,3,1,-1,1,1,1,2021-08-07 10:32:38,835216
-3,-5,-8,-12,-11,-6,-4,-4,2021-08-07 10:32:38,835216
1,-1,-1,-1,-4,-3,-1,-2,2021-08-07 10:32:38,851215
1,-4,-4,-6,-4,-3,-1,-3,2021-08-07 10:32:38,851215
0,1,1,1,0,0,1,1,2021-08-07 10:32:38,851215
0,2,3,9,12,6,1,0,2021-08-07 10:32:38,851215
0,-2,-2,-10,-12,-5,-3,-2,2021-08-07 10:32:38,866216
-5,-6,-9,-25,-27,-14,-7,-5,2021-08-07 10:32:38,882216
-1,-1,-2,7,17,11,2,1,2021-08-07 10:32:38,882216
5,7,10,24,35,13,8,5,2021-08-07 10:32:38,882216
1,4,3,8,12,6,1,0,2021-08-07 10:32:38,882216
-4,-4,-6,-25,-26,-11,-5,-2,2021-08-07 10:32:38,882216
-3,-4,-4,-6,-14,-7,-5,-3,2021-08-07 10:32:38,898215
3,3,5,14,11,6,3,2,2021-08-07 10:32:38,904216
-1,0,1,-1,4,2,-1,-2,2021-08-07 10:32:38,904216
-3,-6,-10,-25,-31,-14,-4,-3,2021-08-07 10:32:38,904216
-5,-5,-6,-7,-14,-7,-3,-4,2021-08-07 10:32:38,930216
2,1,2,5,2,3,-1,1,2021-08-07 10:32:38,945215
2,2,3,8,16,4,1,2,2021-08-07 10:32:38,961221
-2,-1,1,5,15,7,1,-1,2021-08-07 10:32:38,977216
2,2,2,2,-6,-2,1,0,2021-08-07 10:32:39,025215
-1,1,-1,-4,-5,-3,-1,-2,2021-08-07 10:32:39,025215
-1,0,1,4,-3,-1,-2,0,2021-08-07 10:32:39,025215
-2,-2,-1,2,2,-1,-1,0,2021-08-07 10:32:39,025215
-1,-3,-4,-8,-10,-7,-2,-3,2021-08-07 10:32:39,025215
0,-2,0,4,16,7,3,1,2021-08-07 10:32:39,025215
-1,-2,-2,0,0,0,0,-1,2021-08-07 10:32:39,025215
-2,-2,-1,-2,-15,-5,-3,-3,2021-08-07 10:32:39,025215
-2,-1,-1,5,22,8,-1,-1,2021-08-07 10:32:39,041216
-5,-4,-4,-5,-9,-4,-3,-4,2021-08-07 10:32:39,057217
-1,-2,1,-1,-5,-3,-2,-1,2021-08-07 10:32:39,073215
6,8,5,13,23,10,6,4,2021-08-07 10:32:39,089216
-3,-3,-3,-5,-10,-5,-3,-3,2021-08-07 10:32:39,104216
-3,-5,-5,-1,-2,-4,-2,-3,2021-08-07 10:32:39,104216
-3,-5,-3,-2,0,-2,-3,-4,2021-08-07 10:32:39,104216
3,2,2,-6,-13,-3,0,3,2021-08-07 10:32:39,104216
1,1,-2,-7,-5,-2,-1,-2,2021-08-07 10:32:39,104216
-2,-3,-6,-8,0,-1,-2,-1,2021-08-07 10:32:39,104216
-2,-3,0,9,4,2,-1,-2,2021-08-07 10:32:39,104216
0,-3,0,-3,-6,-4,-3,1,2021-08-07 10:32:39,104216
-1,0,0,0,-2,-1,0,-1,2021-08-07 10:32:39,104216
1,3,3,9,20,7,5,3,2021-08-07 10:32:39,105216
0,-1,0,1,4,0,1,-1,2021-08-07 10:32:39,105216
0,-3,0,3,-4,-3,-1,-1,2021-08-07 10:32:39,105216
1,2,0,1,7,2,1,0,2021-08-07 10:32:39,105216
-6,-5,-5,-12,-21,-10,-7,-6,2021-08-07 10:32:39,105216
3,6,8,16,10,5,2,3,2021-08-07 10:32:39,105216
-1,-2,-3,2,9,3,0,-2,2021-08-07 10:32:39,105216
-1,-3,-3,-14,-13,-7,-2,0,2021-08-07 10:32:39,105216
1,0,0,-1,-2,0,-3,0,2021-08-07 10:32:39,105216
-2,-1,-4,-7,-5,-3,-2,0,2021-08-07 10:32:39,105216
-4,-2,2,10,6,2,1,0,2021-08-07 10:32:39,105216
0,1,1,5,0,-2,-2,1,2021-08-07 10:32:39,120216
-1,-1,-1,-2,-4,-2,-2,-2,2021-08-07 10:32:39,120216
1,0,-1,3,1,0,0,1,2021-08-07 10:32:39,120216
-4,-4,-4,-3,-1,-1,-1,-4,2021-08-07 10:32:39,120216
0,2,4,3,3,1,1,3,2021-08-07 10:32:39,120216
3,0,0,-11,-15,-6,-1,2,2021-08-07 10:32:39,120216
-1,0,1,14,17,5,0,-2,2021-08-07 10:32:39,120216
-4,-5,-3,-2,0,0,-2,-3,2021-08-07 10:32:39,120216
0,0,0,-3,-6,-1,0,-1,2021-08-07 10:32:39,136215
0,0,2,3,-6,-2,-2,1,2021-08-07 10:32:39,136215
-2,-1,-5,-18,-15,-7,-2,0,2021-08-07 10:32:39,136215
-1,-2,1,4,8,3,-1,0,2021-08-07 10:32:39,136215
-3,-4,-3,-4,-4,-3,-1,-2,2021-08-07 10:32:39,167216
0,-1,-1,-2,2,1,0,0,2021-08-07 10:32:39,182216
-2,-5,-4,-1,3,0,1,-1,2021-08-07 10:32:39,182216
0,1,-3,-12,-25,-11,-3,-1,2021-08-07 10:32:39,182216
-1,0,0,3,16,6,0,-4,2021-08-07 10:32:39,183217
-6,-4,-5,-7,-14,-6,-5,-5,2021-08-07 10:32:39,183217
1,2,1,0,11,2,0,-2,2021-08-07 10:32:39,183217
2,3,4,11,11,2,2,1,2021-08-07 10:32:39,183217
-1,-2,-5,-8,-13,-8,-3,-1,2021-08-07 10:32:39,199215
-1,-1,0,1,3,1,0,0,2021-08-07 10:32:39,215215
-3,-1,-5,-10,-14,-6,-3,-2,2021-08-07 10:32:39,231215
2,1,0,-3,-3,-2,0,2,2021-08-07 10:32:39,231215
-1,-1,0,5,5,0,-1,-1,2021-08-07 10:32:39,231215
-4,-2,-3,-3,-3,0,-4,-2,2021-08-07 10:32:39,231215
-3,-4,-3,-4,-9,-5,-3,-3,2021-08-07 10:32:39,231215
3,3,4,2,8,4,2,2,2021-08-07 10:32:39,231215
1,0,-1,2,0,0,0,-1,2021-08-07 10:32:39,231215
0,-1,0,1,7,1,2,0,2021-08-07 10:32:39,231215
0,0,0,-8,-10,-5,-1,-2,2021-08-07 10:32:39,232217
0,-2,0,2,6,4,0,-1,2021-08-07 10:32:39,232217
-3,-3,-1,3,10,2,0,-1,2021-08-07 10:32:39,262216
1,0,3,7,0,-1,-1,-3,2021-08-07 10:32:39,262216
0,1,0,7,14,4,0,0,2021-08-07 10:32:39,262216
-2,-1,-5,-6,-5,-4,-1,-2,2021-08-07 10:32:39,262216
-3,-4,-4,-5,-8,-3,-3,-2,2021-08-07 10:32:39,278216
2,3,4,-2,-3,-2,1,2,2021-08-07 10:32:39,278216
1,2,1,1,1,1,1,1,2021-08-07 10:32:39,278216
-1,-2,-3,-1,-1,0,0,-2,2021-08-07 10:32:39,278216
-4,-5,-2,-4,-3,-1,-2,-2,2021-08-07 10:32:39,310217
-1,-1,0,2,2,1,-1,-1,2021-08-07 10:32:39,342217
1,1,0,2,-2,-1,1,2,2021-08-07 10:32:39,358215
-3,-2,-3,-1,1,0,-1,-2,2021-08-07 10:32:39,358215
2,1,1,0,-2,0,0,1,2021-08-07 10:32:39,358215
-3,-2,-3,-3,-4,-1,-1,-2,2021-08-07 10:32:39,358215
0,0,1,-2,-2,-1,1,2,2021-08-07 10:32:39,358215
0,-1,1,1,2,0,-1,1,2021-08-07 10:32:39,358215
-2,-3,-2,0,-2,-3,-4,-2,2021-08-07 10:32:39,358215
1,-1,-2,-4,-6,-2,-1,1,2021-08-07 10:32:39,358215
-2,-3,0,7,9,5,1,-1,2021-08-07 10:32:39,358215
-1,-1,-2,-2,-3,-4,-2,-2,2021-08-07 10:32:39,358215
0,-1,-1,-4,-1,1,2,0,2021-08-07 10:32:39,358215
-1,-1,2,5,3,0,-2,-2,2021-08-07 10:32:39,359216
1,1,0,4,-4,0,1,1,2021-08-07 10:32:39,359216
-3,0,-1,-6,-6,-3,-1,-1,2021-08-07 10:32:39,359216
0,0,-2,-4,-2,-1,-2,-2,2021-08-07 10:32:39,373216
-4,-3,-5,-6,-5,-2,-2,-2,2021-08-07 10:32:39,373216
-3,-3,-1,-3,-6,-3,-1,-3,2021-08-07 10:32:39,373216
3,1,3,1,0,0,0,1,2021-08-07 10:32:39,373216
2,3,4,9,10,3,2,2,2021-08-07 10:32:39,405216
-1,-2,-2,-4,-1,-3,1,-1,2021-08-07 10:32:39,421217
-2,-5,-5,-3,-2,-2,-2,-1,2021-08-07 10:32:39,421217
-7,-9,-9,-10,-10,-6,-5,-4,2021-08-07 10:32:39,421217
5,7,7,6,1,2,3,5,2021-08-07 10:32:39,421217
4,4,2,6,7,5,3,1,2021-08-07 10:32:39,421217
-2,-1,-1,-4,-4,-2,-1,-1,2021-08-07 10:32:39,421217
-2,-2,-4,-8,-8,-4,-3,-2,2021-08-07 10:32:39,421217
-1,-2,0,7,8,1,-1,-2,2021-08-07 10:32:39,436215
-3,-4,-7,-7,-3,-2,-3,-2,2021-08-07 10:32:39,436215
4,4,6,5,-3,-1,-1,2,2021-08-07 10:32:39,436215
-1,3,3,7,12,5,1,-1,2021-08-07 10:32:39,436215
-5,-4,-5,-10,-10,-4,-3,-4,2021-08-07 10:32:39,462215
1,0,1,3,0,-1,0,1,2021-08-07 10:32:39,468217
-4,-7,-4,-8,-6,-4,-3,-3,2021-08-07 10:32:39,468217
-1,-3,-1,4,3,0,0,0,2021-08-07 10:32:39,468217
-3,-1,-3,-5,-11,-6,-5,-2,2021-08-07 10:32:39,468217
1,2,0,-1,-3,-2,-1,2,2021-08-07 10:32:39,468217
2,5,3,4,13,4,1,1,2021-08-07 10:32:39,484218
0,0,1,4,-4,-1,0,0,2021-08-07 10:32:39,500216
-4,-7,-7,-6,-4,-4,-3,-3,2021-08-07 10:32:39,516215
-4,-5,-5,-8,2,1,-1,-2,2021-08-07 10:32:39,516215
4,6,7,7,9,6,3,3,2021-08-07 10:32:39,516215
1,0,-2,-2,2,0,0,2,2021-08-07 10:32:39,516215
2,3,2,-3,-9,-3,-1,1,2021-08-07 10:32:39,516215
-3,-7,-11,-17,-35,-14,-7,-5,2021-08-07 10:32:39,516215
-3,-4,0,16,50,20,5,0,2021-08-07 10:32:39,516215
7,10,12,14,7,5,2,4,2021-08-07 10:32:39,516215
-1,-2,-3,-1,-3,-1,-1,-1,2021-08-07 10:32:39,532215
-4,-1,-2,-7,-12,-10,-2,-2,2021-08-07 10:32:39,532215
-1,-1,2,4,1,3,2,-2,2021-08-07 10:32:39,548216
-5,-4,-2,2,1,-2,-4,-4,2021-08-07 10:32:39,548216
0,0,-1,-6,-8,-4,-3,-1,2021-08-07 10:32:39,564216
2,3,5,4,-1,1,1,2,2021-08-07 10:32:39,580216
-3,-5,-9,-15,-15,-6,-2,-4,2021-08-07 10:32:39,580216
-4,-7,-9,-23,-7,-5,-3,-4,2021-08-07 10:32:39,580216
1,4,8,21,20,9,3,1,2021-08-07 10:32:39,596216
-2,-2,-3,-1,-1,0,-1,-3,2021-08-07 10:32:39,612216
-1,1,-1,-4,-10,-4,-2,0,2021-08-07 10:32:39,628235
2,2,0,-6,-15,-4,-2,1,2021-08-07 10:32:39,628235
-4,-8,-8,-21,-16,-10,-5,-3,2021-08-07 10:32:39,628235
-3,-3,3,15,24,10,1,0,2021-08-07 10:32:39,628235
5,4,2,-4,-16,-7,-2,3,2021-08-07 10:32:39,628235
-1,0,0,3,1,-1,-1,-4,2021-08-07 10:32:39,628235
-2,-4,-6,-9,-13,-6,-4,-2,2021-08-07 10:32:39,628235
2,4,7,24,38,17,5,3,2021-08-07 10:32:39,628235
-6,-6,-7,-11,-11,-7,-5,-3,2021-08-07 10:32:39,628235
0,-1,1,1,4,0,0,-1,2021-08-07 10:32:39,628235
2,3,3,2,2,2,3,2,2021-08-07 10:32:39,644234
-2,-1,-4,-12,-15,-7,-3,-2,2021-08-07 10:32:39,660235
-2,-2,1,-3,-15,-8,-5,-2,2021-08-07 10:32:39,660235
2,1,2,6,18,7,1,0,2021-08-07 10:32:39,660235
-6,-8,-8,-5,-4,-3,-2,-4,2021-08-07 10:32:39,660235
9,10,11,7,10,6,4,4,2021-08-07 10:32:39,660235
-1,0,3,7,5,1,-2,-1,2021-08-07 10:32:39,660235
-3,-2,-5,-10,-16,-8,-4,-2,2021-08-07 10:32:39,660235
-1,-1,-1,8,10,4,0,-1,2021-08-07 10:32:39,692236
-3,-6,-9,-15,-21,-11,-4,-5,2021-08-07 10:32:39,692236
1,3,2,4,14,4,2,2,2021-08-07 10:32:39,692236
-2,1,0,3,4,1,1,0,2021-08-07 10:32:39,692236
1,1,3,5,5,1,1,1,2021-08-07 10:32:39,692236
-4,-5,-3,-5,-11,-8,-5,-4,2021-08-07 10:32:39,692236
2,-1,-3,-8,-12,-6,0,1,2021-08-07 10:32:39,708236
0,0,0,-5,-1,0,-1,-1,2021-08-07 10:32:39,708236
1,2,0,2,1,1,2,0,2021-08-07 10:32:39,724235
0,-1,0,1,0,-2,-1,-2,2021-08-07 10:32:39,732234
-3,-6,-7,-13,-22,-9,-5,-4,2021-08-07 10:32:39,740236
1,0,4,24,35,12,4,3,2021-08-07 10:32:39,740236
5,4,5,3,-2,2,4,4,2021-08-07 10:32:39,756236
1,0,1,2,7,3,2,1,2021-08-07 10:32:39,756236
-2,-4,-4,-2,-2,0,-2,-3,2021-08-07 10:32:39,772235
-2,-2,-3,-8,-17,-8,-3,-1,2021-08-07 10:32:39,772235
-2,-2,-4,-6,-5,-1,-3,-1,2021-08-07 10:32:39,772235
-4,-3,-4,1,8,2,1,-2,2021-08-07 10:32:39,772235
-1,-1,-2,-2,-4,-3,-2,-1,2021-08-07 10:32:39,772235
1,-2,-3,-7,-8,-2,-2,0,2021-08-07 10:32:39,772235
-1,-2,-1,0,1,-1,-1,-1,2021-08-07 10:32:39,804236
3,2,1,-3,-7,-1,0,0,2021-08-07 10:32:39,820236
-2,-3,-4,0,3,0,-2,-2,2021-08-07 10:32:39,836488
-3,-4,-1,-3,-5,-3,-2,-2,2021-08-07 10:32:39,836488
1,0,1,-1,-3,0,0,2,2021-08-07 10:32:39,836488
-1,0,-2,-3,-2,-2,-2,-1,2021-08-07 10:32:39,851743
-1,0,2,10,11,4,2,0,2021-08-07 10:32:39,851743
-1,0,-1,-1,-3,-3,-1,-2,2021-08-07 10:32:39,851743
-3,-3,-1,0,1,-2,-2,-2,2021-08-07 10:32:39,851743
-2,-1,-2,-5,-8,-2,-1,0,2021-08-07 10:32:39,851743
1,1,2,0,-3,0,0,-1,2021-08-07 10:32:39,851743
-1,0,-3,3,0,1,2,-1,2021-08-07 10:32:39,851743
-2,-3,0,-2,0,1,-1,-3,2021-08-07 10:32:39,851743
-1,-2,-4,1,1,-1,-3,0,2021-08-07 10:32:39,851743
-2,-4,-6,-13,-8,-4,-4,-1,2021-08-07 10:32:39,851743
-1,-1,0,0,3,1,-2,0,2021-08-07 10:32:39,852642
-1,0,-2,0,1,-2,-2,-1,2021-08-07 10:32:39,866761
-2,-1,-1,1,0,-2,-2,-1,2021-08-07 10:32:39,882761
1,3,4,4,3,2,2,2,2021-08-07 10:32:39,882761
-2,-3,-4,-2,-6,-4,-2,-1,2021-08-07 10:32:39,882761
0,1,1,-1,-1,1,0,1,2021-08-07 10:32:39,882761
-2,-3,-2,-3,-1,-2,-1,-3,2021-08-07 10:32:39,882761
-3,-1,-3,-1,-4,-5,-2,-3,2021-08-07 10:32:39,882761
1,3,3,2,0,3,2,0,2021-08-07 10:32:39,882761
0,0,-2,0,2,0,-1,1,2021-08-07 10:32:39,913762
-1,0,0,0,0,1,0,1,2021-08-07 10:32:39,929763
-1,-3,-3,-5,-5,-2,-1,-2,2021-08-07 10:32:39,929763
0,-3,-2,-5,-10,-5,-2,-2,2021-08-07 10:32:39,929763
-2,-4,-4,-5,0,0,-1,-3,2021-08-07 10:32:39,929763
2,4,8,16,11,5,2,1,2021-08-07 10:32:39,929763
-3,0,-2,3,-1,-1,-2,-2,2021-08-07 10:32:39,929763
-5,-3,-1,-5,-2,-3,-4,-3,2021-08-07 10:32:39,929763
0,2,3,0,-3,-3,0,-3,2021-08-07 10:32:39,929763
0,-1,-4,-7,-6,-5,-1,-2,2021-08-07 10:32:39,930762
-1,-1,0,-2,2,1,-1,0,2021-08-07 10:32:39,945762
1,1,-2,-6,-6,-2,0,0,2021-08-07 10:32:39,960762
0,-1,0,-1,3,0,0,1,2021-08-07 10:32:39,976762
0,0,-1,1,4,2,1,0,2021-08-07 10:32:39,976762
3,0,2,4,4,2,1,0,2021-08-07 10:32:39,976762
-2,-2,-1,-2,-1,-2,-3,-1,2021-08-07 10:32:39,976762
-2,0,-1,-3,-3,-1,-1,-1,2021-08-07 10:32:39,976762
1,1,-6,-12,-7,-2,1,2,2021-08-07 10:32:39,976762
-1,-6,1,10,8,2,0,-1,2021-08-07 10:32:39,992761
-3,-1,0,4,4,2,1,-2,2021-08-07 10:32:39,992761
-1,0,3,4,1,0,-1,-1,2021-08-07 10:32:39,992761
-6,-5,-4,-6,-7,-3,-4,-5,2021-08-07 10:32:39,992761
-3,0,-5,-13,-12,-5,-2,-2,2021-08-07 10:32:40,006762
3,2,4,9,7,2,1,2,2021-08-07 10:32:40,006762
-2,-4,-4,-4,2,-1,-2,-3,2021-08-07 10:32:40,024760
1,1,6,13,11,5,2,0,2021-08-07 10:32:40,024760
0,-1,-1,2,-2,-1,-2,2,2021-08-07 10:32:40,024760
1,2,1,2,-2,-3,0,-1,2021-08-07 10:32:40,024760
-1,2,-2,-4,-6,-3,-2,1,2021-08-07 10:32:40,071990
-3,-5,-4,-3,-3,-2,-2,-1,2021-08-07 10:32:40,071990
2,4,4,0,-1,2,3,3,2021-08-07 10:32:40,071990
1,-3,-3,6,16,3,1,0,2021-08-07 10:32:40,071990
-2,-1,2,1,0,1,1,-1,2021-08-07 10:32:40,071990
0,-3,-1,-6,-6,-4,-2,-2,2021-08-07 10:32:40,071990
-3,-3,-3,-4,-5,-4,-3,-2,2021-08-07 10:32:40,071990
0,0,-4,-8,-8,-3,-2,0,2021-08-07 10:32:40,071990
1,1,-1,3,3,1,1,0,2021-08-07 10:32:40,087268
-3,-3,-2,-3,-1,-1,-3,-2,2021-08-07 10:32:40,103269
1,0,0,-1,-2,-1,0,-1,2021-08-07 10:32:40,119268
-2,-2,-2,-5,-1,-1,0,-1,2021-08-07 10:32:40,119268
1,-1,3,13,11,3,2,0,2021-08-07 10:32:40,135270
-3,-1,-3,-5,-5,-5,-2,-1,2021-08-07 10:32:40,135270
-3,-1,-4,-5,-4,-1,-2,-1,2021-08-07 10:32:40,135270
-2,-3,-5,-14,-11,-5,-2,-2,2021-08-07 10:32:40,135270
1,0,1,8,2,-1,-1,0,2021-08-07 10:32:40,135270
1,2,-1,-3,-3,0,1,0,2021-08-07 10:32:40,135270
-1,1,-1,1,0,-3,0,-1,2021-08-07 10:32:40,135270
-3,-3,-5,-4,-5,-4,-3,-1,2021-08-07 10:32:40,135270
-2,-4,-1,1,0,0,-3,-2,2021-08-07 10:32:40,135270
1,-2,1,-2,-4,-2,-1,0,2021-08-07 10:32:40,135270
1,0,2,1,5,2,0,1,2021-08-07 10:32:40,136270
-1,-2,-1,-2,-2,0,0,0,2021-08-07 10:32:40,136270
-2,-3,-5,-8,-7,-3,-1,-1,2021-08-07 10:32:40,167269
-1,-1,1,3,1,0,-2,0,2021-08-07 10:32:40,183268
-1,-1,-1,3,0,-1,-1,-2,2021-08-07 10:32:40,183268
-1,-1,1,1,-2,-2,-3,-2,2021-08-07 10:32:40,183268
-2,0,-2,-9,-8,-2,-2,0,2021-08-07 10:32:40,183268
1,2,2,8,10,3,1,-1,2021-08-07 10:32:40,199269
-3,-3,-2,-5,-4,-2,-3,-2,2021-08-07 10:32:40,215268
-2,0,0,-1,-3,0,1,-1,2021-08-07 10:32:40,215268
-3,-3,-3,0,-2,-1,-1,-2,2021-08-07 10:32:40,215268
0,-1,-3,-9,-9,-4,-1,-2,2021-08-07 10:32:40,215268
1,2,0,5,9,5,3,2,2021-08-07 10:32:40,215268
-4,-3,-3,3,-1,-2,-4,-2,2021-08-07 10:32:40,215268
3,3,3,-1,6,3,1,1,2021-08-07 10:32:40,231268
-1,-1,-1,3,-1,-1,0,-1,2021-08-07 10:32:40,247268
-1,-2,-3,-4,-2,-3,-2,-2,2021-08-07 10:32:40,263270
-1,-1,-1,-5,-7,-1,-2,-1,2021-08-07 10:32:40,279269
-1,-1,-5,-8,-3,0,-3,-1,2021-08-07 10:32:40,279269
0,2,1,1,-6,-3,-2,2,2021-08-07 10:32:40,279269
-3,-5,-3,3,11,4,0,-1,2021-08-07 10:32:40,279269
0,0,1,3,1,0,-3,1,2021-08-07 10:32:40,280269
-4,-1,-2,-6,-4,-2,-1,-1,2021-08-07 10:32:40,280269
1,1,2,5,6,3,3,0,2021-08-07 10:32:40,280269
-1,-2,-3,-8,-11,-5,-2,-1,2021-08-07 10:32:40,280269
0,-1,-2,-3,-3,0,2,-1,2021-08-07 10:32:40,280269
0,1,0,2,4,-1,-1,0,2021-08-07 10:32:40,280269
-3,-2,-2,-7,-10,-4,-3,-1,2021-08-07 10:32:40,280269
0,0,0,0,1,0,-2,0,2021-08-07 10:32:40,280269
-3,-4,-2,-2,3,0,-1,-3,2021-08-07 10:32:40,280269
-1,-2,-3,0,-2,-3,-3,-3,2021-08-07 10:32:40,309270
3,6,6,5,4,4,2,3,2021-08-07 10:32:40,325269
0,0,1,-7,-9,-2,0,-1,2021-08-07 10:32:40,340269
1,4,0,3,5,4,2,1,2021-08-07 10:32:40,355269
-1,-2,1,3,0,0,1,-1,2021-08-07 10:32:40,370269
-4,-5,-4,-4,1,-1,-2,-2,2021-08-07 10:32:40,370269
0,-1,-2,1,2,-1,-3,-1,2021-08-07 10:32:40,370269
-1,0,1,0,-2,-1,-1,0,2021-08-07 10:32:40,370269
-2,-1,0,-1,-6,-4,0,0,2021-08-07 10:32:40,370269
-1,-1,-5,-4,-1,-1,-1,-3,2021-08-07 10:32:40,386269
0,-1,-1,-2,-5,-2,0,-1,2021-08-07 10:32:40,402269
-2,-2,-3,-3,-4,-3,-2,-2,2021-08-07 10:32:40,402269
2,2,3,6,10,3,2,1,2021-08-07 10:32:40,402269
-2,-3,-1,0,1,0,-1,-1,2021-08-07 10:32:40,402269
-2,-3,-2,-3,-3,0,-2,-1,2021-08-07 10:32:40,402269
0,-2,0,0,-3,-2,-1,0,2021-08-07 10:32:40,402269
-2,0,0,2,-2,-2,0,0,2021-08-07 10:32:40,402269
4,3,2,1,1,2,3,1,2021-08-07 10:32:40,402269
-2,-1,0,0,0,-2,0,-1,2021-08-07 10:32:40,402269
1,1,2,4,2,0,0,1,2021-08-07 10:32:40,403269
-2,-5,-6,-8,-5,-3,-3,-2,2021-08-07 10:32:40,403269
-4,-5,-5,-3,-2,-3,-3,-2,2021-08-07 10:32:40,403269
-2,0,2,3,1,-2,0,-1,2021-08-07 10:32:40,403269
1,2,3,3,2,0,0,1,2021-08-07 10:32:40,403269
-3,-2,-5,-10,-7,-2,-2,-1,2021-08-07 10:32:40,434270
-2,-1,1,11,5,1,0,-2,2021-08-07 10:32:40,434270
2,0,0,0,5,4,1,0,2021-08-07 10:32:40,434270
-2,-3,-3,-3,-1,-1,0,-2,2021-08-07 10:32:40,434270
1,1,2,-3,-7,-3,-1,-2,2021-08-07 10:32:40,434270
-3,-1,1,1,0,-2,0,-3,2021-08-07 10:32:40,434270
-1,-2,-4,-4,-4,-3,-1,-2,2021-08-07 10:32:40,450269
-1,1,2,5,5,0,1,-1,2021-08-07 10:32:40,450269
1,0,-1,2,1,1,0,0,2021-08-07 10:32:40,466268
-1,-5,-3,-7,-5,-3,-2,-2,2021-08-07 10:32:40,466268
-1,0,1,4,2,1,-1,-1,2021-08-07 10:32:40,466268
0,-1,-1,-1,-4,0,-1,0,2021-08-07 10:32:40,466268
-1,-1,0,2,4,0,1,-1,2021-08-07 10:32:40,498270
-2,-1,-4,-8,-9,-4,-3,0,2021-08-07 10:32:40,514268
1,1,2,4,9,4,1,1,2021-08-07 10:32:40,514268
0,-1,-3,-2,-1,0,-1,-1,2021-08-07 10:32:40,514268
0,-1,0,-1,-1,0,0,-2,2021-08-07 10:32:40,514268
-1,-2,-1,1,0,-1,0,-2,2021-08-07 10:32:40,514268
-4,-4,-5,-9,-11,-6,-3,-3,2021-08-07 10:32:40,514268
-1,-1,-3,-3,-1,-2,-1,-1,2021-08-07 10:32:40,514268
0,1,-3,-12,-6,-3,-2,0,2021-08-07 10:32:40,530269
2,4,7,17,7,3,2,2,2021-08-07 10:32:40,530269
-1,1,0,4,4,1,0,-1,2021-08-07 10:32:40,530269
-2,-3,-2,-2,0,-1,-2,-2,2021-08-07 10:32:40,530269
-4,-6,-3,-3,-5,-3,-3,-3,2021-08-07 10:32:40,546268
1,1,-2,-6,-5,-3,0,0,2021-08-07 10:32:40,552270
3,0,1,0,-1,-1,-2,-1,2021-08-07 10:32:40,553269
0,-1,0,4,0,0,-1,0,2021-08-07 10:32:40,553269
-2,-2,-2,0,-1,-1,-2,0,2021-08-07 10:32:40,553269
-2,-3,-5,-2,1,0,-2,-3,2021-08-07 10:32:40,553269
-1,-1,1,2,-2,-1,-1,1,2021-08-07 10:32:40,561269
-1,0,0,-8,-8,-4,-2,0,2021-08-07 10:32:40,561269
0,-1,-1,5,4,0,-2,-1,2021-08-07 10:32:40,592270
0,2,2,4,4,3,2,0,2021-08-07 10:32:40,592270
-5,-3,-4,-4,-3,-2,-1,-3,2021-08-07 10:32:40,592270
-2,-4,-4,-5,-3,-3,-2,-2,2021-08-07 10:32:40,592270
0,-1,-3,-7,-2,0,-1,-1,2021-08-07 10:32:40,608269
1,2,1,1,0,-2,-2,0,2021-08-07 10:32:40,608269
0,-1,-5,-12,-8,-4,0,-1,2021-08-07 10:32:40,608269
1,3,7,25,18,9,4,0,2021-08-07 10:32:40,608269
-1,-1,1,2,1,-1,0,-1,2021-08-07 10:32:40,624268
-4,-4,-5,-9,-4,-3,-1,-2,2021-08-07 10:32:40,624268
-2,-5,-6,-12,-14,-8,-5,-1,2021-08-07 10:32:40,624268
0,2,3,8,8,4,1,0,2021-08-07 10:32:40,624268
2,0,1,1,-6,-1,0,1,2021-08-07 10:32:40,654275
-2,-2,-6,-18,-11,-4,-1,-1,2021-08-07 10:32:40,654275
0,-1,4,17,16,5,0,0,2021-08-07 10:32:40,654275
-2,-2,-2,0,-4,-4,-2,-2,2021-08-07 10:32:40,654275
-1,2,4,8,13,7,2,2,2021-08-07 10:32:40,670268
2,0,3,8,7,2,0,0,2021-08-07 10:32:40,685269
1,1,-2,-6,-10,-3,-1,-1,2021-08-07 10:32:40,701269
0,0,-2,-8,-2,-2,1,0,2021-08-07 10:32:40,701269
-1,-1,-4,-10,-18,-8,-3,-3,2021-08-07 10:32:40,701269
-3,-5,-6,-3,3,1,0,-1,2021-08-07 10:32:40,701269
-2,-5,-5,-4,-5,-2,0,1,2021-08-07 10:32:40,701269
-2,-2,-6,-15,-12,-6,-6,-4,2021-08-07 10:32:40,701269
-2,-1,2,7,-2,0,-1,-2,2021-08-07 10:32:40,701269
0,4,6,16,32,11,1,0,2021-08-07 10:32:40,701269
-2,-1,-4,-23,-20,-8,-5,-3,2021-08-07 10:32:40,701269
0,2,4,14,17,8,2,3,2021-08-07 10:32:40,701269
1,0,-4,-11,-1,0,0,0,2021-08-07 10:32:40,733269
-3,-2,-2,4,-2,-3,-1,-3,2021-08-07 10:32:40,749268
0,0,-5,-10,-11,-5,0,0,2021-08-07 10:32:40,779295
-1,-1,-3,-7,-3,-3,-1,-1,2021-08-07 10:32:40,795295
-2,-4,-3,-3,-4,-4,-2,-1,2021-08-07 10:32:40,811295
0,0,-2,-5,-7,-3,-2,0,2021-08-07 10:32:40,827296
-1,1,2,3,2,0,-2,-1,2021-08-07 10:32:40,827296
0,0,-2,-9,-12,-3,-1,0,2021-08-07 10:32:40,827296
-1,0,2,12,15,5,0,-1,2021-08-07 10:32:40,827296
-1,-2,-3,-7,-10,-5,-4,-2,2021-08-07 10:32:40,827296
-1,-3,-2,2,3,0,-2,0,2021-08-07 10:32:40,827296
-1,0,-1,1,-2,1,1,-2,2021-08-07 10:32:40,827296
-4,-4,-2,3,2,-1,-2,-3,2021-08-07 10:32:40,827296
-3,-2,-4,-9,-3,1,-1,-1,2021-08-07 10:32:40,828296
0,4,6,24,19,6,3,2,2021-08-07 10:32:40,828296
4,4,3,8,8,6,2,3,2021-08-07 10:32:40,828296
-2,-1,-3,-8,-13,-7,-3,-1,2021-08-07 10:32:40,828296
0,-1,-1,-2,-6,-3,-2,-1,2021-08-07 10:32:40,828296
-2,-2,1,6,10,2,0,-2,2021-08-07 10:32:40,828296
-5,-7,-4,-7,-5,-4,-2,-4,2021-08-07 10:32:40,828296
2,3,0,-3,-4,-3,1,0,2021-08-07 10:32:40,828296
1,3,3,-1,-2,0,-1,1,2021-08-07 10:32:40,828296
-2,-2,-2,-4,-6,-3,-1,-2,2021-08-07 10:32:40,828296
-5,-7,-10,-8,-12,-8,-4,-4,2021-08-07 10:32:40,829296
4,5,4,-3,12,8,2,3,2021-08-07 10:32:40,859295
2,1,5,15,8,3,3,0,2021-08-07 10:32:40,859295
-1,-1,-1,0,3,2,0,-2,2021-08-07 10:32:40,859295
-1,0,-1,-6,-6,-2,0,0,2021-08-07 10:32:40,859295
-1,-4,-4,-2,-6,-5,-2,-2,2021-08-07 10:32:40,859295
0,-2,-3,-3,-6,-3,-3,0,2021-08-07 10:32:40,859295
-2,0,-2,-6,-8,-4,-2,0,2021-08-07 10:32:40,875294
-1,1,1,8,10,4,0,0,2021-08-07 10:32:40,875294
-1,1,-1,4,4,0,1,-1,2021-08-07 10:32:40,891295
-1,-1,-1,-5,-5,-1,0,-1,2021-08-07 10:32:40,907295
0,0,3,3,3,1,0,-1,2021-08-07 10:32:40,907295
-2,-1,-2,-5,-3,-2,-3,-1,2021-08-07 10:32:40,907295
-3,-2,-1,-3,-5,-3,-3,-2,2021-08-07 10:32:40,907295
0,0,-3,-7,-7,-3,-1,0,2021-08-07 10:32:40,907295
0,-1,-1,1,0,-1,0,-1,2021-08-07 10:32:40,907295
4,3,4,7,19,8,4,2,2021-08-07 10:32:40,907295
-4,-3,-2,0,0,0,-2,-2,2021-08-07 10:32:40,923295
-3,-3,-2,-1,-4,-2,-2,-4,2021-08-07 10:32:40,939295
-2,-1,-4,-4,-5,-2,0,-1,2021-08-07 10:32:40,939295
-1,-2,-1,-4,-3,-5,-2,0,2021-08-07 10:32:40,939295
-3,-3,-3,-12,-8,-4,-3,-1,2021-08-07 10:32:40,939295
3,3,5,11,11,5,2,1,2021-08-07 10:32:40,939295
-2,-2,-1,-3,2,1,-2,-1,2021-08-07 10:32:40,939295
0,0,2,6,-3,-2,-2,-1,2021-08-07 10:32:40,939295
-2,-2,-3,-1,5,2,-1,-1,2021-08-07 10:32:40,970295
-3,-4,-2,-4,-8,-6,-4,-2,2021-08-07 10:32:40,970295
0,-2,-4,-2,-1,-1,-3,-2,2021-08-07 10:32:40,970295
-2,-2,-4,-6,-7,-4,-4,0,2021-08-07 10:32:40,970295
1,2,1,2,2,0,1,-1,2021-08-07 10:32:40,986294
-1,0,-1,-1,-2,1,1,1,2021-08-07 10:32:40,986294
2,1,-1,2,3,2,1,0,2021-08-07 10:32:41,001295
-4,-2,-2,-5,-6,-3,-1,-4,2021-08-07 10:32:41,001295
-3,-3,-2,0,-4,-1,-1,-1,2021-08-07 10:32:41,001295
0,2,3,4,8,3,2,2,2021-08-07 10:32:41,001295
0,0,3,2,1,0,0,1,2021-08-07 10:32:41,001295
0,-3,-1,-2,-3,-2,0,-1,2021-08-07 10:32:41,002295
-1,1,1,4,-3,0,0,-1,2021-08-07 10:32:41,032294
-3,-2,-6,-8,-3,-2,-2,-2,2021-08-07 10:32:41,047295
-1,-1,0,4,3,2,-1,-2,2021-08-07 10:32:41,063296
-2,-1,-4,-8,-3,-2,-2,0,2021-08-07 10:32:41,063296
1,0,5,14,7,4,1,0,2021-08-07 10:32:41,063296
-1,-2,-3,-9,-9,-5,-2,-2,2021-08-07 10:32:41,063296
0,-1,0,3,-1,-2,1,2,2021-08-07 10:32:41,095295
-1,-2,-1,1,1,-1,0,-3,2021-08-07 10:32:41,110295
0,-1,0,-4,1,1,-1,-1,2021-08-07 10:32:41,110295
-2,-3,-3,-4,-11,-5,-3,-1,2021-08-07 10:32:41,110295
-2,-2,-2,-2,1,-2,-2,-2,2021-08-07 10:32:41,110295
-1,1,-1,-3,4,2,0,0,2021-08-07 10:32:41,111295
0,-1,-1,-3,-5,-3,-1,-1,2021-08-07 10:32:41,111295
0,-2,0,4,5,1,0,-1,2021-08-07 10:32:41,127295
-2,-2,-3,-11,-11,-4,-1,0,2021-08-07 10:32:41,143295
-1,-2,-3,-4,-6,-2,-1,-2,2021-08-07 10:32:41,143295
-1,1,-2,0,4,1,2,-1,2021-08-07 10:32:41,143295
-1,-1,1,1,-6,-2,-3,-3,2021-08-07 10:32:41,143295
-3,-1,-2,0,-1,-2,-2,-3,2021-08-07 10:32:41,159296
0,0,2,5,7,4,0,1,2021-08-07 10:32:41,175295
1,-1,-1,-3,1,1,1,1,2021-08-07 10:32:41,175516
-2,-1,-1,-4,0,-1,0,0,2021-08-07 10:32:41,175516
0,0,0,0,-5,-2,-2,0,2021-08-07 10:32:41,175516
-1,-2,-1,1,-4,-1,-1,-2,2021-08-07 10:32:41,175516
-4,-3,-5,-7,-8,-6,-2,-1,2021-08-07 10:32:41,175516
-2,-1,-2,3,4,1,1,-1,2021-08-07 10:32:41,175516
0,-1,1,3,6,2,2,1,2021-08-07 10:32:41,175516
0,-1,-1,-8,-8,-5,-1,1,2021-08-07 10:32:41,175516
1,0,1,11,9,3,0,-2,2021-08-07 10:32:41,175516
-3,-5,-4,-6,-1,-1,-2,-1,2021-08-07 10:32:41,175516
0,-1,0,1,1,1,1,0,2021-08-07 10:32:41,175516
-2,-1,-4,-6,-10,-5,-1,-2,2021-08-07 10:32:41,176296
-3,-4,-4,-10,-5,0,-2,-2,2021-08-07 10:32:41,190802
5,8,11,16,13,6,4,6,2021-08-07 10:32:41,190802
1,1,3,5,-1,1,0,-1,2021-08-07 10:32:41,190802
-2,-4,-4,-6,-1,-3,-3,-2,2021-08-07 10:32:41,190802
-2,0,2,0,1,-2,-1,-1,2021-08-07 10:32:41,206823
-3,-5,-6,-7,-2,-1,-2,-2,2021-08-07 10:32:41,222823
-1,0,-1,4,3,2,0,1,2021-08-07 10:32:41,253822
-1,-2,-2,-3,-7,-2,-2,-2,2021-08-07 10:32:41,253822
0,-1,1,6,0,-3,-3,-2,2021-08-07 10:32:41,253822
-1,-3,-5,-10,-12,-6,-3,-2,2021-08-07 10:32:41,253822
1,0,1,7,9,2,2,1,2021-08-07 10:32:41,253822
-1,-1,3,10,11,6,1,1,2021-08-07 10:32:41,253822
-1,0,0,-2,3,1,0,0,2021-08-07 10:32:41,253822
-1,0,0,-3,-10,-4,-3,-1,2021-08-07 10:32:41,253822
0,-1,-3,-9,-9,-4,-3,-1,2021-08-07 10:32:41,253822
-1,-3,-2,1,1,1,0,-2,2021-08-07 10:32:41,254823
2,1,-1,-2,-4,-1,-1,-1,2021-08-07 10:32:41,269823
3,1,0,-2,-2,-2,0,0,2021-08-07 10:32:41,285822
-2,0,0,-9,-2,-1,-1,-2,2021-08-07 10:32:41,285822
3,4,3,14,10,4,1,1,2021-08-07 10:32:41,285822
-2,-3,-6,-9,-11,-3,-3,-2,2021-08-07 10:32:41,285822
-5,-6,-2,2,6,1,0,-4,2021-08-07 10:32:41,285822
2,4,4,12,16,7,2,3,2021-08-07 10:32:41,301822
-1,0,1,-3,-7,-3,0,-1,2021-08-07 10:32:41,317822
-3,-5,-4,-6,-7,-6,-3,-3,2021-08-07 10:32:41,317822
2,2,4,10,7,2,0,0,2021-08-07 10:32:41,317822
-2,-2,-1,-3,-5,-4,-1,-1,2021-08-07 10:32:41,317822
-2,-2,-3,-10,-13,-6,-3,-2,2021-08-07 10:32:41,317822
2,2,2,13,14,5,2,2,2021-08-07 10:32:41,333823
-4,-3,-5,-10,-7,-4,-3,-3,2021-08-07 10:32:41,333823
-3,-4,1,3,-2,0,-2,-2,2021-08-07 10:32:41,333823
-1,0,0,0,4,0,0,2,2021-08-07 10:32:41,333823
1,-1,-1,-7,-7,-1,0,-1,2021-08-07 10:32:41,349822
-2,0,-2,0,-1,-2,0,-1,2021-08-07 10:32:41,349822
-2,-3,-3,-3,-3,-1,-3,-1,2021-08-07 10:32:41,349822
-3,-1,-5,-10,-11,-5,-3,-2,2021-08-07 10:32:41,349822
2,2,0,-4,-4,-4,0,0,2021-08-07 10:32:41,365822
0,1,1,6,6,5,2,2,2021-08-07 10:32:41,380822
-1,-1,-3,-4,-1,-2,0,-2,2021-08-07 10:32:41,380822
-4,-4,-2,0,-2,-1,-2,-4,2021-08-07 10:32:41,380822
1,4,4,1,1,1,2,0,2021-08-07 10:32:41,380822
2,3,3,5,-4,-1,-1,0,2021-08-07 10:32:41,380822
-1,-1,-4,-4,-3,-3,-2,-4,2021-08-07 10:32:41,380822
0,0,0,3,1,-1,-3,1,2021-08-07 10:32:41,380822
-2,-4,-5,-3,0,-2,-2,1,2021-08-07 10:32:41,412822
-1,-3,-5,-5,-5,-1,0,0,2021-08-07 10:32:41,413023
-1,-2,-6,-7,-7,-2,1,-1,2021-08-07 10:32:41,413023
-1,-2,1,1,6,4,1,-1,2021-08-07 10:32:41,413023
-3,-2,0,5,3,0,-2,-3,2021-08-07 10:32:41,428823
-3,-2,1,2,4,0,0,-1,2021-08-07 10:32:41,428823
-2,-2,-3,-4,-6,-4,-4,-4,2021-08-07 10:32:41,428823
2,4,4,6,3,-1,0,0,2021-08-07 10:32:41,428823
-2,0,-1,-3,-3,-3,-2,0,2021-08-07 10:32:41,444823
1,1,-1,2,3,2,1,1,2021-08-07 10:32:41,444823
-1,-3,-6,-8,-4,-3,-2,-1,2021-08-07 10:32:41,444823
2,0,4,7,6,3,2,1,2021-08-07 10:32:41,444823
-1,-3,-2,-5,-6,-4,-1,1,2021-08-07 10:32:41,476823
-2,0,1,7,6,0,0,1,2021-08-07 10:32:41,492823
-2,-1,1,0,-3,-2,-1,0,2021-08-07 10:32:41,524822
-2,-3,-2,-6,-5,-3,-2,-2,2021-08-07 10:32:41,524822
-3,-2,1,6,4,3,1,-2,2021-08-07 10:32:41,524822
-2,-3,-4,-6,-5,-3,-1,-3,2021-08-07 10:32:41,524822
-1,-1,-1,-2,1,0,0,-1,2021-08-07 10:32:41,524822
-1,-1,-2,-2,-5,-2,0,-2,2021-08-07 10:32:41,524822
0,-1,0,-1,1,2,-1,-1,2021-08-07 10:32:41,524822
-1,-1,-2,-8,-3,-4,-3,-3,2021-08-07 10:32:41,524822
2,3,4,10,7,2,1,0,2021-08-07 10:32:41,524822
0,-1,0,1,5,3,0,1,2021-08-07 10:32:41,524822
-3,-2,-3,-5,-5,-3,-1,-1,2021-08-07 10:32:41,524822
-2,-5,-7,-19,-17,-7,-2,-3,2021-08-07 10:32:41,524822
0,1,4,23,14,5,1,0,2021-08-07 10:32:41,556822
-2,0,-3,-12,-2,-1,-1,-3,2021-08-07 10:32:41,571822
2,1,2,4,0,-1,0,2,2021-08-07 10:32:41,571822
0,1,-1,-1,0,-1,-2,1,2021-08-07 10:32:41,587822
-3,-2,-2,-9,-7,-3,-3,-2,2021-08-07 10:32:41,587822
-2,-3,-5,-5,-6,-3,-2,-2,2021-08-07 10:32:41,587822
-3,-1,-1,-1,-1,-1,-1,-2,2021-08-07 10:32:41,587822
0,-2,0,1,-1,-1,-3,-1,2021-08-07 10:32:41,587822
-2,-1,-6,-11,-11,-6,-5,-1,2021-08-07 10:32:41,587822
2,4,5,16,17,7,2,3,2021-08-07 10:32:41,587822
-1,1,0,-4,-1,0,-1,-2,2021-08-07 10:32:41,587822
0,0,0,2,0,0,1,-1,2021-08-07 10:32:41,587822
-1,-1,0,-4,-7,-4,-1,-2,2021-08-07 10:32:41,587822
-1,-4,-2,-4,-4,-3,-2,-2,2021-08-07 10:32:41,588823
0,-1,-5,-13,-8,-6,-4,-2,2021-08-07 10:32:41,603823
1,0,2,13,5,1,3,-1,2021-08-07 10:32:41,619822
2,2,6,10,19,9,3,3,2021-08-07 10:32:41,635822
0,1,0,-1,-5,-3,-1,-1,2021-08-07 10:32:41,635822
0,-2,-2,-3,-4,-2,-1,0,2021-08-07 10:32:41,635822
-4,-3,-4,-5,-5,-3,-2,-2,2021-08-07 10:32:41,635822
-2,-2,-6,-12,-11,-4,-2,0,2021-08-07 10:32:41,635822
-1,0,1,5,3,-1,0,-1,2021-08-07 10:32:41,635822
1,1,2,2,3,4,0,1,2021-08-07 10:32:41,651823
-3,-4,-5,-7,-3,-2,-2,-2,2021-08-07 10:32:41,654823
-1,-1,-3,-7,-7,-4,-1,-3,2021-08-07 10:32:41,654823
1,1,1,8,8,4,2,1,2021-08-07 10:32:41,654823
2,1,3,5,2,-1,1,-1,2021-08-07 10:32:41,666823
-2,-1,-1,1,5,3,-1,0,2021-08-07 10:32:41,666823
-5,-6,-5,-5,-5,-4,-4,-4,2021-08-07 10:32:41,682822
-1,-2,-3,-8,-8,-6,-1,-2,2021-08-07 10:32:41,682822
-1,0,2,5,4,0,1,-1,2021-08-07 10:32:41,682822
1,0,2,4,2,1,0,-1,2021-08-07 10:32:41,682822
1,0,0,1,0,0,0,0,2021-08-07 10:32:41,682822
-2,-3,-4,-4,-5,-3,-1,-3,2021-08-07 10:32:41,682822
-1,-4,-2,3,6,3,0,0,2021-08-07 10:32:41,712823
0,2,-3,-8,-5,-2,-3,0,2021-08-07 10:32:41,712823
-1,2,2,7,6,3,1,-1,2021-08-07 10:32:41,712823
2,1,3,2,-4,-1,-1,0,2021-08-07 10:32:41,712823
-3,-2,-3,-5,-7,-2,-2,-1,2021-08-07 10:32:41,728822
-3,-5,-7,-11,-4,-5,-1,-3,2021-08-07 10:32:41,728822
-1,-3,-4,-10,-7,-3,-1,-1,2021-08-07 10:32:41,728822
5,5,9,16,20,11,2,3,2021-08-07 10:32:41,728822
1,1,1,5,3,1,1,-1,2021-08-07 10:32:41,744823
0,-1,2,0,-3,-2,0,0,2021-08-07 10:32:41,776824
-3,-3,-4,-11,-10,-4,-3,-2,2021-08-07 10:32:41,776824
1,0,4,14,8,3,3,1,2021-08-07 10:32:41,776824
-3,-4,-6,-5,-6,-3,-2,-2,2021-08-07 10:32:41,776824
0,0,3,5,4,2,0,1,2021-08-07 10:32:41,776824
1,0,3,6,4,1,2,0,2021-08-07 10:32:41,776824
-3,-3,-6,-15,-12,-5,-3,-3,2021-08-07 10:32:41,776824
-1,-1,-1,0,0,-1,-1,0,2021-08-07 10:32:41,776824
-1,-1,-1,1,0,1,-2,0,2021-08-07 10:32:41,777823
0,-1,0,4,1,-1,-2,0,2021-08-07 10:32:41,792822
-2,-2,-5,-8,-7,-3,-3,-1,2021-08-07 10:32:41,792822
-2,0,-1,1,-2,-1,0,-3,2021-08-07 10:32:41,808822
-1,-1,-1,-3,-2,-1,-1,-1,2021-08-07 10:32:41,824822
0,0,0,1,2,0,0,-1,2021-08-07 10:32:41,839822
-3,-1,-4,-6,-6,-2,-1,-1,2021-08-07 10:32:41,839822
-3,-4,-5,-7,-5,-4,-4,-3,2021-08-07 10:32:41,839822
-2,-2,-1,-5,-9,-4,-1,-2,2021-08-07 10:32:41,839822
4,4,5,10,17,9,4,3,2021-08-07 10:32:41,839822
-3,-2,-1,1,3,0,0,-2,2021-08-07 10:32:41,839822
-1,0,0,-1,-2,0,0,0,2021-08-07 10:32:41,839822
-2,-1,0,0,-4,-3,-1,-2,2021-08-07 10:32:41,839822
-3,-3,-4,-9,-9,-6,-3,-2,2021-08-07 10:32:41,855823
-3,-3,-3,-9,-7,-2,-3,-3,2021-08-07 10:32:41,855823
1,0,1,1,0,2,0,0,2021-08-07 10:32:41,871822
1,1,-1,-4,1,-1,0,0,2021-08-07 10:32:41,887823
2,1,4,11,7,4,2,0,2021-08-07 10:32:41,902822
-1,0,-1,-1,-3,-2,1,2,2021-08-07 10:32:41,902822
-2,0,1,4,-1,-1,-1,-1,2021-08-07 10:32:41,902822
-1,-2,0,-1,3,3,1,-1,2021-08-07 10:32:41,902822
-2,-5,-3,-6,-7,-2,-3,-3,2021-08-07 10:32:41,902822
-1,-3,-5,-8,-11,-6,-3,-3,2021-08-07 10:32:41,902822
1,2,4,15,7,2,1,2,2021-08-07 10:32:41,902822
2,3,2,5,10,5,3,1,2021-08-07 10:32:41,903823
-3,-3,-2,3,1,-2,-2,-2,2021-08-07 10:32:41,918822
-1,-4,-3,-5,-5,-2,-3,-1,2021-08-07 10:32:41,950823
-1,0,-5,-16,-12,-5,0,-1,2021-08-07 10:32:41,950823
1,1,3,11,11,4,2,0,2021-08-07 10:32:41,950823
1,1,1,0,0,0,0,-1,2021-08-07 10:32:41,950823
-1,-2,-1,-5,-8,-4,-2,-2,2021-08-07 10:32:41,950823
-2,-4,0,2,3,-2,-2,-2,2021-08-07 10:32:41,950823
-2,-3,-2,0,-3,-1,0,0,2021-08-07 10:32:41,950823
3,3,1,3,6,2,1,0,2021-08-07 10:32:41,950823
-1,0,-1,-1,0,-1,-1,-1,2021-08-07 10:32:41,950823
-1,2,-1,-5,-4,0,0,-1,2021-08-07 10:32:41,966823
-2,-4,-3,-2,-1,-1,-1,-1,2021-08-07 10:32:41,982823
-1,-1,-3,0,-5,-3,-1,-1,2021-08-07 10:32:41,982823
0,0,1,-2,-1,1,1,0,2021-08-07 10:32:41,982823
-2,-2,1,1,6,2,1,-2,2021-08-07 10:32:41,998823
-1,-1,-3,-10,-9,-5,0,-3,2021-08-07 10:32:42,013823
-4,-2,-4,-2,-1,0,1,-1,2021-08-07 10:32:42,013823
0,0,1,1,2,-1,-1,-1,2021-08-07 10:32:42,013823
0,1,2,7,6,1,-1,1,2021-08-07 10:32:42,013823
-1,-2,-3,-4,-7,-4,-4,-1,2021-08-07 10:32:42,013823
-3,-5,-6,-18,-25,-12,-6,-4,2021-08-07 10:32:42,029823
0,0,0,4,18,8,4,2,2021-08-07 10:32:42,029823
-1,-1,2,12,12,3,0,-3,2021-08-07 10:32:42,029823
1,4,4,3,2,2,2,2,2021-08-07 10:32:42,029823
-4,-4,-5,-11,-8,-4,-3,-1,2021-08-07 10:32:42,029823
-1,1,0,-5,-13,-6,-3,-1,2021-08-07 10:32:42,029823
-1,-3,-5,-12,-11,-3,-2,-2,2021-08-07 10:32:42,045824
-2,-4,-1,4,0,-2,-3,0,2021-08-07 10:32:42,061823
1,2,2,1,5,2,1,0,2021-08-07 10:32:42,077824
0,-2,-2,5,0,-3,-1,-2,2021-08-07 10:32:42,077824
0,1,0,-2,1,0,0,0,2021-08-07 10:32:42,077824
-3,0,-2,-1,-9,-3,-2,-4,2021-08-07 10:32:42,077824
-1,-1,-4,-8,-1,-1,-2,1,2021-08-07 10:32:42,077824
3,3,4,12,11,5,4,3,2021-08-07 10:32:42,077824
-2,0,1,1,-3,1,0,1,2021-08-07 10:32:42,093822
0,-1,-5,-11,-10,-4,-2,-1,2021-08-07 10:32:42,093822
-1,-1,2,7,8,1,-1,-2,2021-08-07 10:32:42,093822
-2,-3,-4,-10,-10,-4,-3,-3,2021-08-07 10:32:42,093822
-2,-4,-5,-4,-5,-4,-1,-1,2021-08-07 10:32:42,109822
0,-1,1,5,9,4,0,-1,2021-08-07 10:32:42,109822
1,3,4,10,7,4,2,2,2021-08-07 10:32:42,109822
-3,0,0,-2,-6,-2,-2,0,2021-08-07 10:32:42,109822
-3,-2,-5,-8,-5,-4,-2,-1,2021-08-07 10:32:42,139823
-2,-2,-1,-4,-2,-2,-1,0,2021-08-07 10:32:42,155823
-4,-3,-3,0,-3,-2,-1,-1,2021-08-07 10:32:42,171822
0,0,-2,0,0,-1,0,0,2021-08-07 10:32:42,171822
-2,-6,-3,-4,-7,-6,-2,-1,2021-08-07 10:32:42,171822
-1,-3,-3,-2,1,-1,-1,-2,2021-08-07 10:32:42,171822
0,0,0,2,-5,-1,-1,-1,2021-08-07 10:32:42,171822
0,2,2,5,5,4,1,0,2021-08-07 10:32:42,171822
2,2,2,2,-1,1,0,0,2021-08-07 10:32:42,171822
0,1,2,-5,-8,-3,1,-1,2021-08-07 10:32:42,171822
1,2,5,19,17,6,2,0,2021-08-07 10:32:42,171822
-3,-5,-4,-7,7,3,-2,-1,2021-08-07 10:32:42,172823
-2,-1,-2,-2,-4,-4,-3,-1,2021-08-07 10:32:42,187822
-1,-1,-1,2,-1,-3,-2,0,2021-08-07 10:32:42,187822
0,1,1,-5,-3,0,-1,0,2021-08-07 10:32:42,187822
-2,-6,-2,-6,-8,-7,-4,-2,2021-08-07 10:32:42,187822
3,4,4,1,4,2,1,2,2021-08-07 10:32:42,205823
0,0,-2,-2,-1,1,0,1,2021-08-07 10:32:42,205823
-1,-3,-5,-6,-2,-2,0,1,2021-08-07 10:32:42,205823
-4,-6,-5,0,-1,-1,-2,-4,2021-08-07 10:32:42,206825
-3,-2,-1,-5,-8,-7,-4,-2,2021-08-07 10:32:42,234822
0,1,1,4,11,4,0,0,2021-08-07 10:32:42,250823
0,-3,-3,-8,-7,-4,-4,-3,2021-08-07 10:32:42,250823
1,3,4,2,-2,-1,0,1,2021-08-07 10:32:42,250823
-2,0,2,8,7,3,1,0,2021-08-07 10:32:42,250823
0,-1,-5,-9,-6,-3,-3,-2,2021-08-07 10:32:42,250823
-2,-2,-2,-9,-9,-4,-2,-1,2021-08-07 10:32:42,250823
-1,-1,-4,-1,-1,-2,0,-2,2021-08-07 10:32:42,250823
2,2,0,4,10,3,3,0,2021-08-07 10:32:42,281823
1,1,2,6,1,0,1,1,2021-08-07 10:32:42,297823
-3,-1,-1,-4,-5,-1,-1,-2,2021-08-07 10:32:42,313823
-1,-3,-1,2,-5,-3,-2,-3,2021-08-07 10:32:42,313823
-3,-5,-3,2,2,2,-1,-3,2021-08-07 10:32:42,313823
0,1,2,3,7,1,-1,0,2021-08-07 10:32:42,313823
2,2,0,-1,-2,-2,2,0,2021-08-07 10:32:42,313823
-2,-2,-4,-8,-12,-5,-3,-1,2021-08-07 10:32:42,313823
-3,-1,-4,-7,4,2,0,0,2021-08-07 10:32:42,313823
0,0,6,19,11,5,3,2,2021-08-07 10:32:42,313823
-1,-3,-5,-5,-4,-1,-4,-4,2021-08-07 10:32:42,313823
-2,-1,-3,-5,-5,-3,-2,-3,2021-08-07 10:32:42,313823
-1,1,0,-5,-8,-4,0,-2,2021-08-07 10:32:42,329823
0,-1,0,8,10,3,1,-1,2021-08-07 10:32:42,329823
1,4,1,3,4,2,2,3,2021-08-07 10:32:42,330105
0,1,-1,0,-4,-2,0,0,2021-08-07 10:32:42,330105
-1,-4,-4,-2,4,1,-1,-3,2021-08-07 10:32:42,345822
-2,-2,-5,-12,-17,-8,-5,-4,2021-08-07 10:32:42,345822
-3,-3,-4,-4,-5,-6,-4,-3,2021-08-07 10:32:42,345822
0,0,0,3,11,7,1,1,2021-08-07 10:32:42,345822
4,3,8,13,13,5,3,5,2021-08-07 10:32:42,376824
0,1,1,2,2,1,1,1,2021-08-07 10:32:42,392824
1,0,0,-9,-2,0,2,1,2021-08-07 10:32:42,392824
-2,-3,-3,-1,-4,-2,-3,-3,2021-08-07 10:32:42,392824
-1,0,-2,-1,0,0,0,-2,2021-08-07 10:32:42,392824
-2,-2,-2,-4,-7,-2,-3,-1,2021-08-07 10:32:42,392824
-2,-1,-3,-7,-15,-4,-5,-1,2021-08-07 10:32:42,392824
2,2,3,2,15,4,3,1,2021-08-07 10:32:42,392824
2,1,4,11,4,3,2,1,2021-08-07 10:32:42,408833
-5,-6,-7,-12,-18,-8,-4,-5,2021-08-07 10:32:42,424859
-1,0,-3,-1,1,-1,0,-1,2021-08-07 10:32:42,456823
1,2,3,10,11,5,1,1,2021-08-07 10:32:42,456823
-6,-7,-10,-19,-23,-10,-5,-5,2021-08-07 10:32:42,456823
0,1,-1,-13,-5,-2,-1,0,2021-08-07 10:32:42,456823
3,5,12,41,37,16,6,4,2021-08-07 10:32:42,472823
0,2,1,3,0,-2,0,-1,2021-08-07 10:32:42,475823
-3,-3,-3,-10,-13,-9,-5,-3,2021-08-07 10:32:42,476861
1,-1,-1,-3,-1,0,1,0,2021-08-07 10:32:42,476861
-4,-6,-9,-20,-13,-8,-5,-5,2021-08-07 10:32:42,476861
-1,-1,-1,0,3,1,0,-1,2021-08-07 10:32:42,476861
2,4,5,11,3,2,0,0,2021-08-07 10:32:42,476861
-4,-7,-9,-9,-13,-9,-4,-2,2021-08-07 10:32:42,476861
1,-1,0,15,19,6,3,2,2021-08-07 10:32:42,476861
-1,1,-1,-2,-3,1,0,1,2021-08-07 10:32:42,476861
-3,-4,-4,-12,-15,-7,-4,-3,2021-08-07 10:32:42,488822
0,1,3,1,14,4,0,-1,2021-08-07 10:32:42,503824
0,1,5,16,7,3,3,0,2021-08-07 10:32:42,519823
-3,-7,-9,-24,-34,-17,-7,-5,2021-08-07 10:32:42,536045
3,5,5,20,26,12,3,0,2021-08-07 10:32:42,551867
-1,-1,-2,-4,-4,-5,-1,-2,2021-08-07 10:32:42,551867
2,0,2,4,6,1,1,-1,2021-08-07 10:32:42,551867
-3,-3,-2,3,-2,-3,-1,-1,2021-08-07 10:32:42,551867
2,1,-1,-6,-8,-1,-1,1,2021-08-07 10:32:42,551867
-1,-3,-8,-11,-13,-5,-2,-1,2021-08-07 10:32:42,551867
-5,-6,-11,-24,-14,-10,-7,-5,2021-08-07 10:32:42,551867
-1,-3,-4,-6,-7,-3,-1,-2,2021-08-07 10:32:42,551867
-1,0,2,6,9,2,1,0,2021-08-07 10:32:42,551867
0,2,5,10,11,5,1,0,2021-08-07 10:32:42,552823
-2,0,4,-9,-13,-4,-1,0,2021-08-07 10:32:42,552823
-1,-4,-4,-5,0,2,0,0,2021-08-07 10:32:42,552823
2,2,2,4,0,-2,-2,0,2021-08-07 10:32:42,583824
-1,0,1,5,7,4,1,-2,2021-08-07 10:32:42,599858
0,-1,-1,-8,-16,-5,-4,-2,2021-08-07 10:32:42,615824
-2,2,3,5,7,2,-2,-2,2021-08-07 10:32:42,615824
-1,0,1,6,2,1,2,3,2021-08-07 10:32:42,615824
-2,-1,2,4,-2,-2,-1,-1,2021-08-07 10:32:42,615824
-2,0,-2,-1,-4,-4,-2,-1,2021-08-07 10:32:42,615824
2,2,0,-2,1,2,3,2,2021-08-07 10:32:42,615824
-2,-4,-9,-8,-2,-3,-1,-3,2021-08-07 10:32:42,615824
0,1,0,1,1,-1,-1,0,2021-08-07 10:32:42,615824
-1,-1,0,0,0,2,-2,-1,2021-08-07 10:32:42,616825
2,1,3,3,-4,1,3,3,2021-08-07 10:32:42,616825
-1,-4,-5,-16,-9,-5,-1,-3,2021-08-07 10:32:42,631822
-1,0,-3,1,0,0,0,-1,2021-08-07 10:32:42,647823
-3,-3,-6,-12,-22,-10,-2,-2,2021-08-07 10:32:42,662824
0,1,7,21,45,14,2,1,2021-08-07 10:32:42,662824
0,1,7,15,4,2,-1,0,2021-08-07 10:32:42,662824
4,4,1,1,8,4,2,4,2021-08-07 10:32:42,662824
-1,-2,-3,0,-2,-2,-2,1,2021-08-07 10:32:42,662824
-2,0,-2,-8,-14,-7,-4,-3,2021-08-07 10:32:42,662824
-3,-3,-3,-7,-2,-3,-1,-1,2021-08-07 10:32:42,678871
-3,-3,-4,-3,-7,-5,-3,-4,2021-08-07 10:32:42,678871
-1,2,-2,-3,-2,0,1,-1,2021-08-07 10:32:42,678871
1,-2,0,2,4,0,1,0,2021-08-07 10:32:42,678871
-1,-1,0,-5,-1,1,-2,-1,2021-08-07 10:32:42,694823
-4,-4,-5,-11,-19,-7,-5,-1,2021-08-07 10:32:42,694823
1,1,3,4,7,5,0,-1,2021-08-07 10:32:42,694823
1,2,3,13,11,2,0,0,2021-08-07 10:32:42,694823
1,1,1,3,5,4,1,0,2021-08-07 10:32:42,710821
-3,-5,-7,-9,-10,-6,-3,-3,2021-08-07 10:32:42,726824
-3,-3,-7,-19,-15,-8,-4,-3,2021-08-07 10:32:42,726824
-4,-3,-2,2,-13,-3,-3,-2,2021-08-07 10:32:42,726824
2,0,-1,-3,0,0,-1,0,2021-08-07 10:32:42,726824
3,2,6,14,20,9,3,1,2021-08-07 10:32:42,726824
-1,-1,0,5,9,3,1,-2,2021-08-07 10:32:42,726824
-3,-3,-4,-13,-19,-8,-5,-2,2021-08-07 10:32:42,726824
-4,-2,-2,-4,-6,-3,-2,-3,2021-08-07 10:32:42,748823
-1,-3,-6,-5,-6,-1,0,-2,2021-08-07 10:32:42,748823
0,3,5,12,7,3,1,0,2021-08-07 10:32:42,748823
0,0,-3,-4,-5,-4,-1,0,2021-08-07 10:32:42,749823
-2,-1,-1,-3,-5,-1,-2,0,2021-08-07 10:32:42,790822
-1,-1,2,2,2,1,-2,-1,2021-08-07 10:32:42,806823
-1,0,2,11,9,3,-1,0,2021-08-07 10:32:42,806823
1,-1,0,-1,-4,-1,1,-1,2021-08-07 10:32:42,806823
-2,-3,-10,-16,-19,-8,-3,-2,2021-08-07 10:32:42,806823
-1,-2,-3,-7,1,2,0,0,2021-08-07 10:32:42,806823
-2,-4,2,-2,4,0,-3,0,2021-08-07 10:32:42,806823
-5,-7,-13,-14,-20,-11,-7,-3,2021-08-07 10:32:42,806823
3,2,5,14,27,12,5,3,2021-08-07 10:32:42,806823
0,2,4,12,1,0,-2,0,2021-08-07 10:32:42,806823
1,0,2,3,2,3,2,1,2021-08-07 10:32:42,806823
0,1,3,-2,-1,-1,-2,-1,2021-08-07 10:32:42,807823
-2,-4,-7,-15,-24,-12,-4,-2,2021-08-07 10:32:42,822823
0,-2,-2,-5,-7,0,0,-1,2021-08-07 10:32:42,838823
0,-1,-2,-2,4,-1,-1,-1,2021-08-07 10:32:42,838823
3,3,2,2,11,7,4,4,2021-08-07 10:32:42,838823
3,3,2,7,12,6,2,2,2021-08-07 10:32:42,854824
2,4,10,16,16,7,3,3,2021-08-07 10:32:42,854824
-3,-1,-3,-2,-7,-3,-2,-2,2021-08-07 10:32:42,854824
-2,-3,-2,2,-2,-2,0,-2,2021-08-07 10:32:42,854824
-5,-5,-8,-20,-17,-8,-3,-3,2021-08-07 10:32:42,870823
-4,-3,-6,-14,-5,-3,-2,-2,2021-08-07 10:32:42,870823
0,0,-1,7,5,0,-1,-1,2021-08-07 10:32:42,870823
2,2,1,-7,-5,-3,-1,0,2021-08-07 10:32:42,870823
1,4,7,24,15,6,1,2,2021-08-07 10:32:42,886823
-1,-4,-5,-8,-10,-6,-2,0,2021-08-07 10:32:42,886823
-1,0,1,4,2,3,1,0,2021-08-07 10:32:42,886823
-1,-1,3,5,8,2,0,0,2021-08-07 10:32:42,886823
-4,-3,-2,-4,-9,-6,-4,-5,2021-08-07 10:32:42,917823
1,1,1,-2,1,0,0,3,2021-08-07 10:32:42,932822
0,-2,-2,-3,-3,1,0,-1,2021-08-07 10:32:42,947822
0,-1,-1,2,-2,-1,0,-1,2021-08-07 10:32:42,947822
-1,-1,-2,-7,-14,-6,-2,1,2021-08-07 10:32:42,947822
-2,-3,-3,-1,6,0,-1,-1,2021-08-07 10:32:42,947822
0,0,-5,-10,-5,0,0,0,2021-08-07 10:32:42,947822
-1,0,-2,-1,4,4,0,-1,2021-08-07 10:32:42,947822
-2,-3,2,-2,5,1,1,-3,2021-08-07 10:32:42,947822
0,2,-1,14,2,1,0,-1,2021-08-07 10:32:42,947822
-1,0,1,-1,-4,-3,-1,0,2021-08-07 10:32:42,947822
-3,-1,-3,-6,-12,-4,-6,-1,2021-08-07 10:32:42,963823
-2,-1,-3,-5,-7,-5,-3,0,2021-08-07 10:32:42,978821
2,3,11,13,8,1,2,2,2021-08-07 10:32:42,978821
2,1,3,12,19,7,3,3,2021-08-07 10:32:42,978821
-1,-2,-2,-2,0,-1,-1,-2,2021-08-07 10:32:42,978821
-2,-1,-1,-9,-11,-4,-1,-1,2021-08-07 10:32:42,994823
-2,-1,-3,-6,-5,-4,-4,-3,2021-08-07 10:32:43,010822
-4,-4,-10,-19,-20,-9,-4,-3,2021-08-07 10:32:43,024822
2,2,10,27,34,18,8,4,2021-08-07 10:32:43,024822
3,0,1,9,16,5,2,3,2021-08-07 10:32:43,024822
-1,-2,-4,-10,-6,-1,1,-1,2021-08-07 10:32:43,025824
-4,0,-1,-4,-9,-6,-3,-3,2021-08-07 10:32:43,025824
-5,-2,-5,-11,-11,-8,-3,-2,2021-08-07 10:32:43,025824
-8,-5,-7,-15,-13,-7,-6,-3,2021-08-07 10:32:43,025824
0,1,3,15,12,3,1,-1,2021-08-07 10:32:43,025824
4,1,4,9,5,1,0,2,2021-08-07 10:32:43,042822
-1,-3,-5,-16,-13,-6,-3,-2,2021-08-07 10:32:43,042822
2,1,0,3,2,0,-1,1,2021-08-07 10:32:43,074823
-2,-2,-6,-14,-10,-6,-2,-3,2021-08-07 10:32:43,074823
4,3,7,20,19,8,3,3,2021-08-07 10:32:43,090822
-2,-3,-6,-10,-6,-1,-2,-3,2021-08-07 10:32:43,106823
-4,-3,-3,0,-6,-3,-3,-1,2021-08-07 10:32:43,106823
-1,-1,1,1,-2,-1,0,-2,2021-08-07 10:32:43,106823
-1,-1,1,-9,-4,-3,0,-1,2021-08-07 10:32:43,106823
0,1,2,3,-3,-3,-1,0,2021-08-07 10:32:43,106823
-3,-3,-8,0,3,1,0,0,2021-08-07 10:32:43,106823
-4,-3,-4,-13,-8,-3,-5,-1,2021-08-07 10:32:43,106823
-3,-2,-3,4,-1,1,-1,-1,2021-08-07 10:32:43,106823
0,1,2,1,-2,-2,0,-1,2021-08-07 10:32:43,136822
3,5,6,7,12,5,4,1,2021-08-07 10:32:43,136822
-1,-1,-3,-7,-12,-4,-2,-1,2021-08-07 10:32:43,136822
-2,2,1,6,6,1,0,-2,2021-08-07 10:32:43,136822
0,-1,-3,-1,-4,-3,-2,-2,2021-08-07 10:32:43,151823
3,-1,1,0,5,5,1,1,2021-08-07 10:32:43,167823
-3,-6,-7,-14,-5,-5,-2,-3,2021-08-07 10:32:43,183823
-2,-2,-2,-9,-8,-4,-4,-1,2021-08-07 10:32:43,231823
-2,0,0,7,8,4,1,-1,2021-08-07 10:32:43,247823
0,0,1,7,2,0,0,0,2021-08-07 10:32:43,247823
1,2,6,5,-1,0,0,1,2021-08-07 10:32:43,263823
-1,-1,-1,0,3,-2,-2,-1,2021-08-07 10:32:43,295821
3,2,5,11,2,0,0,-1,2021-08-07 10:32:43,295821
0,0,-2,-1,4,3,-1,-2,2021-08-07 10:32:43,295821
-5,-6,-11,-20,-12,-8,-2,-3,2021-08-07 10:32:43,295821
-3,-6,-10,-15,-10,-5,-3,-1,2021-08-07 10:32:43,295821
-1,-3,-3,-5,-10,-6,-3,-1,2021-08-07 10:32:43,295821
1,3,5,11,21,9,4,0,2021-08-07 10:32:43,295821
-1,-1,1,4,-8,-2,-1,-1,2021-08-07 10:32:43,295821
0,1,1,10,10,4,2,-1,2021-08-07 10:32:43,296823
0,3,4,10,10,3,1,1,2021-08-07 10:32:43,296823
-1,-3,1,-9,-8,-5,-3,-2,2021-08-07 10:32:43,296823
1,-3,-4,5,5,2,0,1,2021-08-07 10:32:43,296823
-2,-1,-1,-8,-11,-5,-1,-1,2021-08-07 10:32:43,296823
-2,-2,-2,-1,8,1,0,0,2021-08-07 10:32:43,296823
-6,-6,-7,-12,-12,-6,-5,-6,2021-08-07 10:32:43,296823
0,2,4,3,-1,0,2,2,2021-08-07 10:32:43,307823
3,3,4,5,16,7,2,1,2021-08-07 10:32:43,307823
-3,-3,-3,-8,-15,-7,-3,0,2021-08-07 10:32:43,307823
1,2,4,14,18,5,3,1,2021-08-07 10:32:43,307823
-1,-1,0,2,3,-1,0,-3,2021-08-07 10:32:43,307823
-3,-4,-4,-6,-10,-3,-2,-1,2021-08-07 10:32:43,307823
-1,-1,0,-6,-9,-4,-1,-3,2021-08-07 10:32:43,307823
0,1,1,-4,-6,-5,-2,-1,2021-08-07 10:32:43,307823
3,4,1,10,6,4,2,1,2021-08-07 10:32:43,308823
1,-1,-3,-8,-6,-2,-1,-3,2021-08-07 10:32:43,327823
-2,-2,-4,-8,-2,-1,0,-1,2021-08-07 10:32:43,343822
-3,-1,-4,-1,-8,-4,-2,-1,2021-08-07 10:32:43,359823
-3,-2,0,-12,-7,-2,-3,0,2021-08-07 10:32:43,359823
2,3,6,21,17,5,2,1,2021-08-07 10:32:43,359823
-1,-1,0,-1,3,-2,-1,0,2021-08-07 10:32:43,359823
2,0,4,12,11,6,2,0,2021-08-07 10:32:43,359823
0,-2,-3,-2,-3,0,-1,-2,2021-08-07 10:32:43,359823
-2,-4,-10,-18,-14,-5,-2,-2,2021-08-07 10:32:43,359823
-4,-5,-5,-9,-11,-6,-3,-2,2021-08-07 10:32:43,359823
-1,1,6,3,-11,-5,-2,-1,2021-08-07 10:32:43,359823
6,7,12,19,21,12,5,4,2021-08-07 10:32:43,359823
-1,-1,1,-9,-12,-5,-1,0,2021-08-07 10:32:43,359823
2,-1,-5,-2,13,3,0,0,2021-08-07 10:32:43,360822
-5,-7,-10,-17,-15,-9,-5,-5,2021-08-07 10:32:43,360822
-2,-3,-9,-9,-11,-5,-4,-2,2021-08-07 10:32:43,360822
0,0,-2,1,5,1,0,0,2021-08-07 10:32:43,360822
0,0,4,8,3,4,1,0,2021-08-07 10:32:43,360822
-1,0,-2,-5,6,-1,-1,0,2021-08-07 10:32:43,374823
-3,-3,2,3,1,-3,-1,-2,2021-08-07 10:32:43,390823
1,-1,-1,-1,-4,-1,-1,-2,2021-08-07 10:32:43,406823
-3,-4,-6,-13,-13,-7,-2,-3,2021-08-07 10:32:43,406823
1,3,2,4,2,2,1,0,2021-08-07 10:32:43,406823
-1,0,1,4,2,0,-2,-1,2021-08-07 10:32:43,406823
0,-2,-2,-5,-14,-5,-3,-1,2021-08-07 10:32:43,406823
1,0,-1,0,15,4,0,-1,2021-08-07 10:32:43,406823
-2,-4,-8,-13,-12,-7,-5,-2,2021-08-07 10:32:43,406823
-3,-5,-6,-8,-4,-4,-1,-1,2021-08-07 10:32:43,406823
-2,1,3,5,1,1,-1,0,2021-08-07 10:32:43,406823
1,4,3,2,-1,-2,0,-2,2021-08-07 10:32:43,421822
0,1,-1,4,-5,-1,0,-2,2021-08-07 10:32:43,437822
-1,-2,-4,0,4,1,0,-1,2021-08-07 10:32:43,452823
-4,-2,-3,-6,0,-3,-3,-2,2021-08-07 10:32:43,452823
1,4,9,17,3,1,1,2,2021-08-07 10:32:43,452823
1,2,4,7,3,2,2,1,2021-08-07 10:32:43,452823
-3,-4,-10,-25,-23,-10,-5,-5,2021-08-07 10:32:43,452823
-4,-5,-3,-4,1,-1,-2,-3,2021-08-07 10:32:43,452823
2,4,-2,6,18,8,4,3,2021-08-07 10:32:43,452823
0,-1,0,6,3,2,1,1,2021-08-07 10:32:43,483822
2,4,5,10,1,0,-1,1,2021-08-07 10:32:43,483822
-2,0,0,1,3,0,0,-1,2021-08-07 10:32:43,483822
-5,-7,-5,-14,-16,-7,-6,-5,2021-08-07 10:32:43,499823
2,4,10,22,26,12,5,2,2021-08-07 10:32:43,515822
1,1,1,2,1,1,2,1,2021-08-07 10:32:43,515822
-1,-1,-1,-7,-9,-4,-2,-1,2021-08-07 10:32:43,515822
-1,-3,-5,-8,-15,-7,-4,-3,2021-08-07 10:32:43,515822
-2,-4,-10,-18,-9,-4,-2,-1,2021-08-07 10:32:43,515822
-2,-2,3,6,3,0,-1,0,2021-08-07 10:32:43,531822
1,3,4,12,14,4,2,0,2021-08-07 10:32:43,547823
-1,0,0,0,-1,2,0,0,2021-08-07 10:32:43,547823
-3,-5,-4,-16,-17,-7,-3,-4,2021-08-07 10:32:43,547823
2,3,8,17,25,9,2,0,2021-08-07 10:32:43,547823
0,0,-1,-5,-8,-6,1,0,2021-08-07 10:32:43,547823
3,-1,-2,-4,-13,-4,-1,1,2021-08-07 10:32:43,547823
-5,-8,-15,-19,-10,-8,-4,-5,2021-08-07 10:32:43,563824
-4,-5,-6,-15,-13,-6,-5,-3,2021-08-07 10:32:43,563824
-2,-2,-2,6,7,1,-1,-1,2021-08-07 10:32:43,563824
0,2,4,11,8,4,0,2,2021-08-07 10:32:43,563824
4,4,6,5,1,1,2,1,2021-08-07 10:32:43,579823
-1,0,0,-4,-3,-2,-2,-2,2021-08-07 10:32:43,579823
-3,-1,2,-9,-13,-3,-2,-4,2021-08-07 10:32:43,579823
-2,-3,-9,-4,3,-1,0,-2,2021-08-07 10:32:43,579823
-2,-3,-1,3,2,-2,-1,-1,2021-08-07 10:32:43,611822
-1,0,-1,3,0,0,-1,0,2021-08-07 10:32:43,627823
1,0,2,0,3,1,1,0,2021-08-07 10:32:43,627823
-1,0,3,1,-2,-2,-2,-1,2021-08-07 10:32:43,627823
0,0,0,-2,-7,-1,-2,2,2021-08-07 10:32:43,627823
-3,-4,-5,-12,-16,-10,-4,-5,2021-08-07 10:32:43,643823
2,2,4,8,16,10,3,2,2021-08-07 10:32:43,659823
-1,0,2,8,13,5,3,2,2021-08-07 10:32:43,659823
-2,-3,-6,-4,-9,-3,-2,-3,2021-08-07 10:32:43,659823
0,0,0,-3,5,0,0,0,2021-08-07 10:32:43,659823
-1,-1,1,7,6,2,-1,-1,2021-08-07 10:32:43,659823
-1,-1,2,3,-4,0,-1,0,2021-08-07 10:32:43,659823
0,2,4,6,2,0,-1,0,2021-08-07 10:32:43,659823
1,0,-1,-2,-1,1,1,0,2021-08-07 10:32:43,659823
-2,-4,-13,-15,-10,-4,-2,-2,2021-08-07 10:32:43,660824
-5,-1,5,0,-1,-5,-3,-4,2021-08-07 10:32:43,660824
-1,-3,-13,-9,-10,-4,-2,-2,2021-08-07 10:32:43,675824
-2,-1,-1,4,4,1,-1,0,2021-08-07 10:32:43,675824
1,1,3,0,-5,-3,-1,0,2021-08-07 10:32:43,675824
3,1,1,-1,-4,3,2,1,2021-08-07 10:32:43,691823
-1,-1,6,11,16,4,1,-3,2021-08-07 10:32:43,691823
-3,-3,-5,-4,-5,-3,-2,-1,2021-08-07 10:32:43,691823
2,1,1,5,3,0,2,-1,2021-08-07 10:32:43,691823
-1,-2,-5,-16,-17,-8,-3,-3,2021-08-07 10:32:43,691823
0,1,3,4,-2,0,0,0,2021-08-07 10:32:43,722842
-1,-2,-6,1,12,5,3,0,2021-08-07 10:32:43,722842
-2,-2,-3,-8,-14,-7,-3,-1,2021-08-07 10:32:43,722842
-7,-7,-11,-9,-1,-3,-3,-4,2021-08-07 10:32:43,722842
3,4,6,8,8,5,1,3,2021-08-07 10:32:43,738843
1,2,5,7,12,7,2,2,2021-08-07 10:32:43,738843
-3,-2,-2,-4,-10,-5,-3,-1,2021-08-07 10:32:43,738843
0,0,-3,-3,0,-1,0,-1,2021-08-07 10:32:43,738843
-5,-6,-6,-9,-11,-7,-6,-4,2021-08-07 10:32:43,754843
2,3,5,9,0,2,0,2,2021-08-07 10:32:43,770844
3,2,3,16,19,7,3,0,2021-08-07 10:32:43,770844
0,0,-1,2,-7,-2,0,2,2021-08-07 10:32:43,770844
-3,-5,-7,-19,-18,-6,0,0,2021-08-07 10:32:43,770844
-4,-2,-5,-8,-1,-1,-1,-1,2021-08-07 10:32:43,770844
-1,-2,-1,8,5,3,1,0,2021-08-07 10:32:43,770844
1,4,4,4,3,2,1,1,2021-08-07 10:32:43,770844
0,3,8,13,12,5,1,0,2021-08-07 10:32:43,802843
-1,-2,-1,-5,-15,-8,-5,-4,2021-08-07 10:32:43,834843
0,1,-1,-4,4,4,-1,0,2021-08-07 10:32:43,850843
-1,-2,0,-3,2,-2,0,-1,2021-08-07 10:32:43,850843
-2,-4,-12,-12,-9,-6,-3,-2,2021-08-07 10:32:43,850843
0,-1,-3,-7,-6,-2,-2,-1,2021-08-07 10:32:43,850843
0,-1,0,6,10,0,-1,-1,2021-08-07 10:32:43,850843
2,3,4,7,4,2,1,2,2021-08-07 10:32:43,850843
2,3,5,1,1,0,0,-1,2021-08-07 10:32:43,850843
0,-3,-2,1,-1,-2,0,-2,2021-08-07 10:32:43,850843
-6,-5,-7,-17,-26,-13,-7,-3,2021-08-07 10:32:43,850843
1,-2,-3,7,14,6,2,0,2021-08-07 10:32:43,850843
1,1,-1,1,5,1,1,0,2021-08-07 10:32:43,850843
-1,2,4,-1,-2,-1,-2,-2,2021-08-07 10:32:43,850843
2,1,2,-8,-7,-2,1,0,2021-08-07 10:32:43,850843
-1,-1,2,17,10,5,1,-1,2021-08-07 10:32:43,851843
-6,-5,-8,-15,-13,-7,-4,-4,2021-08-07 10:32:43,880843
-1,0,4,2,5,1,0,0,2021-08-07 10:32:43,880843
-4,-4,-11,-6,-13,-5,-4,-2,2021-08-07 10:32:43,880843
1,1,5,5,2,0,0,1,2021-08-07 10:32:43,880843
2,2,9,19,13,7,4,2,2021-08-07 10:32:43,895843
1,0,-2,3,16,8,2,1,2021-08-07 10:32:43,911842
-3,-1,-2,-8,-9,-5,-1,-2,2021-08-07 10:32:43,911842
-3,-4,-7,-7,-5,-6,-4,-4,2021-08-07 10:32:43,912065
-3,-4,-6,-19,-25,-11,-7,-3,2021-08-07 10:32:43,912065
1,3,8,19,18,6,2,1,2021-08-07 10:32:43,912065
5,0,1,9,10,6,3,2,2021-08-07 10:32:43,912065
-3,-5,-8,-21,-18,-8,-4,-3,2021-08-07 10:32:43,912065
-4,-4,0,-6,-13,-7,-4,-2,2021-08-07 10:32:43,943354
-1,-1,-3,1,5,1,-1,-1,2021-08-07 10:32:43,958354
1,-1,-3,-12,-4,-1,-2,1,2021-08-07 10:32:43,958354
-3,-1,-1,-2,-1,1,0,-1,2021-08-07 10:32:43,958354
0,2,2,3,5,2,0,0,2021-08-07 10:32:43,958354
-2,-1,-4,1,-8,-5,-1,-1,2021-08-07 10:32:43,958354
-2,0,-1,-9,-2,-2,-1,0,2021-08-07 10:32:43,958354
0,0,1,3,8,3,-2,3,2021-08-07 10:32:43,958354
0,3,2,8,9,4,1,1,2021-08-07 10:32:43,974353
-1,-2,0,-2,-7,-2,-1,0,2021-08-07 10:32:43,990354
-2,-3,2,0,-2,-3,-3,-2,2021-08-07 10:32:44,006354
-2,-1,-3,-3,-2,-1,-1,-2,2021-08-07 10:32:44,022354
-1,-2,-4,0,0,0,1,-2,2021-08-07 10:32:44,053353
-1,0,4,6,0,0,-3,-1,2021-08-07 10:32:44,068353
-3,-2,-2,-2,-1,-2,-2,-1,2021-08-07 10:32:44,084354
2,0,-2,1,3,2,2,2,2021-08-07 10:32:44,099352
-6,-9,-9,-22,-14,-8,-7,-4,2021-08-07 10:32:44,131355
1,1,-3,6,3,2,1,-1,2021-08-07 10:32:44,131355
1,3,7,23,22,10,3,0,2021-08-07 10:32:44,131355
2,2,1,3,1,0,-1,0,2021-08-07 10:32:44,131355
-1,-1,-2,-9,-4,-1,-1,-1,2021-08-07 10:32:44,131355
-2,-6,-7,-21,-18,-9,-3,-3,2021-08-07 10:32:44,131355
-2,-1,1,-2,-5,-4,0,-1,2021-08-07 10:32:44,131355
-2,0,0,3,-4,-1,0,-2,2021-08-07 10:32:44,131355
2,2,6,11,5,1,0,0,2021-08-07 10:32:44,132354
0,0,0,0,10,4,0,0,2021-08-07 10:32:44,132354
-1,2,2,10,9,4,0,-1,2021-08-07 10:32:44,132354
-3,-4,-4,-12,-12,-6,-4,-3,2021-08-07 10:32:44,133354
-2,0,-3,-3,-7,-1,0,-1,2021-08-07 10:32:44,133354
1,1,2,5,6,3,2,1,2021-08-07 10:32:44,133354
-1,-3,-4,-4,2,-2,0,0,2021-08-07 10:32:44,133354
-3,-3,-3,-7,-9,-6,-3,-2,2021-08-07 10:32:44,133354
0,2,3,1,-1,0,3,1,2021-08-07 10:32:44,133354
1,1,1,2,5,3,2,1,2021-08-07 10:32:44,133354
0,-3,0,-3,-2,0,1,-1,2021-08-07 10:32:44,133354
-5,-5,-13,-21,-15,-7,-4,-3,2021-08-07 10:32:44,133354
1,1,5,12,11,2,1,2,2021-08-07 10:32:44,133354
-4,-4,-5,-16,-21,-9,-4,-2,2021-08-07 10:32:44,133354
1,1,-3,7,-1,-3,-1,1,2021-08-07 10:32:44,133354
3,4,7,18,31,14,4,4,2021-08-07 10:32:44,134354
2,1,3,4,9,2,1,2,2021-08-07 10:32:44,134354
-1,1,3,4,-2,-1,-2,-1,2021-08-07 10:32:44,134354
-1,-1,1,-4,-15,-7,-3,-1,2021-08-07 10:32:44,134354
-1,-1,-1,4,0,0,1,-2,2021-08-07 10:32:44,134354
0,0,-4,-1,5,5,-1,1,2021-08-07 10:32:44,179354
-1,-1,-1,1,3,-2,-2,-2,2021-08-07 10:32:44,195354
-3,-4,-5,-19,-13,-5,-5,-3,2021-08-07 10:32:44,211353
-2,-4,-2,-11,-19,-12,-5,-3,2021-08-07 10:32:44,227354
6,8,12,25,24,14,5,3,2021-08-07 10:32:44,259354
0,-3,-3,-2,4,0,-1,-1,2021-08-07 10:32:44,275353
-1,-1,-3,-6,-7,-2,-2,-1,2021-08-07 10:32:44,291354
-1,-1,1,-5,-3,-3,-2,-1,2021-08-07 10:32:44,306354
-1,0,3,8,0,-3,-4,-3,2021-08-07 10:32:44,306354
-1,0,1,3,-7,-1,0,0,2021-08-07 10:32:44,306354
-4,-7,-18,-28,-15,-6,-2,-2,2021-08-07 10:32:44,306354
-3,-6,-8,-12,-6,-4,-3,-3,2021-08-07 10:32:44,306354
-1,-3,-3,-6,-2,-2,-2,0,2021-08-07 10:32:44,306354
0,2,7,5,7,2,1,1,2021-08-07 10:32:44,306354
1,2,5,24,6,2,2,0,2021-08-07 10:32:44,306354
4,4,7,17,12,7,4,3,2021-08-07 10:32:44,321353
-2,-1,-8,-14,-8,-4,-3,-1,2021-08-07 10:32:44,337354
2,3,3,10,14,4,1,0,2021-08-07 10:32:44,337354
-1,0,4,-4,-5,-4,-3,-2,2021-08-07 10:32:44,337354
1,-2,-3,-20,-26,-11,-3,-1,2021-08-07 10:32:44,337354
0,0,-2,13,23,9,1,-1,2021-08-07 10:32:44,337354
-2,-3,-6,-4,-2,-1,-1,-3,2021-08-07 10:32:44,337354
0,0,-4,-2,-1,0,-1,-1,2021-08-07 10:32:44,337354
-1,-2,-1,-1,-3,-2,-2,-2,2021-08-07 10:32:44,337354
-2,-3,-2,-13,-21,-9,-5,-1,2021-08-07 10:32:44,337354
-3,-2,-2,1,5,3,-1,-1,2021-08-07 10:32:44,337354
4,6,11,14,19,8,3,1,2021-08-07 10:32:44,337354
0,3,6,14,7,2,1,0,2021-08-07 10:32:44,337354
-1,-5,-7,-14,-12,-6,-2,-2,2021-08-07 10:32:44,338354
-5,-10,-13,-15,-17,-7,-6,-4,2021-08-07 10:32:44,338354
-2,-3,-3,-5,2,1,-1,-2,2021-08-07 10:32:44,338354
3,5,2,2,3,4,2,2,2021-08-07 10:32:44,338354
-3,2,12,25,18,5,1,-2,2021-08-07 10:32:44,338354
2,2,4,12,15,5,3,1,2021-08-07 10:32:44,338354
-3,-4,-6,-16,-19,-9,-4,-2,2021-08-07 10:32:44,338354
-1,-2,-8,-14,-7,-2,-2,-3,2021-08-07 10:32:44,338354
-1,-2,-2,-3,1,-3,0,-2,2021-08-07 10:32:44,338354
-1,-2,-2,-8,-17,-6,-3,-2,2021-08-07 10:32:44,338354
-1,2,4,10,7,2,1,1,2021-08-07 10:32:44,338354
-2,-1,1,6,12,3,0,0,2021-08-07 10:32:44,339354
0,-1,-2,-1,-4,-1,0,-1,2021-08-07 10:32:44,353357
-1,-2,-5,-16,-9,-4,-1,-2,2021-08-07 10:32:44,369354
-2,-5,-8,-24,-19,-9,-5,-4,2021-08-07 10:32:44,369354
-1,1,7,9,9,4,0,-1,2021-08-07 10:32:44,369354
1,2,0,9,7,3,2,0,2021-08-07 10:32:44,369354
1,1,0,9,-4,0,1,0,2021-08-07 10:32:44,369354
-4,-4,-12,-24,-18,-8,-3,-3,2021-08-07 10:32:44,369354
-2,-3,0,0,20,8,1,1,2021-08-07 10:32:44,369354
-2,-2,-2,-2,-9,-5,-2,-3,2021-08-07 10:32:44,401353
-4,-1,3,-8,-6,-2,-1,-1,2021-08-07 10:32:44,401353
3,2,-1,10,0,1,1,0,2021-08-07 10:32:44,401353
-3,-3,-4,-2,-11,-4,-2,0,2021-08-07 10:32:44,401353
0,-1,-2,-10,1,0,-2,0,2021-08-07 10:32:44,416353
0,2,3,5,4,1,1,2,2021-08-07 10:32:44,416353
2,3,9,17,13,5,2,0,2021-08-07 10:32:44,416353
1,0,-2,-1,-13,-5,-1,-2,2021-08-07 10:32:44,416353
-1,-1,-2,-2,3,1,0,-1,2021-08-07 10:32:44,433354
-2,-3,-2,-10,-9,-4,-4,-2,2021-08-07 10:32:44,433354
-1,-2,-2,-6,3,2,-1,0,2021-08-07 10:32:44,433354
0,-1,-2,0,-3,-4,-1,-1,2021-08-07 10:32:44,433354
-3,-2,-3,-5,-12,-5,-3,-1,2021-08-07 10:32:44,465354
1,0,0,1,-2,-2,0,-2,2021-08-07 10:32:44,481355
0,2,1,2,10,4,2,1,2021-08-07 10:32:44,481355
0,2,3,4,0,0,0,0,2021-08-07 10:32:44,481355
-2,0,-1,-4,-16,-6,-3,0,2021-08-07 10:32:44,481355
-5,-6,-11,-19,-16,-6,-6,-4,2021-08-07 10:32:44,481355
6,9,19,43,34,15,7,5,2021-08-07 10:32:44,481355
0,1,6,14,20,7,2,-1,2021-08-07 10:32:44,481355
2,2,4,4,8,4,4,1,2021-08-07 10:32:44,497354
-3,-2,-4,-10,-14,-8,-4,-4,2021-08-07 10:32:44,513353
-2,0,1,-2,-10,-5,-2,-1,2021-08-07 10:32:44,528354
2,2,2,-2,-11,-3,-1,2,2021-08-07 10:32:44,528354
0,-5,-13,-16,-3,1,-1,0,2021-08-07 10:32:44,528354
-4,-9,-11,-22,-2,-4,-4,-3,2021-08-07 10:32:44,528354
-7,-8,-14,-21,-14,-7,-6,-5,2021-08-07 10:32:44,528354
0,-2,-4,7,5,1,0,-3,2021-08-07 10:32:44,528354
0,3,7,6,-7,-2,-2,1,2021-08-07 10:32:44,528354
5,7,6,18,17,11,6,4,2021-08-07 10:32:44,528354
-1,-2,6,4,5,2,0,0,2021-08-07 10:32:44,544353
-2,-2,-2,-6,-8,-3,0,-2,2021-08-07 10:32:44,560353
-1,-3,-3,-5,-10,-5,-1,-2,2021-08-07 10:32:44,560353
1,3,2,9,0,0,1,0,2021-08-07 10:32:44,560353
0,-3,-6,-6,4,0,-1,-2,2021-08-07 10:32:44,560353
0,0,-4,-5,-6,-2,-2,-1,2021-08-07 10:32:44,560353
-1,-3,0,1,-1,-1,0,-3,2021-08-07 10:32:44,575353
6,6,9,18,24,10,6,5,2021-08-07 10:32:44,591353
-1,-2,-2,-1,-3,-2,0,-2,2021-08-07 10:32:44,606354
-2,-2,-4,-3,6,3,2,-1,2021-08-07 10:32:44,622355
-4,-2,0,1,13,1,-3,-5,2021-08-07 10:32:44,622355
-4,-1,-1,-1,-10,-3,-4,-4,2021-08-07 10:32:44,622355
-5,-3,-6,-13,-15,-6,-4,-3,2021-08-07 10:32:44,622355
-4,-6,-9,-26,-24,-11,-6,-4,2021-08-07 10:32:44,622355
1,0,4,12,20,7,3,1,2021-08-07 10:32:44,622355
0,1,-1,6,0,2,1,0,2021-08-07 10:32:44,622355
1,1,2,7,1,0,-1,-1,2021-08-07 10:32:44,622355
0,0,-2,-6,-1,-2,1,0,2021-08-07 10:32:44,623354
-3,-1,-1,-13,-21,-9,-5,-2,2021-08-07 10:32:44,638354
0,0,-2,-4,2,1,0,1,2021-08-07 10:32:44,654354
4,5,8,29,33,12,6,4,2021-08-07 10:32:44,654354
-5,-5,-9,-17,-10,-7,-4,-1,2021-08-07 10:32:44,670354
1,0,1,-3,1,1,1,0,2021-08-07 10:32:44,693354
0,1,12,8,0,-2,0,0,2021-08-07 10:32:44,694353
-1,-1,-2,6,-1,2,1,0,2021-08-07 10:32:44,702353
0,-1,-4,2,1,0,0,1,2021-08-07 10:32:44,718353
-7,-8,-14,-30,-22,-13,-6,-5,2021-08-07 10:32:44,749354
-3,-4,-12,-18,-29,-10,-3,-2,2021-08-07 10:32:44,765354
4,6,9,18,33,18,7,2,2021-08-07 10:32:44,781354
-4,-6,-6,-6,3,-1,-4,-3,2021-08-07 10:32:44,797354
0,1,0,5,2,2,0,1,2021-08-07 10:32:44,797354
-1,2,8,14,6,0,-1,0,2021-08-07 10:32:44,797354
-1,0,2,-9,-17,-6,-1,0,2021-08-07 10:32:44,797354
2,3,7,14,10,3,0,-1,2021-08-07 10:32:44,797354
1,2,2,6,1,2,2,2,2021-08-07 10:32:44,797354
-2,-5,-12,-11,-11,-6,-4,-2,2021-08-07 10:32:44,797354
-6,-7,-16,-34,-17,-7,-5,-5,2021-08-07 10:32:44,797354
-2,-2,-3,-11,-19,-10,-4,-1,2021-08-07 10:32:44,813354
5,4,11,19,21,10,3,3,2021-08-07 10:32:44,813354
2,3,8,23,18,8,0,0,2021-08-07 10:32:44,813354
2,1,0,3,3,-2,-2,1,2021-08-07 10:32:44,813354
-2,-3,1,-4,-2,-3,-2,-3,2021-08-07 10:32:44,813354
-9,-10,-17,-34,-32,-15,-9,-6,2021-08-07 10:32:44,813354
-1,-3,-9,6,16,6,0,1,2021-08-07 10:32:44,813354
0,1,7,5,-5,-5,-2,-2,2021-08-07 10:32:44,813354
5,7,17,27,15,8,5,5,2021-08-07 10:32:44,813354
6,12,19,15,6,4,4,1,2021-08-07 10:32:44,813354
-6,-7,-13,-37,-33,-12,-5,-5,2021-08-07 10:32:44,814354
-6,-17,-38,-33,-9,-5,-4,-3,2021-08-07 10:32:44,814354
-4,-11,-13,-14,5,-1,-2,-2,2021-08-07 10:32:44,814354
0,0,-1,10,7,3,2,-2,2021-08-07 10:32:44,814354
1,5,10,8,4,1,0,-1,2021-08-07 10:32:44,814354
3,9,21,24,7,4,4,4,2021-08-07 10:32:44,814354
3,4,5,2,-5,1,1,1,2021-08-07 10:32:44,814354
0,-5,-3,-15,-16,-9,-4,-1,2021-08-07 10:32:44,814354
1,0,6,12,25,10,5,-1,2021-08-07 10:32:44,814354
-4,-5,-6,-8,-10,-7,-3,-4,2021-08-07 10:32:44,814354
0,4,7,16,11,6,3,2,2021-08-07 10:32:44,828354
0,0,1,11,10,4,1,2,2021-08-07 10:32:44,844354
-2,-2,-8,-14,-13,-6,-2,-2,2021-08-07 10:32:44,844354
-5,-5,-7,-23,-19,-7,-5,-4,2021-08-07 10:32:44,844354
-1,4,9,23,23,6,-1,1,2021-08-07 10:32:44,844354
-2,-4,-10,-8,-11,-4,-1,-1,2021-08-07 10:32:44,844354
-3,-7,-10,-19,-12,-6,-1,-2,2021-08-07 10:32:44,844354
-4,-5,0,-12,-21,-9,-6,-3,2021-08-07 10:32:44,860353
4,7,11,26,30,13,4,3,2021-08-07 10:32:44,860353
1,1,-2,11,4,3,0,0,2021-08-07 10:32:44,875354
-4,-8,-15,-24,-8,-4,-2,-3,2021-08-07 10:32:44,875354
-5,-4,5,3,5,-1,-1,-3,2021-08-07 10:32:44,891353
-4,-5,-13,-18,-25,-11,-4,-4,2021-08-07 10:32:44,891353
-1,2,5,7,-1,-2,-1,2,2021-08-07 10:32:44,891353
3,1,3,13,17,5,1,2,2021-08-07 10:32:44,891353
2,4,4,7,6,1,0,2,2021-08-07 10:32:44,891353
-2,-2,-3,-15,-26,-10,-4,-4,2021-08-07 10:32:44,891353
1,0,4,9,22,8,3,0,2021-08-07 10:32:44,922354
5,8,15,32,9,3,3,3,2021-08-07 10:32:44,938354
3,-1,-5,-4,-3,0,2,0,2021-08-07 10:32:44,938354
-6,-9,-17,-26,-10,-4,-4,-3,2021-08-07 10:32:44,938354
-10,-13,-21,-41,-38,-22,-12,-9,2021-08-07 10:32:44,938354
-1,3,14,6,-7,-2,0,-1,2021-08-07 10:32:44,938354
9,10,22,47,43,21,8,6,2021-08-07 10:32:44,938354
2,-6,-19,-22,-22,-7,0,-1,2021-08-07 10:32:44,938354
-6,-11,-14,-14,11,2,-3,-4,2021-08-07 10:32:44,967353
2,4,-2,12,22,7,3,3,2021-08-07 10:32:44,967353
2,4,6,13,0,1,0,1,2021-08-07 10:32:44,967353
2,4,6,1,-4,-1,-1,2,2021-08-07 10:32:44,967353
3,3,11,-2,-5,2,2,2,2021-08-07 10:32:44,985353
-7,-7,-5,0,-11,-7,-7,-7,2021-08-07 10:32:44,985353
-1,0,-6,0,3,2,0,2,2021-08-07 10:32:44,985353
-3,-2,-2,0,2,-2,-2,-2,2021-08-07 10:32:44,985353
1,-3,-6,-1,4,2,0,-1,2021-08-07 10:32:45,000353
-3,-6,-4,-19,-21,-12,-7,-3,2021-08-07 10:32:45,000353
-3,-4,-6,-18,-19,-6,-4,-3,2021-08-07 10:32:45,000353
3,4,11,21,22,8,5,1,2021-08-07 10:32:45,000353
1,8,12,16,12,8,3,5,2021-08-07 10:32:45,016353
2,2,2,-2,0,0,2,2,2021-08-07 10:32:45,032353
-2,-3,-6,-5,-10,-8,-3,-3,2021-08-07 10:32:45,032353
-2,-1,2,20,33,11,2,0,2021-08-07 10:32:45,032353
-2,0,-2,-5,-9,-1,0,0,2021-08-07 10:32:45,032353
-1,-6,-10,-16,-9,-6,-6,-3,2021-08-07 10:32:45,032353
-2,-4,-6,-15,-17,-9,-4,-2,2021-08-07 10:32:45,032353
2,3,9,5,0,2,1,1,2021-08-07 10:32:45,032353
2,2,7,24,23,10,2,0,2021-08-07 10:32:45,048353
-2,-5,-9,-14,-11,-3,-1,-2,2021-08-07 10:32:45,048353
-2,-4,-10,-12,-5,-5,-4,-2,2021-08-07 10:32:45,048353
-5,-4,-1,-24,-30,-13,-7,-4,2021-08-07 10:32:45,048353
3,1,-3,11,18,7,4,2,2021-08-07 10:32:45,080378
-1,-2,-6,2,-6,0,0,0,2021-08-07 10:32:45,096378
0,1,4,6,12,2,1,1,2021-08-07 10:32:45,096378
2,4,4,1,-9,-3,0,-1,2021-08-07 10:32:45,096378
3,7,14,13,5,2,1,2,2021-08-07 10:32:45,096378
2,2,2,19,27,12,4,1,2021-08-07 10:32:45,096378
-8,-11,-19,-34,-24,-11,-6,-5,2021-08-07 10:32:45,096378
-7,-10,-12,-22,-23,-12,-7,-5,2021-08-07 10:32:45,096378
-4,-3,-5,-24,-39,-17,-7,-4,2021-08-07 10:32:45,112378
4,6,17,38,56,18,5,1,2021-08-07 10:32:45,128380
4,5,9,16,7,7,3,1,2021-08-07 10:32:45,144416
1,1,0,0,-1,0,1,1,2021-08-07 10:32:45,160437
-5,-6,-9,-13,-21,-11,-5,-3,2021-08-07 10:32:45,176379
0,1,3,-5,2,2,0,3,2021-08-07 10:32:45,176379
0,2,4,8,3,0,1,0,2021-08-07 10:32:45,176379
-8,-9,-17,-24,-16,-10,-7,-5,2021-08-07 10:32:45,176379
-2,-1,-6,-9,-9,-4,-2,-3,2021-08-07 10:32:45,176379
0,0,-1,-10,-8,-3,-2,0,2021-08-07 10:32:45,176379
2,4,11,18,28,14,6,2,2021-08-07 10:32:45,176379
4,4,6,25,18,9,5,1,2021-08-07 10:32:45,176379
-5,-6,-9,-11,-3,-3,-4,-4,2021-08-07 10:32:45,176379
-4,-2,2,-7,-14,-7,-4,-4,2021-08-07 10:32:45,177416
0,2,2,0,-14,-7,-3,-1,2021-08-07 10:32:45,177416
2,3,3,5,1,1,1,1,2021-08-07 10:32:45,177416
-2,-1,0,7,15,7,2,1,2021-08-07 10:32:45,207436
-5,-6,-11,-25,-14,-9,-3,-3,2021-08-07 10:32:45,223416
-5,-8,-9,-20,-19,-8,-3,-2,2021-08-07 10:32:45,238419
-5,-6,-13,-8,-1,-4,-5,-3,2021-08-07 10:32:45,244416
3,5,12,19,11,4,1,3,2021-08-07 10:32:45,244416
