EMG 1,EMG 2,EMG 3,EMG 4,EMG 5,EMG 6,EMG 7,EMG 8,Timestamp,Milliseconds
-3,-2,-1,-2,2,2,0,-3,2021-08-07 10:50:09,515656
2,2,7,24,22,9,3,1,2021-08-07 10:50:09,515656
-1,-1,0,-3,-5,-3,-1,-2,2021-08-07 10:50:09,515656
-2,-2,-2,-2,-3,-2,-2,-2,2021-08-07 10:50:09,515656
-2,-1,-3,-6,-9,-4,-2,-2,2021-08-07 10:50:09,515656
-1,-2,-5,-15,-11,-4,-3,0,2021-08-07 10:50:09,515656
0,0,1,2,5,1,0,0,2021-08-07 10:50:09,515656
0,1,2,2,-3,0,1,0,2021-08-07 10:50:09,531617
-2,-3,-6,-9,-11,-7,-4,-2,2021-08-07 10:50:09,531617
-3,-2,-4,-14,-17,-6,-2,-1,2021-08-07 10:50:09,531617
4,5,11,33,40,15,7,4,2021-08-07 10:50:09,531617
-2,0,-2,0,1,0,-1,-2,2021-08-07 10:50:09,531617
-2,-3,-1,4,1,0,-2,-3,2021-08-07 10:50:09,531617
2,0,-2,-7,-7,-5,-3,0,2021-08-07 10:50:09,531617
-2,-4,-6,-14,-9,-3,-2,-2,2021-08-07 10:50:09,531617
0,0,5,10,7,3,1,1,2021-08-07 10:50:09,531617
0,1,-1,-2,-5,-4,-2,1,2021-08-07 10:50:09,531617
-3,-5,-4,-6,-7,-4,-1,-3,2021-08-07 10:50:09,531617
-2,-2,-3,-6,-4,-1,-1,-1,2021-08-07 10:50:09,563658
-5,-4,-6,-8,-3,-4,-2,-2,2021-08-07 10:50:09,579668
0,1,1,2,2,1,1,-1,2021-08-07 10:50:09,595658
0,2,4,8,12,5,1,0,2021-08-07 10:50:09,595658
0,1,0,-4,-6,-2,0,-1,2021-08-07 10:50:09,595658
-1,-2,-6,-8,-9,-4,-2,-2,2021-08-07 10:50:09,595658
0,-2,-3,-2,2,-2,-1,-2,2021-08-07 10:50:09,627657
3,3,5,19,24,12,5,3,2021-08-07 10:50:09,627657
-1,0,-1,6,4,-1,-2,-2,2021-08-07 10:50:09,627657
2,3,3,8,15,11,4,2,2021-08-07 10:50:09,627657
1,2,4,11,2,2,2,3,2021-08-07 10:50:09,627657
-4,-5,-5,-13,-16,-9,-3,-3,2021-08-07 10:50:09,627657
-4,-3,-3,-12,-16,-7,-2,-2,2021-08-07 10:50:09,627657
-1,0,-1,5,13,2,0,0,2021-08-07 10:50:09,627657
0,1,1,-5,-5,1,0,-2,2021-08-07 10:50:09,627657
-1,-4,-4,-5,-11,-5,-3,-3,2021-08-07 10:50:09,628620
-1,-3,-3,-5,-6,-1,-3,-1,2021-08-07 10:50:09,628620
-3,-3,-3,-4,-8,-4,-3,-1,2021-08-07 10:50:09,628620
1,1,2,7,13,5,2,3,2021-08-07 10:50:09,638657
-2,-1,-1,1,-1,-2,-1,-2,2021-08-07 10:50:09,638657
0,0,-3,-7,-5,-2,-2,0,2021-08-07 10:50:09,659621
1,2,1,-2,-5,-2,0,1,2021-08-07 10:50:09,659621
-3,-3,-3,-9,-6,-4,-4,-2,2021-08-07 10:50:09,675648
3,3,5,13,10,4,2,1,2021-08-07 10:50:09,691643
-3,-3,-2,0,1,0,-1,-1,2021-08-07 10:50:09,707659
0,-2,-1,0,1,0,-1,-2,2021-08-07 10:50:09,723658
-1,0,-4,-9,-13,-5,-1,-1,2021-08-07 10:50:09,739658
-1,0,-3,-7,-6,-3,-1,0,2021-08-07 10:50:09,739658
0,0,2,7,11,3,-1,0,2021-08-07 10:50:09,739658
-2,-2,0,-1,-4,-1,-1,-1,2021-08-07 10:50:09,739658
-2,-3,-3,-2,-2,-1,0,-2,2021-08-07 10:50:09,739658
1,2,3,-2,-4,-1,-1,0,2021-08-07 10:50:09,739658
0,-1,-2,-4,-6,-4,-2,-4,2021-08-07 10:50:09,739658
2,2,6,14,14,7,3,2,2021-08-07 10:50:09,739658
-5,-5,-7,-12,-14,-8,-6,-5,2021-08-07 10:50:09,740658
0,2,1,1,0,0,1,1,2021-08-07 10:50:09,740658
0,1,0,1,-6,-4,-2,0,2021-08-07 10:50:09,755662
2,0,-1,0,16,6,-1,2,2021-08-07 10:50:09,771647
2,1,4,16,19,7,4,0,2021-08-07 10:50:09,771647
-3,-4,-4,-3,-3,-4,-2,-3,2021-08-07 10:50:09,771647
-1,-2,-4,-7,-7,-3,0,-1,2021-08-07 10:50:09,771647
-6,-5,-5,-8,-19,-10,-4,-5,2021-08-07 10:50:09,771647
-3,-2,2,1,0,-1,-4,-1,2021-08-07 10:50:09,771647
-5,-5,-3,-7,-6,-6,-6,-6,2021-08-07 10:50:09,772619
2,2,4,2,0,0,-1,-1,2021-08-07 10:50:09,787659
2,2,1,-4,-2,-3,-3,-1,2021-08-07 10:50:09,803620
4,3,1,2,0,1,2,2,2021-08-07 10:50:09,803620
-1,-2,-4,-10,-20,-7,-2,-2,2021-08-07 10:50:09,803620
-3,-3,-6,-5,8,1,1,0,2021-08-07 10:50:09,803620
2,3,5,11,8,3,2,0,2021-08-07 10:50:09,803620
0,3,4,3,3,3,2,1,2021-08-07 10:50:09,803620
-1,-2,-1,0,-2,-1,-3,0,2021-08-07 10:50:09,803620
-3,-4,-5,-13,-14,-5,-3,-2,2021-08-07 10:50:09,835658
-1,-1,-1,5,7,4,2,-1,2021-08-07 10:50:09,851623
0,-1,1,1,3,1,0,-3,2021-08-07 10:50:09,851623
1,1,0,-2,0,1,0,2,2021-08-07 10:50:09,851623
-1,-2,1,1,-1,-1,-2,-1,2021-08-07 10:50:09,851623
-3,-3,-6,-10,-13,-7,-3,-2,2021-08-07 10:50:09,851623
-4,-4,-5,-6,-6,-3,-3,0,2021-08-07 10:50:09,851623
-2,0,-1,-1,5,0,-1,0,2021-08-07 10:50:09,851623
1,3,4,10,12,6,2,1,2021-08-07 10:50:09,882658
-3,-4,-6,-8,-12,-8,-3,-3,2021-08-07 10:50:09,882658
0,2,-2,0,-5,-4,0,0,2021-08-07 10:50:09,882658
0,0,0,-1,3,1,0,0,2021-08-07 10:50:09,882658
0,0,2,6,8,4,1,-1,2021-08-07 10:50:09,882658
0,0,1,-1,-4,1,-1,-1,2021-08-07 10:50:09,882658
0,-2,-3,-2,-2,-1,-3,-1,2021-08-07 10:50:09,898656
-1,-2,-3,-1,1,-1,-3,-2,2021-08-07 10:50:09,914658
0,-1,2,4,4,0,1,0,2021-08-07 10:50:09,914658
-2,-1,-3,-6,-7,-3,-3,-2,2021-08-07 10:50:09,914658
0,-2,0,-1,1,0,-1,-2,2021-08-07 10:50:09,914658
-1,0,-1,1,3,1,1,-1,2021-08-07 10:50:09,914658
-1,-1,-2,-1,-2,-2,0,0,2021-08-07 10:50:09,930657
-1,-1,-1,-4,-5,-2,-1,0,2021-08-07 10:50:09,930657
3,2,2,6,0,1,0,2,2021-08-07 10:50:09,930657
-2,-2,0,1,2,0,0,-3,2021-08-07 10:50:09,930657
0,2,1,0,0,-1,-1,-2,2021-08-07 10:50:09,946656
-1,-3,-4,-5,-3,-3,-1,-2,2021-08-07 10:50:09,946656
-1,0,-1,-3,-1,0,-1,-1,2021-08-07 10:50:09,946656
-1,-3,0,0,2,0,-2,-2,2021-08-07 10:50:09,946656
2,0,-2,-3,-3,-2,-1,0,2021-08-07 10:50:09,977641
1,3,3,4,2,1,0,1,2021-08-07 10:50:09,977641
-2,0,0,6,9,2,-1,0,2021-08-07 10:50:09,977641
0,0,-1,-2,-2,0,1,0,2021-08-07 10:50:09,977641
-3,-4,-5,-8,-10,-5,-4,-2,2021-08-07 10:50:09,993656
-1,-2,2,9,2,1,0,-1,2021-08-07 10:50:09,993656
3,1,2,11,25,12,3,1,2021-08-07 10:50:10,009644
-2,-2,-3,2,-3,-2,-1,1,2021-08-07 10:50:10,009644
-1,-1,2,6,3,1,-1,-1,2021-08-07 10:50:10,009644
-2,-1,-4,-16,-14,-9,-3,-2,2021-08-07 10:50:10,009644
-2,-2,-2,-5,-15,-7,-3,-1,2021-08-07 10:50:10,009644
0,0,2,8,11,5,2,-2,2021-08-07 10:50:10,009644
0,-1,-2,-4,-3,0,-1,0,2021-08-07 10:50:10,025646
-1,-1,-1,-3,-5,-2,-3,-1,2021-08-07 10:50:10,025646
-1,-2,0,-4,-3,-1,0,-1,2021-08-07 10:50:10,025646
-5,-5,0,6,3,0,-1,-2,2021-08-07 10:50:10,040647
5,7,6,7,5,1,3,4,2021-08-07 10:50:10,056618
0,4,1,2,4,2,0,1,2021-08-07 10:50:10,056618
-5,-3,-7,-16,-17,-7,0,-2,2021-08-07 10:50:10,056618
1,2,1,1,4,3,0,3,2021-08-07 10:50:10,056618
-5,-6,-4,2,2,-3,-4,-5,2021-08-07 10:50:10,056618
-1,-2,1,0,-3,-6,-4,-1,2021-08-07 10:50:10,056618
-3,-2,-3,-4,-5,-7,-2,-2,2021-08-07 10:50:10,088659
-5,-5,-10,-23,-28,-12,-7,-4,2021-08-07 10:50:10,088659
3,4,5,1,-1,4,4,2,2021-08-07 10:50:10,088659
4,3,3,19,33,18,11,4,2021-08-07 10:50:10,088659
2,2,2,5,5,6,5,3,2021-08-07 10:50:10,088659
2,0,1,8,9,2,-1,-1,2021-08-07 10:50:10,088659
-5,-6,-6,-10,-13,-12,-10,-8,2021-08-07 10:50:10,120648
-4,-5,-6,-11,-17,-12,-9,-5,2021-08-07 10:50:10,136659
0,-2,0,-1,-2,-1,-1,0,2021-08-07 10:50:10,136659
0,-2,-4,-10,-8,0,2,1,2021-08-07 10:50:10,136659
0,1,-1,1,5,4,1,1,2021-08-07 10:50:10,136659
0,-1,0,-1,0,1,0,1,2021-08-07 10:50:10,136659
-2,-1,0,-4,-1,-2,0,-4,2021-08-07 10:50:10,136659
0,0,-3,-7,-10,-7,-2,-1,2021-08-07 10:50:10,136659
-1,-2,0,4,3,1,-1,-2,2021-08-07 10:50:10,152651
0,0,1,4,5,3,1,1,2021-08-07 10:50:10,168620
-2,0,-5,-9,-10,-5,-4,-1,2021-08-07 10:50:10,183621
1,1,5,18,16,4,1,0,2021-08-07 10:50:10,183621
-4,-4,-5,-3,-3,0,1,0,2021-08-07 10:50:10,183621
0,0,-1,-5,-7,-4,-3,0,2021-08-07 10:50:10,183621
0,0,-1,1,-3,-2,-2,-1,2021-08-07 10:50:10,184619
-2,-2,-2,-2,-2,-2,-2,-1,2021-08-07 10:50:10,184619
-1,-3,-4,-7,-5,-2,-1,-2,2021-08-07 10:50:10,184619
-2,-1,-1,-6,-5,-2,-1,-1,2021-08-07 10:50:10,185619
-1,-1,-1,4,9,0,-2,0,2021-08-07 10:50:10,185619
-1,1,2,1,2,2,0,0,2021-08-07 10:50:10,185619
0,0,0,4,3,2,1,-1,2021-08-07 10:50:10,215622
-2,-3,-5,-11,-10,-5,-3,-1,2021-08-07 10:50:10,215622
-2,-3,-1,-1,-2,-3,-1,-3,2021-08-07 10:50:10,215622
-1,2,1,-4,0,-1,-1,-2,2021-08-07 10:50:10,215622
1,1,0,0,0,1,0,1,2021-08-07 10:50:10,231618
-2,-2,0,-2,-2,-1,0,-2,2021-08-07 10:50:10,231618
-1,1,-2,2,1,1,-1,-1,2021-08-07 10:50:10,231618
0,-1,1,-1,1,1,-1,0,2021-08-07 10:50:10,231618
-2,0,0,-1,-2,-1,0,0,2021-08-07 10:50:10,262620
-1,-2,-2,-3,-2,0,1,0,2021-08-07 10:50:10,262620
1,0,2,4,3,4,1,2,2021-08-07 10:50:10,262620
0,0,-2,-1,6,-1,0,-2,2021-08-07 10:50:10,278654
1,0,0,-2,-6,-2,-1,1,2021-08-07 10:50:10,294622
-1,-1,-2,3,10,5,1,0,2021-08-07 10:50:10,309657
-2,-1,-1,2,0,-2,-2,0,2021-08-07 10:50:10,309657
-3,-1,-3,-7,-7,-5,-1,0,2021-08-07 10:50:10,309657
-1,1,2,4,3,2,0,2,2021-08-07 10:50:10,309657
-1,-2,-2,-3,-5,-3,-1,-1,2021-08-07 10:50:10,309657
-1,-1,-2,-5,-4,-1,-3,-1,2021-08-07 10:50:10,325656
0,0,-1,1,-3,0,-1,-1,2021-08-07 10:50:10,325656
-1,-2,-1,-2,4,-1,1,1,2021-08-07 10:50:10,325656
0,0,0,3,-3,0,0,-1,2021-08-07 10:50:10,325656
0,-1,0,-2,-1,-1,-2,-1,2021-08-07 10:50:10,325656
0,1,0,3,1,0,0,0,2021-08-07 10:50:10,325656
-2,-3,-5,-10,-13,-6,-1,-2,2021-08-07 10:50:10,326623
0,0,0,5,12,5,-1,0,2021-08-07 10:50:10,326623
0,2,1,8,7,3,-1,0,2021-08-07 10:50:10,341646
-1,-1,-2,-4,-7,-4,-1,-2,2021-08-07 10:50:10,341646
-2,-4,-4,-7,-6,-3,-2,-1,2021-08-07 10:50:10,357656
-1,0,0,1,-4,-3,-1,0,2021-08-07 10:50:10,373657
-1,-1,-2,-3,-4,-1,-1,-1,2021-08-07 10:50:10,373657
-1,-2,-1,-1,0,1,0,-1,2021-08-07 10:50:10,373657
0,-2,-3,-6,-12,-6,-1,-1,2021-08-07 10:50:10,373657
-1,0,1,3,8,1,1,-1,2021-08-07 10:50:10,373657
0,0,1,3,4,2,1,1,2021-08-07 10:50:10,373657
0,0,0,-2,-2,0,-1,0,2021-08-07 10:50:10,373657
-1,-1,-3,-1,-4,-5,-2,-2,2021-08-07 10:50:10,389656
1,1,2,-1,-1,4,2,0,2021-08-07 10:50:10,405657
-2,-1,2,5,9,1,0,-1,2021-08-07 10:50:10,420660
-1,-3,-1,0,-3,-2,-2,-1,2021-08-07 10:50:10,420660
-1,0,2,3,7,3,0,-2,2021-08-07 10:50:10,420660
-2,-2,-4,-7,-12,-8,-3,-3,2021-08-07 10:50:10,420660
-1,0,-1,-5,-8,-3,-1,0,2021-08-07 10:50:10,420660
0,0,-2,-3,-2,-2,-1,0,2021-08-07 10:50:10,420660
-1,-3,-2,-9,-7,-4,-2,-1,2021-08-07 10:50:10,436621
0,-2,0,6,11,5,1,0,2021-08-07 10:50:10,452618
1,2,2,7,11,7,4,1,2021-08-07 10:50:10,452618
-4,-2,0,4,6,2,0,-2,2021-08-07 10:50:10,452618
-4,0,0,4,3,0,-3,-4,2021-08-07 10:50:10,452618
-4,0,-1,-4,-13,-8,-7,-6,2021-08-07 10:50:10,452618
-2,-2,-3,-12,-16,-9,-5,-2,2021-08-07 10:50:10,452618
0,-1,-1,2,6,3,0,0,2021-08-07 10:50:10,453649
2,2,3,1,0,1,0,1,2021-08-07 10:50:10,468621
1,0,0,2,9,5,2,2,2021-08-07 10:50:10,484659
0,-3,-6,-10,-16,-6,-4,-1,2021-08-07 10:50:10,484659
0,-2,-3,-8,-7,-4,0,0,2021-08-07 10:50:10,484659
-3,-6,0,15,21,8,1,-1,2021-08-07 10:50:10,484659
9,12,7,4,-8,-1,3,5,2021-08-07 10:50:10,484659
0,-1,-1,3,13,4,2,0,2021-08-07 10:50:10,488656
-3,-3,-4,-7,-12,-7,-4,-2,2021-08-07 10:50:10,488656
-5,-5,-4,-3,-3,0,-4,-2,2021-08-07 10:50:10,516659
-1,1,2,1,6,1,-2,-1,2021-08-07 10:50:10,532670
-1,-1,-1,-3,-6,-5,-2,-3,2021-08-07 10:50:10,532670
2,2,2,2,0,0,0,2,2021-08-07 10:50:10,532670
-4,-2,-5,-10,-13,-7,-3,-3,2021-08-07 10:50:10,532670
-2,-4,-7,-16,-10,-2,-3,-1,2021-08-07 10:50:10,532670
1,3,8,25,21,9,2,-1,2021-08-07 10:50:10,532670
2,1,3,5,17,7,4,0,2021-08-07 10:50:10,533620
-1,-1,1,8,7,1,0,-1,2021-08-07 10:50:10,563671
-2,-1,-3,-7,-18,-11,-3,-3,2021-08-07 10:50:10,579658
-2,-4,-5,-14,-19,-7,-3,-2,2021-08-07 10:50:10,579658
-1,-2,0,7,10,6,1,-1,2021-08-07 10:50:10,579658
1,3,-1,2,-4,-2,0,1,2021-08-07 10:50:10,579658
-2,-4,-3,3,2,1,-1,-2,2021-08-07 10:50:10,579658
-3,-3,-3,-6,-4,-4,-2,-1,2021-08-07 10:50:10,579658
-2,-2,-3,-5,-11,-5,-2,-1,2021-08-07 10:50:10,579658
2,3,1,0,6,3,2,2,2021-08-07 10:50:10,595621
-2,-3,-2,1,0,-2,-1,-2,2021-08-07 10:50:10,595621
0,-1,-2,-2,-3,-1,0,0,2021-08-07 10:50:10,595621
-4,-4,-5,-5,-5,-3,-4,-2,2021-08-07 10:50:10,595621
2,1,1,1,2,1,1,3,2021-08-07 10:50:10,611662
0,0,1,2,1,0,0,-2,2021-08-07 10:50:10,611662
0,-2,-2,-5,-5,-1,-1,0,2021-08-07 10:50:10,611662
-1,0,0,-2,-4,-2,-2,-2,2021-08-07 10:50:10,611662
-3,-3,-6,-6,-4,-3,-3,-1,2021-08-07 10:50:10,642645
-3,-4,-1,-1,2,-1,-3,-2,2021-08-07 10:50:10,642645
8,8,7,8,12,7,7,6,2021-08-07 10:50:10,642645
0,1,2,7,7,3,1,-1,2021-08-07 10:50:10,642645
-2,-3,-3,-2,-6,-4,-1,-5,2021-08-07 10:50:10,642645
-2,-2,-4,-7,-8,-3,-3,-2,2021-08-07 10:50:10,642645
-3,-5,-5,-4,-6,-4,-2,-4,2021-08-07 10:50:10,658644
1,1,1,-3,-3,-1,0,0,2021-08-07 10:50:10,658644
-1,0,1,5,3,0,-1,-3,2021-08-07 10:50:10,674617
-4,-4,-4,-1,2,-3,-2,-2,2021-08-07 10:50:10,689660
1,3,1,0,2,1,-1,-1,2021-08-07 10:50:10,689660
0,0,-2,1,-2,-2,-1,0,2021-08-07 10:50:10,689660
0,1,2,0,1,-1,-1,-1,2021-08-07 10:50:10,689660
-1,-1,-1,0,0,2,1,0,2021-08-07 10:50:10,689660
-3,-2,0,-1,-2,-2,-2,-2,2021-08-07 10:50:10,721667
-2,-2,-3,-3,-3,-2,0,-2,2021-08-07 10:50:10,721667
-1,1,2,-1,2,1,-2,0,2021-08-07 10:50:10,721667
0,-1,-1,2,1,1,0,-1,2021-08-07 10:50:10,721667
-3,0,-3,-2,-2,-2,-3,-1,2021-08-07 10:50:10,721667
-3,0,0,0,-1,-1,-1,-1,2021-08-07 10:50:10,721667
-2,-3,-3,-1,0,0,0,0,2021-08-07 10:50:10,737658
0,0,0,3,0,0,-1,-1,2021-08-07 10:50:10,737658
-4,-6,-5,-13,-16,-7,-4,-4,2021-08-07 10:50:10,737658
-1,-2,-7,-6,-4,-2,-3,-1,2021-08-07 10:50:10,737658
7,7,11,26,32,14,7,4,2021-08-07 10:50:10,752668
0,0,3,5,4,2,1,0,2021-08-07 10:50:10,752668
-2,-2,-4,-8,-4,-4,-1,-2,2021-08-07 10:50:10,752668
-3,-2,-3,-9,-12,-7,-4,-2,2021-08-07 10:50:10,752668
-1,-4,0,0,-5,-3,-2,-2,2021-08-07 10:50:10,800622
2,1,1,0,2,2,0,2,2021-08-07 10:50:10,815658
-3,-3,-3,0,2,-1,-3,-2,2021-08-07 10:50:10,831621
-3,-4,-4,-5,-8,-2,-3,-3,2021-08-07 10:50:10,831621
-1,0,-4,-9,1,-1,-1,1,2021-08-07 10:50:10,831621
-1,1,2,2,-2,-3,1,0,2021-08-07 10:50:10,831621
1,1,0,-1,1,-1,0,0,2021-08-07 10:50:10,831621
0,0,-1,-3,-4,-3,-1,1,2021-08-07 10:50:10,831621
-2,-1,-1,-2,-2,-1,-1,-1,2021-08-07 10:50:10,831621
0,0,0,-3,-5,-1,-2,0,2021-08-07 10:50:10,832619
0,0,-1,3,8,4,2,1,2021-08-07 10:50:10,832619
0,2,4,5,4,2,1,1,2021-08-07 10:50:10,832619
-4,-4,-6,-7,-10,-3,-4,-3,2021-08-07 10:50:10,847622
-2,-3,-3,-10,-1,-2,-1,0,2021-08-07 10:50:10,863621
0,-1,3,12,2,0,-1,0,2021-08-07 10:50:10,863621
0,0,0,3,7,4,2,1,2021-08-07 10:50:10,863621
-1,0,-2,-6,-5,-1,-2,0,2021-08-07 10:50:10,863621
-3,-1,-3,-5,-5,-3,-3,-2,2021-08-07 10:50:10,863621
-2,-2,-3,-6,-8,-5,-2,-2,2021-08-07 10:50:10,863621
-1,0,-1,-2,-1,-1,0,-2,2021-08-07 10:50:10,864619
-1,-2,-3,-6,-8,-3,-2,-3,2021-08-07 10:50:10,879657
1,3,2,11,14,5,3,2,2021-08-07 10:50:10,879657
1,-3,-1,-1,0,0,-1,-1,2021-08-07 10:50:10,879657
0,1,-1,-1,2,1,0,-1,2021-08-07 10:50:10,879657
0,1,3,3,0,2,1,1,2021-08-07 10:50:10,895654
-1,-2,-3,0,-2,-2,-3,-4,2021-08-07 10:50:10,895654
-1,-1,-2,-3,-1,0,-1,-1,2021-08-07 10:50:10,895654
-1,-1,-2,-3,-1,-3,-2,-1,2021-08-07 10:50:10,895654
-1,-1,-1,-2,-3,-2,-1,-1,2021-08-07 10:50:10,911619
-3,-5,-4,-4,-6,-3,-1,-2,2021-08-07 10:50:10,911619
1,1,1,1,0,2,0,0,2021-08-07 10:50:10,911619
0,-1,0,4,1,0,0,1,2021-08-07 10:50:10,911619
0,-1,-1,-2,0,-4,0,0,2021-08-07 10:50:10,942657
-2,-1,-1,0,-1,-1,-2,-2,2021-08-07 10:50:10,942657
-2,-3,-2,1,0,-1,-1,-2,2021-08-07 10:50:10,942657
0,0,2,2,2,2,0,1,2021-08-07 10:50:10,942657
0,0,0,-1,-3,-2,0,-1,2021-08-07 10:50:10,958667
-2,-2,0,-3,-2,-2,-2,-1,2021-08-07 10:50:10,958667
-1,-2,-3,-2,-2,-3,-1,-1,2021-08-07 10:50:10,958667
0,0,0,3,-2,1,-2,0,2021-08-07 10:50:10,958667
-1,-1,1,2,7,1,0,-2,2021-08-07 10:50:10,990646
-1,-1,-5,-2,-6,-4,-2,-1,2021-08-07 10:50:10,990646
0,1,3,4,7,3,1,0,2021-08-07 10:50:10,990646
-2,-4,-4,-10,-12,-7,-4,0,2021-08-07 10:50:10,990646
1,1,0,2,6,5,4,2,2021-08-07 10:50:10,990646
-3,-2,-1,3,1,0,-1,-1,2021-08-07 10:50:10,990646
-4,-3,-3,-5,-12,-4,-3,-1,2021-08-07 10:50:10,990646
2,2,2,9,18,6,2,0,2021-08-07 10:50:10,990646
-1,-1,1,2,-3,-2,-1,0,2021-08-07 10:50:11,021656
0,1,-2,-3,3,1,1,0,2021-08-07 10:50:11,037661
-3,-2,-1,-3,-2,-2,-1,-1,2021-08-07 10:50:11,037661
-4,-2,-4,-6,-10,-5,-3,-4,2021-08-07 10:50:11,053656
-4,-3,-7,-11,-11,-6,-4,-3,2021-08-07 10:50:11,053656
2,0,1,4,3,1,0,1,2021-08-07 10:50:11,053656
-1,1,1,0,2,0,0,-2,2021-08-07 10:50:11,053656
-2,-3,-4,-7,-11,-6,-1,-3,2021-08-07 10:50:11,053656
-3,-4,-4,-11,-17,-3,-4,-2,2021-08-07 10:50:11,069622
4,3,5,12,23,9,3,1,2021-08-07 10:50:11,069622
-2,-3,-2,-5,-4,-3,-3,-2,2021-08-07 10:50:11,069622
-1,-2,3,10,10,3,1,0,2021-08-07 10:50:11,069622
1,2,-1,-8,-11,-5,-1,1,2021-08-07 10:50:11,069622
-1,-1,-2,-8,-13,-5,-3,-2,2021-08-07 10:50:11,069622
5,4,3,3,4,3,3,3,2021-08-07 10:50:11,085653
-3,-2,-2,-3,2,-2,-2,-1,2021-08-07 10:50:11,085653
-2,-3,-5,-8,-3,-2,-2,-2,2021-08-07 10:50:11,085653
-2,-1,-2,-3,-4,-1,-2,-1,2021-08-07 10:50:11,085653
-1,-1,0,5,2,-1,-1,-2,2021-08-07 10:50:11,101624
-1,-3,-2,-9,-13,-5,-4,-2,2021-08-07 10:50:11,101624
5,2,5,15,27,12,3,1,2021-08-07 10:50:11,117620
0,0,-3,-6,-9,-2,2,1,2021-08-07 10:50:11,133661
-3,-5,-6,-7,-9,-4,-1,-2,2021-08-07 10:50:11,149657
-2,-2,-2,1,1,0,1,1,2021-08-07 10:50:11,149657
0,0,2,6,11,2,0,-1,2021-08-07 10:50:11,149657
-4,-4,-3,-6,-12,-5,-4,-5,2021-08-07 10:50:11,149657
-3,0,6,10,14,6,0,-2,2021-08-07 10:50:11,149657
0,1,1,-1,-5,-1,-1,-1,2021-08-07 10:50:11,149657
2,1,-2,0,-3,-2,-3,0,2021-08-07 10:50:11,150620
-1,-3,-2,-3,-5,-4,-2,-2,2021-08-07 10:50:11,150620
-1,-3,-6,-12,-9,-6,-3,0,2021-08-07 10:50:11,165618
0,-1,1,0,1,-1,2,0,2021-08-07 10:50:11,181622
0,-2,1,6,9,3,3,0,2021-08-07 10:50:11,196661
0,0,0,-3,-3,-1,-1,0,2021-08-07 10:50:11,196661
1,1,0,2,0,2,-1,2,2021-08-07 10:50:11,211620
0,2,1,3,5,1,0,0,2021-08-07 10:50:11,211620
-5,-4,-6,-9,-15,-7,-4,-3,2021-08-07 10:50:11,226624
-1,-4,-3,-1,-4,-5,-3,-2,2021-08-07 10:50:11,226624
1,3,2,4,14,5,2,1,2021-08-07 10:50:11,226624
1,1,3,6,3,1,0,1,2021-08-07 10:50:11,226624
-2,-3,-3,-5,-10,-3,0,0,2021-08-07 10:50:11,226624
2,1,4,9,13,5,1,1,2021-08-07 10:50:11,227621
-5,-6,-6,-14,-18,-10,-6,-3,2021-08-07 10:50:11,257656
-1,0,-1,-5,-5,-1,-2,0,2021-08-07 10:50:11,272619
2,3,8,16,18,6,2,3,2021-08-07 10:50:11,288621
1,-1,1,-3,-6,-2,-1,-1,2021-08-07 10:50:11,304658
-1,-2,-5,-7,-7,-4,-2,-3,2021-08-07 10:50:11,320656
1,1,-2,-5,-4,-1,1,-1,2021-08-07 10:50:11,320656
-2,-4,-3,-2,-2,-2,-2,-2,2021-08-07 10:50:11,320656
-2,-1,-3,-11,-10,-4,-3,-1,2021-08-07 10:50:11,320656
2,3,5,8,7,2,-1,-1,2021-08-07 10:50:11,320656
0,0,1,5,7,4,4,1,2021-08-07 10:50:11,320656
-4,-2,-3,-4,-5,-2,-1,-2,2021-08-07 10:50:11,321620
-2,-3,-4,-1,0,-3,-2,0,2021-08-07 10:50:11,321620
0,2,2,-1,-8,-2,-1,0,2021-08-07 10:50:11,321620
-1,-2,-4,-4,1,-1,-2,-2,2021-08-07 10:50:11,321620
-2,0,-2,-3,-3,-3,0,-1,2021-08-07 10:50:11,321620
-2,-2,-2,2,1,2,0,-1,2021-08-07 10:50:11,321620
1,-1,2,3,1,4,1,2,2021-08-07 10:50:11,321620
1,1,2,1,4,-1,-1,1,2021-08-07 10:50:11,321620
-1,-2,-3,-7,-8,-5,-2,-1,2021-08-07 10:50:11,321620
-1,-3,-4,-8,-7,-3,2,1,2021-08-07 10:50:11,321620
-2,-2,-3,5,2,3,1,-1,2021-08-07 10:50:11,322622
4,2,2,1,1,-1,-2,-2,2021-08-07 10:50:11,322622
-5,-2,-1,0,-6,-10,-9,-6,2021-08-07 10:50:11,336668
-3,1,2,2,3,1,-2,-2,2021-08-07 10:50:11,352669
1,-2,-3,-7,-8,-3,0,2,2021-08-07 10:50:11,352669
-2,-4,-4,-4,-7,-1,2,-1,2021-08-07 10:50:11,352669
2,1,-2,-3,3,1,2,1,2021-08-07 10:50:11,352669
0,1,3,6,11,4,2,-1,2021-08-07 10:50:11,352669
1,1,5,15,15,4,3,2,2021-08-07 10:50:11,352669
-2,-2,-2,0,-4,0,-3,-2,2021-08-07 10:50:11,352669
-2,-2,-3,-10,-16,-7,-3,-2,2021-08-07 10:50:11,384621
-1,-2,-3,-5,-4,-2,-2,-2,2021-08-07 10:50:11,384621
0,2,3,10,16,6,0,-1,2021-08-07 10:50:11,384621
0,0,0,0,-4,-3,-2,-1,2021-08-07 10:50:11,384621
-1,-1,1,4,11,4,0,-1,2021-08-07 10:50:11,384621
-1,0,-3,-6,-9,-2,-1,1,2021-08-07 10:50:11,384621
-2,-1,-3,-7,-9,-8,-4,-3,2021-08-07 10:50:11,400657
0,-1,1,2,6,2,1,1,2021-08-07 10:50:11,400657
3,3,5,9,8,5,3,4,2021-08-07 10:50:11,416647
-1,-2,-3,-1,0,-3,-1,-1,2021-08-07 10:50:11,416647
-1,-3,-2,-7,-5,-3,-1,-3,2021-08-07 10:50:11,416647
-8,-8,-6,-7,-9,-4,-4,-2,2021-08-07 10:50:11,416647
1,2,-1,-5,-4,-1,1,-1,2021-08-07 10:50:11,448645
1,3,3,4,4,1,0,-1,2021-08-07 10:50:11,448645
0,-3,0,-4,-2,-1,0,0,2021-08-07 10:50:11,448645
-2,-2,-3,-4,-7,-4,-3,-3,2021-08-07 10:50:11,448645
-1,-4,2,9,10,4,0,1,2021-08-07 10:50:11,448645
2,-1,1,4,2,2,2,0,2021-08-07 10:50:11,449647
-2,-2,-3,-6,-5,-2,-2,0,2021-08-07 10:50:11,464649
-1,-3,-2,2,1,0,2,0,2021-08-07 10:50:11,464649
-2,-2,-1,-2,-7,-3,-1,-1,2021-08-07 10:50:11,480620
-2,-3,-2,0,-2,-3,-1,-1,2021-08-07 10:50:11,496648
0,2,-3,-8,-4,0,0,0,2021-08-07 10:50:11,512623
-1,0,3,-1,-11,-7,-3,-1,2021-08-07 10:50:11,512623
-2,-1,0,7,6,7,1,1,2021-08-07 10:50:11,512623
0,1,3,10,24,8,1,1,2021-08-07 10:50:11,512623
-2,-1,-2,0,-3,-4,-2,-4,2021-08-07 10:50:11,512623
0,0,-3,-3,0,-2,-2,-2,2021-08-07 10:50:11,512623
-1,-2,-2,-8,-13,-4,-2,-1,2021-08-07 10:50:11,512623
-2,-1,-1,-6,-7,-3,-2,-2,2021-08-07 10:50:11,513647
0,1,2,3,1,2,1,0,2021-08-07 10:50:11,528657
-1,0,1,-1,2,1,1,-1,2021-08-07 10:50:11,528657
0,-1,-5,-7,-3,-3,-3,-1,2021-08-07 10:50:11,528657
0,-5,-1,-4,-6,-2,-2,-1,2021-08-07 10:50:11,528657
-3,-2,-1,-3,-3,-4,-1,-1,2021-08-07 10:50:11,528657
-1,-4,-3,2,2,-1,-1,-2,2021-08-07 10:50:11,529658
3,5,4,4,2,1,3,1,2021-08-07 10:50:11,560618
-1,1,0,3,1,1,0,0,2021-08-07 10:50:11,576626
-1,0,0,-2,-2,-2,-1,-2,2021-08-07 10:50:11,576626
-2,-1,-2,1,4,1,-1,-1,2021-08-07 10:50:11,576626
-3,-2,-3,-4,-1,-2,-3,-3,2021-08-07 10:50:11,576626
-1,-2,-2,-3,-3,-2,0,-2,2021-08-07 10:50:11,576626
-2,-1,-2,0,0,0,-1,0,2021-08-07 10:50:11,576626
0,0,1,1,2,1,-1,-1,2021-08-07 10:50:11,577621
0,-1,-2,-1,-2,0,0,-1,2021-08-07 10:50:11,591618
0,2,1,-2,-5,0,-1,-1,2021-08-07 10:50:11,591618
-2,-2,-1,-2,-2,0,-1,-1,2021-08-07 10:50:11,591618
0,0,-2,-3,-1,-1,-1,-1,2021-08-07 10:50:11,591618
0,-2,-3,-3,-3,-3,-1,-2,2021-08-07 10:50:11,623657
-1,-2,-1,0,0,-1,0,-1,2021-08-07 10:50:11,623657
-2,-2,-2,-3,1,-1,-3,-2,2021-08-07 10:50:11,623657
-1,1,1,1,1,2,0,-1,2021-08-07 10:50:11,623657
-1,-3,-1,-2,0,0,-2,-2,2021-08-07 10:50:11,639646
-2,-3,-1,0,-1,-2,-3,-1,2021-08-07 10:50:11,639646
1,2,2,-1,-2,-2,0,1,2021-08-07 10:50:11,639646
1,-1,-1,-3,-3,-2,0,-1,2021-08-07 10:50:11,639646
-2,1,1,1,3,-1,1,-2,2021-08-07 10:50:11,654621
-2,-2,-3,0,1,-2,-1,-1,2021-08-07 10:50:11,670657
-3,-5,-3,-2,-2,-3,-2,-3,2021-08-07 10:50:11,686646
0,-1,-1,-3,-2,1,-1,0,2021-08-07 10:50:11,686646
-3,0,-1,-2,-4,-3,-4,0,2021-08-07 10:50:11,686646
5,10,9,6,-3,-2,-1,2,2021-08-07 10:50:11,686646
-1,-1,-1,7,11,7,2,0,2021-08-07 10:50:11,686646
-4,-7,-12,-17,-15,-7,-1,-2,2021-08-07 10:50:11,686646
-3,-7,-7,-8,-7,-3,-3,-5,2021-08-07 10:50:11,702636
-4,-3,-3,-3,0,-1,-1,-2,2021-08-07 10:50:11,718620
1,2,1,1,-5,-3,-2,0,2021-08-07 10:50:11,734620
-1,-1,2,0,-8,-3,-2,-4,2021-08-07 10:50:11,750646
2,2,1,4,10,3,2,3,2021-08-07 10:50:11,781656
-2,-2,-2,2,3,0,0,-1,2021-08-07 10:50:11,782658
0,-2,0,-1,-1,-1,0,-1,2021-08-07 10:50:11,782658
-3,-1,-2,-3,-5,-3,-3,-1,2021-08-07 10:50:11,782658
0,-1,0,-6,-14,-7,-2,-2,2021-08-07 10:50:11,782658
0,1,-1,2,15,6,2,1,2021-08-07 10:50:11,782658
0,-2,-1,4,0,1,0,0,2021-08-07 10:50:11,783657
-1,-1,0,1,1,0,-1,1,2021-08-07 10:50:11,783657
-2,-1,-2,0,-3,0,0,0,2021-08-07 10:50:11,783657
-3,-5,-4,-11,-13,-7,-2,-3,2021-08-07 10:50:11,783657
-3,-3,-3,-5,-3,-3,-2,-2,2021-08-07 10:50:11,783657
1,2,0,2,1,0,-2,0,2021-08-07 10:50:11,783657
0,1,2,5,7,3,2,1,2021-08-07 10:50:11,783657
-1,-2,0,8,9,3,0,1,2021-08-07 10:50:11,783657
2,0,-5,-5,-5,-1,-1,1,2021-08-07 10:50:11,784619
-2,-1,-1,-5,-3,-3,-1,-1,2021-08-07 10:50:11,784619
-3,-3,-4,-4,-6,-4,-3,-2,2021-08-07 10:50:11,798662
4,5,5,10,9,6,3,4,2021-08-07 10:50:11,798662
1,-1,1,7,7,2,1,0,2021-08-07 10:50:11,798662
-1,-1,1,1,-2,-1,-1,0,2021-08-07 10:50:11,798662
0,0,-2,-3,-1,0,-2,-1,2021-08-07 10:50:11,814656
-3,-3,-3,-5,-6,-4,-2,-4,2021-08-07 10:50:11,814656
-4,0,-3,-5,-12,-6,-4,-2,2021-08-07 10:50:11,814656
2,0,2,5,15,5,2,2,2021-08-07 10:50:11,814656
-2,-2,-2,-1,-4,-1,-3,-2,2021-08-07 10:50:11,846657
1,-2,-1,-4,-7,-2,-2,0,2021-08-07 10:50:11,862662
1,-1,1,-2,2,1,0,1,2021-08-07 10:50:11,862662
-1,-2,-1,1,2,0,0,-1,2021-08-07 10:50:11,862662
-2,-4,-5,-6,-6,-2,2,-1,2021-08-07 10:50:11,862662
-1,-1,-1,0,1,2,1,-1,2021-08-07 10:50:11,862662
-4,-3,0,2,7,0,-1,-5,2021-08-07 10:50:11,862662
-3,0,1,3,3,-1,-1,-3,2021-08-07 10:50:11,862662
-1,1,3,0,-1,-2,-3,-3,2021-08-07 10:50:11,878656
-2,-1,-4,-7,-9,-4,-3,-2,2021-08-07 10:50:11,878656
-3,-3,-4,-8,-10,-8,-4,-3,2021-08-07 10:50:11,878656
4,4,4,10,13,7,4,4,2021-08-07 10:50:11,878656
5,7,5,4,4,3,3,4,2021-08-07 10:50:11,894655
0,-1,-4,-4,-10,-4,-2,0,2021-08-07 10:50:11,894655
0,0,-1,-3,0,0,0,-1,2021-08-07 10:50:11,894655
-6,-4,-3,-1,-3,-2,-3,-4,2021-08-07 10:50:11,894655
-2,-4,-3,-3,0,-1,-1,-2,2021-08-07 10:50:11,926624
-2,-2,-1,3,2,0,-2,-2,2021-08-07 10:50:11,926624
1,0,-2,-2,-5,-3,-1,-1,2021-08-07 10:50:11,926624
-1,0,-2,-4,-6,-3,0,-2,2021-08-07 10:50:11,926624
-1,-2,-4,-12,-10,-3,-1,-1,2021-08-07 10:50:11,942656
-1,0,4,8,9,2,0,-1,2021-08-07 10:50:11,942656
1,1,6,12,16,11,7,4,2021-08-07 10:50:11,942656
-2,-1,-2,-3,-5,-4,-4,-4,2021-08-07 10:50:11,942656
-3,-3,0,1,-2,-3,-5,-3,2021-08-07 10:50:11,958645
1,2,-2,-1,0,0,-1,-1,2021-08-07 10:50:11,958645
-2,0,-4,-9,-13,-7,-3,-1,2021-08-07 10:50:11,958645
6,6,8,13,14,8,4,5,2021-08-07 10:50:11,958645
-3,-2,0,0,-2,-1,0,-2,2021-08-07 10:50:11,990220
-2,-4,-3,-8,-13,-6,-2,-1,2021-08-07 10:50:11,990220
-1,-1,-3,-2,1,1,2,2,2021-08-07 10:50:11,990220
-2,-3,-5,-4,-4,-1,0,0,2021-08-07 10:50:11,990220
-2,-2,-2,1,2,-2,-1,-2,2021-08-07 10:50:12,006245
-2,1,3,2,6,-2,-6,-4,2021-08-07 10:50:12,021258
-3,0,-2,-4,-6,-7,-6,-4,2021-08-07 10:50:12,037270
-1,-3,-4,-1,-2,0,-1,0,2021-08-07 10:50:12,037270
-3,-1,-1,4,1,2,0,2,2021-08-07 10:50:12,037270
-2,-2,-3,-12,-15,-6,-1,-1,2021-08-07 10:50:12,037270
5,5,0,2,6,5,3,3,2021-08-07 10:50:12,037270
11,13,12,10,16,11,12,9,2021-08-07 10:50:12,037270
0,0,3,6,2,-4,-4,-3,2021-08-07 10:50:12,037270
-9,-10,-8,-7,-11,-13,-11,-9,2021-08-07 10:50:12,037270
-7,-6,-4,-7,-8,-9,-7,-7,2021-08-07 10:50:12,038265
-4,-3,-3,-3,-4,-3,-3,-2,2021-08-07 10:50:12,038265
1,0,-4,-8,-7,1,4,2,2021-08-07 10:50:12,069247
3,2,2,4,8,7,5,3,2021-08-07 10:50:12,085247
-2,-1,0,-3,-4,0,0,1,2021-08-07 10:50:12,101258
-1,-1,0,6,4,0,-2,-1,2021-08-07 10:50:12,117258
-2,-2,-3,-8,-7,-4,-1,-3,2021-08-07 10:50:12,117258
0,-2,-1,1,8,5,2,1,2021-08-07 10:50:12,117258
0,-1,1,9,8,4,1,-2,2021-08-07 10:50:12,117258
-3,-3,-7,-10,-12,-5,-5,-2,2021-08-07 10:50:12,117258
1,0,-3,-10,-8,-4,-4,1,2021-08-07 10:50:12,117258
2,3,2,4,0,0,3,2,2021-08-07 10:50:12,117258
-2,-3,-3,-1,-1,0,-1,-1,2021-08-07 10:50:12,117258
-3,-4,-3,-2,-3,-5,-5,-5,2021-08-07 10:50:12,118222
-2,-2,-2,-3,-4,-3,-2,-3,2021-08-07 10:50:12,133219
-4,0,-5,-19,-15,-5,-2,-2,2021-08-07 10:50:12,149222
1,2,6,16,18,7,4,3,2021-08-07 10:50:12,149222
-1,1,2,3,3,1,-2,0,2021-08-07 10:50:12,149222
0,-1,2,7,12,4,3,1,2021-08-07 10:50:12,149222
0,-2,-2,-1,-2,0,0,0,2021-08-07 10:50:12,149222
-2,-3,-4,-10,-16,-10,-4,-2,2021-08-07 10:50:12,149222
-2,-4,-9,-24,-17,-7,-3,-4,2021-08-07 10:50:12,165223
3,4,9,26,25,10,5,4,2021-08-07 10:50:12,181223
1,2,2,8,5,3,0,1,2021-08-07 10:50:12,181223
-1,0,0,0,4,0,1,-2,2021-08-07 10:50:12,181223
-1,-2,0,0,-4,-1,0,0,2021-08-07 10:50:12,181223
-1,-3,-5,-8,-8,-3,-3,-2,2021-08-07 10:50:12,181223
-2,-2,0,-2,-1,-4,-1,-2,2021-08-07 10:50:12,181223
1,0,-1,0,-1,1,0,0,2021-08-07 10:50:12,182255
-2,-2,-2,-3,-1,-3,-3,-1,2021-08-07 10:50:12,182255
0,1,-2,-5,-5,-2,0,-1,2021-08-07 10:50:12,197260
1,-1,2,4,2,2,0,1,2021-08-07 10:50:12,197494
-3,0,-2,-8,-5,-2,-3,-1,2021-08-07 10:50:12,197494
-2,-3,-1,4,-1,-1,-1,-2,2021-08-07 10:50:12,197494
-3,-5,-4,-1,0,-1,-1,-4,2021-08-07 10:50:12,224273
-1,-2,-4,-5,-4,-3,-1,0,2021-08-07 10:50:12,224273
1,2,3,7,7,3,1,0,2021-08-07 10:50:12,224273
-1,1,0,0,0,0,-1,-1,2021-08-07 10:50:12,224273
0,2,2,2,2,1,0,2,2021-08-07 10:50:12,244223
-4,-3,-3,-5,-1,-1,0,0,2021-08-07 10:50:12,260260
0,-5,-4,-6,-8,-5,-2,-2,2021-08-07 10:50:12,260260
-1,-1,-2,-6,-7,-3,0,0,2021-08-07 10:50:12,260260
2,3,6,12,22,7,0,1,2021-08-07 10:50:12,260260
1,-1,-1,-2,-1,0,0,-1,2021-08-07 10:50:12,276221
-1,-3,-1,-1,1,0,-3,-1,2021-08-07 10:50:12,276221
-1,-2,-3,-4,-6,-4,-2,-3,2021-08-07 10:50:12,276221
-3,-4,-3,-2,-7,-2,-2,-1,2021-08-07 10:50:12,276221
2,2,0,-1,-2,1,2,1,2021-08-07 10:50:12,276221
-3,-5,-4,-8,-6,-4,-3,-2,2021-08-07 10:50:12,276221
2,3,1,4,4,2,0,0,2021-08-07 10:50:12,276221
-4,-2,-1,0,-3,-3,-2,-2,2021-08-07 10:50:12,308250
3,2,2,5,5,1,0,-1,2021-08-07 10:50:12,308250
-2,-2,-2,-1,-5,-3,0,-1,2021-08-07 10:50:12,324224
-2,-2,-2,-3,-3,-2,0,-3,2021-08-07 10:50:12,340261
-2,-4,-4,-8,-8,-4,-4,-2,2021-08-07 10:50:12,356258
-1,-1,-2,-2,-3,-2,-2,0,2021-08-07 10:50:12,356258
-1,1,1,-3,-7,-5,-1,0,2021-08-07 10:50:12,356258
2,0,0,0,3,3,1,-1,2021-08-07 10:50:12,356258
2,0,5,12,19,8,3,1,2021-08-07 10:50:12,356258
-5,-5,-3,0,-5,-5,-4,-3,2021-08-07 10:50:12,356258
3,2,-4,-9,-3,0,1,3,2021-08-07 10:50:12,356258
-1,-3,-3,-1,-4,-6,-3,-2,2021-08-07 10:50:12,357223
-1,1,-2,-5,-15,-7,-4,-1,2021-08-07 10:50:12,357223
3,4,7,8,14,7,2,1,2021-08-07 10:50:12,357223
-4,-4,-3,-3,-8,-2,-2,-4,2021-08-07 10:50:12,372260
-2,-3,-6,-11,0,-2,0,1,2021-08-07 10:50:12,372260
-1,-2,-1,0,2,2,1,-3,2021-08-07 10:50:12,372260
-1,-1,-1,4,7,2,-2,0,2021-08-07 10:50:12,372260
-2,-1,0,0,-6,-3,-2,-2,2021-08-07 10:50:12,388269
-3,-2,-1,0,-2,-1,-1,-3,2021-08-07 10:50:12,404250
-2,-3,-6,-10,-7,-4,-3,-1,2021-08-07 10:50:12,420222
2,-1,2,0,-7,-1,-1,0,2021-08-07 10:50:12,420222
1,2,3,9,13,5,2,-1,2021-08-07 10:50:12,420789
-2,0,1,2,-5,-1,-2,0,2021-08-07 10:50:12,420789
-2,-2,-2,0,4,-2,-1,-2,2021-08-07 10:50:12,420789
-4,-4,-6,-8,-9,-4,-2,-4,2021-08-07 10:50:12,421222
4,5,5,8,12,8,2,4,2021-08-07 10:50:12,421222
-2,-3,1,2,-1,-2,-2,-1,2021-08-07 10:50:12,421222
2,1,0,-5,-7,-1,-1,-1,2021-08-07 10:50:12,435795
0,1,0,4,9,1,2,1,2021-08-07 10:50:12,435795
-3,-2,-2,-4,-4,-3,-4,-2,2021-08-07 10:50:12,435795
1,1,1,-2,0,0,0,1,2021-08-07 10:50:12,435795
-1,-1,-4,-4,-6,-4,-1,-2,2021-08-07 10:50:12,466814
-3,-1,-3,-3,-5,-1,-2,-1,2021-08-07 10:50:12,482820
-1,-2,-2,-7,-4,-2,-1,-1,2021-08-07 10:50:12,482820
1,1,3,12,13,4,2,1,2021-08-07 10:50:12,482820
-2,-4,-4,-4,-10,-4,-1,-2,2021-08-07 10:50:12,482820
0,1,0,2,3,0,0,0,2021-08-07 10:50:12,482820
-1,-1,-2,-6,-8,-5,-2,-2,2021-08-07 10:50:12,482820
0,-2,-1,-1,4,1,-1,-1,2021-08-07 10:50:12,482820
1,2,3,7,5,3,3,1,2021-08-07 10:50:12,498818
-4,-4,-4,-5,-9,-5,-4,-2,2021-08-07 10:50:12,498818
-2,-1,-3,4,3,0,0,-1,2021-08-07 10:50:12,498818
-3,-2,-4,-9,-8,-5,-2,0,2021-08-07 10:50:12,498818
5,6,4,3,6,3,1,4,2021-08-07 10:50:12,514833
-1,0,5,1,2,1,2,0,2021-08-07 10:50:12,530798
0,-1,-1,-1,-3,-1,0,-1,2021-08-07 10:50:12,530798
0,-1,-1,1,0,0,-1,0,2021-08-07 10:50:12,530798
-6,-5,-5,-7,-5,-3,-3,-3,2021-08-07 10:50:12,546821
3,2,1,1,4,4,0,1,2021-08-07 10:50:12,546821
-1,-1,-2,-3,-3,-1,0,1,2021-08-07 10:50:12,546821
0,1,2,1,0,0,0,-1,2021-08-07 10:50:12,546821
-2,-1,-2,-9,-5,-2,0,-1,2021-08-07 10:50:12,562791
-2,-3,-3,5,1,-3,-1,-3,2021-08-07 10:50:12,562791
0,0,1,5,9,6,1,1,2021-08-07 10:50:12,562791
2,1,0,-1,1,1,1,0,2021-08-07 10:50:12,562791
-3,-3,-3,-3,-10,-6,-3,-3,2021-08-07 10:50:12,578831
-1,0,-3,-12,-11,-4,-2,-1,2021-08-07 10:50:12,578831
1,-1,0,-2,2,-1,1,0,2021-08-07 10:50:12,578831
0,0,1,10,11,3,1,1,2021-08-07 10:50:12,578831
0,0,-1,1,0,2,2,1,2021-08-07 10:50:12,609828
-4,-4,-3,-1,-1,-1,-1,-2,2021-08-07 10:50:12,609828
-2,-2,1,1,-1,-1,0,-1,2021-08-07 10:50:12,609828
0,1,0,-4,-5,-2,1,-2,2021-08-07 10:50:12,609828
-3,1,2,1,4,0,-3,-4,2021-08-07 10:50:12,625795
-3,0,0,1,-2,-3,-3,-2,2021-08-07 10:50:12,641833
-3,0,-3,-3,-2,-2,-2,0,2021-08-07 10:50:12,657831
2,1,1,3,-1,0,1,2,2021-08-07 10:50:12,657831
5,1,0,-4,-4,-2,-1,3,2021-08-07 10:50:12,657831
3,2,2,9,6,4,3,2,2021-08-07 10:50:12,657831
0,2,2,3,2,-1,1,0,2021-08-07 10:50:12,657831
-3,-4,-4,0,3,1,-2,-3,2021-08-07 10:50:12,657831
-2,-3,-3,-5,-10,-3,-1,-2,2021-08-07 10:50:12,657831
0,-1,-3,-12,-5,-2,1,0,2021-08-07 10:50:12,657831
0,-1,-1,4,3,1,0,0,2021-08-07 10:50:12,657831
-3,-3,-4,-3,-6,-4,-5,-4,2021-08-07 10:50:12,658795
-1,-3,0,1,-1,-1,1,0,2021-08-07 10:50:12,689889
0,-1,-3,-5,0,1,2,1,2021-08-07 10:50:12,689889
0,0,-1,-2,-5,-4,-4,0,2021-08-07 10:50:12,689889
-1,0,0,-1,2,-3,-6,-3,2021-08-07 10:50:12,689889
0,0,-1,2,3,-2,-3,-3,2021-08-07 10:50:12,689889
-1,-5,-7,-11,-12,-4,-3,-3,2021-08-07 10:50:12,689889
3,2,1,-6,-10,-1,1,2,2021-08-07 10:50:12,690831
-1,1,1,3,4,3,1,0,2021-08-07 10:50:12,690831
1,0,3,10,18,6,2,0,2021-08-07 10:50:12,721831
1,3,4,5,-1,-1,0,-1,2021-08-07 10:50:12,721831
-3,-3,-6,-6,-3,-3,-1,-3,2021-08-07 10:50:12,721831
-1,0,1,-8,-15,-5,0,0,2021-08-07 10:50:12,721831
-3,-2,-4,-1,-2,-1,-1,-1,2021-08-07 10:50:12,753838
-2,-2,-4,-2,1,-1,-2,-1,2021-08-07 10:50:12,753838
-3,-3,-3,-4,-5,-4,-3,-4,2021-08-07 10:50:12,753838
4,3,2,2,1,1,3,2,2021-08-07 10:50:12,753838
-1,-1,-3,-5,-2,1,0,0,2021-08-07 10:50:12,753838
0,-1,4,5,5,1,-3,-1,2021-08-07 10:50:12,753838
-1,-1,-2,-2,-1,-2,-2,-1,2021-08-07 10:50:12,753838
0,-2,-1,1,0,-1,0,0,2021-08-07 10:50:12,753838
1,1,2,7,11,4,3,1,2021-08-07 10:50:12,785820
-5,-3,-3,-2,-4,-3,-3,-2,2021-08-07 10:50:12,785820
-4,-4,-3,-2,-3,-1,-3,-3,2021-08-07 10:50:12,785820
0,0,-2,-4,-2,-1,0,1,2021-08-07 10:50:12,785820
1,0,2,5,-2,1,-1,2,2021-08-07 10:50:12,801791
0,-1,-3,-3,-3,-2,-2,-2,2021-08-07 10:50:12,801791
1,-2,2,0,3,0,3,1,2021-08-07 10:50:12,801791
-1,-1,0,0,-1,-1,-1,-1,2021-08-07 10:50:12,801791
0,-1,0,-1,-1,-2,-2,-1,2021-08-07 10:50:12,817794
0,-1,-1,1,0,-2,-1,-1,2021-08-07 10:50:12,833827
-2,0,1,5,4,2,0,1,2021-08-07 10:50:12,833827
-3,-5,-6,-6,-8,-1,-2,-4,2021-08-07 10:50:12,833827
-1,0,-2,-10,-4,-5,-3,-3,2021-08-07 10:50:12,833827
0,2,2,5,4,2,2,3,2021-08-07 10:50:12,833827
0,-2,-2,-2,5,1,0,-1,2021-08-07 10:50:12,834795
-2,0,1,6,8,2,-1,0,2021-08-07 10:50:12,834795
0,1,1,8,9,0,1,1,2021-08-07 10:50:12,865795
-1,-1,-3,-12,-9,-3,-2,-3,2021-08-07 10:50:12,881832
0,-2,1,3,0,-1,-2,-2,2021-08-07 10:50:12,897837
-3,-2,-6,-11,-11,-5,-3,-2,2021-08-07 10:50:12,913794
-2,-1,-1,-2,-8,-5,-1,-3,2021-08-07 10:50:12,929795
-1,-1,-3,-1,5,-1,0,0,2021-08-07 10:50:12,929795
0,1,3,4,2,0,-1,-1,2021-08-07 10:50:12,929795
-2,-2,-1,-1,2,-1,0,-2,2021-08-07 10:50:12,929795
-1,1,-2,0,-3,0,-1,-1,2021-08-07 10:50:12,929795
0,-1,3,1,-1,-1,-1,0,2021-08-07 10:50:12,930798
0,-1,-3,-3,-2,-2,-1,-2,2021-08-07 10:50:12,930798
-1,-2,-1,-3,-3,-3,-1,-2,2021-08-07 10:50:12,930798
-1,0,-2,-3,-2,-2,2,0,2021-08-07 10:50:12,930798
-3,-3,0,5,9,3,0,-1,2021-08-07 10:50:12,930798
1,2,0,-2,-3,-1,0,0,2021-08-07 10:50:12,930798
-1,0,-2,-4,-8,-3,-2,2,2021-08-07 10:50:12,930798
1,-1,1,4,6,0,-2,0,2021-08-07 10:50:12,930798
-2,-3,-3,-12,-7,-4,-3,-2,2021-08-07 10:50:12,930798
2,4,5,13,11,5,2,2,2021-08-07 10:50:12,930798
-2,-1,0,6,7,1,-2,-1,2021-08-07 10:50:12,930798
-2,-5,-5,-10,-7,-4,0,-3,2021-08-07 10:50:12,961832
-2,-2,-4,-5,-9,-4,-2,-3,2021-08-07 10:50:12,961832
-3,-4,-2,-4,-1,-3,-1,-3,2021-08-07 10:50:12,961832
1,1,2,-1,1,3,1,1,2021-08-07 10:50:12,961832
-1,-2,-2,-5,-8,-3,-3,-2,2021-08-07 10:50:12,993796
-1,-3,0,4,3,0,0,-1,2021-08-07 10:50:12,993796
0,-1,-4,-5,-3,-2,-1,1,2021-08-07 10:50:12,993796
1,2,1,5,5,2,2,1,2021-08-07 10:50:12,993796
-3,-3,-2,-2,-2,0,-3,0,2021-08-07 10:50:12,993796
-2,-1,-3,-4,-4,-2,-2,0,2021-08-07 10:50:12,993796
-2,-2,1,-2,-6,-3,-1,-3,2021-08-07 10:50:12,993796
-2,-4,-4,-8,-6,-2,-2,0,2021-08-07 10:50:12,993796
0,3,3,4,8,2,1,2,2021-08-07 10:50:13,024794
1,3,5,10,8,3,2,0,2021-08-07 10:50:13,024794
-4,-4,-5,-4,-4,-1,-2,-1,2021-08-07 10:50:13,024794
1,4,2,3,3,0,1,1,2021-08-07 10:50:13,024794
-2,-5,-5,-8,-13,-5,-4,-3,2021-08-07 10:50:13,040819
0,0,-2,-5,-4,-1,-1,1,2021-08-07 10:50:13,040819
0,0,-1,0,-3,-2,-1,-2,2021-08-07 10:50:13,040819
-2,-2,-1,-2,-5,-3,-2,-2,2021-08-07 10:50:13,056794
1,1,2,4,6,2,-2,2,2021-08-07 10:50:13,056794
1,2,2,7,22,10,4,1,2021-08-07 10:50:13,056794
0,-1,0,6,-1,-1,0,-2,2021-08-07 10:50:13,072794
1,0,0,-4,-3,0,0,0,2021-08-07 10:50:13,072794
-1,-1,-1,-5,-5,-3,0,-1,2021-08-07 10:50:13,072794
0,0,0,0,-11,-6,-2,-1,2021-08-07 10:50:13,072794
-2,-3,-4,-5,0,-2,-1,-1,2021-08-07 10:50:13,072794
0,0,0,6,12,5,3,-1,2021-08-07 10:50:13,072794
-2,-1,-2,-1,-4,-1,-1,-1,2021-08-07 10:50:13,098819
-1,0,-2,-5,-7,-3,0,-3,2021-08-07 10:50:13,099794
0,0,1,0,1,1,1,-1,2021-08-07 10:50:13,099794
-5,-6,-7,-6,-11,-8,-3,-5,2021-08-07 10:50:13,099794
4,6,5,1,4,3,2,3,2021-08-07 10:50:13,120820
0,0,0,0,-1,-1,0,-1,2021-08-07 10:50:13,120820
-1,0,-1,-1,1,-1,-1,0,2021-08-07 10:50:13,120820
-1,-1,-2,4,5,0,0,1,2021-08-07 10:50:13,120820
-4,-5,-4,-6,-7,-3,0,-4,2021-08-07 10:50:13,136794
-1,-1,-1,3,2,-1,0,-1,2021-08-07 10:50:13,136794
0,0,-2,-7,-5,-1,-1,1,2021-08-07 10:50:13,136794
-3,-5,-3,-5,-7,-1,-2,-2,2021-08-07 10:50:13,136794
-3,-4,-2,3,5,3,-2,-1,2021-08-07 10:50:13,168794
0,0,1,-2,-7,-3,-3,0,2021-08-07 10:50:13,168794
-1,-2,-3,-9,-9,-4,-2,-2,2021-08-07 10:50:13,168794
0,0,1,4,-2,-2,0,0,2021-08-07 10:50:13,168794
0,-2,0,3,10,3,0,-1,2021-08-07 10:50:13,184820
0,0,1,2,-3,-2,0,1,2021-08-07 10:50:13,184820
0,2,0,-1,6,3,0,-1,2021-08-07 10:50:13,184820
-1,-1,0,2,3,-2,-3,0,2021-08-07 10:50:13,184820
0,-1,-2,-5,-4,-3,0,2,2021-08-07 10:50:13,216793
-1,-2,-1,-4,-2,-1,0,-1,2021-08-07 10:50:13,216793
-3,-3,-3,-3,-12,-4,-5,-3,2021-08-07 10:50:13,216793
2,1,4,3,9,4,2,0,2021-08-07 10:50:13,216793
-2,0,-3,-2,-7,-2,-3,-3,2021-08-07 10:50:13,216793
-1,-4,-2,-2,2,2,-1,0,2021-08-07 10:50:13,216793
-1,-2,-5,-6,-9,-2,-2,0,2021-08-07 10:50:13,216793
-2,-1,0,0,0,-3,-4,-3,2021-08-07 10:50:13,217793
-1,-1,2,4,8,2,0,-2,2021-08-07 10:50:13,248794
-5,-5,-5,-4,-8,-3,-4,-3,2021-08-07 10:50:13,248794
3,3,1,0,0,2,3,2,2021-08-07 10:50:13,248794
1,1,0,0,-1,1,1,2,2021-08-07 10:50:13,248794
3,-1,-4,-6,-6,3,7,4,2021-08-07 10:50:13,264832
4,7,5,8,11,8,4,2,2021-08-07 10:50:13,264832
-5,-3,0,9,7,-8,-12,-7,2021-08-07 10:50:13,264832
-5,-4,-3,-5,-5,-9,-8,-6,2021-08-07 10:50:13,264832
-2,0,1,0,-4,-4,-2,-4,2021-08-07 10:50:13,280797
-2,-3,-3,-10,-6,-3,0,-1,2021-08-07 10:50:13,296795
2,0,2,7,9,8,9,3,2021-08-07 10:50:13,296795
1,2,-1,-5,-6,-1,-1,0,2021-08-07 10:50:13,296795
-4,-4,-4,-6,-7,-3,-3,-3,2021-08-07 10:50:13,296795
-1,-3,-1,1,5,-5,-5,-2,2021-08-07 10:50:13,296795
0,2,4,6,7,2,0,0,2021-08-07 10:50:13,312793
3,2,0,0,6,5,4,4,2021-08-07 10:50:13,312793
1,1,0,0,-2,-1,0,2,2021-08-07 10:50:13,312793
0,-1,-5,-5,-10,-5,-1,-2,2021-08-07 10:50:13,312793
-3,-5,-8,-9,-5,-2,-1,0,2021-08-07 10:50:13,328821
-2,-3,-3,1,-2,3,3,-1,2021-08-07 10:50:13,328821
-1,1,1,3,5,2,-1,-1,2021-08-07 10:50:13,344831
-3,3,2,-2,-9,-5,-4,-4,2021-08-07 10:50:13,360796
-5,-3,-3,-3,2,0,-3,-2,2021-08-07 10:50:13,375821
4,6,6,6,4,3,1,4,2021-08-07 10:50:13,375821
0,-2,-1,0,1,-2,-3,-2,2021-08-07 10:50:13,375821
-2,-3,-3,-1,-3,-3,-4,-2,2021-08-07 10:50:13,375821
0,-1,0,1,-3,0,1,2,2021-08-07 10:50:13,375821
-3,-4,-5,-4,-3,-3,-1,-2,2021-08-07 10:50:13,375821
2,3,2,-3,-2,0,0,2,2021-08-07 10:50:13,376792
1,1,-2,-2,-4,-2,1,1,2021-08-07 10:50:13,376792
0,1,1,1,0,-1,-2,-2,2021-08-07 10:50:13,376792
-4,-1,-1,0,3,-1,-3,-2,2021-08-07 10:50:13,391836
-1,-1,0,1,0,-1,0,0,2021-08-07 10:50:13,407831
-2,-2,0,1,7,2,-1,-2,2021-08-07 10:50:13,407831
-2,0,-2,-5,-4,-4,-2,0,2021-08-07 10:50:13,407831
-2,-3,-5,-11,-11,-4,-3,-2,2021-08-07 10:50:13,407831
-3,-2,3,8,10,2,-2,-1,2021-08-07 10:50:13,423830
2,1,2,3,4,3,2,2,2021-08-07 10:50:13,423830
-1,-1,-1,-12,-9,-2,-1,-1,2021-08-07 10:50:13,423830
-3,-2,3,14,14,2,1,0,2021-08-07 10:50:13,423830
-1,-1,-5,-7,-7,-3,-2,-1,2021-08-07 10:50:13,439832
-1,-1,-1,-1,-4,-1,-1,-1,2021-08-07 10:50:13,439832
1,0,1,4,8,3,0,-1,2021-08-07 10:50:13,439832
-2,0,-2,-9,-11,-5,-1,0,2021-08-07 10:50:13,439832
-4,-1,-1,-1,-2,-3,-3,-1,2021-08-07 10:50:13,471793
-3,-3,-3,-1,0,-3,-3,-3,2021-08-07 10:50:13,471793
0,-1,-3,-10,-9,-4,-1,-2,2021-08-07 10:50:13,471793
1,1,3,2,0,0,1,0,2021-08-07 10:50:13,471793
0,-1,0,-1,-2,-1,-2,-3,2021-08-07 10:50:13,471793
-2,0,-1,-1,2,2,0,1,2021-08-07 10:50:13,471793
-3,0,-1,1,-1,-4,-1,-2,2021-08-07 10:50:13,486831
1,1,-1,2,4,3,-2,0,2021-08-07 10:50:13,486831
-1,0,-1,-2,-6,-3,-1,-1,2021-08-07 10:50:13,502795
-2,-3,-2,-4,-5,-1,-3,-2,2021-08-07 10:50:13,502795
0,2,2,5,4,1,2,-1,2021-08-07 10:50:13,502795
-2,-2,-3,-5,-4,-3,-2,-2,2021-08-07 10:50:13,502795
-1,-2,-3,-5,-5,-2,-1,-1,2021-08-07 10:50:13,534820
0,0,0,0,-1,0,0,-1,2021-08-07 10:50:13,534820
-1,-1,0,-1,-2,-2,-2,-2,2021-08-07 10:50:13,534820
-3,-2,-4,-19,-18,-6,-4,-1,2021-08-07 10:50:13,534820
3,3,7,28,35,14,5,2,2021-08-07 10:50:13,534820
0,-1,1,0,0,0,-2,-1,2021-08-07 10:50:13,534820
0,-1,0,1,1,0,-2,0,2021-08-07 10:50:13,550819
-1,-1,-3,-5,-7,-3,-1,-1,2021-08-07 10:50:13,566794
-3,-3,-6,-13,-16,-8,-4,-2,2021-08-07 10:50:13,582830
-1,0,0,-5,0,1,1,0,2021-08-07 10:50:13,598832
1,-1,1,9,2,1,0,0,2021-08-07 10:50:13,598832
0,-2,-1,1,2,0,1,-2,2021-08-07 10:50:13,598832
-1,-2,-2,-1,-3,-1,-1,0,2021-08-07 10:50:13,598832
0,-1,-2,-3,-3,0,-1,-1,2021-08-07 10:50:13,598832
0,0,-2,-9,-11,-5,-2,-1,2021-08-07 10:50:13,598832
-1,-1,1,3,4,3,-1,0,2021-08-07 10:50:13,599795
-1,-1,-4,-10,-6,-5,-2,-3,2021-08-07 10:50:13,599795
-3,-1,0,6,4,-1,-2,-2,2021-08-07 10:50:13,599795
1,1,5,5,6,4,1,1,2021-08-07 10:50:13,599795
0,-1,-2,1,1,-1,0,-1,2021-08-07 10:50:13,599795
-3,-3,-6,-13,-14,-7,-1,-2,2021-08-07 10:50:13,629796
-2,-1,0,5,1,-1,-2,-2,2021-08-07 10:50:13,644834
1,2,3,6,6,2,1,2,2021-08-07 10:50:13,660796
-1,-2,-2,-3,-3,-2,-1,-2,2021-08-07 10:50:13,660796
-1,-2,-2,-1,-2,0,-2,-1,2021-08-07 10:50:13,660796
0,-1,-3,-7,-3,-4,-1,0,2021-08-07 10:50:13,660796
-1,-2,-3,-3,-5,-1,-2,-1,2021-08-07 10:50:13,660796
0,0,1,6,5,2,0,1,2021-08-07 10:50:13,660796
1,2,3,5,8,3,0,0,2021-08-07 10:50:13,660796
-3,-2,-1,-2,0,1,-1,-1,2021-08-07 10:50:13,660796
-3,-2,-4,-7,-2,-2,-2,-2,2021-08-07 10:50:13,660796
0,0,0,-1,-4,-3,-1,-1,2021-08-07 10:50:13,661831
0,0,-1,-4,-5,-4,-1,-1,2021-08-07 10:50:13,691849
1,-1,0,2,0,0,0,1,2021-08-07 10:50:13,707841
-4,-2,-4,-6,-6,-5,-4,-2,2021-08-07 10:50:13,723820
1,1,2,6,7,5,0,1,2021-08-07 10:50:13,723820
0,2,2,4,1,3,1,0,2021-08-07 10:50:13,723820
0,-1,-3,-7,-8,-3,-1,-1,2021-08-07 10:50:13,723820
-2,-1,-1,1,-5,-4,0,-1,2021-08-07 10:50:13,723820
-1,-2,-4,-6,3,0,-1,0,2021-08-07 10:50:13,723820
0,0,0,2,1,-1,0,1,2021-08-07 10:50:13,723820
-1,0,0,-1,-3,-2,-2,1,2021-08-07 10:50:13,723820
-2,-3,-1,-4,0,0,-1,-1,2021-08-07 10:50:13,724829
-1,-1,-2,0,0,-2,-1,-2,2021-08-07 10:50:13,724829
-2,-2,-4,0,-2,-3,-3,-1,2021-08-07 10:50:13,738830
-2,-1,-1,-2,-11,-5,-2,0,2021-08-07 10:50:13,754822
3,1,1,10,21,8,2,2,2021-08-07 10:50:13,786183
-2,-1,-1,-5,-8,-4,-2,-2,2021-08-07 10:50:13,786183
0,-2,0,1,6,1,-1,0,2021-08-07 10:50:13,802233
-1,0,1,8,4,0,1,-1,2021-08-07 10:50:13,818198
0,-1,-3,-3,-8,-2,-2,0,2021-08-07 10:50:13,834185
0,-2,0,0,-1,-2,0,-1,2021-08-07 10:50:13,834185
-2,-4,-3,-7,-10,-4,-2,-3,2021-08-07 10:50:13,850187
-3,-6,-4,-9,-8,-6,-4,-5,2021-08-07 10:50:13,866228
2,4,6,11,7,4,3,3,2021-08-07 10:50:13,882225
-2,-2,-3,-2,-7,-2,-2,-1,2021-08-07 10:50:13,882225
0,3,4,11,13,7,1,1,2021-08-07 10:50:13,882225
0,1,-1,-3,-2,0,-1,0,2021-08-07 10:50:13,882225
-3,-4,-5,-9,-8,-4,-2,-5,2021-08-07 10:50:13,882225
-1,-1,0,3,1,-2,1,-1,2021-08-07 10:50:13,882225
-2,-4,-1,-3,-7,-3,-1,-1,2021-08-07 10:50:13,882225
-3,-3,-4,2,3,1,-2,-2,2021-08-07 10:50:13,882225
0,-2,-2,-5,-2,0,-1,0,2021-08-07 10:50:13,882225
1,1,1,-1,-1,0,-1,1,2021-08-07 10:50:13,882225
-2,-3,-3,-6,-6,-2,-2,-4,2021-08-07 10:50:13,883226
1,2,2,3,3,2,0,1,2021-08-07 10:50:13,883226
-4,-3,-3,-3,-2,-1,-1,-2,2021-08-07 10:50:13,883226
1,0,-1,-6,-2,0,-2,-1,2021-08-07 10:50:13,883226
2,4,4,6,7,5,2,2,2021-08-07 10:50:13,883226
-2,-4,-4,-6,-3,-3,-3,-2,2021-08-07 10:50:13,883226
-2,-1,2,1,-4,0,-1,-1,2021-08-07 10:50:13,898188
-1,-2,-1,5,7,2,0,0,2021-08-07 10:50:13,898188
-3,-2,-4,-2,-2,-2,-2,-1,2021-08-07 10:50:13,898188
3,3,2,-3,-1,0,2,4,2021-08-07 10:50:13,898188
-1,-2,-6,-3,-8,-5,-3,-2,2021-08-07 10:50:13,898188
-3,-1,-2,-2,1,-2,1,-2,2021-08-07 10:50:13,898188
1,-1,-1,-6,-9,-4,1,1,2021-08-07 10:50:13,899189
-2,-2,0,-4,-1,-3,-3,-3,2021-08-07 10:50:13,899189
2,1,3,6,7,5,3,2,2021-08-07 10:50:13,899189
-1,1,-2,0,-3,2,0,-1,2021-08-07 10:50:13,899189
-1,-3,-1,-1,1,-3,-4,-1,2021-08-07 10:50:13,930186
-2,-1,-2,1,-1,-4,-4,-2,2021-08-07 10:50:13,930186
-3,-4,-3,-4,-3,-5,-5,-3,2021-08-07 10:50:13,930186
1,-1,-1,0,-3,-3,-1,-1,2021-08-07 10:50:13,930186
0,1,2,4,8,8,5,2,2021-08-07 10:50:13,946222
-1,-4,-5,-5,-8,-2,0,0,2021-08-07 10:50:13,946222
0,0,2,1,3,3,1,1,2021-08-07 10:50:13,946222
2,2,6,15,10,6,3,2,2021-08-07 10:50:13,946222
-2,0,-1,3,-1,-3,-4,-3,2021-08-07 10:50:13,962223
-1,1,2,4,5,-1,-2,-2,2021-08-07 10:50:13,962223
-1,-2,-5,-7,-7,-4,-1,-2,2021-08-07 10:50:13,962223
-3,-2,-4,-12,-13,-6,-2,-1,2021-08-07 10:50:13,962223
-3,-4,0,1,1,1,-1,-1,2021-08-07 10:50:13,978187
1,1,-3,-4,-3,0,0,1,2021-08-07 10:50:13,994471
0,1,0,-3,-4,-1,-2,-1,2021-08-07 10:50:14,010188
-1,0,2,4,6,-2,-3,-1,2021-08-07 10:50:14,010188
1,1,-3,-8,-9,-2,3,0,2021-08-07 10:50:14,010188
-1,-1,1,12,9,4,0,-2,2021-08-07 10:50:14,010188
0,-1,0,-6,-6,-5,-3,-1,2021-08-07 10:50:14,010188
0,0,2,8,12,4,1,0,2021-08-07 10:50:14,010188
-3,-1,-2,-2,4,-2,-1,-2,2021-08-07 10:50:14,026232
-1,-2,0,0,0,2,1,0,2021-08-07 10:50:14,042209
0,0,0,4,2,-1,1,-1,2021-08-07 10:50:14,058222
-2,-4,-5,-9,-9,-5,-4,-3,2021-08-07 10:50:14,058222
-1,-3,-2,-7,-12,-5,-2,-2,2021-08-07 10:50:14,058222
2,2,1,0,6,6,3,2,2021-08-07 10:50:14,058222
-1,-2,1,11,7,1,-1,-1,2021-08-07 10:50:14,073221
0,-3,-3,-7,-9,-4,-1,0,2021-08-07 10:50:14,089187
-1,0,0,-1,0,0,-3,-1,2021-08-07 10:50:14,089187
-1,-2,-1,1,-3,-2,-2,-2,2021-08-07 10:50:14,089187
-1,-1,-1,-2,-1,0,0,-1,2021-08-07 10:50:14,089187
-2,0,-1,-3,-3,-2,-3,-1,2021-08-07 10:50:14,089187
-2,-3,-6,-6,-12,-6,-4,-1,2021-08-07 10:50:14,090186
-1,-1,-3,-8,-1,-2,0,-1,2021-08-07 10:50:14,090186
-1,1,1,8,11,3,2,1,2021-08-07 10:50:14,090186
-2,1,-1,-4,-9,-1,-1,-1,2021-08-07 10:50:14,090186
3,1,3,11,17,6,0,1,2021-08-07 10:50:14,105210
-4,-4,-6,-11,-12,-6,-3,-2,2021-08-07 10:50:14,105210
-1,-2,-1,-8,-5,-1,0,0,2021-08-07 10:50:14,105210
2,4,2,1,4,1,2,3,2021-08-07 10:50:14,105210
-1,1,2,7,-2,-2,1,-1,2021-08-07 10:50:14,121222
1,1,4,14,12,7,5,1,2021-08-07 10:50:14,121222
-2,-4,-3,-2,-1,-3,-4,-3,2021-08-07 10:50:14,121222
-4,-3,-4,-8,-10,-5,-3,-5,2021-08-07 10:50:14,121222
-3,-2,-1,-1,1,1,-2,-4,2021-08-07 10:50:14,153187
-3,-2,-2,-6,-5,-3,-3,-3,2021-08-07 10:50:14,153187
-1,2,3,8,1,-1,-1,-1,2021-08-07 10:50:14,169186
0,0,-1,0,-1,-3,0,1,2021-08-07 10:50:14,169186
-1,-1,-4,-12,-9,-5,-2,0,2021-08-07 10:50:14,169186
1,-1,-1,2,0,-2,1,1,2021-08-07 10:50:14,169186
-1,0,-1,-1,-4,-1,-1,0,2021-08-07 10:50:14,185186
0,0,-3,-1,1,3,0,1,2021-08-07 10:50:14,201221
0,-3,-2,-2,2,1,1,1,2021-08-07 10:50:14,217232
1,1,2,6,7,4,1,-1,2021-08-07 10:50:14,233221
0,-2,-1,-5,-3,-2,-1,-2,2021-08-07 10:50:14,249185
-2,-2,-2,-2,-2,-1,-2,-4,2021-08-07 10:50:14,249185
-2,-1,0,-2,-5,-1,-2,-3,2021-08-07 10:50:14,249185
-1,-1,0,0,1,-1,-2,-2,2021-08-07 10:50:14,249185
-1,-2,-5,-12,-6,-2,0,1,2021-08-07 10:50:14,250187
-2,-1,2,3,-8,-6,-3,-2,2021-08-07 10:50:14,250187
3,3,4,9,17,9,3,2,2021-08-07 10:50:14,250187
-2,-1,-3,-9,-8,-4,-2,-1,2021-08-07 10:50:14,250187
1,1,6,25,22,8,2,1,2021-08-07 10:50:14,250187
-1,-1,-4,-9,-9,-4,-2,-2,2021-08-07 10:50:14,250187
-3,-3,-3,-4,-9,-4,-3,-1,2021-08-07 10:50:14,250187
-5,-2,-5,-13,-16,-6,-5,-4,2021-08-07 10:50:14,250187
-1,-1,-3,-4,-5,1,0,0,2021-08-07 10:50:14,250187
3,0,2,9,19,8,2,3,2021-08-07 10:50:14,251184
1,-2,-1,1,-5,-4,2,-1,2021-08-07 10:50:14,265221
-1,-1,-1,0,4,4,1,-1,2021-08-07 10:50:14,281222
1,2,-1,-8,-11,-5,-2,0,2021-08-07 10:50:14,297211
3,3,4,13,10,4,0,2,2021-08-07 10:50:14,297211
-2,-2,-1,-2,-1,-3,-2,-1,2021-08-07 10:50:14,297211
-4,-7,-5,-4,-3,-3,-3,-2,2021-08-07 10:50:14,297211
1,1,0,-5,-4,-3,0,-1,2021-08-07 10:50:14,297211
-2,0,1,-6,-3,1,0,-1,2021-08-07 10:50:14,297211
0,0,-4,-5,-1,-3,-1,2,2021-08-07 10:50:14,298218
5,3,2,3,-3,-2,-1,0,2021-08-07 10:50:14,298218
-2,-3,-5,-5,-2,-1,-1,-2,2021-08-07 10:50:14,298218
-1,-2,0,5,8,4,1,1,2021-08-07 10:50:14,298218
-7,-4,-4,-6,-12,-12,-11,-5,2021-08-07 10:50:14,327186
-2,-5,-2,-4,-1,-4,-3,-4,2021-08-07 10:50:14,343190
-1,3,3,5,5,2,0,2,2021-08-07 10:50:14,343190
-2,-4,-5,-11,-10,-4,0,-2,2021-08-07 10:50:14,343190
1,0,1,3,1,4,4,2,2021-08-07 10:50:14,343190
-2,0,-1,2,1,-1,-1,-2,2021-08-07 10:50:14,344186
-4,-4,-4,-7,-5,-3,-3,-3,2021-08-07 10:50:14,344186
0,-1,-1,-2,2,1,-1,-1,2021-08-07 10:50:14,344186
2,0,3,6,4,4,2,0,2021-08-07 10:50:14,375211
-6,-6,-5,-8,-15,-10,-7,-4,2021-08-07 10:50:14,391186
5,6,7,11,18,10,4,3,2021-08-07 10:50:14,391186
1,0,1,4,6,0,1,0,2021-08-07 10:50:14,391186
-1,-2,-2,-4,-2,-1,-1,-2,2021-08-07 10:50:14,391186
1,2,2,0,-1,1,1,-1,2021-08-07 10:50:14,391186
-5,-6,-9,-20,-24,-11,-5,-6,2021-08-07 10:50:14,391186
-2,-4,-1,2,5,-1,-2,-3,2021-08-07 10:50:14,391186
0,0,2,9,5,1,2,0,2021-08-07 10:50:14,392230
2,5,2,0,4,4,4,3,2021-08-07 10:50:14,392230
0,-1,-2,-4,-6,-2,-1,0,2021-08-07 10:50:14,406233
2,3,4,10,14,4,1,1,2021-08-07 10:50:14,406233
-4,-6,-4,-7,-5,-5,-5,-2,2021-08-07 10:50:14,422223
-2,-3,-1,4,5,0,-2,-2,2021-08-07 10:50:14,438191
-3,-5,-11,-25,-21,-10,-4,-2,2021-08-07 10:50:14,438191
1,3,6,10,3,5,2,1,2021-08-07 10:50:14,438191
0,-2,-2,0,2,1,-1,-3,2021-08-07 10:50:14,438191
-2,-3,-3,-5,-3,-2,-3,0,2021-08-07 10:50:14,438191
0,0,0,5,0,-1,-2,1,2021-08-07 10:50:14,453221
-3,-3,-5,-5,-4,-3,-4,-1,2021-08-07 10:50:14,469221
0,3,0,0,-2,-2,0,1,2021-08-07 10:50:14,469221
5,5,5,5,2,1,3,3,2021-08-07 10:50:14,469221
-2,-4,-4,-1,2,-1,-2,-2,2021-08-07 10:50:14,469221
-4,-6,-6,-4,-4,-1,-1,-3,2021-08-07 10:50:14,469221
0,0,-1,-4,-6,-2,0,2,2021-08-07 10:50:14,485212
0,2,0,-1,1,0,-1,0,2021-08-07 10:50:14,485212
-3,-3,-1,5,8,1,0,-5,2021-08-07 10:50:14,485212
1,1,0,-7,-7,-4,-1,2,2021-08-07 10:50:14,485212
0,-1,0,2,6,2,1,-3,2021-08-07 10:50:14,517222
-1,-3,-2,-2,-3,-1,1,0,2021-08-07 10:50:14,533184
4,3,6,8,6,2,2,2,2021-08-07 10:50:14,533184
-6,-6,-10,-17,-19,-10,-7,-6,2021-08-07 10:50:14,533184
-2,2,1,5,-3,0,0,2,2021-08-07 10:50:14,533184
2,4,5,15,24,10,4,1,2021-08-07 10:50:14,533184
-1,0,-1,2,3,1,-1,-2,2021-08-07 10:50:14,533184
-3,-5,-4,-4,-3,-3,-2,-3,2021-08-07 10:50:14,533184
2,4,-2,-10,-9,-2,0,3,2021-08-07 10:50:14,549185
-1,0,1,3,-4,-3,-1,-3,2021-08-07 10:50:14,549185
-2,-2,1,-2,-3,-1,-2,-2,2021-08-07 10:50:14,549185
-3,-5,-5,-6,-6,-4,-2,-4,2021-08-07 10:50:14,549185
4,6,5,-3,2,3,2,3,2021-08-07 10:50:14,565223
1,1,4,17,19,8,3,1,2021-08-07 10:50:14,565223
0,-1,-1,2,4,0,1,-1,2021-08-07 10:50:14,565223
-4,-5,-4,-8,-10,-6,-4,-3,2021-08-07 10:50:14,565223
-2,-4,0,-4,-5,-3,-2,-1,2021-08-07 10:50:14,596222
2,3,2,8,11,2,1,1,2021-08-07 10:50:14,612210
1,0,0,-4,-1,1,-1,0,2021-08-07 10:50:14,612210
-1,1,0,5,-1,1,-1,0,2021-08-07 10:50:14,612210
-4,-4,-3,3,-3,-2,-2,-3,2021-08-07 10:50:14,612210
-4,-5,-7,-20,-19,-8,-4,-1,2021-08-07 10:50:14,612210
3,5,7,24,21,8,4,2,2021-08-07 10:50:14,612210
-2,-1,-3,-7,-6,-3,-1,-1,2021-08-07 10:50:14,612210
-2,-2,-4,-2,1,0,-3,-1,2021-08-07 10:50:14,628206
-2,-1,-3,-8,-11,-3,0,-2,2021-08-07 10:50:14,628206
-1,-1,-4,-13,-13,-6,-2,-2,2021-08-07 10:50:14,628206
0,2,-1,2,2,0,-1,0,2021-08-07 10:50:14,628206
-1,-1,1,6,5,3,1,-3,2021-08-07 10:50:14,659210
1,-1,0,7,3,2,0,0,2021-08-07 10:50:14,659210
-5,-3,-5,-9,-14,-6,-4,-4,2021-08-07 10:50:14,659210
4,1,5,9,16,7,4,4,2021-08-07 10:50:14,659210
1,0,0,8,16,4,1,0,2021-08-07 10:50:14,659210
-4,-4,-5,-14,-12,-5,-5,-4,2021-08-07 10:50:14,659210
1,-1,4,10,10,4,-1,0,2021-08-07 10:50:14,675211
-2,0,-2,-6,-17,-9,-3,-1,2021-08-07 10:50:14,675211
-3,-6,-7,0,8,6,3,0,2021-08-07 10:50:14,691221
2,-2,-1,-1,6,2,2,4,2021-08-07 10:50:14,691221
-5,-4,-6,-13,-17,-14,-10,-7,2021-08-07 10:50:14,691221
-1,2,1,-10,-6,-5,-2,-2,2021-08-07 10:50:14,691221
3,2,-1,-4,-2,4,6,4,2021-08-07 10:50:14,707222
0,-1,-6,-3,-4,2,1,1,2021-08-07 10:50:14,707222
-6,-8,-5,0,-2,-6,-7,-4,2021-08-07 10:50:14,707222
-5,-2,-2,-13,-9,-7,-4,-6,2021-08-07 10:50:14,707222
4,5,12,13,11,1,1,-1,2021-08-07 10:50:14,723226
1,-1,-5,-1,-2,-2,2,0,2021-08-07 10:50:14,723226
-1,1,-6,-2,2,3,3,2,2021-08-07 10:50:14,723226
-3,-9,-10,-10,-14,-6,-2,-3,2021-08-07 10:50:14,723226
-4,-4,-8,-22,-24,-12,-6,-4,2021-08-07 10:50:14,755221
7,10,20,41,53,21,9,4,2021-08-07 10:50:14,770221
0,1,0,-4,-12,-6,-2,-2,2021-08-07 10:50:14,770221
1,1,2,2,-5,1,1,0,2021-08-07 10:50:14,770221
-2,-1,-1,7,22,7,0,-2,2021-08-07 10:50:14,770221
-2,-3,-3,-16,-30,-13,-6,-3,2021-08-07 10:50:14,770221
1,5,4,16,24,11,5,1,2021-08-07 10:50:14,770221
2,0,-1,2,-3,-3,1,-1,2021-08-07 10:50:14,770221
-4,-4,-6,-18,-21,-9,-4,-2,2021-08-07 10:50:14,785185
-6,-4,-3,-3,-10,-7,-6,-5,2021-08-07 10:50:14,785185
0,-1,0,-5,-3,1,0,0,2021-08-07 10:50:14,785185
3,5,3,2,-4,1,-2,2,2021-08-07 10:50:14,785185
-2,-3,1,15,16,6,1,0,2021-08-07 10:50:14,816183
0,4,1,-9,-7,-4,-1,2,2021-08-07 10:50:14,816183
-3,-3,-4,-11,-12,-4,-2,-1,2021-08-07 10:50:14,816183
0,0,2,14,14,4,1,-2,2021-08-07 10:50:14,816183
-1,1,0,-1,5,-1,-1,0,2021-08-07 10:50:14,831185
-7,-8,-7,-13,-20,-9,-6,-7,2021-08-07 10:50:14,831185
1,0,5,10,13,5,1,0,2021-08-07 10:50:14,831185
0,1,0,-2,2,1,0,0,2021-08-07 10:50:14,832222
0,2,0,0,1,1,0,0,2021-08-07 10:50:14,847232
-5,-6,-11,-15,-24,-11,-4,-3,2021-08-07 10:50:14,847232
1,3,1,6,17,7,4,2,2021-08-07 10:50:14,847232
0,0,3,8,20,9,3,1,2021-08-07 10:50:14,847232
-1,-3,-6,-6,-17,-9,-4,-2,2021-08-07 10:50:14,863224
3,5,8,10,7,3,1,1,2021-08-07 10:50:14,863224
-3,-5,-6,-12,-16,-7,-4,-3,2021-08-07 10:50:14,863224
3,1,2,3,2,1,1,1,2021-08-07 10:50:14,863224
-7,-5,-4,-9,-20,-11,-5,-5,2021-08-07 10:50:14,894184
0,-2,-4,-16,1,2,0,1,2021-08-07 10:50:14,909212
0,1,1,9,9,3,2,1,2021-08-07 10:50:14,909212
1,0,3,9,1,-1,1,0,2021-08-07 10:50:14,909212
0,0,2,3,2,0,-1,-2,2021-08-07 10:50:14,909212
0,2,2,-5,-5,-5,-2,-1,2021-08-07 10:50:14,909212
-4,-7,-13,-17,-17,-6,-1,-2,2021-08-07 10:50:14,909212
2,0,-1,-1,5,0,0,1,2021-08-07 10:50:14,909212
0,-2,-5,-5,-5,2,0,1,2021-08-07 10:50:14,925235
-4,-5,0,15,20,6,-1,-3,2021-08-07 10:50:14,925235
-4,-2,1,-9,-16,-8,-4,-4,2021-08-07 10:50:14,925235
-5,-3,-4,4,-1,-1,-4,-2,2021-08-07 10:50:14,925235
4,6,8,9,-2,0,0,0,2021-08-07 10:50:14,957211
-3,-1,2,7,16,3,-3,-4,2021-08-07 10:50:14,973213
1,2,5,5,8,2,0,1,2021-08-07 10:50:14,973213
-4,-6,-11,-20,-23,-11,-6,-5,2021-08-07 10:50:14,973213
-1,0,1,4,-3,-3,-1,-1,2021-08-07 10:50:14,973213
3,1,-2,3,12,6,3,4,2021-08-07 10:50:14,973213
0,0,-1,-9,-11,-5,-2,-1,2021-08-07 10:50:14,973213
3,2,2,7,21,11,3,2,2021-08-07 10:50:14,973213
-3,-3,0,-1,-1,-2,-1,-3,2021-08-07 10:50:14,989186
-1,-3,-4,-7,-12,-3,-1,-2,2021-08-07 10:50:15,005213
-2,-4,-3,-3,-4,-3,-1,-3,2021-08-07 10:50:15,005213
-1,0,0,-8,-7,-2,-2,1,2021-08-07 10:50:15,005213
0,-1,1,9,6,2,1,0,2021-08-07 10:50:15,005213
-1,1,-1,4,3,1,-1,-2,2021-08-07 10:50:15,005213
5,4,5,5,3,3,2,2,2021-08-07 10:50:15,005213
-3,-2,-2,-4,-7,-2,-2,-4,2021-08-07 10:50:15,005213
-4,-4,-6,-10,-6,-3,-3,-3,2021-08-07 10:50:15,020186
-3,-4,-7,-18,-25,-13,-6,-3,2021-08-07 10:50:15,036210
1,2,1,7,22,13,4,2,2021-08-07 10:50:15,036210
0,2,2,7,9,1,1,0,2021-08-07 10:50:15,036210
-3,-3,-6,-16,-29,-14,-7,-5,2021-08-07 10:50:15,052223
-1,-3,-1,5,10,2,0,-2,2021-08-07 10:50:15,067186
0,0,-2,0,-4,-3,-2,-2,2021-08-07 10:50:15,067186
-2,-1,1,0,2,0,-1,0,2021-08-07 10:50:15,067186
-1,2,2,8,19,8,2,1,2021-08-07 10:50:15,083186
-3,-2,-5,-12,-24,-10,-5,-2,2021-08-07 10:50:15,083186
-4,-2,-3,-4,-10,-4,-3,0,2021-08-07 10:50:15,083186
-1,-2,-3,-3,4,2,-1,-1,2021-08-07 10:50:15,083186
4,3,5,11,9,4,2,2,2021-08-07 10:50:15,083186
3,2,3,5,5,3,3,1,2021-08-07 10:50:15,083186
0,-3,-3,-3,-11,-3,-1,-1,2021-08-07 10:50:15,083186
-2,-2,3,9,13,4,0,-1,2021-08-07 10:50:15,084221
5,4,-1,-5,-6,-1,1,5,2021-08-07 10:50:15,115222
-3,0,-2,0,2,0,1,1,2021-08-07 10:50:15,115222
-3,-2,-2,-5,-2,-4,-1,-2,2021-08-07 10:50:15,115222
-4,-3,-2,-3,-13,-7,-2,-2,2021-08-07 10:50:15,115222
-5,-5,-5,-4,1,-1,-4,-4,2021-08-07 10:50:15,131223
0,1,1,1,-1,0,0,-1,2021-08-07 10:50:15,147229
2,2,0,-6,-4,-2,0,2,2021-08-07 10:50:15,147229
1,1,0,-4,-5,-1,1,-1,2021-08-07 10:50:15,147229
-3,-1,1,-5,9,3,0,0,2021-08-07 10:50:15,147229
-2,1,3,10,-3,-2,-2,1,2021-08-07 10:50:15,147229
-3,-6,-8,6,4,2,1,-3,2021-08-07 10:50:15,147229
-1,-1,-3,2,8,0,-1,-1,2021-08-07 10:50:15,163222
3,3,0,0,-1,-1,1,1,2021-08-07 10:50:15,163222
-1,1,-1,-11,-8,-2,1,-2,2021-08-07 10:50:15,163222
-2,-2,-3,-6,-5,-5,-4,-2,2021-08-07 10:50:15,163222
-4,-3,-4,-14,-29,-11,-3,-2,2021-08-07 10:50:15,163222
1,1,3,11,19,8,2,1,2021-08-07 10:50:15,195182
2,3,8,15,22,8,3,3,2021-08-07 10:50:15,211222
0,-2,-4,-3,-9,-3,-1,-1,2021-08-07 10:50:15,227183
-2,-3,-2,-3,-3,-2,-1,-2,2021-08-07 10:50:15,227183
-2,-2,-1,-9,-13,-5,-3,-4,2021-08-07 10:50:15,227183
-5,-7,-6,-4,-1,-3,-4,-3,2021-08-07 10:50:15,227183
-1,3,2,3,8,3,-1,1,2021-08-07 10:50:15,227183
3,3,3,5,5,3,0,2,2021-08-07 10:50:15,227183
-2,-4,-1,5,2,-2,-1,-2,2021-08-07 10:50:15,227183
-1,-1,-2,-5,-7,-4,-1,-2,2021-08-07 10:50:15,227183
-5,-6,-3,-14,-26,-13,-5,-3,2021-08-07 10:50:15,228234
3,2,2,10,23,11,4,3,2021-08-07 10:50:15,228234
0,0,0,1,5,1,1,1,2021-08-07 10:50:15,259185
-1,-3,-2,4,6,2,-2,-2,2021-08-07 10:50:15,259185
-1,1,-2,-5,-3,-1,-1,-1,2021-08-07 10:50:15,259185
-1,-2,-4,-9,-23,-10,-5,-3,2021-08-07 10:50:15,259185
-3,-3,-1,0,5,1,0,1,2021-08-07 10:50:15,259185
3,2,4,10,12,5,3,2,2021-08-07 10:50:15,260183
-4,-5,-4,-11,-9,-4,-2,-2,2021-08-07 10:50:15,275236
-7,-5,-8,-9,-23,-12,-6,-5,2021-08-07 10:50:15,275236
3,5,5,6,17,9,3,3,2021-08-07 10:50:15,291182
-1,-2,-2,1,3,1,1,-1,2021-08-07 10:50:15,291182
1,2,3,4,7,5,2,1,2021-08-07 10:50:15,291182
1,2,2,0,1,-1,0,0,2021-08-07 10:50:15,291182
-7,-10,-11,-19,-28,-15,-10,-7,2021-08-07 10:50:15,307230
-3,-3,-6,-12,-12,-5,-4,-2,2021-08-07 10:50:15,323224
5,6,4,5,13,6,3,3,2021-08-07 10:50:15,339183
3,3,7,19,21,9,2,3,2021-08-07 10:50:15,339183
-2,-3,-2,0,-3,-2,-1,-1,2021-08-07 10:50:15,339183
-3,-2,-2,-5,-7,-5,-3,-2,2021-08-07 10:50:15,339183
-8,-7,-10,-16,-26,-11,-6,-5,2021-08-07 10:50:15,339183
3,2,4,13,31,11,3,3,2021-08-07 10:50:15,339183
1,3,3,5,0,-1,0,0,2021-08-07 10:50:15,339183
1,1,4,4,7,3,1,0,2021-08-07 10:50:15,340221
-2,-3,-2,-4,-10,-7,-1,-1,2021-08-07 10:50:15,340221
-3,-6,-10,-17,-15,-5,-2,-3,2021-08-07 10:50:15,340221
0,0,-5,3,6,2,0,0,2021-08-07 10:50:15,370211
-2,-3,-4,-7,-11,-5,-1,-2,2021-08-07 10:50:15,386214
-1,-1,2,1,1,-2,-2,-3,2021-08-07 10:50:15,402214
-1,-1,1,-9,-15,-6,-2,-1,2021-08-07 10:50:15,402214
-1,-2,-2,5,12,5,1,0,2021-08-07 10:50:15,402214
-1,2,4,2,0,1,0,1,2021-08-07 10:50:15,402214
4,5,6,16,22,9,4,1,2021-08-07 10:50:15,402214
-4,-4,-3,-5,-9,-6,-2,-3,2021-08-07 10:50:15,402214
-4,-5,-8,-22,-32,-13,-4,-4,2021-08-07 10:50:15,403210
-5,-5,-8,-9,-9,-7,-4,-3,2021-08-07 10:50:15,403210
1,-1,0,0,5,3,0,2,2021-08-07 10:50:15,403210
5,8,6,4,6,9,6,6,2021-08-07 10:50:15,403210
0,4,5,7,12,3,2,0,2021-08-07 10:50:15,432184
-1,1,0,3,8,5,2,0,2021-08-07 10:50:15,448185
-3,-3,0,8,4,0,-2,-2,2021-08-07 10:50:15,448185
-3,-5,-5,-6,-3,-2,-4,-2,2021-08-07 10:50:15,448185
-3,-3,-4,-7,-12,-5,-1,-2,2021-08-07 10:50:15,448185
2,4,1,0,-8,-1,-1,2,2021-08-07 10:50:15,448185
-1,-1,0,-2,1,-1,-2,-1,2021-08-07 10:50:15,448185
-2,-3,-1,1,8,1,-1,-1,2021-08-07 10:50:15,448185
-4,-6,-4,-3,-9,-6,-3,-5,2021-08-07 10:50:15,464187
-1,-3,-8,-16,-14,-7,-3,-1,2021-08-07 10:50:15,464187
4,7,8,23,31,15,6,3,2021-08-07 10:50:15,479210
0,0,0,4,1,0,0,-1,2021-08-07 10:50:15,479210
-3,-3,-5,-17,-15,-8,-4,-2,2021-08-07 10:50:15,495186
3,1,5,12,17,7,6,3,2021-08-07 10:50:15,495186
0,-1,-2,-7,-13,-4,-2,1,2021-08-07 10:50:15,495186
0,1,1,6,4,3,0,-1,2021-08-07 10:50:15,495186
-4,-4,-6,-15,-18,-8,-3,-3,2021-08-07 10:50:15,511222
-5,-4,-6,-13,-14,-7,-4,-2,2021-08-07 10:50:15,527184
4,5,10,28,37,14,5,4,2021-08-07 10:50:15,543186
-3,-4,-2,-6,-15,-8,-5,-3,2021-08-07 10:50:15,543186
1,2,4,8,7,5,1,2,2021-08-07 10:50:15,543186
-3,-6,-4,0,-3,-4,-4,-2,2021-08-07 10:50:15,543186
-6,-7,-9,-9,-8,-5,-1,-5,2021-08-07 10:50:15,543186
-1,2,-2,-9,-10,-5,-3,-2,2021-08-07 10:50:15,544185
0,1,1,3,-1,0,-2,-2,2021-08-07 10:50:15,544185
1,3,8,16,27,13,4,2,2021-08-07 10:50:15,544185
-5,-5,-8,-23,-28,-14,-5,-3,2021-08-07 10:50:15,558186
2,0,0,-1,-2,1,2,2,2021-08-07 10:50:15,558186
1,3,5,20,21,9,3,3,2021-08-07 10:50:15,574213
-2,1,1,0,-2,-4,-2,-1,2021-08-07 10:50:15,574213
2,2,4,10,9,5,2,-1,2021-08-07 10:50:15,574213
-3,-3,-2,2,-2,-2,-2,-1,2021-08-07 10:50:15,574213
0,1,1,-5,-4,-3,-1,0,2021-08-07 10:50:15,590211
0,1,-1,3,-7,0,0,-1,2021-08-07 10:50:15,606225
-1,-2,-1,-5,-2,-2,-2,-1,2021-08-07 10:50:15,622225
-2,-2,-3,-6,-6,-4,-1,-2,2021-08-07 10:50:15,622225
1,-2,-2,0,-2,-3,-1,-2,2021-08-07 10:50:15,622225
1,0,-1,0,0,-1,-1,0,2021-08-07 10:50:15,622225
-2,-3,-3,-6,-11,-4,-4,-2,2021-08-07 10:50:15,622225
-1,-3,-2,-1,4,-1,-2,-2,2021-08-07 10:50:15,622225
-2,-2,-1,-2,-1,-1,-1,0,2021-08-07 10:50:15,623226
0,-1,-1,6,7,2,0,0,2021-08-07 10:50:15,623226
-4,-3,-6,-12,-15,-6,-3,0,2021-08-07 10:50:15,654221
-1,-1,-1,-10,-2,-1,2,1,2021-08-07 10:50:15,654221
0,0,-4,0,-5,-4,-2,-2,2021-08-07 10:50:15,654221
-4,-3,-8,-26,-26,-11,-5,-4,2021-08-07 10:50:15,654221
5,7,11,31,30,11,5,2,2021-08-07 10:50:15,654221
0,0,1,4,4,0,-1,-2,2021-08-07 10:50:15,655221
-1,-2,-2,-8,-15,-6,0,0,2021-08-07 10:50:15,670235
-2,-5,-6,-11,-11,-5,-3,-3,2021-08-07 10:50:15,670235
-2,-2,-2,-2,7,2,-3,-3,2021-08-07 10:50:15,670235
3,3,4,13,18,7,4,2,2021-08-07 10:50:15,670235
-1,-1,1,4,5,1,-1,-2,2021-08-07 10:50:15,702225
-1,-1,-1,-4,-6,-4,-3,-2,2021-08-07 10:50:15,713224
-2,-3,0,-3,-11,-8,-3,0,2021-08-07 10:50:15,713224
-1,0,-1,3,-5,-2,0,0,2021-08-07 10:50:15,713224
0,-1,-2,-3,7,7,2,1,2021-08-07 10:50:15,713224
1,-2,-2,-6,-6,-3,-1,0,2021-08-07 10:50:15,714187
-1,-2,-8,-13,-10,-3,0,-1,2021-08-07 10:50:15,714187
-1,-2,-2,1,-1,-1,-2,-2,2021-08-07 10:50:15,714187
3,2,1,-1,-4,-2,-1,3,2021-08-07 10:50:15,734226
-3,-5,-3,4,9,2,0,-2,2021-08-07 10:50:15,750186
2,1,0,2,4,6,4,2,2021-08-07 10:50:15,782186
-2,-3,-2,0,-5,-2,-2,-5,2021-08-07 10:50:15,797187
-3,-2,-2,-4,-3,-2,-3,-3,2021-08-07 10:50:15,797187
1,4,6,13,20,8,1,0,2021-08-07 10:50:15,797187
-9,-6,-3,-6,-20,-14,-8,-8,2021-08-07 10:50:15,813221
2,4,1,0,13,4,1,1,2021-08-07 10:50:15,829222
1,2,2,6,7,6,2,2,2021-08-07 10:50:15,829222
2,0,-1,3,4,-1,-2,1,2021-08-07 10:50:15,829222
0,-2,-3,-15,-18,-6,-3,1,2021-08-07 10:50:15,829222
-5,-7,-9,-20,-21,-11,-8,-4,2021-08-07 10:50:15,829222
4,1,-1,1,7,3,3,1,2021-08-07 10:50:15,829222
2,3,6,24,25,10,4,1,2021-08-07 10:50:15,829222
-1,-2,-4,-9,-14,-5,-2,-2,2021-08-07 10:50:15,830225
0,-2,1,6,4,0,0,1,2021-08-07 10:50:15,830225
-4,-4,-2,-7,-11,-6,-4,-3,2021-08-07 10:50:15,830225
-1,0,0,2,-5,-1,-1,-1,2021-08-07 10:50:15,830225
0,0,1,2,2,0,1,1,2021-08-07 10:50:15,830225
-3,-2,-1,-7,-5,-3,-1,-2,2021-08-07 10:50:15,830225
-3,-3,-9,-12,-8,-4,-2,-2,2021-08-07 10:50:15,830225
0,1,1,12,18,7,3,2,2021-08-07 10:50:15,830225
0,0,-2,-3,1,1,0,0,2021-08-07 10:50:15,830225
-4,-3,0,9,1,-1,-2,-3,2021-08-07 10:50:15,831186
0,0,3,0,-4,-1,0,-2,2021-08-07 10:50:15,860184
1,6,7,5,5,3,1,1,2021-08-07 10:50:15,860184
0,-5,-7,5,2,0,-1,-2,2021-08-07 10:50:15,860184
-1,-1,0,-1,0,1,1,0,2021-08-07 10:50:15,860184
-3,-3,0,0,2,-1,-2,-3,2021-08-07 10:50:15,876183
0,-3,-4,-12,-8,-3,0,0,2021-08-07 10:50:15,876183
3,5,5,12,16,6,1,2,2021-08-07 10:50:15,892209
-1,-4,-5,-12,-22,-10,-6,-5,2021-08-07 10:50:15,892209
-3,-2,-2,-1,12,2,-2,-2,2021-08-07 10:50:15,892209
2,2,4,8,1,2,-1,1,2021-08-07 10:50:15,892209
-3,-1,0,-3,-4,-3,-2,-1,2021-08-07 10:50:15,892209
3,3,2,10,17,9,6,4,2021-08-07 10:50:15,892209
-4,-4,-2,-8,-13,-7,-4,-2,2021-08-07 10:50:15,907229
-1,0,-2,-7,-5,-2,-1,-1,2021-08-07 10:50:15,907229
-3,-4,-4,-5,-4,-5,-3,-3,2021-08-07 10:50:15,923228
0,2,0,1,0,1,0,0,2021-08-07 10:50:15,939186
1,3,4,11,6,1,3,1,2021-08-07 10:50:15,939186
-4,-4,-5,-2,-2,-2,-2,-2,2021-08-07 10:50:15,939186
-3,-1,-1,-7,-6,-2,-4,-2,2021-08-07 10:50:15,954224
0,-1,1,4,14,4,-1,1,2021-08-07 10:50:15,970211
-3,-3,-12,-10,-12,-6,-2,-3,2021-08-07 10:50:15,970211
-2,-5,-8,-13,-22,-7,-2,-1,2021-08-07 10:50:15,970211
6,7,10,21,41,16,7,6,2021-08-07 10:50:15,970211
0,1,-1,-10,-10,-4,-1,-2,2021-08-07 10:50:15,970211
-1,0,1,6,4,4,0,0,2021-08-07 10:50:15,970211
-3,-1,-1,-4,-2,-5,-1,-3,2021-08-07 10:50:15,971201
-2,-4,-1,-5,-11,-5,-4,-4,2021-08-07 10:50:15,971201
-1,-2,-3,-5,-2,0,0,-1,2021-08-07 10:50:15,971201
1,-1,-2,-2,-7,-1,-1,0,2021-08-07 10:50:16,002185
-1,-1,1,-3,-4,-2,-2,-1,2021-08-07 10:50:16,018185
-1,0,5,0,-3,-1,0,-2,2021-08-07 10:50:16,018185
0,-1,-4,4,8,2,0,0,2021-08-07 10:50:16,018185
-2,-3,0,0,-5,-4,-3,-1,2021-08-07 10:50:16,018185
-4,-2,-5,-6,-8,-3,-3,-2,2021-08-07 10:50:16,018185
1,1,-3,0,5,5,2,2,2021-08-07 10:50:16,018185
-5,-4,-5,-11,-16,-7,-4,-3,2021-08-07 10:50:16,018185
-2,0,1,-3,6,1,0,1,2021-08-07 10:50:16,034225
0,-1,5,10,10,2,0,0,2021-08-07 10:50:16,050212
0,0,-3,1,-6,-1,-1,-1,2021-08-07 10:50:16,050212
-3,-4,-6,-15,-8,-5,-3,-2,2021-08-07 10:50:16,066186
10,11,17,35,40,18,10,9,2021-08-07 10:50:16,082185
-1,-2,-3,-8,-15,-7,-3,-3,2021-08-07 10:50:16,097183
-1,-3,-4,-11,-8,-1,-2,-1,2021-08-07 10:50:16,113224
-3,-4,-3,-3,-7,-5,-3,-3,2021-08-07 10:50:16,113224
-5,-7,-11,-18,-22,-8,-6,-5,2021-08-07 10:50:16,113224
0,1,1,0,3,1,-1,1,2021-08-07 10:50:16,113224
2,5,4,8,1,1,3,2,2021-08-07 10:50:16,113224
4,2,4,5,7,5,2,2,2021-08-07 10:50:16,113224
0,1,4,-1,0,-1,0,-2,2021-08-07 10:50:16,114187
-1,0,-3,-1,-4,-3,-3,-2,2021-08-07 10:50:16,114187
-9,-12,-17,-24,-27,-13,-8,-6,2021-08-07 10:50:16,114187
6,6,7,16,24,13,6,5,2021-08-07 10:50:16,114187
-1,-1,0,6,12,1,-2,-1,2021-08-07 10:50:16,114187
-2,-3,-2,-7,-10,-4,-2,-2,2021-08-07 10:50:16,114187
0,0,2,1,7,2,-2,-4,2021-08-07 10:50:16,114187
0,1,1,9,-5,-2,-1,-1,2021-08-07 10:50:16,114187
3,3,2,-2,9,5,2,1,2021-08-07 10:50:16,129224
-5,-4,-7,-13,-16,-8,-3,-4,2021-08-07 10:50:16,129224
-3,-5,-6,-19,-28,-10,-5,-1,2021-08-07 10:50:16,129224
1,2,6,29,36,12,3,2,2021-08-07 10:50:16,129224
-1,3,5,9,-2,1,2,-1,2021-08-07 10:50:16,145221
0,-1,-4,-4,-3,-2,-2,-1,2021-08-07 10:50:16,148213
-6,-8,-14,-24,-22,-9,-4,-5,2021-08-07 10:50:16,148213
0,-2,-1,-7,-8,-5,-1,1,2021-08-07 10:50:16,148213
