EMG 1,EMG 2,EMG 3,EMG 4,EMG 5,EMG 6,EMG 7,EMG 8,Timestamp,Milliseconds
-1,-1,-1,-4,-2,0,0,-3,2021-08-07 10:49:39,382951
-1,1,2,15,24,8,2,2,2021-08-07 10:49:39,382951
-2,-2,-2,-1,-2,-2,-2,-1,2021-08-07 10:49:39,382951
0,0,0,-1,-5,-2,-2,0,2021-08-07 10:49:39,382951
-2,-2,-6,-8,-13,-7,-4,-1,2021-08-07 10:49:39,382951
-2,-2,-1,-5,-7,-2,-2,-3,2021-08-07 10:49:39,382951
-3,-3,-4,-6,-6,-4,-1,-1,2021-08-07 10:49:39,382951
3,3,2,2,5,3,0,2,2021-08-07 10:49:39,382951
-1,-1,-3,0,0,-2,-2,-2,2021-08-07 10:49:39,382951
0,-1,-2,-4,-13,-4,-2,-1,2021-08-07 10:49:39,382951
0,-1,3,13,16,4,1,-2,2021-08-07 10:49:39,414950
-2,-2,-3,0,8,3,0,0,2021-08-07 10:49:39,414950
1,0,2,6,5,3,0,0,2021-08-07 10:49:39,414950
0,-1,2,5,0,-3,-2,-1,2021-08-07 10:49:39,414950
2,0,0,-6,-9,-4,0,0,2021-08-07 10:49:39,414950
-2,-3,-5,-12,-11,-4,-3,-3,2021-08-07 10:49:39,414950
-3,0,0,-6,-6,-2,-2,-2,2021-08-07 10:49:39,430952
-3,-2,-4,-6,-3,-2,-3,-1,2021-08-07 10:49:39,430952
3,3,5,9,11,7,3,2,2021-08-07 10:49:39,446952
0,0,3,5,4,2,1,0,2021-08-07 10:49:39,446952
-2,-3,1,1,3,1,-1,-1,2021-08-07 10:49:39,446952
0,-1,-5,-10,-13,-5,-1,-2,2021-08-07 10:49:39,446952
-2,-1,-2,-1,-2,-2,-3,-2,2021-08-07 10:49:39,477952
0,0,-2,-2,0,-2,0,-1,2021-08-07 10:49:39,493951
-4,-1,0,0,-1,-1,-2,-2,2021-08-07 10:49:39,493951
-1,0,-1,-2,1,0,0,0,2021-08-07 10:49:39,493951
2,1,0,1,2,1,1,2,2021-08-07 10:49:39,509951
1,0,0,3,0,-2,-1,0,2021-08-07 10:49:39,509951
-4,-4,-3,-1,-2,-1,-1,-3,2021-08-07 10:49:39,509951
0,1,-1,-1,-2,-3,-2,1,2021-08-07 10:49:39,509951
-1,1,1,5,3,2,0,-1,2021-08-07 10:49:39,509951
-2,-2,-2,-7,-5,-3,-3,-1,2021-08-07 10:49:39,509951
-1,-2,-3,-3,1,-2,-1,-1,2021-08-07 10:49:39,517952
0,-1,1,6,-1,1,0,0,2021-08-07 10:49:39,518953
0,0,-2,-3,1,0,1,0,2021-08-07 10:49:39,518953
-1,-1,-1,-3,-1,0,-2,-1,2021-08-07 10:49:39,518953
-1,-1,0,-2,-3,-3,-2,-2,2021-08-07 10:49:39,541954
-1,-2,-3,-6,-1,-1,0,-2,2021-08-07 10:49:39,557953
1,-1,0,1,-1,-2,0,0,2021-08-07 10:49:39,589951
-1,-1,-4,-10,-3,1,-2,-2,2021-08-07 10:49:39,589951
1,1,2,5,2,1,1,-1,2021-08-07 10:49:39,589951
-1,0,-1,0,-2,0,-1,0,2021-08-07 10:49:39,589951
-2,0,0,-4,-5,-3,-2,0,2021-08-07 10:49:39,589951
-2,-1,0,-1,-2,-2,-2,-1,2021-08-07 10:49:39,589951
0,-3,-2,-4,6,4,0,1,2021-08-07 10:49:39,589951
0,1,2,11,16,5,2,0,2021-08-07 10:49:39,590952
-4,-4,-4,-10,-12,-5,-3,-2,2021-08-07 10:49:39,590952
6,8,8,9,0,1,4,4,2021-08-07 10:49:39,590952
-2,-4,-8,-20,-21,-8,-4,-2,2021-08-07 10:49:39,605952
1,-3,2,14,17,5,2,-2,2021-08-07 10:49:39,605952
1,2,0,6,3,4,3,1,2021-08-07 10:49:39,605952
-5,-7,-8,-9,-10,-6,-4,-4,2021-08-07 10:49:39,606952
0,2,7,13,-3,-3,-2,-1,2021-08-07 10:49:39,621953
0,0,-2,-3,5,-1,-1,-1,2021-08-07 10:49:39,621953
2,-2,-6,-9,-4,4,4,1,2021-08-07 10:49:39,621953
-1,0,7,23,18,4,0,-2,2021-08-07 10:49:39,621953
-4,-3,-4,-5,-10,-11,-9,-5,2021-08-07 10:49:39,653952
-4,-3,-3,-7,-7,-5,-4,-3,2021-08-07 10:49:39,668951
-1,-1,-2,-6,-5,-3,0,-2,2021-08-07 10:49:39,684951
1,2,0,2,3,7,7,3,2021-08-07 10:49:39,684951
-2,-2,-2,-4,2,3,0,-1,2021-08-07 10:49:39,684951
-1,0,1,-2,-10,-4,-3,-1,2021-08-07 10:49:39,684951
-1,0,0,9,8,1,-1,-2,2021-08-07 10:49:39,684951
2,1,1,-1,-2,2,0,0,2021-08-07 10:49:39,684951
1,3,4,12,13,5,2,0,2021-08-07 10:49:39,684951
-3,-4,-7,-16,-17,-8,-3,-2,2021-08-07 10:49:39,685952
2,0,4,8,7,3,0,0,2021-08-07 10:49:39,685952
-2,-3,-4,-6,-8,-8,-4,-2,2021-08-07 10:49:39,685952
-2,0,-3,1,1,0,0,-1,2021-08-07 10:49:39,716952
-1,-1,-1,-3,-4,-1,1,0,2021-08-07 10:49:39,716952
0,1,2,3,4,-1,-2,0,2021-08-07 10:49:39,716952
-3,-2,0,-1,-1,-3,-1,-3,2021-08-07 10:49:39,716952
0,0,0,-5,-6,-2,2,-1,2021-08-07 10:49:39,716952
1,-1,-1,0,-6,-1,0,-1,2021-08-07 10:49:39,716952
-3,-3,-2,3,8,1,-2,-2,2021-08-07 10:49:39,732952
-2,-2,-5,-8,-7,-5,-2,-1,2021-08-07 10:49:39,747950
-1,2,-1,-6,-4,-2,-1,0,2021-08-07 10:49:39,747950
-1,0,-1,-1,6,2,-1,-2,2021-08-07 10:49:39,747950
0,-1,1,-2,-6,-2,-1,0,2021-08-07 10:49:39,747950
2,0,2,4,3,2,1,1,2021-08-07 10:49:39,747950
-3,-6,-5,-3,2,-1,-3,-2,2021-08-07 10:49:39,763952
1,1,0,-1,-3,-1,0,0,2021-08-07 10:49:39,763952
-2,-3,-7,-13,-15,-7,-4,-3,2021-08-07 10:49:39,763952
-2,0,0,-4,4,3,0,0,2021-08-07 10:49:39,763952
1,0,3,6,0,1,1,0,2021-08-07 10:49:39,779950
-1,0,-1,3,6,2,1,-1,2021-08-07 10:49:39,779950
-1,0,-2,1,-1,-2,-2,1,2021-08-07 10:49:39,779950
-3,-3,-5,-7,-5,-3,-2,-3,2021-08-07 10:49:39,779950
-2,-2,-5,-13,-13,-6,-3,-3,2021-08-07 10:49:39,811954
1,2,4,13,19,7,3,1,2021-08-07 10:49:39,811954
1,1,2,2,-2,0,2,-1,2021-08-07 10:49:39,811954
-3,-5,-5,-1,6,0,0,-2,2021-08-07 10:49:39,811954
3,2,-1,-2,1,0,1,1,2021-08-07 10:49:39,827952
-2,0,-1,-8,-12,-5,-2,-2,2021-08-07 10:49:39,843952
0,0,2,3,-1,-2,-2,-3,2021-08-07 10:49:39,859952
-1,-3,-3,-4,1,0,0,-1,2021-08-07 10:49:39,859952
0,-1,2,15,15,5,0,0,2021-08-07 10:49:39,859952
-1,-3,-5,-10,-14,-7,-4,-3,2021-08-07 10:49:39,859952
4,4,5,9,12,8,4,3,2021-08-07 10:49:39,859952
-1,-1,-1,-1,-7,-4,-1,-3,2021-08-07 10:49:39,860952
-4,-3,-4,-8,-8,-3,-3,-2,2021-08-07 10:49:39,860952
0,0,0,1,-2,0,-1,0,2021-08-07 10:49:39,860952
-1,0,-2,-6,-8,-4,-1,-1,2021-08-07 10:49:39,875953
-1,-1,2,12,12,4,0,-1,2021-08-07 10:49:39,891951
-2,-2,-4,-5,-11,-4,-2,0,2021-08-07 10:49:39,891951
0,-1,0,4,2,1,1,1,2021-08-07 10:49:39,891951
-3,-2,-4,-10,-5,-4,-3,-1,2021-08-07 10:49:39,891951
0,0,-1,-4,-6,-3,-1,1,2021-08-07 10:49:39,891951
-1,1,-1,2,4,1,-1,-2,2021-08-07 10:49:39,891951
-2,-2,-3,-3,-4,-3,-1,-2,2021-08-07 10:49:39,891951
0,1,2,7,5,3,1,1,2021-08-07 10:49:39,906953
1,1,-2,-4,-5,-2,-2,0,2021-08-07 10:49:39,906953
0,0,0,2,0,-1,-1,-1,2021-08-07 10:49:39,918951
0,0,-1,-4,0,0,-1,-1,2021-08-07 10:49:39,918951
-1,-1,-1,-2,2,-1,-2,-1,2021-08-07 10:49:39,918951
1,0,1,5,4,3,1,1,2021-08-07 10:49:39,919953
-2,-2,-4,-13,-19,-9,-2,-2,2021-08-07 10:49:39,954951
-1,-2,-3,-8,-6,-4,1,0,2021-08-07 10:49:39,970951
0,1,2,13,36,17,6,0,2021-08-07 10:49:39,970951
-1,0,4,24,15,7,1,-2,2021-08-07 10:49:39,970951
-1,1,6,11,20,10,3,-2,2021-08-07 10:49:39,970951
-5,-3,-3,-12,-16,-9,-6,-4,2021-08-07 10:49:39,970951
-2,0,0,-9,-21,-10,-6,-1,2021-08-07 10:49:39,971952
-1,-3,-8,-23,-25,-11,-5,-3,2021-08-07 10:49:39,971952
0,0,1,0,3,-1,-1,-1,2021-08-07 10:49:39,986954
2,1,4,16,17,6,2,1,2021-08-07 10:49:39,986954
-1,-3,-3,-4,-6,-3,-2,-1,2021-08-07 10:49:39,986954
0,0,-2,-5,-1,0,0,0,2021-08-07 10:49:39,986954
-1,-3,-5,-10,-16,-8,-3,-2,2021-08-07 10:49:40,002952
0,2,3,7,10,7,2,1,2021-08-07 10:49:40,017950
-1,-3,-4,-4,-6,-2,-2,-1,2021-08-07 10:49:40,017950
-1,-3,0,0,0,-1,-1,-2,2021-08-07 10:49:40,017950
-3,-3,-4,-6,-6,-2,-3,-3,2021-08-07 10:49:40,017950
2,0,-1,2,2,4,-1,1,2021-08-07 10:49:40,017950
-1,0,0,4,-1,-1,-1,-2,2021-08-07 10:49:40,018952
-2,-2,-2,-6,-6,-4,-2,-2,2021-08-07 10:49:40,018952
2,0,0,0,2,2,0,2,2021-08-07 10:49:40,049951
-4,-2,-3,-2,-1,-3,-4,-1,2021-08-07 10:49:40,049951
2,1,-4,-15,-13,-2,1,2,2021-08-07 10:49:40,049951
1,2,8,25,24,7,5,2,2021-08-07 10:49:40,049951
-2,-1,-2,3,0,-1,-1,-1,2021-08-07 10:49:40,064951
0,0,-1,-5,-9,-4,-2,-1,2021-08-07 10:49:40,064951
-4,-5,-8,-16,-18,-11,-6,-4,2021-08-07 10:49:40,064951
-2,0,-4,-11,-11,-5,-2,0,2021-08-07 10:49:40,064951
3,4,6,17,28,13,5,3,2021-08-07 10:49:40,080952
-1,-3,-2,-2,1,0,0,-2,2021-08-07 10:49:40,080952
-2,-3,-2,-1,-5,-3,-1,-2,2021-08-07 10:49:40,080952
-2,-2,-4,-8,-10,-4,-4,-3,2021-08-07 10:49:40,080952
1,-1,2,9,14,5,0,2,2021-08-07 10:49:40,111953
-1,-1,-4,-13,-17,-8,-3,-1,2021-08-07 10:49:40,127951
1,0,4,14,22,9,4,2,2021-08-07 10:49:40,143953
-3,-2,-5,-11,-13,-7,-5,-1,2021-08-07 10:49:40,143953
2,1,5,8,9,5,3,2,2021-08-07 10:49:40,143953
0,0,1,6,1,-1,-1,-1,2021-08-07 10:49:40,143953
1,2,7,14,9,5,2,1,2021-08-07 10:49:40,143953
0,-2,-3,-7,-2,-3,-1,-2,2021-08-07 10:49:40,144952
-2,-4,-4,-9,-11,-6,-3,-3,2021-08-07 10:49:40,144952
-1,-2,-2,-12,-6,-3,0,0,2021-08-07 10:49:40,144952
-2,2,2,4,-4,-3,-2,-1,2021-08-07 10:49:40,144952
4,2,4,6,4,4,2,3,2021-08-07 10:49:40,144952
-1,-3,-1,0,-3,-4,-2,-1,2021-08-07 10:49:40,174952
-2,-1,-2,2,2,0,-2,-1,2021-08-07 10:49:40,174952
-3,-5,-6,-10,-9,-7,-3,-3,2021-08-07 10:49:40,174952
0,0,2,3,0,1,0,-2,2021-08-07 10:49:40,174952
0,0,-3,-5,-4,1,2,0,2021-08-07 10:49:40,190953
-3,-2,-2,-1,-8,-4,-2,-2,2021-08-07 10:49:40,206954
0,1,0,4,14,7,4,1,2021-08-07 10:49:40,206954
0,0,0,2,1,-1,-1,-2,2021-08-07 10:49:40,206954
-2,1,-4,-6,-7,-3,-1,0,2021-08-07 10:49:40,206954
2,1,6,9,11,5,1,1,2021-08-07 10:49:40,206954
-5,-5,-8,-14,-15,-8,-5,-4,2021-08-07 10:49:40,206954
-4,-5,-1,-7,-17,-10,-5,-4,2021-08-07 10:49:40,206954
3,4,5,7,9,4,2,3,2021-08-07 10:49:40,222951
1,2,1,3,8,5,2,0,2021-08-07 10:49:40,238951
-1,-3,-2,-3,-4,-4,-1,-4,2021-08-07 10:49:40,238951
1,-1,1,4,11,5,3,3,2021-08-07 10:49:40,238951
-2,-3,-1,-8,-14,-7,-4,-5,2021-08-07 10:49:40,238951
-1,-2,-2,-1,-1,-1,-1,-1,2021-08-07 10:49:40,238951
1,0,1,0,-2,-1,0,1,2021-08-07 10:49:40,238951
-3,-3,-6,-9,-7,-2,-1,-2,2021-08-07 10:49:40,239952
1,-1,1,3,3,3,1,-1,2021-08-07 10:49:40,270952
-1,0,0,-2,0,-2,0,0,2021-08-07 10:49:40,270952
-1,-2,-2,1,-1,-2,-3,-3,2021-08-07 10:49:40,270952
0,-1,-1,1,4,0,-1,0,2021-08-07 10:49:40,270952
-1,-2,-3,-6,-7,-4,-3,-1,2021-08-07 10:49:40,286952
3,1,1,5,0,1,2,1,2021-08-07 10:49:40,301952
0,-2,-4,-8,1,0,0,1,2021-08-07 10:49:40,317952
-2,-1,0,4,6,1,0,-1,2021-08-07 10:49:40,317952
-5,-6,-5,-10,-9,-6,-4,-4,2021-08-07 10:49:40,317952
0,2,2,0,-4,-1,-1,2,2021-08-07 10:49:40,317952
-4,-4,-5,-8,-9,-2,0,-4,2021-08-07 10:49:40,317952
0,0,2,5,5,1,-1,0,2021-08-07 10:49:40,318953
0,2,1,-3,-2,-1,-4,0,2021-08-07 10:49:40,318953
-3,-4,-5,-9,-14,-9,-4,-3,2021-08-07 10:49:40,318953
0,1,1,8,9,7,5,3,2021-08-07 10:49:40,333951
-1,1,0,-1,1,1,-3,-3,2021-08-07 10:49:40,340952
-8,-6,-7,-12,-24,-16,-11,-8,2021-08-07 10:49:40,340952
-1,-1,3,18,31,11,1,0,2021-08-07 10:49:40,340952
0,0,0,-2,-6,-3,-1,0,2021-08-07 10:49:40,341952
1,1,1,4,3,5,5,3,2021-08-07 10:49:40,341952
1,3,0,3,5,5,4,4,2021-08-07 10:49:40,364953
0,-1,-5,-13,-21,-6,3,1,2021-08-07 10:49:40,364953
0,-1,2,5,6,3,-1,-1,2021-08-07 10:49:40,364953
-5,-5,-5,-6,-5,-8,-12,-7,2021-08-07 10:49:40,364953
-3,-2,-1,3,3,-1,-2,-2,2021-08-07 10:49:40,380953
-1,-1,-2,-5,3,-1,-1,-2,2021-08-07 10:49:40,380953
2,1,2,5,2,1,0,2,2021-08-07 10:49:40,380953
0,-1,-1,-3,-7,-2,3,1,2021-08-07 10:49:40,380953
-2,-1,-2,2,-1,-1,-2,1,2021-08-07 10:49:40,411952
1,-1,-3,-10,-8,-1,-1,-1,2021-08-07 10:49:40,427952
-3,1,-3,-6,-8,-4,-3,-1,2021-08-07 10:49:40,443950
-2,-1,-4,-9,-6,0,2,0,2021-08-07 10:49:40,443950
2,3,5,17,26,10,4,3,2021-08-07 10:49:40,443950
3,2,5,12,11,2,0,-1,2021-08-07 10:49:40,443950
1,1,0,6,7,0,-4,-3,2021-08-07 10:49:40,443950
0,-1,-2,-7,-8,-5,-1,2,2021-08-07 10:49:40,443950
-2,-4,-3,-7,-8,-4,1,-2,2021-08-07 10:49:40,443950
-6,-7,-5,-10,-20,-10,-5,-4,2021-08-07 10:49:40,444953
3,2,7,15,21,6,2,0,2021-08-07 10:49:40,444953
-1,2,-1,2,4,2,1,1,2021-08-07 10:49:40,444953
1,0,2,0,-3,1,1,0,2021-08-07 10:49:40,459952
-2,-1,-3,-9,-7,-3,-4,-2,2021-08-07 10:49:40,474953
-2,-3,-1,1,1,1,-1,-3,2021-08-07 10:49:40,490953
-1,-3,-2,2,2,-1,-2,-1,2021-08-07 10:49:40,506953
0,-1,-1,0,2,0,-2,-1,2021-08-07 10:49:40,506953
1,2,-2,-4,-7,-4,-2,-1,2021-08-07 10:49:40,506953
0,-2,-4,-9,-9,-4,-1,0,2021-08-07 10:49:40,522953
2,1,1,3,4,2,0,0,2021-08-07 10:49:40,522953
1,-2,-3,-4,-5,-2,-1,-2,2021-08-07 10:49:40,522953
-1,-2,-3,-5,3,1,-2,-2,2021-08-07 10:49:40,522953
-3,-2,-1,-1,-2,-2,-1,0,2021-08-07 10:49:40,522953
0,2,4,9,8,3,0,0,2021-08-07 10:49:40,523952
-1,-2,-1,-4,-3,-2,-1,0,2021-08-07 10:49:40,523952
1,-2,-1,0,1,1,-1,0,2021-08-07 10:49:40,523952
-2,-1,-3,-4,-7,-4,-4,-2,2021-08-07 10:49:40,538951
-1,-2,-3,-9,-8,-4,-2,0,2021-08-07 10:49:40,538951
-1,-3,0,3,2,-1,-1,-2,2021-08-07 10:49:40,538951
0,4,4,6,6,2,2,2,2021-08-07 10:49:40,538951
0,1,-2,-4,-5,-3,-1,1,2021-08-07 10:49:40,554951
-1,-1,-1,-2,-1,-2,0,-2,2021-08-07 10:49:40,570951
-1,1,0,1,1,2,1,1,2021-08-07 10:49:40,586951
-3,-3,-2,1,-1,0,-3,-2,2021-08-07 10:49:40,586951
-2,-4,-5,-11,-12,-6,-3,-2,2021-08-07 10:49:40,586951
2,1,3,4,2,0,0,0,2021-08-07 10:49:40,586951
1,1,3,8,9,4,1,0,2021-08-07 10:49:40,586951
-4,-4,-6,-14,-28,-13,-5,-5,2021-08-07 10:49:40,587953
3,5,9,24,29,14,7,4,2021-08-07 10:49:40,587953
0,-2,-4,-6,-8,-4,-3,-2,2021-08-07 10:49:40,587953
1,2,3,11,24,10,3,2,2021-08-07 10:49:40,602952
0,-2,-1,-4,-5,-3,0,0,2021-08-07 10:49:40,602952
-2,-2,-4,-9,-15,-8,-5,-2,2021-08-07 10:49:40,617951
-3,-3,-2,-9,-11,-6,-2,-3,2021-08-07 10:49:40,618954
-1,0,0,3,-2,-3,-3,-1,2021-08-07 10:49:40,633952
1,0,1,1,4,0,1,-1,2021-08-07 10:49:40,633952
-1,-1,-2,-3,-4,-3,-1,-3,2021-08-07 10:49:40,633952
-1,0,0,3,6,1,1,0,2021-08-07 10:49:40,633952
-3,-3,-5,-13,-14,-7,-3,-2,2021-08-07 10:49:40,649952
0,-1,2,6,9,3,2,0,2021-08-07 10:49:40,649952
-2,-1,0,0,-4,-2,-2,-2,2021-08-07 10:49:40,649952
2,0,1,0,1,2,0,0,2021-08-07 10:49:40,649952
-2,0,-4,-13,-11,-7,-4,-1,2021-08-07 10:49:40,665952
3,5,8,14,13,8,3,3,2021-08-07 10:49:40,681953
0,0,0,4,3,0,0,-1,2021-08-07 10:49:40,697951
0,-2,-7,-17,-13,-6,-2,-2,2021-08-07 10:49:40,713951
1,-5,2,11,8,3,2,1,2021-08-07 10:49:40,713951
-4,-6,-6,-9,-11,-6,-2,-3,2021-08-07 10:49:40,713951
0,2,1,2,11,3,2,1,2021-08-07 10:49:40,713951
-10,-11,-4,-4,0,-3,-4,-6,2021-08-07 10:49:40,713951
2,5,-1,-14,-19,-8,1,0,2021-08-07 10:49:40,714954
-2,-2,-7,-2,5,1,-2,-2,2021-08-07 10:49:40,714954
-3,-5,-1,4,3,-3,-3,-2,2021-08-07 10:49:40,714954
5,11,8,3,-2,2,2,4,2021-08-07 10:49:40,714954
1,0,7,5,6,1,2,1,2021-08-07 10:49:40,745953
-2,1,-6,-9,-10,-6,-1,-3,2021-08-07 10:49:40,761951
-1,-4,-6,-9,-9,-5,-2,-1,2021-08-07 10:49:40,772951
-3,-5,-2,6,8,2,-1,-1,2021-08-07 10:49:40,772951
-5,-4,-8,-19,-29,-13,-5,-4,2021-08-07 10:49:40,772951
4,3,9,17,28,13,3,3,2021-08-07 10:49:40,772951
-5,-2,-5,-8,-12,-7,-4,-3,2021-08-07 10:49:40,772951
1,2,4,6,4,3,2,2,2021-08-07 10:49:40,773954
-4,-5,-7,-8,-7,-5,-3,-2,2021-08-07 10:49:40,773954
-1,-1,6,14,19,10,2,2,2021-08-07 10:49:40,773954
1,1,0,3,-2,1,0,-1,2021-08-07 10:49:40,773954
0,-1,-2,0,3,0,0,-1,2021-08-07 10:49:40,773954
-2,1,-2,-8,-9,-4,-4,-3,2021-08-07 10:49:40,793953
-4,-4,-10,-17,-18,-8,-4,-4,2021-08-07 10:49:40,793953
-2,-1,1,1,8,3,1,1,2021-08-07 10:49:40,793953
-1,-3,-4,-9,-12,-6,-3,-3,2021-08-07 10:49:40,793953
2,3,3,8,12,5,1,2,2021-08-07 10:49:40,809952
-1,-1,0,3,3,-1,-2,-3,2021-08-07 10:49:40,809952
3,3,2,0,6,6,1,2,2021-08-07 10:49:40,809952
-2,0,-2,-3,-5,-5,-2,-1,2021-08-07 10:49:40,809952
-2,-1,0,5,8,2,-1,-3,2021-08-07 10:49:40,825952
-2,-2,-2,-3,-16,-7,-5,0,2021-08-07 10:49:40,841953
1,1,3,6,17,7,2,2,2021-08-07 10:49:40,841953
-1,0,1,9,5,1,0,-2,2021-08-07 10:49:40,841953
-2,-2,-3,-2,1,0,-2,0,2021-08-07 10:49:40,841953
-3,-4,-5,-13,-16,-9,-4,-2,2021-08-07 10:49:40,842952
2,1,0,-7,-13,-6,0,-2,2021-08-07 10:49:40,857952
2,-1,1,10,23,13,7,2,2021-08-07 10:49:40,873952
1,1,0,7,3,3,1,1,2021-08-07 10:49:40,889952
-2,1,2,-4,-2,-4,-6,-3,2021-08-07 10:49:40,905952
-5,-3,-6,-9,-12,-9,-6,-2,2021-08-07 10:49:40,905952
-1,1,-1,-5,-7,-4,-3,-1,2021-08-07 10:49:40,905952
-3,-5,-6,-8,-8,-1,2,-1,2021-08-07 10:49:40,905952
0,-2,-2,-7,0,2,3,1,2021-08-07 10:49:40,921951
4,3,5,11,10,4,0,2,2021-08-07 10:49:40,937952
-3,-2,-1,3,3,-1,-4,-2,2021-08-07 10:49:40,937952
3,1,0,1,2,7,6,4,2021-08-07 10:49:40,937952
1,1,0,2,5,4,1,-1,2021-08-07 10:49:40,937952
-2,-2,-1,-2,-10,-6,-5,-5,2021-08-07 10:49:40,937952
-4,-2,-1,1,-3,-6,-5,-4,2021-08-07 10:49:40,937952
-2,-2,-1,1,0,-5,-4,-3,2021-08-07 10:49:40,937952
0,-1,-2,-9,-10,0,2,1,2021-08-07 10:49:40,938951
1,1,3,14,23,11,3,3,2021-08-07 10:49:40,938951
1,2,0,-1,-6,-4,-1,-1,2021-08-07 10:49:40,953950
-2,-1,-3,-10,-8,-4,-3,-4,2021-08-07 10:49:40,969952
1,0,0,9,4,1,0,0,2021-08-07 10:49:40,969952
-2,-2,-3,-6,-8,-5,-3,-4,2021-08-07 10:49:40,969952
-1,-1,0,0,6,2,1,1,2021-08-07 10:49:40,969952
-2,-2,-1,2,-1,-2,-2,-3,2021-08-07 10:49:40,969952
1,-1,0,-1,4,1,0,1,2021-08-07 10:49:40,969952
-1,-2,0,-4,-6,-4,-3,-1,2021-08-07 10:49:40,969952
-1,-1,-3,-6,-4,-6,-3,-3,2021-08-07 10:49:40,969952
-2,-2,-4,-8,-10,-5,-4,-4,2021-08-07 10:49:40,985952
1,2,3,13,10,3,1,0,2021-08-07 10:49:41,000952
-3,-4,-9,-23,-28,-12,-1,-2,2021-08-07 10:49:41,016952
3,1,4,12,12,9,2,2,2021-08-07 10:49:41,016952
-2,0,6,20,26,7,1,0,2021-08-07 10:49:41,016952
-1,0,-1,-1,0,1,3,0,2021-08-07 10:49:41,016952
-2,-2,-1,-3,-5,-3,-4,-2,2021-08-07 10:49:41,016952
-4,-3,-8,-20,-25,-16,-7,-5,2021-08-07 10:49:41,016952
-2,-2,-3,-4,-3,-3,-1,-3,2021-08-07 10:49:41,032952
2,1,3,7,10,3,3,2,2021-08-07 10:49:41,032952
0,-2,-6,-13,-11,-2,2,0,2021-08-07 10:49:41,032952
0,1,3,15,17,9,1,2,2021-08-07 10:49:41,032952
0,1,1,3,5,-1,-5,-1,2021-08-07 10:49:41,048952
-3,-3,0,-2,-5,-6,-6,-3,2021-08-07 10:49:41,048952
-3,-1,-3,-1,0,-1,1,1,2021-08-07 10:49:41,048952
-1,-1,-4,-20,-18,-3,5,2,2021-08-07 10:49:41,048952
2,-1,0,2,6,4,1,2,2021-08-07 10:49:41,096952
-1,0,2,12,9,-1,-5,-4,2021-08-07 10:49:41,111952
0,0,3,8,12,2,-1,-2,2021-08-07 10:49:41,127952
2,3,0,1,2,1,1,1,2021-08-07 10:49:41,127952
0,0,0,-6,-11,-2,2,1,2021-08-07 10:49:41,127952
-3,-3,-4,-10,-9,-3,0,-2,2021-08-07 10:49:41,127952
2,1,-1,-4,-1,0,1,0,2021-08-07 10:49:41,127952
-5,-6,-5,-7,-13,-5,-5,-4,2021-08-07 10:49:41,128953
1,1,1,3,7,5,1,2,2021-08-07 10:49:41,128953
-1,-2,1,0,2,1,-2,-1,2021-08-07 10:49:41,128953
-2,-1,2,3,9,2,-1,-2,2021-08-07 10:49:41,128953
1,1,1,3,2,1,2,0,2021-08-07 10:49:41,128953
-2,-1,0,0,-1,0,-1,-1,2021-08-07 10:49:41,128953
-2,-4,-4,-9,-4,-2,-2,-2,2021-08-07 10:49:41,128953
-2,0,-1,1,-4,-2,-1,0,2021-08-07 10:49:41,128953
0,0,-1,-2,0,-2,-1,1,2021-08-07 10:49:41,129952
0,-1,-4,-4,-5,-4,-2,-1,2021-08-07 10:49:41,159952
-1,1,-1,-5,-5,-2,1,0,2021-08-07 10:49:41,159952
-1,0,-1,-3,-3,-2,0,1,2021-08-07 10:49:41,159952
-1,0,-1,2,6,1,-1,-1,2021-08-07 10:49:41,159952
0,-1,-1,1,3,1,-1,0,2021-08-07 10:49:41,175952
-2,-2,0,1,0,-1,1,0,2021-08-07 10:49:41,191951
-1,0,1,2,1,1,-1,-2,2021-08-07 10:49:41,191951
-1,0,1,0,-3,-2,-2,0,2021-08-07 10:49:41,191951
-2,-4,-5,-12,-12,-5,-2,-3,2021-08-07 10:49:41,191951
-5,-5,-8,-15,-25,-12,-5,-4,2021-08-07 10:49:41,191951
8,8,10,31,36,17,8,5,2021-08-07 10:49:41,192952
0,-1,1,7,12,3,1,-1,2021-08-07 10:49:41,192952
-1,1,-1,-2,-2,-2,-1,-1,2021-08-07 10:49:41,223953
-2,-2,-6,-11,-12,-6,-2,-2,2021-08-07 10:49:41,239950
-3,-4,-4,-9,-16,-7,-3,-2,2021-08-07 10:49:41,255952
1,0,1,10,8,4,1,2,2021-08-07 10:49:41,255952
0,0,2,5,6,2,1,1,2021-08-07 10:49:41,255952
-1,0,-2,-2,-1,-1,-1,1,2021-08-07 10:49:41,256953
-6,-7,-10,-26,-27,-12,-6,-4,2021-08-07 10:49:41,256953
0,-2,-2,-5,-1,1,0,-1,2021-08-07 10:49:41,256953
0,2,3,9,9,2,1,0,2021-08-07 10:49:41,256953
0,0,0,1,1,2,-1,-1,2021-08-07 10:49:41,256953
1,2,2,8,12,4,2,1,2021-08-07 10:49:41,256953
-3,-5,-6,-11,-14,-7,-4,-3,2021-08-07 10:49:41,257952
-2,-3,-3,-6,-12,-4,-4,-2,2021-08-07 10:49:41,270952
2,3,5,8,8,4,1,2,2021-08-07 10:49:41,270952
-1,-3,-5,-8,-6,-4,-3,-3,2021-08-07 10:49:41,270952
-2,-3,1,5,4,1,1,-2,2021-08-07 10:49:41,270952
0,2,1,-4,-4,-1,-3,-1,2021-08-07 10:49:41,301952
0,0,1,7,7,1,-1,-1,2021-08-07 10:49:41,301952
0,-1,2,3,0,-2,0,-1,2021-08-07 10:49:41,317952
1,1,-1,0,3,0,1,0,2021-08-07 10:49:41,317952
-1,-2,-3,-4,-5,-4,-2,-1,2021-08-07 10:49:41,317952
-3,-3,-4,-3,-6,-3,-3,-4,2021-08-07 10:49:41,317952
0,1,-1,-8,-8,-3,-1,0,2021-08-07 10:49:41,317952
1,1,1,2,7,5,0,-1,2021-08-07 10:49:41,317952
1,1,3,12,21,9,4,3,2021-08-07 10:49:41,333952
-1,0,0,2,2,0,0,-1,2021-08-07 10:49:41,349952
-4,-4,-5,-7,-12,-6,-2,0,2021-08-07 10:49:41,349952
-3,-4,-1,-9,-15,-9,-4,-4,2021-08-07 10:49:41,349952
-4,-5,-10,-20,-23,-10,-5,-4,2021-08-07 10:49:41,349952
7,9,15,36,43,17,7,5,2021-08-07 10:49:41,349952
0,1,-1,-2,-3,-1,1,-2,2021-08-07 10:49:41,349952
-1,-3,-3,-4,-4,-4,-2,1,2021-08-07 10:49:41,349952
-4,-7,-2,-7,-11,-6,-3,-4,2021-08-07 10:49:41,381952
-2,0,-2,-6,-7,-4,-2,-2,2021-08-07 10:49:41,381952
-3,-4,-4,0,0,0,-2,0,2021-08-07 10:49:41,381952
5,7,7,4,4,4,1,0,2021-08-07 10:49:41,381952
5,8,7,10,10,5,5,5,2021-08-07 10:49:41,397952
2,0,-2,-5,-7,-2,-3,0,2021-08-07 10:49:41,413952
-1,-4,-3,2,0,-1,-4,-1,2021-08-07 10:49:41,413952
-4,-5,-7,-2,-3,-1,-2,-2,2021-08-07 10:49:41,413952
-4,-4,-1,1,3,-1,0,-1,2021-08-07 10:49:41,413952
-2,0,0,-4,-5,-3,-2,0,2021-08-07 10:49:41,413952
-1,0,2,-4,-5,0,0,-1,2021-08-07 10:49:41,413952
-1,-1,0,-1,-3,-3,-2,-1,2021-08-07 10:49:41,414951
-1,0,-1,-3,-10,-4,-2,-2,2021-08-07 10:49:41,429952
0,-4,-4,-7,2,-1,1,-1,2021-08-07 10:49:41,445952
-2,-4,-7,-9,-4,-1,-2,-2,2021-08-07 10:49:41,445952
-1,0,-1,2,9,6,2,0,2021-08-07 10:49:41,445952
-1,1,5,14,14,4,-1,-4,2021-08-07 10:49:41,445952
-4,-3,0,-4,-5,-3,-4,-5,2021-08-07 10:49:41,445952
0,0,2,1,1,-2,-2,-3,2021-08-07 10:49:41,461952
0,1,-3,-6,-9,-6,-4,-2,2021-08-07 10:49:41,461952
-1,-1,-4,-3,-6,-4,-3,-1,2021-08-07 10:49:41,461952
0,-4,-4,-7,-6,-3,-1,-2,2021-08-07 10:49:41,461952
1,2,-1,-3,-2,0,0,1,2021-08-07 10:49:41,477953
2,1,2,0,0,0,1,3,2021-08-07 10:49:41,493951
0,-3,-3,-3,-5,-1,0,-1,2021-08-07 10:49:41,508952
-3,-2,-3,-1,1,1,0,-2,2021-08-07 10:49:41,508952
0,1,3,7,4,1,-1,0,2021-08-07 10:49:41,508952
-2,-3,-2,0,-1,0,0,-2,2021-08-07 10:49:41,508952
-2,-3,-1,-1,0,1,-2,-2,2021-08-07 10:49:41,508952
-2,-2,-3,-2,-5,-3,-1,0,2021-08-07 10:49:41,508952
-3,-4,-7,-12,-16,-9,-5,-6,2021-08-07 10:49:41,508952
2,4,7,6,17,8,4,3,2021-08-07 10:49:41,509954
3,0,1,8,4,0,0,-1,2021-08-07 10:49:41,524953
-1,1,1,10,14,4,2,1,2021-08-07 10:49:41,540951
-1,0,0,1,1,0,-2,-2,2021-08-07 10:49:41,540951
-7,-6,-8,-15,-18,-9,-9,-6,2021-08-07 10:49:41,540951
-1,0,-1,-1,-1,-1,-1,0,2021-08-07 10:49:41,556951
5,4,5,6,3,3,2,4,2021-08-07 10:49:41,572952
-1,0,-3,-2,-4,-3,0,-1,2021-08-07 10:49:41,572952
0,-1,-4,-6,-15,-7,-2,-3,2021-08-07 10:49:41,572952
-3,-5,-7,-7,10,2,1,-2,2021-08-07 10:49:41,572952
1,2,4,12,7,2,1,-1,2021-08-07 10:49:41,572952
-2,-2,1,2,3,1,-1,0,2021-08-07 10:49:41,572952
3,1,1,1,0,1,1,0,2021-08-07 10:49:41,573951
-1,-3,-6,-11,-11,-3,0,-1,2021-08-07 10:49:41,588953
-1,-1,0,3,-1,-1,-2,0,2021-08-07 10:49:41,604952
0,0,0,2,1,-1,-3,-4,2021-08-07 10:49:41,604952
-4,-3,-4,-8,-12,-9,-5,-4,2021-08-07 10:49:41,604952
2,1,4,14,18,9,1,3,2021-08-07 10:49:41,604952
-4,-3,-3,-9,-7,-5,-4,-4,2021-08-07 10:49:41,604952
-1,-2,-1,-4,-2,2,2,3,2021-08-07 10:49:41,604952
4,4,3,6,5,6,5,4,2021-08-07 10:49:41,604952
0,0,2,6,13,5,-1,-1,2021-08-07 10:49:41,635953
0,-1,-2,-2,-3,-1,0,-1,2021-08-07 10:49:41,635953
-1,-1,0,1,1,-2,-2,-1,2021-08-07 10:49:41,635953
-3,-3,-7,-12,-9,-2,-2,-2,2021-08-07 10:49:41,639952
-2,0,-1,-10,-12,-4,-1,-1,2021-08-07 10:49:41,640952
-3,-4,-5,-9,-14,-6,-3,-1,2021-08-07 10:49:41,640952
5,3,7,20,27,11,6,4,2021-08-07 10:49:41,651953
-1,-1,3,12,10,3,-1,-1,2021-08-07 10:49:41,651953
-3,-1,-2,-2,-8,-8,-4,-4,2021-08-07 10:49:41,667950
0,-4,-4,-16,-25,-6,1,1,2021-08-07 10:49:41,667950
-3,-6,-12,-20,-22,-9,-6,-4,2021-08-07 10:49:41,667950
2,1,7,26,37,12,1,1,2021-08-07 10:49:41,683952
0,-1,0,4,-1,-2,-4,-2,2021-08-07 10:49:41,699952
1,2,-1,-4,-5,-5,-1,0,2021-08-07 10:49:41,699952
1,2,2,-5,-8,-1,2,0,2021-08-07 10:49:41,699952
0,-1,-3,-8,-10,-4,-1,0,2021-08-07 10:49:41,699952
-7,-7,-10,-21,-26,-12,-8,-4,2021-08-07 10:49:41,699952
4,5,12,29,35,17,7,4,2021-08-07 10:49:41,699952
0,0,0,4,3,3,-2,0,2021-08-07 10:49:41,715953
-4,-2,-4,-7,-12,-9,-6,-4,2021-08-07 10:49:41,731952
-3,-4,-4,-3,2,-1,2,-2,2021-08-07 10:49:41,747950
-2,-1,-6,-13,-9,-3,-3,-2,2021-08-07 10:49:41,747950
0,1,2,4,6,3,2,1,2021-08-07 10:49:41,747950
0,0,0,5,1,-3,0,1,2021-08-07 10:49:41,747950
1,1,-2,-7,-10,-3,1,2,2021-08-07 10:49:41,747950
-3,-5,-6,-7,-8,-3,-4,-3,2021-08-07 10:49:41,747950
3,1,5,14,31,10,2,1,2021-08-07 10:49:41,748952
-1,-2,-3,-5,-10,-4,-1,-1,2021-08-07 10:49:41,748952
3,4,3,4,-2,1,0,1,2021-08-07 10:49:41,763952
-1,-1,-1,-2,-5,-4,0,0,2021-08-07 10:49:41,763952
-5,-3,-6,-5,-12,-7,-4,-3,2021-08-07 10:49:41,778950
-2,-1,-4,-5,-5,-1,-1,-2,2021-08-07 10:49:41,778950
0,1,3,1,2,1,0,0,2021-08-07 10:49:41,794975
-3,-2,-3,-3,2,-1,-3,-5,2021-08-07 10:49:41,794975
0,-3,-3,-4,-6,-2,0,-1,2021-08-07 10:49:41,794975
1,0,0,-5,-8,-1,0,0,2021-08-07 10:49:41,795977
4,4,9,23,24,9,3,3,2021-08-07 10:49:41,810977
-1,0,0,-4,-3,-1,-2,0,2021-08-07 10:49:41,826977
-3,-4,-2,-2,-7,-5,-2,-3,2021-08-07 10:49:41,826977
-3,-3,-5,-14,-10,-6,-4,-1,2021-08-07 10:49:41,826977
4,4,3,6,1,3,2,3,2021-08-07 10:49:41,826977
-1,-1,0,3,3,-1,-2,0,2021-08-07 10:49:41,826977
1,0,1,2,3,0,0,-1,2021-08-07 10:49:41,827976
-5,-5,-4,-9,-7,-4,-4,-3,2021-08-07 10:49:41,827976
-3,-3,-6,-17,-17,-7,-3,-1,2021-08-07 10:49:41,842976
0,1,0,8,13,5,1,-1,2021-08-07 10:49:41,842976
-2,-1,0,5,1,-1,0,-1,2021-08-07 10:49:41,842976
3,1,2,4,7,3,1,0,2021-08-07 10:49:41,842976
-3,-3,-4,-5,-5,-2,-2,0,2021-08-07 10:49:41,889976
-2,-3,-5,-6,-11,-6,-3,-3,2021-08-07 10:49:41,905977
-1,0,-2,-6,-5,-1,0,1,2021-08-07 10:49:41,921976
-1,0,2,10,15,4,2,-1,2021-08-07 10:49:41,921976
-3,-3,-3,-4,-6,-6,-1,-2,2021-08-07 10:49:41,937977
-1,-2,-1,-8,-5,1,0,0,2021-08-07 10:49:41,937977
1,3,5,16,16,4,2,1,2021-08-07 10:49:41,937977
0,2,-1,0,-1,-1,0,-1,2021-08-07 10:49:41,937977
-2,-3,-4,-6,-4,-3,-2,-2,2021-08-07 10:49:41,953976
0,-1,1,3,-3,-5,-3,-2,2021-08-07 10:49:41,969976
-4,-4,-5,-8,-8,-3,-4,-3,2021-08-07 10:49:41,969976
0,-1,2,2,1,0,-1,0,2021-08-07 10:49:41,969976
-2,-3,-1,-7,-14,-7,-3,-1,2021-08-07 10:49:41,969976
0,-2,-4,-5,1,0,-1,-3,2021-08-07 10:49:41,969976
1,2,1,-2,4,5,2,1,2021-08-07 10:49:41,970976
-2,-1,-1,6,3,1,0,0,2021-08-07 10:49:41,970976
-2,-1,-2,2,5,4,-1,-2,2021-08-07 10:49:41,970976
-3,-2,-3,-6,-10,-7,-3,-1,2021-08-07 10:49:41,970976
-2,-3,-6,-16,-21,-11,-6,-4,2021-08-07 10:49:41,970976
0,-1,-1,6,12,7,2,0,2021-08-07 10:49:41,970976
-1,-1,0,3,2,0,0,-2,2021-08-07 10:49:41,970976
-1,-3,-5,-9,-2,-2,0,-2,2021-08-07 10:49:41,970976
1,2,6,9,3,0,0,-1,2021-08-07 10:49:41,971977
0,-1,-3,-9,-8,-2,0,0,2021-08-07 10:49:41,971977
1,2,6,16,15,7,2,0,2021-08-07 10:49:42,001234
2,4,5,10,14,7,3,3,2021-08-07 10:49:42,001234
-1,0,0,-2,-5,-1,1,1,2021-08-07 10:49:42,001234
-3,-2,-2,-4,-6,-5,-3,-2,2021-08-07 10:49:42,001234
-3,-4,-3,-4,1,-3,-3,-2,2021-08-07 10:49:42,016494
-4,-5,-4,-8,-9,-4,-2,-2,2021-08-07 10:49:42,016494
0,1,-2,-2,-3,-2,-1,-1,2021-08-07 10:49:42,016494
-1,0,2,3,2,4,0,-1,2021-08-07 10:49:42,016494
2,3,2,-2,-1,1,-1,-1,2021-08-07 10:49:42,032495
-6,-5,-7,-5,-6,-7,-4,-4,2021-08-07 10:49:42,032495
0,-4,-2,0,0,0,-1,1,2021-08-07 10:49:42,032495
-1,0,0,0,-1,-1,-1,-4,2021-08-07 10:49:42,032495
1,1,2,3,5,2,1,1,2021-08-07 10:49:42,064495
3,1,2,3,1,2,0,1,2021-08-07 10:49:42,080492
-3,-2,-3,-6,-4,-3,-2,-3,2021-08-07 10:49:42,084494
-1,-2,-1,0,-3,-3,-2,-2,2021-08-07 10:49:42,084494
-1,-2,0,-1,0,1,1,2,2021-08-07 10:49:42,084494
-1,0,2,1,0,0,-2,0,2021-08-07 10:49:42,084494
1,0,1,0,4,0,1,-1,2021-08-07 10:49:42,085494
-1,-2,-1,1,0,0,-1,0,2021-08-07 10:49:42,085494
-2,-1,-5,-8,-5,-3,-2,-3,2021-08-07 10:49:42,085494
-1,0,1,9,4,0,-1,-1,2021-08-07 10:49:42,085494
-1,-1,-2,0,-2,-1,-2,-3,2021-08-07 10:49:42,085494
0,0,-1,0,0,-1,-1,-1,2021-08-07 10:49:42,085494
-1,0,-3,0,1,0,-1,-1,2021-08-07 10:49:42,112492
-2,-5,-4,-6,-6,-5,-1,-2,2021-08-07 10:49:42,112492
-1,-1,-4,-5,-7,-4,-2,-2,2021-08-07 10:49:42,112492
0,1,3,9,16,4,2,1,2021-08-07 10:49:42,112492
1,-1,1,0,-2,0,1,0,2021-08-07 10:49:42,144492
0,0,1,0,1,0,-1,-1,2021-08-07 10:49:42,144492
1,0,0,2,4,2,-1,0,2021-08-07 10:49:42,144492
-3,-5,-4,-13,-14,-7,-2,-3,2021-08-07 10:49:42,144492
-2,-5,-4,-7,-10,-5,-4,-4,2021-08-07 10:49:42,144492
4,4,7,19,23,11,6,6,2021-08-07 10:49:42,144492
-1,-2,-1,-1,1,0,-2,-1,2021-08-07 10:49:42,144492
1,2,-1,-3,-4,-1,0,0,2021-08-07 10:49:42,145495
-3,-1,1,1,0,-2,0,-1,2021-08-07 10:49:42,175494
0,-1,-2,-8,-11,-5,-2,-1,2021-08-07 10:49:42,175494
-2,-3,-5,-8,-6,-3,-2,-2,2021-08-07 10:49:42,175494
4,1,0,-1,5,4,3,2,2021-08-07 10:49:42,175494
1,-2,-2,0,-4,-1,1,-2,2021-08-07 10:49:42,207494
-3,-4,-4,-4,-6,-1,1,-2,2021-08-07 10:49:42,207494
-2,-2,1,3,2,-1,1,-3,2021-08-07 10:49:42,207494
-3,-1,1,3,0,1,-2,-2,2021-08-07 10:49:42,207494
-3,2,-1,1,3,-3,-4,-2,2021-08-07 10:49:42,207494
2,3,4,9,11,5,-1,1,2021-08-07 10:49:42,207494
-2,1,-1,-3,-6,-3,-3,0,2021-08-07 10:49:42,239493
0,-2,-3,-3,-4,-2,0,0,2021-08-07 10:49:42,239493
2,1,2,1,-2,-2,1,1,2021-08-07 10:49:42,239493
-1,-1,-3,-6,-6,-3,-2,0,2021-08-07 10:49:42,239493
-2,-2,-2,-8,-2,-1,0,-1,2021-08-07 10:49:42,240494
0,3,3,13,10,3,-1,1,2021-08-07 10:49:42,240494
0,2,-1,2,1,1,1,1,2021-08-07 10:49:42,255495
-4,-4,-8,-17,-21,-9,-5,-4,2021-08-07 10:49:42,271494
2,2,0,-1,13,6,3,3,2021-08-07 10:49:42,271494
-4,-4,-1,7,1,0,-3,-3,2021-08-07 10:49:42,271494
2,3,7,16,14,4,2,1,2021-08-07 10:49:42,271494
0,1,2,3,7,2,1,1,2021-08-07 10:49:42,271494
-3,-3,-2,-2,-7,-2,-2,0,2021-08-07 10:49:42,271494
-1,-1,-2,-7,-7,-2,0,-1,2021-08-07 10:49:42,272496
-2,-3,-5,-6,-5,-1,-2,-3,2021-08-07 10:49:42,303494
3,2,1,-3,-6,0,2,1,2021-08-07 10:49:42,319494
-5,-4,-2,1,1,-6,-8,-7,2021-08-07 10:49:42,319494
3,5,4,0,-2,-1,-1,-1,2021-08-07 10:49:42,319494
-2,-3,-1,-4,-4,-2,-2,-2,2021-08-07 10:49:42,320124
-2,-1,0,-7,-9,-4,1,0,2021-08-07 10:49:42,320124
-4,-5,-7,-9,-3,-2,-1,-2,2021-08-07 10:49:42,320494
3,4,7,19,18,8,4,4,2021-08-07 10:49:42,320494
-4,-3,-5,-11,-10,-4,-3,-1,2021-08-07 10:49:42,335517
1,3,1,-1,-1,-5,-3,-1,2021-08-07 10:49:42,351517
-1,-1,1,-4,-14,-7,-4,-2,2021-08-07 10:49:42,351517
-4,-7,-6,-11,-10,-4,-2,-3,2021-08-07 10:49:42,351517
2,0,0,3,9,9,11,3,2021-08-07 10:49:42,367518
-3,0,0,7,11,4,-4,-3,2021-08-07 10:49:42,367518
-1,-2,-1,2,0,-6,-7,-4,2021-08-07 10:49:42,367518
-4,-3,-4,-10,-8,-6,-3,-1,2021-08-07 10:49:42,367518
-1,-3,-1,-4,-3,-4,-3,0,2021-08-07 10:49:42,367518
-1,-2,-1,-1,-3,-1,1,-2,2021-08-07 10:49:42,367518
2,-1,0,-2,-4,3,4,2,2021-08-07 10:49:42,383517
3,1,-2,-2,-3,0,0,0,2021-08-07 10:49:42,383517
0,-1,-1,2,7,1,1,-1,2021-08-07 10:49:42,383517
-3,-2,0,-1,2,1,1,-2,2021-08-07 10:49:42,383517
0,1,3,6,7,3,0,1,2021-08-07 10:49:42,415517
-1,-2,-2,-10,-13,-5,-3,-1,2021-08-07 10:49:42,431517
-2,-2,-1,-4,-5,-3,-4,-3,2021-08-07 10:49:42,431517
-3,-5,-4,-2,-4,-7,-5,-4,2021-08-07 10:49:42,431517
6,6,4,10,10,8,6,7,2021-08-07 10:49:42,431517
-1,-1,-1,-2,-5,-2,0,-3,2021-08-07 10:49:42,431517
0,-1,-6,-7,-13,-8,-4,-3,2021-08-07 10:49:42,431517
0,0,-2,-11,1,4,2,1,2021-08-07 10:49:42,432518
-3,0,4,15,14,3,1,-1,2021-08-07 10:49:42,432518
0,-1,-2,-6,-5,-2,-1,-1,2021-08-07 10:49:42,432518
-1,3,2,4,5,1,0,1,2021-08-07 10:49:42,447517
-6,-6,-9,-11,-15,-8,-3,-4,2021-08-07 10:49:42,462517
2,3,2,-5,-6,2,3,2,2021-08-07 10:49:42,509516
1,-1,3,10,10,5,0,0,2021-08-07 10:49:42,509516
-4,-4,-5,-9,-10,-7,-4,-4,2021-08-07 10:49:42,509516
-2,-3,-5,-5,-8,-3,-3,-2,2021-08-07 10:49:42,509516
1,0,0,1,7,2,-1,0,2021-08-07 10:49:42,509516
-4,-3,-2,-3,-2,-4,-4,-3,2021-08-07 10:49:42,509516
-1,-2,-4,-5,-4,0,-1,0,2021-08-07 10:49:42,510519
4,3,3,7,4,5,3,3,2021-08-07 10:49:42,510519
1,3,4,11,14,5,3,0,2021-08-07 10:49:42,510519
-5,-4,-5,-13,-12,-6,-2,-3,2021-08-07 10:49:42,510519
-1,0,3,6,3,3,0,2,2021-08-07 10:49:42,510519
0,0,2,-2,-3,-3,-1,-2,2021-08-07 10:49:42,510519
-2,-1,-2,0,-1,0,-1,-2,2021-08-07 10:49:42,510519
0,0,4,17,25,7,4,2,2021-08-07 10:49:42,511517
0,1,1,0,-1,-1,-1,1,2021-08-07 10:49:42,540519
-3,-3,-3,-3,-4,-2,-2,-1,2021-08-07 10:49:42,556034
-1,-2,-3,-7,-14,-6,-3,-1,2021-08-07 10:49:42,588034
1,1,-1,-4,-4,-2,-2,-1,2021-08-07 10:49:42,603034
0,0,2,4,5,3,1,-1,2021-08-07 10:49:42,603034
1,0,1,2,-1,-1,-1,-1,2021-08-07 10:49:42,603034
-4,-5,-4,-11,-8,-5,-3,-4,2021-08-07 10:49:42,603034
-2,-1,-2,5,0,0,-1,-2,2021-08-07 10:49:42,603034
0,-1,-1,-3,-2,-1,1,-1,2021-08-07 10:49:42,603034
1,0,0,-1,1,-1,-2,-1,2021-08-07 10:49:42,604036
-3,-4,-2,-4,-2,-1,-1,0,2021-08-07 10:49:42,604036
-2,-3,-1,4,-1,0,-1,-1,2021-08-07 10:49:42,604036
1,5,5,7,5,2,1,3,2021-08-07 10:49:42,604036
2,3,0,0,-10,-5,-1,1,2021-08-07 10:49:42,604036
0,-2,-4,-2,8,1,0,-2,2021-08-07 10:49:42,604036
-2,-1,-1,-3,-2,-4,-2,-1,2021-08-07 10:49:42,604036
-3,-4,-2,1,2,0,-2,-1,2021-08-07 10:49:42,619033
-3,-4,-5,-15,-15,-5,-2,-2,2021-08-07 10:49:42,619033
0,-1,3,19,17,4,1,-1,2021-08-07 10:49:42,619033
0,-1,-3,-8,-6,-1,-1,0,2021-08-07 10:49:42,619033
2,0,2,8,5,1,0,-2,2021-08-07 10:49:42,635034
-1,-2,-3,0,1,-3,-2,-3,2021-08-07 10:49:42,635034
-2,-2,-6,-13,-16,-6,-1,-2,2021-08-07 10:49:42,635034
-2,-2,-2,-9,-6,-3,-3,-1,2021-08-07 10:49:42,635034
3,2,1,2,3,3,0,1,2021-08-07 10:49:42,651033
-1,0,1,4,8,2,2,1,2021-08-07 10:49:42,651033
0,1,2,1,-4,-1,1,0,2021-08-07 10:49:42,651033
-3,-3,-5,-5,-5,-4,-2,-2,2021-08-07 10:49:42,652034
-2,-4,-3,-8,-9,-3,-4,-3,2021-08-07 10:49:42,683033
-1,0,-1,3,6,2,1,0,2021-08-07 10:49:42,683033
-1,-3,-2,2,-2,-1,0,-2,2021-08-07 10:49:42,683033
2,3,4,7,6,4,2,2,2021-08-07 10:49:42,683033
-2,-2,-2,0,1,0,1,-2,2021-08-07 10:49:42,683033
2,2,2,1,0,-2,0,1,2021-08-07 10:49:42,684035
-2,-4,-6,-17,-12,-5,-4,-4,2021-08-07 10:49:42,699034
1,3,2,3,3,0,0,0,2021-08-07 10:49:42,699034
-3,-1,-1,4,4,1,-1,-1,2021-08-07 10:49:42,715034
-1,0,-2,2,6,2,0,-3,2021-08-07 10:49:42,731034
-1,-1,-2,-9,-10,-3,-1,0,2021-08-07 10:49:42,731034
0,-2,-2,-5,-3,-1,-1,0,2021-08-07 10:49:42,731034
-1,-1,-1,-3,1,-1,-1,-1,2021-08-07 10:49:42,731034
-3,-1,0,-1,0,-1,0,-3,2021-08-07 10:49:42,731034
0,2,0,2,1,-1,0,1,2021-08-07 10:49:42,731034
-2,-2,-2,-3,-3,-2,0,-1,2021-08-07 10:49:42,731034
1,-1,0,0,-2,0,-2,0,2021-08-07 10:49:42,747034
1,0,2,8,9,3,-1,-2,2021-08-07 10:49:42,763033
1,2,2,3,2,1,1,0,2021-08-07 10:49:42,763033
-2,-5,-4,-8,-8,-7,-3,-3,2021-08-07 10:49:42,763033
-2,-3,-7,-12,-9,-4,-3,-3,2021-08-07 10:49:42,779034
0,1,3,7,7,1,1,1,2021-08-07 10:49:42,779034
0,1,2,5,5,3,0,0,2021-08-07 10:49:42,795034
-1,-4,-4,-7,-9,-4,-1,-3,2021-08-07 10:49:42,811035
-2,-1,0,1,0,-1,-2,-1,2021-08-07 10:49:42,811035
0,0,1,3,1,2,0,0,2021-08-07 10:49:42,811035
0,-1,-2,-3,-4,-3,-1,-2,2021-08-07 10:49:42,811035
2,2,2,7,5,2,0,-1,2021-08-07 10:49:42,811035
-2,-2,-4,-10,-7,-4,-1,-3,2021-08-07 10:49:42,811035
1,0,5,14,9,5,4,1,2021-08-07 10:49:42,811035
-1,-2,-2,-1,-1,-3,-2,-1,2021-08-07 10:49:42,827036
-4,-3,-5,-7,-6,-2,-2,-3,2021-08-07 10:49:42,827036
2,2,0,-4,-1,-2,-1,2,2021-08-07 10:49:42,827036
-2,-2,-2,-4,-3,-2,-5,-3,2021-08-07 10:49:42,827036
0,-2,-3,-7,-9,-2,-2,-1,2021-08-07 10:49:42,827036
1,0,-2,-3,0,1,0,0,2021-08-07 10:49:42,827036
-1,0,1,1,2,1,2,0,2021-08-07 10:49:42,858034
0,-1,-5,-7,-12,-5,-3,0,2021-08-07 10:49:42,874033
1,1,3,11,11,4,3,0,2021-08-07 10:49:42,874033
-1,-1,-2,-7,1,0,-2,-1,2021-08-07 10:49:42,874033
-2,-4,-5,-8,2,1,1,-1,2021-08-07 10:49:42,874033
2,3,5,9,5,3,2,1,2021-08-07 10:49:42,874033
-5,-2,-3,-4,-5,-2,-1,-2,2021-08-07 10:49:42,874033
-1,3,2,2,-4,-2,0,1,2021-08-07 10:49:42,874033
-1,-1,-2,-6,-5,-2,-1,-1,2021-08-07 10:49:42,890034
-2,-5,-3,-6,-7,-4,-3,-1,2021-08-07 10:49:42,906033
-4,-5,-6,-15,-18,-10,-5,-2,2021-08-07 10:49:42,922034
3,4,7,16,21,10,2,4,2021-08-07 10:49:42,922034
2,3,6,17,13,4,2,1,2021-08-07 10:49:42,922034
-1,-4,-3,-4,-3,-1,-2,-1,2021-08-07 10:49:42,922034
-2,-3,-3,-3,-5,-2,-1,1,2021-08-07 10:49:42,922034
-3,-4,-7,-14,-15,-9,-1,-2,2021-08-07 10:49:42,923035
-1,0,4,12,14,9,2,0,2021-08-07 10:49:42,938033
-2,-2,1,6,6,0,-2,-2,2021-08-07 10:49:42,938033
-3,0,-1,-4,-1,-1,-2,-3,2021-08-07 10:49:42,938033
-2,0,1,-1,-6,-5,-4,-2,2021-08-07 10:49:42,938033
-2,0,-5,-2,-7,-6,-3,-1,2021-08-07 10:49:42,945034
0,2,2,-2,2,0,-1,1,2021-08-07 10:49:42,945034
2,-1,0,-2,5,1,0,1,2021-08-07 10:49:42,954033
-2,-3,-2,-1,-7,-4,-2,-1,2021-08-07 10:49:42,954033
1,-1,2,2,0,2,1,0,2021-08-07 10:49:42,986035
1,-3,-2,-5,-1,0,0,-1,2021-08-07 10:49:43,002034
3,4,3,6,1,1,1,0,2021-08-07 10:49:43,017035
-1,-3,0,-2,-3,-3,-3,-5,2021-08-07 10:49:43,017035
-3,-4,-6,-16,-22,-9,-5,-2,2021-08-07 10:49:43,017035
1,1,5,15,33,12,3,1,2021-08-07 10:49:43,017035
-2,-1,-2,-7,-11,-5,-3,-2,2021-08-07 10:49:43,017035
3,3,4,16,22,10,6,3,2021-08-07 10:49:43,017035
-1,-1,-1,-2,1,2,1,0,2021-08-07 10:49:43,017035
-3,-2,-4,-6,-14,-9,-4,-4,2021-08-07 10:49:43,017035
-2,-2,3,8,9,2,-2,-1,2021-08-07 10:49:43,017035
-2,0,-3,-4,-8,-5,-4,-1,2021-08-07 10:49:43,018035
-1,-2,-4,-6,-7,-4,-2,0,2021-08-07 10:49:43,033034
-2,-1,-2,-2,-2,2,1,1,2021-08-07 10:49:43,033034
0,-1,-3,-3,-1,-4,-3,-1,2021-08-07 10:49:43,033034
-4,-3,-4,-7,-13,-4,-2,-2,2021-08-07 10:49:43,033034
1,2,4,9,18,7,2,2,2021-08-07 10:49:43,064034
-3,-3,-4,-5,-7,-2,0,-2,2021-08-07 10:49:43,080034
-1,-2,-4,-3,-4,-2,-1,0,2021-08-07 10:49:43,080034
0,0,1,0,4,2,0,1,2021-08-07 10:49:43,080034
-2,-2,0,2,-5,-3,-4,-2,2021-08-07 10:49:43,080034
0,2,-1,-1,-3,-2,-2,-1,2021-08-07 10:49:43,080034
-3,-1,0,7,8,2,0,-1,2021-08-07 10:49:43,080034
0,0,-3,-6,0,0,-1,0,2021-08-07 10:49:43,081035
0,1,2,5,-1,-2,0,0,2021-08-07 10:49:43,095034
-5,-5,-10,-20,-23,-11,-6,-5,2021-08-07 10:49:43,111035
1,-1,3,11,8,5,3,2,2021-08-07 10:49:43,127032
0,1,2,1,11,5,2,-1,2021-08-07 10:49:43,127032
1,3,2,7,6,3,1,-1,2021-08-07 10:49:43,127032
0,-2,-2,-4,-5,-5,0,0,2021-08-07 10:49:43,127032
-2,-3,-6,-4,-6,-4,-2,0,2021-08-07 10:49:43,127032
-5,-6,-6,-12,-13,-8,-5,-4,2021-08-07 10:49:43,127032
2,4,5,7,9,3,1,-3,2021-08-07 10:49:43,128034
-1,0,0,-4,-6,-1,2,1,2021-08-07 10:49:43,128034
-3,-2,-3,-8,-9,-2,-2,-3,2021-08-07 10:49:43,143034
-1,-2,2,11,11,0,-3,-2,2021-08-07 10:49:43,143034
0,-2,-3,-9,-4,-2,0,1,2021-08-07 10:49:43,159034
1,2,3,12,6,4,1,-1,2021-08-07 10:49:43,175034
-1,-1,-3,-8,-5,-2,1,-1,2021-08-07 10:49:43,175034
1,0,-1,2,-5,-1,1,1,2021-08-07 10:49:43,175034
-4,-4,-4,-7,-8,-6,-2,-2,2021-08-07 10:49:43,175034
-1,-1,2,1,6,1,2,0,2021-08-07 10:49:43,175034
-1,-2,-3,-2,3,0,-1,-1,2021-08-07 10:49:43,175034
2,0,0,1,-2,1,0,0,2021-08-07 10:49:43,176034
-3,-2,0,-1,-6,-2,-2,0,2021-08-07 10:49:43,191035
0,2,1,4,11,7,1,1,2021-08-07 10:49:43,191035
0,1,1,2,1,-1,0,-2,2021-08-07 10:49:43,191035
0,-3,-2,-4,-3,0,0,0,2021-08-07 10:49:43,191035
-2,-5,-4,-6,-6,-4,-4,-3,2021-08-07 10:49:43,222034
-1,0,0,2,6,1,-2,-2,2021-08-07 10:49:43,238035
-2,0,1,1,0,0,-1,-1,2021-08-07 10:49:43,254032
-2,-4,-2,-5,-4,-4,-2,-1,2021-08-07 10:49:43,254032
1,2,-2,1,-4,1,1,1,2021-08-07 10:49:43,254032
-1,-2,-3,-4,-7,-5,-3,-2,2021-08-07 10:49:43,254032
1,1,0,0,3,2,-2,0,2021-08-07 10:49:43,254032
-4,-2,-3,-3,-4,-1,-2,-1,2021-08-07 10:49:43,254032
-4,-3,-4,-6,-2,-3,-2,-2,2021-08-07 10:49:43,254032
2,1,1,5,4,1,1,0,2021-08-07 10:49:43,255034
0,2,0,1,0,0,0,0,2021-08-07 10:49:43,255034
-1,0,-2,-2,-3,-1,0,-1,2021-08-07 10:49:43,255034
0,-1,-2,0,0,-1,-1,-2,2021-08-07 10:49:43,285033
-3,-1,-2,-3,-1,-1,-3,-1,2021-08-07 10:49:43,301032
-2,-3,-1,-1,0,1,2,0,2021-08-07 10:49:43,301032
2,2,0,0,-1,1,0,-1,2021-08-07 10:49:43,301032
-3,-1,-2,-2,0,0,0,0,2021-08-07 10:49:43,317033
-1,-2,0,3,-1,-1,0,-3,2021-08-07 10:49:43,317033
0,2,0,0,-2,-1,-1,-2,2021-08-07 10:49:43,317033
0,2,1,0,2,2,-1,2,2021-08-07 10:49:43,317033
-2,-5,-3,-5,-3,-1,-2,-3,2021-08-07 10:49:43,317033
-3,-1,-2,0,2,-1,-1,-1,2021-08-07 10:49:43,318035
-1,-3,-1,-4,-2,-3,-2,-1,2021-08-07 10:49:43,318035
-3,-5,-5,-6,-8,-5,-2,-4,2021-08-07 10:49:43,318035
1,0,1,-1,-2,0,0,2,2021-08-07 10:49:43,333033
1,1,3,5,2,0,0,1,2021-08-07 10:49:43,333033
-1,-2,-3,-3,-2,-3,-1,-4,2021-08-07 10:49:43,333033
2,4,5,9,9,3,4,1,2021-08-07 10:49:43,333033
-1,-2,-3,-4,-7,-3,0,-4,2021-08-07 10:49:43,365033
-2,0,-2,-2,-3,-1,-2,0,2021-08-07 10:49:43,365033
-1,-2,-4,-3,-5,-1,-2,-2,2021-08-07 10:49:43,365033
-2,-4,-2,-4,-2,-2,-2,-1,2021-08-07 10:49:43,365033
-1,-1,-1,0,0,-1,-2,-2,2021-08-07 10:49:43,365033
-1,-1,-2,-4,-11,-3,-1,-2,2021-08-07 10:49:43,365033
0,-1,-1,-3,1,1,-1,1,2021-08-07 10:49:43,381034
-1,2,1,2,3,0,0,1,2021-08-07 10:49:43,391033
2,2,5,10,7,2,2,1,2021-08-07 10:49:43,391033
-5,-6,-6,-12,-6,-1,-3,-5,2021-08-07 10:49:43,391033
1,0,0,5,6,4,3,1,2021-08-07 10:49:43,392034
2,5,3,2,-2,-1,0,1,2021-08-07 10:49:43,392034
-1,-1,0,2,1,0,0,0,2021-08-07 10:49:43,429034
-1,0,-2,-6,-9,-4,-2,-1,2021-08-07 10:49:43,445034
-3,-5,-4,-5,-3,-2,-1,0,2021-08-07 10:49:43,445034
0,0,-2,0,4,6,4,0,2021-08-07 10:49:43,445034
-2,-2,-2,-7,-6,-5,-5,0,2021-08-07 10:49:43,445034
-1,-3,-3,1,-1,-8,-8,-4,2021-08-07 10:49:43,445034
-2,1,3,6,4,-2,-1,-2,2021-08-07 10:49:43,445034
0,-1,0,1,2,1,1,2,2021-08-07 10:49:43,446035
-1,-1,-2,-1,-2,2,2,-1,2021-08-07 10:49:43,461033
-5,-5,-7,-8,-4,-2,-1,-2,2021-08-07 10:49:43,461033
8,11,14,20,15,8,5,6,2021-08-07 10:49:43,461033
-3,-5,-6,-3,-10,-3,-3,-4,2021-08-07 10:49:43,461033
-5,-4,-4,-3,4,2,0,-3,2021-08-07 10:49:43,477034
0,-1,-1,-3,0,0,1,-2,2021-08-07 10:49:43,493034
-4,-3,-5,-5,-6,-4,-3,-4,2021-08-07 10:49:43,493034
0,1,0,2,2,1,0,1,2021-08-07 10:49:43,493034
2,3,2,-1,-2,-1,0,0,2021-08-07 10:49:43,493034
-2,-1,-1,-1,-1,1,-1,0,2021-08-07 10:49:43,493034
-5,-5,-4,-6,-9,-4,-3,-3,2021-08-07 10:49:43,493034
-2,-4,-2,-3,-5,-5,-5,-1,2021-08-07 10:49:43,493034
-9,-10,-10,-13,-18,-10,-7,-6,2021-08-07 10:49:43,524034
11,12,15,28,40,18,11,7,2021-08-07 10:49:43,524034
-1,-3,-3,-3,-6,0,-2,-4,2021-08-07 10:49:43,524034
0,0,-2,-1,1,-2,-1,-2,2021-08-07 10:49:43,524034
2,1,2,2,-4,-3,-1,0,2021-08-07 10:49:43,540032
-4,-7,-8,-18,-17,-7,-2,-3,2021-08-07 10:49:43,556034
-2,0,1,9,5,2,1,1,2021-08-07 10:49:43,556034
-3,-5,-3,3,1,0,-1,-3,2021-08-07 10:49:43,556034
0,-1,-4,-6,-1,-2,1,0,2021-08-07 10:49:43,556034
5,8,8,7,1,1,2,2,2021-08-07 10:49:43,556034
2,1,0,2,5,2,-1,1,2021-08-07 10:49:43,556034
-5,-5,-6,-16,-17,-10,-6,-4,2021-08-07 10:49:43,556034
4,4,6,9,7,6,4,2,2021-08-07 10:49:43,587034
-3,-5,-5,-2,6,3,0,-3,2021-08-07 10:49:43,603033
-2,-2,-1,-2,-5,-5,-4,-3,2021-08-07 10:49:43,619033
0,0,0,5,7,0,-2,-2,2021-08-07 10:49:43,619033
-2,-1,0,0,0,-1,-1,1,2021-08-07 10:49:43,619033
-2,-3,-1,-8,-20,-9,-5,-2,2021-08-07 10:49:43,619033
-1,-1,0,1,11,7,2,-1,2021-08-07 10:49:43,619033
0,0,4,15,14,6,3,2,2021-08-07 10:49:43,619033
1,2,2,2,4,3,2,0,2021-08-07 10:49:43,619033
0,-2,-1,-6,-12,-4,-2,-2,2021-08-07 10:49:43,620034
-2,-2,-4,-7,-12,-7,-4,-1,2021-08-07 10:49:43,620034
-1,-1,-2,-3,2,2,-1,-2,2021-08-07 10:49:43,620034
0,0,-3,-2,-1,-3,-1,-1,2021-08-07 10:49:43,635034
-4,-2,-5,-4,-5,-4,-2,-2,2021-08-07 10:49:43,651035
2,2,2,-6,-6,-3,2,2,2021-08-07 10:49:43,651035
-2,-1,-1,6,6,3,-2,-3,2021-08-07 10:49:43,651035
-2,-1,-2,1,0,2,-1,0,2021-08-07 10:49:43,651035
0,-1,1,-1,-1,-1,-1,-1,2021-08-07 10:49:43,651035
-3,-2,-3,-7,-9,-5,-2,-1,2021-08-07 10:49:43,652034
2,1,0,-4,-2,0,2,0,2021-08-07 10:49:43,652034
0,1,2,-3,-11,-6,-4,-2,2021-08-07 10:49:43,683034
0,1,0,1,8,4,0,3,2021-08-07 10:49:43,699034
2,2,7,27,34,16,7,3,2021-08-07 10:49:43,714033
-3,-3,-4,-9,-14,-5,-3,-4,2021-08-07 10:49:43,714033
-2,-4,-5,-6,-12,-6,-3,-4,2021-08-07 10:49:43,714033
3,4,4,5,5,3,3,1,2021-08-07 10:49:43,714033
-3,-4,-5,-10,-12,-6,-3,-2,2021-08-07 10:49:43,714033
1,1,2,2,3,2,0,1,2021-08-07 10:49:43,714033
-2,-2,-3,-3,4,0,-1,-2,2021-08-07 10:49:43,714033
-3,-4,-1,4,2,1,0,0,2021-08-07 10:49:43,715034
-3,-3,-2,-6,-10,-6,-2,-2,2021-08-07 10:49:43,715034
-6,-6,-5,-6,-16,-9,-7,-5,2021-08-07 10:49:43,715034
-3,-2,-2,-3,2,1,-3,-4,2021-08-07 10:49:43,730035
0,-1,0,5,7,3,1,-1,2021-08-07 10:49:43,746032
2,3,2,4,3,0,0,-2,2021-08-07 10:49:43,762034
-5,-3,-6,-17,-18,-9,-5,-3,2021-08-07 10:49:43,762034
2,-1,2,6,5,2,1,1,2021-08-07 10:49:43,762034
-1,-1,-1,1,4,-1,-3,-2,2021-08-07 10:49:43,762034
7,4,3,6,4,3,5,4,2021-08-07 10:49:43,762034
2,4,0,-8,-11,-1,2,2,2021-08-07 10:49:43,763034
-2,-2,-1,2,-6,-5,-1,-2,2021-08-07 10:49:43,778033
-3,-4,-3,6,20,7,1,-1,2021-08-07 10:49:43,778033
-4,-4,-7,-19,-14,-5,-3,-2,2021-08-07 10:49:43,778033
1,3,5,16,26,6,1,0,2021-08-07 10:49:43,778033
-1,1,0,2,1,-1,-1,1,2021-08-07 10:49:43,794034
0,0,1,6,-1,-1,-1,1,2021-08-07 10:49:43,794034
-4,-3,-4,-8,-11,-6,-5,-3,2021-08-07 10:49:43,794034
0,-2,-4,-7,-4,-1,-1,-3,2021-08-07 10:49:43,794034
3,3,1,-5,-6,-3,0,1,2021-08-07 10:49:43,818033
-1,-2,-4,-6,-8,-4,-1,-1,2021-08-07 10:49:43,818033
-2,-1,2,9,17,7,-1,-1,2021-08-07 10:49:43,818033
-3,-4,-2,-2,-12,-5,-3,-4,2021-08-07 10:49:43,825034
-3,-4,-7,-26,-12,0,0,1,2021-08-07 10:49:43,841034
10,11,12,33,26,10,7,6,2021-08-07 10:49:43,841034
-10,-8,-8,-9,-14,-13,-8,-8,2021-08-07 10:49:43,841034
3,5,3,3,4,1,2,1,2021-08-07 10:49:43,841034
-7,-8,-11,-22,-31,-12,-2,-4,2021-08-07 10:49:43,856034
6,2,-2,-7,2,9,6,7,2021-08-07 10:49:43,872033
-4,-1,6,23,23,-2,-6,-6,2021-08-07 10:49:43,872033
-2,-4,-2,0,-4,-4,-3,-2,2021-08-07 10:49:43,872033
-3,0,-1,2,-5,-4,-2,-2,2021-08-07 10:49:43,872033
-8,-9,-16,-41,-54,-19,-6,-6,2021-08-07 10:49:43,872033
10,10,13,22,41,23,12,8,2021-08-07 10:49:43,872033
3,3,7,16,24,9,4,2,2021-08-07 10:49:43,872033
-1,-1,0,6,12,3,0,0,2021-08-07 10:49:43,903034
-8,-5,-4,-2,-12,-8,-5,-7,2021-08-07 10:49:43,903034
-2,-4,-10,-28,-35,-13,-6,-3,2021-08-07 10:49:43,903034
1,2,0,3,10,6,2,1,2021-08-07 10:49:43,903034
1,1,4,17,15,5,2,1,2021-08-07 10:49:43,919034
1,4,2,-2,-10,-6,-3,0,2021-08-07 10:49:43,919034
-4,-6,-7,-14,-13,-5,-3,-2,2021-08-07 10:49:43,919034
3,2,2,-1,1,4,3,3,2021-08-07 10:49:43,919034
-4,-6,-4,-2,-1,-3,-4,-4,2021-08-07 10:49:43,935033
-1,-2,1,7,12,4,0,-2,2021-08-07 10:49:43,950032
1,1,-1,-7,-9,-1,-1,1,2021-08-07 10:49:43,950032
1,1,6,20,16,5,3,1,2021-08-07 10:49:43,950032
-3,-3,-3,-5,-11,-7,-5,-3,2021-08-07 10:49:43,950032
-4,-3,-5,-19,-30,-14,-7,-4,2021-08-07 10:49:43,950032
4,3,5,13,21,10,5,3,2021-08-07 10:49:43,966032
-1,0,4,22,29,9,1,-2,2021-08-07 10:49:43,982033
0,0,0,0,-1,2,1,-3,2021-08-07 10:49:43,982033
-4,-4,-2,-6,-20,-8,-5,-5,2021-08-07 10:49:43,982033
3,5,4,10,24,9,5,3,2021-08-07 10:49:43,982033
-2,-5,-7,-14,-16,-7,-4,-3,2021-08-07 10:49:43,982033
1,0,3,7,12,3,0,0,2021-08-07 10:49:43,998033
-5,-5,-6,-10,-11,-8,-6,-3,2021-08-07 10:49:44,014032
-2,-2,-2,-16,-18,-5,0,0,2021-08-07 10:49:44,014032
0,-1,-1,3,-2,-1,0,-1,2021-08-07 10:49:44,014032
0,-1,-6,-11,-9,-4,-4,-1,2021-08-07 10:49:44,014032
0,-1,0,0,3,2,-1,-2,2021-08-07 10:49:44,014032
-3,-3,-3,0,-2,-1,-2,-2,2021-08-07 10:49:44,014032
-1,0,-2,0,2,1,1,-2,2021-08-07 10:49:44,014032
4,5,5,1,-6,0,1,4,2021-08-07 10:49:44,046034
-1,0,-2,-8,2,1,0,0,2021-08-07 10:49:44,046034
0,-1,0,0,-6,-4,-2,-1,2021-08-07 10:49:44,046034
-5,-3,-5,-9,-18,-8,-4,-4,2021-08-07 10:49:44,046034
3,2,2,21,35,16,4,2,2021-08-07 10:49:44,078032
6,6,7,5,7,2,3,3,2021-08-07 10:49:44,094032
-4,-3,-4,2,-2,-2,-3,-2,2021-08-07 10:49:44,110033
-2,-3,-7,-22,-19,-9,-3,-2,2021-08-07 10:49:44,110033
-3,-2,-4,-9,-11,-4,-2,-2,2021-08-07 10:49:44,126034
-2,0,1,15,25,8,1,0,2021-08-07 10:49:44,126034
-2,-3,-5,-10,-23,-9,-6,-4,2021-08-07 10:49:44,126034
0,0,0,-4,-5,0,-1,0,2021-08-07 10:49:44,126034
-2,-1,-2,-11,-13,-6,-2,0,2021-08-07 10:49:44,126034
0,-1,2,11,21,7,1,0,2021-08-07 10:49:44,126034
0,1,1,-2,-10,-3,-1,0,2021-08-07 10:49:44,127034
-4,-3,-4,-9,1,-1,-3,-2,2021-08-07 10:49:44,127034
-4,-3,1,0,-7,-2,-2,0,2021-08-07 10:49:44,127034
0,-1,0,-2,-17,-8,-2,0,2021-08-07 10:49:44,127034
0,-2,2,14,15,6,0,-1,2021-08-07 10:49:44,142033
-3,-4,-5,-12,-5,-5,-3,-5,2021-08-07 10:49:44,158033
-4,-4,-3,4,-5,-4,-3,-3,2021-08-07 10:49:44,158033
0,2,-1,1,8,4,3,1,2021-08-07 10:49:44,158033
-2,-1,-1,-4,-11,-5,0,-1,2021-08-07 10:49:44,158033
1,1,2,3,-5,-3,0,0,2021-08-07 10:49:44,158033
-1,0,-4,-10,-17,-7,-6,-3,2021-08-07 10:49:44,158033
-5,-4,-1,-3,7,2,-1,-3,2021-08-07 10:49:44,159036
-1,-1,-5,-12,-5,-2,-2,1,2021-08-07 10:49:44,174033
1,1,3,6,8,2,1,1,2021-08-07 10:49:44,174033
1,1,3,6,8,1,0,1,2021-08-07 10:49:44,174033
-2,-6,-7,-14,-21,-10,-6,-4,2021-08-07 10:49:44,174033
2,1,1,-4,-5,0,2,0,2021-08-07 10:49:44,174033
-3,-2,-3,-5,-8,-2,0,-1,2021-08-07 10:49:44,174033
2,4,6,17,22,8,5,1,2021-08-07 10:49:44,205034
-2,-6,-6,-8,-14,-6,-1,-2,2021-08-07 10:49:44,205034
-1,1,0,-4,-8,-5,-2,0,2021-08-07 10:49:44,205034
5,3,4,10,9,6,3,4,2021-08-07 10:49:44,205034
0,1,2,1,-2,5,1,-1,2021-08-07 10:49:44,221033
2,2,3,24,48,14,4,2,2021-08-07 10:49:44,221033
-5,-6,-6,-3,-16,-9,-6,-7,2021-08-07 10:49:44,221033
0,-3,-3,-12,-14,-5,-1,2,2021-08-07 10:49:44,221033
6,9,8,8,6,2,3,2,2021-08-07 10:49:44,237034
-2,-1,-6,-12,-23,-9,-3,-2,2021-08-07 10:49:44,237034
-2,-5,-1,2,5,3,0,0,2021-08-07 10:49:44,237034
-2,1,2,9,14,4,0,0,2021-08-07 10:49:44,237034
-3,-2,-2,1,9,4,2,0,2021-08-07 10:49:44,268034
-2,-2,-2,-10,-16,-5,-4,-3,2021-08-07 10:49:44,284035
-1,-1,-3,-7,-6,-2,-1,-1,2021-08-07 10:49:44,284035
1,-2,-1,4,0,0,-1,0,2021-08-07 10:49:44,284035
-1,-3,-1,2,3,-2,-1,-1,2021-08-07 10:49:44,284035
-1,-2,-1,-5,-14,-7,-2,-3,2021-08-07 10:49:44,284035
1,2,0,8,21,9,3,1,2021-08-07 10:49:44,300034
-4,-3,-1,-2,-3,-2,-1,-3,2021-08-07 10:49:44,300034
0,0,-1,-5,-2,0,1,0,2021-08-07 10:49:44,300034
-1,-1,3,12,8,0,0,-1,2021-08-07 10:49:44,300034
0,0,1,-2,10,4,3,1,2021-08-07 10:49:44,300034
-3,-2,-2,-2,-12,-4,-5,-2,2021-08-07 10:49:44,300034
-3,-3,-3,-2,0,-2,-4,-4,2021-08-07 10:49:44,316036
-2,0,-3,-19,-23,-9,-1,0,2021-08-07 10:49:44,316036
-3,-2,0,6,18,7,0,-1,2021-08-07 10:49:44,316036
-2,-2,-1,1,5,1,0,-1,2021-08-07 10:49:44,316036
-2,-5,-6,-9,-7,-5,-3,-3,2021-08-07 10:49:44,348034
-3,-3,-4,-4,-7,-2,-3,-1,2021-08-07 10:49:44,348034
3,4,1,1,-6,-4,-2,3,2021-08-07 10:49:44,348034
4,1,3,4,-5,-2,1,-1,2021-08-07 10:49:44,348034
0,-2,-2,5,21,12,2,2,2021-08-07 10:49:44,348034
-1,0,0,8,21,9,0,-2,2021-08-07 10:49:44,348034
-1,-4,-5,-16,-28,-14,-4,0,2021-08-07 10:49:44,364033
-1,5,2,2,-3,-3,-1,0,2021-08-07 10:49:44,364033
2,1,0,-7,-8,-3,-1,1,2021-08-07 10:49:44,380034
0,-2,0,3,4,1,-1,1,2021-08-07 10:49:44,380034
-4,-5,-3,-1,-1,-1,-1,-3,2021-08-07 10:49:44,380034
-3,-5,-10,-30,-36,-15,-7,-4,2021-08-07 10:49:44,380034
1,2,5,13,25,10,4,1,2021-08-07 10:49:44,396035
1,1,-1,-3,-9,-3,-1,1,2021-08-07 10:49:44,412036
5,4,7,22,45,17,8,2,2021-08-07 10:49:44,412036
-3,-3,-2,0,-6,-3,0,0,2021-08-07 10:49:44,412036
-2,-3,-2,-9,-16,-6,-2,-2,2021-08-07 10:49:44,412036
0,1,2,7,10,5,3,1,2021-08-07 10:49:44,412036
1,0,3,4,0,0,-1,-2,2021-08-07 10:49:44,428034
0,-1,-2,-5,-10,-4,-1,-1,2021-08-07 10:49:44,428034
-1,-3,-1,7,14,5,1,1,2021-08-07 10:49:44,443034
2,4,0,-14,-13,-6,-2,-1,2021-08-07 10:49:44,443034
-1,1,1,11,12,5,1,-2,2021-08-07 10:49:44,443034
-5,-5,-5,-6,-2,-1,-4,-4,2021-08-07 10:49:44,443034
-4,-3,-4,-18,-23,-12,-4,-3,2021-08-07 10:49:44,459034
-2,-5,-6,-23,-27,-5,-1,-1,2021-08-07 10:49:44,475033
0,2,3,11,19,7,3,2,2021-08-07 10:49:44,475033
2,1,7,15,9,2,1,0,2021-08-07 10:49:44,475033
3,4,4,12,10,5,2,0,2021-08-07 10:49:44,475033
-5,-2,-3,2,7,-2,-3,-3,2021-08-07 10:49:44,475033
-1,-2,-6,-23,-30,-10,-4,-4,2021-08-07 10:49:44,476034
-4,-8,-7,-11,-9,-3,-3,-3,2021-08-07 10:49:44,476034
1,0,2,12,12,1,-1,0,2021-08-07 10:49:44,507034
-1,1,-2,-5,-6,-2,-2,-2,2021-08-07 10:49:44,507034
2,3,5,18,21,7,3,1,2021-08-07 10:49:44,507034
-2,-2,-5,-8,-11,-7,-2,-3,2021-08-07 10:49:44,507034
-2,0,-4,-14,-14,-7,-3,-2,2021-08-07 10:49:44,539033
-3,-4,-3,-2,-8,-6,-3,-1,2021-08-07 10:49:44,555032
-1,2,2,9,10,3,1,1,2021-08-07 10:49:44,555032
1,-1,-4,-4,2,1,1,-1,2021-08-07 10:49:44,555032
0,0,1,6,17,5,3,0,2021-08-07 10:49:44,555032
-1,-3,-4,-9,-7,-3,0,-1,2021-08-07 10:49:44,555032
-6,-5,-2,-8,-29,-12,-6,-3,2021-08-07 10:49:44,555032
-3,-3,-2,-2,8,6,-2,-3,2021-08-07 10:49:44,556036
-2,0,2,9,11,2,-2,0,2021-08-07 10:49:44,556036
-2,-2,2,13,14,5,-2,-2,2021-08-07 10:49:44,556036
2,2,0,-2,-5,-1,0,1,2021-08-07 10:49:44,556036
2,1,0,0,-2,-2,0,1,2021-08-07 10:49:44,557035
-2,-4,-6,-17,-22,-9,-3,-3,2021-08-07 10:49:44,587034
0,1,1,6,6,0,1,0,2021-08-07 10:49:44,603032
-5,-6,-9,-18,-22,-11,-5,-4,2021-08-07 10:49:44,619034
-1,0,0,7,16,7,2,0,2021-08-07 10:49:44,619034
3,2,2,6,10,7,2,1,2021-08-07 10:49:44,619034
-1,-1,1,12,8,3,-1,0,2021-08-07 10:49:44,619034
-1,-1,-4,-13,-11,-5,1,0,2021-08-07 10:49:44,619034
-4,-5,-7,-14,-19,-9,-4,-3,2021-08-07 10:49:44,619034
0,3,3,11,8,3,0,0,2021-08-07 10:49:44,620034
1,3,2,0,4,2,0,0,2021-08-07 10:49:44,620034
0,-3,-3,-4,-7,-3,-3,-3,2021-08-07 10:49:44,620034
-1,-3,-2,-9,-15,-8,-3,-1,2021-08-07 10:49:44,620034
4,3,11,28,20,12,6,4,2021-08-07 10:49:44,651034
-1,-3,-3,-3,2,0,-2,-2,2021-08-07 10:49:44,664034
-2,-1,-3,-13,-18,-8,-4,-3,2021-08-07 10:49:44,665035
-2,-1,-3,-2,5,-1,-2,0,2021-08-07 10:49:44,665035
-4,-3,-2,-2,-8,-6,-5,-5,2021-08-07 10:49:44,665035
0,2,1,2,-8,-4,1,-1,2021-08-07 10:49:44,665035
1,1,-1,5,6,4,2,2,2021-08-07 10:49:44,665035
1,2,3,4,5,2,0,-1,2021-08-07 10:49:44,665035
-5,-4,-7,-16,-17,-8,-4,-3,2021-08-07 10:49:44,683034
2,-1,3,5,11,5,1,2,2021-08-07 10:49:44,683034
-8,-10,-9,-11,-20,-9,-7,-5,2021-08-07 10:49:44,698035
-3,-1,-5,-15,-13,-5,-2,0,2021-08-07 10:49:44,698035
4,9,6,16,22,10,5,4,2021-08-07 10:49:44,698035
2,1,3,11,12,3,2,3,2021-08-07 10:49:44,698035
-1,-2,-1,-1,-7,-5,-2,1,2021-08-07 10:49:44,698035
-2,-2,-1,-6,-12,-5,-2,-1,2021-08-07 10:49:44,698035
-6,-10,-12,-28,-19,-9,-6,-4,2021-08-07 10:49:44,714034
0,0,2,6,6,2,1,-1,2021-08-07 10:49:44,714034
0,1,3,13,26,11,3,1,2021-08-07 10:49:44,730033
-1,0,1,7,8,4,2,0,2021-08-07 10:49:44,746032
-7,-8,-11,-29,-49,-22,-10,-7,2021-08-07 10:49:44,746032
3,2,0,1,6,3,1,2,2021-08-07 10:49:44,746032
3,2,2,3,13,1,1,0,2021-08-07 10:49:44,746032
0,-1,-3,-5,-14,-5,-2,-2,2021-08-07 10:49:44,746032
1,-1,-1,7,18,5,0,0,2021-08-07 10:49:44,762033
-5,-5,-8,-6,-9,-4,-2,-2,2021-08-07 10:49:44,777032
1,3,5,2,-1,0,-1,-1,2021-08-07 10:49:44,808034
4,5,6,18,25,8,1,2,2021-08-07 10:49:44,808034
0,1,1,-3,-10,-3,0,-1,2021-08-07 10:49:44,808034
-2,-1,0,4,2,-2,-1,-1,2021-08-07 10:49:44,808034
-3,-6,-8,-15,-15,-6,-3,-2,2021-08-07 10:49:44,808034
-4,-5,-6,-12,-13,-7,-5,-3,2021-08-07 10:49:44,808034
3,3,6,14,23,7,3,1,2021-08-07 10:49:44,808034
1,2,4,5,6,5,2,2,2021-08-07 10:49:44,808034
1,2,3,11,15,5,2,1,2021-08-07 10:49:44,809034
-5,-5,-2,7,9,-1,-4,-4,2021-08-07 10:49:44,809034
-5,-5,-6,-1,-11,-6,-3,-2,2021-08-07 10:49:44,824034
-1,0,-3,-18,-17,-8,-3,-2,2021-08-07 10:49:44,824034
0,-1,-1,0,4,-2,-3,-1,2021-08-07 10:49:44,824034
1,3,1,7,4,5,1,1,2021-08-07 10:49:44,824034
-1,-2,-1,-5,1,-2,-1,0,2021-08-07 10:49:44,855034
0,0,-1,10,9,2,1,-2,2021-08-07 10:49:44,871033
-2,-1,-3,-9,-11,-3,-2,0,2021-08-07 10:49:44,871033
1,4,4,1,5,2,0,1,2021-08-07 10:49:44,871033
-1,-2,-2,-12,-23,-10,-5,-2,2021-08-07 10:49:44,871033
-2,-3,-3,-9,0,2,-1,1,2021-08-07 10:49:44,871033
-1,-2,1,-6,-19,-5,0,-1,2021-08-07 10:49:44,871033
6,7,13,35,45,15,8,4,2021-08-07 10:49:44,871033
0,2,0,-2,0,0,1,0,2021-08-07 10:49:44,887034
-1,1,-2,-7,-9,-4,-2,-1,2021-08-07 10:49:44,903034
-6,-6,-8,-16,-31,-15,-6,-6,2021-08-07 10:49:44,903034
-1,-3,0,1,1,1,-1,1,2021-08-07 10:49:44,903034
0,-1,-2,0,12,5,1,0,2021-08-07 10:49:44,903034
0,-1,0,4,2,0,-2,-1,2021-08-07 10:49:44,903034
0,-1,-3,-4,-3,-2,-2,0,2021-08-07 10:49:44,903034
-4,-5,-6,-17,-15,-4,-2,-3,2021-08-07 10:49:44,903034
1,3,5,18,11,5,2,0,2021-08-07 10:49:44,935034
-2,-3,-2,-4,-5,-3,-2,-3,2021-08-07 10:49:44,951035
-1,-2,1,6,6,1,1,0,2021-08-07 10:49:44,967034
1,-1,-6,-11,-8,-3,-1,0,2021-08-07 10:49:44,967034
0,-1,0,4,-5,-1,-2,0,2021-08-07 10:49:44,967034
3,5,7,20,20,10,3,3,2021-08-07 10:49:44,967034
-1,-1,-1,1,2,-3,-4,-2,2021-08-07 10:49:44,967034
-6,-6,-5,-6,-11,-7,-4,-4,2021-08-07 10:49:44,983032
3,5,1,-4,3,3,3,3,2021-08-07 10:49:44,983032
-9,-11,-11,-18,-22,-14,-9,-6,2021-08-07 10:49:44,983032
5,7,6,4,-3,0,2,2,2021-08-07 10:49:44,983032
3,4,6,26,41,17,6,1,2021-08-07 10:49:44,983032
-3,-4,-2,-9,-12,-7,-3,-2,2021-08-07 10:49:44,983032
-1,1,0,-3,-3,0,0,-1,2021-08-07 10:49:44,983032
-4,-4,-5,-7,-3,-2,-1,-3,2021-08-07 10:49:44,999034
-1,-3,-5,-20,-29,-13,-4,-1,2021-08-07 10:49:44,999034
-4,-4,-9,-27,-40,-12,-7,-5,2021-08-07 10:49:45,015033
9,9,15,61,93,36,13,8,2021-08-07 10:49:45,015033
-1,0,2,9,9,5,2,0,2021-08-07 10:49:45,015033
1,2,-1,-5,-4,0,0,1,2021-08-07 10:49:45,031034
-7,-7,-8,-16,-25,-12,-5,-4,2021-08-07 10:49:45,031034
-2,-3,-5,-22,-32,-14,-7,-3,2021-08-07 10:49:45,031034
3,2,5,23,37,14,6,3,2021-08-07 10:49:45,031034
0,1,3,11,7,2,0,-1,2021-08-07 10:49:45,031034
-3,-5,-6,-10,-4,-1,-2,-3,2021-08-07 10:49:45,047033
-1,1,0,-6,-15,-5,-1,-1,2021-08-07 10:49:45,047033
1,1,-2,-10,-11,-6,-2,-1,2021-08-07 10:49:45,063034
-2,-4,-5,-7,-11,-6,-4,-4,2021-08-07 10:49:45,063034
-5,-6,-4,-4,-4,-2,-4,-4,2021-08-07 10:49:45,063034
5,7,10,16,36,14,8,5,2021-08-07 10:49:45,063034
-3,-5,-4,-7,-10,-3,-1,-3,2021-08-07 10:49:45,063034
1,2,2,7,0,2,-1,0,2021-08-07 10:49:45,063034
3,4,5,28,45,12,5,2,2021-08-07 10:49:45,093033
-5,-6,-8,-18,-23,-10,-5,-5,2021-08-07 10:49:45,094034
-1,0,-6,-15,-24,-9,-2,-1,2021-08-07 10:49:45,094034
-4,-6,-8,-24,-25,-9,-5,-3,2021-08-07 10:49:45,094034
7,9,14,35,51,23,10,6,2021-08-07 10:49:45,094034
-1,-1,-2,-4,-8,-4,-4,-2,2021-08-07 10:49:45,094034
0,0,2,10,16,7,1,0,2021-08-07 10:49:45,110034
-8,-8,-11,-27,-38,-17,-7,-5,2021-08-07 10:49:45,110034
0,-1,-2,-2,-2,0,-2,1,2021-08-07 10:49:45,126034
3,2,2,11,11,5,2,2,2021-08-07 10:49:45,126034
-5,-5,-4,-7,-18,-8,-5,-4,2021-08-07 10:49:45,126034
2,3,3,7,15,6,2,1,2021-08-07 10:49:45,126034
2,4,7,12,11,4,2,3,2021-08-07 10:49:45,142035
-1,1,-3,-3,-11,-7,-1,-1,2021-08-07 10:49:45,158035
-2,-2,-1,5,13,4,1,-2,2021-08-07 10:49:45,158035
-2,-3,-4,-7,-24,-11,-4,-2,2021-08-07 10:49:45,158035
1,1,2,11,36,14,3,2,2021-08-07 10:49:45,158035
-2,-2,1,-13,-9,-6,-3,-4,2021-08-07 10:49:45,158035
-2,1,-1,10,6,2,0,2,2021-08-07 10:49:45,159034
-3,-1,-3,4,9,1,0,-1,2021-08-07 10:49:45,159034
-8,-9,-10,-29,-45,-21,-9,-7,2021-08-07 10:49:45,189034
4,2,2,3,3,4,0,0,2021-08-07 10:49:45,205033
0,0,0,-6,1,-1,-1,0,2021-08-07 10:49:45,221034
4,4,7,13,19,5,4,1,2021-08-07 10:49:45,221034
-2,-1,-3,-8,-23,-10,-4,-3,2021-08-07 10:49:45,221034
-2,-4,-6,-10,-9,-4,-2,-1,2021-08-07 10:49:45,221034
-1,-2,-1,-6,-5,-2,-2,-1,2021-08-07 10:49:45,237034
0,1,2,7,11,4,0,0,2021-08-07 10:49:45,253035
-1,-4,-2,0,-8,-2,-3,-2,2021-08-07 10:49:45,269035
-2,-1,-3,-3,-12,-5,-3,-2,2021-08-07 10:49:45,285034
-2,0,0,0,1,-1,-1,-1,2021-08-07 10:49:45,300032
-4,-5,-5,-14,-23,-9,-3,-2,2021-08-07 10:49:45,300032
-2,-2,-2,-9,3,2,-2,-2,2021-08-07 10:49:45,300032
4,5,9,34,53,21,8,4,2021-08-07 10:49:45,300032
-2,-1,-2,-5,-5,-2,0,-1,2021-08-07 10:49:45,300032
0,1,1,-2,0,-1,-3,0,2021-08-07 10:49:45,300032
-3,-1,-2,-3,-16,-9,-4,-1,2021-08-07 10:49:45,301037
-5,-7,-13,-35,-33,-12,-6,-3,2021-08-07 10:49:45,301037
4,5,6,27,35,14,3,1,2021-08-07 10:49:45,301037
2,0,-1,0,4,2,1,0,2021-08-07 10:49:45,301037
3,2,-1,-3,1,-1,0,1,2021-08-07 10:49:45,301037
-4,-3,-2,-6,-8,-5,-2,-3,2021-08-07 10:49:45,301037
4,2,3,4,6,3,2,1,2021-08-07 10:49:45,301037
-1,0,-1,-2,0,3,-1,-2,2021-08-07 10:49:45,301037
-2,0,-3,-20,-28,-11,-4,-3,2021-08-07 10:49:45,302035
2,2,7,8,10,3,2,1,2021-08-07 10:49:45,302035
-1,-4,-8,-9,-5,-4,-3,-2,2021-08-07 10:49:45,302035
1,-1,4,9,11,5,2,-1,2021-08-07 10:49:45,302035
2,1,4,12,6,2,1,2,2021-08-07 10:49:45,347034
-5,-4,-8,-11,-8,-5,-5,-4,2021-08-07 10:49:45,363032
-3,-1,-1,-9,-9,-5,-3,-4,2021-08-07 10:49:45,379032
2,3,4,10,12,5,3,4,2021-08-07 10:49:45,379032
-2,-2,-4,-6,-15,-8,-4,-3,2021-08-07 10:49:45,379032
1,1,2,-4,-13,-2,1,0,2021-08-07 10:49:45,379032
-2,-6,-10,-17,-18,-8,-3,-1,2021-08-07 10:49:45,379032
1,2,1,7,20,7,5,2,2021-08-07 10:49:45,380033
-4,-3,0,6,2,1,1,-1,2021-08-07 10:49:45,380033
-3,0,-1,3,5,2,-2,-1,2021-08-07 10:49:45,380033
-3,-1,-1,-7,-10,-5,-5,-3,2021-08-07 10:49:45,380033
-4,-4,-2,-1,-1,-3,-4,-3,2021-08-07 10:49:45,380033
-3,-3,-6,-10,-16,-4,-2,0,2021-08-07 10:49:45,380033
6,4,7,18,32,12,4,5,2021-08-07 10:49:45,381034
3,4,6,1,2,2,2,2,2021-08-07 10:49:45,381034
1,3,3,5,1,2,1,1,2021-08-07 10:49:45,381034
2,1,3,10,15,7,4,0,2021-08-07 10:49:45,395035
-5,-8,-10,-21,-35,-16,-5,-7,2021-08-07 10:49:45,395035
-2,0,-2,-6,-4,-2,-2,-3,2021-08-07 10:49:45,411034
3,2,6,17,11,4,1,-1,2021-08-07 10:49:45,411034
1,1,2,7,23,10,2,-1,2021-08-07 10:49:45,427033
-8,-10,-11,-20,-36,-16,-8,-4,2021-08-07 10:49:45,443033
-1,-1,-1,3,7,0,2,-1,2021-08-07 10:49:45,459033
-2,-1,-2,-1,-6,-2,-1,-1,2021-08-07 10:49:45,459033
-2,-2,-2,-3,3,-1,-2,-1,2021-08-07 10:49:45,459033
2,-1,1,6,2,1,1,1,2021-08-07 10:49:45,459033
-1,0,-1,-3,-12,-5,-3,-1,2021-08-07 10:49:45,459033
-4,-5,-4,-12,-8,-5,-4,-4,2021-08-07 10:49:45,459033
4,4,3,3,25,11,4,4,2021-08-07 10:49:45,475034
1,0,-2,-1,3,0,-2,-2,2021-08-07 10:49:45,490034
-1,-2,3,2,-6,-3,-2,-1,2021-08-07 10:49:45,490034
-3,-3,-2,-2,-5,-3,-3,-2,2021-08-07 10:49:45,490034
2,2,2,5,-1,-1,1,0,2021-08-07 10:49:45,490034
-2,0,-5,-7,-4,-3,-2,0,2021-08-07 10:49:45,490034
-4,-7,-8,-11,-14,-4,-3,-3,2021-08-07 10:49:45,490034
-1,1,1,-3,0,-3,-3,-1,2021-08-07 10:49:45,491034
-2,-3,3,-2,-21,-9,-2,-5,2021-08-07 10:49:45,506035
6,9,10,28,50,20,9,5,2021-08-07 10:49:45,521034
1,2,-3,5,0,1,0,1,2021-08-07 10:49:45,521034
-3,-3,-8,-19,-21,-10,-5,-3,2021-08-07 10:49:45,522034
-3,-4,-4,-6,-5,-3,-4,0,2021-08-07 10:49:45,522034
-4,-4,-3,-21,-26,-12,-4,-3,2021-08-07 10:49:45,522034
1,2,6,23,31,13,5,4,2021-08-07 10:49:45,522034
2,0,-3,-5,-4,-1,1,0,2021-08-07 10:49:45,522034
1,4,4,12,17,6,3,3,2021-08-07 10:49:45,568034
-7,-7,-9,-18,-31,-15,-7,-5,2021-08-07 10:49:45,584033
-3,-2,-5,-21,-11,-4,-2,-3,2021-08-07 10:49:45,584033
6,7,9,39,54,21,9,4,2021-08-07 10:49:45,584033
-2,-3,-4,-4,-11,-6,-2,-3,2021-08-07 10:49:45,584033
-2,-2,-2,-2,-5,-3,0,-2,2021-08-07 10:49:45,584033
-3,-2,-2,-14,-25,-11,-4,-2,2021-08-07 10:49:45,584033
-2,-4,-5,-8,-12,-6,-2,-2,2021-08-07 10:49:45,585034
0,1,-1,1,3,1,0,-1,2021-08-07 10:49:45,585034
-1,-1,-3,-11,-8,-2,-2,-1,2021-08-07 10:49:45,585034
-1,2,1,10,8,4,2,0,2021-08-07 10:49:45,585034
-1,1,5,9,18,7,1,0,2021-08-07 10:49:45,585034
-4,-4,-6,-13,-18,-10,-5,-2,2021-08-07 10:49:45,616033
-1,-3,-4,-9,-19,-10,-4,-1,2021-08-07 10:49:45,632032
3,2,9,20,28,12,4,3,2021-08-07 10:49:45,648032
-1,-3,-5,-11,-14,-4,-2,-2,2021-08-07 10:49:45,648032
2,3,6,23,21,9,3,0,2021-08-07 10:49:45,648032
0,0,-2,3,2,-1,0,0,2021-08-07 10:49:45,648032
-1,-1,3,8,7,3,0,-3,2021-08-07 10:49:45,648032
0,0,1,-2,-3,-1,-2,1,2021-08-07 10:49:45,649034
-2,-4,-4,-13,-9,-4,-2,-3,2021-08-07 10:49:45,649034
-3,-3,-3,-5,-9,-3,-2,-1,2021-08-07 10:49:45,649034
-2,-3,-3,-3,-3,-3,-3,-2,2021-08-07 10:49:45,649034
-1,-3,-3,-8,-6,-2,-2,0,2021-08-07 10:49:45,649034
-1,-1,-3,-3,-3,-2,0,0,2021-08-07 10:49:45,680032
0,-1,1,9,13,7,3,2,2021-08-07 10:49:45,680032
-1,-2,-5,-9,-10,-3,-3,1,2021-08-07 10:49:45,680032
-2,0,-2,-1,-2,-2,0,-1,2021-08-07 10:49:45,680032
0,0,-1,-5,-4,0,-1,-1,2021-08-07 10:49:45,696037
-3,-3,-4,-8,-22,-11,-6,-4,2021-08-07 10:49:45,712034
2,5,6,19,33,15,4,3,2021-08-07 10:49:45,712034
-2,-2,-5,-16,-23,-6,-2,-2,2021-08-07 10:49:45,712034
-1,-2,1,9,14,6,0,0,2021-08-07 10:49:45,712034
-2,0,3,3,5,1,0,-1,2021-08-07 10:49:45,712034
0,-4,-6,-11,9,2,2,2,2021-08-07 10:49:45,712034
2,4,10,29,22,8,4,0,2021-08-07 10:49:45,712034
-4,-5,-5,-10,-17,-9,-4,-4,2021-08-07 10:49:45,712034
0,-2,0,-1,-10,-3,-3,-1,2021-08-07 10:49:45,713033
-3,-3,-6,-14,-8,-6,-4,-2,2021-08-07 10:49:45,728034
-1,-2,-4,-12,-11,-5,-2,-2,2021-08-07 10:49:45,728034
0,0,-2,-4,-7,-3,-1,-1,2021-08-07 10:49:45,743034
-2,-1,0,6,6,3,-2,-2,2021-08-07 10:49:45,759032
-1,-3,-4,-5,-12,-4,-2,-1,2021-08-07 10:49:45,759032
2,0,3,4,7,0,1,1,2021-08-07 10:49:45,759032
-4,-4,-4,-14,-21,-6,-4,-3,2021-08-07 10:49:45,759032
2,4,4,16,31,11,3,2,2021-08-07 10:49:45,759032
1,0,-1,-6,-13,-7,-2,-3,2021-08-07 10:49:45,759032
-3,-2,0,3,1,3,1,0,2021-08-07 10:49:45,760035
0,0,-3,-5,-3,-4,-2,2,2021-08-07 10:49:45,790034
3,1,4,10,22,10,4,3,2021-08-07 10:49:45,806034
-1,1,1,5,-8,-4,-2,-2,2021-08-07 10:49:45,822032
-3,-6,-8,-11,-8,-9,-4,-3,2021-08-07 10:49:45,822032
-1,0,1,-2,-1,2,1,1,2021-08-07 10:49:45,822032
-2,-2,-7,-9,-9,-3,-3,-2,2021-08-07 10:49:45,822032
1,3,4,9,10,3,2,1,2021-08-07 10:49:45,822032
-3,-2,-4,-10,-22,-7,-4,-2,2021-08-07 10:49:45,822032
-1,-1,0,1,8,1,-1,-2,2021-08-07 10:49:45,823036
0,-2,-4,-8,-13,-5,0,-4,2021-08-07 10:49:45,823036
1,0,0,4,8,1,0,0,2021-08-07 10:49:45,823036
-3,-2,-2,-12,-12,-6,-3,-4,2021-08-07 10:49:45,823036
0,0,3,12,9,1,1,0,2021-08-07 10:49:45,838034
-1,-2,-7,-16,-15,-3,0,-1,2021-08-07 10:49:45,853035
0,-1,1,4,6,2,1,0,2021-08-07 10:49:45,869034
1,2,0,5,-3,-3,-2,-1,2021-08-07 10:49:45,869034
0,0,4,3,9,6,2,1,2021-08-07 10:49:45,869034
1,0,0,-5,-6,-5,-2,-2,2021-08-07 10:49:45,869034
-4,-5,-9,-14,-13,-5,-2,-3,2021-08-07 10:49:45,869034
0,1,2,4,10,4,2,2,2021-08-07 10:49:45,869034
-5,-6,-9,-25,-38,-15,-8,-5,2021-08-07 10:49:45,884034
2,5,11,31,35,12,5,3,2021-08-07 10:49:45,900035
2,2,2,1,-1,1,0,2,2021-08-07 10:49:45,900035
-2,-2,-1,-3,-1,-2,-1,0,2021-08-07 10:49:45,900035
-3,-2,-4,-7,-10,-5,-3,-2,2021-08-07 10:49:45,900035
-4,-6,-6,-16,-21,-9,-4,-2,2021-08-07 10:49:45,900035
-3,-1,0,-2,-1,-4,-2,-2,2021-08-07 10:49:45,916032
1,0,1,8,13,5,0,1,2021-08-07 10:49:45,916032
0,0,-1,3,10,2,-1,-1,2021-08-07 10:49:45,916032
-1,-2,-1,-4,0,1,0,1,2021-08-07 10:49:45,916032
-1,1,1,1,-15,-8,-2,-2,2021-08-07 10:49:45,916032
1,0,1,4,10,8,3,0,2021-08-07 10:49:45,916032
4,6,9,32,38,14,4,2,2021-08-07 10:49:45,948032
-2,0,0,4,9,2,0,-2,2021-08-07 10:49:45,948032
-7,-6,-13,-38,-52,-24,-10,-6,2021-08-07 10:49:45,948032
0,-2,0,-1,-4,2,-1,-1,2021-08-07 10:49:45,948032
-1,-2,-3,1,12,2,-1,-2,2021-08-07 10:49:45,953034
-1,0,1,3,2,0,-1,1,2021-08-07 10:49:45,953034
-3,-3,-4,-8,-8,-4,-3,0,2021-08-07 10:49:45,964032
-4,-7,-8,-20,-22,-10,-6,-3,2021-08-07 10:49:45,964032
-1,0,2,-3,-3,1,-2,0,2021-08-07 10:49:45,995034
0,2,5,11,9,5,2,0,2021-08-07 10:49:45,995034
-1,-1,-1,2,2,2,-2,-1,2021-08-07 10:49:45,995034
0,1,-3,-6,-5,-3,-1,-1,2021-08-07 10:49:45,995034
-3,0,1,-5,-5,-4,-2,-2,2021-08-07 10:49:46,011034
0,-3,-9,-4,2,2,1,-1,2021-08-07 10:49:46,011034
-4,-3,-4,-5,1,2,1,-2,2021-08-07 10:49:46,011034
5,7,10,22,25,14,6,3,2021-08-07 10:49:46,011034
1,-1,1,7,-3,-3,1,0,2021-08-07 10:49:46,011034
-2,0,0,-10,-20,-13,-3,-3,2021-08-07 10:49:46,011034
1,0,7,19,24,10,4,2,2021-08-07 10:49:46,027034
-3,-5,-10,-17,-17,-12,-5,-3,2021-08-07 10:49:46,043033
0,-1,-4,-15,-11,0,1,0,2021-08-07 10:49:46,043033
0,1,5,14,11,3,-1,-2,2021-08-07 10:49:46,043033
0,-3,-2,-2,-10,-3,-1,0,2021-08-07 10:49:46,043033
-4,-2,-2,-16,-29,-14,-5,-3,2021-08-07 10:49:46,043033
1,-1,2,14,32,11,2,0,2021-08-07 10:49:46,074032
0,0,-1,2,10,4,0,2,2021-08-07 10:49:46,090033
1,3,-1,8,15,5,1,1,2021-08-07 10:49:46,090033
-3,-3,-6,-7,-2,-4,-1,-2,2021-08-07 10:49:46,090033
-5,-6,-7,-21,-34,-16,-7,-4,2021-08-07 10:49:46,090033
0,0,-1,1,-3,4,3,2,2021-08-07 10:49:46,090033
3,4,6,10,15,7,3,2,2021-08-07 10:49:46,090033
1,0,6,19,36,13,3,0,2021-08-07 10:49:46,090033
0,1,-2,-2,-6,-5,0,-1,2021-08-07 10:49:46,106035
0,0,0,-3,-8,-5,-2,-1,2021-08-07 10:49:46,122032
-3,-5,-4,-4,-18,-11,-7,-5,2021-08-07 10:49:46,138033
-4,-3,-7,-7,-2,-1,-4,-3,2021-08-07 10:49:46,154033
2,3,6,10,22,11,4,4,2021-08-07 10:49:46,154033
-2,-1,-2,-9,-7,-3,-2,-2,2021-08-07 10:49:46,154033
0,-1,0,1,8,2,-1,-1,2021-08-07 10:49:46,154033
-3,-3,-3,-11,-17,-9,-3,-3,2021-08-07 10:49:46,154033
-2,-3,-6,-11,-20,-10,-3,-2,2021-08-07 10:49:46,155034
1,4,4,10,20,10,2,1,2021-08-07 10:49:46,155034
1,-1,1,-6,-10,-6,-1,-1,2021-08-07 10:49:46,155034
1,2,2,12,14,6,2,0,2021-08-07 10:49:46,155034
-2,-3,-3,-10,-17,-6,-1,-2,2021-08-07 10:49:46,155034
0,-5,-6,-11,-20,-8,-1,-2,2021-08-07 10:49:46,155034
-3,-1,-5,-6,1,0,-1,-3,2021-08-07 10:49:46,155034
-1,2,5,9,4,-1,-3,-2,2021-08-07 10:49:46,170032
-4,-4,-9,-12,-22,-6,-3,-5,2021-08-07 10:49:46,201036
-2,-1,1,7,22,5,-2,0,2021-08-07 10:49:46,216033
-1,1,5,0,-1,3,1,-1,2021-08-07 10:49:46,232032
1,1,0,-1,1,1,0,2,2021-08-07 10:49:46,247033
2,4,4,12,3,1,3,3,2021-08-07 10:49:46,263032
2,0,0,1,10,0,1,-1,2021-08-07 10:49:46,263032
3,5,0,1,3,5,3,3,2021-08-07 10:49:46,263032
-2,-3,-4,-10,-4,-3,-1,-1,2021-08-07 10:49:46,263032
-2,-2,1,3,6,0,-2,-2,2021-08-07 10:49:46,263032
-3,-5,-11,-9,-15,-6,-3,-1,2021-08-07 10:49:46,263032
-1,0,1,5,-4,-1,-1,-1,2021-08-07 10:49:46,264035
-3,-3,-5,-5,-9,-3,-2,-2,2021-08-07 10:49:46,264035
-4,-3,-1,4,13,4,-2,-2,2021-08-07 10:49:46,264035
2,5,7,-2,-8,-3,-1,0,2021-08-07 10:49:46,264035
-2,-3,-4,-5,-7,-4,-1,-2,2021-08-07 10:49:46,264035
-2,0,2,8,21,6,1,1,2021-08-07 10:49:46,264035
0,-2,-2,-8,-6,-4,-1,-1,2021-08-07 10:49:46,264035
-5,-3,-1,2,-8,-2,-3,-2,2021-08-07 10:49:46,265034
-2,-3,-3,-6,5,-1,-1,-1,2021-08-07 10:49:46,265034
2,1,3,11,-1,1,1,0,2021-08-07 10:49:46,265034
0,-2,-3,-12,-13,-4,-1,-2,2021-08-07 10:49:46,279033
1,1,2,4,5,2,0,0,2021-08-07 10:49:46,279033
-1,0,1,14,23,7,2,2,2021-08-07 10:49:46,279033
-2,-3,-4,-7,-13,-7,-4,-1,2021-08-07 10:49:46,279033
-2,-4,-4,1,6,4,-1,-1,2021-08-07 10:49:46,310032
2,2,3,8,17,6,4,1,2021-08-07 10:49:46,325034
-5,-6,-6,-14,-22,-10,-5,-5,2021-08-07 10:49:46,325034
3,2,1,1,0,2,2,1,2021-08-07 10:49:46,325034
1,-1,-1,-4,2,-1,-1,0,2021-08-07 10:49:46,325034
-3,-2,-4,-12,-18,-8,-4,-2,2021-08-07 10:49:46,325034
-1,0,2,12,20,8,2,1,2021-08-07 10:49:46,325034
-3,-1,-1,-3,-9,-3,-1,-1,2021-08-07 10:49:46,326034
-2,-2,0,-5,-8,-4,-2,-1,2021-08-07 10:49:46,341034
-1,0,1,9,9,3,2,1,2021-08-07 10:49:46,356035
1,1,0,-11,-13,-6,-2,-1,2021-08-07 10:49:46,364034
-2,-4,0,1,-2,-2,-2,-1,2021-08-07 10:49:46,364034
