EMG 1,EMG 2,EMG 3,EMG 4,EMG 5,EMG 6,EMG 7,EMG 8,Timestamp,Milliseconds
-4,-4,-6,-8,-4,-3,-2,-5,2021-08-07 11:40:45,691730
-5,-6,-6,-6,-2,-3,-5,-4,2021-08-07 11:40:45,691730
3,2,-1,-5,0,2,3,1,2021-08-07 11:40:45,691730
3,5,5,3,-5,-1,-2,0,2021-08-07 11:40:45,691730
5,4,2,0,-2,1,1,3,2021-08-07 11:40:45,691730
-4,-2,-4,-11,-17,-7,-1,-3,2021-08-07 11:40:45,691730
-9,-10,-7,3,12,-1,-6,-6,2021-08-07 11:40:45,692731
2,1,1,4,9,6,2,0,2021-08-07 11:40:45,707731
0,-1,-1,1,0,0,0,0,2021-08-07 11:40:45,723755
0,1,-1,-4,-4,-3,-4,-2,2021-08-07 11:40:45,723755
-4,-2,-3,-5,-9,-6,-3,-3,2021-08-07 11:40:45,723755
-3,-3,-2,-1,-4,-3,0,-1,2021-08-07 11:40:45,723755
-2,-2,-2,-9,-7,-4,-2,-2,2021-08-07 11:40:45,723755
3,2,3,2,-2,1,3,2,2021-08-07 11:40:45,723755
-1,0,0,10,12,5,1,-1,2021-08-07 11:40:45,739731
-1,-1,-1,0,4,1,-1,-1,2021-08-07 11:40:45,739731
0,0,-1,0,1,3,2,0,2021-08-07 11:40:45,755730
-2,-1,0,0,-9,-6,-3,-3,2021-08-07 11:40:45,771732
4,4,4,3,0,0,3,3,2021-08-07 11:40:45,771732
0,0,-1,0,3,2,-2,-2,2021-08-07 11:40:45,771732
-4,-5,-7,-6,-6,-3,-3,-2,2021-08-07 11:40:45,771732
0,-2,0,0,-1,-2,-1,-1,2021-08-07 11:40:45,771732
0,1,1,1,-3,-1,-1,0,2021-08-07 11:40:45,787731
-1,-2,3,9,7,-1,0,0,2021-08-07 11:40:45,787731
-4,-2,0,-4,-4,-4,-3,-3,2021-08-07 11:40:45,835731
-3,-1,-1,0,0,-1,-1,-2,2021-08-07 11:40:45,835731
0,-1,-3,0,-2,-1,0,-2,2021-08-07 11:40:45,835731
-1,-2,-4,-4,-2,0,-2,-2,2021-08-07 11:40:45,851730
-1,0,-2,0,-2,-3,0,0,2021-08-07 11:40:45,851730
0,-1,0,-1,1,0,2,1,2021-08-07 11:40:45,851730
-1,-1,-1,-1,0,1,0,-1,2021-08-07 11:40:45,851730
-2,-3,-4,-11,-11,-5,-1,-2,2021-08-07 11:40:45,851730
1,2,2,8,6,1,-1,1,2021-08-07 11:40:45,851730
0,1,0,1,3,1,0,-1,2021-08-07 11:40:45,851730
0,1,7,4,1,3,1,1,2021-08-07 11:40:45,851730
0,0,1,7,9,1,1,-1,2021-08-07 11:40:45,851730
-3,-5,-7,-12,-17,-8,-5,-3,2021-08-07 11:40:45,852731
2,1,-1,-5,3,5,3,3,2021-08-07 11:40:45,852731
-1,-2,-2,8,8,5,1,-1,2021-08-07 11:40:45,867731
-4,-2,-2,-7,-6,-3,-2,-3,2021-08-07 11:40:45,883730
0,0,4,9,4,2,-1,-2,2021-08-07 11:40:45,883730
-3,-2,-1,-3,-4,-1,-2,-2,2021-08-07 11:40:45,883730
0,-1,1,-2,-11,-3,-1,-1,2021-08-07 11:40:45,899729
0,-1,-2,7,10,2,0,1,2021-08-07 11:40:45,899729
-4,-4,-7,-10,-4,-2,-2,-4,2021-08-07 11:40:45,899729
1,1,4,11,6,2,0,0,2021-08-07 11:40:45,899729
-4,-4,-4,-7,-2,-2,-1,1,2021-08-07 11:40:45,915730
-1,-2,2,4,-5,-3,-1,-1,2021-08-07 11:40:45,915730
4,2,-1,-8,-5,-3,0,0,2021-08-07 11:40:45,915730
1,2,6,9,11,5,1,1,2021-08-07 11:40:45,915730
0,1,-1,3,1,0,2,0,2021-08-07 11:40:45,947730
-4,-5,-9,-14,-16,-10,-7,-3,2021-08-07 11:40:45,947730
-4,-3,-5,-8,-6,-5,-3,-3,2021-08-07 11:40:45,947730
-1,-1,-4,-10,-13,-6,0,2,2021-08-07 11:40:45,947730
2,2,2,4,11,5,3,2,2021-08-07 11:40:45,963732
0,-3,0,0,0,4,1,1,2021-08-07 11:40:45,978730
-3,-5,-3,6,11,6,2,-2,2021-08-07 11:40:45,978730
0,2,2,-2,-7,-4,-3,-1,2021-08-07 11:40:45,978730
0,0,1,4,8,2,-1,-3,2021-08-07 11:40:45,978730
0,3,4,-2,-5,-2,1,-1,2021-08-07 11:40:45,979733
-1,3,6,4,0,-2,-2,-1,2021-08-07 11:40:45,979733
-5,-9,-12,-16,-19,-10,-8,-6,2021-08-07 11:40:45,979733
3,-2,-9,-17,-17,-6,-2,1,2021-08-07 11:40:45,994730
7,7,13,29,42,18,8,4,2021-08-07 11:40:45,994730
-1,0,0,6,7,5,2,2,2021-08-07 11:40:45,994730
-1,-2,-1,-7,-4,-3,-1,-1,2021-08-07 11:40:45,994730
-4,-6,-8,-12,-15,-8,-5,-5,2021-08-07 11:40:46,024731
-4,-3,-5,-11,-15,-7,-4,-4,2021-08-07 11:40:46,024731
2,3,4,5,4,1,2,2,2021-08-07 11:40:46,024731
0,1,3,9,8,5,2,0,2021-08-07 11:40:46,024731
-4,-2,-2,-12,-10,-6,-4,-3,2021-08-07 11:40:46,024731
-2,-3,-4,-3,-6,-5,-2,-2,2021-08-07 11:40:46,024731
1,0,2,4,7,3,3,1,2021-08-07 11:40:46,040730
-1,-1,0,5,7,2,0,1,2021-08-07 11:40:46,040730
0,1,-2,4,3,-1,-1,1,2021-08-07 11:40:46,055730
-2,-1,-3,-10,-8,-4,-3,-2,2021-08-07 11:40:46,055730
0,-2,-2,-3,-5,-3,-2,-2,2021-08-07 11:40:46,055730
0,-1,-3,-4,-4,-1,-1,-2,2021-08-07 11:40:46,055730
-3,-4,1,2,1,0,-2,-1,2021-08-07 11:40:46,087731
1,1,-1,-10,-5,-2,1,0,2021-08-07 11:40:46,087731
0,2,2,5,6,0,-1,0,2021-08-07 11:40:46,087731
0,0,0,4,1,1,0,-1,2021-08-07 11:40:46,087731
-3,-3,0,0,-3,-2,-4,-3,2021-08-07 11:40:46,087731
-4,-4,-6,-10,-11,-3,-3,-1,2021-08-07 11:40:46,087731
-2,-2,-7,-15,-15,-8,-3,0,2021-08-07 11:40:46,088731
2,5,7,11,11,5,3,2,2021-08-07 11:40:46,088731
3,4,5,17,21,6,4,2,2021-08-07 11:40:46,119732
-3,0,1,6,8,1,-1,-2,2021-08-07 11:40:46,119732
-2,-1,-4,-3,1,-1,-1,-3,2021-08-07 11:40:46,119732
-1,-3,-6,-11,-12,-5,-2,0,2021-08-07 11:40:46,119732
0,0,-2,-9,-9,-1,0,0,2021-08-07 11:40:46,151729
1,0,3,12,8,2,0,0,2021-08-07 11:40:46,151729
-4,-3,-2,-4,-5,-3,-2,-2,2021-08-07 11:40:46,151729
-3,-1,-1,-2,-4,-2,-2,0,2021-08-07 11:40:46,151729
2,1,2,1,0,-1,-1,1,2021-08-07 11:40:46,167729
-1,-2,-3,0,1,0,0,1,2021-08-07 11:40:46,182761
-1,-2,-2,-3,-6,-2,-2,-1,2021-08-07 11:40:46,182761
-6,-6,-4,-5,-5,-3,-3,-3,2021-08-07 11:40:46,182761
1,3,4,1,4,0,0,1,2021-08-07 11:40:46,182761
0,1,-3,-15,-17,-7,-4,-1,2021-08-07 11:40:46,182761
3,4,5,20,27,11,5,2,2021-08-07 11:40:46,182761
-2,-3,-3,1,3,-1,0,-2,2021-08-07 11:40:46,183761
-4,-4,0,7,5,2,-3,-4,2021-08-07 11:40:46,198760
2,4,4,-1,-4,-4,1,0,2021-08-07 11:40:46,198760
-2,-4,-3,-8,-11,-6,-3,-2,2021-08-07 11:40:46,198760
-5,-3,-2,-8,-5,-4,-3,-3,2021-08-07 11:40:46,198760
3,2,1,2,0,-1,1,2,2021-08-07 11:40:46,213760
-5,-5,-3,-1,-2,-2,-4,-4,2021-08-07 11:40:46,213760
-1,-1,-2,-7,-4,-2,-3,0,2021-08-07 11:40:46,213760
1,3,1,8,7,6,1,1,2021-08-07 11:40:46,213760
-4,-3,-4,-9,-9,-5,-3,-1,2021-08-07 11:40:46,245760
2,4,0,-3,-5,1,0,1,2021-08-07 11:40:46,245760
1,-1,3,7,11,4,3,0,2021-08-07 11:40:46,245760
-1,-1,1,6,7,3,-1,-3,2021-08-07 11:40:46,245760
-4,-5,-5,-2,2,-3,-2,-4,2021-08-07 11:40:46,261758
1,-1,0,2,1,0,0,0,2021-08-07 11:40:46,261758
-2,-1,-7,-20,-20,-9,-3,-1,2021-08-07 11:40:46,261758
2,-1,-4,-10,-22,-9,0,2,2021-08-07 11:40:46,261758
4,6,12,36,52,26,13,5,2021-08-07 11:40:46,265760
-5,-7,-7,-9,-5,-3,-3,-3,2021-08-07 11:40:46,266760
3,2,3,5,1,0,-1,-2,2021-08-07 11:40:46,292760
1,2,-2,-9,-12,-11,-5,-2,2021-08-07 11:40:46,292760
-2,-1,-4,-13,-19,-8,-4,-2,2021-08-07 11:40:46,292760
-6,-5,-7,-13,-11,-5,-4,-4,2021-08-07 11:40:46,308760
-6,-5,0,11,15,7,3,0,2021-08-07 11:40:46,308760
-1,-1,0,2,5,1,0,0,2021-08-07 11:40:46,308760
-1,-2,-4,-7,-11,-6,-3,-4,2021-08-07 11:40:46,323760
0,0,2,8,7,1,0,-1,2021-08-07 11:40:46,339758
-2,-1,-2,-8,-13,-5,-4,-1,2021-08-07 11:40:46,354760
0,-2,2,9,12,6,1,0,2021-08-07 11:40:46,370763
-1,1,-3,-13,-12,-3,-1,1,2021-08-07 11:40:46,370763
1,-1,2,6,6,2,1,-1,2021-08-07 11:40:46,370763
-2,0,-4,-7,-10,-4,0,-3,2021-08-07 11:40:46,370763
0,-1,2,4,7,1,2,1,2021-08-07 11:40:46,370763
-5,-6,-7,-12,-20,-8,-2,-5,2021-08-07 11:40:46,370763
-1,2,2,7,15,4,2,-2,2021-08-07 11:40:46,386760
-2,-5,-3,0,2,0,-3,-2,2021-08-07 11:40:46,386999
-3,-3,-3,-3,-2,-2,-1,-4,2021-08-07 11:40:46,386999
-1,-2,-2,-11,-16,-7,-3,-1,2021-08-07 11:40:46,402273
1,-1,-1,3,5,2,1,0,2021-08-07 11:40:46,402273
-1,-2,0,4,2,1,-2,0,2021-08-07 11:40:46,402273
2,2,-2,-8,-10,-5,-2,-1,2021-08-07 11:40:46,402273
-1,0,2,2,2,-1,-1,-1,2021-08-07 11:40:46,402273
-3,-3,-5,-2,-7,-2,-2,-1,2021-08-07 11:40:46,418272
0,0,2,-1,-3,1,0,1,2021-08-07 11:40:46,418272
-2,-5,-5,-4,0,-1,-3,-1,2021-08-07 11:40:46,418272
5,5,3,5,6,6,4,4,2021-08-07 11:40:46,418272
3,3,6,12,14,7,2,2,2021-08-07 11:40:46,418272
-3,-3,-4,-5,-9,-7,-2,-3,2021-08-07 11:40:46,418272
2,6,7,15,13,7,3,2,2021-08-07 11:40:46,418272
-5,-6,-7,-12,-13,-6,-5,-3,2021-08-07 11:40:46,450273
-2,0,-2,-7,-3,-4,-1,-1,2021-08-07 11:40:46,466275
0,3,2,9,14,7,1,1,2021-08-07 11:40:46,482300
0,-1,-2,-4,-8,-2,-1,-1,2021-08-07 11:40:46,482300
-4,-5,-5,-6,-5,-6,-3,-4,2021-08-07 11:40:46,482300
0,1,1,5,-2,-2,-2,1,2021-08-07 11:40:46,482300
1,0,-2,-4,-3,-2,-1,2,2021-08-07 11:40:46,482300
0,0,-1,-2,0,0,-1,-1,2021-08-07 11:40:46,482300
-1,-2,0,6,4,1,-1,-1,2021-08-07 11:40:46,482300
-2,-2,-2,-11,-15,-8,-4,-4,2021-08-07 11:40:46,483301
-4,-4,-6,-10,-16,-8,-4,-3,2021-08-07 11:40:46,483301
5,6,10,20,37,18,8,5,2021-08-07 11:40:46,483301
2,3,4,5,5,2,1,2,2021-08-07 11:40:46,514300
-2,3,3,14,10,5,1,1,2021-08-07 11:40:46,530301
-1,-3,-3,-5,-14,-6,-2,-2,2021-08-07 11:40:46,560303
-7,-5,-11,-21,-20,-9,-4,-5,2021-08-07 11:40:46,560303
0,-1,-1,-4,-1,1,0,0,2021-08-07 11:40:46,560303
0,0,-1,-7,-6,-4,-1,3,2021-08-07 11:40:46,560303
2,5,6,6,9,5,1,0,2021-08-07 11:40:46,560303
-1,-2,-3,-2,-6,-1,-1,-1,2021-08-07 11:40:46,560303
-2,0,1,2,2,0,-3,-4,2021-08-07 11:40:46,560303
-1,-2,-2,3,0,1,0,-1,2021-08-07 11:40:46,560303
-1,3,5,3,2,1,2,0,2021-08-07 11:40:46,560303
-2,-1,-6,-11,-7,-5,-2,-3,2021-08-07 11:40:46,560303
-3,-5,-10,-8,-6,-4,-1,-3,2021-08-07 11:40:46,561301
-2,-4,-5,-10,-6,-3,-3,-1,2021-08-07 11:40:46,561301
1,1,1,6,6,2,0,0,2021-08-07 11:40:46,561301
-1,0,7,10,2,0,0,1,2021-08-07 11:40:46,561301
0,-2,-5,-10,-8,-4,-1,-1,2021-08-07 11:40:46,576302
0,-1,2,8,13,6,3,0,2021-08-07 11:40:46,576302
3,3,5,13,13,6,3,2,2021-08-07 11:40:46,576302
-3,-3,-2,-1,-6,-1,0,-1,2021-08-07 11:40:46,576302
2,3,2,-3,1,0,0,1,2021-08-07 11:40:46,608301
-7,-7,-7,-10,-12,-7,-4,-6,2021-08-07 11:40:46,608301
5,8,7,0,-1,3,3,4,2021-08-07 11:40:46,608301
-1,-3,-4,-7,-8,-5,-3,-3,2021-08-07 11:40:46,608301
-2,-1,4,10,4,1,0,-2,2021-08-07 11:40:46,624299
-1,-1,0,2,6,0,1,0,2021-08-07 11:40:46,624299
-5,-8,-10,-12,-11,-6,-4,-4,2021-08-07 11:40:46,624299
-2,-2,-4,-3,-3,-3,-1,-1,2021-08-07 11:40:46,624299
1,-2,-1,-2,-4,-2,-1,-1,2021-08-07 11:40:46,625300
-1,-1,-2,-3,-5,-3,-4,-2,2021-08-07 11:40:46,625300
-1,0,-2,0,5,2,-1,0,2021-08-07 11:40:46,640301
0,3,1,-1,-1,1,-2,1,2021-08-07 11:40:46,640301
-1,-2,0,5,10,2,0,-1,2021-08-07 11:40:46,656299
2,3,4,0,-1,0,-2,1,2021-08-07 11:40:46,656299
-1,-5,-4,-2,-8,-5,-2,-3,2021-08-07 11:40:46,656299
0,1,3,6,3,3,-1,1,2021-08-07 11:40:46,656299
-2,0,-3,-6,-6,-4,-3,-2,2021-08-07 11:40:46,687302
0,-2,-4,-4,-4,-2,-2,0,2021-08-07 11:40:46,702817
-1,-1,0,-3,0,0,-1,1,2021-08-07 11:40:46,707815
-1,0,1,3,5,2,1,-1,2021-08-07 11:40:46,707815
-4,-3,-2,3,0,-1,-3,-3,2021-08-07 11:40:46,707815
4,0,-1,-2,-4,1,1,1,2021-08-07 11:40:46,707815
-1,-1,-2,-3,2,0,2,0,2021-08-07 11:40:46,708818
1,-1,-1,1,3,1,2,1,2021-08-07 11:40:46,708818
0,-2,-5,-9,-21,-9,-2,0,2021-08-07 11:40:46,708818
-5,-5,-4,-10,-7,-5,-3,-4,2021-08-07 11:40:46,708818
0,0,0,5,16,10,3,-1,2021-08-07 11:40:46,718816
0,1,7,18,11,3,0,-1,2021-08-07 11:40:46,718816
-7,-5,-1,-6,-5,-4,-7,-6,2021-08-07 11:40:46,750816
5,6,4,3,2,2,1,2,2021-08-07 11:40:46,750816
5,6,2,3,5,2,3,3,2021-08-07 11:40:46,750816
-5,-7,-11,-13,-10,-7,-4,-2,2021-08-07 11:40:46,750816
3,2,0,-5,-3,-1,2,3,2021-08-07 11:40:46,766817
-4,-4,-4,-5,-9,-7,-6,-5,2021-08-07 11:40:46,766817
-4,-2,-2,-7,-9,-4,-2,-2,2021-08-07 11:40:46,766817
-1,0,-1,0,8,2,1,0,2021-08-07 11:40:46,766817
2,1,2,10,10,4,1,3,2021-08-07 11:40:46,782817
0,3,1,4,13,6,2,1,2021-08-07 11:40:46,798817
-2,-2,-3,-7,-13,-7,-3,-2,2021-08-07 11:40:46,798817
-2,-3,-5,-11,-13,-7,-4,-1,2021-08-07 11:40:46,798817
-3,-1,4,8,12,4,0,-1,2021-08-07 11:40:46,814817
5,3,7,18,17,8,5,2,2021-08-07 11:40:46,814817
-3,-6,-4,-1,-3,-2,-2,-3,2021-08-07 11:40:46,814817
-1,-1,-3,-16,-21,-11,-5,-3,2021-08-07 11:40:46,814817
2,0,3,6,9,3,1,0,2021-08-07 11:40:46,814817
-4,-1,-1,-3,-6,-3,-3,-3,2021-08-07 11:40:46,815817
-5,-7,-7,-10,-11,-6,-4,-4,2021-08-07 11:40:46,815817
3,4,3,4,7,3,3,3,2021-08-07 11:40:46,815817
1,2,2,3,0,-1,-1,-1,2021-08-07 11:40:46,846817
-2,-4,-4,-9,-5,-3,-1,-2,2021-08-07 11:40:46,846817
0,-1,0,-2,-6,-3,-2,-1,2021-08-07 11:40:46,846817
0,0,2,9,10,5,2,-1,2021-08-07 11:40:46,846817
0,-1,0,3,3,4,3,2,2021-08-07 11:40:46,862816
-3,0,-1,-1,-3,-3,-4,-1,2021-08-07 11:40:46,862816
-7,-5,-4,-3,-4,-9,-10,-5,2021-08-07 11:40:46,862816
0,-1,-2,-8,-7,-2,-2,-1,2021-08-07 11:40:46,862816
1,2,2,11,7,5,4,1,2021-08-07 11:40:46,878818
0,-3,-4,-8,-12,-2,5,2,2021-08-07 11:40:46,878818
0,1,0,0,4,3,1,1,2021-08-07 11:40:46,878818
-4,-4,-3,-4,-6,-7,-7,-6,2021-08-07 11:40:46,878818
-6,-6,-9,-14,-15,-10,-8,-4,2021-08-07 11:40:46,909815
2,3,2,4,6,2,-1,0,2021-08-07 11:40:46,925815
2,3,2,4,7,2,4,4,2021-08-07 11:40:46,925815
-2,-1,-3,-4,-9,2,7,3,2021-08-07 11:40:46,925815
-1,0,-5,-15,-7,-2,-1,-2,2021-08-07 11:40:46,925815
-1,0,6,14,-1,-8,-6,-4,2021-08-07 11:40:46,925815
-2,-2,1,7,15,4,-3,-3,2021-08-07 11:40:46,925815
-1,0,0,1,7,0,0,0,2021-08-07 11:40:46,926820
-3,-4,-4,-8,-13,-2,-2,-1,2021-08-07 11:40:46,941817
-1,1,-2,-4,-2,0,-2,1,2021-08-07 11:40:46,957818
2,2,0,1,0,1,-1,0,2021-08-07 11:40:46,973816
-2,-3,-1,-3,-6,-1,0,-1,2021-08-07 11:40:46,973816
-1,-1,-3,-5,-4,-3,-2,0,2021-08-07 11:40:46,973816
-4,-6,-6,-11,-9,-2,-4,-2,2021-08-07 11:40:46,973816
8,9,8,16,16,8,7,7,2021-08-07 11:40:46,973816
-1,-3,-1,2,-2,0,-1,-3,2021-08-07 11:40:46,973816
-2,-3,-1,4,7,-1,-5,-3,2021-08-07 11:40:46,974816
-4,-5,-4,-4,-7,-5,-3,-3,2021-08-07 11:40:46,974816
-3,-4,-6,-15,-13,-6,-1,-3,2021-08-07 11:40:47,005816
4,6,7,11,9,3,3,4,2021-08-07 11:40:47,005816
-2,-4,-3,-7,-1,-1,0,-3,2021-08-07 11:40:47,005816
2,4,7,16,6,4,3,2,2021-08-07 11:40:47,005816
-3,-1,-4,-12,-12,-4,-2,-2,2021-08-07 11:40:47,005816
0,1,4,12,12,3,1,0,2021-08-07 11:40:47,005816
-3,-2,-3,1,-1,-1,-3,-2,2021-08-07 11:40:47,021816
-1,0,-3,-1,9,3,0,-1,2021-08-07 11:40:47,037817
-1,-2,-3,-9,-16,-6,-1,-2,2021-08-07 11:40:47,037817
-1,-1,-1,-5,-8,-6,-3,-2,2021-08-07 11:40:47,037817
-1,-1,4,6,8,1,-1,-1,2021-08-07 11:40:47,037817
2,2,0,2,4,2,3,2,2021-08-07 11:40:47,037817
-1,-1,-1,0,-5,-4,-3,-1,2021-08-07 11:40:47,053817
-4,-6,-10,-16,-3,-4,-5,-4,2021-08-07 11:40:47,053817
-4,-2,4,19,5,1,0,-2,2021-08-07 11:40:47,053817
2,1,-1,-6,-4,1,3,3,2021-08-07 11:40:47,053817
6,7,8,5,5,3,3,3,2021-08-07 11:40:47,069816
-1,0,-1,0,1,0,-2,-1,2021-08-07 11:40:47,084816
-1,-3,-4,-7,-2,-1,-2,-1,2021-08-07 11:40:47,100817
-5,-6,-6,-10,-9,-6,-4,-4,2021-08-07 11:40:47,100817
0,1,-1,5,1,1,0,1,2021-08-07 11:40:47,100817
-2,-2,-3,-8,-6,-4,-1,-2,2021-08-07 11:40:47,100817
2,3,5,4,3,2,1,1,2021-08-07 11:40:47,100817
-3,-2,-1,-1,-1,-1,-1,-2,2021-08-07 11:40:47,100817
-3,-1,-1,-1,3,2,1,-1,2021-08-07 11:40:47,101818
1,-1,1,0,-3,-1,-1,-1,2021-08-07 11:40:47,101818
-2,-2,-3,-6,-7,-6,0,-1,2021-08-07 11:40:47,132817
-1,-2,-3,-1,-1,-1,-1,-1,2021-08-07 11:40:47,132817
-2,-3,1,4,9,5,2,0,2021-08-07 11:40:47,132817
-1,0,0,1,-4,-3,-2,1,2021-08-07 11:40:47,132817
1,-1,-1,-4,-4,-1,0,1,2021-08-07 11:40:47,148815
2,2,1,2,1,2,1,2,2021-08-07 11:40:47,151817
-4,-6,-6,-7,-6,-6,-4,-4,2021-08-07 11:40:47,151817
-5,-6,-6,-5,-7,-5,-3,-4,2021-08-07 11:40:47,152818
2,3,-2,-10,-5,-2,-1,3,2021-08-07 11:40:47,152818
7,10,15,32,21,8,4,5,2021-08-07 11:40:47,152818
2,0,-2,-1,4,3,3,2,2021-08-07 11:40:47,164816
0,-1,2,1,-4,-1,1,-1,2021-08-07 11:40:47,164816
-1,-4,-3,0,11,3,1,-2,2021-08-07 11:40:47,180815
-6,-6,-5,-5,0,-2,-3,-3,2021-08-07 11:40:47,180815
-1,1,1,-1,-6,-5,-1,0,2021-08-07 11:40:47,180815
0,-3,-3,-2,-4,-2,-2,-2,2021-08-07 11:40:47,180815
-1,-2,-4,-7,-5,0,-2,-1,2021-08-07 11:40:47,211817
-1,0,-1,-5,-3,-2,-2,-1,2021-08-07 11:40:47,211817
-2,-2,-5,-15,-22,-11,-5,-2,2021-08-07 11:40:47,211817
0,2,5,22,33,11,4,2,2021-08-07 11:40:47,211817
-2,0,1,4,0,-2,0,0,2021-08-07 11:40:47,227815
-4,-5,-5,-13,-7,-5,-3,-4,2021-08-07 11:40:47,242816
2,2,10,19,15,8,2,0,2021-08-07 11:40:47,258816
-1,-1,-2,-1,-4,0,-1,1,2021-08-07 11:40:47,258816
0,-1,-1,0,-3,-2,-2,-2,2021-08-07 11:40:47,258816
-1,-2,-4,-5,-2,-2,0,-1,2021-08-07 11:40:47,258816
-2,-2,-5,-6,2,1,-2,-2,2021-08-07 11:40:47,258816
-3,-2,-4,-9,-9,-4,-3,-2,2021-08-07 11:40:47,258816
1,0,0,2,2,-1,0,-1,2021-08-07 11:40:47,258816
-3,-4,-6,-18,-19,-8,-3,-3,2021-08-07 11:40:47,259817
1,1,2,7,8,4,2,1,2021-08-07 11:40:47,259817
0,0,0,4,5,4,2,2,2021-08-07 11:40:47,259817
-4,-3,-8,-14,-16,-10,-5,-4,2021-08-07 11:40:47,289815
-2,-2,-2,-4,-3,-3,-2,-3,2021-08-07 11:40:47,305816
-1,-3,-2,1,0,-1,-2,-1,2021-08-07 11:40:47,305816
1,1,3,1,5,2,1,-1,2021-08-07 11:40:47,305816
-1,-1,-1,-6,-3,0,0,0,2021-08-07 11:40:47,305816
2,3,7,19,12,6,4,1,2021-08-07 11:40:47,305816
-1,0,0,1,-3,0,-3,-1,2021-08-07 11:40:47,305816
-3,-3,-6,-10,-8,-2,-3,-2,2021-08-07 11:40:47,306817
-2,-1,0,1,-1,0,-2,-1,2021-08-07 11:40:47,320818
2,2,3,3,5,2,0,3,2021-08-07 11:40:47,336817
-4,-4,-2,-4,-6,-4,-2,-1,2021-08-07 11:40:47,352818
1,1,1,0,-5,-3,-2,0,2021-08-07 11:40:47,352818
0,1,3,5,6,2,0,0,2021-08-07 11:40:47,352818
-6,-8,-8,-9,-12,-6,-4,-5,2021-08-07 11:40:47,352818
5,7,5,9,10,7,3,3,2021-08-07 11:40:47,352818
1,0,1,1,1,1,2,-1,2021-08-07 11:40:47,353817
-1,1,0,-1,4,1,1,-1,2021-08-07 11:40:47,353817
0,-1,-2,-4,-3,-2,0,0,2021-08-07 11:40:47,353817
-3,-5,-5,-12,-15,-7,-2,-3,2021-08-07 11:40:47,368818
-4,-4,-5,-5,-2,-2,-3,-1,2021-08-07 11:40:47,368818
-2,0,3,10,7,-1,-1,-1,2021-08-07 11:40:47,384817
-1,-2,-3,-5,0,1,-2,0,2021-08-07 11:40:47,400817
1,-2,-4,-4,-3,-3,-2,-1,2021-08-07 11:40:47,400817
-4,0,-2,-10,-12,-6,-4,-1,2021-08-07 11:40:47,400817
0,0,0,1,1,0,0,0,2021-08-07 11:40:47,400817
-1,1,2,6,4,3,0,0,2021-08-07 11:40:47,400817
-1,-2,1,2,6,2,0,-2,2021-08-07 11:40:47,400817
-1,-3,-1,0,-3,-1,-3,-2,2021-08-07 11:40:47,401817
-4,-4,-6,-4,-1,-1,-1,-1,2021-08-07 11:40:47,432818
2,4,4,2,-3,-1,2,2,2021-08-07 11:40:47,432818
-1,1,-2,-1,0,0,0,-1,2021-08-07 11:40:47,432818
-3,-1,-3,-2,-4,-4,-3,-3,2021-08-07 11:40:47,432818
0,-2,-1,1,-3,-1,-1,-2,2021-08-07 11:40:47,448815
-1,-2,0,-2,4,2,1,-1,2021-08-07 11:40:47,464817
-1,-2,-1,0,-4,-2,0,-2,2021-08-07 11:40:47,464817
1,0,-1,-7,-3,-2,0,1,2021-08-07 11:40:47,464817
0,1,2,3,0,2,0,-1,2021-08-07 11:40:47,464817
0,0,-2,-9,-8,-4,-1,-1,2021-08-07 11:40:47,464817
0,-1,2,8,13,5,1,0,2021-08-07 11:40:47,465817
-2,-5,-2,3,0,-2,-1,-1,2021-08-07 11:40:47,465817
-2,-1,-3,-7,-10,-6,-4,-4,2021-08-07 11:40:47,480816
1,3,1,-2,-1,0,-1,1,2021-08-07 11:40:47,480816
-2,-2,-2,-3,-4,-5,-1,-1,2021-08-07 11:40:47,480816
-1,1,-1,-7,-4,0,-2,-1,2021-08-07 11:40:47,480816
-4,-2,-4,-8,-13,-6,-4,-2,2021-08-07 11:40:47,512817
-5,-5,-2,8,7,0,-3,-4,2021-08-07 11:40:47,528817
6,3,5,9,21,8,4,4,2021-08-07 11:40:47,544817
2,3,-1,6,4,2,1,1,2021-08-07 11:40:47,544817
2,0,2,-2,0,-1,2,2,2021-08-07 11:40:47,544817
-6,-8,-8,-10,-12,-6,-2,-3,2021-08-07 11:40:47,544817
-6,-5,-6,-5,-12,-6,-5,-5,2021-08-07 11:40:47,544817
-4,-2,3,4,3,-1,-3,-4,2021-08-07 11:40:47,544817
-2,1,1,-3,-4,-3,-2,-2,2021-08-07 11:40:47,545818
-2,-1,0,2,4,1,-1,-1,2021-08-07 11:40:47,545818
4,5,4,-1,1,0,1,2,2021-08-07 11:40:47,545818
2,1,0,-1,-3,-1,0,0,2021-08-07 11:40:47,545818
2,-2,1,7,7,2,0,3,2021-08-07 11:40:47,575817
3,5,3,5,8,4,2,2,2021-08-07 11:40:47,591818
-4,-4,-5,-8,-8,-4,-2,-1,2021-08-07 11:40:47,593815
-3,-2,-3,-7,-3,-4,-2,-2,2021-08-07 11:40:47,593815
0,0,-3,-1,-4,-3,-1,1,2021-08-07 11:40:47,593815
-4,-3,-6,-13,-6,-2,-2,0,2021-08-07 11:40:47,594817
-1,0,3,11,4,3,0,0,2021-08-07 11:40:47,594817
-3,-5,-3,1,2,0,1,-1,2021-08-07 11:40:47,594817
0,-1,-1,-1,1,0,0,-2,2021-08-07 11:40:47,594817
0,0,-1,-9,-8,-5,-1,-1,2021-08-07 11:40:47,594817
0,-1,-3,-11,-16,-6,-1,-1,2021-08-07 11:40:47,607817
2,1,5,15,18,6,2,1,2021-08-07 11:40:47,607817
-4,-4,-3,7,7,2,-3,-3,2021-08-07 11:40:47,622817
-1,-2,-2,-7,-6,-5,-3,-1,2021-08-07 11:40:47,638816
-2,-2,-4,-14,-12,-6,-5,-3,2021-08-07 11:40:47,654816
2,1,4,14,13,7,2,1,2021-08-07 11:40:47,654816
4,4,1,-1,-2,1,0,0,2021-08-07 11:40:47,654816
-1,-1,0,8,7,3,1,0,2021-08-07 11:40:47,654816
-6,-6,-8,-13,-15,-10,-4,-3,2021-08-07 11:40:47,654816
-2,0,0,-1,-2,-1,-3,-1,2021-08-07 11:40:47,654816
1,-1,-1,0,2,3,1,1,2021-08-07 11:40:47,655817
2,2,3,-2,-2,-2,-1,1,2021-08-07 11:40:47,655817
-3,-4,-1,10,6,0,1,-4,2021-08-07 11:40:47,669817
1,0,3,4,3,2,1,1,2021-08-07 11:40:47,669817
-2,0,-2,0,-1,-2,-2,-1,2021-08-07 11:40:47,685815
-1,-3,-5,-5,-7,-4,-2,-3,2021-08-07 11:40:47,701816
-2,-2,1,-7,-4,-2,-3,-2,2021-08-07 11:40:47,717817
-1,-2,-2,-10,-12,-5,-2,-1,2021-08-07 11:40:47,717817
-2,-3,-4,1,6,4,1,0,2021-08-07 11:40:47,717817
-2,-2,-2,8,7,3,1,0,2021-08-07 11:40:47,717817
0,0,0,1,5,2,-1,0,2021-08-07 11:40:47,717817
1,3,-1,-6,-13,-5,-1,1,2021-08-07 11:40:47,717817
1,1,4,1,-4,-3,0,0,2021-08-07 11:40:47,717817
-1,-1,1,3,8,4,1,-1,2021-08-07 11:40:47,717817
-3,-5,-4,-1,3,0,-2,-2,2021-08-07 11:40:47,733816
-3,-6,-7,-13,-12,-5,-4,-2,2021-08-07 11:40:47,733816
2,4,7,9,5,2,1,2,2021-08-07 11:40:47,749817
0,-2,-3,-3,-4,-1,-1,-1,2021-08-07 11:40:47,749817
-1,-1,-3,-8,-4,-2,-1,-1,2021-08-07 11:40:47,765817
1,1,3,12,4,1,0,0,2021-08-07 11:40:47,765817
-1,-2,-2,-3,-1,-2,-2,0,2021-08-07 11:40:47,765817
0,0,-1,-1,4,1,0,-1,2021-08-07 11:40:47,765817
5,7,7,9,6,4,4,3,2021-08-07 11:40:47,765817
-2,-1,-4,-7,-3,-1,-1,-3,2021-08-07 11:40:47,765817
-2,-4,-3,-4,1,-3,1,0,2021-08-07 11:40:47,781816
-1,-2,-5,-5,-9,-3,-2,-3,2021-08-07 11:40:47,781816
-2,-1,0,1,0,0,0,1,2021-08-07 11:40:47,781816
1,2,6,18,22,8,3,0,2021-08-07 11:40:47,781816
-3,-3,-5,-10,-10,-6,-4,-4,2021-08-07 11:40:47,812817
-3,-5,-9,-21,-17,-8,-3,-2,2021-08-07 11:40:47,812817
0,1,6,16,7,3,1,0,2021-08-07 11:40:47,844854
-1,-2,-4,-4,-5,-3,-3,-1,2021-08-07 11:40:47,844854
-3,-2,-2,-1,-1,0,-2,-4,2021-08-07 11:40:47,860852
2,2,2,4,1,1,1,2,2021-08-07 11:40:47,876853
3,2,1,3,2,1,1,2,2021-08-07 11:40:47,892855
0,-1,0,1,0,0,2,-1,2021-08-07 11:40:47,892855
-1,0,0,5,3,0,0,-1,2021-08-07 11:40:47,892855
-2,-4,0,1,1,0,0,-2,2021-08-07 11:40:47,892855
-3,-2,-5,-6,-5,-3,-2,-3,2021-08-07 11:40:47,892855
-2,-4,-6,-9,-8,-6,-4,-3,2021-08-07 11:40:47,892855
-1,-5,-6,-9,-5,-1,-3,-2,2021-08-07 11:40:47,893854
5,7,9,17,10,4,3,2,2021-08-07 11:40:47,893854
2,2,0,2,2,2,1,0,2021-08-07 11:40:47,893854
-1,-2,-2,-2,-2,-1,-3,-1,2021-08-07 11:40:47,893854
-5,-5,-8,-19,-15,-8,-6,-5,2021-08-07 11:40:47,893854
5,5,7,25,15,7,4,4,2021-08-07 11:40:47,893854
1,0,0,5,6,1,1,-1,2021-08-07 11:40:47,893854
-1,-1,-4,-7,-8,-5,-1,0,2021-08-07 11:40:47,893854
-1,1,2,-1,1,-1,0,-1,2021-08-07 11:40:47,894854
-5,-4,-3,-9,-7,-3,-2,-1,2021-08-07 11:40:47,894854
-4,-4,-4,-3,-3,-3,-2,-2,2021-08-07 11:40:47,908853
0,-1,0,1,0,0,-1,-1,2021-08-07 11:40:47,908853
-1,0,-2,-6,-8,-2,-2,-2,2021-08-07 11:40:47,924854
0,1,0,0,1,0,-1,-2,2021-08-07 11:40:47,940854
0,-3,-2,3,7,4,-1,-1,2021-08-07 11:40:47,940854
1,1,3,5,3,3,0,0,2021-08-07 11:40:47,940854
1,0,1,6,8,4,0,0,2021-08-07 11:40:47,940854
-2,-3,-5,-8,-11,-8,-2,-1,2021-08-07 11:40:47,940854
-1,-2,-3,-7,-6,-3,-1,-1,2021-08-07 11:40:47,941854
-4,-3,-2,-3,-6,-2,-2,-2,2021-08-07 11:40:47,941854
-2,-2,-3,-3,-2,-1,-2,1,2021-08-07 11:40:47,971853
1,0,0,4,6,3,2,1,2021-08-07 11:40:47,987854
-2,-3,-3,-3,-1,-3,-3,-2,2021-08-07 11:40:48,003855
0,2,0,5,6,3,3,2,2021-08-07 11:40:48,003855
2,0,1,3,1,0,1,1,2021-08-07 11:40:48,003855
-4,-4,-3,-6,-5,-4,-4,-2,2021-08-07 11:40:48,003855
2,3,1,-1,-4,-3,-1,2,2021-08-07 11:40:48,003855
0,-3,-3,-8,-6,-3,-2,-1,2021-08-07 11:40:48,004855
-1,-1,1,2,2,0,1,-2,2021-08-07 11:40:48,004855
-5,-6,-5,-5,-1,-4,-3,-4,2021-08-07 11:40:48,004855
4,5,0,-4,-4,-2,1,2,2021-08-07 11:40:48,004855
-2,-2,-1,0,0,-1,-5,-2,2021-08-07 11:40:48,004855
-1,-1,-2,-4,-3,0,0,0,2021-08-07 11:40:48,019853
-3,-4,-2,0,-4,-1,-3,-2,2021-08-07 11:40:48,034854
-3,-2,-3,-4,4,1,0,-3,2021-08-07 11:40:48,042854
-1,0,-6,-22,-26,-11,-4,-4,2021-08-07 11:40:48,042854
4,4,10,27,31,12,5,3,2021-08-07 11:40:48,042854
-2,0,-2,-3,-1,1,-1,-2,2021-08-07 11:40:48,043853
-1,-2,-1,0,0,0,0,0,2021-08-07 11:40:48,043853
0,0,1,-2,1,-1,-1,0,2021-08-07 11:40:48,043853
-2,-2,-6,-12,-19,-11,-4,-1,2021-08-07 11:40:48,066373
1,1,-1,-7,-9,-2,-1,-1,2021-08-07 11:40:48,066373
-4,-5,-1,5,9,2,-2,-4,2021-08-07 11:40:48,082371
-3,-3,-4,-10,-4,-3,-1,-2,2021-08-07 11:40:48,082371
4,5,7,13,6,4,3,3,2021-08-07 11:40:48,082371
3,2,4,2,2,2,1,2,2021-08-07 11:40:48,082371
-4,-5,-5,-9,-13,-5,-2,-2,2021-08-07 11:40:48,098372
-9,-9,-9,-4,-2,-4,-6,-7,2021-08-07 11:40:48,098372
7,9,6,6,8,5,5,7,2021-08-07 11:40:48,098372
1,3,1,1,2,1,1,-1,2021-08-07 11:40:48,098372
0,2,4,2,0,0,2,2,2021-08-07 11:40:48,098372
-4,-4,-3,1,0,-1,0,-2,2021-08-07 11:40:48,099372
-5,-7,-6,-5,1,-3,-1,-4,2021-08-07 11:40:48,129372
0,2,2,9,3,-1,0,0,2021-08-07 11:40:48,129372
-2,-3,-5,-9,-8,-4,-4,-2,2021-08-07 11:40:48,129372
1,-2,-4,-12,-4,-1,-1,-1,2021-08-07 11:40:48,129372
-2,-3,4,13,4,0,-2,-2,2021-08-07 11:40:48,145370
5,4,4,0,4,5,3,3,2021-08-07 11:40:48,145370
0,-2,2,8,14,4,1,0,2021-08-07 11:40:48,145370
-1,-1,-3,-5,-11,-5,-2,-1,2021-08-07 11:40:48,145370
1,-1,-3,-2,-2,0,0,0,2021-08-07 11:40:48,161370
-3,-2,-3,1,4,-1,-2,-3,2021-08-07 11:40:48,161370
-1,-1,-4,-1,-5,-1,-1,-1,2021-08-07 11:40:48,161370
0,0,1,0,-2,-2,1,0,2021-08-07 11:40:48,161370
-2,-2,-1,-7,-6,-3,-2,-1,2021-08-07 11:40:48,193372
-2,-2,-2,-3,-6,-3,-1,0,2021-08-07 11:40:48,193372
-4,-3,-5,-7,-5,-3,-3,-3,2021-08-07 11:40:48,193372
5,6,8,12,10,4,4,4,2021-08-07 11:40:48,193372
-2,-2,0,0,-5,-2,-3,-3,2021-08-07 11:40:48,209372
-2,-2,1,4,3,2,0,-3,2021-08-07 11:40:48,225374
0,0,2,1,-4,-1,0,-1,2021-08-07 11:40:48,225374
-1,0,4,10,10,4,2,-1,2021-08-07 11:40:48,225374
-1,-1,-7,-6,-6,-2,-1,-1,2021-08-07 11:40:48,225374
-1,-5,-5,-10,-1,-3,-2,-2,2021-08-07 11:40:48,225374
1,0,-1,0,-3,0,0,0,2021-08-07 11:40:48,225374
0,1,3,9,6,2,1,-1,2021-08-07 11:40:48,225374
0,-2,-3,-7,-4,-2,0,-1,2021-08-07 11:40:48,257372
-2,-4,-5,-5,-3,-3,-1,-1,2021-08-07 11:40:48,257372
-2,-2,-1,1,-5,-3,-4,-1,2021-08-07 11:40:48,257372
-2,-3,0,3,7,3,-1,-1,2021-08-07 11:40:48,257372
-3,-3,-4,-5,-3,-3,-2,-2,2021-08-07 11:40:48,273372
3,3,3,4,0,1,2,2,2021-08-07 11:40:48,273372
-1,1,3,2,3,0,1,-1,2021-08-07 11:40:48,273372
-2,-1,-1,-1,-5,-2,-3,-2,2021-08-07 11:40:48,273372
-4,-6,-12,-29,-16,-8,-6,-4,2021-08-07 11:40:48,289372
5,6,10,21,10,7,5,6,2021-08-07 11:40:48,305372
0,-1,-3,-4,-3,-1,1,1,2021-08-07 11:40:48,321373
-2,-2,-2,-2,-2,-2,-3,-3,2021-08-07 11:40:48,321373
-3,-1,1,6,2,1,0,-1,2021-08-07 11:40:48,321373
1,1,0,0,4,0,0,1,2021-08-07 11:40:48,321373
-1,-2,-2,-6,-9,-4,-3,-2,2021-08-07 11:40:48,321373
1,0,-1,-6,-8,-3,-1,0,2021-08-07 11:40:48,321373
0,-3,0,8,12,4,-1,1,2021-08-07 11:40:48,321373
-1,-1,-1,-6,-5,-3,-4,-2,2021-08-07 11:40:48,321373
0,1,4,8,7,3,1,1,2021-08-07 11:40:48,337373
-2,-4,-5,-8,-6,-2,-3,-2,2021-08-07 11:40:48,337373
0,-2,-3,-6,-8,-1,0,1,2021-08-07 11:40:48,337373
0,0,-4,-8,-7,-3,-1,-1,2021-08-07 11:40:48,337373
-3,-2,-2,5,9,2,1,-3,2021-08-07 11:40:48,353371
-2,1,1,2,0,1,0,-1,2021-08-07 11:40:48,353371
-2,0,3,3,2,1,-3,-1,2021-08-07 11:40:48,369371
-5,-4,-6,-9,-10,-5,-5,-7,2021-08-07 11:40:48,385372
-1,-3,-4,-8,-10,-7,-3,-2,2021-08-07 11:40:48,401372
4,4,6,11,11,4,4,4,2021-08-07 11:40:48,417371
1,4,3,5,0,-1,2,1,2021-08-07 11:40:48,417371
-4,-4,-3,-6,-3,-1,0,-1,2021-08-07 11:40:48,417371
0,-2,-3,-3,-5,-3,-1,-1,2021-08-07 11:40:48,417371
0,1,-4,0,3,1,1,1,2021-08-07 11:40:48,417371
-1,-1,-2,-3,-1,0,-1,-1,2021-08-07 11:40:48,417371
-2,1,2,2,-2,-3,-1,0,2021-08-07 11:40:48,417371
0,-1,-3,0,0,-1,0,0,2021-08-07 11:40:48,417371
-1,-4,-3,2,8,1,-1,0,2021-08-07 11:40:48,417371
0,-2,-1,-1,-4,-1,-1,-2,2021-08-07 11:40:48,418373
0,0,-3,-7,-1,-1,-1,0,2021-08-07 11:40:48,418373
1,2,7,15,6,3,1,0,2021-08-07 11:40:48,433373
-2,-2,-2,-7,-11,-6,-2,-3,2021-08-07 11:40:48,433373
1,1,1,3,6,2,1,1,2021-08-07 11:40:48,449372
-4,-7,-9,-16,-21,-10,-5,-3,2021-08-07 11:40:48,449372
1,1,2,1,6,3,2,2,2021-08-07 11:40:48,449372
2,2,3,13,16,7,2,0,2021-08-07 11:40:48,450375
2,1,4,2,1,0,0,-3,2021-08-07 11:40:48,465371
0,-1,-3,2,2,0,-1,-2,2021-08-07 11:40:48,465371
-4,-4,-7,-18,-17,-9,-3,-4,2021-08-07 11:40:48,465371
-5,-4,-4,-6,-8,-6,-4,-3,2021-08-07 11:40:48,465371
-1,0,1,0,-2,-1,-1,1,2021-08-07 11:40:48,485372
1,2,4,8,10,6,1,-1,2021-08-07 11:40:48,486373
2,3,6,9,11,6,2,2,2021-08-07 11:40:48,486373
-3,-5,-5,-11,-11,-6,-4,-2,2021-08-07 11:40:48,486373
-3,-2,-6,-8,-8,-6,-2,-2,2021-08-07 11:40:48,513372
0,-2,-3,-5,-2,-4,-2,-1,2021-08-07 11:40:48,513372
2,3,4,7,5,2,0,1,2021-08-07 11:40:48,513372
0,1,5,8,5,3,2,0,2021-08-07 11:40:48,513372
-1,-1,-2,-5,0,-1,0,-1,2021-08-07 11:40:48,529373
-1,-1,2,7,1,1,0,1,2021-08-07 11:40:48,529373
-2,-4,-5,-7,-5,-3,-5,-3,2021-08-07 11:40:48,529373
0,1,3,7,3,3,-1,0,2021-08-07 11:40:48,529373
0,-1,1,5,1,-2,-1,0,2021-08-07 11:40:48,545372
-1,0,-3,-2,3,2,1,0,2021-08-07 11:40:48,545372
-3,-2,-3,-6,-6,-2,-2,-3,2021-08-07 11:40:48,545372
-4,-3,-8,-13,-16,-9,-6,-3,2021-08-07 11:40:48,545372
1,3,4,8,12,6,2,0,2021-08-07 11:40:48,577370
-3,-3,0,4,1,-3,-2,-1,2021-08-07 11:40:48,593371
2,6,5,8,6,3,1,1,2021-08-07 11:40:48,609372
-3,-4,-4,-5,-3,-1,-2,-3,2021-08-07 11:40:48,609372
-3,-6,-9,-11,-15,-8,-3,-2,2021-08-07 11:40:48,609372
1,2,0,-8,-5,0,-1,1,2021-08-07 11:40:48,609372
-2,-6,-5,-7,-5,-4,-2,-2,2021-08-07 11:40:48,609372
-1,0,3,8,6,2,-1,-2,2021-08-07 11:40:48,609372
3,3,3,8,14,7,4,3,2021-08-07 11:40:48,609372
-4,-3,0,2,-2,-1,-2,-3,2021-08-07 11:40:48,609372
-2,-1,-3,-7,-8,-4,-1,0,2021-08-07 11:40:48,609372
3,3,0,-1,-2,0,0,2,2021-08-07 11:40:48,610373
-2,-4,0,-1,-5,-5,-4,-2,2021-08-07 11:40:48,640371
0,0,-1,1,3,0,0,-2,2021-08-07 11:40:48,656372
-3,-1,-2,0,3,2,-1,-1,2021-08-07 11:40:48,672371
-3,-1,-2,-7,-6,-4,-3,-1,2021-08-07 11:40:48,672371
-2,1,0,-2,-10,-3,-1,-1,2021-08-07 11:40:48,672371
1,2,3,5,11,4,2,2,2021-08-07 11:40:48,672371
-1,-3,-3,0,-5,-4,-2,-2,2021-08-07 11:40:48,672371
-2,-1,-6,-14,-4,-3,1,-1,2021-08-07 11:40:48,672371
1,0,1,-4,-8,-1,0,1,2021-08-07 11:40:48,673373
-4,-4,-3,0,4,0,-1,-2,2021-08-07 11:40:48,673373
0,0,-1,-1,1,1,0,1,2021-08-07 11:40:48,673373
0,0,0,2,-4,-4,-1,-1,2021-08-07 11:40:48,673373
0,1,-1,0,0,0,1,0,2021-08-07 11:40:48,687373
0,-2,-3,-6,-5,-3,-1,-2,2021-08-07 11:40:48,703373
-3,-2,-3,-4,-6,-4,-4,-2,2021-08-07 11:40:48,703373
0,-2,2,11,13,6,2,1,2021-08-07 11:40:48,703373
0,-3,-1,-1,1,0,0,-1,2021-08-07 11:40:48,703373
0,0,1,4,2,4,0,1,2021-08-07 11:40:48,703373
-5,-4,-4,-7,-8,-4,-3,-2,2021-08-07 11:40:48,704374
-1,0,0,-4,-8,-4,0,-1,2021-08-07 11:40:48,704374
2,3,0,-10,-3,-1,-1,2,2021-08-07 11:40:48,735371
6,7,10,18,14,5,2,3,2021-08-07 11:40:48,751370
2,-1,2,4,4,5,3,1,2021-08-07 11:40:48,767372
-2,-1,-2,1,3,-1,-2,-2,2021-08-07 11:40:48,767372
-5,-4,-7,-8,-7,-3,-4,-5,2021-08-07 11:40:48,767372
6,2,-2,-11,-6,13,23,14,2021-08-07 11:40:48,767372
8,9,8,11,7,7,0,4,2021-08-07 11:40:48,768375
-4,-5,-4,-5,-5,-19,-22,-14,2021-08-07 11:40:48,768375
0,0,1,6,17,35,50,21,2021-08-07 11:40:48,768375
11,5,1,-1,5,24,9,12,2021-08-07 11:40:48,768375
0,-1,1,0,-8,-41,-50,-22,2021-08-07 11:40:48,768375
-56,-41,-28,-37,-56,-74,-63,-55,2021-08-07 11:40:48,768375
-5,-6,-5,-7,-8,-14,-17,-8,2021-08-07 11:40:48,797372
4,5,3,1,2,8,16,3,2021-08-07 11:40:48,813373
15,11,5,5,8,43,52,31,2021-08-07 11:40:48,829372
33,24,16,14,36,67,73,43,2021-08-07 11:40:48,829372
36,21,18,44,47,59,39,41,2021-08-07 11:40:48,829372
34,14,6,16,13,-4,-18,12,2021-08-07 11:40:48,830375
-81,-41,-27,-36,-60,-101,-104,-103,2021-08-07 11:40:48,830375
-77,-40,-25,-35,-47,-60,-55,-57,2021-08-07 11:40:48,830375
-5,-9,-10,-17,-14,0,10,6,2021-08-07 11:40:48,845372
35,19,9,14,27,53,51,40,2021-08-07 11:40:48,861372
61,37,22,24,29,59,49,49,2021-08-07 11:40:48,861372
31,15,7,15,21,31,23,24,2021-08-07 11:40:48,861372
-54,-16,-4,-6,-19,-61,-51,-48,2021-08-07 11:40:48,861372
-75,-46,-26,-30,-49,-82,-71,-61,2021-08-07 11:40:48,861372
3,-5,-4,-3,7,1,9,10,2021-08-07 11:40:48,861372
45,18,7,11,12,39,38,37,2021-08-07 11:40:48,861372
35,15,10,8,11,23,13,15,2021-08-07 11:40:48,862373
-14,-5,-2,-8,-20,-14,-8,-17,2021-08-07 11:40:48,862373
-16,-12,-5,1,-3,4,6,-4,2021-08-07 11:40:48,877371
28,17,12,26,44,34,19,26,2021-08-07 11:40:48,893372
16,11,7,11,8,-12,-18,-4,2021-08-07 11:40:48,909370
-26,-16,-17,-22,-24,-25,-18,-23,2021-08-07 11:40:48,909370
4,2,2,-3,5,16,20,17,2021-08-07 11:40:48,909370
6,11,13,3,-18,-13,-13,-3,2021-08-07 11:40:48,909370
-9,-3,5,28,34,7,-4,-9,2021-08-07 11:40:48,909370
-11,-9,-15,-11,-14,-2,2,-3,2021-08-07 11:40:48,909370
-10,-16,-17,-39,-22,-11,-5,-1,2021-08-07 11:40:48,909370
1,3,-1,-7,-18,-12,-6,-3,2021-08-07 11:40:48,909370
-12,-4,5,0,-10,-5,-5,-9,2021-08-07 11:40:48,925372
19,17,30,51,54,30,17,16,2021-08-07 11:40:48,932374
11,7,4,27,20,8,4,4,2021-08-07 11:40:48,933373
-17,-23,-50,-68,-33,-15,-5,-11,2021-08-07 11:40:48,933373
-17,-20,-36,-99,-60,-22,-13,-11,2021-08-07 11:40:48,957372
0,-7,-12,13,9,-2,-7,1,2021-08-07 11:40:48,957372
-8,-3,2,-10,-39,-19,-6,-5,2021-08-07 11:40:48,957372
4,10,30,71,60,26,12,5,2021-08-07 11:40:48,957372
12,12,18,30,16,10,5,4,2021-08-07 11:40:48,972372
-3,-1,2,-14,-7,-4,-6,-5,2021-08-07 11:40:48,988372
-5,-2,6,17,13,4,4,-1,2021-08-07 11:40:49,004373
4,1,-4,-16,-21,-4,1,3,2021-08-07 11:40:49,004373
-5,-10,-12,-13,-18,-15,-11,-8,2021-08-07 11:40:49,004373
-8,-4,-2,-13,-14,-6,-2,-6,2021-08-07 11:40:49,004373
11,14,13,34,44,23,14,11,2021-08-07 11:40:49,004373
0,-1,3,-4,1,-4,-2,-1,2021-08-07 11:40:49,004373
-7,-5,-2,10,-1,-4,-5,-6,2021-08-07 11:40:49,005375
0,1,1,1,-5,1,1,1,2021-08-07 11:40:49,005375
-1,-5,-16,-29,-17,-6,-4,-3,2021-08-07 11:40:49,005375
-6,-5,-1,-7,-2,-6,-7,-5,2021-08-07 11:40:49,005375
7,10,11,22,1,0,4,5,2021-08-07 11:40:49,036374
1,-1,-3,-8,2,5,2,1,2021-08-07 11:40:49,036374
-2,-3,-4,5,16,5,0,-1,2021-08-07 11:40:49,036374
-1,0,6,7,3,0,-1,-1,2021-08-07 11:40:49,036374
-3,-4,-8,-10,-9,-2,-1,-1,2021-08-07 11:40:49,052372
4,2,0,-7,-8,-4,-1,0,2021-08-07 11:40:49,052372
-2,-2,-1,0,-3,-4,-2,-3,2021-08-07 11:40:49,052372
-3,-3,-3,0,-3,-1,-2,-2,2021-08-07 11:40:49,052372
0,-1,3,4,-1,1,0,-1,2021-08-07 11:40:49,068371
8,8,0,3,7,1,3,2,2021-08-07 11:40:49,084373
-6,-6,-6,-12,-15,-6,-3,-5,2021-08-07 11:40:49,084373
0,0,0,6,13,6,3,2,2021-08-07 11:40:49,084373
-4,-5,-8,-10,-2,-5,-4,-4,2021-08-07 11:40:49,084373
5,7,10,8,8,2,1,5,2021-08-07 11:40:49,084373
-1,-2,-1,4,0,1,0,-1,2021-08-07 11:40:49,100374
-3,-2,-3,-9,-13,-4,-4,-2,2021-08-07 11:40:49,100374
-1,1,7,13,13,6,2,1,2021-08-07 11:40:49,116371
-2,-2,-4,3,0,-1,0,0,2021-08-07 11:40:49,116371
3,4,3,3,-3,-2,0,2,2021-08-07 11:40:49,116371
0,1,-1,10,4,1,-1,0,2021-08-07 11:40:49,116371
-2,-2,-14,-24,-9,-4,-3,-1,2021-08-07 11:40:49,132372
-4,-7,-6,-9,3,0,-2,-5,2021-08-07 11:40:49,132372
2,1,4,6,4,2,3,2,2021-08-07 11:40:49,132372
-3,-1,2,7,0,-1,-3,-4,2021-08-07 11:40:49,132372
0,2,8,7,-3,-2,-1,1,2021-08-07 11:40:49,148371
-1,-1,-3,-4,-9,-3,-4,-1,2021-08-07 11:40:49,148371
-3,-4,-7,-16,-4,-3,-3,-2,2021-08-07 11:40:49,148371
2,2,5,12,5,1,1,0,2021-08-07 11:40:49,148371
3,3,-1,2,5,4,1,1,2021-08-07 11:40:49,180371
1,1,5,5,2,0,-1,-1,2021-08-07 11:40:49,180371
-2,-1,-3,-1,1,2,-1,1,2021-08-07 11:40:49,180371
-4,-7,-12,-19,-14,-5,-2,-3,2021-08-07 11:40:49,180371
-5,-5,-5,-5,1,-1,-2,-4,2021-08-07 11:40:49,196372
-5,0,0,-1,-1,-1,-4,-4,2021-08-07 11:40:49,196372
-1,2,2,8,6,3,-2,-1,2021-08-07 11:40:49,196782
-2,1,3,-1,-4,-4,-3,-2,2021-08-07 11:40:49,196782
4,7,5,5,-2,1,1,2,2021-08-07 11:40:49,212407
-2,-3,-5,-15,-12,-8,-4,-3,2021-08-07 11:40:49,212407
1,-1,4,11,9,3,1,1,2021-08-07 11:40:49,212407
0,-4,-11,-11,-2,-1,0,-1,2021-08-07 11:40:49,212407
1,2,1,-2,-4,-2,-2,-1,2021-08-07 11:40:49,228406
-3,-3,-4,-6,-5,-2,-3,-1,2021-08-07 11:40:49,228406
-2,-2,-3,2,-6,-4,-3,-1,2021-08-07 11:40:49,228406
3,5,13,25,16,7,4,2,2021-08-07 11:40:49,228406
2,-1,10,19,6,5,4,2,2021-08-07 11:40:49,260408
-2,-4,-10,-20,-20,-7,-1,-2,2021-08-07 11:40:49,276407
-11,-14,-27,-31,-16,-10,-8,-7,2021-08-07 11:40:49,276407
-1,-1,-5,-12,-8,-3,-2,0,2021-08-07 11:40:49,276407
1,2,-4,1,15,4,2,1,2021-08-07 11:40:49,276407
-2,-1,8,13,2,1,0,-1,2021-08-07 11:40:49,276407
1,2,11,3,-4,-3,1,-1,2021-08-07 11:40:49,276407
5,4,8,25,16,8,4,2,2021-08-07 11:40:49,277409
-1,-1,-5,-7,5,2,0,0,2021-08-07 11:40:49,291407
-2,-3,-3,-7,7,2,-1,-3,2021-08-07 11:40:49,291407
-2,1,-5,-17,-12,-4,0,-1,2021-08-07 11:40:49,291407
-5,-5,-4,-13,-17,-7,-6,-3,2021-08-07 11:40:49,291407
-5,-5,-1,12,-4,-5,-4,-3,2021-08-07 11:40:49,307407
4,5,3,7,3,3,3,1,2021-08-07 11:40:49,307407
3,4,0,-10,-5,1,0,1,2021-08-07 11:40:49,307407
-1,1,-2,-7,1,-1,-2,-1,2021-08-07 11:40:49,307407
-3,-6,-1,-2,-4,-3,-3,-3,2021-08-07 11:40:49,339409
-1,-3,-4,2,0,0,-2,1,2021-08-07 11:40:49,339409
-2,-3,-9,2,-2,-1,-3,-2,2021-08-07 11:40:49,339409
0,-3,-2,-9,-6,-3,-1,-1,2021-08-07 11:40:49,339409
-2,0,-4,0,5,3,1,0,2021-08-07 11:40:49,355407
-3,-2,1,0,-5,-3,-2,-1,2021-08-07 11:40:49,371407
4,6,10,15,11,5,4,3,2021-08-07 11:40:49,371407
-3,-4,-6,-12,-11,-7,-3,-2,2021-08-07 11:40:49,371407
-1,0,-4,-12,-13,-3,-3,-2,2021-08-07 11:40:49,371407
0,2,9,16,18,6,1,0,2021-08-07 11:40:49,371407
-5,-6,-5,1,2,-1,-3,-3,2021-08-07 11:40:49,371407
0,3,0,-7,-4,1,0,1,2021-08-07 11:40:49,372407
3,2,7,23,14,4,2,1,2021-08-07 11:40:49,382407
-1,-2,-13,-17,-14,-5,-1,0,2021-08-07 11:40:49,383407
0,-1,8,18,24,7,1,-1,2021-08-07 11:40:49,383407
-4,-3,1,-1,-12,-8,-4,-3,2021-08-07 11:40:49,383407
-2,-4,-3,-11,-6,-2,-3,-2,2021-08-07 11:40:49,403407
5,6,8,22,8,3,2,2,2021-08-07 11:40:49,403675
-3,-6,-16,-38,-17,-6,-2,-2,2021-08-07 11:40:49,403675
0,-2,2,1,10,1,0,1,2021-08-07 11:40:49,403675
-5,-6,-14,-13,-13,-7,-4,-4,2021-08-07 11:40:49,434923
-4,-7,-5,-7,-8,-6,-4,-3,2021-08-07 11:40:49,450925
-3,-2,4,6,-5,1,-1,-1,2021-08-07 11:40:49,466923
11,13,21,26,30,15,8,8,2021-08-07 11:40:49,482926
3,3,3,2,-7,-1,-1,1,2021-08-07 11:40:49,498922
-4,-5,-18,-24,-6,-3,-2,-4,2021-08-07 11:40:49,514924
1,2,-2,1,-2,-2,-2,2,2021-08-07 11:40:49,514924
-5,-6,-7,-10,-14,-6,-5,-5,2021-08-07 11:40:49,514924
-4,-5,1,-8,-6,-5,-4,-4,2021-08-07 11:40:49,514924
4,7,17,29,25,10,4,4,2021-08-07 11:40:49,514924
-2,-6,-6,-13,-13,-6,-2,-2,2021-08-07 11:40:49,515924
2,5,2,8,14,7,3,1,2021-08-07 11:40:49,515924
1,3,4,9,1,-1,1,1,2021-08-07 11:40:49,515924
-3,-5,-2,-8,-9,-6,-3,-4,2021-08-07 11:40:49,515924
1,3,6,8,4,-2,0,-1,2021-08-07 11:40:49,515924
1,-1,-2,12,5,0,-1,-1,2021-08-07 11:40:49,515924
-2,-5,-14,-30,-14,-6,-2,-1,2021-08-07 11:40:49,515924
-8,-9,-11,-30,-20,-10,-5,-5,2021-08-07 11:40:49,515924
-1,1,5,9,5,3,0,-2,2021-08-07 11:40:49,516924
-2,-3,-5,-4,-7,-3,-2,-2,2021-08-07 11:40:49,516924
3,4,2,1,-11,-1,3,4,2021-08-07 11:40:49,546923
6,7,9,5,22,6,4,3,2021-08-07 11:40:49,546923
0,1,7,6,14,4,1,0,2021-08-07 11:40:49,546923
1,-2,-7,18,24,8,4,2,2021-08-07 11:40:49,546923
-5,-10,-12,-7,-4,-3,-5,-6,2021-08-07 11:40:49,546923
3,5,3,-4,-13,-4,2,3,2021-08-07 11:40:49,546923
-1,-3,-3,-11,-15,-8,-4,-1,2021-08-07 11:40:49,546923
-3,-2,3,-2,-8,-5,-5,-2,2021-08-07 11:40:49,546923
-1,-3,-2,-4,1,1,1,-1,2021-08-07 11:40:49,562923
-2,-1,5,17,1,2,1,-1,2021-08-07 11:40:49,562923
-1,-1,-2,-6,-5,-2,-3,0,2021-08-07 11:40:49,562923
-2,1,-1,-8,-6,-3,-1,-1,2021-08-07 11:40:49,562923
4,3,9,22,22,9,5,4,2021-08-07 11:40:49,594923
-6,-8,-6,-1,0,-2,-4,-4,2021-08-07 11:40:49,594923
-3,-2,-10,-20,-13,-7,-1,-1,2021-08-07 11:40:49,594923
0,-2,-6,-15,-13,-5,-1,1,2021-08-07 11:40:49,594923
1,5,5,4,7,3,0,1,2021-08-07 11:40:49,610921
1,-1,7,11,4,-1,-2,0,2021-08-07 11:40:49,610921
2,1,1,15,3,2,1,2,2021-08-07 11:40:49,610921
-1,-2,-7,-26,-17,-7,-2,-4,2021-08-07 11:40:49,610921
-3,-1,3,-2,5,1,1,-2,2021-08-07 11:40:49,626923
0,2,0,17,10,7,2,2,2021-08-07 11:40:49,626923
-6,-8,-10,-20,-19,-10,-7,-7,2021-08-07 11:40:49,626923
2,1,-4,9,13,6,0,1,2021-08-07 11:40:49,626923
-2,0,1,-6,-8,-4,-2,-2,2021-08-07 11:40:49,658923
-2,-2,-4,0,-4,-2,-3,-2,2021-08-07 11:40:49,658923
1,2,5,10,10,3,0,0,2021-08-07 11:40:49,658923
0,2,5,0,3,1,0,2,2021-08-07 11:40:49,658923
3,4,1,5,1,1,-1,0,2021-08-07 11:40:49,674924
-2,-4,-6,-9,-14,-7,-3,-2,2021-08-07 11:40:49,690923
4,3,2,4,9,7,4,4,2021-08-07 11:40:49,690923
-3,-2,-1,3,1,-2,-2,-4,2021-08-07 11:40:49,690923
-4,-5,-3,-10,-8,-4,-3,-3,2021-08-07 11:40:49,706923
-3,-4,-4,-21,-16,-6,-4,-3,2021-08-07 11:40:49,706923
1,3,10,27,18,6,1,-1,2021-08-07 11:40:49,706923
9,15,20,28,22,13,9,7,2021-08-07 11:40:49,706923
-1,-4,-16,-6,-5,0,0,0,2021-08-07 11:40:49,706923
-14,-19,-27,-65,-46,-26,-14,-12,2021-08-07 11:40:49,706923
-7,-7,-2,-13,-13,-8,-6,-4,2021-08-07 11:40:49,707923
-1,-2,-11,8,5,3,2,1,2021-08-07 11:40:49,707923
8,10,22,32,22,10,6,4,2021-08-07 11:40:49,738923
4,0,0,8,1,3,2,0,2021-08-07 11:40:49,754922
-2,-1,3,6,8,1,1,0,2021-08-07 11:40:49,770923
-3,-2,3,-9,-9,-5,-4,-3,2021-08-07 11:40:49,770923
-1,-3,-7,-8,-8,-3,-4,-2,2021-08-07 11:40:49,770923
0,2,7,12,10,4,2,1,2021-08-07 11:40:49,770923
4,6,1,-1,0,0,1,3,2021-08-07 11:40:49,770923
0,-1,-2,-2,0,0,-1,-2,2021-08-07 11:40:49,770923
-4,-5,-6,-13,-11,-5,-2,-1,2021-08-07 11:40:49,770923
2,4,7,12,10,3,2,1,2021-08-07 11:40:49,786923
0,-2,-3,2,4,3,-1,-3,2021-08-07 11:40:49,786923
-5,-7,-5,-10,-16,-9,-8,-6,2021-08-07 11:40:49,786923
5,6,8,6,5,6,5,5,2021-08-07 11:40:49,786923
0,3,0,0,13,5,3,1,2021-08-07 11:40:49,786923
-6,-9,-20,-20,-17,-9,-4,-4,2021-08-07 11:40:49,786923
-2,0,5,-3,-8,-4,-2,-2,2021-08-07 11:40:49,787924
-7,-8,0,7,3,-3,-4,-5,2021-08-07 11:40:49,802923
8,9,7,13,6,6,4,7,2021-08-07 11:40:49,802923
-1,-1,-5,-4,-2,0,1,0,2021-08-07 11:40:49,818922
-8,-10,-14,-28,-22,-12,-7,-5,2021-08-07 11:40:49,818922
-3,-2,1,4,7,-1,-3,-1,2021-08-07 11:40:49,832923
-1,-3,3,2,-3,-1,1,0,2021-08-07 11:40:49,832923
-2,-1,-3,-5,-2,-2,-1,-3,2021-08-07 11:40:49,832923
3,2,6,22,17,8,4,2,2021-08-07 11:40:49,833925
0,1,-3,-11,-12,-3,-2,-1,2021-08-07 11:40:49,850921
0,2,1,13,13,3,-1,-1,2021-08-07 11:40:49,850921
0,2,6,5,0,1,1,0,2021-08-07 11:40:49,850921
-2,-2,2,-3,-7,-3,-1,-2,2021-08-07 11:40:49,850921
5,2,-4,-8,-3,-1,1,2,2021-08-07 11:40:49,882923
-7,-7,-12,-16,-8,-3,-3,-3,2021-08-07 11:40:49,882923
-4,-2,5,-1,-3,-3,-3,1,2021-08-07 11:40:49,882923
-2,0,-9,-2,0,0,-1,1,2021-08-07 11:40:49,882923
2,1,3,3,-1,-3,-1,0,2021-08-07 11:40:49,882923
1,2,2,-7,-2,-1,-1,-2,2021-08-07 11:40:49,882923
-1,-4,-11,-7,-4,-3,-2,-1,2021-08-07 11:40:49,883925
1,0,3,3,6,3,2,2,2021-08-07 11:40:49,883925
-2,-1,2,8,5,1,-2,-2,2021-08-07 11:40:49,914923
0,1,0,3,0,-1,0,0,2021-08-07 11:40:49,930922
-5,-7,-2,-2,3,0,-2,-3,2021-08-07 11:40:49,946923
3,7,10,7,1,2,3,4,2021-08-07 11:40:49,946923
-1,-2,-3,-6,-9,-4,-1,1,2021-08-07 11:40:49,946923
-3,-6,-4,-9,-2,-2,-3,-2,2021-08-07 11:40:49,946923
0,-1,-5,-4,0,-2,-2,1,2021-08-07 11:40:49,946923
-1,-2,2,2,-3,-3,-1,-2,2021-08-07 11:40:49,946923
-1,-1,-3,1,9,1,-1,-1,2021-08-07 11:40:49,947924
-4,-7,-10,-11,-10,-6,-4,-2,2021-08-07 11:40:49,947924
3,4,7,3,-2,3,3,2,2021-08-07 11:40:49,947924
-4,-5,-8,-14,-8,-4,-2,-3,2021-08-07 11:40:49,947924
1,3,3,8,4,-1,0,-1,2021-08-07 11:40:49,978924
-3,0,3,12,-4,-1,-2,-3,2021-08-07 11:40:49,994923
2,3,2,3,20,7,3,0,2021-08-07 11:40:49,994923
-1,-1,-3,-16,-18,-9,-5,-4,2021-08-07 11:40:49,994923
1,-1,-2,-3,6,3,2,1,2021-08-07 11:40:49,994923
3,2,4,15,14,5,4,2,2021-08-07 11:40:49,994923
0,1,3,5,-12,-5,1,1,2021-08-07 11:40:49,994923
-6,-9,-10,-14,-5,-4,-2,-1,2021-08-07 11:40:49,995925
-3,-6,-8,-10,-10,-6,-3,-2,2021-08-07 11:40:50,010922
3,6,15,31,30,17,5,4,2021-08-07 11:40:50,010922
-6,-6,-6,-12,-8,-4,-5,-5,2021-08-07 11:40:50,010922
-4,-3,-12,-17,-11,-4,-4,-4,2021-08-07 11:40:50,010922
-3,-5,-5,-18,-14,-6,-4,-3,2021-08-07 11:40:50,026923
0,2,6,8,0,-3,-3,1,2021-08-07 11:40:50,026923
6,6,15,20,7,3,2,3,2021-08-07 11:40:50,026923
4,2,6,12,7,3,2,3,2021-08-07 11:40:50,026923
0,1,-3,-12,-11,-1,0,2,2021-08-07 11:40:50,057924
-3,-5,-10,-21,-11,-6,-4,-4,2021-08-07 11:40:50,073923
-2,-3,5,20,21,8,0,0,2021-08-07 11:40:50,073923
-1,-2,-4,3,-4,-4,-2,-3,2021-08-07 11:40:50,073923
2,2,-1,-16,-8,-1,-1,-1,2021-08-07 11:40:50,073923
-3,-4,-6,-22,-13,-8,-3,-2,2021-08-07 11:40:50,073923
-1,-3,-11,3,-2,-1,-1,-2,2021-08-07 11:40:50,073923
0,1,10,17,17,6,4,1,2021-08-07 11:40:50,074924
-1,2,7,20,1,0,0,0,2021-08-07 11:40:50,089923
-1,-1,-8,0,-1,-1,-1,0,2021-08-07 11:40:50,089923
0,0,-1,0,7,3,0,1,2021-08-07 11:40:50,089923
-4,-7,-8,-31,-17,-9,-5,-5,2021-08-07 11:40:50,089923
-5,-6,-6,-8,0,-3,-2,-3,2021-08-07 11:40:50,120924
3,7,4,15,7,5,3,5,2021-08-07 11:40:50,120924
-2,-2,-1,4,-6,-4,-2,-2,2021-08-07 11:40:50,120924
-2,-4,-9,-18,-14,-6,-2,-1,2021-08-07 11:40:50,120924
-2,-3,-1,-3,-4,-5,-4,0,2021-08-07 11:40:50,120924
-2,-1,3,6,5,0,0,-2,2021-08-07 11:40:50,120924
-2,-3,-4,-4,-14,-4,0,-1,2021-08-07 11:40:50,120924
7,11,16,28,30,15,6,6,2021-08-07 11:40:50,121924
-3,-3,-1,-9,-2,0,-1,-3,2021-08-07 11:40:50,152921
-2,-3,-11,-9,-4,-4,-2,-2,2021-08-07 11:40:50,168924
-4,-3,-5,-24,-18,-8,-5,-4,2021-08-07 11:40:50,184923
-4,-5,-6,-2,-13,-8,-5,-3,2021-08-07 11:40:50,184923
1,2,10,35,26,11,4,3,2021-08-07 11:40:50,184923
4,4,12,14,1,2,2,1,2021-08-07 11:40:50,184923
0,-3,-11,-11,-8,-2,-1,0,2021-08-07 11:40:50,184923
-5,-9,-11,-32,-5,-5,-4,-4,2021-08-07 11:40:50,184923
-3,-3,-10,-5,-9,-5,-2,-2,2021-08-07 11:40:50,200923
-3,-1,5,2,11,5,0,-1,2021-08-07 11:40:50,200923
7,8,20,36,34,11,6,4,2021-08-07 11:40:50,200923
-1,-1,-3,-3,-9,-1,0,-1,2021-08-07 11:40:50,200923
1,-1,0,2,2,-2,-3,0,2021-08-07 11:40:50,216924
-6,-6,-7,-17,-19,-12,-7,-3,2021-08-07 11:40:50,232923
-2,-1,-1,-7,-7,-1,0,0,2021-08-07 11:40:50,248923
1,3,8,21,18,9,4,1,2021-08-07 11:40:50,248923
-4,-5,-4,-13,-13,-4,-2,-4,2021-08-07 11:40:50,264922
1,0,-3,-13,-4,-2,0,-1,2021-08-07 11:40:50,264922
0,-1,3,0,-2,-2,-1,-1,2021-08-07 11:40:50,264922
2,3,-1,12,2,-1,-1,0,2021-08-07 11:40:50,264922
5,6,11,19,12,6,3,3,2021-08-07 11:40:50,264922
-3,-4,3,-1,-6,-4,0,-1,2021-08-07 11:40:50,264922
-3,-6,-9,-17,-11,-6,-4,-5,2021-08-07 11:40:50,265923
-5,-10,-16,-19,-8,-3,-2,-3,2021-08-07 11:40:50,265923
-4,-3,-12,-9,-7,-5,-3,-3,2021-08-07 11:40:50,265923
5,5,-1,2,4,4,2,4,2021-08-07 11:40:50,265923
0,5,6,-7,-17,-8,-3,0,2021-08-07 11:40:50,265923
3,5,9,21,16,7,2,3,2021-08-07 11:40:50,265923
-2,-3,-1,-2,3,0,1,0,2021-08-07 11:40:50,295923
-3,-4,0,8,14,6,2,0,2021-08-07 11:40:50,295923
-3,0,-3,-4,0,-1,-1,-1,2021-08-07 11:40:50,295923
2,3,8,11,-4,-1,0,1,2021-08-07 11:40:50,295923
1,1,-2,1,-3,-1,-2,0,2021-08-07 11:40:50,311923
-6,-6,-7,-23,-23,-12,-6,-6,2021-08-07 11:40:50,326923
-8,-8,-4,-7,-2,-1,-4,-5,2021-08-07 11:40:50,342923
3,4,-6,-1,2,0,2,2,2021-08-07 11:40:50,342923
3,6,8,3,0,2,1,2,2021-08-07 11:40:50,342923
3,2,1,13,3,0,2,1,2021-08-07 11:40:50,343451
-2,-2,0,-5,4,0,-1,-2,2021-08-07 11:40:50,343451
-7,-9,-8,-9,-9,-6,-4,-4,2021-08-07 11:40:50,343451
2,2,-6,0,11,4,3,2,2021-08-07 11:40:50,358961
1,1,4,1,-8,-3,-2,-1,2021-08-07 11:40:50,374962
-1,-3,2,2,3,-1,-2,-2,2021-08-07 11:40:50,374962
-3,-4,-4,-15,-16,-7,-3,-4,2021-08-07 11:40:50,374962
-2,0,2,-2,-1,-2,-1,-1,2021-08-07 11:40:50,374962
0,0,-5,6,7,2,0,0,2021-08-07 11:40:50,390961
2,1,7,14,10,5,2,1,2021-08-07 11:40:50,406962
1,2,-3,-10,-8,-3,-1,-2,2021-08-07 11:40:50,422961
-5,-7,-9,-25,-8,-5,-5,-7,2021-08-07 11:40:50,422961
1,3,6,6,3,2,1,3,2021-08-07 11:40:50,422961
3,4,9,15,1,-3,-2,0,2021-08-07 11:40:50,422961
1,4,8,14,1,2,-1,0,2021-08-07 11:40:50,422961
-4,-7,-7,-11,-13,-5,-3,-3,2021-08-07 11:40:50,423962
-5,-5,-2,-13,-7,-6,-7,-5,2021-08-07 11:40:50,423962
4,1,-13,-5,3,1,3,3,2021-08-07 11:40:50,423962
3,4,15,25,24,9,3,0,2021-08-07 11:40:50,423962
-5,-8,-3,-12,-14,-7,-5,-5,2021-08-07 11:40:50,423962
-6,-5,-18,-28,-16,-7,-5,-4,2021-08-07 11:40:50,423962
-3,1,-1,-5,-6,-2,-2,-1,2021-08-07 11:40:50,438961
-1,-1,-1,6,2,0,0,0,2021-08-07 11:40:50,438961
1,1,4,7,4,1,1,2,2021-08-07 11:40:50,454962
-2,-6,-11,-12,-13,-5,-3,-4,2021-08-07 11:40:50,470963
3,3,8,5,3,2,2,2,2021-08-07 11:40:50,486964
3,4,5,13,24,9,2,2,2021-08-07 11:40:50,501961
4,5,14,14,6,4,3,2,2021-08-07 11:40:50,517961
-3,-1,-7,-2,0,-1,-1,-3,2021-08-07 11:40:50,517961
-3,-2,-12,-16,-15,-6,-2,-1,2021-08-07 11:40:50,517961
-4,-6,-5,-5,-12,-7,-4,-2,2021-08-07 11:40:50,517961
-1,-1,0,-2,-8,-5,-1,-1,2021-08-07 11:40:50,517961
8,10,20,26,28,15,7,8,2021-08-07 11:40:50,518962
-4,-7,-5,-19,-1,-3,-2,-3,2021-08-07 11:40:50,518962
-6,-9,-29,-20,-11,-6,-4,-3,2021-08-07 11:40:50,518962
-6,-6,-4,-3,-10,-5,-4,-5,2021-08-07 11:40:50,518962
4,6,15,27,6,1,2,3,2021-08-07 11:40:50,518962
8,12,18,44,28,12,7,6,2021-08-07 11:40:50,518962
-3,-8,-16,-51,-20,-5,-2,-4,2021-08-07 11:40:50,518962
-7,-9,-19,-28,-14,-10,-7,-4,2021-08-07 11:40:50,533963
-5,-5,-4,-8,-10,-4,-4,-3,2021-08-07 11:40:50,549962
-5,-3,-1,-5,-10,-7,-5,-4,2021-08-07 11:40:50,550210
11,14,23,37,14,9,8,7,2021-08-07 11:40:50,550210
1,2,1,3,-3,0,1,-1,2021-08-07 11:40:50,550210
0,-2,-1,4,10,3,2,0,2021-08-07 11:40:50,550210
2,4,3,1,9,5,0,0,2021-08-07 11:40:50,550962
-4,-6,-13,-15,-6,-2,-2,-2,2021-08-07 11:40:50,550962
0,1,0,-1,3,1,-2,1,2021-08-07 11:40:50,580479
-7,-6,-6,-8,-15,-8,-6,-5,2021-08-07 11:40:50,580479
4,6,-2,-12,-6,-2,3,2,2021-08-07 11:40:50,580479
-1,-1,8,9,0,-2,-1,-2,2021-08-07 11:40:50,580479
2,2,8,14,12,6,4,2,2021-08-07 11:40:50,596479
-5,-7,-10,-12,-6,-5,-4,-4,2021-08-07 11:40:50,612478
-1,-3,2,10,-3,-2,-3,-3,2021-08-07 11:40:50,612478
9,14,30,53,25,12,7,8,2021-08-07 11:40:50,612478
8,10,5,16,22,9,7,4,2021-08-07 11:40:50,612478
-11,-18,-42,-69,-39,-18,-8,-9,2021-08-07 11:40:50,612478
-17,-22,-32,-66,-44,-23,-15,-11,2021-08-07 11:40:50,612478
-5,-2,-6,0,8,-1,-3,-1,2021-08-07 11:40:50,612478
-3,-5,5,9,-6,-4,-5,-3,2021-08-07 11:40:50,628479
14,21,33,59,41,21,11,10,2021-08-07 11:40:50,628479
8,12,9,17,13,12,8,6,2021-08-07 11:40:50,628479
-5,-8,2,-1,-3,-5,-3,-3,2021-08-07 11:40:50,628479
-1,1,0,3,-4,-3,0,-2,2021-08-07 11:40:50,660479
-2,-2,-4,-17,-15,-6,-2,-3,2021-08-07 11:40:50,660479
-3,-1,-4,-4,-6,-1,-2,-2,2021-08-07 11:40:50,660479
3,3,5,-2,0,1,1,2,2021-08-07 11:40:50,660479
-3,-3,-6,-6,5,-4,-4,-3,2021-08-07 11:40:50,660479
-5,-7,-8,-14,-19,-10,-7,-4,2021-08-07 11:40:50,660479
-3,-2,4,12,3,0,-3,-2,2021-08-07 11:40:50,676517
4,6,9,19,12,7,4,2,2021-08-07 11:40:50,676517
-2,-5,-10,-12,-10,-3,-2,-1,2021-08-07 11:40:50,692478
-5,-7,-2,-11,9,3,-1,-3,2021-08-07 11:40:50,692478
-6,-7,-8,-7,-4,-5,-4,-5,2021-08-07 11:40:50,692478
-2,-6,-11,-23,-15,-2,1,1,2021-08-07 11:40:50,692478
4,10,12,21,9,2,2,1,2021-08-07 11:40:50,724478
1,9,11,22,9,2,2,2,2021-08-07 11:40:50,732480
-1,-5,-7,-14,-16,-8,-1,-1,2021-08-07 11:40:50,732480
4,5,15,27,27,8,1,1,2021-08-07 11:40:50,732480
6,6,9,17,25,14,9,7,2021-08-07 11:40:50,732480
-3,-7,-1,-5,-12,-4,-3,-3,2021-08-07 11:40:50,732480
-8,-11,-15,-21,-17,-8,-6,-4,2021-08-07 11:40:50,733479
12,18,16,12,12,2,6,8,2021-08-07 11:40:50,733479
-5,-6,-9,-12,-8,-6,-4,-4,2021-08-07 11:40:50,756478
2,5,6,12,9,3,1,1,2021-08-07 11:40:50,756478
-3,-2,-1,3,-7,-2,-2,-1,2021-08-07 11:40:50,756478
-11,-17,-23,-24,-16,-7,-7,-8,2021-08-07 11:40:50,756478
1,-1,-3,-10,2,3,3,1,2021-08-07 11:40:50,772478
2,2,4,4,4,-2,0,1,2021-08-07 11:40:50,787478
7,9,13,13,-1,-2,2,4,2021-08-07 11:40:50,803479
-1,0,6,8,9,3,-1,-2,2021-08-07 11:40:50,803479
-4,-2,-5,7,-10,-7,-4,-2,2021-08-07 11:40:50,803479
-6,-12,-26,-54,-25,-7,-3,-5,2021-08-07 11:40:50,819478
0,-1,-6,-2,9,2,2,3,2021-08-07 11:40:50,835480
-3,-9,-18,-25,-17,-7,-5,-3,2021-08-07 11:40:50,851478
-3,-5,4,-4,-19,-9,-4,-2,2021-08-07 11:40:50,883479
3,7,19,41,28,12,4,3,2021-08-07 11:40:50,899478
9,16,26,49,49,20,10,5,2021-08-07 11:40:50,899478
-5,-2,-5,-7,-8,-4,-3,-5,2021-08-07 11:40:50,899478
-15,-17,-25,-46,-35,-19,-15,-10,2021-08-07 11:40:50,899478
-5,-6,-16,-26,-22,-12,-6,-3,2021-08-07 11:40:50,899478
-1,-3,-4,-14,-9,-6,-5,-4,2021-08-07 11:40:50,899478
0,1,8,16,7,1,0,1,2021-08-07 11:40:50,899478
3,2,9,12,5,5,1,-1,2021-08-07 11:40:50,900480
4,1,5,7,-8,-2,2,2,2021-08-07 11:40:50,900480
1,1,-2,6,26,13,4,2,2021-08-07 11:40:50,900480
0,-1,-3,-8,-6,-3,-2,-3,2021-08-07 11:40:50,900480
2,3,8,6,9,3,1,1,2021-08-07 11:40:50,900480
-5,-2,-2,0,-3,-4,-2,-5,2021-08-07 11:40:50,900480
-5,-8,-20,-10,-21,-10,-4,-3,2021-08-07 11:40:50,900480
-3,-5,-6,-19,-19,-9,-3,-2,2021-08-07 11:40:50,901479
-2,-3,1,1,15,5,0,-1,2021-08-07 11:40:50,901479
3,4,9,26,25,9,4,2,2021-08-07 11:40:50,901479
1,2,6,6,-3,-1,-1,-2,2021-08-07 11:40:50,901479
-3,-3,-2,0,-7,-3,-3,-3,2021-08-07 11:40:50,901479
-1,0,-3,-10,-8,-2,-1,-1,2021-08-07 11:40:50,901479
2,2,6,11,16,4,1,0,2021-08-07 11:40:50,901479
-3,-3,-10,-19,-16,-6,-3,-3,2021-08-07 11:40:50,915479
-5,-7,-8,-4,-4,-2,-2,-3,2021-08-07 11:40:50,915479
-2,0,3,-4,-3,-5,-3,-3,2021-08-07 11:40:50,931478
6,9,11,24,15,9,4,4,2021-08-07 11:40:50,947478
1,2,4,13,2,1,1,0,2021-08-07 11:40:50,979478
-8,-8,-21,-49,-27,-11,-6,-5,2021-08-07 11:40:50,979478
-3,-3,-9,-7,-4,-5,-3,-3,2021-08-07 11:40:50,979478
-6,-7,-4,-14,-17,-7,-5,-3,2021-08-07 11:40:50,979478
5,8,15,17,13,5,5,4,2021-08-07 11:40:50,979478
10,11,22,30,20,12,9,6,2021-08-07 11:40:50,979478
-3,-7,-18,-11,-2,0,0,-1,2021-08-07 11:40:50,979478
-9,-10,-16,-27,-27,-18,-9,-7,2021-08-07 11:40:50,979478
-2,-1,-2,-2,-5,0,-1,0,2021-08-07 11:40:50,980479
-5,-5,-5,0,-2,-4,-3,-3,2021-08-07 11:40:50,980479
1,4,9,3,-3,-1,2,-1,2021-08-07 11:40:50,995479
5,3,0,12,20,12,6,5,2021-08-07 11:40:51,011478
7,10,14,28,39,16,8,8,2021-08-07 11:40:51,043479
2,3,7,3,0,-1,0,1,2021-08-07 11:40:51,043479
2,5,5,9,3,3,2,2,2021-08-07 11:40:51,043479
-7,-12,-19,-17,-28,-13,-7,-5,2021-08-07 11:40:51,043479
-7,-11,-14,-47,-32,-17,-9,-6,2021-08-07 11:40:51,059478
-3,-4,-5,-21,-5,-3,-3,-3,2021-08-07 11:40:51,059478
-1,-1,-2,10,9,4,2,0,2021-08-07 11:40:51,075479
4,6,14,9,14,8,4,2,2021-08-07 11:40:51,091480
0,0,4,24,16,7,2,-1,2021-08-07 11:40:51,091480
2,1,5,7,-6,-3,0,2,2021-08-07 11:40:51,091480
6,8,14,22,8,4,3,3,2021-08-07 11:40:51,091480
3,4,3,4,5,4,4,2,2021-08-07 11:40:51,091480
-5,-11,-21,-42,-23,-8,-4,-5,2021-08-07 11:40:51,091480
-15,-19,-19,-30,-21,-14,-12,-10,2021-08-07 11:40:51,091480
-4,-6,-12,-6,-11,-7,-5,-3,2021-08-07 11:40:51,092479
3,5,9,19,21,12,4,4,2021-08-07 11:40:51,092479
6,9,16,23,20,10,4,2,2021-08-07 11:40:51,107479
1,2,2,17,6,3,2,2,2021-08-07 11:40:51,107479
0,3,6,-7,-1,0,-1,0,2021-08-07 11:40:51,107479
-3,-2,0,-1,-7,-7,-4,-4,2021-08-07 11:40:51,107479
-7,-11,-18,-22,-21,-9,-5,-6,2021-08-07 11:40:51,108479
-2,-1,-4,-12,-1,-1,-1,0,2021-08-07 11:40:51,108479
-4,-6,2,5,3,-3,-2,-4,2021-08-07 11:40:51,108479
2,2,-2,2,-5,0,1,0,2021-08-07 11:40:51,108479
10,13,22,33,24,12,8,9,2021-08-07 11:40:51,108479
3,1,-4,12,23,7,3,3,2021-08-07 11:40:51,108479
-1,-4,-12,-21,-18,-5,-3,-3,2021-08-07 11:40:51,139482
-13,-14,-14,-41,-30,-15,-10,-11,2021-08-07 11:40:51,155478
-5,-5,-8,-1,-13,-10,-5,-3,2021-08-07 11:40:51,155478
0,3,6,10,4,1,0,0,2021-08-07 11:40:51,155478
2,2,1,-3,-1,1,1,2,2021-08-07 11:40:51,155478
8,6,11,31,21,12,6,4,2021-08-07 11:40:51,171478
-1,-5,-1,2,0,-2,-2,-2,2021-08-07 11:40:51,173479
0,-1,-8,-19,-14,-5,-1,-2,2021-08-07 11:40:51,174480
-7,-8,-11,-8,-1,-3,-5,-6,2021-08-07 11:40:51,174480
-3,-2,-5,-5,-2,-3,-2,-2,2021-08-07 11:40:51,174480
-2,-3,-3,-4,-4,-1,-1,0,2021-08-07 11:40:51,174480
-4,-2,1,13,-2,-1,-2,-1,2021-08-07 11:40:51,174480
5,5,8,10,5,0,1,2,2021-08-07 11:40:51,202512
4,4,9,-4,7,6,4,4,2021-08-07 11:40:51,218511
-4,-3,-9,-12,-7,-4,-2,-3,2021-08-07 11:40:51,218511
-4,-2,-14,-8,-6,0,-1,-1,2021-08-07 11:40:51,218511
-5,-4,-6,-4,-3,-5,-4,-5,2021-08-07 11:40:51,218511
-3,-4,-6,-5,-7,-5,-3,-2,2021-08-07 11:40:51,218511
-1,1,11,3,-7,-4,-1,-2,2021-08-07 11:40:51,218511
1,2,2,-3,-18,-8,-3,-2,2021-08-07 11:40:51,219512
4,3,4,14,26,12,6,4,2021-08-07 11:40:51,234512
1,-2,1,14,22,9,2,-1,2021-08-07 11:40:51,234512
1,0,-9,-6,0,1,0,0,2021-08-07 11:40:51,234512
-5,-5,-4,-9,-6,-7,-5,-6,2021-08-07 11:40:51,234512
0,2,1,1,-9,-3,-2,1,2021-08-07 11:40:51,250511
-2,-2,3,-1,-14,-9,-4,-1,2021-08-07 11:40:51,250511
-4,-5,-5,-4,-1,-3,-4,-4,2021-08-07 11:40:51,250511
5,6,11,21,19,10,4,2,2021-08-07 11:40:51,250511
0,-3,1,8,8,1,2,-1,2021-08-07 11:40:51,282512
4,9,-4,-24,-6,0,0,2,2021-08-07 11:40:51,298515
-5,-1,-1,-10,-15,-9,-7,-5,2021-08-07 11:40:51,298515
-5,-6,-14,-17,-18,-10,-6,-3,2021-08-07 11:40:51,298515
-5,-5,-2,-11,-10,-2,-5,-4,2021-08-07 11:40:51,298515
-1,-1,2,28,28,9,3,1,2021-08-07 11:40:51,298515
2,1,2,-1,-5,-2,1,3,2021-08-07 11:40:51,314512
6,7,15,22,25,13,6,2,2021-08-07 11:40:51,314512
-3,-3,-2,-5,-13,-6,-4,0,2021-08-07 11:40:51,314512
-7,-9,-9,-6,-20,-11,-6,-5,2021-08-07 11:40:51,314512
5,9,11,2,2,5,4,3,2021-08-07 11:40:51,314512
3,2,6,11,13,3,2,2,2021-08-07 11:40:51,314512
-4,-5,-9,-6,-4,-2,-1,-3,2021-08-07 11:40:51,346511
-5,-8,-7,-23,-19,-11,-5,-5,2021-08-07 11:40:51,362511
-6,-9,-21,-11,13,3,-2,-2,2021-08-07 11:40:51,378511
-4,-7,-3,-23,-23,-9,-7,-2,2021-08-07 11:40:51,378511
6,9,7,19,22,8,4,6,2021-08-07 11:40:51,378511
-3,-2,-4,-9,-15,-8,-7,-5,2021-08-07 11:40:51,378511
7,5,16,31,22,12,7,4,2021-08-07 11:40:51,379510
9,10,12,21,16,10,6,6,2021-08-07 11:40:51,379510
-5,-8,-8,-18,-17,-7,-4,-3,2021-08-07 11:40:51,379510
2,4,2,4,5,-2,1,1,2021-08-07 11:40:51,379510
0,0,-1,-2,-3,0,-1,1,2021-08-07 11:40:51,379510
3,7,6,11,21,8,2,-2,2021-08-07 11:40:51,379510
-4,-4,-2,-2,-12,-5,-4,-4,2021-08-07 11:40:51,394512
-4,-5,-8,-6,-9,-5,-3,-4,2021-08-07 11:40:51,394512
-1,0,1,-8,-20,-9,-3,-1,2021-08-07 11:40:51,394512
-1,-1,4,10,6,2,1,1,2021-08-07 11:40:51,410511
-1,-3,-9,-11,-4,0,1,0,2021-08-07 11:40:51,410787
-9,-14,-22,-57,-25,-12,-9,-7,2021-08-07 11:40:51,410787
-5,-7,-6,-6,-6,-2,-3,-4,2021-08-07 11:40:51,410787
-5,-10,-10,-11,-11,-7,-4,0,2021-08-07 11:40:51,410787
6,5,1,14,3,7,6,5,2021-08-07 11:40:51,442512
10,22,28,52,58,23,9,7,2021-08-07 11:40:51,442512
-2,-3,-2,-7,-12,-5,-1,-2,2021-08-07 11:40:51,442512
2,4,9,14,11,6,2,0,2021-08-07 11:40:51,442512
-7,-10,-12,-28,-31,-16,-8,-5,2021-08-07 11:40:51,458510
2,0,1,13,22,7,0,2,2021-08-07 11:40:51,474511
-4,-1,2,-3,-5,-11,-9,-6,2021-08-07 11:40:51,490513
-7,-8,-17,-27,-34,-17,-8,-5,2021-08-07 11:40:51,490513
1,3,9,18,24,10,3,1,2021-08-07 11:40:51,506513
2,1,3,6,-9,2,2,2,2021-08-07 11:40:51,506513
4,2,-3,10,19,12,5,1,2021-08-07 11:40:51,506513
-5,-10,-16,-22,-14,-7,-6,-5,2021-08-07 11:40:51,506513
3,6,7,-3,-3,-3,-4,0,2021-08-07 11:40:51,506513
2,4,2,-4,-22,-7,-3,0,2021-08-07 11:40:51,506513
2,-1,9,45,63,27,11,5,2021-08-07 11:40:51,507512
1,4,-2,-19,-23,-11,-1,-1,2021-08-07 11:40:51,507512
4,4,11,31,60,25,7,5,2021-08-07 11:40:51,522510
-8,-13,-13,-22,-37,-18,-7,-6,2021-08-07 11:40:51,537513
-4,-1,-5,-27,-38,-16,-7,-3,2021-08-07 11:40:51,553513
-2,-5,-4,-3,4,1,0,-1,2021-08-07 11:40:51,553513
4,7,18,35,35,8,3,1,2021-08-07 11:40:51,553513
1,5,9,15,8,4,3,4,2021-08-07 11:40:51,553513
-4,-8,-11,-27,-31,-15,-5,-5,2021-08-07 11:40:51,553513
-9,-13,-19,-38,-40,-12,-8,-7,2021-08-07 11:40:51,554512
-2,-5,-4,12,51,16,4,1,2021-08-07 11:40:51,554512
-1,-5,-8,-6,12,4,-2,-1,2021-08-07 11:40:51,554512
-1,-2,-7,-15,-25,-9,-3,-1,2021-08-07 11:40:51,554512
6,11,18,21,5,0,1,4,2021-08-07 11:40:51,554512
9,11,22,54,40,23,11,7,2021-08-07 11:40:51,601511
-3,0,6,16,0,-1,-1,-3,2021-08-07 11:40:51,601511
-6,-7,-4,-16,-16,-9,-6,-4,2021-08-07 11:40:51,601511
1,1,5,12,-2,-1,0,2,2021-08-07 11:40:51,601511
-2,-2,-10,-43,-39,-13,-5,-2,2021-08-07 11:40:51,601511
-4,-6,-17,-18,-17,-8,-3,-2,2021-08-07 11:40:51,602514
-3,-5,-6,-11,12,3,0,-2,2021-08-07 11:40:51,602514
1,1,4,14,21,7,2,0,2021-08-07 11:40:51,602514
-2,-2,3,4,-13,-8,-3,-5,2021-08-07 11:40:51,617512
1,-4,-12,-6,-4,0,0,0,2021-08-07 11:40:51,617512
-4,-2,-8,-22,-27,-12,-6,-4,2021-08-07 11:40:51,617512
0,1,4,17,28,9,1,1,2021-08-07 11:40:51,617512
-2,0,-1,-12,-34,-12,-1,-1,2021-08-07 11:40:51,633512
-1,-2,3,-3,11,4,0,-1,2021-08-07 11:40:51,633512
-2,-5,-7,4,-8,-1,0,1,2021-08-07 11:40:51,633512
1,4,8,19,31,14,5,3,2021-08-07 11:40:51,633512
0,3,2,-13,-15,-6,-4,-3,2021-08-07 11:40:51,649511
-6,-4,3,-4,-16,-11,-7,-6,2021-08-07 11:40:51,649511
1,4,3,12,11,4,1,2,2021-08-07 11:40:51,665511
0,2,2,4,-10,-1,-1,-1,2021-08-07 11:40:51,665511
-5,-6,-14,0,20,5,-3,-2,2021-08-07 11:40:51,681511
5,5,7,5,13,5,4,4,2021-08-07 11:40:51,697511
0,3,11,13,1,-1,-1,-2,2021-08-07 11:40:51,713512
1,2,-3,-5,-15,-10,-2,-1,2021-08-07 11:40:51,713512
-3,-4,-5,-7,-13,-6,-1,0,2021-08-07 11:40:51,713512
-4,-5,-10,-18,-6,-2,-2,-3,2021-08-07 11:40:51,713512
1,1,0,8,10,2,1,-1,2021-08-07 11:40:51,713512
-1,-3,3,4,6,3,1,-1,2021-08-07 11:40:51,713512
-3,-2,-8,-14,-19,-11,-5,-4,2021-08-07 11:40:51,714513
-4,-7,-10,-5,-10,-5,-3,-2,2021-08-07 11:40:51,714513
-3,-4,-12,-24,-10,-5,-2,-3,2021-08-07 11:40:51,714513
-7,-7,-8,-21,-6,-2,-4,-6,2021-08-07 11:40:51,714513
-2,-1,-4,-13,-13,-8,-5,-4,2021-08-07 11:40:51,744511
13,17,26,43,41,21,12,10,2021-08-07 11:40:51,760510
7,9,18,39,24,13,6,4,2021-08-07 11:40:51,775512
2,2,5,3,-5,-4,-1,-1,2021-08-07 11:40:51,775512
-6,-10,-7,-28,-38,-18,-7,-7,2021-08-07 11:40:51,775512
-8,-11,-20,-18,-3,-1,-4,-6,2021-08-07 11:40:51,775512
2,0,1,-4,4,2,0,2,2021-08-07 11:40:51,775512
-2,-3,-5,-2,-3,-1,-1,-1,2021-08-07 11:40:51,775512
2,1,0,4,13,7,4,3,2021-08-07 11:40:51,776511
-1,3,8,15,7,-1,-3,-3,2021-08-07 11:40:51,776511
1,0,5,11,9,4,1,0,2021-08-07 11:40:51,776511
1,0,-6,-9,-18,-4,-2,-1,2021-08-07 11:40:51,776511
-6,-7,-9,-28,-21,-9,-4,-4,2021-08-07 11:40:51,791512
-2,-4,-9,-13,-7,-1,-2,1,2021-08-07 11:40:51,791512
-2,-2,-1,0,-4,-5,-3,-4,2021-08-07 11:40:51,791512
8,9,9,22,21,11,6,4,2021-08-07 11:40:51,791512
-5,-6,-4,-13,-14,-7,-3,-3,2021-08-07 11:40:51,822513
-6,-5,-7,-21,-28,-13,-7,-5,2021-08-07 11:40:51,822513
-5,-7,-9,-6,-11,-5,-3,-4,2021-08-07 11:40:51,822513
1,2,7,23,35,11,5,2,2021-08-07 11:40:51,822513
7,5,9,25,16,8,6,3,2021-08-07 11:40:51,822513
6,10,19,19,13,7,5,4,2021-08-07 11:40:51,822513
0,-2,-8,-17,-31,-11,-3,0,2021-08-07 11:40:51,838512
-10,-16,-25,-46,-27,-16,-11,-7,2021-08-07 11:40:51,838512
-7,-8,-17,-24,-25,-12,-7,-6,2021-08-07 11:40:51,854511
-5,-3,3,16,23,5,-1,-2,2021-08-07 11:40:51,870511
5,8,17,24,19,10,5,5,2021-08-07 11:40:51,885511
3,4,9,9,17,9,3,1,2021-08-07 11:40:51,885511
-3,-7,-16,-15,-18,-9,-5,-3,2021-08-07 11:40:51,885511
1,2,-1,-10,-17,-7,-3,-1,2021-08-07 11:40:51,885511
0,3,7,10,4,1,-1,0,2021-08-07 11:40:51,885511
-2,-2,1,3,6,3,2,-1,2021-08-07 11:40:51,885511
-3,-5,-15,-23,-20,-5,-4,-2,2021-08-07 11:40:51,901512
-5,-10,-11,-8,15,2,-2,-3,2021-08-07 11:40:51,917511
4,6,2,-4,3,2,0,2,2021-08-07 11:40:51,933512
-6,-5,-11,-27,-33,-17,-10,-3,2021-08-07 11:40:51,933512
16,21,37,78,81,39,19,14,2021-08-07 11:40:51,933512
0,0,8,1,-12,-4,1,-1,2021-08-07 11:40:51,933512
-3,-6,-6,-8,-12,-7,-3,-4,2021-08-07 11:40:51,933512
-3,-7,-20,-18,-19,-8,-4,-4,2021-08-07 11:40:51,933512
-9,-11,-14,-36,-21,-12,-9,-6,2021-08-07 11:40:51,933512
1,2,0,5,6,1,0,1,2021-08-07 11:40:51,933512
2,2,8,5,0,0,0,-1,2021-08-07 11:40:51,933512
0,2,11,18,4,-1,-1,-1,2021-08-07 11:40:51,934513
-2,0,1,2,-11,-4,-3,-2,2021-08-07 11:40:51,965511
1,0,2,-2,-1,1,0,3,2021-08-07 11:40:51,965511
-5,-7,-10,-5,-3,-3,-3,-3,2021-08-07 11:40:51,965511
-1,1,0,-2,-1,1,1,1,2021-08-07 11:40:51,965511
-4,-7,-7,-4,6,-1,-4,-4,2021-08-07 11:40:51,965511
1,3,1,-11,-14,-6,-1,0,2021-08-07 11:40:51,965511
1,-1,-3,7,12,5,1,-1,2021-08-07 11:40:51,981547
3,4,8,20,11,8,5,3,2021-08-07 11:40:51,981547
-5,-6,-3,-21,-25,-14,-6,-5,2021-08-07 11:40:51,997512
4,5,12,29,18,8,4,3,2021-08-07 11:40:51,997512
0,-2,-5,6,25,11,3,1,2021-08-07 11:40:51,997512
-1,-4,-10,-4,11,2,2,-1,2021-08-07 11:40:51,997512
-1,4,0,-24,-23,-11,-4,-1,2021-08-07 11:40:52,029511
-1,-2,-9,-8,-7,-4,-4,-1,2021-08-07 11:40:52,029511
1,3,8,7,0,-2,0,-1,2021-08-07 11:40:52,029511
0,5,15,22,1,1,-1,-1,2021-08-07 11:40:52,029511
1,-4,-6,6,3,4,2,1,2021-08-07 11:40:52,029511
0,-4,-11,-22,-21,-6,-1,-1,2021-08-07 11:40:52,029511
-12,-13,-15,-27,-13,-10,-9,-8,2021-08-07 11:40:52,029511
-2,-2,-12,-5,-2,-3,-2,-2,2021-08-07 11:40:52,029511
0,1,4,12,-2,-3,-1,0,2021-08-07 11:40:52,061510
5,6,9,10,-7,0,1,2,2021-08-07 11:40:52,071511
1,1,0,-6,3,4,1,1,2021-08-07 11:40:52,071511
1,-3,1,-13,3,-1,-1,-2,2021-08-07 11:40:52,071511
-1,1,7,15,-3,-1,0,-1,2021-08-07 11:40:52,076512
-3,-2,1,15,35,11,2,-2,2021-08-07 11:40:52,076512
-3,-6,-21,-25,-24,-11,-4,-1,2021-08-07 11:40:52,076512
-1,-2,-1,-9,-13,-4,-2,-1,2021-08-07 11:40:52,076512
-5,-5,-2,4,5,-6,-4,-5,2021-08-07 11:40:52,092511
7,10,11,14,6,8,8,6,2021-08-07 11:40:52,092511
4,6,10,25,15,3,2,1,2021-08-07 11:40:52,092511
0,-2,-5,1,11,6,2,0,2021-08-07 11:40:52,092511
-14,-21,-29,-53,-30,-16,-11,-11,2021-08-07 11:40:52,123511
-4,-3,-3,-14,-30,-15,-7,-3,2021-08-07 11:40:52,139511
11,18,21,38,44,23,12,10,2021-08-07 11:40:52,139511
4,7,11,23,7,4,3,3,2021-08-07 11:40:52,139511
3,5,12,14,8,2,3,3,2021-08-07 11:40:52,139511
-11,-16,-27,-36,-25,-16,-10,-7,2021-08-07 11:40:52,139511
-3,-6,-4,-23,-16,-5,-3,-2,2021-08-07 11:40:52,139511
-1,-2,1,3,-2,-2,-1,-1,2021-08-07 11:40:52,139511
7,8,8,32,38,16,8,7,2021-08-07 11:40:52,155511
-1,-3,1,11,5,0,-1,-2,2021-08-07 11:40:52,155511
3,4,7,11,-1,1,1,1,2021-08-07 11:40:52,155511
-9,-8,-13,-35,-35,-16,-9,-7,2021-08-07 11:40:52,155511
1,1,3,4,3,4,1,0,2021-08-07 11:40:52,186511
2,0,8,27,26,11,5,1,2021-08-07 11:40:52,186511
2,1,2,1,-12,-1,0,1,2021-08-07 11:40:52,186511
-5,-7,-5,-3,22,5,-1,-2,2021-08-07 11:40:52,186511
-1,0,-2,3,-5,-1,-2,1,2021-08-07 11:40:52,202511
1,4,-9,-12,-7,-3,0,-2,2021-08-07 11:40:52,202511
-9,-11,-12,-27,-17,-8,-6,-5,2021-08-07 11:40:52,202511
-5,-4,-2,-22,-30,-14,-7,-2,2021-08-07 11:40:52,202511
-1,0,-6,-3,-7,-3,-2,-1,2021-08-07 11:40:52,218511
-1,-2,-1,8,13,8,1,0,2021-08-07 11:40:52,218511
4,3,5,17,14,9,4,2,2021-08-07 11:40:52,218511
4,5,9,24,17,8,3,2,2021-08-07 11:40:52,218511
3,4,15,11,6,4,3,1,2021-08-07 11:40:52,234510
-3,-5,-16,-24,-21,-11,-6,-3,2021-08-07 11:40:52,250512
-5,-4,-6,-9,-6,-8,-5,-3,2021-08-07 11:40:52,250512
0,1,0,-2,2,1,1,0,2021-08-07 11:40:52,250512
2,1,0,-5,-6,-1,3,-1,2021-08-07 11:40:52,250512
-1,-2,0,5,4,0,-1,-1,2021-08-07 11:40:52,250512
-4,-4,-1,2,10,2,-1,-3,2021-08-07 11:40:52,266512
3,2,1,8,1,0,2,2,2021-08-07 11:40:52,266512
-1,0,-1,-4,-22,-9,-2,-1,2021-08-07 11:40:52,266512
-6,-3,-7,-16,9,2,0,-3,2021-08-07 11:40:52,266512
-2,-2,-3,-11,-10,-7,-2,-3,2021-08-07 11:40:52,281512
-1,0,-2,-13,-20,-5,-2,-3,2021-08-07 11:40:52,281512
3,0,3,17,42,13,4,3,2021-08-07 11:40:52,297510
-7,-7,-4,-17,-29,-13,-8,-6,2021-08-07 11:40:52,297510
1,4,13,26,21,9,3,1,2021-08-07 11:40:52,297510
7,8,9,23,2,0,2,4,2021-08-07 11:40:52,297510
0,1,-6,-12,-1,2,2,-1,2021-08-07 11:40:52,329511
-5,-8,-5,-21,-18,-10,-5,-4,2021-08-07 11:40:52,345512
-4,-6,-14,-3,1,-3,-4,-1,2021-08-07 11:40:52,345512
-1,-1,4,6,8,2,-2,-1,2021-08-07 11:40:52,345512
0,0,-1,-10,-11,-5,-2,1,2021-08-07 11:40:52,345512
1,-1,-7,-11,-4,1,0,-2,2021-08-07 11:40:52,345512
-2,1,4,2,-6,-4,-1,-2,2021-08-07 11:40:52,346512
-4,-3,-1,2,2,-1,-2,-2,2021-08-07 11:40:52,346512
1,1,6,17,12,4,1,-1,2021-08-07 11:40:52,360511
-3,-4,-3,2,-11,-2,0,-2,2021-08-07 11:40:52,376511
3,1,-7,-14,8,1,1,1,2021-08-07 11:40:52,376511
-1,-1,-2,-16,-4,-2,-1,0,2021-08-07 11:40:52,376511
-2,0,3,-6,-2,-3,-4,0,2021-08-07 11:40:52,376511
-2,0,-6,6,-12,-5,-3,-1,2021-08-07 11:40:52,376511
-1,-1,0,1,8,1,1,-1,2021-08-07 11:40:52,376511
0,1,-3,9,14,7,2,0,2021-08-07 11:40:52,376511
1,2,4,7,10,3,0,-1,2021-08-07 11:40:52,407511
4,5,13,9,-1,1,1,3,2021-08-07 11:40:52,407511
-4,-5,-11,-8,-6,-4,-2,-4,2021-08-07 11:40:52,407511
-6,-7,-7,-22,-16,-9,-5,-6,2021-08-07 11:40:52,407511
-3,-3,-10,-3,-5,-2,-2,-2,2021-08-07 11:40:52,423511
9,12,16,20,22,9,5,4,2021-08-07 11:40:52,439512
1,-3,-2,-13,-15,0,-2,0,2021-08-07 11:40:52,455512
-4,-7,-7,-15,-5,-6,-3,-3,2021-08-07 11:40:52,471511
-7,-7,-5,-3,-8,-3,-5,-4,2021-08-07 11:40:52,486511
2,4,6,14,10,3,1,0,2021-08-07 11:40:52,486511
0,1,8,4,-7,-3,0,0,2021-08-07 11:40:52,486511
-4,-7,-13,-12,-10,-5,-3,-2,2021-08-07 11:40:52,486511
4,4,5,6,3,2,1,2,2021-08-07 11:40:52,486511
-5,-5,-11,-16,-8,-5,-3,-2,2021-08-07 11:40:52,486511
-1,0,0,-10,-10,-4,-2,-1,2021-08-07 11:40:52,486511
7,6,13,30,29,14,6,5,2021-08-07 11:40:52,487512
-1,2,5,8,-5,-2,-1,1,2021-08-07 11:40:52,487512
-1,-4,-1,-3,-11,-5,0,0,2021-08-07 11:40:52,487512
-11,-15,-19,-24,-16,-7,-7,-8,2021-08-07 11:40:52,487512
-5,-2,-3,-19,-6,-5,-5,-3,2021-08-07 11:40:52,487512
-1,1,-4,4,12,5,-1,-3,2021-08-07 11:40:52,502512
2,7,20,13,2,1,1,2,2021-08-07 11:40:52,512511
1,3,-6,-2,-7,-2,0,1,2021-08-07 11:40:52,512511
-1,-3,-4,2,2,1,0,-1,2021-08-07 11:40:52,512511
5,7,7,9,8,5,4,3,2021-08-07 11:40:52,512511
0,-4,-5,-7,5,1,1,-2,2021-08-07 11:40:52,512511
