EMG 1,EMG 2,EMG 3,EMG 4,EMG 5,EMG 6,EMG 7,EMG 8,Timestamp,Milliseconds
-5,-5,-3,-5,-10,-4,-3,-5,2021-08-07 11:39:55,733693
-2,-2,-8,-18,-9,-5,-2,0,2021-08-07 11:39:55,733693
1,3,3,8,6,2,2,2,2021-08-07 11:39:55,749694
-3,-4,-2,0,-2,-2,-2,-2,2021-08-07 11:39:55,749694
4,6,5,10,4,2,1,3,2021-08-07 11:39:55,749694
-2,-3,-3,-2,-4,-3,-4,-4,2021-08-07 11:39:55,749694
1,1,1,-2,-1,1,2,2,2021-08-07 11:39:55,749694
0,-1,1,7,5,2,0,0,2021-08-07 11:39:55,749694
-5,-5,-3,-16,-12,-8,-3,-4,2021-08-07 11:39:55,749694
-4,-3,-1,7,1,-2,-2,-2,2021-08-07 11:39:55,749694
-1,-2,-5,-3,1,0,-1,-1,2021-08-07 11:39:55,781693
1,1,1,3,5,3,0,0,2021-08-07 11:39:55,781693
-2,-4,-2,-2,1,0,-2,-1,2021-08-07 11:39:55,781693
-4,-1,0,-7,-9,-5,-2,-1,2021-08-07 11:39:55,781693
-2,-1,0,2,3,0,-1,-2,2021-08-07 11:39:55,781693
0,0,-3,-4,-3,-2,1,-1,2021-08-07 11:39:55,781693
-2,-2,-5,-5,-5,-3,0,-1,2021-08-07 11:39:55,797695
1,-1,6,5,4,3,0,-2,2021-08-07 11:39:55,797695
1,1,-3,3,2,1,0,0,2021-08-07 11:39:55,797695
-1,-2,0,-1,0,-1,0,-2,2021-08-07 11:39:55,797695
-1,-1,-3,-4,-4,-4,-3,-1,2021-08-07 11:39:55,798695
1,0,1,3,7,3,-1,0,2021-08-07 11:39:55,798695
-1,0,3,2,-2,0,0,-1,2021-08-07 11:39:55,829698
0,-1,0,-2,-3,-2,0,-1,2021-08-07 11:39:55,845694
-2,-2,-2,4,3,2,0,1,2021-08-07 11:39:55,861694
0,-1,1,2,-2,-1,0,-1,2021-08-07 11:39:55,861694
2,1,1,0,-1,-1,0,1,2021-08-07 11:39:55,874694
-3,-3,-4,-3,-2,-1,-2,-2,2021-08-07 11:39:55,874694
-4,-4,-3,-2,-3,-3,-2,-3,2021-08-07 11:39:55,874694
0,-2,-2,-4,-3,-4,-3,0,2021-08-07 11:39:55,874694
1,0,2,4,3,2,1,-1,2021-08-07 11:39:55,874694
1,1,0,0,2,1,-1,-1,2021-08-07 11:39:55,874694
-2,-3,-4,-1,0,0,-2,-1,2021-08-07 11:39:55,874694
-2,-1,-1,1,-2,-1,-1,-3,2021-08-07 11:39:55,875694
2,3,2,-1,-1,0,1,-1,2021-08-07 11:39:55,875694
-3,-4,-3,-8,-7,-4,-2,-3,2021-08-07 11:39:55,875694
2,2,1,-1,-1,1,0,0,2021-08-07 11:39:55,893693
-5,-5,-4,-5,-3,-4,-4,-3,2021-08-07 11:39:55,893693
-2,-3,-5,1,3,0,-1,-2,2021-08-07 11:39:55,908693
3,3,7,12,4,1,3,3,2021-08-07 11:39:55,908693
-2,0,1,2,1,-1,-2,-5,2021-08-07 11:39:55,908693
-2,0,-2,-4,-4,-4,-1,-3,2021-08-07 11:39:55,908693
-3,-1,0,-2,1,1,1,1,2021-08-07 11:39:55,924693
-2,-4,-4,-2,-2,-2,-3,-4,2021-08-07 11:39:55,940692
-5,-4,-4,-3,-2,-5,-4,-5,2021-08-07 11:39:55,956695
4,6,4,3,1,2,1,2,2021-08-07 11:39:55,971693
-4,-6,-5,-7,-1,-1,0,-2,2021-08-07 11:39:55,971693
6,9,3,3,3,4,3,4,2021-08-07 11:39:55,971693
-1,0,0,-4,-6,-3,-2,-2,2021-08-07 11:39:55,971693
-2,0,-1,0,0,0,1,0,2021-08-07 11:39:55,971693
0,-2,-1,3,6,2,1,1,2021-08-07 11:39:55,987694
-4,-2,0,-3,-3,-3,-3,-3,2021-08-07 11:39:56,003693
1,0,0,-4,-4,-4,-2,0,2021-08-07 11:39:56,003693
0,-1,-1,2,1,-1,0,-1,2021-08-07 11:39:56,003693
-1,0,0,-1,-3,-1,1,1,2021-08-07 11:39:56,003693
-1,-4,-1,2,2,3,6,1,2021-08-07 11:39:56,003693
1,1,2,5,2,5,3,3,2021-08-07 11:39:56,004620
-1,-1,-4,-9,-9,-3,-3,-2,2021-08-07 11:39:56,004693
-1,1,1,1,-2,0,-5,-2,2021-08-07 11:39:56,004693
-8,-6,-5,-1,5,-9,-14,-9,2021-08-07 11:39:56,004693
-7,-7,-5,-7,-11,-18,-12,-8,2021-08-07 11:39:56,019715
2,2,0,-2,4,3,3,1,2021-08-07 11:39:56,019715
0,0,0,1,-2,-1,0,-1,2021-08-07 11:39:56,019715
1,-2,-3,-6,-4,1,5,1,2021-08-07 11:39:56,019715
-1,-1,2,5,7,9,6,4,2021-08-07 11:39:56,050717
1,0,2,-1,-3,0,1,0,2021-08-07 11:39:56,066717
2,2,-1,-3,-2,-2,-1,-1,2021-08-07 11:39:56,066717
-1,-1,-1,1,0,0,-1,0,2021-08-07 11:39:56,066717
-2,-1,-3,-5,-2,-1,0,-2,2021-08-07 11:39:56,066717
4,4,5,3,4,1,2,5,2021-08-07 11:39:56,066717
1,2,1,2,2,0,0,-1,2021-08-07 11:39:56,066717
0,0,2,-1,-4,-2,-1,1,2021-08-07 11:39:56,066717
-4,-7,-7,-6,-2,-1,-2,-2,2021-08-07 11:39:56,082718
-2,-1,-2,1,3,3,-2,-2,2021-08-07 11:39:56,082718
-1,-1,-2,-6,-6,-4,-3,-2,2021-08-07 11:39:56,082718
-2,-2,1,0,4,-2,-2,-3,2021-08-07 11:39:56,082718
2,3,4,11,4,4,2,1,2021-08-07 11:39:56,098718
-2,-5,-4,-9,-13,-7,-3,-4,2021-08-07 11:39:56,098718
0,0,0,4,-1,0,1,0,2021-08-07 11:39:56,098718
-1,-1,-2,0,14,4,-1,-1,2021-08-07 11:39:56,098718
0,3,0,-7,-7,-3,0,-1,2021-08-07 11:39:56,130717
-5,-6,-5,-1,-2,-2,-2,-5,2021-08-07 11:39:56,130717
1,-1,0,3,6,-1,-1,0,2021-08-07 11:39:56,130717
-1,0,-6,-9,-12,-3,-1,0,2021-08-07 11:39:56,130717
4,4,4,13,16,9,3,4,2021-08-07 11:39:56,130717
-3,-3,-4,-2,-6,-5,-1,-2,2021-08-07 11:39:56,130717
-4,-6,-4,-10,-10,-7,-4,-4,2021-08-07 11:39:56,131718
0,1,0,0,-2,1,0,-1,2021-08-07 11:39:56,131718
2,3,-1,-6,-4,-3,0,1,2021-08-07 11:39:56,161717
-3,-4,-3,-2,-3,-3,-2,-2,2021-08-07 11:39:56,161717
2,3,1,-1,6,3,2,1,2021-08-07 11:39:56,161717
-3,-3,-1,4,0,-1,-1,-3,2021-08-07 11:39:56,161717
-1,0,2,1,-6,-2,0,-1,2021-08-07 11:39:56,177715
-2,2,2,7,3,0,-2,-1,2021-08-07 11:39:56,177715
-3,-4,-4,-3,-2,-3,-1,-3,2021-08-07 11:39:56,177715
-3,-2,-3,-5,-5,-4,-3,-1,2021-08-07 11:39:56,177715
1,1,0,-3,0,0,2,1,2021-08-07 11:39:56,207715
-2,-2,0,0,1,1,0,-1,2021-08-07 11:39:56,207715
-3,-4,-5,-9,-18,-9,-4,-4,2021-08-07 11:39:56,207715
2,1,0,1,2,1,0,2,2021-08-07 11:39:56,207715
-2,-2,1,18,21,5,0,-1,2021-08-07 11:39:56,223715
4,4,3,2,4,2,0,3,2021-08-07 11:39:56,239232
-1,1,1,0,-1,0,0,-2,2021-08-07 11:39:56,239232
-3,-3,-4,-7,-12,-6,-4,-4,2021-08-07 11:39:56,239232
-3,-5,-6,-11,-10,-4,-4,-3,2021-08-07 11:39:56,239232
-1,-2,-3,-6,-6,-3,-1,-1,2021-08-07 11:39:56,239232
0,0,2,1,3,0,-2,-2,2021-08-07 11:39:56,239232
3,3,5,13,14,6,5,4,2021-08-07 11:39:56,239232
2,2,1,-2,-3,0,2,3,2021-08-07 11:39:56,255232
4,4,2,3,4,5,2,2,2021-08-07 11:39:56,271232
-2,-4,-5,-3,-4,-2,0,-2,2021-08-07 11:39:56,271232
-2,-3,2,7,1,1,1,-1,2021-08-07 11:39:56,271232
-2,-5,-3,-3,0,-1,-1,-4,2021-08-07 11:39:56,271232
-2,-1,2,-1,-2,0,-2,-3,2021-08-07 11:39:56,271232
-2,-2,1,7,6,1,-2,-1,2021-08-07 11:39:56,271232
1,1,1,-4,-4,-4,-3,-1,2021-08-07 11:39:56,271232
-4,-1,-5,-13,-13,-6,-5,-1,2021-08-07 11:39:56,302232
0,-1,-1,3,2,0,0,-1,2021-08-07 11:39:56,302232
1,0,-1,-2,-2,0,0,-1,2021-08-07 11:39:56,302232
-1,-3,-3,-2,0,-2,0,-1,2021-08-07 11:39:56,302232
3,-1,1,0,-1,-1,1,3,2021-08-07 11:39:56,319231
0,0,1,8,8,2,2,1,2021-08-07 11:39:56,319231
-2,0,1,-2,0,-1,-3,-1,2021-08-07 11:39:56,335233
1,1,-1,-5,-6,-2,-1,1,2021-08-07 11:39:56,335233
-2,0,-3,-4,-2,-3,-2,-2,2021-08-07 11:39:56,367233
-3,-2,-2,-2,2,1,-2,-2,2021-08-07 11:39:56,383232
0,-1,0,1,2,0,1,1,2021-08-07 11:39:56,383232
-1,-1,-3,-4,-6,-3,0,-1,2021-08-07 11:39:56,383232
-1,0,0,2,2,1,0,-1,2021-08-07 11:39:56,383232
0,-1,0,2,8,3,1,0,2021-08-07 11:39:56,383232
-3,-3,-4,-5,-8,-3,-3,-2,2021-08-07 11:39:56,383232
-2,1,-1,-3,-3,0,-1,1,2021-08-07 11:39:56,384233
1,1,4,13,9,4,1,0,2021-08-07 11:39:56,384233
0,-1,0,-1,2,-1,-1,-1,2021-08-07 11:39:56,384233
0,0,1,3,1,2,0,2,2021-08-07 11:39:56,384233
-2,-1,-2,-3,-3,-3,-3,-3,2021-08-07 11:39:56,384233
1,-1,-3,-2,-5,1,0,0,2021-08-07 11:39:56,398232
-3,-5,-6,-11,-10,-7,-3,-3,2021-08-07 11:39:56,398232
4,4,2,-1,1,1,0,1,2021-08-07 11:39:56,398232
-2,-1,1,-1,-1,1,-2,-2,2021-08-07 11:39:56,398232
-2,-2,-2,-3,-1,1,-1,-2,2021-08-07 11:39:56,430232
-1,0,-1,1,2,2,0,1,2021-08-07 11:39:56,430232
-1,0,-1,-1,0,-1,0,-2,2021-08-07 11:39:56,430232
-2,-1,-1,1,0,-1,0,-1,2021-08-07 11:39:56,430232
-2,-2,0,-1,1,-1,-2,-2,2021-08-07 11:39:56,430232
-1,-3,-3,-2,-3,-2,-2,0,2021-08-07 11:39:56,430232
-4,-4,-4,-5,-5,-2,-3,-4,2021-08-07 11:39:56,431232
2,5,5,6,4,3,1,2,2021-08-07 11:39:56,431232
0,0,0,-2,-2,-2,0,-2,2021-08-07 11:39:56,478233
0,-2,-2,1,-1,-3,-2,0,2021-08-07 11:39:56,478233
-1,0,0,-3,-2,-2,-1,1,2021-08-07 11:39:56,478233
-2,-4,-3,-4,-3,-2,-3,-3,2021-08-07 11:39:56,478233
-2,-2,-3,-6,-5,-2,-1,-3,2021-08-07 11:39:56,478233
-3,-3,-2,0,-1,-1,-2,-1,2021-08-07 11:39:56,478233
1,1,1,3,-1,1,1,2,2021-08-07 11:39:56,478233
-2,-2,-1,-4,-1,-2,-2,-1,2021-08-07 11:39:56,478233
-1,-3,-2,0,0,-2,-2,-1,2021-08-07 11:39:56,494232
1,2,0,2,2,2,1,1,2021-08-07 11:39:56,494232
-1,-1,-1,-1,0,0,0,-1,2021-08-07 11:39:56,494232
-2,-1,-3,-6,-6,-4,-2,-1,2021-08-07 11:39:56,494232
-3,-2,-2,-1,-1,-1,-3,0,2021-08-07 11:39:56,510233
-1,-1,0,-2,-2,0,0,-2,2021-08-07 11:39:56,510233
-1,-1,-3,-2,1,1,0,-1,2021-08-07 11:39:56,526233
1,-1,-2,-1,1,0,2,-1,2021-08-07 11:39:56,526233
1,2,0,1,-1,1,-1,0,2021-08-07 11:39:56,542232
0,0,-1,-1,-2,-1,-1,-1,2021-08-07 11:39:56,542232
-3,-3,0,2,0,0,-2,-3,2021-08-07 11:39:56,542232
-4,-5,-4,-3,-4,-2,-5,-3,2021-08-07 11:39:56,542232
0,-1,-1,-2,-1,-2,-2,2,2021-08-07 11:39:56,558232
3,2,3,3,3,3,1,0,2021-08-07 11:39:56,558232
-2,-3,-3,-1,0,-2,-2,-3,2021-08-07 11:39:56,558232
-1,-2,-3,0,0,-1,0,0,2021-08-07 11:39:56,558232
-2,0,-1,-4,-5,-3,-1,-1,2021-08-07 11:39:56,574232
-1,1,1,-1,-2,-2,-1,0,2021-08-07 11:39:56,574232
1,0,0,0,0,0,0,0,2021-08-07 11:39:56,574232
-2,-2,0,-2,-1,0,0,-1,2021-08-07 11:39:56,574232
-3,-3,-2,-2,-3,-2,-1,-1,2021-08-07 11:39:56,605232
1,3,1,-1,-2,-2,0,1,2021-08-07 11:39:56,605232
1,2,1,3,5,1,0,1,2021-08-07 11:39:56,605232
-2,-3,-4,-2,0,-1,-2,-3,2021-08-07 11:39:56,605232
3,2,1,3,2,2,3,1,2021-08-07 11:39:56,621232
-4,-3,-3,-4,-8,-3,-1,-1,2021-08-07 11:39:56,637231
-2,0,2,8,8,2,0,-1,2021-08-07 11:39:56,653234
-1,-2,-3,-1,-1,-2,-2,0,2021-08-07 11:39:56,653234
1,3,1,0,4,1,0,0,2021-08-07 11:39:56,653234
0,1,0,-1,-2,-2,0,1,2021-08-07 11:39:56,653234
-1,-1,0,-5,-6,-1,-2,0,2021-08-07 11:39:56,653234
-3,-3,-6,-9,-3,-3,0,-1,2021-08-07 11:39:56,653234
-2,-2,0,6,3,1,-3,-1,2021-08-07 11:39:56,653234
-1,0,-1,-3,-5,-1,-1,0,2021-08-07 11:39:56,654233
1,0,2,3,3,0,1,2,2021-08-07 11:39:56,654233
1,2,1,0,-3,-1,0,0,2021-08-07 11:39:56,654233
-4,-3,-5,-9,-10,-6,-4,-4,2021-08-07 11:39:56,669232
1,0,2,7,8,3,-2,-2,2021-08-07 11:39:56,669232
-4,-4,-3,-4,-6,-5,-2,-2,2021-08-07 11:39:56,685232
1,1,1,1,1,0,1,-1,2021-08-07 11:39:56,701233
2,1,1,1,2,1,2,0,2021-08-07 11:39:56,733233
-1,-1,-1,0,-3,-1,-2,-1,2021-08-07 11:39:56,743233
1,-2,-3,-4,-5,-2,-1,0,2021-08-07 11:39:56,743233
1,1,3,7,5,2,1,1,2021-08-07 11:39:56,743233
-3,-3,-6,-9,-7,-5,-3,-2,2021-08-07 11:39:56,743233
0,-1,1,5,5,3,0,-1,2021-08-07 11:39:56,744233
1,-1,0,0,-2,1,0,2,2021-08-07 11:39:56,744233
-2,1,1,-3,-7,-3,-4,0,2021-08-07 11:39:56,744233
-2,-2,1,1,7,3,0,-1,2021-08-07 11:39:56,744233
-3,-3,-1,-5,-3,-3,-2,-3,2021-08-07 11:39:56,744233
-2,-3,-5,-3,-3,-2,-2,-2,2021-08-07 11:39:56,744233
-2,-1,-2,1,-2,-2,-1,-1,2021-08-07 11:39:56,744233
-3,-3,-4,-7,-6,-2,-2,-3,2021-08-07 11:39:56,765233
2,2,0,-1,0,1,2,3,2021-08-07 11:39:56,781232
-2,-2,2,3,3,1,-1,-2,2021-08-07 11:39:56,781232
1,1,-1,-2,-2,-2,-1,-1,2021-08-07 11:39:56,781232
-3,-3,-3,-1,-1,-1,-2,-1,2021-08-07 11:39:56,781232
-3,-3,0,0,2,1,0,-1,2021-08-07 11:39:56,781232
-2,0,-3,-3,-3,0,-2,0,2021-08-07 11:39:56,781232
-2,-2,-1,0,1,0,-1,-1,2021-08-07 11:39:56,781232
-1,-3,-3,-2,-3,-3,-1,-2,2021-08-07 11:39:56,797232
3,5,3,8,4,3,-1,0,2021-08-07 11:39:56,797232
0,1,-1,0,-1,-2,-1,-1,2021-08-07 11:39:56,812231
0,-1,1,-2,-5,-2,-2,-1,2021-08-07 11:39:56,828232
-3,-4,-8,-15,-11,-5,-3,-2,2021-08-07 11:39:56,844231
0,0,2,9,9,2,2,1,2021-08-07 11:39:56,844231
4,3,3,4,5,4,1,0,2021-08-07 11:39:56,844231
0,-1,-2,3,3,0,0,-1,2021-08-07 11:39:56,844231
1,0,1,-1,-4,-2,-1,-1,2021-08-07 11:39:56,844231
-2,-2,-2,-6,-6,-3,-2,-2,2021-08-07 11:39:56,844231
2,3,1,0,-2,-1,0,0,2021-08-07 11:39:56,845233
-8,-11,-9,0,-2,-3,-4,-5,2021-08-07 11:39:56,845233
7,11,9,4,7,4,3,5,2021-08-07 11:39:56,860233
-1,-4,-4,-4,-1,-1,-1,-4,2021-08-07 11:39:56,860233
-2,-3,-2,-4,-2,-2,-4,-4,2021-08-07 11:39:56,860233
-1,-2,-2,-7,-6,-1,-2,-3,2021-08-07 11:39:56,860233
-5,-6,-6,-5,-4,-3,-1,-2,2021-08-07 11:39:56,892232
-3,-2,-3,-3,-3,-1,-1,0,2021-08-07 11:39:56,892232
0,1,0,-1,1,1,2,0,2021-08-07 11:39:56,892232
0,1,1,0,0,1,0,1,2021-08-07 11:39:56,892232
-4,-5,-3,-3,-1,-3,-3,-3,2021-08-07 11:39:56,893233
1,0,4,3,1,-1,1,0,2021-08-07 11:39:56,893233
-5,-5,-5,2,-2,-3,-3,-2,2021-08-07 11:39:56,893233
2,2,-1,-7,-5,-3,-2,0,2021-08-07 11:39:56,893233
2,4,6,9,7,5,3,2,2021-08-07 11:39:56,924232
-3,-2,-2,0,0,1,-3,-1,2021-08-07 11:39:56,924232
-2,-2,-2,-1,1,-1,1,-2,2021-08-07 11:39:56,924232
-3,-3,-4,-5,-1,0,-1,-1,2021-08-07 11:39:56,924232
-6,-6,-4,-2,-3,-1,-1,-1,2021-08-07 11:39:56,972232
5,8,4,-1,-3,0,0,2,2021-08-07 11:39:56,972232
0,-3,-1,3,-1,-3,-2,-2,2021-08-07 11:39:56,972232
-1,1,0,2,4,1,-1,1,2021-08-07 11:39:56,972232
-1,-1,-2,-2,-2,-1,-3,-1,2021-08-07 11:39:56,972232
-6,-7,-8,-5,0,-2,-1,-3,2021-08-07 11:39:56,972232
2,1,0,-4,2,-1,-1,1,2021-08-07 11:39:56,972232
1,3,4,10,3,1,2,1,2021-08-07 11:39:56,972232
-1,-1,0,0,-2,-1,-1,0,2021-08-07 11:39:56,987233
-4,-4,-4,-3,-3,-4,-3,-4,2021-08-07 11:39:57,003233
1,0,1,3,-2,-1,-1,0,2021-08-07 11:39:57,003233
0,-1,-1,-6,-5,-3,-1,-1,2021-08-07 11:39:57,003233
0,0,1,2,3,2,2,0,2021-08-07 11:39:57,004234
3,-1,-2,-7,-4,-2,-1,-2,2021-08-07 11:39:57,004234
-1,-1,2,1,-1,0,-2,-3,2021-08-07 11:39:57,004234
0,1,3,4,0,-1,-1,0,2021-08-07 11:39:57,004234
1,0,1,-1,-1,-3,-1,-1,2021-08-07 11:39:57,019230
-2,-1,-2,-6,-8,-5,-2,-1,2021-08-07 11:39:57,019230
-1,-4,-4,-4,-2,0,-1,1,2021-08-07 11:39:57,035232
-2,-3,0,-1,0,1,0,-2,2021-08-07 11:39:57,035232
2,0,-1,0,-1,1,3,1,2021-08-07 11:39:57,051232
0,-1,-2,0,0,2,2,1,2021-08-07 11:39:57,066233
-6,-7,-6,-7,-4,-4,-4,-5,2021-08-07 11:39:57,082233
2,5,3,-2,3,2,0,1,2021-08-07 11:39:57,098233
-2,0,5,10,4,0,-2,-3,2021-08-07 11:39:57,130232
1,4,5,7,6,1,-1,0,2021-08-07 11:39:57,145232
-1,-1,-1,-4,-3,-3,-1,-1,2021-08-07 11:39:57,145232
0,-2,-3,-4,-4,-3,-1,-1,2021-08-07 11:39:57,145232
-2,-2,-5,-5,-7,-4,-1,-2,2021-08-07 11:39:57,145232
-1,-2,0,2,-1,-1,-2,0,2021-08-07 11:39:57,145232
1,0,-3,-4,-3,-2,0,0,2021-08-07 11:39:57,146232
-1,-3,0,3,3,1,-1,-1,2021-08-07 11:39:57,146232
-1,-3,-2,-2,-1,0,-2,-1,2021-08-07 11:39:57,146232
2,1,0,0,-1,1,1,0,2021-08-07 11:39:57,146232
0,1,2,2,1,0,-2,-1,2021-08-07 11:39:57,146232
-1,-2,-2,2,-1,-1,-1,-1,2021-08-07 11:39:57,146232
2,1,2,3,4,0,1,1,2021-08-07 11:39:57,146232
-4,-5,-5,-8,-5,-3,-3,-2,2021-08-07 11:39:57,146232
-5,-4,-4,-2,-4,-3,-2,-3,2021-08-07 11:39:57,146232
1,0,-2,-5,-2,-1,2,1,2021-08-07 11:39:57,146232
1,0,1,5,0,0,-1,-1,2021-08-07 11:39:57,147232
-1,0,1,4,4,1,0,1,2021-08-07 11:39:57,147232
0,2,2,0,0,1,0,-1,2021-08-07 11:39:57,147232
-4,-5,-4,-4,-4,-3,-4,-4,2021-08-07 11:39:57,147232
-1,0,-4,-5,-4,-2,-2,-1,2021-08-07 11:39:57,161231
0,0,-1,3,7,2,1,2,2021-08-07 11:39:57,161231
-1,-3,-2,-4,-4,0,0,-1,2021-08-07 11:39:57,161231
1,2,1,1,-2,-1,-1,-3,2021-08-07 11:39:57,161231
1,1,1,3,3,3,1,1,2021-08-07 11:39:57,180233
-2,-1,-1,-3,-4,-2,-1,-3,2021-08-07 11:39:57,180233
-3,-2,-4,-7,-7,-3,-3,-2,2021-08-07 11:39:57,180233
2,3,4,5,8,3,2,2,2021-08-07 11:39:57,181233
0,0,0,2,2,2,0,0,2021-08-07 11:39:57,209232
-4,-4,-3,-2,-2,-3,-1,-4,2021-08-07 11:39:57,225232
2,3,1,2,0,0,-1,1,2021-08-07 11:39:57,225232
-4,0,-6,-8,-5,-2,-2,-2,2021-08-07 11:39:57,225232
-2,-8,0,0,-1,-1,-1,-1,2021-08-07 11:39:57,225232
-1,0,-5,-6,-5,-4,-2,-2,2021-08-07 11:39:57,225232
2,0,-1,-3,-4,-2,0,-1,2021-08-07 11:39:57,225232
-2,1,-1,3,1,-1,-1,0,2021-08-07 11:39:57,226233
-2,3,1,4,7,4,1,-1,2021-08-07 11:39:57,257234
-1,-1,0,0,3,1,-2,-1,2021-08-07 11:39:57,257234
-1,1,-1,-2,-2,-2,-1,0,2021-08-07 11:39:57,257234
-4,-3,-3,-1,-4,-3,-5,-3,2021-08-07 11:39:57,257234
-2,-2,-5,-8,-3,-2,0,-1,2021-08-07 11:39:57,257234
2,3,4,0,-4,1,2,1,2021-08-07 11:39:57,257234
-1,0,-1,-1,-1,-2,0,0,2021-08-07 11:39:57,273231
-1,-2,2,3,3,1,-1,-1,2021-08-07 11:39:57,273231
-2,-3,0,-2,-4,-4,-4,-2,2021-08-07 11:39:57,288232
0,-2,-3,-1,-4,-4,-3,-3,2021-08-07 11:39:57,304231
1,0,-1,4,5,4,1,2,2021-08-07 11:39:57,304231
-3,-5,-3,-3,4,0,0,0,2021-08-07 11:39:57,304231
-2,-1,-3,-3,-3,-1,-4,-1,2021-08-07 11:39:57,304231
4,8,5,-1,-1,0,2,4,2021-08-07 11:39:57,304231
-4,-5,-3,-2,-3,-2,-2,-4,2021-08-07 11:39:57,304231
-2,-2,-2,-5,-11,-7,-3,-2,2021-08-07 11:39:57,304231
2,6,3,0,3,3,3,3,2021-08-07 11:39:57,319233
1,-2,1,10,13,5,2,-1,2021-08-07 11:39:57,319233
-1,-2,-1,3,0,0,0,-1,2021-08-07 11:39:57,335232
-2,0,-2,-5,-1,0,-1,-1,2021-08-07 11:39:57,351233
-3,-3,-2,-5,-9,-7,-4,-4,2021-08-07 11:39:57,367232
-4,-3,-5,-7,-8,-4,-3,-2,2021-08-07 11:39:57,367232
1,1,2,1,1,0,0,1,2021-08-07 11:39:57,367232
2,2,0,0,-1,1,1,1,2021-08-07 11:39:57,367232
0,0,-3,-6,-3,-1,-2,-1,2021-08-07 11:39:57,367232
-3,-3,-2,1,0,-1,-3,-2,2021-08-07 11:39:57,368232
1,-1,2,7,7,2,2,0,2021-08-07 11:39:57,368232
3,1,0,1,1,1,1,1,2021-08-07 11:39:57,368232
0,0,0,-1,1,1,0,-1,2021-08-07 11:39:57,399232
-3,-4,-3,-1,-2,-2,-3,-4,2021-08-07 11:39:57,399232
-2,-3,-5,-6,-6,-2,-3,-2,2021-08-07 11:39:57,399232
-2,-4,-4,-7,-5,-3,-1,-1,2021-08-07 11:39:57,399232
4,5,3,5,4,2,1,5,2021-08-07 11:39:57,399232
-2,-5,-3,-1,1,3,1,-1,2021-08-07 11:39:57,399232
2,3,4,3,1,1,0,0,2021-08-07 11:39:57,399232
-3,-6,-6,-10,-8,-4,-3,-4,2021-08-07 11:39:57,399232
0,1,2,3,8,2,0,-2,2021-08-07 11:39:57,431232
3,3,1,1,-2,0,0,4,2021-08-07 11:39:57,447232
-3,-3,-5,-6,-4,-4,-3,-2,2021-08-07 11:39:57,463233
1,2,3,7,4,2,2,0,2021-08-07 11:39:57,463233
-3,-5,-6,-11,-11,-4,-2,-4,2021-08-07 11:39:57,463233
0,-3,-1,-5,-3,-2,0,0,2021-08-07 11:39:57,463233
-3,-2,1,3,5,0,0,-1,2021-08-07 11:39:57,463233
4,4,4,9,5,2,3,3,2021-08-07 11:39:57,463233
-2,-1,-4,-7,-10,-7,-1,-1,2021-08-07 11:39:57,463233
3,4,4,8,8,2,2,2,2021-08-07 11:39:57,464236
-2,-2,-4,-4,-5,-3,-2,-1,2021-08-07 11:39:57,479232
1,-2,0,0,1,0,0,1,2021-08-07 11:39:57,479232
-2,-1,-2,3,0,1,0,0,2021-08-07 11:39:57,479232
-6,-6,-9,-15,-15,-9,-7,-4,2021-08-07 11:39:57,479232
1,3,3,3,1,2,2,3,2021-08-07 11:39:57,479232
1,1,1,1,4,2,-1,0,2021-08-07 11:39:57,479232
2,1,5,9,6,3,0,0,2021-08-07 11:39:57,527234
-4,-4,-5,-4,-4,-3,-2,-3,2021-08-07 11:39:57,527234
-2,-5,-3,-3,-3,-1,-3,-2,2021-08-07 11:39:57,527234
3,6,4,-1,-3,1,3,2,2021-08-07 11:39:57,527234
1,0,-4,-5,-3,-1,0,-2,2021-08-07 11:39:57,527234
0,0,1,4,2,0,1,-2,2021-08-07 11:39:57,527234
-2,-2,-4,-3,-2,-2,-2,-2,2021-08-07 11:39:57,527234
-3,-5,-5,-3,-3,-1,-3,-4,2021-08-07 11:39:57,527234
1,0,4,14,16,5,2,4,2021-08-07 11:39:57,574231
-2,0,1,-1,-5,-3,0,-2,2021-08-07 11:39:57,589230
-1,-2,-2,-2,-3,-3,0,1,2021-08-07 11:39:57,589230
2,3,0,1,-3,-1,1,0,2021-08-07 11:39:57,589230
0,0,-1,0,-2,-1,0,0,2021-08-07 11:39:57,589230
-1,-3,-3,-6,-2,-2,-2,-2,2021-08-07 11:39:57,589230
1,-1,0,1,1,1,0,0,2021-08-07 11:39:57,589230
-7,-9,-3,-6,-2,-3,-4,-5,2021-08-07 11:39:57,590235
1,2,1,0,-1,-2,-2,1,2021-08-07 11:39:57,590235
3,5,7,5,2,2,1,3,2021-08-07 11:39:57,590235
-1,-1,-2,-1,-2,1,-4,-2,2021-08-07 11:39:57,590235
-2,-1,-2,0,0,-2,0,-3,2021-08-07 11:39:57,590235
-3,-3,-1,-3,-2,0,0,-1,2021-08-07 11:39:57,604235
-2,-4,-3,-6,-3,-1,-3,0,2021-08-07 11:39:57,604235
1,2,1,1,0,0,1,0,2021-08-07 11:39:57,604235
0,-1,1,2,0,-1,0,0,2021-08-07 11:39:57,604235
-3,-2,-4,-2,-3,-3,-1,-3,2021-08-07 11:39:57,627232
-1,0,-1,0,0,-1,0,0,2021-08-07 11:39:57,627232
0,0,0,-2,1,0,0,-1,2021-08-07 11:39:57,627232
0,-1,-2,-1,-1,0,-1,-1,2021-08-07 11:39:57,627232
0,1,-1,-1,-3,-1,0,-1,2021-08-07 11:39:57,652233
-1,-1,-1,0,-2,-1,-2,-1,2021-08-07 11:39:57,652233
0,0,0,0,-2,1,0,-1,2021-08-07 11:39:57,652233
-1,0,-2,-1,-1,-1,-1,-1,2021-08-07 11:39:57,652233
1,-1,0,-2,-3,-2,0,-1,2021-08-07 11:39:57,668258
-3,-1,0,-1,0,0,-1,-1,2021-08-07 11:39:57,668258
-4,-1,0,-3,-2,-3,-2,-1,2021-08-07 11:39:57,668258
1,0,1,1,-1,0,0,0,2021-08-07 11:39:57,668258
1,-1,0,1,1,2,0,1,2021-08-07 11:39:57,700237
-4,-4,-6,-5,-4,-4,-2,-3,2021-08-07 11:39:57,716232
-4,-6,-5,-2,-1,-2,-2,-3,2021-08-07 11:39:57,716232
7,9,6,6,6,4,3,5,2021-08-07 11:39:57,716232
1,0,-2,-4,-3,-2,-2,-2,2021-08-07 11:39:57,716232
-1,-1,-2,-3,-1,0,0,-1,2021-08-07 11:39:57,716232
-4,-5,-5,-4,-6,-6,-5,-3,2021-08-07 11:39:57,716232
2,1,1,4,4,2,1,2,2021-08-07 11:39:57,717234
2,1,3,9,4,1,0,-1,2021-08-07 11:39:57,732232
-1,-1,-3,-3,-1,-1,0,-1,2021-08-07 11:39:57,732232
-1,0,0,-1,-1,-2,-1,-1,2021-08-07 11:39:57,732232
-5,-4,-4,-5,-7,-3,-2,-1,2021-08-07 11:39:57,732232
-1,-3,-1,-4,-3,-1,-1,1,2021-08-07 11:39:57,748260
0,1,0,2,3,-1,0,0,2021-08-07 11:39:57,764232
2,0,0,-2,1,-1,0,1,2021-08-07 11:39:57,764232
-4,-3,-2,-3,-2,-4,-2,-3,2021-08-07 11:39:57,764232
1,1,1,3,2,0,0,0,2021-08-07 11:39:57,764232
0,0,-2,-3,-2,0,-2,0,2021-08-07 11:39:57,764232
2,1,1,0,-3,0,2,-1,2021-08-07 11:39:57,764232
-4,-1,-5,-5,-6,-2,-1,-3,2021-08-07 11:39:57,764232
-2,-1,0,1,8,1,0,-1,2021-08-07 11:39:57,795232
3,3,1,3,1,2,2,2,2021-08-07 11:39:57,811233
-3,-2,-6,-10,-5,-3,1,1,2021-08-07 11:39:57,811233
1,-1,4,12,9,3,1,1,2021-08-07 11:39:57,811233
-5,-5,-6,-7,-5,-4,-3,-5,2021-08-07 11:39:57,811233
-5,-3,-3,-3,-3,-3,-4,-4,2021-08-07 11:39:57,811233
1,1,3,-2,2,-1,-1,-3,2021-08-07 11:39:57,811233
-1,0,1,-3,-4,-4,-4,-2,2021-08-07 11:39:57,812233
1,2,1,-3,-6,-3,-2,-1,2021-08-07 11:39:57,827233
1,-2,1,0,-1,-1,0,0,2021-08-07 11:39:57,843232
-1,-2,-3,-3,-2,-1,0,0,2021-08-07 11:39:57,843232
0,-2,-4,-4,-2,-1,-1,0,2021-08-07 11:39:57,843232
2,1,1,2,3,1,1,1,2021-08-07 11:39:57,843232
-4,-5,-5,-4,-5,-4,-1,-1,2021-08-07 11:39:57,843232
-5,-4,-3,-3,-3,-4,-3,-4,2021-08-07 11:39:57,843232
5,11,9,8,8,4,4,4,2021-08-07 11:39:57,843232
-2,-1,0,1,-2,1,0,0,2021-08-07 11:39:57,875232
1,1,2,-3,-4,-2,-2,-2,2021-08-07 11:39:57,875232
2,1,4,11,7,4,2,2,2021-08-07 11:39:57,875232
-1,-3,-3,-2,0,-1,-2,-3,2021-08-07 11:39:57,875232
-3,-4,-5,-9,-6,-2,-3,-1,2021-08-07 11:39:57,875232
-5,-5,-3,-2,-3,-3,-2,-2,2021-08-07 11:39:57,875232
4,6,8,10,3,4,1,0,2021-08-07 11:39:57,890231
0,-1,-1,-2,3,-1,-1,-1,2021-08-07 11:39:57,890231
2,1,1,4,1,-1,-1,0,2021-08-07 11:39:57,905233
-3,-9,-3,-2,-2,-1,-2,-3,2021-08-07 11:39:57,905233
-2,-3,-6,-8,-9,-5,-2,-3,2021-08-07 11:39:57,905233
-1,1,2,-1,-1,0,0,0,2021-08-07 11:39:57,905233
0,0,-1,-1,0,1,-1,-2,2021-08-07 11:39:57,936231
2,3,4,6,3,2,1,2,2021-08-07 11:39:57,952231
0,-2,-4,-2,1,1,-1,-2,2021-08-07 11:39:57,952231
-3,-3,-5,-3,-6,-2,-1,-2,2021-08-07 11:39:57,952231
-3,-3,-3,-6,-8,-3,-2,-2,2021-08-07 11:39:57,952231
1,0,-2,-10,-3,-1,0,-1,2021-08-07 11:39:57,952231
3,2,3,7,4,3,2,3,2021-08-07 11:39:57,953232
1,-2,0,9,6,2,1,0,2021-08-07 11:39:57,953232
-5,-3,-1,2,0,-2,-2,-4,2021-08-07 11:39:57,968231
-1,2,-1,-4,-4,-4,-3,-2,2021-08-07 11:39:57,968231
-6,-5,-3,5,8,1,-1,-2,2021-08-07 11:39:57,968231
1,-1,0,0,2,1,1,1,2021-08-07 11:39:57,968231
5,2,6,6,-2,-1,2,4,2021-08-07 11:39:58,000232
-8,-3,-4,-4,-6,-10,-7,-7,2021-08-07 11:39:58,000232
-3,-2,-5,-8,-8,-4,-1,1,2021-08-07 11:39:58,000232
-3,-3,-8,-12,-8,-1,-3,-2,2021-08-07 11:39:58,000232
0,-1,0,3,4,4,0,1,2021-08-07 11:39:58,000232
6,5,3,4,5,5,5,5,2021-08-07 11:39:58,000232
0,1,0,-3,-5,-1,0,-1,2021-08-07 11:39:58,016232
-1,-1,-1,0,0,-3,-1,-2,2021-08-07 11:39:58,016232
-1,0,-1,-1,0,-1,-2,-1,2021-08-07 11:39:58,032232
-1,-2,-2,-3,-4,3,4,1,2021-08-07 11:39:58,032232
-6,-6,-4,-4,-8,-7,-9,-4,2021-08-07 11:39:58,032232
-3,-2,-2,-5,-5,-9,-9,-4,2021-08-07 11:39:58,032232
-5,-4,-4,1,3,-4,-4,-6,2021-08-07 11:39:58,048231
3,5,7,7,6,4,4,4,2021-08-07 11:39:58,048231
3,2,0,-4,-1,4,5,4,2021-08-07 11:39:58,048231
3,-1,0,-3,-3,3,1,1,2021-08-07 11:39:58,048231
-4,-6,-5,-8,-8,-7,-8,-6,2021-08-07 11:39:58,064232
-5,-9,-6,3,4,-1,-4,-4,2021-08-07 11:39:58,064232
6,7,3,-6,-5,0,3,3,2021-08-07 11:39:58,064232
0,2,2,9,2,0,1,1,2021-08-07 11:39:58,064232
2,2,4,5,12,6,4,3,2021-08-07 11:39:58,095231
-4,-4,-4,-6,-7,-5,-4,-3,2021-08-07 11:39:58,095231
-3,-5,-4,-9,-2,-2,-5,-5,2021-08-07 11:39:58,095231
-1,-3,-1,1,-6,-2,0,0,2021-08-07 11:39:58,095231
3,4,0,-5,-4,3,3,3,2021-08-07 11:39:58,111232
2,2,0,4,1,-1,-1,0,2021-08-07 11:39:58,111232
-3,-3,-2,-7,-6,-7,-6,-6,2021-08-07 11:39:58,111232
-3,-1,5,10,9,5,1,-1,2021-08-07 11:39:58,127232
-3,-3,-4,-1,3,1,-1,0,2021-08-07 11:39:58,127232
3,0,3,7,10,5,3,2,2021-08-07 11:39:58,127232
-2,-1,-2,3,-2,-1,1,0,2021-08-07 11:39:58,127232
-1,0,-4,-9,-8,-4,-2,-1,2021-08-07 11:39:58,127232
0,0,-2,-2,-5,-4,-1,0,2021-08-07 11:39:58,158232
-3,-1,-2,-2,-4,-3,-2,-2,2021-08-07 11:39:58,158232
3,0,0,3,4,3,0,1,2021-08-07 11:39:58,158232
-2,-5,-3,1,3,0,-3,-4,2021-08-07 11:39:58,158232
2,2,-1,0,6,1,-1,0,2021-08-07 11:39:58,174232
-5,-5,-6,-11,-12,-6,-4,-6,2021-08-07 11:39:58,174232
0,0,3,11,5,2,1,2,2021-08-07 11:39:58,174232
-2,-3,-5,-15,-10,-3,-1,0,2021-08-07 11:39:58,174232
1,1,0,-1,-4,1,1,1,2021-08-07 11:39:58,174232
-1,-1,1,-1,-1,1,1,-2,2021-08-07 11:39:58,174232
-4,-4,-4,-4,-6,-4,-4,-4,2021-08-07 11:39:58,190230
0,1,0,4,7,3,1,-1,2021-08-07 11:39:58,190230
-5,-6,-3,-4,-5,-3,-1,-2,2021-08-07 11:39:58,206232
2,1,-1,-3,1,1,0,0,2021-08-07 11:39:58,206232
1,2,7,7,5,3,0,1,2021-08-07 11:39:58,206232
1,1,0,1,1,1,-1,0,2021-08-07 11:39:58,206232
-3,-2,-2,-7,-7,-4,-3,-2,2021-08-07 11:39:58,238232
-4,-4,-5,-5,-9,-6,-4,-4,2021-08-07 11:39:58,238232
-1,-1,-2,-3,4,-1,0,1,2021-08-07 11:39:58,238232
1,0,2,0,1,0,1,0,2021-08-07 11:39:58,238232
-3,0,-1,8,4,1,0,0,2021-08-07 11:39:58,238232
0,-1,-2,-8,-9,-4,-3,-2,2021-08-07 11:39:58,238232
0,1,3,5,4,2,1,0,2021-08-07 11:39:58,254234
-3,-3,-5,-4,0,-1,0,-2,2021-08-07 11:39:58,254234
1,-1,0,4,1,1,0,1,2021-08-07 11:39:58,270231
0,1,-2,1,-1,0,-2,1,2021-08-07 11:39:58,270231
-5,-3,-4,-5,-5,-2,-2,-4,2021-08-07 11:39:58,270231
-1,-2,-2,-2,-5,-4,-1,-2,2021-08-07 11:39:58,286233
-1,0,-3,-7,-10,-4,-1,-3,2021-08-07 11:39:58,302231
4,7,9,20,20,9,3,3,2021-08-07 11:39:58,302231
-1,-2,-2,3,0,1,1,0,2021-08-07 11:39:58,302231
-2,-3,-4,-7,-7,-4,-2,-2,2021-08-07 11:39:58,302231
1,0,-1,-1,-4,-1,0,1,2021-08-07 11:39:58,302231
-1,-1,-2,-3,-3,-2,-1,-1,2021-08-07 11:39:58,302231
-2,-2,-3,-3,-1,-3,-1,-2,2021-08-07 11:39:58,317232
-1,-2,-2,-2,-3,-2,-1,1,2021-08-07 11:39:58,317232
0,0,-1,-3,-1,-2,0,0,2021-08-07 11:39:58,317232
1,1,4,4,4,1,0,1,2021-08-07 11:39:58,317232
0,-1,0,-2,-2,-2,-2,-2,2021-08-07 11:39:58,333232
-3,-1,-3,-1,-3,-3,-2,-2,2021-08-07 11:39:58,333232
0,0,-1,-3,2,0,2,-3,2021-08-07 11:39:58,349231
-1,0,-1,-1,0,0,-1,0,2021-08-07 11:39:58,365232
-4,-4,-4,-5,-7,-4,-3,-6,2021-08-07 11:39:58,365232
0,0,2,0,5,4,1,0,2021-08-07 11:39:58,365232
1,0,2,5,5,1,0,-2,2021-08-07 11:39:58,365232
1,0,1,6,4,3,1,1,2021-08-07 11:39:58,365232
-1,-2,-3,-4,-3,-1,-2,-1,2021-08-07 11:39:58,365232
-1,-1,-1,-6,-9,-7,-3,-2,2021-08-07 11:39:58,365232
-1,-3,-1,-2,-5,-4,-2,-1,2021-08-07 11:39:58,397234
0,-3,-3,-5,-4,-3,0,-2,2021-08-07 11:39:58,397234
-2,-1,-1,3,0,0,-2,1,2021-08-07 11:39:58,397234
-6,-8,-6,-6,-7,-2,-4,-4,2021-08-07 11:39:58,397234
6,9,9,10,9,5,4,6,2021-08-07 11:39:58,413233
-3,-2,-5,-5,-3,-4,-2,-2,2021-08-07 11:39:58,413233
2,2,4,7,9,3,3,1,2021-08-07 11:39:58,413233
-5,-4,-4,0,-1,-1,-2,-4,2021-08-07 11:39:58,413233
-4,-3,-2,-4,-6,-2,-1,-1,2021-08-07 11:39:58,429232
0,-1,0,1,2,1,-2,-1,2021-08-07 11:39:58,429232
0,0,-3,-2,-5,-1,-2,0,2021-08-07 11:39:58,429232
0,0,0,-7,-5,-2,0,0,2021-08-07 11:39:58,429232
-2,-4,0,5,3,0,-2,0,2021-08-07 11:39:58,445233
-3,-4,-4,-7,-5,-2,0,-1,2021-08-07 11:39:58,461233
-2,-3,-2,-9,-3,-1,-3,-3,2021-08-07 11:39:58,461233
3,4,4,10,5,4,1,2,2021-08-07 11:39:58,461233
1,0,-2,-6,-5,-2,-2,0,2021-08-07 11:39:58,461233
-2,-4,-2,-2,-5,-4,0,-2,2021-08-07 11:39:58,461233
-2,-2,-1,-3,-5,-2,-1,-2,2021-08-07 11:39:58,477232
-2,-3,-3,2,8,1,-1,-1,2021-08-07 11:39:58,477232
0,-2,-4,-8,-3,-1,-1,-1,2021-08-07 11:39:58,493231
0,0,1,-3,1,1,0,1,2021-08-07 11:39:58,508233
0,1,1,4,0,-1,-1,0,2021-08-07 11:39:58,508233
0,-1,0,-2,-2,-2,0,0,2021-08-07 11:39:58,508233
-1,-2,-3,1,0,-1,0,0,2021-08-07 11:39:58,508233
-3,-5,-7,-9,-9,-6,-4,-4,2021-08-07 11:39:58,508233
-1,-2,-4,-5,-1,0,0,2,2021-08-07 11:39:58,508233
3,3,3,-1,-2,0,2,2,2021-08-07 11:39:58,508233
-3,-5,-4,2,5,2,-1,-2,2021-08-07 11:39:58,540231
0,1,2,7,3,2,1,1,2021-08-07 11:39:58,556231
3,5,6,4,7,2,2,3,2021-08-07 11:39:58,556231
1,0,-1,-9,-15,-6,-3,-1,2021-08-07 11:39:58,556231
-1,-1,3,5,5,2,-2,0,2021-08-07 11:39:58,556231
-3,-1,1,3,3,-3,-1,-1,2021-08-07 11:39:58,572232
-3,-5,-8,-8,-4,-2,-2,-2,2021-08-07 11:39:58,587233
1,3,-1,-1,2,2,0,2,2021-08-07 11:39:58,587233
-4,-3,-7,-8,-10,-5,-1,-1,2021-08-07 11:39:58,587233
-1,0,0,-2,0,1,1,-1,2021-08-07 11:39:58,587233
1,-1,2,7,0,0,-2,0,2021-08-07 11:39:58,587233
0,1,4,7,9,4,1,-1,2021-08-07 11:39:58,587233
-4,2,2,0,-7,-3,-3,-3,2021-08-07 11:39:58,588233
1,2,1,0,7,2,-1,0,2021-08-07 11:39:58,588233
-4,-4,-9,-16,-21,-10,-4,-3,2021-08-07 11:39:58,588233
-1,0,0,-6,0,0,-1,-1,2021-08-07 11:39:58,588233
5,2,9,29,35,15,6,2,2021-08-07 11:39:58,619232
-4,-6,-5,-8,-10,-7,-4,-4,2021-08-07 11:39:58,619232
5,9,2,-4,-6,1,2,4,2021-08-07 11:39:58,619232
-6,-7,-7,-11,-7,-3,-2,-2,2021-08-07 11:39:58,619232
3,0,0,-2,-8,-2,-1,-1,2021-08-07 11:39:58,619232
-4,-4,-7,-6,-7,-4,-2,-1,2021-08-07 11:39:58,619232
-4,-5,-5,-5,-6,-3,-3,-4,2021-08-07 11:39:58,651231
-1,1,1,5,13,4,1,0,2021-08-07 11:39:58,651231
-5,-5,-5,-4,-5,-6,-5,-5,2021-08-07 11:39:58,667233
-1,0,0,2,4,0,-2,0,2021-08-07 11:39:58,667233
-3,-4,-3,-6,-8,-3,-3,-3,2021-08-07 11:39:58,667233
3,3,2,5,1,1,2,1,2021-08-07 11:39:58,667233
0,-1,-1,-5,-6,0,-1,-1,2021-08-07 11:39:58,667233
3,0,1,1,-5,1,1,2,2021-08-07 11:39:58,667233
0,0,1,3,8,5,0,-1,2021-08-07 11:39:58,667233
0,-1,1,5,-5,-3,-3,-1,2021-08-07 11:39:58,668233
-3,-3,-5,-8,-3,-4,-2,-2,2021-08-07 11:39:58,683232
1,3,0,-6,-5,-1,-1,1,2021-08-07 11:39:58,699231
0,-3,0,6,15,9,6,2,2021-08-07 11:39:58,715232
-1,-2,0,11,-2,0,-1,-2,2021-08-07 11:39:58,715232
1,-1,-7,-24,-20,-12,-3,0,2021-08-07 11:39:58,715232
0,1,5,11,17,5,-1,2,2021-08-07 11:39:58,715232
3,1,0,-2,-3,-4,0,1,2021-08-07 11:39:58,715232
-13,-11,-10,-12,-8,-12,-13,-11,2021-08-07 11:39:58,715232
-6,-5,-5,-10,-8,-2,-2,-3,2021-08-07 11:39:58,731233
0,-1,1,6,-3,1,1,-1,2021-08-07 11:39:58,731233
4,3,2,8,13,14,12,7,2021-08-07 11:39:58,731233
7,7,5,6,9,5,5,6,2021-08-07 11:39:58,731233
-5,-3,-4,-8,-15,-18,-14,-9,2021-08-07 11:39:58,747233
-1,-2,-1,0,6,2,-2,-3,2021-08-07 11:39:58,763232
-1,2,1,4,6,4,3,1,2021-08-07 11:39:58,763232
2,2,-2,-7,-7,5,7,4,2021-08-07 11:39:58,763232
-11,-10,-9,-14,-12,-9,-5,-6,2021-08-07 11:39:58,778232
10,12,14,24,26,20,18,13,2021-08-07 11:39:58,794232
-9,-14,-9,-7,-6,-9,-12,-11,2021-08-07 11:39:58,810231
-3,-4,-6,-6,-8,-16,-16,-7,2021-08-07 11:39:58,810231
18,22,18,11,24,52,48,27,2021-08-07 11:39:58,810231
9,2,1,9,9,17,4,9,2021-08-07 11:39:58,810231
-32,-22,-19,-32,-55,-91,-85,-54,2021-08-07 11:39:58,810231
-5,-4,0,7,3,-3,-5,-4,2021-08-07 11:39:58,810231
5,-2,-5,-4,-4,3,2,6,2021-08-07 11:39:58,810231
7,2,-1,-4,-1,17,18,7,2021-08-07 11:39:58,810231
-7,3,2,-8,-7,10,14,-2,2021-08-07 11:39:58,811233
-2,-4,5,21,31,24,14,4,2021-08-07 11:39:58,811233
0,1,2,12,12,1,-1,2,2021-08-07 11:39:58,826232
-10,-10,-8,-10,-19,-26,-20,-14,2021-08-07 11:39:58,826232
10,4,2,3,10,8,8,12,2021-08-07 11:39:58,826232
2,7,5,-9,-14,-5,-2,1,2021-08-07 11:39:58,826232
1,-1,1,11,18,17,10,5,2021-08-07 11:39:58,858232
17,13,15,12,10,15,12,14,2021-08-07 11:39:58,889232
-6,-15,-11,-6,-8,6,1,2,2021-08-07 11:39:58,889232
-3,6,1,-5,-17,-33,-18,-12,2021-08-07 11:39:58,889232
-31,-22,-17,-16,-18,-34,-28,-26,2021-08-07 11:39:58,889232
-21,-17,-22,-46,-56,-40,-23,-16,2021-08-07 11:39:58,889232
22,20,27,62,79,52,32,22,2021-08-07 11:39:58,889232
20,10,9,23,37,50,38,27,2021-08-07 11:39:58,889232
9,1,-1,-4,-21,-9,-11,0,2021-08-07 11:39:58,890234
-12,-9,-10,-18,-19,-37,-25,-20,2021-08-07 11:39:58,890234
-3,-3,-4,-9,-16,11,10,7,2021-08-07 11:39:58,890234
15,10,8,-2,6,14,14,14,2021-08-07 11:39:58,890234
-3,8,5,9,1,-38,-28,-16,2021-08-07 11:39:58,921231
-15,-13,-15,-23,-21,-6,-4,-8,2021-08-07 11:39:58,937232
7,9,1,-14,-31,-10,3,7,2021-08-07 11:39:58,937232
-3,1,10,36,64,20,-2,-4,2021-08-07 11:39:58,937232
0,-3,1,0,-7,10,8,4,2021-08-07 11:39:58,937232
2,7,20,29,21,14,8,6,2021-08-07 11:39:58,937232
7,12,14,2,-10,-14,-5,0,2021-08-07 11:39:58,937232
7,19,39,57,15,10,5,3,2021-08-07 11:39:58,937232
6,10,-2,-37,1,10,10,5,2021-08-07 11:39:58,952232
-20,-39,-50,-36,-6,-12,-14,-14,2021-08-07 11:39:58,952232
-12,-30,-66,-27,-21,-13,-6,-6,2021-08-07 11:39:58,952232
-16,-22,-36,-50,-48,-20,-19,-11,2021-08-07 11:39:58,952232
-8,-33,-37,-48,-13,-3,2,2,2021-08-07 11:39:58,968233
5,20,9,-15,-28,-5,-7,-3,2021-08-07 11:39:58,968233
18,38,55,38,45,20,14,12,2021-08-07 11:39:58,968233
-13,-13,-3,27,16,10,3,-6,2021-08-07 11:39:58,968233
14,23,36,51,22,8,6,6,2021-08-07 11:39:58,984233
-9,-11,-6,-15,-22,-20,-5,-3,2021-08-07 11:39:58,984233
1,-1,12,21,17,9,4,0,2021-08-07 11:39:59,016232
4,4,0,0,2,-4,-5,-2,2021-08-07 11:39:59,016232
-4,-5,2,0,-5,1,0,-1,2021-08-07 11:39:59,016232
3,1,1,8,8,16,9,5,2021-08-07 11:39:59,016232
2,4,9,15,25,8,-1,1,2021-08-07 11:39:59,016232
-5,-8,-12,-36,-32,-13,-5,-4,2021-08-07 11:39:59,016232
-6,-6,-12,-8,-13,-3,-6,-7,2021-08-07 11:39:59,032232
6,8,15,28,36,10,6,5,2021-08-07 11:39:59,032232
0,3,-2,-9,-10,-2,-2,-2,2021-08-07 11:39:59,032232
-5,-8,-10,-28,-19,-11,-8,-5,2021-08-07 11:39:59,032232
-1,-2,1,12,0,0,2,1,2021-08-07 11:39:59,048230
0,-1,0,3,-4,-4,-4,-3,2021-08-07 11:39:59,048230
-5,-9,-6,-10,-5,0,1,-2,2021-08-07 11:39:59,048230
-1,-4,-7,-4,-10,-7,-1,-3,2021-08-07 11:39:59,048230
5,11,15,15,17,5,-1,1,2021-08-07 11:39:59,080233
0,3,2,1,8,7,-3,-1,2021-08-07 11:39:59,080233
-7,-11,-13,-18,-18,-8,1,0,2021-08-07 11:39:59,080233
3,3,2,-1,-14,-11,-4,-1,2021-08-07 11:39:59,080233
2,4,2,9,15,3,-2,-1,2021-08-07 11:39:59,096232
2,4,5,19,20,10,6,4,2021-08-07 11:39:59,112234
2,3,3,-6,-3,-1,-2,-1,2021-08-07 11:39:59,128231
-3,-3,-10,-19,-14,-9,-1,-2,2021-08-07 11:39:59,128231
-9,-9,-9,-11,-11,-5,-8,-8,2021-08-07 11:39:59,128231
1,1,1,1,4,0,1,1,2021-08-07 11:39:59,128231
1,-2,1,8,5,1,0,0,2021-08-07 11:39:59,128231
-2,-4,-2,-5,-2,0,2,1,2021-08-07 11:39:59,128231
7,13,14,12,4,4,3,4,2021-08-07 11:39:59,144233
0,3,6,10,4,2,1,-1,2021-08-07 11:39:59,144233
-8,-7,-8,-1,-4,-4,-6,-6,2021-08-07 11:39:59,144233
-3,-4,-17,-39,-29,-14,-7,-3,2021-08-07 11:39:59,144233
-5,-6,-5,-5,14,6,0,-2,2021-08-07 11:39:59,144233
0,-1,-15,-9,4,3,1,1,2021-08-07 11:39:59,144233
-3,-5,3,11,0,0,-2,0,2021-08-07 11:39:59,144233
-2,-1,-2,-4,-11,-6,-3,-2,2021-08-07 11:39:59,145232
2,4,5,8,-6,-2,0,0,2021-08-07 11:39:59,175231
-1,-1,1,-12,-13,-4,-1,-2,2021-08-07 11:39:59,175231
3,5,9,22,30,10,5,1,2021-08-07 11:39:59,175231
-1,-3,1,2,-8,-3,-2,-2,2021-08-07 11:39:59,175231
-3,-6,-8,-8,-1,-3,-2,-4,2021-08-07 11:39:59,190231
4,5,8,10,6,3,2,3,2021-08-07 11:39:59,190231
-2,-1,-7,-12,-13,-7,-3,-4,2021-08-07 11:39:59,190231
1,1,3,4,10,4,0,-2,2021-08-07 11:39:59,190231
-6,-8,-9,-9,-15,-8,-3,-5,2021-08-07 11:39:59,221232
-6,-10,-8,-10,-7,-6,-5,-3,2021-08-07 11:39:59,237232
8,8,5,4,1,3,3,4,2021-08-07 11:39:59,237232
5,4,6,17,21,13,6,5,2021-08-07 11:39:59,237232
-3,-7,-4,-7,-7,-6,-3,-2,2021-08-07 11:39:59,237232
-6,-8,0,6,-4,-4,-3,-6,2021-08-07 11:39:59,237232
0,3,7,-1,-16,-10,-2,1,2021-08-07 11:39:59,237232
1,-1,-5,10,14,10,1,2,2021-08-07 11:39:59,237232
-1,0,-5,-25,2,2,0,0,2021-08-07 11:39:59,253230
-4,-3,-5,-4,4,0,-1,-3,2021-08-07 11:39:59,253230
-2,2,17,16,9,2,1,-2,2021-08-07 11:39:59,253230
-2,-6,-18,-7,-17,-8,-3,-1,2021-08-07 11:39:59,253230
-4,-8,-19,-5,-6,-4,-3,-3,2021-08-07 11:39:59,283233
-3,-3,-9,-23,-4,-2,-1,0,2021-08-07 11:39:59,299231
-1,-1,-5,-10,-12,-4,-4,-3,2021-08-07 11:39:59,331232
-1,4,14,-1,-6,-5,-2,-2,2021-08-07 11:39:59,331232
6,9,12,21,16,9,4,4,2021-08-07 11:39:59,331232
0,4,9,22,8,2,2,-1,2021-08-07 11:39:59,331232
-4,-8,-9,-2,4,2,-1,-2,2021-08-07 11:39:59,331232
5,10,13,6,6,2,4,2,2021-08-07 11:39:59,331232
-2,-4,-4,-14,-22,-11,-4,-2,2021-08-07 11:39:59,331232
5,7,14,9,-3,0,2,3,2021-08-07 11:39:59,332233
-3,-5,-10,-1,7,0,-2,-1,2021-08-07 11:39:59,332233
-1,2,0,1,-5,-4,-1,-1,2021-08-07 11:39:59,332233
0,1,0,-1,-11,-2,1,1,2021-08-07 11:39:59,332233
-1,-4,-10,-9,7,-1,-3,-3,2021-08-07 11:39:59,332233
-4,-10,-14,-20,-4,0,0,0,2021-08-07 11:39:59,332233
0,3,12,27,34,13,4,2,2021-08-07 11:39:59,332233
2,5,10,15,1,1,1,0,2021-08-07 11:39:59,363232
-3,-5,-11,-20,-13,-1,0,-3,2021-08-07 11:39:59,363232
-12,-13,-17,-30,-21,-11,-10,-12,2021-08-07 11:39:59,363232
-6,-7,-12,-21,-22,-11,-7,-6,2021-08-07 11:39:59,363232
4,10,22,49,30,10,2,2,2021-08-07 11:39:59,363232
7,7,9,8,0,2,3,5,2021-08-07 11:39:59,363232
4,5,2,-7,-4,-1,2,4,2021-08-07 11:39:59,363232
1,-1,-3,-4,6,1,2,1,2021-08-07 11:39:59,364233
-5,-5,-5,-10,-13,-8,-5,-6,2021-08-07 11:39:59,394232
3,1,-1,1,7,7,5,5,2021-08-07 11:39:59,394232
2,2,1,15,11,3,1,1,2021-08-07 11:39:59,394232
-2,-2,-2,-10,-8,-5,-3,-1,2021-08-07 11:39:59,394232
-7,-11,-15,-22,-13,-7,-6,-5,2021-08-07 11:39:59,410233
-7,-6,-4,-7,-21,-12,-8,-6,2021-08-07 11:39:59,410233
9,14,25,29,43,23,9,8,2021-08-07 11:39:59,410233
-4,-7,-9,-11,-21,-10,-4,-4,2021-08-07 11:39:59,410233
-9,-11,-20,-32,-33,-15,-9,-5,2021-08-07 11:39:59,426233
0,0,5,-9,23,11,1,-1,2021-08-07 11:39:59,441233
8,4,2,12,4,0,4,5,2021-08-07 11:39:59,441233
-2,-3,1,10,15,5,0,-1,2021-08-07 11:39:59,457232
4,6,10,15,1,1,2,1,2021-08-07 11:39:59,473232
-4,-5,-6,-16,-32,-14,-6,-3,2021-08-07 11:39:59,489232
-6,-6,-7,-21,-22,-12,-6,-6,2021-08-07 11:39:59,489232
5,5,14,26,32,14,4,3,2021-08-07 11:39:59,489232
2,2,-2,5,13,8,1,0,2021-08-07 11:39:59,489232
1,2,-1,11,9,4,2,0,2021-08-07 11:39:59,489232
-9,-13,-26,-43,-34,-15,-9,-7,2021-08-07 11:39:59,489232
-13,-12,-15,-39,-46,-24,-12,-9,2021-08-07 11:39:59,489232
5,5,7,12,24,13,7,7,2021-08-07 11:39:59,490232
3,5,9,28,20,9,5,3,2021-08-07 11:39:59,490232
3,5,18,26,24,10,4,1,2021-08-07 11:39:59,490232
0,1,2,14,3,2,0,-2,2021-08-07 11:39:59,490232
-4,-7,-10,-15,-20,-10,-4,-4,2021-08-07 11:39:59,520234
-6,-7,-19,-39,-24,-13,-6,-4,2021-08-07 11:39:59,520234
8,12,13,21,16,7,6,7,2021-08-07 11:39:59,520234
-1,-4,-7,-6,-5,-3,-3,-3,2021-08-07 11:39:59,520234
0,0,6,8,11,2,1,1,2021-08-07 11:39:59,536233
-2,-1,3,7,-4,-6,-3,-2,2021-08-07 11:39:59,552234
-4,-6,-14,-18,-9,-4,-2,-2,2021-08-07 11:39:59,552234
3,0,-1,-1,6,3,1,1,2021-08-07 11:39:59,552234
0,2,7,13,-1,0,0,-1,2021-08-07 11:39:59,552234
8,10,20,41,30,11,5,5,2021-08-07 11:39:59,552234
-6,-7,-14,-23,-23,-8,-4,-5,2021-08-07 11:39:59,552234
-3,-5,-17,-35,-17,-8,-4,-1,2021-08-07 11:39:59,552234
-8,-8,-10,-34,-25,-13,-8,-5,2021-08-07 11:39:59,568233
1,1,3,25,23,9,2,2,2021-08-07 11:39:59,584233
2,3,5,14,5,0,1,1,2021-08-07 11:39:59,584233
0,-1,-1,-1,-10,-2,3,2,2021-08-07 11:39:59,584233
-5,-6,-5,-6,8,4,-1,-3,2021-08-07 11:39:59,600233
7,10,15,21,22,13,6,5,2021-08-07 11:39:59,600233
0,0,7,17,11,4,0,-2,2021-08-07 11:39:59,600233
5,7,11,16,10,5,4,3,2021-08-07 11:39:59,600233
0,1,2,-6,-8,-5,-3,-2,2021-08-07 11:39:59,600233
-7,-8,-13,-21,-25,-11,-6,-6,2021-08-07 11:39:59,600233
-8,-12,-23,-39,-35,-13,-7,-6,2021-08-07 11:39:59,616230
1,3,13,3,13,4,2,3,2021-08-07 11:39:59,616230
3,6,7,30,25,10,3,2,2021-08-07 11:39:59,631232
-1,-4,-3,-7,-4,-4,-3,-2,2021-08-07 11:39:59,647233
-3,-7,-14,-2,-18,-9,-5,-3,2021-08-07 11:39:59,647233
-2,1,-1,-16,1,2,-2,-2,2021-08-07 11:39:59,647233
2,0,-1,-1,-12,-5,-2,1,2021-08-07 11:39:59,647233
-4,-10,-22,-22,-1,0,-2,2,2021-08-07 11:39:59,647233
-4,-5,-4,-11,-6,-5,-5,-3,2021-08-07 11:39:59,647233
1,2,6,21,7,0,0,0,2021-08-07 11:39:59,648233
3,4,9,7,5,0,2,1,2021-08-07 11:39:59,679235
2,2,7,7,-9,-1,0,-1,2021-08-07 11:39:59,679235
1,2,6,9,12,7,2,2,2021-08-07 11:39:59,679235
-1,-2,-5,-6,1,1,0,-1,2021-08-07 11:39:59,679235
3,5,11,21,16,6,3,2,2021-08-07 11:39:59,695233
-2,-4,2,-9,-12,-7,-3,-2,2021-08-07 11:39:59,695233
-1,-5,-11,-12,-13,-7,-3,-2,2021-08-07 11:39:59,711231
-5,-7,-13,-8,2,-4,-3,-3,2021-08-07 11:39:59,711231
-1,-3,-5,-8,-6,0,0,0,2021-08-07 11:39:59,711231
3,2,1,2,10,3,2,1,2021-08-07 11:39:59,711231
-1,7,13,7,-1,0,-1,-1,2021-08-07 11:39:59,711231
-1,-1,4,18,6,1,-1,-2,2021-08-07 11:39:59,711231
-7,-12,-17,-23,-28,-15,-7,-4,2021-08-07 11:39:59,727232
1,1,-5,-26,-11,-1,2,0,2021-08-07 11:39:59,727232
-3,-6,-2,4,16,3,-2,-3,2021-08-07 11:39:59,727232
4,7,11,15,4,2,2,3,2021-08-07 11:39:59,727232
2,4,5,13,8,4,1,0,2021-08-07 11:39:59,757232
-2,-6,-8,-11,-21,-8,-3,-5,2021-08-07 11:39:59,772232
-10,-12,-15,-17,-5,-5,-4,-5,2021-08-07 11:39:59,788234
2,5,9,-2,1,1,2,0,2021-08-07 11:39:59,788234
3,3,3,14,11,4,2,1,2021-08-07 11:39:59,788234
-1,0,-4,-1,-5,-6,-2,-1,2021-08-07 11:39:59,788234
2,1,-3,5,0,2,1,0,2021-08-07 11:39:59,788234
-7,-12,-16,-29,-23,-10,-8,-5,2021-08-07 11:39:59,789232
1,1,-2,-13,1,1,0,2,2021-08-07 11:39:59,789232
-1,-1,-1,19,18,5,0,0,2021-08-07 11:39:59,789232
2,2,13,10,4,3,2,1,2021-08-07 11:39:59,789232
-1,-2,-2,7,9,2,1,-2,2021-08-07 11:39:59,789232
0,0,0,0,4,0,0,-2,2021-08-07 11:39:59,820232
-2,1,10,15,-4,-1,-3,1,2021-08-07 11:39:59,820232
6,8,10,-6,-9,-3,1,3,2021-08-07 11:39:59,820232
7,6,3,29,38,17,9,4,2021-08-07 11:39:59,820232
-13,-14,-27,-52,-30,-14,-8,-10,2021-08-07 11:39:59,836232
-1,-1,1,-1,2,0,-2,-2,2021-08-07 11:39:59,849233
4,7,12,18,2,0,3,3,2021-08-07 11:39:59,849233
-2,-2,4,6,-20,-8,-4,-3,2021-08-07 11:39:59,849233
-2,-3,-4,-9,-9,-8,-4,-3,2021-08-07 11:39:59,849233
0,-5,-4,-2,21,8,3,-1,2021-08-07 11:39:59,850233
-3,-8,-32,-32,-6,-2,-1,0,2021-08-07 11:39:59,868233
-3,-4,-1,-15,-10,-6,-6,-2,2021-08-07 11:39:59,868233
-4,-5,-1,15,6,4,-2,-2,2021-08-07 11:39:59,868233
-4,-1,2,-9,-30,-15,-7,-4,2021-08-07 11:39:59,868233
9,10,22,39,40,18,8,6,2021-08-07 11:39:59,868233
3,3,2,5,7,2,1,2,2021-08-07 11:39:59,868233
-3,-2,5,-4,-8,-4,-4,-2,2021-08-07 11:39:59,900231
1,4,5,1,-2,-1,0,1,2021-08-07 11:39:59,900231
-3,1,3,7,11,4,-1,-3,2021-08-07 11:39:59,900231
-5,-5,-10,-24,-26,-12,-5,-4,2021-08-07 11:39:59,900231
1,3,8,19,19,9,5,2,2021-08-07 11:39:59,900231
-4,-5,-5,10,16,-1,-1,-3,2021-08-07 11:39:59,900231
4,5,-2,-16,-22,-7,0,1,2021-08-07 11:39:59,916233
-1,-4,-4,-8,0,-2,-2,-2,2021-08-07 11:39:59,916233
-5,-8,-23,-29,-10,-5,-4,-3,2021-08-07 11:39:59,932232
-2,0,2,12,21,7,3,0,2021-08-07 11:39:59,948233
-1,-3,8,6,-3,-2,-4,-3,2021-08-07 11:39:59,948233
6,9,14,19,6,6,4,3,2021-08-07 11:39:59,948233
4,6,12,23,0,0,0,3,2021-08-07 11:39:59,948233
-4,-9,-23,-46,-28,-10,-6,-5,2021-08-07 11:39:59,948233
-7,-7,-2,-17,1,-3,-5,-4,2021-08-07 11:39:59,949232
1,-3,-10,4,4,3,3,1,2021-08-07 11:39:59,949232
1,1,5,9,5,2,2,1,2021-08-07 11:39:59,964232
3,6,14,28,9,4,3,1,2021-08-07 11:39:59,964232
0,0,-9,-9,-16,-4,-1,-1,2021-08-07 11:39:59,979231
-10,-11,-12,-32,-17,-10,-8,-8,2021-08-07 11:39:59,979231
4,5,9,18,20,8,4,4,2021-08-07 11:40:00,011270
-1,-3,-2,-2,-6,-1,-2,-2,2021-08-07 11:40:00,027272
1,3,8,6,-2,0,1,1,2021-08-07 11:40:00,027272
-1,-1,-3,-5,-7,-4,-4,-1,2021-08-07 11:40:00,027272
2,2,7,15,18,5,2,2,2021-08-07 11:40:00,027272
-3,-5,-8,-9,-8,-2,-3,-3,2021-08-07 11:40:00,027272
-6,-8,-9,-8,2,-4,-3,-5,2021-08-07 11:40:00,028273
-3,-2,-5,-4,-9,-4,-2,-3,2021-08-07 11:40:00,028273
-5,-8,-13,-25,-26,-12,-6,-4,2021-08-07 11:40:00,028273
9,11,9,-4,1,4,4,6,2021-08-07 11:40:00,028273
0,0,1,14,13,5,2,0,2021-08-07 11:40:00,028273
0,0,1,4,-8,-4,-1,-1,2021-08-07 11:40:00,028273
3,5,9,13,13,6,3,0,2021-08-07 11:40:00,059273
-1,2,7,20,18,7,1,1,2021-08-07 11:40:00,075272
4,7,4,8,-4,-1,1,4,2021-08-07 11:40:00,107272
0,1,5,-1,2,1,1,-1,2021-08-07 11:40:00,107272
-10,-12,-23,-28,-26,-13,-9,-7,2021-08-07 11:40:00,107272
-3,-7,-3,-21,-15,-9,-4,-3,2021-08-07 11:40:00,107272
-3,-11,-32,-21,-6,-2,-3,-2,2021-08-07 11:40:00,107272
1,-1,-5,0,-1,-2,-1,1,2021-08-07 11:40:00,123272
-2,2,9,13,13,5,1,-1,2021-08-07 11:40:00,139272
1,4,9,11,9,1,1,0,2021-08-07 11:40:00,155274
0,0,7,8,1,3,1,-1,2021-08-07 11:40:00,155274
1,3,6,9,7,3,2,1,2021-08-07 11:40:00,155274
-1,-3,-4,-13,-12,-4,-3,-3,2021-08-07 11:40:00,155274
-1,0,-1,2,-3,-1,0,-2,2021-08-07 11:40:00,155274
2,0,5,-3,-5,-2,0,-1,2021-08-07 11:40:00,155274
-2,-3,-6,-5,-1,-3,-2,-3,2021-08-07 11:40:00,155274
4,4,6,10,7,5,2,3,2021-08-07 11:40:00,156273
-1,-1,-8,-7,-7,-4,-2,0,2021-08-07 11:40:00,156273
4,4,3,7,15,9,6,1,2021-08-07 11:40:00,156273
-5,-8,-9,-14,-5,-2,-4,-7,2021-08-07 11:40:00,156273
-9,-8,-3,-14,-22,-12,-10,-7,2021-08-07 11:40:00,156273
-1,3,6,16,11,0,1,-1,2021-08-07 11:40:00,156273
0,5,6,5,-4,1,0,1,2021-08-07 11:40:00,156273
2,2,3,9,11,2,-1,1,2021-08-07 11:40:00,157273
5,7,5,1,7,2,3,3,2021-08-07 11:40:00,171272
-5,-6,-4,-11,-17,-6,-3,-2,2021-08-07 11:40:00,171272
-3,-4,-3,-7,-6,-6,-3,-2,2021-08-07 11:40:00,171272
0,0,-2,6,-4,-1,1,-1,2021-08-07 11:40:00,171272
3,9,12,1,-2,0,2,4,2021-08-07 11:40:00,202271
4,3,4,12,29,12,4,4,2021-08-07 11:40:00,202271
-8,-13,-10,-8,-6,-4,-3,-4,2021-08-07 11:40:00,202271
-7,-14,-33,-40,-18,-10,-5,-4,2021-08-07 11:40:00,202271
-4,-4,-10,-10,-13,-8,-4,-3,2021-08-07 11:40:00,234271
-1,3,4,6,0,1,-1,-1,2021-08-07 11:40:00,234271
6,11,25,28,14,5,2,2,2021-08-07 11:40:00,234271
2,7,14,15,4,4,1,0,2021-08-07 11:40:00,234271
-1,-3,-3,-4,-4,-4,-1,-3,2021-08-07 11:40:00,234271
0,-1,-3,-5,-10,-5,-3,-1,2021-08-07 11:40:00,234271
0,-1,0,-6,-8,-3,-1,-1,2021-08-07 11:40:00,235272
3,5,11,20,16,7,3,2,2021-08-07 11:40:00,235272
1,2,-2,9,19,7,4,2,2021-08-07 11:40:00,250272
-7,-12,-21,-42,-23,-11,-7,-6,2021-08-07 11:40:00,266273
-13,-15,-28,-42,-33,-18,-12,-9,2021-08-07 11:40:00,266273
-4,-5,-2,-7,-9,-4,-4,-1,2021-08-07 11:40:00,266273
0,0,-3,12,16,7,3,1,2021-08-07 11:40:00,266273
8,8,13,32,20,11,5,6,2021-08-07 11:40:00,266273
3,4,14,23,20,7,3,-1,2021-08-07 11:40:00,282273
0,-1,-4,-9,-6,-4,-1,-1,2021-08-07 11:40:00,282273
0,0,4,11,-1,-2,-2,-1,2021-08-07 11:40:00,298271
-4,-3,-1,-5,-8,-2,-1,-1,2021-08-07 11:40:00,298271
4,8,2,7,7,4,3,2,2021-08-07 11:40:00,298271
-2,1,7,12,13,4,1,0,2021-08-07 11:40:00,298271
-9,-12,-14,-32,-26,-11,-6,-6,2021-08-07 11:40:00,314271
-4,-10,-18,-31,-22,-8,-4,-5,2021-08-07 11:40:00,318789
-1,-4,-6,5,10,-3,-4,-2,2021-08-07 11:40:00,318789
2,4,4,18,1,2,0,3,2021-08-07 11:40:00,319788
5,7,10,18,25,10,5,5,2021-08-07 11:40:00,345789
0,-1,5,-5,-10,-3,-1,-3,2021-08-07 11:40:00,345789
-1,3,7,-2,-1,0,1,-1,2021-08-07 11:40:00,345789
-1,-4,0,3,2,1,-1,2,2021-08-07 11:40:00,345789
-1,-6,-16,-25,-17,-5,-3,-1,2021-08-07 11:40:00,345789
-1,-3,-8,-6,4,-2,-2,0,2021-08-07 11:40:00,345789
3,4,0,10,7,4,1,2,2021-08-07 11:40:00,345789
2,4,9,10,0,0,2,0,2021-08-07 11:40:00,346789
-1,-2,2,8,-1,0,-2,-4,2021-08-07 11:40:00,377789
-3,-4,-5,-15,-5,-2,-2,-1,2021-08-07 11:40:00,393788
-3,-2,-5,-5,-4,-4,-2,-2,2021-08-07 11:40:00,393788
2,2,3,0,5,3,1,1,2021-08-07 11:40:00,393788
0,-3,2,4,-2,-2,-1,-2,2021-08-07 11:40:00,393788
-5,-6,-13,-9,-13,-8,-4,-6,2021-08-07 11:40:00,393788
-2,-1,-2,-6,-8,-4,-2,-1,2021-08-07 11:40:00,393788
2,5,8,12,15,5,1,0,2021-08-07 11:40:00,394790
-1,2,4,0,11,1,0,-2,2021-08-07 11:40:00,408788
3,4,5,26,13,8,4,3,2021-08-07 11:40:00,408788
-4,-10,-12,-26,-9,-5,-3,-2,2021-08-07 11:40:00,408788
-3,-4,-3,-4,-4,-2,-3,-3,2021-08-07 11:40:00,408788
-2,1,5,-2,-12,-8,-4,-2,2021-08-07 11:40:00,440787
2,5,18,22,3,1,1,1,2021-08-07 11:40:00,440787
5,1,-12,-3,1,4,3,3,2021-08-07 11:40:00,440787
-8,-16,-24,-50,-18,-12,-8,-5,2021-08-07 11:40:00,440787
-2,-4,-6,2,1,0,-1,-2,2021-08-07 11:40:00,455789
-1,4,4,18,11,4,3,1,2021-08-07 11:40:00,455789
1,4,14,17,-6,-2,-1,0,2021-08-07 11:40:00,455789
5,5,6,7,0,2,3,2,2021-08-07 11:40:00,455789
-6,-6,2,7,-2,-2,-3,-3,2021-08-07 11:40:00,471789
6,8,11,-2,-2,2,2,7,2021-08-07 11:40:00,471789
4,6,7,15,21,11,5,3,2021-08-07 11:40:00,502788
-3,-7,-20,-27,-14,-5,-4,-5,2021-08-07 11:40:00,518787
-8,-11,-16,-23,-17,-13,-6,-6,2021-08-07 11:40:00,534789
-4,-5,-5,-3,-8,-6,-5,-4,2021-08-07 11:40:00,550789
-2,-3,2,-9,-3,-4,-2,-4,2021-08-07 11:40:00,550789
1,4,8,12,-3,0,0,0,2021-08-07 11:40:00,550789
4,4,2,4,9,7,4,3,2021-08-07 11:40:00,550789
-1,-3,-9,-18,-32,-14,-5,-3,2021-08-07 11:40:00,550789
8,10,20,44,56,23,8,6,2021-08-07 11:40:00,550789
2,6,18,29,12,5,2,0,2021-08-07 11:40:00,550789
5,8,14,15,14,7,4,3,2021-08-07 11:40:00,550789
-8,-16,-18,-23,-10,-7,-5,-6,2021-08-07 11:40:00,551789
-14,-19,-46,-58,-51,-23,-12,-10,2021-08-07 11:40:00,551789
-13,-14,2,-46,-32,-17,-10,-8,2021-08-07 11:40:00,551789
4,6,-18,22,26,12,6,5,2021-08-07 11:40:00,551789
9,13,20,32,22,14,6,5,2021-08-07 11:40:00,551789
0,0,7,12,7,2,0,0,2021-08-07 11:40:00,551789
4,5,1,13,10,3,1,3,2021-08-07 11:40:00,551789
-1,1,13,-5,-9,-5,-2,-1,2021-08-07 11:40:00,582788
1,4,9,24,25,8,2,0,2021-08-07 11:40:00,598787
-5,-8,-13,-16,-17,-4,-2,-3,2021-08-07 11:40:00,630789
-10,-9,-19,-35,-28,-14,-8,-5,2021-08-07 11:40:00,646787
-5,-7,-5,-16,-3,0,-3,0,2021-08-07 11:40:00,646787
0,1,-10,-13,-6,-3,-1,-2,2021-08-07 11:40:00,646787
7,14,36,50,29,13,7,7,2021-08-07 11:40:00,646787
1,-1,3,29,9,5,2,0,2021-08-07 11:40:00,646787
2,1,-7,-2,-9,-1,2,1,2021-08-07 11:40:00,646787
-4,-7,-13,-29,-12,-7,-5,-3,2021-08-07 11:40:00,646787
-2,-2,1,-18,-17,-9,-4,-3,2021-08-07 11:40:00,646787
-1,2,-4,-4,-6,-4,-3,-2,2021-08-07 11:40:00,646787
2,1,16,28,28,9,2,-1,2021-08-07 11:40:00,646787
1,-1,-3,3,-5,3,1,2,2021-08-07 11:40:00,647790
-8,-14,-37,-55,-17,-12,-8,-6,2021-08-07 11:40:00,647790
0,1,4,11,8,5,1,1,2021-08-07 11:40:00,647790
0,2,-1,-3,-8,-5,-3,-2,2021-08-07 11:40:00,647790
-1,-2,6,11,2,1,-1,0,2021-08-07 11:40:00,647790
6,9,17,19,9,5,4,3,2021-08-07 11:40:00,662789
0,-2,-7,-13,-9,-3,-1,-2,2021-08-07 11:40:00,678789
-2,2,7,5,0,0,-1,0,2021-08-07 11:40:00,694788
-1,-1,-2,4,10,3,1,-1,2021-08-07 11:40:00,710792
-6,-7,-12,-8,-20,-11,-5,-4,2021-08-07 11:40:00,710792
-1,-1,-2,10,12,3,-1,-2,2021-08-07 11:40:00,710792
0,0,-2,-12,1,2,0,0,2021-08-07 11:40:00,710792
-4,-5,-6,-6,-2,-3,-3,-3,2021-08-07 11:40:00,710792
-5,-3,-1,-20,-25,-12,-6,-3,2021-08-07 11:40:00,710792
0,1,5,10,-1,2,1,0,2021-08-07 11:40:00,710792
2,3,-4,5,19,7,4,3,2021-08-07 11:40:00,711790
4,6,14,42,40,16,7,4,2021-08-07 11:40:00,711790
-1,-2,6,16,2,1,0,-1,2021-08-07 11:40:00,711790
-3,-3,-12,-33,-21,-8,-4,-1,2021-08-07 11:40:00,711790
-6,-9,-13,-22,-23,-11,-6,-3,2021-08-07 11:40:00,742791
2,5,2,-13,-2,-3,1,0,2021-08-07 11:40:00,753787
3,6,15,22,14,5,2,1,2021-08-07 11:40:00,753787
1,-1,-4,12,2,-1,0,0,2021-08-07 11:40:00,753787
-6,-9,-14,-33,-30,-13,-7,-4,2021-08-07 11:40:00,753787
3,6,6,10,26,8,3,1,2021-08-07 11:40:00,753787
-2,-2,-2,-4,-2,1,0,-2,2021-08-07 11:40:00,754790
1,4,8,4,0,-1,-1,1,2021-08-07 11:40:00,754790
4,5,12,39,30,11,6,3,2021-08-07 11:40:00,774789
-6,-7,-9,-15,-22,-10,-6,-7,2021-08-07 11:40:00,774789
-3,-3,-10,-21,-6,-2,-2,-3,2021-08-07 11:40:00,774789
1,-1,-9,-8,2,-1,-1,-2,2021-08-07 11:40:00,774789
-2,2,6,9,0,0,-1,-2,2021-08-07 11:40:00,805790
-3,-2,-3,-17,-11,-5,-2,-1,2021-08-07 11:40:00,821789
-4,-4,1,1,2,-1,0,0,2021-08-07 11:40:00,852789
5,8,8,18,10,6,6,2,2021-08-07 11:40:00,868789
1,0,-2,-3,-14,-5,-2,0,2021-08-07 11:40:00,868789
-3,-6,-18,-31,-16,-6,-4,-2,2021-08-07 11:40:00,868789
-2,-1,2,-1,-8,-5,-3,-4,2021-08-07 11:40:00,868789
0,-2,3,12,13,2,-1,-2,2021-08-07 11:40:00,868789
2,4,11,20,18,9,4,2,2021-08-07 11:40:00,868789
0,1,6,0,-6,-2,-2,0,2021-08-07 11:40:00,868789
-5,-8,-19,-25,-19,-9,-3,-5,2021-08-07 11:40:00,868789
-3,-5,-3,-7,0,0,-2,-3,2021-08-07 11:40:00,869789
-2,-1,-1,-9,-15,-7,-3,-3,2021-08-07 11:40:00,869789
1,0,-5,21,20,8,2,0,2021-08-07 11:40:00,869789
-1,0,1,-5,-9,-5,-3,-1,2021-08-07 11:40:00,869789
10,14,16,43,62,30,14,10,2021-08-07 11:40:00,869789
-9,-11,-16,-35,-39,-17,-10,-6,2021-08-07 11:40:00,869789
-3,-6,-3,-28,-17,-6,-4,-2,2021-08-07 11:40:00,869789
5,7,2,21,15,3,3,3,2021-08-07 11:40:00,884790
-5,-8,-5,-16,-11,-7,-5,-5,2021-08-07 11:40:00,884790
-2,-6,2,-1,1,-1,0,-3,2021-08-07 11:40:00,884790
-1,2,2,20,4,1,-1,0,2021-08-07 11:40:00,900788
3,1,-3,2,0,3,1,2,2021-08-07 11:40:00,900788
-1,0,2,-2,-12,-4,-3,0,2021-08-07 11:40:00,900788
2,5,8,12,18,5,0,1,2021-08-07 11:40:00,916790
-6,-6,-6,-6,-9,-6,-3,-5,2021-08-07 11:40:00,916790
-5,-6,-9,-19,-2,-3,-2,-2,2021-08-07 11:40:00,916790
-1,0,-4,-8,-6,-2,0,0,2021-08-07 11:40:00,916790
-3,-7,-3,-8,-11,-5,-3,-3,2021-08-07 11:40:00,932788
5,8,11,15,4,3,4,5,2021-08-07 11:40:00,932788
3,4,5,22,26,11,4,4,2021-08-07 11:40:00,932788
-5,-5,-6,0,-8,-3,-1,-3,2021-08-07 11:40:00,932788
-6,-8,-9,-26,-27,-15,-8,-8,2021-08-07 11:40:00,948793
-9,-9,-11,-18,-20,-9,-7,-7,2021-08-07 11:40:00,948793
2,1,6,-1,27,10,0,0,2021-08-07 11:40:00,964789
-2,0,3,6,-10,-6,-4,-3,2021-08-07 11:40:00,964789
6,9,3,25,32,12,7,6,2021-08-07 11:40:00,980788
-1,-3,-7,-21,-42,-15,-4,-4,2021-08-07 11:40:00,996789
-7,-12,-8,-24,-19,-11,-8,-6,2021-08-07 11:40:00,996789
2,2,-2,-8,4,3,3,2,2021-08-07 11:40:00,996789
5,5,4,20,19,9,2,4,2021-08-07 11:40:00,996789
2,3,5,18,14,6,2,1,2021-08-07 11:40:00,996789
1,4,7,16,3,3,3,1,2021-08-07 11:40:00,996789
-4,-7,-1,-5,-10,-7,-5,-5,2021-08-07 11:40:00,996789
-3,-3,-6,-12,-14,-6,-1,-2,2021-08-07 11:40:01,012790
0,-3,-11,-14,-1,1,0,1,2021-08-07 11:40:01,028789
-10,-11,-15,-21,-22,-9,-7,-8,2021-08-07 11:40:01,044825
0,4,12,10,10,-1,-1,0,2021-08-07 11:40:01,044825
4,2,-9,3,2,4,5,4,2021-08-07 11:40:01,044825
0,1,8,3,14,3,-1,-3,2021-08-07 11:40:01,044825
2,5,7,14,-3,-1,1,0,2021-08-07 11:40:01,044825
1,2,-1,7,-1,1,1,1,2021-08-07 11:40:01,044825
-10,-18,-27,-55,-43,-23,-11,-9,2021-08-07 11:40:01,060824
-3,-3,-12,-8,5,1,-2,1,2021-08-07 11:40:01,060824
3,5,9,26,27,8,3,2,2021-08-07 11:40:01,060824
-1,-2,-1,4,-1,-3,-2,-3,2021-08-07 11:40:01,060824
7,9,14,22,10,10,4,2,2021-08-07 11:40:01,076824
0,1,0,-11,-10,-5,-1,1,2021-08-07 11:40:01,092824
0,3,3,-1,-5,-1,0,-1,2021-08-07 11:40:01,092824
-6,-9,-8,-7,-6,-4,-4,-4,2021-08-07 11:40:01,092824
-4,-3,-9,-18,-19,-9,-5,-1,2021-08-07 11:40:01,092824
1,3,12,21,20,9,4,2,2021-08-07 11:40:01,092824
10,14,12,18,11,10,6,7,2021-08-07 11:40:01,092824
-2,-3,-9,-11,0,-3,-2,-1,2021-08-07 11:40:01,092824
-12,-19,-18,-29,-17,-8,-8,-10,2021-08-07 11:40:01,124826
0,2,6,-1,-3,-3,-2,0,2021-08-07 11:40:01,124826
-1,-1,-4,-3,-7,-5,-1,-1,2021-08-07 11:40:01,124826
4,2,3,9,3,3,2,2,2021-08-07 11:40:01,124826
3,5,15,9,9,4,2,1,2021-08-07 11:40:01,124826
3,4,12,28,16,7,4,2,2021-08-07 11:40:01,124826
-6,-11,-16,-20,-25,-13,-7,-5,2021-08-07 11:40:01,156825
-6,-12,-21,-44,-26,-11,-7,-5,2021-08-07 11:40:01,156825
1,1,1,21,39,13,5,3,2021-08-07 11:40:01,156825
-3,-5,-16,-8,-2,0,-1,-2,2021-08-07 11:40:01,156825
2,4,13,18,2,0,1,0,2021-08-07 11:40:01,156825
-2,0,-3,-5,0,0,-2,-1,2021-08-07 11:40:01,156825
0,3,7,5,-2,-2,1,0,2021-08-07 11:40:01,172825
1,0,1,-4,-8,-6,-3,-2,2021-08-07 11:40:01,172825
4,3,6,1,-2,0,0,1,2021-08-07 11:40:01,172825
1,-1,1,14,10,4,0,-1,2021-08-07 11:40:01,172825
-2,-4,-11,-17,-9,-5,-2,-3,2021-08-07 11:40:01,188824
0,0,8,7,0,-1,-1,0,2021-08-07 11:40:01,188824
-4,-2,-7,-27,-24,-11,-6,-4,2021-08-07 11:40:01,195825
2,4,7,10,10,3,3,1,2021-08-07 11:40:01,195825
-3,-4,-4,-2,0,-1,-2,-2,2021-08-07 11:40:01,220826
-3,-1,-2,-2,5,1,-2,-3,2021-08-07 11:40:01,235824
-2,-4,-2,3,-2,0,-3,-1,2021-08-07 11:40:01,267342
-4,-5,-11,-13,-11,-6,-2,-2,2021-08-07 11:40:01,267342
5,7,8,8,-3,0,0,4,2021-08-07 11:40:01,267342
2,0,-2,-4,-3,-1,1,-1,2021-08-07 11:40:01,267342
1,6,13,24,22,10,1,1,2021-08-07 11:40:01,267342
-1,2,5,7,-11,-2,-3,-1,2021-08-07 11:40:01,267342
-2,-6,-12,-8,18,7,3,-2,2021-08-07 11:40:01,267342
-9,-15,-25,-32,-19,-10,-6,-5,2021-08-07 11:40:01,268342
0,2,-2,-14,-7,-1,1,1,2021-08-07 11:40:01,268342
5,8,15,23,16,5,2,4,2021-08-07 11:40:01,268342
0,3,5,23,13,5,0,2,2021-08-07 11:40:01,268342
6,6,8,13,11,7,4,4,2021-08-07 11:40:01,268342
-7,-15,-20,-16,-2,-4,-4,-7,2021-08-07 11:40:01,268342
-5,-7,-8,-14,-14,-7,-4,-3,2021-08-07 11:40:01,268342
-2,0,2,-4,-10,-5,-3,-1,2021-08-07 11:40:01,298340
-3,-3,-6,-15,-10,-5,-4,-2,2021-08-07 11:40:01,314340
1,2,4,9,6,3,2,1,2021-08-07 11:40:01,330340
3,8,11,6,1,2,2,2,2021-08-07 11:40:01,345342
4,6,17,39,38,17,7,3,2021-08-07 11:40:01,345342
-4,-7,-4,-11,-11,-6,-3,-3,2021-08-07 11:40:01,345342
-6,-8,-19,-26,-16,-8,-6,-6,2021-08-07 11:40:01,345342
-6,-9,-10,-17,-14,-8,-6,-5,2021-08-07 11:40:01,345342
-4,-3,-4,-5,-20,-8,-6,-4,2021-08-07 11:40:01,346341
10,12,24,31,30,14,9,7,2021-08-07 11:40:01,346341
1,2,4,0,-4,0,0,-1,2021-08-07 11:40:01,346341
-4,-5,-8,-20,-11,-6,-3,-2,2021-08-07 11:40:01,346341
-2,-6,-17,-16,-3,-2,-2,2,2021-08-07 11:40:01,361340
-1,0,5,-2,-5,-4,-4,-2,2021-08-07 11:40:01,361340
0,-3,-8,5,10,3,0,1,2021-08-07 11:40:01,361340
0,3,8,10,-11,-4,0,-2,2021-08-07 11:40:01,361340
0,1,5,-7,-8,-3,-1,-2,2021-08-07 11:40:01,377341
9,6,9,45,44,20,10,6,2021-08-07 11:40:01,393340
1,2,0,-17,-6,-3,0,2,2021-08-07 11:40:01,409342
0,-3,0,7,5,0,-3,0,2021-08-07 11:40:01,409342
-2,-3,-13,-25,-23,-11,-4,-3,2021-08-07 11:40:01,409342
-2,-1,-8,-15,-19,-7,-5,-3,2021-08-07 11:40:01,409342
-3,-5,-1,6,5,0,-3,-3,2021-08-07 11:40:01,409342
5,5,2,6,11,5,3,2,2021-08-07 11:40:01,409342
-3,-4,0,-2,-7,-5,-2,-3,2021-08-07 11:40:01,410342
-4,-2,-4,-14,-21,-10,-5,-4,2021-08-07 11:40:01,410342
4,7,16,39,46,17,7,5,2021-08-07 11:40:01,410342
-2,-6,-11,-19,-6,0,0,0,2021-08-07 11:40:01,410342
-4,-4,-7,-1,7,0,-2,-1,2021-08-07 11:40:01,441340
-3,-3,1,-5,-19,-7,-4,-1,2021-08-07 11:40:01,441340
-2,-3,-7,-6,-19,-8,-3,0,2021-08-07 11:40:01,441340
0,-1,3,15,19,7,3,1,2021-08-07 11:40:01,457339
2,2,3,2,11,4,1,1,2021-08-07 11:40:01,457339
-3,-6,-7,-13,-13,-6,-2,-2,2021-08-07 11:40:01,457339
1,5,6,0,-5,-4,0,0,2021-08-07 11:40:01,457949
-2,-2,0,-7,-9,-2,-2,0,2021-08-07 11:40:01,457949
3,5,16,17,15,6,2,2,2021-08-07 11:40:01,487371
-1,-2,-2,17,15,4,2,1,2021-08-07 11:40:01,503370
1,3,7,7,-1,-1,-1,-1,2021-08-07 11:40:01,519372
-4,-5,-19,-27,-20,-9,-6,-4,2021-08-07 11:40:01,519372
-6,-12,-23,-32,-25,-10,-6,-5,2021-08-07 11:40:01,519372
-5,-3,-2,-6,-2,-4,-6,-4,2021-08-07 11:40:01,519372
-4,-3,-1,1,-3,-1,-1,-3,2021-08-07 11:40:01,519372
0,2,10,13,8,2,0,0,2021-08-07 11:40:01,519372
2,5,8,11,-6,-1,-1,1,2021-08-07 11:40:01,519372
4,4,8,11,10,6,4,1,2021-08-07 11:40:01,520372
-1,-3,-2,2,1,0,-1,-1,2021-08-07 11:40:01,520372
-6,-5,-13,-16,-12,-3,-4,-5,2021-08-07 11:40:01,520372
-2,-3,-1,-3,6,2,-2,0,2021-08-07 11:40:01,535371
3,6,11,29,21,4,2,1,2021-08-07 11:40:01,551372
5,7,9,14,3,1,2,3,2021-08-07 11:40:01,567370
-2,-5,-15,-16,-8,-5,-2,-4,2021-08-07 11:40:01,567370
-3,-3,-8,-31,-27,-11,-4,-4,2021-08-07 11:40:01,567370
-1,-1,-7,-12,0,2,-1,-1,2021-08-07 11:40:01,567370
-3,-6,-7,-5,-1,0,0,0,2021-08-07 11:40:01,567370
-4,-8,-11,-10,-5,-6,-3,-5,2021-08-07 11:40:01,567370
3,1,7,12,3,3,2,0,2021-08-07 11:40:01,567370
-3,-3,1,-15,-19,-9,-4,-3,2021-08-07 11:40:01,568371
2,1,-6,7,15,7,2,-1,2021-08-07 11:40:01,583372
5,7,8,9,3,1,2,2,2021-08-07 11:40:01,583372
1,0,7,9,0,0,0,2,2021-08-07 11:40:01,615371
-5,-4,-6,-7,-7,-5,-4,-3,2021-08-07 11:40:01,631371
0,-1,-2,-16,-16,-6,-2,-2,2021-08-07 11:40:01,631371
2,2,1,-1,9,6,2,3,2021-08-07 11:40:01,631371
4,3,9,26,19,5,3,2,2021-08-07 11:40:01,631371
1,2,6,8,7,2,2,1,2021-08-07 11:40:01,632371
-2,-3,-7,-13,-16,-7,-5,-1,2021-08-07 11:40:01,632371
-1,1,5,10,5,-1,0,-2,2021-08-07 11:40:01,632371
-1,2,-1,8,5,4,-1,0,2021-08-07 11:40:01,632371
0,-5,-19,-29,-3,1,1,-1,2021-08-07 11:40:01,643370
-8,-12,-9,-30,-20,-13,-8,-5,2021-08-07 11:40:01,643370
-3,-2,5,4,1,-1,-2,-2,2021-08-07 11:40:01,643370
2,-1,-2,16,12,3,1,1,2021-08-07 11:40:01,663371
2,1,-6,2,-4,1,1,3,2021-08-07 11:40:01,679369
5,6,10,19,16,5,3,1,2021-08-07 11:40:01,679601
-1,-1,4,-5,-6,-2,0,0,2021-08-07 11:40:01,679601
-1,3,0,8,8,4,2,1,2021-08-07 11:40:01,679601
-1,1,1,0,3,1,-1,1,2021-08-07 11:40:01,679601
-2,-1,11,9,2,0,0,-1,2021-08-07 11:40:01,679601
1,-2,-12,7,14,7,2,0,2021-08-07 11:40:01,680371
-3,-3,-6,-17,-10,-4,-1,-4,2021-08-07 11:40:01,694888
-2,-2,-7,-13,-12,-4,-1,-3,2021-08-07 11:40:01,694888
-7,-11,-15,-37,-23,-11,-7,-3,2021-08-07 11:40:01,694888
2,4,10,20,23,5,0,1,2021-08-07 11:40:01,694888
0,0,4,-4,-2,0,0,-1,2021-08-07 11:40:01,710886
7,10,18,29,10,2,1,4,2021-08-07 11:40:01,710886
2,0,0,12,-7,-1,0,0,2021-08-07 11:40:01,710886
-2,-7,-12,-5,18,8,4,1,2021-08-07 11:40:01,710886
-4,-3,-3,-15,-9,-7,-5,-2,2021-08-07 11:40:01,742888
-6,-5,-10,0,2,1,-1,-3,2021-08-07 11:40:01,742888
-5,-6,-10,-10,-8,-4,-4,-4,2021-08-07 11:40:01,742888
-10,-11,-8,-26,-32,-16,-10,-10,2021-08-07 11:40:01,742888
1,5,6,3,-2,-1,-2,-1,2021-08-07 11:40:01,758888
0,3,8,3,-4,-3,-2,-2,2021-08-07 11:40:01,758888
3,3,4,14,6,4,2,2,2021-08-07 11:40:01,758888
3,3,2,9,8,4,2,3,2021-08-07 11:40:01,758888
-2,-3,-6,-15,3,-1,3,0,2021-08-07 11:40:01,774888
-1,-1,-8,-15,-12,-6,-5,0,2021-08-07 11:40:01,774888
-2,-4,-1,9,5,-1,-1,-1,2021-08-07 11:40:01,774888
6,8,14,6,4,3,2,3,2021-08-07 11:40:01,774888
2,3,4,16,4,4,2,1,2021-08-07 11:40:01,806887
-3,-5,-12,-16,-4,-2,-3,-3,2021-08-07 11:40:01,822889
-4,-2,-4,-20,-13,-7,-5,-4,2021-08-07 11:40:01,822889
-1,1,9,7,-9,-5,-2,-3,2021-08-07 11:40:01,837888
-3,-11,-29,-23,-15,-7,-3,-4,2021-08-07 11:40:01,869888
-2,-3,2,5,25,8,2,-1,2021-08-07 11:40:01,885888
-2,-1,-10,11,3,0,-1,-2,2021-08-07 11:40:01,901888
3,5,4,4,-4,-3,2,3,2021-08-07 11:40:01,917887
2,5,18,15,-1,0,-3,0,2021-08-07 11:40:01,933888
0,-1,7,-9,-15,-7,-2,-1,2021-08-07 11:40:01,933888
2,-2,-8,15,23,11,6,4,2021-08-07 11:40:01,933888
-6,-8,-12,-18,-17,-10,-5,-5,2021-08-07 11:40:01,933888
-3,-3,-3,-11,-22,-11,-5,-2,2021-08-07 11:40:01,933888
-2,-2,-1,-4,1,3,1,1,2021-08-07 11:40:01,933888
-3,-2,0,-11,1,0,-1,-3,2021-08-07 11:40:01,934889
2,3,3,19,14,4,1,1,2021-08-07 11:40:01,934889
-1,-2,-2,-4,1,-1,-1,-3,2021-08-07 11:40:01,934889
1,1,4,16,7,0,0,-1,2021-08-07 11:40:01,934889
3,2,-3,-10,-9,-2,-1,2,2021-08-07 11:40:01,934889
-2,-4,0,8,5,0,-3,-4,2021-08-07 11:40:01,934889
-3,-2,-7,-10,-12,-6,-4,-2,2021-08-07 11:40:01,934889
0,0,0,-9,-14,-8,-4,0,2021-08-07 11:40:01,934889
3,4,11,16,12,5,3,1,2021-08-07 11:40:01,934889
0,2,4,4,15,5,2,1,2021-08-07 11:40:01,934889
1,0,0,5,3,3,3,2,2021-08-07 11:40:01,949889
-3,-2,-8,-8,-7,-4,-1,-1,2021-08-07 11:40:01,949889
-1,1,3,-1,0,-3,-2,-2,2021-08-07 11:40:01,949889
0,1,1,-6,-12,-3,-1,0,2021-08-07 11:40:01,949889
2,2,6,19,18,7,2,2,2021-08-07 11:40:01,965888
-5,-10,-17,-25,-21,-9,-3,-6,2021-08-07 11:40:01,965888
-6,-5,0,-24,-22,-9,-6,-4,2021-08-07 11:40:01,965888
3,3,-2,14,24,7,4,1,2021-08-07 11:40:01,965888
2,3,8,13,11,6,3,3,2021-08-07 11:40:01,965888
3,1,2,7,9,6,3,1,2021-08-07 11:40:01,965888
3,5,14,19,7,0,1,0,2021-08-07 11:40:01,966889
-7,-9,-20,-25,-27,-13,-7,-7,2021-08-07 11:40:01,966889
-5,-5,-12,-32,-25,-9,-4,-3,2021-08-07 11:40:01,981888
3,4,12,29,37,15,3,5,2021-08-07 11:40:01,997889
0,2,7,10,-2,2,0,0,2021-08-07 11:40:02,013888
-5,-7,0,-12,-7,-3,-2,-3,2021-08-07 11:40:02,013888
0,-4,-15,-14,-11,-6,-3,-3,2021-08-07 11:40:02,013888
-4,-3,-2,-9,-14,-6,-4,-4,2021-08-07 11:40:02,013888
-1,0,-1,-3,-4,-4,0,-2,2021-08-07 11:40:02,013888
4,9,17,32,17,11,4,6,2021-08-07 11:40:02,013888
2,6,6,12,9,3,1,1,2021-08-07 11:40:02,014889
0,-2,-12,-19,-8,-3,0,-1,2021-08-07 11:40:02,014889
-9,-12,-13,-28,-16,-11,-8,-5,2021-08-07 11:40:02,014889
-3,-7,-14,-17,-5,-3,-3,-3,2021-08-07 11:40:02,014889
-2,-1,5,9,4,1,0,-2,2021-08-07 11:40:02,045889
3,4,16,36,10,4,0,1,2021-08-07 11:40:02,061886
3,3,-3,-1,8,2,4,0,2021-08-07 11:40:02,061886
1,3,0,-8,-6,0,0,0,2021-08-07 11:40:02,061886
-2,-5,-6,-7,0,-1,-1,0,2021-08-07 11:40:02,061886
0,0,0,3,5,-1,0,-1,2021-08-07 11:40:02,061886
-3,-3,4,5,-8,-1,-2,-4,2021-08-07 11:40:02,062889
-1,-2,12,5,11,2,-1,0,2021-08-07 11:40:02,062889
1,0,-10,-2,-9,-4,1,0,2021-08-07 11:40:02,076889
-6,-7,-9,-14,-5,-3,-4,-5,2021-08-07 11:40:02,076889
-5,-8,-18,-18,-7,-5,-4,-3,2021-08-07 11:40:02,076889
5,4,8,8,-2,1,2,1,2021-08-07 11:40:02,076889
3,5,13,12,6,3,-1,0,2021-08-07 11:40:02,100890
4,8,15,22,7,0,2,2,2021-08-07 11:40:02,100890
-1,-2,-3,-5,-17,-7,-3,-1,2021-08-07 11:40:02,100890
-7,-16,-26,-39,-24,-12,-7,-6,2021-08-07 11:40:02,101888
-1,-3,-6,-9,6,0,-2,-1,2021-08-07 11:40:02,108890
0,0,-5,4,13,6,1,-1,2021-08-07 11:40:02,108890
3,6,11,20,15,7,3,2,2021-08-07 11:40:02,124888
-1,3,3,4,-15,-5,-2,-2,2021-08-07 11:40:02,124888
3,8,16,11,13,5,4,3,2021-08-07 11:40:02,140887
-5,-7,-13,-4,6,2,-3,-3,2021-08-07 11:40:02,140887
3,4,7,9,6,0,1,2,2021-08-07 11:40:02,155886
-4,-9,-10,-19,-19,-9,-5,-3,2021-08-07 11:40:02,155886
-1,2,-2,-6,-6,-3,-2,0,2021-08-07 11:40:02,171887
0,0,6,9,-3,0,-1,-1,2021-08-07 11:40:02,186891
1,2,1,2,6,3,2,0,2021-08-07 11:40:02,186891
1,2,-1,1,11,3,0,0,2021-08-07 11:40:02,186891
-2,-3,3,3,5,1,1,-2,2021-08-07 11:40:02,202888
-6,-7,-14,-32,-37,-17,-6,-4,2021-08-07 11:40:02,202888
-2,-3,-2,7,20,7,1,-1,2021-08-07 11:40:02,202888
-2,-3,-3,-3,-14,-7,-3,-3,2021-08-07 11:40:02,202888
1,0,2,-8,-17,-6,-2,0,2021-08-07 11:40:02,202888
7,7,16,39,52,22,8,4,2021-08-07 11:40:02,203890
-3,-5,-10,-21,-11,-3,-1,-2,2021-08-07 11:40:02,203890
1,3,0,1,15,4,1,2,2021-08-07 11:40:02,203890
-6,-8,-9,-3,-9,-9,-5,-6,2021-08-07 11:40:02,233889
-1,2,4,-5,-12,-5,-2,0,2021-08-07 11:40:02,233889
-1,-1,4,3,-5,-3,-4,0,2021-08-07 11:40:02,233889
-7,-8,-16,-29,-21,-11,-6,-7,2021-08-07 11:40:02,233889
0,-3,-10,-14,-8,0,-1,2,2021-08-07 11:40:02,233889
-1,1,-7,-3,1,-1,-1,0,2021-08-07 11:40:02,233889
-2,-1,3,15,14,5,1,0,2021-08-07 11:40:02,234889
4,7,15,25,3,2,2,2,2021-08-07 11:40:02,234889
0,2,13,8,3,2,0,-2,2021-08-07 11:40:02,265888
1,-2,-14,-21,-15,-5,0,0,2021-08-07 11:40:02,281887
-9,-11,-22,-33,-24,-12,-8,-6,2021-08-07 11:40:02,281887
-2,0,4,0,10,4,-1,1,2021-08-07 11:40:02,281887
0,-3,-13,3,8,4,1,-2,2021-08-07 11:40:02,281887
2,5,20,25,12,3,0,0,2021-08-07 11:40:02,281887
6,9,14,29,23,8,3,3,2021-08-07 11:40:02,281887
2,-1,-4,5,-4,0,0,-2,2021-08-07 11:40:02,282889
-11,-11,-16,-36,-26,-15,-9,-8,2021-08-07 11:40:02,297888
-4,-2,1,-4,-10,-8,-3,-3,2021-08-07 11:40:02,297888
7,12,21,23,14,6,5,3,2021-08-07 11:40:02,297888
3,2,2,17,1,1,3,3,2021-08-07 11:40:02,313889
-3,-9,-19,-27,-1,1,0,-2,2021-08-07 11:40:02,329889
-14,-21,-26,-58,-45,-19,-13,-12,2021-08-07 11:40:02,345889
2,8,12,26,44,17,6,3,2021-08-07 11:40:02,361888
4,7,10,19,7,4,3,4,2021-08-07 11:40:02,377887
7,10,17,33,14,9,5,4,2021-08-07 11:40:02,392888
-3,-3,-10,-19,-23,-10,-4,-2,2021-08-07 11:40:02,392888
-2,-3,4,0,0,1,-2,-2,2021-08-07 11:40:02,392888
0,2,6,6,1,0,1,2,2021-08-07 11:40:02,392888
1,1,0,0,-5,-3,-1,1,2021-08-07 11:40:02,392888
3,3,7,21,28,12,6,4,2021-08-07 11:40:02,392888
-4,-7,-12,-16,-11,-7,-6,-4,2021-08-07 11:40:02,408889
-6,-6,-9,-9,-3,-5,-4,-4,2021-08-07 11:40:02,408889
6,9,20,21,4,6,5,4,2021-08-07 11:40:02,408889
-2,-4,-11,-11,-5,-3,-1,-1,2021-08-07 11:40:02,408889
-7,-13,-17,-41,-34,-13,-4,-6,2021-08-07 11:40:02,408889
1,-1,-12,1,19,5,0,-1,2021-08-07 11:40:02,408889
1,5,12,18,3,1,0,0,2021-08-07 11:40:02,409889
9,14,20,36,30,13,7,4,2021-08-07 11:40:02,409889
-2,-9,-25,-46,-36,-15,-6,-6,2021-08-07 11:40:02,409889
-11,-15,-20,-38,-20,-12,-8,-8,2021-08-07 11:40:02,409889
-4,-4,-5,-12,-15,-9,-5,-1,2021-08-07 11:40:02,440887
6,11,14,42,34,15,5,7,2021-08-07 11:40:02,440887
-4,-3,4,12,-7,-2,-2,-2,2021-08-07 11:40:02,440887
4,8,10,8,11,3,1,2,2021-08-07 11:40:02,440887
0,1,6,25,39,15,6,0,2021-08-07 11:40:02,440887
-2,-2,-6,-17,-19,-7,-2,-3,2021-08-07 11:40:02,440887
-5,-5,-6,-7,-7,-7,-4,-5,2021-08-07 11:40:02,441889
-5,-7,-6,-8,-15,-6,-3,-3,2021-08-07 11:40:02,441889
0,2,2,-4,-6,-1,-1,0,2021-08-07 11:40:02,456888
-3,-6,-11,-27,-24,-10,-5,-4,2021-08-07 11:40:02,456888
3,2,2,9,8,2,2,3,2021-08-07 11:40:02,456888
5,7,11,21,14,8,4,3,2021-08-07 11:40:02,456888
4,3,7,23,26,11,3,2,2021-08-07 11:40:02,486887
-3,-3,1,-7,-11,-6,-3,-4,2021-08-07 11:40:02,501889
-7,-12,-26,-35,-41,-17,-9,-7,2021-08-07 11:40:02,501889
-7,-9,-17,-20,9,-2,-4,-4,2021-08-07 11:40:02,501889
-3,-1,-6,-16,-14,-7,-3,-1,2021-08-07 11:40:02,501889
2,4,9,19,16,6,3,3,2021-08-07 11:40:02,501889
5,6,9,17,6,4,2,3,2021-08-07 11:40:02,501889
3,3,4,7,6,4,4,1,2021-08-07 11:40:02,501889
-7,-7,-9,-11,-5,-7,-4,-6,2021-08-07 11:40:02,532889
1,-1,1,3,4,2,1,2,2021-08-07 11:40:02,532889
0,1,4,-2,-7,-5,-1,-2,2021-08-07 11:40:02,532889
2,2,5,9,-5,-1,2,0,2021-08-07 11:40:02,532889
0,-5,-10,-16,-14,-7,-3,-2,2021-08-07 11:40:02,532889
-7,-9,-18,-38,-29,-13,-4,-5,2021-08-07 11:40:02,533888
0,0,7,26,32,10,2,0,2021-08-07 11:40:02,548888
4,6,19,38,32,17,4,4,2021-08-07 11:40:02,556888
-2,0,1,8,-5,-3,-1,-4,2021-08-07 11:40:02,556888
-11,-12,-18,-42,-36,-16,-11,-9,2021-08-07 11:40:02,556888
-2,-2,-8,-27,-13,-4,-2,1,2021-08-07 11:40:02,556888
1,2,5,4,7,0,0,-1,2021-08-07 11:40:02,556888
