EMG 1,EMG 2,EMG 3,EMG 4,EMG 5,EMG 6,EMG 7,EMG 8,Timestamp
-1,-5,-1,-2,-2,0,-2,-3,2021-08-07 11:38:46.010064
-1,0,-4,-7,-6,-3,-1,0,2021-08-07 11:38:46.010064
-4,-4,-3,-11,-17,-8,-4,-3,2021-08-07 11:38:46.011066
1,2,2,6,8,4,1,2,2021-08-07 11:38:46.011066
1,1,1,-2,-3,0,-2,1,2021-08-07 11:38:46.033068
0,0,-1,-1,1,-2,-1,-1,2021-08-07 11:38:46.033068
1,0,-1,1,2,0,1,1,2021-08-07 11:38:46.033068
-2,-2,-1,4,7,2,-1,0,2021-08-07 11:38:46.033068
-4,-3,-7,-13,-10,-5,-3,-4,2021-08-07 11:38:46.047065
0,-1,2,5,1,-1,0,-1,2021-08-07 11:38:46.047065
-1,-3,-1,-2,-5,-2,-2,-2,2021-08-07 11:38:46.048068
1,2,1,-3,-4,-1,1,0,2021-08-07 11:38:46.048068
-3,-3,0,8,10,0,-2,-2,2021-08-07 11:38:46.070065
-3,-5,-2,1,-2,-1,-2,0,2021-08-07 11:38:46.070065
-2,-2,-1,-4,-8,-4,-2,-1,2021-08-07 11:38:46.071067
-1,-1,-4,-1,-3,0,-3,0,2021-08-07 11:38:46.071067
2,4,3,3,1,2,1,1,2021-08-07 11:38:46.092066
-1,2,1,1,2,1,-1,-1,2021-08-07 11:38:46.093065
-2,-4,-3,-7,-8,-4,-2,0,2021-08-07 11:38:46.093065
-2,-2,-3,0,-2,-2,-2,-1,2021-08-07 11:38:46.093065
-3,-2,-4,-4,-3,-3,-3,-1,2021-08-07 11:38:46.106065
-2,-1,-3,-6,-1,-1,0,0,2021-08-07 11:38:46.106065
0,1,1,4,1,0,0,0,2021-08-07 11:38:46.114063
-3,-2,-3,-7,-7,-3,1,0,2021-08-07 11:38:46.114063
-1,-1,-2,0,9,4,0,-1,2021-08-07 11:38:46.130066
3,7,9,11,7,1,-1,0,2021-08-07 11:38:46.130066
-1,-1,-2,2,2,-2,-1,0,2021-08-07 11:38:46.131065
0,1,0,-2,-7,-2,-1,2,2021-08-07 11:38:46.131065
-5,-6,-7,-15,-20,-14,-8,-7,2021-08-07 11:38:46.152065
-3,-2,-2,-5,-2,-3,-4,-3,2021-08-07 11:38:46.153065
3,3,3,9,10,6,2,2,2021-08-07 11:38:46.153065
3,2,3,5,16,7,2,0,2021-08-07 11:38:46.153065
0,-3,-1,1,-1,2,2,1,2021-08-07 11:38:46.167065
0,-3,-6,-12,-12,-1,-1,0,2021-08-07 11:38:46.167065
-1,-3,-3,-2,-9,-3,-1,0,2021-08-07 11:38:46.168064
-3,-3,-3,-9,-3,-2,-2,-2,2021-08-07 11:38:46.168064
-1,2,7,15,11,4,0,-1,2021-08-07 11:38:46.190065
-2,-2,1,1,-1,-1,-2,-3,2021-08-07 11:38:46.190065
-2,-2,-2,-8,-5,-3,-4,-4,2021-08-07 11:38:46.191067
1,0,3,2,-4,-3,-5,0,2021-08-07 11:38:46.191067
3,2,-2,-7,-5,-2,0,2,2021-08-07 11:38:46.213067
0,1,-1,2,0,-1,0,1,2021-08-07 11:38:46.213067
1,0,3,15,15,5,3,1,2021-08-07 11:38:46.213067
-3,-4,-5,-6,-6,-4,-1,-3,2021-08-07 11:38:46.213067
-2,1,2,2,2,-1,0,-1,2021-08-07 11:38:46.235067
-1,-2,-2,-5,-3,-1,1,0,2021-08-07 11:38:46.236066
-4,-4,-6,-18,-18,-9,-4,-1,2021-08-07 11:38:46.236066
1,1,4,10,10,3,1,0,2021-08-07 11:38:46.236066
1,-1,1,6,9,6,2,2,2021-08-07 11:38:46.250065
-1,-1,-3,2,7,2,1,0,2021-08-07 11:38:46.250065
-1,-2,-3,-7,-6,-4,-2,-3,2021-08-07 11:38:46.251065
1,-1,-2,-3,-6,-3,-1,0,2021-08-07 11:38:46.251065
-1,-2,-4,-6,-6,-3,-2,-1,2021-08-07 11:38:46.272066
1,1,3,9,5,2,-1,2,2021-08-07 11:38:46.273065
0,0,-1,-4,-5,-2,-2,-1,2021-08-07 11:38:46.273065
-4,-4,-6,-7,1,0,-2,-2,2021-08-07 11:38:46.273065
3,4,4,7,1,0,1,1,2021-08-07 11:38:46.286064
1,0,-1,0,-1,-1,-1,-1,2021-08-07 11:38:46.286064
-2,0,-2,-1,-2,0,-1,-2,2021-08-07 11:38:46.294067
-3,0,-2,-5,-7,-4,-1,-3,2021-08-07 11:38:46.294067
-3,-2,-3,-4,-8,-4,-2,-2,2021-08-07 11:38:46.310067
1,1,2,4,11,5,3,2,2021-08-07 11:38:46.310067
-1,0,1,-2,-2,-2,-2,-1,2021-08-07 11:38:46.311066
-2,-2,-2,1,-4,-2,0,-2,2021-08-07 11:38:46.311066
-1,-3,1,2,1,1,-2,-1,2021-08-07 11:38:46.332065
0,-2,-3,-4,-5,-3,-1,-2,2021-08-07 11:38:46.333066
0,0,-1,-2,-2,2,1,0,2021-08-07 11:38:46.333066
-1,-1,0,3,0,-2,-1,0,2021-08-07 11:38:46.333066
-3,-2,-1,-2,-4,-2,-1,-2,2021-08-07 11:38:46.346068
-1,1,0,-2,-2,0,-3,-1,2021-08-07 11:38:46.346068
3,4,5,3,8,4,3,2,2021-08-07 11:38:46.354068
-1,-2,0,-5,-6,-3,-2,-3,2021-08-07 11:38:46.355066
-2,-3,-1,1,1,0,-2,0,2021-08-07 11:38:46.369066
2,-2,1,6,7,0,0,0,2021-08-07 11:38:46.369066
-1,0,-3,-1,-3,-2,-1,0,2021-08-07 11:38:46.377067
-1,-2,-1,-2,0,-1,-3,-1,2021-08-07 11:38:46.377067
-1,0,-3,-7,-5,-3,-2,0,2021-08-07 11:38:46.393067
-3,-1,-1,-3,-4,-2,-1,0,2021-08-07 11:38:46.393067
-1,-2,0,4,4,-1,0,-2,2021-08-07 11:38:46.394066
0,1,0,1,-1,-2,-1,0,2021-08-07 11:38:46.394066
-2,-3,-1,0,6,2,1,-1,2021-08-07 11:38:46.406065
1,2,1,1,-2,-2,0,-1,2021-08-07 11:38:46.406065
-1,-1,-4,-7,-9,-4,-2,-2,2021-08-07 11:38:46.415066
-1,-1,-3,-8,-10,-7,-2,-2,2021-08-07 11:38:46.416065
1,0,3,8,12,6,2,0,2021-08-07 11:38:46.430066
-1,-1,-2,-2,0,1,1,0,2021-08-07 11:38:46.430066
-3,-4,0,1,-1,-3,-2,-1,2021-08-07 11:38:46.432068
-5,-6,-9,-13,-13,-6,-6,-5,2021-08-07 11:38:46.432068
4,6,7,8,3,3,2,3,2021-08-07 11:38:46.452066
-2,-4,-2,2,6,1,1,0,2021-08-07 11:38:46.453067
2,1,2,1,0,1,1,2,2021-08-07 11:38:46.454068
-5,-2,-3,3,5,0,-1,-2,2021-08-07 11:38:46.454068
-1,1,-2,-2,-4,-3,0,0,2021-08-07 11:38:46.475065
-1,0,-1,-4,-4,-3,-1,-1,2021-08-07 11:38:46.475065
-2,-1,0,-1,-2,-2,-2,-2,2021-08-07 11:38:46.477066
-1,0,0,2,3,2,-1,-1,2021-08-07 11:38:46.477066
-2,-2,-6,-6,-5,-3,-3,-1,2021-08-07 11:38:46.490066
-1,-4,-5,-12,-11,-4,-2,-2,2021-08-07 11:38:46.490066
3,3,4,8,11,5,1,1,2021-08-07 11:38:46.491066
0,2,2,3,5,4,3,2,2021-08-07 11:38:46.492066
-1,-2,-1,-3,-4,-4,-3,-2,2021-08-07 11:38:46.512065
-5,-3,-5,-8,-9,-5,-3,-3,2021-08-07 11:38:46.513066
-4,-3,-6,-9,-6,-3,-3,-2,2021-08-07 11:38:46.514065
-2,-1,-1,1,3,0,-1,1,2021-08-07 11:38:46.514065
2,1,0,3,3,2,1,0,2021-08-07 11:38:46.535065
-1,1,3,0,-1,-2,-2,0,2021-08-07 11:38:46.535065
-1,0,-1,-7,-5,0,1,-1,2021-08-07 11:38:46.537067
1,0,4,6,7,3,0,1,2021-08-07 11:38:46.537067
-1,-2,-1,-2,2,1,0,-1,2021-08-07 11:38:46.550067
0,1,2,7,2,1,0,-1,2021-08-07 11:38:46.551066
-3,-4,-1,-1,-6,-3,-2,-3,2021-08-07 11:38:46.552066
-2,-2,-4,-8,-3,-3,0,-1,2021-08-07 11:38:46.552066
0,0,-1,-2,-6,-3,-2,-1,2021-08-07 11:38:46.572066
0,0,-1,3,1,2,0,1,2021-08-07 11:38:46.573065
-2,-2,-2,3,11,2,1,-1,2021-08-07 11:38:46.574066
-3,-5,-4,-6,-6,-4,-2,-3,2021-08-07 11:38:46.574066
-1,1,1,0,-1,-3,-2,0,2021-08-07 11:38:46.586064
-1,0,0,-2,-4,-4,0,-1,2021-08-07 11:38:46.586064
3,1,-2,-4,-4,0,0,0,2021-08-07 11:38:46.595069
-2,-1,-2,0,-2,0,0,-1,2021-08-07 11:38:46.595069
-7,-6,-6,-9,-12,-7,-3,-4,2021-08-07 11:38:46.610066
3,2,3,8,20,11,4,3,2021-08-07 11:38:46.610066
-3,-4,0,-1,-2,-1,-1,0,2021-08-07 11:38:46.612066
2,1,3,4,2,0,-1,0,2021-08-07 11:38:46.612066
-2,-3,-3,-2,-4,-3,-3,-2,2021-08-07 11:38:46.632065
-1,-2,1,0,-5,-2,-1,-1,2021-08-07 11:38:46.633067
-2,-3,-5,-8,-13,-6,-3,-3,2021-08-07 11:38:46.634067
2,3,4,10,11,4,0,-1,2021-08-07 11:38:46.634067
-1,-1,-3,-7,-6,-2,2,-2,2021-08-07 11:38:46.655067
-3,-2,-2,0,-4,-2,-3,-3,2021-08-07 11:38:46.655067
-2,-1,-2,3,4,0,-3,-1,2021-08-07 11:38:46.657066
4,5,5,9,6,5,3,3,2021-08-07 11:38:46.657066
1,1,1,1,5,2,-1,1,2021-08-07 11:38:46.670066
-1,-2,-1,-3,-4,-2,-2,0,2021-08-07 11:38:46.671068
-4,-2,-4,-6,-6,-2,-2,-1,2021-08-07 11:38:46.672067
-4,-5,-5,-9,-12,-6,-4,-3,2021-08-07 11:38:46.672067
-1,-1,1,6,10,3,-1,-2,2021-08-07 11:38:46.692066
4,4,2,-5,-6,-2,0,-1,2021-08-07 11:38:46.693065
2,-1,-1,1,4,2,-1,-1,2021-08-07 11:38:46.694067
0,0,0,-2,-3,-3,-2,-2,2021-08-07 11:38:46.694067
0,0,-1,-3,-4,-1,-1,1,2021-08-07 11:38:46.715068
-3,-3,-4,-7,-8,-4,-4,-4,2021-08-07 11:38:46.715068
1,1,3,7,4,2,1,-1,2021-08-07 11:38:46.717071
0,1,-1,1,10,4,2,1,2021-08-07 11:38:46.717071
-1,2,4,12,7,1,1,-2,2021-08-07 11:38:46.729069
-2,-2,-4,-6,-9,-3,-1,-2,2021-08-07 11:38:46.729069
2,0,-1,0,1,-1,-1,0,2021-08-07 11:38:46.738071
-4,-5,-6,-12,-14,-6,-3,-1,2021-08-07 11:38:46.738071
1,1,3,0,0,0,0,0,2021-08-07 11:38:46.752066
0,-1,2,3,7,4,1,2,2021-08-07 11:38:46.753065
-3,-1,1,3,3,0,-1,-1,2021-08-07 11:38:46.754065
-1,-1,-2,-6,-11,-6,-2,-1,2021-08-07 11:38:46.754065
-4,-5,-11,-25,-26,-11,-5,-4,2021-08-07 11:38:46.775065
0,0,0,0,1,-1,0,1,2021-08-07 11:38:46.775065
2,2,5,11,-4,-2,0,1,2021-08-07 11:38:46.777066
3,1,1,9,20,9,3,1,2021-08-07 11:38:46.777066
-2,-2,-2,1,16,10,1,1,2021-08-07 11:38:46.789068
1,3,6,21,34,13,5,0,2021-08-07 11:38:46.790065
-6,-5,-8,-19,-39,-18,-8,-4,2021-08-07 11:38:46.796069
0,0,1,2,2,0,0,0,2021-08-07 11:38:46.796069
-3,-4,-4,-9,-21,-10,-5,-2,2021-08-07 11:38:46.812066
-3,-3,-4,-11,-11,-6,-3,-2,2021-08-07 11:38:46.813066
1,0,0,1,8,4,0,0,2021-08-07 11:38:46.814069
-3,-2,-1,-11,-28,-14,-5,-4,2021-08-07 11:38:46.814069
0,-1,1,2,2,1,-1,1,2021-08-07 11:38:46.842066
-2,-1,-2,5,5,2,-1,-1,2021-08-07 11:38:46.843067
3,3,3,2,4,4,3,2,2021-08-07 11:38:46.844066
-3,-3,-3,-3,-3,-1,-2,-2,2021-08-07 11:38:46.844066
1,0,1,0,0,-2,0,0,2021-08-07 11:38:46.857065
-2,-3,-1,-1,-2,0,0,1,2021-08-07 11:38:46.858067
-3,-3,-6,-7,-7,-7,-2,-2,2021-08-07 11:38:46.859066
2,1,1,5,12,5,2,-1,2021-08-07 11:38:46.859066
4,7,7,13,10,4,3,2,2021-08-07 11:38:46.872065
-6,-8,-10,-22,-42,-19,-7,-5,2021-08-07 11:38:46.873066
1,-1,4,21,49,19,4,1,2021-08-07 11:38:46.874065
3,1,-2,-10,-12,-3,-1,3,2021-08-07 11:38:46.874065
-2,-4,-3,4,-8,-5,0,1,2021-08-07 11:38:46.895065
-4,-3,-4,-3,-12,-3,-2,-2,2021-08-07 11:38:46.895065
-2,2,5,7,23,6,0,-3,2021-08-07 11:38:46.897066
-3,-1,3,8,7,3,1,-1,2021-08-07 11:38:46.897066
-2,-1,-1,-2,6,1,0,-3,2021-08-07 11:38:46.917067
1,0,-2,-9,-15,-8,-6,-2,2021-08-07 11:38:46.918068
0,-1,-3,-8,-19,-11,-5,-3,2021-08-07 11:38:46.919065
0,-1,-1,3,0,-2,-2,-1,2021-08-07 11:38:46.919065
1,-3,-4,-6,-2,1,2,3,2021-08-07 11:38:46.931065
1,-3,-3,1,3,2,3,-1,2021-08-07 11:38:46.931065
-2,-3,-5,-10,-11,-5,-5,-2,2021-08-07 11:38:46.940066
3,3,3,7,6,5,2,2,2021-08-07 11:38:46.940066
-2,-4,-2,-8,-10,-5,-2,-2,2021-08-07 11:38:46.955069
1,3,1,-1,12,4,2,0,2021-08-07 11:38:46.955069
-4,-4,-5,-8,-20,-8,-3,-2,2021-08-07 11:38:46.956069
0,2,6,19,28,13,4,0,2021-08-07 11:38:46.957065
-4,-2,-3,3,3,1,-2,-2,2021-08-07 11:38:46.978069
-2,0,-2,-8,-11,-4,-4,-1,2021-08-07 11:38:46.978069
-1,-1,-1,5,-1,-1,-1,2,2021-08-07 11:38:46.979069
-2,-2,-5,-9,-12,-6,-3,-2,2021-08-07 11:38:46.979069
0,-2,-1,4,10,3,-1,-1,2021-08-07 11:38:46.991066
-2,-3,2,7,13,3,0,-2,2021-08-07 11:38:46.991066
2,2,-1,-12,-12,-2,0,1,2021-08-07 11:38:47.000070
-1,-1,0,0,-2,-4,-2,1,2021-08-07 11:38:47.000070
1,2,2,5,0,1,-3,0,2021-08-07 11:38:47.015068
2,3,5,13,15,7,3,2,2021-08-07 11:38:47.015068
-1,-2,-2,-2,4,0,1,-3,2021-08-07 11:38:47.016068
-4,-6,-9,-29,-44,-19,-8,-3,2021-08-07 11:38:47.017068
2,1,3,8,20,7,3,2,2021-08-07 11:38:47.038066
-1,-1,-1,4,13,8,1,-2,2021-08-07 11:38:47.038066
1,1,4,9,10,4,1,1,2021-08-07 11:38:47.044067
-3,-4,-4,-10,-24,-11,-6,-4,2021-08-07 11:38:47.044067
1,0,0,4,13,4,1,0,2021-08-07 11:38:47.060069
0,-3,-3,-16,-24,-9,-4,-2,2021-08-07 11:38:47.060069
0,-1,-1,3,7,2,0,-1,2021-08-07 11:38:47.061067
-1,-1,-2,-2,-1,-2,-2,-2,2021-08-07 11:38:47.062069
-2,-1,-2,-8,-15,-8,-3,-1,2021-08-07 11:38:47.075066
0,-1,-1,0,3,0,1,0,2021-08-07 11:38:47.076070
-3,-4,-7,-15,-19,-9,-4,-3,2021-08-07 11:38:47.076070
-1,-3,-2,1,-1,-2,-2,-1,2021-08-07 11:38:47.077066
3,2,6,13,30,14,2,1,2021-08-07 11:38:47.098067
2,2,0,2,-2,-3,-2,1,2021-08-07 11:38:47.098067
-5,-4,-5,-10,-18,-7,-3,-4,2021-08-07 11:38:47.099069
0,0,2,3,8,4,3,2,2021-08-07 11:38:47.099069
-2,-1,-3,-4,-15,-5,-4,0,2021-08-07 11:38:47.120067
1,-1,4,15,24,11,4,3,2021-08-07 11:38:47.120067
2,3,3,-4,-2,0,1,0,2021-08-07 11:38:47.121067
-1,-1,-6,-8,-8,-5,-2,-1,2021-08-07 11:38:47.122070
1,2,0,5,2,2,3,0,2021-08-07 11:38:47.135067
0,0,0,6,12,3,0,1,2021-08-07 11:38:47.135067
-1,-3,-2,-3,-3,-2,-1,-1,2021-08-07 11:38:47.136068
0,1,3,9,11,5,0,1,2021-08-07 11:38:47.137068
-5,-6,-8,-25,-39,-17,-8,-4,2021-08-07 11:38:47.157063
-1,1,2,9,6,2,0,0,2021-08-07 11:38:47.158065
0,0,1,8,16,8,1,1,2021-08-07 11:38:47.159065
-1,-3,-4,-7,-8,-3,-3,-2,2021-08-07 11:38:47.159065
1,0,0,0,0,-1,1,1,2021-08-07 11:38:47.180066
-3,-3,-5,-8,-8,-4,-2,-3,2021-08-07 11:38:47.180066
0,0,1,2,-1,-2,-1,0,2021-08-07 11:38:47.182067
-8,-8,-8,-12,-14,-6,-6,-6,2021-08-07 11:38:47.182067
6,7,8,21,23,12,7,4,2021-08-07 11:38:47.194064
1,1,2,1,0,1,-2,-2,2021-08-07 11:38:47.195066
1,1,0,-2,-4,-1,1,-1,2021-08-07 11:38:47.201066
-1,-2,-3,-1,-4,-3,0,-1,2021-08-07 11:38:47.201066
-4,-8,-6,-10,-14,-7,-4,-4,2021-08-07 11:38:47.217067
-1,0,-5,-14,-6,-4,-1,-1,2021-08-07 11:38:47.218066
2,2,5,19,15,4,1,1,2021-08-07 11:38:47.219066
0,-2,2,10,13,5,2,0,2021-08-07 11:38:47.219066
-1,2,1,-3,-8,-4,-2,0,2021-08-07 11:38:47.240066
-3,-3,-4,-8,-12,-5,-2,-2,2021-08-07 11:38:47.240066
0,-1,0,-3,1,-2,-3,-1,2021-08-07 11:38:47.242065
1,-1,-1,-4,-6,-2,-1,0,2021-08-07 11:38:47.242065
-1,-1,-2,1,6,-1,-1,0,2021-08-07 11:38:47.254067
0,1,4,9,8,5,1,0,2021-08-07 11:38:47.254067
0,-1,-3,-5,-3,0,-1,0,2021-08-07 11:38:47.261065
0,-1,0,0,-4,0,-1,0,2021-08-07 11:38:47.261065
-1,0,-1,2,13,2,0,-1,2021-08-07 11:38:47.278069
-1,-2,-1,-4,-9,-5,-1,-2,2021-08-07 11:38:47.278069
-1,-3,-1,-2,-4,-2,-1,0,2021-08-07 11:38:47.279067
-1,-2,-4,-8,-6,-3,-2,0,2021-08-07 11:38:47.279067
4,4,4,6,7,4,3,2,2021-08-07 11:38:47.300068
2,4,4,8,3,1,1,-1,2021-08-07 11:38:47.300068
-3,-1,-2,3,4,2,0,0,2021-08-07 11:38:47.302067
-2,-2,0,3,1,-2,-1,-2,2021-08-07 11:38:47.302067
-2,0,-3,-15,-19,-7,-2,-2,2021-08-07 11:38:47.314067
0,-3,-6,-15,-17,-8,-3,2,2021-08-07 11:38:47.315066
1,2,4,15,29,12,4,0,2021-08-07 11:38:47.321068
0,3,8,24,14,7,4,2,2021-08-07 11:38:47.321068
-1,-2,-2,1,2,1,0,0,2021-08-07 11:38:47.338067
-1,-2,-1,-6,-9,-6,-2,-1,2021-08-07 11:38:47.338067
-5,-5,-9,-21,-25,-12,-8,-5,2021-08-07 11:38:47.339067
-2,2,0,1,13,4,1,0,2021-08-07 11:38:47.339067
-2,-2,-2,-4,-6,-1,0,-2,2021-08-07 11:38:47.360067
-1,-2,-2,10,11,3,0,-2,2021-08-07 11:38:47.360067
-2,-1,-1,0,-2,-1,-1,-1,2021-08-07 11:38:47.362069
3,5,3,0,6,3,1,2,2021-08-07 11:38:47.362069
-3,-2,-4,-13,-26,-8,-4,-2,2021-08-07 11:38:47.374065
0,-2,-3,1,22,7,0,-1,2021-08-07 11:38:47.375070
0,-3,-1,1,-6,-3,0,0,2021-08-07 11:38:47.381065
-1,-2,-6,-9,-4,-1,-3,-1,2021-08-07 11:38:47.381065
-2,-2,0,6,6,2,0,-1,2021-08-07 11:38:47.397066
-3,-2,-3,-3,-11,-6,0,-2,2021-08-07 11:38:47.398067
-1,1,-1,-3,-10,-5,-1,-1,2021-08-07 11:38:47.399068
4,6,1,0,4,3,1,2,2021-08-07 11:38:47.399068
-4,-4,-3,2,2,-1,-2,-2,2021-08-07 11:38:47.420068
-2,0,-2,-2,-5,-2,-2,-2,2021-08-07 11:38:47.420068
3,2,3,4,6,3,1,0,2021-08-07 11:38:47.422067
-2,-5,-4,-4,-8,-5,-2,-2,2021-08-07 11:38:47.422067
0,2,0,-1,1,0,0,1,2021-08-07 11:38:47.434066
-1,-1,-2,-5,-11,-4,-2,-1,2021-08-07 11:38:47.435066
-5,-4,-5,-8,-4,-2,-4,-1,2021-08-07 11:38:47.441064
2,4,5,6,5,2,2,2,2021-08-07 11:38:47.442068
0,-1,-1,0,-2,0,1,-1,2021-08-07 11:38:47.465065
-1,-1,-3,-11,-11,-4,-2,0,2021-08-07 11:38:47.465065
-1,-3,-5,-6,-8,-4,-3,-4,2021-08-07 11:38:47.467069
1,0,4,13,25,10,1,0,2021-08-07 11:38:47.467069
0,0,3,18,23,8,1,1,2021-08-07 11:38:47.480069
-3,-4,-2,-3,-9,-2,-2,0,2021-08-07 11:38:47.480069
1,3,2,-2,2,0,1,1,2021-08-07 11:38:47.486065
-5,-5,-5,-15,-19,-10,-5,-5,2021-08-07 11:38:47.486065
-2,-1,-4,-11,-18,-8,-4,-2,2021-08-07 11:38:47.494067
-1,0,-1,3,4,2,0,-1,2021-08-07 11:38:47.495066
-1,-2,-1,5,16,7,6,3,2021-08-07 11:38:47.501065
1,0,2,5,0,0,-1,0,2021-08-07 11:38:47.502067
-1,1,0,-2,0,-3,-2,-2,2021-08-07 11:38:47.517067
4,3,2,0,-3,3,8,4,2021-08-07 11:38:47.518067
2,0,-2,-4,-8,0,-2,0,2021-08-07 11:38:47.519067
-5,-4,-2,-2,-1,-9,-13,-9,2021-08-07 11:38:47.519067
-10,-11,-12,-10,-12,-14,-13,-7,2021-08-07 11:38:47.540066
1,2,4,-5,-12,-7,-1,0,2021-08-07 11:38:47.540066
1,1,3,8,10,6,2,0,2021-08-07 11:38:47.541070
-2,-2,0,9,15,11,6,1,2021-08-07 11:38:47.542067
6,5,4,-4,-7,8,11,7,2021-08-07 11:38:47.554067
2,1,3,13,15,13,9,4,2021-08-07 11:38:47.554067
-2,-1,-2,-5,-12,-10,-10,-6,2021-08-07 11:38:47.563066
-13,-10,-9,-16,-26,-25,-21,-13,2021-08-07 11:38:47.563066
-2,1,-3,-8,-2,-4,-4,-3,2021-08-07 11:38:47.577065
-2,-2,3,16,18,6,3,-1,2021-08-07 11:38:47.577065
5,3,2,4,3,9,9,6,2021-08-07 11:38:47.584066
0,-3,-6,-13,-11,-2,2,1,2021-08-07 11:38:47.584066
3,0,3,11,4,3,5,3,2021-08-07 11:38:47.600066
2,0,0,-6,0,2,0,1,2021-08-07 11:38:47.600066
-8,-7,-5,-3,-5,-6,-9,-9,2021-08-07 11:38:47.602065
-1,2,5,8,7,5,0,-2,2021-08-07 11:38:47.602065
-4,-4,-5,-14,-18,-7,-3,-5,2021-08-07 11:38:47.614066
3,4,3,8,10,1,-2,1,2021-08-07 11:38:47.614066
-4,-4,0,5,5,-3,-3,-2,2021-08-07 11:38:47.623067
5,2,-4,-16,-17,-4,5,4,2021-08-07 11:38:47.623067
1,0,4,10,19,4,1,1,2021-08-07 11:38:47.637069
-4,-2,-3,-9,-10,-6,-8,-3,2021-08-07 11:38:47.638066
-2,-2,-1,6,12,3,2,-1,2021-08-07 11:38:47.639066
5,5,6,14,12,9,5,4,2021-08-07 11:38:47.639066
-3,-1,-1,-1,-11,-6,-3,-3,2021-08-07 11:38:47.659065
-5,-5,-7,-8,-12,-8,-5,-4,2021-08-07 11:38:47.659065
0,-1,-1,-8,-8,-4,1,0,2021-08-07 11:38:47.668066
-1,-1,1,4,6,4,3,2,2021-08-07 11:38:47.668066
0,-1,2,7,12,4,-1,-1,2021-08-07 11:38:47.674069
-5,-7,-5,-6,-12,-7,-6,-5,2021-08-07 11:38:47.674069
4,5,4,7,6,3,1,3,2021-08-07 11:38:47.683071
0,0,2,4,7,4,2,0,2021-08-07 11:38:47.683071
-2,-3,-3,-2,0,-1,-1,-1,2021-08-07 11:38:47.697066
-1,-1,-2,-4,-4,-3,-2,-2,2021-08-07 11:38:47.698064
-2,-3,-1,-4,-2,-3,-2,-2,2021-08-07 11:38:47.699067
1,1,0,-4,-7,-2,-1,1,2021-08-07 11:38:47.699067
1,-1,-1,1,0,1,-1,0,2021-08-07 11:38:47.720065
-1,1,3,3,7,2,-1,-1,2021-08-07 11:38:47.720065
-6,-5,-8,-17,-20,-10,-5,-3,2021-08-07 11:38:47.722065
3,2,2,6,10,5,3,3,2021-08-07 11:38:47.722065
1,0,-1,1,5,4,0,0,2021-08-07 11:38:47.734070
-5,-5,-6,-10,-14,-10,-6,-6,2021-08-07 11:38:47.734070
1,3,2,-1,-4,0,0,1,2021-08-07 11:38:47.743067
1,2,1,6,13,7,3,2,2021-08-07 11:38:47.743067
1,0,4,8,24,7,1,0,2021-08-07 11:38:47.772067
0,1,0,4,2,1,1,0,2021-08-07 11:38:47.773071
-3,-5,-4,-6,-11,-5,-2,-4,2021-08-07 11:38:47.774066
-2,-4,-7,-5,-11,-8,-3,-1,2021-08-07 11:38:47.774066
-3,-3,-5,-11,-15,-7,-3,-3,2021-08-07 11:38:47.780066
5,5,2,6,7,1,2,5,2021-08-07 11:38:47.780066
-3,-3,-5,-1,1,-2,-2,0,2021-08-07 11:38:47.782068
-3,-3,-1,4,3,-1,-1,-2,2021-08-07 11:38:47.782068
1,3,1,-3,-8,-3,0,1,2021-08-07 11:38:47.794065
0,1,-1,-5,-2,-1,-1,1,2021-08-07 11:38:47.794065
-1,-1,-1,1,-1,-2,-1,-2,2021-08-07 11:38:47.803068
-2,-6,-7,-15,-14,-8,-4,-4,2021-08-07 11:38:47.803068
0,-2,1,4,2,0,-1,0,2021-08-07 11:38:47.818065
0,0,3,11,13,8,0,0,2021-08-07 11:38:47.818065
0,-2,0,0,7,1,0,0,2021-08-07 11:38:47.819065
0,1,1,-1,-2,-1,1,1,2021-08-07 11:38:47.819065
-2,-1,-3,-6,-6,-3,-2,-2,2021-08-07 11:38:47.840066
-3,-3,0,-4,-8,-4,-3,-2,2021-08-07 11:38:47.840066
-1,0,0,-3,-5,-2,-1,-1,2021-08-07 11:38:47.842068
-2,0,1,3,3,0,-1,-2,2021-08-07 11:38:47.842068
-1,-2,-2,2,-3,-1,1,-1,2021-08-07 11:38:47.854066
0,1,1,8,7,1,1,0,2021-08-07 11:38:47.854066
-2,-1,-3,-5,-5,-3,-3,-1,2021-08-07 11:38:47.863069
-1,-2,-3,-3,-9,-4,-3,-2,2021-08-07 11:38:47.863069
2,3,1,-2,2,4,0,1,2021-08-07 11:38:47.877066
-3,-3,1,13,19,7,1,-2,2021-08-07 11:38:47.878069
-1,0,0,-1,-3,-1,-1,-1,2021-08-07 11:38:47.879068
0,0,0,0,0,0,0,-1,2021-08-07 11:38:47.879068
-1,0,-3,-7,-14,-6,-1,-2,2021-08-07 11:38:47.900068
-4,-4,-7,-17,-13,-7,-4,-3,2021-08-07 11:38:47.900068
3,3,6,16,12,6,4,3,2021-08-07 11:38:47.901066
-5,-5,-7,-17,-15,-7,-3,-1,2021-08-07 11:38:47.902065
1,0,7,26,21,7,3,0,2021-08-07 11:38:47.914069
1,1,0,0,5,2,0,0,2021-08-07 11:38:47.914069
-2,-2,-3,-3,-7,-4,-2,-2,2021-08-07 11:38:47.923069
0,-2,-3,-3,2,2,0,0,2021-08-07 11:38:47.923069
0,0,0,-8,-7,-2,0,1,2021-08-07 11:38:47.937068
1,-2,-4,-6,-5,-4,-1,-2,2021-08-07 11:38:47.937068
-1,-2,-3,-3,-8,-4,-3,-3,2021-08-07 11:38:47.944069
-2,-1,-2,1,-3,-2,-2,-1,2021-08-07 11:38:47.944069
0,2,2,0,-2,-1,0,0,2021-08-07 11:38:47.976068
0,-1,1,3,3,1,0,0,2021-08-07 11:38:47.976068
-1,0,-2,-1,1,0,-1,0,2021-08-07 11:38:47.977070
-1,-3,0,-3,1,-1,-2,-2,2021-08-07 11:38:47.978064
0,-2,1,5,7,2,1,0,2021-08-07 11:38:47.978064
0,1,-1,-8,-16,-6,-1,0,2021-08-07 11:38:47.978064
1,-1,0,1,4,1,0,0,2021-08-07 11:38:47.989068
0,0,0,3,3,1,0,0,2021-08-07 11:38:47.989068
-5,-7,-7,-10,-11,-5,-5,-3,2021-08-07 11:38:47.997066
1,1,1,-5,-6,-1,-1,2,2021-08-07 11:38:47.998067
0,-1,0,2,3,1,-1,-1,2021-08-07 11:38:47.999067
0,1,3,9,11,3,2,0,2021-08-07 11:38:47.999067
-2,-2,-5,-5,-8,-3,-2,-3,2021-08-07 11:38:48.020066
-2,-2,-1,2,6,0,-2,0,2021-08-07 11:38:48.020066
-3,-1,-3,-5,-4,-2,-2,-1,2021-08-07 11:38:48.022067
1,2,1,5,8,1,0,0,2021-08-07 11:38:48.022067
-1,-1,-2,-2,-1,-1,-3,0,2021-08-07 11:38:48.043069
-4,-2,-4,-7,-5,-4,-3,-4,2021-08-07 11:38:48.043069
-1,1,0,-4,-8,-3,-3,0,2021-08-07 11:38:48.044068
2,3,2,2,2,1,1,1,2021-08-07 11:38:48.044068
-2,-4,-9,-14,-6,-3,-2,-2,2021-08-07 11:38:48.057064
2,2,6,9,1,2,0,-1,2021-08-07 11:38:48.058066
-2,-3,-1,2,1,2,0,-1,2021-08-07 11:38:48.059067
-2,-2,-1,-2,-1,-1,-1,-1,2021-08-07 11:38:48.059067
-1,0,-3,-4,-4,-3,-3,-1,2021-08-07 11:38:48.080066
-2,-3,-4,-7,-7,-5,-3,-2,2021-08-07 11:38:48.080066
2,0,0,4,8,4,3,1,2021-08-07 11:38:48.081065
-1,-1,1,0,-2,-1,-2,-2,2021-08-07 11:38:48.082066
-2,-2,-4,-6,-11,-5,-1,-1,2021-08-07 11:38:48.102066
-2,-1,-2,-1,-2,-2,-3,-2,2021-08-07 11:38:48.103067
2,1,2,5,11,2,2,3,2021-08-07 11:38:48.104069
-2,-3,-4,-6,-6,-2,0,-3,2021-08-07 11:38:48.104069
1,0,1,-3,-9,-2,0,1,2021-08-07 11:38:48.117065
-1,-1,-1,6,8,4,1,-1,2021-08-07 11:38:48.118066
-3,0,-1,0,-3,-2,-2,-1,2021-08-07 11:38:48.119067
-3,-1,2,5,4,3,-1,0,2021-08-07 11:38:48.119067
1,6,8,11,6,2,1,0,2021-08-07 11:38:48.140065
-6,-10,-15,-30,-26,-12,-3,-3,2021-08-07 11:38:48.140065
0,-4,-6,-12,-17,-5,-3,-1,2021-08-07 11:38:48.142068
1,0,0,8,14,5,2,3,2021-08-07 11:38:48.142068
-2,-2,0,-2,-6,-4,-3,-2,2021-08-07 11:38:48.163070
5,5,10,24,25,10,4,3,2021-08-07 11:38:48.163070
-5,-3,-3,-6,-4,-2,-2,-3,2021-08-07 11:38:48.164067
-1,-1,-1,-2,-5,-2,-1,-1,2021-08-07 11:38:48.164067
-2,1,0,2,4,1,1,-1,2021-08-07 11:38:48.177064
-3,-3,-1,-5,-3,-1,-2,-2,2021-08-07 11:38:48.177064
-2,-1,-2,-5,-6,-3,-1,0,2021-08-07 11:38:48.184065
2,4,2,-4,-7,-4,-1,0,2021-08-07 11:38:48.184065
0,-2,-4,-6,2,1,1,0,2021-08-07 11:38:48.200066
1,-1,3,7,-2,1,1,0,2021-08-07 11:38:48.200066
1,1,0,3,6,1,-1,-1,2021-08-07 11:38:48.201067
-2,-3,0,2,-5,-3,-2,-2,2021-08-07 11:38:48.202068
2,-1,0,7,6,4,1,2,2021-08-07 11:38:48.222066
0,1,-1,-8,-9,-3,0,0,2021-08-07 11:38:48.223065
-2,-2,2,8,21,6,0,-2,2021-08-07 11:38:48.224066
-2,-2,-3,-3,1,0,-1,0,2021-08-07 11:38:48.224066
0,-2,-7,-17,-17,-3,3,2,2021-08-07 11:38:48.237069
1,1,3,7,9,9,4,3,2021-08-07 11:38:48.237069
1,1,6,14,12,1,-5,-3,2021-08-07 11:38:48.244066
-9,-8,-6,-8,-11,-17,-16,-13,2021-08-07 11:38:48.244066
-6,-5,-4,-2,-2,-6,-6,-5,2021-08-07 11:38:48.260067
-2,-2,-5,-11,-8,-5,-1,0,2021-08-07 11:38:48.260067
1,0,-2,-9,-11,2,7,5,2021-08-07 11:38:48.261068
2,-1,1,-2,-4,2,3,3,2021-08-07 11:38:48.262066
3,0,0,11,17,8,3,2,2021-08-07 11:38:48.283069
2,1,3,5,4,2,1,-1,2021-08-07 11:38:48.283069
-1,1,0,-1,-6,-3,-2,-1,2021-08-07 11:38:48.284068
-2,-1,-3,-9,-11,-5,-2,-1,2021-08-07 11:38:48.284068
2,2,3,3,6,1,1,0,2021-08-07 11:38:48.297069
-3,-4,-5,-2,-2,-3,-2,-1,2021-08-07 11:38:48.297069
-3,-5,-6,-8,-9,-5,-5,-2,2021-08-07 11:38:48.304067
0,1,0,0,0,1,2,0,2021-08-07 11:38:48.304067
-1,0,0,5,6,3,-1,0,2021-08-07 11:38:48.320066
0,1,1,0,3,-1,-3,1,2021-08-07 11:38:48.320066
-1,-4,-1,-8,-21,-9,-2,-3,2021-08-07 11:38:48.321070
2,-2,-3,3,15,7,4,3,2021-08-07 11:38:48.322065
-1,-1,0,2,1,1,0,-1,2021-08-07 11:38:48.342067
-3,-1,1,9,12,5,-1,-2,2021-08-07 11:38:48.343068
-1,0,2,5,9,4,2,0,2021-08-07 11:38:48.344067
-1,-2,0,-3,-7,0,-2,-2,2021-08-07 11:38:48.344067
-5,-5,-1,-5,-8,-6,-5,-5,2021-08-07 11:38:48.357065
0,0,-2,-6,-9,-6,-5,-3,2021-08-07 11:38:48.357065
0,0,-2,-6,-7,-5,-1,-1,2021-08-07 11:38:48.364067
4,5,4,2,1,3,4,4,2021-08-07 11:38:48.364067
0,0,0,2,1,0,3,0,2021-08-07 11:38:48.380067
-1,-2,-4,-5,-8,-7,-2,-4,2021-08-07 11:38:48.381066
-2,-5,-3,-1,4,0,0,-3,2021-08-07 11:38:48.382066
0,0,1,6,-6,-2,-1,-2,2021-08-07 11:38:48.382066
-2,-1,-3,-3,7,2,0,0,2021-08-07 11:38:48.402066
0,-1,4,8,4,2,1,2,2021-08-07 11:38:48.403068
-1,0,-2,-3,-2,-1,-1,1,2021-08-07 11:38:48.404066
-5,-4,-5,-2,-1,-2,-1,-2,2021-08-07 11:38:48.404066
0,1,3,6,4,1,-2,0,2021-08-07 11:38:48.417067
-1,0,-3,-6,-9,-5,-2,-1,2021-08-07 11:38:48.417067
1,0,2,1,3,-1,-2,0,2021-08-07 11:38:48.424069
1,1,1,1,-1,2,1,1,2021-08-07 11:38:48.424069
-1,-2,-4,-8,-6,-3,-2,-3,2021-08-07 11:38:48.440067
-2,-2,-3,-8,-17,-10,-2,-1,2021-08-07 11:38:48.440067
0,2,2,14,19,11,2,1,2021-08-07 11:38:48.442069
0,0,0,3,5,0,2,0,2021-08-07 11:38:48.442069
-2,-1,-5,-9,-12,-6,-3,-2,2021-08-07 11:38:48.463067
1,2,2,4,8,4,0,1,2021-08-07 11:38:48.463067
1,0,0,1,-7,-4,-1,-2,2021-08-07 11:38:48.464069
-2,-1,-2,-2,-1,-2,-2,0,2021-08-07 11:38:48.464069
1,0,1,5,2,2,1,1,2021-08-07 11:38:48.477065
-3,-3,-4,-8,-10,-5,-2,-1,2021-08-07 11:38:48.477065
-4,-4,-5,-8,-8,-4,-2,-3,2021-08-07 11:38:48.484069
3,-1,5,9,10,3,1,0,2021-08-07 11:38:48.484069
2,1,0,0,-2,-2,-1,0,2021-08-07 11:38:48.500065
-1,-1,-3,-1,1,3,0,-3,2021-08-07 11:38:48.500065
-2,0,0,-2,-1,-1,-1,0,2021-08-07 11:38:48.502066
-1,-2,-3,-4,-4,-3,-1,-1,2021-08-07 11:38:48.502066
-2,-2,-2,-4,-4,-1,-2,0,2021-08-07 11:38:48.522066
1,-1,3,6,6,2,1,0,2021-08-07 11:38:48.523065
-1,1,1,1,2,2,1,0,2021-08-07 11:38:48.524065
-2,0,-2,-5,-7,-5,-2,-2,2021-08-07 11:38:48.524065
0,-1,0,1,3,0,1,-2,2021-08-07 11:38:48.536065
-1,-2,-2,0,1,0,-2,-1,2021-08-07 11:38:48.536065
3,2,2,1,-3,-2,0,1,2021-08-07 11:38:48.545065
-3,-1,0,-1,0,1,-1,1,2021-08-07 11:38:48.545065
-3,-3,-1,0,1,-1,0,-3,2021-08-07 11:38:48.560065
1,2,1,-1,0,1,2,0,2021-08-07 11:38:48.560065
-1,0,-2,-3,-4,-2,-1,-2,2021-08-07 11:38:48.561069
-1,-1,-1,0,0,-1,-1,-1,2021-08-07 11:38:48.562068
-1,-2,-2,1,-2,-1,0,-1,2021-08-07 11:38:48.583067
-4,-1,-5,-6,-6,-3,-3,-2,2021-08-07 11:38:48.583067
0,-1,-1,1,5,2,0,-1,2021-08-07 11:38:48.584067
0,-1,-1,0,0,0,-1,0,2021-08-07 11:38:48.585069
-2,1,-1,1,0,-1,-2,-1,2021-08-07 11:38:48.596066
-3,-3,-3,-4,-2,-4,-1,-2,2021-08-07 11:38:48.596066
-1,0,-1,0,-3,-1,0,0,2021-08-07 11:38:48.605067
-1,-2,-1,-1,-1,0,0,0,2021-08-07 11:38:48.605067
0,1,0,0,-1,0,0,4,2021-08-07 11:38:48.620064
-1,-3,-3,-1,-1,-1,-1,-2,2021-08-07 11:38:48.620064
-3,-2,-5,-8,-8,-4,-4,-5,2021-08-07 11:38:48.621066
0,1,1,1,-2,0,-1,-1,2021-08-07 11:38:48.622065
0,-2,-2,3,4,0,-2,-1,2021-08-07 11:38:48.643069
-1,0,0,0,2,-1,0,0,2021-08-07 11:38:48.643069
-6,-4,-1,-3,-1,-3,0,-1,2021-08-07 11:38:48.644068
-1,1,-3,0,-3,0,1,-2,2021-08-07 11:38:48.644068
-1,-1,0,-1,-1,0,0,0,2021-08-07 11:38:48.656066
-1,-2,-1,0,-1,-2,-1,1,2021-08-07 11:38:48.656066
4,2,-2,-2,-4,-1,0,1,2021-08-07 11:38:48.665067
2,1,0,-1,-1,-2,2,2,2021-08-07 11:38:48.665067
-1,-2,-3,-6,-2,-2,-1,-4,2021-08-07 11:38:48.680066
1,0,0,4,3,2,0,0,2021-08-07 11:38:48.680066
-1,-2,-4,-9,-14,-5,-1,4,2021-08-07 11:38:48.681069
2,3,2,7,14,7,1,-3,2021-08-07 11:38:48.682068
-5,-3,-1,6,-2,-3,-4,-6,2021-08-07 11:38:48.702066
-5,-4,-3,-5,-8,-5,-1,-4,2021-08-07 11:38:48.703067
1,2,2,6,10,2,2,2,2021-08-07 11:38:48.704067
1,0,-4,-11,-14,-6,-2,3,2021-08-07 11:38:48.704067
0,2,-3,-8,-9,-4,1,2,2021-08-07 11:38:48.716066
4,4,9,24,29,13,4,3,2021-08-07 11:38:48.716066
-1,-2,-1,5,1,-1,0,-1,2021-08-07 11:38:48.725068
-2,-1,-1,-3,-5,-2,1,0,2021-08-07 11:38:48.725068
-1,2,-1,-9,-8,-4,-2,-3,2021-08-07 11:38:48.740065
-1,-3,-6,-2,-1,-1,-2,0,2021-08-07 11:38:48.740065
-1,-1,0,1,2,2,-2,-3,2021-08-07 11:38:48.741067
-2,-2,-1,1,0,-1,-1,-1,2021-08-07 11:38:48.742068
5,5,5,6,3,3,3,4,2021-08-07 11:38:48.762065
-4,-4,-8,-18,-14,-7,-4,-2,2021-08-07 11:38:48.763066
-2,-4,-6,-12,-12,-8,-2,-2,2021-08-07 11:38:48.764068
-2,-2,3,14,18,8,0,-1,2021-08-07 11:38:48.764068
0,-1,2,9,4,1,1,0,2021-08-07 11:38:48.776066
5,5,2,-2,-4,0,2,2,2021-08-07 11:38:48.776066
-1,1,-1,4,4,1,0,-4,2021-08-07 11:38:48.785066
-3,-5,-3,-3,-3,1,2,1,2021-08-07 11:38:48.785066
2,3,3,3,8,4,1,2,2021-08-07 11:38:48.800067
-7,-7,-5,-6,-7,-9,-8,-7,2021-08-07 11:38:48.800067
-4,-5,-4,-5,-9,-8,-7,-6,2021-08-07 11:38:48.801066
3,3,-2,-6,-4,-3,1,2,2021-08-07 11:38:48.802067
-4,-4,-2,0,0,-1,2,-1,2021-08-07 11:38:48.822066
3,4,5,4,2,4,5,4,2021-08-07 11:38:48.823067
0,1,-3,-5,-9,-3,-1,-1,2021-08-07 11:38:48.824067
-3,-5,-5,-8,-3,-1,-2,-2,2021-08-07 11:38:48.824067
1,3,3,11,15,6,1,2,2021-08-07 11:38:48.836067
-2,-2,-2,-1,-6,-2,-4,-2,2021-08-07 11:38:48.836067
-1,-2,1,4,8,2,2,-2,2021-08-07 11:38:48.845066
-1,-1,-3,-9,-17,-7,-3,-2,2021-08-07 11:38:48.845066
-5,-5,-9,-19,-16,-8,-5,-5,2021-08-07 11:38:48.860065
-2,-1,1,9,9,4,2,1,2021-08-07 11:38:48.860065
5,8,7,8,8,3,1,3,2021-08-07 11:38:48.861065
0,-1,0,2,1,3,-1,-2,2021-08-07 11:38:48.862065
-2,-5,-4,-5,-4,-4,-3,-1,2021-08-07 11:38:48.883066
-1,-1,0,-6,-4,-4,0,-1,2021-08-07 11:38:48.883066
-3,-2,-3,-4,-3,0,-2,0,2021-08-07 11:38:48.884067
-2,-4,-3,-6,-7,-5,-2,-2,2021-08-07 11:38:48.884067
2,1,1,-2,-1,1,1,0,2021-08-07 11:38:48.896067
-2,-2,-2,1,1,0,-1,-1,2021-08-07 11:38:48.896067
0,-2,0,5,6,3,2,0,2021-08-07 11:38:48.905066
-1,2,2,0,0,-1,-2,-1,2021-08-07 11:38:48.905066
1,1,-1,2,-1,0,2,2,2021-08-07 11:38:48.920065
-1,0,1,4,0,-2,0,0,2021-08-07 11:38:48.920065
0,-3,-3,1,-3,0,0,0,2021-08-07 11:38:48.921065
0,-1,9,11,12,3,0,0,2021-08-07 11:38:48.922069
2,4,8,11,4,3,1,0,2021-08-07 11:38:48.942066
0,-1,-21,-22,-7,0,-2,-1,2021-08-07 11:38:48.943066
-13,-16,-29,-56,-32,-19,-11,-9,2021-08-07 11:38:48.944068
-4,-5,-13,-12,-14,-6,-4,-3,2021-08-07 11:38:48.944068
1,-2,1,3,2,0,-2,2,2021-08-07 11:38:48.965066
4,5,13,20,10,5,2,2,2021-08-07 11:38:48.965066
4,3,9,20,6,5,4,2,2021-08-07 11:38:48.966070
0,1,7,11,15,6,2,1,2021-08-07 11:38:48.967067
-2,0,3,12,2,-1,0,-1,2021-08-07 11:38:48.980066
1,3,4,4,5,4,3,2,2021-08-07 11:38:48.980066
1,4,2,-3,-2,0,1,2,2021-08-07 11:38:48.982066
-2,-4,-3,-10,-11,-7,-2,-3,2021-08-07 11:38:48.982066
-5,-8,-10,-11,-6,-4,-5,-5,2021-08-07 11:38:49.003068
2,1,-2,-5,-3,-1,2,0,2021-08-07 11:38:49.003068
-1,-1,2,10,4,-1,-2,-3,2021-08-07 11:38:49.004068
0,0,-1,-3,2,1,-1,1,2021-08-07 11:38:49.004068
0,-1,0,6,0,0,-1,0,2021-08-07 11:38:49.025068
-5,-4,-1,-5,-6,-7,-5,-4,2021-08-07 11:38:49.025068
-1,0,0,-9,-7,-4,-2,-2,2021-08-07 11:38:49.027066
1,0,0,10,4,1,2,1,2021-08-07 11:38:49.027066
0,-3,-4,-8,3,3,2,-3,2021-08-07 11:38:49.040065
0,-1,1,-2,-7,-4,-2,-1,2021-08-07 11:38:49.040065
2,2,3,7,8,3,3,-1,2021-08-07 11:38:49.042067
-1,-1,-3,-4,-3,-3,-2,-1,2021-08-07 11:38:49.042067
-4,-4,-7,-13,-10,-6,-4,-2,2021-08-07 11:38:49.063065
-4,-2,-1,1,3,3,-2,-1,2021-08-07 11:38:49.063065
-2,1,3,3,5,2,0,0,2021-08-07 11:38:49.064066
-1,-1,-1,-3,-6,-2,-2,-3,2021-08-07 11:38:49.064066
-1,0,-1,-7,-7,-2,-2,-1,2021-08-07 11:38:49.085066
1,3,5,10,4,0,-1,0,2021-08-07 11:38:49.085066
0,-1,6,6,0,2,1,2,2021-08-07 11:38:49.087067
-6,-7,-18,-21,-7,-5,-3,-3,2021-08-07 11:38:49.087067
3,5,2,5,7,3,3,1,2021-08-07 11:38:49.100069
-4,-5,-8,-11,-6,-3,-1,-2,2021-08-07 11:38:49.100069
0,-2,1,9,8,4,0,-3,2021-08-07 11:38:49.102068
5,9,17,25,18,8,4,3,2021-08-07 11:38:49.102068
-2,-1,-4,-8,-7,-4,-2,-1,2021-08-07 11:38:49.122067
-4,-5,-7,-14,-13,-8,-4,-3,2021-08-07 11:38:49.122067
4,0,0,0,1,2,2,2,2021-08-07 11:38:49.122067
-2,-5,-2,-3,-1,-3,-2,0,2021-08-07 11:38:49.123066
-5,-1,-1,0,-2,-1,-1,-5,2021-08-07 11:38:49.144066
0,1,4,4,4,4,0,-3,2021-08-07 11:38:49.144066
-5,-3,-2,0,-2,-1,-4,-3,2021-08-07 11:38:49.145066
1,1,-2,-6,-9,-4,-3,-3,2021-08-07 11:38:49.145066
-1,-2,-2,-8,-8,-6,-2,-3,2021-08-07 11:38:49.159067
1,1,4,10,7,4,2,1,2021-08-07 11:38:49.160067
2,0,0,9,12,3,2,2,2021-08-07 11:38:49.160067
2,2,2,2,-2,0,0,1,2021-08-07 11:38:49.160067
0,-1,-1,-5,-4,-2,-1,0,2021-08-07 11:38:49.182066
-5,-6,-7,-12,-15,-7,-6,-4,2021-08-07 11:38:49.182066
1,2,0,-3,2,1,-1,2,2021-08-07 11:38:49.182066
-2,0,3,8,5,2,1,0,2021-08-07 11:38:49.183068
1,-1,-1,0,-1,0,0,0,2021-08-07 11:38:49.205067
-2,-3,-4,-6,-7,-3,-2,-3,2021-08-07 11:38:49.205067
1,-1,-3,-4,-6,-4,-2,1,2021-08-07 11:38:49.205067
2,2,4,7,11,4,2,1,2021-08-07 11:38:49.206067
-2,-1,-2,2,0,0,-1,-1,2021-08-07 11:38:49.219599
-1,-1,-1,-3,-6,-3,-1,-1,2021-08-07 11:38:49.219599
-4,-2,-2,-7,-13,-8,-3,-2,2021-08-07 11:38:49.219599
-1,-2,-4,0,0,2,-2,-1,2021-08-07 11:38:49.220597
0,2,1,0,0,0,0,2,2021-08-07 11:38:49.250126
0,0,2,10,11,3,1,0,2021-08-07 11:38:49.250126
-4,-5,-10,-24,-34,-14,-6,-2,2021-08-07 11:38:49.251124
3,3,13,35,45,17,5,3,2021-08-07 11:38:49.251124
2,2,6,11,8,5,1,-1,2021-08-07 11:38:49.264125
-3,-2,-7,-8,-10,-6,-4,-1,2021-08-07 11:38:49.264125
-1,-3,-5,-9,-8,-6,-2,-4,2021-08-07 11:38:49.265125
-6,-6,-9,-22,-27,-12,-7,-5,2021-08-07 11:38:49.265125
5,4,8,18,17,6,2,1,2021-08-07 11:38:49.279125
-2,-2,-5,-6,-6,-3,-2,0,2021-08-07 11:38:49.280126
6,9,6,10,9,7,5,5,2021-08-07 11:38:49.280126
0,0,0,2,5,0,-1,1,2021-08-07 11:38:49.280126
-3,-2,3,-4,-9,-6,-3,-4,2021-08-07 11:38:49.302125
-5,-5,-6,-4,-4,-2,-2,-3,2021-08-07 11:38:49.302125
-1,-1,-1,-1,4,0,-2,-2,2021-08-07 11:38:49.302125
-1,-3,-3,-14,-17,-7,-2,-1,2021-08-07 11:38:49.303126
-2,-3,-8,-10,-8,-5,-3,-2,2021-08-07 11:38:49.324125
0,-1,-2,-5,-9,-5,-1,-1,2021-08-07 11:38:49.324125
-3,-4,-4,-7,2,3,-2,-2,2021-08-07 11:38:49.325126
2,3,7,11,2,1,2,1,2021-08-07 11:38:49.325126
-1,0,0,6,14,4,0,0,2021-08-07 11:38:49.339125
1,2,8,4,-2,-1,-1,0,2021-08-07 11:38:49.339125
0,0,-8,-1,3,-2,0,-1,2021-08-07 11:38:49.340126
-3,-5,-5,-13,-13,-6,-2,-3,2021-08-07 11:38:49.340126
-2,-3,0,11,10,5,0,0,2021-08-07 11:38:49.362125
3,2,0,-4,3,2,0,1,2021-08-07 11:38:49.362125
0,-1,4,7,4,1,1,-1,2021-08-07 11:38:49.363126
-3,-1,-4,-17,-18,-7,-3,-2,2021-08-07 11:38:49.363126
-7,-8,-9,-13,-13,-9,-3,-4,2021-08-07 11:38:49.384126
2,4,6,13,13,8,3,3,2021-08-07 11:38:49.385126
-1,-3,1,2,1,-1,-2,-2,2021-08-07 11:38:49.385126
0,2,-3,5,5,1,0,0,2021-08-07 11:38:49.385126
1,0,2,3,5,3,0,0,2021-08-07 11:38:49.399125
-7,-6,-2,-8,-10,-6,-5,-4,2021-08-07 11:38:49.400126
3,3,-3,3,8,3,3,4,2021-08-07 11:38:49.400126
1,-2,-9,-11,-12,-3,-2,-2,2021-08-07 11:38:49.400126
-1,1,0,5,10,3,-1,1,2021-08-07 11:38:49.422126
0,1,5,5,3,0,2,0,2021-08-07 11:38:49.422126
-4,-5,6,6,1,-2,-3,-2,2021-08-07 11:38:49.422126
0,-1,-3,-14,-14,-6,0,-1,2021-08-07 11:38:49.423127
-4,-4,-9,-15,-11,-6,-3,-2,2021-08-07 11:38:49.444646
-1,-2,-4,-6,-3,-2,-2,-1,2021-08-07 11:38:49.444646
1,2,6,13,15,5,1,-1,2021-08-07 11:38:49.444646
-3,-3,1,0,-2,-1,-2,-1,2021-08-07 11:38:49.445645
-2,-3,-5,-11,-10,2,9,4,2021-08-07 11:38:49.458645
5,4,2,5,4,8,7,5,2021-08-07 11:38:49.458645
4,5,0,-4,-3,-2,-8,0,2021-08-07 11:38:49.466645
-13,-9,-2,9,4,-19,-23,-19,2021-08-07 11:38:49.466645
-4,-6,-5,-8,-10,-7,-7,-5,2021-08-07 11:38:49.481644
-2,-3,-6,-8,-7,-4,-1,-2,2021-08-07 11:38:49.481644
3,4,2,1,-2,9,10,7,2021-08-07 11:38:49.482645
8,8,3,5,13,11,8,8,2021-08-07 11:38:49.482645
-2,-2,-2,-5,-5,-2,-4,-2,2021-08-07 11:38:49.512647
-5,-6,-9,-9,-4,-3,-1,-3,2021-08-07 11:38:49.512647
0,0,4,-1,-11,-3,-1,0,2021-08-07 11:38:49.513645
-3,-2,-5,-10,-9,-2,0,-1,2021-08-07 11:38:49.513645
2,5,7,18,24,10,4,3,2021-08-07 11:38:49.519645
-2,-1,-3,-6,-6,-3,-1,-1,2021-08-07 11:38:49.519645
-5,-4,-2,-5,0,-5,-4,-5,2021-08-07 11:38:49.519645
1,-1,-1,3,-7,-3,2,1,2021-08-07 11:38:49.520646
2,0,-2,-9,-4,0,-1,-1,2021-08-07 11:38:49.541644
-3,-2,-2,2,7,0,-4,-4,2021-08-07 11:38:49.542648
-1,2,2,11,19,6,2,-1,2021-08-07 11:38:49.542648
6,6,7,8,8,9,7,5,2021-08-07 11:38:49.542648
8,6,4,-3,-13,12,22,10,2021-08-07 11:38:49.564650
4,0,3,9,21,14,2,2,2021-08-07 11:38:49.564650
-10,-10,-8,-3,-7,-24,-29,-17,2021-08-07 11:38:49.564650
-31,-22,-17,-22,-32,-52,-46,-34,2021-08-07 11:38:49.565650
-3,0,0,-7,-7,-8,-8,-3,2021-08-07 11:38:49.578646
4,2,-1,-6,-2,8,13,9,2021-08-07 11:38:49.578646
23,14,14,25,24,53,53,32,2021-08-07 11:38:49.587179
16,12,8,14,19,18,7,12,2021-08-07 11:38:49.587179
-27,-18,-13,-22,-43,-68,-62,-46,2021-08-07 11:38:49.601704
-11,-9,-8,-10,-16,-17,-9,-8,2021-08-07 11:38:49.602702
-4,-6,-6,-9,-3,-2,-2,-2,2021-08-07 11:38:49.602702
2,0,3,9,15,20,19,9,2021-08-07 11:38:49.602702
25,20,15,22,34,49,43,31,2021-08-07 11:38:49.624702
10,7,5,5,0,-4,-9,4,2021-08-07 11:38:49.624702
-33,-26,-19,-27,-41,-55,-49,-41,2021-08-07 11:38:49.624702
4,-2,-4,-6,0,5,11,7,2021-08-07 11:38:49.625706
3,-2,-4,-6,-7,3,4,7,2021-08-07 11:38:49.638702
3,4,5,9,8,3,1,-3,2021-08-07 11:38:49.638702
1,5,2,11,17,13,9,4,2021-08-07 11:38:49.646702
2,-2,-5,-12,-12,-1,1,3,2021-08-07 11:38:49.646702
0,0,0,2,-4,-5,-5,-3,2021-08-07 11:38:49.661702
2,4,6,14,21,24,17,7,2021-08-07 11:38:49.662703
5,3,-4,-15,-21,-5,1,6,2021-08-07 11:38:49.662703
-24,-18,-14,-22,-24,-42,-39,-30,2021-08-07 11:38:49.662703
1,4,10,34,34,9,1,1,2021-08-07 11:38:49.684703
1,1,4,10,9,3,0,-1,2021-08-07 11:38:49.684703
3,4,4,9,6,2,4,3,2021-08-07 11:38:49.685703
1,1,0,-1,-1,5,8,3,2021-08-07 11:38:49.685703
5,0,-5,-9,-11,8,9,9,2021-08-07 11:38:49.707702
2,3,5,-1,0,-9,-8,-4,2021-08-07 11:38:49.707702
-15,-13,-12,-18,-22,-15,-9,-12,2021-08-07 11:38:49.714704
19,15,15,24,28,49,41,27,2021-08-07 11:38:49.714704
7,2,-3,-7,-3,-6,-8,2,2021-08-07 11:38:49.721703
-28,-20,-14,-11,-22,-60,-57,-42,2021-08-07 11:38:49.721703
-7,-6,-5,-7,-8,-8,-5,-3,2021-08-07 11:38:49.722703
-1,-3,-1,-1,-8,-10,-8,-5,2021-08-07 11:38:49.722703
-4,-5,-11,-20,-14,2,9,1,2021-08-07 11:38:49.744703
15,8,2,-16,-9,22,22,19,2021-08-07 11:38:49.744703
18,16,22,50,63,26,12,11,2021-08-07 11:38:49.744703
-16,-16,-13,-12,-20,-12,-10,-14,2021-08-07 11:38:49.745703
8,8,7,3,-7,5,8,8,2021-08-07 11:38:49.758704
-1,0,2,16,26,6,0,0,2021-08-07 11:38:49.758704
-5,-7,-13,-42,-49,-20,-9,-4,2021-08-07 11:38:49.766704
14,17,17,24,45,27,17,15,2021-08-07 11:38:49.766704
-9,-9,-4,8,12,-9,-9,-9,2021-08-07 11:38:49.791702
-9,-8,-11,-34,-22,-9,-4,-6,2021-08-07 11:38:49.791702
6,6,6,14,8,11,7,6,2021-08-07 11:38:49.792703
-4,-9,-12,-20,-40,-18,-9,-5,2021-08-07 11:38:49.792703
4,8,19,57,76,22,3,1,2021-08-07 11:38:49.820223
-2,-2,-4,-15,-37,-12,-2,-2,2021-08-07 11:38:49.821225
7,3,-2,0,30,21,11,9,2021-08-07 11:38:49.821225
-4,-2,-3,-1,6,-5,-6,-2,2021-08-07 11:38:49.821225
-9,-7,-1,-16,-38,-16,-11,-7,2021-08-07 11:38:49.823224
8,12,20,46,39,19,14,9,2021-08-07 11:38:49.823224
5,2,1,16,2,4,0,3,2021-08-07 11:38:49.827225
-11,-18,-39,-75,-48,-22,-11,-11,2021-08-07 11:38:49.827225
-8,-7,-5,-8,12,6,-1,-3,2021-08-07 11:38:49.842224
-8,-13,-14,-19,-33,-18,-8,-4,2021-08-07 11:38:49.842224
2,7,13,11,4,-3,-1,0,2021-08-07 11:38:49.842224
9,14,19,31,9,9,7,6,2021-08-07 11:38:49.843223
4,3,4,15,8,4,1,1,2021-08-07 11:38:49.864224
-4,-8,-15,-19,-12,-4,-1,0,2021-08-07 11:38:49.864224
-6,-7,-12,-15,-6,-5,-4,-4,2021-08-07 11:38:49.865223
5,8,14,25,32,13,5,3,2021-08-07 11:38:49.865223
-9,-7,-9,-28,-44,-20,-11,-9,2021-08-07 11:38:49.879225
1,3,4,14,18,7,0,0,2021-08-07 11:38:49.879225
-4,-8,-10,-10,-10,-1,-3,-3,2021-08-07 11:38:49.894222
4,7,9,15,0,-3,1,2,2021-08-07 11:38:49.894222
-1,-3,-6,-18,-21,-8,-7,-4,2021-08-07 11:38:49.902222
-1,1,1,15,32,12,5,0,2021-08-07 11:38:49.902222
-5,-5,-4,-8,-7,-5,-4,-6,2021-08-07 11:38:49.902222
1,2,7,11,2,2,0,3,2021-08-07 11:38:49.903226
-1,-4,-11,-17,-17,-8,-2,-3,2021-08-07 11:38:49.924222
0,0,-4,-16,-16,-4,-2,1,2021-08-07 11:38:49.925225
0,-1,3,0,5,-1,-1,-2,2021-08-07 11:38:49.925225
-1,-2,0,0,0,1,-1,1,2021-08-07 11:38:49.925225
-3,-3,-7,-5,-5,0,1,1,2021-08-07 11:38:49.947221
2,0,1,0,-1,6,4,4,2021-08-07 11:38:49.948223
-8,-5,-3,-14,-27,-15,-8,-6,2021-08-07 11:38:49.948223
2,4,5,12,20,7,2,1,2021-08-07 11:38:49.948223
-5,-4,-4,-2,3,-1,-3,-3,2021-08-07 11:38:49.961221
-2,-1,-5,-9,-11,-8,-4,-3,2021-08-07 11:38:49.962223
5,7,8,13,7,5,3,4,2021-08-07 11:38:49.969221
1,0,-4,-5,1,1,0,1,2021-08-07 11:38:49.969221
-3,-5,-7,-13,-15,-9,-4,-3,2021-08-07 11:38:49.984224
1,1,1,-4,-6,-1,2,1,2021-08-07 11:38:49.984224
6,1,4,6,1,4,3,4,2021-08-07 11:38:49.985222
-1,-1,0,11,11,3,0,-1,2021-08-07 11:38:49.985222
2,3,6,12,14,5,1,-1,2021-08-07 11:38:50.016222
-5,-7,-8,-16,-28,-12,-3,-3,2021-08-07 11:38:50.017226
-3,-3,-4,-1,26,8,-2,-3,2021-08-07 11:38:50.017226
5,3,7,11,7,6,7,2,2021-08-07 11:38:50.017226
-2,0,-1,-8,-16,-9,-4,-1,2021-08-07 11:38:50.022227
-1,1,5,18,27,7,1,-2,2021-08-07 11:38:50.022227
-1,0,-2,-10,-18,-9,-4,-2,2021-08-07 11:38:50.022227
-3,-3,-5,-4,0,0,-5,-4,2021-08-07 11:38:50.023224
-1,-1,-2,-6,-2,0,2,-2,2021-08-07 11:38:50.044223
-2,-2,-1,-2,-11,-2,-1,-1,2021-08-07 11:38:50.044223
6,4,8,14,17,9,4,4,2021-08-07 11:38:50.045223
-7,-9,-10,-13,-15,-9,-6,-5,2021-08-07 11:38:50.045223
2,4,3,11,18,9,3,3,2021-08-07 11:38:50.067224
1,0,1,1,-2,-2,-1,-1,2021-08-07 11:38:50.067224
-3,-4,-8,-15,-20,-8,-2,-2,2021-08-07 11:38:50.068224
-3,-3,-3,-2,-2,-4,-2,-3,2021-08-07 11:38:50.068224
0,2,2,-1,-3,0,0,1,2021-08-07 11:38:50.082223
-2,2,1,2,14,5,1,1,2021-08-07 11:38:50.082223
-3,-3,1,10,3,1,-1,-1,2021-08-07 11:38:50.082223
0,0,0,-5,-9,-6,-3,0,2021-08-07 11:38:50.083230
-6,-6,-10,-19,-23,-9,-5,-5,2021-08-07 11:38:50.104225
4,0,3,4,10,6,3,1,2021-08-07 11:38:50.104225
3,2,4,6,5,0,2,0,2021-08-07 11:38:50.105223
2,-1,-2,-9,-10,0,0,1,2021-08-07 11:38:50.105223
-3,-4,-1,5,5,1,-1,-2,2021-08-07 11:38:50.127224
-4,-3,-7,-9,-3,-3,-3,-2,2021-08-07 11:38:50.127224
1,2,2,9,0,-2,0,1,2021-08-07 11:38:50.128222
-1,-1,-2,-7,-2,-1,-2,-1,2021-08-07 11:38:50.128222
3,5,2,3,11,5,2,2,2021-08-07 11:38:50.142224
2,-1,1,3,0,2,2,0,2021-08-07 11:38:50.142224
-3,0,0,4,7,2,1,0,2021-08-07 11:38:50.142224
-1,0,-4,-6,6,-1,0,1,2021-08-07 11:38:50.143225
-8,-9,-11,-24,-29,-14,-7,-8,2021-08-07 11:38:50.165223
4,6,7,17,18,8,4,3,2021-08-07 11:38:50.165223
-3,-3,-4,-7,-7,-2,-2,-3,2021-08-07 11:38:50.172223
0,1,6,14,9,7,2,1,2021-08-07 11:38:50.172223
-1,-1,1,9,2,-1,0,-1,2021-08-07 11:38:50.187224
-3,-6,-4,-9,-6,-5,-4,-3,2021-08-07 11:38:50.188223
-2,0,0,-6,5,3,0,0,2021-08-07 11:38:50.188223
-4,-4,-5,-3,-14,-7,-5,-4,2021-08-07 11:38:50.188223
3,5,3,2,11,3,2,2,2021-08-07 11:38:50.202223
-1,0,0,1,-4,-2,-2,-1,2021-08-07 11:38:50.202223
-3,-3,-5,-8,-12,-7,-5,-2,2021-08-07 11:38:50.202223
-1,-3,-3,-8,-3,-2,-1,0,2021-08-07 11:38:50.202223
3,4,7,21,24,11,5,2,2021-08-07 11:38:50.225223
-7,-9,-8,-15,-26,-12,-6,-4,2021-08-07 11:38:50.225223
-1,1,-5,-23,-36,-12,-4,-2,2021-08-07 11:38:50.226226
5,6,8,10,17,9,4,5,2021-08-07 11:38:50.226226
0,-1,0,12,18,7,1,-1,2021-08-07 11:38:50.247226
-3,-1,0,3,1,-2,-1,-3,2021-08-07 11:38:50.248222
-5,-3,-3,-10,-16,-7,-5,-3,2021-08-07 11:38:50.248222
-4,-4,-8,-8,1,-3,-1,-2,2021-08-07 11:38:50.248222
-1,-2,-6,-17,-18,-7,-3,-1,2021-08-07 11:38:50.262223
-1,-2,-1,2,-5,-4,-2,-2,2021-08-07 11:38:50.262223
1,0,2,8,14,4,2,1,2021-08-07 11:38:50.262766
2,1,0,-3,-7,-2,0,-1,2021-08-07 11:38:50.262766
-1,-2,0,7,11,2,0,1,2021-08-07 11:38:50.285269
-3,-2,-1,-3,-9,-5,-3,-2,2021-08-07 11:38:50.285269
-8,-12,-13,-21,-12,-9,-7,-7,2021-08-07 11:38:50.286270
10,13,11,18,25,14,7,6,2021-08-07 11:38:50.286270
2,2,7,11,-6,-4,-1,-1,2021-08-07 11:38:50.307268
3,2,-2,-8,-6,-1,0,1,2021-08-07 11:38:50.308271
-5,-6,-7,-6,-6,-5,-3,-3,2021-08-07 11:38:50.308271
-7,-8,-8,-5,-13,-5,-4,-7,2021-08-07 11:38:50.308271
0,3,6,16,19,5,1,0,2021-08-07 11:38:50.322269
-2,-2,-3,-9,-13,-3,-1,0,2021-08-07 11:38:50.322269
-3,-2,-7,-23,-32,-13,-5,-3,2021-08-07 11:38:50.323268
5,5,14,39,59,21,6,5,2021-08-07 11:38:50.323268
-1,-2,-3,-1,-6,-2,0,-1,2021-08-07 11:38:50.345270
-4,-6,-11,-18,-7,-4,-3,-3,2021-08-07 11:38:50.345270
-1,2,4,-3,-6,-1,0,-1,2021-08-07 11:38:50.346270
-3,-7,-11,-18,-27,-14,-4,-3,2021-08-07 11:38:50.346270
1,0,4,6,6,4,0,1,2021-08-07 11:38:50.368269
-2,-4,-5,-4,-10,-6,-4,-2,2021-08-07 11:38:50.368269
-4,-6,-6,-11,-12,-5,0,0,2021-08-07 11:38:50.368269
14,23,30,55,72,30,14,11,2021-08-07 11:38:50.368269
1,-1,-1,-2,1,-1,1,-1,2021-08-07 11:38:50.382270
-1,0,-2,3,-4,-1,-1,-1,2021-08-07 11:38:50.382270
0,0,1,5,-6,-1,-2,0,2021-08-07 11:38:50.382270
-11,-13,-17,-41,-58,-25,-12,-9,2021-08-07 11:38:50.383271
-1,-2,-1,5,25,6,1,0,2021-08-07 11:38:50.405268
8,11,14,27,36,16,7,6,2021-08-07 11:38:50.405268
1,-1,-1,3,-3,-1,0,0,2021-08-07 11:38:50.406271
-6,-6,-4,-4,-6,-2,-4,-2,2021-08-07 11:38:50.406271
-5,-5,-6,-12,-13,-5,-3,-5,2021-08-07 11:38:50.427269
0,2,-1,2,-1,0,1,0,2021-08-07 11:38:50.428271
3,3,7,22,29,10,4,0,2021-08-07 11:38:50.428271
-8,-8,-10,-29,-56,-22,-9,-7,2021-08-07 11:38:50.428271
-5,-4,-8,-14,-17,-7,-3,-1,2021-08-07 11:38:50.442271
4,3,10,25,47,17,7,4,2021-08-07 11:38:50.442271
1,0,-2,3,1,1,1,1,2021-08-07 11:38:50.442271
0,0,-3,-7,-3,-2,-2,-3,2021-08-07 11:38:50.443268
-8,-7,-7,-19,-31,-11,-7,-5,2021-08-07 11:38:50.465269
-1,-1,-2,-5,10,3,0,-1,2021-08-07 11:38:50.465269
2,3,4,8,10,5,2,2,2021-08-07 11:38:50.466269
-4,-3,2,-3,-22,-10,-4,-3,2021-08-07 11:38:50.466269
-1,-4,-7,6,14,3,-1,-1,2021-08-07 11:38:50.487270
0,1,-5,-24,-34,-11,-3,-2,2021-08-07 11:38:50.487270
1,-2,3,15,22,7,1,-1,2021-08-07 11:38:50.488270
-1,-2,-2,2,1,-1,0,-2,2021-08-07 11:38:50.488270
-3,-3,-5,-18,-21,-11,-5,-3,2021-08-07 11:38:50.502272
2,0,7,25,35,14,5,3,2021-08-07 11:38:50.502272
-2,-2,-2,-6,6,2,-4,-3,2021-08-07 11:38:50.509272
5,5,4,3,8,5,3,3,2021-08-07 11:38:50.509272
1,-1,-2,-3,-17,-6,-2,-1,2021-08-07 11:38:50.525269
-9,-10,-17,-39,-49,-20,-9,-7,2021-08-07 11:38:50.525269
-1,0,4,26,55,15,2,0,2021-08-07 11:38:50.526273
2,3,3,-5,-1,0,2,2,2021-08-07 11:38:50.526273
2,1,-3,8,11,7,3,0,2021-08-07 11:38:50.547268
0,1,1,-1,-11,-4,-1,0,2021-08-07 11:38:50.547268
0,-2,-2,2,-4,-1,0,-1,2021-08-07 11:38:50.548270
-7,-7,-4,2,-4,-3,-4,-3,2021-08-07 11:38:50.548270
3,1,2,-7,0,0,0,0,2021-08-07 11:38:50.561269
1,3,3,-2,-6,-4,-2,0,2021-08-07 11:38:50.561269
1,3,3,-3,-14,-5,-2,0,2021-08-07 11:38:50.569269
-2,-3,-3,0,9,0,-2,-2,2021-08-07 11:38:50.569269
-1,-3,-2,-6,-18,-6,-2,0,2021-08-07 11:38:50.586269
-4,-7,-11,-6,13,3,-1,-1,2021-08-07 11:38:50.586269
-1,0,-2,-15,-21,-5,-2,-2,2021-08-07 11:38:50.587270
3,3,2,17,25,8,3,2,2021-08-07 11:38:50.587270
-2,-1,1,4,1,2,0,0,2021-08-07 11:38:50.607270
0,1,5,0,-11,-5,-2,-2,2021-08-07 11:38:50.608269
6,7,8,10,6,2,3,3,2021-08-07 11:38:50.608269
-4,-6,-11,-23,-30,-11,-6,-3,2021-08-07 11:38:50.609269
-2,-4,-1,18,35,11,0,-2,2021-08-07 11:38:50.621272
-6,-6,-5,-9,-21,-7,-4,-3,2021-08-07 11:38:50.621272
-4,-3,-3,-9,5,-1,-2,0,2021-08-07 11:38:50.629270
0,1,2,10,9,5,0,-2,2021-08-07 11:38:50.629270
1,5,5,-2,-4,-1,1,1,2021-08-07 11:38:50.645269
0,-1,2,-1,-7,-5,-2,-1,2021-08-07 11:38:50.645269
-4,-3,-5,-7,-10,-4,-2,-3,2021-08-07 11:38:50.645269
3,4,10,17,4,2,0,3,2021-08-07 11:38:50.646274
5,4,10,22,27,11,4,2,2021-08-07 11:38:50.667271
0,0,-1,9,3,0,1,-1,2021-08-07 11:38:50.667271
-9,-12,-23,-51,-38,-15,-7,-5,2021-08-07 11:38:50.668270
-11,-16,-12,-18,0,-7,-7,-8,2021-08-07 11:38:50.668270
2,3,-6,-18,-20,-5,0,2,2021-08-07 11:38:50.681269
5,6,19,48,52,21,7,4,2021-08-07 11:38:50.681269
6,6,12,37,27,7,4,3,2021-08-07 11:38:50.689269
-4,-2,-2,-9,-14,-5,-3,-3,2021-08-07 11:38:50.689269
-6,-6,-6,-17,-20,-11,-7,-5,2021-08-07 11:38:50.705271
0,-1,-5,-10,-6,-3,-1,0,2021-08-07 11:38:50.705271
1,0,-1,-9,-13,-4,-1,1,2021-08-07 11:38:50.705271
-1,-1,-2,0,5,3,1,1,2021-08-07 11:38:50.706268
-1,-1,4,7,-5,-2,-2,0,2021-08-07 11:38:50.727270
2,3,4,8,21,9,0,1,2021-08-07 11:38:50.728268
-2,-2,-4,-5,-12,-4,-3,-2,2021-08-07 11:38:50.728268
2,3,1,6,15,6,2,2,2021-08-07 11:38:50.728268
0,-2,-1,-3,-5,-3,0,0,2021-08-07 11:38:50.741268
-5,-7,-8,-19,-28,-11,-5,-4,2021-08-07 11:38:50.741268
4,5,12,28,36,14,7,7,2021-08-07 11:38:50.749269
0,-2,-6,-11,-15,-7,-1,-3,2021-08-07 11:38:50.750272
-4,-4,-3,-11,-26,-6,-2,-2,2021-08-07 11:38:50.765268
-6,-3,2,21,44,13,1,-3,2021-08-07 11:38:50.765268
-4,1,1,0,0,0,-3,-4,2021-08-07 11:38:50.766271
-3,2,2,3,2,0,-3,-1,2021-08-07 11:38:50.766271
-1,1,3,0,-1,-3,-2,-1,2021-08-07 11:38:50.787270
0,-3,-8,-20,-29,-12,-2,-1,2021-08-07 11:38:50.787270
-1,-3,-5,-11,-19,-7,-2,-2,2021-08-07 11:38:50.788271
7,8,11,28,36,14,8,5,2021-08-07 11:38:50.788271
-3,-4,-4,-5,6,0,-3,-4,2021-08-07 11:38:50.801270
-7,-9,-13,-7,-5,-5,-5,-5,2021-08-07 11:38:50.801270
11,14,11,3,1,5,5,6,2021-08-07 11:38:50.809269
-4,-5,-11,-26,-31,-12,-4,-5,2021-08-07 11:38:50.809269
0,2,7,16,14,4,3,2,2021-08-07 11:38:50.825270
0,1,2,8,13,4,1,1,2021-08-07 11:38:50.825270
-3,0,-1,9,3,0,-1,0,2021-08-07 11:38:50.826270
-3,-6,-8,-25,-35,-14,-6,-3,2021-08-07 11:38:50.826270
-2,-1,-2,-5,5,3,2,0,2021-08-07 11:38:50.847272
-1,-1,2,1,-4,0,0,0,2021-08-07 11:38:50.847272
-3,-2,8,1,19,4,0,-3,2021-08-07 11:38:50.849270
2,2,-4,1,4,3,1,1,2021-08-07 11:38:50.849270
-4,-7,-14,-7,-5,-4,-4,-3,2021-08-07 11:38:50.861273
-2,-3,-8,-14,-20,-6,-3,0,2021-08-07 11:38:50.861273
-1,-2,-4,-12,-15,-5,-3,-1,2021-08-07 11:38:50.870268
-2,-2,4,8,3,1,-2,-3,2021-08-07 11:38:50.870268
0,1,7,0,-6,-2,-2,-1,2021-08-07 11:38:50.884270
3,1,0,7,10,4,1,1,2021-08-07 11:38:50.884270
4,2,4,9,7,5,4,1,2021-08-07 11:38:50.893269
-6,-7,-6,-16,-13,-7,-3,-3,2021-08-07 11:38:50.893269
2,1,1,9,13,3,1,0,2021-08-07 11:38:50.907269
0,3,7,9,5,2,0,1,2021-08-07 11:38:50.908271
-5,-7,-9,-8,-10,-6,-3,-3,2021-08-07 11:38:50.909269
-1,-3,-2,-8,-23,-9,-4,-2,2021-08-07 11:38:50.909269
1,0,-3,-14,4,3,1,0,2021-08-07 11:38:50.930270
4,3,12,22,14,5,1,1,2021-08-07 11:38:50.930270
0,0,0,17,17,6,1,0,2021-08-07 11:38:50.931270
-5,-6,-12,-30,-23,-7,-4,-2,2021-08-07 11:38:50.932271
-2,-1,0,11,21,3,-1,-1,2021-08-07 11:38:50.953269
-3,0,-3,-14,-8,-2,-2,-2,2021-08-07 11:38:50.953269
2,2,5,15,1,2,1,1,2021-08-07 11:38:50.954272
-1,-2,1,2,-5,-4,-2,-3,2021-08-07 11:38:50.955272
-1,-2,-4,-6,3,-1,-2,-3,2021-08-07 11:38:50.967271
-2,-3,-1,-5,-17,-7,-4,-3,2021-08-07 11:38:50.968270
5,8,8,15,11,5,6,4,2021-08-07 11:38:50.969270
2,1,-3,-1,7,2,1,1,2021-08-07 11:38:50.969270
-6,-9,-13,-17,-19,-9,-5,-5,2021-08-07 11:38:50.990269
-7,-8,-7,-18,-15,-11,-7,-6,2021-08-07 11:38:50.990269
-5,-11,-15,-16,-18,-7,-6,-5,2021-08-07 11:38:50.991272
7,12,18,45,49,17,6,6,2021-08-07 11:38:50.992275
0,0,4,10,-6,-2,0,0,2021-08-07 11:38:51.004268
3,5,3,-6,-6,-2,1,1,2021-08-07 11:38:51.004268
-2,-2,-3,4,23,6,1,0,2021-08-07 11:38:51.011269
1,1,1,1,3,3,1,2,2021-08-07 11:38:51.011269
-3,-2,-7,-9,-10,-4,-3,-1,2021-08-07 11:38:51.027269
0,-1,-1,-6,3,0,0,0,2021-08-07 11:38:51.027269
0,0,3,12,12,2,4,2,2021-08-07 11:38:51.029269
0,1,1,-5,-9,-2,-3,-1,2021-08-07 11:38:51.029269
-1,0,6,8,-4,-2,0,0,2021-08-07 11:38:51.050270
1,3,-3,-11,-8,-3,1,0,2021-08-07 11:38:51.050270
-5,-6,-7,-9,-3,-3,-3,-5,2021-08-07 11:38:51.051274
1,2,6,13,18,8,4,1,2021-08-07 11:38:51.051274
-1,-3,-1,-4,-14,-6,-3,-1,2021-08-07 11:38:51.064269
2,0,-6,-5,-5,-2,-1,2,2021-08-07 11:38:51.064269
-4,-6,-8,-17,-17,-8,-4,-3,2021-08-07 11:38:51.071270
-3,-2,-1,8,8,0,0,-3,2021-08-07 11:38:51.071270
1,5,5,7,20,8,3,3,2021-08-07 11:38:51.087269
0,0,3,7,-5,-2,-1,0,2021-08-07 11:38:51.087269
-2,-3,-4,-11,-15,-6,-4,-1,2021-08-07 11:38:51.089269
-5,-9,-14,-29,-25,-8,-5,-4,2021-08-07 11:38:51.089269
3,5,4,1,21,5,1,0,2021-08-07 11:38:51.110268
-4,-3,-4,-6,-6,-2,-4,-3,2021-08-07 11:38:51.110268
2,2,1,16,21,9,2,1,2021-08-07 11:38:51.111269
0,-1,1,6,1,-1,0,-1,2021-08-07 11:38:51.112272
0,-1,3,-1,-13,-6,-2,0,2021-08-07 11:38:51.124270
3,3,7,9,5,3,3,2,2021-08-07 11:38:51.124270
-4,-6,-13,-34,-39,-15,-8,-5,2021-08-07 11:38:51.131274
5,6,4,19,42,20,9,5,2021-08-07 11:38:51.131274
-6,-7,-2,-10,-12,-6,-5,-5,2021-08-07 11:38:51.148269
0,1,-1,9,12,4,1,2,2021-08-07 11:38:51.148269
-2,0,-2,-17,-28,-12,-3,-3,2021-08-07 11:38:51.150271
-2,-3,-2,-3,-12,-4,-3,-2,2021-08-07 11:38:51.150271
2,4,9,27,34,16,4,3,2021-08-07 11:38:51.170271
1,2,4,8,4,2,3,2,2021-08-07 11:38:51.170271
-1,-3,-7,1,5,1,-1,-1,2021-08-07 11:38:51.171271
-4,-4,-7,-24,-35,-16,-5,-4,2021-08-07 11:38:51.172271
-5,-5,-9,-19,-21,-9,-4,-5,2021-08-07 11:38:51.184270
9,11,13,36,54,20,10,7,2021-08-07 11:38:51.185269
-4,-3,-1,-2,-8,-3,-2,-4,2021-08-07 11:38:51.191269
0,1,2,0,9,1,-2,0,2021-08-07 11:38:51.191269
0,-1,4,1,-12,-3,-1,-2,2021-08-07 11:38:51.207268
-2,-2,-5,-3,-13,-6,-3,-2,2021-08-07 11:38:51.208268
-5,-8,-16,-30,-39,-16,-5,-3,2021-08-07 11:38:51.209272
1,1,3,7,31,13,4,3,2021-08-07 11:38:51.209272
2,-2,-5,0,8,5,2,0,2021-08-07 11:38:51.230269
-6,-6,-7,-18,-18,-9,-6,-4,2021-08-07 11:38:51.230269
3,4,9,19,19,6,2,1,2021-08-07 11:38:51.231268
-6,-6,-6,-16,-29,-11,-5,-4,2021-08-07 11:38:51.231268
0,0,-1,0,-12,-5,-1,0,2021-08-07 11:38:51.252269
0,0,-2,-11,-17,-2,-1,0,2021-08-07 11:38:51.253268
6,5,14,37,64,23,7,6,2021-08-07 11:38:51.254273
0,1,-1,-2,-10,-5,-2,-1,2021-08-07 11:38:51.254273
0,1,-2,-2,13,7,1,0,2021-08-07 11:38:51.268269
-5,-8,-10,-19,-36,-15,-7,-6,2021-08-07 11:38:51.268269
3,5,8,1,-17,-7,-1,2,2021-08-07 11:38:51.269272
0,-1,4,34,41,17,6,0,2021-08-07 11:38:51.269272
4,6,4,1,8,4,1,0,2021-08-07 11:38:51.297270
-10,-11,-21,-43,-16,-6,-6,-6,2021-08-07 11:38:51.298267
-4,-6,-10,-19,-15,-7,-5,-3,2021-08-07 11:38:51.299270
-4,-3,-2,-5,-15,-10,-3,-5,2021-08-07 11:38:51.299270
1,4,8,13,-13,-3,1,2,2021-08-07 11:38:51.304269
4,4,8,16,22,8,2,4,2021-08-07 11:38:51.304269
2,5,7,15,15,8,3,0,2021-08-07 11:38:51.311269
-2,-4,-5,-11,-21,-8,-3,-1,2021-08-07 11:38:51.311269
-4,-6,-7,-9,-6,-2,-1,-3,2021-08-07 11:38:51.327268
-3,-2,-2,-8,-15,-6,-2,-3,2021-08-07 11:38:51.327268
-1,1,5,22,41,12,3,3,2021-08-07 11:38:51.329270
2,2,6,11,1,2,1,1,2021-08-07 11:38:51.329270
0,-1,-3,-5,3,-2,-1,1,2021-08-07 11:38:51.350269
-2,-4,-2,10,16,5,-1,-3,2021-08-07 11:38:51.351269
-2,-3,-6,-18,-23,-8,-4,-3,2021-08-07 11:38:51.352269
-3,-2,-2,-6,-5,-5,-3,-2,2021-08-07 11:38:51.352269
0,1,-1,1,0,-3,-2,0,2021-08-07 11:38:51.364268
-2,-4,-10,-15,-12,-3,-2,-2,2021-08-07 11:38:51.364268
-2,-4,-6,-6,-1,-1,-3,-3,2021-08-07 11:38:51.372269
2,0,1,-2,6,0,-1,-2,2021-08-07 11:38:51.373269
0,0,1,-5,-12,-6,-1,-1,2021-08-07 11:38:51.386270
2,6,18,15,5,2,1,0,2021-08-07 11:38:51.387271
2,6,18,10,4,1,2,1,2021-08-07 11:38:51.395269
-3,-11,-26,-7,-6,-2,-2,-2,2021-08-07 11:38:51.395269
-3,-4,-17,-7,-5,-2,-2,-1,2021-08-07 11:38:51.410267
5,18,34,13,7,4,3,3,2021-08-07 11:38:51.410267
1,0,-5,-7,-6,-2,1,2,2021-08-07 11:38:51.411269
-10,-35,-35,-13,-12,-7,-4,-4,2021-08-07 11:38:51.411269
-7,-16,-39,-9,1,-1,-3,-2,2021-08-07 11:38:51.423269
-2,-4,-16,0,6,-1,-1,-2,2021-08-07 11:38:51.424271
1,10,17,-11,-27,-8,-2,-1,2021-08-07 11:38:51.432269
4,17,25,13,24,5,1,1,2021-08-07 11:38:51.433269
4,5,11,15,16,8,4,3,2021-08-07 11:38:51.447269
1,3,15,15,14,5,2,-1,2021-08-07 11:38:51.448267
-2,-3,-14,-11,-16,-6,-1,-2,2021-08-07 11:38:51.449267
-3,0,-6,-16,-23,-11,-4,-2,2021-08-07 11:38:51.449267
-2,2,11,10,13,6,0,0,2021-08-07 11:38:51.470269
0,-1,0,7,3,-1,-2,-1,2021-08-07 11:38:51.470269
-3,-5,-7,1,1,1,-1,0,2021-08-07 11:38:51.471272
-3,0,-1,-11,-15,-6,-5,-3,2021-08-07 11:38:51.472269
-4,-3,3,-9,-9,-5,-4,-3,2021-08-07 11:38:51.483271
1,0,-1,-1,-4,1,1,1,2021-08-07 11:38:51.484271
2,-1,0,7,11,3,1,2,2021-08-07 11:38:51.493271
1,7,5,-4,-11,-2,0,1,2021-08-07 11:38:51.493271
-3,-2,-2,-8,-6,-8,-5,-4,2021-08-07 11:38:51.507268
-3,-9,-17,-23,-18,-8,-3,-3,2021-08-07 11:38:51.507268
-4,-6,2,12,9,4,0,-2,2021-08-07 11:38:51.509270
7,11,19,42,55,22,8,4,2021-08-07 11:38:51.509270
4,9,10,2,-2,-1,3,4,2021-08-07 11:38:51.530269
-8,-11,-19,-18,-13,-9,-7,-4,2021-08-07 11:38:51.530269
0,0,-6,-16,-12,-3,-1,-2,2021-08-07 11:38:51.531270
-6,-5,-6,-36,-41,-19,-6,-4,2021-08-07 11:38:51.532268
0,1,7,28,34,12,2,0,2021-08-07 11:38:51.560269
1,-1,-7,4,-3,-1,0,-1,2021-08-07 11:38:51.560269
-2,-2,-6,-13,-11,-5,-3,-4,2021-08-07 11:38:51.561268
-2,-4,-2,-8,-4,0,-2,-1,2021-08-07 11:38:51.562275
1,0,7,-6,-17,-6,2,0,2021-08-07 11:38:51.567270
0,1,2,6,1,2,3,2,2021-08-07 11:38:51.567270
1,1,2,10,19,7,3,1,2021-08-07 11:38:51.569272
-4,-6,-8,-10,-5,-4,-1,-4,2021-08-07 11:38:51.569272
-4,-2,-2,-2,-6,-4,-3,-4,2021-08-07 11:38:51.590269
2,1,4,2,-7,-6,-2,0,2021-08-07 11:38:51.590269
3,4,4,19,26,12,5,4,2021-08-07 11:38:51.591271
-3,-1,1,-12,-14,-8,-4,-4,2021-08-07 11:38:51.592271
2,0,1,5,-3,-1,-1,1,2021-08-07 11:38:51.603269
2,0,-3,2,8,5,1,0,2021-08-07 11:38:51.604270
-2,-2,-9,-20,-21,-10,-5,0,2021-08-07 11:38:51.612269
-3,-8,-3,2,4,0,-1,-1,2021-08-07 11:38:51.613269
-3,1,3,-11,-13,-6,-2,-3,2021-08-07 11:38:51.628268
-1,-4,-6,6,7,5,0,-2,2021-08-07 11:38:51.628268
0,-3,3,8,13,5,0,-2,2021-08-07 11:38:51.633271
4,8,10,8,3,1,2,3,2021-08-07 11:38:51.634271
-7,-10,-27,-17,-12,-7,-5,-5,2021-08-07 11:38:51.650271
1,5,8,-3,-12,-3,-1,0,2021-08-07 11:38:51.650271
0,-2,-1,-3,-7,-3,-3,1,2021-08-07 11:38:51.651269
0,-1,0,10,25,10,2,-1,2021-08-07 11:38:51.652268
-1,-2,-1,-23,-26,-10,-5,-3,2021-08-07 11:38:51.663272
2,2,5,9,20,8,5,1,2021-08-07 11:38:51.664268
-4,-4,-3,10,16,4,-1,-3,2021-08-07 11:38:51.672269
3,7,7,2,-3,1,1,3,2021-08-07 11:38:51.673268
-2,0,-3,3,4,2,0,-2,2021-08-07 11:38:51.687269
-4,-4,-5,-12,-21,-9,-3,-4,2021-08-07 11:38:51.687269
-1,-2,-1,4,13,2,0,1,2021-08-07 11:38:51.689269
-2,-1,-8,-6,-16,-6,-3,-1,2021-08-07 11:38:51.689269
-2,-3,-1,-5,9,3,0,-1,2021-08-07 11:38:51.710272
-2,-3,-1,3,12,1,-1,0,2021-08-07 11:38:51.710272
1,3,3,-3,-16,-6,-2,-1,2021-08-07 11:38:51.711269
-5,-8,-10,-10,-17,-8,-6,-4,2021-08-07 11:38:51.712270
8,10,8,18,38,19,11,8,2021-08-07 11:38:51.723271
0,-1,3,3,0,-3,-1,-2,2021-08-07 11:38:51.724268
-1,-2,2,-1,-9,-3,0,0,2021-08-07 11:38:51.732271
-4,-1,-9,-5,-4,-3,-2,-1,2021-08-07 11:38:51.733272
-5,-8,-6,-10,-22,-11,-5,-4,2021-08-07 11:38:51.746268
-3,-3,-3,-11,-8,-1,-2,-2,2021-08-07 11:38:51.746268
-1,-1,-3,-3,-2,-4,0,-1,2021-08-07 11:38:51.755269
-3,-4,-3,-3,-5,-3,-1,-2,2021-08-07 11:38:51.755269
2,4,6,13,10,4,2,0,2021-08-07 11:38:51.770270
2,3,9,25,17,3,2,-1,2021-08-07 11:38:51.770270
1,2,0,-4,-18,-3,0,1,2021-08-07 11:38:51.771271
1,0,4,11,31,9,2,0,2021-08-07 11:38:51.772270
-3,-5,-11,-22,-9,-4,-3,-3,2021-08-07 11:38:51.783268
0,0,-9,-3,-4,-3,-1,-1,2021-08-07 11:38:51.784268
-3,-2,1,-7,-13,-5,-4,-3,2021-08-07 11:38:51.800271
3,3,11,15,12,5,4,2,2021-08-07 11:38:51.800271
5,4,8,10,-4,1,4,4,2021-08-07 11:38:51.807270
-1,-8,-13,-1,14,2,0,-1,2021-08-07 11:38:51.808268
-5,-8,2,-28,-18,-8,-7,-7,2021-08-07 11:38:51.809269
-1,-5,-26,-5,-10,-4,-3,0,2021-08-07 11:38:51.809269
-5,-2,3,-1,-6,-5,-5,-3,2021-08-07 11:38:51.830267
-2,-5,-4,-9,-13,-4,-2,-1,2021-08-07 11:38:51.830267
10,13,15,41,42,18,10,7,2021-08-07 11:38:51.831268
1,5,14,8,6,1,0,-1,2021-08-07 11:38:51.832272
-1,-2,-3,-4,-3,-3,-1,-2,2021-08-07 11:38:51.860270
-2,0,1,-6,-9,-5,-2,0,2021-08-07 11:38:51.860270
-8,-10,-16,-16,-16,-10,-5,-8,2021-08-07 11:38:51.861269
-3,-4,1,-6,-19,-5,-3,-2,2021-08-07 11:38:51.862269
-4,-7,-8,-5,0,-3,-2,-2,2021-08-07 11:38:51.868269
6,11,19,30,30,15,6,6,2021-08-07 11:38:51.868269
-2,-2,-2,-1,-1,-1,-2,-2,2021-08-07 11:38:51.869267
1,3,2,3,5,0,1,0,2021-08-07 11:38:51.869267
-3,-7,-13,-18,-7,-1,-3,-2,2021-08-07 11:38:51.890271
-7,-7,-10,-24,-17,-8,-6,-5,2021-08-07 11:38:51.890271
1,1,-5,1,-3,-2,0,1,2021-08-07 11:38:51.891273
-2,-1,0,-4,-10,-8,-3,-2,2021-08-07 11:38:51.892269
-3,-2,0,-12,-12,-3,-2,-4,2021-08-07 11:38:51.912272
12,18,26,61,79,32,15,10,2021-08-07 11:38:51.913271
2,3,-3,0,-5,-2,1,1,2021-08-07 11:38:51.914269
-4,-4,-4,-6,-2,-1,-2,-3,2021-08-07 11:38:51.914269
-4,-4,-5,-15,-28,-13,-6,-5,2021-08-07 11:38:51.927269
-3,-5,-10,-11,-4,-2,-2,-2,2021-08-07 11:38:51.927269
-6,-7,-11,-19,-19,-8,-5,-3,2021-08-07 11:38:51.929269
4,7,12,27,27,8,4,2,2021-08-07 11:38:51.929269
4,5,10,20,17,7,4,3,2021-08-07 11:38:51.950270
1,0,2,-5,-12,-5,-2,-1,2021-08-07 11:38:51.950270
-5,-7,-8,-7,-4,-3,-2,-5,2021-08-07 11:38:51.951272
-3,-4,-1,-18,-25,-8,-4,-3,2021-08-07 11:38:51.952269
1,0,-8,8,15,0,0,0,2021-08-07 11:38:51.972269
-3,-4,-2,3,2,-1,-2,-2,2021-08-07 11:38:51.973269
9,8,12,20,21,10,5,6,2021-08-07 11:38:51.974268
-1,-3,-7,-9,-6,-1,-1,0,2021-08-07 11:38:51.974268
0,3,4,0,-4,-3,-2,-2,2021-08-07 11:38:51.987269
-7,-10,-16,-36,-43,-19,-8,-5,2021-08-07 11:38:51.987269
-3,-2,-4,1,10,2,-1,-3,2021-08-07 11:38:51.993268
1,0,3,7,20,6,4,1,2021-08-07 11:38:51.994269
2,1,7,18,3,5,3,-1,2021-08-07 11:38:52.010268
4,5,4,0,2,2,2,2,2021-08-07 11:38:52.010268
-1,-2,0,-10,-10,-2,0,-3,2021-08-07 11:38:52.011268
1,3,2,5,6,2,2,0,2021-08-07 11:38:52.012270
-6,-9,-9,-8,-5,-3,-4,-4,2021-08-07 11:38:52.032270
-1,-1,-1,-8,-20,-8,-3,-2,2021-08-07 11:38:52.033268
0,1,0,-1,0,0,-1,0,2021-08-07 11:38:52.034270
-1,-2,-2,7,6,2,0,1,2021-08-07 11:38:52.034270
0,1,1,1,-7,-1,0,-2,2021-08-07 11:38:52.047269
1,2,8,14,12,5,2,0,2021-08-07 11:38:52.047269
-4,-6,-13,-7,-10,-6,-4,-4,2021-08-07 11:38:52.053270
-2,-2,-1,3,2,0,-2,-1,2021-08-07 11:38:52.054271
-1,-4,-5,-9,-1,-2,-2,1,2021-08-07 11:38:52.070271
4,5,4,-5,-7,-2,2,2,2021-08-07 11:38:52.070271
-3,-2,-2,0,3,0,-2,-3,2021-08-07 11:38:52.071271
-2,0,8,-8,-12,-5,-2,-3,2021-08-07 11:38:52.072270
1,0,-7,7,10,4,2,2,2021-08-07 11:38:52.092272
-3,-3,-7,-15,-16,-7,-2,-3,2021-08-07 11:38:52.093268
-5,-5,-1,4,-3,-4,-3,-5,2021-08-07 11:38:52.094269
9,11,12,24,34,15,8,6,2021-08-07 11:38:52.094269
-2,-3,-4,-4,1,-2,-2,-1,2021-08-07 11:38:52.107269
-4,-5,-7,-11,-13,-4,-4,-4,2021-08-07 11:38:52.107269
-2,2,1,-5,-6,-1,1,-2,2021-08-07 11:38:52.113271
-5,-7,-9,-18,-22,-9,-3,-2,2021-08-07 11:38:52.114268
3,9,15,23,16,5,3,3,2021-08-07 11:38:52.137270
-5,-6,-8,-5,-5,-5,-3,-4,2021-08-07 11:38:52.138271
2,2,3,3,11,4,3,3,2021-08-07 11:38:52.139269
-5,-6,-10,-17,-17,-8,-5,-5,2021-08-07 11:38:52.139269
4,5,8,4,3,3,3,4,2021-08-07 11:38:52.152271
-2,-2,1,-6,-11,-5,-3,-3,2021-08-07 11:38:52.152271
-3,-4,-7,-10,-4,-5,-4,-2,2021-08-07 11:38:52.154270
2,2,-3,13,12,7,3,2,2021-08-07 11:38:52.154270
-3,0,5,-5,-4,1,-1,-3,2021-08-07 11:38:52.167268
-2,-6,-16,-1,-1,-2,-1,-2,2021-08-07 11:38:52.167268
-1,0,0,-3,-2,-4,-2,-1,2021-08-07 11:38:52.173268
-3,-4,-4,-8,-8,-5,-3,-1,2021-08-07 11:38:52.173268
0,4,8,-4,-11,-4,-1,1,2021-08-07 11:38:52.190269
-2,-1,6,0,6,0,-1,-2,2021-08-07 11:38:52.190269
0,-2,-7,0,-10,-3,-1,0,2021-08-07 11:38:52.191274
-2,-6,-17,-11,-7,-5,-4,-3,2021-08-07 11:38:52.192269
-1,0,1,5,17,5,0,0,2021-08-07 11:38:52.212270
-4,-5,-3,-14,-14,-7,-2,-4,2021-08-07 11:38:52.213269
-1,0,3,0,-8,-4,-3,-2,2021-08-07 11:38:52.214268
2,5,13,23,15,7,3,1,2021-08-07 11:38:52.214268
0,-1,-2,-4,-4,-2,0,-1,2021-08-07 11:38:52.227270
2,2,2,5,15,4,3,0,2021-08-07 11:38:52.227270
-5,-8,-4,-10,-15,-9,-3,-3,2021-08-07 11:38:52.233269
-3,-3,-11,-14,-8,-3,-2,-1,2021-08-07 11:38:52.234269
3,3,5,15,13,3,2,1,2021-08-07 11:38:52.250270
5,8,11,20,17,8,4,3,2021-08-07 11:38:52.250270
0,1,1,4,6,4,1,-1,2021-08-07 11:38:52.251274
-10,-12,-18,-36,-26,-15,-9,-6,2021-08-07 11:38:52.251274
-7,-13,-24,-25,-16,-9,-5,-5,2021-08-07 11:38:52.272269
-3,-5,-1,-6,-2,-1,-2,-3,2021-08-07 11:38:52.272269
3,5,3,16,12,5,2,1,2021-08-07 11:38:52.274271
3,6,13,-2,-12,-4,0,1,2021-08-07 11:38:52.274271
4,7,11,22,26,10,5,2,2021-08-07 11:38:52.287271
-1,-6,-14,-4,1,0,0,0,2021-08-07 11:38:52.287271
-2,4,10,1,-1,-3,-5,-3,2021-08-07 11:38:52.293270
3,2,7,18,16,9,4,1,2021-08-07 11:38:52.294269
-2,-6,-5,-33,-40,-17,-7,-2,2021-08-07 11:38:52.310268
-2,-6,-18,-21,-27,-11,-5,-2,2021-08-07 11:38:52.310268
2,3,17,30,43,15,6,1,2021-08-07 11:38:52.311272
0,7,22,13,-3,-4,-1,-2,2021-08-07 11:38:52.312270
-7,-12,-23,-1,-2,-2,-6,-4,2021-08-07 11:38:52.332269
-4,-6,-24,-15,-13,-4,-2,0,2021-08-07 11:38:52.332269
-4,-8,-13,-31,-36,-13,-4,-3,2021-08-07 11:38:52.334270
-4,-6,-14,-10,8,0,-2,-4,2021-08-07 11:38:52.334270
3,6,20,5,-6,-1,1,1,2021-08-07 11:38:52.346271
3,9,16,15,12,5,2,2,2021-08-07 11:38:52.346271
