EMG 1,EMG 2,EMG 3,EMG 4,EMG 5,EMG 6,EMG 7,EMG 8,Timestamp,Milliseconds
2,1,3,4,4,2,3,1,2021-08-07 11:40:36,068696
0,-2,1,0,2,0,0,1,2021-08-07 11:40:36,068696
1,2,5,4,5,4,2,2,2021-08-07 11:40:36,084698
0,-3,-9,-12,-13,-9,-3,-2,2021-08-07 11:40:36,100697
-2,-4,-4,-15,-10,-3,-4,-1,2021-08-07 11:40:36,116698
-1,-1,0,9,7,0,-1,-1,2021-08-07 11:40:36,116698
0,2,1,3,3,0,0,2,2021-08-07 11:40:36,116698
0,0,6,7,9,4,2,1,2021-08-07 11:40:36,116698
-2,-1,-5,-3,-6,-4,-2,-1,2021-08-07 11:40:36,116698
0,-1,-2,-4,-7,-3,-2,-3,2021-08-07 11:40:36,116698
-3,-4,0,0,-2,-2,-3,-3,2021-08-07 11:40:36,117698
5,4,4,8,8,8,4,4,2021-08-07 11:40:36,117698
-2,-3,-8,-15,-20,-12,-5,-2,2021-08-07 11:40:36,117698
1,2,5,7,8,4,1,1,2021-08-07 11:40:36,117698
-2,-1,-3,3,8,2,-1,-3,2021-08-07 11:40:36,117698
-3,-1,3,8,6,4,-2,-1,2021-08-07 11:40:36,117698
-1,-1,1,3,3,1,1,-1,2021-08-07 11:40:36,117698
-3,-4,-10,-20,-21,-12,-3,-3,2021-08-07 11:40:36,117698
0,0,-3,-4,-9,-5,-1,0,2021-08-07 11:40:36,132697
-2,-1,-1,1,2,0,0,-1,2021-08-07 11:40:36,132697
-1,0,1,3,4,3,1,-1,2021-08-07 11:40:36,147698
-3,-3,-2,-1,-2,0,-1,-1,2021-08-07 11:40:36,163728
-2,0,0,1,6,3,1,0,2021-08-07 11:40:36,163728
-4,-2,-6,-16,-19,-10,-5,-2,2021-08-07 11:40:36,163728
1,1,6,14,15,5,2,2,2021-08-07 11:40:36,163728
-1,-1,-3,2,4,2,-1,0,2021-08-07 11:40:36,163728
1,0,0,0,0,-1,-1,-1,2021-08-07 11:40:36,163728
3,0,3,5,2,1,2,0,2021-08-07 11:40:36,164730
-2,-1,-1,-2,-3,-4,-4,-3,2021-08-07 11:40:36,210727
1,1,0,-1,3,4,1,0,2021-08-07 11:40:36,226726
0,2,3,5,2,1,1,0,2021-08-07 11:40:36,242726
0,-1,-1,4,8,3,0,0,2021-08-07 11:40:36,258728
-3,-4,-6,-10,-12,-7,-3,-3,2021-08-07 11:40:36,259728
1,-1,0,1,-2,-1,-1,-1,2021-08-07 11:40:36,259728
-4,-3,-4,-7,-10,-5,-3,-2,2021-08-07 11:40:36,259728
3,3,3,7,25,10,4,4,2021-08-07 11:40:36,259728
2,1,3,10,7,4,2,1,2021-08-07 11:40:36,260728
1,1,2,3,4,2,1,0,2021-08-07 11:40:36,260728
-4,-6,-10,-16,-17,-10,-5,-5,2021-08-07 11:40:36,260728
-1,0,0,-8,-18,-9,-3,-2,2021-08-07 11:40:36,260728
1,-2,-2,-2,5,2,0,2,2021-08-07 11:40:36,260728
3,4,6,9,10,3,2,2,2021-08-07 11:40:36,260728
1,1,0,4,0,-1,0,1,2021-08-07 11:40:36,260728
-3,-3,-6,-6,-8,-6,-4,-3,2021-08-07 11:40:36,260728
-1,1,-2,-5,-5,-3,0,0,2021-08-07 11:40:36,260728
1,2,0,-2,-2,1,2,1,2021-08-07 11:40:36,260728
-1,-3,-1,-2,3,1,1,-1,2021-08-07 11:40:36,274729
-3,-5,-3,1,-1,-1,-2,-2,2021-08-07 11:40:36,274729
-4,-1,0,0,-1,-1,-2,-4,2021-08-07 11:40:36,274729
-5,-5,-5,1,-4,-3,-3,-3,2021-08-07 11:40:36,274729
3,7,8,15,19,9,3,3,2021-08-07 11:40:36,290727
0,1,1,5,-1,-3,-2,-1,2021-08-07 11:40:36,306729
-10,-13,-16,-31,-35,-21,-9,-8,2021-08-07 11:40:36,322728
9,11,10,18,17,8,7,7,2021-08-07 11:40:36,322728
3,2,3,3,6,3,1,2,2021-08-07 11:40:36,322728
-1,0,1,-1,-2,1,-2,0,2021-08-07 11:40:36,322728
-1,2,4,10,8,5,0,0,2021-08-07 11:40:36,322728
-8,-10,-15,-30,-30,-15,-8,-4,2021-08-07 11:40:36,322728
1,1,5,7,3,1,0,1,2021-08-07 11:40:36,338727
0,0,1,6,10,3,1,-2,2021-08-07 11:40:36,338727
1,-1,0,-3,-3,-1,0,-1,2021-08-07 11:40:36,338727
-2,-4,-4,-5,-4,-2,-1,-2,2021-08-07 11:40:36,338727
3,3,2,3,0,2,0,1,2021-08-07 11:40:36,354728
-2,-2,-6,-12,-12,-5,-1,0,2021-08-07 11:40:36,370728
-2,-4,-2,3,7,3,0,0,2021-08-07 11:40:36,370968
5,7,7,5,5,3,5,5,2021-08-07 11:40:36,370968
-3,-3,-4,-4,-3,-3,-1,-3,2021-08-07 11:40:36,370968
-1,-1,-3,-7,-9,-6,-3,-4,2021-08-07 11:40:36,370968
-1,-2,0,4,4,1,-1,-1,2021-08-07 11:40:36,370968
-2,-3,-2,-1,1,1,-1,-2,2021-08-07 11:40:36,371728
5,5,3,0,-3,0,1,3,2021-08-07 11:40:36,418239
-2,-4,-6,-17,-15,-5,-3,-4,2021-08-07 11:40:36,418239
4,3,7,19,15,8,7,3,2021-08-07 11:40:36,418239
-1,-2,-2,0,-1,1,-1,-3,2021-08-07 11:40:36,418239
-5,-4,2,15,13,0,-7,-6,2021-08-07 11:40:36,418239
-3,-4,-5,-10,-13,-9,-5,-3,2021-08-07 11:40:36,418239
0,3,4,5,12,5,1,1,2021-08-07 11:40:36,418239
-2,-2,-3,-1,-3,0,2,-1,2021-08-07 11:40:36,419241
1,0,-5,-6,-9,-1,6,2,2021-08-07 11:40:36,434238
-3,0,3,14,13,6,1,-1,2021-08-07 11:40:36,434238
4,5,4,2,-1,-1,-2,1,2021-08-07 11:40:36,434238
-3,-3,-4,-4,0,-4,-4,-3,2021-08-07 11:40:36,434238
-5,-7,-7,-14,-12,-7,-9,-5,2021-08-07 11:40:36,465239
-4,-4,-4,-3,-6,-5,-3,-3,2021-08-07 11:40:36,480239
5,4,3,0,4,8,10,7,2021-08-07 11:40:36,480239
0,0,2,2,4,3,-1,-2,2021-08-07 11:40:36,480239
-5,-6,-7,-8,-8,-9,-8,-5,2021-08-07 11:40:36,480239
-9,-8,-9,-8,-10,-8,-6,-5,2021-08-07 11:40:36,480239
5,7,6,4,0,2,3,6,2021-08-07 11:40:36,481240
3,3,7,18,22,5,-1,1,2021-08-07 11:40:36,481240
1,2,1,1,1,0,1,-1,2021-08-07 11:40:36,496240
1,2,1,-1,-4,3,8,4,2021-08-07 11:40:36,512239
-3,-5,-12,-18,-16,0,3,0,2021-08-07 11:40:36,512239
1,2,3,6,6,5,-4,0,2021-08-07 11:40:36,512239
-12,-8,-2,8,7,-16,-19,-15,2021-08-07 11:40:36,512239
-1,-1,0,2,2,-3,-5,-1,2021-08-07 11:40:36,512239
-1,-2,-4,-10,-9,-5,0,-1,2021-08-07 11:40:36,512239
-1,-2,-5,-7,-11,3,9,4,2021-08-07 11:40:36,513242
4,4,-2,-5,-4,4,4,3,2021-08-07 11:40:36,528238
4,4,5,3,2,0,2,0,2021-08-07 11:40:36,528238
0,-1,-1,-1,-1,0,-2,-1,2021-08-07 11:40:36,560243
-2,-1,0,4,1,-1,-2,-1,2021-08-07 11:40:36,576240
-2,-2,-4,-6,-6,3,6,4,2021-08-07 11:40:36,576240
-1,-3,0,-3,-5,-2,-4,-3,2021-08-07 11:40:36,576240
-4,-2,-2,1,14,0,-7,-4,2021-08-07 11:40:36,576240
-4,-2,-1,2,-1,-5,-6,-5,2021-08-07 11:40:36,576240
-4,-6,-4,-4,-3,2,3,1,2021-08-07 11:40:36,576240
8,9,6,2,3,7,7,6,2021-08-07 11:40:36,577239
-5,-6,-5,-4,-11,-10,-9,-6,2021-08-07 11:40:36,577239
-1,0,-2,-5,-9,-8,-4,-4,2021-08-07 11:40:36,577239
4,5,2,-2,1,4,5,5,2021-08-07 11:40:36,592240
-3,-2,0,2,4,3,-2,-2,2021-08-07 11:40:36,592240
-2,-2,0,9,6,-1,-3,-4,2021-08-07 11:40:36,592240
-4,-4,-5,-8,-8,-5,-1,-2,2021-08-07 11:40:36,592240
4,3,1,-5,-5,0,2,3,2021-08-07 11:40:36,623239
-2,-3,-7,-17,-13,-7,-2,-1,2021-08-07 11:40:36,639238
2,5,4,19,22,9,3,2,2021-08-07 11:40:36,654240
-3,-4,-5,-5,-9,-6,-2,-2,2021-08-07 11:40:36,654240
-1,-2,1,-7,-10,-6,-4,-3,2021-08-07 11:40:36,654240
3,1,3,16,22,9,4,3,2021-08-07 11:40:36,654240
2,-1,0,-4,-1,-1,0,0,2021-08-07 11:40:36,670241
-1,-2,-3,-1,-5,-3,-2,0,2021-08-07 11:40:36,670241
-3,-3,-5,-5,-3,-1,-1,-2,2021-08-07 11:40:36,686239
0,-1,-1,3,0,-1,0,1,2021-08-07 11:40:36,686239
-1,2,3,-1,-8,-2,0,-1,2021-08-07 11:40:36,686239
-2,-2,-3,-9,-7,-6,-2,-3,2021-08-07 11:40:36,686239
2,-2,-1,-3,-5,-3,1,2,2021-08-07 11:40:36,686239
-4,-4,-3,-3,-2,-1,-4,-4,2021-08-07 11:40:36,687241
1,1,4,9,9,2,1,2,2021-08-07 11:40:36,687241
-1,-1,-2,-1,-2,-2,-1,0,2021-08-07 11:40:36,687241
-5,-4,-6,-5,-1,-2,-2,-2,2021-08-07 11:40:36,702240
-1,-2,-1,3,-1,0,-1,-1,2021-08-07 11:40:36,702240
0,1,0,-3,-10,-4,0,-1,2021-08-07 11:40:36,702240
0,1,-1,0,11,6,3,1,2021-08-07 11:40:36,702240
-1,-1,0,2,-2,-2,-3,-2,2021-08-07 11:40:36,702240
-2,-3,-1,3,4,0,-3,-3,2021-08-07 11:40:36,703240
0,1,-1,-5,-5,-1,0,1,2021-08-07 11:40:36,718238
3,4,8,15,13,8,3,3,2021-08-07 11:40:36,718238
-1,0,0,5,8,5,0,0,2021-08-07 11:40:36,750239
-6,-6,-12,-28,-26,-16,-7,-4,2021-08-07 11:40:36,766240
-2,-4,-1,-7,-10,-7,-4,-2,2021-08-07 11:40:36,766240
-3,-4,-3,-3,-1,-1,-2,-2,2021-08-07 11:40:36,766240
5,7,13,26,20,12,4,2,2021-08-07 11:40:36,766240
4,5,8,18,8,3,3,3,2021-08-07 11:40:36,766240
-6,-8,-15,-14,-9,-6,-3,-6,2021-08-07 11:40:36,767240
2,1,-1,-6,-9,-3,1,2,2021-08-07 11:40:36,767240
2,2,4,6,13,6,0,1,2021-08-07 11:40:36,767240
-1,0,-1,-5,-7,-2,-1,0,2021-08-07 11:40:36,767240
-3,-4,-2,-10,-12,-4,-5,-2,2021-08-07 11:40:36,798238
2,4,7,16,20,7,3,1,2021-08-07 11:40:36,814241
0,-2,-4,-9,-10,-5,-2,-1,2021-08-07 11:40:36,814241
1,2,4,7,8,4,3,0,2021-08-07 11:40:36,814241
-5,-5,-8,-13,-9,-6,-5,-3,2021-08-07 11:40:36,830240
-5,-5,-7,-13,-13,-7,-6,-4,2021-08-07 11:40:36,846238
3,4,4,8,6,2,2,3,2021-08-07 11:40:36,862239
-1,-3,-5,-3,-1,-1,-2,-2,2021-08-07 11:40:36,878241
0,0,-1,1,0,-2,-1,0,2021-08-07 11:40:36,878241
2,2,-2,-7,-7,-2,-1,0,2021-08-07 11:40:36,878241
-3,-5,-4,-5,-5,-2,-2,-2,2021-08-07 11:40:36,878241
3,2,2,3,9,6,3,2,2021-08-07 11:40:36,878241
0,1,1,6,3,2,2,0,2021-08-07 11:40:36,879239
-2,-4,-3,-3,-5,-4,-2,-2,2021-08-07 11:40:36,879239
-2,-3,-3,-1,1,-2,-1,-3,2021-08-07 11:40:36,879239
-3,-3,-6,-10,-10,-5,-1,-2,2021-08-07 11:40:36,879239
-6,-6,-6,-10,-10,-8,-4,-4,2021-08-07 11:40:36,879239
7,6,3,-2,5,5,5,5,2021-08-07 11:40:36,879239
-5,-2,-4,-2,-5,-3,-2,-4,2021-08-07 11:40:36,879239
3,5,7,15,15,8,2,3,2021-08-07 11:40:36,879239
1,2,1,3,4,1,1,0,2021-08-07 11:40:36,879239
-2,-2,-2,-5,-4,-3,-2,-2,2021-08-07 11:40:36,879239
-4,-3,-5,-6,-7,-4,-2,-1,2021-08-07 11:40:36,910239
-1,-2,-2,-1,2,0,-2,-1,2021-08-07 11:40:36,910239
0,1,0,4,3,4,2,1,2021-08-07 11:40:36,910239
-4,-3,-2,-1,-4,-1,-1,-2,2021-08-07 11:40:36,910239
-4,-4,-2,-4,-3,-1,-3,-3,2021-08-07 11:40:36,910239
-1,0,-2,-1,-1,-3,0,0,2021-08-07 11:40:36,910239
-1,2,1,2,0,0,1,1,2021-08-07 11:40:36,910239
-3,-4,0,2,5,2,0,-2,2021-08-07 11:40:36,910239
-2,0,-1,-6,-5,-1,-1,-2,2021-08-07 11:40:36,942277
-1,-3,-2,-3,-5,-3,-1,-2,2021-08-07 11:40:36,942277
2,3,4,6,8,5,2,1,2021-08-07 11:40:36,958278
-2,-2,-2,-2,-2,-1,-2,-1,2021-08-07 11:40:36,958278
1,3,-1,-6,-9,-7,-1,1,2021-08-07 11:40:36,958278
-3,-3,-4,-8,-4,-6,-3,-2,2021-08-07 11:40:36,958278
4,3,6,13,17,9,4,3,2021-08-07 11:40:36,958278
-3,-4,1,3,-6,-3,-3,-4,2021-08-07 11:40:36,958278
-2,-4,-5,-5,8,3,1,0,2021-08-07 11:40:36,989279
1,1,-1,6,12,3,1,-1,2021-08-07 11:40:37,005278
-1,-2,-3,-9,-14,-8,-4,-2,2021-08-07 11:40:37,021278
0,-1,-4,-9,-19,-7,0,-1,2021-08-07 11:40:37,021278
4,3,9,23,32,15,8,5,2021-08-07 11:40:37,021278
-4,-4,-4,-7,-10,-6,-9,-6,2021-08-07 11:40:37,021278
-5,-6,-5,-2,5,-2,-5,-3,2021-08-07 11:40:37,021278
0,1,-1,0,-9,-6,-4,-1,2021-08-07 11:40:37,021278
0,0,-2,-11,-12,-3,0,0,2021-08-07 11:40:37,022277
0,1,3,2,4,3,0,1,2021-08-07 11:40:37,022277
-1,0,1,1,0,-1,-2,-3,2021-08-07 11:40:37,022277
2,2,0,-6,-3,0,4,2,2021-08-07 11:40:37,022277
2,-1,-2,-3,-5,-1,2,2,2021-08-07 11:40:37,053278
0,-2,0,1,3,3,0,1,2021-08-07 11:40:37,053278
-7,-6,-7,-10,-15,-7,-9,-6,2021-08-07 11:40:37,053278
-3,-4,-6,-3,1,-8,-8,-5,2021-08-07 11:40:37,053278
1,2,0,-1,-6,-4,-4,-1,2021-08-07 11:40:37,053278
2,2,1,2,5,6,5,2,2021-08-07 11:40:37,053278
1,-2,-2,-3,-3,4,6,3,2021-08-07 11:40:37,053278
-7,-7,-5,-2,3,0,-2,-5,2021-08-07 11:40:37,053278
1,6,7,7,0,0,-4,-3,2021-08-07 11:40:37,085277
-6,-4,-4,-5,-9,-9,-6,-6,2021-08-07 11:40:37,101276
3,4,7,12,11,6,6,2,2021-08-07 11:40:37,132278
-1,-1,-1,0,3,2,0,0,2021-08-07 11:40:37,132278
-2,-4,-4,-6,-12,-7,-5,-2,2021-08-07 11:40:37,132278
-4,-3,-4,-8,-16,-9,-6,-3,2021-08-07 11:40:37,135277
7,3,-1,-1,7,5,4,4,2021-08-07 11:40:37,135277
3,3,5,15,16,7,4,3,2021-08-07 11:40:37,135277
-4,-4,-4,-10,-7,-4,-2,-4,2021-08-07 11:40:37,136276
4,4,7,17,11,6,5,1,2021-08-07 11:40:37,136276
-2,-3,-5,-10,-17,-9,-3,-3,2021-08-07 11:40:37,136276
-3,-4,-4,-11,-6,-3,-3,-6,2021-08-07 11:40:37,136276
0,-2,4,10,13,6,1,0,2021-08-07 11:40:37,136276
-4,-2,-4,-7,-13,-3,-2,-3,2021-08-07 11:40:37,136276
6,6,5,6,19,8,4,4,2021-08-07 11:40:37,137278
0,1,4,7,-2,-4,-2,-1,2021-08-07 11:40:37,137278
-7,-9,-11,-12,-11,-7,-5,-4,2021-08-07 11:40:37,163797
3,0,1,-8,-14,-3,4,3,2021-08-07 11:40:37,179796
-2,-1,0,12,8,2,-3,-2,2021-08-07 11:40:37,195796
3,3,1,-2,0,-1,-1,-1,2021-08-07 11:40:37,195796
-2,-3,-4,1,1,-2,-2,0,2021-08-07 11:40:37,195796
0,0,1,1,4,3,3,1,2021-08-07 11:40:37,195796
-1,0,-3,-10,-9,-3,-1,-1,2021-08-07 11:40:37,195796
-5,-7,-14,-26,-28,-14,-8,-5,2021-08-07 11:40:37,195796
3,5,9,23,24,9,3,1,2021-08-07 11:40:37,196796
5,4,3,7,13,7,2,3,2021-08-07 11:40:37,196796
-3,-2,-4,-5,-6,-3,-1,-1,2021-08-07 11:40:37,196796
-4,-2,-2,-4,-5,0,1,1,2021-08-07 11:40:37,196796
1,0,-2,-12,-8,-2,0,0,2021-08-07 11:40:37,227796
-2,-4,-3,-4,-1,-3,-3,-2,2021-08-07 11:40:37,227796
-4,-5,-6,-7,-9,-5,-3,-2,2021-08-07 11:40:37,227796
2,4,12,27,23,12,4,4,2021-08-07 11:40:37,227796
-4,-5,-8,-16,-20,-9,-4,-4,2021-08-07 11:40:37,227796
-4,-3,-2,4,14,5,0,-1,2021-08-07 11:40:37,228797
2,-1,0,-2,-10,-6,-2,-2,2021-08-07 11:40:37,243796
0,-1,-2,0,7,2,-1,-1,2021-08-07 11:40:37,243796
-1,1,1,2,1,3,2,1,2021-08-07 11:40:37,259796
-1,-2,-4,-9,-4,-4,-4,-2,2021-08-07 11:40:37,259796
-1,1,5,6,1,0,-2,-2,2021-08-07 11:40:37,259796
2,2,-1,1,3,2,1,2,2021-08-07 11:40:37,259796
-2,-5,-9,-19,-22,-12,-4,-3,2021-08-07 11:40:37,291797
-4,-3,-6,-14,-16,-9,-6,-1,2021-08-07 11:40:37,291797
-1,0,4,10,12,3,1,-1,2021-08-07 11:40:37,291797
-1,-1,-1,2,4,2,1,-2,2021-08-07 11:40:37,291797
-2,-2,2,6,5,3,2,-1,2021-08-07 11:40:37,307798
1,0,-1,-2,-5,-2,-2,0,2021-08-07 11:40:37,307798
1,3,2,3,-1,-1,-1,1,2021-08-07 11:40:37,307798
-2,0,-3,-14,-13,-5,-4,-4,2021-08-07 11:40:37,307798
0,2,-1,4,7,1,0,-1,2021-08-07 11:40:37,323796
1,2,2,8,4,3,2,-1,2021-08-07 11:40:37,323796
3,2,5,4,11,8,4,3,2021-08-07 11:40:37,323796
-5,-8,-11,-18,-16,-10,-5,-3,2021-08-07 11:40:37,323796
-6,-8,-10,-15,-19,-12,-7,-5,2021-08-07 11:40:37,338795
2,2,5,8,9,3,1,2,2021-08-07 11:40:37,338795
-2,-2,-4,-3,-4,-1,-1,0,2021-08-07 11:40:37,338795
0,-1,0,-4,-5,0,-2,-1,2021-08-07 11:40:37,338795
3,5,7,13,13,6,3,2,2021-08-07 11:40:37,370798
0,-1,-2,7,3,-1,0,-1,2021-08-07 11:40:37,370798
-3,-4,-4,-7,-5,-2,-1,-3,2021-08-07 11:40:37,370798
1,0,3,3,4,0,-1,-1,2021-08-07 11:40:37,370798
0,0,-4,-4,0,-1,-1,0,2021-08-07 11:40:37,370798
-1,-2,-5,-5,-7,-4,0,-1,2021-08-07 11:40:37,370798
-1,0,-1,0,-2,-2,-1,-1,2021-08-07 11:40:37,371795
-1,-1,-3,0,0,-1,0,0,2021-08-07 11:40:37,371795
-3,-4,1,-1,0,-3,-3,-2,2021-08-07 11:40:37,402796
-2,-2,-3,-3,-5,-2,-1,-3,2021-08-07 11:40:37,418795
-2,-1,0,3,4,1,1,-1,2021-08-07 11:40:37,434796
0,0,-1,3,3,0,0,-1,2021-08-07 11:40:37,450797
-2,-2,-2,-5,-4,-2,-2,-2,2021-08-07 11:40:37,482796
2,4,3,-5,-7,-3,0,2,2021-08-07 11:40:37,482796
1,-2,-2,-6,5,2,0,0,2021-08-07 11:40:37,482796
1,3,8,20,17,8,4,3,2021-08-07 11:40:37,482796
0,-2,1,10,8,3,1,-1,2021-08-07 11:40:37,482796
-2,0,0,0,4,0,2,-1,2021-08-07 11:40:37,483797
-1,0,-3,-5,-8,-4,-1,-1,2021-08-07 11:40:37,483797
-7,-8,-8,-18,-19,-13,-9,-4,2021-08-07 11:40:37,483797
1,1,-1,-3,-2,-1,1,2,2021-08-07 11:40:37,483797
-1,0,-2,0,2,0,0,0,2021-08-07 11:40:37,483797
3,2,3,9,5,2,1,1,2021-08-07 11:40:37,483797
-1,-1,-3,-3,1,0,1,0,2021-08-07 11:40:37,483797
0,0,4,9,4,3,0,-1,2021-08-07 11:40:37,483797
-2,0,-1,-5,-5,-3,-3,-1,2021-08-07 11:40:37,483797
-4,-2,-3,4,8,3,-1,-1,2021-08-07 11:40:37,484797
2,2,3,3,2,0,1,0,2021-08-07 11:40:37,484797
-3,-2,-4,-6,-5,-4,-2,-2,2021-08-07 11:40:37,498797
0,-1,1,2,2,1,-1,-1,2021-08-07 11:40:37,513796
-6,-7,-6,-8,-9,-6,-4,-5,2021-08-07 11:40:37,513796
0,2,2,1,-2,-1,-1,-1,2021-08-07 11:40:37,513796
4,4,3,2,0,1,1,2,2021-08-07 11:40:37,513796
3,4,4,-1,1,1,0,1,2021-08-07 11:40:37,513796
0,0,-1,-2,-5,-3,-3,0,2021-08-07 11:40:37,513796
-3,-5,-3,-2,-1,-1,0,-2,2021-08-07 11:40:37,513796
-1,-3,-3,-2,-2,-3,-2,-3,2021-08-07 11:40:37,545795
-2,-3,-2,0,1,-2,0,0,2021-08-07 11:40:37,545795
0,-1,-1,-4,-3,0,0,0,2021-08-07 11:40:37,545795
1,2,4,4,3,1,0,1,2021-08-07 11:40:37,545795
-1,-2,-2,-2,0,2,0,0,2021-08-07 11:40:37,561796
-3,-1,-2,-1,1,-1,-1,-2,2021-08-07 11:40:37,561796
2,1,2,-2,-3,-3,-2,0,2021-08-07 11:40:37,561796
-1,-4,-3,-2,1,1,-1,-2,2021-08-07 11:40:37,561796
-3,-4,0,-1,-3,-4,-3,-2,2021-08-07 11:40:37,577797
2,2,2,2,1,2,-2,-1,2021-08-07 11:40:37,577797
-5,-7,-7,-9,-7,-4,-2,-4,2021-08-07 11:40:37,577797
7,7,4,4,2,2,3,3,2021-08-07 11:40:37,577797
-5,-5,-6,-3,-2,-3,-3,-5,2021-08-07 11:40:37,609795
4,5,2,5,-2,-1,0,1,2021-08-07 11:40:37,609795
-4,-4,-4,-1,-1,-3,-4,-4,2021-08-07 11:40:37,609795
-2,-2,-1,-2,-3,-2,-2,0,2021-08-07 11:40:37,609795
3,4,4,1,1,1,0,3,2021-08-07 11:40:37,609795
-5,-6,-5,-4,-8,-4,-2,-4,2021-08-07 11:40:37,609795
0,-3,-3,-6,4,2,0,1,2021-08-07 11:40:37,624797
4,4,6,15,10,6,4,3,2021-08-07 11:40:37,624797
-1,-1,-1,-2,-2,-2,0,-3,2021-08-07 11:40:37,640797
-2,-3,-1,0,6,0,-2,-1,2021-08-07 11:40:37,640797
-2,-2,-2,-2,-8,-4,-1,-1,2021-08-07 11:40:37,640797
-4,-6,-6,-8,-5,-4,-3,-4,2021-08-07 11:40:37,640797
4,6,6,5,3,5,2,3,2021-08-07 11:40:37,672796
-3,-4,-5,-5,-8,-2,-2,-4,2021-08-07 11:40:37,672796
3,3,1,2,-2,-1,2,1,2021-08-07 11:40:37,672796
-4,-3,-5,-2,0,-2,-4,-4,2021-08-07 11:40:37,672796
1,1,-1,0,-3,-2,0,1,2021-08-07 11:40:37,672796
-2,-3,-2,-2,0,-1,-1,0,2021-08-07 11:40:37,672796
2,3,3,6,5,2,2,0,2021-08-07 11:40:37,673796
-2,-3,-4,-5,-9,-4,-3,-2,2021-08-07 11:40:37,673796
-1,-3,-3,0,1,-2,-1,0,2021-08-07 11:40:37,703798
-3,-2,-2,-9,-5,-2,-1,-1,2021-08-07 11:40:37,719795
4,5,5,9,2,4,2,2,2021-08-07 11:40:37,719795
2,3,6,12,13,5,4,2,2021-08-07 11:40:37,719795
-6,-7,-7,-11,-10,-2,-3,-5,2021-08-07 11:40:37,719795
-2,-3,-2,4,5,1,-2,-2,2021-08-07 11:40:37,719795
0,0,-1,-2,-2,2,-1,-1,2021-08-07 11:40:37,735796
1,0,-1,-4,-5,-4,-2,-2,2021-08-07 11:40:37,751798
-2,-2,1,1,0,-1,-1,-1,2021-08-07 11:40:37,767795
-3,-2,2,5,2,0,2,-1,2021-08-07 11:40:37,767795
0,2,1,-5,-2,-3,2,1,2021-08-07 11:40:37,767795
2,0,-2,-2,-3,-1,0,-1,2021-08-07 11:40:37,767795
-3,-3,-4,-11,-11,-6,-4,0,2021-08-07 11:40:37,783795
3,1,1,3,6,4,0,1,2021-08-07 11:40:37,783795
4,5,9,19,11,5,1,-1,2021-08-07 11:40:37,783795
-8,-9,-11,-14,-9,-7,-3,-5,2021-08-07 11:40:37,783795
0,1,-3,-12,-12,-8,0,1,2021-08-07 11:40:37,783795
1,0,-1,-3,-4,-1,1,-1,2021-08-07 11:40:37,783795
-2,-2,2,6,8,5,0,-2,2021-08-07 11:40:37,784797
4,6,9,18,18,9,3,2,2021-08-07 11:40:37,784797
-10,-12,-16,-24,-23,-18,-9,-8,2021-08-07 11:40:37,798795
0,-1,-5,-12,-12,-5,-3,1,2021-08-07 11:40:37,798795
-2,-1,0,3,1,-2,-1,0,2021-08-07 11:40:37,798795
-2,-4,-4,-9,-11,-5,-4,-2,2021-08-07 11:40:37,798795
1,0,6,16,24,11,4,0,2021-08-07 11:40:37,830795
4,4,3,3,2,1,1,3,2021-08-07 11:40:37,846797
3,0,-3,-7,-9,-4,-2,0,2021-08-07 11:40:37,862796
-3,-4,-4,-5,-5,-2,-3,-1,2021-08-07 11:40:37,878795
-3,0,-6,-14,-10,-2,-3,-1,2021-08-07 11:40:37,878795
5,7,8,25,24,9,5,4,2021-08-07 11:40:37,878795
-2,-2,-3,-7,3,2,1,0,2021-08-07 11:40:37,878795
-3,-4,1,2,5,2,3,0,2021-08-07 11:40:37,878795
-2,2,1,-3,-5,-3,-2,-2,2021-08-07 11:40:37,878795
-10,-6,-8,-11,-17,-11,-9,-8,2021-08-07 11:40:37,879797
2,3,4,1,10,2,0,1,2021-08-07 11:40:37,879797
2,0,0,8,-2,-3,-2,0,2021-08-07 11:40:37,879797
6,5,8,9,9,6,2,5,2021-08-07 11:40:37,879797
-1,-1,-4,-8,-9,-5,-2,0,2021-08-07 11:40:37,879797
-1,-2,-5,-12,-11,-4,-2,1,2021-08-07 11:40:37,879797
-2,-2,-4,-14,-7,-3,-3,-2,2021-08-07 11:40:37,880796
-2,-1,-1,11,9,2,0,-2,2021-08-07 11:40:37,910796
-3,-3,-2,3,8,4,0,0,2021-08-07 11:40:37,926797
-2,-2,-3,-3,-9,-5,-3,-2,2021-08-07 11:40:37,942798
-2,-1,0,-1,-1,0,-1,0,2021-08-07 11:40:37,942798
-1,-1,2,3,-1,-2,-2,-2,2021-08-07 11:40:37,942798
-1,-4,-6,-9,-5,-2,-1,-2,2021-08-07 11:40:37,942798
-4,-2,0,2,-3,-2,-1,-1,2021-08-07 11:40:37,942798
0,0,-2,-3,-7,-4,-3,-2,2021-08-07 11:40:37,958797
3,2,6,12,14,7,4,2,2021-08-07 11:40:37,974795
-1,0,0,-3,-2,-2,0,-1,2021-08-07 11:40:37,974795
-5,-6,-5,-1,-6,-2,-2,-3,2021-08-07 11:40:37,974795
3,2,2,0,3,2,0,1,2021-08-07 11:40:37,974795
-2,-1,0,3,-2,0,0,-1,2021-08-07 11:40:37,974795
-2,-2,-1,-3,-1,-1,-2,-3,2021-08-07 11:40:37,974795
1,1,-1,-1,0,-1,1,1,2021-08-07 11:40:37,975797
-1,0,-1,-8,-11,-7,-2,-1,2021-08-07 11:40:37,975797
0,0,-4,-3,-2,0,-1,0,2021-08-07 11:40:37,975797
2,1,4,6,5,3,2,2,2021-08-07 11:40:37,975797
-4,-5,-4,-6,-8,-5,-5,-4,2021-08-07 11:40:37,975797
-1,1,-2,-1,1,3,2,0,2021-08-07 11:40:37,975797
1,1,-1,-3,-2,-2,0,1,2021-08-07 11:40:38,005796
-2,0,5,11,6,2,-1,-2,2021-08-07 11:40:38,020798
1,-2,1,-2,3,1,-1,-1,2021-08-07 11:40:38,020798
-3,-2,-3,-1,4,-2,-3,-3,2021-08-07 11:40:38,020798
-3,-6,-5,-5,-5,-2,-1,-1,2021-08-07 11:40:38,020798
3,3,0,-2,-3,-1,1,1,2021-08-07 11:40:38,020798
3,5,3,3,0,0,0,0,2021-08-07 11:40:38,020798
-3,-2,-2,0,0,1,-1,-2,2021-08-07 11:40:38,021797
0,-1,0,-5,-5,-3,-2,-2,2021-08-07 11:40:38,036795
-1,-2,-1,-1,1,1,-1,0,2021-08-07 11:40:38,052797
-2,-3,-3,-1,-4,-1,0,-1,2021-08-07 11:40:38,068796
-2,-3,-4,-6,-7,-2,-1,-1,2021-08-07 11:40:38,100796
-3,-5,-5,-6,-6,-4,-4,-3,2021-08-07 11:40:38,116796
8,11,16,29,26,13,8,7,2021-08-07 11:40:38,116796
-2,-4,-6,-8,-7,-4,-2,-3,2021-08-07 11:40:38,116796
-3,-3,-1,-1,-5,-3,-3,-1,2021-08-07 11:40:38,116796
0,1,0,-3,0,0,1,0,2021-08-07 11:40:38,116796
-3,-3,-5,-9,-11,-6,-4,-3,2021-08-07 11:40:38,116796
-2,-2,1,3,6,2,-1,1,2021-08-07 11:40:38,116796
1,-3,-1,3,2,-2,-1,-2,2021-08-07 11:40:38,116796
-2,0,-2,0,0,1,-2,-2,2021-08-07 11:40:38,116796
-2,-5,-3,-9,-5,-1,0,-2,2021-08-07 11:40:38,117797
-1,-2,-2,-1,-1,-2,-2,-2,2021-08-07 11:40:38,117797
-2,-2,-5,-5,-3,-1,-3,-1,2021-08-07 11:40:38,117797
1,1,2,5,3,1,0,-1,2021-08-07 11:40:38,117797
-3,-3,-2,-10,-7,-2,-2,-3,2021-08-07 11:40:38,117797
-7,-7,-4,-5,-5,-3,-3,-5,2021-08-07 11:40:38,117797
5,4,7,5,4,3,3,4,2021-08-07 11:40:38,117797
5,6,5,4,-2,2,0,1,2021-08-07 11:40:38,147796
-1,-1,-2,-2,-5,-1,-1,0,2021-08-07 11:40:38,163794
-2,-2,-1,9,13,2,0,-2,2021-08-07 11:40:38,163794
-2,-1,-2,1,0,-1,0,-2,2021-08-07 11:40:38,163794
-3,-4,-3,-3,2,1,-1,-2,2021-08-07 11:40:38,163794
1,0,-1,-8,-11,-6,-2,-1,2021-08-07 11:40:38,163794
2,5,6,4,1,2,1,1,2021-08-07 11:40:38,163794
-2,-1,-4,-2,-2,-1,-2,-2,2021-08-07 11:40:38,164797
3,2,3,1,-3,-2,1,1,2021-08-07 11:40:38,178796
-2,-3,-5,-4,-2,-2,-3,-4,2021-08-07 11:40:38,178796
-2,-3,-3,-6,-8,-4,-3,-2,2021-08-07 11:40:38,178796
-6,-5,-5,-5,-3,-1,-4,-3,2021-08-07 11:40:38,178796
3,6,7,14,10,6,5,4,2021-08-07 11:40:38,210797
0,-2,0,3,5,2,0,0,2021-08-07 11:40:38,226798
1,-1,-2,-1,-2,-1,0,0,2021-08-07 11:40:38,241796
-5,-4,-9,-16,-15,-9,-5,-6,2021-08-07 11:40:38,257797
4,1,3,2,5,1,0,1,2021-08-07 11:40:38,257797
-1,-3,1,6,3,3,0,-1,2021-08-07 11:40:38,257797
-1,0,0,0,-3,-1,-1,-2,2021-08-07 11:40:38,257797
0,-1,2,6,11,6,1,-1,2021-08-07 11:40:38,257797
2,3,2,4,3,-1,0,1,2021-08-07 11:40:38,258799
-2,-3,-2,-1,2,-1,-1,-1,2021-08-07 11:40:38,258799
1,1,-1,-5,-7,-3,0,0,2021-08-07 11:40:38,258799
-1,-1,-3,-6,-13,-6,-2,-2,2021-08-07 11:40:38,258799
-8,-6,-7,-5,-3,-2,-3,-2,2021-08-07 11:40:38,258799
-6,-5,-6,-6,-2,-1,-3,-3,2021-08-07 11:40:38,258799
5,8,5,7,4,3,2,2,2021-08-07 11:40:38,258799
2,-1,-1,-4,-1,0,0,1,2021-08-07 11:40:38,258799
-4,-5,-8,-11,-10,-3,-4,-4,2021-08-07 11:40:38,288795
1,2,0,5,2,-2,0,1,2021-08-07 11:40:38,289208
-3,-3,0,-2,1,-1,-2,-1,2021-08-07 11:40:38,289208
-2,2,2,8,-1,-1,0,0,2021-08-07 11:40:38,289208
-4,-4,-8,-15,-17,-8,-5,-3,2021-08-07 11:40:38,304829
6,6,12,20,29,13,7,5,2021-08-07 11:40:38,320830
-1,-2,-3,-3,-2,-2,0,-1,2021-08-07 11:40:38,320830
-1,-1,0,2,2,-1,-1,-1,2021-08-07 11:40:38,320830
-5,-3,-5,-6,-11,-6,-4,-3,2021-08-07 11:40:38,320830
-4,-2,-7,-11,-12,-5,-2,-2,2021-08-07 11:40:38,320830
-3,-5,-3,-5,-5,-1,-3,-2,2021-08-07 11:40:38,320830
1,1,3,3,4,2,1,-1,2021-08-07 11:40:38,320830
0,-3,2,5,6,3,2,1,2021-08-07 11:40:38,336830
3,3,1,-5,-7,-2,-1,2,2021-08-07 11:40:38,352831
0,0,-2,-1,-1,-2,-1,0,2021-08-07 11:40:38,352831
0,2,1,0,-6,-2,-2,1,2021-08-07 11:40:38,352831
0,-1,0,0,14,7,1,0,2021-08-07 11:40:38,352831
0,-1,3,12,8,2,-1,-2,2021-08-07 11:40:38,352831
-4,-5,-6,0,-1,-2,-2,-3,2021-08-07 11:40:38,352831
5,7,7,9,8,4,4,4,2021-08-07 11:40:38,353832
-2,-1,0,3,-1,-2,-2,0,2021-08-07 11:40:38,384828
-6,-5,-7,-14,-15,-9,-5,-5,2021-08-07 11:40:38,384828
-4,-3,-4,-5,-2,-3,-1,0,2021-08-07 11:40:38,384828
2,2,-1,-2,0,1,1,1,2021-08-07 11:40:38,384828
0,0,2,11,2,1,1,-2,2021-08-07 11:40:38,416829
-1,-3,-5,-9,-9,-5,-2,-1,2021-08-07 11:40:38,432830
-1,-1,-4,-10,-5,-4,-4,-1,2021-08-07 11:40:38,432830
3,3,6,11,14,5,5,2,2021-08-07 11:40:38,432830
-1,0,0,-1,-1,0,-1,0,2021-08-07 11:40:38,432830
-3,0,-3,-5,-1,0,0,-2,2021-08-07 11:40:38,432830
-3,-3,-3,-3,-7,-6,-3,-3,2021-08-07 11:40:38,432830
-4,-4,-6,-9,-5,-3,-4,-4,2021-08-07 11:40:38,432830
-2,-4,-5,-12,0,-1,-3,-2,2021-08-07 11:40:38,447830
3,5,3,3,-5,0,1,4,2021-08-07 11:40:38,463828
0,1,0,-7,-3,1,1,0,2021-08-07 11:40:38,465829
-3,-2,-1,1,2,1,-2,-2,2021-08-07 11:40:38,465829
2,0,0,4,4,2,1,0,2021-08-07 11:40:38,465829
-2,-2,-3,-4,-1,-2,-2,-3,2021-08-07 11:40:38,466832
-1,-1,0,0,-1,0,-1,0,2021-08-07 11:40:38,466832
-4,-4,-5,-7,-13,-4,-3,-1,2021-08-07 11:40:38,466832
-3,-3,-2,-7,-8,-6,-4,-3,2021-08-07 11:40:38,494829
4,2,2,11,8,4,3,2,2021-08-07 11:40:38,494829
-1,-2,-2,2,1,2,0,0,2021-08-07 11:40:38,495831
1,2,1,6,7,2,2,0,2021-08-07 11:40:38,495831
-1,-4,-2,0,-4,-1,0,-2,2021-08-07 11:40:38,510831
-2,0,-3,-10,-7,-3,-2,-1,2021-08-07 11:40:38,526339
-5,-5,-4,-8,-9,-3,-3,-3,2021-08-07 11:40:38,541341
4,4,5,10,12,6,4,4,2021-08-07 11:40:38,541341
1,2,1,3,6,3,0,2,2021-08-07 11:40:38,541341
-4,-5,-6,-13,-13,-8,-3,-5,2021-08-07 11:40:38,541341
-1,0,-2,-2,-6,-2,-1,-2,2021-08-07 11:40:38,541341
-5,-5,-8,-7,1,0,-3,-4,2021-08-07 11:40:38,541341
4,5,5,8,7,6,5,4,2021-08-07 11:40:38,541341
0,-2,1,13,14,5,2,2,2021-08-07 11:40:38,541341
2,2,2,1,-4,-3,-1,0,2021-08-07 11:40:38,542341
-2,-2,-2,-3,-5,-5,-4,-2,2021-08-07 11:40:38,542341
-3,-2,-3,-4,-5,-4,-4,-1,2021-08-07 11:40:38,572341
-2,-4,-3,-4,-2,0,0,-2,2021-08-07 11:40:38,572341
1,1,6,8,9,4,0,1,2021-08-07 11:40:38,572341
-2,-5,-8,-14,-13,-6,-2,0,2021-08-07 11:40:38,572341
-2,-5,-7,-5,-7,-5,-1,-1,2021-08-07 11:40:38,588341
-1,-1,-5,-14,-11,-5,-3,-1,2021-08-07 11:40:38,604339
5,6,8,18,20,9,5,4,2021-08-07 11:40:38,604339
-4,-8,-8,-19,-20,-9,-4,-6,2021-08-07 11:40:38,604339
2,6,9,23,22,8,4,2,2021-08-07 11:40:38,604339
0,0,1,1,-2,0,-2,-1,2021-08-07 11:40:38,604339
-1,-1,-2,-4,-2,-1,-1,-3,2021-08-07 11:40:38,604339
-4,-4,-2,2,0,0,-2,-2,2021-08-07 11:40:38,605342
-3,-2,-5,-13,-14,-6,-4,-3,2021-08-07 11:40:38,620340
4,5,5,6,8,2,2,3,2021-08-07 11:40:38,620340
1,0,-3,-6,-11,-5,-2,0,2021-08-07 11:40:38,620340
-1,1,1,3,6,4,1,3,2021-08-07 11:40:38,636340
-1,-5,-3,9,15,5,2,-3,2021-08-07 11:40:38,668343
1,1,1,-1,0,1,1,1,2021-08-07 11:40:38,684340
-6,-6,-6,-6,-3,-2,-2,-4,2021-08-07 11:40:38,684340
-2,-2,0,-1,-1,-3,-4,-3,2021-08-07 11:40:38,684340
1,2,2,3,5,2,-1,0,2021-08-07 11:40:38,684340
-3,-1,0,0,-4,-3,-4,-4,2021-08-07 11:40:38,684340
1,-1,-1,-3,-1,-3,-3,-1,2021-08-07 11:40:38,684340
-1,1,-1,-4,-7,-3,0,-1,2021-08-07 11:40:38,685340
-4,-4,-5,-9,-8,-4,-3,-1,2021-08-07 11:40:38,685340
3,4,4,1,-3,0,3,3,2021-08-07 11:40:38,685340
1,1,0,1,-1,1,1,2,2021-08-07 11:40:38,685340
1,3,5,13,11,2,1,0,2021-08-07 11:40:38,685340
1,0,-3,-6,-6,-2,-2,-1,2021-08-07 11:40:38,716341
-6,-7,-7,-6,-7,-4,-4,-5,2021-08-07 11:40:38,732339
-1,-2,-4,-11,-6,-3,-2,-2,2021-08-07 11:40:38,748339
5,7,10,25,21,8,3,3,2021-08-07 11:40:38,763340
1,0,-1,-4,-5,-1,1,-1,2021-08-07 11:40:38,763340
-5,-4,-3,2,-1,-1,-1,-2,2021-08-07 11:40:38,763340
-3,0,1,1,0,0,0,-2,2021-08-07 11:40:38,763340
-4,-6,-6,-12,-9,-2,-1,-4,2021-08-07 11:40:38,763340
-3,-2,-1,-5,-6,-4,-4,0,2021-08-07 11:40:38,763340
3,3,5,11,14,7,2,1,2021-08-07 11:40:38,763340
-1,-1,1,1,2,-2,0,1,2021-08-07 11:40:38,763340
-2,-1,-2,-2,-2,-4,-2,0,2021-08-07 11:40:38,763340
-3,-1,-2,-2,-4,-1,-2,-1,2021-08-07 11:40:38,794339
-3,-5,-5,-7,-7,-4,-2,-2,2021-08-07 11:40:38,794339
0,1,1,0,-3,0,-1,0,2021-08-07 11:40:38,794339
2,2,1,-4,-6,-1,2,1,2021-08-07 11:40:38,794339
-1,-1,-1,-5,0,-1,-2,0,2021-08-07 11:40:38,794339
-5,-2,0,10,9,5,-1,0,2021-08-07 11:40:38,794339
-1,-2,-2,1,1,-1,-3,-1,2021-08-07 11:40:38,795341
-2,-3,-1,-4,-7,-5,-3,-2,2021-08-07 11:40:38,795341
3,2,4,0,-3,0,1,3,2021-08-07 11:40:38,810340
1,0,-3,-6,-8,-4,-2,0,2021-08-07 11:40:38,826340
-2,-3,-6,-7,-11,-5,-2,-2,2021-08-07 11:40:38,826340
-1,0,1,13,16,6,1,2,2021-08-07 11:40:38,826340
1,3,7,16,9,3,3,2,2021-08-07 11:40:38,826340
-2,0,3,7,6,1,1,-1,2021-08-07 11:40:38,826340
-2,-1,-2,-4,-5,-4,-1,-3,2021-08-07 11:40:38,826340
-1,-3,-5,-11,-7,-3,-3,-1,2021-08-07 11:40:38,827341
-2,-1,-2,-3,-1,-3,-3,-3,2021-08-07 11:40:38,842342
-1,0,-1,-5,-3,-1,-2,-2,2021-08-07 11:40:38,857341
-1,0,-2,-2,-2,-1,-3,1,2021-08-07 11:40:38,857341
-2,-3,-1,4,-1,-1,1,-1,2021-08-07 11:40:38,857341
0,0,-1,0,1,0,-1,1,2021-08-07 11:40:38,857341
-2,-4,-5,-6,-7,-5,-3,-1,2021-08-07 11:40:38,857341
1,-1,0,-3,1,0,-1,-1,2021-08-07 11:40:38,857341
-3,-5,-6,-10,-7,-3,-1,-2,2021-08-07 11:40:38,857341
5,6,12,21,23,10,4,3,2021-08-07 11:40:38,889341
-5,-7,-7,-6,-5,-5,-4,-5,2021-08-07 11:40:38,905340
-1,2,0,1,2,1,1,0,2021-08-07 11:40:38,905340
1,1,1,-7,-8,-3,-2,-1,2021-08-07 11:40:38,905340
-3,-3,-7,-14,-15,-6,-2,-2,2021-08-07 11:40:38,905340
-2,-4,-8,-14,-12,-6,-3,-2,2021-08-07 11:40:38,905340
0,0,5,10,13,4,-1,1,2021-08-07 11:40:38,905340
-2,-3,-2,0,3,-1,-2,-2,2021-08-07 11:40:38,906341
0,1,2,0,-1,1,0,-2,2021-08-07 11:40:38,920341
2,1,5,10,7,2,2,1,2021-08-07 11:40:38,920341
-5,-5,-7,-12,-15,-9,-6,-5,2021-08-07 11:40:38,920341
0,2,1,-5,-3,0,1,1,2021-08-07 11:40:38,921339
-2,-4,-3,-1,-1,-3,-2,-2,2021-08-07 11:40:38,953340
-2,-1,1,4,5,2,1,0,2021-08-07 11:40:38,953340
3,4,4,5,9,2,1,1,2021-08-07 11:40:38,953340
2,1,4,9,5,2,1,2,2021-08-07 11:40:38,953340
-6,-6,-10,-10,-10,-7,-4,-5,2021-08-07 11:40:38,954340
5,6,6,-2,-4,2,2,2,2021-08-07 11:40:38,954340
-3,-5,-5,-4,1,-3,-1,-3,2021-08-07 11:40:38,954340
2,1,1,6,3,2,1,3,2021-08-07 11:40:38,954340
2,2,1,-3,-4,-1,0,1,2021-08-07 11:40:38,984340
-2,-1,1,4,5,1,0,0,2021-08-07 11:40:38,984340
4,3,5,10,5,4,0,2,2021-08-07 11:40:38,984340
-1,-2,-3,-3,-2,0,-1,-1,2021-08-07 11:40:38,984340
-2,-4,-10,-16,-12,-8,-3,-3,2021-08-07 11:40:39,016340
0,3,-1,-5,-3,-1,-2,-1,2021-08-07 11:40:39,016340
-4,-4,-3,1,2,0,-1,-2,2021-08-07 11:40:39,016340
-3,-2,-1,-3,-4,-1,-3,-2,2021-08-07 11:40:39,016340
4,5,5,5,6,4,2,4,2021-08-07 11:40:39,032341
0,-1,-2,-2,1,-1,0,-2,2021-08-07 11:40:39,032341
-4,-2,-2,-4,-4,-1,0,0,2021-08-07 11:40:39,032341
-1,-1,2,5,9,1,-1,-3,2021-08-07 11:40:39,032341
-4,-4,-1,7,4,1,0,-2,2021-08-07 11:40:39,048341
3,1,-4,-8,-7,-4,1,2,2021-08-07 11:40:39,048341
1,0,-1,-2,-5,-3,0,1,2021-08-07 11:40:39,048341
0,0,-2,-7,-3,-3,-2,-3,2021-08-07 11:40:39,048341
-2,-3,-2,-7,-6,-4,-4,-1,2021-08-07 11:40:39,064341
-3,-1,2,11,9,1,1,-1,2021-08-07 11:40:39,064341
0,-3,-3,1,-2,0,-1,-2,2021-08-07 11:40:39,064341
1,0,0,-4,-3,-2,0,2,2021-08-07 11:40:39,064341
-2,0,-1,-2,-5,-4,-1,-3,2021-08-07 11:40:39,080340
-1,0,-5,-15,-13,-5,-2,0,2021-08-07 11:40:39,080340
3,4,6,15,21,9,5,3,2021-08-07 11:40:39,096341
-3,-1,0,6,5,-1,-1,-3,2021-08-07 11:40:39,096341
-3,-2,-2,1,-1,0,-2,-1,2021-08-07 11:40:39,096341
-2,-2,-3,-7,-7,-3,-1,1,2021-08-07 11:40:39,096341
-4,-4,-5,-12,-15,-8,-4,-3,2021-08-07 11:40:39,112341
1,3,2,1,2,2,-1,1,2021-08-07 11:40:39,112341
2,-1,0,1,1,0,-1,0,2021-08-07 11:40:39,128340
-1,-2,-1,-2,0,-3,-2,0,2021-08-07 11:40:39,128340
-2,-5,-4,-7,-3,-3,-2,-3,2021-08-07 11:40:39,128340
1,1,1,3,0,-1,0,1,2021-08-07 11:40:39,128340
1,1,0,-1,-1,1,-2,0,2021-08-07 11:40:39,144339
1,-1,1,3,3,2,0,0,2021-08-07 11:40:39,144339
-2,-2,-1,2,0,-1,-1,-1,2021-08-07 11:40:39,144339
-4,-2,-3,-5,-4,-3,-1,-2,2021-08-07 11:40:39,144339
0,-1,0,-2,-1,-3,-1,0,2021-08-07 11:40:39,175340
-1,-1,0,1,3,1,-1,-2,2021-08-07 11:40:39,191340
-2,-2,-2,-2,-4,-2,-2,-2,2021-08-07 11:40:39,191340
-3,-2,-5,-7,-8,-2,-1,-1,2021-08-07 11:40:39,191340
0,2,4,11,10,6,2,0,2021-08-07 11:40:39,191340
1,1,6,10,9,6,2,-1,2021-08-07 11:40:39,191340
-5,-5,-9,-15,-17,-13,-5,-4,2021-08-07 11:40:39,192341
0,-2,-3,-7,-7,-3,-1,-1,2021-08-07 11:40:39,192341
-1,1,3,0,1,0,0,-1,2021-08-07 11:40:39,192341
3,4,8,15,14,8,1,0,2021-08-07 11:40:39,192341
-2,-4,-1,3,10,6,1,-1,2021-08-07 11:40:39,207340
-1,-3,-7,-14,-17,-9,-5,-1,2021-08-07 11:40:39,207340
-5,-7,-11,-19,-19,-13,-5,-4,2021-08-07 11:40:39,223341
-1,-1,-4,-6,-7,-4,-1,0,2021-08-07 11:40:39,223341
2,4,7,10,10,7,2,2,2021-08-07 11:40:39,223341
1,1,4,8,12,5,2,0,2021-08-07 11:40:39,223341
1,-1,2,4,3,1,0,0,2021-08-07 11:40:39,255339
-1,-2,-1,0,1,0,-2,-1,2021-08-07 11:40:39,271339
0,0,-1,-3,-2,-1,-1,-1,2021-08-07 11:40:39,271339
-3,-3,-3,-3,-6,-6,-4,-2,2021-08-07 11:40:39,271339
0,1,2,2,3,2,1,0,2021-08-07 11:40:39,271339
-3,-3,-4,-7,-7,-5,-1,-1,2021-08-07 11:40:39,271339
1,1,1,1,0,0,0,0,2021-08-07 11:40:39,271339
0,1,0,3,3,2,0,0,2021-08-07 11:40:39,272340
-2,-1,-3,-3,-6,-3,-1,0,2021-08-07 11:40:39,287341
-2,-3,-4,-5,-8,-4,-2,0,2021-08-07 11:40:39,287341
1,1,2,9,11,2,2,2,2021-08-07 11:40:39,287341
0,-1,0,-2,-1,1,0,-2,2021-08-07 11:40:39,287341
-1,-1,0,5,5,1,1,-3,2021-08-07 11:40:39,303340
0,-2,-3,-4,-4,-1,0,0,2021-08-07 11:40:39,303340
0,0,-1,3,-2,-2,-2,-1,2021-08-07 11:40:39,303340
0,1,-2,-5,-4,-1,-2,-1,2021-08-07 11:40:39,303340
-4,-2,-3,-5,-5,-3,-3,-2,2021-08-07 11:40:39,335340
4,5,5,7,14,8,4,5,2021-08-07 11:40:39,351339
-4,-3,-5,-8,-6,-4,-3,-4,2021-08-07 11:40:39,367339
-4,-6,-3,-3,-3,-3,-4,-3,2021-08-07 11:40:39,367339
6,7,4,-2,-2,2,2,4,2021-08-07 11:40:39,367339
-2,-2,-1,-1,0,-4,-2,-2,2021-08-07 11:40:39,367339
-2,-2,-3,-3,-1,-1,0,0,2021-08-07 11:40:39,367339
-3,-2,-2,-3,-4,-3,-1,-2,2021-08-07 11:40:39,367339
0,-2,0,5,4,1,0,-2,2021-08-07 11:40:39,367339
-3,-3,-2,-4,-6,-5,-5,-4,2021-08-07 11:40:39,367339
0,1,-2,7,6,4,1,1,2021-08-07 11:40:39,367339
-2,-4,-3,-3,-6,-3,-1,-1,2021-08-07 11:40:39,368342
0,-2,-1,-3,6,2,2,1,2021-08-07 11:40:39,399341
-2,-2,-3,-1,-9,-4,-4,-3,2021-08-07 11:40:39,399341
-3,-2,0,-6,-4,-3,-2,-2,2021-08-07 11:40:39,399341
-2,0,-1,4,10,5,2,-1,2021-08-07 11:40:39,399341
2,3,3,9,2,3,2,3,2021-08-07 11:40:39,399341
-4,-4,-6,-8,-6,-3,-3,-5,2021-08-07 11:40:39,399341
-3,-3,-2,-4,-7,-5,-3,-2,2021-08-07 11:40:39,415341
1,2,1,-2,-2,0,-1,0,2021-08-07 11:40:39,431339
-3,-2,-1,2,3,0,-2,-2,2021-08-07 11:40:39,447340
-1,-1,-4,-5,-6,-2,-1,-1,2021-08-07 11:40:39,463339
-3,-1,-1,-4,-6,-3,-3,-2,2021-08-07 11:40:39,463339
0,0,3,7,9,2,0,-1,2021-08-07 11:40:39,463339
-1,0,-3,-2,-2,0,-1,1,2021-08-07 11:40:39,463339
0,-1,-1,-1,0,0,0,0,2021-08-07 11:40:39,463339
2,0,-1,1,1,0,-1,-1,2021-08-07 11:40:39,463339
0,0,2,6,2,1,2,1,2021-08-07 11:40:39,463339
-4,-7,-9,-13,-6,-4,-1,-1,2021-08-07 11:40:39,463339
-3,-3,-6,-8,-7,-4,-1,-3,2021-08-07 11:40:39,464341
-1,1,3,2,6,3,1,-2,2021-08-07 11:40:39,464341
5,12,19,33,27,16,4,3,2021-08-07 11:40:39,464341
-12,-12,-15,-14,-11,-12,-6,-10,2021-08-07 11:40:39,495341
-4,-4,-11,-21,-19,-10,-4,-1,2021-08-07 11:40:39,511342
5,6,6,-1,0,3,1,2,2021-08-07 11:40:39,527341
1,-3,-1,-1,-6,-5,-2,0,2021-08-07 11:40:39,527341
2,2,0,2,2,0,0,0,2021-08-07 11:40:39,527341
3,3,3,4,6,4,3,4,2021-08-07 11:40:39,527341
-2,-2,-2,0,-4,-3,-1,-2,2021-08-07 11:40:39,527341
-2,-3,-4,-1,5,3,0,-3,2021-08-07 11:40:39,527341
0,1,6,7,-4,-2,-1,0,2021-08-07 11:40:39,528340
-1,0,-2,-4,-3,-6,-3,-4,2021-08-07 11:40:39,528340
-3,-4,-7,-7,-1,-2,-2,-2,2021-08-07 11:40:39,528340
-2,-2,-3,-1,-3,-3,-1,-1,2021-08-07 11:40:39,528340
-2,-4,-4,-8,0,-2,-3,-3,2021-08-07 11:40:39,558341
0,4,8,14,10,7,2,2,2021-08-07 11:40:39,558341
1,4,5,10,5,3,2,1,2021-08-07 11:40:39,558341
-2,-1,-1,-2,0,-3,-2,-1,2021-08-07 11:40:39,558341
-4,-7,-8,-18,-20,-9,-5,-4,2021-08-07 11:40:39,574340
4,4,5,10,17,7,3,2,2021-08-07 11:40:39,574340
0,-1,0,5,1,-1,-1,0,2021-08-07 11:40:39,574340
-1,-2,-5,-11,-11,-6,-2,0,2021-08-07 11:40:39,574340
4,8,11,15,14,7,3,1,2021-08-07 11:40:39,589342
0,-2,0,7,5,5,0,-1,2021-08-07 11:40:39,605341
-5,-9,-10,-19,-17,-12,-5,-4,2021-08-07 11:40:39,621340
-1,-1,-1,-5,-8,-3,-2,-1,2021-08-07 11:40:39,621340
1,0,1,1,4,3,0,3,2021-08-07 11:40:39,621340
-3,-4,0,3,4,0,-1,-3,2021-08-07 11:40:39,621340
-1,0,0,2,-1,0,-1,-1,2021-08-07 11:40:39,621340
-1,0,-2,-3,0,1,1,1,2021-08-07 11:40:39,621340
-1,-1,0,0,-2,-2,-2,-1,2021-08-07 11:40:39,622341
-1,-3,-4,-8,-12,-7,-3,-2,2021-08-07 11:40:39,622341
0,1,3,5,4,3,0,0,2021-08-07 11:40:39,622341
3,1,3,9,14,8,4,0,2021-08-07 11:40:39,622341
0,0,1,4,4,3,0,2,2021-08-07 11:40:39,652339
-2,-2,-10,-27,-35,-22,-8,-1,2021-08-07 11:40:39,652339
-4,-3,-9,-19,-26,-12,-4,-3,2021-08-07 11:40:39,652792
0,-1,0,5,6,1,-1,-1,2021-08-07 11:40:39,652792
-1,-1,3,14,15,7,2,0,2021-08-07 11:40:39,668373
0,1,5,12,15,10,4,2,2021-08-07 11:40:39,684373
-1,-1,0,-2,-2,-2,-2,-1,2021-08-07 11:40:39,684373
0,-2,-5,-11,-11,-7,-3,-1,2021-08-07 11:40:39,684373
-1,-1,-1,2,1,0,-1,-1,2021-08-07 11:40:39,684373
-3,-3,1,1,2,0,0,-3,2021-08-07 11:40:39,684373
2,2,0,-2,2,1,-1,-1,2021-08-07 11:40:39,684373
-3,-3,-3,-4,-5,-2,-2,-1,2021-08-07 11:40:39,684373
3,3,1,0,-3,-1,1,1,2021-08-07 11:40:39,700374
-3,-4,-4,-6,-4,-3,-2,-4,2021-08-07 11:40:39,700374
0,0,1,4,3,1,-2,1,2021-08-07 11:40:39,716373
0,-2,-1,-5,-3,0,-1,0,2021-08-07 11:40:39,732374
2,2,3,10,12,5,3,1,2021-08-07 11:40:39,732374
0,-3,-4,-3,-5,-5,-4,-2,2021-08-07 11:40:39,732374
-4,-4,-7,-9,-15,-8,-2,-4,2021-08-07 11:40:39,732374
-2,-2,-3,-6,-5,-2,-2,-2,2021-08-07 11:40:39,732374
-1,1,2,2,4,4,1,0,2021-08-07 11:40:39,748373
2,1,7,14,17,9,3,1,2021-08-07 11:40:39,748373
-4,-6,-9,-14,-17,-12,-5,-3,2021-08-07 11:40:39,748373
-2,-2,-6,-10,-11,-5,-3,-3,2021-08-07 11:40:39,748373
1,-2,-3,-6,-3,-1,-1,0,2021-08-07 11:40:39,764374
2,2,4,7,8,6,1,1,2021-08-07 11:40:39,764374
3,1,4,12,13,6,2,2,2021-08-07 11:40:39,764374
-1,-2,-3,-4,-3,-5,-2,-1,2021-08-07 11:40:39,764374
-3,-3,-2,-6,-7,-3,-3,-3,2021-08-07 11:40:39,795374
-3,-2,-2,0,-2,-2,-2,0,2021-08-07 11:40:39,795374
2,2,4,12,14,9,3,1,2021-08-07 11:40:39,811375
-1,-2,-3,-2,-3,-1,0,-1,2021-08-07 11:40:39,811375
-1,-3,-4,-10,-13,-8,-2,0,2021-08-07 11:40:39,811375
-2,-3,-5,-8,-7,-4,-1,-2,2021-08-07 11:40:39,811375
1,1,0,2,5,2,1,-1,2021-08-07 11:40:39,811375
-1,0,3,9,7,3,0,-1,2021-08-07 11:40:39,811375
0,0,-2,-3,-3,-2,-2,-2,2021-08-07 11:40:39,827373
-1,0,-2,-6,-5,-2,-1,-1,2021-08-07 11:40:39,843372
0,-2,0,0,-5,-3,-1,-2,2021-08-07 11:40:39,859613
4,4,7,15,27,15,7,2,2021-08-07 11:40:39,859613
1,1,4,11,5,2,2,2,2021-08-07 11:40:39,859613
-3,-3,-5,-5,-6,-4,-2,-2,2021-08-07 11:40:39,859613
-3,-3,-6,-9,-4,-4,-3,-1,2021-08-07 11:40:39,859613
-3,-1,-3,-12,-18,-9,-6,-1,2021-08-07 11:40:39,859613
-2,0,-4,-10,-9,-5,-4,-2,2021-08-07 11:40:39,874892
1,0,4,11,11,6,2,2,2021-08-07 11:40:39,874892
2,-1,4,12,9,5,2,2,2021-08-07 11:40:39,874892
-1,-1,-1,-4,-4,-3,-2,0,2021-08-07 11:40:39,874892
1,-1,-2,5,7,3,-1,-2,2021-08-07 11:40:39,874892
-3,-1,-4,-7,-9,-6,-3,-2,2021-08-07 11:40:39,874892
0,-2,-2,-8,-2,-1,-1,0,2021-08-07 11:40:39,890892
-3,-4,-4,-5,-6,-3,-3,-2,2021-08-07 11:40:39,890892
-2,-2,-4,-8,-5,-4,-1,0,2021-08-07 11:40:39,906891
2,0,1,9,8,3,0,1,2021-08-07 11:40:39,922891
-3,-1,-3,-1,-1,-2,-3,-2,2021-08-07 11:40:39,938891
-2,-3,0,7,5,2,1,-1,2021-08-07 11:40:39,938891
3,3,0,-7,-10,-3,1,2,2021-08-07 11:40:39,938891
-2,-4,-4,-7,-6,0,-2,0,2021-08-07 11:40:39,938891
2,3,1,3,9,5,3,2,2021-08-07 11:40:39,938891
1,1,-5,-8,-12,1,6,2,2021-08-07 11:40:39,938891
2,2,2,-3,8,6,-1,1,2021-08-07 11:40:39,938891
-8,-6,-3,1,-5,-19,-20,-13,2021-08-07 11:40:39,938891
-10,-8,-8,-5,-5,-7,-8,-6,2021-08-07 11:40:39,969891
-6,-6,-7,-10,-11,-8,-5,-4,2021-08-07 11:40:39,969891
3,4,3,1,-2,4,7,4,2021-08-07 11:40:39,969891
11,12,7,2,2,23,31,16,2021-08-07 11:40:39,969891
16,12,9,10,24,34,21,17,2021-08-07 11:40:39,969891
6,4,2,3,1,-2,-13,-2,2021-08-07 11:40:39,969891
-44,-31,-21,-20,-37,-73,-69,-51,2021-08-07 11:40:39,985891
-5,-6,-5,-10,-7,6,18,5,2021-08-07 11:40:39,985891
17,8,2,6,17,41,41,25,2021-08-07 11:40:39,985891
31,29,25,37,32,17,-2,17,2021-08-07 11:40:39,985891
-49,-35,-18,-14,-38,-83,-87,-65,2021-08-07 11:40:40,017892
-15,-10,-8,-19,-14,-12,-9,-10,2021-08-07 11:40:40,017892
25,10,6,12,16,71,81,51,2021-08-07 11:40:40,017892
32,17,6,7,26,46,18,28,2021-08-07 11:40:40,033891
-44,-17,-9,-18,-42,-72,-79,-76,2021-08-07 11:40:40,033891
-14,-8,-10,-14,-20,-12,-7,-14,2021-08-07 11:40:40,033891
11,6,6,6,7,22,21,18,2021-08-07 11:40:40,033891
11,8,11,11,14,24,35,18,2021-08-07 11:40:40,033891
46,20,9,16,36,85,99,92,2021-08-07 11:40:40,049892
49,13,4,13,19,23,-1,22,2021-08-07 11:40:40,065891
-40,-11,-1,-6,-24,-91,-96,-88,2021-08-07 11:40:40,065891
-94,-71,-39,-49,-67,-76,-58,-80,2021-08-07 11:40:40,065891
25,6,13,27,55,46,38,23,2021-08-07 11:40:40,065891
32,13,6,15,31,63,64,50,2021-08-07 11:40:40,065891
68,33,17,19,21,26,16,51,2021-08-07 11:40:40,065891
-18,-7,-15,-33,-63,-94,-73,-47,2021-08-07 11:40:40,066892
-2,5,3,4,4,20,25,16,2021-08-07 11:40:40,096891
19,11,4,10,17,16,3,14,2021-08-07 11:40:40,096891
1,-3,-3,-5,-9,-18,-21,-7,2021-08-07 11:40:40,096891
-26,-3,4,3,8,22,25,-5,2021-08-07 11:40:40,096891
-9,-3,-10,-14,-15,7,20,10,2021-08-07 11:40:40,112892
-23,-12,-8,-5,-10,-37,-30,-23,2021-08-07 11:40:40,112892
-20,-13,-9,-11,-13,-27,-23,-19,2021-08-07 11:40:40,112892
27,9,5,5,10,17,15,23,2021-08-07 11:40:40,112892
34,18,10,13,20,38,25,24,2021-08-07 11:40:40,128892
-25,-11,-4,-12,-19,-23,-27,-27,2021-08-07 11:40:40,128892
-18,-11,-5,-10,-17,-22,-17,-15,2021-08-07 11:40:40,128892
14,3,-1,12,18,25,23,18,2021-08-07 11:40:40,128892
3,-3,-5,-7,-4,2,0,0,2021-08-07 11:40:40,144891
-7,8,10,6,-16,-23,-19,-16,2021-08-07 11:40:40,160889
-9,1,28,53,45,17,4,-3,2021-08-07 11:40:40,160889
19,20,38,53,36,24,16,16,2021-08-07 11:40:40,160889
0,5,-8,-8,-39,-16,-7,-5,2021-08-07 11:40:40,176894
-18,-33,-72,-104,-46,-23,-14,-12,2021-08-07 11:40:40,176894
-26,-48,-60,-102,-77,-33,-16,-16,2021-08-07 11:40:40,176894
-9,-14,-41,-48,-21,-8,-6,-5,2021-08-07 11:40:40,176894
10,12,31,76,98,41,12,6,2021-08-07 11:40:40,176894
13,25,38,65,27,19,14,11,2021-08-07 11:40:40,176894
-2,10,12,5,-13,-14,-9,-7,2021-08-07 11:40:40,192889
-4,-4,11,-2,-13,-12,-6,-5,2021-08-07 11:40:40,192889
0,1,1,-25,-46,-12,-4,-1,2021-08-07 11:40:40,208890
8,13,26,51,78,30,15,10,2021-08-07 11:40:40,224890
-6,-2,6,20,12,6,-6,-7,2021-08-07 11:40:40,224890
10,7,-6,-13,-24,-2,5,10,2021-08-07 11:40:40,224890
-2,-11,-17,-40,-43,-27,-2,0,2021-08-07 11:40:40,224890
-11,-9,-8,-23,-11,-16,-12,-10,2021-08-07 11:40:40,224890
-3,6,8,21,21,0,-1,-1,2021-08-07 11:40:40,240891
8,9,17,52,43,25,9,7,2021-08-07 11:40:40,240891
10,3,-1,4,20,17,7,7,2021-08-07 11:40:40,240891
-11,-9,-7,-19,-32,-21,-10,-10,2021-08-07 11:40:40,240891
-5,-5,-10,-16,-18,-8,-4,-4,2021-08-07 11:40:40,253894
6,1,-4,-11,-3,4,5,4,2021-08-07 11:40:40,253894
-1,-3,-3,-10,-6,-6,-6,-4,2021-08-07 11:40:40,272890
-6,-6,1,5,-14,-9,-7,-7,2021-08-07 11:40:40,287890
2,5,0,2,8,7,6,4,2021-08-07 11:40:40,287890
-2,-3,-4,-5,-7,-8,-3,-3,2021-08-07 11:40:40,287890
-4,-4,-5,-15,-1,-2,-3,-2,2021-08-07 11:40:40,287890
2,3,10,21,17,7,2,2,2021-08-07 11:40:40,287890
0,-1,0,2,-1,0,2,1,2021-08-07 11:40:40,287890
-3,-7,-9,-19,-13,-10,-5,-3,2021-08-07 11:40:40,287890
1,3,3,8,15,8,3,1,2021-08-07 11:40:40,319915
0,-1,-2,-7,-9,1,1,2,2021-08-07 11:40:40,335917
-10,-7,-6,-6,-4,-8,-4,-7,2021-08-07 11:40:40,335917
-2,-1,1,-3,-6,-4,-2,-2,2021-08-07 11:40:40,335917
0,2,1,2,-2,1,0,0,2021-08-07 11:40:40,335917
-4,0,1,6,1,0,-3,-3,2021-08-07 11:40:40,336919
1,1,-4,0,-7,-3,-2,1,2021-08-07 11:40:40,336919
2,3,1,0,7,3,3,1,2021-08-07 11:40:40,336919
7,7,4,13,13,9,7,4,2021-08-07 11:40:40,351916
-3,-7,-10,-17,-13,-8,-6,-5,2021-08-07 11:40:40,367916
-8,-12,-18,-31,-22,-10,-7,-7,2021-08-07 11:40:40,383917
1,-1,-1,-4,0,2,3,4,2021-08-07 11:40:40,383917
4,4,11,17,8,4,1,2,2021-08-07 11:40:40,383917
3,6,13,23,7,3,2,1,2021-08-07 11:40:40,383917
0,0,-6,4,1,4,2,3,2021-08-07 11:40:40,383917
-8,-9,-17,-28,-12,-8,-5,-5,2021-08-07 11:40:40,383917
-2,-4,-1,-10,-3,-3,-2,-2,2021-08-07 11:40:40,384917
0,1,2,1,-5,-4,-3,-2,2021-08-07 11:40:40,384917
1,3,8,18,10,7,4,0,2021-08-07 11:40:40,384917
-5,-6,-5,-8,-3,-4,-5,-4,2021-08-07 11:40:40,384917
-1,-1,-7,2,10,4,3,2,2021-08-07 11:40:40,415917
1,0,1,3,6,2,0,-1,2021-08-07 11:40:40,415917
-1,0,1,-5,-13,-7,-2,-4,2021-08-07 11:40:40,415917
4,6,10,22,6,3,4,4,2021-08-07 11:40:40,415917
-2,0,0,-1,-4,2,-1,-2,2021-08-07 11:40:40,431917
0,-1,-1,0,5,1,0,0,2021-08-07 11:40:40,447916
-2,-4,-4,-2,4,-2,-1,-2,2021-08-07 11:40:40,447916
0,1,4,5,-1,3,-1,1,2021-08-07 11:40:40,447916
1,2,1,5,-6,-3,-1,-1,2021-08-07 11:40:40,447916
-2,-3,-5,-6,-10,-4,-2,-1,2021-08-07 11:40:40,447916
5,4,5,7,14,7,2,2,2021-08-07 11:40:40,447916
-4,-5,-6,-14,-14,-7,-3,-3,2021-08-07 11:40:40,447916
-3,-4,-5,-8,-12,-5,-4,-3,2021-08-07 11:40:40,478917
1,2,1,-2,1,-2,0,2,2021-08-07 11:40:40,478917
2,4,5,9,6,4,1,1,2021-08-07 11:40:40,478917
-1,-2,-2,2,6,2,0,0,2021-08-07 11:40:40,478917
0,1,4,10,2,0,0,1,2021-08-07 11:40:40,494916
-3,-6,-10,-20,-19,-7,-3,-2,2021-08-07 11:40:40,494916
-3,-4,-9,-20,-8,-3,-3,-2,2021-08-07 11:40:40,494916
-1,0,5,20,18,4,-1,-1,2021-08-07 11:40:40,494916
2,2,-3,-7,-4,0,1,2,2021-08-07 11:40:40,510917
-4,-4,-5,-2,-9,-4,-3,-2,2021-08-07 11:40:40,525916
3,4,10,19,22,9,5,4,2021-08-07 11:40:40,526154
-3,-2,8,4,5,-1,-2,-3,2021-08-07 11:40:40,526154
1,-2,-1,10,-5,-6,0,-1,2021-08-07 11:40:40,526154
-1,-1,-8,-25,-18,-5,0,-1,2021-08-07 11:40:40,526154
-5,-6,-7,-15,1,-1,-4,-3,2021-08-07 11:40:40,526917
1,1,-2,-6,-1,2,1,-1,2021-08-07 11:40:40,526917
3,3,13,21,17,5,2,0,2021-08-07 11:40:40,557434
-4,-4,-1,9,2,-1,-1,-4,2021-08-07 11:40:40,573437
3,5,3,3,-9,-5,1,0,2021-08-07 11:40:40,573437
0,1,1,-10,-8,-1,0,0,2021-08-07 11:40:40,573437
-1,-1,-3,-19,-16,-5,-1,-2,2021-08-07 11:40:40,573437
-7,-10,-18,-11,-11,-8,-7,-5,2021-08-07 11:40:40,573437
3,1,7,16,24,13,4,1,2021-08-07 11:40:40,573437
-1,0,-3,-4,-11,-5,-3,-2,2021-08-07 11:40:40,573437
-2,-1,-1,0,1,1,0,-4,2021-08-07 11:40:40,589436
4,6,16,29,32,12,4,3,2021-08-07 11:40:40,589436
-3,-2,-8,-7,-7,-5,-2,-2,2021-08-07 11:40:40,589436
-6,-12,-21,-28,-23,-11,-5,-7,2021-08-07 11:40:40,589436
0,-2,5,1,15,8,2,0,2021-08-07 11:40:40,637436
-2,1,-4,-5,-7,-3,-2,-1,2021-08-07 11:40:40,637436
-4,-6,-5,-9,-11,-9,-5,-2,2021-08-07 11:40:40,637436
4,7,14,24,13,4,3,3,2021-08-07 11:40:40,637436
-4,-4,-5,-11,-11,-5,-3,-1,2021-08-07 11:40:40,637436
4,5,7,16,16,8,4,2,2021-08-07 11:40:40,637436
-5,-7,-16,-30,-23,-12,-7,-4,2021-08-07 11:40:40,637436
0,0,-1,-3,-1,-2,-1,0,2021-08-07 11:40:40,638435
-1,1,2,0,-2,-3,-2,-2,2021-08-07 11:40:40,653433
5,8,15,16,7,4,2,3,2021-08-07 11:40:40,669434
-3,-6,-11,-26,-33,-10,-4,-2,2021-08-07 11:40:40,669434
-3,-7,-13,-11,5,-1,0,-2,2021-08-07 11:40:40,669434
-5,-7,-2,-14,-5,-3,-6,-4,2021-08-07 11:40:40,669434
-4,-6,-14,-11,-15,-10,-4,-4,2021-08-07 11:40:40,669434
8,10,12,14,12,10,6,5,2021-08-07 11:40:40,670435
4,5,8,29,43,19,8,4,2021-08-07 11:40:40,670435
-4,-6,-14,-16,-19,-10,-5,-5,2021-08-07 11:40:40,685436
-6,-6,0,-15,-11,-7,-5,-5,2021-08-07 11:40:40,685436
-7,-6,-4,-11,-22,-12,-7,-5,2021-08-07 11:40:40,685436
2,0,5,9,1,3,0,1,2021-08-07 11:40:40,685436
6,5,-1,9,11,5,4,4,2021-08-07 11:40:40,702442
-3,-5,-5,-18,-18,-5,-4,-3,2021-08-07 11:40:40,702442
2,1,4,11,8,3,2,1,2021-08-07 11:40:40,702442
0,0,6,1,-5,-2,-2,-2,2021-08-07 11:40:40,702442
-9,-6,-5,-1,-20,-13,-9,-6,2021-08-07 11:40:40,732435
10,11,15,37,55,24,13,11,2021-08-07 11:40:40,747435
9,11,13,24,10,7,6,6,2021-08-07 11:40:40,763435
-6,-11,-23,-48,-24,-9,-5,-6,2021-08-07 11:40:40,763435
-10,-13,-25,-43,-32,-15,-8,-8,2021-08-07 11:40:40,779435
-5,-8,-9,-14,-17,-9,-6,-4,2021-08-07 11:40:40,795433
1,3,8,24,26,11,2,0,2021-08-07 11:40:40,827434
6,10,15,20,-1,2,2,4,2021-08-07 11:40:40,827434
2,4,9,24,25,10,3,1,2021-08-07 11:40:40,827434
-5,-7,-8,-15,-15,-7,-4,-4,2021-08-07 11:40:40,827434
-3,-5,-7,-15,-18,-10,-7,-3,2021-08-07 11:40:40,843433
4,8,8,15,13,3,1,4,2021-08-07 11:40:40,859433
-1,-2,-5,-10,-4,-2,-2,0,2021-08-07 11:40:40,859433
1,4,6,10,9,5,0,-1,2021-08-07 11:40:40,859433
-6,-9,-9,-10,-5,-7,-4,-4,2021-08-07 11:40:40,859433
-2,-3,0,-1,4,5,1,0,2021-08-07 11:40:40,859433
7,8,6,22,25,9,6,3,2021-08-07 11:40:40,859433
-5,-8,-8,-27,-16,-9,-5,-5,2021-08-07 11:40:40,859433
-5,-6,-10,-21,-20,-10,-6,-4,2021-08-07 11:40:40,860436
-1,-2,-10,-4,-11,-5,-4,-2,2021-08-07 11:40:40,860436
2,4,11,23,19,9,3,2,2021-08-07 11:40:40,860436
4,5,8,19,5,4,2,1,2021-08-07 11:40:40,860436
7,10,12,8,1,2,2,4,2021-08-07 11:40:40,860436
-5,-6,-17,-30,-23,-12,-5,-4,2021-08-07 11:40:40,860436
-3,-5,-5,-6,-6,-1,-2,0,2021-08-07 11:40:40,860436
-5,-6,-13,-28,-9,-3,-4,-3,2021-08-07 11:40:40,860436
-4,-2,3,15,14,3,-1,-2,2021-08-07 11:40:40,860436
-1,3,14,20,11,4,0,-2,2021-08-07 11:40:40,861436
-1,3,12,10,-8,-4,-3,-2,2021-08-07 11:40:40,861436
17,18,24,31,20,17,16,14,2021-08-07 11:40:40,861436
-1,-6,-14,-10,28,8,2,-1,2021-08-07 11:40:40,875435
-10,-18,-31,-36,-25,-15,-8,-7,2021-08-07 11:40:40,875435
-8,-11,-17,-24,-12,-7,-4,-6,2021-08-07 11:40:40,891436
-6,-3,2,3,-11,-7,-7,-5,2021-08-07 11:40:40,907435
6,8,19,26,15,9,6,4,2021-08-07 11:40:40,907435
2,7,15,16,4,2,3,1,2021-08-07 11:40:40,907435
-1,-2,-3,-7,2,-1,-2,-2,2021-08-07 11:40:40,923435
9,11,17,34,28,15,8,7,2021-08-07 11:40:40,923435
1,2,-8,-11,8,2,3,-1,2021-08-07 11:40:40,923435
-9,-8,-13,-28,-21,-10,-8,-4,2021-08-07 11:40:40,923435
-3,-2,0,-5,-9,-4,-3,-2,2021-08-07 11:40:40,923435
-5,-5,-8,-12,-15,-7,-4,-5,2021-08-07 11:40:40,923435
-5,-4,-1,4,-13,-6,-5,-3,2021-08-07 11:40:40,939435
1,0,3,10,6,5,2,1,2021-08-07 11:40:40,939435
12,14,17,21,18,8,8,7,2021-08-07 11:40:40,955436
-3,-1,2,21,8,0,-2,-1,2021-08-07 11:40:40,955436
-3,-5,-10,-12,-8,-3,-2,-5,2021-08-07 11:40:40,955436
-13,-17,-28,-51,-27,-14,-10,-10,2021-08-07 11:40:40,955436
-5,-6,-5,-32,-26,-11,-7,-3,2021-08-07 11:40:40,971437
0,-1,-6,-6,1,-3,-2,-2,2021-08-07 11:40:40,971437
3,6,15,42,25,13,3,3,2021-08-07 11:40:40,971437
6,8,16,35,15,7,4,4,2021-08-07 11:40:40,971437
4,3,3,5,2,1,1,2,2021-08-07 11:40:41,003436
-9,-12,-19,-46,-32,-12,-8,-6,2021-08-07 11:40:41,003436
-4,-7,-13,-22,-21,-10,-5,-5,2021-08-07 11:40:41,003436
0,2,2,15,12,4,0,0,2021-08-07 11:40:41,003436
2,2,5,0,-3,-1,2,1,2021-08-07 11:40:41,004435
0,-1,1,5,4,1,1,-1,2021-08-07 11:40:41,004435
-2,-4,-2,-9,-11,-3,0,-1,2021-08-07 11:40:41,004435
3,3,2,8,22,9,5,3,2021-08-07 11:40:41,004435
-3,-5,-10,-2,-5,-4,-3,-2,2021-08-07 11:40:41,034467
-5,-4,-8,-27,-20,-11,-6,-4,2021-08-07 11:40:41,034467
-4,-3,4,-5,-14,-10,-4,-4,2021-08-07 11:40:41,034467
10,12,11,31,26,13,7,8,2021-08-07 11:40:41,034467
0,-3,-7,-7,4,2,-2,-2,2021-08-07 11:40:41,050466
-1,-4,-6,-3,9,3,1,-2,2021-08-07 11:40:41,066467
-4,-3,-3,-8,-11,-6,-4,-2,2021-08-07 11:40:41,082469
0,1,5,-1,-16,-6,-3,-2,2021-08-07 11:40:41,082469
-2,-3,0,10,2,2,0,-1,2021-08-07 11:40:41,082469
-2,-2,2,5,0,0,-2,-2,2021-08-07 11:40:41,082469
9,6,3,14,22,8,6,5,2021-08-07 11:40:41,098468
0,-3,-4,-13,8,5,1,-1,2021-08-07 11:40:41,098468
-5,-4,-4,-9,-1,-3,-2,-3,2021-08-07 11:40:41,098468
-2,-3,-5,0,-4,-1,-2,-1,2021-08-07 11:40:41,098468
-4,-3,-3,-6,-15,-6,-4,-2,2021-08-07 11:40:41,098468
4,5,11,5,-1,-2,1,3,2021-08-07 11:40:41,098468
-1,-1,-1,15,24,9,2,0,2021-08-07 11:40:41,098468
12,15,15,18,11,8,9,7,2021-08-07 11:40:41,099468
0,-2,-4,-10,-5,-2,-2,-1,2021-08-07 11:40:41,114465
-7,-7,-8,-14,-16,-10,-5,-4,2021-08-07 11:40:41,114465
-4,-4,-7,-15,-16,-7,-4,-3,2021-08-07 11:40:41,130466
-6,-8,-8,-4,-2,-2,-4,-3,2021-08-07 11:40:41,130466
3,4,3,9,14,4,2,2,2021-08-07 11:40:41,130466
1,2,3,-1,-8,-3,0,-1,2021-08-07 11:40:41,130466
2,-1,2,12,12,4,2,3,2021-08-07 11:40:41,147467
-1,-1,-4,-2,-2,-1,0,0,2021-08-07 11:40:41,147467
-4,-4,-3,-5,-5,-2,-1,-1,2021-08-07 11:40:41,147467
-3,-3,-1,7,3,1,-1,-2,2021-08-07 11:40:41,148467
-4,-3,-9,-23,-14,-8,-6,-5,2021-08-07 11:40:41,162467
-4,0,3,3,-6,-6,-3,-2,2021-08-07 11:40:41,177468
0,2,2,3,6,0,-1,-1,2021-08-07 11:40:41,193465
4,4,2,7,6,3,2,3,2021-08-07 11:40:41,193465
1,2,5,1,-2,-2,-1,0,2021-08-07 11:40:41,193465
-2,-2,-3,-5,2,-1,-2,-1,2021-08-07 11:40:41,193465
-1,-3,-8,-5,-10,-4,0,-2,2021-08-07 11:40:41,193465
0,-1,6,4,0,-1,-2,0,2021-08-07 11:40:41,193465
2,2,4,10,1,1,2,1,2021-08-07 11:40:41,209467
-1,0,-3,-4,-1,-1,-1,2,2021-08-07 11:40:41,209467
-2,-3,-5,-15,-6,-3,-2,-2,2021-08-07 11:40:41,209467
-2,-1,2,6,7,1,1,0,2021-08-07 11:40:41,209467
-1,-2,-8,-11,-12,-5,-1,-2,2021-08-07 11:40:41,240466
-1,-3,-7,4,9,3,0,-1,2021-08-07 11:40:41,240466
-3,-4,-7,-17,-18,-7,-2,-3,2021-08-07 11:40:41,240466
3,4,9,11,4,1,1,1,2021-08-07 11:40:41,256466
2,5,13,24,20,8,4,4,2021-08-07 11:40:41,272466
0,-2,1,-6,-18,-7,-4,-2,2021-08-07 11:40:41,272466
-1,-1,-10,-9,19,8,2,0,2021-08-07 11:40:41,272466
-6,-7,-9,-21,-18,-10,-5,-5,2021-08-07 11:40:41,272466
4,4,6,8,0,0,3,2,2021-08-07 11:40:41,272466
-2,-4,3,9,-9,-3,-3,-5,2021-08-07 11:40:41,272466
-2,-3,-3,-6,-8,-5,-2,-1,2021-08-07 11:40:41,272466
5,7,1,1,10,6,4,3,2021-08-07 11:40:41,273468
-1,-1,-3,-2,0,1,-1,-2,2021-08-07 11:40:41,303466
-1,-1,1,-1,1,-1,-1,0,2021-08-07 11:40:41,318466
2,5,13,13,-2,2,1,3,2021-08-07 11:40:41,334466
-1,-3,3,29,16,3,-1,-2,2021-08-07 11:40:41,334466
-6,-8,-20,-39,-30,-11,-7,-4,2021-08-07 11:40:41,334466
-4,-4,-9,-24,-4,-4,-3,-1,2021-08-07 11:40:41,334466
-2,-1,-3,3,-1,0,-2,0,2021-08-07 11:40:41,334466
1,3,7,12,18,6,2,2,2021-08-07 11:40:41,334466
2,2,9,25,12,4,2,1,2021-08-07 11:40:41,334466
-1,-5,-7,-4,2,0,0,0,2021-08-07 11:40:41,350467
-3,-1,0,3,-9,-6,-1,-3,2021-08-07 11:40:41,366681
-4,-5,-6,-13,-13,-6,-4,-4,2021-08-07 11:40:41,366681
-3,-7,-11,-17,1,0,0,-2,2021-08-07 11:40:41,366681
0,0,-8,-9,-5,-4,-1,0,2021-08-07 11:40:41,366681
-1,-3,4,15,16,7,1,0,2021-08-07 11:40:41,366681
8,11,5,3,-7,0,2,4,2021-08-07 11:40:41,367468
0,2,8,12,-1,0,0,1,2021-08-07 11:40:41,367468
-1,0,5,4,3,-1,0,-1,2021-08-07 11:40:41,367468
-1,-1,-1,6,3,2,-1,0,2021-08-07 11:40:41,367468
-6,-8,-16,-26,-11,-5,-4,-3,2021-08-07 11:40:41,367468
-8,-8,-16,-30,-20,-8,-6,-5,2021-08-07 11:40:41,397467
1,3,1,5,9,4,4,2,2021-08-07 11:40:41,397467
-2,-2,3,-2,-6,-4,-3,-4,2021-08-07 11:40:41,397467
1,2,4,8,4,2,1,1,2021-08-07 11:40:41,397467
4,3,8,17,7,3,2,2,2021-08-07 11:40:41,413467
-5,-4,0,-7,-9,-8,-5,-5,2021-08-07 11:40:41,413467
0,2,4,3,-2,-1,-2,-2,2021-08-07 11:40:41,413467
2,0,0,1,4,5,3,2,2021-08-07 11:40:41,413467
-2,-8,-14,-26,-13,-8,-4,-5,2021-08-07 11:40:41,429467
0,1,3,14,15,4,-1,-1,2021-08-07 11:40:41,429467
0,-2,-2,-6,-8,-6,-2,0,2021-08-07 11:40:41,445468
-1,1,-4,10,1,3,2,1,2021-08-07 11:40:41,445468
0,1,5,5,8,3,0,1,2021-08-07 11:40:41,445468
1,0,1,-2,-3,0,-1,0,2021-08-07 11:40:41,445468
-2,-4,-2,-5,-5,-2,-1,1,2021-08-07 11:40:41,445468
-3,-5,-12,-19,-11,-7,-3,-3,2021-08-07 11:40:41,445468
-2,-1,3,5,-3,-1,-2,-2,2021-08-07 11:40:41,476467
3,3,0,-1,-8,0,0,0,2021-08-07 11:40:41,492468
4,6,6,7,2,1,0,3,2021-08-07 11:40:41,492468
3,0,1,11,21,10,4,3,2021-08-07 11:40:41,492468
-1,-2,-3,-3,-1,-3,0,1,2021-08-07 11:40:41,492468
0,-1,2,-4,-5,0,-3,-1,2021-08-07 11:40:41,492468
0,1,5,8,1,1,0,0,2021-08-07 11:40:41,493467
-4,-6,-4,-12,-10,-6,-5,-5,2021-08-07 11:40:41,493467
-3,-3,-3,-1,-7,-4,-3,-3,2021-08-07 11:40:41,523466
-5,-5,-9,-5,9,3,2,-2,2021-08-07 11:40:41,523466
3,4,0,3,12,6,4,3,2021-08-07 11:40:41,523466
-3,-5,2,-7,-10,-7,-4,-3,2021-08-07 11:40:41,523466
0,2,-4,6,-1,0,1,0,2021-08-07 11:40:41,539468
-1,-2,1,-3,-6,-4,-2,-1,2021-08-07 11:40:41,555467
2,0,-1,5,2,2,1,1,2021-08-07 11:40:41,555467
-3,-6,-8,-16,-4,-4,-3,-4,2021-08-07 11:40:41,555467
-3,-3,-1,-1,-5,-4,-4,-5,2021-08-07 11:40:41,555467
-5,-8,-8,-14,-14,-9,-7,-5,2021-08-07 11:40:41,556467
4,9,11,16,15,7,4,4,2021-08-07 11:40:41,556467
4,7,15,25,5,0,2,3,2021-08-07 11:40:41,556467
0,-1,-4,1,6,2,0,0,2021-08-07 11:40:41,571467
-5,-5,-6,-8,-7,-6,-4,-4,2021-08-07 11:40:41,571467
-8,-12,-12,-18,-17,-9,-5,-7,2021-08-07 11:40:41,571467
1,3,-5,-10,-6,-2,0,0,2021-08-07 11:40:41,572468
2,6,10,12,12,5,1,2,2021-08-07 11:40:41,593467
1,2,6,9,-10,-2,-2,1,2021-08-07 11:40:41,593467
0,-3,-2,6,16,7,2,0,2021-08-07 11:40:41,593467
-4,-3,-5,3,-2,-3,-1,-1,2021-08-07 11:40:41,594468
0,0,-3,-9,-4,-1,-1,-1,2021-08-07 11:40:41,634467
2,1,1,8,8,2,1,-1,2021-08-07 11:40:41,634467
-6,-6,-10,-36,-34,-13,-6,-5,2021-08-07 11:40:41,634467
-4,-5,-9,-11,-3,-2,-3,-3,2021-08-07 11:40:41,634467
-2,-1,0,6,6,2,0,-1,2021-08-07 11:40:41,634467
0,3,4,12,-1,0,-1,-1,2021-08-07 11:40:41,634467
-2,-1,6,10,1,-2,-3,-4,2021-08-07 11:40:41,650467
4,4,4,-5,-4,0,3,2,2021-08-07 11:40:41,666466
1,2,-7,-8,8,4,1,2,2021-08-07 11:40:41,682466
0,-2,0,-7,15,7,3,2,2021-08-07 11:40:41,698467
2,2,1,3,-1,-2,-1,0,2021-08-07 11:40:41,714467
-3,-2,3,10,-2,-3,-3,-1,2021-08-07 11:40:41,714467
3,6,15,23,14,7,5,2,2021-08-07 11:40:41,714467
9,12,14,22,12,6,5,5,2021-08-07 11:40:41,714467
2,1,-1,1,2,2,0,2,2021-08-07 11:40:41,715469
-10,-18,-34,-57,-35,-15,-9,-8,2021-08-07 11:40:41,715469
-12,-13,-11,-34,-26,-18,-9,-8,2021-08-07 11:40:41,715469
-3,-5,-11,-11,-3,-3,-3,-2,2021-08-07 11:40:41,715469
0,2,7,18,18,8,2,1,2021-08-07 11:40:41,715469
-1,-1,4,17,3,1,-2,-1,2021-08-07 11:40:41,715469
6,7,7,14,1,3,3,3,2021-08-07 11:40:41,715469
5,9,15,15,20,11,7,5,2021-08-07 11:40:41,715469
2,2,1,7,2,3,2,0,2021-08-07 11:40:41,716468
-1,-1,2,1,3,2,-1,0,2021-08-07 11:40:41,716468
-9,-12,-12,-18,-7,-7,-7,-9,2021-08-07 11:40:41,729467
-6,-10,-20,-22,-27,-13,-7,-4,2021-08-07 11:40:41,745467
1,2,-3,7,5,2,2,1,2021-08-07 11:40:41,745467
3,2,5,10,16,5,2,0,2021-08-07 11:40:41,745467
3,3,5,9,-6,-3,-1,1,2021-08-07 11:40:41,745467
0,3,2,2,5,3,1,2,2021-08-07 11:40:41,745467
-6,-7,-10,-22,-18,-9,-6,-4,2021-08-07 11:40:41,745467
-1,0,3,2,-1,-2,-2,-1,2021-08-07 11:40:41,745467
2,-1,2,7,2,0,-1,2,2021-08-07 11:40:41,777469
-1,-1,2,1,0,0,-1,-1,2021-08-07 11:40:41,777469
-5,-7,-10,-20,-11,-6,-3,-3,2021-08-07 11:40:41,777469
-2,-2,1,14,7,1,0,-1,2021-08-07 11:40:41,777469
5,8,6,19,27,17,8,4,2021-08-07 11:40:41,793467
0,-2,2,-1,6,1,0,-1,2021-08-07 11:40:41,808466
-4,-4,-6,-6,-11,-9,-5,-4,2021-08-07 11:40:41,808466
-3,-3,-7,-19,-16,-7,-4,-2,2021-08-07 11:40:41,808466
-5,-7,-11,-14,-7,-4,-4,-5,2021-08-07 11:40:41,808466
2,5,8,11,3,2,1,2,2021-08-07 11:40:41,808466
4,6,6,8,2,4,0,2,2021-08-07 11:40:41,824465
2,3,8,15,3,-1,0,-1,2021-08-07 11:40:41,840468
-2,-6,-7,-12,-14,-5,-3,0,2021-08-07 11:40:41,856466
-1,-3,-8,-13,-7,-5,0,2,2021-08-07 11:40:41,872467
-1,-3,2,7,14,6,3,0,2021-08-07 11:40:41,888467
0,1,2,-11,-5,-1,-1,-2,2021-08-07 11:40:41,888467
-2,-4,-11,-8,-5,-4,-4,-2,2021-08-07 11:40:41,888467
-2,-3,-2,1,-7,-4,-4,-3,2021-08-07 11:40:41,888467
2,2,-1,3,7,4,3,3,2021-08-07 11:40:41,888467
0,1,4,11,9,3,0,1,2021-08-07 11:40:41,888467
-1,1,4,7,11,3,2,0,2021-08-07 11:40:41,889467
-4,-6,-8,-8,-9,-5,-2,-3,2021-08-07 11:40:41,889467
3,4,3,-11,-12,-7,-3,-1,2021-08-07 11:40:41,889467
-2,-4,-4,-6,-7,-1,-2,-1,2021-08-07 11:40:41,889467
3,1,-1,1,7,3,1,1,2021-08-07 11:40:41,889467
-2,-4,-1,5,0,-2,-1,-2,2021-08-07 11:40:41,889467
-3,-2,-4,-5,-1,-1,0,-1,2021-08-07 11:40:41,904468
-3,-3,-1,-4,-7,-6,-4,-1,2021-08-07 11:40:41,904468
5,6,6,-2,-10,-1,1,4,2021-08-07 11:40:41,904468
3,1,0,-1,2,0,1,1,2021-08-07 11:40:41,904468
-2,-4,-1,3,3,1,-1,-3,2021-08-07 11:40:41,935467
-5,-3,-9,-9,-10,-7,-4,-3,2021-08-07 11:40:41,951468
-2,1,4,-2,-16,-6,-1,0,2021-08-07 11:40:41,967467
2,5,11,21,25,11,4,1,2021-08-07 11:40:41,983466
1,-1,-7,4,20,7,2,1,2021-08-07 11:40:41,999467
-4,-5,-9,-17,-4,-3,-3,-3,2021-08-07 11:40:41,999467
-5,-5,-6,-9,-15,-10,-5,-5,2021-08-07 11:40:41,999467
0,1,-4,-14,-16,-5,-2,1,2021-08-07 11:40:41,999467
-5,-2,3,-2,-9,-6,-4,-3,2021-08-07 11:40:41,999467
2,4,3,15,8,5,3,3,2021-08-07 11:40:42,000467
2,2,4,5,2,-1,-1,-1,2021-08-07 11:40:42,000467
-2,-1,0,21,6,2,0,-1,2021-08-07 11:40:42,000467
-3,-7,-17,-32,-12,-6,-2,-2,2021-08-07 11:40:42,000467
-3,-4,0,-10,5,1,-2,-3,2021-08-07 11:40:42,000467
-1,1,-3,3,2,1,1,1,2021-08-07 11:40:42,000467
-2,-3,-3,-6,-11,-4,-4,-4,2021-08-07 11:40:42,000467
3,3,7,21,11,6,4,4,2021-08-07 11:40:42,000467
5,5,9,2,3,3,5,2,2021-08-07 11:40:42,000467
-7,-8,-5,-7,-3,-2,-2,-5,2021-08-07 11:40:42,015467
-8,-5,-8,-3,-3,-5,-6,-4,2021-08-07 11:40:42,026465
-3,1,1,-10,-13,-7,-6,-5,2021-08-07 11:40:42,026465
5,7,9,27,16,5,1,3,2021-08-07 11:40:42,026465
3,5,8,7,17,8,3,2,2021-08-07 11:40:42,026465
-1,-5,-12,-25,-13,-7,-1,0,2021-08-07 11:40:42,027467
-4,-7,-13,-16,-12,-8,-4,-2,2021-08-07 11:40:42,063467
-3,-4,-2,-1,-6,-3,0,-1,2021-08-07 11:40:42,079467
4,3,3,15,6,2,1,3,2021-08-07 11:40:42,079467
1,7,11,23,20,8,3,1,2021-08-07 11:40:42,079467
-2,-3,-3,1,3,-1,0,-1,2021-08-07 11:40:42,079467
-1,-2,-5,-17,-15,-5,-2,-1,2021-08-07 11:40:42,079467
-8,-7,-2,-13,0,-5,-5,-4,2021-08-07 11:40:42,079467
2,3,-1,-3,-2,-3,2,0,2021-08-07 11:40:42,080467
1,6,11,14,9,4,3,2,2021-08-07 11:40:42,080467
0,-1,2,7,2,0,1,1,2021-08-07 11:40:42,095468
-9,-13,-21,-31,-26,-12,-8,-8,2021-08-07 11:40:42,111466
3,3,4,5,-2,3,2,4,2021-08-07 11:40:42,127467
8,11,11,27,23,11,6,4,2021-08-07 11:40:42,143467
-2,-2,-3,-9,-1,-4,-3,-3,2021-08-07 11:40:42,143467
-3,-3,7,12,11,3,0,-1,2021-08-07 11:40:42,143467
-5,-10,-11,-7,-16,-9,-8,-4,2021-08-07 11:40:42,143467
-4,-5,-8,-22,-19,-8,-3,-2,2021-08-07 11:40:42,143467
3,4,6,17,6,4,2,2,2021-08-07 11:40:42,143467
7,7,8,4,2,4,4,3,2021-08-07 11:40:42,144469
-3,-2,-1,-10,-4,-2,-3,-2,2021-08-07 11:40:42,144469
-2,-2,2,3,-3,-2,-1,-1,2021-08-07 11:40:42,144469
-2,-5,-4,-3,1,-2,-3,-3,2021-08-07 11:40:42,144469
-3,-3,-8,0,-5,-3,-2,-1,2021-08-07 11:40:42,144469
-2,-2,-2,-18,1,0,0,-3,2021-08-07 11:40:42,144469
-2,-4,-7,-6,-8,-4,-2,0,2021-08-07 11:40:42,159467
0,-1,-4,2,-9,-2,-1,0,2021-08-07 11:40:42,159467
2,-1,-8,-17,-4,-2,-1,0,2021-08-07 11:40:42,175467
4,4,10,-1,13,6,3,3,2021-08-07 11:40:42,191468
-2,-2,1,6,-1,-2,-1,-3,2021-08-07 11:40:42,207465
1,3,8,13,0,0,0,0,2021-08-07 11:40:42,207465
4,5,11,20,0,3,3,3,2021-08-07 11:40:42,207465
1,-1,-9,-7,0,-1,0,-2,2021-08-07 11:40:42,207465
-5,-9,-15,-27,-14,-6,-6,-4,2021-08-07 11:40:42,207465
-7,-9,-13,-13,8,1,-4,-4,2021-08-07 11:40:42,207465
-3,0,1,-4,-9,-5,-3,-1,2021-08-07 11:40:42,223467
-1,-1,5,6,3,3,-2,-2,2021-08-07 11:40:42,223467
-4,0,3,1,-22,-8,-6,-3,2021-08-07 11:40:42,223467
7,10,12,16,25,11,6,4,2021-08-07 11:40:42,223467
-3,-3,-6,16,22,8,2,0,2021-08-07 11:40:42,223467
0,-3,-10,-17,-5,2,1,2,2021-08-07 11:40:42,223467
8,9,3,13,20,9,5,3,2021-08-07 11:40:42,239467
-9,-9,-8,-27,-34,-16,-8,-6,2021-08-07 11:40:42,239467
1,3,6,1,-4,-2,-1,1,2021-08-07 11:40:42,255467
-4,-3,-4,0,-2,1,-2,-3,2021-08-07 11:40:42,255467
4,4,13,25,9,4,3,2,2021-08-07 11:40:42,255467
3,3,-1,10,17,5,4,2,2021-08-07 11:40:42,255467
-2,-4,-5,-12,-10,-3,1,-1,2021-08-07 11:40:42,287467
-11,-12,-15,-33,-43,-26,-13,-9,2021-08-07 11:40:42,287467
5,8,10,19,31,14,7,6,2021-08-07 11:40:42,287467
-4,-2,3,-7,-15,-7,-4,-3,2021-08-07 11:40:42,287467
3,3,8,21,16,9,4,3,2021-08-07 11:40:42,287467
4,7,14,22,21,9,5,3,2021-08-07 11:40:42,287467
-6,-8,-16,-23,-16,-8,-6,-3,2021-08-07 11:40:42,303467
-4,-4,-8,-3,-4,-4,-4,-2,2021-08-07 11:40:42,303467
-3,-5,-5,-17,-22,-10,-4,-4,2021-08-07 11:40:42,319465
6,6,8,19,26,13,6,6,2021-08-07 11:40:42,319465
-2,-2,4,-8,-12,-6,-4,-3,2021-08-07 11:40:42,319465
-2,-2,-10,-1,-1,-1,0,-1,2021-08-07 11:40:42,319465
0,-1,5,9,-3,-4,-3,-1,2021-08-07 11:40:42,335469
3,2,-3,-7,-4,-1,2,0,2021-08-07 11:40:42,351465
1,1,-7,-1,23,9,4,1,2021-08-07 11:40:42,351465
-6,-8,-10,-26,-17,-9,-6,-4,2021-08-07 11:40:42,351465
3,5,13,15,4,1,-1,0,2021-08-07 11:40:42,351465
-3,-3,-7,13,-3,-1,-2,-1,2021-08-07 11:40:42,351465
-2,-8,-14,-22,-22,-8,-3,-1,2021-08-07 11:40:42,367467
-3,-2,0,-6,3,1,0,-1,2021-08-07 11:40:42,367467
-2,-2,-6,-8,-2,-6,-3,-1,2021-08-07 11:40:42,367467
0,2,7,2,-5,-2,0,-1,2021-08-07 11:40:42,367467
2,5,5,8,3,0,2,0,2021-08-07 11:40:42,367467
1,1,-1,9,-7,-2,-1,0,2021-08-07 11:40:42,367467
-11,-15,-17,-26,-15,-10,-7,-9,2021-08-07 11:40:42,398467
4,9,12,19,20,10,5,7,2021-08-07 11:40:42,414466
1,2,1,6,-3,-2,-1,0,2021-08-07 11:40:42,430465
0,1,6,3,3,-1,-1,-2,2021-08-07 11:40:42,430465
1,3,7,9,6,2,0,2,2021-08-07 11:40:42,430465
0,-1,6,12,0,2,0,-1,2021-08-07 11:40:42,430465
-8,-10,-11,-5,-7,-4,-4,-4,2021-08-07 11:40:42,430465
0,-3,-10,-13,-1,0,-1,1,2021-08-07 11:40:42,430465
-7,-10,-25,-49,-31,-13,-10,-6,2021-08-07 11:40:42,430465
-1,-3,-1,-8,-6,-5,-4,-1,2021-08-07 11:40:42,431468
2,6,15,20,12,8,3,2,2021-08-07 11:40:42,431468
0,2,4,15,4,2,0,-1,2021-08-07 11:40:42,431468
3,7,5,17,2,2,3,2,2021-08-07 11:40:42,462465
-1,-3,-3,-11,10,2,0,-2,2021-08-07 11:40:42,462465
-3,-7,-7,-11,-14,-7,-5,-4,2021-08-07 11:40:42,462465
-4,-5,-13,-16,-1,2,-1,-2,2021-08-07 11:40:42,462465
-3,-2,-2,-4,3,-1,-2,-2,2021-08-07 11:40:42,462465
-5,-4,3,-2,-20,-11,-7,-5,2021-08-07 11:40:42,462465
6,5,8,16,16,8,6,4,2021-08-07 11:40:42,475467
5,7,8,30,13,4,3,2,2021-08-07 11:40:42,476467
