EMG 1,EMG 2,EMG 3,EMG 4,EMG 5,EMG 6,EMG 7,EMG 8,Timestamp,Milliseconds
-2,-3,-2,-2,-6,-4,-3,-2,2021-08-07 12:39:24,797300
-2,-2,-2,-6,-10,-8,-3,0,2021-08-07 12:39:24,797300
-2,-2,-2,3,5,1,0,-2,2021-08-07 12:39:24,797300
1,-1,-2,3,3,4,0,-1,2021-08-07 12:39:24,797300
3,3,3,-2,-3,0,1,2,2021-08-07 12:39:24,797300
0,-1,0,2,5,2,1,-1,2021-08-07 12:39:24,797300
-4,-4,-4,-9,-13,-9,-6,-4,2021-08-07 12:39:24,797300
-1,0,4,10,20,13,6,-1,2021-08-07 12:39:24,798300
1,0,1,2,3,-1,0,1,2021-08-07 12:39:24,798300
1,0,0,-4,-10,-6,-2,-2,2021-08-07 12:39:24,798300
-2,-2,-2,-4,-6,-5,-2,-3,2021-08-07 12:39:24,798300
-4,-4,-5,-6,-4,-2,-2,-2,2021-08-07 12:39:24,798300
1,2,1,9,9,8,5,3,2021-08-07 12:39:24,813300
0,3,1,2,7,2,1,1,2021-08-07 12:39:24,829300
1,0,3,-3,-6,-4,-2,0,2021-08-07 12:39:24,845302
-2,-4,-6,-12,-20,-14,-8,-4,2021-08-07 12:39:24,845302
0,0,-1,3,10,9,2,-1,2021-08-07 12:39:24,845302
-6,-10,-10,-7,-10,-6,-6,-6,2021-08-07 12:39:24,845302
7,10,8,9,6,5,7,6,2021-08-07 12:39:24,845302
2,3,3,6,19,14,7,2,2021-08-07 12:39:24,845302
0,0,-1,-2,-2,-4,-1,-3,2021-08-07 12:39:24,877301
-5,-8,-7,-4,-2,-2,-3,-5,2021-08-07 12:39:24,877301
2,4,3,10,17,12,6,3,2021-08-07 12:39:24,877301
1,5,2,-1,-12,-9,-3,1,2021-08-07 12:39:24,877301
-5,-6,-8,-12,-18,-12,-8,-6,2021-08-07 12:39:24,877301
0,1,1,3,-3,0,0,1,2021-08-07 12:39:24,877301
-4,-8,-7,-9,-9,-3,-4,-3,2021-08-07 12:39:24,893301
2,4,6,11,21,14,6,3,2021-08-07 12:39:24,893301
1,-1,0,-2,-4,-5,-2,0,2021-08-07 12:39:24,924300
-4,-5,-3,-1,-7,-8,-6,-3,2021-08-07 12:39:24,924300
-1,-1,-4,-12,-10,-6,-1,0,2021-08-07 12:39:24,940302
4,3,4,0,6,4,3,2,2021-08-07 12:39:24,956301
-2,-3,-4,-3,-3,-1,-1,-1,2021-08-07 12:39:24,956301
-3,-2,-1,-5,-7,-4,-5,-2,2021-08-07 12:39:24,956301
5,4,2,15,22,12,5,4,2021-08-07 12:39:24,956301
-1,-1,1,2,1,0,-1,-1,2021-08-07 12:39:24,956301
-7,-7,-7,-17,-25,-19,-11,-6,2021-08-07 12:39:24,956301
-4,-5,-7,-16,-18,-6,-4,-3,2021-08-07 12:39:24,957302
4,5,7,23,35,21,11,3,2021-08-07 12:39:24,957302
0,0,-5,2,7,4,2,0,2021-08-07 12:39:24,957302
3,5,8,12,15,7,4,4,2021-08-07 12:39:24,957302
-4,-6,-8,-11,-14,-12,-8,-4,2021-08-07 12:39:24,957302
-4,-3,-3,-17,-26,-14,-5,-5,2021-08-07 12:39:24,972303
1,3,2,8,7,6,3,1,2021-08-07 12:39:24,988301
0,4,1,1,0,1,1,-1,2021-08-07 12:39:24,988301
-4,-6,-6,-7,-7,-9,-6,-3,2021-08-07 12:39:25,004302
0,1,3,7,10,7,2,2,2021-08-07 12:39:25,020303
2,2,4,2,-3,-2,-2,1,2021-08-07 12:39:25,020303
-7,-11,-9,-10,-10,-4,-2,-5,2021-08-07 12:39:25,020303
14,21,22,33,42,30,17,10,2021-08-07 12:39:25,020303
-3,-4,0,-6,-8,-7,-4,-3,2021-08-07 12:39:25,021303
-6,-10,-18,-23,-32,-21,-12,-6,2021-08-07 12:39:25,021303
-2,-5,-5,-5,0,0,-3,-2,2021-08-07 12:39:25,021303
-4,-7,-6,-7,-8,-6,-4,-3,2021-08-07 12:39:25,021303
6,9,12,23,23,16,8,4,2021-08-07 12:39:25,036300
3,9,10,9,10,6,3,4,2021-08-07 12:39:25,051303
-2,-3,-4,-2,0,-2,0,-4,2021-08-07 12:39:25,067304
-3,-4,-4,-2,-7,-6,-3,-4,2021-08-07 12:39:25,067304
-2,-3,-5,-7,-7,-4,-4,-2,2021-08-07 12:39:25,067304
-2,-3,-2,-13,-23,-14,-8,-3,2021-08-07 12:39:25,067304
5,7,8,19,33,23,10,6,2021-08-07 12:39:25,083300
-1,-1,0,-5,-5,-3,-1,-1,2021-08-07 12:39:25,098303
-2,-4,-6,-2,-1,2,-1,-1,2021-08-07 12:39:25,098303
-2,-3,-1,0,4,2,1,-3,2021-08-07 12:39:25,098303
0,1,0,-1,-6,-5,-3,-1,2021-08-07 12:39:25,114301
3,3,2,2,7,6,3,2,2021-08-07 12:39:25,114301
-4,-5,-8,-11,-16,-12,-8,-4,2021-08-07 12:39:25,130301
0,-1,1,4,5,2,1,0,2021-08-07 12:39:25,130301
-4,-5,-4,-8,-11,-7,-6,-3,2021-08-07 12:39:25,130301
5,7,5,7,11,8,4,3,2021-08-07 12:39:25,146301
5,6,5,-5,-5,-1,0,2,2021-08-07 12:39:25,146301
-2,-5,-2,-3,-1,-1,-2,-2,2021-08-07 12:39:25,146301
-3,-5,-5,-7,-5,-4,-3,-1,2021-08-07 12:39:25,146301
-6,-5,-4,-2,-5,-5,-3,-5,2021-08-07 12:39:25,147308
-4,-2,0,4,-2,1,0,-1,2021-08-07 12:39:25,162301
3,7,8,13,7,6,2,1,2021-08-07 12:39:25,162301
1,2,-2,-4,9,5,1,1,2021-08-07 12:39:25,162301
-1,-1,-3,-1,2,0,0,1,2021-08-07 12:39:25,178303
-3,-3,-5,-9,-14,-9,-4,-2,2021-08-07 12:39:25,178303
-4,-4,-5,-5,-11,-10,-7,-3,2021-08-07 12:39:25,178303
3,3,3,3,-1,4,3,1,2021-08-07 12:39:25,178303
2,-1,-1,0,-1,-1,-1,-1,2021-08-07 12:39:25,179304
-1,-3,-4,-6,-6,-6,-4,-2,2021-08-07 12:39:25,179304
-5,-8,-7,-1,3,0,-2,-5,2021-08-07 12:39:25,179304
1,4,4,-3,-13,-7,-4,1,2021-08-07 12:39:25,179304
-1,-1,-1,-2,0,2,0,0,2021-08-07 12:39:25,194303
1,1,2,5,12,8,4,1,2021-08-07 12:39:25,194303
-4,-5,-10,-5,5,0,-1,-3,2021-08-07 12:39:25,194303
-2,-7,-4,0,3,1,0,0,2021-08-07 12:39:25,210304
6,10,11,7,3,0,1,4,2021-08-07 12:39:25,210304
-1,-3,-4,-9,-13,-9,-7,-4,2021-08-07 12:39:25,226304
0,1,1,-2,-2,0,1,1,2021-08-07 12:39:25,226304
-3,-6,-4,-5,-8,-8,-6,-6,2021-08-07 12:39:25,226304
0,-3,-6,0,1,1,0,-1,2021-08-07 12:39:25,227303
-2,-4,-6,2,13,9,1,-2,2021-08-07 12:39:25,258302
6,10,11,13,10,7,4,5,2021-08-07 12:39:25,274302
1,1,3,-1,-2,-2,-1,-3,2021-08-07 12:39:25,274302
-4,-8,-7,-8,-6,-5,-3,-6,2021-08-07 12:39:25,274302
-2,-2,-4,-9,-10,-9,-6,-1,2021-08-07 12:39:25,274302
0,-1,-1,-4,-5,1,0,-1,2021-08-07 12:39:25,274302
2,4,1,9,9,4,2,2,2021-08-07 12:39:25,275303
-2,-1,-2,0,13,9,3,-1,2021-08-07 12:39:25,275303
-1,-2,-2,-4,-4,-7,-2,-1,2021-08-07 12:39:25,290304
6,6,6,5,7,7,7,4,2021-08-07 12:39:25,290304
-5,-7,-8,-6,-7,-6,-6,-5,2021-08-07 12:39:25,290304
7,9,13,15,19,15,9,5,2021-08-07 12:39:25,306303
-2,-2,0,1,-2,-3,0,-3,2021-08-07 12:39:25,306303
-3,-4,-3,-5,-3,-5,-2,-2,2021-08-07 12:39:25,306303
1,2,2,2,-3,-2,0,-1,2021-08-07 12:39:25,306303
-3,-5,-6,-8,-9,-7,-6,-3,2021-08-07 12:39:25,307304
-2,0,1,-4,-10,-4,-2,-3,2021-08-07 12:39:25,338302
0,0,-1,1,0,1,-1,0,2021-08-07 12:39:25,338302
0,0,1,1,3,4,2,2,2021-08-07 12:39:25,338302
-4,-5,-7,-4,-5,-6,-4,-3,2021-08-07 12:39:25,338302
-2,0,-1,-3,-9,-5,-4,-1,2021-08-07 12:39:25,338302
-2,-3,-2,-2,-4,0,-1,0,2021-08-07 12:39:25,339303
3,4,4,9,14,9,7,4,2021-08-07 12:39:25,339303
-2,-1,-2,-5,-7,-6,-2,-2,2021-08-07 12:39:25,339303
-3,-6,-5,0,4,0,0,-1,2021-08-07 12:39:25,354299
3,6,6,-1,0,2,3,3,2021-08-07 12:39:25,370304
-2,-1,-1,0,-1,-1,-2,-2,2021-08-07 12:39:25,370304
0,0,1,-3,-7,-4,-2,1,2021-08-07 12:39:25,386303
-1,-3,-3,-2,0,-4,-3,-3,2021-08-07 12:39:25,402304
-7,-9,-7,-11,-15,-12,-8,-7,2021-08-07 12:39:25,402304
1,1,1,-2,-2,2,0,0,2021-08-07 12:39:25,402304
0,0,1,5,8,6,2,1,2021-08-07 12:39:25,402304
1,4,2,4,4,5,2,0,2021-08-07 12:39:25,402304
2,4,3,6,10,3,2,2,2021-08-07 12:39:25,403302
-1,-2,-2,-6,-10,-7,-3,-1,2021-08-07 12:39:25,403302
-5,-6,-6,-5,-8,-7,-3,-5,2021-08-07 12:39:25,403302
-1,-2,-1,-6,-8,-6,-3,0,2021-08-07 12:39:25,418302
-1,-2,-2,4,12,8,5,0,2021-08-07 12:39:25,418302
0,0,-2,-2,-6,-6,-3,1,2021-08-07 12:39:25,434303
-1,-3,-2,0,-1,0,-1,1,2021-08-07 12:39:25,450302
-2,2,2,-1,2,0,-1,-1,2021-08-07 12:39:25,450302
-1,-5,-3,0,8,7,1,-2,2021-08-07 12:39:25,450302
-1,-1,-3,-9,-16,-5,-3,-1,2021-08-07 12:39:25,450302
3,3,3,13,27,14,7,2,2021-08-07 12:39:25,450302
1,2,2,1,-2,-3,-1,2,2021-08-07 12:39:25,466304
-6,-9,-8,-11,-7,-5,-6,-6,2021-08-07 12:39:25,481302
4,7,8,7,3,1,1,2,2021-08-07 12:39:25,481302
1,2,2,4,-4,-2,-1,0,2021-08-07 12:39:25,481302
-2,-4,-5,-6,-6,0,-3,-3,2021-08-07 12:39:25,481302
-1,1,1,-4,-8,-5,-4,-2,2021-08-07 12:39:25,481302
-4,-5,-6,-7,-5,-5,-2,-3,2021-08-07 12:39:25,482302
-1,0,1,-1,3,5,2,0,2021-08-07 12:39:25,482302
2,-1,-2,5,11,9,4,3,2021-08-07 12:39:25,497303
-2,-3,-3,-3,-8,-6,-6,-2,2021-08-07 12:39:25,497303
-5,-5,-3,-4,-3,-3,-3,-2,2021-08-07 12:39:25,497303
-1,-6,-4,-8,-13,-10,-5,-3,2021-08-07 12:39:25,497303
2,2,4,5,2,2,2,1,2021-08-07 12:39:25,529305
0,0,-3,1,3,2,0,-1,2021-08-07 12:39:25,545304
0,-4,-2,3,6,3,2,1,2021-08-07 12:39:25,561303
1,3,1,-2,-1,-2,-1,0,2021-08-07 12:39:25,577303
-2,0,1,0,-3,-3,-1,-2,2021-08-07 12:39:25,593303
-2,0,-3,-6,-5,-3,0,-1,2021-08-07 12:39:25,593303
-1,-1,1,5,7,2,-1,-1,2021-08-07 12:39:25,593303
-4,-2,-3,-5,-7,-6,-3,-3,2021-08-07 12:39:25,594304
0,-2,-1,0,-2,0,-1,-2,2021-08-07 12:39:25,594304
-4,-4,-4,-8,-11,-6,-4,-2,2021-08-07 12:39:25,594304
2,2,1,3,13,10,4,0,2021-08-07 12:39:25,594304
-1,0,0,2,-2,-3,-3,-2,2021-08-07 12:39:25,594304
-1,-1,-2,-5,-5,-4,-1,-1,2021-08-07 12:39:25,595303
4,4,6,10,16,10,6,2,2021-08-07 12:39:25,595303
-6,-9,-9,-10,-12,-5,-6,-6,2021-08-07 12:39:25,595303
0,0,2,1,9,4,3,0,2021-08-07 12:39:25,595303
-3,-4,-2,1,1,-1,-3,-1,2021-08-07 12:39:25,595303
-2,-5,-6,-11,-23,-17,-8,-3,2021-08-07 12:39:25,596301
6,10,10,13,18,13,6,4,2021-08-07 12:39:25,609300
-1,-2,-2,-1,-1,-1,0,0,2021-08-07 12:39:25,609300
-2,-2,-4,-5,-4,-2,-3,-2,2021-08-07 12:39:25,624301
0,3,4,4,1,-1,-1,-1,2021-08-07 12:39:25,624301
-3,-1,-2,-7,-10,-7,-5,-3,2021-08-07 12:39:25,624301
-1,-3,-4,-4,-8,-3,-3,-3,2021-08-07 12:39:25,624301
2,3,2,3,5,1,2,2,2021-08-07 12:39:25,640302
-3,-2,-5,-3,-5,-1,-2,-2,2021-08-07 12:39:25,640302
-1,-1,-2,-4,-7,-7,-1,-3,2021-08-07 12:39:25,640302
3,3,3,2,3,6,3,3,2021-08-07 12:39:25,640302
0,1,0,2,4,3,1,-1,2021-08-07 12:39:25,670302
3,2,3,6,9,5,3,4,2021-08-07 12:39:25,670302
-7,-9,-7,-5,-9,-9,-6,-5,2021-08-07 12:39:25,670302
-9,-14,-14,-22,-29,-21,-11,-7,2021-08-07 12:39:25,671303
13,22,18,16,23,20,16,13,2021-08-07 12:39:25,694301
1,0,2,5,13,7,3,1,2021-08-07 12:39:25,694301
2,2,0,5,4,3,1,2,2021-08-07 12:39:25,695303
-8,-9,-6,-8,-11,-8,-6,-6,2021-08-07 12:39:25,695303
-4,-5,-3,-6,-13,-10,-7,-4,2021-08-07 12:39:25,702302
1,1,-2,-1,-1,0,0,0,2021-08-07 12:39:25,702302
0,-1,-1,-3,-5,-2,0,1,2021-08-07 12:39:25,702302
0,0,-1,-3,-2,0,-2,2,2021-08-07 12:39:25,702302
-6,-8,-5,-1,0,-2,-2,-3,2021-08-07 12:39:25,718304
-2,-1,0,-1,-1,-4,-3,-2,2021-08-07 12:39:25,718304
3,5,3,3,7,3,2,1,2021-08-07 12:39:25,718304
6,7,5,7,11,8,5,4,2021-08-07 12:39:25,734300
-3,-4,-6,-3,-1,-1,-3,-3,2021-08-07 12:39:25,750303
-4,-8,-8,-14,-24,-19,-10,-5,2021-08-07 12:39:25,750303
0,2,2,2,8,10,4,-1,2021-08-07 12:39:25,750303
0,2,4,10,16,7,4,1,2021-08-07 12:39:25,750303
0,-1,-2,-4,-7,-5,-4,-2,2021-08-07 12:39:25,766300
0,0,2,4,5,2,0,0,2021-08-07 12:39:25,766300
-4,-6,-6,-9,-16,-12,-6,-3,2021-08-07 12:39:25,766300
3,2,1,-1,0,2,1,1,2021-08-07 12:39:25,766300
-4,-5,-4,-1,-7,-7,-3,-4,2021-08-07 12:39:25,782303
2,1,2,3,8,8,3,2,2021-08-07 12:39:25,782303
-1,-1,-1,1,10,7,2,1,2021-08-07 12:39:25,782303
-2,-2,-3,2,0,0,-1,-2,2021-08-07 12:39:25,782303
-1,-1,1,0,0,0,0,0,2021-08-07 12:39:25,798302
-3,-2,-2,-4,-10,-5,-5,-4,2021-08-07 12:39:25,798302
1,4,3,6,7,4,4,2,2021-08-07 12:39:25,798302
1,-2,-1,-2,-2,-1,-1,-1,2021-08-07 12:39:25,813301
-1,1,-1,-5,-7,-6,-2,-1,2021-08-07 12:39:25,845305
-3,-3,-4,0,1,-1,-2,-1,2021-08-07 12:39:25,845305
0,0,-1,-2,-4,-2,-3,-1,2021-08-07 12:39:25,845305
-5,-7,-6,-5,-7,-5,-4,-4,2021-08-07 12:39:25,845305
3,3,5,2,0,1,1,0,2021-08-07 12:39:25,845305
1,2,2,1,4,2,2,-1,2021-08-07 12:39:25,846304
-1,-2,-1,4,9,4,2,-1,2021-08-07 12:39:25,846304
2,2,0,-2,-3,-3,-3,-1,2021-08-07 12:39:25,846304
-2,-4,-2,-3,-3,-1,-2,-1,2021-08-07 12:39:25,861306
0,-1,-1,1,-2,-4,-1,0,2021-08-07 12:39:25,861306
-5,-4,-5,-12,-26,-16,-9,-7,2021-08-07 12:39:25,877303
1,3,4,16,34,27,12,6,2021-08-07 12:39:25,877303
3,4,4,7,12,7,3,0,2021-08-07 12:39:25,878302
-2,-1,0,-3,-1,0,0,0,2021-08-07 12:39:25,878302
1,-1,-2,-1,-5,-5,-1,-1,2021-08-07 12:39:25,878302
-4,-2,-3,-10,-18,-12,-7,-3,2021-08-07 12:39:25,878302
-2,-1,-2,-3,-1,0,-1,0,2021-08-07 12:39:25,925301
-4,-7,-9,-5,-4,-3,-3,-5,2021-08-07 12:39:25,925301
3,2,3,0,2,1,-1,2,2021-08-07 12:39:25,925301
2,3,1,1,4,4,2,2,2021-08-07 12:39:25,925301
1,0,-1,0,0,0,1,1,2021-08-07 12:39:25,925301
-3,-5,-6,-7,-7,-6,-4,-4,2021-08-07 12:39:25,926303
2,2,3,9,18,14,7,4,2021-08-07 12:39:25,941301
2,3,3,2,0,-2,-1,-1,2021-08-07 12:39:25,957302
-2,-5,-5,-5,-7,-3,-4,-3,2021-08-07 12:39:25,989304
-5,-6,-8,-9,-6,-6,-5,-5,2021-08-07 12:39:26,005303
7,7,10,7,9,9,8,7,2021-08-07 12:39:26,005303
4,7,6,12,21,11,5,3,2021-08-07 12:39:26,005303
-1,0,-2,-5,-6,-5,-3,-1,2021-08-07 12:39:26,006306
-4,-3,-2,-1,-4,-3,-4,-1,2021-08-07 12:39:26,006306
-2,-2,-5,-9,-13,-10,-7,-2,2021-08-07 12:39:26,006306
-1,-4,-2,-6,-11,-5,-3,-2,2021-08-07 12:39:26,006306
1,-2,-4,0,7,6,2,2,2021-08-07 12:39:26,006306
4,10,10,10,18,14,7,4,2021-08-07 12:39:26,007303
-3,-2,-3,0,0,-3,-4,-2,2021-08-07 12:39:26,007303
-5,-3,-6,-9,-15,-11,-6,-4,2021-08-07 12:39:26,007303
0,0,4,1,-6,-4,-2,-1,2021-08-07 12:39:26,007303
0,-1,0,-1,-1,1,0,0,2021-08-07 12:39:26,007303
-3,-4,-4,-2,-2,-3,-2,-1,2021-08-07 12:39:26,008302
-1,-3,-6,-12,-21,-12,-6,-3,2021-08-07 12:39:26,008302
2,3,1,-2,6,7,3,2,2021-08-07 12:39:26,037302
7,9,9,13,18,12,9,5,2021-08-07 12:39:26,053302
-4,-4,-6,-2,-5,-5,-2,-3,2021-08-07 12:39:26,069302
-6,-8,-9,-1,1,-2,0,-4,2021-08-07 12:39:26,069302
-4,-6,-3,-6,-10,-8,-5,-5,2021-08-07 12:39:26,069302
1,1,4,0,1,3,2,-1,2021-08-07 12:39:26,070302
-2,-2,-2,-5,-11,-10,-7,-4,2021-08-07 12:39:26,070302
-4,-5,-4,-5,-4,-2,-3,-2,2021-08-07 12:39:26,070302
3,4,3,4,5,2,2,3,2021-08-07 12:39:26,070302
0,-1,-1,-1,-2,-2,-2,0,2021-08-07 12:39:26,071304
0,-2,-2,-1,1,1,-1,1,2021-08-07 12:39:26,071304
0,-1,-1,-1,-4,-4,-4,-1,2021-08-07 12:39:26,071304
2,1,2,1,-3,-1,2,2,2021-08-07 12:39:26,101303
0,1,2,0,-5,-7,-3,0,2021-08-07 12:39:26,117303
-3,-5,-6,-1,11,9,2,-3,2021-08-07 12:39:26,117303
4,7,7,9,9,5,4,3,2021-08-07 12:39:26,133302
-8,-9,-12,-16,-18,-11,-7,-6,2021-08-07 12:39:26,133302
3,3,1,2,3,2,0,2,2021-08-07 12:39:26,133856
-4,-6,-6,-7,-9,-6,-4,-5,2021-08-07 12:39:26,133856
3,3,6,5,4,1,3,1,2021-08-07 12:39:26,134309
2,4,3,9,16,11,5,2,2021-08-07 12:39:26,134309
-1,-2,-2,-8,-14,-10,-4,-1,2021-08-07 12:39:26,134309
0,-1,-1,3,0,-1,-1,0,2021-08-07 12:39:26,134309
-1,-1,-2,-3,-3,-1,-1,3,2021-08-07 12:39:26,135307
0,0,1,1,-4,-5,-2,0,2021-08-07 12:39:26,149366
-4,-2,-2,-2,-4,-2,-2,-2,2021-08-07 12:39:26,149366
0,0,0,-5,-6,-4,-2,-1,2021-08-07 12:39:26,149366
0,1,1,4,5,1,0,1,2021-08-07 12:39:26,149366
1,-2,0,5,11,9,5,0,2021-08-07 12:39:26,165366
-1,0,0,1,4,5,1,0,2021-08-07 12:39:26,165366
0,-2,-3,-5,-9,-10,-5,-4,2021-08-07 12:39:26,165366
-3,-3,-4,-8,-4,-3,-3,-1,2021-08-07 12:39:26,165366
3,3,3,2,11,8,5,3,2021-08-07 12:39:26,181365
0,-2,1,4,4,2,1,1,2021-08-07 12:39:26,197368
2,2,2,-1,0,1,1,2,2021-08-07 12:39:26,213366
1,1,2,5,6,3,2,0,2021-08-07 12:39:26,229364
-4,-5,-6,-8,-12,-12,-5,-4,2021-08-07 12:39:26,245365
-2,-4,-4,-7,-7,-4,-3,-1,2021-08-07 12:39:26,245365
-3,-5,-5,-7,-14,-9,-4,-2,2021-08-07 12:39:26,261365
5,5,6,6,9,11,4,2,2021-08-07 12:39:26,261365
-1,-2,-1,-3,-7,-6,-4,-2,2021-08-07 12:39:26,261365
-3,-2,-4,-5,-3,-1,0,-3,2021-08-07 12:39:26,261365
-1,3,4,9,12,6,2,2,2021-08-07 12:39:26,261365
-2,-4,-6,-9,-14,-11,-6,-5,2021-08-07 12:39:26,262364
-1,-1,-2,-1,-2,-1,-2,-1,2021-08-07 12:39:26,262364
1,1,-2,-1,-4,-2,0,2,2021-08-07 12:39:26,262364
0,-1,-2,-1,0,0,0,-2,2021-08-07 12:39:26,262364
3,4,5,0,-2,4,9,5,2021-08-07 12:39:26,262364
2,-1,1,1,1,4,2,4,2021-08-07 12:39:26,262364
-2,-2,0,-4,-2,-1,-7,-5,2021-08-07 12:39:26,263364
-6,-5,-1,-1,3,-7,-14,-9,2021-08-07 12:39:26,263364
6,0,1,1,2,5,12,9,2021-08-07 12:39:26,263364
3,1,0,0,-7,-2,-1,-1,2021-08-07 12:39:26,307364
-5,-2,0,4,9,-3,-14,-13,2021-08-07 12:39:26,307364
-5,-2,0,3,4,-1,-6,-4,2021-08-07 12:39:26,307364
-1,-2,-4,-4,-8,-6,-4,-2,2021-08-07 12:39:26,307364
1,2,1,7,15,10,6,3,2021-08-07 12:39:26,307364
2,-2,-2,-1,2,2,5,4,2021-08-07 12:39:26,308364
4,5,4,2,2,5,4,2,2021-08-07 12:39:26,308364
-3,-3,-5,-4,-7,-6,-6,-3,2021-08-07 12:39:26,308364
0,-5,-5,-7,-14,-6,0,1,2021-08-07 12:39:26,338363
4,7,6,4,3,3,4,2,2021-08-07 12:39:26,369887
-4,-5,-4,-5,-3,-3,-1,-1,2021-08-07 12:39:26,384887
1,2,3,6,13,10,5,3,2021-08-07 12:39:26,384887
-1,2,3,7,9,0,-2,-3,2021-08-07 12:39:26,384887
-2,-2,-2,-3,-8,-7,-1,-3,2021-08-07 12:39:26,384887
1,0,-2,-6,-10,-3,3,1,2021-08-07 12:39:26,385890
-1,-1,-2,-3,-4,-6,-5,-4,2021-08-07 12:39:26,385890
-3,1,1,-1,3,3,-3,-4,2021-08-07 12:39:26,385890
-2,-2,-3,1,0,0,2,1,2021-08-07 12:39:26,401889
1,0,-1,-1,3,3,4,3,2021-08-07 12:39:26,417889
-3,-1,-2,-5,-8,-8,-7,-6,2021-08-07 12:39:26,417889
-4,-2,-3,-4,-8,-7,-6,-3,2021-08-07 12:39:26,417889
-2,-5,-8,-15,-18,-8,-2,-1,2021-08-07 12:39:26,432889
7,8,9,23,35,22,12,5,2021-08-07 12:39:26,432889
-4,-2,-1,-2,-2,-3,-6,-2,2021-08-07 12:39:26,432889
-4,-7,-6,-10,-6,-7,-6,-3,2021-08-07 12:39:26,432889
-1,-3,-7,-9,-13,-8,-3,-1,2021-08-07 12:39:26,433889
0,-1,-1,-8,-12,-7,-4,-1,2021-08-07 12:39:26,433889
3,4,4,9,17,12,7,1,2021-08-07 12:39:26,433889
0,1,3,5,6,3,0,1,2021-08-07 12:39:26,448887
-2,-4,-1,2,5,2,-2,-1,2021-08-07 12:39:26,448887
2,4,2,0,-3,1,1,2,2021-08-07 12:39:26,448887
-3,-5,-5,-5,-9,-8,-5,-3,2021-08-07 12:39:26,449891
2,4,-1,-5,-10,-8,-2,0,2021-08-07 12:39:26,449891
0,2,3,7,11,9,4,3,2021-08-07 12:39:26,449891
-3,-2,-3,-4,-11,-7,-2,-1,2021-08-07 12:39:26,449891
-2,-2,0,3,9,5,1,-2,2021-08-07 12:39:26,449891
-1,-1,-3,2,5,5,2,0,2021-08-07 12:39:26,464888
2,2,3,5,6,1,4,4,2021-08-07 12:39:26,480888
0,-3,-4,-5,-5,-3,-1,0,2021-08-07 12:39:26,496887
-3,-1,-3,-3,-8,-7,-4,-3,2021-08-07 12:39:26,496887
-3,-1,-2,-1,-1,-2,0,-3,2021-08-07 12:39:26,512887
0,1,2,6,6,5,3,1,2021-08-07 12:39:26,512887
-2,-2,-1,-4,-3,-2,-1,-1,2021-08-07 12:39:26,513888
-1,1,-1,-3,-6,0,-1,0,2021-08-07 12:39:26,528944
-1,-2,-3,-1,0,1,-1,-2,2021-08-07 12:39:26,544946
-1,-1,-2,-6,-6,-5,-2,-2,2021-08-07 12:39:26,544946
2,4,5,-2,-9,-6,-2,0,2021-08-07 12:39:26,544946
4,3,6,13,24,18,8,4,2021-08-07 12:39:26,545949
-4,-6,-5,1,4,-1,-1,-3,2021-08-07 12:39:26,545949
1,6,4,2,0,1,1,-1,2021-08-07 12:39:26,545949
-2,-4,-4,-1,-1,-1,-1,-2,2021-08-07 12:39:26,545949
-1,-1,-2,-4,-5,-4,-2,-2,2021-08-07 12:39:26,545949
0,-1,-2,-6,-6,-2,0,-1,2021-08-07 12:39:26,559948
-1,-4,-5,-1,-4,-4,-4,-4,2021-08-07 12:39:26,559948
4,4,2,2,3,4,2,1,2021-08-07 12:39:26,559948
1,1,1,-1,-3,-3,-1,-1,2021-08-07 12:39:26,560945
-4,-4,-3,-1,-3,-3,-3,-3,2021-08-07 12:39:26,560945
-2,-6,-4,-8,-13,-10,-4,-3,2021-08-07 12:39:26,575946
0,1,-1,-7,-3,1,1,1,2021-08-07 12:39:26,591945
4,4,6,18,40,24,10,5,2021-08-07 12:39:26,607948
0,1,2,-2,-4,-4,-2,0,2021-08-07 12:39:26,607948
0,1,1,1,3,1,1,-1,2021-08-07 12:39:26,607948
-8,-10,-11,-10,-18,-18,-10,-5,2021-08-07 12:39:26,607948
-2,-3,-4,-12,-20,-11,-6,-4,2021-08-07 12:39:26,608944
2,3,5,13,20,16,5,2,2021-08-07 12:39:26,623943
-3,-5,-6,-4,-4,-3,-3,-2,2021-08-07 12:39:26,623943
6,9,10,8,10,8,6,4,2021-08-07 12:39:26,623943
-4,-3,-6,-12,-22,-16,-9,-2,2021-08-07 12:39:26,623943
0,2,3,5,1,0,-1,1,2021-08-07 12:39:26,624944
-6,-7,-8,-3,-8,-5,-4,-2,2021-08-07 12:39:26,624944
-1,0,2,5,7,7,2,0,2021-08-07 12:39:26,624944
2,0,1,6,9,3,3,2,2021-08-07 12:39:26,624944
2,2,1,-6,-9,-6,-3,-2,2021-08-07 12:39:26,671944
1,1,2,6,13,10,3,1,2021-08-07 12:39:26,671944
-2,-6,-4,-3,-4,-4,-3,-4,2021-08-07 12:39:26,671944
-2,-3,-2,-5,-7,-2,-1,-2,2021-08-07 12:39:26,671944
-1,-1,-1,3,6,3,1,0,2021-08-07 12:39:26,672947
-1,-1,-2,-3,-8,-6,-3,0,2021-08-07 12:39:26,672947
1,0,0,2,8,6,2,0,2021-08-07 12:39:26,672947
-2,-3,-3,-6,-7,-3,-3,-2,2021-08-07 12:39:26,672947
-2,-3,-2,-1,-6,-6,-3,-1,2021-08-07 12:39:26,686945
-1,-2,-2,-6,-4,-2,-2,-2,2021-08-07 12:39:26,686945
-1,-2,-1,2,3,-1,0,0,2021-08-07 12:39:26,686945
1,3,1,1,-2,-4,-1,0,2021-08-07 12:39:26,686945
-1,-4,-2,-4,-1,0,0,-1,2021-08-07 12:39:26,717945
-1,0,0,-5,-8,-5,-2,0,2021-08-07 12:39:26,717945
-1,-1,-3,0,12,10,4,0,2021-08-07 12:39:26,732946
-2,-4,-5,-6,-11,-8,-4,-1,2021-08-07 12:39:26,732946
0,2,0,-6,-13,-8,-4,0,2021-08-07 12:39:26,732946
0,0,0,9,21,16,7,0,2021-08-07 12:39:26,732946
-2,-4,-3,-2,-3,-6,-3,-2,2021-08-07 12:39:26,732946
1,4,3,0,0,3,2,2,2021-08-07 12:39:26,748947
-1,-1,-1,0,-2,-2,-3,-1,2021-08-07 12:39:26,748947
-1,0,1,-5,-11,-8,-6,-1,2021-08-07 12:39:26,748947
0,-1,-2,-4,-7,-5,-3,-2,2021-08-07 12:39:26,748947
-3,-5,-4,-3,0,-2,0,-2,2021-08-07 12:39:26,749946
-4,-5,-7,-8,-12,-9,-4,-1,2021-08-07 12:39:26,780945
2,3,3,3,4,1,1,0,2021-08-07 12:39:26,795947
1,5,2,5,11,9,3,1,2021-08-07 12:39:26,796189
1,-1,2,3,0,-3,0,0,2021-08-07 12:39:26,796189
1,-2,-1,0,8,6,0,-2,2021-08-07 12:39:26,796189
-1,-2,1,-3,-3,-6,0,0,2021-08-07 12:39:26,811475
-2,-5,-6,-9,-12,-5,-3,-2,2021-08-07 12:39:26,827477
-2,-2,-2,7,8,5,1,0,2021-08-07 12:39:26,827477
-1,0,1,0,-1,0,1,-3,2021-08-07 12:39:26,827477
1,1,1,1,2,1,2,0,2021-08-07 12:39:26,827477
0,-3,-1,-2,-4,-3,-2,-1,2021-08-07 12:39:26,843477
-2,-1,-1,-3,-2,-2,-2,-1,2021-08-07 12:39:26,858475
1,3,4,4,5,3,3,1,2021-08-07 12:39:26,874475
-2,-3,-2,-5,-8,-6,-6,-2,2021-08-07 12:39:26,874475
-2,-1,-2,-7,-17,-11,-6,-3,2021-08-07 12:39:26,889477
-1,-1,0,1,6,10,3,2,2021-08-07 12:39:26,889477
-2,-4,-2,6,14,8,3,-1,2021-08-07 12:39:26,889477
6,9,8,4,4,5,7,5,2021-08-07 12:39:26,889477
0,-1,0,3,7,2,0,0,2021-08-07 12:39:26,889477
-4,-4,-7,-13,-17,-14,-9,-6,2021-08-07 12:39:26,890475
0,1,-1,-4,-8,-5,-2,-1,2021-08-07 12:39:26,890475
4,4,3,2,3,4,2,3,2021-08-07 12:39:26,890475
2,0,2,6,8,7,4,2,2021-08-07 12:39:26,890475
-1,-3,-2,-2,-7,-4,-2,-2,2021-08-07 12:39:26,890475
-3,-5,-6,-9,-14,-12,-6,-4,2021-08-07 12:39:26,905478
0,1,3,2,4,4,1,0,2021-08-07 12:39:26,921475
1,3,2,9,11,5,4,2,2021-08-07 12:39:26,921475
3,2,1,-2,1,2,1,4,2021-08-07 12:39:26,921475
-1,-2,-6,-7,-6,-3,-1,0,2021-08-07 12:39:26,936477
-2,-4,-3,2,3,1,0,-3,2021-08-07 12:39:26,952476
-4,-1,-2,-4,-7,-5,-3,-4,2021-08-07 12:39:26,968477
-5,-3,0,1,1,-2,-2,-3,2021-08-07 12:39:26,968477
1,3,5,11,17,12,4,2,2021-08-07 12:39:26,968477
-3,-4,-5,-2,-3,-4,-4,-6,2021-08-07 12:39:26,968477
-4,-7,-7,-11,-15,-11,-6,-3,2021-08-07 12:39:26,969476
5,6,7,6,9,6,3,2,2021-08-07 12:39:26,984475
4,5,3,0,-4,-3,-1,1,2021-08-07 12:39:26,984475
-1,-1,-4,0,5,3,2,-1,2021-08-07 12:39:26,999475
-2,-3,-4,-1,-1,-2,-3,-1,2021-08-07 12:39:26,999475
-3,-5,-6,-12,-14,-8,-3,-2,2021-08-07 12:39:26,999475
3,6,6,3,4,4,3,3,2021-08-07 12:39:26,999475
-1,-1,0,1,0,-2,-2,0,2021-08-07 12:39:26,999475
-2,-2,-4,-9,-12,-6,-2,0,2021-08-07 12:39:27,000477
0,0,2,-2,-3,-2,-1,-1,2021-08-07 12:39:27,000477
0,-2,-1,6,9,7,0,0,2021-08-07 12:39:27,000477
0,0,1,1,2,0,-1,0,2021-08-07 12:39:27,000477
0,0,1,2,3,3,0,0,2021-08-07 12:39:27,000477
-1,-1,-2,-3,-6,-1,-2,-2,2021-08-07 12:39:27,001477
-4,-4,-3,-3,-8,-7,-2,-1,2021-08-07 12:39:27,015480
-3,-3,-4,-1,-3,-3,-1,-1,2021-08-07 12:39:27,031478
2,4,3,6,11,7,4,1,2021-08-07 12:39:27,047477
-2,-2,-3,3,8,3,0,-3,2021-08-07 12:39:27,063478
-3,-3,-4,-8,-13,-8,-5,-3,2021-08-07 12:39:27,073475
0,0,-1,4,1,-1,-1,0,2021-08-07 12:39:27,074475
1,3,3,-1,0,3,1,1,2021-08-07 12:39:27,074475
1,0,1,3,6,1,1,-1,2021-08-07 12:39:27,074475
1,0,2,1,8,3,3,0,2021-08-07 12:39:27,074475
-3,-5,-3,-2,-3,-1,-1,-2,2021-08-07 12:39:27,075475
0,1,1,-2,-4,-4,-1,-1,2021-08-07 12:39:27,075475
-2,-2,-4,-6,-15,-12,-5,-3,2021-08-07 12:39:27,075475
0,-2,-3,-3,-8,-3,-3,-1,2021-08-07 12:39:27,075475
-1,-1,0,-3,-1,0,0,0,2021-08-07 12:39:27,075475
0,-1,1,4,5,3,1,0,2021-08-07 12:39:27,076478
3,5,5,9,8,5,3,1,2021-08-07 12:39:27,076478
-1,-1,-3,-3,-1,0,0,-1,2021-08-07 12:39:27,095474
1,3,3,4,7,5,2,0,2021-08-07 12:39:27,111477
-3,-4,-2,-4,-4,-4,-2,-3,2021-08-07 12:39:27,111477
-1,0,0,-1,-2,-3,-1,-1,2021-08-07 12:39:27,111477
-3,-4,-3,-4,-7,-5,-4,-3,2021-08-07 12:39:27,111477
0,-3,-3,-5,-6,-3,-2,-1,2021-08-07 12:39:27,111477
2,3,1,4,5,3,3,3,2021-08-07 12:39:27,112476
-4,-6,-6,-5,-5,-3,-3,-2,2021-08-07 12:39:27,112476
2,7,9,6,6,5,3,2,2021-08-07 12:39:27,127478
-2,-4,-6,-6,-8,-6,-3,-4,2021-08-07 12:39:27,127478
-4,-7,-7,-13,-23,-17,-9,-7,2021-08-07 12:39:27,127478
3,5,8,19,41,28,12,4,2021-08-07 12:39:27,127478
0,-1,-2,1,4,0,0,0,2021-08-07 12:39:27,159476
-3,-2,-3,-5,-7,-6,-4,-2,2021-08-07 12:39:27,159476
2,3,2,3,5,2,2,3,2021-08-07 12:39:27,159476
-4,-5,-8,-10,-14,-11,-6,-4,2021-08-07 12:39:27,159476
-3,-4,-2,1,4,3,0,-1,2021-08-07 12:39:27,174474
0,1,3,0,-3,0,-2,-1,2021-08-07 12:39:27,174474
0,0,2,1,0,0,0,1,2021-08-07 12:39:27,174474
0,-2,-2,-4,-3,-4,0,-1,2021-08-07 12:39:27,174474
1,1,2,1,3,0,0,2,2021-08-07 12:39:27,190474
-2,-4,-4,-3,-4,-3,-2,-3,2021-08-07 12:39:27,190474
-1,-3,-2,0,3,1,1,-2,2021-08-07 12:39:27,190474
1,4,3,3,3,4,1,1,2021-08-07 12:39:27,190474
-2,-5,-4,-6,-12,-9,-4,-3,2021-08-07 12:39:27,221478
0,-1,-1,-2,-2,0,0,1,2021-08-07 12:39:27,221478
2,2,5,13,19,12,5,1,2021-08-07 12:39:27,221478
2,3,4,2,-2,-2,0,3,2021-08-07 12:39:27,221478
2,5,2,-1,-2,0,0,1,2021-08-07 12:39:27,237475
-2,0,-2,-2,-1,-2,-1,1,2021-08-07 12:39:27,237475
-5,-7,-9,-8,-5,-2,-4,-3,2021-08-07 12:39:27,237475
1,1,1,-2,-5,-5,-2,-2,2021-08-07 12:39:27,237475
-1,-4,-2,-3,-5,-5,-2,-1,2021-08-07 12:39:27,253475
1,1,0,2,6,5,1,1,2021-08-07 12:39:27,269475
1,0,2,5,7,2,3,1,2021-08-07 12:39:27,269475
-2,-4,-5,-4,-6,-4,-3,-3,2021-08-07 12:39:27,269475
-6,-7,-7,-8,-11,-6,-6,-5,2021-08-07 12:39:27,269475
5,4,2,2,6,5,4,4,2021-08-07 12:39:27,269475
0,2,1,0,-3,2,-1,0,2021-08-07 12:39:27,270477
-3,-6,-4,-5,-8,-6,-4,-2,2021-08-07 12:39:27,270477
2,5,4,7,7,6,4,2,2021-08-07 12:39:27,301475
-4,-4,-3,0,3,0,-2,-4,2021-08-07 12:39:27,301475
5,8,7,2,-4,-3,1,2,2021-08-07 12:39:27,301475
-1,1,-1,-4,-6,-4,-2,-1,2021-08-07 12:39:27,301475
-2,-5,-3,-3,2,2,-1,-3,2021-08-07 12:39:27,317478
-1,-2,1,-1,-1,-2,0,0,2021-08-07 12:39:27,332475
0,1,2,2,5,3,1,1,2021-08-07 12:39:27,332475
-1,-2,-4,-2,-3,-3,-2,-2,2021-08-07 12:39:27,332475
0,1,-1,-3,-4,-3,-1,-1,2021-08-07 12:39:27,332475
-3,-1,-2,-1,1,2,1,-1,2021-08-07 12:39:27,332475
0,2,-1,-6,-8,-3,0,-1,2021-08-07 12:39:27,333476
-1,-2,-1,6,10,5,1,0,2021-08-07 12:39:27,333476
1,1,2,1,0,2,-1,1,2021-08-07 12:39:27,363477
-4,-4,-3,-5,-10,-7,-3,-4,2021-08-07 12:39:27,379476
0,-1,-1,0,2,0,0,1,2021-08-07 12:39:27,379476
-2,-3,-4,0,1,1,-1,-1,2021-08-07 12:39:27,379476
1,3,4,2,3,2,2,2,2021-08-07 12:39:27,379476
-6,-7,-7,-6,-10,-8,-5,-7,2021-08-07 12:39:27,380474
2,6,6,7,2,0,1,1,2021-08-07 12:39:27,380474
2,3,3,7,15,11,7,2,2021-08-07 12:39:27,380474
-6,-9,-7,-5,-2,-6,-4,-5,2021-08-07 12:39:27,395478
1,3,2,0,-2,-2,0,1,2021-08-07 12:39:27,395478
-1,-2,-2,-3,-3,-1,-1,-1,2021-08-07 12:39:27,395478
-1,-1,-1,-11,-17,-11,-4,-1,2021-08-07 12:39:27,411477
-1,-2,-3,-1,0,-2,-1,-3,2021-08-07 12:39:27,411477
2,0,3,6,14,10,5,2,2021-08-07 12:39:27,411477
-2,-3,-4,-3,-2,-2,-2,-2,2021-08-07 12:39:27,411477
0,-1,-1,0,-2,-3,-1,-1,2021-08-07 12:39:27,427477
-2,-3,-4,-5,-8,-4,-3,-1,2021-08-07 12:39:27,442474
1,1,0,-3,-6,-4,-3,0,2021-08-07 12:39:27,442474
1,1,1,4,5,3,3,2,2021-08-07 12:39:27,442474
-1,1,-2,-5,0,4,2,0,2021-08-07 12:39:27,442474
0,0,2,6,5,6,3,-1,2021-08-07 12:39:27,458476
-1,0,-1,-1,2,1,0,2,2021-08-07 12:39:27,458476
0,1,0,9,15,7,3,1,2021-08-07 12:39:27,458476
-1,-2,0,-2,-7,-5,-2,-3,2021-08-07 12:39:27,458476
-3,-7,-7,-8,-13,-10,-6,-4,2021-08-07 12:39:27,473477
-5,-5,-4,-8,-16,-10,-6,-6,2021-08-07 12:39:27,489476
2,2,1,-4,0,0,0,2,2021-08-07 12:39:27,504475
0,1,1,6,8,4,2,1,2021-08-07 12:39:27,520476
0,1,1,2,3,1,0,0,2021-08-07 12:39:27,520476
-5,-6,-7,-5,-11,-10,-7,-4,2021-08-07 12:39:27,520476
-4,-5,-7,-5,-3,-1,-3,-1,2021-08-07 12:39:27,520476
1,1,3,5,9,5,3,1,2021-08-07 12:39:27,521477
0,-1,0,-2,-2,-3,-1,0,2021-08-07 12:39:27,521477
1,1,1,-4,-9,-6,-2,1,2021-08-07 12:39:27,521477
-1,0,1,7,9,8,3,-1,2021-08-07 12:39:27,521477
-1,-4,-4,-2,-4,-6,-3,-2,2021-08-07 12:39:27,521477
0,0,2,3,4,3,1,0,2021-08-07 12:39:27,567476
0,0,-2,0,5,3,1,1,2021-08-07 12:39:27,583477
-2,-2,-1,-5,-10,-6,-3,-2,2021-08-07 12:39:27,583477
2,3,3,-1,-5,-1,2,-1,2021-08-07 12:39:27,599475
0,1,0,0,-4,-4,-2,-1,2021-08-07 12:39:27,599475
3,1,0,0,2,4,2,1,2021-08-07 12:39:27,599475
-3,-5,-4,0,10,4,1,0,2021-08-07 12:39:27,599475
-1,-5,-4,-3,-2,-1,-3,-3,2021-08-07 12:39:27,600477
-2,-1,-1,-3,-6,-4,-3,-2,2021-08-07 12:39:27,600477
2,6,5,8,11,6,3,3,2021-08-07 12:39:27,600477
-3,-4,-5,-10,-15,-9,-5,-3,2021-08-07 12:39:27,600477
-2,-2,-1,3,2,-1,0,-2,2021-08-07 12:39:27,600477
-1,-4,-5,-5,-7,-5,-2,-1,2021-08-07 12:39:27,615477
-3,-6,-3,0,2,2,-1,-3,2021-08-07 12:39:27,631476
-1,0,0,-4,-10,-8,-3,-3,2021-08-07 12:39:27,631476
-1,1,1,-3,-2,0,0,1,2021-08-07 12:39:27,631476
0,3,2,3,9,5,4,1,2021-08-07 12:39:27,631476
-1,-2,0,-2,-6,-2,-2,-3,2021-08-07 12:39:27,631476
2,1,2,7,11,7,5,3,2021-08-07 12:39:27,632477
0,-1,1,6,15,6,2,2,2021-08-07 12:39:27,646475
0,0,0,2,5,4,0,0,2021-08-07 12:39:27,662477
0,2,1,2,1,0,-1,2,2021-08-07 12:39:27,662477
-2,-1,-2,-5,-12,-8,-5,-2,2021-08-07 12:39:27,678477
-3,-4,-5,-9,-14,-8,-6,-4,2021-08-07 12:39:27,678477
2,2,3,1,2,4,2,2,2021-08-07 12:39:27,694477
-1,-1,0,0,0,2,0,-2,2021-08-07 12:39:27,710477
-5,-6,-5,-4,-5,-4,-4,-4,2021-08-07 12:39:27,710477
1,3,4,3,0,1,0,1,2021-08-07 12:39:27,710477
-2,-3,-3,1,0,0,-1,-2,2021-08-07 12:39:27,726477
1,2,2,-5,-5,-3,0,2,2021-08-07 12:39:27,726477
3,3,3,6,5,7,3,2,2021-08-07 12:39:27,726477
4,4,4,4,3,2,3,2,2021-08-07 12:39:27,731477
-1,0,-4,-1,-3,-3,-1,-1,2021-08-07 12:39:27,732478
-2,-2,-2,0,3,-1,0,-3,2021-08-07 12:39:27,732478
-1,-4,-5,-3,-6,-4,-4,-2,2021-08-07 12:39:27,732478
-6,-4,-6,-9,-17,-12,-8,-3,2021-08-07 12:39:27,732478
-4,-6,-6,-7,-1,4,-1,-4,2021-08-07 12:39:27,732478
6,8,7,10,18,11,7,5,2021-08-07 12:39:27,733475
-1,1,1,-2,-2,-1,-1,1,2021-08-07 12:39:27,733475
-1,-3,-1,0,0,0,-2,-1,2021-08-07 12:39:27,733475
-1,-1,-1,-2,-8,-7,-4,-1,2021-08-07 12:39:27,733475
-2,-5,-5,-4,-5,-3,-2,-3,2021-08-07 12:39:27,733475
1,1,1,-2,3,3,2,0,2021-08-07 12:39:27,733475
-1,-3,-3,-4,-6,-6,-3,-2,2021-08-07 12:39:27,734478
0,0,1,3,7,3,1,-2,2021-08-07 12:39:27,758475
-2,-1,0,-2,-3,-3,-1,-1,2021-08-07 12:39:27,774474
0,-1,-2,-1,-10,-7,-4,-2,2021-08-07 12:39:27,774474
-2,-2,-3,1,8,7,1,-2,2021-08-07 12:39:27,774474
2,4,4,6,11,6,4,4,2021-08-07 12:39:27,774474
1,1,2,2,2,2,0,1,2021-08-07 12:39:27,774474
-2,-3,-3,-1,-3,-5,-3,-2,2021-08-07 12:39:27,790477
-3,-2,1,-3,-11,-10,-6,-3,2021-08-07 12:39:27,790477
-1,0,0,2,5,3,1,0,2021-08-07 12:39:27,790477
3,3,5,5,8,6,4,2,2021-08-07 12:39:27,790477
0,-2,-3,-3,0,2,2,2,2021-08-07 12:39:27,790477
4,4,1,2,3,1,4,3,2021-08-07 12:39:27,791478
-1,-2,-3,-4,-6,-4,-2,1,2021-08-07 12:39:27,837475
-3,-5,-6,-5,-7,-5,-3,-3,2021-08-07 12:39:27,837475
-4,-3,-1,-1,0,-1,-1,-1,2021-08-07 12:39:27,837475
-5,-4,-1,0,1,-1,-3,-5,2021-08-07 12:39:27,837475
1,4,5,2,3,2,0,0,2021-08-07 12:39:27,853474
-2,-2,-3,-2,-2,-3,-3,-1,2021-08-07 12:39:27,853474
3,3,-1,1,3,1,0,-1,2021-08-07 12:39:27,854475
1,-1,-3,-6,-8,-7,-5,0,2021-08-07 12:39:27,868477
-2,-4,-4,-7,-7,-4,-2,0,2021-08-07 12:39:27,868477
-1,-3,-3,2,3,1,0,-2,2021-08-07 12:39:27,868477
4,7,6,3,2,4,3,2,2021-08-07 12:39:27,868477
-3,-3,-2,-1,0,0,-1,-1,2021-08-07 12:39:27,884476
-2,-4,-5,-7,-8,-7,-5,-2,2021-08-07 12:39:27,884476
2,2,0,1,4,5,2,2,2021-08-07 12:39:27,899477
-1,-1,-2,-2,-1,1,0,0,2021-08-07 12:39:27,899477
1,0,-1,1,0,1,2,1,2021-08-07 12:39:27,899477
-2,-2,-1,0,-4,-4,-2,-3,2021-08-07 12:39:27,899477
1,0,1,-4,-10,-7,-3,0,2021-08-07 12:39:27,900477
-3,-5,-4,-4,0,-2,-3,-2,2021-08-07 12:39:27,900477
-2,-2,-2,-2,-3,-1,-2,-4,2021-08-07 12:39:27,915478
4,4,6,3,4,4,2,2,2021-08-07 12:39:27,915478
-1,0,-1,-1,-2,-1,0,-2,2021-08-07 12:39:27,915478
-1,0,-1,0,0,0,0,-1,2021-08-07 12:39:27,915478
-6,-7,-5,-5,-3,-3,-4,-4,2021-08-07 12:39:27,915478
1,5,4,1,-3,-4,-3,1,2021-08-07 12:39:27,931478
1,2,1,-3,-5,0,1,1,2021-08-07 12:39:27,931478
-4,-4,-1,3,3,-2,0,-1,2021-08-07 12:39:27,931478
4,6,5,0,0,1,2,3,2021-08-07 12:39:27,931478
-3,-4,-5,-5,-5,-4,-4,-2,2021-08-07 12:39:27,978479
-1,1,-2,-3,-3,0,0,0,2021-08-07 12:39:27,978479
-2,-4,-2,3,3,2,0,-1,2021-08-07 12:39:27,994476
0,0,-1,1,2,-1,0,1,2021-08-07 12:39:27,994476
1,0,-1,0,-1,-1,0,-1,2021-08-07 12:39:27,994476
-1,0,0,0,1,-3,-2,-2,2021-08-07 12:39:27,994476
0,2,1,2,3,0,2,1,2021-08-07 12:39:27,994476
-4,-5,-7,-8,-10,-7,-5,-3,2021-08-07 12:39:27,995478
0,0,1,5,11,7,2,1,2021-08-07 12:39:27,995478
-1,-1,-1,1,-1,-3,-1,1,2021-08-07 12:39:27,995478
-1,0,0,0,1,1,0,-2,2021-08-07 12:39:27,995478
-3,-3,-3,-2,1,1,-1,-1,2021-08-07 12:39:27,995478
-3,-1,-1,-6,-12,-8,-3,-2,2021-08-07 12:39:28,026474
0,2,1,2,7,4,2,0,2021-08-07 12:39:28,026474
0,-1,-2,0,0,-1,-2,0,2021-08-07 12:39:28,042475
0,1,0,-1,-3,-2,-1,0,2021-08-07 12:39:28,058475
-1,-3,-1,1,1,1,0,-1,2021-08-07 12:39:28,058475
-2,-2,-2,0,0,-3,-1,0,2021-08-07 12:39:28,058475
2,2,2,-1,-1,2,2,3,2021-08-07 12:39:28,058475
4,8,4,5,10,7,5,3,2021-08-07 12:39:28,058475
-4,-4,-7,-7,-7,-5,-4,-4,2021-08-07 12:39:28,074475
-2,-4,-3,-1,-2,-1,-1,-3,2021-08-07 12:39:28,074475
-3,-1,-1,-5,-8,-8,-5,-1,2021-08-07 12:39:28,074475
1,1,1,-1,-3,0,0,1,2021-08-07 12:39:28,074475
0,2,3,3,7,3,1,1,2021-08-07 12:39:28,074475
-2,-6,-5,-4,-5,-3,-3,-1,2021-08-07 12:39:28,075475
-2,-4,-5,-7,-7,-7,-3,-4,2021-08-07 12:39:28,075475
2,3,2,4,2,3,1,2,2021-08-07 12:39:28,090477
-2,-2,-2,-2,-3,-2,-1,-1,2021-08-07 12:39:28,090477
-4,-4,-5,1,3,2,-1,-1,2021-08-07 12:39:28,090477
1,0,1,-1,3,4,1,0,2021-08-07 12:39:28,090477
1,5,6,3,1,-1,1,1,2021-08-07 12:39:28,090477
-2,-3,-2,-1,0,-2,2,-2,2021-08-07 12:39:28,122476
-4,-3,-5,-2,3,-1,-3,-3,2021-08-07 12:39:28,138478
2,3,2,4,6,5,3,2,2021-08-07 12:39:28,154473
0,-2,-2,-1,-2,-3,-1,0,2021-08-07 12:39:28,154473
0,-2,-1,-2,-7,-4,-3,-2,2021-08-07 12:39:28,154473
2,2,4,-2,0,2,0,1,2021-08-07 12:39:28,154473
-2,-3,-5,-2,0,-3,-2,-3,2021-08-07 12:39:28,155478
-7,-8,-8,-8,-4,-2,-4,-5,2021-08-07 12:39:28,155478
4,8,5,5,4,1,2,1,2021-08-07 12:39:28,155478
1,2,3,0,-1,-2,1,0,2021-08-07 12:39:28,155478
0,1,2,0,-3,-1,-1,-1,2021-08-07 12:39:28,155478
-2,-4,-5,-3,-2,0,-2,-3,2021-08-07 12:39:28,155478
-3,-6,-4,-1,-5,-4,-4,-5,2021-08-07 12:39:28,170475
2,3,3,-1,0,1,0,1,2021-08-07 12:39:28,170475
-2,-3,1,-1,-4,-2,-2,0,2021-08-07 12:39:28,170475
-2,-2,-1,-6,-8,-6,-2,-1,2021-08-07 12:39:28,170475
-4,-5,-7,-9,-12,-9,-5,-1,2021-08-07 12:39:28,201476
4,6,5,14,25,21,11,5,2021-08-07 12:39:28,217476
0,0,0,-2,1,0,1,-1,2021-08-07 12:39:28,217476
0,2,2,2,1,0,0,-1,2021-08-07 12:39:28,217476
-2,-1,-2,-1,0,0,0,-2,2021-08-07 12:39:28,232475
-2,-3,-3,-8,-16,-13,-6,-3,2021-08-07 12:39:28,232475
0,-2,-2,1,1,-2,-1,-2,2021-08-07 12:39:28,232475
2,3,1,4,5,6,3,3,2021-08-07 12:39:28,232475
0,0,0,-1,-1,-1,1,1,2021-08-07 12:39:28,232475
-2,1,3,1,0,-3,-1,0,2021-08-07 12:39:28,233480
-2,0,-2,-1,-1,1,-1,-1,2021-08-07 12:39:28,233480
-1,-1,0,-1,-3,-2,0,-1,2021-08-07 12:39:28,233480
-2,-5,-4,-2,3,3,0,-1,2021-08-07 12:39:28,264478
-1,-2,-2,0,-2,-3,-2,-2,2021-08-07 12:39:28,264478
3,4,3,3,0,-1,1,3,2021-08-07 12:39:28,264478
-1,-1,1,2,2,1,1,0,2021-08-07 12:39:28,265477
1,2,-3,0,6,5,1,3,2021-08-07 12:39:28,280478
-1,-2,-2,-1,0,-1,1,-1,2021-08-07 12:39:28,296473
-1,-1,0,0,-1,-2,-2,-1,2021-08-07 12:39:28,296473
-6,-8,-5,-6,-6,-6,-4,-5,2021-08-07 12:39:28,296473
-3,-2,-2,-8,-14,-8,-5,-1,2021-08-07 12:39:28,312475
5,6,9,16,20,14,6,5,2021-08-07 12:39:28,312475
-2,-1,-3,-4,-5,-2,-2,-3,2021-08-07 12:39:28,312475
4,7,4,3,2,2,2,2,2021-08-07 12:39:28,312475
-3,-4,-5,-1,-3,-3,-3,-2,2021-08-07 12:39:28,312475
-3,-5,-6,-9,-14,-8,-4,-3,2021-08-07 12:39:28,313477
1,0,1,0,-1,1,0,1,2021-08-07 12:39:28,328478
-2,-5,-4,-1,1,-2,-3,-1,2021-08-07 12:39:28,328478
2,2,2,0,2,2,1,0,2021-08-07 12:39:28,344478
-2,-2,-1,-4,-7,-5,-3,1,2021-08-07 12:39:28,344478
-2,-2,-2,1,3,2,2,-1,2021-08-07 12:39:28,344478
-1,-1,-1,-3,-4,-5,-4,-2,2021-08-07 12:39:28,345478
4,5,5,6,12,10,6,3,2021-08-07 12:39:28,345478
-2,-3,-4,-9,-8,-4,-4,-3,2021-08-07 12:39:28,345478
-3,-4,-4,-4,-3,-3,-3,-1,2021-08-07 12:39:28,346479
-4,-4,-6,-5,-5,-3,-3,-2,2021-08-07 12:39:28,346479
1,4,3,0,1,-1,0,0,2021-08-07 12:39:28,392475
-3,0,-4,-3,-6,-5,-4,-3,2021-08-07 12:39:28,392475
2,3,1,0,1,1,0,0,2021-08-07 12:39:28,392475
-1,-2,-2,-1,-2,0,-1,-3,2021-08-07 12:39:28,393477
-4,-4,-3,-2,-4,-5,-5,-2,2021-08-07 12:39:28,393477
0,0,-1,1,9,6,3,1,2021-08-07 12:39:28,393477
-3,-3,-4,-4,-4,-4,-2,-2,2021-08-07 12:39:28,404476
5,6,7,5,3,5,3,5,2021-08-07 12:39:28,404476
2,5,4,7,14,8,5,2,2021-08-07 12:39:28,404476
-2,-1,-2,-2,-4,-4,-3,-2,2021-08-07 12:39:28,405477
-2,-2,-1,-5,-6,-4,-3,-1,2021-08-07 12:39:28,405477
-2,-7,-4,1,5,2,0,-1,2021-08-07 12:39:28,424475
2,5,4,0,-2,1,1,2,2021-08-07 12:39:28,440475
-3,-5,-5,-5,-8,-8,-5,-3,2021-08-07 12:39:28,456474
3,4,3,6,13,7,4,2,2021-08-07 12:39:28,456474
-5,-7,-5,-7,-7,-5,-4,-4,2021-08-07 12:39:28,456474
1,2,2,1,-2,-1,0,-2,2021-08-07 12:39:28,456474
0,-1,0,-2,-4,-1,-1,0,2021-08-07 12:39:28,456474
0,0,0,1,-3,-2,0,-1,2021-08-07 12:39:28,457475
-1,0,0,-1,-2,-1,-1,-2,2021-08-07 12:39:28,457475
-4,-6,-7,-3,-3,-3,-2,-3,2021-08-07 12:39:28,472478
-2,-2,-1,-1,-2,-3,-1,-1,2021-08-07 12:39:28,472478
0,-2,0,-2,1,3,-1,1,2021-08-07 12:39:28,488475
2,1,1,2,3,3,1,2,2021-08-07 12:39:28,488475
-4,-5,-6,-8,-11,-8,-4,-4,2021-08-07 12:39:28,488475
2,5,5,0,-4,-4,-1,0,2021-08-07 12:39:28,488475
3,3,3,5,13,10,5,2,2021-08-07 12:39:28,488475
0,1,0,0,2,1,1,0,2021-08-07 12:39:28,489479
-2,-5,-3,-3,-1,-1,0,-3,2021-08-07 12:39:28,519477
-2,-2,-2,1,3,1,-2,-2,2021-08-07 12:39:28,519477
-2,-2,-4,-4,-12,-10,-5,-3,2021-08-07 12:39:28,519477
2,2,2,-3,-1,1,3,2,2021-08-07 12:39:28,535478
0,2,3,5,6,3,0,1,2021-08-07 12:39:28,535478
-1,-3,-5,-4,-10,-7,-4,-2,2021-08-07 12:39:28,551477
-3,-3,-3,-1,4,2,-2,-1,2021-08-07 12:39:28,566479
1,-1,-1,0,-2,-1,0,-1,2021-08-07 12:39:28,566479
2,3,4,4,5,3,1,1,2021-08-07 12:39:28,566479
0,1,0,-6,-5,0,1,1,2021-08-07 12:39:28,566479
-2,-2,-2,1,-1,-5,-2,-1,2021-08-07 12:39:28,566479
-1,-2,-2,0,0,-1,-1,-2,2021-08-07 12:39:28,567477
-1,0,0,3,6,0,1,-1,2021-08-07 12:39:28,582476
0,-1,-3,-2,-1,3,-1,-1,2021-08-07 12:39:28,582476
1,2,3,-1,-4,-3,-1,1,2021-08-07 12:39:28,582476
-2,-2,-2,0,-1,-2,-2,-3,2021-08-07 12:39:28,583478
-2,-6,-9,-6,-6,-3,-3,-2,2021-08-07 12:39:28,598475
2,5,7,7,7,4,3,2,2021-08-07 12:39:28,598475
1,3,-1,-4,-7,-2,-1,-1,2021-08-07 12:39:28,598475
-1,0,-1,3,7,3,0,-1,2021-08-07 12:39:28,614477
-5,-5,-6,-10,-18,-12,-7,-2,2021-08-07 12:39:28,614477
1,2,4,8,17,13,6,4,2021-08-07 12:39:28,614477
-2,-2,-1,-2,-3,-3,-1,-2,2021-08-07 12:39:28,614477
0,1,2,0,-2,-1,-1,1,2021-08-07 12:39:28,614477
-4,-5,-6,-7,-8,-7,-4,-4,2021-08-07 12:39:28,645475
0,0,1,5,11,8,2,1,2021-08-07 12:39:28,645475
-1,-1,1,2,-1,-1,-2,1,2021-08-07 12:39:28,645475
-3,-2,-2,-4,-2,-1,-2,-2,2021-08-07 12:39:28,645475
0,1,2,-1,-5,-5,-2,-1,2021-08-07 12:39:28,645475
-2,-4,-1,2,1,-1,-1,-1,2021-08-07 12:39:28,646474
1,1,1,5,11,8,4,1,2021-08-07 12:39:28,660477
-3,-1,-3,-4,-6,-5,-1,-2,2021-08-07 12:39:28,676475
0,-1,0,-2,-3,-2,-1,0,2021-08-07 12:39:28,692475
-1,-4,-7,-9,-12,-8,-3,-2,2021-08-07 12:39:28,692475
0,-1,-3,-3,-4,0,2,2,2021-08-07 12:39:28,692475
-1,-2,-2,3,14,9,3,1,2021-08-07 12:39:28,693479
1,3,4,3,5,4,1,1,2021-08-07 12:39:28,693479
-5,-3,-3,-2,-7,-7,-5,-3,2021-08-07 12:39:28,693479
-5,-4,-3,-4,-9,-8,-6,-6,2021-08-07 12:39:28,708475
2,5,4,-1,-3,-1,0,-1,2021-08-07 12:39:28,708475
1,0,1,2,4,2,0,1,2021-08-07 12:39:28,708475
-1,-1,-2,1,1,0,-4,-2,2021-08-07 12:39:28,708475
1,0,0,-2,-3,-3,-2,0,2021-08-07 12:39:28,709477
2,6,3,-2,-6,-4,-1,2,2021-08-07 12:39:28,709477
0,0,0,0,1,2,0,0,2021-08-07 12:39:28,740477
0,-1,-4,2,3,2,1,-2,2021-08-07 12:39:28,740477
1,1,0,1,-1,-1,-2,0,2021-08-07 12:39:28,740477
3,2,4,5,6,6,1,3,2021-08-07 12:39:28,740477
1,1,0,-1,-2,0,-2,0,2021-08-07 12:39:28,756478
-2,-1,-4,-6,-6,-6,-3,-2,2021-08-07 12:39:28,756478
0,-2,-1,-2,-1,0,1,-1,2021-08-07 12:39:28,756478
-2,-4,-3,-2,-2,-1,-2,-2,2021-08-07 12:39:28,756478
1,1,0,1,-3,-1,2,-2,2021-08-07 12:39:28,787478
2,-1,2,0,5,4,2,1,2021-08-07 12:39:28,803474
0,-1,-4,-1,-1,0,0,-2,2021-08-07 12:39:28,803474
0,0,1,-1,-7,-7,-2,0,2021-08-07 12:39:28,803474
-2,-2,2,5,13,7,3,0,2021-08-07 12:39:28,803474
-2,-2,-3,-5,-7,-7,-3,-1,2021-08-07 12:39:28,804484
1,0,1,1,-1,-2,-2,0,2021-08-07 12:39:28,804484
-2,-2,-3,-3,-3,-3,-2,-2,2021-08-07 12:39:28,804484
-1,-3,-1,0,-1,-2,-1,-2,2021-08-07 12:39:28,835477
-1,-3,-3,-3,-4,-3,-2,-1,2021-08-07 12:39:28,851476
2,4,5,3,5,6,4,3,2021-08-07 12:39:28,851476
-2,-4,-1,0,-2,-3,-3,-1,2021-08-07 12:39:28,851476
1,2,-1,1,-1,-1,-1,0,2021-08-07 12:39:28,867475
-1,-1,-3,-11,-15,-7,-3,0,2021-08-07 12:39:28,883477
-1,-3,0,2,3,1,0,0,2021-08-07 12:39:28,883477
1,2,3,8,14,8,3,1,2021-08-07 12:39:28,883477
0,0,0,-3,2,0,0,-1,2021-08-07 12:39:28,915474
0,0,1,0,-2,-4,-4,0,2021-08-07 12:39:28,915474
-3,-4,-4,-6,-7,-5,-3,-2,2021-08-07 12:39:28,915474
-4,-3,-2,-4,-6,-3,-2,-2,2021-08-07 12:39:28,915474
-3,-1,-1,-7,-5,-2,-2,-1,2021-08-07 12:39:28,915474
0,2,2,2,-3,-3,-3,-2,2021-08-07 12:39:28,916477
-2,-2,-3,0,3,4,0,-1,2021-08-07 12:39:28,916477
0,1,0,3,4,3,1,2,2021-08-07 12:39:28,916477
1,-1,-2,-1,-4,-4,-1,-1,2021-08-07 12:39:28,930474
0,0,0,1,1,0,1,-2,2021-08-07 12:39:28,930474
-1,1,0,-1,-4,-1,-1,-1,2021-08-07 12:39:28,962476
0,-1,-3,-4,-2,-2,-3,-1,2021-08-07 12:39:28,962476
-1,-2,-1,1,3,3,0,-1,2021-08-07 12:39:28,977476
-4,-3,-2,-1,-2,-1,-1,-1,2021-08-07 12:39:28,993477
2,5,5,4,1,-1,2,0,2021-08-07 12:39:28,993477
-2,-1,-1,-1,0,0,-1,-3,2021-08-07 12:39:28,993477
1,2,0,0,-1,-1,0,0,2021-08-07 12:39:28,993477
0,-1,-3,2,1,-1,-1,0,2021-08-07 12:39:28,994476
0,1,1,-1,3,5,2,1,2021-08-07 12:39:28,994476
-6,-7,-4,-7,-10,-9,-7,-4,2021-08-07 12:39:28,994476
0,0,0,3,6,7,3,1,2021-08-07 12:39:28,994476
5,8,8,8,11,8,7,4,2021-08-07 12:39:28,994476
-3,-3,-3,-6,-6,-5,-4,-4,2021-08-07 12:39:28,995475
-2,-3,-4,-2,-4,-3,-2,-3,2021-08-07 12:39:28,995475
-5,-8,-10,-5,-2,-2,-4,-3,2021-08-07 12:39:28,995475
5,7,7,5,3,3,2,4,2021-08-07 12:39:28,995475
-2,-2,-2,1,0,-2,-4,0,2021-08-07 12:39:28,995475
-2,-2,-2,-4,-4,-2,-1,-1,2021-08-07 12:39:28,996476
0,1,1,-2,-4,-2,-1,1,2021-08-07 12:39:28,996476
-3,-6,-7,-5,-1,-1,-2,-2,2021-08-07 12:39:28,996476
1,1,2,5,3,4,2,1,2021-08-07 12:39:29,009476
1,-2,-1,2,6,3,1,1,2021-08-07 12:39:29,009476
0,3,0,1,2,1,1,2,2021-08-07 12:39:29,025478
-2,-1,-1,-1,4,2,-1,-1,2021-08-07 12:39:29,025478
1,2,2,-1,0,-2,-1,0,2021-08-07 12:39:29,025478
-1,-2,-4,-3,-7,-3,0,-1,2021-08-07 12:39:29,025478
1,-1,0,1,0,0,-1,0,2021-08-07 12:39:29,041475
0,0,0,2,-1,1,0,-1,2021-08-07 12:39:29,041475
-4,-5,-7,-7,-6,-8,-4,-3,2021-08-07 12:39:29,041475
-1,0,-1,-3,-3,0,0,-1,2021-08-07 12:39:29,041475
-3,-3,-2,-4,-2,-4,-2,-2,2021-08-07 12:39:29,057475
-1,2,3,4,2,3,1,1,2021-08-07 12:39:29,057475
1,0,0,-1,1,1,2,1,2021-08-07 12:39:29,057475
0,-2,-3,-2,-1,-2,-1,-2,2021-08-07 12:39:29,057475
-1,-2,-2,-3,-6,-5,-3,-1,2021-08-07 12:39:29,073477
0,0,1,1,1,1,0,-1,2021-08-07 12:39:29,073477
-1,-2,-3,-2,-3,-4,-3,-1,2021-08-07 12:39:29,073477
-4,-7,-5,-7,-4,-2,-3,-3,2021-08-07 12:39:29,073477
4,5,5,4,3,1,1,3,2021-08-07 12:39:29,103475
-1,1,0,-1,2,1,1,0,2021-08-07 12:39:29,103475
-2,-1,-1,0,-1,0,-3,-2,2021-08-07 12:39:29,103475
-2,-2,-2,-2,-6,-3,-3,-4,2021-08-07 12:39:29,103475
-4,-6,-7,-4,-10,-8,-6,-6,2021-08-07 12:39:29,119476
0,-2,-2,-3,-1,-1,0,-1,2021-08-07 12:39:29,119476
2,0,1,2,4,2,1,0,2021-08-07 12:39:29,135477
1,2,1,3,5,1,2,3,2021-08-07 12:39:29,135477
-2,-4,-4,-2,-2,0,-2,-2,2021-08-07 12:39:29,135477
0,0,-2,-1,-1,-2,-2,0,2021-08-07 12:39:29,135477
-2,-2,-1,-3,-6,-4,-1,0,2021-08-07 12:39:29,135477
1,2,1,2,2,2,-1,-1,2021-08-07 12:39:29,136478
0,-1,-1,-1,-2,-2,0,-2,2021-08-07 12:39:29,167478
0,-2,-2,-6,-7,-3,-2,-3,2021-08-07 12:39:29,183474
3,4,4,9,8,3,1,2,2021-08-07 12:39:29,183474
0,0,0,-2,1,2,3,2,2021-08-07 12:39:29,183474
0,0,-2,-2,-8,-5,-2,-2,2021-08-07 12:39:29,183474
-3,-5,-5,-7,-5,-5,-3,-3,2021-08-07 12:39:29,183474
1,0,0,5,9,8,3,1,2021-08-07 12:39:29,199475
3,5,5,5,5,2,2,2,2021-08-07 12:39:29,199475
0,-2,1,5,9,6,2,0,2021-08-07 12:39:29,199475
-3,-2,-1,-3,-5,-3,-3,-1,2021-08-07 12:39:29,199475
-5,-3,-3,-9,-14,-11,-5,-3,2021-08-07 12:39:29,200478
-1,-1,-2,-2,-3,-2,-3,0,2021-08-07 12:39:29,215478
-1,1,3,-1,2,0,0,0,2021-08-07 12:39:29,231477
1,-1,-1,6,11,9,4,1,2021-08-07 12:39:29,231477
2,1,0,-1,2,1,0,1,2021-08-07 12:39:29,247480
-1,-1,0,0,1,-2,-2,-2,2021-08-07 12:39:29,263478
0,1,-2,-2,-1,0,0,0,2021-08-07 12:39:29,263478
0,0,1,2,1,1,2,0,2021-08-07 12:39:29,263478
1,0,-1,1,-1,1,1,0,2021-08-07 12:39:29,263478
-2,-2,-1,2,3,1,-1,-1,2021-08-07 12:39:29,264477
0,0,0,-3,-4,-3,0,1,2021-08-07 12:39:29,279477
-3,-4,-4,-5,-5,-4,-3,-2,2021-08-07 12:39:29,295475
1,-2,-2,-4,-2,-1,-1,-1,2021-08-07 12:39:29,311477
1,2,1,5,2,0,-1,0,2021-08-07 12:39:29,311477
-2,-1,1,2,4,0,1,0,2021-08-07 12:39:29,311477
0,1,2,4,5,2,2,1,2021-08-07 12:39:29,312478
-4,-2,-2,-3,-6,-6,-3,-4,2021-08-07 12:39:29,312478
-1,0,-2,-7,-11,-6,-4,-1,2021-08-07 12:39:29,312478
1,2,-1,-1,0,0,-1,0,2021-08-07 12:39:29,327476
0,0,1,7,12,8,5,0,2021-08-07 12:39:29,327476
2,-2,0,2,7,9,10,5,2021-08-07 12:39:29,343477
1,-3,-2,3,7,7,0,-1,2021-08-07 12:39:29,359477
0,6,7,1,-3,-12,-13,-7,2021-08-07 12:39:29,375476
0,-3,-3,-5,-10,-7,-1,1,2021-08-07 12:39:29,391478
-2,-7,-8,-3,4,2,1,0,2021-08-07 12:39:29,407474
5,13,11,5,-3,-3,1,0,2021-08-07 12:39:29,438476
-4,-3,-1,2,7,7,6,0,2021-08-07 12:39:29,438476
4,4,4,0,-1,0,-2,0,2021-08-07 12:39:29,438476
-7,-6,-6,-9,-17,-18,-17,-11,2021-08-07 12:39:29,438476
-6,-6,-7,-6,-2,-4,-3,-3,2021-08-07 12:39:29,439475
2,-1,-1,-2,-1,3,4,0,2021-08-07 12:39:29,439475
-1,1,-1,-5,-10,-6,-1,0,2021-08-07 12:39:29,439475
-5,-9,-9,-21,-35,-19,-7,-3,2021-08-07 12:39:29,439475
7,7,11,28,58,44,26,12,2021-08-07 12:39:29,439475
3,2,0,5,9,7,4,3,2021-08-07 12:39:29,440477
-8,-10,-9,-2,6,-4,-4,-5,2021-08-07 12:39:29,440477
7,12,10,0,-8,-6,-1,4,2021-08-07 12:39:29,440477
-1,-2,-3,-11,-23,-18,-12,-9,2021-08-07 12:39:29,440477
-15,-11,-9,-6,-13,-12,-14,-15,2021-08-07 12:39:29,440477
-1,-4,-3,-4,-5,-1,-3,-2,2021-08-07 12:39:29,440477
-2,0,0,6,13,7,1,-1,2021-08-07 12:39:29,441476
0,-1,1,1,1,0,3,2,2021-08-07 12:39:29,453477
10,6,4,3,8,10,12,10,2021-08-07 12:39:29,453477
-4,-1,-2,-5,-15,-11,-7,-6,2021-08-07 12:39:29,469475
-3,-4,-4,-4,-6,-5,-5,-4,2021-08-07 12:39:29,485476
-1,1,1,4,10,8,2,2,2021-08-07 12:39:29,501479
-4,-6,-4,-4,-6,-6,-7,-3,2021-08-07 12:39:29,533475
1,4,4,8,8,6,1,2,2021-08-07 12:39:29,533475
0,1,-3,-6,-5,-2,2,-1,2021-08-07 12:39:29,533475
-6,-9,-8,-9,-25,-20,-10,-5,2021-08-07 12:39:29,533475
1,1,1,-1,0,0,0,2,2021-08-07 12:39:29,533475
5,4,6,14,24,20,12,4,2021-08-07 12:39:29,534479
-1,-4,-4,1,8,2,1,-1,2021-08-07 12:39:29,534479
-1,-2,-2,-8,-16,-11,-5,-2,2021-08-07 12:39:29,534479
-4,-3,-4,-10,-20,-13,-8,-5,2021-08-07 12:39:29,535479
-2,-2,0,1,1,2,0,-1,2021-08-07 12:39:29,535479
-2,-2,-1,4,8,4,-1,-2,2021-08-07 12:39:29,549475
-2,-2,0,-1,-2,-3,-2,-2,2021-08-07 12:39:29,565477
4,4,5,3,2,1,5,5,2021-08-07 12:39:29,580479
1,-1,0,-2,0,-2,-2,-1,2021-08-07 12:39:29,580479
-2,1,1,-4,-12,-9,-5,-2,2021-08-07 12:39:29,580479
1,0,1,7,14,12,7,0,2021-08-07 12:39:29,580479
3,0,-3,1,6,6,4,4,2021-08-07 12:39:29,596474
2,7,6,2,2,1,3,3,2021-08-07 12:39:29,596474
-4,-3,-1,-4,-10,-9,-5,-4,2021-08-07 12:39:29,596474
-5,-8,-4,-9,-25,-18,-9,-5,2021-08-07 12:39:29,596474
4,7,6,14,34,20,10,5,2021-08-07 12:39:29,597478
1,2,-1,7,13,9,5,0,2021-08-07 12:39:29,597478
1,0,3,5,7,4,1,-1,2021-08-07 12:39:29,597478
-2,-1,-4,-10,-7,-7,-4,0,2021-08-07 12:39:29,597478
-3,-5,-3,-6,-12,-6,-4,-3,2021-08-07 12:39:29,598475
-1,-3,-2,-5,-4,-2,-2,1,2021-08-07 12:39:29,598475
2,2,1,-1,-1,1,2,2,2021-08-07 12:39:29,598475
-6,-4,-3,3,11,7,0,-6,2021-08-07 12:39:29,598475
-1,-2,0,3,-4,-1,0,-1,2021-08-07 12:39:29,598475
5,7,5,-2,-6,1,5,5,2021-08-07 12:39:29,598475
0,-2,-1,4,6,1,-4,-1,2021-08-07 12:39:29,599474
-2,4,-1,-13,-25,-20,-11,-4,2021-08-07 12:39:29,599474
-10,-5,-1,-2,-1,-3,-8,-10,2021-08-07 12:39:29,599474
3,0,-2,-5,-11,-4,1,4,2021-08-07 12:39:29,599474
0,-3,-3,0,8,5,3,2,2021-08-07 12:39:29,599474
2,-2,-2,-3,-1,1,2,2,2021-08-07 12:39:29,600476
3,4,2,11,22,12,4,2,2021-08-07 12:39:29,627477
-3,1,-1,-3,-8,-7,-2,-3,2021-08-07 12:39:29,643477
4,5,7,12,21,17,9,4,2021-08-07 12:39:29,643477
-2,-5,-5,-12,-16,-12,-5,-4,2021-08-07 12:39:29,643477
-4,-4,-3,-5,-18,-14,-7,-4,2021-08-07 12:39:29,644478
-3,-7,-6,-7,-8,-11,-6,-3,2021-08-07 12:39:29,644478
-1,0,1,3,4,3,-1,0,2021-08-07 12:39:29,644478
-1,-3,-5,-1,9,7,4,0,2021-08-07 12:39:29,644478
1,1,1,-5,-10,-7,0,2,2021-08-07 12:39:29,659476
4,6,5,15,29,19,9,4,2021-08-07 12:39:29,659476
-8,-7,-7,-10,-19,-16,-10,-8,2021-08-07 12:39:29,659476
4,3,4,-3,-3,1,2,3,2021-08-07 12:39:29,659476
4,2,0,1,7,6,5,3,2021-08-07 12:39:29,691473
-1,-3,-2,-5,-13,-11,-7,-4,2021-08-07 12:39:29,691473
-5,-4,-6,-10,-18,-14,-5,-6,2021-08-07 12:39:29,691473
-5,-4,-3,3,10,9,2,-2,2021-08-07 12:39:29,691473
-1,-4,-3,1,2,-5,-4,-2,2021-08-07 12:39:29,692484
0,0,1,-6,-11,-3,-2,-1,2021-08-07 12:39:29,692484
2,4,5,14,28,17,8,3,2021-08-07 12:39:29,706475
-3,-2,-2,-4,-21,-17,-9,-2,2021-08-07 12:39:29,722476
-2,-4,-3,-2,-8,-3,-1,-2,2021-08-07 12:39:29,722476
-1,2,2,6,5,2,1,0,2021-08-07 12:39:29,722476
-1,-2,-4,-8,-3,1,2,-1,2021-08-07 12:39:29,738474
-1,-2,-2,-1,22,15,3,1,2021-08-07 12:39:29,738474
2,3,3,3,-1,-5,-1,0,2021-08-07 12:39:29,738474
-1,-1,-2,4,10,2,-2,-1,2021-08-07 12:39:29,738474
1,2,1,1,-8,-4,-2,1,2021-08-07 12:39:29,739476
-3,0,1,2,-3,-3,0,-1,2021-08-07 12:39:29,739476
-4,-4,-6,-8,-11,-7,-2,-2,2021-08-07 12:39:29,753477
-3,-5,-4,-9,-13,-10,-6,-5,2021-08-07 12:39:29,753477
0,-1,0,1,3,4,1,0,2021-08-07 12:39:29,766478
1,1,0,8,17,11,5,3,2021-08-07 12:39:29,766478
3,4,5,1,-1,3,2,1,2021-08-07 12:39:29,785477
0,0,0,-3,-7,-5,-2,0,2021-08-07 12:39:29,785477
0,4,3,-3,-6,-5,-2,0,2021-08-07 12:39:29,785477
2,0,-2,-5,0,2,2,1,2021-08-07 12:39:29,785477
-2,-3,-5,4,6,6,1,1,2021-08-07 12:39:29,817476
0,2,3,1,6,7,2,2,2021-08-07 12:39:29,817476
0,0,0,2,0,-2,0,-1,2021-08-07 12:39:29,817476
-4,-3,-5,-10,-28,-22,-10,-6,2021-08-07 12:39:29,833476
3,1,3,5,13,14,7,2,2021-08-07 12:39:29,849475
-3,-4,-3,1,2,-3,-3,-3,2021-08-07 12:39:29,865478
-1,-3,-3,-2,3,2,1,0,2021-08-07 12:39:29,881478
-1,-1,-1,-1,-7,1,-1,-2,2021-08-07 12:39:29,897475
-2,-5,-6,-10,-13,-12,-7,-4,2021-08-07 12:39:29,912473
-1,0,-1,1,6,2,0,0,2021-08-07 12:39:29,912473
3,4,5,2,4,5,3,2,2021-08-07 12:39:29,912473
-1,1,-1,2,-3,-4,-4,-2,2021-08-07 12:39:29,912473
-3,-5,-7,-8,-8,-4,-5,-5,2021-08-07 12:39:29,928476
0,1,1,3,1,2,1,1,2021-08-07 12:39:29,928476
-1,-2,0,6,11,3,1,-1,2021-08-07 12:39:29,928476
2,2,2,1,2,2,1,2,2021-08-07 12:39:29,928476
1,2,2,0,-1,-1,-3,2,2021-08-07 12:39:29,929479
-2,-6,-5,-9,-12,-10,-5,-3,2021-08-07 12:39:29,929479
3,4,3,1,1,6,2,3,2021-08-07 12:39:29,929479
-4,-6,-4,-5,-10,-8,-5,-5,2021-08-07 12:39:29,929479
3,3,2,4,13,9,6,4,2021-08-07 12:39:29,929479
-1,1,1,-1,-1,-2,-1,-2,2021-08-07 12:39:29,930477
-5,-5,-5,-4,-8,-6,-6,-3,2021-08-07 12:39:29,930477
0,1,-1,2,2,0,1,1,2021-08-07 12:39:29,930477
-3,1,-1,-7,-11,-7,-3,-2,2021-08-07 12:39:29,944477
-4,-3,-6,-4,-6,-5,-3,-2,2021-08-07 12:39:29,944477
-1,-3,0,1,-1,0,0,-1,2021-08-07 12:39:29,944477
-2,-1,0,2,13,4,2,-1,2021-08-07 12:39:29,944477
1,0,2,3,2,-1,0,0,2021-08-07 12:39:29,945477
-1,0,-1,2,-1,-1,1,0,2021-08-07 12:39:29,945477
-2,0,-3,-1,-2,-4,-3,-1,2021-08-07 12:39:29,945477
1,2,1,-2,-2,-1,-1,1,2021-08-07 12:39:29,945477
1,2,2,0,6,6,3,2,2021-08-07 12:39:29,960477
1,2,3,5,10,5,1,0,2021-08-07 12:39:29,960477
0,-2,-1,-5,-6,-3,-1,-3,2021-08-07 12:39:29,960477
-3,-6,-5,0,-1,-4,-2,-1,2021-08-07 12:39:29,960477
-2,-6,-7,-10,-16,-9,-4,-3,2021-08-07 12:39:29,992474
5,9,10,11,15,15,7,5,2021-08-07 12:39:29,992474
0,-2,-1,0,-3,-4,-2,-2,2021-08-07 12:39:29,992474
5,7,8,10,15,12,6,5,2021-08-07 12:39:29,993475
-3,-3,-2,-1,2,-5,-4,-2,2021-08-07 12:39:29,993475
-6,-9,-10,-16,-20,-13,-8,-4,2021-08-07 12:39:30,008477
0,-3,-3,0,-2,0,-3,-2,2021-08-07 12:39:30,024474
-1,0,0,0,-5,-3,-2,0,2021-08-07 12:39:30,024474
-3,-5,-4,-10,-21,-14,-6,-4,2021-08-07 12:39:30,024474
3,4,3,14,33,24,11,3,2021-08-07 12:39:30,024474
2,4,2,-3,-4,-2,1,2,2021-08-07 12:39:30,024474
2,3,2,5,10,6,3,3,2021-08-07 12:39:30,025477
-3,-3,-3,-5,-16,-11,-6,-4,2021-08-07 12:39:30,040476
-5,-7,-8,-7,-10,-10,-8,-5,2021-08-07 12:39:30,056475
6,7,7,12,21,16,9,8,2021-08-07 12:39:30,056475
0,1,-1,-6,-13,-8,-3,-2,2021-08-07 12:39:30,056475
2,2,1,4,5,4,1,1,2021-08-07 12:39:30,056475
-1,-5,-3,-3,-10,-7,-5,-2,2021-08-07 12:39:30,057476
-5,-5,-4,-3,0,-1,-1,-3,2021-08-07 12:39:30,057476
-4,-5,-4,1,3,1,-1,-2,2021-08-07 12:39:30,057476
5,7,5,9,18,13,8,5,2021-08-07 12:39:30,072476
-5,-5,-8,-17,-25,-18,-8,-6,2021-08-07 12:39:30,072476
0,0,0,-5,-6,-4,-3,-1,2021-08-07 12:39:30,072476
0,2,2,3,13,7,4,0,2021-08-07 12:39:30,072476
-3,-2,-2,3,5,2,-1,-2,2021-08-07 12:39:30,103475
-2,-3,-4,-2,-3,-4,-4,-1,2021-08-07 12:39:30,103475
0,-1,-1,-8,-10,-7,-3,-1,2021-08-07 12:39:30,119476
-1,-3,0,3,7,3,-1,-1,2021-08-07 12:39:30,119476
1,2,4,2,1,1,0,1,2021-08-07 12:39:30,119476
-1,0,-1,-4,-6,-6,-2,-1,2021-08-07 12:39:30,135477
-1,-1,-1,1,2,0,0,-1,2021-08-07 12:39:30,135477
-3,-4,-4,-3,-8,-5,-4,-4,2021-08-07 12:39:30,135477
3,2,1,1,2,4,2,2,2021-08-07 12:39:30,135477
0,-2,1,6,12,5,1,1,2021-08-07 12:39:30,135477
-8,-9,-8,-12,-18,-12,-8,-7,2021-08-07 12:39:30,136475
-2,-3,-7,-5,-9,-7,-3,-1,2021-08-07 12:39:30,136475
7,16,18,24,32,23,13,10,2021-08-07 12:39:30,167475
-1,-1,-1,0,-6,-7,-2,-2,2021-08-07 12:39:30,167475
1,3,4,7,10,5,3,0,2021-08-07 12:39:30,183477
-4,-5,-7,-17,-21,-12,-7,-5,2021-08-07 12:39:30,183477
-4,-7,-8,-12,-14,-7,-5,-2,2021-08-07 12:39:30,183477
-2,-3,-4,-10,-5,1,-2,0,2021-08-07 12:39:30,199474
0,0,0,2,-6,-7,-2,-2,2021-08-07 12:39:30,214478
1,2,3,7,12,8,3,3,2021-08-07 12:39:30,214478
-1,-1,-3,-3,-4,-4,-4,-1,2021-08-07 12:39:30,214478
6,3,5,8,11,10,7,3,2021-08-07 12:39:30,214478
-1,-4,-3,-4,-3,-5,-5,-4,2021-08-07 12:39:30,214478
5,7,7,8,15,12,9,4,2021-08-07 12:39:30,215476
-5,-5,-6,-6,-6,-8,-5,-6,2021-08-07 12:39:30,215476
-6,-5,-7,-8,-18,-12,-7,-5,2021-08-07 12:39:30,215476
0,3,1,0,3,1,1,1,2021-08-07 12:39:30,215476
-1,-1,0,-2,-5,-2,-1,-2,2021-08-07 12:39:30,215476
2,3,4,10,18,10,5,2,2021-08-07 12:39:30,245477
0,-1,0,1,-6,-5,-3,-2,2021-08-07 12:39:30,261475
1,-1,-5,-4,0,2,0,1,2021-08-07 12:39:30,277477
-3,-3,-2,-7,-9,-9,-5,-4,2021-08-07 12:39:30,277477
-3,-6,-6,-9,-15,-10,-5,-4,2021-08-07 12:39:30,293476
-1,-4,-6,-1,5,3,1,-1,2021-08-07 12:39:30,325476
3,7,9,10,10,10,6,5,2021-08-07 12:39:30,341473
3,4,2,4,4,2,1,3,2021-08-07 12:39:30,341473
1,2,0,-6,-13,-6,-3,-1,2021-08-07 12:39:30,341473
-2,-1,0,1,-1,-4,-3,-1,2021-08-07 12:39:30,341473
1,0,-1,0,2,2,1,1,2021-08-07 12:39:30,341473
0,0,2,1,4,3,2,1,2021-08-07 12:39:30,342478
-4,-3,-4,-6,-9,-7,-4,-3,2021-08-07 12:39:30,357475
3,7,8,12,20,14,8,4,2021-08-07 12:39:30,373475
-5,-6,-6,-6,-13,-10,-4,-5,2021-08-07 12:39:30,389477
0,0,-3,4,13,4,1,0,2021-08-07 12:39:30,404475
-3,-7,-7,-16,-16,-12,-6,-3,2021-08-07 12:39:30,420475
2,4,4,3,2,2,1,3,2021-08-07 12:39:30,420475
-4,-6,-7,-10,-16,-10,-7,-2,2021-08-07 12:39:30,420475
1,1,2,5,3,2,1,-1,2021-08-07 12:39:30,420475
2,1,4,8,12,8,5,1,2021-08-07 12:39:30,420475
-2,-1,-5,-2,0,-1,-1,-2,2021-08-07 12:39:30,435479
-2,-2,-2,0,1,-1,-1,-2,2021-08-07 12:39:30,451475
-6,-8,-10,-12,-13,-8,-6,-5,2021-08-07 12:39:30,451475
1,5,5,3,5,0,2,1,2021-08-07 12:39:30,451475
0,0,2,0,-2,1,2,2,2021-08-07 12:39:30,451475
-1,1,-1,2,1,-2,-1,0,2021-08-07 12:39:30,453476
-1,-2,-2,-10,-8,-5,-2,-2,2021-08-07 12:39:30,453476
-4,-5,-6,1,2,-3,-1,-4,2021-08-07 12:39:30,453476
5,8,8,17,25,14,6,4,2021-08-07 12:39:30,454477
-3,-3,-2,-5,-4,-5,-5,-3,2021-08-07 12:39:30,454477
-3,-4,-6,-7,-18,-13,-8,-3,2021-08-07 12:39:30,454477
-4,-8,-6,-2,-3,-1,-4,-2,2021-08-07 12:39:30,454477
6,8,7,9,9,8,6,5,2021-08-07 12:39:30,455479
-1,-1,-3,-3,8,2,1,-2,2021-08-07 12:39:30,455479
1,3,3,4,1,-1,1,2,2021-08-07 12:39:30,455479
-3,-3,-4,-8,-13,-6,-6,-4,2021-08-07 12:39:30,455479
1,-1,-1,3,8,4,1,-2,2021-08-07 12:39:30,455479
-1,-3,-1,-2,-8,-5,-4,-2,2021-08-07 12:39:30,456477
2,0,-2,-5,-1,3,2,3,2021-08-07 12:39:30,456477
0,1,-2,-2,-2,-2,0,2,2021-08-07 12:39:30,483475
-5,-9,-7,-10,-15,-9,-5,-5,2021-08-07 12:39:30,483475
2,7,10,11,11,10,5,2,2021-08-07 12:39:30,483475
-2,0,2,7,14,8,2,-2,2021-08-07 12:39:30,483475
-1,0,1,4,9,6,3,-2,2021-08-07 12:39:30,499475
-1,-4,-4,-17,-24,-15,-10,-6,2021-08-07 12:39:30,499475
1,-1,0,2,-2,-4,-2,-1,2021-08-07 12:39:30,515475
2,3,1,3,1,-1,-1,1,2021-08-07 12:39:30,515475
1,-2,-1,3,-4,-3,-3,0,2021-08-07 12:39:30,515475
0,1,-1,-2,9,5,3,0,2021-08-07 12:39:30,516477
-1,-3,-5,-10,-7,-3,0,-1,2021-08-07 12:39:30,530476
1,3,2,1,-3,-1,-1,1,2021-08-07 12:39:30,546476
1,1,0,2,7,2,1,1,2021-08-07 12:39:30,562477
-2,-2,-1,-4,-5,-4,-2,-1,2021-08-07 12:39:30,578475
-3,-6,-7,-1,-9,-2,-2,-2,2021-08-07 12:39:30,578475
2,0,5,6,14,9,4,2,2021-08-07 12:39:30,594475
3,2,2,7,7,3,2,1,2021-08-07 12:39:30,610477
1,4,3,-1,-4,-4,-1,-1,2021-08-07 12:39:30,610477
-4,-4,-6,-10,-16,-12,-7,-4,2021-08-07 12:39:30,626477
-3,-6,-9,-2,-3,2,-2,-2,2021-08-07 12:39:30,626477
2,3,3,-5,6,5,5,3,2021-08-07 12:39:30,626477
-5,-5,-6,-10,-16,-11,-6,-3,2021-08-07 12:39:30,626477
4,8,10,11,18,9,6,4,2021-08-07 12:39:30,627475
4,5,7,16,19,12,9,4,2021-08-07 12:39:30,627475
-3,-2,-3,0,0,-1,-2,-2,2021-08-07 12:39:30,627475
-1,-2,-5,1,2,1,-1,-1,2021-08-07 12:39:30,642475
0,0,2,2,2,-1,0,0,2021-08-07 12:39:30,657478
-3,-4,-7,-14,-15,-11,-6,-3,2021-08-07 12:39:30,673477
-1,-1,-2,-9,-9,-3,-3,-2,2021-08-07 12:39:30,673477
-1,0,1,1,4,2,0,0,2021-08-07 12:39:30,673477
-3,-4,-2,1,1,-1,-2,-3,2021-08-07 12:39:30,689475
-1,2,2,2,-6,-5,-4,-2,2021-08-07 12:39:30,689475
0,2,1,-2,-3,-3,-1,-1,2021-08-07 12:39:30,689475
-2,-4,-4,-5,1,1,1,-2,2021-08-07 12:39:30,705477
0,-2,-1,3,9,9,2,1,2021-08-07 12:39:30,721474
-3,-3,-5,-5,-9,-8,-5,-3,2021-08-07 12:39:30,721474
-1,-1,-1,-5,-18,-11,-8,-4,2021-08-07 12:39:30,721474
3,5,7,13,13,9,5,3,2021-08-07 12:39:30,721474
-1,-4,-7,-7,3,2,0,-4,2021-08-07 12:39:30,737476
5,4,4,-1,-5,-4,1,2,2021-08-07 12:39:30,737476
-1,-1,-2,3,1,-2,-1,-1,2021-08-07 12:39:30,737476
-2,-1,-3,-6,-13,-7,-3,-2,2021-08-07 12:39:30,737476
-4,-6,-2,-11,-10,-7,-6,-2,2021-08-07 12:39:30,738477
-4,-3,0,-4,-3,-1,-4,-2,2021-08-07 12:39:30,752475
0,0,-6,7,6,1,3,1,2021-08-07 12:39:30,767475
2,0,1,9,17,12,5,2,2021-08-07 12:39:30,767475
4,5,3,6,8,6,4,3,2021-08-07 12:39:30,767475
-2,-2,0,-1,-4,-4,-3,-2,2021-08-07 12:39:30,767475
-3,-2,-1,-8,-16,-11,-6,-4,2021-08-07 12:39:30,783475
-3,-3,-4,-5,-9,-5,-4,-2,2021-08-07 12:39:30,783475
0,2,5,6,17,10,3,1,2021-08-07 12:39:30,783475
-2,-3,-2,-4,-6,-4,-3,-2,2021-08-07 12:39:30,783475
-2,-2,-1,1,6,8,3,-1,2021-08-07 12:39:30,784476
-1,-1,-3,-13,-16,-11,-5,-3,2021-08-07 12:39:30,784476
-3,-2,-2,5,-1,-3,-1,-1,2021-08-07 12:39:30,784476
2,3,2,1,5,4,4,3,2021-08-07 12:39:30,784476
0,0,-1,2,8,3,0,0,2021-08-07 12:39:30,785478
-3,-6,-4,-9,-16,-10,-5,-5,2021-08-07 12:39:30,785478
-1,-1,-2,-1,-5,-5,-2,-2,2021-08-07 12:39:30,785478
-1,-4,-3,4,3,2,-1,-2,2021-08-07 12:39:30,785478
-3,-3,-3,-8,-7,-3,-3,-3,2021-08-07 12:39:30,785478
2,2,2,12,11,6,3,2,2021-08-07 12:39:30,799475
1,1,-2,-3,-5,-1,1,2,2021-08-07 12:39:30,799475
2,2,1,-1,6,2,2,2,2021-08-07 12:39:30,799475
4,3,5,10,16,13,7,2,2021-08-07 12:39:30,815477
-4,-4,-2,-2,-2,-5,-3,-2,2021-08-07 12:39:30,815477
-5,-4,-5,-7,-19,-14,-9,-6,2021-08-07 12:39:30,815477
-2,-2,-5,0,-7,-5,-2,-2,2021-08-07 12:39:30,816477
0,-3,0,2,2,2,0,-1,2021-08-07 12:39:30,816477
2,4,0,-3,3,3,1,1,2021-08-07 12:39:30,816477
2,1,-4,-4,3,3,0,1,2021-08-07 12:39:30,816477
0,4,6,1,5,4,1,1,2021-08-07 12:39:30,816477
-2,1,-1,-2,-8,-9,-3,0,2021-08-07 12:39:30,817476
-4,-5,-5,-1,-3,-3,-4,-3,2021-08-07 12:39:30,817476
2,0,1,-3,-6,-4,-3,-1,2021-08-07 12:39:30,817476
-4,-5,-5,-6,-13,-5,-4,-4,2021-08-07 12:39:30,817476
7,7,9,22,34,18,9,5,2021-08-07 12:39:30,817476
-1,-1,-3,2,0,-1,-1,0,2021-08-07 12:39:30,818478
0,-2,-2,-7,-2,-2,-1,-1,2021-08-07 12:39:30,818478
-10,-12,-13,-32,-35,-21,-11,-8,2021-08-07 12:39:30,831475
2,4,8,6,4,1,1,1,2021-08-07 12:39:30,847477
3,4,5,13,19,15,6,4,2021-08-07 12:39:30,863476
0,0,-2,6,9,4,3,-1,2021-08-07 12:39:30,863476
3,6,6,8,9,6,5,4,2021-08-07 12:39:30,879474
-4,-7,-7,-9,-10,-10,-4,-4,2021-08-07 12:39:30,894476
-3,-1,-1,-11,-18,-9,-6,-3,2021-08-07 12:39:30,910479
0,0,0,8,12,6,2,2,2021-08-07 12:39:30,910479
1,-2,-2,1,-4,-3,-2,-3,2021-08-07 12:39:30,910479
0,1,-3,-1,4,5,4,2,2021-08-07 12:39:30,910479
5,8,9,4,1,0,2,4,2021-08-07 12:39:30,910479
0,-1,-1,5,9,6,3,0,2021-08-07 12:39:30,911475
-1,-1,-1,0,5,0,-3,-3,2021-08-07 12:39:30,911475
-4,-3,-3,-10,-21,-14,-8,-4,2021-08-07 12:39:30,911475
-4,-6,-5,-5,0,1,-1,-2,2021-08-07 12:39:30,911475
-4,-6,-1,-2,-9,-5,-5,-4,2021-08-07 12:39:30,911475
6,11,7,8,4,0,4,4,2021-08-07 12:39:30,911475
0,-3,-5,-4,1,3,0,-1,2021-08-07 12:39:30,912475
-3,-5,-5,-19,-18,-13,-7,-4,2021-08-07 12:39:30,912475
-3,-2,-1,-2,0,1,0,-1,2021-08-07 12:39:30,925475
-2,-2,-1,6,11,6,3,-1,2021-08-07 12:39:30,925475
-1,1,-1,2,-5,-6,-2,0,2021-08-07 12:39:30,940479
-3,-6,-5,0,-1,0,-2,-4,2021-08-07 12:39:30,940479
9,12,11,7,17,11,6,6,2021-08-07 12:39:30,956478
-3,-5,-6,-7,-9,-5,-5,-2,2021-08-07 12:39:30,956478
0,2,1,0,-2,1,0,3,2021-08-07 12:39:30,972475
-4,-6,-6,-4,-8,-8,-4,-5,2021-08-07 12:39:30,988475
-4,-7,-6,-2,-6,-3,-3,-3,2021-08-07 12:39:31,004473
1,2,2,-1,-3,2,1,1,2021-08-07 12:39:31,004473
3,2,3,0,4,6,2,3,2021-08-07 12:39:31,004473
6,8,10,26,40,23,12,6,2021-08-07 12:39:31,020475
-4,0,-3,-3,-15,-10,-6,-3,2021-08-07 12:39:31,035475
1,-1,-1,-3,1,-2,1,1,2021-08-07 12:39:31,035475
-7,-9,-10,-16,-26,-19,-11,-6,2021-08-07 12:39:31,035475
-2,-4,-4,-10,-14,-6,-5,-3,2021-08-07 12:39:31,051476
-1,-1,1,4,2,-1,-3,-2,2021-08-07 12:39:31,067473
0,1,3,13,11,4,0,0,2021-08-07 12:39:31,083476
5,6,5,10,32,22,12,6,2021-08-07 12:39:31,083476
-2,2,0,-12,-7,-3,-2,0,2021-08-07 12:39:31,083476
-6,-9,-10,-15,-14,-10,-7,-6,2021-08-07 12:39:31,083476
1,1,2,-3,-7,-2,-2,-1,2021-08-07 12:39:31,084477
-5,-6,-4,-2,-5,-6,-4,-2,2021-08-07 12:39:31,084477
3,0,2,5,4,0,2,1,2021-08-07 12:39:31,084477
4,8,9,4,11,7,4,3,2021-08-07 12:39:31,084477
2,2,2,10,15,9,4,1,2021-08-07 12:39:31,084477
0,1,1,-1,-7,-4,0,-1,2021-08-07 12:39:31,085477
-3,-5,-2,4,5,1,-1,-1,2021-08-07 12:39:31,085477
-4,-7,-6,-11,-20,-14,-6,-3,2021-08-07 12:39:31,085477
2,-1,-1,3,10,6,3,3,2021-08-07 12:39:31,085477
-1,0,3,4,12,7,1,-1,2021-08-07 12:39:31,085477
-3,-3,0,2,-2,-2,0,-2,2021-08-07 12:39:31,099477
2,3,1,5,0,0,-1,0,2021-08-07 12:39:31,099477
-2,-2,-4,-9,-5,-3,-1,-2,2021-08-07 12:39:31,099477
-3,-7,-7,-12,-10,-5,-4,-3,2021-08-07 12:39:31,099477
-1,-1,-2,-6,-6,-5,-3,-1,2021-08-07 12:39:31,100475
-2,-2,-1,1,2,1,1,0,2021-08-07 12:39:31,100475
-1,-4,-3,2,-10,-5,-4,-1,2021-08-07 12:39:31,100475
1,0,2,7,26,12,4,1,2021-08-07 12:39:31,130476
2,8,7,10,13,13,6,4,2021-08-07 12:39:31,131477
1,6,3,2,0,0,1,-2,2021-08-07 12:39:31,131477
-5,-7,-7,-10,-16,-12,-7,-5,2021-08-07 12:39:31,131477
-5,-5,0,-8,-17,-11,-4,-3,2021-08-07 12:39:31,163531
-3,-6,-4,-5,-7,-5,-4,-2,2021-08-07 12:39:31,163531
0,0,-7,1,5,4,3,3,2021-08-07 12:39:31,163531
0,2,-1,2,3,0,0,0,2021-08-07 12:39:31,164533
3,4,4,7,13,11,5,2,2021-08-07 12:39:31,179532
-1,1,1,-3,-7,-7,-3,0,2021-08-07 12:39:31,179532
-6,-5,-2,-7,-11,-4,-4,-5,2021-08-07 12:39:31,179532
3,2,1,5,13,6,3,2,2021-08-07 12:39:31,179532
0,0,-2,-6,-8,-6,-2,-2,2021-08-07 12:39:31,180535
1,0,-1,-5,-6,-6,-2,0,2021-08-07 12:39:31,180535
0,-1,0,1,6,2,0,-1,2021-08-07 12:39:31,180535
-3,-2,-2,-2,-6,-5,-3,-3,2021-08-07 12:39:31,180535
2,2,2,8,5,3,1,1,2021-08-07 12:39:31,210532
-4,-5,-8,-16,-25,-11,-6,-6,2021-08-07 12:39:31,210532
3,4,2,5,15,8,4,3,2021-08-07 12:39:31,226533
-3,-3,-1,0,0,-3,-1,-2,2021-08-07 12:39:31,242533
-1,-1,-4,-7,-15,-8,-4,-1,2021-08-07 12:39:31,258530
0,-2,-5,-8,-5,-6,-2,0,2021-08-07 12:39:31,258530
-2,-2,0,-13,-18,-11,-8,-3,2021-08-07 12:39:31,273530
-3,-5,-2,1,5,4,0,-2,2021-08-07 12:39:31,273530
2,3,3,6,3,0,1,0,2021-08-07 12:39:31,273530
3,4,6,20,21,11,5,3,2021-08-07 12:39:31,273530
1,-2,-2,-4,-6,-3,-1,1,2021-08-07 12:39:31,273530
1,3,1,-7,-3,-2,0,1,2021-08-07 12:39:31,289532
-3,-4,-5,-12,-15,-11,-5,-4,2021-08-07 12:39:31,321533
0,1,1,9,26,17,6,2,2021-08-07 12:39:31,337531
-1,-3,-2,5,1,0,0,-1,2021-08-07 12:39:31,352530
2,5,2,5,8,7,4,2,2021-08-07 12:39:31,352530
-1,-1,-1,1,0,-4,-2,-3,2021-08-07 12:39:31,352530
-3,-5,-6,-18,-21,-12,-8,-4,2021-08-07 12:39:31,352530
0,-3,1,8,7,2,2,-2,2021-08-07 12:39:31,353534
5,5,6,5,5,6,4,2,2021-08-07 12:39:31,353534
-1,-1,-2,-2,4,1,-1,1,2021-08-07 12:39:31,353534
-2,-2,-3,-4,-10,-10,-6,-4,2021-08-07 12:39:31,353534
-8,-14,-11,-13,-22,-16,-12,-8,2021-08-07 12:39:31,353534
2,3,5,-5,-4,-2,0,1,2021-08-07 12:39:31,354531
4,7,4,14,20,16,10,6,2021-08-07 12:39:31,354531
1,1,-3,0,-1,-2,1,1,2021-08-07 12:39:31,354531
1,3,-2,1,7,4,2,1,2021-08-07 12:39:31,354531
-5,-9,-9,-5,-14,-10,-5,-4,2021-08-07 12:39:31,354531
-6,-8,-4,-1,-8,-5,-5,-6,2021-08-07 12:39:31,354531
-7,-8,-6,-11,-8,-5,-5,-5,2021-08-07 12:39:31,355531
4,5,9,5,5,9,5,2,2021-08-07 12:39:31,355531
1,4,3,10,16,6,1,1,2021-08-07 12:39:31,355531
-3,-4,-7,-3,0,-1,-3,-3,2021-08-07 12:39:31,355531
4,4,5,2,2,-1,1,2,2021-08-07 12:39:31,355531
1,2,6,7,-1,-3,0,0,2021-08-07 12:39:31,356531
2,1,1,-1,-4,-3,0,2,2021-08-07 12:39:31,356531
2,1,1,3,7,6,3,4,2021-08-07 12:39:31,384530
-5,-4,-6,-14,-10,-7,-3,-2,2021-08-07 12:39:31,399531
-5,-7,-7,-18,-18,-12,-7,-5,2021-08-07 12:39:31,399531
2,3,2,10,18,15,6,3,2021-08-07 12:39:31,399531
1,0,1,8,5,1,0,0,2021-08-07 12:39:31,399531
-1,-1,1,2,-4,-1,-1,-1,2021-08-07 12:39:31,400531
5,7,5,4,12,10,6,5,2021-08-07 12:39:31,400531
-4,-7,-7,-17,-27,-18,-10,-6,2021-08-07 12:39:31,400531
-8,-11,-12,-7,-1,-1,-4,-6,2021-08-07 12:39:31,431530
5,11,10,8,5,5,2,3,2021-08-07 12:39:31,431530
4,5,4,5,11,7,4,5,2021-08-07 12:39:31,431530
-2,-4,-2,-1,-8,-8,-5,-2,2021-08-07 12:39:31,431530
4,6,8,4,2,3,2,3,2021-08-07 12:39:31,447531
-7,-8,-9,-13,-15,-12,-6,-5,2021-08-07 12:39:31,463530
-5,-7,-9,-8,-6,-3,-3,-5,2021-08-07 12:39:31,463530
2,2,2,10,28,15,6,2,2021-08-07 12:39:31,463530
0,1,5,3,0,-3,1,-1,2021-08-07 12:39:31,463530
1,4,2,8,4,1,1,0,2021-08-07 12:39:31,463530
-4,-4,-3,-13,-17,-9,-6,-3,2021-08-07 12:39:31,464531
-1,0,1,2,5,4,2,0,2021-08-07 12:39:31,464531
0,0,0,0,-4,-5,-3,-3,2021-08-07 12:39:31,479530
-2,-6,-3,3,-3,0,-2,-4,2021-08-07 12:39:31,495528
4,11,6,13,28,15,7,5,2021-08-07 12:39:31,495528
-3,-4,-7,-8,-11,-8,-3,-4,2021-08-07 12:39:31,495528
-6,-8,-9,-20,-29,-20,-12,-7,2021-08-07 12:39:31,495528
-2,-7,-5,-5,-8,-3,-3,-1,2021-08-07 12:39:31,495528
0,-1,1,7,10,10,4,2,2021-08-07 12:39:31,496530
2,5,5,8,15,12,5,4,2021-08-07 12:39:31,496530
4,5,5,6,5,4,5,3,2021-08-07 12:39:31,527530
-2,-2,-4,-3,-8,-8,-4,-2,2021-08-07 12:39:31,542532
0,-1,0,3,-1,0,0,-2,2021-08-07 12:39:31,558530
-3,-5,-5,-5,-8,-6,-4,-2,2021-08-07 12:39:31,573528
-3,-6,-7,-10,-6,1,-2,-2,2021-08-07 12:39:31,589530
3,5,3,1,9,8,4,4,2021-08-07 12:39:31,589530
-2,-3,-3,-1,-6,-6,-4,-3,2021-08-07 12:39:31,589530
-2,0,1,5,-1,-3,-2,-2,2021-08-07 12:39:31,589530
3,3,1,2,2,2,2,3,2021-08-07 12:39:31,589530
2,2,1,7,10,8,3,-1,2021-08-07 12:39:31,589530
-2,-2,-2,-6,-7,-6,-3,-2,2021-08-07 12:39:31,589530
-7,-11,-12,-15,-23,-13,-8,-6,2021-08-07 12:39:31,589530
8,14,14,12,22,15,8,7,2021-08-07 12:39:31,590530
2,4,3,7,16,9,5,5,2021-08-07 12:39:31,590530
-4,-7,-8,-19,-14,-7,-2,-3,2021-08-07 12:39:31,590530
-4,-6,-4,-8,-13,-11,-8,-5,2021-08-07 12:39:31,590530
-3,-2,-1,0,-3,0,-1,-2,2021-08-07 12:39:31,605530
-4,-4,-3,-3,-9,-9,-6,-4,2021-08-07 12:39:31,621528
3,4,5,14,18,12,6,3,2021-08-07 12:39:31,621528
5,6,3,1,-3,-1,3,3,2021-08-07 12:39:31,621528
-4,-5,-5,-9,0,0,-3,-4,2021-08-07 12:39:31,621528
3,4,2,6,6,4,4,1,2021-08-07 12:39:31,621528
-3,-4,-6,-7,-12,-8,-4,-5,2021-08-07 12:39:31,621528
2,0,0,-1,5,0,1,1,2021-08-07 12:39:31,622530
-5,-7,-5,-12,-26,-16,-7,-4,2021-08-07 12:39:31,653528
4,6,6,9,20,15,9,4,2021-08-07 12:39:31,653528
-4,-4,-4,0,3,3,-2,-1,2021-08-07 12:39:31,653528
1,2,1,1,2,0,-1,-1,2021-08-07 12:39:31,653528
3,4,2,-4,-6,-3,1,2,2021-08-07 12:39:31,653528
-6,-8,-8,-11,-14,-11,-7,-5,2021-08-07 12:39:31,653528
0,1,1,-9,-14,-8,-1,1,2021-08-07 12:39:31,669528
1,4,4,17,29,16,7,3,2021-08-07 12:39:31,685528
-4,-3,-3,5,5,2,0,-1,2021-08-07 12:39:31,691528
-2,-2,-1,2,1,0,0,-2,2021-08-07 12:39:31,692531
-1,-5,-5,-4,-9,-7,-5,-2,2021-08-07 12:39:31,692531
