EMG 1,EMG 2,EMG 3,EMG 4,EMG 5,EMG 6,EMG 7,EMG 8,Timestamp,Milliseconds
-1,-2,0,-2,-1,-2,0,-1,2021-08-07 12:44:29,942679
-2,-2,0,3,9,5,0,-2,2021-08-07 12:44:29,943017
-3,-2,-3,-2,-3,-2,-1,-2,2021-08-07 12:44:29,943017
1,2,2,1,1,-1,1,2,2021-08-07 12:44:29,943017
-1,-1,-3,-3,-4,-3,-3,-1,2021-08-07 12:44:29,943017
-6,-9,-11,-16,-27,-17,-10,-6,2021-08-07 12:44:29,943017
0,1,4,8,16,10,3,0,2021-08-07 12:44:29,943017
4,4,4,5,9,8,5,3,2021-08-07 12:44:29,943681
-2,-2,-3,1,-2,0,-2,-2,2021-08-07 12:44:29,958681
2,1,0,2,5,-1,1,0,2021-08-07 12:44:29,958681
-2,-2,-6,-9,-13,-11,-4,-3,2021-08-07 12:44:29,958681
0,0,0,-4,-10,-7,-2,0,2021-08-07 12:44:29,958681
2,5,6,0,0,3,2,1,2021-08-07 12:44:29,974680
-2,-4,-4,1,5,4,0,-4,2021-08-07 12:44:29,990679
-3,-2,-3,2,4,2,-1,-1,2021-08-07 12:44:29,990679
-2,0,-1,2,-1,-2,-1,0,2021-08-07 12:44:29,990679
-4,-7,-7,-17,-21,-12,-6,-2,2021-08-07 12:44:29,990679
-1,2,4,8,13,9,4,1,2021-08-07 12:44:29,990679
1,1,2,3,5,5,3,2,2021-08-07 12:44:30,022682
-1,-1,-1,2,1,-1,-2,-1,2021-08-07 12:44:30,022682
-2,-3,-4,-7,-13,-10,-8,-3,2021-08-07 12:44:30,022682
1,3,1,-1,5,7,1,2,2021-08-07 12:44:30,022682
-2,-3,0,-3,-5,-4,-2,-2,2021-08-07 12:44:30,068683
-2,-1,-3,-4,-5,-5,-1,-2,2021-08-07 12:44:30,068683
-2,-4,-6,-7,-10,-5,-4,-3,2021-08-07 12:44:30,068683
2,0,2,4,7,5,2,1,2021-08-07 12:44:30,068683
4,6,4,6,10,4,4,2,2021-08-07 12:44:30,068683
-2,-3,-2,-1,-1,-2,-3,-2,2021-08-07 12:44:30,068683
-1,-1,-2,-4,-4,-3,-2,0,2021-08-07 12:44:30,068683
-1,-2,-2,-8,-12,-7,-3,-3,2021-08-07 12:44:30,068683
1,-1,0,7,13,11,3,1,2021-08-07 12:44:30,069681
-3,-1,-1,-3,-3,-3,-2,-3,2021-08-07 12:44:30,069681
-2,-2,-2,0,2,-3,-3,-3,2021-08-07 12:44:30,084682
5,8,10,13,13,7,5,5,2021-08-07 12:44:30,084682
-1,-1,-2,-4,-7,-2,0,-2,2021-08-07 12:44:30,084682
-1,0,0,-4,-7,-4,-3,-2,2021-08-07 12:44:30,084682
-2,-3,-1,3,0,1,-1,0,2021-08-07 12:44:30,119680
-5,-6,-6,-8,-5,-4,-2,-3,2021-08-07 12:44:30,119680
-3,-3,-4,-1,0,-2,0,-1,2021-08-07 12:44:30,119680
-1,0,-1,-3,-12,-6,-3,-2,2021-08-07 12:44:30,119680
6,7,6,9,21,12,7,5,2021-08-07 12:44:30,119680
1,0,-4,-3,-10,-7,-5,-3,2021-08-07 12:44:30,119680
-3,-5,-4,-8,-8,-8,-4,-2,2021-08-07 12:44:30,131679
-3,-3,-5,-4,-4,0,-3,-2,2021-08-07 12:44:30,131679
0,0,2,6,8,3,2,1,2021-08-07 12:44:30,147681
1,0,4,11,20,11,4,3,2021-08-07 12:44:30,147884
1,1,3,1,-2,-1,-2,0,2021-08-07 12:44:30,147884
0,-1,-3,-5,-8,-6,-2,-1,2021-08-07 12:44:30,163680
-2,-5,-6,-14,-27,-17,-6,-4,2021-08-07 12:44:30,179681
-1,-2,-1,3,7,9,2,0,2021-08-07 12:44:30,179681
0,2,1,3,10,4,1,0,2021-08-07 12:44:30,179681
-1,-2,0,2,5,2,1,1,2021-08-07 12:44:30,179681
2,4,2,0,1,3,0,-2,2021-08-07 12:44:30,179681
-5,-5,-7,-8,-13,-10,-6,-3,2021-08-07 12:44:30,179681
-2,-1,-2,-5,-8,-6,0,-1,2021-08-07 12:44:30,195680
0,-2,-1,1,5,4,3,-2,2021-08-07 12:44:30,195680
-2,-1,-2,0,-2,-1,0,0,2021-08-07 12:44:30,211679
4,4,3,-2,-3,-1,0,2,2021-08-07 12:44:30,211679
0,3,3,3,0,1,0,0,2021-08-07 12:44:30,211679
-2,-1,-2,5,10,4,0,-1,2021-08-07 12:44:30,211679
-4,-7,-7,-16,-21,-12,-6,-6,2021-08-07 12:44:30,227682
3,7,5,5,9,8,6,6,2021-08-07 12:44:30,227682
-2,-4,-4,-1,-3,-1,-2,-2,2021-08-07 12:44:30,227682
-1,1,1,1,2,-1,-1,-2,2021-08-07 12:44:30,227682
-2,-3,-2,1,6,3,-2,-2,2021-08-07 12:44:30,243682
-1,-2,-4,2,5,3,0,-1,2021-08-07 12:44:30,243682
0,0,-1,-3,-7,-6,-1,-1,2021-08-07 12:44:30,259683
-4,-6,-7,-9,-10,-6,-5,-4,2021-08-07 12:44:30,275682
5,9,9,11,6,3,4,5,2021-08-07 12:44:30,275682
-1,-3,-1,-4,-7,-5,-3,-2,2021-08-07 12:44:30,275682
-1,-3,-2,-2,-2,-1,-2,-1,2021-08-07 12:44:30,275682
0,-2,-3,-3,-6,-3,-4,-1,2021-08-07 12:44:30,275682
-3,-4,-2,0,8,6,2,-3,2021-08-07 12:44:30,291683
-2,-4,-4,-3,-4,-3,-2,-4,2021-08-07 12:44:30,307679
4,7,8,8,13,8,5,3,2021-08-07 12:44:30,307679
1,3,4,4,4,2,4,2,2021-08-07 12:44:30,307679
-3,-4,-5,-5,-7,-5,-2,-1,2021-08-07 12:44:30,307679
-1,-1,3,-3,-8,-6,-2,-2,2021-08-07 12:44:30,307679
-4,-3,-4,-7,-9,-6,-3,-3,2021-08-07 12:44:30,307679
-1,1,2,0,4,1,1,-1,2021-08-07 12:44:30,307679
-1,1,1,4,2,0,-1,2,2021-08-07 12:44:30,323680
-2,-2,-5,-3,-3,-4,-1,-2,2021-08-07 12:44:30,323680
-4,-6,-4,-7,-8,-5,-2,-2,2021-08-07 12:44:30,323680
2,2,4,3,4,1,2,3,2021-08-07 12:44:30,323680
-1,-2,-3,1,3,0,0,0,2021-08-07 12:44:30,355681
1,3,3,-1,1,0,2,2,2021-08-07 12:44:30,355681
-4,-3,-5,-7,-17,-10,-5,-5,2021-08-07 12:44:30,355681
-1,-2,-2,0,8,4,0,-2,2021-08-07 12:44:30,355681
2,1,3,3,7,5,1,0,2021-08-07 12:44:30,371681
-1,-3,-2,0,4,1,0,-1,2021-08-07 12:44:30,387681
1,3,4,4,3,1,0,0,2021-08-07 12:44:30,403679
-2,-2,-3,-3,-10,-4,-3,-2,2021-08-07 12:44:30,403679
0,1,0,-3,-3,-2,-2,-1,2021-08-07 12:44:30,403679
0,-1,-1,-1,-3,-1,0,-2,2021-08-07 12:44:30,403679
-6,-12,-12,-9,-5,-4,-4,-6,2021-08-07 12:44:30,403679
6,9,9,5,4,6,3,3,2021-08-07 12:44:30,403679
0,2,0,-4,-2,-2,-1,0,2021-08-07 12:44:30,404682
0,-1,1,2,-2,-2,0,1,2021-08-07 12:44:30,404682
-3,-4,-4,-3,-5,-2,-5,-3,2021-08-07 12:44:30,404682
-2,-2,-1,1,-1,-2,0,0,2021-08-07 12:44:30,404682
2,4,4,8,18,13,6,1,2021-08-07 12:44:30,434681
-6,-7,-7,-4,-5,-5,-3,-4,2021-08-07 12:44:30,450682
2,3,1,-3,-11,-7,-2,3,2021-08-07 12:44:30,466679
3,3,3,1,5,6,2,1,2021-08-07 12:44:30,466679
0,2,2,8,12,4,2,1,2021-08-07 12:44:30,466679
0,2,0,2,-1,-1,0,0,2021-08-07 12:44:30,466679
0,-2,1,6,8,3,0,0,2021-08-07 12:44:30,466679
-4,-5,-6,-8,-12,-8,-4,-3,2021-08-07 12:44:30,466679
-1,-3,-3,-4,-10,-4,0,-1,2021-08-07 12:44:30,466679
0,2,4,3,7,4,2,0,2021-08-07 12:44:30,466679
2,2,-1,-3,-4,-3,-3,-2,2021-08-07 12:44:30,467681
0,0,-1,0,-2,-3,-3,-1,2021-08-07 12:44:30,467681
-1,-1,0,-4,-9,-7,-4,-2,2021-08-07 12:44:30,498679
-2,-3,-3,-8,-14,-7,-4,-4,2021-08-07 12:44:30,498679
-1,-2,2,8,22,13,6,0,2021-08-07 12:44:30,498679
1,0,-1,5,13,6,2,0,2021-08-07 12:44:30,498679
0,2,2,4,9,6,2,-1,2021-08-07 12:44:30,514681
-1,-2,-4,-4,-11,-8,-6,-1,2021-08-07 12:44:30,530681
-2,-2,-2,-5,-9,-6,-3,-3,2021-08-07 12:44:30,530681
-2,-6,-6,-7,-11,-6,-4,-3,2021-08-07 12:44:30,530681
0,-1,-1,-3,-2,0,0,1,2021-08-07 12:44:30,530681
3,2,4,1,2,2,1,1,2021-08-07 12:44:30,530681
1,1,1,2,1,4,2,1,2021-08-07 12:44:30,530681
-1,-1,-1,-1,-3,-3,-2,-1,2021-08-07 12:44:30,530681
-4,-6,-6,-5,-12,-8,-6,-3,2021-08-07 12:44:30,577682
1,-1,0,1,4,3,2,-1,2021-08-07 12:44:30,577682
1,1,2,0,0,-1,0,0,2021-08-07 12:44:30,577682
-2,1,-1,-1,-3,-2,-1,-1,2021-08-07 12:44:30,577682
-2,-3,-4,-2,-3,-2,-1,0,2021-08-07 12:44:30,577682
1,-1,-5,-2,-1,-2,-2,-1,2021-08-07 12:44:30,577682
2,6,5,0,0,2,2,6,2021-08-07 12:44:30,577682
1,0,2,8,13,8,6,0,2021-08-07 12:44:30,577682
-4,-5,-3,-2,-2,-3,-4,-4,2021-08-07 12:44:30,593679
-3,-1,-1,0,-2,-2,-3,-4,2021-08-07 12:44:30,608681
-3,-1,0,0,-1,-2,-3,-3,2021-08-07 12:44:30,608681
-2,0,0,-3,-7,-4,-2,-1,2021-08-07 12:44:30,608681
2,2,2,-2,-1,-2,0,2,2021-08-07 12:44:30,608681
-2,-5,-3,-7,-10,-8,-5,-2,2021-08-07 12:44:30,608681
1,1,-2,-1,-1,0,0,1,2021-08-07 12:44:30,609685
-2,-3,-3,1,7,5,2,-2,2021-08-07 12:44:30,609685
2,3,2,3,0,0,0,1,2021-08-07 12:44:30,624680
-1,0,1,1,1,1,1,1,2021-08-07 12:44:30,624680
-3,-3,-3,-2,-2,-2,-1,-3,2021-08-07 12:44:30,640679
-2,-1,-1,-4,-6,-3,-3,0,2021-08-07 12:44:30,640679
-3,-6,-6,-10,-16,-11,-6,-5,2021-08-07 12:44:30,672679
4,8,6,10,20,16,7,4,2021-08-07 12:44:30,672679
-2,-3,-4,3,6,2,-1,-2,2021-08-07 12:44:30,672679
-2,-3,-3,-5,-10,-9,-5,-3,2021-08-07 12:44:30,672679
-1,0,-1,0,0,0,-1,-1,2021-08-07 12:44:30,672679
-1,-2,-3,-4,-8,-3,-4,-2,2021-08-07 12:44:30,672679
-2,-2,-3,-3,-1,-1,-1,-3,2021-08-07 12:44:30,673683
1,-2,-1,4,1,-1,-1,1,2021-08-07 12:44:30,673683
-3,-2,-1,-6,-8,-6,-4,-2,2021-08-07 12:44:30,688681
-2,-2,0,-1,0,-2,-2,0,2021-08-07 12:44:30,688681
-2,-4,-2,0,1,0,2,-1,2021-08-07 12:44:30,688681
2,5,2,-5,-9,-4,-3,1,2021-08-07 12:44:30,688681
1,2,3,9,11,7,4,2,2021-08-07 12:44:30,720681
-1,2,0,2,4,3,1,1,2021-08-07 12:44:30,720681
1,0,2,-2,-3,1,-2,-2,2021-08-07 12:44:30,720681
-3,-2,-4,-3,-1,0,-2,-1,2021-08-07 12:44:30,720681
0,-5,-5,-5,-5,-3,-2,0,2021-08-07 12:44:30,736680
-2,-2,0,-1,-1,-1,-1,-2,2021-08-07 12:44:30,736680
1,1,-2,0,-1,-1,0,1,2021-08-07 12:44:30,736680
2,4,3,2,8,6,4,2,2021-08-07 12:44:30,736680
2,4,3,4,7,7,3,0,2021-08-07 12:44:30,752681
-4,-4,-5,-4,-7,-6,-3,-2,2021-08-07 12:44:30,752681
-3,-2,-1,-6,-5,-3,-3,-2,2021-08-07 12:44:30,752681
2,0,0,-1,-2,-4,1,-1,2021-08-07 12:44:30,752681
0,0,2,1,2,2,0,0,2021-08-07 12:44:30,768681
-3,-2,-3,-1,-5,-2,-2,-2,2021-08-07 12:44:30,768681
-2,1,-1,-3,-2,-2,-2,1,2021-08-07 12:44:30,768681
-2,-4,-2,2,5,2,0,0,2021-08-07 12:44:30,768681
2,1,0,-1,-2,0,0,-1,2021-08-07 12:44:30,815680
0,-1,0,1,2,0,-1,0,2021-08-07 12:44:30,815680
0,3,4,5,4,1,2,0,2021-08-07 12:44:30,815680
0,-1,-2,-6,-4,-2,-2,-1,2021-08-07 12:44:30,815680
-5,-8,-7,-6,-8,-7,-5,-5,2021-08-07 12:44:30,815680
1,-1,-2,1,7,4,1,0,2021-08-07 12:44:30,815680
1,3,1,2,3,3,1,2,2021-08-07 12:44:30,816680
-1,0,1,-3,-4,-3,-1,0,2021-08-07 12:44:30,816680
-1,1,1,4,2,0,1,0,2021-08-07 12:44:30,831680
-2,-2,-3,-4,-7,-5,-3,-1,2021-08-07 12:44:30,847680
-1,-3,-3,-6,-4,-5,-2,-2,2021-08-07 12:44:30,863679
-1,0,0,3,0,1,-1,-2,2021-08-07 12:44:30,863679
2,4,3,0,1,3,0,0,2021-08-07 12:44:30,863679
1,0,0,0,-2,-3,-2,0,2021-08-07 12:44:30,863679
-3,-4,-4,-2,-1,-1,-2,0,2021-08-07 12:44:30,863679
-4,-2,-2,-2,-4,-3,-1,-2,2021-08-07 12:44:30,863679
-2,-3,-3,-9,-5,-6,-2,-3,2021-08-07 12:44:30,863679
2,1,3,5,10,6,3,0,2021-08-07 12:44:30,864681
3,1,3,8,7,4,3,2,2021-08-07 12:44:30,879681
1,0,0,0,-3,-1,-1,0,2021-08-07 12:44:30,879681
-1,-3,-6,-4,2,1,0,0,2021-08-07 12:44:30,894679
-5,-5,-5,-8,-11,-8,-5,-4,2021-08-07 12:44:30,894679
2,4,2,1,-2,0,0,1,2021-08-07 12:44:30,894679
-1,-1,-1,-4,-11,-7,-3,-1,2021-08-07 12:44:30,894679
0,0,2,9,14,7,3,2,2021-08-07 12:44:30,925679
-3,-3,-5,-3,2,-1,-2,-4,2021-08-07 12:44:30,925679
1,2,0,2,7,6,1,1,2021-08-07 12:44:30,925679
-1,-1,-2,-4,0,-2,-2,-1,2021-08-07 12:44:30,925679
-1,-2,-3,-4,-5,-3,-1,-1,2021-08-07 12:44:30,925679
-1,-1,-2,-3,-5,-6,-4,-2,2021-08-07 12:44:30,925679
1,-2,-3,-11,-16,-12,-5,-4,2021-08-07 12:44:30,941681
2,1,3,11,18,12,5,0,2021-08-07 12:44:30,957681
0,-1,2,2,3,2,0,0,2021-08-07 12:44:30,957681
-1,1,1,4,4,3,1,2,2021-08-07 12:44:30,957681
-3,-3,-5,-8,-7,-4,-4,-3,2021-08-07 12:44:30,957681
0,-2,-3,-3,-2,-1,-2,-2,2021-08-07 12:44:30,957681
0,0,1,0,-3,-2,-1,0,2021-08-07 12:44:30,973681
2,3,3,2,-1,1,0,1,2021-08-07 12:44:30,973681
-6,-7,-7,-2,-6,-6,-4,-4,2021-08-07 12:44:30,973681
0,2,1,-4,-3,-2,1,1,2021-08-07 12:44:30,973681
0,3,3,3,3,2,1,0,2021-08-07 12:44:30,989681
2,2,1,1,3,2,3,1,2021-08-07 12:44:30,989681
0,-2,-2,3,4,0,0,-2,2021-08-07 12:44:30,989681
-1,-1,0,2,5,1,0,0,2021-08-07 12:44:30,989681
-1,-2,-4,-5,-8,-5,-3,-3,2021-08-07 12:44:31,005681
0,0,-1,-6,-8,-6,-2,-1,2021-08-07 12:44:31,005681
0,-1,0,5,7,5,1,0,2021-08-07 12:44:31,005681
-2,-3,-2,0,-1,0,-2,-1,2021-08-07 12:44:31,005681
-4,-4,-3,-6,-9,-6,-2,-3,2021-08-07 12:44:31,037681
1,2,-1,2,3,3,1,0,2021-08-07 12:44:31,037681
-3,-1,-2,-2,-3,-1,-1,-2,2021-08-07 12:44:31,037681
1,0,0,-2,-4,-3,0,0,2021-08-07 12:44:31,037681
0,-1,-2,-4,-6,-3,-2,-1,2021-08-07 12:44:31,053680
1,2,2,8,15,8,3,3,2021-08-07 12:44:31,053680
-2,-3,-4,-2,-6,-3,-3,-2,2021-08-07 12:44:31,053680
-1,-2,0,-1,3,1,0,-2,2021-08-07 12:44:31,053680
2,3,2,5,9,7,3,2,2021-08-07 12:44:31,085680
-1,-1,-1,-3,-4,-3,-1,-2,2021-08-07 12:44:31,085680
-1,-1,0,-1,0,-4,0,0,2021-08-07 12:44:31,085680
-4,-7,-6,-6,-7,-5,-5,-3,2021-08-07 12:44:31,085680
1,2,2,1,0,0,1,1,2021-08-07 12:44:31,085680
-1,0,-2,-2,-2,-2,-2,-1,2021-08-07 12:44:31,085680
0,0,0,0,-1,-1,-1,0,2021-08-07 12:44:31,100679
-3,-4,-4,-6,-13,-7,-6,-3,2021-08-07 12:44:31,100679
-1,-2,-1,1,5,3,1,1,2021-08-07 12:44:31,115682
2,4,4,4,3,4,3,2,2021-08-07 12:44:31,131681
0,-2,0,4,7,4,0,-2,2021-08-07 12:44:31,147681
3,5,4,5,7,4,3,3,2021-08-07 12:44:31,147681
-2,-1,-2,-5,-9,-7,-4,-2,2021-08-07 12:44:31,147681
-5,-6,-7,-9,-16,-11,-7,-7,2021-08-07 12:44:31,147681
1,5,4,8,15,11,4,3,2021-08-07 12:44:31,147681
-1,-2,-2,0,2,1,-1,0,2021-08-07 12:44:31,147681
-1,0,0,-2,-3,-2,0,0,2021-08-07 12:44:31,147681
-3,-3,-3,-3,-1,-3,-2,-1,2021-08-07 12:44:31,147681
0,-1,-2,-6,-7,-5,-3,-3,2021-08-07 12:44:31,148681
1,1,-1,-1,0,1,0,0,2021-08-07 12:44:31,148681
0,-2,-1,-2,-3,-4,-1,-1,2021-08-07 12:44:31,179682
-1,-4,-3,-3,-7,-4,-1,-2,2021-08-07 12:44:31,179682
-1,0,-1,2,9,6,2,0,2021-08-07 12:44:31,179682
0,3,2,1,2,0,1,1,2021-08-07 12:44:31,179682
0,2,2,4,3,1,0,-1,2021-08-07 12:44:31,211681
-1,-1,0,-2,-1,-1,-1,0,2021-08-07 12:44:31,211681
-3,-4,-5,-6,-8,-6,-5,-3,2021-08-07 12:44:31,211681
-1,-1,1,2,-1,-3,-1,-2,2021-08-07 12:44:31,211681
3,1,0,1,2,3,2,2,2021-08-07 12:44:31,211681
-2,-1,-1,2,4,3,0,-1,2021-08-07 12:44:31,211681
-3,-4,-3,-1,-4,-3,-3,-1,2021-08-07 12:44:31,211681
0,-1,0,-7,-8,-4,-2,0,2021-08-07 12:44:31,211681
1,1,2,7,8,4,0,0,2021-08-07 12:44:31,242681
0,1,-1,-1,-2,-3,0,0,2021-08-07 12:44:31,242681
2,3,2,-2,-6,-2,1,2,2021-08-07 12:44:31,242681
1,0,0,6,18,14,6,2,2021-08-07 12:44:31,242681
-2,-2,-5,-4,-1,-1,-1,-2,2021-08-07 12:44:31,273681
4,2,3,-1,-2,1,1,3,2021-08-07 12:44:31,273681
-1,-4,-3,-3,-4,-4,-2,-1,2021-08-07 12:44:31,273681
-3,-6,-6,-5,-9,-7,-6,-4,2021-08-07 12:44:31,273681
0,1,0,-3,0,2,-1,-2,2021-08-07 12:44:31,273681
1,-2,1,-1,-2,0,0,2,2021-08-07 12:44:31,274681
0,2,0,2,-1,-1,-2,-1,2021-08-07 12:44:31,274681
0,0,-2,0,0,0,-1,-1,2021-08-07 12:44:31,274681
-2,-2,-1,0,0,-2,0,-1,2021-08-07 12:44:31,305681
-2,-2,-3,-5,-6,-2,-3,-1,2021-08-07 12:44:31,306072
-3,-4,-5,-3,-2,-2,-1,-2,2021-08-07 12:44:31,306072
2,2,3,-6,-7,-3,0,1,2021-08-07 12:44:31,306072
-5,-8,-7,-10,-14,-11,-7,-5,2021-08-07 12:44:31,321723
0,1,4,7,11,7,3,1,2021-08-07 12:44:31,321723
2,5,5,7,12,7,4,2,2021-08-07 12:44:31,321723
-2,-1,-1,3,9,5,2,-2,2021-08-07 12:44:31,321723
1,-1,-1,-1,-4,-4,-1,0,2021-08-07 12:44:31,337725
-3,-3,-4,-5,-7,-6,-4,-3,2021-08-07 12:44:31,337725
-3,-4,-4,-9,-13,-7,-3,-4,2021-08-07 12:44:31,337725
0,-1,1,3,0,-2,0,-2,2021-08-07 12:44:31,337725
3,2,2,3,7,4,2,1,2021-08-07 12:44:31,353723
-2,-4,-6,-4,-1,0,0,0,2021-08-07 12:44:31,353723
1,0,-1,-3,-2,-1,0,2,2021-08-07 12:44:31,353723
-2,1,-1,-6,-11,-9,-5,0,2021-08-07 12:44:31,353723
-1,-1,-1,0,1,3,0,0,2021-08-07 12:44:31,385724
1,4,5,13,26,15,6,1,2021-08-07 12:44:31,398722
-2,-3,1,-2,-5,-4,-2,-4,2021-08-07 12:44:31,398722
-1,1,2,6,10,6,0,-1,2021-08-07 12:44:31,398722
-3,-2,-4,-9,-13,-11,-7,-3,2021-08-07 12:44:31,398722
-1,0,-1,2,-1,-1,-1,-1,2021-08-07 12:44:31,398722
0,-1,-1,-2,-2,1,-1,1,2021-08-07 12:44:31,398722
0,-1,-1,-1,-1,-2,0,1,2021-08-07 12:44:31,399723
-1,-2,-1,-1,0,-2,0,1,2021-08-07 12:44:31,417723
-3,-4,-3,-4,-3,-2,-3,-3,2021-08-07 12:44:31,433723
1,-1,-2,-2,0,1,0,-1,2021-08-07 12:44:31,449723
2,4,1,2,1,2,0,0,2021-08-07 12:44:31,449723
-1,0,-1,3,-1,0,-2,1,2021-08-07 12:44:31,449723
-1,-1,-2,-5,-6,-4,-2,-2,2021-08-07 12:44:31,449723
-2,-1,-1,2,1,0,-1,-2,2021-08-07 12:44:31,449723
0,-3,-1,-2,-5,-1,-1,-1,2021-08-07 12:44:31,449723
-2,-1,-2,-2,-2,-1,-2,0,2021-08-07 12:44:31,450723
0,-2,-1,-2,1,0,-2,1,2021-08-07 12:44:31,450723
1,1,2,0,-1,-3,-2,0,2021-08-07 12:44:31,465724
-1,-4,-7,-1,0,0,0,-1,2021-08-07 12:44:31,465724
0,1,4,0,-1,0,1,0,2021-08-07 12:44:31,481723
-5,-8,-8,-8,-12,-8,-5,-5,2021-08-07 12:44:31,481723
5,8,7,6,6,8,5,6,2021-08-07 12:44:31,481723
0,2,1,2,1,1,1,1,2021-08-07 12:44:31,481723
0,0,-1,-1,1,1,-2,-1,2021-08-07 12:44:31,497723
-3,-4,0,-2,-3,-3,-2,0,2021-08-07 12:44:31,512722
-4,-6,-3,-3,-7,-4,-3,-3,2021-08-07 12:44:31,528242
-1,-2,-1,-2,-3,-2,0,-1,2021-08-07 12:44:31,544239
2,3,2,4,4,1,3,0,2021-08-07 12:44:31,560240
-1,-1,-1,-4,-6,-1,0,-2,2021-08-07 12:44:31,560240
1,0,-1,2,5,2,1,1,2021-08-07 12:44:31,560240
-2,-1,0,-4,-6,-3,-3,-1,2021-08-07 12:44:31,560240
0,-1,-2,8,15,7,2,1,2021-08-07 12:44:31,560240
2,1,1,0,-2,-5,-3,-1,2021-08-07 12:44:31,560240
-4,-5,-6,-11,-14,-8,-5,-3,2021-08-07 12:44:31,560240
2,2,2,4,10,6,3,1,2021-08-07 12:44:31,561242
1,0,1,1,1,1,1,0,2021-08-07 12:44:31,561242
1,-2,-4,-1,-2,0,-3,-2,2021-08-07 12:44:31,561242
-1,-1,0,2,2,1,-2,-2,2021-08-07 12:44:31,561242
1,0,0,-3,-6,-4,-1,-1,2021-08-07 12:44:31,561242
1,0,0,-3,-5,-3,-2,-1,2021-08-07 12:44:31,576241
0,-1,-1,-1,2,1,1,-1,2021-08-07 12:44:31,576241
-5,-6,-7,-7,-6,-5,-4,-5,2021-08-07 12:44:31,576241
1,3,4,3,3,3,3,1,2021-08-07 12:44:31,576241
-1,-1,-3,-4,-3,-3,-2,-3,2021-08-07 12:44:31,608239
-1,1,1,3,4,1,1,-1,2021-08-07 12:44:31,624241
-1,-3,-2,-2,-2,-1,-1,-2,2021-08-07 12:44:31,640239
0,-3,-4,-3,-5,-4,-4,0,2021-08-07 12:44:31,655240
-2,-5,-3,-6,-8,-4,-4,-1,2021-08-07 12:44:31,655240
-1,-2,0,-2,-2,-1,-2,-1,2021-08-07 12:44:31,655240
0,4,3,6,10,5,3,2,2021-08-07 12:44:31,655240
-2,-1,-3,3,1,0,0,-1,2021-08-07 12:44:31,655240
-2,-2,-3,-4,-7,-5,-3,0,2021-08-07 12:44:31,656244
-2,-2,-4,-5,-9,-3,-1,-2,2021-08-07 12:44:31,656244
2,2,2,2,4,1,2,0,2021-08-07 12:44:31,656244
-2,-3,-1,-3,-3,-2,-1,-1,2021-08-07 12:44:31,656244
0,0,2,3,1,1,0,0,2021-08-07 12:44:31,656244
0,1,-1,0,2,0,1,0,2021-08-07 12:44:31,656244
-1,-2,-2,-2,-4,-3,-2,0,2021-08-07 12:44:31,656244
-2,-5,-5,-7,-7,-5,-3,-3,2021-08-07 12:44:31,656244
4,5,7,11,17,10,6,2,2021-08-07 12:44:31,686241
-1,-1,0,-2,-3,-4,-2,0,2021-08-07 12:44:31,686241
1,1,-1,-1,2,1,0,0,2021-08-07 12:44:31,686241
-2,-1,-2,0,1,0,-1,-2,2021-08-07 12:44:31,686241
-1,-1,0,-1,-1,0,0,1,2021-08-07 12:44:31,701241
-1,-3,-2,-4,-8,-6,-3,0,2021-08-07 12:44:31,701241
1,3,2,1,4,3,3,2,2021-08-07 12:44:31,701241
1,2,1,3,7,3,2,2,2021-08-07 12:44:31,701241
-3,-5,-2,-4,-7,-6,-3,-4,2021-08-07 12:44:31,717241
3,3,3,2,6,6,3,2,2021-08-07 12:44:31,717241
-5,-4,-4,-4,-5,-4,-4,-2,2021-08-07 12:44:31,717241
-1,-1,0,-2,-3,-1,-1,1,2021-08-07 12:44:31,717241
0,3,0,-1,1,0,-1,1,2021-08-07 12:44:31,733239
-3,-2,-4,-2,-9,-5,-4,-2,2021-08-07 12:44:31,733239
0,-1,-2,-1,-1,0,-1,-1,2021-08-07 12:44:31,733239
1,2,2,2,4,2,1,0,2021-08-07 12:44:31,733239
-3,-3,-4,-5,-4,-3,-2,-2,2021-08-07 12:44:31,765240
-4,0,0,1,1,0,0,-1,2021-08-07 12:44:31,781239
0,1,0,0,1,0,-1,1,2021-08-07 12:44:31,781239
0,0,0,2,3,3,0,0,2021-08-07 12:44:31,781239
0,-3,-2,-2,-4,-2,-2,-3,2021-08-07 12:44:31,781239
1,0,0,1,2,2,0,0,2021-08-07 12:44:31,781239
-1,-2,-3,0,-2,0,0,-1,2021-08-07 12:44:31,781239
-2,-2,-1,0,-2,-3,-1,-2,2021-08-07 12:44:31,781239
1,-1,-2,-6,-8,-3,-1,-1,2021-08-07 12:44:31,797240
2,0,1,2,7,3,3,0,2021-08-07 12:44:31,797240
0,-2,-1,-1,0,-1,0,-3,2021-08-07 12:44:31,797240
-2,-1,-1,0,-2,-2,0,-2,2021-08-07 12:44:31,797240
0,1,0,0,1,1,0,1,2021-08-07 12:44:31,831241
-2,0,-2,0,-1,-1,-3,-1,2021-08-07 12:44:31,831241
-2,-1,-3,-6,-11,-10,-3,-4,2021-08-07 12:44:31,831241
2,2,3,3,6,4,3,1,2021-08-07 12:44:31,832243
-6,-6,-6,-3,3,-1,-1,-2,2021-08-07 12:44:31,832243
2,6,6,1,0,0,0,2,2021-08-07 12:44:31,832243
1,0,-2,1,1,1,0,0,2021-08-07 12:44:31,832243
-3,-3,-4,-9,-11,-5,-4,-2,2021-08-07 12:44:31,832243
-1,-2,-3,1,1,1,-1,0,2021-08-07 12:44:31,861239
-2,-4,-1,-4,-4,-2,-1,-2,2021-08-07 12:44:31,877239
3,3,5,5,12,6,3,0,2021-08-07 12:44:31,893242
-1,-4,-1,-2,-3,-3,-2,-1,2021-08-07 12:44:31,909239
-2,1,0,-2,-3,-2,-1,-1,2021-08-07 12:44:31,925240
-3,-6,-6,-9,-14,-9,-6,-3,2021-08-07 12:44:31,925240
3,3,5,11,18,14,7,4,2021-08-07 12:44:31,925240
-2,-3,-4,-6,-8,-4,-3,-3,2021-08-07 12:44:31,925240
2,3,1,3,5,3,3,1,2021-08-07 12:44:31,925240
0,3,4,5,7,4,1,1,2021-08-07 12:44:31,925240
-4,-5,-4,-6,-10,-7,-5,-1,2021-08-07 12:44:31,926240
-3,-4,-5,-2,0,-3,-2,-2,2021-08-07 12:44:31,926240
3,6,6,1,-1,2,2,1,2021-08-07 12:44:31,926240
-1,-2,-1,1,2,-1,0,-2,2021-08-07 12:44:31,926240
0,0,1,0,2,2,0,1,2021-08-07 12:44:31,926240
0,1,0,2,2,0,-1,1,2021-08-07 12:44:31,926240
-6,-6,-7,-7,-10,-9,-5,-5,2021-08-07 12:44:31,941240
-3,-4,-8,-8,-6,-3,-3,-4,2021-08-07 12:44:31,957240
-2,0,-1,-2,-3,-3,-2,-2,2021-08-07 12:44:31,957240
4,6,7,5,3,3,2,2,2021-08-07 12:44:31,957240
-1,-1,-2,1,5,3,-1,-1,2021-08-07 12:44:31,957240
0,1,2,2,5,5,3,2,2021-08-07 12:44:31,957240
-3,-5,-6,-5,-7,-7,-3,-4,2021-08-07 12:44:31,957240
0,-1,1,-2,-2,-2,-2,1,2021-08-07 12:44:31,957240
0,-1,-1,3,4,1,0,-2,2021-08-07 12:44:31,989240
-2,-1,0,-6,-12,-8,-3,-2,2021-08-07 12:44:32,005241
0,-1,-1,-2,1,0,0,0,2021-08-07 12:44:32,021240
3,4,3,4,13,9,5,3,2021-08-07 12:44:32,037241
1,0,2,3,5,5,0,-2,2021-08-07 12:44:32,053240
-5,-6,-7,-4,-7,-8,-6,-5,2021-08-07 12:44:32,069240
3,6,5,0,-5,1,2,3,2021-08-07 12:44:32,085240
-2,-1,0,0,-5,-3,0,-1,2021-08-07 12:44:32,100241
-2,-1,-1,-5,-3,-3,-1,-1,2021-08-07 12:44:32,100241
1,-3,-1,6,7,4,0,1,2021-08-07 12:44:32,100241
-3,-3,-3,-6,-7,-6,-3,-4,2021-08-07 12:44:32,100241
3,3,5,6,8,7,3,3,2021-08-07 12:44:32,100241
1,-1,-2,0,0,1,0,-1,2021-08-07 12:44:32,100241
0,1,1,-2,-2,-2,-1,0,2021-08-07 12:44:32,100241
-1,-1,-1,3,4,0,0,0,2021-08-07 12:44:32,101241
-4,-5,-4,-9,-13,-8,-5,-3,2021-08-07 12:44:32,101241
-4,-2,-2,1,1,1,0,-1,2021-08-07 12:44:32,116240
3,1,1,2,0,2,1,0,2021-08-07 12:44:32,116240
1,1,1,3,4,4,1,1,2021-08-07 12:44:32,116240
-2,-4,-5,-6,-9,-6,-2,-4,2021-08-07 12:44:32,116240
0,-1,-2,-9,-14,-7,-3,-1,2021-08-07 12:44:32,132239
0,1,3,13,26,12,5,0,2021-08-07 12:44:32,132239
-3,-1,-3,-3,-6,-5,-3,-1,2021-08-07 12:44:32,132239
1,2,1,2,3,2,0,1,2021-08-07 12:44:32,132239
-1,-3,-3,-6,-11,-7,-5,-1,2021-08-07 12:44:32,132239
-3,-1,-2,-4,-6,-4,0,-1,2021-08-07 12:44:32,132239
-2,-5,-3,-2,-2,0,-2,-2,2021-08-07 12:44:32,132239
-1,-3,-5,-6,-8,-6,-3,-3,2021-08-07 12:44:32,132239
1,2,2,3,6,4,1,-1,2021-08-07 12:44:32,132239
1,1,1,0,3,3,3,2,2021-08-07 12:44:32,132239
0,2,0,2,4,2,1,1,2021-08-07 12:44:32,133241
-3,-5,-4,-6,-8,-2,-4,-3,2021-08-07 12:44:32,133241
-1,-2,-2,-2,-2,-3,-3,-2,2021-08-07 12:44:32,133241
1,3,5,8,12,8,5,3,2021-08-07 12:44:32,133241
-3,-3,-3,-5,-10,-7,-3,-2,2021-08-07 12:44:32,133241
-2,-1,0,2,1,1,0,0,2021-08-07 12:44:32,133241
-3,-2,-5,-5,-6,-6,-1,-1,2021-08-07 12:44:32,164239
0,-1,-2,-1,-1,0,-1,1,2021-08-07 12:44:32,164239
0,0,-1,-2,-1,0,0,0,2021-08-07 12:44:32,164239
-1,-3,-3,-1,0,-1,0,-1,2021-08-07 12:44:32,164239
0,-1,-1,-1,-1,-3,-1,1,2021-08-07 12:44:32,194241
-3,-2,-3,-3,-5,-1,-3,-3,2021-08-07 12:44:32,194241
-3,-3,0,1,3,3,-1,-2,2021-08-07 12:44:32,194241
-4,-3,-1,-2,2,1,-1,-2,2021-08-07 12:44:32,194241
2,1,0,2,0,1,1,0,2021-08-07 12:44:32,194241
-1,-1,-2,0,-1,-3,-4,-2,2021-08-07 12:44:32,194241
1,-1,-3,-3,0,-1,0,-1,2021-08-07 12:44:32,210240
3,5,4,4,5,2,1,1,2021-08-07 12:44:32,226241
-1,-4,-4,-2,-1,-3,-1,-2,2021-08-07 12:44:32,242241
-3,-4,-6,-11,-13,-8,-3,-2,2021-08-07 12:44:32,242241
1,3,4,9,10,7,3,2,2021-08-07 12:44:32,242241
0,-2,-2,-1,0,-1,0,-1,2021-08-07 12:44:32,242241
-3,0,2,0,2,2,-1,-1,2021-08-07 12:44:32,242241
-1,-1,-1,-3,-6,-4,-2,-2,2021-08-07 12:44:32,242241
-2,-5,-3,-4,-5,-3,-3,-3,2021-08-07 12:44:32,242241
1,2,1,3,3,2,1,2,2021-08-07 12:44:32,242241
2,2,3,3,2,1,0,1,2021-08-07 12:44:32,258241
-1,-2,-1,-4,-2,-2,-2,-2,2021-08-07 12:44:32,258241
-1,-1,-1,-1,-2,-1,-1,1,2021-08-07 12:44:32,266240
-2,-2,-3,-1,1,0,-1,-1,2021-08-07 12:44:32,266240
0,-1,-3,-2,2,-1,-1,-1,2021-08-07 12:44:32,290243
-1,-3,-2,-1,-2,-1,-1,0,2021-08-07 12:44:32,290243
0,0,-1,-1,-1,-2,0,0,2021-08-07 12:44:32,290243
0,0,-2,0,1,-1,-1,-1,2021-08-07 12:44:32,290243
0,2,0,1,1,1,1,-1,2021-08-07 12:44:32,306241
-1,-1,1,-2,-1,0,-1,-2,2021-08-07 12:44:32,306241
-1,0,0,-1,0,-2,-2,-1,2021-08-07 12:44:32,306241
0,0,0,-1,0,0,0,0,2021-08-07 12:44:32,306241
-2,-1,-1,-1,0,1,1,-1,2021-08-07 12:44:32,322239
0,0,-1,0,-1,-1,-1,-1,2021-08-07 12:44:32,338241
-1,0,0,-1,-2,0,0,-1,2021-08-07 12:44:32,338241
1,1,1,-1,-1,0,0,0,2021-08-07 12:44:32,338241
-2,-2,-2,0,0,-1,-1,-2,2021-08-07 12:44:32,338241
1,1,-1,-1,-2,0,-1,-1,2021-08-07 12:44:32,338241
-1,-1,-1,-2,0,-2,0,0,2021-08-07 12:44:32,338241
-1,-4,-3,-2,-3,-2,-2,-1,2021-08-07 12:44:32,338241
2,2,5,3,1,1,1,1,2021-08-07 12:44:32,369241
-2,-4,-4,-1,-2,-2,-1,-3,2021-08-07 12:44:32,385243
1,2,1,1,0,2,0,1,2021-08-07 12:44:32,401239
-1,2,2,-1,0,-1,1,-1,2021-08-07 12:44:32,417239
-4,-6,-7,-9,-11,-8,-6,-3,2021-08-07 12:44:32,433239
-2,-1,-4,-4,1,1,-1,-3,2021-08-07 12:44:32,433239
4,3,5,8,10,6,2,3,2021-08-07 12:44:32,433239
0,-2,-1,1,2,1,0,-1,2021-08-07 12:44:32,433239
0,0,-1,2,-3,0,0,0,2021-08-07 12:44:32,433239
-2,-4,-4,-5,-7,-6,-4,-3,2021-08-07 12:44:32,434243
1,-1,-1,0,1,0,0,-2,2021-08-07 12:44:32,434243
-1,0,0,1,1,0,-2,0,2021-08-07 12:44:32,434243
-2,-3,-1,-5,-5,-4,-1,-1,2021-08-07 12:44:32,434243
-1,1,2,3,0,0,0,0,2021-08-07 12:44:32,434243
-2,-1,-1,-2,-2,-5,-1,-1,2021-08-07 12:44:32,434243
1,0,2,0,-2,0,-1,2,2021-08-07 12:44:32,434243
-4,-5,-10,-10,-11,-9,-6,-5,2021-08-07 12:44:32,434243
6,10,11,14,26,18,10,7,2021-08-07 12:44:32,434243
-1,0,-2,7,11,6,1,0,2021-08-07 12:44:32,449240
-4,-3,-6,-5,-3,-4,-1,-3,2021-08-07 12:44:32,449240
3,7,8,3,3,3,2,4,2021-08-07 12:44:32,464241
-1,-4,-4,-6,-12,-8,-4,-2,2021-08-07 12:44:32,464241
-2,-4,-4,-5,-8,-5,-3,-3,2021-08-07 12:44:32,464241
-5,-6,-7,-6,-8,-6,-5,-4,2021-08-07 12:44:32,464241
2,2,2,4,6,5,2,2,2021-08-07 12:44:32,480239
-1,1,1,4,2,2,2,0,2021-08-07 12:44:32,480239
0,-2,1,0,-3,-2,0,0,2021-08-07 12:44:32,480239
-1,0,-3,-1,-2,-2,0,-2,2021-08-07 12:44:32,480239
1,0,1,1,2,2,0,1,2021-08-07 12:44:32,496241
-1,-4,-3,-5,-4,-5,-4,-2,2021-08-07 12:44:32,496241
0,-3,-4,-5,-5,-3,-1,0,2021-08-07 12:44:32,496241
1,-2,-1,-3,-4,-3,-1,-2,2021-08-07 12:44:32,496241
2,1,1,5,11,6,4,2,2021-08-07 12:44:32,512240
1,2,0,1,0,-3,1,0,2021-08-07 12:44:32,512240
0,3,0,-5,-6,-1,0,-1,2021-08-07 12:44:32,512240
0,1,2,4,5,2,1,2,2021-08-07 12:44:32,512240
0,0,-1,1,0,-3,-2,-1,2021-08-07 12:44:32,544241
-3,-5,-4,0,4,2,-1,-3,2021-08-07 12:44:32,560241
-4,-4,-5,-7,-10,-7,-5,-3,2021-08-07 12:44:32,576241
2,5,6,3,4,4,4,4,2021-08-07 12:44:32,592242
-3,-2,-4,-5,-7,-7,-4,-4,2021-08-07 12:44:32,624242
-1,-1,-1,-3,-3,-1,0,-1,2021-08-07 12:44:32,640244
0,1,0,0,-2,0,-2,0,2021-08-07 12:44:32,656239
-1,-1,0,2,5,2,-1,-1,2021-08-07 12:44:32,656239
-2,-3,-2,1,-1,-2,0,-2,2021-08-07 12:44:32,656239
-1,-1,-2,-3,-7,-3,-2,-1,2021-08-07 12:44:32,656239
-2,-2,-3,-2,-2,-2,-2,-2,2021-08-07 12:44:32,656239
2,4,2,0,3,3,1,0,2021-08-07 12:44:32,656239
2,0,2,0,3,1,1,1,2021-08-07 12:44:32,656239
0,2,2,3,-1,-1,-1,2,2021-08-07 12:44:32,657241
-2,0,-1,2,4,2,1,0,2021-08-07 12:44:32,657241
-4,-6,-8,-10,-7,-5,-4,-3,2021-08-07 12:44:32,657241
0,3,2,1,-1,-1,0,2,2021-08-07 12:44:32,657241
-1,-1,-1,-3,-4,-4,-3,-3,2021-08-07 12:44:32,657241
2,-1,2,3,4,2,1,1,2021-08-07 12:44:32,657241
-3,-4,-5,-2,-5,-1,-2,-2,2021-08-07 12:44:32,657241
-2,-1,-1,0,4,3,0,-1,2021-08-07 12:44:32,657241
-1,-3,-2,-5,-3,-3,-1,-2,2021-08-07 12:44:32,658242
2,3,4,6,6,3,1,1,2021-08-07 12:44:32,658242
-1,0,-2,0,-1,-1,-1,-1,2021-08-07 12:44:32,658242
-2,-2,-2,-2,-3,0,-2,-2,2021-08-07 12:44:32,658242
0,0,0,-4,-4,-1,-2,-1,2021-08-07 12:44:32,658242
-1,-3,-2,-4,-8,-7,-3,-1,2021-08-07 12:44:32,658242
0,0,2,2,3,3,2,0,2021-08-07 12:44:32,658242
-2,-4,-2,-4,-3,-2,-1,-2,2021-08-07 12:44:32,687276
-1,1,-1,0,0,-1,-1,0,2021-08-07 12:44:32,698274
-1,-3,-3,0,0,1,-1,-3,2021-08-07 12:44:32,698274
3,1,-1,-3,-4,-2,-1,2,2021-08-07 12:44:32,698274
1,3,5,9,12,8,4,0,2021-08-07 12:44:32,698274
1,2,3,-2,-2,-1,1,0,2021-08-07 12:44:32,699277
0,1,-1,-3,-3,-1,1,-1,2021-08-07 12:44:32,699277
-4,-2,-3,-1,-3,-4,-2,-4,2021-08-07 12:44:32,699277
-2,-2,-4,-6,-10,-5,-4,-1,2021-08-07 12:44:32,719274
0,-2,-3,1,4,2,0,1,2021-08-07 12:44:32,719274
0,1,-1,-3,-7,-3,-3,-2,2021-08-07 12:44:32,719274
1,1,2,2,3,0,0,0,2021-08-07 12:44:32,719274
0,-2,-2,-2,-1,3,0,1,2021-08-07 12:44:32,751274
-1,-3,-2,2,-1,-3,-2,-2,2021-08-07 12:44:32,751274
-2,-4,-2,-5,-5,-3,-4,-1,2021-08-07 12:44:32,751274
2,5,5,6,3,2,1,0,2021-08-07 12:44:32,751274
0,2,1,1,2,0,1,0,2021-08-07 12:44:32,751274
-1,-3,-4,-5,-7,-5,-4,-3,2021-08-07 12:44:32,751274
-3,-3,-3,-2,2,-1,0,0,2021-08-07 12:44:32,752275
-2,-1,1,4,7,5,3,0,2021-08-07 12:44:32,752275
0,-2,0,-3,-3,-4,-2,1,2021-08-07 12:44:32,783279
-1,2,1,0,-1,0,1,-1,2021-08-07 12:44:32,799274
0,-1,0,1,1,-1,-2,-2,2021-08-07 12:44:32,814275
-1,-1,-1,-4,-6,-4,-2,-2,2021-08-07 12:44:32,830274
0,-2,-2,0,2,3,1,-1,2021-08-07 12:44:32,861276
-3,-4,-5,-5,-6,-3,-2,-2,2021-08-07 12:44:32,861276
0,0,-2,-3,-3,-2,-1,-2,2021-08-07 12:44:32,861276
1,1,1,3,4,0,0,0,2021-08-07 12:44:32,861276
-2,-6,-5,-2,0,-2,-3,-4,2021-08-07 12:44:32,861276
-1,1,-1,1,2,0,-1,0,2021-08-07 12:44:32,861276
1,1,3,5,2,1,2,3,2021-08-07 12:44:32,861276
-1,-2,-2,-2,-7,-3,-3,0,2021-08-07 12:44:32,861276
-2,-2,-4,-4,-6,-6,-4,-4,2021-08-07 12:44:32,861276
3,4,4,6,9,6,4,3,2021-08-07 12:44:32,861276
1,1,0,4,12,9,4,3,2021-08-07 12:44:32,862277
-1,-1,-2,-2,-4,-1,-1,-3,2021-08-07 12:44:32,862277
-1,1,1,0,-3,-2,-2,-2,2021-08-07 12:44:32,862277
-3,-3,-2,-4,-7,-4,-4,-3,2021-08-07 12:44:32,862277
-1,0,0,0,-3,-1,-1,-2,2021-08-07 12:44:32,862277
-2,0,0,1,3,0,1,-1,2021-08-07 12:44:32,862277
-2,-1,-2,-2,-5,-4,-3,-1,2021-08-07 12:44:32,877275
-2,-3,-6,-5,-7,-4,-3,-3,2021-08-07 12:44:32,877275
1,-1,-1,3,10,8,2,0,2021-08-07 12:44:32,877275
2,2,2,2,0,0,1,1,2021-08-07 12:44:32,877275
-1,-2,-1,1,5,3,1,0,2021-08-07 12:44:32,908794
-2,0,1,-1,-3,-3,-2,-1,2021-08-07 12:44:32,923793
-2,-2,-3,-4,-8,-6,-6,-4,2021-08-07 12:44:32,955797
-1,-3,-4,-4,-4,-2,-2,-2,2021-08-07 12:44:32,971792
1,3,4,4,4,3,2,2,2021-08-07 12:44:32,971792
1,-1,1,0,0,-1,0,0,2021-08-07 12:44:32,971792
-2,-2,-2,-3,-3,-2,-1,-1,2021-08-07 12:44:32,971792
1,0,0,0,1,-1,0,1,2021-08-07 12:44:32,971792
-2,-2,-3,-5,-3,-3,-3,-2,2021-08-07 12:44:32,971792
0,-3,-1,0,2,1,0,0,2021-08-07 12:44:32,971792
-1,-1,0,1,2,0,0,1,2021-08-07 12:44:32,972794
-1,-2,-2,-3,-6,-5,-3,-2,2021-08-07 12:44:32,972794
-2,-1,-2,0,-4,-5,-3,-2,2021-08-07 12:44:32,972794
1,0,1,4,12,8,4,2,2021-08-07 12:44:32,972794
1,1,-1,-1,-1,-2,0,-1,2021-08-07 12:44:32,972794
-1,0,0,-1,-1,0,-2,-1,2021-08-07 12:44:32,972794
-4,-2,-4,-4,-7,-4,-3,-2,2021-08-07 12:44:32,987794
-1,-1,-2,-4,-6,-3,-4,-1,2021-08-07 12:44:33,003792
0,1,0,0,0,-1,1,0,2021-08-07 12:44:33,003792
-1,-3,-5,-2,-1,-1,0,-1,2021-08-07 12:44:33,003792
0,-2,-1,0,1,1,1,0,2021-08-07 12:44:33,003792
0,1,0,1,0,2,3,1,2021-08-07 12:44:33,003792
0,3,5,10,8,5,1,-1,2021-08-07 12:44:33,003792
-2,-2,-2,-2,-1,-1,1,-1,2021-08-07 12:44:33,003792
-5,-6,-7,-14,-17,-11,-6,-5,2021-08-07 12:44:33,019793
-1,-4,0,-3,-7,-6,-6,-3,2021-08-07 12:44:33,019793
4,5,2,-4,1,2,1,2,2021-08-07 12:44:33,019793
1,3,3,5,5,4,1,1,2021-08-07 12:44:33,019793
0,-1,-2,-3,0,-1,0,0,2021-08-07 12:44:33,051795
-2,-1,-2,-1,2,-1,0,-1,2021-08-07 12:44:33,051795
-2,-1,1,5,-2,-3,-3,-1,2021-08-07 12:44:33,051795
1,-1,-1,1,-2,-2,-4,-2,2021-08-07 12:44:33,051795
0,1,-1,-6,1,2,0,0,2021-08-07 12:44:33,051795
0,1,-1,-2,2,2,1,1,2021-08-07 12:44:33,051795
1,0,0,-3,-1,0,2,-1,2021-08-07 12:44:33,051795
-1,-3,-3,0,-5,-4,-2,-1,2021-08-07 12:44:33,051795
-3,-6,-5,-2,-6,-3,-2,-3,2021-08-07 12:44:33,082792
2,4,3,5,9,6,4,2,2021-08-07 12:44:33,082792
2,2,3,9,14,7,5,3,2021-08-07 12:44:33,082792
-3,-1,-2,-5,-5,-2,-2,-3,2021-08-07 12:44:33,082792
1,1,1,3,5,1,0,0,2021-08-07 12:44:33,113793
-4,-5,-6,-9,-7,-4,-3,-3,2021-08-07 12:44:33,127791
-1,-2,0,-2,-5,-2,-1,-1,2021-08-07 12:44:33,127791
0,1,1,-5,-3,-1,-2,1,2021-08-07 12:44:33,127791
-1,-2,0,3,1,-1,-2,-2,2021-08-07 12:44:33,128794
0,-2,-2,0,-1,-1,-2,-3,2021-08-07 12:44:33,128794
-2,-3,-2,-6,-9,-6,-2,-1,2021-08-07 12:44:33,128794
1,0,1,-2,0,1,1,3,2021-08-07 12:44:33,128794
1,3,1,0,-2,-1,1,0,2021-08-07 12:44:33,145796
1,1,3,6,7,1,2,0,2021-08-07 12:44:33,145796
-1,-2,-1,-7,-9,-5,-2,0,2021-08-07 12:44:33,145796
-1,-2,-3,3,5,2,1,1,2021-08-07 12:44:33,145796
2,0,1,4,6,2,1,1,2021-08-07 12:44:33,176794
-3,-2,-2,-1,-4,-2,0,-1,2021-08-07 12:44:33,176794
-3,-4,-3,-5,-10,-6,-4,-3,2021-08-07 12:44:33,192792
-1,-3,-2,-2,2,1,0,-1,2021-08-07 12:44:33,192792
-1,1,3,0,0,-1,-1,-1,2021-08-07 12:44:33,192792
-1,-1,-3,-5,-13,-10,-3,-2,2021-08-07 12:44:33,192792
-1,0,-1,6,13,7,3,2,2021-08-07 12:44:33,192792
0,1,2,1,0,-2,-1,0,2021-08-07 12:44:33,192792
-1,-2,-1,3,8,5,1,0,2021-08-07 12:44:33,224792
-1,-2,-3,-7,-14,-10,-5,0,2021-08-07 12:44:33,224792
0,0,-1,-1,3,4,-1,-1,2021-08-07 12:44:33,224792
0,-1,0,3,3,1,0,-1,2021-08-07 12:44:33,224792
-1,-1,1,1,1,-2,0,0,2021-08-07 12:44:33,225329
-2,-3,-2,3,7,4,3,-2,2021-08-07 12:44:33,225329
-3,-5,-7,-10,-11,-7,-4,-3,2021-08-07 12:44:33,225329
3,6,5,1,-6,-3,-1,0,2021-08-07 12:44:33,225794
2,2,4,4,3,4,2,1,2021-08-07 12:44:33,240825
1,0,1,-3,-5,0,4,2,2021-08-07 12:44:33,240825
-3,-4,-2,-2,-3,-4,-6,-4,2021-08-07 12:44:33,240825
-3,-3,-5,-5,-2,-4,-5,-3,2021-08-07 12:44:33,240825
-3,-2,-2,-5,-11,-6,-2,-2,2021-08-07 12:44:33,272825
1,0,1,-1,5,1,1,1,2021-08-07 12:44:33,288825
2,3,3,1,3,3,4,2,2021-08-07 12:44:33,288825
-2,-3,-3,-1,-5,-4,-3,-2,2021-08-07 12:44:33,288825
2,3,2,5,9,5,1,1,2021-08-07 12:44:33,288825
0,0,-2,-1,-4,-3,-2,1,2021-08-07 12:44:33,288825
0,-1,-2,-1,-2,1,1,0,2021-08-07 12:44:33,288825
-3,-1,1,6,8,2,-2,-3,2021-08-07 12:44:33,288825
-4,-6,-5,-7,-8,-5,-3,-2,2021-08-07 12:44:33,304826
1,0,1,3,4,2,-2,0,2021-08-07 12:44:33,304826
4,3,1,0,3,-1,2,2,2021-08-07 12:44:33,304826
-1,-1,-1,0,0,-1,1,-2,2021-08-07 12:44:33,304826
2,4,3,1,2,2,2,0,2021-08-07 12:44:33,320827
-3,-4,-4,-7,-11,-9,-5,-1,2021-08-07 12:44:33,320827
1,3,2,2,1,0,1,0,2021-08-07 12:44:33,320827
-3,-4,-6,-4,-2,-1,-2,0,2021-08-07 12:44:33,320827
0,0,0,-2,-1,0,-1,-1,2021-08-07 12:44:33,351826
1,1,2,-3,-4,-1,-1,0,2021-08-07 12:44:33,351826
-1,-1,0,6,7,4,2,0,2021-08-07 12:44:33,351826
1,2,1,-1,-1,2,2,1,2021-08-07 12:44:33,351826
-1,-2,0,1,-1,-1,-2,-1,2021-08-07 12:44:33,351826
1,0,2,3,9,6,2,0,2021-08-07 12:44:33,351826
-1,-1,-1,-2,-2,-3,0,-3,2021-08-07 12:44:33,367826
-3,-2,-1,-5,-7,-6,-2,-2,2021-08-07 12:44:33,367826
-1,-3,-3,-3,-7,-4,-3,-2,2021-08-07 12:44:33,383829
-1,1,0,3,5,3,1,-1,2021-08-07 12:44:33,383829
-2,-1,-1,-2,-4,-4,-2,0,2021-08-07 12:44:33,383829
0,-3,-2,-2,-1,-2,0,-2,2021-08-07 12:44:33,383829
0,0,-3,-3,-2,-2,-1,-1,2021-08-07 12:44:33,413826
1,0,1,3,4,3,2,1,2021-08-07 12:44:33,429826
-3,0,-2,-2,-3,-2,-3,0,2021-08-07 12:44:33,429826
-2,0,0,-1,0,2,0,0,2021-08-07 12:44:33,429826
-1,-2,-6,-6,-10,-7,-4,-1,2021-08-07 12:44:33,429826
3,4,5,11,20,16,8,3,2021-08-07 12:44:33,429826
-1,-3,-3,-7,-9,-6,-4,-2,2021-08-07 12:44:33,429826
-1,-3,-1,-3,-6,-4,-3,-1,2021-08-07 12:44:33,429826
3,4,4,2,1,1,2,1,2021-08-07 12:44:33,445826
-1,0,0,2,-1,-4,-2,-1,2021-08-07 12:44:33,446046
0,-1,-3,-2,-2,-4,-2,1,2021-08-07 12:44:33,461826
-1,-1,-2,0,-1,-2,-1,-1,2021-08-07 12:44:33,477826
-3,-5,-3,-3,-4,-3,-2,-3,2021-08-07 12:44:33,477826
-4,-4,-5,-3,-6,-3,-4,-2,2021-08-07 12:44:33,477826
0,-3,-1,-2,-1,1,0,-2,2021-08-07 12:44:33,477826
1,2,1,1,-2,-2,-2,-1,2021-08-07 12:44:33,477826
-1,0,1,3,4,0,0,2,2021-08-07 12:44:33,493825
-2,-1,0,1,3,2,1,-1,2021-08-07 12:44:33,493825
-2,-4,-4,-4,-5,-4,-4,0,2021-08-07 12:44:33,493825
-2,-2,-2,-2,-2,-4,-1,-1,2021-08-07 12:44:33,493825
2,2,2,5,6,3,2,2,2021-08-07 12:44:33,493825
-1,-1,-3,-6,-8,-6,-4,-2,2021-08-07 12:44:33,493825
0,0,1,1,0,0,-1,-2,2021-08-07 12:44:33,494826
-1,-3,-2,-3,-1,0,1,0,2021-08-07 12:44:33,494826
-2,-3,0,-1,-1,1,-1,-2,2021-08-07 12:44:33,525827
3,3,2,-2,2,3,0,1,2021-08-07 12:44:33,541824
-1,0,-2,1,0,0,1,-1,2021-08-07 12:44:33,541824
-2,-1,-1,-2,-2,-3,-1,-1,2021-08-07 12:44:33,541824
-2,-2,-7,-4,-6,-4,-2,-3,2021-08-07 12:44:33,541824
-1,1,-2,-4,-7,-4,0,-1,2021-08-07 12:44:33,541824
0,1,3,11,16,10,4,1,2021-08-07 12:44:33,541824
1,1,1,3,3,1,0,2,2021-08-07 12:44:33,541824
0,0,-1,-4,-4,-1,-2,-2,2021-08-07 12:44:33,557828
-1,-2,-2,-2,-6,-6,-3,-3,2021-08-07 12:44:33,557828
-1,-2,-1,-4,-3,-2,-2,-2,2021-08-07 12:44:33,557828
-2,-2,-1,-2,-1,0,-1,-2,2021-08-07 12:44:33,557828
-2,2,1,0,2,-2,-1,-1,2021-08-07 12:44:33,589824
-2,1,0,-1,-4,-3,-1,-1,2021-08-07 12:44:33,605826
-1,-3,-1,-9,-10,-6,-4,-1,2021-08-07 12:44:33,605826
0,0,-3,3,8,5,1,-1,2021-08-07 12:44:33,605826
0,1,2,6,11,8,1,2,2021-08-07 12:44:33,605826
-1,-3,-3,0,0,-2,0,-2,2021-08-07 12:44:33,605826
1,1,-1,-4,-5,-3,-1,0,2021-08-07 12:44:33,605826
0,1,1,2,3,2,-1,1,2021-08-07 12:44:33,606825
-2,-2,-3,-2,-1,-2,-1,-1,2021-08-07 12:44:33,621826
-3,-4,-2,-2,-3,-2,-1,-2,2021-08-07 12:44:33,621826
-2,-4,-4,-5,-7,-5,-2,-1,2021-08-07 12:44:33,621826
1,4,2,0,-4,0,1,0,2021-08-07 12:44:33,621826
-3,-5,-4,-4,-7,-7,-4,-3,2021-08-07 12:44:33,653827
3,3,4,1,5,5,3,3,2021-08-07 12:44:33,669825
1,2,3,11,15,10,4,1,2021-08-07 12:44:33,685827
0,-2,-1,1,4,0,0,-2,2021-08-07 12:44:33,701826
1,-1,-1,-2,-5,-3,-2,-1,2021-08-07 12:44:33,717825
-3,-4,-4,-5,-9,-7,-5,-4,2021-08-07 12:44:33,717825
1,2,0,-1,-3,-1,1,0,2021-08-07 12:44:33,717825
-1,-2,-2,-3,-1,-1,-1,1,2021-08-07 12:44:33,717825
-2,-4,-2,-2,-2,-3,-4,-3,2021-08-07 12:44:33,717825
3,4,3,2,2,1,0,2,2021-08-07 12:44:33,717825
0,1,-1,2,1,0,-2,-1,2021-08-07 12:44:33,717825
-1,-1,-2,1,1,0,-1,-2,2021-08-07 12:44:33,718827
1,0,-3,-5,-5,-3,-1,1,2021-08-07 12:44:33,718827
2,2,1,9,12,10,5,2,2021-08-07 12:44:33,718827
0,1,0,0,2,0,1,0,2021-08-07 12:44:33,718827
-2,-4,-4,0,-3,-5,-2,-4,2021-08-07 12:44:33,718827
0,1,1,-7,-8,-5,-3,0,2021-08-07 12:44:33,718827
1,1,1,5,13,8,6,3,2021-08-07 12:44:33,718827
-2,-4,-6,-10,-14,-10,-7,-2,2021-08-07 12:44:33,733824
-3,-6,-4,-12,-14,-8,-5,-2,2021-08-07 12:44:33,733824
-2,-1,-1,6,8,6,0,-1,2021-08-07 12:44:33,733824
3,5,4,-2,0,1,0,2,2021-08-07 12:44:33,733824
2,-1,0,2,0,0,1,0,2021-08-07 12:44:33,734828
0,-1,-3,-2,0,0,-1,0,2021-08-07 12:44:33,734828
-1,0,1,6,4,2,1,0,2021-08-07 12:44:33,764828
-5,-6,-3,-7,-9,-8,-6,-5,2021-08-07 12:44:33,764828
2,4,5,5,5,4,2,2,2021-08-07 12:44:33,780826
-2,-1,1,3,6,1,-2,0,2021-08-07 12:44:33,796826
1,1,0,5,8,5,3,1,2021-08-07 12:44:33,828826
-2,-3,-3,0,-3,-3,-2,-2,2021-08-07 12:44:33,828826
-2,-2,-3,-6,-11,-8,-3,-2,2021-08-07 12:44:33,828826
0,1,2,0,6,6,4,1,2021-08-07 12:44:33,844826
1,-1,1,0,0,0,2,2,2021-08-07 12:44:33,860826
-2,-4,-3,-2,-5,-4,-3,-3,2021-08-07 12:44:33,860826
-2,-1,-1,-2,-1,-3,-2,-1,2021-08-07 12:44:33,860826
0,0,0,4,5,0,-1,0,2021-08-07 12:44:33,860826
1,1,-1,-3,0,2,0,1,2021-08-07 12:44:33,860826
0,-1,-2,-9,-8,-4,-2,0,2021-08-07 12:44:33,860826
-2,-3,-3,-1,-2,1,0,-1,2021-08-07 12:44:33,860826
-2,0,0,2,0,0,1,-1,2021-08-07 12:44:33,860826
-5,-3,-1,0,-1,-5,-3,-5,2021-08-07 12:44:33,860826
-1,1,1,2,4,1,-1,0,2021-08-07 12:44:33,861827
-2,-2,-2,-3,-1,0,0,-2,2021-08-07 12:44:33,861827
1,1,0,-3,-5,-2,-2,0,2021-08-07 12:44:33,861827
0,1,0,1,0,0,1,0,2021-08-07 12:44:33,861827
-2,-2,-3,-2,-4,-3,-3,-1,2021-08-07 12:44:33,861827
1,1,1,1,7,3,0,1,2021-08-07 12:44:33,861827
-1,-1,-3,-2,-9,-4,0,0,2021-08-07 12:44:33,861827
1,-1,-2,-4,-3,0,0,0,2021-08-07 12:44:33,907826
-1,0,-3,-3,2,1,0,0,2021-08-07 12:44:33,923824
-1,-1,0,-2,-2,-1,-1,0,2021-08-07 12:44:33,923824
0,1,0,3,4,3,0,-1,2021-08-07 12:44:33,923824
-1,-1,-1,-8,-4,-3,-2,0,2021-08-07 12:44:33,923824
0,0,1,5,4,1,0,0,2021-08-07 12:44:33,923824
0,-2,-3,-2,-2,-4,-1,-2,2021-08-07 12:44:33,924828
-2,-7,-7,-6,-1,-1,-1,-2,2021-08-07 12:44:33,924828
1,4,2,0,2,0,1,0,2021-08-07 12:44:33,939826
-1,-1,-1,1,0,1,0,1,2021-08-07 12:44:33,939826
-2,0,-2,-3,-3,-3,-3,-2,2021-08-07 12:44:33,939826
-1,0,-2,-2,-5,-3,-2,-2,2021-08-07 12:44:33,939826
-4,-3,-4,-1,-2,-2,-2,-1,2021-08-07 12:44:33,939826
0,0,-1,-3,-6,-4,-2,0,2021-08-07 12:44:33,939826
0,0,0,0,-2,-1,0,1,2021-08-07 12:44:33,955826
-3,-4,-4,-4,0,-1,-1,-3,2021-08-07 12:44:33,970827
-1,2,0,2,-3,0,0,-1,2021-08-07 12:44:33,986826
1,0,0,1,0,1,0,0,2021-08-07 12:44:33,986826
0,1,2,3,3,2,1,1,2021-08-07 12:44:33,986826
-3,-3,-2,-6,-7,-4,-3,-2,2021-08-07 12:44:33,986826
-1,-1,0,4,5,1,0,-1,2021-08-07 12:44:33,986826
-1,-1,-2,-4,-8,-5,-2,-1,2021-08-07 12:44:33,986826
2,3,3,4,9,7,5,1,2021-08-07 12:44:33,987829
1,3,2,2,-1,-2,-2,0,2021-08-07 12:44:33,987829
-4,-2,-1,-4,-4,-3,-3,-3,2021-08-07 12:44:34,002826
-1,0,-2,5,8,4,2,-1,2021-08-07 12:44:34,002826
-3,-5,-3,-6,-9,-7,-5,-3,2021-08-07 12:44:34,002826
-1,-1,0,-4,-5,-3,-1,0,2021-08-07 12:44:34,002826
3,5,5,6,0,0,2,3,2021-08-07 12:44:34,048825
1,0,3,2,9,6,3,0,2021-08-07 12:44:34,064825
-4,-4,-5,2,2,-1,-3,-1,2021-08-07 12:44:34,064825
-1,-1,0,-3,-6,-3,-2,0,2021-08-07 12:44:34,064825
-4,-4,-4,-2,1,-1,-2,-3,2021-08-07 12:44:34,064825
-2,-2,-2,-3,-3,-2,-1,-1,2021-08-07 12:44:34,064825
-1,1,1,1,0,-1,-1,-2,2021-08-07 12:44:34,064825
-1,-2,-1,-3,-4,-1,-3,-2,2021-08-07 12:44:34,064825
-1,0,-3,-3,-1,1,-1,0,2021-08-07 12:44:34,064825
2,3,1,4,7,4,0,1,2021-08-07 12:44:34,064825
0,-1,-1,0,0,1,0,0,2021-08-07 12:44:34,065827
-2,0,0,-1,-4,-4,-3,-1,2021-08-07 12:44:34,065827
2,0,-2,-1,1,-1,1,0,2021-08-07 12:44:34,096825
0,-1,1,-1,-2,-2,-1,-1,2021-08-07 12:44:34,096825
0,2,1,0,1,1,0,-2,2021-08-07 12:44:34,096825
-1,-2,-1,-5,-5,-5,-2,0,2021-08-07 12:44:34,096825
2,-2,-2,0,2,4,-1,0,2021-08-07 12:44:34,096825
-1,-1,-1,0,-1,-1,0,1,2021-08-07 12:44:34,112829
2,4,4,5,6,1,1,2,2021-08-07 12:44:34,128826
0,2,0,4,9,5,2,-1,2021-08-07 12:44:34,144827
-4,-6,-6,-9,-9,-7,-4,-3,2021-08-07 12:44:34,160826
1,2,0,1,0,0,-1,1,2021-08-07 12:44:34,176826
-1,0,0,-3,-4,-1,-1,0,2021-08-07 12:44:34,176826
-3,-1,-2,0,-4,-5,-2,-2,2021-08-07 12:44:34,176826
-1,0,-2,-1,1,1,1,-1,2021-08-07 12:44:34,176826
1,3,3,2,-1,0,1,2,2021-08-07 12:44:34,176826
0,1,-1,-1,2,1,1,0,2021-08-07 12:44:34,176826
2,3,3,1,0,2,1,2,2021-08-07 12:44:34,176826
-1,-3,-2,5,8,2,2,-1,2021-08-07 12:44:34,177828
-4,-5,-4,-7,-6,-5,-4,-5,2021-08-07 12:44:34,177828
-1,-3,-3,-2,-3,-3,-3,-2,2021-08-07 12:44:34,177828
1,2,1,2,5,6,0,3,2021-08-07 12:44:34,177828
-1,0,0,0,0,-3,0,-1,2021-08-07 12:44:34,177828
-1,-1,-2,-8,-9,-5,-3,-1,2021-08-07 12:44:34,177828
-1,-1,1,2,0,-1,-1,-1,2021-08-07 12:44:34,177828
3,2,4,6,8,5,3,1,2021-08-07 12:44:34,177828
0,0,-2,-4,-8,-4,-3,0,2021-08-07 12:44:34,208826
0,0,0,2,-1,-1,1,-2,2021-08-07 12:44:34,224826
0,-2,-1,-3,3,2,2,3,2021-08-07 12:44:34,224826
-2,-5,-3,-3,-6,-4,-5,-2,2021-08-07 12:44:34,224826
-2,-1,1,5,10,6,-2,-2,2021-08-07 12:44:34,224826
-2,-2,-3,-3,-2,-2,-1,0,2021-08-07 12:44:34,224826
-3,-2,-4,-7,-11,-6,-2,-2,2021-08-07 12:44:34,224826
-4,-6,-4,-1,2,2,1,-3,2021-08-07 12:44:34,224826
5,8,10,10,12,8,7,5,2021-08-07 12:44:34,240827
-2,-1,-3,3,6,2,-2,-2,2021-08-07 12:44:34,256826
0,-1,1,0,0,-2,0,0,2021-08-07 12:44:34,272827
-1,-1,-5,-6,-10,-8,-5,-2,2021-08-07 12:44:34,272827
0,0,1,-8,-14,-7,-4,-2,2021-08-07 12:44:34,272827
-2,-2,0,1,5,1,1,-1,2021-08-07 12:44:34,272827
2,2,2,4,4,3,2,1,2021-08-07 12:44:34,272827
-5,-7,-5,-4,-5,-5,-3,-4,2021-08-07 12:44:34,272827
0,-1,-5,-7,-9,-5,-4,-1,2021-08-07 12:44:34,273829
0,0,0,2,-3,1,0,1,2021-08-07 12:44:34,273829
-3,-3,0,1,1,0,-2,-3,2021-08-07 12:44:34,288825
2,0,2,-1,3,2,-1,0,2021-08-07 12:44:34,288825
-1,-1,0,7,12,9,5,1,2021-08-07 12:44:34,304827
-2,-4,-4,-4,-9,-8,-3,-3,2021-08-07 12:44:34,304827
-3,-2,-4,-11,-11,-4,-4,-1,2021-08-07 12:44:34,304827
1,4,3,3,5,3,2,1,2021-08-07 12:44:34,304827
1,-3,-2,-2,-1,-1,-2,-1,2021-08-07 12:44:34,336825
-2,-2,0,0,3,2,1,1,2021-08-07 12:44:34,352824
-1,0,-2,-1,-2,0,-1,0,2021-08-07 12:44:34,352824
1,-1,-1,-7,-12,-7,-3,-1,2021-08-07 12:44:34,368825
-1,-1,0,-1,-4,-2,-2,0,2021-08-07 12:44:34,368825
1,1,0,7,17,10,3,0,2021-08-07 12:44:34,368825
-1,-1,0,-2,-2,-1,-1,-1,2021-08-07 12:44:34,368825
1,0,-2,-1,1,1,0,1,2021-08-07 12:44:34,368825
-3,-3,-2,-7,-12,-9,-6,-4,2021-08-07 12:44:34,368825
6,9,7,11,19,15,7,6,2021-08-07 12:44:34,368825
-2,-2,-5,-9,-13,-9,-7,-2,2021-08-07 12:44:34,384828
0,2,2,13,19,9,5,1,2021-08-07 12:44:34,400824
-4,-5,-5,-8,-8,-5,-3,-3,2021-08-07 12:44:34,400824
-2,-4,-4,-4,-8,-4,-3,-3,2021-08-07 12:44:34,400824
3,4,4,7,11,5,3,1,2021-08-07 12:44:34,400824
-1,-3,-3,-8,-9,-5,-2,-2,2021-08-07 12:44:34,400824
-1,-3,-6,-5,-6,-7,-3,-2,2021-08-07 12:44:34,400824
0,3,2,-7,-16,-10,-4,0,2021-08-07 12:44:34,400824
1,1,3,9,18,15,5,3,2021-08-07 12:44:34,416828
-4,-4,-2,-4,-6,-5,-3,-2,2021-08-07 12:44:34,432828
0,2,4,-3,-12,-6,0,0,2021-08-07 12:44:34,432828
-2,-3,-4,-3,3,2,-2,-2,2021-08-07 12:44:34,432828
-2,-4,-4,0,3,-3,-1,-2,2021-08-07 12:44:34,432828
-2,1,1,3,-3,0,0,0,2021-08-07 12:44:34,448827
0,0,1,7,19,12,5,1,2021-08-07 12:44:34,453825
1,-1,-3,-6,-3,-5,-2,-2,2021-08-07 12:44:34,453825
-2,-1,-3,-5,-12,-7,-4,-3,2021-08-07 12:44:34,453825
-3,-4,-4,-7,-14,-15,-8,-2,2021-08-07 12:44:34,454825
-8,-11,-16,-44,-88,-46,-20,-7,2021-08-07 12:44:34,454825
12,15,22,62,95,91,42,17,2021-08-07 12:44:34,464826
1,2,3,16,19,8,3,-1,2021-08-07 12:44:34,464826
-1,-2,-3,-2,-19,-12,-7,-3,2021-08-07 12:44:34,464826
2,3,1,-12,-15,-11,-5,1,2021-08-07 12:44:34,495825
-9,-12,-16,-38,-57,-37,-22,-9,2021-08-07 12:44:34,495825
0,-1,1,6,20,17,8,2,2021-08-07 12:44:34,495825
1,1,0,1,-5,-5,-3,0,2021-08-07 12:44:34,495825
4,3,5,21,33,20,8,3,2021-08-07 12:44:34,511826
-7,-7,-9,-20,-41,-31,-16,-7,2021-08-07 12:44:34,511826
0,-1,1,1,2,2,1,1,2021-08-07 12:44:34,511826
-4,1,-1,-3,-3,-5,-3,-2,2021-08-07 12:44:34,511826
2,5,4,14,19,11,7,2,2021-08-07 12:44:34,527825
1,-2,1,4,8,3,2,0,2021-08-07 12:44:34,527825
-2,-2,-4,-11,-20,-14,-6,-3,2021-08-07 12:44:34,527825
1,-1,0,1,2,6,4,1,2021-08-07 12:44:34,527825
3,4,1,5,18,12,6,3,2021-08-07 12:44:34,543827
-4,-2,-4,-12,-25,-22,-10,-5,2021-08-07 12:44:34,559826
0,-2,1,8,15,8,1,0,2021-08-07 12:44:34,575827
3,1,2,-1,3,8,2,1,2021-08-07 12:44:34,575827
-2,-4,-3,-1,6,2,0,0,2021-08-07 12:44:34,575827
-1,-2,0,-3,-14,-13,-5,-1,2021-08-07 12:44:34,575827
0,0,1,-1,-3,-1,1,-1,2021-08-07 12:44:34,575827
-1,-2,-2,8,25,15,4,1,2021-08-07 12:44:34,575827
-1,1,1,-2,-10,-6,-1,-1,2021-08-07 12:44:34,591827
-3,-4,-6,-25,-42,-29,-13,-5,2021-08-07 12:44:34,591827
3,4,5,16,18,18,6,3,2021-08-07 12:44:34,607824
0,1,0,6,12,6,2,0,2021-08-07 12:44:34,607824
-1,-2,-5,-1,2,-2,-2,-1,2021-08-07 12:44:34,607824
1,3,4,14,23,11,4,1,2021-08-07 12:44:34,607824
-1,1,-1,-12,-29,-18,-8,-2,2021-08-07 12:44:34,607824
-4,-6,-8,-22,-26,-12,-7,-3,2021-08-07 12:44:34,607824
-2,0,-2,-4,-3,3,-1,0,2021-08-07 12:44:34,623826
1,1,0,10,24,15,6,1,2021-08-07 12:44:34,623826
-1,-3,-2,4,5,-1,-1,-3,2021-08-07 12:44:34,639825
2,1,1,9,7,3,1,1,2021-08-07 12:44:34,655825
-2,-5,-3,-8,-13,-7,-4,-1,2021-08-07 12:44:34,687826
-2,-2,-1,-3,-5,-2,-1,-2,2021-08-07 12:44:34,703825
-4,-2,-2,-10,-22,-16,-8,-3,2021-08-07 12:44:34,703825
0,3,4,11,16,11,5,-1,2021-08-07 12:44:34,703825
-1,1,2,3,15,7,2,-1,2021-08-07 12:44:34,703825
2,2,0,7,10,4,0,1,2021-08-07 12:44:34,703825
-1,-1,-4,-14,-20,-14,-7,-3,2021-08-07 12:44:34,703825
0,-3,-5,-23,-31,-9,-3,0,2021-08-07 12:44:34,704826
8,4,4,11,12,7,8,7,2021-08-07 12:44:34,704826
0,2,4,8,15,11,3,1,2021-08-07 12:44:34,704826
-5,-4,-4,5,12,2,-4,-4,2021-08-07 12:44:34,704826
-7,-6,-5,-4,-4,-11,-6,-6,2021-08-07 12:44:34,704826
1,1,3,7,6,-1,0,0,2021-08-07 12:44:34,704826
-2,-6,-8,-15,-30,-15,-6,-2,2021-08-07 12:44:34,704826
0,4,4,13,31,19,6,0,2021-08-07 12:44:34,704826
2,5,5,5,5,5,4,4,2021-08-07 12:44:34,719826
-3,-5,-4,-2,-5,-5,-8,-6,2021-08-07 12:44:34,735824
0,-2,-4,-17,-27,-15,-4,-3,2021-08-07 12:44:34,735824
-3,-3,-4,-9,-11,-3,-1,-1,2021-08-07 12:44:34,735824
2,3,2,8,16,10,3,2,2021-08-07 12:44:34,735824
-1,-2,-2,-4,-5,0,-1,1,2021-08-07 12:44:34,751825
-1,-1,-2,-7,-9,-8,-5,-2,2021-08-07 12:44:34,751825
0,-2,-1,0,2,3,1,1,2021-08-07 12:44:34,751825
5,9,10,26,47,24,12,8,2021-08-07 12:44:34,751825
-5,-5,-8,-30,-48,-27,-13,-8,2021-08-07 12:44:34,767825
4,7,8,32,40,21,10,3,2021-08-07 12:44:34,783826
1,-4,-6,-8,-7,-2,1,-1,2021-08-07 12:44:34,799826
-4,-5,-8,-8,-14,-10,-4,-4,2021-08-07 12:44:34,799826
-5,-2,-4,-8,-15,-11,-7,-3,2021-08-07 12:44:34,799826
-2,-4,-2,-1,-3,-2,-2,-1,2021-08-07 12:44:34,799826
1,1,1,-1,0,1,1,3,2021-08-07 12:44:34,799826
-1,-3,0,1,-8,-5,-4,-3,2021-08-07 12:44:34,799826
1,3,4,16,28,17,10,2,2021-08-07 12:44:34,800827
-2,-2,-4,-8,-15,-11,-5,-2,2021-08-07 12:44:34,800827
-1,-2,-3,-9,-15,-8,-2,-2,2021-08-07 12:44:34,815828
-4,-2,-3,-6,-1,-5,-2,-2,2021-08-07 12:44:34,831824
-3,-5,-5,-5,-8,-1,-4,-3,2021-08-07 12:44:34,863826
3,4,5,8,19,12,7,5,2021-08-07 12:44:34,863826
2,1,1,5,3,-2,-1,1,2021-08-07 12:44:34,863826
-1,-2,-2,-6,-10,-5,-4,-3,2021-08-07 12:44:34,863826
2,1,0,3,10,5,4,3,2021-08-07 12:44:34,863826
-2,-3,-3,-8,-11,-6,-5,-2,2021-08-07 12:44:34,863826
-2,-1,-1,-3,-3,-3,-3,0,2021-08-07 12:44:34,864828
0,-2,-4,-6,-8,-3,0,-1,2021-08-07 12:44:34,864828
-4,-4,-3,-7,-14,-12,-6,-4,2021-08-07 12:44:34,879824
4,5,9,20,32,27,13,7,2021-08-07 12:44:34,895826
-2,-3,-4,-11,-7,-7,-5,-2,2021-08-07 12:44:34,895826
2,0,2,0,-1,2,0,2,2021-08-07 12:44:34,895826
1,1,2,5,9,3,0,0,2021-08-07 12:44:34,895826
-3,-4,-6,-11,-18,-10,-6,-5,2021-08-07 12:44:34,895826
-3,-2,-1,1,1,0,0,-3,2021-08-07 12:44:34,895826
-1,-1,-2,-4,-2,-4,-3,-1,2021-08-07 12:44:34,896825
-4,-1,-2,-5,-7,-3,-2,0,2021-08-07 12:44:34,896825
-2,0,-1,2,2,-3,-2,-1,2021-08-07 12:44:34,896825
2,-1,1,-1,-2,2,2,1,2021-08-07 12:44:34,896825
0,2,3,10,11,5,1,0,2021-08-07 12:44:34,896825
1,4,2,3,8,5,4,3,2021-08-07 12:44:34,927825
-2,-4,-4,-3,-5,-9,-3,-4,2021-08-07 12:44:34,927825
-6,-6,-6,-21,-43,-21,-9,-4,2021-08-07 12:44:34,927825
4,8,9,31,50,28,13,5,2021-08-07 12:44:34,927825
3,2,4,11,19,10,5,1,2021-08-07 12:44:34,959824
-1,0,-1,-2,0,-2,-1,-1,2021-08-07 12:44:34,959824
-5,-7,-8,-19,-31,-22,-11,-6,2021-08-07 12:44:34,959824
-4,-5,-6,-7,-16,-3,-4,-3,2021-08-07 12:44:34,959824
4,9,9,26,46,22,10,4,2021-08-07 12:44:34,959824
0,0,3,2,7,0,1,-2,2021-08-07 12:44:34,959824
0,-3,-4,-8,-14,-8,-5,-1,2021-08-07 12:44:34,959824
-5,-8,-7,-23,-36,-23,-11,-5,2021-08-07 12:44:34,960826
2,1,3,12,12,8,5,2,2021-08-07 12:44:34,991826
-2,-2,-4,-5,-2,-1,0,-2,2021-08-07 12:44:34,991826
-1,2,3,4,9,4,0,0,2021-08-07 12:44:34,991826
0,-1,-3,-6,-9,-6,-1,-2,2021-08-07 12:44:34,991826
0,-2,-1,-4,-9,-3,-2,-1,2021-08-07 12:44:35,007829
-1,-2,-1,-6,-8,-5,-4,-1,2021-08-07 12:44:35,007829
1,2,1,1,3,5,2,3,2021-08-07 12:44:35,007829
-1,-3,-1,-3,-5,-7,-2,-2,2021-08-07 12:44:35,007829
-2,-2,1,-1,0,3,-1,-1,2021-08-07 12:44:35,023826
-3,-4,-6,-21,-35,-18,-10,-2,2021-08-07 12:44:35,023826
3,3,3,14,26,16,9,3,2021-08-07 12:44:35,023826
1,2,6,24,43,21,7,1,2021-08-07 12:44:35,023826
1,0,0,0,2,0,0,-3,2021-08-07 12:44:35,055829
-1,0,-1,-2,-3,-3,-2,-1,2021-08-07 12:44:35,071824
-3,-3,-3,-12,-23,-16,-6,-3,2021-08-07 12:44:35,087827
1,1,2,0,2,7,3,1,2021-08-07 12:44:35,087827
-1,-3,-2,4,2,1,-2,0,2021-08-07 12:44:35,087827
2,0,-1,3,6,2,2,3,2021-08-07 12:44:35,087827
-1,-2,-1,-4,-6,-6,-3,-3,2021-08-07 12:44:35,087827
-3,-4,-7,-19,-31,-16,-6,-5,2021-08-07 12:44:35,087827
0,2,2,5,16,10,4,1,2021-08-07 12:44:35,088826
1,3,3,8,14,8,4,3,2021-08-07 12:44:35,088826
-2,-1,-1,0,-1,-1,-1,-2,2021-08-07 12:44:35,088826
-1,2,3,8,6,0,-1,1,2021-08-07 12:44:35,088826
-4,-4,-8,-21,-38,-20,-9,-3,2021-08-07 12:44:35,119824
0,0,2,9,20,14,5,1,2021-08-07 12:44:35,135827
3,3,4,16,32,17,8,4,2021-08-07 12:44:35,135827
-2,-3,-4,-15,-17,-9,-6,-1,2021-08-07 12:44:35,135827
0,0,1,0,-3,-1,0,-1,2021-08-07 12:44:35,135827
0,-1,0,-4,-3,-2,1,-3,2021-08-07 12:44:35,135827
2,3,1,11,12,6,3,1,2021-08-07 12:44:35,135827
-1,-4,-3,-8,-15,-7,-5,-3,2021-08-07 12:44:35,135827
0,0,0,1,4,0,0,0,2021-08-07 12:44:35,135827
-4,-3,-1,-1,-4,-2,-4,-3,2021-08-07 12:44:35,136826
3,3,2,8,17,13,7,4,2021-08-07 12:44:35,151827
-1,-2,-3,-6,-8,-5,-2,-1,2021-08-07 12:44:35,151827
-6,-7,-9,-23,-39,-26,-14,-8,2021-08-07 12:44:35,166826
3,2,5,17,27,20,9,4,2021-08-07 12:44:35,166826
-2,0,-1,3,6,2,1,-1,2021-08-07 12:44:35,166826
-1,-1,-2,-1,-1,1,0,-1,2021-08-07 12:44:35,166826
0,1,0,4,10,4,3,-2,2021-08-07 12:44:35,197826
-3,-4,-5,-16,-27,-16,-6,-5,2021-08-07 12:44:35,197826
2,0,0,-2,-2,-3,0,1,2021-08-07 12:44:35,197826
-1,-3,-4,-5,-4,-2,0,-2,2021-08-07 12:44:35,197826
2,1,2,8,15,12,7,4,2021-08-07 12:44:35,197826
1,0,0,-2,1,-2,-1,0,2021-08-07 12:44:35,197826
-4,-4,-3,-3,-9,-5,-3,-3,2021-08-07 12:44:35,213824
1,3,3,4,6,1,1,1,2021-08-07 12:44:35,229824
-2,-5,-6,-13,-23,-14,-6,-3,2021-08-07 12:44:35,229824
4,4,6,22,32,20,10,4,2021-08-07 12:44:35,229824
-3,-4,-5,-8,-8,-4,-3,-1,2021-08-07 12:44:35,229824
-2,-1,-3,-7,-11,-5,-3,-1,2021-08-07 12:44:35,229824
-1,2,0,1,8,2,0,0,2021-08-07 12:44:35,261826
-1,-3,-3,-9,-15,-10,-6,0,2021-08-07 12:44:35,261826
-3,-3,-3,-6,-13,-6,-3,-3,2021-08-07 12:44:35,261826
0,0,-1,0,0,0,-1,-1,2021-08-07 12:44:35,261826
2,0,0,2,3,2,-1,0,2021-08-07 12:44:35,261826
2,4,5,14,17,8,6,3,2021-08-07 12:44:35,261826
-2,-2,0,-1,5,5,0,-1,2021-08-07 12:44:35,277825
0,-2,-1,-1,-4,-7,-2,-2,2021-08-07 12:44:35,277825
-2,-3,-4,-3,-1,0,-2,-1,2021-08-07 12:44:35,293826
4,7,4,5,18,9,5,5,2021-08-07 12:44:35,293826
-4,-4,-5,-13,-18,-13,-8,-4,2021-08-07 12:44:35,293826
-2,-1,-3,-4,-7,-2,0,0,2021-08-07 12:44:35,293826
3,4,5,8,12,7,3,4,2021-08-07 12:44:35,309825
-3,-6,-4,-8,-7,-3,-5,-4,2021-08-07 12:44:35,309825
2,3,3,8,11,4,2,1,2021-08-07 12:44:35,309825
-2,-3,-1,-2,-2,-4,-2,-1,2021-08-07 12:44:35,309825
-1,-2,1,1,0,0,-1,-3,2021-08-07 12:44:35,325827
-3,-2,-7,-18,-26,-14,-7,-4,2021-08-07 12:44:35,341824
0,2,2,7,13,-1,0,1,2021-08-07 12:44:35,341824
2,5,6,21,32,22,9,5,2021-08-07 12:44:35,341824
-1,0,0,5,5,2,1,0,2021-08-07 12:44:35,341824
-1,-1,-3,-6,-13,-9,-4,-3,2021-08-07 12:44:35,341824
-3,-6,-6,-17,-26,-16,-8,-3,2021-08-07 12:44:35,341824
-5,-7,-8,-24,-38,-16,-9,-5,2021-08-07 12:44:35,341824
5,5,8,21,36,18,6,4,2021-08-07 12:44:35,372824
1,1,1,6,9,5,6,2,2021-08-07 12:44:35,388826
1,1,4,11,17,8,2,0,2021-08-07 12:44:35,388826
1,3,3,13,15,8,4,3,2021-08-07 12:44:35,388826
-4,-4,-5,-15,-28,-18,-7,-3,2021-08-07 12:44:35,388826
-4,-5,-4,-15,-28,-17,-9,-4,2021-08-07 12:44:35,388826
-2,-1,0,2,3,4,2,-1,2021-08-07 12:44:35,388826
3,4,5,13,26,16,8,1,2021-08-07 12:44:35,403826
-6,-8,-11,-35,-58,-31,-13,-5,2021-08-07 12:44:35,403826
4,3,4,30,62,32,12,5,2021-08-07 12:44:35,403826
6,6,5,15,24,10,6,4,2021-08-07 12:44:35,403826
-1,-1,-2,-2,-5,-1,-2,-2,2021-08-07 12:44:35,403826
-3,0,3,8,4,-2,1,-2,2021-08-07 12:44:35,435825
0,-2,-3,-16,-26,-6,-1,-2,2021-08-07 12:44:35,435825
-3,-5,-5,-6,-9,-7,-4,-3,2021-08-07 12:44:35,435825
1,0,0,6,12,3,0,0,2021-08-07 12:44:35,435825
-1,-2,-2,-11,-19,-11,-4,-1,2021-08-07 12:44:35,435825
-2,-2,-3,-5,-7,-2,-2,-2,2021-08-07 12:44:35,435825
-4,-4,-6,-15,-28,-14,-7,-4,2021-08-07 12:44:35,451827
4,5,6,13,11,13,8,6,2021-08-07 12:44:35,451827
-2,-2,-2,-5,-4,-10,-7,-3,2021-08-07 12:44:35,467825
1,3,3,16,26,14,6,3,2021-08-07 12:44:35,483829
1,0,0,7,13,8,4,2,2021-08-07 12:44:35,483829
-6,-8,-10,-24,-38,-24,-12,-5,2021-08-07 12:44:35,483829
2,2,3,4,13,13,6,3,2021-08-07 12:44:35,483829
-7,-6,-5,-12,-21,-17,-10,-6,2021-08-07 12:44:35,483829
-5,-3,-1,-7,-16,-7,-5,-3,2021-08-07 12:44:35,484826
2,3,4,10,24,13,4,4,2021-08-07 12:44:35,484826
2,1,0,3,6,5,0,0,2021-08-07 12:44:35,514827
0,-2,-3,-11,-17,-10,-6,-1,2021-08-07 12:44:35,514827
2,1,0,-1,9,10,4,1,2021-08-07 12:44:35,514827
1,-2,-3,-2,-1,-2,-2,0,2021-08-07 12:44:35,514827
-6,-7,-9,-21,-42,-25,-12,-7,2021-08-07 12:44:35,530826
6,5,11,32,50,31,13,6,2021-08-07 12:44:35,546825
0,-2,-1,-5,-6,0,2,-2,2021-08-07 12:44:35,546825
1,2,2,10,25,11,5,2,2021-08-07 12:44:35,546825
0,-2,-4,-4,4,2,2,0,2021-08-07 12:44:35,546825
-5,-6,-8,-17,-29,-18,-10,-4,2021-08-07 12:44:35,546825
-3,-2,-2,-6,-14,-8,-6,-2,2021-08-07 12:44:35,546825
-6,-6,-3,-10,-24,-14,-7,-5,2021-08-07 12:44:35,546825
1,1,3,10,21,16,8,3,2021-08-07 12:44:35,577827
-1,-2,-1,5,6,0,1,-1,2021-08-07 12:44:35,577827
2,2,-1,6,17,8,1,3,2021-08-07 12:44:35,577827
-2,-3,-4,-7,-13,-9,-5,-4,2021-08-07 12:44:35,577827
-1,0,3,5,4,3,2,2,2021-08-07 12:44:35,593825
-4,-2,-3,-10,-20,-13,-8,-3,2021-08-07 12:44:35,593825
2,4,5,11,16,9,4,3,2021-08-07 12:44:35,593825
-1,-1,-4,-15,-20,-10,-3,-2,2021-08-07 12:44:35,593825
0,-1,0,10,21,13,3,-2,2021-08-07 12:44:35,608826
-1,0,0,-3,1,-1,-1,-1,2021-08-07 12:44:35,608826
-1,0,0,1,-6,-4,-2,-1,2021-08-07 12:44:35,608826
-4,-4,-5,-14,-25,-15,-10,-4,2021-08-07 12:44:35,608826
5,7,11,41,70,39,17,6,2021-08-07 12:44:35,640826
-3,-4,-5,-11,-20,-13,-5,-2,2021-08-07 12:44:35,640826
-3,-5,-4,-11,-6,-1,-2,-3,2021-08-07 12:44:35,640826
0,1,2,4,9,1,0,1,2021-08-07 12:44:35,640826
-6,-6,-7,-17,-35,-21,-9,-5,2021-08-07 12:44:35,640826
1,3,2,5,6,3,1,3,2021-08-07 12:44:35,640826
-3,-4,-5,-8,-13,-8,-6,-3,2021-08-07 12:44:35,640826
1,2,0,2,9,7,4,-1,2021-08-07 12:44:35,640826
2,0,-1,-3,2,2,1,1,2021-08-07 12:44:35,688825
-3,-1,-3,-13,-22,-14,-7,-2,2021-08-07 12:44:35,704824
0,2,1,8,9,5,3,1,2021-08-07 12:44:35,704824
-3,-4,-5,-16,-21,-13,-5,-4,2021-08-07 12:44:35,704824
2,5,9,26,27,17,7,2,2021-08-07 12:44:35,704824
2,2,4,9,11,3,0,0,2021-08-07 12:44:35,704824
0,-1,-2,-8,-10,-5,-2,-1,2021-08-07 12:44:35,704824
-1,-5,-3,-3,-12,-7,-3,-1,2021-08-07 12:44:35,705826
0,0,-2,-5,5,4,0,-1,2021-08-07 12:44:35,705826
-2,-3,-3,-12,-16,-9,-5,-3,2021-08-07 12:44:35,705826
-2,1,2,10,10,4,1,-2,2021-08-07 12:44:35,705826
2,4,2,6,9,5,4,3,2021-08-07 12:44:35,705826
1,-1,-4,-12,-15,-8,-4,-1,2021-08-07 12:44:35,736826
0,-1,1,1,6,2,2,-1,2021-08-07 12:44:35,736826
-2,-3,-4,-8,-11,-9,-5,-3,2021-08-07 12:44:35,736826
1,3,4,10,11,8,4,2,2021-08-07 12:44:35,736826
-3,-4,-3,-10,-14,-9,-6,-4,2021-08-07 12:44:35,752828
-3,-2,-4,-10,-6,-1,-1,-2,2021-08-07 12:44:35,752828
0,0,-2,2,4,3,1,0,2021-08-07 12:44:35,752828
3,0,2,7,4,1,-1,-1,2021-08-07 12:44:35,752828
0,2,2,6,11,4,3,2,2021-08-07 12:44:35,768826
0,1,2,4,5,4,3,1,2021-08-07 12:44:35,768826
-1,0,-1,2,2,0,0,0,2021-08-07 12:44:35,768826
-1,0,-2,-7,-4,-3,-3,0,2021-08-07 12:44:35,768826
1,-1,-4,-7,-5,-3,0,-2,2021-08-07 12:44:35,797825
0,-3,-3,-3,-6,-5,-2,-3,2021-08-07 12:44:35,797825
-4,-5,-5,-14,-19,-9,-5,-5,2021-08-07 12:44:35,797825
0,2,4,11,19,8,3,0,2021-08-07 12:44:35,797825
3,3,4,5,3,5,5,3,2021-08-07 12:44:35,815824
1,1,2,13,17,9,3,2,2021-08-07 12:44:35,830824
-3,-3,0,-2,-2,-1,-3,-1,2021-08-07 12:44:35,846827
0,-1,-2,-3,-7,-8,-4,-1,2021-08-07 12:44:35,846827
-1,-2,-2,-6,-9,-6,-4,-2,2021-08-07 12:44:35,846827
-5,-4,-5,-10,-18,-8,-4,-4,2021-08-07 12:44:35,846827
6,8,9,15,26,18,9,5,2021-08-07 12:44:35,846827
-1,-1,-3,-3,-2,1,-1,0,2021-08-07 12:44:35,846827
-1,-1,-1,0,-3,-5,-2,0,2021-08-07 12:44:35,847827
-1,0,-3,-3,-1,-1,-2,0,2021-08-07 12:44:35,847827
-1,-1,-1,1,-1,-4,-1,0,2021-08-07 12:44:35,847827
-3,-5,-2,-8,-12,-5,-3,-5,2021-08-07 12:44:35,847827
2,3,4,18,32,20,9,4,2021-08-07 12:44:35,878828
-3,-3,-1,-6,-15,-11,-4,-3,2021-08-07 12:44:35,878828
-1,0,-1,-2,4,1,0,0,2021-08-07 12:44:35,878828
0,-1,0,9,19,9,4,1,2021-08-07 12:44:35,894826
-5,-5,-5,-5,-9,-6,-4,-3,2021-08-07 12:44:35,910827
-1,0,-2,-7,-9,-5,-3,1,2021-08-07 12:44:35,910827
-3,-5,-7,-22,-29,-16,-8,-3,2021-08-07 12:44:35,910827
4,7,7,22,31,23,11,6,2021-08-07 12:44:35,910827
-2,-3,-3,-5,-11,-8,-5,-3,2021-08-07 12:44:35,910827
1,2,3,11,27,14,5,1,2021-08-07 12:44:35,910827
-3,-4,-9,-18,-31,-20,-12,-5,2021-08-07 12:44:35,911826
-5,-6,-9,-23,-28,-15,-9,-6,2021-08-07 12:44:35,911826
3,5,6,22,32,19,9,4,2021-08-07 12:44:35,942825
2,1,2,1,-2,-2,0,-1,2021-08-07 12:44:35,942825
-2,-2,-1,4,5,1,1,-1,2021-08-07 12:44:35,942825
-4,-5,-6,-19,-29,-19,-9,-3,2021-08-07 12:44:35,942825
2,0,1,-1,1,4,1,1,2021-08-07 12:44:35,942825
-1,0,-1,-2,4,5,2,0,2021-08-07 12:44:35,942825
-2,-2,0,0,6,4,2,-2,2021-08-07 12:44:35,942825
1,3,2,7,15,6,3,2,2021-08-07 12:44:35,942825
-5,-5,-5,-20,-35,-23,-12,-4,2021-08-07 12:44:35,974825
-3,-4,-1,-1,-5,-5,-3,-2,2021-08-07 12:44:35,974825
-1,1,2,5,6,3,0,0,2021-08-07 12:44:35,974825
2,2,2,12,21,13,5,2,2021-08-07 12:44:35,974825
-2,-2,-5,-10,-19,-9,-4,-3,2021-08-07 12:44:35,989825
1,0,-1,3,8,3,2,-1,2021-08-07 12:44:35,989825
1,-1,1,4,8,5,1,1,2021-08-07 12:44:35,989825
-5,-4,-4,-14,-24,-20,-9,-6,2021-08-07 12:44:35,989825
0,1,1,-3,-11,-4,-2,0,2021-08-07 12:44:36,005826
2,2,3,16,26,15,6,3,2021-08-07 12:44:36,020828
4,4,3,11,19,13,8,4,2021-08-07 12:44:36,020828
0,1,1,5,8,1,0,-1,2021-08-07 12:44:36,020828
2,1,0,2,10,3,2,0,2021-08-07 12:44:36,036826
-4,-6,-7,-21,-34,-19,-9,-5,2021-08-07 12:44:36,036826
-2,-1,-2,3,4,-1,-1,0,2021-08-07 12:44:36,036826
0,-1,0,-1,0,0,0,0,2021-08-07 12:44:36,036826
0,0,-1,-7,0,-2,1,-1,2021-08-07 12:44:36,052826
-2,-4,-2,-1,-6,-6,-3,-2,2021-08-07 12:44:36,068826
2,1,3,5,11,8,4,2,2021-08-07 12:44:36,068826
0,-2,-2,0,2,4,1,0,2021-08-07 12:44:36,068826
-2,-2,-1,-5,-10,-10,-5,-2,2021-08-07 12:44:36,068826
0,-1,-4,-8,-13,-7,-4,-2,2021-08-07 12:44:36,068826
-6,-6,-6,-16,-34,-24,-13,-7,2021-08-07 12:44:36,068826
13,14,17,46,84,61,31,16,2021-08-07 12:44:36,068826
2,0,-2,3,7,1,1,0,2021-08-07 12:44:36,099826
-3,-4,-6,-10,-13,-10,-5,-1,2021-08-07 12:44:36,099826
-4,-6,-5,-19,-23,-13,-8,-5,2021-08-07 12:44:36,099826
-5,-5,-4,-11,-25,-17,-9,-4,2021-08-07 12:44:36,099826
-1,0,1,6,10,6,1,0,2021-08-07 12:44:36,115828
2,3,5,13,17,11,5,3,2021-08-07 12:44:36,130824
-1,-2,-3,-8,-16,-9,-4,-3,2021-08-07 12:44:36,130824
-7,-8,-8,-19,-23,-16,-8,-6,2021-08-07 12:44:36,130824
0,1,-1,-6,-16,-6,-3,-1,2021-08-07 12:44:36,130824
-2,-2,1,5,10,7,1,-1,2021-08-07 12:44:36,130824
4,6,6,19,24,12,8,4,2021-08-07 12:44:36,130824
1,0,0,3,1,0,0,-1,2021-08-07 12:44:36,130824
-1,-2,2,3,4,-5,-4,-3,2021-08-07 12:44:36,161826
-3,-2,-7,-22,-32,-12,-6,-2,2021-08-07 12:44:36,177827
3,2,3,12,32,20,8,4,2021-08-07 12:44:36,177827
-3,-4,-5,-6,-12,-11,-5,-4,2021-08-07 12:44:36,177827
-3,-2,-5,-8,-15,-6,-2,-3,2021-08-07 12:44:36,177827
1,2,2,4,4,-1,0,0,2021-08-07 12:44:36,177827
0,0,0,-2,-6,-3,-1,1,2021-08-07 12:44:36,177827
-2,-1,-4,-14,-13,-9,-5,-1,2021-08-07 12:44:36,177827
-1,-2,0,3,4,7,2,0,2021-08-07 12:44:36,208826
-1,0,1,0,6,4,1,-1,2021-08-07 12:44:36,208826
0,1,1,4,7,2,1,0,2021-08-07 12:44:36,208826
1,2,0,2,-3,-3,-1,0,2021-08-07 12:44:36,208826
-4,-2,-3,-10,-12,-5,-2,-1,2021-08-07 12:44:36,208826
0,-2,0,0,-1,-4,-3,-1,2021-08-07 12:44:36,208826
2,0,4,10,20,15,7,2,2021-08-07 12:44:36,209826
-1,-1,-2,-8,-17,-8,-4,-1,2021-08-07 12:44:36,209826
1,-2,1,14,22,10,4,0,2021-08-07 12:44:36,235825
-1,-2,0,-4,-15,-14,-6,-3,2021-08-07 12:44:36,235825
-1,-1,-3,-4,-7,1,1,-2,2021-08-07 12:44:36,235825
-2,-1,1,2,0,-4,-2,-3,2021-08-07 12:44:36,235825
3,3,3,6,12,6,3,2,2021-08-07 12:44:36,256826
-3,-2,-4,-11,-6,-3,-2,-1,2021-08-07 12:44:36,256826
-4,-5,-5,-9,-18,-14,-8,-4,2021-08-07 12:44:36,256826
-2,0,-1,-3,-5,-2,-1,-2,2021-08-07 12:44:36,256826
-2,-1,-1,-7,-8,-4,-2,-1,2021-08-07 12:44:36,272827
1,-1,0,0,-1,-4,0,0,2021-08-07 12:44:36,288826
1,2,2,10,13,7,3,1,2021-08-07 12:44:36,304826
-2,-4,-2,-9,-1,1,-1,-2,2021-08-07 12:44:36,304826
0,0,1,2,-4,-8,-2,1,2021-08-07 12:44:36,304826
2,2,2,7,16,12,5,1,2021-08-07 12:44:36,304826
3,4,5,18,29,15,8,3,2021-08-07 12:44:36,304826
-3,-2,-2,-5,-9,-7,-4,-2,2021-08-07 12:44:36,304826
-2,-1,-3,-5,-6,-4,-2,-1,2021-08-07 12:44:36,304826
-3,-1,-1,0,3,3,0,0,2021-08-07 12:44:36,305827
0,-1,1,-3,-5,-3,-2,0,2021-08-07 12:44:36,320826
-1,-1,1,3,6,5,0,0,2021-08-07 12:44:36,336825
-2,-2,-1,-6,-9,-8,-3,-5,2021-08-07 12:44:36,336825
0,-2,-2,-1,-4,1,-1,-2,2021-08-07 12:44:36,336825
1,2,1,-1,-3,-4,-3,-2,2021-08-07 12:44:36,336825
3,1,-4,-3,2,2,1,3,2021-08-07 12:44:36,336825
0,-3,-3,-9,-9,-3,-2,-2,2021-08-07 12:44:36,352824
-2,-1,1,8,16,9,4,0,2021-08-07 12:44:36,352824
-6,-6,-3,-4,-10,-8,-3,-2,2021-08-07 12:44:36,352824
-3,-2,-3,-1,-10,-8,-3,-4,2021-08-07 12:44:36,352824
2,6,9,23,32,22,9,3,2021-08-07 12:44:36,367825
-3,-2,-1,-5,-12,-9,-7,-4,2021-08-07 12:44:36,367825
-1,1,-4,-8,-7,-3,-1,1,2021-08-07 12:44:36,367825
-1,-3,0,-4,-4,-3,-2,0,2021-08-07 12:44:36,367825
-1,-3,-4,-7,-8,-9,-4,-2,2021-08-07 12:44:36,398826
2,2,0,6,8,7,4,1,2021-08-07 12:44:36,414826
-3,-2,0,1,3,0,-1,-2,2021-08-07 12:44:36,414826
3,4,0,0,-2,-2,-1,2,2021-08-07 12:44:36,414826
-1,-2,-1,-2,-3,-2,-3,-1,2021-08-07 12:44:36,414826
-1,-1,-3,-6,0,0,0,-2,2021-08-07 12:44:36,414826
-4,-3,-3,-7,-17,-12,-6,-4,2021-08-07 12:44:36,414826
-1,1,2,4,6,4,4,0,2021-08-07 12:44:36,415828
-3,-4,-4,-11,-8,-4,-4,-1,2021-08-07 12:44:36,446826
-2,-2,-2,-2,-2,-1,-1,-2,2021-08-07 12:44:36,446826
-1,-2,-2,-7,-8,-3,-2,-1,2021-08-07 12:44:36,446826
4,5,9,27,37,19,10,4,2021-08-07 12:44:36,446826
1,0,0,2,-6,-4,-2,-1,2021-08-07 12:44:36,463065
0,0,1,0,6,3,1,-2,2021-08-07 12:44:36,478824
-2,-2,-4,-15,-23,-14,-6,-5,2021-08-07 12:44:36,494826
3,1,2,6,21,16,7,3,2021-08-07 12:44:36,510826
-2,-4,-4,-2,7,3,0,-3,2021-08-07 12:44:36,526824
-3,-4,-3,-9,-19,-12,-6,-3,2021-08-07 12:44:36,526824
2,4,4,11,13,7,2,1,2021-08-07 12:44:36,526824
-1,-2,-1,-4,-13,-9,-5,-2,2021-08-07 12:44:36,526824
-1,2,-2,-1,-2,-1,0,-1,2021-08-07 12:44:36,526824
0,0,2,6,5,4,1,0,2021-08-07 12:44:36,526824
1,-1,-2,-4,-7,-3,-2,-2,2021-08-07 12:44:36,527826
-3,-2,-1,4,2,-1,-2,-2,2021-08-07 12:44:36,527826
1,1,2,6,8,7,5,2,2021-08-07 12:44:36,527826
1,1,-2,-2,-6,-2,1,0,2021-08-07 12:44:36,527826
-3,-4,-8,-19,-18,-10,-5,-2,2021-08-07 12:44:36,527826
4,5,6,27,42,22,9,4,2021-08-07 12:44:36,527826
-2,-3,-3,-7,-8,-7,-2,-2,2021-08-07 12:44:36,527826
-1,-3,-4,-10,-14,-7,-4,-1,2021-08-07 12:44:36,528825
-2,-4,-2,-4,-2,-3,-3,-3,2021-08-07 12:44:36,528825
0,1,-1,-2,-6,1,-1,-1,2021-08-07 12:44:36,528825
0,2,1,4,3,1,0,0,2021-08-07 12:44:36,557824
0,-1,-1,0,-3,-5,-2,0,2021-08-07 12:44:36,573824
-3,-3,-2,-3,2,0,1,-1,2021-08-07 12:44:36,589825
-3,-3,-2,-11,-18,-11,-5,-2,2021-08-07 12:44:36,605825
0,1,3,14,18,15,6,1,2021-08-07 12:44:36,621827
-3,-4,-4,-9,-8,-8,-4,-3,2021-08-07 12:44:36,621827
2,3,4,11,16,9,4,3,2021-08-07 12:44:36,621827
-2,-1,-2,-4,-8,-7,-2,-3,2021-08-07 12:44:36,621827
-4,-4,-4,-19,-33,-18,-10,-5,2021-08-07 12:44:36,621827
-2,-2,-2,0,7,3,1,0,2021-08-07 12:44:36,621827
3,2,7,29,31,22,9,2,2021-08-07 12:44:36,621827
1,1,-2,-2,7,1,0,-1,2021-08-07 12:44:36,622826
0,0,-1,-1,-2,-1,0,0,2021-08-07 12:44:36,622826
-3,0,-1,6,13,2,-1,-2,2021-08-07 12:44:36,622826
-2,-3,-5,-14,-22,-13,-7,0,2021-08-07 12:44:36,622826
-3,-3,-4,-13,-21,-12,-5,-2,2021-08-07 12:44:36,622826
-3,-4,-6,-17,-24,-15,-7,-4,2021-08-07 12:44:36,622826
1,0,2,6,5,5,1,1,2021-08-07 12:44:36,622826
1,1,2,10,17,9,3,1,2021-08-07 12:44:36,622826
0,-3,-3,-7,-11,-5,-1,1,2021-08-07 12:44:36,622826
-1,-1,-2,-2,2,-2,0,-1,2021-08-07 12:44:36,653824
-1,-2,1,1,5,4,0,0,2021-08-07 12:44:36,665824
-1,-2,-2,-4,-3,0,1,-1,2021-08-07 12:44:36,665824
-2,-1,0,0,-3,-2,-2,-1,2021-08-07 12:44:36,665824
