EMG 1,EMG 2,EMG 3,EMG 4,EMG 5,EMG 6,EMG 7,EMG 8,Timestamp,Milliseconds
1,0,-1,-4,1,0,0,-1,2021-08-07 10:30:58,298531
-5,-5,-3,-7,-9,-5,-3,-4,2021-08-07 10:30:58,298531
-2,-2,-7,-7,-8,-5,-3,-1,2021-08-07 10:30:58,298531
2,4,0,-8,-3,1,1,2,2021-08-07 10:30:58,298531
0,0,-2,-1,4,2,1,-2,2021-08-07 10:30:58,298531
0,0,2,6,6,3,2,1,2021-08-07 10:30:58,298531
-2,-4,-1,-2,2,0,-1,-3,2021-08-07 10:30:58,314531
-2,-2,-3,-5,-10,-6,-2,-1,2021-08-07 10:30:58,330531
-1,-4,-4,-5,-7,-4,-2,-1,2021-08-07 10:30:58,346531
1,-1,-3,-5,-6,-2,0,-1,2021-08-07 10:30:58,346531
-4,-2,0,6,6,2,-2,-1,2021-08-07 10:30:58,346531
0,0,1,6,10,6,0,-2,2021-08-07 10:30:58,346531
-2,-1,3,-3,-5,-1,-2,-1,2021-08-07 10:30:58,346531
-3,-4,-2,0,-4,-4,-4,-4,2021-08-07 10:30:58,346531
1,1,2,2,1,0,-2,0,2021-08-07 10:30:58,346531
2,2,3,9,14,5,2,2,2021-08-07 10:30:58,346531
1,2,0,1,-1,1,2,2,2021-08-07 10:30:58,346531
-1,1,-4,-10,-8,-6,-3,0,2021-08-07 10:30:58,346531
-3,-5,-6,-12,-14,-7,-2,-2,2021-08-07 10:30:58,361530
-4,-3,-2,-4,-12,-4,-1,-1,2021-08-07 10:30:58,361530
6,7,11,26,42,18,6,6,2021-08-07 10:30:58,361530
-1,-1,-3,-8,-4,-2,0,-1,2021-08-07 10:30:58,361530
-3,-1,-2,-5,-10,-4,-2,-2,2021-08-07 10:30:58,376530
-2,-3,-1,3,3,-1,-2,-1,2021-08-07 10:30:58,376530
-3,-5,-6,-10,-15,-8,-3,-4,2021-08-07 10:30:58,424530
-1,-1,-5,-11,-10,-1,0,-1,2021-08-07 10:30:58,424530
3,4,8,22,31,14,7,2,2021-08-07 10:30:58,424530
-2,-2,-1,0,-3,-2,0,-1,2021-08-07 10:30:58,424530
0,0,0,0,0,0,-2,-1,2021-08-07 10:30:58,424530
-5,-4,-8,-15,-16,-9,-6,-4,2021-08-07 10:30:58,424530
0,0,0,1,-3,0,-1,1,2021-08-07 10:30:58,424530
-1,-1,-3,-4,-2,-1,-3,-1,2021-08-07 10:30:58,424530
-1,-1,-2,-4,-2,-1,0,0,2021-08-07 10:30:58,425531
1,0,0,-1,-1,-2,0,0,2021-08-07 10:30:58,425531
-3,-5,-7,-13,-14,-7,-4,-3,2021-08-07 10:30:58,425531
-2,-1,1,-5,-9,-5,-1,-1,2021-08-07 10:30:58,425531
2,3,7,21,36,15,5,3,2021-08-07 10:30:58,448531
0,1,2,6,6,2,1,0,2021-08-07 10:30:58,448531
-4,-4,-7,-13,-15,-7,-4,-2,2021-08-07 10:30:58,448531
2,-2,-2,0,-1,-3,-1,-1,2021-08-07 10:30:58,448531
-2,-2,-4,-9,-13,-6,-1,-2,2021-08-07 10:30:58,487530
0,0,3,4,7,2,1,0,2021-08-07 10:30:58,503530
-3,-4,-3,-3,-11,-9,-5,-3,2021-08-07 10:30:58,519530
-3,-1,-5,-4,-5,-1,-3,-3,2021-08-07 10:30:58,519530
2,3,2,4,5,2,1,0,2021-08-07 10:30:58,519530
-1,0,2,6,4,1,0,-2,2021-08-07 10:30:58,519530
-4,-6,-8,-19,-21,-11,-5,-3,2021-08-07 10:30:58,519530
1,0,1,2,-4,-1,0,0,2021-08-07 10:30:58,519530
1,1,5,17,26,12,2,2,2021-08-07 10:30:58,519530
1,2,1,3,-2,1,-1,2,2021-08-07 10:30:58,519530
-2,-2,-3,-9,-7,-2,0,-2,2021-08-07 10:30:58,519530
-6,-5,-5,-4,0,-3,-4,-3,2021-08-07 10:30:58,519530
1,1,0,-5,-9,-2,0,0,2021-08-07 10:30:58,535531
0,-1,-1,0,-1,-3,-1,-1,2021-08-07 10:30:58,551531
3,5,6,5,0,2,2,4,2021-08-07 10:30:58,551531
-3,-4,-5,-8,3,0,-1,-2,2021-08-07 10:30:58,551531
-4,-4,-6,-11,-13,-7,-3,-3,2021-08-07 10:30:58,551531
1,2,3,10,9,5,2,2,2021-08-07 10:30:58,551531
1,1,4,9,16,5,3,-1,2021-08-07 10:30:58,567531
-3,-2,-1,-3,-10,-4,-4,-3,2021-08-07 10:30:58,583530
-2,-3,-5,-12,-9,-5,-2,-3,2021-08-07 10:30:58,583530
0,1,3,7,11,4,2,1,2021-08-07 10:30:58,583530
-3,-3,-2,4,1,-1,-1,-2,2021-08-07 10:30:58,583530
1,4,4,1,2,1,2,3,2021-08-07 10:30:58,583530
-3,-3,-3,-2,-9,-7,-4,-3,2021-08-07 10:30:58,599531
1,0,-5,-8,-1,-1,0,1,2021-08-07 10:30:58,599531
1,1,4,11,14,7,3,1,2021-08-07 10:30:58,599531
-4,-4,-5,-11,-17,-8,-6,-3,2021-08-07 10:30:58,599531
0,1,1,7,7,3,0,0,2021-08-07 10:30:58,615530
0,1,3,10,5,3,1,1,2021-08-07 10:30:58,631530
-5,-2,-5,-9,-11,-3,-2,-1,2021-08-07 10:30:58,647530
1,0,2,6,7,0,-1,0,2021-08-07 10:30:58,647530
-2,-2,-3,-7,-9,-4,-2,0,2021-08-07 10:30:58,647530
0,-4,-3,-4,-2,-3,-2,-3,2021-08-07 10:30:58,647530
-2,-3,-6,-15,-22,-12,-4,-3,2021-08-07 10:30:58,647530
1,1,4,18,29,14,4,3,2021-08-07 10:30:58,647530
2,1,2,6,3,0,-1,0,2021-08-07 10:30:58,647530
0,-2,-1,-2,-3,-2,-2,-1,2021-08-07 10:30:58,647530
-1,-2,-5,-14,-14,-7,-3,-1,2021-08-07 10:30:58,678531
0,-1,1,4,4,0,1,-2,2021-08-07 10:30:58,694530
-1,-3,-1,0,2,0,0,-1,2021-08-07 10:30:58,694530
-3,-2,-3,-3,-4,-2,-3,0,2021-08-07 10:30:58,694530
0,0,0,2,-1,0,-1,-1,2021-08-07 10:30:58,694530
-3,-3,-4,-16,-15,-8,-2,-2,2021-08-07 10:30:58,694530
-2,0,4,13,12,3,1,0,2021-08-07 10:30:58,694530
3,3,0,-7,0,2,1,0,2021-08-07 10:30:58,694530
1,5,6,11,17,7,2,2,2021-08-07 10:30:58,710530
0,0,-2,2,-3,-1,-1,1,2021-08-07 10:30:58,725529
-5,-3,-8,-11,-17,-10,-6,-5,2021-08-07 10:30:58,725529
-3,-4,-1,5,-5,-3,-2,-1,2021-08-07 10:30:58,725529
2,4,3,3,14,4,1,1,2021-08-07 10:30:58,735531
1,1,-1,-2,-3,0,1,-1,2021-08-07 10:30:58,735531
-1,-3,-3,-5,-11,-4,-2,-1,2021-08-07 10:30:58,735531
-4,-5,-6,-13,-6,-4,-3,-4,2021-08-07 10:30:58,736532
1,-2,3,12,8,4,3,1,2021-08-07 10:30:58,756530
2,2,3,6,3,2,2,0,2021-08-07 10:30:58,756530
-1,-1,-2,-4,-3,-2,0,-2,2021-08-07 10:30:58,756530
0,-1,0,0,4,0,-2,1,2021-08-07 10:30:58,756530
0,-1,0,7,10,3,0,-1,2021-08-07 10:30:58,756530
-1,-2,-6,-8,-9,-4,-3,-3,2021-08-07 10:30:58,756530
-4,-2,-5,-11,-15,-7,-4,-2,2021-08-07 10:30:58,771530
0,1,4,9,9,3,0,1,2021-08-07 10:30:58,771530
-2,-2,-3,-2,-5,-2,-3,-2,2021-08-07 10:30:58,787530
1,1,-1,-6,-7,-2,-2,-1,2021-08-07 10:30:58,803531
3,3,8,20,29,13,6,3,2021-08-07 10:30:58,803531
-4,-5,-7,-14,-19,-8,-5,-5,2021-08-07 10:30:58,803531
-2,-2,-3,-9,-8,-3,-1,-3,2021-08-07 10:30:58,803531
-1,0,6,24,21,6,0,-1,2021-08-07 10:30:58,803531
0,1,0,-7,-12,-3,-4,1,2021-08-07 10:30:58,803531
1,1,1,-5,-1,-1,1,1,2021-08-07 10:30:58,803531
0,0,-2,2,-2,-2,-2,0,2021-08-07 10:30:58,835531
-3,-3,-2,-10,-7,0,0,-3,2021-08-07 10:30:58,835531
-3,-6,-6,-12,-10,-8,-2,-3,2021-08-07 10:30:58,835531
2,0,-3,-3,-3,-2,-1,0,2021-08-07 10:30:58,835531
1,2,3,8,12,7,3,2,2021-08-07 10:30:58,851531
1,0,3,12,10,4,2,0,2021-08-07 10:30:58,867530
-2,-4,1,2,-2,-2,-2,-1,2021-08-07 10:30:58,883530
-3,-4,-4,-15,-15,-6,-3,0,2021-08-07 10:30:58,883530
-3,-2,-2,-10,-14,-6,-4,-2,2021-08-07 10:30:58,883530
-2,0,1,2,8,2,0,-1,2021-08-07 10:30:58,883530
-1,1,8,7,6,4,-1,-1,2021-08-07 10:30:58,883530
-2,-2,-6,-4,-11,-8,-4,-1,2021-08-07 10:30:58,883530
-1,-1,-9,-6,-1,-2,-2,-1,2021-08-07 10:30:58,883530
3,2,1,4,-1,4,2,1,2021-08-07 10:30:58,883530
2,3,1,4,12,5,1,1,2021-08-07 10:30:58,883530
-2,0,7,-2,-13,-4,-1,-2,2021-08-07 10:30:58,883530
-6,-8,-9,-13,1,-2,-3,-4,2021-08-07 10:30:58,915531
2,1,3,12,7,1,-1,3,2021-08-07 10:30:58,931531
2,1,-1,-5,-10,-4,0,0,2021-08-07 10:30:58,947531
-1,0,3,5,3,2,0,-1,2021-08-07 10:30:58,947531
-2,-3,-2,-8,-20,-9,-3,-2,2021-08-07 10:30:58,947531
-6,-5,-7,-9,5,-1,-2,-2,2021-08-07 10:30:58,947531
3,3,2,5,5,2,0,3,2021-08-07 10:30:58,947531
0,2,2,5,0,1,-2,-1,2021-08-07 10:30:58,947531
0,0,1,-2,-4,-2,0,0,2021-08-07 10:30:58,947531
-3,-3,-6,-11,-13,-7,-4,-2,2021-08-07 10:30:58,947531
-3,-3,-3,-8,-7,-5,-4,-2,2021-08-07 10:30:58,947531
1,0,-1,9,16,7,3,0,2021-08-07 10:30:58,947531
1,3,5,5,3,3,0,1,2021-08-07 10:30:58,978530
-1,1,3,7,5,2,1,-1,2021-08-07 10:30:58,978530
-5,-5,-9,-15,-15,-7,-2,-2,2021-08-07 10:30:58,994531
2,3,5,12,7,1,2,1,2021-08-07 10:30:58,994531
3,2,3,10,8,3,1,0,2021-08-07 10:30:58,994531
0,0,-3,-6,-2,-2,-3,-1,2021-08-07 10:30:58,994531
-3,-4,-6,-6,-10,-3,-3,-1,2021-08-07 10:30:58,994531
-3,-2,-3,-2,7,2,1,-2,2021-08-07 10:30:58,994531
1,1,3,3,1,3,4,1,2021-08-07 10:30:59,010531
-3,-4,-2,-7,-11,-4,-2,-3,2021-08-07 10:30:59,010531
-2,-2,0,4,3,-1,-1,-5,2021-08-07 10:30:59,010531
-1,0,0,1,0,1,-2,0,2021-08-07 10:30:59,010531
0,0,1,3,2,-2,-3,-2,2021-08-07 10:30:59,026531
0,1,-2,-8,-8,-2,-1,0,2021-08-07 10:30:59,026531
1,1,0,3,4,2,1,1,2021-08-07 10:30:59,026531
-1,-2,-3,-1,-3,-2,-1,-2,2021-08-07 10:30:59,026531
0,0,-3,-5,-4,-5,-1,-1,2021-08-07 10:30:59,058531
0,-2,-4,-9,-3,-1,-2,-1,2021-08-07 10:30:59,073529
-2,0,1,2,3,0,0,-1,2021-08-07 10:30:59,073529
-2,-2,-5,-11,-10,-4,-2,-1,2021-08-07 10:30:59,073529
-2,-1,3,12,18,5,0,-1,2021-08-07 10:30:59,073529
-4,-6,-6,-19,-25,-10,-4,-4,2021-08-07 10:30:59,073529
5,6,11,26,27,10,5,4,2021-08-07 10:30:59,073529
-1,-2,-1,-8,-5,-2,-1,-1,2021-08-07 10:30:59,073529
-2,-5,-8,-15,-21,-10,-6,-4,2021-08-07 10:30:59,089532
2,4,6,21,28,10,5,4,2021-08-07 10:30:59,089532
-1,-2,-4,-8,-2,1,-1,-1,2021-08-07 10:30:59,089532
-2,-1,-1,3,4,3,0,0,2021-08-07 10:30:59,089532
-1,-1,0,0,-1,0,0,-2,2021-08-07 10:30:59,121530
-2,-3,-3,-8,-9,-5,-2,-2,2021-08-07 10:30:59,121530
-5,-4,-7,-13,-19,-9,-5,-4,2021-08-07 10:30:59,121530
1,3,4,8,11,3,0,2,2021-08-07 10:30:59,137531
-1,1,2,1,-2,0,0,0,2021-08-07 10:30:59,153530
0,-1,-2,-8,-13,-6,-2,-2,2021-08-07 10:30:59,153530
2,0,-1,-1,6,2,0,-1,2021-08-07 10:30:59,153530
-3,-5,-3,-1,-6,-6,-5,-4,2021-08-07 10:30:59,153530
-3,-3,-4,-8,-5,-2,-3,1,2021-08-07 10:30:59,153530
3,5,7,12,9,4,2,3,2021-08-07 10:30:59,153530
-2,-2,1,8,3,0,0,1,2021-08-07 10:30:59,153530
-3,-4,-1,4,15,5,0,-2,2021-08-07 10:30:59,153530
6,6,5,8,0,3,1,4,2021-08-07 10:30:59,169531
1,0,2,2,0,-1,-1,-1,2021-08-07 10:30:59,169531
-2,-3,-5,-9,-8,-6,-4,-4,2021-08-07 10:30:59,169531
-1,-1,-5,-4,-12,-4,-1,-2,2021-08-07 10:30:59,169531
1,-1,0,5,18,8,3,1,2021-08-07 10:30:59,185531
-3,-4,-6,-12,-12,-5,-3,-3,2021-08-07 10:30:59,185531
0,0,2,5,3,0,0,0,2021-08-07 10:30:59,185531
-3,-3,-2,-3,-4,-3,-1,-2,2021-08-07 10:30:59,185531
-1,-3,-4,-5,-6,-3,-1,-1,2021-08-07 10:30:59,216530
1,2,1,0,-1,-1,-1,0,2021-08-07 10:30:59,216530
3,1,4,7,18,9,4,1,2021-08-07 10:30:59,216530
-1,-3,-4,-11,-16,-7,-2,-1,2021-08-07 10:30:59,216530
0,1,6,21,24,8,3,1,2021-08-07 10:30:59,231530
-3,-3,-1,-3,-3,-3,-2,-2,2021-08-07 10:30:59,247531
-4,-3,-5,-13,-16,-7,-4,-2,2021-08-07 10:30:59,263530
0,0,-1,-16,-19,-5,-1,1,2021-08-07 10:30:59,263530
-1,0,3,15,18,2,0,-2,2021-08-07 10:30:59,263530
-1,0,3,11,12,8,2,0,2021-08-07 10:30:59,263530
-1,1,2,5,7,3,0,2,2021-08-07 10:30:59,263530
3,3,0,-6,-9,-5,-1,0,2021-08-07 10:30:59,263530
-3,-1,-5,-15,-18,-7,-3,-3,2021-08-07 10:30:59,263530
-3,-4,-4,-2,-2,-2,-3,-4,2021-08-07 10:30:59,263530
-1,-1,-3,-1,-1,-1,1,-2,2021-08-07 10:30:59,263530
-2,-1,-2,-1,1,-1,-1,-2,2021-08-07 10:30:59,264531
1,-2,2,10,4,2,1,0,2021-08-07 10:30:59,295531
-2,-2,-3,-7,-16,-6,-3,-1,2021-08-07 10:30:59,311530
2,1,1,10,24,9,3,2,2021-08-07 10:30:59,311530
-2,-1,0,4,0,1,0,-1,2021-08-07 10:30:59,311530
1,0,2,3,8,4,0,0,2021-08-07 10:30:59,311530
0,1,1,-3,-4,-1,-1,2,2021-08-07 10:30:59,311530
-1,-4,-8,-19,-24,-11,-5,-3,2021-08-07 10:30:59,311530
0,3,5,11,22,8,2,1,2021-08-07 10:30:59,311530
-1,0,0,-1,-1,-2,1,1,2021-08-07 10:30:59,322531
0,-1,-1,1,1,-1,-1,-1,2021-08-07 10:30:59,322531
-2,-4,-4,-7,-13,-5,-4,-2,2021-08-07 10:30:59,322531
-1,-2,-5,-4,2,1,0,-2,2021-08-07 10:30:59,322531
-1,-1,-3,-10,-14,-5,-3,-2,2021-08-07 10:30:59,358530
0,1,2,7,13,4,0,0,2021-08-07 10:30:59,358530
-2,0,3,1,-4,-1,-2,-1,2021-08-07 10:30:59,358530
-2,-1,-2,-4,-10,-6,-2,-1,2021-08-07 10:30:59,358530
-1,-2,-3,-7,0,-1,-1,-2,2021-08-07 10:30:59,374530
-3,-3,-5,-10,-12,-6,-2,-2,2021-08-07 10:30:59,390529
2,3,5,16,23,10,3,2,2021-08-07 10:30:59,390529
0,0,1,3,-2,-1,0,-1,2021-08-07 10:30:59,390529
-1,-1,-2,-7,-8,-2,-2,-2,2021-08-07 10:30:59,390529
-2,-2,-3,-5,-5,-3,-2,-2,2021-08-07 10:30:59,390529
-2,-4,-7,-21,-26,-10,-4,-3,2021-08-07 10:30:59,405531
0,0,3,8,14,7,1,0,2021-08-07 10:30:59,405531
-3,-1,-1,-2,2,0,-2,-2,2021-08-07 10:30:59,405531
-2,-2,-3,-4,-4,-1,-1,-1,2021-08-07 10:30:59,405531
0,0,0,-2,-2,-2,1,-2,2021-08-07 10:30:59,437530
0,0,-2,1,4,-2,-2,-2,2021-08-07 10:30:59,453530
-2,-2,-3,-8,-11,-6,-2,-2,2021-08-07 10:30:59,453530
-1,-1,-1,0,-2,-3,-2,0,2021-08-07 10:30:59,453530
-2,-1,-1,-7,-5,-2,-2,0,2021-08-07 10:30:59,453530
0,-1,-1,3,5,2,-1,-1,2021-08-07 10:30:59,469531
-1,-1,-2,-4,-6,-2,-2,-1,2021-08-07 10:30:59,469531
0,1,1,8,13,3,1,1,2021-08-07 10:30:59,469531
-1,0,0,0,-3,-1,0,-2,2021-08-07 10:30:59,485531
1,1,5,12,9,3,0,1,2021-08-07 10:30:59,501532
0,1,-2,0,1,-1,0,1,2021-08-07 10:30:59,517531
-1,-1,0,-4,-2,0,-3,0,2021-08-07 10:30:59,533530
-1,-2,-4,-3,8,2,-1,0,2021-08-07 10:30:59,533530
-1,0,2,1,3,2,1,0,2021-08-07 10:30:59,533530
-2,-1,0,-1,-1,0,0,-2,2021-08-07 10:30:59,533530
-1,-3,-4,-10,-19,-9,-4,-2,2021-08-07 10:30:59,533530
0,-1,-1,3,-4,-3,-1,0,2021-08-07 10:30:59,533530
0,1,0,6,6,3,-1,1,2021-08-07 10:30:59,533530
-3,-2,-3,-2,-3,-3,-3,-2,2021-08-07 10:30:59,533530
-2,0,0,3,3,0,1,-1,2021-08-07 10:30:59,533530
-1,2,0,-1,-9,-4,0,0,2021-08-07 10:30:59,549531
-1,-2,-6,-10,-8,-4,-3,-1,2021-08-07 10:30:59,549531
1,0,-1,2,4,3,0,1,2021-08-07 10:30:59,549531
-3,-5,-4,-4,-2,-1,-1,-3,2021-08-07 10:30:59,549531
2,1,1,3,7,4,1,2,2021-08-07 10:30:59,549531
-1,-4,-5,-13,-23,-10,-5,-3,2021-08-07 10:30:59,549531
2,3,6,13,19,6,3,1,2021-08-07 10:30:59,549531
3,2,1,4,7,3,1,0,2021-08-07 10:30:59,549531
-1,-4,-5,-5,-10,-6,-4,-1,2021-08-07 10:30:59,549531
-2,-2,-1,0,1,-2,-1,-1,2021-08-07 10:30:59,549531
0,-3,-4,-16,-14,-5,-3,-1,2021-08-07 10:30:59,580532
1,2,3,10,9,4,1,0,2021-08-07 10:30:59,580532
-1,0,3,9,14,6,1,0,2021-08-07 10:30:59,612531
0,-1,-2,5,5,2,0,-1,2021-08-07 10:30:59,628551
-3,-3,-4,-10,-10,-6,-3,0,2021-08-07 10:30:59,628551
-1,0,-2,-7,-16,-6,-2,0,2021-08-07 10:30:59,628551
-1,-1,1,7,23,6,2,2,2021-08-07 10:30:59,639549
-1,0,1,3,1,0,0,0,2021-08-07 10:30:59,640549
-2,-2,-1,-6,-10,-3,0,-1,2021-08-07 10:30:59,640549
-3,-1,-1,5,12,3,-1,-1,2021-08-07 10:30:59,640549
-2,0,-1,-3,-10,-6,-3,-2,2021-08-07 10:30:59,640549
-2,-2,-1,-1,0,0,-1,-1,2021-08-07 10:30:59,640549
-1,-1,-1,-3,-6,-1,-1,0,2021-08-07 10:30:59,640549
-1,-2,-3,-9,-9,-4,-2,-2,2021-08-07 10:30:59,640549
-1,-3,-2,0,1,-1,0,-2,2021-08-07 10:30:59,640549
0,1,4,12,10,5,1,1,2021-08-07 10:30:59,640549
3,2,1,-2,-7,-4,-1,1,2021-08-07 10:30:59,641549
-1,-1,-2,-4,-4,-3,-2,-1,2021-08-07 10:30:59,641549
-2,-1,-2,-3,-1,-1,-2,-1,2021-08-07 10:30:59,675549
-4,-4,-6,-14,-10,-4,-2,-1,2021-08-07 10:30:59,691550
0,1,2,10,9,3,0,2,2021-08-07 10:30:59,691550
2,2,1,9,11,5,2,2,2021-08-07 10:30:59,691550
0,-2,0,-2,-8,-4,-1,-1,2021-08-07 10:30:59,691550
-1,-3,-5,-8,-11,-6,-2,0,2021-08-07 10:30:59,691550
-3,-1,-2,0,4,0,0,-2,2021-08-07 10:30:59,691550
3,1,2,8,9,4,3,2,2021-08-07 10:30:59,691550
-2,0,1,3,4,0,-2,-1,2021-08-07 10:30:59,691550
0,-1,0,-3,-3,-1,0,-2,2021-08-07 10:30:59,691550
-4,-3,-4,-6,-8,-6,-4,-1,2021-08-07 10:30:59,707550
-3,-4,-3,-3,-8,-4,-3,-3,2021-08-07 10:30:59,707550
4,4,2,2,11,7,3,3,2021-08-07 10:30:59,723549
1,2,0,3,8,3,0,0,2021-08-07 10:30:59,723549
0,0,-3,0,-2,-1,-1,-2,2021-08-07 10:30:59,739550
-3,-3,-2,-6,-1,-1,-1,-3,2021-08-07 10:30:59,755549
-1,0,-2,-5,-15,-10,-3,-1,2021-08-07 10:30:59,755549
-3,-3,-4,-11,-8,-6,-3,-3,2021-08-07 10:30:59,755549
1,0,0,4,3,3,1,1,2021-08-07 10:30:59,755549
2,2,3,7,14,7,5,3,2021-08-07 10:30:59,755549
-3,-4,-4,-5,-8,-2,-2,-2,2021-08-07 10:30:59,755549
2,1,2,7,11,6,4,3,2021-08-07 10:30:59,755549
-5,-5,-3,-9,-11,-4,-4,-5,2021-08-07 10:30:59,771550
-5,-2,-1,3,2,-1,-4,-2,2021-08-07 10:30:59,771550
-3,-2,-4,-6,-5,-3,-1,-3,2021-08-07 10:30:59,771550
0,2,4,4,-1,0,-2,1,2021-08-07 10:30:59,771550
-1,-1,-1,-3,1,-1,-1,0,2021-08-07 10:30:59,803549
0,0,-2,-4,-5,-4,-3,-1,2021-08-07 10:30:59,819550
1,-2,-2,-3,1,2,1,-1,2021-08-07 10:30:59,819550
1,0,-4,-3,-3,0,0,1,2021-08-07 10:30:59,819550
0,1,-1,0,4,2,1,1,2021-08-07 10:30:59,819550
0,0,1,2,1,-1,1,1,2021-08-07 10:30:59,819550
-4,-2,-1,-5,-10,-6,-1,0,2021-08-07 10:30:59,819550
0,-1,0,1,-1,0,0,-1,2021-08-07 10:30:59,819550
-2,-4,-4,-4,-6,-4,-4,-3,2021-08-07 10:30:59,835791
0,0,-1,1,3,3,0,0,2021-08-07 10:30:59,835791
1,-2,-2,-5,-7,0,0,-2,2021-08-07 10:30:59,835791
-1,0,4,12,13,4,2,0,2021-08-07 10:30:59,835791
0,1,0,-2,-2,-1,1,-1,2021-08-07 10:30:59,851062
0,0,4,11,12,4,2,-1,2021-08-07 10:30:59,851062
0,-2,0,1,-1,-1,-2,0,2021-08-07 10:30:59,851062
-3,-3,-4,-8,-12,-5,-3,-4,2021-08-07 10:30:59,851062
0,-3,-3,-3,-6,-4,-1,-2,2021-08-07 10:30:59,883060
0,0,-1,-3,-1,0,-1,1,2021-08-07 10:30:59,899085
0,1,0,4,2,0,-2,-1,2021-08-07 10:30:59,915085
-1,0,-2,-3,-7,-4,-1,-1,2021-08-07 10:30:59,915085
-2,0,-2,-3,10,3,0,0,2021-08-07 10:30:59,915085
-2,-3,-4,-7,-9,-3,-2,-1,2021-08-07 10:30:59,915085
-2,1,-2,-1,-2,0,1,-2,2021-08-07 10:30:59,915085
0,-2,0,-1,1,0,0,0,2021-08-07 10:30:59,915085
-2,0,0,0,-2,-2,1,-1,2021-08-07 10:30:59,915085
-1,-1,1,4,2,1,-1,0,2021-08-07 10:30:59,915085
0,-2,-3,-6,-5,-2,-1,0,2021-08-07 10:30:59,915085
-2,-2,-2,-4,-9,-5,-5,-2,2021-08-07 10:30:59,915085
0,1,1,6,1,0,-3,0,2021-08-07 10:30:59,931085
1,1,1,-2,3,-1,0,0,2021-08-07 10:30:59,931085
-2,-1,-2,1,0,-2,-1,0,2021-08-07 10:30:59,931085
-1,0,-2,-3,-5,-2,0,-1,2021-08-07 10:30:59,931085
0,0,-1,2,-3,-2,0,-1,2021-08-07 10:30:59,962085
-3,-2,-1,-6,-9,-7,-4,-3,2021-08-07 10:30:59,962085
-1,0,-1,2,1,1,-1,0,2021-08-07 10:30:59,994084
1,-1,0,4,10,5,0,-1,2021-08-07 10:30:59,994084
1,1,4,9,15,4,1,-1,2021-08-07 10:30:59,994084
0,-3,-5,-8,-11,-5,-2,0,2021-08-07 10:30:59,994084
1,1,2,4,8,3,0,0,2021-08-07 10:30:59,994084
-2,-2,-3,-3,-9,-4,-2,0,2021-08-07 10:30:59,994084
-3,-2,-2,-6,-8,-4,-3,-1,2021-08-07 10:30:59,994084
-3,-4,-5,-11,-9,-4,-3,-3,2021-08-07 10:30:59,994084
5,4,8,20,22,8,5,2,2021-08-07 10:30:59,994084
0,-2,-1,0,5,1,-1,-3,2021-08-07 10:30:59,994084
0,-1,-1,0,-2,-2,-2,1,2021-08-07 10:31:00,025085
-2,-2,-3,-3,-8,-3,-1,0,2021-08-07 10:31:00,025085
-6,-3,-5,-10,-14,-5,-5,-2,2021-08-07 10:31:00,041084
-1,0,-1,-1,1,-1,-1,0,2021-08-07 10:31:00,041084
-1,-2,-1,1,-1,-1,-2,-3,2021-08-07 10:31:00,041084
0,-1,-2,-4,-4,0,-2,0,2021-08-07 10:31:00,041084
-2,-1,-1,-5,-3,-2,-2,-2,2021-08-07 10:31:00,041084
3,2,5,16,17,7,2,4,2021-08-07 10:31:00,041084
-1,-4,-3,-5,-6,-3,-2,-2,2021-08-07 10:31:00,057084
2,1,3,7,5,2,2,1,2021-08-07 10:31:00,057084
-1,-2,-3,-5,-12,-5,-1,-1,2021-08-07 10:31:00,057084
-2,-2,-2,-9,-9,-6,-2,0,2021-08-07 10:31:00,057084
0,0,-1,4,11,4,1,0,2021-08-07 10:31:00,089084
-2,1,3,5,5,3,-1,-1,2021-08-07 10:31:00,089084
0,-1,0,3,1,0,0,0,2021-08-07 10:31:00,089084
-2,-3,-5,-13,-17,-7,-2,-3,2021-08-07 10:31:00,089084
1,1,0,6,5,-1,0,-1,2021-08-07 10:31:00,089084
-2,-2,-2,-6,-11,-4,-1,-2,2021-08-07 10:31:00,089084
-1,0,-2,-2,-1,-3,0,0,2021-08-07 10:31:00,105306
1,1,0,4,9,3,1,0,2021-08-07 10:31:00,105306
-3,-2,-1,3,3,-1,-1,-2,2021-08-07 10:31:00,120591
1,1,2,6,3,2,2,0,2021-08-07 10:31:00,120591
-2,-3,-5,-9,-11,-6,-3,-1,2021-08-07 10:31:00,120591
-1,-3,-3,-6,-5,-3,-1,0,2021-08-07 10:31:00,120591
1,0,-1,-1,-3,-1,-1,0,2021-08-07 10:31:00,136592
-1,2,2,11,9,1,1,-1,2021-08-07 10:31:00,136592
1,-1,-2,-1,2,0,-1,-2,2021-08-07 10:31:00,136592
0,-1,-2,-6,-8,-2,-2,0,2021-08-07 10:31:00,136592
-3,-3,-1,-1,-2,-2,-3,-2,2021-08-07 10:31:00,152592
2,2,3,2,-1,0,2,1,2021-08-07 10:31:00,152592
-2,-5,-6,-16,-14,-7,-5,-4,2021-08-07 10:31:00,152592
1,3,4,12,25,8,3,1,2021-08-07 10:31:00,152592
-2,0,-2,-5,-13,-4,-1,1,2021-08-07 10:31:00,183592
-3,-4,-2,4,14,4,-1,-1,2021-08-07 10:31:00,199104
-1,-1,-1,-1,-4,-2,0,0,2021-08-07 10:31:00,214619
-1,-2,-2,-4,-12,-4,-4,-4,2021-08-07 10:31:00,214619
1,-1,0,-4,-3,-1,0,-1,2021-08-07 10:31:00,227619
-3,-4,-7,-19,-25,-12,-5,-4,2021-08-07 10:31:00,227619
1,1,1,6,11,7,1,2,2021-08-07 10:31:00,227619
-3,-3,-1,5,5,-1,-1,-3,2021-08-07 10:31:00,227619
2,3,3,0,3,2,3,1,2021-08-07 10:31:00,227619
1,-1,-3,-1,-2,-1,-2,-1,2021-08-07 10:31:00,228620
-2,-3,0,-6,-12,-5,-5,-3,2021-08-07 10:31:00,228620
-3,-1,-5,2,3,0,0,-2,2021-08-07 10:31:00,228620
-1,-2,-3,-3,2,1,0,1,2021-08-07 10:31:00,228620
-2,-2,-4,-5,-4,-4,-1,-3,2021-08-07 10:31:00,228620
1,1,2,5,8,2,0,0,2021-08-07 10:31:00,228620
1,-1,-1,-3,-9,-2,-2,0,2021-08-07 10:31:00,228620
-2,-3,0,-4,-1,-1,-2,-3,2021-08-07 10:31:00,261618
-1,0,-1,1,4,2,-2,1,2021-08-07 10:31:00,261618
-4,-1,-4,-9,-12,-5,-4,-1,2021-08-07 10:31:00,261618
-3,-1,2,8,10,3,0,-1,2021-08-07 10:31:00,261618
-1,-1,0,1,6,3,0,0,2021-08-07 10:31:00,277619
-1,-2,3,3,-1,0,-1,-1,2021-08-07 10:31:00,277619
-1,2,-3,-2,4,0,0,-1,2021-08-07 10:31:00,277619
-1,0,-1,-1,-7,-2,1,0,2021-08-07 10:31:00,277619
-2,0,-3,-3,-4,-4,0,0,2021-08-07 10:31:00,292619
0,1,1,2,0,0,0,0,2021-08-07 10:31:00,308619
-2,-2,0,0,2,1,-1,0,2021-08-07 10:31:00,324619
-1,-5,-4,-8,-14,-8,-1,0,2021-08-07 10:31:00,324619
2,0,2,7,8,2,1,1,2021-08-07 10:31:00,339620
-1,-3,-3,-9,2,3,1,1,2021-08-07 10:31:00,355618
2,1,8,26,25,9,4,2,2021-08-07 10:31:00,371618
2,2,1,-1,-1,1,0,-2,2021-08-07 10:31:00,371618
-1,1,1,1,-9,-5,-1,-1,2021-08-07 10:31:00,371618
-1,-1,-4,-6,-7,-3,-1,-2,2021-08-07 10:31:00,371618
-4,-2,-7,-14,-13,-7,-4,-1,2021-08-07 10:31:00,371618
-1,-2,0,5,5,2,-1,-1,2021-08-07 10:31:00,371618
0,0,2,8,8,3,1,0,2021-08-07 10:31:00,371618
-1,0,-1,0,0,-1,0,-1,2021-08-07 10:31:00,371618
1,-1,0,4,1,1,-1,-1,2021-08-07 10:31:00,371618
-2,0,-3,-10,-11,-6,-2,-2,2021-08-07 10:31:00,371618
-1,-3,-3,-5,-6,-1,-1,-2,2021-08-07 10:31:00,371618
-2,-3,-3,-5,-7,-5,-3,-1,2021-08-07 10:31:00,371618
1,4,6,11,15,5,3,2,2021-08-07 10:31:00,372620
0,-1,1,0,4,2,0,1,2021-08-07 10:31:00,372620
0,-3,2,3,-1,0,0,-1,2021-08-07 10:31:00,387620
0,-1,-1,-2,-4,-1,-1,-1,2021-08-07 10:31:00,403619
-2,-3,-5,-11,-12,-5,-2,-4,2021-08-07 10:31:00,419619
1,2,1,1,2,1,1,1,2021-08-07 10:31:00,419619
-3,-1,-3,-6,-6,-2,-2,-2,2021-08-07 10:31:00,419619
-4,-2,-3,-4,-6,-5,-2,-3,2021-08-07 10:31:00,419619
1,-1,2,7,2,2,1,2,2021-08-07 10:31:00,419619
2,3,1,3,10,3,2,0,2021-08-07 10:31:00,419619
0,-1,-1,0,-5,-2,-2,-1,2021-08-07 10:31:00,435619
0,-1,1,4,7,3,1,0,2021-08-07 10:31:00,435619
0,0,1,3,7,4,1,-1,2021-08-07 10:31:00,435619
-4,-3,-4,-9,-16,-7,-2,-3,2021-08-07 10:31:00,435619
-2,-3,-5,-7,-8,-5,-3,-2,2021-08-07 10:31:00,451620
2,1,1,8,9,5,1,2,2021-08-07 10:31:00,451620
0,-3,-4,-4,-5,-4,-1,-1,2021-08-07 10:31:00,451620
0,-2,2,8,10,5,2,0,2021-08-07 10:31:00,451620
-2,0,-2,-6,-9,-5,-3,-2,2021-08-07 10:31:00,483618
-2,1,-2,-5,1,0,1,-1,2021-08-07 10:31:00,499619
-3,-2,-2,-3,-9,-3,-3,-1,2021-08-07 10:31:00,515618
0,0,2,2,0,-1,-2,-2,2021-08-07 10:31:00,517619
-1,-1,-1,1,4,4,1,-1,2021-08-07 10:31:00,518620
-3,-3,-2,-5,-8,-3,-2,-2,2021-08-07 10:31:00,518620
1,2,2,6,14,6,2,1,2021-08-07 10:31:00,518620
-3,-2,-4,-5,-9,-6,-4,-2,2021-08-07 10:31:00,518620
-2,-3,0,1,3,1,0,-1,2021-08-07 10:31:00,518620
-2,-2,-2,0,-3,-2,-1,-2,2021-08-07 10:31:00,518620
2,2,-2,-6,-5,-4,-2,-2,2021-08-07 10:31:00,518620
0,0,-1,-5,-13,-6,-3,0,2021-08-07 10:31:00,518620
2,-1,0,7,26,7,2,2,2021-08-07 10:31:00,531620
0,-3,-3,-3,-8,-1,2,1,2021-08-07 10:31:00,531620
-2,-3,-2,3,-4,0,0,1,2021-08-07 10:31:00,531620
-1,-3,-2,0,8,3,0,0,2021-08-07 10:31:00,531620
-2,-1,1,5,2,1,0,-2,2021-08-07 10:31:00,563620
-3,1,3,7,3,0,-3,-2,2021-08-07 10:31:00,579619
-3,-1,-1,-3,-5,-4,-3,-4,2021-08-07 10:31:00,611126
-3,-1,-4,-11,-9,-6,-4,-2,2021-08-07 10:31:00,611126
1,1,0,0,-3,-2,-2,0,2021-08-07 10:31:00,611126
3,0,0,3,4,0,-1,0,2021-08-07 10:31:00,611126
-3,-2,-6,-13,-18,-7,-4,-1,2021-08-07 10:31:00,611126
3,1,3,6,6,4,4,3,2021-08-07 10:31:00,611126
-1,0,-2,0,1,0,0,1,2021-08-07 10:31:00,611126
0,-1,0,-3,1,-1,0,1,2021-08-07 10:31:00,611126
2,1,1,3,8,4,2,0,2021-08-07 10:31:00,611126
-3,-3,-5,-10,-9,-5,-5,-5,2021-08-07 10:31:00,611126
1,2,2,2,4,4,0,2,2021-08-07 10:31:00,612127
0,0,0,-1,-3,-2,0,-2,2021-08-07 10:31:00,612127
-2,-2,-2,-3,-12,-7,-2,-2,2021-08-07 10:31:00,612127
0,0,-1,-1,7,4,1,0,2021-08-07 10:31:00,612127
-1,0,2,6,0,0,0,-2,2021-08-07 10:31:00,642126
0,-1,1,7,10,2,-1,-2,2021-08-07 10:31:00,642126
1,1,6,12,7,2,2,0,2021-08-07 10:31:00,642126
0,0,-2,-10,-19,-6,-2,-1,2021-08-07 10:31:00,642126
0,-2,-1,-3,9,0,-1,1,2021-08-07 10:31:00,658126
-1,-1,-4,-5,-8,-2,-1,-1,2021-08-07 10:31:00,658126
-2,-1,-1,1,1,1,-2,-1,2021-08-07 10:31:00,673127
0,-1,-1,1,3,3,0,0,2021-08-07 10:31:00,673127
-3,-3,-6,-13,-16,-6,-1,-3,2021-08-07 10:31:00,688126
-4,-3,-5,-15,-14,-7,-4,-3,2021-08-07 10:31:00,688126
5,4,6,17,18,8,4,4,2021-08-07 10:31:00,688126
-2,-2,-2,-3,-7,-5,-1,-2,2021-08-07 10:31:00,688126
-1,-1,-1,-4,-3,-1,1,-3,2021-08-07 10:31:00,688126
1,0,0,2,4,0,1,0,2021-08-07 10:31:00,688126
-4,-4,-7,-14,-24,-12,-6,-5,2021-08-07 10:31:00,704127
2,2,1,6,14,5,2,1,2021-08-07 10:31:00,704127
-2,-3,-2,0,1,-1,-2,-3,2021-08-07 10:31:00,720127
0,-1,0,1,-1,2,-1,0,2021-08-07 10:31:00,720127
-2,-2,-3,-8,0,1,-2,-2,2021-08-07 10:31:00,720127
-2,-1,-2,-5,-9,-5,-2,-1,2021-08-07 10:31:00,720127
-1,-2,0,-1,-7,-4,-1,0,2021-08-07 10:31:00,736127
-3,1,2,6,13,6,2,0,2021-08-07 10:31:00,736127
-1,0,-1,-5,0,1,-2,0,2021-08-07 10:31:00,736127
0,1,0,2,-1,-1,-1,0,2021-08-07 10:31:00,736127
0,-1,-3,-4,-10,-5,-1,-2,2021-08-07 10:31:00,768127
-1,0,-2,-2,-2,-2,0,0,2021-08-07 10:31:00,768127
-1,-3,-4,-5,0,0,0,-2,2021-08-07 10:31:00,768127
-3,-4,-1,-2,-12,-6,-4,-2,2021-08-07 10:31:00,768127
-1,0,-3,-2,3,1,-2,-1,2021-08-07 10:31:00,768127
2,2,5,15,28,11,3,2,2021-08-07 10:31:00,768127
-3,-2,-1,1,-1,-2,-1,-1,2021-08-07 10:31:00,784127
0,-1,0,0,1,-2,0,-1,2021-08-07 10:31:00,784127
-4,-2,-8,-20,-29,-11,-4,-4,2021-08-07 10:31:00,800127
1,-1,-1,-2,-8,-2,-1,-1,2021-08-07 10:31:00,800127
3,5,12,38,47,17,8,3,2021-08-07 10:31:00,800127
-2,-2,-3,-7,-6,-3,-1,-1,2021-08-07 10:31:00,800127
-1,-1,0,0,-2,-3,-1,-1,2021-08-07 10:31:00,815127
-2,-5,-7,-14,-20,-11,-2,-4,2021-08-07 10:31:00,815127
-2,-5,-5,-11,-12,-6,-3,-1,2021-08-07 10:31:00,815127
-1,-1,-2,-3,2,1,-1,0,2021-08-07 10:31:00,815127
0,1,2,6,2,0,1,-1,2021-08-07 10:31:00,832126
1,-1,1,5,12,5,2,1,2021-08-07 10:31:00,848126
-1,-2,-5,-13,-8,-4,-3,-3,2021-08-07 10:31:00,864126
-1,-2,-3,-3,2,-1,1,-3,2021-08-07 10:31:00,864126
-1,-2,-2,-2,-3,-1,-1,-1,2021-08-07 10:31:00,864126
-3,1,2,3,1,0,0,1,2021-08-07 10:31:00,864126
0,-1,-3,-2,-6,-2,-1,0,2021-08-07 10:31:00,864126
-3,0,-3,-6,-14,-5,-4,-2,2021-08-07 10:31:00,864126
2,1,1,14,22,8,3,3,2021-08-07 10:31:00,880126
0,1,0,1,0,0,-2,0,2021-08-07 10:31:00,896126
-2,0,-2,-3,-7,-1,-2,1,2021-08-07 10:31:00,896126
0,0,0,-3,0,0,-2,0,2021-08-07 10:31:00,896126
0,-1,2,2,2,2,1,0,2021-08-07 10:31:00,896126
-1,-2,-3,-1,-6,-4,-3,-2,2021-08-07 10:31:00,896126
0,-1,-3,-8,-11,-4,-4,-2,2021-08-07 10:31:00,896126
0,1,2,10,9,3,2,1,2021-08-07 10:31:00,912128
-3,-2,-2,-8,-7,-3,-2,-1,2021-08-07 10:31:00,912128
-2,-2,-1,1,3,0,-1,-1,2021-08-07 10:31:00,912128
-1,-1,-1,-6,-10,-5,-1,-2,2021-08-07 10:31:00,912128
1,2,2,7,13,6,2,2,2021-08-07 10:31:00,927127
-1,-1,-1,0,-2,-1,-1,-2,2021-08-07 10:31:00,943126
-2,-3,-2,-4,-4,-2,-2,-3,2021-08-07 10:31:00,943126
-2,2,1,7,9,3,4,2,2021-08-07 10:31:00,943126
-1,-1,-1,-2,-4,-1,0,-1,2021-08-07 10:31:00,943126
2,3,0,1,-1,-2,0,0,2021-08-07 10:31:00,959126
-3,-3,-4,-11,-9,-4,-2,-1,2021-08-07 10:31:00,975125
1,0,2,2,0,-1,-3,-1,2021-08-07 10:31:00,975125
-5,-6,-8,-16,-27,-13,-6,-4,2021-08-07 10:31:00,975125
3,1,9,27,44,16,4,2,2021-08-07 10:31:00,975125
0,2,4,5,1,1,1,0,2021-08-07 10:31:00,991126
-1,-3,-5,-9,-5,-3,-1,-2,2021-08-07 10:31:01,007127
-2,0,-1,0,-4,-2,-1,-1,2021-08-07 10:31:01,007127
-2,-3,-5,-13,-17,-7,-6,-2,2021-08-07 10:31:01,007127
-3,-2,-1,-3,1,0,0,0,2021-08-07 10:31:01,007127
0,-1,-1,1,1,0,-1,-1,2021-08-07 10:31:01,007127
-1,-2,0,-1,1,-2,0,-1,2021-08-07 10:31:01,007127
-3,-3,-3,-9,-8,-4,-1,-1,2021-08-07 10:31:01,007127
2,0,2,11,10,3,1,1,2021-08-07 10:31:01,007127
-1,-2,-5,-19,-15,-7,-2,-2,2021-08-07 10:31:01,023127
1,1,6,15,19,8,3,3,2021-08-07 10:31:01,039127
0,-1,-1,-6,-4,-2,0,0,2021-08-07 10:31:01,039127
-3,-2,-2,-8,-9,-3,-3,-1,2021-08-07 10:31:01,039127
-3,-3,-1,3,-2,-3,-1,-1,2021-08-07 10:31:01,039127
1,-2,-2,-2,-1,2,-1,-2,2021-08-07 10:31:01,039127
2,0,1,3,7,4,1,-1,2021-08-07 10:31:01,070127
0,0,-1,-1,-5,-3,-2,-1,2021-08-07 10:31:01,070127
-1,-2,1,4,0,-1,0,-2,2021-08-07 10:31:01,070127
-2,-1,-2,-3,0,-2,-2,-1,2021-08-07 10:31:01,070127
-1,-1,-1,1,-8,-4,-2,-1,2021-08-07 10:31:01,070127
-2,-1,-4,-7,-7,-4,-1,-1,2021-08-07 10:31:01,070127
-2,-2,-3,-4,-1,-1,-3,-1,2021-08-07 10:31:01,086126
0,1,3,14,19,7,5,-1,2021-08-07 10:31:01,086126
-4,0,-1,-3,-6,-3,-1,1,2021-08-07 10:31:01,102126
0,0,-1,-2,0,2,1,0,2021-08-07 10:31:01,108127
-1,-1,0,-2,-4,-2,-1,-1,2021-08-07 10:31:01,108127
0,-3,-2,-4,0,-1,-1,-1,2021-08-07 10:31:01,108127
-1,0,0,2,-6,-2,-3,-3,2021-08-07 10:31:01,118126
1,0,1,5,5,1,2,0,2021-08-07 10:31:01,118126
-1,0,-1,-1,-4,1,0,0,2021-08-07 10:31:01,118126
-1,-1,-1,-9,-10,-5,-2,-1,2021-08-07 10:31:01,118126
-1,-4,-3,0,1,1,1,-2,2021-08-07 10:31:01,134127
-1,-1,-2,-7,-6,-3,-3,-3,2021-08-07 10:31:01,149127
0,1,3,7,4,0,1,0,2021-08-07 10:31:01,149127
2,1,3,14,15,5,1,0,2021-08-07 10:31:01,149127
-2,-2,-4,-8,-4,-2,-1,0,2021-08-07 10:31:01,165126
-1,-4,-4,-9,-16,-9,-5,-1,2021-08-07 10:31:01,165126
1,2,6,11,20,9,4,2,2021-08-07 10:31:01,165126
-2,-2,-1,-5,-13,-8,-4,-2,2021-08-07 10:31:01,165126
1,2,5,18,25,10,5,1,2021-08-07 10:31:01,181127
1,0,1,1,2,2,2,0,2021-08-07 10:31:01,181127
-2,-3,-9,-21,-24,-12,-5,-3,2021-08-07 10:31:01,181127
-2,-1,1,10,4,-1,0,-1,2021-08-07 10:31:01,181127
-2,-1,-4,-13,-12,-5,-2,-1,2021-08-07 10:31:01,197127
-1,-1,-1,3,9,1,-1,0,2021-08-07 10:31:01,197127
0,-1,1,-1,2,1,-1,0,2021-08-07 10:31:01,197127
0,1,-1,-2,-2,0,-1,0,2021-08-07 10:31:01,197127
0,-1,0,-3,-7,-3,-2,-3,2021-08-07 10:31:01,213126
-2,-2,-3,-1,-1,-2,-1,-1,2021-08-07 10:31:01,229126
-1,0,-3,-2,1,0,-1,-1,2021-08-07 10:31:01,229126
0,0,-1,0,-2,-1,-1,0,2021-08-07 10:31:01,229126
-1,-3,-1,-5,-5,-5,-3,-1,2021-08-07 10:31:01,245128
-2,-1,0,-1,4,1,0,-1,2021-08-07 10:31:01,245128
-1,0,2,11,12,5,1,1,2021-08-07 10:31:01,261153
-2,-2,-3,-8,-9,-3,-3,-1,2021-08-07 10:31:01,261153
-2,-1,-3,-6,-9,-5,-1,-2,2021-08-07 10:31:01,261153
-3,-3,-4,-11,-9,-4,-3,-1,2021-08-07 10:31:01,261153
0,0,1,5,2,1,1,0,2021-08-07 10:31:01,277152
2,2,5,15,31,14,4,3,2021-08-07 10:31:01,293152
0,1,1,-2,-9,-4,-3,-1,2021-08-07 10:31:01,293152
-1,-2,-4,-7,-10,-6,-4,-2,2021-08-07 10:31:01,293152
-2,-4,-4,-8,-10,-6,-2,-2,2021-08-07 10:31:01,293152
1,-1,-3,-5,0,1,1,0,2021-08-07 10:31:01,293152
-2,-2,-5,-6,-10,-4,-1,0,2021-08-07 10:31:01,293152
0,1,4,9,19,8,3,2,2021-08-07 10:31:01,293152
-3,-1,0,1,-4,-4,-2,-4,2021-08-07 10:31:01,293152
-3,-2,-2,-5,-6,-2,-3,-4,2021-08-07 10:31:01,293152
-5,-2,0,1,-1,-2,-3,-2,2021-08-07 10:31:01,309151
-1,0,-1,1,-2,-2,-2,-3,2021-08-07 10:31:01,309151
1,3,1,0,1,1,0,1,2021-08-07 10:31:01,325151
1,0,0,-6,-3,0,1,0,2021-08-07 10:31:01,341153
1,1,-4,-3,-2,-1,0,1,2021-08-07 10:31:01,357151
-2,0,-3,0,-3,-1,0,-1,2021-08-07 10:31:01,372152
2,-1,-2,3,7,2,1,1,2021-08-07 10:31:01,372152
-2,-2,-2,-5,-7,-5,-1,-1,2021-08-07 10:31:01,372152
-2,-3,-1,0,-3,-1,0,-1,2021-08-07 10:31:01,372152
-2,-3,-5,-6,-5,-3,-2,-3,2021-08-07 10:31:01,372152
1,1,6,15,22,10,3,1,2021-08-07 10:31:01,372152
-1,1,0,1,-4,-1,0,-1,2021-08-07 10:31:01,372152
-1,0,-1,0,-1,-3,1,1,2021-08-07 10:31:01,372152
2,1,1,-1,2,0,-2,-3,2021-08-07 10:31:01,373152
-2,-2,-1,-5,-14,-8,-3,-1,2021-08-07 10:31:01,388152
-1,-1,-3,-7,-9,-5,-3,-2,2021-08-07 10:31:01,404152
-2,-2,-1,2,15,5,0,-1,2021-08-07 10:31:01,415152
2,1,4,7,-1,1,2,2,2021-08-07 10:31:01,415152
0,1,2,2,8,2,0,0,2021-08-07 10:31:01,415152
-1,0,-1,1,-2,-4,0,-1,2021-08-07 10:31:01,415152
-2,-4,-5,-11,-22,-9,-5,-3,2021-08-07 10:31:01,415152
0,0,2,5,9,4,1,1,2021-08-07 10:31:01,415152
-1,0,-4,-10,-7,-3,-2,-1,2021-08-07 10:31:01,415152
-1,0,1,8,0,-1,-1,0,2021-08-07 10:31:01,415152
0,1,-3,-6,2,-2,-1,-1,2021-08-07 10:31:01,436151
1,-1,1,5,12,5,3,1,2021-08-07 10:31:01,452383
-2,-2,-1,-1,-4,0,-1,-2,2021-08-07 10:31:01,452383
-1,-2,-4,-7,-1,-1,-1,-2,2021-08-07 10:31:01,452383
-1,0,3,10,7,5,0,0,2021-08-07 10:31:01,452383
-1,-1,-1,0,-3,-2,-2,-2,2021-08-07 10:31:01,452383
-1,-2,-3,-4,-4,-3,-1,-1,2021-08-07 10:31:01,452383
-3,-4,-3,-3,-2,-3,-3,-1,2021-08-07 10:31:01,452383
0,0,0,-4,0,0,-1,0,2021-08-07 10:31:01,483664
0,0,0,3,1,-1,-2,-1,2021-08-07 10:31:01,499665
1,0,-1,-2,-4,-2,-3,0,2021-08-07 10:31:01,515665
0,-1,1,3,4,1,0,-1,2021-08-07 10:31:01,530665
-2,-3,-3,-8,-9,-4,-2,0,2021-08-07 10:31:01,546665
2,0,1,6,2,1,0,-1,2021-08-07 10:31:01,562666
2,1,2,4,10,3,1,0,2021-08-07 10:31:01,562666
-1,-2,-1,-4,-3,0,1,-1,2021-08-07 10:31:01,562666
0,1,0,3,-1,-2,0,-1,2021-08-07 10:31:01,562666
-1,0,-2,-6,-10,-7,-3,-3,2021-08-07 10:31:01,562666
-1,-1,-2,-2,1,0,1,-2,2021-08-07 10:31:01,562666
2,1,2,5,10,5,2,1,2021-08-07 10:31:01,562666
0,-1,1,4,10,5,3,-1,2021-08-07 10:31:01,562666
-3,-2,-5,-8,-11,-5,-3,-2,2021-08-07 10:31:01,562666
-3,-5,-7,-16,-15,-6,-4,-2,2021-08-07 10:31:01,562666
0,1,1,5,-4,-4,-3,-2,2021-08-07 10:31:01,562666
0,0,2,8,4,2,1,0,2021-08-07 10:31:01,563666
0,-1,0,3,11,3,1,0,2021-08-07 10:31:01,563666
-2,-4,-2,-6,-7,-4,-2,-1,2021-08-07 10:31:01,563666
-1,-3,-2,-8,-7,-3,-1,-2,2021-08-07 10:31:01,563666
1,0,2,3,3,0,0,0,2021-08-07 10:31:01,578666
-3,-1,-1,-1,-2,-1,-2,-2,2021-08-07 10:31:01,578666
1,0,0,3,3,0,0,1,2021-08-07 10:31:01,578666
-3,-2,-3,-2,0,-1,-2,-3,2021-08-07 10:31:01,578666
-1,-1,-2,-2,-2,0,-2,-3,2021-08-07 10:31:01,609665
-2,0,-2,-3,-4,-1,-1,0,2021-08-07 10:31:01,625666
-1,-2,0,0,0,-2,-1,-1,2021-08-07 10:31:01,641666
1,0,0,-3,-3,0,-1,2,2021-08-07 10:31:01,657664
-2,-2,-5,-7,-5,-3,-2,-2,2021-08-07 10:31:01,657664
-1,0,-6,-11,-10,-5,-2,0,2021-08-07 10:31:01,657664
-1,1,4,15,11,5,-2,-1,2021-08-07 10:31:01,672665
1,1,3,9,7,4,0,1,2021-08-07 10:31:01,672665
-1,2,-1,-1,-2,-3,-3,-2,2021-08-07 10:31:01,672665
-3,-1,-1,-5,0,-1,-1,0,2021-08-07 10:31:01,672665
-1,-2,-5,-13,-10,-5,-2,-2,2021-08-07 10:31:01,672665
-3,-2,-2,2,5,0,1,-2,2021-08-07 10:31:01,672665
-1,-1,1,2,-3,-1,-1,0,2021-08-07 10:31:01,672665
-3,-3,-3,-7,-15,-4,-2,-2,2021-08-07 10:31:01,672665
3,3,3,8,28,11,3,3,2021-08-07 10:31:01,672665
-3,-2,-3,-1,-8,-3,-4,-1,2021-08-07 10:31:01,672665
-2,-2,-2,-6,4,-1,0,-3,2021-08-07 10:31:01,687665
-4,-1,-1,-8,-12,-6,-1,1,2021-08-07 10:31:01,687665
0,1,3,9,6,3,0,-1,2021-08-07 10:31:01,703666
0,-1,-1,-7,-6,-2,-3,1,2021-08-07 10:31:01,708664
0,1,1,8,9,5,1,0,2021-08-07 10:31:01,708664
0,-2,-3,0,0,-1,0,-1,2021-08-07 10:31:01,709666
-2,-2,-4,-11,-20,-7,-2,0,2021-08-07 10:31:01,709666
2,3,1,6,25,7,3,2,2021-08-07 10:31:01,709666
-1,-2,0,-4,-11,-5,-1,-1,2021-08-07 10:31:01,719666
0,0,-1,2,2,0,1,-1,2021-08-07 10:31:01,719666
-4,-3,-6,-11,-17,-6,-3,-1,2021-08-07 10:31:01,719666
-1,-1,-1,-3,-7,-4,-2,-2,2021-08-07 10:31:01,719666
2,1,4,5,10,3,0,3,2021-08-07 10:31:01,751666
0,0,2,5,5,1,1,-1,2021-08-07 10:31:01,766666
-1,-1,-2,-1,-7,-3,-2,-1,2021-08-07 10:31:01,782665
-4,-3,-4,-12,-14,-5,-2,-2,2021-08-07 10:31:01,798666
-2,-1,-1,-2,2,0,-2,-1,2021-08-07 10:31:01,814666
1,0,1,3,3,1,-1,1,2021-08-07 10:31:01,814666
-1,-2,-3,-4,-3,-2,-1,1,2021-08-07 10:31:01,814666
-1,-2,0,4,5,1,-1,0,2021-08-07 10:31:01,814666
1,0,-1,-2,-3,1,-1,3,2021-08-07 10:31:01,814666
2,0,2,5,10,5,1,1,2021-08-07 10:31:01,814666
0,-2,-1,2,-1,-1,-1,-1,2021-08-07 10:31:01,814666
-1,-2,-2,-7,-6,-3,-1,-1,2021-08-07 10:31:01,814666
-2,-3,-2,-5,-18,-9,-3,0,2021-08-07 10:31:01,815667
-2,-1,1,9,22,6,1,-1,2021-08-07 10:31:01,815667
-1,0,3,5,9,3,0,-1,2021-08-07 10:31:01,815667
-2,0,0,4,-1,0,-1,2,2021-08-07 10:31:01,815667
-3,-2,-6,-7,-11,-5,-3,-3,2021-08-07 10:31:01,815667
-1,-2,-2,-7,-8,-3,-2,-3,2021-08-07 10:31:01,815667
-2,-1,1,0,-3,-2,-1,-2,2021-08-07 10:31:01,815667
-1,-1,-2,-4,-8,-6,-2,-3,2021-08-07 10:31:01,815667
3,2,3,5,12,6,2,3,2021-08-07 10:31:01,846664
0,0,1,8,1,1,-2,-1,2021-08-07 10:31:01,846664
-1,-1,-3,0,4,-1,0,0,2021-08-07 10:31:01,846664
-2,-2,-1,-6,-11,-5,-2,-1,2021-08-07 10:31:01,846664
-1,0,0,4,12,4,1,2,2021-08-07 10:31:01,862665
2,1,0,-3,-2,0,0,2,2021-08-07 10:31:01,878666
0,-1,0,-3,-4,-3,-1,-2,2021-08-07 10:31:01,878666
-1,1,0,1,-2,-1,-2,-2,2021-08-07 10:31:01,878666
-1,-2,-2,-4,-7,-7,-2,-3,2021-08-07 10:31:01,878666
-3,-1,-2,-3,-4,-2,-2,-1,2021-08-07 10:31:01,878666
-1,-2,-2,3,2,-1,-1,-3,2021-08-07 10:31:01,878666
0,0,1,1,1,0,2,0,2021-08-07 10:31:01,878666
0,-4,1,0,0,0,-1,-1,2021-08-07 10:31:01,910665
-2,-1,-3,-13,-16,-8,-2,-2,2021-08-07 10:31:01,910665
0,-1,0,3,4,2,0,-2,2021-08-07 10:31:01,910665
-2,-3,-3,0,1,1,-1,0,2021-08-07 10:31:01,910665
0,2,-1,-3,0,0,1,0,2021-08-07 10:31:01,926665
-2,-3,0,0,-1,-2,-2,-1,2021-08-07 10:31:01,926665
-2,-1,-1,-4,-4,-1,-2,-1,2021-08-07 10:31:01,926665
1,-1,1,3,2,0,-1,0,2021-08-07 10:31:01,926665
-1,-1,-3,-4,1,-1,-1,-2,2021-08-07 10:31:01,941666
-1,-2,-2,-3,-2,-2,0,-2,2021-08-07 10:31:01,957666
-2,1,-1,-1,-2,-2,-1,0,2021-08-07 10:31:01,957666
-1,-3,-2,-4,-3,-1,0,0,2021-08-07 10:31:01,957666
0,0,2,6,1,-1,-3,0,2021-08-07 10:31:01,957666
1,1,1,1,4,2,1,0,2021-08-07 10:31:01,957666
-2,-2,-2,-2,-2,-1,-2,-2,2021-08-07 10:31:01,957666
1,0,-1,0,5,1,1,-2,2021-08-07 10:31:01,957666
-1,0,1,5,0,1,0,1,2021-08-07 10:31:02,005665
-1,0,-1,-1,-2,1,-1,0,2021-08-07 10:31:02,005665
-1,-2,-3,-7,-9,-4,-1,-1,2021-08-07 10:31:02,005665
1,0,0,2,6,0,1,-1,2021-08-07 10:31:02,005665
0,-2,-3,-1,-2,-2,-1,-4,2021-08-07 10:31:02,005665
0,-2,0,-3,-3,-1,-1,-2,2021-08-07 10:31:02,018666
-1,0,1,5,1,-1,-3,-1,2021-08-07 10:31:02,018666
-2,-3,-4,-6,-4,-2,-1,-2,2021-08-07 10:31:02,018666
-1,-2,-1,0,-1,0,-1,-1,2021-08-07 10:31:02,019666
-1,0,-1,2,-2,0,-1,-1,2021-08-07 10:31:02,019666
-1,0,0,-2,-2,0,0,1,2021-08-07 10:31:02,019666
0,0,2,4,1,0,0,1,2021-08-07 10:31:02,019666
-2,-2,-3,-6,-2,1,-1,0,2021-08-07 10:31:02,053665
-4,-2,-5,-5,-10,-6,-3,-3,2021-08-07 10:31:02,069666
-1,0,0,1,8,2,2,-1,2021-08-07 10:31:02,069666
-1,1,-1,-3,-4,0,-1,0,2021-08-07 10:31:02,069666
1,2,2,5,2,1,0,1,2021-08-07 10:31:02,085666
-2,-3,-3,-5,-6,-4,-2,-2,2021-08-07 10:31:02,085666
0,-3,1,5,5,1,0,-1,2021-08-07 10:31:02,085666
0,-1,-3,-6,-3,-2,-3,-1,2021-08-07 10:31:02,085666
2,1,3,4,2,1,3,0,2021-08-07 10:31:02,085666
-1,-1,-1,0,0,-2,-1,-1,2021-08-07 10:31:02,085666
1,-2,-2,0,-3,-2,1,0,2021-08-07 10:31:02,085666
-1,-2,-4,-9,-5,-2,1,-1,2021-08-07 10:31:02,085666
0,-2,-1,4,4,3,1,0,2021-08-07 10:31:02,101666
2,-1,-2,0,2,1,2,0,2021-08-07 10:31:02,101666
-4,-4,-5,-14,-14,-8,-4,-2,2021-08-07 10:31:02,101666
-1,1,6,15,15,6,1,0,2021-08-07 10:31:02,101666
-3,0,-2,-4,-3,0,-2,-3,2021-08-07 10:31:02,117666
0,0,4,12,11,5,-2,1,2021-08-07 10:31:02,133668
0,-2,-2,-6,-12,-4,-3,-1,2021-08-07 10:31:02,133668
-1,-2,-2,-1,-3,-3,-3,0,2021-08-07 10:31:02,133668
0,0,-1,-4,-6,-3,-2,0,2021-08-07 10:31:02,149666
0,-2,-3,1,2,1,0,-1,2021-08-07 10:31:02,165664
2,3,5,8,8,5,3,3,2021-08-07 10:31:02,165664
-1,1,1,-2,-6,-3,1,0,2021-08-07 10:31:02,165664
-2,-3,-5,-11,-4,-1,-2,-1,2021-08-07 10:31:02,197666
-4,-2,-2,-6,-7,-2,-3,-2,2021-08-07 10:31:02,213665
-1,1,2,10,6,3,0,-1,2021-08-07 10:31:02,213665
0,-1,0,-1,3,2,0,-1,2021-08-07 10:31:02,213665
-1,0,1,3,4,-1,-2,1,2021-08-07 10:31:02,213665
-1,-2,-1,-7,-7,-4,0,0,2021-08-07 10:31:02,213665
0,0,0,-2,1,0,0,-1,2021-08-07 10:31:02,213665
-2,-1,-1,-2,-6,-3,-2,-1,2021-08-07 10:31:02,213665
-1,-3,-2,-2,0,-3,0,-2,2021-08-07 10:31:02,213665
-2,0,-1,-1,0,1,0,0,2021-08-07 10:31:02,213665
-1,-2,-1,-1,0,-2,0,0,2021-08-07 10:31:02,213665
-2,-4,-1,0,0,-1,-2,-2,2021-08-07 10:31:02,214666
-2,0,3,8,0,0,-1,0,2021-08-07 10:31:02,214666
3,3,4,7,7,4,2,2,2021-08-07 10:31:02,214666
-1,-2,-2,-4,-4,0,-3,0,2021-08-07 10:31:02,214666
-1,-3,-5,-8,-10,-6,-3,-4,2021-08-07 10:31:02,214666
-1,-1,-3,-7,-1,0,-1,-2,2021-08-07 10:31:02,259666
-1,-3,-2,0,-5,-4,-1,-1,2021-08-07 10:31:02,275666
-1,-1,-3,-4,0,0,-1,-2,2021-08-07 10:31:02,275666
-1,-1,0,-6,-9,-4,-4,-3,2021-08-07 10:31:02,275666
-2,-2,-2,-2,-4,0,-1,-1,2021-08-07 10:31:02,275666
5,3,4,17,30,12,5,3,2021-08-07 10:31:02,275666
-3,-2,-2,0,-3,-2,-3,-3,2021-08-07 10:31:02,275666
-1,-1,-3,-1,-3,-1,0,1,2021-08-07 10:31:02,275666
-3,-2,-3,-14,-13,-9,-3,-2,2021-08-07 10:31:02,275666
-2,-2,-3,-3,-8,-5,-3,-3,2021-08-07 10:31:02,276666
0,0,0,-1,0,0,-1,0,2021-08-07 10:31:02,291665
-2,-1,0,6,6,4,-1,1,2021-08-07 10:31:02,291665
-1,0,-1,-4,-6,-3,-3,0,2021-08-07 10:31:02,291665
-1,-1,-1,3,5,2,1,0,2021-08-07 10:31:02,291665
0,0,1,1,4,0,1,1,2021-08-07 10:31:02,307665
-1,-2,-3,-3,-6,-1,-2,-2,2021-08-07 10:31:02,307665
-4,-2,-2,-8,-12,-5,-3,-1,2021-08-07 10:31:02,316667
-1,-3,-5,-16,-9,-6,-3,-3,2021-08-07 10:31:02,316667
2,0,3,12,13,5,3,2,2021-08-07 10:31:02,316667
2,1,1,3,2,1,2,0,2021-08-07 10:31:02,316667
0,-2,-1,-3,-7,-4,-2,-1,2021-08-07 10:31:02,339665
-3,-1,0,1,6,2,-1,-3,2021-08-07 10:31:02,354664
-3,-2,-3,-4,-3,-1,-2,-1,2021-08-07 10:31:02,354664
1,1,0,-4,-1,1,-1,-1,2021-08-07 10:31:02,354664
1,-1,3,14,12,2,0,-2,2021-08-07 10:31:02,354664
-3,-2,-3,-5,-14,-5,-3,-1,2021-08-07 10:31:02,354664
1,0,1,7,14,5,1,-1,2021-08-07 10:31:02,370666
-1,0,0,4,6,2,0,0,2021-08-07 10:31:02,370666
-2,-2,-4,-9,-10,-3,-2,-2,2021-08-07 10:31:02,370666
0,1,1,0,-1,0,0,1,2021-08-07 10:31:02,370666
-2,0,-5,-7,-7,-2,-3,1,2021-08-07 10:31:02,386665
-2,0,1,3,-2,-3,-1,-1,2021-08-07 10:31:02,402665
0,0,1,3,9,4,2,1,2021-08-07 10:31:02,402665
1,1,0,-2,-3,-1,2,1,2021-08-07 10:31:02,402665
-1,-2,-2,-7,-8,-4,-2,-3,2021-08-07 10:31:02,402665
-2,-1,0,1,-1,-2,-2,0,2021-08-07 10:31:02,402665
1,0,3,9,9,4,2,2,2021-08-07 10:31:02,418665
0,0,-2,2,2,0,-1,-1,2021-08-07 10:31:02,434666
-1,1,-2,-5,-8,-5,-2,-1,2021-08-07 10:31:02,434666
-2,-3,-4,-4,-5,-4,-1,0,2021-08-07 10:31:02,434666
-1,0,0,0,5,2,0,-1,2021-08-07 10:31:02,434666
-2,-2,-1,-6,-4,-2,-2,0,2021-08-07 10:31:02,434666
-2,-1,-3,-2,-4,-3,-1,1,2021-08-07 10:31:02,434666
1,0,4,14,17,6,2,0,2021-08-07 10:31:02,434666
-1,-2,-4,-8,-6,-3,0,1,2021-08-07 10:31:02,466665
-1,-3,-3,-5,-8,-4,-3,0,2021-08-07 10:31:02,482666
1,-1,1,0,-4,-3,-1,-2,2021-08-07 10:31:02,482666
-3,-3,-4,-5,-10,-6,-4,-3,2021-08-07 10:31:02,482666
1,4,2,3,10,5,3,2,2021-08-07 10:31:02,482666
2,-2,2,8,7,1,0,0,2021-08-07 10:31:02,482666
-1,-3,-3,-6,-2,0,-1,2,2021-08-07 10:31:02,482666
-1,-1,-2,-4,-6,-4,-2,-2,2021-08-07 10:31:02,482666
-3,-4,-7,-17,-20,-12,-5,-3,2021-08-07 10:31:02,498666
0,3,5,19,18,9,3,2,2021-08-07 10:31:02,498666
0,1,0,2,4,2,-1,1,2021-08-07 10:31:02,498666
-2,-2,-2,-10,-8,-3,0,-1,2021-08-07 10:31:02,498666
-1,-3,-3,2,2,0,-1,-4,2021-08-07 10:31:02,529665
-2,-2,-3,-10,-15,-7,-2,0,2021-08-07 10:31:02,529665
0,0,-1,-3,-2,0,2,1,2021-08-07 10:31:02,529665
2,0,-1,7,8,3,0,0,2021-08-07 10:31:02,529665
-2,-1,0,1,-1,-1,-1,-1,2021-08-07 10:31:02,529665
-3,-5,-5,-10,-8,-4,-2,-3,2021-08-07 10:31:02,529665
0,0,1,3,-1,-1,3,-2,2021-08-07 10:31:02,544664
-1,-1,-1,-4,0,-1,1,0,2021-08-07 10:31:02,544664
1,0,2,7,8,1,0,1,2021-08-07 10:31:02,575664
-3,-3,-3,-7,-2,-2,-2,-2,2021-08-07 10:31:02,591665
-5,-5,-5,-4,-8,-5,-4,-2,2021-08-07 10:31:02,591665
4,6,2,1,5,6,3,3,2021-08-07 10:31:02,591665
1,1,5,14,12,4,0,-2,2021-08-07 10:31:02,591665
-1,-3,-7,-12,-19,-8,-4,-3,2021-08-07 10:31:02,591665
1,0,3,11,10,2,-1,-1,2021-08-07 10:31:02,591665
-1,1,0,4,13,4,1,1,2021-08-07 10:31:02,591665
-3,-1,-3,-3,-4,0,-2,-1,2021-08-07 10:31:02,591665
-1,-2,1,-4,-6,-4,-3,-2,2021-08-07 10:31:02,591665
-4,-4,-5,-12,-15,-6,-4,-3,2021-08-07 10:31:02,606665
-4,-5,-9,-20,-20,-9,-5,-3,2021-08-07 10:31:02,606665
5,5,6,15,19,9,5,4,2021-08-07 10:31:02,617666
-1,0,0,2,-4,-2,-1,-2,2021-08-07 10:31:02,617666
0,1,-1,-1,0,2,-1,0,2021-08-07 10:31:02,637665
0,-1,1,4,3,1,0,-1,2021-08-07 10:31:02,637665
-4,-5,-7,-15,-19,-8,-3,-5,2021-08-07 10:31:02,637665
0,0,1,6,7,4,3,2,2021-08-07 10:31:02,637665
1,2,5,13,14,5,4,2,2021-08-07 10:31:02,637665
-3,-3,-2,-3,-6,-3,-4,-3,2021-08-07 10:31:02,637665
-3,-3,-4,-9,-13,-6,-3,-1,2021-08-07 10:31:02,669665
1,3,4,5,10,7,4,-1,2021-08-07 10:31:02,669665
2,2,3,16,16,6,3,2,2021-08-07 10:31:02,669665
2,-2,-2,-9,1,-2,-1,0,2021-08-07 10:31:02,669665
-4,-7,-11,-16,-20,-15,-10,-3,2021-08-07 10:31:02,685666
-3,-2,-4,-12,-14,-6,-4,-3,2021-08-07 10:31:02,685666
-1,0,-1,-6,4,1,1,0,2021-08-07 10:31:02,685666
-1,0,3,5,-4,0,0,0,2021-08-07 10:31:02,685666
4,4,8,12,26,14,5,2,2021-08-07 10:31:02,701665
2,-1,0,0,-6,-2,0,0,2021-08-07 10:31:02,717668
-2,-1,-2,-6,-1,-1,-2,-2,2021-08-07 10:31:02,733666
1,1,1,4,0,0,1,0,2021-08-07 10:31:02,733666
-1,1,-2,-6,-16,-8,-3,-2,2021-08-07 10:31:02,733666
-2,0,2,10,14,5,-3,-3,2021-08-07 10:31:02,733666
0,-1,1,-7,-9,-3,-1,0,2021-08-07 10:31:02,733666
-2,-3,-3,-2,-2,-1,0,0,2021-08-07 10:31:02,733666
-2,-3,-2,5,5,1,-1,-1,2021-08-07 10:31:02,733666
-3,-2,-4,-16,-16,-6,-3,-2,2021-08-07 10:31:02,733666
4,6,8,15,13,4,2,1,2021-08-07 10:31:02,733666
-2,-6,-9,-8,-3,-3,-2,-2,2021-08-07 10:31:02,733666
0,-3,-4,-4,3,5,2,-1,2021-08-07 10:31:02,764666
-3,-5,-7,-6,-4,-6,-3,-1,2021-08-07 10:31:02,764666
-4,-3,-10,-23,-21,-9,-6,-3,2021-08-07 10:31:02,764666
-2,-1,-3,-5,-9,-7,-3,-3,2021-08-07 10:31:02,764666
0,1,2,7,11,6,2,1,2021-08-07 10:31:02,796665
1,2,6,21,25,12,3,1,2021-08-07 10:31:02,796665
-1,-2,-1,0,-6,-2,0,-1,2021-08-07 10:31:02,796665
0,0,0,-7,-11,-5,-2,0,2021-08-07 10:31:02,796665
-1,1,0,-4,-11,-5,-2,-1,2021-08-07 10:31:02,796665
0,2,6,14,12,2,1,-2,2021-08-07 10:31:02,796665
2,2,5,12,7,4,2,3,2021-08-07 10:31:02,812665
0,-1,-6,-10,-11,-5,-3,-1,2021-08-07 10:31:02,812665
-3,-5,-6,-17,-13,-7,-3,-3,2021-08-07 10:31:02,828665
1,0,-3,-10,-9,0,-1,0,2021-08-07 10:31:02,844665
0,0,1,12,18,5,1,-1,2021-08-07 10:31:02,844665
-1,1,4,10,6,2,-1,-1,2021-08-07 10:31:02,844665
0,3,4,6,2,1,1,0,2021-08-07 10:31:02,859666
-1,-2,-2,-3,-11,-6,-2,-1,2021-08-07 10:31:02,874665
-4,-6,-9,-14,-15,-7,-3,-3,2021-08-07 10:31:02,874665
2,3,4,8,11,4,1,2,2021-08-07 10:31:02,874665
-1,1,2,6,7,2,0,-1,2021-08-07 10:31:02,874665
-3,0,-1,-2,1,-1,-1,-1,2021-08-07 10:31:02,874665
-2,-2,-8,-16,-13,-6,-3,-2,2021-08-07 10:31:02,874665
2,4,7,17,16,8,3,1,2021-08-07 10:31:02,874665
-3,-4,-6,-12,-11,-7,-5,-2,2021-08-07 10:31:02,874665
1,4,5,15,9,5,2,1,2021-08-07 10:31:02,875666
-1,-3,0,-1,-1,0,0,-2,2021-08-07 10:31:02,875666
-3,-1,3,-6,-3,-2,-2,-1,2021-08-07 10:31:02,875666
-2,-3,-7,-3,-7,-5,-2,0,2021-08-07 10:31:02,906666
0,0,-2,-8,-7,-4,-1,0,2021-08-07 10:31:02,915665
1,3,2,6,12,5,1,1,2021-08-07 10:31:02,915665
-1,-2,2,6,2,2,0,-2,2021-08-07 10:31:02,916666
-1,-1,4,3,-5,-2,-1,-2,2021-08-07 10:31:02,916666
1,0,-2,-2,17,5,2,3,2021-08-07 10:31:02,916666
-3,-3,-4,-3,-12,-5,-2,-2,2021-08-07 10:31:02,938665
-3,-3,-2,-3,2,1,0,-2,2021-08-07 10:31:02,954666
-5,-1,-2,-2,-5,-5,-4,-5,2021-08-07 10:31:02,970665
-4,-4,-6,-11,-15,-8,-4,-4,2021-08-07 10:31:02,986665
-3,-1,0,0,-3,-1,-3,-3,2021-08-07 10:31:03,002667
0,-1,-4,-11,-6,-1,-3,0,2021-08-07 10:31:03,002667
3,2,2,5,12,5,0,0,2021-08-07 10:31:03,002667
2,1,2,5,1,1,0,0,2021-08-07 10:31:03,002667
0,-5,-6,-9,-8,-6,-3,-1,2021-08-07 10:31:03,018664
0,-1,-6,-8,-8,-6,-1,-1,2021-08-07 10:31:03,018664
-1,-2,-2,-3,-1,-4,-1,-1,2021-08-07 10:31:03,018664
0,-2,-5,-7,-6,-1,-1,0,2021-08-07 10:31:03,018664
-2,-1,-1,0,-3,-3,-2,-1,2021-08-07 10:31:03,049666
-2,-3,-5,-18,-18,-7,-2,-1,2021-08-07 10:31:03,065665
1,4,14,28,24,10,3,3,2021-08-07 10:31:03,065665
2,1,3,6,12,5,3,1,2021-08-07 10:31:03,081666
-3,-3,-5,-7,-16,-8,-4,-3,2021-08-07 10:31:03,081666
-4,-4,-6,-11,-5,-3,-2,-4,2021-08-07 10:31:03,081666
0,1,2,6,7,3,1,0,2021-08-07 10:31:03,081666
-2,-3,-2,-2,0,-3,-2,-1,2021-08-07 10:31:03,081666
-2,-2,-3,-7,-10,-4,-1,-2,2021-08-07 10:31:03,081666
5,4,5,15,12,6,4,1,2021-08-07 10:31:03,081666
0,0,-2,-8,-7,-4,-2,0,2021-08-07 10:31:03,081666
-2,0,2,3,-5,-3,-2,-2,2021-08-07 10:31:03,081666
3,3,5,11,22,11,5,4,2021-08-07 10:31:03,081666
-7,-8,-7,-14,-13,-8,-4,-2,2021-08-07 10:31:03,081666
0,-2,-8,0,4,1,1,1,2021-08-07 10:31:03,082665
-1,0,0,-5,-9,-3,-3,-2,2021-08-07 10:31:03,082665
1,-2,-2,-4,-2,-2,-2,0,2021-08-07 10:31:03,082665
2,4,7,13,5,3,2,-1,2021-08-07 10:31:03,082665
1,1,0,-3,5,3,1,0,2021-08-07 10:31:03,082665
-3,-3,-3,-5,-5,-4,-3,-1,2021-08-07 10:31:03,082665
-1,-1,-2,-6,-1,-1,2,-1,2021-08-07 10:31:03,082665
0,1,3,14,14,5,0,0,2021-08-07 10:31:03,082665
-4,-3,-4,-11,-19,-8,-3,-4,2021-08-07 10:31:03,097665
-1,-2,-3,-7,-11,-5,-3,0,2021-08-07 10:31:03,113665
4,4,5,16,20,11,4,2,2021-08-07 10:31:03,129665
-3,-3,-6,-4,-3,-3,-2,-2,2021-08-07 10:31:03,129665
-2,-2,-4,-7,-11,-6,-3,-2,2021-08-07 10:31:03,129665
0,1,4,6,4,1,1,-2,2021-08-07 10:31:03,129665
-3,-3,0,-14,-21,-10,-4,-3,2021-08-07 10:31:03,129665
3,5,3,25,33,13,5,6,2021-08-07 10:31:03,129665
-2,-3,-7,-11,-5,-4,-2,0,2021-08-07 10:31:03,145665
-3,-4,-3,-8,-11,-5,-5,0,2021-08-07 10:31:03,145665
-2,-1,5,3,-2,-4,-4,-3,2021-08-07 10:31:03,145665
-2,-2,-2,-9,-17,-9,-3,-3,2021-08-07 10:31:03,145665
3,0,2,19,25,11,4,1,2021-08-07 10:31:03,161666
-1,-2,-6,-6,-3,-2,3,-1,2021-08-07 10:31:03,161666
-1,-3,-5,-9,-6,-3,-1,-1,2021-08-07 10:31:03,161666
-1,1,1,-2,-3,-5,-3,-1,2021-08-07 10:31:03,161666
1,3,8,5,1,1,0,-1,2021-08-07 10:31:03,193664
0,0,3,5,2,2,0,0,2021-08-07 10:31:03,205665
-3,-4,-11,-8,1,0,-3,-2,2021-08-07 10:31:03,205665
-3,-6,-5,-8,-3,-1,-2,-3,2021-08-07 10:31:03,205665
-4,-5,-10,-17,-16,-7,-4,-3,2021-08-07 10:31:03,205665
4,6,10,20,15,9,5,4,2021-08-07 10:31:03,206666
-4,-3,-1,-5,-8,-5,-4,-2,2021-08-07 10:31:03,206666
1,1,4,12,4,1,2,1,2021-08-07 10:31:03,206666
-1,0,-5,-13,-6,-1,1,0,2021-08-07 10:31:03,225664
-1,-4,-5,-1,2,-1,-1,-4,2021-08-07 10:31:03,225664
0,1,2,-1,-6,1,1,1,2021-08-07 10:31:03,225664
-5,-3,-4,-4,-4,-6,-5,-4,2021-08-07 10:31:03,225664
2,4,6,8,3,2,2,2,2021-08-07 10:31:03,240665
-4,-2,-8,-7,-1,-2,-2,0,2021-08-07 10:31:03,240665
2,1,-2,-1,2,-1,-1,0,2021-08-07 10:31:03,240665
-1,-2,0,-3,-2,-1,-3,-2,2021-08-07 10:31:03,256667
-3,-3,-2,-2,-2,-4,-2,-3,2021-08-07 10:31:03,256667
1,2,2,2,-3,0,1,1,2021-08-07 10:31:03,256667
-1,-1,3,5,7,-1,-1,-2,2021-08-07 10:31:03,272666
0,-2,-7,2,7,5,1,0,2021-08-07 10:31:03,272666
-4,-5,-5,-11,-8,-5,-4,-4,2021-08-07 10:31:03,272666
-3,-6,-11,-6,0,0,-2,-1,2021-08-07 10:31:03,272666
2,3,3,13,4,1,1,1,2021-08-07 10:31:03,303666
1,3,6,4,-2,0,1,2,2021-08-07 10:31:03,319666
0,-1,1,2,2,0,-1,-1,2021-08-07 10:31:03,319666
0,1,5,5,9,3,-1,0,2021-08-07 10:31:03,319666
-1,1,-1,-4,-8,-4,-2,-2,2021-08-07 10:31:03,319666
0,-1,2,5,-3,-2,0,-1,2021-08-07 10:31:03,319666
-2,-2,-2,-3,-4,-3,-2,-1,2021-08-07 10:31:03,319666
-2,0,1,-2,6,0,0,-1,2021-08-07 10:31:03,319666
-1,-1,-4,-1,-9,-6,-2,-1,2021-08-07 10:31:03,319666
2,3,2,-4,10,6,3,2,2021-08-07 10:31:03,319666
-3,-4,-9,-12,-5,-2,-1,-2,2021-08-07 10:31:03,351666
-1,-2,-5,-11,-10,-5,-3,-3,2021-08-07 10:31:03,351666
-1,-1,3,5,4,-1,0,0,2021-08-07 10:31:03,351666
-2,-3,0,-1,-7,-5,-1,-2,2021-08-07 10:31:03,351666
0,0,1,1,-8,-3,-2,-3,2021-08-07 10:31:03,367665
0,0,-2,-5,1,0,-1,0,2021-08-07 10:31:03,399666
0,3,7,14,16,9,4,1,2021-08-07 10:31:03,414666
-2,-3,-10,-7,-7,-4,-4,-2,2021-08-07 10:31:03,414666
-2,-1,2,-2,0,-3,-1,1,2021-08-07 10:31:03,414666
-1,-1,4,11,-2,-1,0,-1,2021-08-07 10:31:03,414666
-1,-1,-2,-2,-1,0,-1,0,2021-08-07 10:31:03,446666
-2,-5,-7,-13,-6,-3,-2,-2,2021-08-07 10:31:03,462665
-4,-3,-2,2,5,0,-1,-3,2021-08-07 10:31:03,462665
2,5,4,7,5,1,0,2,2021-08-07 10:31:03,462665
-1,0,0,-1,4,2,1,-1,2021-08-07 10:31:03,462665
0,0,0,-5,0,-1,0,-1,2021-08-07 10:31:03,462665
-2,-2,-4,2,-3,-3,-2,-2,2021-08-07 10:31:03,462665
0,-2,-1,-7,-4,-1,-3,-2,2021-08-07 10:31:03,462665
0,1,0,2,2,0,0,0,2021-08-07 10:31:03,463666
-4,-3,-4,-8,-17,-7,-4,-3,2021-08-07 10:31:03,463666
2,4,8,12,14,8,3,3,2021-08-07 10:31:03,463666
3,5,12,24,17,8,5,1,2021-08-07 10:31:03,463666
0,-2,-3,-1,0,0,-2,-1,2021-08-07 10:31:03,478666
-6,-8,-18,-31,-26,-12,-6,-5,2021-08-07 10:31:03,478666
-2,-4,-7,-15,-1,-2,-3,-1,2021-08-07 10:31:03,478666
-3,-3,-4,-5,-4,-5,-1,-2,2021-08-07 10:31:03,478666
-2,0,5,5,-4,-2,-2,-1,2021-08-07 10:31:03,478666
2,4,10,22,16,6,2,2,2021-08-07 10:31:03,478666
2,2,-8,-1,-1,1,0,2,2021-08-07 10:31:03,478666
-2,-3,-3,-9,-5,-4,-2,-2,2021-08-07 10:31:03,478666
-1,0,2,8,6,0,0,0,2021-08-07 10:31:03,478666
-1,0,2,1,0,-2,-3,-2,2021-08-07 10:31:03,478666
3,5,14,18,12,5,1,2,2021-08-07 10:31:03,505665
-1,-1,-1,1,-4,-2,-3,-2,2021-08-07 10:31:03,505665
-4,-5,-10,-18,-16,-7,-3,-2,2021-08-07 10:31:03,505665
-5,-4,-14,-18,3,1,-2,-2,2021-08-07 10:31:03,505665
-2,-3,-2,-3,-5,-5,-2,-1,2021-08-07 10:31:03,525665
-1,-3,-10,-7,-7,-4,0,0,2021-08-07 10:31:03,525665
0,2,5,4,-10,-4,0,1,2021-08-07 10:31:03,525665
5,2,10,15,9,5,3,1,2021-08-07 10:31:03,525665
2,2,5,9,15,5,0,0,2021-08-07 10:31:03,541665
1,1,-1,-6,-6,-3,0,-1,2021-08-07 10:31:03,557665
-3,-4,-9,-15,-12,-7,-3,-4,2021-08-07 10:31:03,557665
-3,-3,-2,3,1,-1,-2,0,2021-08-07 10:31:03,557665
-5,-6,-5,-18,-10,-7,-3,-4,2021-08-07 10:31:03,557665
-2,-2,-3,-8,-8,-3,-2,0,2021-08-07 10:31:03,557665
-2,-3,-4,-10,-12,-4,-3,-1,2021-08-07 10:31:03,573665
6,9,14,35,35,14,6,5,2021-08-07 10:31:03,589664
-1,0,1,3,7,4,0,-2,2021-08-07 10:31:03,605666
-1,-2,-3,-7,-1,-2,-3,-3,2021-08-07 10:31:03,605666
-4,-5,-10,-21,-12,-7,-3,-1,2021-08-07 10:31:03,605666
-3,-2,0,0,-10,-7,-3,-2,2021-08-07 10:31:03,605666
-1,-1,2,2,-9,-4,0,1,2021-08-07 10:31:03,605666
-5,-4,-3,-3,-7,-3,-2,-3,2021-08-07 10:31:03,605666
4,3,5,15,28,15,6,4,2021-08-07 10:31:03,605666
1,-3,1,-4,-8,-3,-1,0,2021-08-07 10:31:03,605666
1,3,0,4,3,-2,-1,0,2021-08-07 10:31:03,636665
-1,0,4,-1,-9,-3,-2,0,2021-08-07 10:31:03,652666
-2,0,-1,-3,-7,-4,-2,-1,2021-08-07 10:31:03,668666
-2,0,-2,1,10,3,3,-1,2021-08-07 10:31:03,668666
-6,-9,-20,-26,-20,-7,-4,-2,2021-08-07 10:31:03,668666
-1,-1,7,8,8,2,0,1,2021-08-07 10:31:03,668666
2,3,0,17,19,7,3,2,2021-08-07 10:31:03,668666
0,1,3,-2,-11,-4,-1,-2,2021-08-07 10:31:03,668666
-3,-1,-3,-9,-16,-6,-5,-3,2021-08-07 10:31:03,684666
1,2,2,-1,2,0,1,0,2021-08-07 10:31:03,684666
-2,-4,-3,-2,12,2,-2,-3,2021-08-07 10:31:03,684666
-3,-4,-6,-9,-13,-6,-3,-2,2021-08-07 10:31:03,684666
0,1,4,11,4,0,0,0,2021-08-07 10:31:03,684666
0,1,0,10,8,2,0,1,2021-08-07 10:31:03,684666
0,3,11,10,-3,1,0,1,2021-08-07 10:31:03,684666
0,2,-3,1,4,1,2,0,2021-08-07 10:31:03,684666
-3,-4,-8,-11,-11,-4,-2,-2,2021-08-07 10:31:03,716665
-4,-6,-9,-11,-4,-4,-3,-4,2021-08-07 10:31:03,716665
-2,-2,-4,-8,-6,-3,-1,-2,2021-08-07 10:31:03,716665
-1,0,1,3,3,-1,-2,-1,2021-08-07 10:31:03,716665
1,2,6,10,2,0,3,1,2021-08-07 10:31:03,716665
-2,-2,-3,-14,-21,-8,-4,-3,2021-08-07 10:31:03,732665
-3,-3,-1,4,7,1,-1,-1,2021-08-07 10:31:03,732665
3,1,0,11,10,6,2,2,2021-08-07 10:31:03,732665
1,1,3,-2,6,2,1,-1,2021-08-07 10:31:03,747666
0,-1,-6,5,1,-1,0,2,2021-08-07 10:31:03,762665
-1,-4,-8,-11,-13,-4,-2,-2,2021-08-07 10:31:03,762665
-6,-6,-8,-23,-18,-7,-4,-2,2021-08-07 10:31:03,762665
-3,-1,2,5,2,2,-2,-2,2021-08-07 10:31:03,762665
-2,3,3,8,15,4,-1,-3,2021-08-07 10:31:03,762665
-1,2,4,0,-7,-6,-3,-1,2021-08-07 10:31:03,778675
-1,-1,-1,3,2,-3,-2,-2,2021-08-07 10:31:03,778675
-1,-1,0,-1,-5,0,-2,-1,2021-08-07 10:31:03,778675
2,2,0,-2,3,2,2,3,2021-08-07 10:31:03,778675
2,-1,0,4,2,0,1,0,2021-08-07 10:31:03,793666
2,1,-1,1,7,3,1,1,2021-08-07 10:31:03,793666
-3,-3,-10,-20,-21,-10,-4,-3,2021-08-07 10:31:03,801667
1,-3,-2,-3,6,3,-1,-2,2021-08-07 10:31:03,801667
-3,-3,-6,-8,-8,-3,-2,-2,2021-08-07 10:31:03,801667
-1,0,-1,-5,-5,-4,-3,0,2021-08-07 10:31:03,801667
4,4,11,33,26,11,4,2,2021-08-07 10:31:03,825664
0,-3,-6,-6,-9,-5,-2,-2,2021-08-07 10:31:03,825664
-2,-5,-4,-19,-10,-4,-3,-1,2021-08-07 10:31:03,825664
-4,-5,-11,-17,-15,-5,-3,-3,2021-08-07 10:31:03,840665
5,3,6,24,15,6,3,2,2021-08-07 10:31:03,855664
-1,2,4,9,4,0,-1,2,2021-08-07 10:31:03,855664
-1,-1,-2,2,-2,-1,-1,-3,2021-08-07 10:31:03,855664
-3,-4,-3,-13,-16,-8,-4,-3,2021-08-07 10:31:03,855664
0,-1,-2,-4,3,2,1,1,2021-08-07 10:31:03,871665
0,-1,5,7,4,2,1,-1,2021-08-07 10:31:03,871665
1,2,3,7,3,2,0,1,2021-08-07 10:31:03,871665
0,-1,-2,-8,-5,-1,-2,1,2021-08-07 10:31:03,871665
-2,-4,-9,-12,-5,-7,-4,-4,2021-08-07 10:31:03,887666
-2,-2,-3,-1,-3,-1,-1,-2,2021-08-07 10:31:03,903665
-1,1,7,8,19,4,1,2,2021-08-07 10:31:03,919666
2,3,11,18,13,5,2,0,2021-08-07 10:31:03,919666
-2,-4,-13,-14,-11,-3,-3,-1,2021-08-07 10:31:03,919666
-2,-5,-8,-18,-26,-12,-4,-3,2021-08-07 10:31:03,919666
1,1,1,3,9,3,1,1,2021-08-07 10:31:03,919666
3,3,0,9,17,9,4,2,2021-08-07 10:31:03,919666
-4,0,1,1,-2,-2,-3,-1,2021-08-07 10:31:03,919666
0,-2,-3,-4,-4,-3,-2,1,2021-08-07 10:31:03,919666
-2,1,1,3,-5,-1,-2,-2,2021-08-07 10:31:03,919666
-1,2,5,9,4,1,-1,0,2021-08-07 10:31:03,919666
2,2,4,3,0,1,1,0,2021-08-07 10:31:03,950664
-2,-1,-1,4,13,7,1,-2,2021-08-07 10:31:03,950664
-1,-2,-5,-3,-10,-4,-2,-3,2021-08-07 10:31:03,966667
-1,-2,0,-3,-6,-3,-3,-2,2021-08-07 10:31:03,982665
0,0,2,1,0,0,0,2,2021-08-07 10:31:03,998665
-1,0,-9,-12,-3,-1,-1,-3,2021-08-07 10:31:04,014666
-2,-3,-5,-10,-15,-7,-3,-3,2021-08-07 10:31:04,014666
2,0,0,15,18,8,2,0,2021-08-07 10:31:04,014666
-3,-3,0,-7,-8,-4,-2,-3,2021-08-07 10:31:04,014666
-1,1,3,0,3,3,2,1,2021-08-07 10:31:04,014666
-2,-2,-5,-2,1,-1,-1,-1,2021-08-07 10:31:04,030666
-2,-2,-4,-9,-14,-7,-2,-2,2021-08-07 10:31:04,030666
0,2,7,8,8,4,0,1,2021-08-07 10:31:04,030666
-4,-2,-2,-7,-11,-4,-3,-3,2021-08-07 10:31:04,030666
1,0,-2,0,11,3,2,0,2021-08-07 10:31:04,030666
0,-1,1,7,1,-1,-1,-2,2021-08-07 10:31:04,030666
-1,-1,-1,-5,-4,-1,-2,0,2021-08-07 10:31:04,030666
0,0,-3,6,9,1,1,-1,2021-08-07 10:31:04,030666
0,1,3,2,-7,-3,-1,0,2021-08-07 10:31:04,030666
-4,-3,-3,-13,-10,-4,-3,-2,2021-08-07 10:31:04,030666
-1,0,1,6,7,2,0,-1,2021-08-07 10:31:04,045665
0,1,3,2,-2,-1,-1,0,2021-08-07 10:31:04,061666
-1,-3,-5,2,0,1,-1,-2,2021-08-07 10:31:04,061666
1,1,1,2,8,3,-1,0,2021-08-07 10:31:04,061666
0,0,-2,-6,-4,-3,-1,-1,2021-08-07 10:31:04,061666
-2,-2,5,8,0,1,-2,-1,2021-08-07 10:31:04,061666
0,1,-2,3,4,1,1,-2,2021-08-07 10:31:04,061666
-4,-6,-12,-23,-17,-10,-4,-2,2021-08-07 10:31:04,061666
2,1,1,6,11,5,1,1,2021-08-07 10:31:04,092667
3,5,8,15,16,8,2,0,2021-08-07 10:31:04,105666
-1,-4,-3,-7,-10,-2,-3,-1,2021-08-07 10:31:04,105666
-4,-7,-16,-19,-12,-8,-4,-4,2021-08-07 10:31:04,105666
-2,-2,-3,-7,-6,-5,-1,-4,2021-08-07 10:31:04,106665
-3,-5,-8,-1,-2,-3,-3,-2,2021-08-07 10:31:04,106665
2,3,9,14,3,2,0,2,2021-08-07 10:31:04,106665
1,3,7,5,-9,-1,-1,0,2021-08-07 10:31:04,106665
1,-1,-3,4,13,4,0,1,2021-08-07 10:31:04,124664
-4,-3,-9,-24,-24,-11,-6,-4,2021-08-07 10:31:04,124664
2,2,4,12,22,9,3,3,2021-08-07 10:31:04,139666
0,-2,1,7,-2,-2,-1,-2,2021-08-07 10:31:04,139666
0,1,1,-5,-8,-3,0,0,2021-08-07 10:31:04,139666
1,-1,-5,-14,-1,0,1,0,2021-08-07 10:31:04,139666
1,3,10,26,11,5,3,2,2021-08-07 10:31:04,187664
3,4,7,12,3,1,0,2,2021-08-07 10:31:04,187664
-2,-4,-7,-4,-13,-4,-3,-1,2021-08-07 10:31:04,187664
-6,-8,-15,-27,-12,-7,-6,-3,2021-08-07 10:31:04,187664
-1,-4,-7,-19,-7,-4,-2,-2,2021-08-07 10:31:04,187664
-1,0,-2,1,-2,4,0,0,2021-08-07 10:31:04,187664
0,2,1,13,10,1,1,0,2021-08-07 10:31:04,187664
1,2,5,12,3,1,1,1,2021-08-07 10:31:04,187664
-2,-2,1,-5,-10,-4,-2,-3,2021-08-07 10:31:04,203664
-1,0,8,10,12,4,2,2,2021-08-07 10:31:04,203664
0,-1,-4,-8,-7,-2,-2,0,2021-08-07 10:31:04,219668
0,-2,-8,-3,6,4,0,0,2021-08-07 10:31:04,235667
-4,-5,-7,-14,-16,-8,-5,-4,2021-08-07 10:31:04,266665
-1,-2,-1,-8,3,1,-1,0,2021-08-07 10:31:04,266665
1,2,10,20,5,1,1,-1,2021-08-07 10:31:04,266665
3,4,8,10,2,1,2,1,2021-08-07 10:31:04,282667
-3,-5,-12,-19,-12,-4,-3,-1,2021-08-07 10:31:04,297665
-2,-4,-7,-13,-15,-7,-4,-2,2021-08-07 10:31:04,297665
-2,-3,-3,-11,-1,-2,-3,-2,2021-08-07 10:31:04,297665
0,0,5,18,8,4,3,0,2021-08-07 10:31:04,297665
-2,-2,-7,-15,-8,-6,-2,-2,2021-08-07 10:31:04,297665
2,2,8,13,11,4,3,0,2021-08-07 10:31:04,297665
2,3,7,11,3,4,2,2,2021-08-07 10:31:04,297665
-1,-2,-1,3,10,2,1,-2,2021-08-07 10:31:04,297665
-6,-7,-13,-13,-14,-7,-5,-3,2021-08-07 10:31:04,297665
-2,-4,-9,-19,-14,-10,-3,-2,2021-08-07 10:31:04,298666
0,0,2,7,6,3,0,1,2021-08-07 10:31:04,298666
3,4,10,8,-6,0,0,2,2021-08-07 10:31:04,298666
0,0,8,17,18,7,0,1,2021-08-07 10:31:04,298666
-2,-3,-6,1,-3,-1,-1,-2,2021-08-07 10:31:04,298666
-4,-6,-17,-21,-11,-6,-2,-2,2021-08-07 10:31:04,313666
-2,-3,-4,-11,-7,-4,-2,-4,2021-08-07 10:31:04,313666
2,2,10,12,0,1,1,0,2021-08-07 10:31:04,313666
0,1,3,3,9,4,0,1,2021-08-07 10:31:04,313666
1,2,-1,12,10,4,3,0,2021-08-07 10:31:04,329666
-2,-3,-3,0,-2,-2,-2,-2,2021-08-07 10:31:04,345665
1,2,-6,-5,-3,0,-1,2,2021-08-07 10:31:04,345665
-2,-1,3,-6,-10,-4,-3,-2,2021-08-07 10:31:04,345665
-3,-8,-5,-13,-14,-6,-5,-5,2021-08-07 10:31:04,345665
3,7,6,18,23,9,6,4,2021-08-07 10:31:04,345665
1,2,3,2,3,1,2,-1,2021-08-07 10:31:04,345665
0,1,0,8,13,4,2,2,2021-08-07 10:31:04,345665
-4,-5,-6,-11,-9,-5,-4,-4,2021-08-07 10:31:04,377667
-2,-5,-4,-4,-18,-7,-5,-3,2021-08-07 10:31:04,393666
-2,-2,-4,-11,-6,-5,-1,-2,2021-08-07 10:31:04,425667
-1,1,-1,-2,5,3,0,0,2021-08-07 10:31:04,441681
4,3,3,9,4,3,2,0,2021-08-07 10:31:04,441681
-5,-6,-10,-15,-17,-7,-5,-2,2021-08-07 10:31:04,441681
2,1,4,10,25,8,1,0,2021-08-07 10:31:04,441681
1,1,-2,3,-7,-1,-1,-1,2021-08-07 10:31:04,441681
-3,-3,8,-5,-5,-2,-2,-2,2021-08-07 10:31:04,441681
-3,-1,-10,-1,-2,-2,-1,-1,2021-08-07 10:31:04,441681
-2,-5,-6,-13,-7,-2,-1,-3,2021-08-07 10:31:04,442667
1,1,1,12,7,1,0,1,2021-08-07 10:31:04,442667
3,4,6,6,8,4,2,3,2021-08-07 10:31:04,455667
-1,0,1,-1,2,2,1,1,2021-08-07 10:31:04,455667
-3,-3,-2,7,5,0,-2,-2,2021-08-07 10:31:04,455667
0,2,4,2,0,0,-2,-1,2021-08-07 10:31:04,455667
-1,0,-2,0,-3,-3,-2,0,2021-08-07 10:31:04,455667
-1,-3,-1,-7,-7,-6,-2,-2,2021-08-07 10:31:04,455667
-3,-2,-4,-6,-9,-5,-1,-1,2021-08-07 10:31:04,455667
-2,0,1,-4,-8,-5,-1,-2,2021-08-07 10:31:04,455667
0,0,0,0,1,0,-1,-1,2021-08-07 10:31:04,473667
-1,-1,0,-2,2,1,-2,-1,2021-08-07 10:31:04,473667
3,2,1,7,8,3,1,1,2021-08-07 10:31:04,473667
-4,-7,-8,-19,-16,-9,-3,-2,2021-08-07 10:31:04,473667
1,0,1,7,10,4,3,2,2021-08-07 10:31:04,489667
0,0,1,7,8,1,-1,0,2021-08-07 10:31:04,505665
-1,-2,3,4,-4,-2,-1,0,2021-08-07 10:31:04,537665
-2,-4,-9,-11,-7,-3,-4,-3,2021-08-07 10:31:04,537665
-2,-2,-2,-6,-9,-4,-2,-3,2021-08-07 10:31:04,537665
2,-3,-5,-10,-12,-3,-2,2,2021-08-07 10:31:04,553665
1,2,6,6,11,2,1,0,2021-08-07 10:31:04,553665
0,-2,-6,-12,-7,-2,-3,0,2021-08-07 10:31:04,553665
0,2,1,12,16,5,4,0,2021-08-07 10:31:04,553665
-3,-3,-5,-7,2,0,0,-3,2021-08-07 10:31:04,553665
-1,1,5,12,0,-2,-2,-2,2021-08-07 10:31:04,553665
-1,1,6,13,5,0,0,1,2021-08-07 10:31:04,569665
-2,-1,-4,-6,-6,-4,-3,-3,2021-08-07 10:31:04,585664
-2,-1,0,-9,-8,-3,-1,0,2021-08-07 10:31:04,601666
-2,-2,-8,-10,-9,-4,-4,-1,2021-08-07 10:31:04,617668
3,2,7,13,17,8,3,2,2021-08-07 10:31:04,617668
1,-2,-6,-1,-7,-2,-2,-1,2021-08-07 10:31:04,617668
2,1,10,9,0,1,2,0,2021-08-07 10:31:04,617668
-1,-5,-18,-7,-2,-1,-2,0,2021-08-07 10:31:04,617668
0,-1,0,-6,-5,0,-1,1,2021-08-07 10:31:04,617668
-5,-4,-3,-3,-3,-2,-1,-2,2021-08-07 10:31:04,617668
-2,1,2,7,14,6,-2,-2,2021-08-07 10:31:04,617668
-6,-2,2,-3,-12,-5,-3,-5,2021-08-07 10:31:04,617668
0,3,7,25,24,6,1,0,2021-08-07 10:31:04,617668
-2,0,-3,-7,-11,-6,-3,-1,2021-08-07 10:31:04,618667
-2,-2,-6,-16,-12,-8,-5,-3,2021-08-07 10:31:04,618667
0,-2,0,-7,-6,-2,0,0,2021-08-07 10:31:04,618667
1,-2,-5,-7,0,-1,0,0,2021-08-07 10:31:04,618667
-2,-2,-4,-5,-10,-6,-3,-2,2021-08-07 10:31:04,633665
-1,1,0,1,1,0,1,-1,2021-08-07 10:31:04,633665
5,5,9,19,12,3,3,2,2021-08-07 10:31:04,649666
-1,-4,-8,0,3,0,0,-4,2021-08-07 10:31:04,649666
3,2,3,1,8,4,2,4,2021-08-07 10:31:04,649666
-2,-3,-9,-8,-11,-4,-4,-3,2021-08-07 10:31:04,649666
-4,-4,-1,-17,-20,-9,-6,-2,2021-08-07 10:31:04,649666
-4,-1,-1,-7,-3,-2,-2,-2,2021-08-07 10:31:04,649666
3,2,8,22,17,6,2,1,2021-08-07 10:31:04,665665
2,4,5,12,-3,-1,1,1,2021-08-07 10:31:04,665665
-1,-2,0,6,21,10,4,1,2021-08-07 10:31:04,665665
-4,-5,-10,-25,-26,-11,-5,-4,2021-08-07 10:31:04,665665
-5,-6,-10,-11,2,1,-2,-3,2021-08-07 10:31:04,697666
0,1,2,6,8,1,1,0,2021-08-07 10:31:04,713665
1,2,1,-2,-8,-2,0,-1,2021-08-07 10:31:04,713665
1,3,7,11,4,3,1,1,2021-08-07 10:31:04,713665
1,-1,1,-3,-5,-4,0,-1,2021-08-07 10:31:04,713665
1,1,-1,6,2,1,-1,0,2021-08-07 10:31:04,713665
0,-1,-2,-2,-4,-2,-1,-1,2021-08-07 10:31:04,713665
-1,-4,-5,-15,-7,-3,-1,-1,2021-08-07 10:31:04,713665
-2,-1,-2,-5,-6,-3,-3,-2,2021-08-07 10:31:04,729665
-4,-3,-5,-4,-2,-3,-1,-1,2021-08-07 10:31:04,745666
0,-1,-2,0,-4,0,0,-1,2021-08-07 10:31:04,761666
-1,0,1,-4,-1,-1,-1,1,2021-08-07 10:31:04,761666
-1,1,2,0,7,4,2,-1,2021-08-07 10:31:04,761666
2,1,8,8,9,4,2,1,2021-08-07 10:31:04,761666
0,1,2,10,-4,-2,-2,1,2021-08-07 10:31:04,761666
3,2,5,13,3,4,0,-1,2021-08-07 10:31:04,761666
-2,-4,-11,-21,-9,-5,-1,0,2021-08-07 10:31:04,761666
-4,-5,-8,-20,-11,-5,-4,-2,2021-08-07 10:31:04,761666
-1,-2,6,-3,2,-2,-1,-1,2021-08-07 10:31:04,777665
0,-2,-7,8,7,3,0,0,2021-08-07 10:31:04,780666
0,3,6,18,8,3,0,1,2021-08-07 10:31:04,781665
3,4,4,11,8,4,4,1,2021-08-07 10:31:04,781665
-1,0,-3,-6,-12,-3,-1,-2,2021-08-07 10:31:04,781665
-5,-5,-4,-12,-18,-10,-5,-4,2021-08-07 10:31:04,781665
-2,-5,-11,-21,4,2,-2,0,2021-08-07 10:31:04,808666
-1,-2,4,0,-1,-1,-2,-1,2021-08-07 10:31:04,808666
2,1,3,11,11,3,1,1,2021-08-07 10:31:04,808666
4,4,1,8,5,1,2,1,2021-08-07 10:31:04,808666
-3,-3,1,0,-16,-9,-5,-2,2021-08-07 10:31:04,824664
0,-4,-6,-7,0,0,-2,-2,2021-08-07 10:31:04,824664
-2,-3,-11,-22,-10,-5,-2,-2,2021-08-07 10:31:04,824664
-3,-3,-7,-2,5,2,-2,-2,2021-08-07 10:31:04,824664
-2,-3,-1,-6,-11,-5,-3,-2,2021-08-07 10:31:04,871665
1,4,10,24,15,5,3,1,2021-08-07 10:31:04,871665
1,0,-1,4,0,1,2,0,2021-08-07 10:31:04,871665
-2,-1,1,-5,-3,-2,1,-2,2021-08-07 10:31:04,871665
0,0,1,4,-6,0,-1,0,2021-08-07 10:31:04,871665
-1,-1,-2,0,10,0,0,0,2021-08-07 10:31:04,871665
-3,-4,-8,-15,-22,-9,-6,-3,2021-08-07 10:31:04,871665
0,1,6,9,29,12,3,2,2021-08-07 10:31:04,887665
6,6,11,14,7,3,4,2,2021-08-07 10:31:04,902665
-2,-4,-8,-10,-10,-6,-2,-4,2021-08-07 10:31:04,902665
0,0,-1,-2,1,-2,-2,0,2021-08-07 10:31:04,934666
-2,-2,-6,-17,-21,-10,-5,-3,2021-08-07 10:31:04,934666
-3,-4,-8,-9,-4,-5,-2,-2,2021-08-07 10:31:04,934666
-4,-1,-4,-8,-8,-3,-2,-1,2021-08-07 10:31:04,934666
0,-2,5,9,9,2,1,0,2021-08-07 10:31:04,934666
0,-2,-3,4,-4,-2,-2,-1,2021-08-07 10:31:04,934666
1,0,-4,-4,5,2,0,1,2021-08-07 10:31:04,934666
2,3,8,14,6,3,1,2,2021-08-07 10:31:04,934666
-2,-5,-9,-13,-11,-4,-2,-2,2021-08-07 10:31:04,934666
1,2,-1,6,6,3,2,0,2021-08-07 10:31:04,934666
-6,-6,-8,-20,-20,-12,-6,-4,2021-08-07 10:31:04,950665
2,2,6,15,18,8,2,1,2021-08-07 10:31:04,966665
0,3,5,1,-1,0,-2,-1,2021-08-07 10:31:04,966665
0,1,9,10,4,0,1,-1,2021-08-07 10:31:04,966665
1,0,3,11,3,0,0,2,2021-08-07 10:31:04,966665
-2,-4,-9,-18,-16,-7,-4,-3,2021-08-07 10:31:04,966665
0,-2,-5,-4,13,5,1,-1,2021-08-07 10:31:04,982665
-1,0,-1,-7,-7,-2,0,-1,2021-08-07 10:31:04,997666
1,-1,-1,5,2,1,0,-1,2021-08-07 10:31:05,013665
-3,-4,-3,-7,-13,-5,-3,-1,2021-08-07 10:31:05,029175
0,2,5,10,4,1,0,0,2021-08-07 10:31:05,029175
-2,-2,-8,-9,0,-2,-3,-1,2021-08-07 10:31:05,029175
1,2,10,11,6,5,2,1,2021-08-07 10:31:05,029175
1,0,-8,-1,11,6,2,0,2021-08-07 10:31:05,029175
-2,-3,-9,-12,-7,-4,-2,-2,2021-08-07 10:31:05,029175
-2,-2,9,2,-4,-5,-4,-2,2021-08-07 10:31:05,029175
-3,-4,-18,-10,-14,-5,-4,-2,2021-08-07 10:31:05,029175
-1,-4,1,4,3,-2,-1,-1,2021-08-07 10:31:05,029175
2,4,7,17,9,6,4,2,2021-08-07 10:31:05,030175
1,2,8,11,-3,-1,0,0,2021-08-07 10:31:05,030175
-1,0,-3,-11,6,0,-1,-3,2021-08-07 10:31:05,060684
-1,-1,0,-3,-2,-4,-1,-2,2021-08-07 10:31:05,075684
-2,-2,-5,-2,1,0,-2,-4,2021-08-07 10:31:05,081684
1,1,2,2,-4,-2,0,1,2021-08-07 10:31:05,081684
-3,-4,-1,-6,-6,-6,-2,-3,2021-08-07 10:31:05,082685
