EMG 1,EMG 2,EMG 3,EMG 4,EMG 5,EMG 6,EMG 7,EMG 8,Timestamp,Milliseconds
-3,-2,1,-1,-4,-1,-3,-2,2021-08-07 10:30:38,276884
-1,-1,-1,-5,-5,-3,-2,0,2021-08-07 10:30:38,276884
-1,-2,-1,0,0,0,-1,-2,2021-08-07 10:30:38,276884
1,0,-1,-2,-3,-1,0,-1,2021-08-07 10:30:38,276884
-1,-1,-3,-2,0,0,-2,0,2021-08-07 10:30:38,276884
-3,-3,-3,-6,-1,-1,-2,-3,2021-08-07 10:30:38,276884
2,3,4,14,20,9,4,3,2021-08-07 10:30:38,276884
-2,-1,-2,-3,-8,-3,-3,-1,2021-08-07 10:30:38,276884
2,1,3,7,8,4,3,1,2021-08-07 10:30:38,292931
-1,-2,-5,-6,-6,-3,-3,-1,2021-08-07 10:30:38,292931
-2,-4,-4,-10,-10,-8,-5,-2,2021-08-07 10:30:38,292931
1,-1,1,2,2,-1,1,-1,2021-08-07 10:30:38,292931
-1,-4,-5,-9,-11,-6,-3,-2,2021-08-07 10:30:38,324884
-1,-1,-1,-3,1,-1,-1,-1,2021-08-07 10:30:38,340944
1,1,2,1,-1,2,0,0,2021-08-07 10:30:38,356884
-1,1,0,7,15,3,1,0,2021-08-07 10:30:38,371884
-1,-4,-2,-1,-1,-1,2,1,2021-08-07 10:30:38,371884
-4,-2,-3,-4,-2,-3,-1,-2,2021-08-07 10:30:38,371884
0,0,-3,-8,-8,-5,-3,-1,2021-08-07 10:30:38,371884
1,-1,2,-3,-7,-2,-1,-1,2021-08-07 10:30:38,387883
-1,-2,-1,1,1,1,-1,-3,2021-08-07 10:30:38,387883
0,-1,1,-2,0,0,-1,0,2021-08-07 10:30:38,387883
1,0,2,6,3,0,1,0,2021-08-07 10:30:38,387883
0,-2,-2,-3,-4,-2,-1,0,2021-08-07 10:30:38,387883
-1,-1,-3,-7,-8,-5,-3,-1,2021-08-07 10:30:38,387883
-1,-3,-2,-1,-2,-1,-1,-3,2021-08-07 10:30:38,387883
-1,1,-2,3,1,0,0,0,2021-08-07 10:30:38,387883
-4,0,2,0,7,4,-2,-1,2021-08-07 10:30:38,387883
-2,-3,-4,-3,-3,-3,-1,0,2021-08-07 10:30:38,403919
0,0,-1,-2,-1,-1,0,0,2021-08-07 10:30:38,403919
0,-1,3,4,3,2,1,0,2021-08-07 10:30:38,403919
-1,0,-2,-2,-2,1,0,-2,2021-08-07 10:30:38,403919
-2,-1,-1,0,-1,-2,-3,-1,2021-08-07 10:30:38,434883
-3,-2,-3,-3,-6,-3,-3,-1,2021-08-07 10:30:38,434883
-1,-2,-5,-7,-3,0,0,0,2021-08-07 10:30:38,434883
-1,-1,0,2,0,-2,-1,-3,2021-08-07 10:30:38,434883
-1,1,4,7,8,4,3,1,2021-08-07 10:30:38,434883
-1,-2,-3,-2,-7,-4,0,0,2021-08-07 10:30:38,434883
-2,1,0,-2,-1,-1,-2,-2,2021-08-07 10:30:38,466883
-3,-3,-1,-1,-7,-4,-2,-1,2021-08-07 10:30:38,466883
0,-1,-2,-3,-4,0,-1,0,2021-08-07 10:30:38,466883
0,0,3,2,9,3,1,0,2021-08-07 10:30:38,466883
-2,0,-1,2,1,-1,-1,-1,2021-08-07 10:30:38,482918
-1,1,-1,-2,-6,-3,0,0,2021-08-07 10:30:38,483139
-1,-3,-4,-6,1,0,-1,-2,2021-08-07 10:30:38,483139
-2,-3,-5,-9,-3,-2,-2,0,2021-08-07 10:30:38,483139
0,-1,0,4,-3,-4,-3,-1,2021-08-07 10:30:38,495940
4,4,5,11,15,8,4,2,2021-08-07 10:30:38,496882
1,3,4,9,1,0,-1,0,2021-08-07 10:30:38,514921
-1,2,-1,1,2,1,0,-1,2021-08-07 10:30:38,514921
-3,-4,-8,-16,-16,-8,-4,-3,2021-08-07 10:30:38,530883
-4,-4,-3,0,0,-2,-2,0,2021-08-07 10:30:38,530883
-1,1,1,5,7,4,0,1,2021-08-07 10:30:38,530883
3,3,11,11,8,4,1,-1,2021-08-07 10:30:38,530883
-2,-5,-9,-15,-8,-4,-1,-2,2021-08-07 10:30:38,530883
-2,-5,-11,-16,-17,-9,-6,-2,2021-08-07 10:30:38,530883
-2,-2,-4,-8,-8,-3,0,-3,2021-08-07 10:30:38,530883
1,1,2,12,13,4,3,1,2021-08-07 10:30:38,530883
4,4,12,19,17,10,4,2,2021-08-07 10:30:38,562883
-1,-3,-2,-2,0,0,0,-2,2021-08-07 10:30:38,577941
-1,-3,-3,-3,-4,-4,-2,0,2021-08-07 10:30:38,577941
-2,-1,-2,-4,-5,-1,-1,0,2021-08-07 10:30:38,577941
0,-2,-1,-2,-1,-1,-1,-1,2021-08-07 10:30:38,577941
0,-1,0,2,3,1,1,0,2021-08-07 10:30:38,577941
-1,-2,-2,-3,-4,-6,-3,-2,2021-08-07 10:30:38,577941
-2,-2,-4,-9,-12,-7,-3,-1,2021-08-07 10:30:38,577941
-1,-1,-2,-6,-3,-1,-1,0,2021-08-07 10:30:38,593908
0,1,5,11,10,5,1,1,2021-08-07 10:30:38,593908
0,0,2,6,4,3,1,0,2021-08-07 10:30:38,593908
-2,-2,-5,-11,-4,-1,-1,-2,2021-08-07 10:30:38,593908
-3,-1,-4,-3,-7,-4,-2,-3,2021-08-07 10:30:38,641530
0,1,-1,-5,-3,-3,-3,-1,2021-08-07 10:30:38,657504
2,3,6,12,12,6,4,1,2021-08-07 10:30:38,673554
-2,-3,-3,2,0,1,0,-1,2021-08-07 10:30:38,689564
0,1,0,1,-3,-2,-1,-1,2021-08-07 10:30:38,721532
1,-1,0,1,-1,0,-2,-2,2021-08-07 10:30:38,721532
-5,-6,-7,-11,-10,-8,-3,-3,2021-08-07 10:30:38,721532
-2,-2,-4,-7,-10,-5,-2,-2,2021-08-07 10:30:38,721532
1,0,1,8,8,4,1,0,2021-08-07 10:30:38,721532
1,2,6,11,10,6,1,0,2021-08-07 10:30:38,721532
2,3,3,2,4,2,3,0,2021-08-07 10:30:38,721532
-3,-6,-12,-23,-20,-13,-7,-2,2021-08-07 10:30:38,721532
0,-1,-3,-8,-7,-3,-2,0,2021-08-07 10:30:38,722505
2,6,12,28,31,19,5,2,2021-08-07 10:30:38,722505
4,3,4,7,12,9,6,3,2021-08-07 10:30:38,722505
-9,-11,-19,-34,-41,-30,-12,-7,2021-08-07 10:30:38,722505
-1,-2,-1,-8,-10,-5,-2,0,2021-08-07 10:30:38,722505
-1,-2,-2,-5,-6,-5,-2,-1,2021-08-07 10:30:38,722505
1,5,10,22,24,15,5,2,2021-08-07 10:30:38,722505
1,2,1,8,14,8,3,1,2021-08-07 10:30:38,722505
-3,-3,0,-5,-4,-5,-3,-1,2021-08-07 10:30:38,722505
-2,0,-3,-3,-4,-2,-1,-1,2021-08-07 10:30:38,737503
-4,-4,-8,-12,-8,-6,-4,-4,2021-08-07 10:30:38,753507
3,7,11,24,18,9,4,2,2021-08-07 10:30:38,753507
-2,-1,-5,-6,-4,-3,-1,0,2021-08-07 10:30:38,768507
0,-2,-4,-8,-9,-5,-1,-3,2021-08-07 10:30:38,784507
-2,-4,-7,-11,-14,-9,-5,-2,2021-08-07 10:30:38,784507
1,2,2,11,14,9,2,1,2021-08-07 10:30:38,784507
0,0,3,6,8,7,2,0,2021-08-07 10:30:38,784507
-5,-6,-8,-19,-23,-15,-7,-6,2021-08-07 10:30:38,791514
-4,-3,-1,2,13,1,-1,-3,2021-08-07 10:30:38,791514
0,1,4,5,0,4,0,-1,2021-08-07 10:30:38,791514
-3,-3,-2,-2,0,2,-3,-2,2021-08-07 10:30:38,792505
4,2,0,-2,-4,-3,3,2,2021-08-07 10:30:38,792505
-1,-1,-3,-10,-15,-7,-4,-1,2021-08-07 10:30:38,792505
3,1,4,6,10,5,3,3,2021-08-07 10:30:38,792505
1,-1,-2,-4,-1,-1,0,1,2021-08-07 10:30:38,792505
0,-3,-4,-7,-8,-4,-3,-2,2021-08-07 10:30:38,792505
-2,-1,0,-3,-9,-3,-2,-1,2021-08-07 10:30:38,792505
-3,-4,-8,-14,-7,-4,-4,-2,2021-08-07 10:30:38,792505
3,3,7,32,28,10,4,2,2021-08-07 10:30:38,816540
-2,-2,-2,-1,1,1,-1,0,2021-08-07 10:30:38,816540
1,0,-1,-6,-6,-3,-1,0,2021-08-07 10:30:38,816540
0,0,0,1,-4,-2,-2,-1,2021-08-07 10:30:38,816540
-2,-2,-2,-8,-8,-5,-2,-3,2021-08-07 10:30:38,832531
-1,-4,-1,3,7,1,0,-1,2021-08-07 10:30:38,832749
1,2,0,4,4,1,1,-1,2021-08-07 10:30:38,832749
-1,-1,-1,-6,-10,-2,-2,0,2021-08-07 10:30:38,832749
-1,1,1,-2,6,1,0,-1,2021-08-07 10:30:38,864531
-1,2,0,1,-1,-1,0,-1,2021-08-07 10:30:38,864531
-3,-2,-4,-7,-12,-7,-2,-2,2021-08-07 10:30:38,879505
1,-2,-1,-1,-1,-1,-2,-1,2021-08-07 10:30:38,895562
0,0,2,8,13,4,3,1,2021-08-07 10:30:38,911506
2,3,1,0,-2,-1,-1,1,2021-08-07 10:30:38,911506
0,1,-1,-3,2,3,0,1,2021-08-07 10:30:38,927545
0,1,3,11,6,3,1,1,2021-08-07 10:30:38,943540
-1,-3,-3,-7,-11,-4,-4,-1,2021-08-07 10:30:38,958504
-1,-2,-3,-3,-1,-2,1,1,2021-08-07 10:30:38,973540
-1,-2,-1,2,0,-2,-2,-1,2021-08-07 10:30:38,973540
0,0,0,-1,3,1,0,-1,2021-08-07 10:30:38,973540
-3,-3,-2,-7,-7,-4,-3,-3,2021-08-07 10:30:38,973540
1,1,2,5,6,2,1,0,2021-08-07 10:30:38,973540
-2,-2,-4,-8,-10,-6,-3,-1,2021-08-07 10:30:38,973540
-1,0,2,3,0,-2,0,-2,2021-08-07 10:30:38,973540
1,2,1,5,9,4,0,0,2021-08-07 10:30:38,989506
-4,-4,-6,-8,-3,-1,-3,-3,2021-08-07 10:30:39,005506
-1,1,0,4,0,0,1,0,2021-08-07 10:30:39,005506
-1,-1,0,2,2,1,0,-1,2021-08-07 10:30:39,005506
-2,-2,-3,-5,-8,-3,1,-3,2021-08-07 10:30:39,005506
0,-2,0,1,3,2,0,-1,2021-08-07 10:30:39,005506
1,0,0,-3,-2,-2,-1,0,2021-08-07 10:30:39,005506
-1,-2,0,-1,2,0,1,0,2021-08-07 10:30:39,005506
-4,-2,-3,-3,-5,-3,-4,-3,2021-08-07 10:30:39,005506
1,2,3,-1,-1,1,1,1,2021-08-07 10:30:39,020548
6,7,13,19,18,12,2,1,2021-08-07 10:30:39,020548
-8,-8,-12,-14,-13,-10,-3,-4,2021-08-07 10:30:39,020548
-1,-3,-12,-20,-20,-8,-2,1,2021-08-07 10:30:39,020548
0,0,4,9,11,4,1,0,2021-08-07 10:30:39,020548
-3,-4,-5,-10,-10,-9,-5,-2,2021-08-07 10:30:39,020548
2,0,2,7,3,3,2,0,2021-08-07 10:30:39,020548
1,-1,1,6,6,5,1,-1,2021-08-07 10:30:39,020548
-3,-1,-5,-9,-15,-6,-4,-3,2021-08-07 10:30:39,021505
5,7,9,15,20,14,8,6,2021-08-07 10:30:39,021505
-3,-4,-8,-7,-4,-5,-3,-2,2021-08-07 10:30:39,021505
-2,-2,-5,-8,-9,-6,-3,-2,2021-08-07 10:30:39,036507
0,1,1,-3,0,-1,-1,-3,2021-08-07 10:30:39,052532
5,6,12,23,23,17,9,3,2021-08-07 10:30:39,052532
-5,-9,-12,-25,-29,-20,-8,-5,2021-08-07 10:30:39,052532
-1,0,0,1,0,-4,-3,0,2021-08-07 10:30:39,068531
-2,-2,-7,-12,-14,-4,-4,-1,2021-08-07 10:30:39,068531
-4,-4,-7,-7,-5,-5,-2,-1,2021-08-07 10:30:39,068531
5,7,13,26,24,16,5,1,2021-08-07 10:30:39,068531
1,2,4,6,0,-1,0,0,2021-08-07 10:30:39,068531
-1,-2,-2,-1,-3,-3,-2,-1,2021-08-07 10:30:39,068531
-4,-6,-10,-12,-8,-6,-4,-5,2021-08-07 10:30:39,084504
3,6,8,11,9,6,2,1,2021-08-07 10:30:39,087505
-1,1,0,-3,-5,-4,-1,-3,2021-08-07 10:30:39,100507
-1,-4,-3,-2,4,0,0,1,2021-08-07 10:30:39,100507
-3,-6,-7,-10,-12,-8,-4,-4,2021-08-07 10:30:39,116531
0,0,1,1,0,-1,1,1,2021-08-07 10:30:39,132096
-2,-1,0,-1,-1,-2,2,0,2021-08-07 10:30:39,148124
2,0,0,6,3,2,2,-2,2021-08-07 10:30:39,164096
-2,-5,-6,-9,-14,-8,-5,-1,2021-08-07 10:30:39,164096
-2,1,-2,-2,4,2,-1,-2,2021-08-07 10:30:39,164096
1,4,4,4,3,3,1,2,2021-08-07 10:30:39,164096
-3,-1,-1,2,1,-1,-3,-1,2021-08-07 10:30:39,164096
0,0,-1,0,-1,0,0,-2,2021-08-07 10:30:39,164096
-1,-3,-4,-4,-5,-5,-3,-2,2021-08-07 10:30:39,164096
0,-2,-2,-2,1,1,0,-1,2021-08-07 10:30:39,164096
-2,-2,-4,-10,-13,-7,-3,-3,2021-08-07 10:30:39,165072
0,-3,-4,-6,5,1,1,0,2021-08-07 10:30:39,165072
1,1,3,8,8,1,0,1,2021-08-07 10:30:39,165072
0,-1,1,6,8,6,1,-1,2021-08-07 10:30:39,180073
-3,-4,-2,-4,-4,-3,-1,-1,2021-08-07 10:30:39,196071
-3,-2,-2,-6,-9,-4,-3,-1,2021-08-07 10:30:39,196071
0,0,-1,-3,0,1,0,0,2021-08-07 10:30:39,196071
0,-1,0,4,5,1,-2,0,2021-08-07 10:30:39,196071
-2,-2,-1,-2,-1,-1,-2,-1,2021-08-07 10:30:39,196071
-2,-1,-2,-2,-3,-4,-1,-1,2021-08-07 10:30:39,196071
0,0,1,1,2,1,-1,0,2021-08-07 10:30:39,196071
2,1,0,-3,-6,-4,-1,-1,2021-08-07 10:30:39,228096
0,0,1,1,6,2,-1,-1,2021-08-07 10:30:39,228096
-5,-7,-6,-4,-4,-5,-3,-4,2021-08-07 10:30:39,244069
2,2,2,0,-3,-1,1,1,2021-08-07 10:30:39,260071
-1,2,0,-4,0,0,-1,-1,2021-08-07 10:30:39,260071
0,2,2,4,0,1,0,1,2021-08-07 10:30:39,260071
-2,-3,-2,-2,2,0,-1,-1,2021-08-07 10:30:39,260071
-4,-4,-2,-1,-1,0,-1,-3,2021-08-07 10:30:39,260071
2,1,-1,-3,-4,-3,-1,-1,2021-08-07 10:30:39,260071
1,0,-3,-6,-5,-3,-1,1,2021-08-07 10:30:39,260071
-4,-3,-5,-11,-13,-7,-5,-2,2021-08-07 10:30:39,260071
-3,-4,-1,10,12,4,0,-2,2021-08-07 10:30:39,260071
1,1,1,4,6,2,1,2,2021-08-07 10:30:39,275128
0,1,-2,-4,-8,-3,-3,1,2021-08-07 10:30:39,275128
0,1,3,7,7,1,1,1,2021-08-07 10:30:39,275128
1,4,0,-8,-7,-3,0,1,2021-08-07 10:30:39,275128
-4,-6,-2,3,6,2,-1,-3,2021-08-07 10:30:39,306069
-3,-2,-1,-2,-6,-5,-2,-2,2021-08-07 10:30:39,322070
3,1,0,-3,0,1,1,1,2021-08-07 10:30:39,322070
1,1,2,6,6,2,0,1,2021-08-07 10:30:39,322070
-2,-3,-2,-6,-4,-2,-1,-2,2021-08-07 10:30:39,322070
-2,-2,-3,-2,-3,-4,-2,-2,2021-08-07 10:30:39,322070
0,2,1,-1,-8,-4,-1,0,2021-08-07 10:30:39,322070
0,-1,-5,-9,-1,-1,0,-1,2021-08-07 10:30:39,322070
2,0,-1,4,-3,-2,0,-1,2021-08-07 10:30:39,338072
0,-2,2,8,9,3,1,-1,2021-08-07 10:30:39,354106
1,-1,2,4,4,2,0,-1,2021-08-07 10:30:39,382107
-4,-4,-5,-10,-14,-8,-4,-2,2021-08-07 10:30:39,382107
-2,0,-2,-5,-5,-1,-2,-1,2021-08-07 10:30:39,383070
0,2,2,4,7,4,3,0,2021-08-07 10:30:39,383070
1,3,1,0,4,0,3,0,2021-08-07 10:30:39,383070
-2,-1,-5,-8,-7,-4,-1,-1,2021-08-07 10:30:39,383070
-5,-4,-6,-11,-12,-8,-7,-4,2021-08-07 10:30:39,383070
0,0,2,6,13,8,1,2,2021-08-07 10:30:39,383070
7,8,12,24,18,14,6,5,2021-08-07 10:30:39,383070
2,1,3,14,16,10,5,3,2021-08-07 10:30:39,383070
-8,-8,-16,-28,-36,-27,-12,-6,2021-08-07 10:30:39,418071
-3,-4,-9,-18,-20,-9,-4,-1,2021-08-07 10:30:39,433110
-2,-2,3,10,7,1,-2,-1,2021-08-07 10:30:39,433110
2,2,5,8,11,8,3,2,2021-08-07 10:30:39,433110
1,4,7,15,16,11,6,3,2021-08-07 10:30:39,433110
-3,-3,-2,-3,-6,-4,-3,-2,2021-08-07 10:30:39,433110
-4,-4,-7,-13,-13,-7,-6,-4,2021-08-07 10:30:39,464099
-2,-2,-4,-8,-8,-7,-3,-2,2021-08-07 10:30:39,464099
0,-1,1,2,-1,2,1,1,2021-08-07 10:30:39,464099
-2,0,-1,2,8,1,1,-1,2021-08-07 10:30:39,464099
0,1,-1,1,-3,-1,-1,-1,2021-08-07 10:30:39,464099
0,0,4,8,9,2,-1,-2,2021-08-07 10:30:39,464099
-3,-5,-7,-16,-17,-9,-5,-1,2021-08-07 10:30:39,464099
1,0,1,3,3,1,1,0,2021-08-07 10:30:39,464099
-4,-4,-5,-6,-6,-4,-3,-2,2021-08-07 10:30:39,464099
-1,-1,-1,-3,-7,-5,-3,-2,2021-08-07 10:30:39,465071
2,2,4,9,12,7,4,1,2021-08-07 10:30:39,480072
0,-1,1,2,-1,-1,-2,0,2021-08-07 10:30:39,496071
-1,-3,-5,-6,-5,-3,-3,-1,2021-08-07 10:30:39,496071
0,0,-2,-2,-5,-2,-2,-2,2021-08-07 10:30:39,496071
0,2,4,9,11,8,3,-1,2021-08-07 10:30:39,496071
-1,-3,-3,-3,-2,-3,-2,-2,2021-08-07 10:30:39,496071
-4,-6,-4,-10,-8,-5,-4,-4,2021-08-07 10:30:39,512071
0,0,1,-1,-1,0,2,4,2021-08-07 10:30:39,512071
4,1,-1,1,8,4,3,3,2021-08-07 10:30:39,528128
-3,-2,-3,-1,-2,-1,0,-2,2021-08-07 10:30:39,544099
-2,-1,1,2,0,-2,0,0,2021-08-07 10:30:39,544099
-3,0,0,1,1,0,-2,-1,2021-08-07 10:30:39,544099
-1,1,5,14,10,2,-1,0,2021-08-07 10:30:39,544099
-2,-1,-1,-2,-6,-3,-4,-3,2021-08-07 10:30:39,544099
0,-1,-2,2,4,2,-1,0,2021-08-07 10:30:39,576070
0,-1,-2,-12,-18,-9,-5,-1,2021-08-07 10:30:39,592107
0,-2,-4,-17,-18,-8,-4,-2,2021-08-07 10:30:39,607071
3,2,5,19,30,13,6,2,2021-08-07 10:30:39,607071
-1,-1,-2,1,-1,0,0,-2,2021-08-07 10:30:39,607071
-2,-2,-2,1,0,-1,-1,-1,2021-08-07 10:30:39,607071
-2,-1,-3,-4,-5,-2,-1,0,2021-08-07 10:30:39,607071
0,0,-3,-7,-12,-5,-4,-3,2021-08-07 10:30:39,607071
-1,0,0,-4,-1,-1,-1,0,2021-08-07 10:30:39,607071
0,-2,-3,-3,-1,-1,0,-2,2021-08-07 10:30:39,607071
-2,-2,0,4,3,2,1,-1,2021-08-07 10:30:39,623069
-2,-2,-3,-2,-9,-4,-4,-1,2021-08-07 10:30:39,638659
-1,0,-1,3,9,4,0,0,2021-08-07 10:30:39,670659
3,4,3,2,0,1,0,0,2021-08-07 10:30:39,670659
-2,0,1,4,1,0,0,-1,2021-08-07 10:30:39,670659
1,0,3,5,4,2,2,1,2021-08-07 10:30:39,670659
-4,-5,-6,-13,-16,-9,-7,-3,2021-08-07 10:30:39,670659
-2,-2,-1,7,15,4,2,0,2021-08-07 10:30:39,670659
3,3,4,6,9,4,1,1,2021-08-07 10:30:39,670659
-2,-3,-5,-7,-9,-3,-2,-2,2021-08-07 10:30:39,670659
1,-1,0,0,-4,-3,-1,1,2021-08-07 10:30:39,670659
-3,-3,-4,-11,-11,-4,-3,-2,2021-08-07 10:30:39,670659
-2,-1,1,1,3,-2,0,-1,2021-08-07 10:30:39,671657
0,-1,-1,1,-1,0,0,0,2021-08-07 10:30:39,671657
-1,-1,-3,-6,-4,-2,-1,1,2021-08-07 10:30:39,671657
0,-1,0,0,1,0,-1,0,2021-08-07 10:30:39,671657
-3,-3,-5,-5,-5,-2,-3,-2,2021-08-07 10:30:39,679658
-2,1,-1,-5,-4,-4,-2,-1,2021-08-07 10:30:39,679658
-1,0,1,2,-2,-2,0,0,2021-08-07 10:30:39,679658
1,0,1,2,12,4,3,1,2021-08-07 10:30:39,680657
1,-1,1,7,5,2,-2,-1,2021-08-07 10:30:39,718697
-1,-1,-1,-6,-6,-4,-3,-1,2021-08-07 10:30:39,718697
0,0,-2,-4,-7,-2,-1,0,2021-08-07 10:30:39,718697
0,0,0,-3,-4,-2,-1,-1,2021-08-07 10:30:39,718697
-3,-3,-2,-1,0,1,-1,0,2021-08-07 10:30:39,718697
2,-1,2,5,4,3,1,0,2021-08-07 10:30:39,718697
0,1,-2,-1,-2,-1,0,-1,2021-08-07 10:30:39,750658
-1,-3,-2,-1,-8,-4,-3,-2,2021-08-07 10:30:39,765686
-2,0,0,-2,0,-3,0,-2,2021-08-07 10:30:39,765686
-2,-1,-2,-1,-1,-1,0,0,2021-08-07 10:30:39,765686
0,-1,0,-1,-3,-1,-1,0,2021-08-07 10:30:39,795715
-2,0,-1,1,1,1,1,0,2021-08-07 10:30:39,795715
1,0,-4,-3,-3,0,0,-1,2021-08-07 10:30:39,795715
0,-2,1,-2,1,-2,-2,-2,2021-08-07 10:30:39,811692
0,1,3,2,5,1,1,-1,2021-08-07 10:30:39,827707
-1,-1,-4,-3,-6,-5,-2,-3,2021-08-07 10:30:39,827707
-1,-2,-2,-4,1,0,-1,-1,2021-08-07 10:30:39,827707
2,0,2,13,11,4,2,0,2021-08-07 10:30:39,827707
-1,1,1,4,4,1,1,-1,2021-08-07 10:30:39,827707
-3,-4,-4,-1,-2,-4,-3,-1,2021-08-07 10:30:39,827707
-1,-2,-2,-7,-9,-5,-3,-1,2021-08-07 10:30:39,827707
-2,2,0,-5,-5,-1,-2,0,2021-08-07 10:30:39,827707
-1,-1,-2,-4,3,1,0,0,2021-08-07 10:30:39,827707
1,2,2,4,1,0,-1,0,2021-08-07 10:30:39,827707
-2,-2,0,-1,0,-1,-1,-2,2021-08-07 10:30:39,828658
-3,-1,-1,-1,-4,-2,0,0,2021-08-07 10:30:39,828658
0,-2,0,0,1,1,1,-1,2021-08-07 10:30:39,828658
-1,-1,-2,-4,-1,-1,0,0,2021-08-07 10:30:39,828658
-1,0,1,5,3,0,0,0,2021-08-07 10:30:39,859092
0,0,-2,-5,-6,-3,-1,-3,2021-08-07 10:30:39,859092
-2,-2,-3,-1,-4,-1,-1,-2,2021-08-07 10:30:39,859092
-1,-1,-2,-5,-5,-3,0,-1,2021-08-07 10:30:39,859092
0,-1,1,3,4,1,1,1,2021-08-07 10:30:39,859092
-1,0,0,7,6,1,1,-1,2021-08-07 10:30:39,859092
-2,0,-3,-1,-3,-3,0,-1,2021-08-07 10:30:39,859092
-2,-2,1,0,0,0,-1,0,2021-08-07 10:30:39,859092
-2,0,-2,-4,-5,-2,-2,-2,2021-08-07 10:30:39,906116
-4,-6,-9,-12,-10,-5,-4,-3,2021-08-07 10:30:39,906116
3,2,5,6,5,3,-1,2,2021-08-07 10:30:39,906116
1,0,0,2,0,0,-1,1,2021-08-07 10:30:39,906116
0,-1,-3,-3,-2,-1,0,-1,2021-08-07 10:30:39,906116
-3,-1,0,-4,-9,-4,-2,-1,2021-08-07 10:30:39,906116
-3,-3,-4,-4,0,-1,-2,-2,2021-08-07 10:30:39,922067
-1,-2,-2,-3,-4,-3,-2,-2,2021-08-07 10:30:39,938123
-1,-1,-1,-2,-2,-1,-2,1,2021-08-07 10:30:39,938123
1,2,5,14,22,9,1,0,2021-08-07 10:30:39,938123
-2,-2,-2,-6,-9,-5,-1,-1,2021-08-07 10:30:39,970066
0,1,2,0,-2,-2,0,-1,2021-08-07 10:30:39,970066
-1,-2,-5,-7,-8,-4,-1,-3,2021-08-07 10:30:39,970066
-2,-3,-3,-7,-6,-3,-2,-1,2021-08-07 10:30:39,970066
-1,1,-1,-3,-2,-1,-3,-1,2021-08-07 10:30:39,970066
2,3,3,4,6,5,3,2,2021-08-07 10:30:39,970066
2,2,3,5,5,3,2,2,2021-08-07 10:30:39,970066
-1,-1,-2,-3,-3,-2,-1,-1,2021-08-07 10:30:39,970066
1,-3,-2,0,-2,-1,-1,0,2021-08-07 10:30:39,971067
-1,-1,0,-3,1,-3,-1,-2,2021-08-07 10:30:39,971067
-2,-1,-1,0,-2,-1,-3,-2,2021-08-07 10:30:39,985102
1,0,-2,-2,-1,0,0,1,2021-08-07 10:30:39,985102
-1,-3,-4,-3,-2,-3,-2,0,2021-08-07 10:30:39,985102
0,-2,-1,-1,1,2,0,-1,2021-08-07 10:30:39,985102
0,1,2,1,3,0,1,0,2021-08-07 10:30:40,016092
-1,-1,-1,-4,-3,-5,-1,-1,2021-08-07 10:30:40,032102
-1,0,0,1,1,0,-1,-1,2021-08-07 10:30:40,032102
-1,-2,-2,2,0,-1,-2,-2,2021-08-07 10:30:40,032102
-3,-3,-3,-4,-4,-4,-4,-2,2021-08-07 10:30:40,032102
1,2,3,4,5,1,1,2,2021-08-07 10:30:40,032102
0,0,-1,-3,-2,0,1,-1,2021-08-07 10:30:40,032102
-2,-3,-2,-5,-5,-1,0,-1,2021-08-07 10:30:40,032102
1,1,1,4,4,-1,-1,-1,2021-08-07 10:30:40,048092
-3,-5,-4,-10,-14,-5,-4,-2,2021-08-07 10:30:40,064068
-1,-2,-1,2,6,2,0,-1,2021-08-07 10:30:40,064068
2,6,6,7,2,2,1,3,2021-08-07 10:30:40,064068
-1,-1,-3,0,5,3,0,-1,2021-08-07 10:30:40,064068
-2,-2,-4,-5,-3,-1,-3,-3,2021-08-07 10:30:40,064068
1,2,5,7,7,3,2,1,2021-08-07 10:30:40,064068
-4,-3,-3,-6,-3,-4,-3,-2,2021-08-07 10:30:40,064068
0,-1,0,0,-5,-3,0,1,2021-08-07 10:30:40,095103
-2,-2,-3,-10,-7,-3,-2,-3,2021-08-07 10:30:40,110641
-1,-1,-1,3,-4,-2,-2,-1,2021-08-07 10:30:40,142618
1,0,1,7,4,2,-1,-1,2021-08-07 10:30:40,142618
0,0,0,3,3,2,1,-1,2021-08-07 10:30:40,142618
-3,-3,-4,-6,-3,-3,-3,-4,2021-08-07 10:30:40,158618
0,-1,-1,-4,-6,-4,-2,-1,2021-08-07 10:30:40,174618
-1,-2,-3,-5,-2,0,-1,-2,2021-08-07 10:30:40,174618
-2,-1,-2,-1,0,-1,-3,-1,2021-08-07 10:30:40,190651
0,0,2,5,-1,1,0,1,2021-08-07 10:30:40,190651
0,-1,-2,-1,3,0,-2,0,2021-08-07 10:30:40,190651
1,0,1,5,6,1,0,0,2021-08-07 10:30:40,190651
-1,-2,-3,-9,-7,-2,-3,-2,2021-08-07 10:30:40,190651
1,2,1,2,3,0,1,-1,2021-08-07 10:30:40,190651
-1,-1,-2,-2,-7,-3,-3,-1,2021-08-07 10:30:40,190651
-2,-2,-3,-5,-5,-2,-1,-1,2021-08-07 10:30:40,190651
0,0,2,1,6,2,-1,1,2021-08-07 10:30:40,190651
-2,1,0,-3,-5,-4,0,2,2021-08-07 10:30:40,190651
-1,-1,-1,-1,0,-1,0,-2,2021-08-07 10:30:40,190651
-3,-3,-3,-4,-4,-2,-1,-2,2021-08-07 10:30:40,190651
-1,0,0,7,4,3,1,0,2021-08-07 10:30:40,191618
-1,-1,0,2,3,0,-2,-1,2021-08-07 10:30:40,191618
-3,-2,-4,-7,-10,-6,-3,-3,2021-08-07 10:30:40,191618
-1,-1,-7,-13,-12,-6,-3,-2,2021-08-07 10:30:40,191618
3,3,6,15,22,11,4,3,2021-08-07 10:30:40,206618
1,-1,-4,-2,-3,-2,-1,-1,2021-08-07 10:30:40,206618
0,0,-1,-1,1,0,0,0,2021-08-07 10:30:40,206618
-3,-3,-2,-3,-8,-4,-3,-3,2021-08-07 10:30:40,206618
-1,-1,-1,-1,3,0,1,1,2021-08-07 10:30:40,222618
-1,1,0,1,2,2,1,0,2021-08-07 10:30:40,222618
-1,-2,-2,-2,-1,-1,0,-1,2021-08-07 10:30:40,222618
0,-2,-1,-2,0,0,-1,0,2021-08-07 10:30:40,222618
-3,-3,-5,-10,-17,-9,-5,-1,2021-08-07 10:30:40,253643
0,1,2,1,8,4,1,0,2021-08-07 10:30:40,265648
1,-1,2,13,12,4,2,0,2021-08-07 10:30:40,265648
-2,-2,-1,0,1,-1,-2,-1,2021-08-07 10:30:40,266616
3,3,2,0,-2,-1,-1,-1,2021-08-07 10:30:40,266616
0,-1,-1,-4,-6,-4,-2,-1,2021-08-07 10:30:40,266616
-3,-2,-4,-10,-8,-5,-3,0,2021-08-07 10:30:40,266616
1,1,3,8,6,5,2,3,2021-08-07 10:30:40,266616
-1,-6,-6,-5,-7,-3,-2,-1,2021-08-07 10:30:40,285645
-3,-2,-1,-1,0,-1,-1,1,2021-08-07 10:30:40,301645
0,-1,0,-1,1,3,1,-2,2021-08-07 10:30:40,301645
-1,-1,0,1,1,-1,-2,-3,2021-08-07 10:30:40,301932
-3,-1,-1,-5,-4,-3,-2,-3,2021-08-07 10:30:40,317748
-1,-2,1,5,5,3,-1,-1,2021-08-07 10:30:40,317748
-2,1,0,-4,-4,-2,-2,-1,2021-08-07 10:30:40,317748
-1,0,-1,-5,-2,0,-1,0,2021-08-07 10:30:40,317748
0,-1,0,1,1,-1,2,0,2021-08-07 10:30:40,348773
0,-2,-1,-4,-4,0,-1,0,2021-08-07 10:30:40,364774
0,-3,0,-1,1,0,-1,0,2021-08-07 10:30:40,364774
-1,1,-2,-3,-3,-2,-2,-1,2021-08-07 10:30:40,364774
-1,0,0,-4,-4,-3,-2,-1,2021-08-07 10:30:40,364774
-1,-2,-2,-5,-4,-2,-2,-3,2021-08-07 10:30:40,364774
-1,1,0,6,11,4,1,1,2021-08-07 10:30:40,364774
1,1,0,4,4,0,0,-1,2021-08-07 10:30:40,364774
-1,-3,-1,0,0,0,-1,1,2021-08-07 10:30:40,364774
-1,-1,-1,0,-3,-3,-1,-2,2021-08-07 10:30:40,365748
-1,-1,-3,-6,-11,-6,-3,-2,2021-08-07 10:30:40,365748
-1,-3,-1,-1,-2,-2,-3,-1,2021-08-07 10:30:40,365748
-2,-1,-3,-3,6,3,0,-1,2021-08-07 10:30:40,396751
0,0,2,6,6,3,0,0,2021-08-07 10:30:40,396751
-1,0,0,-1,-3,-1,1,-1,2021-08-07 10:30:40,396751
1,0,2,2,6,1,1,1,2021-08-07 10:30:40,396751
-3,-4,-5,-12,-18,-11,-4,-5,2021-08-07 10:30:40,396751
-3,-5,-6,-9,-4,-2,-3,-2,2021-08-07 10:30:40,396751
3,4,8,15,12,4,3,3,2021-08-07 10:30:40,412798
1,1,2,7,7,2,1,-1,2021-08-07 10:30:40,412798
-3,-2,-1,2,-1,-1,0,-1,2021-08-07 10:30:40,428797
0,0,-2,-2,-7,-3,-2,-1,2021-08-07 10:30:40,428797
-2,-3,-3,-6,-3,-2,-2,-3,2021-08-07 10:30:40,428797
-1,0,-2,-5,-3,-1,-1,-1,2021-08-07 10:30:40,428797
-1,0,-1,1,-2,-2,-2,-1,2021-08-07 10:30:40,460770
-2,0,3,4,3,0,0,0,2021-08-07 10:30:40,460770
-2,-1,-2,-7,-5,-2,-2,-1,2021-08-07 10:30:40,460770
1,2,5,12,7,1,3,1,2021-08-07 10:30:40,460770
-1,-1,-1,0,1,0,0,0,2021-08-07 10:30:40,460770
-3,-1,-3,-6,-8,-4,-1,-3,2021-08-07 10:30:40,460770
1,1,3,3,2,1,-2,1,2021-08-07 10:30:40,492748
-1,-2,-4,-8,-5,-2,-2,-1,2021-08-07 10:30:40,508762
0,-1,-1,2,2,0,0,0,2021-08-07 10:30:40,524776
1,2,1,3,4,1,0,0,2021-08-07 10:30:40,540749
-1,-2,-2,-1,0,-1,0,-2,2021-08-07 10:30:40,540749
-5,-3,0,0,-6,-4,-3,-3,2021-08-07 10:30:40,540749
0,0,1,-2,1,1,1,-1,2021-08-07 10:30:40,540749
1,1,-1,1,1,-1,0,-1,2021-08-07 10:30:40,540749
0,0,-2,-2,-3,-3,-2,-2,2021-08-07 10:30:40,540749
-2,-3,-6,-10,-10,-5,-2,-2,2021-08-07 10:30:40,540749
0,1,2,5,11,3,0,2,2021-08-07 10:30:40,540749
0,-2,-2,-2,-2,0,-2,0,2021-08-07 10:30:40,540749
-2,-4,0,3,5,2,2,0,2021-08-07 10:30:40,540749
-2,-2,-3,-7,-9,-4,-3,-1,2021-08-07 10:30:40,540749
-1,-1,2,8,1,-1,-1,0,2021-08-07 10:30:40,541749
0,0,0,1,-2,0,0,0,2021-08-07 10:30:40,553785
-2,-1,0,0,5,2,-1,-1,2021-08-07 10:30:40,553785
0,1,1,3,4,2,1,-1,2021-08-07 10:30:40,553785
-2,-2,-3,-4,-3,-2,-1,-1,2021-08-07 10:30:40,570775
-1,-2,0,2,1,0,-1,-2,2021-08-07 10:30:40,586749
-1,-1,-3,-5,-10,-4,-1,-1,2021-08-07 10:30:40,586749
-2,0,0,-3,0,0,0,-2,2021-08-07 10:30:40,586749
0,-1,-3,-5,-5,-3,-2,-1,2021-08-07 10:30:40,586749
0,0,0,-5,-1,0,2,0,2021-08-07 10:30:40,586749
-1,-4,-5,-9,-9,-6,-2,-2,2021-08-07 10:30:40,586749
1,-1,1,1,2,1,0,-1,2021-08-07 10:30:40,586749
-1,-2,-1,0,-3,-1,-1,-1,2021-08-07 10:30:40,618805
-2,-2,0,1,1,1,-2,0,2021-08-07 10:30:40,618805
0,1,0,-2,2,0,-1,0,2021-08-07 10:30:40,618805
1,1,2,5,2,1,0,0,2021-08-07 10:30:40,618805
1,-1,-1,-5,-9,-5,-1,0,2021-08-07 10:30:40,634775
-3,-3,-3,-3,6,0,-1,0,2021-08-07 10:30:40,650749
0,0,0,3,4,0,-1,0,2021-08-07 10:30:40,650749
0,-1,-1,-2,2,-1,-1,0,2021-08-07 10:30:40,650749
1,1,0,4,3,2,1,-1,2021-08-07 10:30:40,650749
0,-1,-1,1,-3,0,0,-1,2021-08-07 10:30:40,650749
-4,-3,-4,-7,-10,-4,-1,-1,2021-08-07 10:30:40,650749
-1,0,-2,-7,-10,-2,-1,0,2021-08-07 10:30:40,650749
3,4,6,15,25,12,3,3,2021-08-07 10:30:40,666751
0,0,-1,0,2,0,0,-1,2021-08-07 10:30:40,666751
0,-2,0,1,2,0,-2,-2,2021-08-07 10:30:40,666751
-4,-4,-4,-4,-9,-5,-3,-3,2021-08-07 10:30:40,682749
-3,-4,-5,-10,-14,-6,-2,-2,2021-08-07 10:30:40,682749
0,0,-1,-2,-2,-1,-1,0,2021-08-07 10:30:40,697774
0,1,0,0,0,0,1,0,2021-08-07 10:30:40,713748
-1,-3,-2,-5,-3,-1,-2,0,2021-08-07 10:30:40,713748
-1,0,2,-1,-6,-3,-2,-3,2021-08-07 10:30:40,713748
-2,0,0,-3,3,-1,-3,1,2021-08-07 10:30:40,713748
2,4,3,8,7,4,3,1,2021-08-07 10:30:40,713748
-1,-2,-3,-1,-1,-2,-1,-2,2021-08-07 10:30:40,713748
-3,-3,-4,-8,-4,-4,-1,-1,2021-08-07 10:30:40,745774
0,-2,-2,-5,-9,-3,-2,-2,2021-08-07 10:30:40,761748
0,-1,2,3,2,-1,-2,1,2021-08-07 10:30:40,761748
-1,1,0,2,0,-1,1,0,2021-08-07 10:30:40,761748
-1,-1,-3,-8,-5,-2,-4,-1,2021-08-07 10:30:40,761748
-1,-1,-1,-1,-4,-4,-1,0,2021-08-07 10:30:40,761748
0,-2,-4,-6,-2,0,-1,-1,2021-08-07 10:30:40,761748
0,1,3,8,11,5,1,-1,2021-08-07 10:30:40,761748
-1,-2,-3,-4,-7,-4,0,-1,2021-08-07 10:30:40,777749
0,-1,-3,-5,-7,-2,-1,1,2021-08-07 10:30:40,793748
3,1,3,7,4,2,1,2,2021-08-07 10:30:40,793748
-3,-2,-2,-2,-6,-3,-1,-1,2021-08-07 10:30:40,793748
1,1,-2,2,7,2,0,1,2021-08-07 10:30:40,793748
-2,-4,-2,3,2,0,-2,-4,2021-08-07 10:30:40,793748
0,3,0,-6,-5,-2,-1,0,2021-08-07 10:30:40,793748
0,1,0,-2,-1,0,0,-1,2021-08-07 10:30:40,794749
-1,-1,-1,-1,0,-1,-1,-1,2021-08-07 10:30:40,824749
-3,-1,-2,-3,-6,-2,-2,0,2021-08-07 10:30:40,839749
-3,-5,-4,-4,-2,-4,-4,-2,2021-08-07 10:30:40,839749
-1,-1,-2,-2,-1,-2,1,-3,2021-08-07 10:30:40,839749
0,1,0,3,2,1,0,-1,2021-08-07 10:30:40,839749
0,0,2,0,2,1,0,-2,2021-08-07 10:30:40,839749
-2,0,-2,2,1,0,0,-2,2021-08-07 10:30:40,839749
0,-1,-1,-5,-4,-1,1,0,2021-08-07 10:30:40,839749
0,-1,1,4,0,-3,1,-2,2021-08-07 10:30:40,839749
-1,0,-3,-5,-1,-3,-1,-2,2021-08-07 10:30:40,840749
-1,-1,0,2,1,1,1,0,2021-08-07 10:30:40,855749
0,-1,-1,-1,1,-1,-1,-1,2021-08-07 10:30:40,855749
-3,-2,-3,-8,-11,-6,-4,-2,2021-08-07 10:30:40,871752
4,3,5,9,14,6,3,3,2021-08-07 10:30:40,887747
-1,0,-3,0,2,1,1,0,2021-08-07 10:30:40,903774
-4,-4,-1,-2,-1,-2,-3,-2,2021-08-07 10:30:40,903774
-3,-2,0,-3,-5,-3,-1,-1,2021-08-07 10:30:40,903774
-4,-4,-3,-4,-4,-2,-3,-3,2021-08-07 10:30:40,903774
-3,-3,-1,1,-2,-2,-1,-2,2021-08-07 10:30:40,903774
1,1,1,0,-4,0,-1,0,2021-08-07 10:30:40,903774
1,0,-1,1,5,3,0,0,2021-08-07 10:30:40,903774
0,0,-3,-2,-3,-2,-1,0,2021-08-07 10:30:40,903774
-1,-2,-2,0,-1,0,0,-1,2021-08-07 10:30:40,919821
-3,-1,-2,-1,-1,-1,0,-1,2021-08-07 10:30:40,935784
0,0,0,2,4,1,0,-1,2021-08-07 10:30:40,935784
-1,0,-1,1,1,1,-1,0,2021-08-07 10:30:40,935784
-1,-1,-2,-6,-4,-2,-2,-2,2021-08-07 10:30:40,935784
0,0,0,1,2,-1,-1,0,2021-08-07 10:30:40,935784
0,-1,-1,-4,-2,-1,-1,0,2021-08-07 10:30:40,951775
-1,0,1,-1,-1,-1,0,-2,2021-08-07 10:30:40,967748
-2,-3,-3,-5,-3,-4,-2,1,2021-08-07 10:30:40,967748
-1,-2,0,0,1,0,0,1,2021-08-07 10:30:40,967748
-1,0,1,6,3,1,1,0,2021-08-07 10:30:40,967748
0,0,-1,-3,-2,-2,0,1,2021-08-07 10:30:40,967748
1,1,-1,0,-1,0,-1,1,2021-08-07 10:30:40,967748
1,0,-1,3,3,0,-1,0,2021-08-07 10:30:40,967748
-3,-2,-2,-4,-4,-3,-1,-2,2021-08-07 10:30:40,998749
0,-2,-1,-1,-5,-3,0,-2,2021-08-07 10:30:41,014788
-3,-1,-5,-8,-8,-4,-3,-3,2021-08-07 10:30:41,014788
0,1,0,6,12,4,0,2,2021-08-07 10:30:41,014788
1,1,1,2,0,1,1,0,2021-08-07 10:30:41,014788
-1,-1,-1,1,0,-2,-2,-2,2021-08-07 10:30:41,014788
-2,-1,0,-5,-5,-3,0,-2,2021-08-07 10:30:41,045773
-3,-4,-5,-11,-10,-5,-4,-5,2021-08-07 10:30:41,061772
-1,-3,-1,5,4,1,0,0,2021-08-07 10:30:41,077775
1,2,-1,-1,-1,0,-1,0,2021-08-07 10:30:41,092750
0,1,2,5,7,3,1,0,2021-08-07 10:30:41,092750
0,0,-1,-4,-3,-1,0,0,2021-08-07 10:30:41,092750
-2,-2,-3,-10,-8,-5,-4,-4,2021-08-07 10:30:41,092750
0,-2,0,1,5,4,2,0,2021-08-07 10:30:41,092750
1,0,1,5,2,-1,-1,0,2021-08-07 10:30:41,092750
-3,-5,-4,-10,-12,-6,-2,-2,2021-08-07 10:30:41,092750
2,2,3,13,12,7,4,2,2021-08-07 10:30:41,092750
-2,-1,-1,1,0,-1,-1,-1,2021-08-07 10:30:41,093749
0,1,-2,-2,-5,-2,-2,-3,2021-08-07 10:30:41,093749
-2,-2,-1,3,6,2,-1,-2,2021-08-07 10:30:41,093749
0,-2,-2,-8,-11,-6,-3,-1,2021-08-07 10:30:41,093749
3,3,1,-1,2,1,2,1,2021-08-07 10:30:41,093749
1,-1,-2,1,0,-1,1,1,2021-08-07 10:30:41,093749
0,-2,-1,0,-4,-1,1,0,2021-08-07 10:30:41,093749
-4,-3,-2,-7,-3,-1,-2,-2,2021-08-07 10:30:41,108776
-4,-2,1,5,11,4,1,-2,2021-08-07 10:30:41,108776
-6,-4,-2,-6,-1,-2,-4,-4,2021-08-07 10:30:41,124748
0,3,3,4,2,0,-1,-2,2021-08-07 10:30:41,139750
-2,0,-2,-4,-6,-4,-2,-1,2021-08-07 10:30:41,139750
1,-2,-2,-4,-7,-5,-2,0,2021-08-07 10:30:41,139750
0,-2,-4,-6,-9,-4,-2,0,2021-08-07 10:30:41,139750
1,1,-1,0,3,1,0,2,2021-08-07 10:30:41,139750
3,3,4,10,15,6,5,2,2021-08-07 10:30:41,139750
-3,-2,-4,-6,-14,-8,-3,-2,2021-08-07 10:30:41,139750
-1,-1,-4,-11,-10,-5,-1,-1,2021-08-07 10:30:41,155749
0,1,1,10,12,4,-1,-2,2021-08-07 10:30:41,159747
2,-2,-3,-4,-4,-1,-3,1,2021-08-07 10:30:41,171754
-2,-4,-2,3,6,3,-1,-1,2021-08-07 10:30:41,171754
-2,-2,-1,0,-3,0,-1,-1,2021-08-07 10:30:41,171754
1,2,0,-1,-7,-3,-1,1,2021-08-07 10:30:41,171754
1,1,1,1,4,0,-1,-1,2021-08-07 10:30:41,203784
-3,-1,-1,1,-1,-1,0,0,2021-08-07 10:30:41,219822
-3,-2,-2,-2,-3,-2,-2,0,2021-08-07 10:30:41,219822
0,-1,-1,-2,-1,0,0,-1,2021-08-07 10:30:41,235820
-2,0,-4,-3,-5,-3,-1,-2,2021-08-07 10:30:41,267748
-1,-2,-3,-3,-11,-4,-2,0,2021-08-07 10:30:41,267748
3,4,2,7,16,8,3,1,2021-08-07 10:30:41,282747
0,-1,-1,-2,-6,-2,-2,1,2021-08-07 10:30:41,282747
-4,-3,-3,-3,-4,-1,-2,-2,2021-08-07 10:30:41,282747
0,-1,1,0,-2,-3,-2,-1,2021-08-07 10:30:41,282747
-1,-2,-2,2,-3,-3,-1,-1,2021-08-07 10:30:41,282747
0,-1,-2,-6,-3,-3,-1,-1,2021-08-07 10:30:41,282747
1,-1,1,4,3,1,1,1,2021-08-07 10:30:41,282747
-2,1,1,3,-1,1,0,-1,2021-08-07 10:30:41,283749
0,-2,0,-3,0,-2,-1,-2,2021-08-07 10:30:41,283749
-4,-2,-3,0,-1,-4,-1,-4,2021-08-07 10:30:41,283749
-3,-2,-2,-5,-10,-5,-2,-2,2021-08-07 10:30:41,297783
-1,-2,-3,-3,1,-1,0,-2,2021-08-07 10:30:41,313748
-1,0,-1,-2,-5,-4,-3,0,2021-08-07 10:30:41,328773
2,2,2,5,8,4,0,3,2021-08-07 10:30:41,344795
-2,-1,-3,-3,0,-1,-2,-2,2021-08-07 10:30:41,344795
-1,-2,-1,2,-1,-2,0,0,2021-08-07 10:30:41,344795
-1,0,0,1,-3,1,1,1,2021-08-07 10:30:41,344795
-2,-3,-3,-4,-7,-4,0,-2,2021-08-07 10:30:41,344795
-2,0,-1,-1,0,0,0,0,2021-08-07 10:30:41,344795
-1,-2,0,-3,-5,-2,-2,-1,2021-08-07 10:30:41,344795
3,0,2,12,16,7,2,2,2021-08-07 10:30:41,344795
1,0,0,0,1,0,-1,1,2021-08-07 10:30:41,345749
-3,-3,-4,-7,-14,-7,-3,-3,2021-08-07 10:30:41,359750
-1,-1,-2,-12,-8,-3,-1,-1,2021-08-07 10:30:41,375775
0,3,4,17,21,8,3,2,2021-08-07 10:30:41,407776
0,0,3,7,6,3,0,0,2021-08-07 10:30:41,423750
-5,-3,-3,-6,-9,-7,-4,-2,2021-08-07 10:30:41,439783
-2,0,-3,-7,-7,-5,-3,-1,2021-08-07 10:30:41,439783
1,2,-1,-4,1,0,0,0,2021-08-07 10:30:41,439783
-1,-3,-2,-5,-6,-2,-2,-1,2021-08-07 10:30:41,455750
0,0,-1,-1,1,0,0,-2,2021-08-07 10:30:41,466748
1,-1,-1,2,4,2,1,1,2021-08-07 10:30:41,466748
-5,-4,-1,-5,-7,-3,-2,-3,2021-08-07 10:30:41,466748
-2,-2,-2,4,6,2,-1,-2,2021-08-07 10:30:41,466748
0,-1,-1,-7,-6,-3,-1,-1,2021-08-07 10:30:41,466748
2,2,3,8,7,3,2,2,2021-08-07 10:30:41,487790
1,2,0,-4,-4,-1,-1,0,2021-08-07 10:30:41,503774
-1,-1,-2,-7,-7,-4,-3,-1,2021-08-07 10:30:41,503774
0,0,-1,0,-3,-1,-1,-1,2021-08-07 10:30:41,503774
2,0,1,11,18,7,1,1,2021-08-07 10:30:41,503774
-2,-1,-2,-4,-6,-2,-2,0,2021-08-07 10:30:41,503774
-3,-1,-3,-4,-6,-2,-3,-2,2021-08-07 10:30:41,503774
0,-3,2,5,5,-1,0,-1,2021-08-07 10:30:41,503774
1,0,0,-3,-6,-2,-1,-2,2021-08-07 10:30:41,503774
-2,-1,0,-3,-3,-3,0,-2,2021-08-07 10:30:41,503774
-1,-2,-3,-2,-4,-1,-1,-2,2021-08-07 10:30:41,504748
-2,-3,-2,-2,0,-1,-1,0,2021-08-07 10:30:41,504748
-3,-2,-3,-3,-5,-3,-1,-2,2021-08-07 10:30:41,504748
0,0,-3,0,6,2,0,1,2021-08-07 10:30:41,519820
-1,1,-1,-2,-3,-1,-1,-1,2021-08-07 10:30:41,519820
-1,-1,1,2,4,1,0,-2,2021-08-07 10:30:41,519820
-2,0,0,-1,1,0,0,0,2021-08-07 10:30:41,519820
0,0,1,1,-7,-1,-2,0,2021-08-07 10:30:41,519820
-1,-1,-1,-1,1,-1,-2,0,2021-08-07 10:30:41,519820
-2,-1,0,1,-1,-1,-1,1,2021-08-07 10:30:41,519820
-3,-5,-7,-11,-9,-4,-4,-1,2021-08-07 10:30:41,519820
-2,-4,-1,-2,-2,-3,-2,-1,2021-08-07 10:30:41,519820
3,5,4,4,4,4,1,4,2021-08-07 10:30:41,520749
1,0,0,-2,-1,1,-1,-2,2021-08-07 10:30:41,520749
-2,-2,-2,-3,-2,-2,-1,-2,2021-08-07 10:30:41,520749
-3,-3,-2,-6,-3,-3,-3,-3,2021-08-07 10:30:41,520749
0,-1,1,0,4,1,2,0,2021-08-07 10:30:41,520749
2,2,1,-1,0,-2,0,1,2021-08-07 10:30:41,535749
1,-1,1,2,5,2,0,-1,2021-08-07 10:30:41,551777
-2,-2,-1,3,-1,0,0,-2,2021-08-07 10:30:41,551777
-2,-3,-1,-1,-2,-3,-1,-1,2021-08-07 10:30:41,551777
-3,0,-3,-3,-3,-1,-3,-2,2021-08-07 10:30:41,551777
1,2,2,3,3,0,0,1,2021-08-07 10:30:41,551777
1,0,-2,-3,-2,-1,0,0,2021-08-07 10:30:41,551777
-2,-3,-2,-7,-7,-5,-3,-3,2021-08-07 10:30:41,551777
0,-2,4,10,10,5,1,3,2021-08-07 10:30:41,567748
-2,0,-1,1,4,2,1,-2,2021-08-07 10:30:41,583748
0,1,-2,-2,-4,-3,0,-1,2021-08-07 10:30:41,583748
-4,-2,-2,-1,-3,-2,-1,-1,2021-08-07 10:30:41,598798
2,1,0,-3,-4,0,0,0,2021-08-07 10:30:41,614774
-2,-2,-1,-4,-9,-4,-1,-2,2021-08-07 10:30:41,614774
2,1,3,4,10,5,2,2,2021-08-07 10:30:41,614774
-1,-2,-2,-5,-9,-4,-3,-1,2021-08-07 10:30:41,614774
-4,-2,-2,0,0,1,-1,-2,2021-08-07 10:30:41,614774
0,-1,1,9,10,5,0,1,2021-08-07 10:30:41,614774
-4,-5,-6,-6,-6,-5,-1,-1,2021-08-07 10:30:41,629747
1,2,3,4,3,1,0,0,2021-08-07 10:30:41,629747
1,1,-1,-3,-4,-1,0,0,2021-08-07 10:30:41,629747
-2,-3,-3,-8,-11,-6,-3,-3,2021-08-07 10:30:41,629747
-1,-2,-1,-1,0,0,-2,-2,2021-08-07 10:30:41,645799
-2,0,-1,2,4,1,0,0,2021-08-07 10:30:41,645799
-3,-1,-1,1,-1,0,0,-1,2021-08-07 10:30:41,645799
0,2,-1,-1,2,-1,-1,1,2021-08-07 10:30:41,645799
-1,-3,-1,-7,-10,-5,-4,-2,2021-08-07 10:30:41,661788
0,0,-2,-2,2,2,1,-1,2021-08-07 10:30:41,661788
-1,0,0,3,2,-1,0,-2,2021-08-07 10:30:41,677788
-1,0,2,1,0,-1,0,-2,2021-08-07 10:30:41,693748
1,2,1,0,2,0,2,0,2021-08-07 10:30:41,725748
-3,-4,-5,-9,-11,-8,-3,-3,2021-08-07 10:30:41,725748
-1,-1,0,1,6,3,1,0,2021-08-07 10:30:41,725748
0,0,0,2,4,2,0,0,2021-08-07 10:30:41,741747
-2,-1,0,0,-3,-1,-1,-2,2021-08-07 10:30:41,741747
0,-1,-1,2,6,1,1,-2,2021-08-07 10:30:41,741747
-2,-3,-2,-7,-10,-5,-1,-2,2021-08-07 10:30:41,741747
0,-2,-1,4,0,-2,0,0,2021-08-07 10:30:41,741747
-1,0,1,-1,5,1,1,0,2021-08-07 10:30:41,741747
0,0,-2,0,-2,0,-1,0,2021-08-07 10:30:41,741747
-3,-3,-4,-6,-9,-5,-3,-2,2021-08-07 10:30:41,741747
0,1,0,2,7,3,0,0,2021-08-07 10:30:41,741747
0,0,2,4,5,3,2,1,2021-08-07 10:30:41,742748
-2,-3,-3,-9,-18,-9,-3,-2,2021-08-07 10:30:41,742748
2,3,4,13,11,5,2,0,2021-08-07 10:30:41,757778
-3,0,-1,-11,-3,-1,-2,-2,2021-08-07 10:30:41,764748
0,3,5,17,16,8,2,0,2021-08-07 10:30:41,789757
-1,-2,-4,-13,-16,-7,-3,-2,2021-08-07 10:30:41,789757
-2,-2,-3,-3,2,1,-3,-2,2021-08-07 10:30:41,789757
-3,-3,-4,-10,-16,-7,-5,-3,2021-08-07 10:30:41,789757
0,1,2,9,13,5,2,2,2021-08-07 10:30:41,789757
-2,-1,-1,1,-1,-1,-1,-1,2021-08-07 10:30:41,789757
-2,-3,-5,-12,-17,-9,-3,-1,2021-08-07 10:30:41,789757
-1,-2,-1,-4,-7,0,-1,-1,2021-08-07 10:30:41,789757
-2,-2,-4,-9,-12,-6,-4,-2,2021-08-07 10:30:41,790749
-1,0,1,10,16,5,1,0,2021-08-07 10:30:41,790749
0,1,4,6,4,2,0,1,2021-08-07 10:30:41,821761
-4,0,-3,1,-1,0,-2,-1,2021-08-07 10:30:41,821761
-3,-3,-2,-4,-5,-3,-2,-3,2021-08-07 10:30:41,821761
0,0,0,-2,6,3,2,0,2021-08-07 10:30:41,821761
-1,-2,-3,-3,-4,-4,-3,-3,2021-08-07 10:30:41,821761
0,-1,0,-1,-4,-2,0,-2,2021-08-07 10:30:41,821761
0,-1,-3,-4,-11,-6,-2,-2,2021-08-07 10:30:41,837774
-1,-1,-1,1,-1,1,-2,0,2021-08-07 10:30:41,853778
0,0,0,-4,1,0,1,-1,2021-08-07 10:30:41,853778
0,-1,0,5,7,2,1,1,2021-08-07 10:30:41,853778
-2,-1,-5,-7,-5,-3,-3,-1,2021-08-07 10:30:41,853778
-1,-1,0,4,6,2,1,-1,2021-08-07 10:30:41,853778
-2,-3,-3,-5,-7,-3,-1,-1,2021-08-07 10:30:41,885810
-1,0,-1,1,0,-3,-2,1,2021-08-07 10:30:41,901790
0,0,0,2,6,3,1,2,2021-08-07 10:30:41,901790
0,-1,-2,-4,-8,-4,-1,-1,2021-08-07 10:30:41,901790
1,1,1,9,14,7,2,1,2021-08-07 10:30:41,901790
3,2,0,-5,-7,0,0,-1,2021-08-07 10:30:41,901790
0,-3,-2,1,-3,-4,-3,-3,2021-08-07 10:30:41,901790
-2,-3,-3,-3,-7,-6,-2,-1,2021-08-07 10:30:41,901790
-2,-2,-5,-5,-4,-1,-1,1,2021-08-07 10:30:41,916751
1,1,0,2,11,3,2,1,2021-08-07 10:30:41,916751
-1,-3,-3,-8,-11,-4,-2,-1,2021-08-07 10:30:41,916751
-2,-2,0,1,0,0,-2,-1,2021-08-07 10:30:41,916751
-4,-3,-4,-7,-9,-6,-4,-4,2021-08-07 10:30:41,932774
0,1,4,12,16,6,1,0,2021-08-07 10:30:41,948774
-3,-1,-2,-3,-4,-3,-3,-3,2021-08-07 10:30:41,948774
-1,1,0,-2,-6,-3,-2,-3,2021-08-07 10:30:41,948774
1,0,0,-1,5,-1,-2,0,2021-08-07 10:30:41,948774
2,0,0,-1,0,-1,-1,1,2021-08-07 10:30:41,948774
1,0,1,0,0,0,1,-1,2021-08-07 10:30:41,948774
0,0,0,7,12,6,2,1,2021-08-07 10:30:41,948774
-3,-1,-3,-12,-18,-6,-4,-2,2021-08-07 10:30:41,979811
-3,-4,-3,0,1,-2,0,-2,2021-08-07 10:30:41,995774
0,-3,-1,0,0,-2,0,0,2021-08-07 10:30:41,995774
3,4,4,1,4,2,1,5,2021-08-07 10:30:41,995774
0,1,-1,1,3,0,1,0,2021-08-07 10:30:41,995774
-2,-3,-2,-3,-5,-2,-2,-2,2021-08-07 10:30:41,995774
-3,-4,-6,-12,-15,-6,-4,-4,2021-08-07 10:30:41,995774
-3,-3,-3,-3,5,0,0,-1,2021-08-07 10:30:41,995774
1,-1,1,8,5,2,0,1,2021-08-07 10:30:42,011749
1,1,3,8,12,6,0,0,2021-08-07 10:30:42,011749
0,0,-2,-2,1,0,0,0,2021-08-07 10:30:42,011749
-1,-2,-3,-1,-8,-3,-3,-2,2021-08-07 10:30:42,011749
1,0,3,8,5,1,0,-1,2021-08-07 10:30:42,043775
-2,-3,-4,-5,-6,-4,-1,-4,2021-08-07 10:30:42,043775
-3,-1,-1,-3,-8,-3,-1,0,2021-08-07 10:30:42,043775
1,0,0,2,13,4,1,0,2021-08-07 10:30:42,043775
0,0,-2,-1,1,0,1,0,2021-08-07 10:30:42,059748
-2,-1,-1,-1,-4,-2,-1,-1,2021-08-07 10:30:42,070775
-1,-1,-1,-1,-2,-1,0,-1,2021-08-07 10:30:42,070775
-1,-1,-1,0,2,-1,-1,-1,2021-08-07 10:30:42,070775
-2,-1,1,0,2,1,-1,0,2021-08-07 10:30:42,071750
-1,0,-4,-7,-9,-5,-3,-2,2021-08-07 10:30:42,071750
-1,-1,-2,-2,0,1,-3,-3,2021-08-07 10:30:42,071750
-1,-2,-1,0,-5,-2,-1,-1,2021-08-07 10:30:42,071750
0,-1,0,1,6,4,-1,-2,2021-08-07 10:30:42,091749
-2,-3,-2,2,-3,-2,-1,-1,2021-08-07 10:30:42,091749
-3,0,-3,-6,-6,-4,-1,0,2021-08-07 10:30:42,091749
0,0,0,1,3,2,0,0,2021-08-07 10:30:42,091749
-3,-1,-4,-6,-10,-6,-2,-2,2021-08-07 10:30:42,123747
0,-1,-2,-6,-7,-3,-2,-3,2021-08-07 10:30:42,123747
1,1,3,10,17,8,3,0,2021-08-07 10:30:42,139748
-4,-4,-6,-9,-18,-7,-4,-5,2021-08-07 10:30:42,139748
-1,2,1,-1,5,1,2,1,2021-08-07 10:30:42,139748
0,0,2,4,2,0,1,0,2021-08-07 10:30:42,139748
0,-2,-1,-2,-6,-3,-2,0,2021-08-07 10:30:42,139748
1,0,1,6,6,2,0,0,2021-08-07 10:30:42,139748
-2,-2,-3,-7,0,-2,-1,-2,2021-08-07 10:30:42,155750
-3,-2,-4,-9,-8,-5,-2,-2,2021-08-07 10:30:42,155750
0,-1,2,3,4,0,0,0,2021-08-07 10:30:42,171749
-2,-2,-1,-1,-3,-3,-1,-2,2021-08-07 10:30:42,187796
-1,-2,-1,3,0,0,-2,0,2021-08-07 10:30:42,203774
-2,-2,-2,-4,-3,-3,0,-1,2021-08-07 10:30:42,219822
-1,0,-1,2,0,0,0,-1,2021-08-07 10:30:42,235783
0,-2,-2,-2,-1,-1,-2,0,2021-08-07 10:30:42,235783
-2,-1,-2,-4,-2,0,0,-1,2021-08-07 10:30:42,235783
0,1,3,6,8,4,1,0,2021-08-07 10:30:42,235783
-2,-3,-2,-3,-1,-2,-3,-4,2021-08-07 10:30:42,235783
0,1,2,1,1,0,1,-1,2021-08-07 10:30:42,235783
-2,-4,-4,-9,-13,-6,-5,-4,2021-08-07 10:30:42,235783
-1,0,-2,-2,-3,-2,-1,-1,2021-08-07 10:30:42,236748
2,2,2,6,14,6,2,3,2021-08-07 10:30:42,236748
1,3,1,2,3,2,1,0,2021-08-07 10:30:42,236748
-1,-3,-3,-5,-11,-4,-2,0,2021-08-07 10:30:42,236748
-1,1,-1,1,-5,-1,0,1,2021-08-07 10:30:42,236748
-4,-4,-7,-13,-17,-8,-3,-4,2021-08-07 10:30:42,236748
1,0,4,14,23,10,3,0,2021-08-07 10:30:42,236748
1,0,-1,-1,-3,-2,0,0,2021-08-07 10:30:42,251777
-1,-2,-1,0,1,0,-3,-1,2021-08-07 10:30:42,251777
-2,-3,-4,-4,-7,-4,-4,-2,2021-08-07 10:30:42,251777
-1,-2,-3,-11,-18,-6,-2,0,2021-08-07 10:30:42,251777
3,4,7,18,27,12,4,3,2021-08-07 10:30:42,281749
0,-2,-2,2,2,1,0,-1,2021-08-07 10:30:42,281749
-3,-3,-3,-4,-5,-2,-1,0,2021-08-07 10:30:42,297774
1,1,0,-4,-7,-3,-2,0,2021-08-07 10:30:42,297774
-2,-1,-2,1,3,-1,-1,-3,2021-08-07 10:30:42,297774
-1,0,0,5,3,0,1,0,2021-08-07 10:30:42,297774
0,1,0,-1,-1,-1,-1,0,2021-08-07 10:30:42,297774
0,-1,-2,3,1,0,0,0,2021-08-07 10:30:42,297774
-1,1,-2,-6,-5,-3,-1,-1,2021-08-07 10:30:42,313748
0,0,0,-2,2,0,-1,0,2021-08-07 10:30:42,329747
-2,0,0,4,2,0,0,-1,2021-08-07 10:30:42,345783
-3,-2,-4,-6,-4,-2,-2,1,2021-08-07 10:30:42,346112
-1,-3,-1,-2,-3,-3,0,-1,2021-08-07 10:30:42,346112
0,1,3,7,14,5,2,1,2021-08-07 10:30:42,346112
0,-2,-2,-6,-3,-3,0,1,2021-08-07 10:30:42,346112
-1,-1,1,2,-2,1,0,-2,2021-08-07 10:30:42,346112
-3,-5,-3,-2,-2,-4,-3,-2,2021-08-07 10:30:42,346750
-2,-3,-3,-9,-5,-4,-2,0,2021-08-07 10:30:42,346750
-1,-1,-3,-7,-14,-6,-2,-1,2021-08-07 10:30:42,361747
-1,0,1,8,16,5,0,-1,2021-08-07 10:30:42,361747
-2,1,-1,-1,-3,-2,-1,0,2021-08-07 10:30:42,361747
0,-1,1,2,4,1,-1,0,2021-08-07 10:30:42,361747
0,0,-1,3,-2,-1,-1,-2,2021-08-07 10:30:42,376784
-4,-4,-5,-11,-8,-5,-3,-2,2021-08-07 10:30:42,376784
1,-1,3,2,2,-1,2,-2,2021-08-07 10:30:42,392747
1,1,1,6,0,-1,-1,1,2021-08-07 10:30:42,408777
0,1,1,1,2,3,1,1,2021-08-07 10:30:42,408777
-2,-2,-3,-5,-3,-4,-1,-1,2021-08-07 10:30:42,408777
-2,-1,-3,-6,-14,-7,-3,-2,2021-08-07 10:30:42,424749
0,-4,-5,-11,-12,-6,-4,-2,2021-08-07 10:30:42,424749
0,-3,-2,-5,0,2,0,0,2021-08-07 10:30:42,424749
1,1,3,12,13,4,2,0,2021-08-07 10:30:42,424749
1,3,3,2,1,3,0,1,2021-08-07 10:30:42,424749
-2,-3,-3,-4,-3,0,-1,-1,2021-08-07 10:30:42,424749
-2,-1,-1,-7,-10,-5,-3,-2,2021-08-07 10:30:42,439776
-2,-1,-4,-8,-6,-4,-1,-1,2021-08-07 10:30:42,439776
-2,-2,-1,2,2,0,0,-1,2021-08-07 10:30:42,471752
-3,-3,-5,-9,-9,-6,-2,-3,2021-08-07 10:30:42,487805
2,2,6,11,13,4,3,2,2021-08-07 10:30:42,503806
-1,-3,-3,-4,-8,-5,-2,-1,2021-08-07 10:30:42,503806
0,0,0,1,1,0,0,0,2021-08-07 10:30:42,503806
0,0,-2,-4,-5,-2,0,-1,2021-08-07 10:30:42,503806
-1,-4,-5,-2,0,-2,-3,-2,2021-08-07 10:30:42,503806
-1,0,1,1,1,0,0,-2,2021-08-07 10:30:42,503806
-1,-1,1,2,3,1,-1,-2,2021-08-07 10:30:42,503806
-1,2,0,3,1,1,0,1,2021-08-07 10:30:42,504748
3,1,2,7,8,3,1,1,2021-08-07 10:30:42,504748
-2,-1,-2,-2,-5,-2,-1,0,2021-08-07 10:30:42,504748
-1,-3,-4,-3,-3,0,-1,-2,2021-08-07 10:30:42,519840
-3,-1,-2,-6,-5,0,-1,0,2021-08-07 10:30:42,535747
1,2,0,2,-1,-1,-1,1,2021-08-07 10:30:42,551784
0,0,1,3,6,2,1,-2,2021-08-07 10:30:42,552023
-1,-1,1,4,5,0,-1,0,2021-08-07 10:30:42,552023
-4,-4,-2,-3,-5,-5,-2,-2,2021-08-07 10:30:42,552023
-2,-3,-5,-7,-12,-5,-2,-1,2021-08-07 10:30:42,552023
1,1,3,5,2,1,1,1,2021-08-07 10:30:42,552023
-1,-2,-3,-4,-8,-4,-3,0,2021-08-07 10:30:42,552023
2,0,5,10,15,5,1,1,2021-08-07 10:30:42,552748
-3,-3,-2,1,0,-1,-1,-3,2021-08-07 10:30:42,567750
-2,-3,-5,-13,-9,-4,-2,-1,2021-08-07 10:30:42,567750
-1,-2,0,3,1,0,1,-1,2021-08-07 10:30:42,583748
-1,-1,-4,-4,-6,-3,-2,-2,2021-08-07 10:30:42,599750
1,-1,-2,-7,-2,-1,-1,-2,2021-08-07 10:30:42,615798
1,1,2,7,8,6,1,0,2021-08-07 10:30:42,615798
0,-1,-4,-7,-4,-1,1,1,2021-08-07 10:30:42,646749
0,0,0,0,-3,-1,-2,-1,2021-08-07 10:30:42,646749
-3,-4,-4,-14,-15,-8,-3,-2,2021-08-07 10:30:42,646749
3,3,3,11,17,7,2,0,2021-08-07 10:30:42,646749
-2,0,-2,1,2,-2,0,-2,2021-08-07 10:30:42,646749
0,-1,-1,2,-9,-4,-2,-2,2021-08-07 10:30:42,646749
1,2,2,9,22,9,2,1,2021-08-07 10:30:42,646749
-3,-2,-2,-10,-16,-7,-3,-2,2021-08-07 10:30:42,646749
1,-1,-2,-5,-1,-1,0,-1,2021-08-07 10:30:42,647749
0,0,0,-2,1,-1,0,-1,2021-08-07 10:30:42,647749
-2,-1,-4,-3,-6,-5,-1,-3,2021-08-07 10:30:42,647749
0,-1,-3,-4,-2,-2,0,-2,2021-08-07 10:30:42,647749
0,-2,0,-2,5,3,1,0,2021-08-07 10:30:42,647749
-4,-2,-4,-10,-14,-6,-3,-2,2021-08-07 10:30:42,647749
0,0,2,5,4,3,2,2,2021-08-07 10:30:42,647749
1,2,2,10,16,6,1,2,2021-08-07 10:30:42,647749
1,0,-2,-2,-6,-4,-2,-2,2021-08-07 10:30:42,668748
0,-3,-4,-2,-4,-2,1,0,2021-08-07 10:30:42,668748
-1,1,0,0,-1,1,2,-1,2021-08-07 10:30:42,694788
-5,-5,-6,-8,-8,-2,-1,-2,2021-08-07 10:30:42,710779
-5,-3,-3,-15,-14,-4,-5,-3,2021-08-07 10:30:42,726780
2,6,10,23,22,10,2,1,2021-08-07 10:30:42,742748
-1,1,4,7,3,0,-3,-2,2021-08-07 10:30:42,742748
-3,-3,-2,-9,-13,-8,-5,-3,2021-08-07 10:30:42,742748
0,-1,-1,-3,-6,-2,-1,2,2021-08-07 10:30:42,742748
0,-1,-3,-3,6,1,2,0,2021-08-07 10:30:42,742748
2,0,1,3,4,-1,0,1,2021-08-07 10:30:42,742748
0,-1,-1,0,-3,-2,0,1,2021-08-07 10:30:42,742748
-1,-1,0,0,-2,0,-2,0,2021-08-07 10:30:42,742748
0,-2,-4,-6,-4,-3,0,-2,2021-08-07 10:30:42,742748
2,1,2,2,2,1,2,0,2021-08-07 10:30:42,742748
-2,-1,-2,-3,-6,-3,-2,-1,2021-08-07 10:30:42,743748
0,0,0,4,8,1,-1,-2,2021-08-07 10:30:42,757775
-3,-3,-1,-2,-7,-1,-2,-2,2021-08-07 10:30:42,757775
-2,-4,-1,3,5,2,0,-1,2021-08-07 10:30:42,757775
1,0,1,1,4,1,0,-1,2021-08-07 10:30:42,757775
1,3,3,3,0,1,2,1,2021-08-07 10:30:42,773783
-3,-2,0,-2,-1,-3,-2,-1,2021-08-07 10:30:42,789748
-2,-3,-4,-6,-6,-2,-3,-1,2021-08-07 10:30:42,820800
-1,-3,-1,-6,-10,-3,-2,-1,2021-08-07 10:30:42,820800
0,0,2,10,19,7,1,-1,2021-08-07 10:30:42,820800
-1,0,0,1,2,-1,0,0,2021-08-07 10:30:42,820800
-3,-4,-3,-10,-8,-4,-3,-2,2021-08-07 10:30:42,820800
-1,0,-2,0,0,-2,1,-2,2021-08-07 10:30:42,820800
0,1,2,6,0,-1,0,-1,2021-08-07 10:30:42,820800
-2,-3,-5,-10,-14,-6,-2,-2,2021-08-07 10:30:42,821750
0,1,0,3,7,1,0,-1,2021-08-07 10:30:42,821750
-1,1,0,-1,-2,0,1,1,2021-08-07 10:30:42,821750
0,0,1,5,12,4,2,-1,2021-08-07 10:30:42,836806
0,0,0,-2,1,0,0,2,2021-08-07 10:30:42,836806
-1,-1,-2,-5,-7,-4,-1,-1,2021-08-07 10:30:42,852748
-1,-2,-2,-4,-7,-4,-3,-3,2021-08-07 10:30:42,852748
-2,-3,-5,-6,-5,-5,-4,-2,2021-08-07 10:30:42,868775
1,1,1,-1,1,3,1,1,2021-08-07 10:30:42,884748
-1,1,-1,-1,-1,-1,0,-2,2021-08-07 10:30:42,884748
0,0,1,1,3,2,-1,0,2021-08-07 10:30:42,884748
-2,0,-1,0,-6,-2,-1,-1,2021-08-07 10:30:42,884748
-2,-2,-1,-3,-3,-1,-2,-2,2021-08-07 10:30:42,884748
-1,1,0,0,0,-2,-1,0,2021-08-07 10:30:42,884748
-1,-1,-1,1,1,-2,0,-1,2021-08-07 10:30:42,884748
-3,-2,-4,-3,-6,-3,-1,-2,2021-08-07 10:30:42,900799
0,-2,-2,-6,-9,-5,-2,-1,2021-08-07 10:30:42,900799
1,2,4,6,6,3,0,1,2021-08-07 10:30:42,900799
-2,0,0,1,5,2,-1,-2,2021-08-07 10:30:42,916750
-3,-2,-2,-3,-4,-2,-1,-2,2021-08-07 10:30:42,932748
0,1,0,5,10,4,-1,-1,2021-08-07 10:30:42,947749
-2,-2,-3,-6,-10,-3,-2,-1,2021-08-07 10:30:42,959749
1,-1,-3,0,-8,-3,0,-3,2021-08-07 10:30:42,960748
-1,-2,2,0,3,-2,-2,-1,2021-08-07 10:30:42,960748
1,0,1,-3,1,-1,0,-2,2021-08-07 10:30:42,960748
-1,0,-1,5,0,-2,-2,0,2021-08-07 10:30:42,960748
-1,-2,-3,-5,-7,-3,-2,-2,2021-08-07 10:30:42,960748
-1,-3,-2,-6,-7,-1,0,0,2021-08-07 10:30:42,960748
-4,-2,-3,-8,-6,-5,-3,-3,2021-08-07 10:30:42,960748
0,-1,2,8,10,5,1,0,2021-08-07 10:30:42,960748
-3,-1,-2,-3,-1,-1,-1,0,2021-08-07 10:30:42,961748
0,2,0,-2,-4,-2,0,-1,2021-08-07 10:30:42,979796
0,-2,-3,-3,-6,-3,-1,-2,2021-08-07 10:30:42,979796
1,-2,-4,-7,-6,-3,-2,-2,2021-08-07 10:30:42,979796
-2,-1,-1,-2,2,1,-1,-1,2021-08-07 10:30:42,979796
0,2,1,2,1,1,0,1,2021-08-07 10:30:42,995774
0,-2,0,0,0,-2,-1,0,2021-08-07 10:30:42,995774
0,-1,-1,2,5,0,0,0,2021-08-07 10:30:42,995774
1,-1,-2,-5,-4,-1,-1,1,2021-08-07 10:30:42,995774
0,0,-1,1,6,3,0,-3,2021-08-07 10:30:43,011806
-1,-1,-3,0,-1,0,0,0,2021-08-07 10:30:43,011806
-2,-3,-5,-8,-9,-6,-2,-1,2021-08-07 10:30:43,011806
2,0,1,-2,3,2,1,1,2021-08-07 10:30:43,011806
-1,-2,-2,3,-3,-2,-1,1,2021-08-07 10:30:43,059786
0,0,0,4,7,5,2,2,2021-08-07 10:30:43,059786
-2,-3,-2,-4,-6,-1,-1,-3,2021-08-07 10:30:43,059786
0,1,2,7,12,3,1,1,2021-08-07 10:30:43,059786
0,-2,-3,-5,-10,-5,-2,-2,2021-08-07 10:30:43,059786
0,-2,0,0,1,-2,0,0,2021-08-07 10:30:43,059786
-2,0,-2,2,1,0,0,-1,2021-08-07 10:30:43,059786
-2,-3,-3,-2,-7,-4,-2,-1,2021-08-07 10:30:43,059786
2,2,1,-2,0,1,0,-1,2021-08-07 10:30:43,075784
0,1,1,2,5,3,1,0,2021-08-07 10:30:43,091750
-2,-1,0,-2,-2,-1,0,-2,2021-08-07 10:30:43,107786
0,1,3,3,-1,-1,-1,-2,2021-08-07 10:30:43,107786
-2,-3,0,-1,-3,-4,-1,1,2021-08-07 10:30:43,139750
-1,0,-3,-2,-5,-3,-2,-1,2021-08-07 10:30:43,155747
0,0,-1,1,2,-1,-1,1,2021-08-07 10:30:43,171748
-2,-1,-2,-2,-3,-1,-1,-1,2021-08-07 10:30:43,171748
-1,-2,-3,-2,-2,-1,-1,0,2021-08-07 10:30:43,171748
1,2,0,0,1,-1,-2,-2,2021-08-07 10:30:43,171748
0,-1,0,-1,0,-1,-1,-1,2021-08-07 10:30:43,171748
-2,-2,-1,1,0,-1,-1,-1,2021-08-07 10:30:43,171748
-1,0,-2,0,2,-1,-1,1,2021-08-07 10:30:43,171748
-3,-1,0,0,0,0,-2,-2,2021-08-07 10:30:43,171748
1,-1,-2,0,1,0,-1,-1,2021-08-07 10:30:43,172748
-2,-1,-2,-3,-3,-2,-1,0,2021-08-07 10:30:43,172748
-1,1,-1,1,0,-1,0,-1,2021-08-07 10:30:43,172748
-1,0,-2,0,-1,0,-3,-1,2021-08-07 10:30:43,172748
0,0,0,-2,-2,-1,-1,0,2021-08-07 10:30:43,172748
-1,0,-1,-1,1,0,0,-2,2021-08-07 10:30:43,172748
-1,-2,-1,-4,-2,-2,0,0,2021-08-07 10:30:43,172748
-2,0,-1,0,0,-1,1,-1,2021-08-07 10:30:43,172748
0,2,-1,0,0,0,-1,-1,2021-08-07 10:30:43,172748
-1,-1,0,0,-1,-2,1,-2,2021-08-07 10:30:43,172748
0,-2,-4,-6,-5,-2,-1,-1,2021-08-07 10:30:43,203775
0,-1,-1,-1,1,0,0,-1,2021-08-07 10:30:43,203775
0,-2,-2,-1,-2,-2,0,-2,2021-08-07 10:30:43,203775
-1,-1,0,-1,0,0,-1,1,2021-08-07 10:30:43,203775
-2,-2,-2,-3,-4,-2,-2,-1,2021-08-07 10:30:43,235777
1,2,1,4,8,3,2,2,2021-08-07 10:30:43,251777
-2,-2,-3,-5,-7,-5,-2,-2,2021-08-07 10:30:43,251777
-2,-1,-2,-6,-4,-1,0,0,2021-08-07 10:30:43,251777
2,2,3,11,12,5,0,0,2021-08-07 10:30:43,251777
-2,-2,-1,-2,-4,1,0,0,2021-08-07 10:30:43,251777
0,-2,1,0,0,0,-2,-1,2021-08-07 10:30:43,251777
-1,1,-1,1,10,4,1,-2,2021-08-07 10:30:43,251777
-1,1,0,1,2,2,0,1,2021-08-07 10:30:43,256748
0,-1,-1,-3,-3,-4,-2,-1,2021-08-07 10:30:43,256748
-2,0,0,-1,-2,-2,-2,-3,2021-08-07 10:30:43,256748
-1,-2,-3,-7,-11,-5,-4,-1,2021-08-07 10:30:43,256748
0,-2,-1,0,1,0,-1,-2,2021-08-07 10:30:43,283786
-1,0,0,1,2,0,0,0,2021-08-07 10:30:43,299749
-1,-1,-1,-4,-1,-1,0,1,2021-08-07 10:30:43,299749
0,-1,1,1,-1,-1,-3,1,2021-08-07 10:30:43,299749
-2,-3,-2,-3,-4,-4,-3,-2,2021-08-07 10:30:43,299749
-2,-3,-2,-2,1,1,-1,-2,2021-08-07 10:30:43,299749
0,2,6,12,9,4,1,1,2021-08-07 10:30:43,299749
-1,-1,-1,2,-3,0,-2,0,2021-08-07 10:30:43,300749
-2,-3,-3,-12,-14,-5,-3,-1,2021-08-07 10:30:43,315783
0,-1,-2,-2,-5,-2,-1,-1,2021-08-07 10:30:43,331761
0,0,-1,4,16,6,2,1,2021-08-07 10:30:43,331761
1,3,3,11,9,5,2,1,2021-08-07 10:30:43,331761
-1,-1,0,-3,-5,-4,-2,-1,2021-08-07 10:30:43,331761
-2,-2,-3,-5,-7,-3,-3,-2,2021-08-07 10:30:43,331761
-3,-3,-5,-7,-11,-6,-4,-2,2021-08-07 10:30:43,331761
1,-1,-1,-2,4,3,1,0,2021-08-07 10:30:43,347774
2,0,2,6,7,3,2,0,2021-08-07 10:30:43,347774
1,1,-1,3,1,2,0,0,2021-08-07 10:30:43,347774
1,-1,0,-1,-1,-1,0,0,2021-08-07 10:30:43,362747
-1,0,-3,-3,-5,-3,-3,-3,2021-08-07 10:30:43,378773
-2,0,-3,-2,0,0,-3,0,2021-08-07 10:30:43,394749
-1,-1,1,4,5,0,0,-1,2021-08-07 10:30:43,394749
-2,-2,-3,-4,-11,-4,-1,-2,2021-08-07 10:30:43,394749
0,-1,-2,-3,5,-1,1,0,2021-08-07 10:30:43,394749
-1,-2,-2,0,-1,1,-1,-1,2021-08-07 10:30:43,394749
-3,-2,-2,-2,-3,-5,-3,-1,2021-08-07 10:30:43,394749
1,2,2,-4,-7,-1,0,1,2021-08-07 10:30:43,394749
-2,-1,2,9,9,1,1,0,2021-08-07 10:30:43,394749
-3,-2,-3,-9,-3,-1,1,-2,2021-08-07 10:30:43,425747
-1,3,5,20,13,5,2,2,2021-08-07 10:30:43,440800
-3,-3,-4,-5,-9,-5,-2,-1,2021-08-07 10:30:43,456750
-1,-3,-4,-14,-15,-9,-3,-1,2021-08-07 10:30:43,456750
0,-1,1,1,2,-1,-1,-1,2021-08-07 10:30:43,456750
-3,-2,-2,-4,-6,-2,-2,-3,2021-08-07 10:30:43,456750
0,0,-1,-2,2,3,2,-1,2021-08-07 10:30:43,456750
-2,-2,-2,2,-6,-4,-2,-2,2021-08-07 10:30:43,456750
0,-1,1,-2,3,2,-1,0,2021-08-07 10:30:43,456750
1,0,0,-2,-4,-4,0,1,2021-08-07 10:30:43,456750
-4,-2,-4,-1,0,-3,-4,-3,2021-08-07 10:30:43,456750
0,2,3,1,1,3,3,0,2021-08-07 10:30:43,456750
2,3,1,7,4,2,1,0,2021-08-07 10:30:43,488749
0,-2,-4,-5,-7,-3,-2,0,2021-08-07 10:30:43,488749
1,-1,-2,0,13,6,2,1,2021-08-07 10:30:43,488749
-2,-2,-3,-1,1,0,0,-2,2021-08-07 10:30:43,488749
-3,-2,-1,0,1,-1,1,-2,2021-08-07 10:30:43,488749
-2,-1,0,-8,-10,-4,-5,-4,2021-08-07 10:30:43,488749
-3,-2,-1,-2,0,-2,-5,-2,2021-08-07 10:30:43,488749
-1,0,-2,-3,-6,-4,-3,-2,2021-08-07 10:30:43,488749
1,3,3,15,15,6,2,0,2021-08-07 10:30:43,519748
1,-1,-4,-11,-13,-6,-1,-1,2021-08-07 10:30:43,534749
-1,-1,-5,-11,-13,-6,-3,-2,2021-08-07 10:30:43,550775
4,2,4,13,21,12,3,3,2021-08-07 10:30:43,550775
-3,-5,-4,-6,-5,-4,-2,-3,2021-08-07 10:30:43,550775
2,0,1,6,5,3,2,0,2021-08-07 10:30:43,550775
0,-2,2,0,-8,-3,1,-1,2021-08-07 10:30:43,550775
-1,-1,-1,1,-2,-3,-2,0,2021-08-07 10:30:43,550775
-2,-4,-4,-6,-8,-5,-3,-2,2021-08-07 10:30:43,550775
-2,1,0,-4,2,1,-2,-1,2021-08-07 10:30:43,551766
0,2,4,8,9,3,0,1,2021-08-07 10:30:43,551766
-2,-4,-3,-6,-10,-4,-3,-1,2021-08-07 10:30:43,551766
-1,0,1,1,1,3,1,1,2021-08-07 10:30:43,569786
-1,-3,-1,-3,-3,-1,-2,-2,2021-08-07 10:30:43,569786
0,-1,1,-1,-2,-2,-1,-1,2021-08-07 10:30:43,569786
0,0,-4,-3,-1,-2,0,-1,2021-08-07 10:30:43,570748
1,0,0,-2,-2,-2,-2,1,2021-08-07 10:30:43,598774
-1,0,-1,-4,-6,-4,0,-3,2021-08-07 10:30:43,598774
0,-1,-2,-1,1,1,-2,0,2021-08-07 10:30:43,598774
-3,-3,-1,-5,-2,0,-1,-1,2021-08-07 10:30:43,598774
-1,1,2,5,0,0,0,2,2021-08-07 10:30:43,614747
-3,-2,-3,-6,-1,-1,-1,-1,2021-08-07 10:30:43,614747
0,2,3,13,18,8,2,1,2021-08-07 10:30:43,629784
0,0,-1,-2,-5,-2,-1,0,2021-08-07 10:30:43,629784
-1,0,-2,-8,-12,-5,-3,-3,2021-08-07 10:30:43,629784
-1,-1,1,1,4,2,0,1,2021-08-07 10:30:43,629784
-3,-3,-2,-7,-8,-5,-2,-3,2021-08-07 10:30:43,645774
-3,-3,-4,-13,-13,-6,-3,-4,2021-08-07 10:30:43,661747
2,4,6,11,13,4,3,1,2021-08-07 10:30:43,692749
1,-1,0,4,4,0,1,-1,2021-08-07 10:30:43,692749
0,-3,-1,-2,-4,0,-2,-1,2021-08-07 10:30:43,692749
-1,0,0,2,-2,1,-1,0,2021-08-07 10:30:43,692749
-2,-1,-3,-8,-9,-5,-4,-3,2021-08-07 10:30:43,692749
-4,-1,-3,0,2,-1,-1,-1,2021-08-07 10:30:43,692749
1,2,1,3,3,0,3,0,2021-08-07 10:30:43,692749
0,-2,1,2,1,-1,0,-1,2021-08-07 10:30:43,692749
-2,-1,-3,-4,-3,-1,-1,-2,2021-08-07 10:30:43,693749
1,-2,-1,1,2,2,0,0,2021-08-07 10:30:43,693749
-1,-1,-1,-1,-4,-2,-2,-1,2021-08-07 10:30:43,693749
-1,-2,-1,-2,-2,-2,-3,-1,2021-08-07 10:30:43,693749
-2,-2,-3,-6,1,0,0,-2,2021-08-07 10:30:43,724807
0,0,2,6,4,3,0,1,2021-08-07 10:30:43,724807
-3,-1,-2,-7,-10,-4,-2,-1,2021-08-07 10:30:43,724807
-2,-1,-2,-4,-2,0,-1,-3,2021-08-07 10:30:43,724807
0,-1,-2,-3,-12,-6,-1,-1,2021-08-07 10:30:43,739785
-2,0,0,5,18,6,2,-2,2021-08-07 10:30:43,755775
-2,0,3,7,10,4,2,1,2021-08-07 10:30:43,755775
-1,-1,-3,-4,-4,-1,-2,1,2021-08-07 10:30:43,755775
-3,-2,-1,-1,-4,-1,-4,0,2021-08-07 10:30:43,755775
0,-3,-4,-10,-15,-7,-2,-2,2021-08-07 10:30:43,770801
-1,-1,-3,-3,-6,-3,-1,-1,2021-08-07 10:30:43,786748
-1,0,0,3,5,1,0,-1,2021-08-07 10:30:43,802777
-1,-1,-4,-11,-8,-5,-4,-1,2021-08-07 10:30:43,818747
2,2,6,17,18,7,2,2,2021-08-07 10:30:43,818747
0,-1,-2,-1,0,0,0,-3,2021-08-07 10:30:43,818747
-1,-2,0,0,0,0,0,1,2021-08-07 10:30:43,818747
-1,-2,-2,-1,-1,0,0,0,2021-08-07 10:30:43,818747
-2,-2,-4,-8,-8,-5,-5,-2,2021-08-07 10:30:43,818747
-1,1,1,1,4,1,2,-1,2021-08-07 10:30:43,818747
2,1,0,-2,1,0,2,1,2021-08-07 10:30:43,818747
0,-1,0,2,3,-1,1,0,2021-08-07 10:30:43,818747
-2,-3,-4,-6,-8,-4,-3,-1,2021-08-07 10:30:43,818747
0,-3,-3,-7,-9,-4,-3,-1,2021-08-07 10:30:43,818747
-1,-2,-5,-12,-12,-6,-2,-4,2021-08-07 10:30:43,819826
1,-1,5,20,25,10,4,1,2021-08-07 10:30:43,834747
0,0,-1,-3,-7,-2,-1,1,2021-08-07 10:30:43,834747
-1,-2,-4,-3,-4,-2,-2,-1,2021-08-07 10:30:43,834747
-2,-1,2,5,-2,-1,-2,-2,2021-08-07 10:30:43,834747
-2,-2,-1,-4,7,3,-2,1,2021-08-07 10:30:43,850791
0,2,4,6,2,2,2,-1,2021-08-07 10:30:43,850791
-1,-1,-1,3,0,0,0,0,2021-08-07 10:30:43,850791
0,-1,-2,-1,-1,-1,-2,-1,2021-08-07 10:30:43,850791
-2,-1,-4,-11,-19,-9,-3,-1,2021-08-07 10:30:43,877749
-2,-2,-3,-9,-7,-4,-2,-1,2021-08-07 10:30:43,882750
2,2,6,20,27,11,4,3,2021-08-07 10:30:43,882750
-2,0,-1,2,-3,-1,-1,0,2021-08-07 10:30:43,882750
-1,-1,-1,1,2,0,0,-2,2021-08-07 10:30:43,898775
-1,-1,-2,-3,-5,-3,-3,0,2021-08-07 10:30:43,914776
-4,-3,-6,-14,-15,-8,-4,-3,2021-08-07 10:30:43,930779
-1,-1,3,5,5,1,0,-1,2021-08-07 10:30:43,946750
0,-1,-2,-2,-7,-6,-3,-2,2021-08-07 10:30:43,946750
-2,1,-1,3,12,6,0,0,2021-08-07 10:30:43,946750
-2,-2,-2,-1,-3,0,-2,-2,2021-08-07 10:30:43,946750
1,2,1,-2,0,0,0,2,2021-08-07 10:30:43,946750
-2,-1,-2,-5,-6,-3,-1,-1,2021-08-07 10:30:43,946750
-1,0,1,9,15,4,2,-1,2021-08-07 10:30:43,946750
-1,-2,-2,-6,-6,-5,-2,-1,2021-08-07 10:30:43,946750
-3,-1,-4,-7,0,-1,0,-1,2021-08-07 10:30:43,947749
1,2,2,1,2,3,3,3,2021-08-07 10:30:43,961748
1,-1,-1,-2,-5,-3,0,1,2021-08-07 10:30:43,976781
-2,-1,-3,-1,-4,-4,-4,-2,2021-08-07 10:30:43,976781
-2,0,-1,-1,-7,-3,0,-1,2021-08-07 10:30:43,976781
-2,-2,-1,4,4,-2,-3,-1,2021-08-07 10:30:43,976781
-3,-2,1,2,1,-2,-3,-2,2021-08-07 10:30:43,976781
0,0,1,2,1,1,1,2,2021-08-07 10:30:43,976781
0,0,0,-2,-2,-1,-1,-1,2021-08-07 10:30:43,976781
-1,0,0,-1,1,2,1,2,2021-08-07 10:30:44,007774
0,0,-3,-6,-2,1,0,-1,2021-08-07 10:30:44,023773
-2,-3,-6,-15,-19,-10,-4,-2,2021-08-07 10:30:44,039775
-1,-3,-1,5,13,4,2,1,2021-08-07 10:30:44,055799
1,0,6,20,11,4,3,1,2021-08-07 10:30:44,070749
-1,0,1,-1,-1,-2,-3,-2,2021-08-07 10:30:44,070749
-2,-1,0,1,2,-1,-2,-1,2021-08-07 10:30:44,070749
-3,-2,-6,-14,-19,-8,-4,-3,2021-08-07 10:30:44,070749
-2,-3,-5,-8,-2,-3,-3,-3,2021-08-07 10:30:44,086750
-1,-1,0,1,-7,-1,0,1,2021-08-07 10:30:44,086750
0,-1,0,2,7,3,2,0,2021-08-07 10:30:44,086750
-1,0,3,4,-1,-1,-1,0,2021-08-07 10:30:44,086750
0,-1,-1,-2,0,0,-2,-1,2021-08-07 10:30:44,086750
-1,-2,-4,-8,-15,-5,-3,-4,2021-08-07 10:30:44,086750
1,0,2,3,8,5,2,0,2021-08-07 10:30:44,086750
-1,-2,-1,5,6,0,-1,1,2021-08-07 10:30:44,086750
-1,-2,-4,-13,-10,-4,-2,-1,2021-08-07 10:30:44,086750
-4,-2,-2,3,1,-1,0,0,2021-08-07 10:30:44,086750
0,-1,0,-3,-7,-5,-2,-1,2021-08-07 10:30:44,087749
4,4,6,15,15,7,3,2,2021-08-07 10:30:44,087749
0,-1,-1,-1,0,1,0,-1,2021-08-07 10:30:44,087749
-2,-2,-1,-2,-6,-3,-2,-1,2021-08-07 10:30:44,087749
0,0,0,7,4,3,-1,1,2021-08-07 10:30:44,087749
-2,-4,-3,-6,-3,-2,-3,-2,2021-08-07 10:30:44,087749
-1,-2,-3,-4,-3,-3,-3,-2,2021-08-07 10:30:44,118749
0,0,-2,-1,-3,-2,-3,-1,2021-08-07 10:30:44,134789
-3,-1,-4,-10,-17,-8,-3,-2,2021-08-07 10:30:44,134789
0,-1,-1,8,25,11,2,0,2021-08-07 10:30:44,150821
0,2,2,3,2,0,0,0,2021-08-07 10:30:44,150821
2,-1,2,0,2,-1,1,1,2021-08-07 10:30:44,150821
1,0,-1,-2,0,0,0,-1,2021-08-07 10:30:44,150821
-2,-5,-8,-18,-21,-12,-5,-3,2021-08-07 10:30:44,150821
-2,-3,-2,-2,-1,-1,-1,-2,2021-08-07 10:30:44,150821
2,0,3,9,19,8,2,1,2021-08-07 10:30:44,151749
0,-1,-1,-2,-1,1,-1,0,2021-08-07 10:30:44,151749
-2,-2,-1,4,2,-1,0,-1,2021-08-07 10:30:44,151749
-1,0,-5,-15,-11,-4,-2,-1,2021-08-07 10:30:44,179782
-1,-1,0,-1,-6,-4,-1,1,2021-08-07 10:30:44,179782
2,1,6,9,5,5,1,1,2021-08-07 10:30:44,179782
0,-2,1,3,6,1,2,-1,2021-08-07 10:30:44,179782
-4,-6,-7,-9,-9,-6,-3,-4,2021-08-07 10:30:44,198747
1,0,0,-7,-11,-5,-2,-1,2021-08-07 10:30:44,198747
3,3,8,14,18,8,3,3,2021-08-07 10:30:44,198747
2,1,1,1,-4,-3,0,1,2021-08-07 10:30:44,198747
-1,-1,0,2,-3,-3,-2,0,2021-08-07 10:30:44,228784
-4,-4,-7,-10,-7,-5,-3,-4,2021-08-07 10:30:44,228784
-3,-4,-3,-6,-4,-1,-3,-2,2021-08-07 10:30:44,228784
-1,0,0,-1,-2,1,-3,-1,2021-08-07 10:30:44,228784
-1,-1,2,3,-2,-1,-1,1,2021-08-07 10:30:44,259748
0,0,-1,1,10,3,2,0,2021-08-07 10:30:44,275747
0,1,0,6,4,1,0,1,2021-08-07 10:30:44,275747
-4,-4,-7,-14,-16,-7,-4,-3,2021-08-07 10:30:44,291750
-1,1,-1,-1,1,-2,1,-2,2021-08-07 10:30:44,306777
0,0,-1,2,-1,1,-1,0,2021-08-07 10:30:44,306777
-1,-4,-4,-7,-5,-5,-3,-3,2021-08-07 10:30:44,306777
-4,-3,-2,-2,-3,-3,-2,0,2021-08-07 10:30:44,306777
2,2,-2,-4,-3,0,0,0,2021-08-07 10:30:44,306777
0,1,0,-4,-3,-3,0,1,2021-08-07 10:30:44,306777
-2,-1,-3,-8,-7,-7,0,-2,2021-08-07 10:30:44,306777
0,-1,-1,5,1,1,-1,-1,2021-08-07 10:30:44,306777
1,-2,1,3,17,7,3,1,2021-08-07 10:30:44,306777
-1,-3,-5,-1,-2,-1,0,1,2021-08-07 10:30:44,307749
-1,-3,-4,-3,0,1,-2,-2,2021-08-07 10:30:44,307749
-4,-4,-4,-4,-13,-7,-4,-5,2021-08-07 10:30:44,307749
-3,-1,1,1,-1,0,-3,-4,2021-08-07 10:30:44,322749
-1,4,4,1,3,3,2,-2,2021-08-07 10:30:44,322749
-4,0,-1,2,3,-4,-3,-4,2021-08-07 10:30:44,322749
3,3,0,-8,-1,1,-1,0,2021-08-07 10:30:44,322749
8,5,6,13,12,8,6,6,2021-08-07 10:30:44,338748
-5,-8,-13,-20,-22,-15,-7,-3,2021-08-07 10:30:44,354748
-1,-4,-5,-5,-16,-8,-2,-1,2021-08-07 10:30:44,370748
-1,0,-2,1,4,2,-1,0,2021-08-07 10:30:44,386750
-2,-1,2,6,9,5,-1,-2,2021-08-07 10:30:44,402749
4,2,6,4,1,2,3,2,2021-08-07 10:30:44,402749
-2,-2,-3,-2,-3,-2,1,-1,2021-08-07 10:30:44,402749
-1,1,3,9,7,2,2,-1,2021-08-07 10:30:44,402749
-3,-5,-4,-4,-9,-5,-3,-1,2021-08-07 10:30:44,402749
2,1,0,-2,2,2,0,2,2021-08-07 10:30:44,402749
-1,2,2,3,8,4,0,0,2021-08-07 10:30:44,402749
-1,-4,-6,-12,-8,-3,-1,0,2021-08-07 10:30:44,403751
0,1,10,17,5,-1,-3,-1,2021-08-07 10:30:44,418802
0,2,11,35,25,8,3,-1,2021-08-07 10:30:44,418802
4,5,-3,-3,-6,0,3,2,2021-08-07 10:30:44,418802
-6,-8,-15,-33,-10,-5,-6,-5,2021-08-07 10:30:44,418802
-5,-3,-2,-10,-17,-9,-4,-3,2021-08-07 10:30:44,418802
0,-1,-4,-8,3,3,0,-2,2021-08-07 10:30:44,418802
4,3,1,5,11,6,4,2,2021-08-07 10:30:44,418802
-2,-4,-9,0,-8,-6,-2,-2,2021-08-07 10:30:44,434775
-4,-5,-6,-12,-3,-4,-1,-2,2021-08-07 10:30:44,434775
-2,0,4,0,-5,-2,1,0,2021-08-07 10:30:44,434775
0,0,4,6,3,2,-2,1,2021-08-07 10:30:44,434775
4,3,5,3,4,3,1,2,2021-08-07 10:30:44,434775
0,0,0,8,7,3,-2,0,2021-08-07 10:30:44,450797
-1,-1,-2,-1,-4,-2,-1,0,2021-08-07 10:30:44,450797
-1,-2,1,7,5,1,0,-2,2021-08-07 10:30:44,466775
-2,-1,2,-2,-10,-5,-3,-2,2021-08-07 10:30:44,482750
0,0,-1,0,-5,-3,0,-1,2021-08-07 10:30:44,482750
-1,-2,-4,-3,7,0,1,-3,2021-08-07 10:30:44,482750
-1,-3,-6,-19,-27,-9,-5,-2,2021-08-07 10:30:44,482750
3,6,14,39,49,21,8,3,2021-08-07 10:30:44,482750
0,0,-4,-2,-5,-1,-1,-1,2021-08-07 10:30:44,497774
-3,-4,-5,-8,-6,1,0,-2,2021-08-07 10:30:44,497774
-4,-6,-4,-10,-10,-8,-4,-2,2021-08-07 10:30:44,497774
1,3,2,0,-3,1,1,3,2021-08-07 10:30:44,497774
0,0,-4,-4,-3,-2,-1,-1,2021-08-07 10:30:44,529777
-3,-4,-5,-12,-16,-9,-4,-3,2021-08-07 10:30:44,545747
2,3,8,17,19,7,4,2,2021-08-07 10:30:44,561748
-1,-2,-3,1,-6,-3,-2,-2,2021-08-07 10:30:44,577749
1,-1,-3,-4,6,4,1,1,2021-08-07 10:30:44,593775
-3,-2,1,4,-4,-1,-2,0,2021-08-07 10:30:44,593775
-2,-1,0,2,9,3,0,1,2021-08-07 10:30:44,593775
-3,-2,-3,-4,-9,-7,-2,-2,2021-08-07 10:30:44,593775
-2,-3,-2,-9,-9,-1,-2,-2,2021-08-07 10:30:44,593775
-1,0,-2,2,-1,-3,-3,-2,2021-08-07 10:30:44,593775
4,4,6,14,24,10,6,2,2021-08-07 10:30:44,593775
0,-2,0,-2,-6,-3,-2,-1,2021-08-07 10:30:44,593775
-3,-4,-6,-10,-14,-8,-3,-2,2021-08-07 10:30:44,594748
1,-1,-1,3,4,3,0,0,2021-08-07 10:30:44,594748
-6,-5,-7,-9,-12,-7,-5,-4,2021-08-07 10:30:44,594748
1,1,3,8,5,3,1,-1,2021-08-07 10:30:44,594748
0,-1,-1,-4,-6,-3,-1,-1,2021-08-07 10:30:44,594748
0,0,-1,-1,3,2,-1,1,2021-08-07 10:30:44,594748
-1,-2,-3,-1,-4,-2,0,-1,2021-08-07 10:30:44,594748
-1,-1,0,-2,-3,-2,1,-1,2021-08-07 10:30:44,594748
0,0,2,5,5,1,1,0,2021-08-07 10:30:44,624747
-1,-2,-4,-4,-5,-3,-4,-2,2021-08-07 10:30:44,639775
-3,-3,-6,-14,-10,-5,-3,-3,2021-08-07 10:30:44,655808
2,1,3,6,7,3,1,1,2021-08-07 10:30:44,655808
-1,-2,-7,-13,-6,-3,-1,-1,2021-08-07 10:30:44,655808
2,2,6,8,6,3,2,1,2021-08-07 10:30:44,655808
0,0,1,1,3,-2,1,0,2021-08-07 10:30:44,655808
0,0,-1,-2,-3,-2,1,-1,2021-08-07 10:30:44,655808
-2,-2,0,4,2,1,-2,-2,2021-08-07 10:30:44,655808
-4,-4,-3,-11,-9,-5,-3,-3,2021-08-07 10:30:44,655808
0,-1,-3,-8,-7,-2,-3,-2,2021-08-07 10:30:44,656749
-3,-2,-3,-6,-11,-6,-3,-3,2021-08-07 10:30:44,670747
1,2,3,9,19,7,3,3,2021-08-07 10:30:44,686750
-3,-3,-5,-6,-10,-6,0,-4,2021-08-07 10:30:44,702807
-2,-3,-1,2,-6,-2,-1,-1,2021-08-07 10:30:44,718784
-2,-1,-2,-7,3,1,1,-1,2021-08-07 10:30:44,718784
-1,-1,2,2,-2,-1,-2,-1,2021-08-07 10:30:44,734755
3,1,2,5,2,1,1,1,2021-08-07 10:30:44,734755
-5,-2,-3,-5,-10,-7,-3,-1,2021-08-07 10:30:44,734755
2,1,1,4,3,5,1,1,2021-08-07 10:30:44,734755
2,2,5,17,23,6,3,1,2021-08-07 10:30:44,734755
-1,-2,-6,-6,-3,-1,0,-1,2021-08-07 10:30:44,734755
-3,-4,-3,-10,-6,-3,-4,-4,2021-08-07 10:30:44,734755
-5,-4,-5,-12,-21,-11,-6,-2,2021-08-07 10:30:44,734755
3,5,5,9,16,8,4,1,2021-08-07 10:30:44,749748
2,4,8,12,7,4,1,2,2021-08-07 10:30:44,765750
3,3,5,11,6,2,1,0,2021-08-07 10:30:44,765750
-2,-2,-2,-9,-6,-4,-2,-2,2021-08-07 10:30:44,765750
-6,-8,-14,-22,-27,-14,-7,-3,2021-08-07 10:30:44,773749
-2,-3,-6,-7,1,-2,-1,0,2021-08-07 10:30:44,773749
1,2,3,13,7,4,1,1,2021-08-07 10:30:44,774748
2,4,6,11,8,3,1,2,2021-08-07 10:30:44,774748
0,1,5,3,0,1,0,1,2021-08-07 10:30:44,774748
-1,-2,-2,-4,-4,-3,-2,-1,2021-08-07 10:30:44,774748
-1,-3,-2,-1,-2,-1,-2,-1,2021-08-07 10:30:44,774748
-1,0,1,6,3,0,0,-1,2021-08-07 10:30:44,774748
-3,-3,-5,-4,-2,0,0,-3,2021-08-07 10:30:44,797773
-3,-2,-2,-4,-4,-2,-3,-1,2021-08-07 10:30:44,797773
-1,-1,-1,-11,-9,-4,-2,-2,2021-08-07 10:30:44,797773
4,3,5,11,14,4,2,2,2021-08-07 10:30:44,797773
-1,1,-1,-1,-7,-1,-1,-1,2021-08-07 10:30:44,829748
-2,0,0,3,-2,0,0,0,2021-08-07 10:30:44,829748
-3,-3,-8,-14,-3,-2,-2,-3,2021-08-07 10:30:44,845798
-3,-6,-11,-21,-7,-2,-2,-2,2021-08-07 10:30:44,845798
0,0,3,9,3,1,-1,-1,2021-08-07 10:30:44,845798
-1,1,5,5,11,2,-1,-1,2021-08-07 10:30:44,845798
-3,0,-3,0,-8,-4,-1,-2,2021-08-07 10:30:44,845798
-1,-2,3,-1,-3,-1,-1,-1,2021-08-07 10:30:44,845798
2,4,2,4,5,3,3,1,2021-08-07 10:30:44,861772
-1,-2,-3,-2,-5,-3,-2,-3,2021-08-07 10:30:44,861772
0,1,1,7,5,1,0,0,2021-08-07 10:30:44,861772
-2,-4,-7,-10,-12,-6,-4,-3,2021-08-07 10:30:44,861772
0,-1,3,-1,4,1,-1,0,2021-08-07 10:30:44,893774
-1,-3,-4,-11,-11,-6,-3,-1,2021-08-07 10:30:44,909774
2,-1,-5,3,9,2,1,1,2021-08-07 10:30:44,909774
0,0,-3,-6,-5,-4,-2,-2,2021-08-07 10:30:44,909774
0,0,1,7,8,2,0,-2,2021-08-07 10:30:44,909774
0,0,1,-6,-9,-3,2,1,2021-08-07 10:30:44,909774
0,1,4,13,10,3,0,0,2021-08-07 10:30:44,909774
-2,-3,-4,-4,-14,-8,-3,-1,2021-08-07 10:30:44,909774
1,1,5,4,6,1,1,1,2021-08-07 10:30:44,925774
2,5,3,9,8,2,1,1,2021-08-07 10:30:44,925774
-2,-3,-8,-18,-17,-6,-3,-1,2021-08-07 10:30:44,941775
1,0,3,13,14,5,2,1,2021-08-07 10:30:44,941775
-2,-5,-10,-16,-18,-9,-4,-3,2021-08-07 10:30:44,941775
-2,-1,-3,0,6,2,-1,0,2021-08-07 10:30:44,941775
-1,0,0,-5,-4,0,-1,-2,2021-08-07 10:30:44,941775
-1,1,4,11,8,2,0,-1,2021-08-07 10:30:44,941775
-1,-1,-4,0,-2,-1,-1,-1,2021-08-07 10:30:44,957799
-2,-3,-7,-13,-9,-4,-2,-2,2021-08-07 10:30:44,973793
-3,-3,-1,-3,-1,-2,-2,-1,2021-08-07 10:30:44,988756
-2,-2,-9,-3,-6,-2,-3,-3,2021-08-07 10:30:44,988756
-2,0,3,3,-4,-3,0,-2,2021-08-07 10:30:44,988756
-1,0,4,5,5,2,-1,0,2021-08-07 10:30:44,988756
2,2,2,-1,-6,-1,0,0,2021-08-07 10:30:44,988756
4,4,9,15,25,12,7,3,2021-08-07 10:30:44,988756
0,0,2,-4,-12,-5,-1,-2,2021-08-07 10:30:45,004785
-2,-3,-10,-2,8,2,-2,-2,2021-08-07 10:30:45,004785
1,1,6,11,13,4,1,-1,2021-08-07 10:30:45,004785
-4,-1,-5,-8,-11,-6,-4,-3,2021-08-07 10:30:45,004785
-1,-1,-2,-5,-9,-4,-3,-1,2021-08-07 10:30:45,020799
0,0,3,2,-1,0,0,1,2021-08-07 10:30:45,036804
-1,-1,-3,-9,-5,-2,-2,-1,2021-08-07 10:30:45,036804
0,-1,-5,-1,10,3,1,1,2021-08-07 10:30:45,036804
-2,-3,2,4,1,-1,0,-2,2021-08-07 10:30:45,036804
-1,0,2,4,-7,-2,-1,0,2021-08-07 10:30:45,036804
-1,-1,-7,-10,0,1,0,1,2021-08-07 10:30:45,036804
-2,-3,-3,-10,-10,-4,-2,-1,2021-08-07 10:30:45,036804
-3,-4,-9,-13,-4,-2,-3,-3,2021-08-07 10:30:45,068792
1,0,1,1,-3,-2,0,0,2021-08-07 10:30:45,068792
-3,-3,3,4,7,1,-2,-1,2021-08-07 10:30:45,068792
2,4,6,7,0,0,1,0,2021-08-07 10:30:45,068792
-2,-1,-1,5,2,2,-1,-1,2021-08-07 10:30:45,068792
0,1,2,0,-11,-5,-2,-2,2021-08-07 10:30:45,068792
0,0,0,2,4,0,1,1,2021-08-07 10:30:45,080490
1,-1,-6,-2,1,-1,0,1,2021-08-07 10:30:45,080490
