EMG 1,EMG 2,EMG 3,EMG 4,EMG 5,EMG 6,EMG 7,EMG 8,Timestamp,Milliseconds
-6,-5,-7,-10,-9,-5,-4,-2,2021-08-07 12:07:59,778055
0,2,-2,-3,-4,-2,-1,-1,2021-08-07 12:07:59,793054
-2,-3,-2,-4,-3,-2,-2,-2,2021-08-07 12:07:59,793054
0,-1,-2,-4,-1,-2,-1,-3,2021-08-07 12:07:59,793054
-1,1,2,3,2,-1,-1,-1,2021-08-07 12:07:59,793054
-3,-2,-3,-3,-5,-2,-4,-2,2021-08-07 12:07:59,793054
2,1,-1,-4,0,0,1,2,2021-08-07 12:07:59,793054
-3,-3,-2,4,2,1,1,-1,2021-08-07 12:07:59,794055
-1,1,-2,-1,-4,-1,0,-1,2021-08-07 12:07:59,794055
2,2,3,6,8,3,1,0,2021-08-07 12:07:59,794055
-5,-5,-6,-11,-12,-5,-5,-4,2021-08-07 12:07:59,809054
0,-1,0,-2,-4,-4,-4,0,2021-08-07 12:07:59,809054
7,7,8,21,17,8,5,4,2021-08-07 12:07:59,809054
-2,-3,-4,-5,-2,0,-1,-1,2021-08-07 12:07:59,809054
1,1,1,1,2,0,0,1,2021-08-07 12:07:59,809054
0,0,-1,-1,-6,-2,0,0,2021-08-07 12:07:59,810054
-2,-5,-6,-11,-8,-4,-4,-2,2021-08-07 12:07:59,824054
-2,-4,-5,-2,-1,-2,-1,-1,2021-08-07 12:07:59,840054
0,0,-3,1,3,2,2,1,2021-08-07 12:07:59,856054
-5,-5,-1,-3,-5,-4,-4,-4,2021-08-07 12:07:59,856054
0,3,3,4,12,6,1,0,2021-08-07 12:07:59,856054
-4,-3,2,0,-5,-3,-3,-6,2021-08-07 12:07:59,856054
-1,1,-3,-4,-2,-1,-2,-2,2021-08-07 12:07:59,856054
3,3,2,3,3,1,0,0,2021-08-07 12:07:59,856054
6,7,3,0,-3,0,2,5,2021-08-07 12:07:59,888052
4,1,2,-1,0,1,2,3,2021-08-07 12:07:59,888052
-1,-3,-1,5,2,-1,0,1,2021-08-07 12:07:59,888052
0,-3,0,4,7,2,-1,-1,2021-08-07 12:07:59,888052
-5,-5,-7,-3,-1,-3,-4,-1,2021-08-07 12:07:59,888052
2,4,5,3,3,3,2,2,2021-08-07 12:07:59,889054
-1,-1,-2,-5,1,3,1,-1,2021-08-07 12:07:59,904053
-3,-4,-5,-7,-9,-6,-4,-2,2021-08-07 12:07:59,904053
-4,-7,-4,-1,-3,-2,-3,-3,2021-08-07 12:07:59,904053
0,2,0,-2,1,0,0,2,2021-08-07 12:07:59,904053
1,1,0,-4,-3,-2,-2,2,2021-08-07 12:07:59,919054
-1,-1,-2,-3,-3,-2,-2,-2,2021-08-07 12:07:59,935053
1,0,3,6,4,0,0,-1,2021-08-07 12:07:59,935579
-2,-2,-5,-5,-6,-5,-1,-2,2021-08-07 12:07:59,950085
4,6,6,8,8,5,2,4,2021-08-07 12:07:59,950085
-4,-5,-3,0,-3,-2,-3,-3,2021-08-07 12:07:59,950085
0,0,-1,-4,-3,-1,0,-1,2021-08-07 12:07:59,950085
-1,-1,-3,-2,-7,-2,-1,-1,2021-08-07 12:07:59,950085
0,2,2,4,0,0,1,0,2021-08-07 12:07:59,966086
2,2,1,0,1,2,0,1,2021-08-07 12:07:59,972085
-1,-1,-3,-5,4,1,-1,0,2021-08-07 12:07:59,972085
-2,-2,1,2,-4,-4,-1,-1,2021-08-07 12:07:59,972085
-4,-5,-5,-9,-6,-3,-1,-3,2021-08-07 12:07:59,982084
-3,0,-1,-4,-6,-3,-2,-2,2021-08-07 12:07:59,982084
2,2,2,2,4,3,1,1,2021-08-07 12:07:59,982084
1,2,0,1,2,2,2,1,2021-08-07 12:07:59,982084
-3,-5,-4,-7,-14,-8,-5,-4,2021-08-07 12:08:00,014086
-3,-5,-2,-1,1,-2,-2,-3,2021-08-07 12:08:00,030085
-1,1,-1,1,4,2,1,1,2021-08-07 12:08:00,046085
3,4,5,5,9,7,1,3,2021-08-07 12:08:00,046085
-1,-3,1,6,2,1,-1,0,2021-08-07 12:08:00,046085
3,4,3,4,0,1,2,1,2021-08-07 12:08:00,046085
0,-1,-5,-11,-12,-8,-2,-1,2021-08-07 12:08:00,046085
-3,-5,-6,-6,-7,-4,-3,-4,2021-08-07 12:08:00,047086
0,-1,2,4,0,0,-2,-1,2021-08-07 12:08:00,047086
-1,0,3,8,10,4,2,1,2021-08-07 12:08:00,047086
0,1,1,-3,-5,-2,-1,-2,2021-08-07 12:08:00,077086
0,1,4,10,9,6,2,2,2021-08-07 12:08:00,093084
-3,-4,-5,-6,-5,-4,-3,-4,2021-08-07 12:08:00,093084
-3,-4,-5,-9,-8,-3,-2,-1,2021-08-07 12:08:00,093084
-2,-1,3,3,-8,-5,-2,-2,2021-08-07 12:08:00,093084
4,3,4,2,3,4,3,2,2021-08-07 12:08:00,093084
2,2,1,3,10,3,2,-1,2021-08-07 12:08:00,094084
-1,-2,0,4,5,4,0,1,2021-08-07 12:08:00,094084
-1,0,-3,0,2,1,0,1,2021-08-07 12:08:00,124086
0,-1,-3,-5,-7,-4,-3,-1,2021-08-07 12:08:00,124086
-2,0,1,0,-1,1,-3,-1,2021-08-07 12:08:00,124086
-1,0,1,-1,1,0,0,-1,2021-08-07 12:08:00,124086
-3,-3,-1,-5,-1,-1,-1,-2,2021-08-07 12:08:00,124086
-3,-5,-3,-1,2,-1,-2,-2,2021-08-07 12:08:00,124086
-1,-1,-4,-6,-5,-3,-1,-1,2021-08-07 12:08:00,125086
-5,-3,-6,-9,-10,-7,-3,-3,2021-08-07 12:08:00,125086
-4,-5,-6,-7,-5,-2,-3,-2,2021-08-07 12:08:00,125086
5,8,5,4,0,4,3,4,2021-08-07 12:08:00,125086
1,2,2,8,7,3,0,1,2021-08-07 12:08:00,155602
-1,-1,2,7,1,0,-2,0,2021-08-07 12:08:00,171604
0,-2,-1,2,-4,-2,-1,-1,2021-08-07 12:08:00,171604
-3,-5,-5,-9,-3,-4,-3,-3,2021-08-07 12:08:00,171604
-1,-3,-5,-7,-6,-3,-1,-2,2021-08-07 12:08:00,171604
1,-1,-1,-4,3,2,0,-1,2021-08-07 12:08:00,171604
1,2,2,-2,-4,-2,0,1,2021-08-07 12:08:00,203603
-3,-3,-1,3,7,5,1,-1,2021-08-07 12:08:00,203603
-3,-3,-4,-3,-7,-2,-3,-1,2021-08-07 12:08:00,203603
1,2,2,3,5,1,0,0,2021-08-07 12:08:00,203603
-1,-2,-4,-5,-3,-3,-3,-2,2021-08-07 12:08:00,203603
-3,-2,-1,0,-2,-3,-2,-2,2021-08-07 12:08:00,204602
0,0,-1,-2,-3,-3,-1,-2,2021-08-07 12:08:00,218602
-1,-1,-2,0,-3,-2,-1,1,2021-08-07 12:08:00,234602
-1,-1,1,0,1,1,1,-1,2021-08-07 12:08:00,250603
-5,-6,-4,-8,-9,-6,-5,-4,2021-08-07 12:08:00,250603
-1,0,1,10,11,5,1,1,2021-08-07 12:08:00,250603
3,1,1,-2,-8,-2,0,-2,2021-08-07 12:08:00,250603
1,2,4,6,9,5,1,1,2021-08-07 12:08:00,266603
-3,-3,-2,-4,-6,-5,-3,-3,2021-08-07 12:08:00,266603
-2,-4,-6,-12,-9,-4,-2,0,2021-08-07 12:08:00,266603
0,1,1,6,10,3,3,1,2021-08-07 12:08:00,282604
-3,-2,-1,1,3,0,-2,-1,2021-08-07 12:08:00,298604
4,4,-1,-6,-6,-4,2,1,2021-08-07 12:08:00,299604
1,1,0,-1,-2,-1,-2,-2,2021-08-07 12:08:00,299604
0,-1,-5,-10,-13,-7,-3,-1,2021-08-07 12:08:00,299604
1,0,5,17,18,9,3,2,2021-08-07 12:08:00,313604
-2,-5,-3,-2,-2,-1,-3,-3,2021-08-07 12:08:00,329601
-2,-1,-5,-14,-9,-5,-3,-3,2021-08-07 12:08:00,345602
0,0,5,12,7,3,3,1,2021-08-07 12:08:00,360602
0,2,2,4,0,1,0,0,2021-08-07 12:08:00,375602
-1,-1,0,-1,-1,-1,-3,-2,2021-08-07 12:08:00,375602
0,-1,-2,0,-3,-2,-2,0,2021-08-07 12:08:00,375602
-4,-4,-7,-11,-10,-5,-4,-3,2021-08-07 12:08:00,375602
-1,-3,-4,-6,-8,-4,-2,0,2021-08-07 12:08:00,375602
-1,-1,-3,3,2,0,-2,-1,2021-08-07 12:08:00,376603
-1,0,4,3,3,1,0,1,2021-08-07 12:08:00,376603
2,2,-1,-2,-1,0,0,1,2021-08-07 12:08:00,391601
-1,0,0,1,0,-1,1,-1,2021-08-07 12:08:00,391601
-5,-6,-5,-10,-12,-6,-3,-3,2021-08-07 12:08:00,391601
1,1,4,8,6,1,1,0,2021-08-07 12:08:00,391601
3,3,0,5,6,3,2,1,2021-08-07 12:08:00,391601
2,2,0,1,0,1,1,2,2021-08-07 12:08:00,391601
-1,-1,3,11,9,2,2,0,2021-08-07 12:08:00,392602
-2,-2,-3,-4,-6,0,-1,-2,2021-08-07 12:08:00,392602
-3,-2,-2,-4,-4,-2,-2,-2,2021-08-07 12:08:00,392602
1,2,-1,-3,-5,-2,-1,-1,2021-08-07 12:08:00,392602
-4,-4,-5,-3,-5,-3,-3,-3,2021-08-07 12:08:00,393604
-1,-3,-3,-2,0,-1,0,-2,2021-08-07 12:08:00,393604
-2,-4,-2,-4,-4,-3,-3,-2,2021-08-07 12:08:00,393604
-2,-3,0,0,2,1,-2,-2,2021-08-07 12:08:00,393604
0,-3,-2,-2,3,0,0,1,2021-08-07 12:08:00,393604
0,0,-1,-9,-4,-1,0,1,2021-08-07 12:08:00,393604
-1,0,3,12,5,3,2,-1,2021-08-07 12:08:00,407602
-1,-2,-2,0,-3,-1,-1,-2,2021-08-07 12:08:00,419602
1,2,1,0,6,1,-1,3,2021-08-07 12:08:00,420603
-4,-4,-3,0,-1,-2,-3,-5,2021-08-07 12:08:00,420603
-2,-3,-6,-12,-7,-4,-1,-1,2021-08-07 12:08:00,420603
2,2,1,-5,-7,-4,-2,1,2021-08-07 12:08:00,438602
2,3,3,10,13,6,2,0,2021-08-07 12:08:00,454603
0,1,2,1,2,0,0,0,2021-08-07 12:08:00,470603
0,-1,-1,-4,-2,-2,-2,-2,2021-08-07 12:08:00,486603
-2,-4,-5,-1,-5,-1,1,-1,2021-08-07 12:08:00,502603
-3,-3,-3,-12,-10,-4,-3,-2,2021-08-07 12:08:00,502603
-1,-2,1,7,5,-1,-5,-3,2021-08-07 12:08:00,502603
-3,-2,-2,-3,-2,-2,-2,-3,2021-08-07 12:08:00,502603
-2,-2,-3,-5,-2,-3,-1,-1,2021-08-07 12:08:00,503604
0,1,1,4,2,2,2,0,2021-08-07 12:08:00,503604
-2,-3,-1,0,-2,2,3,-2,2021-08-07 12:08:00,503604
-1,-1,-5,-12,-14,-8,-4,-1,2021-08-07 12:08:00,503604
3,2,4,12,17,10,5,3,2021-08-07 12:08:00,503604
-4,-2,-2,-1,-4,-3,-1,-2,2021-08-07 12:08:00,503604
-4,-4,0,8,1,-1,-1,-1,2021-08-07 12:08:00,503604
2,5,2,-4,-5,-2,1,1,2021-08-07 12:08:00,518603
2,3,5,15,11,4,3,2,2021-08-07 12:08:00,533601
-1,0,-3,-6,-8,-5,-2,0,2021-08-07 12:08:00,533601
3,3,2,-1,-1,1,1,2,2021-08-07 12:08:00,533601
-3,-6,-3,-5,-7,-5,-2,-2,2021-08-07 12:08:00,533601
-3,-2,-2,-6,-10,-6,-5,-4,2021-08-07 12:08:00,533601
1,1,3,7,4,2,2,0,2021-08-07 12:08:00,533601
1,-2,0,4,10,3,1,0,2021-08-07 12:08:00,549602
1,1,2,8,8,4,0,1,2021-08-07 12:08:00,549602
-2,-2,-5,-12,-12,-7,-4,-3,2021-08-07 12:08:00,580602
-5,-5,-6,-12,-16,-9,-6,-3,2021-08-07 12:08:00,596603
1,3,-2,-4,0,2,1,0,2021-08-07 12:08:00,612603
1,2,2,8,8,2,2,0,2021-08-07 12:08:00,628604
2,1,0,2,3,2,0,1,2021-08-07 12:08:00,659601
-2,-3,-5,-6,-6,-2,-1,-2,2021-08-07 12:08:00,675604
-5,-6,-5,-7,-9,-6,-3,-3,2021-08-07 12:08:00,691601
-3,-4,-3,-6,-4,-4,-2,-1,2021-08-07 12:08:00,691601
-3,1,0,-2,3,2,-2,-2,2021-08-07 12:08:00,691601
0,2,7,11,5,1,-1,0,2021-08-07 12:08:00,691601
5,6,6,4,3,1,1,1,2021-08-07 12:08:00,691601
2,1,1,0,-1,-1,-3,1,2021-08-07 12:08:00,691601
-1,-3,-6,-5,-1,-2,-1,0,2021-08-07 12:08:00,692605
1,-1,0,0,3,2,0,1,2021-08-07 12:08:00,692605
-4,-6,-7,-10,-10,-5,-3,-3,2021-08-07 12:08:00,692605
-1,0,-5,-7,-5,-3,-2,-1,2021-08-07 12:08:00,692605
0,0,-1,-2,-9,-4,-2,0,2021-08-07 12:08:00,692605
1,1,0,4,16,8,3,0,2021-08-07 12:08:00,692605
-3,-4,-3,0,-4,-4,-3,-2,2021-08-07 12:08:00,693604
-3,-3,-3,-7,-5,-3,-1,-1,2021-08-07 12:08:00,693604
1,2,3,8,6,2,1,1,2021-08-07 12:08:00,693604
-1,-3,-5,-8,-12,-7,-4,-2,2021-08-07 12:08:00,693604
-3,-3,-5,-7,-7,-5,-2,0,2021-08-07 12:08:00,693604
2,2,4,10,8,5,1,0,2021-08-07 12:08:00,693604
0,-1,2,5,6,1,-1,-1,2021-08-07 12:08:00,707603
3,1,3,0,0,2,1,2,2021-08-07 12:08:00,707603
0,1,0,2,-1,0,-2,-1,2021-08-07 12:08:00,707603
-6,-6,-8,-13,-9,-5,-5,-4,2021-08-07 12:08:00,723603
1,0,4,3,5,1,1,1,2021-08-07 12:08:00,723603
0,1,-2,0,-2,-3,-1,-1,2021-08-07 12:08:00,723603
-2,-3,-2,-5,-4,-2,-1,0,2021-08-07 12:08:00,723603
2,3,3,6,2,3,2,1,2021-08-07 12:08:00,723603
-3,-4,-3,-9,-7,-3,-4,-3,2021-08-07 12:08:00,723603
-1,-2,-1,4,4,1,1,0,2021-08-07 12:08:00,724603
-1,1,1,-2,-4,-2,0,0,2021-08-07 12:08:00,724603
-2,-2,-1,5,7,4,1,1,2021-08-07 12:08:00,724603
-3,-3,-3,-7,-9,-3,-2,-1,2021-08-07 12:08:00,724603
-5,-1,-5,-6,-9,-5,-3,-2,2021-08-07 12:08:00,724603
-2,-2,-5,-13,-6,-3,-3,-2,2021-08-07 12:08:00,754601
0,-1,2,14,19,9,3,1,2021-08-07 12:08:00,770602
2,4,6,4,-2,-1,0,1,2021-08-07 12:08:00,786604
-3,-2,0,7,7,0,-1,-1,2021-08-07 12:08:00,786604
-1,-1,-1,0,-3,-4,-1,-3,2021-08-07 12:08:00,786604
1,3,0,-4,-9,-6,-2,0,2021-08-07 12:08:00,786604
-4,-5,-7,-5,-1,-2,-3,-3,2021-08-07 12:08:00,786604
1,0,3,-3,-5,-2,-2,0,2021-08-07 12:08:00,786604
-4,-3,-4,-3,-5,-4,-5,-2,2021-08-07 12:08:00,787603
-4,-5,-5,-7,-2,-2,-3,-3,2021-08-07 12:08:00,787603
4,5,8,9,2,1,1,4,2021-08-07 12:08:00,787603
4,4,3,4,6,7,3,2,2021-08-07 12:08:00,787603
1,0,3,7,7,3,1,1,2021-08-07 12:08:00,818603
-4,-2,-3,-6,-11,-6,-4,-3,2021-08-07 12:08:00,834602
-3,-4,-7,-3,-2,-3,-4,-1,2021-08-07 12:08:00,834602
-4,-3,-4,-9,-8,-3,-3,-1,2021-08-07 12:08:00,834602
1,1,3,8,10,4,0,1,2021-08-07 12:08:00,850603
0,1,-1,-3,-4,-1,1,0,2021-08-07 12:08:00,850603
-2,-3,-3,-3,-1,-1,-2,-2,2021-08-07 12:08:00,850603
-1,-2,-1,-1,0,0,0,-2,2021-08-07 12:08:00,850603
-3,-1,-3,-3,-4,-2,-1,-2,2021-08-07 12:08:00,850603
-1,1,1,-1,-2,-1,1,1,2021-08-07 12:08:00,850603
-5,-2,-5,-9,-8,-3,-2,-4,2021-08-07 12:08:00,851603
3,4,5,11,5,1,1,2,2021-08-07 12:08:00,851603
0,0,2,3,4,2,-1,0,2021-08-07 12:08:00,866603
-1,-1,0,0,-3,-2,-2,-2,2021-08-07 12:08:00,866603
-2,-3,-4,-5,-2,-2,-1,-2,2021-08-07 12:08:00,870601
1,-1,2,5,2,1,0,-1,2021-08-07 12:08:00,870601
0,1,2,5,9,3,2,-2,2021-08-07 12:08:00,897603
2,1,1,2,2,1,0,-1,2021-08-07 12:08:00,913601
1,1,-1,-3,-5,-2,0,-1,2021-08-07 12:08:00,913601
-6,-8,-9,-11,-10,-7,-5,-4,2021-08-07 12:08:00,913601
1,0,-2,-2,-3,-1,1,2,2021-08-07 12:08:00,913601
0,-1,-1,-1,0,1,-1,-1,2021-08-07 12:08:00,913601
0,-3,-2,0,4,1,0,0,2021-08-07 12:08:00,913601
0,-1,-1,0,1,0,-1,-1,2021-08-07 12:08:00,914603
-1,0,0,-1,-1,0,-2,1,2021-08-07 12:08:00,929603
1,-2,-2,-3,-2,-1,-2,-1,2021-08-07 12:08:00,945603
-1,1,-2,-2,-4,-1,0,-2,2021-08-07 12:08:00,961603
-4,-5,-7,-13,-10,-6,-3,-2,2021-08-07 12:08:00,961603
-5,-5,-3,-2,4,1,-1,-2,2021-08-07 12:08:00,976603
10,12,12,21,16,9,6,8,2021-08-07 12:08:00,992603
1,1,2,3,1,1,-1,1,2021-08-07 12:08:00,992603
-1,-1,-1,-3,-4,-1,-1,-2,2021-08-07 12:08:00,992603
-2,-3,-5,-12,-13,-7,-5,-3,2021-08-07 12:08:00,992603
-4,-7,-9,-15,-10,-6,-4,-3,2021-08-07 12:08:00,992603
-1,-3,3,9,8,4,1,-1,2021-08-07 12:08:00,993604
3,4,3,1,-2,0,-1,1,2021-08-07 12:08:00,993604
0,1,-1,0,-2,-2,1,2,2021-08-07 12:08:00,993604
-3,-3,-1,0,-4,-1,-2,1,2021-08-07 12:08:00,993604
-2,-2,-2,-4,-2,-1,-1,0,2021-08-07 12:08:00,993604
-1,-1,0,1,1,0,0,-2,2021-08-07 12:08:00,993604
2,2,1,3,6,4,1,1,2021-08-07 12:08:01,008604
0,-2,1,3,-1,0,-1,-1,2021-08-07 12:08:01,008604
-3,-5,-7,-10,-11,-7,-3,-2,2021-08-07 12:08:01,008604
-2,-1,-1,3,5,1,-1,0,2021-08-07 12:08:01,008604
1,1,1,-1,-3,-1,0,2,2021-08-07 12:08:01,040603
2,4,-1,4,4,1,1,1,2021-08-07 12:08:01,040603
-2,0,0,0,0,0,-1,-2,2021-08-07 12:08:01,040603
-2,-2,-1,-3,-4,-2,-1,-3,2021-08-07 12:08:01,040603
-2,-3,-2,-5,-6,-4,-2,-3,2021-08-07 12:08:01,056603
-2,-3,-3,-6,-5,-4,-2,-1,2021-08-07 12:08:01,056603
0,2,1,-4,-3,-3,-1,0,2021-08-07 12:08:01,056603
-3,-4,-4,-4,1,0,-1,0,2021-08-07 12:08:01,056603
-2,-2,-6,-12,-12,-6,-2,0,2021-08-07 12:08:01,072603
4,4,10,24,25,12,5,3,2021-08-07 12:08:01,072603
0,-2,1,2,2,1,0,0,2021-08-07 12:08:01,072603
-2,-5,-4,-1,-3,-2,-1,-2,2021-08-07 12:08:01,072603
-1,1,1,-2,-4,-2,-1,-2,2021-08-07 12:08:01,103603
-1,-3,-3,-8,-6,-2,-2,-2,2021-08-07 12:08:01,119604
0,0,-2,-3,-4,-3,-1,-1,2021-08-07 12:08:01,119604
-1,1,0,3,5,2,-1,0,2021-08-07 12:08:01,119604
-2,-3,-2,4,6,3,1,-1,2021-08-07 12:08:01,119604
-5,-5,-4,-4,-2,0,-1,-1,2021-08-07 12:08:01,119604
0,1,0,-6,-7,-2,-1,0,2021-08-07 12:08:01,120605
-1,-1,-1,-1,-5,-2,0,-1,2021-08-07 12:08:01,120605
-1,-1,0,6,8,4,1,0,2021-08-07 12:08:01,135602
0,-1,-1,-2,-6,-1,-2,-1,2021-08-07 12:08:01,135602
-2,-3,-3,-4,2,-1,-3,-2,2021-08-07 12:08:01,135602
2,2,1,-2,-4,0,-1,-1,2021-08-07 12:08:01,135602
-1,-2,0,1,3,0,-1,-1,2021-08-07 12:08:01,151603
0,0,-3,-3,-4,-3,-2,-1,2021-08-07 12:08:01,151603
-1,-1,1,2,0,-1,-2,0,2021-08-07 12:08:01,167602
-2,-2,-3,-4,-3,-4,-2,-2,2021-08-07 12:08:01,183603
1,1,1,2,1,0,1,0,2021-08-07 12:08:01,198609
-2,-1,-2,-10,-13,-7,-3,-3,2021-08-07 12:08:01,198609
0,1,-4,-7,-1,1,1,0,2021-08-07 12:08:01,214602
-1,1,2,6,8,4,0,-1,2021-08-07 12:08:01,214602
-4,-7,-4,-6,-7,-3,-2,-3,2021-08-07 12:08:01,214602
-2,-2,2,5,5,2,0,0,2021-08-07 12:08:01,214602
-2,-3,-7,-9,-9,-4,-3,-3,2021-08-07 12:08:01,214602
0,1,1,-1,-1,-1,-1,1,2021-08-07 12:08:01,214602
1,1,-2,-1,-1,-2,-2,-1,2021-08-07 12:08:01,214602
-2,-1,1,4,1,-2,-1,-1,2021-08-07 12:08:01,215603
6,7,12,15,8,5,5,3,2021-08-07 12:08:01,215603
-2,-4,-6,-5,-6,-4,-2,-3,2021-08-07 12:08:01,215603
-2,0,3,4,5,3,-2,-1,2021-08-07 12:08:01,245601
-4,-4,-4,-8,-4,-3,-4,-3,2021-08-07 12:08:01,261604
-2,-3,1,3,2,-2,-2,-2,2021-08-07 12:08:01,293602
3,4,2,4,8,3,0,2,2021-08-07 12:08:01,309603
-1,-3,-3,-6,-11,-7,-2,-2,2021-08-07 12:08:01,309603
0,-4,-5,-11,-4,-2,0,0,2021-08-07 12:08:01,309603
3,5,5,9,6,7,1,2,2021-08-07 12:08:01,309603
-3,-3,-2,-5,-6,-2,-3,-2,2021-08-07 12:08:01,310604
1,2,2,2,2,-1,-1,-2,2021-08-07 12:08:01,310604
-1,-1,-4,-5,-3,-1,0,-1,2021-08-07 12:08:01,310604
-3,-5,-5,-3,-3,0,-1,1,2021-08-07 12:08:01,311604
0,-3,-3,-2,-4,-3,-1,0,2021-08-07 12:08:01,311604
1,0,0,12,10,10,8,4,2021-08-07 12:08:01,311604
8,10,5,2,1,3,6,5,2021-08-07 12:08:01,311604
-4,-3,-1,-5,-3,-3,-7,-5,2021-08-07 12:08:01,311604
-16,-9,1,12,10,-3,-12,-15,2021-08-07 12:08:01,311604
-5,-3,-5,-15,-12,-10,-7,-5,2021-08-07 12:08:01,312602
2,2,6,21,21,10,3,3,2021-08-07 12:08:01,312602
11,14,8,8,2,3,8,6,2021-08-07 12:08:01,312602
-10,-13,-16,-30,-28,-15,-9,-9,2021-08-07 12:08:01,312602
-2,-5,-2,0,6,3,1,0,2021-08-07 12:08:01,334602
-2,0,-7,-20,-25,-10,-4,-1,2021-08-07 12:08:01,334602
3,3,5,18,29,15,7,3,2021-08-07 12:08:01,334602
3,3,5,4,1,2,3,5,2021-08-07 12:08:01,334602
-3,-4,-6,-14,-14,-6,-5,-3,2021-08-07 12:08:01,356604
-2,-4,-5,-3,-5,-6,-4,-2,2021-08-07 12:08:01,372603
-2,-3,-1,11,15,5,0,-2,2021-08-07 12:08:01,388602
0,0,-1,-2,-1,-1,0,2,2021-08-07 12:08:01,388602
3,7,3,1,5,4,2,3,2021-08-07 12:08:01,388602
-1,2,6,16,9,3,-1,0,2021-08-07 12:08:01,388602
-7,-10,-9,-15,-21,-13,-7,-6,2021-08-07 12:08:01,388602
4,6,3,5,3,6,4,2,2021-08-07 12:08:01,388602
-2,-2,0,-3,-7,-3,-2,0,2021-08-07 12:08:01,388602
-4,-5,-6,-12,-13,-7,-5,-5,2021-08-07 12:08:01,388602
-2,-2,4,8,7,-1,0,0,2021-08-07 12:08:01,388602
-1,-4,-3,-2,1,1,0,-2,2021-08-07 12:08:01,388602
2,5,4,8,2,1,-1,1,2021-08-07 12:08:01,420602
-1,-1,-1,-2,4,2,-1,-1,2021-08-07 12:08:01,435603
-2,-3,-5,-8,-11,-5,-3,-2,2021-08-07 12:08:01,451602
1,-2,-3,-4,-2,-1,1,0,2021-08-07 12:08:01,451602
0,-1,1,6,3,-1,-1,-2,2021-08-07 12:08:01,451602
-1,-1,-3,-2,0,0,1,1,2021-08-07 12:08:01,451602
-5,-4,-7,-13,-9,-4,-4,-3,2021-08-07 12:08:01,451602
5,6,7,12,5,3,2,3,2021-08-07 12:08:01,451602
-2,-5,-2,-3,1,-2,-1,-3,2021-08-07 12:08:01,451602
-1,0,-1,-3,-10,-6,-2,-2,2021-08-07 12:08:01,452604
-1,-2,-2,0,7,2,0,0,2021-08-07 12:08:01,452604
2,3,1,3,1,1,2,1,2021-08-07 12:08:01,452604
-2,-3,-1,-6,-10,-4,-3,-2,2021-08-07 12:08:01,482603
-2,-1,0,8,15,6,0,0,2021-08-07 12:08:01,482603
-2,-2,-5,-1,-5,-2,0,-2,2021-08-07 12:08:01,482603
-2,-2,-2,2,8,3,-1,0,2021-08-07 12:08:01,482603
1,-1,0,-1,-5,-3,-3,0,2021-08-07 12:08:01,482603
-1,-3,-1,-7,-4,-2,-1,-1,2021-08-07 12:08:01,482603
-1,0,0,-5,-7,-3,0,-1,2021-08-07 12:08:01,514603
-5,-5,-6,-3,-5,-3,-3,-3,2021-08-07 12:08:01,530603
2,2,0,-1,-1,0,1,0,2021-08-07 12:08:01,546602
1,1,0,0,-1,0,-1,0,2021-08-07 12:08:01,562601
1,0,3,8,11,5,1,0,2021-08-07 12:08:01,578603
1,0,-1,1,-1,0,-1,0,2021-08-07 12:08:01,593603
-5,-6,-5,-2,-1,-2,-2,-4,2021-08-07 12:08:01,609603
3,3,1,-1,-2,1,1,3,2021-08-07 12:08:01,625602
-3,0,-2,-9,-8,-5,-5,-1,2021-08-07 12:08:01,625602
1,2,4,4,1,0,-2,0,2021-08-07 12:08:01,625602
1,1,2,4,7,4,3,2,2021-08-07 12:08:01,625602
-3,-3,-1,0,-2,-2,-1,-3,2021-08-07 12:08:01,625602
-5,-5,-9,-16,-18,-10,-5,-3,2021-08-07 12:08:01,626603
-1,-2,0,-3,5,3,0,-1,2021-08-07 12:08:01,641603
3,4,6,16,13,6,3,3,2021-08-07 12:08:01,641603
-4,-2,-2,-4,-2,-1,-1,-2,2021-08-07 12:08:01,641603
-3,-4,-5,-5,-4,-4,-2,-3,2021-08-07 12:08:01,641603
2,2,0,-4,-7,-4,-1,-1,2021-08-07 12:08:01,641603
0,3,0,1,-2,-1,-1,0,2021-08-07 12:08:01,641603
-1,-2,-5,-11,-11,-7,-5,-4,2021-08-07 12:08:01,641603
-1,-3,1,11,10,2,0,-1,2021-08-07 12:08:01,642603
3,5,5,8,9,5,5,2,2021-08-07 12:08:01,642603
-1,0,-3,-4,-2,-1,-1,-2,2021-08-07 12:08:01,642603
-2,-1,0,2,0,0,-2,-2,2021-08-07 12:08:01,642603
-4,-6,-8,-11,-16,-9,-6,-4,2021-08-07 12:08:01,642603
1,2,1,1,6,1,3,1,2021-08-07 12:08:01,642603
1,3,0,2,2,1,0,0,2021-08-07 12:08:01,642603
-1,-1,-2,0,-2,0,1,-1,2021-08-07 12:08:01,643603
4,3,2,2,1,1,1,2,2021-08-07 12:08:01,643603
-1,-2,-4,-4,-5,-3,-2,-3,2021-08-07 12:08:01,643603
-3,-2,-4,-6,-6,-3,-4,-2,2021-08-07 12:08:01,672603
-3,-5,-3,5,7,3,0,-2,2021-08-07 12:08:01,688603
1,2,2,0,-1,0,0,-1,2021-08-07 12:08:01,704605
-3,-3,-3,-5,-5,-4,-1,-1,2021-08-07 12:08:01,704605
-2,-3,-3,-4,-3,-3,-2,0,2021-08-07 12:08:01,704605
0,2,1,-1,0,-1,0,0,2021-08-07 12:08:01,704605
2,0,2,6,5,2,2,-1,2021-08-07 12:08:01,704605
2,2,2,0,-1,1,-1,-2,2021-08-07 12:08:01,704605
-4,-5,-4,-1,-5,-4,-1,-1,2021-08-07 12:08:01,705604
-3,-7,-8,-7,-1,-4,-2,1,2021-08-07 12:08:01,705604
-1,-3,0,-6,-4,-3,-3,-1,2021-08-07 12:08:01,705604
0,2,4,6,3,3,0,-1,2021-08-07 12:08:01,705604
-1,2,4,9,8,6,3,-1,2021-08-07 12:08:01,720602
-3,-4,-8,-11,-10,-6,-3,-2,2021-08-07 12:08:01,736604
-3,-4,-7,-14,-17,-10,-5,-1,2021-08-07 12:08:01,736604
-4,-6,-6,-9,-5,-3,-6,-3,2021-08-07 12:08:01,736604
4,4,6,10,7,4,1,3,2021-08-07 12:08:01,736604
2,3,8,17,22,14,4,2,2021-08-07 12:08:01,736604
0,2,0,3,-2,1,1,0,2021-08-07 12:08:01,737603
-5,-7,-7,-15,-20,-11,-6,-5,2021-08-07 12:08:01,737603
2,3,8,26,33,18,7,3,2021-08-07 12:08:01,752602
2,3,5,3,0,-1,0,1,2021-08-07 12:08:01,752602
1,0,0,-3,0,-1,2,-1,2021-08-07 12:08:01,752602
-4,-4,-5,-6,-11,-9,-4,-1,2021-08-07 12:08:01,752602
-4,-6,-9,-21,-20,-11,-6,-4,2021-08-07 12:08:01,784604
-3,-2,-1,-1,-5,-5,-3,-3,2021-08-07 12:08:01,800602
3,2,3,7,12,6,1,2,2021-08-07 12:08:01,805603
-3,-4,-2,1,2,0,1,-2,2021-08-07 12:08:01,805603
-5,-5,-6,-9,-10,-8,-5,-5,2021-08-07 12:08:01,806603
2,3,2,0,-2,0,1,1,2021-08-07 12:08:01,806603
1,0,-2,-6,-3,-2,-3,0,2021-08-07 12:08:01,806603
1,3,3,13,14,6,3,4,2021-08-07 12:08:01,806603
-2,-3,-3,-3,2,-1,-1,-2,2021-08-07 12:08:01,806603
-5,-5,-8,-16,-23,-12,-7,-5,2021-08-07 12:08:01,807603
-1,0,6,22,24,11,5,1,2021-08-07 12:08:01,807603
-3,-5,-6,-9,-10,-7,-4,-1,2021-08-07 12:08:01,807603
1,-1,2,2,1,2,0,0,2021-08-07 12:08:01,848606
4,5,4,5,13,6,4,2,2021-08-07 12:08:01,864603
-2,-1,-2,-8,-8,-2,-2,-3,2021-08-07 12:08:01,880603
0,0,2,4,4,2,0,-1,2021-08-07 12:08:01,880603
-2,-2,-5,-14,-20,-13,-7,-3,2021-08-07 12:08:01,880603
-3,-2,-5,-7,-1,-1,-1,-1,2021-08-07 12:08:01,880603
-1,-2,0,6,-1,0,0,-1,2021-08-07 12:08:01,880603
-2,-1,-1,0,0,1,-1,0,2021-08-07 12:08:01,880603
0,2,0,-2,1,0,0,1,2021-08-07 12:08:01,881605
-2,-1,-2,-1,-6,-3,0,-1,2021-08-07 12:08:01,896604
-3,-2,-2,-1,4,-1,-1,-2,2021-08-07 12:08:01,912602
-5,-6,-7,-7,-14,-7,-4,-5,2021-08-07 12:08:01,912602
-3,-1,-2,0,10,5,2,1,2021-08-07 12:08:01,912602
5,7,7,11,8,4,2,3,2021-08-07 12:08:01,912602
-2,-4,0,5,0,-1,-2,-2,2021-08-07 12:08:01,912602
3,4,-1,-4,-4,-3,0,1,2021-08-07 12:08:01,912602
-1,-2,-3,-4,-5,-4,-3,-2,2021-08-07 12:08:01,912602
-1,-2,-1,-3,-3,-2,-2,-1,2021-08-07 12:08:01,913603
-2,-2,-5,-8,-6,-3,-3,-3,2021-08-07 12:08:01,928603
-2,-1,-1,0,-1,0,-2,-1,2021-08-07 12:08:01,944603
4,2,3,1,-6,-1,1,0,2021-08-07 12:08:01,944603
0,0,5,14,13,6,1,-1,2021-08-07 12:08:01,944603
-2,-1,-6,-15,-15,-7,-3,-3,2021-08-07 12:08:01,944603
-1,0,3,9,11,6,3,-2,2021-08-07 12:08:01,944603
3,4,1,2,5,3,4,2,2021-08-07 12:08:01,960602
-2,-3,-5,-5,-9,-6,-3,-1,2021-08-07 12:08:01,992603
-4,-3,-4,-6,-9,-6,-3,-3,2021-08-07 12:08:02,008604
-5,-6,-9,-15,-11,-7,-3,-4,2021-08-07 12:08:02,008604
5,7,7,10,3,3,5,1,2021-08-07 12:08:02,008604
1,2,4,11,7,3,2,-1,2021-08-07 12:08:02,008604
-1,-2,0,6,6,2,-1,1,2021-08-07 12:08:02,008604
-2,-6,-6,-8,-6,-4,-4,-2,2021-08-07 12:08:02,009604
-1,-2,-1,-3,-6,-3,-2,0,2021-08-07 12:08:02,009604
3,3,2,-1,5,3,2,2,2021-08-07 12:08:02,009604
2,4,7,14,9,5,4,1,2021-08-07 12:08:02,009604
-1,0,-1,-3,-5,-1,-3,1,2021-08-07 12:08:02,009604
-4,-5,-4,-7,-4,-4,-3,-2,2021-08-07 12:08:02,009604
-6,-5,-8,-18,-14,-6,-4,-3,2021-08-07 12:08:02,010602
3,4,9,18,12,6,5,2,2021-08-07 12:08:02,010602
0,0,-2,-4,1,1,0,0,2021-08-07 12:08:02,010602
-2,0,0,6,2,0,-4,-2,2021-08-07 12:08:02,039603
1,-2,-1,5,1,-2,-2,-1,2021-08-07 12:08:02,039603
-4,-5,-9,-16,-13,-9,-6,-2,2021-08-07 12:08:02,039603
-1,0,-1,-4,-1,-2,-2,0,2021-08-07 12:08:02,039603
0,-1,0,7,5,1,2,1,2021-08-07 12:08:02,055601
-3,-4,-6,-8,-8,-3,-1,-2,2021-08-07 12:08:02,071601
2,0,1,-2,3,3,2,0,2021-08-07 12:08:02,087603
-3,-1,-3,-8,3,0,-2,-4,2021-08-07 12:08:02,087603
2,5,8,14,10,3,3,0,2021-08-07 12:08:02,087603
-5,-2,0,0,1,2,-3,-4,2021-08-07 12:08:02,087603
-7,-7,-5,-7,-11,-8,-5,-7,2021-08-07 12:08:02,087603
5,7,4,1,-6,-2,-1,1,2021-08-07 12:08:02,087603
0,0,-3,-10,-4,-2,-1,1,2021-08-07 12:08:02,103603
4,3,1,4,5,3,2,1,2021-08-07 12:08:02,119603
-1,-4,-3,-5,-5,-3,-3,-1,2021-08-07 12:08:02,119603
-1,-3,-2,6,2,1,-1,0,2021-08-07 12:08:02,119603
-2,-5,-5,-6,-5,-3,-2,-2,2021-08-07 12:08:02,119603
-2,-1,0,2,-2,-1,1,-1,2021-08-07 12:08:02,119603
-2,-1,-5,-9,-3,-1,-2,-1,2021-08-07 12:08:02,119603
-3,-4,-4,-3,-2,-3,-1,1,2021-08-07 12:08:02,120604
3,3,10,18,10,6,3,0,2021-08-07 12:08:02,135601
-3,-4,-6,-12,-16,-8,-5,-2,2021-08-07 12:08:02,135601
4,2,1,3,5,1,1,1,2021-08-07 12:08:02,151602
1,2,6,11,12,6,5,1,2021-08-07 12:08:02,167602
-4,-3,-4,-3,-5,-4,-3,-3,2021-08-07 12:08:02,183603
0,2,0,2,7,2,0,-1,2021-08-07 12:08:02,183603
-1,-2,-4,-7,-9,-4,-2,0,2021-08-07 12:08:02,183603
0,0,-2,0,-3,-2,-1,-2,2021-08-07 12:08:02,183603
-6,-7,-9,-10,-7,-5,-6,-5,2021-08-07 12:08:02,183603
1,-1,1,0,-7,-4,-2,-2,2021-08-07 12:08:02,183603
2,5,0,-11,-13,-5,-2,0,2021-08-07 12:08:02,184602
6,4,9,19,28,15,7,5,2021-08-07 12:08:02,184602
1,-2,-4,-3,-2,-1,-2,-2,2021-08-07 12:08:02,199603
-2,-3,-3,-2,-1,-2,-1,-2,2021-08-07 12:08:02,199603
-4,-4,-1,2,6,0,-3,-2,2021-08-07 12:08:02,199603
-1,1,1,1,-6,-4,-2,-1,2021-08-07 12:08:02,199603
-1,2,-1,-7,-7,-1,-1,1,2021-08-07 12:08:02,215604
-1,-2,-3,-4,-2,-2,-2,0,2021-08-07 12:08:02,215604
-3,-2,-1,-4,-6,-2,-4,-3,2021-08-07 12:08:02,215604
1,1,3,10,16,7,3,1,2021-08-07 12:08:02,215604
-1,-1,-1,4,1,-1,1,0,2021-08-07 12:08:02,231603
0,-1,-1,-2,1,1,0,0,2021-08-07 12:08:02,247603
2,2,4,8,4,2,2,1,2021-08-07 12:08:02,247603
-5,-3,-6,-13,-13,-7,-5,-3,2021-08-07 12:08:02,247603
-1,0,-1,-3,-1,0,-2,-2,2021-08-07 12:08:02,247603
-1,0,0,-2,-1,-1,0,-1,2021-08-07 12:08:02,247603
0,-4,-4,0,-1,-2,0,-1,2021-08-07 12:08:02,248604
2,3,1,-5,-8,-3,0,0,2021-08-07 12:08:02,248604
2,1,1,2,8,5,3,1,2021-08-07 12:08:02,279603
-2,-2,-1,1,2,1,0,-2,2021-08-07 12:08:02,279603
-3,-2,0,1,2,0,-2,-2,2021-08-07 12:08:02,279603
-1,-2,-6,-12,-12,-8,-3,0,2021-08-07 12:08:02,279603
2,1,-1,-9,-9,-2,-1,0,2021-08-07 12:08:02,294603
3,5,6,14,11,6,3,3,2021-08-07 12:08:02,310602
-3,-4,-5,-2,-2,-3,-3,-3,2021-08-07 12:08:02,310602
-4,-6,-4,-8,-16,-10,-6,-3,2021-08-07 12:08:02,310602
2,1,3,4,17,7,4,3,2021-08-07 12:08:02,310602
-1,-2,0,1,1,0,-1,-1,2021-08-07 12:08:02,310602
1,1,-1,-1,0,3,1,1,2021-08-07 12:08:02,310602
-5,-3,-3,0,-2,0,-2,-3,2021-08-07 12:08:02,310602
-2,-2,-4,-7,-9,-5,-3,0,2021-08-07 12:08:02,341603
0,-1,0,0,0,-2,-1,-1,2021-08-07 12:08:02,357604
-1,1,0,3,2,0,-1,0,2021-08-07 12:08:02,357604
0,-1,-1,-1,-2,-1,-1,-2,2021-08-07 12:08:02,357604
-5,-4,-3,-2,-4,-4,-1,-3,2021-08-07 12:08:02,357604
-1,0,1,-2,2,-1,1,0,2021-08-07 12:08:02,357604
-2,-1,-1,-2,-4,-3,-2,-2,2021-08-07 12:08:02,357604
0,1,2,5,4,1,0,1,2021-08-07 12:08:02,358603
-2,-2,-4,-7,-9,-6,-3,-3,2021-08-07 12:08:02,373603
-3,-4,-5,-4,-4,-4,-3,-2,2021-08-07 12:08:02,373603
0,1,1,7,8,2,2,1,2021-08-07 12:08:02,373603
1,1,2,2,5,4,1,3,2021-08-07 12:08:02,373603
1,1,0,2,-2,-1,1,-1,2021-08-07 12:08:02,405603
0,-2,-4,-5,-6,-3,-3,-2,2021-08-07 12:08:02,421603
-1,0,-1,-3,0,-3,-3,-2,2021-08-07 12:08:02,421603
-5,-5,-4,-1,0,-3,-2,-2,2021-08-07 12:08:02,421603
0,0,-3,-7,-10,-5,-1,1,2021-08-07 12:08:02,421603
-1,-1,0,1,4,1,1,-1,2021-08-07 12:08:02,421603
-1,0,-2,-7,-6,-3,-2,-1,2021-08-07 12:08:02,421603
-2,-3,-2,0,2,1,-2,-3,2021-08-07 12:08:02,422603
1,2,0,2,-1,0,0,1,2021-08-07 12:08:02,437603
3,2,4,11,15,8,2,1,2021-08-07 12:08:02,453601
1,-1,0,2,1,-1,0,-1,2021-08-07 12:08:02,453601
0,0,1,-1,-9,-5,0,-2,2021-08-07 12:08:02,453601
-3,-5,-4,-4,-4,-2,-2,-4,2021-08-07 12:08:02,453601
2,1,2,2,1,1,1,1,2021-08-07 12:08:02,453601
0,-2,-1,-7,-3,0,-1,0,2021-08-07 12:08:02,453601
-1,0,1,2,-2,-3,-1,0,2021-08-07 12:08:02,454602
-6,-5,-3,-2,-2,-2,-4,-4,2021-08-07 12:08:02,469604
3,3,1,-3,-7,-3,0,4,2021-08-07 12:08:02,469604
2,0,-1,1,4,2,1,-1,2021-08-07 12:08:02,469604
3,4,6,12,9,4,3,0,2021-08-07 12:08:02,469604
-1,-1,0,4,8,3,1,-1,2021-08-07 12:08:02,501603
-5,-5,-5,-7,-7,-6,-3,-4,2021-08-07 12:08:02,501603
-5,-5,-5,-5,-10,-6,-7,-3,2021-08-07 12:08:02,501603
5,5,0,-6,-2,0,1,4,2021-08-07 12:08:02,501603
3,4,5,1,4,3,1,0,2021-08-07 12:08:02,517602
-2,-3,0,4,3,1,-1,-3,2021-08-07 12:08:02,517602
-2,-2,-3,-4,-4,-3,-2,-3,2021-08-07 12:08:02,517602
-1,-1,-3,1,5,0,1,0,2021-08-07 12:08:02,517602
-1,-1,-1,-3,-8,-3,-2,0,2021-08-07 12:08:02,533603
-2,-2,-5,-5,-1,-3,-1,-2,2021-08-07 12:08:02,533603
-3,-6,-6,-7,-3,-1,-1,-3,2021-08-07 12:08:02,533603
1,-1,3,7,3,1,1,-2,2021-08-07 12:08:02,533603
1,1,2,4,3,1,1,1,2021-08-07 12:08:02,565603
-2,-1,0,-2,-5,-2,-2,-2,2021-08-07 12:08:02,565603
-5,-6,-6,-14,-15,-9,-3,-4,2021-08-07 12:08:02,581602
2,3,2,9,8,4,0,0,2021-08-07 12:08:02,597605
1,5,6,5,6,4,3,4,2021-08-07 12:08:02,629603
0,-2,-3,-1,9,4,1,0,2021-08-07 12:08:02,629603
0,0,1,7,4,2,-2,-2,2021-08-07 12:08:02,629603
-1,-3,-4,-12,-15,-7,-3,-2,2021-08-07 12:08:02,629603
0,-1,-2,4,9,4,0,-1,2021-08-07 12:08:02,629603
-3,-4,-2,-5,-8,-4,-3,-1,2021-08-07 12:08:02,629603
0,1,3,2,-2,-2,0,-1,2021-08-07 12:08:02,630603
2,0,0,-3,-2,0,0,0,2021-08-07 12:08:02,630603
-2,-6,-5,-3,1,-2,-2,-3,2021-08-07 12:08:02,630603
0,1,1,-1,-3,-2,0,0,2021-08-07 12:08:02,630603
-1,2,2,3,0,0,0,1,2021-08-07 12:08:02,630603
-2,-3,-4,-3,0,-1,-1,-1,2021-08-07 12:08:02,630603
-2,-4,-3,-7,-6,-4,-3,-2,2021-08-07 12:08:02,630603
0,0,-1,-2,0,-2,-2,-1,2021-08-07 12:08:02,630603
-1,0,1,7,10,5,3,1,2021-08-07 12:08:02,631604
1,1,2,6,4,3,1,0,2021-08-07 12:08:02,631604
-1,0,-4,-8,-10,-5,-2,-1,2021-08-07 12:08:02,661604
-3,-3,-2,1,0,-1,-3,-1,2021-08-07 12:08:02,677603
-1,-2,-2,-8,-7,-3,-1,0,2021-08-07 12:08:02,677603
-3,-2,0,5,8,1,1,-2,2021-08-07 12:08:02,677603
1,1,1,1,-3,-1,-1,-1,2021-08-07 12:08:02,677603
0,1,0,1,-1,-1,1,-1,2021-08-07 12:08:02,677603
-1,1,-2,2,3,1,-1,0,2021-08-07 12:08:02,678604
-1,-3,-3,-7,-4,-2,-2,0,2021-08-07 12:08:02,678604
-5,-3,-4,-6,-9,-4,-2,-4,2021-08-07 12:08:02,708603
0,-1,-4,-6,-5,-2,-3,-1,2021-08-07 12:08:02,716602
4,2,4,3,2,0,2,1,2021-08-07 12:08:02,716602
0,-2,2,3,11,5,2,-1,2021-08-07 12:08:02,716602
-1,-1,-1,1,-2,-1,0,1,2021-08-07 12:08:02,724603
-1,-3,-2,0,1,0,-1,-2,2021-08-07 12:08:02,724603
-4,-6,-2,-2,-3,-3,-5,-3,2021-08-07 12:08:02,724603
2,4,-3,-12,-12,-4,-1,3,2021-08-07 12:08:02,724603
0,0,-1,-2,2,0,0,-1,2021-08-07 12:08:02,740602
-1,0,2,10,19,9,3,0,2021-08-07 12:08:02,740602
0,2,1,11,7,4,3,2,2021-08-07 12:08:02,740602
-3,-4,-5,-3,-6,-2,-3,-2,2021-08-07 12:08:02,740602
-3,-4,-3,-7,-8,-4,-1,-1,2021-08-07 12:08:02,755603
0,1,-3,-9,-13,-7,-3,-4,2021-08-07 12:08:02,755603
2,0,1,11,8,2,0,-2,2021-08-07 12:08:02,755603
0,0,0,-2,-1,-1,0,0,2021-08-07 12:08:02,755603
-1,1,0,0,2,2,0,0,2021-08-07 12:08:02,771601
-2,-2,-1,-3,-4,-1,-1,-2,2021-08-07 12:08:02,787602
0,0,-4,-10,-8,-3,-1,-2,2021-08-07 12:08:02,802603
-1,-2,-1,-1,-1,-1,1,-1,2021-08-07 12:08:02,802603
-2,-1,-1,0,1,-1,-1,-1,2021-08-07 12:08:02,802603
2,1,1,-3,-8,-3,0,1,2021-08-07 12:08:02,802603
-2,-1,0,2,3,2,0,2,2021-08-07 12:08:02,802603
0,0,1,3,0,0,1,-1,2021-08-07 12:08:02,803603
2,6,3,2,1,2,1,0,2021-08-07 12:08:02,818602
-1,-2,-3,-2,-3,-5,-1,-2,2021-08-07 12:08:02,834602
-1,-1,1,0,-5,-4,0,-2,2021-08-07 12:08:02,834602
-3,-3,-5,-6,-4,-2,-3,-2,2021-08-07 12:08:02,834602
-1,-2,3,15,12,5,1,0,2021-08-07 12:08:02,834602
2,4,1,-1,-6,0,2,3,2021-08-07 12:08:02,834602
-1,-1,-1,-1,2,1,1,0,2021-08-07 12:08:02,834602
-4,-3,-5,-11,-13,-8,-4,-4,2021-08-07 12:08:02,834602
2,2,-1,1,8,3,0,0,2021-08-07 12:08:02,850604
-3,-2,-3,1,-1,0,-1,0,2021-08-07 12:08:02,850604
-2,-5,-6,-9,-6,-2,-1,0,2021-08-07 12:08:02,850604
0,-1,-2,1,1,1,0,0,2021-08-07 12:08:02,850604
1,-1,0,-3,-3,0,1,0,2021-08-07 12:08:02,882603
-3,-2,1,1,0,0,-3,-3,2021-08-07 12:08:02,898602
-3,-2,0,-4,-7,-4,-5,-3,2021-08-07 12:08:02,898602
-2,2,3,9,12,4,0,-2,2021-08-07 12:08:02,898602
-1,-1,2,2,0,-1,-4,0,2021-08-07 12:08:02,898602
-2,0,-3,-2,1,0,-1,-1,2021-08-07 12:08:02,899604
3,4,0,3,2,1,2,0,2021-08-07 12:08:02,899604
-1,-2,-3,-6,-8,-6,-3,0,2021-08-07 12:08:02,899604
0,-3,-3,-6,-5,-4,0,-2,2021-08-07 12:08:02,914603
-1,1,1,5,1,1,0,2,2021-08-07 12:08:02,914603
-2,-3,-5,-5,-3,-2,-2,-1,2021-08-07 12:08:02,914603
-1,0,1,-2,-4,-3,-4,-2,2021-08-07 12:08:02,914603
2,1,2,5,6,4,3,2,2021-08-07 12:08:02,946603
3,0,1,-1,4,3,0,0,2021-08-07 12:08:02,946603
1,1,3,10,10,6,2,1,2021-08-07 12:08:02,946603
0,0,0,3,-3,-1,0,-1,2021-08-07 12:08:02,946603
-3,-4,-4,-6,-5,-4,-2,-3,2021-08-07 12:08:02,962603
-1,-2,-3,-8,-8,-7,-2,0,2021-08-07 12:08:02,962603
0,0,-4,-8,-7,-2,-2,-1,2021-08-07 12:08:02,962603
1,3,6,12,14,7,2,2,2021-08-07 12:08:02,962603
-2,-2,1,2,2,-1,0,-2,2021-08-07 12:08:02,978604
-3,-3,-1,-3,-1,-1,-1,-2,2021-08-07 12:08:02,994605
-1,-3,-3,-2,-3,-2,-2,-3,2021-08-07 12:08:03,010603
3,0,0,-4,-5,-1,1,2,2021-08-07 12:08:03,026602
2,4,3,1,-1,0,-1,1,2021-08-07 12:08:03,042603
-2,-3,0,1,0,1,-2,-2,2021-08-07 12:08:03,042603
-5,-9,-9,-12,-10,-8,-4,-4,2021-08-07 12:08:03,042603
3,3,0,1,1,0,1,2,2021-08-07 12:08:03,042603
0,0,-2,-2,-1,0,-1,0,2021-08-07 12:08:03,042603
0,-1,1,2,2,0,0,-1,2021-08-07 12:08:03,043603
-1,-1,-3,-4,-5,-1,-1,-2,2021-08-07 12:08:03,043603
-4,-5,-7,-7,0,0,0,0,2021-08-07 12:08:03,043603
-2,-2,0,3,-2,-3,0,-1,2021-08-07 12:08:03,043603
1,2,3,9,10,4,2,2,2021-08-07 12:08:03,043603
-1,1,3,1,1,-2,-2,-1,2021-08-07 12:08:03,043603
0,-3,-3,-5,-10,-6,-2,-1,2021-08-07 12:08:03,043603
1,1,0,2,12,6,1,-1,2021-08-07 12:08:03,058603
-2,-5,-6,-5,-4,-3,-2,0,2021-08-07 12:08:03,058603
-2,0,1,1,-1,-3,-1,0,2021-08-07 12:08:03,058603
-2,-2,-2,-4,-6,-2,-3,-3,2021-08-07 12:08:03,058603
-1,0,-2,-6,-5,-1,-1,0,2021-08-07 12:08:03,090601
-1,-2,-3,0,2,1,-2,-3,2021-08-07 12:08:03,106602
-2,0,0,-1,-2,-1,0,0,2021-08-07 12:08:03,106602
-2,1,0,-4,-4,-2,-1,-1,2021-08-07 12:08:03,106602
-2,-3,0,11,9,4,1,0,2021-08-07 12:08:03,107604
-2,-4,-6,-8,-10,-8,-4,-3,2021-08-07 12:08:03,107604
2,4,0,-6,-5,-2,-1,3,2021-08-07 12:08:03,107604
3,3,7,11,11,6,3,1,2021-08-07 12:08:03,107604
-2,-4,-5,-8,-11,-5,-4,-4,2021-08-07 12:08:03,121603
-1,0,2,1,3,3,1,0,2021-08-07 12:08:03,137601
0,-1,-2,-1,0,-1,0,0,2021-08-07 12:08:03,137601
-3,-3,-1,-3,0,-2,-2,-1,2021-08-07 12:08:03,137601
-1,-3,-4,-7,-5,-3,-3,0,2021-08-07 12:08:03,137601
-2,-1,-2,-1,-3,-2,-2,-3,2021-08-07 12:08:03,137601
-1,1,1,0,0,0,-1,-1,2021-08-07 12:08:03,137601
3,6,5,4,0,3,1,3,2021-08-07 12:08:03,137601
-1,-2,1,9,12,7,2,2,2021-08-07 12:08:03,153603
-8,-10,-12,-15,-9,-8,-4,-4,2021-08-07 12:08:03,153603
4,6,7,7,4,3,2,2,2021-08-07 12:08:03,153603
-2,0,-1,0,0,-1,-1,-1,2021-08-07 12:08:03,153603
-2,1,-1,-5,-10,-6,-3,-1,2021-08-07 12:08:03,185602
-2,-1,-1,-7,-7,-3,-4,-3,2021-08-07 12:08:03,185602
-1,-2,-1,-1,-1,-2,0,0,2021-08-07 12:08:03,185602
-1,-1,1,10,11,4,3,-1,2021-08-07 12:08:03,185602
-1,1,0,-1,2,2,1,1,2021-08-07 12:08:03,201602
-2,1,-2,-1,-5,-4,-1,0,2021-08-07 12:08:03,217601
0,-2,-1,5,5,3,0,-1,2021-08-07 12:08:03,233603
1,0,-1,-8,-4,-2,0,-1,2021-08-07 12:08:03,233603
-2,-1,-3,-2,-5,-5,-2,-3,2021-08-07 12:08:03,233603
0,1,-1,-3,-4,-2,-1,0,2021-08-07 12:08:03,233603
-1,-4,-4,-7,-11,-7,-4,0,2021-08-07 12:08:03,233603
-3,-4,-6,-5,3,3,0,0,2021-08-07 12:08:03,233603
0,0,4,8,12,6,0,-1,2021-08-07 12:08:03,234604
-1,-1,1,0,0,0,-3,-1,2021-08-07 12:08:03,234604
0,2,-1,1,-1,2,-1,-2,2021-08-07 12:08:03,234604
-3,-3,-3,-1,-1,-2,-2,-2,2021-08-07 12:08:03,234604
0,-1,-3,-7,-11,-5,-3,0,2021-08-07 12:08:03,265604
1,0,1,1,0,3,0,1,2021-08-07 12:08:03,281603
-1,-3,-2,0,4,3,-1,-1,2021-08-07 12:08:03,297603
-3,-2,-1,-1,-3,-3,-2,-3,2021-08-07 12:08:03,297603
-4,-4,-6,-14,-17,-11,-5,-4,2021-08-07 12:08:03,297603
1,4,4,3,4,1,2,2,2021-08-07 12:08:03,297603
0,2,2,8,16,8,5,1,2021-08-07 12:08:03,297603
-2,-1,-2,1,-1,-2,-2,-2,2021-08-07 12:08:03,297603
-1,-2,-2,-4,-8,-4,0,-1,2021-08-07 12:08:03,298602
-1,-3,-3,-4,-3,-2,-1,-3,2021-08-07 12:08:03,298602
0,0,-1,-5,-6,-2,-2,-1,2021-08-07 12:08:03,298602
-2,-2,-3,-5,-11,-6,-2,-2,2021-08-07 12:08:03,298602
-3,-3,-3,-2,-2,0,-2,-2,2021-08-07 12:08:03,328605
2,2,-2,-1,6,1,2,2,2021-08-07 12:08:03,344603
1,0,7,14,11,6,4,1,2021-08-07 12:08:03,344603
0,-1,0,-2,-3,-1,-3,-1,2021-08-07 12:08:03,344603
-1,-2,-3,-7,-11,-6,-3,-3,2021-08-07 12:08:03,344603
-1,0,-1,2,4,3,-1,0,2021-08-07 12:08:03,344603
-3,-2,-3,-2,-2,0,-2,-1,2021-08-07 12:08:03,344603
-4,-3,-5,-11,-9,-5,-3,-3,2021-08-07 12:08:03,345604
4,4,5,8,10,5,2,3,2021-08-07 12:08:03,360603
1,-1,2,8,5,2,2,-1,2021-08-07 12:08:03,376602
-7,-6,-7,-8,-10,-7,-5,-3,2021-08-07 12:08:03,392602
-3,-2,-2,-5,-1,-3,0,0,2021-08-07 12:08:03,408602
0,1,0,-2,0,0,0,0,2021-08-07 12:08:03,423604
2,-1,2,1,-3,-1,0,0,2021-08-07 12:08:03,423604
0,-1,0,0,3,1,-1,-1,2021-08-07 12:08:03,423604
-1,-2,0,6,0,0,-2,-1,2021-08-07 12:08:03,423604
-3,-4,-3,3,6,2,0,0,2021-08-07 12:08:03,423604
-3,-2,-5,-10,-14,-6,-4,-3,2021-08-07 12:08:03,423604
0,1,-1,-5,-5,-1,1,1,2021-08-07 12:08:03,424602
5,4,6,13,7,4,2,2,2021-08-07 12:08:03,424602
0,-1,1,5,0,-1,0,0,2021-08-07 12:08:03,424602
-6,-7,-5,-6,-7,-3,-4,-5,2021-08-07 12:08:03,424602
-2,-2,-6,-11,-7,-6,-2,-3,2021-08-07 12:08:03,424602
3,3,0,-2,1,1,3,0,2021-08-07 12:08:03,424602
-1,-4,-4,-7,-9,-3,-1,-3,2021-08-07 12:08:03,438603
2,2,4,11,9,4,2,1,2021-08-07 12:08:03,454601
-3,-3,-2,0,4,1,-2,-2,2021-08-07 12:08:03,454601
-1,-3,-3,-3,-3,-2,-1,0,2021-08-07 12:08:03,454601
-2,-2,-3,-5,-4,-2,-2,-2,2021-08-07 12:08:03,454601
1,0,1,2,5,4,2,0,2021-08-07 12:08:03,454601
-3,-2,-3,-2,-7,-5,-2,-1,2021-08-07 12:08:03,454601
-1,0,-1,-3,-3,-3,-3,-1,2021-08-07 12:08:03,455603
1,0,0,-1,2,3,0,-2,2021-08-07 12:08:03,486604
0,2,6,17,21,10,5,1,2021-08-07 12:08:03,486604
-1,0,0,5,4,3,1,-1,2021-08-07 12:08:03,486604
-2,-3,-3,-6,-8,-5,-2,-2,2021-08-07 12:08:03,486604
-1,-1,-2,-4,-4,-4,-1,0,2021-08-07 12:08:03,502602
-3,-4,-5,-12,-16,-11,-7,-5,2021-08-07 12:08:03,502602
-2,-4,-2,-3,-1,-3,-1,-2,2021-08-07 12:08:03,502602
3,5,6,10,15,8,4,3,2021-08-07 12:08:03,502602
-1,-2,0,-1,1,0,0,-2,2021-08-07 12:08:03,518602
2,0,0,-1,-4,-2,-1,0,2021-08-07 12:08:03,534603
0,3,0,-11,-14,-7,-3,-1,2021-08-07 12:08:03,549603
-3,-5,-9,-9,-5,-3,-3,-3,2021-08-07 12:08:03,564603
4,2,6,15,16,8,5,3,2021-08-07 12:08:03,580604
-1,-2,0,3,0,-1,0,0,2021-08-07 12:08:03,580604
-2,-4,-4,-5,-4,-4,-3,-3,2021-08-07 12:08:03,580604
-1,-2,-2,0,0,0,-1,-2,2021-08-07 12:08:03,580604
0,2,1,-4,-4,-2,-1,-1,2021-08-07 12:08:03,580604
-1,-1,1,5,1,-1,-1,-1,2021-08-07 12:08:03,581603
4,2,2,2,1,3,0,3,2021-08-07 12:08:03,581603
-2,-2,-2,-1,-2,0,0,-1,2021-08-07 12:08:03,596601
-2,-1,-3,-4,-3,-2,-2,-2,2021-08-07 12:08:03,596601
-1,-1,-1,-3,1,0,1,-1,2021-08-07 12:08:03,596601
0,0,-1,0,4,2,1,0,2021-08-07 12:08:03,596601
-3,-5,-3,-7,-3,-3,-4,-4,2021-08-07 12:08:03,596601
-1,1,6,18,11,5,3,1,2021-08-07 12:08:03,597603
-1,-1,-2,-8,-8,-3,-3,-2,2021-08-07 12:08:03,597603
0,-2,-2,-2,-3,-1,1,-3,2021-08-07 12:08:03,597603
0,1,0,-1,-4,-2,1,0,2021-08-07 12:08:03,597603
-3,-3,-4,-8,-5,-3,-2,-3,2021-08-07 12:08:03,622602
1,1,1,1,1,0,1,1,2021-08-07 12:08:03,622602
1,1,2,5,4,2,1,0,2021-08-07 12:08:03,622602
-1,-2,-1,2,2,1,0,0,2021-08-07 12:08:03,622602
-2,0,-2,-2,-2,-4,-2,-2,2021-08-07 12:08:03,644603
-2,-4,-4,-5,-8,-5,-3,-1,2021-08-07 12:08:03,644603
-3,-4,-3,-2,-3,-3,-3,-2,2021-08-07 12:08:03,644603
4,5,6,6,3,4,2,2,2021-08-07 12:08:03,644603
-1,-1,-2,-4,-1,-1,-1,0,2021-08-07 12:08:03,660603
-3,-2,-1,-4,-5,-3,-2,-3,2021-08-07 12:08:03,660603
1,0,1,0,1,1,-1,-1,2021-08-07 12:08:03,660603
-1,0,0,1,3,1,-2,0,2021-08-07 12:08:03,660603
0,0,0,-1,-1,-1,-2,-1,2021-08-07 12:08:03,691603
-1,-1,-2,-3,-1,-1,-2,-1,2021-08-07 12:08:03,707604
-1,-1,0,-1,-2,-3,-1,-1,2021-08-07 12:08:03,723601
0,-2,0,-3,-4,-1,-1,-1,2021-08-07 12:08:03,723601
-1,-4,-4,-5,-3,-2,0,0,2021-08-07 12:08:03,723601
1,0,0,0,1,1,1,3,2021-08-07 12:08:03,723601
-1,0,0,5,4,3,2,-1,2021-08-07 12:08:03,723601
-2,-3,0,0,0,1,0,-1,2021-08-07 12:08:03,724603
-4,-3,0,1,-2,-1,-2,-4,2021-08-07 12:08:03,724603
-5,-3,-5,-6,-4,-2,-4,-6,2021-08-07 12:08:03,724603
1,2,3,6,3,0,-1,1,2021-08-07 12:08:03,724603
0,1,0,2,0,-3,-1,-1,2021-08-07 12:08:03,724603
-1,-1,-3,-3,-3,-2,-2,0,2021-08-07 12:08:03,738601
4,3,1,-2,-2,-1,-1,1,2021-08-07 12:08:03,738601
0,-1,-2,-3,-2,-1,0,1,2021-08-07 12:08:03,738601
1,1,-2,-2,1,0,-1,1,2021-08-07 12:08:03,738601
-1,-2,-1,1,0,0,-1,-2,2021-08-07 12:08:03,754602
-3,-5,-4,-1,0,-2,-1,-1,2021-08-07 12:08:03,770604
-1,0,-4,-7,-2,-1,0,0,2021-08-07 12:08:03,770604
-2,0,2,1,-1,-1,0,-3,2021-08-07 12:08:03,770604
0,2,-2,-5,-1,-1,-1,-1,2021-08-07 12:08:03,770604
-1,0,2,5,5,0,0,0,2021-08-07 12:08:03,770604
-1,-1,2,1,-4,-3,-2,-2,2021-08-07 12:08:03,770604
-3,-5,-3,-4,-9,-4,-1,1,2021-08-07 12:08:03,771604
3,0,1,8,13,4,0,-1,2021-08-07 12:08:03,802602
1,4,5,8,2,2,3,1,2021-08-07 12:08:03,802602
0,0,-2,-2,0,-1,1,1,2021-08-07 12:08:03,802602
-1,-2,0,2,6,2,0,-1,2021-08-07 12:08:03,802602
-4,-3,-6,-13,-20,-10,-4,-2,2021-08-07 12:08:03,818604
1,1,-1,-5,1,0,-1,2,2021-08-07 12:08:03,818604
2,0,3,9,7,2,0,-1,2021-08-07 12:08:03,818604
-3,-2,-4,-6,-6,-4,-3,-3,2021-08-07 12:08:03,818604
0,-2,0,1,1,1,0,-1,2021-08-07 12:08:03,850602
-4,-4,-5,-9,-7,-4,-3,-5,2021-08-07 12:08:03,866602
-4,-5,-4,-7,-7,-3,-2,-1,2021-08-07 12:08:03,866602
2,3,2,3,4,1,1,2,2021-08-07 12:08:03,866602
-1,1,3,2,0,0,0,0,2021-08-07 12:08:03,866602
-3,-3,-5,-13,-13,-6,-3,-2,2021-08-07 12:08:03,866602
1,2,4,14,14,7,1,0,2021-08-07 12:08:03,866602
-2,-2,-1,-1,3,2,-1,-1,2021-08-07 12:08:03,867603
-1,-2,-2,-5,-3,-2,-1,-1,2021-08-07 12:08:03,882603
1,2,1,4,-3,-3,-2,-2,2021-08-07 12:08:03,898603
-4,-4,-5,-10,-5,-3,0,-2,2021-08-07 12:08:03,898603
0,0,-1,-2,-3,-4,1,1,2021-08-07 12:08:03,914604
2,2,6,19,18,9,5,3,2021-08-07 12:08:03,930604
-4,-4,-2,4,2,-2,-2,-2,2021-08-07 12:08:03,945603
0,-1,-1,-1,-2,-1,-3,-2,2021-08-07 12:08:03,945603
-2,-3,-3,-7,-9,-6,-4,-3,2021-08-07 12:08:03,945603
2,3,3,3,4,1,0,0,2021-08-07 12:08:03,945603
-1,-1,-3,-2,0,0,0,-1,2021-08-07 12:08:03,945603
0,1,0,3,3,1,0,0,2021-08-07 12:08:03,946603
0,1,1,2,1,1,-1,0,2021-08-07 12:08:03,946603
-5,-4,-4,-7,-10,-7,-3,-3,2021-08-07 12:08:03,961603
-3,-4,-4,-3,-3,-3,-1,-1,2021-08-07 12:08:03,961603
-2,-1,-5,-8,-5,-2,-1,1,2021-08-07 12:08:03,961603
-1,-1,-2,-7,-6,-3,-1,-1,2021-08-07 12:08:03,961603
2,0,2,10,11,5,2,0,2021-08-07 12:08:03,961603
3,4,6,12,9,4,3,3,2021-08-07 12:08:03,961603
-1,-2,0,-2,-5,-2,0,-1,2021-08-07 12:08:03,961603
-4,-4,-6,-3,0,-1,-2,-2,2021-08-07 12:08:03,962604
-2,0,-1,-7,-14,-8,-4,-2,2021-08-07 12:08:03,977601
2,-1,5,14,15,9,4,2,2021-08-07 12:08:03,977601
0,2,2,-2,-1,0,-1,0,2021-08-07 12:08:03,977601
-1,-1,0,3,1,0,1,-3,2021-08-07 12:08:03,977601
-4,-4,-9,-18,-18,-7,-6,-3,2021-08-07 12:08:04,009603
-4,-4,-6,-12,-16,-11,-5,-4,2021-08-07 12:08:04,025602
3,4,5,16,24,12,6,4,2021-08-07 12:08:04,041603
1,0,1,3,2,-1,-1,0,2021-08-07 12:08:04,041603
-2,-2,-3,-2,5,3,1,-2,2021-08-07 12:08:04,041603
-5,-7,-3,-3,-7,-5,-6,-3,2021-08-07 12:08:04,041603
-1,-2,-4,-11,-11,-7,-2,-2,2021-08-07 12:08:04,041603
4,5,3,0,-2,1,4,3,2021-08-07 12:08:04,041603
5,4,4,2,8,3,3,2,2021-08-07 12:08:04,042604
1,0,-2,-3,3,1,1,1,2021-08-07 12:08:04,042604
-4,-3,-3,-3,-5,-2,-3,-3,2021-08-07 12:08:04,042604
-7,-7,-4,-1,-2,-3,-5,-4,2021-08-07 12:08:04,042604
0,2,2,4,1,0,0,0,2021-08-07 12:08:04,073601
0,1,-1,-3,-6,-2,0,1,2021-08-07 12:08:04,073601
-3,-5,-8,-15,-12,-8,-5,-3,2021-08-07 12:08:04,073601
1,2,7,13,5,3,1,2,2021-08-07 12:08:04,073601
0,0,-1,1,-6,0,-2,-2,2021-08-07 12:08:04,073601
-1,-2,-7,-15,-7,-4,-3,-1,2021-08-07 12:08:04,074603
1,2,8,19,18,10,4,0,2021-08-07 12:08:04,076603
-2,-3,-4,-1,2,1,1,-2,2021-08-07 12:08:04,076603
-4,-3,-6,-5,-2,-2,-2,-1,2021-08-07 12:08:04,105602
-2,0,1,0,0,-1,-1,-2,2021-08-07 12:08:04,121604
-2,0,-3,-6,-8,-3,-3,-1,2021-08-07 12:08:04,121604
2,4,5,6,7,3,3,1,2021-08-07 12:08:04,121604
-3,-1,-3,-3,-5,-3,-2,-1,2021-08-07 12:08:04,121604
-2,-5,-4,-3,-6,-2,-3,-2,2021-08-07 12:08:04,121604
-2,-4,-3,-5,-10,-6,-4,-2,2021-08-07 12:08:04,121604
1,1,1,-2,-5,0,-2,1,2021-08-07 12:08:04,121604
-1,-1,1,7,9,1,-1,-1,2021-08-07 12:08:04,137604
-1,-1,-2,-7,1,2,2,0,2021-08-07 12:08:04,137604
-1,0,4,8,0,-1,-1,0,2021-08-07 12:08:04,137604
-5,-7,-13,-32,-25,-11,-6,-5,2021-08-07 12:08:04,137604
6,9,20,41,31,13,7,5,2021-08-07 12:08:04,169603
0,-1,-1,2,-1,-2,-4,-1,2021-08-07 12:08:04,185601
-2,-4,-6,-9,-8,-7,-3,-3,2021-08-07 12:08:04,201603
-1,-1,-7,-9,-4,-1,0,1,2021-08-07 12:08:04,201603
1,0,-1,-10,-11,-4,-4,0,2021-08-07 12:08:04,201603
2,-1,4,13,10,3,0,0,2021-08-07 12:08:04,201603
-6,-7,-7,-9,-7,-5,-4,-4,2021-08-07 12:08:04,201603
1,0,4,11,10,5,1,2,2021-08-07 12:08:04,201603
-1,-4,-2,-8,-13,-6,0,-1,2021-08-07 12:08:04,201603
1,2,3,3,5,4,2,1,2021-08-07 12:08:04,202602
-4,-5,-4,-3,-7,-5,-2,-1,2021-08-07 12:08:04,217603
0,0,1,0,3,-1,-1,1,2021-08-07 12:08:04,217603
-2,-3,-5,-11,-12,-7,-4,-1,2021-08-07 12:08:04,217603
-2,0,0,0,4,3,1,-1,2021-08-07 12:08:04,217603
2,4,4,3,3,3,2,2,2021-08-07 12:08:04,217603
-4,-4,-2,6,8,4,-1,-4,2021-08-07 12:08:04,217603
0,-3,-6,-19,-27,-11,-4,0,2021-08-07 12:08:04,248601
3,4,6,21,19,9,3,1,2021-08-07 12:08:04,248601
0,-5,-4,-3,3,1,1,-1,2021-08-07 12:08:04,248601
7,9,7,5,4,4,3,5,2021-08-07 12:08:04,248601
-8,-8,-7,-12,-15,-8,-7,-7,2021-08-07 12:08:04,249603
-4,-3,-10,-22,-15,-10,-4,-3,2021-08-07 12:08:04,249603
4,7,7,19,20,8,3,3,2021-08-07 12:08:04,264603
-3,-4,3,13,8,2,0,-3,2021-08-07 12:08:04,280603
-3,-3,-4,-3,-2,0,-2,0,2021-08-07 12:08:04,295603
-2,-2,-9,-22,-27,-11,-4,-2,2021-08-07 12:08:04,311602
1,2,2,9,18,10,3,2,2021-08-07 12:08:04,311602
1,1,1,0,1,-2,0,-1,2021-08-07 12:08:04,311602
-1,0,-3,0,6,1,3,0,2021-08-07 12:08:04,311602
0,-1,-1,1,-2,-4,0,-3,2021-08-07 12:08:04,311602
-2,-2,-7,-20,-24,-10,-5,-3,2021-08-07 12:08:04,311602
-1,-1,-4,1,4,0,-1,0,2021-08-07 12:08:04,312604
-1,-2,-2,0,3,0,-1,0,2021-08-07 12:08:04,327602
-2,-1,1,0,-2,0,-1,-2,2021-08-07 12:08:04,343602
-2,-5,-4,-11,-13,-7,-4,-3,2021-08-07 12:08:04,358601
1,0,3,3,-2,1,-1,0,2021-08-07 12:08:04,358601
2,4,3,10,18,9,3,1,2021-08-07 12:08:04,358601
0,3,8,5,0,0,0,0,2021-08-07 12:08:04,374603
1,-1,-6,-11,-12,-3,0,1,2021-08-07 12:08:04,390638
0,0,8,32,36,17,7,3,2021-08-07 12:08:04,390638
-6,-8,-6,-2,-5,-6,-6,-6,2021-08-07 12:08:04,390638
2,0,-2,6,19,8,3,2,2021-08-07 12:08:04,390638
-1,2,-2,-21,-31,-15,-7,-4,2021-08-07 12:08:04,390638
-4,-7,-13,-24,-35,-17,-9,-5,2021-08-07 12:08:04,391638
-1,-2,-4,-20,-14,-6,-4,-1,2021-08-07 12:08:04,391638
-3,-2,5,21,29,9,2,-1,2021-08-07 12:08:04,391638
5,6,14,38,57,31,16,6,2021-08-07 12:08:04,391638
2,2,1,1,-9,-5,-3,-1,2021-08-07 12:08:04,391638
-5,-4,-11,-24,-24,-10,-7,-5,2021-08-07 12:08:04,391638
-3,-3,-3,-8,-26,-12,-7,-5,2021-08-07 12:08:04,392639
0,0,0,7,-3,-3,-2,-1,2021-08-07 12:08:04,406637
4,4,5,0,15,7,3,1,2021-08-07 12:08:04,406637
-4,-4,-9,-18,-30,-17,-8,-4,2021-08-07 12:08:04,421638
0,-2,-5,-12,-11,-3,0,2,2021-08-07 12:08:04,421638
-1,0,5,11,13,7,2,-2,2021-08-07 12:08:04,421638
-3,1,0,4,4,2,-1,1,2021-08-07 12:08:04,421638
-3,-5,-2,1,5,1,0,-1,2021-08-07 12:08:04,437638
7,10,8,22,19,8,6,6,2021-08-07 12:08:04,437638
1,2,-2,-11,-10,-8,-2,-1,2021-08-07 12:08:04,437638
-6,-8,-9,-15,-18,-10,-5,-4,2021-08-07 12:08:04,437638
2,3,4,7,7,3,3,1,2021-08-07 12:08:04,468639
-2,-1,0,-9,-4,1,-1,-1,2021-08-07 12:08:04,484637
3,2,1,5,6,6,4,2,2021-08-07 12:08:04,500638
-3,-4,-4,-4,-5,-5,-3,-3,2021-08-07 12:08:04,500638
-4,-5,-6,-8,-17,-9,-3,-4,2021-08-07 12:08:04,500638
-4,-7,-14,-17,-10,-6,-5,-3,2021-08-07 12:08:04,500638
5,7,14,25,21,10,6,5,2021-08-07 12:08:04,516639
-1,-3,-5,-9,-6,-4,-4,-2,2021-08-07 12:08:04,516639
2,3,6,16,24,15,5,3,2021-08-07 12:08:04,516639
-3,-3,-1,-3,-13,-6,-5,-5,2021-08-07 12:08:04,516639
-4,-4,-9,-22,-25,-14,-5,-3,2021-08-07 12:08:04,516639
3,1,1,2,3,0,0,0,2021-08-07 12:08:04,516639
0,-3,-6,-13,-7,-6,-4,0,2021-08-07 12:08:04,517638
-4,-7,1,15,9,3,-1,-1,2021-08-07 12:08:04,517638
6,9,13,29,37,18,10,6,2021-08-07 12:08:04,517638
-4,-5,-7,-8,-16,-7,-2,-4,2021-08-07 12:08:04,517638
2,2,0,6,14,6,3,0,2021-08-07 12:08:04,534639
-7,-5,-9,-20,-20,-11,-6,-8,2021-08-07 12:08:04,535637
-7,-5,-6,-13,-12,-9,-10,-5,2021-08-07 12:08:04,548639
2,6,5,5,0,0,1,2,2021-08-07 12:08:04,548639
3,2,5,9,5,3,2,2,2021-08-07 12:08:04,548639
1,-2,-5,-5,8,2,1,0,2021-08-07 12:08:04,548639
-2,-3,-4,-11,-21,-12,-5,-3,2021-08-07 12:08:04,580639
-3,-4,-3,-5,-2,1,0,-1,2021-08-07 12:08:04,596637
-1,1,3,8,11,3,0,-1,2021-08-07 12:08:04,611639
7,9,13,29,28,19,10,6,2021-08-07 12:08:04,611639
-2,-3,-5,-5,-9,-6,-3,-3,2021-08-07 12:08:04,611639
-2,-3,-5,-14,-16,-7,-3,-4,2021-08-07 12:08:04,611639
1,2,4,8,11,4,2,1,2021-08-07 12:08:04,627638
1,0,1,-3,1,-1,-1,2,2021-08-07 12:08:04,643637
-3,-4,-5,-8,-11,-7,-5,-3,2021-08-07 12:08:04,643637
-5,-6,-10,-26,-19,-10,-6,-3,2021-08-07 12:08:04,643637
2,3,9,20,15,7,3,0,2021-08-07 12:08:04,643637
-2,-1,-2,1,3,2,1,2,2021-08-07 12:08:04,643637
-2,-2,-4,-8,-1,3,-1,0,2021-08-07 12:08:04,644638
1,1,0,4,0,0,-2,-2,2021-08-07 12:08:04,644638
-6,-6,-7,-17,-22,-12,-9,-4,2021-08-07 12:08:04,644638
2,3,4,6,3,1,1,1,2021-08-07 12:08:04,644638
-1,-2,1,3,-5,-3,-2,-3,2021-08-07 12:08:04,658639
1,1,9,25,24,12,4,0,2021-08-07 12:08:04,658639
-1,0,-5,-5,4,1,1,1,2021-08-07 12:08:04,658639
-9,-15,-25,-41,-46,-27,-16,-9,2021-08-07 12:08:04,658639
-3,-2,-5,-12,-12,-8,-4,-1,2021-08-07 12:08:04,658639
1,5,9,15,27,14,6,3,2021-08-07 12:08:04,659638
-1,1,1,0,1,3,0,-1,2021-08-07 12:08:04,674637
-2,-1,-1,-4,-13,-5,-2,-1,2021-08-07 12:08:04,690638
-3,-5,-3,-5,3,-1,-1,-3,2021-08-07 12:08:04,706638
1,1,0,-3,4,0,0,0,2021-08-07 12:08:04,706638
-1,1,3,9,1,2,1,-1,2021-08-07 12:08:04,706638
-1,1,4,4,0,-3,-1,-1,2021-08-07 12:08:04,706638
0,1,0,6,6,1,1,1,2021-08-07 12:08:04,706638
-3,-3,-3,-4,-6,-5,-6,-3,2021-08-07 12:08:04,707640
-3,-4,-6,-11,-14,-10,-4,-3,2021-08-07 12:08:04,722638
1,2,0,4,12,7,2,2,2021-08-07 12:08:04,738638
-1,1,1,0,-10,-2,0,-1,2021-08-07 12:08:04,754636
1,0,5,16,18,8,4,2,2021-08-07 12:08:04,754636
0,0,-3,-5,-5,-2,-1,0,2021-08-07 12:08:04,754636
-2,0,-2,-6,-3,-3,-1,-2,2021-08-07 12:08:04,754636
2,3,3,11,13,7,4,1,2021-08-07 12:08:04,754636
-5,-4,-7,-17,-26,-12,-5,-3,2021-08-07 12:08:04,754636
-1,-4,-1,-2,-1,-2,-2,-3,2021-08-07 12:08:04,755639
0,-1,-5,-7,-4,0,-1,1,2021-08-07 12:08:04,755639
-6,-9,-16,-32,-29,-16,-10,-5,2021-08-07 12:08:04,770638
-1,-1,-4,-4,-8,-2,-2,0,2021-08-07 12:08:04,770638
3,4,10,26,25,12,3,2,2021-08-07 12:08:04,786640
2,2,6,13,13,9,6,3,2021-08-07 12:08:04,802638
1,2,1,4,0,-1,-1,0,2021-08-07 12:08:04,818638
0,0,-5,-7,-4,-4,-1,0,2021-08-07 12:08:04,833638
-2,-3,-6,-12,-2,-3,-3,-1,2021-08-07 12:08:04,833638
-1,0,8,16,10,3,-2,-2,2021-08-07 12:08:04,833638
4,2,0,4,12,8,5,4,2021-08-07 12:08:04,833638
-2,-3,-5,-12,-12,-5,-1,-2,2021-08-07 12:08:04,833638
1,0,1,6,-4,-4,0,1,2021-08-07 12:08:04,833638
-2,-1,-2,-6,-9,-4,-3,-3,2021-08-07 12:08:04,834639
-2,-3,-1,5,17,5,1,0,2021-08-07 12:08:04,834639
1,1,-1,-1,-8,-4,-3,-2,2021-08-07 12:08:04,834639
1,2,4,11,21,10,5,3,2021-08-07 12:08:04,834639
-1,-1,-5,-14,-13,-8,-3,-2,2021-08-07 12:08:04,834639
0,-2,6,14,15,7,3,-1,2021-08-07 12:08:04,849639
7,8,10,6,6,3,2,3,2021-08-07 12:08:04,849639
-1,-4,-5,3,-1,1,-1,-1,2021-08-07 12:08:04,881638
-5,-9,-15,-26,-26,-14,-7,-4,2021-08-07 12:08:04,897637
-4,-3,-7,-17,-24,-12,-7,-5,2021-08-07 12:08:04,912637
-1,-1,3,21,34,13,3,0,2021-08-07 12:08:04,912637
3,4,5,7,10,6,1,2,2021-08-07 12:08:04,912637
1,1,3,2,6,3,0,0,2021-08-07 12:08:04,912637
-3,-3,-5,-8,-19,-9,-4,-4,2021-08-07 12:08:04,912637
0,1,6,11,12,7,3,0,2021-08-07 12:08:04,912637
-1,2,1,0,-2,-1,0,-1,2021-08-07 12:08:04,913638
0,-2,-4,-5,-5,-4,-2,-2,2021-08-07 12:08:04,913638
-5,-2,-6,-15,-15,-7,-5,-2,2021-08-07 12:08:04,913638
-4,-5,-9,-19,-19,-11,-5,-4,2021-08-07 12:08:04,913638
0,0,2,4,13,8,5,1,2021-08-07 12:08:04,928637
0,1,5,13,8,3,-1,0,2021-08-07 12:08:04,944637
-1,-1,-2,-6,-10,-3,-1,-1,2021-08-07 12:08:04,944637
-3,-6,-4,-1,0,-1,-2,-1,2021-08-07 12:08:04,944637
-3,-2,-1,-2,-1,-3,-2,-2,2021-08-07 12:08:04,944637
-2,-1,0,-4,-4,-1,0,-1,2021-08-07 12:08:04,944637
3,4,5,12,12,7,5,5,2021-08-07 12:08:04,945637
-2,-1,1,-10,-13,-8,-5,-3,2021-08-07 12:08:04,945637
2,3,3,12,5,9,5,2,2021-08-07 12:08:04,960638
-4,-8,-14,-9,2,-3,-1,-1,2021-08-07 12:08:04,960638
0,-3,-6,-1,8,-1,-2,0,2021-08-07 12:08:04,960638
-6,-9,-8,-6,-11,-5,-4,-3,2021-08-07 12:08:04,960638
-4,0,1,-9,-7,-6,-3,-3,2021-08-07 12:08:04,991638
2,2,4,0,-7,1,0,0,2021-08-07 12:08:04,994638
4,6,11,14,17,10,5,3,2021-08-07 12:08:04,994638
1,3,2,8,2,-1,1,-1,2021-08-07 12:08:04,994638
-4,-4,-4,-7,-6,-3,-2,-1,2021-08-07 12:08:04,994638
0,-1,-2,-4,-5,-1,0,1,2021-08-07 12:08:04,994638
-2,-5,-3,-2,1,-3,-4,-3,2021-08-07 12:08:04,995639
3,2,2,8,9,4,1,2,2021-08-07 12:08:04,995639
-6,-8,-11,-17,-22,-14,-6,-6,2021-08-07 12:08:05,023638
3,5,10,20,34,14,6,3,2021-08-07 12:08:05,023638
1,2,2,0,-8,-3,1,-2,2021-08-07 12:08:05,023638
2,3,0,-2,0,2,0,0,2021-08-07 12:08:05,023638
-4,-8,-13,-19,-21,-16,-10,-5,2021-08-07 12:08:05,055638
-2,-4,-3,-5,-14,-8,-4,-4,2021-08-07 12:08:05,055638
-3,-3,1,3,5,0,-1,-2,2021-08-07 12:08:05,055638
1,0,1,2,4,4,1,0,2021-08-07 12:08:05,055638
-1,-1,0,-2,1,1,-3,-1,2021-08-07 12:08:05,055638
3,5,8,15,14,9,5,3,2021-08-07 12:08:05,055638
-3,-6,-13,-18,-20,-8,-4,-4,2021-08-07 12:08:05,071639
-5,-6,-9,-19,-21,-12,-6,-3,2021-08-07 12:08:05,087638
-6,-4,-4,-6,-4,-7,-5,-5,2021-08-07 12:08:05,103637
5,6,14,32,30,13,4,4,2021-08-07 12:08:05,103637
0,-1,-1,3,5,4,1,0,2021-08-07 12:08:05,103637
-1,0,0,2,-6,-3,1,-1,2021-08-07 12:08:05,103637
-1,-3,-4,-10,-6,-2,-3,-2,2021-08-07 12:08:05,103637
-1,1,-2,-9,-18,-8,-2,0,2021-08-07 12:08:05,103637
1,2,6,14,21,10,3,2,2021-08-07 12:08:05,104639
-3,-4,-6,-11,-13,-8,-5,-3,2021-08-07 12:08:05,104639
1,3,2,5,0,0,2,1,2021-08-07 12:08:05,119640
-1,-1,-3,-14,-21,-11,-5,-3,2021-08-07 12:08:05,135640
-1,-2,-3,2,4,3,0,1,2021-08-07 12:08:05,135640
7,6,13,32,38,19,9,5,2021-08-07 12:08:05,135640
2,0,-2,-1,-2,0,2,-1,2021-08-07 12:08:05,135640
-6,-6,-11,-16,-12,-7,-4,-2,2021-08-07 12:08:05,135640
-5,-6,-12,-26,-44,-25,-11,-7,2021-08-07 12:08:05,136639
0,2,1,5,17,8,2,1,2021-08-07 12:08:05,136639
2,3,8,20,14,9,4,2,2021-08-07 12:08:05,167637
-1,1,3,-9,-6,0,0,0,2021-08-07 12:08:05,183640
-2,-3,-9,-6,0,2,0,-1,2021-08-07 12:08:05,215639
-5,-5,-5,-7,-5,-4,-2,-3,2021-08-07 12:08:05,215639
3,4,7,15,12,5,1,3,2021-08-07 12:08:05,215639
0,1,3,10,13,6,1,0,2021-08-07 12:08:05,215639
2,4,8,10,5,3,2,1,2021-08-07 12:08:05,215639
-3,-3,-8,-15,-20,-12,-5,-2,2021-08-07 12:08:05,215639
-6,-7,-11,-20,-19,-8,-7,-2,2021-08-07 12:08:05,216638
-2,-1,0,1,-3,-3,-3,-2,2021-08-07 12:08:05,216638
2,1,3,7,12,8,4,3,2021-08-07 12:08:05,216638
5,5,9,16,13,8,5,1,2021-08-07 12:08:05,216638
1,2,2,10,13,5,2,0,2021-08-07 12:08:05,216638
-1,-1,-6,-9,-7,-3,-3,-1,2021-08-07 12:08:05,216638
-7,-7,-13,-20,-23,-17,-8,-4,2021-08-07 12:08:05,231639
-5,0,2,3,-1,0,-2,-2,2021-08-07 12:08:05,231639
3,2,5,9,6,2,2,2,2021-08-07 12:08:05,231639
-1,0,-6,-2,5,2,0,0,2021-08-07 12:08:05,231639
0,0,1,1,-1,-2,-2,-1,2021-08-07 12:08:05,247639
-3,-3,-6,-5,-4,-3,-2,-3,2021-08-07 12:08:05,247639
-2,-1,1,1,-1,-2,-2,-1,2021-08-07 12:08:05,263637
0,1,2,3,0,0,-1,1,2021-08-07 12:08:05,279638
3,3,0,-8,-12,-4,0,1,2021-08-07 12:08:05,279638
-4,-5,-6,-8,-3,-1,-2,-1,2021-08-07 12:08:05,279638
-1,-1,1,0,5,0,-1,0,2021-08-07 12:08:05,279638
6,3,3,11,6,5,4,3,2021-08-07 12:08:05,295639
0,0,-1,4,17,7,1,0,2021-08-07 12:08:05,295639
-3,-4,-4,-16,-18,-9,-4,-2,2021-08-07 12:08:05,295639
-2,-5,-9,-10,-13,-7,-4,-5,2021-08-07 12:08:05,295639
-1,-1,1,3,11,5,2,-1,2021-08-07 12:08:05,295639
5,7,15,25,21,8,4,4,2021-08-07 12:08:05,311639
0,-1,-2,-3,-8,-3,-2,-1,2021-08-07 12:08:05,327638
-1,0,-1,-10,-10,-6,-2,-1,2021-08-07 12:08:05,327638
-4,-4,-4,-16,-20,-12,-4,-3,2021-08-07 12:08:05,327638
-1,-1,-3,2,2,1,0,0,2021-08-07 12:08:05,327638
-3,-7,-8,-6,8,2,-1,-2,2021-08-07 12:08:05,327638
0,1,0,-5,-7,-4,-1,0,2021-08-07 12:08:05,343637
3,7,11,18,14,11,3,2,2021-08-07 12:08:05,359638
-1,-1,2,0,0,1,-2,-2,2021-08-07 12:08:05,359638
1,1,0,1,-7,-4,0,1,2021-08-07 12:08:05,374639
-8,-10,-17,-24,-9,-7,-5,-7,2021-08-07 12:08:05,374639
1,2,0,1,3,1,-1,2,2021-08-07 12:08:05,374639
-1,1,0,-6,-8,-3,-1,-1,2021-08-07 12:08:05,374639
1,2,6,15,18,4,2,2,2021-08-07 12:08:05,375639
-2,-3,-3,-10,-13,-5,-2,-4,2021-08-07 12:08:05,390640
-1,2,6,8,7,3,1,-1,2021-08-07 12:08:05,390640
-6,-5,-4,-8,-16,-8,-6,-5,2021-08-07 12:08:05,390640
3,1,0,-3,-6,-1,1,3,2021-08-07 12:08:05,390640
1,2,-1,11,23,9,4,4,2021-08-07 12:08:05,406636
0,-4,-8,-13,-10,-6,-2,-3,2021-08-07 12:08:05,421638
3,2,2,9,12,6,5,2,2021-08-07 12:08:05,437638
-4,-4,-3,-12,-14,-6,-4,-3,2021-08-07 12:08:05,452637
5,1,6,21,14,11,8,5,2021-08-07 12:08:05,464636
-3,-6,-6,-7,-4,-6,-4,-4,2021-08-07 12:08:05,464636
-6,-4,-6,-13,-15,-10,-7,-5,2021-08-07 12:08:05,465639
-7,-4,-4,-7,-10,-7,-6,-6,2021-08-07 12:08:05,465639
1,3,9,5,0,2,-2,-2,2021-08-07 12:08:05,465639
-1,-4,-3,8,12,3,1,0,2021-08-07 12:08:05,484637
5,5,1,-1,0,0,3,3,2021-08-07 12:08:05,500638
-3,-5,-6,-7,-7,-5,-3,-3,2021-08-07 12:08:05,500638
0,2,4,9,12,3,2,2,2021-08-07 12:08:05,500638
-2,1,2,0,-6,0,0,1,2021-08-07 12:08:05,500638
-1,-1,0,2,2,2,-1,0,2021-08-07 12:08:05,500638
0,0,-4,-5,-5,-4,0,-1,2021-08-07 12:08:05,500638
-3,-5,-6,-13,-16,-9,-5,-2,2021-08-07 12:08:05,501638
5,4,5,4,4,0,1,2,2021-08-07 12:08:05,501638
-1,0,3,8,9,4,1,-1,2021-08-07 12:08:05,501638
1,-2,-7,-9,-8,-4,-2,-1,2021-08-07 12:08:05,501638
-1,-1,-1,3,9,3,2,0,2021-08-07 12:08:05,501638
1,4,5,10,9,3,2,2,2021-08-07 12:08:05,501638
2,5,10,17,16,10,5,1,2021-08-07 12:08:05,501638
0,-1,-2,-5,-8,-1,-2,0,2021-08-07 12:08:05,502638
-10,-11,-15,-28,-33,-23,-14,-8,2021-08-07 12:08:05,532639
-2,-5,-8,-20,-13,-7,-2,-2,2021-08-07 12:08:05,548639
2,4,11,15,15,6,3,2,2021-08-07 12:08:05,548639
-2,-1,2,3,0,-1,-1,-2,2021-08-07 12:08:05,548639
-4,-6,-10,-19,-16,-5,-4,-2,2021-08-07 12:08:05,548639
11,17,21,48,51,27,13,10,2021-08-07 12:08:05,548639
-1,-4,-5,-5,-3,-1,-2,-2,2021-08-07 12:08:05,549640
1,7,5,11,11,3,1,2,2021-08-07 12:08:05,549640
-3,-1,-2,-11,-20,-8,-4,-3,2021-08-07 12:08:05,564636
-5,-8,-5,1,-1,-5,-3,-6,2021-08-07 12:08:05,579638
-3,-4,-6,-6,-8,-2,-1,-1,2021-08-07 12:08:05,595637
1,3,8,7,10,4,-1,0,2021-08-07 12:08:05,595637
3,3,0,3,0,0,2,1,2021-08-07 12:08:05,595637
-8,-12,-22,-35,-37,-19,-11,-6,2021-08-07 12:08:05,595637
-4,-7,-11,-15,-9,-6,-2,-3,2021-08-07 12:08:05,595637
-5,-5,-6,-10,-6,-5,-3,-3,2021-08-07 12:08:05,596639
2,5,13,25,21,15,6,3,2021-08-07 12:08:05,596639
-1,-1,5,5,1,2,0,0,2021-08-07 12:08:05,596639
2,6,4,2,3,1,1,1,2021-08-07 12:08:05,611637
2,1,4,13,9,7,2,0,2021-08-07 12:08:05,626640
0,-2,-6,-1,-1,-1,0,0,2021-08-07 12:08:05,626640
-3,-5,-7,-12,-15,-7,-3,-2,2021-08-07 12:08:05,626640
-4,-3,-11,-23,-14,-10,-6,-4,2021-08-07 12:08:05,626640
-2,-4,3,5,1,1,-2,0,2021-08-07 12:08:05,626640
7,8,12,17,11,7,2,4,2021-08-07 12:08:05,642638
-1,1,0,4,3,1,0,0,2021-08-07 12:08:05,642638
-2,-2,-3,-7,-10,-5,-4,-3,2021-08-07 12:08:05,642638
0,-3,-1,3,-1,-1,1,-1,2021-08-07 12:08:05,642638
-4,-4,-6,-14,-4,-5,-5,-3,2021-08-07 12:08:05,657637
2,2,2,7,11,4,4,2,2021-08-07 12:08:05,657637
1,3,1,5,4,4,1,-1,2021-08-07 12:08:05,672637
0,0,-9,-8,-4,1,0,-1,2021-08-07 12:08:05,672637
-5,-9,-12,-21,-21,-12,-6,-6,2021-08-07 12:08:05,688638
-2,1,4,0,-13,-9,-5,-2,2021-08-07 12:08:05,704637
6,5,9,12,20,11,6,3,2021-08-07 12:08:05,704637
0,-1,2,15,9,4,2,-1,2021-08-07 12:08:05,704637
-5,-6,-10,-18,-10,-4,-2,-2,2021-08-07 12:08:05,704637
-3,-2,-4,-9,-7,-4,-3,-2,2021-08-07 12:08:05,704637
-3,-4,-2,-2,-4,-6,-3,-3,2021-08-07 12:08:05,704637
2,5,7,2,2,3,2,3,2021-08-07 12:08:05,704637
5,5,17,38,31,14,7,4,2021-08-07 12:08:05,720638
-1,-8,-12,-8,-4,-2,-1,-3,2021-08-07 12:08:05,736641
-6,-10,-12,-21,-27,-15,-8,-4,2021-08-07 12:08:05,751636
-5,-6,-16,-25,-20,-10,-5,-4,2021-08-07 12:08:05,751636
4,5,13,22,20,7,5,3,2021-08-07 12:08:05,751636
3,3,7,2,7,6,3,1,2021-08-07 12:08:05,751636
0,0,-3,5,2,2,0,0,2021-08-07 12:08:05,751636
-7,-10,-12,-18,-20,-14,-8,-6,2021-08-07 12:08:05,751636
-1,-2,-2,6,-3,-3,-4,0,2021-08-07 12:08:05,767638
1,1,7,11,16,7,2,0,2021-08-07 12:08:05,767638
-1,-1,3,4,1,3,0,-2,2021-08-07 12:08:05,767638
-2,-1,-3,-3,2,-1,-3,-3,2021-08-07 12:08:05,767638
0,-3,-7,-7,5,0,0,-1,2021-08-07 12:08:05,783639
-1,0,-3,-10,-18,-8,-3,-1,2021-08-07 12:08:05,799639
-4,-5,-4,5,9,4,1,0,2021-08-07 12:08:05,815639
3,1,0,-9,-18,-9,-2,-1,2021-08-07 12:08:05,831639
2,5,1,-4,-3,0,1,0,2021-08-07 12:08:05,847638
1,2,8,14,11,5,2,2,2021-08-07 12:08:05,863636
3,1,10,12,12,6,3,2,2021-08-07 12:08:05,879639
-4,-6,-12,-12,-11,-7,-5,-4,2021-08-07 12:08:05,879639
-2,-2,-4,-12,-9,-3,-3,0,2021-08-07 12:08:05,879639
-2,-2,-3,-6,-14,-7,-4,-2,2021-08-07 12:08:05,879639
-5,-7,-5,-4,3,0,-2,-2,2021-08-07 12:08:05,879639
0,4,6,10,12,5,2,1,2021-08-07 12:08:05,879639
1,-1,1,-2,-7,-3,-1,0,2021-08-07 12:08:05,880639
2,3,0,-9,-5,-2,1,1,2021-08-07 12:08:05,880639
-2,-3,0,4,-3,-3,-2,-3,2021-08-07 12:08:05,880639
3,4,9,19,22,12,6,3,2021-08-07 12:08:05,880639
-2,-1,-4,-9,-4,0,-1,-3,2021-08-07 12:08:05,880639
-5,-7,-5,-6,-12,-6,-5,-4,2021-08-07 12:08:05,880639
0,-2,-3,-5,-13,-9,-4,-2,2021-08-07 12:08:05,880639
0,-3,-1,2,12,6,2,0,2021-08-07 12:08:05,881639
0,2,1,8,5,2,2,1,2021-08-07 12:08:05,881639
-2,-4,-10,-8,-5,-2,-3,-2,2021-08-07 12:08:05,881639
0,1,2,-1,3,-2,1,1,2021-08-07 12:08:05,895638
-4,-3,-1,-3,-3,-1,-1,-2,2021-08-07 12:08:05,895638
-1,-3,1,-8,-15,-8,-5,-3,2021-08-07 12:08:05,911640
-2,-2,0,2,4,1,-1,-1,2021-08-07 12:08:05,911640
-2,-3,-3,-5,-4,-5,-3,-2,2021-08-07 12:08:05,911640
11,15,19,32,38,22,12,8,2021-08-07 12:08:05,911640
2,-1,0,6,5,5,4,2,2021-08-07 12:08:05,920636
-1,-4,-20,-41,-36,-17,-8,-3,2021-08-07 12:08:05,921639
-6,-6,-5,-3,-11,-9,-6,-5,2021-08-07 12:08:05,921639
-5,-7,-3,-8,-10,-8,-6,-4,2021-08-07 12:08:05,921639
0,1,5,11,5,4,-1,0,2021-08-07 12:08:05,943637
-2,-1,3,-2,-3,-3,-1,-2,2021-08-07 12:08:05,959640
3,3,-2,-6,-2,2,2,1,2021-08-07 12:08:05,975637
5,8,13,29,24,9,6,3,2021-08-07 12:08:05,975637
-1,2,-2,-4,-1,-2,-1,-1,2021-08-07 12:08:05,975637
-2,-1,-1,5,10,3,-1,0,2021-08-07 12:08:05,975637
-6,-10,-15,-19,-20,-10,-6,-3,2021-08-07 12:08:05,975637
-8,-10,-12,-30,-39,-20,-9,-6,2021-08-07 12:08:05,976639
1,0,1,14,26,12,3,2,2021-08-07 12:08:06,006638
6,6,11,18,16,10,7,4,2021-08-07 12:08:06,006638
3,7,9,14,11,6,4,2,2021-08-07 12:08:06,006638
-3,-5,-11,-23,-27,-12,-6,-4,2021-08-07 12:08:06,006638
-6,-10,-8,-15,-15,-11,-7,-5,2021-08-07 12:08:06,006638
-1,2,-1,1,4,2,1,-2,2021-08-07 12:08:06,007641
1,2,10,12,9,3,0,0,2021-08-07 12:08:06,007641
0,-3,0,0,-1,0,-1,-2,2021-08-07 12:08:06,007641
2,0,-8,-1,7,5,3,1,2021-08-07 12:08:06,037639
-4,-8,-14,-18,-8,-6,-5,-3,2021-08-07 12:08:06,053639
-1,-2,-4,-9,-10,-4,-1,0,2021-08-07 12:08:06,069637
0,0,4,3,2,1,-1,1,2021-08-07 12:08:06,069637
-1,2,5,-5,-7,-3,-3,-1,2021-08-07 12:08:06,069637
1,-1,2,17,18,6,3,1,2021-08-07 12:08:06,069637
-1,-2,-7,-15,-13,-6,-3,-3,2021-08-07 12:08:06,069637
0,1,-1,6,9,5,1,2,2021-08-07 12:08:06,070639
1,2,3,2,3,1,1,1,2021-08-07 12:08:06,070639
-3,-2,-1,-8,-10,-4,-3,-3,2021-08-07 12:08:06,070639
-2,1,3,4,1,1,-2,1,2021-08-07 12:08:06,070639
-1,2,2,6,-5,-2,-1,-2,2021-08-07 12:08:06,070639
1,0,2,4,7,2,2,0,2021-08-07 12:08:06,085636
1,0,1,-5,-3,-2,0,1,2021-08-07 12:08:06,085636
-1,-3,-5,-3,6,3,1,-1,2021-08-07 12:08:06,085636
-1,-1,-3,5,4,0,1,0,2021-08-07 12:08:06,085636
-4,-3,-5,-13,-21,-10,-6,-5,2021-08-07 12:08:06,100638
-1,0,0,-2,0,2,0,-2,2021-08-07 12:08:06,116639
1,3,5,11,7,3,2,0,2021-08-07 12:08:06,132640
-5,-6,-6,-10,-14,-8,-6,-5,2021-08-07 12:08:06,132640
1,1,-3,-7,-8,-4,-1,1,2021-08-07 12:08:06,132640
-2,-6,-8,-8,-6,-6,-4,-4,2021-08-07 12:08:06,132640
0,2,3,11,8,5,2,1,2021-08-07 12:08:06,132640
-2,-1,-1,1,10,2,1,-2,2021-08-07 12:08:06,132640
-4,-5,-2,-5,-19,-5,-4,-3,2021-08-07 12:08:06,148639
2,3,5,10,15,8,4,2,2021-08-07 12:08:06,164637
-3,-3,-5,-7,-10,-6,-4,-3,2021-08-07 12:08:06,164637
9,7,5,1,7,5,3,5,2021-08-07 12:08:06,164637
1,2,2,1,4,1,1,-1,2021-08-07 12:08:06,164637
0,3,7,13,6,4,2,2,2021-08-07 12:08:06,165641
-1,-6,-1,2,4,1,-1,-1,2021-08-07 12:08:06,165641
-9,-14,-19,-30,-33,-18,-10,-6,2021-08-07 12:08:06,165641
-2,-4,-6,-11,-4,-6,-3,-1,2021-08-07 12:08:06,196639
7,10,9,28,34,21,10,5,2021-08-07 12:08:06,212673
0,1,-4,-6,-2,-1,0,-2,2021-08-07 12:08:06,228675
-1,-2,-3,-7,-17,-7,-1,0,2021-08-07 12:08:06,228675
-8,-7,-1,9,15,2,-1,-4,2021-08-07 12:08:06,228675
-2,0,5,1,-4,-5,-3,-2,2021-08-07 12:08:06,228675
4,3,9,10,9,6,2,-1,2021-08-07 12:08:06,228675
-1,-2,-6,-4,1,-1,-2,-1,2021-08-07 12:08:06,229675
0,1,0,-2,-8,-3,-3,1,2021-08-07 12:08:06,229675
2,-1,1,0,3,0,1,1,2021-08-07 12:08:06,229675
1,3,3,2,-2,0,0,1,2021-08-07 12:08:06,229675
-4,-3,-2,-3,-5,-6,-5,-3,2021-08-07 12:08:06,229675
-1,-3,-5,-8,-6,-5,-3,-3,2021-08-07 12:08:06,244673
-5,-9,-6,-3,-6,-3,-3,-2,2021-08-07 12:08:06,244673
-3,-5,-5,-3,-2,-5,-4,-2,2021-08-07 12:08:06,244673
2,5,7,11,11,7,2,-1,2021-08-07 12:08:06,244673
4,4,-5,-7,-7,2,2,1,2021-08-07 12:08:06,275675
-3,-4,-4,-13,-18,-9,-5,-3,2021-08-07 12:08:06,291674
-3,-2,-2,-1,0,1,1,-2,2021-08-07 12:08:06,291674
-1,0,3,16,16,4,1,-1,2021-08-07 12:08:06,307676
1,0,4,5,9,4,0,-1,2021-08-07 12:08:06,322674
-4,-6,-10,-20,-23,-11,-6,-4,2021-08-07 12:08:06,338675
3,5,5,8,21,10,4,3,2021-08-07 12:08:06,354674
5,4,3,3,0,1,2,2,2021-08-07 12:08:06,354674
-2,-4,-10,-9,-7,-4,-1,-2,2021-08-07 12:08:06,354674
-6,-8,-8,-10,-9,-6,-3,-3,2021-08-07 12:08:06,354674
-2,-1,-1,-14,-20,-8,-4,-3,2021-08-07 12:08:06,354674
-2,0,5,11,10,7,2,2,2021-08-07 12:08:06,354674
0,4,10,10,13,4,2,-2,2021-08-07 12:08:06,355674
-2,-1,2,15,11,3,-1,-1,2021-08-07 12:08:06,355674
-7,-8,-12,-18,-22,-16,-9,-8,2021-08-07 12:08:06,355674
3,0,0,9,10,5,0,1,2021-08-07 12:08:06,355674
3,3,3,-5,-8,-4,-1,1,2021-08-07 12:08:06,355674
1,0,-5,-6,-4,-2,-2,0,2021-08-07 12:08:06,355674
3,2,5,12,14,6,2,2,2021-08-07 12:08:06,355674
-1,-3,-3,-7,-8,-4,-2,-1,2021-08-07 12:08:06,356675
-1,0,4,9,11,5,2,1,2021-08-07 12:08:06,356675
-2,1,2,1,-1,-2,0,-2,2021-08-07 12:08:06,356675
