EMG 1,EMG 2,EMG 3,EMG 4,EMG 5,EMG 6,EMG 7,EMG 8,Timestamp,Milliseconds
-6,-8,-8,-2,-1,-1,-2,-3,2021-08-07 12:14:34,890852
5,8,8,7,4,3,2,4,2021-08-07 12:14:34,906854
2,3,1,0,0,2,1,1,2021-08-07 12:14:34,906854
-1,-2,0,2,1,-2,-2,0,2021-08-07 12:14:34,906854
1,2,0,-5,-6,-3,-1,0,2021-08-07 12:14:34,906854
-6,-5,-8,-4,-4,-3,-2,-4,2021-08-07 12:14:34,906854
-1,-2,0,2,2,0,0,-1,2021-08-07 12:14:34,906854
-1,-1,-2,-1,-2,1,-2,-1,2021-08-07 12:14:34,906854
0,-2,0,-1,-2,-1,0,0,2021-08-07 12:14:34,907852
0,-2,-4,-8,-7,-3,-3,-2,2021-08-07 12:14:34,907852
0,0,0,1,1,0,0,-1,2021-08-07 12:14:34,907852
-2,-1,-1,1,2,2,-1,-2,2021-08-07 12:14:34,907852
-2,-4,-4,-3,-2,-2,-1,-2,2021-08-07 12:14:34,922852
2,5,3,-5,-4,-2,0,2,2021-08-07 12:14:34,922852
-4,-4,1,7,1,-2,-3,-3,2021-08-07 12:14:34,922852
0,2,0,-1,1,0,-2,0,2021-08-07 12:14:34,922852
-6,-8,-4,4,6,2,-1,-3,2021-08-07 12:14:34,938851
5,6,9,9,6,6,4,5,2021-08-07 12:14:34,938851
1,1,-1,-4,-5,-1,-2,-1,2021-08-07 12:14:34,954851
0,0,1,2,0,1,1,-1,2021-08-07 12:14:34,954851
-2,2,-2,-7,-8,-6,-3,-4,2021-08-07 12:14:34,954851
-2,-4,-3,3,5,2,0,-1,2021-08-07 12:14:34,954851
-5,-4,-2,-3,-3,-4,-4,-3,2021-08-07 12:14:34,970851
-1,-3,-3,-6,-7,-3,-2,-1,2021-08-07 12:14:34,986860
-1,-3,-6,-8,-9,-7,-5,-3,2021-08-07 12:14:35,034852
-5,-7,-6,0,5,0,-2,-3,2021-08-07 12:14:35,034852
4,7,7,11,9,6,5,5,2021-08-07 12:14:35,034852
1,-1,-2,-9,-4,-1,-1,-1,2021-08-07 12:14:35,034852
-1,1,3,11,8,4,2,-1,2021-08-07 12:14:35,034852
-2,-3,-3,-1,-7,-5,-2,-2,2021-08-07 12:14:35,034852
-3,-4,-4,-6,-5,-5,-2,-2,2021-08-07 12:14:35,034852
0,-1,-2,-4,-3,-2,-2,-1,2021-08-07 12:14:35,034852
2,3,3,-1,-3,0,0,3,2021-08-07 12:14:35,035854
-2,-4,-3,-9,-5,-4,-4,-4,2021-08-07 12:14:35,035854
-2,0,1,3,1,1,0,-2,2021-08-07 12:14:35,035854
-1,1,-1,3,-1,-1,0,0,2021-08-07 12:14:35,035854
-7,-9,-9,-7,-3,-4,-4,-4,2021-08-07 12:14:35,035854
4,4,4,4,1,0,2,2,2021-08-07 12:14:35,035854
-1,-1,-3,-6,-1,-1,-2,-1,2021-08-07 12:14:35,065850
1,2,4,8,6,4,2,0,2021-08-07 12:14:35,065850
-4,-3,-2,-2,-2,-3,-1,-3,2021-08-07 12:14:35,065850
-3,-6,-5,-8,-9,-5,-4,-2,2021-08-07 12:14:35,066853
-2,-3,-1,-4,-2,-2,0,-3,2021-08-07 12:14:35,082850
1,1,0,6,4,1,1,1,2021-08-07 12:14:35,098853
-1,-1,-1,2,4,2,0,1,2021-08-07 12:14:35,098853
-2,0,0,-5,-6,-5,-4,-2,2021-08-07 12:14:35,098853
5,4,0,-2,-3,-1,0,2,2021-08-07 12:14:35,098853
0,0,1,4,5,4,1,-1,2021-08-07 12:14:35,098853
-6,-8,-6,-8,-7,-5,-4,-5,2021-08-07 12:14:35,098853
-2,-1,-2,-2,-3,-2,-2,1,2021-08-07 12:14:35,098853
1,2,-1,-3,-5,0,0,0,2021-08-07 12:14:35,114852
-1,-2,-1,2,6,2,0,1,2021-08-07 12:14:35,114852
2,2,3,3,-3,-3,-3,0,2021-08-07 12:14:35,130852
-4,-3,-5,-6,-2,0,-2,-4,2021-08-07 12:14:35,146851
-3,-4,-1,-1,2,0,-2,-3,2021-08-07 12:14:35,162852
2,2,1,-1,-4,1,2,1,2021-08-07 12:14:35,162852
-4,-5,-1,-6,-1,-4,-2,-3,2021-08-07 12:14:35,162852
4,7,4,9,11,8,3,2,2021-08-07 12:14:35,162852
0,1,0,-7,-15,-8,-3,0,2021-08-07 12:14:35,162852
-3,-6,-6,-16,-7,-3,-2,-2,2021-08-07 12:14:35,162852
7,8,14,31,31,18,8,4,2021-08-07 12:14:35,162852
-1,0,0,-1,-4,-2,0,0,2021-08-07 12:14:35,162852
-5,-6,-4,0,1,-1,-3,-3,2021-08-07 12:14:35,178852
-3,-3,-4,-4,-10,-7,-4,-2,2021-08-07 12:14:35,178852
3,4,-1,-9,-9,-3,0,3,2021-08-07 12:14:35,178852
2,0,0,2,6,2,3,0,2021-08-07 12:14:35,178852
-2,-2,-3,-1,-2,-2,-2,-2,2021-08-07 12:14:35,210850
-4,-7,-6,-11,-12,-7,-6,-4,2021-08-07 12:14:35,210850
1,4,0,-2,-2,1,-1,1,2021-08-07 12:14:35,210850
-3,-1,-4,-2,0,-2,-1,-2,2021-08-07 12:14:35,210850
0,0,2,3,7,4,2,1,2021-08-07 12:14:35,226852
-1,0,2,1,1,-1,-3,-2,2021-08-07 12:14:35,226852
-1,-4,-2,2,3,2,0,-2,2021-08-07 12:14:35,226852
-1,-1,-2,-6,-6,-3,-3,-1,2021-08-07 12:14:35,226852
-4,-1,-2,2,2,0,-2,-1,2021-08-07 12:14:35,242852
-1,0,0,1,0,0,1,0,2021-08-07 12:14:35,242852
-2,-4,-5,-3,-5,-2,-2,-2,2021-08-07 12:14:35,242852
-3,-5,-4,-8,-6,-5,-2,-2,2021-08-07 12:14:35,242852
2,1,3,2,5,4,1,2,2021-08-07 12:14:35,274850
2,1,4,7,6,2,3,0,2021-08-07 12:14:35,274850
-3,-2,-3,-9,-12,-7,-4,-3,2021-08-07 12:14:35,274850
0,1,1,9,6,3,1,-1,2021-08-07 12:14:35,274850
-1,-2,-2,-5,-5,-2,-2,-2,2021-08-07 12:14:35,274850
0,-1,2,4,4,2,-1,-1,2021-08-07 12:14:35,274850
0,1,-4,-4,-3,-4,-3,-2,2021-08-07 12:14:35,274850
-3,-1,0,0,-1,-1,-1,-2,2021-08-07 12:14:35,274850
1,4,1,1,-1,0,0,2,2021-08-07 12:14:35,321852
-3,-1,-3,-6,-4,-4,-3,0,2021-08-07 12:14:35,337860
-3,-4,-5,-5,-5,-4,-2,-4,2021-08-07 12:14:35,353852
1,1,2,-5,-5,-1,-1,0,2021-08-07 12:14:35,353852
-2,-1,-2,-4,3,1,2,-2,2021-08-07 12:14:35,353852
0,2,4,18,16,6,3,1,2021-08-07 12:14:35,353852
-1,0,1,3,1,0,1,-1,2021-08-07 12:14:35,353852
1,-2,-3,-6,-8,-3,-2,-1,2021-08-07 12:14:35,353852
-1,-4,-7,-10,-11,-6,-5,-3,2021-08-07 12:14:35,353852
-3,-3,-5,-8,-8,-6,-4,-1,2021-08-07 12:14:35,353852
-2,0,4,11,10,3,1,1,2021-08-07 12:14:35,353852
6,7,8,7,4,3,3,3,2021-08-07 12:14:35,353852
1,2,3,9,13,6,2,0,2021-08-07 12:14:35,354854
-1,-2,-3,-8,-10,-6,-2,-4,2021-08-07 12:14:35,354854
-3,-4,-4,-7,-3,-3,-3,-4,2021-08-07 12:14:35,369850
-6,-6,-3,-1,2,-1,-2,-3,2021-08-07 12:14:35,369850
-1,-3,0,3,-3,0,0,-1,2021-08-07 12:14:35,385854
5,7,3,1,3,2,3,3,2021-08-07 12:14:35,385854
2,2,2,1,-1,-1,1,0,2021-08-07 12:14:35,385854
-1,-1,1,1,1,0,-3,-1,2021-08-07 12:14:35,385854
-1,-4,-6,-6,-5,-4,-2,-2,2021-08-07 12:14:35,401853
-3,-4,-5,-12,-12,-7,-4,-2,2021-08-07 12:14:35,417851
2,2,3,12,14,9,5,3,2021-08-07 12:14:35,417851
1,0,0,5,5,2,1,0,2021-08-07 12:14:35,417851
-2,-1,-2,1,-1,-2,-1,0,2021-08-07 12:14:35,417851
-5,-4,-3,0,1,-1,-2,-3,2021-08-07 12:14:35,417851
-4,-7,-6,-12,-12,-8,-4,-2,2021-08-07 12:14:35,417851
3,4,2,2,2,1,2,3,2021-08-07 12:14:35,417851
1,0,0,-4,-7,-4,-1,1,2021-08-07 12:14:35,449853
2,3,3,10,9,5,4,0,2021-08-07 12:14:35,449853
-1,-1,-3,-5,-3,-1,-2,-1,2021-08-07 12:14:35,449853
0,-2,0,2,2,2,1,1,2021-08-07 12:14:35,449853
-3,-5,-4,-5,-2,-2,-2,-1,2021-08-07 12:14:35,465852
3,2,2,1,0,3,2,4,2021-08-07 12:14:35,481882
1,3,1,-1,0,1,1,0,2021-08-07 12:14:35,497853
-1,-1,1,-2,-6,-3,-3,-2,2021-08-07 12:14:35,497853
-8,-8,-6,-9,-8,-5,-5,-8,2021-08-07 12:14:35,498854
2,3,8,16,17,8,4,1,2021-08-07 12:14:35,499852
-1,2,1,-3,-1,-2,-3,-2,2021-08-07 12:14:35,499852
0,-1,-3,-3,-3,-2,-1,0,2021-08-07 12:14:35,499852
2,3,2,1,-2,-1,1,3,2021-08-07 12:14:35,499852
-4,-4,-9,-12,-9,-7,-5,-2,2021-08-07 12:14:35,499852
4,3,2,6,5,2,1,2,2021-08-07 12:14:35,500852
-4,-4,-3,-5,-11,-7,-3,-3,2021-08-07 12:14:35,500852
1,1,2,11,16,9,2,-2,2021-08-07 12:14:35,513852
1,1,1,-2,2,0,0,-1,2021-08-07 12:14:35,513852
-2,-2,0,-2,-6,-3,-3,-2,2021-08-07 12:14:35,528855
-2,-3,-5,-9,-6,-5,-3,-1,2021-08-07 12:14:35,544890
2,0,3,7,4,3,1,2,2021-08-07 12:14:35,560880
-2,-5,-3,1,-3,0,-1,-2,2021-08-07 12:14:35,560880
-3,-4,-5,-7,-4,-4,-2,-2,2021-08-07 12:14:35,560880
-2,-3,0,0,-2,-1,-1,-1,2021-08-07 12:14:35,560880
0,2,0,-5,-6,-3,-2,1,2021-08-07 12:14:35,560880
-4,-6,-2,-4,1,-1,-2,-4,2021-08-07 12:14:35,560880
3,2,1,2,-2,0,0,2,2021-08-07 12:14:35,560880
0,-1,0,4,2,2,0,-1,2021-08-07 12:14:35,560880
-1,2,0,-1,-2,-1,0,0,2021-08-07 12:14:35,575853
-5,-4,-3,-5,-7,-5,-3,-4,2021-08-07 12:14:35,575853
-2,-4,-3,-9,-11,-4,-4,-1,2021-08-07 12:14:35,591891
-2,-4,-6,-3,1,-2,-1,-1,2021-08-07 12:14:35,607855
0,3,3,6,8,5,2,1,2021-08-07 12:14:35,607855
-1,1,-1,-2,-4,-1,0,1,2021-08-07 12:14:35,607855
-3,-2,-2,-5,-1,-1,-2,-3,2021-08-07 12:14:35,607855
-4,-4,-4,-3,-1,-3,-3,-3,2021-08-07 12:14:35,607855
1,-2,0,-2,-3,-3,0,1,2021-08-07 12:14:35,623855
2,2,1,1,0,1,0,2,2021-08-07 12:14:35,639855
-2,-3,-2,3,3,1,0,-1,2021-08-07 12:14:35,639855
-1,0,0,1,0,-1,-1,0,2021-08-07 12:14:35,655853
-1,-2,-3,-8,-3,-2,-2,-1,2021-08-07 12:14:35,655853
2,0,4,7,7,3,0,0,2021-08-07 12:14:35,655853
2,5,4,4,1,2,1,2,2021-08-07 12:14:35,655853
-1,0,-1,3,3,3,0,-1,2021-08-07 12:14:35,655853
-2,-2,-1,0,-3,-2,-1,-3,2021-08-07 12:14:35,655853
-1,1,-4,-11,-10,-6,-2,-2,2021-08-07 12:14:35,655853
-4,-3,-5,-2,0,-1,0,-3,2021-08-07 12:14:35,655853
3,4,5,2,3,1,3,3,2021-08-07 12:14:35,656854
-1,1,1,2,2,-1,1,0,2021-08-07 12:14:35,686851
-2,-2,-4,-2,-4,0,-2,-2,2021-08-07 12:14:35,686851
-4,-9,-5,-4,-2,-2,-2,-5,2021-08-07 12:14:35,686851
2,5,2,-2,-1,0,-1,1,2021-08-07 12:14:35,686851
-2,-4,-4,-12,-18,-9,-4,-3,2021-08-07 12:14:35,701854
1,2,4,8,14,5,2,2,2021-08-07 12:14:35,717876
0,-1,1,9,7,2,1,-1,2021-08-07 12:14:35,733854
-1,-3,-2,-1,-1,2,1,-1,2021-08-07 12:14:35,749852
-1,-2,0,5,5,2,0,-1,2021-08-07 12:14:35,749852
-1,1,-3,-13,-16,-8,-6,-1,2021-08-07 12:14:35,749852
-1,-2,-2,-4,-7,-4,-1,-1,2021-08-07 12:14:35,749852
0,-1,2,2,6,2,1,-1,2021-08-07 12:14:35,749852
0,-2,-4,-3,-4,-1,-1,-1,2021-08-07 12:14:35,749852
-3,-2,-4,-4,-4,-3,-1,-2,2021-08-07 12:14:35,749852
0,-1,1,-1,3,2,-1,0,2021-08-07 12:14:35,749852
-3,-1,0,-1,-1,-2,-1,-1,2021-08-07 12:14:35,749852
1,4,7,10,7,4,1,3,2021-08-07 12:14:35,765891
-3,-5,-5,-1,-4,-3,-4,-3,2021-08-07 12:14:35,781883
0,3,0,-6,-5,-2,0,0,2021-08-07 12:14:35,781883
3,4,2,2,0,1,1,2,2021-08-07 12:14:35,781883
1,0,2,5,6,2,2,0,2021-08-07 12:14:35,781883
1,1,0,0,-1,-1,0,-2,2021-08-07 12:14:35,781883
-3,-4,-4,-9,-11,-7,-4,-3,2021-08-07 12:14:35,781883
3,2,5,9,14,7,4,2,2021-08-07 12:14:35,782852
-3,-3,-2,0,1,-1,-1,-1,2021-08-07 12:14:35,829851
-5,-9,-7,-2,-1,-2,-2,-4,2021-08-07 12:14:35,829851
2,8,2,-3,-3,0,1,2,2021-08-07 12:14:35,829851
-3,-4,-5,-8,-10,-6,-4,-2,2021-08-07 12:14:35,829851
0,-2,-2,-6,-3,-2,-3,-1,2021-08-07 12:14:35,829851
1,0,4,11,13,6,2,1,2021-08-07 12:14:35,829851
-6,-8,-6,-4,-3,-3,-2,-2,2021-08-07 12:14:35,829851
1,5,5,4,5,3,2,1,2021-08-07 12:14:35,829851
5,7,4,0,-2,1,1,3,2021-08-07 12:14:35,845890
-2,1,1,-1,-2,-1,1,-1,2021-08-07 12:14:35,845890
-2,-4,-5,-3,-1,-3,-2,-1,2021-08-07 12:14:35,845890
-3,-3,-5,-5,-6,-4,-2,-3,2021-08-07 12:14:35,845890
-2,0,-1,-1,-1,2,1,-2,2021-08-07 12:14:35,861852
-2,-1,-2,-1,-5,-3,-2,-1,2021-08-07 12:14:35,877887
1,2,3,2,6,4,3,-1,2021-08-07 12:14:35,877887
-5,-4,-5,-8,-11,-6,-5,-2,2021-08-07 12:14:35,877887
2,0,2,10,8,6,2,3,2021-08-07 12:14:35,893851
-1,-3,-3,-4,-2,-2,-2,-2,2021-08-07 12:14:35,909852
-1,-1,-1,-1,-2,-1,-1,-2,2021-08-07 12:14:35,909852
3,3,2,0,3,2,0,1,2021-08-07 12:14:35,909852
-3,-3,-2,-4,-4,-4,-3,-3,2021-08-07 12:14:35,909852
-2,1,2,0,-2,-2,-2,-1,2021-08-07 12:14:35,909852
-1,0,-5,-6,-2,-1,-2,-1,2021-08-07 12:14:35,909852
-3,-6,-5,-4,-3,-3,-2,-3,2021-08-07 12:14:35,909852
1,0,2,1,4,2,1,-1,2021-08-07 12:14:35,925850
2,0,-2,-3,-5,-2,-1,0,2021-08-07 12:14:35,925850
-1,-4,1,2,5,2,0,0,2021-08-07 12:14:35,925850
2,2,1,-1,2,0,0,1,2021-08-07 12:14:35,925850
-2,1,-1,-4,-2,-3,-1,-1,2021-08-07 12:14:35,950851
-1,1,0,-2,-3,-2,-1,-2,2021-08-07 12:14:35,951854
1,-3,1,-2,-5,-2,0,2,2021-08-07 12:14:35,951854
-4,-3,-5,-1,-3,-2,-2,-3,2021-08-07 12:14:35,951854
-1,-1,1,2,5,1,-1,-1,2021-08-07 12:14:35,973852
2,1,-5,-13,-10,-4,-1,0,2021-08-07 12:14:35,989851
3,5,6,12,12,4,2,2,2021-08-07 12:14:35,989851
-1,-4,-5,-10,-15,-8,-3,-2,2021-08-07 12:14:35,989851
-2,-2,-1,3,6,0,-2,-3,2021-08-07 12:14:35,989851
-2,1,2,3,7,3,-1,0,2021-08-07 12:14:35,989851
-1,-1,-5,-5,-4,-3,-2,-2,2021-08-07 12:14:35,989851
1,2,2,5,1,2,1,-1,2021-08-07 12:14:36,005852
-1,-2,-3,-3,-3,-3,0,2,2021-08-07 12:14:36,021850
-2,-4,-3,-3,0,0,0,-2,2021-08-07 12:14:36,021850
-4,-3,-6,-5,-4,-3,-4,-3,2021-08-07 12:14:36,021850
3,3,1,-3,-1,-1,1,2,2021-08-07 12:14:36,021850
-2,-3,-6,-8,-6,-2,-5,-3,2021-08-07 12:14:36,036851
-3,-4,-2,-3,0,0,0,-1,2021-08-07 12:14:36,036851
-2,0,0,-2,-4,-3,-2,0,2021-08-07 12:14:36,036851
-2,-1,1,8,4,0,-1,-2,2021-08-07 12:14:36,036851
0,0,-3,-7,-4,0,1,2,2021-08-07 12:14:36,036851
-2,-4,0,0,-4,-5,-3,-2,2021-08-07 12:14:36,036851
-1,-1,0,1,0,0,1,-1,2021-08-07 12:14:36,052851
1,-1,4,15,19,9,3,1,2021-08-07 12:14:36,052851
1,1,1,-3,-4,0,-2,-2,2021-08-07 12:14:36,067852
-5,-1,-3,-4,-6,-4,-2,-3,2021-08-07 12:14:36,067852
2,4,3,6,2,2,1,1,2021-08-07 12:14:36,067852
1,0,-1,-1,-4,-2,0,0,2021-08-07 12:14:36,067852
-5,-5,-4,-5,-6,-2,-2,-3,2021-08-07 12:14:36,098850
0,1,-1,-4,-4,-3,-1,-1,2021-08-07 12:14:36,114851
2,2,4,1,-2,-2,-2,0,2021-08-07 12:14:36,129852
-6,-7,-8,-6,-1,-2,-3,-4,2021-08-07 12:14:36,145853
2,3,9,13,12,4,2,2,2021-08-07 12:14:36,160851
2,2,-1,-1,-4,1,0,1,2021-08-07 12:14:36,160851
-3,-3,-4,-6,-6,-4,-2,-2,2021-08-07 12:14:36,160851
-4,-3,-4,-4,-4,-3,-3,-2,2021-08-07 12:14:36,160851
-3,-3,-4,-8,-11,-7,-5,-3,2021-08-07 12:14:36,160851
-2,-2,-1,1,1,-2,-1,1,2021-08-07 12:14:36,160851
1,-1,1,4,7,4,1,-1,2021-08-07 12:14:36,161852
0,-2,-2,-1,-2,-1,0,-3,2021-08-07 12:14:36,161852
1,1,1,-2,0,0,1,1,2021-08-07 12:14:36,161852
-2,-2,-2,-1,-1,0,-1,0,2021-08-07 12:14:36,161852
-3,-4,-6,-5,-5,-3,-2,-3,2021-08-07 12:14:36,161852
2,5,4,5,4,2,3,2,2021-08-07 12:14:36,161852
0,-2,-3,0,3,2,0,2,2021-08-07 12:14:36,161852
-1,0,1,3,1,-1,-1,-1,2021-08-07 12:14:36,162853
-2,-1,-4,-7,-4,-2,0,1,2021-08-07 12:14:36,176851
-1,1,1,-2,0,0,-1,1,2021-08-07 12:14:36,192850
-3,-1,-2,4,0,0,-1,-2,2021-08-07 12:14:36,208850
1,0,0,4,3,2,1,0,2021-08-07 12:14:36,208850
-1,-3,-1,0,-2,-2,0,-1,2021-08-07 12:14:36,208850
0,0,-3,-7,-5,-3,-3,-1,2021-08-07 12:14:36,208850
-1,0,0,6,2,1,2,0,2021-08-07 12:14:36,208850
0,-1,1,4,3,1,0,-1,2021-08-07 12:14:36,208850
-3,-5,-4,-3,-4,-3,-4,-3,2021-08-07 12:14:36,208850
4,3,3,0,-2,-1,1,2,2021-08-07 12:14:36,209852
-3,-3,-3,-8,-3,-3,-1,-3,2021-08-07 12:14:36,240851
0,0,-2,0,0,-3,-3,-2,2021-08-07 12:14:36,240851
0,0,2,6,5,3,-1,1,2021-08-07 12:14:36,240851
-2,-2,-1,-2,-1,-2,-2,-1,2021-08-07 12:14:36,240851
0,2,-2,-7,-5,-2,-3,0,2021-08-07 12:14:36,256856
0,0,0,-2,-3,0,0,0,2021-08-07 12:14:36,256856
0,0,-1,-2,-2,-3,0,0,2021-08-07 12:14:36,256856
-6,-9,-8,-10,-7,-3,-2,-3,2021-08-07 12:14:36,256856
2,1,2,3,2,3,3,1,2021-08-07 12:14:36,272852
-2,-2,-1,1,2,2,-2,-4,2021-08-07 12:14:36,272852
-2,-1,1,1,-1,0,-3,-2,2021-08-07 12:14:36,272852
-2,1,2,6,5,0,-2,-1,2021-08-07 12:14:36,272852
-3,-5,-4,-3,-5,-5,-2,-2,2021-08-07 12:14:36,288852
2,2,1,-3,-2,0,1,2,2021-08-07 12:14:36,288852
4,4,1,1,-2,-1,-1,0,2021-08-07 12:14:36,288852
0,-1,-2,-3,-2,2,-1,2,2021-08-07 12:14:36,288852
-1,-3,-4,-3,-1,-1,-3,-3,2021-08-07 12:14:36,304852
-1,-4,-3,-3,0,-2,-1,-2,2021-08-07 12:14:36,304852
0,0,1,-1,1,0,1,0,2021-08-07 12:14:36,304852
-1,-2,0,0,-1,-2,-1,-2,2021-08-07 12:14:36,304852
-1,-3,-2,-1,-5,-4,-1,-1,2021-08-07 12:14:36,336896
-4,-2,-3,-3,-2,0,-1,0,2021-08-07 12:14:36,352853
-2,-1,-1,-3,0,-1,-1,-2,2021-08-07 12:14:36,352853
0,0,1,5,1,1,1,-1,2021-08-07 12:14:36,352853
-1,-3,0,1,-3,-2,-1,0,2021-08-07 12:14:36,352853
0,1,-1,-3,-2,-1,-2,0,2021-08-07 12:14:36,352853
-1,-3,0,4,2,0,-1,-1,2021-08-07 12:14:36,352853
0,1,1,2,1,-1,0,0,2021-08-07 12:14:36,352853
-1,0,-1,-2,-4,-3,-1,-1,2021-08-07 12:14:36,368853
-4,-3,-3,0,-1,-3,-1,-3,2021-08-07 12:14:36,384853
2,3,2,3,1,1,0,0,2021-08-07 12:14:36,384853
-1,-2,-3,-5,-2,-2,-1,-2,2021-08-07 12:14:36,384853
0,0,1,0,1,0,-1,-1,2021-08-07 12:14:36,384853
0,1,0,2,1,0,-1,-1,2021-08-07 12:14:36,384853
-2,-2,-1,-2,-1,-1,-1,-3,2021-08-07 12:14:36,384853
1,0,-1,-3,-4,-2,-1,-1,2021-08-07 12:14:36,385853
-2,0,-2,-3,-3,-1,-2,-1,2021-08-07 12:14:36,415855
-1,-3,-3,-1,1,-2,-1,-1,2021-08-07 12:14:36,415855
1,1,-1,-3,-6,-3,-2,0,2021-08-07 12:14:36,415855
-4,-4,-8,-9,-6,-5,-4,-4,2021-08-07 12:14:36,415855
2,2,0,3,5,1,2,1,2021-08-07 12:14:36,431852
2,2,7,14,12,6,3,2,2021-08-07 12:14:36,447853
0,1,1,3,5,3,1,3,2021-08-07 12:14:36,447853
0,1,-2,-3,-3,-1,0,0,2021-08-07 12:14:36,463891
-6,-7,-6,-8,-11,-8,-4,-4,2021-08-07 12:14:36,463891
1,3,-1,-6,-8,-4,-2,1,2021-08-07 12:14:36,463891
2,1,2,4,6,5,3,1,2021-08-07 12:14:36,463891
-3,-1,1,1,0,0,-1,0,2021-08-07 12:14:36,463891
-2,-2,-3,-2,-1,0,0,-2,2021-08-07 12:14:36,479851
0,1,1,1,-2,2,0,0,2021-08-07 12:14:36,479851
-1,-2,-2,-5,-3,-3,-3,-2,2021-08-07 12:14:36,479851
-2,0,2,2,3,2,-1,1,2021-08-07 12:14:36,479851
-2,-1,-2,1,1,-1,0,-2,2021-08-07 12:14:36,480853
-2,-3,-3,-6,-6,-1,-2,-1,2021-08-07 12:14:36,480853
-2,-2,-1,0,0,0,1,-1,2021-08-07 12:14:36,480853
1,0,2,-1,1,0,2,0,2021-08-07 12:14:36,480853
1,-1,-1,-5,-8,-4,-3,-3,2021-08-07 12:14:36,511852
-2,1,0,0,5,1,0,-1,2021-08-07 12:14:36,527852
-3,-2,-2,1,-4,-3,-2,0,2021-08-07 12:14:36,527852
-2,-1,-1,1,4,2,2,0,2021-08-07 12:14:36,527852
1,4,3,6,3,1,-1,2,2021-08-07 12:14:36,527852
-4,-4,-3,-7,-5,-4,-2,-3,2021-08-07 12:14:36,543851
1,2,1,-1,2,0,0,0,2021-08-07 12:14:36,558852
-4,-5,-4,-5,-5,-4,-1,-3,2021-08-07 12:14:36,558852
-5,-5,-8,-21,-21,-9,-8,-3,2021-08-07 12:14:36,558852
1,2,8,19,28,12,5,2,2021-08-07 12:14:36,558852
0,0,-1,2,0,0,1,-1,2021-08-07 12:14:36,558852
0,0,-1,-1,-1,0,0,0,2021-08-07 12:14:36,558852
-1,-2,1,3,-1,-1,-1,-2,2021-08-07 12:14:36,574850
0,-2,-3,-4,-5,-3,-2,-1,2021-08-07 12:14:36,574850
-1,-3,-2,-4,-3,-2,-1,-1,2021-08-07 12:14:36,574850
3,3,2,3,0,1,-1,-1,2021-08-07 12:14:36,574850
-2,-3,-1,-1,-1,-1,0,-2,2021-08-07 12:14:36,590852
1,0,-4,-5,-7,-3,-2,1,2021-08-07 12:14:36,590852
-2,-2,-1,2,4,0,0,-2,2021-08-07 12:14:36,590852
0,1,1,0,-4,-1,0,1,2021-08-07 12:14:36,590852
1,0,1,0,0,-2,1,0,2021-08-07 12:14:36,606852
-5,-8,-7,-10,-8,-4,-4,-4,2021-08-07 12:14:36,606852
5,5,6,12,8,7,3,3,2021-08-07 12:14:36,606852
0,1,2,2,0,-1,-1,0,2021-08-07 12:14:36,606852
0,-1,0,3,8,3,1,0,2021-08-07 12:14:36,637886
-2,-1,-4,-3,-8,-5,-2,-2,2021-08-07 12:14:36,653887
-7,-8,-8,-15,-16,-11,-6,-6,2021-08-07 12:14:36,653887
3,3,5,12,15,9,5,3,2021-08-07 12:14:36,653887
2,1,2,3,1,1,1,0,2021-08-07 12:14:36,653887
-2,-2,-3,-4,-6,-4,-2,1,2021-08-07 12:14:36,653887
-1,-2,-3,-6,-3,-3,-4,-2,2021-08-07 12:14:36,653887
0,-1,-2,-4,-9,-6,-2,-1,2021-08-07 12:14:36,654886
1,1,1,2,12,6,3,2,2021-08-07 12:14:36,669887
0,0,4,7,7,2,1,0,2021-08-07 12:14:36,685887
1,3,1,-1,-2,0,1,3,2021-08-07 12:14:36,685887
-3,-5,-3,-1,0,-4,-4,-2,2021-08-07 12:14:36,685887
-1,-1,-4,-7,-5,-4,-2,-1,2021-08-07 12:14:36,701889
-1,-3,-4,-7,-10,-5,0,-3,2021-08-07 12:14:36,701889
-1,-3,-2,-3,-3,-1,-1,-1,2021-08-07 12:14:36,701889
-4,-3,-4,-10,-11,-8,-6,-4,2021-08-07 12:14:36,701889
0,1,0,9,10,6,1,1,2021-08-07 12:14:36,717885
3,3,7,13,11,5,2,1,2021-08-07 12:14:36,717885
2,1,1,-1,0,2,2,1,2021-08-07 12:14:36,717885
-2,-3,-2,0,-3,-1,-1,-1,2021-08-07 12:14:36,717885
-7,-6,-5,-7,-10,-5,-4,-4,2021-08-07 12:14:36,733887
-2,-1,-3,-5,-4,-3,-2,-2,2021-08-07 12:14:36,749886
2,1,0,-1,-2,0,0,1,2021-08-07 12:14:36,765886
0,-1,0,-2,0,-1,-1,-1,2021-08-07 12:14:36,765886
2,0,1,3,1,0,1,1,2021-08-07 12:14:36,765886
-1,1,-1,-3,-2,-3,0,-1,2021-08-07 12:14:36,765886
-1,-1,0,-1,-2,-3,-2,-1,2021-08-07 12:14:36,766889
0,0,0,0,1,0,1,0,2021-08-07 12:14:36,766889
-1,0,1,-2,0,0,-1,-1,2021-08-07 12:14:36,766889
-1,0,-2,-2,-2,-1,-2,-3,2021-08-07 12:14:36,766889
-2,-1,-3,-4,-2,-4,-1,-1,2021-08-07 12:14:36,766889
-1,1,1,4,3,1,0,0,2021-08-07 12:14:36,766889
0,1,-2,-2,1,1,-1,0,2021-08-07 12:14:36,797888
1,-3,0,-1,-4,-3,-2,-1,2021-08-07 12:14:36,813886
0,-1,1,-1,0,0,-2,-1,2021-08-07 12:14:36,813886
3,-1,0,1,1,1,-1,1,2021-08-07 12:14:36,813886
-1,1,0,-1,-2,-1,1,-1,2021-08-07 12:14:36,813886
-1,-2,-3,-2,0,-1,-2,0,2021-08-07 12:14:36,813886
-4,-3,-2,-1,-2,-1,-1,-1,2021-08-07 12:14:36,814887
0,-1,0,3,0,1,1,-1,2021-08-07 12:14:36,814887
-1,-3,-2,-2,-4,-3,-2,-3,2021-08-07 12:14:36,843887
-2,-1,0,0,-2,-1,0,0,2021-08-07 12:14:36,844147
4,3,4,5,3,2,2,1,2021-08-07 12:14:36,844147
-1,0,-1,-2,1,-1,-1,0,2021-08-07 12:14:36,844147
-2,-4,-2,-1,-2,-2,-1,-2,2021-08-07 12:14:36,844147
1,2,2,-2,1,1,0,1,2021-08-07 12:14:36,844147
-3,-3,-4,-5,-5,-1,-3,-2,2021-08-07 12:14:36,859406
-1,1,2,4,4,2,0,-1,2021-08-07 12:14:36,859406
0,-3,0,0,-2,-3,-1,-3,2021-08-07 12:14:36,875405
-2,-5,-6,-5,1,0,-1,-2,2021-08-07 12:14:36,875405
1,2,2,2,2,2,0,0,2021-08-07 12:14:36,875405
0,-1,-2,-1,-2,-1,-2,-1,2021-08-07 12:14:36,875405
-5,-3,-3,-6,-9,-6,-3,-3,2021-08-07 12:14:36,891404
-2,-4,-3,0,1,-1,0,0,2021-08-07 12:14:36,891404
0,0,0,4,2,0,0,1,2021-08-07 12:14:36,891404
-1,-1,0,1,3,1,1,-1,2021-08-07 12:14:36,891404
-1,0,0,1,0,1,0,1,2021-08-07 12:14:36,907409
-3,0,1,2,-4,-2,-1,-1,2021-08-07 12:14:36,907409
-1,-3,-3,-6,-3,-4,-2,-1,2021-08-07 12:14:36,907409
-2,-3,-1,-5,-4,-2,0,-1,2021-08-07 12:14:36,907409
-1,0,1,-1,1,-1,-1,-1,2021-08-07 12:14:36,939405
1,1,1,-1,-2,0,-1,0,2021-08-07 12:14:36,955407
-2,0,-2,1,2,1,1,-2,2021-08-07 12:14:36,987408
1,0,-2,-2,-3,-2,0,0,2021-08-07 12:14:36,987408
2,1,-1,2,3,2,0,0,2021-08-07 12:14:36,987408
-1,-1,0,-2,0,-1,-2,-1,2021-08-07 12:14:36,987408
-2,-4,0,3,1,-1,-1,-1,2021-08-07 12:14:36,987408
-1,0,1,-1,-2,-1,-1,0,2021-08-07 12:14:36,988414
-2,-2,-3,-3,-3,-2,-1,-2,2021-08-07 12:14:36,988414
1,5,0,-1,-5,-2,0,2,2021-08-07 12:14:36,988414
2,2,1,0,1,1,1,-1,2021-08-07 12:14:36,988414
-1,-1,-3,2,0,0,-1,0,2021-08-07 12:14:36,988414
-3,-2,-3,-3,-3,-3,-2,-1,2021-08-07 12:14:36,988414
-1,-3,-2,-4,2,0,-2,-2,2021-08-07 12:14:36,988414
-2,0,2,3,-1,-3,-3,-2,2021-08-07 12:14:36,988414
0,2,-1,0,-1,-1,-1,0,2021-08-07 12:14:36,989410
1,0,1,-1,-2,-1,-2,0,2021-08-07 12:14:37,019446
-2,-4,-3,-4,-3,-3,0,0,2021-08-07 12:14:37,019446
0,-3,-5,-6,-4,1,1,1,2021-08-07 12:14:37,019446
-1,-3,-3,-1,2,1,0,0,2021-08-07 12:14:37,019446
-3,-2,-2,-3,-1,-1,-1,-2,2021-08-07 12:14:37,019446
-4,-1,-1,1,0,-1,-2,-3,2021-08-07 12:14:37,019446
-2,-1,1,-2,-1,-3,-3,-2,2021-08-07 12:14:37,035434
-1,0,3,2,0,-1,-2,-3,2021-08-07 12:14:37,035434
0,0,0,-3,-1,-2,-2,-1,2021-08-07 12:14:37,051408
0,-1,-1,3,2,1,0,0,2021-08-07 12:14:37,051408
-1,-2,-2,-1,-1,-2,0,-1,2021-08-07 12:14:37,051408
3,0,-3,-7,-6,-2,0,1,2021-08-07 12:14:37,051408
2,2,0,2,4,1,2,1,2021-08-07 12:14:37,082406
-1,-2,-2,-1,-2,-2,1,-1,2021-08-07 12:14:37,098449
-5,-4,-3,-2,-2,-3,-2,0,2021-08-07 12:14:37,098449
-2,0,-1,-1,-2,-2,-3,-1,2021-08-07 12:14:37,098449
0,1,0,1,0,2,-1,1,2021-08-07 12:14:37,098449
-1,0,1,-2,1,0,-1,1,2021-08-07 12:14:37,098449
-1,-3,-4,1,0,1,1,-4,2021-08-07 12:14:37,098449
-2,-2,-1,-1,-1,0,-3,-3,2021-08-07 12:14:37,098449
-2,-2,-3,3,4,2,-1,0,2021-08-07 12:14:37,114406
0,2,-1,-5,-7,-2,-3,-2,2021-08-07 12:14:37,130406
1,-1,0,-3,-2,-1,-2,0,2021-08-07 12:14:37,130406
-2,-2,-3,-8,-5,-3,-1,-1,2021-08-07 12:14:37,130406
0,-1,0,-2,-3,-2,-1,-1,2021-08-07 12:14:37,130406
-1,-1,-1,5,5,3,1,-2,2021-08-07 12:14:37,130406
0,-1,0,1,1,2,1,2,2021-08-07 12:14:37,130406
0,3,-3,-6,-6,-2,1,1,2021-08-07 12:14:37,131407
-3,-1,-1,-1,0,-2,0,-1,2021-08-07 12:14:37,146406
2,-1,1,4,1,-1,0,-1,2021-08-07 12:14:37,162405
-1,-1,-1,0,-1,-1,-3,-3,2021-08-07 12:14:37,162405
-3,-4,-3,-1,-1,-2,-3,-2,2021-08-07 12:14:37,162405
-1,-2,0,-3,-2,0,-1,0,2021-08-07 12:14:37,162405
-2,-1,0,-2,-1,-2,-2,-1,2021-08-07 12:14:37,162405
2,3,0,-2,-1,1,0,1,2021-08-07 12:14:37,178406
0,-2,0,1,0,-1,0,-2,2021-08-07 12:14:37,178406
-1,-3,0,0,-4,-3,-2,-2,2021-08-07 12:14:37,194408
1,-1,-4,-3,1,2,3,2,2021-08-07 12:14:37,210437
-2,-1,-1,-1,-3,0,1,-1,2021-08-07 12:14:37,210437
-3,-4,-1,4,5,0,0,-2,2021-08-07 12:14:37,210437
1,0,1,1,-1,0,0,-1,2021-08-07 12:14:37,210437
-2,-3,-3,-4,-6,-4,-3,-3,2021-08-07 12:14:37,210437
0,0,-3,-5,-4,-3,-2,1,2021-08-07 12:14:37,210437
1,1,5,8,4,4,2,0,2021-08-07 12:14:37,210437
-3,-3,-3,-3,-2,-1,-1,0,2021-08-07 12:14:37,242435
-3,-1,-1,-1,0,0,-1,-2,2021-08-07 12:14:37,258466
-1,-2,-2,3,2,2,0,-1,2021-08-07 12:14:37,290438
0,1,1,-2,-4,-2,-2,-2,2021-08-07 12:14:37,305440
-2,-1,-4,-5,-6,-4,-3,-1,2021-08-07 12:14:37,305440
-1,0,1,3,2,0,1,0,2021-08-07 12:14:37,305440
-3,-1,-1,-2,-1,-2,-2,-1,2021-08-07 12:14:37,335443
-3,-2,-1,0,-1,-1,0,-1,2021-08-07 12:14:37,335443
-3,-5,-4,-5,-6,-3,-4,-2,2021-08-07 12:14:37,336478
1,2,2,1,1,0,-1,0,2021-08-07 12:14:37,336478
3,2,1,3,2,2,1,1,2021-08-07 12:14:37,336478
1,1,0,0,0,1,-1,1,2021-08-07 12:14:37,336478
-3,-1,0,-2,0,-1,0,-2,2021-08-07 12:14:37,336478
-2,-3,-1,1,0,0,-2,-2,2021-08-07 12:14:37,336478
-1,-1,0,-2,-1,-1,0,-1,2021-08-07 12:14:37,337437
-2,-1,-2,-4,-4,-2,-3,-1,2021-08-07 12:14:37,337437
-2,-3,-3,-2,0,0,1,0,2021-08-07 12:14:37,337437
0,1,-1,-7,-9,-5,-3,-1,2021-08-07 12:14:37,337437
-2,1,1,-1,5,2,0,0,2021-08-07 12:14:37,337437
-1,-2,3,9,4,-1,0,-1,2021-08-07 12:14:37,337437
0,1,2,4,4,1,1,0,2021-08-07 12:14:37,337437
0,0,1,3,0,0,0,0,2021-08-07 12:14:37,338437
-1,1,-2,-8,-9,-4,-2,-1,2021-08-07 12:14:37,338437
-5,-3,-4,-4,-1,-3,-2,-2,2021-08-07 12:14:37,338437
2,4,4,5,3,3,1,0,2021-08-07 12:14:37,352439
-2,-1,-4,-5,-2,-2,-2,0,2021-08-07 12:14:37,352439
-1,-2,-3,0,-2,-1,-1,-1,2021-08-07 12:14:37,352439
-1,-1,-2,-2,0,-1,0,0,2021-08-07 12:14:37,352439
-1,-1,0,5,1,-2,-1,0,2021-08-07 12:14:37,383436
-3,-1,-3,-7,-9,-4,-2,-1,2021-08-07 12:14:37,399465
-1,-1,0,-2,6,2,-1,-2,2021-08-07 12:14:37,415479
3,1,1,10,6,3,3,1,2021-08-07 12:14:37,415743
-1,-2,-3,-2,-4,-3,-2,-1,2021-08-07 12:14:37,415743
-3,-2,1,1,1,-2,-1,-2,2021-08-07 12:14:37,415743
-1,-4,-6,-8,-7,-5,-3,-1,2021-08-07 12:14:37,415743
0,2,0,-2,-2,-1,-1,-1,2021-08-07 12:14:37,415743
-1,-2,-3,-3,1,-1,-3,-2,2021-08-07 12:14:37,416439
-1,-3,-3,-2,-4,-1,-1,-1,2021-08-07 12:14:37,416439
-1,-2,-1,-2,-5,-2,-1,1,2021-08-07 12:14:37,416439
0,-4,-2,-1,3,2,-2,-2,2021-08-07 12:14:37,416439
-3,-4,-4,-3,-3,-3,-3,-3,2021-08-07 12:14:37,431438
2,2,2,1,2,3,1,1,2021-08-07 12:14:37,431438
-2,0,2,6,5,1,3,0,2021-08-07 12:14:37,431438
-2,-1,-3,-3,-3,-2,-1,0,2021-08-07 12:14:37,431438
-2,0,0,0,0,-2,-2,1,2021-08-07 12:14:37,463482
-2,-3,-3,-2,0,-1,-2,-1,2021-08-07 12:14:37,463482
0,-1,-1,0,-3,-3,-2,-1,2021-08-07 12:14:37,463482
1,0,0,0,0,1,0,0,2021-08-07 12:14:37,463482
0,2,0,0,-2,-1,2,-2,2021-08-07 12:14:37,463482
-2,-2,-1,-3,-1,-3,0,0,2021-08-07 12:14:37,463482
0,2,6,17,7,4,1,1,2021-08-07 12:14:37,479439
-2,-2,-2,-3,3,0,0,-1,2021-08-07 12:14:37,479439
0,-2,-1,-3,-2,-2,-2,-3,2021-08-07 12:14:37,494464
0,-1,-1,0,-2,-1,0,0,2021-08-07 12:14:37,494464
-3,-3,-2,-3,-6,-4,-2,-1,2021-08-07 12:14:37,510435
-1,-3,-4,-7,-4,-4,-2,0,2021-08-07 12:14:37,526436
0,0,2,5,4,0,1,-1,2021-08-07 12:14:37,526436
-3,-4,-1,-3,-3,-4,-4,-3,2021-08-07 12:14:37,526436
0,1,1,1,2,0,-1,0,2021-08-07 12:14:37,542479
0,0,-1,-7,-3,0,-1,-1,2021-08-07 12:14:37,558465
-1,-2,-4,-2,0,1,1,-1,2021-08-07 12:14:37,558465
-3,-4,-4,-1,0,-2,-2,-4,2021-08-07 12:14:37,558465
2,1,-2,0,0,1,1,1,2021-08-07 12:14:37,558465
0,1,-1,-3,-6,-2,-2,-1,2021-08-07 12:14:37,558465
-3,-3,-3,-5,-5,-4,-2,-1,2021-08-07 12:14:37,558465
3,4,6,13,12,7,6,4,2021-08-07 12:14:37,559437
-2,0,1,0,-3,-1,-1,-2,2021-08-07 12:14:37,559437
-1,-1,-3,-4,-5,-2,-1,-2,2021-08-07 12:14:37,559437
-2,-2,-4,-8,-2,-3,-2,0,2021-08-07 12:14:37,574434
2,0,2,7,2,0,0,0,2021-08-07 12:14:37,574434
0,-4,-5,-5,-1,-1,-1,-2,2021-08-07 12:14:37,590436
-1,-1,0,2,1,0,1,2,2021-08-07 12:14:37,590436
0,1,0,-4,-1,-1,-1,0,2021-08-07 12:14:37,590436
-3,-2,-2,-4,-3,-1,-1,-2,2021-08-07 12:14:37,590436
-2,-1,-3,-4,-5,-5,-2,-1,2021-08-07 12:14:37,590436
-4,-3,-5,-9,-9,-6,-5,-4,2021-08-07 12:14:37,591436
2,1,4,9,8,5,2,2,2021-08-07 12:14:37,622438
0,1,0,0,2,0,2,0,2021-08-07 12:14:37,638436
0,-1,-1,-2,-1,-1,-1,0,2021-08-07 12:14:37,654435
-1,-2,-2,-3,-4,-2,-2,-2,2021-08-07 12:14:37,654435
-2,-1,0,1,0,0,-2,0,2021-08-07 12:14:37,654435
0,-1,-2,-1,-3,-2,-3,0,2021-08-07 12:14:37,654435
-3,-5,-1,-3,-4,-3,-1,-4,2021-08-07 12:14:37,654435
-1,0,0,0,3,-1,1,2,2021-08-07 12:14:37,654435
-1,0,0,-1,0,-1,0,-1,2021-08-07 12:14:37,655436
-2,-3,-2,-2,-4,-2,-2,-1,2021-08-07 12:14:37,655436
2,2,0,0,4,1,0,1,2021-08-07 12:14:37,655436
0,0,1,8,3,-2,-2,0,2021-08-07 12:14:37,655436
0,-1,-3,-5,-4,-3,-1,-1,2021-08-07 12:14:37,685436
-1,-1,-1,-2,0,-1,2,1,2021-08-07 12:14:37,701436
-1,0,0,0,-1,0,0,0,2021-08-07 12:14:37,716436
-1,-1,0,3,0,0,-1,-1,2021-08-07 12:14:37,716436
-3,-2,-5,-1,-3,-2,-1,-1,2021-08-07 12:14:37,716436
-2,0,-3,-3,-2,0,0,-2,2021-08-07 12:14:37,716436
-1,-1,-1,-4,-4,-2,-2,-1,2021-08-07 12:14:37,716436
-1,1,4,6,4,2,0,-2,2021-08-07 12:14:37,716436
-3,-2,-1,-1,-2,-2,-2,-1,2021-08-07 12:14:37,717435
0,0,-1,-1,-1,1,-2,-1,2021-08-07 12:14:37,717435
-1,-3,-3,-3,1,0,0,0,2021-08-07 12:14:37,717435
-2,-1,1,-3,-4,-4,-1,-2,2021-08-07 12:14:37,717435
0,-1,0,2,0,0,0,0,2021-08-07 12:14:37,732671
-2,-2,-2,-2,0,-2,1,0,2021-08-07 12:14:37,732671
1,2,2,2,0,1,0,0,2021-08-07 12:14:37,732671
-2,-1,-3,-2,1,-1,-2,-1,2021-08-07 12:14:37,732671
-2,0,0,0,0,0,0,-1,2021-08-07 12:14:37,764437
-1,1,-1,-1,-1,1,-2,1,2021-08-07 12:14:37,764437
-4,-3,-2,-2,-2,-3,-3,-1,2021-08-07 12:14:37,764437
1,2,0,-2,-3,2,2,1,2021-08-07 12:14:37,764437
-3,-3,-1,-1,-1,-1,-2,-3,2021-08-07 12:14:37,764437
2,3,2,4,2,1,2,2,2021-08-07 12:14:37,765436
0,1,0,1,-3,0,-2,-2,2021-08-07 12:14:37,795437
-2,-1,-1,-2,1,1,0,0,2021-08-07 12:14:37,795437
0,0,-2,3,-1,-1,-1,-2,2021-08-07 12:14:37,796437
-2,-1,-2,-5,-3,-1,0,0,2021-08-07 12:14:37,796437
0,-1,-2,0,-2,-2,-1,1,2021-08-07 12:14:37,796437
-2,-3,-4,-5,-4,-3,-1,-2,2021-08-07 12:14:37,796437
-1,-2,-1,-3,-4,-2,-2,0,2021-08-07 12:14:37,827435
3,0,1,1,2,2,1,-1,2021-08-07 12:14:37,843436
1,1,0,2,2,0,1,1,2021-08-07 12:14:37,858436
-3,-3,-6,-7,-4,-3,-1,-2,2021-08-07 12:14:37,858436
-1,-3,0,0,0,1,-1,-2,2021-08-07 12:14:37,858436
-2,-3,-3,1,0,0,1,-2,2021-08-07 12:14:37,858436
-1,3,2,-2,-1,0,0,0,2021-08-07 12:14:37,858436
-2,0,2,5,3,0,-1,-3,2021-08-07 12:14:37,858436
-3,-1,0,3,0,0,1,-1,2021-08-07 12:14:37,858436
-3,-1,2,-3,-5,-5,-3,-3,2021-08-07 12:14:37,859437
0,-3,-3,-4,0,-3,-3,-2,2021-08-07 12:14:37,859437
-1,-2,1,-3,-3,-2,-2,-2,2021-08-07 12:14:37,859437
5,3,1,1,5,1,2,1,2021-08-07 12:14:37,874434
0,0,-3,-2,-5,-1,-2,0,2021-08-07 12:14:37,890436
-1,-3,-2,-1,1,0,0,-1,2021-08-07 12:14:37,922436
-1,-1,1,0,-1,-1,-1,-1,2021-08-07 12:14:37,938435
1,-1,-3,-2,-2,-1,-1,-3,2021-08-07 12:14:37,938435
-3,-3,-2,-3,-2,-3,-2,-1,2021-08-07 12:14:37,938435
2,1,2,2,0,0,-1,1,2021-08-07 12:14:37,954434
0,-1,-2,-7,-3,1,0,-1,2021-08-07 12:14:37,970436
-1,0,2,4,1,1,-2,0,2021-08-07 12:14:37,970436
-3,-4,-2,-2,-2,-2,-4,-3,2021-08-07 12:14:37,970436
0,1,1,-1,0,0,3,0,2021-08-07 12:14:37,970436
0,-1,2,5,2,1,1,-2,2021-08-07 12:14:37,970436
0,0,-3,-5,-1,-1,-1,-1,2021-08-07 12:14:37,970436
-1,-2,-2,-2,-1,-1,-1,-2,2021-08-07 12:14:37,970436
-2,-3,-1,-2,-3,-3,-2,-3,2021-08-07 12:14:37,971437
-1,-2,1,1,0,0,-1,0,2021-08-07 12:14:37,971437
-1,-1,-3,-7,-4,-2,0,-2,2021-08-07 12:14:37,971437
-1,-1,-2,3,0,0,-3,-2,2021-08-07 12:14:37,971437
0,-3,0,-2,-2,-2,-1,0,2021-08-07 12:14:37,971437
-2,-2,-2,3,3,1,-1,-2,2021-08-07 12:14:37,971437
-2,0,1,0,-1,-1,0,0,2021-08-07 12:14:37,971437
-1,-2,3,-1,-2,-4,-2,0,2021-08-07 12:14:37,971437
-1,-3,-3,-6,-2,-1,2,-1,2021-08-07 12:14:37,972437
4,4,1,1,0,2,2,2,2021-08-07 12:14:37,972437
-2,-1,-5,3,2,0,-4,-2,2021-08-07 12:14:38,002436
1,5,17,12,7,3,1,-2,2021-08-07 12:14:38,002436
-3,0,-1,1,-1,-2,-4,-1,2021-08-07 12:14:38,002436
0,-2,-21,-8,-3,0,0,0,2021-08-07 12:14:38,002436
-6,-5,-10,-20,-12,-8,-6,-3,2021-08-07 12:14:38,002436
-1,-2,-6,-8,-2,-1,1,0,2021-08-07 12:14:38,002436
-1,1,9,7,0,0,-2,-1,2021-08-07 12:14:38,018435
-1,0,9,8,5,1,-1,1,2021-08-07 12:14:38,018435
5,3,2,5,2,2,2,1,2021-08-07 12:14:38,034436
-2,-3,-4,-5,-4,-3,-2,-3,2021-08-07 12:14:38,034436
2,4,2,0,1,0,1,0,2021-08-07 12:14:38,034436
0,-2,-1,-1,-2,-3,-3,-1,2021-08-07 12:14:38,050436
-1,0,1,1,1,1,0,-1,2021-08-07 12:14:38,050436
-4,-1,-1,-5,-5,-4,-2,-1,2021-08-07 12:14:38,050436
-4,-5,-8,-8,-2,-2,-2,-4,2021-08-07 12:14:38,050436
0,-2,0,5,6,2,1,1,2021-08-07 12:14:38,050436
-1,-3,3,2,-2,-2,-2,-1,2021-08-07 12:14:38,066436
0,-1,-2,-3,-1,2,0,0,2021-08-07 12:14:38,082436
1,0,-3,3,0,0,0,1,2021-08-07 12:14:38,082436
-3,-3,1,-1,-6,-3,-4,-4,2021-08-07 12:14:38,082436
-2,0,0,1,-2,-1,0,0,2021-08-07 12:14:38,098436
0,-1,-6,-3,-2,0,-1,-1,2021-08-07 12:14:38,098436
-1,0,-2,-6,-4,0,-1,0,2021-08-07 12:14:38,098436
0,1,4,5,5,0,2,2,2021-08-07 12:14:38,098436
1,1,5,11,5,3,1,1,2021-08-07 12:14:38,114438
0,-1,-1,3,2,0,1,-1,2021-08-07 12:14:38,130437
-2,-1,-2,0,-3,-4,-3,-2,2021-08-07 12:14:38,146437
1,2,3,-3,-2,-3,-1,0,2021-08-07 12:14:38,146437
-1,-2,-3,-2,-1,0,-1,0,2021-08-07 12:14:38,146437
-1,2,1,4,6,3,1,0,2021-08-07 12:14:38,146437
-2,0,2,6,7,3,-1,1,2021-08-07 12:14:38,146437
-2,0,-3,-5,-8,-4,-2,-2,2021-08-07 12:14:38,147441
-3,-5,-5,-7,-7,-5,-3,-3,2021-08-07 12:14:38,147441
0,-2,-2,-3,-3,-2,-1,0,2021-08-07 12:14:38,147441
2,2,1,2,1,0,2,-1,2021-08-07 12:14:38,147441
1,0,-1,2,1,3,-2,1,2021-08-07 12:14:38,147441
0,0,0,0,5,2,1,-1,2021-08-07 12:14:38,178442
-4,-5,-5,-9,-6,-5,-4,-3,2021-08-07 12:14:38,193439
2,0,-2,-2,-2,-2,0,1,2021-08-07 12:14:38,193666
-1,-1,4,0,2,0,-1,-1,2021-08-07 12:14:38,193666
0,-1,-1,-2,-2,-1,0,-2,2021-08-07 12:14:38,209438
2,0,3,5,3,3,0,1,2021-08-07 12:14:38,209438
-1,-4,-7,-1,2,1,1,-1,2021-08-07 12:14:38,209438
0,1,0,-6,-8,-4,0,1,2021-08-07 12:14:38,209438
-2,-2,-3,-3,-2,-3,-3,-1,2021-08-07 12:14:38,209438
-1,-3,-2,0,-1,-1,-1,2,2021-08-07 12:14:38,209438
-2,-2,-2,-1,-3,0,-2,-1,2021-08-07 12:14:38,225435
0,-1,0,0,-4,-2,0,-1,2021-08-07 12:14:38,225435
-4,-2,-2,-1,-1,0,1,-1,2021-08-07 12:14:38,241462
1,2,0,3,3,2,1,1,2021-08-07 12:14:38,241462
0,0,2,3,3,2,0,-1,2021-08-07 12:14:38,255476
0,-1,-3,-7,-4,-2,-2,-1,2021-08-07 12:14:38,256437
-1,-1,0,4,-1,0,-2,0,2021-08-07 12:14:38,256437
-2,-2,-3,-3,-5,-3,-2,-1,2021-08-07 12:14:38,256437
-1,-1,0,0,-1,0,1,-2,2021-08-07 12:14:38,256437
-3,-3,-1,1,0,-2,-2,-4,2021-08-07 12:14:38,256437
2,3,5,3,2,0,2,0,2021-08-07 12:14:38,273435
-2,0,-3,2,2,-2,2,-1,2021-08-07 12:14:38,273435
3,3,3,1,0,-1,1,0,2021-08-07 12:14:38,273435
-2,-3,-3,-5,-6,-3,-3,-2,2021-08-07 12:14:38,273435
-1,-2,-4,-4,-4,0,-2,-1,2021-08-07 12:14:38,305462
-1,0,-1,-2,-3,-1,-1,0,2021-08-07 12:14:38,321437
-3,-4,-3,-4,-3,-3,-2,-3,2021-08-07 12:14:38,321437
-3,-6,-5,-3,-1,-3,-1,-2,2021-08-07 12:14:38,321437
5,5,2,3,3,0,1,3,2021-08-07 12:14:38,321437
0,0,-2,0,-3,-2,-1,-1,2021-08-07 12:14:38,321437
-2,0,0,1,5,1,0,1,2021-08-07 12:14:38,321437
-3,-4,0,0,-1,0,-1,-1,2021-08-07 12:14:38,321437
-3,-3,-7,-3,-2,-1,-2,-3,2021-08-07 12:14:38,337437
-1,-2,2,-2,-3,0,-1,-1,2021-08-07 12:14:38,353436
0,-1,-1,1,-1,0,0,0,2021-08-07 12:14:38,369437
-2,-2,-2,0,0,-1,-1,0,2021-08-07 12:14:38,369437
-3,-4,-1,-4,-5,-4,-2,-3,2021-08-07 12:14:38,369437
2,4,3,-1,-1,0,1,1,2021-08-07 12:14:38,369437
-2,-2,0,1,3,2,-1,-1,2021-08-07 12:14:38,385436
-1,-1,-2,-5,-6,-3,-1,-2,2021-08-07 12:14:38,385436
-2,-2,-3,-4,-2,-2,-2,-3,2021-08-07 12:14:38,385436
-2,-4,1,2,-1,0,-2,-3,2021-08-07 12:14:38,385436
3,4,2,7,7,4,1,3,2021-08-07 12:14:38,385436
0,0,1,3,-1,0,-1,-1,2021-08-07 12:14:38,385436
-1,-4,-3,-3,-4,-4,-2,-2,2021-08-07 12:14:38,385436
-2,-2,-1,0,3,2,0,-1,2021-08-07 12:14:38,386437
-2,-2,-3,-3,-5,-2,-2,-2,2021-08-07 12:14:38,417435
-2,-2,-4,-3,-3,-4,-2,-2,2021-08-07 12:14:38,433438
1,-1,1,-3,-2,0,0,2,2021-08-07 12:14:38,433438
-2,-2,-2,-1,-2,-2,0,-1,2021-08-07 12:14:38,433438
-1,-2,-4,-7,-6,-3,-2,-2,2021-08-07 12:14:38,433438
1,4,4,6,5,3,0,1,2021-08-07 12:14:38,433438
-2,-1,-1,0,0,-1,-2,-2,2021-08-07 12:14:38,433438
0,0,-1,-2,0,0,-1,1,2021-08-07 12:14:38,433438
-3,-2,0,-2,-3,-3,-3,-2,2021-08-07 12:14:38,434437
-1,-3,-4,-2,-1,-2,-2,-2,2021-08-07 12:14:38,434437
-2,0,1,-1,-3,-1,-1,-1,2021-08-07 12:14:38,464438
1,2,1,2,1,-1,-1,-1,2021-08-07 12:14:38,464438
0,-1,-2,-5,-3,0,0,0,2021-08-07 12:14:38,464438
-4,-4,-4,-4,-4,-3,-2,-2,2021-08-07 12:14:38,464438
0,1,1,2,8,2,2,1,2021-08-07 12:14:38,480436
1,1,3,4,2,1,1,-1,2021-08-07 12:14:38,496438
-3,-3,-1,-3,-3,-4,-1,-2,2021-08-07 12:14:38,496438
1,2,0,1,0,1,0,1,2021-08-07 12:14:38,496438
-1,-2,-3,-5,-5,-3,-1,-1,2021-08-07 12:14:38,496438
0,0,-2,0,-1,-1,0,1,2021-08-07 12:14:38,496438
0,0,-1,0,2,-1,-1,0,2021-08-07 12:14:38,496438
-3,-2,-2,-2,-1,-1,0,-3,2021-08-07 12:14:38,496438
-4,-4,-5,-6,-8,-5,-4,-3,2021-08-07 12:14:38,512437
0,1,2,5,5,2,0,2,2021-08-07 12:14:38,528437
2,2,1,4,2,3,1,0,2021-08-07 12:14:38,528437
-1,-1,-1,-3,0,0,-1,0,2021-08-07 12:14:38,528437
1,1,1,3,1,1,1,1,2021-08-07 12:14:38,528437
-4,-2,-3,-8,-5,-2,-2,-2,2021-08-07 12:14:38,528437
-2,-3,-3,-3,-4,-4,-3,-3,2021-08-07 12:14:38,528437
2,-1,-2,1,0,0,0,1,2021-08-07 12:14:38,529437
1,2,-1,-2,0,-1,-1,0,2021-08-07 12:14:38,560436
-3,-2,-2,-1,-2,-1,-1,-1,2021-08-07 12:14:38,560436
-1,-2,-1,-3,-5,-2,-3,-2,2021-08-07 12:14:38,560436
-1,-1,-2,-2,-2,-2,0,-2,2021-08-07 12:14:38,560436
-1,-2,2,5,6,1,1,-1,2021-08-07 12:14:38,591437
1,0,-1,-2,0,1,1,0,2021-08-07 12:14:38,591437
-1,-1,0,2,3,1,1,-2,2021-08-07 12:14:38,591437
-1,0,0,-3,-6,-3,0,-2,2021-08-07 12:14:38,591437
-1,-2,-3,-4,-5,-3,-3,0,2021-08-07 12:14:38,591437
-3,-2,2,6,4,-1,-1,-2,2021-08-07 12:14:38,591437
3,0,-2,-2,0,1,3,2,2021-08-07 12:14:38,591437
0,0,0,2,2,-1,-2,-1,2021-08-07 12:14:38,592437
-1,-2,-3,-1,-3,-1,0,-1,2021-08-07 12:14:38,623435
-3,-5,-5,-6,-7,-5,-3,-3,2021-08-07 12:14:38,638437
-1,0,-1,0,-1,-2,-1,0,2021-08-07 12:14:38,638437
1,4,4,8,7,4,1,2,2021-08-07 12:14:38,638437
2,3,4,7,7,3,3,0,2021-08-07 12:14:38,638437
-1,1,-3,-4,-3,-1,-2,0,2021-08-07 12:14:38,638437
-1,-1,1,1,-2,-2,-2,-2,2021-08-07 12:14:38,638437
-3,-4,-5,-7,-4,-2,-2,-1,2021-08-07 12:14:38,639437
-2,-5,-2,-4,-7,-4,-1,-1,2021-08-07 12:14:38,653435
1,-3,1,3,1,0,3,1,2021-08-07 12:14:38,669436
2,-1,-2,-7,-3,2,3,3,2021-08-07 12:14:38,685435
-3,-2,1,4,8,4,1,-2,2021-08-07 12:14:38,685435
-4,-1,-1,1,3,2,-1,-3,2021-08-07 12:14:38,685435
-4,-1,0,-2,-4,-6,-5,-4,2021-08-07 12:14:38,685435
-3,0,3,3,0,-2,-3,-2,2021-08-07 12:14:38,685435
-1,1,1,-3,-5,-4,-2,0,2021-08-07 12:14:38,685435
0,-1,-2,-8,-5,-4,-1,0,2021-08-07 12:14:38,701435
1,1,-2,1,1,2,-1,2,2021-08-07 12:14:38,717435
0,-2,0,-1,-2,-2,-1,-1,2021-08-07 12:14:38,725435
0,-4,-3,-3,0,0,0,0,2021-08-07 12:14:38,725435
-2,-1,-1,-2,-3,-2,-1,-2,2021-08-07 12:14:38,726436
3,3,0,2,3,3,2,3,2021-08-07 12:14:38,726436
0,1,0,2,1,0,1,2,2021-08-07 12:14:38,726436
-2,-2,-2,0,-2,-3,-1,-1,2021-08-07 12:14:38,726436
-3,-4,-5,-6,-6,-4,-2,-3,2021-08-07 12:14:38,749435
-1,0,1,5,0,0,-1,-1,2021-08-07 12:14:38,765434
2,2,2,5,4,2,1,1,2021-08-07 12:14:38,765434
0,2,1,1,2,0,0,-2,2021-08-07 12:14:38,765434
1,1,0,1,-1,1,-1,1,2021-08-07 12:14:38,765434
-4,-2,-3,-7,-8,-5,-4,-4,2021-08-07 12:14:38,765434
-4,-5,-6,-2,-2,-2,-4,-2,2021-08-07 12:14:38,765434
-1,-2,-3,0,-3,-3,-3,-1,2021-08-07 12:14:38,766437
2,2,6,9,6,4,1,3,2021-08-07 12:14:38,781436
0,-2,-1,2,2,1,2,1,2021-08-07 12:14:38,797437
-4,-2,-3,-3,-6,-3,-2,-3,2021-08-07 12:14:38,813437
-2,-1,-3,-7,-9,-4,-4,-2,2021-08-07 12:14:38,829440
-1,-1,2,0,1,0,0,2,2021-08-07 12:14:38,829440
0,-2,0,0,5,3,-1,-1,2021-08-07 12:14:38,829440
-2,-1,-1,-1,-1,-2,0,-3,2021-08-07 12:14:38,829440
-2,-3,-5,-8,-6,-4,-3,-4,2021-08-07 12:14:38,829440
0,-1,2,5,3,0,0,0,2021-08-07 12:14:38,830437
1,0,-2,-1,-9,-7,-1,0,2021-08-07 12:14:38,830437
-1,-2,2,8,18,8,1,1,2021-08-07 12:14:38,860437
1,0,0,3,2,0,1,-1,2021-08-07 12:14:38,860437
-1,-2,-4,-7,-10,-4,-2,-4,2021-08-07 12:14:38,860437
2,2,-1,0,3,0,0,0,2021-08-07 12:14:38,860437
-2,-4,-5,-8,-11,-7,-3,-3,2021-08-07 12:14:38,860437
-2,-2,-2,-1,-2,-2,-1,-1,2021-08-07 12:14:38,860437
-3,2,1,2,2,1,0,1,2021-08-07 12:14:38,876435
-4,-5,-5,-9,-8,-5,-4,-3,2021-08-07 12:14:38,876435
-2,-3,-1,-2,-4,-3,-2,0,2021-08-07 12:14:38,876435
1,0,0,-1,2,1,-1,-1,2021-08-07 12:14:38,892436
1,0,0,1,0,-1,-1,0,2021-08-07 12:14:38,908436
3,1,3,3,3,3,3,2,2021-08-07 12:14:38,908436
0,-1,-5,-5,1,1,0,-1,2021-08-07 12:14:38,908436
-3,-2,1,4,0,-1,-1,-2,2021-08-07 12:14:38,908436
1,-1,-3,-5,-3,-2,-1,1,2021-08-07 12:14:38,908436
0,0,-1,0,3,4,0,-1,2021-08-07 12:14:38,909436
-4,-6,-6,-11,-13,-7,-4,-5,2021-08-07 12:14:38,909436
-1,-2,0,-7,-6,-3,-1,-2,2021-08-07 12:14:38,909436
1,2,3,9,12,6,3,2,2021-08-07 12:14:38,924436
-1,-1,0,2,3,0,1,0,2021-08-07 12:14:38,924436
-1,-1,0,-1,-3,-3,-4,-2,2021-08-07 12:14:38,924436
0,0,-1,-2,-1,0,0,1,2021-08-07 12:14:38,924436
-1,-1,-1,-2,-2,-2,-1,-2,2021-08-07 12:14:38,924436
-3,-3,-5,-7,-4,-3,-2,-2,2021-08-07 12:14:38,924436
1,2,1,0,-1,-1,0,1,2021-08-07 12:14:38,940436
-1,-1,0,5,3,1,2,-2,2021-08-07 12:14:38,940436
2,1,2,2,3,1,2,1,2021-08-07 12:14:38,956438
0,2,2,3,0,0,1,0,2021-08-07 12:14:38,972437
-3,-3,-2,-5,-7,-4,-3,-3,2021-08-07 12:14:38,988438
-2,-2,-5,-2,1,1,-1,-1,2021-08-07 12:14:38,988438
0,-1,-2,4,0,-3,-1,-2,2021-08-07 12:14:39,004475
-3,-1,-4,-7,-7,-4,-3,-1,2021-08-07 12:14:39,020479
1,-1,-1,3,0,2,0,0,2021-08-07 12:14:39,020479
1,0,1,4,6,3,0,-1,2021-08-07 12:14:39,020479
-3,-4,-4,-2,-3,-2,-1,-2,2021-08-07 12:14:39,020479
-3,-3,-2,-1,-1,-1,-2,-1,2021-08-07 12:14:39,020479
2,2,-2,-4,2,2,0,1,2021-08-07 12:14:39,020479
2,1,3,4,0,1,0,1,2021-08-07 12:14:39,020479
1,0,2,-2,3,1,0,1,2021-08-07 12:14:39,020479
-1,-2,0,3,2,0,0,-3,2021-08-07 12:14:39,021437
-3,-5,-6,-4,-7,-5,-3,-2,2021-08-07 12:14:39,021437
-4,-4,-6,-12,-6,-2,-2,-1,2021-08-07 12:14:39,021437
0,1,2,9,9,4,1,-1,2021-08-07 12:14:39,036439
0,2,0,-4,1,0,2,2,2021-08-07 12:14:39,036439
3,3,6,8,6,3,1,2,2021-08-07 12:14:39,036439
-2,-5,-4,-6,-9,-6,-3,-2,2021-08-07 12:14:39,036439
-4,-7,-4,-8,-13,-8,-4,-2,2021-08-07 12:14:39,052436
1,-1,0,-3,-1,2,0,0,2021-08-07 12:14:39,052436
-2,-2,-1,4,5,0,0,-1,2021-08-07 12:14:39,068439
-2,1,0,-2,-2,-1,-3,-1,2021-08-07 12:14:39,084438
-4,-5,-4,-5,-3,-2,-2,-2,2021-08-07 12:14:39,084438
2,3,3,3,2,1,1,1,2021-08-07 12:14:39,084438
-2,0,0,-2,-2,-3,0,0,2021-08-07 12:14:39,084438
1,0,0,-1,3,-1,0,0,2021-08-07 12:14:39,084438
-4,-6,-5,-8,-11,-7,-4,-4,2021-08-07 12:14:39,100480
0,0,5,13,9,5,1,0,2021-08-07 12:14:39,100480
1,2,2,2,1,1,1,0,2021-08-07 12:14:39,100480
-2,-3,-1,-5,-6,-4,0,-2,2021-08-07 12:14:39,100480
2,4,0,-4,-2,-1,0,2,2021-08-07 12:14:39,116462
-6,-7,-6,-9,-12,-8,-6,-2,2021-08-07 12:14:39,132437
3,2,2,6,9,4,2,1,2021-08-07 12:14:39,148464
3,3,9,21,20,10,2,1,2021-08-07 12:14:39,148464
-4,-2,-2,-1,-1,2,-1,-2,2021-08-07 12:14:39,148464
0,2,0,3,3,1,-1,1,2021-08-07 12:14:39,148464
-3,-3,-2,-12,-15,-9,-5,-2,2021-08-07 12:14:39,148464
-3,-4,-4,-5,-3,-2,-2,-1,2021-08-07 12:14:39,148464
-1,2,2,4,2,2,0,0,2021-08-07 12:14:39,164442
-2,-2,-3,-3,-3,-2,-1,-1,2021-08-07 12:14:39,176463
-2,-1,0,-3,-6,-4,-2,-2,2021-08-07 12:14:39,177436
-2,-4,-7,-13,-10,-5,-4,-3,2021-08-07 12:14:39,177436
-1,0,2,3,2,1,0,0,2021-08-07 12:14:39,196444
-1,0,0,2,-2,-1,-1,-2,2021-08-07 12:14:39,212438
1,1,1,1,5,3,1,1,2021-08-07 12:14:39,212438
-3,-2,-4,-7,-10,-7,-5,-4,2021-08-07 12:14:39,212438
6,5,9,22,20,10,6,3,2021-08-07 12:14:39,212438
0,-3,-5,-12,-5,-3,-2,-2,2021-08-07 12:14:39,212438
-3,-5,-3,-2,-16,-7,-6,-3,2021-08-07 12:14:39,212438
1,2,0,1,13,8,3,3,2021-08-07 12:14:39,212438
0,-2,-2,-7,-8,-6,-2,-2,2021-08-07 12:14:39,212438
0,-1,1,-3,1,1,1,1,2021-08-07 12:14:39,212438
-2,0,2,8,10,4,1,-1,2021-08-07 12:14:39,213438
-1,-2,-3,-5,-7,-3,0,-1,2021-08-07 12:14:39,213438
-3,-2,-4,-7,-8,-4,-2,-2,2021-08-07 12:14:39,243435
-2,-2,-3,-2,-5,-6,-3,-1,2021-08-07 12:14:39,243435
-1,-2,-3,-8,-11,-6,-3,-3,2021-08-07 12:14:39,243435
-1,-1,-1,-1,-5,-1,-1,0,2021-08-07 12:14:39,243435
1,0,4,13,25,15,6,1,2021-08-07 12:14:39,259462
-1,2,2,7,3,0,1,0,2021-08-07 12:14:39,275437
-2,-3,-7,-12,-15,-8,-5,-3,2021-08-07 12:14:39,291461
-1,1,2,4,1,-1,-1,-1,2021-08-07 12:14:39,291461
2,-1,1,5,11,1,0,1,2021-08-07 12:14:39,291461
0,0,2,2,2,2,1,-1,2021-08-07 12:14:39,291461
-4,-2,-5,-2,4,1,0,-2,2021-08-07 12:14:39,291461
1,1,2,5,-3,-2,1,1,2021-08-07 12:14:39,292437
-1,-3,-8,-17,-21,-10,-6,-2,2021-08-07 12:14:39,307436
0,0,-1,-2,-2,-3,-2,-1,2021-08-07 12:14:39,307436
-2,-2,-4,-7,-6,-5,-2,-3,2021-08-07 12:14:39,307436
-2,0,-2,-1,-1,0,1,-2,2021-08-07 12:14:39,307436
0,2,0,-1,-2,-1,-1,-2,2021-08-07 12:14:39,307436
-1,-1,0,3,2,3,1,-1,2021-08-07 12:14:39,307436
1,1,2,7,6,4,3,0,2021-08-07 12:14:39,323435
-1,-4,-2,-6,-7,-3,-2,-1,2021-08-07 12:14:39,339438
1,1,-1,1,-1,0,-2,1,2021-08-07 12:14:39,339438
0,0,3,9,15,5,1,1,2021-08-07 12:14:39,339438
-1,2,2,2,1,1,1,1,2021-08-07 12:14:39,339438
0,-2,-3,-4,-5,-6,-3,-1,2021-08-07 12:14:39,339438
-3,-1,-2,-6,-3,-3,-1,-1,2021-08-07 12:14:39,370437
-5,-4,-8,-21,-27,-11,-6,-5,2021-08-07 12:14:39,370437
7,8,16,38,41,20,8,4,2021-08-07 12:14:39,370437
1,1,0,-4,-5,-3,-1,0,2021-08-07 12:14:39,370437
-2,-4,-3,-8,-12,-6,-3,-3,2021-08-07 12:14:39,370437
-1,-1,-3,-3,5,-2,0,1,2021-08-07 12:14:39,370437
-3,-3,-2,-2,-1,-1,-2,-1,2021-08-07 12:14:39,385437
-3,-1,-3,-6,-7,-3,-1,-1,2021-08-07 12:14:39,401439
0,-1,-1,4,1,-1,-1,0,2021-08-07 12:14:39,416434
-2,-3,-3,-1,-4,-1,-2,-2,2021-08-07 12:14:39,416434
0,-2,-6,-10,-9,-6,-1,-3,2021-08-07 12:14:39,416434
-3,-3,0,2,1,-2,-3,-2,2021-08-07 12:14:39,416434
3,3,-2,-1,2,4,4,1,2021-08-07 12:14:39,416434
-1,-1,0,10,19,6,2,-1,2021-08-07 12:14:39,416434
-2,-2,-2,-7,-3,-3,-2,-1,2021-08-07 12:14:39,416434
-1,0,3,8,4,1,0,0,2021-08-07 12:14:39,416434
0,-2,0,-6,-12,-6,-4,-4,2021-08-07 12:14:39,432436
0,-1,-4,-7,-7,-4,-2,-2,2021-08-07 12:14:39,448437
-2,-2,0,1,1,1,0,-1,2021-08-07 12:14:39,448437
0,0,-3,-7,-5,-3,-1,1,2021-08-07 12:14:39,448437
1,3,6,14,10,4,3,3,2021-08-07 12:14:39,464436
3,1,0,3,0,0,0,1,2021-08-07 12:14:39,464436
-1,-4,-5,-8,-8,-6,-4,-2,2021-08-07 12:14:39,480436
-1,-2,-4,-6,0,-1,-2,-2,2021-08-07 12:14:39,495435
-1,-2,-4,-4,-4,-2,-2,0,2021-08-07 12:14:39,495435
0,0,0,0,-5,1,1,2,2021-08-07 12:14:39,495435
-3,-3,-2,6,9,3,-1,0,2021-08-07 12:14:39,495435
-3,-2,-3,0,0,-1,-3,-3,2021-08-07 12:14:39,495435
1,2,6,8,13,8,2,1,2021-08-07 12:14:39,496437
-2,2,8,10,5,3,0,-4,2021-08-07 12:14:39,496437
-3,-3,-5,-12,-8,-6,-5,-4,2021-08-07 12:14:39,511436
2,1,0,0,-4,-1,1,0,2021-08-07 12:14:39,511436
-2,-1,-3,-2,3,-2,0,0,2021-08-07 12:14:39,527436
0,-1,-2,-7,-9,-4,0,0,2021-08-07 12:14:39,543435
0,-1,-2,-5,-8,-3,-4,0,2021-08-07 12:14:39,543666
0,-2,-3,-10,-4,0,0,0,2021-08-07 12:14:39,543666
0,1,4,18,17,7,4,1,2021-08-07 12:14:39,543666
0,-2,-5,-6,-7,-2,-1,1,2021-08-07 12:14:39,544436
-2,-3,-4,-7,-9,-5,-3,-1,2021-08-07 12:14:39,559437
0,-1,0,0,0,0,1,-1,2021-08-07 12:14:39,575435
-2,-5,-4,-3,0,-1,-2,-2,2021-08-07 12:14:39,575435
3,3,5,9,15,9,4,3,2021-08-07 12:14:39,575435
-4,-4,-5,-3,-9,-4,-3,-2,2021-08-07 12:14:39,575435
2,1,0,0,1,0,0,1,2021-08-07 12:14:39,575435
-3,-3,-4,-13,-20,-9,-3,-4,2021-08-07 12:14:39,576436
0,-3,-1,1,-1,-3,-3,-2,2021-08-07 12:14:39,576436
1,4,5,12,11,6,3,2,2021-08-07 12:14:39,576436
-3,0,0,3,0,-1,-1,-1,2021-08-07 12:14:39,576436
-3,-3,-6,-15,-16,-9,-4,-3,2021-08-07 12:14:39,606436
-3,-5,-5,-6,2,0,-2,-1,2021-08-07 12:14:39,638437
7,9,11,15,16,10,7,4,2021-08-07 12:14:39,653437
-3,-3,-3,-2,-5,-4,-4,-4,2021-08-07 12:14:39,653437
-2,-3,-2,-7,-2,-1,-1,-3,2021-08-07 12:14:39,653437
-2,0,-1,1,-4,-2,-1,-1,2021-08-07 12:14:39,653437
-3,-3,-5,-3,2,-1,-2,-2,2021-08-07 12:14:39,653437
2,1,1,8,5,2,1,0,2021-08-07 12:14:39,654437
-4,-5,-9,-18,-20,-10,-5,-2,2021-08-07 12:14:39,654437
-2,-3,-2,-3,-1,0,-2,-2,2021-08-07 12:14:39,654437
1,0,2,4,7,1,0,-1,2021-08-07 12:14:39,654437
-3,-2,-4,-3,-2,0,-1,-1,2021-08-07 12:14:39,654437
1,1,3,-2,-3,1,1,0,2021-08-07 12:14:39,654437
3,3,3,6,1,-1,2,0,2021-08-07 12:14:39,655438
-3,-3,-4,-9,-9,-5,-3,-3,2021-08-07 12:14:39,655438
-2,-3,0,5,3,0,-2,-1,2021-08-07 12:14:39,655438
-1,-1,0,3,6,1,0,1,2021-08-07 12:14:39,701436
0,2,-1,-9,-13,-6,-2,-1,2021-08-07 12:14:39,701436
-2,-3,-2,-5,1,0,1,-1,2021-08-07 12:14:39,701436
-1,0,2,8,13,3,0,0,2021-08-07 12:14:39,701436
-1,-1,-2,0,-3,-1,-1,0,2021-08-07 12:14:39,701436
-1,0,-2,-5,-5,-3,-1,-1,2021-08-07 12:14:39,702438
-4,-5,-8,-14,-19,-8,-5,-3,2021-08-07 12:14:39,702438
3,4,5,16,19,11,4,2,2021-08-07 12:14:39,702438
1,1,2,9,11,6,1,-1,2021-08-07 12:14:39,717435
-3,-1,-3,-6,-12,-9,-6,-3,2021-08-07 12:14:39,717435
3,1,2,-2,-8,-1,1,2,2021-08-07 12:14:39,717435
-2,-2,-4,-4,1,-2,-1,-1,2021-08-07 12:14:39,717435
2,0,-1,-3,2,-1,-1,1,2021-08-07 12:14:39,733437
-2,0,-2,0,3,1,0,-1,2021-08-07 12:14:39,749438
-4,-2,-4,-11,-12,-8,-4,-2,2021-08-07 12:14:39,765435
1,-2,-1,1,2,1,1,0,2021-08-07 12:14:39,765435
2,4,7,25,23,10,3,4,2021-08-07 12:14:39,765435
0,0,0,-2,-2,-1,-1,1,2021-08-07 12:14:39,765435
-3,-1,-1,3,1,-1,-2,-1,2021-08-07 12:14:39,765435
-1,-3,-3,-11,-11,-5,-2,-2,2021-08-07 12:14:39,766437
-2,-2,-3,-9,-14,-9,-5,-3,2021-08-07 12:14:39,781436
2,-1,-1,2,10,4,3,1,2021-08-07 12:14:39,797436
-2,-1,1,6,5,1,-1,-2,2021-08-07 12:14:39,797436
0,-1,-4,-7,-8,-4,0,-2,2021-08-07 12:14:39,797436
-2,-2,-2,-3,1,1,-2,-2,2021-08-07 12:14:39,797436
-2,-2,-3,-5,-4,-2,-2,-2,2021-08-07 12:14:39,797436
0,2,1,0,0,-2,-1,-1,2021-08-07 12:14:39,797436
1,0,4,15,19,8,3,0,2021-08-07 12:14:39,797436
2,6,4,-3,-8,0,1,1,2021-08-07 12:14:39,828436
-2,-2,0,1,3,-1,-2,-1,2021-08-07 12:14:39,844435
0,-3,-2,-8,-12,-6,-3,-2,2021-08-07 12:14:39,860437
-4,0,-3,-9,-4,-4,-4,-3,2021-08-07 12:14:39,860437
-2,-4,-8,-9,-7,-5,-3,-2,2021-08-07 12:14:39,860437
0,-1,-2,0,2,2,0,-1,2021-08-07 12:14:39,860437
-2,-2,-1,2,1,-1,-1,-3,2021-08-07 12:14:39,860437
1,1,3,4,0,0,1,1,2021-08-07 12:14:39,860437
-1,0,-1,-1,2,-2,0,-2,2021-08-07 12:14:39,860437
-2,-2,-2,-1,1,-1,-1,0,2021-08-07 12:14:39,860437
-3,-2,-1,-1,0,-2,-1,-1,2021-08-07 12:14:39,860437
-1,-2,-1,-4,-9,-3,-3,0,2021-08-07 12:14:39,861437
0,-2,0,-3,-6,-2,-1,-3,2021-08-07 12:14:39,876436
1,0,0,0,-6,-3,-2,1,2021-08-07 12:14:39,876436
-1,-3,-2,5,2,1,-2,-1,2021-08-07 12:14:39,876436
0,-1,1,-2,6,2,-1,2,2021-08-07 12:14:39,876436
2,1,3,8,6,3,2,0,2021-08-07 12:14:39,907435
-1,-2,-1,-2,-3,-1,-2,-1,2021-08-07 12:14:39,907435
-2,-1,-2,-3,0,-1,0,-1,2021-08-07 12:14:39,907435
-2,-1,-2,-6,-11,-5,-1,0,2021-08-07 12:14:39,907435
-1,0,1,1,4,2,1,1,2021-08-07 12:14:39,907435
-1,0,1,-1,-5,-4,-1,0,2021-08-07 12:14:39,908437
0,-1,-2,-2,-1,0,-3,0,2021-08-07 12:14:39,923436
-2,-2,-2,-3,-6,-4,-2,-2,2021-08-07 12:14:39,923436
-1,-3,-3,-7,-6,-4,-4,-2,2021-08-07 12:14:39,939437
0,-2,-1,-1,3,1,2,0,2021-08-07 12:14:39,939437
1,-1,-1,1,2,0,-1,-1,2021-08-07 12:14:39,939437
0,5,3,4,3,2,1,1,2021-08-07 12:14:39,939437
-2,-2,-3,1,1,0,-1,-1,2021-08-07 12:14:39,971435
-1,1,1,2,-1,-1,-1,-1,2021-08-07 12:14:39,987434
-2,-2,-3,-3,-3,-1,0,-1,2021-08-07 12:14:39,987434
-3,-6,-6,-9,-12,-8,-5,-3,2021-08-07 12:14:39,987434
-1,1,-1,1,7,3,-2,0,2021-08-07 12:14:39,987434
0,1,3,10,6,2,1,-1,2021-08-07 12:14:39,987434
-3,-3,-3,-5,-3,1,0,0,2021-08-07 12:14:39,987434
2,2,4,2,7,4,4,2,2021-08-07 12:14:39,988436
-5,-4,-7,-13,-19,-10,-3,-3,2021-08-07 12:14:40,003435
-2,-3,0,9,13,4,1,-1,2021-08-07 12:14:40,019437
1,4,0,3,1,-1,1,2,2021-08-07 12:14:40,019437
0,-2,-2,-1,-3,-1,-2,-1,2021-08-07 12:14:40,019437
3,-2,-1,-7,-7,-6,-1,0,2021-08-07 12:14:40,019437
-1,-2,-2,-3,0,0,-1,-1,2021-08-07 12:14:40,019437
-1,-3,-4,-8,-6,-4,-2,-2,2021-08-07 12:14:40,019437
-1,-2,-3,2,2,1,-1,-2,2021-08-07 12:14:40,019437
1,1,5,7,9,4,3,0,2021-08-07 12:14:40,035436
-2,-3,-5,-3,-8,-5,-3,-3,2021-08-07 12:14:40,051435
0,-2,-1,-1,-2,-1,0,0,2021-08-07 12:14:40,051435
-2,-3,-3,-13,-9,-6,-1,-2,2021-08-07 12:14:40,051435
1,2,7,23,18,8,3,3,2021-08-07 12:14:40,051435
0,0,-4,-6,-9,-5,-3,-3,2021-08-07 12:14:40,051435
-1,-2,-1,-2,3,-1,0,-1,2021-08-07 12:14:40,067435
1,-1,-1,-3,-3,0,-3,-1,2021-08-07 12:14:40,067435
-1,0,0,1,1,2,0,2,2021-08-07 12:14:40,083435
-2,0,1,0,4,1,0,-1,2021-08-07 12:14:40,083435
2,4,5,14,11,4,1,1,2021-08-07 12:14:40,083435
-2,-4,-4,-5,-5,-4,-1,-2,2021-08-07 12:14:40,083435
-3,-3,-4,-6,-10,-4,-3,-4,2021-08-07 12:14:40,115436
1,1,2,8,13,8,3,2,2021-08-07 12:14:40,131437
-2,-2,-3,-5,-5,-3,-2,-2,2021-08-07 12:14:40,131437
-1,1,0,2,1,0,-2,-2,2021-08-07 12:14:40,131437
-2,-1,-4,-7,-10,-5,-3,-1,2021-08-07 12:14:40,131437
0,0,-1,-8,-11,-6,-2,0,2021-08-07 12:14:40,131437
1,-1,1,0,3,1,3,0,2021-08-07 12:14:40,131437
0,-1,2,7,6,3,2,0,2021-08-07 12:14:40,132436
0,-1,-4,-10,-9,-3,0,-1,2021-08-07 12:14:40,147436
-3,-2,-3,-6,-3,-2,-4,-2,2021-08-07 12:14:40,162434
2,3,5,15,12,7,2,1,2021-08-07 12:14:40,162434
-1,-2,-1,-3,-5,-5,-1,1,2021-08-07 12:14:40,162434
-1,-3,-3,-4,-5,-3,-2,-2,2021-08-07 12:14:40,162434
1,-1,0,2,5,1,2,0,2021-08-07 12:14:40,162434
-6,-5,-6,-12,-14,-9,-5,-4,2021-08-07 12:14:40,162434
2,1,2,6,13,8,4,0,2021-08-07 12:14:40,162434
0,0,4,10,11,7,3,2,2021-08-07 12:14:40,177436
0,-1,-2,-5,-5,-2,-1,-2,2021-08-07 12:14:40,177436
-1,-3,-1,0,-2,-1,-1,-2,2021-08-07 12:14:40,177436
1,-1,-2,-5,-9,-6,-2,-2,2021-08-07 12:14:40,177436
0,2,0,-2,3,0,0,0,2021-08-07 12:14:40,203436
-4,-2,-4,-3,-3,-3,-2,-2,2021-08-07 12:14:40,203436
-1,-1,-1,-3,4,2,0,1,2021-08-07 12:14:40,204438
-1,-3,-4,-7,-10,-4,-4,-2,2021-08-07 12:14:40,204438
-3,-1,-2,-4,-4,-4,-2,-1,2021-08-07 12:14:40,241435
-2,-5,-4,-1,-1,0,-1,-3,2021-08-07 12:14:40,241435
1,2,1,7,7,4,1,2,2021-08-07 12:14:40,241435
0,3,2,6,4,2,0,1,2021-08-07 12:14:40,241435
0,1,-1,-2,-8,-5,-2,-2,2021-08-07 12:14:40,241435
-2,-1,-1,0,1,-1,-2,-2,2021-08-07 12:14:40,241435
-2,-3,0,1,-3,-3,-4,-1,2021-08-07 12:14:40,241435
-1,0,1,3,5,2,0,-1,2021-08-07 12:14:40,241435
-3,-4,-5,-7,-7,-3,-1,-3,2021-08-07 12:14:40,257436
-2,-1,-4,-10,-13,-6,-3,-1,2021-08-07 12:14:40,257436
0,0,-3,-2,4,0,0,-1,2021-08-07 12:14:40,257436
4,3,6,16,23,9,3,4,2021-08-07 12:14:40,257436
-1,-1,0,5,2,0,0,0,2021-08-07 12:14:40,288434
-1,-3,-1,-2,-1,1,-1,0,2021-08-07 12:14:40,303437
-2,-3,-3,-10,-12,-8,-5,-2,2021-08-07 12:14:40,319437
-2,-1,-2,-7,-10,-3,-1,0,2021-08-07 12:14:40,319437
2,1,2,6,8,3,1,0,2021-08-07 12:14:40,319437
-1,-1,-1,-3,-4,-3,-1,-1,2021-08-07 12:14:40,319437
0,-2,-5,-3,-3,1,0,-1,2021-08-07 12:14:40,335437
-2,-2,-5,-2,1,1,1,0,2021-08-07 12:14:40,335437
2,2,5,3,0,1,1,2,2021-08-07 12:14:40,335437
-3,-2,-1,1,-3,-2,-1,-2,2021-08-07 12:14:40,335437
-2,-3,2,1,1,-1,-2,-3,2021-08-07 12:14:40,335437
-6,-4,-4,-12,-12,-6,-6,-6,2021-08-07 12:14:40,335437
0,1,5,16,12,6,1,1,2021-08-07 12:14:40,336438
0,0,-2,-3,-4,-4,-3,-2,2021-08-07 12:14:40,336438
-1,0,-3,-3,-3,-2,0,1,2021-08-07 12:14:40,351436
2,1,3,10,11,3,2,0,2021-08-07 12:14:40,351436
-1,-1,-2,-8,-6,-5,-4,0,2021-08-07 12:14:40,351436
0,-1,-1,-7,-6,-2,-1,0,2021-08-07 12:14:40,351436
-2,-1,-1,1,-5,-3,-2,-2,2021-08-07 12:14:40,367435
-2,-4,-6,-12,-17,-7,-4,-2,2021-08-07 12:14:40,367435
1,-1,3,14,27,12,3,0,2021-08-07 12:14:40,383436
-2,-1,0,4,0,1,1,0,2021-08-07 12:14:40,399434
-2,0,-3,-4,-4,-3,-2,-1,2021-08-07 12:14:40,415436
-1,-2,-3,-11,-12,-6,-2,-1,2021-08-07 12:14:40,415436
-3,-2,-3,-4,-9,-7,-5,-4,2021-08-07 12:14:40,415436
3,1,3,7,9,5,2,2,2021-08-07 12:14:40,415436
-1,0,-1,0,2,0,0,-2,2021-08-07 12:14:40,415436
0,0,-3,-2,-1,0,1,-2,2021-08-07 12:14:40,431436
-1,-2,-4,-4,-4,-4,-1,-2,2021-08-07 12:14:40,431436
-2,0,0,1,0,-1,0,-1,2021-08-07 12:14:40,431436
1,-1,-2,-4,-5,-2,0,2,2021-08-07 12:14:40,431436
-1,1,1,0,-2,-1,-2,1,2021-08-07 12:14:40,431436
1,-2,-3,1,10,3,3,2,2021-08-07 12:14:40,447437
0,-1,2,3,-3,-2,-3,-1,2021-08-07 12:14:40,463435
-1,-3,-3,-9,-4,-1,-2,-1,2021-08-07 12:14:40,479436
-2,0,-1,1,-3,-4,-3,-2,2021-08-07 12:14:40,479436
2,3,3,6,3,2,1,2,2021-08-07 12:14:40,479436
-5,-4,-9,-12,-10,-6,-5,-2,2021-08-07 12:14:40,479436
0,1,0,0,6,1,0,0,2021-08-07 12:14:40,479436
3,4,5,16,18,8,5,4,2021-08-07 12:14:40,479436
-2,-2,-3,-2,-6,-2,-3,-2,2021-08-07 12:14:40,495435
1,-1,2,4,8,3,0,0,2021-08-07 12:14:40,495435
0,0,3,4,1,0,0,-1,2021-08-07 12:14:40,495435
-2,-1,-2,2,-1,-2,-2,-2,2021-08-07 12:14:40,495435
-1,-2,-4,-12,-8,-3,-1,-2,2021-08-07 12:14:40,495435
-1,-1,-3,-4,-4,-2,-2,1,2021-08-07 12:14:40,495435
-1,-1,-2,-2,-5,-3,1,-1,2021-08-07 12:14:40,495435
-2,-2,0,1,-1,1,-1,-1,2021-08-07 12:14:40,495435
-3,-2,-4,-8,-8,-3,-2,-2,2021-08-07 12:14:40,527437
-2,-2,-4,-3,-4,-2,-1,-3,2021-08-07 12:14:40,543437
-1,2,3,4,7,4,1,1,2021-08-07 12:14:40,543437
1,-1,0,-1,-2,0,1,2,2021-08-07 12:14:40,543437
-2,-2,-1,3,7,1,0,1,2021-08-07 12:14:40,559436
4,6,1,1,2,1,3,3,2021-08-07 12:14:40,559436
1,3,1,-1,-2,-1,-1,-1,2021-08-07 12:14:40,559436
-5,-5,-9,-17,-19,-9,-7,-5,2021-08-07 12:14:40,559436
-3,-3,-1,3,3,-1,-3,-3,2021-08-07 12:14:40,559436
-2,-2,0,4,4,0,1,0,2021-08-07 12:14:40,559436
0,-1,-1,1,2,0,-2,-1,2021-08-07 12:14:40,559436
0,0,0,1,-3,-2,1,1,2021-08-07 12:14:40,575436
-1,-2,-2,-8,-9,-5,-2,-4,2021-08-07 12:14:40,606436
-1,-3,1,1,2,1,-1,-1,2021-08-07 12:14:40,606436
-2,-4,-4,-7,-12,-7,-3,-4,2021-08-07 12:14:40,606436
-4,-5,-2,-4,-4,-4,-3,-5,2021-08-07 12:14:40,606436
3,5,7,12,19,10,4,3,2021-08-07 12:14:40,606436
0,0,-2,-2,1,-1,1,-1,2021-08-07 12:14:40,606436
-3,-2,3,9,4,2,0,-1,2021-08-07 12:14:40,607437
1,0,2,0,-1,0,2,0,2021-08-07 12:14:40,607437
-1,-1,-2,-1,-6,-4,0,-1,2021-08-07 12:14:40,622438
1,2,2,-4,-5,-1,0,-1,2021-08-07 12:14:40,638434
1,-2,-4,-2,0,0,-2,2,2021-08-07 12:14:40,654435
3,2,6,11,10,3,2,1,2021-08-07 12:14:40,654435
-3,-5,-6,-15,-16,-8,-5,-2,2021-08-07 12:14:40,654435
-3,-3,-1,1,-1,-1,-3,-1,2021-08-07 12:14:40,654435
2,1,1,1,-1,-1,1,0,2021-08-07 12:14:40,654435
1,1,1,6,9,5,0,1,2021-08-07 12:14:40,654435
-2,-1,-4,-10,-14,-7,-3,-2,2021-08-07 12:14:40,655437
-4,-5,-3,-2,2,-1,-3,-3,2021-08-07 12:14:40,669436
-2,2,-3,-4,-8,-5,-3,-2,2021-08-07 12:14:40,669436
1,1,-2,7,13,6,1,1,2021-08-07 12:14:40,670436
4,3,5,7,8,4,3,2,2021-08-07 12:14:40,686440
-2,-2,-4,-8,-9,-5,-1,0,2021-08-07 12:14:40,702435
0,-1,0,5,4,1,0,0,2021-08-07 12:14:40,702435
-3,-2,-3,-9,-10,-7,-2,-2,2021-08-07 12:14:40,718436
-2,-2,-4,-6,-6,-2,-2,-2,2021-08-07 12:14:40,734436
-3,-3,-1,0,0,-1,-3,-1,2021-08-07 12:14:40,734436
-1,-1,-5,-7,1,2,2,0,2021-08-07 12:14:40,734436
1,2,6,10,3,1,0,0,2021-08-07 12:14:40,734436
-1,-2,-2,-4,-5,-3,-2,0,2021-08-07 12:14:40,734436
1,-1,-2,-5,-4,-3,-1,-2,2021-08-07 12:14:40,734436
-2,-2,-2,-2,2,1,-2,-2,2021-08-07 12:14:40,735437
-1,-4,-2,-4,0,-1,-1,0,2021-08-07 12:14:40,735437
0,0,2,5,6,1,2,-2,2021-08-07 12:14:40,735437
-2,-2,-1,-3,-4,-2,-3,-2,2021-08-07 12:14:40,735437
2,2,5,9,8,3,1,1,2021-08-07 12:14:40,735437
0,4,0,-3,-3,1,0,-1,2021-08-07 12:14:40,735437
0,2,1,0,2,1,0,-1,2021-08-07 12:14:40,766435
-2,-3,-4,1,-3,-2,-1,0,2021-08-07 12:14:40,782434
-5,-7,-4,-7,-10,-5,-5,-4,2021-08-07 12:14:40,782434
3,1,1,6,10,8,3,2,2021-08-07 12:14:40,782434
-1,-1,-2,3,7,1,0,-1,2021-08-07 12:14:40,782434
-1,-2,-1,-2,-2,-2,0,-1,2021-08-07 12:14:40,782434
-2,1,2,-1,-1,0,0,0,2021-08-07 12:14:40,782434
-2,-3,-9,-13,-15,-9,-4,-1,2021-08-07 12:14:40,783436
-1,0,-2,-10,-9,-4,-2,-2,2021-08-07 12:14:40,798437
2,2,3,6,9,3,2,0,2021-08-07 12:14:40,814435
1,0,2,9,6,2,1,-2,2021-08-07 12:14:40,814435
0,1,5,8,6,2,0,1,2021-08-07 12:14:40,814435
1,0,1,2,0,0,-1,0,2021-08-07 12:14:40,814435
-2,1,-1,-2,0,-2,-1,0,2021-08-07 12:14:40,814435
-3,-3,-9,-14,-11,-7,-4,-1,2021-08-07 12:14:40,830436
-1,-1,-4,-6,-2,-3,0,0,2021-08-07 12:14:40,830436
-2,-2,1,3,5,1,-2,-1,2021-08-07 12:14:40,830436
-2,-2,-1,-6,-6,-2,-2,-2,2021-08-07 12:14:40,830436
-1,0,1,2,3,0,-1,-2,2021-08-07 12:14:40,861437
1,1,3,3,4,2,2,1,2021-08-07 12:14:40,861437
-2,0,-2,-1,-3,-2,-2,1,2021-08-07 12:14:40,861437
0,0,-1,-2,-3,-1,-2,-2,2021-08-07 12:14:40,861437
0,0,-1,-3,2,1,0,0,2021-08-07 12:14:40,861437
-3,-5,-5,-8,-8,-6,-3,-3,2021-08-07 12:14:40,861437
-3,-3,-2,-5,-6,-4,-2,-2,2021-08-07 12:14:40,893438
0,2,-3,-4,-5,0,0,1,2021-08-07 12:14:40,893438
6,6,8,21,26,13,7,4,2021-08-07 12:14:40,893438
-1,0,-2,0,3,1,-1,-1,2021-08-07 12:14:40,893438
-1,-2,-3,-1,-5,-3,0,-1,2021-08-07 12:14:40,893438
-3,-6,-4,-3,-4,-4,-2,-4,2021-08-07 12:14:40,894437
-3,-1,-2,-10,-11,-8,-4,-1,2021-08-07 12:14:40,909438
-4,-2,-1,0,1,1,0,-1,2021-08-07 12:14:40,909438
-1,-2,-1,-2,-4,-5,-2,-3,2021-08-07 12:14:40,925480
2,1,-2,2,0,0,1,0,2021-08-07 12:14:40,941438
1,-1,0,2,7,5,1,1,2021-08-07 12:14:40,941438
-1,0,2,3,3,1,-2,-1,2021-08-07 12:14:40,941438
-2,-5,-4,-5,-7,-2,-1,-2,2021-08-07 12:14:40,941438
-1,-4,0,-3,-1,-1,1,0,2021-08-07 12:14:40,941438
-1,-1,-1,1,-1,-2,-2,-1,2021-08-07 12:14:40,942439
0,1,-1,-4,3,1,1,0,2021-08-07 12:14:40,942439
-4,-6,-12,-23,-17,-9,-6,-4,2021-08-07 12:14:40,972438
6,9,18,37,34,16,6,3,2021-08-07 12:14:40,972438
-3,-3,-5,-8,-12,-6,-2,-3,2021-08-07 12:14:40,972438
-2,-3,-2,-5,-7,-5,-4,-2,2021-08-07 12:14:40,972438
-1,-1,0,2,-4,-3,-1,0,2021-08-07 12:14:40,973436
1,1,-1,-1,7,2,1,0,2021-08-07 12:14:40,973436
-4,-2,-2,-8,-9,-4,-2,-2,2021-08-07 12:14:40,973436
-2,-2,-4,-2,-4,-2,-2,-5,2021-08-07 12:14:40,973436
2,2,0,-1,6,4,2,1,2021-08-07 12:14:41,004438
-5,-2,-3,-3,-3,-2,-4,-3,2021-08-07 12:14:41,020438
3,0,5,10,8,3,2,2,2021-08-07 12:14:41,020438
0,-1,1,-5,-10,-3,-1,0,2021-08-07 12:14:41,020438
0,1,-1,-3,-1,0,1,2,2021-08-07 12:14:41,020438
-1,-1,-2,4,2,0,-1,-3,2021-08-07 12:14:41,020438
-3,-2,-2,-1,0,-1,-2,-3,2021-08-07 12:14:41,020438
-3,-5,-5,-6,-5,-4,-2,-2,2021-08-07 12:14:41,020438
3,3,5,10,13,5,2,1,2021-08-07 12:14:41,051454
-1,-1,-4,-6,-6,-4,-1,0,2021-08-07 12:14:41,051454
1,0,0,-2,-5,-3,0,-2,2021-08-07 12:14:41,051454
-1,1,3,4,-3,-2,-1,0,2021-08-07 12:14:41,051454
-3,-1,0,-2,1,0,-2,-2,2021-08-07 12:14:41,067438
-5,-5,-11,-20,-16,-9,-4,-4,2021-08-07 12:14:41,067438
0,1,4,9,6,2,0,0,2021-08-07 12:14:41,067438
0,1,1,1,0,0,0,0,2021-08-07 12:14:41,067438
-2,-2,1,3,-1,0,-2,-2,2021-08-07 12:14:41,083438
-2,-2,-2,-3,-5,-3,0,-2,2021-08-07 12:14:41,115439
-2,-1,0,0,-4,-3,-1,-2,2021-08-07 12:14:41,115439
0,1,2,2,10,4,0,1,2021-08-07 12:14:41,115439
1,0,-3,-7,-12,-5,-4,-1,2021-08-07 12:14:41,115439
1,2,6,10,13,6,4,3,2021-08-07 12:14:41,115439
-4,-1,-5,-5,-5,-4,-2,0,2021-08-07 12:14:41,115439
0,0,0,6,7,3,1,-1,2021-08-07 12:14:41,115439
0,0,-2,-2,-2,-1,-1,0,2021-08-07 12:14:41,115439
-1,0,-1,-6,-3,-2,0,-2,2021-08-07 12:14:41,115439
-1,-1,0,-3,-6,-3,2,0,2021-08-07 12:14:41,116440
-1,-3,-7,-16,-13,-5,-4,-2,2021-08-07 12:14:41,116440
1,3,7,23,18,8,4,1,2021-08-07 12:14:41,140435
-2,-4,-5,-2,-6,-4,-5,-2,2021-08-07 12:14:41,140435
-2,-3,-4,-6,-2,0,0,-1,2021-08-07 12:14:41,140435
-3,-3,-1,0,1,-1,-1,-3,2021-08-07 12:14:41,141439
-2,-2,-1,-1,0,-1,0,-1,2021-08-07 12:14:41,163435
-3,-6,-3,-5,-6,-4,-3,-2,2021-08-07 12:14:41,179465
5,6,3,6,7,6,4,2,2021-08-07 12:14:41,195463
3,2,1,-2,-3,-1,0,2,2021-08-07 12:14:41,195463
-3,-3,-3,-8,-7,-3,-1,0,2021-08-07 12:14:41,195463
0,-1,-1,1,1,1,0,2,2021-08-07 12:14:41,195463
-1,-4,-6,-8,-10,-4,-2,-1,2021-08-07 12:14:41,195463
-2,0,-1,1,6,5,2,0,2021-08-07 12:14:41,195463
-2,1,5,9,5,3,2,-2,2021-08-07 12:14:41,211435
-4,-1,-1,1,-3,-4,-2,-2,2021-08-07 12:14:41,211435
-2,0,4,6,15,6,-1,-1,2021-08-07 12:14:41,211435
0,2,4,10,6,1,-2,-1,2021-08-07 12:14:41,211435
0,0,0,1,-5,-3,-2,-1,2021-08-07 12:14:41,211435
-2,-4,-6,-16,-12,-7,-3,-3,2021-08-07 12:14:41,211435
2,1,-6,-10,-10,-6,-2,1,2021-08-07 12:14:41,227437
3,2,0,3,2,1,2,1,2021-08-07 12:14:41,227437
-4,-5,-7,-10,-7,-4,-4,-1,2021-08-07 12:14:41,243466
1,2,3,3,2,3,1,1,2021-08-07 12:14:41,243466
-3,-4,-5,-7,-6,-4,-4,-3,2021-08-07 12:14:41,243466
1,0,1,1,-3,0,1,1,2021-08-07 12:14:41,243466
-2,-1,-1,1,3,1,-1,-1,2021-08-07 12:14:41,275436
-1,1,-1,-3,-2,0,-1,0,2021-08-07 12:14:41,291434
1,1,4,8,8,3,2,0,2021-08-07 12:14:41,307434
-3,-4,-6,-12,-10,-7,-4,-2,2021-08-07 12:14:41,323436
0,-1,1,9,7,1,0,-1,2021-08-07 12:14:41,323436
0,0,-1,-4,-2,-1,1,-4,2021-08-07 12:14:41,323436
-3,0,-1,-5,-6,-3,-2,0,2021-08-07 12:14:41,323436
-4,-5,-3,-5,-2,-3,0,-3,2021-08-07 12:14:41,323436
4,4,1,2,3,2,2,2,2021-08-07 12:14:41,323436
-1,0,4,9,7,2,-2,-1,2021-08-07 12:14:41,324436
-1,0,-4,-1,-3,-1,-1,0,2021-08-07 12:14:41,324436
0,-1,1,0,1,-1,0,0,2021-08-07 12:14:41,324436
-3,-3,-3,-7,-5,-4,-1,-1,2021-08-07 12:14:41,324436
-4,-4,-6,-6,-10,-6,-2,-2,2021-08-07 12:14:41,324436
-2,-1,1,-2,-5,-3,-3,-3,2021-08-07 12:14:41,324436
2,2,-2,1,6,4,1,2,2021-08-07 12:14:41,324436
-2,-2,3,2,2,1,-1,0,2021-08-07 12:14:41,339437
1,0,1,4,2,2,-1,1,2021-08-07 12:14:41,339437
-2,-1,-2,-7,-5,-3,-1,-1,2021-08-07 12:14:41,339437
-2,-4,-3,2,-8,-5,-4,-2,2021-08-07 12:14:41,339437
-3,-4,-6,-15,-12,-5,-5,-5,2021-08-07 12:14:41,370436
3,4,5,12,12,6,3,3,2021-08-07 12:14:41,370436
-2,-3,-3,-3,-4,-3,-3,0,2021-08-07 12:14:41,370436
0,-2,0,2,-1,-3,-1,-1,2021-08-07 12:14:41,370436
-1,-3,-2,-4,-4,-3,0,0,2021-08-07 12:14:41,386436
-1,0,-1,-1,-6,-3,-4,-1,2021-08-07 12:14:41,386436
1,-1,-2,-2,1,1,0,-1,2021-08-07 12:14:41,386436
0,0,2,8,4,1,0,0,2021-08-07 12:14:41,386436
-5,-4,-8,-15,-19,-10,-5,-4,2021-08-07 12:14:41,402438
-3,-4,-2,-3,-3,-2,-2,-1,2021-08-07 12:14:41,418436
4,4,6,11,13,5,4,2,2021-08-07 12:14:41,418436
-1,-1,0,-1,0,0,-1,0,2021-08-07 12:14:41,418436
-1,-2,-4,1,1,-1,-2,-1,2021-08-07 12:14:41,418436
1,2,1,-4,-3,-2,0,1,2021-08-07 12:14:41,418436
-3,-6,-6,-10,-12,-5,-4,-3,2021-08-07 12:14:41,418436
-1,-4,-3,-5,-5,-2,-1,-2,2021-08-07 12:14:41,419438
4,4,6,16,16,8,5,4,2021-08-07 12:14:41,450436
-2,0,0,6,7,2,0,0,2021-08-07 12:14:41,450436
2,0,0,1,3,1,0,0,2021-08-07 12:14:41,450436
-1,-2,-4,-6,-4,-4,0,-1,2021-08-07 12:14:41,450436
0,-2,2,7,1,-1,0,-1,2021-08-07 12:14:41,466437
-1,-3,-2,-3,-3,-3,0,0,2021-08-07 12:14:41,482436
-3,-2,-2,-2,-3,-3,-1,-1,2021-08-07 12:14:41,498436
-3,-1,-3,-1,0,-1,-2,0,2021-08-07 12:14:41,498436
-3,-1,-6,-12,-10,-5,-4,-4,2021-08-07 12:14:41,498436
0,0,-1,1,6,4,1,0,2021-08-07 12:14:41,498436
-1,-2,0,2,0,0,0,-2,2021-08-07 12:14:41,498436
-1,0,-5,-7,-7,-4,-1,-1,2021-08-07 12:14:41,498436
-1,1,1,4,-1,-1,-1,0,2021-08-07 12:14:41,514437
-3,-4,-2,4,0,1,0,-2,2021-08-07 12:14:41,530467
-3,-2,-4,-15,-10,-4,-4,-2,2021-08-07 12:14:41,530467
2,4,7,24,24,12,4,3,2021-08-07 12:14:41,530467
7,4,4,4,10,8,3,3,2021-08-07 12:14:41,530467
-2,-5,-7,-9,-11,-7,-3,-2,2021-08-07 12:14:41,530467
-1,-4,0,-4,-9,-6,-5,-1,2021-08-07 12:14:41,530467
0,-1,0,-4,-5,-2,0,-1,2021-08-07 12:14:41,530467
-2,-2,-2,-7,-8,-4,-2,-2,2021-08-07 12:14:41,546440
-2,0,1,1,4,0,-1,-1,2021-08-07 12:14:41,562475
2,4,6,19,16,7,4,2,2021-08-07 12:14:41,578478
-1,-1,-3,-8,-10,-4,-2,-3,2021-08-07 12:14:41,594437
-2,-5,-2,1,5,3,0,0,2021-08-07 12:14:41,594437
0,0,-1,-6,-6,-3,-1,-1,2021-08-07 12:14:41,594437
-1,-1,-2,3,3,1,0,-1,2021-08-07 12:14:41,594437
0,0,-1,-3,-5,-2,-2,-2,2021-08-07 12:14:41,594437
-3,0,-2,-3,-2,-2,0,-1,2021-08-07 12:14:41,594437
-3,-4,-7,-15,-12,-5,-4,-3,2021-08-07 12:14:41,595445
1,1,5,14,14,5,2,0,2021-08-07 12:14:41,595445
2,2,3,9,10,4,3,1,2021-08-07 12:14:41,595445
-3,-5,-9,-15,-12,-8,-5,-3,2021-08-07 12:14:41,595445
-1,1,3,9,4,0,0,0,2021-08-07 12:14:41,595445
-2,-3,-5,-9,-10,-5,-2,-3,2021-08-07 12:14:41,595445
-2,0,-2,-6,-3,-2,-1,0,2021-08-07 12:14:41,595445
