EMG 1,EMG 2,EMG 3,EMG 4,EMG 5,EMG 6,EMG 7,EMG 8,Timestamp,Milliseconds
2,6,5,-5,-9,-5,-4,-1,2021-08-07 12:09:39,860209
-1,3,3,3,1,-2,-2,-2,2021-08-07 12:09:39,860209
0,0,3,1,1,0,3,2,2021-08-07 12:09:39,860209
2,0,-2,-3,-2,0,2,2,2021-08-07 12:09:39,860209
3,-1,-1,2,1,3,3,2,2021-08-07 12:09:39,860209
-8,-12,-10,-10,-9,-3,-4,-5,2021-08-07 12:09:39,861210
0,1,4,9,12,8,3,1,2021-08-07 12:09:39,861210
-5,-1,1,-1,-2,-1,-4,-3,2021-08-07 12:09:39,861210
4,7,6,3,3,1,-1,1,2021-08-07 12:09:39,861210
0,-1,-3,-8,-7,-5,-3,-3,2021-08-07 12:09:39,861210
-1,-2,-1,1,-5,-5,-2,-2,2021-08-07 12:09:39,861210
-3,-6,-9,-14,-4,-2,-3,-2,2021-08-07 12:09:39,861210
3,3,9,22,20,11,5,4,2021-08-07 12:09:39,876209
3,2,-3,-1,-2,-1,2,2,2021-08-07 12:09:39,876209
2,1,-2,-6,-4,-1,-2,2,2021-08-07 12:09:39,876209
-3,-2,-6,-17,-17,-11,-6,-3,2021-08-07 12:09:39,876209
-8,-8,-6,0,-2,-4,-6,-7,2021-08-07 12:09:39,892209
1,0,0,-7,-6,0,-1,1,2021-08-07 12:09:39,908449
2,2,3,13,22,13,4,1,2021-08-07 12:09:39,923729
0,-2,0,2,2,4,4,-1,2021-08-07 12:09:39,923729
-4,-6,-5,-5,-4,-6,-5,-2,2021-08-07 12:09:39,923729
4,8,8,7,5,1,-1,1,2021-08-07 12:09:39,923729
1,1,1,-5,-15,-8,-1,1,2021-08-07 12:09:39,923729
0,-1,2,5,1,1,1,-1,2021-08-07 12:09:39,923729
2,4,3,3,5,3,2,5,2021-08-07 12:09:39,970729
-2,-3,-2,-1,-3,-1,0,0,2021-08-07 12:09:39,970729
-2,-4,-4,-5,-6,-3,-2,-1,2021-08-07 12:09:39,970729
2,3,2,2,2,4,2,3,2021-08-07 12:09:39,970729
0,0,-1,1,-3,0,1,-1,2021-08-07 12:09:39,970729
1,1,1,1,2,2,1,2,2021-08-07 12:09:39,971730
0,2,2,5,2,1,1,-2,2021-08-07 12:09:39,971730
-2,-4,-4,-7,-4,-3,-3,-3,2021-08-07 12:09:39,971730
0,0,1,4,-1,1,1,-1,2021-08-07 12:09:39,971730
-1,-1,-4,-6,-4,-2,-1,-1,2021-08-07 12:09:39,971730
-2,-1,1,5,5,1,-1,-1,2021-08-07 12:09:39,971730
0,1,-1,-3,-2,-1,-1,-2,2021-08-07 12:09:39,971730
-4,-5,-5,-11,-9,-5,-2,-4,2021-08-07 12:09:40,001731
-2,-2,2,6,1,-3,-1,-2,2021-08-07 12:09:40,016729
6,6,4,7,20,12,4,4,2021-08-07 12:09:40,032731
-1,0,1,1,-1,-2,0,0,2021-08-07 12:09:40,048729
1,-1,-3,0,2,1,1,1,2021-08-07 12:09:40,048729
-4,-6,-7,-9,-10,-8,-5,-3,2021-08-07 12:09:40,048729
-3,-4,-4,-10,-13,-7,-5,-3,2021-08-07 12:09:40,048729
3,3,6,7,4,2,3,1,2021-08-07 12:09:40,048729
2,-1,1,-1,1,0,-2,0,2021-08-07 12:09:40,048729
0,1,1,-1,0,-1,0,-1,2021-08-07 12:09:40,049730
-5,-6,-5,-3,-3,-3,-4,-3,2021-08-07 12:09:40,049730
1,0,2,0,0,1,2,1,2021-08-07 12:09:40,049730
0,1,1,-1,-2,-1,-2,1,2021-08-07 12:09:40,049730
0,1,1,1,0,0,0,-2,2021-08-07 12:09:40,049730
-4,-5,-8,-11,-12,-9,-5,-4,2021-08-07 12:09:40,064729
0,-1,-3,1,2,1,0,0,2021-08-07 12:09:40,064729
-1,-1,1,1,2,-2,0,1,2021-08-07 12:09:40,080730
1,2,2,1,4,2,0,1,2021-08-07 12:09:40,080730
0,3,5,7,4,1,1,1,2021-08-07 12:09:40,095730
-4,-5,-9,-10,-10,-7,-4,-3,2021-08-07 12:09:40,095730
0,-2,-1,-1,1,1,0,-1,2021-08-07 12:09:40,095730
-4,-5,-7,-6,-3,-2,-2,-3,2021-08-07 12:09:40,095730
-3,-5,-7,-12,-13,-8,-2,-3,2021-08-07 12:09:40,111730
4,3,7,10,9,6,2,3,2021-08-07 12:09:40,111730
-2,-1,2,7,6,3,0,-3,2021-08-07 12:09:40,111730
0,-1,-1,3,7,2,0,-1,2021-08-07 12:09:40,111730
-1,-2,-1,-4,-6,-4,-3,-3,2021-08-07 12:09:40,126729
-3,-4,-3,-5,-7,-6,-4,-3,2021-08-07 12:09:40,126729
-2,-1,-3,-4,-7,-4,-2,-2,2021-08-07 12:09:40,142730
-1,-3,-1,-5,-7,-3,-4,-3,2021-08-07 12:09:40,157731
-4,-6,-5,-8,-5,-3,-2,-2,2021-08-07 12:09:40,157731
4,4,7,16,14,8,6,4,2021-08-07 12:09:40,157731
-3,-5,-4,-5,-1,-3,-2,-2,2021-08-07 12:09:40,157731
0,3,2,-1,-1,0,-1,0,2021-08-07 12:09:40,157731
2,4,3,2,5,5,4,1,2021-08-07 12:09:40,173728
-1,-1,3,5,-3,-3,-3,-2,2021-08-07 12:09:40,189729
-1,-1,-3,-6,-1,-3,0,-1,2021-08-07 12:09:40,204729
-3,-4,-2,0,-8,-5,-3,-3,2021-08-07 12:09:40,204729
-2,-3,-5,-6,-3,-2,-1,-1,2021-08-07 12:09:40,204729
-3,-4,-3,-3,-1,-4,-3,-3,2021-08-07 12:09:40,204729
0,-1,0,-1,-4,0,-2,0,2021-08-07 12:09:40,204729
4,2,1,2,3,1,2,2,2021-08-07 12:09:40,204729
0,0,1,5,6,2,-1,0,2021-08-07 12:09:40,220731
-2,-1,-5,-12,-8,-4,-3,-3,2021-08-07 12:09:40,220731
1,1,5,8,6,3,1,0,2021-08-07 12:09:40,220731
-2,-2,0,1,3,2,0,0,2021-08-07 12:09:40,236729
2,2,3,7,6,5,3,2,2021-08-07 12:09:40,236729
-4,-2,-2,-6,-6,-1,-1,-1,2021-08-07 12:09:40,236729
-1,-2,-5,-10,-13,-8,-4,-3,2021-08-07 12:09:40,236729
-5,-5,-4,-3,2,0,-1,-2,2021-08-07 12:09:40,236729
7,8,13,23,18,11,6,4,2021-08-07 12:09:40,251730
-4,-6,-7,-6,-5,-3,-3,-4,2021-08-07 12:09:40,267730
1,1,1,0,1,0,0,1,2021-08-07 12:09:40,283730
-5,-4,-7,-9,-11,-7,-3,-4,2021-08-07 12:09:40,283730
-4,-2,-3,-12,-10,-6,-5,-2,2021-08-07 12:09:40,299729
2,2,6,13,14,7,4,2,2021-08-07 12:09:40,314730
-2,-1,-3,-1,-1,0,-1,-1,2021-08-07 12:09:40,314730
-1,-1,-2,-4,0,-2,0,0,2021-08-07 12:09:40,314730
0,-3,-1,0,-7,-5,-4,-2,2021-08-07 12:09:40,314730
2,0,2,-2,-1,0,-1,0,2021-08-07 12:09:40,314730
-2,-3,-2,4,1,0,-1,-2,2021-08-07 12:09:40,314730
-2,-1,-2,-5,-5,-3,-3,0,2021-08-07 12:09:40,314730
-2,-5,-5,-7,-8,-4,-3,-2,2021-08-07 12:09:40,314730
-2,-1,-2,0,0,-1,-1,0,2021-08-07 12:09:40,314730
-2,-4,-4,-2,3,3,1,1,2021-08-07 12:09:40,315731
4,6,9,13,11,7,4,2,2021-08-07 12:09:40,315731
-2,-4,-6,-8,-10,-8,-6,-3,2021-08-07 12:09:40,346729
-3,-3,-4,-9,-9,-5,-3,-1,2021-08-07 12:09:40,346729
4,3,4,3,6,2,4,3,2021-08-07 12:09:40,346729
0,2,1,5,3,0,0,-1,2021-08-07 12:09:40,346729
-4,-2,-1,1,4,1,1,-2,2021-08-07 12:09:40,347731
-1,2,0,2,-5,-3,-2,-2,2021-08-07 12:09:40,347731
-4,-2,-1,-3,-6,-5,-4,-2,2021-08-07 12:09:40,347731
-2,-1,-2,-4,-3,-2,0,-1,2021-08-07 12:09:40,347731
1,2,5,5,-2,-3,-2,0,2021-08-07 12:09:40,362729
-2,-4,-4,-8,-1,-1,-2,-3,2021-08-07 12:09:40,362729
-1,1,0,0,-1,0,-1,-2,2021-08-07 12:09:40,378729
1,0,-3,-6,-6,-3,-3,-2,2021-08-07 12:09:40,378729
1,0,1,5,12,6,4,1,2021-08-07 12:09:40,393728
1,1,6,13,11,6,2,0,2021-08-07 12:09:40,409729
-3,-3,-5,-6,-4,-3,-2,-1,2021-08-07 12:09:40,409729
1,2,2,7,5,3,1,1,2021-08-07 12:09:40,409729
-4,-4,-7,-10,-14,-7,-4,-4,2021-08-07 12:09:40,409729
0,2,2,-1,1,-1,-2,1,2021-08-07 12:09:40,409729
-2,-2,-2,-6,-6,-4,-3,-2,2021-08-07 12:09:40,409729
-1,-1,0,-1,-1,1,-2,-1,2021-08-07 12:09:40,409729
0,0,0,1,1,1,1,1,2021-08-07 12:09:40,425731
-2,-3,-4,-2,-1,-3,-2,-2,2021-08-07 12:09:40,425731
-2,-1,-3,-2,-3,-3,-3,-2,2021-08-07 12:09:40,441729
-3,-3,-3,-8,-10,-7,-4,0,2021-08-07 12:09:40,441729
0,1,4,12,14,6,2,0,2021-08-07 12:09:40,457730
-3,-4,-6,-8,-7,-4,-2,-3,2021-08-07 12:09:40,473730
0,-1,-2,-2,-5,-3,-2,-2,2021-08-07 12:09:40,489729
2,4,7,10,9,5,4,1,2021-08-07 12:09:40,489729
-4,-4,-8,-9,-11,-9,-4,-4,2021-08-07 12:09:40,489729
1,-2,-4,-11,-1,1,0,2,2021-08-07 12:09:40,489729
-1,3,8,19,22,10,3,0,2021-08-07 12:09:40,490731
-2,-2,0,2,-5,-2,-2,-1,2021-08-07 12:09:40,490731
1,1,-1,-3,-8,-4,-2,-1,2021-08-07 12:09:40,490731
-1,0,-5,-10,-5,-2,-1,-1,2021-08-07 12:09:40,490731
-1,-2,0,-4,-8,-5,-3,-3,2021-08-07 12:09:40,490731
-4,-7,-4,-2,5,2,-2,-2,2021-08-07 12:09:40,490731
0,2,1,3,3,2,0,1,2021-08-07 12:09:40,520729
-3,-3,-5,-8,-15,-8,-4,-1,2021-08-07 12:09:40,520729
-1,-1,-8,-23,-19,-9,-4,-2,2021-08-07 12:09:40,520729
-1,3,7,24,25,10,4,1,2021-08-07 12:09:40,520729
4,4,9,14,18,14,8,3,2021-08-07 12:09:40,536731
-1,0,1,5,2,0,1,-2,2021-08-07 12:09:40,536731
-3,-2,-1,-4,-5,-3,-2,0,2021-08-07 12:09:40,536731
-4,-6,-9,-19,-17,-11,-7,-3,2021-08-07 12:09:40,536731
-4,-4,-8,-19,-27,-13,-6,-2,2021-08-07 12:09:40,552730
0,0,6,7,11,5,1,0,2021-08-07 12:09:40,552730
-2,0,-3,-9,-16,-6,-3,-1,2021-08-07 12:09:40,552730
4,3,5,17,33,17,8,2,2021-08-07 12:09:40,552730
0,2,3,7,4,0,0,2,2021-08-07 12:09:40,568731
1,-2,-2,-6,-14,-7,-2,-1,2021-08-07 12:09:40,568731
0,-1,0,4,7,4,5,1,2021-08-07 12:09:40,568731
-3,-5,-8,-18,-27,-9,-4,-3,2021-08-07 12:09:40,568731
-5,-6,-7,-9,8,2,0,-3,2021-08-07 12:09:40,600731
-3,-1,2,13,20,6,1,-1,2021-08-07 12:09:40,600731
2,3,6,8,0,0,-2,-2,2021-08-07 12:09:40,600731
-1,3,4,1,-1,-3,-1,-1,2021-08-07 12:09:40,600731
-1,-2,1,-1,-6,-5,-4,-1,2021-08-07 12:09:40,616731
-8,-8,-21,-52,-66,-35,-17,-5,2021-08-07 12:09:40,616731
10,10,19,52,73,40,21,11,2021-08-07 12:09:40,616731
0,-3,-5,-11,-11,-7,-3,-2,2021-08-07 12:09:40,616731
-1,0,1,1,2,3,3,0,2021-08-07 12:09:40,632730
3,4,12,34,49,22,7,3,2021-08-07 12:09:40,632730
-4,-3,-10,-24,-32,-17,-8,-4,2021-08-07 12:09:40,632730
-3,-2,-1,0,-6,-4,-2,-4,2021-08-07 12:09:40,632730
-1,-1,-1,-2,-3,-3,-2,-1,2021-08-07 12:09:40,664729
-2,-2,-1,-6,-10,-4,-2,-1,2021-08-07 12:09:40,664729
-5,-3,-4,-5,-5,-3,-4,-3,2021-08-07 12:09:40,680730
2,0,0,-4,-3,-1,-1,-1,2021-08-07 12:09:40,696351
2,1,-1,-2,-4,-2,1,2,2021-08-07 12:09:40,711773
0,1,0,-1,4,3,0,-1,2021-08-07 12:09:40,727772
0,0,5,15,13,6,0,1,2021-08-07 12:09:40,727772
-3,-4,-5,-9,-10,-7,-4,-3,2021-08-07 12:09:40,727772
1,1,0,2,2,1,0,1,2021-08-07 12:09:40,727772
-2,-2,0,-1,-3,-2,0,-2,2021-08-07 12:09:40,727772
1,0,-3,-8,-2,-2,0,-1,2021-08-07 12:09:40,728772
1,2,2,11,8,3,0,0,2021-08-07 12:09:40,728772
-3,-6,-4,-10,-13,-9,-6,-6,2021-08-07 12:09:40,728772
0,1,2,5,9,9,4,1,2021-08-07 12:09:40,728772
-6,-7,-15,-34,-46,-25,-12,-8,2021-08-07 12:09:40,728772
3,4,7,21,35,17,6,5,2021-08-07 12:09:40,728772
2,3,4,8,7,3,2,0,2021-08-07 12:09:40,729772
-2,-2,-3,-3,-3,-3,-3,-2,2021-08-07 12:09:40,729772
-1,0,2,0,-4,-1,-1,0,2021-08-07 12:09:40,743772
-2,-2,-4,-11,-18,-11,-5,-1,2021-08-07 12:09:40,743772
-4,-4,-2,-5,-4,-3,-3,-4,2021-08-07 12:09:40,759770
3,4,4,11,13,5,4,4,2021-08-07 12:09:40,759770
-4,-7,-8,-3,-3,-3,-3,-2,2021-08-07 12:09:40,759770
-4,-4,-6,-16,-15,-8,-7,-4,2021-08-07 12:09:40,759770
8,10,7,5,6,4,5,5,2021-08-07 12:09:40,775771
-1,4,5,11,6,3,2,-1,2021-08-07 12:09:40,807770
-2,-3,-3,0,1,0,-3,-1,2021-08-07 12:09:40,807770
-3,-3,-3,-3,2,-1,0,-2,2021-08-07 12:09:40,807770
1,2,-1,-2,-2,-2,-2,1,2021-08-07 12:09:40,807770
-1,-2,-5,-13,-12,-4,-2,-2,2021-08-07 12:09:40,807770
0,1,2,3,5,2,3,0,2021-08-07 12:09:40,807770
0,-1,3,13,6,3,0,-2,2021-08-07 12:09:40,823772
-4,-4,-3,4,1,0,-2,-2,2021-08-07 12:09:40,839774
2,1,-1,-3,4,1,0,1,2021-08-07 12:09:40,839774
1,1,5,15,17,7,1,-1,2021-08-07 12:09:40,839774
-1,-1,-6,-16,-25,-9,-3,0,2021-08-07 12:09:40,840770
0,0,0,4,14,5,2,0,2021-08-07 12:09:40,840770
-4,-3,-6,-11,-19,-9,-6,-3,2021-08-07 12:09:40,840770
-1,-1,0,-1,-5,-2,-1,0,2021-08-07 12:09:40,840770
3,4,6,12,20,10,5,3,2021-08-07 12:09:40,840770
-5,-6,-6,-13,-19,-10,-5,-3,2021-08-07 12:09:40,855770
1,1,2,14,14,6,4,3,2021-08-07 12:09:40,855770
-1,0,1,-2,-1,-3,-2,-2,2021-08-07 12:09:40,855770
-3,0,-4,-8,-7,-4,-3,-2,2021-08-07 12:09:40,855770
-3,-3,-2,3,6,3,1,-1,2021-08-07 12:09:40,871771
-3,-3,-3,-6,-11,-5,-4,-2,2021-08-07 12:09:40,871771
3,7,3,5,4,2,3,1,2021-08-07 12:09:40,871771
-3,-3,-3,-6,-7,-6,-3,-1,2021-08-07 12:09:40,871771
-3,-3,-8,-22,-22,-10,-5,-3,2021-08-07 12:09:40,903772
5,6,11,26,35,17,9,4,2021-08-07 12:09:40,903772
0,1,2,6,3,1,1,1,2021-08-07 12:09:40,903772
0,-1,-3,-5,-4,-2,-3,0,2021-08-07 12:09:40,903772
-4,-6,-7,-15,-12,-8,-4,-3,2021-08-07 12:09:40,919771
-2,-3,-5,-8,-13,-10,-6,-2,2021-08-07 12:09:40,920016
0,1,4,12,15,8,2,2,2021-08-07 12:09:40,920016
0,-1,-2,-2,0,-1,-1,-2,2021-08-07 12:09:40,920016
-1,-1,0,1,-1,0,-1,-1,2021-08-07 12:09:40,951284
-1,-2,-2,-7,-8,-5,-2,-3,2021-08-07 12:09:40,965286
-3,-3,-4,-9,-10,-6,-2,-3,2021-08-07 12:09:40,965286
-1,-3,-3,-1,-3,-2,-2,-2,2021-08-07 12:09:40,966285
-1,1,-2,-4,-6,-3,-2,1,2021-08-07 12:09:40,966285
0,0,6,14,16,10,4,2,2021-08-07 12:09:40,966285
-4,-4,-5,-8,-8,-6,-2,-2,2021-08-07 12:09:40,966285
4,3,5,10,7,5,4,3,2021-08-07 12:09:40,966285
0,0,1,-1,-4,-4,-2,-2,2021-08-07 12:09:40,982285
-3,-1,-8,-18,-18,-9,-3,-1,2021-08-07 12:09:40,982285
0,-3,6,20,24,9,4,1,2021-08-07 12:09:40,982285
-1,-4,-1,0,-4,-3,-2,-2,2021-08-07 12:09:40,982285
0,2,2,3,4,1,-2,0,2021-08-07 12:09:40,998286
-1,-3,-6,-14,-17,-9,-5,-4,2021-08-07 12:09:40,998286
1,2,-1,-8,2,-1,-2,-2,2021-08-07 12:09:41,014285
-1,1,3,8,8,4,2,1,2021-08-07 12:09:41,030285
-3,-3,-3,2,3,1,0,-1,2021-08-07 12:09:41,046285
-3,-1,-2,-8,-13,-5,-4,-3,2021-08-07 12:09:41,046285
4,4,6,17,11,5,3,3,2021-08-07 12:09:41,046285
-3,-2,-5,-8,-8,-5,-3,-2,2021-08-07 12:09:41,046285
-4,-2,-5,-17,-21,-9,-4,-3,2021-08-07 12:09:41,046285
3,3,8,28,43,19,6,3,2021-08-07 12:09:41,046285
1,0,-2,-4,-11,-3,-2,-2,2021-08-07 12:09:41,046285
-3,-3,-3,-4,-4,-2,-1,-2,2021-08-07 12:09:41,047286
0,-1,0,2,1,-2,0,-1,2021-08-07 12:09:41,062287
-4,-5,-9,-16,-12,-6,-3,-2,2021-08-07 12:09:41,077287
-2,-2,-2,-3,-6,-1,-2,-3,2021-08-07 12:09:41,077287
0,1,2,-4,-4,-3,-1,-1,2021-08-07 12:09:41,093285
-2,-1,-4,-6,-8,-3,-2,-2,2021-08-07 12:09:41,109285
1,0,5,18,29,10,4,1,2021-08-07 12:09:41,109285
-3,-3,-6,-19,-29,-14,-5,-4,2021-08-07 12:09:41,109285
0,0,3,14,23,9,2,-1,2021-08-07 12:09:41,109285
-1,-5,-3,-1,-5,-1,-1,-2,2021-08-07 12:09:41,109285
0,-1,0,0,-2,-1,-1,0,2021-08-07 12:09:41,109285
-3,-3,-5,-9,-8,-7,-4,-3,2021-08-07 12:09:41,109285
-2,-3,-7,-17,-24,-12,-6,-5,2021-08-07 12:09:41,109285
1,0,0,1,9,5,3,3,2021-08-07 12:09:41,141284
1,1,4,8,7,3,2,-1,2021-08-07 12:09:41,141284
-1,-5,-4,-9,-13,-7,-4,-1,2021-08-07 12:09:41,141284
1,0,2,5,8,3,1,1,2021-08-07 12:09:41,141284
-1,2,3,12,13,5,1,0,2021-08-07 12:09:41,141284
-4,-5,-10,-13,-19,-10,-4,-4,2021-08-07 12:09:41,141284
-6,-5,-7,-8,0,-2,-1,-2,2021-08-07 12:09:41,141284
4,7,5,0,-1,0,2,3,2021-08-07 12:09:41,142286
2,3,1,0,-4,-3,-2,0,2021-08-07 12:09:41,157285
-3,-2,-1,-2,-6,-1,-1,0,2021-08-07 12:09:41,157285
-1,-3,0,3,12,5,-1,-4,2021-08-07 12:09:41,157285
-6,-9,-7,-7,-3,-3,-6,-4,2021-08-07 12:09:41,157285
6,7,7,8,9,8,4,4,2021-08-07 12:09:41,188285
0,0,2,-2,-12,-5,-1,1,2021-08-07 12:09:41,204286
-2,-2,-2,-4,-2,-1,-2,-1,2021-08-07 12:09:41,220286
-4,-4,-5,-7,-8,-4,-3,-1,2021-08-07 12:09:41,236286
-7,-10,-15,-32,-34,-21,-9,-6,2021-08-07 12:09:41,236286
8,11,23,50,57,27,11,7,2021-08-07 12:09:41,236286
0,2,1,5,9,4,2,0,2021-08-07 12:09:41,236286
-1,0,0,2,2,1,0,-1,2021-08-07 12:09:41,236286
-3,-5,-5,-8,-12,-7,-3,-4,2021-08-07 12:09:41,236286
-3,-5,-7,-13,-16,-10,-6,-4,2021-08-07 12:09:41,237288
0,0,1,16,32,14,7,3,2021-08-07 12:09:41,237288
6,6,7,8,4,3,3,3,2021-08-07 12:09:41,237288
-2,-2,0,6,10,4,2,1,2021-08-07 12:09:41,237288
0,1,-5,-18,-25,-9,-4,-1,2021-08-07 12:09:41,237288
-5,-3,-6,-8,-13,-8,-4,-3,2021-08-07 12:09:41,237288
-3,-3,-6,-9,-10,-6,-2,-1,2021-08-07 12:09:41,238286
5,5,13,32,37,20,8,4,2021-08-07 12:09:41,268285
-5,-6,-3,-10,-11,-5,-5,-4,2021-08-07 12:09:41,268285
0,0,-2,-6,-11,-5,-4,-1,2021-08-07 12:09:41,268285
-2,-2,-2,-7,-8,-3,-3,-5,2021-08-07 12:09:41,268285
3,2,2,2,3,2,1,1,2021-08-07 12:09:41,284287
1,0,-2,-5,0,0,1,1,2021-08-07 12:09:41,300286
0,0,2,-2,-12,-5,-4,-1,2021-08-07 12:09:41,315286
0,0,-1,3,12,4,1,0,2021-08-07 12:09:41,315286
-2,-1,2,6,9,5,2,1,2021-08-07 12:09:41,315286
2,-1,-6,-9,-10,-5,-1,0,2021-08-07 12:09:41,331284
0,-1,-1,0,-5,-5,1,1,2021-08-07 12:09:41,331284
-1,-3,-4,2,-1,2,1,1,2021-08-07 12:09:41,331284
-1,-1,1,3,13,3,0,-4,2021-08-07 12:09:41,331284
-4,-2,-5,-13,-19,-11,-6,-6,2021-08-07 12:09:41,331284
1,3,6,14,19,9,5,0,2021-08-07 12:09:41,332287
-2,-3,-1,-2,-9,-5,-3,-3,2021-08-07 12:09:41,332287
0,2,1,6,9,5,-1,0,2021-08-07 12:09:41,332287
0,-2,-2,-5,-6,-4,-1,-2,2021-08-07 12:09:41,332287
-2,-3,-6,-10,-10,-5,-4,-3,2021-08-07 12:09:41,332287
-1,-2,-3,-6,-2,-1,-1,0,2021-08-07 12:09:41,332287
1,-1,-2,-1,-4,-3,1,2,2021-08-07 12:09:41,363286
1,-1,-2,1,2,-1,0,1,2021-08-07 12:09:41,363286
-1,-1,-4,-3,-4,-2,-1,-1,2021-08-07 12:09:41,363286
-3,-2,-2,-2,-1,-1,-2,-2,2021-08-07 12:09:41,363286
-2,-2,-1,0,-2,-1,-3,-1,2021-08-07 12:09:41,379285
5,7,9,12,12,6,3,4,2021-08-07 12:09:41,379285
1,-2,-3,-5,-1,0,0,0,2021-08-07 12:09:41,379285
-5,-5,-6,-14,-18,-11,-6,-5,2021-08-07 12:09:41,379285
4,3,4,12,11,6,4,3,2021-08-07 12:09:41,394286
-2,-3,-1,2,2,0,-2,-2,2021-08-07 12:09:41,394286
-4,-4,-3,-6,-3,-2,-1,-2,2021-08-07 12:09:41,394286
1,1,1,1,0,-1,-2,0,2021-08-07 12:09:41,410287
2,1,-6,-17,-18,-8,-3,0,2021-08-07 12:09:41,424286
0,1,13,32,27,13,5,0,2021-08-07 12:09:41,424286
-1,0,2,3,0,-3,-3,-2,2021-08-07 12:09:41,424286
-3,-5,-4,1,2,0,1,-2,2021-08-07 12:09:41,424286
-5,-6,-8,-15,-22,-12,-6,-5,2021-08-07 12:09:41,442286
-3,-4,-6,-19,-20,-9,-6,-3,2021-08-07 12:09:41,458285
2,3,8,17,21,11,4,2,2021-08-07 12:09:41,458285
2,4,5,11,16,7,3,1,2021-08-07 12:09:41,458285
-2,-2,0,3,3,0,-1,-3,2021-08-07 12:09:41,458285
-5,-8,-11,-21,-29,-16,-8,-5,2021-08-07 12:09:41,458285
1,1,1,-1,0,3,2,2,2021-08-07 12:09:41,458285
4,5,4,4,4,3,3,3,2021-08-07 12:09:41,458285
-1,1,3,9,13,5,2,-1,2021-08-07 12:09:41,490285
0,1,0,-2,-3,-3,0,0,2021-08-07 12:09:41,490285
-6,-7,-13,-23,-30,-15,-9,-6,2021-08-07 12:09:41,490285
3,2,3,7,16,8,4,1,2021-08-07 12:09:41,506287
0,2,2,0,1,2,1,2,2021-08-07 12:09:41,522285
-1,-3,-2,-6,-6,-3,-1,-1,2021-08-07 12:09:41,522285
2,1,-1,-1,2,1,-1,0,2021-08-07 12:09:41,522285
-1,-3,-2,-12,-12,-4,-3,0,2021-08-07 12:09:41,522285
-2,-2,6,15,3,-1,-2,-1,2021-08-07 12:09:41,522285
1,2,0,1,7,1,0,-1,2021-08-07 12:09:41,522285
2,2,-2,-9,-11,-5,-3,-1,2021-08-07 12:09:41,523286
-1,-3,-3,1,1,1,0,-2,2021-08-07 12:09:41,523286
-1,1,1,4,8,4,0,0,2021-08-07 12:09:41,538286
-1,0,-5,-9,-16,-7,-2,0,2021-08-07 12:09:41,554285
-3,-4,2,7,7,2,1,-1,2021-08-07 12:09:41,570288
-1,1,-1,-1,-2,-4,-1,0,2021-08-07 12:09:41,570288
0,-3,-6,-12,-11,-3,-1,0,2021-08-07 12:09:41,570288
1,-1,-1,10,20,8,3,0,2021-08-07 12:09:41,570288
-1,-1,-4,-7,-12,-7,-1,-3,2021-08-07 12:09:41,570288
1,1,4,8,6,3,2,0,2021-08-07 12:09:41,570288
1,0,4,12,18,8,4,2,2021-08-07 12:09:41,571286
-3,-2,-3,-9,-11,-5,-3,-1,2021-08-07 12:09:41,571286
-1,-1,-3,-4,0,-2,-2,-2,2021-08-07 12:09:41,571286
2,1,2,4,-3,-3,-1,0,2021-08-07 12:09:41,571286
-1,0,-6,-11,-16,-9,-3,-2,2021-08-07 12:09:41,602287
-2,-4,-3,-4,11,5,-1,-2,2021-08-07 12:09:41,602287
-2,-2,-3,2,1,1,-1,-2,2021-08-07 12:09:41,602287
1,1,-1,-6,-8,-4,-1,0,2021-08-07 12:09:41,602287
-2,-5,-6,-7,-6,-3,0,-2,2021-08-07 12:09:41,633287
2,4,5,18,17,8,2,3,2021-08-07 12:09:41,649287
0,2,5,5,1,2,1,1,2021-08-07 12:09:41,649287
-2,-2,-4,-9,-9,-4,-5,-2,2021-08-07 12:09:41,649287
-1,-1,0,-6,-6,-3,-5,-3,2021-08-07 12:09:41,649287
-3,-3,-5,-4,-5,-3,-2,-4,2021-08-07 12:09:41,649287
-1,-2,1,0,3,1,0,0,2021-08-07 12:09:41,649287
0,0,1,4,2,1,0,0,2021-08-07 12:09:41,650286
0,-1,-1,-3,-1,-1,0,1,2021-08-07 12:09:41,665287
-3,-6,-4,-4,-5,-2,-2,-5,2021-08-07 12:09:41,665287
0,-1,-2,-6,-7,-5,-4,-2,2021-08-07 12:09:41,665287
-1,-1,-3,-1,0,-1,1,-1,2021-08-07 12:09:41,665287
1,1,3,1,0,-1,1,-1,2021-08-07 12:09:41,681286
-1,-1,-1,-1,-3,-2,-2,0,2021-08-07 12:09:41,681286
-2,0,-1,9,12,3,1,0,2021-08-07 12:09:41,681286
-2,-2,-2,-7,-6,-3,-2,-2,2021-08-07 12:09:41,697285
-1,-1,-3,-4,-4,-4,-2,-1,2021-08-07 12:09:41,697285
-1,0,2,2,-1,1,2,-1,2021-08-07 12:09:41,697285
-1,-1,-2,-4,-3,-3,0,-1,2021-08-07 12:09:41,697285
-2,0,-2,-9,2,1,-1,-1,2021-08-07 12:09:41,697285
2,5,13,38,33,15,4,2,2021-08-07 12:09:41,727284
-4,-3,-4,-13,-12,-6,-3,-2,2021-08-07 12:09:41,742285
-1,0,-2,-1,-4,-3,-1,-2,2021-08-07 12:09:41,758288
-4,-4,-5,-10,-11,-4,-4,-4,2021-08-07 12:09:41,774286
-1,-4,-7,-14,-15,-8,-5,-3,2021-08-07 12:09:41,805286
-1,-1,-1,-2,6,1,0,0,2021-08-07 12:09:41,821285
1,1,1,8,7,5,2,1,2021-08-07 12:09:41,821285
0,-1,3,10,6,1,-1,0,2021-08-07 12:09:41,821285
0,-1,-1,-4,-4,-2,-1,-2,2021-08-07 12:09:41,821285
-3,-1,0,-2,-6,-3,-1,-1,2021-08-07 12:09:41,821285
-2,-3,-6,-12,-13,-6,-4,-3,2021-08-07 12:09:41,821285
1,3,1,6,6,2,2,0,2021-08-07 12:09:41,822287
-1,0,0,-2,-3,-1,1,-1,2021-08-07 12:09:41,822287
-1,-1,-2,0,-3,-2,-2,0,2021-08-07 12:09:41,836287
-3,-2,-1,0,0,-1,-1,-1,2021-08-07 12:09:41,852289
-3,-1,0,4,4,2,-2,-1,2021-08-07 12:09:41,868285
1,1,1,-2,-2,-2,0,-3,2021-08-07 12:09:41,878286
-1,-1,-4,-1,-3,-1,0,1,2021-08-07 12:09:41,878286
3,-1,-1,-1,-1,-2,-4,3,2021-08-07 12:09:41,878286
-5,-2,0,-1,-1,-2,-1,-12,2021-08-07 12:09:41,878286
-9,-3,-4,-6,-5,-2,-2,-4,2021-08-07 12:09:41,878286
-13,-4,0,-1,2,3,4,-10,2021-08-07 12:09:41,878286
4,4,4,3,4,4,5,7,2021-08-07 12:09:41,878286
8,-2,-2,-3,-4,-2,1,9,2021-08-07 12:09:41,879286
14,3,1,0,1,0,1,5,2021-08-07 12:09:41,879286
-1,0,0,2,0,-2,-4,-3,2021-08-07 12:09:41,879286
-15,-4,-1,-3,-5,-4,-6,-10,2021-08-07 12:09:41,879286
1,2,1,0,0,0,-1,0,2021-08-07 12:09:41,879286
-4,0,-1,0,0,-1,0,0,2021-08-07 12:09:41,879286
8,1,1,-2,0,-2,-1,6,2021-08-07 12:09:41,879286
0,-3,-3,-1,-3,-3,-2,-2,2021-08-07 12:09:41,880286
-5,-1,0,6,1,0,-1,-3,2021-08-07 12:09:41,880286
0,0,0,-2,7,3,1,2,2021-08-07 12:09:41,880286
0,-1,-2,3,-2,-1,-1,-1,2021-08-07 12:09:41,880286
-1,-1,1,0,1,0,1,-2,2021-08-07 12:09:41,880286
-4,-3,-8,-12,-20,-10,-3,-2,2021-08-07 12:09:41,880286
1,0,-2,-10,-6,-2,-1,0,2021-08-07 12:09:41,900285
-1,-1,-1,6,7,3,1,0,2021-08-07 12:09:41,900285
1,-2,0,7,12,5,1,-2,2021-08-07 12:09:41,900285
2,-1,-1,-3,-3,1,0,3,2021-08-07 12:09:41,900285
-5,-4,-7,-16,-18,-10,-6,-5,2021-08-07 12:09:41,932286
1,-1,-2,-3,0,-1,1,1,2021-08-07 12:09:41,932286
6,4,3,6,2,2,3,1,2021-08-07 12:09:41,932286
-2,-1,0,0,4,1,1,-3,2021-08-07 12:09:41,932286
-4,-4,-5,-6,-7,-5,-3,-5,2021-08-07 12:09:41,932286
-2,-5,-5,-10,-10,-5,-5,-4,2021-08-07 12:09:41,932286
3,3,5,18,28,12,6,3,2021-08-07 12:09:41,964285
0,-1,0,4,2,0,-2,0,2021-08-07 12:09:41,964285
-1,-2,1,6,5,2,0,1,2021-08-07 12:09:41,964285
-1,-3,-3,-6,-13,-7,-4,-2,2021-08-07 12:09:41,964285
-1,-1,-7,-18,-21,-10,-4,-2,2021-08-07 12:09:41,964285
-1,1,1,-1,1,-2,-2,-1,2021-08-07 12:09:41,964285
-1,-3,-1,-1,3,4,1,0,2021-08-07 12:09:41,995286
5,5,9,16,19,10,4,5,2021-08-07 12:09:42,011286
-2,-3,-1,0,-7,-4,-2,-2,2021-08-07 12:09:42,027287
1,-1,0,3,0,0,0,0,2021-08-07 12:09:42,027287
-7,-9,-9,-15,-15,-8,-4,-5,2021-08-07 12:09:42,043284
6,9,8,2,-1,2,2,2,2021-08-07 12:09:42,059289
0,0,-2,-6,-2,-1,-1,-1,2021-08-07 12:09:42,059289
-1,-1,0,-2,-4,0,-3,0,2021-08-07 12:09:42,059289
-3,-3,-2,3,-7,-4,-1,-1,2021-08-07 12:09:42,059289
-3,-1,1,7,20,6,1,-2,2021-08-07 12:09:42,059289
-1,-4,-2,3,8,6,2,-2,2021-08-07 12:09:42,059289
-2,-4,-6,-5,-3,-4,-1,-1,2021-08-07 12:09:42,060286
5,5,5,5,1,0,-1,1,2021-08-07 12:09:42,060286
-3,-2,-5,-9,-10,-5,-3,-2,2021-08-07 12:09:42,060286
-3,-1,-3,-15,-24,-10,-7,-3,2021-08-07 12:09:42,060286
-5,-5,-2,4,7,2,-1,-2,2021-08-07 12:09:42,060286
0,2,4,10,14,6,4,1,2021-08-07 12:09:42,060286
1,0,-1,-3,-6,-3,0,0,2021-08-07 12:09:42,060286
-1,-1,-6,-9,-14,-8,-5,-2,2021-08-07 12:09:42,060286
2,5,4,5,10,7,2,1,2021-08-07 12:09:42,061288
-1,1,0,8,7,3,2,-2,2021-08-07 12:09:42,090288
-1,-2,0,1,3,1,0,-1,2021-08-07 12:09:42,106285
0,0,-2,-5,-7,-1,0,2,2021-08-07 12:09:42,107287
1,-1,-1,-2,-2,-1,0,3,2021-08-07 12:09:42,107287
-2,-1,2,1,-2,-1,-2,0,2021-08-07 12:09:42,122285
-4,-3,-1,1,5,2,0,-2,2021-08-07 12:09:42,138286
-6,-4,-3,2,-3,-4,-3,-6,2021-08-07 12:09:42,138286
0,0,-1,-4,-2,-2,-2,0,2021-08-07 12:09:42,138286
1,0,0,-2,-2,1,-2,0,2021-08-07 12:09:42,138286
3,0,-3,-6,-6,-1,0,0,2021-08-07 12:09:42,138286
2,3,4,7,4,3,1,1,2021-08-07 12:09:42,138286
-1,-1,-3,-1,-3,-1,0,-1,2021-08-07 12:09:42,154286
-3,-3,-4,-2,-4,-3,-2,-2,2021-08-07 12:09:42,154286
-1,-5,-4,-11,-13,-8,-4,-2,2021-08-07 12:09:42,154286
3,2,3,2,8,3,3,2,2021-08-07 12:09:42,154286
2,-1,1,6,4,2,0,1,2021-08-07 12:09:42,154286
-1,-2,-3,-3,-1,0,0,-1,2021-08-07 12:09:42,170287
-5,-5,-3,-3,-8,-6,-3,-5,2021-08-07 12:09:42,170287
2,0,1,8,14,7,3,1,2021-08-07 12:09:42,186284
-3,-3,-3,-6,-10,-4,-2,-3,2021-08-07 12:09:42,186284
-1,-2,0,-4,1,0,0,0,2021-08-07 12:09:42,186284
-1,0,-1,-3,-14,-8,-6,-3,2021-08-07 12:09:42,186284
-3,-5,-5,-1,3,0,-1,-3,2021-08-07 12:09:42,186284
2,3,2,1,12,6,3,1,2021-08-07 12:09:42,186284
4,6,8,16,14,7,4,2,2021-08-07 12:09:42,202286
-2,-1,-2,3,2,0,0,-1,2021-08-07 12:09:42,202286
-3,-3,-3,-11,-14,-7,-3,-2,2021-08-07 12:09:42,202286
-4,-6,-7,-11,-22,-11,-6,-3,2021-08-07 12:09:42,202286
-3,-3,-3,-1,11,2,0,-2,2021-08-07 12:09:42,234286
-2,-1,-2,1,1,-1,-1,-1,2021-08-07 12:09:42,234286
2,4,5,7,4,2,2,0,2021-08-07 12:09:42,234286
-2,-1,-2,-3,-3,0,1,0,2021-08-07 12:09:42,234286
0,2,2,-2,-10,-5,-2,-1,2021-08-07 12:09:42,265287
-2,-4,-6,-7,-6,-3,-3,-1,2021-08-07 12:09:42,265287
-3,-5,-5,-6,0,-3,-2,-2,2021-08-07 12:09:42,265287
0,2,-1,2,0,0,1,-1,2021-08-07 12:09:42,265287
3,2,2,-1,-1,2,1,2,2021-08-07 12:09:42,265287
3,1,3,10,16,6,2,2,2021-08-07 12:09:42,265287
-5,-5,-6,-7,-11,-5,-3,-3,2021-08-07 12:09:42,266286
3,4,4,2,0,-1,1,0,2021-08-07 12:09:42,266286
-2,-4,-5,-5,-5,-4,-3,-2,2021-08-07 12:09:42,281286
-1,-1,-1,-2,-1,1,-1,0,2021-08-07 12:09:42,281286
-3,-4,-3,-4,0,0,-1,-1,2021-08-07 12:09:42,281286
1,2,3,4,7,4,2,2,2021-08-07 12:09:42,281286
0,-1,0,-3,-5,-3,-2,-2,2021-08-07 12:09:42,313287
0,2,0,-4,-6,-4,-1,-1,2021-08-07 12:09:42,313287
-3,-5,-7,-14,-13,-7,-4,-4,2021-08-07 12:09:42,313287
0,-2,1,10,11,6,2,-2,2021-08-07 12:09:42,313287
1,-1,-3,1,3,1,0,0,2021-08-07 12:09:42,313287
-5,-4,-4,-5,-2,-2,-2,-3,2021-08-07 12:09:42,313287
3,6,5,4,2,1,3,1,2021-08-07 12:09:42,328286
-2,-5,-4,-11,-13,-8,-4,-2,2021-08-07 12:09:42,328286
1,2,-2,-5,2,2,1,1,2021-08-07 12:09:42,344286
-3,-2,2,5,5,1,-2,-4,2021-08-07 12:09:42,345286
-3,-5,-3,1,-1,-1,-2,-1,2021-08-07 12:09:42,346287
2,3,3,5,5,0,1,2,2021-08-07 12:09:42,346287
-1,-2,-3,-2,-8,-4,-3,0,2021-08-07 12:09:42,376285
-2,-1,-3,-6,-7,-3,-2,1,2021-08-07 12:09:42,376285
-3,-5,-4,-6,-4,-3,-4,-4,2021-08-07 12:09:42,376285
-3,-3,-2,-4,-2,-3,-2,-2,2021-08-07 12:09:42,376285
0,0,1,6,5,4,1,-1,2021-08-07 12:09:42,376285
1,0,0,1,1,3,3,0,2021-08-07 12:09:42,376285
-1,1,2,11,15,2,1,-2,2021-08-07 12:09:42,392284
-3,-3,-4,-8,-9,-5,-3,-3,2021-08-07 12:09:42,392284
-1,-1,-4,-3,-5,-2,-2,-1,2021-08-07 12:09:42,408289
-2,-1,-3,-5,-8,-6,-3,-3,2021-08-07 12:09:42,408289
2,3,3,3,1,0,0,1,2021-08-07 12:09:42,408289
-1,-1,-1,-2,1,0,-1,-2,2021-08-07 12:09:42,408289
-2,-2,-1,1,-2,-4,-2,-2,2021-08-07 12:09:42,424288
-3,-5,-1,-1,2,0,1,-3,2021-08-07 12:09:42,424288
-1,-2,-2,-4,-8,-5,-1,-1,2021-08-07 12:09:42,424288
1,1,1,-1,2,1,1,2,2021-08-07 12:09:42,424288
-1,-2,-1,-1,-5,-3,-1,-1,2021-08-07 12:09:42,440288
0,-2,0,7,12,4,-1,0,2021-08-07 12:09:42,456288
-1,-1,-2,-2,-2,-1,-2,-1,2021-08-07 12:09:42,456288
-1,-2,-1,3,2,2,0,-1,2021-08-07 12:09:42,456288
-1,0,-1,-4,-7,-5,-3,-1,2021-08-07 12:09:42,456288
-1,-2,-2,-6,-5,-2,-2,-1,2021-08-07 12:09:42,457288
1,0,0,0,-2,-2,0,0,2021-08-07 12:09:42,457288
0,-3,-3,-3,-2,-2,-1,-2,2021-08-07 12:09:42,457288
-3,-4,-5,-4,-2,-1,-2,-2,2021-08-07 12:09:42,488286
-2,0,2,1,4,0,1,0,2021-08-07 12:09:42,488286
0,-3,-3,-2,-1,0,-2,-2,2021-08-07 12:09:42,488286
2,2,3,3,-1,0,1,1,2021-08-07 12:09:42,488286
-2,1,2,2,2,1,0,0,2021-08-07 12:09:42,504285
2,2,2,4,4,2,3,1,2021-08-07 12:09:42,504285
-2,0,0,0,6,1,0,1,2021-08-07 12:09:42,504285
-3,-4,-3,-1,4,1,0,0,2021-08-07 12:09:42,504285
-1,-3,-3,-4,-3,-2,-1,-1,2021-08-07 12:09:42,520286
0,3,1,-2,-4,-2,0,-1,2021-08-07 12:09:42,536286
-1,1,2,-3,-2,1,0,0,2021-08-07 12:09:42,552286
1,3,3,5,1,-1,0,-1,2021-08-07 12:09:42,552286
-5,-5,-3,-5,-5,-6,-3,-3,2021-08-07 12:09:42,552286
0,0,-2,-4,3,2,-1,1,2021-08-07 12:09:42,552286
-2,-1,1,2,-1,1,1,0,2021-08-07 12:09:42,553285
-4,-2,-2,-3,-2,0,-3,-3,2021-08-07 12:09:42,553285
-3,-4,-6,-8,-6,-4,-2,-4,2021-08-07 12:09:42,568285
2,2,6,13,9,6,3,2,2021-08-07 12:09:42,568285
-1,0,-3,-1,-1,-1,-2,-2,2021-08-07 12:09:42,568285
0,-1,-2,-8,-8,-2,-1,0,2021-08-07 12:09:42,568285
3,2,4,11,9,5,4,0,2021-08-07 12:09:42,584286
-4,-5,-7,-8,-9,-6,-5,-2,2021-08-07 12:09:42,600285
-2,0,2,0,-2,-1,-2,-1,2021-08-07 12:09:42,600285
-7,-8,-8,-6,-9,-7,-4,-6,2021-08-07 12:09:42,600285
5,4,6,4,7,4,2,3,2021-08-07 12:09:42,600285
4,4,4,3,7,6,3,3,2021-08-07 12:09:42,600285
2,3,3,4,-2,0,0,-2,2021-08-07 12:09:42,601287
-4,-3,-5,-10,-11,-8,-3,-2,2021-08-07 12:09:42,601287
-2,-3,0,7,16,6,0,0,2021-08-07 12:09:42,631285
-3,-2,-1,-3,-8,-4,-4,-3,2021-08-07 12:09:42,647285
0,-1,-2,-1,-2,-1,-1,0,2021-08-07 12:09:42,647285
0,0,-2,-2,-1,1,0,0,2021-08-07 12:09:42,663288
-5,-5,-7,-15,-17,-7,-4,-4,2021-08-07 12:09:42,679285
1,1,2,4,1,1,-1,-1,2021-08-07 12:09:42,679285
4,3,4,6,10,6,3,2,2021-08-07 12:09:42,679285
4,4,5,19,13,6,3,1,2021-08-07 12:09:42,679285
-4,-3,-4,0,-1,-2,-3,-3,2021-08-07 12:09:42,679285
-8,-10,-9,-12,-15,-11,-6,-6,2021-08-07 12:09:42,679285
0,-2,-3,-10,-11,-5,0,3,2021-08-07 12:09:42,679285
0,-1,1,-1,-1,0,0,-2,2021-08-07 12:09:42,680286
0,0,-2,0,-3,-1,-1,-2,2021-08-07 12:09:42,680286
0,-4,-2,1,0,-2,-1,-2,2021-08-07 12:09:42,680286
1,1,-3,-3,2,3,0,2,2021-08-07 12:09:42,680286
1,0,1,-2,3,3,2,0,2021-08-07 12:09:42,680286
-2,-3,-8,-17,-23,-9,-4,0,2021-08-07 12:09:42,711287
2,3,5,10,10,5,1,0,2021-08-07 12:09:42,727286
-4,-3,-3,5,7,1,-1,-4,2021-08-07 12:09:42,743285
-3,-5,-2,0,5,4,0,-2,2021-08-07 12:09:42,743285
5,6,6,6,6,3,2,1,2021-08-07 12:09:42,743285
-1,0,-6,-14,-15,-8,-4,-1,2021-08-07 12:09:42,743285
-2,-3,1,2,-4,-3,-5,-1,2021-08-07 12:09:42,743285
2,1,3,6,5,2,2,1,2021-08-07 12:09:42,743285
-2,-2,0,1,1,-2,0,-2,2021-08-07 12:09:42,744287
-4,-4,-7,-8,-9,-6,-2,-3,2021-08-07 12:09:42,744287
-2,0,-1,-5,-5,-3,-2,-1,2021-08-07 12:09:42,744287
-2,-3,-5,-7,-7,-5,-3,-2,2021-08-07 12:09:42,744287
-1,-1,0,7,8,4,0,1,2021-08-07 12:09:42,775285
-2,-5,-4,-3,-2,-3,-2,-3,2021-08-07 12:09:42,786286
3,2,1,0,3,1,3,3,2021-08-07 12:09:42,787287
2,3,2,0,-1,0,0,1,2021-08-07 12:09:42,787287
0,0,1,1,1,1,0,-2,2021-08-07 12:09:42,787287
-3,-2,-4,0,0,0,-2,-3,2021-08-07 12:09:42,787287
-6,-6,-4,-5,-3,-4,-3,-4,2021-08-07 12:09:42,787287
2,4,3,3,1,1,1,2,2021-08-07 12:09:42,787287
-2,-3,-1,1,1,0,-1,-1,2021-08-07 12:09:42,807287
-1,2,-1,-3,-1,-1,0,1,2021-08-07 12:09:42,823285
0,0,1,4,0,1,1,-1,2021-08-07 12:09:42,839286
-3,-2,-3,-1,0,-1,-2,0,2021-08-07 12:09:42,839286
-3,-6,-5,-7,-4,-3,-2,-4,2021-08-07 12:09:42,839286
3,6,5,7,5,3,3,3,2021-08-07 12:09:42,839286
0,1,-3,-6,-5,-1,0,-1,2021-08-07 12:09:42,839286
0,0,1,3,-1,-1,0,0,2021-08-07 12:09:42,840286
-3,0,-1,-1,-2,-1,-1,-1,2021-08-07 12:09:42,840286
0,-2,-2,-3,-1,-2,-1,-2,2021-08-07 12:09:42,840286
-2,-4,-4,-4,-5,-4,-3,-3,2021-08-07 12:09:42,840286
-2,-1,-2,-2,1,2,-2,-1,2021-08-07 12:09:42,840286
1,2,0,-1,-1,0,0,0,2021-08-07 12:09:42,855284
0,0,0,0,-3,2,0,0,2021-08-07 12:09:42,871286
2,3,3,2,-1,1,-1,2,2021-08-07 12:09:42,887286
1,0,5,14,17,7,3,1,2021-08-07 12:09:42,887286
-1,1,-1,3,4,0,-2,0,2021-08-07 12:09:42,887286
2,2,2,5,2,1,3,1,2021-08-07 12:09:42,887286
-2,-4,-6,-10,-11,-5,-2,-2,2021-08-07 12:09:42,887286
-3,-4,-9,-16,-14,-7,-4,-2,2021-08-07 12:09:42,887286
-1,-5,-4,-5,-8,-3,-3,0,2021-08-07 12:09:42,903285
-8,-8,-5,-5,-1,-2,-4,-4,2021-08-07 12:09:42,919285
0,3,5,9,13,6,1,-2,2021-08-07 12:09:42,919285
0,3,1,-1,-6,-4,-2,-4,2021-08-07 12:09:42,919285
-2,1,-1,-3,-2,-2,-2,-2,2021-08-07 12:09:42,919285
2,0,-1,-7,-7,-5,-2,0,2021-08-07 12:09:42,920289
0,-2,1,9,2,-1,0,0,2021-08-07 12:09:42,920289
-6,-5,-9,-13,-13,-8,-5,-3,2021-08-07 12:09:42,920289
4,6,6,5,6,5,5,5,2021-08-07 12:09:42,951284
3,1,-1,1,10,5,2,2,2021-08-07 12:09:42,967285
1,2,4,5,2,1,2,1,2021-08-07 12:09:42,967285
0,-1,3,6,7,2,1,-1,2021-08-07 12:09:42,967285
-7,-9,-9,-7,-15,-10,-7,-4,2021-08-07 12:09:42,967285
-6,-3,-4,-6,-6,-3,-2,-3,2021-08-07 12:09:42,967285
-3,-1,-3,-4,-2,-3,-2,-1,2021-08-07 12:09:42,983285
0,0,-5,-7,-8,-4,-4,0,2021-08-07 12:09:42,983285
-1,1,0,-2,2,0,0,-1,2021-08-07 12:09:42,983285
0,2,-2,-2,0,0,0,-1,2021-08-07 12:09:42,983285
-5,-8,-9,-13,-10,-3,-2,-2,2021-08-07 12:09:42,983285
-5,-4,-3,-6,-9,-7,-2,-3,2021-08-07 12:09:42,983285
11,15,12,16,26,12,9,6,2021-08-07 12:09:43,014286
-5,-2,-2,0,-2,-1,1,-2,2021-08-07 12:09:43,014286
-1,0,0,1,-1,-1,4,0,2021-08-07 12:09:43,014286
2,-2,-4,0,8,4,-3,0,2021-08-07 12:09:43,014286
-1,0,2,9,6,-2,-6,-4,2021-08-07 12:09:43,030285
-5,-2,-3,-10,-12,-8,-6,-2,2021-08-07 12:09:43,030285
-3,-4,-4,-7,-6,-3,-2,-2,2021-08-07 12:09:43,030285
-2,-2,-5,-9,-16,-4,0,1,2021-08-07 12:09:43,030285
-2,-4,-2,-5,1,-1,-1,-1,2021-08-07 12:09:43,046286
3,2,0,8,5,3,3,1,2021-08-07 12:09:43,062285
0,-1,-1,1,5,2,-1,-1,2021-08-07 12:09:43,062285
-3,-2,-1,-6,-7,-3,-3,-2,2021-08-07 12:09:43,062285
3,4,4,16,19,10,5,4,2021-08-07 12:09:43,062285
-2,-4,-2,5,-2,0,-3,0,2021-08-07 12:09:43,062285
-3,-3,-7,-10,-9,-6,-5,-2,2021-08-07 12:09:43,062285
5,8,11,19,28,11,6,4,2021-08-07 12:09:43,063288
-6,-11,-12,-15,-20,-10,-6,-4,2021-08-07 12:09:43,093287
1,3,3,-4,0,0,0,1,2021-08-07 12:09:43,093287
5,4,3,0,-3,-1,-1,2,2021-08-07 12:09:43,109285
0,-2,-2,-1,-3,-1,-2,-2,2021-08-07 12:09:43,125287
-6,-7,-5,-7,-9,-3,-2,-3,2021-08-07 12:09:43,141286
-3,-4,-4,0,-3,-4,-4,-2,2021-08-07 12:09:43,157284
-1,1,-6,-13,-17,-8,-4,-1,2021-08-07 12:09:43,205285
-1,0,5,14,26,12,5,-1,2021-08-07 12:09:43,205285
0,1,0,3,-4,-1,1,1,2021-08-07 12:09:43,205285
-4,-5,-4,-7,-13,-6,-3,-5,2021-08-07 12:09:43,205285
-3,-2,-3,-10,5,1,0,0,2021-08-07 12:09:43,205285
8,11,8,11,-6,-2,3,5,2021-08-07 12:09:43,205285
-3,-4,-1,5,14,6,-2,-4,2021-08-07 12:09:43,205285
-1,-1,3,6,0,-1,-1,-1,2021-08-07 12:09:43,206288
-2,-2,-6,-8,-15,-6,-3,-1,2021-08-07 12:09:43,206288
-3,-5,-3,3,14,4,1,-3,2021-08-07 12:09:43,206288
0,0,0,-8,-13,-7,-2,-1,2021-08-07 12:09:43,206288
-2,-5,-7,-18,-20,-11,-5,-3,2021-08-07 12:09:43,206288
3,6,11,25,23,11,4,3,2021-08-07 12:09:43,207290
-6,-5,-7,-8,-10,-5,-4,-2,2021-08-07 12:09:43,207290
0,0,-3,-6,-5,-3,-2,-2,2021-08-07 12:09:43,207290
-3,-3,-3,-2,-3,-3,-3,-3,2021-08-07 12:09:43,207290
0,0,0,-3,-7,-3,-1,-1,2021-08-07 12:09:43,207290
1,1,-1,-2,1,-1,0,-1,2021-08-07 12:09:43,207290
-2,-1,2,5,1,4,0,-1,2021-08-07 12:09:43,208286
4,4,5,15,25,12,5,3,2021-08-07 12:09:43,208286
0,1,1,2,0,1,0,1,2021-08-07 12:09:43,208286
-6,-5,-4,-6,-11,-8,-5,-3,2021-08-07 12:09:43,208286
-4,-4,-7,-13,-15,-8,-4,-2,2021-08-07 12:09:43,237286
2,2,0,5,7,1,0,1,2021-08-07 12:09:43,237286
2,3,3,8,11,5,1,-1,2021-08-07 12:09:43,237286
4,3,1,-7,-7,-1,1,1,2021-08-07 12:09:43,237286
-3,-3,-4,-9,-16,-8,-6,-4,2021-08-07 12:09:43,237286
1,1,4,11,8,5,1,1,2021-08-07 12:09:43,237286
-4,-3,-4,-3,5,1,-1,-1,2021-08-07 12:09:43,252286
3,3,0,-2,-4,-1,0,2,2021-08-07 12:09:43,252286
0,-4,-2,-2,0,-2,-1,-2,2021-08-07 12:09:43,269288
-2,-1,4,10,18,6,2,-2,2021-08-07 12:09:43,285284
0,0,1,4,-4,-2,0,0,2021-08-07 12:09:43,301288
-4,-5,-2,2,3,1,-2,-3,2021-08-07 12:09:43,301288
3,4,-1,-12,-29,-14,-2,1,2021-08-07 12:09:43,301288
2,3,3,9,20,10,4,1,2021-08-07 12:09:43,301288
1,1,3,5,10,2,0,1,2021-08-07 12:09:43,301288
-5,-5,-4,-8,-11,-5,-3,-2,2021-08-07 12:09:43,301288
0,0,2,11,11,2,0,-1,2021-08-07 12:09:43,302286
1,1,-5,-16,-24,-9,-1,0,2021-08-07 12:09:43,302286
-1,-4,-4,-7,-1,0,0,-3,2021-08-07 12:09:43,302286
1,1,3,13,13,5,1,0,2021-08-07 12:09:43,302286
-1,-2,-3,-4,-1,0,-1,-1,2021-08-07 12:09:43,332287
-5,-3,-3,-12,-18,-10,-3,-4,2021-08-07 12:09:43,332287
0,0,2,10,12,6,2,-1,2021-08-07 12:09:43,332287
-3,-1,-3,-12,-13,-6,-3,-3,2021-08-07 12:09:43,332287
-3,-1,0,1,-6,-3,-1,-3,2021-08-07 12:09:43,348286
3,3,-3,-6,2,6,4,4,2021-08-07 12:09:43,348286
-2,0,4,18,20,9,2,0,2021-08-07 12:09:43,348286
0,0,2,4,4,2,0,0,2021-08-07 12:09:43,348286
-2,-2,-3,-2,-3,0,0,-1,2021-08-07 12:09:43,363285
-3,-5,-7,-11,-6,-8,-5,-4,2021-08-07 12:09:43,379285
-3,-2,-4,-14,-20,-11,-5,-3,2021-08-07 12:09:43,379285
-2,-4,-3,-1,0,-2,-4,-1,2021-08-07 12:09:43,379285
2,3,-1,-1,2,2,2,3,2021-08-07 12:09:43,379285
0,0,4,17,16,8,2,1,2021-08-07 12:09:43,379285
0,-1,-5,-8,-2,-1,0,0,2021-08-07 12:09:43,379285
2,3,-2,-10,-8,-2,0,-2,2021-08-07 12:09:43,379285
-4,-3,0,-2,-5,-3,-5,-4,2021-08-07 12:09:43,410285
-1,-4,-5,-5,1,1,-2,-2,2021-08-07 12:09:43,410285
1,2,4,16,11,5,2,1,2021-08-07 12:09:43,410285
-3,-4,-6,-15,-15,-7,-5,-1,2021-08-07 12:09:43,410285
-2,-2,-1,-1,-2,-3,-3,-3,2021-08-07 12:09:43,425285
0,0,-2,-5,-4,-1,-1,0,2021-08-07 12:09:43,441288
-2,-3,-1,-2,-7,-4,-2,0,2021-08-07 12:09:43,441288
-3,-4,-3,-2,-4,-1,-2,-1,2021-08-07 12:09:43,441288
-1,-4,-3,-5,-4,-4,-2,-1,2021-08-07 12:09:43,441288
-2,-2,1,4,3,-1,-4,0,2021-08-07 12:09:43,441288
0,-2,-3,-1,4,1,1,1,2021-08-07 12:09:43,441288
0,1,1,4,0,0,0,1,2021-08-07 12:09:43,442286
0,1,1,5,20,9,4,0,2021-08-07 12:09:43,473284
-3,-5,-4,-7,-24,-12,-4,-3,2021-08-07 12:09:43,489284
-3,-4,-8,-16,-6,-3,-3,-2,2021-08-07 12:09:43,521286
1,4,13,35,27,10,5,2,2021-08-07 12:09:43,537286
7,9,6,7,4,4,3,3,2021-08-07 12:09:43,553285
-2,-1,-5,-14,-21,-11,-5,-3,2021-08-07 12:09:43,569286
-3,-1,-7,-15,-16,-9,-4,-4,2021-08-07 12:09:43,585284
-2,-11,-8,-15,-8,-3,-3,-3,2021-08-07 12:09:43,585284
2,3,6,29,32,13,6,3,2021-08-07 12:09:43,601284
2,4,2,-2,-8,1,0,0,2021-08-07 12:09:43,601284
1,-2,-3,-5,-7,-7,-5,-4,2021-08-07 12:09:43,617286
-1,-2,-2,-4,-8,-4,-3,-3,2021-08-07 12:09:43,617286
-3,-8,-8,-10,-6,-2,-2,-1,2021-08-07 12:09:43,617286
2,2,5,12,20,9,3,1,2021-08-07 12:09:43,633286
-1,-1,-6,-11,-19,-6,-3,-3,2021-08-07 12:09:43,633286
-2,-1,-6,-12,-12,-7,-4,-2,2021-08-07 12:09:43,633286
2,3,6,11,10,6,2,0,2021-08-07 12:09:43,633286
-3,-4,1,8,11,3,-3,-1,2021-08-07 12:09:43,633286
4,4,3,0,2,2,2,3,2021-08-07 12:09:43,633286
2,4,4,16,6,2,1,1,2021-08-07 12:09:43,633286
-3,-4,-5,-5,-13,-8,-4,-3,2021-08-07 12:09:43,633286
-1,-3,-2,3,4,-1,-1,-1,2021-08-07 12:09:43,634286
-4,-4,-2,-7,-2,-1,-2,-1,2021-08-07 12:09:43,634286
1,1,2,7,2,1,1,2,2021-08-07 12:09:43,634286
-2,-3,-1,-8,-13,-5,-3,-2,2021-08-07 12:09:43,634286
-1,-2,-1,4,10,3,2,-1,2021-08-07 12:09:43,634286
0,1,-7,-18,-18,-5,-3,0,2021-08-07 12:09:43,634286
2,6,11,32,44,15,6,2,2021-08-07 12:09:43,634286
-4,-3,-8,-13,-6,-3,-2,-3,2021-08-07 12:09:43,635286
-2,-4,2,1,-11,-7,-3,-3,2021-08-07 12:09:43,635286
-1,-1,1,3,-1,-3,0,-2,2021-08-07 12:09:43,635286
-3,-2,-8,-25,-23,-10,-5,-3,2021-08-07 12:09:43,635286
3,1,3,4,13,7,3,3,2021-08-07 12:09:43,635286
0,-5,-14,-10,6,1,1,0,2021-08-07 12:09:43,635286
0,4,8,22,11,6,5,2,2021-08-07 12:09:43,636287
-3,-3,-7,-8,-4,-2,-1,-2,2021-08-07 12:09:43,636287
-6,-5,-2,-8,-11,-6,-4,-4,2021-08-07 12:09:43,649286
-2,0,-7,-23,-28,-15,-6,-3,2021-08-07 12:09:43,665287
5,4,13,29,28,17,8,5,2021-08-07 12:09:43,665287
1,0,2,2,5,3,0,0,2021-08-07 12:09:43,665287
-4,-5,-10,-21,-17,-9,-6,-5,2021-08-07 12:09:43,665287
0,0,5,7,1,1,2,-1,2021-08-07 12:09:43,665287
-3,-5,-7,-10,-20,-11,-6,-4,2021-08-07 12:09:43,665287
0,-1,-2,0,12,7,2,-1,2021-08-07 12:09:43,666286
1,0,-2,6,5,1,-2,1,2021-08-07 12:09:43,697286
1,0,3,7,4,3,1,1,2021-08-07 12:09:43,697286
-5,-4,-1,-2,-1,-2,-3,-3,2021-08-07 12:09:43,697286
1,2,-1,-10,-17,-7,1,2,2021-08-07 12:09:43,697286
2,4,3,-7,-5,-2,0,0,2021-08-07 12:09:43,712285
3,2,8,18,26,9,2,1,2021-08-07 12:09:43,712285
-3,-4,-4,-8,-12,-5,-3,-3,2021-08-07 12:09:43,712285
-3,-2,-3,1,-4,-4,-2,-2,2021-08-07 12:09:43,712285
0,-2,-2,4,15,8,3,1,2021-08-07 12:09:43,715286
-4,-6,-10,-16,-17,-7,-3,-3,2021-08-07 12:09:43,715286
-5,-4,-2,-1,6,-2,-2,-5,2021-08-07 12:09:43,727285
-2,0,3,-2,-8,-4,-3,-4,2021-08-07 12:09:43,727285
-1,1,2,2,2,1,0,0,2021-08-07 12:09:43,757287
-1,1,0,0,-4,2,-1,-2,2021-08-07 12:09:43,773285
1,-1,-2,0,3,0,-3,0,2021-08-07 12:09:43,773285
-2,-6,-12,-16,-17,-8,-4,0,2021-08-07 12:09:43,773285
2,3,6,8,5,1,0,1,2021-08-07 12:09:43,773285
2,2,1,2,3,1,1,3,2021-08-07 12:09:43,773285
1,0,-6,-14,-9,-4,0,1,2021-08-07 12:09:43,789284
1,2,6,7,7,2,1,1,2021-08-07 12:09:43,789284
-5,-6,-10,-9,-11,-6,-4,-4,2021-08-07 12:09:43,805286
1,2,3,0,9,6,1,0,2021-08-07 12:09:43,805286
0,1,5,17,15,7,1,1,2021-08-07 12:09:43,805286
-1,0,-1,2,0,0,1,0,2021-08-07 12:09:43,805286
-1,-1,-1,0,0,-2,-1,-2,2021-08-07 12:09:43,805286
-1,0,-5,-19,-23,-11,-4,-2,2021-08-07 12:09:43,805286
-1,0,0,2,2,0,0,0,2021-08-07 12:09:43,805286
-1,1,1,4,14,6,2,0,2021-08-07 12:09:43,806285
-3,-4,-5,-2,-6,-3,-2,-1,2021-08-07 12:09:43,837285
-3,-1,-3,-4,-9,-5,-2,-3,2021-08-07 12:09:43,837285
4,2,3,4,8,3,2,2,2021-08-07 12:09:43,837285
0,0,-1,-6,-8,-3,0,-1,2021-08-07 12:09:43,837285
0,2,4,10,4,-1,-1,0,2021-08-07 12:09:43,837285
-3,-2,-3,-2,-2,-1,-2,-2,2021-08-07 12:09:43,837285
-3,-3,-4,-1,-3,-2,-1,-2,2021-08-07 12:09:43,853285
-2,-5,-2,-4,-6,-4,-4,-3,2021-08-07 12:09:43,853285
-1,-1,-1,-1,6,2,0,0,2021-08-07 12:09:43,869286
-1,-2,2,8,3,2,1,-1,2021-08-07 12:09:43,869286
-2,-4,-9,-20,-21,-10,-5,-1,2021-08-07 12:09:43,869286
2,1,1,0,4,2,2,3,2021-08-07 12:09:43,885284
1,3,6,22,20,9,3,1,2021-08-07 12:09:43,917284
-2,-1,0,6,7,1,-1,0,2021-08-07 12:09:43,933285
-1,0,1,0,5,2,0,0,2021-08-07 12:09:43,933285
0,0,3,15,6,4,1,-2,2021-08-07 12:09:43,933285
-1,-2,-4,-10,-8,-5,-4,0,2021-08-07 12:09:43,933285
-1,-2,-1,-3,-8,-3,-4,-1,2021-08-07 12:09:43,933285
-1,0,-4,-7,-8,-5,0,-2,2021-08-07 12:09:43,933285
-3,-2,-2,-3,1,-2,-2,-1,2021-08-07 12:09:43,933285
0,-1,-1,-2,-3,1,1,0,2021-08-07 12:09:43,933285
0,-1,0,-3,-5,-2,-1,0,2021-08-07 12:09:43,934287
-1,-3,-2,-3,-3,-3,-3,0,2021-08-07 12:09:43,934287
-2,-2,-2,-4,-7,-3,-3,-1,2021-08-07 12:09:43,934287
-3,-5,-7,-7,-8,-5,-4,-3,2021-08-07 12:09:43,949286
1,2,-1,-8,-4,-3,0,3,2021-08-07 12:09:43,949286
2,2,7,13,12,10,3,2,2021-08-07 12:09:43,949286
-2,-1,2,3,4,3,0,-3,2021-08-07 12:09:43,949286
-3,-4,-6,-22,-27,-14,-7,-2,2021-08-07 12:09:43,965287
-4,-9,-13,-25,-15,-9,-5,-4,2021-08-07 12:09:43,965287
8,11,24,61,51,22,9,4,2021-08-07 12:09:43,965287
-2,-3,-5,-9,-9,-2,-3,-3,2021-08-07 12:09:43,965287
-2,0,3,8,5,2,1,0,2021-08-07 12:09:43,997286
-2,-1,-2,-8,-12,-7,-2,-1,2021-08-07 12:09:44,013285
-4,-6,-11,-21,-20,-10,-4,-4,2021-08-07 12:09:44,029287
0,1,5,18,28,12,1,-2,2021-08-07 12:09:44,029287
2,-1,-3,-1,-1,-4,-1,0,2021-08-07 12:09:44,029287
0,1,1,1,-5,-1,-1,0,2021-08-07 12:09:44,029287
-5,-5,-8,-18,-20,-10,-5,-3,2021-08-07 12:09:44,029287
2,3,0,0,1,0,0,1,2021-08-07 12:09:44,029287
-1,-1,1,6,7,6,1,-2,2021-08-07 12:09:44,029287
0,2,3,11,15,5,1,-1,2021-08-07 12:09:44,030287
-4,-3,-5,-14,-18,-8,-4,-2,2021-08-07 12:09:44,030287
3,2,-2,-10,-3,1,0,2,2021-08-07 12:09:44,030287
4,6,10,17,7,4,4,3,2021-08-07 12:09:44,045285
1,2,1,6,9,5,2,0,2021-08-07 12:09:44,060285
-1,-3,-2,-1,-5,-6,-4,-2,2021-08-07 12:09:44,060285
-7,-9,-12,-13,-10,-9,-4,-4,2021-08-07 12:09:44,060285
-2,-1,0,-6,-9,-5,-1,-1,2021-08-07 12:09:44,060285
7,6,6,8,14,9,4,5,2021-08-07 12:09:44,060285
-2,-3,-5,-13,-15,-6,-1,-3,2021-08-07 12:09:44,076286
0,3,8,14,19,7,4,0,2021-08-07 12:09:44,092286
-2,-3,-3,-2,-4,-2,-3,-2,2021-08-07 12:09:44,108289
-2,-3,-2,-3,-7,-5,-4,-3,2021-08-07 12:09:44,124289
1,1,0,5,10,4,-1,1,2021-08-07 12:09:44,140285
-2,-5,-9,-17,-15,-10,-3,-1,2021-08-07 12:09:44,140285
-1,0,2,4,1,0,-2,-1,2021-08-07 12:09:44,140285
3,5,9,21,22,11,5,3,2021-08-07 12:09:44,140285
-3,-4,-5,-12,-4,-3,-3,-2,2021-08-07 12:09:44,141288
0,1,2,6,-2,-3,-1,-1,2021-08-07 12:09:44,141288
-3,-5,-9,-15,-9,-5,-4,-1,2021-08-07 12:09:44,141288
-2,-1,0,-3,-7,-2,-2,-1,2021-08-07 12:09:44,141288
0,-1,-2,-1,-6,-3,-1,-2,2021-08-07 12:09:44,141288
-1,-3,-3,-1,-4,0,1,0,2021-08-07 12:09:44,142286
-3,-4,-9,-10,-5,-3,-3,-3,2021-08-07 12:09:44,156285
-4,-1,-1,-5,-8,-4,-2,-3,2021-08-07 12:09:44,172285
6,2,3,12,19,10,6,4,2021-08-07 12:09:44,180287
-2,-2,-5,-13,-22,-12,-4,-3,2021-08-07 12:09:44,180287
0,-1,2,6,4,1,1,0,2021-08-07 12:09:44,180287
-1,0,3,14,17,6,2,1,2021-08-07 12:09:44,180287
-3,-3,-4,-15,-17,-7,-3,-3,2021-08-07 12:09:44,181285
0,0,3,11,16,7,4,0,2021-08-07 12:09:44,181285
1,0,1,5,7,5,2,3,2021-08-07 12:09:44,181285
-2,1,-3,-11,-17,-8,-4,-2,2021-08-07 12:09:44,181285
2,3,1,-4,1,0,2,2,2021-08-07 12:09:44,181285
-3,-3,-1,-1,-8,-4,-4,-3,2021-08-07 12:09:44,188286
-2,-3,-4,-8,-3,-4,-2,-2,2021-08-07 12:09:44,220286
0,-2,2,6,14,7,3,-1,2021-08-07 12:09:44,236287
5,4,6,16,12,5,2,3,2021-08-07 12:09:44,252285
-2,-3,-7,-17,-21,-10,-6,-3,2021-08-07 12:09:44,267285
-4,-4,-5,2,3,-1,-3,-3,2021-08-07 12:09:44,267285
-5,-9,-12,-22,-25,-14,-8,-3,2021-08-07 12:09:44,267285
2,4,6,13,14,10,1,1,2021-08-07 12:09:44,267285
2,1,-2,-5,1,0,-1,-1,2021-08-07 12:09:44,267285
0,1,2,0,-10,-2,-1,1,2021-08-07 12:09:44,267285
-4,-4,-3,-3,1,-3,-4,-2,2021-08-07 12:09:44,268286
-2,0,-2,-5,-8,-4,-4,-3,2021-08-07 12:09:44,268286
0,-1,1,-2,-4,-1,-1,-1,2021-08-07 12:09:44,268286
1,2,5,5,6,2,1,1,2021-08-07 12:09:44,268286
-1,-3,-6,-14,-18,-7,-2,0,2021-08-07 12:09:44,268286
-4,-5,-5,2,10,0,-5,-3,2021-08-07 12:09:44,268286
4,6,9,23,37,19,9,4,2021-08-07 12:09:44,269287
1,0,1,5,1,2,0,-1,2021-08-07 12:09:44,283286
2,2,1,3,4,4,1,0,2021-08-07 12:09:44,299286
-4,-4,-8,-19,-22,-10,-4,-2,2021-08-07 12:09:44,299286
-1,-2,-1,5,-5,-3,-4,-1,2021-08-07 12:09:44,299286
1,3,2,-1,-4,-2,0,0,2021-08-07 12:09:44,315286
-1,-1,1,3,12,4,1,-2,2021-08-07 12:09:44,331287
-4,-5,-10,-18,-27,-11,-5,-2,2021-08-07 12:09:44,347285
-2,-3,-5,-5,0,-2,-3,-1,2021-08-07 12:09:44,347285
-1,0,-1,-5,0,-2,-1,-2,2021-08-07 12:09:44,347285
3,2,9,21,9,5,3,0,2021-08-07 12:09:44,347285
2,5,6,11,20,9,6,4,2021-08-07 12:09:44,347285
-5,-3,-5,-7,-11,-7,-3,-3,2021-08-07 12:09:44,348287
-3,-6,-8,-16,-11,-8,-6,-4,2021-08-07 12:09:44,348287
-2,-1,-3,-5,-7,-5,-3,-1,2021-08-07 12:09:44,348287
-1,-2,0,4,4,1,-1,-3,2021-08-07 12:09:44,348287
-1,0,-1,-10,-12,-5,-2,-1,2021-08-07 12:09:44,348287
-7,-8,-10,-20,-15,-9,-5,-6,2021-08-07 12:09:44,377286
6,9,16,27,23,15,8,6,2021-08-07 12:09:44,393285
1,0,3,2,8,3,1,-1,2021-08-07 12:09:44,393285
2,1,-1,-4,-10,-2,2,2,2021-08-07 12:09:44,393285
-3,-4,1,12,11,3,1,-2,2021-08-07 12:09:44,393285
0,-1,0,6,7,2,1,0,2021-08-07 12:09:44,393285
-2,-1,-1,-2,-7,-3,-2,-2,2021-08-07 12:09:44,394289
-5,-3,-4,-5,-7,-6,-5,-4,2021-08-07 12:09:44,409286
-2,-3,-6,-16,-14,-6,-2,-1,2021-08-07 12:09:44,409286
-4,-4,-7,-8,-1,-1,-1,-2,2021-08-07 12:09:44,425284
-1,-2,2,9,2,0,0,1,2021-08-07 12:09:44,441285
-2,-3,-4,-8,-11,-6,-3,-3,2021-08-07 12:09:44,441285
3,5,5,15,18,10,4,2,2021-08-07 12:09:44,441285
-3,-5,-10,-19,-15,-8,-5,-5,2021-08-07 12:09:44,441285
-2,-1,-2,0,-6,-4,-1,0,2021-08-07 12:09:44,441285
1,0,2,2,11,4,0,1,2021-08-07 12:09:44,441285
-1,-1,3,5,2,-1,0,-3,2021-08-07 12:09:44,457288
0,0,-2,-2,-1,-1,0,1,2021-08-07 12:09:44,473285
0,0,-1,-1,1,-1,-1,0,2021-08-07 12:09:44,473285
-2,-2,-4,-7,-10,-4,-2,-1,2021-08-07 12:09:44,473285
-7,-8,-17,-25,-26,-15,-7,-4,2021-08-07 12:09:44,473285
2,1,0,-4,-1,2,0,1,2021-08-07 12:09:44,473285
3,5,9,22,27,11,4,3,2021-08-07 12:09:44,489286
1,2,4,12,7,3,0,0,2021-08-07 12:09:44,489286
2,2,1,-3,1,3,1,0,2021-08-07 12:09:44,505285
-7,-7,-8,-12,-23,-12,-8,-3,2021-08-07 12:09:44,505285
-1,-4,-7,-11,-7,-3,-2,-2,2021-08-07 12:09:44,505285
-2,3,2,5,7,3,0,1,2021-08-07 12:09:44,505285
1,2,4,3,3,3,1,2,2021-08-07 12:09:44,505285
-1,-4,-2,4,2,1,-1,0,2021-08-07 12:09:44,506286
3,2,7,6,10,5,2,2,2021-08-07 12:09:44,506286
-2,-2,0,7,0,-4,-2,-2,2021-08-07 12:09:44,506286
-2,-1,-2,-5,-9,-5,-3,-3,2021-08-07 12:09:44,536286
-1,0,1,1,7,3,0,-1,2021-08-07 12:09:44,536286
-1,-2,-4,-9,-16,-6,-3,0,2021-08-07 12:09:44,536286
-1,-6,-7,-10,3,-1,0,-1,2021-08-07 12:09:44,536286
4,7,12,32,21,13,6,5,2021-08-07 12:09:44,568285
-1,-3,-2,-2,-4,-3,-1,-1,2021-08-07 12:09:44,584319
-5,-5,-9,-21,-16,-6,-4,-6,2021-08-07 12:09:44,616318
-6,-3,-5,-5,-12,-8,-5,-5,2021-08-07 12:09:44,632319
2,4,3,7,16,9,4,3,2021-08-07 12:09:44,634317
-1,3,5,12,8,2,0,0,2021-08-07 12:09:44,634317
0,1,-1,-5,-8,-5,-1,-2,2021-08-07 12:09:44,634317
0,-3,-4,-8,-3,-3,-2,-2,2021-08-07 12:09:44,635318
-6,-9,-8,-3,-5,-7,-5,-5,2021-08-07 12:09:44,635318
4,4,-2,-13,-15,-4,2,3,2021-08-07 12:09:44,635318
6,7,7,9,9,5,2,4,2021-08-07 12:09:44,635318
-3,-4,-7,-12,-7,-1,-3,-2,2021-08-07 12:09:44,635318
-1,-3,-2,-8,-6,-5,-2,-2,2021-08-07 12:09:44,635318
-2,-4,-2,5,3,-1,-3,-3,2021-08-07 12:09:44,636319
0,2,3,13,14,8,4,1,2021-08-07 12:09:44,636319
-1,0,4,9,-2,-1,0,-1,2021-08-07 12:09:44,636319
3,1,0,4,8,5,2,2,2021-08-07 12:09:44,636319
-1,-2,0,-8,-13,-6,-4,-4,2021-08-07 12:09:44,636319
-2,-5,-7,-11,-11,-4,-3,-2,2021-08-07 12:09:44,636319
-2,-1,1,2,-5,-3,-2,-3,2021-08-07 12:09:44,636319
0,-2,-1,-2,4,4,1,-1,2021-08-07 12:09:44,636319
4,5,6,22,28,10,5,3,2021-08-07 12:09:44,637318
-3,-3,-4,-7,-10,-7,-4,-4,2021-08-07 12:09:44,679320
0,-1,0,-4,-1,-2,-1,-2,2021-08-07 12:09:44,695318
-7,-5,-4,-5,-16,-8,-6,-3,2021-08-07 12:09:44,711321
2,3,0,-1,4,2,2,1,2021-08-07 12:09:44,711321
-2,-2,-2,-2,0,-3,-2,-1,2021-08-07 12:09:44,743318
-1,-1,-4,-6,-9,-2,-1,0,2021-08-07 12:09:44,743318
-2,-3,-4,-8,-6,-5,-4,-4,2021-08-07 12:09:44,743318
-5,-7,-6,-7,-4,-3,-3,-2,2021-08-07 12:09:44,743318
5,5,10,21,20,10,7,5,2021-08-07 12:09:44,759318
11,14,11,9,10,7,6,6,2021-08-07 12:09:44,759318
-1,-1,0,0,5,0,0,-1,2021-08-07 12:09:44,759318
-6,-6,-7,-12,-14,-9,-6,-5,2021-08-07 12:09:44,759318
-7,-11,-14,-24,-28,-16,-11,-5,2021-08-07 12:09:44,759318
3,3,13,34,38,20,9,4,2021-08-07 12:09:44,759318
2,4,4,8,5,4,2,1,2021-08-07 12:09:44,760319
-2,-3,-6,-16,-11,-5,-3,-3,2021-08-07 12:09:44,760319
1,0,3,4,-3,0,0,1,2021-08-07 12:09:44,760319
-5,-7,-8,-13,-9,-7,-6,-4,2021-08-07 12:09:44,760319
1,3,2,-1,-1,-3,-2,0,2021-08-07 12:09:44,760319
-2,-2,-5,-8,-17,-9,-3,-1,2021-08-07 12:09:44,760319
0,1,3,8,14,7,2,0,2021-08-07 12:09:44,761320
-4,-5,-4,-1,0,-2,-1,-1,2021-08-07 12:09:44,761320
1,0,-1,4,1,1,1,0,2021-08-07 12:09:44,761320
-3,-5,-6,-12,-8,-10,-6,-4,2021-08-07 12:09:44,761320
0,-2,-3,-9,-14,-9,-4,-2,2021-08-07 12:09:44,791320
-2,-2,3,6,5,2,1,-1,2021-08-07 12:09:44,791320
-2,0,0,-4,-1,0,-1,-1,2021-08-07 12:09:44,791320
5,6,9,17,18,12,8,3,2021-08-07 12:09:44,791320
-3,-3,-7,-7,-8,-4,-3,-2,2021-08-07 12:09:44,807321
1,-1,3,10,8,1,2,0,2021-08-07 12:09:44,807321
-1,0,-4,-9,-8,-2,0,-1,2021-08-07 12:09:44,807321
1,2,2,-5,-8,-2,-1,1,2021-08-07 12:09:44,807321
-2,-1,1,3,0,-1,-2,-1,2021-08-07 12:09:44,807321
0,-2,-6,-11,-3,-3,-2,0,2021-08-07 12:09:44,807321
-3,-4,-1,9,6,3,-1,-2,2021-08-07 12:09:44,823318
-2,-2,-3,-1,2,1,-1,0,2021-08-07 12:09:44,839319
-1,2,3,-1,-4,-3,-2,-1,2021-08-07 12:09:44,839319
0,1,2,0,1,1,0,0,2021-08-07 12:09:44,839319
0,-4,-3,0,6,1,-1,0,2021-08-07 12:09:44,855317
-2,-2,1,-1,-4,-2,0,-2,2021-08-07 12:09:44,871319
-4,-6,-9,-15,-13,-7,-4,-2,2021-08-07 12:09:44,887319
1,1,-1,-3,-3,-1,-1,1,2021-08-07 12:09:44,887319
1,3,4,13,22,9,3,1,2021-08-07 12:09:44,887319
8,13,20,22,16,10,5,2,2021-08-07 12:09:44,887319
-1,3,1,-8,-7,-4,0,0,2021-08-07 12:09:44,887319
-3,-12,-14,-9,-16,-6,-5,-1,2021-08-07 12:09:44,887319
-5,-13,-28,-24,-27,-16,-8,-5,2021-08-07 12:09:44,888319
-5,-9,-5,1,5,1,-5,-5,2021-08-07 12:09:44,888319
-2,-2,2,9,21,6,1,-2,2021-08-07 12:09:44,888319
6,12,17,3,-3,0,3,3,2021-08-07 12:09:44,888319
0,4,9,5,2,1,2,0,2021-08-07 12:09:44,919319
1,0,-6,-9,-12,-4,-2,2,2021-08-07 12:09:44,919584
-3,-1,3,10,9,1,-3,-4,2021-08-07 12:09:44,919584
-3,-4,-8,-13,-12,-5,-5,-2,2021-08-07 12:09:44,919584
2,3,4,7,13,7,2,0,2021-08-07 12:09:44,934836
1,0,-1,3,9,2,1,0,2021-08-07 12:09:44,950835
-3,-5,-1,2,5,3,-1,-1,2021-08-07 12:09:44,950835
-5,-7,-14,-19,-16,-13,-5,-5,2021-08-07 12:09:44,950835
2,5,4,-5,-19,-10,-3,0,2021-08-07 12:09:44,950835
4,2,7,25,37,16,9,5,2021-08-07 12:09:44,950835
-1,-3,-5,-1,-3,-1,-2,-2,2021-08-07 12:09:44,950835
-3,-4,-3,-10,-15,-7,-6,-4,2021-08-07 12:09:44,951839
0,-1,4,10,13,7,3,3,2021-08-07 12:09:44,966837
-1,-3,-3,-10,-15,-7,-4,-3,2021-08-07 12:09:44,966837
4,3,6,18,11,5,5,1,2021-08-07 12:09:44,966837
-6,-6,-10,-13,-13,-10,-6,-6,2021-08-07 12:09:44,966837
-5,-5,-8,-16,-16,-8,-6,-3,2021-08-07 12:09:44,997836
0,0,-2,3,-1,0,-2,0,2021-08-07 12:09:44,997836
-1,0,-2,-7,-2,-2,1,0,2021-08-07 12:09:44,997836
-1,0,6,7,4,3,-1,-2,2021-08-07 12:09:44,997836
-3,-2,-1,-1,-1,-4,-1,-3,2021-08-07 12:09:45,029837
-6,-6,-14,-23,-27,-15,-8,-5,2021-08-07 12:09:45,045836
6,5,1,3,12,9,6,5,2021-08-07 12:09:45,045836
0,0,2,11,7,4,2,0,2021-08-07 12:09:45,045836
2,1,0,4,5,2,0,0,2021-08-07 12:09:45,045836
0,1,2,2,-2,1,2,-1,2021-08-07 12:09:45,045836
-4,-6,-8,-16,-22,-13,-7,-4,2021-08-07 12:09:45,045836
-2,-2,-1,1,11,5,1,1,2021-08-07 12:09:45,046837
5,5,14,33,47,19,8,6,2021-08-07 12:09:45,046837
-1,-4,-5,-5,0,3,0,-1,2021-08-07 12:09:45,046837
-3,-4,0,-4,-14,-9,-5,-3,2021-08-07 12:09:45,046837
-1,-2,-1,-2,4,4,2,-1,2021-08-07 12:09:45,046837
-4,-5,-3,-4,-15,-8,-3,-4,2021-08-07 12:09:45,076837
1,1,1,0,2,1,0,1,2021-08-07 12:09:45,076837
-1,1,-1,-3,-5,-1,-2,0,2021-08-07 12:09:45,076837
2,1,4,3,7,4,2,0,2021-08-07 12:09:45,076837
0,-1,1,4,14,4,0,1,2021-08-07 12:09:45,085838
-4,-2,-2,-4,-4,-4,-2,-1,2021-08-07 12:09:45,085838
4,6,4,8,9,5,3,3,2021-08-07 12:09:45,085838
-2,-4,-8,-14,-17,-10,-5,-2,2021-08-07 12:09:45,085838
-2,-1,-3,-11,-11,-6,-5,-4,2021-08-07 12:09:45,108840
-2,-2,1,2,-1,1,0,-2,2021-08-07 12:09:45,108840
2,1,4,19,17,6,4,2,2021-08-07 12:09:45,108840
1,2,2,7,11,6,2,2,2021-08-07 12:09:45,108840
-1,0,-3,-6,-10,-3,-2,0,2021-08-07 12:09:45,139838
0,-3,-5,-11,-12,-6,-2,-2,2021-08-07 12:09:45,155837
-2,-3,0,-6,-8,-6,-3,-3,2021-08-07 12:09:45,155837
-1,0,3,11,9,1,0,-1,2021-08-07 12:09:45,155837
-1,-4,-9,-6,-4,0,-1,-1,2021-08-07 12:09:45,155837
-1,-1,-1,-3,-4,-4,-3,-1,2021-08-07 12:09:45,156839
-3,-3,2,4,6,3,-1,0,2021-08-07 12:09:45,171837
4,4,3,-5,-11,-5,1,1,2021-08-07 12:09:45,171837
-6,-7,-12,-25,-27,-15,-8,-5,2021-08-07 12:09:45,171837
2,1,-3,-1,1,-2,1,2,2021-08-07 12:09:45,171837
-1,0,-1,-6,-10,-2,-1,-3,2021-08-07 12:09:45,171837
-4,-4,0,8,13,3,-2,-3,2021-08-07 12:09:45,171837
3,7,9,8,1,6,3,2,2021-08-07 12:09:45,203839
-1,-4,-6,-7,-6,-4,-1,0,2021-08-07 12:09:45,203839
-11,-11,-21,-43,-32,-18,-11,-7,2021-08-07 12:09:45,203839
2,5,16,36,23,9,3,2,2021-08-07 12:09:45,203839
3,1,0,-15,-17,-6,-1,0,2021-08-07 12:09:45,203839
-2,-2,-1,6,4,0,-1,-2,2021-08-07 12:09:45,203839
4,4,4,12,17,9,4,2,2021-08-07 12:09:45,219838
-3,-3,-3,-5,-11,-7,-3,-3,2021-08-07 12:09:45,235839
-3,-3,-2,-4,-3,-4,-2,-1,2021-08-07 12:09:45,235839
-1,1,4,5,2,-1,-1,0,2021-08-07 12:09:45,235839
2,1,3,12,9,5,1,0,2021-08-07 12:09:45,235839
-1,-4,-7,-8,5,-1,1,-1,2021-08-07 12:09:45,235839
1,2,2,9,4,0,1,0,2021-08-07 12:09:45,251837
-3,-4,-8,-20,-18,-7,-3,-4,2021-08-07 12:09:45,267837
1,2,4,3,0,0,0,0,2021-08-07 12:09:45,283837
2,2,4,8,13,6,2,2,2021-08-07 12:09:45,283837
-6,-4,-5,-10,-15,-7,-4,-5,2021-08-07 12:09:45,283837
-1,-2,2,3,-1,0,1,0,2021-08-07 12:09:45,283837
10,10,20,35,37,16,10,8,2021-08-07 12:09:45,283837
-1,-4,-9,-12,-17,-6,-3,-2,2021-08-07 12:09:45,283837
-7,-10,-20,-33,-22,-15,-8,-6,2021-08-07 12:09:45,284837
0,1,2,7,6,4,1,1,2021-08-07 12:09:45,284837
-8,-10,-10,-11,-14,-8,-4,-4,2021-08-07 12:09:45,284837
-3,-1,-5,-13,-19,-6,-3,-1,2021-08-07 12:09:45,284837
5,8,12,13,10,5,3,1,2021-08-07 12:09:45,315837
4,7,11,30,38,19,8,4,2021-08-07 12:09:45,331836
1,-2,-4,-2,-1,-2,-2,-1,2021-08-07 12:09:45,347837
-2,-4,-8,-10,-12,-7,-6,-3,2021-08-07 12:09:45,347837
-6,-5,-4,-8,-7,-4,-3,-2,2021-08-07 12:09:45,347837
-1,-1,-2,-10,-12,-8,-5,-1,2021-08-07 12:09:45,347837
-6,-7,-13,-35,-26,-14,-7,-5,2021-08-07 12:09:45,347837
5,6,16,41,50,24,10,5,2021-08-07 12:09:45,348838
5,8,12,19,13,8,4,4,2021-08-07 12:09:45,348838
3,5,6,3,0,2,2,2,2021-08-07 12:09:45,348838
-4,-7,-7,-7,-11,-8,-4,-3,2021-08-07 12:09:45,348838
-12,-14,-30,-57,-50,-26,-12,-9,2021-08-07 12:09:45,348838
0,-2,2,15,19,7,2,0,2021-08-07 12:09:45,379837
7,11,9,10,12,9,6,6,2021-08-07 12:09:45,394837
-2,0,1,9,4,0,0,0,2021-08-07 12:09:45,409835
-4,-7,-6,-9,-11,-7,-6,-4,2021-08-07 12:09:45,425836
1,-2,-3,-3,-1,1,2,1,2021-08-07 12:09:45,425836
-6,-7,-8,-14,-23,-11,-5,-6,2021-08-07 12:09:45,425836
0,3,7,14,20,8,1,-1,2021-08-07 12:09:45,425836
4,7,6,-2,0,1,3,5,2021-08-07 12:09:45,425836
3,2,2,13,7,4,2,2,2021-08-07 12:09:45,425836
3,3,6,20,20,11,5,2,2021-08-07 12:09:45,426836
1,-2,-3,-5,0,2,2,0,2021-08-07 12:09:45,426836
-4,-5,-1,-1,-10,-6,-3,-3,2021-08-07 12:09:45,426836
-9,-8,-10,-28,-28,-13,-7,-5,2021-08-07 12:09:45,426836
-6,-3,-2,-11,-14,-7,-6,-6,2021-08-07 12:09:45,426836
0,1,2,24,35,16,4,1,2021-08-07 12:09:45,426836
0,0,0,2,3,-1,-1,-1,2021-08-07 12:09:45,427839
6,6,4,3,2,4,3,4,2021-08-07 12:09:45,457838
-5,-8,-3,-6,-7,-9,-6,-2,2021-08-07 12:09:45,457838
-2,0,-8,-28,-34,-17,-6,0,2021-08-07 12:09:45,457838
-4,-6,-9,-10,-11,-6,-5,-4,2021-08-07 12:09:45,457838
1,1,-2,1,3,2,3,0,2021-08-07 12:09:45,473839
1,2,4,11,8,3,2,1,2021-08-07 12:09:45,489835
2,3,9,12,6,5,2,-2,2021-08-07 12:09:45,489835
0,3,0,-8,-5,-3,-1,0,2021-08-07 12:09:45,489835
-5,-3,-3,7,9,2,-1,-2,2021-08-07 12:09:45,489835
-2,-2,-5,-3,2,2,-1,0,2021-08-07 12:09:45,489835
-3,-3,-4,-13,-10,-2,-3,-2,2021-08-07 12:09:45,489835
1,-1,6,11,7,4,0,0,2021-08-07 12:09:45,490839
-1,-1,-5,-10,-11,-6,-3,-2,2021-08-07 12:09:45,505836
-3,-7,-14,-19,-11,-9,-5,-4,2021-08-07 12:09:45,505836
2,3,3,2,-5,-5,1,2,2021-08-07 12:09:45,521837
-4,0,5,1,-11,-3,-2,-2,2021-08-07 12:09:45,521837
0,2,10,23,36,13,3,2,2021-08-07 12:09:45,537836
1,-3,-4,-3,-3,1,1,0,2021-08-07 12:09:45,552838
-3,-7,-8,-14,-12,-9,-4,-3,2021-08-07 12:09:45,568838
2,2,-3,4,12,5,2,1,2021-08-07 12:09:45,568838
-4,-3,-6,-23,-29,-15,-6,-4,2021-08-07 12:09:45,571839
6,9,14,19,19,11,5,5,2021-08-07 12:09:45,571839
1,0,0,10,16,8,3,2,2021-08-07 12:09:45,571839
0,3,7,13,5,3,3,1,2021-08-07 12:09:45,572836
-4,-4,-2,0,2,-2,-4,-3,2021-08-07 12:09:45,572836
-5,-5,-6,-13,-15,-10,-6,-4,2021-08-07 12:09:45,572836
-4,-5,-8,-18,-24,-10,-7,-3,2021-08-07 12:09:45,572836
-2,-2,-5,-9,-6,-3,-2,-1,2021-08-07 12:09:45,572836
8,8,15,31,27,15,9,7,2021-08-07 12:09:45,599837
-1,-2,-4,-4,-3,-2,1,-1,2021-08-07 12:09:45,615836
-1,-1,1,5,3,0,0,0,2021-08-07 12:09:45,631840
-3,-2,-6,-2,-4,-1,-3,-3,2021-08-07 12:09:45,631840
-2,-3,-5,-12,-20,-11,-4,-1,2021-08-07 12:09:45,631840
1,-1,2,4,12,4,1,0,2021-08-07 12:09:45,631840
5,10,16,19,10,5,4,2,2021-08-07 12:09:45,631840
1,1,0,5,15,6,2,1,2021-08-07 12:09:45,631840
0,-3,-7,-2,-11,-5,-1,-2,2021-08-07 12:09:45,631840
-3,-6,-18,-25,-19,-12,-8,-3,2021-08-07 12:09:45,632837
-4,-4,-5,-13,-8,-5,-3,-4,2021-08-07 12:09:45,632837
1,0,10,22,34,13,4,1,2021-08-07 12:09:45,632837
-2,-5,1,-1,-3,-2,-2,0,2021-08-07 12:09:45,647835
-1,0,2,8,3,2,0,-3,2021-08-07 12:09:45,663835
-1,-1,-4,-16,-16,-7,-3,-2,2021-08-07 12:09:45,678837
-2,0,-1,-19,-23,-8,-1,-2,2021-08-07 12:09:45,678837
5,8,15,39,48,22,10,4,2021-08-07 12:09:45,678837
-4,-4,-9,-12,-7,-3,-3,-1,2021-08-07 12:09:45,678837
-3,-4,-10,-20,-15,-7,-3,-1,2021-08-07 12:09:45,678837
-2,-1,-3,3,-3,-3,-2,-2,2021-08-07 12:09:45,678837
-1,-2,-2,-8,-2,-3,-2,-3,2021-08-07 12:09:45,693837
-1,1,8,7,-3,-2,-1,0,2021-08-07 12:09:45,724868
0,-1,-1,8,14,8,1,1,2021-08-07 12:09:45,724868
2,3,2,-5,-9,-6,0,1,2021-08-07 12:09:45,724868
-6,-5,-10,-22,-23,-11,-6,-6,2021-08-07 12:09:45,724868
-1,-3,10,15,18,9,4,1,2021-08-07 12:09:45,724868
2,4,2,11,13,3,0,0,2021-08-07 12:09:45,724868
2,1,-11,-19,-20,-10,-4,-1,2021-08-07 12:09:45,725869
0,1,4,2,5,2,-1,0,2021-08-07 12:09:45,725869
-3,-8,-7,-7,-4,-2,0,-2,2021-08-07 12:09:45,725869
-4,-2,1,7,1,-2,-3,-2,2021-08-07 12:09:45,725869
-4,-5,1,-4,-9,-5,-3,-3,2021-08-07 12:09:45,725869
-4,-2,-8,-18,-20,-10,-5,-2,2021-08-07 12:09:45,756871
1,1,-7,-5,0,-1,-2,0,2021-08-07 12:09:45,772869
4,3,13,24,31,13,4,3,2021-08-07 12:09:45,772869
-3,-1,-4,-6,-10,-6,-2,-3,2021-08-07 12:09:45,788872
1,1,7,22,20,9,5,0,2021-08-07 12:09:45,788872
-3,-3,-3,-7,-16,-8,-3,-2,2021-08-07 12:09:45,788872
-2,-2,-5,-7,0,-3,-2,-2,2021-08-07 12:09:45,788872
1,-1,-3,-8,-10,-5,-3,0,2021-08-07 12:09:45,788872
-4,-7,-9,-10,-8,-5,-4,-2,2021-08-07 12:09:45,789869
1,3,6,14,14,3,1,0,2021-08-07 12:09:45,789869
-7,-10,-8,-16,-24,-13,-6,-5,2021-08-07 12:09:45,789869
-2,-5,-8,-6,9,7,2,0,2021-08-07 12:09:45,789869
5,4,-4,0,-9,-3,-1,3,2021-08-07 12:09:45,820869
1,3,1,4,10,5,2,0,2021-08-07 12:09:45,836867
-2,-2,-2,-4,-8,-3,-2,-3,2021-08-07 12:09:45,852868
-4,-2,10,19,22,7,1,-1,2021-08-07 12:09:45,868868
0,1,-3,-13,-8,-3,2,2,2021-08-07 12:09:45,884868
-1,-2,-3,-4,-11,-4,-3,-1,2021-08-07 12:09:45,884868
-2,-2,-3,-12,-14,-6,-3,-3,2021-08-07 12:09:45,884868
3,2,4,9,13,5,1,0,2021-08-07 12:09:45,884868
-1,1,4,-4,-5,-2,-2,-2,2021-08-07 12:09:45,884868
0,1,-1,-1,-3,-1,0,0,2021-08-07 12:09:45,885870
1,-1,-7,0,8,6,3,2,2021-08-07 12:09:45,885870
-3,-2,-1,0,5,-1,-2,-3,2021-08-07 12:09:45,900868
-3,-7,-3,-4,-3,-3,-3,-2,2021-08-07 12:09:45,915868
2,3,2,-8,-13,-5,-1,2,2021-08-07 12:09:45,915868
-1,-2,1,5,1,-1,0,-1,2021-08-07 12:09:45,915868
0,0,-5,-13,-17,-5,-3,1,2021-08-07 12:09:45,915868
4,5,10,22,35,16,8,4,2021-08-07 12:09:45,915868
-7,-9,-13,-20,-21,-13,-8,-7,2021-08-07 12:09:45,915868
-2,-1,0,3,2,-2,-1,-2,2021-08-07 12:09:45,915868
0,4,6,11,6,4,0,1,2021-08-07 12:09:45,916871
-1,-1,-1,-8,-8,-1,0,-2,2021-08-07 12:09:45,916871
2,1,-4,0,5,1,0,3,2021-08-07 12:09:45,916871
2,2,-2,-8,-5,-1,-1,2,2021-08-07 12:09:45,931870
-2,-4,1,1,-1,-1,-1,-1,2021-08-07 12:09:45,931870
0,1,5,11,9,3,0,0,2021-08-07 12:09:45,931870
2,4,11,15,13,5,3,1,2021-08-07 12:09:45,931870
-3,-2,-5,-8,-12,-6,-3,-2,2021-08-07 12:09:45,931870
-9,-13,-20,-32,-27,-16,-10,-7,2021-08-07 12:09:45,932869
0,1,-2,7,5,3,2,1,2021-08-07 12:09:45,947866
-3,-1,-3,-8,-2,-1,-2,-2,2021-08-07 12:09:45,947866
5,3,9,30,45,22,12,6,2021-08-07 12:09:45,964123
3,2,3,15,8,5,3,0,2021-08-07 12:09:45,964123
-6,-5,-3,-11,-17,-10,-7,-6,2021-08-07 12:09:45,964123
-1,2,1,-9,-14,-6,-1,-1,2021-08-07 12:09:45,964123
-2,-1,-6,-16,-23,-12,-5,-2,2021-08-07 12:09:45,979389
-2,-2,3,9,11,5,1,-1,2021-08-07 12:09:45,979389
1,3,4,2,1,0,1,-2,2021-08-07 12:09:46,011391
2,2,7,14,2,2,2,1,2021-08-07 12:09:46,027387
-5,-6,-7,-9,3,-2,-3,-4,2021-08-07 12:09:46,027387
-6,-11,-19,-24,-29,-18,-8,-5,2021-08-07 12:09:46,027387
-7,-9,-15,-14,-9,-5,-6,-4,2021-08-07 12:09:46,027387
8,11,14,14,12,7,4,6,2021-08-07 12:09:46,027387
2,4,9,5,-4,0,0,2,2021-08-07 12:09:46,028387
1,4,7,11,8,4,2,0,2021-08-07 12:09:46,028387
1,0,-5,-13,-19,-7,0,0,2021-08-07 12:09:46,028387
-1,-3,0,6,24,13,4,-1,2021-08-07 12:09:46,043386
-2,-2,0,4,7,1,-2,-1,2021-08-07 12:09:46,043386
6,9,6,10,6,5,1,4,2021-08-07 12:09:46,043386
-1,-2,0,-3,-3,-3,-1,-1,2021-08-07 12:09:46,053389
-5,-6,-12,-21,-26,-13,-5,-4,2021-08-07 12:09:46,053389
-4,-2,-8,-10,-10,-7,-5,-3,2021-08-07 12:09:46,053389
0,-4,2,-1,7,5,3,-1,2021-08-07 12:09:46,053389
7,9,13,18,16,10,5,5,2021-08-07 12:09:46,075387
0,0,8,21,27,11,3,0,2021-08-07 12:09:46,075387
2,1,0,8,3,2,1,1,2021-08-07 12:09:46,075387
-7,-8,-19,-31,-29,-15,-8,-3,2021-08-07 12:09:46,075387
-8,-13,-15,-23,-15,-13,-9,-6,2021-08-07 12:09:46,091387
-1,-3,3,3,2,1,-3,0,2021-08-07 12:09:46,106386
4,4,9,8,2,3,3,1,2021-08-07 12:09:46,106386
6,8,11,22,11,8,4,4,2021-08-07 12:09:46,106386
0,-1,-2,5,4,2,1,2,2021-08-07 12:09:46,122388
-11,-9,-10,-19,-22,-13,-7,-8,2021-08-07 12:09:46,137386
-2,-3,1,5,11,3,0,-1,2021-08-07 12:09:46,137386
7,5,7,7,0,2,3,4,2021-08-07 12:09:46,137386
-2,-4,-6,1,-1,2,-1,-1,2021-08-07 12:09:46,137386
-1,-2,-14,-19,-12,-6,-3,-2,2021-08-07 12:09:46,137386
0,3,3,0,-4,-2,-2,-2,2021-08-07 12:09:46,137386
-5,-3,2,7,9,1,-1,-2,2021-08-07 12:09:46,137386
1,2,7,6,6,6,3,0,2021-08-07 12:09:46,153388
3,4,2,14,17,8,5,3,2021-08-07 12:09:46,153388
-7,-11,-19,-26,-24,-11,-7,-6,2021-08-07 12:09:46,153388
-3,1,1,-2,-5,-6,-2,-1,2021-08-07 12:09:46,153388
-2,-1,-2,-5,-4,-3,-3,-1,2021-08-07 12:09:46,169389
-1,-6,-2,-1,2,2,1,0,2021-08-07 12:09:46,169389
8,12,7,8,3,3,3,5,2021-08-07 12:09:46,169389
-3,-2,-4,-12,-16,-9,-6,-5,2021-08-07 12:09:46,169389
-1,1,1,-9,-7,-2,-1,-1,2021-08-07 12:09:46,201388
3,2,13,32,25,11,4,2,2021-08-07 12:09:46,201388
-7,-14,-13,-12,4,1,-1,-3,2021-08-07 12:09:46,201388
-2,-4,-8,-6,-3,-3,-3,-2,2021-08-07 12:09:46,201388
0,3,-1,-4,-9,-7,-4,0,2021-08-07 12:09:46,217394
0,3,2,-1,2,-1,0,0,2021-08-07 12:09:46,217394
-6,-8,-5,-13,-24,-12,-7,-7,2021-08-07 12:09:46,217394
4,5,12,18,26,14,6,3,2021-08-07 12:09:46,217394
1,1,2,6,-1,1,2,0,2021-08-07 12:09:46,233388
-1,-4,-10,-10,7,1,-1,-1,2021-08-07 12:09:46,233388
-3,-3,-2,-6,-12,-8,-3,-3,2021-08-07 12:09:46,233388
-6,-6,-8,-18,-4,-3,-4,-5,2021-08-07 12:09:46,233388
-1,0,-2,2,3,0,-2,-1,2021-08-07 12:09:46,249391
1,2,6,7,0,1,1,-1,2021-08-07 12:09:46,249391
8,12,13,21,14,9,5,6,2021-08-07 12:09:46,249391
-3,-7,-7,-7,-12,-8,-5,-3,2021-08-07 12:09:46,249391
-9,-8,-13,-25,-20,-13,-7,-4,2021-08-07 12:09:46,281387
-2,1,-8,-12,-12,-7,-3,-2,2021-08-07 12:09:46,281387
-2,-4,-1,6,6,2,0,0,2021-08-07 12:09:46,281387
4,4,11,15,7,4,3,3,2021-08-07 12:09:46,296386
4,0,-2,12,29,11,4,3,2021-08-07 12:09:46,328387
-8,-8,-17,-30,-24,-13,-9,-5,2021-08-07 12:09:46,328387
-1,-2,2,-10,-18,-10,-3,-1,2021-08-07 12:09:46,328387
2,2,-3,2,6,8,6,4,2021-08-07 12:09:46,328387
1,0,4,9,6,5,2,-3,2021-08-07 12:09:46,329390
-4,-2,2,4,-10,-7,-6,-7,2021-08-07 12:09:46,329390
-5,0,3,5,13,4,-1,-4,2021-08-07 12:09:46,329390
1,1,11,17,9,4,2,0,2021-08-07 12:09:46,329390
4,3,5,5,4,3,2,1,2021-08-07 12:09:46,329390
5,7,2,-2,-11,0,0,3,2021-08-07 12:09:46,329390
-6,-7,-12,-17,-15,-7,-6,-5,2021-08-07 12:09:46,344391
-2,-1,3,16,19,7,2,0,2021-08-07 12:09:46,344391
-2,-1,-5,-2,6,2,1,-1,2021-08-07 12:09:46,360386
5,1,0,5,5,0,2,2,2021-08-07 12:09:46,376386
0,0,-7,-12,-13,-6,-3,0,2021-08-07 12:09:46,392387
-2,-1,-10,-22,-16,-9,-4,-2,2021-08-07 12:09:46,407388
-2,-1,1,1,-7,-3,-2,-2,2021-08-07 12:09:46,407388
-2,0,9,34,38,12,5,-1,2021-08-07 12:09:46,423386
2,4,5,10,14,8,4,2,2021-08-07 12:09:46,438386
4,6,7,4,-5,0,2,-1,2021-08-07 12:09:46,454387
-4,-3,-9,-23,-28,-12,-5,-1,2021-08-07 12:09:46,470388
-10,-15,-19,-34,-27,-16,-10,-9,2021-08-07 12:09:46,470388
1,-4,-3,8,1,-2,0,2,2021-08-07 12:09:46,470388
0,0,8,9,12,6,3,1,2021-08-07 12:09:46,470388
7,9,18,15,17,10,6,4,2021-08-07 12:09:46,470388
5,4,3,5,6,7,5,4,2021-08-07 12:09:46,470388
-7,-12,-16,-14,-11,-8,-7,-6,2021-08-07 12:09:46,471387
-6,-8,-19,-34,-31,-16,-10,-5,2021-08-07 12:09:46,471387
-2,-3,-1,-2,-2,-2,-3,-1,2021-08-07 12:09:46,471387
4,5,16,31,35,18,7,3,2021-08-07 12:09:46,471387
7,9,12,21,18,10,7,3,2021-08-07 12:09:46,471387
0,-3,1,-2,-11,-6,-2,-2,2021-08-07 12:09:46,471387
-5,-6,-10,-7,-19,-8,-5,-5,2021-08-07 12:09:46,471387
-2,-4,-5,-8,4,-1,-2,-1,2021-08-07 12:09:46,471387
-5,-5,-6,-10,-7,-4,-3,-5,2021-08-07 12:09:46,472387
-4,-5,-13,-19,-8,-5,-4,-1,2021-08-07 12:09:46,472387
0,0,0,-7,-2,-1,1,0,2021-08-07 12:09:46,472387
3,5,18,28,3,4,2,2,2021-08-07 12:09:46,472387
0,4,4,4,7,2,3,-2,2021-08-07 12:09:46,472387
-1,-3,-4,2,-3,-4,-2,-2,2021-08-07 12:09:46,472387
-4,-10,-25,-26,-14,-9,-6,-2,2021-08-07 12:09:46,486388
0,-2,-5,-7,1,1,0,1,2021-08-07 12:09:46,486388
1,2,6,-1,-10,-3,-3,0,2021-08-07 12:09:46,486388
6,12,16,23,20,10,6,4,2021-08-07 12:09:46,486388
