EMG 1,EMG 2,EMG 3,EMG 4,EMG 5,EMG 6,EMG 7,EMG 8,Timestamp,Milliseconds
0,0,2,9,2,0,-1,-1,2021-08-07 10:47:54,782089
1,0,0,-2,-2,1,0,2,2021-08-07 10:47:54,782089
-1,-1,-1,0,1,-1,0,-3,2021-08-07 10:47:54,782089
-1,-2,-1,-4,0,0,-2,-2,2021-08-07 10:47:54,782089
0,0,3,0,4,0,2,1,2021-08-07 10:47:54,782089
-2,-1,-2,4,0,-1,-2,-3,2021-08-07 10:47:54,782089
-3,-3,-11,-6,-4,-2,-2,-1,2021-08-07 10:47:54,798089
0,-1,-2,-4,-6,-4,-1,0,2021-08-07 10:47:54,798089
-1,-2,1,5,4,0,0,-2,2021-08-07 10:47:54,798089
1,0,5,9,5,3,1,-1,2021-08-07 10:47:54,798089
-1,-1,1,-7,-4,-3,-2,-1,2021-08-07 10:47:54,798089
1,1,5,17,7,2,0,0,2021-08-07 10:47:54,798089
-1,0,-2,-12,-8,-1,0,0,2021-08-07 10:47:54,814123
-4,-5,-11,-17,-9,-6,-4,-4,2021-08-07 10:47:54,814123
0,-2,-8,0,1,1,-1,-1,2021-08-07 10:47:54,846086
1,-1,1,-1,3,4,2,1,2021-08-07 10:47:54,846086
0,1,5,9,-1,0,-1,-2,2021-08-07 10:47:54,846086
1,1,2,-1,-3,-1,-1,-1,2021-08-07 10:47:54,846086
-1,-3,-2,-9,-6,-3,-1,0,2021-08-07 10:47:54,846086
-2,-1,-1,9,0,-2,-2,-1,2021-08-07 10:47:54,846086
1,-1,0,-6,2,1,-2,-1,2021-08-07 10:47:54,862089
1,1,1,3,0,1,1,0,2021-08-07 10:47:54,862089
-3,-3,-2,-4,-6,-5,-3,-3,2021-08-07 10:47:54,862089
0,3,9,16,17,8,2,1,2021-08-07 10:47:54,862089
-1,1,5,3,9,3,0,0,2021-08-07 10:47:54,909140
-2,-2,-7,-2,-6,-5,-3,-2,2021-08-07 10:47:54,909140
1,-1,-6,-1,1,2,0,0,2021-08-07 10:47:54,909140
-2,0,-3,-5,-8,-6,-3,-2,2021-08-07 10:47:54,909140
-1,-3,-4,-3,-4,-3,-3,-3,2021-08-07 10:47:54,909140
-2,-1,0,-7,-5,-2,-2,-2,2021-08-07 10:47:54,909140
-2,0,0,-2,-1,-1,-2,-2,2021-08-07 10:47:54,909140
2,2,6,11,6,5,4,3,2021-08-07 10:47:54,909140
0,2,13,14,11,5,1,2,2021-08-07 10:47:54,915128
-4,-4,-11,-2,-4,-3,-1,-2,2021-08-07 10:47:54,915128
0,-1,-8,-23,-12,-6,-2,-1,2021-08-07 10:47:54,940123
0,0,-3,-7,1,1,-1,-1,2021-08-07 10:47:54,940403
-3,-3,-4,-13,-11,-6,-3,0,2021-08-07 10:47:54,940403
2,2,8,23,24,10,5,1,2021-08-07 10:47:54,940403
-4,-2,5,8,0,-2,-1,-1,2021-08-07 10:47:54,955371
0,-2,-5,2,1,0,1,0,2021-08-07 10:47:54,971421
-1,-1,-2,-2,-9,-4,-2,-3,2021-08-07 10:47:54,987420
-1,-2,-8,-19,-12,-6,-3,-2,2021-08-07 10:47:55,003408
-1,-3,-4,-1,5,2,0,-1,2021-08-07 10:47:55,035374
-2,-3,3,-1,-3,-2,-2,-3,2021-08-07 10:47:55,051408
-2,-3,-1,-2,-8,-5,-3,-2,2021-08-07 10:47:55,067420
-3,-1,6,4,-5,-2,-1,-2,2021-08-07 10:47:55,083420
4,4,-2,8,13,6,5,4,2021-08-07 10:47:55,083420
1,0,-2,-6,-3,0,-1,-1,2021-08-07 10:47:55,083420
-2,-2,-7,-8,-1,-2,-1,-1,2021-08-07 10:47:55,083420
-1,-1,3,-4,-2,-1,-4,-1,2021-08-07 10:47:55,083420
-2,1,2,4,-7,-4,-3,0,2021-08-07 10:47:55,083420
0,-2,3,5,5,1,-1,-2,2021-08-07 10:47:55,083420
-1,2,-7,5,3,2,1,0,2021-08-07 10:47:55,083420
-1,-1,2,1,-4,-3,-1,-1,2021-08-07 10:47:55,083420
-4,-3,-8,-18,-12,-7,-3,-3,2021-08-07 10:47:55,084397
-3,-2,-3,0,-1,-1,0,-1,2021-08-07 10:47:55,084397
0,1,1,3,1,2,0,1,2021-08-07 10:47:55,084397
1,0,3,2,7,2,-1,1,2021-08-07 10:47:55,084397
1,1,9,9,3,2,1,0,2021-08-07 10:47:55,084397
-1,-4,-11,-8,-1,-2,0,-1,2021-08-07 10:47:55,084397
-5,-5,-2,-4,-7,-5,-4,-3,2021-08-07 10:47:55,084397
2,2,2,1,3,3,1,3,2021-08-07 10:47:55,084397
-2,-3,6,7,-2,-4,-4,-4,2021-08-07 10:47:55,084397
2,2,6,6,17,7,4,1,2021-08-07 10:47:55,085372
2,-3,-8,-4,3,2,1,1,2021-08-07 10:47:55,085372
0,1,0,-3,1,0,0,-1,2021-08-07 10:47:55,085372
-3,0,-4,-2,-6,-3,-1,-2,2021-08-07 10:47:55,085372
-2,1,2,4,-4,-3,-2,-1,2021-08-07 10:47:55,085372
0,0,4,4,-2,-3,0,-1,2021-08-07 10:47:55,099408
1,0,-1,1,9,3,0,-1,2021-08-07 10:47:55,115370
-1,-3,-4,-6,-2,-3,-1,-1,2021-08-07 10:47:55,115370
-2,-1,-3,3,-6,-4,-4,-3,2021-08-07 10:47:55,115370
0,-1,-1,-26,-15,-4,-2,-1,2021-08-07 10:47:55,115370
-2,-4,-1,5,10,5,0,-1,2021-08-07 10:47:55,115370
3,4,8,19,14,6,3,3,2021-08-07 10:47:55,131373
-1,-2,2,4,-3,-4,-2,-1,2021-08-07 10:47:55,131373
1,3,7,12,18,8,3,1,2021-08-07 10:47:55,131373
-2,-3,-6,-11,-14,-8,-3,-4,2021-08-07 10:47:55,131373
1,-1,2,4,7,4,0,0,2021-08-07 10:47:55,147419
-3,-1,-6,-5,-5,-3,-1,0,2021-08-07 10:47:55,147419
-2,-1,-3,-7,-10,-6,-3,-2,2021-08-07 10:47:55,163409
-5,-4,-4,-5,-6,-4,-3,-2,2021-08-07 10:47:55,179421
-1,1,-4,-1,6,3,1,0,2021-08-07 10:47:55,211373
1,1,7,4,0,0,1,1,2021-08-07 10:47:55,211373
-2,-1,2,5,7,3,1,-1,2021-08-07 10:47:55,211373
0,0,-3,-5,-5,-2,-1,0,2021-08-07 10:47:55,211373
-4,-4,1,-8,-9,-5,-5,-4,2021-08-07 10:47:55,211373
-1,0,-4,-7,-3,-1,-1,-1,2021-08-07 10:47:55,211373
0,0,0,4,2,1,0,0,2021-08-07 10:47:55,211373
4,3,5,15,12,6,4,2,2021-08-07 10:47:55,211373
-3,-4,-5,-15,-13,-7,-3,-3,2021-08-07 10:47:55,212410
1,1,4,2,10,5,1,1,2021-08-07 10:47:55,212410
-3,-4,-4,-13,-6,-4,-2,-3,2021-08-07 10:47:55,226405
0,-2,-9,-6,-11,-8,-5,-2,2021-08-07 10:47:55,242406
1,0,5,11,1,-2,0,-1,2021-08-07 10:47:55,253406
-1,-1,1,-4,-2,-1,0,0,2021-08-07 10:47:55,253406
1,1,-2,-2,7,5,2,1,2021-08-07 10:47:55,254372
-3,0,-8,-11,-4,-1,-1,0,2021-08-07 10:47:55,254372
-1,-4,-6,-11,-8,-5,-3,-2,2021-08-07 10:47:55,254372
-2,-3,-2,-2,-6,-4,-5,-3,2021-08-07 10:47:55,254372
1,1,6,7,-1,-2,-1,1,2021-08-07 10:47:55,254372
-2,-3,0,-4,-12,-5,-3,-3,2021-08-07 10:47:55,254372
5,7,4,16,26,11,6,3,2021-08-07 10:47:55,274369
1,0,2,4,0,0,0,-1,2021-08-07 10:47:55,274369
-2,-4,-11,-18,-10,-7,-3,-3,2021-08-07 10:47:55,274369
-3,-2,-3,-4,-4,-3,-2,-3,2021-08-07 10:47:55,274369
-4,-7,-5,-14,-20,-9,-4,-2,2021-08-07 10:47:55,289468
1,1,5,11,10,5,3,2,2021-08-07 10:47:55,289468
1,1,-3,-1,0,1,2,0,2021-08-07 10:47:55,289468
2,3,9,10,6,5,4,3,2021-08-07 10:47:55,289468
-1,-2,1,12,11,3,0,-3,2021-08-07 10:47:55,305422
-6,-5,-6,-14,-2,-2,-4,-6,2021-08-07 10:47:55,305422
-6,-1,5,1,-9,-7,-7,-5,2021-08-07 10:47:55,321407
1,0,-5,2,6,2,-1,-1,2021-08-07 10:47:55,336406
0,-1,-8,-6,-3,-2,1,1,2021-08-07 10:47:55,336406
1,1,1,7,-4,-3,-1,1,2021-08-07 10:47:55,336406
2,0,4,5,-4,-3,-1,0,2021-08-07 10:47:55,336406
3,2,2,-4,7,4,2,3,2021-08-07 10:47:55,336406
-4,-3,-14,-20,-11,-4,-3,-2,2021-08-07 10:47:55,352406
-5,-5,-14,-8,-5,-3,-5,-3,2021-08-07 10:47:55,352406
2,2,13,18,17,9,4,2,2021-08-07 10:47:55,352406
-1,0,2,12,5,2,0,0,2021-08-07 10:47:55,352406
-1,-3,-3,-11,-4,-2,-1,-1,2021-08-07 10:47:55,368423
-1,0,3,-8,-6,-2,-1,-1,2021-08-07 10:47:55,368423
-1,-1,-3,-2,-2,-3,0,-2,2021-08-07 10:47:55,384424
-1,-2,1,3,-1,-2,-1,-1,2021-08-07 10:47:55,400369
0,1,2,3,0,0,-1,-1,2021-08-07 10:47:55,416406
-2,-1,-3,2,-3,-3,-3,-1,2021-08-07 10:47:55,416406
-1,-3,-5,-1,-1,-1,-1,-3,2021-08-07 10:47:55,416406
2,2,2,-3,5,2,2,2,2021-08-07 10:47:55,416406
-2,-3,-5,-18,-11,-5,-3,-2,2021-08-07 10:47:55,416406
3,2,6,9,8,5,2,2,2021-08-07 10:47:55,416406
-3,-4,-5,5,3,0,-3,-2,2021-08-07 10:47:55,416406
-2,1,1,0,-5,-4,-1,-2,2021-08-07 10:47:55,417371
-1,0,3,-1,-7,-2,-2,-1,2021-08-07 10:47:55,432372
0,0,-4,-8,-4,-1,-1,-3,2021-08-07 10:47:55,448407
-1,-2,-11,-8,7,3,0,0,2021-08-07 10:47:55,464407
-4,-6,-4,-10,-11,-6,-4,-4,2021-08-07 10:47:55,464407
0,2,10,17,6,2,-1,-2,2021-08-07 10:47:55,464407
0,2,6,9,2,2,0,0,2021-08-07 10:47:55,464407
1,0,-3,-6,-3,-1,0,0,2021-08-07 10:47:55,464407
-3,-3,-6,-17,-7,-3,-2,-1,2021-08-07 10:47:55,464407
-3,-4,-4,-4,-1,0,0,-1,2021-08-07 10:47:55,464407
-1,1,0,3,7,1,-1,1,2021-08-07 10:47:55,464407
0,-1,1,8,0,1,2,1,2021-08-07 10:47:55,480420
1,-2,-4,-4,1,1,0,0,2021-08-07 10:47:55,496423
-3,-2,2,-2,-3,-1,-4,-3,2021-08-07 10:47:55,512406
0,0,3,-1,1,1,-1,1,2021-08-07 10:47:55,512406
0,2,6,10,0,-2,1,1,2021-08-07 10:47:55,512406
-1,0,1,0,-2,-2,0,-1,2021-08-07 10:47:55,512406
0,-1,-2,3,1,0,1,-1,2021-08-07 10:47:55,512406
-2,-3,-1,-4,-5,-5,0,-1,2021-08-07 10:47:55,512406
-2,-2,-3,-12,-4,-2,-2,-1,2021-08-07 10:47:55,528373
-1,-2,-3,-3,-5,-3,-2,0,2021-08-07 10:47:55,544373
2,3,4,8,8,5,1,2,2021-08-07 10:47:55,560374
-1,-2,-7,-9,-6,-2,-2,-1,2021-08-07 10:47:55,560374
0,0,4,6,4,3,1,-1,2021-08-07 10:47:55,560374
-2,-2,0,1,-3,-2,-1,-2,2021-08-07 10:47:55,560374
2,2,3,7,6,3,2,2,2021-08-07 10:47:55,560374
-1,-4,-4,-9,-7,-3,-2,-1,2021-08-07 10:47:55,560374
-1,-1,-3,-6,-2,1,-1,0,2021-08-07 10:47:55,560374
-2,0,2,9,8,2,-2,-1,2021-08-07 10:47:55,561374
-1,-2,-2,3,-1,-1,-2,1,2021-08-07 10:47:55,575406
-1,-4,-5,-10,-8,-5,-2,-2,2021-08-07 10:47:55,575406
-4,-1,-2,-4,-1,-1,-2,-2,2021-08-07 10:47:55,575406
3,2,5,11,5,2,0,2,2021-08-07 10:47:55,575406
-1,-2,-3,-7,-8,-2,-1,-2,2021-08-07 10:47:55,591420
-2,-2,-3,-8,-5,-2,-2,-1,2021-08-07 10:47:55,607420
-3,-3,-1,3,2,-1,-1,-1,2021-08-07 10:47:55,608423
-1,0,1,-2,-2,0,0,-2,2021-08-07 10:47:55,608423
3,3,2,8,16,8,3,2,2021-08-07 10:47:55,609371
0,-2,-1,1,-3,-1,-2,-1,2021-08-07 10:47:55,609371
1,1,0,-3,-8,-5,-3,-2,2021-08-07 10:47:55,623416
-2,0,1,1,6,1,-1,-1,2021-08-07 10:47:55,623416
-1,-1,-1,2,2,0,1,-2,2021-08-07 10:47:55,639407
1,0,2,2,3,1,2,-1,2021-08-07 10:47:55,655406
-1,-1,-2,-6,-3,-4,0,-1,2021-08-07 10:47:55,671418
0,-2,-2,-5,-10,-8,-4,-1,2021-08-07 10:47:55,687368
-1,1,1,4,1,-1,-2,1,2021-08-07 10:47:55,719419
-1,-1,-2,1,4,1,0,1,2021-08-07 10:47:55,719419
-1,-3,-2,-7,-2,-1,-2,-1,2021-08-07 10:47:55,719419
-1,1,0,-2,-11,-4,-3,-3,2021-08-07 10:47:55,719419
0,1,0,2,10,8,4,2,2021-08-07 10:47:55,719419
-1,-2,-7,-9,-4,-2,-3,-3,2021-08-07 10:47:55,719419
-2,-3,-3,-4,-4,-4,-3,-1,2021-08-07 10:47:55,719419
-1,-1,1,-2,0,-1,-1,1,2021-08-07 10:47:55,720423
0,0,6,16,7,2,-1,-1,2021-08-07 10:47:55,720423
0,0,1,-4,-5,-2,-2,0,2021-08-07 10:47:55,720423
-2,-4,-8,-9,-1,1,-1,-1,2021-08-07 10:47:55,720423
-2,-1,-5,-5,-7,-4,-1,-3,2021-08-07 10:47:55,720423
0,0,-2,-7,-10,-4,-2,-1,2021-08-07 10:47:55,720423
-2,0,1,2,4,0,0,-1,2021-08-07 10:47:55,720423
-1,2,4,5,0,0,0,1,2021-08-07 10:47:55,720423
0,0,4,8,7,2,1,-1,2021-08-07 10:47:55,720423
2,-1,-2,1,-5,-3,-2,0,2021-08-07 10:47:55,735374
-3,-2,-11,-13,-4,-1,-2,-2,2021-08-07 10:47:55,751406
-2,-2,2,-1,-3,-4,-3,-4,2021-08-07 10:47:55,751406
2,4,5,8,9,6,3,1,2021-08-07 10:47:55,751406
-4,-4,-4,-2,1,-2,-1,-1,2021-08-07 10:47:55,751406
0,0,1,-2,-7,-3,-1,0,2021-08-07 10:47:55,751406
1,2,2,12,5,3,1,0,2021-08-07 10:47:55,767372
0,-2,0,1,4,1,-1,-1,2021-08-07 10:47:55,783372
-1,2,1,-10,-6,-4,-1,0,2021-08-07 10:47:55,798372
-3,-2,-7,3,-1,-1,-1,-1,2021-08-07 10:47:55,798372
-1,-1,-4,-6,-7,-3,-2,0,2021-08-07 10:47:55,798372
0,-1,-3,-1,-2,1,-2,-1,2021-08-07 10:47:55,798372
-3,-3,-2,-3,-2,-1,-2,-1,2021-08-07 10:47:55,798372
0,-1,-1,1,2,1,-1,-2,2021-08-07 10:47:55,798372
1,0,4,5,4,2,0,-1,2021-08-07 10:47:55,799371
-3,-4,-5,-8,-5,-2,-2,-1,2021-08-07 10:47:55,799371
2,1,0,0,-2,-2,0,-1,2021-08-07 10:47:55,814371
-1,0,1,-6,-4,0,-1,0,2021-08-07 10:47:55,814371
-2,-1,-3,0,-1,-1,1,-1,2021-08-07 10:47:55,814371
-3,-3,-2,-7,-8,-3,-3,-3,2021-08-07 10:47:55,814371
5,5,2,9,12,8,4,3,2021-08-07 10:47:55,830421
-2,-2,0,5,4,1,-1,-2,2021-08-07 10:47:55,830421
1,-1,-1,-4,-7,-3,0,1,2021-08-07 10:47:55,846423
-1,-1,-6,-11,2,-1,-3,-3,2021-08-07 10:47:55,846423
-5,-3,-3,-2,-11,-5,-3,-2,2021-08-07 10:47:55,862407
1,1,3,7,5,2,1,1,2021-08-07 10:47:55,862407
1,1,1,3,8,4,1,-1,2021-08-07 10:47:55,862407
-1,1,2,0,-9,-4,0,0,2021-08-07 10:47:55,862407
-3,-3,-1,-4,0,-2,-2,-2,2021-08-07 10:47:55,878406
-1,0,1,1,2,-1,-1,-1,2021-08-07 10:47:55,878406
-3,-3,0,1,-1,1,0,-1,2021-08-07 10:47:55,878406
-1,0,0,4,5,2,1,0,2021-08-07 10:47:55,878406
-1,-2,-5,-10,-9,-5,-3,0,2021-08-07 10:47:55,894371
1,0,2,2,-4,-2,1,-1,2021-08-07 10:47:55,894371
1,0,1,3,2,-1,-1,0,2021-08-07 10:47:55,910372
2,2,0,0,1,2,1,0,2021-08-07 10:47:55,925374
-3,-3,-1,-10,-10,-5,-5,-3,2021-08-07 10:47:55,941422
-2,-4,-6,-8,-5,-3,-3,-2,2021-08-07 10:47:55,941422
0,-1,-8,-11,-5,-1,-1,0,2021-08-07 10:47:55,941422
0,1,1,9,4,0,0,0,2021-08-07 10:47:55,941422
3,3,6,10,11,3,1,-1,2021-08-07 10:47:55,941422
-2,0,2,3,-3,-2,0,-2,2021-08-07 10:47:55,941422
0,-2,-4,-6,-7,-4,-2,0,2021-08-07 10:47:55,941422
-2,-3,0,1,4,1,0,-1,2021-08-07 10:47:55,941422
0,0,-1,-3,-6,-1,-1,0,2021-08-07 10:47:55,957372
0,0,4,14,9,2,-2,-1,2021-08-07 10:47:55,962406
0,2,0,-3,1,1,1,0,2021-08-07 10:47:55,963371
-3,-5,-18,-20,-15,-9,-4,-3,2021-08-07 10:47:55,963371
0,1,1,5,7,5,1,-2,2021-08-07 10:47:55,989369
1,2,3,8,14,8,2,0,2021-08-07 10:47:55,989369
-1,2,4,2,-3,-2,-3,-2,2021-08-07 10:47:55,989369
0,-2,3,5,1,-1,-1,-1,2021-08-07 10:47:55,989369
-4,-4,-8,-12,-10,-7,-3,-3,2021-08-07 10:47:55,989369
-2,-1,0,-5,-7,-4,-1,-1,2021-08-07 10:47:55,989369
-2,-2,2,6,4,-1,0,-1,2021-08-07 10:47:56,005420
1,1,4,-1,3,3,1,2,2021-08-07 10:47:56,021426
-1,-3,-7,-11,-10,-5,0,-3,2021-08-07 10:47:56,037406
1,0,-1,0,6,3,-1,1,2021-08-07 10:47:56,037406
-2,-3,-2,-1,-1,0,0,-2,2021-08-07 10:47:56,037406
-1,0,-1,3,1,0,-1,-3,2021-08-07 10:47:56,037406
-2,-2,1,0,-2,-1,-3,-1,2021-08-07 10:47:56,037406
-1,-3,-2,-11,-10,-4,-4,-3,2021-08-07 10:47:56,037406
4,2,-1,5,11,5,2,0,2021-08-07 10:47:56,053482
0,-2,1,-1,-3,-2,0,0,2021-08-07 10:47:56,069033
0,-2,0,1,2,1,1,0,2021-08-07 10:47:56,069033
-3,-4,-3,-4,-10,-5,-3,-2,2021-08-07 10:47:56,069033
-1,1,-3,-8,-5,-1,-2,0,2021-08-07 10:47:56,069033
0,2,5,7,6,3,0,-2,2021-08-07 10:47:56,069033
-3,-1,-1,-3,0,-1,-1,-1,2021-08-07 10:47:56,069033
-1,-2,0,-1,-1,-2,-1,-2,2021-08-07 10:47:56,069033
-2,-3,-2,-3,-6,-4,-1,-1,2021-08-07 10:47:56,101036
-1,-2,-3,-3,-3,-3,-1,-2,2021-08-07 10:47:56,101036
-1,0,1,6,7,3,-1,-1,2021-08-07 10:47:56,101036
2,1,1,-1,-2,-1,0,1,2021-08-07 10:47:56,101036
0,1,3,7,5,2,1,0,2021-08-07 10:47:56,101036
0,-2,-6,-16,-8,-4,-1,-1,2021-08-07 10:47:56,101036
1,-2,-2,-2,1,0,1,0,2021-08-07 10:47:56,117046
-2,-2,-1,1,-2,1,2,-2,2021-08-07 10:47:56,133033
-3,-4,0,6,4,1,-2,-2,2021-08-07 10:47:56,149000
1,3,3,8,7,5,2,0,2021-08-07 10:47:56,164035
-4,-3,-1,-3,1,-1,-3,-6,2021-08-07 10:47:56,164035
-2,-2,0,-3,-4,-5,-4,-2,2021-08-07 10:47:56,164035
-1,1,4,4,2,0,0,-1,2021-08-07 10:47:56,164035
-2,0,1,2,-6,-4,-2,0,2021-08-07 10:47:56,164035
0,0,-3,-6,-3,1,-1,0,2021-08-07 10:47:56,164035
1,0,-1,-1,2,3,1,1,2021-08-07 10:47:56,164035
-2,-3,-4,-4,-5,-4,-2,-2,2021-08-07 10:47:56,164035
-2,-4,-3,-6,-7,-2,-1,0,2021-08-07 10:47:56,180035
3,2,3,6,5,2,1,1,2021-08-07 10:47:56,196026
-2,-1,0,-4,-4,-2,-1,-3,2021-08-07 10:47:56,196026
-1,0,-5,-3,-4,-1,0,-1,2021-08-07 10:47:56,196026
-1,-3,-3,2,0,1,-1,0,2021-08-07 10:47:56,196026
-2,-2,-1,-1,-3,-1,0,0,2021-08-07 10:47:56,196026
0,0,1,3,4,2,1,0,2021-08-07 10:47:56,196026
-1,-2,-2,-1,-1,-2,0,-3,2021-08-07 10:47:56,196998
-3,-2,-1,-6,-10,-5,-2,-1,2021-08-07 10:47:56,196998
-2,-1,-1,-1,-6,-5,-2,-1,2021-08-07 10:47:56,211997
1,0,-1,2,6,4,1,1,2021-08-07 10:47:56,211997
-1,0,0,4,5,1,1,-1,2021-08-07 10:47:56,211997
0,1,1,-1,6,3,0,1,2021-08-07 10:47:56,211997
0,-2,-3,-3,-7,-3,-1,-1,2021-08-07 10:47:56,226999
0,-1,-3,-6,-4,-2,0,-1,2021-08-07 10:47:56,226999
0,-1,-1,-3,-6,-3,-4,-2,2021-08-07 10:47:56,242033
-1,-2,-4,-5,-6,-3,-2,-1,2021-08-07 10:47:56,258347
0,1,3,0,1,0,0,1,2021-08-07 10:47:56,274033
-1,0,5,8,10,3,0,-3,2021-08-07 10:47:56,274033
-2,-2,-7,-7,-4,-2,-1,0,2021-08-07 10:47:56,274033
-3,-2,-6,-4,-1,-2,-3,-3,2021-08-07 10:47:56,274033
-3,-2,-7,-20,-19,-10,-4,-4,2021-08-07 10:47:56,274033
-1,-1,1,2,3,2,-1,0,2021-08-07 10:47:56,274033
0,1,2,5,7,4,1,2,2021-08-07 10:47:56,306047
1,1,3,3,-1,-1,-2,-1,2021-08-07 10:47:56,306047
-1,-2,0,4,2,-1,1,-1,2021-08-07 10:47:56,306047
-3,-4,-4,-9,-6,-5,-3,-3,2021-08-07 10:47:56,306047
-2,-1,0,-5,-5,-3,-1,-1,2021-08-07 10:47:56,306047
4,4,11,19,10,3,3,3,2021-08-07 10:47:56,306047
0,-2,1,1,3,3,0,0,2021-08-07 10:47:56,322046
-3,-3,-10,-12,-8,-4,-2,-1,2021-08-07 10:47:56,326034
-3,-3,-12,-10,-8,-5,-3,-1,2021-08-07 10:47:56,326034
-3,-4,-9,-14,-13,-5,-3,-3,2021-08-07 10:47:56,326034
1,4,9,23,33,15,5,2,2021-08-07 10:47:56,337999
0,0,4,7,-2,-3,0,-1,2021-08-07 10:47:56,354033
2,1,7,-1,-2,-1,1,1,2021-08-07 10:47:56,370033
-1,-2,-2,5,1,1,0,-1,2021-08-07 10:47:56,370033
-2,-3,-2,-2,-12,-5,-2,-1,2021-08-07 10:47:56,370033
1,1,-2,-10,-2,1,1,1,2021-08-07 10:47:56,370033
-1,-4,-8,-10,-11,-4,-1,-2,2021-08-07 10:47:56,370033
-1,-1,1,3,19,9,1,0,2021-08-07 10:47:56,370033
-1,-1,-1,4,-4,-3,-1,-3,2021-08-07 10:47:56,370033
0,2,3,8,-1,-2,-3,-1,2021-08-07 10:47:56,370033
-1,0,1,-8,-4,-2,-2,-1,2021-08-07 10:47:56,386033
1,0,-3,-3,-5,-3,-1,-1,2021-08-07 10:47:56,386033
0,-3,0,2,3,3,-1,-1,2021-08-07 10:47:56,401999
0,2,3,6,3,1,2,0,2021-08-07 10:47:56,418046
-1,-3,-3,-2,-4,-1,-3,-3,2021-08-07 10:47:56,433226
0,-2,-2,-4,-1,-2,-2,-1,2021-08-07 10:47:56,433226
-3,-3,-9,-8,-4,-2,-2,0,2021-08-07 10:47:56,433226
-2,-2,7,5,-4,-3,-2,-2,2021-08-07 10:47:56,433226
2,1,-1,11,9,4,2,0,2021-08-07 10:47:56,433226
-2,-1,-6,-10,-3,-2,0,-1,2021-08-07 10:47:56,433226
0,1,-5,-10,-4,0,0,1,2021-08-07 10:47:56,433226
-2,-2,-5,2,-2,-3,-2,-3,2021-08-07 10:47:56,434225
-2,-2,4,-5,0,0,-2,-1,2021-08-07 10:47:56,449213
6,6,11,19,21,11,6,3,2021-08-07 10:47:56,449213
-2,-1,2,-1,-8,-4,0,-4,2021-08-07 10:47:56,465213
-1,-2,-8,-3,-3,-1,-1,-2,2021-08-07 10:47:56,481178
-5,-5,-5,-10,-10,-6,-4,-3,2021-08-07 10:47:56,513175
-2,-2,-2,0,-10,-7,-3,0,2021-08-07 10:47:56,513175
1,0,-1,-7,1,1,0,1,2021-08-07 10:47:56,513175
-1,-2,-2,-8,-5,-2,-1,0,2021-08-07 10:47:56,513175
2,3,8,15,18,9,2,0,2021-08-07 10:47:56,513175
-2,-1,-2,-1,0,0,-1,-1,2021-08-07 10:47:56,513175
-2,-4,-4,-3,-10,-7,-4,-3,2021-08-07 10:47:56,514174
1,2,-3,-6,-4,-2,-1,2,2021-08-07 10:47:56,514174
-1,-2,-3,-2,-6,-3,-1,-1,2021-08-07 10:47:56,514174
0,1,2,0,3,1,-1,1,2021-08-07 10:47:56,514174
0,-1,1,-2,-2,-1,0,-2,2021-08-07 10:47:56,514174
0,1,-1,9,9,4,3,1,2021-08-07 10:47:56,514174
1,3,3,7,4,1,0,0,2021-08-07 10:47:56,529226
-1,2,-1,-4,-5,0,-1,-1,2021-08-07 10:47:56,529226
-3,-3,-2,-5,-6,-4,-1,-3,2021-08-07 10:47:56,545225
1,0,-3,-11,-4,0,0,0,2021-08-07 10:47:56,560225
0,-2,1,2,-1,-2,0,-2,2021-08-07 10:47:56,560225
-1,-2,7,8,-3,-2,-2,-2,2021-08-07 10:47:56,560225
0,3,-3,5,14,6,0,1,2021-08-07 10:47:56,560225
-4,-7,-11,-14,-16,-8,-3,-4,2021-08-07 10:47:56,560225
-5,-9,-14,-21,-18,-9,-7,-5,2021-08-07 10:47:56,560225
2,1,1,1,-1,0,0,1,2021-08-07 10:47:56,561177
4,4,11,17,12,7,3,1,2021-08-07 10:47:56,576211
0,1,6,13,11,6,0,-1,2021-08-07 10:47:56,576211
0,1,-2,-1,-5,-2,-1,0,2021-08-07 10:47:56,592228
-2,-4,-2,-11,-10,-4,-4,-5,2021-08-07 10:47:56,592228
0,2,8,6,3,2,0,2,2021-08-07 10:47:56,608177
1,-1,-16,-9,-3,-3,-2,-1,2021-08-07 10:47:56,608177
-1,0,4,3,0,0,1,-2,2021-08-07 10:47:56,608177
-2,-3,-1,-2,0,-1,0,-1,2021-08-07 10:47:56,608177
1,0,-1,10,7,4,1,0,2021-08-07 10:47:56,608177
-2,0,3,5,3,-1,0,-1,2021-08-07 10:47:56,608177
-3,-2,-7,-15,-11,-7,-2,-2,2021-08-07 10:47:56,623177
-3,-2,-7,-19,-8,-4,-2,-3,2021-08-07 10:47:56,623177
-4,-2,-5,-5,-6,-4,-4,-2,2021-08-07 10:47:56,639471
0,0,6,12,7,3,1,1,2021-08-07 10:47:56,654718
3,4,6,15,12,7,3,1,2021-08-07 10:47:56,654718
-3,-2,-1,2,0,-2,-1,-2,2021-08-07 10:47:56,654718
-4,-3,-9,-16,-13,-6,-4,-3,2021-08-07 10:47:56,654718
0,-1,-2,-4,-4,-2,-1,1,2021-08-07 10:47:56,654718
-1,-1,-1,-1,0,-2,-2,0,2021-08-07 10:47:56,670671
-2,-2,-5,-3,-6,-3,-2,0,2021-08-07 10:47:56,670671
3,4,4,8,11,5,3,3,2021-08-07 10:47:56,670671
-2,-3,1,0,-4,-2,-4,-3,2021-08-07 10:47:56,670671
1,2,0,-3,6,2,1,2,2021-08-07 10:47:56,677712
-1,-2,-4,-3,-2,-2,-1,-1,2021-08-07 10:47:56,677712
-1,-2,-5,-4,-7,-6,-1,-1,2021-08-07 10:47:56,702674
1,1,2,-6,-5,-1,-1,1,2021-08-07 10:47:56,718671
-1,-2,-1,2,0,0,-1,-2,2021-08-07 10:47:56,718671
-1,0,0,5,8,5,2,2,2021-08-07 10:47:56,718671
1,0,1,-1,-2,-1,1,0,2021-08-07 10:47:56,718671
-3,-3,-1,-6,-9,-5,-1,-2,2021-08-07 10:47:56,718671
-1,0,-4,-4,3,3,0,-1,2021-08-07 10:47:56,718671
1,1,3,11,8,2,2,-2,2021-08-07 10:47:56,718671
0,-1,1,3,2,1,0,-2,2021-08-07 10:47:56,734720
1,-1,-2,-7,3,2,1,0,2021-08-07 10:47:56,734720
-5,-6,-9,-27,-25,-12,-5,-4,2021-08-07 10:47:56,750673
0,-1,2,10,6,0,-1,0,2021-08-07 10:47:56,750673
0,1,3,7,9,5,2,0,2021-08-07 10:47:56,750673
0,1,4,9,4,2,-1,-2,2021-08-07 10:47:56,750673
-2,-2,-4,-2,-10,-7,-3,-2,2021-08-07 10:47:56,766705
1,1,2,1,8,8,3,1,2021-08-07 10:47:56,766705
-1,-1,1,4,0,0,0,0,2021-08-07 10:47:56,782719
-3,-4,-8,-12,-15,-11,-4,-4,2021-08-07 10:47:56,782719
4,4,8,11,12,5,1,3,2021-08-07 10:47:56,782719
-2,-2,-2,-3,-5,-4,-2,-2,2021-08-07 10:47:56,782719
-2,-2,-2,-2,-4,-2,-2,-1,2021-08-07 10:47:56,798707
-1,-1,0,3,6,4,0,0,2021-08-07 10:47:56,814672
0,-1,1,2,1,0,0,-1,2021-08-07 10:47:56,814672
1,1,3,5,5,2,1,-1,2021-08-07 10:47:56,814672
-2,-3,-6,-10,-5,-3,0,-2,2021-08-07 10:47:56,814672
-5,-5,-10,-15,-15,-11,-4,-3,2021-08-07 10:47:56,814672
0,1,0,8,3,1,2,0,2021-08-07 10:47:56,830721
-3,-1,-2,-5,-5,-2,0,-2,2021-08-07 10:47:56,846719
-3,-2,-4,-5,-2,-4,-3,-1,2021-08-07 10:47:56,846719
2,2,10,17,14,8,3,1,2021-08-07 10:47:56,846719
0,0,1,3,4,2,2,-1,2021-08-07 10:47:56,846719
-2,-4,-6,-14,-9,-7,-4,-3,2021-08-07 10:47:56,846719
-1,-4,-5,-5,-9,-8,-5,-3,2021-08-07 10:47:56,862719
-1,1,1,-1,2,1,-1,-1,2021-08-07 10:47:56,862719
-1,0,2,12,8,3,0,2,2021-08-07 10:47:56,862719
1,-1,-1,-3,-2,0,1,-1,2021-08-07 10:47:56,862719
-2,-1,-1,-5,-8,-3,-3,0,2021-08-07 10:47:56,878706
0,0,-1,0,4,1,-2,-2,2021-08-07 10:47:56,893673
-1,2,2,5,3,1,0,0,2021-08-07 10:47:56,893673
-1,-1,-2,-5,-5,-3,-1,0,2021-08-07 10:47:56,893673
-2,-1,0,-1,-2,-1,-2,-1,2021-08-07 10:47:56,908720
-2,-1,1,-1,0,-1,-1,-1,2021-08-07 10:47:56,924705
0,-3,-4,-3,0,-2,-1,-3,2021-08-07 10:47:56,939672
-1,0,0,0,2,1,0,1,2021-08-07 10:47:56,939672
1,0,0,5,5,3,0,0,2021-08-07 10:47:56,939672
-2,-1,-4,-7,-8,-3,-1,-3,2021-08-07 10:47:56,939672
-1,1,0,1,1,1,1,0,2021-08-07 10:47:56,955707
-1,-1,-1,1,-2,1,-1,0,2021-08-07 10:47:56,971706
1,-1,-4,-3,-5,-4,-1,0,2021-08-07 10:47:56,987707
0,-3,-4,-5,-4,-2,-1,2,2021-08-07 10:47:57,003669
-1,-1,0,1,5,3,1,1,2021-08-07 10:47:57,003669
-1,0,0,6,1,2,1,0,2021-08-07 10:47:57,003669
-3,0,0,0,4,3,1,-1,2021-08-07 10:47:57,003669
-4,-2,0,0,-3,-4,-3,-3,2021-08-07 10:47:57,003669
-4,-4,-2,-4,-4,-2,-4,-3,2021-08-07 10:47:57,003669
-3,-2,-1,0,-1,-4,-3,-3,2021-08-07 10:47:57,003669
0,-1,1,-2,-4,-2,-2,-1,2021-08-07 10:47:57,004712
-1,3,1,1,1,1,0,1,2021-08-07 10:47:57,004712
1,0,0,1,-5,-2,-1,-1,2021-08-07 10:47:57,004712
1,1,-1,-2,2,1,2,1,2021-08-07 10:47:57,004712
1,1,-2,-3,-2,-1,1,1,2021-08-07 10:47:57,004712
1,0,0,3,2,0,2,2,2021-08-07 10:47:57,004712
-2,-1,0,1,-2,0,-1,-1,2021-08-07 10:47:57,004712
-3,-3,-5,-7,-12,-6,-2,-3,2021-08-07 10:47:57,004712
1,2,2,3,7,4,1,0,2021-08-07 10:47:57,019720
2,2,3,5,5,5,1,2,2021-08-07 10:47:57,019720
-1,0,-2,-4,-4,-3,-1,0,2021-08-07 10:47:57,019720
-2,-4,-4,-7,-10,-7,-5,-2,2021-08-07 10:47:57,019720
-1,-2,-1,-2,7,3,0,0,2021-08-07 10:47:57,035707
0,0,4,11,8,4,0,0,2021-08-07 10:47:57,035707
0,-1,-1,-1,-1,0,-2,0,2021-08-07 10:47:57,041707
-2,-2,-2,-5,-3,-1,-1,-1,2021-08-07 10:47:57,041707
-2,-2,-2,-1,-6,-4,-2,-2,2021-08-07 10:47:57,067725
-2,-1,-3,-6,-8,-4,-2,-3,2021-08-07 10:47:57,083720
1,1,1,4,8,2,1,2,2021-08-07 10:47:57,083720
-1,0,1,0,-1,0,-1,-1,2021-08-07 10:47:57,083720
-2,-2,-2,-2,-5,-2,-2,-2,2021-08-07 10:47:57,083720
-1,-1,-5,-9,-5,-2,0,0,2021-08-07 10:47:57,083720
0,0,3,6,2,1,0,1,2021-08-07 10:47:57,083720
2,-1,0,1,2,0,-1,1,2021-08-07 10:47:57,083720
-2,0,0,2,1,0,0,0,2021-08-07 10:47:57,099707
-2,-2,0,4,-2,-1,-1,-1,2021-08-07 10:47:57,099707
-2,-1,-4,-9,-6,-2,-1,-2,2021-08-07 10:47:57,099707
0,1,-1,0,2,2,1,1,2021-08-07 10:47:57,099707
-1,-3,-3,-6,-9,-4,-3,-3,2021-08-07 10:47:57,130707
-1,1,2,3,8,4,1,1,2021-08-07 10:47:57,146671
0,0,0,-2,-6,-1,-1,-2,2021-08-07 10:47:57,146671
-1,0,0,2,3,0,-1,0,2021-08-07 10:47:57,146671
-1,0,2,3,-2,-2,-1,1,2021-08-07 10:47:57,146671
0,-3,-1,-3,-2,1,1,-1,2021-08-07 10:47:57,146671
2,0,1,-1,3,0,1,-1,2021-08-07 10:47:57,146671
0,-1,1,2,-2,0,-1,0,2021-08-07 10:47:57,146671
0,0,-2,-2,-2,-1,-1,-1,2021-08-07 10:47:57,162711
-2,-3,-3,-4,-7,-6,-3,-2,2021-08-07 10:47:57,178706
0,-1,-2,0,1,2,0,-2,2021-08-07 10:47:57,193673
2,1,-1,6,11,4,0,0,2021-08-07 10:47:57,193673
-2,-1,-2,0,1,1,0,-1,2021-08-07 10:47:57,193673
2,0,-1,1,-2,-1,0,0,2021-08-07 10:47:57,193673
-4,-3,-2,-4,-9,-5,-2,-3,2021-08-07 10:47:57,193673
-3,-3,-3,-3,-3,-4,-1,-2,2021-08-07 10:47:57,193673
-1,-2,0,3,4,2,-2,1,2021-08-07 10:47:57,208719
1,1,0,-1,-1,-1,0,0,2021-08-07 10:47:57,224706
-2,-2,-4,-6,-7,-2,-2,1,2021-08-07 10:47:57,240716
-1,1,3,5,4,2,0,-1,2021-08-07 10:47:57,240716
1,0,0,1,2,3,3,0,2021-08-07 10:47:57,240716
-3,-1,-2,-1,-2,0,-1,-3,2021-08-07 10:47:57,240716
-1,-2,-1,-1,2,0,-2,-2,2021-08-07 10:47:57,256672
-2,-1,-1,1,-2,-1,-1,-1,2021-08-07 10:47:57,256672
-2,-2,-3,-3,-2,-2,-1,-2,2021-08-07 10:47:57,256672
-1,1,-2,-5,-2,-2,-2,-2,2021-08-07 10:47:57,256672
2,2,4,7,9,6,3,1,2021-08-07 10:47:57,256672
-2,-3,-6,-8,-9,-3,-1,-2,2021-08-07 10:47:57,256672
-2,-3,-3,-7,-7,-5,-4,-3,2021-08-07 10:47:57,256672
0,-1,-2,-3,-3,-2,0,-3,2021-08-07 10:47:57,256672
0,0,-1,-2,-2,0,-1,-1,2021-08-07 10:47:57,257694
0,2,0,2,5,0,1,0,2021-08-07 10:47:57,257694
1,1,0,3,0,-1,1,0,2021-08-07 10:47:57,272719
-1,-2,-1,-1,0,-1,-1,-1,2021-08-07 10:47:57,272719
-2,-3,-1,-2,-4,-4,-2,-1,2021-08-07 10:47:57,288705
0,1,0,-6,-6,-1,-3,-1,2021-08-07 10:47:57,288705
-1,-2,-4,-9,-8,-4,-1,-1,2021-08-07 10:47:57,304720
0,1,3,10,11,4,0,-2,2021-08-07 10:47:57,320719
-1,-1,-4,-2,1,-1,-2,0,2021-08-07 10:47:57,336719
-1,0,0,-2,0,0,-1,0,2021-08-07 10:47:57,336719
-1,0,-2,-3,-6,-5,-3,-2,2021-08-07 10:47:57,336719
0,-1,0,-3,-1,-1,-1,-1,2021-08-07 10:47:57,336719
-2,-1,-2,-3,-2,0,0,-3,2021-08-07 10:47:57,336719
-2,-4,-3,-5,-6,-4,-2,-3,2021-08-07 10:47:57,336719
0,-1,0,1,1,-1,0,1,2021-08-07 10:47:57,336719
-1,-2,-4,-2,-6,-1,-1,-2,2021-08-07 10:47:57,336719
1,2,1,4,5,-1,-1,0,2021-08-07 10:47:57,336719
-2,-3,-3,0,-1,0,-1,0,2021-08-07 10:47:57,336719
0,0,2,1,0,0,0,-2,2021-08-07 10:47:57,368674
-1,-1,-2,3,4,0,0,0,2021-08-07 10:47:57,368674
1,-2,-2,-5,-7,-5,-2,0,2021-08-07 10:47:57,368674
-2,-3,-3,-9,-8,-4,-3,-2,2021-08-07 10:47:57,368674
-3,-1,4,15,12,6,1,-1,2021-08-07 10:47:57,399672
0,-1,-2,-1,-1,-2,0,0,2021-08-07 10:47:57,399672
-1,1,3,0,1,0,0,1,2021-08-07 10:47:57,399672
-2,-2,0,1,-1,-2,-2,-1,2021-08-07 10:47:57,399672
-1,-3,-5,-9,-10,-5,-2,-1,2021-08-07 10:47:57,415671
1,2,1,2,8,5,1,1,2021-08-07 10:47:57,415671
1,0,0,2,1,0,0,0,2021-08-07 10:47:57,415671
0,-1,-1,-2,1,-1,-1,0,2021-08-07 10:47:57,415671
-1,-3,-3,-2,-1,-2,-3,-4,2021-08-07 10:47:57,415671
-3,-3,-5,-7,-11,-6,-2,-4,2021-08-07 10:47:57,415671
1,1,2,4,4,4,4,2,2021-08-07 10:47:57,431721
1,1,3,8,6,2,0,1,2021-08-07 10:47:57,447673
-2,-4,-5,-9,-7,-3,0,-1,2021-08-07 10:47:57,447673
2,1,2,8,7,2,1,0,2021-08-07 10:47:57,447673
-3,-2,0,2,-2,-1,-2,-3,2021-08-07 10:47:57,447673
-2,-1,-1,-1,-3,-2,1,-2,2021-08-07 10:47:57,447673
-1,-1,1,-3,-1,0,-3,0,2021-08-07 10:47:57,447673
-2,-3,-1,-3,-5,-3,-1,1,2021-08-07 10:47:57,448706
-2,-3,-3,-4,-2,-2,-2,-3,2021-08-07 10:47:57,463710
2,2,2,5,5,2,1,1,2021-08-07 10:47:57,463710
2,1,0,0,2,-1,-1,0,2021-08-07 10:47:57,479720
-2,0,-2,-3,-3,-1,-1,-2,2021-08-07 10:47:57,495721
-2,-2,-1,-2,-3,-2,-3,-2,2021-08-07 10:47:57,527672
-4,-2,0,-4,-4,-3,-2,0,2021-08-07 10:47:57,542720
-1,-1,-1,0,0,-1,-1,1,2021-08-07 10:47:57,558719
2,0,-1,-3,-4,-2,0,-1,2021-08-07 10:47:57,574708
-2,-2,-1,-1,-2,-2,-2,-3,2021-08-07 10:47:57,574708
-1,-3,-4,-4,-6,-3,-2,-3,2021-08-07 10:47:57,574708
-1,0,1,0,3,2,1,-1,2021-08-07 10:47:57,574708
-2,-1,-1,0,-1,-1,-3,-1,2021-08-07 10:47:57,574708
1,2,2,4,6,4,2,2,2021-08-07 10:47:57,574708
-1,0,-1,-3,-5,-2,0,-2,2021-08-07 10:47:57,574708
1,-3,-1,-5,-2,-1,1,-1,2021-08-07 10:47:57,574708
-2,0,-2,-3,2,0,-1,-2,2021-08-07 10:47:57,574708
0,0,-3,-3,-3,-3,-1,-1,2021-08-07 10:47:57,574708
0,0,-1,3,2,1,0,0,2021-08-07 10:47:57,574708
-1,1,0,-1,-3,-3,-1,1,2021-08-07 10:47:57,575705
-2,-4,-1,-6,-7,-4,-2,-2,2021-08-07 10:47:57,575705
-2,-1,-1,1,4,1,1,-1,2021-08-07 10:47:57,575705
-1,0,-1,-1,2,0,-1,-2,2021-08-07 10:47:57,575705
-2,-1,-2,-1,-3,-2,-2,-2,2021-08-07 10:47:57,590671
2,0,1,4,1,1,1,1,2021-08-07 10:47:57,590671
-3,-3,-3,-4,-5,-3,-3,0,2021-08-07 10:47:57,590671
1,-1,1,-3,-3,-2,0,0,2021-08-07 10:47:57,590671
-2,-2,-3,0,-1,-1,0,-3,2021-08-07 10:47:57,606720
1,4,5,8,11,5,2,0,2021-08-07 10:47:57,622695
0,-3,-2,-5,-4,-2,-1,-2,2021-08-07 10:47:57,622695
1,2,-2,-1,0,-1,-1,-2,2021-08-07 10:47:57,622695
-1,1,1,3,-2,-1,-1,-1,2021-08-07 10:47:57,622695
-2,-2,-1,-3,-2,-2,-2,-1,2021-08-07 10:47:57,622695
-1,-3,-3,-1,-4,-3,-1,-2,2021-08-07 10:47:57,622695
-1,-1,0,1,1,2,1,-1,2021-08-07 10:47:57,622695
0,-1,-3,-2,-3,-2,0,0,2021-08-07 10:47:57,653706
1,1,1,3,5,4,1,1,2021-08-07 10:47:57,653706
0,1,1,0,0,-1,-1,-1,2021-08-07 10:47:57,653706
-2,0,-2,-1,-1,-1,-1,-2,2021-08-07 10:47:57,653706
-1,-1,0,0,1,-2,-1,0,2021-08-07 10:47:57,653706
-3,-2,-2,-6,-7,-3,-4,0,2021-08-07 10:47:57,653706
-1,-1,0,2,4,2,-1,1,2021-08-07 10:47:57,685706
1,0,2,2,2,1,-2,0,2021-08-07 10:47:57,685706
0,0,0,2,0,1,0,-1,2021-08-07 10:47:57,685706
0,-1,-3,-5,-4,-3,0,-1,2021-08-07 10:47:57,685706
-1,0,-1,-5,-5,-2,-2,-1,2021-08-07 10:47:57,685706
-1,-1,-2,-3,1,1,0,1,2021-08-07 10:47:57,685706
1,0,2,5,9,4,1,2,2021-08-07 10:47:57,716713
-1,-1,-3,-2,-3,-3,-3,-2,2021-08-07 10:47:57,732720
-2,0,-2,-1,-2,-2,-3,-1,2021-08-07 10:47:57,748720
-2,-1,-2,-7,-6,-3,-2,-2,2021-08-07 10:47:57,748720
-3,-2,-1,-3,-2,-1,0,-1,2021-08-07 10:47:57,748720
0,2,0,1,5,3,4,2,2021-08-07 10:47:57,748720
1,-3,-2,0,-1,-1,2,0,2021-08-07 10:47:57,748720
1,0,-1,-3,-2,-2,-1,1,2021-08-07 10:47:57,748720
0,-3,-4,-5,-6,-1,-2,-2,2021-08-07 10:47:57,748720
-2,-2,1,8,8,2,-1,-2,2021-08-07 10:47:57,748720
-4,-2,0,0,-1,1,-2,-4,2021-08-07 10:47:57,749706
-3,-1,1,3,1,-1,-2,-1,2021-08-07 10:47:57,749706
1,1,0,2,0,-1,-2,-3,2021-08-07 10:47:57,763706
-1,-1,-5,-8,-10,-4,-4,-1,2021-08-07 10:47:57,779724
0,1,-2,2,4,1,2,2,2021-08-07 10:47:57,779724
1,-1,0,2,1,1,1,1,2021-08-07 10:47:57,779724
0,-1,0,-2,1,0,-1,-1,2021-08-07 10:47:57,779724
-1,-2,-1,0,-2,-2,0,-1,2021-08-07 10:47:57,779724
-1,0,-2,-4,-3,-2,0,-2,2021-08-07 10:47:57,779724
-1,-1,-1,-2,-2,-1,0,0,2021-08-07 10:47:57,779724
-1,1,1,-2,-3,0,2,0,2021-08-07 10:47:57,811706
-2,-1,0,0,2,2,-1,-2,2021-08-07 10:47:57,827672
-1,-3,-1,-2,-2,-1,-2,-2,2021-08-07 10:47:57,827672
-1,-1,-1,4,3,1,0,0,2021-08-07 10:47:57,827672
-2,-1,-2,-3,-5,-4,-2,-2,2021-08-07 10:47:57,827672
1,0,-1,0,3,0,1,0,2021-08-07 10:47:57,827672
0,0,0,-2,-1,1,-1,-1,2021-08-07 10:47:57,827672
-2,-2,-2,0,-2,-2,-2,-1,2021-08-07 10:47:57,827672
-1,-1,-1,-3,-1,1,-1,0,2021-08-07 10:47:57,842725
-3,-3,-3,-8,-11,-7,-3,-2,2021-08-07 10:47:57,842725
1,1,6,17,17,7,4,2,2021-08-07 10:47:57,842725
-1,-1,-1,-1,-3,-1,0,-1,2021-08-07 10:47:57,842725
-2,-1,-2,-4,-6,-4,-1,1,2021-08-07 10:47:57,873709
-1,0,1,3,5,0,-1,1,2021-08-07 10:47:57,873709
-3,-1,-3,-4,-3,-3,-2,0,2021-08-07 10:47:57,873709
0,-1,-2,-2,-2,0,-2,0,2021-08-07 10:47:57,873709
0,1,1,3,4,1,0,1,2021-08-07 10:47:57,889672
0,-1,-2,-4,-6,-3,-1,0,2021-08-07 10:47:57,905719
-3,-3,-5,-7,-7,-6,-2,-3,2021-08-07 10:47:57,905719
2,3,5,5,7,3,3,2,2021-08-07 10:47:57,905719
-2,-2,-3,-1,0,0,-2,-3,2021-08-07 10:47:57,905719
-1,-1,0,1,1,1,1,0,2021-08-07 10:47:57,905719
-1,-1,-3,-5,-4,-2,-1,1,2021-08-07 10:47:57,905719
-2,-2,-1,-2,-5,-2,-1,-1,2021-08-07 10:47:57,905719
0,0,2,3,6,5,-1,1,2021-08-07 10:47:57,921706
-1,-3,1,1,-1,1,-1,-3,2021-08-07 10:47:57,921706
-1,0,0,-4,-4,-2,0,-1,2021-08-07 10:47:57,921706
-1,-1,-4,-3,-3,-1,-1,-1,2021-08-07 10:47:57,921706
-2,-2,0,-3,-3,-2,-2,-2,2021-08-07 10:47:57,953705
0,0,0,4,2,0,0,1,2021-08-07 10:47:57,953705
-1,-2,-4,-7,-11,-4,-3,-1,2021-08-07 10:47:57,953705
-2,0,-3,-8,3,0,-1,-1,2021-08-07 10:47:57,953705
0,-1,2,10,5,2,2,1,2021-08-07 10:47:57,953705
-1,-1,-3,-4,-4,-3,-1,-1,2021-08-07 10:47:57,953705
-2,-1,1,3,0,1,-1,-1,2021-08-07 10:47:57,969697
-3,-4,-5,-8,-10,-6,-3,-3,2021-08-07 10:47:57,985705
0,0,0,2,3,2,2,0,2021-08-07 10:47:57,985705
1,0,-1,0,1,0,1,0,2021-08-07 10:47:57,985705
0,-1,0,-1,0,-1,0,-1,2021-08-07 10:47:57,985705
-1,1,3,6,2,0,-1,-1,2021-08-07 10:47:57,985705
0,-1,-2,-3,1,-1,-1,-2,2021-08-07 10:47:58,016715
-2,-1,-2,-3,-4,-1,-3,-4,2021-08-07 10:47:58,032720
0,1,-1,3,2,1,0,0,2021-08-07 10:47:58,048720
-1,-1,-2,0,0,-2,-1,-2,2021-08-07 10:47:58,048720
-2,-1,-2,-3,0,0,-1,-2,2021-08-07 10:47:58,048720
-2,0,0,-3,-4,-2,0,0,2021-08-07 10:47:58,048720
0,-1,1,4,3,0,0,-2,2021-08-07 10:47:58,048720
1,0,-1,1,3,3,1,1,2021-08-07 10:47:58,048720
0,0,-2,-1,-6,-3,-2,0,2021-08-07 10:47:58,048720
-1,-2,0,-1,-1,-1,-2,-1,2021-08-07 10:47:58,049706
-1,-2,-2,-5,-4,-2,-2,-1,2021-08-07 10:47:58,049706
-1,-2,-2,-4,-8,-4,-1,-2,2021-08-07 10:47:58,049706
-4,-4,-4,-9,-4,-1,-2,-2,2021-08-07 10:47:58,064672
1,2,2,7,3,2,2,1,2021-08-07 10:47:58,064672
1,-1,0,3,1,-1,-1,-2,2021-08-07 10:47:58,064672
-1,-1,-1,1,2,2,-1,1,2021-08-07 10:47:58,064672
-1,-1,-3,-6,-8,-5,-4,-2,2021-08-07 10:47:58,080720
0,0,-2,-3,-4,-2,-3,-3,2021-08-07 10:47:58,095720
0,-2,-1,-1,0,0,0,-1,2021-08-07 10:47:58,109720
-1,-2,-1,-1,-3,-1,0,-1,2021-08-07 10:47:58,109720
-1,1,-1,1,1,-1,0,0,2021-08-07 10:47:58,109720
-1,-2,-1,-2,-3,-2,-3,-2,2021-08-07 10:47:58,109720
-2,-1,-2,-3,-7,0,-1,-3,2021-08-07 10:47:58,109720
2,1,1,5,10,5,1,0,2021-08-07 10:47:58,110707
3,1,3,6,4,0,1,1,2021-08-07 10:47:58,127672
-2,-1,-1,0,2,0,0,-1,2021-08-07 10:47:58,127672
-1,-2,-3,-6,-8,-4,-3,-1,2021-08-07 10:47:58,127672
0,-1,0,1,0,-3,-2,-1,2021-08-07 10:47:58,127672
-1,0,-2,-3,0,-2,-1,-1,2021-08-07 10:47:58,142719
-2,-2,-2,-3,-5,-1,-1,-1,2021-08-07 10:47:58,158719
0,1,0,0,2,1,-2,0,2021-08-07 10:47:58,189674
-2,0,0,0,1,3,0,0,2021-08-07 10:47:58,205720
-1,1,0,6,1,0,-1,-2,2021-08-07 10:47:58,221719
-3,-5,-4,-7,-9,-5,-3,-1,2021-08-07 10:47:58,237672
0,-1,-1,1,7,2,0,0,2021-08-07 10:47:58,253708
0,1,1,3,0,-1,-1,-1,2021-08-07 10:47:58,253708
-1,-1,-1,-1,-2,-2,-1,-1,2021-08-07 10:47:58,253708
-3,-2,-1,-2,0,0,-1,-1,2021-08-07 10:47:58,253708
-2,-1,-2,-4,-4,-3,-2,-1,2021-08-07 10:47:58,253708
0,0,0,0,0,-2,-1,-2,2021-08-07 10:47:58,253708
-1,-1,-1,1,0,1,0,1,2021-08-07 10:47:58,253708
0,-2,-3,-3,-1,0,0,-1,2021-08-07 10:47:58,253708
-1,-2,-1,-5,-4,-2,-2,0,2021-08-07 10:47:58,254707
-1,-2,1,2,-2,-1,-2,-1,2021-08-07 10:47:58,254707
2,1,3,6,9,6,3,1,2021-08-07 10:47:58,254707
-1,-2,-2,1,1,2,-2,-1,2021-08-07 10:47:58,254707
0,1,1,2,2,-1,0,-1,2021-08-07 10:47:58,254707
-3,-2,-1,-4,-5,-3,0,0,2021-08-07 10:47:58,254707
-2,-2,-3,-5,-4,-4,-2,-4,2021-08-07 10:47:58,254707
0,0,0,-1,0,-3,-2,0,2021-08-07 10:47:58,254707
-2,0,0,2,2,0,-1,-2,2021-08-07 10:47:58,255708
-2,-2,-2,-2,-4,-3,-2,-1,2021-08-07 10:47:58,255708
-2,0,-1,-1,-4,-2,-1,-1,2021-08-07 10:47:58,255708
0,-1,-1,-1,2,-1,0,1,2021-08-07 10:47:58,255708
-1,-1,-2,0,-2,-2,-1,0,2021-08-07 10:47:58,269720
-2,-2,-2,2,3,0,-1,-1,2021-08-07 10:47:58,269720
0,-1,0,1,0,1,-1,0,2021-08-07 10:47:58,285708
3,2,4,7,6,4,3,0,2021-08-07 10:47:58,301669
-3,-4,-4,-5,-3,-2,1,1,2021-08-07 10:47:58,301669
-3,-4,-7,-12,-11,-7,-3,-3,2021-08-07 10:47:58,301669
0,-1,0,-3,-2,0,-1,-1,2021-08-07 10:47:58,301669
-1,-1,-2,-4,0,1,-1,-1,2021-08-07 10:47:58,301669
1,1,3,4,4,5,2,1,2021-08-07 10:47:58,301669
-2,-1,-2,-2,-4,-1,1,-1,2021-08-07 10:47:58,301669
-2,-2,-1,-2,-4,-3,-1,0,2021-08-07 10:47:58,317720
0,1,1,4,2,-1,1,-3,2021-08-07 10:47:58,333672
0,1,0,3,2,1,1,-1,2021-08-07 10:47:58,333672
0,1,0,1,1,0,-1,-1,2021-08-07 10:47:58,333672
-1,-3,-3,-6,-3,-1,-2,0,2021-08-07 10:47:58,333672
0,1,0,3,4,2,2,2,2021-08-07 10:47:58,333672
0,-1,-1,-1,-4,-5,-3,-1,2021-08-07 10:47:58,349708
-1,-1,-2,-8,-6,-3,0,-2,2021-08-07 10:47:58,349708
1,1,4,16,18,8,2,2,2021-08-07 10:47:58,365706
-2,-2,-5,-6,-6,-2,-1,-1,2021-08-07 10:47:58,365706
0,-2,-2,-2,-2,-3,-2,-2,2021-08-07 10:47:58,365706
0,0,1,-1,-4,-3,-2,-1,2021-08-07 10:47:58,365706
-1,-2,-4,-7,-9,-4,-2,-3,2021-08-07 10:47:58,381708
-1,-2,-2,-2,-2,-2,-3,-1,2021-08-07 10:47:58,381708
-2,-1,-2,-2,-4,-3,0,0,2021-08-07 10:47:58,381708
1,-1,1,4,4,2,0,0,2021-08-07 10:47:58,381708
-1,-1,-1,-3,-3,0,0,0,2021-08-07 10:47:58,413713
0,-1,-1,-1,-1,-1,-1,-2,2021-08-07 10:47:58,413713
-1,0,-2,-1,-2,-1,-2,-2,2021-08-07 10:47:58,413713
-1,-1,-1,-2,-1,0,-2,-1,2021-08-07 10:47:58,413713
-1,0,-2,0,3,3,0,1,2021-08-07 10:47:58,429720
-2,-1,-2,-4,-8,-5,-4,0,2021-08-07 10:47:58,461709
-1,-2,0,-2,-4,-1,-2,-1,2021-08-07 10:47:58,465719
1,1,2,11,16,6,1,1,2021-08-07 10:47:58,465719
-1,-2,-1,-1,-5,-4,-2,-1,2021-08-07 10:47:58,465719
-3,-2,-2,0,-1,-2,0,-1,2021-08-07 10:47:58,465719
-1,-2,-1,-4,-3,-2,-1,-1,2021-08-07 10:47:58,465719
-1,-1,-2,-3,-2,-1,-2,1,2021-08-07 10:47:58,465719
-1,-1,-1,-5,-8,-4,0,-1,2021-08-07 10:47:58,465719
-1,-3,-2,-1,1,0,-3,-2,2021-08-07 10:47:58,465719
-3,1,-1,1,3,0,0,-1,2021-08-07 10:47:58,465719
-2,0,1,1,0,-1,0,-2,2021-08-07 10:47:58,466729
-1,-1,-2,-4,-7,-5,-2,-1,2021-08-07 10:47:58,493672
-3,-1,-3,0,4,0,1,-1,2021-08-07 10:47:58,493672
2,2,2,2,-1,0,-1,1,2021-08-07 10:47:58,493672
0,0,0,1,3,0,0,0,2021-08-07 10:47:58,493672
-2,0,-2,-4,-4,-2,-2,-1,2021-08-07 10:47:58,508720
-1,-2,-4,-11,-13,-6,-3,-1,2021-08-07 10:47:58,508720
1,1,2,9,15,5,3,2,2021-08-07 10:47:58,508720
0,0,-1,4,1,2,-1,0,2021-08-07 10:47:58,508720
-2,-3,-1,-3,-2,-2,-1,-2,2021-08-07 10:47:58,524706
-1,-1,-1,-3,-7,-4,-3,-3,2021-08-07 10:47:58,524706
0,-1,-3,-3,-2,-1,-2,-2,2021-08-07 10:47:58,524706
0,0,-2,-1,-6,-3,-1,0,2021-08-07 10:47:58,524706
-1,0,-1,-1,1,0,-1,-1,2021-08-07 10:47:58,555708
1,0,0,1,2,2,1,1,2021-08-07 10:47:58,555708
0,-2,-3,-4,-5,-3,0,1,2021-08-07 10:47:58,555708
-1,-4,-3,-4,1,2,1,-2,2021-08-07 10:47:58,555708
-3,-2,0,2,2,0,-1,-2,2021-08-07 10:47:58,571720
-2,-3,0,2,1,-1,-3,-5,2021-08-07 10:47:58,587722
-4,-1,-1,-4,-2,-3,-4,-2,2021-08-07 10:47:58,587722
-1,1,3,2,0,-3,-2,-2,2021-08-07 10:47:58,587722
-1,-2,-1,-2,-3,-3,-1,-1,2021-08-07 10:47:58,587722
2,0,0,-3,-2,-2,-1,1,2021-08-07 10:47:58,587722
2,0,0,3,5,3,2,1,2021-08-07 10:47:58,587722
-1,-3,-3,-8,-10,-4,-2,-1,2021-08-07 10:47:58,587722
0,0,-1,2,3,1,2,2,2021-08-07 10:47:58,603723
-1,-1,1,9,11,6,1,-1,2021-08-07 10:47:58,618674
-1,-3,-2,-4,-3,-3,-2,-1,2021-08-07 10:47:58,634669
-2,-1,0,0,2,1,1,-1,2021-08-07 10:47:58,634669
-1,-2,-4,-8,-6,-4,-2,-2,2021-08-07 10:47:58,634669
-1,-2,-2,0,-3,-1,-1,-2,2021-08-07 10:47:58,634669
-1,-1,0,1,1,-1,-1,-1,2021-08-07 10:47:58,634669
0,-2,0,0,0,1,0,-1,2021-08-07 10:47:58,634669
-1,0,-1,-4,-5,-2,-2,-3,2021-08-07 10:47:58,634669
0,0,-1,-4,-6,-3,-1,1,2021-08-07 10:47:58,635672
-2,0,-1,4,6,3,0,-1,2021-08-07 10:47:58,650672
-1,-1,-2,-3,-3,-2,-1,-1,2021-08-07 10:47:58,666721
-1,0,1,4,3,2,0,-1,2021-08-07 10:47:58,682671
-1,-1,-1,-1,-2,-3,-2,-3,2021-08-07 10:47:58,698669
-1,0,0,0,1,1,-2,0,2021-08-07 10:47:58,698669
1,1,-1,-3,-1,0,1,0,2021-08-07 10:47:58,698669
0,0,1,5,3,1,0,1,2021-08-07 10:47:58,698669
-1,0,1,-1,1,0,-1,0,2021-08-07 10:47:58,698669
-1,-3,-3,-7,-7,-5,-3,0,2021-08-07 10:47:58,698669
-3,-3,-2,-4,-5,-5,-3,-2,2021-08-07 10:47:58,698669
-2,-2,-2,-5,1,0,-1,-1,2021-08-07 10:47:58,698669
-1,0,2,5,3,1,1,0,2021-08-07 10:47:58,714672
0,1,2,4,-1,0,3,0,2021-08-07 10:47:58,714672
0,-1,-2,0,-3,-2,-2,-1,2021-08-07 10:47:58,714672
-2,-2,-2,-2,-4,-3,-2,-2,2021-08-07 10:47:58,730720
-1,-2,-5,-8,-10,-5,-2,-3,2021-08-07 10:47:58,746720
-1,-1,0,-1,2,1,-1,0,2021-08-07 10:47:58,762671
0,1,0,0,-2,-1,-1,0,2021-08-07 10:47:58,762671
-1,-2,0,0,0,-1,-2,0,2021-08-07 10:47:58,762671
0,0,0,2,3,1,-1,1,2021-08-07 10:47:58,762671
-1,-1,-1,-4,-5,-3,-3,-3,2021-08-07 10:47:58,762671
-2,-2,-2,-1,2,-1,-1,0,2021-08-07 10:47:58,762671
-1,0,-2,-2,-2,1,0,-1,2021-08-07 10:47:58,762671
0,-1,2,-1,2,2,0,-1,2021-08-07 10:47:58,763707
-1,-1,-1,0,-3,-2,0,0,2021-08-07 10:47:58,763707
0,-1,0,1,0,-1,-1,0,2021-08-07 10:47:58,763707
-1,-2,-2,-1,0,-1,-2,-1,2021-08-07 10:47:58,794719
-2,-1,-3,-5,-3,-1,-1,0,2021-08-07 10:47:58,810672
-1,-2,-2,-1,-3,-3,-1,-2,2021-08-07 10:47:58,821064
-1,1,0,0,2,2,2,0,2021-08-07 10:47:58,821064
-1,1,-1,2,1,0,0,1,2021-08-07 10:47:58,821064
-1,-1,-1,2,0,-1,1,-1,2021-08-07 10:47:58,821064
-2,-3,-2,-7,-10,-5,-4,0,2021-08-07 10:47:58,821064
0,1,0,7,14,6,1,-1,2021-08-07 10:47:58,821064
0,0,0,0,-4,-1,0,0,2021-08-07 10:47:58,821064
-2,-1,-1,1,-1,0,-1,-1,2021-08-07 10:47:58,822101
-1,-1,0,1,1,0,-1,-2,2021-08-07 10:47:58,822101
-3,-3,1,-3,-7,-2,-2,-1,2021-08-07 10:47:58,822101
1,0,0,1,2,1,0,1,2021-08-07 10:47:58,841104
0,0,-1,0,-3,-4,-3,-1,2021-08-07 10:47:58,857111
0,-2,-3,-3,-1,0,2,0,2021-08-07 10:47:58,873063
-1,0,-1,-6,-6,-3,-3,-1,2021-08-07 10:47:58,873063
1,0,4,10,11,4,3,1,2021-08-07 10:47:58,873063
0,0,2,-1,-4,0,-1,-3,2021-08-07 10:47:58,873063
-1,0,-3,0,0,-1,-1,0,2021-08-07 10:47:58,873063
-1,-1,-1,-5,-3,-1,1,0,2021-08-07 10:47:58,873063
-1,-1,-1,-2,-4,-3,-2,-2,2021-08-07 10:47:58,889099
0,-1,-3,-3,-2,-1,-2,1,2021-08-07 10:47:58,905062
-1,-2,0,0,0,-2,-3,-3,2021-08-07 10:47:58,921071
-2,-2,-1,4,1,0,-2,-1,2021-08-07 10:47:58,921071
0,-2,0,-1,-1,-1,1,-1,2021-08-07 10:47:58,921071
2,2,4,6,10,4,4,-1,2021-08-07 10:47:58,921071
0,-2,-1,-6,-6,-3,-1,-2,2021-08-07 10:47:58,921071
1,-2,-2,0,-2,-3,0,-1,2021-08-07 10:47:58,921071
-3,-2,-2,-4,-4,-2,-1,-3,2021-08-07 10:47:58,921071
-1,-3,-1,-3,-1,0,0,-2,2021-08-07 10:47:58,921071
1,-1,0,1,1,1,0,0,2021-08-07 10:47:58,922103
0,-1,0,-2,-2,-2,-4,-2,2021-08-07 10:47:58,922103
0,0,-3,-3,-1,-1,0,0,2021-08-07 10:47:58,953099
0,0,-2,-2,-3,-2,0,2,2021-08-07 10:47:58,953099
2,1,2,5,6,1,0,0,2021-08-07 10:47:58,969062
0,-3,-1,1,-5,-2,-2,-2,2021-08-07 10:47:58,969062
-2,-4,-4,-9,-9,-5,-3,-4,2021-08-07 10:47:58,969062
-1,0,2,9,12,4,0,0,2021-08-07 10:47:58,969062
-1,1,0,0,0,0,-1,0,2021-08-07 10:47:58,969062
-2,1,0,1,-1,0,-2,-1,2021-08-07 10:47:58,969062
-1,0,0,-2,-3,-2,-1,0,2021-08-07 10:47:58,985060
-3,-3,-5,-5,-7,-4,-3,-3,2021-08-07 10:47:58,985060
-1,1,1,1,5,2,0,-1,2021-08-07 10:47:58,985060
0,1,-1,-1,2,1,0,-1,2021-08-07 10:47:58,985060
-2,0,-5,-7,-6,-3,-3,-1,2021-08-07 10:47:59,001063
-1,-1,-1,0,-1,1,0,0,2021-08-07 10:47:59,001063
-2,-1,-2,1,-1,-3,-3,0,2021-08-07 10:47:59,001063
-3,-1,-2,-3,-4,-2,-1,-1,2021-08-07 10:47:59,001063
0,-2,-1,1,0,-1,-1,-1,2021-08-07 10:47:59,017062
1,0,0,2,6,1,1,2,2021-08-07 10:47:59,017062
-1,-2,-2,-6,-8,-4,-2,-2,2021-08-07 10:47:59,033099
-2,0,-1,1,2,1,1,0,2021-08-07 10:47:59,049060
2,-1,3,1,-2,-1,-1,-1,2021-08-07 10:47:59,049060
-2,0,-2,-3,-4,-3,-1,-1,2021-08-07 10:47:59,049060
-1,1,-2,4,8,3,0,-2,2021-08-07 10:47:59,049060
0,0,0,-2,-1,1,1,0,2021-08-07 10:47:59,049060
-1,-1,-3,1,-2,-1,1,-1,2021-08-07 10:47:59,080098
0,-1,-1,0,0,-1,-1,0,2021-08-07 10:47:59,080098
-2,-2,-2,-4,-5,-3,-2,-1,2021-08-07 10:47:59,080098
-1,-1,0,1,2,0,0,0,2021-08-07 10:47:59,080098
-2,-2,0,1,-1,-1,1,-1,2021-08-07 10:47:59,080098
-1,-2,-2,-7,-8,-2,-3,-1,2021-08-07 10:47:59,080098
-3,-1,1,0,4,2,1,1,2021-08-07 10:47:59,096061
1,0,2,5,3,1,0,-2,2021-08-07 10:47:59,112099
0,1,-1,-2,0,1,-3,-1,2021-08-07 10:47:59,112099
-2,-2,-2,-2,-1,-2,-3,-2,2021-08-07 10:47:59,112099
0,2,-1,0,-2,-2,0,1,2021-08-07 10:47:59,112099
-1,-1,-2,-5,-4,-3,0,-2,2021-08-07 10:47:59,112099
-1,-1,-1,0,2,-2,0,-1,2021-08-07 10:47:59,128061
-1,1,0,-4,-2,-1,0,-1,2021-08-07 10:47:59,128061
-2,-3,-2,3,-1,0,-2,-2,2021-08-07 10:47:59,128061
-2,0,0,0,0,1,-1,0,2021-08-07 10:47:59,128061
-1,-1,1,-1,-2,-2,-2,-1,2021-08-07 10:47:59,160064
-2,-2,-5,-8,-7,-3,-1,-3,2021-08-07 10:47:59,160064
1,-2,0,0,-1,0,1,-2,2021-08-07 10:47:59,160064
-1,-1,0,7,11,3,1,1,2021-08-07 10:47:59,160064
-1,0,-1,-4,-2,-1,-1,0,2021-08-07 10:47:59,160064
0,0,1,5,1,2,0,1,2021-08-07 10:47:59,160064
-2,0,-2,-6,-7,-4,-1,-2,2021-08-07 10:47:59,161062
-2,-2,-1,0,-2,-2,-1,-2,2021-08-07 10:47:59,161062
-2,1,0,4,7,4,0,0,2021-08-07 10:47:59,190082
1,-1,0,-1,-1,0,0,0,2021-08-07 10:47:59,190082
0,-1,-2,-2,-2,-2,0,0,2021-08-07 10:47:59,190082
0,-3,-1,-5,-5,-4,-1,0,2021-08-07 10:47:59,190082
-2,-2,0,-1,-1,0,0,-3,2021-08-07 10:47:59,207064
-2,-1,0,3,0,0,0,-2,2021-08-07 10:47:59,207064
-1,-2,-2,-4,-4,-1,-2,0,2021-08-07 10:47:59,207064
0,0,-1,1,5,3,0,-1,2021-08-07 10:47:59,207064
0,-1,0,-1,-3,-1,0,-2,2021-08-07 10:47:59,222098
-1,0,-1,0,0,-2,-2,0,2021-08-07 10:47:59,222098
0,-1,0,-4,-3,-2,-2,-1,2021-08-07 10:47:59,238098
1,-1,-1,0,0,-1,-1,-2,2021-08-07 10:47:59,238098
0,0,-2,0,0,-1,-1,-2,2021-08-07 10:47:59,238098
-1,-3,-3,0,-1,-2,-3,-2,2021-08-07 10:47:59,238098
-1,-2,-2,-6,-5,-1,-1,-1,2021-08-07 10:47:59,254112
-1,0,0,-1,-5,-2,-2,0,2021-08-07 10:47:59,270064
0,-1,-2,1,2,2,1,1,2021-08-07 10:47:59,286099
-3,-1,1,0,-3,-2,-1,-2,2021-08-07 10:47:59,286099
0,1,-1,2,0,-1,-2,-1,2021-08-07 10:47:59,286099
-1,0,-3,-6,-3,0,-1,-1,2021-08-07 10:47:59,286099
1,2,4,7,1,0,0,2,2021-08-07 10:47:59,286099
0,-1,-2,-8,-2,2,-1,0,2021-08-07 10:47:59,286099
0,-1,0,6,5,4,0,-1,2021-08-07 10:47:59,286099
-1,-1,1,0,-5,-3,0,-2,2021-08-07 10:47:59,286099
-3,-1,-2,-3,-4,-2,-1,-2,2021-08-07 10:47:59,302064
-1,-1,0,-1,-3,-1,0,0,2021-08-07 10:47:59,302064
2,1,2,1,4,1,0,0,2021-08-07 10:47:59,302064
-2,-1,-2,-1,-3,-2,-2,-1,2021-08-07 10:47:59,302064
-1,-2,-1,-1,-1,-1,-1,1,2021-08-07 10:47:59,318060
0,-1,1,-1,-1,-3,-3,-2,2021-08-07 10:47:59,318060
-3,-2,-4,-12,-12,-4,-3,0,2021-08-07 10:47:59,350105
2,2,3,9,14,5,0,2,2021-08-07 10:47:59,350105
-1,-2,-2,-2,-4,-2,-3,-3,2021-08-07 10:47:59,366099
1,3,3,9,12,6,3,3,2021-08-07 10:47:59,382109
-1,-1,-3,-6,-6,-4,-2,-2,2021-08-07 10:47:59,382109
-2,-3,-4,-5,-7,-3,-1,0,2021-08-07 10:47:59,382109
-1,-1,-4,-6,-1,-2,0,1,2021-08-07 10:47:59,382109
-1,-1,0,3,0,0,0,1,2021-08-07 10:47:59,382109
-4,-2,0,4,5,1,-2,-2,2021-08-07 10:47:59,382109
-3,-2,2,1,-1,-1,-2,-3,2021-08-07 10:47:59,383064
-1,-2,-3,-1,-4,-3,-5,-4,2021-08-07 10:47:59,383064
0,-1,1,-1,0,0,-2,-2,2021-08-07 10:47:59,383064
0,1,-1,3,2,0,1,0,2021-08-07 10:47:59,383064
-1,0,-2,-2,-6,-3,-1,1,2021-08-07 10:47:59,383064
1,0,0,-3,-1,2,1,1,2021-08-07 10:47:59,414111
0,-2,-1,0,2,2,0,-1,2021-08-07 10:47:59,430085
2,-1,-1,1,1,1,0,0,2021-08-07 10:47:59,430085
-1,-1,-3,-4,-4,-3,-2,-2,2021-08-07 10:47:59,430085
-1,-1,-2,-3,-4,-2,-1,-1,2021-08-07 10:47:59,430085
-2,-2,-3,-1,-2,-1,0,-1,2021-08-07 10:47:59,430085
0,0,1,2,1,1,1,0,2021-08-07 10:47:59,430085
-2,-2,0,-3,-4,-3,-3,-1,2021-08-07 10:47:59,430085
-2,1,1,3,4,1,0,2,2021-08-07 10:47:59,446100
-1,-2,-4,-10,-6,-4,-2,-1,2021-08-07 10:47:59,446100
0,1,1,3,3,1,0,1,2021-08-07 10:47:59,446100
1,0,0,3,5,2,0,0,2021-08-07 10:47:59,446100
-2,0,-1,1,2,0,-2,-1,2021-08-07 10:47:59,462103
-2,-3,-3,-3,-4,-3,-3,-2,2021-08-07 10:47:59,462103
-2,-3,-4,-4,-7,-3,-3,-2,2021-08-07 10:47:59,478100
1,0,-2,-3,2,1,1,0,2021-08-07 10:47:59,478100
1,-1,1,7,5,0,0,1,2021-08-07 10:47:59,493102
-1,-1,-1,-1,-3,-3,-2,0,2021-08-07 10:47:59,493102
-2,-1,-1,-3,0,-2,-2,-3,2021-08-07 10:47:59,509087
-3,-4,-6,-9,-9,-5,-3,-2,2021-08-07 10:47:59,509087
0,-1,4,11,10,5,2,-2,2021-08-07 10:47:59,509087
0,1,1,-2,-1,0,1,1,2021-08-07 10:47:59,509087
1,1,-1,2,0,0,1,-1,2021-08-07 10:47:59,509087
-2,-1,-2,-2,-4,-2,-3,-1,2021-08-07 10:47:59,509087
-1,-1,-2,-2,1,-1,-3,-1,2021-08-07 10:47:59,525093
-2,0,-1,-1,-3,-2,-1,-1,2021-08-07 10:47:59,525093
-1,0,1,2,4,0,-1,-1,2021-08-07 10:47:59,541061
-1,1,-1,-3,-4,-3,0,-1,2021-08-07 10:47:59,556146
0,0,0,-1,-1,-1,-1,-2,2021-08-07 10:47:59,556146
-1,-4,-3,-4,-3,-3,-1,-1,2021-08-07 10:47:59,556146
0,0,-1,0,-1,-1,-1,-1,2021-08-07 10:47:59,556146
1,0,1,-1,-2,0,-1,-2,2021-08-07 10:47:59,556146
-1,0,0,-4,0,0,-2,0,2021-08-07 10:47:59,556146
-2,-1,-4,-5,-1,-1,1,0,2021-08-07 10:47:59,557062
-1,0,3,8,6,3,1,0,2021-08-07 10:47:59,572109
-2,-1,-2,-2,-3,-1,-2,-1,2021-08-07 10:47:59,572109
-1,0,0,-1,-1,1,0,1,2021-08-07 10:47:59,587089
-2,1,-1,-4,-5,-3,0,1,2021-08-07 10:47:59,587089
-3,-3,-4,-4,-4,-3,-2,-2,2021-08-07 10:47:59,587089
-1,-2,0,-3,3,0,0,-1,2021-08-07 10:47:59,587089
-1,-2,-2,-3,-6,-2,0,-2,2021-08-07 10:47:59,603100
1,-1,-1,2,6,0,-1,-1,2021-08-07 10:47:59,617065
0,2,2,2,2,2,0,1,2021-08-07 10:47:59,617065
-1,-1,-1,0,-4,-3,-2,0,2021-08-07 10:47:59,617065
-1,-1,-4,-4,1,-1,0,-2,2021-08-07 10:47:59,617065
0,-1,1,3,1,1,-1,-1,2021-08-07 10:47:59,617065
-3,-2,-5,-9,-8,-4,-3,-2,2021-08-07 10:47:59,635102
-1,1,1,5,6,4,2,0,2021-08-07 10:47:59,651099
-1,-1,-2,-3,-6,-4,-2,-1,2021-08-07 10:47:59,651099
-1,-2,0,2,1,1,0,-2,2021-08-07 10:47:59,651099
-1,-3,-1,-6,-5,-3,-1,-2,2021-08-07 10:47:59,651099
-2,0,-2,-1,-2,-3,0,-1,2021-08-07 10:47:59,651099
0,1,2,2,2,2,0,-1,2021-08-07 10:47:59,667102
-1,-2,-1,-3,-4,-3,-2,-1,2021-08-07 10:47:59,667102
0,-2,0,-1,2,0,0,0,2021-08-07 10:47:59,667102
0,-1,-2,-1,3,2,0,0,2021-08-07 10:47:59,667102
-2,0,0,3,-2,-2,-1,-3,2021-08-07 10:47:59,683060
-1,0,-2,-4,-5,-3,-2,-2,2021-08-07 10:47:59,683060
-1,-1,-1,1,0,1,1,0,2021-08-07 10:47:59,683060
-1,-1,0,2,1,-1,-1,-1,2021-08-07 10:47:59,683060
-2,-2,-3,-5,-7,-3,0,0,2021-08-07 10:47:59,714102
2,0,-1,1,2,1,1,0,2021-08-07 10:47:59,730102
-1,0,-2,2,1,2,-1,-1,2021-08-07 10:47:59,746107
2,0,0,0,2,0,0,-2,2021-08-07 10:47:59,746107
-1,-2,-1,-3,-2,-2,-1,-3,2021-08-07 10:47:59,746107
-2,-3,-2,-1,-1,0,-2,-1,2021-08-07 10:47:59,746107
2,-3,1,-2,-2,-2,1,-1,2021-08-07 10:47:59,746107
-1,0,1,1,0,0,0,1,2021-08-07 10:47:59,746107
-2,-1,-2,-10,-6,-4,-2,-1,2021-08-07 10:47:59,746107
0,0,1,5,1,0,-1,-1,2021-08-07 10:47:59,746107
1,2,2,5,9,6,0,0,2021-08-07 10:47:59,747099
0,0,0,0,-2,0,-2,0,2021-08-07 10:47:59,747099
-1,-2,-2,0,-3,-2,-2,1,2021-08-07 10:47:59,762107
-1,-1,-1,-2,-3,-2,-1,0,2021-08-07 10:47:59,778097
-3,-2,-5,-5,-6,-4,-1,-2,2021-08-07 10:47:59,778097
0,-1,-1,0,-2,-2,-1,-2,2021-08-07 10:47:59,778097
1,0,1,3,8,3,0,0,2021-08-07 10:47:59,809100
-1,2,1,4,2,1,1,0,2021-08-07 10:47:59,825099
0,-1,-1,-3,-7,-2,-3,0,2021-08-07 10:47:59,825099
-2,-2,-1,-4,-1,-1,-1,0,2021-08-07 10:47:59,825099
-1,-2,-1,0,-2,-1,0,-1,2021-08-07 10:47:59,856147
-2,-1,-3,0,1,1,-1,-1,2021-08-07 10:47:59,856147
-1,-1,0,-3,0,-3,0,2,2021-08-07 10:47:59,856147
-2,-2,-4,-5,-8,-5,-2,-1,2021-08-07 10:47:59,856147
0,-1,1,1,2,0,-1,0,2021-08-07 10:47:59,856147
0,-1,0,-3,1,-1,-1,-2,2021-08-07 10:47:59,856147
-1,0,-2,-6,-6,-1,-2,0,2021-08-07 10:47:59,857100
-1,0,0,2,0,1,0,-1,2021-08-07 10:47:59,857100
0,-2,-1,1,1,0,0,-1,2021-08-07 10:47:59,857100
-2,-2,-3,-8,-8,-7,-3,-3,2021-08-07 10:47:59,872101
0,1,-2,0,5,3,1,-1,2021-08-07 10:47:59,872101
1,1,5,5,3,3,-1,1,2021-08-07 10:47:59,872101
-1,0,-1,1,-1,1,-1,-1,2021-08-07 10:47:59,872101
-1,-2,-1,-2,-2,0,-3,-3,2021-08-07 10:47:59,872101
-1,-1,0,-1,-2,-2,0,-4,2021-08-07 10:47:59,872101
-2,-1,-3,-3,-2,-1,-2,-1,2021-08-07 10:47:59,872101
-1,-2,-3,-2,-5,-3,1,0,2021-08-07 10:47:59,888101
-1,0,2,3,9,3,2,1,2021-08-07 10:47:59,888101
0,0,0,5,4,1,-1,0,2021-08-07 10:47:59,888101
-2,-1,0,-2,-2,-1,1,-1,2021-08-07 10:47:59,888101
-1,-2,-1,-6,-6,-4,-4,-1,2021-08-07 10:47:59,904099
-1,-3,-2,-1,-6,-4,-2,-2,2021-08-07 10:47:59,904099
1,3,3,9,12,6,0,0,2021-08-07 10:47:59,904099
-2,-1,-2,0,-2,-2,-1,0,2021-08-07 10:47:59,904099
-3,-2,-1,-4,-5,-3,-3,-1,2021-08-07 10:47:59,919100
0,0,1,1,0,-1,0,1,2021-08-07 10:47:59,919100
-1,-2,-2,-4,-5,-6,-2,-3,2021-08-07 10:47:59,935098
-1,-2,0,2,5,2,0,-1,2021-08-07 10:47:59,951112
0,0,-2,-3,-3,-3,-3,0,2021-08-07 10:47:59,967099
1,-1,1,2,4,3,1,1,2021-08-07 10:47:59,967099
-2,-2,-1,-1,-2,-1,-1,0,2021-08-07 10:47:59,967099
0,0,-2,-2,1,0,0,0,2021-08-07 10:47:59,967099
-2,-1,-2,-2,-1,-1,0,-2,2021-08-07 10:47:59,967099
-2,0,0,0,1,0,-1,0,2021-08-07 10:47:59,967099
-2,-1,-1,-4,-5,-3,-2,0,2021-08-07 10:47:59,967099
-1,-2,-1,-2,-4,-1,-3,-1,2021-08-07 10:47:59,967099
1,-1,-1,-3,-1,1,0,-1,2021-08-07 10:47:59,999112
0,0,-1,4,2,0,2,1,2021-08-07 10:47:59,999112
1,-1,1,4,4,1,0,-2,2021-08-07 10:47:59,999112
-1,-3,-2,-1,-2,-2,-3,-1,2021-08-07 10:47:59,999112
-1,0,-1,-3,0,1,0,0,2021-08-07 10:47:59,999112
-1,-1,-1,-3,1,1,-1,-2,2021-08-07 10:47:59,999112
-1,-1,-2,-4,-6,-2,-2,-1,2021-08-07 10:48:00,015099
-1,-1,2,-2,-1,-2,-1,-3,2021-08-07 10:48:00,031064
0,-1,0,-2,-1,-1,-1,-1,2021-08-07 10:48:00,031064
-1,0,0,-3,-2,-1,-1,0,2021-08-07 10:48:00,031064
-1,-2,0,0,-2,-2,-1,0,2021-08-07 10:48:00,031064
-1,-1,-1,-5,-3,-1,0,-2,2021-08-07 10:48:00,031064
-3,-2,0,3,0,-2,0,-1,2021-08-07 10:48:00,047100
0,1,-1,1,1,1,-1,-1,2021-08-07 10:48:00,053100
-1,0,-2,0,-1,0,-1,-1,2021-08-07 10:48:00,053100
-1,-1,-3,-1,-2,-1,0,0,2021-08-07 10:48:00,054063
1,0,0,-1,2,1,-2,-2,2021-08-07 10:48:00,063100
-2,-2,-3,-5,-6,-4,-2,-2,2021-08-07 10:48:00,063100
0,-1,-1,-2,-1,0,-2,0,2021-08-07 10:48:00,079100
1,1,1,4,5,1,1,2,2021-08-07 10:48:00,079100
-1,-1,-1,1,0,0,1,-2,2021-08-07 10:48:00,095100
-2,-2,-3,-5,-6,-4,-4,0,2021-08-07 10:48:00,111099
-1,-2,-3,-3,-1,0,-1,-1,2021-08-07 10:48:00,111099
1,-1,1,3,5,4,0,2,2021-08-07 10:48:00,111099
-1,0,-1,-1,-3,-4,-2,-1,2021-08-07 10:48:00,111099
0,-1,0,0,4,3,0,0,2021-08-07 10:48:00,111099
-1,0,1,2,0,-3,-3,-1,2021-08-07 10:48:00,111099
-1,0,-1,-3,-3,-1,-1,0,2021-08-07 10:48:00,112066
0,-1,0,2,2,2,0,-1,2021-08-07 10:48:00,127061
-1,-3,-2,-3,-7,-3,-2,-2,2021-08-07 10:48:00,127061
0,1,-2,-2,-5,-1,-1,-1,2021-08-07 10:48:00,127061
0,1,-2,-3,0,1,1,0,2021-08-07 10:48:00,127061
-1,-2,-2,-2,-3,-2,-4,-2,2021-08-07 10:48:00,142063
1,2,4,5,6,3,2,1,2021-08-07 10:48:00,142063
0,-1,-1,-1,-1,0,-2,0,2021-08-07 10:48:00,142063
-1,-2,-3,-3,-7,-6,-2,-2,2021-08-07 10:48:00,142063
0,0,0,0,1,2,1,2,2021-08-07 10:48:00,158102
-2,-1,-1,-3,-4,-3,-1,-1,2021-08-07 10:48:00,158102
0,-1,0,-1,1,0,1,0,2021-08-07 10:48:00,174087
0,0,-1,-1,-1,0,-1,2,2021-08-07 10:48:00,174087
-1,-1,-1,1,4,3,1,0,2021-08-07 10:48:00,189087
-2,-3,-3,-1,-3,-1,-1,-2,2021-08-07 10:48:00,205091
-3,-3,-3,-7,-11,-6,-4,-4,2021-08-07 10:48:00,205091
-4,-2,2,6,9,2,-1,-6,2021-08-07 10:48:00,205091
1,3,4,5,3,0,-1,0,2021-08-07 10:48:00,205091
2,1,1,1,2,1,-3,-1,2021-08-07 10:48:00,205091
-1,0,-3,-6,-8,-5,-3,-1,2021-08-07 10:48:00,205091
0,-1,-1,-4,-2,-1,0,0,2021-08-07 10:48:00,205091
0,0,-2,2,0,0,1,-1,2021-08-07 10:48:00,221059
-1,-1,-1,-1,-1,-1,-1,0,2021-08-07 10:48:00,221059
1,1,-2,0,0,-1,1,0,2021-08-07 10:48:00,236061
-2,-1,-2,-4,-7,-4,-2,0,2021-08-07 10:48:00,236061
-3,-2,-1,0,-1,0,-1,-2,2021-08-07 10:48:00,251102
1,1,-1,0,0,1,0,0,2021-08-07 10:48:00,267064
0,-1,2,5,5,3,0,-1,2021-08-07 10:48:00,267064
0,1,0,-2,-3,-1,0,-1,2021-08-07 10:48:00,267064
-2,-3,-2,-2,-4,-3,0,-1,2021-08-07 10:48:00,267064
-1,-3,-2,-2,-3,-2,-1,0,2021-08-07 10:48:00,267064
0,-2,-1,-3,-1,0,0,-3,2021-08-07 10:48:00,283061
0,0,-3,2,0,-1,-2,-3,2021-08-07 10:48:00,283061
1,-2,-3,-4,-1,0,-2,-2,2021-08-07 10:48:00,283061
1,1,4,7,4,2,1,0,2021-08-07 10:48:00,283061
1,-1,-2,-2,-5,-2,0,0,2021-08-07 10:48:00,283061
-2,-4,0,2,3,0,-2,-1,2021-08-07 10:48:00,284091
-2,1,-1,-1,-4,-3,0,-1,2021-08-07 10:48:00,299065
-2,0,-3,-4,1,0,-2,0,2021-08-07 10:48:00,299065
0,-1,0,0,-2,0,1,-2,2021-08-07 10:48:00,315066
1,1,1,3,6,3,2,0,2021-08-07 10:48:00,315066
0,-2,-2,0,-1,-3,-2,-1,2021-08-07 10:48:00,331070
-3,-3,-3,-5,-6,-3,-1,-2,2021-08-07 10:48:00,331070
-3,0,1,0,0,-2,0,1,2021-08-07 10:48:00,331070
-2,-3,-4,-9,-10,-5,-4,-3,2021-08-07 10:48:00,331070
-1,-2,-2,-5,-2,0,-3,-2,2021-08-07 10:48:00,347103
0,1,2,5,8,3,3,0,2021-08-07 10:48:00,363102
-1,-1,1,2,4,2,2,-2,2021-08-07 10:48:00,363102
0,-2,0,1,-1,-1,-1,-2,2021-08-07 10:48:00,363102
-2,-3,-2,-8,-10,-5,-3,-1,2021-08-07 10:48:00,363102
-2,-1,-2,-1,0,-2,-4,-2,2021-08-07 10:48:00,363102
1,2,-1,1,4,1,1,1,2021-08-07 10:48:00,379111
0,-1,-1,-3,-2,0,2,0,2021-08-07 10:48:00,379111
0,-1,-2,0,0,-1,0,1,2021-08-07 10:48:00,395100
-1,-2,-2,-5,-6,-4,-1,0,2021-08-07 10:48:00,395100
0,0,0,3,6,2,1,-2,2021-08-07 10:48:00,395100
-1,0,-3,-6,-6,-4,-2,-2,2021-08-07 10:48:00,395100
0,0,0,0,1,0,1,-2,2021-08-07 10:48:00,411087
0,-3,-2,-3,-3,-1,-3,-1,2021-08-07 10:48:00,411087
0,0,0,3,3,1,-1,1,2021-08-07 10:48:00,411087
-1,-1,3,3,-2,-1,-1,0,2021-08-07 10:48:00,411087
-1,0,-1,-1,2,1,-1,0,2021-08-07 10:48:00,427061
-3,-1,-1,-1,-4,-3,0,-2,2021-08-07 10:48:00,427061
0,0,-1,-4,-2,-1,0,0,2021-08-07 10:48:00,427061
0,-1,-1,4,1,0,-1,-2,2021-08-07 10:48:00,427061
1,1,1,1,4,3,0,1,2021-08-07 10:48:00,442100
-1,0,0,5,6,1,0,-1,2021-08-07 10:48:00,442100
-1,0,0,1,-3,-2,0,1,2021-08-07 10:48:00,458099
-3,0,0,1,1,-1,-1,1,2021-08-07 10:48:00,474072
-3,-1,-1,0,-2,-2,-4,-1,2021-08-07 10:48:00,490104
-3,-3,-3,-5,-5,-2,-2,-3,2021-08-07 10:48:00,490104
0,-2,-1,-2,2,-1,1,-1,2021-08-07 10:48:00,490104
-1,0,0,1,4,0,1,0,2021-08-07 10:48:00,490104
-2,-2,-2,-3,-5,-2,-2,0,2021-08-07 10:48:00,490104
0,-2,-1,-2,-2,-3,-1,-1,2021-08-07 10:48:00,490104
1,0,2,8,6,3,-1,0,2021-08-07 10:48:00,491063
0,-1,-2,3,3,0,0,-1,2021-08-07 10:48:00,491063
0,0,3,2,0,0,1,0,2021-08-07 10:48:00,506060
-1,-1,1,1,-3,0,-1,-2,2021-08-07 10:48:00,506060
-4,-3,-4,-9,-8,-4,-3,-2,2021-08-07 10:48:00,522059
-1,-3,-3,-6,-3,-1,-3,0,2021-08-07 10:48:00,538062
-1,0,0,7,7,3,2,-1,2021-08-07 10:48:00,553067
0,1,-3,-5,-4,-1,0,0,2021-08-07 10:48:00,553067
0,-2,-1,-1,-3,-2,-2,0,2021-08-07 10:48:00,553067
-3,-4,-4,-8,-9,-5,-2,-3,2021-08-07 10:48:00,553067
2,0,2,6,8,3,1,1,2021-08-07 10:48:00,553067
-1,-1,-1,-3,-2,0,-1,-2,2021-08-07 10:48:00,553067
-4,-3,-3,-5,-6,-3,-2,-2,2021-08-07 10:48:00,554063
1,1,3,5,3,4,2,2,2021-08-07 10:48:00,554063
0,1,2,6,6,0,0,-2,2021-08-07 10:48:00,569063
0,-1,-1,2,2,1,0,1,2021-08-07 10:48:00,569063
-2,-4,-4,-8,-11,-7,-5,-2,2021-08-07 10:48:00,569063
1,1,0,0,1,1,1,1,2021-08-07 10:48:00,569063
0,-1,1,1,3,2,-1,-2,2021-08-07 10:48:00,584060
-1,-1,1,-1,-1,0,-1,-1,2021-08-07 10:48:00,584060
0,0,-1,0,-3,-3,-1,0,2021-08-07 10:48:00,584060
-3,-3,-5,-6,-10,-5,-4,-2,2021-08-07 10:48:00,584060
0,0,0,-3,-1,-2,0,-1,2021-08-07 10:48:00,600099
-1,-2,2,4,7,3,0,0,2021-08-07 10:48:00,616063
-1,0,-1,1,1,2,1,-2,2021-08-07 10:48:00,632063
0,-1,1,1,0,-1,0,1,2021-08-07 10:48:00,632063
-1,-1,-1,-2,-2,0,-1,0,2021-08-07 10:48:00,632063
0,0,0,3,0,-1,-1,-2,2021-08-07 10:48:00,632063
-1,-2,-1,-5,-6,-3,-1,-1,2021-08-07 10:48:00,632063
1,-1,1,7,8,4,-1,-1,2021-08-07 10:48:00,632063
-3,-2,-2,-4,-6,-3,-2,-1,2021-08-07 10:48:00,648101
-3,-3,-2,-7,-5,-5,-1,1,2021-08-07 10:48:00,648101
-1,0,1,6,3,2,-1,0,2021-08-07 10:48:00,648101
-4,-2,-4,-11,-16,-8,-3,-3,2021-08-07 10:48:00,648101
1,-1,3,4,13,7,3,3,2021-08-07 10:48:00,664060
-1,0,-1,1,4,2,1,-2,2021-08-07 10:48:00,664060
0,-1,-1,-1,0,-2,0,-2,2021-08-07 10:48:00,680099
-1,1,0,6,7,2,0,-1,2021-08-07 10:48:00,696101
-1,-1,-1,-5,-10,-5,-3,-1,2021-08-07 10:48:00,712100
-1,-1,-2,-4,-7,-4,-2,-2,2021-08-07 10:48:00,712100
-1,0,1,2,6,0,0,1,2021-08-07 10:48:00,712100
-3,-4,-1,-11,-10,-5,-3,-1,2021-08-07 10:48:00,712100
2,1,1,2,5,4,1,2,2021-08-07 10:48:00,712100
1,2,2,4,6,2,0,0,2021-08-07 10:48:00,712100
0,-3,-4,-4,-4,-2,-3,-1,2021-08-07 10:48:00,712100
1,-2,-1,-2,-1,-1,-1,-1,2021-08-07 10:48:00,713063
-3,0,-3,-4,-10,-6,-3,0,2021-08-07 10:48:00,728100
1,2,3,7,8,5,2,2,2021-08-07 10:48:00,743064
-2,-1,-2,-5,-3,-1,-1,-2,2021-08-07 10:48:00,759099
-2,-1,-1,-2,-3,-3,-2,-1,2021-08-07 10:48:00,775088
1,-1,-1,-1,2,1,-1,-1,2021-08-07 10:48:00,807099
-1,-2,-2,0,0,-1,-3,-1,2021-08-07 10:48:00,823064
1,1,-1,-1,1,0,0,-1,2021-08-07 10:48:00,823064
-1,0,-2,1,-2,-1,1,0,2021-08-07 10:48:00,823064
-5,-5,-8,-15,-15,-9,-5,-6,2021-08-07 10:48:00,823064
2,1,4,8,10,6,2,2,2021-08-07 10:48:00,823064
0,0,1,0,2,0,-1,-1,2021-08-07 10:48:00,838092
0,-2,0,1,5,1,-1,0,2021-08-07 10:48:00,838092
-2,-4,-3,-2,-7,-4,-1,-2,2021-08-07 10:48:00,838092
-5,-4,-5,-9,-15,-7,-4,-4,2021-08-07 10:48:00,838092
0,0,0,0,6,2,1,1,2021-08-07 10:48:00,838092
-1,0,-2,-2,0,1,-1,0,2021-08-07 10:48:00,838092
2,1,2,11,14,6,3,2,2021-08-07 10:48:00,838092
-2,-3,-4,-5,-6,-4,-2,0,2021-08-07 10:48:00,839062
-2,-2,-1,-4,-5,-2,0,0,2021-08-07 10:48:00,839062
-1,-2,0,3,2,0,0,-1,2021-08-07 10:48:00,839062
-3,-3,-8,-20,-19,-7,-3,-3,2021-08-07 10:48:00,839062
3,4,6,15,9,7,3,3,2021-08-07 10:48:00,839062
-3,-2,-1,-3,-4,-4,-1,0,2021-08-07 10:48:00,839062
3,3,6,12,14,8,3,3,2021-08-07 10:48:00,839062
-2,-2,0,2,-3,-2,-3,-1,2021-08-07 10:48:00,839062
-1,0,-7,-14,-17,-7,-3,-2,2021-08-07 10:48:00,840063
-1,0,-1,-7,-3,-2,-3,-1,2021-08-07 10:48:00,854110
0,-1,1,3,4,2,2,0,2021-08-07 10:48:00,854110
-2,-2,-2,-2,-6,-2,-1,0,2021-08-07 10:48:00,870102
-4,-2,-4,-13,-9,-5,-4,-2,2021-08-07 10:48:00,870102
2,2,6,23,22,9,5,0,2021-08-07 10:48:00,886101
0,0,-3,-8,-7,-4,-2,-2,2021-08-07 10:48:00,886101
1,0,-1,3,4,0,-2,1,2021-08-07 10:48:00,886101
-2,-5,-6,-13,-13,-9,-5,-2,2021-08-07 10:48:00,886101
-1,-4,-3,-8,-15,-7,-4,-1,2021-08-07 10:48:00,886101
0,1,3,12,16,6,2,0,2021-08-07 10:48:00,886101
-1,0,2,4,3,0,-2,-1,2021-08-07 10:48:00,922099
1,2,2,7,4,2,3,0,2021-08-07 10:48:00,933099
-1,-1,-4,-8,-9,-5,-2,-1,2021-08-07 10:48:00,933099
0,-2,-3,-7,-11,-5,-3,0,2021-08-07 10:48:00,933099
0,1,-1,-2,-1,-2,0,-1,2021-08-07 10:48:00,933099
-2,-3,-1,1,4,0,-1,-2,2021-08-07 10:48:00,933099
1,-2,-3,-6,0,2,-1,-1,2021-08-07 10:48:00,933099
1,2,1,4,-1,-1,0,2,2021-08-07 10:48:00,933099
0,0,0,-1,-2,0,1,0,2021-08-07 10:48:00,949100
0,-1,-1,-5,-4,0,0,-2,2021-08-07 10:48:00,949100
-2,-1,-3,-4,0,-1,-1,-2,2021-08-07 10:48:00,949100
-2,-4,-4,-6,-10,-6,-2,-2,2021-08-07 10:48:00,949100
-2,0,-1,-5,-2,0,0,-2,2021-08-07 10:48:00,965099
2,1,6,11,10,3,1,3,2021-08-07 10:48:00,965099
-1,-1,-1,2,-5,0,-2,-2,2021-08-07 10:48:00,981082
-1,-2,-1,-5,-3,-1,-2,0,2021-08-07 10:48:00,981082
0,-2,1,3,1,-2,0,-2,2021-08-07 10:48:00,981082
-3,-5,-8,-17,-19,-8,-3,-2,2021-08-07 10:48:00,981082
1,2,0,7,13,7,4,2,2021-08-07 10:48:00,997104
0,-1,2,15,15,5,2,0,2021-08-07 10:48:00,997104
-3,-2,-2,-3,-2,-1,-1,-2,2021-08-07 10:48:01,029107
-3,-3,-1,1,1,0,-3,-3,2021-08-07 10:48:01,045060
-6,-3,0,2,-4,-3,-4,-3,2021-08-07 10:48:01,061100
1,3,3,2,4,1,2,-1,2021-08-07 10:48:01,093065
0,0,-1,1,1,0,-1,0,2021-08-07 10:48:01,108588
2,0,-2,-4,-5,-5,-1,-2,2021-08-07 10:48:01,108588
-2,-5,-6,-10,-16,-9,-4,-2,2021-08-07 10:48:01,108588
5,4,5,5,8,6,3,2,2021-08-07 10:48:01,108588
0,0,0,7,8,0,0,1,2021-08-07 10:48:01,108588
-1,1,2,1,2,0,1,1,2021-08-07 10:48:01,108588
-1,-2,1,5,0,-1,-1,-1,2021-08-07 10:48:01,109589
-4,-5,-8,-11,-13,-4,-4,-3,2021-08-07 10:48:01,109589
-1,0,1,-5,-4,-1,-1,-2,2021-08-07 10:48:01,109589
1,2,2,10,14,5,2,2,2021-08-07 10:48:01,124585
1,2,2,5,3,1,-1,0,2021-08-07 10:48:01,124585
-3,-2,-2,-9,-9,-5,-2,-4,2021-08-07 10:48:01,124585
2,-1,0,4,1,0,0,0,2021-08-07 10:48:01,140624
-1,-3,-1,1,3,0,-2,-2,2021-08-07 10:48:01,140624
0,-1,-4,-6,-10,-3,0,-1,2021-08-07 10:48:01,140624
0,1,-2,-4,7,4,1,2,2021-08-07 10:48:01,140624
-1,-4,-5,-8,-12,-5,-4,-2,2021-08-07 10:48:01,140624
0,-1,1,8,8,1,-1,0,2021-08-07 10:48:01,140624
-2,-2,1,2,-2,-1,0,-1,2021-08-07 10:48:01,141624
-1,-1,-1,-5,-6,-3,-1,-2,2021-08-07 10:48:01,141624
0,0,1,4,5,4,2,-2,2021-08-07 10:48:01,141624
0,-2,-4,-4,-6,-1,0,-1,2021-08-07 10:48:01,141624
-2,-2,-4,-6,-4,-3,-4,-2,2021-08-07 10:48:01,141624
-5,-6,-10,-12,-18,-9,-6,-3,2021-08-07 10:48:01,141624
0,3,3,2,6,3,1,3,2021-08-07 10:48:01,141624
1,3,4,11,13,6,3,0,2021-08-07 10:48:01,141624
2,1,4,5,4,2,2,1,2021-08-07 10:48:01,156587
-2,0,0,-2,-2,-4,-1,-2,2021-08-07 10:48:01,156587
-2,-4,-3,0,-2,-2,-1,-2,2021-08-07 10:48:01,172611
0,-1,-1,-8,-9,-4,-1,-1,2021-08-07 10:48:01,172611
2,1,1,8,17,6,2,2,2021-08-07 10:48:01,172611
0,-3,-4,0,2,1,-2,-1,2021-08-07 10:48:01,172611
-4,-4,-6,-9,-11,-6,-3,-2,2021-08-07 10:48:01,188611
-3,-2,-2,-7,-9,-4,-3,-3,2021-08-07 10:48:01,188611
0,0,2,11,12,4,1,0,2021-08-07 10:48:01,204623
-3,-2,-4,-9,-10,-5,-2,-3,2021-08-07 10:48:01,204623
0,3,5,8,12,4,2,1,2021-08-07 10:48:01,204623
-1,-6,-6,-1,-8,-5,-3,0,2021-08-07 10:48:01,204623
0,1,0,-1,-1,0,0,-1,2021-08-07 10:48:01,220623
0,-1,-1,2,5,3,1,1,2021-08-07 10:48:01,236624
-3,-2,-3,-9,-12,-7,-4,-2,2021-08-07 10:48:01,236624
-3,-1,1,7,10,3,-1,-1,2021-08-07 10:48:01,252624
1,-1,-1,-11,-12,-1,1,0,2021-08-07 10:48:01,252624
1,0,6,14,19,6,2,0,2021-08-07 10:48:01,268589
-2,1,-1,0,-4,-2,-1,-1,2021-08-07 10:48:01,268589
-1,-1,-2,-4,-5,-3,-3,-2,2021-08-07 10:48:01,268589
-5,-4,-4,-7,-11,-5,-3,-3,2021-08-07 10:48:01,268589
2,1,1,3,1,-1,1,1,2021-08-07 10:48:01,268589
0,2,4,6,5,3,-1,-1,2021-08-07 10:48:01,268589
1,3,3,12,5,5,3,1,2021-08-07 10:48:01,268589
-2,-3,-8,-12,-1,0,-4,-2,2021-08-07 10:48:01,269613
-3,-1,-4,0,-3,-1,-2,-2,2021-08-07 10:48:01,269613
-1,-2,-2,-4,0,-2,-2,-2,2021-08-07 10:48:01,299585
-1,-1,0,-7,-5,-3,0,-1,2021-08-07 10:48:01,314815
-1,-1,1,0,-8,-3,-1,-1,2021-08-07 10:48:01,314815
2,3,5,11,8,6,3,1,2021-08-07 10:48:01,314815
-3,-5,-6,-6,-5,-2,-2,-2,2021-08-07 10:48:01,314815
-1,1,1,3,3,2,1,-1,2021-08-07 10:48:01,314815
-4,-1,-5,-16,-13,-7,-3,-1,2021-08-07 10:48:01,314815
-2,-3,-1,2,4,0,-2,-1,2021-08-07 10:48:01,314815
0,-2,-3,1,4,1,0,-2,2021-08-07 10:48:01,346587
-1,-2,-5,-12,-7,-4,-2,-2,2021-08-07 10:48:01,346587
1,-1,1,2,0,-1,0,1,2021-08-07 10:48:01,346587
-1,1,-3,-11,-14,-6,-2,-1,2021-08-07 10:48:01,346587
1,2,4,6,5,2,1,0,2021-08-07 10:48:01,346587
-2,-1,-1,-3,-1,1,0,-1,2021-08-07 10:48:01,346587
1,2,2,6,6,3,0,1,2021-08-07 10:48:01,362588
-5,-5,-5,-11,-13,-10,-6,-4,2021-08-07 10:48:01,369623
-1,-3,-5,-5,-5,-3,-1,-1,2021-08-07 10:48:01,369623
-2,-1,-4,-8,-8,-5,-3,-3,2021-08-07 10:48:01,369623
-1,2,3,8,2,0,0,1,2021-08-07 10:48:01,378629
1,1,2,7,5,3,0,2,2021-08-07 10:48:01,378629
0,1,4,8,10,4,2,0,2021-08-07 10:48:01,410586
-3,-4,-4,-7,-6,-5,-4,-4,2021-08-07 10:48:01,410586
0,-2,-4,-9,3,2,0,0,2021-08-07 10:48:01,410586
-2,-3,-2,-2,-5,-4,-2,-3,2021-08-07 10:48:01,410586
-3,-2,-2,-1,-6,-5,-3,-1,2021-08-07 10:48:01,410586
1,2,4,6,5,4,2,1,2021-08-07 10:48:01,410586
-1,-2,0,6,0,-2,-2,-2,2021-08-07 10:48:01,410586
-2,-2,-3,-8,-8,-4,-2,0,2021-08-07 10:48:01,410586
1,1,2,1,0,3,1,1,2021-08-07 10:48:01,442612
-2,-4,-7,-7,-3,-3,-5,-3,2021-08-07 10:48:01,442612
0,-1,-1,0,0,-1,-1,-1,2021-08-07 10:48:01,442612
1,3,5,8,5,3,3,3,2021-08-07 10:48:01,443101
-3,0,-4,-11,-16,-8,-1,-1,2021-08-07 10:48:01,458612
2,1,2,8,12,6,2,1,2021-08-07 10:48:01,474623
-1,0,2,6,8,1,-1,1,2021-08-07 10:48:01,474623
-1,-2,-1,2,1,1,-1,-2,2021-08-07 10:48:01,474623
-2,-1,-3,-8,-1,0,0,-1,2021-08-07 10:48:01,474623
-4,-3,-4,-9,-15,-9,-4,-5,2021-08-07 10:48:01,474623
0,-1,-2,-2,6,2,1,1,2021-08-07 10:48:01,474623
2,1,1,2,3,2,1,-2,2021-08-07 10:48:01,474623
-1,-2,-4,1,3,0,-2,0,2021-08-07 10:48:01,490616
-3,-3,-5,-8,-8,-4,-2,-2,2021-08-07 10:48:01,505637
-1,-1,-2,-5,-11,-7,-2,-2,2021-08-07 10:48:01,521610
-2,-1,0,1,4,3,1,0,2021-08-07 10:48:01,521610
3,2,4,8,9,2,0,-1,2021-08-07 10:48:01,521610
0,-2,-1,-1,-3,-3,-2,-1,2021-08-07 10:48:01,521610
-1,-1,-1,1,-1,-2,0,-1,2021-08-07 10:48:01,537615
-3,-2,-1,-10,-13,-8,-4,-2,2021-08-07 10:48:01,537615
1,0,4,6,9,3,3,0,2021-08-07 10:48:01,537615
1,1,3,12,10,3,2,0,2021-08-07 10:48:01,537615
-4,-7,-10,-18,-13,-5,-3,-4,2021-08-07 10:48:01,537615
-3,-4,-4,-5,-5,-4,-3,-3,2021-08-07 10:48:01,537615
-1,-1,-2,-7,-7,-1,-2,-1,2021-08-07 10:48:01,553611
3,5,3,3,1,-1,1,1,2021-08-07 10:48:01,568586
1,2,4,12,12,5,2,1,2021-08-07 10:48:01,568586
0,-2,-2,-6,-9,-4,-1,-1,2021-08-07 10:48:01,568586
-3,-6,-6,-13,-16,-10,-6,-1,2021-08-07 10:48:01,568586
2,2,6,21,24,13,5,1,2021-08-07 10:48:01,568586
2,3,4,3,-3,0,2,2,2021-08-07 10:48:01,568586
3,0,-1,1,10,6,3,1,2021-08-07 10:48:01,568586
-2,-3,-3,-5,-9,-4,-2,-2,2021-08-07 10:48:01,599628
-2,-3,-5,-12,-11,-7,-4,-1,2021-08-07 10:48:01,599628
0,-1,1,-1,1,-3,-2,0,2021-08-07 10:48:01,599628
-1,1,3,6,0,0,0,-1,2021-08-07 10:48:01,599628
2,0,-1,2,2,-1,0,0,2021-08-07 10:48:01,615638
-1,-1,-1,-2,-3,-1,-1,-1,2021-08-07 10:48:01,631588
-3,-4,-3,-3,-3,-1,-2,-3,2021-08-07 10:48:01,647629
-1,0,-3,-12,-8,-3,-2,-2,2021-08-07 10:48:01,647629
-2,1,3,9,7,2,-1,-1,2021-08-07 10:48:01,647629
-2,1,1,5,4,4,1,1,2021-08-07 10:48:01,647629
0,0,-3,-4,-4,-1,-1,-1,2021-08-07 10:48:01,647629
-5,-5,-11,-19,-15,-6,-3,-3,2021-08-07 10:48:01,647629
-2,-3,-2,3,4,0,-1,-1,2021-08-07 10:48:01,647629
3,1,3,2,3,3,1,1,2021-08-07 10:48:01,647629
1,1,4,7,6,3,2,0,2021-08-07 10:48:01,663627
-1,1,3,11,6,0,-1,0,2021-08-07 10:48:01,663869
-2,0,-2,-5,-5,-1,0,-2,2021-08-07 10:48:01,663869
-2,-2,-5,-9,-7,-6,-3,-3,2021-08-07 10:48:01,663869
0,1,4,9,4,1,-1,1,2021-08-07 10:48:01,695627
0,-1,-1,2,3,0,-1,0,2021-08-07 10:48:01,695627
-1,-2,-4,-7,-4,-2,-3,-2,2021-08-07 10:48:01,695627
-2,-1,0,2,1,-1,0,0,2021-08-07 10:48:01,695627
0,-1,-1,-2,-2,-4,-2,-2,2021-08-07 10:48:01,695627
1,3,-1,3,3,0,1,0,2021-08-07 10:48:01,695627
0,0,-3,2,2,1,-1,0,2021-08-07 10:48:01,711613
-5,-8,-10,-31,-25,-11,-5,-3,2021-08-07 10:48:01,711613
-2,-1,-5,3,1,-1,0,-1,2021-08-07 10:48:01,711613
1,2,5,8,8,4,1,1,2021-08-07 10:48:01,711613
0,0,1,10,7,2,2,-2,2021-08-07 10:48:01,742624
4,5,9,20,12,6,6,2,2021-08-07 10:48:01,742624
-4,-2,-3,-9,-10,-5,-3,-3,2021-08-07 10:48:01,742624
-1,-2,-2,-9,-11,-5,-3,-2,2021-08-07 10:48:01,742624
-1,1,-1,2,3,1,0,1,2021-08-07 10:48:01,758624
-3,-3,0,-2,-8,-2,-3,-1,2021-08-07 10:48:01,774623
-2,-2,-4,-7,1,-2,0,0,2021-08-07 10:48:01,774623
0,-2,-2,5,0,-2,0,-2,2021-08-07 10:48:01,774623
-1,-2,-3,-8,-5,-2,-1,-1,2021-08-07 10:48:01,774623
0,-1,-3,-2,1,-1,0,-2,2021-08-07 10:48:01,774623
0,-1,-2,-2,-1,1,-1,-2,2021-08-07 10:48:01,774623
2,2,7,16,15,5,1,0,2021-08-07 10:48:01,775623
-1,-2,0,-3,-8,-4,-2,-2,2021-08-07 10:48:01,790637
2,1,1,1,3,1,0,0,2021-08-07 10:48:01,790637
-1,-5,-8,-5,-5,-2,-3,-4,2021-08-07 10:48:01,805623
-1,0,-3,-9,-7,-5,0,0,2021-08-07 10:48:01,805623
1,1,1,1,4,0,-1,1,2021-08-07 10:48:01,805623
0,2,6,9,5,2,1,1,2021-08-07 10:48:01,806588
0,1,6,2,-1,0,0,1,2021-08-07 10:48:01,821588
-4,-3,-7,-3,2,1,-2,-2,2021-08-07 10:48:01,821588
-8,-9,-13,-20,-12,-6,-4,-5,2021-08-07 10:48:01,821588
-5,-3,0,-3,-2,0,-4,-3,2021-08-07 10:48:01,821588
-3,0,-3,1,-8,-5,-4,-2,2021-08-07 10:48:01,837612
3,4,5,11,8,4,2,2,2021-08-07 10:48:01,837612
4,4,6,17,13,7,3,3,2021-08-07 10:48:01,853611
-1,-3,-8,-9,-5,-3,-3,-2,2021-08-07 10:48:01,853611
3,4,8,13,7,4,3,2,2021-08-07 10:48:01,853611
-2,-3,-6,-14,-14,-6,-5,-2,2021-08-07 10:48:01,853611
2,2,0,2,-4,-3,0,-1,2021-08-07 10:48:01,885586
0,-2,0,4,5,2,1,0,2021-08-07 10:48:01,885586
1,0,1,7,9,4,2,0,2021-08-07 10:48:01,885586
-4,-4,-7,-14,-8,-5,-1,-1,2021-08-07 10:48:01,885586
0,0,-1,-1,1,1,1,0,2021-08-07 10:48:01,886587
-3,-3,-5,-8,-10,-5,-2,-2,2021-08-07 10:48:01,886587
-1,-1,-2,-2,0,-1,-2,-1,2021-08-07 10:48:01,901635
-1,-1,5,7,3,1,-1,0,2021-08-07 10:48:01,901635
-4,-3,-7,-19,-14,-7,-3,-3,2021-08-07 10:48:01,917625
0,-2,-4,-1,5,1,2,0,2021-08-07 10:48:01,917625
-3,-2,-3,-7,-7,-5,-4,-2,2021-08-07 10:48:01,917625
1,0,2,9,14,4,2,1,2021-08-07 10:48:01,917625
1,3,7,3,-4,-2,-1,1,2021-08-07 10:48:01,933624
1,-1,-2,-3,0,0,-1,-1,2021-08-07 10:48:01,933624
1,0,3,15,21,10,5,2,2021-08-07 10:48:01,933624
-3,-4,-3,-9,-6,-4,-4,-4,2021-08-07 10:48:01,933624
-3,-1,-1,-5,-7,-3,-2,-2,2021-08-07 10:48:01,949587
0,2,-2,4,0,-2,-1,-1,2021-08-07 10:48:01,949587
-1,-3,-4,-11,-15,-6,-3,-1,2021-08-07 10:48:01,949587
-1,-2,-3,-1,0,1,-1,-2,2021-08-07 10:48:01,949587
-2,-1,-1,1,3,0,0,-1,2021-08-07 10:48:01,981624
0,1,3,2,1,2,-1,-2,2021-08-07 10:48:01,997624
-1,-1,-1,-3,-2,-3,0,-1,2021-08-07 10:48:01,997624
-4,-3,-4,-11,-9,-5,-1,-2,2021-08-07 10:48:01,997624
-1,-2,3,2,6,2,0,1,2021-08-07 10:48:01,997624
-2,0,-5,-8,-8,-4,-1,-1,2021-08-07 10:48:01,997624
3,4,6,17,16,5,2,0,2021-08-07 10:48:01,998585
4,2,2,3,1,1,0,0,2021-08-07 10:48:01,998585
-2,-3,-4,0,-1,-1,-3,-2,2021-08-07 10:48:02,013627
-2,-2,-5,-10,-6,-2,-1,-1,2021-08-07 10:48:02,029624
-2,-1,-1,-4,-4,-3,-1,-3,2021-08-07 10:48:02,045613
0,-1,1,1,-2,0,-2,-1,2021-08-07 10:48:02,045613
4,2,4,8,8,5,2,0,2021-08-07 10:48:02,045613
-2,-1,-2,1,4,-1,-1,-1,2021-08-07 10:48:02,045613
-3,-2,-3,-7,-8,-3,-2,-3,2021-08-07 10:48:02,045613
-1,2,1,3,2,0,0,0,2021-08-07 10:48:02,045613
-1,-3,-4,-5,-6,-2,-2,-1,2021-08-07 10:48:02,061624
0,-2,2,1,-1,0,0,-1,2021-08-07 10:48:02,077624
-2,-3,-3,-6,-4,-3,-2,0,2021-08-07 10:48:02,093588
-1,-1,1,2,0,-2,-1,-2,2021-08-07 10:48:02,093588
0,-1,-3,-7,-5,-2,-1,-2,2021-08-07 10:48:02,093588
0,2,-2,5,6,0,0,0,2021-08-07 10:48:02,093588
3,1,3,13,12,6,3,0,2021-08-07 10:48:02,108586
-2,-2,0,5,7,3,-1,-1,2021-08-07 10:48:02,124623
0,1,2,-1,-5,-4,-1,-1,2021-08-07 10:48:02,124623
-2,-2,3,-2,-9,-6,-2,-2,2021-08-07 10:48:02,124623
0,-3,-2,0,-4,-2,-2,-1,2021-08-07 10:48:02,124623
-5,-2,-8,-7,1,-1,-2,-1,2021-08-07 10:48:02,124623
-2,-2,-5,-6,5,1,-3,-3,2021-08-07 10:48:02,124623
-2,1,-4,-3,-5,-1,0,-1,2021-08-07 10:48:02,125621
-3,-2,-4,-14,-12,-5,-5,-1,2021-08-07 10:48:02,125621
4,2,3,3,-3,-3,-2,0,2021-08-07 10:48:02,125621
0,-2,0,4,-2,0,0,1,2021-08-07 10:48:02,125621
0,-1,0,-1,-1,-2,0,0,2021-08-07 10:48:02,125621
-1,-1,-3,-1,1,1,0,0,2021-08-07 10:48:02,140629
2,1,1,3,4,1,2,0,2021-08-07 10:48:02,140629
-1,-3,-3,-5,-3,-1,-1,-3,2021-08-07 10:48:02,156585
0,-1,1,8,5,2,-1,2,2021-08-07 10:48:02,156585
0,1,2,-1,-6,-1,0,-1,2021-08-07 10:48:02,172634
0,1,1,1,4,2,0,2,2021-08-07 10:48:02,172634
0,-3,-8,-12,-4,-1,-2,1,2021-08-07 10:48:02,172634
-6,-4,-6,-10,-8,-7,-4,-4,2021-08-07 10:48:02,172634
-2,-4,-6,-17,-12,-7,-2,-2,2021-08-07 10:48:02,172634
2,1,8,14,5,0,0,-1,2021-08-07 10:48:02,172634
1,1,4,10,11,3,2,2,2021-08-07 10:48:02,188592
2,0,-3,2,0,1,1,1,2021-08-07 10:48:02,188592
-6,-4,-6,-22,-15,-7,-4,-4,2021-08-07 10:48:02,219617
-4,-2,-3,-9,-9,-5,-1,-4,2021-08-07 10:48:02,235588
-1,2,1,7,7,2,3,1,2021-08-07 10:48:02,241597
0,0,-1,-1,-1,0,0,-1,2021-08-07 10:48:02,241597
2,0,0,4,8,3,1,2,2021-08-07 10:48:02,241597
-2,-4,-2,-2,-8,-4,-2,-2,2021-08-07 10:48:02,242588
-3,-1,1,2,-5,-5,-1,-2,2021-08-07 10:48:02,242588
-2,-2,-1,-9,-6,-2,-1,0,2021-08-07 10:48:02,242588
1,1,-1,-1,9,3,2,2,2021-08-07 10:48:02,242588
-4,-3,-1,4,3,-1,-1,-2,2021-08-07 10:48:02,242588
1,1,-2,1,2,2,1,2,2021-08-07 10:48:02,242588
1,0,3,3,-5,-4,-3,-1,2021-08-07 10:48:02,242588
-2,-1,-1,-1,-5,-4,-2,-3,2021-08-07 10:48:02,266613
0,1,-4,1,8,4,1,1,2021-08-07 10:48:02,266613
-3,-3,-1,-4,-2,-2,-2,-4,2021-08-07 10:48:02,266613
-5,-4,-5,-8,-8,-4,-3,-3,2021-08-07 10:48:02,266613
4,4,3,7,12,6,2,1,2021-08-07 10:48:02,282616
-2,-4,-7,-9,-14,-7,-4,-3,2021-08-07 10:48:02,282616
2,-1,0,-4,4,3,1,1,2021-08-07 10:48:02,298614
1,0,3,4,3,0,-1,-1,2021-08-07 10:48:02,314587
-1,-1,-1,2,-4,-2,-3,-1,2021-08-07 10:48:02,330613
-1,-3,-3,-10,-6,-3,0,0,2021-08-07 10:48:02,330613
-2,-1,-1,1,-3,-3,-1,-2,2021-08-07 10:48:02,330613
2,2,3,6,12,6,4,1,2021-08-07 10:48:02,330613
-2,1,3,6,4,0,1,-1,2021-08-07 10:48:02,330613
-2,-2,-3,-7,-9,-3,-1,-3,2021-08-07 10:48:02,331586
-2,-1,-3,1,-9,-5,-3,-1,2021-08-07 10:48:02,331586
-1,-1,2,0,4,3,1,-1,2021-08-07 10:48:02,331586
-3,-2,0,3,-6,-5,-2,-3,2021-08-07 10:48:02,346588
-1,0,5,9,6,3,2,0,2021-08-07 10:48:02,346588
0,-1,-2,3,9,2,0,-1,2021-08-07 10:48:02,346588
-2,-3,-8,-8,-8,-4,-2,-2,2021-08-07 10:48:02,346588
1,0,-1,-3,1,0,0,0,2021-08-07 10:48:02,362626
-3,-6,-2,-10,-12,-7,-5,-3,2021-08-07 10:48:02,362626
2,4,7,12,14,6,1,1,2021-08-07 10:48:02,378626
-1,0,0,3,1,0,-1,0,2021-08-07 10:48:02,378626
-2,-5,-4,-1,-6,-4,-1,-2,2021-08-07 10:48:02,378626
2,3,1,4,4,4,1,3,2021-08-07 10:48:02,378626
-1,-2,-2,-7,-7,-4,-3,-2,2021-08-07 10:48:02,393585
1,0,-2,-2,-2,0,-1,1,2021-08-07 10:48:02,409589
-1,1,1,4,2,1,0,0,2021-08-07 10:48:02,409589
0,0,-2,2,0,-1,-1,-2,2021-08-07 10:48:02,409589
2,2,2,2,3,0,0,1,2021-08-07 10:48:02,409589
-3,0,-4,-9,-6,-2,-1,-1,2021-08-07 10:48:02,409589
-2,-5,-4,-4,1,-2,-4,0,2021-08-07 10:48:02,424623
2,3,2,6,8,3,0,0,2021-08-07 10:48:02,424623
-3,-2,-1,-1,-6,-3,-2,-1,2021-08-07 10:48:02,456589
-1,-3,-2,-4,-5,-3,-3,-2,2021-08-07 10:48:02,472624
1,1,1,-2,-4,-1,0,1,2021-08-07 10:48:02,472624
0,1,1,0,2,1,-1,-1,2021-08-07 10:48:02,472624
-1,-3,3,4,3,1,-2,0,2021-08-07 10:48:02,472624
1,-1,-4,3,1,0,0,2,2021-08-07 10:48:02,472624
-4,-4,-6,-16,-3,-1,-2,-2,2021-08-07 10:48:02,472624
0,1,-2,-4,-7,-4,-1,1,2021-08-07 10:48:02,473588
-1,0,-1,-3,-6,-2,-2,-1,2021-08-07 10:48:02,473588
0,1,5,8,5,2,1,-1,2021-08-07 10:48:02,473588
3,3,3,15,6,3,1,1,2021-08-07 10:48:02,473588
-2,-1,-2,-3,-1,-1,-1,-1,2021-08-07 10:48:02,473588
-3,-2,-4,-12,-10,-3,-2,-2,2021-08-07 10:48:02,504628
-3,-3,-2,-1,-1,-2,-3,-2,2021-08-07 10:48:02,504628
1,2,4,9,5,3,1,1,2021-08-07 10:48:02,504628
0,0,-1,-5,-1,1,0,1,2021-08-07 10:48:02,504628
1,-1,-1,5,2,0,0,-1,2021-08-07 10:48:02,504628
-2,-3,-4,-2,-6,-3,-2,-3,2021-08-07 10:48:02,520585
-1,-2,-2,-7,-4,-3,-2,-1,2021-08-07 10:48:02,520585
-1,-2,-2,-4,-6,-3,-2,-2,2021-08-07 10:48:02,520585
-2,-2,-3,-3,-7,-5,-2,-1,2021-08-07 10:48:02,551584
4,4,8,14,24,10,5,3,2021-08-07 10:48:02,551584
-1,0,0,-1,-5,0,1,-2,2021-08-07 10:48:02,551584
-2,-1,-1,-4,-11,-5,-3,-1,2021-08-07 10:48:02,551584
-3,-4,-8,-6,3,0,-1,-3,2021-08-07 10:48:02,567585
-1,-1,-4,-6,-5,-3,-2,-2,2021-08-07 10:48:02,567585
0,2,3,7,2,1,1,0,2021-08-07 10:48:02,567585
-2,-2,-2,-9,-4,-2,-1,0,2021-08-07 10:48:02,567585
-2,-4,-4,-3,-6,-1,-2,-1,2021-08-07 10:48:02,567585
-1,-2,-5,-7,-6,-2,-1,1,2021-08-07 10:48:02,567585
-1,-2,-2,-3,3,0,-1,-1,2021-08-07 10:48:02,583618
-2,-1,-4,-2,0,-1,0,-1,2021-08-07 10:48:02,583618
-1,0,4,-3,1,0,-1,-2,2021-08-07 10:48:02,599626
1,1,2,5,0,1,0,1,2021-08-07 10:48:02,599626
1,-1,0,8,2,0,-1,-2,2021-08-07 10:48:02,599626
-1,1,2,4,5,1,-1,0,2021-08-07 10:48:02,599626
0,1,1,4,2,0,1,-1,2021-08-07 10:48:02,614587
-2,0,-3,-9,-9,-5,-2,-1,2021-08-07 10:48:02,629623
-2,-2,0,-4,-5,-3,-3,1,2021-08-07 10:48:02,629623
3,1,2,6,8,3,3,1,2021-08-07 10:48:02,629623
0,-3,-5,-7,-6,-3,0,-2,2021-08-07 10:48:02,629623
-2,-1,-1,0,2,1,1,1,2021-08-07 10:48:02,630587
-4,-3,-6,-12,-13,-4,-3,-1,2021-08-07 10:48:02,645623
0,1,3,12,22,10,4,0,2021-08-07 10:48:02,645623
-4,0,1,0,-2,0,-1,-3,2021-08-07 10:48:02,661584
-3,-1,4,4,1,0,-2,-3,2021-08-07 10:48:02,674631
-4,-1,-3,-6,-9,-7,-5,-4,2021-08-07 10:48:02,674631
-1,-1,-3,-7,-5,-4,-4,-1,2021-08-07 10:48:02,674631
0,-1,-2,-9,-5,-1,1,1,2021-08-07 10:48:02,674631
1,-3,1,12,15,5,-1,-1,2021-08-07 10:48:02,675626
3,2,2,4,-1,0,3,1,2021-08-07 10:48:02,675626
0,-2,-1,7,0,1,0,0,2021-08-07 10:48:02,675626
-1,-1,-2,-9,-8,-5,-3,-2,2021-08-07 10:48:02,693585
-3,-3,-4,-12,-8,-3,-2,-4,2021-08-07 10:48:02,708623
1,0,-4,0,6,3,1,2,2021-08-07 10:48:02,708623
-3,-1,-2,-7,-2,-1,-3,-2,2021-08-07 10:48:02,708623
2,0,2,9,6,2,0,1,2021-08-07 10:48:02,724585
-1,0,1,-1,-7,-3,-1,0,2021-08-07 10:48:02,739589
1,0,2,5,2,0,0,-1,2021-08-07 10:48:02,755625
-6,-5,-5,-10,-16,-6,-4,-4,2021-08-07 10:48:02,755625
0,1,0,4,5,4,1,2,2021-08-07 10:48:02,755625
-1,-1,1,2,7,2,0,-1,2021-08-07 10:48:02,755625
0,1,1,3,8,3,4,1,2021-08-07 10:48:02,755625
-4,-4,-8,-17,-12,-6,-3,-4,2021-08-07 10:48:02,755625
-2,-2,0,-1,-9,-4,-4,-2,2021-08-07 10:48:02,755625
0,0,1,5,4,2,0,-1,2021-08-07 10:48:02,756588
0,0,-2,0,0,0,0,-1,2021-08-07 10:48:02,756588
1,-1,3,4,-1,-2,-1,-1,2021-08-07 10:48:02,756588
-1,-1,1,0,0,-1,0,0,2021-08-07 10:48:02,771626
-1,-2,-5,-10,-10,-5,-3,0,2021-08-07 10:48:02,771626
-1,1,2,2,4,2,-1,-2,2021-08-07 10:48:02,787625
0,3,5,6,3,2,1,0,2021-08-07 10:48:02,787625
-1,-1,-4,-2,-2,-2,-2,-1,2021-08-07 10:48:02,803586
-4,-4,-9,-11,-13,-6,-2,-1,2021-08-07 10:48:02,803586
0,0,1,1,5,1,-1,-1,2021-08-07 10:48:02,803586
-2,-2,-7,-15,-9,-4,-1,-2,2021-08-07 10:48:02,803586
3,6,9,18,12,6,2,2,2021-08-07 10:48:02,803586
0,1,11,4,0,-2,-1,-1,2021-08-07 10:48:02,803586
-1,-3,-10,-2,3,2,-1,1,2021-08-07 10:48:02,818584
1,-3,-3,0,3,3,0,0,2021-08-07 10:48:02,818584
-5,-6,-9,-11,-10,-6,-4,-5,2021-08-07 10:48:02,865584
-2,-1,-1,-1,-3,-2,-3,-1,2021-08-07 10:48:02,865584
-1,-2,2,-7,-11,-4,-2,-3,2021-08-07 10:48:02,865584
4,4,6,21,16,6,3,2,2021-08-07 10:48:02,865584
0,-2,-1,1,1,1,0,0,2021-08-07 10:48:02,865584
-2,-1,-1,-3,-3,-1,0,-1,2021-08-07 10:48:02,865584
-3,-2,-1,-3,-7,-4,-3,-4,2021-08-07 10:48:02,865584
0,1,-2,-2,-4,-3,0,0,2021-08-07 10:48:02,865584
1,0,0,2,5,0,-1,-1,2021-08-07 10:48:02,866631
1,1,-1,-3,-3,-1,-1,0,2021-08-07 10:48:02,866631
-2,-1,1,1,-3,-2,-2,-1,2021-08-07 10:48:02,881585
-1,-1,2,-1,-2,0,0,-2,2021-08-07 10:48:02,881585
-1,0,-1,3,6,2,2,-1,2021-08-07 10:48:02,897624
-2,-4,-9,-11,-7,-4,-2,-2,2021-08-07 10:48:02,897624
-5,-5,-3,-7,-5,-4,-3,-2,2021-08-07 10:48:02,897624
-2,-1,2,-2,-7,-4,-2,-1,2021-08-07 10:48:02,897624
0,1,3,5,8,3,2,0,2021-08-07 10:48:02,928612
2,1,2,8,9,3,1,-1,2021-08-07 10:48:02,928612
-1,0,-2,-5,-4,-2,0,-3,2021-08-07 10:48:02,928612
-3,-4,-4,-14,-14,-7,-4,-2,2021-08-07 10:48:02,928612
-1,-2,-5,1,1,1,0,-1,2021-08-07 10:48:02,928612
0,-1,0,0,0,0,-1,-1,2021-08-07 10:48:02,928612
0,0,-2,-1,-1,0,-1,-1,2021-08-07 10:48:02,959588
-2,-2,-5,-4,-3,-3,-3,0,2021-08-07 10:48:02,959588
1,0,5,7,2,1,-1,0,2021-08-07 10:48:02,959588
-1,1,1,8,6,1,0,-1,2021-08-07 10:48:02,959588
0,-1,1,3,-1,-1,-1,0,2021-08-07 10:48:02,959588
0,0,0,-4,-1,-2,-1,0,2021-08-07 10:48:02,959588
2,1,2,1,2,1,1,1,2021-08-07 10:48:02,975624
2,1,0,-2,0,-1,0,-1,2021-08-07 10:48:02,975624
1,0,-1,0,-2,-1,0,1,2021-08-07 10:48:02,991623
-2,-3,-4,-5,-4,-1,0,-2,2021-08-07 10:48:03,007584
-2,-1,0,-3,-3,-2,-2,-2,2021-08-07 10:48:03,007584
1,0,0,-3,-4,1,-1,-1,2021-08-07 10:48:03,007584
0,0,-2,-1,8,3,1,0,2021-08-07 10:48:03,007584
0,1,4,10,4,1,1,1,2021-08-07 10:48:03,007584
-2,-4,-5,-10,-11,-6,-5,-2,2021-08-07 10:48:03,007584
1,-2,-5,-13,-13,-5,0,-1,2021-08-07 10:48:03,007584
2,0,6,19,20,8,3,1,2021-08-07 10:48:03,023585
1,0,1,5,4,1,-1,0,2021-08-07 10:48:03,038635
-2,-2,-2,-6,-5,-2,-2,-2,2021-08-07 10:48:03,038635
-3,-4,-7,-8,-9,-6,-3,-5,2021-08-07 10:48:03,038635
-3,-4,-7,-10,-8,-4,-2,-3,2021-08-07 10:48:03,038635
0,-1,-1,0,2,0,0,-1,2021-08-07 10:48:03,038635
-1,-2,0,-2,-4,-2,-1,-1,2021-08-07 10:48:03,054614
1,1,3,8,12,5,2,2,2021-08-07 10:48:03,070616
-1,0,0,-2,-9,-4,-3,-1,2021-08-07 10:48:03,102623
-5,-3,-3,-6,-6,-3,-3,-4,2021-08-07 10:48:03,102623
4,4,6,13,19,9,4,2,2021-08-07 10:48:03,102623
-1,0,2,-1,-5,-1,-1,0,2021-08-07 10:48:03,102623
-1,0,-2,0,2,0,-1,-2,2021-08-07 10:48:03,102623
-3,-5,-3,-15,-14,-7,-5,-3,2021-08-07 10:48:03,102623
0,0,-8,-2,-4,-1,2,0,2021-08-07 10:48:03,102623
-1,-1,0,8,2,1,-1,2,2021-08-07 10:48:03,102623
-1,-2,-6,-12,-11,-5,-2,0,2021-08-07 10:48:03,103613
-1,0,-1,0,4,0,-1,-2,2021-08-07 10:48:03,103613
-1,-2,1,-4,-6,-4,-3,-1,2021-08-07 10:48:03,111588
-1,2,5,10,9,4,0,1,2021-08-07 10:48:03,112587
1,1,0,-2,-8,-4,-2,-1,2021-08-07 10:48:03,134635
1,2,1,6,8,4,2,1,2021-08-07 10:48:03,134635
-2,-3,-3,-6,-5,-4,-2,-3,2021-08-07 10:48:03,134635
-4,-3,-6,-9,-4,-5,-2,-4,2021-08-07 10:48:03,134635
-5,-3,-5,-16,-16,-7,-5,-1,2021-08-07 10:48:03,134635
4,6,8,22,25,14,6,2,2021-08-07 10:48:03,135586
2,2,4,13,4,1,1,0,2021-08-07 10:48:03,181628
-2,-4,-3,-1,-2,-2,-2,-3,2021-08-07 10:48:03,197586
1,0,-3,-6,-3,-4,-1,-2,2021-08-07 10:48:03,213612
-1,-2,-6,-8,-11,-5,-2,0,2021-08-07 10:48:03,213612
-3,-1,-4,-7,-5,-2,-2,-1,2021-08-07 10:48:03,213612
0,1,2,3,5,2,0,0,2021-08-07 10:48:03,213612
1,0,2,5,10,4,0,1,2021-08-07 10:48:03,213612
-1,0,-2,0,-5,-3,-2,-1,2021-08-07 10:48:03,213612
-4,-4,-1,-5,-6,-4,-4,-4,2021-08-07 10:48:03,214589
-1,0,5,4,2,0,-1,-1,2021-08-07 10:48:03,214589
2,2,1,10,4,3,1,1,2021-08-07 10:48:03,214589
-1,-3,-4,-6,-2,-3,-2,-2,2021-08-07 10:48:03,214589
-6,-7,-15,-28,-21,-9,-6,-4,2021-08-07 10:48:03,214589
1,2,7,12,7,3,2,1,2021-08-07 10:48:03,214589
0,1,2,6,7,2,2,-1,2021-08-07 10:48:03,229611
3,2,3,13,8,4,1,1,2021-08-07 10:48:03,245624
-1,1,2,4,0,-3,0,2,2021-08-07 10:48:03,245624
-3,-4,-10,-17,-17,-8,-4,-3,2021-08-07 10:48:03,245624
2,1,9,15,20,7,2,2,2021-08-07 10:48:03,245624
-1,0,0,-1,-5,-1,-1,0,2021-08-07 10:48:03,245624
2,0,-4,-5,1,1,1,-2,2021-08-07 10:48:03,246588
-3,-5,-7,-5,0,-1,-3,-1,2021-08-07 10:48:03,246588
-3,-2,-1,-5,-8,-5,0,-2,2021-08-07 10:48:03,261584
0,-2,-2,-3,-2,-3,-2,0,2021-08-07 10:48:03,261584
2,-1,5,10,7,3,2,0,2021-08-07 10:48:03,277588
1,0,-3,-6,-8,-1,0,-1,2021-08-07 10:48:03,293585
-2,-4,-3,-11,-9,-2,-3,-2,2021-08-07 10:48:03,308614
-2,0,3,4,2,1,-1,-1,2021-08-07 10:48:03,324634
1,0,2,7,3,2,0,-1,2021-08-07 10:48:03,324634
0,1,1,2,3,1,1,1,2021-08-07 10:48:03,324634
-2,-1,-1,2,-3,-1,-1,-1,2021-08-07 10:48:03,324634
0,-2,-3,-3,-9,-5,0,-3,2021-08-07 10:48:03,324634
-2,-4,-8,-13,-2,-2,-2,-1,2021-08-07 10:48:03,324634
-3,-2,0,6,6,2,-2,-2,2021-08-07 10:48:03,324634
0,1,4,4,-2,-1,0,1,2021-08-07 10:48:03,324634
0,3,2,2,4,1,2,0,2021-08-07 10:48:03,325585
-1,0,5,4,-1,-2,-1,-2,2021-08-07 10:48:03,340612
0,-2,-6,0,4,0,-2,-3,2021-08-07 10:48:03,340612
0,-2,-3,-7,-8,-2,-1,-2,2021-08-07 10:48:03,340612
1,1,-1,-4,3,2,-1,0,2021-08-07 10:48:03,340612
-3,-4,-1,-4,-6,-3,-4,0,2021-08-07 10:48:03,371611
1,1,2,-1,3,1,2,1,2021-08-07 10:48:03,371611
-1,-1,-1,-3,-4,-4,-1,-1,2021-08-07 10:48:03,371611
-2,-3,-5,-7,-5,-3,0,-3,2021-08-07 10:48:03,371611
0,1,1,4,8,5,0,-1,2021-08-07 10:48:03,371611
-2,-1,0,0,-3,-1,0,0,2021-08-07 10:48:03,371611
1,-1,-4,-4,-5,-2,-2,-1,2021-08-07 10:48:03,387612
-1,-3,-1,1,1,0,-1,-1,2021-08-07 10:48:03,387612
0,1,-1,2,1,-1,-1,1,2021-08-07 10:48:03,403613
2,-1,1,-1,-3,-2,0,0,2021-08-07 10:48:03,419640
0,2,-1,-1,10,4,-1,0,2021-08-07 10:48:03,435615
-1,0,1,-2,-7,-4,-2,-1,2021-08-07 10:48:03,451623
1,1,4,13,10,3,2,1,2021-08-07 10:48:03,467585
-2,-3,-5,-12,-14,-5,-3,-2,2021-08-07 10:48:03,467585
1,0,3,10,9,3,0,-1,2021-08-07 10:48:03,467585
-1,-4,-1,1,0,-1,-1,-2,2021-08-07 10:48:03,467585
-1,2,0,-3,-1,-1,0,1,2021-08-07 10:48:03,467585
-2,-4,-2,-5,-7,-6,-2,-1,2021-08-07 10:48:03,467585
-3,-3,-6,-12,-7,-3,-1,-1,2021-08-07 10:48:03,467585
-1,1,-1,1,-2,1,-2,0,2021-08-07 10:48:03,468588
0,1,1,4,-1,-2,0,-1,2021-08-07 10:48:03,468588
-1,2,2,7,3,1,0,-1,2021-08-07 10:48:03,468588
0,-1,-3,-5,-6,-3,0,-1,2021-08-07 10:48:03,468588
3,0,-3,1,2,0,1,0,2021-08-07 10:48:03,468588
-1,-4,-3,-8,-11,-4,0,-2,2021-08-07 10:48:03,483613
0,-2,-2,-6,-2,-1,-2,1,2021-08-07 10:48:03,499624
-4,-4,-5,-4,0,1,-1,-1,2021-08-07 10:48:03,515176
-2,-3,-1,5,7,3,-1,-2,2021-08-07 10:48:03,515176
-3,-4,-1,0,-5,-4,-4,-4,2021-08-07 10:48:03,515176
-3,0,5,7,2,-1,-2,-3,2021-08-07 10:48:03,515176
1,0,-3,-1,-2,-2,0,-1,2021-08-07 10:48:03,515176
1,0,5,5,1,-1,0,3,2021-08-07 10:48:03,515176
3,2,1,-2,1,2,1,2,2021-08-07 10:48:03,515176
1,0,-1,-5,-9,-2,-2,0,2021-08-07 10:48:03,516148
-2,1,4,5,5,2,-1,-1,2021-08-07 10:48:03,516148
-3,-2,-3,-8,-8,-5,-3,-2,2021-08-07 10:48:03,516148
-1,-3,-6,-4,5,2,-1,0,2021-08-07 10:48:03,543186
-1,0,-3,-3,-5,-2,-1,1,2021-08-07 10:48:03,543186
-1,-1,0,2,3,-1,-1,-1,2021-08-07 10:48:03,544189
0,1,2,1,5,-1,0,-1,2021-08-07 10:48:03,544189
0,1,1,2,-8,-5,-2,-3,2021-08-07 10:48:03,563149
0,-1,-4,-7,3,1,-1,-1,2021-08-07 10:48:03,579186
-4,-3,-2,-5,-12,-6,-5,-2,2021-08-07 10:48:03,595186
-2,0,-4,-14,-8,-2,-1,-2,2021-08-07 10:48:03,595186
2,2,-1,7,10,3,2,-1,2021-08-07 10:48:03,595186
-2,-2,-2,6,5,1,-1,-1,2021-08-07 10:48:03,595186
2,4,7,15,13,4,3,0,2021-08-07 10:48:03,595186
0,2,-1,-6,-10,-5,-3,2,2021-08-07 10:48:03,595186
-4,-2,-5,-11,-12,-6,-3,-3,2021-08-07 10:48:03,596150
-2,-3,-5,-5,-2,-2,-2,-3,2021-08-07 10:48:03,596150
-2,-3,-4,-9,-9,-4,-2,-2,2021-08-07 10:48:03,596150
-1,-2,1,3,1,1,-1,-2,2021-08-07 10:48:03,596150
-1,0,1,2,2,1,-1,-1,2021-08-07 10:48:03,626151
1,1,8,9,10,4,1,1,2021-08-07 10:48:03,626151
-1,-1,0,0,0,-1,2,1,2021-08-07 10:48:03,626151
1,0,-3,5,3,0,0,0,2021-08-07 10:48:03,626151
-2,1,0,-4,-7,-3,-1,1,2021-08-07 10:48:03,642186
-2,-2,-6,-7,-7,-3,-2,-1,2021-08-07 10:48:03,658152
2,1,5,8,12,4,3,2,2021-08-07 10:48:03,690148
-2,0,1,2,-1,-2,-1,-1,2021-08-07 10:48:03,690148
-5,-4,-3,-7,-13,-9,-6,-5,2021-08-07 10:48:03,690148
1,3,5,11,8,4,1,2,2021-08-07 10:48:03,690148
0,-1,-6,-8,-6,-3,-1,-1,2021-08-07 10:48:03,690148
-5,-8,-10,-16,-9,-6,-4,-4,2021-08-07 10:48:03,690148
0,-2,-1,-4,-2,-1,0,2,2021-08-07 10:48:03,691148
-1,0,0,0,-3,-2,0,-1,2021-08-07 10:48:03,691148
-3,-2,0,1,1,-1,-2,-1,2021-08-07 10:48:03,691148
2,2,6,11,10,5,3,1,2021-08-07 10:48:03,691148
-1,-3,-4,-6,-5,-1,-3,-1,2021-08-07 10:48:03,691148
-1,-4,-7,-14,-16,-8,-3,-2,2021-08-07 10:48:03,691148
0,-1,-1,10,19,8,2,1,2021-08-07 10:48:03,706152
-2,1,2,3,-2,0,-1,-1,2021-08-07 10:48:03,706152
0,-2,-1,2,2,1,3,1,2021-08-07 10:48:03,737174
-2,-4,-6,-16,-12,-6,-3,-4,2021-08-07 10:48:03,737174
-1,-3,0,4,-9,-3,-4,-1,2021-08-07 10:48:03,737174
-1,-1,2,6,15,4,0,-1,2021-08-07 10:48:03,737174
1,2,3,6,6,2,3,1,2021-08-07 10:48:03,737174
-2,-3,-4,-4,-4,-2,-2,-1,2021-08-07 10:48:03,737174
-4,-3,-8,-18,-22,-12,-5,-5,2021-08-07 10:48:03,737174
0,0,2,8,12,6,2,2,2021-08-07 10:48:03,737174
1,1,3,7,3,2,1,2,2021-08-07 10:48:03,768177
-1,1,7,11,9,2,1,1,2021-08-07 10:48:03,784174
-2,-3,-8,-7,-8,-3,-3,-1,2021-08-07 10:48:03,800190
-2,-3,-4,-10,-12,-7,-3,-3,2021-08-07 10:48:03,800190
0,2,1,8,12,5,3,2,2021-08-07 10:48:03,800190
1,1,3,5,7,2,1,0,2021-08-07 10:48:03,800190
3,5,12,16,8,3,2,2,2021-08-07 10:48:03,800190
1,-3,-7,-7,-10,-5,-1,-2,2021-08-07 10:48:03,800190
-2,-7,-12,-21,-9,-6,-3,-4,2021-08-07 10:48:03,801149
-1,-2,1,3,1,0,1,0,2021-08-07 10:48:03,801149
-1,1,2,5,3,1,0,-2,2021-08-07 10:48:03,801149
-1,1,3,1,-1,-1,0,2,2021-08-07 10:48:03,801149
0,1,4,9,4,1,-1,-1,2021-08-07 10:48:03,816150
1,3,2,7,12,5,1,0,2021-08-07 10:48:03,832149
-1,-1,-3,-10,-5,-4,-2,-3,2021-08-07 10:48:03,832149
0,-1,-3,-1,-3,-2,-3,-1,2021-08-07 10:48:03,832149
-4,-4,-3,-9,-9,-4,-3,-3,2021-08-07 10:48:03,832149
-1,-2,-1,-5,-6,-4,-1,-2,2021-08-07 10:48:03,832149
-2,-2,-2,-9,-11,-3,-1,-3,2021-08-07 10:48:03,847196
2,2,4,12,17,4,2,0,2021-08-07 10:48:03,863187
0,2,-1,-3,-4,-1,-1,1,2021-08-07 10:48:03,879186
-2,-1,0,0,0,-1,-1,-2,2021-08-07 10:48:03,895185
-1,-1,-1,-4,-6,-3,-1,-1,2021-08-07 10:48:03,895185
0,-1,1,3,2,-1,1,-1,2021-08-07 10:48:03,895185
-1,0,0,2,5,3,0,-2,2021-08-07 10:48:03,895185
-1,0,1,7,2,2,0,-1,2021-08-07 10:48:03,895185
-2,-2,-3,-6,-2,0,0,1,2021-08-07 10:48:03,895185
0,0,1,-1,-7,-3,-2,-1,2021-08-07 10:48:03,896149
0,0,1,-2,-5,-3,0,-1,2021-08-07 10:48:03,896149
2,2,3,9,9,3,1,1,2021-08-07 10:48:03,896149
1,0,-2,4,1,1,0,3,2021-08-07 10:48:03,896149
-4,-5,-9,-20,-21,-9,-4,-3,2021-08-07 10:48:03,896149
2,3,4,8,20,8,3,2,2021-08-07 10:48:03,911186
-2,-1,-3,-7,-8,-4,-3,-1,2021-08-07 10:48:03,911186
-1,-2,1,4,5,-1,-1,0,2021-08-07 10:48:03,927150
1,1,0,-2,-5,-2,-1,1,2021-08-07 10:48:03,927150
-2,-2,0,-2,-9,-4,-3,-2,2021-08-07 10:48:03,942146
0,-2,-5,-1,4,3,-1,0,2021-08-07 10:48:03,958147
-1,-1,0,1,3,-1,2,-2,2021-08-07 10:48:03,958147
-1,-1,-4,-6,-7,-3,-1,-2,2021-08-07 10:48:03,958147
-1,1,3,2,-3,-2,-2,-1,2021-08-07 10:48:03,958147
2,2,4,7,8,4,0,1,2021-08-07 10:48:03,958147
-2,-2,-6,-11,-20,-7,-2,-2,2021-08-07 10:48:03,958147
-1,-3,-6,-2,14,6,1,0,2021-08-07 10:48:03,959151
-4,-4,-5,-9,-9,-4,-4,-2,2021-08-07 10:48:03,974146
-1,0,0,0,-4,-3,-1,-1,2021-08-07 10:48:03,974146
-1,-2,2,-3,1,0,-2,-1,2021-08-07 10:48:03,981152
0,0,3,0,-7,-3,-2,-1,2021-08-07 10:48:03,981152
0,0,2,12,9,2,2,0,2021-08-07 10:48:04,006151
0,0,-1,-2,2,0,0,2,2021-08-07 10:48:04,006151
-1,0,-1,-6,-3,-1,0,0,2021-08-07 10:48:04,006151
-3,-4,-5,-1,0,0,-2,-2,2021-08-07 10:48:04,006151
1,0,0,2,-1,-1,0,-1,2021-08-07 10:48:04,022186
-3,-4,-7,-16,-15,-6,-4,-3,2021-08-07 10:48:04,038170
1,1,2,5,11,3,-1,-2,2021-08-07 10:48:04,038170
-2,-2,0,-6,-10,-4,-2,0,2021-08-07 10:48:04,038170
0,1,2,4,4,1,0,-1,2021-08-07 10:48:04,038170
0,0,-1,5,-1,-1,-1,0,2021-08-07 10:48:04,039148
1,-1,0,-1,2,1,1,-2,2021-08-07 10:48:04,039148
0,1,2,0,0,0,-2,1,2021-08-07 10:48:04,039148
-2,-2,-1,0,-4,-1,-1,0,2021-08-07 10:48:04,054185
-1,-2,-6,-7,-4,-1,0,0,2021-08-07 10:48:04,054185
-2,-4,-6,-9,-12,-6,-3,-3,2021-08-07 10:48:04,070187
1,1,4,5,9,4,1,-1,2021-08-07 10:48:04,086182
-1,-3,-5,-3,-7,-4,-2,0,2021-08-07 10:48:04,086182
-1,1,3,2,-2,-2,-3,-1,2021-08-07 10:48:04,086182
0,2,3,14,17,7,2,1,2021-08-07 10:48:04,102151
2,0,1,-1,0,0,0,-1,2021-08-07 10:48:04,102151
-4,-4,-8,-18,-12,-4,-4,-3,2021-08-07 10:48:04,102151
0,-1,1,-5,-4,-3,-2,0,2021-08-07 10:48:04,102151
0,0,-1,4,7,3,0,-1,2021-08-07 10:48:04,102151
0,-2,0,3,2,0,-1,0,2021-08-07 10:48:04,102151
0,-1,-3,-7,-10,-6,-4,-1,2021-08-07 10:48:04,118174
0,-1,-1,1,4,2,-1,-1,2021-08-07 10:48:04,133186
0,1,1,2,1,1,0,0,2021-08-07 10:48:04,133186
-2,-2,-3,0,-1,0,-1,-2,2021-08-07 10:48:04,133186
-1,-2,-2,-3,-3,-3,-2,0,2021-08-07 10:48:04,133186
-2,-2,-2,-10,-10,-5,-4,-1,2021-08-07 10:48:04,133186
0,1,4,13,9,2,0,2,2021-08-07 10:48:04,149146
0,-1,-3,-3,-1,-1,-2,-3,2021-08-07 10:48:04,165185
-1,-1,-3,-3,0,0,0,-1,2021-08-07 10:48:04,165185
-1,-1,1,2,1,0,1,-1,2021-08-07 10:48:04,165185
-2,-3,-3,-6,-8,-3,-3,-3,2021-08-07 10:48:04,165185
-1,0,-1,4,3,-1,-1,-1,2021-08-07 10:48:04,165185
2,3,6,10,12,4,1,-1,2021-08-07 10:48:04,181152
-1,-2,1,-2,2,0,1,-3,2021-08-07 10:48:04,197190
-2,-3,-8,-7,-9,-4,-1,-1,2021-08-07 10:48:04,197190
-4,-2,-4,-8,-12,-7,-4,-4,2021-08-07 10:48:04,197190
0,1,1,2,4,1,0,1,2021-08-07 10:48:04,197190
0,1,1,12,7,3,2,0,2021-08-07 10:48:04,197190
-1,-5,-6,-13,-13,-8,-4,-2,2021-08-07 10:48:04,213186
-3,-3,-6,-17,-6,-6,-2,-1,2021-08-07 10:48:04,229187
1,0,4,10,11,2,2,-1,2021-08-07 10:48:04,229187
1,2,3,3,-3,-2,0,1,2021-08-07 10:48:04,229187
1,2,3,5,1,1,0,0,2021-08-07 10:48:04,229187
-1,-1,-1,4,3,1,0,-1,2021-08-07 10:48:04,229187
-1,-5,-6,-13,-11,-5,-4,-3,2021-08-07 10:48:04,245186
0,-2,-1,4,5,-1,-1,-2,2021-08-07 10:48:04,261295
1,1,-1,-4,-4,-2,0,-1,2021-08-07 10:48:04,261295
0,0,1,6,3,1,0,0,2021-08-07 10:48:04,261295
-2,-1,-3,-6,-13,-6,-2,-2,2021-08-07 10:48:04,261295
2,1,3,7,12,6,2,2,2021-08-07 10:48:04,261295
0,-1,0,-5,1,1,-2,0,2021-08-07 10:48:04,261295
1,0,3,4,2,1,0,-1,2021-08-07 10:48:04,261295
-2,-3,-4,-7,-4,-3,-3,-3,2021-08-07 10:48:04,293294
-2,0,-3,-9,-10,-4,-3,-1,2021-08-07 10:48:04,293294
1,0,-1,1,-1,-1,-1,-1,2021-08-07 10:48:04,293294
-3,-2,-3,-7,-3,-3,-1,-1,2021-08-07 10:48:04,293294
0,0,-1,2,-3,-1,0,0,2021-08-07 10:48:04,293294
-2,-2,-4,-9,-3,-2,-2,0,2021-08-07 10:48:04,294259
-3,-1,4,-2,-1,0,0,-1,2021-08-07 10:48:04,309295
3,2,-5,8,9,5,5,2,2021-08-07 10:48:04,309295
-1,-3,-3,3,7,2,2,1,2021-08-07 10:48:04,325294
-2,-1,1,8,4,0,-2,-3,2021-08-07 10:48:04,325294
-6,-3,-2,-5,-6,-4,-3,-5,2021-08-07 10:48:04,325294
-2,1,8,7,0,-2,-2,0,2021-08-07 10:48:04,325294
-2,-1,0,-1,-1,-1,-1,-3,2021-08-07 10:48:04,341294
1,0,-1,1,-1,-2,-1,0,2021-08-07 10:48:04,341294
2,1,0,2,1,-1,0,1,2021-08-07 10:48:04,341294
-1,0,-5,-11,-7,-5,-3,-2,2021-08-07 10:48:04,341294
-2,-3,-5,-13,-4,-2,-2,-1,2021-08-07 10:48:04,388306
1,2,2,3,2,0,3,1,2021-08-07 10:48:04,404306
0,-1,-1,0,-2,-1,-2,-1,2021-08-07 10:48:04,420295
-2,-1,1,-1,-3,-1,-3,-2,2021-08-07 10:48:04,420295
-3,-2,-1,1,1,-1,-3,-1,2021-08-07 10:48:04,420295
-2,-3,-6,-8,-5,-1,-2,-2,2021-08-07 10:48:04,420295
-3,-3,-3,-5,-6,-2,0,-2,2021-08-07 10:48:04,421257
2,2,2,7,7,3,1,0,2021-08-07 10:48:04,421257
0,0,1,2,-4,-3,-2,1,2021-08-07 10:48:04,421257
0,0,-1,-1,-2,0,-1,0,2021-08-07 10:48:04,421257
0,-1,-2,2,1,2,0,-1,2021-08-07 10:48:04,421257
-2,-2,5,10,10,3,-1,-1,2021-08-07 10:48:04,421257
0,0,1,3,0,-1,1,-2,2021-08-07 10:48:04,421257
0,0,-2,4,0,1,0,0,2021-08-07 10:48:04,421257
0,0,0,-2,-4,-2,0,-1,2021-08-07 10:48:04,421257
-1,-2,0,-4,-7,-3,0,-2,2021-08-07 10:48:04,422259
0,-1,-2,1,2,0,-1,0,2021-08-07 10:48:04,436294
-2,-3,-2,-4,-4,-1,-2,0,2021-08-07 10:48:04,436294
-3,-4,-6,-8,-3,-3,-2,-3,2021-08-07 10:48:04,452256
-1,-3,-3,-4,-5,-4,-3,-2,2021-08-07 10:48:04,468310
2,1,2,1,-2,-1,0,-1,2021-08-07 10:48:04,484284
-2,0,3,3,5,1,1,-1,2021-08-07 10:48:04,484284
1,2,4,9,9,4,1,1,2021-08-07 10:48:04,484284
1,0,0,-3,-7,0,0,0,2021-08-07 10:48:04,484284
-1,-1,0,2,1,0,-1,-1,2021-08-07 10:48:04,484284
-3,-1,-2,-5,1,-1,-2,-2,2021-08-07 10:48:04,484284
0,0,1,0,1,-1,-2,0,2021-08-07 10:48:04,485261
0,0,-3,-2,1,0,-1,0,2021-08-07 10:48:04,485261
-3,-3,-5,-9,-6,-4,-2,-2,2021-08-07 10:48:04,500258
-2,-4,-2,-6,-6,-4,-2,-2,2021-08-07 10:48:04,516297
-2,0,1,1,2,0,-1,0,2021-08-07 10:48:04,516297
-1,-2,-3,-3,-2,-2,-1,1,2021-08-07 10:48:04,516297
1,1,1,2,3,2,0,0,2021-08-07 10:48:04,516297
-1,-1,-4,-8,-5,-3,-1,-2,2021-08-07 10:48:04,516297
-3,-3,-5,-3,-4,-2,-1,-2,2021-08-07 10:48:04,516297
-1,2,0,0,6,3,1,-1,2021-08-07 10:48:04,516297
1,4,5,11,6,4,3,1,2021-08-07 10:48:04,548295
-2,-2,1,2,-5,-2,1,-2,2021-08-07 10:48:04,548295
0,-2,-5,-9,-8,-4,-2,-2,2021-08-07 10:48:04,548295
1,-1,1,0,4,1,2,0,2021-08-07 10:48:04,548295
0,2,1,12,7,3,1,2,2021-08-07 10:48:04,580299
0,1,0,3,0,0,0,1,2021-08-07 10:48:04,580299
-2,-2,-2,0,-2,-2,-2,-2,2021-08-07 10:48:04,580299
-4,-4,-4,-18,-15,-8,-5,-3,2021-08-07 10:48:04,580299
-3,-5,-14,-7,-1,-2,-2,-4,2021-08-07 10:48:04,596259
1,2,1,4,4,2,1,1,2021-08-07 10:48:04,596259
0,1,1,1,0,0,0,0,2021-08-07 10:48:04,596259
0,1,6,11,5,1,-1,0,2021-08-07 10:48:04,596259
-1,0,2,-6,-6,-2,-1,-2,2021-08-07 10:48:04,596259
1,0,-3,0,3,3,0,1,2021-08-07 10:48:04,596259
-1,-1,-2,1,2,0,0,0,2021-08-07 10:48:04,596259
-1,1,1,5,1,0,0,1,2021-08-07 10:48:04,597258
-2,0,3,1,-2,-3,-1,-1,2021-08-07 10:48:04,628296
-4,-4,-3,2,-3,-4,-3,-4,2021-08-07 10:48:04,660262
6,5,9,13,21,10,6,5,2021-08-07 10:48:04,660262
-1,-1,-3,2,-5,-3,0,-2,2021-08-07 10:48:04,660262
-1,-2,-4,-6,3,-3,-1,0,2021-08-07 10:48:04,675261
-3,-2,-6,-12,-13,-8,-4,-4,2021-08-07 10:48:04,691482
-3,-2,-3,-11,-9,-5,-3,-2,2021-08-07 10:48:04,691482
-2,-1,-4,0,6,3,1,0,2021-08-07 10:48:04,691482
0,0,3,6,0,2,0,-1,2021-08-07 10:48:04,691482
0,-2,-2,-8,-4,-1,-1,-1,2021-08-07 10:48:04,691482
-1,0,-1,-4,-6,-2,-4,0,2021-08-07 10:48:04,691482
-2,-1,0,4,-1,-3,0,-1,2021-08-07 10:48:04,692447
-2,-2,0,-7,-1,2,-1,1,2021-08-07 10:48:04,692447
2,3,7,14,15,4,1,-1,2021-08-07 10:48:04,692447
-2,0,-2,-1,-4,-2,0,-1,2021-08-07 10:48:04,692447
-1,-1,-1,-3,-2,-2,-1,-2,2021-08-07 10:48:04,692447
-1,-3,-7,-13,-9,-6,-3,-1,2021-08-07 10:48:04,707473
-2,0,2,-9,-14,-6,-3,-2,2021-08-07 10:48:04,723447
4,3,2,17,24,10,4,1,2021-08-07 10:48:04,739447
-1,-1,-1,3,1,0,0,1,2021-08-07 10:48:04,739447
-2,-1,-2,-6,-5,-4,-3,-2,2021-08-07 10:48:04,739447
1,-1,-2,-2,-2,0,-1,1,2021-08-07 10:48:04,739447
-3,-1,0,-2,-12,-6,-3,-3,2021-08-07 10:48:04,739447
-1,0,0,-2,7,2,0,-1,2021-08-07 10:48:04,739447
-3,-2,-2,2,-3,0,-1,-2,2021-08-07 10:48:04,739447
-1,-1,0,-2,3,1,-1,0,2021-08-07 10:48:04,739447
-2,-1,-4,-6,-5,-3,-2,0,2021-08-07 10:48:04,740449
1,2,2,4,5,3,0,2,2021-08-07 10:48:04,740449
-2,-2,-1,-5,-3,-4,0,-1,2021-08-07 10:48:04,771484
-4,-4,-8,-12,-6,-4,-3,-3,2021-08-07 10:48:04,771484
-1,-1,-3,2,-6,-4,-1,0,2021-08-07 10:48:04,771484
-1,-1,-3,2,9,4,-1,0,2021-08-07 10:48:04,771484
0,0,3,4,2,0,-2,-1,2021-08-07 10:48:04,787484
3,1,0,1,-4,-1,1,1,2021-08-07 10:48:04,803498
0,0,3,4,10,4,0,0,2021-08-07 10:48:04,819484
-2,-2,-6,-13,-13,-6,-2,-1,2021-08-07 10:48:04,819484
-1,-2,2,-6,-4,-3,-1,-1,2021-08-07 10:48:04,819484
-3,-1,0,7,8,0,-1,-1,2021-08-07 10:48:04,819484
-2,-1,-4,-1,0,1,2,-1,2021-08-07 10:48:04,819484
-2,-1,-2,-3,-10,-5,-2,-3,2021-08-07 10:48:04,819484
-2,-3,-2,-11,-5,-3,-2,-3,2021-08-07 10:48:04,820484
0,2,0,1,-3,-2,-1,0,2021-08-07 10:48:04,820484
-3,-3,-2,-7,-10,-7,-3,-1,2021-08-07 10:48:04,820484
1,0,1,8,15,7,1,2,2021-08-07 10:48:04,820484
1,2,1,10,3,0,1,0,2021-08-07 10:48:04,851492
-1,-2,-2,-5,-7,-3,-4,-2,2021-08-07 10:48:04,851492
0,-1,-2,0,7,3,-1,0,2021-08-07 10:48:04,851492
-1,-2,-2,-6,-11,-7,-2,-2,2021-08-07 10:48:04,851492
-1,0,1,5,2,-1,0,-1,2021-08-07 10:48:04,851492
0,-1,0,4,7,2,0,0,2021-08-07 10:48:04,851492
-1,-1,-2,-3,-7,-3,-1,0,2021-08-07 10:48:04,859485
-1,-1,-3,-10,-13,-4,-2,-1,2021-08-07 10:48:04,859485
2,2,3,5,13,6,1,0,2021-08-07 10:48:04,898484
0,-1,-1,-4,-5,-2,-2,-1,2021-08-07 10:48:04,914450
-2,-3,-1,0,-1,-2,-1,-3,2021-08-07 10:48:04,914450
-3,-2,-5,-9,-6,-5,-3,-1,2021-08-07 10:48:04,914450
0,-2,1,-3,-4,-3,-1,-1,2021-08-07 10:48:04,914450
3,2,7,19,11,3,2,0,2021-08-07 10:48:04,914450
0,0,2,-1,-6,0,0,-1,2021-08-07 10:48:04,914450
-3,-3,-3,-4,-1,-2,-3,-1,2021-08-07 10:48:04,914450
-5,-5,-12,-19,-13,-7,-4,-2,2021-08-07 10:48:04,915448
-3,-4,-7,-12,-6,-3,-2,-2,2021-08-07 10:48:04,915448
2,2,5,17,10,2,0,-1,2021-08-07 10:48:04,930448
0,0,3,3,0,-1,0,1,2021-08-07 10:48:04,946490
0,1,3,15,14,5,2,2,2021-08-07 10:48:04,962484
0,2,2,1,3,2,2,0,2021-08-07 10:48:04,962484
0,-3,-2,-7,-6,-3,-2,-1,2021-08-07 10:48:04,962484
-1,-3,-2,-3,-8,-3,-2,-2,2021-08-07 10:48:04,962484
-1,0,-2,0,-6,-3,0,-2,2021-08-07 10:48:04,962484
0,0,-2,-9,-7,-2,-1,2,2021-08-07 10:48:04,963448
-1,-3,-2,-2,-4,-4,-2,-4,2021-08-07 10:48:04,963448
0,1,1,2,9,5,2,0,2021-08-07 10:48:04,963448
-2,-2,-2,-2,-5,-3,-2,-1,2021-08-07 10:48:04,978448
-2,-2,0,2,-2,-2,0,0,2021-08-07 10:48:04,978448
0,0,0,-3,1,1,0,0,2021-08-07 10:48:04,978448
-1,-1,0,-4,-2,-3,-1,-2,2021-08-07 10:48:04,978448
-1,-1,-1,-3,-2,-1,-2,-1,2021-08-07 10:48:05,010449
-3,-3,-4,-9,-5,-3,-2,-1,2021-08-07 10:48:05,010449
-5,-6,-8,-10,-8,-3,-4,-3,2021-08-07 10:48:05,010449
1,2,3,2,-1,0,-1,-1,2021-08-07 10:48:05,010449
2,3,4,10,5,3,3,0,2021-08-07 10:48:05,010449
0,-1,-3,2,0,0,-1,-1,2021-08-07 10:48:05,010449
-2,0,-2,-6,1,0,-2,-2,2021-08-07 10:48:05,026484
-2,-2,-3,-1,-7,-5,-2,-4,2021-08-07 10:48:05,026484
-1,-1,-1,-9,-6,1,-1,0,2021-08-07 10:48:05,058473
4,6,9,20,26,10,5,2,2021-08-07 10:48:05,074686
0,2,3,11,2,1,2,1,2021-08-07 10:48:05,074686
-1,-2,-2,-3,-4,-2,-2,-1,2021-08-07 10:48:05,074686
-1,-2,-6,-4,-10,-8,-4,-3,2021-08-07 10:48:05,074686
-3,-4,-7,-11,-12,-6,-4,-1,2021-08-07 10:48:05,074686
-3,-1,-4,-9,1,-1,-2,-1,2021-08-07 10:48:05,074686
1,1,7,15,11,5,1,0,2021-08-07 10:48:05,074686
1,0,-2,1,1,-1,1,1,2021-08-07 10:48:05,075446
-1,0,-2,3,0,1,0,0,2021-08-07 10:48:05,075446
-1,-1,1,-5,-5,-2,-1,-2,2021-08-07 10:48:05,075446
-1,-1,2,1,-6,-2,-2,-2,2021-08-07 10:48:05,075446
1,2,2,5,8,3,2,0,2021-08-07 10:48:05,106008
1,0,-3,-2,-5,-1,0,-2,2021-08-07 10:48:05,121999
-4,-8,-13,-27,-17,-9,-4,-5,2021-08-07 10:48:05,137998
-1,-1,-3,-9,1,-1,-1,-1,2021-08-07 10:48:05,137998
1,0,3,8,6,5,-2,0,2021-08-07 10:48:05,137998
0,-1,4,3,-2,-1,-1,-1,2021-08-07 10:48:05,137998
3,1,1,7,2,2,4,2,2021-08-07 10:48:05,137998
-1,-3,-2,-5,-6,-3,-2,-1,2021-08-07 10:48:05,137998
-1,-1,4,13,18,7,3,0,2021-08-07 10:48:05,137998
-3,-2,-2,-1,1,-1,-3,-3,2021-08-07 10:48:05,137998
-1,1,4,9,3,0,-2,-2,2021-08-07 10:48:05,138988
-3,-2,-3,-6,-10,-5,-3,-3,2021-08-07 10:48:05,138988
-3,-2,-3,-14,-25,-12,-7,-4,2021-08-07 10:48:05,153998
2,2,3,8,19,9,2,1,2021-08-07 10:48:05,153998
3,2,-1,8,6,2,1,3,2021-08-07 10:48:05,170007
0,0,-3,-2,2,-1,0,0,2021-08-07 10:48:05,170007
-1,-2,-2,1,-5,-3,-1,-1,2021-08-07 10:48:05,185999
-5,-4,-3,-12,-14,-7,-3,-1,2021-08-07 10:48:05,185999
0,1,5,3,1,1,0,1,2021-08-07 10:48:05,185999
1,0,-3,6,5,2,1,1,2021-08-07 10:48:05,185999
-2,-3,-7,-16,-9,-4,-3,-1,2021-08-07 10:48:05,231959
-1,-2,-1,-6,-5,-3,-1,-2,2021-08-07 10:48:05,247960
0,1,1,8,7,4,0,0,2021-08-07 10:48:05,263959
-2,-2,-2,0,-4,-1,-3,1,2021-08-07 10:48:05,279996
-3,-3,-2,-3,-4,-1,-2,-3,2021-08-07 10:48:05,295996
-1,1,-2,-1,-3,-2,0,1,2021-08-07 10:48:05,295996
1,1,2,4,6,3,1,1,2021-08-07 10:48:05,295996
-1,-2,0,-1,5,3,1,0,2021-08-07 10:48:05,295996
0,0,1,2,2,-1,1,-1,2021-08-07 10:48:05,295996
-5,-2,2,-3,-5,-4,-3,-2,2021-08-07 10:48:05,295996
-4,-5,-5,-10,-11,-6,-4,-3,2021-08-07 10:48:05,295996
-1,0,-1,-1,0,0,0,0,2021-08-07 10:48:05,296960
-2,-2,0,-4,-3,-3,-1,-2,2021-08-07 10:48:05,296960
3,2,4,10,11,6,2,3,2021-08-07 10:48:05,296960
0,-1,0,-6,-4,-1,-2,-1,2021-08-07 10:48:05,296960
-3,-1,-1,2,-1,0,-2,-2,2021-08-07 10:48:05,296960
-1,-1,-2,-3,-3,-2,-1,0,2021-08-07 10:48:05,296960
-1,-3,0,3,-4,-2,-2,-1,2021-08-07 10:48:05,296960
0,0,1,5,0,-2,-1,0,2021-08-07 10:48:05,296960
1,-1,-3,-8,-4,-2,-2,0,2021-08-07 10:48:05,297957
-1,0,-3,-5,1,2,2,2,2021-08-07 10:48:05,297957
-1,-2,-3,-8,1,0,0,0,2021-08-07 10:48:05,297957
-1,1,3,5,4,2,1,-1,2021-08-07 10:48:05,311985
-2,-1,1,2,-4,-3,-2,-1,2021-08-07 10:48:05,327986
-3,-2,1,1,-4,-3,-1,0,2021-08-07 10:48:05,327986
2,1,0,5,2,2,-2,0,2021-08-07 10:48:05,327986
0,-1,-2,-2,-4,-1,0,-1,2021-08-07 10:48:05,327986
-2,-1,-1,-4,-3,-3,-1,-2,2021-08-07 10:48:05,327986
1,-1,-1,3,4,2,0,-1,2021-08-07 10:48:05,343986
0,1,-2,-6,-7,-4,0,-1,2021-08-07 10:48:05,343986
-2,-1,-2,-4,-6,-5,-2,-2,2021-08-07 10:48:05,343986
-1,0,0,3,2,0,2,-1,2021-08-07 10:48:05,343986
0,0,-1,-2,0,0,0,0,2021-08-07 10:48:05,359996
-4,-4,-5,-4,-7,-5,-4,-4,2021-08-07 10:48:05,359996
1,3,5,9,2,2,0,1,2021-08-07 10:48:05,375959
1,1,1,-3,9,4,1,1,2021-08-07 10:48:05,391961
0,-1,-5,-3,0,-2,-2,-2,2021-08-07 10:48:05,391961
-1,-3,-4,-11,-7,-3,-1,-1,2021-08-07 10:48:05,391961
-4,-5,-4,-5,-5,-4,-4,-4,2021-08-07 10:48:05,391961
-1,1,5,5,-4,-1,0,0,2021-08-07 10:48:05,391961
-1,0,2,9,9,5,1,-1,2021-08-07 10:48:05,391961
-1,-1,-2,-1,-1,0,-2,-3,2021-08-07 10:48:05,392960
-1,-1,-2,-5,-3,-1,-2,0,2021-08-07 10:48:05,407960
0,-1,-1,-2,-3,-1,-3,0,2021-08-07 10:48:05,407960
0,1,1,5,1,-1,0,-1,2021-08-07 10:48:05,423986
-2,-1,-2,-6,-2,-1,0,-3,2021-08-07 10:48:05,423986
0,0,-1,-4,-2,-2,2,1,2021-08-07 10:48:05,423986
-1,-2,0,-1,-3,-2,-1,-1,2021-08-07 10:48:05,423986
0,-1,-1,0,-5,-3,-2,0,2021-08-07 10:48:05,439985
-1,-1,-1,0,-1,0,-1,0,2021-08-07 10:48:05,439985
-1,1,0,8,11,2,-1,0,2021-08-07 10:48:05,439985
1,1,1,4,2,1,0,1,2021-08-07 10:48:05,439985
1,2,1,6,6,1,1,0,2021-08-07 10:48:05,470984
-1,0,1,4,-1,1,2,1,2021-08-07 10:48:05,470984
0,-1,-1,-3,-6,-4,-2,0,2021-08-07 10:48:05,470984
-1,-1,-3,-4,-6,-3,-1,-3,2021-08-07 10:48:05,470984
-1,-2,-1,-2,1,1,-1,1,2021-08-07 10:48:05,487007
-2,-4,-1,-5,-4,-4,-3,-3,2021-08-07 10:48:05,502957
-2,-4,-4,-11,-3,1,-3,-1,2021-08-07 10:48:05,502957
-4,-2,-8,0,-3,-2,0,-2,2021-08-07 10:48:05,502957
-4,-1,0,-3,-5,-2,-2,-2,2021-08-07 10:48:05,502957
1,1,2,5,2,2,0,-1,2021-08-07 10:48:05,502957
-2,-1,0,-3,-7,-4,-2,-3,2021-08-07 10:48:05,502957
4,6,11,15,21,10,5,4,2021-08-07 10:48:05,519007
0,-2,0,3,-1,-3,-1,-1,2021-08-07 10:48:05,534997
-1,-3,-1,-4,0,-3,-2,-2,2021-08-07 10:48:05,534997
-1,-2,-2,-2,-6,-3,-1,1,2021-08-07 10:48:05,534997
-3,-5,-4,-10,-6,-4,-3,-2,2021-08-07 10:48:05,534997
2,1,2,4,2,2,1,2,2021-08-07 10:48:05,534997
-1,-1,-2,-1,-2,-1,-2,-2,2021-08-07 10:48:05,534997
-2,-2,-5,-10,-9,-4,-2,-2,2021-08-07 10:48:05,566959
0,-2,0,6,6,1,-2,-1,2021-08-07 10:48:05,567957
3,-1,3,2,1,1,0,0,2021-08-07 10:48:05,567957
1,0,-1,1,3,1,1,3,2021-08-07 10:48:05,567957
-2,-1,-3,1,2,0,0,-1,2021-08-07 10:48:05,567957
-3,-3,-5,-11,-14,-7,-3,-3,2021-08-07 10:48:05,567957
-2,-2,-3,-1,4,1,-3,-2,2021-08-07 10:48:05,582956
1,3,1,3,-2,2,0,1,2021-08-07 10:48:05,598961
3,2,9,13,14,7,3,0,2021-08-07 10:48:05,614986
1,2,4,9,4,3,2,1,2021-08-07 10:48:05,614986
-3,-5,-9,-14,-11,-6,-4,-4,2021-08-07 10:48:05,614986
-3,-4,-6,-7,-8,-5,-3,-2,2021-08-07 10:48:05,614986
-2,-2,-1,-7,-8,-2,-2,-1,2021-08-07 10:48:05,614986
3,2,3,7,9,5,0,1,2021-08-07 10:48:05,614986
-2,0,-1,-3,0,0,-2,-1,2021-08-07 10:48:05,630986
1,0,-1,0,-1,0,0,0,2021-08-07 10:48:05,630986
0,-1,-2,-2,-4,-3,1,-2,2021-08-07 10:48:05,630986
0,-1,3,-10,-6,-2,-1,0,2021-08-07 10:48:05,630986
-3,-1,-10,-4,-4,-2,-2,-1,2021-08-07 10:48:05,630986
1,1,1,-2,3,2,-1,-2,2021-08-07 10:48:05,630986
0,1,0,2,0,-1,-1,-1,2021-08-07 10:48:05,646959
-3,-2,-4,-8,-12,-7,-2,-2,2021-08-07 10:48:05,661991
1,0,3,7,7,5,0,-2,2021-08-07 10:48:05,678001
1,0,1,4,1,0,1,2,2021-08-07 10:48:05,678001
0,-1,0,4,6,3,0,-1,2021-08-07 10:48:05,678001
-2,-2,-3,-2,-4,-4,-3,-3,2021-08-07 10:48:05,678001
-3,-3,-4,-9,-12,-4,-3,-1,2021-08-07 10:48:05,678001
-2,-1,-1,-1,-1,-4,-2,-2,2021-08-07 10:48:05,678001
3,6,2,7,9,3,2,3,2021-08-07 10:48:05,678985
-1,-1,1,4,4,1,0,0,2021-08-07 10:48:05,678985
1,2,4,8,7,2,3,1,2021-08-07 10:48:05,693996
-4,-3,-1,-3,-6,-2,-1,-3,2021-08-07 10:48:05,693996
-1,-2,-6,-8,-3,-2,-1,-1,2021-08-07 10:48:05,709996
-3,-4,-5,-5,-2,-1,-3,-3,2021-08-07 10:48:05,709996
0,0,1,-2,0,1,1,0,2021-08-07 10:48:05,725959
-1,-2,-1,2,0,-1,0,-1,2021-08-07 10:48:05,726962
-1,-3,-1,-1,-1,-2,-3,-3,2021-08-07 10:48:05,726962
1,0,-1,1,0,-1,1,0,2021-08-07 10:48:05,726962
1,0,2,-1,-2,-2,0,1,2021-08-07 10:48:05,741960
-3,-1,-2,1,-1,-1,-2,-1,2021-08-07 10:48:05,741960
1,0,2,6,10,4,0,1,2021-08-07 10:48:05,741960
-2,-2,-1,2,-1,-2,-2,-1,2021-08-07 10:48:05,741960
-4,-3,-6,-11,-14,-5,-3,-3,2021-08-07 10:48:05,757961
-1,-1,-3,-6,3,2,1,-1,2021-08-07 10:48:05,773995
-2,-1,-2,-5,-7,-5,-3,-1,2021-08-07 10:48:05,773995
0,0,1,4,4,0,-1,1,2021-08-07 10:48:05,773995
2,1,3,7,7,2,1,0,2021-08-07 10:48:05,773995
-1,0,0,-1,0,0,0,0,2021-08-07 10:48:05,773995
-2,-3,0,0,-3,-2,-1,-1,2021-08-07 10:48:05,788985
-1,-1,-5,-4,-6,-1,0,-1,2021-08-07 10:48:05,804985
0,0,-2,-5,-5,-2,-2,0,2021-08-07 10:48:05,804985
0,-3,3,-4,-2,0,-1,-1,2021-08-07 10:48:05,804985
0,-3,-6,0,0,0,1,1,2021-08-07 10:48:05,804985
-2,0,1,1,1,-2,-2,-3,2021-08-07 10:48:05,804985
-1,-1,0,0,0,0,-1,-2,2021-08-07 10:48:05,820995
2,3,5,4,5,2,1,1,2021-08-07 10:48:05,820995
-1,-1,-2,-3,-5,-3,-2,0,2021-08-07 10:48:05,820995
0,-2,-3,-5,-3,-1,0,-1,2021-08-07 10:48:05,820995
-1,-2,0,-2,0,-3,-2,-2,2021-08-07 10:48:05,836984
-1,-1,-1,1,-3,-3,-1,-1,2021-08-07 10:48:05,836984
-3,-3,-1,-6,-3,-2,-1,-3,2021-08-07 10:48:05,852987
-1,0,-4,-3,-1,1,0,1,2021-08-07 10:48:05,869008
2,3,9,22,20,7,3,1,2021-08-07 10:48:05,884996
0,0,-3,-1,-2,-1,0,0,2021-08-07 10:48:05,884996
-1,-2,-4,-3,-2,0,1,1,2021-08-07 10:48:05,884996
-3,-3,-2,-9,-9,-5,-3,-2,2021-08-07 10:48:05,884996
-2,-3,-4,-9,-9,-5,-3,-3,2021-08-07 10:48:05,884996
-1,1,-2,-2,-3,-2,-3,-1,2021-08-07 10:48:05,884996
2,2,1,6,4,1,0,0,2021-08-07 10:48:05,884996
0,2,2,4,2,3,1,0,2021-08-07 10:48:05,884996
-1,-1,-4,-10,-5,-1,-2,0,2021-08-07 10:48:05,916960
0,-2,3,9,3,0,-1,0,2021-08-07 10:48:05,916960
-3,-3,-3,-12,-10,-5,-2,-2,2021-08-07 10:48:05,916960
1,1,-2,-3,1,0,-2,-1,2021-08-07 10:48:05,916960
0,1,2,5,4,1,1,0,2021-08-07 10:48:05,916960
-2,-3,-5,-9,-7,-4,-2,-2,2021-08-07 10:48:05,916960
0,2,4,5,-4,-1,0,0,2021-08-07 10:48:05,916960
1,-2,-4,2,8,1,0,0,2021-08-07 10:48:05,931995
0,-3,-4,3,5,3,1,1,2021-08-07 10:48:05,947957
-1,-1,-1,-1,-2,0,0,1,2021-08-07 10:48:05,947957
-1,-2,0,-4,-4,-1,0,0,2021-08-07 10:48:05,947957
-3,-3,2,-3,-7,-3,-2,-3,2021-08-07 10:48:05,947957
-3,0,-5,1,-3,-3,-3,-3,2021-08-07 10:48:05,963996
-6,-2,-1,-2,-1,-1,-2,-4,2021-08-07 10:48:05,979962
-2,1,0,7,10,1,-1,-2,2021-08-07 10:48:05,996008
0,-1,-1,-6,-10,-4,-3,-1,2021-08-07 10:48:06,011957
2,0,2,1,3,0,2,1,2021-08-07 10:48:06,027956
0,-1,0,-1,-8,-3,0,-2,2021-08-07 10:48:06,027956
1,1,4,6,3,1,0,-1,2021-08-07 10:48:06,027956
2,-1,-1,-3,0,1,0,2,2021-08-07 10:48:06,027956
1,3,5,10,7,3,1,1,2021-08-07 10:48:06,027956
-3,-3,-7,-13,-6,-4,-4,-2,2021-08-07 10:48:06,042962
-3,-3,-4,-7,-3,-2,-2,-1,2021-08-07 10:48:06,058961
-2,-2,-1,1,-2,-3,-2,-2,2021-08-07 10:48:06,074957
-4,-3,-1,-9,-14,-5,-2,-2,2021-08-07 10:48:06,090960
2,0,0,6,7,4,2,1,2021-08-07 10:48:06,090960
1,0,1,6,5,1,1,0,2021-08-07 10:48:06,090960
-2,-2,0,0,-1,-2,0,1,2021-08-07 10:48:06,090960
-1,0,-2,-5,-6,-3,-3,-3,2021-08-07 10:48:06,090960
1,0,1,3,5,0,-1,0,2021-08-07 10:48:06,090960
-2,-2,-2,-7,-8,-3,-2,0,2021-08-07 10:48:06,091960
-4,-3,-1,-3,-6,-3,-3,-1,2021-08-07 10:48:06,091960
2,3,8,20,22,11,2,1,2021-08-07 10:48:06,105996
0,1,2,3,-2,-2,0,0,2021-08-07 10:48:06,121100
0,0,1,1,2,3,2,2,2021-08-07 10:48:06,121100
-1,-1,-8,-8,-6,-5,-1,-1,2021-08-07 10:48:06,121100
-5,-8,-12,-24,-19,-10,-5,-6,2021-08-07 10:48:06,137098
0,0,0,6,7,3,-1,-1,2021-08-07 10:48:06,137098
1,1,1,2,-1,0,0,0,2021-08-07 10:48:06,137098
-1,-1,3,4,-1,-2,-3,-1,2021-08-07 10:48:06,137098
0,0,-1,3,-2,0,1,1,2021-08-07 10:48:06,137098
1,-2,-5,-14,-8,-3,-1,0,2021-08-07 10:48:06,137098
-2,-2,-3,-7,0,-2,-2,-2,2021-08-07 10:48:06,137098
1,2,1,0,2,0,1,0,2021-08-07 10:48:06,137098
0,0,-1,1,1,0,0,2,2021-08-07 10:48:06,137098
-2,-2,1,2,-2,-1,-2,-1,2021-08-07 10:48:06,137098
-4,-4,-7,-13,-7,-2,-2,-2,2021-08-07 10:48:06,138103
1,1,1,5,4,3,2,0,2021-08-07 10:48:06,138103
1,0,3,12,9,3,3,1,2021-08-07 10:48:06,138103
-2,0,0,-2,-6,-3,-3,-1,2021-08-07 10:48:06,138103
1,-2,-1,-4,-4,-5,-3,-1,2021-08-07 10:48:06,153066
-1,1,0,2,5,0,0,0,2021-08-07 10:48:06,154102
