EMG 1,EMG 2,EMG 3,EMG 4,EMG 5,EMG 6,EMG 7,EMG 8,Timestamp,Milliseconds
-2,-1,-2,-2,-5,-1,1,1,2021-08-07 10:49:49,576018
-5,-6,-6,-10,-11,-5,-3,-3,2021-08-07 10:49:49,576018
0,1,2,9,14,4,1,0,2021-08-07 10:49:49,576018
-2,0,-1,2,2,1,-2,-1,2021-08-07 10:49:49,592018
1,-1,-1,-4,-6,-4,0,-1,2021-08-07 10:49:49,608017
0,-2,0,2,0,1,3,2,2021-08-07 10:49:49,608017
2,3,3,2,-1,6,8,5,2021-08-07 10:49:49,608017
-3,-2,-1,4,17,5,-3,-4,2021-08-07 10:49:49,608017
-3,1,2,7,3,-7,-8,-5,2021-08-07 10:49:49,608017
-5,-5,-5,-6,-7,-9,-5,-5,2021-08-07 10:49:49,608017
1,2,0,-10,-8,-3,1,0,2021-08-07 10:49:49,608017
3,0,-4,-4,-11,0,6,5,2021-08-07 10:49:49,608017
-1,-1,-1,1,7,7,1,1,2021-08-07 10:49:49,608017
-3,0,-1,0,-3,-8,-8,-6,2021-08-07 10:49:49,609018
-4,-5,-4,-2,-2,-5,-4,-5,2021-08-07 10:49:49,624019
1,-1,-1,-5,-4,0,0,2,2021-08-07 10:49:49,624019
-1,-1,-4,-11,-11,-4,-1,-3,2021-08-07 10:49:49,624019
2,1,0,3,4,4,0,1,2021-08-07 10:49:49,624019
1,1,4,11,5,0,1,-2,2021-08-07 10:49:49,656018
-4,-3,0,5,12,4,2,-1,2021-08-07 10:49:49,672020
-2,-2,-5,-18,-27,-10,-3,-2,2021-08-07 10:49:49,687019
8,11,13,29,38,17,5,6,2021-08-07 10:49:49,687019
-1,0,-2,-5,-7,-5,-2,-2,2021-08-07 10:49:49,703017
-5,-6,-5,-10,-7,-3,-4,-3,2021-08-07 10:49:49,703017
-2,-2,-5,-10,-11,-5,-2,-3,2021-08-07 10:49:49,703017
1,1,2,11,7,1,-1,0,2021-08-07 10:49:49,703017
-3,-2,-1,3,2,2,-2,-2,2021-08-07 10:49:49,703017
1,1,1,3,0,0,0,0,2021-08-07 10:49:49,703017
-5,-4,-9,-12,-11,-6,-2,-2,2021-08-07 10:49:49,703017
3,2,8,13,12,6,5,3,2021-08-07 10:49:49,704019
1,0,2,1,2,1,0,0,2021-08-07 10:49:49,719019
-4,-2,-1,4,3,-2,-3,-3,2021-08-07 10:49:49,719019
2,0,0,-1,-2,-1,-2,0,2021-08-07 10:49:49,719019
-3,-2,-3,-7,-12,-7,-3,-3,2021-08-07 10:49:49,719019
-4,-5,-9,-16,-13,-8,-4,-2,2021-08-07 10:49:49,735019
3,3,5,5,6,7,4,2,2021-08-07 10:49:49,751017
-1,-1,0,12,25,8,0,-2,2021-08-07 10:49:49,751017
1,0,0,3,7,3,1,0,2021-08-07 10:49:49,751017
-2,-1,-1,-3,-4,-3,-1,-2,2021-08-07 10:49:49,751017
-4,-8,-8,-14,-22,-11,-4,-5,2021-08-07 10:49:49,751017
2,3,1,-9,-9,-3,0,1,2021-08-07 10:49:49,782017
-2,-2,-4,-9,-7,-2,-3,-2,2021-08-07 10:49:49,798017
0,-1,0,6,3,1,1,-1,2021-08-07 10:49:49,798017
-1,-2,-4,-6,-7,-5,-4,-1,2021-08-07 10:49:49,798017
-2,-2,0,7,6,3,1,-1,2021-08-07 10:49:49,798017
-2,0,-1,3,2,0,0,-1,2021-08-07 10:49:49,798017
-1,-2,-3,-9,-10,-3,-4,-1,2021-08-07 10:49:49,798017
2,3,1,-1,0,1,3,2,2021-08-07 10:49:49,798017
2,3,8,16,13,5,3,2,2021-08-07 10:49:49,814017
-4,-3,-3,-10,-7,-2,-3,-2,2021-08-07 10:49:49,830018
0,-1,-3,1,0,0,0,-1,2021-08-07 10:49:49,846019
1,-1,0,-2,-2,0,1,0,2021-08-07 10:49:49,846019
-1,-3,-1,4,-1,-3,0,-1,2021-08-07 10:49:49,846019
0,0,2,8,10,2,0,0,2021-08-07 10:49:49,846019
4,3,6,7,6,3,2,2,2021-08-07 10:49:49,846019
-3,-5,-6,-10,-10,-6,-5,-3,2021-08-07 10:49:49,846019
-3,-2,-2,-5,-7,-3,-3,-2,2021-08-07 10:49:49,847018
-3,-3,-5,-5,-5,-1,0,-2,2021-08-07 10:49:49,862019
-5,-5,-11,-22,-35,-16,-8,-3,2021-08-07 10:49:49,862019
1,5,4,11,23,10,5,3,2021-08-07 10:49:49,862019
1,0,4,17,37,13,3,-1,2021-08-07 10:49:49,862019
1,1,0,-2,-4,-2,-1,1,2021-08-07 10:49:49,862019
-1,-1,1,7,7,3,0,-1,2021-08-07 10:49:49,862019
-6,-6,-7,-15,-26,-12,-7,-4,2021-08-07 10:49:49,862019
1,2,-1,-7,-17,-5,-2,0,2021-08-07 10:49:49,908019
-1,-2,-3,-5,1,-2,0,-2,2021-08-07 10:49:49,923048
-1,1,1,4,1,0,2,-2,2021-08-07 10:49:49,923048
-2,1,3,11,9,4,-2,-1,2021-08-07 10:49:49,923048
-2,-3,-5,-5,-9,-4,-2,-1,2021-08-07 10:49:49,923048
-1,-2,-2,-4,-7,-4,-2,-2,2021-08-07 10:49:49,923048
-1,1,0,0,5,2,2,1,2021-08-07 10:49:49,923048
0,0,3,11,19,4,0,1,2021-08-07 10:49:49,924047
0,1,-1,-2,-6,-3,-2,0,2021-08-07 10:49:49,924047
0,1,-2,-6,-12,-5,-2,1,2021-08-07 10:49:49,924047
5,4,6,13,17,7,4,3,2021-08-07 10:49:49,924047
-3,-3,-5,-9,-14,-6,-2,-3,2021-08-07 10:49:49,924047
-2,-4,-4,0,3,1,-1,0,2021-08-07 10:49:49,955048
0,-3,-3,-4,-5,-2,0,-1,2021-08-07 10:49:49,955048
-5,-7,-4,5,9,4,0,-3,2021-08-07 10:49:49,955048
-2,-1,0,0,-1,-1,-3,-5,2021-08-07 10:49:49,955048
-3,0,-1,-7,-11,-5,-2,-3,2021-08-07 10:49:49,971048
1,0,1,2,0,-1,-3,-2,2021-08-07 10:49:49,971048
1,4,3,5,0,-1,-1,2,2021-08-07 10:49:49,971048
-1,-2,-4,-7,-9,-5,-2,0,2021-08-07 10:49:49,971048
-2,-3,-6,-10,-12,-6,-2,-1,2021-08-07 10:49:49,987046
1,2,5,14,17,9,2,1,2021-08-07 10:49:49,987046
-1,-4,-3,-5,-2,-2,-1,-2,2021-08-07 10:49:49,987046
3,4,3,4,6,3,2,3,2021-08-07 10:49:49,987046
-5,-6,-6,-11,-10,-4,-3,-4,2021-08-07 10:49:50,019049
0,0,1,3,2,1,1,0,2021-08-07 10:49:50,035048
3,3,4,2,4,2,2,1,2021-08-07 10:49:50,035048
1,0,2,9,8,1,0,-1,2021-08-07 10:49:50,035048
1,0,0,0,0,1,-2,-2,2021-08-07 10:49:50,035048
-2,-2,-2,-5,-7,-3,-1,-1,2021-08-07 10:49:50,035048
-3,-3,-3,-7,-5,-4,-1,-2,2021-08-07 10:49:50,036048
0,-1,-2,-1,3,1,1,0,2021-08-07 10:49:50,036048
-1,0,0,1,1,-1,-1,-1,2021-08-07 10:49:50,051047
-2,-4,-3,-7,-6,-3,-1,-3,2021-08-07 10:49:50,051047
-1,0,0,1,1,0,-2,-2,2021-08-07 10:49:50,051047
0,2,0,-3,-3,-1,-1,-1,2021-08-07 10:49:50,051047
1,1,3,12,4,1,1,0,2021-08-07 10:49:50,067047
-1,-1,-3,-8,-4,-2,-2,-1,2021-08-07 10:49:50,082048
-3,-3,-3,-4,-1,-1,-3,-1,2021-08-07 10:49:50,097048
0,-1,2,7,-5,-4,-2,-2,2021-08-07 10:49:50,097048
1,0,0,-5,-6,-2,-2,-2,2021-08-07 10:49:50,097048
-1,-2,-4,-11,-12,-4,-1,0,2021-08-07 10:49:50,097048
3,5,12,37,52,16,6,3,2021-08-07 10:49:50,097048
-4,-4,-5,-8,-7,-5,-4,-3,2021-08-07 10:49:50,097048
-4,0,-1,-7,-8,-5,-3,-1,2021-08-07 10:49:50,113046
-1,-1,-2,-4,-14,-8,-2,-1,2021-08-07 10:49:50,129046
-1,-1,-5,-11,-11,-3,-2,-1,2021-08-07 10:49:50,129318
-1,0,-2,-2,-2,0,-1,-2,2021-08-07 10:49:50,129318
0,0,1,-1,2,-1,1,0,2021-08-07 10:49:50,129318
-3,-3,-5,-9,-6,-3,-2,-2,2021-08-07 10:49:50,129318
1,2,2,5,2,2,1,2,2021-08-07 10:49:50,129318
-1,-1,-1,1,2,0,0,-2,2021-08-07 10:49:50,129318
0,0,1,6,5,2,1,2,2021-08-07 10:49:50,144561
-1,2,1,5,8,3,1,0,2021-08-07 10:49:50,160559
-1,-3,-5,-18,-19,-8,-3,-2,2021-08-07 10:49:50,160559
-3,-3,-6,-13,-8,-4,-2,-1,2021-08-07 10:49:50,160559
1,-1,0,3,11,4,1,0,2021-08-07 10:49:50,176561
-3,-2,-1,-2,-8,-6,-2,-4,2021-08-07 10:49:50,176561
0,-1,2,6,15,6,5,2,2021-08-07 10:49:50,176561
0,0,0,0,0,0,0,0,2021-08-07 10:49:50,176561
-2,-5,-5,-6,-6,-3,-2,-3,2021-08-07 10:49:50,192561
1,2,4,7,7,0,0,0,2021-08-07 10:49:50,208559
-4,-3,-8,-15,-17,-8,-5,-4,2021-08-07 10:49:50,224561
1,-1,-1,-3,-3,-2,0,1,2021-08-07 10:49:50,224561
5,5,5,8,9,4,3,3,2021-08-07 10:49:50,224561
-1,-1,1,0,-1,3,0,-1,2021-08-07 10:49:50,224561
-4,-4,-7,-11,-19,-10,-5,-6,2021-08-07 10:49:50,224561
-1,-1,0,2,14,6,1,1,2021-08-07 10:49:50,224561
0,-1,1,5,7,1,1,0,2021-08-07 10:49:50,224561
0,1,2,4,9,5,1,3,2021-08-07 10:49:50,225561
0,0,1,-2,-8,-5,-2,-1,2021-08-07 10:49:50,225561
-1,-1,-1,-2,-7,-3,-1,-1,2021-08-07 10:49:50,225561
-5,-6,-9,-21,-24,-10,-6,-5,2021-08-07 10:49:50,255560
3,4,7,17,23,11,6,4,2021-08-07 10:49:50,271560
-1,0,2,8,10,6,0,-1,2021-08-07 10:49:50,287560
0,-1,1,2,-1,-2,-1,0,2021-08-07 10:49:50,287560
-2,-3,-2,-1,0,-2,-2,-1,2021-08-07 10:49:50,287560
-6,-5,-8,-12,-17,-9,-5,-3,2021-08-07 10:49:50,287560
-2,-3,-7,-15,-16,-7,-3,-2,2021-08-07 10:49:50,287560
4,6,9,21,27,12,4,2,2021-08-07 10:49:50,288560
2,2,-1,2,0,1,0,0,2021-08-07 10:49:50,288560
-2,-5,-7,-5,-2,-3,-2,-3,2021-08-07 10:49:50,288560
1,1,2,-6,-3,-1,-2,0,2021-08-07 10:49:50,303562
-3,0,-3,0,-6,-3,-3,0,2021-08-07 10:49:50,319561
-4,-4,-3,-8,-5,0,-1,-1,2021-08-07 10:49:50,335561
0,1,2,7,11,3,1,2,2021-08-07 10:49:50,351561
-1,-1,0,6,4,2,0,-1,2021-08-07 10:49:50,351561
-2,-2,-4,-6,-6,-3,-1,-3,2021-08-07 10:49:50,351561
1,2,3,0,-8,-3,-2,2,2021-08-07 10:49:50,351561
-3,-5,-9,-24,-21,-6,-3,-3,2021-08-07 10:49:50,351561
4,4,12,34,39,15,5,1,2021-08-07 10:49:50,351561
-1,-2,-2,2,2,2,2,-1,2021-08-07 10:49:50,351561
1,0,-1,-2,-1,6,11,4,2021-08-07 10:49:50,351561
0,-1,-3,-10,-12,-4,-5,-2,2021-08-07 10:49:50,352561
-6,-2,-5,-11,-12,-21,-20,-10,2021-08-07 10:49:50,352561
-2,-2,0,-4,-2,-8,-5,-4,2021-08-07 10:49:50,352561
-1,-1,0,1,6,0,-1,0,2021-08-07 10:49:50,367560
0,0,-3,-3,-8,1,4,1,2021-08-07 10:49:50,367560
1,1,3,8,15,11,9,4,2021-08-07 10:49:50,383561
0,-1,-1,-1,-3,1,1,0,2021-08-07 10:49:50,398559
-1,0,-1,-2,-4,-3,-3,-2,2021-08-07 10:49:50,414561
2,3,2,4,3,-1,0,0,2021-08-07 10:49:50,430561
-2,-3,-4,-8,-15,-6,-4,-3,2021-08-07 10:49:50,430561
-7,-7,-9,-24,-23,-12,-5,-3,2021-08-07 10:49:50,430561
7,7,11,22,33,15,6,6,2021-08-07 10:49:50,430561
2,4,7,18,18,6,2,3,2021-08-07 10:49:50,430561
-1,-2,-4,-13,-14,-6,0,-1,2021-08-07 10:49:50,431562
-6,-7,-6,-9,-14,-6,-5,-6,2021-08-07 10:49:50,431562
-4,-4,-8,-14,-13,-4,-5,-2,2021-08-07 10:49:50,446561
2,3,8,17,16,4,0,2,2021-08-07 10:49:50,446561
1,1,0,4,1,2,3,2,2021-08-07 10:49:50,446561
0,-2,-2,-2,-2,-1,-3,-2,2021-08-07 10:49:50,446561
-7,-7,-6,-7,-13,-11,-9,-7,2021-08-07 10:49:50,446561
-2,2,-1,1,3,-1,-2,1,2021-08-07 10:49:50,446561
-1,-2,-2,-7,-5,1,2,1,2021-08-07 10:49:50,447563
1,2,2,4,5,4,2,1,2021-08-07 10:49:50,447563
-2,-1,-3,-3,-12,-6,-4,-4,2021-08-07 10:49:50,478559
-2,-4,-1,-1,-1,3,2,-1,2021-08-07 10:49:50,494561
1,3,0,-1,7,5,2,0,2021-08-07 10:49:50,510559
2,2,1,2,2,1,1,1,2021-08-07 10:49:50,510559
-1,2,4,7,9,4,2,0,2021-08-07 10:49:50,510559
-1,-5,-6,-12,-12,-6,-2,-3,2021-08-07 10:49:50,510559
-4,-5,-2,-5,-13,-6,-5,-4,2021-08-07 10:49:50,510559
1,2,2,5,14,7,3,4,2021-08-07 10:49:50,510559
0,1,-1,1,-6,-2,0,0,2021-08-07 10:49:50,511562
0,-2,0,3,0,-2,-3,-2,2021-08-07 10:49:50,511562
-1,0,0,-4,-1,-1,0,0,2021-08-07 10:49:50,511562
0,0,1,-4,-5,-2,0,-1,2021-08-07 10:49:50,511562
-4,-5,-5,-7,-7,-6,-2,-2,2021-08-07 10:49:50,526559
1,0,-1,-5,-6,-1,-1,0,2021-08-07 10:49:50,541560
-1,-3,-3,2,11,3,1,-1,2021-08-07 10:49:50,541560
0,0,1,4,2,1,0,1,2021-08-07 10:49:50,541560
-1,-1,-1,0,4,1,-2,-1,2021-08-07 10:49:50,557560
-1,1,1,2,0,-1,-1,-2,2021-08-07 10:49:50,573560
-2,-4,-4,-8,-6,-4,-2,0,2021-08-07 10:49:50,573560
0,0,0,0,-2,-2,0,-1,2021-08-07 10:49:50,573560
-2,-2,-4,0,0,-1,0,-2,2021-08-07 10:49:50,573560
-5,-6,-8,-15,-14,-8,-4,-5,2021-08-07 10:49:50,573560
3,4,2,-6,-6,2,1,2,2021-08-07 10:49:50,573560
3,3,6,12,8,4,2,1,2021-08-07 10:49:50,573560
0,-1,-1,0,1,0,-1,-1,2021-08-07 10:49:50,589562
-2,-2,-1,0,2,-2,-3,-2,2021-08-07 10:49:50,592561
-2,-1,-3,-6,-8,-4,-4,-1,2021-08-07 10:49:50,593563
-1,-2,-2,-3,-1,0,-2,-1,2021-08-07 10:49:50,593563
-4,-2,-2,-5,-5,-3,-3,-3,2021-08-07 10:49:50,620560
3,3,5,9,13,6,3,1,2021-08-07 10:49:50,635561
0,0,2,-3,-7,-5,-1,-1,2021-08-07 10:49:50,635561
-1,-2,-4,-6,-5,-2,-1,0,2021-08-07 10:49:50,635561
1,2,1,1,6,2,-1,-1,2021-08-07 10:49:50,635561
-2,-1,-6,-6,-3,-2,-1,-1,2021-08-07 10:49:50,635561
-2,-4,-2,5,2,1,1,-2,2021-08-07 10:49:50,635561
1,1,2,5,0,3,2,-1,2021-08-07 10:49:50,635561
-4,-4,-7,-19,-30,-11,-6,-6,2021-08-07 10:49:50,651560
-6,-1,2,8,28,10,-1,-4,2021-08-07 10:49:50,667561
0,4,8,20,17,5,1,-1,2021-08-07 10:49:50,683560
-4,-3,-4,-10,-8,-6,-5,-3,2021-08-07 10:49:50,683560
2,1,3,4,1,-2,0,2,2021-08-07 10:49:50,683560
1,-2,-4,-12,-18,-8,-4,-2,2021-08-07 10:49:50,683560
-2,-3,-7,-14,-15,-4,-4,-2,2021-08-07 10:49:50,683560
1,0,2,7,12,5,0,0,2021-08-07 10:49:50,683560
0,-1,-1,-2,-7,-4,-1,0,2021-08-07 10:49:50,699561
1,1,2,3,4,5,3,2,2021-08-07 10:49:50,715563
0,-1,-1,2,6,3,1,-1,2021-08-07 10:49:50,731559
0,0,1,5,7,2,1,0,2021-08-07 10:49:50,731559
-1,-1,0,1,1,1,-1,0,2021-08-07 10:49:50,731559
-3,-2,-1,0,-8,-5,-2,-3,2021-08-07 10:49:50,731559
-1,-3,-2,-2,-4,-2,0,-2,2021-08-07 10:49:50,747561
2,0,-1,-2,2,0,0,1,2021-08-07 10:49:50,747561
-2,-4,-3,-1,3,2,1,-1,2021-08-07 10:49:50,747561
2,3,5,8,4,1,2,2,2021-08-07 10:49:50,747561
-1,2,1,0,-3,-1,-1,0,2021-08-07 10:49:50,747561
-4,-3,-5,-7,-8,-5,-3,-5,2021-08-07 10:49:50,747561
-2,0,-1,-9,-11,-6,-1,-1,2021-08-07 10:49:50,748561
0,-4,-10,-17,-11,-4,-1,1,2021-08-07 10:49:50,748561
2,4,9,29,41,15,5,2,2021-08-07 10:49:50,748561
-3,-2,-1,0,-4,-2,-1,-2,2021-08-07 10:49:50,748561
3,5,2,4,6,3,1,0,2021-08-07 10:49:50,779559
-3,-3,-4,-10,-18,-8,-5,-4,2021-08-07 10:49:50,794559
-2,-5,-4,-10,-14,-7,-4,-4,2021-08-07 10:49:50,794559
-1,-3,-1,-1,2,0,0,1,2021-08-07 10:49:50,794559
-1,-2,-2,2,2,1,0,-3,2021-08-07 10:49:50,794559
-1,-2,2,0,2,-2,0,-2,2021-08-07 10:49:50,794559
2,0,0,-2,-2,-1,0,-1,2021-08-07 10:49:50,795561
-1,-1,-1,-6,-7,-2,-3,-1,2021-08-07 10:49:50,795561
-2,-1,-1,-2,-1,-1,-2,-1,2021-08-07 10:49:50,810560
1,3,4,14,15,6,2,1,2021-08-07 10:49:50,810560
-4,-5,-7,-10,-14,-7,-4,-4,2021-08-07 10:49:50,810560
4,5,6,4,8,7,5,4,2021-08-07 10:49:50,810560
2,1,6,18,19,6,1,1,2021-08-07 10:49:50,842561
-3,-3,-3,-2,-2,-1,-1,-1,2021-08-07 10:49:50,842561
-5,-5,-4,-6,-17,-8,-3,-3,2021-08-07 10:49:50,842561
0,0,-3,-7,-7,-2,-2,0,2021-08-07 10:49:50,842561
-1,-2,-3,-8,-4,-1,-2,0,2021-08-07 10:49:50,858560
1,1,2,12,11,5,1,-1,2021-08-07 10:49:50,874562
-2,-1,-3,-4,2,-1,0,-1,2021-08-07 10:49:50,890560
-3,-3,-3,-2,-3,-3,-2,-1,2021-08-07 10:49:50,890560
-1,-1,-3,-3,-5,-3,-3,-1,2021-08-07 10:49:50,890560
-1,-2,-3,-8,-5,-3,-1,-2,2021-08-07 10:49:50,890560
1,2,1,-1,-1,2,0,1,2021-08-07 10:49:50,891561
1,2,5,17,15,5,2,1,2021-08-07 10:49:50,891561
-2,-2,-2,3,3,0,0,-3,2021-08-07 10:49:50,891561
-2,-3,-3,-7,-10,-4,-3,-1,2021-08-07 10:49:50,891561
-3,0,-3,-3,-4,0,-2,-1,2021-08-07 10:49:50,891561
0,2,1,-6,-3,0,0,1,2021-08-07 10:49:50,891561
-1,-2,-2,-6,-8,-4,-2,0,2021-08-07 10:49:50,921560
-3,-5,-5,-2,7,3,0,-3,2021-08-07 10:49:50,921560
4,3,4,5,5,5,5,3,2021-08-07 10:49:50,921560
-3,-4,-7,-5,-5,1,2,0,2021-08-07 10:49:50,921560
0,0,2,5,7,2,-4,-2,2021-08-07 10:49:50,937560
-7,-4,-7,-9,-7,-17,-14,-8,2021-08-07 10:49:50,937560
-2,-3,1,0,-5,-7,-4,-2,2021-08-07 10:49:50,937560
-5,-5,-7,-14,-20,-10,-6,-4,2021-08-07 10:49:50,937560
1,0,-3,-2,0,5,7,2,2021-08-07 10:49:50,953559
6,7,13,34,31,21,11,7,2021-08-07 10:49:50,969561
5,1,-2,-3,-2,10,15,10,2021-08-07 10:49:50,985561
2,1,0,0,-3,3,0,1,2021-08-07 10:49:50,985561
-9,-5,-3,-2,-6,-18,-21,-14,2021-08-07 10:49:51,001561
-9,-9,-8,-21,-21,-19,-14,-12,2021-08-07 10:49:51,001561
-1,1,0,0,0,-4,-2,-2,2021-08-07 10:49:51,017561
0,-2,-4,-3,-2,0,3,2,2021-08-07 10:49:51,017561
4,1,1,0,5,10,10,8,2021-08-07 10:49:51,017561
8,7,7,10,6,12,11,9,2021-08-07 10:49:51,017561
-2,-2,-2,-1,-4,-1,-3,-2,2021-08-07 10:49:51,017561
-2,-4,-3,0,7,-2,-7,-7,2021-08-07 10:49:51,017561
-8,-5,-4,-4,-5,-10,-6,-6,2021-08-07 10:49:51,018561
-1,-2,-3,-7,-9,-1,0,3,2021-08-07 10:49:51,018561
-4,-3,-5,-10,-16,-7,-5,-3,2021-08-07 10:49:51,018561
-3,1,7,18,22,2,-2,-5,2021-08-07 10:49:51,018561
-1,1,6,19,21,10,6,1,2021-08-07 10:49:51,034561
1,1,-2,-5,2,4,4,2,2021-08-07 10:49:51,034561
0,-2,-4,-6,-7,0,-1,1,2021-08-07 10:49:51,034561
0,-3,-6,-21,-18,-7,-4,-1,2021-08-07 10:49:51,034561
1,-1,2,6,2,1,0,-2,2021-08-07 10:49:51,063561
-3,-3,-1,-1,-3,-3,-2,-3,2021-08-07 10:49:51,079559
-3,-3,-4,-4,1,-3,-6,-4,2021-08-07 10:49:51,095560
2,3,3,1,-1,0,3,1,2021-08-07 10:49:51,095560
2,1,0,-4,-1,7,6,5,2021-08-07 10:49:51,095560
0,-3,-4,-5,-8,-6,-5,-4,2021-08-07 10:49:51,095560
-5,-4,-1,-4,-6,-7,-7,-5,2021-08-07 10:49:51,095560
-1,0,4,14,15,6,3,1,2021-08-07 10:49:51,095560
0,2,-1,-6,-10,0,2,3,2021-08-07 10:49:51,095560
2,3,2,6,4,2,1,0,2021-08-07 10:49:51,096560
-2,-3,-6,-11,-3,-4,-4,-4,2021-08-07 10:49:51,096560
1,1,3,6,0,0,2,2,2021-08-07 10:49:51,096560
0,1,-4,-3,10,2,0,-1,2021-08-07 10:49:51,111561
-2,-1,1,4,-3,-2,-3,-1,2021-08-07 10:49:51,111561
1,1,4,7,10,4,4,0,2021-08-07 10:49:51,111561
-1,-1,-2,-1,-8,-4,-3,-3,2021-08-07 10:49:51,111561
-2,-1,-3,-3,-6,-3,-1,0,2021-08-07 10:49:51,141559
-3,-3,-5,-8,-11,-6,-4,-4,2021-08-07 10:49:51,157560
0,2,-1,-8,-7,-3,-2,0,2021-08-07 10:49:51,157560
-4,-5,-3,3,5,-3,-3,-3,2021-08-07 10:49:51,157560
0,-1,-3,-4,-3,-2,-1,-1,2021-08-07 10:49:51,157560
-1,0,-1,-2,3,2,2,0,2021-08-07 10:49:51,157560
-2,0,1,1,-4,-3,-1,-1,2021-08-07 10:49:51,157560
-2,-1,-2,-7,-2,-1,0,-3,2021-08-07 10:49:51,157560
2,1,3,0,-7,-3,-1,0,2021-08-07 10:49:51,189560
0,-1,-4,-11,-6,-3,-1,0,2021-08-07 10:49:51,204561
0,-3,0,5,5,1,-1,-1,2021-08-07 10:49:51,204561
-2,-3,-3,-5,0,-2,-3,-2,2021-08-07 10:49:51,204561
-2,0,2,5,0,0,0,-2,2021-08-07 10:49:51,204561
-4,-3,-3,-4,-7,-4,-4,-3,2021-08-07 10:49:51,204561
0,1,1,-1,-5,-2,-1,1,2021-08-07 10:49:51,219560
-4,0,-2,1,5,-2,-3,-2,2021-08-07 10:49:51,219560
2,1,1,5,7,5,1,-1,2021-08-07 10:49:51,219560
2,0,-2,-2,-1,-1,1,2,2021-08-07 10:49:51,219560
-3,-4,-5,-6,-8,-7,-5,-4,2021-08-07 10:49:51,235559
-3,-3,-4,-12,-11,-2,-2,-2,2021-08-07 10:49:51,235559
-1,-1,3,12,7,0,0,1,2021-08-07 10:49:51,235559
1,2,7,13,17,6,2,1,2021-08-07 10:49:51,235559
1,1,2,6,8,4,1,1,2021-08-07 10:49:51,251561
-2,-1,-4,-13,-15,-7,-3,-2,2021-08-07 10:49:51,251561
-1,-1,-1,0,-3,-3,-2,-2,2021-08-07 10:49:51,251561
-1,-2,-4,-3,-5,-3,-3,-1,2021-08-07 10:49:51,251561
-1,-2,-4,-8,-2,-1,2,1,2021-08-07 10:49:51,251561
2,0,-1,3,0,3,1,2,2021-08-07 10:49:51,251561
-1,-2,1,6,7,2,0,-2,2021-08-07 10:49:51,297559
-3,-1,0,1,-3,-2,0,-1,2021-08-07 10:49:51,297559
-2,-1,2,4,3,2,-3,-4,2021-08-07 10:49:51,297559
-6,-5,-3,-5,-8,-6,-4,-5,2021-08-07 10:49:51,297559
0,0,-3,-10,-7,-4,-2,0,2021-08-07 10:49:51,297559
2,3,2,4,3,1,0,0,2021-08-07 10:49:51,297559
-2,0,0,3,1,-3,-2,-1,2021-08-07 10:49:51,298561
1,0,2,0,2,0,-1,0,2021-08-07 10:49:51,298561
-5,-6,-9,-15,-11,-6,-2,-2,2021-08-07 10:49:51,329559
-1,-2,0,4,1,-2,-1,0,2021-08-07 10:49:51,344561
3,0,-1,-4,-4,-1,2,0,2021-08-07 10:49:51,360561
-1,-1,-1,2,-4,-2,0,-1,2021-08-07 10:49:51,360561
0,1,4,5,20,9,3,1,2021-08-07 10:49:51,360561
1,0,1,3,0,0,0,0,2021-08-07 10:49:51,360561
-3,0,-2,-2,-1,-2,-1,-1,2021-08-07 10:49:51,360561
0,0,1,3,-7,-4,-2,-1,2021-08-07 10:49:51,360561
-2,-3,-6,-16,-11,-5,-3,-1,2021-08-07 10:49:51,361561
0,0,3,9,13,8,2,-1,2021-08-07 10:49:51,361561
-2,-1,-2,-1,0,-1,-2,-2,2021-08-07 10:49:51,361561
0,0,1,0,-1,-1,1,2,2021-08-07 10:49:51,361561
-2,-3,-2,-7,-11,-5,-2,-3,2021-08-07 10:49:51,376561
-3,-5,-4,-8,-5,-4,-3,-1,2021-08-07 10:49:51,376561
0,-1,0,3,3,2,0,-2,2021-08-07 10:49:51,392561
1,-1,-2,-4,-6,-2,-1,-2,2021-08-07 10:49:51,392561
0,-2,1,1,3,1,-2,0,2021-08-07 10:49:51,392561
1,0,0,1,0,2,1,2,2021-08-07 10:49:51,392561
-1,0,2,3,1,0,-1,-2,2021-08-07 10:49:51,392561
3,5,5,15,16,8,3,2,2021-08-07 10:49:51,392561
-6,-6,-12,-15,-20,-11,-2,-3,2021-08-07 10:49:51,423560
-2,-4,-3,-5,-8,-6,-3,-2,2021-08-07 10:49:51,439561
-2,-2,0,5,4,2,-2,0,2021-08-07 10:49:51,455561
2,6,8,5,8,4,1,0,2021-08-07 10:49:51,455561
-4,-4,-10,-10,-8,-1,0,-2,2021-08-07 10:49:51,455561
-3,-6,-5,1,0,-3,-2,-1,2021-08-07 10:49:51,455561
0,-1,-3,1,4,1,2,3,2021-08-07 10:49:51,455561
-1,-1,0,-5,-5,-4,-2,-3,2021-08-07 10:49:51,456562
0,3,5,-2,-4,-2,0,-2,2021-08-07 10:49:51,456562
-1,3,-2,0,-4,0,-1,-1,2021-08-07 10:49:51,456562
3,0,5,17,23,9,6,2,2021-08-07 10:49:51,456562
0,1,0,10,10,3,3,1,2021-08-07 10:49:51,456562
0,0,1,-1,-1,-1,-1,-1,2021-08-07 10:49:51,471560
-1,-3,-1,-6,-9,-4,-1,-1,2021-08-07 10:49:51,471560
-2,-4,-4,-8,-13,-6,-3,-3,2021-08-07 10:49:51,472560
-2,-4,-5,-6,-3,-2,-3,-1,2021-08-07 10:49:51,472560
-1,-1,1,1,1,0,1,0,2021-08-07 10:49:51,503562
0,2,-1,-3,6,1,1,0,2021-08-07 10:49:51,503562
-1,-1,-2,0,4,0,-2,0,2021-08-07 10:49:51,519561
-4,-5,-6,-13,-10,-5,-3,-3,2021-08-07 10:49:51,519561
-1,-3,-2,-5,-10,-5,-2,-1,2021-08-07 10:49:51,519561
3,3,7,16,21,11,7,3,2021-08-07 10:49:51,519561
1,2,3,-2,-3,-1,2,1,2021-08-07 10:49:51,519561
-3,-4,-4,-4,-6,-4,-2,-2,2021-08-07 10:49:51,519561
0,-1,0,2,4,1,-1,-3,2021-08-07 10:49:51,535561
-2,-2,-3,-13,-19,-8,-4,-4,2021-08-07 10:49:51,535561
-1,0,-2,-8,-5,-2,-1,-2,2021-08-07 10:49:51,535561
5,6,8,22,28,13,6,4,2021-08-07 10:49:51,535561
-4,-3,-1,7,5,1,-3,-2,2021-08-07 10:49:51,567560
-2,0,-4,-13,-5,-1,-2,-2,2021-08-07 10:49:51,567560
1,0,0,-3,-9,-4,-1,-1,2021-08-07 10:49:51,567560
-3,-5,-7,-15,-19,-10,-4,-5,2021-08-07 10:49:51,567560
0,0,1,6,7,3,2,0,2021-08-07 10:49:51,583560
-3,-3,-2,-5,-6,-1,-2,-2,2021-08-07 10:49:51,583560
-3,-2,-3,-8,-8,-3,-3,-2,2021-08-07 10:49:51,583560
3,1,1,4,11,4,2,2,2021-08-07 10:49:51,583560
1,0,2,6,3,2,0,3,2021-08-07 10:49:51,598562
-1,0,0,-1,-4,-5,-2,-1,2021-08-07 10:49:51,598562
-3,-2,-4,-2,0,-1,-2,-1,2021-08-07 10:49:51,614561
-2,-3,-2,-6,-6,-4,-2,-2,2021-08-07 10:49:51,614561
0,-3,-5,-14,-19,-11,-4,-1,2021-08-07 10:49:51,614561
1,1,2,5,2,1,0,-1,2021-08-07 10:49:51,614561
3,2,5,6,14,8,2,2,2021-08-07 10:49:51,614561
2,2,5,5,1,3,0,-1,2021-08-07 10:49:51,614561
1,2,1,4,13,6,2,0,2021-08-07 10:49:51,646561
-1,0,-2,-5,-11,-4,-2,-2,2021-08-07 10:49:51,661559
-5,-4,-6,-9,-14,-9,-5,-3,2021-08-07 10:49:51,676559
-4,-2,-6,-7,-5,-3,-1,-2,2021-08-07 10:49:51,676559
1,2,2,-1,-3,0,-1,0,2021-08-07 10:49:51,676559
-3,-4,-4,-6,-1,-2,-1,-1,2021-08-07 10:49:51,676559
0,0,1,2,5,1,-1,0,2021-08-07 10:49:51,676559
-3,-4,-2,-5,-6,-2,-3,-2,2021-08-07 10:49:51,676559
-3,-2,-3,-3,-6,-4,-4,-1,2021-08-07 10:49:51,676559
3,3,4,10,6,3,2,2,2021-08-07 10:49:51,677560
-1,0,-1,-2,2,0,0,-2,2021-08-07 10:49:51,677560
-3,-4,-3,-7,-8,-1,0,1,2021-08-07 10:49:51,677560
3,5,8,20,21,8,2,3,2021-08-07 10:49:51,708559
-4,-2,-3,-3,0,-4,-8,-7,2021-08-07 10:49:51,708559
-2,-6,-5,-6,-9,-5,0,-5,2021-08-07 10:49:51,708559
1,2,2,4,-1,0,1,2,2021-08-07 10:49:51,708559
3,3,5,8,4,4,5,4,2021-08-07 10:49:51,724561
1,1,-3,-10,-13,-5,-1,1,2021-08-07 10:49:51,740561
5,5,9,15,20,15,12,6,2021-08-07 10:49:51,756560
-3,-3,-4,-7,-5,-5,-5,-3,2021-08-07 10:49:51,756560
-1,-1,0,-3,-8,-9,-12,-6,2021-08-07 10:49:51,756560
-10,-7,-4,-3,-7,-19,-16,-12,2021-08-07 10:49:51,756560
-5,-6,-8,-14,-18,-11,-6,-4,2021-08-07 10:49:51,756560
1,-3,0,1,6,6,8,4,2021-08-07 10:49:51,756560
2,1,2,1,3,5,4,2,2021-08-07 10:49:51,757561
5,1,1,3,4,5,7,3,2021-08-07 10:49:51,757561
0,-1,-3,-4,-2,0,-2,0,2021-08-07 10:49:51,771562
-2,0,0,4,-1,0,-2,0,2021-08-07 10:49:51,787560
-3,-5,-7,-18,-18,-10,-6,-2,2021-08-07 10:49:51,787560
2,0,1,9,10,8,5,3,2021-08-07 10:49:51,787560
0,0,3,10,4,2,2,0,2021-08-07 10:49:51,787560
2,3,1,3,6,2,-2,-2,2021-08-07 10:49:51,787560
-5,-5,-7,-7,-8,-7,-3,-4,2021-08-07 10:49:51,787560
1,-1,-1,-2,-4,1,2,2,2021-08-07 10:49:51,788562
3,2,1,-1,1,1,1,1,2021-08-07 10:49:51,803560
-4,-5,-3,-3,-4,-5,-5,-4,2021-08-07 10:49:51,819560
-2,-1,-1,-1,-3,-1,-1,0,2021-08-07 10:49:51,819560
0,-2,-1,-2,2,1,0,-1,2021-08-07 10:49:51,819560
-1,-2,-1,-4,-7,-3,-6,-2,2021-08-07 10:49:51,819560
-3,-2,0,3,5,-2,-3,-3,2021-08-07 10:49:51,819560
0,-1,-3,-8,-1,1,2,1,2021-08-07 10:49:51,851561
2,2,6,14,9,6,2,2,2021-08-07 10:49:51,867590
-1,-2,-2,-1,1,-2,-3,-2,2021-08-07 10:49:51,867590
-1,0,-1,-5,-11,-5,-4,-2,2021-08-07 10:49:51,867590
-1,0,0,2,10,4,2,0,2021-08-07 10:49:51,867590
-3,-2,-6,-11,-9,-4,0,1,2021-08-07 10:49:51,867590
1,4,7,14,7,0,-2,-1,2021-08-07 10:49:51,867590
-3,-3,-5,-6,-5,-3,-2,-2,2021-08-07 10:49:51,867590
2,2,0,-1,-1,-1,0,0,2021-08-07 10:49:51,883590
0,-1,1,2,0,1,0,1,2021-08-07 10:49:51,899590
-5,-4,-6,-6,-7,-5,-3,-2,2021-08-07 10:49:51,908589
1,2,1,-1,3,1,2,3,2021-08-07 10:49:51,908589
-2,-3,-3,2,0,-1,-2,-1,2021-08-07 10:49:51,909591
0,0,-2,-7,-2,-2,-1,0,2021-08-07 10:49:51,909591
-1,1,1,-3,-1,-2,0,0,2021-08-07 10:49:51,909591
-2,-3,-3,-8,-8,-4,-3,-3,2021-08-07 10:49:51,909591
0,-2,1,6,10,4,0,-1,2021-08-07 10:49:51,914592
0,1,2,7,4,2,2,1,2021-08-07 10:49:51,914592
0,-2,-1,-1,-4,-1,-1,-1,2021-08-07 10:49:51,914592
-1,-1,0,1,6,2,-1,-1,2021-08-07 10:49:51,914592
-1,-1,-2,-3,-7,-3,-1,-1,2021-08-07 10:49:51,945590
-3,-3,-4,-6,-2,-3,-2,-2,2021-08-07 10:49:51,961590
-2,0,-3,-1,-1,-1,-1,0,2021-08-07 10:49:51,961590
-2,-1,-4,-1,0,-2,0,-2,2021-08-07 10:49:51,961590
-2,-2,-1,-6,-10,-5,-1,0,2021-08-07 10:49:51,961590
3,4,6,15,23,11,6,2,2021-08-07 10:49:51,961590
-3,-4,-6,-11,-11,-5,-3,-4,2021-08-07 10:49:51,961590
-3,-2,-2,0,-3,-3,-1,0,2021-08-07 10:49:51,961590
1,1,2,3,10,3,3,1,2021-08-07 10:49:51,992588
0,-2,-1,-7,-10,-3,-2,-2,2021-08-07 10:49:51,992588
-1,-1,0,1,3,0,-1,0,2021-08-07 10:49:51,992588
2,-1,0,-4,-3,-1,1,-1,2021-08-07 10:49:51,992588
-4,-3,-3,-6,-5,-1,-1,-3,2021-08-07 10:49:51,992588
-1,-2,-1,-6,-6,-3,-1,1,2021-08-07 10:49:51,992588
0,-1,-1,1,3,2,0,-2,2021-08-07 10:49:51,993592
-5,-2,-5,-12,-11,-5,-3,-4,2021-08-07 10:49:51,993592
0,4,5,5,4,2,0,-1,2021-08-07 10:49:52,024590
-1,-2,1,7,2,0,-2,-3,2021-08-07 10:49:52,040590
0,1,2,2,4,1,-1,2,2021-08-07 10:49:52,056590
0,-1,-1,-4,-3,-3,-3,-1,2021-08-07 10:49:52,056590
-2,-2,-4,-3,-3,-2,-2,-2,2021-08-07 10:49:52,056590
-4,-2,-5,-9,-7,-2,0,-2,2021-08-07 10:49:52,056590
0,-1,1,4,0,1,0,0,2021-08-07 10:49:52,056590
2,1,1,1,2,0,1,2,2021-08-07 10:49:52,056590
1,-2,-1,0,0,-2,-1,0,2021-08-07 10:49:52,057590
0,1,1,0,3,1,0,0,2021-08-07 10:49:52,057590
-2,-2,0,1,-4,-1,0,-1,2021-08-07 10:49:52,057590
-1,1,1,5,5,2,1,0,2021-08-07 10:49:52,057590
-1,-2,-3,-2,-5,-2,-2,-1,2021-08-07 10:49:52,087108
-4,-4,-7,-13,-15,-8,-5,-5,2021-08-07 10:49:52,087108
2,3,2,1,7,5,2,3,2021-08-07 10:49:52,087108
-1,-1,4,9,2,1,0,-1,2021-08-07 10:49:52,087108
0,0,-2,-8,-6,-4,-4,0,2021-08-07 10:49:52,087108
1,3,4,14,6,5,3,2,2021-08-07 10:49:52,088108
-1,0,1,8,12,5,3,-1,2021-08-07 10:49:52,088108
0,0,0,0,-2,-1,-1,0,2021-08-07 10:49:52,088108
-4,-5,-7,-18,-12,-4,-2,-3,2021-08-07 10:49:52,119108
-4,-2,-1,3,3,0,-1,-2,2021-08-07 10:49:52,119108
3,4,1,0,-5,-1,-1,1,2021-08-07 10:49:52,119108
0,-1,1,4,2,-1,-1,-3,2021-08-07 10:49:52,119108
-1,1,0,5,7,2,1,1,2021-08-07 10:49:52,151107
-1,-2,-2,-8,-7,-4,-2,-2,2021-08-07 10:49:52,167108
-4,-4,-4,-7,-11,-6,-3,-3,2021-08-07 10:49:52,182108
-2,-1,-3,-5,-6,-2,0,-3,2021-08-07 10:49:52,182108
2,1,3,3,0,1,0,-1,2021-08-07 10:49:52,182108
-1,-1,1,4,11,5,0,-1,2021-08-07 10:49:52,182108
1,-3,-2,-4,-5,-3,0,-1,2021-08-07 10:49:52,182108
0,-1,-2,-8,-12,-4,-2,0,2021-08-07 10:49:52,182108
-1,-2,-2,0,-5,-3,0,-1,2021-08-07 10:49:52,182108
0,-1,0,2,5,1,-1,-1,2021-08-07 10:49:52,182108
-3,-5,-8,-18,-23,-10,-5,-4,2021-08-07 10:49:52,183108
2,1,5,18,29,12,3,1,2021-08-07 10:49:52,183108
2,2,4,6,5,1,1,1,2021-08-07 10:49:52,198108
0,-1,-3,0,-4,-2,-1,0,2021-08-07 10:49:52,198108
0,-1,-2,-1,-1,1,-1,0,2021-08-07 10:49:52,198108
-3,-4,-5,-13,-15,-9,-5,-3,2021-08-07 10:49:52,198108
0,1,1,5,8,2,-1,-1,2021-08-07 10:49:52,230108
-2,-2,-2,-5,-5,-4,-1,-2,2021-08-07 10:49:52,230108
-1,-1,0,-2,-1,-1,0,-2,2021-08-07 10:49:52,230108
0,1,-1,-4,0,1,-1,0,2021-08-07 10:49:52,230108
-1,-1,0,6,3,4,1,-1,2021-08-07 10:49:52,230108
-1,-3,-3,-6,-6,-4,-1,-1,2021-08-07 10:49:52,230108
-2,-1,-2,2,1,1,-2,-2,2021-08-07 10:49:52,231108
-2,-2,1,0,-3,-2,-2,-2,2021-08-07 10:49:52,231108
4,2,3,8,6,1,2,1,2021-08-07 10:49:52,261107
-1,-2,-5,-7,-4,-2,-2,-3,2021-08-07 10:49:52,276108
-1,-2,-3,-4,-3,-2,-3,0,2021-08-07 10:49:52,276108
3,2,1,5,0,1,0,1,2021-08-07 10:49:52,276108
-1,0,3,11,7,5,1,0,2021-08-07 10:49:52,276108
1,0,3,8,11,4,1,0,2021-08-07 10:49:52,276108
-3,-2,-2,-2,-4,-3,-3,-2,2021-08-07 10:49:52,276108
-4,-6,-8,-15,-18,-9,-5,-3,2021-08-07 10:49:52,277107
-2,-2,-1,-3,-7,-6,-1,-1,2021-08-07 10:49:52,308107
1,1,-1,8,10,5,0,1,2021-08-07 10:49:52,324106
1,0,2,3,7,0,0,-2,2021-08-07 10:49:52,340108
-4,-3,-4,-6,-5,-1,-2,-1,2021-08-07 10:49:52,351108
-1,-2,-3,-3,-5,-3,-2,-1,2021-08-07 10:49:52,351108
1,-1,0,-9,-12,-6,-3,-2,2021-08-07 10:49:52,351108
-1,-2,-2,-4,-4,0,0,-2,2021-08-07 10:49:52,351108
1,0,1,5,7,1,0,-1,2021-08-07 10:49:52,352108
0,-1,-3,-8,-10,-5,-3,0,2021-08-07 10:49:52,352108
-2,-2,-1,0,8,2,1,-2,2021-08-07 10:49:52,352108
1,0,0,0,3,1,-1,-1,2021-08-07 10:49:52,352108
2,5,6,12,9,3,2,2,2021-08-07 10:49:52,352108
-1,-1,0,1,0,0,-1,1,2021-08-07 10:49:52,352108
-1,-1,-2,-11,-11,-5,-3,-1,2021-08-07 10:49:52,352108
-3,-4,-5,-6,-9,-6,-4,-1,2021-08-07 10:49:52,353107
0,0,3,7,9,4,2,3,2021-08-07 10:49:52,353107
2,3,3,4,10,4,3,2,2021-08-07 10:49:52,387138
0,1,1,4,-3,0,4,3,2021-08-07 10:49:52,387138
-1,-3,-3,-5,-5,0,2,1,2021-08-07 10:49:52,387138
-2,-3,-1,-4,0,-2,-7,-4,2021-08-07 10:49:52,387138
-6,-4,-2,-3,-2,-10,-10,-6,2021-08-07 10:49:52,387138
-2,-3,-3,-7,-6,-5,-2,-2,2021-08-07 10:49:52,387138
0,-1,-4,-4,-2,2,5,2,2021-08-07 10:49:52,403138
2,3,-1,-6,-5,3,5,5,2021-08-07 10:49:52,403138
1,0,3,10,11,3,-2,-1,2021-08-07 10:49:52,419139
-5,-4,-2,-3,-5,-6,-7,-4,2021-08-07 10:49:52,435137
0,1,1,3,5,4,6,2,2021-08-07 10:49:52,451137
-2,-2,-4,-7,-9,-2,0,-3,2021-08-07 10:49:52,467138
-2,-3,-5,-14,-9,-1,-3,-2,2021-08-07 10:49:52,483138
1,3,6,8,2,-1,-2,0,2021-08-07 10:49:52,483138
-3,-2,1,7,-1,-1,-2,-2,2021-08-07 10:49:52,483138
6,6,5,6,16,8,10,7,2021-08-07 10:49:52,483138
-2,-2,-4,-3,-2,3,3,2,2021-08-07 10:49:52,483138
0,0,-3,-8,-10,-9,-9,-4,2021-08-07 10:49:52,483138
-4,-3,-1,-3,-2,-8,-10,-7,2021-08-07 10:49:52,484140
-3,-4,-5,-3,1,-3,-2,-1,2021-08-07 10:49:52,484140
-2,-1,0,3,-1,2,3,1,2021-08-07 10:49:52,484140
-1,0,-3,-6,-8,2,3,4,2021-08-07 10:49:52,484140
1,-1,0,7,11,6,1,1,2021-08-07 10:49:52,484140
0,-2,-2,-6,-8,-7,-5,-2,2021-08-07 10:49:52,484140
1,-1,-1,-3,-4,0,0,0,2021-08-07 10:49:52,499138
0,-1,0,4,10,5,2,0,2021-08-07 10:49:52,515137
-4,-3,-1,0,-4,-3,-3,-3,2021-08-07 10:49:52,515137
-3,-1,0,0,4,2,0,-1,2021-08-07 10:49:52,531138
-5,-4,-6,-8,-6,-7,-4,-4,2021-08-07 10:49:52,547136
1,1,2,0,0,2,1,-1,2021-08-07 10:49:52,547136
2,1,1,3,4,0,0,0,2021-08-07 10:49:52,547136
-1,0,0,-3,-4,-2,-2,-1,2021-08-07 10:49:52,547136
0,-1,-4,-2,-4,-2,-2,-1,2021-08-07 10:49:52,547136
-4,0,-2,-6,-5,-3,-3,-1,2021-08-07 10:49:52,547136
3,3,4,2,6,4,2,2,2021-08-07 10:49:52,548139
-2,-3,-2,0,-2,-1,-2,0,2021-08-07 10:49:52,548139
0,0,0,0,-1,0,0,0,2021-08-07 10:49:52,563137
-1,-5,-4,-1,-2,-2,-2,-3,2021-08-07 10:49:52,578138
-2,-2,-2,-2,-1,-1,-1,0,2021-08-07 10:49:52,593656
2,4,3,4,5,1,1,1,2021-08-07 10:49:52,593656
0,-2,-2,-5,-2,-1,0,0,2021-08-07 10:49:52,593656
0,0,2,7,5,2,1,1,2021-08-07 10:49:52,593656
-3,-1,-1,-3,-3,-5,-2,-2,2021-08-07 10:49:52,593656
-1,-1,-3,-1,-1,0,-1,-2,2021-08-07 10:49:52,594654
-1,1,1,1,3,1,2,2,2021-08-07 10:49:52,594654
0,0,0,-1,-2,0,0,-1,2021-08-07 10:49:52,594654
2,2,-1,-3,-8,-3,-2,-1,2021-08-07 10:49:52,594654
-2,-4,-6,-5,-2,-3,-2,-4,2021-08-07 10:49:52,594654
0,-1,2,2,5,2,0,0,2021-08-07 10:49:52,625653
0,1,1,5,9,3,1,-1,2021-08-07 10:49:52,641654
2,0,-1,-3,-5,-2,1,1,2021-08-07 10:49:52,641654
-4,-4,-3,-5,-12,-6,-3,-4,2021-08-07 10:49:52,641654
0,-1,-3,-5,-7,-2,-2,0,2021-08-07 10:49:52,641654
0,-1,-2,-2,6,4,2,0,2021-08-07 10:49:52,641654
3,4,8,29,24,10,3,3,2021-08-07 10:49:52,641654
1,0,-1,-1,-4,-2,-2,-2,2021-08-07 10:49:52,642655
-2,-2,-1,-10,-8,-4,-1,-3,2021-08-07 10:49:52,657654
-2,-5,-7,-12,-18,-7,-3,-1,2021-08-07 10:49:52,673653
0,-1,-3,-7,-5,-4,-2,1,2021-08-07 10:49:52,673653
-2,-2,-1,1,5,0,-1,-2,2021-08-07 10:49:52,673653
0,-1,0,2,-4,-2,0,-2,2021-08-07 10:49:52,673653
-1,-1,-1,1,0,2,0,-1,2021-08-07 10:49:52,673653
-2,-2,-2,-6,0,0,0,-3,2021-08-07 10:49:52,673653
-1,-2,0,1,-1,-1,-1,1,2021-08-07 10:49:52,674655
-2,-2,-2,-1,0,-2,-2,-2,2021-08-07 10:49:52,705653
1,1,1,5,4,-1,1,0,2021-08-07 10:49:52,721654
-2,1,-2,-1,-3,-2,-1,-1,2021-08-07 10:49:52,737653
-2,-3,-3,-3,-1,0,-1,-2,2021-08-07 10:49:52,737653
2,3,4,13,8,1,-1,1,2021-08-07 10:49:52,737653
-2,-2,-6,-6,-4,-2,0,-1,2021-08-07 10:49:52,737653
1,0,3,4,8,2,2,2,2021-08-07 10:49:52,737653
-1,-4,0,0,0,-1,0,-1,2021-08-07 10:49:52,737653
-4,-4,0,-1,-1,1,-2,-1,2021-08-07 10:49:52,738654
-2,-2,-1,-1,-5,-3,-5,-3,2021-08-07 10:49:52,738654
-4,-2,-2,-8,-6,-4,-6,-4,2021-08-07 10:49:52,738654
0,0,1,1,1,-2,-4,-1,2021-08-07 10:49:52,738654
-4,-4,-5,-7,-3,-4,-3,0,2021-08-07 10:49:52,769656
3,3,2,4,3,0,2,1,2021-08-07 10:49:52,769656
2,0,1,3,1,2,0,2,2021-08-07 10:49:52,769656
1,-2,-2,-2,-2,-1,-1,0,2021-08-07 10:49:52,769656
0,1,-1,-1,0,-2,-2,-3,2021-08-07 10:49:52,769656
-1,-2,-2,-4,-7,-4,-3,-2,2021-08-07 10:49:52,770654
-2,-2,-5,-6,-4,-1,-2,-1,2021-08-07 10:49:52,770654
-2,-1,2,0,1,-1,0,-1,2021-08-07 10:49:52,770654
-1,-2,0,5,7,1,-1,-2,2021-08-07 10:49:52,801653
-1,-1,-5,-11,-11,-5,-1,-1,2021-08-07 10:49:52,801653
4,5,8,18,15,8,5,4,2021-08-07 10:49:52,801653
-2,-2,-1,-4,-12,-5,-4,-2,2021-08-07 10:49:52,801653
1,1,-1,-1,1,1,0,-1,2021-08-07 10:49:52,848654
-2,-3,-6,-10,-8,-5,-2,-1,2021-08-07 10:49:52,863652
0,0,-1,-6,-9,-4,-2,-2,2021-08-07 10:49:52,879654
-1,1,-1,3,3,-1,1,1,2021-08-07 10:49:52,895652
3,4,6,14,13,7,3,1,2021-08-07 10:49:52,895652
-1,-5,-3,-9,-8,-2,-2,-2,2021-08-07 10:49:52,895652
-5,-9,-11,-16,-13,-10,-5,-4,2021-08-07 10:49:52,895652
-1,-1,0,1,3,1,-2,0,2021-08-07 10:49:52,895652
1,1,2,-1,-5,-4,-2,-4,2021-08-07 10:49:52,895652
-1,1,3,11,4,1,0,0,2021-08-07 10:49:52,896655
0,-5,-6,2,9,3,3,1,2021-08-07 10:49:52,896655
1,-1,0,3,2,2,1,0,2021-08-07 10:49:52,896655
-1,-1,-4,-10,-10,-4,-2,0,2021-08-07 10:49:52,896655
-1,2,5,9,11,3,-2,0,2021-08-07 10:49:52,896655
-2,2,1,-3,-5,-1,0,-2,2021-08-07 10:49:52,896655
-1,-1,-1,-3,-4,-3,-2,-3,2021-08-07 10:49:52,896655
0,-3,-6,-6,-10,-4,0,-1,2021-08-07 10:49:52,897655
1,1,2,2,8,1,1,1,2021-08-07 10:49:52,897655
-2,-4,-4,-1,-3,-2,-3,-3,2021-08-07 10:49:52,897655
1,1,1,5,4,2,1,1,2021-08-07 10:49:52,897655
1,-2,-2,-9,-11,-4,-2,-1,2021-08-07 10:49:52,927655
0,0,1,4,7,2,3,2,2021-08-07 10:49:52,943653
-3,-3,-3,-7,-9,-5,-5,-4,2021-08-07 10:49:52,943653
1,3,2,1,1,1,3,0,2021-08-07 10:49:52,943653
-3,-4,-3,1,2,0,-2,-2,2021-08-07 10:49:52,943653
-3,-3,-4,-3,-5,-2,-3,-3,2021-08-07 10:49:52,943653
2,2,2,5,6,1,2,1,2021-08-07 10:49:52,943653
-4,-4,-5,-6,-6,-4,-3,-1,2021-08-07 10:49:52,943653
2,4,6,8,7,2,0,2,2021-08-07 10:49:52,959653
-1,-1,-3,-9,-4,-2,-1,-2,2021-08-07 10:49:52,975654
-2,-1,1,10,3,1,-2,-1,2021-08-07 10:49:52,975654
-2,-2,-5,-7,-8,-6,-4,-3,2021-08-07 10:49:52,975654
-2,-3,-4,0,2,-1,0,-1,2021-08-07 10:49:52,975654
-1,-1,1,1,2,0,-1,-3,2021-08-07 10:49:52,975654
-1,-2,-1,-7,-7,-2,0,1,2021-08-07 10:49:52,975654
1,-1,-2,-2,-1,1,0,0,2021-08-07 10:49:52,975654
-3,-2,-4,3,2,1,0,1,2021-08-07 10:49:53,022655
-1,0,3,5,4,3,0,-2,2021-08-07 10:49:53,038655
0,-2,-5,-12,-13,-5,-1,0,2021-08-07 10:49:53,038655
1,2,10,25,25,9,3,0,2021-08-07 10:49:53,038655
-1,-2,-1,3,5,3,4,0,2021-08-07 10:49:53,038655
0,0,0,1,-6,-1,0,2,2021-08-07 10:49:53,038655
4,4,6,16,21,9,3,2,2021-08-07 10:49:53,039654
-3,-2,-5,-14,-18,-8,-6,-4,2021-08-07 10:49:53,039654
-5,-5,-2,-8,-7,-10,-11,-9,2021-08-07 10:49:53,039654
-4,-3,-3,-3,-5,-6,-3,-2,2021-08-07 10:49:53,039654
0,1,-2,-4,0,2,1,0,2021-08-07 10:49:53,039654
1,0,0,2,4,4,6,4,2021-08-07 10:49:53,039654
-1,0,-1,-1,-3,3,4,3,2021-08-07 10:49:53,070654
1,0,-2,-9,-6,-1,0,0,2021-08-07 10:49:53,086654
-2,-1,0,3,2,1,-1,-1,2021-08-07 10:49:53,102656
3,4,3,-2,0,1,2,1,2021-08-07 10:49:53,118654
0,-1,0,5,1,0,1,-2,2021-08-07 10:49:53,118654
-3,-2,-1,-6,-4,-3,-4,-2,2021-08-07 10:49:53,118654
0,0,1,2,0,-1,-3,0,2021-08-07 10:49:53,118654
-5,-5,-5,-5,-6,-4,-4,-4,2021-08-07 10:49:53,118654
-1,-2,-3,-5,-4,-1,0,0,2021-08-07 10:49:53,118654
1,2,1,7,9,4,3,2,2021-08-07 10:49:53,118654
0,0,1,-2,-1,-1,-2,-1,2021-08-07 10:49:53,119654
-1,-2,-4,-2,-4,-3,-1,-1,2021-08-07 10:49:53,119654
-1,-2,-2,-8,-4,-1,-1,-2,2021-08-07 10:49:53,119654
-2,-5,-4,0,2,0,0,-1,2021-08-07 10:49:53,119654
0,2,-1,-6,-10,-6,-2,-1,2021-08-07 10:49:53,119654
-1,1,-1,-3,1,0,-2,1,2021-08-07 10:49:53,119654
-2,-2,-5,-15,-14,-7,-3,-1,2021-08-07 10:49:53,134654
1,1,4,15,14,5,0,0,2021-08-07 10:49:53,134654
-2,-3,-3,-5,-2,0,0,0,2021-08-07 10:49:53,134654
-1,-2,-3,-5,1,1,-1,-1,2021-08-07 10:49:53,134654
-2,-4,-2,-4,-3,-1,1,0,2021-08-07 10:49:53,166654
0,0,1,8,-3,-2,0,0,2021-08-07 10:49:53,182653
-1,2,1,1,4,1,4,0,2021-08-07 10:49:53,182653
0,1,-1,-4,-5,0,-3,0,2021-08-07 10:49:53,182653
-5,-5,-5,-9,-8,-13,-11,-6,2021-08-07 10:49:53,182653
-3,-2,1,4,3,1,4,0,2021-08-07 10:49:53,182653
-2,-5,-2,0,-4,-1,-2,-2,2021-08-07 10:49:53,182653
-2,-3,-2,-4,-5,-9,-6,-2,2021-08-07 10:49:53,183654
3,3,0,1,0,6,4,3,2021-08-07 10:49:53,214653
-1,-2,-4,-10,-6,0,-1,1,2021-08-07 10:49:53,214653
2,2,4,15,7,3,2,1,2021-08-07 10:49:53,214653
-1,-3,-1,0,1,2,4,1,2021-08-07 10:49:53,214653
1,1,1,5,7,5,2,2,2021-08-07 10:49:53,214653
3,5,4,-3,0,-1,-1,0,2021-08-07 10:49:53,214653
-5,-6,-6,-9,-8,-11,-9,-7,2021-08-07 10:49:53,215654
-2,-2,-2,-2,0,-3,-2,-1,2021-08-07 10:49:53,229652
3,3,5,8,5,2,0,2,2021-08-07 10:49:53,236654
-2,-4,-3,-1,1,2,5,0,2021-08-07 10:49:53,237654
1,-1,-3,-14,-10,-4,-3,-2,2021-08-07 10:49:53,237654
0,2,5,14,5,0,1,-1,2021-08-07 10:49:53,237654
-1,-1,0,-1,0,-1,0,0,2021-08-07 10:49:53,261654
1,0,-1,-8,-8,-3,-2,-3,2021-08-07 10:49:53,261654
0,-2,1,8,10,5,2,-1,2021-08-07 10:49:53,261654
-1,-3,-2,-4,-7,-3,-2,-2,2021-08-07 10:49:53,261654
0,1,-3,-11,-23,-9,-2,1,2021-08-07 10:49:53,277654
2,0,5,25,58,19,3,2,2021-08-07 10:49:53,277654
0,0,2,2,-2,1,4,2,2021-08-07 10:49:53,277654
2,1,0,0,2,8,6,3,2021-08-07 10:49:53,277654
2,2,4,3,-1,-6,-7,-2,2021-08-07 10:49:53,308676
-7,-6,-9,-18,-29,-17,-11,-6,2021-08-07 10:49:53,324677
1,2,1,-2,1,-1,0,0,2021-08-07 10:49:53,340676
2,0,0,3,5,3,1,0,2021-08-07 10:49:53,356677
-1,-1,-2,-5,0,4,4,1,2021-08-07 10:49:53,372676
-3,-4,-5,-3,-10,-3,-2,-3,2021-08-07 10:49:53,372676
-1,-1,-1,2,3,0,-4,1,2021-08-07 10:49:53,372676
0,1,-1,-7,-10,-6,-2,-1,2021-08-07 10:49:53,372676
0,-1,-2,0,5,0,-3,-1,2021-08-07 10:49:53,372676
-2,-1,-2,-9,-9,-4,0,-2,2021-08-07 10:49:53,372676
0,2,3,11,15,10,8,4,2021-08-07 10:49:53,372676
-2,-2,0,6,6,2,0,-2,2021-08-07 10:49:53,372676
-2,-3,-1,4,5,-3,-5,-4,2021-08-07 10:49:53,373678
2,1,-1,-5,-11,-2,-1,2,2021-08-07 10:49:53,388675
-3,-6,-9,-18,-14,-6,-5,-5,2021-08-07 10:49:53,388675
3,5,4,2,2,3,6,4,2021-08-07 10:49:53,388675
-5,-4,-2,-4,-4,-1,0,-2,2021-08-07 10:49:53,388675
-3,0,2,8,1,-4,-4,-2,2021-08-07 10:49:53,388675
-3,-2,-5,-5,-6,-8,-4,-4,2021-08-07 10:49:53,388675
-2,-3,-2,-1,1,0,-1,-1,2021-08-07 10:49:53,389676
-2,-4,-4,1,1,3,3,-1,2021-08-07 10:49:53,404677
3,3,4,3,-5,1,4,1,2021-08-07 10:49:53,404677
-4,-3,-4,-7,-6,-7,-4,-2,2021-08-07 10:49:53,404677
0,2,0,1,3,0,2,1,2021-08-07 10:49:53,404677
3,4,4,7,6,5,5,3,2021-08-07 10:49:53,420679
-2,-3,-3,-4,-1,-1,-2,0,2021-08-07 10:49:53,436676
-2,-2,-6,-12,-8,-3,-2,-3,2021-08-07 10:49:53,452676
-3,-4,-1,-3,-6,-6,-5,-2,2021-08-07 10:49:53,452676
-1,-2,-4,-3,-4,-3,-4,-2,2021-08-07 10:49:53,452676
3,2,2,6,14,7,3,1,2021-08-07 10:49:53,452676
1,-3,-3,-3,-8,-4,-3,0,2021-08-07 10:49:53,468677
0,-4,-8,-11,-10,-3,-1,-1,2021-08-07 10:49:53,468677
-2,-2,-1,-1,9,2,1,-1,2021-08-07 10:49:53,484677
-5,-2,-5,-4,-12,-6,-3,-4,2021-08-07 10:49:53,484677
-2,2,6,8,6,3,0,-2,2021-08-07 10:49:53,484677
-4,-1,2,5,2,-1,-3,-4,2021-08-07 10:49:53,484677
0,4,5,5,6,1,-2,-1,2021-08-07 10:49:53,484677
-5,-6,-8,-14,-18,-10,-7,-5,2021-08-07 10:49:53,484677
2,2,-2,-12,-12,-2,1,1,2021-08-07 10:49:53,484677
-5,-7,-10,-12,-20,-12,-7,-3,2021-08-07 10:49:53,485678
6,4,6,1,17,13,7,6,2021-08-07 10:49:53,500676
6,5,10,26,28,9,4,4,2021-08-07 10:49:53,500676
-1,0,-1,5,0,2,1,-1,2021-08-07 10:49:53,500676
-4,-4,-2,-1,5,0,-1,-2,2021-08-07 10:49:53,500676
-4,-6,-9,-10,-19,-9,-3,-3,2021-08-07 10:49:53,532194
-2,-3,-4,-9,-9,-2,-1,0,2021-08-07 10:49:53,548193
1,3,5,7,13,6,3,2,2021-08-07 10:49:53,564192
-2,-3,-4,-4,-5,-4,-2,-5,2021-08-07 10:49:53,580191
0,-1,1,5,1,-1,0,1,2021-08-07 10:49:53,596192
1,0,-2,-6,-1,-2,1,0,2021-08-07 10:49:53,596192
-1,-3,-2,4,-4,-4,-3,-1,2021-08-07 10:49:53,596192
2,1,3,9,16,9,4,3,2021-08-07 10:49:53,596192
-4,-5,-7,-10,-13,-7,-3,-4,2021-08-07 10:49:53,596192
2,4,2,-2,-5,-2,-2,0,2021-08-07 10:49:53,597191
-1,-1,3,4,8,3,0,-2,2021-08-07 10:49:53,597191
1,2,2,9,5,2,0,0,2021-08-07 10:49:53,597191
-2,-3,0,2,4,1,-1,-2,2021-08-07 10:49:53,597191
-5,-7,-8,-9,-11,-4,-2,-3,2021-08-07 10:49:53,597191
2,3,0,-8,-1,1,2,0,2021-08-07 10:49:53,612193
2,3,1,-6,-13,-3,0,1,2021-08-07 10:49:53,612193
-4,-2,-1,7,1,0,-2,-4,2021-08-07 10:49:53,612193
2,1,1,10,19,7,3,2,2021-08-07 10:49:53,612193
1,2,2,1,-6,-5,-3,-1,2021-08-07 10:49:53,612193
-2,-3,-1,-3,0,-2,-2,0,2021-08-07 10:49:53,612193
0,-2,-3,-6,-10,-6,-2,1,2021-08-07 10:49:53,628191
-4,-4,-6,-14,-17,-8,-4,-4,2021-08-07 10:49:53,644191
0,-1,1,4,6,4,3,2,2021-08-07 10:49:53,644191
-2,0,2,6,5,1,-1,-2,2021-08-07 10:49:53,644191
2,3,0,-1,-2,-1,-1,1,2021-08-07 10:49:53,644191
-2,-2,0,4,8,3,-2,0,2021-08-07 10:49:53,644191
-6,-6,-9,-15,-17,-8,-3,-3,2021-08-07 10:49:53,644191
-1,-3,-2,0,-5,-3,-1,-2,2021-08-07 10:49:53,645193
-2,0,0,2,-4,1,-1,0,2021-08-07 10:49:53,675192
6,6,13,36,49,19,5,4,2021-08-07 10:49:53,675192
1,2,4,4,-4,-4,-1,-1,2021-08-07 10:49:53,675192
-5,-4,-5,-8,-8,-4,-2,-3,2021-08-07 10:49:53,675192
-1,-2,-8,-13,-5,-2,0,-2,2021-08-07 10:49:53,681193
-2,-1,3,6,-10,-5,-2,-2,2021-08-07 10:49:53,682193
1,-2,-3,-5,-1,-1,-1,0,2021-08-07 10:49:53,682193
0,1,-2,2,7,1,0,-1,2021-08-07 10:49:53,682193
1,0,2,-4,-5,-3,-2,0,2021-08-07 10:49:53,707193
-2,-4,-6,-21,-22,-8,-4,-2,2021-08-07 10:49:53,723191
-3,-4,-2,7,9,3,-1,-2,2021-08-07 10:49:53,739194
1,-1,-5,-6,-9,-2,0,-1,2021-08-07 10:49:53,739194
2,3,5,8,13,5,1,-1,2021-08-07 10:49:53,739194
-2,-3,-6,-23,-29,-11,-6,-4,2021-08-07 10:49:53,739194
4,4,10,36,42,14,6,5,2021-08-07 10:49:53,739194
-1,-2,-1,-7,-1,0,0,0,2021-08-07 10:49:53,740193
-4,-3,-2,5,3,0,-3,-3,2021-08-07 10:49:53,740193
0,-1,-3,-7,-12,-6,0,-2,2021-08-07 10:49:53,740193
-3,-1,-4,-18,-24,-8,-3,-2,2021-08-07 10:49:53,740193
-1,-1,3,8,11,4,-3,-1,2021-08-07 10:49:53,740193
1,-1,3,6,10,3,4,0,2021-08-07 10:49:53,771191
-6,-6,-9,-12,-16,-8,-5,-4,2021-08-07 10:49:53,787193
0,-2,-3,-1,-1,-1,-3,-2,2021-08-07 10:49:53,787193
-1,-2,-3,0,3,-1,-1,-1,2021-08-07 10:49:53,787193
0,1,2,-3,-8,-4,0,0,2021-08-07 10:49:53,787193
2,2,1,-4,2,3,1,1,2021-08-07 10:49:53,787193
1,2,5,25,26,11,3,1,2021-08-07 10:49:53,787193
-2,-2,-2,-2,-4,-3,-4,-3,2021-08-07 10:49:53,788192
0,0,-3,-5,-8,-4,-1,2,2021-08-07 10:49:53,803191
-1,0,-2,-7,-6,-3,-2,-2,2021-08-07 10:49:53,803191
-2,0,-2,-7,1,1,-2,0,2021-08-07 10:49:53,803191
1,1,3,2,-1,0,1,1,2021-08-07 10:49:53,803191
-4,-4,-6,-2,-1,-3,-2,-2,2021-08-07 10:49:53,819193
-4,-4,-1,1,1,-1,-4,-2,2021-08-07 10:49:53,819193
-2,-4,-6,-14,-15,-9,-4,-3,2021-08-07 10:49:53,819193
1,-1,-3,-7,-4,0,-1,1,2021-08-07 10:49:53,819193
-2,-2,0,5,4,-1,-2,-1,2021-08-07 10:49:53,849192
7,9,12,25,26,15,6,5,2021-08-07 10:49:53,865193
-6,-4,-5,-8,-15,-8,-3,-3,2021-08-07 10:49:53,865193
-1,-1,-4,-11,-14,-6,-1,-1,2021-08-07 10:49:53,865193
4,2,7,15,16,8,3,2,2021-08-07 10:49:53,881192
-3,-4,-4,-6,-4,-4,-2,-2,2021-08-07 10:49:53,897192
-5,-8,-9,-21,-20,-9,-3,-2,2021-08-07 10:49:53,897192
4,4,3,7,6,0,1,1,2021-08-07 10:49:53,897192
-4,-4,-4,-7,0,-1,-2,-3,2021-08-07 10:49:53,897192
-1,2,2,4,2,0,0,-1,2021-08-07 10:49:53,897192
0,1,0,-5,-7,-2,-2,-1,2021-08-07 10:49:53,898191
-1,-3,0,-3,-3,-2,2,-1,2021-08-07 10:49:53,898191
0,-1,-3,-7,-6,-3,-2,-1,2021-08-07 10:49:53,898191
-3,-1,-3,-4,-8,-4,0,-1,2021-08-07 10:49:53,898191
-2,-3,-4,-7,4,2,0,-1,2021-08-07 10:49:53,898191
2,3,6,14,7,2,2,2,2021-08-07 10:49:53,899193
1,2,3,9,8,4,1,1,2021-08-07 10:49:53,928194
-3,-4,-5,-3,2,-2,-1,-2,2021-08-07 10:49:53,944193
-6,-6,-11,-27,-32,-15,-8,-6,2021-08-07 10:49:53,944193
5,5,7,14,21,12,5,3,2021-08-07 10:49:53,944193
-4,-3,-7,-15,-15,-8,-4,-5,2021-08-07 10:49:53,944193
5,2,5,16,13,6,3,3,2021-08-07 10:49:53,944193
1,-1,1,6,8,3,0,0,2021-08-07 10:49:53,960193
-5,-7,-8,-14,-18,-8,-4,-4,2021-08-07 10:49:53,976192
-1,-1,1,2,1,1,1,1,2021-08-07 10:49:53,976192
-3,-3,-7,-17,-21,-11,-7,-5,2021-08-07 10:49:53,976192
4,4,5,18,26,8,4,2,2021-08-07 10:49:53,976192
-2,-2,0,-3,1,-1,-2,-3,2021-08-07 10:49:53,976192
-2,0,-2,-6,-7,-3,-3,-2,2021-08-07 10:49:53,992193
-6,-7,-5,-10,-6,-5,-4,-3,2021-08-07 10:49:53,992193
7,8,9,17,10,8,8,8,2021-08-07 10:49:53,992193
-2,-3,-3,-7,-12,-6,-4,-2,2021-08-07 10:49:53,992193
-1,-1,-1,-5,8,0,0,-2,2021-08-07 10:49:53,992193
-1,-3,-2,-2,-10,0,0,-4,2021-08-07 10:49:53,992193
-5,-5,-3,-2,9,0,-2,-4,2021-08-07 10:49:54,008191
1,1,0,14,19,6,2,2,2021-08-07 10:49:54,008191
1,2,1,-5,-16,-5,-2,0,2021-08-07 10:49:54,040193
-1,1,0,0,5,-1,-2,1,2021-08-07 10:49:54,056192
-1,-2,-1,-2,-11,-2,-1,-1,2021-08-07 10:49:54,088192
-4,-3,-2,4,7,0,-3,-3,2021-08-07 10:49:54,104192
-1,-5,-3,3,6,1,1,0,2021-08-07 10:49:54,115191
0,0,1,3,2,1,2,0,2021-08-07 10:49:54,116193
0,0,1,-4,-3,-1,-3,-2,2021-08-07 10:49:54,116193
-1,-1,-3,-10,-9,-3,-2,-2,2021-08-07 10:49:54,116193
-1,-3,-2,-1,-4,-3,-2,1,2021-08-07 10:49:54,116193
-1,-4,-1,0,-5,-2,-1,-1,2021-08-07 10:49:54,116193
-1,-2,-3,0,4,-1,-2,-3,2021-08-07 10:49:54,117193
2,4,4,5,5,4,5,4,2021-08-07 10:49:54,117193
-2,-1,-4,-3,-7,-4,-1,-3,2021-08-07 10:49:54,117193
3,1,0,11,8,3,3,3,2021-08-07 10:49:54,117193
-6,-7,-8,-19,-24,-13,-6,-6,2021-08-07 10:49:54,117193
0,1,-1,6,10,3,0,2,2021-08-07 10:49:54,117193
-4,-2,2,1,-13,-7,-4,-4,2021-08-07 10:49:54,117193
-4,-3,-7,-20,-10,-5,-2,-1,2021-08-07 10:49:54,118191
0,0,1,6,6,5,1,1,2021-08-07 10:49:54,118191
0,-1,2,15,17,5,0,-1,2021-08-07 10:49:54,118191
2,0,0,-2,0,0,1,0,2021-08-07 10:49:54,118191
-3,-5,-6,-15,-15,-8,-3,-5,2021-08-07 10:49:54,118191
-1,-1,1,7,1,2,1,1,2021-08-07 10:49:54,136192
-2,-1,-4,-22,-25,-11,-4,-1,2021-08-07 10:49:54,136192
2,-1,2,11,19,8,2,1,2021-08-07 10:49:54,136192
-3,-3,-4,-2,-3,-3,-3,-2,2021-08-07 10:49:54,136192
-4,-1,-2,-16,-11,-3,-2,-1,2021-08-07 10:49:54,152192
6,5,9,25,24,11,5,3,2021-08-07 10:49:54,152192
-3,-4,-5,-6,-9,-4,-3,-2,2021-08-07 10:49:54,167193
6,8,10,18,22,9,5,3,2021-08-07 10:49:54,183193
-1,-1,-1,-5,-12,-6,-2,-1,2021-08-07 10:49:54,199191
-5,-7,-9,-23,-16,-8,-6,-5,2021-08-07 10:49:54,199191
-1,0,0,0,1,2,-1,0,2021-08-07 10:49:54,199191
-2,2,3,10,7,2,-1,-1,2021-08-07 10:49:54,199191
-1,-6,-6,-1,-2,-4,-2,-1,2021-08-07 10:49:54,199191
-1,-3,-1,0,-8,-5,-3,-3,2021-08-07 10:49:54,199191
3,3,2,6,18,10,4,1,2021-08-07 10:49:54,200193
1,0,2,3,9,5,0,2,2021-08-07 10:49:54,200193
-2,-2,-6,-10,-11,-4,-3,-3,2021-08-07 10:49:54,200193
2,3,8,26,15,6,3,2,2021-08-07 10:49:54,200193
-3,-1,-1,-4,1,0,-1,0,2021-08-07 10:49:54,231192
1,-1,0,-2,-5,-1,0,0,2021-08-07 10:49:54,231192
3,5,5,1,-5,-2,3,4,2021-08-07 10:49:54,231192
-2,-5,-9,-19,-17,-7,-3,-2,2021-08-07 10:49:54,247192
-5,-5,-6,-8,-12,-6,-2,-3,2021-08-07 10:49:54,263193
-4,-1,-2,4,12,5,-1,-3,2021-08-07 10:49:54,279193
-4,0,2,7,6,2,0,-2,2021-08-07 10:49:54,279193
-5,-3,-2,-5,-5,-3,-4,-3,2021-08-07 10:49:54,279193
7,8,6,2,-3,-2,2,2,2021-08-07 10:49:54,279193
-7,-8,-10,-18,-19,-10,-7,-5,2021-08-07 10:49:54,279193
1,-1,2,11,12,3,0,0,2021-08-07 10:49:54,279193
3,3,3,6,15,9,4,4,2021-08-07 10:49:54,279193
4,1,2,-1,1,2,0,2,2021-08-07 10:49:54,279193
2,2,4,9,0,2,2,0,2021-08-07 10:49:54,280191
-3,-6,-9,-16,-21,-11,-7,-3,2021-08-07 10:49:54,280191
0,1,2,-5,1,0,1,-1,2021-08-07 10:49:54,280191
0,0,5,18,15,7,0,-1,2021-08-07 10:49:54,311193
1,3,2,8,12,4,3,1,2021-08-07 10:49:54,327193
-4,-4,-3,-9,-11,-8,-5,-4,2021-08-07 10:49:54,343191
-2,-4,-10,-16,-19,-5,-3,-3,2021-08-07 10:49:54,343191
-1,-2,-6,-12,-5,-3,-2,-1,2021-08-07 10:49:54,343191
1,2,3,1,0,-1,1,2,2021-08-07 10:49:54,343191
-2,-4,-1,3,10,3,1,-2,2021-08-07 10:49:54,343191
-2,-1,-6,-12,-17,-8,-4,-2,2021-08-07 10:49:54,343191
2,4,6,10,7,3,1,2,2021-08-07 10:49:54,344192
-5,-6,-7,-13,-15,-8,-4,-3,2021-08-07 10:49:54,344192
-2,1,-1,-18,-16,-5,-2,0,2021-08-07 10:49:54,344192
6,9,15,32,32,15,6,4,2021-08-07 10:49:54,344192
-5,-7,-7,5,9,0,-1,-2,2021-08-07 10:49:54,359193
-3,-2,-7,-13,-14,-6,-3,-3,2021-08-07 10:49:54,359193
-2,-3,-3,4,3,0,-2,0,2021-08-07 10:49:54,375193
-3,1,3,-3,-13,-6,-2,-4,2021-08-07 10:49:54,375193
0,1,3,9,16,6,1,2,2021-08-07 10:49:54,390192
-3,-4,-2,0,-8,-7,-3,-4,2021-08-07 10:49:54,390192
0,0,0,6,8,3,1,1,2021-08-07 10:49:54,390192
-1,-3,-9,-30,-27,-11,-2,-1,2021-08-07 10:49:54,390192
2,2,1,8,6,4,3,1,2021-08-07 10:49:54,406191
0,0,0,2,-2,-1,-1,0,2021-08-07 10:49:54,422192
3,4,4,10,26,11,4,2,2021-08-07 10:49:54,438192
-7,-8,-6,0,-4,-7,-4,-3,2021-08-07 10:49:54,454192
0,-2,1,-2,-1,-1,-1,0,2021-08-07 10:49:54,470192
3,4,4,-1,3,3,2,2,2021-08-07 10:49:54,486192
1,0,-5,-6,-17,-6,-1,-1,2021-08-07 10:49:54,486192
-3,-5,-7,-14,-19,-9,-5,-2,2021-08-07 10:49:54,486192
-4,-3,-7,-16,-2,0,-2,-4,2021-08-07 10:49:54,486192
2,1,8,15,17,7,2,1,2021-08-07 10:49:54,486192
0,2,4,11,8,4,1,-1,2021-08-07 10:49:54,487194
0,-3,-8,-7,-4,-2,-1,-3,2021-08-07 10:49:54,487194
-5,-6,-10,-23,-28,-13,-7,-3,2021-08-07 10:49:54,487194
0,0,-2,-6,-1,-1,-2,1,2021-08-07 10:49:54,487194
-1,0,2,10,14,6,2,-2,2021-08-07 10:49:54,487194
0,0,2,2,9,0,0,-1,2021-08-07 10:49:54,487194
-4,-4,-6,-4,-16,-9,-5,-5,2021-08-07 10:49:54,487194
2,3,5,20,31,13,5,4,2021-08-07 10:49:54,487194
1,1,1,3,-2,-1,1,-1,2021-08-07 10:49:54,487194
-4,-3,-5,-11,-10,-6,-3,-4,2021-08-07 10:49:54,487194
1,-2,4,8,6,1,-1,0,2021-08-07 10:49:54,502194
-3,-3,-4,-12,-13,-3,-2,-4,2021-08-07 10:49:54,502194
0,-1,-1,6,15,3,0,0,2021-08-07 10:49:54,502194
1,2,3,4,-1,0,-1,1,2021-08-07 10:49:54,502194
-2,-1,3,4,-8,-1,0,-2,2021-08-07 10:49:54,534191
-3,-3,-3,-7,-4,-1,-1,-4,2021-08-07 10:49:54,534191
1,-2,-4,-10,-15,-5,-1,0,2021-08-07 10:49:54,534191
-4,-4,-2,-5,-1,0,-3,-2,2021-08-07 10:49:54,534191
0,4,4,0,2,0,0,2,2021-08-07 10:49:54,534191
1,-1,2,8,4,0,0,1,2021-08-07 10:49:54,550194
1,2,1,0,-6,-1,0,0,2021-08-07 10:49:54,550194
-3,-8,-15,0,7,1,0,0,2021-08-07 10:49:54,551194
-5,-6,-8,-10,-11,-5,-3,-6,2021-08-07 10:49:54,566192
2,3,-1,0,14,6,0,4,2021-08-07 10:49:54,582191
1,3,7,8,3,-1,1,-1,2021-08-07 10:49:54,582191
4,8,15,18,10,4,3,3,2021-08-07 10:49:54,582191
-1,0,0,1,-12,-3,0,-2,2021-08-07 10:49:54,582191
-5,-7,-11,-27,-28,-13,-6,-6,2021-08-07 10:49:54,582191
2,3,6,5,19,10,5,3,2021-08-07 10:49:54,582191
3,2,8,17,28,15,5,2,2021-08-07 10:49:54,597762
-1,0,-1,-5,-2,-2,0,-1,2021-08-07 10:49:54,613214
-6,-8,-10,-14,-29,-14,-7,-5,2021-08-07 10:49:54,629214
-3,-3,-8,-13,-15,-6,-4,-1,2021-08-07 10:49:54,645215
-1,0,-1,-5,-4,-2,0,0,2021-08-07 10:49:54,661216
2,1,-1,1,5,0,-2,2,2021-08-07 10:49:54,661216
1,1,-1,-3,-4,-1,0,-1,2021-08-07 10:49:54,661216
1,1,4,10,8,3,0,0,2021-08-07 10:49:54,661216
-5,-4,-3,-1,-5,-3,-2,-5,2021-08-07 10:49:54,661216
-4,-4,-7,-22,-24,-8,-3,-1,2021-08-07 10:49:54,661216
4,5,5,15,24,10,5,3,2021-08-07 10:49:54,661216
-1,-2,0,6,3,1,-1,-2,2021-08-07 10:49:54,662216
0,-2,-4,-10,-11,-5,-4,-1,2021-08-07 10:49:54,662216
3,3,4,7,18,7,2,1,2021-08-07 10:49:54,662216
-1,2,4,12,10,0,-1,1,2021-08-07 10:49:54,662216
-4,-5,-6,-16,-21,-8,-2,-3,2021-08-07 10:49:54,662216
2,3,3,10,7,3,1,2,2021-08-07 10:49:54,662216
-4,-4,-5,-4,-6,-5,-2,-4,2021-08-07 10:49:54,692214
-1,-1,-1,-2,-7,-3,-2,-1,2021-08-07 10:49:54,708215
0,0,0,-2,-1,0,-2,0,2021-08-07 10:49:54,708215
-2,-4,-3,-11,-17,-7,-3,-2,2021-08-07 10:49:54,708215
1,-2,-1,8,16,6,1,0,2021-08-07 10:49:54,708215
2,1,3,0,2,3,2,2,2021-08-07 10:49:54,708215
-3,-3,-4,-9,-12,-7,-3,-3,2021-08-07 10:49:54,709216
-4,-2,-1,9,14,4,0,-1,2021-08-07 10:49:54,709216
10,12,9,5,11,8,6,9,2021-08-07 10:49:54,740214
-8,-7,-9,-12,-18,-9,-5,-7,2021-08-07 10:49:54,756216
-6,-7,-14,-17,-27,-14,-6,-4,2021-08-07 10:49:54,772214
2,2,2,16,30,12,5,0,2021-08-07 10:49:54,772214
-3,-5,-4,-2,-9,-3,-4,-2,2021-08-07 10:49:54,772214
3,3,5,12,17,8,3,2,2021-08-07 10:49:54,772214
-3,0,-1,-4,-3,-2,-1,0,2021-08-07 10:49:54,772214
-2,-1,-2,-10,-16,-7,-5,-1,2021-08-07 10:49:54,772214
-3,-2,1,-5,-2,-1,-1,-2,2021-08-07 10:49:54,772214
0,-4,-4,-13,-22,-10,-3,-1,2021-08-07 10:49:54,773216
-2,-2,-1,11,7,0,-1,-1,2021-08-07 10:49:54,773216
4,3,2,2,4,4,2,3,2021-08-07 10:49:54,773216
-1,-1,0,10,9,2,0,0,2021-08-07 10:49:54,788214
-3,-2,-3,-5,-7,-4,-2,-1,2021-08-07 10:49:54,788214
1,0,3,5,7,1,0,-1,2021-08-07 10:49:54,788214
-5,-6,-4,-9,-14,-7,-3,-3,2021-08-07 10:49:54,788214
-7,-6,-11,-25,-33,-16,-7,-6,2021-08-07 10:49:54,804214
5,6,9,26,38,17,8,5,2021-08-07 10:49:54,804214
4,5,4,20,26,12,5,3,2021-08-07 10:49:54,804214
-1,-1,-3,-6,-5,-1,-1,-1,2021-08-07 10:49:54,804214
-4,-7,-3,-9,-18,-11,-6,-4,2021-08-07 10:49:54,834215
-1,0,-3,-1,-8,-4,-2,0,2021-08-07 10:49:54,834215
0,3,5,4,13,5,2,-1,2021-08-07 10:49:54,834215
-2,0,3,-2,2,-2,-2,-3,2021-08-07 10:49:54,834215
0,-3,-8,3,-5,1,0,1,2021-08-07 10:49:54,850215
-6,-8,-6,-18,-19,-11,-5,-6,2021-08-07 10:49:54,865216
3,3,3,15,30,15,5,4,2021-08-07 10:49:54,865216
-3,-5,-9,-15,-23,-10,-3,-5,2021-08-07 10:49:54,865216
-3,-3,-2,1,8,1,-2,-2,2021-08-07 10:49:54,865216
5,4,7,4,2,4,4,3,2021-08-07 10:49:54,865216
-3,-3,-3,-11,-15,-9,-4,-1,2021-08-07 10:49:54,866215
-2,-4,0,-5,-8,-4,-3,-2,2021-08-07 10:49:54,866215
3,4,2,4,7,8,3,2,2021-08-07 10:49:54,895732
-1,-2,-1,8,6,1,-1,-2,2021-08-07 10:49:54,895732
-3,-3,-2,-1,2,-2,-2,-2,2021-08-07 10:49:54,895732
-1,-2,-3,-13,-9,-4,-3,1,2021-08-07 10:49:54,895732
3,5,10,18,17,6,2,1,2021-08-07 10:49:54,911731
-4,-5,-7,-17,-22,-9,-5,-4,2021-08-07 10:49:54,927730
0,0,3,6,1,1,2,0,2021-08-07 10:49:54,927730
2,3,7,11,6,3,3,2,2021-08-07 10:49:54,927730
0,-3,-4,1,12,2,1,2,2021-08-07 10:49:54,927730
-5,-7,-12,-20,-21,-9,-4,-2,2021-08-07 10:49:54,927730
-1,-2,0,-13,-7,-3,-2,-2,2021-08-07 10:49:54,927730
0,-3,-8,1,4,2,-1,-2,2021-08-07 10:49:54,927730
-2,2,6,10,3,0,0,-1,2021-08-07 10:49:54,942731
1,1,6,10,12,6,2,1,2021-08-07 10:49:54,942731
-1,-3,-5,2,-6,-3,-1,-2,2021-08-07 10:49:54,942731
-1,1,-3,-18,-22,-11,-5,-2,2021-08-07 10:49:54,942731
7,9,13,27,37,20,10,7,2021-08-07 10:49:54,974731
-2,-2,-6,-4,-7,-5,-4,-3,2021-08-07 10:49:54,974731
-2,-3,-3,-6,-6,-3,-2,-2,2021-08-07 10:49:54,989732
-1,-1,0,3,3,2,1,0,2021-08-07 10:49:54,989732
-5,-5,-10,-19,-20,-11,-6,-3,2021-08-07 10:49:54,989732
2,4,8,15,19,9,3,1,2021-08-07 10:49:54,989732
0,0,-2,3,3,1,-1,0,2021-08-07 10:49:54,989732
0,-2,-2,-1,-6,-5,-2,-1,2021-08-07 10:49:54,989732
-1,-6,-4,-18,-17,-7,-4,-1,2021-08-07 10:49:55,021732
3,1,1,4,5,3,2,1,2021-08-07 10:49:55,021732
-1,-4,-7,-10,1,-1,-3,-1,2021-08-07 10:49:55,021732
0,3,1,1,3,2,0,-1,2021-08-07 10:49:55,021732
-2,-1,-3,-10,-8,-7,-3,-4,2021-08-07 10:49:55,021732
-3,-7,-1,6,10,2,-3,-3,2021-08-07 10:49:55,021732
3,4,3,1,-4,-4,1,2,2021-08-07 10:49:55,021732
1,3,1,3,5,4,1,2,2021-08-07 10:49:55,021732
-1,0,3,6,2,0,0,-1,2021-08-07 10:49:55,069731
-4,-5,-8,-11,-10,-8,-5,-5,2021-08-07 10:49:55,069731
-5,-5,-11,-24,-23,-9,-5,-3,2021-08-07 10:49:55,069731
1,1,1,4,9,1,1,-1,2021-08-07 10:49:55,069731
0,3,0,-2,-12,-6,-3,0,2021-08-07 10:49:55,069731
-1,-2,-1,0,-2,1,0,0,2021-08-07 10:49:55,069731
0,1,1,4,-2,0,0,0,2021-08-07 10:49:55,070732
-3,-7,-4,-10,-15,-6,-2,-1,2021-08-07 10:49:55,070732
-1,-5,-5,6,21,9,2,-2,2021-08-07 10:49:55,085735
3,6,5,3,6,2,2,1,2021-08-07 10:49:55,101735
-6,-2,4,-6,-21,-8,-6,-4,2021-08-07 10:49:55,101735
-1,0,1,10,11,3,0,-1,2021-08-07 10:49:55,101735
2,3,6,22,18,7,2,1,2021-08-07 10:49:55,101735
-3,-2,-3,-13,-19,-9,-5,-3,2021-08-07 10:49:55,101735
3,2,0,2,7,4,4,2,2021-08-07 10:49:55,102732
0,0,0,-2,-13,-7,-3,0,2021-08-07 10:49:55,102732
-2,-3,-4,-10,-4,-3,-2,-3,2021-08-07 10:49:55,133730
-2,-1,-3,-2,-7,-2,-2,-1,2021-08-07 10:49:55,133730
0,1,1,8,16,4,1,0,2021-08-07 10:49:55,133730
-2,-1,2,10,6,3,1,-1,2021-08-07 10:49:55,133730
-2,-3,-8,-11,-11,-6,-2,-3,2021-08-07 10:49:55,149731
1,-1,2,-1,0,1,0,0,2021-08-07 10:49:55,149731
-7,-9,-14,-24,-28,-14,-6,-6,2021-08-07 10:49:55,149731
0,-3,-11,-23,-11,-4,0,0,2021-08-07 10:49:55,149731
6,9,17,44,54,20,8,5,2021-08-07 10:49:55,165732
-3,-1,-1,-2,-8,-2,0,0,2021-08-07 10:49:55,181731
-3,1,4,13,9,2,-1,-3,2021-08-07 10:49:55,197731
1,0,-1,-4,-9,-2,-1,0,2021-08-07 10:49:55,197731
0,0,-3,-17,-27,-11,-3,1,2021-08-07 10:49:55,197731
1,-1,-1,8,15,2,1,0,2021-08-07 10:49:55,197731
-1,-4,-7,-11,-15,-6,-3,-1,2021-08-07 10:49:55,197731
1,2,6,10,18,6,2,0,2021-08-07 10:49:55,197731
-3,-1,0,-1,-2,-1,-1,0,2021-08-07 10:49:55,213730
-1,-1,-1,-2,-15,-5,-3,-1,2021-08-07 10:49:55,213730
2,1,5,9,19,7,1,1,2021-08-07 10:49:55,213730
-1,0,-1,3,6,1,-1,-2,2021-08-07 10:49:55,213730
-2,-5,-9,-17,-15,-5,-4,-1,2021-08-07 10:49:55,213730
0,1,-1,-1,0,-2,0,1,2021-08-07 10:49:55,213730
-5,-5,-12,-31,-46,-19,-9,-4,2021-08-07 10:49:55,229731
5,6,15,42,53,24,8,5,2021-08-07 10:49:55,229731
-2,-2,-1,5,0,-1,-2,-2,2021-08-07 10:49:55,245731
-3,0,-3,-3,-4,1,-2,-2,2021-08-07 10:49:55,245731
1,1,7,4,-2,1,0,-1,2021-08-07 10:49:55,245731
-6,-8,-16,-17,-8,-7,-4,-5,2021-08-07 10:49:55,245731
2,2,5,6,-4,-2,1,1,2021-08-07 10:49:55,277732
-1,-3,-2,-1,0,-3,-2,0,2021-08-07 10:49:55,293732
-3,-3,-2,1,4,0,-1,-3,2021-08-07 10:49:55,293732
-1,0,2,-9,-20,-10,-5,-2,2021-08-07 10:49:55,293732
0,2,1,0,8,1,2,-1,2021-08-07 10:49:55,293732
1,-1,-5,1,-1,-3,0,-2,2021-08-07 10:49:55,293732
1,0,2,0,-5,-1,0,0,2021-08-07 10:49:55,294731
-3,-2,-3,1,-2,0,0,-1,2021-08-07 10:49:55,294731
-3,-2,-5,-5,-11,-3,-3,-3,2021-08-07 10:49:55,309731
3,3,2,1,9,5,3,4,2021-08-07 10:49:55,309731
-5,-8,-11,-14,-15,-9,-5,-4,2021-08-07 10:49:55,309731
3,5,8,18,28,12,4,3,2021-08-07 10:49:55,309731
-2,-1,1,-10,-18,-9,-4,-4,2021-08-07 10:49:55,325731
-3,-2,-5,-11,-12,-6,-2,-3,2021-08-07 10:49:55,325731
2,3,2,10,30,15,5,4,2021-08-07 10:49:55,325731
-6,-8,-11,-18,-16,-8,-5,-5,2021-08-07 10:49:55,325731
-4,-2,0,-13,-17,-7,-4,-1,2021-08-07 10:49:55,340731
-1,-2,-1,18,7,2,1,0,2021-08-07 10:49:55,356732
0,1,0,-13,-21,-7,-2,0,2021-08-07 10:49:55,372733
3,5,5,16,27,9,4,4,2021-08-07 10:49:55,372733
-6,-9,-13,-15,-5,-5,-5,-4,2021-08-07 10:49:55,372733
-1,4,7,2,1,2,1,3,2021-08-07 10:49:55,372733
-2,-1,0,2,-2,-2,-2,-2,2021-08-07 10:49:55,372733
-1,-3,3,-3,-14,-7,-2,-3,2021-08-07 10:49:55,373731
4,2,5,17,28,13,7,1,2021-08-07 10:49:55,388733
-1,-2,-5,-15,-14,-6,-3,-3,2021-08-07 10:49:55,388733
1,0,3,13,25,7,2,-1,2021-08-07 10:49:55,388733
-4,-3,-5,-22,-37,-16,-7,-2,2021-08-07 10:49:55,388733
-1,-1,7,17,14,5,0,-1,2021-08-07 10:49:55,404731
3,4,2,14,12,7,4,3,2021-08-07 10:49:55,404731
4,4,6,20,33,15,6,3,2021-08-07 10:49:55,404731
-3,-3,-11,-29,-28,-12,-4,-4,2021-08-07 10:49:55,404731
-3,-4,-6,-24,-32,-12,-5,-3,2021-08-07 10:49:55,434732
-2,-4,3,6,8,-1,-3,-4,2021-08-07 10:49:55,434732
2,2,8,25,28,13,3,3,2021-08-07 10:49:55,434732
4,3,-5,-6,-1,0,1,2,2021-08-07 10:49:55,434732
-3,-3,-2,-10,-1,-2,-2,-2,2021-08-07 10:49:55,439731
-4,-6,-7,-8,-6,-4,-2,-3,2021-08-07 10:49:55,439731
-2,-1,-1,-3,-12,-4,-3,-1,2021-08-07 10:49:55,450730
-2,-1,3,6,0,-2,-2,-2,2021-08-07 10:49:55,450730
2,1,-3,-2,0,2,-1,0,2021-08-07 10:49:55,466732
-1,1,0,-11,-11,-2,0,-2,2021-08-07 10:49:55,482731
6,5,7,21,19,7,5,4,2021-08-07 10:49:55,498731
-5,-4,-3,-7,-7,-4,-3,-4,2021-08-07 10:49:55,498731
-1,-2,-3,4,1,0,-1,-1,2021-08-07 10:49:55,498731
1,1,2,-2,-4,1,-2,0,2021-08-07 10:49:55,498731
-5,-5,-5,-6,7,1,-2,-2,2021-08-07 10:49:55,498731
-1,1,-1,-5,-5,-4,-3,-1,2021-08-07 10:49:55,499734
-1,-5,-7,-15,-15,-8,-1,0,2021-08-07 10:49:55,513731
-6,-6,-7,-15,-21,-11,-8,-5,2021-08-07 10:49:55,513731
4,2,6,9,18,9,3,1,2021-08-07 10:49:55,529731
3,3,6,16,10,6,3,1,2021-08-07 10:49:55,545734
-4,-4,-4,-1,-10,-5,-4,-4,2021-08-07 10:49:55,545734
-1,-2,-7,-22,-16,-8,-2,-3,2021-08-07 10:49:55,561733
-2,1,-1,-7,-12,-8,-3,-2,2021-08-07 10:49:55,577732
5,8,18,33,36,15,7,5,2021-08-07 10:49:55,577732
0,0,1,5,9,4,0,1,2021-08-07 10:49:55,577732
-4,-6,-10,-16,-12,-5,-2,-2,2021-08-07 10:49:55,577732
-11,-14,-18,-32,-45,-21,-11,-9,2021-08-07 10:49:55,593730
3,3,-4,-3,-7,-1,0,2,2021-08-07 10:49:55,593730
1,6,11,22,12,3,2,0,2021-08-07 10:49:55,593730
1,1,5,10,14,6,1,1,2021-08-07 10:49:55,593730
-5,-6,-9,-16,-19,-8,-4,-3,2021-08-07 10:49:55,593730
-10,-15,-16,-32,-27,-12,-8,-9,2021-08-07 10:49:55,593730
3,5,5,19,26,13,5,2,2021-08-07 10:49:55,594732
4,5,8,21,25,10,3,3,2021-08-07 10:49:55,594732
2,3,5,9,3,3,0,2,2021-08-07 10:49:55,594732
-1,-5,-5,-10,-16,-8,-4,-5,2021-08-07 10:49:55,594732
-1,-3,-9,-19,-30,-12,-5,-1,2021-08-07 10:49:55,609730
0,-1,3,4,14,4,0,-1,2021-08-07 10:49:55,609730
2,3,0,1,4,0,0,0,2021-08-07 10:49:55,609730
-3,-2,-4,-6,-8,-1,-1,0,2021-08-07 10:49:55,625733
1,2,4,10,14,6,2,0,2021-08-07 10:49:55,625733
-3,-3,-2,10,9,2,-1,-2,2021-08-07 10:49:55,625733
0,-3,-4,-2,-3,-2,-1,0,2021-08-07 10:49:55,625733
2,5,8,10,27,10,3,-1,2021-08-07 10:49:55,625733
0,2,3,-9,-13,-7,-2,1,2021-08-07 10:49:55,657732
2,0,-8,0,-1,1,1,1,2021-08-07 10:49:55,672732
-6,-8,-15,-32,-30,-13,-6,-6,2021-08-07 10:49:55,688731
-6,-13,-21,-6,-9,-8,-6,-6,2021-08-07 10:49:55,688731
-4,-3,-2,-7,5,1,-2,-1,2021-08-07 10:49:55,688731
0,4,11,20,18,6,2,2,2021-08-07 10:49:55,688731
4,6,10,8,-1,3,2,2,2021-08-07 10:49:55,688731
-1,0,0,-8,-19,-7,-1,-1,2021-08-07 10:49:55,688731
12,11,16,43,64,30,15,10,2021-08-07 10:49:55,688731
-7,-10,-12,-15,-24,-13,-8,-8,2021-08-07 10:49:55,689731
8,11,9,23,29,13,8,6,2021-08-07 10:49:55,689731
-6,-3,0,5,-5,-4,-2,-3,2021-08-07 10:49:55,689731
-2,-3,-9,-20,-19,-5,-4,-1,2021-08-07 10:49:55,720732
-1,-1,-1,-4,-5,-3,-1,-1,2021-08-07 10:49:55,736731
-1,-3,-2,2,1,0,-1,0,2021-08-07 10:49:55,752732
3,6,9,16,23,8,1,2,2021-08-07 10:49:55,752732
-4,-6,-7,-6,-16,-8,-6,-5,2021-08-07 10:49:55,752732
-1,0,1,-8,-13,-3,-1,0,2021-08-07 10:49:55,752732
-3,-5,-13,-19,-13,-8,-3,-3,2021-08-07 10:49:55,752732
-4,-4,-5,-1,12,4,1,2,2021-08-07 10:49:55,753732
0,-1,0,1,4,0,1,-1,2021-08-07 10:49:55,753732
-3,0,0,-3,-9,-7,-3,-2,2021-08-07 10:49:55,753732
6,13,21,16,-14,-4,1,1,2021-08-07 10:49:55,753732
7,7,15,28,53,24,11,8,2021-08-07 10:49:55,753732
-2,-5,-17,2,3,-1,0,-1,2021-08-07 10:49:55,768730
-6,-11,-25,-26,-23,-13,-5,-4,2021-08-07 10:49:55,768730
-7,-7,-11,-7,-5,-3,-6,-3,2021-08-07 10:49:55,768730
1,5,6,-1,-5,-3,-2,0,2021-08-07 10:49:55,768730
-4,4,8,0,-11,-6,-2,-2,2021-08-07 10:49:55,784732
2,4,8,7,7,3,2,1,2021-08-07 10:49:55,784732
-4,-5,-2,-8,-5,-4,-2,-2,2021-08-07 10:49:55,784732
4,4,1,-9,-14,-3,0,1,2021-08-07 10:49:55,784732
-4,-8,-11,-7,-7,-4,-4,-4,2021-08-07 10:49:55,816731
0,1,2,1,1,0,-1,-2,2021-08-07 10:49:55,816731
0,0,2,7,9,2,3,0,2021-08-07 10:49:55,816731
0,-1,1,5,-4,-3,-3,-1,2021-08-07 10:49:55,816731
-2,-6,-7,-13,-4,-1,-2,-3,2021-08-07 10:49:55,832731
2,1,-2,-14,-13,-4,0,3,2021-08-07 10:49:55,832731
0,-2,2,8,17,3,0,-1,2021-08-07 10:49:55,832731
-4,-3,3,-5,-15,-4,-4,-3,2021-08-07 10:49:55,832731
4,7,4,20,16,5,3,3,2021-08-07 10:49:55,848731
2,1,1,10,17,9,3,0,2021-08-07 10:49:55,848731
-7,-8,-14,-25,-31,-12,-6,-6,2021-08-07 10:49:55,848731
-5,-6,-12,-27,-30,-12,-4,-2,2021-08-07 10:49:55,848731
2,2,9,25,42,16,5,2,2021-08-07 10:49:55,879730
-2,-1,4,17,10,5,-1,1,2021-08-07 10:49:55,879730
6,10,12,10,5,4,4,4,2021-08-07 10:49:55,879730
-3,-3,-4,-12,-22,-11,-4,-2,2021-08-07 10:49:55,879730
-5,-7,-12,-31,-37,-16,-6,-6,2021-08-07 10:49:55,895732
7,5,5,17,33,14,8,5,2021-08-07 10:49:55,911730
-4,-6,-5,-2,-5,-4,-5,-4,2021-08-07 10:49:55,911730
-4,-4,-6,-4,-15,-5,-3,-1,2021-08-07 10:49:55,911730
-2,-3,-5,-23,-20,-9,-2,-1,2021-08-07 10:49:55,927732
8,9,14,33,36,16,8,5,2021-08-07 10:49:55,943731
-5,-8,-10,-19,-11,-4,-1,-3,2021-08-07 10:49:55,943731
0,1,5,14,27,12,3,-2,2021-08-07 10:49:55,943731
-15,-14,-18,-31,-46,-23,-14,-11,2021-08-07 10:49:55,958731
-1,2,3,14,18,6,-1,-2,2021-08-07 10:49:55,958731
1,4,6,7,7,2,-1,0,2021-08-07 10:49:55,958731
4,7,7,8,5,3,2,2,2021-08-07 10:49:55,958731
1,-1,-3,-13,-22,-9,-2,0,2021-08-07 10:49:55,958731
-7,-11,-12,-23,-28,-10,-6,-5,2021-08-07 10:49:55,958731
10,16,18,29,42,18,9,7,2021-08-07 10:49:55,959732
2,8,15,-2,-6,-1,0,-1,2021-08-07 10:49:55,959732
-1,-2,-1,2,-8,-3,-1,-1,2021-08-07 10:49:55,959732
-8,-24,-31,-6,-1,-5,-3,-4,2021-08-07 10:49:55,959732
-13,-32,-67,-23,-2,-2,-4,-6,2021-08-07 10:49:55,974731
-8,-5,-15,-17,-14,-8,-7,-4,2021-08-07 10:49:55,989730
5,14,15,15,12,4,3,4,2021-08-07 10:49:56,005732
2,19,35,3,-14,-6,-3,-2,2021-08-07 10:49:56,005732
4,10,23,8,5,4,0,0,2021-08-07 10:49:56,005732
-1,-7,-6,2,11,4,3,0,2021-08-07 10:49:56,005732
-1,3,10,-5,-6,-2,-1,-2,2021-08-07 10:49:56,005732
1,2,2,-2,4,0,1,0,2021-08-07 10:49:56,006733
-2,-3,-2,0,-12,-6,-5,-2,2021-08-07 10:49:56,006733
-4,-5,-9,1,-1,-2,-2,-2,2021-08-07 10:49:56,006733
3,0,-1,4,0,0,1,-1,2021-08-07 10:49:56,021730
0,0,-2,-14,-18,-5,0,2,2021-08-07 10:49:56,021730
0,1,6,15,25,7,2,-2,2021-08-07 10:49:56,037732
2,0,-1,7,5,1,2,0,2021-08-07 10:49:56,037732
0,-3,-2,6,7,2,-1,-1,2021-08-07 10:49:56,053764
-4,-4,-4,-26,-33,-16,-7,-2,2021-08-07 10:49:56,069765
9,13,22,27,19,12,7,7,2021-08-07 10:49:56,085764
1,-4,1,11,18,4,2,-1,2021-08-07 10:49:56,085764
-4,-5,-13,-15,-7,-3,-3,-2,2021-08-07 10:49:56,085764
-4,-7,-12,2,13,0,-1,-5,2021-08-07 10:49:56,085764
-4,-5,-6,-23,-33,-13,-4,-3,2021-08-07 10:49:56,085764
2,3,-3,9,18,6,1,1,2021-08-07 10:49:56,086765
-5,-3,8,-9,-11,-5,-3,-4,2021-08-07 10:49:56,086765
-2,1,-9,-4,1,0,1,-2,2021-08-07 10:49:56,086765
-2,-3,-1,0,-7,-5,-4,-1,2021-08-07 10:49:56,086765
3,0,-2,9,4,5,2,2,2021-08-07 10:49:56,086765
-1,-1,4,1,2,0,0,-2,2021-08-07 10:49:56,116763
3,1,1,-8,-7,-1,0,0,2021-08-07 10:49:56,116763
0,5,11,17,17,3,0,0,2021-08-07 10:49:56,116763
-1,0,-2,-13,-19,-9,-4,-2,2021-08-07 10:49:56,116763
-3,-8,-11,-33,-26,-10,-4,0,2021-08-07 10:49:56,132764
4,1,8,29,39,15,6,2,2021-08-07 10:49:56,148764
0,-1,-5,6,10,2,1,-1,2021-08-07 10:49:56,164763
0,2,4,-3,-14,-6,-1,-2,2021-08-07 10:49:56,164763
2,5,7,5,-1,0,2,2,2021-08-07 10:49:56,164763
-3,-4,-6,-18,-19,-6,-3,0,2021-08-07 10:49:56,164763
-2,-4,-4,13,25,7,3,0,2021-08-07 10:49:56,164763
-1,-2,4,11,13,3,0,-3,2021-08-07 10:49:56,164763
-5,-6,-8,-10,-13,-5,-2,-3,2021-08-07 10:49:56,164763
-3,-3,-17,-27,-32,-12,-7,-3,2021-08-07 10:49:56,164763
-3,1,0,-13,-13,-6,-2,0,2021-08-07 10:49:56,165764
-1,-1,8,4,14,3,-1,-2,2021-08-07 10:49:56,165764
6,5,-1,28,28,11,6,2,2021-08-07 10:49:56,196765
3,6,15,15,5,2,0,0,2021-08-07 10:49:56,211764
-1,0,5,-14,-24,-10,-4,-3,2021-08-07 10:49:56,211764
-7,-10,-20,-25,-34,-14,-5,-4,2021-08-07 10:49:56,211764
1,-2,0,38,55,22,8,4,2021-08-07 10:49:56,211764
-9,-10,-22,-21,-16,-9,-5,-7,2021-08-07 10:49:56,211764
0,3,11,-5,-10,-3,-2,-1,2021-08-07 10:49:56,211764
2,8,14,-6,-12,-5,-3,-1,2021-08-07 10:49:56,211764
5,6,15,18,11,2,2,2,2021-08-07 10:49:56,226765
2,-6,-25,11,16,7,2,3,2021-08-07 10:49:56,226765
-9,-15,-23,-30,-5,-4,-5,-6,2021-08-07 10:49:56,226765
1,1,5,1,5,3,1,2,2021-08-07 10:49:56,226765
0,0,-13,-3,-13,-4,-3,-1,2021-08-07 10:49:56,258762
2,4,32,10,11,2,0,0,2021-08-07 10:49:56,274276
4,5,-5,-5,-19,-6,0,3,2021-08-07 10:49:56,274276
-1,-3,-2,-3,3,2,1,0,2021-08-07 10:49:56,274276
-1,2,7,1,2,1,-1,-1,2021-08-07 10:49:56,274276
6,3,7,31,41,16,6,5,2021-08-07 10:49:56,274276
-2,-5,-4,-8,-12,-2,-1,-2,2021-08-07 10:49:56,274276
-4,-5,-6,-6,-2,-3,-2,-3,2021-08-07 10:49:56,275276
-1,-1,-3,-10,-15,-8,-4,-4,2021-08-07 10:49:56,290275
2,4,10,-1,-6,-1,0,0,2021-08-07 10:49:56,306274
0,0,-1,10,7,3,1,1,2021-08-07 10:49:56,313274
4,4,10,15,16,5,3,3,2021-08-07 10:49:56,313274
-9,-11,-26,-39,-45,-21,-9,-5,2021-08-07 10:49:56,313274
-1,2,11,26,26,12,4,2,2021-08-07 10:49:56,313274
0,4,7,9,16,4,-2,0,2021-08-07 10:49:56,313274
