EMG 1,EMG 2,EMG 3,EMG 4,EMG 5,EMG 6,EMG 7,EMG 8,Timestamp,Milliseconds
-2,-1,-2,1,1,0,0,-2,2021-08-07 10:48:09,371879
-1,-1,-1,0,0,0,-1,-1,2021-08-07 10:48:09,371879
-1,-2,0,-1,-1,-1,0,-1,2021-08-07 10:48:09,371879
-1,-2,-1,-3,-2,-1,1,-1,2021-08-07 10:48:09,371879
0,-1,-2,-4,-8,-2,-2,-2,2021-08-07 10:48:09,371879
2,2,5,15,18,8,3,2,2021-08-07 10:48:09,371879
-1,0,-2,-3,-6,-2,-1,-2,2021-08-07 10:48:09,371879
-1,0,-4,-4,-4,-3,-2,-1,2021-08-07 10:48:09,372882
-2,0,-2,-4,-8,-4,-1,-1,2021-08-07 10:48:09,387878
-2,-1,1,3,5,1,1,-2,2021-08-07 10:48:09,387878
0,0,1,5,5,1,-1,-1,2021-08-07 10:48:09,387878
2,1,2,3,0,0,0,1,2021-08-07 10:48:09,387878
-1,-1,-2,-2,-4,-1,0,-2,2021-08-07 10:48:09,387878
-1,-1,-4,-9,-13,-7,-2,-4,2021-08-07 10:48:09,387878
-1,-1,-2,-3,1,0,-1,0,2021-08-07 10:48:09,417880
-1,0,0,-1,-1,-1,-1,0,2021-08-07 10:48:09,417880
0,-1,1,0,2,0,0,1,2021-08-07 10:48:09,417880
-3,-4,-2,-4,-5,-3,-3,-2,2021-08-07 10:48:09,417880
0,-1,-2,-2,0,0,-1,-1,2021-08-07 10:48:09,433879
-1,0,-1,1,-1,0,-3,-3,2021-08-07 10:48:09,433879
-1,0,1,5,8,2,-1,-2,2021-08-07 10:48:09,448880
-3,-3,-5,-7,-10,-6,-3,-3,2021-08-07 10:48:09,463879
0,3,2,4,7,5,3,3,2021-08-07 10:48:09,463879
0,1,1,3,1,2,1,1,2021-08-07 10:48:09,463879
-2,-1,0,0,-4,-3,-2,-2,2021-08-07 10:48:09,495883
0,0,-3,-4,-1,-1,0,0,2021-08-07 10:48:09,495883
0,1,2,5,2,1,3,0,2021-08-07 10:48:09,495883
-2,-1,-2,-1,1,1,-2,0,2021-08-07 10:48:09,495883
-2,0,0,1,0,-1,-1,0,2021-08-07 10:48:09,495883
-2,0,-3,-4,-6,-2,-2,0,2021-08-07 10:48:09,495883
0,0,0,3,4,1,-2,-2,2021-08-07 10:48:09,495883
0,-1,-1,-3,-5,-3,-1,0,2021-08-07 10:48:09,495883
-1,-2,-5,-8,-6,-3,-2,-1,2021-08-07 10:48:09,510879
1,0,1,10,9,1,0,0,2021-08-07 10:48:09,525879
1,0,0,-4,-4,-1,-1,1,2021-08-07 10:48:09,525879
-1,-2,-1,-1,0,-2,-1,-1,2021-08-07 10:48:09,525879
-1,-2,-2,-1,-3,-3,-1,-2,2021-08-07 10:48:09,525879
-1,-1,0,-3,-4,-1,-2,-1,2021-08-07 10:48:09,525879
-1,0,0,2,3,1,0,0,2021-08-07 10:48:09,541879
0,-2,-1,0,-2,0,1,-1,2021-08-07 10:48:09,556880
0,0,-2,0,6,4,1,-1,2021-08-07 10:48:09,556880
1,0,0,-1,-1,-1,0,-1,2021-08-07 10:48:09,556880
-1,1,2,2,0,-1,1,0,2021-08-07 10:48:09,556880
-3,-2,-4,-6,-8,-4,-3,-3,2021-08-07 10:48:09,556880
0,0,1,-2,9,4,-1,0,2021-08-07 10:48:09,573880
-1,0,3,5,0,1,2,1,2021-08-07 10:48:09,573880
-3,-2,-1,-2,-3,-2,-2,-3,2021-08-07 10:48:09,573880
-2,-1,-2,-4,-5,-4,-3,-2,2021-08-07 10:48:09,573880
-1,-2,-2,-1,-4,-4,0,-1,2021-08-07 10:48:09,589879
0,-1,-1,-3,3,0,-3,0,2021-08-07 10:48:09,589879
-3,-2,-2,-4,-6,-3,-1,-2,2021-08-07 10:48:09,605881
-1,-2,-1,-1,1,1,-1,-2,2021-08-07 10:48:09,605881
-2,-2,-1,3,3,1,0,-1,2021-08-07 10:48:09,605881
-1,-1,-2,-3,-3,-1,1,-1,2021-08-07 10:48:09,605881
0,-1,-2,-2,0,1,-1,3,2021-08-07 10:48:09,605881
-3,-1,-1,0,-2,-2,-1,-4,2021-08-07 10:48:09,620880
0,-1,-3,-7,-7,-3,0,1,2021-08-07 10:48:09,635881
-1,-1,2,6,7,2,0,-2,2021-08-07 10:48:09,635881
0,-1,-4,-7,-6,-2,-2,-2,2021-08-07 10:48:09,635881
-1,0,2,7,4,1,0,2,2021-08-07 10:48:09,635881
-1,0,2,4,-1,-2,-1,-1,2021-08-07 10:48:09,635881
-1,0,-1,-5,-7,-1,-2,0,2021-08-07 10:48:09,635881
-1,-2,-1,-1,2,0,0,-1,2021-08-07 10:48:09,651879
-1,0,-2,-3,-4,-1,-2,-1,2021-08-07 10:48:09,651879
0,-1,-1,-1,0,1,0,0,2021-08-07 10:48:09,667881
0,0,-1,1,3,0,1,-1,2021-08-07 10:48:09,683879
-2,-3,-2,-1,-2,-2,-3,-1,2021-08-07 10:48:09,699879
0,0,-1,-1,-1,-4,-2,-2,2021-08-07 10:48:09,699879
-1,2,0,0,-3,-1,-3,-1,2021-08-07 10:48:09,699879
-2,-3,-1,-4,-6,-3,-2,-1,2021-08-07 10:48:09,699879
0,-2,-2,-5,-1,0,0,-1,2021-08-07 10:48:09,699879
-3,-2,-3,-3,-4,-3,-3,-2,2021-08-07 10:48:09,699879
3,3,2,2,6,3,1,0,2021-08-07 10:48:09,699879
0,-2,-4,-6,-10,-6,-3,-2,2021-08-07 10:48:09,700881
0,-1,2,5,6,2,1,-1,2021-08-07 10:48:09,730881
-2,-1,0,1,0,0,0,0,2021-08-07 10:48:09,730881
-2,-2,-2,0,-2,-3,-2,-2,2021-08-07 10:48:09,730881
-1,-2,-5,-7,-4,-1,0,-2,2021-08-07 10:48:09,730881
-2,-1,-3,-2,-5,-4,-2,-1,2021-08-07 10:48:09,730881
1,0,1,2,3,2,1,0,2021-08-07 10:48:09,731882
-3,-2,-2,-3,-6,-4,-2,-1,2021-08-07 10:48:09,746881
-2,-1,-2,1,0,-2,-1,-1,2021-08-07 10:48:09,762880
-1,-2,-1,-1,0,-1,0,0,2021-08-07 10:48:09,762880
1,-1,1,0,1,0,-1,-2,2021-08-07 10:48:09,762880
1,1,-1,2,3,2,1,0,2021-08-07 10:48:09,762880
-1,-3,-3,-4,-5,-3,-1,-3,2021-08-07 10:48:09,762880
0,1,2,6,4,1,1,0,2021-08-07 10:48:09,778883
0,1,-2,-4,-5,-2,0,-1,2021-08-07 10:48:09,794879
-1,-3,1,1,1,-2,-1,-3,2021-08-07 10:48:09,794879
1,2,1,-1,2,0,-1,0,2021-08-07 10:48:09,794879
-2,-1,-5,-6,-9,-6,-3,-3,2021-08-07 10:48:09,794879
1,-1,2,7,7,3,0,0,2021-08-07 10:48:09,794879
-2,-1,-1,-2,-6,-2,-2,-2,2021-08-07 10:48:09,810880
-1,0,2,0,0,-1,0,0,2021-08-07 10:48:09,810880
0,-2,-1,0,0,0,-3,-1,2021-08-07 10:48:09,810880
-2,-2,-3,-3,-1,-2,0,1,2021-08-07 10:48:09,810880
-2,0,-2,0,1,1,1,1,2021-08-07 10:48:09,826879
0,0,0,0,-1,-1,0,0,2021-08-07 10:48:09,826879
-1,-2,-1,-5,-7,-2,-2,0,2021-08-07 10:48:09,842879
1,-1,1,5,10,3,-1,2,2021-08-07 10:48:09,858882
0,-1,0,2,-1,-2,-1,0,2021-08-07 10:48:09,858882
-1,0,-2,0,0,0,0,-1,2021-08-07 10:48:09,858882
0,-1,0,0,-2,-3,0,-2,2021-08-07 10:48:09,858882
-1,1,-1,-3,-3,-1,-1,-1,2021-08-07 10:48:09,858882
0,-1,1,6,8,2,0,-2,2021-08-07 10:48:09,874883
0,0,0,-2,-1,-1,-1,0,2021-08-07 10:48:09,874883
-1,-1,0,1,0,0,-2,-1,2021-08-07 10:48:09,874883
-2,-2,-4,-9,-7,-5,-3,-2,2021-08-07 10:48:09,890881
0,1,-1,0,0,1,-1,0,2021-08-07 10:48:09,890881
0,-2,1,5,4,2,0,1,2021-08-07 10:48:09,906883
0,1,2,8,6,1,0,0,2021-08-07 10:48:09,906883
0,-3,-4,-11,-10,-5,-1,-3,2021-08-07 10:48:09,906883
0,-1,-3,-5,-6,-3,-1,-3,2021-08-07 10:48:09,906883
-2,-2,-4,-6,-3,-4,-1,-1,2021-08-07 10:48:09,906883
0,3,3,6,6,3,1,0,2021-08-07 10:48:09,922880
-1,1,1,4,0,1,1,0,2021-08-07 10:48:09,922880
-2,-3,-2,0,-1,-3,-1,-1,2021-08-07 10:48:09,922880
-3,-2,-1,-3,-5,-2,-1,-1,2021-08-07 10:48:09,923883
-2,-2,-2,-7,-6,-1,-4,-1,2021-08-07 10:48:09,938880
0,-1,0,2,4,1,0,0,2021-08-07 10:48:09,938880
-1,0,-1,-2,1,-1,-1,0,2021-08-07 10:48:09,938880
0,-1,0,1,0,-1,-2,-2,2021-08-07 10:48:09,938880
0,0,0,-1,-1,1,0,-1,2021-08-07 10:48:09,970880
0,1,-1,2,1,0,-2,-1,2021-08-07 10:48:09,970880
-2,-2,-2,-5,-6,-3,-3,-1,2021-08-07 10:48:09,970880
-1,-1,-2,-1,0,-1,-1,1,2021-08-07 10:48:09,970880
2,1,-2,2,2,0,0,1,2021-08-07 10:48:09,986880
1,-1,-1,2,1,4,2,1,2021-08-07 10:48:09,986880
0,-2,-3,-5,-8,-3,0,-2,2021-08-07 10:48:09,986880
-3,-2,-6,-7,-6,-2,-1,-3,2021-08-07 10:48:09,986880
0,0,6,15,15,6,2,0,2021-08-07 10:48:09,990883
-4,-1,0,2,1,-1,-3,-2,2021-08-07 10:48:09,990883
-1,0,1,3,2,-1,-1,-2,2021-08-07 10:48:10,018883
0,0,2,-1,-3,-2,-3,-3,2021-08-07 10:48:10,018883
-1,0,-4,-10,-11,-6,-3,0,2021-08-07 10:48:10,018883
0,0,-2,-1,-2,-1,-1,-1,2021-08-07 10:48:10,034881
2,1,2,1,4,0,1,2,2021-08-07 10:48:10,034881
1,-1,0,1,0,1,-2,1,2021-08-07 10:48:10,034881
-1,-2,-2,-3,-2,-1,0,-2,2021-08-07 10:48:10,034881
1,-2,-1,-1,-2,-2,-1,-1,2021-08-07 10:48:10,034881
1,-2,-4,-3,-4,0,0,0,2021-08-07 10:48:10,050882
-2,-1,-2,-2,-2,-2,0,-1,2021-08-07 10:48:10,050882
0,0,1,6,9,3,1,2,2021-08-07 10:48:10,050882
-2,-2,-1,-2,-4,-3,-3,-1,2021-08-07 10:48:10,050882
0,0,1,1,1,0,-1,-1,2021-08-07 10:48:10,081881
2,1,6,9,8,5,1,2,2021-08-07 10:48:10,081881
-2,-1,-3,-5,-4,-3,-2,-2,2021-08-07 10:48:10,081881
-3,-4,-5,-12,-10,-5,-2,-2,2021-08-07 10:48:10,081881
-3,-3,-5,-10,-9,-5,-5,-3,2021-08-07 10:48:10,097880
1,0,0,5,9,3,1,-1,2021-08-07 10:48:10,097880
0,0,1,-1,-2,-1,-1,1,2021-08-07 10:48:10,113879
1,3,2,9,7,2,1,0,2021-08-07 10:48:10,129880
-1,-2,0,-1,0,0,0,0,2021-08-07 10:48:10,129880
-3,0,-4,-6,-8,-5,-1,-1,2021-08-07 10:48:10,129880
-1,-4,-4,-7,-5,-2,0,-1,2021-08-07 10:48:10,129880
-2,-4,-2,1,-1,0,-1,0,2021-08-07 10:48:10,129880
-1,1,2,1,0,-1,-2,1,2021-08-07 10:48:10,130881
0,0,1,2,-3,-3,-2,-1,2021-08-07 10:48:10,145881
-1,1,0,2,10,4,0,0,2021-08-07 10:48:10,145881
1,2,0,1,-1,-1,1,-1,2021-08-07 10:48:10,145881
-2,-2,0,-1,-4,-2,-1,-2,2021-08-07 10:48:10,161881
-2,-1,-1,-1,1,0,-1,0,2021-08-07 10:48:10,161881
-2,-3,-3,-7,-10,-7,-4,-3,2021-08-07 10:48:10,161881
-2,0,-3,-6,-4,-1,-1,0,2021-08-07 10:48:10,161881
0,1,3,10,9,5,0,2,2021-08-07 10:48:10,162881
0,-2,0,3,2,-1,-1,-2,2021-08-07 10:48:10,162881
-3,-3,-3,-5,-9,-6,-1,-2,2021-08-07 10:48:10,177884
-1,-1,-2,-5,-3,-3,-2,-1,2021-08-07 10:48:10,177884
3,3,4,10,12,4,3,2,2021-08-07 10:48:10,209881
0,0,0,-3,-2,0,0,0,2021-08-07 10:48:10,209881
0,-1,0,0,2,1,-2,-1,2021-08-07 10:48:10,209881
-2,-2,1,-5,-8,-5,-2,-1,2021-08-07 10:48:10,209881
-2,-3,-3,-5,-6,-3,-1,-1,2021-08-07 10:48:10,209881
0,1,2,7,13,6,1,1,2021-08-07 10:48:10,210881
-1,-2,-1,-1,-5,-4,-2,-2,2021-08-07 10:48:10,225881
0,-1,-1,-1,-3,-2,1,-1,2021-08-07 10:48:10,225881
-4,-1,-3,-2,4,0,-1,-3,2021-08-07 10:48:10,225881
-1,-2,-1,-2,-5,-2,-2,-1,2021-08-07 10:48:10,225881
-3,-2,-7,-12,-15,-8,-2,-1,2021-08-07 10:48:10,241883
-1,0,0,8,13,5,1,0,2021-08-07 10:48:10,257884
2,4,5,9,3,3,2,0,2021-08-07 10:48:10,257884
-2,-2,-2,-1,-4,-2,-1,-1,2021-08-07 10:48:10,257884
-2,0,1,-1,1,1,-1,0,2021-08-07 10:48:10,257884
-2,-3,-2,-5,-5,-2,-2,0,2021-08-07 10:48:10,258881
-2,-3,-5,-11,-9,-5,-2,-3,2021-08-07 10:48:10,273882
1,2,2,7,1,1,0,0,2021-08-07 10:48:10,273882
-1,-2,-1,-2,1,0,-1,0,2021-08-07 10:48:10,273882
1,2,1,1,2,0,2,-1,2021-08-07 10:48:10,273882
-2,-2,-4,-3,-3,-3,-1,-2,2021-08-07 10:48:10,289881
-1,-1,-3,-5,-4,-3,1,0,2021-08-07 10:48:10,289881
-1,-1,-3,-4,-2,-1,0,0,2021-08-07 10:48:10,289881
0,0,0,4,5,0,0,0,2021-08-07 10:48:10,289881
-1,-1,-1,-5,-6,-2,-1,0,2021-08-07 10:48:10,320881
0,-1,-2,-7,-8,-4,-2,-2,2021-08-07 10:48:10,320881
0,0,3,8,9,4,2,0,2021-08-07 10:48:10,320881
-2,-1,1,-4,-1,0,-1,-1,2021-08-07 10:48:10,320881
-2,-2,-2,-3,-8,-3,-2,-2,2021-08-07 10:48:10,320881
1,0,0,-1,6,2,-1,-2,2021-08-07 10:48:10,321883
0,-1,0,-4,-7,-3,-2,-2,2021-08-07 10:48:10,352881
0,0,-2,2,-1,0,-1,0,2021-08-07 10:48:10,368881
0,-1,1,2,5,2,3,1,2021-08-07 10:48:10,368881
-1,-1,1,2,-2,-1,-1,-1,2021-08-07 10:48:10,368881
-1,-2,-2,1,5,-1,-1,-1,2021-08-07 10:48:10,368881
1,-1,1,-2,-3,0,-2,-2,2021-08-07 10:48:10,368881
0,0,-1,-2,-4,-2,-1,0,2021-08-07 10:48:10,368881
-1,0,1,5,3,0,1,-1,2021-08-07 10:48:10,369880
-2,-2,-3,-2,-5,-3,-1,0,2021-08-07 10:48:10,384880
-1,1,2,6,7,2,0,2,2021-08-07 10:48:10,384880
0,-2,-1,0,3,0,-1,0,2021-08-07 10:48:10,384880
-1,-1,-1,-2,-1,-2,-1,-2,2021-08-07 10:48:10,384880
-1,-1,-2,1,-4,-3,-2,-2,2021-08-07 10:48:10,400879
0,-3,-3,-3,-3,-3,-3,-3,2021-08-07 10:48:10,416881
-2,-2,-2,-3,-2,-3,-2,-2,2021-08-07 10:48:10,432881
0,0,-2,-5,-5,-1,-1,0,2021-08-07 10:48:10,432881
1,1,2,6,5,2,0,0,2021-08-07 10:48:10,432881
1,-1,1,2,5,1,1,-3,2021-08-07 10:48:10,432881
0,0,0,0,-1,-2,-2,1,2021-08-07 10:48:10,432881
0,-1,-3,-2,-1,-2,0,0,2021-08-07 10:48:10,432881
0,0,-2,-3,-6,-1,-1,-1,2021-08-07 10:48:10,433882
-1,-1,-3,-9,-7,-4,-2,-3,2021-08-07 10:48:10,433882
-2,0,0,6,4,2,-1,-2,2021-08-07 10:48:10,448881
-1,0,1,0,2,0,0,1,2021-08-07 10:48:10,448881
0,0,1,1,0,1,0,-1,2021-08-07 10:48:10,464881
0,0,0,2,-1,-1,-1,0,2021-08-07 10:48:10,464881
0,-1,-3,-6,-6,-2,-3,0,2021-08-07 10:48:10,480880
-1,-1,-1,-1,0,1,-2,-1,2021-08-07 10:48:10,483882
0,1,-1,3,5,1,1,0,2021-08-07 10:48:10,483882
-3,-1,0,3,-2,-2,-3,-1,2021-08-07 10:48:10,484882
-1,-1,-2,-2,-1,0,0,-2,2021-08-07 10:48:10,484882
-1,-2,-1,0,-1,-1,-3,-1,2021-08-07 10:48:10,484882
-2,-1,-1,0,-2,0,-2,-2,2021-08-07 10:48:10,511879
0,0,-3,-3,-2,-2,-2,0,2021-08-07 10:48:10,527881
-6,-6,-10,-26,-28,-12,-5,-5,2021-08-07 10:48:10,527881
3,5,14,39,43,18,6,4,2021-08-07 10:48:10,527881
-1,0,1,-3,-5,-2,0,-1,2021-08-07 10:48:10,527881
0,-1,1,3,8,3,2,0,2021-08-07 10:48:10,527881
-1,-2,0,0,-4,-5,-4,-2,2021-08-07 10:48:10,527881
-3,-3,-8,-17,-17,-7,-5,-3,2021-08-07 10:48:10,528881
-1,0,1,5,4,0,-1,0,2021-08-07 10:48:10,543883
-1,-1,-1,-2,-3,-1,-1,-1,2021-08-07 10:48:10,559881
1,-2,0,3,5,1,2,0,2021-08-07 10:48:10,559881
-2,-3,-4,-5,-7,-4,-3,-2,2021-08-07 10:48:10,575881
-1,0,1,2,3,1,-1,1,2021-08-07 10:48:10,575881
-1,-3,-4,-9,-9,-5,-3,-1,2021-08-07 10:48:10,575881
1,1,1,3,8,3,1,-2,2021-08-07 10:48:10,575881
-1,-1,-1,1,-3,0,1,0,2021-08-07 10:48:10,575881
-3,-2,-1,-7,-6,-3,-3,-1,2021-08-07 10:48:10,576883
-3,-2,-3,-1,-2,-3,-1,-1,2021-08-07 10:48:10,590881
-1,-2,-3,-6,-2,0,-2,0,2021-08-07 10:48:10,606881
0,0,-1,0,-1,-1,0,-1,2021-08-07 10:48:10,606881
0,0,0,1,-1,-1,0,-1,2021-08-07 10:48:10,606881
0,-1,-1,-6,-7,-2,0,0,2021-08-07 10:48:10,606881
3,3,7,21,18,6,3,1,2021-08-07 10:48:10,606881
-3,-3,-6,-12,-11,-5,-2,0,2021-08-07 10:48:10,607883
0,0,-1,2,2,1,-1,-1,2021-08-07 10:48:10,637880
-2,0,-1,-2,-3,0,-1,-1,2021-08-07 10:48:10,637880
-1,0,0,-3,-1,-2,-1,-3,2021-08-07 10:48:10,637880
-3,-1,-2,-4,-2,-2,0,0,2021-08-07 10:48:10,637880
0,-1,-1,0,2,0,-1,-1,2021-08-07 10:48:10,637880
-1,-1,-3,0,-2,-1,-3,1,2021-08-07 10:48:10,653881
-1,-1,-3,-1,-5,-1,-1,-1,2021-08-07 10:48:10,653881
-2,-2,-1,-3,-1,1,-2,0,2021-08-07 10:48:10,653881
0,-2,-4,-7,-4,-3,-1,-2,2021-08-07 10:48:10,669880
0,1,0,3,6,0,1,0,2021-08-07 10:48:10,669880
0,-1,0,-1,-5,-1,-1,1,2021-08-07 10:48:10,669880
-2,0,-1,0,3,2,1,-1,2021-08-07 10:48:10,669880
-1,1,2,1,0,-1,1,-1,2021-08-07 10:48:10,685881
-1,-2,-1,1,1,1,-2,-2,2021-08-07 10:48:10,685881
0,-1,-1,1,-1,-1,-2,-1,2021-08-07 10:48:10,700882
1,0,-2,-8,-8,-6,-2,-2,2021-08-07 10:48:10,716884
2,0,0,-1,2,3,0,1,2021-08-07 10:48:10,732881
-1,-1,-1,2,-1,-1,1,-2,2021-08-07 10:48:10,748882
-1,-2,-1,-3,-1,0,0,-1,2021-08-07 10:48:10,748882
-2,-3,-2,-8,-7,-3,-2,-4,2021-08-07 10:48:10,748882
-1,-1,0,5,1,-1,-1,-1,2021-08-07 10:48:10,748882
0,0,1,3,4,1,1,0,2021-08-07 10:48:10,748882
-1,-2,-1,-2,1,0,-2,0,2021-08-07 10:48:10,749882
0,0,0,3,0,0,0,0,2021-08-07 10:48:10,749882
-1,0,-2,1,1,0,1,0,2021-08-07 10:48:10,749882
-1,-3,-4,-10,-13,-7,-4,-1,2021-08-07 10:48:10,749882
2,0,1,5,9,4,1,0,2021-08-07 10:48:10,749882
0,0,1,4,3,1,1,0,2021-08-07 10:48:10,749882
-1,-4,-3,-7,-6,-1,-1,1,2021-08-07 10:48:10,764880
-1,-2,-2,-5,-6,-2,-1,0,2021-08-07 10:48:10,764880
-5,-3,-1,0,6,1,-2,-2,2021-08-07 10:48:10,764880
0,0,2,1,-3,-4,-3,-4,2021-08-07 10:48:10,764880
-1,-2,1,4,7,1,-2,-4,2021-08-07 10:48:10,780880
0,0,-1,-6,-1,-1,-2,-1,2021-08-07 10:48:10,780880
0,0,2,3,-6,-5,0,0,2021-08-07 10:48:10,796883
1,-1,0,0,1,1,1,0,2021-08-07 10:48:10,796883
-1,-1,1,-1,-3,-2,0,0,2021-08-07 10:48:10,812880
-2,-2,0,0,0,0,2,0,2021-08-07 10:48:10,828879
0,-1,-3,-4,-3,-1,0,-1,2021-08-07 10:48:10,843881
-1,-2,-3,-6,-7,-2,-3,-1,2021-08-07 10:48:10,843881
0,-2,-2,2,6,0,0,-2,2021-08-07 10:48:10,843881
0,-1,1,3,3,1,-2,0,2021-08-07 10:48:10,843881
-1,1,2,5,2,0,0,-1,2021-08-07 10:48:10,843881
-1,-2,-2,-6,-5,-4,-1,-2,2021-08-07 10:48:10,843881
-1,-2,-4,-11,-11,-5,-3,-2,2021-08-07 10:48:10,844885
0,1,3,5,10,4,-1,-2,2021-08-07 10:48:10,844885
1,-1,-1,-1,0,0,-2,-2,2021-08-07 10:48:10,844885
0,0,-1,0,-1,-1,0,-2,2021-08-07 10:48:10,844885
-1,-2,-1,-2,-4,-2,0,-1,2021-08-07 10:48:10,874883
-2,-3,-3,-5,-8,-5,-2,-4,2021-08-07 10:48:10,874883
-2,-2,-4,-4,-3,-3,-2,-2,2021-08-07 10:48:10,889882
0,0,4,10,14,7,3,0,2021-08-07 10:48:10,889882
0,-1,-2,-3,0,0,-1,2,2021-08-07 10:48:10,889882
0,-1,0,3,-3,-2,1,-1,2021-08-07 10:48:10,889882
-3,-1,-3,-9,-9,-5,0,-1,2021-08-07 10:48:10,889882
-1,1,0,4,6,2,-1,-1,2021-08-07 10:48:10,890881
-2,0,0,-1,-5,-4,-1,-1,2021-08-07 10:48:10,905881
2,1,2,3,9,4,0,0,2021-08-07 10:48:10,905881
0,-1,1,0,2,1,-2,0,2021-08-07 10:48:10,905881
-2,-3,-2,-2,-3,-4,-2,-3,2021-08-07 10:48:10,905881
-2,-3,-2,-7,-9,-4,-2,-2,2021-08-07 10:48:10,937881
1,4,1,2,3,2,3,2,2021-08-07 10:48:10,937881
-1,-1,0,0,3,0,-1,-1,2021-08-07 10:48:10,937881
-1,-2,-2,-2,-5,-1,-1,1,2021-08-07 10:48:10,937881
0,0,-2,-2,0,0,-2,-1,2021-08-07 10:48:10,937881
0,0,-1,-3,-4,-2,-2,-1,2021-08-07 10:48:10,937881
1,0,1,6,1,0,0,1,2021-08-07 10:48:10,952881
-1,-2,-2,-6,-2,-3,-3,-2,2021-08-07 10:48:10,952881
1,1,0,2,3,3,1,-1,2021-08-07 10:48:10,968882
1,-1,-1,1,1,-1,-2,0,2021-08-07 10:48:10,968882
0,0,-2,-1,-1,1,0,1,2021-08-07 10:48:10,968882
-1,-3,-7,-13,-14,-7,-3,-3,2021-08-07 10:48:10,968882
-1,1,3,10,11,5,1,0,2021-08-07 10:48:10,984880
-1,-2,1,0,0,-3,-1,-1,2021-08-07 10:48:11,000880
-1,-2,-3,-5,-6,-3,-3,-1,2021-08-07 10:48:11,004880
-1,-1,-2,-6,-5,-3,0,-1,2021-08-07 10:48:11,004880
-2,-3,-2,0,-2,-2,-2,-1,2021-08-07 10:48:11,004880
2,3,5,12,10,6,3,3,2021-08-07 10:48:11,004880
-1,-2,-2,0,2,1,1,0,2021-08-07 10:48:11,005880
-1,-1,0,1,0,2,0,-1,2021-08-07 10:48:11,005880
0,0,-1,-7,-5,-4,-2,-1,2021-08-07 10:48:11,032880
-4,-2,-2,-4,-5,-2,-1,-1,2021-08-07 10:48:11,047881
-2,-3,-2,-3,-2,0,0,-1,2021-08-07 10:48:11,047881
0,0,-1,2,-1,0,0,1,2021-08-07 10:48:11,047881
0,-2,0,2,5,3,0,0,2021-08-07 10:48:11,047881
-1,-1,-1,-2,-3,0,-1,-1,2021-08-07 10:48:11,047881
-1,-1,1,2,2,-1,0,-2,2021-08-07 10:48:11,048884
0,-1,0,1,0,0,-2,1,2021-08-07 10:48:11,048884
-2,-1,-1,0,-1,-1,-2,-1,2021-08-07 10:48:11,063881
-2,-2,-5,-5,-8,-5,-2,-3,2021-08-07 10:48:11,063881
0,0,-2,-1,-5,-2,-2,0,2021-08-07 10:48:11,063881
0,1,0,-3,2,-1,1,1,2021-08-07 10:48:11,063881
-1,-1,-1,0,3,-1,-1,-2,2021-08-07 10:48:11,094881
-2,0,-1,0,0,0,-2,0,2021-08-07 10:48:11,110882
-1,-1,-1,0,0,-2,-3,-3,2021-08-07 10:48:11,110882
-1,-2,-3,-6,-3,-2,-1,-3,2021-08-07 10:48:11,110882
0,0,1,7,2,2,1,0,2021-08-07 10:48:11,110882
-1,-2,-4,-6,-6,-3,0,-2,2021-08-07 10:48:11,110882
-1,0,2,4,5,4,0,-2,2021-08-07 10:48:11,110882
-2,-1,-2,0,-4,-2,-1,-1,2021-08-07 10:48:11,111882
-2,-2,0,-5,-2,-2,-1,-2,2021-08-07 10:48:11,126881
-1,1,1,-1,1,0,0,-1,2021-08-07 10:48:11,126881
1,-1,-1,-3,-2,-1,0,-1,2021-08-07 10:48:11,158931
-1,1,1,4,3,2,0,0,2021-08-07 10:48:11,189932
0,0,0,-1,-2,0,-1,-2,2021-08-07 10:48:11,189932
-1,-1,-3,-4,-4,-3,-3,-2,2021-08-07 10:48:11,189932
-1,-1,-3,-3,-5,-3,-3,0,2021-08-07 10:48:11,205931
1,1,0,5,10,4,2,1,2021-08-07 10:48:11,221930
-1,-1,-2,-1,-1,-2,1,1,2021-08-07 10:48:11,221930
-2,-3,-2,-2,0,-1,-2,-2,2021-08-07 10:48:11,221930
1,0,-1,-1,-2,-1,0,-1,2021-08-07 10:48:11,221930
-1,-1,0,0,-2,0,-1,0,2021-08-07 10:48:11,221930
0,-1,-2,-3,-3,0,0,1,2021-08-07 10:48:11,221930
0,0,1,2,0,0,0,0,2021-08-07 10:48:11,221930
0,0,-1,0,0,0,0,0,2021-08-07 10:48:11,237930
0,-1,-2,-1,-1,-1,-1,-1,2021-08-07 10:48:11,253931
-1,-1,-4,-2,-1,1,1,0,2021-08-07 10:48:11,269930
-1,-3,-1,-1,1,-1,0,-1,2021-08-07 10:48:11,269930
-1,-2,0,-2,-2,-1,-1,1,2021-08-07 10:48:11,269930
-1,-1,-1,-1,-1,-1,-1,-1,2021-08-07 10:48:11,269930
-1,-1,-1,-2,-2,-3,-2,0,2021-08-07 10:48:11,270930
-1,-1,-2,1,1,-1,-2,-1,2021-08-07 10:48:11,270930
-2,0,1,0,-2,0,-1,-1,2021-08-07 10:48:11,270930
-1,-2,-1,0,-1,-2,1,0,2021-08-07 10:48:11,270930
0,-1,-3,0,-1,0,-1,-1,2021-08-07 10:48:11,270930
0,-1,-2,-1,-1,-1,1,-2,2021-08-07 10:48:11,270930
0,-1,0,0,-1,-1,-1,-1,2021-08-07 10:48:11,271931
0,-1,-1,0,0,-1,-3,0,2021-08-07 10:48:11,271931
0,0,0,-1,0,0,1,-1,2021-08-07 10:48:11,271931
-1,0,0,-2,-2,-1,0,1,2021-08-07 10:48:11,271931
-1,-1,-1,-3,-3,-2,-2,0,2021-08-07 10:48:11,271931
0,0,1,2,2,1,-2,-3,2021-08-07 10:48:11,285932
-2,-2,-1,-6,-9,-3,-2,-1,2021-08-07 10:48:11,285932
-2,-4,-4,-2,0,-2,-3,-2,2021-08-07 10:48:11,285932
1,1,0,0,9,4,3,1,2021-08-07 10:48:11,300930
2,1,3,3,4,0,2,0,2021-08-07 10:48:11,300930
-1,-1,-1,-1,-3,-3,-1,-3,2021-08-07 10:48:11,315930
-1,-1,-3,-3,-5,-1,-1,-2,2021-08-07 10:48:11,315930
-3,-2,-5,-10,-8,-5,-3,-3,2021-08-07 10:48:11,315930
-1,-1,-2,1,0,-1,0,-1,2021-08-07 10:48:11,331931
-1,0,0,-3,1,1,0,-1,2021-08-07 10:48:11,331931
0,-2,0,3,-1,0,0,1,2021-08-07 10:48:11,331931
0,-2,-1,-3,-8,-5,-1,0,2021-08-07 10:48:11,331931
1,0,1,0,6,2,0,-1,2021-08-07 10:48:11,331931
-1,-1,-2,0,-2,-2,-1,0,2021-08-07 10:48:11,347931
-1,1,-1,-1,0,-1,-1,1,2021-08-07 10:48:11,347931
1,0,0,1,2,-1,-1,1,2021-08-07 10:48:11,347931
-2,-2,-2,-6,-7,-4,0,0,2021-08-07 10:48:11,347931
-2,-1,-2,0,1,0,-2,-1,2021-08-07 10:48:11,379451
0,-1,0,-2,-3,-2,0,-1,2021-08-07 10:48:11,395453
0,0,0,3,4,3,1,0,2021-08-07 10:48:11,395453
-2,-1,-2,-1,-7,-3,-2,-2,2021-08-07 10:48:11,395453
-1,-1,-1,-2,0,1,-1,-1,2021-08-07 10:48:11,395453
0,-1,2,2,2,3,-1,-1,2021-08-07 10:48:11,395453
-1,-3,0,0,1,0,0,-1,2021-08-07 10:48:11,396452
-1,-1,-3,-1,-4,-2,-1,-1,2021-08-07 10:48:11,396452
0,-1,-1,0,-2,-1,0,-1,2021-08-07 10:48:11,411452
-2,-2,-3,-5,-2,-3,-1,-2,2021-08-07 10:48:11,427451
-1,0,1,0,-1,-1,0,-1,2021-08-07 10:48:11,442452
-1,-1,0,-2,0,-2,-2,0,2021-08-07 10:48:11,442452
-1,-2,-1,-1,-1,-2,-3,-1,2021-08-07 10:48:11,442452
-2,-1,-1,0,-2,-2,-1,0,2021-08-07 10:48:11,442452
0,0,-1,-2,-1,0,0,0,2021-08-07 10:48:11,442452
-1,-1,-1,-1,-1,-1,0,-1,2021-08-07 10:48:11,443452
-1,0,0,0,0,-1,-1,0,2021-08-07 10:48:11,443452
1,1,1,3,1,-2,-1,-1,2021-08-07 10:48:11,443452
0,0,0,0,-1,-1,-1,-2,2021-08-07 10:48:11,458452
-2,-2,-1,-2,-1,-2,-1,-2,2021-08-07 10:48:11,458452
-1,-1,0,1,2,-1,-1,-1,2021-08-07 10:48:11,474452
0,0,0,1,1,-1,-1,-1,2021-08-07 10:48:11,490506
0,-1,-1,0,-2,-1,1,0,2021-08-07 10:48:11,490506
-3,1,0,-1,0,0,-2,-1,2021-08-07 10:48:11,490506
-1,2,-1,0,1,0,0,1,2021-08-07 10:48:11,490506
-1,-7,-4,0,-1,-1,-1,0,2021-08-07 10:48:11,490506
-1,-2,-3,-2,-1,-1,-1,0,2021-08-07 10:48:11,506504
-1,-2,-1,1,0,-1,0,0,2021-08-07 10:48:11,506504
-1,1,0,-1,0,0,1,-1,2021-08-07 10:48:11,536507
0,2,-1,0,0,-1,-2,-2,2021-08-07 10:48:11,536507
0,-1,-1,-2,0,-1,0,-1,2021-08-07 10:48:11,536507
0,-2,1,-1,-3,-1,-1,-2,2021-08-07 10:48:11,536507
-1,-1,0,0,-2,-2,-2,-1,2021-08-07 10:48:11,536507
0,-1,1,-1,-3,-2,-1,-1,2021-08-07 10:48:11,536507
0,0,0,-2,-1,-2,-2,-1,2021-08-07 10:48:11,554505
0,-1,0,2,1,1,1,0,2021-08-07 10:48:11,570504
0,0,-1,-4,-1,0,0,-1,2021-08-07 10:48:11,570504
-1,0,1,4,3,1,1,-1,2021-08-07 10:48:11,570504
0,0,-2,-3,-3,-3,-2,-1,2021-08-07 10:48:11,570504
1,1,-2,-2,-6,-2,-2,1,2021-08-07 10:48:11,570504
-1,-2,-2,-1,-2,-2,1,2,2021-08-07 10:48:11,570504
-2,-2,-2,-3,0,0,2,-1,2021-08-07 10:48:11,570504
-4,-3,-1,0,-1,-1,-1,-4,2021-08-07 10:48:11,571505
-3,-3,-5,-9,-6,-5,-4,-4,2021-08-07 10:48:11,571505
-1,0,5,13,13,3,-1,-1,2021-08-07 10:48:11,585505
0,1,0,1,1,-1,0,0,2021-08-07 10:48:11,585505
0,1,-1,-1,0,0,-1,1,2021-08-07 10:48:11,585505
2,-1,-3,-2,-2,-1,0,1,2021-08-07 10:48:11,600506
-1,-2,-3,-4,-6,-3,-3,-1,2021-08-07 10:48:11,615509
0,0,-4,-7,-4,-3,-1,-1,2021-08-07 10:48:11,615509
1,0,1,3,3,1,0,2,2021-08-07 10:48:11,615509
-2,-2,-2,-2,-3,-4,-1,0,2021-08-07 10:48:11,615509
0,-2,-2,-3,-1,1,1,-3,2021-08-07 10:48:11,631510
0,-1,2,5,4,3,0,-1,2021-08-07 10:48:11,647503
-1,-1,-3,-4,-2,-1,-1,0,2021-08-07 10:48:11,647503
-1,0,1,1,-1,-2,-1,-1,2021-08-07 10:48:11,647503
1,-2,0,-1,2,0,0,0,2021-08-07 10:48:11,647503
-1,-1,1,-4,-7,-3,-1,0,2021-08-07 10:48:11,647503
-1,0,1,2,3,0,0,-1,2021-08-07 10:48:11,663505
1,-1,-1,0,2,3,0,0,2021-08-07 10:48:11,663505
-1,-2,-1,3,-2,-1,-2,-1,2021-08-07 10:48:11,663505
-2,-2,-2,-7,-4,-3,-2,1,2021-08-07 10:48:11,663505
-1,0,-1,-1,-3,-1,0,0,2021-08-07 10:48:11,663505
-1,0,-2,2,4,2,0,-3,2021-08-07 10:48:11,664507
-2,-2,-2,-3,-3,-2,-1,0,2021-08-07 10:48:11,695507
-1,2,1,5,5,2,0,-1,2021-08-07 10:48:11,711025
-2,-2,-1,-1,-1,-1,0,-1,2021-08-07 10:48:11,727024
-2,-1,0,0,-2,-1,0,-2,2021-08-07 10:48:11,727024
-2,-2,-2,-4,-4,-1,-2,0,2021-08-07 10:48:11,727024
0,-2,-1,-1,-3,-4,-2,-1,2021-08-07 10:48:11,727024
0,-1,-1,-4,-4,-4,0,-1,2021-08-07 10:48:11,727024
-1,-1,-1,0,0,0,0,-1,2021-08-07 10:48:11,727024
0,0,-3,0,2,1,0,-1,2021-08-07 10:48:11,728025
1,2,5,7,4,2,3,2,2021-08-07 10:48:11,728025
-1,1,0,1,0,0,-1,-2,2021-08-07 10:48:11,728025
-1,-2,0,-1,0,-2,-2,0,2021-08-07 10:48:11,728025
0,-1,-2,-2,-4,-4,-2,-2,2021-08-07 10:48:11,743026
-3,-1,-1,-3,-4,-2,-2,-3,2021-08-07 10:48:11,759027
1,0,2,4,3,1,0,0,2021-08-07 10:48:11,775025
0,0,0,2,1,0,-1,-1,2021-08-07 10:48:11,791026
-2,0,0,-6,-5,-3,-1,-1,2021-08-07 10:48:11,791026
-2,-1,-3,-5,0,0,-2,0,2021-08-07 10:48:11,791026
-2,-1,-1,-1,-3,-2,-1,-1,2021-08-07 10:48:11,791026
-1,-1,-2,0,-2,-1,-1,-3,2021-08-07 10:48:11,791026
-1,0,-1,2,2,-1,1,0,2021-08-07 10:48:11,791026
0,-3,-2,-1,-3,0,-2,-2,2021-08-07 10:48:11,792025
0,-1,0,0,0,0,-1,-1,2021-08-07 10:48:11,792025
-2,-2,-1,-5,-7,-4,-2,-1,2021-08-07 10:48:11,792025
1,0,1,2,3,3,0,1,2021-08-07 10:48:11,823025
-1,-2,0,2,9,2,-1,-1,2021-08-07 10:48:11,839023
0,-1,-2,-1,0,-1,-2,-1,2021-08-07 10:48:11,839023
-2,-1,-1,-3,-1,-2,0,-1,2021-08-07 10:48:11,839023
-4,-4,-3,-7,-9,-5,-4,-3,2021-08-07 10:48:11,839023
2,0,0,4,2,1,1,-1,2021-08-07 10:48:11,840028
-1,-1,0,0,1,0,0,0,2021-08-07 10:48:11,840028
0,1,0,1,-3,-1,-1,0,2021-08-07 10:48:11,840028
-3,0,-2,-2,-3,-2,0,-3,2021-08-07 10:48:11,855024
-1,-2,-1,1,1,-1,0,0,2021-08-07 10:48:11,855024
-2,-1,-1,-1,-2,-2,-2,-1,2021-08-07 10:48:11,855024
-2,-2,1,0,1,-2,0,-1,2021-08-07 10:48:11,855024
1,-1,2,4,2,1,-2,0,2021-08-07 10:48:11,855024
-1,-2,-2,-5,-5,-2,-3,-2,2021-08-07 10:48:11,856027
2,0,-1,0,-1,1,-1,0,2021-08-07 10:48:11,870025
-2,-1,-1,-1,-1,-1,0,0,2021-08-07 10:48:11,870025
-3,0,-1,-2,-3,-2,-1,-2,2021-08-07 10:48:11,886026
-1,1,3,2,1,0,1,1,2021-08-07 10:48:11,886026
0,-1,-1,-3,-2,-1,-1,-1,2021-08-07 10:48:11,886026
1,-1,1,2,2,0,-1,-1,2021-08-07 10:48:11,886026
1,-1,-1,-2,-1,0,-2,-1,2021-08-07 10:48:11,917025
-1,-1,-2,1,-4,-3,0,-2,2021-08-07 10:48:11,917025
-2,0,-1,1,3,-2,0,-2,2021-08-07 10:48:11,917025
0,-1,-2,1,2,0,-2,0,2021-08-07 10:48:11,933028
-2,-1,0,2,1,0,0,-1,2021-08-07 10:48:11,933028
-2,-1,-3,-4,-4,-4,-4,-1,2021-08-07 10:48:11,933028
-4,-3,-3,-4,-8,-4,-3,-1,2021-08-07 10:48:11,933028
0,0,1,5,10,5,1,1,2021-08-07 10:48:11,933028
2,-2,0,-2,-2,-2,-2,0,2021-08-07 10:48:11,949025
0,0,0,0,-1,0,2,-1,2021-08-07 10:48:11,965025
-1,-1,0,4,3,0,-2,-2,2021-08-07 10:48:11,965025
0,-2,-2,-5,-5,-2,-1,-2,2021-08-07 10:48:11,965025
-2,-3,-5,-12,-18,-11,-4,-4,2021-08-07 10:48:11,965025
3,3,6,10,15,8,3,3,2021-08-07 10:48:11,965025
-1,0,0,3,1,2,2,0,2021-08-07 10:48:11,981027
0,0,0,0,-2,0,0,0,2021-08-07 10:48:11,981027
-1,1,0,2,3,1,1,-1,2021-08-07 10:48:11,981027
-2,-3,-5,-13,-14,-8,-2,-3,2021-08-07 10:48:11,981027
-1,-2,-3,-5,-3,-3,-1,-2,2021-08-07 10:48:11,997025
-2,2,3,4,2,0,-1,2,2021-08-07 10:48:12,012025
-2,-2,-3,-1,1,-1,-1,1,2021-08-07 10:48:12,012025
0,-2,-3,-3,-4,-3,-3,-2,2021-08-07 10:48:12,028025
1,1,-1,1,2,1,1,-1,2021-08-07 10:48:12,028025
-2,-2,-4,-4,-5,-1,-1,-1,2021-08-07 10:48:12,028025
1,1,-1,-1,0,1,0,0,2021-08-07 10:48:12,028025
1,-1,-1,-3,-1,0,-1,0,2021-08-07 10:48:12,029025
1,-1,0,2,1,0,-1,-2,2021-08-07 10:48:12,029025
0,-2,-2,-3,-3,-3,-2,-2,2021-08-07 10:48:12,029025
-2,-1,-1,3,3,0,-1,-1,2021-08-07 10:48:12,044025
-2,-2,-4,-2,-3,-1,-1,-2,2021-08-07 10:48:12,044025
0,-1,-1,-4,-4,-2,-3,-1,2021-08-07 10:48:12,059027
-2,-1,-2,-4,-2,-2,-2,-1,2021-08-07 10:48:12,059027
-2,0,2,5,6,2,0,0,2021-08-07 10:48:12,059027
0,-1,-4,-3,-7,-5,-1,-3,2021-08-07 10:48:12,059027
-2,0,0,-3,-1,-1,-2,-1,2021-08-07 10:48:12,075025
0,-1,1,5,5,0,-2,0,2021-08-07 10:48:12,075025
-2,-1,0,-1,-2,-2,-1,-3,2021-08-07 10:48:12,091028
-1,-1,-1,1,0,-1,-2,-2,2021-08-07 10:48:12,107028
0,-1,0,0,-5,-1,-1,-2,2021-08-07 10:48:12,107028
-1,-1,-4,-7,-5,-4,-2,-1,2021-08-07 10:48:12,107028
0,-2,0,3,1,-1,0,-2,2021-08-07 10:48:12,107028
0,-3,0,-1,0,-1,0,-1,2021-08-07 10:48:12,108025
0,-1,0,2,3,2,1,0,2021-08-07 10:48:12,108025
0,1,0,-2,-4,-2,0,0,2021-08-07 10:48:12,108025
0,0,-1,-1,-2,-2,-1,1,2021-08-07 10:48:12,123025
-3,-3,-4,-10,-6,-4,-3,-2,2021-08-07 10:48:12,123025
-1,-2,0,4,6,1,0,0,2021-08-07 10:48:12,139025
1,1,1,4,1,1,-1,0,2021-08-07 10:48:12,139025
1,-1,-3,0,1,-1,0,-1,2021-08-07 10:48:12,154024
1,-1,-2,-6,-7,-5,-3,0,2021-08-07 10:48:12,170026
-1,0,1,-1,6,3,2,-2,2021-08-07 10:48:12,170026
-1,0,1,2,2,2,2,-1,2021-08-07 10:48:12,170026
-2,-1,-2,-4,-3,-1,-2,-2,2021-08-07 10:48:12,170026
0,0,0,0,-2,-2,0,0,2021-08-07 10:48:12,170026
-1,-1,-4,-8,-6,-3,-1,0,2021-08-07 10:48:12,171026
-1,0,-1,2,2,1,1,-1,2021-08-07 10:48:12,171026
0,-1,2,3,1,1,-1,0,2021-08-07 10:48:12,186026
-2,-1,0,-1,0,1,-2,0,2021-08-07 10:48:12,186026
-1,0,-3,-1,-4,-3,0,-1,2021-08-07 10:48:12,186026
-2,-2,-3,-4,-3,0,-2,-3,2021-08-07 10:48:12,186026
-1,-2,-1,-3,-3,-2,-2,-1,2021-08-07 10:48:12,216027
2,2,1,1,5,3,2,3,2021-08-07 10:48:12,232027
-2,-1,-1,4,4,2,-1,0,2021-08-07 10:48:12,232027
-2,-2,-3,0,0,-3,-1,-1,2021-08-07 10:48:12,232027
-2,0,-2,-4,-5,-3,-1,-3,2021-08-07 10:48:12,232027
-3,-1,-1,2,-1,-1,-2,-1,2021-08-07 10:48:12,232027
0,-1,-1,-1,0,-1,-2,0,2021-08-07 10:48:12,233025
1,-1,-2,-3,-2,0,-1,-1,2021-08-07 10:48:12,233025
0,-2,1,4,3,3,1,1,2021-08-07 10:48:12,247025
-1,-1,-3,-5,-7,-3,-1,-3,2021-08-07 10:48:12,247025
0,0,3,3,-1,0,-1,0,2021-08-07 10:48:12,247025
0,0,0,0,6,3,1,-2,2021-08-07 10:48:12,247025
1,-1,-1,-3,-2,-3,-2,1,2021-08-07 10:48:12,279026
-2,-3,-2,-2,-4,-1,-1,-1,2021-08-07 10:48:12,295025
-1,-1,-2,0,-2,-2,-2,-1,2021-08-07 10:48:12,327024
-1,-2,-4,-4,-10,-4,-3,-1,2021-08-07 10:48:12,327024
0,2,2,2,3,3,1,0,2021-08-07 10:48:12,327024
-1,0,0,4,3,1,-1,-1,2021-08-07 10:48:12,327024
-3,-2,1,0,-3,-2,-1,-2,2021-08-07 10:48:12,327024
-2,0,1,-1,-2,0,-2,0,2021-08-07 10:48:12,328026
-3,-2,-4,-5,-6,-3,-3,-3,2021-08-07 10:48:12,328026
-1,0,2,2,5,2,0,0,2021-08-07 10:48:12,328026
-1,-2,0,-4,-6,-4,-2,0,2021-08-07 10:48:12,328026
-1,-2,0,-2,1,-2,-1,-1,2021-08-07 10:48:12,328026
-2,-1,-3,-2,-1,-3,-1,-2,2021-08-07 10:48:12,328026
0,0,3,2,3,2,2,-1,2021-08-07 10:48:12,329027
-1,-2,-1,0,-3,-1,-1,-1,2021-08-07 10:48:12,329027
0,0,1,-1,-1,-2,-1,1,2021-08-07 10:48:12,329027
-2,-2,-3,-5,-5,-2,-2,-1,2021-08-07 10:48:12,373026
0,-1,-2,1,1,-2,-2,-1,2021-08-07 10:48:12,373026
1,1,0,1,5,2,3,1,2021-08-07 10:48:12,373026
-2,-2,0,-1,-9,-4,-3,-1,2021-08-07 10:48:12,373026
-2,0,0,0,7,1,1,-1,2021-08-07 10:48:12,389026
0,1,-1,2,3,2,0,0,2021-08-07 10:48:12,389026
-1,-3,-4,-8,-5,-2,-1,1,2021-08-07 10:48:12,389026
2,0,-1,3,3,3,0,1,2021-08-07 10:48:12,389026
-1,-3,-3,-2,-4,-1,-1,-1,2021-08-07 10:48:12,405029
-2,-2,-1,-2,-2,-3,-1,-2,2021-08-07 10:48:12,421025
-2,-1,-1,1,-1,-1,-2,-5,2021-08-07 10:48:12,421025
-3,-2,1,-1,2,-3,-2,-4,2021-08-07 10:48:12,421025
-1,-1,2,1,-4,-3,-4,1,2021-08-07 10:48:12,421025
2,0,-1,0,3,1,0,0,2021-08-07 10:48:12,421025
0,-1,-2,-5,-9,-3,-3,1,2021-08-07 10:48:12,422026
2,2,-1,-1,6,2,0,2,2021-08-07 10:48:12,422026
3,2,2,8,5,3,2,-1,2021-08-07 10:48:12,422026
0,-2,-1,-2,-2,-3,-2,-1,2021-08-07 10:48:12,422026
-1,0,-1,1,0,0,1,1,2021-08-07 10:48:12,437025
-2,-3,-3,-3,-5,-4,0,-3,2021-08-07 10:48:12,437025
-2,-2,-1,-3,-1,0,0,-2,2021-08-07 10:48:12,453025
0,0,0,-1,2,1,-1,0,2021-08-07 10:48:12,453025
0,-1,-1,0,-2,0,-1,-1,2021-08-07 10:48:12,453025
-1,0,-1,-2,1,0,-2,-1,2021-08-07 10:48:12,453025
0,-1,0,4,2,-1,-2,0,2021-08-07 10:48:12,484024
-3,0,-1,-3,-6,-2,-1,0,2021-08-07 10:48:12,500023
0,-1,-1,-1,0,-2,-1,-2,2021-08-07 10:48:12,500023
-2,0,0,0,1,0,-2,0,2021-08-07 10:48:12,500023
-1,0,-1,-5,-2,-3,-1,-2,2021-08-07 10:48:12,500023
-2,-2,-1,0,-2,0,0,-2,2021-08-07 10:48:12,500023
0,0,0,1,2,0,0,0,2021-08-07 10:48:12,500023
0,-2,0,2,-2,-1,0,-2,2021-08-07 10:48:12,501025
-1,-1,-2,-2,-1,-2,0,1,2021-08-07 10:48:12,516026
-1,-1,-2,0,-1,0,-2,0,2021-08-07 10:48:12,532026
0,0,-1,-1,0,0,0,-2,2021-08-07 10:48:12,548025
0,-2,-2,-2,-1,0,0,-1,2021-08-07 10:48:12,548025
0,-1,0,-2,-1,0,-1,0,2021-08-07 10:48:12,564025
-2,-1,-2,-1,1,-1,0,0,2021-08-07 10:48:12,580023
-1,0,-1,-1,-1,-1,-2,0,2021-08-07 10:48:12,593027
1,-2,-1,-1,-2,0,0,0,2021-08-07 10:48:12,593027
0,-2,1,-1,-1,0,0,0,2021-08-07 10:48:12,594029
0,-2,1,-1,-1,-1,0,-1,2021-08-07 10:48:12,594029
-2,-1,-1,-2,0,-1,-1,-2,2021-08-07 10:48:12,594029
1,0,1,1,1,1,-1,0,2021-08-07 10:48:12,594029
-1,-1,-1,-1,-1,0,-2,0,2021-08-07 10:48:12,595025
-1,0,0,-2,-2,-2,-2,-1,2021-08-07 10:48:12,595025
-1,-1,0,0,0,-3,-1,0,2021-08-07 10:48:12,612027
0,-1,-2,0,0,-1,0,0,2021-08-07 10:48:12,628024
-1,0,-2,-2,-2,1,-1,-2,2021-08-07 10:48:12,643024
0,-1,-2,-1,-1,-1,-1,1,2021-08-07 10:48:12,643024
0,-1,-1,1,-1,-1,-1,-2,2021-08-07 10:48:12,659025
-2,-1,-1,1,-2,-1,-1,-1,2021-08-07 10:48:12,674027
-1,0,-2,-1,1,-2,-2,-2,2021-08-07 10:48:12,674027
-2,-2,-2,0,-1,0,-1,-1,2021-08-07 10:48:12,674027
0,0,-1,-2,-1,1,-1,-1,2021-08-07 10:48:12,674027
-2,-3,0,-2,-1,0,-1,-1,2021-08-07 10:48:12,674027
-1,-2,-1,0,-2,-3,0,-2,2021-08-07 10:48:12,674027
0,-1,-1,-1,-2,-3,-2,-1,2021-08-07 10:48:12,674027
0,-1,-1,1,-1,-1,-2,-1,2021-08-07 10:48:12,675025
-2,0,-1,-2,-2,-3,-3,-3,2021-08-07 10:48:12,675025
-2,-3,-5,-13,-13,-5,-3,-2,2021-08-07 10:48:12,690027
3,3,9,21,26,10,3,1,2021-08-07 10:48:12,706025
-1,-2,0,3,1,-1,-1,-1,2021-08-07 10:48:12,722025
-2,-1,1,3,7,2,0,0,2021-08-07 10:48:12,722025
-2,-3,-4,-2,-7,-3,-2,-1,2021-08-07 10:48:12,722025
-2,-3,-6,-9,-9,-7,-3,-2,2021-08-07 10:48:12,722025
-2,-1,-3,-6,-7,-2,-1,-1,2021-08-07 10:48:12,738024
2,2,4,7,4,2,1,1,2021-08-07 10:48:12,754025
0,2,1,3,8,2,0,1,2021-08-07 10:48:12,754025
-4,-4,-6,-15,-12,-5,-3,-2,2021-08-07 10:48:12,754025
3,2,6,13,14,5,2,0,2021-08-07 10:48:12,754025
-1,0,-5,-8,-11,-4,-2,0,2021-08-07 10:48:12,754025
-1,-1,2,2,3,0,-1,-1,2021-08-07 10:48:12,754025
0,-1,-1,0,-2,-1,-2,-2,2021-08-07 10:48:12,754025
-2,-4,-4,-9,-6,-5,-2,-2,2021-08-07 10:48:12,754025
1,2,1,0,2,0,0,-1,2021-08-07 10:48:12,755025
2,0,2,6,3,2,1,0,2021-08-07 10:48:12,755025
0,-2,-4,-10,-12,-6,-3,-1,2021-08-07 10:48:12,755025
0,-1,3,9,16,5,1,0,2021-08-07 10:48:12,755025
0,0,1,3,2,0,0,0,2021-08-07 10:48:12,770023
-1,1,-1,2,-1,-1,0,0,2021-08-07 10:48:12,770023
-2,0,0,-4,-7,-3,-1,1,2021-08-07 10:48:12,770023
-3,-2,-1,1,-3,-1,-1,0,2021-08-07 10:48:12,770023
-1,-3,-2,-4,-4,-2,0,0,2021-08-07 10:48:12,770023
-3,-3,-2,-4,-2,-3,-3,-2,2021-08-07 10:48:12,771025
-1,-1,0,2,2,0,0,0,2021-08-07 10:48:12,771025
0,0,-1,-4,-5,-1,-2,-3,2021-08-07 10:48:12,771025
-1,0,-1,0,2,1,-1,0,2021-08-07 10:48:12,771025
0,0,0,-1,-4,-2,0,0,2021-08-07 10:48:12,801026
-2,-4,-5,-7,-10,-5,-2,-3,2021-08-07 10:48:12,817024
2,1,2,6,12,7,1,1,2021-08-07 10:48:12,817024
-1,-1,-3,-5,-6,-2,-2,-3,2021-08-07 10:48:12,817024
-2,-1,-2,-2,-1,-1,-2,1,2021-08-07 10:48:12,817024
2,1,-1,1,3,1,0,-1,2021-08-07 10:48:12,817024
-2,-4,-4,-9,-11,-6,-3,-3,2021-08-07 10:48:12,818026
-1,-3,-2,-3,-2,-2,-1,-2,2021-08-07 10:48:12,818026
-2,-3,-3,-6,-7,-5,-3,-3,2021-08-07 10:48:12,833027
1,3,6,9,10,5,0,1,2021-08-07 10:48:12,849026
0,-1,-2,-2,-2,-1,-1,1,2021-08-07 10:48:12,849026
0,-1,-2,0,0,-1,-1,-2,2021-08-07 10:48:12,849026
0,0,2,3,2,2,0,1,2021-08-07 10:48:12,849026
-3,-3,-6,-9,-12,-4,-3,-3,2021-08-07 10:48:12,849026
0,1,1,1,4,2,-1,1,2021-08-07 10:48:12,849026
-1,0,-2,0,-2,-2,-2,-2,2021-08-07 10:48:12,849026
0,-2,-1,-4,0,-1,-1,0,2021-08-07 10:48:12,881025
1,2,2,5,2,2,1,1,2021-08-07 10:48:12,881025
0,-1,-3,-3,-1,-2,-1,-1,2021-08-07 10:48:12,897029
0,-1,0,-3,-4,-2,1,1,2021-08-07 10:48:12,913024
-1,-1,-1,-4,-3,1,-1,-2,2021-08-07 10:48:12,913024
0,1,0,3,2,0,0,-1,2021-08-07 10:48:12,913024
-1,-1,-2,-4,-7,-2,-1,-2,2021-08-07 10:48:12,913024
-1,-1,-1,-2,-2,-1,-2,0,2021-08-07 10:48:12,913024
1,-2,-3,2,0,-1,-2,-2,2021-08-07 10:48:12,913024
0,0,1,4,6,0,0,0,2021-08-07 10:48:12,913024
0,-1,-5,-9,-10,-4,-2,1,2021-08-07 10:48:12,913024
0,0,2,3,3,2,-1,-1,2021-08-07 10:48:12,914027
0,1,3,8,3,2,1,0,2021-08-07 10:48:12,929024
-1,-2,-3,-2,-2,-3,-1,-1,2021-08-07 10:48:12,929024
-1,0,0,-1,-4,-3,-1,-2,2021-08-07 10:48:12,929024
-1,-2,-2,5,11,4,-1,-1,2021-08-07 10:48:12,929024
-2,-3,-3,-3,-2,-3,-3,-2,2021-08-07 10:48:12,945029
-1,-2,-3,-8,-5,-3,-1,-1,2021-08-07 10:48:12,945029
-2,1,1,0,-4,-4,-2,-1,2021-08-07 10:48:12,945029
0,-1,-1,1,0,1,0,1,2021-08-07 10:48:12,945029
-1,-1,-1,1,1,-2,-2,-2,2021-08-07 10:48:12,977024
-1,0,-3,-3,-4,-2,-2,-2,2021-08-07 10:48:12,977024
-3,-3,-1,0,3,-1,-1,-1,2021-08-07 10:48:12,977024
-1,-1,-2,-4,-4,-3,-1,-1,2021-08-07 10:48:12,977024
1,0,0,1,4,2,1,0,2021-08-07 10:48:12,993025
-2,-2,-1,-3,-8,-7,-3,-1,2021-08-07 10:48:12,993025
-2,0,0,1,2,1,0,0,2021-08-07 10:48:12,993025
0,2,1,2,5,0,1,-1,2021-08-07 10:48:12,993025
0,-1,0,-3,-3,-1,0,0,2021-08-07 10:48:13,009025
-1,1,3,7,4,2,1,3,2021-08-07 10:48:13,009025
-1,-1,-1,-3,-3,-2,-2,-2,2021-08-07 10:48:13,025025
-3,-2,-4,-6,-5,-4,-3,-1,2021-08-07 10:48:13,041027
-2,0,0,1,1,1,-1,0,2021-08-07 10:48:13,041027
0,-3,-1,-4,2,2,-1,-1,2021-08-07 10:48:13,041027
-1,-2,-1,-6,-8,-3,0,-1,2021-08-07 10:48:13,041027
1,1,3,5,2,1,1,0,2021-08-07 10:48:13,041027
0,1,0,2,4,1,0,-1,2021-08-07 10:48:13,041027
-1,-1,-2,0,-2,-1,-1,0,2021-08-07 10:48:13,042025
1,-1,-2,-5,-5,-3,-1,-2,2021-08-07 10:48:13,057027
-1,-1,-3,-6,-4,-2,-2,-3,2021-08-07 10:48:13,073025
0,0,1,1,5,2,0,0,2021-08-07 10:48:13,073025
-2,-2,-2,1,-2,-2,-2,-1,2021-08-07 10:48:13,073025
-3,-2,-2,-2,-5,-4,-2,-1,2021-08-07 10:48:13,073025
-2,-1,-2,-10,-11,-5,-1,-3,2021-08-07 10:48:13,073025
0,0,0,8,6,4,2,1,2021-08-07 10:48:13,105023
-1,-1,-4,-9,-2,0,-2,-2,2021-08-07 10:48:13,105023
2,2,4,10,8,4,2,2,2021-08-07 10:48:13,105023
-2,-2,-4,-7,-6,-4,-3,0,2021-08-07 10:48:13,105023
-3,-1,-1,-8,-9,-5,-3,-3,2021-08-07 10:48:13,105023
0,2,5,9,6,1,0,1,2021-08-07 10:48:13,118027
0,0,2,1,6,4,0,1,2021-08-07 10:48:13,118027
0,0,0,3,1,0,-3,-1,2021-08-07 10:48:13,118027
-3,-4,-5,-8,-10,-5,-3,-1,2021-08-07 10:48:13,153025
-1,-1,-2,-2,-1,0,0,-1,2021-08-07 10:48:13,153025
-1,-1,-2,-3,-2,-1,0,-1,2021-08-07 10:48:13,153025
-2,-2,0,1,-2,0,-1,0,2021-08-07 10:48:13,153025
-1,0,1,1,0,0,1,1,2021-08-07 10:48:13,153025
0,0,2,1,1,0,-1,-1,2021-08-07 10:48:13,153025
-1,-1,-1,0,-2,-2,-2,-2,2021-08-07 10:48:13,154027
-1,-1,-4,-9,-5,-2,-1,-1,2021-08-07 10:48:13,154027
1,-1,0,1,5,1,0,1,2021-08-07 10:48:13,168025
0,0,-1,-1,0,-2,0,0,2021-08-07 10:48:13,183025
-1,-1,0,1,6,2,-1,-1,2021-08-07 10:48:13,183025
-3,-1,-4,-3,-7,-6,-3,-2,2021-08-07 10:48:13,183025
4,2,4,7,2,3,2,1,2021-08-07 10:48:13,199028
1,0,0,6,10,3,2,-1,2021-08-07 10:48:13,199028
-1,-3,-3,-5,-8,-3,-1,-1,2021-08-07 10:48:13,215023
0,-2,-2,-2,-1,-2,2,1,2021-08-07 10:48:13,215023
-2,-3,-3,-6,-1,-3,-1,-1,2021-08-07 10:48:13,215023
-1,-1,-2,-1,-2,0,-1,-1,2021-08-07 10:48:13,215023
-2,-2,-2,-1,-3,-2,-2,-3,2021-08-07 10:48:13,215023
-3,-2,0,1,4,-1,-3,-3,2021-08-07 10:48:13,215023
-3,-2,-3,-5,-8,-5,-6,-4,2021-08-07 10:48:13,231025
0,1,2,0,3,0,0,-1,2021-08-07 10:48:13,247024
1,2,2,4,4,0,1,0,2021-08-07 10:48:13,247024
0,0,-1,-7,-8,-3,-3,0,2021-08-07 10:48:13,247024
1,0,-1,3,-2,-1,0,0,2021-08-07 10:48:13,247024
-1,-2,-1,0,0,-1,0,0,2021-08-07 10:48:13,248025
-1,0,-3,-3,-3,-3,1,0,2021-08-07 10:48:13,263025
-2,-2,-3,0,2,1,0,-1,2021-08-07 10:48:13,279025
-1,-2,-1,-2,-5,-3,-2,-2,2021-08-07 10:48:13,279025
0,-2,2,7,4,2,-1,1,2021-08-07 10:48:13,279025
0,0,0,-4,-2,-1,-2,0,2021-08-07 10:48:13,279025
-2,-1,-1,4,3,0,-2,-1,2021-08-07 10:48:13,279025
0,1,0,-3,1,-1,0,-1,2021-08-07 10:48:13,295028
0,-1,1,6,5,1,2,0,2021-08-07 10:48:13,311026
-2,-3,-3,-6,-6,-4,0,-2,2021-08-07 10:48:13,311026
1,1,0,2,-2,-1,1,1,2021-08-07 10:48:13,311026
-3,-2,0,3,5,0,-1,-2,2021-08-07 10:48:13,311026
-3,0,-2,-5,0,2,1,1,2021-08-07 10:48:13,311026
-1,0,0,0,-1,-2,-1,-1,2021-08-07 10:48:13,311026
1,0,-1,-2,-5,-2,-1,0,2021-08-07 10:48:13,312025
0,-1,-3,-5,-3,-1,-1,-1,2021-08-07 10:48:13,342026
0,0,3,8,2,2,0,-1,2021-08-07 10:48:13,342026
-2,-2,-3,-5,-1,1,-1,-1,2021-08-07 10:48:13,342026
1,1,5,10,11,4,2,-2,2021-08-07 10:48:13,342026
-1,1,-3,-6,-7,-2,-1,0,2021-08-07 10:48:13,342026
-1,-2,-5,-9,-10,-5,-2,-3,2021-08-07 10:48:13,342026
-1,-1,-3,-3,-5,-1,-3,-1,2021-08-07 10:48:13,358025
0,0,3,2,2,1,-1,0,2021-08-07 10:48:13,358025
-1,-1,-1,-1,1,-2,0,-1,2021-08-07 10:48:13,374027
-1,1,0,2,4,1,0,-1,2021-08-07 10:48:13,374027
0,-3,1,0,-2,-2,-1,-2,2021-08-07 10:48:13,390027
0,0,-3,-1,2,0,-2,-1,2021-08-07 10:48:13,406024
-1,1,0,1,-1,0,0,0,2021-08-07 10:48:13,406024
-1,-3,-5,-15,-11,-2,-3,-2,2021-08-07 10:48:13,406024
-1,1,4,11,5,1,0,-1,2021-08-07 10:48:13,406024
1,0,0,-1,0,-3,0,0,2021-08-07 10:48:13,406024
-3,-3,-3,-8,-11,-4,-4,-2,2021-08-07 10:48:13,407027
0,-2,-4,-5,2,2,0,0,2021-08-07 10:48:13,407027
1,2,0,5,9,3,1,1,2021-08-07 10:48:13,422025
-1,-1,1,6,1,3,1,0,2021-08-07 10:48:13,422025
-1,-1,-2,0,-1,-1,-1,1,2021-08-07 10:48:13,438025
-2,-2,-1,-1,-6,-5,-3,-1,2021-08-07 10:48:13,438025
1,0,-3,-3,-3,-1,0,0,2021-08-07 10:48:13,438025
-2,-2,-1,0,3,1,-2,-2,2021-08-07 10:48:13,438025
0,0,1,1,-2,2,1,0,2021-08-07 10:48:13,454026
0,1,1,-1,-1,0,0,0,2021-08-07 10:48:13,470025
-1,-2,-4,-4,-5,-1,-1,-1,2021-08-07 10:48:13,470025
-1,-4,0,0,1,0,1,-1,2021-08-07 10:48:13,470025
0,-2,-2,-1,4,1,-1,0,2021-08-07 10:48:13,470025
-3,-1,0,1,1,0,-1,-2,2021-08-07 10:48:13,470025
0,-1,-1,-4,-3,0,0,-2,2021-08-07 10:48:13,470025
-2,-3,-5,-13,-12,-4,-1,0,2021-08-07 10:48:13,471027
-3,-1,1,5,4,0,-2,-1,2021-08-07 10:48:13,502026
0,-2,2,5,2,-1,1,1,2021-08-07 10:48:13,502026
0,-2,0,-4,-2,-3,-1,-1,2021-08-07 10:48:13,502026
0,0,0,2,-4,-2,0,-2,2021-08-07 10:48:13,502026
0,0,-1,-3,2,1,1,0,2021-08-07 10:48:13,518027
-1,-1,0,1,5,2,2,2,2021-08-07 10:48:13,518027
-1,-1,-1,3,3,-2,-1,-2,2021-08-07 10:48:13,518027
-2,0,-2,-7,-6,-1,-2,1,2021-08-07 10:48:13,518027
0,0,0,1,-2,-1,-1,-2,2021-08-07 10:48:13,534025
0,-2,-5,-5,-8,-3,-4,-1,2021-08-07 10:48:13,534025
-1,-1,0,1,4,1,-1,-1,2021-08-07 10:48:13,534025
-2,0,-1,-2,-2,-3,-1,-1,2021-08-07 10:48:13,534025
-1,-1,-2,-1,-2,-1,0,-2,2021-08-07 10:48:13,550023
0,-2,-4,-5,-5,-4,-2,-3,2021-08-07 10:48:13,550023
1,-1,-1,-2,-2,-2,0,0,2021-08-07 10:48:13,566026
2,0,1,7,5,2,-1,-1,2021-08-07 10:48:13,566026
0,-1,-1,-5,-5,-3,-1,0,2021-08-07 10:48:13,566026
3,1,4,8,10,3,2,0,2021-08-07 10:48:13,566026
-2,-2,-4,-4,-5,-2,-2,-2,2021-08-07 10:48:13,581029
-2,-4,-5,-6,-3,-1,-1,-2,2021-08-07 10:48:13,581029
-4,-2,-3,-5,-4,-3,-1,-2,2021-08-07 10:48:13,581029
1,0,-1,0,6,3,1,0,2021-08-07 10:48:13,581029
-2,1,1,0,0,0,-3,2,2021-08-07 10:48:13,597026
-2,-3,0,-2,-5,-2,-1,-2,2021-08-07 10:48:13,613067
3,1,1,4,13,5,2,1,2021-08-07 10:48:13,629067
-3,-3,-2,-7,-11,-7,-3,-2,2021-08-07 10:48:13,629067
0,-1,0,-2,-1,1,-1,-1,2021-08-07 10:48:13,629067
-2,-2,-2,-5,-3,-2,-2,-3,2021-08-07 10:48:13,629067
3,2,3,10,8,6,3,3,2021-08-07 10:48:13,629067
0,-1,-1,-1,-1,-1,-1,-3,2021-08-07 10:48:13,629067
0,0,-2,-5,-3,-2,0,0,2021-08-07 10:48:13,630068
-1,0,-2,-5,-5,-4,-1,-1,2021-08-07 10:48:13,630068
-1,-2,-2,-1,-3,-3,-2,-1,2021-08-07 10:48:13,645070
-1,-1,-4,-6,-4,-2,-2,-1,2021-08-07 10:48:13,645070
-2,-1,-1,2,1,-1,1,-1,2021-08-07 10:48:13,660065
0,0,3,8,7,2,0,-3,2021-08-07 10:48:13,661067
-2,-4,-3,-4,-5,-3,-3,-2,2021-08-07 10:48:13,676067
0,-1,0,2,-3,1,-1,0,2021-08-07 10:48:13,676067
0,-1,-2,-7,-2,-2,-2,-1,2021-08-07 10:48:13,676067
0,0,-2,2,4,1,0,1,2021-08-07 10:48:13,676067
-1,-1,1,-2,-2,0,-1,-1,2021-08-07 10:48:13,692066
-4,-2,-2,-8,-14,-7,-4,-1,2021-08-07 10:48:13,692066
-1,0,1,1,5,1,0,-1,2021-08-07 10:48:13,692066
0,0,3,7,6,3,0,1,2021-08-07 10:48:13,692066
0,-1,-3,-7,-8,-5,-3,0,2021-08-07 10:48:13,708070
-1,1,1,-3,-3,-1,0,0,2021-08-07 10:48:13,708070
1,0,3,5,7,3,1,1,2021-08-07 10:48:13,708070
-1,0,-2,-7,-7,-4,-1,-2,2021-08-07 10:48:13,708070
-3,-2,-3,-1,-2,-2,-2,0,2021-08-07 10:48:13,724069
-2,0,-2,-5,0,-1,-1,-1,2021-08-07 10:48:13,724069
1,1,1,6,5,3,1,1,2021-08-07 10:48:13,740068
-1,-1,-1,0,1,-1,0,0,2021-08-07 10:48:13,740068
0,-1,0,-1,-5,-1,-2,-2,2021-08-07 10:48:13,755067
-3,-3,-2,2,4,1,-1,-1,2021-08-07 10:48:13,755067
-2,-2,-3,-4,-6,-4,-3,-2,2021-08-07 10:48:13,755067
-1,-2,-2,-7,-5,-2,-4,-1,2021-08-07 10:48:13,771066
-1,0,0,3,3,1,1,0,2021-08-07 10:48:13,771066
-1,0,1,3,1,0,-1,0,2021-08-07 10:48:13,771066
-3,-1,-3,-5,-6,-3,-3,-1,2021-08-07 10:48:13,771066
-1,0,-4,-3,-2,-3,-2,-1,2021-08-07 10:48:13,771066
0,0,1,5,6,1,-2,-1,2021-08-07 10:48:13,787067
4,3,1,5,9,6,1,1,2021-08-07 10:48:13,787067
-1,-2,-2,-2,-5,-3,-4,-3,2021-08-07 10:48:13,803067
-4,-2,-3,-4,-5,-3,-2,-1,2021-08-07 10:48:13,819066
-2,-2,0,-3,-6,-2,-2,-1,2021-08-07 10:48:13,834586
0,-1,-1,2,1,-1,-1,-1,2021-08-07 10:48:13,834586
-1,-2,-1,-4,-7,-4,-1,-1,2021-08-07 10:48:13,834586
1,2,4,12,13,5,2,2,2021-08-07 10:48:13,850585
1,2,0,5,9,2,1,0,2021-08-07 10:48:13,850585
-2,-2,-1,-4,-8,-5,-1,0,2021-08-07 10:48:13,850585
-2,-1,-2,-4,-6,-3,-1,-1,2021-08-07 10:48:13,850585
-2,-3,-3,-8,-7,-2,-2,-1,2021-08-07 10:48:13,850585
-1,0,2,4,2,0,0,-1,2021-08-07 10:48:13,851587
0,-2,-1,1,-1,-1,-3,-1,2021-08-07 10:48:13,851587
1,1,-1,5,3,2,2,1,2021-08-07 10:48:13,851587
-1,1,1,4,5,2,0,0,2021-08-07 10:48:13,866585
-1,-2,-5,-9,-8,-3,-2,-1,2021-08-07 10:48:13,866585
-2,-2,-1,-3,-7,-2,-1,-2,2021-08-07 10:48:13,882585
-1,-3,-3,-3,-3,-2,-2,-1,2021-08-07 10:48:13,882585
2,1,2,7,10,4,2,0,2021-08-07 10:48:13,882585
-2,0,0,1,2,-1,-1,0,2021-08-07 10:48:13,882585
0,2,0,-2,-2,-1,0,-2,2021-08-07 10:48:13,882585
-3,-2,-2,-6,-11,-6,-4,-3,2021-08-07 10:48:13,898584
0,-2,-1,2,1,2,2,0,2021-08-07 10:48:13,898584
-2,-1,0,-5,-5,-2,0,0,2021-08-07 10:48:13,914587
-2,-1,-4,-4,-7,-2,0,0,2021-08-07 10:48:13,930584
0,-1,0,2,8,4,1,1,2021-08-07 10:48:13,946585
-2,-1,-1,0,-4,-3,-3,0,2021-08-07 10:48:13,962588
-2,-2,-3,-2,-2,-2,0,-1,2021-08-07 10:48:13,978590
1,-2,0,2,1,-2,0,0,2021-08-07 10:48:13,978590
0,2,2,3,-3,-1,0,0,2021-08-07 10:48:13,978590
-1,-2,-2,-4,-5,-2,-1,-2,2021-08-07 10:48:13,978590
0,2,0,3,6,1,0,-1,2021-08-07 10:48:13,978590
-3,-3,-3,-6,-6,-3,-4,-2,2021-08-07 10:48:13,978590
0,0,0,1,2,3,-1,0,2021-08-07 10:48:13,979587
-1,-1,-3,-5,-6,-2,-2,-3,2021-08-07 10:48:13,979587
1,2,2,6,8,4,2,0,2021-08-07 10:48:13,979587
0,-2,-1,-2,0,-2,-2,-2,2021-08-07 10:48:13,994588
-2,0,1,1,3,1,0,1,2021-08-07 10:48:13,994588
-2,-2,-4,-6,-9,-5,-1,-2,2021-08-07 10:48:13,994588
-2,-2,-2,-8,-10,-4,0,-1,2021-08-07 10:48:13,994588
2,2,3,15,17,6,3,3,2021-08-07 10:48:14,010585
3,1,3,3,1,0,2,-2,2021-08-07 10:48:14,026584
0,-1,-3,-7,-3,-2,-3,1,2021-08-07 10:48:14,026584
-1,-2,-3,-3,-5,-2,-3,-1,2021-08-07 10:48:14,042586
1,-1,-2,-3,-1,-1,2,1,2021-08-07 10:48:14,042586
-2,-3,-4,1,-1,-1,-2,-2,2021-08-07 10:48:14,042586
-1,-1,-2,3,2,1,0,-1,2021-08-07 10:48:14,042586
-4,-3,-4,-7,-6,-4,-4,-4,2021-08-07 10:48:14,042586
-3,0,3,2,-1,1,-2,-2,2021-08-07 10:48:14,043587
-3,0,1,1,4,0,-2,-3,2021-08-07 10:48:14,058585
-1,1,0,-3,-6,-3,-1,0,2021-08-07 10:48:14,074587
1,0,-1,-2,-4,-3,-2,0,2021-08-07 10:48:14,090588
1,0,-1,-1,2,0,1,1,2021-08-07 10:48:14,106586
0,-1,0,3,4,-1,-1,-1,2021-08-07 10:48:14,122585
1,2,1,3,6,3,1,1,2021-08-07 10:48:14,122585
0,-1,-1,-2,-5,-1,-2,-1,2021-08-07 10:48:14,122585
-2,-2,-4,-2,0,-1,-2,-2,2021-08-07 10:48:14,122585
0,-1,-1,-3,-6,-2,-1,-1,2021-08-07 10:48:14,122585
-2,-2,-2,-3,-1,-2,1,0,2021-08-07 10:48:14,122585
-1,-1,0,3,-1,1,0,-2,2021-08-07 10:48:14,122585
-3,0,-2,-4,-6,-4,-3,-2,2021-08-07 10:48:14,123588
-1,-2,-2,-7,-4,-1,-1,0,2021-08-07 10:48:14,123588
0,-1,-1,0,2,0,-1,-2,2021-08-07 10:48:14,123588
0,0,-1,-6,-1,-1,0,0,2021-08-07 10:48:14,123588
-2,-1,-1,1,0,0,-2,0,2021-08-07 10:48:14,123588
-1,-3,-2,0,1,-2,-2,-2,2021-08-07 10:48:14,123588
-2,-1,-3,-4,-7,-5,-2,-2,2021-08-07 10:48:14,123588
0,-1,1,5,5,1,1,0,2021-08-07 10:48:14,138585
-3,-2,-2,-5,-5,-5,-2,-1,2021-08-07 10:48:14,154586
-1,1,0,-4,-2,-2,-1,1,2021-08-07 10:48:14,154586
0,0,1,0,-1,-2,-1,0,2021-08-07 10:48:14,154586
1,0,-2,-4,-1,-1,0,-1,2021-08-07 10:48:14,154586
-1,-1,2,0,-3,-1,1,-1,2021-08-07 10:48:14,154586
1,0,1,6,5,0,2,-1,2021-08-07 10:48:14,154586
-1,-3,1,3,6,0,0,-2,2021-08-07 10:48:14,155585
-3,-3,-1,-2,-1,0,-2,-1,2021-08-07 10:48:14,186585
0,0,-1,0,-7,-3,-1,-1,2021-08-07 10:48:14,196585
0,-1,-3,-4,-1,-1,-1,-1,2021-08-07 10:48:14,197586
0,2,2,5,5,3,1,0,2021-08-07 10:48:14,197586
-1,-1,-3,-6,-2,-3,-1,-1,2021-08-07 10:48:14,197586
0,0,2,2,0,0,-1,0,2021-08-07 10:48:14,197586
-4,-3,-2,-3,-2,-1,-2,-3,2021-08-07 10:48:14,197586
2,3,1,6,7,0,0,0,2021-08-07 10:48:14,198587
-3,-4,-4,-7,-6,-4,-1,-3,2021-08-07 10:48:14,217587
0,-2,-4,-5,-3,-5,-1,0,2021-08-07 10:48:14,217587
0,-1,-2,0,-2,0,0,-3,2021-08-07 10:48:14,217587
-1,-2,0,1,-1,-1,-1,-1,2021-08-07 10:48:14,217587
0,1,0,4,4,3,1,1,2021-08-07 10:48:14,233585
-2,-2,-3,-5,-6,-1,-1,-1,2021-08-07 10:48:14,233585
-1,-1,-2,2,4,-1,0,-1,2021-08-07 10:48:14,233585
0,-2,-3,-6,-5,-1,-2,-1,2021-08-07 10:48:14,233585
2,1,1,-2,-1,-1,-1,0,2021-08-07 10:48:14,249585
0,1,2,7,6,3,0,-1,2021-08-07 10:48:14,249585
-1,-1,-1,-4,-5,-1,-2,0,2021-08-07 10:48:14,249585
-4,-3,-3,-6,-6,-2,-3,-2,2021-08-07 10:48:14,249585
0,-4,0,3,-2,-3,-2,-1,2021-08-07 10:48:14,265587
3,1,3,4,13,6,3,0,2021-08-07 10:48:14,265587
0,0,2,7,4,1,1,1,2021-08-07 10:48:14,281587
-3,-3,-3,-4,-7,-4,-3,-3,2021-08-07 10:48:14,297585
0,1,1,2,-2,0,0,0,2021-08-07 10:48:14,297585
-1,-1,-3,-6,-1,-4,-3,1,2021-08-07 10:48:14,313585
0,-2,-1,-6,-8,-4,-2,0,2021-08-07 10:48:14,329583
2,0,2,10,14,5,2,1,2021-08-07 10:48:14,329583
-1,-1,-4,-10,-12,-6,-2,-2,2021-08-07 10:48:14,329583
4,5,8,25,21,9,5,3,2021-08-07 10:48:14,329583
-1,-1,-3,-12,-6,-1,-2,-1,2021-08-07 10:48:14,329583
0,1,0,4,8,4,1,0,2021-08-07 10:48:14,329583
-1,-1,1,2,-6,-4,-2,0,2021-08-07 10:48:14,330589
-3,-3,-5,-11,-19,-8,-5,-5,2021-08-07 10:48:14,330589
1,1,0,8,14,6,2,1,2021-08-07 10:48:14,345586
-2,0,1,-1,-4,1,1,0,2021-08-07 10:48:14,361586
1,-1,-4,-2,2,2,1,-1,2021-08-07 10:48:14,393587
-4,-2,-6,-14,-13,-7,-1,-1,2021-08-07 10:48:14,409584
-1,-2,-2,-2,-6,-4,-3,-1,2021-08-07 10:48:14,425584
-1,-2,-3,-7,-8,-5,-3,-2,2021-08-07 10:48:14,441584
-3,1,1,2,4,2,-1,0,2021-08-07 10:48:14,457585
0,-1,2,1,0,-1,1,0,2021-08-07 10:48:14,457585
-1,0,-1,-3,-7,-1,0,0,2021-08-07 10:48:14,457585
-1,-1,0,2,5,1,1,1,2021-08-07 10:48:14,457585
-1,-1,0,-2,-4,-2,-1,-1,2021-08-07 10:48:14,473586
-2,-1,-3,-5,0,0,0,-2,2021-08-07 10:48:14,473586
0,1,2,7,11,4,2,0,2021-08-07 10:48:14,489585
0,-3,-4,-10,-13,-5,-2,-2,2021-08-07 10:48:14,489585
-2,-2,-1,2,4,1,-1,-1,2021-08-07 10:48:14,505584
0,0,1,1,3,3,1,-1,2021-08-07 10:48:14,505584
-1,0,-2,-2,-3,-2,-3,-3,2021-08-07 10:48:14,505584
0,0,1,1,1,-2,1,-2,2021-08-07 10:48:14,505584
-1,-2,-3,-3,-1,-2,0,0,2021-08-07 10:48:14,505584
2,-1,2,4,3,0,-1,1,2021-08-07 10:48:14,506587
-3,-3,-2,-5,-4,-3,-2,-3,2021-08-07 10:48:14,506587
-1,-2,-1,-2,-6,-3,-1,0,2021-08-07 10:48:14,506587
-1,1,1,0,-1,0,0,0,2021-08-07 10:48:14,506587
-1,-2,-1,0,2,1,-2,-1,2021-08-07 10:48:14,506587
-2,-1,-4,-2,-6,-3,-1,0,2021-08-07 10:48:14,507585
-3,-2,-3,-6,-3,-2,-4,-1,2021-08-07 10:48:14,507585
1,2,-1,3,6,2,0,-2,2021-08-07 10:48:14,507585
-2,-2,-3,-6,-7,-5,-2,-1,2021-08-07 10:48:14,507585
1,0,0,-1,-3,-2,-1,1,2021-08-07 10:48:14,507585
0,0,-1,2,0,0,-1,-1,2021-08-07 10:48:14,507585
-3,-5,-5,-9,-7,-4,-3,-1,2021-08-07 10:48:14,508588
1,-1,-3,6,6,3,0,-1,2021-08-07 10:48:14,508588
1,-1,1,-1,-3,0,2,0,2021-08-07 10:48:14,508588
-1,0,-1,-1,1,-1,-1,-1,2021-08-07 10:48:14,508588
0,0,0,3,5,2,1,0,2021-08-07 10:48:14,520586
-1,-2,-2,-3,-5,-2,-2,0,2021-08-07 10:48:14,520586
-2,-1,1,2,0,-2,-1,0,2021-08-07 10:48:14,520586
-1,0,-1,-3,-10,-5,-2,-2,2021-08-07 10:48:14,520586
0,0,-1,-1,-3,-1,-1,-1,2021-08-07 10:48:14,551586
0,1,-2,2,7,4,0,-2,2021-08-07 10:48:14,551586
-1,1,-3,-5,-6,-2,-2,0,2021-08-07 10:48:14,551586
-1,-1,-3,-5,-4,-3,-3,-2,2021-08-07 10:48:14,551586
-1,-2,0,0,-3,-2,-2,0,2021-08-07 10:48:14,551586
-1,-2,-1,0,0,-2,0,-1,2021-08-07 10:48:14,551586
0,-1,1,7,2,1,-1,-1,2021-08-07 10:48:14,552587
-1,-1,1,2,0,-1,-3,-2,2021-08-07 10:48:14,552587
1,1,-1,-3,2,2,1,0,2021-08-07 10:48:14,583584
0,1,1,1,1,1,-1,1,2021-08-07 10:48:14,583584
-3,-5,-7,-12,-12,-7,-5,-4,2021-08-07 10:48:14,583584
1,1,1,4,6,3,2,2,2021-08-07 10:48:14,583584
1,2,2,9,5,3,0,-1,2021-08-07 10:48:14,599585
-1,1,-1,0,4,-1,0,1,2021-08-07 10:48:14,599585
0,-1,-1,3,2,1,0,-2,2021-08-07 10:48:14,599585
-1,-4,-5,-6,-8,-4,-3,-3,2021-08-07 10:48:14,599585
-1,1,3,0,1,0,-1,0,2021-08-07 10:48:14,646585
-1,-1,-2,-3,-2,-3,-1,-3,2021-08-07 10:48:14,646585
-1,-1,-1,-3,-1,-1,-1,0,2021-08-07 10:48:14,646585
-1,-3,-2,-3,-3,-1,2,0,2021-08-07 10:48:14,646585
-2,-3,-3,0,2,-3,-2,-2,2021-08-07 10:48:14,646585
0,-1,0,-2,-6,-2,-2,0,2021-08-07 10:48:14,646585
-1,0,-2,-5,3,1,-1,0,2021-08-07 10:48:14,647587
-2,1,-2,-4,-5,-3,0,-1,2021-08-07 10:48:14,647587
2,-2,0,-1,-2,-3,-1,-2,2021-08-07 10:48:14,647587
1,-2,-1,-1,-3,-1,-1,-3,2021-08-07 10:48:14,647587
0,0,2,5,1,1,1,0,2021-08-07 10:48:14,662584
1,1,4,3,8,4,1,1,2021-08-07 10:48:14,678585
0,-2,-4,-7,-4,-5,0,0,2021-08-07 10:48:14,694585
-3,-2,-4,-8,-10,-5,-2,-2,2021-08-07 10:48:14,694585
-2,-3,-1,-9,-4,-4,-1,-2,2021-08-07 10:48:14,694585
-2,-1,0,6,3,2,-2,-1,2021-08-07 10:48:14,694585
0,-1,-1,-3,-6,-1,0,-2,2021-08-07 10:48:14,694585
-1,0,-1,-2,6,2,0,0,2021-08-07 10:48:14,695586
1,0,1,2,-5,0,0,1,2021-08-07 10:48:14,695586
-3,-3,-5,-6,-4,-3,-2,-2,2021-08-07 10:48:14,710587
0,-1,1,4,8,2,0,2,2021-08-07 10:48:14,716586
-1,0,-1,-1,-4,-1,0,-1,2021-08-07 10:48:14,716586
0,1,1,5,5,2,-1,-1,2021-08-07 10:48:14,716586
0,0,1,6,-2,-3,-3,0,2021-08-07 10:48:14,717586
-3,-3,-4,-7,-3,1,-1,-3,2021-08-07 10:48:14,742587
0,0,2,-1,1,0,-1,0,2021-08-07 10:48:14,742587
-1,0,0,1,-1,-1,0,-1,2021-08-07 10:48:14,742587
0,-2,1,2,0,1,-1,-1,2021-08-07 10:48:14,742587
0,0,-1,-1,1,-1,1,-1,2021-08-07 10:48:14,742587
-1,-3,-2,-2,-4,-2,-1,-1,2021-08-07 10:48:14,742587
-2,-2,-4,-2,-3,-2,-1,-1,2021-08-07 10:48:14,758585
-2,-1,-4,-9,-9,-4,-1,0,2021-08-07 10:48:14,758585
0,-1,-3,1,2,1,0,1,2021-08-07 10:48:14,788586
-1,-3,-2,-8,-12,-5,-3,-3,2021-08-07 10:48:14,804586
6,7,10,25,34,14,6,6,2021-08-07 10:48:14,804586
-2,-1,-1,-2,-7,-4,-1,-2,2021-08-07 10:48:14,804586
-3,-3,-1,-1,-4,-3,-3,-2,2021-08-07 10:48:14,804586
-1,0,-4,-7,-7,-3,-1,1,2021-08-07 10:48:14,804586
-5,-3,-3,-9,-8,-4,-3,-3,2021-08-07 10:48:14,804586
-1,-1,-1,-3,2,0,-1,0,2021-08-07 10:48:14,805585
1,3,4,12,12,5,2,1,2021-08-07 10:48:14,820584
0,-1,0,4,4,1,-2,1,2021-08-07 10:48:14,820584
0,-2,-2,-4,-7,-3,-2,-1,2021-08-07 10:48:14,820584
1,0,-1,-2,-1,0,-1,0,2021-08-07 10:48:14,820584
0,-3,-5,-7,-9,-5,0,-2,2021-08-07 10:48:14,836584
-2,-3,0,-5,-3,-1,1,0,2021-08-07 10:48:14,836584
-2,-4,-4,-3,-5,-1,-1,0,2021-08-07 10:48:14,836584
-1,1,2,8,4,2,1,-1,2021-08-07 10:48:14,836584
-3,-3,-1,-1,-2,-3,-2,-2,2021-08-07 10:48:14,867586
-1,2,3,6,14,5,1,-1,2021-08-07 10:48:14,867586
-3,-1,-1,-3,-5,-4,-4,-5,2021-08-07 10:48:14,867586
-2,-1,0,1,0,-2,-1,-2,2021-08-07 10:48:14,867586
1,2,1,-2,-5,-3,-2,0,2021-08-07 10:48:14,867586
-2,-3,-4,-6,-7,-2,-1,-2,2021-08-07 10:48:14,867586
0,-1,-3,-4,-4,-3,0,0,2021-08-07 10:48:14,883585
-1,-1,-2,4,8,3,0,-1,2021-08-07 10:48:14,899586
0,0,3,2,1,1,-1,0,2021-08-07 10:48:14,915586
2,-1,-1,4,-1,0,2,-1,2021-08-07 10:48:14,931585
-3,-2,-2,-7,-4,-3,-1,-1,2021-08-07 10:48:14,931585
1,1,1,4,5,2,1,1,2021-08-07 10:48:14,931585
-3,-2,-5,-2,-3,-2,-2,-1,2021-08-07 10:48:14,947585
1,1,2,3,2,1,1,1,2021-08-07 10:48:14,947585
-2,-2,-1,-4,-7,-3,-1,-1,2021-08-07 10:48:14,947585
-1,0,-1,2,0,0,-1,-1,2021-08-07 10:48:14,947585
-1,0,-1,1,2,1,0,1,2021-08-07 10:48:14,947585
0,0,-1,-4,-6,-4,-1,-2,2021-08-07 10:48:14,947585
3,2,-1,2,4,1,2,1,2021-08-07 10:48:14,948586
0,-1,1,-4,2,1,1,0,2021-08-07 10:48:14,948586
-3,-4,-3,-5,-7,-3,-3,-3,2021-08-07 10:48:14,948586
1,1,1,3,2,0,1,0,2021-08-07 10:48:14,948586
0,-2,-1,3,-1,-1,-2,0,2021-08-07 10:48:14,963589
2,1,3,7,11,4,0,2,2021-08-07 10:48:14,963589
1,3,2,4,-2,1,0,1,2021-08-07 10:48:14,979585
-2,-2,-3,-1,-2,0,-1,-2,2021-08-07 10:48:14,979585
-1,-1,-2,-8,-5,-3,-1,-4,2021-08-07 10:48:14,995585
0,1,1,-2,-3,-4,0,1,2021-08-07 10:48:14,995585
-2,-3,-2,-2,-5,0,-2,-1,2021-08-07 10:48:14,995585
-3,-1,0,3,9,2,0,-1,2021-08-07 10:48:14,995585
1,1,1,2,0,1,0,0,2021-08-07 10:48:14,995585
-2,-2,-4,-5,-8,-2,-2,-3,2021-08-07 10:48:14,995585
-1,-1,0,0,4,0,1,-1,2021-08-07 10:48:15,011586
-1,-2,-2,-5,-9,-2,-1,-1,2021-08-07 10:48:15,027589
-2,-1,-2,0,1,-2,-1,-1,2021-08-07 10:48:15,043587
1,0,0,-1,1,0,1,-2,2021-08-07 10:48:15,043587
-3,-3,-3,-4,-7,-4,-1,-1,2021-08-07 10:48:15,043587
-1,0,0,4,3,0,-1,-1,2021-08-07 10:48:15,043587
-2,-1,-2,-4,2,0,1,-1,2021-08-07 10:48:15,044587
-3,-3,-3,-9,-12,-5,-4,-1,2021-08-07 10:48:15,044587
1,2,4,12,18,8,1,0,2021-08-07 10:48:15,059586
-2,-1,-2,-5,-8,-5,-2,-3,2021-08-07 10:48:15,075586
1,-1,-1,-3,-2,-1,-1,0,2021-08-07 10:48:15,075586
0,2,2,9,13,6,2,1,2021-08-07 10:48:15,075586
-2,-2,-2,-7,-3,-3,-2,-3,2021-08-07 10:48:15,075586
-1,-2,-4,-5,-1,-3,-4,-3,2021-08-07 10:48:15,075586
-1,1,1,6,-2,-1,0,-2,2021-08-07 10:48:15,075586
-2,-4,-4,-10,-10,-5,-1,-2,2021-08-07 10:48:15,075586
0,-1,1,-2,-3,-4,-1,1,2021-08-07 10:48:15,091585
0,-2,-1,-1,-1,0,1,0,2021-08-07 10:48:15,091585
-3,-2,0,2,0,0,-1,0,2021-08-07 10:48:15,107587
-3,-2,-3,-6,-3,-1,-2,-1,2021-08-07 10:48:15,107587
0,0,-1,0,3,0,1,-1,2021-08-07 10:48:15,123587
-1,0,0,0,-5,-2,-2,-1,2021-08-07 10:48:15,123587
0,-3,0,-3,-3,-1,-2,0,2021-08-07 10:48:15,123587
0,2,-2,0,0,-1,0,0,2021-08-07 10:48:15,123587
-1,-2,-3,-4,-1,-1,-2,0,2021-08-07 10:48:15,139586
-2,-1,0,0,-2,-1,-1,1,2021-08-07 10:48:15,155585
0,-1,0,3,3,3,0,-1,2021-08-07 10:48:15,155585
-1,-2,-2,-5,-7,-3,-2,-3,2021-08-07 10:48:15,171586
-1,0,-1,-6,-8,-4,-1,-2,2021-08-07 10:48:15,171586
0,1,3,9,14,4,1,0,2021-08-07 10:48:15,172059
-1,0,0,1,-1,-1,1,0,2021-08-07 10:48:15,172059
-1,-2,-2,-5,-8,-5,-3,-2,2021-08-07 10:48:15,172584
1,-1,-1,6,1,-1,-1,1,2021-08-07 10:48:15,172584
0,0,1,2,5,0,1,0,2021-08-07 10:48:15,172584
0,-2,-1,-2,-3,-1,-1,-2,2021-08-07 10:48:15,186627
-1,-2,-4,-3,-3,-2,0,0,2021-08-07 10:48:15,186627
-1,-3,-3,-2,-6,-3,-1,-1,2021-08-07 10:48:15,186627
1,-1,0,1,-2,0,-2,0,2021-08-07 10:48:15,186627
0,0,-1,-2,-4,-2,-2,-2,2021-08-07 10:48:15,202628
-1,-2,-1,3,4,2,-1,0,2021-08-07 10:48:15,217628
0,-1,-2,-2,-3,-1,-1,-2,2021-08-07 10:48:15,217628
0,0,-4,-6,-1,-1,-2,0,2021-08-07 10:48:15,217628
0,1,0,1,4,1,1,-1,2021-08-07 10:48:15,217628
1,-1,1,0,-2,-3,-1,-1,2021-08-07 10:48:15,217628
0,-2,0,0,1,-1,-1,-2,2021-08-07 10:48:15,249627
-1,-1,-1,1,-2,-2,0,-2,2021-08-07 10:48:15,249627
-1,-1,-2,-4,-4,0,0,-1,2021-08-07 10:48:15,249627
-3,0,-1,-2,-1,-3,-1,-2,2021-08-07 10:48:15,249627
3,3,5,14,14,8,2,1,2021-08-07 10:48:15,249627
-1,-1,-1,-2,-6,-2,0,-1,2021-08-07 10:48:15,250630
-1,-1,-1,-1,-2,-2,-2,-2,2021-08-07 10:48:15,280628
-2,-3,-2,-5,-8,-5,-2,-1,2021-08-07 10:48:15,280628
-3,-3,-2,-6,-3,-2,-1,-3,2021-08-07 10:48:15,280628
-1,-2,-1,-1,-2,-3,-2,-1,2021-08-07 10:48:15,280628
-1,0,-1,1,-1,-2,0,0,2021-08-07 10:48:15,280628
2,2,2,3,4,3,1,0,2021-08-07 10:48:15,280628
0,0,1,2,-1,1,0,-1,2021-08-07 10:48:15,312628
1,1,0,2,6,1,0,0,2021-08-07 10:48:15,312628
-4,-2,-1,-2,-3,-3,-2,-2,2021-08-07 10:48:15,312628
-2,-2,-3,-4,-7,-4,-3,0,2021-08-07 10:48:15,312628
-3,-2,-2,0,-1,-2,-2,-2,2021-08-07 10:48:15,312628
4,3,3,11,11,7,4,1,2021-08-07 10:48:15,312628
2,-1,-1,-1,2,0,-1,0,2021-08-07 10:48:15,328630
0,1,-1,-2,2,1,0,0,2021-08-07 10:48:15,328630
-2,-2,-2,-4,-7,-3,-2,-2,2021-08-07 10:48:15,328630
-3,-5,-5,-11,-11,-6,-4,-2,2021-08-07 10:48:15,329629
-2,-1,-1,0,1,-1,-1,-2,2021-08-07 10:48:15,344628
1,1,1,2,5,1,0,0,2021-08-07 10:48:15,344628
1,0,3,6,1,-2,-2,1,2021-08-07 10:48:15,360628
-1,1,0,-4,1,-1,1,0,2021-08-07 10:48:15,360628
1,-1,0,0,1,2,0,1,2021-08-07 10:48:15,376627
-2,0,-2,0,1,-1,-2,-2,2021-08-07 10:48:15,376627
-2,0,-3,-6,-5,-3,0,-1,2021-08-07 10:48:15,376627
-3,-1,-2,-4,-5,-4,-2,0,2021-08-07 10:48:15,376627
-2,-2,-4,-2,-4,-2,-1,-1,2021-08-07 10:48:15,376627
-1,-2,1,8,3,0,-1,-2,2021-08-07 10:48:15,377628
1,-1,-2,-1,3,1,0,2,2021-08-07 10:48:15,392627
0,-1,1,-4,-4,1,-1,-2,2021-08-07 10:48:15,408146
-2,-1,-2,-5,-7,-5,-2,0,2021-08-07 10:48:15,408146
-1,-1,0,-2,-1,-1,0,-1,2021-08-07 10:48:15,408146
0,1,0,1,4,3,0,1,2021-08-07 10:48:15,424146
-2,-3,-3,-1,-8,-4,-1,-3,2021-08-07 10:48:15,424146
-1,-2,-4,-13,-4,-4,-3,0,2021-08-07 10:48:15,440147
2,2,5,16,9,6,1,0,2021-08-07 10:48:15,440147
0,0,-2,-1,1,-1,0,0,2021-08-07 10:48:15,440147
-2,-1,-1,0,0,-2,-2,-1,2021-08-07 10:48:15,440147
-1,0,0,2,1,1,0,-2,2021-08-07 10:48:15,440147
-1,-3,-6,-11,-11,-6,-1,1,2021-08-07 10:48:15,440147
-1,-2,-3,-4,-4,-3,-2,-1,2021-08-07 10:48:15,456146
-2,-2,-2,-2,-6,-4,-2,-1,2021-08-07 10:48:15,471146
0,1,1,5,8,4,0,1,2021-08-07 10:48:15,471146
0,1,1,3,5,4,3,0,2021-08-07 10:48:15,471146
0,1,-1,0,1,1,0,0,2021-08-07 10:48:15,471146
-1,-1,-3,-6,-3,-2,-1,-1,2021-08-07 10:48:15,471146
-1,-1,0,1,-4,-3,-1,-2,2021-08-07 10:48:15,487148
-2,-1,0,1,1,0,-1,-1,2021-08-07 10:48:15,503147
-2,-2,-2,-3,-3,0,0,0,2021-08-07 10:48:15,519147
-1,0,2,6,10,4,0,1,2021-08-07 10:48:15,519147
1,-1,0,2,-2,1,0,-1,2021-08-07 10:48:15,519147
-2,-4,-3,-5,-7,-4,-4,-3,2021-08-07 10:48:15,519147
-1,1,-1,-7,-4,-3,-1,-2,2021-08-07 10:48:15,519147
-1,0,-2,-1,-2,0,-1,-1,2021-08-07 10:48:15,520145
-1,1,1,6,3,1,-2,-2,2021-08-07 10:48:15,520145
-2,-3,-4,-8,-11,-5,-3,-1,2021-08-07 10:48:15,520145
0,0,0,8,10,5,0,1,2021-08-07 10:48:15,550146
-1,-1,-4,-12,-10,-3,0,0,2021-08-07 10:48:15,550146
1,4,3,12,9,4,2,1,2021-08-07 10:48:15,550146
-2,-2,-3,-6,-7,-3,-1,-3,2021-08-07 10:48:15,550146
-2,-1,0,1,-3,-1,0,-1,2021-08-07 10:48:15,550146
0,-1,-2,-3,-1,-2,-2,0,2021-08-07 10:48:15,550146
1,-1,-1,0,5,1,0,1,2021-08-07 10:48:15,566146
-2,-2,-3,-4,-7,-5,-2,-3,2021-08-07 10:48:15,566146
0,-1,1,1,0,0,-1,0,2021-08-07 10:48:15,581148
1,-1,-3,1,0,0,-1,-1,2021-08-07 10:48:15,597147
0,-1,-1,-3,-4,-3,-1,0,2021-08-07 10:48:15,597147
0,3,4,3,6,2,1,-1,2021-08-07 10:48:15,597147
-2,-3,-2,-7,-5,-4,-1,-4,2021-08-07 10:48:15,597147
-3,-1,-3,-2,-4,-2,-1,-2,2021-08-07 10:48:15,597147
-1,1,2,6,8,0,0,0,2021-08-07 10:48:15,613146
0,-3,-4,-8,-5,-2,1,-1,2021-08-07 10:48:15,613146
-1,0,-2,-2,-1,-1,-3,0,2021-08-07 10:48:15,613146
-2,-2,-1,2,4,0,-1,-1,2021-08-07 10:48:15,613146
-1,-2,-3,-1,-2,0,-1,-1,2021-08-07 10:48:15,629145
-1,0,0,0,-1,-1,-1,0,2021-08-07 10:48:15,629145
1,1,1,4,-2,-1,2,0,2021-08-07 10:48:15,645148
1,1,-1,-3,-5,-2,-3,0,2021-08-07 10:48:15,661146
-2,-2,-1,1,2,2,0,1,2021-08-07 10:48:15,661146
1,-1,-1,2,3,0,-1,-1,2021-08-07 10:48:15,661146
-1,-2,-3,-5,-8,-5,-4,-1,2021-08-07 10:48:15,661146
-2,-3,-4,-6,-3,-1,-1,-2,2021-08-07 10:48:15,661146
3,3,4,8,11,5,4,2,2021-08-07 10:48:15,661146
-1,-1,-2,0,-1,1,1,1,2021-08-07 10:48:15,662149
-1,-1,0,5,6,3,0,-1,2021-08-07 10:48:15,676147
-3,-2,-1,-2,-6,-6,-3,-5,2021-08-07 10:48:15,676147
-8,-5,-4,-8,-11,-5,-6,-5,2021-08-07 10:48:15,676147
0,2,4,5,3,1,-1,0,2021-08-07 10:48:15,676147
0,-2,0,-2,-1,-2,-2,-2,2021-08-07 10:48:15,707147
1,2,1,1,2,0,1,0,2021-08-07 10:48:15,707147
-1,-1,-5,-8,-6,-3,-1,-1,2021-08-07 10:48:15,707147
2,0,2,13,11,7,1,3,2021-08-07 10:48:15,707147
-1,-1,-1,-4,-8,-2,0,-1,2021-08-07 10:48:15,723148
-1,-1,1,6,5,1,1,0,2021-08-07 10:48:15,739146
0,0,-3,-5,-8,-2,-2,-1,2021-08-07 10:48:15,755147
-2,-3,-7,-13,-10,-5,-2,-1,2021-08-07 10:48:15,755147
-1,0,1,3,2,0,-1,-3,2021-08-07 10:48:15,755147
2,0,3,7,9,5,0,1,2021-08-07 10:48:15,755147
-2,-3,-4,-3,-8,-6,-4,-3,2021-08-07 10:48:15,755147
1,1,-1,-2,0,0,1,-1,2021-08-07 10:48:15,755147
-2,-1,1,0,4,4,1,-1,2021-08-07 10:48:15,756148
0,-1,-2,-3,-6,-3,-1,-2,2021-08-07 10:48:15,756148
0,-3,0,-4,-3,-1,-3,-1,2021-08-07 10:48:15,770145
0,-1,-2,-9,-7,-4,-2,-3,2021-08-07 10:48:15,770145
-3,-4,-5,-7,-11,-7,-3,-1,2021-08-07 10:48:15,786147
2,4,9,12,21,9,3,2,2021-08-07 10:48:15,786147
1,1,0,3,4,1,2,0,2021-08-07 10:48:15,786147
-3,-3,-2,-6,-5,1,-3,-3,2021-08-07 10:48:15,786147
0,1,-1,-4,-2,-1,0,-2,2021-08-07 10:48:15,786147
-3,-2,-2,-3,-10,-5,-3,-2,2021-08-07 10:48:15,787146
0,0,1,7,9,4,3,1,2021-08-07 10:48:15,801145
-2,-2,-1,-4,-4,-3,-1,-1,2021-08-07 10:48:15,801145
-1,-2,-4,-3,-1,-2,-3,-2,2021-08-07 10:48:15,834146
-3,-4,-6,-17,-21,-8,-4,-2,2021-08-07 10:48:15,834146
0,2,5,10,20,8,3,1,2021-08-07 10:48:15,850147
-1,1,-1,1,-4,-3,0,-2,2021-08-07 10:48:15,850147
-1,2,2,5,7,2,3,1,2021-08-07 10:48:15,850147
2,2,0,10,12,4,2,1,2021-08-07 10:48:15,850147
0,-4,-4,-7,-11,-5,-4,-1,2021-08-07 10:48:15,850147
-2,-1,-2,-2,0,-1,-1,-1,2021-08-07 10:48:15,850147
-1,-1,-2,-6,-9,-5,-2,-1,2021-08-07 10:48:15,866146
-1,-1,-2,-6,-9,-4,-3,-1,2021-08-07 10:48:15,882147
-3,-1,-2,0,1,0,-3,-2,2021-08-07 10:48:15,898147
2,4,7,16,14,7,5,4,2021-08-07 10:48:15,898147
0,-1,-1,-1,-4,-1,-2,0,2021-08-07 10:48:15,898147
0,-2,0,4,7,2,2,0,2021-08-07 10:48:15,898147
-2,-3,-1,-5,-6,-3,-1,-1,2021-08-07 10:48:15,898147
1,0,0,-3,-4,-1,-1,-1,2021-08-07 10:48:15,899146
-1,-3,-1,1,-1,-2,-1,0,2021-08-07 10:48:15,899146
-2,-2,-2,-8,-8,-3,-1,-1,2021-08-07 10:48:15,899146
0,-2,-4,-5,-8,-3,-2,-2,2021-08-07 10:48:15,913146
2,2,2,10,19,6,3,1,2021-08-07 10:48:15,929149
-2,-2,-2,-3,-1,-2,-1,1,2021-08-07 10:48:15,929149
2,2,1,3,1,1,2,1,2021-08-07 10:48:15,929149
-4,-3,-5,-16,-25,-11,-4,-5,2021-08-07 10:48:15,929149
-1,0,5,20,30,11,3,2,2021-08-07 10:48:15,929149
-1,-1,2,6,3,1,-1,-3,2021-08-07 10:48:15,930149
-4,-1,-2,-1,-2,-2,-1,-1,2021-08-07 10:48:15,930149
-2,-1,-2,-4,-10,-5,-2,-1,2021-08-07 10:48:15,945146
-3,-4,-6,-9,-13,-7,-3,-2,2021-08-07 10:48:15,945146
0,-1,2,1,5,2,0,-1,2021-08-07 10:48:15,961146
0,-2,-2,-2,-2,-2,-2,0,2021-08-07 10:48:15,976147
1,0,1,2,1,1,2,0,2021-08-07 10:48:15,992146
-3,-2,-5,-11,-10,-5,-4,-2,2021-08-07 10:48:15,992146
1,-1,-2,-4,-1,-1,0,-1,2021-08-07 10:48:15,992146
-1,0,0,7,2,2,2,-1,2021-08-07 10:48:15,992146
1,0,2,1,6,2,0,0,2021-08-07 10:48:15,992146
-2,-3,-5,-9,-10,-6,-2,0,2021-08-07 10:48:15,992146
-2,0,-1,-3,-6,-3,-1,0,2021-08-07 10:48:15,993147
-1,-3,-5,-10,-15,-7,-3,-1,2021-08-07 10:48:15,993147
0,-1,0,2,20,9,2,0,2021-08-07 10:48:16,008151
-3,-2,-5,-6,-20,-8,-4,-3,2021-08-07 10:48:16,008151
1,0,2,-1,6,3,1,1,2021-08-07 10:48:16,024189
-1,-1,1,10,9,2,-1,1,2021-08-07 10:48:16,040189
0,0,-2,-3,-7,-4,-1,0,2021-08-07 10:48:16,072188
1,-1,0,-5,1,2,-1,-1,2021-08-07 10:48:16,072188
-2,-2,-5,-5,-11,-6,-3,-3,2021-08-07 10:48:16,072188
-1,-1,1,-4,-1,-2,0,-2,2021-08-07 10:48:16,072188
0,-1,-2,3,1,1,-1,-1,2021-08-07 10:48:16,072188
1,-3,0,-2,-3,-1,0,-2,2021-08-07 10:48:16,072188
-1,0,1,4,2,0,0,0,2021-08-07 10:48:16,072188
0,-3,0,0,2,-1,-3,-2,2021-08-07 10:48:16,072188
0,-1,-2,2,-3,-1,1,0,2021-08-07 10:48:16,073190
1,-1,0,4,7,2,1,0,2021-08-07 10:48:16,073190
1,1,-1,2,7,3,1,0,2021-08-07 10:48:16,073190
-1,1,1,5,7,2,0,-1,2021-08-07 10:48:16,073190
-3,-2,-1,-3,-4,-4,-1,0,2021-08-07 10:48:16,087189
-4,-2,-2,-9,-10,-4,-1,-1,2021-08-07 10:48:16,103187
0,-2,-2,-2,2,2,0,0,2021-08-07 10:48:16,103187
-2,-2,-3,-7,-9,-3,-1,-2,2021-08-07 10:48:16,103187
0,1,-1,-4,7,2,-1,-1,2021-08-07 10:48:16,103187
2,3,5,13,14,7,3,2,2021-08-07 10:48:16,103187
-1,-3,-2,-4,-9,-6,-3,-3,2021-08-07 10:48:16,119187
-2,-2,-4,-6,-7,-4,0,-2,2021-08-07 10:48:16,135191
-3,0,0,2,-1,-1,-2,0,2021-08-07 10:48:16,151187
-1,0,-1,1,0,-2,-2,-1,2021-08-07 10:48:16,151187
-2,-3,-2,0,-4,-3,-2,-2,2021-08-07 10:48:16,151187
1,-1,0,-2,-4,0,-1,1,2021-08-07 10:48:16,151187
1,-1,-2,5,9,3,1,-1,2021-08-07 10:48:16,151187
-1,0,2,4,-1,0,-2,-1,2021-08-07 10:48:16,152189
1,2,-1,1,4,4,3,0,2021-08-07 10:48:16,181189
0,1,1,-1,-1,-2,-1,0,2021-08-07 10:48:16,197192
-2,-3,-1,-5,-8,-3,-1,-2,2021-08-07 10:48:16,213189
-2,-2,-4,-4,-7,-3,-2,-2,2021-08-07 10:48:16,213189
-2,-2,-2,-5,-4,-4,-2,-2,2021-08-07 10:48:16,213189
-1,-2,-1,4,4,2,1,1,2021-08-07 10:48:16,213189
-2,-1,1,0,-3,-4,0,-2,2021-08-07 10:48:16,213189
-1,-2,-3,-8,-8,-4,-2,-2,2021-08-07 10:48:16,213189
1,-1,3,4,15,7,1,-1,2021-08-07 10:48:16,214189
-1,-1,-3,-1,-1,0,-2,-1,2021-08-07 10:48:16,214189
1,1,1,-2,-2,-1,0,-1,2021-08-07 10:48:16,214189
-1,0,1,-2,-3,-2,0,-1,2021-08-07 10:48:16,214189
0,-1,-2,-3,-7,-3,-1,-1,2021-08-07 10:48:16,229188
-2,-1,0,-1,5,1,-2,-3,2021-08-07 10:48:16,229188
-3,-4,-4,-10,-12,-5,-3,-2,2021-08-07 10:48:16,229188
-1,0,-2,-2,2,0,-1,-1,2021-08-07 10:48:16,229188
1,0,3,5,7,2,1,2,2021-08-07 10:48:16,229188
-1,-1,0,4,4,2,-1,-2,2021-08-07 10:48:16,229188
0,-1,1,-1,-4,-3,-1,-1,2021-08-07 10:48:16,245188
0,-3,-3,-10,-5,-2,-3,-1,2021-08-07 10:48:16,245188
-1,-1,-2,3,-5,-4,-1,1,2021-08-07 10:48:16,261187
-1,0,-1,-3,0,-1,-1,-1,2021-08-07 10:48:16,276188
0,-1,-1,0,-1,0,-1,0,2021-08-07 10:48:16,292187
2,0,1,3,5,3,1,0,2021-08-07 10:48:16,292187
-3,-1,-1,-1,-4,-3,-2,-2,2021-08-07 10:48:16,292187
-2,0,0,2,1,-1,-1,-1,2021-08-07 10:48:16,292187
-3,0,-1,0,1,-1,-1,1,2021-08-07 10:48:16,292187
-3,-3,-4,-7,-10,-6,-2,-2,2021-08-07 10:48:16,292187
3,2,3,4,9,5,4,1,2021-08-07 10:48:16,293188
-1,-1,2,3,6,3,1,0,2021-08-07 10:48:16,293188
0,-1,-3,0,2,2,1,-1,2021-08-07 10:48:16,303187
-1,1,3,6,4,0,0,1,2021-08-07 10:48:16,303187
