EMG 1,EMG 2,EMG 3,EMG 4,EMG 5,EMG 6,EMG 7,EMG 8,Timestamp,Milliseconds
0,1,-2,-6,-11,-5,-1,0,2021-08-07 10:50:29,396551
-1,-1,-3,-9,-11,-5,-3,-2,2021-08-07 10:50:29,396551
-4,-4,-5,-9,-12,-5,-4,-6,2021-08-07 10:50:29,411552
-2,-2,-5,-14,-11,-5,-2,-1,2021-08-07 10:50:29,427589
-4,-1,1,8,8,3,0,-2,2021-08-07 10:50:29,443553
0,-1,0,-1,-2,-1,0,-1,2021-08-07 10:50:29,459602
0,2,-1,0,0,2,0,2,2021-08-07 10:50:29,475588
-2,-1,-3,-5,-8,-5,-1,-1,2021-08-07 10:50:29,475588
0,-4,-4,-6,-6,-2,-2,-3,2021-08-07 10:50:29,475588
1,1,2,12,29,12,4,1,2021-08-07 10:50:29,475588
0,-3,-1,-9,-10,-5,-2,-3,2021-08-07 10:50:29,475588
0,-1,0,7,5,1,0,1,2021-08-07 10:50:29,475588
1,0,-2,-6,-6,-4,-1,-1,2021-08-07 10:50:29,475588
-4,-3,-4,-6,-11,-4,-2,-2,2021-08-07 10:50:29,476555
2,2,3,9,12,3,1,2,2021-08-07 10:50:29,476555
-2,-2,-2,-1,-3,-3,-2,-3,2021-08-07 10:50:29,476555
-2,-2,-2,-7,-13,-6,-2,0,2021-08-07 10:50:29,476555
2,2,2,11,16,6,3,2,2021-08-07 10:50:29,476555
0,0,0,0,5,1,1,0,2021-08-07 10:50:29,476555
-1,-4,-4,-4,-3,-3,-5,-3,2021-08-07 10:50:29,476555
1,2,1,1,-3,-1,-1,-2,2021-08-07 10:50:29,476555
-3,0,-3,-9,-14,-5,-3,-2,2021-08-07 10:50:29,476555
-1,0,1,4,6,1,1,0,2021-08-07 10:50:29,491553
1,1,2,7,9,3,3,2,2021-08-07 10:50:29,491553
-2,-2,0,6,5,1,-2,-4,2021-08-07 10:50:29,533589
-1,1,-1,-5,-6,-3,-2,-2,2021-08-07 10:50:29,533589
-3,-2,-4,-9,-7,-5,-3,-1,2021-08-07 10:50:29,533589
1,0,0,0,3,-1,1,1,2021-08-07 10:50:29,533589
-1,-3,-3,-2,0,2,-1,-1,2021-08-07 10:50:29,553588
-2,-2,-1,-2,-2,-1,-2,-1,2021-08-07 10:50:29,553588
-1,0,0,-4,-7,-2,1,-2,2021-08-07 10:50:29,553588
2,4,5,5,11,7,3,3,2021-08-07 10:50:29,553588
-1,0,2,4,1,0,-1,0,2021-08-07 10:50:29,553588
-1,-2,-3,1,-3,-3,-1,-2,2021-08-07 10:50:29,554593
-1,-5,-2,0,10,2,0,-1,2021-08-07 10:50:29,554593
4,6,4,-4,-13,-5,1,2,2021-08-07 10:50:29,554593
2,1,1,3,16,7,3,2,2021-08-07 10:50:29,554593
-2,-3,-3,-10,-14,-7,-5,-2,2021-08-07 10:50:29,554593
0,2,0,5,6,2,2,0,2021-08-07 10:50:29,585550
-2,-1,0,8,6,2,0,-3,2021-08-07 10:50:29,601556
0,2,2,1,-2,-1,0,0,2021-08-07 10:50:29,617590
-2,-1,-2,-1,4,0,0,-2,2021-08-07 10:50:29,633554
-1,-1,-1,-3,-7,-3,-3,-2,2021-08-07 10:50:29,665578
-3,-5,-8,-9,-12,-5,-3,-3,2021-08-07 10:50:29,681578
0,1,0,-5,-11,-4,-1,0,2021-08-07 10:50:29,697554
-3,-3,-3,-3,1,-1,-1,-2,2021-08-07 10:50:29,713577
1,0,0,3,10,6,1,1,2021-08-07 10:50:29,729552
-2,-1,3,9,5,3,1,-2,2021-08-07 10:50:29,729552
-4,-6,-4,-9,-11,-5,-2,-3,2021-08-07 10:50:29,745582
3,1,0,1,1,-1,-1,2,2021-08-07 10:50:29,761559
0,1,1,-4,-9,-2,-2,1,2021-08-07 10:50:29,761559
1,-1,0,-1,0,1,0,0,2021-08-07 10:50:29,761559
-1,-1,-3,4,3,0,0,-1,2021-08-07 10:50:29,761559
-4,-3,-3,1,3,0,-2,-1,2021-08-07 10:50:29,761559
-3,-2,-4,-4,-7,-3,-1,-3,2021-08-07 10:50:29,761559
-3,-6,-5,-5,-3,-3,-4,-2,2021-08-07 10:50:29,762552
0,2,1,-4,-8,-4,-1,0,2021-08-07 10:50:29,762552
3,-1,1,2,2,2,3,2,2021-08-07 10:50:29,762552
-2,0,3,3,2,-1,-1,-2,2021-08-07 10:50:29,762552
-1,-1,-3,-2,-3,-2,-2,-1,2021-08-07 10:50:29,762552
-4,-5,-6,-5,-4,-5,-3,-3,2021-08-07 10:50:29,762552
1,2,1,6,6,4,1,3,2021-08-07 10:50:29,762552
0,-2,-2,-3,-2,-2,-1,-2,2021-08-07 10:50:29,762552
2,1,1,3,2,-1,2,2,2021-08-07 10:50:29,763580
-3,-1,-2,-8,-7,-5,-4,-2,2021-08-07 10:50:29,763580
1,2,4,3,7,4,1,0,2021-08-07 10:50:29,763580
-3,-4,-1,1,-2,-3,-4,-3,2021-08-07 10:50:29,763580
-2,-1,-3,-5,-9,-4,-3,-5,2021-08-07 10:50:29,763580
2,3,1,-5,-1,-2,1,0,2021-08-07 10:50:29,763580
1,-1,5,12,10,4,4,1,2021-08-07 10:50:29,763580
2,1,0,0,0,2,2,3,2021-08-07 10:50:29,764552
-3,-5,-6,-11,-7,-5,-5,-2,2021-08-07 10:50:29,764552
-3,-8,-7,-11,-11,-3,-1,0,2021-08-07 10:50:29,764552
1,6,3,-1,-2,-1,0,0,2021-08-07 10:50:29,764552
0,5,6,13,14,6,2,1,2021-08-07 10:50:29,764552
-3,0,0,1,0,0,-2,-1,2021-08-07 10:50:29,764552
-3,-2,-3,-1,-4,-4,-4,-3,2021-08-07 10:50:29,764552
-2,-2,-3,-8,-8,-6,-2,-1,2021-08-07 10:50:29,764552
0,-1,-2,-4,-5,-3,-2,1,2021-08-07 10:50:29,792587
-2,-1,-4,-13,-12,-6,-1,0,2021-08-07 10:50:29,808590
8,8,9,20,25,12,7,5,2021-08-07 10:50:29,808590
-1,0,-1,-1,-1,0,-1,-1,2021-08-07 10:50:29,808590
-1,-3,-3,-5,-9,-4,-4,-5,2021-08-07 10:50:29,808590
0,-3,0,0,2,2,1,-2,2021-08-07 10:50:29,808590
-2,-2,-1,1,0,1,-2,1,2021-08-07 10:50:29,808590
-2,0,-2,-2,-3,-2,-1,-2,2021-08-07 10:50:29,809554
-3,-3,-4,-12,-12,-7,-3,-3,2021-08-07 10:50:29,823555
-2,-4,-3,-5,-3,-1,-1,-1,2021-08-07 10:50:29,823555
1,4,4,13,18,7,1,2,2021-08-07 10:50:29,823555
0,-2,-2,-8,-6,-3,-2,-2,2021-08-07 10:50:29,823555
0,-1,3,15,10,2,0,-1,2021-08-07 10:50:29,854581
0,1,2,1,-5,-5,-1,-1,2021-08-07 10:50:29,854581
-2,-2,-3,-5,-4,-2,-1,-4,2021-08-07 10:50:29,854581
-4,-5,-6,-10,-9,-5,-4,-3,2021-08-07 10:50:29,854581
0,-1,-2,-7,-5,-2,-2,1,2021-08-07 10:50:29,854581
-2,-2,-3,-6,-6,-4,-1,-1,2021-08-07 10:50:29,854581
0,-1,0,-1,0,1,1,-1,2021-08-07 10:50:29,854581
0,-2,2,12,9,2,0,-1,2021-08-07 10:50:29,855578
3,2,1,5,2,3,3,3,2021-08-07 10:50:29,886552
1,2,3,9,6,3,0,2,2021-08-07 10:50:29,902554
-2,-2,-5,-10,-9,-6,-3,-4,2021-08-07 10:50:29,918554
-4,-2,-2,-5,-6,-4,-4,-2,2021-08-07 10:50:29,934592
-3,-2,1,1,3,1,-1,-1,2021-08-07 10:50:29,939556
-2,-3,-1,-1,2,2,0,-1,2021-08-07 10:50:29,940553
-1,-3,0,-2,-4,-3,-1,0,2021-08-07 10:50:29,940553
-1,-1,-1,-1,0,0,-1,-2,2021-08-07 10:50:29,940553
1,2,2,3,1,0,0,0,2021-08-07 10:50:29,940553
-5,-6,-6,-7,-5,-5,-3,-3,2021-08-07 10:50:29,940553
0,1,-2,-4,-5,0,0,0,2021-08-07 10:50:29,940553
1,1,2,4,3,1,1,-2,2021-08-07 10:50:29,941551
-2,-1,0,0,3,2,2,0,2021-08-07 10:50:29,941551
-5,-8,-8,-5,-2,-1,-2,-3,2021-08-07 10:50:29,941551
-3,-3,-3,-6,-6,-5,-2,0,2021-08-07 10:50:29,941551
-1,-3,-2,-4,-2,-2,-1,-1,2021-08-07 10:50:29,941551
0,1,-1,-1,-2,-3,-1,-1,2021-08-07 10:50:29,966592
1,3,2,2,7,4,1,0,2021-08-07 10:50:29,966592
-2,-4,0,7,3,-1,-1,-4,2021-08-07 10:50:29,966592
1,2,0,-5,-7,-2,-2,1,2021-08-07 10:50:29,966592
0,-1,3,9,11,5,2,-1,2021-08-07 10:50:29,982591
-3,-2,-4,-8,-11,-6,-2,0,2021-08-07 10:50:29,998553
-5,-5,-7,-14,-17,-8,-5,-3,2021-08-07 10:50:30,013590
4,3,4,13,19,8,1,1,2021-08-07 10:50:30,013590
0,-3,-2,-5,-8,-4,-1,0,2021-08-07 10:50:30,013590
3,3,3,7,9,5,1,1,2021-08-07 10:50:30,013590
0,1,0,1,-5,-4,-1,0,2021-08-07 10:50:30,013590
-4,-4,-3,-7,-9,-3,-3,-3,2021-08-07 10:50:30,013590
-4,-4,-6,-6,-4,-4,-2,-4,2021-08-07 10:50:30,029591
2,5,6,5,3,1,0,0,2021-08-07 10:50:30,029591
-2,-5,-6,-15,-15,-4,-1,-1,2021-08-07 10:50:30,029591
2,1,1,7,19,5,2,1,2021-08-07 10:50:30,029591
-2,-1,-2,0,-1,-1,-2,-2,2021-08-07 10:50:30,029591
-2,-2,-2,1,6,-1,-2,-1,2021-08-07 10:50:30,029591
2,0,0,-5,-5,-3,-2,0,2021-08-07 10:50:30,045551
-4,-3,-4,-4,-9,-5,-4,-2,2021-08-07 10:50:30,060554
1,0,2,1,1,0,0,-1,2021-08-07 10:50:30,060554
0,0,-2,-3,-3,-1,0,-2,2021-08-07 10:50:30,060554
-1,0,3,6,3,2,1,-1,2021-08-07 10:50:30,060554
-2,-3,-7,-12,-17,-9,-2,-2,2021-08-07 10:50:30,060554
5,6,6,12,18,6,-1,2,2021-08-07 10:50:30,091554
3,5,6,8,9,7,4,3,2021-08-07 10:50:30,091554
0,0,1,7,9,4,0,-1,2021-08-07 10:50:30,091554
-3,-3,-4,-6,-7,-5,-2,-4,2021-08-07 10:50:30,091554
-3,-7,-8,-23,-34,-15,-5,-3,2021-08-07 10:50:30,107591
0,3,1,12,25,12,3,3,2021-08-07 10:50:30,107591
0,0,2,1,0,1,-1,-2,2021-08-07 10:50:30,107591
0,-1,1,0,-2,1,1,0,2021-08-07 10:50:30,107591
-5,-3,-6,-9,-6,-5,-2,-3,2021-08-07 10:50:30,123555
1,-1,2,3,-11,-6,-3,-1,2021-08-07 10:50:30,139582
-2,-1,-1,-2,5,2,-1,0,2021-08-07 10:50:30,155621
0,2,1,5,3,2,1,1,2021-08-07 10:50:30,155621
-3,-2,-6,-15,-15,-5,-2,-1,2021-08-07 10:50:30,155621
-1,-3,-2,1,-1,-3,-3,-1,2021-08-07 10:50:30,155621
0,1,1,6,7,5,0,-1,2021-08-07 10:50:30,155621
-2,0,0,-1,4,-1,-2,-1,2021-08-07 10:50:30,156606
0,0,1,9,5,3,1,0,2021-08-07 10:50:30,171629
-4,-3,-3,-5,2,-1,-1,-2,2021-08-07 10:50:30,171629
-3,-3,-5,-7,-6,-5,-3,-1,2021-08-07 10:50:30,171629
2,2,2,-1,-9,-3,0,2,2021-08-07 10:50:30,187620
0,3,2,2,5,3,0,0,2021-08-07 10:50:30,203620
-4,-4,-6,-8,-14,-7,-3,-4,2021-08-07 10:50:30,203620
4,5,7,14,14,7,3,2,2021-08-07 10:50:30,203620
-4,-5,-4,-2,-1,-1,-2,-3,2021-08-07 10:50:30,203620
-1,-1,-2,1,1,-1,-2,0,2021-08-07 10:50:30,203620
1,0,-1,-7,-10,-6,-1,-2,2021-08-07 10:50:30,203620
-2,-3,-3,-3,4,1,-1,0,2021-08-07 10:50:30,203620
4,3,7,10,10,7,4,2,2021-08-07 10:50:30,204584
-2,-3,0,-2,1,0,-2,-1,2021-08-07 10:50:30,219621
-1,-1,1,3,0,0,0,0,2021-08-07 10:50:30,219621
-1,1,1,-4,-6,-3,-1,0,2021-08-07 10:50:30,219621
-1,0,-4,-6,-3,-3,-1,0,2021-08-07 10:50:30,219621
-1,0,-1,2,2,0,-2,1,2021-08-07 10:50:30,250585
-2,-4,-2,-5,-3,-1,-1,-2,2021-08-07 10:50:30,250585
-1,-4,-2,-1,1,0,0,0,2021-08-07 10:50:30,250585
-1,-1,-1,2,-4,-1,-1,-1,2021-08-07 10:50:30,250585
-3,-4,-5,-6,-1,-1,-1,-3,2021-08-07 10:50:30,266584
-1,-1,1,5,5,2,0,-1,2021-08-07 10:50:30,266584
0,1,0,-1,-3,-2,0,-1,2021-08-07 10:50:30,282626
0,1,-1,-5,-4,-2,0,0,2021-08-07 10:50:30,298624
1,-1,3,1,1,1,0,0,2021-08-07 10:50:30,330624
0,3,1,2,2,0,0,0,2021-08-07 10:50:30,330624
-3,-4,-5,-7,-5,-2,-2,-4,2021-08-07 10:50:30,330624
-3,-4,-4,-2,-2,-2,-3,-3,2021-08-07 10:50:30,330624
0,-4,0,-1,-1,-1,-2,-1,2021-08-07 10:50:30,330624
3,4,6,8,9,4,3,2,2021-08-07 10:50:30,330624
0,1,0,0,-1,-1,-1,-1,2021-08-07 10:50:30,331588
-3,-3,-3,-7,-8,-3,-2,-3,2021-08-07 10:50:30,331588
-3,-1,-3,-6,-5,-3,-2,-2,2021-08-07 10:50:30,331588
0,-1,-2,-3,8,2,0,0,2021-08-07 10:50:30,331588
1,3,6,14,5,2,0,-1,2021-08-07 10:50:30,331588
-2,-3,-1,0,5,1,-1,-1,2021-08-07 10:50:30,331588
2,3,2,-3,-2,0,1,1,2021-08-07 10:50:30,346613
-2,-3,-5,-9,-12,-5,-4,-2,2021-08-07 10:50:30,362185
0,2,4,6,3,2,1,1,2021-08-07 10:50:30,372185
-3,-2,-2,-3,-3,-2,-2,-1,2021-08-07 10:50:30,373161
-4,1,-3,2,1,1,-2,-2,2021-08-07 10:50:30,373161
-2,-3,-4,-5,-7,-3,-2,-1,2021-08-07 10:50:30,373161
0,0,-4,-13,-13,-6,-2,-2,2021-08-07 10:50:30,373161
0,-1,1,7,3,1,0,0,2021-08-07 10:50:30,373161
-1,-3,-1,2,12,2,-1,0,2021-08-07 10:50:30,393157
4,3,5,6,12,7,5,3,2021-08-07 10:50:30,409185
-3,-4,-5,-4,-2,-3,-3,-2,2021-08-07 10:50:30,409185
-1,0,0,-3,-1,0,0,1,2021-08-07 10:50:30,409185
-2,-2,-2,-4,-9,-4,-2,-1,2021-08-07 10:50:30,425197
-2,-3,-4,-7,-12,-5,-4,-2,2021-08-07 10:50:30,441196
1,0,1,-3,0,0,0,0,2021-08-07 10:50:30,441196
1,3,4,10,17,7,1,1,2021-08-07 10:50:30,441196
-2,-3,-2,-6,-1,-2,-1,-2,2021-08-07 10:50:30,441196
0,1,4,7,0,-1,-2,-3,2021-08-07 10:50:30,441196
-1,-1,-1,0,-3,-4,-2,-1,2021-08-07 10:50:30,441196
1,0,1,-1,1,2,2,1,2021-08-07 10:50:30,441196
-2,-4,-6,-6,-6,-1,0,0,2021-08-07 10:50:30,442196
-1,-3,-4,-2,-3,-2,0,-2,2021-08-07 10:50:30,442196
0,-2,-4,-5,-6,-1,1,1,2021-08-07 10:50:30,442196
-2,-1,-1,5,9,3,1,-1,2021-08-07 10:50:30,442196
-2,1,1,5,4,1,-1,-4,2021-08-07 10:50:30,473161
-3,0,0,0,0,0,-2,-4,2021-08-07 10:50:30,489160
-1,-1,-1,-1,-3,-3,-3,-1,2021-08-07 10:50:30,489160
-2,-3,-4,-11,-13,-7,-3,-2,2021-08-07 10:50:30,489160
4,5,4,3,0,-2,1,1,2021-08-07 10:50:30,489160
1,0,-3,-1,5,2,2,2,2021-08-07 10:50:30,504206
2,4,4,3,4,4,2,2,2021-08-07 10:50:30,504206
0,-1,-1,5,0,-2,-2,-2,2021-08-07 10:50:30,504206
2,0,2,4,1,-1,0,-1,2021-08-07 10:50:30,504206
-4,-3,-1,-7,-5,-3,-3,-2,2021-08-07 10:50:30,504206
-3,-3,-6,-5,-1,-1,-1,-1,2021-08-07 10:50:30,504206
-1,-3,-4,-8,-8,-4,-1,-3,2021-08-07 10:50:30,504206
-2,-2,-1,0,0,-1,-1,1,2021-08-07 10:50:30,536196
-3,-4,-5,-10,-7,-3,-3,-2,2021-08-07 10:50:30,552207
0,1,2,8,10,4,1,1,2021-08-07 10:50:30,568159
1,1,0,1,0,0,0,0,2021-08-07 10:50:30,584159
-2,-4,-3,-3,-1,-2,-1,0,2021-08-07 10:50:30,584159
1,0,2,4,0,0,0,0,2021-08-07 10:50:30,584159
-2,-4,-4,-5,-3,-3,-3,-2,2021-08-07 10:50:30,600160
0,0,-2,-5,-6,-3,-3,-2,2021-08-07 10:50:30,600160
0,0,1,2,3,1,0,0,2021-08-07 10:50:30,600160
-2,0,-2,-1,0,0,0,0,2021-08-07 10:50:30,600160
-3,-3,-2,-3,-3,-3,-1,-3,2021-08-07 10:50:30,600160
-1,-1,-1,-1,-2,-3,-2,-2,2021-08-07 10:50:30,600160
0,-1,-2,-3,-5,-1,1,0,2021-08-07 10:50:30,600160
3,0,1,0,-1,1,-1,1,2021-08-07 10:50:30,601161
-1,0,-2,1,3,0,-1,-1,2021-08-07 10:50:30,601161
-1,-1,3,4,0,3,1,-1,2021-08-07 10:50:30,616197
-2,0,-2,-1,5,-1,-2,-2,2021-08-07 10:50:30,616197
-1,-1,-4,-2,-3,-4,-2,-2,2021-08-07 10:50:30,616197
-2,-2,-4,-7,-7,-4,-2,-2,2021-08-07 10:50:30,616197
-1,-2,-3,-6,-8,-3,-2,1,2021-08-07 10:50:30,616197
0,1,1,3,5,3,0,-1,2021-08-07 10:50:30,616197
0,0,2,5,1,-1,-1,1,2021-08-07 10:50:30,616197
-3,-4,-4,-13,-15,-5,-3,-2,2021-08-07 10:50:30,632196
1,2,6,20,23,7,3,1,2021-08-07 10:50:30,632196
0,0,0,0,-3,0,0,-1,2021-08-07 10:50:30,648197
-1,-2,-3,-4,-5,-2,-2,-2,2021-08-07 10:50:30,648197
0,-1,-2,-3,-1,-2,-2,0,2021-08-07 10:50:30,648197
0,-3,1,-1,-1,0,-1,0,2021-08-07 10:50:30,648197
1,0,3,9,10,5,1,2,2021-08-07 10:50:30,680196
-2,-1,-1,-2,-4,-2,-3,-1,2021-08-07 10:50:30,680196
-2,-1,-2,-3,-6,-3,-3,-1,2021-08-07 10:50:30,680196
-3,-3,-8,-17,-13,-6,-4,-3,2021-08-07 10:50:30,680196
3,3,4,12,9,2,1,1,2021-08-07 10:50:30,696196
-1,-2,-3,-5,-2,-2,-2,-2,2021-08-07 10:50:30,712197
0,-2,1,6,8,2,0,0,2021-08-07 10:50:30,728160
2,5,2,-3,-4,-1,1,1,2021-08-07 10:50:30,728160
-3,-3,-4,-5,-10,-6,-3,-4,2021-08-07 10:50:30,728160
0,0,-1,0,2,1,2,1,2021-08-07 10:50:30,728160
-3,-4,-3,-6,-2,-2,-2,-2,2021-08-07 10:50:30,728160
-4,-2,-3,0,-1,-3,-2,-2,2021-08-07 10:50:30,728160
3,5,2,3,3,1,1,1,2021-08-07 10:50:30,729159
-1,1,1,3,7,3,1,0,2021-08-07 10:50:30,729159
2,-1,2,3,1,1,0,0,2021-08-07 10:50:30,729159
-4,-5,-5,-8,-7,-5,-3,-3,2021-08-07 10:50:30,729159
-2,-5,-6,-13,-12,-4,-3,-2,2021-08-07 10:50:30,743158
-2,-1,-5,-5,-6,-3,-2,-1,2021-08-07 10:50:30,743158
1,4,7,18,9,3,1,1,2021-08-07 10:50:30,743158
1,0,-3,-3,-2,-1,0,1,2021-08-07 10:50:30,743158
0,1,1,6,5,1,-1,0,2021-08-07 10:50:30,774196
0,-2,-4,-4,-6,-4,-2,-3,2021-08-07 10:50:30,790159
-2,0,-1,2,2,1,1,-1,2021-08-07 10:50:30,803198
-2,-2,-2,-3,-1,-3,0,-1,2021-08-07 10:50:30,803198
-2,-1,-1,-7,-9,-4,-1,0,2021-08-07 10:50:30,804161
1,1,1,2,5,4,1,1,2021-08-07 10:50:30,804161
0,0,0,0,4,2,0,2,2021-08-07 10:50:30,804161
-2,-1,1,-1,-1,-1,-2,-2,2021-08-07 10:50:30,804161
0,-1,-3,-2,-3,-1,-1,0,2021-08-07 10:50:30,804161
-1,-3,-1,0,-2,-3,-1,-3,2021-08-07 10:50:30,804161
2,1,-1,-6,0,-1,2,0,2021-08-07 10:50:30,821206
-3,-3,-4,-4,-4,-3,-4,-4,2021-08-07 10:50:30,837185
-2,-1,-2,3,3,-1,0,0,2021-08-07 10:50:30,853209
-2,-1,-1,-5,-4,-2,-2,-1,2021-08-07 10:50:30,869197
-3,-6,-6,-6,-9,-6,-3,-3,2021-08-07 10:50:30,884195
4,3,3,0,-7,-1,2,2,2021-08-07 10:50:30,884195
1,1,3,10,12,6,2,0,2021-08-07 10:50:30,884195
-1,0,1,5,4,1,0,1,2021-08-07 10:50:30,884195
-2,-1,-1,1,3,0,-1,-4,2021-08-07 10:50:30,884195
-1,-3,-4,-6,-6,-3,-3,-3,2021-08-07 10:50:30,884195
-2,-4,-4,-13,-15,-8,-4,-2,2021-08-07 10:50:30,884195
0,-1,-3,-6,-7,-2,-3,0,2021-08-07 10:50:30,884195
1,-1,1,0,2,-1,0,0,2021-08-07 10:50:30,884195
-1,2,2,8,2,2,2,1,2021-08-07 10:50:30,884195
-2,-1,-3,-6,-3,-2,-1,-1,2021-08-07 10:50:30,884195
-1,-1,-1,-3,2,1,-1,-2,2021-08-07 10:50:30,885193
0,1,2,7,4,2,3,0,2021-08-07 10:50:30,885193
-1,1,-1,0,5,-1,-2,2,2021-08-07 10:50:30,885193
0,-1,0,-3,-5,-2,-3,0,2021-08-07 10:50:30,915156
-3,-3,-2,-2,-2,-3,-3,-2,2021-08-07 10:50:30,931161
3,4,-1,-2,0,1,0,2,2021-08-07 10:50:30,931161
-1,-4,-3,-1,0,-1,-1,-3,2021-08-07 10:50:30,931161
-2,-1,-2,1,-1,-2,0,-2,2021-08-07 10:50:30,931161
-3,-4,-6,-12,-10,-5,-4,-3,2021-08-07 10:50:30,931161
1,2,5,16,13,4,1,3,2021-08-07 10:50:30,931161
-1,0,-1,1,5,2,1,0,2021-08-07 10:50:30,931161
-1,-2,-2,-7,-4,-4,-3,-1,2021-08-07 10:50:30,947187
-2,-1,-1,0,1,-2,0,-1,2021-08-07 10:50:30,963209
-3,-2,-3,-6,-5,-2,-1,-2,2021-08-07 10:50:30,963209
0,0,0,0,-2,-2,-1,0,2021-08-07 10:50:30,963209
-1,-2,-2,2,4,1,1,-2,2021-08-07 10:50:30,978158
-1,-1,2,3,2,1,-1,-1,2021-08-07 10:50:30,993157
0,2,0,-3,-1,0,-2,0,2021-08-07 10:50:31,009196
0,0,-2,-2,-4,-2,-3,-2,2021-08-07 10:50:31,009196
-4,-3,-2,-2,-3,-3,-3,-4,2021-08-07 10:50:31,009196
3,3,2,9,6,2,3,2,2021-08-07 10:50:31,009196
-1,-1,-2,-7,-3,-2,-1,1,2021-08-07 10:50:31,009196
-1,-1,0,-2,0,0,0,-2,2021-08-07 10:50:31,009196
-1,-5,-4,-7,-7,-2,-3,-1,2021-08-07 10:50:31,009196
-1,1,1,1,0,-2,-1,1,2021-08-07 10:50:31,010197
-3,-3,-4,-5,-2,-2,-1,-2,2021-08-07 10:50:31,010197
1,1,2,7,2,1,0,1,2021-08-07 10:50:31,010197
-2,-2,0,1,5,2,0,-1,2021-08-07 10:50:31,025160
-1,-2,-2,-6,-7,-3,-2,-1,2021-08-07 10:50:31,041196
1,-2,-1,-6,-7,-1,-3,0,2021-08-07 10:50:31,041196
0,1,3,12,20,7,2,1,2021-08-07 10:50:31,041196
-1,-2,0,-1,-3,-1,-1,-1,2021-08-07 10:50:31,057196
0,-1,1,3,0,1,1,1,2021-08-07 10:50:31,073162
-4,-3,-3,-4,-8,-5,-4,-4,2021-08-07 10:50:31,073162
-1,-2,-2,-8,-4,-1,-2,1,2021-08-07 10:50:31,073162
-1,2,0,0,-1,-2,-1,-1,2021-08-07 10:50:31,073162
-2,-4,-3,1,1,-2,-1,-2,2021-08-07 10:50:31,073162
-3,-2,0,4,1,0,1,-3,2021-08-07 10:50:31,073162
-2,-1,-4,-11,-9,-5,-1,-1,2021-08-07 10:50:31,074199
0,1,2,0,0,1,1,0,2021-08-07 10:50:31,089158
2,2,4,13,10,5,2,2,2021-08-07 10:50:31,089158
0,-2,-2,-3,-1,-1,-2,-1,2021-08-07 10:50:31,089158
0,-1,-2,-1,3,2,0,-1,2021-08-07 10:50:31,089158
-2,-2,-4,-6,-3,-4,-1,-1,2021-08-07 10:50:31,121197
-2,0,-1,2,1,-1,0,-4,2021-08-07 10:50:31,137175
-2,-2,-2,-1,-2,-4,-2,-1,2021-08-07 10:50:31,137175
-3,0,-2,-6,-5,-2,-2,-1,2021-08-07 10:50:31,137175
1,0,0,3,2,0,0,1,2021-08-07 10:50:31,137175
-1,-1,-3,-8,-3,-1,-1,-1,2021-08-07 10:50:31,137175
-1,-4,-3,-2,-1,0,0,0,2021-08-07 10:50:31,137175
-1,-3,-2,-4,-8,-3,-2,-3,2021-08-07 10:50:31,137175
3,5,3,10,11,6,4,3,2021-08-07 10:50:31,153184
-1,1,0,1,0,0,-1,-2,2021-08-07 10:50:31,153184
-2,0,-2,-4,-4,-3,0,-1,2021-08-07 10:50:31,153184
0,-1,1,-4,-3,-3,-1,0,2021-08-07 10:50:31,169186
-2,-1,-2,-2,-5,-6,-3,-4,2021-08-07 10:50:31,185197
-1,-1,-3,-6,-6,-3,-1,0,2021-08-07 10:50:31,201160
1,1,1,3,0,0,-2,0,2021-08-07 10:50:31,201160
0,-1,-3,-1,1,0,-1,-1,2021-08-07 10:50:31,201160
-1,-4,-2,-4,-1,-1,-2,-1,2021-08-07 10:50:31,201160
-1,-1,-3,-11,-8,-5,-1,0,2021-08-07 10:50:31,201160
-2,-3,-1,-6,-13,-6,-2,-2,2021-08-07 10:50:31,202161
0,2,6,21,34,18,5,1,2021-08-07 10:50:31,202161
-2,-1,1,6,6,1,-2,-4,2021-08-07 10:50:31,202161
-2,0,0,-4,-6,-4,-3,-2,2021-08-07 10:50:31,202161
0,1,-2,-8,-4,-5,-5,0,2021-08-07 10:50:31,202161
0,0,0,-1,-14,-8,-3,-2,2021-08-07 10:50:31,217194
0,-1,-1,-4,-3,-3,0,0,2021-08-07 10:50:31,233156
3,0,-2,2,1,2,2,2,2021-08-07 10:50:31,235161
-1,-1,-2,-1,-1,-1,0,-1,2021-08-07 10:50:31,235161
-1,-1,-2,-5,-6,-3,-1,0,2021-08-07 10:50:31,235161
-1,-1,-2,4,5,2,1,-1,2021-08-07 10:50:31,249185
-2,-1,-3,-1,-4,-3,-2,-2,2021-08-07 10:50:31,249185
2,0,0,2,7,3,3,1,2021-08-07 10:50:31,265185
-1,-2,-1,4,0,-1,-1,-1,2021-08-07 10:50:31,265185
-1,-1,-2,-8,-10,-4,-1,-2,2021-08-07 10:50:31,265185
-2,-2,1,2,1,1,-2,-2,2021-08-07 10:50:31,265185
1,1,3,14,16,7,1,-2,2021-08-07 10:50:31,265185
-2,-2,-7,-13,-11,-5,-4,-2,2021-08-07 10:50:31,265185
-1,-1,1,4,0,0,-2,-1,2021-08-07 10:50:31,297160
-1,-2,2,-1,2,0,0,1,2021-08-07 10:50:31,297160
0,0,0,1,2,0,1,-2,2021-08-07 10:50:31,297160
-3,-2,-3,-4,-7,-5,-1,-3,2021-08-07 10:50:31,297160
-2,0,-2,-4,-2,-1,-2,0,2021-08-07 10:50:31,297160
-2,-5,-5,-7,-2,-2,-2,-2,2021-08-07 10:50:31,297160
2,1,2,1,2,2,0,2,2021-08-07 10:50:31,313159
2,2,3,1,2,0,1,1,2021-08-07 10:50:31,313159
-2,-1,-1,1,0,0,2,-2,2021-08-07 10:50:31,329156
-1,2,2,5,2,1,2,-1,2021-08-07 10:50:31,329156
-3,-4,-2,-3,-9,-5,-2,0,2021-08-07 10:50:31,329156
-4,-4,-9,-16,-7,-4,-3,-3,2021-08-07 10:50:31,329156
1,2,4,12,14,5,1,-1,2021-08-07 10:50:31,361159
1,-1,1,2,-2,-1,-1,-1,2021-08-07 10:50:31,361159
-1,-1,-2,-3,2,0,0,0,2021-08-07 10:50:31,361159
-5,-4,-6,-13,-21,-8,-5,-3,2021-08-07 10:50:31,361159
-1,-3,-2,1,-1,-1,-1,0,2021-08-07 10:50:31,361159
1,3,4,12,11,6,2,2,2021-08-07 10:50:31,361159
1,0,0,4,3,1,1,-1,2021-08-07 10:50:31,376160
-1,-5,0,4,1,-1,0,-1,2021-08-07 10:50:31,376160
-2,-1,-7,-13,-14,-6,-4,0,2021-08-07 10:50:31,392185
-1,-3,-4,-9,-13,-9,-4,-2,2021-08-07 10:50:31,408186
1,2,6,14,23,10,2,0,2021-08-07 10:50:31,408186
-1,-3,0,1,0,0,1,-2,2021-08-07 10:50:31,408186
-1,-2,-2,-6,-10,-5,-4,-2,2021-08-07 10:50:31,424199
0,1,1,5,5,5,2,0,2021-08-07 10:50:31,424199
-1,0,-4,-7,2,0,-1,0,2021-08-07 10:50:31,424199
2,1,2,12,12,4,1,1,2021-08-07 10:50:31,424199
-2,-3,-3,-8,-7,-4,-4,-2,2021-08-07 10:50:31,424199
-1,0,-2,-4,-5,-2,-2,0,2021-08-07 10:50:31,424199
-4,-3,-3,-4,-10,-5,-3,-5,2021-08-07 10:50:31,439158
0,1,0,-2,-1,1,1,1,2021-08-07 10:50:31,439158
-1,-2,0,0,3,-1,1,-1,2021-08-07 10:50:31,455195
1,1,-1,-3,-3,-2,-1,-1,2021-08-07 10:50:31,471196
0,0,-2,-1,6,2,0,-2,2021-08-07 10:50:31,471196
-2,-1,-3,-3,-2,-1,-3,-2,2021-08-07 10:50:31,471196
1,1,0,0,-3,0,-1,0,2021-08-07 10:50:31,471196
0,-1,0,1,2,-1,-1,-1,2021-08-07 10:50:31,471196
-2,-3,0,1,-8,-1,-2,0,2021-08-07 10:50:31,471196
1,1,1,0,-1,-1,0,-1,2021-08-07 10:50:31,472198
-2,-3,-3,-1,1,1,0,-1,2021-08-07 10:50:31,486206
-3,-4,-5,-8,-6,-4,-4,-2,2021-08-07 10:50:31,486206
2,1,-2,-9,-8,-1,0,0,2021-08-07 10:50:31,486206
-2,-2,3,16,13,3,0,0,2021-08-07 10:50:31,486206
1,5,2,-6,-9,-5,-2,1,2021-08-07 10:50:31,517197
-1,-1,-1,0,6,2,1,-2,2021-08-07 10:50:31,517197
-3,-3,-6,-6,-11,-7,-2,-1,2021-08-07 10:50:31,517197
0,1,-3,-5,0,-2,-1,-2,2021-08-07 10:50:31,517197
1,0,0,2,3,0,0,-1,2021-08-07 10:50:31,533212
-1,-2,-2,-4,-8,-4,-2,-1,2021-08-07 10:50:31,549196
-1,0,-1,0,2,1,-1,-1,2021-08-07 10:50:31,565191
0,-2,1,0,2,2,-2,1,2021-08-07 10:50:31,565191
-2,-2,-5,-3,-4,-2,-2,0,2021-08-07 10:50:31,565191
-1,2,-1,-2,1,2,1,1,2021-08-07 10:50:31,565191
-1,-3,0,6,-1,-2,-1,-1,2021-08-07 10:50:31,565191
-2,-1,-2,-8,-9,-3,-1,-1,2021-08-07 10:50:31,565191
0,0,0,5,3,3,3,0,2021-08-07 10:50:31,565191
-2,-1,-3,-8,3,0,0,-1,2021-08-07 10:50:31,565191
0,1,2,8,7,3,2,0,2021-08-07 10:50:31,566164
-2,-1,-3,-2,-4,-3,-3,-2,2021-08-07 10:50:31,566164
1,1,2,1,-2,1,0,0,2021-08-07 10:50:31,596187
0,-2,0,1,1,-2,0,-1,2021-08-07 10:50:31,612159
-2,-2,-3,-6,-6,-4,-2,-2,2021-08-07 10:50:31,612159
0,-2,-2,-2,-4,-4,-1,-1,2021-08-07 10:50:31,612159
-1,-2,-2,0,1,-1,-1,0,2021-08-07 10:50:31,612159
0,0,-1,-2,0,2,-1,1,2021-08-07 10:50:31,612159
-1,0,0,-1,-2,-2,-2,-1,2021-08-07 10:50:31,628156
-1,-3,-2,-4,-4,-2,-2,-3,2021-08-07 10:50:31,628156
0,-2,-1,-1,1,-2,-1,-1,2021-08-07 10:50:31,628156
0,-2,1,3,1,0,1,0,2021-08-07 10:50:31,628156
0,0,-1,3,3,1,0,-2,2021-08-07 10:50:31,628156
-2,-1,-2,-8,-10,-5,-2,-3,2021-08-07 10:50:31,628156
-1,2,1,4,6,2,0,0,2021-08-07 10:50:31,659196
-2,-1,-2,1,-3,-2,-2,-2,2021-08-07 10:50:31,667160
-3,-2,-5,-6,-4,-3,-1,0,2021-08-07 10:50:31,668180
4,3,5,12,9,3,2,2,2021-08-07 10:50:31,668180
-3,-4,-3,-8,-10,-4,-5,-3,2021-08-07 10:50:31,668180
-1,-1,1,2,2,1,0,-2,2021-08-07 10:50:31,668180
0,1,1,-2,-4,-3,-3,-2,2021-08-07 10:50:31,689159
1,1,0,-3,-3,0,-1,0,2021-08-07 10:50:31,705204
-1,-2,-2,-1,0,0,-2,-2,2021-08-07 10:50:31,721196
-3,-3,-2,0,-4,-2,-3,-1,2021-08-07 10:50:31,721196
0,-1,-2,-2,0,0,0,-1,2021-08-07 10:50:31,721196
-1,0,1,6,7,3,0,1,2021-08-07 10:50:31,721196
0,0,0,1,1,0,0,1,2021-08-07 10:50:31,721196
-1,-1,-2,-2,-3,-1,-2,-3,2021-08-07 10:50:31,721196
0,1,1,5,1,1,0,1,2021-08-07 10:50:31,721196
-2,-2,-4,-3,-1,0,0,-1,2021-08-07 10:50:31,721196
-1,-1,0,2,2,2,-1,-2,2021-08-07 10:50:31,721196
-1,-1,1,-4,-3,-3,0,-1,2021-08-07 10:50:31,722160
0,-1,-1,-3,-2,-3,-2,-1,2021-08-07 10:50:31,753196
-3,-3,0,-4,-1,-2,1,-1,2021-08-07 10:50:31,753196
-2,-3,-4,-5,-6,-4,-1,-1,2021-08-07 10:50:31,753196
-1,-3,-4,-9,-5,-2,-2,-3,2021-08-07 10:50:31,753196
2,5,10,19,11,6,2,3,2021-08-07 10:50:31,753196
-3,-1,-3,-2,-6,-3,-2,-1,2021-08-07 10:50:31,753196
-3,-2,-3,-8,-4,-3,-1,-2,2021-08-07 10:50:31,769207
1,2,1,3,4,1,1,-1,2021-08-07 10:50:31,769207
-1,-2,-2,-5,-3,0,0,-1,2021-08-07 10:50:31,784156
-2,-1,-2,-2,-2,-2,-3,-1,2021-08-07 10:50:31,800158
-1,-1,-1,1,1,0,-1,-1,2021-08-07 10:50:31,800158
0,0,1,4,6,2,1,1,2021-08-07 10:50:31,800158
-2,-4,-5,-10,-6,-4,-1,-2,2021-08-07 10:50:31,800158
-3,-5,-4,-2,-3,-2,-1,-3,2021-08-07 10:50:31,800158
0,0,-1,-4,-7,-3,-2,0,2021-08-07 10:50:31,800158
3,2,1,2,-3,-1,0,3,2021-08-07 10:50:31,800158
-2,-3,-2,0,-4,-3,-2,-2,2021-08-07 10:50:31,816185
0,1,0,5,7,4,2,-1,2021-08-07 10:50:31,816185
-2,-2,0,-1,0,-1,-1,-2,2021-08-07 10:50:31,832196
-1,0,-2,0,-3,-2,-1,-1,2021-08-07 10:50:31,832196
-1,-1,-3,-4,0,-1,-1,0,2021-08-07 10:50:31,832196
-1,-2,-1,-3,-2,-1,-1,-2,2021-08-07 10:50:31,832196
-1,-1,0,6,4,0,0,-1,2021-08-07 10:50:31,864160
-1,-1,-3,-5,-1,1,-1,-2,2021-08-07 10:50:31,880207
3,3,4,5,-5,-2,-1,-1,2021-08-07 10:50:31,880207
2,1,3,8,13,6,3,3,2021-08-07 10:50:31,880207
1,1,1,5,4,2,1,1,2021-08-07 10:50:31,880207
-2,-4,-3,-3,-7,-4,-4,-2,2021-08-07 10:50:31,880207
-4,-6,-7,-16,-15,-6,-3,-3,2021-08-07 10:50:31,880207
1,2,5,14,19,7,1,0,2021-08-07 10:50:31,880207
0,0,0,-3,-3,-2,-2,0,2021-08-07 10:50:31,896196
-1,-2,0,3,3,-1,0,-1,2021-08-07 10:50:31,896196
0,-1,-1,-4,-5,-2,-1,-1,2021-08-07 10:50:31,896196
-1,-2,-3,-10,-13,-7,-3,-3,2021-08-07 10:50:31,896196
-3,-4,-7,-8,-6,-4,-3,-3,2021-08-07 10:50:31,912196
-1,1,4,14,19,9,1,0,2021-08-07 10:50:31,912196
3,5,2,0,1,1,3,2,2021-08-07 10:50:31,912196
0,0,-2,-5,-7,-2,-1,1,2021-08-07 10:50:31,912196
0,0,-1,-3,-4,-2,0,-2,2021-08-07 10:50:31,928159
-2,-2,-4,-8,-12,-5,-4,-2,2021-08-07 10:50:31,944160
-2,-2,-6,-4,4,1,-2,-1,2021-08-07 10:50:31,944160
3,3,6,23,16,5,5,2,2021-08-07 10:50:31,944160
-1,-4,-5,-11,-15,-5,-3,-1,2021-08-07 10:50:31,944160
1,-1,0,2,2,1,2,0,2021-08-07 10:50:31,944160
-3,-2,-2,2,9,2,0,-3,2021-08-07 10:50:31,944160
-2,1,2,-1,-4,-3,-2,-2,2021-08-07 10:50:31,959199
-4,-1,2,5,4,1,-2,-4,2021-08-07 10:50:31,975196
-2,-3,-3,-4,-9,-5,-3,-4,2021-08-07 10:50:31,991198
-1,-1,-1,-3,-3,-2,-1,-1,2021-08-07 10:50:31,991198
3,1,-1,-9,-8,-4,-2,0,2021-08-07 10:50:31,991198
-1,-2,-6,-7,-5,-3,-1,-1,2021-08-07 10:50:31,991198
1,0,0,5,6,0,0,2,2021-08-07 10:50:31,991198
2,0,1,2,3,3,2,2,2021-08-07 10:50:31,991198
-3,-2,-3,-3,-3,-2,-2,-1,2021-08-07 10:50:31,992196
-3,-2,-4,-2,-2,-2,-1,-3,2021-08-07 10:50:32,023157
-3,-2,-3,3,2,-1,-2,-1,2021-08-07 10:50:32,055194
-4,-2,-1,-2,2,0,-2,-1,2021-08-07 10:50:32,055194
4,6,8,23,18,9,3,1,2021-08-07 10:50:32,055194
0,-1,-1,-5,-4,0,0,0,2021-08-07 10:50:32,055194
0,0,-1,-9,-12,-7,-2,-1,2021-08-07 10:50:32,056158
-3,-3,-3,-1,-7,-4,-3,-4,2021-08-07 10:50:32,071197
0,-2,-3,-9,0,-1,-3,-1,2021-08-07 10:50:32,071197
2,1,3,10,10,3,3,2,2021-08-07 10:50:32,071197
-1,2,-1,1,0,0,-1,-2,2021-08-07 10:50:32,071197
-4,-4,-3,-7,-11,-8,-3,-1,2021-08-07 10:50:32,071197
-4,-5,-8,-16,-15,-6,-4,-2,2021-08-07 10:50:32,072192
2,2,3,10,11,4,0,2,2021-08-07 10:50:32,072192
2,2,3,-1,-1,2,1,1,2021-08-07 10:50:32,072192
-1,0,-1,1,-1,1,0,-1,2021-08-07 10:50:32,072192
-3,-3,-4,-6,-6,-4,-3,-3,2021-08-07 10:50:32,072192
-3,-3,-3,-5,-5,-3,-4,-2,2021-08-07 10:50:32,102156
0,-1,-2,-1,-1,-1,0,-1,2021-08-07 10:50:32,102156
2,1,1,7,9,4,1,-1,2021-08-07 10:50:32,102156
-3,-4,-4,-6,-14,-8,-2,-3,2021-08-07 10:50:32,102156
0,1,0,-1,1,0,2,0,2021-08-07 10:50:32,102156
-2,-2,-1,-4,-3,-2,-3,-2,2021-08-07 10:50:32,102156
2,3,5,16,21,8,3,2,2021-08-07 10:50:32,119194
-1,0,-2,-7,-6,-3,-2,-1,2021-08-07 10:50:32,135160
-1,-3,0,1,-1,0,-2,0,2021-08-07 10:50:32,135160
-1,-1,-2,-2,-1,-1,1,-1,2021-08-07 10:50:32,135160
-2,-3,-3,-10,-11,-5,-1,-3,2021-08-07 10:50:32,135160
-1,-1,0,0,-1,-2,-1,1,2021-08-07 10:50:32,135160
-1,-1,-3,-5,-3,-1,0,1,2021-08-07 10:50:32,151235
0,-1,-2,0,2,0,0,0,2021-08-07 10:50:32,151235
-1,-1,0,-1,-4,-1,-2,-1,2021-08-07 10:50:32,151235
-1,-2,-1,-4,-1,0,-2,-1,2021-08-07 10:50:32,151235
-2,-1,0,0,2,1,0,-1,2021-08-07 10:50:32,167191
-1,-1,0,1,-1,-1,0,-2,2021-08-07 10:50:32,167191
0,-2,-4,-8,-6,-3,-1,-1,2021-08-07 10:50:32,167191
-3,-4,-8,-20,-16,-9,-4,-3,2021-08-07 10:50:32,167191
1,2,8,19,20,13,4,2,2021-08-07 10:50:32,198195
-1,-1,-1,3,4,-1,1,-1,2021-08-07 10:50:32,198195
-1,-1,-3,-8,-11,-6,-3,-3,2021-08-07 10:50:32,198195
-2,0,-4,-7,-8,-5,-2,-1,2021-08-07 10:50:32,198195
-2,-3,-4,-9,-12,-8,-5,-3,2021-08-07 10:50:32,214195
1,0,2,-1,-1,0,-1,0,2021-08-07 10:50:32,214195
-1,-1,-2,-1,-3,-4,-2,-2,2021-08-07 10:50:32,230230
1,0,6,15,13,4,3,-1,2021-08-07 10:50:32,230230
1,-1,-1,1,8,4,0,-1,2021-08-07 10:50:32,230230
-2,-1,0,2,-1,-1,0,-1,2021-08-07 10:50:32,230230
-1,0,-2,-6,-12,-5,-3,0,2021-08-07 10:50:32,230230
1,0,5,16,20,11,3,1,2021-08-07 10:50:32,231196
-1,-2,-4,-9,-12,-6,-2,-2,2021-08-07 10:50:32,262191
1,-1,-2,0,6,4,1,1,2021-08-07 10:50:32,262191
0,-2,-1,-4,4,3,-1,1,2021-08-07 10:50:32,262191
0,-1,0,3,1,0,0,0,2021-08-07 10:50:32,262191
1,-2,-1,2,-4,-4,-2,-2,2021-08-07 10:50:32,278228
-1,-1,-1,-4,-4,-4,-2,-1,2021-08-07 10:50:32,294231
-4,0,-2,-3,-5,-5,-2,0,2021-08-07 10:50:32,310192
-1,-1,-2,-4,-1,0,-1,0,2021-08-07 10:50:32,310192
-1,0,-1,-2,3,0,-1,0,2021-08-07 10:50:32,325194
-2,0,-1,-1,-5,-2,-1,-2,2021-08-07 10:50:32,325194
0,-1,-2,-4,1,1,-2,-1,2021-08-07 10:50:32,325194
-3,-2,-5,-12,-17,-5,-4,-2,2021-08-07 10:50:32,325194
1,2,4,15,17,4,3,0,2021-08-07 10:50:32,325194
0,-1,-3,-3,-3,-1,-2,0,2021-08-07 10:50:32,325194
0,-1,1,6,7,3,0,-1,2021-08-07 10:50:32,325194
0,-1,0,4,2,0,0,-1,2021-08-07 10:50:32,325194
0,-1,-3,-13,-12,-6,-3,0,2021-08-07 10:50:32,326195
-2,-1,-2,-3,-6,-2,-3,-1,2021-08-07 10:50:32,326195
-3,-3,-2,-1,-7,-5,-1,-2,2021-08-07 10:50:32,341233
2,2,5,10,22,11,4,2,2021-08-07 10:50:32,356610
-2,1,1,4,4,0,-2,-1,2021-08-07 10:50:32,356610
-2,-4,-1,-4,-5,-4,-3,-2,2021-08-07 10:50:32,356610
0,1,1,6,5,2,2,2,2021-08-07 10:50:32,356610
-2,-2,-2,-1,-6,-6,0,-3,2021-08-07 10:50:32,356610
-2,0,-1,-6,-5,-4,-1,-1,2021-08-07 10:50:32,372602
-1,-1,-2,-1,-6,-3,-1,-3,2021-08-07 10:50:32,388633
-3,-2,-3,-3,1,-1,-2,-3,2021-08-07 10:50:32,420625
0,-3,-4,-13,-11,-5,-1,-2,2021-08-07 10:50:32,420625
2,0,1,9,0,0,1,0,2021-08-07 10:50:32,420625
1,-1,1,0,7,3,0,1,2021-08-07 10:50:32,420625
2,1,2,5,5,2,2,0,2021-08-07 10:50:32,420625
-2,2,0,5,8,2,0,-1,2021-08-07 10:50:32,420625
-2,-2,-3,-4,-7,-2,0,-2,2021-08-07 10:50:32,420625
0,1,-1,1,-1,0,-1,-1,2021-08-07 10:50:32,420625
-1,-1,-2,-6,-8,-4,-1,1,2021-08-07 10:50:32,421625
-1,-4,-4,-9,-16,-7,-4,-3,2021-08-07 10:50:32,421625
-1,-1,-1,2,1,2,-1,0,2021-08-07 10:50:32,436600
-2,0,3,6,2,2,0,0,2021-08-07 10:50:32,452633
-2,-1,0,6,10,3,1,-3,2021-08-07 10:50:32,452633
-6,-5,-10,-25,-24,-11,-5,-5,2021-08-07 10:50:32,452633
4,3,7,14,24,8,4,2,2021-08-07 10:50:32,452633
0,2,1,4,7,0,2,1,2021-08-07 10:50:32,452633
2,2,2,0,-2,0,-2,-1,2021-08-07 10:50:32,452633
-1,-3,-1,1,-6,-4,-1,0,2021-08-07 10:50:32,452633
-3,-5,-5,-10,-9,-3,-3,-2,2021-08-07 10:50:32,468598
-2,-5,-4,-3,1,1,-2,-3,2021-08-07 10:50:32,468598
-1,-1,-2,-4,-3,-2,-1,-1,2021-08-07 10:50:32,468598
1,1,2,2,5,1,1,1,2021-08-07 10:50:32,468598
-4,-4,-6,-13,-18,-9,-5,-3,2021-08-07 10:50:32,499623
2,-1,3,3,-2,1,1,0,2021-08-07 10:50:32,515697
3,3,5,19,28,11,7,4,2021-08-07 10:50:32,515697
1,0,1,7,8,5,1,-1,2021-08-07 10:50:32,531693
-3,-3,-4,-6,-4,-4,-1,-3,2021-08-07 10:50:32,531693
-4,-5,-5,-10,-13,-8,-5,-4,2021-08-07 10:50:32,531693
-3,-2,-4,-13,-17,-7,-4,-2,2021-08-07 10:50:32,531693
4,6,6,11,12,5,3,3,2021-08-07 10:50:32,531693
-3,-2,-4,-9,-8,-4,-2,-1,2021-08-07 10:50:32,531693
-1,0,0,-2,-4,-3,-1,0,2021-08-07 10:50:32,531693
0,-1,0,6,14,6,2,-1,2021-08-07 10:50:32,531693
0,-2,-1,-2,-3,-1,-3,-1,2021-08-07 10:50:32,531693
-2,-3,-6,-12,-11,-3,-3,-3,2021-08-07 10:50:32,547652
-1,-1,-2,-5,-8,-4,-3,-1,2021-08-07 10:50:32,547652
-2,-1,-1,2,-5,-4,-2,-2,2021-08-07 10:50:32,547652
-3,-2,0,0,1,0,-2,-1,2021-08-07 10:50:32,547652
-1,-3,-1,5,6,1,0,0,2021-08-07 10:50:32,579674
-1,-1,-2,-4,2,1,-1,-1,2021-08-07 10:50:32,579674
-2,-1,-2,-8,-8,-2,-1,0,2021-08-07 10:50:32,579674
2,1,3,15,17,5,2,1,2021-08-07 10:50:32,579674
2,1,4,5,0,0,1,2,2021-08-07 10:50:32,579674
-1,1,-1,-5,0,-1,0,-1,2021-08-07 10:50:32,579674
-3,-1,-1,-3,-9,-6,-4,-3,2021-08-07 10:50:32,595698
-3,-4,-7,-15,-18,-7,-6,-2,2021-08-07 10:50:32,595698
2,4,6,6,0,3,2,2,2021-08-07 10:50:32,611648
0,0,2,10,25,8,2,1,2021-08-07 10:50:32,627651
-3,-4,-7,-13,-11,-4,-3,-3,2021-08-07 10:50:32,658687
0,-3,2,5,-2,1,0,0,2021-08-07 10:50:32,674651
-2,-1,-3,-9,-1,-2,0,-1,2021-08-07 10:50:32,674651
1,3,4,10,3,1,0,0,2021-08-07 10:50:32,674651
0,-2,0,5,1,0,1,0,2021-08-07 10:50:32,674651
-3,-3,-6,-4,-3,-3,-1,-1,2021-08-07 10:50:32,674651
-2,-3,-5,-13,-13,-7,-5,-3,2021-08-07 10:50:32,674651
0,-1,0,1,4,4,3,1,2021-08-07 10:50:32,674651
-1,-2,-1,1,5,4,-1,1,2021-08-07 10:50:32,675651
1,-1,0,1,-5,-4,0,-1,2021-08-07 10:50:32,675651
1,2,2,5,5,2,0,1,2021-08-07 10:50:32,675651
-2,-3,-5,-8,-8,-5,-1,-1,2021-08-07 10:50:32,675651
-1,-3,-2,-4,-13,-4,-3,-2,2021-08-07 10:50:32,675651
0,1,-1,-2,3,-1,0,-1,2021-08-07 10:50:32,675651
1,0,2,2,6,4,1,0,2021-08-07 10:50:32,690648
2,4,4,9,8,2,1,2,2021-08-07 10:50:32,690648
-1,-3,-3,-8,-10,-6,-4,-4,2021-08-07 10:50:32,690648
2,2,2,-2,-1,2,2,4,2021-08-07 10:50:32,690648
-1,-2,-3,-7,-4,-1,1,-1,2021-08-07 10:50:32,721687
-4,-7,-7,-6,-7,-5,-1,-2,2021-08-07 10:50:32,721946
-1,0,-2,-5,-4,-1,0,1,2021-08-07 10:50:32,721946
-3,-1,-1,-7,2,1,-3,-4,2021-08-07 10:50:32,721946
-2,0,4,12,12,3,0,-2,2021-08-07 10:50:32,737688
-2,-1,1,0,-10,-4,-2,-4,2021-08-07 10:50:32,737688
-2,-2,1,1,6,2,-4,-2,2021-08-07 10:50:32,737688
-1,0,1,4,5,-1,-2,-2,2021-08-07 10:50:32,737688
0,0,-4,-9,-10,-2,-2,1,2021-08-07 10:50:32,753696
1,-1,-2,-3,5,0,0,3,2021-08-07 10:50:32,753696
-3,-3,-7,-11,-17,-6,-3,-1,2021-08-07 10:50:32,753696
2,4,3,6,6,4,1,1,2021-08-07 10:50:32,753696
2,3,2,7,10,2,1,0,2021-08-07 10:50:32,785677
1,0,0,-4,-9,-3,-1,-1,2021-08-07 10:50:32,785677
-1,-2,0,0,-2,-1,0,-3,2021-08-07 10:50:32,785677
-4,-5,-6,-8,-3,-1,-2,-2,2021-08-07 10:50:32,800675
-2,-5,-1,6,5,2,-1,-2,2021-08-07 10:50:32,800675
1,3,-1,-7,-10,-4,-3,-1,2021-08-07 10:50:32,800675
2,3,1,2,15,7,5,2,2021-08-07 10:50:32,832686
-3,1,1,9,-6,-4,-2,-2,2021-08-07 10:50:32,832686
-5,-5,-3,-1,-7,-6,-4,-1,2021-08-07 10:50:32,832686
3,5,3,4,4,3,2,3,2021-08-07 10:50:32,832686
1,1,2,3,13,5,3,0,2021-08-07 10:50:32,832686
-2,-3,-1,-2,-4,-1,-4,-2,2021-08-07 10:50:32,832686
-3,-2,-3,-8,-6,-3,-2,-3,2021-08-07 10:50:32,832686
-4,-7,-5,1,-6,-3,-2,-4,2021-08-07 10:50:32,832686
2,2,0,-8,-18,-9,-1,2,2021-08-07 10:50:32,833687
2,1,1,3,20,11,6,2,2021-08-07 10:50:32,833687
-2,-1,-1,0,-5,-5,-2,-3,2021-08-07 10:50:32,848686
-5,-5,-5,-3,1,0,-3,-3,2021-08-07 10:50:32,848686
1,3,4,7,5,1,0,1,2021-08-07 10:50:32,848686
-1,-2,0,-7,-9,-5,-2,-1,2021-08-07 10:50:32,848686
0,0,0,4,-3,1,1,1,2021-08-07 10:50:32,896675
1,1,1,5,14,6,1,0,2021-08-07 10:50:32,896675
-1,-2,0,2,-3,-1,-1,0,2021-08-07 10:50:32,896675
-1,-1,-1,-3,-8,-4,-2,0,2021-08-07 10:50:32,896675
0,-2,-3,-5,-3,0,-1,-2,2021-08-07 10:50:32,896675
-2,-4,-6,-8,-9,-6,-1,-2,2021-08-07 10:50:32,896675
0,-1,-2,3,9,4,0,-1,2021-08-07 10:50:32,896675
-4,-5,-7,-15,-16,-10,-6,-4,2021-08-07 10:50:32,896675
2,3,7,25,16,12,4,3,2021-08-07 10:50:32,912678
5,3,6,10,11,5,4,3,2021-08-07 10:50:32,927677
-2,-2,-4,-4,0,0,0,-1,2021-08-07 10:50:32,943647
1,0,2,12,9,3,1,0,2021-08-07 10:50:32,943647
-5,-3,-4,-13,-15,-11,-7,-4,2021-08-07 10:50:32,943647
-1,-2,-5,-13,-12,-5,-3,0,2021-08-07 10:50:32,943647
0,1,0,1,-3,-3,-3,-2,2021-08-07 10:50:32,943647
1,1,-2,-1,1,2,0,-1,2021-08-07 10:50:32,944650
-1,-2,-2,-4,-1,-3,0,-1,2021-08-07 10:50:32,959654
-4,-2,-1,0,-2,0,-1,-3,2021-08-07 10:50:32,959654
-4,-5,-3,7,10,3,0,-1,2021-08-07 10:50:32,959654
0,2,1,-7,-4,-2,-1,0,2021-08-07 10:50:32,959654
3,2,3,-3,1,-1,1,1,2021-08-07 10:50:32,975650
-2,-3,-3,-3,-2,-3,-3,-3,2021-08-07 10:50:32,975650
-2,-3,-1,-7,-11,-4,-2,-2,2021-08-07 10:50:32,975650
-1,0,1,9,-2,-1,-2,-1,2021-08-07 10:50:32,975650
1,3,2,2,13,6,3,3,2021-08-07 10:50:32,987687
-1,0,-1,2,-7,-2,0,1,2021-08-07 10:50:32,987687
0,-1,0,1,10,5,2,-1,2021-08-07 10:50:32,987687
-2,-3,-1,4,0,-3,-2,-1,2021-08-07 10:50:32,988648
-2,-1,-4,-11,-14,-5,-3,-4,2021-08-07 10:50:33,023688
-1,-2,-4,-10,-6,-4,-2,-2,2021-08-07 10:50:33,023688
-1,-1,0,0,-8,-5,-4,-1,2021-08-07 10:50:33,023688
-2,-3,-5,-5,3,-1,0,-2,2021-08-07 10:50:33,023688
0,0,2,7,11,3,1,1,2021-08-07 10:50:33,023688
-2,-3,-3,-2,-12,-7,-4,-2,2021-08-07 10:50:33,023688
0,1,1,3,11,6,1,1,2021-08-07 10:50:33,039651
0,-3,-4,-10,-6,-3,-2,-1,2021-08-07 10:50:33,055651
-2,-2,-1,2,-13,-7,-2,0,2021-08-07 10:50:33,055651
3,5,8,17,33,15,6,3,2021-08-07 10:50:33,055651
0,-1,1,4,-6,-4,-1,-3,2021-08-07 10:50:33,055651
-1,-3,-6,-9,-8,-3,-3,-3,2021-08-07 10:50:33,055651
-1,-2,-3,-6,-2,-1,-3,-1,2021-08-07 10:50:33,103676
-1,-2,-5,-6,-7,-2,-2,-2,2021-08-07 10:50:33,103676
-1,1,-1,-8,-11,-6,-3,0,2021-08-07 10:50:33,103676
4,4,8,25,26,11,6,2,2021-08-07 10:50:33,103676
-3,-6,-7,-8,-17,-7,-3,-3,2021-08-07 10:50:33,103676
1,0,0,-5,-2,1,0,0,2021-08-07 10:50:33,103676
-1,1,2,8,9,2,-1,-1,2021-08-07 10:50:33,103676
-2,-1,-4,-10,-12,-8,-2,-3,2021-08-07 10:50:33,103676
0,-1,-1,1,3,0,0,1,2021-08-07 10:50:33,119653
-3,-2,-2,-7,-13,-7,-2,-1,2021-08-07 10:50:33,119653
4,2,7,24,28,11,4,3,2021-08-07 10:50:33,119653
-3,-2,-3,-6,-11,-6,-3,0,2021-08-07 10:50:33,119653
-2,-4,-6,-15,-20,-9,-4,-3,2021-08-07 10:50:33,135682
2,5,7,19,21,8,4,4,2021-08-07 10:50:33,135682
-2,-3,-6,-12,-16,-7,-4,-3,2021-08-07 10:50:33,135682
3,1,4,17,21,8,5,3,2021-08-07 10:50:33,135682
0,2,0,6,1,-1,0,-1,2021-08-07 10:50:33,151651
-4,-5,-8,-18,-18,-10,-7,-5,2021-08-07 10:50:33,151651
1,-1,1,1,-8,0,2,1,2021-08-07 10:50:33,151651
0,-1,1,13,24,8,1,1,2021-08-07 10:50:33,151651
0,1,0,-5,1,1,-1,-1,2021-08-07 10:50:33,182687
0,-2,-3,-5,-5,-5,-1,-3,2021-08-07 10:50:33,182687
-3,-4,-5,-10,-12,-7,-3,-4,2021-08-07 10:50:33,182687
-4,-6,-11,-27,-19,-5,-4,-3,2021-08-07 10:50:33,182687
3,3,6,19,20,9,4,2,2021-08-07 10:50:33,197678
-2,-1,-1,-2,-3,-1,-1,-1,2021-08-07 10:50:33,197678
2,0,2,5,6,2,1,1,2021-08-07 10:50:33,213652
-2,-3,-4,-9,-22,-8,-3,-3,2021-08-07 10:50:33,213652
-2,-3,-4,-13,-9,-5,-2,-1,2021-08-07 10:50:33,213652
-1,-1,3,19,25,10,0,0,2021-08-07 10:50:33,213652
-2,-2,-2,-11,-10,-5,-2,0,2021-08-07 10:50:33,213652
1,3,5,9,-6,-3,0,0,2021-08-07 10:50:33,214653
-2,-3,-4,-7,-3,-5,-3,-2,2021-08-07 10:50:33,229688
0,-1,2,8,17,5,2,0,2021-08-07 10:50:33,229688
-1,-3,-2,-4,-5,-2,0,-3,2021-08-07 10:50:33,229688
2,2,3,7,8,3,1,1,2021-08-07 10:50:33,229688
-2,0,-3,-7,-14,-5,-3,-1,2021-08-07 10:50:33,261651
-3,-4,-7,-20,-31,-12,-4,-2,2021-08-07 10:50:33,261651
1,2,3,20,40,15,4,2,2021-08-07 10:50:33,261651
-4,-3,-3,-11,-13,-7,-2,-3,2021-08-07 10:50:33,261651
1,1,1,11,5,2,1,-1,2021-08-07 10:50:33,261651
4,6,5,-2,1,1,2,1,2021-08-07 10:50:33,261651
1,-1,-4,-6,-7,-3,0,-1,2021-08-07 10:50:33,277698
-3,-2,-1,4,-2,-3,-4,-2,2021-08-07 10:50:33,277698
0,-1,2,10,23,9,3,1,2021-08-07 10:50:33,293649
-2,-2,-1,-5,-9,-5,-2,-2,2021-08-07 10:50:33,309687
-3,-1,-3,-8,-8,-5,-3,-1,2021-08-07 10:50:33,309687
0,-1,2,5,4,2,1,1,2021-08-07 10:50:33,309687
-2,-2,-4,-8,-10,-6,-2,-4,2021-08-07 10:50:33,309687
-3,-1,-3,-3,-10,-5,-3,-2,2021-08-07 10:50:33,309687
-5,-4,-6,-10,-9,-5,-4,-3,2021-08-07 10:50:33,309687
2,0,-2,-4,4,4,2,3,2021-08-07 10:50:33,309687
2,1,1,-2,-8,-2,-1,-1,2021-08-07 10:50:33,325676
2,3,5,22,37,13,4,1,2021-08-07 10:50:33,341687
-1,-4,-4,-5,-14,-9,-4,-2,2021-08-07 10:50:33,373687
-3,-2,-5,-8,-9,-5,-3,-2,2021-08-07 10:50:33,373687
-3,-3,-3,-5,-7,-2,-2,-1,2021-08-07 10:50:33,373687
-2,-2,-7,-10,-18,-4,-4,-3,2021-08-07 10:50:33,373687
4,3,6,14,25,8,2,2,2021-08-07 10:50:33,373687
0,2,2,0,-1,-2,-1,0,2021-08-07 10:50:33,373687
-3,-5,-5,-8,-7,-2,-4,-3,2021-08-07 10:50:33,373687
-3,-5,-7,-12,-16,-8,-4,-4,2021-08-07 10:50:33,374690
0,2,1,6,5,1,0,0,2021-08-07 10:50:33,374690
2,3,5,7,8,7,5,1,2021-08-07 10:50:33,374690
0,0,-1,-4,-3,-3,-3,-1,2021-08-07 10:50:33,389649
-4,-5,-4,-5,-4,-4,-1,-1,2021-08-07 10:50:33,389649
-6,-7,-7,-17,-22,-10,-5,-3,2021-08-07 10:50:33,405649
2,2,3,5,8,2,1,1,2021-08-07 10:50:33,405649
-2,0,2,7,7,2,1,0,2021-08-07 10:50:33,405649
4,1,3,6,9,3,0,1,2021-08-07 10:50:33,405649
-3,-1,-3,-11,-17,-7,-4,-2,2021-08-07 10:50:33,418676
-2,-3,-5,-6,-4,-2,-3,-2,2021-08-07 10:50:33,418676
0,0,1,2,10,5,1,1,2021-08-07 10:50:33,437686
-4,-1,-1,0,-4,-4,-3,-2,2021-08-07 10:50:33,437686
3,5,3,7,4,1,1,2,2021-08-07 10:50:33,437686
-2,-1,-5,-9,-5,-5,-2,-1,2021-08-07 10:50:33,437686
1,-1,-6,-10,-14,-6,-1,2,2021-08-07 10:50:33,453686
0,-4,-4,1,5,0,1,-1,2021-08-07 10:50:33,453686
-2,-4,-3,-6,-3,0,0,-2,2021-08-07 10:50:33,453686
-2,0,2,5,-4,2,-3,-4,2021-08-07 10:50:33,453686
-1,4,7,14,22,6,2,-2,2021-08-07 10:50:33,484698
0,2,4,2,-4,-1,-3,-2,2021-08-07 10:50:33,500686
-2,-1,-3,-6,-11,-5,-3,-2,2021-08-07 10:50:33,500686
0,-2,-4,-20,-24,-9,-4,-1,2021-08-07 10:50:33,500686
-1,-1,0,2,9,3,1,-1,2021-08-07 10:50:33,500686
4,6,5,12,7,4,3,3,2021-08-07 10:50:33,500686
0,-2,1,3,9,1,1,0,2021-08-07 10:50:33,500686
-2,-3,-4,-5,-7,-2,-2,-1,2021-08-07 10:50:33,501649
-4,-4,-3,0,10,1,1,-1,2021-08-07 10:50:33,501649
2,2,4,-1,-1,1,1,1,2021-08-07 10:50:33,501649
-2,-1,-2,0,-9,-3,-2,0,2021-08-07 10:50:33,532680
1,2,1,1,15,2,2,1,2021-08-07 10:50:33,532680
-2,-1,-2,-14,-17,-6,-6,-1,2021-08-07 10:50:33,532680
-6,-5,2,-4,-1,-3,-3,-4,2021-08-07 10:50:33,532680
0,1,1,13,7,4,2,-1,2021-08-07 10:50:33,532680
1,-4,-5,-4,-1,-1,-1,0,2021-08-07 10:50:33,532680
0,-1,1,7,7,2,0,-1,2021-08-07 10:50:33,564676
-5,-4,-6,-11,-21,-8,-3,-4,2021-08-07 10:50:33,564676
1,1,-1,-14,8,2,1,2,2021-08-07 10:50:33,564676
-3,-2,0,10,5,-1,-2,-4,2021-08-07 10:50:33,564676
2,3,4,13,16,7,4,2,2021-08-07 10:50:33,564676
2,0,-1,-6,-10,-3,-1,-1,2021-08-07 10:50:33,564676
-2,-2,-1,-5,-8,-3,-1,-1,2021-08-07 10:50:33,595675
-2,-3,-3,-5,-10,-5,-2,-2,2021-08-07 10:50:33,595675
-1,0,-3,-12,-18,-7,-4,-1,2021-08-07 10:50:33,595675
0,0,1,13,21,8,3,1,2021-08-07 10:50:33,595675
0,-1,-1,5,6,5,2,0,2021-08-07 10:50:33,595675
-3,0,-2,-3,5,-1,0,0,2021-08-07 10:50:33,595675
1,2,1,4,-8,-4,-1,-2,2021-08-07 10:50:33,626652
-2,-2,-6,-11,-13,-7,-2,-2,2021-08-07 10:50:33,642651
2,-2,2,4,7,1,-2,-3,2021-08-07 10:50:33,642651
-2,-5,-3,-6,-17,-9,-4,-3,2021-08-07 10:50:33,642651
1,1,4,13,29,15,3,1,2021-08-07 10:50:33,642651
2,3,4,10,11,4,1,2,2021-08-07 10:50:33,642651
-4,-2,-1,0,-1,-1,-2,-3,2021-08-07 10:50:33,642651
-1,-2,-3,-8,-8,-5,0,-1,2021-08-07 10:50:33,642651
-7,-12,-15,-33,-44,-22,-10,-8,2021-08-07 10:50:33,658689
-3,-3,-4,1,15,6,-1,-2,2021-08-07 10:50:33,658689
7,9,13,26,27,11,6,4,2021-08-07 10:50:33,658689
-3,-1,-1,-5,-9,-4,-2,-1,2021-08-07 10:50:33,658689
-1,-2,0,1,5,2,1,0,2021-08-07 10:50:33,674686
-2,-1,0,2,0,0,0,-1,2021-08-07 10:50:33,674686
-2,-3,-4,-12,-15,-7,-2,0,2021-08-07 10:50:33,674686
-2,-2,-1,4,6,3,1,-2,2021-08-07 10:50:33,674686
-1,-1,-4,-9,-13,-7,-1,-3,2021-08-07 10:50:33,706690
-1,-3,-4,-11,-12,-5,-3,-1,2021-08-07 10:50:33,706690
1,3,5,12,17,5,1,2,2021-08-07 10:50:33,722649
-1,1,5,-6,-2,1,0,-1,2021-08-07 10:50:33,738652
0,-1,-1,13,9,6,2,2,2021-08-07 10:50:33,754688
-2,-3,-8,-14,-18,-9,-3,-3,2021-08-07 10:50:33,754688
-2,-1,0,6,-1,-2,0,-1,2021-08-07 10:50:33,754688
0,2,4,12,15,6,3,0,2021-08-07 10:50:33,754688
0,1,7,8,10,3,1,0,2021-08-07 10:50:33,754688
1,1,-1,-16,-11,-4,-1,0,2021-08-07 10:50:33,754688
-2,-2,-5,1,-8,-4,-3,-2,2021-08-07 10:50:33,754688
0,-1,2,2,4,0,-1,1,2021-08-07 10:50:33,754688
0,0,-4,-9,-9,-2,0,-1,2021-08-07 10:50:33,755651
-2,-3,-2,3,-2,-5,-1,-1,2021-08-07 10:50:33,770657
-2,-4,-5,-18,-8,-4,-2,-2,2021-08-07 10:50:33,770657
0,-1,0,7,7,4,-1,0,2021-08-07 10:50:33,770657
-2,-1,-1,-3,-7,-4,-1,-2,2021-08-07 10:50:33,770657
3,4,5,8,7,5,2,3,2021-08-07 10:50:33,770657
-4,-3,-5,-8,-8,-6,-3,-3,2021-08-07 10:50:33,770657
1,1,-3,0,-3,-1,2,1,2021-08-07 10:50:33,771651
4,3,4,9,12,2,2,4,2021-08-07 10:50:33,802686
-2,0,-3,-7,-10,-3,-3,-3,2021-08-07 10:50:33,802686
-3,-2,0,2,-2,0,-2,-2,2021-08-07 10:50:33,802686
-1,-1,-4,-4,-2,-1,-2,0,2021-08-07 10:50:33,802686
-2,-3,-2,-3,-9,-6,-3,-3,2021-08-07 10:50:33,818679
1,-1,3,11,14,5,1,1,2021-08-07 10:50:33,834688
-1,-4,-5,-11,-20,-7,-3,-2,2021-08-07 10:50:33,843689
0,-3,-4,-8,1,2,0,0,2021-08-07 10:50:33,843689
-1,-2,-2,6,8,2,0,0,2021-08-07 10:50:33,843689
-1,-2,-2,-4,-6,-3,-3,-2,2021-08-07 10:50:33,843689
-1,1,0,-2,-1,-2,-1,-3,2021-08-07 10:50:33,843689
2,6,4,3,-1,0,0,0,2021-08-07 10:50:33,843689
1,2,1,-3,-6,-3,-1,-1,2021-08-07 10:50:33,866697
-4,-3,-3,-8,-15,-5,-2,-2,2021-08-07 10:50:33,866697
1,1,2,9,25,9,2,0,2021-08-07 10:50:33,866697
-2,-2,1,13,13,3,2,0,2021-08-07 10:50:33,866697
-2,-4,-9,-11,-11,-4,-2,-2,2021-08-07 10:50:33,882689
-4,-6,-7,-10,-12,-7,-3,-3,2021-08-07 10:50:33,882689
2,2,3,-2,-2,1,-2,1,2021-08-07 10:50:33,882689
1,0,2,5,4,3,1,-1,2021-08-07 10:50:33,882689
1,0,2,-4,1,1,0,-1,2021-08-07 10:50:33,898651
0,0,0,2,1,0,0,1,2021-08-07 10:50:33,914689
-1,-1,-2,0,-6,-2,0,0,2021-08-07 10:50:33,914689
-2,-2,0,3,5,2,0,0,2021-08-07 10:50:33,914689
-3,0,-3,-8,-12,-7,-4,-1,2021-08-07 10:50:33,914689
1,1,2,7,22,8,3,0,2021-08-07 10:50:33,914689
-1,-1,-2,-4,-9,-3,0,-1,2021-08-07 10:50:33,914689
-4,-4,-5,-8,-9,-7,-5,-4,2021-08-07 10:50:33,914689
-2,-1,1,8,6,2,0,-2,2021-08-07 10:50:33,946688
-2,-3,1,2,2,-1,-1,-1,2021-08-07 10:50:33,946688
2,-1,-7,-18,-11,-5,-2,1,2021-08-07 10:50:33,946688
-2,-2,-3,-6,-1,0,0,-2,2021-08-07 10:50:33,946688
0,0,5,11,7,2,-1,-2,2021-08-07 10:50:33,946688
1,2,4,5,1,1,1,-1,2021-08-07 10:50:33,946688
0,0,1,11,13,2,1,1,2021-08-07 10:50:33,946688
-2,-3,-7,-13,-23,-8,-3,-3,2021-08-07 10:50:33,947649
-2,-1,-3,-6,9,0,-1,-1,2021-08-07 10:50:33,978688
0,1,0,2,1,0,-1,1,2021-08-07 10:50:33,994650
-1,0,-1,-1,-12,-6,-3,-2,2021-08-07 10:50:33,994650
-1,-2,-2,-7,-12,-4,-1,-2,2021-08-07 10:50:33,994650
1,0,1,8,23,10,3,2,2021-08-07 10:50:34,009687
0,-4,-5,-2,-4,-3,-1,-2,2021-08-07 10:50:34,009687
-1,2,4,8,6,4,-1,-1,2021-08-07 10:50:34,009687
3,3,6,13,9,3,1,0,2021-08-07 10:50:34,009687
-3,-3,-2,-6,-20,-6,-4,-2,2021-08-07 10:50:34,009687
-2,-2,-3,0,6,1,-1,-1,2021-08-07 10:50:34,009687
-5,-4,-9,-17,-13,-6,-3,-2,2021-08-07 10:50:34,010651
0,1,0,3,-2,-1,-2,1,2021-08-07 10:50:34,010651
3,4,5,14,20,8,5,1,2021-08-07 10:50:34,041686
2,1,0,-8,-1,1,3,3,2021-08-07 10:50:34,057687
-4,-4,-3,-7,-12,-8,-5,-3,2021-08-07 10:50:34,057687
-1,-2,3,4,7,3,-2,-1,2021-08-07 10:50:34,057687
-3,-4,-7,-8,-6,-3,-4,-2,2021-08-07 10:50:34,057687
-1,0,-2,-1,-6,-3,2,-1,2021-08-07 10:50:34,057687
3,1,5,8,7,6,3,1,2021-08-07 10:50:34,057687
1,2,3,7,16,4,2,1,2021-08-07 10:50:34,057687
-1,-1,1,-1,-3,-3,-2,-2,2021-08-07 10:50:34,073687
-5,-3,-7,-14,-18,-8,-6,-4,2021-08-07 10:50:34,073687
2,-1,1,10,22,9,1,3,2021-08-07 10:50:34,073687
1,0,4,-1,-2,0,0,1,2021-08-07 10:50:34,073687
2,2,3,6,6,3,2,1,2021-08-07 10:50:34,104688
0,0,-2,-1,-7,-3,-2,-2,2021-08-07 10:50:34,120688
-5,-5,-9,-16,-13,-8,-5,-5,2021-08-07 10:50:34,136691
2,2,4,13,9,5,2,2,2021-08-07 10:50:34,136691
0,0,-3,-10,-16,-8,-1,-1,2021-08-07 10:50:34,136691
1,0,5,7,20,6,-1,1,2021-08-07 10:50:34,136691
0,4,7,10,7,3,2,-1,2021-08-07 10:50:34,136691
0,-3,-1,3,7,2,0,-1,2021-08-07 10:50:34,136691
-3,-5,-10,-15,-21,-9,-2,-3,2021-08-07 10:50:34,137686
-4,-5,-9,-17,-11,-5,-5,-2,2021-08-07 10:50:34,137686
-4,-3,-2,-7,-10,-4,-4,-3,2021-08-07 10:50:34,137686
-3,-2,-8,-10,-12,-6,-2,-1,2021-08-07 10:50:34,137686
4,7,11,12,10,9,3,3,2021-08-07 10:50:34,152687
6,5,10,21,19,10,4,3,2021-08-07 10:50:34,152687
1,0,3,10,8,1,3,0,2021-08-07 10:50:34,152687
-6,-5,-8,-13,-20,-11,-6,-6,2021-08-07 10:50:34,152687
-3,-3,-3,-2,3,-1,-2,-2,2021-08-07 10:50:34,184650
-1,0,2,8,4,1,-1,-1,2021-08-07 10:50:34,184650
3,2,1,-5,-6,3,1,1,2021-08-07 10:50:34,199700
1,1,0,3,15,3,3,0,2021-08-07 10:50:34,199700
-8,-11,-14,-27,-26,-16,-8,-6,2021-08-07 10:50:34,199700
-1,-1,-1,2,-4,-5,-3,-3,2021-08-07 10:50:34,199700
0,-2,1,6,0,-2,1,1,2021-08-07 10:50:34,199700
-3,-3,-2,0,-2,0,0,-2,2021-08-07 10:50:34,199700
0,-1,2,3,6,3,-1,-1,2021-08-07 10:50:34,215676
5,9,5,-6,-12,0,0,4,2021-08-07 10:50:34,215676
-1,-3,-1,0,9,-1,-2,-3,2021-08-07 10:50:34,215676
0,1,7,-7,-12,-4,-3,-1,2021-08-07 10:50:34,215676
1,1,4,31,40,13,2,-1,2021-08-07 10:50:34,247650
-5,-6,-7,-8,-14,-7,-4,-4,2021-08-07 10:50:34,263647
-2,-2,-7,-6,-4,-3,-4,-3,2021-08-07 10:50:34,263647
1,1,-2,-4,-7,-2,1,1,2021-08-07 10:50:34,263647
2,0,2,-7,-8,-5,0,1,2021-08-07 10:50:34,263647
-2,-5,-3,-5,-3,-3,0,0,2021-08-07 10:50:34,263647
-1,-1,-8,-6,2,4,0,1,2021-08-07 10:50:34,263647
-5,-3,-2,0,-4,-4,-3,-3,2021-08-07 10:50:34,263647
-4,-1,-4,-6,-14,-5,0,-2,2021-08-07 10:50:34,277686
-7,-8,-11,-17,-7,-7,-6,-6,2021-08-07 10:50:34,277686
1,1,5,7,2,1,-2,-1,2021-08-07 10:50:34,277686
2,2,-2,0,2,2,-1,1,2021-08-07 10:50:34,278682
2,4,4,9,4,2,0,3,2021-08-07 10:50:34,295698
-1,1,3,3,0,1,0,1,2021-08-07 10:50:34,295698
-3,-4,-3,-7,-7,-4,-1,-1,2021-08-07 10:50:34,295698
5,3,2,7,11,7,5,4,2021-08-07 10:50:34,295698
-3,-4,-3,-10,-18,-8,-3,-4,2021-08-07 10:50:34,311687
2,0,1,7,6,4,2,1,2021-08-07 10:50:34,311687
-1,0,-3,-7,-9,-3,-2,-1,2021-08-07 10:50:34,311687
-4,-4,-8,-17,-19,-9,-5,-3,2021-08-07 10:50:34,311687
3,3,6,19,35,13,4,4,2021-08-07 10:50:34,327651
-1,0,-1,3,1,-1,-1,0,2021-08-07 10:50:34,327651
-3,-2,-3,-13,-29,-15,-6,-4,2021-08-07 10:50:34,327651
0,0,2,15,22,12,3,-1,2021-08-07 10:50:34,327651
-1,-2,-6,-17,-18,-6,-3,-2,2021-08-07 10:50:34,358691
2,4,5,16,28,10,3,2,2021-08-07 10:50:34,373696
-2,-2,-8,-9,-6,-4,-1,-1,2021-08-07 10:50:34,373696
-5,-6,-8,-18,-19,-11,-5,-2,2021-08-07 10:50:34,373696
0,1,5,2,-3,1,-1,-1,2021-08-07 10:50:34,373696
-1,1,2,5,7,4,1,0,2021-08-07 10:50:34,373696
1,0,5,2,0,1,0,-2,2021-08-07 10:50:34,373696
-1,-2,-1,1,-6,-4,-1,-2,2021-08-07 10:50:34,373696
2,2,1,12,9,2,0,1,2021-08-07 10:50:34,404687
-1,-2,-2,-13,-10,-3,-1,-1,2021-08-07 10:50:34,404687
-3,-3,-1,5,7,0,-1,-2,2021-08-07 10:50:34,404687
-3,-4,-6,-12,-20,-9,-6,-3,2021-08-07 10:50:34,404687
0,1,0,2,5,4,1,1,2021-08-07 10:50:34,436687
7,5,9,25,37,15,7,4,2021-08-07 10:50:34,436687
-3,-4,-7,-9,-12,-8,-3,-3,2021-08-07 10:50:34,436687
0,0,4,-2,1,-2,0,-3,2021-08-07 10:50:34,436687
-6,-9,-18,-23,-37,-17,-9,-4,2021-08-07 10:50:34,436687
1,2,5,18,24,11,3,1,2021-08-07 10:50:34,436687
2,3,5,12,9,7,3,2,2021-08-07 10:50:34,436687
1,2,2,0,2,1,0,3,2021-08-07 10:50:34,437688
-4,-7,-9,-20,-22,-11,-4,-5,2021-08-07 10:50:34,452687
-2,-3,-5,-10,-22,-10,-2,-1,2021-08-07 10:50:34,468686
2,-2,3,22,28,10,3,3,2021-08-07 10:50:34,484686
2,5,5,7,3,3,2,2,2021-08-07 10:50:34,484686
0,1,3,0,1,0,1,0,2021-08-07 10:50:34,484686
-1,2,-1,-4,-12,-6,-3,-2,2021-08-07 10:50:34,484686
-1,-3,-4,-17,-16,-6,-3,-3,2021-08-07 10:50:34,484686
-3,-1,-2,2,4,-1,-3,-1,2021-08-07 10:50:34,484686
-4,-3,-2,-1,7,2,0,-1,2021-08-07 10:50:34,485687
-4,-6,-8,-14,-26,-12,-5,-4,2021-08-07 10:50:34,485687
1,2,5,6,12,6,2,2,2021-08-07 10:50:34,500647
3,5,3,16,18,6,1,2,2021-08-07 10:50:34,500647
-1,-3,-3,0,7,3,1,0,2021-08-07 10:50:34,516686
1,3,8,17,14,6,4,0,2021-08-07 10:50:34,516686
5,2,-2,-4,-5,-1,2,2,2021-08-07 10:50:34,516686
-7,-7,-10,-11,-12,-9,-5,-4,2021-08-07 10:50:34,516686
0,1,1,7,-1,-2,-2,0,2021-08-07 10:50:34,547689
1,0,0,-11,-7,-1,-1,1,2021-08-07 10:50:34,547689
0,1,1,-1,4,3,-1,0,2021-08-07 10:50:34,547689
-3,-4,-4,-2,-10,-4,-3,-2,2021-08-07 10:50:34,547689
-1,-1,-2,-7,-8,-5,-3,-1,2021-08-07 10:50:34,547689
0,-1,2,4,4,0,-1,-2,2021-08-07 10:50:34,547689
-2,0,-2,-5,-9,-5,-2,-1,2021-08-07 10:50:34,563686
0,-1,3,-1,3,4,0,-2,2021-08-07 10:50:34,579676
-2,-1,-2,-1,1,-3,-1,-1,2021-08-07 10:50:34,595672
-4,-4,-9,-11,-14,-11,-5,-4,2021-08-07 10:50:34,595672
2,4,5,13,23,10,5,3,2021-08-07 10:50:34,595672
2,-2,-2,0,6,3,0,1,2021-08-07 10:50:34,595672
3,2,5,3,4,3,1,0,2021-08-07 10:50:34,595672
-6,-5,-7,-16,-22,-10,-7,-5,2021-08-07 10:50:34,595672
1,0,-1,-3,-9,-6,-3,-1,2021-08-07 10:50:34,596687
-2,-3,-2,-2,-1,-1,0,-2,2021-08-07 10:50:34,596687
2,2,7,6,14,6,3,2,2021-08-07 10:50:34,627649
-1,1,-3,0,-2,-1,0,-1,2021-08-07 10:50:34,627649
-3,-5,-4,-4,-4,-4,-2,-3,2021-08-07 10:50:34,627649
-2,-4,-2,5,3,-1,-2,-2,2021-08-07 10:50:34,627649
0,2,-2,-7,-13,-6,-3,-2,2021-08-07 10:50:34,627649
0,-1,0,2,11,4,1,0,2021-08-07 10:50:34,627649
-1,-2,0,5,3,1,-1,0,2021-08-07 10:50:34,627649
2,5,5,4,5,3,2,1,2021-08-07 10:50:34,627649
-5,-4,-6,-6,-16,-7,-5,-5,2021-08-07 10:50:34,658687
-5,-5,-4,-15,-15,-7,-4,-2,2021-08-07 10:50:34,658687
-1,1,0,9,8,3,-2,-1,2021-08-07 10:50:34,674686
3,0,0,5,16,5,2,1,2021-08-07 10:50:34,690650
0,0,1,-1,-7,-2,-2,0,2021-08-07 10:50:34,690650
-1,-2,-2,-4,-9,-5,-3,-3,2021-08-07 10:50:34,690650
-5,-3,-2,-9,-7,-6,-3,-4,2021-08-07 10:50:34,690650
-1,-3,-4,-12,-13,-6,-3,-1,2021-08-07 10:50:34,690650
0,0,3,12,19,9,3,2,2021-08-07 10:50:34,691698
2,5,4,4,2,1,-1,-1,2021-08-07 10:50:34,691698
1,-1,-5,-12,-16,-6,-1,-1,2021-08-07 10:50:34,706687
-1,-2,1,9,18,6,1,-2,2021-08-07 10:50:34,706687
1,2,0,0,-3,0,1,0,2021-08-07 10:50:34,713687
0,-2,0,3,11,3,0,0,2021-08-07 10:50:34,713687
-2,-4,-6,-17,-17,-7,-3,-2,2021-08-07 10:50:34,713687
0,2,3,14,14,5,1,-1,2021-08-07 10:50:34,713687
-4,-3,-2,0,-1,-2,-3,-4,2021-08-07 10:50:34,738651
1,1,0,-2,-6,-5,0,0,2021-08-07 10:50:34,738651
0,-1,-4,-13,-23,-7,-2,-1,2021-08-07 10:50:34,738651
0,0,-2,1,15,7,1,2,2021-08-07 10:50:34,738651
0,-2,-2,7,9,3,1,0,2021-08-07 10:50:34,754686
-3,-1,-4,-8,-14,-6,-4,0,2021-08-07 10:50:34,754686
-3,-2,-1,-1,0,-4,-3,-2,2021-08-07 10:50:34,754686
-1,1,2,-1,3,-1,0,-1,2021-08-07 10:50:34,769686
3,6,5,9,15,7,5,5,2021-08-07 10:50:34,785678
1,2,1,6,-1,2,1,0,2021-08-07 10:50:34,785678
-3,-6,-6,-2,-3,-3,-2,-2,2021-08-07 10:50:34,785678
0,0,-2,-15,-24,-8,-3,0,2021-08-07 10:50:34,785678
-3,-4,-8,-14,-7,-7,-5,-2,2021-08-07 10:50:34,801651
-3,-5,-3,1,6,3,-1,-2,2021-08-07 10:50:34,801651
-1,1,2,10,7,3,1,0,2021-08-07 10:50:34,801651
-4,-4,-7,-11,-15,-5,-3,-4,2021-08-07 10:50:34,801651
0,0,4,17,22,6,3,1,2021-08-07 10:50:34,817647
2,-2,-1,-3,-6,-2,-2,-1,2021-08-07 10:50:34,817647
-3,-1,-2,-7,-6,-3,-2,-3,2021-08-07 10:50:34,817647
2,3,7,13,7,5,2,2,2021-08-07 10:50:34,817647
0,-1,-1,0,-2,2,2,2,2021-08-07 10:50:34,848686
-5,-5,-7,-14,-18,-9,-5,-3,2021-08-07 10:50:34,864686
2,4,6,12,29,14,5,4,2021-08-07 10:50:34,879653
0,3,2,7,-2,-1,1,1,2021-08-07 10:50:34,879653
2,1,2,3,-7,-4,-2,-2,2021-08-07 10:50:34,879653
-4,-5,-3,-7,0,-3,-3,-2,2021-08-07 10:50:34,879653
-1,-2,-1,0,-7,-3,-2,-1,2021-08-07 10:50:34,879653
1,1,-2,-3,-7,-2,0,-1,2021-08-07 10:50:34,879653
0,-1,-2,-8,-5,-3,-3,-3,2021-08-07 10:50:34,879653
-1,0,-4,-2,2,0,0,0,2021-08-07 10:50:34,879653
-2,-1,-4,-10,-6,-4,-1,-2,2021-08-07 10:50:34,879653
-6,-6,-7,-11,-15,-8,-5,-5,2021-08-07 10:50:34,879653
1,0,1,-3,-4,1,0,0,2021-08-07 10:50:34,895646
5,5,6,16,24,9,4,2,2021-08-07 10:50:34,895646
2,2,5,16,19,4,0,2,2021-08-07 10:50:34,911686
-3,-7,-10,-12,-14,-7,-5,-4,2021-08-07 10:50:34,911686
-7,-7,-10,-23,-36,-17,-7,-4,2021-08-07 10:50:34,927651
1,0,-2,-7,-6,0,0,0,2021-08-07 10:50:34,942699
7,10,20,50,67,29,12,7,2021-08-07 10:50:34,942699
0,-3,-5,-15,-13,-7,-2,-3,2021-08-07 10:50:34,942699
1,1,0,-2,-6,-3,-1,0,2021-08-07 10:50:34,942699
-5,-6,-7,-15,-19,-10,-5,-2,2021-08-07 10:50:34,942699
-1,-4,-5,-10,-12,-4,-3,-2,2021-08-07 10:50:34,942699
1,1,2,7,10,3,1,2,2021-08-07 10:50:34,942699
-1,-3,-1,0,3,0,-2,-3,2021-08-07 10:50:34,958650
-2,0,2,9,5,2,0,0,2021-08-07 10:50:34,958650
-5,-6,-14,-34,-39,-18,-8,-5,2021-08-07 10:50:34,958650
2,2,3,4,15,8,3,3,2021-08-07 10:50:34,958650
5,5,9,22,31,10,1,1,2021-08-07 10:50:34,990687
0,-1,2,8,10,5,1,0,2021-08-07 10:50:34,990687
-7,-8,-6,-6,-10,-7,-5,-6,2021-08-07 10:50:34,990687
-1,-1,-5,-14,-29,-15,-4,-1,2021-08-07 10:50:34,990687
3,6,2,1,4,4,4,4,2021-08-07 10:50:34,990687
1,3,7,17,22,6,0,1,2021-08-07 10:50:34,990687
0,-1,3,-7,-12,-5,-2,-1,2021-08-07 10:50:34,990687
-2,-5,-6,4,-3,-3,-3,-3,2021-08-07 10:50:34,990687
-3,-6,-9,-26,-33,-11,-5,-3,2021-08-07 10:50:35,022650
6,5,8,26,48,16,8,4,2021-08-07 10:50:35,022650
1,1,1,9,10,5,2,-1,2021-08-07 10:50:35,022650
-1,0,2,-5,-3,0,-2,0,2021-08-07 10:50:35,022650
-4,-6,-4,-6,-14,-12,-5,-4,2021-08-07 10:50:35,038652
-4,-5,-7,-15,-20,-7,-3,-4,2021-08-07 10:50:35,054686
2,5,0,-7,-5,-2,2,2,2021-08-07 10:50:35,069647
1,2,4,4,7,0,1,-1,2021-08-07 10:50:35,084713
-3,0,0,13,12,6,1,0,2021-08-07 10:50:35,084713
-5,-7,-7,-15,-21,-8,-4,-4,2021-08-07 10:50:35,084713
2,1,1,8,9,2,-1,0,2021-08-07 10:50:35,084713
3,1,0,-6,-4,0,1,1,2021-08-07 10:50:35,084713
3,1,3,15,28,10,4,3,2021-08-07 10:50:35,084713
1,-1,-3,-8,-10,-4,-1,1,2021-08-07 10:50:35,100651
-6,-6,-9,-12,-19,-10,-3,-3,2021-08-07 10:50:35,100651
-2,1,3,7,-1,2,0,0,2021-08-07 10:50:35,100651
1,-1,4,22,47,16,5,-1,2021-08-07 10:50:35,100651
-6,-5,-7,-13,-25,-10,-6,-6,2021-08-07 10:50:35,100651
5,6,7,16,29,12,4,1,2021-08-07 10:50:35,100651
-3,-3,-1,-10,-14,-7,-5,-5,2021-08-07 10:50:35,100651
-4,-6,-6,-19,-28,-13,-6,-1,2021-08-07 10:50:35,116698
3,3,1,2,-3,-2,1,3,2021-08-07 10:50:35,132686
0,1,3,5,-8,-3,-1,-1,2021-08-07 10:50:35,132686
0,-1,-1,6,14,5,3,1,2021-08-07 10:50:35,132686
-1,-2,-2,0,1,0,-2,-1,2021-08-07 10:50:35,132686
-1,-3,-6,-7,-3,-1,-1,0,2021-08-07 10:50:35,132686
-3,-5,-7,-13,-18,-10,-6,-3,2021-08-07 10:50:35,132686
6,7,8,6,9,6,5,4,2021-08-07 10:50:35,132686
-2,-3,-5,-10,-15,-4,-3,-2,2021-08-07 10:50:35,163678
2,1,2,7,10,1,1,1,2021-08-07 10:50:35,179688
-2,-4,-8,-10,-12,-5,-2,-3,2021-08-07 10:50:35,179688
-3,-4,0,7,2,0,-1,-2,2021-08-07 10:50:35,179688
-1,0,1,-2,-2,-3,-2,-2,2021-08-07 10:50:35,211687
1,1,4,9,5,1,0,0,2021-08-07 10:50:35,227686
3,4,4,6,7,6,2,2,2021-08-07 10:50:35,227686
-6,-7,-10,-9,-4,-6,-4,-5,2021-08-07 10:50:35,227686
-3,-1,-3,-13,-22,-11,-4,-2,2021-08-07 10:50:35,227686
1,3,3,4,11,4,1,2,2021-08-07 10:50:35,227686
-2,-4,-2,3,3,0,-1,0,2021-08-07 10:50:35,227686
-4,-4,-8,-14,-13,-7,-5,-3,2021-08-07 10:50:35,227686
0,-1,1,6,5,2,-1,-1,2021-08-07 10:50:35,227686
-4,-6,-5,-9,-10,-6,-4,-4,2021-08-07 10:50:35,227686
3,1,4,-2,-4,-1,3,2,2021-08-07 10:50:35,227686
1,4,3,4,4,2,1,3,2021-08-07 10:50:35,227686
-2,-5,-7,-10,-13,-10,-4,-4,2021-08-07 10:50:35,228689
3,4,2,-1,-1,2,1,2,2021-08-07 10:50:35,228689
-1,0,3,20,25,8,1,-1,2021-08-07 10:50:35,243686
-1,-3,-3,-9,-6,-2,-2,-2,2021-08-07 10:50:35,243686
-4,-5,-13,-29,-27,-14,-5,-2,2021-08-07 10:50:35,259650
-2,-2,1,11,12,5,1,-1,2021-08-07 10:50:35,275687
2,6,9,10,3,2,1,4,2021-08-07 10:50:35,275687
4,5,9,15,20,8,3,3,2021-08-07 10:50:35,275687
-2,-1,0,-6,-17,-5,-2,-2,2021-08-07 10:50:35,275687
-4,-4,-8,-6,5,-1,-1,-4,2021-08-07 10:50:35,275687
-2,-3,-3,-7,2,1,0,-1,2021-08-07 10:50:35,275687
0,0,0,6,8,-1,-2,0,2021-08-07 10:50:35,276649
-1,1,0,-2,-4,-3,-1,0,2021-08-07 10:50:35,291651
-3,-2,-2,-13,-31,-12,-4,-2,2021-08-07 10:50:35,291651
3,3,5,11,34,13,4,3,2021-08-07 10:50:35,307687
-5,-6,-7,-2,-9,-6,-2,-5,2021-08-07 10:50:35,307687
4,3,4,11,14,6,4,3,2021-08-07 10:50:35,323686
2,2,7,17,11,4,2,2,2021-08-07 10:50:35,323686
-5,-4,-12,-28,-42,-15,-7,-7,2021-08-07 10:50:35,323686
-1,-3,-2,3,12,5,-1,0,2021-08-07 10:50:35,323686
0,-2,-2,-1,10,5,-1,-2,2021-08-07 10:50:35,339688
2,4,3,2,-1,1,0,1,2021-08-07 10:50:35,354649
0,-1,-1,-3,-12,-6,-2,0,2021-08-07 10:50:35,370684
-4,-1,-3,-7,-15,-7,-4,-4,2021-08-07 10:50:35,370684
-2,0,-3,-4,-8,-2,-2,-2,2021-08-07 10:50:35,370684
-4,-5,-7,-4,6,1,-4,-3,2021-08-07 10:50:35,370684
0,-1,0,2,-1,-1,-1,-1,2021-08-07 10:50:35,370684
4,3,4,4,8,5,4,3,2021-08-07 10:50:35,370684
-3,0,-1,11,15,4,0,0,2021-08-07 10:50:35,371649
-4,-6,-9,-19,-32,-14,-6,-5,2021-08-07 10:50:35,371649
-3,-4,-7,-6,0,0,-1,-2,2021-08-07 10:50:35,371649
-1,-1,-3,-18,-30,-13,-5,-2,2021-08-07 10:50:35,371649
5,4,13,35,41,19,5,4,2021-08-07 10:50:35,401651
0,0,-3,-1,-1,1,1,0,2021-08-07 10:50:35,417686
-3,-3,-4,-20,-26,-9,-4,-2,2021-08-07 10:50:35,417686
2,2,2,13,22,8,3,1,2021-08-07 10:50:35,417686
-1,-1,0,-7,-12,-5,-2,-2,2021-08-07 10:50:35,417686
-2,-2,0,5,8,2,0,-2,2021-08-07 10:50:35,417686
0,0,-1,2,-2,-3,-1,-1,2021-08-07 10:50:35,417686
-3,-3,-6,-19,-24,-9,-6,-3,2021-08-07 10:50:35,417686
1,1,2,2,11,4,3,0,2021-08-07 10:50:35,449647
0,0,0,7,7,1,0,-1,2021-08-07 10:50:35,449647
-3,-3,-4,-5,-5,-2,-2,-2,2021-08-07 10:50:35,465701
2,0,0,4,2,-2,0,0,2021-08-07 10:50:35,465701
-2,0,-8,-21,-14,-5,-1,0,2021-08-07 10:50:35,465701
-1,1,4,5,-1,-1,0,0,2021-08-07 10:50:35,465701
4,5,9,21,37,15,6,2,2021-08-07 10:50:35,465701
-6,-7,-10,-12,-16,-8,-7,-7,2021-08-07 10:50:35,465701
0,3,8,25,20,9,1,0,2021-08-07 10:50:35,465701
4,7,2,-10,-17,-6,-2,2,2021-08-07 10:50:35,466651
-3,-2,-2,3,2,-2,-3,-2,2021-08-07 10:50:35,481687
-1,0,1,8,12,5,0,-1,2021-08-07 10:50:35,481687
-3,-6,-5,-19,-27,-14,-4,-2,2021-08-07 10:50:35,497652
-3,-4,-6,-3,13,6,1,-2,2021-08-07 10:50:35,513651
0,0,1,0,-4,-1,1,1,2021-08-07 10:50:35,513651
0,0,-2,-11,-6,-4,-1,0,2021-08-07 10:50:35,513651
0,-1,2,8,0,2,-1,-2,2021-08-07 10:50:35,513651
-2,-2,0,-3,7,0,-1,-2,2021-08-07 10:50:35,513651
1,-1,-4,-9,-9,-3,-2,-2,2021-08-07 10:50:35,513651
0,1,2,11,8,5,2,-1,2021-08-07 10:50:35,514651
1,2,2,1,0,1,-2,1,2021-08-07 10:50:35,545691
-3,-3,-3,-4,-13,-5,-3,-4,2021-08-07 10:50:35,545691
-5,-6,-8,-10,-10,-6,-5,-3,2021-08-07 10:50:35,545691
1,3,5,10,17,7,3,3,2021-08-07 10:50:35,545691
-4,-3,-4,-8,-16,-7,-2,-2,2021-08-07 10:50:35,561647
3,1,2,4,12,6,1,2,2021-08-07 10:50:35,577679
-1,1,2,4,4,-2,-2,-1,2021-08-07 10:50:35,579649
-2,-2,-2,0,-10,-2,-1,-2,2021-08-07 10:50:35,580649
0,0,-2,-3,8,4,1,0,2021-08-07 10:50:35,580649
-1,-2,-2,-4,-3,-1,-1,1,2021-08-07 10:50:35,580649
-3,-3,-3,-6,-15,-5,-2,-2,2021-08-07 10:50:35,580649
-3,-3,-2,-1,1,-3,-1,-2,2021-08-07 10:50:35,580649
-4,-8,-9,-8,-8,-5,-3,-3,2021-08-07 10:50:35,609649
1,3,4,5,2,-2,0,0,2021-08-07 10:50:35,625650
3,5,7,15,10,6,3,4,2021-08-07 10:50:35,657686
-3,-4,-3,-2,-2,-1,-2,-4,2021-08-07 10:50:35,657686
1,0,-3,-6,-3,0,-2,0,2021-08-07 10:50:35,657686
-1,-4,-6,-7,-8,-2,-1,-2,2021-08-07 10:50:35,657686
-4,-5,-4,-2,0,-2,-2,-4,2021-08-07 10:50:35,657686
2,4,3,-1,2,1,2,2,2021-08-07 10:50:35,658650
1,0,4,9,14,5,3,1,2021-08-07 10:50:35,658650
0,0,-2,-4,-5,-2,-1,-2,2021-08-07 10:50:35,658650
-3,-3,-5,-10,-15,-6,-3,-3,2021-08-07 10:50:35,658650
0,0,-4,-1,4,2,-1,-1,2021-08-07 10:50:35,658650
-2,-4,-5,-13,-18,-8,-4,-3,2021-08-07 10:50:35,658650
0,2,2,13,21,8,3,1,2021-08-07 10:50:35,658650
0,-1,-4,-8,-7,-2,2,0,2021-08-07 10:50:35,659648
3,2,6,19,26,9,3,1,2021-08-07 10:50:35,659648
-2,0,-2,-5,-15,-7,-5,-1,2021-08-07 10:50:35,689650
-4,-5,-5,-6,0,-2,-2,-2,2021-08-07 10:50:35,705648
-2,-4,-2,-1,-11,-5,-2,-2,2021-08-07 10:50:35,705648
0,1,0,-3,-4,-2,-1,1,2021-08-07 10:50:35,705648
1,0,-1,2,4,2,0,1,2021-08-07 10:50:35,705648
-1,0,-2,-6,-8,-5,-3,-2,2021-08-07 10:50:35,706651
-2,-2,-3,-8,-15,-7,-4,-3,2021-08-07 10:50:35,706651
3,3,4,9,33,16,6,3,2021-08-07 10:50:35,706651
0,0,1,7,13,6,2,-2,2021-08-07 10:50:35,721651
0,1,4,3,-3,0,0,0,2021-08-07 10:50:35,721651
-3,-3,-4,-6,-6,-5,-2,-1,2021-08-07 10:50:35,721651
0,1,0,-11,-18,-11,-3,-1,2021-08-07 10:50:35,721651
-1,-3,-3,-6,-6,-1,0,-2,2021-08-07 10:50:35,736687
3,1,2,7,11,3,3,1,2021-08-07 10:50:35,736687
3,2,6,4,4,7,3,1,2021-08-07 10:50:35,736687
-2,-2,-3,10,21,5,-1,-1,2021-08-07 10:50:35,736687
1,2,0,0,0,0,-1,1,2021-08-07 10:50:35,767676
0,0,-2,-10,-17,-6,-3,-1,2021-08-07 10:50:35,767676
-4,-4,-4,-4,-6,-5,-3,-4,2021-08-07 10:50:35,767676
1,-1,0,-5,-11,-3,-1,0,2021-08-07 10:50:35,767676
3,3,5,17,18,6,1,1,2021-08-07 10:50:35,783676
0,-1,-2,-3,-2,-1,-1,3,2021-08-07 10:50:35,783676
-2,-2,-2,-1,5,1,-1,-1,2021-08-07 10:50:35,783676
-8,-7,-9,-25,-42,-15,-9,-5,2021-08-07 10:50:35,783676
0,-2,-2,11,17,5,3,0,2021-08-07 10:50:35,799674
1,2,2,5,14,6,2,0,2021-08-07 10:50:35,799674
6,6,6,9,14,5,4,4,2021-08-07 10:50:35,799674
0,-2,0,5,0,-1,2,-1,2021-08-07 10:50:35,799674
-5,-5,-10,-24,-32,-15,-7,-3,2021-08-07 10:50:35,831687
1,4,6,17,20,12,4,1,2021-08-07 10:50:35,831687
2,-1,1,3,16,3,1,-2,2021-08-07 10:50:35,831687
-3,-3,-5,-10,-17,-9,-5,-3,2021-08-07 10:50:35,847687
-2,-1,-2,-6,-12,-6,-2,-3,2021-08-07 10:50:35,863648
-6,-6,-8,-18,-19,-10,-4,-4,2021-08-07 10:50:35,878647
1,2,5,16,25,11,2,2,2021-08-07 10:50:35,878647
2,2,1,7,3,1,-1,-1,2021-08-07 10:50:35,878647
3,4,7,8,4,1,2,2,2021-08-07 10:50:35,878647
-2,-5,-8,-16,-29,-12,-6,-4,2021-08-07 10:50:35,878647
-1,-4,-5,-4,1,0,-1,-1,2021-08-07 10:50:35,878647
1,0,3,10,8,4,3,1,2021-08-07 10:50:35,878647
2,3,0,5,16,6,1,2,2021-08-07 10:50:35,878647
-4,-4,-3,-5,-11,-7,-2,-5,2021-08-07 10:50:35,878647
-2,-2,-3,-1,-1,0,-3,-1,2021-08-07 10:50:35,878647
3,3,3,-6,-5,-1,1,3,2021-08-07 10:50:35,878647
-1,1,2,7,15,4,1,1,2021-08-07 10:50:35,910651
1,0,1,3,1,-2,-1,1,2021-08-07 10:50:35,926651
-6,-5,-9,-13,-18,-6,-4,-3,2021-08-07 10:50:35,926651
0,1,-3,-8,-4,-2,0,0,2021-08-07 10:50:35,926651
0,-3,-2,-1,-4,-2,1,-1,2021-08-07 10:50:35,926651
-6,-8,-9,-5,-4,-3,-2,-2,2021-08-07 10:50:35,926651
-2,-1,3,-3,-10,-4,0,-1,2021-08-07 10:50:35,926651
-1,4,9,22,21,10,4,0,2021-08-07 10:50:35,927651
-2,-2,-5,-12,-7,-6,-2,-5,2021-08-07 10:50:35,958691
-1,2,6,17,14,1,-2,-2,2021-08-07 10:50:35,958691
-4,-4,-9,-22,-33,-15,-7,-4,2021-08-07 10:50:35,958691
1,0,3,15,17,7,2,2,2021-08-07 10:50:35,958691
-1,-1,-2,-4,4,1,-1,1,2021-08-07 10:50:35,958691
5,2,0,-1,2,1,1,3,2021-08-07 10:50:35,958691
0,2,-1,-5,-10,-5,1,0,2021-08-07 10:50:35,973677
-3,-5,-4,-3,-2,0,-1,-2,2021-08-07 10:50:35,973677
-4,-4,-5,-9,-15,-7,-4,-2,2021-08-07 10:50:35,973677
3,2,4,5,4,4,1,3,2021-08-07 10:50:35,973677
4,4,8,17,32,11,4,3,2021-08-07 10:50:35,989678
-1,-3,-7,-13,-14,-9,-3,-3,2021-08-07 10:50:35,989678
-3,-4,-2,1,-1,-3,-3,-3,2021-08-07 10:50:36,005647
-3,-4,-5,0,0,3,-1,-2,2021-08-07 10:50:36,005647
4,7,5,7,5,3,2,2,2021-08-07 10:50:36,005647
0,0,2,11,9,3,-1,-1,2021-08-07 10:50:36,005647
-2,-2,-2,-5,-8,-5,-3,-2,2021-08-07 10:50:36,020677
-1,0,0,-5,-4,0,0,0,2021-08-07 10:50:36,020677
-4,-5,-4,-3,-4,-3,-3,-4,2021-08-07 10:50:36,020677
-3,-3,-6,-11,-5,-3,-3,-2,2021-08-07 10:50:36,020677
1,4,3,5,1,2,0,2,2021-08-07 10:50:36,037680
-1,-1,-1,-2,0,-3,-2,-1,2021-08-07 10:50:36,037680
0,-4,-4,-5,-6,-3,-1,-1,2021-08-07 10:50:36,037680
1,1,1,0,11,3,1,1,2021-08-07 10:50:36,037680
-2,0,1,7,-5,0,0,-1,2021-08-07 10:50:36,069683
-6,-6,-7,-10,-6,-2,-3,-4,2021-08-07 10:50:36,069683
4,6,4,11,9,3,2,0,2021-08-07 10:50:36,069683
-3,-3,-6,-14,-29,-13,-7,-5,2021-08-07 10:50:36,069683
-1,0,0,2,5,3,2,0,2021-08-07 10:50:36,085651
3,2,2,3,1,1,2,1,2021-08-07 10:50:36,085651
-2,-2,0,1,2,2,2,-1,2021-08-07 10:50:36,085651
-3,-3,-3,-2,-3,-3,-2,-1,2021-08-07 10:50:36,085651
0,-1,-3,-6,-6,-3,-2,-1,2021-08-07 10:50:36,101651
-3,-2,-5,-9,-5,-5,-5,-3,2021-08-07 10:50:36,101651
-2,-5,-3,-5,-8,-5,-6,-3,2021-08-07 10:50:36,101651
5,4,6,11,14,10,6,3,2021-08-07 10:50:36,101651
0,-1,2,4,2,0,-2,0,2021-08-07 10:50:36,117688
1,1,1,0,-2,0,0,0,2021-08-07 10:50:36,117688
-3,-3,-3,-3,3,-1,-2,-3,2021-08-07 10:50:36,117688
-5,-5,-7,-14,-19,-9,-4,-4,2021-08-07 10:50:36,117688
1,0,2,6,18,9,2,0,2021-08-07 10:50:36,149651
2,5,4,14,19,10,4,2,2021-08-07 10:50:36,149651
1,0,-1,-4,-8,-2,-1,0,2021-08-07 10:50:36,149651
-4,-4,-4,-14,-24,-12,-5,-3,2021-08-07 10:50:36,149651
-2,0,0,-3,-4,-3,-1,-2,2021-08-07 10:50:36,149651
3,3,5,17,33,14,4,2,2021-08-07 10:50:36,149651
-2,1,-1,0,-2,-2,0,0,2021-08-07 10:50:36,165653
1,-2,-2,1,-8,-2,-2,-2,2021-08-07 10:50:36,165653
-4,-5,-7,-16,-14,-6,-3,-2,2021-08-07 10:50:36,197699
-1,-2,0,5,10,-3,-3,-2,2021-08-07 10:50:36,213652
1,0,0,-4,-7,-1,-1,1,2021-08-07 10:50:36,229688
-5,-2,-5,-6,-5,-6,-1,-2,2021-08-07 10:50:36,229688
-2,-3,-2,-6,-15,-5,-3,-2,2021-08-07 10:50:36,229688
-2,-1,-3,-10,-9,0,1,-1,2021-08-07 10:50:36,229688
-2,-2,-1,0,1,-2,-2,-1,2021-08-07 10:50:36,230650
-1,-1,-1,-9,-5,-2,-3,-1,2021-08-07 10:50:36,230650
6,7,12,35,44,17,7,2,2021-08-07 10:50:36,230650
-4,-5,-6,-9,-19,-10,-6,-4,2021-08-07 10:50:36,230650
4,5,5,5,3,6,3,3,2021-08-07 10:50:36,230650
2,1,5,10,16,4,1,-1,2021-08-07 10:50:36,230650
-3,-4,-7,-10,-21,-11,-6,-4,2021-08-07 10:50:36,245689
-1,0,0,4,3,2,-1,-1,2021-08-07 10:50:36,261689
-2,-6,-7,-13,-11,-8,-4,-3,2021-08-07 10:50:36,277647
-2,-3,-6,-9,-8,1,-2,-2,2021-08-07 10:50:36,277647
4,3,5,14,19,7,2,3,2021-08-07 10:50:36,277647
-1,-2,-4,-7,-20,-10,-4,-2,2021-08-07 10:50:36,277647
-1,-2,-3,1,1,1,-1,-1,2021-08-07 10:50:36,277647
-3,-3,-2,-6,-16,-7,-3,-2,2021-08-07 10:50:36,277647
-1,-1,-2,2,10,4,2,0,2021-08-07 10:50:36,277647
-1,-3,-3,-7,2,1,0,-1,2021-08-07 10:50:36,277647
0,1,2,9,4,0,1,0,2021-08-07 10:50:36,278651
5,4,7,17,21,8,5,4,2021-08-07 10:50:36,278651
-1,-3,-2,-7,-15,-6,-5,-3,2021-08-07 10:50:36,309688
-1,0,2,-1,-2,-2,0,0,2021-08-07 10:50:36,309688
-7,-7,-8,-7,-6,-3,-4,-1,2021-08-07 10:50:36,309688
-1,-2,-2,0,8,1,0,1,2021-08-07 10:50:36,309688
0,-1,-3,-14,-17,-9,-4,1,2021-08-07 10:50:36,325689
8,11,13,19,18,11,6,5,2021-08-07 10:50:36,325689
0,0,0,2,4,1,0,-2,2021-08-07 10:50:36,325689
-4,-5,-6,-10,-13,-7,-5,-4,2021-08-07 10:50:36,325689
-6,-9,-10,-20,-25,-11,-6,-5,2021-08-07 10:50:36,341686
1,0,0,2,18,3,1,1,2021-08-07 10:50:36,341686
2,1,2,8,12,5,2,1,2021-08-07 10:50:36,341686
-4,-3,-4,-5,-15,-6,-4,-3,2021-08-07 10:50:36,341686
-2,-2,-2,3,14,3,0,-3,2021-08-07 10:50:36,357659
0,-1,-4,-21,-35,-12,-3,-1,2021-08-07 10:50:36,357659
0,3,5,8,16,6,2,1,2021-08-07 10:50:36,357659
1,2,-1,5,1,1,0,0,2021-08-07 10:50:36,357659
0,1,1,3,4,1,1,0,2021-08-07 10:50:36,389688
-3,-3,-2,1,0,1,-1,0,2021-08-07 10:50:36,405647
-1,1,0,-2,-2,-2,-1,-1,2021-08-07 10:50:36,421648
-2,-2,-4,-13,-12,-4,-1,-2,2021-08-07 10:50:36,421648
-1,2,1,5,1,3,0,0,2021-08-07 10:50:36,421648
-3,-4,-4,-3,-3,-6,-3,-4,2021-08-07 10:50:36,421648
-3,-3,-5,-8,-15,-6,-1,-2,2021-08-07 10:50:36,421648
1,1,3,-2,1,1,0,-1,2021-08-07 10:50:36,421648
2,4,3,9,16,6,2,0,2021-08-07 10:50:36,421648
1,1,3,7,7,4,2,2,2021-08-07 10:50:36,421648
-3,-4,0,-3,-9,-5,-4,-2,2021-08-07 10:50:36,422647
-3,-3,-5,-8,-6,-4,-2,-3,2021-08-07 10:50:36,422647
