EMG 1,EMG 2,EMG 3,EMG 4,EMG 5,EMG 6,EMG 7,EMG 8,Timestamp,Milliseconds
-1,-1,-1,0,-1,0,0,0,2021-08-07 10:48:49,408767
-2,-2,-3,-4,-4,0,-1,-1,2021-08-07 10:48:49,408767
0,-1,-1,-3,-4,-1,-1,-3,2021-08-07 10:48:49,408767
-1,1,1,4,2,-2,-2,0,2021-08-07 10:48:49,408767
-2,-3,-2,-4,-5,-3,-2,-2,2021-08-07 10:48:49,408767
0,0,-1,2,1,1,1,-1,2021-08-07 10:48:49,408767
0,-2,-1,-1,1,1,-1,0,2021-08-07 10:48:49,408767
-1,-1,-3,-8,-2,0,-1,-1,2021-08-07 10:48:49,408767
0,1,1,7,3,1,0,0,2021-08-07 10:48:49,409768
-2,0,1,1,-2,-3,-1,-1,2021-08-07 10:48:49,409768
-2,-2,-3,-5,-3,-1,-1,-2,2021-08-07 10:48:49,409768
-2,-1,-1,-4,-6,-3,-2,-2,2021-08-07 10:48:49,409768
0,0,-1,-4,-1,0,-2,0,2021-08-07 10:48:49,424767
-2,-1,-2,-8,-5,-4,-1,-1,2021-08-07 10:48:49,424767
-1,1,4,15,11,3,0,1,2021-08-07 10:48:49,440765
0,-1,-1,-1,-1,1,0,-2,2021-08-07 10:48:49,456765
0,0,0,-1,-1,1,1,0,2021-08-07 10:48:49,456765
-2,-4,-3,-4,-3,-4,-3,-1,2021-08-07 10:48:49,456765
-1,-2,-3,-7,-7,-2,-3,-1,2021-08-07 10:48:49,473046
1,0,0,5,5,2,1,1,2021-08-07 10:48:49,488279
3,2,0,-2,-2,-1,0,0,2021-08-07 10:48:49,488279
-1,-2,-2,-4,-1,-1,-2,-1,2021-08-07 10:48:49,488279
-1,-1,1,2,0,0,0,0,2021-08-07 10:48:49,488279
-1,-2,1,8,7,0,-1,-2,2021-08-07 10:48:49,488279
-2,-2,-3,-2,-6,-3,-2,-2,2021-08-07 10:48:49,536279
-1,-1,-2,-2,-2,-2,-1,-1,2021-08-07 10:48:49,552278
-2,-2,-1,-2,0,2,-1,-1,2021-08-07 10:48:49,554278
0,0,3,3,4,3,1,0,2021-08-07 10:48:49,554278
-1,-3,-2,1,0,-1,-1,-1,2021-08-07 10:48:49,555279
-1,0,1,0,-2,0,-1,0,2021-08-07 10:48:49,555279
0,-1,-2,-1,-4,-3,0,-1,2021-08-07 10:48:49,555279
-2,-2,-4,-8,-6,-3,-2,-3,2021-08-07 10:48:49,555279
-1,-1,-1,-4,-3,0,-2,-1,2021-08-07 10:48:49,555279
0,-2,-2,-2,-3,-3,0,-1,2021-08-07 10:48:49,556279
0,-1,0,1,5,1,2,0,2021-08-07 10:48:49,556279
1,2,3,13,8,3,1,2,2021-08-07 10:48:49,556279
-2,-1,-3,-5,-4,-3,-2,-1,2021-08-07 10:48:49,556279
-3,-3,-5,-7,-5,-3,-3,-2,2021-08-07 10:48:49,556279
0,0,-1,-6,-10,-3,-3,0,2021-08-07 10:48:49,584280
-2,-1,-1,-2,4,1,0,-2,2021-08-07 10:48:49,584280
-2,0,0,3,4,2,-1,0,2021-08-07 10:48:49,584280
0,-2,0,1,-2,-1,-1,-2,2021-08-07 10:48:49,584280
0,1,0,4,4,0,-1,0,2021-08-07 10:48:49,600280
-2,-2,-1,-4,-6,-3,-1,-2,2021-08-07 10:48:49,616282
0,-1,1,-3,-1,-1,0,0,2021-08-07 10:48:49,648280
-1,0,-1,2,0,-1,-1,0,2021-08-07 10:48:49,648280
-1,-2,-3,-3,0,0,-1,-2,2021-08-07 10:48:49,648280
1,0,1,3,0,2,-1,1,2021-08-07 10:48:49,648280
0,1,-1,0,-1,0,-1,0,2021-08-07 10:48:49,648280
-3,-1,-2,-8,-4,-2,0,-1,2021-08-07 10:48:49,648280
0,-1,-2,-4,-6,-4,-3,-2,2021-08-07 10:48:49,648280
-1,-1,0,-4,-3,-2,-2,-1,2021-08-07 10:48:49,648280
1,1,0,-1,6,4,0,-1,2021-08-07 10:48:49,648280
0,0,1,4,3,1,-2,1,2021-08-07 10:48:49,648280
-1,-1,1,0,-4,-2,-1,-2,2021-08-07 10:48:49,664279
-1,-3,-4,-7,-6,-3,-2,-1,2021-08-07 10:48:49,664279
-1,-2,0,-2,-2,-3,-2,-2,2021-08-07 10:48:49,680280
-1,-2,-2,-5,-5,-1,0,-2,2021-08-07 10:48:49,680280
-1,1,1,2,2,1,0,0,2021-08-07 10:48:49,680280
0,0,-2,-1,-1,1,0,1,2021-08-07 10:48:49,680280
0,-2,-3,-4,-5,-3,0,1,2021-08-07 10:48:49,696278
2,1,0,5,8,4,2,3,2021-08-07 10:48:49,696278
-1,-4,-2,-3,-4,-2,0,1,2021-08-07 10:48:49,696278
-1,-2,-1,-1,3,2,2,0,2021-08-07 10:48:49,696278
-5,-4,-2,-3,-6,-3,-4,-4,2021-08-07 10:48:49,696278
-2,-1,1,0,5,2,0,-2,2021-08-07 10:48:49,697280
-2,2,2,6,2,-1,-2,-1,2021-08-07 10:48:49,728280
-1,0,0,1,-4,-4,-1,-1,2021-08-07 10:48:49,744278
-2,-2,-2,-8,-6,-3,-2,-1,2021-08-07 10:48:49,744278
2,2,1,2,-2,-1,-1,1,2021-08-07 10:48:49,744278
2,3,2,1,9,4,3,2,2021-08-07 10:48:49,744278
0,0,0,-3,-2,-2,-1,1,2021-08-07 10:48:49,744278
-2,-2,-2,0,-5,-3,-2,-1,2021-08-07 10:48:49,744278
-1,-2,-2,-5,-5,-3,-2,-1,2021-08-07 10:48:49,744278
-2,-1,-2,-2,-1,0,0,-1,2021-08-07 10:48:49,760280
-1,-1,-3,-5,-6,-4,-4,-1,2021-08-07 10:48:49,775281
1,1,0,0,3,0,0,-1,2021-08-07 10:48:49,775281
0,0,3,0,-1,-1,-1,-1,2021-08-07 10:48:49,775281
0,2,1,5,10,4,2,-1,2021-08-07 10:48:49,775281
0,0,-2,0,1,-1,0,-1,2021-08-07 10:48:49,775281
0,-2,-1,0,-1,-2,0,1,2021-08-07 10:48:49,775281
-1,-1,-1,-3,-5,-1,-1,-1,2021-08-07 10:48:49,776280
0,-2,-3,-3,-11,-5,-3,-1,2021-08-07 10:48:49,791278
-1,-2,-2,-3,-2,-2,0,-1,2021-08-07 10:48:49,791278
2,3,3,12,12,5,1,2,2021-08-07 10:48:49,807279
0,0,1,3,6,2,2,0,2021-08-07 10:48:49,807279
-4,-3,-4,-10,-13,-7,-1,-4,2021-08-07 10:48:49,807279
2,2,5,5,10,4,1,2,2021-08-07 10:48:49,807279
0,0,-1,-1,-3,-1,-1,-2,2021-08-07 10:48:49,823279
-1,-2,-3,-1,-1,-1,-2,-2,2021-08-07 10:48:49,823279
-1,-1,-3,-3,-6,-3,-2,-3,2021-08-07 10:48:49,839279
-2,-1,-5,-13,-12,-3,-2,-1,2021-08-07 10:48:49,855279
-3,0,4,16,17,5,1,1,2021-08-07 10:48:49,871278
-1,0,-2,-2,-3,-3,-2,-3,2021-08-07 10:48:49,871278
2,0,2,0,7,4,1,2,2021-08-07 10:48:49,871278
-3,-2,-2,-2,-6,-4,-2,-3,2021-08-07 10:48:49,871278
1,0,1,-2,-1,-1,1,0,2021-08-07 10:48:49,871278
-3,-2,-3,-2,-3,-2,-3,-2,2021-08-07 10:48:49,871278
-1,-1,-2,-1,-5,-5,-4,0,2021-08-07 10:48:49,872279
0,-1,0,-1,1,-1,1,1,2021-08-07 10:48:49,872279
-2,-2,-5,-7,-6,-2,-1,1,2021-08-07 10:48:49,872279
0,-2,1,-1,2,-2,-1,-1,2021-08-07 10:48:49,872279
-1,0,-1,-1,-2,1,1,-1,2021-08-07 10:48:49,903279
-3,-2,-2,1,-2,-2,-3,-3,2021-08-07 10:48:49,919281
-3,-2,-3,-2,-4,-2,-2,-1,2021-08-07 10:48:49,935280
1,2,4,7,8,3,1,2,2021-08-07 10:48:49,935280
-2,-1,-1,-2,0,-1,0,0,2021-08-07 10:48:49,935280
-1,0,0,1,1,1,-2,-2,2021-08-07 10:48:49,935280
-3,-3,-6,-15,-19,-9,-3,-4,2021-08-07 10:48:49,936280
0,-1,-3,4,12,5,1,0,2021-08-07 10:48:49,936280
0,3,0,8,5,3,1,1,2021-08-07 10:48:49,936280
-2,-2,-5,-4,-6,-4,-2,-1,2021-08-07 10:48:49,936280
1,-1,0,-3,-3,-2,-3,-2,2021-08-07 10:48:49,936280
-4,-2,-4,-7,-7,-5,-3,-2,2021-08-07 10:48:49,936280
1,-1,0,1,0,1,-1,0,2021-08-07 10:48:49,953278
0,-1,-4,-7,-7,-3,-3,-1,2021-08-07 10:48:49,954280
0,4,6,13,17,8,2,1,2021-08-07 10:48:49,954280
-2,-2,-1,-1,-6,-2,-1,-3,2021-08-07 10:48:49,954280
-2,-2,-3,-6,-8,-5,-3,-1,2021-08-07 10:48:49,983280
-1,1,1,3,5,-1,1,0,2021-08-07 10:48:49,983280
1,1,1,3,7,3,2,-1,2021-08-07 10:48:49,983280
-2,-3,-3,-4,-5,-4,-1,-1,2021-08-07 10:48:49,983280
0,0,0,3,-1,-1,-1,-1,2021-08-07 10:48:49,999281
-2,-1,-4,-9,-8,-3,-1,-1,2021-08-07 10:48:49,999281
3,3,2,7,10,4,2,3,2021-08-07 10:48:49,999281
-2,1,-1,-4,-4,-1,-1,0,2021-08-07 10:48:49,999281
0,-1,-1,-1,6,4,0,0,2021-08-07 10:48:50,015282
-1,-1,1,10,7,3,0,-2,2021-08-07 10:48:50,015282
-3,-4,-3,-11,-14,-7,-6,-3,2021-08-07 10:48:50,015282
2,1,1,1,-1,-1,1,1,2021-08-07 10:48:50,015282
-1,-1,-1,-5,-3,-1,-1,0,2021-08-07 10:48:50,047279
0,-1,2,2,2,1,0,-1,2021-08-07 10:48:50,063278
-3,-4,-4,-8,-10,-6,-4,-2,2021-08-07 10:48:50,063278
0,-1,0,5,5,1,0,1,2021-08-07 10:48:50,063278
-1,-2,-4,-6,-2,-2,-2,0,2021-08-07 10:48:50,063278
3,1,2,6,5,2,0,1,2021-08-07 10:48:50,063278
0,-1,-2,-2,-6,-4,-3,-2,2021-08-07 10:48:50,063278
-2,-1,-2,-6,-8,-4,-2,-3,2021-08-07 10:48:50,079282
-2,-1,-2,-1,2,0,1,-1,2021-08-07 10:48:50,079282
-1,-1,-3,-5,-10,-4,-2,-1,2021-08-07 10:48:50,079282
2,2,3,14,21,8,3,3,2021-08-07 10:48:50,079282
0,-1,-1,0,-6,-2,0,1,2021-08-07 10:48:50,079282
0,0,0,2,1,0,0,-1,2021-08-07 10:48:50,111279
-5,-3,-4,-6,-6,-6,-2,-3,2021-08-07 10:48:50,111279
-3,-1,-2,-8,-9,-4,-3,-2,2021-08-07 10:48:50,111279
-1,0,-1,-1,2,1,0,0,2021-08-07 10:48:50,111279
-2,-1,-2,-7,-7,-4,-1,-1,2021-08-07 10:48:50,111279
2,0,1,5,4,1,1,-1,2021-08-07 10:48:50,111279
-2,-4,-1,-7,-12,-5,-1,-3,2021-08-07 10:48:50,111279
-1,0,1,7,12,6,0,-2,2021-08-07 10:48:50,112279
3,2,2,5,1,1,1,1,2021-08-07 10:48:50,143280
-3,-2,-4,-6,-5,-1,-3,-1,2021-08-07 10:48:50,159278
1,2,2,9,10,4,3,2,2021-08-07 10:48:50,175279
-4,-3,-3,-7,-12,-7,-3,-3,2021-08-07 10:48:50,175279
-2,-2,-1,1,-2,-2,-2,-3,2021-08-07 10:48:50,175279
0,-1,0,1,6,4,2,2,2021-08-07 10:48:50,175279
-3,-1,-2,-3,-8,-4,-1,-2,2021-08-07 10:48:50,175279
0,-1,-3,-3,-1,-2,-1,-1,2021-08-07 10:48:50,175279
-1,1,2,1,0,-1,-2,-2,2021-08-07 10:48:50,175279
0,1,0,-2,-2,-1,0,0,2021-08-07 10:48:50,175279
-1,-3,-4,-5,-3,-2,-1,-1,2021-08-07 10:48:50,176279
-2,0,0,0,1,0,0,1,2021-08-07 10:48:50,176279
-1,-2,0,-2,-5,-3,-1,-1,2021-08-07 10:48:50,207280
-1,-1,-2,-2,-2,-1,-1,-1,2021-08-07 10:48:50,223279
0,-1,0,0,-3,0,0,0,2021-08-07 10:48:50,223279
0,1,0,2,12,5,0,0,2021-08-07 10:48:50,223279
-2,-3,-3,-2,-7,-3,-2,-2,2021-08-07 10:48:50,223279
-2,-1,0,2,4,1,0,-2,2021-08-07 10:48:50,223279
0,-1,0,-4,-5,-2,-2,-1,2021-08-07 10:48:50,223279
0,0,0,1,-3,-1,0,-1,2021-08-07 10:48:50,223279
-1,-2,-4,-8,-9,-5,-2,0,2021-08-07 10:48:50,239279
0,1,0,3,8,5,1,0,2021-08-07 10:48:50,239279
-3,-1,0,0,2,0,1,-1,2021-08-07 10:48:50,239279
0,0,2,5,0,0,-2,0,2021-08-07 10:48:50,239279
0,1,0,2,3,3,0,-1,2021-08-07 10:48:50,254279
-1,-1,-1,-3,-6,-4,-1,-2,2021-08-07 10:48:50,254279
-2,-3,-3,-4,-4,-2,-3,0,2021-08-07 10:48:50,254279
0,-1,-1,-4,-5,-2,-2,-1,2021-08-07 10:48:50,270280
-1,0,0,2,6,1,0,-1,2021-08-07 10:48:50,286281
2,0,-1,-1,-3,0,0,-1,2021-08-07 10:48:50,286281
-2,-1,0,-1,1,0,-2,-2,2021-08-07 10:48:50,286281
-1,-1,-2,-3,-3,-2,-1,-1,2021-08-07 10:48:50,286281
0,0,0,-1,-1,-1,-2,0,2021-08-07 10:48:50,286281
-1,0,1,4,2,-1,-3,-2,2021-08-07 10:48:50,287279
0,0,-1,-3,5,2,1,1,2021-08-07 10:48:50,287279
-1,-1,-1,-1,-1,-2,0,0,2021-08-07 10:48:50,287279
-1,-1,0,2,1,1,-1,-1,2021-08-07 10:48:50,317279
-2,0,0,-3,-3,-1,-2,0,2021-08-07 10:48:50,317279
-1,-1,-2,0,-1,-3,-1,-2,2021-08-07 10:48:50,317279
0,0,1,-4,-3,0,2,0,2021-08-07 10:48:50,317279
0,-2,-1,-3,1,0,1,-1,2021-08-07 10:48:50,349280
1,1,3,6,9,1,1,0,2021-08-07 10:48:50,349280
0,-1,-2,-1,-1,-2,-1,-1,2021-08-07 10:48:50,349280
-2,-2,-3,-5,-4,-3,-2,-1,2021-08-07 10:48:50,349280
-2,0,-2,0,0,-1,-3,-2,2021-08-07 10:48:50,349280
-2,-2,-1,-6,-4,-3,-1,-2,2021-08-07 10:48:50,349280
0,1,1,3,1,-1,0,2,2021-08-07 10:48:50,349280
-2,-2,-3,-1,-2,-2,-2,-1,2021-08-07 10:48:50,350279
-2,-3,-4,-12,-6,-2,-1,-2,2021-08-07 10:48:50,375280
1,4,3,8,9,3,5,1,2021-08-07 10:48:50,375280
0,0,-1,0,0,1,0,0,2021-08-07 10:48:50,375280
1,0,2,1,1,0,0,0,2021-08-07 10:48:50,375280
-2,-3,-1,-4,-8,-4,-2,-2,2021-08-07 10:48:50,396279
-3,-3,-7,-11,-5,-5,-2,-1,2021-08-07 10:48:50,396279
0,1,2,8,8,2,2,2,2021-08-07 10:48:50,396279
-1,-2,-4,-4,-4,-3,1,1,2021-08-07 10:48:50,396279
-1,-1,1,4,6,3,1,1,2021-08-07 10:48:50,412278
-1,-2,-1,-1,-5,-1,-2,-3,2021-08-07 10:48:50,412278
-3,0,-3,-6,-4,-3,-3,-4,2021-08-07 10:48:50,412278
-3,0,-3,-2,-5,-1,-4,-4,2021-08-07 10:48:50,412278
2,4,5,5,9,4,0,1,2021-08-07 10:48:50,442280
0,0,0,-3,-5,-1,-1,0,2021-08-07 10:48:50,442280
0,-2,-2,1,-4,-1,1,-1,2021-08-07 10:48:50,458283
-1,-1,-3,-8,-7,-3,-2,-3,2021-08-07 10:48:50,458283
1,3,3,8,13,6,4,2,2021-08-07 10:48:50,458283
-1,-2,-2,-2,-5,-3,-1,-1,2021-08-07 10:48:50,458283
-2,-1,0,-2,0,-1,-2,-1,2021-08-07 10:48:50,458283
0,-1,-3,-6,-5,-3,-3,0,2021-08-07 10:48:50,458283
-3,-3,-4,-6,-11,-6,-2,-1,2021-08-07 10:48:50,474306
-1,-1,1,3,8,3,1,0,2021-08-07 10:48:50,474306
-1,0,-2,3,1,2,0,0,2021-08-07 10:48:50,474306
1,0,1,1,4,3,1,0,2021-08-07 10:48:50,474306
-2,-3,-3,-2,-4,-4,-2,-1,2021-08-07 10:48:50,490279
1,1,0,2,7,3,1,1,2021-08-07 10:48:50,490279
1,-4,-2,-7,-5,-3,-2,-1,2021-08-07 10:48:50,505278
-1,-1,0,2,1,-1,-1,-1,2021-08-07 10:48:50,521281
1,0,1,1,-1,1,-1,0,2021-08-07 10:48:50,552279
-1,-1,-2,-3,-5,-4,-2,-1,2021-08-07 10:48:50,568278
-1,-2,-4,-5,-3,-1,-3,-1,2021-08-07 10:48:50,584281
2,3,5,9,10,3,1,2,2021-08-07 10:48:50,600279
-2,-1,1,2,2,0,0,0,2021-08-07 10:48:50,632281
-2,-2,-2,-5,-7,-3,-1,1,2021-08-07 10:48:50,632281
-3,-3,-4,-5,-9,-6,-3,-3,2021-08-07 10:48:50,632281
-1,0,1,1,-4,0,1,0,2021-08-07 10:48:50,632281
0,1,3,12,19,6,3,-1,2021-08-07 10:48:50,632281
-1,0,1,1,0,0,-1,-1,2021-08-07 10:48:50,632281
-1,-1,-1,-4,-5,-3,-2,-2,2021-08-07 10:48:50,633279
-2,-4,-3,-8,-7,-4,-1,0,2021-08-07 10:48:50,633279
-2,-4,-2,-1,-3,-3,-3,-1,2021-08-07 10:48:50,633279
-4,0,-2,-3,-5,-2,-1,-3,2021-08-07 10:48:50,633279
1,1,2,2,4,4,2,-1,2021-08-07 10:48:50,633279
-2,0,-3,2,1,-1,-1,-1,2021-08-07 10:48:50,633279
-2,0,-1,1,-1,-2,0,0,2021-08-07 10:48:50,634280
2,-2,1,4,1,-1,-3,0,2021-08-07 10:48:50,634280
-1,-1,-1,-5,-9,-3,-2,0,2021-08-07 10:48:50,634280
-2,-2,-2,0,6,2,-1,-1,2021-08-07 10:48:50,634280
-2,-2,-3,-5,-3,-2,-3,-2,2021-08-07 10:48:50,634280
-1,1,1,1,-2,0,1,0,2021-08-07 10:48:50,634280
-1,0,0,2,3,0,1,-1,2021-08-07 10:48:50,634280
-1,-1,0,3,1,0,-2,-1,2021-08-07 10:48:50,634280
0,-3,-3,-5,-6,-3,-1,-2,2021-08-07 10:48:50,635279
-1,-3,-4,-5,-6,-2,-1,-2,2021-08-07 10:48:50,635279
2,1,2,1,6,3,1,2,2021-08-07 10:48:50,635279
-1,-1,0,2,1,-1,-1,-2,2021-08-07 10:48:50,635279
0,0,-1,2,5,3,-1,-1,2021-08-07 10:48:50,664279
-2,0,-3,-6,-8,-3,-1,0,2021-08-07 10:48:50,680279
-4,-2,-3,-2,5,-1,0,-3,2021-08-07 10:48:50,680279
1,1,1,1,-1,0,-1,-1,2021-08-07 10:48:50,680279
-2,0,-2,-5,-7,-4,-1,-1,2021-08-07 10:48:50,680279
0,-1,1,4,5,2,1,-1,2021-08-07 10:48:50,680279
-3,-4,-5,-14,-13,-8,-4,-2,2021-08-07 10:48:50,680279
1,1,0,8,8,2,1,-1,2021-08-07 10:48:50,680279
-1,1,-3,-5,-5,-4,-2,-1,2021-08-07 10:48:50,711280
1,0,-2,1,0,-1,-3,0,2021-08-07 10:48:50,711280
1,3,3,10,9,4,2,2,2021-08-07 10:48:50,711280
-1,-2,-3,-6,-9,-5,-2,-2,2021-08-07 10:48:50,711280
0,-1,1,2,5,2,1,2,2021-08-07 10:48:50,743278
-2,-1,-1,-4,-4,-3,-4,-2,2021-08-07 10:48:50,743278
-1,-2,1,-1,0,-1,0,1,2021-08-07 10:48:50,743278
0,0,-1,-2,-3,0,0,1,2021-08-07 10:48:50,743278
0,-1,-2,-1,-4,-4,0,-1,2021-08-07 10:48:50,743278
-1,-3,-2,-7,-3,0,-1,-2,2021-08-07 10:48:50,743278
2,0,0,-2,-4,-2,0,-1,2021-08-07 10:48:50,744282
-2,0,-1,8,5,0,-1,-2,2021-08-07 10:48:50,744282
-2,-1,1,-2,-4,-1,0,1,2021-08-07 10:48:50,759279
0,0,1,1,5,2,-1,-1,2021-08-07 10:48:50,775279
0,1,-1,-1,-2,-1,1,0,2021-08-07 10:48:50,791279
-1,-2,-2,-6,-6,-4,-3,-2,2021-08-07 10:48:50,797280
0,1,-2,-6,-3,-1,0,1,2021-08-07 10:48:50,797280
0,1,5,11,3,2,1,0,2021-08-07 10:48:50,797280
-4,-1,-1,-1,-2,0,1,-1,2021-08-07 10:48:50,798280
-1,0,1,-2,-1,-1,-1,-2,2021-08-07 10:48:50,798280
-2,0,-2,-1,-3,-2,-2,-2,2021-08-07 10:48:50,798280
-3,-2,-4,-6,-5,-5,-2,-2,2021-08-07 10:48:50,798280
0,-2,0,1,2,0,-3,-2,2021-08-07 10:48:50,798280
-1,-3,-1,-1,-2,-3,-1,-1,2021-08-07 10:48:50,798280
1,-2,-3,-7,-9,-3,-3,-2,2021-08-07 10:48:50,823280
0,1,2,11,7,2,1,0,2021-08-07 10:48:50,839280
0,1,1,2,8,2,1,0,2021-08-07 10:48:50,839280
-3,-1,-2,-3,-3,-2,-2,-2,2021-08-07 10:48:50,839280
-2,-5,-5,-6,-10,-3,-3,-3,2021-08-07 10:48:50,839280
2,1,0,0,0,2,1,0,2021-08-07 10:48:50,839280
-1,0,-1,-4,-2,-1,-2,-2,2021-08-07 10:48:50,840280
2,1,5,7,7,3,5,3,2021-08-07 10:48:50,840280
2,4,9,18,18,9,3,0,2021-08-07 10:48:50,871279
-3,-3,-3,-5,-3,-3,-3,-4,2021-08-07 10:48:50,887278
1,2,0,6,1,1,1,0,2021-08-07 10:48:50,903281
-2,-4,-8,-14,-13,-8,-4,-1,2021-08-07 10:48:50,903281
-4,-4,-4,-13,-18,-8,-5,-3,2021-08-07 10:48:50,903281
2,0,2,8,12,6,3,2,2021-08-07 10:48:50,903281
-1,-1,0,2,1,0,-1,-3,2021-08-07 10:48:50,903281
1,0,0,3,0,-2,0,-1,2021-08-07 10:48:50,903281
0,0,-2,0,-7,-5,-1,0,2021-08-07 10:48:50,904280
0,0,-4,-7,3,1,0,0,2021-08-07 10:48:50,904280
-2,-1,-1,-3,-5,-3,-2,-1,2021-08-07 10:48:50,904280
-2,-1,-3,-9,-15,-5,-3,-1,2021-08-07 10:48:50,904280
0,-1,-2,1,8,5,1,0,2021-08-07 10:48:50,935280
1,1,3,0,-1,0,1,0,2021-08-07 10:48:50,935280
1,-2,-3,2,-1,0,0,-1,2021-08-07 10:48:50,935280
0,-1,1,2,5,0,-1,0,2021-08-07 10:48:50,935280
-2,-3,-1,-5,-11,-4,-1,0,2021-08-07 10:48:50,935280
-1,-4,-3,-8,-4,-4,-2,-1,2021-08-07 10:48:50,935280
0,-1,1,7,6,3,1,0,2021-08-07 10:48:50,936280
-3,-3,-3,-4,-1,1,-2,-4,2021-08-07 10:48:50,936280
0,1,0,-1,0,-1,-1,-1,2021-08-07 10:48:50,966279
-2,-2,1,4,2,-1,-1,-1,2021-08-07 10:48:50,966279
-2,-2,-2,-5,-2,-2,-2,-2,2021-08-07 10:48:50,966279
1,1,1,7,10,5,2,1,2021-08-07 10:48:50,966279
-1,-1,1,4,6,1,0,0,2021-08-07 10:48:50,997280
0,1,-1,-3,-4,-3,-1,0,2021-08-07 10:48:50,997280
-1,-4,-5,-9,-12,-7,-2,-2,2021-08-07 10:48:50,997280
-1,-2,-2,0,1,0,-1,-1,2021-08-07 10:48:50,997280
-2,-1,2,4,7,0,1,1,2021-08-07 10:48:50,997280
-1,1,1,-1,-4,-3,-1,0,2021-08-07 10:48:51,013280
0,2,3,9,5,3,-1,0,2021-08-07 10:48:51,029279
0,-1,-1,-4,1,1,0,-1,2021-08-07 10:48:51,044281
-2,-4,-5,-8,-11,-8,-2,-3,2021-08-07 10:48:51,060279
0,-1,-3,3,2,0,0,-1,2021-08-07 10:48:51,060279
-3,-3,-2,-5,-3,-2,-1,0,2021-08-07 10:48:51,060279
-1,0,0,0,2,1,1,0,2021-08-07 10:48:51,060279
1,2,2,9,12,4,1,0,2021-08-07 10:48:51,076281
-4,-2,-3,-6,-9,-5,-4,-2,2021-08-07 10:48:51,076281
0,-1,-1,0,1,-1,-1,0,2021-08-07 10:48:51,076281
1,1,1,2,4,1,0,0,2021-08-07 10:48:51,091278
-3,-3,-2,-7,-7,-4,-3,-2,2021-08-07 10:48:51,107279
1,-1,-1,2,1,-2,-1,0,2021-08-07 10:48:51,107279
0,-1,-2,-2,-4,-1,-1,-1,2021-08-07 10:48:51,107279
-1,-1,-2,-7,-10,-4,-2,-2,2021-08-07 10:48:51,107279
3,0,-1,-2,1,2,1,1,2021-08-07 10:48:51,107279
-1,-2,-2,0,3,0,1,-1,2021-08-07 10:48:51,107279
-2,-6,-4,-7,-5,-4,-2,-1,2021-08-07 10:48:51,107279
-4,-2,1,1,0,-1,-2,-3,2021-08-07 10:48:51,107279
-3,-1,-2,-1,-6,-1,-2,-3,2021-08-07 10:48:51,107279
-2,-1,-3,-3,-4,-2,-2,-3,2021-08-07 10:48:51,107279
1,4,2,7,11,5,1,1,2021-08-07 10:48:51,108280
1,0,1,1,-1,-1,0,0,2021-08-07 10:48:51,108280
-1,-2,1,2,2,0,1,0,2021-08-07 10:48:51,123279
-1,-3,-6,-10,-15,-8,-3,-1,2021-08-07 10:48:51,139278
0,-1,-2,-3,-3,-2,-2,1,2021-08-07 10:48:51,155279
0,-2,-2,-1,0,1,-1,0,2021-08-07 10:48:51,171279
1,-1,-1,-5,-4,0,-2,1,2021-08-07 10:48:51,187280
-1,-2,0,3,2,-1,0,0,2021-08-07 10:48:51,187280
0,0,3,8,7,3,1,0,2021-08-07 10:48:51,187280
0,-2,-2,-4,-2,-1,-3,-3,2021-08-07 10:48:51,187280
-1,-3,-1,0,3,0,-2,-2,2021-08-07 10:48:51,187280
-1,-1,0,0,0,0,1,1,2021-08-07 10:48:51,187280
-2,1,-2,-5,-8,-4,0,0,2021-08-07 10:48:51,188280
-1,-3,-4,-6,-3,-3,-1,-2,2021-08-07 10:48:51,188280
2,2,5,18,16,6,2,0,2021-08-07 10:48:51,188280
-1,-2,-2,-3,-4,-2,-2,-2,2021-08-07 10:48:51,188280
-1,0,2,8,10,2,1,0,2021-08-07 10:48:51,188280
-3,0,1,-1,-6,-4,1,-2,2021-08-07 10:48:51,188280
-2,-1,-3,-4,-2,-3,-1,-2,2021-08-07 10:48:51,203280
-2,-2,-2,-2,-3,-2,0,-1,2021-08-07 10:48:51,203280
-2,-1,-2,-6,-10,-5,-1,-3,2021-08-07 10:48:51,203280
0,0,0,1,5,1,1,-1,2021-08-07 10:48:51,203280
1,0,0,3,4,3,0,0,2021-08-07 10:48:51,228280
-2,-1,1,2,3,0,-1,-2,2021-08-07 10:48:51,228280
-1,-3,-3,-8,-8,-3,-1,0,2021-08-07 10:48:51,228280
1,0,0,1,-1,0,-1,0,2021-08-07 10:48:51,228280
-1,-2,-2,-7,-6,-5,-1,0,2021-08-07 10:48:51,235278
3,1,4,4,2,2,0,0,2021-08-07 10:48:51,235278
0,0,-2,1,3,1,1,0,2021-08-07 10:48:51,251281
-1,0,-3,-1,-5,-4,-1,-1,2021-08-07 10:48:51,267279
-3,0,-3,-7,-7,-3,-2,-2,2021-08-07 10:48:51,267279
0,0,2,9,8,4,0,0,2021-08-07 10:48:51,267279
-1,-1,-2,-5,-6,-4,-2,-1,2021-08-07 10:48:51,267279
-2,0,2,3,2,0,-2,-1,2021-08-07 10:48:51,267279
0,0,-3,-6,-6,-3,0,-1,2021-08-07 10:48:51,297280
-1,1,-1,-2,-2,-2,-4,-1,2021-08-07 10:48:51,313278
-1,0,-2,-2,-1,-1,-1,1,2021-08-07 10:48:51,329280
0,0,-2,-1,-1,-1,1,0,2021-08-07 10:48:51,345278
-2,-2,-2,-4,-3,-2,-2,-2,2021-08-07 10:48:51,361279
-1,-2,-2,-6,-10,-2,-1,-1,2021-08-07 10:48:51,361279
-1,-3,0,0,5,-1,-2,-3,2021-08-07 10:48:51,361279
0,0,2,6,10,6,3,2,2021-08-07 10:48:51,361279
0,1,2,3,3,1,0,0,2021-08-07 10:48:51,361279
-2,-3,-4,-7,-8,-5,-2,-2,2021-08-07 10:48:51,362281
-3,-4,-4,-11,-13,-6,-4,-2,2021-08-07 10:48:51,362281
1,2,5,12,10,5,1,1,2021-08-07 10:48:51,362281
-1,-1,-1,-1,-3,-3,-1,-1,2021-08-07 10:48:51,377280
-1,-1,-1,5,5,2,1,0,2021-08-07 10:48:51,393278
0,0,1,1,-1,0,-1,-1,2021-08-07 10:48:51,408278
-3,-2,-5,-10,-12,-6,-4,-3,2021-08-07 10:48:51,424279
0,0,2,3,7,1,1,0,2021-08-07 10:48:51,440280
0,0,1,0,1,1,-1,0,2021-08-07 10:48:51,456279
0,0,-1,0,-1,-1,-1,-3,2021-08-07 10:48:51,456279
-1,-3,-1,-1,-1,-3,0,1,2021-08-07 10:48:51,456279
-2,-1,-4,-5,-6,-1,-3,0,2021-08-07 10:48:51,456279
-3,-3,-4,-6,-2,-3,-1,-1,2021-08-07 10:48:51,456279
1,0,0,1,1,1,0,-2,2021-08-07 10:48:51,457281
0,0,-4,-9,-5,-3,-1,0,2021-08-07 10:48:51,457281
-1,-2,-1,-3,-7,-3,-1,-2,2021-08-07 10:48:51,457281
-1,-2,-1,1,2,2,1,0,2021-08-07 10:48:51,457281
0,1,3,9,7,5,1,1,2021-08-07 10:48:51,457281
0,0,0,5,5,1,0,0,2021-08-07 10:48:51,457281
-2,-1,-4,-9,-9,-3,-4,-1,2021-08-07 10:48:51,458280
-2,0,0,2,5,0,0,-1,2021-08-07 10:48:51,458280
1,1,2,-1,3,2,1,2,2021-08-07 10:48:51,458280
-1,-1,-2,-3,-5,-2,-3,-3,2021-08-07 10:48:51,458280
-2,0,-2,2,3,1,-1,-2,2021-08-07 10:48:51,458280
-1,-1,-1,-6,-6,-4,-1,-2,2021-08-07 10:48:51,458280
-1,-3,-4,-5,-6,-2,-2,-2,2021-08-07 10:48:51,471412
-3,-3,-1,-4,-5,-4,-3,-1,2021-08-07 10:48:51,487311
3,2,3,11,13,5,1,1,2021-08-07 10:48:51,503311
-2,-1,1,0,-4,-2,-1,-2,2021-08-07 10:48:51,503311
-1,-1,0,1,5,-2,-2,0,2021-08-07 10:48:51,503311
-1,-2,-1,2,-2,0,1,1,2021-08-07 10:48:51,503311
0,0,-1,-5,-6,-4,-2,0,2021-08-07 10:48:51,503311
1,-1,1,2,5,2,0,1,2021-08-07 10:48:51,503311
-2,-2,-2,-3,-7,-4,-1,-3,2021-08-07 10:48:51,503311
0,-2,-2,-3,-4,-2,-3,-2,2021-08-07 10:48:51,504311
-1,-2,0,2,2,3,0,-1,2021-08-07 10:48:51,504311
3,1,5,11,11,4,1,2,2021-08-07 10:48:51,504311
1,0,-1,3,0,-1,1,0,2021-08-07 10:48:51,504311
-2,-1,-3,-9,-7,-5,-4,-2,2021-08-07 10:48:51,504311
-4,-4,-6,-10,-9,-4,-1,-3,2021-08-07 10:48:51,534311
1,3,4,12,14,6,3,1,2021-08-07 10:48:51,534311
-3,-2,-1,-4,-6,-3,-3,-1,2021-08-07 10:48:51,550312
0,0,2,2,7,2,1,1,2021-08-07 10:48:51,566310
-1,-3,-2,-1,-4,-3,-2,-1,2021-08-07 10:48:51,566310
-3,-4,-7,-12,-16,-9,-5,-3,2021-08-07 10:48:51,566310
0,1,2,4,4,1,-2,0,2021-08-07 10:48:51,566310
0,-1,1,-1,-3,-1,-2,0,2021-08-07 10:48:51,566310
-1,-1,-2,0,0,0,0,-3,2021-08-07 10:48:51,566310
-2,-2,-4,-9,-5,-1,0,-2,2021-08-07 10:48:51,566310
0,0,1,7,5,2,0,-1,2021-08-07 10:48:51,567312
-2,-1,-2,0,-7,-3,-3,-1,2021-08-07 10:48:51,567312
0,0,2,2,5,3,-1,1,2021-08-07 10:48:51,598311
0,-1,-3,-2,0,1,1,0,2021-08-07 10:48:51,614310
-1,1,-1,-2,-1,-1,1,0,2021-08-07 10:48:51,645311
-2,-1,-3,-6,-5,-5,-4,-3,2021-08-07 10:48:51,645311
-1,-1,-2,-1,-4,-4,-3,-3,2021-08-07 10:48:51,645311
0,0,-2,0,-4,-2,-2,-1,2021-08-07 10:48:51,645311
1,0,-3,-5,-6,-2,2,1,2021-08-07 10:48:51,645311
1,1,2,6,11,7,3,0,2021-08-07 10:48:51,645311
-1,2,2,10,14,4,1,2,2021-08-07 10:48:51,646312
-1,0,-3,-5,-6,-3,-2,0,2021-08-07 10:48:51,646312
-2,-2,-3,-6,-6,-5,-2,-2,2021-08-07 10:48:51,646312
-1,-2,-2,-5,-7,-3,1,-2,2021-08-07 10:48:51,646312
-2,-1,-2,-6,-8,-5,0,0,2021-08-07 10:48:51,646312
-2,1,0,0,5,2,1,-1,2021-08-07 10:48:51,646312
0,0,0,-5,-1,-1,0,2,2021-08-07 10:48:51,647311
0,0,2,10,10,4,1,0,2021-08-07 10:48:51,647311
-1,-1,-1,0,-2,-1,-2,-1,2021-08-07 10:48:51,672310
-2,-2,-3,-7,-6,-3,-3,-2,2021-08-07 10:48:51,672310
-2,-2,-3,-4,-6,-3,-2,-3,2021-08-07 10:48:51,673312
-1,0,-1,-4,-4,0,-1,0,2021-08-07 10:48:51,673312
1,0,0,-4,1,1,1,1,2021-08-07 10:48:51,692309
-2,-2,0,3,0,-2,-1,-1,2021-08-07 10:48:51,707825
0,-1,0,5,3,2,1,-1,2021-08-07 10:48:51,739826
1,1,0,1,-3,-1,0,1,2021-08-07 10:48:51,755825
2,0,1,8,12,4,0,0,2021-08-07 10:48:51,755825
-2,-2,-3,-8,-9,-3,-2,-1,2021-08-07 10:48:51,755825
-2,-2,0,5,12,3,0,-1,2021-08-07 10:48:51,755825
-1,-2,-2,0,-3,-4,-3,-1,2021-08-07 10:48:51,755825
0,-3,0,0,-5,-4,-2,-1,2021-08-07 10:48:51,755825
0,-2,-1,0,0,-1,-2,-1,2021-08-07 10:48:51,755825
-2,-2,-3,-5,-8,-5,-4,-3,2021-08-07 10:48:51,755825
-3,-3,-3,-7,-10,-5,-1,-2,2021-08-07 10:48:51,755825
-1,-3,-4,-7,-3,0,-2,-2,2021-08-07 10:48:51,771825
3,0,2,10,10,4,1,0,2021-08-07 10:48:51,787824
0,0,-1,-2,-1,-1,2,-1,2021-08-07 10:48:51,803824
-2,-2,-3,-7,-4,-3,-3,-1,2021-08-07 10:48:51,803824
0,0,1,8,1,1,1,0,2021-08-07 10:48:51,803824
-2,-1,-1,-5,-6,-3,-2,-2,2021-08-07 10:48:51,803824
0,1,-1,-2,0,-1,-1,0,2021-08-07 10:48:51,803824
-2,-2,-2,-1,-4,-2,-1,0,2021-08-07 10:48:51,804825
-3,-1,-1,1,3,-1,-1,-1,2021-08-07 10:48:51,804825
-1,-2,-1,-1,-1,0,-1,-1,2021-08-07 10:48:51,804825
-1,1,0,0,1,0,1,-1,2021-08-07 10:48:51,804825
-1,-2,-3,-3,-1,-3,0,-2,2021-08-07 10:48:51,804825
-2,-1,-2,-3,-5,-2,-1,0,2021-08-07 10:48:51,804825
-2,-1,-4,-6,-7,-7,-2,-4,2021-08-07 10:48:51,804825
1,-1,-3,-3,-1,0,-1,-1,2021-08-07 10:48:51,804825
2,4,7,20,19,11,2,1,2021-08-07 10:48:51,805826
-1,-2,-1,-7,-7,-4,-1,-1,2021-08-07 10:48:51,834825
1,1,1,1,2,1,1,1,2021-08-07 10:48:51,834825
-1,-3,-4,-7,-7,-4,-3,-2,2021-08-07 10:48:51,834825
0,-1,-3,-6,-2,-2,0,-1,2021-08-07 10:48:51,834825
-1,-2,-1,-2,-2,1,0,0,2021-08-07 10:48:51,850824
-1,-2,3,5,4,2,-1,-2,2021-08-07 10:48:51,866825
-3,-1,0,4,-1,-1,-2,-4,2021-08-07 10:48:51,866825
-3,-2,1,1,5,1,-2,-2,2021-08-07 10:48:51,866825
-1,1,0,-1,-3,-3,-2,-1,2021-08-07 10:48:51,866825
-2,-2,-3,-7,-7,-5,-2,-1,2021-08-07 10:48:51,866825
1,-1,0,1,1,-1,-1,1,2021-08-07 10:48:51,866825
0,1,1,0,-3,-1,1,0,2021-08-07 10:48:51,866825
0,-2,-2,-5,-6,-2,0,-1,2021-08-07 10:48:51,882824
0,0,-2,-3,1,1,0,0,2021-08-07 10:48:51,898826
-1,0,1,3,0,0,0,-1,2021-08-07 10:48:51,898826
-3,-3,-4,-7,-4,-5,-1,-1,2021-08-07 10:48:51,898826
0,2,2,2,6,4,1,1,2021-08-07 10:48:51,914825
1,0,2,6,6,1,1,0,2021-08-07 10:48:51,930824
-1,-1,-2,2,0,1,-1,0,2021-08-07 10:48:51,946827
-3,-4,-5,-10,-9,-2,-2,-2,2021-08-07 10:48:51,962826
0,-3,-4,-4,-3,-2,-2,-1,2021-08-07 10:48:51,978826
0,0,1,0,5,0,0,0,2021-08-07 10:48:51,978826
0,0,-1,-5,-2,0,-3,-1,2021-08-07 10:48:51,978826
1,1,1,1,0,-1,-1,-1,2021-08-07 10:48:51,978826
0,1,1,2,0,-1,-1,-3,2021-08-07 10:48:51,978826
-1,-1,-1,1,-3,-1,0,-2,2021-08-07 10:48:51,978826
-1,-2,-1,-2,-2,-2,0,0,2021-08-07 10:48:51,978826
-2,-2,-3,-6,-4,-2,-2,-1,2021-08-07 10:48:51,978826
-1,-1,1,0,0,-2,-3,-2,2021-08-07 10:48:51,978826
-1,1,2,5,2,2,-1,0,2021-08-07 10:48:51,978826
2,2,5,6,7,6,2,2,2021-08-07 10:48:51,979826
-4,-4,-8,-7,-8,-6,0,-2,2021-08-07 10:48:51,979826
-3,-6,-10,-15,-11,-8,-3,-1,2021-08-07 10:48:51,979826
0,0,-1,1,2,-1,-1,-1,2021-08-07 10:48:51,979826
0,2,1,2,3,3,1,0,2021-08-07 10:48:51,994824
1,1,4,4,2,1,0,-2,2021-08-07 10:48:52,010825
-1,-2,-1,-4,-4,-3,1,1,2021-08-07 10:48:52,010825
-1,-2,-3,-2,-3,-4,-3,-1,2021-08-07 10:48:52,010825
3,1,4,8,5,4,2,1,2021-08-07 10:48:52,010825
3,2,3,7,6,5,1,0,2021-08-07 10:48:52,010825
-3,-3,-4,-4,-5,-4,-3,-3,2021-08-07 10:48:52,026825
-2,-2,-6,-13,-10,-7,-4,-2,2021-08-07 10:48:52,026825
-3,-1,-3,-4,-5,-2,-2,-2,2021-08-07 10:48:52,026825
0,-1,4,8,5,3,-1,0,2021-08-07 10:48:52,026825
0,2,4,4,4,0,0,-2,2021-08-07 10:48:52,042825
1,0,-1,-3,-2,0,0,0,2021-08-07 10:48:52,042825
-2,-4,-4,-1,-3,-4,-3,-3,2021-08-07 10:48:52,042825
0,2,0,1,7,3,0,0,2021-08-07 10:48:52,042825
-1,2,4,5,5,2,1,0,2021-08-07 10:48:52,073826
-3,-4,-3,-6,-7,-5,-3,-2,2021-08-07 10:48:52,089825
-2,-2,-3,-4,-9,-5,-1,-1,2021-08-07 10:48:52,089825
-1,-1,-2,-4,-6,-3,-3,-2,2021-08-07 10:48:52,089825
0,0,0,2,2,2,-1,0,2021-08-07 10:48:52,089825
-2,-3,-1,-1,0,0,0,-1,2021-08-07 10:48:52,089825
-2,-2,1,0,-1,0,-1,-1,2021-08-07 10:48:52,089825
-2,-1,-2,-3,-3,-2,0,-2,2021-08-07 10:48:52,089825
-1,0,2,6,-1,1,0,-1,2021-08-07 10:48:52,101825
-2,-1,-5,-10,-11,-4,-3,-3,2021-08-07 10:48:52,101825
-1,-1,-2,0,5,0,-1,-1,2021-08-07 10:48:52,101825
2,2,3,5,4,0,2,1,2021-08-07 10:48:52,102826
-2,-3,-2,-1,2,0,0,-1,2021-08-07 10:48:52,136826
-1,0,0,0,-6,-1,-1,-2,2021-08-07 10:48:52,152826
-2,-2,-4,-9,-6,-5,-3,-3,2021-08-07 10:48:52,168825
-1,-2,-2,-2,-3,-2,-1,0,2021-08-07 10:48:52,168825
5,5,6,16,16,8,3,4,2021-08-07 10:48:52,169389
-2,-1,-1,0,-1,0,-1,-2,2021-08-07 10:48:52,169389
-4,-2,-5,-12,-11,-7,-3,-1,2021-08-07 10:48:52,169389
0,-1,-1,3,4,1,0,-1,2021-08-07 10:48:52,169825
-2,-1,0,-3,-4,0,0,-1,2021-08-07 10:48:52,169825
1,-1,0,5,4,0,0,1,2021-08-07 10:48:52,169825
1,-2,-1,-4,-6,-2,-2,-1,2021-08-07 10:48:52,169825
-2,-2,0,-2,-3,-2,0,-1,2021-08-07 10:48:52,169825
-2,-3,-4,-7,-6,-3,-2,-2,2021-08-07 10:48:52,184858
-1,1,1,6,5,1,0,0,2021-08-07 10:48:52,200858
-1,-2,-3,-1,-1,0,-1,0,2021-08-07 10:48:52,200858
-2,-1,-1,-6,-5,-2,-1,-1,2021-08-07 10:48:52,200858
-3,-2,-2,-1,1,0,-1,-1,2021-08-07 10:48:52,216858
0,-1,-1,-4,-5,-4,-2,-2,2021-08-07 10:48:52,216858
2,2,0,-6,0,2,1,0,2021-08-07 10:48:52,216858
1,3,7,22,19,7,1,1,2021-08-07 10:48:52,216858
0,-1,-3,-1,-3,-2,1,0,2021-08-07 10:48:52,216858
-1,-1,-2,-1,1,-1,-1,-1,2021-08-07 10:48:52,216858
-2,-3,-4,-7,-10,-5,-2,-1,2021-08-07 10:48:52,232857
-2,-3,-4,-9,-6,-2,-2,-2,2021-08-07 10:48:52,248858
3,2,2,2,-1,1,0,0,2021-08-07 10:48:52,248858
-1,-1,-1,-3,-2,-1,-1,0,2021-08-07 10:48:52,248858
-1,-2,-1,-3,-2,-1,0,-1,2021-08-07 10:48:52,248858
-2,-2,-3,-5,-8,-2,-1,0,2021-08-07 10:48:52,248858
1,-1,0,0,0,1,-2,0,2021-08-07 10:48:52,280858
1,1,-1,2,2,1,1,0,2021-08-07 10:48:52,280858
0,1,2,8,8,3,1,0,2021-08-07 10:48:52,280858
-2,-3,-2,-3,-3,-3,-2,-2,2021-08-07 10:48:52,280858
-1,-3,-4,-5,-6,-3,-2,-1,2021-08-07 10:48:52,280858
-1,-2,-2,-5,-5,0,-2,-1,2021-08-07 10:48:52,280858
-1,1,3,10,8,2,0,-1,2021-08-07 10:48:52,296860
-1,1,-2,-4,-6,-1,-2,0,2021-08-07 10:48:52,296860
-3,-2,-3,-3,1,-3,-1,-3,2021-08-07 10:48:52,312857
-1,0,-3,-5,-3,-2,0,1,2021-08-07 10:48:52,328857
-1,0,0,6,7,2,-1,-1,2021-08-07 10:48:52,343857
-1,0,0,-1,1,-1,-1,-2,2021-08-07 10:48:52,343857
0,1,1,0,2,0,1,0,2021-08-07 10:48:52,343857
-2,-2,0,5,3,1,-1,-1,2021-08-07 10:48:52,343857
0,-2,-2,-5,-7,-3,-1,-1,2021-08-07 10:48:52,343857
0,-1,-3,-2,-4,-2,-2,-2,2021-08-07 10:48:52,343857
0,-1,-1,-4,-3,-1,-1,-2,2021-08-07 10:48:52,359858
0,-1,-1,-2,-2,-2,-1,-1,2021-08-07 10:48:52,359858
-3,-3,-3,-11,-12,-4,-3,-3,2021-08-07 10:48:52,359858
1,4,5,14,11,5,4,0,2021-08-07 10:48:52,359858
0,0,-1,-1,1,1,0,0,2021-08-07 10:48:52,359858
-2,-2,-2,0,-3,-1,-2,-1,2021-08-07 10:48:52,360859
-3,-1,-1,-1,-1,-2,-1,-2,2021-08-07 10:48:52,360859
-1,-1,-4,-7,-5,-2,0,0,2021-08-07 10:48:52,374858
-2,0,1,3,-3,-2,-2,-1,2021-08-07 10:48:52,391055
0,-1,-2,1,5,0,0,0,2021-08-07 10:48:52,406859
-1,-2,0,5,10,4,2,-2,2021-08-07 10:48:52,422859
0,-2,-2,-2,-2,-2,-1,0,2021-08-07 10:48:52,422859
0,-1,0,3,1,0,0,-1,2021-08-07 10:48:52,422859
-1,-2,1,-3,-5,-1,1,-2,2021-08-07 10:48:52,422859
-2,-3,-4,-3,-5,-3,-3,-2,2021-08-07 10:48:52,422859
-2,-1,-1,-6,1,-1,0,-2,2021-08-07 10:48:52,422859
-3,-3,-5,-9,-8,-3,-3,-2,2021-08-07 10:48:52,423859
1,1,2,3,2,0,0,0,2021-08-07 10:48:52,423859
-1,-3,-4,-8,-6,-3,-1,-2,2021-08-07 10:48:52,423859
1,0,3,9,9,5,1,1,2021-08-07 10:48:52,423859
0,1,1,4,10,4,1,-1,2021-08-07 10:48:52,454858
-1,0,1,-1,5,1,1,-2,2021-08-07 10:48:52,470859
-2,0,-2,0,-7,-4,-1,0,2021-08-07 10:48:52,470859
1,-1,2,0,-2,-1,-2,0,2021-08-07 10:48:52,470859
-1,-3,-2,-4,-3,-3,-2,-2,2021-08-07 10:48:52,470859
2,2,0,-2,-2,-1,0,1,2021-08-07 10:48:52,470859
-1,-2,-1,-1,-1,0,-2,-2,2021-08-07 10:48:52,471858
-3,-1,-3,-6,-6,-2,-1,0,2021-08-07 10:48:52,471858
-3,-2,-3,-1,1,0,-1,1,2021-08-07 10:48:52,486859
-2,0,0,0,0,-1,1,-2,2021-08-07 10:48:52,502858
0,0,-2,-4,-4,-3,-2,-1,2021-08-07 10:48:52,518858
-2,-2,-3,-3,-2,-3,-1,-3,2021-08-07 10:48:52,518858
-1,-3,0,-2,-4,-2,-1,-2,2021-08-07 10:48:52,518858
-2,-2,-3,-5,-4,-2,-2,-1,2021-08-07 10:48:52,518858
1,0,4,9,8,3,1,2,2021-08-07 10:48:52,518858
-1,-1,-2,-10,-10,-4,-2,-1,2021-08-07 10:48:52,518858
0,0,2,3,1,0,-1,1,2021-08-07 10:48:52,533859
-2,-2,-3,-7,-6,-3,-2,-1,2021-08-07 10:48:52,533859
0,0,2,9,15,5,1,-1,2021-08-07 10:48:52,534860
0,0,1,3,-3,-1,-1,0,2021-08-07 10:48:52,534860
-2,-1,-3,-6,-7,-5,-1,-2,2021-08-07 10:48:52,550860
-1,1,1,4,5,2,-1,1,2021-08-07 10:48:52,566860
-1,-1,0,-6,-7,-5,0,-1,2021-08-07 10:48:52,566860
-2,0,-3,-2,-1,0,-1,-2,2021-08-07 10:48:52,566860
1,-1,-2,1,-3,-4,0,-1,2021-08-07 10:48:52,566860
-2,-1,-1,1,0,-1,-2,-2,2021-08-07 10:48:52,566860
0,1,0,-2,0,1,-1,0,2021-08-07 10:48:52,566860
1,-1,1,-1,1,0,-1,-1,2021-08-07 10:48:52,567859
0,0,-1,-2,-3,1,-2,-1,2021-08-07 10:48:52,598860
-1,-3,-4,-4,-2,-1,0,0,2021-08-07 10:48:52,598860
-1,-3,-3,-6,-7,-3,0,0,2021-08-07 10:48:52,598860
-2,-4,-4,-2,1,0,2,-1,2021-08-07 10:48:52,598860
-3,1,2,0,-3,-1,1,2,2021-08-07 10:48:52,598860
-3,-1,3,5,9,4,0,-3,2021-08-07 10:48:52,598860
-3,1,3,7,3,1,-3,-3,2021-08-07 10:48:52,599857
-2,-2,-2,-8,-8,-5,-6,-1,2021-08-07 10:48:52,599857
-1,0,2,1,4,0,0,-2,2021-08-07 10:48:52,628857
1,0,-1,-2,-6,-3,0,0,2021-08-07 10:48:52,628857
0,0,0,-4,-3,-2,0,0,2021-08-07 10:48:52,628857
1,0,-1,1,2,0,-1,0,2021-08-07 10:48:52,628857
-1,-1,-3,-2,-3,-1,-1,0,2021-08-07 10:48:52,660859
-1,-1,-2,-3,-4,-1,-1,-1,2021-08-07 10:48:52,676856
-1,-1,-1,7,4,2,-1,-2,2021-08-07 10:48:52,691857
-3,-2,-2,-1,-3,-1,0,-2,2021-08-07 10:48:52,691857
-1,-1,1,0,-1,-1,0,-1,2021-08-07 10:48:52,691857
-1,-1,-2,-1,2,-1,-2,-1,2021-08-07 10:48:52,691857
0,1,0,-1,7,4,0,1,2021-08-07 10:48:52,691857
2,2,3,5,4,0,-1,-1,2021-08-07 10:48:52,692860
-1,-2,-3,1,1,1,0,-2,2021-08-07 10:48:52,692860
-1,-2,-1,0,-3,-1,-1,-2,2021-08-07 10:48:52,692860
-2,-3,-2,-3,-6,-4,-1,-2,2021-08-07 10:48:52,692860
-1,0,0,-1,0,1,-2,-1,2021-08-07 10:48:52,692860
1,-2,-3,-8,-2,0,0,1,2021-08-07 10:48:52,721857
0,0,0,0,-1,-2,-1,0,2021-08-07 10:48:52,737858
-1,-2,-2,-3,-4,-4,-1,-1,2021-08-07 10:48:52,753857
-1,-1,1,-1,-1,-1,-1,-1,2021-08-07 10:48:52,769859
-2,-1,-1,1,-1,0,-2,-1,2021-08-07 10:48:52,769859
-2,-2,-1,0,-1,0,-1,-1,2021-08-07 10:48:52,769859
1,2,-2,1,-2,0,-1,-1,2021-08-07 10:48:52,769859
-2,0,-1,0,-1,0,-1,0,2021-08-07 10:48:52,785857
-1,-2,-1,-5,-5,-3,-2,-2,2021-08-07 10:48:52,801858
0,-1,-1,1,2,-1,0,1,2021-08-07 10:48:52,801858
-3,-1,-1,-5,-6,-3,-2,0,2021-08-07 10:48:52,801858
-1,-3,-1,-2,-4,-2,-1,-1,2021-08-07 10:48:52,801858
-2,-2,-2,-2,-2,0,-3,-3,2021-08-07 10:48:52,801858
1,4,5,9,14,7,3,2,2021-08-07 10:48:52,801858
0,0,0,0,0,0,-1,-1,2021-08-07 10:48:52,801858
-1,-1,-2,-2,1,-1,-1,0,2021-08-07 10:48:52,802859
-1,-2,-2,-3,-5,-4,-1,-2,2021-08-07 10:48:52,802859
-2,-2,-4,-5,-7,-4,-4,-3,2021-08-07 10:48:52,802859
-2,-2,-1,-4,-5,-2,-1,-1,2021-08-07 10:48:52,802859
-1,-1,-1,-3,-1,-2,-1,0,2021-08-07 10:48:52,802859
1,2,1,5,7,4,2,1,2021-08-07 10:48:52,802859
-1,-3,-2,-4,-2,-2,-2,-4,2021-08-07 10:48:52,802859
0,-2,-1,0,0,-1,-2,-1,2021-08-07 10:48:52,802859
-1,-1,-2,-4,-5,-2,0,0,2021-08-07 10:48:52,802859
-6,-5,-5,-3,-4,-4,-2,-3,2021-08-07 10:48:52,832857
3,2,1,2,3,2,0,2,2021-08-07 10:48:52,848857
0,0,0,0,-3,0,0,0,2021-08-07 10:48:52,848857
-9,-9,-8,-6,-7,-6,-6,-7,2021-08-07 10:48:52,848857
-3,-5,-4,0,3,1,-1,-2,2021-08-07 10:48:52,848857
15,18,18,15,12,12,10,11,2021-08-07 10:48:52,848857
2,2,1,3,2,0,2,0,2021-08-07 10:48:52,848857
-1,-1,-1,1,0,-1,-1,-3,2021-08-07 10:48:52,848857
-7,-6,-3,-6,-6,-4,-4,-6,2021-08-07 10:48:52,879858
-7,-8,-11,-13,-13,-7,-5,-6,2021-08-07 10:48:52,894857
2,4,2,3,2,2,0,2,2021-08-07 10:48:52,894857
1,2,-1,2,2,2,1,3,2021-08-07 10:48:52,894857
-2,-1,-1,-2,-3,-2,-1,-2,2021-08-07 10:48:52,894857
-6,-7,-5,-2,-4,-4,-2,-4,2021-08-07 10:48:52,894857
0,-2,-2,-2,-1,-2,-2,-1,2021-08-07 10:48:52,910858
-3,-4,-5,-7,-11,-6,-2,-2,2021-08-07 10:48:52,910858
3,4,1,-2,-6,-3,-1,2,2021-08-07 10:48:52,910858
-1,-1,1,6,8,4,0,0,2021-08-07 10:48:52,910858
-2,-2,-2,3,5,1,-2,-2,2021-08-07 10:48:52,910858
1,-2,0,-1,-4,-2,-2,0,2021-08-07 10:48:52,910858
3,2,1,-2,1,1,2,2,2021-08-07 10:48:52,926859
-2,-1,-3,-2,-11,-6,-3,-4,2021-08-07 10:48:52,942858
-6,-6,-6,-4,-6,-2,-2,-2,2021-08-07 10:48:52,942858
3,5,3,5,5,3,3,2,2021-08-07 10:48:52,942858
-2,-2,-1,-1,-4,-2,-2,-2,2021-08-07 10:48:52,942858
2,1,-3,-6,-3,-2,1,1,2021-08-07 10:48:52,942858
-1,0,1,1,2,1,-2,0,2021-08-07 10:48:52,958858
-1,-1,0,5,3,2,-1,-1,2021-08-07 10:48:52,974859
-2,-1,-1,-2,0,-1,-2,-1,2021-08-07 10:48:52,974859
-1,-1,1,5,3,2,0,-2,2021-08-07 10:48:52,974859
-1,-1,-1,-2,-3,-2,-2,1,2021-08-07 10:48:52,974859
-1,0,1,-2,0,-1,-1,-2,2021-08-07 10:48:52,974859
-1,-1,0,6,6,3,0,0,2021-08-07 10:48:52,984858
-3,-5,-2,-5,-3,-4,-1,0,2021-08-07 10:48:52,984858
-2,-1,-3,-5,-5,-2,0,-1,2021-08-07 10:48:52,984858
0,-1,-3,-5,-8,-3,-1,-1,2021-08-07 10:48:52,984858
3,4,4,9,16,6,2,1,2021-08-07 10:48:53,006858
0,1,0,-4,-3,2,0,-2,2021-08-07 10:48:53,006858
0,-1,2,8,4,2,1,-1,2021-08-07 10:48:53,006858
-1,-2,-2,2,5,2,0,1,2021-08-07 10:48:53,006858
0,0,1,-2,-4,-1,1,2,2021-08-07 10:48:53,022858
-2,-4,-3,-4,-6,-3,-1,-1,2021-08-07 10:48:53,038858
-1,-1,-2,-4,-5,-4,-3,-1,2021-08-07 10:48:53,070858
2,0,0,-4,-4,-2,-1,0,2021-08-07 10:48:53,086858
-1,-1,-2,-1,0,1,-2,0,2021-08-07 10:48:53,102859
-1,-1,-2,1,4,1,-2,-1,2021-08-07 10:48:53,117859
-1,-1,1,0,3,0,1,-1,2021-08-07 10:48:53,149858
0,1,1,2,3,0,0,0,2021-08-07 10:48:53,165858
0,-1,-1,-3,-8,-3,-3,0,2021-08-07 10:48:53,165858
-4,-3,-3,-5,-5,-2,-1,-2,2021-08-07 10:48:53,165858
0,-1,-1,-1,0,0,-1,-2,2021-08-07 10:48:53,165858
1,1,2,-1,-2,0,-1,0,2021-08-07 10:48:53,165858
1,1,2,6,2,-2,0,0,2021-08-07 10:48:53,165858
-4,-4,-5,-6,-5,-4,-3,-4,2021-08-07 10:48:53,166858
0,1,1,4,3,1,2,1,2021-08-07 10:48:53,166858
-2,0,0,0,-3,-2,0,-3,2021-08-07 10:48:53,166858
1,-2,-3,-1,-1,0,0,-3,2021-08-07 10:48:53,166858
-2,-2,-2,1,2,-1,-2,-1,2021-08-07 10:48:53,166858
-1,-1,-3,-5,-6,-3,0,-1,2021-08-07 10:48:53,166858
-1,-2,0,1,3,-1,-1,-1,2021-08-07 10:48:53,166858
-1,-1,1,1,-2,-1,0,0,2021-08-07 10:48:53,167859
-1,-1,-1,-4,-7,-3,-2,-1,2021-08-07 10:48:53,167859
0,0,0,4,4,2,-1,-1,2021-08-07 10:48:53,181858
0,-1,1,-2,-1,-1,-1,1,2021-08-07 10:48:53,181858
-2,-1,-2,-4,-6,-4,-1,-1,2021-08-07 10:48:53,181858
-2,0,-1,-1,-3,0,-2,-2,2021-08-07 10:48:53,181858
-1,-4,-2,-5,2,0,-1,-1,2021-08-07 10:48:53,181858
-1,-1,1,6,3,4,0,-1,2021-08-07 10:48:53,182859
-4,-3,-2,-4,-2,-3,-3,-1,2021-08-07 10:48:53,182859
-1,-1,-1,4,1,-1,0,-1,2021-08-07 10:48:53,182859
-1,0,-2,-5,-8,-2,-2,-2,2021-08-07 10:48:53,182859
-1,0,-4,-4,-2,-2,-1,-1,2021-08-07 10:48:53,182859
-1,0,-1,1,3,1,-1,-1,2021-08-07 10:48:53,182859
-4,-5,-5,-7,-6,-5,-3,-3,2021-08-07 10:48:53,183859
6,6,9,13,7,6,3,5,2021-08-07 10:48:53,183859
-3,-3,-3,-4,-3,-3,-2,-2,2021-08-07 10:48:53,183859
-1,0,-3,-5,-4,-1,-2,-1,2021-08-07 10:48:53,213858
-2,-3,-1,-3,-1,0,-2,-1,2021-08-07 10:48:53,213858
-5,-4,-4,-3,-1,-3,-4,-3,2021-08-07 10:48:53,213858
5,8,5,2,3,1,2,3,2021-08-07 10:48:53,213858
3,2,3,3,0,1,1,1,2021-08-07 10:48:53,229857
-3,-1,-3,-4,0,0,-2,-3,2021-08-07 10:48:53,229857
-6,-9,-8,-5,-4,-4,-5,-6,2021-08-07 10:48:53,229857
-1,-3,-1,-3,-4,-1,-3,-2,2021-08-07 10:48:53,229857
3,2,1,0,1,-2,1,1,2021-08-07 10:48:53,261858
2,2,1,2,0,0,1,2,2021-08-07 10:48:53,276858
0,1,-1,-3,-4,-2,0,1,2021-08-07 10:48:53,276858
-2,-4,-4,0,0,-1,0,-3,2021-08-07 10:48:53,276858
-1,-3,-3,-3,-2,-1,-1,-1,2021-08-07 10:48:53,276858
-1,-4,-1,2,0,-3,-1,-2,2021-08-07 10:48:53,276858
-1,-4,-5,-4,-4,-3,-2,-2,2021-08-07 10:48:53,276858
2,1,-1,0,1,0,-1,0,2021-08-07 10:48:53,276858
3,2,3,1,2,2,0,0,2021-08-07 10:48:53,292858
-1,-1,0,2,0,0,-1,1,2021-08-07 10:48:53,292858
-3,-6,-7,-6,-4,-5,-3,-2,2021-08-07 10:48:53,292858
-2,-3,0,-1,-3,-1,0,0,2021-08-07 10:48:53,292858
1,1,2,2,6,2,1,1,2021-08-07 10:48:53,308858
0,1,1,1,0,-1,1,-3,2021-08-07 10:48:53,308858
3,2,2,-2,-2,-2,0,0,2021-08-07 10:48:53,308858
-1,-2,-2,0,1,-1,0,-1,2021-08-07 10:48:53,308858
-4,-3,-3,-1,-3,-3,-1,-4,2021-08-07 10:48:53,324858
-1,0,-1,-1,-2,-1,-2,-2,2021-08-07 10:48:53,324858
-4,-3,-1,-4,-8,-4,-3,-2,2021-08-07 10:48:53,324858
1,2,1,4,8,6,3,1,2021-08-07 10:48:53,324858
1,-1,-1,0,-1,2,-1,0,2021-08-07 10:48:53,356857
1,0,0,1,7,1,0,0,2021-08-07 10:48:53,371857
-4,-3,-3,-2,-4,-2,-1,-3,2021-08-07 10:48:53,387858
-1,-3,-4,-6,-6,-4,-4,-3,2021-08-07 10:48:53,403857
3,1,0,2,0,1,1,-1,2021-08-07 10:48:53,411859
1,-1,-2,1,-3,-1,0,0,2021-08-07 10:48:53,411859
0,1,-1,0,2,0,1,0,2021-08-07 10:48:53,411859
-3,-3,-6,-6,-8,-4,-2,0,2021-08-07 10:48:53,411859
-3,-5,-4,-5,-1,2,-1,-2,2021-08-07 10:48:53,411859
-2,1,2,6,8,4,0,-1,2021-08-07 10:48:53,411859
-3,-4,-2,-4,-3,-1,-2,-5,2021-08-07 10:48:53,411859
-5,-3,-1,-1,-5,-4,-5,-5,2021-08-07 10:48:53,411859
4,8,8,10,5,1,1,4,2021-08-07 10:48:53,411859
3,-1,-2,-1,-4,-3,-1,1,2021-08-07 10:48:53,412859
2,2,0,-2,4,0,1,1,2021-08-07 10:48:53,412859
-2,-2,-4,-2,-2,-1,-1,-2,2021-08-07 10:48:53,412859
-4,-4,-5,-6,-8,-4,-2,-3,2021-08-07 10:48:53,435858
-1,-3,1,-1,1,2,0,0,2021-08-07 10:48:53,435858
2,3,2,5,4,2,2,3,2021-08-07 10:48:53,451858
0,-1,-1,-1,-1,1,0,-1,2021-08-07 10:48:53,451858
-3,-4,-2,-2,-1,-2,-1,-2,2021-08-07 10:48:53,451858
-1,-1,-1,1,-2,-1,0,-1,2021-08-07 10:48:53,451858
-1,1,0,-3,-3,0,0,0,2021-08-07 10:48:53,451858
-1,2,1,4,1,1,0,0,2021-08-07 10:48:53,451858
-1,-1,-1,0,5,1,-1,-1,2021-08-07 10:48:53,483858
-2,-1,-3,-6,-8,-3,-3,-1,2021-08-07 10:48:53,498857
0,-1,1,1,4,1,0,0,2021-08-07 10:48:53,514860
2,2,2,4,6,3,1,1,2021-08-07 10:48:53,514860
-3,-3,-2,-2,-5,-2,-3,-2,2021-08-07 10:48:53,514860
-2,-3,-2,-3,-2,-1,0,-1,2021-08-07 10:48:53,514860
1,0,1,1,-2,0,-1,0,2021-08-07 10:48:53,514860
-2,0,-2,-1,-1,-1,1,-1,2021-08-07 10:48:53,514860
0,-1,-2,0,0,-1,1,-2,2021-08-07 10:48:53,515858
0,-1,-1,1,-2,-1,-1,0,2021-08-07 10:48:53,515858
-7,-6,-5,-4,-4,-3,-4,-5,2021-08-07 10:48:53,515858
5,6,7,5,5,4,3,4,2021-08-07 10:48:53,515858
-1,-1,-3,-4,-2,-2,-2,-3,2021-08-07 10:48:53,530858
0,-1,0,-1,0,0,1,-1,2021-08-07 10:48:53,530858
-2,-1,-2,0,-1,-1,-1,-2,2021-08-07 10:48:53,530858
-4,-5,-4,-4,-3,-2,-2,-3,2021-08-07 10:48:53,530858
-2,-1,0,-2,-2,-2,-2,0,2021-08-07 10:48:53,546858
0,1,2,0,1,1,0,-1,2021-08-07 10:48:53,562856
-1,0,-2,-1,-3,-2,0,-2,2021-08-07 10:48:53,578856
-1,-2,-1,-2,1,-1,-1,-2,2021-08-07 10:48:53,578856
0,0,-2,-1,-2,0,-1,-1,2021-08-07 10:48:53,578856
-1,-1,-1,-2,-1,-2,-1,-2,2021-08-07 10:48:53,578856
0,2,0,-1,-2,0,-1,1,2021-08-07 10:48:53,578856
-1,-2,0,0,1,0,0,-1,2021-08-07 10:48:53,578856
-2,-1,-2,-1,-2,-2,-1,-1,2021-08-07 10:48:53,579859
-1,1,-2,-3,-4,-4,0,0,2021-08-07 10:48:53,579859
1,0,1,1,0,0,-1,1,2021-08-07 10:48:53,594859
0,-2,-1,-3,-1,-1,0,-1,2021-08-07 10:48:53,594859
-3,-3,-1,-1,-4,-2,-2,-2,2021-08-07 10:48:53,610859
0,0,2,8,9,4,1,0,2021-08-07 10:48:53,610859
-1,-1,-1,-2,0,-2,-1,-1,2021-08-07 10:48:53,610859
-2,-3,-5,-5,-4,-1,-5,-2,2021-08-07 10:48:53,610859
-3,-3,-1,1,-1,-3,-1,0,2021-08-07 10:48:53,641857
1,3,1,-1,-4,0,2,1,2021-08-07 10:48:53,657857
-3,-4,-2,-1,-2,0,-2,-2,2021-08-07 10:48:53,657857
0,-2,-1,-3,-1,0,-1,-2,2021-08-07 10:48:53,657857
0,0,2,0,-1,-2,-1,0,2021-08-07 10:48:53,657857
-1,-2,-4,-3,-2,-1,-3,-3,2021-08-07 10:48:53,657857
-1,-1,-1,1,0,0,-1,-1,2021-08-07 10:48:53,657857
-3,-3,-4,-5,-6,-4,-2,-2,2021-08-07 10:48:53,657857
1,0,2,1,4,2,1,1,2021-08-07 10:48:53,673857
0,-1,0,-1,-1,-2,-2,-2,2021-08-07 10:48:53,689860
0,0,1,1,0,0,-1,0,2021-08-07 10:48:53,689860
-2,-1,-3,-3,-6,-3,-3,-1,2021-08-07 10:48:53,689860
-1,0,-2,-4,3,1,0,-1,2021-08-07 10:48:53,689860
0,-3,-1,1,-3,-1,-3,0,2021-08-07 10:48:53,689860
0,-1,-2,-3,-3,-2,0,-2,2021-08-07 10:48:53,690859
0,-1,0,1,1,-1,0,-1,2021-08-07 10:48:53,690859
0,1,1,1,-1,0,0,-2,2021-08-07 10:48:53,705860
-1,-1,-2,0,2,0,0,-2,2021-08-07 10:48:53,705860
-1,0,2,2,3,0,0,-1,2021-08-07 10:48:53,720858
-1,0,-1,-3,-1,0,-1,0,2021-08-07 10:48:53,720858
-3,-2,-2,-1,0,-2,-2,-2,2021-08-07 10:48:53,736859
0,0,-3,-9,-4,-1,-1,-1,2021-08-07 10:48:53,736859
1,0,1,1,0,0,1,-1,2021-08-07 10:48:53,736859
0,-1,1,2,1,-1,-1,-1,2021-08-07 10:48:53,736859
-1,-2,-3,-3,-4,-2,-1,-1,2021-08-07 10:48:53,752857
0,0,0,-2,-3,-1,-2,-1,2021-08-07 10:48:53,768859
-1,-1,-3,-6,-5,-1,-1,0,2021-08-07 10:48:53,784857
0,1,2,4,4,3,2,0,2021-08-07 10:48:53,784857
0,0,-2,-1,-4,-2,-2,0,2021-08-07 10:48:53,784857
-1,-1,-1,-2,-3,-2,-1,-1,2021-08-07 10:48:53,784857
-2,-3,-2,-1,1,-1,-1,-1,2021-08-07 10:48:53,785858
1,1,0,2,1,1,0,0,2021-08-07 10:48:53,800858
-2,-2,-2,0,1,0,0,-3,2021-08-07 10:48:53,816861
0,0,2,3,4,2,1,0,2021-08-07 10:48:53,816861
2,-1,0,-1,0,-1,2,0,2021-08-07 10:48:53,816861
-4,-2,-4,-4,-5,-4,-3,-1,2021-08-07 10:48:53,816861
-1,-1,-3,-8,-10,-4,-2,-1,2021-08-07 10:48:53,816861
-1,-3,-2,1,-3,-2,-1,-2,2021-08-07 10:48:53,816861
0,1,-1,3,10,2,0,-1,2021-08-07 10:48:53,817858
2,2,3,8,11,3,3,1,2021-08-07 10:48:53,817858
-1,-1,-3,-2,-4,-2,-2,1,2021-08-07 10:48:53,832857
-3,-3,-1,-2,-5,-3,-3,-1,2021-08-07 10:48:53,832857
-2,-2,-3,-4,-6,-3,-1,-1,2021-08-07 10:48:53,832857
-2,-1,-1,-2,-2,-1,-1,-3,2021-08-07 10:48:53,832857
0,-1,-1,-2,2,0,-2,-1,2021-08-07 10:48:53,845858
0,1,-1,-2,0,1,0,0,2021-08-07 10:48:53,846859
0,-2,-1,0,-5,-2,-1,-2,2021-08-07 10:48:53,846859
0,-2,-1,-4,-5,-4,-2,-2,2021-08-07 10:48:53,846859
-2,-3,-4,-6,-2,-1,-2,-3,2021-08-07 10:48:53,880858
1,1,2,7,3,0,0,1,2021-08-07 10:48:53,880858
-1,1,2,-2,0,0,-2,-1,2021-08-07 10:48:53,880858
-1,-2,-3,1,-1,-2,-1,-1,2021-08-07 10:48:53,880858
-2,-1,-3,-8,-10,-4,-2,-2,2021-08-07 10:48:53,880858
-1,2,0,3,13,4,2,-1,2021-08-07 10:48:53,880858
1,-1,0,-2,-5,-3,0,0,2021-08-07 10:48:53,896858
-1,-2,1,1,-2,-2,-1,1,2021-08-07 10:48:53,896858
-1,-3,1,7,7,1,-1,-1,2021-08-07 10:48:53,912859
-3,-3,-6,-13,-6,-2,-1,-2,2021-08-07 10:48:53,928859
2,2,3,3,2,2,0,2,2021-08-07 10:48:53,928859
-1,0,-2,-6,-7,-4,-1,-2,2021-08-07 10:48:53,928859
-1,-2,-2,-5,-4,-3,0,-1,2021-08-07 10:48:53,928859
0,-2,-1,0,-6,-3,-1,-1,2021-08-07 10:48:53,928859
-2,-3,-4,0,-1,1,-1,-3,2021-08-07 10:48:53,928859
-3,-2,-4,-8,-2,-2,-3,-3,2021-08-07 10:48:53,929858
1,1,5,14,6,3,2,-1,2021-08-07 10:48:53,960858
-1,0,-1,-1,-2,-2,0,-1,2021-08-07 10:48:53,975857
0,-1,1,0,2,1,0,1,2021-08-07 10:48:53,991858
-2,-1,-2,-2,-1,-1,-2,-2,2021-08-07 10:48:53,991858
2,1,0,0,2,1,2,0,2021-08-07 10:48:53,991858
-3,-1,-1,1,-5,-3,-2,-3,2021-08-07 10:48:53,991858
-1,1,0,-3,-5,-3,-2,1,2021-08-07 10:48:53,991858
1,-1,3,5,4,2,1,1,2021-08-07 10:48:53,991858
-1,-2,-1,-6,0,1,-1,-1,2021-08-07 10:48:54,007859
0,1,2,6,5,1,1,0,2021-08-07 10:48:54,023859
-1,-2,-1,0,7,2,-1,-1,2021-08-07 10:48:54,038858
-4,-4,-3,-3,-5,-3,-4,-2,2021-08-07 10:48:54,038858
0,1,0,0,-2,-3,-2,0,2021-08-07 10:48:54,038858
3,1,3,5,1,3,1,2,2021-08-07 10:48:54,038858
0,-1,-2,-6,-9,-4,0,-3,2021-08-07 10:48:54,069859
0,-1,0,6,7,0,0,-1,2021-08-07 10:48:54,085858
-3,-1,-5,-4,-3,-3,-4,-1,2021-08-07 10:48:54,085858
-3,-3,-1,-5,-4,-2,0,-1,2021-08-07 10:48:54,085858
-1,-1,-1,2,2,1,-1,0,2021-08-07 10:48:54,085858
2,1,2,2,0,1,1,0,2021-08-07 10:48:54,085858
0,-1,0,-1,0,1,1,-1,2021-08-07 10:48:54,085858
-2,-2,-4,-2,-5,-2,-2,0,2021-08-07 10:48:54,086859
-3,-4,-4,-7,-8,-5,-3,-1,2021-08-07 10:48:54,086859
1,2,3,3,3,2,2,1,2021-08-07 10:48:54,086859
-2,-2,-4,-4,-1,-1,-1,1,2021-08-07 10:48:54,086859
-2,-1,0,2,2,0,-2,1,2021-08-07 10:48:54,086859
1,1,-2,-6,-2,0,0,0,2021-08-07 10:48:54,086859
-3,-2,0,1,-2,0,-2,-1,2021-08-07 10:48:54,086859
1,3,3,4,5,3,3,2,2021-08-07 10:48:54,086859
0,-2,-2,0,0,-1,-1,-1,2021-08-07 10:48:54,087858
-1,-3,-2,-3,-3,-2,-1,-3,2021-08-07 10:48:54,087858
1,0,2,-1,1,1,0,-1,2021-08-07 10:48:54,087858
-2,-1,-2,-4,-3,-2,-3,-4,2021-08-07 10:48:54,116859
-2,-3,-3,-5,-6,-3,-1,-1,2021-08-07 10:48:54,116859
1,1,0,2,3,2,0,0,2021-08-07 10:48:54,116859
-1,-1,-2,-3,-3,0,0,-1,2021-08-07 10:48:54,116859
-1,-1,0,1,-1,-2,-2,0,2021-08-07 10:48:54,132857
0,-1,-1,-6,-2,-2,0,-1,2021-08-07 10:48:54,132857
-2,-1,2,6,4,2,-1,-1,2021-08-07 10:48:54,132857
-2,-1,-2,-6,-7,-4,-2,-1,2021-08-07 10:48:54,132857
-2,-2,-3,-2,0,-1,-1,-1,2021-08-07 10:48:54,148858
2,2,3,5,9,5,3,1,2021-08-07 10:48:54,164857
2,1,2,5,3,2,2,2,2021-08-07 10:48:54,164857
-2,-2,-2,-6,-7,-3,-3,-2,2021-08-07 10:48:54,164857
-1,1,4,12,10,4,1,1,2021-08-07 10:48:54,164857
-1,-2,-5,-7,-6,-4,-4,-2,2021-08-07 10:48:54,164857
0,1,1,4,2,-1,-1,-2,2021-08-07 10:48:54,180858
1,0,-2,-3,-3,0,-1,-1,2021-08-07 10:48:54,180858
1,-2,-3,-5,-5,-2,0,0,2021-08-07 10:48:54,180858
-2,-3,-3,-3,-3,-3,-1,-1,2021-08-07 10:48:54,180858
0,-1,-1,-2,-4,-2,0,-1,2021-08-07 10:48:54,196858
0,-2,-3,-4,1,1,1,1,2021-08-07 10:48:54,196858
0,0,3,7,9,4,2,-1,2021-08-07 10:48:54,212858
-3,-3,-1,2,0,-2,-3,-3,2021-08-07 10:48:54,212858
-4,-3,-1,-1,-1,-3,-2,-5,2021-08-07 10:48:54,212858
-1,2,0,0,-4,-3,-2,-2,2021-08-07 10:48:54,212858
-1,-2,-3,-11,-13,-5,-4,-4,2021-08-07 10:48:54,244858
1,2,4,11,12,5,1,0,2021-08-07 10:48:54,260857
0,0,1,-1,-3,-3,-1,1,2021-08-07 10:48:54,260857
-1,-1,0,0,2,-1,0,1,2021-08-07 10:48:54,260857
0,0,-3,-5,-4,-3,0,-1,2021-08-07 10:48:54,260857
0,0,-1,-6,-5,-4,0,-2,2021-08-07 10:48:54,260857
-2,-1,-4,-7,-3,0,-1,-1,2021-08-07 10:48:54,260857
1,2,4,11,9,3,0,0,2021-08-07 10:48:54,260857
-2,-4,-3,-3,-3,-2,-3,0,2021-08-07 10:48:54,275856
-2,-3,-3,-5,-6,-3,-2,-2,2021-08-07 10:48:54,275856
-3,-3,-2,0,0,1,0,-1,2021-08-07 10:48:54,276859
-2,-2,-3,-5,-3,-2,1,-1,2021-08-07 10:48:54,276859
-1,-1,0,0,-2,-3,-2,0,2021-08-07 10:48:54,291857
-1,-1,-2,-4,-6,-2,-2,0,2021-08-07 10:48:54,306857
-1,0,0,3,1,1,-2,0,2021-08-07 10:48:54,306857
1,1,-1,2,12,4,2,2,2021-08-07 10:48:54,306857
1,1,1,4,5,2,1,-1,2021-08-07 10:48:54,306857
-1,-1,-3,-5,-3,-3,-3,0,2021-08-07 10:48:54,306857
-1,-1,-1,-5,-8,-4,-1,0,2021-08-07 10:48:54,307859
-4,-5,-5,-11,-10,-4,-4,-4,2021-08-07 10:48:54,307859
2,4,8,17,11,5,3,2,2021-08-07 10:48:54,338857
0,0,-2,0,4,3,0,0,2021-08-07 10:48:54,353859
-1,-1,-1,-3,-3,-1,-2,-2,2021-08-07 10:48:54,353859
-2,-2,-2,0,-5,-3,-2,-1,2021-08-07 10:48:54,353859
-1,-1,-3,-5,0,-1,1,-1,2021-08-07 10:48:54,353859
-1,-2,1,-1,-3,-2,-1,-2,2021-08-07 10:48:54,353859
1,-1,1,2,3,0,-1,-1,2021-08-07 10:48:54,353859
-1,-2,0,-1,-1,-2,-2,-2,2021-08-07 10:48:54,354859
-3,-1,-4,-5,-5,-3,-3,-2,2021-08-07 10:48:54,369857
-2,0,0,-1,-3,-1,1,1,2021-08-07 10:48:54,385859
-1,0,-3,1,3,0,0,0,2021-08-07 10:48:54,385859
-2,1,-1,-1,-5,-2,0,-1,2021-08-07 10:48:54,385859
2,1,0,8,12,5,1,2,2021-08-07 10:48:54,385859
1,-1,0,-2,-3,0,1,0,2021-08-07 10:48:54,385859
-1,-2,-1,-4,-5,-5,-2,-2,2021-08-07 10:48:54,385859
-1,-2,1,1,2,0,-2,-1,2021-08-07 10:48:54,385859
-4,-4,-2,-1,-4,-4,-1,-3,2021-08-07 10:48:54,417858
0,0,-2,-3,0,-1,-1,-1,2021-08-07 10:48:54,417858
2,-1,0,3,2,1,1,0,2021-08-07 10:48:54,417858
-3,0,-2,-5,-1,0,0,-1,2021-08-07 10:48:54,417858
-3,-3,-4,-11,-16,-7,-3,-4,2021-08-07 10:48:54,433860
0,-1,1,4,11,4,1,0,2021-08-07 10:48:54,449857
-3,-2,-3,-3,-7,-3,-2,-2,2021-08-07 10:48:54,465857
-2,-1,-1,-1,2,1,0,-1,2021-08-07 10:48:54,465857
0,0,-2,-3,-4,-2,0,-1,2021-08-07 10:48:54,465857
-3,-3,0,-4,-3,-2,-3,-4,2021-08-07 10:48:54,481858
0,1,3,8,10,5,2,0,2021-08-07 10:48:54,497859
-1,-1,-1,-2,-4,-1,-1,0,2021-08-07 10:48:54,497859
-2,-2,-3,-5,-6,-2,-2,-1,2021-08-07 10:48:54,497859
-2,-2,-3,-5,-6,-3,-2,-1,2021-08-07 10:48:54,497859
-3,-1,-3,-3,-2,-3,-2,-3,2021-08-07 10:48:54,497859
2,2,3,8,8,4,3,1,2021-08-07 10:48:54,497859
-1,-2,-1,-2,-2,-1,-1,-2,2021-08-07 10:48:54,498859
-2,1,1,1,0,-1,-1,1,2021-08-07 10:48:54,498859
0,0,-2,-7,-3,-2,-2,1,2021-08-07 10:48:54,498859
-1,1,-2,-1,-7,-5,-1,0,2021-08-07 10:48:54,498859
0,-1,1,4,10,4,2,-2,2021-08-07 10:48:54,512856
-1,0,2,5,0,2,1,-2,2021-08-07 10:48:54,528860
0,-1,-1,0,-3,0,-1,0,2021-08-07 10:48:54,544857
0,-1,0,2,1,-2,-1,0,2021-08-07 10:48:54,544857
0,-1,1,0,7,1,0,0,2021-08-07 10:48:54,544857
0,-1,-3,-2,-5,-1,-2,-1,2021-08-07 10:48:54,544857
2,-1,-3,-3,-2,0,-1,1,2021-08-07 10:48:54,544857
0,-1,-1,-5,-2,-1,-2,0,2021-08-07 10:48:54,545858
-3,-2,1,1,-2,0,-2,-1,2021-08-07 10:48:54,560857
-1,-1,-2,-5,-9,-5,-2,-3,2021-08-07 10:48:54,560857
1,0,2,11,16,8,5,2,2021-08-07 10:48:54,591858
0,0,-1,1,7,3,0,-2,2021-08-07 10:48:54,607859
1,0,0,-4,-8,-2,-1,-2,2021-08-07 10:48:54,623860
-2,-2,-3,-1,-5,-3,-1,-2,2021-08-07 10:48:54,623860
0,1,3,5,5,2,1,-1,2021-08-07 10:48:54,623860
-1,-4,-1,1,-2,-1,-1,-1,2021-08-07 10:48:54,623860
0,1,0,-1,2,-2,-2,1,2021-08-07 10:48:54,623860
-1,-2,-4,-5,-5,-2,-2,-3,2021-08-07 10:48:54,623860
-3,-2,-4,-9,-10,-5,-4,-3,2021-08-07 10:48:54,624858
-1,0,-1,-2,0,1,-1,-1,2021-08-07 10:48:54,624858
-2,0,-1,-4,-3,-1,-1,-1,2021-08-07 10:48:54,624858
0,0,0,0,1,1,0,2,2021-08-07 10:48:54,624858
-2,-1,-2,-2,-2,0,-1,-1,2021-08-07 10:48:54,624858
-1,-1,-4,-6,2,0,-1,0,2021-08-07 10:48:54,624858
2,4,4,5,2,1,0,1,2021-08-07 10:48:54,624858
-1,-2,1,3,5,3,0,-1,2021-08-07 10:48:54,625858
-1,-2,0,-1,-3,-2,-1,-2,2021-08-07 10:48:54,639859
0,-2,-3,-6,-9,-4,-1,-2,2021-08-07 10:48:54,639859
-2,-1,-2,-3,2,0,-1,0,2021-08-07 10:48:54,655896
2,0,2,7,5,2,1,1,2021-08-07 10:48:54,671860
0,-2,-3,-5,-8,-4,-2,-1,2021-08-07 10:48:54,671860
-4,-1,-2,-10,-13,-6,-3,-3,2021-08-07 10:48:54,671860
1,0,0,9,18,7,1,-2,2021-08-07 10:48:54,671860
0,0,0,-1,-4,-4,-2,1,2021-08-07 10:48:54,671860
-3,-4,-4,-6,-8,-5,-3,-3,2021-08-07 10:48:54,671860
2,0,0,1,7,2,0,0,2021-08-07 10:48:54,671860
-2,-1,-1,0,-5,-1,1,0,2021-08-07 10:48:54,686859
-3,-1,-1,1,2,1,-3,-3,2021-08-07 10:48:54,686859
-1,1,0,-3,-3,-2,0,0,2021-08-07 10:48:54,702859
-3,-1,-4,-5,-5,0,0,1,2021-08-07 10:48:54,707859
-3,-3,-2,-2,-3,-2,-3,-2,2021-08-07 10:48:54,707859
2,0,0,-1,1,0,-1,0,2021-08-07 10:48:54,707859
-2,0,-1,-3,-1,-3,-2,-2,2021-08-07 10:48:54,708859
-2,-3,0,1,-4,-3,-3,-2,2021-08-07 10:48:54,708859
0,1,1,0,4,3,3,1,2021-08-07 10:48:54,734859
0,0,-2,2,-4,-1,2,0,2021-08-07 10:48:54,734859
-3,-3,-3,-1,3,2,-2,-1,2021-08-07 10:48:54,734859
3,3,11,20,18,7,3,2,2021-08-07 10:48:54,734859
-4,-3,-6,-7,-10,-5,-3,-1,2021-08-07 10:48:54,765858
-2,-1,-1,-4,-2,0,-3,0,2021-08-07 10:48:54,781858
-2,-2,-1,-1,-4,-3,-1,-2,2021-08-07 10:48:54,797858
0,-2,-3,-8,-9,-5,-3,-1,2021-08-07 10:48:54,797858
0,-1,1,0,-3,-5,-2,-2,2021-08-07 10:48:54,797858
0,-2,0,-1,3,-1,-2,0,2021-08-07 10:48:54,797858
0,0,0,4,6,4,2,1,2021-08-07 10:48:54,797858
1,-1,-2,2,-1,1,1,1,2021-08-07 10:48:54,797858
-2,-2,-2,-9,-8,-5,-1,1,2021-08-07 10:48:54,797858
-1,-1,-4,-6,-5,-2,-1,-3,2021-08-07 10:48:54,797858
-1,-2,-2,-1,-2,-2,0,0,2021-08-07 10:48:54,798859
-1,-2,-2,-1,1,-3,-3,-3,2021-08-07 10:48:54,798859
0,-3,-2,-5,-8,-2,-1,-1,2021-08-07 10:48:54,813859
-3,0,0,0,6,2,1,1,2021-08-07 10:48:54,829857
1,1,-2,1,-2,-1,-2,-1,2021-08-07 10:48:54,845858
2,3,1,6,5,2,3,0,2021-08-07 10:48:54,845858
-5,-4,-4,-2,-6,-5,-2,-4,2021-08-07 10:48:54,845858
-5,-4,-8,-10,-5,-3,-4,-1,2021-08-07 10:48:54,845858
3,4,7,8,5,1,4,2,2021-08-07 10:48:54,845858
0,-2,-1,-1,-1,-2,-2,-3,2021-08-07 10:48:54,845858
-2,-2,-3,-5,-9,-5,-5,-1,2021-08-07 10:48:54,861858
-1,0,-1,-3,-6,0,0,-1,2021-08-07 10:48:54,877858
0,0,2,1,10,3,-1,0,2021-08-07 10:48:54,893856
1,1,2,6,1,0,0,2,2021-08-07 10:48:54,893856
-3,-3,-1,0,-1,-1,-2,-1,2021-08-07 10:48:54,893856
-3,-2,-3,-6,-10,-6,-4,-1,2021-08-07 10:48:54,893856
-1,-3,-2,-2,-2,0,-2,-1,2021-08-07 10:48:54,893856
0,-1,-1,0,2,1,1,0,2021-08-07 10:48:54,894857
1,0,0,-1,1,0,-1,1,2021-08-07 10:48:54,894857
0,0,0,2,-2,-2,0,-3,2021-08-07 10:48:54,894857
-1,-1,-2,-6,-8,-3,-2,0,2021-08-07 10:48:54,908858
-4,-4,-4,-7,-6,-3,-3,-3,2021-08-07 10:48:54,924856
0,0,1,-2,0,-1,-1,-2,2021-08-07 10:48:54,924856
-1,-2,0,4,7,2,-1,-2,2021-08-07 10:48:54,924856
-2,-2,-3,-1,1,0,-1,-2,2021-08-07 10:48:54,925858
1,2,0,-1,-1,1,1,1,2021-08-07 10:48:54,925858
-2,-1,-2,-3,-4,-1,-1,0,2021-08-07 10:48:54,925858
0,-2,0,1,1,-3,-1,-2,2021-08-07 10:48:54,925858
-1,-2,-4,-14,-8,-4,-1,-3,2021-08-07 10:48:54,940858
-2,-1,1,1,0,-2,0,-1,2021-08-07 10:48:54,940858
0,1,0,-2,0,1,0,-2,2021-08-07 10:48:54,956858
1,0,3,10,11,4,1,1,2021-08-07 10:48:54,972858
-1,-1,-1,0,-1,-3,-1,0,2021-08-07 10:48:54,972858
-1,-2,-4,-11,-7,-1,0,0,2021-08-07 10:48:54,972858
-1,-1,-1,6,4,1,0,-2,2021-08-07 10:48:54,972858
-1,-2,-2,-4,-7,-2,0,-1,2021-08-07 10:48:54,972858
1,0,-3,-2,-5,-2,-2,-3,2021-08-07 10:48:54,973859
-5,-5,-5,-3,3,-2,-4,-1,2021-08-07 10:48:54,973859
5,6,10,23,16,7,5,5,2021-08-07 10:48:54,988858
0,-1,-2,-8,-6,-2,0,-2,2021-08-07 10:48:55,004858
2,1,3,0,1,3,1,1,2021-08-07 10:48:55,004858
-1,-2,-3,0,-6,-3,-2,-3,2021-08-07 10:48:55,004858
-1,-2,-2,-4,-1,-4,-1,-3,2021-08-07 10:48:55,004858
-1,-1,-3,-1,-2,-2,-1,-2,2021-08-07 10:48:55,004858
0,-1,2,4,0,0,-2,1,2021-08-07 10:48:55,020858
-3,-1,0,0,-3,-1,-1,-1,2021-08-07 10:48:55,036857
-1,-2,-4,-8,-11,-4,-1,1,2021-08-07 10:48:55,036857
3,3,4,8,13,4,4,5,2021-08-07 10:48:55,036857
-4,-4,-6,-3,2,0,0,-2,2021-08-07 10:48:55,036857
-1,-2,0,-2,0,-1,-3,-2,2021-08-07 10:48:55,036857
-3,-2,1,4,3,1,-2,-5,2021-08-07 10:48:55,051861
-6,-1,-1,-4,-6,-3,-3,-4,2021-08-07 10:48:55,067858
-2,-1,-2,-7,-6,-4,-4,-1,2021-08-07 10:48:55,067858
2,3,3,3,10,4,2,2,2021-08-07 10:48:55,067858
2,1,-1,-2,1,1,-2,0,2021-08-07 10:48:55,067858
-2,-3,-4,-8,-11,-6,-3,-3,2021-08-07 10:48:55,067858
2,2,3,8,14,8,3,2,2021-08-07 10:48:55,067858
2,-1,1,-2,-4,-1,1,0,2021-08-07 10:48:55,068863
-1,-2,-2,3,4,0,-1,-1,2021-08-07 10:48:55,099858
-3,-4,-6,-13,-11,-5,-3,-3,2021-08-07 10:48:55,115860
-3,-1,4,9,0,-2,-1,-1,2021-08-07 10:48:55,131859
2,1,1,3,6,3,0,0,2021-08-07 10:48:55,131859
0,1,1,-2,-2,-1,1,1,2021-08-07 10:48:55,131859
-2,-3,-3,-3,0,0,-1,-1,2021-08-07 10:48:55,131859
-2,-3,-3,-2,-6,-4,-2,-3,2021-08-07 10:48:55,131859
0,1,1,0,2,1,-1,-3,2021-08-07 10:48:55,131859
0,-1,-1,-1,2,1,-1,0,2021-08-07 10:48:55,131859
-1,-1,-1,0,3,-1,-2,-1,2021-08-07 10:48:55,132861
-1,0,0,-5,-11,-4,0,0,2021-08-07 10:48:55,162858
-2,-2,-2,4,8,0,-1,0,2021-08-07 10:48:55,162858
-2,-3,-3,-7,-6,-1,-3,-3,2021-08-07 10:48:55,162858
-1,-1,0,1,0,0,0,0,2021-08-07 10:48:55,162858
-1,-2,-5,-9,-11,-5,-3,-3,2021-08-07 10:48:55,162858
-3,-3,-1,6,-6,-2,-3,0,2021-08-07 10:48:55,162858
-2,-3,-6,-12,-6,-3,-2,-2,2021-08-07 10:48:55,162858
2,4,8,22,23,10,4,1,2021-08-07 10:48:55,162858
0,0,3,12,12,4,2,0,2021-08-07 10:48:55,177860
-4,-4,-7,-14,-22,-11,-4,-4,2021-08-07 10:48:55,177860
0,-2,-1,-5,-7,-4,-1,0,2021-08-07 10:48:55,192857
0,-1,-1,1,-4,0,1,2,2021-08-07 10:48:55,192857
2,2,0,1,13,5,2,2,2021-08-07 10:48:55,192857
-2,1,2,5,2,1,-1,0,2021-08-07 10:48:55,192857
1,3,5,10,6,2,3,1,2021-08-07 10:48:55,224860
-2,-3,-4,-8,-16,-7,-3,-2,2021-08-07 10:48:55,240857
-4,-2,-3,2,0,-3,-2,-2,2021-08-07 10:48:55,256857
-3,-4,-6,-13,-9,-5,-2,-1,2021-08-07 10:48:55,256857
0,1,1,8,10,4,0,0,2021-08-07 10:48:55,256857
0,2,3,2,3,2,0,1,2021-08-07 10:48:55,256857
0,-4,-2,-8,-8,-3,-1,-2,2021-08-07 10:48:55,288857
0,2,2,8,7,2,1,0,2021-08-07 10:48:55,288857
-4,-4,-7,-16,-16,-8,-3,-3,2021-08-07 10:48:55,288857
0,1,2,11,21,8,0,0,2021-08-07 10:48:55,288857
1,1,0,-3,-6,-1,-1,1,2021-08-07 10:48:55,288857
2,1,4,6,15,4,2,1,2021-08-07 10:48:55,288857
-3,-4,-7,-17,-23,-8,-1,-3,2021-08-07 10:48:55,289858
0,0,0,10,10,1,1,-1,2021-08-07 10:48:55,289858
-2,-2,0,5,6,2,-2,-2,2021-08-07 10:48:55,289858
-1,-3,-5,-11,-15,-7,-2,-2,2021-08-07 10:48:55,289858
0,0,-2,3,6,1,0,1,2021-08-07 10:48:55,289858
-1,-4,-6,-11,-15,-8,-2,-2,2021-08-07 10:48:55,289858
-4,-2,1,3,1,-1,-3,-3,2021-08-07 10:48:55,290860
1,-2,-3,-4,-2,0,2,-1,2021-08-07 10:48:55,290860
-2,1,-1,4,9,2,1,-1,2021-08-07 10:48:55,304858
0,0,1,-8,-13,-5,-3,-1,2021-08-07 10:48:55,320857
0,-1,-4,-12,-14,-5,-2,1,2021-08-07 10:48:55,320857
2,3,9,24,32,17,6,3,2021-08-07 10:48:55,320857
-1,-1,2,5,-1,0,-2,-1,2021-08-07 10:48:55,352859
-2,-3,-4,-7,-1,-2,0,-3,2021-08-07 10:48:55,368858
-1,-2,-5,-12,-21,-12,-4,-2,2021-08-07 10:48:55,368858
-3,-2,-3,-8,-12,-5,-5,-3,2021-08-07 10:48:55,368858
0,-1,0,6,8,4,0,0,2021-08-07 10:48:55,368858
-3,-1,1,-1,-1,0,-2,-2,2021-08-07 10:48:55,368858
-2,0,-1,3,7,1,0,0,2021-08-07 10:48:55,368858
-3,-3,-9,-21,-23,-8,-3,-2,2021-08-07 10:48:55,368858
0,0,6,14,15,4,0,-1,2021-08-07 10:48:55,369859
1,2,3,5,-4,-1,0,0,2021-08-07 10:48:55,369859
0,-1,-2,-2,2,2,0,-2,2021-08-07 10:48:55,369859
-3,-4,-6,-12,-12,-6,-3,-2,2021-08-07 10:48:55,369859
0,0,4,11,12,3,1,-1,2021-08-07 10:48:55,400857
1,1,5,8,15,6,3,2,2021-08-07 10:48:55,400857
0,2,1,6,10,6,2,0,2021-08-07 10:48:55,400857
-1,-2,-5,-10,-11,-7,-3,-3,2021-08-07 10:48:55,400857
-2,-4,-7,-13,-17,-7,-4,-1,2021-08-07 10:48:55,416860
0,-2,-1,-8,-9,-4,-4,-2,2021-08-07 10:48:55,432857
-1,-1,7,23,22,8,1,-1,2021-08-07 10:48:55,448858
3,3,1,0,4,4,4,2,2021-08-07 10:48:55,464858
-4,-4,-12,-30,-24,-11,-5,-3,2021-08-07 10:48:55,480858
0,1,3,15,9,2,1,1,2021-08-07 10:48:55,480858
-4,-4,-5,-5,-6,-4,-2,-1,2021-08-07 10:48:55,480858
-1,0,4,15,13,5,1,0,2021-08-07 10:48:55,480858
5,2,2,3,5,4,3,4,2021-08-07 10:48:55,480858
-2,-1,-4,-10,-11,-4,-2,-2,2021-08-07 10:48:55,480858
-6,-4,-4,-17,-24,-12,-6,-5,2021-08-07 10:48:55,481859
2,4,6,20,27,10,5,4,2021-08-07 10:48:55,481859
-2,0,-2,4,7,2,0,-1,2021-08-07 10:48:55,481859
-3,-2,-3,-6,-4,-1,-3,-2,2021-08-07 10:48:55,481859
-2,0,0,3,-1,-1,-2,-1,2021-08-07 10:48:55,481859
-1,-2,-3,-12,-14,-8,-2,-3,2021-08-07 10:48:55,481859
0,2,3,-3,-4,-1,0,-2,2021-08-07 10:48:55,496859
-1,-1,-4,-2,0,0,-1,-1,2021-08-07 10:48:55,512858
0,0,-3,4,6,0,-1,0,2021-08-07 10:48:55,512858
-5,-5,-7,-8,-12,-6,-4,-4,2021-08-07 10:48:55,512858
-2,-2,-1,-4,-3,-2,-4,-2,2021-08-07 10:48:55,512858
1,3,4,4,-4,1,0,0,2021-08-07 10:48:55,512858
2,3,4,6,12,6,3,1,2021-08-07 10:48:55,512858
0,-2,0,3,5,2,-3,-1,2021-08-07 10:48:55,512858
1,-2,0,10,6,2,0,0,2021-08-07 10:48:55,543858
-5,-3,-4,-10,-13,-9,-4,-3,2021-08-07 10:48:55,543858
-2,-1,-3,-15,-12,-4,-2,-1,2021-08-07 10:48:55,543858
2,2,6,18,17,6,2,1,2021-08-07 10:48:55,543858
-3,-3,-5,-9,-12,-5,-4,-3,2021-08-07 10:48:55,543858
3,4,2,6,5,4,2,3,2021-08-07 10:48:55,543858
2,4,6,19,18,8,5,2,2021-08-07 10:48:55,544860
0,-2,0,-5,-8,-4,-3,0,2021-08-07 10:48:55,544860
-3,-3,-4,-4,-1,-1,-2,-4,2021-08-07 10:48:55,575858
-3,-5,-6,-11,-10,-6,-2,-3,2021-08-07 10:48:55,575858
2,2,-2,-8,-6,-2,0,0,2021-08-07 10:48:55,575858
-3,-3,-8,-17,-11,-6,-2,-3,2021-08-07 10:48:55,591859
-2,0,0,10,2,1,-1,0,2021-08-07 10:48:55,607859
-4,-2,-1,0,1,-2,-2,-3,2021-08-07 10:48:55,607859
-3,-4,-4,-6,-1,-3,-3,-1,2021-08-07 10:48:55,607859
0,2,1,-3,-2,2,2,1,2021-08-07 10:48:55,607859
4,7,12,22,16,5,4,3,2021-08-07 10:48:55,607859
-2,-2,-4,-11,-12,-5,-3,-2,2021-08-07 10:48:55,607859
-1,-2,-3,-3,-1,-1,-3,0,2021-08-07 10:48:55,608859
-3,-2,-5,0,-8,-4,-3,-3,2021-08-07 10:48:55,608859
-1,-1,-1,4,10,4,2,0,2021-08-07 10:48:55,639858
-2,-2,-5,-6,-5,-3,-2,-1,2021-08-07 10:48:55,655859
-1,-2,-4,-8,-10,-6,-2,0,2021-08-07 10:48:55,671858
-2,-2,1,-4,-3,-4,-3,-2,2021-08-07 10:48:55,687857
1,3,-3,-6,-6,0,1,1,2021-08-07 10:48:55,703858
-1,-4,-5,1,3,-2,-2,-1,2021-08-07 10:48:55,703858
0,-1,-4,-8,-8,-4,0,-1,2021-08-07 10:48:55,703858
-3,0,2,10,8,0,-2,-2,2021-08-07 10:48:55,703858
1,2,3,-6,-2,1,1,0,2021-08-07 10:48:55,703858
0,1,1,-1,5,5,0,1,2021-08-07 10:48:55,703858
0,-1,-1,-5,-7,-6,-4,-3,2021-08-07 10:48:55,704859
0,0,0,3,0,-1,-2,0,2021-08-07 10:48:55,704859
-4,-5,-6,-15,-11,-7,-4,-3,2021-08-07 10:48:55,704859
2,2,4,21,24,10,2,1,2021-08-07 10:48:55,704859
3,3,6,11,23,11,5,3,2021-08-07 10:48:55,704859
-1,-2,-4,-4,-11,-6,-2,-2,2021-08-07 10:48:55,704859
-1,-2,-6,-12,-15,-10,-5,-3,2021-08-07 10:48:55,719858
-1,1,0,-1,-2,-1,-1,1,2021-08-07 10:48:55,735858
-1,-3,-5,-5,-9,-3,-2,-2,2021-08-07 10:48:55,735858
-1,-1,-4,-12,-5,0,0,-1,2021-08-07 10:48:55,735858
-1,-1,1,4,-1,1,-2,1,2021-08-07 10:48:55,735858
1,0,2,4,5,2,3,1,2021-08-07 10:48:55,735858
0,-1,0,1,-7,-1,-1,0,2021-08-07 10:48:55,767859
1,-1,-1,-10,0,1,1,2,2021-08-07 10:48:55,767859
-3,-6,-6,-1,-5,-4,-1,-4,2021-08-07 10:48:55,767859
-1,-2,-1,-2,4,0,1,0,2021-08-07 10:48:55,767859
-4,-2,-9,-20,-22,-9,-5,-3,2021-08-07 10:48:55,767859
-1,1,4,19,17,8,3,0,2021-08-07 10:48:55,767859
2,2,6,4,9,5,1,3,2021-08-07 10:48:55,783858
0,-2,-1,4,1,-2,-1,-1,2021-08-07 10:48:55,799857
-5,-3,-4,-7,-12,-8,-5,-3,2021-08-07 10:48:55,799857
-1,1,0,-3,2,0,1,-2,2021-08-07 10:48:55,799857
2,5,6,11,4,2,2,2,2021-08-07 10:48:55,799857
-3,-2,-4,-10,-11,-5,-1,-1,2021-08-07 10:48:55,799857
0,-4,-6,-11,-10,-4,-2,0,2021-08-07 10:48:55,799857
-2,-1,0,3,-2,-2,-1,-2,2021-08-07 10:48:55,799857
-1,1,5,13,17,7,3,1,2021-08-07 10:48:55,815859
-2,-3,0,2,-4,-4,-3,-2,2021-08-07 10:48:55,831860
-3,-3,-5,-4,-3,-2,-1,-2,2021-08-07 10:48:55,847859
-3,-2,-3,-4,-5,-3,-3,0,2021-08-07 10:48:55,863858
-1,-3,-6,-12,-14,-6,-3,-5,2021-08-07 10:48:55,879858
-2,-2,-4,-15,-16,-5,-4,-4,2021-08-07 10:48:55,879858
6,6,13,34,41,19,7,3,2021-08-07 10:48:55,879858
1,0,2,3,-2,-1,-2,-3,2021-08-07 10:48:55,879858
-4,-3,-4,-12,-13,-5,-3,-3,2021-08-07 10:48:55,879858
-1,-3,-5,-5,-1,-2,-1,-2,2021-08-07 10:48:55,879858
0,0,1,-1,-7,-5,-1,0,2021-08-07 10:48:55,880859
6,5,3,5,23,11,7,6,2021-08-07 10:48:55,880859
-2,-4,-6,-5,-9,-6,-1,-2,2021-08-07 10:48:55,880859
-2,-3,-6,-10,-9,-4,-1,-1,2021-08-07 10:48:55,880859
-2,-4,-1,6,6,3,1,-2,2021-08-07 10:48:55,880859
-7,-6,-4,-9,-17,-9,-6,-5,2021-08-07 10:48:55,880859
-4,-3,-3,-1,3,-1,-3,-3,2021-08-07 10:48:55,895858
-1,3,3,7,0,0,-1,-2,2021-08-07 10:48:55,895858
3,5,5,11,16,4,1,2,2021-08-07 10:48:55,895858
2,3,3,4,-7,-2,-1,0,2021-08-07 10:48:55,895858
1,0,0,-3,4,2,1,1,2021-08-07 10:48:55,911857
1,0,6,12,12,4,0,0,2021-08-07 10:48:55,911857
0,-1,0,2,-7,-2,0,0,2021-08-07 10:48:55,911857
-1,-1,-3,-8,-7,-4,-2,-1,2021-08-07 10:48:55,911857
-2,-3,-4,-6,5,0,-2,-2,2021-08-07 10:48:55,943859
0,-1,-4,-4,-8,-3,-2,-2,2021-08-07 10:48:55,943859
-4,-3,-5,-11,-14,-8,-4,-4,2021-08-07 10:48:55,943859
0,0,1,6,10,5,4,0,2021-08-07 10:48:55,943859
-2,-1,0,0,-2,-1,-2,-2,2021-08-07 10:48:55,959856
0,3,7,10,17,7,1,2,2021-08-07 10:48:55,959856
1,3,3,2,-3,-1,0,-1,2021-08-07 10:48:55,974858
0,-1,-4,-6,-13,-1,-1,0,2021-08-07 10:48:55,974858
-1,-3,-5,-2,0,-3,-2,-1,2021-08-07 10:48:55,974858
-4,-4,-6,-16,-12,-7,-5,-4,2021-08-07 10:48:55,974858
-1,-1,1,-5,-3,-1,-1,-2,2021-08-07 10:48:55,974858
6,6,12,30,25,10,5,3,2021-08-07 10:48:55,974858
1,1,2,10,8,6,2,3,2021-08-07 10:48:55,991893
-3,-4,-2,-1,-6,-5,-1,-1,2021-08-07 10:48:55,991893
-2,-4,-2,-5,-6,-3,-2,-2,2021-08-07 10:48:55,991893
-4,-7,-8,-15,-17,-10,-5,-4,2021-08-07 10:48:55,991893
1,-1,0,-1,-2,0,-1,0,2021-08-07 10:48:56,022893
3,3,3,3,7,5,2,2,2021-08-07 10:48:56,022893
0,2,3,10,11,4,0,0,2021-08-07 10:48:56,038891
-2,-3,-1,0,1,0,-2,-1,2021-08-07 10:48:56,053895
-1,0,0,-5,-7,-4,0,0,2021-08-07 10:48:56,069894
-1,-3,-3,-1,-3,-4,-3,-3,2021-08-07 10:48:56,069894
1,0,-4,-8,-2,-2,-2,0,2021-08-07 10:48:56,069894
-2,-3,-7,-23,-20,-8,-3,-2,2021-08-07 10:48:56,069894
0,1,6,15,8,2,2,-1,2021-08-07 10:48:56,070893
1,0,2,0,-2,0,1,0,2021-08-07 10:48:56,070893
1,0,4,20,22,10,4,1,2021-08-07 10:48:56,070893
-3,-4,-9,-11,-5,-5,-3,-2,2021-08-07 10:48:56,070893
-3,-2,-4,-8,-11,-4,-2,-2,2021-08-07 10:48:56,070893
-2,-2,-5,-15,-9,-3,-1,-2,2021-08-07 10:48:56,070893
-2,-2,-3,2,0,-3,-1,-2,2021-08-07 10:48:56,070893
-1,-1,-3,-10,-8,-3,-1,-2,2021-08-07 10:48:56,071893
3,4,6,14,9,4,2,3,2021-08-07 10:48:56,101893
2,1,3,10,11,5,3,1,2021-08-07 10:48:56,117893
0,0,0,-3,-6,-4,-1,1,2021-08-07 10:48:56,133893
-1,0,2,4,5,2,1,-2,2021-08-07 10:48:56,149891
-6,-6,-9,-19,-18,-10,-7,-5,2021-08-07 10:48:56,164891
0,-1,0,9,4,2,2,2,2021-08-07 10:48:56,164891
2,1,3,-2,-2,1,1,0,2021-08-07 10:48:56,164891
-1,-1,3,9,11,3,0,0,2021-08-07 10:48:56,164891
0,0,-2,-7,-6,-3,-1,-1,2021-08-07 10:48:56,164891
-1,-1,-4,-8,-12,-5,-3,-1,2021-08-07 10:48:56,164891
-1,1,4,10,14,6,2,1,2021-08-07 10:48:56,165892
-2,-2,-3,-5,-7,-3,-1,0,2021-08-07 10:48:56,165892
0,2,3,10,10,3,1,1,2021-08-07 10:48:56,165892
-3,-4,-4,-7,-3,0,1,-1,2021-08-07 10:48:56,165892
0,-1,-1,8,0,-2,-1,-2,2021-08-07 10:48:56,165892
0,3,-1,-2,-6,-2,-1,-2,2021-08-07 10:48:56,165892
-2,-2,0,2,8,2,1,-2,2021-08-07 10:48:56,180893
-1,0,0,-2,-3,-4,0,-1,2021-08-07 10:48:56,196893
-1,-1,-4,-11,-13,-5,-1,-2,2021-08-07 10:48:56,212404
-2,-1,0,2,1,1,-1,-2,2021-08-07 10:48:56,212404
-2,-4,-7,-9,-9,-5,-3,0,2021-08-07 10:48:56,212404
3,1,-1,5,5,3,0,0,2021-08-07 10:48:56,212404
-2,-3,-2,0,1,0,-2,-1,2021-08-07 10:48:56,212404
-2,-3,0,3,11,2,-1,-1,2021-08-07 10:48:56,212404
1,2,4,8,8,7,2,1,2021-08-07 10:48:56,228403
1,-1,1,4,-1,-3,-2,-1,2021-08-07 10:48:56,244404
-2,-3,-3,-9,-4,-3,-1,-1,2021-08-07 10:48:56,260404
3,3,3,8,2,1,2,1,2021-08-07 10:48:56,276404
-2,-2,-2,-7,-6,-3,-1,-2,2021-08-07 10:48:56,276404
-3,-4,-3,-1,2,0,-2,-3,2021-08-07 10:48:56,276404
-2,-1,-4,-9,-12,-7,-3,-4,2021-08-07 10:48:56,276404
-2,-2,0,-6,-3,-3,-2,-1,2021-08-07 10:48:56,276404
4,5,9,10,17,10,4,2,2021-08-07 10:48:56,292404
0,0,-4,0,-5,-3,-2,0,2021-08-07 10:48:56,292404
-7,-12,-20,-35,-30,-17,-10,-6,2021-08-07 10:48:56,292404
0,1,0,6,8,2,0,0,2021-08-07 10:48:56,292404
-1,-2,-3,-6,-7,-3,-2,-1,2021-08-07 10:48:56,292404
2,3,6,4,6,2,1,2,2021-08-07 10:48:56,292404
0,-1,0,-2,-4,0,0,0,2021-08-07 10:48:56,292404
0,0,4,14,18,6,1,0,2021-08-07 10:48:56,308404
-2,-4,-6,-19,-25,-11,-5,-2,2021-08-07 10:48:56,324405
-3,-2,-2,-7,-2,1,0,-2,2021-08-07 10:48:56,324405
3,3,6,17,17,6,2,0,2021-08-07 10:48:56,324405
3,2,-1,-7,-9,-3,-1,0,2021-08-07 10:48:56,324405
-3,-3,-3,-5,2,-1,-2,-2,2021-08-07 10:48:56,324405
-4,-3,-4,-8,-14,-8,-5,-4,2021-08-07 10:48:56,324405
-1,-1,-1,-4,-1,-1,1,-1,2021-08-07 10:48:56,325404
-2,-2,1,6,4,1,-3,-3,2021-08-07 10:48:56,325404
0,0,-1,1,1,0,0,-1,2021-08-07 10:48:56,355403
-2,-4,-5,-6,-7,-4,-2,-2,2021-08-07 10:48:56,371404
0,1,2,4,6,2,0,0,2021-08-07 10:48:56,386442
4,3,3,-3,-7,-4,1,2,2021-08-07 10:48:56,402406
-4,-5,-7,-5,-10,-6,-4,-2,2021-08-07 10:48:56,402406
2,0,2,2,5,4,1,0,2021-08-07 10:48:56,402406
2,4,6,22,28,11,3,1,2021-08-07 10:48:56,403444
