EMG 1,EMG 2,EMG 3,EMG 4,EMG 5,EMG 6,EMG 7,EMG 8,Timestamp,Milliseconds
0,0,2,5,9,7,3,2,2021-08-07 13:02:32,121489
3,5,3,2,3,2,2,2,2021-08-07 13:02:32,121489
-4,-6,-4,-6,-5,-5,-4,-3,2021-08-07 13:02:32,121489
-4,-6,-7,-16,-28,-18,-9,-5,2021-08-07 13:02:32,121489
3,5,6,13,21,12,7,3,2021-08-07 13:02:32,137489
-1,-3,-1,4,6,3,0,-1,2021-08-07 13:02:32,137489
2,0,2,7,13,7,1,-2,2021-08-07 13:02:32,137489
-3,-1,-1,-4,-5,-5,-3,0,2021-08-07 13:02:32,137489
0,-2,-3,-6,-7,-3,-2,0,2021-08-07 13:02:32,137489
0,-1,-2,-2,-2,0,0,1,2021-08-07 13:02:32,137489
-1,-2,-4,-5,-6,-6,-1,-1,2021-08-07 13:02:32,137489
-7,-9,-9,-4,-2,-3,-2,-4,2021-08-07 13:02:32,137489
1,4,7,7,2,0,1,1,2021-08-07 13:02:32,137489
0,3,3,6,5,3,3,2,2021-08-07 13:02:32,137489
-6,-7,-5,-6,-13,-10,-8,-7,2021-08-07 13:02:32,153489
4,4,3,-1,0,0,-1,1,2021-08-07 13:02:32,153489
2,1,3,5,11,5,3,2,2021-08-07 13:02:32,153489
0,-2,-1,-1,0,-2,-1,-1,2021-08-07 13:02:32,153489
-1,0,1,-2,-4,-2,-1,0,2021-08-07 13:02:32,185488
-4,-5,-5,-1,0,2,-2,-2,2021-08-07 13:02:32,201491
-2,-3,-6,-11,-11,-5,-3,-2,2021-08-07 13:02:32,201491
0,3,3,6,2,0,0,1,2021-08-07 13:02:32,201491
-1,-2,-2,-4,-4,-3,-2,0,2021-08-07 13:02:32,201491
0,0,1,1,8,3,1,-2,2021-08-07 13:02:32,201491
2,2,3,5,8,5,3,1,2021-08-07 13:02:32,233490
-2,-2,-3,0,5,2,1,-2,2021-08-07 13:02:32,233490
-1,-2,-2,-3,-3,-4,-2,-1,2021-08-07 13:02:32,233490
0,-3,-3,0,0,1,1,1,2021-08-07 13:02:32,233490
1,3,3,2,0,0,-1,1,2021-08-07 13:02:32,248489
-1,0,0,-2,-5,-4,-1,-1,2021-08-07 13:02:32,264487
0,-2,-1,-1,-2,-2,-1,-2,2021-08-07 13:02:32,280489
-2,-3,-4,-2,-2,-1,-1,-2,2021-08-07 13:02:32,296488
0,0,0,-1,-4,-1,-2,0,2021-08-07 13:02:32,296488
0,0,-2,-2,-3,-3,-2,1,2021-08-07 13:02:32,296488
1,2,3,3,4,3,0,0,2021-08-07 13:02:32,296488
1,-1,-1,1,4,1,1,0,2021-08-07 13:02:32,296488
-3,-3,-3,0,0,1,-2,-2,2021-08-07 13:02:32,296488
-3,-4,-3,-4,-5,-4,-4,-4,2021-08-07 13:02:32,296488
0,-3,-2,-3,-4,-2,-1,-1,2021-08-07 13:02:32,296488
0,2,1,4,2,0,-1,2,2021-08-07 13:02:32,296488
-1,-1,0,-1,1,0,-2,0,2021-08-07 13:02:32,296488
-4,-3,-5,-12,-18,-13,-6,-4,2021-08-07 13:02:32,297492
1,3,2,7,14,9,4,1,2021-08-07 13:02:32,298489
2,3,4,7,14,7,4,1,2021-08-07 13:02:32,298489
-1,-1,-2,-3,-4,-3,-1,-2,2021-08-07 13:02:32,311488
-1,-2,-3,1,-1,0,-2,-1,2021-08-07 13:02:32,311488
-2,-2,-2,-2,-5,-3,-2,0,2021-08-07 13:02:32,327490
-1,-3,-1,-5,-7,-5,-2,-2,2021-08-07 13:02:32,327490
1,2,1,2,2,1,1,0,2021-08-07 13:02:32,327490
-1,-2,0,2,0,2,-1,-1,2021-08-07 13:02:32,327490
-3,-4,-4,-4,-4,-5,-2,-2,2021-08-07 13:02:32,343488
2,3,2,3,3,3,2,1,2021-08-07 13:02:32,343488
0,-2,0,-2,-3,-2,-1,1,2021-08-07 13:02:32,343488
-2,-2,0,1,1,0,0,0,2021-08-07 13:02:32,343488
-1,-2,-2,0,1,1,0,-1,2021-08-07 13:02:32,374491
-1,0,-1,-5,-6,-3,-3,0,2021-08-07 13:02:32,374491
-3,-3,-3,-10,-15,-10,-3,-4,2021-08-07 13:02:32,374491
0,0,1,6,14,8,2,1,2021-08-07 13:02:32,374491
1,3,3,2,2,-1,0,2,2021-08-07 13:02:32,390490
0,-1,0,0,1,1,1,0,2021-08-07 13:02:32,406490
-1,-1,-3,0,2,1,-1,-1,2021-08-07 13:02:32,422490
-1,-3,-4,-6,-7,-4,-3,-2,2021-08-07 13:02:32,422490
-1,-1,-1,-1,-4,-3,-2,-1,2021-08-07 13:02:32,422490
-2,0,-1,-4,-8,-5,-3,-1,2021-08-07 13:02:32,422490
-1,0,-1,8,10,5,3,0,2021-08-07 13:02:32,422490
1,1,1,9,5,2,1,0,2021-08-07 13:02:32,423493
-1,-2,-1,-5,3,4,0,0,2021-08-07 13:02:32,423493
-1,2,1,-9,-3,-1,-1,-1,2021-08-07 13:02:32,423493
-2,0,3,17,5,-3,-4,-4,2021-08-07 13:02:32,423493
2,1,7,-8,-7,0,0,1,2021-08-07 13:02:32,423493
-3,-5,-17,-33,-23,-10,-4,-3,2021-08-07 13:02:32,454489
-2,-8,-15,-2,2,1,-2,-1,2021-08-07 13:02:32,454489
-1,-2,1,-4,4,3,-1,0,2021-08-07 13:02:32,454489
1,1,1,11,6,0,0,-1,2021-08-07 13:02:32,454489
0,3,9,12,3,0,1,0,2021-08-07 13:02:32,454489
0,2,4,1,0,-1,1,-1,2021-08-07 13:02:32,454489
-2,-4,-6,-4,-5,-4,-1,-2,2021-08-07 13:02:32,470488
2,1,0,3,0,-1,1,0,2021-08-07 13:02:32,470488
-1,-5,-4,-3,-4,-3,-2,-2,2021-08-07 13:02:32,486488
1,2,1,5,4,2,1,1,2021-08-07 13:02:32,501493
2,3,5,1,-2,-1,2,2,2021-08-07 13:02:32,501493
-1,-3,-3,-9,-1,-1,-3,-3,2021-08-07 13:02:32,517489
-2,-1,-2,1,-1,-1,-3,-1,2021-08-07 13:02:32,533489
-2,-3,-2,0,-1,-2,-3,0,2021-08-07 13:02:32,533489
0,-1,-1,1,4,1,-1,1,2021-08-07 13:02:32,533489
-3,-3,-4,-6,-1,-3,-1,0,2021-08-07 13:02:32,533489
1,1,0,5,3,2,1,0,2021-08-07 13:02:32,533489
0,-2,3,3,0,0,0,-1,2021-08-07 13:02:32,533489
-3,-5,-9,-11,-8,-4,-2,-4,2021-08-07 13:02:32,534491
0,0,0,0,-2,-1,0,-1,2021-08-07 13:02:32,534491
4,5,5,7,7,4,2,2,2021-08-07 13:02:32,549490
-1,1,2,-1,-1,-1,0,-1,2021-08-07 13:02:32,565488
-1,-4,-5,-7,-7,-4,-2,-3,2021-08-07 13:02:32,581490
-2,-5,-3,-3,-1,1,-3,-1,2021-08-07 13:02:32,581490
1,1,2,10,12,6,4,2,2021-08-07 13:02:32,581490
1,1,2,1,2,1,2,0,2021-08-07 13:02:32,581490
-3,-2,-3,-5,-4,-2,-2,-3,2021-08-07 13:02:32,581490
-2,0,-1,2,1,0,1,0,2021-08-07 13:02:32,581490
-1,0,-2,-6,-9,-5,-3,-1,2021-08-07 13:02:32,582491
-3,-3,-1,-7,-9,-7,-4,-1,2021-08-07 13:02:32,582491
1,2,3,7,11,8,4,3,2021-08-07 13:02:32,597490
0,1,1,-1,-2,2,1,-2,2021-08-07 13:02:32,597490
-3,-4,-4,-9,-13,-10,-5,-3,2021-08-07 13:02:32,612491
1,2,1,8,14,9,4,2,2021-08-07 13:02:32,612491
0,0,0,1,5,0,0,1,2021-08-07 13:02:32,612491
-2,-2,-5,-10,-5,-1,-2,-1,2021-08-07 13:02:32,612491
-1,-2,1,4,-1,-2,-1,-2,2021-08-07 13:02:32,628489
0,4,2,4,-2,-1,-1,-2,2021-08-07 13:02:32,644490
0,-2,-2,-3,7,5,3,1,2021-08-07 13:02:32,644490
-6,-9,-14,-29,-34,-21,-9,-5,2021-08-07 13:02:32,644490
1,0,3,9,19,16,9,2,2021-08-07 13:02:32,644490
-3,-2,-3,-6,-11,-7,-4,-3,2021-08-07 13:02:32,644490
-1,1,0,-2,-19,-15,-8,-3,2021-08-07 13:02:32,644490
3,4,6,15,25,18,9,5,2021-08-07 13:02:32,644490
-1,-1,-1,1,9,4,1,0,2021-08-07 13:02:32,675490
0,-1,1,1,1,-2,-2,-1,2021-08-07 13:02:32,675490
-3,-2,0,-1,0,-1,-3,-2,2021-08-07 13:02:32,675490
-1,-1,-2,-6,-18,-12,-7,-2,2021-08-07 13:02:32,675490
0,0,1,1,0,-2,-2,0,2021-08-07 13:02:32,691490
0,1,0,4,10,5,5,-1,2021-08-07 13:02:32,707490
-4,-5,-6,-18,-25,-15,-8,-5,2021-08-07 13:02:32,707490
0,2,1,10,14,8,4,1,2021-08-07 13:02:32,723490
0,1,0,-1,1,3,2,0,2021-08-07 13:02:32,739490
-1,-2,0,2,-3,-6,-4,-1,2021-08-07 13:02:32,740491
1,0,1,5,11,10,4,2,2021-08-07 13:02:32,740491
-3,-2,0,0,4,2,0,-1,2021-08-07 13:02:32,740491
1,1,0,2,0,-1,-1,1,2021-08-07 13:02:32,740491
-3,-4,-8,-17,-26,-15,-7,-4,2021-08-07 13:02:32,740491
2,1,3,9,17,13,7,2,2021-08-07 13:02:32,741490
0,2,1,-1,-7,-6,-3,0,2021-08-07 13:02:32,741490
1,-1,-1,-4,0,0,0,0,2021-08-07 13:02:32,741490
-2,-1,-1,-2,1,1,-1,-1,2021-08-07 13:02:32,741490
0,-1,0,6,6,2,0,-2,2021-08-07 13:02:32,755491
2,3,1,5,6,4,2,0,2021-08-07 13:02:32,755491
-3,-3,-2,-9,-13,-7,-5,-2,2021-08-07 13:02:32,771490
-2,-3,-2,-2,-2,1,-2,-1,2021-08-07 13:02:32,771490
-2,-2,-3,-5,-6,-4,-3,-3,2021-08-07 13:02:32,771490
-2,-3,-3,-9,-11,-10,-2,-3,2021-08-07 13:02:32,771490
1,1,3,4,3,4,2,0,2021-08-07 13:02:32,787492
0,0,1,6,13,7,2,0,2021-08-07 13:02:32,803489
-2,-2,-2,-4,-8,-6,-3,-2,2021-08-07 13:02:32,803489
-2,-1,-1,-3,-4,-4,-1,-2,2021-08-07 13:02:32,803489
-1,-1,-1,-2,-5,-4,-1,-2,2021-08-07 13:02:32,803489
1,-1,0,5,9,5,1,2,2021-08-07 13:02:32,803489
-1,-1,-3,-9,-11,-7,-3,-1,2021-08-07 13:02:32,803489
2,1,3,5,6,3,2,2,2021-08-07 13:02:32,803489
-1,-2,-4,-2,-2,-2,-2,0,2021-08-07 13:02:32,819490
-5,-5,-7,-11,-11,-6,-3,-4,2021-08-07 13:02:32,851490
-1,1,2,5,8,5,2,0,2021-08-07 13:02:32,851490
-3,-2,-2,2,-2,-2,-3,-3,2021-08-07 13:02:32,851490
-4,-4,0,1,-5,-3,-4,-5,2021-08-07 13:02:32,867492
5,9,8,12,28,18,10,5,2021-08-07 13:02:32,867492
1,4,4,1,5,1,-3,1,2021-08-07 13:02:32,867492
0,0,0,2,2,2,2,0,2021-08-07 13:02:32,867492
-2,0,-3,-5,-12,-8,-2,-3,2021-08-07 13:02:32,883491
-3,-5,-6,-15,-23,-13,-5,-3,2021-08-07 13:02:32,883491
-1,-2,-2,3,10,6,2,-1,2021-08-07 13:02:32,883491
-2,-2,-2,-8,-14,-10,-4,-1,2021-08-07 13:02:32,883491
1,1,1,7,16,9,4,2,2021-08-07 13:02:32,883491
-1,-2,0,4,3,3,1,0,2021-08-07 13:02:32,899490
-1,-1,-3,-3,-8,-6,-2,-2,2021-08-07 13:02:32,899490
0,-1,-2,0,1,1,-1,-1,2021-08-07 13:02:32,914492
1,0,1,2,5,4,2,1,2021-08-07 13:02:32,930492
0,-1,0,2,2,0,-2,-1,2021-08-07 13:02:32,930492
-2,-3,-3,-4,-6,-5,-2,-3,2021-08-07 13:02:32,930492
0,-1,-1,-2,-1,0,-1,-1,2021-08-07 13:02:32,930492
-2,-2,-1,-6,-8,-7,-2,-2,2021-08-07 13:02:32,930492
-1,-1,-1,-2,-1,-2,-1,-3,2021-08-07 13:02:32,930492
0,1,-2,-5,-5,-1,0,0,2021-08-07 13:02:32,930492
0,0,1,5,8,5,1,0,2021-08-07 13:02:32,930492
2,3,2,1,0,1,1,2,2021-08-07 13:02:32,946491
-2,-3,-2,-1,-2,-3,-3,-2,2021-08-07 13:02:32,962490
-2,-3,-2,-6,-11,-6,-4,-2,2021-08-07 13:02:32,962490
1,0,1,2,4,5,3,2,2021-08-07 13:02:32,962490
1,1,3,4,3,2,1,1,2021-08-07 13:02:32,962490
0,0,-1,-2,-3,-3,-2,1,2021-08-07 13:02:32,962490
1,0,1,4,4,2,0,1,2021-08-07 13:02:32,962490
0,-3,-2,-6,-7,-6,-2,-1,2021-08-07 13:02:32,963491
-2,-2,-5,-12,-9,-5,-2,-3,2021-08-07 13:02:32,994490
-1,-2,-1,-1,-5,-3,-2,-1,2021-08-07 13:02:32,994490
-1,-3,-3,0,0,-1,-2,-2,2021-08-07 13:02:32,994490
1,1,4,7,7,5,0,-1,2021-08-07 13:02:32,994490
-3,-3,-2,-1,-6,-4,-3,-2,2021-08-07 13:02:32,995491
1,3,1,1,4,3,3,1,2021-08-07 13:02:32,995491
-2,-3,-3,-6,-6,-3,-2,-2,2021-08-07 13:02:33,025492
0,-1,-3,-4,-6,-5,-2,-2,2021-08-07 13:02:33,025492
0,0,0,3,4,3,0,1,2021-08-07 13:02:33,025492
0,-1,0,0,-1,0,0,-1,2021-08-07 13:02:33,025492
-1,-1,2,3,2,3,-1,0,2021-08-07 13:02:33,041491
0,0,0,0,2,1,1,-1,2021-08-07 13:02:33,057490
-2,0,-2,-2,-4,-2,-2,-3,2021-08-07 13:02:33,073491
0,0,-1,3,6,2,1,0,2021-08-07 13:02:33,089491
3,2,1,3,2,2,4,1,2021-08-07 13:02:33,105492
-1,-1,-1,-1,2,1,0,-2,2021-08-07 13:02:33,105492
-1,-4,-2,-3,-2,-3,-1,-2,2021-08-07 13:02:33,105492
-1,-3,-3,-3,-6,-4,-4,-3,2021-08-07 13:02:33,105492
-2,1,0,-5,-4,-2,-1,-2,2021-08-07 13:02:33,136490
2,3,4,11,18,10,4,3,2021-08-07 13:02:33,136490
1,1,-2,0,0,-3,-2,0,2021-08-07 13:02:33,136490
-1,-1,0,-2,-3,-1,0,-2,2021-08-07 13:02:33,136490
-1,-4,-4,-5,-3,-3,-3,-1,2021-08-07 13:02:33,136490
-2,-2,-1,-2,-3,-2,0,-1,2021-08-07 13:02:33,137491
0,-1,-1,1,-1,0,0,-1,2021-08-07 13:02:33,137491
-1,-1,-1,-4,-6,-4,-1,-3,2021-08-07 13:02:33,137491
-1,-2,0,-2,-4,-3,-3,-3,2021-08-07 13:02:33,137491
-1,-2,1,-2,-2,-2,-2,-1,2021-08-07 13:02:33,137491
0,-3,0,0,1,-2,-2,0,2021-08-07 13:02:33,138493
1,1,2,6,9,6,3,0,2021-08-07 13:02:33,152490
0,0,-2,0,1,1,1,1,2021-08-07 13:02:33,168492
0,-2,-2,-3,-4,-2,-2,-1,2021-08-07 13:02:33,168492
0,-1,0,-4,4,0,0,-1,2021-08-07 13:02:33,168492
0,-2,-1,-2,-2,-1,0,1,2021-08-07 13:02:33,168492
-1,-1,1,4,4,0,-1,-1,2021-08-07 13:02:33,168492
-1,-1,-2,-5,-10,-6,-4,-2,2021-08-07 13:02:33,168492
-1,-1,-1,1,3,1,-2,-2,2021-08-07 13:02:33,169492
-2,-1,-1,-2,-2,0,-1,-1,2021-08-07 13:02:33,169492
-1,-1,-2,2,3,0,1,-3,2021-08-07 13:02:33,169492
0,0,-1,-1,-5,-4,0,-1,2021-08-07 13:02:33,169492
-2,-1,-1,-4,-9,-7,-3,-1,2021-08-07 13:02:33,199489
0,-2,-2,0,7,6,3,0,2021-08-07 13:02:33,199489
0,-1,0,-1,-2,-2,-3,-3,2021-08-07 13:02:33,199489
-1,-3,-4,-13,-20,-11,-5,-3,2021-08-07 13:02:33,199489
3,3,4,13,25,19,9,5,2021-08-07 13:02:33,215489
-1,0,1,5,5,0,-2,1,2021-08-07 13:02:33,215489
-3,-2,-5,-9,-10,-5,-4,-1,2021-08-07 13:02:33,215489
-1,1,0,7,10,5,-1,0,2021-08-07 13:02:33,215489
-1,-2,-2,-10,-18,-7,-5,-2,2021-08-07 13:02:33,231490
1,3,2,3,5,-1,0,1,2021-08-07 13:02:33,231490
-3,-3,-2,-6,-10,-7,-4,-2,2021-08-07 13:02:33,247488
0,0,0,8,19,13,6,2,2021-08-07 13:02:33,247488
-2,-2,-3,-10,-11,-7,-3,-3,2021-08-07 13:02:33,247488
-3,-2,-7,-9,-13,-9,-6,-5,2021-08-07 13:02:33,247488
1,2,0,3,0,0,2,2,2021-08-07 13:02:33,247488
3,5,7,18,39,28,13,5,2021-08-07 13:02:33,247488
-5,-5,0,-6,-5,-9,-7,-3,2021-08-07 13:02:33,279492
-2,-3,-2,-18,-34,-20,-8,-5,2021-08-07 13:02:33,279492
-1,0,3,11,5,1,0,1,2021-08-07 13:02:33,279492
0,0,2,-3,9,7,4,2,2021-08-07 13:02:33,295490
-1,-4,-11,-17,-4,3,2,-1,2021-08-07 13:02:33,295490
-1,-2,-4,1,2,-3,-4,-2,2021-08-07 13:02:33,295490
-3,-3,-3,-5,-12,-7,-4,-1,2021-08-07 13:02:33,295490
1,-1,-2,-1,-15,-12,-6,-1,2021-08-07 13:02:33,295490
1,1,2,10,14,9,3,1,2021-08-07 13:02:33,311490
0,-3,-1,-2,-6,-3,-1,0,2021-08-07 13:02:33,311490
0,3,2,7,17,11,5,3,2021-08-07 13:02:33,311490
-5,-7,-10,-19,-30,-20,-11,-6,2021-08-07 13:02:33,311490
2,3,3,6,1,4,3,3,2021-08-07 13:02:33,343493
0,-1,1,9,16,8,3,0,2021-08-07 13:02:33,359490
2,2,2,5,10,6,2,0,2021-08-07 13:02:33,359490
-2,-3,-3,-5,-4,-5,-1,-1,2021-08-07 13:02:33,359490
0,-1,-2,-4,-19,-14,-6,-1,2021-08-07 13:02:33,359490
0,0,1,6,10,9,3,1,2021-08-07 13:02:33,360490
-2,-3,-3,-11,-13,-9,-5,-3,2021-08-07 13:02:33,360490
0,1,-1,-1,-1,-2,-1,-1,2021-08-07 13:02:33,360490
0,-2,0,10,14,10,4,0,2021-08-07 13:02:33,375490
-2,0,0,3,7,2,0,-1,2021-08-07 13:02:33,391489
-1,0,-1,-4,-5,-3,-2,-2,2021-08-07 13:02:33,407492
-2,-1,-3,-2,-8,-3,-3,-1,2021-08-07 13:02:33,407492
-1,1,1,-1,-8,-6,-1,0,2021-08-07 13:02:33,407492
-2,-2,-2,-5,-3,-1,-1,-2,2021-08-07 13:02:33,407492
1,-1,-1,1,12,9,3,0,2021-08-07 13:02:33,408492
2,1,4,11,10,5,4,3,2021-08-07 13:02:33,408492
0,1,1,2,-1,-2,-2,-2,2021-08-07 13:02:33,408492
-1,0,-3,-12,-14,-9,-5,-2,2021-08-07 13:02:33,408492
-1,-1,-2,-4,-5,-3,-1,-1,2021-08-07 13:02:33,423490
1,1,1,2,2,0,1,1,2021-08-07 13:02:33,439490
-2,-4,-4,-9,-10,-7,-5,-1,2021-08-07 13:02:33,439490
-1,-1,2,4,-4,-4,-3,-1,2021-08-07 13:02:33,439944
3,2,3,11,20,16,6,3,2021-08-07 13:02:33,439944
-1,0,0,-2,0,-2,-1,-1,2021-08-07 13:02:33,439944
-3,-4,-7,-7,-10,-6,-1,-2,2021-08-07 13:02:33,455527
-3,-3,-2,-1,-2,-1,-2,-3,2021-08-07 13:02:33,471526
0,1,-1,-7,-7,-5,-3,-2,2021-08-07 13:02:33,487524
1,2,2,2,4,4,1,1,2021-08-07 13:02:33,487524
1,0,1,5,6,1,1,0,2021-08-07 13:02:33,487524
-3,-3,-3,-6,-7,-4,-2,0,2021-08-07 13:02:33,487524
-2,-4,-2,2,3,-1,-1,0,2021-08-07 13:02:33,487524
-1,-2,-1,-2,-2,-1,-1,-1,2021-08-07 13:02:33,487524
-2,1,0,-3,-3,-3,-2,-3,2021-08-07 13:02:33,488527
-1,-3,-4,-6,-10,-7,-4,-1,2021-08-07 13:02:33,488527
0,1,1,2,-1,1,1,1,2021-08-07 13:02:33,488527
1,3,2,12,24,12,5,2,2021-08-07 13:02:33,488527
0,0,1,4,5,0,-1,-1,2021-08-07 13:02:33,518527
3,1,1,6,12,9,6,3,2021-08-07 13:02:33,534527
-2,-3,-3,-8,-11,-8,-5,-3,2021-08-07 13:02:33,534527
0,-1,-1,-6,-10,-7,-3,-2,2021-08-07 13:02:33,534527
0,2,1,4,3,2,3,0,2021-08-07 13:02:33,534527
-3,-1,-2,-6,-5,-4,-5,-5,2021-08-07 13:02:33,534527
-1,-2,-2,-6,-6,-4,-1,-2,2021-08-07 13:02:33,535525
1,-2,0,0,-3,-2,-1,-2,2021-08-07 13:02:33,535525
2,0,-3,-3,-2,1,0,1,2021-08-07 13:02:33,550525
2,1,1,-2,1,-1,0,2,2021-08-07 13:02:33,550525
1,-2,0,4,10,5,3,-1,2021-08-07 13:02:33,550525
-1,-1,-1,2,0,-1,-2,-1,2021-08-07 13:02:33,550525
-3,-3,-1,-4,-8,-4,-3,-4,2021-08-07 13:02:33,582525
-1,-3,-1,6,7,5,2,-3,2021-08-07 13:02:33,582525
1,3,3,4,7,2,2,2,2021-08-07 13:02:33,582525
-1,-2,-3,-8,-12,-8,-5,-2,2021-08-07 13:02:33,582525
1,0,-1,4,8,3,-1,0,2021-08-07 13:02:33,582525
-1,-2,-2,-5,-10,-8,-5,-1,2021-08-07 13:02:33,582525
4,4,4,9,24,17,7,3,2021-08-07 13:02:33,598526
-1,-1,-2,-2,-1,-2,0,-1,2021-08-07 13:02:33,598526
-1,-1,-1,-4,-3,-2,-1,-2,2021-08-07 13:02:33,614526
-1,0,-2,0,-3,-3,-2,-2,2021-08-07 13:02:33,614526
-3,-3,-5,-3,-9,-7,-4,-3,2021-08-07 13:02:33,614526
-1,1,-1,0,-1,0,-1,1,2021-08-07 13:02:33,614526
2,2,2,7,9,4,3,1,2021-08-07 13:02:33,630529
0,0,-2,-6,1,1,1,0,2021-08-07 13:02:33,630529
-3,-1,-4,-9,-14,-9,-3,-3,2021-08-07 13:02:33,630529
-2,-3,-3,-1,0,0,0,-5,2021-08-07 13:02:33,630529
-2,-2,-1,0,0,-1,-1,-2,2021-08-07 13:02:33,662526
-1,-1,0,1,-1,0,-1,-1,2021-08-07 13:02:33,678044
0,-2,-2,-1,-5,-2,-3,-1,2021-08-07 13:02:33,694048
-1,-1,-2,-6,-4,-3,-1,0,2021-08-07 13:02:33,694048
-1,-1,0,4,3,0,0,0,2021-08-07 13:02:33,694048
-2,-1,-4,-9,-8,-3,-2,-2,2021-08-07 13:02:33,710045
1,0,2,6,8,4,0,-1,2021-08-07 13:02:33,726047
0,0,0,-1,-5,-4,-2,-1,2021-08-07 13:02:33,742046
1,2,0,3,10,6,3,0,2021-08-07 13:02:33,758047
-3,-1,-3,-4,-3,-4,-3,0,2021-08-07 13:02:33,758047
-2,-2,-3,-9,-18,-11,-4,-2,2021-08-07 13:02:33,774045
2,2,2,3,5,4,2,2,2021-08-07 13:02:33,774045
0,0,0,1,-2,0,0,1,2021-08-07 13:02:33,774045
-1,-2,-2,5,9,5,-1,-1,2021-08-07 13:02:33,774045
-2,-2,-2,-2,-2,-3,-3,-2,2021-08-07 13:02:33,774045
0,0,0,-1,-1,0,-1,0,2021-08-07 13:02:33,774045
-2,-3,-3,-11,-14,-8,-4,-1,2021-08-07 13:02:33,775046
0,1,2,10,12,7,3,0,2021-08-07 13:02:33,775046
0,-1,-2,-2,-4,-2,-2,0,2021-08-07 13:02:33,775046
-1,1,2,4,3,2,1,0,2021-08-07 13:02:33,775046
-1,-1,-1,0,-1,-3,-3,0,2021-08-07 13:02:33,775046
-2,-4,-5,-17,-20,-14,-6,-3,2021-08-07 13:02:33,775046
-1,0,2,10,16,9,5,1,2021-08-07 13:02:33,777048
0,1,1,7,7,2,1,2,2021-08-07 13:02:33,777048
0,-2,-1,5,7,2,2,0,2021-08-07 13:02:33,777048
0,2,2,4,0,1,2,1,2021-08-07 13:02:33,777048
-2,0,-2,-9,-11,-7,-3,-3,2021-08-07 13:02:33,777048
2,1,-1,8,5,1,1,-1,2021-08-07 13:02:33,778045
0,0,0,-2,-1,-3,-1,-1,2021-08-07 13:02:33,790048
-1,-1,-2,-21,-9,-2,-4,-3,2021-08-07 13:02:33,790048
-3,-7,-9,-19,-19,-7,0,1,2021-08-07 13:02:33,790048
-3,-2,-6,1,-1,-3,-6,-4,2021-08-07 13:02:33,790048
3,3,3,-1,-1,3,7,2,2021-08-07 13:02:33,822046
-5,-6,-7,-10,-18,-14,-8,-4,2021-08-07 13:02:33,822046
-3,-3,-3,-6,-15,-11,-5,-4,2021-08-07 13:02:33,838047
3,4,11,24,33,23,11,6,2021-08-07 13:02:33,838047
1,4,4,20,25,16,7,1,2021-08-07 13:02:33,838047
3,2,3,11,11,7,2,2,2021-08-07 13:02:33,838047
-1,0,-1,-6,-5,-6,-4,-2,2021-08-07 13:02:33,839047
-4,-6,-9,-18,-22,-15,-7,-5,2021-08-07 13:02:33,839047
2,3,4,9,16,7,1,2,2021-08-07 13:02:33,854047
0,1,1,2,1,2,2,1,2021-08-07 13:02:33,854047
-1,-3,-1,4,2,-2,-2,-2,2021-08-07 13:02:33,854047
0,-1,-1,-8,-8,-6,-2,-2,2021-08-07 13:02:33,854047
-3,-5,-7,-20,-30,-19,-11,-4,2021-08-07 13:02:33,870044
-2,-1,0,9,14,8,4,0,2021-08-07 13:02:33,902046
2,2,1,9,10,7,3,2,2021-08-07 13:02:33,918047
-3,0,-1,-7,-5,-1,-1,0,2021-08-07 13:02:33,918047
-3,-4,-4,-6,-6,-5,-4,-3,2021-08-07 13:02:33,918047
-2,-1,-3,1,-6,-5,-3,-1,2021-08-07 13:02:33,918047
2,2,0,1,2,2,1,0,2021-08-07 13:02:33,919047
1,1,1,-5,2,2,2,1,2021-08-07 13:02:33,919047
-2,-5,-5,-12,-23,-16,-7,-4,2021-08-07 13:02:33,919047
1,2,2,4,11,10,4,2,2021-08-07 13:02:33,919047
0,1,2,9,15,10,4,1,2021-08-07 13:02:33,919047
-1,-3,-4,-8,-13,-8,-4,-3,2021-08-07 13:02:33,919047
-2,-1,-2,1,2,1,1,-2,2021-08-07 13:02:33,950048
0,-3,-2,-6,-8,-4,-2,0,2021-08-07 13:02:33,950048
0,0,1,-2,2,4,0,0,2021-08-07 13:02:33,966045
1,-1,-2,-3,-3,-2,-3,-2,2021-08-07 13:02:33,966045
-1,-2,-2,-5,-5,-1,-2,-3,2021-08-07 13:02:33,966045
-1,1,1,8,7,1,0,-1,2021-08-07 13:02:33,966045
-1,-2,-2,-4,-2,-3,-1,-2,2021-08-07 13:02:33,966045
-2,-1,-2,-7,-12,-5,-2,1,2021-08-07 13:02:33,966045
2,1,3,13,21,11,4,2,2021-08-07 13:02:33,967045
-1,-2,-1,-2,-4,-3,-1,0,2021-08-07 13:02:33,967045
1,2,3,4,3,1,0,1,2021-08-07 13:02:33,982046
-1,-2,-1,-5,-5,-3,-1,-1,2021-08-07 13:02:33,982046
-1,-2,-4,-5,-7,-5,-3,-1,2021-08-07 13:02:34,012044
0,-1,3,9,8,2,0,0,2021-08-07 13:02:34,028047
0,-1,-4,-8,-13,-8,-2,-2,2021-08-07 13:02:34,044045
2,4,4,8,13,8,3,2,2021-08-07 13:02:34,044045
-3,-1,-1,-3,-4,-3,-1,1,2021-08-07 13:02:34,044045
0,-3,-4,-3,1,-1,-1,-2,2021-08-07 13:02:34,044045
-1,0,3,5,4,1,0,1,2021-08-07 13:02:34,044045
0,-2,-2,-1,-3,-3,-1,-3,2021-08-07 13:02:34,045046
-2,1,-1,-4,-5,-2,-1,-1,2021-08-07 13:02:34,045046
1,1,2,5,5,3,1,1,2021-08-07 13:02:34,045046
0,-1,-1,4,5,1,-1,-1,2021-08-07 13:02:34,060045
-1,-2,-1,0,-1,-1,0,-2,2021-08-07 13:02:34,076047
0,-2,0,0,1,0,-2,-2,2021-08-07 13:02:34,076047
-3,-2,-4,-12,-15,-10,-4,-3,2021-08-07 13:02:34,076047
1,1,-1,-2,-5,-1,-2,-1,2021-08-07 13:02:34,076047
-2,0,-2,-5,0,-2,-2,-1,2021-08-07 13:02:34,076047
-1,0,0,-3,-10,-5,-2,-1,2021-08-07 13:02:34,076047
2,2,3,12,21,12,6,2,2021-08-07 13:02:34,077049
0,-2,-2,-2,-2,-1,-1,1,2021-08-07 13:02:34,077049
1,1,1,-3,-8,-3,-2,1,2021-08-07 13:02:34,077049
-1,-2,-2,10,14,6,1,-2,2021-08-07 13:02:34,092046
-1,-1,-2,-5,-2,-3,0,1,2021-08-07 13:02:34,092046
-2,0,-1,-1,-3,-1,0,-2,2021-08-07 13:02:34,092046
0,-1,-2,0,-3,-3,0,-2,2021-08-07 13:02:34,092046
-2,-2,-4,-7,-11,-9,-5,-2,2021-08-07 13:02:34,123047
0,2,0,-6,-2,1,-2,1,2021-08-07 13:02:34,123047
0,1,1,5,9,4,1,0,2021-08-07 13:02:34,123047
-2,-1,-1,2,1,0,0,-1,2021-08-07 13:02:34,123047
-1,-1,0,-2,3,0,0,-2,2021-08-07 13:02:34,139045
-3,-3,-3,-2,-8,-4,-4,-3,2021-08-07 13:02:34,155048
0,1,-1,-10,-13,-5,-2,-1,2021-08-07 13:02:34,187047
-2,-2,-1,1,1,0,-1,-1,2021-08-07 13:02:34,203045
-1,-1,-2,-1,0,1,0,-1,2021-08-07 13:02:34,219047
0,0,2,6,6,0,0,1,2021-08-07 13:02:34,235049
-1,-5,-2,1,4,3,0,-1,2021-08-07 13:02:34,251051
0,1,-1,4,3,-2,0,-1,2021-08-07 13:02:34,251051
0,0,-5,-16,-15,-6,-3,0,2021-08-07 13:02:34,267043
3,5,5,13,19,8,3,1,2021-08-07 13:02:34,267043
1,1,0,3,1,-1,-1,0,2021-08-07 13:02:34,267043
-2,-1,-1,-5,0,-1,-2,-2,2021-08-07 13:02:34,267043
-4,-3,-2,-9,-13,-7,-4,-2,2021-08-07 13:02:34,267043
-4,-5,-9,-18,-25,-13,-7,-5,2021-08-07 13:02:34,268049
1,1,2,3,11,8,3,1,2021-08-07 13:02:34,268049
1,2,3,7,12,8,4,2,2021-08-07 13:02:34,268049
1,-1,1,3,3,1,2,0,2021-08-07 13:02:34,268049
-2,-4,-2,-3,-4,-3,-2,-1,2021-08-07 13:02:34,268049
-3,0,-2,4,7,3,1,1,2021-08-07 13:02:34,268049
0,-1,1,-1,-3,-1,0,1,2021-08-07 13:02:34,269045
1,2,2,6,5,3,2,-1,2021-08-07 13:02:34,269045
-1,-2,-4,-7,-7,-6,-2,-2,2021-08-07 13:02:34,269045
-1,-2,-6,-12,-15,-11,-6,-3,2021-08-07 13:02:34,269045
1,4,3,4,1,3,2,2,2021-08-07 13:02:34,269045
2,2,3,9,13,5,2,0,2021-08-07 13:02:34,270045
0,-3,-5,-8,-15,-7,-3,-1,2021-08-07 13:02:34,270045
0,2,1,-3,-4,0,1,0,2021-08-07 13:02:34,270045
2,0,2,9,17,9,3,1,2021-08-07 13:02:34,270045
-1,0,-1,6,3,0,0,-2,2021-08-07 13:02:34,270045
-1,-1,-2,-9,-1,-1,-2,-1,2021-08-07 13:02:34,271046
-2,-2,-3,-9,-11,-5,-3,-2,2021-08-07 13:02:34,271046
-1,-3,-4,-6,-10,-7,-4,-2,2021-08-07 13:02:34,271046
1,-1,1,2,2,1,1,2,2021-08-07 13:02:34,299046
-1,0,1,3,-1,-2,0,0,2021-08-07 13:02:34,299046
-1,-1,-3,0,-1,-2,-1,-1,2021-08-07 13:02:34,299046
-1,-3,-1,2,-2,-3,-2,0,2021-08-07 13:02:34,299046
2,0,2,0,3,2,0,1,2021-08-07 13:02:34,315046
0,1,-5,-8,-1,4,1,0,2021-08-07 13:02:34,315046
-2,-3,-2,-1,-5,-4,-2,-2,2021-08-07 13:02:34,315046
-2,2,1,9,16,11,5,-1,2021-08-07 13:02:34,315046
-3,-2,0,6,4,1,-2,-3,2021-08-07 13:02:34,331046
0,2,3,10,1,-2,0,0,2021-08-07 13:02:34,332046
-1,-1,-3,-3,-4,-4,-2,-1,2021-08-07 13:02:34,332046
-3,-3,-4,-20,-19,-10,-7,-3,2021-08-07 13:02:34,332046
1,0,-4,-5,-6,-4,-1,-1,2021-08-07 13:02:34,362047
-1,-1,1,-2,0,0,-1,0,2021-08-07 13:02:34,378045
2,4,7,25,15,7,4,2,2021-08-07 13:02:34,394045
0,-2,-4,-12,-1,-1,-1,-1,2021-08-07 13:02:34,394045
-3,-4,-3,-10,-10,-6,-5,-2,2021-08-07 13:02:34,394045
0,0,-3,12,9,7,2,0,2021-08-07 13:02:34,394045
0,3,7,2,0,1,2,1,2021-08-07 13:02:34,394045
0,-1,-8,-18,-11,-6,-3,-1,2021-08-07 13:02:34,394045
-4,-3,-1,-5,1,1,-2,-3,2021-08-07 13:02:34,395046
0,-3,-5,-1,1,-1,-1,1,2021-08-07 13:02:34,395046
0,0,3,-1,0,-2,-2,0,2021-08-07 13:02:34,426044
-1,1,4,11,3,0,1,0,2021-08-07 13:02:34,426044
0,1,0,4,0,-1,2,0,2021-08-07 13:02:34,426044
-1,-2,-2,-3,-3,1,0,-2,2021-08-07 13:02:34,426044
0,-2,-5,-4,2,1,1,0,2021-08-07 13:02:34,426044
-2,-2,-2,-4,-9,-6,-3,-1,2021-08-07 13:02:34,426044
0,0,0,3,2,0,-1,-1,2021-08-07 13:02:34,441045
1,0,1,4,2,1,1,0,2021-08-07 13:02:34,441045
-1,0,2,-3,1,0,0,-2,2021-08-07 13:02:34,441045
-2,-3,-2,-2,-3,-3,-1,-1,2021-08-07 13:02:34,441045
-1,-2,-9,0,-2,0,0,-1,2021-08-07 13:02:34,441045
0,-2,3,-1,-1,-1,0,1,2021-08-07 13:02:34,442048
1,1,-2,-9,-4,-1,-1,0,2021-08-07 13:02:34,473046
-2,-1,-2,9,0,-1,-1,-1,2021-08-07 13:02:34,473046
-4,-3,-4,0,-5,-4,-4,-3,2021-08-07 13:02:34,489047
-1,-1,0,-25,-9,-5,-4,-3,2021-08-07 13:02:34,489047
-1,-1,-8,1,3,2,1,0,2021-08-07 13:02:34,489047
0,3,4,-3,2,2,-1,-1,2021-08-07 13:02:34,489047
-1,0,2,3,-4,-3,0,0,2021-08-07 13:02:34,490047
0,-1,0,6,-9,-6,-2,-1,2021-08-07 13:02:34,490047
0,1,1,4,8,5,2,1,2021-08-07 13:02:34,490047
2,2,-3,-12,-2,1,0,0,2021-08-07 13:02:34,490047
0,3,2,13,15,7,2,1,2021-08-07 13:02:34,521047
-2,-1,-1,0,-2,-2,-1,-1,2021-08-07 13:02:34,521047
-2,-3,-3,-5,-13,-8,-5,-2,2021-08-07 13:02:34,537045
-2,-3,-5,6,-4,-4,-2,-1,2021-08-07 13:02:34,537045
0,2,3,2,4,5,2,0,2021-08-07 13:02:34,537045
-1,2,-1,-10,-3,0,-1,-2,2021-08-07 13:02:34,537045
-2,-4,-4,-5,-6,-4,-3,-1,2021-08-07 13:02:34,553045
0,0,2,3,9,8,1,0,2021-08-07 13:02:34,569044
-2,-4,-2,-12,-8,-6,-5,-2,2021-08-07 13:02:34,585048
1,4,2,11,8,3,1,2,2021-08-07 13:02:34,601049
-1,-1,0,-3,-6,-4,-2,-2,2021-08-07 13:02:34,601049
-2,-3,-2,-9,-14,-6,-3,-3,2021-08-07 13:02:34,601049
2,2,3,11,17,10,5,1,2021-08-07 13:02:34,601049
0,0,0,-1,0,0,0,-1,2021-08-07 13:02:34,601049
-1,-1,-1,0,1,-1,-2,-1,2021-08-07 13:02:34,616043
2,1,1,3,-2,-2,-1,1,2021-08-07 13:02:34,616043
-6,-9,-11,-16,-17,-8,-7,-4,2021-08-07 13:02:34,616043
0,2,4,10,7,4,3,1,2021-08-07 13:02:34,616043
1,0,1,-5,0,2,2,-2,2021-08-07 13:02:34,616043
0,3,5,5,10,5,3,1,2021-08-07 13:02:34,617046
-1,-1,-3,-5,-2,-2,-2,-2,2021-08-07 13:02:34,617046
-1,-3,-5,-3,-3,-2,-4,-2,2021-08-07 13:02:34,617046
-1,-2,0,1,-1,-2,-1,-1,2021-08-07 13:02:34,617046
-2,0,-2,2,-1,-1,0,-1,2021-08-07 13:02:34,617046
-1,-2,-1,-6,-5,-3,-1,-1,2021-08-07 13:02:34,648046
-3,-1,1,1,-2,-2,-1,-2,2021-08-07 13:02:34,648046
0,0,-1,-1,-4,-3,-1,-1,2021-08-07 13:02:34,648046
0,-1,-2,1,3,1,2,0,2021-08-07 13:02:34,648046
-1,0,0,-3,-6,-5,-3,0,2021-08-07 13:02:34,648046
-1,-2,-2,-5,-9,-5,-3,-2,2021-08-07 13:02:34,649045
2,4,3,16,28,18,8,5,2021-08-07 13:02:34,649045
-1,-3,-4,-1,-1,-1,-2,0,2021-08-07 13:02:34,649045
1,1,2,0,-2,-1,-1,1,2021-08-07 13:02:34,679048
-1,-1,-4,-2,-5,-3,-2,-2,2021-08-07 13:02:34,679048
-2,0,0,-6,-14,-9,-5,-2,2021-08-07 13:02:34,695045
-2,-4,-2,-5,-3,-2,-2,-2,2021-08-07 13:02:34,695045
-1,-1,2,6,4,-1,-1,-2,2021-08-07 13:02:34,695045
-1,-3,-2,-4,1,0,0,-1,2021-08-07 13:02:34,695045
1,1,1,2,4,2,1,1,2021-08-07 13:02:34,711045
0,0,-1,2,-2,-1,-1,-2,2021-08-07 13:02:34,711045
0,0,-1,-8,-8,-4,-2,-1,2021-08-07 13:02:34,711045
-1,-2,2,1,2,1,-1,-1,2021-08-07 13:02:34,711045
-2,-4,-2,-6,-15,-9,-3,-3,2021-08-07 13:02:34,711045
-2,-2,-3,-2,-2,-2,-2,-1,2021-08-07 13:02:34,711045
3,3,3,5,10,5,3,3,2021-08-07 13:02:34,743046
-2,-3,-5,-6,-6,-3,-2,-2,2021-08-07 13:02:34,743046
0,1,-1,7,11,6,3,0,2021-08-07 13:02:34,743046
-2,-1,-2,-9,-14,-11,-5,-2,2021-08-07 13:02:34,743046
1,1,0,8,11,6,2,1,2021-08-07 13:02:34,775045
0,-2,-1,-8,-10,-7,-3,-3,2021-08-07 13:02:34,791045
-2,-3,-2,-1,-1,-1,-1,-1,2021-08-07 13:02:34,807045
-1,2,1,5,10,6,4,3,2021-08-07 13:02:34,807045
-2,-2,-1,0,-5,-3,-1,-2,2021-08-07 13:02:34,807045
0,0,-2,0,5,3,2,0,2021-08-07 13:02:34,807045
-4,-5,-5,-16,-18,-12,-7,-4,2021-08-07 13:02:34,807045
4,4,5,7,6,6,2,3,2021-08-07 13:02:34,807045
-1,0,-2,-5,-3,0,-1,-2,2021-08-07 13:02:34,807045
-1,0,-3,-1,-9,-8,-3,0,2021-08-07 13:02:34,807045
1,1,1,1,6,5,1,2,2021-08-07 13:02:34,839045
-1,0,-1,5,9,3,1,-1,2021-08-07 13:02:34,839045
-4,-5,-7,-11,-14,-10,-6,-4,2021-08-07 13:02:34,839045
4,5,7,11,20,14,7,2,2021-08-07 13:02:34,839045
0,1,2,3,2,0,-1,0,2021-08-07 13:02:34,839045
0,-1,-2,-3,-5,-2,-1,-1,2021-08-07 13:02:34,839045
-1,-2,-4,-6,-8,-5,-3,-1,2021-08-07 13:02:34,840046
-3,-6,-6,-9,-12,-7,-5,-3,2021-08-07 13:02:34,840046
2,1,0,4,7,3,2,1,2021-08-07 13:02:34,840046
1,2,4,6,3,2,3,1,2021-08-07 13:02:34,840046
1,2,3,-3,4,2,2,1,2021-08-07 13:02:34,867047
-2,-2,-2,0,2,0,0,-1,2021-08-07 13:02:34,867047
-1,-1,-1,-2,-3,-3,-2,-1,2021-08-07 13:02:34,867047
-3,-5,-5,-8,-12,-9,-5,-3,2021-08-07 13:02:34,867047
-1,-2,0,3,2,2,0,0,2021-08-07 13:02:34,887045
0,0,0,2,0,-2,0,1,2021-08-07 13:02:34,887045
1,0,-1,-1,-2,0,-1,1,2021-08-07 13:02:34,887045
1,3,4,8,9,3,0,-1,2021-08-07 13:02:34,887045
-1,1,-1,1,-2,-1,-1,-1,2021-08-07 13:02:34,887045
0,1,3,-4,-1,-2,-3,0,2021-08-07 13:02:34,887045
-1,-2,-6,-11,-5,-1,-1,-2,2021-08-07 13:02:34,919047
-2,-3,-4,-4,-4,-2,-1,-1,2021-08-07 13:02:34,935046
1,1,1,0,-2,0,0,2,2021-08-07 13:02:34,935046
0,1,4,5,5,2,3,0,2021-08-07 13:02:34,935046
-1,0,0,-1,-2,-1,-2,-1,2021-08-07 13:02:34,935046
-1,-2,-9,-8,-6,-3,-2,0,2021-08-07 13:02:34,935046
1,0,2,6,5,2,1,1,2021-08-07 13:02:34,935046
-2,-2,-3,1,-1,-2,1,1,2021-08-07 13:02:34,935046
1,0,4,1,1,1,2,-2,2021-08-07 13:02:34,935046
0,1,1,0,-2,-3,-3,-2,2021-08-07 13:02:34,936047
-4,-4,-5,-8,-8,-5,-3,-3,2021-08-07 13:02:34,951045
1,4,1,7,7,4,2,-1,2021-08-07 13:02:34,967045
1,1,2,5,4,3,1,1,2021-08-07 13:02:34,967045
-2,-3,-1,-3,-5,-5,-1,0,2021-08-07 13:02:34,967045
-2,-3,-6,-16,-8,-5,-4,-2,2021-08-07 13:02:34,982043
0,-1,-1,-1,-1,0,-2,-1,2021-08-07 13:02:34,982043
2,3,1,7,9,5,5,3,2021-08-07 13:02:34,982043
-1,-2,0,0,0,-2,-2,-1,2021-08-07 13:02:34,982043
-3,-1,-1,-4,-4,-2,-2,-3,2021-08-07 13:02:34,998046
-1,0,-3,-2,-5,-2,-3,-1,2021-08-07 13:02:34,998046
0,2,0,-2,-4,-1,0,1,2021-08-07 13:02:34,998046
0,-2,-1,-2,-2,-1,-1,0,2021-08-07 13:02:34,998046
0,-1,-2,3,1,-1,2,1,2021-08-07 13:02:35,029046
-2,-5,-6,0,0,1,-1,-2,2021-08-07 13:02:35,029046
-4,-2,-3,-12,-5,-1,-1,-1,2021-08-07 13:02:35,029046
1,2,6,7,7,5,2,-1,2021-08-07 13:02:35,029046
-1,-3,-1,6,5,2,-2,-2,2021-08-07 13:02:35,029046
-1,2,3,10,3,-2,-1,-1,2021-08-07 13:02:35,030053
2,0,6,-1,3,1,0,-1,2021-08-07 13:02:35,030053
-1,-4,-12,-12,-12,-7,-5,-2,2021-08-07 13:02:35,030053
-1,-1,-2,3,-1,-1,-2,-3,2021-08-07 13:02:35,060045
0,1,3,2,0,2,3,2,2021-08-07 13:02:35,075044
0,0,-2,-16,-3,-2,-1,0,2021-08-07 13:02:35,075044
-1,-1,4,-3,-2,-1,0,0,2021-08-07 13:02:35,075044
0,-1,-4,3,-1,-2,-1,-2,2021-08-07 13:02:35,075044
0,-2,-3,6,1,-1,0,-1,2021-08-07 13:02:35,075044
-1,3,6,31,10,0,-1,0,2021-08-07 13:02:35,075044
-1,0,2,-3,-2,1,-1,-3,2021-08-07 13:02:35,076046
-4,-5,-9,-56,-25,-9,-6,-1,2021-08-07 13:02:35,106052
-1,-3,-8,-10,-7,-2,-3,-1,2021-08-07 13:02:35,122047
-2,-2,-6,-3,-3,-1,-2,-2,2021-08-07 13:02:35,153046
2,1,3,16,6,0,1,1,2021-08-07 13:02:35,153046
4,4,8,23,13,9,5,1,2021-08-07 13:02:35,153046
0,2,5,-4,8,5,3,-1,2021-08-07 13:02:35,153046
0,-2,-3,3,-1,-3,-1,-2,2021-08-07 13:02:35,153046
-1,-2,-2,0,-6,-4,-1,0,2021-08-07 13:02:35,153046
-2,0,3,10,7,3,2,-1,2021-08-07 13:02:35,169045
-1,-5,-10,-28,-16,-10,-4,-3,2021-08-07 13:02:35,185046
-1,-2,-4,5,7,5,2,-1,2021-08-07 13:02:35,185046
-1,-3,0,-4,1,1,-2,-1,2021-08-07 13:02:35,185046
0,2,0,1,-1,0,-2,1,2021-08-07 13:02:35,185046
2,2,4,10,4,1,-1,0,2021-08-07 13:02:35,185046
-1,-2,0,-6,-7,-3,0,0,2021-08-07 13:02:35,185046
0,0,-4,-9,-4,-4,-1,0,2021-08-07 13:02:35,186048
-1,-3,-3,4,2,-1,0,-1,2021-08-07 13:02:35,186048
-1,-1,0,3,2,0,-1,-1,2021-08-07 13:02:35,186048
0,0,-2,-7,-5,0,-2,0,2021-08-07 13:02:35,201046
-2,-2,-3,0,1,0,0,-1,2021-08-07 13:02:35,201046
4,5,5,9,5,5,3,5,2021-08-07 13:02:35,201046
-2,-2,-2,5,3,2,-1,-1,2021-08-07 13:02:35,201046
0,-1,4,-2,0,0,0,-1,2021-08-07 13:02:35,201046
0,0,-4,-1,2,1,0,1,2021-08-07 13:02:35,201046
-3,-4,-7,-7,-3,-4,-2,-4,2021-08-07 13:02:35,217046
0,-1,1,0,-2,1,0,1,2021-08-07 13:02:35,217046
-2,-2,-2,-6,-11,-5,-3,-1,2021-08-07 13:02:35,217046
-1,0,4,10,4,2,0,-2,2021-08-07 13:02:35,217046
2,1,4,6,4,1,1,1,2021-08-07 13:02:35,249045
0,0,-1,-14,-6,-4,-3,-1,2021-08-07 13:02:35,249045
-1,-2,-2,0,0,-2,-1,-2,2021-08-07 13:02:35,249045
1,2,2,0,2,2,1,0,2021-08-07 13:02:35,249045
-2,-2,-4,1,2,-2,0,-2,2021-08-07 13:02:35,249045
-1,-1,-4,-5,-2,-2,0,-1,2021-08-07 13:02:35,249045
2,1,-1,-2,-6,-3,-2,0,2021-08-07 13:02:35,265047
-1,-4,-3,-7,-8,-3,-2,-1,2021-08-07 13:02:35,265047
-1,-1,1,2,4,2,-2,-2,2021-08-07 13:02:35,281046
-1,0,-2,6,3,2,1,1,2021-08-07 13:02:35,281046
-1,0,-1,5,4,3,2,1,2021-08-07 13:02:35,281046
0,1,5,8,-5,-3,-1,-2,2021-08-07 13:02:35,281046
-3,-1,-5,-13,-4,-3,-3,-1,2021-08-07 13:02:35,313049
1,0,-2,-10,-7,-3,-2,-1,2021-08-07 13:02:35,313049
-1,-4,-3,0,0,-1,-1,-1,2021-08-07 13:02:35,313049
-2,-1,-1,-1,4,2,-1,-2,2021-08-07 13:02:35,313049
1,-2,4,2,-4,-1,-2,-1,2021-08-07 13:02:35,314045
0,0,1,3,1,0,-2,1,2021-08-07 13:02:35,314045
-1,2,1,2,3,0,1,1,2021-08-07 13:02:35,329045
-1,-3,-2,0,1,0,0,0,2021-08-07 13:02:35,329045
-2,-1,0,-6,-10,-4,-2,-2,2021-08-07 13:02:35,329045
-1,0,2,3,3,-1,0,0,2021-08-07 13:02:35,329045
-1,-1,-1,0,-2,0,0,-1,2021-08-07 13:02:35,361047
-1,-2,-3,-12,-5,-1,0,1,2021-08-07 13:02:35,361047
-1,1,0,1,-3,-5,-1,0,2021-08-07 13:02:35,361047
2,1,1,6,2,4,1,1,2021-08-07 13:02:35,361047
0,1,1,5,5,0,0,-1,2021-08-07 13:02:35,361047
-2,-1,-3,-8,-6,-2,-3,-3,2021-08-07 13:02:35,361047
-4,-4,-4,-4,-5,-5,-2,-4,2021-08-07 13:02:35,377046
2,2,0,-1,-1,1,1,1,2021-08-07 13:02:35,377046
-1,0,1,5,4,-1,1,0,2021-08-07 13:02:35,377046
0,0,-1,-8,-2,1,-1,0,2021-08-07 13:02:35,377046
0,0,1,-2,-6,-3,-2,0,2021-08-07 13:02:35,397045
-4,-7,-7,-11,-21,-16,-6,-5,2021-08-07 13:02:35,397045
0,-1,0,3,13,10,4,1,2021-08-07 13:02:35,398046
2,2,1,2,1,-3,-1,1,2021-08-07 13:02:35,398046
-2,-2,-3,-11,-3,-1,-1,1,2021-08-07 13:02:35,438049
0,0,2,10,12,5,1,-3,2021-08-07 13:02:35,454047
1,0,0,1,-6,-2,-2,-1,2021-08-07 13:02:35,470095
-1,-1,-1,1,-1,-2,-1,-1,2021-08-07 13:02:35,470095
-2,-3,-3,-4,-5,-2,-1,-2,2021-08-07 13:02:35,470095
0,0,0,-4,-5,-2,-1,1,2021-08-07 13:02:35,471096
0,0,0,-2,2,1,0,0,2021-08-07 13:02:35,486094
-1,-3,0,1,0,-3,-3,-1,2021-08-07 13:02:35,486094
0,0,0,3,3,2,-1,0,2021-08-07 13:02:35,486094
1,3,5,10,9,5,4,0,2021-08-07 13:02:35,486094
1,-1,-3,-12,-9,-4,-2,1,2021-08-07 13:02:35,486094
-2,0,-4,-1,0,-2,-2,-2,2021-08-07 13:02:35,487095
-1,-3,-4,0,-4,-4,-3,-2,2021-08-07 13:02:35,487095
1,-1,4,8,3,3,1,1,2021-08-07 13:02:35,487095
1,2,0,-4,6,2,0,1,2021-08-07 13:02:35,487095
-1,-2,-9,-13,-5,0,-1,-1,2021-08-07 13:02:35,487095
1,1,6,4,4,2,0,-1,2021-08-07 13:02:35,488097
-2,-1,-5,-5,-2,-3,-1,-1,2021-08-07 13:02:35,488097
0,-1,1,6,3,3,1,0,2021-08-07 13:02:35,502095
-1,0,2,3,0,-1,-2,1,2021-08-07 13:02:35,502095
-1,1,-1,0,-4,-2,-2,-1,2021-08-07 13:02:35,518096
-1,0,0,-3,0,-1,0,-1,2021-08-07 13:02:35,518096
-1,0,1,-2,-5,-3,-3,-2,2021-08-07 13:02:35,518096
1,0,1,4,5,3,2,-2,2021-08-07 13:02:35,533098
0,0,0,3,3,3,0,-1,2021-08-07 13:02:35,549095
-2,-1,-3,-5,-6,-5,-2,-1,2021-08-07 13:02:35,565093
-3,-4,-5,-8,-5,-4,-3,-3,2021-08-07 13:02:35,581096
1,2,2,3,4,2,0,-1,2021-08-07 13:02:35,581096
0,1,2,-2,-4,-1,0,1,2021-08-07 13:02:35,581096
-1,-2,-4,-3,-2,0,-1,1,2021-08-07 13:02:35,581096
-3,-3,-5,-4,-7,-5,-2,-3,2021-08-07 13:02:35,581096
0,1,1,5,3,2,0,2,2021-08-07 13:02:35,582097
0,1,0,0,4,0,0,2,2021-08-07 13:02:35,582097
-2,0,1,3,0,0,-2,-1,2021-08-07 13:02:35,597095
-1,-1,0,-8,-9,-3,-2,-1,2021-08-07 13:02:35,613094
-1,-2,-1,-9,-9,-5,-1,-2,2021-08-07 13:02:35,613094
-1,0,-7,2,4,2,0,-1,2021-08-07 13:02:35,613094
2,-2,0,-1,0,1,1,1,2021-08-07 13:02:35,613094
0,0,0,17,11,4,2,0,2021-08-07 13:02:35,613094
-2,-2,-1,-11,-9,-5,-2,-3,2021-08-07 13:02:35,614099
0,0,-1,-9,-8,-5,-2,-1,2021-08-07 13:02:35,614099
0,1,-1,4,2,0,0,0,2021-08-07 13:02:35,614099
-2,-3,-1,-2,-2,-1,-2,-1,2021-08-07 13:02:35,645093
0,2,2,8,14,6,3,3,2021-08-07 13:02:35,676100
1,-2,-1,1,2,1,0,0,2021-08-07 13:02:35,676407
-2,-1,1,-2,-2,-3,-1,-1,2021-08-07 13:02:35,691612
1,1,2,0,-3,1,1,0,2021-08-07 13:02:35,707616
-2,-1,-2,1,-2,-2,-2,-1,2021-08-07 13:02:35,707616
-2,-2,2,9,-2,-2,0,-2,2021-08-07 13:02:35,707616
-2,1,-4,-12,-3,1,0,0,2021-08-07 13:02:35,707616
-1,-4,-4,-10,-8,-7,-4,-2,2021-08-07 13:02:35,707616
1,-1,1,-2,-6,0,-1,-2,2021-08-07 13:02:35,708614
0,-1,1,0,4,2,1,1,2021-08-07 13:02:35,708614
0,1,0,3,1,0,-1,0,2021-08-07 13:02:35,708614
0,1,-1,2,1,2,1,2,2021-08-07 13:02:35,723612
-2,-3,-4,-8,-3,-3,-3,-3,2021-08-07 13:02:35,738613
-3,-3,-3,-2,-5,-4,-2,-2,2021-08-07 13:02:35,738613
0,-2,-2,-3,-2,0,-2,-3,2021-08-07 13:02:35,738613
-1,0,-3,-5,-2,-3,0,0,2021-08-07 13:02:35,770612
-1,0,2,4,1,-2,-2,0,2021-08-07 13:02:35,770612
-1,2,1,-1,2,0,-1,0,2021-08-07 13:02:35,770612
-3,-4,-4,-2,-3,-3,-3,-1,2021-08-07 13:02:35,770612
-1,0,1,2,0,0,0,0,2021-08-07 13:02:35,771613
1,1,-1,2,0,0,1,1,2021-08-07 13:02:35,786612
-1,-2,-1,-6,-7,-3,-3,-4,2021-08-07 13:02:35,786612
0,0,0,1,5,4,1,0,2021-08-07 13:02:35,786612
-1,-2,-3,-3,-6,-5,-3,-2,2021-08-07 13:02:35,818613
-1,0,1,3,2,0,0,-1,2021-08-07 13:02:35,818613
0,-2,0,1,-2,-1,-1,0,2021-08-07 13:02:35,818613
0,0,1,4,3,0,1,1,2021-08-07 13:02:35,818613
-1,1,-1,-4,-2,0,-2,2,2021-08-07 13:02:35,818613
-2,-1,-1,-5,-7,-4,-2,-1,2021-08-07 13:02:35,818613
-1,-1,-2,-2,-1,-2,1,0,2021-08-07 13:02:35,819613
2,1,2,-4,1,3,1,0,2021-08-07 13:02:35,819613
-1,-3,-1,1,1,-1,-1,-3,2021-08-07 13:02:35,834614
1,1,0,0,2,1,1,1,2021-08-07 13:02:35,834614
0,-2,1,0,0,0,0,-1,2021-08-07 13:02:35,834614
0,0,-2,-5,-8,-4,0,1,2021-08-07 13:02:35,834614
-3,-3,-4,-7,-2,-2,0,-1,2021-08-07 13:02:35,834614
-4,-6,-3,0,-1,0,-1,-1,2021-08-07 13:02:35,834614
-1,0,-1,-1,-2,-3,-1,-1,2021-08-07 13:02:35,834614
0,4,5,4,3,1,0,1,2021-08-07 13:02:35,835614
-3,-4,-1,-6,-11,-8,-7,-6,2021-08-07 13:02:35,835614
2,3,3,3,7,6,2,1,2021-08-07 13:02:35,835614
0,-2,-1,3,6,2,0,0,2021-08-07 13:02:35,835614
0,-1,0,0,0,0,0,0,2021-08-07 13:02:35,835614
0,2,-1,2,-2,1,1,2,2021-08-07 13:02:35,835614
-2,-3,-3,-5,-8,-4,-3,-2,2021-08-07 13:02:35,835614
0,2,-1,-5,1,2,0,1,2021-08-07 13:02:35,866612
0,-1,1,4,4,1,1,-1,2021-08-07 13:02:35,866612
0,-3,-1,0,1,1,0,0,2021-08-07 13:02:35,882612
-3,-2,-2,-4,-6,-5,-3,-3,2021-08-07 13:02:35,882612
-1,-2,-1,5,2,-2,0,1,2021-08-07 13:02:35,882612
-2,1,-1,-3,-2,-1,-1,1,2021-08-07 13:02:35,882612
0,1,2,1,6,5,2,1,2021-08-07 13:02:35,882612
-2,-2,-3,1,1,1,-1,-1,2021-08-07 13:02:35,898612
-1,0,0,-2,-3,-3,-5,-2,2021-08-07 13:02:35,898612
0,-2,-1,-2,-5,-1,-2,-1,2021-08-07 13:02:35,914612
2,2,3,8,9,5,3,0,2021-08-07 13:02:35,914612
-3,-5,-6,-8,-9,-7,-3,-3,2021-08-07 13:02:35,914612
-2,-2,-2,-11,-11,-5,-2,0,2021-08-07 13:02:35,914612
-1,-1,1,5,3,1,0,-2,2021-08-07 13:02:35,914612
1,2,2,3,11,6,3,2,2021-08-07 13:02:35,915614
-1,-2,-1,-2,2,0,-1,-2,2021-08-07 13:02:35,915614
-2,-2,-3,-4,-5,-4,-2,-2,2021-08-07 13:02:35,942613
-1,-2,-4,-11,-13,-7,-4,-2,2021-08-07 13:02:35,943613
1,2,3,7,5,3,1,2,2021-08-07 13:02:35,943613
-1,1,-1,-3,-3,-2,-2,-1,2021-08-07 13:02:35,943613
-2,-2,-2,-6,-7,-4,-3,-1,2021-08-07 13:02:35,977615
0,3,3,11,18,9,5,1,2021-08-07 13:02:35,993654
-4,-5,-5,-5,-9,-8,-4,-4,2021-08-07 13:02:36,009654
0,0,0,-2,0,0,0,2,2021-08-07 13:02:36,009654
4,3,4,1,5,4,3,0,2021-08-07 13:02:36,009654
-4,-5,-6,-11,-24,-16,-8,-2,2021-08-07 13:02:36,009654
2,0,3,10,18,15,6,2,2021-08-07 13:02:36,010658
-4,-2,1,3,2,-1,0,-3,2021-08-07 13:02:36,025654
-1,1,0,5,6,4,2,0,2021-08-07 13:02:36,041654
0,0,-2,-4,-3,-2,0,0,2021-08-07 13:02:36,057656
-3,-2,-3,-11,-19,-12,-6,-2,2021-08-07 13:02:36,057656
-1,-2,-2,-3,-7,-3,-2,-1,2021-08-07 13:02:36,057656
-1,0,0,4,12,8,2,1,2021-08-07 13:02:36,057656
0,0,1,-1,1,0,0,0,2021-08-07 13:02:36,057656
0,0,1,0,1,-1,-1,1,2021-08-07 13:02:36,058656
-1,-1,0,3,4,2,2,0,2021-08-07 13:02:36,073654
-1,0,0,0,-5,-3,-1,-2,2021-08-07 13:02:36,073654
-3,-2,-6,-6,-6,-3,-2,-3,2021-08-07 13:02:36,105655
2,3,2,2,-1,0,2,0,2021-08-07 13:02:36,105655
0,1,1,4,4,1,-1,0,2021-08-07 13:02:36,105655
-1,-1,-1,-4,-8,-4,-2,-3,2021-08-07 13:02:36,105655
3,1,2,-2,7,5,2,2,2021-08-07 13:02:36,105655
0,0,-1,-1,-1,-2,-2,-2,2021-08-07 13:02:36,106654
0,0,-1,-1,-3,-1,-1,0,2021-08-07 13:02:36,106654
0,0,0,4,0,-1,-1,-1,2021-08-07 13:02:36,106654
0,-1,-1,3,2,2,0,-1,2021-08-07 13:02:36,106654
-4,-6,-6,-6,-6,-6,-4,-2,2021-08-07 13:02:36,107654
-1,-2,-3,-2,-1,-2,-2,0,2021-08-07 13:02:36,107654
0,-1,1,4,3,3,2,2,2021-08-07 13:02:36,107654
0,1,2,2,-1,0,0,0,2021-08-07 13:02:36,107654
-1,1,0,0,2,2,3,-1,2021-08-07 13:02:36,107654
2,1,1,-1,0,-2,-2,0,2021-08-07 13:02:36,107654
-1,-5,-6,-8,-5,-3,-3,-2,2021-08-07 13:02:36,108655
-2,0,1,3,0,-3,-2,-3,2021-08-07 13:02:36,108655
-3,-3,-3,-9,-15,-8,-5,-2,2021-08-07 13:02:36,137654
2,2,4,5,12,6,5,0,2021-08-07 13:02:36,137654
-2,-1,-1,2,5,0,-1,0,2021-08-07 13:02:36,137654
2,2,2,4,4,3,2,2,2021-08-07 13:02:36,137654
0,0,-2,-4,-7,-4,-3,-1,2021-08-07 13:02:36,137654
-2,-3,-1,-1,4,2,1,0,2021-08-07 13:02:36,138655
-2,-4,-3,-5,-4,-2,-3,-1,2021-08-07 13:02:36,168654
-1,-1,-2,3,2,0,0,-1,2021-08-07 13:02:36,168654
0,1,3,1,1,1,-2,0,2021-08-07 13:02:36,168654
-1,-2,-2,-5,-9,-7,-3,0,2021-08-07 13:02:36,168654
-1,-1,-1,-2,-4,-3,-2,-2,2021-08-07 13:02:36,168654
-1,-1,-1,-1,0,0,1,0,2021-08-07 13:02:36,168654
0,1,1,7,11,6,3,0,2021-08-07 13:02:36,184655
-2,1,-1,1,1,-1,-2,-2,2021-08-07 13:02:36,184655
2,2,2,3,7,3,0,2,2021-08-07 13:02:36,200654
0,-1,0,-3,-4,-3,-4,-1,2021-08-07 13:02:36,216655
0,1,-1,-1,-2,-1,0,1,2021-08-07 13:02:36,216655
-2,-3,-1,0,-5,-3,-2,-3,2021-08-07 13:02:36,216655
-3,-3,-3,-7,-6,-4,-2,-2,2021-08-07 13:02:36,216655
2,2,-1,-6,-3,2,2,0,2021-08-07 13:02:36,216655
-1,0,3,0,1,-2,-2,-1,2021-08-07 13:02:36,217655
-1,0,-1,-4,-2,1,-1,-2,2021-08-07 13:02:36,217655
0,0,0,5,0,0,2,-1,2021-08-07 13:02:36,232656
-2,-3,0,2,2,0,-2,-2,2021-08-07 13:02:36,232656
-3,-4,-5,-5,-5,-3,-1,-3,2021-08-07 13:02:36,264655
-2,-3,-2,-5,-6,-4,-4,-1,2021-08-07 13:02:36,280655
3,2,6,6,4,2,1,0,2021-08-07 13:02:36,280655
0,-1,0,-1,-1,1,-2,1,2021-08-07 13:02:36,280655
-2,-1,-2,-2,-6,-3,-3,-1,2021-08-07 13:02:36,280655
-1,-1,0,2,1,1,-1,-1,2021-08-07 13:02:36,280655
-2,-1,-3,-4,-3,2,0,-1,2021-08-07 13:02:36,280655
-2,0,-1,4,6,1,1,0,2021-08-07 13:02:36,281654
-2,-3,-4,-2,-4,-3,-3,0,2021-08-07 13:02:36,281654
-1,-4,-3,-5,-3,-3,-2,-1,2021-08-07 13:02:36,281654
1,1,0,1,2,-1,-1,0,2021-08-07 13:02:36,296654
0,0,0,0,0,1,2,-1,2021-08-07 13:02:36,312656
0,1,1,-1,5,3,1,1,2021-08-07 13:02:36,312656
0,-2,-1,-2,-2,-3,-2,-2,2021-08-07 13:02:36,312656
-1,1,0,-2,-2,0,-1,-1,2021-08-07 13:02:36,328655
-4,-4,-5,-2,-3,-3,-3,-2,2021-08-07 13:02:36,344654
2,1,1,-1,1,0,1,0,2021-08-07 13:02:36,376653
0,0,-2,-2,-2,-1,-2,-1,2021-08-07 13:02:36,376653
0,-1,0,0,1,0,2,-2,2021-08-07 13:02:36,376653
0,2,2,3,8,5,2,1,2021-08-07 13:02:36,376653
-2,0,0,1,-1,0,-1,-1,2021-08-07 13:02:36,376653
-2,-3,-1,-4,-4,-2,-2,0,2021-08-07 13:02:36,377654
2,1,2,0,0,1,2,1,2021-08-07 13:02:36,377654
-2,-2,-2,-2,-3,-3,-2,0,2021-08-07 13:02:36,377654
-1,-2,-2,-4,-3,-2,-4,-2,2021-08-07 13:02:36,377654
-2,-1,-2,4,0,-1,-2,-1,2021-08-07 13:02:36,377654
-1,-1,-3,-4,0,-1,-1,0,2021-08-07 13:02:36,377654
1,0,2,2,0,1,0,1,2021-08-07 13:02:36,377654
-1,-3,-2,-3,-2,-1,-3,0,2021-08-07 13:02:36,378655
-1,0,-2,0,0,1,-1,0,2021-08-07 13:02:36,378655
-1,-1,-1,-1,-3,0,-2,-2,2021-08-07 13:02:36,407654
0,-2,-2,-3,-4,-2,-2,-1,2021-08-07 13:02:36,407654
-1,0,0,-1,-5,-4,-1,-1,2021-08-07 13:02:36,407654
1,2,3,2,6,5,4,1,2021-08-07 13:02:36,407654
0,0,0,5,8,5,2,1,2021-08-07 13:02:36,407654
-1,1,-1,0,-2,-1,1,-1,2021-08-07 13:02:36,408654
-4,-5,-3,-1,-2,-1,-3,-3,2021-08-07 13:02:36,423654
3,3,2,0,2,1,2,1,2021-08-07 13:02:36,439655
0,2,2,2,3,0,-1,2,2021-08-07 13:02:36,455655
0,0,0,-3,-2,-3,-1,1,2021-08-07 13:02:36,455655
-2,-2,-3,-1,-4,-1,-1,-2,2021-08-07 13:02:36,455655
-4,-6,-3,-2,-1,-3,-2,-3,2021-08-07 13:02:36,455655
0,-1,0,-1,-7,-4,-2,-1,2021-08-07 13:02:36,456655
2,0,4,5,13,9,4,1,2021-08-07 13:02:36,456655
2,1,0,3,4,3,2,0,2021-08-07 13:02:36,456655
0,-1,-4,-3,-5,-3,-2,-1,2021-08-07 13:02:36,456655
-1,-1,-1,4,2,-1,0,-1,2021-08-07 13:02:36,471655
0,-2,0,2,0,0,0,-2,2021-08-07 13:02:36,471655
-1,1,-1,-2,1,-1,0,-1,2021-08-07 13:02:36,487654
0,-2,-2,-3,-7,-3,-1,0,2021-08-07 13:02:36,503654
-1,-2,-2,-6,-8,-5,-3,-2,2021-08-07 13:02:36,503654
1,2,3,2,3,2,1,1,2021-08-07 13:02:36,503654
0,-2,-1,1,4,1,1,-1,2021-08-07 13:02:36,503654
-1,-2,-2,-2,0,-2,-1,-2,2021-08-07 13:02:36,503654
1,2,0,-3,-3,-2,0,-1,2021-08-07 13:02:36,519654
-1,0,-2,-2,-5,-1,-2,-1,2021-08-07 13:02:36,519654
-2,-5,-4,-3,-5,-5,-1,-3,2021-08-07 13:02:36,519654
2,4,5,3,0,2,-1,1,2021-08-07 13:02:36,519654
-1,-3,-1,3,6,3,1,-1,2021-08-07 13:02:36,551659
-2,-2,-5,-7,-9,-6,-2,-2,2021-08-07 13:02:36,551659
-2,-3,0,1,3,2,0,-1,2021-08-07 13:02:36,567655
1,0,0,6,8,3,1,2,2021-08-07 13:02:36,567655
-2,-2,-1,-4,-3,-2,-1,1,2021-08-07 13:02:36,567655
0,-1,-2,-2,-5,-3,0,1,2021-08-07 13:02:36,567655
1,-2,0,0,-5,-1,-2,0,2021-08-07 13:02:36,567655
-5,-5,-5,-7,-7,-9,-7,-7,2021-08-07 13:02:36,568655
2,4,6,6,6,3,0,2,2021-08-07 13:02:36,599653
0,0,0,2,3,0,-1,-1,2021-08-07 13:02:36,599653
-2,-1,-4,-8,-9,-6,-1,-2,2021-08-07 13:02:36,599653
-2,-2,-3,-2,-1,0,0,0,2021-08-07 13:02:36,599653
-1,-1,-3,-7,-10,-6,-2,-1,2021-08-07 13:02:36,599653
-2,-5,-3,-6,-7,-5,-3,-2,2021-08-07 13:02:36,600656
2,3,2,5,5,3,2,3,2021-08-07 13:02:36,614654
-2,-1,0,-2,-6,-4,-1,-1,2021-08-07 13:02:36,614654
-4,-4,-6,-6,-8,-3,-4,-3,2021-08-07 13:02:36,614654
1,1,1,7,12,6,3,1,2021-08-07 13:02:36,614654
-2,-2,-3,2,5,1,0,-2,2021-08-07 13:02:36,630652
4,4,4,0,3,4,5,2,2021-08-07 13:02:36,630652
0,0,-4,-4,-8,-6,-1,0,2021-08-07 13:02:36,646652
1,-1,1,-1,-3,-3,0,3,2021-08-07 13:02:36,646652
-1,-4,-3,-3,-1,2,-2,-1,2021-08-07 13:02:36,646652
0,3,7,13,21,18,22,11,2021-08-07 13:02:36,646652
9,6,7,13,20,29,30,14,2021-08-07 13:02:36,662655
4,2,0,-4,-7,-12,-23,-6,2021-08-07 13:02:36,662655
-39,-23,-19,-25,-48,-72,-73,-51,2021-08-07 13:02:36,662655
-6,-6,-8,-12,-15,-12,-15,-8,2021-08-07 13:02:36,662655
1,1,4,8,17,15,9,5,2021-08-07 13:02:36,678654
6,3,2,7,11,16,21,14,2021-08-07 13:02:36,693654
16,13,11,14,19,35,43,27,2021-08-07 13:02:36,709655
49,20,14,14,28,81,99,72,2021-08-07 13:02:36,709655
23,15,11,7,5,-7,-37,-5,2021-08-07 13:02:36,709655
-92,-46,-37,-40,-68,-94,-93,-100,2021-08-07 13:02:36,709655
-35,-27,-23,-25,-29,-12,12,-7,2021-08-07 13:02:36,709655
17,5,4,10,17,43,48,21,2021-08-07 13:02:36,709655
30,24,18,23,35,45,36,37,2021-08-07 13:02:36,725654
-10,-5,-2,-2,-7,-18,-21,-9,2021-08-07 13:02:36,740654
38,15,11,5,11,54,78,56,2021-08-07 13:02:36,772655
44,18,7,14,25,15,-10,7,2021-08-07 13:02:36,788655
-63,-15,-12,-20,-39,-84,-71,-89,2021-08-07 13:02:36,788655
-69,-37,-24,-31,-48,-62,-56,-54,2021-08-07 13:02:36,788655
-5,-2,-4,1,4,18,34,18,2021-08-07 13:02:36,788655
22,9,10,7,13,44,53,41,2021-08-07 13:02:36,804652
39,14,8,4,4,17,21,25,2021-08-07 13:02:36,820654
29,17,13,7,12,21,19,20,2021-08-07 13:02:36,820654
6,9,11,22,27,18,7,1,2021-08-07 13:02:36,820654
-8,-1,0,2,9,-16,-25,-16,2021-08-07 13:02:36,820654
-17,-12,-12,-6,-4,-18,-27,-18,2021-08-07 13:02:36,820654
8,3,1,-7,-11,10,24,14,2021-08-07 13:02:36,821655
15,8,6,6,19,13,-6,4,2021-08-07 13:02:36,836655
-36,-19,-16,-16,-33,-59,-66,-47,2021-08-07 13:02:36,836655
-19,-13,-8,-18,-34,-20,-3,-3,2021-08-07 13:02:36,836655
35,11,8,23,42,58,55,44,2021-08-07 13:02:36,836655
5,8,11,26,14,-10,-25,-14,2021-08-07 13:02:36,837653
-27,-4,-2,26,15,-23,-31,-28,2021-08-07 13:02:36,837653
-5,-8,-20,-45,-31,1,21,11,2021-08-07 13:02:36,837653
26,7,7,-21,0,17,20,21,2021-08-07 13:02:36,837653
-6,3,6,14,17,-6,-23,-17,2021-08-07 13:02:36,837653
-20,-6,-8,0,-6,-9,-7,-13,2021-08-07 13:02:36,837653
-8,-22,-28,-46,-48,-21,-3,0,2021-08-07 13:02:36,838656
7,-5,-24,-22,-17,-1,-1,4,2021-08-07 13:02:36,838656
-11,-9,-5,-39,-31,-24,-21,-12,2021-08-07 13:02:36,838656
-9,-5,-5,-1,-9,-10,-4,-6,2021-08-07 13:02:36,838656
16,25,36,80,82,44,24,14,2021-08-07 13:02:36,868654
11,15,21,40,30,16,12,8,2021-08-07 13:02:36,868654
1,0,-4,1,-7,-2,3,1,2021-08-07 13:02:36,868654
-27,-36,-41,-89,-89,-63,-38,-24,2021-08-07 13:02:36,868654
-2,-4,-5,-4,2,3,1,2,2021-08-07 13:02:36,884655
5,7,8,12,16,12,10,5,2021-08-07 13:02:36,884655
7,7,9,19,12,9,3,4,2021-08-07 13:02:36,884655
-2,2,4,-9,-14,-13,-14,-7,2021-08-07 13:02:36,884655
-4,-3,1,20,29,16,8,0,2021-08-07 13:02:36,900655
10,10,13,23,29,20,16,13,2021-08-07 13:02:36,900655
5,2,-3,-3,2,-2,0,-1,2021-08-07 13:02:36,900655
-8,-4,-5,-17,-28,-23,-17,-9,2021-08-07 13:02:36,900655
-8,-8,-4,-6,-10,-8,-4,-4,2021-08-07 13:02:36,915653
11,10,9,15,15,15,14,10,2021-08-07 13:02:36,915653
-3,-2,-2,-5,-6,-8,-10,-5,2021-08-07 13:02:36,931654
-3,-2,3,6,3,-1,1,-3,2021-08-07 13:02:36,931654
2,3,2,-6,0,9,8,6,2021-08-07 13:02:36,947655
-4,-7,-10,-28,-25,-11,-7,-4,2021-08-07 13:02:36,963654
-6,-5,-1,0,8,2,-3,-5,2021-08-07 13:02:36,963654
0,2,6,20,16,4,3,0,2021-08-07 13:02:36,963654
2,1,1,10,6,5,3,2,2021-08-07 13:02:36,963654
2,4,3,-5,-12,-5,-2,0,2021-08-07 13:02:36,963654
-3,-3,-5,3,1,-1,-2,-2,2021-08-07 13:02:36,964655
3,4,6,12,10,7,3,2,2021-08-07 13:02:36,979656
-2,-2,-1,-8,-2,-4,-3,-3,2021-08-07 13:02:36,979656
-1,-5,-5,-7,-8,-3,-1,0,2021-08-07 13:02:36,979656
-4,-7,-8,-16,-17,-8,-6,-2,2021-08-07 13:02:36,979656
4,11,12,22,28,13,5,5,2021-08-07 13:02:36,979656
-4,-4,-4,-7,-13,-4,-1,-2,2021-08-07 13:02:37,010653
2,2,5,19,33,19,8,4,2021-08-07 13:02:37,026652
-1,-1,-3,-5,-6,-6,-4,-1,2021-08-07 13:02:37,026652
-6,-3,-5,-11,-8,-7,-3,-4,2021-08-07 13:02:37,026652
-2,-6,-5,-12,-21,-12,-3,3,2021-08-07 13:02:37,026652
3,2,1,8,14,9,4,3,2021-08-07 13:02:37,026652
-2,-1,-4,-4,-5,-4,-5,-4,2021-08-07 13:02:37,026652
-2,-2,-1,-8,-7,-2,-2,-1,2021-08-07 13:02:37,027656
-1,0,1,14,9,4,1,-2,2021-08-07 13:02:37,042655
0,1,0,-1,-5,-3,-1,-1,2021-08-07 13:02:37,058652
-1,-3,-7,-15,-15,-9,-6,-3,2021-08-07 13:02:37,073656
-1,0,-1,-2,2,3,1,1,2021-08-07 13:02:37,073656
-2,-4,-3,-1,1,1,-1,-3,2021-08-07 13:02:37,073656
-2,-3,-2,1,-2,-5,-2,-2,2021-08-07 13:02:37,073656
3,4,4,0,-5,-2,1,2,2021-08-07 13:02:37,089656
-1,-2,-3,-7,-3,-1,-1,-2,2021-08-07 13:02:37,089656
-3,-2,-3,-10,-13,-7,-4,-4,2021-08-07 13:02:37,089656
2,1,2,7,4,3,2,0,2021-08-07 13:02:37,089656
-2,-1,-1,6,1,-1,-2,-2,2021-08-07 13:02:37,089656
0,-2,-2,1,-1,-3,-2,-2,2021-08-07 13:02:37,090655
-2,-3,-4,-4,1,1,-3,-4,2021-08-07 13:02:37,105658
-1,0,-1,-7,-8,-3,-2,-1,2021-08-07 13:02:37,121655
1,1,2,0,-1,1,-1,0,2021-08-07 13:02:37,137655
-2,-1,0,7,8,5,0,-2,2021-08-07 13:02:37,137655
4,1,1,-1,0,-2,1,2,2021-08-07 13:02:37,153656
-1,0,0,1,5,4,3,2,2021-08-07 13:02:37,153656
-4,-3,-3,-7,-14,-11,-5,-4,2021-08-07 13:02:37,153656
1,-1,0,1,-2,1,-1,-2,2021-08-07 13:02:37,153656
1,0,1,17,12,4,1,1,2021-08-07 13:02:37,169654
-1,-3,-7,-22,-7,-2,-1,0,2021-08-07 13:02:37,185655
-2,-3,-2,1,10,3,2,-1,2021-08-07 13:02:37,185655
-3,-5,-4,-9,-9,-7,-5,-3,2021-08-07 13:02:37,185655
0,-1,-1,-6,-12,-5,-2,-1,2021-08-07 13:02:37,185655
0,2,3,7,-3,-1,0,-2,2021-08-07 13:02:37,185655
1,2,2,7,7,6,1,1,2021-08-07 13:02:37,186656
5,7,7,4,9,2,2,4,2021-08-07 13:02:37,186656
-1,-1,-1,-1,-4,-2,-1,1,2021-08-07 13:02:37,186656
-4,-5,-5,-3,-2,-4,-4,-4,2021-08-07 13:02:37,186656
-3,-3,-4,-11,-10,-6,-4,-4,2021-08-07 13:02:37,186656
-4,-3,-1,4,5,-1,-1,-2,2021-08-07 13:02:37,186656
2,3,4,-1,-4,-2,0,2,2021-08-07 13:02:37,201655
3,3,3,9,10,7,3,3,2021-08-07 13:02:37,201655
0,-2,0,-1,8,7,3,1,2021-08-07 13:02:37,201655
-4,-4,-4,-4,-6,-5,-5,-4,2021-08-07 13:02:37,201655
-1,-1,-1,-7,0,1,-2,-3,2021-08-07 13:02:37,217653
4,4,6,14,6,-1,1,1,2021-08-07 13:02:37,233655
3,3,1,14,-1,0,1,2,2021-08-07 13:02:37,249653
-1,-2,-5,-8,0,1,0,-1,2021-08-07 13:02:37,249653
-4,-2,-4,-15,-17,-10,-6,-3,2021-08-07 13:02:37,249653
-4,-8,-8,-15,-22,-12,-7,-6,2021-08-07 13:02:37,249653
7,11,13,24,35,19,10,5,2021-08-07 13:02:37,249653
1,1,1,-4,-11,-4,0,0,2021-08-07 13:02:37,249653
-1,0,3,0,4,2,2,-1,2021-08-07 13:02:37,280654
-3,-1,-6,-3,-10,-8,-4,-2,2021-08-07 13:02:37,280654
-2,-8,-9,-10,-10,-9,-4,-3,2021-08-07 13:02:37,280654
-2,-2,-3,-14,-22,-9,-4,-4,2021-08-07 13:02:37,280654
7,9,10,27,44,24,12,6,2021-08-07 13:02:37,280654
-1,1,2,7,3,-3,-2,0,2021-08-07 13:02:37,281654
-4,-1,-3,-8,-8,-5,-2,-1,2021-08-07 13:02:37,281654
1,0,-2,4,5,1,-1,1,2021-08-07 13:02:37,281654
-3,-5,-8,-12,-17,-9,-5,-5,2021-08-07 13:02:37,312654
0,-3,1,-6,-4,-2,0,-1,2021-08-07 13:02:37,328654
0,1,4,2,-4,-1,-2,1,2021-08-07 13:02:37,344654
2,2,4,16,16,7,3,0,2021-08-07 13:02:37,344654
-1,-3,-7,-11,-14,-7,-4,-2,2021-08-07 13:02:37,344654
-1,-4,-5,-3,0,2,1,-1,2021-08-07 13:02:37,344654
-3,-4,-5,-7,-13,-10,-6,-4,2021-08-07 13:02:37,344654
-1,-2,-2,-8,-7,0,-1,-1,2021-08-07 13:02:37,344654
3,9,5,11,13,10,5,5,2021-08-07 13:02:37,344654
-1,-1,-2,-12,-12,-7,-4,-2,2021-08-07 13:02:37,345654
0,-1,0,1,1,0,-3,-1,2021-08-07 13:02:37,345654
-4,-7,-5,-12,-15,-11,-7,-4,2021-08-07 13:02:37,345654
-1,-2,-2,15,22,13,5,0,2021-08-07 13:02:37,360654
2,3,4,9,12,7,3,2,2021-08-07 13:02:37,375655
-2,-1,1,4,3,0,-1,-2,2021-08-07 13:02:37,375655
0,2,0,5,4,2,0,2,2021-08-07 13:02:37,375655
-2,-3,-3,-15,-20,-10,-4,-3,2021-08-07 13:02:37,375655
-1,-2,-2,-9,-4,0,0,-1,2021-08-07 13:02:37,375655
-3,-2,-1,-7,-9,-9,-5,-5,2021-08-07 13:02:37,391654
-1,-1,0,5,6,4,1,0,2021-08-07 13:02:37,391654
-2,-1,-2,-1,-8,-5,-3,-2,2021-08-07 13:02:37,391654
-1,-2,-3,3,5,1,-1,-1,2021-08-07 13:02:37,391654
4,4,4,1,-1,2,4,3,2021-08-07 13:02:37,407654
2,3,2,3,8,5,3,3,2021-08-07 13:02:37,407654
1,0,3,9,3,-4,-1,-2,2021-08-07 13:02:37,423655
-5,-6,-7,-6,-16,-11,-7,-4,2021-08-07 13:02:37,439656
3,6,8,19,26,16,7,5,2021-08-07 13:02:37,439656
-2,-3,-8,-11,-11,1,-2,-3,2021-08-07 13:02:37,439656
-7,-14,-17,-45,-30,-15,-10,-8,2021-08-07 13:02:37,455653
3,3,5,-1,6,4,-1,1,2021-08-07 13:02:37,470653
-4,-7,-8,-6,-6,-7,-2,-3,2021-08-07 13:02:37,470653
0,1,5,18,8,0,2,1,2021-08-07 13:02:37,470653
4,6,5,22,16,10,5,4,2021-08-07 13:02:37,470653
-1,-4,-4,-6,-4,-1,-1,-2,2021-08-07 13:02:37,470653
-2,-4,-3,-11,-5,0,-2,-2,2021-08-07 13:02:37,470653
1,2,8,7,10,3,0,-2,2021-08-07 13:02:37,470653
-4,-1,-8,-10,-14,-8,-6,-5,2021-08-07 13:02:37,486653
0,2,3,8,6,2,0,0,2021-08-07 13:02:37,486653
-2,-5,-8,-12,-21,-13,-9,-5,2021-08-07 13:02:37,486653
2,2,3,-2,3,8,6,3,2021-08-07 13:02:37,486653
2,4,9,19,27,10,7,1,2021-08-07 13:02:37,502654
5,8,6,5,8,9,5,4,2021-08-07 13:02:37,518656
-2,-2,-3,-5,-3,-3,-2,-1,2021-08-07 13:02:37,518656
-6,-9,-9,-15,-19,-14,-9,-5,2021-08-07 13:02:37,518656
3,6,8,14,5,0,3,4,2021-08-07 13:02:37,518656
1,0,0,9,7,2,0,1,2021-08-07 13:02:37,518656
1,-1,-1,-5,0,1,-1,-2,2021-08-07 13:02:37,533658
-5,-7,-8,-22,-8,-5,-4,-2,2021-08-07 13:02:37,534659
-3,-6,-6,-11,-7,-2,-3,-1,2021-08-07 13:02:37,534659
0,2,1,11,4,2,1,-1,2021-08-07 13:02:37,534659
1,4,7,11,12,6,4,2,2021-08-07 13:02:37,549654
-1,0,-2,11,2,0,-1,-2,2021-08-07 13:02:37,565654
2,2,2,-9,-5,-2,0,2,2021-08-07 13:02:37,580654
-4,-6,-8,-18,-13,-8,-6,-2,2021-08-07 13:02:37,580654
0,-3,-4,-1,6,3,0,0,2021-08-07 13:02:37,580654
3,3,8,16,23,12,7,2,2021-08-07 13:02:37,580654
-2,-1,2,2,-9,-4,-4,-2,2021-08-07 13:02:37,580654
0,2,2,5,3,2,0,0,2021-08-07 13:02:37,581654
-3,-6,-8,-14,-14,-8,-3,-4,2021-08-07 13:02:37,581654
2,3,1,-5,-6,-2,-1,2,2021-08-07 13:02:37,581654
-3,-4,-2,-3,1,0,0,0,2021-08-07 13:02:37,611656
0,1,-1,-2,5,3,2,-1,2021-08-07 13:02:37,611656
3,2,4,2,-4,-2,-2,2,2021-08-07 13:02:37,611656
-2,-2,-5,2,-3,-4,-3,-3,2021-08-07 13:02:37,611656
-1,0,-1,-7,-8,-3,-1,-2,2021-08-07 13:02:37,627655
0,0,2,-2,-5,-1,0,0,2021-08-07 13:02:37,643655
3,4,-1,11,12,7,5,3,2021-08-07 13:02:37,643655
3,3,-1,-1,6,4,3,3,2021-08-07 13:02:37,643655
-2,-5,-6,-11,-6,-4,-2,-2,2021-08-07 13:02:37,643655
-4,-5,-5,-3,-2,-4,-3,-5,2021-08-07 13:02:37,643655
-1,-3,0,-1,-4,-3,-3,-3,2021-08-07 13:02:37,644655
-2,-3,-5,-13,-29,-19,-8,-2,2021-08-07 13:02:37,644655
4,4,7,23,35,24,9,4,2021-08-07 13:02:37,659655
1,1,2,6,12,8,4,1,2021-08-07 13:02:37,690656
0,1,-1,3,2,0,1,1,2021-08-07 13:02:37,690656
-2,-3,-6,-12,-3,-4,-2,-3,2021-08-07 13:02:37,690656
-6,-7,-1,-20,-29,-19,-10,-7,2021-08-07 13:02:37,690656
-2,-2,-14,-9,-11,-5,-1,0,2021-08-07 13:02:37,690656
0,0,3,9,11,3,1,0,2021-08-07 13:02:37,691654
-3,-2,-2,1,-10,-7,-4,-3,2021-08-07 13:02:37,691654
-2,-3,-3,-4,-6,-5,-3,0,2021-08-07 13:02:37,706657
5,10,17,21,28,18,8,5,2021-08-07 13:02:37,706657
0,1,-3,-3,-12,-8,-2,-2,2021-08-07 13:02:37,706657
-1,0,-4,-11,6,8,3,0,2021-08-07 13:02:37,722662
-4,-6,-4,-4,-4,-7,-4,-2,2021-08-07 13:02:37,722662
-5,-7,-10,-11,-12,-11,-6,-2,2021-08-07 13:02:37,722662
-2,0,0,-2,-2,-1,0,0,2021-08-07 13:02:37,722662
-4,-3,2,4,-11,-8,-6,-5,2021-08-07 13:02:37,722662
7,11,6,21,27,18,10,7,2021-08-07 13:02:37,753656
0,-1,-2,-5,-6,-6,-1,0,2021-08-07 13:02:37,769654
-3,-4,-5,-20,-19,-10,-7,-4,2021-08-07 13:02:37,769654
0,-1,2,8,16,9,3,1,2021-08-07 13:02:37,769654
-3,-5,-5,-2,-5,-6,-5,-3,2021-08-07 13:02:37,769654
0,-2,3,5,3,1,-1,-1,2021-08-07 13:02:37,769654
-3,-4,-4,-6,-3,0,-2,-2,2021-08-07 13:02:37,770654
-2,-4,-6,-3,-10,-6,-4,-4,2021-08-07 13:02:37,770654
7,12,12,8,-1,0,4,6,2021-08-07 13:02:37,785653
2,3,7,17,26,13,5,3,2021-08-07 13:02:37,801655
-1,0,1,8,7,2,0,0,2021-08-07 13:02:37,833657
0,3,0,-6,5,4,2,2,2021-08-07 13:02:37,849654
-3,-4,-8,-5,-9,-5,-3,-3,2021-08-07 13:02:37,849654
-8,-11,-10,-35,-35,-19,-10,-8,2021-08-07 13:02:37,849654
-1,-2,0,2,-1,-3,-2,-1,2021-08-07 13:02:37,849654
1,1,4,12,6,3,1,1,2021-08-07 13:02:37,849654
-1,-1,-1,1,1,-1,-1,-1,2021-08-07 13:02:37,850656
0,-1,0,0,-2,1,0,0,2021-08-07 13:02:37,850656
2,2,7,15,14,8,3,1,2021-08-07 13:02:37,850656
5,7,8,16,16,8,5,3,2021-08-07 13:02:37,850656
-1,-4,-7,-17,-10,-4,-3,-1,2021-08-07 13:02:37,850656
-6,-10,-14,-26,-24,-13,-10,-6,2021-08-07 13:02:37,850656
-5,-5,-5,-8,-6,-5,-4,-3,2021-08-07 13:02:37,865654
1,0,3,6,5,2,0,-1,2021-08-07 13:02:37,865654
1,1,3,7,3,1,0,0,2021-08-07 13:02:37,865654
2,2,2,15,6,0,1,2,2021-08-07 13:02:37,865654
1,0,-1,3,0,0,-1,1,2021-08-07 13:02:37,865654
1,3,3,4,9,5,3,3,2021-08-07 13:02:37,866657
1,1,0,4,5,5,4,0,2021-08-07 13:02:37,897654
-5,-3,-2,-23,-12,-6,-5,-3,2021-08-07 13:02:37,897654
-4,-5,-11,-20,-23,-13,-7,-4,2021-08-07 13:02:37,913655
-4,-6,-4,0,-1,0,1,-1,2021-08-07 13:02:37,913655
1,1,-1,3,-4,-3,-1,0,2021-08-07 13:02:37,913655
3,5,6,5,5,3,3,2,2021-08-07 13:02:37,913655
0,0,2,2,11,5,1,1,2021-08-07 13:02:37,913655
-1,-2,1,-1,-2,-3,-1,-2,2021-08-07 13:02:37,914658
0,-1,1,3,2,-1,-2,-1,2021-08-07 13:02:37,929657
1,-1,-1,-2,-10,-1,0,-1,2021-08-07 13:02:37,945657
-4,-6,-10,-20,-13,-5,-3,-3,2021-08-07 13:02:37,945657
-1,-2,-4,-16,-21,-10,-4,-1,2021-08-07 13:02:37,945657
2,2,6,19,25,11,5,2,2021-08-07 13:02:37,945657
3,2,6,18,24,10,5,3,2021-08-07 13:02:37,945657
2,4,5,10,14,9,5,3,2021-08-07 13:02:37,946657
2,3,3,4,-1,-2,-1,1,2021-08-07 13:02:37,946657
-6,-6,-6,-8,-16,-9,-5,-6,2021-08-07 13:02:37,961654
-4,-3,-9,-28,-24,-15,-7,-3,2021-08-07 13:02:37,961654
2,-1,1,0,1,6,3,2,2021-08-07 13:02:37,977655
-1,-2,-1,5,12,4,0,0,2021-08-07 13:02:37,977655
0,-2,-1,4,-3,-4,-3,0,2021-08-07 13:02:37,977655
1,1,2,8,10,5,3,2,2021-08-07 13:02:37,977655
0,1,3,0,-7,-7,-3,-1,2021-08-07 13:02:37,977655
-2,-2,-8,-8,-10,-4,-4,-2,2021-08-07 13:02:37,977655
-1,-2,-4,-3,4,4,2,-2,2021-08-07 13:02:38,008654
0,1,-1,2,-2,0,0,0,2021-08-07 13:02:38,008654
-1,-3,-3,-10,-2,-3,-2,0,2021-08-07 13:02:38,008654
3,5,7,0,0,1,3,3,2021-08-07 13:02:38,008654
1,2,2,5,15,9,3,1,2021-08-07 13:02:38,023654
-3,-3,-2,2,-9,-8,-4,-3,2021-08-07 13:02:38,023654
1,3,4,13,14,8,6,2,2021-08-07 13:02:38,023654
-2,-5,-6,-8,-12,-10,-5,-1,2021-08-07 13:02:38,023654
-5,-9,-8,-12,-14,-10,-8,-5,2021-08-07 13:02:38,039656
4,7,9,7,20,13,7,4,2021-08-07 13:02:38,039656
-2,-1,2,-10,-5,-3,-5,-3,2021-08-07 13:02:38,039656
-3,-3,-7,-7,-6,-3,-3,-3,2021-08-07 13:02:38,039656
-4,-6,-8,-6,-12,-11,-6,-4,2021-08-07 13:02:38,071654
-2,-1,-1,13,4,1,0,-1,2021-08-07 13:02:38,071654
0,1,1,9,8,3,1,0,2021-08-07 13:02:38,071654
1,1,4,-2,5,3,2,2,2021-08-07 13:02:38,071654
2,5,5,5,-2,-2,0,3,2021-08-07 13:02:38,071654
0,-2,-1,4,1,2,-1,-1,2021-08-07 13:02:38,072655
-3,-6,-12,-32,-21,-11,-4,-5,2021-08-07 13:02:38,087655
-2,-3,0,3,1,0,-2,-3,2021-08-07 13:02:38,087655
-1,-1,-1,-3,2,0,-1,-1,2021-08-07 13:02:38,103654
2,2,5,17,12,4,3,2,2021-08-07 13:02:38,119655
-2,1,2,8,-3,-2,-1,0,2021-08-07 13:02:38,119655
2,3,4,16,15,8,3,0,2021-08-07 13:02:38,119655
-1,-2,-4,-15,-15,-10,-4,-3,2021-08-07 13:02:38,119655
-1,-2,-1,-1,-9,-5,-3,-1,2021-08-07 13:02:38,119655
-1,-1,-4,0,11,6,1,0,2021-08-07 13:02:38,119655
0,-1,-5,-12,-6,-1,0,-1,2021-08-07 13:02:38,120654
-2,2,5,8,13,8,4,1,2021-08-07 13:02:38,167655
-4,-5,-5,-6,-15,-11,-4,-3,2021-08-07 13:02:38,183657
0,-1,-1,1,-2,-2,-3,-1,2021-08-07 13:02:38,183657
1,0,1,6,3,1,1,0,2021-08-07 13:02:38,183657
-1,0,0,0,5,2,0,-2,2021-08-07 13:02:38,183657
0,2,2,0,-2,1,0,0,2021-08-07 13:02:38,183657
-1,-1,1,3,5,1,1,-1,2021-08-07 13:02:38,184655
-1,0,-5,-4,-3,-3,-1,-1,2021-08-07 13:02:38,184655
1,1,0,-5,-2,0,-1,1,2021-08-07 13:02:38,184655
-2,-4,-4,-7,-5,-6,-3,-3,2021-08-07 13:02:38,184655
-3,-3,-3,-3,-15,-10,-5,-4,2021-08-07 13:02:38,199654
-5,-8,-6,3,12,6,0,-2,2021-08-07 13:02:38,199654
6,9,10,7,8,6,4,5,2021-08-07 13:02:38,199654
-2,0,-3,-5,0,-2,0,-1,2021-08-07 13:02:38,215656
4,5,6,5,9,6,4,4,2021-08-07 13:02:38,215656
-4,-6,-6,-24,-20,-12,-7,-7,2021-08-07 13:02:38,215656
-4,-7,-2,-4,-11,-7,-2,-3,2021-08-07 13:02:38,230662
-1,-6,-10,-1,-1,0,-3,0,2021-08-07 13:02:38,246654
2,2,2,13,5,2,0,2,2021-08-07 13:02:38,246654
8,11,11,27,38,22,12,9,2021-08-07 13:02:38,246654
-4,-6,-6,-15,-6,-3,-3,-3,2021-08-07 13:02:38,246654
-1,0,2,-5,-12,-9,-6,-4,2021-08-07 13:02:38,246654
-2,-3,-4,-5,-8,-5,-3,-3,2021-08-07 13:02:38,246654
-1,1,3,5,-5,-6,-3,-1,2021-08-07 13:02:38,247655
4,3,5,8,7,5,4,2,2021-08-07 13:02:38,262655
-1,-1,-1,1,5,3,1,-1,2021-08-07 13:02:38,262655
-1,1,-5,-20,-14,-5,-2,-1,2021-08-07 13:02:38,262655
1,-1,1,-1,-6,-2,-2,-1,2021-08-07 13:02:38,262655
2,1,0,6,3,0,-2,1,2021-08-07 13:02:38,293656
-2,-3,-6,-5,-5,-5,-4,-2,2021-08-07 13:02:38,293656
-1,-2,-3,1,1,1,1,-2,2021-08-07 13:02:38,293656
3,1,2,4,5,3,5,2,2021-08-07 13:02:38,293656
-6,-6,-10,-26,-22,-12,-5,-5,2021-08-07 13:02:38,309652
-2,-3,-1,1,4,2,-1,-2,2021-08-07 13:02:38,325655
0,-1,3,12,19,10,3,-1,2021-08-07 13:02:38,341654
-2,-3,-4,-8,-9,-6,-4,-4,2021-08-07 13:02:38,341654
0,0,-4,5,0,0,-1,0,2021-08-07 13:02:38,341654
3,5,6,10,10,3,2,3,2021-08-07 13:02:38,341654
-2,0,-2,0,-8,-8,-4,-2,2021-08-07 13:02:38,357656
1,3,3,7,15,13,4,4,2021-08-07 13:02:38,373654
0,-1,0,0,-7,-3,0,1,2021-08-07 13:02:38,389656
-4,-6,-9,-21,-13,-6,-3,-3,2021-08-07 13:02:38,389656
-3,-6,-7,-9,-11,-5,-5,-3,2021-08-07 13:02:38,389656
1,2,1,4,1,0,2,0,2021-08-07 13:02:38,389656
0,2,2,5,6,3,-1,-2,2021-08-07 13:02:38,389656
1,3,5,12,7,2,2,2,2021-08-07 13:02:38,389656
0,-1,0,1,-5,-3,-3,0,2021-08-07 13:02:38,389656
-4,-6,-8,-17,-24,-14,-7,-4,2021-08-07 13:02:38,389656
1,0,-2,-5,6,5,3,0,2021-08-07 13:02:38,389656
0,-3,-2,-11,-15,-8,-4,-3,2021-08-07 13:02:38,390656
-3,-7,-4,7,12,5,0,-2,2021-08-07 13:02:38,390656
8,16,12,14,11,6,5,6,2021-08-07 13:02:38,390656
0,2,0,0,7,2,1,1,2021-08-07 13:02:38,405656
-4,-6,-3,1,-1,-1,-2,-4,2021-08-07 13:02:38,421657
-3,-4,-6,-19,-14,-8,-3,-3,2021-08-07 13:02:38,421657
-2,-5,-3,-2,-8,-1,-2,-2,2021-08-07 13:02:38,421657
3,3,5,17,17,10,5,2,2021-08-07 13:02:38,421657
1,2,1,1,-1,-1,1,-1,2021-08-07 13:02:38,437653
0,-2,-2,-8,-3,-3,-3,-2,2021-08-07 13:02:38,437653
-1,-5,-2,5,7,3,1,0,2021-08-07 13:02:38,437653
2,2,1,-4,-11,-6,-2,2,2021-08-07 13:02:38,453655
-3,-5,-2,-4,-1,1,-2,-2,2021-08-07 13:02:38,453655
0,4,3,8,6,5,3,1,2021-08-07 13:02:38,469655
-1,0,-2,-4,-8,-7,-4,-1,2021-08-07 13:02:38,485654
-1,-3,-4,-10,-8,-1,-1,-3,2021-08-07 13:02:38,501655
0,-1,-2,1,-7,-6,-3,-1,2021-08-07 13:02:38,501655
4,6,6,18,29,19,10,3,2021-08-07 13:02:38,501655
-4,-4,-5,-10,-8,-6,-4,-2,2021-08-07 13:02:38,501655
-4,-3,2,5,6,5,0,0,2021-08-07 13:02:38,501655
-1,-2,-4,-14,-10,-7,-3,-1,2021-08-07 13:02:38,502656
2,1,-3,-6,-15,-8,-4,-1,2021-08-07 13:02:38,502656
3,2,4,11,15,9,5,2,2021-08-07 13:02:38,502656
-2,1,0,6,0,-5,-3,-2,2021-08-07 13:02:38,502656
-3,-2,-7,3,2,1,-2,-2,2021-08-07 13:02:38,502656
-2,-3,-2,-13,-12,-9,-2,-2,2021-08-07 13:02:38,502656
-3,-6,-3,-15,-12,-6,-3,-4,2021-08-07 13:02:38,502656
0,-1,-1,-3,-4,-2,0,-3,2021-08-07 13:02:38,532657
-1,-3,1,5,5,2,0,-2,2021-08-07 13:02:38,532657
1,2,1,6,4,1,0,2,2021-08-07 13:02:38,532657
-1,1,-2,-1,-1,0,-1,-3,2021-08-07 13:02:38,532657
2,2,3,7,5,1,3,1,2021-08-07 13:02:38,548655
-2,0,0,2,2,1,-1,-1,2021-08-07 13:02:38,564656
-5,-4,-7,-19,-21,-10,-6,-4,2021-08-07 13:02:38,576655
5,3,5,15,19,10,7,4,2021-08-07 13:02:38,576655
-2,-6,-7,-2,0,-2,-2,-2,2021-08-07 13:02:38,577655
3,5,5,5,6,6,4,4,2021-08-07 13:02:38,577655
