EMG 1,EMG 2,EMG 3,EMG 4,EMG 5,EMG 6,EMG 7,EMG 8,Timestamp,Milliseconds
-3,4,3,-1,-1,-1,-2,-3,2021-08-05 17:22:41,195540
4,8,2,-3,-1,-1,-1,0,2021-08-05 17:22:41,195540
7,55,3,-2,0,0,-1,1,2021-08-05 17:22:41,211468
-1,-32,-3,0,2,2,2,3,2021-08-05 17:22:41,211468
-5,-25,-12,-2,-2,-2,0,-2,2021-08-05 17:22:41,211468
5,27,2,-4,-6,-5,-3,-2,2021-08-05 17:22:41,211468
-8,1,10,2,1,-1,1,-2,2021-08-05 17:22:41,211468
0,-20,-16,-3,-3,-3,-2,-1,2021-08-05 17:22:41,211468
4,30,8,-2,-2,-2,-1,2,2021-08-05 17:22:41,211468
-6,-24,-13,-1,0,1,1,-1,2021-08-05 17:22:41,211468
2,3,1,0,-1,0,-2,-2,2021-08-05 17:22:41,226582
-1,12,7,0,-1,-1,-1,2,2021-08-05 17:22:41,226696
-2,2,-2,0,1,1,-1,1,2021-08-05 17:22:41,226696
0,-1,7,4,1,0,0,0,2021-08-05 17:22:41,226696
-5,-5,-10,-2,-2,-3,-2,-1,2021-08-05 17:22:41,241405
-4,-17,3,-2,-1,-3,-2,-5,2021-08-05 17:22:41,241405
1,-4,-8,-5,-3,-2,-2,-2,2021-08-05 17:22:41,257599
8,26,10,2,4,3,3,2,2021-08-05 17:22:41,257959
0,-27,-6,0,-1,0,0,0,2021-08-05 17:22:41,272816
-10,-12,-36,-5,-2,0,-2,-7,2021-08-05 17:22:41,272816
-20,7,24,-3,-7,-4,-5,-4,2021-08-05 17:22:41,273132
5,46,5,1,3,2,1,0,2021-08-05 17:22:41,273172
2,-51,3,-1,0,-1,-1,0,2021-08-05 17:22:41,288343
13,19,3,0,-3,-1,-2,2,2021-08-05 17:22:41,288343
0,41,2,0,1,-1,-1,-1,2021-08-05 17:22:41,334394
-2,-60,-1,-1,2,0,0,1,2021-08-05 17:22:41,334523
3,7,-6,2,0,0,-1,0,2021-08-05 17:22:41,334673
-6,15,2,-5,-5,-5,-3,-4,2021-08-05 17:22:41,334764
2,1,3,4,4,4,1,4,2021-08-05 17:22:41,334901
-1,22,6,-2,-5,-4,-2,-6,2021-08-05 17:22:41,334901
-3,-5,-6,-2,-2,-1,-1,0,2021-08-05 17:22:41,334901
0,-30,9,3,1,3,1,0,2021-08-05 17:22:41,335174
-4,-21,-15,-3,-2,-2,-3,-2,2021-08-05 17:22:41,350211
1,15,0,1,2,1,-1,1,2021-08-05 17:22:41,350211
-1,-11,8,-2,-2,-1,-2,-3,2021-08-05 17:22:41,350211
0,16,-12,-5,-2,-1,-2,-1,2021-08-05 17:22:41,350211
-2,-3,9,-1,-3,-1,-1,-2,2021-08-05 17:22:41,366375
-2,13,5,5,2,2,0,0,2021-08-05 17:22:41,366375
0,5,2,2,2,0,0,-2,2021-08-05 17:22:41,366375
0,-16,-25,-3,2,1,2,4,2021-08-05 17:22:41,366375
2,-10,-2,-2,-1,-1,2,1,2021-08-05 17:22:41,382363
0,16,5,-4,-5,-4,-3,-3,2021-08-05 17:22:41,382363
-2,0,-4,-2,-1,-1,2,0,2021-08-05 17:22:41,413174
-2,30,9,1,1,1,-1,-2,2021-08-05 17:22:41,429364
-3,-93,-18,3,3,5,1,0,2021-08-05 17:22:41,445325
-8,-10,4,-1,-4,-3,-5,-5,2021-08-05 17:22:41,445325
-3,-3,4,-2,-4,-5,-5,-1,2021-08-05 17:22:41,445325
3,24,-1,0,-4,-4,-5,-2,2021-08-05 17:22:41,445325
5,9,0,-4,-3,-4,-2,-2,2021-08-05 17:22:41,461369
9,-4,-15,-2,-1,0,-1,2,2021-08-05 17:22:41,476513
-17,1,7,-3,-2,1,-2,0,2021-08-05 17:22:41,476513
-1,7,9,3,2,0,1,0,2021-08-05 17:22:41,476513
3,14,13,2,0,0,-1,-1,2021-08-05 17:22:41,476513
5,-58,-34,-2,2,4,1,4,2021-08-05 17:22:41,476513
-4,-22,-20,-7,-4,-3,-4,-5,2021-08-05 17:22:41,476513
-9,11,14,-2,-5,-4,-4,-4,2021-08-05 17:22:41,476513
2,23,7,1,-1,-1,-1,-1,2021-08-05 17:22:41,477179
0,41,11,1,1,-1,1,0,2021-08-05 17:22:41,477179
7,-23,-17,0,3,1,2,3,2021-08-05 17:22:41,477179
1,-14,1,5,3,1,0,0,2021-08-05 17:22:41,491838
-5,5,3,-2,-2,-2,-1,-3,2021-08-05 17:22:41,491959
1,9,2,-2,-3,-2,-1,-1,2021-08-05 17:22:41,491959
2,14,2,3,1,1,-1,1,2021-08-05 17:22:41,507858
-2,-15,0,-2,-2,-1,-1,-3,2021-08-05 17:22:41,523708
-2,0,2,-2,-1,-2,0,-1,2021-08-05 17:22:41,539930
-2,-30,-14,-3,-2,-2,-2,-1,2021-08-05 17:22:41,540057
4,53,10,1,-1,-1,-1,0,2021-08-05 17:22:41,540057
5,-44,-6,-1,-2,-2,-3,-3,2021-08-05 17:22:41,540057
-10,8,-23,-3,-2,-1,-1,0,2021-08-05 17:22:41,540507
-5,10,15,-1,-5,-4,-5,-4,2021-08-05 17:22:41,540507
3,-3,4,4,4,1,2,0,2021-08-05 17:22:41,540507
5,22,10,1,1,0,1,1,2021-08-05 17:22:41,540507
-4,6,-4,-1,-1,-2,0,-1,2021-08-05 17:22:41,540707
2,0,7,5,3,2,1,3,2021-08-05 17:22:41,540707
2,-15,-11,-1,-4,-1,-1,-2,2021-08-05 17:22:41,571879
14,30,-6,-4,-1,-1,-1,-1,2021-08-05 17:22:41,580738
-19,-21,3,-3,-2,0,0,-3,2021-08-05 17:22:41,581732
-12,4,1,0,2,1,0,0,2021-08-05 17:22:41,581732
6,9,10,-2,-4,-4,-2,-2,2021-08-05 17:22:41,581732
0,-18,-2,3,2,2,1,3,2021-08-05 17:22:41,581732
8,-32,-13,-6,-5,-5,-4,-3,2021-08-05 17:22:41,581732
-1,15,-3,-3,-1,-1,-2,-2,2021-08-05 17:22:41,581732
-4,32,12,1,2,2,0,0,2021-08-05 17:22:41,602839
-3,-43,-16,-3,-4,-2,-2,-3,2021-08-05 17:22:41,617826
3,20,5,0,-1,-1,-1,0,2021-08-05 17:22:41,618188
-5,-19,4,1,-4,-4,0,-2,2021-08-05 17:22:41,618188
-3,-2,5,0,-1,0,0,-1,2021-08-05 17:22:41,618405
-2,10,-7,1,2,1,0,2,2021-08-05 17:22:41,618405
1,1,2,2,2,3,0,2,2021-08-05 17:22:41,618405
2,-8,-10,-1,3,1,1,0,2021-08-05 17:22:41,618741
0,-7,-1,-3,-5,-2,-2,-3,2021-08-05 17:22:41,649709
-6,25,12,-4,-4,-4,-4,-3,2021-08-05 17:22:41,665742
-2,-17,-6,3,4,1,0,2,2021-08-05 17:22:41,665742
3,11,-13,-4,-4,-2,-4,-3,2021-08-05 17:22:41,665742
4,-12,3,0,2,1,1,-1,2021-08-05 17:22:41,665742
-5,-7,0,-2,0,2,0,0,2021-08-05 17:22:41,665742
1,23,5,-1,-6,-5,-4,-4,2021-08-05 17:22:41,665742
2,93,21,3,2,1,2,0,2021-08-05 17:22:41,665742
-4,-102,-15,1,1,-1,2,2,2021-08-05 17:22:41,681986
-3,-4,-14,-2,-1,-1,-1,-3,2021-08-05 17:22:41,696764
0,10,1,-2,-2,-1,-2,-2,2021-08-05 17:22:41,696764
-1,0,0,1,2,2,1,2,2021-08-05 17:22:41,696764
-5,18,4,-2,-3,-2,-1,-2,2021-08-05 17:22:41,711891
4,10,14,1,-1,-2,0,0,2021-08-05 17:22:41,727866
2,1,-13,-4,0,1,1,0,2021-08-05 17:22:41,743828
1,-28,7,4,1,0,1,2,2021-08-05 17:22:41,743828
-3,17,-20,-3,0,0,0,-2,2021-08-05 17:22:41,743828
-2,-49,3,-2,-3,-4,-2,-2,2021-08-05 17:22:41,743828
-3,12,1,-2,-3,-1,-3,-3,2021-08-05 17:22:41,743828
-1,-2,-3,-2,-1,-2,-3,-3,2021-08-05 17:22:41,743828
-1,35,11,1,-3,-1,-2,-2,2021-08-05 17:22:41,743828
-3,-18,-9,0,0,0,0,2,2021-08-05 17:22:41,743828
2,15,7,1,0,0,0,-1,2021-08-05 17:22:41,744662
-1,8,-4,-3,1,0,-1,0,2021-08-05 17:22:41,759669
1,-15,-5,-1,3,0,-1,1,2021-08-05 17:22:41,759923
-5,18,4,-1,-3,-2,-1,-3,2021-08-05 17:22:41,759923
10,8,7,4,4,1,2,2,2021-08-05 17:22:41,774750
-10,-42,-25,-6,-5,-2,-2,-2,2021-08-05 17:22:41,774750
-5,4,5,-3,-3,-3,-3,-4,2021-08-05 17:22:41,774750
2,23,8,0,1,0,0,1,2021-08-05 17:22:41,774750
9,-33,-3,1,-2,0,0,1,2021-08-05 17:22:41,790798
-8,-17,-19,-5,-3,0,-2,-2,2021-08-05 17:22:41,790798
0,8,8,-5,-6,-4,-2,-3,2021-08-05 17:22:41,806925
-1,-1,-7,-3,0,-1,-2,-4,2021-08-05 17:22:41,822792
0,4,19,3,1,-1,-2,-1,2021-08-05 17:22:41,822792
7,-17,5,6,5,3,3,5,2021-08-05 17:22:41,822792
-5,-27,-18,-1,-1,0,1,-1,2021-08-05 17:22:41,838693
-1,-1,5,-1,0,-1,-1,0,2021-08-05 17:22:41,839023
-1,29,0,-1,-2,-1,-2,-2,2021-08-05 17:22:41,839262
-2,-3,3,-4,-6,-5,-3,-3,2021-08-05 17:22:41,839423
1,-5,3,6,6,4,4,4,2021-08-05 17:22:41,839550
3,20,3,-2,-1,0,1,0,2021-08-05 17:22:41,839667
-5,-14,-12,-2,-1,-3,-4,-2,2021-08-05 17:22:41,858445
1,-12,-5,0,2,1,0,0,2021-08-05 17:22:41,858445
2,41,12,-1,-5,-4,-4,-4,2021-08-05 17:22:41,859640
-1,-50,-3,4,5,3,4,4,2021-08-05 17:22:41,859874
-3,39,9,-3,-3,-1,-1,-2,2021-08-05 17:22:41,859874
2,-24,-4,-3,-6,-2,-3,-2,2021-08-05 17:22:41,859874
9,14,-25,-2,1,1,0,0,2021-08-05 17:22:41,885648
-11,-32,-4,2,-1,-1,-2,-3,2021-08-05 17:22:41,901701
-9,-2,-4,2,2,1,1,1,2021-08-05 17:22:41,917739
4,23,16,-2,-4,-5,-2,-5,2021-08-05 17:22:41,917739
0,4,6,2,1,0,-2,0,2021-08-05 17:22:41,917974
1,15,0,-1,-1,-2,-1,-2,2021-08-05 17:22:41,918080
0,-5,0,-1,-2,0,1,2,2021-08-05 17:22:41,918156
-3,-28,1,2,0,0,-1,-2,2021-08-05 17:22:41,918156
0,3,4,0,-1,0,0,0,2021-08-05 17:22:41,918156
-2,7,5,-3,-2,-1,-1,-2,2021-08-05 17:22:41,918156
-1,-19,-19,-1,-1,-1,0,-3,2021-08-05 17:22:41,918156
0,-7,-11,-4,0,0,-1,2,2021-08-05 17:22:41,918156
-1,70,8,-2,-2,-3,-3,-3,2021-08-05 17:22:41,948777
3,-79,1,-5,-6,-6,-3,-3,2021-08-05 17:22:41,948777
5,6,-9,3,5,4,4,4,2021-08-05 17:22:41,948777
-26,11,0,0,1,0,-1,-3,2021-08-05 17:22:41,948777
1,-14,3,-1,-2,-3,-2,-3,2021-08-05 17:22:41,964681
3,37,0,0,1,0,-2,-1,2021-08-05 17:22:41,996845
5,27,11,-3,-2,-3,-1,-1,2021-08-05 17:22:42,011682
6,-43,-6,-1,0,0,-1,1,2021-08-05 17:22:42,027719
-5,-29,-15,-1,-1,0,-1,-1,2021-08-05 17:22:42,043768
0,40,16,0,-3,-1,-3,-1,2021-08-05 17:22:42,043768
1,-27,-21,2,3,2,-1,-2,2021-08-05 17:22:42,058792
-2,-8,22,0,-2,0,-2,-2,2021-08-05 17:22:42,058972
-5,-28,-18,-2,5,2,4,3,2021-08-05 17:22:42,058972
6,35,-6,-1,-4,-5,0,1,2021-08-05 17:22:42,058972
-5,-34,3,-2,-2,-2,-1,-2,2021-08-05 17:22:42,058972
3,45,9,3,0,0,1,0,2021-08-05 17:22:42,058972
-1,-69,5,3,-1,-2,1,1,2021-08-05 17:22:42,058972
-2,10,-12,0,-1,-2,-1,-2,2021-08-05 17:22:42,058972
-2,6,4,-3,-2,-3,-3,0,2021-08-05 17:22:42,073758
9,-13,-8,-2,-1,-3,-2,-3,2021-08-05 17:22:42,089228
-17,-16,-6,-6,-5,-2,-3,-3,2021-08-05 17:22:42,089228
-3,9,3,0,-1,1,-1,-4,2021-08-05 17:22:42,105286
-3,-9,1,-5,-2,-2,-3,-4,2021-08-05 17:22:42,121285
7,29,10,4,1,1,0,2,2021-08-05 17:22:42,121285
6,11,3,1,-2,0,-1,0,2021-08-05 17:22:42,121285
-7,-19,-12,-1,-3,0,-1,-2,2021-08-05 17:22:42,121285
-2,7,3,-3,-4,-1,-3,0,2021-08-05 17:22:42,121285
3,1,-7,1,3,1,3,2,2021-08-05 17:22:42,121285
0,6,5,0,1,0,0,1,2021-08-05 17:22:42,121285
-4,1,-4,-1,0,0,0,1,2021-08-05 17:22:42,121285
-4,-8,3,-1,-3,0,-1,-5,2021-08-05 17:22:42,121285
-5,2,-5,0,0,-1,0,-5,2021-08-05 17:22:42,121285
2,6,6,5,1,-2,-5,-3,2021-08-05 17:22:42,122263
5,-2,-2,1,0,-2,-3,1,2021-08-05 17:22:42,122376
-1,0,8,-2,-4,-4,-3,-1,2021-08-05 17:22:42,122376
-2,-2,-13,-3,-1,1,2,2,2021-08-05 17:22:42,122467
-1,35,14,-4,-5,-2,-2,-1,2021-08-05 17:22:42,122467
-1,-16,-4,0,4,3,1,2,2021-08-05 17:22:42,122467
-4,-46,-16,-1,1,1,0,2,2021-08-05 17:22:42,122467
-2,8,2,-5,-6,-6,-5,-4,2021-08-05 17:22:42,122467
5,41,-4,-6,-3,-4,-4,-3,2021-08-05 17:22:42,151340
-1,-30,-3,0,3,3,1,2,2021-08-05 17:22:42,167406
-2,47,18,2,-1,0,1,0,2021-08-05 17:22:42,167406
1,36,-5,2,3,1,4,1,2021-08-05 17:22:42,167406
-3,-119,-16,0,-1,0,1,0,2021-08-05 17:22:42,167406
-7,31,7,-4,-6,-6,-4,-6,2021-08-05 17:22:42,167406
3,19,-3,0,0,0,-3,-3,2021-08-05 17:22:42,167406
0,8,7,-2,-3,-1,-3,-1,2021-08-05 17:22:42,167406
0,19,-6,5,6,6,3,2,2021-08-05 17:22:42,183284
0,-22,-21,-3,-1,2,2,1,2021-08-05 17:22:42,183284
-2,-24,-2,-8,-12,-9,-6,-4,2021-08-05 17:22:42,183284
1,8,6,2,4,1,0,0,2021-08-05 17:22:42,183284
-1,7,8,-3,-6,-3,-4,-3,2021-08-05 17:22:42,214673
1,-6,4,6,5,3,3,2,2021-08-05 17:22:42,246285
-2,9,-9,1,1,1,0,-2,2021-08-05 17:22:42,261483
-1,-10,3,-4,-3,-2,-1,-1,2021-08-05 17:22:42,261634
0,2,-6,-1,-1,-1,2,0,2021-08-05 17:22:42,261634
2,44,8,-1,-5,-1,-1,-1,2021-08-05 17:22:42,261634
-5,-32,-5,-1,-3,-3,-2,-2,2021-08-05 17:22:42,261634
-1,-11,-6,3,3,4,3,3,2021-08-05 17:22:42,261634
-1,-16,-14,-2,-3,-1,-1,-1,2021-08-05 17:22:42,261634
1,28,12,-3,-3,-2,-3,-5,2021-08-05 17:22:42,261634
8,22,-1,1,2,2,2,0,2021-08-05 17:22:42,262264
-7,-91,-10,-4,-4,-2,-1,1,2021-08-05 17:22:42,262264
-5,3,-2,-3,-1,-3,-4,-2,2021-08-05 17:22:42,276332
-16,39,3,-3,-2,-2,-2,-4,2021-08-05 17:22:42,292375
4,-24,8,3,2,0,0,-1,2021-08-05 17:22:42,307285
5,17,-13,-2,-1,1,-2,-2,2021-08-05 17:22:42,307285
4,2,8,-3,-3,-2,-2,-1,2021-08-05 17:22:42,307285
2,-35,-5,0,0,-1,1,1,2021-08-05 17:22:42,307285
-3,37,9,0,0,0,1,-2,2021-08-05 17:22:42,307642
-1,-7,-8,-3,-2,-3,-2,-3,2021-08-05 17:22:42,307642
0,8,6,7,5,2,2,0,2021-08-05 17:22:42,307642
0,2,-2,-4,-1,-1,-2,0,2021-08-05 17:22:42,307642
-2,-12,0,1,0,-1,1,1,2021-08-05 17:22:42,322341
0,16,5,1,-3,-3,-2,-3,2021-08-05 17:22:42,337389
-3,9,-4,-1,-1,0,0,-1,2021-08-05 17:22:42,352229
-2,-21,4,5,3,1,1,4,2021-08-05 17:22:42,352322
2,-4,-11,-2,1,0,1,1,2021-08-05 17:22:42,352322
-1,7,0,-4,-4,-4,-3,-1,2021-08-05 17:22:42,352322
0,4,3,1,-2,0,-1,0,2021-08-05 17:22:42,352322
4,-13,-2,-1,-1,0,-1,-1,2021-08-05 17:22:42,352322
-3,-4,6,-1,-2,-1,-1,-1,2021-08-05 17:22:42,352322
0,24,1,3,-3,0,-2,-1,2021-08-05 17:22:42,352322
-1,-12,-2,2,3,2,0,-1,2021-08-05 17:22:42,367229
0,-17,-8,-4,-2,-2,0,0,2021-08-05 17:22:42,383426
-4,-2,-6,-3,-2,-3,-2,-2,2021-08-05 17:22:42,383426
-2,26,15,-2,1,-2,0,-3,2021-08-05 17:22:42,383426
2,-13,-13,-1,0,0,-1,0,2021-08-05 17:22:42,383426
-2,-5,-8,-3,-2,-2,-1,0,2021-08-05 17:22:42,383426
3,19,1,2,3,4,1,4,2021-08-05 17:22:42,383889
-4,-37,5,-1,-3,-1,-1,-3,2021-08-05 17:22:42,383889
-1,13,-8,-4,-1,-1,-2,-2,2021-08-05 17:22:42,414228
2,4,4,2,-3,-4,-2,-2,2021-08-05 17:22:42,416226
-4,0,-5,-4,-3,-2,-2,-1,2021-08-05 17:22:42,417039
-1,12,6,-1,-3,-1,-1,-1,2021-08-05 17:22:42,417231
2,23,4,3,2,1,0,1,2021-08-05 17:22:42,417231
2,13,7,2,3,2,1,2,2021-08-05 17:22:42,417231
-4,-67,-20,-2,-1,-1,-1,0,2021-08-05 17:22:42,444464
-1,6,-6,-3,-2,-2,-1,-3,2021-08-05 17:22:42,444547
-1,25,13,1,-3,-2,-1,-3,2021-08-05 17:22:42,444547
0,-10,-9,1,3,3,1,1,2021-08-05 17:22:42,444547
2,19,8,0,-1,2,0,1,2021-08-05 17:22:42,444547
0,-13,-8,-1,0,-1,-3,-3,2021-08-05 17:22:42,445208
-1,-4,-11,-5,-5,-5,-1,0,2021-08-05 17:22:42,475250
-2,3,4,-3,-4,-5,-3,-5,2021-08-05 17:22:42,475250
0,82,21,4,2,1,2,2,2021-08-05 17:22:42,475250
-6,-99,-26,0,3,2,2,3,2021-08-05 17:22:42,475250
1,19,4,-1,-1,0,-1,0,2021-08-05 17:22:42,491250
0,3,-5,-3,-6,-4,-4,-4,2021-08-05 17:22:42,507270
1,1,2,2,0,-4,-3,-3,2021-08-05 17:22:42,507270
2,40,2,-1,-1,-3,0,1,2021-08-05 17:22:42,507270
3,-15,3,-2,-2,-2,1,-1,2021-08-05 17:22:42,507270
-15,-45,-5,-2,-1,-2,2,-2,2021-08-05 17:22:42,507270
-1,-16,-13,-4,-3,0,-1,-3,2021-08-05 17:22:42,507852
2,48,20,5,2,2,0,0,2021-08-05 17:22:42,507852
-1,-43,-16,-3,-2,-1,-2,1,2021-08-05 17:22:42,538248
6,43,8,0,0,0,0,-1,2021-08-05 17:22:42,538487
-2,-21,-3,-1,-2,-3,-2,-3,2021-08-05 17:22:42,538487
-1,-1,-4,0,0,1,1,-1,2021-08-05 17:22:42,538641
0,16,6,-2,0,-1,0,0,2021-08-05 17:22:42,554374
-2,0,0,-1,1,-1,0,-1,2021-08-05 17:22:42,554432
-1,-16,-7,0,3,3,3,3,2021-08-05 17:22:42,554432
0,-16,-2,-4,-2,-3,-1,0,2021-08-05 17:22:42,554432
1,17,12,3,1,2,0,0,2021-08-05 17:22:42,570270
-9,-9,-24,-4,-3,-2,0,-4,2021-08-05 17:22:42,586250
-3,-4,22,2,0,-1,-2,-3,2021-08-05 17:22:42,586447
-1,-16,-25,-4,-3,-1,0,0,2021-08-05 17:22:42,586447
1,21,14,1,-2,-2,0,0,2021-08-05 17:22:42,586447
4,-12,7,-1,-1,-3,-3,0,2021-08-05 17:22:42,586447
1,-4,-16,0,2,-1,0,0,2021-08-05 17:22:42,586447
-2,29,29,1,-1,0,0,-1,2021-08-05 17:22:42,586447
0,12,-20,-3,0,-1,1,-1,2021-08-05 17:22:42,616324
4,-67,-18,-4,-1,0,1,1,2021-08-05 17:22:42,616492
-19,30,14,-4,-7,-4,-3,-4,2021-08-05 17:22:42,616492
3,0,1,1,1,0,-2,-1,2021-08-05 17:22:42,616492
-3,2,3,1,-1,0,-2,-2,2021-08-05 17:22:42,632270
7,40,7,0,-1,-2,-1,-1,2021-08-05 17:22:42,632519
6,-16,-4,5,7,4,2,1,2021-08-05 17:22:42,632519
-5,3,-6,-4,-4,-4,-1,-4,2021-08-05 17:22:42,632519
-1,-10,6,-2,0,-1,0,2,2021-08-05 17:22:42,647252
1,32,3,1,0,2,-1,-1,2021-08-05 17:22:42,647509
-2,-71,-22,-5,-3,-2,-2,-2,2021-08-05 17:22:42,662426
-2,14,7,-4,-6,-6,-5,-2,2021-08-05 17:22:42,662600
-1,0,3,2,1,0,-1,-5,2021-08-05 17:22:42,678356
3,-7,11,6,6,4,0,3,2021-08-05 17:22:42,693457
-1,8,-14,0,-1,0,1,0,2021-08-05 17:22:42,693457
-8,5,10,-1,-2,0,-1,-3,2021-08-05 17:22:42,693457
-2,-37,-17,-4,-1,-3,-2,-1,2021-08-05 17:22:42,693457
-1,18,3,0,-2,1,-1,0,2021-08-05 17:22:42,693457
4,12,4,-4,-6,-3,-3,-4,2021-08-05 17:22:42,693457
1,24,-2,4,2,2,0,2,2021-08-05 17:22:42,693457
-4,-34,7,3,2,1,2,3,2021-08-05 17:22:42,708246
5,-4,-8,-1,1,0,-1,-2,2021-08-05 17:22:42,708246
-2,43,4,-4,-3,-3,0,1,2021-08-05 17:22:42,708246
0,-29,-6,0,3,2,1,0,2021-08-05 17:22:42,708246
-3,24,7,1,-1,1,0,0,2021-08-05 17:22:42,740214
2,-9,0,-1,-2,-2,0,1,2021-08-05 17:22:42,740214
1,10,-2,-2,-3,-3,-2,-3,2021-08-05 17:22:42,740214
-4,-28,-9,-2,-1,-1,0,-1,2021-08-05 17:22:42,740821
1,14,-6,0,0,0,-1,-1,2021-08-05 17:22:42,740821
-3,-5,6,-1,-3,-2,-2,-1,2021-08-05 17:22:42,740821
1,18,5,0,-1,-1,-1,0,2021-08-05 17:22:42,771272
-1,-1,3,-1,0,-1,-1,-2,2021-08-05 17:22:42,786425
-1,-23,-1,0,2,2,-1,1,2021-08-05 17:22:42,786425
7,1,-15,0,0,3,0,-1,2021-08-05 17:22:42,802383
-14,6,19,0,-1,0,-2,-3,2021-08-05 17:22:42,818406
3,-14,-24,1,3,2,2,-2,2021-08-05 17:22:42,818406
-2,-2,-3,-7,-8,-4,-3,-3,2021-08-05 17:22:42,818406
-2,6,2,-1,-2,-1,1,1,2021-08-05 17:22:42,818406
3,-12,1,1,1,0,1,0,2021-08-05 17:22:42,818406
-2,-15,-6,-5,-5,-1,-3,-2,2021-08-05 17:22:42,818406
-7,13,7,0,2,1,0,-3,2021-08-05 17:22:42,818406
-3,-4,-6,0,0,-1,-2,-4,2021-08-05 17:22:42,819214
7,27,14,4,-1,-2,-5,-3,2021-08-05 17:22:42,819214
9,2,-5,0,0,-3,0,5,2021-08-05 17:22:42,819214
-5,-36,-14,-1,-1,-2,0,2,2021-08-05 17:22:42,834361
-23,-11,12,-9,-9,-8,-6,-9,2021-08-05 17:22:42,850443
-2,-13,-16,-6,0,-2,-1,1,2021-08-05 17:22:42,865324
11,67,21,3,1,0,0,2,2021-08-05 17:22:42,865324
4,-91,-5,1,1,2,2,2,2021-08-05 17:22:42,865324
7,30,-5,4,5,4,5,4,2021-08-05 17:22:42,865324
-1,-36,-4,-4,-3,-1,-3,-3,2021-08-05 17:22:42,865324
-4,7,-9,-2,0,1,-1,-2,2021-08-05 17:22:42,880269
-3,38,5,0,1,-1,-1,-2,2021-08-05 17:22:42,896438
-5,-4,7,1,1,1,0,0,2021-08-05 17:22:42,912345
5,29,10,2,2,1,0,2,2021-08-05 17:22:42,912345
0,-33,-27,0,1,0,-1,-1,2021-08-05 17:22:42,912345
-13,36,5,-6,-7,-4,-3,-5,2021-08-05 17:22:42,912345
2,-56,-5,2,1,0,-2,0,2021-08-05 17:22:42,912345
4,-17,-12,-1,2,1,2,2,2021-08-05 17:22:42,913213
-3,6,24,-3,-5,-2,-4,-4,2021-08-05 17:22:42,913213
2,0,-15,4,0,1,0,0,2021-08-05 17:22:42,913213
-1,24,-5,-8,-4,-3,-3,0,2021-08-05 17:22:42,913213
-3,-8,1,-9,-4,-3,-3,-4,2021-08-05 17:22:42,913759
-2,-10,1,3,5,4,2,3,2021-08-05 17:22:42,913887
2,37,11,2,-2,-2,-2,0,2021-08-05 17:22:42,928212
1,9,6,7,2,2,-1,1,2021-08-05 17:22:42,943329
5,17,-6,-4,-2,-2,-1,-1,2021-08-05 17:22:42,943547
-15,-55,-16,-4,-4,-3,-1,-3,2021-08-05 17:22:42,943547
1,24,1,-1,1,0,-1,-2,2021-08-05 17:22:42,974824
5,1,7,-3,-3,-2,-1,0,2021-08-05 17:22:42,974824
8,-2,1,3,0,1,0,2,2021-08-05 17:22:42,974824
-9,5,-8,6,7,4,4,3,2021-08-05 17:22:42,974824
5,28,30,2,-5,-5,-5,-4,2021-08-05 17:22:42,974824
-2,-75,-66,-12,-2,-1,0,-3,2021-08-05 17:22:42,974824
-17,17,8,-14,-8,-4,-4,-8,2021-08-05 17:22:42,974824
12,27,29,5,0,-2,0,1,2021-08-05 17:22:42,974824
7,-34,-22,2,5,2,3,2,2021-08-05 17:22:42,990858
-14,36,10,-12,-10,-5,-7,-8,2021-08-05 17:22:43,006954
4,-32,-12,5,4,1,1,3,2021-08-05 17:22:43,022950
1,19,7,1,-3,-3,-2,-1,2021-08-05 17:22:43,023256
2,3,10,0,0,-1,0,0,2021-08-05 17:22:43,023256
9,27,15,10,8,5,7,7,2021-08-05 17:22:43,023256
-8,-37,-29,-6,-1,0,-2,-3,2021-08-05 17:22:43,023256
-5,19,4,-7,-4,-3,-4,-3,2021-08-05 17:22:43,023256
2,-23,-6,1,1,1,-2,1,2021-08-05 17:22:43,037856
1,11,3,0,0,0,0,2,2021-08-05 17:22:43,038193
-5,-53,5,11,3,0,3,2,2021-08-05 17:22:43,038350
4,57,-4,-8,-4,-1,-3,-5,2021-08-05 17:22:43,038410
-5,-38,-24,-14,-8,-5,-2,-5,2021-08-05 17:22:43,067948
-4,29,17,7,2,0,-1,0,2021-08-05 17:22:43,082962
7,18,1,4,-2,-1,-2,-1,2021-08-05 17:22:43,082962
6,-9,-1,-4,-5,-4,-3,-2,2021-08-05 17:22:43,082962
-1,10,-1,5,2,3,2,2,2021-08-05 17:22:43,082962
-23,-35,2,-4,-1,0,-1,-1,2021-08-05 17:22:43,082962
4,33,0,3,-2,-2,-1,-2,2021-08-05 17:22:43,082962
-2,-6,-7,-6,-1,-2,-1,-2,2021-08-05 17:22:43,082962
17,-5,-6,-4,-3,-2,-2,-1,2021-08-05 17:22:43,098824
-9,7,10,3,-1,-1,-1,-1,2021-08-05 17:22:43,113947
-5,44,30,11,6,3,2,6,2021-08-05 17:22:43,113947
-2,-40,-36,-11,0,0,-1,-2,2021-08-05 17:22:43,113947
-1,-12,-7,-2,-5,-3,-2,-1,2021-08-05 17:22:43,113947
6,-1,3,2,-3,-2,-4,-3,2021-08-05 17:22:43,113947
-3,6,-2,-8,-1,-1,-2,-3,2021-08-05 17:22:43,113947
-2,-9,6,8,4,3,2,2,2021-08-05 17:22:43,113947
-5,30,3,-2,2,0,-2,-1,2021-08-05 17:22:43,130040
3,25,4,-2,-2,-1,1,1,2021-08-05 17:22:43,145884
3,-48,-27,5,1,1,2,4,2021-08-05 17:22:43,146153
10,15,14,2,-4,-4,-3,-1,2021-08-05 17:22:43,146153
-31,-36,-5,-11,-5,-4,-6,-8,2021-08-05 17:22:43,161191
7,20,-10,-9,2,0,1,0,2021-08-05 17:22:43,176892
4,11,16,-4,-4,-2,-3,2,2021-08-05 17:22:43,192258
0,-13,-7,5,2,1,2,3,2021-08-05 17:22:43,192258
3,24,10,7,4,3,2,1,2021-08-05 17:22:43,192258
0,-27,-15,-2,-2,-2,-3,-3,2021-08-05 17:22:43,192258
-1,3,-4,-4,-1,-2,0,-1,2021-08-05 17:22:43,207300
-2,-27,7,0,1,-1,-1,-3,2021-08-05 17:22:43,207300
-3,34,3,-1,0,0,0,1,2021-08-05 17:22:43,207300
1,-28,1,4,-2,-1,0,0,2021-08-05 17:22:43,207300
18,-20,13,-2,-3,-3,-2,0,2021-08-05 17:22:43,207300
-28,25,-7,3,-2,-1,-2,-4,2021-08-05 17:22:43,207300
-1,-24,-14,-5,-1,-1,0,-3,2021-08-05 17:22:43,207300
2,-29,-35,-14,-2,-1,0,-4,2021-08-05 17:22:43,207300
4,25,-5,-6,-1,0,-2,0,2021-08-05 17:22:43,207300
-5,40,28,-3,0,-1,-1,-1,2021-08-05 17:22:43,208193
5,-26,1,10,1,-2,-1,1,2021-08-05 17:22:43,237289
-2,5,10,8,5,1,3,2,2021-08-05 17:22:43,253327
-4,-15,-13,0,-1,2,0,-4,2021-08-05 17:22:43,253327
0,1,-4,-8,-6,-3,-1,0,2021-08-05 17:22:43,253327
-4,-5,-25,-8,0,-1,0,-2,2021-08-05 17:22:43,253327
8,13,15,0,-5,-5,-5,-2,2021-08-05 17:22:43,253327
-3,3,7,7,5,1,0,2,2021-08-05 17:22:43,253327
4,2,21,9,-1,0,0,2,2021-08-05 17:22:43,253327
0,-10,0,15,2,0,-1,2,2021-08-05 17:22:43,284216
-10,-17,-27,-35,-10,-5,-5,-9,2021-08-05 17:22:43,316425
-6,5,-2,-5,3,3,2,2,2021-08-05 17:22:43,316425
0,-13,-11,-4,-4,-3,-3,-2,2021-08-05 17:22:43,316425
9,28,36,16,1,-1,2,3,2021-08-05 17:22:43,316425
0,-9,-10,15,8,5,2,3,2021-08-05 17:22:43,316425
-4,1,-18,-20,-6,-4,-3,-5,2021-08-05 17:22:43,316425
2,-8,-10,-13,-4,-3,-2,-1,2021-08-05 17:22:43,316425
-1,8,27,12,3,0,-1,1,2021-08-05 17:22:43,316425
-2,-1,16,17,2,1,-1,-1,2021-08-05 17:22:43,316425
-11,-17,-53,-31,-10,-4,-4,-8,2021-08-05 17:22:43,316425
-2,-34,-1,-5,-4,-1,-1,0,2021-08-05 17:22:43,316425
7,20,17,15,3,2,2,3,2021-08-05 17:22:43,332216
-2,5,-5,2,-1,-3,-4,-4,2021-08-05 17:22:43,347900
2,-5,-13,-9,-2,1,1,1,2021-08-05 17:22:43,348302
0,-33,15,10,2,0,0,0,2021-08-05 17:22:43,348302
7,23,-18,-13,-1,-1,-2,-2,2021-08-05 17:22:43,348302
-10,-3,4,-4,-5,-2,-3,-3,2021-08-05 17:22:43,348302
-6,2,19,18,4,-1,2,3,2021-08-05 17:22:43,348302
5,0,24,22,6,1,3,2,2021-08-05 17:22:43,348302
-6,-24,-27,-35,-11,-6,-5,-5,2021-08-05 17:22:43,379317
12,11,-23,-11,-3,1,1,3,2021-08-05 17:22:43,379491
-2,-5,-5,-5,-3,-1,-1,-3,2021-08-05 17:22:43,379491
2,11,11,9,6,3,2,5,2021-08-05 17:22:43,379491
0,4,23,21,5,-1,1,1,2021-08-05 17:22:43,395217
-4,-1,-18,-13,-7,-4,-4,-4,2021-08-05 17:22:43,411422
-1,-4,6,-2,-2,-2,0,2,2021-08-05 17:22:43,427281
-1,4,-4,15,3,2,1,0,2021-08-05 17:22:43,427281
-2,4,-8,-19,-2,0,-2,-2,2021-08-05 17:22:43,427514
2,-8,-3,-9,2,0,2,5,2021-08-05 17:22:43,427514
2,4,27,28,4,-2,2,2,2021-08-05 17:22:43,427514
-2,14,4,-5,-1,-1,-3,-5,2021-08-05 17:22:43,427514
-10,-19,-44,-28,-11,-5,-5,-6,2021-08-05 17:22:43,427972
3,4,24,10,0,-2,0,4,2021-08-05 17:22:43,428159
-8,-38,-17,-5,1,-1,-4,-5,2021-08-05 17:22:43,442298
-8,16,-22,-17,-6,-2,-2,-4,2021-08-05 17:22:43,442298
9,20,24,9,2,1,0,3,2021-08-05 17:22:43,473381
4,0,-2,5,0,-4,-5,-4,2021-08-05 17:22:43,473567
-1,7,15,16,0,-1,-3,-1,2021-08-05 17:22:43,473696
2,1,15,-12,2,1,2,3,2021-08-05 17:22:43,473696
-14,-21,-49,-21,-9,-1,-4,-9,2021-08-05 17:22:43,473853
3,4,9,0,1,3,3,4,2021-08-05 17:22:43,473853
-3,1,-2,1,-1,-3,-3,-2,2021-08-05 17:22:43,473853
2,-2,-6,-4,0,0,-1,-2,2021-08-05 17:22:43,474117
3,0,61,47,7,0,2,4,2021-08-05 17:22:43,489212
-4,20,-6,-7,1,-2,-2,-5,2021-08-05 17:22:43,504201
-1,2,-35,-32,-7,-2,0,-2,2021-08-05 17:22:43,519200
3,-9,4,13,0,-1,0,0,2021-08-05 17:22:43,519200
2,-3,-27,-29,-10,-2,-2,-2,2021-08-05 17:22:43,519426
0,-8,66,48,8,0,0,5,2021-08-05 17:22:43,519426
-2,4,-44,-14,0,3,0,-4,2021-08-05 17:22:43,519426
4,-5,-38,-31,-8,-3,-2,-1,2021-08-05 17:22:43,519426
-7,-9,-14,-9,-2,-3,-3,-4,2021-08-05 17:22:43,550226
-3,-4,11,5,-2,-2,-2,-1,2021-08-05 17:22:43,550424
13,27,94,76,15,2,5,12,2021-08-05 17:22:43,550566
-15,-16,-77,-55,-12,-4,-8,-19,2021-08-05 17:22:43,550582
0,-11,9,11,2,0,1,3,2021-08-05 17:22:43,550582
6,9,15,6,3,2,4,6,2021-08-05 17:22:43,550582
-7,-7,-33,-42,-11,-4,-6,-9,2021-08-05 17:22:43,550582
6,9,33,32,9,3,3,7,2021-08-05 17:22:43,550582
2,6,23,20,6,2,3,2,2021-08-05 17:22:43,580306
2,2,-39,0,-1,-1,0,2,2021-08-05 17:22:43,580306
-4,-21,17,-18,-6,-4,-1,-2,2021-08-05 17:22:43,580306
-2,8,-26,-14,-4,-2,-1,-1,2021-08-05 17:22:43,580306
-8,-3,-30,-25,-5,-3,-4,-10,2021-08-05 17:22:43,596195
3,3,37,22,7,6,4,6,2021-08-05 17:22:43,596195
-4,1,-14,-9,-3,-1,-4,-4,2021-08-05 17:22:43,596195
0,-5,14,5,-3,-4,-4,-2,2021-08-05 17:22:43,596195
7,11,53,37,1,-4,-1,7,2021-08-05 17:22:43,627780
-7,-12,-63,-50,-10,-2,-3,-13,2021-08-05 17:22:43,627926
-4,-6,-24,-10,-3,0,-1,-2,2021-08-05 17:22:43,627926
-2,-3,12,12,-1,0,0,1,2021-08-05 17:22:43,628135
-1,4,24,16,4,-1,4,5,2021-08-05 17:22:43,628135
-6,-2,29,20,2,-3,-3,-10,2021-08-05 17:22:43,628135
4,-3,-33,-9,1,4,5,7,2021-08-05 17:22:43,628135
2,-29,-6,13,4,2,5,5,2021-08-05 17:22:43,628135
1,13,-17,-10,0,1,0,0,2021-08-05 17:22:43,675425
2,14,56,24,2,-3,-1,3,2021-08-05 17:22:43,675544
-9,-25,-37,-20,-6,-3,-5,-11,2021-08-05 17:22:43,675749
0,18,-1,-1,-1,-2,0,0,2021-08-05 17:22:43,675749
-2,-3,-22,-20,-4,-2,-4,-6,2021-08-05 17:22:43,675749
4,-2,-2,-8,2,1,5,6,2021-08-05 17:22:43,675749
5,17,32,36,2,-1,-2,1,2021-08-05 17:22:43,675749
-5,-12,10,-9,0,-1,-1,-2,2021-08-05 17:22:43,675749
-4,-9,-20,-26,-4,1,-2,-3,2021-08-05 17:22:43,691319
-6,-4,-4,-5,-3,-3,-4,-4,2021-08-05 17:22:43,691472
4,6,18,2,0,1,0,4,2021-08-05 17:22:43,691667
3,17,34,39,7,1,0,-2,2021-08-05 17:22:43,691811
0,0,-25,-26,-7,0,0,-3,2021-08-05 17:22:43,722354
-2,-15,-30,-11,-7,-4,-4,-7,2021-08-05 17:22:43,737437
-2,-8,-6,-18,1,1,4,1,2021-08-05 17:22:43,737437
4,11,25,18,1,-1,0,3,2021-08-05 17:22:43,737437
-4,2,-14,8,0,-1,-3,-5,2021-08-05 17:22:43,737771
3,-6,-4,-26,-6,-1,1,4,2021-08-05 17:22:43,737771
-3,1,12,14,3,0,-1,-1,2021-08-05 17:22:43,737771
2,0,-39,-38,-7,-3,-2,-2,2021-08-05 17:22:43,737771
-2,-6,37,30,4,0,1,3,2021-08-05 17:22:43,752451
-4,-10,-34,-9,0,0,-2,-1,2021-08-05 17:22:43,752451
5,29,47,40,6,0,1,2,2021-08-05 17:22:43,752451
-7,-18,-25,-38,-11,-3,-6,-6,2021-08-05 17:22:43,752451
0,-12,-9,9,4,2,0,2,2021-08-05 17:22:43,784373
-2,-4,-12,-19,-3,-1,-2,-2,2021-08-05 17:22:43,800388
0,6,30,17,6,-3,-1,1,2021-08-05 17:22:43,800482
-5,-25,8,13,0,-1,1,-1,2021-08-05 17:22:43,800482
-1,26,-19,-10,-1,-1,-2,-5,2021-08-05 17:22:43,800759
6,14,4,3,0,1,1,0,2021-08-05 17:22:43,800841
-5,-3,14,10,-4,-3,-4,-7,2021-08-05 17:22:43,800841
2,2,10,7,2,0,2,3,2021-08-05 17:22:43,800841
-3,-9,-12,-24,-4,-3,-4,-7,2021-08-05 17:22:43,815405
9,8,-13,-3,0,3,4,8,2021-08-05 17:22:43,831459
0,8,-6,1,-4,-2,-1,-2,2021-08-05 17:22:43,831590
-5,-2,1,-1,-1,-3,-3,-5,2021-08-05 17:22:43,831590
2,-13,7,-1,2,1,2,2,2021-08-05 17:22:43,831590
-2,-1,15,12,0,-3,-1,-1,2021-08-05 17:22:43,831590
-1,-1,-7,-14,-2,-1,-2,-1,2021-08-05 17:22:43,831590
0,0,-18,-1,3,1,1,3,2021-08-05 17:22:43,831590
-1,-2,15,19,2,2,3,6,2021-08-05 17:22:43,844350
-5,-6,-26,-18,-6,-1,-1,-2,2021-08-05 17:22:43,844350
4,3,26,16,1,-1,3,5,2021-08-05 17:22:43,844350
-3,-2,-9,-14,-3,-2,-4,-7,2021-08-05 17:22:43,844350
3,1,5,3,2,-1,-1,2,2021-08-05 17:22:43,878531
-3,4,31,33,0,-1,-1,-1,2021-08-05 17:22:43,893319
0,-14,-56,-47,-4,2,0,-1,2021-08-05 17:22:43,893319
3,11,2,1,-3,0,-2,-1,2021-08-05 17:22:43,893319
1,2,10,4,0,0,-1,0,2021-08-05 17:22:43,893319
-3,-7,9,6,-1,-2,-1,-4,2021-08-05 17:22:43,893319
-3,-7,-15,-13,-5,-3,-4,-4,2021-08-05 17:22:43,893897
-4,-2,-7,-10,-7,-5,-3,-5,2021-08-05 17:22:43,893984
7,7,35,19,3,1,3,6,2021-08-05 17:22:43,909399
0,3,-2,12,5,-1,-3,-1,2021-08-05 17:22:43,909399
-5,-14,-11,-16,-4,0,0,-3,2021-08-05 17:22:43,909399
-2,11,-24,-7,-2,-2,-3,-3,2021-08-05 17:22:43,909399
-5,-13,-6,-7,-1,0,-1,-5,2021-08-05 17:22:43,940437
4,6,6,-6,0,1,1,4,2021-08-05 17:22:43,940502
8,3,28,34,4,0,1,4,2021-08-05 17:22:43,940502
-7,4,6,13,2,0,-4,-7,2021-08-05 17:22:43,940502
0,-11,-48,-43,-7,-1,1,1,2021-08-05 17:22:43,956428
-7,-5,6,-2,-3,-3,-6,-9,2021-08-05 17:22:43,956599
1,3,-5,1,1,0,1,2,2021-08-05 17:22:43,956789
5,4,44,37,3,-2,1,3,2021-08-05 17:22:43,956884
6,6,-20,-2,1,1,3,5,2021-08-05 17:22:43,972370
-6,-14,-37,-31,-9,-4,-4,-6,2021-08-05 17:22:43,972370
-2,3,16,-4,-5,-2,-4,-2,2021-08-05 17:22:43,972370
-3,-3,0,0,-1,1,0,-1,2021-08-05 17:22:43,972742
-4,-4,7,3,-1,-4,-4,-5,2021-08-05 17:22:44,003499
1,10,5,4,2,0,1,-1,2021-08-05 17:22:44,019590
-1,4,-9,-5,2,1,-1,-1,2021-08-05 17:22:44,035564
-1,-3,-8,-7,-1,0,-1,-2,2021-08-05 17:22:44,035564
-2,-5,-2,-15,-6,-5,-4,-3,2021-08-05 17:22:44,035834
6,4,19,22,8,1,2,5,2021-08-05 17:22:44,035834
-4,-6,-10,-4,-4,-2,-4,-5,2021-08-05 17:22:44,035834
-2,-14,-32,-22,-4,-2,-1,-3,2021-08-05 17:22:44,035834
-3,-11,5,4,-4,-2,-4,0,2021-08-05 17:22:44,035834
4,12,21,21,7,1,3,5,2021-08-05 17:22:44,035834
1,10,0,-7,-4,-2,-1,-1,2021-08-05 17:22:44,035834
3,-6,-16,-23,0,2,1,1,2021-08-05 17:22:44,035834
-3,2,-2,5,-1,0,-3,-7,2021-08-05 17:22:44,051473
-2,-6,-1,-7,-3,0,1,3,2021-08-05 17:22:44,051660
2,16,43,32,5,0,2,3,2021-08-05 17:22:44,051660
1,-6,11,6,0,2,2,0,2021-08-05 17:22:44,051835
-1,-10,-54,-34,-12,-2,-2,-1,2021-08-05 17:22:44,082636
-4,-4,-14,-16,-5,-3,-3,-4,2021-08-05 17:22:44,082747
-1,-4,-11,-13,-3,-1,-2,0,2021-08-05 17:22:44,082747
2,4,14,6,1,-1,0,2,2021-08-05 17:22:44,082747
-1,4,30,19,4,1,-2,-2,2021-08-05 17:22:44,082747
-5,-16,-13,-10,-5,-2,-4,-7,2021-08-05 17:22:44,082747
2,5,-16,1,3,1,3,0,2021-08-05 17:22:44,098550
0,-3,17,5,3,1,1,2,2021-08-05 17:22:44,113486
-4,4,-14,-22,-6,-2,-2,-3,2021-08-05 17:22:44,113601
9,13,36,28,5,-2,0,5,2021-08-05 17:22:44,113601
-8,-16,-55,-39,-10,-4,-6,-12,2021-08-05 17:22:44,113601
3,-6,0,3,2,2,2,5,2021-08-05 17:22:44,113601
1,0,14,18,4,2,1,2,2021-08-05 17:22:44,129594
-5,-5,-9,-8,-4,-1,-1,-3,2021-08-05 17:22:44,129711
-3,-3,25,13,1,-2,-2,-1,2021-08-05 17:22:44,129820
4,7,-1,10,1,3,3,5,2021-08-05 17:22:44,129934
-5,-8,-4,-7,-3,-2,-3,-10,2021-08-05 17:22:44,145631
-4,2,-7,-8,-4,-3,-3,-3,2021-08-05 17:22:44,145631
4,-1,12,13,5,3,4,6,2021-08-05 17:22:44,161498
-4,-1,-25,-17,-5,-4,-3,-4,2021-08-05 17:22:44,169487
5,17,22,18,5,1,3,6,2021-08-05 17:22:44,169487
-4,2,9,-4,-3,-2,-3,-4,2021-08-05 17:22:44,170446
1,-1,-40,-36,-6,-2,-1,-4,2021-08-05 17:22:44,170446
2,4,3,2,-3,-4,-5,-2,2021-08-05 17:22:44,170446
3,-3,1,3,3,2,2,2,2021-08-05 17:22:44,193578
-4,-7,-3,1,-3,-1,-1,-2,2021-08-05 17:22:44,193595
-3,0,14,15,1,-2,-2,-1,2021-08-05 17:22:44,193721
-2,10,18,8,2,-3,-4,-5,2021-08-05 17:22:44,193907
2,-6,-19,-6,-1,1,0,4,2021-08-05 17:22:44,209447
-2,-11,-24,-23,-3,1,1,-2,2021-08-05 17:22:44,209661
-1,0,14,9,-1,0,-3,-3,2021-08-05 17:22:44,209661
0,4,12,10,-2,0,0,1,2021-08-05 17:22:44,209661
-3,5,12,17,3,-2,-1,0,2021-08-05 17:22:44,239419
1,-1,-19,-21,-2,2,1,2,2021-08-05 17:22:44,239609
2,-5,-13,-4,-1,2,0,2,2021-08-05 17:22:44,239725
-2,1,6,-3,0,2,0,-1,2021-08-05 17:22:44,239725
-1,2,15,13,3,-2,-1,0,2021-08-05 17:22:44,255367
-4,-7,-17,-3,-2,0,-3,-2,2021-08-05 17:22:44,255367
0,-17,11,16,1,-1,-1,0,2021-08-05 17:22:44,255689
1,21,-19,-34,-3,-1,2,2,2021-08-05 17:22:44,255850
-1,1,11,-3,1,-3,0,0,2021-08-05 17:22:44,271368
-2,-2,-9,2,-1,-2,-1,-6,2021-08-05 17:22:44,287352
-1,-2,14,8,2,-1,0,0,2021-08-05 17:22:44,302646
-4,-8,14,21,3,0,0,1,2021-08-05 17:22:44,318317
-9,-3,-10,-4,-6,-6,-9,-12,2021-08-05 17:22:44,334367
4,2,-18,-19,-3,3,3,5,2021-08-05 17:22:44,334367
-4,0,8,2,-1,1,-2,-3,2021-08-05 17:22:44,334367
1,-5,-15,-4,-2,-1,-1,-4,2021-08-05 17:22:44,334367
-1,-3,5,3,-3,-2,-1,-1,2021-08-05 17:22:44,334367
0,1,11,17,1,-2,-2,-2,2021-08-05 17:22:44,334367
-4,-3,-10,-12,-6,-4,-3,-3,2021-08-05 17:22:44,334367
4,5,22,13,5,0,2,4,2021-08-05 17:22:44,334367
1,-3,-26,-11,-3,1,-1,0,2021-08-05 17:22:44,334367
-1,0,-1,-1,-1,-1,0,0,2021-08-05 17:22:44,335351
-2,3,-4,-7,0,0,1,0,2021-08-05 17:22:44,335351
-3,-3,12,10,0,-2,0,-1,2021-08-05 17:22:44,335351
-1,-2,3,-1,0,0,0,0,2021-08-05 17:22:44,350393
0,-3,-23,-12,-3,-2,-2,-4,2021-08-05 17:22:44,365354
3,-1,-4,-4,7,5,6,6,2021-08-05 17:22:44,365491
-3,-1,9,9,0,2,-3,-3,2021-08-05 17:22:44,365668
2,4,4,0,-4,-4,0,1,2021-08-05 17:22:44,380368
1,6,6,-2,-5,-4,-7,-3,2021-08-05 17:22:44,396367
4,-2,4,8,0,-1,-2,-1,2021-08-05 17:22:44,412374
5,3,-15,-11,-1,-1,0,2,2021-08-05 17:22:44,412374
1,-2,2,5,0,2,0,0,2021-08-05 17:22:44,412749
-4,-5,-6,-9,-3,-2,-1,-1,2021-08-05 17:22:44,412819
-5,0,1,-3,-2,-1,-1,-3,2021-08-05 17:22:44,412819
-7,-14,-10,-6,-4,-2,-4,-3,2021-08-05 17:22:44,428354
6,19,46,28,10,6,7,11,2021-08-05 17:22:44,443530
-2,10,-43,-28,-5,0,-3,-10,2021-08-05 17:22:44,443530
-3,1,7,2,-2,-1,-3,-5,2021-08-05 17:22:44,443530
1,8,-12,-4,0,1,2,2,2021-08-05 17:22:44,443530
-2,-16,-2,-7,-3,-1,-2,0,2021-08-05 17:22:44,443871
2,3,36,29,10,1,2,4,2021-08-05 17:22:44,443871
-1,0,-24,-14,-7,-3,-4,-2,2021-08-05 17:22:44,443871
-5,-8,-9,-16,-7,-3,-2,-4,2021-08-05 17:22:44,443871
-1,-1,-6,-5,-1,-3,-3,-4,2021-08-05 17:22:44,458348
1,-4,9,11,4,4,2,3,2021-08-05 17:22:44,473418
-2,2,5,1,-1,-2,-3,-4,2021-08-05 17:22:44,488430
-1,-1,9,14,0,-1,0,0,2021-08-05 17:22:44,490316
-1,-3,-21,-27,-6,-2,-1,-1,2021-08-05 17:22:44,490316
2,-10,12,11,4,1,3,3,2021-08-05 17:22:44,490316
2,16,-3,0,-1,0,1,-1,2021-08-05 17:22:44,490316
-2,-5,-7,-11,-2,-1,-3,-6,2021-08-05 17:22:44,490316
-5,3,-2,-4,-5,-3,-2,-4,2021-08-05 17:22:44,490316
-1,-8,20,17,2,-2,0,1,2021-08-05 17:22:44,490316
-3,-3,-16,-7,1,0,2,0,2021-08-05 17:22:44,490316
8,9,36,19,5,2,4,7,2021-08-05 17:22:44,490316
-8,-17,-58,-30,-10,-4,-8,-14,2021-08-05 17:22:44,519317
-3,-4,-2,-8,-2,-1,-2,-1,2021-08-05 17:22:44,519317
0,0,13,9,1,-2,-1,0,2021-08-05 17:22:44,519695
-1,6,3,4,1,-1,-1,3,2021-08-05 17:22:44,519695
0,-15,5,5,-2,-1,-1,0,2021-08-05 17:22:44,535481
-1,24,4,4,1,1,1,1,2021-08-05 17:22:44,551433
0,-5,-13,-13,-3,0,0,0,2021-08-05 17:22:44,567430
-3,-6,-3,-2,-2,-2,-3,-5,2021-08-05 17:22:44,583537
-2,5,12,6,2,0,-1,-3,2021-08-05 17:22:44,583537
5,1,0,7,4,1,1,5,2021-08-05 17:22:44,583537
-5,-5,7,-1,-4,-2,-2,-5,2021-08-05 17:22:44,583537
-2,-4,-19,-14,-6,-2,-1,-4,2021-08-05 17:22:44,583537
1,7,9,5,2,0,1,1,2021-08-05 17:22:44,584212
-2,-5,-8,-5,-4,-1,0,-2,2021-08-05 17:22:44,584316
0,-11,19,14,3,1,2,4,2021-08-05 17:22:44,584316
-8,-4,-16,-5,-4,-3,-5,-6,2021-08-05 17:22:44,584549
-1,11,-9,-8,1,1,1,-1,2021-08-05 17:22:44,584549
-1,-1,-3,-10,-8,-5,-3,-5,2021-08-05 17:22:44,584549
2,-3,6,3,1,1,3,3,2021-08-05 17:22:44,599462
1,2,2,4,1,0,0,2,2021-08-05 17:22:44,599462
3,0,20,18,5,2,2,3,2021-08-05 17:22:44,614406
-4,-9,-16,-11,-4,-1,-5,-7,2021-08-05 17:22:44,614526
0,-10,-15,-9,1,1,1,3,2021-08-05 17:22:44,614526
2,13,6,12,0,-2,-1,-1,2021-08-05 17:22:44,614526
-2,8,5,-7,1,0,1,2,2021-08-05 17:22:44,646368
0,-4,-1,-5,-4,-2,0,1,2021-08-05 17:22:44,646368
-7,0,-1,-6,-6,-6,-5,-8,2021-08-05 17:22:44,646368
1,-8,-10,-4,5,5,4,2,2021-08-05 17:22:44,646368
-2,-23,2,3,1,-3,-2,0,2021-08-05 17:22:44,646368
-2,16,18,9,-1,-1,-2,-2,2021-08-05 17:22:44,646368
-3,-1,-16,-6,-3,-3,-2,-3,2021-08-05 17:22:44,646368
-1,4,-4,-6,-3,-1,-1,-2,2021-08-05 17:22:44,647355
3,-2,6,8,0,-4,-1,2,2021-08-05 17:22:44,677534
-5,-11,-16,-9,-2,0,-1,-3,2021-08-05 17:22:44,677705
1,1,6,12,0,1,-2,3,2021-08-05 17:22:44,677705
-3,-9,-10,-12,-1,0,0,-4,2021-08-05 17:22:44,677844
-1,-3,-5,-3,-4,-1,0,-2,2021-08-05 17:22:44,708405
-2,-1,11,5,3,-2,-1,0,2021-08-05 17:22:44,708405
0,6,-2,-3,-1,-2,-2,-1,2021-08-05 17:22:44,708405
1,-2,7,10,2,-1,-1,1,2021-08-05 17:22:44,708405
0,5,-5,-9,-1,3,1,0,2021-08-05 17:22:44,708405
-2,-6,-10,-11,-3,-2,-1,-1,2021-08-05 17:22:44,708405
-1,3,-3,1,-1,1,-3,-3,2021-08-05 17:22:44,708405
3,-2,-3,-3,0,1,1,2,2021-08-05 17:22:44,708405
-2,1,10,8,-2,-5,-1,-4,2021-08-05 17:22:44,740437
-1,3,-8,1,0,2,2,-2,2021-08-05 17:22:44,740437
3,5,5,-5,-1,0,1,0,2021-08-05 17:22:44,740437
-1,-1,2,1,-4,-4,-3,-1,2021-08-05 17:22:44,740437
-3,-3,-16,-10,-2,0,0,0,2021-08-05 17:22:44,756451
0,-7,5,9,4,-1,-1,0,2021-08-05 17:22:44,756451
-1,-1,3,-1,-1,0,2,-1,2021-08-05 17:22:44,756451
3,8,6,1,2,-1,3,3,2021-08-05 17:22:44,756451
-2,-4,-6,-4,-2,-1,-3,-3,2021-08-05 17:22:44,772351
-1,-6,-2,4,-3,-1,-3,-2,2021-08-05 17:22:44,772351
1,-10,-6,-3,0,2,0,3,2021-08-05 17:22:44,772351
4,12,12,-4,-4,0,-2,1,2021-08-05 17:22:44,772351
-3,-6,0,14,-1,-4,-2,-2,2021-08-05 17:22:44,803351
-3,-1,-25,-40,-7,-2,-2,-3,2021-08-05 17:22:44,803351
1,3,7,8,7,2,4,5,2021-08-05 17:22:44,803351
-6,-5,-7,-2,-1,-1,-2,-4,2021-08-05 17:22:44,803351
-1,-4,-2,3,-1,-2,-1,-2,2021-08-05 17:22:44,815315
4,9,18,13,2,-1,1,2,2021-08-05 17:22:44,815601
-6,0,-7,-9,-4,-2,0,-3,2021-08-05 17:22:44,815870
-3,-7,-6,-4,1,1,-1,-1,2021-08-05 17:22:44,815984
3,5,6,0,2,1,1,1,2021-08-05 17:22:44,835524
-4,-7,-1,2,-1,0,-1,-4,2021-08-05 17:22:44,835658
1,6,5,1,1,1,-1,0,2021-08-05 17:22:44,835692
-2,-5,12,12,1,-1,-1,-2,2021-08-05 17:22:44,835878
-3,-4,-18,-20,-6,-2,-1,-4,2021-08-05 17:22:44,866351
3,-1,-17,-6,-1,0,1,3,2021-08-05 17:22:44,881351
-2,-2,-7,-3,-1,-2,-4,-2,2021-08-05 17:22:44,897512
-5,-9,-4,3,-3,-3,-1,-2,2021-08-05 17:22:44,897548
3,12,16,6,3,2,3,6,2021-08-05 17:22:44,897548
-1,-12,3,2,0,-1,1,0,2021-08-05 17:22:44,897548
-5,1,-4,1,-3,-2,-2,-3,2021-08-05 17:22:44,897548
6,15,3,3,1,-1,-1,0,2021-08-05 17:22:44,897548
-3,0,2,-8,-2,0,-1,0,2021-08-05 17:22:44,929525
3,8,3,2,-3,-1,0,1,2021-08-05 17:22:44,945391
0,-19,12,12,-4,-5,-3,2,2021-08-05 17:22:44,945391
-7,1,-21,-20,-2,1,-1,-7,2021-08-05 17:22:44,945391
-1,2,-2,2,-3,0,-1,0,2021-08-05 17:22:44,945391
-2,-2,9,7,1,-1,-3,0,2021-08-05 17:22:44,945391
-3,-1,6,-1,-2,-3,-1,-3,2021-08-05 17:22:44,945391
-6,-12,-18,-8,-6,-3,-4,-3,2021-08-05 17:22:44,945391
2,4,3,1,2,0,1,0,2021-08-05 17:22:44,945391
-1,-3,0,-3,0,-2,-2,-1,2021-08-05 17:22:44,945391
1,5,0,6,2,2,1,3,2021-08-05 17:22:44,946317
2,10,7,-1,0,0,0,0,2021-08-05 17:22:44,946317
-3,-9,-10,-9,-6,-1,-2,-4,2021-08-05 17:22:44,946317
2,8,7,6,4,1,2,3,2021-08-05 17:22:44,946317
-1,-3,-2,-2,-2,-2,-4,-4,2021-08-05 17:22:44,946317
1,-7,-5,-1,2,2,4,5,2021-08-05 17:22:44,946317
0,2,2,5,1,-1,-1,-1,2021-08-05 17:22:44,977429
-1,-5,3,13,2,0,-1,-1,2021-08-05 17:22:44,977429
-3,2,-5,-21,-8,-3,-4,-5,2021-08-05 17:22:44,977726
1,-2,-6,-5,-4,-2,-1,1,2021-08-05 17:22:44,977726
-2,-1,3,4,0,-1,-2,-3,2021-08-05 17:22:45,009318
-8,-7,-16,-3,-3,-3,-2,-7,2021-08-05 17:22:45,009464
1,0,5,3,-2,-1,-1,2,2021-08-05 17:22:45,009683
3,11,4,5,2,1,1,3,2021-08-05 17:22:45,009804
0,3,2,-3,-1,-3,-1,-1,2021-08-05 17:22:45,009906
3,2,3,-1,-1,0,1,1,2021-08-05 17:22:45,009906
2,-1,-4,-2,-1,-1,0,-2,2021-08-05 17:22:45,024351
-4,-11,6,4,-3,-2,-2,-3,2021-08-05 17:22:45,024351
0,2,2,2,2,-1,0,2,2021-08-05 17:22:45,040352
-1,5,-3,-13,-2,0,-2,-2,2021-08-05 17:22:45,056462
-1,-10,-9,-2,-1,-2,-1,0,2021-08-05 17:22:45,072368
1,-3,4,-1,2,1,0,0,2021-08-05 17:22:45,072368
-5,-30,-11,-2,-2,-2,-2,-3,2021-08-05 17:22:45,072368
8,31,30,25,6,3,4,8,2021-08-05 17:22:45,072748
1,5,-30,-42,-10,-3,-4,-4,2021-08-05 17:22:45,072748
-2,-7,-4,2,0,-1,0,0,2021-08-05 17:22:45,072748
-1,2,-1,-6,-2,0,-1,-4,2021-08-05 17:22:45,072748
-3,-24,5,3,-1,-2,-2,-1,2021-08-05 17:22:45,072748
3,15,11,19,4,3,4,5,2021-08-05 17:22:45,072748
-1,11,-2,-11,-5,-4,-5,-7,2021-08-05 17:22:45,073316
2,-15,-11,-7,-1,-1,1,4,2021-08-05 17:22:45,103513
-2,-2,-3,-4,-2,-2,-2,-1,2021-08-05 17:22:45,119434
-5,-4,-2,3,1,-1,-2,-4,2021-08-05 17:22:45,119434
1,-2,7,3,-1,1,2,3,2021-08-05 17:22:45,119434
-3,9,4,5,-1,1,-1,-2,2021-08-05 17:22:45,119434
0,-6,-12,-8,0,-1,0,0,2021-08-05 17:22:45,119434
-1,-5,13,12,4,-4,0,1,2021-08-05 17:22:45,119938
0,0,-10,-13,-4,-1,-1,-1,2021-08-05 17:22:45,119938
1,4,-2,1,0,-2,0,2,2021-08-05 17:22:45,135351
0,3,-8,-6,-3,0,-2,-2,2021-08-05 17:22:45,135620
-2,-1,19,10,0,-1,-1,-3,2021-08-05 17:22:45,135620
0,-4,-13,-2,-1,-1,-1,-1,2021-08-05 17:22:45,135620
3,-1,11,6,2,0,3,6,2021-08-05 17:22:45,166351
-5,4,-28,-23,-4,-3,-3,-8,2021-08-05 17:22:45,166351
0,1,11,9,3,3,2,2,2021-08-05 17:22:45,166351
2,1,4,5,-1,0,1,1,2021-08-05 17:22:45,166351
0,-2,0,-3,0,1,0,0,2021-08-05 17:22:45,182427
-4,-4,8,7,-1,-1,-1,-2,2021-08-05 17:22:45,198466
-6,-4,-6,-2,3,2,-1,-3,2021-08-05 17:22:45,214351
-9,-11,4,2,0,-4,-3,-5,2021-08-05 17:22:45,230459
0,9,-2,-5,-7,-6,-7,-6,2021-08-05 17:22:45,246515
3,-2,-7,-6,-3,-4,-1,1,2021-08-05 17:22:45,246704
1,4,-3,-3,-4,-3,-2,-2,2021-08-05 17:22:45,246704
0,-9,6,2,-3,-3,0,0,2021-08-05 17:22:45,246704
-4,5,3,5,0,-2,0,-1,2021-08-05 17:22:45,246704
-1,0,-3,-13,-3,1,-1,0,2021-08-05 17:22:45,246704
1,-6,-14,-5,2,2,3,2,2021-08-05 17:22:45,246704
-2,-1,3,4,1,-2,2,0,2021-08-05 17:22:45,247356
2,1,-3,4,3,1,1,0,2021-08-05 17:22:45,247356
-3,0,10,1,-2,-1,1,-2,2021-08-05 17:22:45,247356
1,4,0,4,2,-1,1,1,2021-08-05 17:22:45,247356
3,0,-3,0,-1,-2,-1,-1,2021-08-05 17:22:45,247356
-2,5,-13,-11,-6,-1,-3,-3,2021-08-05 17:22:45,247356
0,-7,-1,2,-1,-1,0,2,2021-08-05 17:22:45,247828
-3,-4,5,1,-2,-1,0,-3,2021-08-05 17:22:45,262397
1,-1,1,0,-1,0,0,-1,2021-08-05 17:22:45,278377
-1,-6,-5,1,-1,-1,-3,-2,2021-08-05 17:22:45,294399
-3,-12,5,10,2,3,0,2,2021-08-05 17:22:45,294399
0,16,1,-6,-1,-2,-1,-1,2021-08-05 17:22:45,294399
2,6,0,-7,-2,-1,-2,0,2021-08-05 17:22:45,294399
-5,-28,0,-2,-3,-2,-3,-5,2021-08-05 17:22:45,294399
2,12,3,4,3,-1,1,1,2021-08-05 17:22:45,294399
2,0,-18,-12,-3,-1,-2,1,2021-08-05 17:22:45,294399
-3,-3,-3,-1,1,1,-2,-3,2021-08-05 17:22:45,295317
-3,2,0,2,0,-4,-2,0,2021-08-05 17:22:45,326456
0,-6,6,4,-4,-3,-2,0,2021-08-05 17:22:45,341352
-1,-4,-4,1,1,-1,2,1,2021-08-05 17:22:45,356932
-2,4,0,0,2,0,1,1,2021-08-05 17:22:45,357179
-1,0,1,-3,0,0,-1,-3,2021-08-05 17:22:45,357179
-4,-4,-4,0,-2,-2,-2,-4,2021-08-05 17:22:45,357411
3,3,13,6,2,-2,0,3,2021-08-05 17:22:45,357411
-4,-5,-11,-6,-3,-2,-2,-4,2021-08-05 17:22:45,357411
-1,-3,-9,-3,1,1,1,-1,2021-08-05 17:22:45,357411
0,5,-2,-4,1,-1,0,0,2021-08-05 17:22:45,357411
-4,-7,6,3,-2,0,-3,-4,2021-08-05 17:22:45,357934
1,0,18,18,4,3,1,7,2021-08-05 17:22:45,357934
2,4,-13,-17,-3,0,0,0,2021-08-05 17:22:45,388281
-2,4,-7,-10,-3,-5,-4,-7,2021-08-05 17:22:45,404039
1,-7,-4,2,0,0,1,2,2021-08-05 17:22:45,419996
2,3,3,4,1,-2,-1,0,2021-08-05 17:22:45,419996
-2,-5,4,10,2,2,-1,0,2021-08-05 17:22:45,419996
0,11,-3,-1,1,1,0,1,2021-08-05 17:22:45,419996
-2,0,-9,-7,-3,-5,-1,-3,2021-08-05 17:22:45,419996
-2,-3,-1,-1,-2,-3,-3,-3,2021-08-05 17:22:45,419996
4,4,8,9,3,2,4,6,2021-08-05 17:22:45,419996
-1,-1,-1,-3,0,-1,1,1,2021-08-05 17:22:45,419996
-7,-12,0,-5,-4,-3,-3,-4,2021-08-05 17:22:45,420943
3,10,-11,-6,-1,2,1,2,2021-08-05 17:22:45,420943
-3,-2,2,-3,-3,-5,-2,-3,2021-08-05 17:22:45,451027
-3,-5,8,6,-3,-2,-1,-1,2021-08-05 17:22:45,456943
-1,-7,-11,0,0,-1,0,2,2021-08-05 17:22:45,456943
-8,-9,-1,-1,-5,-5,-4,-9,2021-08-05 17:22:45,456943
8,4,-12,-22,-4,1,1,5,2021-08-05 17:22:45,456943
-2,-5,-6,0,0,-1,0,-1,2021-08-05 17:22:45,456943
0,2,3,1,-2,0,-2,-2,2021-08-05 17:22:45,457946
-4,-12,1,3,0,-1,-1,-2,2021-08-05 17:22:45,457946
-4,2,10,10,-1,-2,-3,-5,2021-08-05 17:22:45,483066
2,7,11,8,1,-1,2,4,2021-08-05 17:22:45,498959
3,-2,-23,-17,-1,2,2,-2,2021-08-05 17:22:45,513965
-2,3,0,-5,-2,-2,-1,-1,2021-08-05 17:22:45,513965
-3,3,-1,0,-1,-2,-1,-1,2021-08-05 17:22:45,513965
-2,-7,5,2,-2,-1,-1,-2,2021-08-05 17:22:45,513965
-1,-2,1,6,-1,-1,-1,-1,2021-08-05 17:22:45,514422
6,0,-3,-4,-3,-1,-2,2,2021-08-05 17:22:45,514422
-2,-8,31,21,5,0,3,3,2021-08-05 17:22:45,514422
-5,4,-40,-31,-8,-2,-3,-8,2021-08-05 17:22:45,514422
10,9,5,2,1,2,0,6,2021-08-05 17:22:45,530112
-2,-6,-15,-8,-2,-1,-2,-3,2021-08-05 17:22:45,530112
-1,-1,7,5,1,0,0,1,2021-08-05 17:22:45,530356
-7,-21,9,8,-3,-3,-3,-5,2021-08-05 17:22:45,530501
-1,11,18,15,2,-2,2,2,2021-08-05 17:22:45,561961
0,11,-22,-30,-6,-2,-3,-4,2021-08-05 17:22:45,562256
0,-3,-9,1,3,2,-1,0,2021-08-05 17:22:45,562358
0,0,1,1,0,-1,-4,-1,2021-08-05 17:22:45,562358
-1,-6,-6,-2,0,0,1,2,2021-08-05 17:22:45,562358
-3,-1,25,23,5,1,0,1,2021-08-05 17:22:45,562358
-6,2,-21,-18,-6,-1,-2,-5,2021-08-05 17:22:45,578073
8,2,-9,-6,1,3,3,4,2021-08-05 17:22:45,578073
-3,-5,8,2,0,0,-2,-2,2021-08-05 17:22:45,578073
-2,-3,-3,3,0,-1,2,2,2021-08-05 17:22:45,578073
-1,7,-2,-5,-2,-2,-2,-3,2021-08-05 17:22:45,608911
2,-2,9,7,1,1,1,3,2021-08-05 17:22:45,609083
-2,-1,-4,-5,-7,-3,-4,-5,2021-08-05 17:22:45,609083
0,1,-3,-2,1,0,0,0,2021-08-05 17:22:45,609083
-2,0,-3,-4,-1,-4,-2,-2,2021-08-05 17:22:45,625047
-2,-1,4,0,2,3,-1,-2,2021-08-05 17:22:45,641042
-4,-2,-1,-3,-2,-3,-2,-5,2021-08-05 17:22:45,657068
0,-1,-2,1,10,2,1,1,2021-08-05 17:22:45,657264
1,2,2,-1,-10,0,0,2,2021-08-05 17:22:45,657409
0,0,-2,0,-5,-7,-3,0,2021-08-05 17:22:45,657549
-3,-3,-3,-3,-6,-3,-3,-2,2021-08-05 17:22:45,657710
0,-3,0,2,2,-3,-2,0,2021-08-05 17:22:45,657817
-1,-1,-9,-4,1,0,-1,-5,2021-08-05 17:22:45,657909
1,4,1,1,1,4,3,2,2021-08-05 17:22:45,657909
-1,-3,1,-1,0,-2,-1,-3,2021-08-05 17:22:45,657909
-2,-1,1,1,-4,0,-1,-3,2021-08-05 17:22:45,657909
-2,3,0,-1,0,-1,-1,-1,2021-08-05 17:22:45,687951
-4,-4,-2,-3,0,-2,-4,-5,2021-08-05 17:22:45,688301
1,-2,-1,1,0,-3,-1,1,2021-08-05 17:22:45,688301
1,-2,2,0,-3,1,1,2,2021-08-05 17:22:45,688301
-6,-6,-5,-4,-8,-5,-5,-8,2021-08-05 17:22:45,688301
1,0,3,2,3,1,3,3,2021-08-05 17:22:45,688301
0,1,0,-1,1,1,0,0,2021-08-05 17:22:45,703082
2,-1,-1,-1,-3,-1,0,0,2021-08-05 17:22:45,703082
-2,-1,-2,0,-2,-4,-2,-3,2021-08-05 17:22:45,717944
3,0,1,2,2,3,5,6,2021-08-05 17:22:45,733703
0,0,-1,1,1,2,0,1,2021-08-05 17:22:45,733914
-6,-6,-6,-4,-6,-3,-4,-3,2021-08-05 17:22:45,733914
1,2,2,0,1,-1,0,-1,2021-08-05 17:22:45,748999
1,1,0,0,1,-1,0,2,2021-08-05 17:22:45,764944
2,6,4,2,3,1,1,2,2021-08-05 17:22:45,780909
-2,-5,-1,-2,0,-1,-2,-3,2021-08-05 17:22:45,780909
-2,2,-3,0,1,-1,-2,-2,2021-08-05 17:22:45,781258
4,1,1,2,2,0,0,2,2021-08-05 17:22:45,781258
-5,-4,-5,-7,-3,-3,-1,-5,2021-08-05 17:22:45,781258
-1,1,-1,0,0,0,1,-1,2021-08-05 17:22:45,781258
1,-1,2,2,1,1,1,3,2021-08-05 17:22:45,781258
-4,-4,-3,-3,-5,-3,-4,-7,2021-08-05 17:22:45,781258
-1,-2,-3,-1,-2,-1,0,-1,2021-08-05 17:22:45,781258
-3,-2,0,-1,-4,-2,-1,0,2021-08-05 17:22:45,781258
0,-4,-5,-3,-2,2,1,1,2021-08-05 17:22:45,828047
-2,1,0,-1,-4,-3,-2,-4,2021-08-05 17:22:45,828047
-3,-5,-6,-4,0,-2,-2,0,2021-08-05 17:22:45,842962
1,3,1,2,1,0,0,0,2021-08-05 17:22:45,859001
-4,-4,1,1,3,-1,0,-1,2021-08-05 17:22:45,859148
2,6,1,0,-1,-1,0,1,2021-08-05 17:22:45,859148
1,1,-1,-4,-3,-2,-3,-3,2021-08-05 17:22:45,859148
1,0,-3,-2,-2,-1,-1,1,2021-08-05 17:22:45,859148
2,3,-2,1,1,1,0,1,2021-08-05 17:22:45,859148
-6,-14,0,-2,-2,-3,-2,-6,2021-08-05 17:22:45,859148
0,7,-1,2,1,1,1,3,2021-08-05 17:22:45,859148
-3,-13,-3,-2,-1,-2,-2,-2,2021-08-05 17:22:45,859908
2,22,0,-1,-1,-1,-3,1,2021-08-05 17:22:45,859908
-1,-5,-4,-2,-2,0,-2,-2,2021-08-05 17:22:45,859908
0,-3,4,3,-1,-1,-2,-2,2021-08-05 17:22:45,859908
1,0,-4,0,0,0,0,0,2021-08-05 17:22:45,859908
-5,-17,-3,-1,-2,-1,0,1,2021-08-05 17:22:45,874052
-1,14,-4,-3,-1,-3,-2,-3,2021-08-05 17:22:45,890112
1,3,-5,-7,-2,-1,-3,-3,2021-08-05 17:22:45,906011
8,7,10,3,-1,0,1,2,2021-08-05 17:22:45,906011
-5,-4,9,-2,-5,-4,-5,-6,2021-08-05 17:22:45,906011
-1,-3,-5,2,1,2,2,5,2021-08-05 17:22:45,906011
-4,-10,-7,3,1,0,0,-3,2021-08-05 17:22:45,906011
2,6,1,-4,-4,-1,-1,0,2021-08-05 17:22:45,906011
3,-5,0,-1,0,0,0,-1,2021-08-05 17:22:45,922051
-3,-9,6,-2,-2,-2,-3,-1,2021-08-05 17:22:45,922051
-6,-15,-5,-4,-1,-1,1,2,2021-08-05 17:22:45,922319
1,8,-9,9,7,5,2,2,2021-08-05 17:22:45,922319
6,13,-4,-6,-2,-1,-1,-3,2021-08-05 17:22:45,952945
5,17,11,3,1,-3,-1,1,2021-08-05 17:22:45,952945
-3,-3,-5,-3,-5,-2,-4,-4,2021-08-05 17:22:45,952945
0,-11,15,-4,-3,-2,-2,-2,2021-08-05 17:22:45,952945
-20,-10,-25,-5,-2,-3,-2,-3,2021-08-05 17:22:45,952945
8,-7,-9,-1,2,2,2,4,2021-08-05 17:22:45,952945
-3,5,12,3,-3,-5,-4,-5,2021-08-05 17:22:45,953847
-2,3,-1,-3,-4,-5,-4,-3,2021-08-05 17:22:45,953909
2,-4,3,3,1,2,1,0,2021-08-05 17:22:45,998944
-10,-12,-4,-2,-5,-2,-2,-4,2021-08-05 17:22:46,014080
6,10,5,7,5,5,2,2,2021-08-05 17:22:46,030053
0,-8,-13,1,3,0,0,-1,2021-08-05 17:22:46,030053
2,3,4,0,0,0,1,1,2021-08-05 17:22:46,030053
-5,-13,-8,-3,-1,0,0,-2,2021-08-05 17:22:46,030053
0,24,23,-5,-5,-4,-3,-3,2021-08-05 17:22:46,030053
-2,14,-9,0,3,1,2,3,2021-08-05 17:22:46,030053
-2,-46,-29,-1,8,2,-1,-1,2021-08-05 17:22:46,030783
3,7,10,-2,-8,-2,0,1,2021-08-05 17:22:46,030783
-1,81,49,0,-3,-3,-2,-2,2021-08-05 17:22:46,030910
-2,-65,-37,2,5,4,2,3,2021-08-05 17:22:46,030910
-3,-13,-4,5,3,4,5,3,2021-08-05 17:22:46,046066
-5,13,-3,-6,-3,-4,-8,-11,2021-08-05 17:22:46,061960
2,-2,-11,-5,-3,-6,-6,-7,2021-08-05 17:22:46,061960
-2,37,27,-4,-11,-9,-8,-5,2021-08-05 17:22:46,061960
14,86,33,7,3,3,3,10,2021-08-05 17:22:46,061960
0,-94,-30,5,5,4,6,5,2021-08-05 17:22:46,061960
-1,-6,-17,-2,1,3,3,3,2021-08-05 17:22:46,061960
-4,6,11,-5,-10,-6,-3,-6,2021-08-05 17:22:46,061960
-1,-9,0,0,1,-1,1,0,2021-08-05 17:22:46,077910
-8,33,20,-3,-2,-2,-6,-6,2021-08-05 17:22:46,078071
15,-34,-24,9,12,10,10,15,2021-08-05 17:22:46,078296
-9,-16,-12,-8,-5,-1,-2,-4,2021-08-05 17:22:46,078296
-3,-15,9,-3,-8,-5,-5,-5,2021-08-05 17:22:46,106960
0,10,0,-1,-1,-2,-2,-2,2021-08-05 17:22:46,106960
-2,-19,9,4,3,2,1,1,2021-08-05 17:22:46,107909
4,-9,-31,0,6,2,3,3,2021-08-05 17:22:46,107909
3,19,14,-1,-4,-2,0,1,2021-08-05 17:22:46,107909
-5,11,-1,-4,-4,-4,-5,-5,2021-08-05 17:22:46,107909
-3,-19,-9,6,-2,1,-2,-4,2021-08-05 17:22:46,140938
-1,21,15,-11,3,1,3,3,2021-08-05 17:22:46,141156
0,-6,-3,-3,-6,-1,-2,1,2021-08-05 17:22:46,141156
2,19,-4,1,-4,-3,-1,-1,2021-08-05 17:22:46,141156
-6,-52,-15,-3,0,1,0,0,2021-08-05 17:22:46,141156
-4,13,15,1,-3,-4,-5,-8,2021-08-05 17:22:46,141156
2,-1,-17,-1,2,2,-1,-1,2021-08-05 17:22:46,172944
2,-24,0,-2,4,2,4,4,2021-08-05 17:22:46,172944
-1,20,3,-1,2,-1,0,1,2021-08-05 17:22:46,172944
-4,21,3,-1,-5,-5,-7,-4,2021-08-05 17:22:46,173382
-2,-29,-11,-2,1,-1,-3,-3,2021-08-05 17:22:46,173382
-2,19,3,0,-2,-2,-2,-1,2021-08-05 17:22:46,173602
-3,3,-5,-3,-4,-3,-2,-3,2021-08-05 17:22:46,188020
0,-17,0,3,1,1,-1,1,2021-08-05 17:22:46,188312
1,11,7,1,0,1,1,3,2021-08-05 17:22:46,203122
0,6,1,7,5,3,3,2,2021-08-05 17:22:46,218022
-2,57,6,-2,-2,-4,0,-2,2021-08-05 17:22:46,234063
1,-82,-10,-2,1,1,1,3,2021-08-05 17:22:46,234245
-2,1,-11,-3,-3,-2,0,-3,2021-08-05 17:22:46,234245
-1,-6,-13,-6,-4,-3,-5,-5,2021-08-05 17:22:46,234421
-2,5,0,-5,-2,0,-2,-2,2021-08-05 17:22:46,234650
-4,28,13,1,-6,-5,-5,-7,2021-08-05 17:22:46,234650
-2,-2,7,2,2,-1,0,1,2021-08-05 17:22:46,249934
1,-15,-4,-1,-2,0,-1,2,2021-08-05 17:22:46,250202
-3,-6,-4,-4,-2,0,0,-2,2021-08-05 17:22:46,265911
2,9,0,2,3,2,1,-1,2021-08-05 17:22:46,265911
-1,-6,14,3,0,-1,-2,-2,2021-08-05 17:22:46,265911
0,26,-5,-3,-3,-3,-1,-3,2021-08-05 17:22:46,265911
-1,-53,-12,0,0,0,0,1,2021-08-05 17:22:46,265911
-3,1,-14,-3,-2,0,0,2,2021-08-05 17:22:46,265911
-2,-4,-8,-2,-4,-3,-4,-6,2021-08-05 17:22:46,281008
4,23,14,5,4,4,3,4,2021-08-05 17:22:46,281008
2,-5,3,2,4,2,1,2,2021-08-05 17:22:46,281008
0,-10,-5,-3,-3,-2,0,-3,2021-08-05 17:22:46,281008
2,21,10,0,-2,0,-1,2,2021-08-05 17:22:46,311986
-2,-10,0,0,-1,-2,-1,1,2021-08-05 17:22:46,327087
-2,-12,-14,-4,-4,-2,0,-1,2021-08-05 17:22:46,327193
1,-9,7,-1,0,0,1,3,2021-08-05 17:22:46,327193
-4,24,-9,-3,-1,-2,-3,-5,2021-08-05 17:22:46,327383
-3,-37,-8,-3,0,0,1,2,2021-08-05 17:22:46,327498
0,4,8,-3,-3,-4,-3,-2,2021-08-05 17:22:46,327498
0,20,2,0,0,1,0,0,2021-08-05 17:22:46,327683
0,-2,10,1,-4,-4,-1,1,2021-08-05 17:22:46,342944
-2,-5,-6,2,5,2,-1,-1,2021-08-05 17:22:46,342944
1,5,-4,-2,-2,-1,1,0,2021-08-05 17:22:46,343250
-3,14,3,3,-2,-1,-2,-3,2021-08-05 17:22:46,343250
0,2,7,2,0,1,1,0,2021-08-05 17:22:46,374911
-1,-34,-7,4,1,2,0,1,2021-08-05 17:22:46,374911
-1,-5,-11,1,-3,-1,-2,-1,2021-08-05 17:22:46,374911
1,7,-5,-5,-4,-1,-4,-2,2021-08-05 17:22:46,374911
0,17,-7,1,1,-1,1,-1,2021-08-05 17:22:46,390950
-2,-10,-1,-5,-7,-5,-2,-5,2021-08-05 17:22:46,407036
0,2,10,1,2,1,0,-1,2021-08-05 17:22:46,407174
-6,-27,1,1,1,-1,-2,-3,2021-08-05 17:22:46,407174
-2,4,-9,-6,-5,0,-3,-3,2021-08-05 17:22:46,407174
2,11,5,0,-3,-1,-1,-2,2021-08-05 17:22:46,407174
-4,9,5,-2,-3,-3,-2,-4,2021-08-05 17:22:46,407174
4,17,11,5,3,1,3,4,2021-08-05 17:22:46,407174
-5,-36,-12,0,2,-1,1,0,2021-08-05 17:22:46,423037
0,11,-3,-2,-1,0,-1,0,2021-08-05 17:22:46,429961
0,-5,-7,-4,-3,-2,-3,-1,2021-08-05 17:22:46,438048
1,22,3,1,0,0,-1,-3,2021-08-05 17:22:46,438225
-4,-39,-8,-3,-2,-2,-2,-2,2021-08-05 17:22:46,438382
-1,35,18,0,-4,-2,-1,0,2021-08-05 17:22:46,438466
0,-22,-9,1,0,-1,2,4,2021-08-05 17:22:46,452999
-5,-2,-11,-4,1,0,0,0,2021-08-05 17:22:46,469004
7,25,14,5,1,2,0,0,2021-08-05 17:22:46,485055
-3,-19,-4,-1,1,-1,-2,0,2021-08-05 17:22:46,500944
-5,6,-1,-3,-4,-2,-3,-4,2021-08-05 17:22:46,501073
4,3,8,3,2,1,0,1,2021-08-05 17:22:46,501244
0,-8,-2,-1,1,3,0,-1,2021-08-05 17:22:46,501244
-1,2,-9,-1,1,1,-1,-3,2021-08-05 17:22:46,501244
0,15,13,-1,-2,-1,-2,1,2021-08-05 17:22:46,501244
-1,-20,-26,0,2,2,2,1,2021-08-05 17:22:46,501244
-6,-22,5,-2,-3,-3,-3,-4,2021-08-05 17:22:46,501244
4,37,10,2,2,1,0,0,2021-08-05 17:22:46,501244
-5,-37,-10,-1,0,-1,0,-3,2021-08-05 17:22:46,501910
-2,6,4,1,-2,-2,-2,-1,2021-08-05 17:22:46,501910
-1,16,8,0,0,-1,0,1,2021-08-05 17:22:46,533098
0,-11,-8,5,6,4,1,2,2021-08-05 17:22:46,548909
-1,-3,-6,-2,-1,0,-1,0,2021-08-05 17:22:46,548909
-1,14,7,-6,-4,-5,-4,-5,2021-08-05 17:22:46,548909
11,13,-6,1,5,6,6,6,2021-08-05 17:22:46,548909
-4,-23,20,0,-1,-1,0,-1,2021-08-05 17:22:46,548909
-1,22,-14,-2,-2,-2,-5,-2,2021-08-05 17:22:46,548909
-2,-36,3,0,-1,-1,-2,0,2021-08-05 17:22:46,549540
-4,-4,-15,-5,-5,-4,-4,-3,2021-08-05 17:22:46,549540
3,7,-9,-3,-3,0,0,0,2021-08-05 17:22:46,549540
2,3,9,-1,1,1,0,-1,2021-08-05 17:22:46,563944
-2,33,2,-2,-3,-4,-2,-2,2021-08-05 17:22:46,563944
-6,-29,3,-4,-2,-4,-2,-4,2021-08-05 17:22:46,580125
-1,-1,5,0,-1,-1,0,1,2021-08-05 17:22:46,580125
1,0,-2,1,-1,0,0,-1,2021-08-05 17:22:46,580334
-2,10,2,0,-2,0,-3,-1,2021-08-05 17:22:46,580334
2,5,-5,0,1,-1,1,-1,2021-08-05 17:22:46,611024
-5,-34,-30,-3,-2,-1,-2,-3,2021-08-05 17:22:46,626045
0,7,11,-1,-2,-1,0,2,2021-08-05 17:22:46,642053
-1,2,10,1,2,3,1,0,2021-08-05 17:22:46,642053
0,4,8,1,-1,-2,0,-1,2021-08-05 17:22:46,642053
-2,-11,-18,-5,-3,-1,0,1,2021-08-05 17:22:46,642053
1,-1,3,0,3,1,0,-2,2021-08-05 17:22:46,642053
-1,-3,1,-2,-2,-3,-1,-3,2021-08-05 17:22:46,642053
-5,-2,-11,-5,-5,-3,-5,-6,2021-08-05 17:22:46,642766
1,-4,15,1,0,1,1,1,2021-08-05 17:22:46,642908
-3,-11,-9,2,0,1,1,1,2021-08-05 17:22:46,643022
1,0,-6,1,0,-2,0,-1,2021-08-05 17:22:46,643022
3,2,6,0,4,1,2,2,2021-08-05 17:22:46,673139
-3,7,0,-6,-5,-5,-5,-7,2021-08-05 17:22:46,673139
3,7,2,1,2,3,4,3,2021-08-05 17:22:46,673399
-1,-12,-7,0,1,2,1,-1,2021-08-05 17:22:46,673399
-2,-5,-3,-2,-5,-4,-2,0,2021-08-05 17:22:46,673399
2,16,5,1,1,-1,1,1,2021-08-05 17:22:46,673910
0,-2,5,0,0,-1,-1,-1,2021-08-05 17:22:46,688944
0,10,16,0,0,1,-1,2,2021-08-05 17:22:46,705055
-2,-20,-24,1,1,-1,-1,-1,2021-08-05 17:22:46,720407
-5,-34,-33,-7,-5,-2,-3,-4,2021-08-05 17:22:46,736535
-4,18,-2,-8,-8,-6,-6,-9,2021-08-05 17:22:46,736535
4,-3,1,5,4,4,5,7,2021-08-05 17:22:46,736690
-2,-2,32,3,-2,0,-3,-3,2021-08-05 17:22:46,736690
0,4,-2,1,0,-1,0,0,2021-08-05 17:22:46,736690
-3,-21,-19,-4,-3,-3,-2,-2,2021-08-05 17:22:46,752416
-3,8,-14,-7,-6,-5,-2,-4,2021-08-05 17:22:46,759418
2,17,10,1,2,-2,0,1,2021-08-05 17:22:46,759418
4,6,4,4,4,5,3,5,2021-08-05 17:22:46,759418
0,-6,3,1,2,0,1,1,2021-08-05 17:22:46,767420
-3,2,1,-5,-5,-4,-3,-5,2021-08-05 17:22:46,767420
2,0,-2,0,-2,0,0,2,2021-08-05 17:22:46,767420
-2,1,13,1,-2,-1,-3,-3,2021-08-05 17:22:46,767420
1,27,-1,2,0,0,-1,-1,2021-08-05 17:22:46,767420
4,-41,-6,2,2,4,3,3,2021-08-05 17:22:46,768242
-6,7,-5,-5,-5,-3,-2,-6,2021-08-05 17:22:46,799459
-1,12,3,-3,-4,-4,-2,-1,2021-08-05 17:22:46,815463
0,-2,10,5,2,2,-1,0,2021-08-05 17:22:46,831513
-5,3,3,1,-1,-1,-3,0,2021-08-05 17:22:46,831513
0,-7,-20,-4,2,2,-1,0,2021-08-05 17:22:46,831513
-5,2,-4,-8,-8,-10,-6,-6,2021-08-05 17:22:46,831513
3,1,1,0,2,1,-3,0,2021-08-05 17:22:46,831513
1,-2,1,-1,-3,-2,-1,-4,2021-08-05 17:22:46,831513
0,29,7,-3,-5,-2,-1,0,2021-08-05 17:22:46,831513
-2,-12,5,1,1,1,1,1,2021-08-05 17:22:46,831513
0,-13,-8,-1,0,1,2,2,2021-08-05 17:22:46,832437
-1,38,5,3,4,3,2,2,2021-08-05 17:22:46,832437
-6,-55,-5,2,1,1,1,-4,2021-08-05 17:22:46,846436
-3,1,-3,2,2,0,-3,-6,2021-08-05 17:22:46,861510
1,10,1,-1,-6,-8,-8,-8,2021-08-05 17:22:46,861510
2,-13,-9,-3,-6,-7,-5,-1,2021-08-05 17:22:46,861510
2,56,19,1,0,-3,-2,0,2021-08-05 17:22:46,861510
0,-42,-4,0,3,4,3,4,2021-08-05 17:22:46,861510
-2,-21,-23,-4,0,0,3,0,2021-08-05 17:22:46,862018
-2,17,8,-4,-2,0,-1,-3,2021-08-05 17:22:46,862117
-3,-4,16,4,2,2,0,0,2021-08-05 17:22:46,892598
2,6,-21,-3,0,1,0,2,2021-08-05 17:22:46,892725
-2,12,2,-3,-3,-1,-1,-1,2021-08-05 17:22:46,892861
-2,-3,-9,-3,-2,-3,-3,-5,2021-08-05 17:22:46,892861
1,-16,1,1,-3,-1,-1,4,2021-08-05 17:22:46,908487
-2,21,12,3,1,0,0,-3,2021-08-05 17:22:46,908487
0,-6,-3,2,3,3,3,4,2021-08-05 17:22:46,908808
0,0,-4,0,-1,0,1,-1,2021-08-05 17:22:46,908808
-2,-6,7,-3,-3,-2,-2,-4,2021-08-05 17:22:46,908808
0,17,-13,-2,-4,-2,0,-1,2021-08-05 17:22:46,908808
-2,-11,-1,-1,-1,-2,0,-2,2021-08-05 17:22:46,924549
-2,-11,1,-2,-2,-3,-1,-2,2021-08-05 17:22:46,924549
3,53,2,1,3,1,1,1,2021-08-05 17:22:46,940508
-6,-58,-4,-3,-5,-2,-2,-3,2021-08-05 17:22:46,956198
-1,-19,-10,-3,0,-1,1,0,2021-08-05 17:22:46,971512
0,-14,-13,-3,-4,-2,-2,0,2021-08-05 17:22:46,971512
-1,-1,-11,-5,-2,-3,-2,-2,2021-08-05 17:22:46,971512
0,34,10,-1,-1,-1,0,0,2021-08-05 17:22:46,971512
-2,25,32,4,0,-1,0,-1,2021-08-05 17:22:46,971512
1,-30,-16,1,5,3,2,1,2021-08-05 17:22:46,971512
-2,-24,-33,-5,0,-1,-2,-1,2021-08-05 17:22:46,971512
-8,15,10,-11,-14,-11,-9,-11,2021-08-05 17:22:46,972457
9,1,3,7,7,7,7,8,2021-08-05 17:22:46,987561
0,9,11,5,4,2,0,1,2021-08-05 17:22:46,987832
5,8,28,6,1,1,3,2,2021-08-05 17:22:47,003496
3,9,-40,-4,-1,0,-2,-2,2021-08-05 17:22:47,019498
-23,-58,-4,-7,-5,-4,-4,-8,2021-08-05 17:22:47,035494
-10,-3,-10,-2,-5,-4,-4,-4,2021-08-05 17:22:47,035494
1,0,-2,-4,-1,-1,-1,0,2021-08-05 17:22:47,035494
10,79,38,8,7,3,4,6,2021-08-05 17:22:47,035494
8,-24,2,1,0,-1,1,1,2021-08-05 17:22:47,035494
0,-61,-21,3,5,3,4,2,2021-08-05 17:22:47,035494
-7,-9,-16,-7,-7,-6,-6,-6,2021-08-05 17:22:47,035494
3,12,10,-1,-2,-3,-3,-1,2021-08-05 17:22:47,036492
-4,51,-4,-4,-6,-6,-6,-6,2021-08-05 17:22:47,051649
7,36,30,8,7,7,8,11,2021-08-05 17:22:47,051901
1,-73,-12,9,3,3,4,4,2021-08-05 17:22:47,051901
-6,-18,-18,-5,-2,-1,-2,-5,2021-08-05 17:22:47,052179
-5,18,-7,-19,-14,-8,-9,-6,2021-08-05 17:22:47,066557
-2,12,3,-1,-1,-2,-5,-6,2021-08-05 17:22:47,066557
1,15,-1,1,2,0,1,3,2021-08-05 17:22:47,081612
3,-3,17,9,4,3,4,6,2021-08-05 17:22:47,086491
5,-11,1,7,9,5,4,5,2021-08-05 17:22:47,086491
-2,8,-4,-6,-5,-3,-2,-4,2021-08-05 17:22:47,087457
0,7,2,0,1,-1,-1,-1,2021-08-05 17:22:47,113523
-5,-18,1,-1,0,0,-2,-2,2021-08-05 17:22:47,129508
-1,2,-10,-4,-1,-2,-2,-2,2021-08-05 17:22:47,129508
-1,-2,1,-2,-3,-4,-3,-1,2021-08-05 17:22:47,129989
-1,5,-2,0,-1,-1,-2,-2,2021-08-05 17:22:47,129989
-2,-5,4,-1,-2,-3,-1,1,2021-08-05 17:22:47,130219
-1,3,-10,-2,-2,0,-1,-3,2021-08-05 17:22:47,130325
4,-13,3,3,3,4,2,3,2021-08-05 17:22:47,130404
-6,-2,2,-5,-5,-4,-3,-5,2021-08-05 17:22:47,144510
-1,0,-9,-1,1,0,-2,0,2021-08-05 17:22:47,160491
0,0,-4,1,0,1,0,1,2021-08-05 17:22:47,176617
-1,3,-1,-1,-1,0,0,1,2021-08-05 17:22:47,176617
0,-1,-5,-1,1,1,1,-1,2021-08-05 17:22:47,176617
0,54,13,1,1,-2,-2,-2,2021-08-05 17:22:47,176617
-5,-58,0,2,-2,-3,-1,-2,2021-08-05 17:22:47,176617
-3,21,-15,-6,-5,-5,-4,-3,2021-08-05 17:22:47,176617
4,-27,-4,-1,0,1,1,4,2021-08-05 17:22:47,176617
-2,11,8,2,2,1,0,-2,2021-08-05 17:22:47,176617
1,19,14,2,0,1,0,0,2021-08-05 17:22:47,177496
-4,-7,-6,-3,-3,-3,-2,-2,2021-08-05 17:22:47,177496
-2,14,-4,1,-2,2,-1,0,2021-08-05 17:22:47,208548
1,45,3,1,1,0,2,3,2021-08-05 17:22:47,223543
-2,-84,-15,4,1,1,-1,1,2021-08-05 17:22:47,223543
-2,-1,2,-4,-4,-2,-2,-2,2021-08-05 17:22:47,223543
-18,14,-6,-12,-9,-7,-7,-11,2021-08-05 17:22:47,223543
4,-21,-4,-2,-4,1,-1,-1,2021-08-05 17:22:47,223543
3,34,14,3,0,-2,-1,-1,2021-08-05 17:22:47,223543
4,3,5,2,0,1,1,0,2021-08-05 17:22:47,223543
3,-20,-10,3,3,1,1,3,2021-08-05 17:22:47,239674
-3,-14,2,-1,-1,0,-1,0,2021-08-05 17:22:47,239674
-1,20,2,-3,-2,-2,0,-1,2021-08-05 17:22:47,239674
-4,-21,-10,-5,-2,-2,-2,-3,2021-08-05 17:22:47,239674
3,23,16,6,1,3,1,0,2021-08-05 17:22:47,271510
-4,-28,8,2,-2,0,-1,-1,2021-08-05 17:22:47,287545
2,8,-24,-2,0,-2,2,2,2021-08-05 17:22:47,303456
-6,1,3,-7,-7,-6,-3,-5,2021-08-05 17:22:47,303456
-1,5,-1,-1,-1,-4,-3,0,2021-08-05 17:22:47,303456
2,-48,4,5,4,1,1,1,2021-08-05 17:22:47,303456
-3,3,-2,-1,-2,-1,-1,-1,2021-08-05 17:22:47,303456
0,17,3,-1,2,-1,0,0,2021-08-05 17:22:47,303456
3,-7,1,-2,-2,-2,0,1,2021-08-05 17:22:47,303456
-4,14,-9,-6,-3,-5,-1,-2,2021-08-05 17:22:47,303456
0,-4,5,-1,-1,0,-2,-2,2021-08-05 17:22:47,303456
-4,-36,-18,1,0,0,0,0,2021-08-05 17:22:47,304491
-2,21,9,-6,-4,-6,-3,-4,2021-08-05 17:22:47,334627
1,-19,5,3,2,2,2,1,2021-08-05 17:22:47,334627
-2,-1,-18,1,1,2,0,-1,2021-08-05 17:22:47,334627
1,19,15,1,-3,-3,-2,-2,2021-08-05 17:22:47,334885
-1,-21,-8,-1,0,1,-1,-2,2021-08-05 17:22:47,350515
-1,10,-2,-7,-6,-5,-5,0,2021-08-05 17:22:47,350515
-2,10,9,1,3,0,0,2,2021-08-05 17:22:47,350515
-1,-7,-1,3,1,-1,-1,-4,2021-08-05 17:22:47,350515
4,16,8,3,1,2,0,3,2021-08-05 17:22:47,366597
-2,-19,-13,0,2,3,2,-1,2021-08-05 17:22:47,382507
2,14,10,-1,-2,0,0,-1,2021-08-05 17:22:47,408458
-2,-4,-12,-4,-3,-3,-3,-2,2021-08-05 17:22:47,408458
-3,-4,-4,-3,-2,-4,-3,-3,2021-08-05 17:22:47,408458
2,56,12,3,2,1,1,2,2021-08-05 17:22:47,408458
-1,-67,1,0,-2,0,0,-1,2021-08-05 17:22:47,408458
-3,-9,-12,0,2,0,1,-1,2021-08-05 17:22:47,408458
-5,4,-5,-3,-6,-4,-1,-2,2021-08-05 17:22:47,409492
-1,-22,-9,-4,-1,-3,-2,-3,2021-08-05 17:22:47,409492
4,62,30,3,-1,-3,-3,1,2021-08-05 17:22:47,409730
14,0,4,5,4,0,1,3,2021-08-05 17:22:47,409730
-22,-39,-25,-7,1,2,1,-2,2021-08-05 17:22:47,427553
-3,0,-6,-7,-4,-3,-1,-4,2021-08-05 17:22:47,427553
-2,10,-1,-5,-3,-5,-3,-6,2021-08-05 17:22:47,427862
4,19,14,3,0,2,-1,1,2021-08-05 17:22:47,427939
9,8,-1,4,1,1,1,1,2021-08-05 17:22:47,443660
-5,-40,-8,0,-1,-3,-1,0,2021-08-05 17:22:47,458681
-1,10,-5,2,1,3,2,1,2021-08-05 17:22:47,474494
-4,-2,2,-1,-2,-2,-3,-1,2021-08-05 17:22:47,474494
5,32,21,7,4,4,4,5,2021-08-05 17:22:47,474494
-3,-17,4,6,1,0,1,0,2021-08-05 17:22:47,474494
0,-26,-39,-5,-2,-1,-2,-3,2021-08-05 17:22:47,474494
-9,40,-3,-19,-7,-5,-4,-7,2021-08-05 17:22:47,474494
-1,-47,-8,-1,-1,-2,-1,-5,2021-08-05 17:22:47,474494
4,12,20,5,5,3,3,7,2021-08-05 17:22:47,474494
1,8,4,7,4,1,-1,-1,2021-08-05 17:22:47,489589
-3,5,-10,-4,-3,0,0,1,2021-08-05 17:22:47,489657
7,-42,8,-1,-5,-3,-4,-3,2021-08-05 17:22:47,505507
0,-27,-10,3,2,1,1,1,2021-08-05 17:22:47,505656
-20,29,7,-2,-2,-2,-2,-5,2021-08-05 17:22:47,505656
4,56,5,3,0,-2,0,-1,2021-08-05 17:22:47,505656
0,-81,-22,-13,-4,-3,-3,-4,2021-08-05 17:22:47,536495
4,21,-2,3,0,1,0,3,2021-08-05 17:22:47,536495
2,0,10,4,-1,-1,1,2,2021-08-05 17:22:47,536495
2,25,18,7,4,2,2,3,2021-08-05 17:22:47,536495
-3,20,-7,-6,-4,-3,-3,-5,2021-08-05 17:22:47,536495
-2,-12,-28,-8,0,-2,-3,-4,2021-08-05 17:22:47,536495
0,0,3,-12,-7,-5,-4,-2,2021-08-05 17:22:47,551568
2,-32,17,12,2,2,2,3,2021-08-05 17:22:47,551568
3,-3,-2,14,3,-2,0,4,2021-08-05 17:22:47,567583
-11,-20,-29,-21,-9,-8,-7,-12,2021-08-05 17:22:47,567583
-3,14,-3,-12,-8,-5,-3,-4,2021-08-05 17:22:47,567583
3,-12,8,4,3,2,1,2,2021-08-05 17:22:47,567583
6,47,59,20,6,4,5,10,2021-08-05 17:22:47,583513
14,-22,-46,12,4,1,3,4,2021-08-05 17:22:47,583513
-32,-15,-26,-23,-10,-6,-9,-16,2021-08-05 17:22:47,583513
-7,-31,-16,-11,-6,-3,-4,-6,2021-08-05 17:22:47,583513
10,80,27,9,2,0,1,4,2021-08-05 17:22:47,599651
-3,-31,21,7,3,0,1,3,2021-08-05 17:22:47,599651
26,50,12,5,5,4,6,11,2021-08-05 17:22:47,599827
-3,-88,-21,-1,-2,-1,-2,-3,2021-08-05 17:22:47,599977
-31,8,-39,-21,-5,-2,-4,-9,2021-08-05 17:22:47,629508
9,-8,18,-3,-1,-1,-1,0,2021-08-05 17:22:47,629669
5,0,14,23,11,6,6,7,2021-08-05 17:22:47,629850
-1,28,20,7,1,1,1,-1,2021-08-05 17:22:47,629959
3,23,-20,-16,-10,-6,-6,-8,2021-08-05 17:22:47,645491
-7,-49,-21,-10,-6,-1,-4,-3,2021-08-05 17:22:47,661749
1,-5,1,-6,-4,-3,-4,0,2021-08-05 17:22:47,677620
8,20,45,19,4,-1,2,6,2021-08-05 17:22:47,677669
4,-10,-18,11,4,2,3,4,2021-08-05 17:22:47,677863
-10,15,-24,-18,-6,0,-2,-6,2021-08-05 17:22:47,677903
-6,-16,-16,-17,-11,-9,-9,-10,2021-08-05 17:22:47,677903
0,-10,0,7,8,4,5,3,2021-08-05 17:22:47,677903
3,26,34,15,4,1,2,4,2021-08-05 17:22:47,677903
10,19,24,27,7,3,4,6,2021-08-05 17:22:47,678457
-13,-33,-37,-22,0,2,-2,-10,2021-08-05 17:22:47,678457
-11,74,-1,-25,-16,-9,-7,-6,2021-08-05 17:22:47,678457
5,-72,-3,16,4,2,0,4,2021-08-05 17:22:47,723493
4,101,9,-15,-2,0,-2,-3,2021-08-05 17:22:47,735840
9,-52,28,26,1,1,4,8,2021-08-05 17:22:47,735840
-16,-15,-12,11,7,0,0,-4,2021-08-05 17:22:47,735840
-11,-14,-66,-45,-11,-6,-6,-12,2021-08-05 17:22:47,736458
-3,2,-16,-32,-12,-5,-8,-5,2021-08-05 17:22:47,736550
11,53,37,9,2,0,0,3,2021-08-05 17:22:47,736550
7,-9,-4,8,3,1,2,6,2021-08-05 17:22:47,736550
3,-9,38,37,6,2,1,3,2021-08-05 17:22:47,736550
-7,0,4,-2,1,0,-1,-4,2021-08-05 17:22:47,736550
-4,23,-29,-24,-4,0,-1,-1,2021-08-05 17:22:47,753564
2,-33,0,-2,-6,-3,-2,2,2021-08-05 17:22:47,753564
5,19,19,16,6,2,2,2,2021-08-05 17:22:47,785492
-1,-7,12,2,2,-1,2,1,2021-08-05 17:22:47,801458
4,-2,8,12,0,-1,3,4,2021-08-05 17:22:47,801458
-2,-8,-19,-5,0,-1,-2,-3,2021-08-05 17:22:47,801458
-1,-5,4,-17,-8,-4,-3,-2,2021-08-05 17:22:47,801458
0,0,12,23,8,3,3,3,2021-08-05 17:22:47,801458
5,-19,-15,-10,-6,-2,-1,-3,2021-08-05 17:22:47,801458
-11,-5,-26,-21,-2,1,-3,-5,2021-08-05 17:22:47,801458
-2,14,-5,-11,-4,1,-1,-4,2021-08-05 17:22:47,801458
-6,-14,2,-9,-4,-6,-4,-2,2021-08-05 17:22:47,802491
6,22,29,31,11,3,4,6,2021-08-05 17:22:47,802491
15,-6,5,12,2,0,0,1,2021-08-05 17:22:47,802674
-15,-8,-37,-28,-7,-1,0,-1,2021-08-05 17:22:47,832613
-3,-10,6,3,-7,-3,-2,-4,2021-08-05 17:22:47,832613
-4,-10,-7,-5,0,-1,-3,-8,2021-08-05 17:22:47,832872
2,7,-11,-16,-7,-2,-3,0,2021-08-05 17:22:47,832872
1,-2,17,14,6,-1,-1,2,2021-08-05 17:22:47,832872
6,2,8,16,5,5,4,5,2021-08-05 17:22:47,832872
-7,2,4,4,-1,-2,-3,-2,2021-08-05 17:22:47,862670
-2,-16,-21,-19,-3,0,-1,-2,2021-08-05 17:22:47,878557
-2,2,-10,-4,-2,-2,-1,-4,2021-08-05 17:22:47,910569
-4,6,12,2,-2,-3,-2,1,2021-08-05 17:22:47,926669
2,2,24,21,4,2,1,1,2021-08-05 17:22:47,941619
-2,-10,-8,-5,3,0,0,0,2021-08-05 17:22:47,941619
-1,-9,-40,-26,-8,-3,-4,-4,2021-08-05 17:22:47,941619
0,14,40,18,2,-2,-2,1,2021-08-05 17:22:47,941619
1,-10,-20,2,3,1,2,2,2021-08-05 17:22:47,942110
0,-2,-22,-10,-2,0,2,1,2021-08-05 17:22:47,942110
2,7,9,-5,-4,-5,-1,-2,2021-08-05 17:22:47,942110
3,3,15,13,0,3,2,3,2021-08-05 17:22:47,942493
1,2,19,19,1,0,0,1,2021-08-05 17:22:47,942534
-12,-20,-24,-23,-7,-2,-6,-9,2021-08-05 17:22:47,942534
1,5,-16,-12,-2,1,1,3,2021-08-05 17:22:47,942836
0,1,-14,-4,-4,0,0,-1,2021-08-05 17:22:47,942836
-6,-13,5,-1,0,-1,-2,0,2021-08-05 17:22:47,942836
-1,23,60,42,6,-2,1,0,2021-08-05 17:22:47,942836
6,6,-17,-16,0,2,3,-2,2021-08-05 17:22:47,942836
-4,-10,-47,-31,-12,-5,-3,-2,2021-08-05 17:22:47,943534
-3,2,-7,-13,-7,-4,-5,-6,2021-08-05 17:22:47,943534
2,-5,15,15,4,1,0,5,2021-08-05 17:22:47,943534
-5,2,50,36,4,0,-1,-1,2021-08-05 17:22:47,956585
-1,5,-29,-25,-2,-1,-1,-2,2021-08-05 17:22:47,972534
-3,-10,-17,-18,-5,-2,0,-1,2021-08-05 17:22:47,972534
-1,3,15,6,-4,-4,-2,-1,2021-08-05 17:22:47,972534
4,6,20,28,9,3,2,2,2021-08-05 17:22:47,988696
-8,-9,-17,-19,-5,-2,-1,-6,2021-08-05 17:22:48,003534
-1,-16,-15,-8,-1,0,-1,-1,2021-08-05 17:22:48,003623
8,14,11,4,1,-2,3,4,2021-08-05 17:22:48,003737
-3,6,-5,-13,-7,-4,-5,-8,2021-08-05 17:22:48,033535
5,-1,16,27,6,1,2,8,2021-08-05 17:22:48,033898
-2,-10,-32,-21,1,3,0,1,2021-08-05 17:22:48,034012
-7,-8,-25,-17,-13,-4,-5,-8,2021-08-05 17:22:48,034164
4,-4,0,-14,-3,1,0,6,2021-08-05 17:22:48,034256
0,7,43,24,5,-2,-1,0,2021-08-05 17:22:48,034369
-10,-7,-25,-10,-5,-5,-5,-8,2021-08-05 17:22:48,048568
0,12,-12,-7,-2,-1,-1,-1,2021-08-05 17:22:48,055568
1,-1,18,12,2,1,1,0,2021-08-05 17:22:48,055568
-2,-2,-5,3,-1,0,-3,-4,2021-08-05 17:22:48,055568
5,11,36,19,3,-1,2,5,2021-08-05 17:22:48,055568
0,-10,40,33,7,-2,-4,-3,2021-08-05 17:22:48,055568
-12,-11,-77,-48,-14,-6,-7,-12,2021-08-05 17:22:48,064670
-2,-4,-36,-47,-8,-3,-1,-1,2021-08-05 17:22:48,064744
3,0,-7,4,2,2,-1,2,2021-08-05 17:22:48,064847
-6,-10,6,2,-1,-1,-2,-4,2021-08-05 17:22:48,064869
7,8,41,36,10,2,5,10,2021-08-05 17:22:48,080611
-8,-30,10,23,0,-4,-4,-7,2021-08-05 17:22:48,080773
0,16,-31,-18,0,2,1,-3,2021-08-05 17:22:48,080950
4,9,-14,-37,-10,-2,-3,-1,2021-08-05 17:22:48,080950
-1,7,48,34,5,-1,-1,-2,2021-08-05 17:22:48,110525
-5,4,2,14,1,-1,-3,-2,2021-08-05 17:22:48,126446
8,-11,-2,9,5,6,7,15,2021-08-05 17:22:48,126446
-1,-2,-11,-15,2,2,1,0,2021-08-05 17:22:48,126446
-4,-11,-27,-23,-4,-1,0,-3,2021-08-05 17:22:48,126446
7,13,53,46,7,-1,0,3,2021-08-05 17:22:48,126446
-7,-19,-26,-43,-10,-5,-3,-4,2021-08-05 17:22:48,126446
-1,10,-44,-21,-5,1,-3,-4,2021-08-05 17:22:48,126446
-1,-7,2,0,-3,-3,-1,-2,2021-08-05 17:22:48,141410
-1,6,23,13,1,-2,0,-1,2021-08-05 17:22:48,141410
1,16,32,35,6,-1,-2,-1,2021-08-05 17:22:48,141410
-2,-15,-14,-11,-1,-2,-1,-1,2021-08-05 17:22:48,141410
-10,-23,-45,-47,-11,-2,-6,-8,2021-08-05 17:22:48,172414
8,8,-11,-5,4,6,3,6,2021-08-05 17:22:48,187547
-1,2,4,-3,-6,-4,-4,-5,2021-08-05 17:22:48,203448
8,17,94,70,15,2,3,8,2021-08-05 17:22:48,203625
-5,-11,-50,-14,-7,0,0,-3,2021-08-05 17:22:48,203718
-5,-5,-32,-33,-6,0,-4,-7,2021-08-05 17:22:48,219448
0,-13,-14,5,-1,1,2,4,2021-08-05 17:22:48,235632
6,12,31,42,9,3,5,9,2021-08-05 17:22:48,235632
-5,0,-12,-27,-10,-5,-5,-7,2021-08-05 17:22:48,235632
-2,0,-7,-12,-4,0,0,-3,2021-08-05 17:22:48,235632
2,-7,9,6,-3,-3,-1,2,2021-08-05 17:22:48,235632
-12,4,-31,-33,-9,-6,-9,-19,2021-08-05 17:22:48,235632
18,17,24,18,10,8,9,18,2021-08-05 17:22:48,235632
-4,0,-2,3,-2,-1,-2,-2,2021-08-05 17:22:48,235632
-3,12,32,19,0,-4,-4,-4,2021-08-05 17:22:48,235632
-3,-18,-28,-3,-3,-1,0,3,2021-08-05 17:22:48,235632
3,-11,9,7,6,2,4,4,2021-08-05 17:22:48,251579
-3,11,-13,-18,-4,-1,-1,-3,2021-08-05 17:22:48,267522
6,11,50,36,7,0,2,3,2021-08-05 17:22:48,282541
-4,-1,15,21,-1,-2,-2,-5,2021-08-05 17:22:48,282541
-9,-24,-89,-71,-19,-8,-10,-13,2021-08-05 17:22:48,297413
15,3,-12,-15,8,11,12,19,2021-08-05 17:22:48,297618
-4,-11,-22,-19,-6,-2,-2,-5,2021-08-05 17:22:48,297810
2,-25,41,17,6,0,2,6,2021-08-05 17:22:48,297992
-3,54,37,42,0,-6,-8,-11,2021-08-05 17:22:48,297992
-3,-22,-43,-55,-15,-5,-3,-5,2021-08-05 17:22:48,297992
-5,-9,-13,-15,-3,0,-4,-4,2021-08-05 17:22:48,297992
1,9,-11,2,0,4,3,3,2021-08-05 17:22:48,298412
-1,-3,63,33,6,0,0,4,2021-08-05 17:22:48,298412
-2,3,-4,18,1,-4,-2,-2,2021-08-05 17:22:48,298412
-7,2,-26,-25,-9,-3,-3,-9,2021-08-05 17:22:48,313314
-8,-22,-20,-20,-7,-2,-3,-4,2021-08-05 17:22:48,328494
3,7,23,33,11,3,1,5,2021-08-05 17:22:48,328494
-1,4,15,-2,-6,-3,-3,-3,2021-08-05 17:22:48,328494
2,0,19,40,7,1,0,2,2021-08-05 17:22:48,328494
1,5,-45,-30,-2,0,-1,-3,2021-08-05 17:22:48,328494
-1,-13,-41,-47,-3,4,4,2,2021-08-05 17:22:48,344442
-9,-11,12,1,-6,-4,-7,-7,2021-08-05 17:22:48,359351
0,10,24,22,5,1,-1,1,2021-08-05 17:22:48,374317
0,1,15,6,1,-2,-1,-3,2021-08-05 17:22:48,374518
1,2,13,27,4,-1,3,3,2021-08-05 17:22:48,374518
-3,-1,-6,-3,2,-1,-1,-6,2021-08-05 17:22:48,374518
3,-2,-9,-2,-2,-2,2,4,2021-08-05 17:22:48,374518
-2,2,-20,-33,-5,-1,1,1,2021-08-05 17:22:48,374518
0,-12,2,7,2,-1,1,-1,2021-08-05 17:22:48,382317
1,2,26,39,9,0,4,4,2021-08-05 17:22:48,382317
-9,0,-31,-38,-6,-1,-2,-9,2021-08-05 17:22:48,382317
0,-4,-1,-18,-3,0,0,-2,2021-08-05 17:22:48,390391
-2,2,-4,12,2,0,-2,0,2021-08-05 17:22:48,406317
-1,0,18,7,-4,-3,-2,-6,2021-08-05 17:22:48,406317
4,2,-8,2,3,-1,-1,2,2021-08-05 17:22:48,406317
1,7,-23,-14,-3,-2,-3,1,2021-08-05 17:22:48,406317
2,4,17,3,0,-1,0,-3,2021-08-05 17:22:48,437390
-5,3,-19,-32,-8,-4,-5,-3,2021-08-05 17:22:48,452371
8,1,11,9,4,5,4,7,2021-08-05 17:22:48,468283
0,7,43,26,2,1,2,2,2021-08-05 17:22:48,468602
-8,-9,-68,-47,-9,0,-5,-10,2021-08-05 17:22:48,468724
-1,-8,-1,8,0,1,-1,-1,2021-08-05 17:22:48,468863
-7,-11,-3,-10,-5,-3,-5,-8,2021-08-05 17:22:48,484319
7,4,15,12,0,0,1,8,2021-08-05 17:22:48,484319
2,7,44,35,6,0,4,5,2021-08-05 17:22:48,484319
1,-1,-25,-12,-1,0,-1,-2,2021-08-05 17:22:48,484319
-5,-8,-14,-25,-7,-3,-3,-6,2021-08-05 17:22:48,484319
1,-1,-9,7,2,-2,-1,-2,2021-08-05 17:22:48,484319
-1,-11,9,5,-6,-4,-1,-1,2021-08-05 17:22:48,485024
-3,1,-3,1,-1,-2,0,2,2021-08-05 17:22:48,485024
5,12,5,10,5,3,2,5,2021-08-05 17:22:48,500324
1,2,7,2,3,1,-2,-4,2021-08-05 17:22:48,500324
-2,-16,-36,-38,-5,-3,-4,-2,2021-08-05 17:22:48,500324
-4,-9,0,2,-3,-3,-1,-2,2021-08-05 17:22:48,500731
2,11,39,36,5,0,2,2,2021-08-05 17:22:48,515580
-4,-9,-30,-35,-7,-2,-3,-7,2021-08-05 17:22:48,515706
0,6,26,24,7,2,1,1,2021-08-05 17:22:48,515706
-1,-1,-10,-14,-5,-1,-3,-6,2021-08-05 17:22:48,515706
12,7,-1,7,6,6,7,14,2021-08-05 17:22:48,531400
0,0,5,25,5,1,1,0,2021-08-05 17:22:48,547429
-1,1,13,-11,-3,-2,-3,-2,2021-08-05 17:22:48,547429
-5,-1,5,7,1,0,-1,-2,2021-08-05 17:22:48,547754
-7,-14,-50,-50,-13,-4,-2,-6,2021-08-05 17:22:48,547754
-2,-1,18,12,-3,-3,-3,-2,2021-08-05 17:22:48,547754
-1,0,-7,-11,-2,0,-1,-2,2021-08-05 17:22:48,578654
3,8,18,27,7,-1,-1,-1,2021-08-05 17:22:48,578829
-3,-11,-25,-28,-7,-1,-2,-2,2021-08-05 17:22:48,578829
-1,-1,5,8,-3,-2,1,0,2021-08-05 17:22:48,578829
2,-1,1,3,-2,-1,1,4,2021-08-05 17:22:48,578829
4,0,16,9,8,5,2,4,2021-08-05 17:22:48,579186
-3,5,8,2,-5,-4,-5,-4,2021-08-05 17:22:48,594438
-7,-8,-40,-25,-6,-2,-4,-8,2021-08-05 17:22:48,594438
-1,-4,5,-1,0,-3,-1,0,2021-08-05 17:22:48,609623
8,-1,-1,11,4,5,5,8,2021-08-05 17:22:48,625439
1,1,-2,-11,0,0,-1,-1,2021-08-05 17:22:48,640620
3,7,39,30,4,2,0,2,2021-08-05 17:22:48,640620
-6,1,-23,-11,-4,-1,-5,-8,2021-08-05 17:22:48,640620
-2,-7,-10,2,-2,-1,1,3,2021-08-05 17:22:48,640620
-5,-1,-6,-32,-5,-4,-5,-11,2021-08-05 17:22:48,640620
6,5,4,3,1,2,4,7,2021-08-05 17:22:48,640620
-2,-1,9,9,0,-1,-3,-5,2021-08-05 17:22:48,641289
3,9,23,11,0,0,-2,2,2021-08-05 17:22:48,641289
4,2,21,31,4,1,1,5,2021-08-05 17:22:48,641439
-14,-9,-57,-52,-9,-3,-8,-14,2021-08-05 17:22:48,641439
-4,-8,4,7,2,1,2,1,2021-08-05 17:22:48,672438
2,9,8,4,0,1,-1,0,2021-08-05 17:22:48,687530
0,-5,11,7,-1,-3,-1,-2,2021-08-05 17:22:48,687530
1,1,-14,-19,2,-1,0,-1,2021-08-05 17:22:48,687530
-1,-1,4,2,1,-2,-1,-2,2021-08-05 17:22:48,687530
-7,-12,-14,-2,-3,-3,-1,-4,2021-08-05 17:22:48,687530
1,12,20,-4,3,1,1,4,2021-08-05 17:22:48,687530
0,-8,-14,-13,-5,-2,0,-3,2021-08-05 17:22:48,687530
6,5,12,21,5,0,0,0,2021-08-05 17:22:48,703241
0,-9,-16,-11,-2,-1,0,0,2021-08-05 17:22:48,703241
2,5,15,23,6,2,-1,1,2021-08-05 17:22:48,703438
-4,-2,2,4,-6,-4,-5,-3,2021-08-05 17:22:48,703438
3,0,-11,-5,-2,2,4,8,2021-08-05 17:22:48,734491
2,6,17,-5,-1,-2,-2,-2,2021-08-05 17:22:48,750477
-4,-3,-36,-15,-6,-4,-4,-7,2021-08-05 17:22:48,766475
-4,-11,-4,-14,-2,1,1,1,2021-08-05 17:22:48,766475
-1,7,24,19,-1,-5,-3,-1,2021-08-05 17:22:48,766475
-2,6,0,16,0,-2,-3,-4,2021-08-05 17:22:48,766475
-9,-20,-40,-49,-8,-3,-2,-5,2021-08-05 17:22:48,766475
6,6,15,20,4,1,3,7,2021-08-05 17:22:48,766475
-1,-1,4,1,0,1,-1,1,2021-08-05 17:22:48,766475
-3,-2,-2,1,-1,-2,-1,-1,2021-08-05 17:22:48,766475
1,6,26,26,1,0,-2,-3,2021-08-05 17:22:48,767474
3,-6,-28,-16,-1,2,3,4,2021-08-05 17:22:48,767474
0,-13,9,6,1,1,2,2,2021-08-05 17:22:48,798472
-2,12,6,-1,0,-2,-3,-2,2021-08-05 17:22:48,798472
3,7,23,16,3,1,2,2,2021-08-05 17:22:48,798472
-4,-11,-34,-15,-5,-2,-1,-4,2021-08-05 17:22:48,798472
-1,-3,-7,-10,-3,-2,-2,-3,2021-08-05 17:22:48,813528
3,3,29,22,5,0,3,3,2021-08-05 17:22:48,829616
-9,-10,-41,-35,-9,-4,-4,-9,2021-08-05 17:22:48,829616
4,4,12,17,5,3,2,4,2021-08-05 17:22:48,829616
2,5,0,-6,-1,0,1,3,2021-08-05 17:22:48,829616
-7,-8,-13,-11,-6,-3,-5,-10,2021-08-05 17:22:48,829616
3,4,17,30,9,3,2,6,2021-08-05 17:22:48,829616
1,2,9,4,2,-1,-1,1,2021-08-05 17:22:48,829616
0,-1,-8,-14,-3,-1,-1,-3,2021-08-05 17:22:48,845489
-1,5,9,-5,-5,-4,-3,-5,2021-08-05 17:22:48,860538
1,-6,-15,5,4,3,2,3,2021-08-05 17:22:48,860538
-2,-3,0,-4,-1,-2,0,-2,2021-08-05 17:22:48,860699
-1,2,2,5,0,0,0,1,2021-08-05 17:22:48,860844
0,-3,-5,-1,0,-2,1,0,2021-08-05 17:22:48,860933
2,5,36,27,3,-2,1,3,2021-08-05 17:22:48,875492
-10,-4,-8,-11,-6,-4,-6,-15,2021-08-05 17:22:48,875492
-1,-1,-21,-1,0,4,3,4,2021-08-05 17:22:48,875492
0,-9,-32,-37,-4,-3,-2,-3,2021-08-05 17:22:48,875492
1,0,2,-2,-2,-1,-1,2,2021-08-05 17:22:48,890546
-2,6,35,20,0,-3,-2,-1,2021-08-05 17:22:48,890546
3,2,19,25,5,3,2,1,2021-08-05 17:22:48,905488
-2,-6,-28,-32,-6,0,0,0,2021-08-05 17:22:48,921491
-3,1,-4,8,1,-1,-3,-2,2021-08-05 17:22:48,937533
-2,1,1,-7,-7,-7,-3,-4,2021-08-05 17:22:48,937533
-7,-13,-34,-40,-12,-4,-6,-10,2021-08-05 17:22:48,937816
6,1,7,8,6,4,5,9,2021-08-05 17:22:48,937876
-3,0,11,7,0,-2,-1,0,2021-08-05 17:22:48,937876
0,4,27,30,2,-1,1,2,2021-08-05 17:22:48,937876
-4,-1,-10,-9,-3,-3,-3,-7,2021-08-05 17:22:48,937876
2,-3,0,-3,-1,2,2,2,2021-08-05 17:22:48,937876
1,-5,-14,-5,-8,-1,-2,1,2021-08-05 17:22:48,953549
-5,-6,-11,-17,-3,-1,-2,-3,2021-08-05 17:22:48,953549
1,3,6,15,5,0,0,3,2021-08-05 17:22:48,968545
-3,1,17,9,1,-1,-2,-4,2021-08-05 17:22:48,983664
-4,1,9,3,-3,-1,-1,-6,2021-08-05 17:22:48,999520
2,1,-20,-10,3,3,3,5,2021-08-05 17:22:48,999709
-3,-5,-6,-10,-5,-4,-2,-4,2021-08-05 17:22:49,030595
-2,-3,-4,1,-4,-3,-2,-1,2021-08-05 17:22:49,030595
0,5,5,-1,-2,-2,-3,-1,2021-08-05 17:22:49,030595
10,15,49,65,14,6,5,9,2021-08-05 17:22:49,030595
-11,-7,-59,-92,-20,-8,-7,-12,2021-08-05 17:22:49,030900
4,-4,-4,16,8,6,5,7,2021-08-05 17:22:49,030900
-6,-11,-2,-9,-8,-5,-5,-5,2021-08-05 17:22:49,030900
9,13,17,17,9,4,4,6,2021-08-05 17:22:49,030900
0,-2,14,22,4,1,-2,3,2021-08-05 17:22:49,031407
-2,-7,-12,-14,-8,-5,-5,-4,2021-08-05 17:22:49,031438
0,2,-14,-14,1,2,1,0,2021-08-05 17:22:49,031438
-3,-6,1,1,-4,-4,-6,-4,2021-08-05 17:22:49,031438
-2,-4,-5,-14,-1,0,-1,-3,2021-08-05 17:22:49,046440
0,0,2,-6,-2,-1,0,-2,2021-08-05 17:22:49,046440
0,5,19,14,2,0,1,1,2021-08-05 17:22:49,046440
-2,-10,-21,-15,-6,-3,-2,-3,2021-08-05 17:22:49,046440
0,9,11,21,0,-1,-2,-3,2021-08-05 17:22:49,076617
0,-6,-29,-22,-1,3,0,-2,2021-08-05 17:22:49,092559
2,-1,4,-3,0,-2,0,5,2021-08-05 17:22:49,108476
-1,-7,-4,-2,-1,-1,-2,-2,2021-08-05 17:22:49,123492
3,6,18,18,3,0,1,5,2021-08-05 17:22:49,123601
-2,8,23,12,0,-2,-2,-3,2021-08-05 17:22:49,123601
1,-7,-19,2,2,1,-1,-2,2021-08-05 17:22:49,123601
-7,-12,-26,-36,-13,-4,-5,-7,2021-08-05 17:22:49,123601
1,4,31,34,3,-1,2,5,2021-08-05 17:22:49,123601
-2,-5,-24,-27,-4,-1,-2,-5,2021-08-05 17:22:49,123601
-4,-3,3,9,-5,-5,-5,-5,2021-08-05 17:22:49,123601
-1,-4,-20,-53,-4,-1,2,5,2021-08-05 17:22:49,123601
7,-2,7,17,3,2,3,5,2021-08-05 17:22:49,124472
-2,1,-7,-13,-2,1,-1,-2,2021-08-05 17:22:49,124472
-2,2,30,23,0,1,0,0,2021-08-05 17:22:49,138555
-10,-6,-25,-18,-1,0,-1,-11,2021-08-05 17:22:49,138555
-2,-4,-10,-4,-3,-2,-2,-1,2021-08-05 17:22:49,138555
1,5,4,11,2,-3,-3,-5,2021-08-05 17:22:49,138555
4,0,-2,-7,-2,-2,-1,1,2021-08-05 17:22:49,138555
1,16,15,7,-5,-4,-4,-1,2021-08-05 17:22:49,138555
0,9,19,9,3,-2,-3,0,2021-08-05 17:22:49,170489
-7,-13,-24,-2,-4,1,0,-2,2021-08-05 17:22:49,170489
-1,-8,-13,-14,3,4,2,2,2021-08-05 17:22:49,170489
2,0,10,15,2,0,1,1,2021-08-05 17:22:49,170489
-2,-1,5,2,0,-1,-1,-1,2021-08-05 17:22:49,186473
2,8,18,15,0,-2,1,3,2021-08-05 17:22:49,186473
1,-3,-6,-3,-1,0,-2,-4,2021-08-05 17:22:49,186473
3,0,-4,17,5,5,4,6,2021-08-05 17:22:49,186473
6,8,-8,-25,1,3,4,5,2021-08-05 17:22:49,202562
-4,-6,0,-9,-5,-4,-4,-6,2021-08-05 17:22:49,202562
4,3,8,19,6,2,5,7,2021-08-05 17:22:49,202562
-12,-6,-16,-31,-16,-8,-9,-14,2021-08-05 17:22:49,202562
-1,2,18,15,5,3,0,1,2021-08-05 17:22:49,233472
-6,-4,-21,-14,-6,-4,-4,-5,2021-08-05 17:22:49,248543
-5,-31,0,4,1,-1,-1,-3,2021-08-05 17:22:49,248543
11,26,13,1,6,4,3,5,2021-08-05 17:22:49,248543
-4,-1,-29,-6,-5,-2,-4,-6,2021-08-05 17:22:49,248543
-1,-3,-3,-5,0,0,1,4,2021-08-05 17:22:49,248543
-2,7,16,3,-3,-5,-3,-4,2021-08-05 17:22:49,249054
-5,-10,-3,11,0,-3,0,-2,2021-08-05 17:22:49,249054
-1,-5,-4,-10,-2,-1,1,-1,2021-08-05 17:22:49,264472
3,7,18,17,3,0,-2,1,2021-08-05 17:22:49,280457
-3,-1,-19,-15,-5,-2,-3,-3,2021-08-05 17:22:49,296473
3,1,11,14,2,1,1,4,2021-08-05 17:22:49,312571
1,1,0,4,0,2,0,2,2021-08-05 17:22:49,312684
-4,-4,-1,8,0,-1,-4,-2,2021-08-05 17:22:49,312684
-2,1,-8,-13,-2,-1,0,-1,2021-08-05 17:22:49,312857
1,-1,-1,3,13,1,1,1,2021-08-05 17:22:49,312857
-6,-7,1,2,-9,-1,-2,-3,2021-08-05 17:22:49,312857
5,2,9,7,-3,-2,1,4,2021-08-05 17:22:49,312857
-4,1,-12,-11,1,3,0,-2,2021-08-05 17:22:49,312857
-4,-7,-2,3,-2,-3,-8,-2,2021-08-05 17:22:49,312857
-2,-6,0,13,16,-1,1,-4,2021-08-05 17:22:49,328462
-1,2,6,-2,24,1,-1,-2,2021-08-05 17:22:49,328462
1,6,-6,-13,-27,-12,-4,-3,2021-08-05 17:22:49,328462
-3,-2,-2,-17,-43,-47,-3,-20,2021-08-05 17:22:49,328462
4,2,8,6,-9,-5,-21,14,2021-08-05 17:22:49,356469
-2,-2,0,9,32,66,34,17,2021-08-05 17:22:49,356469
-8,-18,-6,4,29,23,8,-2,2021-08-05 17:22:49,356469
1,7,-4,2,12,12,8,4,2021-08-05 17:22:49,357472
3,5,6,-4,-12,-23,-1,-11,2021-08-05 17:22:49,375666
-2,-28,-7,5,-18,-29,-11,-1,2021-08-05 17:22:49,375666
7,36,3,1,-1,0,-1,8,2021-08-05 17:22:49,375666
-5,-9,8,8,-3,1,-1,-6,2021-08-05 17:22:49,375666
0,-4,-7,-6,-3,-3,1,0,2021-08-05 17:22:49,390474
4,17,41,30,-4,-9,-9,2,2021-08-05 17:22:49,406498
-12,-24,-47,-35,-13,-3,-2,-12,2021-08-05 17:22:49,406498
-2,-7,-13,-11,1,0,-8,1,2021-08-05 17:22:49,406498
-4,0,-4,1,6,10,4,-1,2021-08-05 17:22:49,406498
2,1,6,3,-3,-3,-2,-3,2021-08-05 17:22:49,406498
3,9,62,51,5,-8,2,5,2021-08-05 17:22:49,406498
-16,-63,-19,17,4,4,-4,-6,2021-08-05 17:22:49,406498
4,40,-74,-64,-12,5,4,-2,2021-08-05 17:22:49,436571
30,21,5,-5,-2,-2,5,12,2021-08-05 17:22:49,436725
2,14,-6,-13,-4,-7,-5,-3,2021-08-05 17:22:49,436725
-1,-10,27,25,6,8,0,4,2021-08-05 17:22:49,436725
-11,-19,29,23,4,0,-1,-8,2021-08-05 17:22:49,451543
-10,-3,-24,-19,-9,-11,-7,-9,2021-08-05 17:22:49,451543
4,-5,0,2,3,4,-1,4,2021-08-05 17:22:49,451543
0,7,2,-4,1,5,1,4,2021-08-05 17:22:49,451543
-2,-9,3,3,-2,-2,1,-2,2021-08-05 17:22:49,466439
-1,12,-4,-9,-8,-6,-2,-2,2021-08-05 17:22:49,481515
-3,-11,-4,-4,-5,-3,-3,-4,2021-08-05 17:22:49,497438
-3,7,-6,-9,-5,-3,-3,-4,2021-08-05 17:22:49,497625
11,5,4,6,20,7,9,11,2021-08-05 17:22:49,497625
-7,-12,2,3,-10,-1,-2,-5,2021-08-05 17:22:49,497625
-2,-1,-6,-6,-8,-6,-3,-3,2021-08-05 17:22:49,497625
6,15,3,-4,3,0,-2,0,2021-08-05 17:22:49,497625
-1,-6,23,19,-4,-2,-1,-2,2021-08-05 17:22:49,512472
-10,-14,-36,-37,-5,-3,-4,-7,2021-08-05 17:22:49,512665
0,5,-13,-7,1,-2,-1,-3,2021-08-05 17:22:49,512665
8,16,0,-2,0,4,1,7,2021-08-05 17:22:49,528580
-1,-4,17,17,2,-1,-2,-1,2021-08-05 17:22:49,528580
-4,-1,9,10,1,-4,-3,-3,2021-08-05 17:22:49,528580
-4,-2,-7,-10,-4,-3,-4,-2,2021-08-05 17:22:49,528580
2,1,5,5,4,0,0,2,2021-08-05 17:22:49,528580
-5,-10,-13,-13,-2,4,2,-2,2021-08-05 17:22:49,560562
-2,-2,-7,-2,-1,-4,-7,-4,2021-08-05 17:22:49,576568
-2,-2,-2,-2,-4,-1,0,0,2021-08-05 17:22:49,576633
3,5,12,7,1,0,1,2,2021-08-05 17:22:49,591436
-4,-5,0,-2,-7,-1,-1,-1,2021-08-05 17:22:49,606472
-1,4,1,1,0,-2,-1,-2,2021-08-05 17:22:49,606472
3,0,7,5,3,-1,0,3,2021-08-05 17:22:49,606472
-2,0,-6,-6,-1,2,0,-2,2021-08-05 17:22:49,606472
-3,-6,-2,-1,-4,-1,-3,-4,2021-08-05 17:22:49,606472
-4,3,-2,1,-1,0,0,-1,2021-08-05 17:22:49,606472
3,11,11,5,1,-1,-1,-3,2021-08-05 17:22:49,606472
-5,-12,-18,-8,0,2,-1,-3,2021-08-05 17:22:49,606472
3,0,5,7,3,0,-1,3,2021-08-05 17:22:49,606472
2,31,9,1,-3,-3,-2,-3,2021-08-05 17:22:49,606472
4,-4,-11,-11,-1,0,2,5,2021-08-05 17:22:49,606472
4,13,3,0,0,1,2,3,2021-08-05 17:22:49,606472
-4,-17,-1,0,-1,0,-1,-3,2021-08-05 17:22:49,622484
-4,-16,2,9,2,0,-1,0,2021-08-05 17:22:49,622484
-5,-2,-5,-3,-2,-1,-3,-4,2021-08-05 17:22:49,622484
-5,-4,-6,-9,-6,-5,-3,-7,2021-08-05 17:22:49,622484
4,5,6,3,2,2,3,4,2021-08-05 17:22:49,654472
1,-6,-4,-2,-2,-2,-1,-1,2021-08-05 17:22:49,669507
1,-5,-10,1,9,6,4,4,2021-08-05 17:22:49,680472
3,1,10,3,-5,-1,0,0,2021-08-05 17:22:49,680472
0,8,-4,-5,-4,-4,-2,-2,2021-08-05 17:22:49,681472
-1,1,-2,-3,-5,-4,-4,-1,2021-08-05 17:22:49,681472
-7,-11,-5,-5,-4,-4,-4,-5,2021-08-05 17:22:49,681472
0,3,-1,-1,3,1,2,3,2021-08-05 17:22:49,681472
-2,5,2,-1,-3,-1,0,0,2021-08-05 17:22:49,681472
-1,-6,-1,0,2,0,-2,-1,2021-08-05 17:22:49,681472
-4,-6,-3,-1,-3,-1,-1,-3,2021-08-05 17:22:49,681472
-2,-1,-5,-2,1,-1,-2,0,2021-08-05 17:22:49,681472
-3,5,7,-2,-6,-2,-4,-5,2021-08-05 17:22:49,715440
-3,-13,-4,-2,2,2,5,2,2021-08-05 17:22:49,715440
2,7,9,5,1,-2,-2,-1,2021-08-05 17:22:49,715440
-1,-1,-3,-3,-3,0,0,-1,2021-08-05 17:22:49,715440
3,0,3,5,7,2,3,4,2021-08-05 17:22:49,730511
-4,-4,-2,-1,-5,-2,-3,-3,2021-08-05 17:22:49,746471
1,0,-2,-2,-6,-1,-2,-3,2021-08-05 17:22:49,762472
2,-13,-3,-2,-1,-2,-3,0,2021-08-05 17:22:49,762472
-3,6,-4,-1,-2,-2,-2,-3,2021-08-05 17:22:49,762765
2,3,1,-1,-1,-2,1,-2,2021-08-05 17:22:49,762905
3,5,2,5,3,3,1,5,2021-08-05 17:22:49,762905
2,1,2,3,1,2,1,4,2021-08-05 17:22:49,763224
-2,-2,-8,-7,-2,-1,0,-3,2021-08-05 17:22:49,763322
4,7,6,2,0,0,0,1,2021-08-05 17:22:49,763438
-4,-11,-5,-3,-2,-1,-2,-2,2021-08-05 17:22:49,763438
-3,-1,-4,-1,-1,-1,1,-2,2021-08-05 17:22:49,763438
-3,-1,2,1,3,-1,-2,-1,2021-08-05 17:22:49,794494
-6,-7,-5,-3,-4,-2,-2,-2,2021-08-05 17:22:49,809601
2,5,7,2,2,2,1,0,2021-08-05 17:22:49,809680
-2,-1,-7,-4,3,-2,-2,-4,2021-08-05 17:22:49,809845
4,-1,0,-2,-6,2,1,2,2021-08-05 17:22:49,809898
1,-2,4,8,0,-3,-3,-1,2021-08-05 17:22:49,809898
-4,-5,-3,-7,-6,-4,-2,-3,2021-08-05 17:22:49,809898
1,8,1,0,2,2,0,-2,2021-08-05 17:22:49,809898
-1,-6,1,1,3,-1,-2,0,2021-08-05 17:22:49,839474
-2,-5,-2,-2,-2,0,-2,-2,2021-08-05 17:22:49,839578
1,3,-2,1,0,-2,1,2,2021-08-05 17:22:49,839578
-2,2,0,1,-1,-3,-1,0,2021-08-05 17:22:49,839578
-1,-2,-2,-4,-2,-4,-3,-3,2021-08-05 17:22:49,854491
-3,-18,0,-2,-2,0,-1,1,2021-08-05 17:22:49,870493
-1,13,-3,-3,-1,-1,-2,-1,2021-08-05 17:22:49,870493
2,9,12,3,-2,-1,-1,1,2021-08-05 17:22:49,870493
0,-6,-3,-2,-4,-2,-3,0,2021-08-05 17:22:49,870493
1,1,-5,-2,0,-1,0,0,2021-08-05 17:22:49,870493
0,-10,-1,-3,-1,0,-2,-2,2021-08-05 17:22:49,870493
-1,-1,-5,-1,-3,-1,0,1,2021-08-05 17:22:49,870493
-1,6,-4,-4,-1,-2,0,0,2021-08-05 17:22:49,885474
-2,-4,-2,2,0,4,4,1,2021-08-05 17:22:49,885474
-4,-2,0,5,1,1,0,-1,2021-08-05 17:22:49,885474
-2,2,-1,2,1,1,1,-5,2021-08-05 17:22:49,885474
-1,-4,3,2,-1,-4,-2,-3,2021-08-05 17:22:49,916439
-3,0,-5,-6,-7,-4,-5,-6,2021-08-05 17:22:49,932588
15,11,5,2,4,2,5,13,2021-08-05 17:22:49,948556
-3,-3,-5,-5,-6,-3,-2,-2,2021-08-05 17:22:49,963787
1,0,-4,1,0,3,2,3,2021-08-05 17:22:49,963946
-1,1,2,-1,-1,2,1,0,2021-08-05 17:22:49,963946
-3,-1,0,4,-4,-1,-6,-3,2021-08-05 17:22:49,963946
1,-2,1,-4,0,-3,-1,1,2021-08-05 17:22:49,963946
-2,-3,0,-2,-2,-2,-1,-2,2021-08-05 17:22:49,963946
-2,3,1,2,4,-1,-1,1,2021-08-05 17:22:49,964439
-5,-6,-2,-5,-3,0,0,-6,2021-08-05 17:22:49,964439
-1,-4,-4,-1,0,1,1,0,2021-08-05 17:22:49,964439
0,-1,4,-1,-1,0,-2,-2,2021-08-05 17:22:49,964439
0,-23,-5,1,0,-2,1,2,2021-08-05 17:22:49,964439
-3,17,-2,-2,0,-3,-1,-4,2021-08-05 17:22:49,964439
1,-6,2,1,-3,-2,-1,1,2021-08-05 17:22:49,964439
2,10,-5,-2,1,-1,0,-1,2021-08-05 17:22:49,995489
2,8,7,2,0,0,1,-1,2021-08-05 17:22:50,007488
3,-7,-2,0,-2,2,0,1,2021-08-05 17:22:50,007488
-2,1,2,3,0,1,0,-3,2021-08-05 17:22:50,007488
-1,-6,-1,-2,-2,1,-1,-1,2021-08-05 17:22:50,007488
0,4,-1,1,0,-2,0,0,2021-08-05 17:22:50,007488
-2,-5,-2,-3,-2,-4,-2,-6,2021-08-05 17:22:50,007488
1,1,-1,-6,-2,-1,-1,1,2021-08-05 17:22:50,008473
-2,-4,-1,3,4,1,2,0,2021-08-05 17:22:50,040538
-3,2,1,-2,0,-1,-4,-4,2021-08-05 17:22:50,040538
-3,-3,0,0,-3,-2,0,0,2021-08-05 17:22:50,040538
1,-2,-2,1,-1,-2,-1,0,2021-08-05 17:22:50,040538
-2,-1,-1,-4,-2,-1,-1,-3,2021-08-05 17:22:50,055526
1,5,-4,0,-1,2,2,2,2021-08-05 17:22:50,055781
-2,-4,0,-2,-4,-4,-3,-4,2021-08-05 17:22:50,055781
-3,-6,-6,-5,-1,-3,-2,-3,2021-08-05 17:22:50,055781
3,2,5,7,5,3,4,6,2021-08-05 17:22:50,071646
-1,6,2,0,-2,-2,-3,-1,2021-08-05 17:22:50,071646
-2,-5,-5,-1,1,1,-1,0,2021-08-05 17:22:50,071646
-2,3,2,-1,-2,-1,-2,-1,2021-08-05 17:22:50,071646
-1,-2,-3,-4,-3,-1,-3,-3,2021-08-05 17:22:50,102613
-2,0,-1,-2,0,0,-2,-2,2021-08-05 17:22:50,117621
-3,-25,-5,-4,-1,0,0,0,2021-08-05 17:22:50,133527
4,25,4,3,-1,1,1,1,2021-08-05 17:22:50,148510
0,1,2,0,-1,-3,-3,-1,2021-08-05 17:22:50,148510
-1,-2,0,-4,-2,-2,-2,-1,2021-08-05 17:22:50,148510
0,-1,-1,-1,-2,-2,-1,-3,2021-08-05 17:22:50,148510
-8,-4,-6,-2,-2,1,0,-3,2021-08-05 17:22:50,149009
1,3,-2,3,1,3,0,1,2021-08-05 17:22:50,149009
-2,3,2,0,-4,-1,1,-2,2021-08-05 17:22:50,149009
1,4,1,0,3,1,-1,1,2021-08-05 17:22:50,149009
0,-7,1,0,3,0,-1,3,2021-08-05 17:22:50,149009
-6,0,-6,-5,-4,-5,-4,-6,2021-08-05 17:22:50,149613
1,1,-1,2,2,2,1,2,2021-08-05 17:22:50,149613
1,1,0,-3,-2,-1,-1,2,2021-08-05 17:22:50,149613
0,-5,-4,0,-1,-1,1,-2,2021-08-05 17:22:50,149613
-1,-6,-3,-3,-2,-2,-3,0,2021-08-05 17:22:50,179506
-2,-3,-1,-2,-2,-2,0,-2,2021-08-05 17:22:50,195569
0,4,-1,-3,-4,-1,1,1,2021-08-05 17:22:50,195569
-1,-2,-1,1,-1,-1,-1,-2,2021-08-05 17:22:50,195569
-1,-4,0,1,-1,-1,-1,0,2021-08-05 17:22:50,195569
0,-3,-3,-3,-1,-1,0,1,2021-08-05 17:22:50,195569
0,0,-2,0,4,0,0,0,2021-08-05 17:22:50,195569
-1,-3,-1,-3,-1,-2,0,-3,2021-08-05 17:22:50,195569
3,2,2,3,2,2,0,1,2021-08-05 17:22:50,210583
0,3,-3,-1,1,-1,-1,-1,2021-08-05 17:22:50,210583
-2,-1,-1,0,0,0,0,1,2021-08-05 17:22:50,210583
-3,-2,1,-3,-4,-3,-3,-3,2021-08-05 17:22:50,210953
-2,-4,0,2,-1,1,1,-1,2021-08-05 17:22:50,241649
-2,-3,-1,-2,-2,-2,-2,0,2021-08-05 17:22:50,257696
-1,0,0,-1,1,-2,-2,0,2021-08-05 17:22:50,273512
0,-1,1,-1,-1,-2,-2,-1,2021-08-05 17:22:50,273512
-1,-1,-1,-4,-1,-1,0,0,2021-08-05 17:22:50,273512
-3,-2,-3,-4,-4,-2,-1,-1,2021-08-05 17:22:50,273512
-3,-2,1,-1,-6,-2,-4,-5,2021-08-05 17:22:50,273512
3,1,-3,1,4,4,2,5,2021-08-05 17:22:50,273512
-2,-2,-1,0,-1,-3,-4,-3,2021-08-05 17:22:50,273512
2,4,0,3,1,1,0,0,2021-08-05 17:22:50,273512
3,1,1,1,1,-1,2,4,2021-08-05 17:22:50,273512
0,-2,-1,0,-2,-2,-2,-2,2021-08-05 17:22:50,273512
1,-3,-5,-3,-2,-3,0,-1,2021-08-05 17:22:50,303587
2,-1,0,2,4,2,2,1,2021-08-05 17:22:50,318480
-1,6,-3,-3,-2,-1,0,-2,2021-08-05 17:22:50,328511
-2,-7,-4,-1,1,1,-2,-3,2021-08-05 17:22:50,328511
-1,-11,3,-1,-3,0,-1,1,2021-08-05 17:22:50,328511
2,18,1,2,0,-2,-2,0,2021-08-05 17:22:50,328511
1,0,3,2,0,-2,-2,-3,2021-08-05 17:22:50,328511
-3,-3,-5,-5,-3,0,-2,-1,2021-08-05 17:22:50,328511
-4,-8,-3,-1,0,1,-1,-3,2021-08-05 17:22:50,328511
3,-3,3,2,2,0,0,4,2021-08-05 17:22:50,328511
-4,-3,-4,-5,-3,-2,-3,-2,2021-08-05 17:22:50,329511
0,2,3,0,-2,0,-1,0,2021-08-05 17:22:50,329511
-2,4,0,-1,-4,-2,-2,-1,2021-08-05 17:22:50,349511
0,-5,-2,0,2,0,3,3,2021-08-05 17:22:50,349511
-1,2,1,4,2,0,1,-1,2021-08-05 17:22:50,349511
-3,-7,-2,1,-1,-2,1,-1,2021-08-05 17:22:50,349511
-3,1,-2,-7,-5,-1,-2,-3,2021-08-05 17:22:50,381627
2,5,1,1,0,2,1,-1,2021-08-05 17:22:50,396527
3,-3,-1,-5,-3,-1,-1,0,2021-08-05 17:22:50,412626
-3,-2,-4,0,-2,-3,-2,-1,2021-08-05 17:22:50,428448
-1,4,2,1,3,-2,-3,1,2021-08-05 17:22:50,428475
-1,-3,-1,-1,-1,-1,-2,-2,2021-08-05 17:22:50,428475
-1,-1,-1,-1,-1,1,-1,0,2021-08-05 17:22:50,428475
1,-2,-1,-2,1,0,0,-2,2021-08-05 17:22:50,428746
1,2,-1,0,-2,-3,2,0,2021-08-05 17:22:50,428746
-2,-5,-1,-3,-2,-3,0,-2,2021-08-05 17:22:50,428746
0,-1,0,0,0,1,-1,0,2021-08-05 17:22:50,428746
-5,-3,3,-1,-3,-3,-3,-5,2021-08-05 17:22:50,428746
-3,-2,-1,0,-1,-1,0,-4,2021-08-05 17:22:50,428746
-4,-4,-6,-4,-3,-4,-3,-2,2021-08-05 17:22:50,428746
-4,-3,-2,0,0,1,1,-3,2021-08-05 17:22:50,428746
-1,3,-2,-2,-1,-2,-1,0,2021-08-05 17:22:50,428746
3,4,1,1,1,2,2,1,2021-08-05 17:22:50,459530
0,-3,-5,-4,-5,-2,-4,-2,2021-08-05 17:22:50,475530
-2,-5,-2,0,0,0,0,-1,2021-08-05 17:22:50,491511
4,1,-1,1,2,0,0,2,2021-08-05 17:22:50,491511
0,-2,0,0,1,0,0,0,2021-08-05 17:22:50,491511
-3,-6,-3,-3,-4,-3,-3,-5,2021-08-05 17:22:50,491511
-1,-1,-1,2,1,0,-2,1,2021-08-05 17:22:50,491511
1,0,0,0,1,1,1,0,2021-08-05 17:22:50,491511
0,1,-2,-2,-2,-2,1,3,2021-08-05 17:22:50,491511
2,2,1,2,1,0,2,3,2021-08-05 17:22:50,491511
-1,-1,-4,-4,-3,-3,-2,-3,2021-08-05 17:22:50,491511
4,1,1,-1,0,2,2,3,2021-08-05 17:22:50,492512
-3,1,0,0,-3,0,-3,-4,2021-08-05 17:22:50,522476
-2,-1,1,1,-3,0,-1,-4,2021-08-05 17:22:50,522476
0,0,-3,-1,0,1,1,0,2021-08-05 17:22:50,522476
0,-1,-1,-3,-2,-1,-2,0,2021-08-05 17:22:50,522476
0,-2,1,3,3,1,2,0,2021-08-05 17:22:50,537548
0,-3,0,0,-1,0,1,0,2021-08-05 17:22:50,537548
-7,-21,5,0,-4,-3,-2,-2,2021-08-05 17:22:50,537836
-3,9,1,1,0,-1,1,-4,2021-08-05 17:22:50,537836
1,-9,-9,-1,-1,-2,0,-1,2021-08-05 17:22:50,553598
3,0,3,-1,0,-1,-1,2,2021-08-05 17:22:50,553598
1,13,4,0,0,-1,-1,0,2021-08-05 17:22:50,553598
-4,-5,-2,-4,-4,-2,-3,-2,2021-08-05 17:22:50,553598
0,2,2,0,-1,-1,0,0,2021-08-05 17:22:50,568683
-3,-8,-5,-2,-2,-2,-3,-5,2021-08-05 17:22:50,583708
-2,-1,-3,-4,-5,-1,-3,-4,2021-08-05 17:22:50,599608
0,0,7,4,2,2,2,4,2021-08-05 17:22:50,599608
1,7,-2,0,0,2,0,2,2021-08-05 17:22:50,599761
-3,-2,-4,-5,-6,-2,-2,0,2021-08-05 17:22:50,599761
-3,-2,-5,-2,-5,-3,-4,-5,2021-08-05 17:22:50,600004
-1,3,2,-1,0,-2,0,2,2021-08-05 17:22:50,600004
1,-2,1,-2,-2,-1,-1,-2,2021-08-05 17:22:50,629514
-1,2,1,1,0,0,-3,-3,2021-08-05 17:22:50,629689
2,4,-8,2,5,3,4,5,2021-08-05 17:22:50,629809
0,-3,0,1,0,-1,-2,0,2021-08-05 17:22:50,629902
-7,-5,-3,-4,-5,-7,-4,-5,2021-08-05 17:22:50,629953
-1,-4,-4,-3,-2,-1,1,0,2021-08-05 17:22:50,630042
1,4,-1,-2,-3,-2,-1,0,2021-08-05 17:22:50,630083
1,-2,-4,-1,-1,1,0,-1,2021-08-05 17:22:50,630156
1,3,2,1,1,-1,-2,-1,2021-08-05 17:22:50,647581
0,2,0,2,-2,-1,0,1,2021-08-05 17:22:50,648510
-1,-2,3,0,-1,-3,-1,-4,2021-08-05 17:22:50,661578
-4,-4,-9,-5,0,-1,0,0,2021-08-05 17:22:50,677602
-2,-1,1,1,-1,-1,-1,-2,2021-08-05 17:22:50,677602
-6,-8,1,0,0,1,1,1,2021-08-05 17:22:50,677602
4,6,1,0,1,1,1,-1,2021-08-05 17:22:50,677602
1,1,-8,-3,-5,-3,-5,-3,2021-08-05 17:22:50,677602
7,7,0,1,4,3,4,7,2021-08-05 17:22:50,693609
-2,2,3,-1,0,-2,-2,-2,2021-08-05 17:22:50,693609
-4,-3,1,-1,-1,-2,-1,0,2021-08-05 17:22:50,693609
-4,-2,2,0,0,-1,-2,-2,2021-08-05 17:22:50,693609
0,-4,-6,-3,-3,-2,-2,0,2021-08-05 17:22:50,709528
-1,5,9,3,2,1,0,0,2021-08-05 17:22:50,709528
4,13,-6,0,-1,0,4,4,2021-08-05 17:22:50,709528
-1,-12,0,-1,-3,-2,0,-3,2021-08-05 17:22:50,709528
-5,-14,-7,-1,2,2,0,-2,2021-08-05 17:22:50,725518
3,-6,0,1,5,4,3,3,2021-08-05 17:22:50,741496
0,11,6,1,1,0,-2,-2,2021-08-05 17:22:50,757548
0,4,0,-1,-3,-5,-6,-7,2021-08-05 17:22:50,773514
2,5,6,0,-4,-5,-2,0,2021-08-05 17:22:50,789573
0,-3,-5,-3,-3,-6,-5,-1,2021-08-05 17:22:50,789573
0,-9,-1,1,0,0,0,0,2021-08-05 17:22:50,789573
-4,-2,-2,-3,-3,-2,0,0,2021-08-05 17:22:50,789871
-5,-28,5,-3,-3,-1,0,-2,2021-08-05 17:22:50,789871
0,1,-9,2,3,4,2,2,2021-08-05 17:22:50,789871
-1,-1,-5,-4,-4,-5,-2,-2,2021-08-05 17:22:50,789871
-4,-4,0,-3,-3,-3,-4,-2,2021-08-05 17:22:50,789871
5,15,-1,-2,2,1,1,1,2021-08-05 17:22:50,789871
-3,-1,-4,-3,-4,-1,-2,-3,2021-08-05 17:22:50,790512
-1,-9,0,0,5,1,0,0,2021-08-05 17:22:50,790512
0,5,3,2,2,0,-1,-1,2021-08-05 17:22:50,790512
-2,1,-2,-3,-1,0,0,-1,2021-08-05 17:22:50,821659
3,0,-5,1,1,1,-2,2,2021-08-05 17:22:50,837514
-3,22,-1,-2,-3,-2,-1,-2,2021-08-05 17:22:50,837514
-2,-11,6,2,1,2,2,2,2021-08-05 17:22:50,837769
-4,0,11,3,-1,-1,-1,-4,2021-08-05 17:22:50,837871
2,-7,-25,-4,0,-1,-1,-2,2021-08-05 17:22:50,837871
1,-1,-11,-7,-5,-2,0,0,2021-08-05 17:22:50,838178
-2,65,15,0,-1,-2,-2,-4,2021-08-05 17:22:50,838178
8,-80,-8,3,5,4,2,8,2021-08-05 17:22:50,853503
-1,11,3,-1,-2,1,1,2,2021-08-05 17:22:50,853503
0,18,17,0,-3,-2,-3,-2,2021-08-05 17:22:50,853503
-1,-32,-16,-3,0,1,-1,0,2021-08-05 17:22:50,853503
-8,18,-13,-3,-5,-3,-4,-6,2021-08-05 17:22:50,869620
-2,-16,6,-3,-3,-4,-4,-4,2021-08-05 17:22:50,869620
2,-6,-1,-1,1,-2,1,2,2021-08-05 17:22:50,869620
5,7,8,2,2,1,2,1,2021-08-05 17:22:50,869620
-2,14,4,2,1,1,0,-1,2021-08-05 17:22:50,900513
-8,-3,-2,-6,-5,-6,-4,-4,2021-08-05 17:22:50,916677
2,0,-1,2,2,2,1,3,2021-08-05 17:22:50,932649
3,-13,-1,4,2,2,1,3,2021-08-05 17:22:50,932649
0,7,-7,0,2,0,-1,-4,2021-08-05 17:22:50,932649
0,11,5,1,-2,-1,0,-3,2021-08-05 17:22:50,932649
-5,-14,-1,1,1,0,0,-2,2021-08-05 17:22:50,932649
0,-20,-6,0,3,-1,2,0,2021-08-05 17:22:50,932649
-1,8,-5,-4,-1,-1,1,1,2021-08-05 17:22:50,932649
2,8,8,-2,-5,-5,-4,-3,2021-08-05 17:22:50,932649
-1,20,8,-1,-3,-2,-3,-2,2021-08-05 17:22:50,933510
3,-23,8,5,6,3,1,0,2021-08-05 17:22:50,933510
-6,-29,-32,-5,-3,-4,-3,1,2021-08-05 17:22:50,963559
5,4,6,-3,0,-1,1,2,2021-08-05 17:22:50,963830
-2,-15,-11,-4,-1,-1,-1,-4,2021-08-05 17:22:50,963830
-2,19,8,-1,-4,-4,-3,-2,2021-08-05 17:22:50,963830
-5,19,14,-2,-5,-5,-3,-4,2021-08-05 17:22:50,963830
2,-20,-13,4,4,4,4,5,2021-08-05 17:22:50,963830
-2,-4,3,1,0,-1,-1,-2,2021-08-05 17:22:50,971558
-1,4,-5,-6,-4,1,-1,1,2021-08-05 17:22:50,971558
-2,3,10,1,-1,-2,-2,-2,2021-08-05 17:22:50,994625
-4,76,8,-5,-6,-6,-3,-2,2021-08-05 17:22:51,010559
-1,-83,-13,5,6,3,3,3,2021-08-05 17:22:51,010559
1,4,-21,-3,-1,0,1,-2,2021-08-05 17:22:51,010559
-4,-12,-3,-9,-9,-8,-7,-7,2021-08-05 17:22:51,010915
3,-7,-1,6,5,6,3,1,2021-08-05 17:22:51,010939
1,57,44,5,1,1,1,0,2021-08-05 17:22:51,011065
-6,-36,-24,-4,-4,-3,-3,-4,2021-08-05 17:22:51,011065
2,-5,-31,-6,0,2,2,5,2021-08-05 17:22:51,041559
-1,-8,7,-5,-3,-4,-3,-3,2021-08-05 17:22:51,057665
-4,-12,-7,-3,-2,-3,-5,-4,2021-08-05 17:22:51,057797
1,8,11,-1,0,2,1,4,2021-08-05 17:22:51,057797
2,28,15,2,1,0,2,1,2021-08-05 17:22:51,057797
-5,-22,-7,-3,-4,-3,-2,-2,2021-08-05 17:22:51,057797
1,7,-1,-1,-3,-1,0,0,2021-08-05 17:22:51,072564
-6,-10,-3,-4,-3,-3,-4,-4,2021-08-05 17:22:51,087664
5,6,10,9,5,4,2,5,2021-08-05 17:22:51,087664
-3,-35,-14,-2,-1,-1,-1,-3,2021-08-05 17:22:51,087796
3,8,-4,-2,-2,-2,-1,2,2021-08-05 17:22:51,087885
1,10,2,-3,-2,-2,-2,-4,2021-08-05 17:22:51,087885
-2,-5,9,-1,-1,-1,-2,-2,2021-08-05 17:22:51,087885
-5,11,0,3,0,-1,-2,-1,2021-08-05 17:22:51,087885
-4,1,-7,-3,-5,-3,-5,-6,2021-08-05 17:22:51,102639
0,-13,-15,-3,-4,-1,-3,-1,2021-08-05 17:22:51,102783
8,9,11,6,6,7,6,7,2021-08-05 17:22:51,103120
0,23,13,-1,-3,-4,-3,-3,2021-08-05 17:22:51,103120
-6,-40,-20,-4,-2,-3,0,-2,2021-08-05 17:22:51,118560
4,-1,7,5,7,4,6,6,2021-08-05 17:22:51,118560
-5,9,5,-4,-2,-3,-1,-5,2021-08-05 17:22:51,134685
-1,-30,-23,-3,1,0,0,-3,2021-08-05 17:22:51,134759
-1,-1,-4,-2,-3,-3,-4,-1,2021-08-05 17:22:51,134881
-2,9,7,-1,-3,-3,-2,0,2021-08-05 17:22:51,134925
-2,20,1,-2,-2,-3,-2,-4,2021-08-05 17:22:51,164657
-5,-12,8,-1,-1,-2,-1,-3,2021-08-05 17:22:51,164657
0,4,-2,-1,3,1,2,2,2021-08-05 17:22:51,164952
1,8,-2,1,-2,-1,0,-3,2021-08-05 17:22:51,165078
0,9,6,-3,0,0,-1,-2,2021-08-05 17:22:51,165188
1,-27,-3,4,-1,1,0,4,2021-08-05 17:22:51,165293
-4,-15,-19,-5,0,1,-1,-2,2021-08-05 17:22:51,196658
-1,25,12,0,2,-1,-2,-2,2021-08-05 17:22:51,196658
-6,-25,-5,-1,-1,-1,-1,-5,2021-08-05 17:22:51,196658
3,14,-5,-1,0,1,2,2,2021-08-05 17:22:51,196658
1,19,13,-3,-2,-2,-1,-3,2021-08-05 17:22:51,196658
-1,-37,-6,-3,-2,-2,-2,1,2021-08-05 17:22:51,196658
-2,0,-8,-2,0,-1,-3,-4,2021-08-05 17:22:51,212559
-5,-2,1,-1,-1,-1,-2,-1,2021-08-05 17:22:51,227576
4,12,-3,3,1,2,2,3,2021-08-05 17:22:51,243382
3,25,15,3,0,2,3,4,2021-08-05 17:22:51,258464
4,-22,5,1,-2,-1,-1,0,2021-08-05 17:22:51,273446
-5,-18,-36,-4,1,1,3,2,2021-08-05 17:22:51,273446
-8,-6,2,-6,-8,-8,-7,-7,2021-08-05 17:22:51,273446
2,-1,-2,-2,-2,-4,-3,-3,2021-08-05 17:22:51,273446
4,17,9,3,2,5,3,5,2021-08-05 17:22:51,273446
5,6,10,3,2,3,0,0,2021-08-05 17:22:51,273446
-1,-2,-1,1,-1,0,-1,1,2021-08-05 17:22:51,273446
-5,-2,-8,-4,-4,-4,-2,-5,2021-08-05 17:22:51,273446
4,5,3,0,1,2,2,5,2021-08-05 17:22:51,273446
-1,31,7,-1,-1,-1,-2,-2,2021-08-05 17:22:51,274413
3,-13,10,1,-1,0,1,2,2021-08-05 17:22:51,274413
1,84,15,6,6,2,2,1,2021-08-05 17:22:51,274413
-8,-111,-38,-5,-3,-4,-1,-4,2021-08-05 17:22:51,288437
-1,24,-11,-6,-4,-3,-3,-3,2021-08-05 17:22:51,288650
1,70,27,-1,-4,-4,-4,-4,2021-08-05 17:22:51,293411
-2,-33,-13,-3,-1,1,-2,-1,2021-08-05 17:22:51,303453
4,33,-6,1,1,2,3,3,2021-08-05 17:22:51,318483
-5,-12,25,-5,-8,-5,-3,-5,2021-08-05 17:22:51,333465
-5,-70,-36,0,6,5,5,3,2021-08-05 17:22:51,333465
-2,42,20,-1,-4,-4,-4,-3,2021-08-05 17:22:51,333465
2,-38,15,3,1,-2,-2,-2,2021-08-05 17:22:51,333465
7,-27,-48,2,5,3,2,4,2021-08-05 17:22:51,333465
-21,13,0,-10,-11,-7,-6,-5,2021-08-05 17:22:51,333465
-4,-36,-6,-3,-2,-2,-1,-1,2021-08-05 17:22:51,333465
0,50,7,3,0,0,-2,-1,2021-08-05 17:22:51,348503
5,-1,27,3,0,-1,-3,0,2021-08-05 17:22:51,348503
8,-16,-6,2,3,1,4,3,2021-08-05 17:22:51,379446
-4,-15,-16,-3,-1,-2,-1,-2,2021-08-05 17:22:51,395464
-7,22,7,-4,-4,-3,-3,-4,2021-08-05 17:22:51,411469
1,0,0,1,1,1,3,2,2021-08-05 17:22:51,426975
1,-4,-5,1,0,2,1,3,2021-08-05 17:22:51,426975
-1,-6,1,0,-2,-2,0,0,2021-08-05 17:22:51,427308
-5,4,-3,-5,-5,-6,-4,-5,2021-08-05 17:22:51,427412
-4,2,4,4,4,2,2,0,2021-08-05 17:22:51,427412
-2,-8,0,2,-1,-1,-2,-5,2021-08-05 17:22:51,427568
4,13,6,0,0,0,0,1,2021-08-05 17:22:51,427568
-4,-10,-16,-5,-5,-5,-4,-3,2021-08-05 17:22:51,427568
-5,-36,-10,-1,-1,-1,0,-2,2021-08-05 17:22:51,427568
-2,-3,11,-3,-5,-3,-4,-2,2021-08-05 17:22:51,427568
4,11,-5,0,-1,-1,-3,-4,2021-08-05 17:22:51,427568
2,-12,-12,-4,0,1,3,1,2021-08-05 17:22:51,427568
-1,49,21,-2,-3,-3,-2,-2,2021-08-05 17:22:51,427568
6,23,7,4,4,1,0,-2,2021-08-05 17:22:51,427568
0,-80,-19,2,0,4,4,6,2021-08-05 17:22:51,427568
-7,39,12,-4,-4,-3,-3,-1,2021-08-05 17:22:51,473521
1,16,1,1,1,0,0,-3,2021-08-05 17:22:51,473521
10,-13,-16,0,1,1,3,2,2021-08-05 17:22:51,473521
1,7,0,-5,-5,-4,-3,-2,2021-08-05 17:22:51,473767
-20,-16,-4,1,1,1,-2,-4,2021-08-05 17:22:51,473767
1,-7,3,-1,-4,-4,-2,-1,2021-08-05 17:22:51,473767
1,41,19,3,2,1,0,-1,2021-08-05 17:22:51,473767
8,-48,-17,4,5,4,3,6,2021-08-05 17:22:51,473767
4,6,-3,-2,-3,-1,-2,0,2021-08-05 17:22:51,504446
-9,-6,1,-1,-1,-2,-3,-2,2021-08-05 17:22:51,504446
0,1,-16,-3,-1,0,-1,2,2021-08-05 17:22:51,504446
-3,16,10,0,-1,-1,-1,0,2021-08-05 17:22:51,504446
2,37,14,3,-3,-4,-2,-2,2021-08-05 17:22:51,520473
13,10,37,7,4,5,3,6,2021-08-05 17:22:51,520473
-10,-45,-36,-6,-3,-2,-2,-3,2021-08-05 17:22:51,520473
0,-62,-33,-7,-3,-1,-2,-3,2021-08-05 17:22:51,520473
-15,1,6,-5,-6,-7,-6,-5,2021-08-05 17:22:51,536530
2,12,-2,-3,-5,-3,-4,-4,2021-08-05 17:22:51,551520
6,41,37,6,3,0,2,4,2021-08-05 17:22:51,566582
0,5,-9,1,0,0,0,0,2021-08-05 17:22:51,566582
8,-10,-24,-3,3,3,1,0,2021-08-05 17:22:51,566582
-3,33,10,1,-4,-2,-1,-3,2021-08-05 17:22:51,566582
-3,-53,-6,1,-3,2,3,1,2021-08-05 17:22:51,566582
-5,51,12,-7,-3,-4,-2,-5,2021-08-05 17:22:51,566582
-3,-49,-3,0,-2,2,3,1,2021-08-05 17:22:51,582571
-6,10,-4,-5,-2,-3,-4,-3,2021-08-05 17:22:51,598491
4,-12,-9,1,4,3,2,1,2021-08-05 17:22:51,614489
1,49,18,7,2,3,0,-2,2021-08-05 17:22:51,614489
8,-17,-1,1,2,-1,0,2,2021-08-05 17:22:51,614489
-3,-32,-8,-4,-6,-5,-5,-6,2021-08-05 17:22:51,614489
8,52,1,-4,-2,-3,-2,3,2021-08-05 17:22:51,614489
-5,-40,6,-5,-7,-7,-5,-5,2021-08-05 17:22:51,614489
2,34,4,3,2,3,2,3,2021-08-05 17:22:51,614489
-4,-64,-32,-1,3,4,4,2,2021-08-05 17:22:51,614489
-5,48,42,-1,-4,-3,-4,-3,2021-08-05 17:22:51,614489
-5,-70,-36,1,3,0,2,0,2021-08-05 17:22:51,615449
5,57,-11,-1,4,3,3,2,2021-08-05 17:22:51,644548
-5,-97,-24,-10,-5,-4,-4,-4,2021-08-05 17:22:51,660559
-2,18,-12,-5,-2,-2,-2,-3,2021-08-05 17:22:51,660559
-1,20,40,1,-3,-2,-3,-1,2021-08-05 17:22:51,660559
19,18,5,4,0,-1,1,0,2021-08-05 17:22:51,675449
-26,22,-3,0,2,3,2,2,2021-08-05 17:22:51,691448
1,-15,-2,5,3,1,-1,-1,2021-08-05 17:22:51,691647
-4,11,6,2,1,1,0,0,2021-08-05 17:22:51,691647
6,-16,-5,-7,-7,-6,-4,-3,2021-08-05 17:22:51,691647
10,27,8,8,6,5,5,4,2021-08-05 17:22:51,691647
-9,-24,-1,-4,-6,-4,-3,-5,2021-08-05 17:22:51,691647
4,16,-18,0,4,5,4,6,2021-08-05 17:22:51,691647
-5,2,12,2,1,1,-1,-3,2021-08-05 17:22:51,692139
3,70,44,4,2,0,1,1,2021-08-05 17:22:51,692139
-8,-83,-41,-1,-2,0,1,1,2021-08-05 17:22:51,723553
0,-11,-23,-10,-3,-3,-3,-4,2021-08-05 17:22:51,723553
-4,9,12,-7,-9,-8,-6,-5,2021-08-05 17:22:51,723553
3,21,1,0,2,0,-1,1,2021-08-05 17:22:51,723553
4,14,11,4,3,1,1,1,2021-08-05 17:22:51,755450
3,62,51,7,1,-1,2,6,2021-08-05 17:22:51,771412
-1,-112,-59,0,5,7,3,1,2021-08-05 17:22:51,786412
-3,61,-13,-10,-5,-5,-4,-4,2021-08-05 17:22:51,786672
-6,-43,6,-10,-13,-11,-8,-9,2021-08-05 17:22:51,786672
9,-3,3,5,6,3,3,1,2021-08-05 17:22:51,786672
-13,37,32,6,5,1,1,1,2021-08-05 17:22:51,786672
10,-48,-28,-3,-2,0,0,1,2021-08-05 17:22:51,786672
4,45,4,2,2,3,1,1,2021-08-05 17:22:51,786672
-1,18,15,3,-3,-3,-2,-1,2021-08-05 17:22:51,786672
-14,-48,-12,-4,-5,-4,-1,-4,2021-08-05 17:22:51,787410
15,-29,-24,-5,1,1,2,-1,2021-08-05 17:22:51,787410
-26,25,10,-6,-6,-5,-4,-9,2021-08-05 17:22:51,787629
7,8,-3,-2,-2,-1,-4,-4,2021-08-05 17:22:51,787629
7,15,7,0,1,1,-1,2,2021-08-05 17:22:51,802508
-2,-13,1,1,-1,0,-1,-1,2021-08-05 17:22:51,802508
2,-7,7,-2,-2,-1,-3,-3,2021-08-05 17:22:51,802710
-3,25,-11,0,3,3,2,2,2021-08-05 17:22:51,802710
-3,-22,-3,-1,-4,-2,-3,-1,2021-08-05 17:22:51,833446
3,39,20,5,2,1,0,3,2021-08-05 17:22:51,848451
-3,-56,-28,2,2,1,2,0,2021-08-05 17:22:51,864511
-10,4,-4,-9,-9,-6,-4,-6,2021-08-05 17:22:51,864511
5,16,-5,-6,-1,-4,-2,-1,2021-08-05 17:22:51,864511
0,-2,22,1,-3,-3,-1,1,2021-08-05 17:22:51,864511
4,23,-19,1,4,1,4,3,2021-08-05 17:22:51,864511
-5,-59,-21,-7,-4,-3,-3,-3,2021-08-05 17:22:51,865063
-5,6,5,2,0,2,2,0,2021-08-05 17:22:51,865063
-5,2,10,-3,-3,-2,-4,-4,2021-08-05 17:22:51,880485
6,24,-1,0,1,2,1,1,2021-08-05 17:22:51,880748
4,-19,16,1,-3,-3,-3,-2,2021-08-05 17:22:51,880748
1,2,5,1,-2,0,0,1,2021-08-05 17:22:51,880931
-14,-46,-37,1,2,-1,-1,-2,2021-08-05 17:22:51,880931
5,-9,1,-3,-4,-4,-4,-6,2021-08-05 17:22:51,880931
-4,45,9,1,-2,0,1,0,2021-08-05 17:22:51,896039
-1,10,11,1,-3,-3,-3,-3,2021-08-05 17:22:51,896039
-2,-53,-11,-1,0,1,4,2,2021-08-05 17:22:51,896039
4,-9,-2,3,2,4,2,5,2021-08-05 17:22:51,912150
-1,12,-11,-4,-1,-4,-2,-3,2021-08-05 17:22:51,928009
-4,17,8,-4,-4,-4,-5,-5,2021-08-05 17:22:51,943325
6,11,6,2,-2,-1,-1,1,2021-08-05 17:22:51,948038
1,68,31,7,3,5,3,3,2021-08-05 17:22:51,948198
-3,-86,-31,-3,0,2,0,-2,2021-08-05 17:22:51,948198
-12,-2,-17,-2,0,2,1,0,2021-08-05 17:22:51,948198
2,21,14,-6,-8,-8,-8,-9,2021-08-05 17:22:51,948706
9,18,7,4,4,2,2,6,2021-08-05 17:22:51,948706
5,-13,-7,1,2,-1,-1,1,2021-08-05 17:22:51,948860
-9,35,18,2,1,0,1,0,2021-08-05 17:22:51,959050
-3,-48,-23,-2,-5,-3,-3,-4,2021-08-05 17:22:51,959194
-4,-47,-35,-12,-7,-7,-4,-6,2021-08-05 17:22:51,959194
2,28,9,0,0,0,0,0,2021-08-05 17:22:51,959194
11,-11,-1,6,6,4,2,2,2021-08-05 17:22:51,990113
-5,83,33,7,4,3,1,2,2021-08-05 17:22:51,990113
-2,-22,0,1,0,-1,-2,-3,2021-08-05 17:22:51,990113
-3,-30,-8,3,4,4,4,4,2021-08-05 17:22:51,990113
5,-27,-15,-6,-5,-2,-3,0,2021-08-05 17:22:51,990113
-1,6,-7,-3,1,0,2,-3,2021-08-05 17:22:51,990113
2,4,0,-1,-2,1,0,3,2021-08-05 17:22:51,990113
-8,12,12,1,-2,-2,-3,-6,2021-08-05 17:22:51,990113
5,26,8,2,-1,-3,0,-2,2021-08-05 17:22:52,021050
2,-3,14,1,2,1,2,3,2021-08-05 17:22:52,021301
-1,-37,-23,7,7,5,4,3,2021-08-05 17:22:52,021301
-5,5,-14,-6,-2,0,-3,-3,2021-08-05 17:22:52,021301
4,7,6,-6,-6,-4,-4,-3,2021-08-05 17:22:52,037034
-7,-48,-12,-4,-6,-6,-8,-7,2021-08-05 17:22:52,053237
3,33,14,0,1,1,1,-1,2021-08-05 17:22:52,053305
3,7,18,4,5,2,3,4,2021-08-05 17:22:52,053388
-1,-47,-33,1,4,3,3,0,2021-08-05 17:22:52,053388
-9,53,13,-5,-7,-5,-2,-2,2021-08-05 17:22:52,053388
2,-47,7,-1,-1,-4,-2,0,2021-08-05 17:22:52,053388
-2,35,11,1,-3,-2,-2,-2,2021-08-05 17:22:52,053388
3,-4,-25,-3,0,1,1,0,2021-08-05 17:22:52,085177
-4,-37,1,-2,-2,0,-2,2,2021-08-05 17:22:52,101091
-1,29,-1,-1,-2,-2,-4,-4,2021-08-05 17:22:52,117447
3,10,23,-1,-4,-2,-3,0,2021-08-05 17:22:52,117447
-4,-5,-7,2,3,2,1,1,2021-08-05 17:22:52,117671
12,-8,-25,-5,0,0,-1,-2,2021-08-05 17:22:52,117671
-20,-4,8,-2,-2,-1,1,-1,2021-08-05 17:22:52,117671
-1,7,9,-3,-4,-6,-4,-4,2021-08-05 17:22:52,117671
-4,-18,1,-3,-4,-2,0,-3,2021-08-05 17:22:52,117671
12,-7,-12,1,0,-1,0,0,2021-08-05 17:22:52,117671
2,68,16,5,3,1,0,0,2021-08-05 17:22:52,117671
-5,-47,7,4,2,2,1,1,2021-08-05 17:22:52,118092
3,14,-10,0,-3,-1,-1,-1,2021-08-05 17:22:52,148175
-9,80,1,-9,-4,0,2,1,2021-08-05 17:22:52,148175
2,-97,-2,-3,-4,-3,-4,-3,2021-08-05 17:22:52,148175
-3,19,-34,-4,-1,1,0,2,2021-08-05 17:22:52,148175
1,16,23,-5,-8,-7,-7,-6,2021-08-05 17:22:52,148175
3,6,1,1,1,0,-1,2,2021-08-05 17:22:52,148175
5,97,44,5,1,2,0,3,2021-08-05 17:22:52,163088
-7,-91,-45,-2,0,1,-2,-3,2021-08-05 17:22:52,163088
3,-7,3,2,2,1,2,4,2021-08-05 17:22:52,195092
4,47,30,6,2,1,1,-1,2021-08-05 17:22:52,195092
-10,-62,-29,-4,-3,-2,0,-3,2021-08-05 17:22:52,195092
-5,-18,-28,-13,-13,-11,-10,-12,2021-08-05 17:22:52,195092
-1,20,13,2,3,4,1,4,2021-08-05 17:22:52,195092
1,-4,10,6,4,3,2,2,2021-08-05 17:22:52,195092
0,2,5,0,-4,-3,-3,-1,2021-08-05 17:22:52,195092
4,28,14,5,10,8,4,6,2021-08-05 17:22:52,195092
7,96,36,4,-1,-2,1,-1,2021-08-05 17:22:52,211157
6,-95,-45,-1,3,3,4,6,2021-08-05 17:22:52,211157
-17,-36,-30,-9,-4,-3,-3,-2,2021-08-05 17:22:52,226092
-13,6,21,-4,-12,-8,-7,-8,2021-08-05 17:22:52,226384
15,11,-5,1,5,1,1,3,2021-08-05 17:22:52,241147
-9,-3,15,1,-2,-2,-2,-1,2021-08-05 17:22:52,256224
10,4,-5,-2,-2,-4,-2,0,2021-08-05 17:22:52,256326
4,19,0,0,1,0,-1,0,2021-08-05 17:22:52,256326
-3,-6,20,8,6,6,6,6,2021-08-05 17:22:52,272087
2,-50,-13,-4,-2,-2,-2,-1,2021-08-05 17:22:52,274055
-3,-4,-13,-2,1,-1,1,0,2021-08-05 17:22:52,275053
-2,30,6,-3,-4,-5,-3,-4,2021-08-05 17:22:52,275053
-4,26,3,0,-1,-4,-1,-1,2021-08-05 17:22:52,275053
-6,-37,0,-1,-2,0,-1,-2,2021-08-05 17:22:52,275053
-2,-17,-10,-2,0,1,0,-2,2021-08-05 17:22:52,275053
12,6,0,4,4,5,5,7,2021-08-05 17:22:52,275053
-6,-20,-11,-8,-6,-5,-5,-9,2021-08-05 17:22:52,303315
-1,37,8,-1,0,-1,0,-2,2021-08-05 17:22:52,318166
6,19,7,1,-2,-1,0,0,2021-08-05 17:22:52,318166
5,-4,-6,2,4,3,4,4,2021-08-05 17:22:52,318166
-9,-3,-9,-1,0,0,1,1,2021-08-05 17:22:52,333204
-4,8,11,2,1,0,1,-1,2021-08-05 17:22:52,348941
4,-62,-12,-2,-3,-2,-3,-5,2021-08-05 17:22:52,349053
-5,35,-20,-9,-4,-4,-4,-3,2021-08-05 17:22:52,349053
-3,-26,6,-5,-6,-5,-6,-5,2021-08-05 17:22:52,349457
-5,5,-2,1,4,3,3,0,2021-08-05 17:22:52,349533
0,36,13,2,1,-1,0,-2,2021-08-05 17:22:52,349533
5,20,14,7,4,4,4,3,2021-08-05 17:22:52,349533
-6,-82,-24,-5,-6,-6,-6,-7,2021-08-05 17:22:52,349533
4,16,-3,-4,-6,-7,-6,-4,2021-08-05 17:22:52,350079
9,52,33,2,-2,-2,-2,3,2021-08-05 17:22:52,350079
-4,-23,-28,-7,-5,-4,-3,-2,2021-08-05 17:22:52,350079
-19,-44,-7,3,7,3,3,-3,2021-08-05 17:22:52,381090
-1,-15,-3,-1,-1,0,-1,3,2021-08-05 17:22:52,381090
8,28,-11,-3,0,0,1,2,2021-08-05 17:22:52,381090
-6,-5,24,-1,-3,-4,-4,0,2021-08-05 17:22:52,381513
13,18,-14,0,6,6,5,6,2021-08-05 17:22:52,397089
-5,-5,-8,-2,-4,-4,-3,-4,2021-08-05 17:22:52,413088
0,-1,7,-1,0,1,1,-3,2021-08-05 17:22:52,428160
2,-5,9,3,4,2,2,2,2021-08-05 17:22:52,428470
4,32,-3,1,2,1,2,5,2021-08-05 17:22:52,428585
1,-43,-1,-1,0,0,-1,-2,2021-08-05 17:22:52,428697
-15,44,2,-4,-5,-5,-3,-2,2021-08-05 17:22:52,428697
-1,-52,-13,-2,-1,-4,-2,-5,2021-08-05 17:22:52,428697
-1,-6,13,1,-3,-2,-5,-4,2021-08-05 17:22:52,444185
0,25,-9,-3,-2,-4,-3,-3,2021-08-05 17:22:52,444232
1,-17,6,2,1,0,0,-1,2021-08-05 17:22:52,460055
-2,8,-6,0,-3,-1,-1,-1,2021-08-05 17:22:52,475055
3,4,3,-1,0,0,0,-1,2021-08-05 17:22:52,491212
-3,-9,-2,-3,-6,-6,-5,-6,2021-08-05 17:22:52,507128
2,-31,-18,-1,2,4,1,2,2021-08-05 17:22:52,507128
0,56,26,4,3,2,3,1,2021-08-05 17:22:52,507128
-2,-3,0,1,-3,-2,-1,-4,2021-08-05 17:22:52,507505
-5,-48,-23,0,2,1,0,0,2021-08-05 17:22:52,507505
0,77,10,-4,-8,-7,-5,-4,2021-08-05 17:22:52,507740
-2,-92,-34,-1,5,2,3,1,2021-08-05 17:22:52,507740
8,56,9,-4,-6,-4,-3,3,2021-08-05 17:22:52,507740
-2,7,30,5,2,1,0,1,2021-08-05 17:22:52,508089
4,14,-6,4,2,1,0,-2,2021-08-05 17:22:52,508089
-16,-14,-5,-3,-2,-2,-5,-3,2021-08-05 17:22:52,508089
-9,-28,-13,-7,-4,-5,-3,-5,2021-08-05 17:22:52,508089
5,53,4,3,4,3,3,6,2021-08-05 17:22:52,508089
4,-54,-1,1,-1,-1,2,5,2021-08-05 17:22:52,523235
7,41,23,3,2,3,1,-1,2021-08-05 17:22:52,523235
-6,-41,-38,1,4,2,1,0,2021-08-05 17:22:52,554108
-1,-6,6,-7,-8,-5,-3,-6,2021-08-05 17:22:52,554108
2,-15,-16,1,2,3,0,-3,2021-08-05 17:22:52,554108
-2,4,6,-3,-5,-2,-4,-3,2021-08-05 17:22:52,554411
-4,37,19,-2,-5,-3,-3,-2,2021-08-05 17:22:52,554486
2,-16,0,9,8,3,4,3,2021-08-05 17:22:52,554556
-3,49,-2,-4,-2,1,0,-1,2021-08-05 17:22:52,554556
-5,-48,2,-2,-5,-5,-4,-2,2021-08-05 17:22:52,554556
3,-64,-20,-2,0,0,0,-2,2021-08-05 17:22:52,584107
-1,23,0,-7,-7,-4,-4,-3,2021-08-05 17:22:52,584107
-7,-5,1,-6,-4,-3,-2,-3,2021-08-05 17:22:52,584107
9,65,17,4,3,3,4,5,2021-08-05 17:22:52,584107
-5,-19,10,2,-1,-1,0,-2,2021-08-05 17:22:52,595106
4,21,-8,2,4,5,5,4,2021-08-05 17:22:52,596066
-4,-64,15,-1,-2,-2,-4,-2,2021-08-05 17:22:52,596196
2,29,-25,-4,-2,-1,1,-3,2021-08-05 17:22:52,596196
-4,-27,-19,-6,-4,-3,-3,-5,2021-08-05 17:22:52,630167
-8,16,11,-2,-4,-4,-3,-5,2021-08-05 17:22:52,645089
-1,-23,-15,-4,0,0,-1,1,2021-08-05 17:22:52,676581
3,0,6,2,2,1,-2,0,2021-08-05 17:22:52,692459
-1,5,9,-2,-5,-5,-3,-4,2021-08-05 17:22:52,692618
5,9,5,3,4,6,4,4,2021-08-05 17:22:52,708390
2,54,-1,-2,-2,-3,-1,0,2021-08-05 17:22:52,724364
1,-92,-1,4,2,3,1,0,2021-08-05 17:22:52,724364
-15,15,-10,-4,-3,-1,-1,1,2021-08-05 17:22:52,724364
3,-19,-7,-4,0,1,-1,-2,2021-08-05 17:22:52,724364
2,25,11,-2,-2,-5,-3,-6,2021-08-05 17:22:52,724364
-15,-10,-22,-9,-6,-4,-4,-5,2021-08-05 17:22:52,724364
14,64,9,5,5,6,2,4,2021-08-05 17:22:52,724364
-3,-78,4,2,-2,-1,-1,1,2021-08-05 17:22:52,724364
2,-8,-1,1,3,2,2,2,2021-08-05 17:22:52,724364
0,28,-1,-5,-5,-6,-3,-4,2021-08-05 17:22:52,724364
-1,50,25,0,-3,-3,-4,-4,2021-08-05 17:22:52,725397
4,-32,-21,-1,1,2,1,4,2021-08-05 17:22:52,725397
-1,-24,-14,4,7,4,2,2,2021-08-05 17:22:52,725397
-4,10,9,-3,-6,-4,-2,-3,2021-08-05 17:22:52,725397
-3,-15,-8,-7,-6,-6,-3,-7,2021-08-05 17:22:52,725397
3,21,-2,-2,-5,-4,-3,-5,2021-08-05 17:22:52,725397
-7,1,5,-2,-2,-2,-1,-2,2021-08-05 17:22:52,725397
0,-27,12,3,2,0,3,2,2021-08-05 17:22:52,725397
6,-13,-11,4,5,6,5,5,2021-08-05 17:22:52,740480
-12,-7,-28,-8,-8,-9,-6,-6,2021-08-05 17:22:52,740480
-3,-7,10,-4,-5,-2,-3,-2,2021-08-05 17:22:52,740480
2,27,-1,2,3,4,1,0,2021-08-05 17:22:52,740480
10,-2,9,0,3,3,1,2,2021-08-05 17:22:52,772616
-6,-8,3,0,1,0,1,-3,2021-08-05 17:22:52,772616
-3,7,-4,2,2,0,0,0,2021-08-05 17:22:52,772616
7,24,15,5,1,0,2,4,2021-08-05 17:22:52,772616
4,-42,-22,-3,-3,-3,-1,0,2021-08-05 17:22:52,787470
-12,43,-1,0,0,0,0,-2,2021-08-05 17:22:52,787470
3,8,3,0,-4,-3,-1,-2,2021-08-05 17:22:52,787742
2,14,19,5,0,-1,-2,-1,2021-08-05 17:22:52,787742
-5,-63,-18,0,3,1,1,2,2021-08-05 17:22:52,803481
0,9,5,0,0,-1,-2,-2,2021-08-05 17:22:52,819419
-2,-2,-6,-4,-3,-5,-4,-5,2021-08-05 17:22:52,835397
2,64,17,-3,-4,-5,-3,-2,2021-08-05 17:22:52,835397
-7,-48,-6,0,0,0,0,-3,2021-08-05 17:22:52,835397
4,-3,-13,-2,-1,0,0,1,2021-08-05 17:22:52,835763
-2,-5,-7,-3,-3,0,0,-3,2021-08-05 17:22:52,835763
-1,-21,0,1,-1,-1,-2,-1,2021-08-05 17:22:52,835763
-9,8,0,-7,-7,-8,-6,-4,2021-08-05 17:22:52,835763
0,20,15,-1,-2,-4,-3,-5,2021-08-05 17:22:52,835763
3,-32,-16,2,3,2,5,7,2021-08-05 17:22:52,850486
-2,18,-1,-7,-4,-1,-2,-3,2021-08-05 17:22:52,850666
0,12,4,5,-1,-2,-2,-2,2021-08-05 17:22:52,850666
-1,-10,4,2,1,0,2,3,2021-08-05 17:22:52,850666
3,15,1,3,2,0,-1,2,2021-08-05 17:22:52,866488
-3,-24,-1,0,0,0,-1,-1,2021-08-05 17:22:52,882441
-2,41,10,0,0,1,1,-1,2021-08-05 17:22:52,897384
0,-64,-36,-6,-2,0,1,1,2021-08-05 17:22:52,897384
-2,30,21,-5,-7,-6,-4,-6,2021-08-05 17:22:52,897384
0,-4,-11,0,0,0,1,0,2021-08-05 17:22:52,897384
17,-13,-14,-3,0,1,-2,0,2021-08-05 17:22:52,897384
-27,37,22,2,-4,-2,-5,-3,2021-08-05 17:22:52,897384
3,-27,-8,1,2,4,1,0,2021-08-05 17:22:52,897384
-3,21,-18,-3,0,-2,-3,-4,2021-08-05 17:22:52,897384
8,-20,19,2,-2,0,0,1,2021-08-05 17:22:52,919363
7,14,-6,1,2,1,1,0,2021-08-05 17:22:52,919363
-4,-33,13,2,1,0,1,1,2021-08-05 17:22:52,919363
-4,8,-13,-3,-4,-4,-3,-1,2021-08-05 17:22:52,920363
-6,-1,6,-5,-6,-4,-4,-6,2021-08-05 17:22:52,945471
8,-3,-4,0,3,1,1,2,2021-08-05 17:22:52,961492
-7,2,-3,-2,-1,0,-1,0,2021-08-05 17:22:52,961492
2,-15,-6,-3,-4,-2,-4,-5,2021-08-05 17:22:52,976390
-5,29,9,1,1,1,1,2,2021-08-05 17:22:52,976390
5,-4,1,-1,-3,-2,-2,-2,2021-08-05 17:22:52,976390
1,1,-3,-1,0,-1,-1,-1,2021-08-05 17:22:52,976390
3,50,20,3,3,1,3,4,2021-08-05 17:22:52,976390
-2,-70,-22,4,5,5,2,4,2021-08-05 17:22:52,976390
-4,-7,-5,-2,-2,-1,-1,-5,2021-08-05 17:22:52,976390
-9,0,-28,-7,-6,-4,-4,-4,2021-08-05 17:22:52,976390
-2,-12,1,-6,-5,-5,-3,-4,2021-08-05 17:22:52,977398
2,95,37,4,0,-3,1,0,2021-08-05 17:22:53,007658
10,-32,-6,0,0,1,2,5,2021-08-05 17:22:53,023488
1,-16,-9,1,3,1,1,-2,2021-08-05 17:22:53,023625
-4,-14,-3,3,5,2,2,2,2021-08-05 17:22:53,023625
-5,17,5,-1,-1,-3,0,-3,2021-08-05 17:22:53,023625
4,37,6,-3,-3,-3,-3,-1,2021-08-05 17:22:53,024077
-8,-31,10,4,2,2,0,2,2021-08-05 17:22:53,024169
7,-55,-43,-1,0,1,2,1,2021-08-05 17:22:53,024299
-20,-7,-2,-5,-7,-5,-4,-7,2021-08-05 17:22:53,039484
4,39,26,0,-1,-2,-1,-2,2021-08-05 17:22:53,054917
9,7,0,1,0,0,2,6,2021-08-05 17:22:53,055154
-1,-17,-14,-3,-1,0,-2,-2,2021-08-05 17:22:53,055225
6,62,45,5,1,-1,-1,3,2021-08-05 17:22:53,055422
-3,-49,-45,3,5,6,4,0,2021-08-05 17:22:53,055522
-1,6,-10,-7,-3,-3,-3,-6,2021-08-05 17:22:53,070397
-4,-13,10,-4,-6,-6,-5,-6,2021-08-05 17:22:53,085400
5,10,-7,1,0,0,0,1,2021-08-05 17:22:53,100514
-4,7,27,3,-1,0,-1,-1,2021-08-05 17:22:53,100514
-2,-24,-8,1,1,0,0,0,2021-08-05 17:22:53,100514
-1,7,-6,0,1,1,1,-1,2021-08-05 17:22:53,100514
-10,-8,2,-10,-7,-6,-4,-4,2021-08-05 17:22:53,100514
6,25,-6,5,6,7,5,7,2021-08-05 17:22:53,100514
-2,-30,-7,-2,-4,0,-4,-3,2021-08-05 17:22:53,101139
-3,3,-1,-2,-5,-2,-3,-1,2021-08-05 17:22:53,101139
3,29,15,-1,-4,-4,-5,-6,2021-08-05 17:22:53,130392
4,-58,-20,-1,-2,0,1,2,2021-08-05 17:22:53,130392
-8,30,-7,-5,-5,-1,-3,-2,2021-08-05 17:22:53,130392
3,-21,-3,0,-2,0,0,0,2021-08-05 17:22:53,130799
4,37,-4,-1,2,0,2,1,2021-08-05 17:22:53,130904
-7,-16,17,-4,-6,-8,-6,-5,2021-08-05 17:22:53,130904
4,-12,0,3,2,2,2,7,2021-08-05 17:22:53,146397
0,2,-17,-3,-1,0,0,1,2021-08-05 17:22:53,162497
-3,-70,0,2,2,4,2,2,2021-08-05 17:22:53,178444
3,41,-10,-5,-2,-4,-4,-2,2021-08-05 17:22:53,178444
-18,10,6,1,3,2,1,-3,2021-08-05 17:22:53,178444
-1,-32,-3,-3,-1,-2,-2,-4,2021-08-05 17:22:53,178444
4,23,-6,-3,-3,-4,-7,-4,2021-08-05 17:22:53,178829
5,-2,29,0,-8,-9,-6,-2,2021-08-05 17:22:53,178924
7,12,4,3,3,4,4,5,2021-08-05 17:22:53,194477
2,10,-9,-2,-2,-2,1,1,2021-08-05 17:22:53,210361
-8,-29,-25,-5,0,5,3,2,2021-08-05 17:22:53,210481
-3,9,5,-5,-3,-3,-3,-6,2021-08-05 17:22:53,210641
2,70,22,4,5,0,-1,-1,2021-08-05 17:22:53,210641
-2,-60,2,6,7,5,3,4,2021-08-05 17:22:53,210641
8,17,-16,-5,0,-1,0,0,2021-08-05 17:22:53,210641
-8,-28,-14,-5,-6,-5,-6,-7,2021-08-05 17:22:53,210641
-7,-4,5,-3,-5,-2,-3,-2,2021-08-05 17:22:53,225609
3,52,18,-3,-2,-1,-2,0,2021-08-05 17:22:53,240448
2,39,-12,7,7,3,3,3,2021-08-05 17:22:53,240448
-7,-70,2,-3,-3,-1,-1,0,2021-08-05 17:22:53,240448
6,-23,-10,0,0,1,-3,-3,2021-08-05 17:22:53,240448
-2,18,9,-2,-5,-2,-1,-2,2021-08-05 17:22:53,240448
-1,2,-9,-5,-7,-4,-5,-5,2021-08-05 17:22:53,255782
0,46,31,5,6,2,1,1,2021-08-05 17:22:53,270989
1,-51,-47,0,1,-1,1,2,2021-08-05 17:22:53,270989
-5,1,3,-5,-4,-3,-1,-2,2021-08-05 17:22:53,270989
-5,-25,3,-3,-2,-2,-2,-3,2021-08-05 17:22:53,270989
8,38,7,3,3,3,3,1,2021-08-05 17:22:53,270989
3,13,7,-1,-4,-4,-2,1,2021-08-05 17:22:53,302758
-3,-13,-2,3,3,1,1,3,2021-08-05 17:22:53,317798
-9,-17,4,5,0,1,0,0,2021-08-05 17:22:53,317798
3,13,9,3,3,2,1,2,2021-08-05 17:22:53,318045
1,10,-14,-6,-5,-5,-2,-4,2021-08-05 17:22:53,318159
9,-29,-16,-3,-1,-2,-2,-1,2021-08-05 17:22:53,318230
-2,25,22,4,1,2,1,2,2021-08-05 17:22:53,318230
0,64,17,4,2,2,2,1,2021-08-05 17:22:53,318230
-13,-75,-32,-2,-4,-1,1,-3,2021-08-05 17:22:53,318555
2,21,-1,-6,-6,-1,-3,-6,2021-08-05 17:22:53,318646
6,-29,16,3,-1,0,1,2,2021-08-05 17:22:53,347717
-1,22,-28,-5,3,4,2,3,2021-08-05 17:22:53,363751
0,-12,24,2,1,-3,-3,-1,2021-08-05 17:22:53,379831
-9,3,3,1,0,-1,0,0,2021-08-05 17:22:53,379997
1,10,3,-1,-1,-3,-2,-4,2021-08-05 17:22:53,379997
-3,-14,-27,0,-2,-2,-1,-1,2021-08-05 17:22:53,380092
1,0,15,-2,-3,-1,-1,0,2021-08-05 17:22:53,380314
-3,18,-2,1,-1,-1,-2,-1,2021-08-05 17:22:53,380314
1,-35,-10,-4,-1,-1,-1,-1,2021-08-05 17:22:53,380570
-6,-14,5,-4,-8,-8,-7,-6,2021-08-05 17:22:53,380734
2,56,-5,1,5,1,1,0,2021-08-05 17:22:53,380734
2,-26,16,9,5,2,2,4,2021-08-05 17:22:53,380897
-5,-7,-7,-3,-1,-2,-2,-1,2021-08-05 17:22:53,395674
3,-21,-15,-4,-3,-1,-3,-4,2021-08-05 17:22:53,410642
-1,27,22,0,-2,-1,-1,2,2021-08-05 17:22:53,425642
-8,9,-8,-1,-1,0,0,-1,2021-08-05 17:22:53,425642
2,-70,-12,2,3,3,4,2,2021-08-05 17:22:53,425642
-6,21,-2,-4,-6,-4,-6,-7,2021-08-05 17:22:53,425642
12,12,31,0,-2,-1,-3,4,2021-08-05 17:22:53,426265
-2,-26,-27,0,1,1,-2,-2,2021-08-05 17:22:53,426265
-7,-14,-9,-5,-1,-2,-2,-4,2021-08-05 17:22:53,441769
4,25,5,2,4,2,2,2,2021-08-05 17:22:53,457776
3,59,16,-1,-4,-2,-1,-2,2021-08-05 17:22:53,457776
-1,-72,-10,-2,-1,0,1,2,2021-08-05 17:22:53,457776
-5,18,-1,0,-1,0,-1,-3,2021-08-05 17:22:53,457776
0,-17,3,-2,-2,-1,0,-1,2021-08-05 17:22:53,457776
-3,10,-9,-4,-5,-4,-3,-3,2021-08-05 17:22:53,457776
3,-13,11,2,1,1,2,3,2021-08-05 17:22:53,457776
6,18,-7,-4,-4,-3,-1,-3,2021-08-05 17:22:53,488761
-23,-18,-14,-1,2,1,1,-2,2021-08-05 17:22:53,504770
1,-24,-18,-5,-5,-5,-4,-5,2021-08-05 17:22:53,519679
9,41,15,-1,-1,-2,-1,1,2021-08-05 17:22:53,519679
-1,4,13,4,0,-1,-1,-2,2021-08-05 17:22:53,519679
2,14,-3,-2,0,0,0,3,2021-08-05 17:22:53,520046
0,-50,-13,1,3,3,0,1,2021-08-05 17:22:53,520046
-2,74,23,0,-4,-7,-4,-5,2021-08-05 17:22:53,520046
7,-41,-16,-2,1,1,1,0,2021-08-05 17:22:53,520298
-18,-14,-25,-6,-3,-2,-2,-4,2021-08-05 17:22:53,520298
-2,13,7,-6,-6,-4,-6,-8,2021-08-05 17:22:53,520298
-1,19,38,2,2,3,3,3,2021-08-05 17:22:53,520680
0,-12,-31,1,-1,-1,-2,0,2021-08-05 17:22:53,551641
10,11,-7,0,2,1,0,-1,2021-08-05 17:22:53,551641
-4,-47,6,1,2,1,2,2,2021-08-05 17:22:53,551641
-1,66,4,1,0,1,-1,-1,2021-08-05 17:22:53,551641
-2,-54,4,-7,-2,-3,-1,0,2021-08-05 17:22:53,551641
-4,-18,-4,0,-4,-2,-3,-1,2021-08-05 17:22:53,551641
3,24,-13,-1,-1,0,0,-2,2021-08-05 17:22:53,566677
-2,5,2,-2,-3,-2,-4,-4,2021-08-05 17:22:53,566677
-4,22,10,4,1,3,2,3,2021-08-05 17:22:53,582684
1,-22,9,-2,-2,-3,-2,-2,2021-08-05 17:22:53,583065
1,-14,3,9,9,6,5,6,2021-08-05 17:22:53,583211
1,-12,-21,-4,-3,-3,1,-3,2021-08-05 17:22:53,583211
-4,48,-6,-5,-5,-3,-2,-3,2021-08-05 17:22:53,598680
-3,-48,13,3,-1,-1,-2,-2,2021-08-05 17:22:53,598680
2,6,10,2,1,0,0,0,2021-08-05 17:22:53,598680
