EMG 1,EMG 2,EMG 3,EMG 4,EMG 5,EMG 6,EMG 7,EMG 8,Timestamp,Milliseconds
-5,-3,-5,-8,-13,-7,-3,-4,2021-08-07 10:33:28,469695
-2,-3,-5,-7,-1,-2,-2,-2,2021-08-07 10:33:28,484696
6,7,8,13,19,9,5,5,2021-08-07 10:33:28,500697
2,1,1,4,3,2,0,1,2021-08-07 10:33:28,516696
-2,-1,-4,-6,-3,-4,-2,-2,2021-08-07 10:33:28,532696
-3,-4,-2,-5,-11,-8,-3,-2,2021-08-07 10:33:28,532696
-6,-5,-7,-13,-17,-6,-4,-2,2021-08-07 10:33:28,532696
1,2,2,5,12,5,2,2,2021-08-07 10:33:28,532696
2,1,3,5,14,6,2,1,2021-08-07 10:33:28,532696
-1,-2,-2,-4,-10,-5,-1,-2,2021-08-07 10:33:28,532696
4,5,5,9,17,8,4,2,2021-08-07 10:33:28,532696
-4,-1,-5,-7,-13,-6,-1,-2,2021-08-07 10:33:28,547696
-3,-4,-7,-14,-9,-4,-3,-3,2021-08-07 10:33:28,547696
1,2,1,10,10,3,0,1,2021-08-07 10:33:28,547696
-1,-3,-3,-4,-9,-3,-2,-3,2021-08-07 10:33:28,547696
-3,-4,-4,-6,-4,-4,-4,-4,2021-08-07 10:33:28,547696
5,4,5,6,-1,0,3,1,2021-08-07 10:33:28,547696
0,0,-2,-5,-5,-1,-1,-2,2021-08-07 10:33:28,547696
-2,-2,-2,-3,-4,-4,0,-2,2021-08-07 10:33:28,547696
-3,-3,-2,-3,6,1,-1,-1,2021-08-07 10:33:28,548696
0,-3,1,12,7,3,1,1,2021-08-07 10:33:28,548696
0,-1,1,-1,0,1,0,3,2021-08-07 10:33:28,548696
-2,-2,-2,-4,-6,-1,-2,-2,2021-08-07 10:33:28,580697
-4,-2,-4,-4,-4,-5,-3,-5,2021-08-07 10:33:28,580697
-5,-4,-4,-5,-5,-3,-3,-4,2021-08-07 10:33:28,580697
-1,0,3,4,3,0,-1,0,2021-08-07 10:33:28,580697
2,2,1,0,0,-1,0,-1,2021-08-07 10:33:28,580697
3,2,4,-1,0,0,2,1,2021-08-07 10:33:28,580697
-1,-2,-4,-4,-7,-3,-3,0,2021-08-07 10:33:28,580697
0,-1,0,0,7,2,1,0,2021-08-07 10:33:28,580697
-3,-7,-5,-4,-1,-2,-2,-1,2021-08-07 10:33:28,596695
0,-2,0,1,7,4,1,1,2021-08-07 10:33:28,596695
4,5,5,4,1,3,2,1,2021-08-07 10:33:28,596695
-1,-1,-3,-3,-6,-3,-1,-1,2021-08-07 10:33:28,596695
-4,0,-1,-2,-6,-4,-3,-3,2021-08-07 10:33:28,612697
-6,-6,-7,-12,-9,-5,-3,-3,2021-08-07 10:33:28,612697
1,1,2,6,12,3,1,1,2021-08-07 10:33:28,628696
1,-2,-2,-2,-5,-1,-2,-1,2021-08-07 10:33:28,628696
3,4,6,5,6,2,3,1,2021-08-07 10:33:28,628696
-3,-2,-3,-4,-7,-5,-3,-2,2021-08-07 10:33:28,628696
-1,-2,-1,0,0,0,-1,-1,2021-08-07 10:33:28,660696
-3,-1,-3,-9,-8,-3,-2,-1,2021-08-07 10:33:28,676696
0,-1,1,5,3,0,0,0,2021-08-07 10:33:28,676696
3,2,2,6,3,2,0,0,2021-08-07 10:33:28,676696
0,-2,-2,-2,-4,-3,-2,-1,2021-08-07 10:33:28,676696
-3,-1,-2,0,-3,-2,0,-3,2021-08-07 10:33:28,676696
-1,-3,0,2,2,2,0,-1,2021-08-07 10:33:28,676696
-2,-1,-1,-3,-2,0,-3,-3,2021-08-07 10:33:28,692696
-2,-3,-2,2,0,0,-2,-1,2021-08-07 10:33:28,708697
2,2,0,0,-2,-1,0,1,2021-08-07 10:33:28,708697
0,2,0,-4,-1,-2,-1,0,2021-08-07 10:33:28,708697
0,-2,-2,-1,-2,-3,-1,-1,2021-08-07 10:33:28,708697
-4,-3,-7,-14,-19,-8,-2,-3,2021-08-07 10:33:28,708697
-1,-2,4,11,16,8,1,1,2021-08-07 10:33:28,708697
1,0,0,8,14,5,2,-1,2021-08-07 10:33:28,708697
-1,0,0,-1,-9,-7,-2,-2,2021-08-07 10:33:28,708697
-1,0,-3,-4,1,-1,0,-1,2021-08-07 10:33:28,724695
-3,-2,-5,-9,-12,-6,-3,-3,2021-08-07 10:33:28,724695
-1,0,-1,-3,-5,-3,0,0,2021-08-07 10:33:28,724695
-2,-2,-2,-7,0,0,-2,-2,2021-08-07 10:33:28,724695
1,1,3,5,-1,-2,-1,1,2021-08-07 10:33:28,755696
0,0,4,5,5,1,1,1,2021-08-07 10:33:28,755696
-3,-4,-3,-3,-4,-3,-3,-3,2021-08-07 10:33:28,755696
-2,-2,-4,-10,-8,-2,-1,0,2021-08-07 10:33:28,755696
1,2,1,2,9,3,2,0,2021-08-07 10:33:28,771696
0,1,0,3,2,2,-1,0,2021-08-07 10:33:28,771696
0,-1,-3,-11,-10,-5,-3,-2,2021-08-07 10:33:28,771696
-1,-1,1,11,7,2,0,0,2021-08-07 10:33:28,771696
2,0,3,5,7,3,0,-1,2021-08-07 10:33:28,787696
-1,-1,-4,-12,-11,-8,-2,-3,2021-08-07 10:33:28,787696
1,3,2,6,2,2,3,1,2021-08-07 10:33:28,787696
0,-1,-4,-10,-9,-2,0,0,2021-08-07 10:33:28,787696
0,0,4,17,30,13,2,2,2021-08-07 10:33:28,819695
-1,-1,-3,-3,-10,-6,-2,-2,2021-08-07 10:33:28,819695
-1,-2,0,1,6,1,0,1,2021-08-07 10:33:28,819695
-3,-4,-3,-8,-12,-8,-3,-1,2021-08-07 10:33:28,819695
-1,-1,-4,-5,-5,-4,-1,-1,2021-08-07 10:33:28,827696
-1,0,-2,-4,-8,-3,-2,-2,2021-08-07 10:33:28,827696
-1,0,2,3,9,3,0,0,2021-08-07 10:33:28,827696
1,1,2,10,7,3,1,0,2021-08-07 10:33:28,827696
-4,-5,-4,-16,-19,-11,-5,-3,2021-08-07 10:33:28,850695
0,0,-2,-5,-5,-4,0,-2,2021-08-07 10:33:28,850695
1,1,4,16,11,6,1,1,2021-08-07 10:33:28,850695
3,3,4,12,24,11,4,2,2021-08-07 10:33:28,850695
-1,-1,-1,-5,-17,-6,0,-2,2021-08-07 10:33:28,866696
-1,-2,-3,-2,7,2,1,0,2021-08-07 10:33:28,882698
-1,-1,-3,-4,-7,-5,-1,-1,2021-08-07 10:33:28,898695
1,1,3,13,15,5,1,0,2021-08-07 10:33:28,914695
0,0,-1,-13,-23,-9,-3,-1,2021-08-07 10:33:28,914695
0,-1,2,13,19,10,2,2,2021-08-07 10:33:28,914695
-2,-3,-2,-5,-9,-6,-3,-1,2021-08-07 10:33:28,914695
-1,0,-1,-5,-2,-2,-1,0,2021-08-07 10:33:28,914695
-3,-1,-5,-6,-4,-4,-3,-1,2021-08-07 10:33:28,930696
-3,-2,-5,-8,-9,-5,-4,-2,2021-08-07 10:33:28,930696
2,1,1,2,1,-2,-1,0,2021-08-07 10:33:28,930696
-1,-2,-2,-4,-6,-3,-2,-1,2021-08-07 10:33:28,930696
-1,-2,-2,-4,-8,-4,-3,-3,2021-08-07 10:33:28,946696
-1,0,1,1,13,4,1,0,2021-08-07 10:33:28,962697
-1,-2,1,8,15,6,1,-2,2021-08-07 10:33:28,962697
-1,-2,-3,-4,-7,-3,-2,-3,2021-08-07 10:33:28,962697
-3,-3,-4,6,3,2,0,-2,2021-08-07 10:33:28,962697
0,-2,-1,-2,-4,-2,0,-1,2021-08-07 10:33:28,962697
-1,0,-2,-9,-8,-5,-2,-2,2021-08-07 10:33:28,962697
1,2,2,3,-4,-1,0,-1,2021-08-07 10:33:28,962697
-6,-5,-6,-16,-6,-5,-2,-3,2021-08-07 10:33:28,962697
0,-1,3,15,14,6,1,1,2021-08-07 10:33:28,962697
3,4,0,-3,-6,-1,3,3,2021-08-07 10:33:28,978697
-2,-3,-7,-9,-13,-6,-3,-3,2021-08-07 10:33:28,978697
3,5,7,13,21,8,-1,1,2021-08-07 10:33:28,994696
-6,-5,-5,-4,-1,-3,-4,-3,2021-08-07 10:33:28,994696
-5,-4,-6,-18,-27,-11,-7,-6,2021-08-07 10:33:28,994696
4,5,2,2,6,5,5,4,2021-08-07 10:33:28,994696
4,3,2,14,26,11,6,3,2021-08-07 10:33:29,010695
3,0,-2,-12,-14,-2,5,4,2021-08-07 10:33:29,026696
2,1,1,10,10,3,-1,1,2021-08-07 10:33:29,041696
-5,-3,-1,-2,-1,-5,-13,-8,2021-08-07 10:33:29,041696
-7,-4,0,6,-5,-10,-9,-6,2021-08-07 10:33:29,056697
-2,0,3,1,-1,0,-1,2,2021-08-07 10:33:29,056697
-3,-6,-6,-14,-18,-8,-2,-2,2021-08-07 10:33:29,056697
3,4,3,3,7,7,9,5,2021-08-07 10:33:29,056697
2,0,1,6,6,6,5,5,2021-08-07 10:33:29,056697
-1,-1,-4,-9,-21,-10,-2,-1,2021-08-07 10:33:29,056697
0,2,4,4,19,11,2,0,2021-08-07 10:33:29,072696
-2,-2,-2,0,-4,-4,-4,-2,2021-08-07 10:33:29,088723
1,0,4,8,10,4,2,0,2021-08-07 10:33:29,102722
3,1,1,0,-5,-2,-1,-1,2021-08-07 10:33:29,102722
-3,-4,-7,-16,-23,-10,-4,-3,2021-08-07 10:33:29,102722
-4,-2,-4,-3,0,-2,-1,-1,2021-08-07 10:33:29,102722
-1,1,2,8,13,5,1,1,2021-08-07 10:33:29,102722
1,-1,-1,8,5,2,0,-1,2021-08-07 10:33:29,103723
-1,-1,-1,-1,-3,0,-3,-1,2021-08-07 10:33:29,103723
2,0,4,13,27,6,2,2,2021-08-07 10:33:29,103723
-3,-5,-10,-29,-40,-18,-6,-3,2021-08-07 10:33:29,103723
2,3,7,17,35,13,2,0,2021-08-07 10:33:29,103723
-2,-2,-2,1,-3,-4,-1,-2,2021-08-07 10:33:29,103723
-3,-5,-8,-21,-32,-12,-3,-2,2021-08-07 10:33:29,103723
1,-1,0,-3,2,3,2,1,2021-08-07 10:33:29,136723
-2,1,1,-1,1,0,-3,-1,2021-08-07 10:33:29,152723
-1,3,0,4,-1,0,1,2,2021-08-07 10:33:29,152723
0,1,3,16,14,4,-1,0,2021-08-07 10:33:29,152723
-3,-2,-6,-14,-23,-10,-5,-4,2021-08-07 10:33:29,152723
-3,-3,-7,-16,-17,-6,-2,-2,2021-08-07 10:33:29,152723
3,4,7,23,43,16,5,4,2021-08-07 10:33:29,152723
-2,-1,-1,-4,-2,-1,0,-2,2021-08-07 10:33:29,152723
-1,-2,-1,1,0,0,1,-1,2021-08-07 10:33:29,168725
1,1,3,0,-1,0,1,0,2021-08-07 10:33:29,168725
-2,-4,-4,-8,-14,-8,-4,-2,2021-08-07 10:33:29,168725
0,-2,-1,-4,-1,1,0,-1,2021-08-07 10:33:29,168725
1,1,3,7,5,3,2,0,2021-08-07 10:33:29,199724
-3,-4,-6,-8,-6,-4,-3,-3,2021-08-07 10:33:29,199724
-2,-2,-4,-9,-10,-5,-2,-2,2021-08-07 10:33:29,199724
0,-1,-1,-6,-6,-3,-2,-1,2021-08-07 10:33:29,199724
0,2,4,11,24,11,3,2,2021-08-07 10:33:29,199724
-1,-1,-3,-3,-7,-4,-3,-3,2021-08-07 10:33:29,199724
-1,-1,-1,1,3,1,0,-1,2021-08-07 10:33:29,215723
-3,-4,-5,-9,-14,-8,-4,-4,2021-08-07 10:33:29,231724
-1,-1,-3,-7,-4,-4,-4,-1,2021-08-07 10:33:29,247723
-1,2,1,3,-2,0,0,1,2021-08-07 10:33:29,247723
-1,-3,-4,-13,-15,-6,-4,-1,2021-08-07 10:33:29,247723
2,3,6,14,15,6,3,1,2021-08-07 10:33:29,247723
1,-1,-3,-2,-7,-2,0,1,2021-08-07 10:33:29,247723
-1,-1,0,0,0,0,-1,1,2021-08-07 10:33:29,247723
-2,-3,-1,0,-1,2,2,-4,2021-08-07 10:33:29,247723
-4,-5,-3,-7,-7,-3,-2,-2,2021-08-07 10:33:29,247723
-6,-3,-2,-2,-2,-3,-2,-3,2021-08-07 10:33:29,263723
-4,-3,0,-1,-4,-2,-4,-3,2021-08-07 10:33:29,263723
2,4,6,14,4,0,1,0,2021-08-07 10:33:29,279724
1,0,-2,-6,-8,-3,0,-1,2021-08-07 10:33:29,295723
2,1,-1,-5,-9,-4,1,0,2021-08-07 10:33:29,326234
0,1,0,5,18,7,1,2,2021-08-07 10:33:29,326234
-1,-1,-1,-1,-3,-2,-1,1,2021-08-07 10:33:29,326234
3,4,7,18,21,11,4,4,2021-08-07 10:33:29,326234
-1,0,-2,-6,-17,-6,-4,-2,2021-08-07 10:33:29,326234
-1,-3,-6,-19,-24,-10,-3,-3,2021-08-07 10:33:29,326234
-1,-2,-4,1,12,2,-1,-2,2021-08-07 10:33:29,326234
-1,0,1,6,1,-1,1,0,2021-08-07 10:33:29,326234
-2,-3,-3,-5,-2,-3,-3,-1,2021-08-07 10:33:29,342237
-2,-1,1,3,2,0,1,-2,2021-08-07 10:33:29,342237
-1,-1,0,-7,-6,0,0,-2,2021-08-07 10:33:29,342237
-4,-3,-4,-8,-12,-8,-5,-3,2021-08-07 10:33:29,342237
0,-2,1,5,12,4,-1,0,2021-08-07 10:33:29,342237
-2,-2,-4,-9,-6,-3,0,0,2021-08-07 10:33:29,342237
0,1,1,13,14,5,2,-1,2021-08-07 10:33:29,342237
1,1,3,10,12,6,3,-1,2021-08-07 10:33:29,342237
0,1,-3,-3,-5,-2,-2,-3,2021-08-07 10:33:29,373232
-1,-2,-4,-15,-15,-7,-4,-3,2021-08-07 10:33:29,388233
-1,-1,0,-1,-3,-2,-1,-1,2021-08-07 10:33:29,388233
-2,-4,-3,-6,-1,-2,-2,-1,2021-08-07 10:33:29,388233
2,0,1,6,6,1,1,1,2021-08-07 10:33:29,388233
-2,-1,-4,-4,-11,-6,-2,-1,2021-08-07 10:33:29,388233
-1,-2,-2,-5,2,1,-1,0,2021-08-07 10:33:29,388233
-1,0,1,-1,-6,-2,-2,0,2021-08-07 10:33:29,389233
1,0,2,2,9,3,2,0,2021-08-07 10:33:29,420233
2,2,4,12,9,5,4,1,2021-08-07 10:33:29,436232
-2,-3,-3,-7,-9,-7,-3,-4,2021-08-07 10:33:29,452233
-4,-4,-7,-13,-19,-8,-5,-3,2021-08-07 10:33:29,468234
0,2,6,16,17,5,3,0,2021-08-07 10:33:29,484233
1,3,6,21,20,6,1,0,2021-08-07 10:33:29,484233
-1,-2,-2,-4,-1,-2,-1,-1,2021-08-07 10:33:29,484233
-1,-3,-7,-16,-17,-9,-3,-1,2021-08-07 10:33:29,484233
-1,-3,-3,-5,-8,0,-1,1,2021-08-07 10:33:29,484233
0,-1,0,1,1,-1,-1,-1,2021-08-07 10:33:29,484233
-4,-1,-4,-2,-7,-4,-2,-3,2021-08-07 10:33:29,484233
0,0,1,0,3,1,2,0,2021-08-07 10:33:29,484233
-1,-3,-2,-7,-6,1,0,0,2021-08-07 10:33:29,484233
-1,0,1,8,7,1,0,-1,2021-08-07 10:33:29,484233
0,-1,-4,-5,-4,0,-1,-2,2021-08-07 10:33:29,485233
-1,-2,-3,-5,-5,-2,-2,-1,2021-08-07 10:33:29,485233
2,3,6,17,13,7,4,3,2021-08-07 10:33:29,485233
0,-1,-1,-7,-7,-3,-1,-2,2021-08-07 10:33:29,485233
-5,-4,-4,-9,-16,-7,-3,-2,2021-08-07 10:33:29,485233
4,2,4,13,19,8,2,0,2021-08-07 10:33:29,485233
-4,-3,-4,-5,0,-2,-4,-1,2021-08-07 10:33:29,516234
-1,-1,-3,-3,-7,-4,-2,-1,2021-08-07 10:33:29,532233
1,1,1,0,-1,-1,0,1,2021-08-07 10:33:29,548232
-1,1,2,5,4,3,2,-1,2021-08-07 10:33:29,564234
-4,-2,-6,-10,-12,-6,-3,-4,2021-08-07 10:33:29,564234
1,1,-1,3,6,4,1,1,2021-08-07 10:33:29,564234
-3,-3,-4,-6,-9,-5,-3,-4,2021-08-07 10:33:29,564234
-2,-3,-3,-8,-1,-1,-1,0,2021-08-07 10:33:29,564234
1,2,0,-7,-2,-2,0,0,2021-08-07 10:33:29,564234
0,-2,1,6,2,0,0,0,2021-08-07 10:33:29,564234
0,0,1,4,4,2,-1,0,2021-08-07 10:33:29,564234
-4,-4,-6,-10,-13,-6,-5,-4,2021-08-07 10:33:29,564234
2,3,4,14,12,4,3,2,2021-08-07 10:33:29,580234
-1,-2,-3,-7,-5,-2,-2,-2,2021-08-07 10:33:29,596233
3,1,0,4,13,5,4,0,2021-08-07 10:33:29,612233
-2,-1,0,-2,-5,-2,-2,-2,2021-08-07 10:33:29,612233
-4,-2,-4,-11,-12,-8,-5,-3,2021-08-07 10:33:29,612233
-1,0,-2,-6,-11,-6,-2,-1,2021-08-07 10:33:29,612233
-3,-4,-3,-11,-21,-8,-4,-2,2021-08-07 10:33:29,612233
5,6,7,30,56,22,7,4,2021-08-07 10:33:29,612233
-1,-2,-1,1,1,0,-1,-1,2021-08-07 10:33:29,612233
-3,1,2,2,4,0,-2,0,2021-08-07 10:33:29,612233
-2,-2,-5,-8,-15,-7,-6,-1,2021-08-07 10:33:29,628233
-3,-2,-7,-21,-26,-12,-4,-3,2021-08-07 10:33:29,628233
1,-1,3,1,12,4,2,0,2021-08-07 10:33:29,628233
-2,-1,1,3,2,-1,1,-2,2021-08-07 10:33:29,628233
-1,-1,-1,-1,2,1,0,-1,2021-08-07 10:33:29,644234
-1,1,-1,-5,-11,-5,-1,1,2021-08-07 10:33:29,660234
0,0,1,7,6,4,0,1,2021-08-07 10:33:29,660234
-1,-1,-3,-2,-2,-1,-2,-1,2021-08-07 10:33:29,660234
1,1,4,6,11,3,1,1,2021-08-07 10:33:29,660234
-2,-1,-2,-3,-4,-3,-2,-3,2021-08-07 10:33:29,660234
-4,-4,-7,-19,-28,-12,-6,-4,2021-08-07 10:33:29,672234
0,0,3,13,17,5,2,0,2021-08-07 10:33:29,672234
0,0,1,7,9,2,1,0,2021-08-07 10:33:29,672234
-1,-2,-1,0,-4,-3,-1,-2,2021-08-07 10:33:29,672234
0,-1,-3,-9,-7,-3,-1,0,2021-08-07 10:33:29,706233
0,-1,2,10,8,3,1,-1,2021-08-07 10:33:29,706233
1,2,2,6,11,5,1,1,2021-08-07 10:33:29,706233
-4,-3,-5,-7,-17,-9,-3,-3,2021-08-07 10:33:29,706233
0,-2,-3,-3,-1,2,-1,-1,2021-08-07 10:33:29,737233
0,1,2,2,6,3,1,0,2021-08-07 10:33:29,737233
-1,1,-1,-6,-2,3,7,3,2021-08-07 10:33:29,737233
5,4,8,16,16,9,4,3,2021-08-07 10:33:29,737233
-2,-4,-6,-14,-18,-9,-8,-4,2021-08-07 10:33:29,737233
-5,-4,-3,3,-4,-10,-7,-6,2021-08-07 10:33:29,737233
-2,-1,2,7,3,0,-2,-2,2021-08-07 10:33:29,737233
-3,-3,-4,-10,-7,-5,-1,-3,2021-08-07 10:33:29,737233
1,1,3,5,8,7,5,3,2021-08-07 10:33:29,753234
-9,-9,-7,-11,-18,-11,-9,-7,2021-08-07 10:33:29,753234
-1,-2,-2,-5,-6,-2,-1,0,2021-08-07 10:33:29,753234
0,0,-1,-3,1,1,1,2,2021-08-07 10:33:29,753234
2,0,1,0,-1,0,1,1,2021-08-07 10:33:29,785233
4,2,1,-2,5,8,5,5,2021-08-07 10:33:29,785233
-1,0,-2,-2,-2,-2,-2,-3,2021-08-07 10:33:29,785233
-3,-2,-1,-3,-7,-4,-4,-3,2021-08-07 10:33:29,785233
0,3,5,19,29,11,2,1,2021-08-07 10:33:29,785233
-1,-2,-5,-7,-9,-3,0,-3,2021-08-07 10:33:29,785233
1,0,-1,3,4,1,-1,2,2021-08-07 10:33:29,801233
-1,1,-1,-4,-10,-3,-3,-1,2021-08-07 10:33:29,801233
-6,-4,-4,-5,-9,-7,-5,-2,2021-08-07 10:33:29,817235
2,1,-1,-5,3,4,2,2,2021-08-07 10:33:29,817235
0,-1,1,3,1,-2,-2,-1,2021-08-07 10:33:29,817235
-2,-4,-4,-10,-15,-8,-3,-2,2021-08-07 10:33:29,817235
0,0,2,13,22,7,3,-1,2021-08-07 10:33:29,849233
-1,-2,-4,-10,-6,0,-1,1,2021-08-07 10:33:29,849233
-2,-2,-2,-4,-5,-2,-2,0,2021-08-07 10:33:29,849233
-1,-1,2,9,10,4,0,0,2021-08-07 10:33:29,849233
-2,-3,-4,-9,-17,-8,-3,-3,2021-08-07 10:33:29,865233
-1,-1,-3,-11,-9,-3,-1,1,2021-08-07 10:33:29,865233
-2,-1,0,-2,-9,-4,-2,-3,2021-08-07 10:33:29,865233
2,2,3,12,24,11,5,1,2021-08-07 10:33:29,865233
-1,-1,-2,-1,-6,-5,-1,-1,2021-08-07 10:33:29,881235
-1,0,-1,-2,-3,-1,0,-1,2021-08-07 10:33:29,897233
-2,-1,-1,-2,1,-1,-2,-2,2021-08-07 10:33:29,897233
-2,-2,-3,-4,-5,-4,-3,-3,2021-08-07 10:33:29,897233
-2,0,-3,-2,-5,-4,-1,0,2021-08-07 10:33:29,897233
-3,-1,0,0,-1,-1,-2,0,2021-08-07 10:33:29,897233
1,0,-3,-3,-1,1,0,1,2021-08-07 10:33:29,897233
-2,0,1,4,4,0,-2,-1,2021-08-07 10:33:29,897233
-1,-1,-1,0,1,-1,-2,-1,2021-08-07 10:33:29,929233
1,-2,-1,-3,-6,-3,0,0,2021-08-07 10:33:29,929233
-1,0,-1,-1,3,-1,-2,-2,2021-08-07 10:33:29,929233
0,0,2,5,4,2,0,1,2021-08-07 10:33:29,929233
-1,-2,-3,-3,-7,-5,-3,-3,2021-08-07 10:33:29,929233
0,1,1,2,4,2,-2,-1,2021-08-07 10:33:29,929233
0,1,1,1,2,1,0,1,2021-08-07 10:33:29,929233
-2,-3,-4,-7,-9,-4,-1,-1,2021-08-07 10:33:29,930233
1,0,2,3,3,2,2,1,2021-08-07 10:33:29,952233
-1,-1,-4,-6,-8,-5,-2,-2,2021-08-07 10:33:29,952233
2,0,4,13,20,10,6,3,2021-08-07 10:33:29,952233
-3,-4,-6,-9,-13,-5,-2,-1,2021-08-07 10:33:29,952233
-1,1,4,13,12,5,1,0,2021-08-07 10:33:29,991232
-3,-2,0,2,1,-2,-1,-4,2021-08-07 10:33:30,022234
-4,-3,-3,-7,-12,-8,-5,-5,2021-08-07 10:33:30,022234
1,3,2,7,9,4,1,0,2021-08-07 10:33:30,022234
-2,-3,-4,-7,-8,-5,-3,-1,2021-08-07 10:33:30,022234
1,0,0,1,2,1,0,1,2021-08-07 10:33:30,022234
0,-3,-4,-3,-6,-1,-1,-1,2021-08-07 10:33:30,022234
0,-2,-3,-11,-12,-7,-2,-1,2021-08-07 10:33:30,022234
1,-1,-2,-4,1,1,0,1,2021-08-07 10:33:30,022234
-1,0,1,6,5,3,0,1,2021-08-07 10:33:30,022234
-1,-2,-4,-4,0,0,-2,-2,2021-08-07 10:33:30,022234
0,-1,2,5,6,3,0,1,2021-08-07 10:33:30,022234
-1,-3,-2,-10,-15,-7,-4,-2,2021-08-07 10:33:30,038232
1,0,1,6,6,-2,0,0,2021-08-07 10:33:30,038232
-1,0,-3,0,2,1,0,-1,2021-08-07 10:33:30,038232
-2,0,-1,1,4,1,0,-3,2021-08-07 10:33:30,053232
-3,-3,-2,-2,-3,-3,-1,-2,2021-08-07 10:33:30,053232
-3,1,-2,-7,-7,-3,-1,-1,2021-08-07 10:33:30,053232
-4,-3,-4,-9,-18,-11,-5,-2,2021-08-07 10:33:30,053232
-1,0,0,1,2,0,2,0,2021-08-07 10:33:30,053232
-1,0,1,3,18,7,2,0,2021-08-07 10:33:30,084234
-1,-1,-1,0,-4,-4,-2,-1,2021-08-07 10:33:30,084234
-3,-1,-2,-3,-4,-2,-2,0,2021-08-07 10:33:30,084234
1,0,1,1,2,1,-2,0,2021-08-07 10:33:30,084234
-2,-3,-2,-6,-14,-6,-3,-2,2021-08-07 10:33:30,099234
-2,-3,-5,-12,-7,-3,-2,-1,2021-08-07 10:33:30,099234
0,0,0,4,12,4,1,1,2021-08-07 10:33:30,099234
-2,-3,-3,-5,-7,-3,-3,-1,2021-08-07 10:33:30,099234
2,1,1,1,-1,1,2,-1,2021-08-07 10:33:30,115234
1,1,5,8,3,0,-1,1,2021-08-07 10:33:30,115234
-3,-2,-4,-12,-22,-11,-4,-3,2021-08-07 10:33:30,115234
1,0,1,9,16,8,1,-2,2021-08-07 10:33:30,115234
-1,0,-3,-5,-3,0,-2,0,2021-08-07 10:33:30,146234
-1,-2,1,7,6,2,0,-1,2021-08-07 10:33:30,146234
0,-1,2,5,2,0,0,1,2021-08-07 10:33:30,178234
-4,-2,-2,-3,-6,-5,-2,-1,2021-08-07 10:33:30,194234
-1,-1,0,-6,-5,-4,-3,-2,2021-08-07 10:33:30,194234
1,-1,-2,0,-1,0,1,-1,2021-08-07 10:33:30,194234
-1,1,2,5,9,4,2,0,2021-08-07 10:33:30,194234
0,0,-2,0,-3,-2,-2,-2,2021-08-07 10:33:30,194234
-2,-3,-3,-4,-7,-3,-3,-3,2021-08-07 10:33:30,194234
1,1,2,4,6,6,3,0,2021-08-07 10:33:30,194234
0,-2,0,-3,0,-3,-2,-1,2021-08-07 10:33:30,194234
-1,-3,-3,-8,-6,-3,-1,-1,2021-08-07 10:33:30,194234
-1,2,3,14,12,4,2,1,2021-08-07 10:33:30,194234
1,3,3,16,25,10,4,0,2021-08-07 10:33:30,195233
-2,-1,-2,1,0,0,0,-1,2021-08-07 10:33:30,210234
0,-1,-1,-3,-8,-5,-1,0,2021-08-07 10:33:30,210234
-3,-2,-4,-4,-6,-3,-3,-3,2021-08-07 10:33:30,226233
-2,-4,-4,-15,-17,-10,-4,-3,2021-08-07 10:33:30,226233
4,3,4,12,19,9,3,1,2021-08-07 10:33:30,226233
-2,-3,-3,-8,-7,-2,-1,0,2021-08-07 10:33:30,226233
0,-1,0,-1,-2,-1,0,-2,2021-08-07 10:33:30,226233
-3,-1,-3,-6,-9,-4,-3,-2,2021-08-07 10:33:30,226233
-2,-4,-3,-5,0,-1,-2,-3,2021-08-07 10:33:30,233232
1,1,3,8,10,6,0,0,2021-08-07 10:33:30,233232
1,1,1,5,8,1,1,0,2021-08-07 10:33:30,258235
-2,-1,-2,-4,-3,0,0,0,2021-08-07 10:33:30,274232
-1,-1,-1,-5,-10,-5,-2,-2,2021-08-07 10:33:30,290233
-1,1,-1,1,-1,-2,-1,-1,2021-08-07 10:33:30,290233
-3,-2,-2,-3,-7,-3,-2,-1,2021-08-07 10:33:30,290233
0,0,-1,-5,-1,-2,0,0,2021-08-07 10:33:30,290233
-1,0,-3,-7,-6,-2,-1,-1,2021-08-07 10:33:30,290233
2,2,5,15,9,4,2,1,2021-08-07 10:33:30,290233
0,-1,-2,-6,-1,0,-1,0,2021-08-07 10:33:30,290233
-1,0,0,0,0,-1,-1,-1,2021-08-07 10:33:30,290233
-2,-2,-2,-6,-10,-4,-2,-1,2021-08-07 10:33:30,305233
-1,-2,-2,1,6,1,-2,-1,2021-08-07 10:33:30,321232
1,-2,-3,-7,-8,-5,-2,-1,2021-08-07 10:33:30,336233
-1,-2,-1,-2,0,0,0,0,2021-08-07 10:33:30,352234
-1,-2,0,-5,-3,-2,-1,-2,2021-08-07 10:33:30,352234
-1,-3,-2,-1,6,3,0,0,2021-08-07 10:33:30,352234
-2,0,1,1,5,1,-1,0,2021-08-07 10:33:30,352234
-1,-3,-4,-7,-8,-5,-1,-3,2021-08-07 10:33:30,352234
-2,0,1,3,1,0,-1,-2,2021-08-07 10:33:30,352234
-1,-2,-2,-10,-12,-5,-1,-3,2021-08-07 10:33:30,352234
-1,-2,1,2,3,1,0,0,2021-08-07 10:33:30,352234
-1,-2,-4,-4,-6,-2,-2,-1,2021-08-07 10:33:30,352234
-1,-2,-2,0,-2,-1,-2,0,2021-08-07 10:33:30,368234
-1,-3,-4,-8,-9,-5,-1,-2,2021-08-07 10:33:30,368234
1,0,2,9,9,6,0,2,2021-08-07 10:33:30,383235
-2,-1,1,0,-5,-4,-4,-2,2021-08-07 10:33:30,399234
-1,-1,-1,-2,2,-2,-2,0,2021-08-07 10:33:30,399234
-3,-1,-1,-2,0,-2,-3,-2,2021-08-07 10:33:30,399234
-1,-1,-3,-11,-21,-8,-3,-1,2021-08-07 10:33:30,399234
2,3,2,6,20,10,4,2,2021-08-07 10:33:30,399234
2,2,3,14,16,7,3,3,2021-08-07 10:33:30,399234
-3,-2,-4,-6,-13,-6,-2,0,2021-08-07 10:33:30,399234
-1,0,-1,4,0,-4,-1,-2,2021-08-07 10:33:30,415233
-2,-2,-3,-3,-4,-2,-2,-2,2021-08-07 10:33:30,415233
-2,-2,-3,-8,-9,-4,-3,-1,2021-08-07 10:33:30,415233
0,0,0,2,2,2,2,1,2021-08-07 10:33:30,415233
-3,-3,-3,-4,-4,-2,-2,-3,2021-08-07 10:33:30,446234
0,-1,2,2,-5,-1,-1,0,2021-08-07 10:33:30,446234
-1,-2,-4,-6,-2,-2,-1,1,2021-08-07 10:33:30,446234
3,1,5,17,15,8,4,1,2021-08-07 10:33:30,446234
0,1,-1,-2,-1,-1,0,0,2021-08-07 10:33:30,462232
-1,0,-1,0,-1,-1,0,-1,2021-08-07 10:33:30,478232
-3,-2,-3,-8,-10,-3,-3,-3,2021-08-07 10:33:30,478232
0,0,-4,-14,-17,-7,-5,-2,2021-08-07 10:33:30,478232
1,0,2,10,15,6,1,2,2021-08-07 10:33:30,478232
-2,-2,-1,0,-4,-1,0,-1,2021-08-07 10:33:30,478232
-1,-2,-1,0,0,-1,-2,1,2021-08-07 10:33:30,478232
-1,-2,-3,-3,-4,-3,-3,0,2021-08-07 10:33:30,478232
-2,-2,-1,-5,-1,-1,-2,-2,2021-08-07 10:33:30,494234
0,0,-1,-2,1,-1,-2,-1,2021-08-07 10:33:30,510232
1,2,3,7,2,0,2,0,2021-08-07 10:33:30,511234
-1,-2,-2,0,3,2,0,0,2021-08-07 10:33:30,511234
-1,-2,-2,-3,-3,1,0,-1,2021-08-07 10:33:30,526234
-3,-3,-5,-12,-15,-9,-5,-2,2021-08-07 10:33:30,542235
2,2,2,6,12,6,3,1,2021-08-07 10:33:30,574233
1,-2,-2,-5,-13,-7,-3,-2,2021-08-07 10:33:30,574233
0,-1,0,1,12,4,1,0,2021-08-07 10:33:30,574233
0,0,3,10,10,4,1,-1,2021-08-07 10:33:30,574233
-2,-2,-3,-5,-9,-6,-4,-2,2021-08-07 10:33:30,574233
-1,-1,0,-1,2,0,1,0,2021-08-07 10:33:30,574233
0,-1,0,-2,-11,-5,0,-1,2021-08-07 10:33:30,574233
1,0,0,3,9,4,0,1,2021-08-07 10:33:30,574233
-1,-2,-3,-9,-11,-4,-1,-4,2021-08-07 10:33:30,574233
0,0,2,12,13,4,1,-1,2021-08-07 10:33:30,574233
-2,-1,-2,-6,-7,-3,-3,-3,2021-08-07 10:33:30,574233
-3,-1,-2,1,3,2,0,0,2021-08-07 10:33:30,574233
0,-2,-2,-2,-4,-3,0,-2,2021-08-07 10:33:30,574233
-2,-2,-3,-6,-6,-4,-3,-2,2021-08-07 10:33:30,574233
-1,0,-1,0,1,1,0,0,2021-08-07 10:33:30,605234
0,1,2,4,5,1,1,1,2021-08-07 10:33:30,637233
0,-1,2,7,8,3,0,0,2021-08-07 10:33:30,637233
0,0,-2,0,-1,-1,-1,0,2021-08-07 10:33:30,637233
-2,-2,-1,-2,-5,-5,-3,0,2021-08-07 10:33:30,637233
0,-1,-4,-8,-9,-5,-2,-2,2021-08-07 10:33:30,637233
-1,-1,0,3,3,-1,-1,0,2021-08-07 10:33:30,637233
-2,-2,0,-5,-4,-3,0,-1,2021-08-07 10:33:30,637233
-1,-1,0,3,0,1,-1,-2,2021-08-07 10:33:30,637233
-1,-1,-1,-1,-2,-2,0,-2,2021-08-07 10:33:30,637233
0,0,-1,-1,3,0,0,-1,2021-08-07 10:33:30,637233
0,1,-1,-4,-6,-3,-3,0,2021-08-07 10:33:30,637233
1,0,2,8,5,1,3,0,2021-08-07 10:33:30,652233
-1,-2,-1,-1,2,0,1,-1,2021-08-07 10:33:30,652233
-1,-1,-2,1,3,2,2,0,2021-08-07 10:33:30,668233
0,-2,-3,-6,-4,-1,1,1,2021-08-07 10:33:30,668233
-2,-4,-3,-7,-3,-2,-2,-3,2021-08-07 10:33:30,684234
-3,-3,2,3,-1,-2,-2,-4,2021-08-07 10:33:30,684234
-3,-1,0,1,-3,-1,-2,-4,2021-08-07 10:33:30,684234
-3,0,-1,-1,-1,-2,-2,-1,2021-08-07 10:33:30,684234
-1,-1,0,-1,-3,-2,-2,-1,2021-08-07 10:33:30,700232
0,0,-1,1,-1,0,-1,0,2021-08-07 10:33:30,715233
0,-1,-2,1,-2,-1,0,1,2021-08-07 10:33:30,747234
-1,-1,0,3,3,1,-2,-2,2021-08-07 10:33:30,763233
1,1,-1,1,3,2,2,-1,2021-08-07 10:33:30,763233
0,0,0,-1,-3,-1,-1,-1,2021-08-07 10:33:30,763233
1,2,1,3,4,2,0,0,2021-08-07 10:33:30,763233
-2,-2,-4,-4,-3,0,0,-1,2021-08-07 10:33:30,763233
-6,-7,-10,-16,-17,-9,-5,-4,2021-08-07 10:33:30,763233
2,3,1,4,9,6,2,2,2021-08-07 10:33:30,763233
2,4,8,12,9,6,2,1,2021-08-07 10:33:30,763233
-2,-2,-3,0,-2,-3,-1,-3,2021-08-07 10:33:30,763233
-2,-3,-6,-16,-10,-6,-4,-1,2021-08-07 10:33:30,763233
-3,-3,-5,-12,-9,-6,-3,-2,2021-08-07 10:33:30,764233
0,-2,-2,-2,-4,-4,-2,-2,2021-08-07 10:33:30,764233
2,4,8,15,15,10,3,2,2021-08-07 10:33:30,764233
1,0,1,3,3,4,1,0,2021-08-07 10:33:30,779233
-2,-2,-6,-10,-11,-5,-3,-2,2021-08-07 10:33:30,779233
-3,-3,-4,-6,-9,-6,-3,-1,2021-08-07 10:33:30,795234
2,3,2,8,16,7,3,2,2021-08-07 10:33:30,795234
0,0,2,6,8,2,0,-1,2021-08-07 10:33:30,795234
-1,-1,1,3,-3,-2,-1,-2,2021-08-07 10:33:30,795234
-3,-2,-2,-2,-3,-3,-1,-2,2021-08-07 10:33:30,795234
-2,-3,-3,-7,-9,-3,-5,-4,2021-08-07 10:33:30,795234
5,4,4,11,22,11,5,3,2021-08-07 10:33:30,826234
0,-1,2,7,5,1,0,0,2021-08-07 10:33:30,826234
-3,-4,-7,-18,-30,-13,-6,-3,2021-08-07 10:33:30,826234
-1,-3,-5,-5,1,-2,-3,-2,2021-08-07 10:33:30,826234
1,2,3,12,16,5,2,0,2021-08-07 10:33:30,842235
-2,-4,-2,-1,-3,-1,-1,-1,2021-08-07 10:33:30,858232
0,-2,-2,-2,-1,1,-2,0,2021-08-07 10:33:30,858232
-1,-1,-3,-9,-11,-8,-2,-1,2021-08-07 10:33:30,858232
-1,0,0,3,-2,-2,-1,-2,2021-08-07 10:33:30,858232
-1,-1,-2,-3,-1,-2,0,-1,2021-08-07 10:33:30,858232
-2,-1,-2,-2,0,1,-1,0,2021-08-07 10:33:30,858232
-2,0,0,0,-3,0,-1,-1,2021-08-07 10:33:30,858232
-5,-3,-2,-4,-7,-4,-3,-2,2021-08-07 10:33:30,889233
-2,-2,-2,-5,-7,-4,-2,-2,2021-08-07 10:33:30,889233
1,1,2,5,7,3,1,2,2021-08-07 10:33:30,889233
1,1,3,7,6,4,2,-1,2021-08-07 10:33:30,889233
-1,0,1,-1,-5,0,0,0,2021-08-07 10:33:30,905233
-1,-1,-1,4,0,-1,-1,-1,2021-08-07 10:33:30,905233
-2,-3,-3,-5,-1,-2,-1,-2,2021-08-07 10:33:30,905233
-3,-4,-4,-11,-14,-8,-4,-1,2021-08-07 10:33:30,905233
-1,-2,-1,1,-1,0,0,2,2021-08-07 10:33:30,937233
5,4,7,18,20,12,3,4,2021-08-07 10:33:30,937233
0,0,0,5,8,3,0,-3,2021-08-07 10:33:30,937233
0,0,-1,-3,-4,-2,0,-2,2021-08-07 10:33:30,937233
-2,-3,-4,-11,-14,-8,-5,-1,2021-08-07 10:33:30,937233
-4,-2,-4,-13,-15,-7,-3,-2,2021-08-07 10:33:30,937233
-1,2,0,5,10,5,-1,0,2021-08-07 10:33:30,937233
-1,-1,1,2,2,2,-1,1,2021-08-07 10:33:30,937233
0,0,-3,-7,-7,-3,-2,0,2021-08-07 10:33:30,969233
3,2,3,6,14,6,3,0,2021-08-07 10:33:30,969233
-1,-2,-3,-4,-6,-4,-4,-3,2021-08-07 10:33:31,000233
0,2,3,6,5,2,2,0,2021-08-07 10:33:31,016233
-1,-1,-2,-4,-8,-2,-1,-1,2021-08-07 10:33:31,032233
-4,-2,-4,-8,-9,-5,-2,-1,2021-08-07 10:33:31,062745
-2,-2,0,-1,5,3,2,0,2021-08-07 10:33:31,078258
0,-1,-1,1,-5,-3,-3,1,2021-08-07 10:33:31,078258
-1,0,2,7,10,4,1,-1,2021-08-07 10:33:31,078258
-2,-3,-4,-9,-14,-7,-3,-2,2021-08-07 10:33:31,078258
-3,-3,-5,-11,-9,-4,-1,-1,2021-08-07 10:33:31,078258
-2,-4,-4,-4,-15,-8,-4,-2,2021-08-07 10:33:31,078258
1,3,4,1,8,4,1,1,2021-08-07 10:33:31,078258
0,2,5,16,20,12,3,0,2021-08-07 10:33:31,078258
-1,-1,-1,-4,-7,-4,-2,0,2021-08-07 10:33:31,078258
1,-2,-1,1,1,-1,-1,-1,2021-08-07 10:33:31,078258
-3,-3,-6,-12,-18,-10,-2,-3,2021-08-07 10:33:31,078258
-1,-4,-4,-12,-14,-7,-4,-2,2021-08-07 10:33:31,078258
1,1,6,16,21,12,4,2,2021-08-07 10:33:31,079258
0,0,-2,-2,-2,1,0,0,2021-08-07 10:33:31,079258
-1,-2,-4,-1,-3,-3,0,0,2021-08-07 10:33:31,079258
-1,0,2,3,4,0,-2,-1,2021-08-07 10:33:31,079258
-1,-1,-1,-1,-4,-2,0,-1,2021-08-07 10:33:31,079258
1,0,-1,-4,0,0,0,-1,2021-08-07 10:33:31,079258
0,0,2,8,13,4,0,-1,2021-08-07 10:33:31,079258
-2,-2,-4,-8,-7,-5,-3,-1,2021-08-07 10:33:31,079258
-1,-2,-2,-5,-12,-6,-2,-2,2021-08-07 10:33:31,079258
0,-1,0,-1,6,1,0,1,2021-08-07 10:33:31,079258
-2,-4,-4,-13,-14,-6,-2,-2,2021-08-07 10:33:31,094258
2,3,9,26,36,16,6,3,2021-08-07 10:33:31,110257
-1,1,1,6,6,2,1,0,2021-08-07 10:33:31,126258
-3,-2,0,-3,-1,2,0,-2,2021-08-07 10:33:31,126258
-1,-2,-2,-7,-15,-8,-5,-1,2021-08-07 10:33:31,126258
-2,-1,-4,-6,-1,0,-1,0,2021-08-07 10:33:31,126258
1,0,0,-3,-2,-1,-2,0,2021-08-07 10:33:31,126258
-2,-1,1,3,3,1,0,-3,2021-08-07 10:33:31,126258
-1,-1,-1,-7,-7,-3,-2,-3,2021-08-07 10:33:31,158260
-3,-4,-8,-15,-12,-7,-3,-3,2021-08-07 10:33:31,174258
3,2,6,19,19,11,4,2,2021-08-07 10:33:31,189258
-2,-1,-2,-2,-5,-3,-2,1,2021-08-07 10:33:31,189258
-1,1,1,6,5,3,1,-1,2021-08-07 10:33:31,189258
-2,-1,-5,-10,-16,-8,-4,-2,2021-08-07 10:33:31,189258
-3,-4,-5,-7,-6,-3,-3,0,2021-08-07 10:33:31,205258
-1,0,-3,-2,-4,-4,-2,-2,2021-08-07 10:33:31,205258
0,-1,0,0,3,0,-1,-1,2021-08-07 10:33:31,205258
1,1,0,3,6,3,2,1,2021-08-07 10:33:31,205258
-2,-2,-2,-3,-4,-3,-2,0,2021-08-07 10:33:31,205258
0,1,3,14,12,5,1,0,2021-08-07 10:33:31,205258
-2,-2,-2,0,-2,0,-1,-1,2021-08-07 10:33:31,205258
-1,-2,-2,-5,-10,-5,-2,-2,2021-08-07 10:33:31,205258
-1,-1,-2,-7,-6,-4,-3,-2,2021-08-07 10:33:31,205258
1,1,2,-1,-5,1,-1,2,2021-08-07 10:33:31,206259
1,0,0,3,3,-1,1,-1,2021-08-07 10:33:31,221258
-1,0,-1,4,1,0,0,-1,2021-08-07 10:33:31,221258
-1,-2,-4,-3,-5,-2,-1,-2,2021-08-07 10:33:31,221258
-2,-3,-3,-2,0,0,0,-1,2021-08-07 10:33:31,221258
1,1,1,4,3,2,0,0,2021-08-07 10:33:31,237259
-1,-1,1,-3,-5,-1,-1,-1,2021-08-07 10:33:31,237259
-1,-1,-1,-4,-3,-2,-3,-1,2021-08-07 10:33:31,237259
-3,0,-3,-3,1,-1,-1,-1,2021-08-07 10:33:31,237259
-1,1,0,2,2,0,2,0,2021-08-07 10:33:31,269258
-2,-2,-2,-3,-4,-2,-1,-1,2021-08-07 10:33:31,269488
-2,-1,-2,-2,-2,-1,1,0,2021-08-07 10:33:31,269488
-1,-1,-1,-3,0,-1,-3,-2,2021-08-07 10:33:31,269488
-1,-1,0,1,1,-1,-1,-2,2021-08-07 10:33:31,269488
-1,-1,-1,-1,-2,0,0,-3,2021-08-07 10:33:31,269488
-1,-1,-1,-1,-1,-1,0,-1,2021-08-07 10:33:31,284769
-1,-2,-2,-4,-2,-1,-2,-2,2021-08-07 10:33:31,300769
0,-1,0,4,5,0,0,0,2021-08-07 10:33:31,300769
1,0,0,1,-3,-1,-1,0,2021-08-07 10:33:31,300769
-1,0,0,-3,-1,-2,-2,-1,2021-08-07 10:33:31,300769
-2,-1,-1,0,1,1,1,1,2021-08-07 10:33:31,300769
-1,-1,-2,-2,0,0,-2,0,2021-08-07 10:33:31,331770
-1,0,-2,-3,-4,-1,-2,0,2021-08-07 10:33:31,347791
-1,0,0,1,-1,-1,-2,-2,2021-08-07 10:33:31,358791
-2,-1,-4,-4,-8,-5,-3,-3,2021-08-07 10:33:31,358791
-2,-1,-3,-9,2,2,0,-1,2021-08-07 10:33:31,358791
4,4,10,25,13,6,2,2,2021-08-07 10:33:31,358791
-2,-3,-6,-9,-10,-5,-2,0,2021-08-07 10:33:31,358791
1,1,2,4,9,4,2,1,2021-08-07 10:33:31,359791
0,1,-1,4,0,0,1,1,2021-08-07 10:33:31,359791
-5,-3,-5,-11,-8,-4,-3,-5,2021-08-07 10:33:31,359791
0,-2,-1,-1,-1,-3,-2,1,2021-08-07 10:33:31,359791
-3,-2,-3,-10,-19,-9,-4,-2,2021-08-07 10:33:31,359791
-1,1,2,15,20,7,1,1,2021-08-07 10:33:31,379793
-1,-1,0,3,4,2,0,1,2021-08-07 10:33:31,395791
0,-2,-2,-1,-4,-3,-2,-3,2021-08-07 10:33:31,427790
-2,-1,-3,-9,-7,-3,-1,0,2021-08-07 10:33:31,443790
-2,-1,-3,-8,-13,-7,-3,-3,2021-08-07 10:33:31,459791
-1,0,0,0,7,3,0,2,2021-08-07 10:33:31,475792
-1,0,0,6,8,2,1,-1,2021-08-07 10:33:31,506791
0,0,0,0,-1,0,-1,0,2021-08-07 10:33:31,506791
-1,0,0,0,-4,-3,-2,-1,2021-08-07 10:33:31,506791
-1,-4,-5,-9,-8,-4,-3,-1,2021-08-07 10:33:31,506791
-1,-1,-2,-6,-3,-4,-1,-1,2021-08-07 10:33:31,506791
0,-3,-5,-6,-4,0,0,0,2021-08-07 10:33:31,506791
3,1,3,7,9,6,3,3,2021-08-07 10:33:31,506791
-1,-1,-2,0,-3,0,2,-1,2021-08-07 10:33:31,506791
-2,1,1,2,1,1,-1,-3,2021-08-07 10:33:31,506791
-3,-3,-2,1,-5,-5,-2,-4,2021-08-07 10:33:31,507792
-4,-2,1,0,0,-1,-2,-2,2021-08-07 10:33:31,507792
-1,0,-1,-5,-2,-3,-3,-1,2021-08-07 10:33:31,507792
1,0,0,2,2,0,-2,0,2021-08-07 10:33:31,507792
0,-1,-1,-1,1,0,-3,-1,2021-08-07 10:33:31,507792
-1,-3,-2,-4,-8,-3,-1,-1,2021-08-07 10:33:31,522791
-2,0,-2,1,-2,-1,-1,0,2021-08-07 10:33:31,522791
0,0,-2,-4,1,0,1,0,2021-08-07 10:33:31,522791
-1,-1,3,4,5,2,1,0,2021-08-07 10:33:31,522791
1,2,-1,-5,2,1,1,1,2021-08-07 10:33:31,522791
-3,-3,0,3,0,0,-3,-1,2021-08-07 10:33:31,522791
-1,-2,-2,-1,-1,-3,-3,-1,2021-08-07 10:33:31,522791
-2,1,-2,-2,0,0,-1,0,2021-08-07 10:33:31,538791
-1,-2,-3,-2,-5,-2,0,0,2021-08-07 10:33:31,538791
1,-2,0,1,1,-1,1,0,2021-08-07 10:33:31,538791
-1,0,-1,0,-1,2,0,-1,2021-08-07 10:33:31,538791
1,-2,1,2,3,1,0,1,2021-08-07 10:33:31,538791
1,1,3,10,8,3,-1,0,2021-08-07 10:33:31,538791
-1,-1,-3,-8,-9,-6,-2,-2,2021-08-07 10:33:31,538791
-2,-2,-1,-1,0,1,-1,-1,2021-08-07 10:33:31,538791
0,0,1,2,-1,-3,-2,-2,2021-08-07 10:33:31,538791
-1,-1,-4,-12,-9,-4,-2,-2,2021-08-07 10:33:31,570302
-1,-2,-3,-4,-3,-2,-1,-1,2021-08-07 10:33:31,570302
-1,-1,0,0,-1,-1,-1,-2,2021-08-07 10:33:31,570302
-1,0,0,0,2,0,1,-1,2021-08-07 10:33:31,570302
-2,-2,-4,-5,-10,-4,-3,-3,2021-08-07 10:33:31,570302
-1,1,-1,-2,-1,2,2,-1,2021-08-07 10:33:31,570302
-2,-1,-2,1,3,2,-1,1,2021-08-07 10:33:31,602302
0,0,2,7,10,4,0,0,2021-08-07 10:33:31,602302
-2,-2,-2,-3,-1,0,2,2,2021-08-07 10:33:31,602302
-1,0,1,3,-1,-3,-1,-1,2021-08-07 10:33:31,602302
-2,0,0,-3,-7,-3,0,2,2021-08-07 10:33:31,602302
0,-2,-1,1,1,-1,-2,-2,2021-08-07 10:33:31,602302
-2,-2,-3,-2,-8,-6,-3,-2,2021-08-07 10:33:31,634301
-1,-2,-5,-11,-3,-1,-3,-2,2021-08-07 10:33:31,647301
4,3,7,7,4,3,2,2,2021-08-07 10:33:31,648302
0,0,-2,3,3,0,0,1,2021-08-07 10:33:31,648302
0,-1,0,-5,-1,-1,0,-1,2021-08-07 10:33:31,648302
0,-2,-3,0,-2,-3,-3,-3,2021-08-07 10:33:31,648302
-2,-2,-3,-4,-5,0,-1,-2,2021-08-07 10:33:31,648302
-1,1,1,-1,4,2,0,1,2021-08-07 10:33:31,648302
-3,-3,-4,-3,-4,-4,-2,-3,2021-08-07 10:33:31,666302
-1,0,1,2,-1,0,0,1,2021-08-07 10:33:31,666302
-1,-2,-4,-2,-1,0,0,-1,2021-08-07 10:33:31,666302
0,1,3,0,0,2,1,0,2021-08-07 10:33:31,666302
-1,0,-1,-2,-1,0,-2,-2,2021-08-07 10:33:31,682303
-3,-2,-2,-3,-5,-5,-2,-1,2021-08-07 10:33:31,682303
0,-3,-4,-5,-4,-4,-3,-4,2021-08-07 10:33:31,682303
-2,-1,-2,-4,0,0,-1,-1,2021-08-07 10:33:31,682303
4,1,6,15,18,7,5,2,2021-08-07 10:33:31,698303
-1,-2,-1,-3,-4,-5,-2,-1,2021-08-07 10:33:31,714302
-1,-1,-1,-3,0,0,2,0,2021-08-07 10:33:31,714302
-2,-3,-4,-4,-5,-3,-1,-3,2021-08-07 10:33:31,714302
-1,0,1,-2,-4,-3,-2,-1,2021-08-07 10:33:31,714302
-2,-1,-2,-2,-2,-2,-1,-1,2021-08-07 10:33:31,714302
-2,-2,-1,-2,1,0,-1,-1,2021-08-07 10:33:31,714302
-1,-1,-3,-1,-1,0,1,1,2021-08-07 10:33:31,714302
-1,-1,-3,-3,-3,-1,0,-1,2021-08-07 10:33:31,745302
-1,-1,-2,-7,-8,-4,-2,0,2021-08-07 10:33:31,745302
1,0,4,6,5,1,0,1,2021-08-07 10:33:31,745302
0,-1,0,1,1,1,1,1,2021-08-07 10:33:31,745302
-1,-2,-3,-1,-3,-1,-1,-2,2021-08-07 10:33:31,776302
0,-1,0,2,6,4,1,0,2021-08-07 10:33:31,792302
-2,-2,-4,-5,-4,-4,-1,-2,2021-08-07 10:33:31,792302
-1,-1,-1,4,2,1,-1,-2,2021-08-07 10:33:31,792302
-1,-1,-2,-4,-4,-4,-2,-1,2021-08-07 10:33:31,792302
-2,1,1,2,0,1,-1,0,2021-08-07 10:33:31,792302
-1,-1,-2,1,-3,-1,-2,0,2021-08-07 10:33:31,792302
1,-1,0,-3,-3,-2,-2,1,2021-08-07 10:33:31,792302
-1,0,0,-1,-2,0,0,-2,2021-08-07 10:33:31,808303
1,-1,-1,-3,1,1,-1,-2,2021-08-07 10:33:31,808303
0,-1,0,2,0,0,0,1,2021-08-07 10:33:31,808303
-3,-1,-1,-1,-4,-3,-3,-1,2021-08-07 10:33:31,808303
-1,-1,-2,-3,3,1,0,0,2021-08-07 10:33:31,824302
1,0,0,2,2,2,1,0,2021-08-07 10:33:31,840302
-1,-1,-1,0,0,-1,0,0,2021-08-07 10:33:31,840302
-2,-2,-2,-3,-3,-3,-2,-1,2021-08-07 10:33:31,840302
2,1,0,1,2,-1,0,0,2021-08-07 10:33:31,840302
-1,-2,-2,0,-2,-1,0,-2,2021-08-07 10:33:31,840302
-1,-1,-2,-1,-3,-1,0,-2,2021-08-07 10:33:31,840302
-2,-2,-1,-2,-5,-4,-3,-3,2021-08-07 10:33:31,856302
-1,1,2,3,2,2,0,1,2021-08-07 10:33:31,871302
-1,-4,-6,-12,-12,-7,-4,-2,2021-08-07 10:33:31,903302
1,1,4,10,16,8,4,2,2021-08-07 10:33:31,903302
0,0,1,7,4,2,1,0,2021-08-07 10:33:31,903302
-3,-3,-2,-1,-4,-2,-1,1,2021-08-07 10:33:31,903302
-3,-2,0,0,1,-3,-2,-2,2021-08-07 10:33:31,903302
-4,-3,-4,-15,-15,-8,-3,-1,2021-08-07 10:33:31,903302
0,1,2,3,8,2,2,1,2021-08-07 10:33:31,903302
0,0,2,-1,0,0,0,-1,2021-08-07 10:33:31,903302
0,1,0,3,2,1,0,-1,2021-08-07 10:33:31,903302
-1,-3,-2,-4,-6,-3,-2,-3,2021-08-07 10:33:31,903302
0,0,-2,-4,-5,-2,-2,-1,2021-08-07 10:33:31,903302
0,0,0,0,1,0,0,0,2021-08-07 10:33:31,922302
0,-2,-1,1,0,1,0,0,2021-08-07 10:33:31,922302
1,1,3,1,1,0,-2,0,2021-08-07 10:33:31,922302
0,-1,-3,-7,-4,-2,-3,-3,2021-08-07 10:33:31,922302
-2,-4,-5,-5,-9,-4,-4,-4,2021-08-07 10:33:31,949302
1,1,4,10,11,4,0,1,2021-08-07 10:33:31,949302
0,1,0,7,3,1,0,1,2021-08-07 10:33:31,949302
-2,-1,0,-6,-1,1,1,0,2021-08-07 10:33:31,949302
-4,-1,-1,1,-1,-3,-2,-2,2021-08-07 10:33:31,965302
-2,-2,-1,-4,-4,-3,-2,-1,2021-08-07 10:33:31,981303
-3,0,-1,0,0,-1,-1,0,2021-08-07 10:33:31,997302
1,-1,-3,-5,-2,-2,-1,-1,2021-08-07 10:33:32,013302
1,0,1,1,0,2,3,0,2021-08-07 10:33:32,013302
0,-1,-2,-2,-1,0,-1,-1,2021-08-07 10:33:32,013302
-1,-3,-3,-2,-2,-2,-2,-1,2021-08-07 10:33:32,013302
-1,0,-2,-3,-6,-1,0,1,2021-08-07 10:33:32,013302
1,-1,0,1,3,0,0,0,2021-08-07 10:33:32,013302
-1,0,2,1,2,0,1,0,2021-08-07 10:33:32,013302
0,-1,-1,-1,-6,-3,-3,-1,2021-08-07 10:33:32,013302
-1,-1,-2,-2,4,2,1,-2,2021-08-07 10:33:32,013302
-2,-1,1,6,2,0,-1,0,2021-08-07 10:33:32,013302
-1,0,0,-2,0,1,0,1,2021-08-07 10:33:32,013302
-2,0,-2,-1,3,0,-1,-2,2021-08-07 10:33:32,029303
-2,-3,-2,-1,-4,-3,-1,-2,2021-08-07 10:33:32,045302
-2,-2,-3,-6,-4,-3,-3,-3,2021-08-07 10:33:32,045302
1,2,0,1,0,0,2,0,2021-08-07 10:33:32,045302
0,-2,-2,-3,-3,-3,-2,-1,2021-08-07 10:33:32,045302
0,-1,1,0,0,-1,-1,0,2021-08-07 10:33:32,045302
0,-1,-2,-1,0,-1,0,-1,2021-08-07 10:33:32,077302
0,-1,-3,1,-1,-1,-1,-1,2021-08-07 10:33:32,093301
-1,-2,-1,-1,-1,-1,0,-2,2021-08-07 10:33:32,125302
0,-1,-1,2,1,0,-1,0,2021-08-07 10:33:32,125302
-2,1,-2,0,0,0,0,-2,2021-08-07 10:33:32,125302
0,1,-2,-2,-2,0,-2,-3,2021-08-07 10:33:32,125302
0,0,-1,-1,-2,0,1,0,2021-08-07 10:33:32,141301
-1,-1,-1,1,-2,-3,-1,-2,2021-08-07 10:33:32,141301
-2,-1,-1,-3,-2,0,-1,0,2021-08-07 10:33:32,141301
-1,-2,-1,-2,0,-3,0,0,2021-08-07 10:33:32,141301
-1,-2,-1,0,0,-2,-1,-2,2021-08-07 10:33:32,141301
1,0,-1,-1,0,-1,0,1,2021-08-07 10:33:32,141301
2,-1,-2,-2,-2,-1,-2,1,2021-08-07 10:33:32,141301
-2,0,1,4,0,-2,0,0,2021-08-07 10:33:32,141301
-2,-3,-5,-18,-10,-4,-3,0,2021-08-07 10:33:32,141301
3,4,8,17,13,5,2,3,2021-08-07 10:33:32,141301
0,0,-1,0,-3,-2,-1,0,2021-08-07 10:33:32,142303
-1,0,-2,1,2,2,0,0,2021-08-07 10:33:32,142303
-1,-1,-2,-2,-3,-3,-2,0,2021-08-07 10:33:32,142303
-2,-3,-5,-10,-10,-4,-2,-4,2021-08-07 10:33:32,142303
0,-1,-2,-6,1,-2,-1,-1,2021-08-07 10:33:32,172302
1,0,1,2,1,1,0,-1,2021-08-07 10:33:32,188301
0,0,1,4,5,3,-1,-1,2021-08-07 10:33:32,200303
-1,0,-2,-2,-5,-4,-2,-1,2021-08-07 10:33:32,200303
-3,-3,-1,-3,-2,-2,1,0,2021-08-07 10:33:32,200303
-3,-2,-7,-13,-6,-4,-2,-1,2021-08-07 10:33:32,200303
0,1,7,19,15,8,4,0,2021-08-07 10:33:32,201303
1,-1,-1,-1,-7,-6,-3,0,2021-08-07 10:33:32,201303
-3,-3,-4,-3,0,2,-2,-2,2021-08-07 10:33:32,201303
1,-1,1,0,3,0,-2,0,2021-08-07 10:33:32,201303
0,1,-1,-7,-3,-1,1,0,2021-08-07 10:33:32,201303
-4,-4,-4,-4,-3,-2,-3,-3,2021-08-07 10:33:32,201303
1,2,0,-1,-7,-3,1,1,2021-08-07 10:33:32,220301
2,1,2,4,0,2,1,1,2021-08-07 10:33:32,236303
1,1,1,2,1,0,-1,-1,2021-08-07 10:33:32,252302
0,-1,-3,-1,0,-4,-4,-1,2021-08-07 10:33:32,252302
-1,-2,-3,-5,-6,0,0,-1,2021-08-07 10:33:32,252302
0,-1,-3,-4,-2,1,1,2,2021-08-07 10:33:32,252302
0,-2,-2,-4,-6,-3,-2,-1,2021-08-07 10:33:32,252302
-3,-4,-3,-2,4,-1,-2,-1,2021-08-07 10:33:32,252302
-3,-3,-1,-2,2,-1,-3,-5,2021-08-07 10:33:32,252302
-4,-3,-1,1,-4,-2,-2,-3,2021-08-07 10:33:32,252302
-2,3,3,8,9,5,1,1,2021-08-07 10:33:32,267303
0,2,2,-1,0,2,1,2,2021-08-07 10:33:32,267303
1,1,1,-1,2,-1,-3,0,2021-08-07 10:33:32,283302
-3,-2,-2,-5,-8,-4,-3,-2,2021-08-07 10:33:32,283302
-1,0,-4,-5,-4,-3,-1,0,2021-08-07 10:33:32,283302
1,1,1,2,-1,2,-1,0,2021-08-07 10:33:32,283302
2,2,5,16,13,5,4,3,2021-08-07 10:33:32,315302
-1,-2,-2,-5,-3,-5,-2,-3,2021-08-07 10:33:32,315302
-3,-5,-5,-5,-9,-6,-4,-4,2021-08-07 10:33:32,315302
-2,0,-3,-5,-3,-1,0,-2,2021-08-07 10:33:32,315302
-1,-1,-2,-4,-8,-3,-1,0,2021-08-07 10:33:32,315302
-1,0,2,8,11,5,1,1,2021-08-07 10:33:32,315302
-1,-2,-1,-1,1,0,0,-1,2021-08-07 10:33:32,331301
-2,-2,-1,-2,-5,-3,-2,-2,2021-08-07 10:33:32,331301
-1,-3,-3,-7,-10,-6,-4,-3,2021-08-07 10:33:32,347301
-2,-2,-3,-4,-2,-4,-2,-3,2021-08-07 10:33:32,363303
-2,-4,-4,-6,-7,-3,-3,-2,2021-08-07 10:33:32,379303
0,1,2,5,9,5,3,1,2021-08-07 10:33:32,395303
1,1,3,5,4,0,0,1,2021-08-07 10:33:32,427302
-1,0,1,0,-3,0,0,0,2021-08-07 10:33:32,443302
-2,-3,-3,-4,-2,-4,-2,-3,2021-08-07 10:33:32,443302
-1,0,-1,-2,-3,1,0,-2,2021-08-07 10:33:32,443302
-3,-2,-4,-5,-7,-4,-2,-3,2021-08-07 10:33:32,443302
-1,-2,-5,-10,-7,-3,-1,-2,2021-08-07 10:33:32,443302
3,2,4,8,7,3,2,2,2021-08-07 10:33:32,443302
-1,-1,1,4,5,2,0,0,2021-08-07 10:33:32,443302
0,-1,0,0,3,1,-2,0,2021-08-07 10:33:32,443302
-2,-3,-5,-6,-10,-6,-3,-1,2021-08-07 10:33:32,443302
-2,-2,-1,-6,-5,-2,-2,0,2021-08-07 10:33:32,443302
0,0,5,15,13,6,2,1,2021-08-07 10:33:32,443302
1,0,0,-1,-8,-5,0,0,2021-08-07 10:33:32,443302
1,-2,-1,-2,3,1,1,1,2021-08-07 10:33:32,443302
0,-1,-1,6,8,3,3,0,2021-08-07 10:33:32,459303
-2,-3,-4,-8,-7,-5,-2,-2,2021-08-07 10:33:32,475303
-1,1,-2,-2,1,-2,-2,1,2021-08-07 10:33:32,490301
-1,0,-1,-2,-8,-5,-5,-2,2021-08-07 10:33:32,490301
1,2,2,3,3,1,2,1,2021-08-07 10:33:32,491305
0,0,0,-4,-2,-3,1,-2,2021-08-07 10:33:32,491305
0,-2,-1,1,1,1,0,0,2021-08-07 10:33:32,491305
-1,0,-1,-2,-3,-3,-1,0,2021-08-07 10:33:32,491305
-3,0,-4,-7,-5,-1,-3,-2,2021-08-07 10:33:32,523301
-1,1,4,12,9,3,0,1,2021-08-07 10:33:32,523301
-1,-2,-1,-3,6,4,0,0,2021-08-07 10:33:32,523301
0,1,2,3,5,1,2,-1,2021-08-07 10:33:32,523301
0,-2,0,-2,-1,-4,-1,0,2021-08-07 10:33:32,523301
-2,-3,-5,-10,-13,-6,-4,-3,2021-08-07 10:33:32,523301
0,-4,-5,-11,-9,-5,-2,-2,2021-08-07 10:33:32,523301
2,3,3,9,12,7,2,2,2021-08-07 10:33:32,523301
-3,-2,-3,-6,-8,-3,-3,-4,2021-08-07 10:33:32,523301
-2,-2,0,0,-5,-1,-1,-2,2021-08-07 10:33:32,523301
-2,0,0,-1,3,4,1,-1,2021-08-07 10:33:32,523301
-1,-1,-1,2,7,3,1,0,2021-08-07 10:33:32,524302
-3,-2,-5,-15,-14,-7,-4,0,2021-08-07 10:33:32,524302
1,1,2,14,11,4,2,1,2021-08-07 10:33:32,524302
-2,-1,0,1,-1,0,-2,-2,2021-08-07 10:33:32,554302
-2,-1,-2,-1,-3,-1,-1,-2,2021-08-07 10:33:32,569303
0,-3,-3,-4,-7,-4,-2,-2,2021-08-07 10:33:32,601303
-2,-3,-2,-5,2,0,-3,-2,2021-08-07 10:33:32,617302
-1,0,0,0,-2,-1,0,1,2021-08-07 10:33:32,633302
0,-1,-1,2,5,3,1,-1,2021-08-07 10:33:32,633302
1,1,1,5,1,1,0,1,2021-08-07 10:33:32,633302
-1,-1,-6,-12,-11,-5,-2,-1,2021-08-07 10:33:32,633302
0,0,1,10,12,4,2,-1,2021-08-07 10:33:32,633302
-2,-1,1,4,-5,-5,-3,0,2021-08-07 10:33:32,633302
-4,-2,-4,-8,-2,-2,-1,-2,2021-08-07 10:33:32,633302
0,-3,1,-3,-5,-3,-2,-1,2021-08-07 10:33:32,633302
0,1,1,8,8,3,1,-1,2021-08-07 10:33:32,633302
0,-1,-4,-13,-12,-3,-1,-1,2021-08-07 10:33:32,633302
2,2,2,8,12,3,0,1,2021-08-07 10:33:32,634302
-1,-1,-3,-4,-3,-3,-2,-1,2021-08-07 10:33:32,634302
-1,-1,-2,-11,-10,-3,-2,-3,2021-08-07 10:33:32,634302
-3,-2,1,1,0,-1,-2,-2,2021-08-07 10:33:32,634302
0,-2,-1,0,-1,-1,0,0,2021-08-07 10:33:32,634302
-2,-1,-3,-5,-3,-1,1,-2,2021-08-07 10:33:32,634302
0,0,-2,-3,-1,-2,-4,0,2021-08-07 10:33:32,634302
0,0,0,-7,-7,-4,1,-2,2021-08-07 10:33:32,634302
-2,-2,-2,-7,-6,-2,-1,-3,2021-08-07 10:33:32,665302
-2,-3,-1,-1,0,0,0,-1,2021-08-07 10:33:32,681302
0,1,2,16,18,6,2,-1,2021-08-07 10:33:32,697302
-4,-5,-4,-9,-5,-1,-2,-2,2021-08-07 10:33:32,713302
2,3,8,19,11,5,2,2,2021-08-07 10:33:32,745301
4,2,0,-3,9,6,2,2,2021-08-07 10:33:32,745301
-3,-2,-6,-11,-24,-11,-4,-3,2021-08-07 10:33:32,745301
-2,-2,-7,-7,-1,-3,-3,-2,2021-08-07 10:33:32,745301
1,0,2,7,7,2,2,0,2021-08-07 10:33:32,745301
-1,-1,0,-5,2,-1,0,-1,2021-08-07 10:33:32,745301
1,1,1,9,8,6,3,1,2021-08-07 10:33:32,745301
-1,-1,-2,2,-6,-2,-4,0,2021-08-07 10:33:32,745301
-1,-3,-4,-8,-13,-3,-1,-1,2021-08-07 10:33:32,746303
-1,0,-3,-3,-8,-4,-2,-2,2021-08-07 10:33:32,746303
-3,-2,-2,-10,-7,-6,-1,-2,2021-08-07 10:33:32,746303
0,0,1,7,12,5,2,-1,2021-08-07 10:33:32,746303
2,1,1,3,2,0,0,0,2021-08-07 10:33:32,746303
-1,0,1,-5,-8,-3,-1,-2,2021-08-07 10:33:32,746303
-3,-4,-5,-6,-5,-5,-3,-1,2021-08-07 10:33:32,746303
1,0,-1,11,11,4,1,1,2021-08-07 10:33:32,746303
-2,0,-2,-5,-8,-2,-1,-1,2021-08-07 10:33:32,761301
-2,-2,1,6,4,-2,-3,0,2021-08-07 10:33:32,769302
-2,-2,-3,-6,-10,-6,-2,-1,2021-08-07 10:33:32,770303
2,1,-1,11,14,9,3,2,2021-08-07 10:33:32,770303
-3,-6,-8,-14,-11,-8,-5,-4,2021-08-07 10:33:32,770303
0,0,1,8,3,1,0,-1,2021-08-07 10:33:32,777302
-2,0,-1,-4,-1,-2,1,-2,2021-08-07 10:33:32,793301
-2,0,3,8,4,0,-1,0,2021-08-07 10:33:32,793301
-2,-2,-2,-7,-8,-4,-1,-2,2021-08-07 10:33:32,793301
-2,-1,-3,-3,-1,0,-1,0,2021-08-07 10:33:32,793301
-1,-1,-1,-3,-4,-2,-1,2,2021-08-07 10:33:32,809302
0,-2,-1,-3,-12,-4,-2,-2,2021-08-07 10:33:32,809302
-1,-1,-2,-1,7,4,0,0,2021-08-07 10:33:32,809302
-1,0,-1,1,-3,-1,-2,-1,2021-08-07 10:33:32,809302
-1,-2,-3,-12,-9,-3,-3,-2,2021-08-07 10:33:32,825302
0,2,5,15,14,6,1,-1,2021-08-07 10:33:32,825302
1,1,5,14,11,3,2,2,2021-08-07 10:33:32,825302
1,-1,-3,-8,-2,0,-1,0,2021-08-07 10:33:32,825302
0,-1,-1,0,7,2,1,0,2021-08-07 10:33:32,856303
-2,-3,-4,-15,-21,-10,-4,-2,2021-08-07 10:33:32,856303
-2,-1,-1,0,5,1,-1,-1,2021-08-07 10:33:32,856303
1,1,2,5,3,2,1,1,2021-08-07 10:33:32,856303
-1,1,2,6,4,2,0,-1,2021-08-07 10:33:32,872302
-1,-4,-5,-13,-10,-4,-2,-1,2021-08-07 10:33:32,872302
-4,-3,-1,7,2,-2,-3,-4,2021-08-07 10:33:32,872302
-1,1,-3,-6,-8,-4,-2,-1,2021-08-07 10:33:32,872302
1,1,1,2,6,5,1,0,2021-08-07 10:33:32,888302
0,1,2,1,-4,-2,-1,-1,2021-08-07 10:33:32,888302
-1,-2,0,2,3,1,0,-3,2021-08-07 10:33:32,888302
-2,-4,-6,-5,1,1,-1,-1,2021-08-07 10:33:32,888302
1,0,1,3,5,0,1,0,2021-08-07 10:33:32,904302
-3,-3,0,-5,0,-1,-1,-1,2021-08-07 10:33:32,919303
0,0,2,5,4,2,1,0,2021-08-07 10:33:32,935302
-1,-5,-6,-4,-9,-4,-1,-1,2021-08-07 10:33:32,935302
1,-1,3,10,9,0,1,-1,2021-08-07 10:33:32,935302
0,0,-2,-9,-10,-5,-1,-2,2021-08-07 10:33:32,935302
0,2,2,5,13,4,1,1,2021-08-07 10:33:32,935302
-2,-2,-1,2,-2,-2,-1,-1,2021-08-07 10:33:32,935302
-1,-1,-6,-4,-1,-1,-1,-2,2021-08-07 10:33:32,935302
-1,-2,-2,-4,-6,-3,-2,-2,2021-08-07 10:33:32,935302
2,2,3,6,4,3,2,0,2021-08-07 10:33:32,951304
-2,0,0,-7,-6,-2,0,-1,2021-08-07 10:33:32,951304
2,3,1,2,2,2,0,1,2021-08-07 10:33:32,967302
-1,0,1,5,2,0,-1,-1,2021-08-07 10:33:32,967302
0,-1,-3,-6,-1,0,-1,-2,2021-08-07 10:33:32,967302
-2,-1,2,3,5,1,-3,-2,2021-08-07 10:33:32,983301
-4,-4,-2,-6,-11,-6,-4,-3,2021-08-07 10:33:32,999302
-2,0,-1,-3,0,0,1,0,2021-08-07 10:33:33,015301
0,-1,-3,-7,-4,-5,-2,0,2021-08-07 10:33:33,044302
1,2,2,6,10,2,2,1,2021-08-07 10:33:33,045302
-1,-2,3,4,4,5,1,1,2021-08-07 10:33:33,045302
-2,-2,-1,-1,-4,-3,-2,-2,2021-08-07 10:33:33,045302
-2,-1,-4,-11,-17,-4,-4,0,2021-08-07 10:33:33,045302
0,1,2,10,19,5,2,-2,2021-08-07 10:33:33,045302
-2,-2,-3,-8,-12,-7,-4,-2,2021-08-07 10:33:33,045302
0,0,-3,-1,3,2,0,1,2021-08-07 10:33:33,045302
0,-1,0,0,-5,-3,-2,0,2021-08-07 10:33:33,045302
-1,-2,0,-3,-8,-4,-2,0,2021-08-07 10:33:33,045302
0,-1,-3,-3,-4,-2,-2,-2,2021-08-07 10:33:33,046302
-2,-3,2,3,1,1,-1,-2,2021-08-07 10:33:33,046302
-1,-2,-3,-8,-15,-7,-1,0,2021-08-07 10:33:33,046302
0,0,-2,1,11,5,0,1,2021-08-07 10:33:33,046302
3,4,4,11,10,4,4,3,2021-08-07 10:33:33,063304
2,0,-1,3,5,4,2,1,2021-08-07 10:33:33,079302
-3,-2,-3,-3,-1,-1,0,-2,2021-08-07 10:33:33,110301
-6,-5,-5,-8,-14,-5,-6,-6,2021-08-07 10:33:33,110301
-6,-2,-1,-5,-4,-3,-2,-4,2021-08-07 10:33:33,110301
-2,1,0,-3,-4,-4,-2,-2,2021-08-07 10:33:33,110301
1,2,4,7,2,0,-1,0,2021-08-07 10:33:33,110301
1,0,0,-2,-1,0,-1,1,2021-08-07 10:33:33,110301
-1,-2,-1,-5,-7,-3,-1,0,2021-08-07 10:33:33,110301
3,1,3,7,9,3,1,3,2021-08-07 10:33:33,110301
-2,-2,-3,-3,1,1,1,-1,2021-08-07 10:33:33,110301
-1,-1,-3,-7,-7,-3,0,0,2021-08-07 10:33:33,110301
0,0,2,3,-3,-2,0,-1,2021-08-07 10:33:33,126302
-2,-1,-1,2,6,2,1,-2,2021-08-07 10:33:33,126302
-2,-3,-6,-13,-16,-7,-3,-3,2021-08-07 10:33:33,126302
0,-1,-1,0,0,0,-2,-1,2021-08-07 10:33:33,126302
0,2,7,12,23,8,1,0,2021-08-07 10:33:33,142302
-3,-4,-9,-6,-8,-3,-4,-2,2021-08-07 10:33:33,142302
0,1,4,5,10,4,0,0,2021-08-07 10:33:33,142302
0,-1,-1,0,-20,-9,-2,-2,2021-08-07 10:33:33,142302
-2,-3,-4,-16,-10,-1,-2,-1,2021-08-07 10:33:33,173302
1,0,0,0,5,1,-2,1,2021-08-07 10:33:33,189302
-2,0,-2,-3,-6,-3,-2,0,2021-08-07 10:33:33,189302
0,1,2,5,4,1,1,0,2021-08-07 10:33:33,189302
1,0,0,-2,-4,-1,1,0,2021-08-07 10:33:33,189302
-1,0,-1,-3,-5,-4,-2,-1,2021-08-07 10:33:33,189302
-1,-2,0,1,3,2,0,0,2021-08-07 10:33:33,189302
-2,-1,-3,-7,-8,-5,-4,-1,2021-08-07 10:33:33,189302
-1,-2,-2,-3,-5,-1,-2,0,2021-08-07 10:33:33,204301
1,-2,1,8,10,4,0,0,2021-08-07 10:33:33,220302
1,0,1,2,1,-1,-1,0,2021-08-07 10:33:33,236301
0,0,0,-2,5,2,1,-1,2021-08-07 10:33:33,252301
0,0,2,9,4,0,1,-1,2021-08-07 10:33:33,252301
-1,-3,-2,-4,-8,-3,-1,-1,2021-08-07 10:33:33,252301
-3,-2,-1,-3,-1,-2,-1,-2,2021-08-07 10:33:33,252301
0,1,0,-5,-1,-1,0,0,2021-08-07 10:33:33,252301
0,-3,-11,-12,-7,-4,0,-1,2021-08-07 10:33:33,252301
-1,0,1,3,-1,-1,0,-1,2021-08-07 10:33:33,252301
-1,1,5,11,9,5,3,1,2021-08-07 10:33:33,252301
-1,-1,-1,-5,-7,-2,-1,-1,2021-08-07 10:33:33,252301
-1,-3,-5,-16,-17,-6,-4,0,2021-08-07 10:33:33,267302
-3,-4,-7,-4,15,4,1,-1,2021-08-07 10:33:33,283302
-2,-3,-2,-4,-9,-5,-4,-2,2021-08-07 10:33:33,298301
2,4,7,13,15,7,2,3,2021-08-07 10:33:33,298301
-2,0,4,4,-6,-5,-1,-3,2021-08-07 10:33:33,298301
-2,-2,-6,-18,-16,-9,-3,-2,2021-08-07 10:33:33,298301
4,5,6,11,18,9,4,4,2021-08-07 10:33:33,298301
-1,-2,-2,-2,-4,-4,0,-3,2021-08-07 10:33:33,298301
0,-2,-2,1,2,1,-1,0,2021-08-07 10:33:33,298301
-3,-2,-3,-9,-14,-6,-2,-2,2021-08-07 10:33:33,298301
-6,-5,-8,-14,-14,-6,-6,-7,2021-08-07 10:33:33,314302
0,1,-1,-3,1,2,0,0,2021-08-07 10:33:33,321303
1,1,6,23,18,7,1,0,2021-08-07 10:33:33,321303
0,1,5,5,1,1,0,0,2021-08-07 10:33:33,321303
0,-1,-1,-1,-3,-3,-2,1,2021-08-07 10:33:33,321303
-2,-4,-7,-4,-6,-4,-2,-1,2021-08-07 10:33:33,321303
-4,-2,-3,-12,-10,-5,-1,-3,2021-08-07 10:33:33,346302
-3,-1,1,3,-4,-1,-2,0,2021-08-07 10:33:33,361301
-4,-4,-8,-13,-16,-7,-3,-2,2021-08-07 10:33:33,392303
3,4,6,14,27,12,6,4,2021-08-07 10:33:33,392303
3,1,0,4,10,4,2,2,2021-08-07 10:33:33,392303
-1,1,2,6,3,0,-1,1,2021-08-07 10:33:33,392303
-1,-1,1,0,-7,-3,-1,0,2021-08-07 10:33:33,392303
-3,-4,-4,-8,-14,-7,-4,-3,2021-08-07 10:33:33,392303
-4,-7,-10,-18,-9,-6,-5,-3,2021-08-07 10:33:33,392303
-1,-3,-4,-12,-9,-1,-2,-2,2021-08-07 10:33:33,392303
3,2,2,11,14,5,1,1,2021-08-07 10:33:33,392303
0,2,3,9,8,2,1,-2,2021-08-07 10:33:33,392303
1,0,3,8,3,0,1,0,2021-08-07 10:33:33,424304
-2,-2,-3,-13,-14,-5,-3,-2,2021-08-07 10:33:33,424304
-2,-3,3,-4,3,1,0,0,2021-08-07 10:33:33,424304
-2,-4,-6,-2,-3,-1,-2,0,2021-08-07 10:33:33,424304
-1,-4,-5,0,-6,-2,-2,-2,2021-08-07 10:33:33,424304
3,2,3,7,4,1,3,2,2021-08-07 10:33:33,424304
5,2,2,6,11,5,0,1,2021-08-07 10:33:33,424304
-4,-2,-2,-15,-14,-6,-2,-2,2021-08-07 10:33:33,424304
-5,-3,-4,-8,-4,-5,-4,-5,2021-08-07 10:33:33,456302
-1,-1,-2,0,4,4,0,1,2021-08-07 10:33:33,456302
1,2,5,19,16,6,1,0,2021-08-07 10:33:33,456302
-1,0,-1,0,-3,0,-1,0,2021-08-07 10:33:33,456302
1,5,7,10,5,1,1,2,2021-08-07 10:33:33,472302
-1,-1,-2,-4,-4,-4,-1,0,2021-08-07 10:33:33,488304
-5,-5,-11,-15,-15,-6,-2,-3,2021-08-07 10:33:33,504302
-2,-5,-4,-4,-4,-4,-3,-3,2021-08-07 10:33:33,520303
2,4,6,6,6,4,1,1,2021-08-07 10:33:33,536302
1,0,2,4,4,0,-1,-2,2021-08-07 10:33:33,536302
-2,-1,-4,-4,-7,-3,-2,-1,2021-08-07 10:33:33,536302
0,0,-2,-2,-2,-2,-1,-1,2021-08-07 10:33:33,536302
-2,-3,0,-8,-9,-3,-1,-2,2021-08-07 10:33:33,536302
2,2,1,9,19,6,2,1,2021-08-07 10:33:33,536302
-1,-2,-1,-10,-11,-3,0,-1,2021-08-07 10:33:33,536302
-3,-4,-10,-11,-12,-4,-2,0,2021-08-07 10:33:33,536302
1,2,2,8,13,2,1,1,2021-08-07 10:33:33,536302
-2,-2,0,-3,-14,-6,-2,-1,2021-08-07 10:33:33,536302
-1,-1,2,6,14,4,0,-2,2021-08-07 10:33:33,536302
3,3,7,7,7,6,4,1,2021-08-07 10:33:33,537302
-1,-2,-6,-9,-5,0,-2,1,2021-08-07 10:33:33,537302
-2,-3,0,2,-2,-3,-1,-1,2021-08-07 10:33:33,537302
-2,-2,-4,-12,-14,-8,-3,-3,2021-08-07 10:33:33,552302
-3,-4,0,10,14,4,0,-2,2021-08-07 10:33:33,568302
1,0,-3,-5,-6,-4,-1,0,2021-08-07 10:33:33,583302
1,3,3,5,15,7,4,3,2021-08-07 10:33:33,583302
-1,-2,-2,-2,-8,-4,-2,-1,2021-08-07 10:33:33,583302
-3,-1,1,-4,-3,-3,-1,-2,2021-08-07 10:33:33,583302
-2,-3,-3,-3,-10,-3,-4,-4,2021-08-07 10:33:33,583302
-2,-3,-4,-4,-2,-1,-2,-2,2021-08-07 10:33:33,583302
3,3,3,9,10,4,4,4,2021-08-07 10:33:33,583302
0,0,-2,-2,-9,-4,-3,-1,2021-08-07 10:33:33,583302
0,1,1,3,10,5,2,1,2021-08-07 10:33:33,601302
-2,-3,-4,-7,-9,-4,-2,-1,2021-08-07 10:33:33,601302
1,3,3,9,6,6,1,1,2021-08-07 10:33:33,601302
-2,1,5,13,20,7,0,-1,2021-08-07 10:33:33,601302
0,1,4,5,-3,-1,-2,-1,2021-08-07 10:33:33,631301
0,-2,-3,-5,-6,-2,-2,-3,2021-08-07 10:33:33,631301
-3,-8,-13,-21,-20,-10,-6,-3,2021-08-07 10:33:33,631301
-2,-2,-2,-9,-5,-2,-2,-1,2021-08-07 10:33:33,631301
-2,-1,-1,2,1,-2,0,0,2021-08-07 10:33:33,647302
2,4,4,8,10,5,3,2,2021-08-07 10:33:33,647302
-2,1,3,-2,-3,-3,-1,-3,2021-08-07 10:33:33,647302
-1,1,1,1,-11,-5,-2,1,2021-08-07 10:33:33,647302
-2,-1,-5,-5,-1,-2,0,-1,2021-08-07 10:33:33,679303
-5,-4,-9,-15,-4,-3,-4,-5,2021-08-07 10:33:33,679303
0,-1,0,-8,-4,-2,-1,-1,2021-08-07 10:33:33,679303
0,-3,-7,1,3,1,0,-1,2021-08-07 10:33:33,679303
-1,-1,0,-3,-9,-6,-1,-1,2021-08-07 10:33:33,679303
2,3,5,13,10,3,2,1,2021-08-07 10:33:33,679303
-1,-1,0,3,2,0,0,0,2021-08-07 10:33:33,679303
1,0,1,-8,-2,-2,-1,-1,2021-08-07 10:33:33,679303
-2,-2,-4,-4,-6,-4,-2,-1,2021-08-07 10:33:33,711301
-3,-2,-3,1,0,-1,-1,-2,2021-08-07 10:33:33,727301
1,2,5,14,26,10,3,1,2021-08-07 10:33:33,727301
0,0,2,1,-10,-5,-1,-2,2021-08-07 10:33:33,727301
0,-2,-1,-1,-4,1,-2,-1,2021-08-07 10:33:33,727301
-1,-2,0,-1,4,-1,-2,0,2021-08-07 10:33:33,727301
1,2,-1,2,-1,-2,0,1,2021-08-07 10:33:33,727301
-2,-2,-5,-8,-2,-2,-2,0,2021-08-07 10:33:33,727301
-4,-6,-10,-22,-12,-7,-4,-4,2021-08-07 10:33:33,743303
-5,-4,-1,-2,-11,-4,-2,-2,2021-08-07 10:33:33,743303
-1,2,0,1,4,1,0,-1,2021-08-07 10:33:33,743303
3,6,4,9,11,6,3,2,2021-08-07 10:33:33,743303
0,2,4,8,6,2,1,0,2021-08-07 10:33:33,774304
-1,-1,1,-1,-5,-3,-1,1,2021-08-07 10:33:33,790302
-4,-5,-5,-2,-10,-5,-2,-2,2021-08-07 10:33:33,805302
-4,-5,-9,-13,-13,-6,-4,-3,2021-08-07 10:33:33,821302
1,1,1,-2,6,6,2,2,2021-08-07 10:33:33,821302
0,1,0,-2,-1,-2,-1,-2,2021-08-07 10:33:33,821302
0,-1,1,1,4,0,-1,-1,2021-08-07 10:33:33,821302
-1,0,4,5,1,0,0,-1,2021-08-07 10:33:33,821302
-3,-2,0,3,-2,-1,-1,-2,2021-08-07 10:33:33,821302
3,2,3,6,3,4,0,2,2021-08-07 10:33:33,821302
-3,-2,-5,-10,-10,-4,-3,-2,2021-08-07 10:33:33,821302
-3,-4,-6,-8,-10,-6,-2,-2,2021-08-07 10:33:33,821302
-1,-2,3,-1,1,1,-1,-1,2021-08-07 10:33:33,821302
-1,-2,-6,7,3,1,-2,-2,2021-08-07 10:33:33,821302
1,-1,-3,0,10,4,1,-1,2021-08-07 10:33:33,822302
0,-2,1,0,-3,-4,-2,-1,2021-08-07 10:33:33,822302
1,2,-1,1,2,3,1,1,2021-08-07 10:33:33,868302
0,-1,1,-3,-1,-2,0,0,2021-08-07 10:33:33,875302
1,0,0,1,-3,0,1,2,2021-08-07 10:33:33,875302
0,-2,-3,-1,3,2,2,0,2021-08-07 10:33:33,875302
-4,-4,-3,-5,1,-2,-2,-1,2021-08-07 10:33:33,875302
-5,-3,-3,-4,-10,-2,-2,-3,2021-08-07 10:33:33,875302
-3,1,0,2,5,1,-1,-1,2021-08-07 10:33:33,875302
1,1,4,2,2,-3,-2,-1,2021-08-07 10:33:33,875302
-2,1,3,4,0,0,-1,0,2021-08-07 10:33:33,884303
-1,-3,-5,-5,-5,-3,-2,-1,2021-08-07 10:33:33,884303
-3,-4,-1,-2,-8,-6,-2,-1,2021-08-07 10:33:33,884303
1,-2,-3,-1,-4,-1,-1,0,2021-08-07 10:33:33,884303
1,3,0,4,7,3,1,1,2021-08-07 10:33:33,916302
0,-1,0,1,2,-1,0,0,2021-08-07 10:33:33,932302
0,0,1,0,6,4,1,0,2021-08-07 10:33:33,948303
1,-1,3,4,7,1,0,1,2021-08-07 10:33:33,948303
0,-2,-2,2,-4,-2,-2,-2,2021-08-07 10:33:33,948303
-2,-3,-6,-10,-9,-4,-3,-2,2021-08-07 10:33:33,948303
-2,-5,-5,-10,-13,-7,-3,-4,2021-08-07 10:33:33,948303
-4,-3,-3,-6,-3,-1,-4,-3,2021-08-07 10:33:33,948303
4,5,4,9,21,11,6,4,2021-08-07 10:33:33,948303
-1,2,3,7,4,2,1,-1,2021-08-07 10:33:33,948303
-2,-2,-1,0,-5,-2,-1,-2,2021-08-07 10:33:33,948303
-3,-2,-2,-5,-7,-3,-1,-1,2021-08-07 10:33:33,948303
-3,-6,-8,-14,-15,-9,-4,-4,2021-08-07 10:33:33,980302
-1,-2,-3,-4,2,0,-2,-1,2021-08-07 10:33:33,996303
0,0,-1,0,2,1,0,1,2021-08-07 10:33:33,996303
0,0,0,-2,-3,-1,0,2,2021-08-07 10:33:33,996303
-2,-3,-5,-10,-13,-6,-2,-2,2021-08-07 10:33:33,996303
1,2,6,18,19,8,2,0,2021-08-07 10:33:33,996303
0,-1,-3,-6,-8,-2,-2,-2,2021-08-07 10:33:33,996303
-2,-1,-3,1,6,0,-2,-3,2021-08-07 10:33:33,996303
1,1,7,13,6,2,0,-1,2021-08-07 10:33:34,028302
-4,-1,-4,-5,-15,-7,-3,-1,2021-08-07 10:33:34,044303
0,-2,-2,-5,-6,-3,-2,0,2021-08-07 10:33:34,060302
-2,-1,-2,-2,11,6,1,0,2021-08-07 10:33:34,076302
1,2,7,16,15,6,2,1,2021-08-07 10:33:34,076302
-3,-3,-9,-13,-8,-2,-2,-2,2021-08-07 10:33:34,076302
-2,-1,1,1,4,2,0,-1,2021-08-07 10:33:34,076302
1,0,2,4,-7,-3,0,0,2021-08-07 10:33:34,076302
-2,-1,-2,-5,-8,-3,-4,-1,2021-08-07 10:33:34,092302
1,2,2,2,9,2,0,1,2021-08-07 10:33:34,092302
-4,-2,-4,2,-3,-2,-1,-1,2021-08-07 10:33:34,092302
-1,0,0,0,-1,-1,-1,0,2021-08-07 10:33:34,092302
-1,-3,0,-1,-3,-1,-1,-1,2021-08-07 10:33:34,092302
1,0,3,3,-2,-2,1,0,2021-08-07 10:33:34,092302
1,0,-2,-1,0,0,0,-1,2021-08-07 10:33:34,092302
-2,-2,-1,-3,1,1,0,-2,2021-08-07 10:33:34,092302
0,-1,-1,4,1,-2,-1,0,2021-08-07 10:33:34,092302
-4,-2,-5,-5,-6,-4,-3,-2,2021-08-07 10:33:34,092302
0,0,2,3,4,1,-1,0,2021-08-07 10:33:34,092302
0,-1,0,3,1,0,1,1,2021-08-07 10:33:34,093303
0,1,-2,-4,-1,0,1,-1,2021-08-07 10:33:34,108302
-3,-5,-3,-6,-4,-3,-3,-2,2021-08-07 10:33:34,123301
1,0,1,3,-3,0,0,0,2021-08-07 10:33:34,139302
-2,1,1,0,-2,-3,0,-3,2021-08-07 10:33:34,139302
-1,-4,-10,-9,-6,-2,-1,-2,2021-08-07 10:33:34,139302
2,0,-1,7,15,8,2,3,2021-08-07 10:33:34,139302
-4,-3,-1,1,-7,-6,-4,-5,2021-08-07 10:33:34,139302
-1,0,0,-6,-7,-4,-2,-1,2021-08-07 10:33:34,139302
-4,-2,-5,-12,-10,-4,-2,-3,2021-08-07 10:33:34,152302
0,2,5,9,13,6,4,0,2021-08-07 10:33:34,152302
2,-1,0,8,8,3,2,0,2021-08-07 10:33:34,152302
1,-1,-2,-4,-7,-2,-1,-2,2021-08-07 10:33:34,152302
-4,-4,-5,-2,-7,-6,-3,-4,2021-08-07 10:33:34,170302
0,-1,-5,-12,-13,-4,-4,-2,2021-08-07 10:33:34,186302
0,1,4,7,3,2,1,-1,2021-08-07 10:33:34,201303
-2,-4,-5,-5,0,0,-1,-2,2021-08-07 10:33:34,217305
1,2,3,4,6,3,2,2,2021-08-07 10:33:34,233301
0,-1,2,-6,-10,-6,-2,-1,2021-08-07 10:33:34,233301
0,-1,-3,-3,-2,-2,-1,0,2021-08-07 10:33:34,233301
0,-1,-4,0,-6,-3,-2,0,2021-08-07 10:33:34,233301
-3,-3,-5,-8,-1,-1,-3,-1,2021-08-07 10:33:34,233301
3,4,9,16,9,6,4,0,2021-08-07 10:33:34,233301
-1,0,0,-2,-4,-1,0,0,2021-08-07 10:33:34,233301
3,2,2,7,9,4,3,1,2021-08-07 10:33:34,233301
-4,-6,-10,-18,-16,-8,-5,-2,2021-08-07 10:33:34,233301
-3,-3,-4,-7,-5,-6,-4,-2,2021-08-07 10:33:34,233301
-2,-3,-3,-2,-1,0,-2,-2,2021-08-07 10:33:34,234302
0,0,0,-3,-4,-1,1,1,2021-08-07 10:33:34,234302
6,7,12,27,28,12,5,2,2021-08-07 10:33:34,249302
-2,-2,-1,-1,-7,-3,-2,-1,2021-08-07 10:33:34,249302
-3,-1,-1,-6,-5,-3,-1,-2,2021-08-07 10:33:34,249302
-2,0,1,-1,-4,-3,-3,-2,2021-08-07 10:33:34,249302
3,4,4,8,10,4,3,2,2021-08-07 10:33:34,296303
-2,-5,-6,-11,-8,-6,-3,-2,2021-08-07 10:33:34,312302
-5,-4,-5,-9,-14,-8,-4,-4,2021-08-07 10:33:34,328302
-1,0,3,9,9,5,1,1,2021-08-07 10:33:34,344302
2,4,9,13,6,4,2,2,2021-08-07 10:33:34,360301
1,3,0,4,4,1,1,0,2021-08-07 10:33:34,360301
1,0,-7,-11,-4,-1,0,-1,2021-08-07 10:33:34,360301
-7,-10,-8,-26,-17,-10,-7,-5,2021-08-07 10:33:34,360301
-5,-6,-11,-14,-15,-6,-4,-2,2021-08-07 10:33:34,360301
1,3,8,15,12,4,4,2,2021-08-07 10:33:34,360301
3,5,9,18,7,4,2,2,2021-08-07 10:33:34,360301
0,0,0,7,13,5,1,0,2021-08-07 10:33:34,360301
-4,-5,-7,-9,-7,-4,-3,-5,2021-08-07 10:33:34,360301
-2,-2,-3,-2,-5,-3,-1,0,2021-08-07 10:33:34,360301
-1,0,-3,-8,-1,-1,-1,0,2021-08-07 10:33:34,360301
1,2,4,7,0,-1,1,-1,2021-08-07 10:33:34,361303
1,-1,5,8,1,-1,-1,0,2021-08-07 10:33:34,361303
-5,-4,-8,-15,-14,-8,-5,-4,2021-08-07 10:33:34,361303
-1,-1,-1,-5,2,0,0,0,2021-08-07 10:33:34,361303
3,3,3,16,20,9,4,3,2021-08-07 10:33:34,361303
-1,-3,-6,-10,-6,-1,1,-1,2021-08-07 10:33:34,361303
-1,-2,-2,-5,-7,-4,-3,-3,2021-08-07 10:33:34,361303
-2,-3,2,-1,-7,-2,-3,0,2021-08-07 10:33:34,361303
3,4,0,6,6,2,2,2,2021-08-07 10:33:34,361303
1,0,0,5,3,-2,0,0,2021-08-07 10:33:34,391302
-1,-5,-4,-7,-2,-1,-1,-1,2021-08-07 10:33:34,391302
-2,-1,-1,-6,-4,-3,-1,-1,2021-08-07 10:33:34,391302
-1,-1,0,0,-7,-3,0,-1,2021-08-07 10:33:34,391302
0,2,1,-2,-3,1,-1,-1,2021-08-07 10:33:34,406302
0,1,3,0,2,-1,0,-1,2021-08-07 10:33:34,421303
0,-1,-4,-4,0,-1,-1,-1,2021-08-07 10:33:34,428302
-6,-9,-9,-19,-17,-8,-6,-3,2021-08-07 10:33:34,428302
-1,1,1,4,4,1,-1,0,2021-08-07 10:33:34,428302
-2,-1,-1,1,-2,1,-1,-1,2021-08-07 10:33:34,428302
4,3,7,21,23,9,1,1,2021-08-07 10:33:34,429302
4,4,5,7,3,3,3,2,2021-08-07 10:33:34,429302
-2,-4,-3,-3,-4,-4,-2,-3,2021-08-07 10:33:34,453302
-1,-1,-1,-1,-6,0,-1,0,2021-08-07 10:33:34,453302
-4,-3,-6,-13,-4,-2,-2,-1,2021-08-07 10:33:34,453302
-2,-1,-1,-2,-12,-6,-3,-3,2021-08-07 10:33:34,453302
2,2,5,10,13,4,1,1,2021-08-07 10:33:34,469302
2,2,3,6,8,3,3,1,2021-08-07 10:33:34,469302
-2,-1,-4,0,-5,-1,-2,-2,2021-08-07 10:33:34,469302
-5,-7,-12,-16,-4,0,-3,-3,2021-08-07 10:33:34,469302
0,0,3,2,5,1,1,-1,2021-08-07 10:33:34,485301
0,0,-2,-3,-6,-3,-2,-1,2021-08-07 10:33:34,485301
3,-1,-2,4,12,3,3,-1,2021-08-07 10:33:34,485301
0,2,7,11,2,-1,0,-1,2021-08-07 10:33:34,485301
-2,-2,-2,-7,-10,-3,-1,-2,2021-08-07 10:33:34,516302
1,2,6,12,16,5,2,0,2021-08-07 10:33:34,532302
-1,-4,-3,-10,-16,-7,-3,-2,2021-08-07 10:33:34,548302
0,0,-2,-3,3,2,1,0,2021-08-07 10:33:34,564302
-1,1,1,-5,-7,-3,-2,0,2021-08-07 10:33:34,564302
0,2,2,5,0,-2,1,-1,2021-08-07 10:33:34,564302
1,1,5,13,8,2,0,-1,2021-08-07 10:33:34,564302
-1,-3,-11,-16,-10,-4,-2,-1,2021-08-07 10:33:34,564302
-6,-9,-14,-30,-17,-11,-7,-5,2021-08-07 10:33:34,564302
-2,-3,-6,-8,-5,-3,-2,-2,2021-08-07 10:33:34,564302
2,2,3,12,10,4,0,1,2021-08-07 10:33:34,564302
1,2,8,15,8,2,1,0,2021-08-07 10:33:34,564302
1,2,5,15,4,1,0,2,2021-08-07 10:33:34,564302
1,0,-1,-5,-10,-5,-1,1,2021-08-07 10:33:34,564302
-2,-3,-2,-4,6,1,1,0,2021-08-07 10:33:34,580302
-3,-3,-5,-10,-10,-5,-2,-1,2021-08-07 10:33:34,596304
-4,-4,-4,-10,-7,-3,-2,-2,2021-08-07 10:33:34,596304
-1,-1,1,2,4,1,-1,-1,2021-08-07 10:33:34,596304
-2,-1,0,-3,-15,-7,-5,-2,2021-08-07 10:33:34,596304
-1,-2,-4,-10,-13,-5,-3,-1,2021-08-07 10:33:34,596304
2,5,9,30,39,14,4,2,2021-08-07 10:33:34,627302
3,4,9,11,3,3,2,0,2021-08-07 10:33:34,627302
-1,0,-3,-2,-4,-2,-1,-1,2021-08-07 10:33:34,627302
-8,-10,-21,-39,-29,-12,-8,-5,2021-08-07 10:33:34,627302
-5,-7,-10,-22,-22,-11,-7,-4,2021-08-07 10:33:34,627302
-1,-2,-7,2,6,3,1,1,2021-08-07 10:33:34,627302
-1,0,5,3,-1,0,-2,0,2021-08-07 10:33:34,627302
5,7,14,28,18,8,3,1,2021-08-07 10:33:34,627302
1,0,2,4,-3,-1,0,-1,2021-08-07 10:33:34,659302
-2,-2,-5,-9,-4,-2,-1,0,2021-08-07 10:33:34,675302
2,3,3,7,6,3,2,2,2021-08-07 10:33:34,675302
0,0,1,0,5,1,1,0,2021-08-07 10:33:34,675302
1,0,-3,1,1,2,1,-1,2021-08-07 10:33:34,675302
-8,-7,-12,-26,-23,-14,-8,-5,2021-08-07 10:33:34,675302
0,-3,-3,-1,3,2,0,-2,2021-08-07 10:33:34,675302
2,2,3,6,9,4,1,0,2021-08-07 10:33:34,675302
3,2,4,7,1,0,1,-1,2021-08-07 10:33:34,691302
0,0,-1,-5,0,1,0,0,2021-08-07 10:33:34,691302
2,2,2,-1,-5,-2,2,1,2021-08-07 10:33:34,691302
1,2,6,10,5,2,2,1,2021-08-07 10:33:34,691302
-4,-5,-5,-13,-11,-4,0,-3,2021-08-07 10:33:34,706301
-6,-6,-11,-15,-9,-4,-5,-6,2021-08-07 10:33:34,706301
-7,-6,-6,-15,-12,-6,-6,-5,2021-08-07 10:33:34,706301
-4,-3,-2,0,6,1,-2,-3,2021-08-07 10:33:34,706301
8,9,8,35,35,14,5,6,2021-08-07 10:33:34,721301
1,3,6,8,3,2,1,3,2021-08-07 10:33:34,721301
2,1,-5,-2,-10,-5,-1,0,2021-08-07 10:33:34,721301
-2,-1,1,2,0,0,-2,-1,2021-08-07 10:33:34,721301
1,-2,-3,-10,-12,-5,-1,-1,2021-08-07 10:33:34,752302
1,0,0,3,0,1,1,0,2021-08-07 10:33:34,752302
-6,-7,-10,-22,-10,-5,-3,-4,2021-08-07 10:33:34,752302
-2,-2,-3,-3,-6,-3,-1,-1,2021-08-07 10:33:34,752302
-3,-2,1,-3,1,-1,-3,-2,2021-08-07 10:33:34,784302
4,1,4,9,8,2,1,0,2021-08-07 10:33:34,800301
2,2,9,11,4,3,3,1,2021-08-07 10:33:34,800301
3,-1,-1,0,-1,1,1,0,2021-08-07 10:33:34,800301
-2,-3,-4,0,3,1,0,-2,2021-08-07 10:33:34,800301
-4,-3,-2,-17,-13,-7,-4,-3,2021-08-07 10:33:34,800301
-2,-3,-9,-2,1,-1,-2,-2,2021-08-07 10:33:34,800301
0,0,3,7,9,0,-1,0,2021-08-07 10:33:34,800301
1,3,3,1,-7,-1,-2,1,2021-08-07 10:33:34,816301
1,-1,0,2,5,2,1,0,2021-08-07 10:33:34,832302
-1,-1,4,-2,-1,-1,-1,-1,2021-08-07 10:33:34,847304
-3,-2,1,3,-2,-2,-1,-1,2021-08-07 10:33:34,863302
-1,-1,-3,-7,-14,-5,-5,-3,2021-08-07 10:33:34,879301
0,2,3,11,8,2,1,0,2021-08-07 10:33:34,895301
-1,-3,-7,-11,-4,-1,-1,-3,2021-08-07 10:33:34,895301
0,-3,-16,-26,-21,-8,-4,-2,2021-08-07 10:33:34,895301
-7,-7,-4,-6,-6,-6,-4,-3,2021-08-07 10:33:34,895301
1,1,4,9,8,4,0,-1,2021-08-07 10:33:34,895301
1,3,5,15,11,4,0,2,2021-08-07 10:33:34,895301
-2,-1,0,-2,-3,1,1,-2,2021-08-07 10:33:34,895301
-3,-3,-5,-13,-11,-5,-2,-1,2021-08-07 10:33:34,895301
-1,0,-4,4,0,-1,-2,0,2021-08-07 10:33:34,895301
0,0,1,3,-1,-1,-1,0,2021-08-07 10:33:34,895301
-1,0,1,3,2,0,-2,-1,2021-08-07 10:33:34,895301
-3,-1,-4,-9,-9,-4,-2,-1,2021-08-07 10:33:34,895301
-2,-3,-2,-7,-9,-6,-2,-2,2021-08-07 10:33:34,895301
0,2,4,8,12,7,2,1,2021-08-07 10:33:34,911302
-1,-1,-2,0,-2,-4,-1,-1,2021-08-07 10:33:34,911302
-3,-3,-4,-6,-2,-2,-1,-2,2021-08-07 10:33:34,911302
-5,-5,-4,-7,-6,-1,-2,-1,2021-08-07 10:33:34,911302
2,3,3,4,2,0,0,3,2021-08-07 10:33:34,911302
1,3,7,10,5,4,2,0,2021-08-07 10:33:34,911302
4,3,4,11,6,2,2,0,2021-08-07 10:33:34,927304
-1,-1,-3,-8,-5,-1,-2,-2,2021-08-07 10:33:34,927304
-7,-7,-13,-30,-29,-14,-8,-5,2021-08-07 10:33:34,927304
1,1,2,19,31,12,4,0,2021-08-07 10:33:34,927304
2,0,1,7,3,3,0,-2,2021-08-07 10:33:34,959302
-1,-1,-2,-2,-2,-1,-1,-1,2021-08-07 10:33:34,975301
2,2,3,2,1,1,2,-1,2021-08-07 10:33:34,988302
-1,-2,3,5,2,1,0,0,2021-08-07 10:33:34,988302
-3,-2,-2,0,-2,-1,-2,-4,2021-08-07 10:33:34,988302
2,1,2,4,3,2,-1,-1,2021-08-07 10:33:34,988302
-3,-2,1,2,-7,-4,-4,-2,2021-08-07 10:33:34,988302
-1,-2,-4,-13,-5,-6,-1,-1,2021-08-07 10:33:34,989302
-1,-2,-4,-4,5,2,0,1,2021-08-07 10:33:34,989302
-4,-6,-7,-13,-8,-4,-2,-2,2021-08-07 10:33:34,989302
-1,-2,0,1,2,1,1,0,2021-08-07 10:33:34,989302
-1,0,1,5,-1,0,-2,-2,2021-08-07 10:33:34,989302
-1,0,2,2,-8,-4,-1,-2,2021-08-07 10:33:35,022302
4,4,3,10,4,0,1,0,2021-08-07 10:33:35,038302
1,0,0,-5,12,4,0,1,2021-08-07 10:33:35,053301
-1,-2,-9,-7,-9,-5,-2,-1,2021-08-07 10:33:35,053301
-3,-5,-9,-17,-10,-4,-3,-3,2021-08-07 10:33:35,053301
-2,0,3,8,-2,-2,-1,0,2021-08-07 10:33:35,053301
-2,0,1,6,2,2,-2,-2,2021-08-07 10:33:35,053301
1,2,7,3,-2,1,-1,1,2021-08-07 10:33:35,053301
-2,0,1,-4,-2,-2,1,0,2021-08-07 10:33:35,053301
-1,-2,-5,-5,0,-1,-1,-1,2021-08-07 10:33:35,053301
-3,-4,-6,-3,-6,-4,-2,-3,2021-08-07 10:33:35,069302
-1,-2,-7,-15,-9,-3,-3,-1,2021-08-07 10:33:35,069302
3,4,7,12,18,6,2,2,2021-08-07 10:33:35,085302
-1,-1,-1,-2,-8,-3,-1,-1,2021-08-07 10:33:35,101303
4,5,8,25,27,11,6,3,2021-08-07 10:33:35,117328
-3,-4,-2,-2,-9,-3,-3,-4,2021-08-07 10:33:35,133327
-2,-2,-7,-5,-1,-2,-2,-1,2021-08-07 10:33:35,133327
-3,-2,-6,-13,-8,-4,-2,-2,2021-08-07 10:33:35,133327
-4,-3,-4,-18,-16,-8,-4,-2,2021-08-07 10:33:35,133327
0,1,0,4,5,1,1,0,2021-08-07 10:33:35,133327
3,1,3,13,5,2,-1,0,2021-08-07 10:33:35,133327
1,2,2,8,9,4,2,1,2021-08-07 10:33:35,133327
-5,-4,-6,-7,-13,-7,-2,-3,2021-08-07 10:33:35,133327
1,1,5,4,1,0,0,2,2021-08-07 10:33:35,133327
1,2,1,3,15,5,2,1,2021-08-07 10:33:35,133327
-1,-1,-4,-2,2,0,-2,0,2021-08-07 10:33:35,133327
-1,0,-2,1,-1,-1,-1,-1,2021-08-07 10:33:35,133327
-3,-2,-1,0,-8,-5,-2,-2,2021-08-07 10:33:35,134327
-4,-3,-4,-12,-26,-11,-5,-3,2021-08-07 10:33:35,149327
3,1,0,-3,8,6,4,1,2021-08-07 10:33:35,165327
3,3,5,21,23,8,2,3,2021-08-07 10:33:35,197329
-5,-4,-5,-7,-7,-5,-3,-3,2021-08-07 10:33:35,213327
-1,-2,1,-2,-6,-2,0,0,2021-08-07 10:33:35,229328
-2,-3,-5,-9,-11,-6,-3,-3,2021-08-07 10:33:35,261326
0,-3,-1,3,-2,0,0,-1,2021-08-07 10:33:35,270362
1,0,0,1,-1,-2,1,1,2021-08-07 10:33:35,270362
-3,-3,-3,-4,-3,-1,-3,-3,2021-08-07 10:33:35,270362
-1,-2,-1,-6,-2,-1,0,-1,2021-08-07 10:33:35,270362
1,1,-1,-3,1,0,1,-1,2021-08-07 10:33:35,270362
