EMG 1,EMG 2,EMG 3,EMG 4,EMG 5,EMG 6,EMG 7,EMG 8,Timestamp,Milliseconds
0,1,0,-5,-4,-1,-2,0,2021-08-07 10:31:58,455919
-2,-3,-2,-1,0,0,-2,-3,2021-08-07 10:31:58,455919
-6,-6,-6,-9,-14,-7,-6,-5,2021-08-07 10:31:58,455919
3,4,5,11,16,9,3,2,2021-08-07 10:31:58,455919
0,3,2,2,0,0,1,2,2021-08-07 10:31:58,455919
0,0,0,1,0,1,-2,2,2021-08-07 10:31:58,455919
-2,-3,-5,-6,-6,-7,-2,-4,2021-08-07 10:31:58,455919
-5,-6,-7,-11,-11,-5,-4,-3,2021-08-07 10:31:58,456918
-1,-1,-3,-5,-2,-1,0,1,2021-08-07 10:31:58,456918
1,1,1,-3,-2,0,0,-1,2021-08-07 10:31:58,456918
1,3,5,14,11,5,1,2,2021-08-07 10:31:58,471920
-1,0,0,-2,-3,-2,-2,-2,2021-08-07 10:31:58,471920
2,0,0,2,1,1,0,-2,2021-08-07 10:31:58,487921
0,-1,0,2,-3,-2,-1,-1,2021-08-07 10:31:58,487921
-3,-3,-6,-15,-17,-10,-4,-3,2021-08-07 10:31:58,487921
-1,0,-3,-17,-22,-8,-3,0,2021-08-07 10:31:58,487921
4,4,13,41,63,26,7,2,2021-08-07 10:31:58,519918
0,1,2,-1,6,1,1,1,2021-08-07 10:31:58,519918
2,1,4,13,13,6,3,-1,2021-08-07 10:31:58,519918
-4,-3,-6,-9,-15,-8,-4,-3,2021-08-07 10:31:58,519918
-3,-3,-6,-17,-19,-9,-4,-3,2021-08-07 10:31:58,535918
-2,-1,-3,-2,-3,-1,1,-3,2021-08-07 10:31:58,535918
0,0,1,0,1,1,0,0,2021-08-07 10:31:58,551918
-3,-2,0,-1,-4,-2,-1,-1,2021-08-07 10:31:58,551918
0,0,0,2,2,0,-2,-1,2021-08-07 10:31:58,582918
0,1,0,-3,-1,0,0,1,2021-08-07 10:31:58,582918
-1,-1,-1,1,-1,1,0,1,2021-08-07 10:31:58,582918
-3,-3,1,1,0,1,-1,-1,2021-08-07 10:31:58,582918
-2,-1,-3,-3,-4,-1,-1,-2,2021-08-07 10:31:58,598918
-2,-2,0,5,4,0,-2,-3,2021-08-07 10:31:58,613919
1,1,3,2,3,2,0,1,2021-08-07 10:31:58,613919
3,3,4,10,9,2,1,1,2021-08-07 10:31:58,613919
-2,-1,-3,-7,-4,-2,-2,-2,2021-08-07 10:31:58,613919
-1,-2,-5,-11,-13,-4,-1,-2,2021-08-07 10:31:58,613919
-3,-5,-7,-15,-21,-10,-4,-1,2021-08-07 10:31:58,613919
5,5,10,31,34,16,5,3,2021-08-07 10:31:58,613919
-1,-1,0,1,6,3,1,-1,2021-08-07 10:31:58,613919
-2,-3,-2,-4,-2,-1,-2,-3,2021-08-07 10:31:58,614918
3,2,0,-4,-5,-1,2,2,2021-08-07 10:31:58,614918
0,-1,-5,-14,-16,-7,-4,-1,2021-08-07 10:31:58,614918
-11,-8,-6,-10,-21,-20,-17,-12,2021-08-07 10:31:58,628918
-2,-2,-3,-3,3,-3,-2,1,2021-08-07 10:31:58,628918
1,2,2,7,9,7,6,3,2021-08-07 10:31:58,659918
-1,0,-3,-7,0,0,2,-2,2021-08-07 10:31:58,675918
2,0,-1,1,2,4,2,-1,2021-08-07 10:31:58,691918
-3,-1,-3,-10,-13,-8,-6,-3,2021-08-07 10:31:58,691918
2,1,3,8,12,4,1,0,2021-08-07 10:31:58,691918
0,-1,-3,-4,-6,1,3,2,2021-08-07 10:31:58,691918
0,0,-2,-5,-6,-3,0,0,2021-08-07 10:31:58,691918
-6,-7,-4,-4,-7,-4,-8,-4,2021-08-07 10:31:58,691918
8,10,8,8,11,5,5,3,2021-08-07 10:31:58,691918
-2,-3,-4,-10,-10,-5,-3,-3,2021-08-07 10:31:58,691918
0,-2,-2,2,2,1,1,0,2021-08-07 10:31:58,691918
3,3,3,0,3,5,4,4,2021-08-07 10:31:58,691918
-2,-2,-1,0,0,-2,-2,-2,2021-08-07 10:31:58,707920
-5,-5,-4,-10,-12,-7,-5,-3,2021-08-07 10:31:58,723917
0,1,1,5,7,1,1,0,2021-08-07 10:31:58,723917
-1,-1,-3,0,2,1,2,0,2021-08-07 10:31:58,723917
-2,-3,-3,-4,-3,0,-1,-3,2021-08-07 10:31:58,739918
2,5,8,20,8,-1,-1,-1,2021-08-07 10:31:58,739918
-3,-4,-3,-2,8,1,-4,-1,2021-08-07 10:31:58,739918
1,3,1,1,-4,-1,0,1,2021-08-07 10:31:58,739918
-3,-3,-3,-4,1,-3,-2,-1,2021-08-07 10:31:58,755919
-7,-10,-11,-16,-15,-11,-6,-6,2021-08-07 10:31:58,771919
5,7,6,1,-3,0,3,3,2021-08-07 10:31:58,787917
4,2,3,7,8,4,0,1,2021-08-07 10:31:58,787917
-1,-2,1,7,1,-3,-1,-1,2021-08-07 10:31:58,787917
-1,-1,-2,-2,-3,2,-1,-2,2021-08-07 10:31:58,787917
1,1,2,5,7,4,4,1,2021-08-07 10:31:58,787917
-3,-3,-4,-6,-6,-4,0,-1,2021-08-07 10:31:58,787917
-2,-1,-3,-4,-5,1,-1,-3,2021-08-07 10:31:58,787917
-1,-2,2,7,4,0,-1,-1,2021-08-07 10:31:58,787917
-1,-3,-3,-4,0,1,-1,-1,2021-08-07 10:31:58,787917
3,2,7,13,5,4,3,2,2021-08-07 10:31:58,787917
-1,-2,0,2,6,1,-1,-1,2021-08-07 10:31:58,819918
-2,-2,-5,-12,-15,-7,-3,-2,2021-08-07 10:31:58,835918
-3,-5,-5,-13,-8,-4,-2,-1,2021-08-07 10:31:58,836918
-1,0,1,9,6,0,-1,-2,2021-08-07 10:31:58,836918
-2,-2,-4,-11,-4,0,-2,-1,2021-08-07 10:31:58,836918
1,2,4,3,5,2,2,1,2021-08-07 10:31:58,837919
-2,-3,-3,-3,-9,-2,0,-1,2021-08-07 10:31:58,837919
1,4,0,-1,0,1,2,-1,2021-08-07 10:31:58,851918
-2,-2,-3,-4,-7,-4,-3,-3,2021-08-07 10:31:58,867919
-1,-2,-4,-9,-6,-5,-2,-2,2021-08-07 10:31:58,883919
-2,-2,-1,-3,-2,0,-3,-1,2021-08-07 10:31:58,883919
-1,-2,2,10,9,4,-1,-3,2021-08-07 10:31:58,883919
-1,0,-3,-4,-4,-2,-2,-1,2021-08-07 10:31:58,883919
1,1,1,4,2,1,1,0,2021-08-07 10:31:58,883919
0,-1,-2,0,1,0,-1,-1,2021-08-07 10:31:58,883919
-4,-5,-8,-15,-17,-7,-4,-3,2021-08-07 10:31:58,883919
2,3,4,13,13,2,-1,0,2021-08-07 10:31:58,899918
1,0,3,11,16,8,2,1,2021-08-07 10:31:58,915919
4,4,4,8,5,2,2,2,2021-08-07 10:31:58,931919
0,-2,-2,-8,-7,-3,-1,-2,2021-08-07 10:31:58,947921
-6,-6,-5,-9,-17,-10,-4,-2,2021-08-07 10:31:58,947921
0,0,1,1,9,4,0,0,2021-08-07 10:31:58,947921
2,1,2,1,0,0,-1,0,2021-08-07 10:31:58,947921
-1,-1,-1,0,4,1,1,0,2021-08-07 10:31:58,947921
-2,-3,-3,-8,-10,-3,-2,-1,2021-08-07 10:31:58,947921
-2,-3,-3,-2,-2,-2,-2,-1,2021-08-07 10:31:58,947921
0,-2,-1,-2,-12,-6,-2,0,2021-08-07 10:31:58,947921
-1,-2,0,11,16,6,0,-2,2021-08-07 10:31:58,947921
-1,0,-1,-2,0,0,0,-1,2021-08-07 10:31:58,963919
-2,-1,-3,-10,-15,-6,-2,-1,2021-08-07 10:31:58,963919
2,4,5,8,10,4,4,1,2021-08-07 10:31:58,963919
-1,-1,-3,-4,-10,-5,-3,-1,2021-08-07 10:31:58,963919
-1,-2,-2,2,3,2,-2,-1,2021-08-07 10:31:58,979918
-3,-4,-7,-10,-2,-2,-1,-2,2021-08-07 10:31:58,995918
-1,0,0,7,1,-1,0,1,2021-08-07 10:31:59,010917
1,2,-1,-4,-2,1,0,0,2021-08-07 10:31:59,025919
0,0,0,2,2,-2,0,-2,2021-08-07 10:31:59,025919
0,-1,0,-2,-5,-1,-1,-1,2021-08-07 10:31:59,025919
-3,-5,-3,-6,-4,-3,-3,-2,2021-08-07 10:31:59,025919
-1,-2,-3,-3,0,0,-1,0,2021-08-07 10:31:59,025919
2,1,3,5,6,4,0,2,2021-08-07 10:31:59,025919
0,0,-1,-6,-4,-1,0,1,2021-08-07 10:31:59,025919
-1,-4,-4,-1,0,1,-1,-1,2021-08-07 10:31:59,025919
-6,-3,-5,-7,-5,-4,-3,-4,2021-08-07 10:31:59,025919
0,2,3,8,2,0,-2,-1,2021-08-07 10:31:59,026920
2,3,4,7,4,1,-1,1,2021-08-07 10:31:59,026920
0,2,6,11,10,4,1,-1,2021-08-07 10:31:59,026920
2,-2,-3,-10,-11,-5,-1,1,2021-08-07 10:31:59,026920
-2,-2,-2,-2,0,-1,0,0,2021-08-07 10:31:59,057918
2,1,0,-3,-5,-2,1,0,2021-08-07 10:31:59,057918
-2,-3,-5,-8,-4,-2,-2,0,2021-08-07 10:31:59,073917
2,2,5,7,4,2,1,1,2021-08-07 10:31:59,073917
-3,-2,-2,0,-8,-5,-2,-2,2021-08-07 10:31:59,073917
0,-2,-2,-4,2,3,-1,-1,2021-08-07 10:31:59,073917
-2,-1,-2,1,-7,-6,-2,-3,2021-08-07 10:31:59,073917
-3,-3,-3,-8,-2,-1,-1,-3,2021-08-07 10:31:59,073917
2,2,3,4,12,7,2,2,2021-08-07 10:31:59,089918
-3,-3,-7,-11,-17,-8,-3,-3,2021-08-07 10:31:59,089918
0,0,5,15,16,6,1,-1,2021-08-07 10:31:59,089918
-2,-2,-4,-3,-5,-2,-2,-1,2021-08-07 10:31:59,089918
-3,-5,-11,-30,-51,-23,-7,-4,2021-08-07 10:31:59,117921
4,2,10,34,63,29,10,5,2021-08-07 10:31:59,117921
1,2,0,-10,-3,0,0,-1,2021-08-07 10:31:59,117921
2,1,5,17,9,3,1,1,2021-08-07 10:31:59,117921
-4,-3,-4,-7,-4,-4,-2,-2,2021-08-07 10:31:59,136917
-3,-2,-6,-10,-19,-10,-4,-2,2021-08-07 10:31:59,152919
0,0,0,9,0,1,-1,0,2021-08-07 10:31:59,168918
-1,-1,-1,-3,4,2,0,1,2021-08-07 10:31:59,184918
-4,-4,-7,-12,-14,-8,-5,-5,2021-08-07 10:31:59,184918
1,1,3,8,6,1,2,-1,2021-08-07 10:31:59,184918
-1,-1,-2,-3,0,-1,-2,0,2021-08-07 10:31:59,184918
-2,-2,-4,-13,-18,-9,-4,-2,2021-08-07 10:31:59,184918
-5,-6,-2,1,6,3,-3,-4,2021-08-07 10:31:59,184918
4,4,4,1,-2,1,3,4,2021-08-07 10:31:59,184918
1,1,-1,-7,0,-1,0,-2,2021-08-07 10:31:59,185918
2,1,3,13,17,4,1,1,2021-08-07 10:31:59,185918
-4,-6,-6,-12,-6,-5,-4,-3,2021-08-07 10:31:59,185918
-1,1,0,9,6,1,-2,-1,2021-08-07 10:31:59,185918
1,2,-2,-6,0,2,1,1,2021-08-07 10:31:59,200919
-5,-4,-5,-7,-11,-6,-4,-3,2021-08-07 10:31:59,216920
5,4,4,8,14,7,4,3,2021-08-07 10:31:59,216920
-7,-6,-9,-23,-28,-13,-7,-5,2021-08-07 10:31:59,216920
0,2,2,8,5,0,0,2,2021-08-07 10:31:59,216920
2,3,5,13,20,8,3,1,2021-08-07 10:31:59,216920
-2,-1,-2,2,3,0,-1,0,2021-08-07 10:31:59,232918
-3,-2,-4,-10,-16,-6,-4,-4,2021-08-07 10:31:59,232918
-3,-3,-1,-7,0,-1,-3,-3,2021-08-07 10:31:59,232918
-3,-3,-6,-13,-15,-6,-4,-2,2021-08-07 10:31:59,232918
-2,-2,-7,-23,-19,-5,-1,0,2021-08-07 10:31:59,248919
1,4,11,34,28,10,4,0,2021-08-07 10:31:59,248919
-2,-2,-2,2,9,2,1,0,2021-08-07 10:31:59,264918
1,2,4,3,-3,-1,0,1,2021-08-07 10:31:59,264918
0,-2,-1,3,2,-1,0,-2,2021-08-07 10:31:59,296918
-6,-5,-8,-13,-10,-7,-5,-7,2021-08-07 10:31:59,311918
2,-1,-5,-9,-5,-1,1,1,2021-08-07 10:31:59,327918
1,2,0,0,-6,-2,-1,1,2021-08-07 10:31:59,327918
2,1,2,6,10,5,2,-1,2021-08-07 10:31:59,327918
-4,-3,-4,-10,-13,-6,-4,-2,2021-08-07 10:31:59,327918
0,-1,2,7,4,1,0,-1,2021-08-07 10:31:59,327918
0,1,-1,1,4,1,0,0,2021-08-07 10:31:59,327918
1,2,2,9,11,6,3,1,2021-08-07 10:31:59,327918
-3,-4,-7,-14,-11,-4,-4,-1,2021-08-07 10:31:59,327918
-5,-4,-6,-18,-34,-16,-6,-3,2021-08-07 10:31:59,327918
4,4,8,20,24,12,3,3,2021-08-07 10:31:59,327918
2,5,12,30,42,17,6,6,2021-08-07 10:31:59,327918
0,-1,-3,-1,-4,-2,-2,0,2021-08-07 10:31:59,328918
-3,-3,-5,-9,-13,-6,-3,-3,2021-08-07 10:31:59,328918
-3,-3,-1,-4,-6,-3,-2,-3,2021-08-07 10:31:59,328918
-1,0,0,2,2,-1,-2,0,2021-08-07 10:31:59,359920
0,-1,0,-6,-3,-1,0,1,2021-08-07 10:31:59,375918
-2,-2,-4,-11,-7,-4,-4,-2,2021-08-07 10:31:59,375918
-2,-1,-1,-2,-1,-2,0,-1,2021-08-07 10:31:59,375918
2,0,0,2,4,2,1,0,2021-08-07 10:31:59,375918
0,2,1,3,0,0,1,1,2021-08-07 10:31:59,375918
-4,-2,-5,-8,-4,-2,-2,-1,2021-08-07 10:31:59,375918
-7,-6,-5,-9,-13,-8,-3,-3,2021-08-07 10:31:59,375918
1,3,3,7,3,0,0,0,2021-08-07 10:31:59,391917
2,-3,-1,-7,-5,-4,-1,-1,2021-08-07 10:31:59,391917
1,1,3,10,8,3,1,1,2021-08-07 10:31:59,391917
-2,-2,-3,-6,-4,-4,-2,-1,2021-08-07 10:31:59,391917
-3,-4,-4,-10,-15,-6,-4,-1,2021-08-07 10:31:59,421918
0,0,-1,-1,-1,-1,0,-1,2021-08-07 10:31:59,421918
-1,-2,-2,5,8,2,0,-2,2021-08-07 10:31:59,421918
0,0,0,0,2,2,1,0,2021-08-07 10:31:59,421918
-2,-2,-2,-6,-7,-3,-2,-1,2021-08-07 10:31:59,437918
-1,-2,-3,-6,-7,-4,-3,-2,2021-08-07 10:31:59,437918
-2,-3,-2,-10,-1,1,0,-1,2021-08-07 10:31:59,453920
3,2,2,4,3,2,2,1,2021-08-07 10:31:59,469918
-1,1,2,11,6,2,0,0,2021-08-07 10:31:59,501918
-2,-2,0,2,6,2,0,1,2021-08-07 10:31:59,517919
-4,-4,-4,-5,-6,-6,-4,-4,2021-08-07 10:31:59,533918
2,1,0,2,5,3,2,1,2021-08-07 10:31:59,533918
0,-1,-3,-5,-6,-2,-1,-2,2021-08-07 10:31:59,533918
-1,-2,-3,-8,-13,-5,-2,-3,2021-08-07 10:31:59,533918
1,0,5,18,28,12,4,1,2021-08-07 10:31:59,533918
-5,-4,-6,-7,-6,-3,-3,-3,2021-08-07 10:31:59,533918
-1,-2,0,-1,-7,-3,-1,1,2021-08-07 10:31:59,534919
1,1,-2,-1,-1,-2,0,0,2021-08-07 10:31:59,534919
0,1,-1,-5,-14,-7,-1,1,2021-08-07 10:31:59,534919
-1,-2,-1,1,-1,-1,-1,-2,2021-08-07 10:31:59,534919
0,-3,-5,-5,13,5,1,0,2021-08-07 10:31:59,534919
-1,-2,0,3,5,3,0,-1,2021-08-07 10:31:59,534919
3,2,1,5,1,3,1,0,2021-08-07 10:31:59,534919
1,-1,-2,-7,-11,-5,-2,0,2021-08-07 10:31:59,534919
-1,-2,-3,-6,-12,-8,-5,-1,2021-08-07 10:31:59,534919
1,-1,0,-1,3,0,0,0,2021-08-07 10:31:59,534919
-3,-4,-4,-6,-12,-6,-3,-3,2021-08-07 10:31:59,534919
1,-2,-1,-1,4,1,0,-1,2021-08-07 10:31:59,534919
1,2,5,13,9,5,1,0,2021-08-07 10:31:59,565918
-1,0,0,3,3,0,0,0,2021-08-07 10:31:59,565918
-1,1,-3,-5,-7,-5,-2,-1,2021-08-07 10:31:59,565918
-1,-1,-2,-7,-7,-3,0,0,2021-08-07 10:31:59,565918
-2,-1,-3,-3,2,-1,1,0,2021-08-07 10:31:59,581918
-1,0,0,8,7,5,0,-3,2021-08-07 10:31:59,581918
-1,-1,2,1,-2,-2,-1,-1,2021-08-07 10:31:59,581918
0,-1,-5,-13,-19,-9,-3,-2,2021-08-07 10:31:59,581918
-1,-1,-1,-12,-6,0,1,-1,2021-08-07 10:31:59,597918
1,2,7,26,31,9,1,1,2021-08-07 10:31:59,597918
0,0,-1,-1,0,1,0,-2,2021-08-07 10:31:59,597918
0,0,1,5,6,0,-1,-1,2021-08-07 10:31:59,597918
-3,-4,-6,-16,-23,-13,-5,-4,2021-08-07 10:31:59,644918
-3,-4,-7,-24,-41,-16,-5,-4,2021-08-07 10:31:59,660917
3,1,5,21,44,19,5,3,2021-08-07 10:31:59,676918
2,4,6,8,11,5,4,1,2021-08-07 10:31:59,680918
-1,0,0,6,-3,0,-1,0,2021-08-07 10:31:59,681919
-5,-7,-8,-11,-11,-7,-3,-2,2021-08-07 10:31:59,681919
-2,-4,-6,-16,-24,-10,-4,-2,2021-08-07 10:31:59,681919
0,0,1,7,11,5,1,2,2021-08-07 10:31:59,681919
1,2,1,2,4,1,0,-1,2021-08-07 10:31:59,681919
-1,0,-1,0,-4,-2,0,-2,2021-08-07 10:31:59,681919
2,0,1,-4,-12,-3,0,0,2021-08-07 10:31:59,681919
-2,-2,-2,3,8,0,-2,-2,2021-08-07 10:31:59,681919
-2,-3,-1,-6,-6,-4,-4,-1,2021-08-07 10:31:59,681919
2,1,5,7,9,5,2,2,2021-08-07 10:31:59,681919
-2,1,1,1,9,3,2,0,2021-08-07 10:31:59,682918
-3,-1,-1,-1,-4,-3,-2,-1,2021-08-07 10:31:59,682918
-1,0,-3,-6,-9,-4,-2,0,2021-08-07 10:31:59,708919
1,2,3,2,6,2,0,1,2021-08-07 10:31:59,708919
-3,-4,-6,-11,-13,-6,-4,-1,2021-08-07 10:31:59,708919
0,0,0,8,12,5,2,-1,2021-08-07 10:31:59,708919
-1,1,-1,1,0,1,3,1,2021-08-07 10:31:59,708919
-1,-2,-5,-6,-3,-3,0,-2,2021-08-07 10:31:59,708919
-3,-1,-3,-1,-6,-4,-2,-3,2021-08-07 10:31:59,724917
-5,-5,-7,-12,-16,-8,-6,-5,2021-08-07 10:31:59,739919
-5,-3,-1,-2,-2,-2,-2,-5,2021-08-07 10:31:59,755918
3,6,8,20,30,13,4,4,2021-08-07 10:31:59,755918
2,0,3,9,-3,-2,-1,-1,2021-08-07 10:31:59,755918
2,-1,-2,-13,-10,-5,-2,0,2021-08-07 10:31:59,755918
1,0,2,2,-7,-4,1,1,2021-08-07 10:31:59,755918
-1,-3,-3,-8,-5,0,-1,1,2021-08-07 10:31:59,755918
2,2,0,5,13,4,3,0,2021-08-07 10:31:59,755918
3,3,4,10,18,7,3,1,2021-08-07 10:31:59,755918
-1,-3,-3,0,2,0,-2,-2,2021-08-07 10:31:59,787918
-4,-3,-6,-15,-18,-9,-4,-2,2021-08-07 10:31:59,802917
-2,-3,-2,-2,-7,-3,-1,-2,2021-08-07 10:31:59,802917
-4,-3,-4,-7,-12,-6,-4,-2,2021-08-07 10:31:59,818918
2,1,-1,-3,-1,1,2,3,2021-08-07 10:31:59,834918
0,1,2,5,8,4,1,-1,2021-08-07 10:31:59,834918
-1,-1,-3,-2,-2,-3,-1,-1,2021-08-07 10:31:59,850919
-3,-3,-2,-4,-12,-6,-3,-4,2021-08-07 10:31:59,850919
-3,-6,-10,-16,-13,-6,-2,0,2021-08-07 10:31:59,850919
3,5,9,22,24,10,4,3,2021-08-07 10:31:59,850919
-1,1,3,7,7,2,-1,0,2021-08-07 10:31:59,850919
-1,2,1,1,-4,-2,-1,-2,2021-08-07 10:31:59,850919
-1,-3,0,3,5,-1,-2,-2,2021-08-07 10:31:59,850919
-4,-5,-9,-22,-27,-14,-4,-3,2021-08-07 10:31:59,850919
2,2,4,12,25,11,3,3,2021-08-07 10:31:59,850919
-1,-1,1,7,2,-1,0,1,2021-08-07 10:31:59,850919
-2,-2,-3,-4,-4,-1,-2,-3,2021-08-07 10:31:59,851918
0,-1,-2,-1,-2,-3,-2,-2,2021-08-07 10:31:59,851918
1,2,1,-5,-10,-3,-2,0,2021-08-07 10:31:59,851918
-2,-2,-5,-10,-5,-4,-1,-1,2021-08-07 10:31:59,851918
2,2,3,6,4,3,0,1,2021-08-07 10:31:59,882918
-3,-4,-3,-4,-4,-2,-2,-2,2021-08-07 10:31:59,882918
-2,0,0,3,0,-1,-2,-1,2021-08-07 10:31:59,882918
2,0,-2,-3,1,1,0,-2,2021-08-07 10:31:59,882918
-3,-1,-3,-7,-1,-1,0,-3,2021-08-07 10:31:59,914917
0,1,5,19,16,5,1,1,2021-08-07 10:31:59,914917
-4,-3,-6,-12,-10,-6,-4,-2,2021-08-07 10:31:59,914917
1,1,3,5,2,0,-1,0,2021-08-07 10:31:59,914917
0,1,1,-2,-7,-5,-2,0,2021-08-07 10:31:59,914917
1,-1,-4,-13,-4,0,-1,-1,2021-08-07 10:31:59,914917
0,-1,4,9,-1,0,2,0,2021-08-07 10:31:59,914917
-2,-3,-2,5,4,2,-2,-2,2021-08-07 10:31:59,914917
0,0,0,2,6,1,0,-2,2021-08-07 10:31:59,946919
0,1,2,4,11,6,1,3,2021-08-07 10:31:59,962918
0,-2,-2,-2,-6,-5,-2,-1,2021-08-07 10:31:59,963919
-2,-2,-6,-10,-14,-7,-2,-2,2021-08-07 10:31:59,963919
0,1,2,4,-4,-1,-1,0,2021-08-07 10:31:59,964919
-2,-1,-1,5,14,5,1,0,2021-08-07 10:31:59,964919
-2,-3,-5,-8,-3,-2,-2,-1,2021-08-07 10:31:59,964919
-2,-3,-2,-6,-7,-3,-2,-1,2021-08-07 10:31:59,964919
-3,-1,-2,-2,-1,-3,-3,-1,2021-08-07 10:31:59,978918
2,2,0,-2,-3,-1,1,1,2021-08-07 10:31:59,978918
-1,1,2,4,2,0,1,1,2021-08-07 10:31:59,978918
-1,1,0,-6,-8,-1,-2,0,2021-08-07 10:31:59,978918
1,-1,1,9,18,5,0,0,2021-08-07 10:32:00,010918
-2,-4,-3,-7,-6,-3,-2,-2,2021-08-07 10:32:00,026920
2,1,4,16,14,5,1,0,2021-08-07 10:32:00,026920
-1,-1,-2,-3,-3,-1,-1,0,2021-08-07 10:32:00,026920
-2,-3,-3,-4,-5,-2,-1,-2,2021-08-07 10:32:00,058918
-3,-2,-6,-10,-17,-8,-4,-3,2021-08-07 10:32:00,058918
-2,-3,-4,-10,-7,-2,-2,0,2021-08-07 10:32:00,058918
0,1,1,0,1,1,0,0,2021-08-07 10:32:00,058918
1,1,-1,-3,0,2,1,1,2021-08-07 10:32:00,058918
-2,-2,1,8,5,-2,-3,-3,2021-08-07 10:32:00,058918
1,-1,0,-1,0,-2,0,-1,2021-08-07 10:32:00,058918
1,0,1,3,6,2,0,0,2021-08-07 10:32:00,058918
-1,-2,1,-5,-2,0,-2,-1,2021-08-07 10:32:00,074917
0,-1,2,2,-2,-1,1,1,2021-08-07 10:32:00,090943
-2,-3,-4,-4,-5,-4,-3,-2,2021-08-07 10:32:00,090943
-1,-1,1,3,3,-1,-1,-1,2021-08-07 10:32:00,090943
-1,-2,-2,-1,-5,-4,-3,-2,2021-08-07 10:32:00,090943
0,0,-2,-9,-8,-4,-2,-1,2021-08-07 10:32:00,090943
-3,-2,-2,-3,-3,-3,-1,-3,2021-08-07 10:32:00,090943
0,-1,-2,-3,1,1,2,0,2021-08-07 10:32:00,106944
0,2,3,12,5,2,-1,1,2021-08-07 10:32:00,122944
-1,0,-2,0,0,0,-1,1,2021-08-07 10:32:00,122944
-3,0,-3,-3,-5,0,-2,-1,2021-08-07 10:32:00,122944
-2,-1,0,1,-1,-2,-3,0,2021-08-07 10:32:00,122944
0,1,2,0,1,1,1,0,2021-08-07 10:32:00,122944
-2,-3,-2,-3,-4,-4,-3,-3,2021-08-07 10:32:00,122944
2,0,-1,-3,-2,-2,0,0,2021-08-07 10:32:00,122944
-3,-1,-3,-1,-1,0,-1,-2,2021-08-07 10:32:00,122944
-1,-3,-2,-2,-3,-4,-1,-1,2021-08-07 10:32:00,153943
-2,1,-3,-5,-14,-6,-2,-4,2021-08-07 10:32:00,169944
-2,0,-5,-11,0,3,0,-1,2021-08-07 10:32:00,185943
0,0,1,6,11,4,1,1,2021-08-07 10:32:00,201943
1,1,2,8,4,2,0,0,2021-08-07 10:32:00,201943
2,2,3,8,8,3,3,-1,2021-08-07 10:32:00,201943
-5,-6,-5,-15,-27,-12,-6,-2,2021-08-07 10:32:00,201943
0,1,1,3,11,4,1,1,2021-08-07 10:32:00,201943
-2,-2,-1,-1,1,1,-1,-2,2021-08-07 10:32:00,201943
-3,-4,-4,-9,-12,-5,-2,-2,2021-08-07 10:32:00,201943
0,0,2,6,6,1,0,1,2021-08-07 10:32:00,201943
-1,0,-2,-3,-10,-5,-2,-1,2021-08-07 10:32:00,201943
-2,-2,-6,-14,-20,-12,-4,-4,2021-08-07 10:32:00,217944
1,3,5,14,31,15,5,2,2021-08-07 10:32:00,217944
-1,2,1,3,0,1,0,-1,2021-08-07 10:32:00,217944
-3,-2,-3,-7,-8,-4,-2,-2,2021-08-07 10:32:00,217944
1,0,1,3,3,3,0,0,2021-08-07 10:32:00,217944
0,1,2,8,7,1,-1,-1,2021-08-07 10:32:00,217944
-2,-3,-5,-18,-18,-6,-2,-2,2021-08-07 10:32:00,217944
0,0,-1,5,6,2,2,0,2021-08-07 10:32:00,217944
0,3,5,14,23,9,3,2,2021-08-07 10:32:00,248944
-2,-3,-2,-4,-14,-8,-3,-1,2021-08-07 10:32:00,248944
-1,-3,-1,-2,-1,-4,-3,-1,2021-08-07 10:32:00,248944
-2,-1,0,1,-2,1,-1,-1,2021-08-07 10:32:00,248944
-2,-3,-5,-10,-11,-6,-2,-2,2021-08-07 10:32:00,257944
-3,-3,-6,-14,-20,-10,-5,-2,2021-08-07 10:32:00,257944
2,1,1,13,30,11,4,2,2021-08-07 10:32:00,258946
2,2,4,8,9,3,2,3,2021-08-07 10:32:00,258946
-1,-1,-1,-3,-4,-3,0,-1,2021-08-07 10:32:00,280945
-2,-3,-3,-5,-12,-7,-4,-3,2021-08-07 10:32:00,280945
0,-1,-1,-4,-11,-2,0,-1,2021-08-07 10:32:00,280945
2,2,6,21,30,9,4,1,2021-08-07 10:32:00,280945
-4,-4,-6,-18,-23,-9,-5,-3,2021-08-07 10:32:00,311453
0,-2,-3,-13,-7,-3,-3,-2,2021-08-07 10:32:00,311453
4,4,8,20,20,7,3,3,2021-08-07 10:32:00,311453
-4,-3,-5,-13,-19,-7,-5,-3,2021-08-07 10:32:00,311453
1,1,3,10,10,1,1,2,2021-08-07 10:32:00,327454
-5,-6,-10,-23,-25,-11,-6,-5,2021-08-07 10:32:00,343454
-3,-1,0,-2,6,4,0,0,2021-08-07 10:32:00,359454
0,0,0,1,3,1,0,0,2021-08-07 10:32:00,390454
2,0,-1,1,-4,-1,0,0,2021-08-07 10:32:00,422454
0,-3,-2,-5,4,3,0,2,2021-08-07 10:32:00,438454
0,-1,-1,1,-2,-2,-1,-1,2021-08-07 10:32:00,454455
-2,-2,-2,-6,-11,-6,-2,-3,2021-08-07 10:32:00,470452
-3,-4,-6,-14,-12,-6,-6,-4,2021-08-07 10:32:00,470452
2,3,6,18,23,11,4,3,2021-08-07 10:32:00,470452
-1,0,3,10,9,2,0,-2,2021-08-07 10:32:00,470452
-1,-1,-2,-5,-11,-3,-1,0,2021-08-07 10:32:00,470452
0,1,0,-2,-1,1,0,1,2021-08-07 10:32:00,470452
1,2,1,2,5,0,-2,1,2021-08-07 10:32:00,470452
-1,-1,-1,1,-3,-3,-1,-2,2021-08-07 10:32:00,470452
-2,-2,-4,-4,-9,-6,-3,-3,2021-08-07 10:32:00,470452
2,-1,4,21,27,10,4,2,2021-08-07 10:32:00,471455
-4,-5,-1,1,-6,-1,0,-3,2021-08-07 10:32:00,471455
2,-1,-5,-15,-12,-6,-2,0,2021-08-07 10:32:00,471455
-1,0,2,2,4,1,1,1,2021-08-07 10:32:00,471455
-4,-2,-1,-2,-4,-4,-3,-2,2021-08-07 10:32:00,471455
-5,-1,0,1,1,0,-3,-4,2021-08-07 10:32:00,471455
-4,-3,-3,0,0,-3,-5,-4,2021-08-07 10:32:00,471455
2,3,5,8,6,5,2,1,2021-08-07 10:32:00,471455
-1,-1,-3,-11,-17,-6,-2,-1,2021-08-07 10:32:00,471455
1,-2,-2,-2,11,3,1,1,2021-08-07 10:32:00,471455
-2,0,1,4,-8,-4,-3,1,2021-08-07 10:32:00,471455
0,-2,-4,-8,-8,-4,-3,-2,2021-08-07 10:32:00,472454
1,0,-2,-5,-6,-3,-4,-1,2021-08-07 10:32:00,472454
-2,-1,0,9,3,0,0,-1,2021-08-07 10:32:00,472454
3,3,3,5,11,6,4,3,2021-08-07 10:32:00,472454
-1,-1,0,5,2,0,-1,-1,2021-08-07 10:32:00,472454
-5,-3,-3,-3,1,-1,-1,-2,2021-08-07 10:32:00,486453
-2,-2,-5,-11,-22,-9,-4,-3,2021-08-07 10:32:00,502453
-2,0,-3,-9,-3,1,-1,0,2021-08-07 10:32:00,502453
2,3,7,18,29,11,5,2,2021-08-07 10:32:00,518454
-1,-2,-2,0,4,0,-1,1,2021-08-07 10:32:00,518454
-1,0,1,2,-3,-2,-2,0,2021-08-07 10:32:00,518454
-2,-3,-4,-12,-19,-6,-3,-3,2021-08-07 10:32:00,518454
-3,-2,-6,-18,-15,-8,-4,-2,2021-08-07 10:32:00,518454
-1,0,1,8,18,7,2,1,2021-08-07 10:32:00,518454
5,3,5,14,7,1,2,3,2021-08-07 10:32:00,518454
-2,-2,0,-3,-5,-3,-2,-2,2021-08-07 10:32:00,518454
-2,-5,-8,-13,-14,-4,-4,-2,2021-08-07 10:32:00,518454
0,1,2,5,2,2,0,-1,2021-08-07 10:32:00,548454
-2,-4,-6,-11,-10,-3,-1,1,2021-08-07 10:32:00,549453
1,1,4,10,9,4,0,0,2021-08-07 10:32:00,549453
-1,-2,-2,-8,-10,-5,-2,-1,2021-08-07 10:32:00,549453
-3,-1,0,0,-1,0,1,-1,2021-08-07 10:32:00,565961
1,0,1,-3,3,2,0,0,2021-08-07 10:32:00,581475
-3,-2,-1,2,-2,-1,0,-2,2021-08-07 10:32:00,597475
0,-1,-3,-3,-3,-1,-1,-1,2021-08-07 10:32:00,612474
-2,-2,-8,-15,-21,-9,-4,-2,2021-08-07 10:32:00,643475
3,4,11,30,46,17,6,2,2021-08-07 10:32:00,643475
0,-1,1,5,5,2,1,-1,2021-08-07 10:32:00,643475
-2,-3,-2,-2,-4,-3,-1,-1,2021-08-07 10:32:00,643475
0,0,0,-1,-8,-5,-3,-2,2021-08-07 10:32:00,643475
-3,-3,-8,-25,-32,-13,-4,-3,2021-08-07 10:32:00,643475
1,0,2,11,23,6,1,-1,2021-08-07 10:32:00,643475
-2,-1,-1,-1,-7,-3,-1,-2,2021-08-07 10:32:00,643475
0,-2,-3,-3,6,4,0,0,2021-08-07 10:32:00,643475
-4,-1,-4,-7,-12,-5,-3,-3,2021-08-07 10:32:00,643475
1,0,3,12,15,5,3,2,2021-08-07 10:32:00,643475
-2,-1,-2,0,-1,-2,0,0,2021-08-07 10:32:00,643475
0,0,0,-2,-2,-1,-1,0,2021-08-07 10:32:00,643475
-3,-2,-4,-1,-2,-1,-1,-4,2021-08-07 10:32:00,644474
-1,1,-4,-11,-12,-5,-3,0,2021-08-07 10:32:00,644474
2,0,-2,-7,-8,-2,-1,1,2021-08-07 10:32:00,644474
-3,0,1,5,10,4,0,-1,2021-08-07 10:32:00,659473
1,1,4,11,12,4,2,0,2021-08-07 10:32:00,675474
-5,-4,-7,-12,-13,-5,-5,-4,2021-08-07 10:32:00,691474
-2,0,-1,2,1,1,0,1,2021-08-07 10:32:00,691474
-2,-1,-1,0,-2,0,0,1,2021-08-07 10:32:00,691474
1,0,-1,-4,1,-2,1,1,2021-08-07 10:32:00,691474
-2,-3,-3,-3,-3,-3,0,-2,2021-08-07 10:32:00,691474
-1,0,-1,-3,-1,-1,-2,-2,2021-08-07 10:32:00,691474
0,0,3,5,6,2,1,1,2021-08-07 10:32:00,691474
-1,-2,-2,-5,-5,-4,-2,0,2021-08-07 10:32:00,691474
-1,-1,0,-4,-5,-2,-3,-1,2021-08-07 10:32:00,723473
-1,-2,-2,0,-4,-2,1,-2,2021-08-07 10:32:00,739475
-1,-2,-3,-4,-4,-4,0,-3,2021-08-07 10:32:00,739475
-3,-2,-2,-3,1,1,-3,-3,2021-08-07 10:32:00,739475
-2,-3,1,4,3,-3,-1,-3,2021-08-07 10:32:00,739475
0,0,-1,-2,-2,-1,0,-1,2021-08-07 10:32:00,739475
4,2,4,13,8,5,3,3,2021-08-07 10:32:00,755474
0,0,0,-1,4,2,0,0,2021-08-07 10:32:00,771474
-1,0,-3,-8,-10,-4,-2,-1,2021-08-07 10:32:00,771474
-3,-2,-2,-5,-1,-1,-4,-2,2021-08-07 10:32:00,771474
0,-1,0,-1,-3,-5,-2,-2,2021-08-07 10:32:00,771474
0,0,-1,-1,-3,-1,-1,-1,2021-08-07 10:32:00,771474
-1,-1,-3,-7,-9,-3,0,0,2021-08-07 10:32:00,771474
-2,-1,-5,-8,-13,-10,-5,-2,2021-08-07 10:32:00,771474
-1,-1,1,10,18,9,1,1,2021-08-07 10:32:00,786681
0,2,2,5,15,6,3,1,2021-08-07 10:32:00,801987
3,4,2,2,-8,-1,3,2,2021-08-07 10:32:00,801987
0,-4,1,-1,2,1,-1,-1,2021-08-07 10:32:00,801987
-4,-2,-4,-2,-3,-4,-2,-1,2021-08-07 10:32:00,801987
-6,-6,-7,-8,-14,-7,-4,-2,2021-08-07 10:32:00,801987
-1,-2,-4,-8,-7,-5,-4,-2,2021-08-07 10:32:00,801987
2,5,3,5,7,5,1,2,2021-08-07 10:32:00,801987
2,2,2,-1,-6,-2,-2,-1,2021-08-07 10:32:00,833987
2,0,3,3,4,2,0,0,2021-08-07 10:32:00,833987
-3,-5,-6,-23,-30,-11,-4,-4,2021-08-07 10:32:00,835986
2,4,4,24,44,15,4,2,2021-08-07 10:32:00,835986
-1,0,0,2,-1,0,0,0,2021-08-07 10:32:00,835986
0,1,-1,-6,-8,-2,0,-1,2021-08-07 10:32:00,835986
1,0,4,13,16,4,0,0,2021-08-07 10:32:00,835986
0,-2,-4,-13,-16,-6,-4,-2,2021-08-07 10:32:00,835986
-2,-1,-4,-6,-2,-1,-3,-2,2021-08-07 10:32:00,865986
1,1,0,3,-7,-2,-1,0,2021-08-07 10:32:00,881986
-3,-3,-2,0,2,0,-1,-1,2021-08-07 10:32:00,897986
-2,-1,-1,-3,-2,-1,-1,-2,2021-08-07 10:32:00,897986
-3,-3,-5,-12,-16,-7,-5,-2,2021-08-07 10:32:00,897986
1,-1,0,-1,-1,-1,-1,1,2021-08-07 10:32:00,897986
1,-1,1,5,9,3,1,0,2021-08-07 10:32:00,897986
-1,1,1,1,-2,2,1,0,2021-08-07 10:32:00,897986
1,1,1,-1,-3,-1,1,1,2021-08-07 10:32:00,897986
0,-1,0,1,5,1,-1,-1,2021-08-07 10:32:00,897986
-1,-2,-3,-4,-10,-7,-3,-1,2021-08-07 10:32:00,897986
2,0,2,12,18,10,3,1,2021-08-07 10:32:00,898986
-3,-2,2,10,18,6,1,-1,2021-08-07 10:32:00,928985
1,2,2,4,-1,1,1,0,2021-08-07 10:32:00,928985
-3,-2,-4,-10,-6,-3,-2,-3,2021-08-07 10:32:00,928985
-4,-4,-4,-16,-19,-10,-4,-2,2021-08-07 10:32:00,928985
2,3,4,8,4,2,0,2,2021-08-07 10:32:00,958985
-2,-4,-5,-9,-11,-5,-3,-2,2021-08-07 10:32:00,974986
-2,-1,-2,2,9,3,1,-2,2021-08-07 10:32:00,990986
1,4,0,6,14,4,1,1,2021-08-07 10:32:00,990986
-1,-1,0,0,2,0,-2,-1,2021-08-07 10:32:00,990986
-3,-3,-3,-4,-7,-5,-1,0,2021-08-07 10:32:00,990986
-1,-2,-4,-8,-17,-5,-4,-1,2021-08-07 10:32:01,021987
-2,-2,-2,0,4,-1,-1,-2,2021-08-07 10:32:01,021987
0,-2,-1,-3,-1,-3,-1,-1,2021-08-07 10:32:01,021987
-4,-5,-6,-6,-8,-5,-3,-4,2021-08-07 10:32:01,021987
2,4,4,8,3,0,2,3,2021-08-07 10:32:01,021987
0,2,-1,-2,-3,-1,1,0,2021-08-07 10:32:01,021987
-2,0,0,0,-1,1,0,-2,2021-08-07 10:32:01,021987
-2,-1,2,11,13,7,1,-1,2021-08-07 10:32:01,021987
-4,-3,-4,-4,-4,-2,-1,-2,2021-08-07 10:32:01,021987
-2,-3,0,2,8,1,1,0,2021-08-07 10:32:01,022986
0,-3,-5,-12,-15,-9,-2,-2,2021-08-07 10:32:01,022986
3,4,3,8,19,10,2,3,2021-08-07 10:32:01,022986
1,0,1,2,1,1,-1,-1,2021-08-07 10:32:01,022986
-1,0,4,16,2,-1,0,-2,2021-08-07 10:32:01,022986
-5,-4,-4,-7,-13,-5,-4,-3,2021-08-07 10:32:01,053986
-2,-3,-5,-10,-8,-3,-3,-2,2021-08-07 10:32:01,053986
3,2,2,8,19,8,2,3,2021-08-07 10:32:01,053986
-1,-3,-4,-8,-15,-4,-3,-3,2021-08-07 10:32:01,053986
0,0,0,2,14,4,2,0,2021-08-07 10:32:01,069986
-1,-1,0,3,-5,-4,-2,-1,2021-08-07 10:32:01,069986
-2,-4,-4,-6,-7,-4,-3,0,2021-08-07 10:32:01,069986
-3,-3,-2,-9,-14,-6,-2,-3,2021-08-07 10:32:01,069986
0,2,-1,-2,9,4,1,1,2021-08-07 10:32:01,101986
-2,-3,-5,-8,-12,-8,-3,-3,2021-08-07 10:32:01,112004
0,0,4,10,10,4,1,-1,2021-08-07 10:32:01,112004
0,1,0,3,2,0,0,2,2021-08-07 10:32:01,112004
2,1,0,1,-5,-1,-1,-1,2021-08-07 10:32:01,112004
-3,-1,1,1,0,-3,0,-1,2021-08-07 10:32:01,112004
-3,-1,-6,-8,-8,-2,-2,-4,2021-08-07 10:32:01,132004
-2,-3,-4,-5,-3,-6,-5,-2,2021-08-07 10:32:01,148005
-2,-4,-5,-13,-18,-7,-4,-2,2021-08-07 10:32:01,164005
4,5,6,15,27,11,5,2,2021-08-07 10:32:01,180007
-1,-3,-4,-5,-6,-3,0,0,2021-08-07 10:32:01,196005
0,-1,-3,-2,0,1,2,0,2021-08-07 10:32:01,196005
-3,-3,-2,-4,-3,-3,-1,-2,2021-08-07 10:32:01,196005
-4,-5,-6,-18,-21,-8,-4,-3,2021-08-07 10:32:01,196005
-4,-1,3,8,19,4,-2,-4,2021-08-07 10:32:01,196005
2,6,8,17,5,4,1,1,2021-08-07 10:32:01,196005
1,0,-1,-6,-1,-1,0,0,2021-08-07 10:32:01,196005
1,-1,-2,0,-7,-3,-1,-1,2021-08-07 10:32:01,196005
2,-1,0,5,7,3,0,0,2021-08-07 10:32:01,196005
1,-2,-4,-7,-8,-4,-1,1,2021-08-07 10:32:01,196005
-1,0,1,6,3,1,1,-1,2021-08-07 10:32:01,196005
-1,-4,-5,-11,-16,-5,-3,-1,2021-08-07 10:32:01,196005
2,1,0,5,10,3,3,1,2021-08-07 10:32:01,196005
-1,-2,2,3,9,2,-1,-2,2021-08-07 10:32:01,197006
-2,-3,3,4,1,0,1,1,2021-08-07 10:32:01,211005
-2,-2,-4,-7,-3,-2,-1,-1,2021-08-07 10:32:01,227005
-2,0,0,2,-1,0,-1,0,2021-08-07 10:32:01,227005
-1,-4,-5,-7,-6,-3,-1,-1,2021-08-07 10:32:01,227005
0,-1,-2,2,1,-2,-1,0,2021-08-07 10:32:01,227005
-2,-3,-5,-3,-3,-3,-4,-3,2021-08-07 10:32:01,243004
2,1,0,-7,-15,-4,0,0,2021-08-07 10:32:01,243004
0,-1,3,13,15,5,2,0,2021-08-07 10:32:01,243004
-2,-3,-1,1,3,-1,-2,0,2021-08-07 10:32:01,243004
1,0,6,12,15,7,2,-1,2021-08-07 10:32:01,243004
-2,-3,-5,-7,-10,-5,-3,-2,2021-08-07 10:32:01,243004
-2,-2,-2,-12,-15,-6,-2,-2,2021-08-07 10:32:01,243004
0,-1,-5,-7,-4,-1,-2,-2,2021-08-07 10:32:01,259005
-3,-1,-1,-1,-1,-2,0,-2,2021-08-07 10:32:01,259005
-3,-3,-2,-8,-6,-4,-1,-2,2021-08-07 10:32:01,275004
2,1,3,7,10,4,1,0,2021-08-07 10:32:01,275004
-1,-1,-1,-2,-4,-2,-1,-1,2021-08-07 10:32:01,291004
-1,1,1,1,2,-1,-2,0,2021-08-07 10:32:01,291004
-3,-2,-4,-5,-3,-3,0,-1,2021-08-07 10:32:01,291004
-2,-2,0,-1,0,-1,-1,-1,2021-08-07 10:32:01,291004
2,1,3,7,9,5,1,2,2021-08-07 10:32:01,306005
-2,0,-1,-5,-13,-6,-2,1,2021-08-07 10:32:01,322209
-1,-1,1,1,4,1,0,0,2021-08-07 10:32:01,353005
-2,-2,-5,-7,-9,-4,-1,-1,2021-08-07 10:32:01,369006
0,-1,-2,-1,-1,-3,0,-2,2021-08-07 10:32:01,385004
0,0,1,2,1,0,1,0,2021-08-07 10:32:01,385004
-1,0,-3,-3,-4,-2,-2,-2,2021-08-07 10:32:01,385004
-3,-3,-3,-9,-8,-4,-2,0,2021-08-07 10:32:01,385004
-1,-2,0,0,-2,-2,-1,0,2021-08-07 10:32:01,385004
-1,-1,1,1,2,1,0,-2,2021-08-07 10:32:01,385004
0,2,2,3,4,1,-2,0,2021-08-07 10:32:01,385004
-1,0,-7,-7,-11,-5,-2,-2,2021-08-07 10:32:01,385004
-3,-10,-6,-11,-16,-7,-4,-2,2021-08-07 10:32:01,386005
2,1,5,14,16,8,1,1,2021-08-07 10:32:01,386005
-1,0,-1,-9,-5,-1,0,0,2021-08-07 10:32:01,386005
2,1,5,13,26,9,2,0,2021-08-07 10:32:01,386005
-3,-2,-6,-13,-15,-7,-3,-3,2021-08-07 10:32:01,386005
-2,0,1,12,8,1,-1,-1,2021-08-07 10:32:01,386005
-2,-2,-1,-2,-10,-5,-3,-1,2021-08-07 10:32:01,386005
-1,2,1,-3,-8,-2,-1,-1,2021-08-07 10:32:01,386005
-1,-1,0,-2,-2,-1,-1,0,2021-08-07 10:32:01,403006
-1,-2,-4,-10,-10,-3,-2,-1,2021-08-07 10:32:01,403006
3,3,4,10,10,5,3,2,2021-08-07 10:32:01,403006
-2,-4,-3,-6,-6,-2,-3,-2,2021-08-07 10:32:01,403006
-1,1,-2,2,1,-2,-1,-2,2021-08-07 10:32:01,433004
-2,1,-4,-6,-2,0,-2,0,2021-08-07 10:32:01,449005
-3,-6,-5,-5,-8,-4,-4,-3,2021-08-07 10:32:01,449005
-1,0,1,-1,-1,0,0,-1,2021-08-07 10:32:01,449005
1,3,5,11,6,3,2,-1,2021-08-07 10:32:01,449005
1,-1,-2,-3,3,-1,1,0,2021-08-07 10:32:01,449005
-3,-4,-4,-7,-6,-5,-2,-3,2021-08-07 10:32:01,449005
-1,-1,1,5,3,2,-1,-1,2021-08-07 10:32:01,449005
-2,-1,0,4,12,5,0,0,2021-08-07 10:32:01,465005
1,0,-2,-3,-13,-4,0,1,2021-08-07 10:32:01,465005
2,-1,-3,-5,-5,-1,-2,-2,2021-08-07 10:32:01,465005
-2,-1,-3,-6,-11,-7,-3,-1,2021-08-07 10:32:01,465005
-1,-1,-5,-16,-26,-11,-4,-3,2021-08-07 10:32:01,497005
-1,-2,1,14,37,12,2,1,2021-08-07 10:32:01,513005
0,3,3,9,2,2,2,0,2021-08-07 10:32:01,513005
-3,-2,-5,-13,-13,-6,-2,-2,2021-08-07 10:32:01,513005
0,2,4,12,6,3,0,-1,2021-08-07 10:32:01,513005
2,2,-1,-9,-8,-1,0,0,2021-08-07 10:32:01,513005
0,0,1,3,7,2,1,-1,2021-08-07 10:32:01,513005
1,-2,-2,-1,2,-1,-1,0,2021-08-07 10:32:01,513005
-1,-2,0,-3,-1,2,1,1,2021-08-07 10:32:01,528005
-2,-2,-3,-7,-15,-6,-4,-3,2021-08-07 10:32:01,528005
-1,-1,0,6,5,1,-1,-1,2021-08-07 10:32:01,528005
-3,-1,-2,2,0,-1,-4,-4,2021-08-07 10:32:01,528005
-2,-1,-2,-4,-2,-1,-1,-2,2021-08-07 10:32:01,559006
-1,-3,0,2,-4,-2,1,0,2021-08-07 10:32:01,559006
-2,-5,-5,-14,-10,-3,-2,0,2021-08-07 10:32:01,559006
1,1,-2,-10,-17,-6,-1,-1,2021-08-07 10:32:01,559006
1,2,4,14,27,9,4,1,2021-08-07 10:32:01,559006
-1,0,3,10,2,3,2,-1,2021-08-07 10:32:01,559006
-3,-5,-7,-12,-5,-6,-3,-1,2021-08-07 10:32:01,575004
-1,-2,-1,-3,-5,0,3,0,2021-08-07 10:32:01,575004
3,2,4,16,22,8,1,1,2021-08-07 10:32:01,590004
-1,-3,-3,-15,-21,-10,-6,-3,2021-08-07 10:32:01,606005
0,2,1,13,20,7,3,1,2021-08-07 10:32:01,622005
-3,-5,-5,-9,-6,-2,-2,-4,2021-08-07 10:32:01,622005
1,4,1,-5,-5,-1,2,0,2021-08-07 10:32:01,622005
-1,-1,0,1,5,2,0,0,2021-08-07 10:32:01,622005
-3,-2,1,4,-4,-3,-3,-3,2021-08-07 10:32:01,622005
-2,0,3,6,10,2,1,1,2021-08-07 10:32:01,622005
-2,-3,-2,-7,-10,-5,-4,-1,2021-08-07 10:32:01,622005
0,-1,-2,-2,-7,-4,-2,0,2021-08-07 10:32:01,622005
0,-1,-1,-2,-5,0,1,-1,2021-08-07 10:32:01,622005
0,0,1,4,8,3,0,0,2021-08-07 10:32:01,622005
2,1,0,2,-5,-3,-2,2,2021-08-07 10:32:01,654004
-1,0,-3,-10,-10,-4,-1,1,2021-08-07 10:32:01,670005
0,0,-3,-1,3,0,-1,0,2021-08-07 10:32:01,686005
0,0,2,4,3,1,1,0,2021-08-07 10:32:01,686005
-3,-3,-2,-8,-5,-4,-2,-2,2021-08-07 10:32:01,686005
-2,-1,2,7,9,3,-1,-1,2021-08-07 10:32:01,686005
-3,-4,-3,-4,-9,-3,-2,-1,2021-08-07 10:32:01,686005
0,-1,0,-2,-2,-3,-3,-1,2021-08-07 10:32:01,696003
-2,-1,-2,-5,-4,-2,-1,-2,2021-08-07 10:32:01,697005
0,0,-2,-5,-5,-3,-2,0,2021-08-07 10:32:01,697005
0,0,-1,-1,0,0,-1,0,2021-08-07 10:32:01,697005
0,-2,-2,-2,-1,1,-2,0,2021-08-07 10:32:01,697005
1,0,0,0,6,3,0,2,2021-08-07 10:32:01,697005
-1,-1,0,4,2,-1,0,0,2021-08-07 10:32:01,697005
2,0,1,-1,0,-1,-1,0,2021-08-07 10:32:01,717004
1,0,0,1,-1,-1,0,0,2021-08-07 10:32:01,717004
1,-3,-1,-2,-2,-2,-1,0,2021-08-07 10:32:01,749006
-3,-3,-2,-6,-7,-4,-2,-2,2021-08-07 10:32:01,749006
0,0,-1,0,-4,-2,0,-1,2021-08-07 10:32:01,749006
-2,-1,-2,0,9,3,0,0,2021-08-07 10:32:01,749006
-3,-1,0,4,3,1,-2,-1,2021-08-07 10:32:01,749006
0,2,2,2,3,1,0,0,2021-08-07 10:32:01,749006
-3,-2,-3,-7,-13,-7,-2,-1,2021-08-07 10:32:01,749006
-1,-2,0,6,-1,-1,0,-3,2021-08-07 10:32:01,749006
-1,-3,-3,-7,-5,-3,-2,-1,2021-08-07 10:32:01,765005
2,1,-1,-1,6,0,1,1,2021-08-07 10:32:01,765005
1,0,0,0,11,4,0,-1,2021-08-07 10:32:01,765005
-1,-2,-3,-14,-13,-8,-4,-1,2021-08-07 10:32:01,765005
1,2,4,12,10,6,1,1,2021-08-07 10:32:01,796003
-3,-3,-4,-3,-2,0,-1,-3,2021-08-07 10:32:01,812005
1,1,3,3,0,1,2,1,2021-08-07 10:32:01,812005
-3,-3,-5,-4,-6,-4,-2,-2,2021-08-07 10:32:01,812005
-2,0,-3,-4,-3,-2,-2,-2,2021-08-07 10:32:01,812005
0,-1,-2,-7,-8,-5,-4,-1,2021-08-07 10:32:01,812005
0,0,0,0,2,0,-1,0,2021-08-07 10:32:01,812005
1,1,1,3,1,0,-2,-1,2021-08-07 10:32:01,812005
-1,-3,-5,-4,-4,-4,-3,-1,2021-08-07 10:32:01,828005
-3,-3,-4,-3,-10,-3,-2,-2,2021-08-07 10:32:01,843004
-1,-2,-6,-16,-12,-6,-2,-2,2021-08-07 10:32:01,843004
5,6,9,20,28,18,9,6,2021-08-07 10:32:01,843004
-1,-2,-1,7,9,3,2,-1,2021-08-07 10:32:01,843004
-3,-2,-1,2,2,0,0,-2,2021-08-07 10:32:01,843004
-6,-3,-3,-6,-13,-7,-4,-5,2021-08-07 10:32:01,843004
-4,-4,-7,-23,-20,-9,-5,-5,2021-08-07 10:32:01,843004
2,5,10,25,29,8,1,1,2021-08-07 10:32:01,875005
1,0,2,4,6,3,0,1,2021-08-07 10:32:01,875005
2,3,0,1,-7,-2,-1,1,2021-08-07 10:32:01,875005
-2,-4,-5,-8,-8,-6,-3,-3,2021-08-07 10:32:01,875005
-2,-2,-2,-5,-4,-1,-1,-2,2021-08-07 10:32:01,890005
2,-1,-2,-3,-3,-2,-1,0,2021-08-07 10:32:01,890005
-1,0,0,4,4,1,0,1,2021-08-07 10:32:01,890005
-3,-1,-3,-2,-5,-2,-2,1,2021-08-07 10:32:01,890005
-1,-1,-2,-9,-10,-2,-1,-1,2021-08-07 10:32:01,905005
-1,0,1,8,5,1,0,0,2021-08-07 10:32:01,921004
0,-2,-2,-4,-1,1,-1,-1,2021-08-07 10:32:01,921004
1,2,1,11,15,3,1,1,2021-08-07 10:32:01,921004
-3,-2,-2,-6,-9,-3,-3,-3,2021-08-07 10:32:01,937005
-4,-4,-6,-12,-12,-7,-3,-5,2021-08-07 10:32:01,953004
1,2,4,5,4,1,1,2,2021-08-07 10:32:01,979004
2,2,2,6,3,1,0,0,2021-08-07 10:32:01,979004
-1,-2,-3,-7,-10,-3,-1,-1,2021-08-07 10:32:01,979004
-3,-2,-4,-12,-3,-3,-3,-3,2021-08-07 10:32:01,979004
-1,-2,0,10,9,1,-3,-2,2021-08-07 10:32:01,979004
0,-2,-2,1,0,0,0,-1,2021-08-07 10:32:01,979004
-1,0,-3,-6,-7,-4,-2,-2,2021-08-07 10:32:01,979004
0,0,-3,-4,-6,-3,-1,0,2021-08-07 10:32:01,980007
-1,-3,-4,-5,-1,-1,-2,-1,2021-08-07 10:32:02,000005
1,0,1,-1,-6,-2,-2,-2,2021-08-07 10:32:02,000005
-2,-3,-5,-1,-7,-3,-1,-1,2021-08-07 10:32:02,000005
1,2,5,9,7,2,0,0,2021-08-07 10:32:02,000005
2,2,2,1,-3,2,1,2,2021-08-07 10:32:02,000005
0,-1,-1,1,6,2,-2,-1,2021-08-07 10:32:02,000005
-1,-3,-1,-2,-1,-3,-2,-1,2021-08-07 10:32:02,000005
0,1,5,7,9,4,2,0,2021-08-07 10:32:02,000005
-2,-2,0,1,0,0,-1,-1,2021-08-07 10:32:02,016004
-2,-1,-2,-9,-14,-5,-3,-1,2021-08-07 10:32:02,032005
0,3,0,0,6,2,0,1,2021-08-07 10:32:02,032005
1,1,-1,-2,-4,-1,-3,1,2021-08-07 10:32:02,032005
0,1,-1,-3,-1,0,0,-1,2021-08-07 10:32:02,032005
-3,-4,-4,-2,-2,-4,-1,-2,2021-08-07 10:32:02,032005
-2,-3,-3,-6,-6,-2,0,0,2021-08-07 10:32:02,048005
-1,-1,-2,-2,-3,-2,-1,-1,2021-08-07 10:32:02,064006
-1,0,0,4,6,4,3,1,2021-08-07 10:32:02,064006
-3,0,1,7,8,2,2,-1,2021-08-07 10:32:02,064006
-2,-1,-1,1,-5,-3,-3,-1,2021-08-07 10:32:02,064006
-2,-2,-3,-3,-8,-4,-2,-2,2021-08-07 10:32:02,064006
0,-1,-2,-2,1,0,-1,0,2021-08-07 10:32:02,080005
-2,-2,-5,-9,-10,-5,-2,-2,2021-08-07 10:32:02,080005
3,2,3,9,10,3,2,1,2021-08-07 10:32:02,096004
0,0,1,5,6,4,0,0,2021-08-07 10:32:02,096004
-3,-4,-6,-12,-23,-11,-4,-3,2021-08-07 10:32:02,096004
6,6,10,26,50,24,11,6,2021-08-07 10:32:02,096004
-5,-5,-4,-10,-16,-6,-3,-5,2021-08-07 10:32:02,112004
0,0,1,-3,0,-1,1,0,2021-08-07 10:32:02,112004
0,-2,-1,-2,-6,0,1,-2,2021-08-07 10:32:02,112004
-1,-2,-1,-4,-6,-4,-3,-2,2021-08-07 10:32:02,112004
-2,0,-1,-3,4,0,-1,-2,2021-08-07 10:32:02,128004
1,1,1,7,15,5,3,0,2021-08-07 10:32:02,128004
-2,-3,-6,-18,-8,-4,-2,-2,2021-08-07 10:32:02,128004
-5,-3,-4,0,-8,-6,-4,-2,2021-08-07 10:32:02,128004
2,1,-1,-4,-6,-1,1,1,2021-08-07 10:32:02,159005
-1,-3,-2,-1,-9,-4,-2,-2,2021-08-07 10:32:02,175005
-1,-2,-2,0,5,-1,-2,-1,2021-08-07 10:32:02,191005
-2,-1,-3,-6,-8,-3,-2,-1,2021-08-07 10:32:02,191005
-2,-2,-2,5,5,2,-2,-2,2021-08-07 10:32:02,191005
-1,-1,-5,-12,-20,-9,-5,0,2021-08-07 10:32:02,191005
4,6,11,32,44,16,5,3,2021-08-07 10:32:02,191005
-1,-2,-2,-9,-22,-8,-4,-4,2021-08-07 10:32:02,191005
1,1,2,8,10,3,2,2,2021-08-07 10:32:02,191005
-1,0,-2,-1,-4,-2,0,-1,2021-08-07 10:32:02,191005
-1,-2,-2,-5,-5,-4,-1,-1,2021-08-07 10:32:02,207005
0,0,0,-4,-9,-4,-2,-3,2021-08-07 10:32:02,223005
-1,0,-2,-9,-5,-2,-1,-1,2021-08-07 10:32:02,223005
-4,-4,-2,0,2,0,-1,-3,2021-08-07 10:32:02,223005
-1,-2,0,1,0,0,-1,0,2021-08-07 10:32:02,223005
1,0,2,5,-1,1,0,0,2021-08-07 10:32:02,223005
-1,-1,-1,-7,-7,-4,-1,0,2021-08-07 10:32:02,223005
0,0,-1,-4,0,-1,1,0,2021-08-07 10:32:02,223005
0,2,6,12,7,2,0,-2,2021-08-07 10:32:02,223005
0,0,-2,-5,-4,-2,-1,-1,2021-08-07 10:32:02,223005
1,-7,-3,-1,-1,1,-2,-1,2021-08-07 10:32:02,255005
0,-1,0,2,3,0,-1,0,2021-08-07 10:32:02,255005
-4,-3,-6,-7,-9,-3,-3,-4,2021-08-07 10:32:02,255005
-1,0,-1,-6,0,-1,-2,-1,2021-08-07 10:32:02,255005
1,6,2,7,2,-1,0,-1,2021-08-07 10:32:02,269005
-1,-2,-2,-2,1,0,-2,-1,2021-08-07 10:32:02,269005
-1,-3,0,-2,-3,-1,-2,0,2021-08-07 10:32:02,270005
-1,0,0,1,-2,-1,-1,-1,2021-08-07 10:32:02,270005
-2,-2,-3,-7,-3,-1,-2,-1,2021-08-07 10:32:02,287005
-1,0,0,-1,-2,-1,-1,-2,2021-08-07 10:32:02,303005
-3,-2,-4,-10,-16,-8,-3,-2,2021-08-07 10:32:02,303005
0,-2,-1,-3,12,5,2,2,2021-08-07 10:32:02,303005
1,0,3,13,8,1,0,0,2021-08-07 10:32:02,303005
0,2,1,3,6,4,1,0,2021-08-07 10:32:02,303005
-1,0,0,4,6,1,1,-2,2021-08-07 10:32:02,335006
-1,-2,-3,-7,-12,-6,-4,-2,2021-08-07 10:32:02,335006
-1,-2,-5,-9,-10,-4,-2,-1,2021-08-07 10:32:02,335006
-1,-4,-3,-4,-4,-2,-2,-1,2021-08-07 10:32:02,335006
-2,-3,-3,-17,-10,-3,-3,-1,2021-08-07 10:32:02,335006
3,5,7,17,13,7,3,4,2021-08-07 10:32:02,335006
-3,-3,-1,3,2,1,-1,-3,2021-08-07 10:32:02,351005
-4,-4,-3,-2,-7,-4,-3,-1,2021-08-07 10:32:02,367005
1,1,-2,-6,-5,-2,1,0,2021-08-07 10:32:02,367005
1,2,3,6,4,2,1,0,2021-08-07 10:32:02,367005
-2,0,-2,-6,-8,-4,-2,-1,2021-08-07 10:32:02,367005
1,4,3,5,9,4,3,0,2021-08-07 10:32:02,367005
-2,-6,-4,-1,1,0,-3,0,2021-08-07 10:32:02,367005
-3,-3,-3,1,2,-2,-1,-2,2021-08-07 10:32:02,367005
1,1,-1,-2,-7,-3,-2,0,2021-08-07 10:32:02,399004
-1,-1,0,-3,-3,-4,-3,-2,2021-08-07 10:32:02,399004
0,3,-1,1,-1,-1,1,1,2021-08-07 10:32:02,399004
-3,-4,-4,-9,-12,-3,-2,-3,2021-08-07 10:32:02,399004
-3,-2,-2,-5,-1,-4,-2,-1,2021-08-07 10:32:02,415004
2,1,4,10,15,7,3,2,2021-08-07 10:32:02,431007
4,4,8,23,39,14,5,2,2021-08-07 10:32:02,431007
-3,-4,-6,-11,-14,-4,-2,-2,2021-08-07 10:32:02,431007
-1,-1,-2,-3,-11,-4,-1,0,2021-08-07 10:32:02,431007
-2,-3,-3,0,3,1,-1,-2,2021-08-07 10:32:02,431007
3,3,0,-7,-14,-4,-2,-2,2021-08-07 10:32:02,431007
-1,-3,-2,2,7,0,0,-2,2021-08-07 10:32:02,431007
-1,1,3,6,4,2,-1,-1,2021-08-07 10:32:02,447007
-3,-3,-4,-3,-3,-4,-3,-2,2021-08-07 10:32:02,447007
-4,-4,-3,-8,-16,-7,-4,-3,2021-08-07 10:32:02,447007
-4,-3,-4,-6,-5,-4,-5,-3,2021-08-07 10:32:02,447007
6,5,5,5,17,9,4,3,2021-08-07 10:32:02,494004
1,0,-2,-1,-10,-4,-3,0,2021-08-07 10:32:02,510005
-2,-1,-1,1,3,1,-1,-1,2021-08-07 10:32:02,526003
-4,-4,-4,-4,-11,-5,-2,-2,2021-08-07 10:32:02,526003
-4,-3,-3,4,1,-1,-2,-2,2021-08-07 10:32:02,526003
-1,2,-1,0,1,0,0,1,2021-08-07 10:32:02,526003
-1,0,-2,-8,-13,-5,-2,0,2021-08-07 10:32:02,526003
-2,-1,-3,-2,0,-1,-2,-1,2021-08-07 10:32:02,526003
0,-2,1,0,2,1,-1,-1,2021-08-07 10:32:02,526003
0,1,2,-1,1,0,0,0,2021-08-07 10:32:02,526003
-2,-3,-2,0,-8,-3,-1,-1,2021-08-07 10:32:02,542005
0,-1,2,10,18,7,2,1,2021-08-07 10:32:02,553004
-2,-1,0,-2,-10,-3,-2,-2,2021-08-07 10:32:02,574003
-6,-6,-7,-15,-19,-10,-4,-5,2021-08-07 10:32:02,590005
2,3,4,5,6,3,1,0,2021-08-07 10:32:02,590005
2,-2,0,6,-1,0,-1,0,2021-08-07 10:32:02,590005
1,1,-2,-4,5,-1,0,0,2021-08-07 10:32:02,590005
0,2,-1,-2,0,1,1,1,2021-08-07 10:32:02,590005
-3,-2,-4,-7,-5,-5,-2,-2,2021-08-07 10:32:02,590005
0,1,1,-3,-7,-3,-2,-2,2021-08-07 10:32:02,590005
-3,-3,-5,-6,-8,-5,-4,-1,2021-08-07 10:32:02,590005
1,-1,1,5,8,1,2,0,2021-08-07 10:32:02,590005
-4,-6,-7,-15,-17,-5,-4,-3,2021-08-07 10:32:02,590005
9,11,14,30,44,20,12,8,2021-08-07 10:32:02,591005
-3,-4,-1,-3,-5,0,-1,1,2021-08-07 10:32:02,591005
-4,-4,-2,-7,-9,-4,-2,-3,2021-08-07 10:32:02,591005
-4,-1,0,12,5,-1,-2,-3,2021-08-07 10:32:02,606005
-5,-4,-4,-15,-10,-7,-5,-2,2021-08-07 10:32:02,606005
0,1,3,1,1,0,-2,1,2021-08-07 10:32:02,606005
3,4,3,6,-5,-1,1,0,2021-08-07 10:32:02,606005
0,0,-4,-7,-2,-2,-1,0,2021-08-07 10:32:02,606005
-1,-1,-6,-10,-19,-9,-3,-3,2021-08-07 10:32:02,606005
-3,-4,-5,-8,-3,-3,-2,-2,2021-08-07 10:32:02,636005
2,1,3,3,3,3,1,2,2021-08-07 10:32:02,652005
3,1,1,6,14,4,0,0,2021-08-07 10:32:02,668007
-4,-3,-7,-11,-14,-8,-4,-3,2021-08-07 10:32:02,668007
-1,-1,0,7,7,3,-2,-1,2021-08-07 10:32:02,668007
-4,-5,-7,-18,-15,-8,-5,-2,2021-08-07 10:32:02,668007
3,5,7,14,1,1,2,3,2021-08-07 10:32:02,668007
0,1,2,5,14,7,2,1,2021-08-07 10:32:02,668007
-3,-3,-1,0,-2,-2,-2,-3,2021-08-07 10:32:02,668007
0,0,0,3,3,-1,1,-1,2021-08-07 10:32:02,668007
-3,-5,-4,-8,-6,-3,-2,-1,2021-08-07 10:32:02,668007
0,-2,-1,-3,-4,-4,-2,-2,2021-08-07 10:32:02,668007
-1,-1,0,0,-6,-2,0,0,2021-08-07 10:32:02,684004
1,1,4,13,13,5,2,1,2021-08-07 10:32:02,684004
0,0,-1,-3,2,2,-1,0,2021-08-07 10:32:02,684004
0,-3,-3,0,2,-1,-1,-1,2021-08-07 10:32:02,684004
-1,0,-1,-6,-8,-2,1,0,2021-08-07 10:32:02,716005
-3,-1,-4,0,-3,-3,-2,-2,2021-08-07 10:32:02,732004
-1,-1,0,0,-4,-1,1,0,2021-08-07 10:32:02,732004
-2,-2,-4,-6,-10,-5,-3,-2,2021-08-07 10:32:02,732004
-3,-5,-9,-16,-15,-10,-4,-3,2021-08-07 10:32:02,732004
3,2,6,19,28,11,4,3,2021-08-07 10:32:02,732004
0,0,-2,-1,12,3,1,-2,2021-08-07 10:32:02,732004
-2,-2,-4,-6,-9,-4,-1,-3,2021-08-07 10:32:02,732004
0,2,4,4,-5,3,4,0,2021-08-07 10:32:02,748005
0,3,3,3,2,0,0,0,2021-08-07 10:32:02,764004
1,1,1,7,24,10,1,0,2021-08-07 10:32:02,779005
-4,-1,-1,7,5,-1,-2,-3,2021-08-07 10:32:02,779005
-3,-3,-5,-11,-16,-9,-3,-1,2021-08-07 10:32:02,794004
-4,-5,-6,-11,-13,-5,-5,-2,2021-08-07 10:32:02,794004
1,2,3,3,-6,-3,-3,1,2021-08-07 10:32:02,794004
1,3,0,-4,0,-1,0,1,2021-08-07 10:32:02,794291
0,-1,-2,0,6,-1,1,-1,2021-08-07 10:32:02,794291
-2,-3,-4,-10,-7,-2,-3,-2,2021-08-07 10:32:02,794291
-3,-2,-1,5,2,-1,-1,-1,2021-08-07 10:32:02,794291
-2,-3,-1,-6,-9,-1,-1,-1,2021-08-07 10:32:02,794291
2,6,5,11,21,8,2,3,2021-08-07 10:32:02,810005
-5,-8,-12,-23,-20,-9,-4,-5,2021-08-07 10:32:02,825003
3,6,10,23,22,9,2,3,2021-08-07 10:32:02,839005
1,0,-1,2,-3,1,0,-1,2021-08-07 10:32:02,840005
-4,-4,-5,-8,-6,-3,-4,-3,2021-08-07 10:32:02,840005
2,4,6,10,12,6,4,2,2021-08-07 10:32:02,840005
-5,-7,-9,-11,-22,-9,-5,-6,2021-08-07 10:32:02,856005
1,1,5,9,16,4,1,2,2021-08-07 10:32:02,856005
0,0,-1,0,0,1,1,-1,2021-08-07 10:32:02,856005
-5,-4,-10,-18,-20,-9,-4,-4,2021-08-07 10:32:02,856005
-2,-2,-5,-2,0,-3,-2,-2,2021-08-07 10:32:02,856005
1,2,5,9,5,3,0,1,2021-08-07 10:32:02,856005
-2,-5,-6,-15,-15,-7,-3,-5,2021-08-07 10:32:02,871005
1,1,4,12,19,6,1,0,2021-08-07 10:32:02,887006
1,0,0,-4,-4,-2,1,2,2021-08-07 10:32:02,919006
-1,-2,-4,-9,-11,-7,-3,-2,2021-08-07 10:32:02,919006
-1,-1,0,3,4,1,0,1,2021-08-07 10:32:02,919006
-2,0,-1,0,-19,-8,-3,-2,2021-08-07 10:32:02,919006
-1,-2,-4,-6,4,1,-2,-2,2021-08-07 10:32:02,919006
-2,-1,-4,-4,0,0,-1,-3,2021-08-07 10:32:02,919006
3,4,7,15,12,6,3,2,2021-08-07 10:32:02,919006
1,1,2,5,12,3,0,1,2021-08-07 10:32:02,919006
-3,-3,-7,-22,-27,-10,-4,-2,2021-08-07 10:32:02,919006
-2,-4,-6,-15,-18,-5,-2,-4,2021-08-07 10:32:02,920005
2,2,7,29,28,12,2,1,2021-08-07 10:32:02,920005
-5,-7,-7,-7,2,-4,-3,-4,2021-08-07 10:32:02,920005
1,2,2,-1,-3,0,1,0,2021-08-07 10:32:02,935005
0,1,-1,-6,-7,-4,-1,1,2021-08-07 10:32:02,935005
-2,-3,-5,-16,-9,-4,-5,-3,2021-08-07 10:32:02,951005
6,9,14,31,32,15,7,4,2021-08-07 10:32:02,967007
-3,-5,-2,-7,-21,-10,-2,-2,2021-08-07 10:32:02,967007
-4,-3,-8,-16,4,-3,-3,-3,2021-08-07 10:32:02,967007
-1,-4,-5,-7,-10,-3,-3,-1,2021-08-07 10:32:02,967007
0,-4,-1,2,10,1,0,0,2021-08-07 10:32:02,967007
2,3,6,16,9,2,3,0,2021-08-07 10:32:02,967007
-3,-5,-6,-10,-17,-7,-5,-3,2021-08-07 10:32:02,967007
1,2,1,-9,-20,-7,-2,-1,2021-08-07 10:32:02,983005
3,4,8,22,35,16,5,1,2021-08-07 10:32:02,983005
0,-1,-4,-3,-4,-1,0,1,2021-08-07 10:32:02,999005
-1,-2,-4,-2,-5,0,0,-1,2021-08-07 10:32:02,999218
-4,-6,-8,-6,-6,-6,-3,-1,2021-08-07 10:32:03,015004
1,1,2,-7,-15,-5,-2,1,2021-08-07 10:32:03,015004
-1,-3,-4,-14,-7,-5,-3,-3,2021-08-07 10:32:03,015004
2,5,11,22,25,12,4,1,2021-08-07 10:32:03,015004
0,1,2,8,19,6,2,1,2021-08-07 10:32:03,031005
0,-1,-6,-9,-20,-3,-1,-1,2021-08-07 10:32:03,031005
-11,-12,-23,-42,-23,-13,-9,-7,2021-08-07 10:32:03,031005
5,6,15,37,28,7,3,4,2021-08-07 10:32:03,031005
-2,-1,-5,-7,-14,-6,-3,-4,2021-08-07 10:32:03,047005
-3,-4,-4,-14,-11,-6,-4,-3,2021-08-07 10:32:03,062004
6,8,12,25,20,11,6,5,2021-08-07 10:32:03,062004
-2,-4,-6,-14,-17,-7,-3,-3,2021-08-07 10:32:03,062004
1,1,2,7,7,2,1,2,2021-08-07 10:32:03,062004
-3,-4,-3,-7,-13,-6,-2,-3,2021-08-07 10:32:03,062004
1,1,2,9,9,4,2,1,2021-08-07 10:32:03,078004
0,0,-1,-6,-5,-3,-1,-1,2021-08-07 10:32:03,078004
1,1,1,-2,-4,-2,0,-1,2021-08-07 10:32:03,094006
-7,-4,-5,-8,-7,-5,-6,-1,2021-08-07 10:32:03,110005
3,-1,-1,9,24,10,3,2,2021-08-07 10:32:03,118014
0,3,0,0,2,2,1,1,2021-08-07 10:32:03,118014
1,2,2,4,-2,-3,2,-1,2021-08-07 10:32:03,118014
-4,-4,-7,-16,-13,-5,-2,-4,2021-08-07 10:32:03,118014
-3,-4,0,-1,-5,-5,-4,-4,2021-08-07 10:32:03,118014
0,-5,-5,-13,-30,-9,-2,0,2021-08-07 10:32:03,118014
4,5,8,27,58,21,5,2,2021-08-07 10:32:03,141004
1,0,-1,-5,-11,-4,-1,-2,2021-08-07 10:32:03,141004
-1,1,3,13,19,7,2,-1,2021-08-07 10:32:03,141004
-2,-4,-6,-11,-10,-3,-2,-1,2021-08-07 10:32:03,141004
-3,-2,-3,-8,-15,-6,-3,-1,2021-08-07 10:32:03,157005
2,0,4,13,15,5,2,2,2021-08-07 10:32:03,173005
-3,-5,-6,-12,-21,-10,-4,-3,2021-08-07 10:32:03,173005
-1,0,-1,2,9,2,-2,-1,2021-08-07 10:32:03,173005
-1,1,1,2,-1,0,0,0,2021-08-07 10:32:03,173005
-3,-5,-6,-9,-7,-4,-2,-1,2021-08-07 10:32:03,173005
-1,0,1,0,-9,0,-1,0,2021-08-07 10:32:03,173005
0,1,0,5,10,3,0,1,2021-08-07 10:32:03,173005
-1,-3,0,-2,7,2,1,1,2021-08-07 10:32:03,189005
4,3,2,4,5,1,0,1,2021-08-07 10:32:03,189005
-3,-4,-4,-10,-10,-6,-4,-3,2021-08-07 10:32:03,189005
2,2,6,9,9,4,2,0,2021-08-07 10:32:03,189005
-2,-3,-6,-14,-23,-9,-4,-3,2021-08-07 10:32:03,221004
-4,-3,-6,-10,-6,-1,-2,-1,2021-08-07 10:32:03,237005
-1,-1,-6,-3,1,-1,-2,-2,2021-08-07 10:32:03,253006
1,1,6,21,25,9,2,2,2021-08-07 10:32:03,253006
-5,-5,-7,-14,-15,-7,-4,-3,2021-08-07 10:32:03,253006
2,2,7,12,7,3,2,-1,2021-08-07 10:32:03,253006
-1,0,0,-6,-12,-3,-1,-2,2021-08-07 10:32:03,253006
-5,-7,-10,-22,-18,-7,-5,-6,2021-08-07 10:32:03,253006
5,3,5,7,7,2,3,4,2021-08-07 10:32:03,253006
3,4,6,21,34,13,4,1,2021-08-07 10:32:03,253006
0,-1,-1,1,1,-2,1,0,2021-08-07 10:32:03,253006
-4,-5,-7,-20,-25,-12,-6,-5,2021-08-07 10:32:03,253006
-2,-2,-2,5,7,1,-1,-2,2021-08-07 10:32:03,269007
-4,-5,-7,-10,-16,-8,-4,-3,2021-08-07 10:32:03,269007
2,3,2,3,-1,1,0,0,2021-08-07 10:32:03,269007
1,1,3,8,16,4,2,0,2021-08-07 10:32:03,285005
-1,-1,-1,-6,-11,-4,-1,-1,2021-08-07 10:32:03,285005
-2,-4,-6,-11,-14,-6,-3,-1,2021-08-07 10:32:03,285005
-2,1,1,1,-7,-4,-2,-2,2021-08-07 10:32:03,301005
1,-1,1,6,14,5,1,1,2021-08-07 10:32:03,301005
0,0,1,8,5,3,0,0,2021-08-07 10:32:03,317005
0,1,-2,-4,-9,-8,-2,-1,2021-08-07 10:32:03,333004
1,0,4,7,8,3,0,1,2021-08-07 10:32:03,333004
-4,-2,-4,-2,-5,-2,-1,-2,2021-08-07 10:32:03,333004
-1,0,2,5,8,4,2,2,2021-08-07 10:32:03,333004
3,2,2,-2,-6,-1,1,1,2021-08-07 10:32:03,333004
0,-1,-1,-2,-3,-3,-2,-1,2021-08-07 10:32:03,333004
3,2,1,4,3,-1,1,1,2021-08-07 10:32:03,333004
-2,-4,-4,-4,-6,-2,-1,-2,2021-08-07 10:32:03,349003
-1,-2,-2,0,4,2,1,3,2021-08-07 10:32:03,365004
0,-1,0,7,4,1,2,0,2021-08-07 10:32:03,396005
-6,-5,-8,-10,-9,-3,-3,-4,2021-08-07 10:32:03,396005
-5,-4,-4,-12,-10,-2,-5,-4,2021-08-07 10:32:03,396005
-1,0,2,7,4,1,-1,-2,2021-08-07 10:32:03,396005
-2,0,1,-7,-4,-3,-3,0,2021-08-07 10:32:03,396005
1,0,0,1,-3,-4,-2,0,2021-08-07 10:32:03,403005
-1,-1,-4,-11,-15,-7,-3,-1,2021-08-07 10:32:03,403005
1,-1,4,9,5,2,0,-2,2021-08-07 10:32:03,403005
1,0,2,4,12,7,3,1,2021-08-07 10:32:03,403005
0,1,1,5,0,0,1,-1,2021-08-07 10:32:03,411004
1,2,5,5,5,2,2,1,2021-08-07 10:32:03,411004
-2,-1,-3,-6,-9,-5,-1,-2,2021-08-07 10:32:03,411004
-4,-6,-7,-14,-13,-4,-3,-3,2021-08-07 10:32:03,411004
1,2,5,-4,-2,-1,2,3,2021-08-07 10:32:03,411004
-1,-4,-5,3,2,-2,-1,-2,2021-08-07 10:32:03,427005
-1,-2,-5,1,4,2,0,0,2021-08-07 10:32:03,427005
0,0,0,-3,-7,-1,-1,2,2021-08-07 10:32:03,427005
1,2,1,1,4,2,-1,-1,2021-08-07 10:32:03,427005
-2,1,0,-7,-11,-5,-1,-1,2021-08-07 10:32:03,459004
1,-1,-1,-3,-6,-4,0,-2,2021-08-07 10:32:03,475003
-3,-3,0,7,12,5,-1,-2,2021-08-07 10:32:03,475003
0,-2,-7,-15,-7,-1,1,0,2021-08-07 10:32:03,475003
1,0,6,16,13,4,-1,-1,2021-08-07 10:32:03,475003
-1,-1,1,2,11,2,0,0,2021-08-07 10:32:03,475003
2,0,1,1,1,-1,2,0,2021-08-07 10:32:03,475003
-2,-1,-2,-4,-16,-6,-3,-3,2021-08-07 10:32:03,475003
-3,0,-3,-1,3,1,-1,-1,2021-08-07 10:32:03,491005
-5,-4,-6,-14,-23,-9,-4,0,2021-08-07 10:32:03,491005
2,1,0,6,13,4,1,0,2021-08-07 10:32:03,491005
0,2,2,12,13,6,1,2,2021-08-07 10:32:03,491005
0,-2,-1,2,4,3,1,0,2021-08-07 10:32:03,522006
-2,0,-1,-2,-3,-2,-2,-2,2021-08-07 10:32:03,538005
-2,-2,-3,-9,-13,-7,-3,-2,2021-08-07 10:32:03,538005
-3,-4,-3,-4,-4,-2,-1,-2,2021-08-07 10:32:03,538005
0,1,2,1,0,0,0,0,2021-08-07 10:32:03,538005
1,2,2,4,2,0,-2,0,2021-08-07 10:32:03,538005
-1,-1,-1,-3,-6,-4,-3,-4,2021-08-07 10:32:03,538005
-2,-6,-8,-23,-21,-7,-2,-1,2021-08-07 10:32:03,538005
6,6,13,37,34,12,5,3,2021-08-07 10:32:03,554004
-1,-2,-5,-10,-13,-6,-2,-2,2021-08-07 10:32:03,554004
-2,-2,-4,-4,-2,0,-2,-2,2021-08-07 10:32:03,554004
-3,-4,0,-5,-7,-7,-4,-3,2021-08-07 10:32:03,554004
-3,-4,-4,-5,-9,-5,-3,-4,2021-08-07 10:32:03,570005
3,6,7,12,12,6,3,3,2021-08-07 10:32:03,586004
0,-2,-1,-5,-17,-6,-3,0,2021-08-07 10:32:03,586004
0,0,-6,-1,21,7,3,2,2021-08-07 10:32:03,586004
-9,-11,-15,-32,-29,-15,-7,-5,2021-08-07 10:32:03,586004
-2,-5,0,-3,-3,-1,-3,-2,2021-08-07 10:32:03,586004
-2,-5,-9,-3,-9,-5,-1,-3,2021-08-07 10:32:03,602005
2,4,11,21,8,2,0,0,2021-08-07 10:32:03,618005
4,5,-3,-13,-2,1,1,3,2021-08-07 10:32:03,634004
1,3,6,13,10,5,1,1,2021-08-07 10:32:03,650004
1,4,6,8,16,6,2,1,2021-08-07 10:32:03,666005
-2,0,2,11,8,4,-1,-2,2021-08-07 10:32:03,666005
-8,-9,-11,-24,-32,-15,-8,-8,2021-08-07 10:32:03,666005
0,-1,-1,-9,-1,-1,-2,-1,2021-08-07 10:32:03,666005
2,0,3,13,15,6,3,2,2021-08-07 10:32:03,666005
-3,-4,-1,5,2,-2,-2,-1,2021-08-07 10:32:03,666005
-1,2,4,3,7,1,-1,0,2021-08-07 10:32:03,666005
-2,-2,-5,-10,-10,-6,-1,-2,2021-08-07 10:32:03,666005
-1,1,-2,-2,-4,-2,-1,0,2021-08-07 10:32:03,666005
-1,-4,-9,-19,-7,-5,-3,-1,2021-08-07 10:32:03,666005
-4,-6,-4,-9,1,-1,-3,-1,2021-08-07 10:32:03,667005
-3,-5,-8,-7,-14,-7,-5,-2,2021-08-07 10:32:03,667005
0,2,3,6,19,9,3,1,2021-08-07 10:32:03,667005
0,4,6,11,3,1,2,1,2021-08-07 10:32:03,667005
2,0,-1,0,-9,-2,0,0,2021-08-07 10:32:03,698005
-1,-1,3,10,14,5,1,-1,2021-08-07 10:32:03,714006
-3,-3,-5,-4,-4,-5,-2,-3,2021-08-07 10:32:03,730006
1,4,2,-4,-7,-2,0,1,2021-08-07 10:32:03,730006
0,0,7,8,7,2,-1,1,2021-08-07 10:32:03,730006
-3,-7,-9,-19,-18,-9,-5,-3,2021-08-07 10:32:03,730006
0,1,-5,-4,-9,-4,-1,1,2021-08-07 10:32:03,730006
0,1,-1,6,3,0,-1,-1,2021-08-07 10:32:03,730006
1,1,1,11,11,3,2,-2,2021-08-07 10:32:03,730006
-2,-2,-2,-10,-4,-1,-1,-1,2021-08-07 10:32:03,730006
0,1,5,4,3,2,1,1,2021-08-07 10:32:03,730006
-1,-4,-1,3,8,-1,-2,-1,2021-08-07 10:32:03,730006
2,3,3,12,7,3,1,3,2021-08-07 10:32:03,762003
-2,0,-5,-12,-7,-1,-1,0,2021-08-07 10:32:03,762003
-4,-4,-6,-17,-13,-7,-4,-5,2021-08-07 10:32:03,778005
-3,-3,-2,-9,-18,-8,-4,-2,2021-08-07 10:32:03,778005
-5,-3,-2,3,-2,-1,-1,-2,2021-08-07 10:32:03,778005
3,4,6,26,47,18,8,4,2021-08-07 10:32:03,778005
0,0,0,3,-2,-2,0,0,2021-08-07 10:32:03,778005
-4,-2,-1,-5,-14,-5,-2,-1,2021-08-07 10:32:03,778005
0,0,-2,-5,4,0,-1,0,2021-08-07 10:32:03,793005
-4,-4,-4,-8,-18,-10,-4,-5,2021-08-07 10:32:03,793005
-1,-2,0,-7,-4,-3,-2,-2,2021-08-07 10:32:03,793005
-2,-4,-6,-6,-8,-2,-2,-2,2021-08-07 10:32:03,793005
2,2,2,-2,11,6,1,2,2021-08-07 10:32:03,809005
1,3,3,9,-6,-1,0,1,2021-08-07 10:32:03,809005
-1,-2,1,6,7,1,-2,-2,2021-08-07 10:32:03,809005
1,0,1,-3,-1,0,0,-2,2021-08-07 10:32:03,809005
-2,-6,-11,-28,-29,-12,-6,-3,2021-08-07 10:32:03,840005
4,4,10,30,40,18,4,4,2021-08-07 10:32:03,840005
-2,-3,-2,-4,-5,-3,-1,-3,2021-08-07 10:32:03,840005
-1,-1,-2,-3,-1,0,-1,-1,2021-08-07 10:32:03,840005
-1,-1,-3,-4,-16,-6,-2,-4,2021-08-07 10:32:03,856005
-4,-4,-3,-5,-4,-5,-3,-4,2021-08-07 10:32:03,856005
3,3,5,10,3,3,2,2,2021-08-07 10:32:03,856005
-1,-1,-3,-4,-5,-3,-1,1,2021-08-07 10:32:03,856005
1,2,1,10,15,7,4,1,2021-08-07 10:32:03,872005
-2,-3,-3,-3,-11,-6,-4,-1,2021-08-07 10:32:03,872005
-2,-3,0,1,3,2,-1,-1,2021-08-07 10:32:03,872005
1,-1,1,-3,-6,-5,-1,-1,2021-08-07 10:32:03,872005
0,-2,-4,-3,-6,-2,0,0,2021-08-07 10:32:03,904005
-3,-4,-8,-12,-5,-2,-3,-2,2021-08-07 10:32:03,920005
-1,4,4,8,10,4,1,3,2021-08-07 10:32:03,920005
0,0,1,-7,-8,-3,-1,0,2021-08-07 10:32:03,920005
2,1,1,10,17,5,2,3,2021-08-07 10:32:03,920005
3,3,6,7,6,3,2,2,2021-08-07 10:32:03,920005
-2,-5,-6,-1,-3,-3,-2,-3,2021-08-07 10:32:03,920005
-2,-2,-1,-5,-2,0,-2,-1,2021-08-07 10:32:03,920005
-2,0,-2,-7,-10,-6,-2,-1,2021-08-07 10:32:03,936005
-1,-2,-7,-18,-15,-5,-1,-1,2021-08-07 10:32:03,952005
-1,2,6,15,8,2,2,0,2021-08-07 10:32:03,952005
1,0,0,7,5,1,-1,0,2021-08-07 10:32:03,960004
-4,-3,-3,-7,-11,-3,-2,-3,2021-08-07 10:32:03,960004
-2,-2,1,1,-4,-4,-2,-3,2021-08-07 10:32:03,960004
0,0,-4,-10,-13,-6,-3,0,2021-08-07 10:32:03,968004
-4,-5,-6,-11,-13,-5,-4,-5,2021-08-07 10:32:03,983004
4,4,8,27,43,20,7,3,2021-08-07 10:32:03,999003
2,0,3,9,14,2,2,0,2021-08-07 10:32:04,015004
-2,-5,-5,-9,3,0,-1,-3,2021-08-07 10:32:04,031005
-1,0,-3,-2,-6,-1,0,-1,2021-08-07 10:32:04,031005
-3,-3,-3,-10,-19,-8,-5,-3,2021-08-07 10:32:04,031005
-1,-3,-8,-18,-13,-4,-2,0,2021-08-07 10:32:04,031005
3,5,8,20,4,3,2,1,2021-08-07 10:32:04,031005
0,-2,-5,-10,-1,-2,-1,0,2021-08-07 10:32:04,031005
-1,-2,0,-1,-2,-1,-1,-4,2021-08-07 10:32:04,031005
-3,-3,-9,-20,-24,-12,-6,-2,2021-08-07 10:32:04,031005
-4,-4,-7,-7,4,0,-1,-2,2021-08-07 10:32:04,031005
0,1,2,11,17,6,2,1,2021-08-07 10:32:04,031005
0,1,1,5,2,2,-2,1,2021-08-07 10:32:04,032005
0,1,5,9,9,3,0,0,2021-08-07 10:32:04,032005
-2,0,1,-5,-10,-5,-4,0,2021-08-07 10:32:04,032005
1,3,7,11,8,4,0,0,2021-08-07 10:32:04,032005
-4,-7,-9,-14,-13,-7,-4,-3,2021-08-07 10:32:04,062003
1,1,-1,2,2,1,-1,0,2021-08-07 10:32:04,078005
-2,-4,-2,-15,-16,-6,-4,-3,2021-08-07 10:32:04,078005
-1,-3,-14,-5,-1,-1,-1,0,2021-08-07 10:32:04,078005
3,5,9,19,19,10,5,2,2021-08-07 10:32:04,078005
-2,-2,-1,5,-4,-2,-1,0,2021-08-07 10:32:04,078005
-2,-3,-1,-2,-9,-4,-1,-1,2021-08-07 10:32:04,078005
3,4,11,12,26,10,3,2,2021-08-07 10:32:04,078005
-2,-3,-6,-16,-18,-8,-3,-3,2021-08-07 10:32:04,094005
0,3,3,8,4,2,2,0,2021-08-07 10:32:04,094005
-2,-2,-2,-1,-1,0,-1,-1,2021-08-07 10:32:04,094005
-4,-7,-7,-10,-14,-7,-4,-3,2021-08-07 10:32:04,094005
-3,-2,-5,-5,-2,-3,-3,-2,2021-08-07 10:32:04,109005
-1,-1,6,2,2,3,0,-1,2021-08-07 10:32:04,125004
-4,-6,-11,-10,-16,-8,-4,-2,2021-08-07 10:32:04,140004
0,2,0,-2,1,-2,-1,0,2021-08-07 10:32:04,140004
2,2,3,5,7,3,2,0,2021-08-07 10:32:04,140004
1,2,1,20,27,10,4,0,2021-08-07 10:32:04,140004
1,0,-5,-10,-7,-2,-1,2,2021-08-07 10:32:04,140004
-6,-5,-8,-13,-19,-10,-4,-6,2021-08-07 10:32:04,140004
-2,-4,-1,-1,3,0,2,-2,2021-08-07 10:32:04,140004
-4,-4,-3,-14,-17,-4,-4,-3,2021-08-07 10:32:04,140004
0,4,2,15,21,5,0,0,2021-08-07 10:32:04,155005
0,1,4,4,0,2,-1,0,2021-08-07 10:32:04,155005
-3,-3,-7,-16,-12,-6,-5,-3,2021-08-07 10:32:04,203023
-3,-4,-3,-7,-30,-14,-6,-5,2021-08-07 10:32:04,218023
5,6,12,22,46,18,7,5,2021-08-07 10:32:04,245023
0,0,-2,-1,-2,0,1,2,2021-08-07 10:32:04,245023
1,1,-1,3,5,1,2,2,2021-08-07 10:32:04,245023
-2,-2,-4,-2,-4,-1,-2,2,2021-08-07 10:32:04,245023
-3,-4,-7,-15,-11,-7,-3,-4,2021-08-07 10:32:04,246024
-3,-3,-3,-12,-17,-8,-4,-4,2021-08-07 10:32:04,246024
2,1,3,15,9,3,1,2,2021-08-07 10:32:04,246024
0,-2,-5,-12,-17,-6,-2,-2,2021-08-07 10:32:04,246024
1,2,4,6,25,10,2,1,2021-08-07 10:32:04,246024
1,0,3,4,11,5,1,1,2021-08-07 10:32:04,246024
-3,-3,1,-5,-11,-6,-2,-3,2021-08-07 10:32:04,246024
-2,-3,-9,-11,-15,-7,-3,-3,2021-08-07 10:32:04,246024
0,-1,0,5,1,2,1,-1,2021-08-07 10:32:04,246024
-2,-1,1,6,6,1,-2,-1,2021-08-07 10:32:04,246024
1,0,1,-2,-11,-5,-3,-1,2021-08-07 10:32:04,266024
1,1,4,1,3,1,1,2,2021-08-07 10:32:04,282023
-2,-3,-7,-8,8,2,-1,-1,2021-08-07 10:32:04,313023
-2,-1,-2,7,5,1,-1,-1,2021-08-07 10:32:04,313023
-2,0,-4,-4,-2,-1,-1,-2,2021-08-07 10:32:04,313023
-2,-3,-4,-6,-4,-2,-3,-3,2021-08-07 10:32:04,313023
1,0,3,1,-16,-8,-3,0,2021-08-07 10:32:04,313023
-1,0,5,4,-17,-6,-2,0,2021-08-07 10:32:04,313023
0,-1,-1,3,28,10,2,0,2021-08-07 10:32:04,313023
1,2,-6,-2,10,4,0,2,2021-08-07 10:32:04,313023
0,-1,-2,3,-1,0,-2,0,2021-08-07 10:32:04,313023
-1,0,0,5,7,3,-1,0,2021-08-07 10:32:04,313023
-2,-1,-2,-8,-21,-8,-5,-1,2021-08-07 10:32:04,313023
-1,1,3,1,1,0,-1,0,2021-08-07 10:32:04,313023
-3,-5,-5,-9,-12,-4,-3,-3,2021-08-07 10:32:04,314026
0,1,3,-4,-3,0,0,-1,2021-08-07 10:32:04,314026
0,2,2,11,4,1,0,0,2021-08-07 10:32:04,329024
0,2,4,9,13,4,1,2,2021-08-07 10:32:04,344024
-2,0,-1,-2,-4,-2,0,-2,2021-08-07 10:32:04,344024
-1,-3,-4,-1,10,0,-2,-4,2021-08-07 10:32:04,344024
-1,-1,-1,-6,-7,-2,-1,-1,2021-08-07 10:32:04,344024
-2,-3,-8,-8,-6,-3,-1,-1,2021-08-07 10:32:04,344024
-1,2,2,-3,-19,-5,-1,-1,2021-08-07 10:32:04,360024
0,0,3,11,20,7,3,0,2021-08-07 10:32:04,360024
-3,-2,-1,0,-3,-2,-2,-3,2021-08-07 10:32:04,375024
-1,-3,-4,-15,-13,-7,-1,-3,2021-08-07 10:32:04,391024
1,0,3,10,9,1,1,0,2021-08-07 10:32:04,391024
0,-2,-4,3,-2,-1,-1,0,2021-08-07 10:32:04,391251
-1,0,-3,-14,-15,-5,-1,1,2021-08-07 10:32:04,391251
-5,-4,1,-9,-19,-9,-5,-4,2021-08-07 10:32:04,391251
0,-3,-3,4,20,7,2,1,2021-08-07 10:32:04,391251
1,0,0,4,-1,-1,1,1,2021-08-07 10:32:04,391251
-1,-2,1,6,13,5,1,-1,2021-08-07 10:32:04,422537
-1,0,-1,1,4,2,0,0,2021-08-07 10:32:04,438536
-3,-3,0,-3,-17,-7,-5,-2,2021-08-07 10:32:04,454536
-1,-1,-3,-14,-8,-3,-1,-1,2021-08-07 10:32:04,470536
2,1,5,5,7,2,1,1,2021-08-07 10:32:04,486536
-2,-3,-3,-1,-8,-2,-1,-2,2021-08-07 10:32:04,486536
-2,-3,-5,-13,-15,-8,-4,-4,2021-08-07 10:32:04,486536
3,4,6,27,42,17,5,2,2021-08-07 10:32:04,486536
-2,-1,-3,-7,-9,-3,-2,-1,2021-08-07 10:32:04,486536
2,3,5,8,11,3,1,1,2021-08-07 10:32:04,486536
-1,1,1,7,-7,-2,-1,1,2021-08-07 10:32:04,486536
0,0,-1,-4,-15,-6,-2,-1,2021-08-07 10:32:04,486536
-1,-3,-1,-3,3,-1,0,0,2021-08-07 10:32:04,487536
-1,-3,-2,5,-1,-1,-1,-2,2021-08-07 10:32:04,487536
1,0,-4,-2,9,3,1,1,2021-08-07 10:32:04,487536
-6,-9,-13,-37,-35,-16,-6,-6,2021-08-07 10:32:04,487536
4,4,3,21,25,11,3,3,2021-08-07 10:32:04,487536
3,4,9,5,10,6,3,1,2021-08-07 10:32:04,487536
-1,-1,2,4,-3,-3,-2,-2,2021-08-07 10:32:04,487536
-1,0,3,17,5,1,1,0,2021-08-07 10:32:04,487536
-5,-4,-5,-8,-21,-11,-4,-4,2021-08-07 10:32:04,518536
-4,-4,-10,-13,0,-3,-2,-1,2021-08-07 10:32:04,518536
-2,-1,-2,-15,-9,-2,-3,-2,2021-08-07 10:32:04,518536
-1,-1,-3,-5,-7,-2,-1,-1,2021-08-07 10:32:04,518536
0,-2,0,-7,-9,-5,-1,-2,2021-08-07 10:32:04,534536
0,-1,-1,-3,-13,-4,-1,-1,2021-08-07 10:32:04,550535
5,8,11,33,57,22,10,5,2021-08-07 10:32:04,550535
3,4,8,20,22,10,3,3,2021-08-07 10:32:04,550535
-1,-3,-5,-7,-3,-1,0,-2,2021-08-07 10:32:04,550535
-2,-3,-3,-6,-7,-5,-4,-3,2021-08-07 10:32:04,550535
-5,-7,-11,-28,-40,-19,-8,-5,2021-08-07 10:32:04,550535
1,0,2,2,6,3,1,2,2021-08-07 10:32:04,550535
0,0,-3,-6,-5,-3,-1,1,2021-08-07 10:32:04,582535
-3,-1,-1,8,19,7,0,-2,2021-08-07 10:32:04,598536
-3,-2,-1,-2,-10,-4,-3,-2,2021-08-07 10:32:04,614535
2,0,-3,-8,-5,-2,0,-1,2021-08-07 10:32:04,630536
1,-1,2,5,2,0,1,-1,2021-08-07 10:32:04,630536
-1,1,0,4,-3,2,2,1,2021-08-07 10:32:04,630536
-1,-3,-4,-3,4,0,-1,-3,2021-08-07 10:32:04,630536
-4,-5,-6,-19,-16,-8,-3,-2,2021-08-07 10:32:04,630536
-4,-5,0,7,-6,-1,-2,-3,2021-08-07 10:32:04,630536
3,2,3,6,15,5,1,1,2021-08-07 10:32:04,630536
1,1,4,2,-6,-1,1,0,2021-08-07 10:32:04,630536
0,0,-2,5,8,2,1,1,2021-08-07 10:32:04,630536
-2,-1,-8,-21,-15,-7,-3,-1,2021-08-07 10:32:04,631536
-4,-6,-1,-3,-3,-5,-3,-3,2021-08-07 10:32:04,631536
0,-1,1,5,2,1,-2,-1,2021-08-07 10:32:04,631536
2,1,3,-1,-18,-7,-3,0,2021-08-07 10:32:04,631536
-1,-2,-2,-2,-3,0,-2,0,2021-08-07 10:32:04,646539
2,0,0,6,29,11,5,3,2021-08-07 10:32:04,646539
-3,-1,-2,-16,-19,-8,-3,-3,2021-08-07 10:32:04,646539
0,0,2,10,8,1,0,-1,2021-08-07 10:32:04,662536
-2,-1,1,4,-8,-3,-2,-4,2021-08-07 10:32:04,677536
-1,0,-1,-4,-12,-5,-2,-2,2021-08-07 10:32:04,677536
-1,-1,-3,6,11,4,0,0,2021-08-07 10:32:04,677536
-1,0,-3,-7,-11,-5,-2,-1,2021-08-07 10:32:04,677536
0,2,2,-3,9,5,3,1,2021-08-07 10:32:04,708536
1,0,0,-1,-5,-4,-1,-2,2021-08-07 10:32:04,708536
2,3,4,14,13,7,1,1,2021-08-07 10:32:04,708536
-3,-4,-3,-5,-7,-4,-2,-2,2021-08-07 10:32:04,708536
-3,-5,-9,-16,-10,-6,-3,-1,2021-08-07 10:32:04,708536
-1,2,2,13,12,5,0,2,2021-08-07 10:32:04,708536
-1,-3,-2,-5,-13,-7,-3,0,2021-08-07 10:32:04,708536
2,2,5,-1,-2,1,0,0,2021-08-07 10:32:04,708536
2,1,0,5,14,6,0,0,2021-08-07 10:32:04,740536
-3,-4,0,-5,-13,-7,-6,-3,2021-08-07 10:32:04,740536
-2,-1,-5,-4,-3,-3,-1,-1,2021-08-07 10:32:04,740536
-2,-4,-7,-9,-15,-5,-2,0,2021-08-07 10:32:04,740536
1,1,0,3,20,4,2,0,2021-08-07 10:32:04,755536
1,2,3,16,19,6,2,0,2021-08-07 10:32:04,770538
2,1,2,-3,-6,-1,2,0,2021-08-07 10:32:04,786536
0,2,7,12,12,6,0,0,2021-08-07 10:32:04,786536
-2,0,0,-4,-16,-7,-3,-1,2021-08-07 10:32:04,786536
-4,-5,-9,-19,-26,-11,-4,-3,2021-08-07 10:32:04,786536
-2,-2,-1,1,-1,0,-1,-2,2021-08-07 10:32:04,786536
-1,-1,1,6,17,7,1,-2,2021-08-07 10:32:04,787536
1,0,4,3,-2,0,-1,-2,2021-08-07 10:32:04,787536
1,-1,-1,5,10,2,1,1,2021-08-07 10:32:04,787536
-2,-2,-2,-1,-7,-6,-1,0,2021-08-07 10:32:04,787536
-3,-4,-10,-9,-10,-5,-3,-2,2021-08-07 10:32:04,787536
-2,-3,-5,-14,-11,-6,-1,-2,2021-08-07 10:32:04,817536
-3,-3,-5,-12,-12,-5,-2,-2,2021-08-07 10:32:04,833536
0,1,4,8,12,3,0,-1,2021-08-07 10:32:04,833536
-1,2,6,14,9,3,2,1,2021-08-07 10:32:04,833536
0,1,1,10,10,4,-1,-2,2021-08-07 10:32:04,833536
-4,-3,-7,-20,-22,-10,-4,-3,2021-08-07 10:32:04,833536
2,2,2,1,2,3,1,2,2021-08-07 10:32:04,833536
-3,-3,-4,-3,-6,-5,-5,-4,2021-08-07 10:32:04,833536
0,0,4,7,12,3,-1,-1,2021-08-07 10:32:04,865537
2,2,2,3,1,3,2,1,2021-08-07 10:32:04,865537
-1,-2,-4,-6,5,4,0,-1,2021-08-07 10:32:04,865537
0,0,-1,-7,-14,-4,-3,-4,2021-08-07 10:32:04,865537
-3,-4,-2,-5,-14,-8,-4,-2,2021-08-07 10:32:04,881535
1,1,8,23,30,11,5,1,2021-08-07 10:32:04,896537
0,-1,0,0,5,-1,1,-1,2021-08-07 10:32:04,911535
-1,-3,-6,-18,-9,-5,-2,-2,2021-08-07 10:32:04,911535
-4,-4,-7,-10,-11,-5,-5,-3,2021-08-07 10:32:04,911535
-2,-2,0,-5,-6,-3,-1,0,2021-08-07 10:32:04,911535
2,1,3,5,4,2,2,0,2021-08-07 10:32:04,911535
-2,-1,0,0,-1,-1,1,0,2021-08-07 10:32:04,911535
-4,-4,-9,-14,-17,-6,-1,-1,2021-08-07 10:32:04,911535
-3,-3,-8,-8,-5,-4,-3,-2,2021-08-07 10:32:04,911535
3,2,0,2,7,2,0,1,2021-08-07 10:32:04,911535
1,2,6,7,5,0,-1,0,2021-08-07 10:32:04,911535
0,0,6,16,12,5,3,2,2021-08-07 10:32:04,942537
-2,-5,-9,-13,-23,-10,-3,-1,2021-08-07 10:32:04,942537
1,1,-5,-16,-9,0,0,0,2021-08-07 10:32:04,942537
1,2,7,16,30,9,4,2,2021-08-07 10:32:04,942537
-2,0,3,-2,-5,-2,0,-1,2021-08-07 10:32:04,958536
-4,-3,-5,15,8,1,-1,-4,2021-08-07 10:32:04,958536
-8,-5,-7,-15,-22,-10,-7,-6,2021-08-07 10:32:04,958536
0,1,0,5,3,0,-2,0,2021-08-07 10:32:04,974535
4,5,5,7,11,6,1,3,2021-08-07 10:32:04,990536
5,3,4,1,-3,1,3,2,2021-08-07 10:32:04,990536
-9,-11,-22,-39,-29,-15,-9,-7,2021-08-07 10:32:05,006536
-1,-1,0,-3,1,1,1,0,2021-08-07 10:32:05,006536
3,4,5,10,8,2,3,1,2021-08-07 10:32:05,006536
1,3,13,18,11,4,1,-1,2021-08-07 10:32:05,006536
0,0,2,4,10,3,-1,-1,2021-08-07 10:32:05,006536
-2,-1,-3,-6,-12,-3,-1,-1,2021-08-07 10:32:05,006536
-3,-4,-6,0,2,-2,-2,-4,2021-08-07 10:32:05,006536
-2,-1,-3,-7,-5,-3,-2,-1,2021-08-07 10:32:05,006536
-1,0,0,-6,-8,-5,0,1,2021-08-07 10:32:05,006536
0,0,0,9,17,3,0,1,2021-08-07 10:32:05,006536
0,1,2,6,6,3,1,0,2021-08-07 10:32:05,038539
-1,0,-3,-7,-9,-4,-2,-2,2021-08-07 10:32:05,054537
1,2,3,8,3,1,0,1,2021-08-07 10:32:05,070535
1,-2,-1,-7,-10,-2,-3,-1,2021-08-07 10:32:05,079538
2,0,0,8,6,2,1,1,2021-08-07 10:32:05,079538
-3,-3,-7,-9,-4,-2,-4,-3,2021-08-07 10:32:05,079538
