EMG 1,EMG 2,EMG 3,EMG 4,EMG 5,EMG 6,EMG 7,EMG 8,Timestamp,Milliseconds
6,6,7,7,6,7,6,4,2021-08-07 13:03:32,079434
1,1,-6,0,1,-3,-2,1,2021-08-07 13:03:32,079434
-4,-6,-5,-11,-11,-5,-4,-3,2021-08-07 13:03:32,079434
0,1,4,-3,-11,-8,-3,-3,2021-08-07 13:03:32,079434
0,-1,2,6,9,5,1,0,2021-08-07 13:03:32,079434
0,-1,-1,-12,-12,-2,0,-1,2021-08-07 13:03:32,079434
-6,-6,-8,-8,-11,-12,-6,-7,2021-08-07 13:03:32,094436
-2,-3,1,9,23,13,4,1,2021-08-07 13:03:32,110437
1,3,1,-2,-8,-8,-5,-1,2021-08-07 13:03:32,110437
5,8,12,21,15,9,5,5,2021-08-07 13:03:32,110437
-4,-6,-7,-12,-16,-7,-4,-4,2021-08-07 13:03:32,110437
-5,-10,-10,-7,-4,0,-2,-4,2021-08-07 13:03:32,110437
-4,-4,-11,-31,-20,-17,-11,-7,2021-08-07 13:03:32,110437
3,6,6,2,-5,-3,0,1,2021-08-07 13:03:32,110437
3,5,6,18,28,15,6,2,2021-08-07 13:03:32,111435
-2,-4,-5,-3,-8,-4,0,-2,2021-08-07 13:03:32,111435
1,-2,-1,6,14,8,2,1,2021-08-07 13:03:32,126436
-8,-13,-14,-23,-24,-16,-12,-9,2021-08-07 13:03:32,126436
9,13,15,10,-1,2,4,7,2021-08-07 13:03:32,142434
2,5,5,15,21,13,6,1,2021-08-07 13:03:32,142434
-1,-1,-2,5,5,3,2,2,2021-08-07 13:03:32,142434
-2,-5,-3,-4,-4,-4,-3,-3,2021-08-07 13:03:32,142434
-2,-2,0,-3,-11,-5,-2,-1,2021-08-07 13:03:32,174435
-3,-2,-3,0,6,-4,-4,-2,2021-08-07 13:03:32,190434
4,7,11,25,32,21,11,5,2021-08-07 13:03:32,206434
-1,-3,-7,-4,-9,-6,0,0,2021-08-07 13:03:32,206434
0,3,8,18,15,8,3,1,2021-08-07 13:03:32,222435
3,7,8,21,24,18,10,5,2021-08-07 13:03:32,222435
0,-3,-5,-6,-11,-6,-1,-2,2021-08-07 13:03:32,222435
-1,-1,-2,0,14,7,2,0,2021-08-07 13:03:32,222435
1,2,1,-4,6,7,2,0,2021-08-07 13:03:32,222435
-2,-4,-2,1,-11,-11,-6,-4,2021-08-07 13:03:32,222435
1,4,2,4,1,1,0,0,2021-08-07 13:03:32,222435
1,-1,-3,-6,0,5,4,1,2021-08-07 13:03:32,223436
-11,-19,-22,-26,-32,-25,-13,-12,2021-08-07 13:03:32,223436
4,7,11,-2,-4,0,2,2,2021-08-07 13:03:32,223436
0,-2,-1,-1,-6,-6,-3,0,2021-08-07 13:03:32,237435
-4,-1,4,4,-11,-7,-5,-4,2021-08-07 13:03:32,237435
3,5,6,17,33,22,9,3,2021-08-07 13:03:32,237435
0,-4,-6,-7,-9,-4,-1,-1,2021-08-07 13:03:32,237435
-3,-3,-1,6,7,2,0,-3,2021-08-07 13:03:32,253437
2,4,4,-4,-12,-8,-3,0,2021-08-07 13:03:32,253437
-4,-6,-9,-27,-38,-19,-8,-5,2021-08-07 13:03:32,268435
4,6,6,16,31,15,7,4,2021-08-07 13:03:32,268435
1,-1,-1,10,17,9,3,3,2021-08-07 13:03:32,268435
2,6,10,13,20,10,4,2,2021-08-07 13:03:32,269435
-3,0,-2,2,-13,-11,-5,-2,2021-08-07 13:03:32,301436
-2,-2,-2,4,4,3,-1,-1,2021-08-07 13:03:32,301436
0,0,2,0,7,8,5,2,2021-08-07 13:03:32,301436
-6,-8,-12,-30,-44,-34,-17,-9,2021-08-07 13:03:32,301436
-1,-5,-1,-10,-14,-14,-10,-5,2021-08-07 13:03:32,301436
-3,-3,-8,-2,-10,-1,0,-1,2021-08-07 13:03:32,301436
1,3,6,12,25,15,5,1,2021-08-07 13:03:32,316436
1,5,4,25,31,22,10,2,2021-08-07 13:03:32,316436
4,6,1,1,7,5,5,5,2021-08-07 13:03:32,316436
-7,-11,-12,-33,-42,-27,-15,-6,2021-08-07 13:03:32,316436
-1,1,2,-2,-2,-3,-4,-3,2021-08-07 13:03:32,363436
0,-3,-6,3,5,4,2,0,2021-08-07 13:03:32,363436
-1,-1,0,4,5,4,0,0,2021-08-07 13:03:32,363436
5,2,4,9,12,8,6,3,2021-08-07 13:03:32,363436
-5,-5,-5,-18,-24,-17,-9,-4,2021-08-07 13:03:32,363436
4,8,10,13,10,7,3,2,2021-08-07 13:03:32,363436
-2,-1,-2,7,3,3,0,-2,2021-08-07 13:03:32,363436
1,-3,-2,6,29,13,5,2,2021-08-07 13:03:32,363436
-1,3,0,-5,-6,-4,-3,1,2021-08-07 13:03:32,378434
-6,-8,-9,-14,-16,-11,-5,-4,2021-08-07 13:03:32,378434
-3,-4,-6,-18,-33,-22,-11,-3,2021-08-07 13:03:32,378434
-5,-5,-6,-7,-16,-10,-6,-5,2021-08-07 13:03:32,378434
6,9,9,17,21,13,9,4,2021-08-07 13:03:32,394436
-1,-5,-2,10,15,9,1,0,2021-08-07 13:03:32,409435
3,4,5,9,7,6,4,3,2021-08-07 13:03:32,425436
1,2,2,-15,-12,-7,-3,0,2021-08-07 13:03:32,441434
-4,-8,-16,-8,-4,-2,-3,-3,2021-08-07 13:03:32,473434
1,1,2,-1,-5,-2,-2,-1,2021-08-07 13:03:32,473434
3,5,7,18,24,15,9,4,2021-08-07 13:03:32,473434
-7,-9,-11,-41,-71,-47,-21,-9,2021-08-07 13:03:32,473434
8,7,14,54,72,51,22,10,2021-08-07 13:03:32,473434
-1,0,-3,-5,1,-2,0,-1,2021-08-07 13:03:32,473434
1,3,4,8,13,8,4,0,2021-08-07 13:03:32,474437
0,1,-1,16,16,10,4,1,2021-08-07 13:03:32,474437
-2,-2,-5,-31,-45,-26,-10,-4,2021-08-07 13:03:32,474437
-2,-3,1,-4,-6,-7,-3,-1,2021-08-07 13:03:32,474437
-2,0,1,14,21,12,4,0,2021-08-07 13:03:32,474437
0,2,-1,-7,-6,-4,-1,-1,2021-08-07 13:03:32,474437
-6,-11,-11,-21,-30,-21,-11,-8,2021-08-07 13:03:32,474437
2,1,4,11,16,14,7,2,2021-08-07 13:03:32,475436
3,3,1,-7,-1,-2,-1,1,2021-08-07 13:03:32,475436
-1,-1,1,7,10,7,1,0,2021-08-07 13:03:32,475436
3,5,6,4,-1,0,-2,1,2021-08-07 13:03:32,505437
-4,-2,-2,-1,-2,-3,-2,-1,2021-08-07 13:03:32,505437
1,2,2,-3,-4,0,2,1,2021-08-07 13:03:32,505437
0,1,1,6,1,2,0,0,2021-08-07 13:03:32,505437
-2,-1,-1,5,16,7,2,-2,2021-08-07 13:03:32,521434
-5,-9,-14,-22,-23,-15,-8,-6,2021-08-07 13:03:32,537436
4,10,11,13,10,5,6,4,2021-08-07 13:03:32,537436
1,4,5,17,24,15,9,1,2021-08-07 13:03:32,537436
-3,-4,-6,-16,-24,-15,-7,-2,2021-08-07 13:03:32,537436
-1,-1,0,-4,-9,-5,-4,-1,2021-08-07 13:03:32,537436
-7,-12,-10,-8,-14,-10,-7,-5,2021-08-07 13:03:32,537436
5,5,5,13,22,14,8,2,2021-08-07 13:03:32,537436
-3,-4,-4,-8,-12,-9,-4,-3,2021-08-07 13:03:32,568434
0,0,0,8,14,7,2,1,2021-08-07 13:03:32,568434
-2,-2,-2,-5,-7,-4,-3,-2,2021-08-07 13:03:32,568434
0,1,2,4,6,5,2,2,2021-08-07 13:03:32,568434
-2,-1,-1,3,3,3,1,-2,2021-08-07 13:03:32,584436
-4,-6,-5,-8,-9,-8,-6,-5,2021-08-07 13:03:32,584436
1,3,2,-4,-8,-5,-4,-1,2021-08-07 13:03:32,584436
-2,-4,-3,-6,-3,-5,-2,-3,2021-08-07 13:03:32,584436
2,5,6,3,7,4,4,1,2021-08-07 13:03:32,599436
0,0,-1,-8,-12,-6,0,-1,2021-08-07 13:03:32,599436
-7,-10,-11,0,2,-1,-6,-7,2021-08-07 13:03:32,615436
5,5,6,15,24,16,9,6,2021-08-07 13:03:32,615436
3,5,6,7,2,0,0,1,2021-08-07 13:03:32,615436
1,4,-1,-3,-7,-3,-1,-1,2021-08-07 13:03:32,615436
0,1,2,3,10,5,2,1,2021-08-07 13:03:32,615436
-6,-10,-9,-17,-25,-16,-10,-5,2021-08-07 13:03:32,615436
-4,-6,-8,-11,-25,-20,-8,-4,2021-08-07 13:03:32,646434
4,7,10,20,41,31,14,7,2021-08-07 13:03:32,646434
1,-1,-1,0,10,5,4,1,2021-08-07 13:03:32,646434
-1,0,-3,-9,-22,-10,-4,-2,2021-08-07 13:03:32,646434
1,1,2,7,21,10,4,1,2021-08-07 13:03:32,662435
-5,-6,-7,-7,-15,-13,-7,-5,2021-08-07 13:03:32,677435
-2,-2,-3,-3,-4,-2,-1,-1,2021-08-07 13:03:32,677435
1,3,4,9,13,8,5,3,2021-08-07 13:03:32,677435
3,3,5,-1,-6,-1,-1,1,2021-08-07 13:03:32,677435
-2,-4,-5,-7,-12,-8,-6,-4,2021-08-07 13:03:32,677435
0,2,4,1,5,3,1,0,2021-08-07 13:03:32,678436
0,-2,-2,-5,-6,-5,-3,-2,2021-08-07 13:03:32,678436
-3,-3,-7,-10,-10,-6,-2,0,2021-08-07 13:03:32,709437
3,4,4,1,4,3,1,1,2021-08-07 13:03:32,725434
0,1,1,4,-1,2,1,1,2021-08-07 13:03:32,725434
-2,-2,3,17,33,17,4,-1,2021-08-07 13:03:32,725434
-12,-17,-20,-28,-35,-27,-17,-11,2021-08-07 13:03:32,725434
0,0,2,-3,-7,-4,-3,0,2021-08-07 13:03:32,725434
2,2,4,6,5,0,0,0,2021-08-07 13:03:32,725434
-1,-1,0,-2,1,3,-1,0,2021-08-07 13:03:32,725434
-1,-2,-1,-2,2,5,1,0,2021-08-07 13:03:32,741435
0,-1,-4,-9,-13,-8,-3,1,2021-08-07 13:03:32,757435
-1,-4,-2,-8,-14,-9,-8,-4,2021-08-07 13:03:32,757435
-1,1,3,3,-6,-5,-2,-1,2021-08-07 13:03:32,757435
0,-4,-3,2,9,9,4,1,2021-08-07 13:03:32,757435
-1,-1,0,11,21,11,4,1,2021-08-07 13:03:32,757435
4,8,4,2,11,8,7,5,2021-08-07 13:03:32,757435
-4,-7,-9,-21,-23,-20,-9,-4,2021-08-07 13:03:32,758437
2,5,2,1,-5,-5,-2,-1,2021-08-07 13:03:32,804465
-4,-5,-6,-8,-12,-7,-3,-3,2021-08-07 13:03:32,804465
-3,-3,-4,-3,-1,1,0,-2,2021-08-07 13:03:32,804465
-2,-4,-5,-7,-12,-5,-2,-2,2021-08-07 13:03:32,804465
1,2,2,1,7,6,4,3,2021-08-07 13:03:32,804465
1,4,7,8,6,3,1,1,2021-08-07 13:03:32,804465
-6,-7,-6,-9,-10,-7,-4,-5,2021-08-07 13:03:32,805466
-4,-4,1,4,2,1,-1,-1,2021-08-07 13:03:32,819465
2,6,8,14,13,4,2,1,2021-08-07 13:03:32,819465
1,2,0,1,2,-1,-1,-1,2021-08-07 13:03:32,819465
1,-1,-3,-2,-5,-2,-1,0,2021-08-07 13:03:32,819465
3,4,4,4,5,3,1,-1,2021-08-07 13:03:32,819465
4,3,4,6,5,4,2,3,2021-08-07 13:03:32,835464
-5,-6,-6,-14,-20,-13,-7,-3,2021-08-07 13:03:32,851465
-1,-4,-3,-7,-13,-5,-3,-1,2021-08-07 13:03:32,867463
3,3,2,4,17,10,5,4,2021-08-07 13:03:32,867463
-4,-5,-3,-8,-13,-5,-4,-3,2021-08-07 13:03:32,867463
2,1,4,14,25,16,7,1,2021-08-07 13:03:32,867463
1,1,2,6,4,1,1,2,2021-08-07 13:03:32,867463
1,3,1,3,3,-1,-1,1,2021-08-07 13:03:32,867463
-3,-4,-2,-9,-16,-10,-3,-4,2021-08-07 13:03:32,883464
-5,-9,-11,-14,-20,-14,-9,-5,2021-08-07 13:03:32,883464
0,-1,2,-1,-1,-1,1,0,2021-08-07 13:03:32,883464
7,12,10,7,12,9,6,4,2021-08-07 13:03:32,883464
1,4,2,3,1,-1,-1,0,2021-08-07 13:03:32,899464
-2,-5,-4,-4,-3,0,-1,-1,2021-08-07 13:03:32,899464
-5,-8,-7,-5,-2,-4,-4,-5,2021-08-07 13:03:32,899464
-4,-6,-6,-12,-12,-8,-3,-3,2021-08-07 13:03:32,899464
5,10,12,15,21,16,8,6,2021-08-07 13:03:32,931464
-2,-2,-5,-10,-16,-9,-3,-3,2021-08-07 13:03:32,946465
1,3,3,16,27,16,5,1,2021-08-07 13:03:32,946465
-4,-7,-8,-5,-5,-4,-5,-4,2021-08-07 13:03:32,947466
-2,-4,-5,-1,4,0,0,-2,2021-08-07 13:03:32,947466
-2,3,4,-7,-14,-8,-4,-1,2021-08-07 13:03:32,947466
1,0,-1,-5,-10,-6,-3,0,2021-08-07 13:03:32,947466
-1,2,1,3,1,0,0,0,2021-08-07 13:03:32,948468
-7,-11,-9,-6,-8,-7,-6,-8,2021-08-07 13:03:32,962468
3,2,3,6,11,5,4,1,2021-08-07 13:03:32,978465
4,4,3,2,12,8,6,3,2021-08-07 13:03:32,978465
-3,-2,-4,-7,-7,-6,-2,-2,2021-08-07 13:03:32,978465
0,1,0,-3,-1,-4,-3,0,2021-08-07 13:03:32,979467
1,0,-1,0,-2,-2,-1,0,2021-08-07 13:03:32,979467
-4,-6,-6,-4,-8,-6,-4,-6,2021-08-07 13:03:32,994466
-1,-3,-1,4,0,1,1,-1,2021-08-07 13:03:33,010465
2,3,2,-3,-3,0,0,1,2021-08-07 13:03:33,010465
-1,-1,-1,4,10,4,0,-1,2021-08-07 13:03:33,026469
0,1,0,2,5,2,0,1,2021-08-07 13:03:33,058466
-1,-3,-4,-3,-5,-3,-3,-2,2021-08-07 13:03:33,058466
-2,-1,-3,-3,-12,-7,-5,-2,2021-08-07 13:03:33,058466
-4,-6,-7,-9,-10,-7,-4,-3,2021-08-07 13:03:33,058466
4,8,7,-2,0,3,6,4,2021-08-07 13:03:33,058466
-1,-5,-4,-4,-2,-1,0,-3,2021-08-07 13:03:33,074466
0,1,3,3,2,-1,1,-1,2021-08-07 13:03:33,090464
2,3,2,5,6,2,-1,-1,2021-08-07 13:03:33,090464
-5,-7,-9,-16,-28,-15,-10,-3,2021-08-07 13:03:33,090464
3,8,9,21,30,20,8,5,2021-08-07 13:03:33,090464
-5,-8,-8,-5,-6,-6,-3,-4,2021-08-07 13:03:33,090464
-2,-2,-1,-1,-6,-6,-3,-2,2021-08-07 13:03:33,090464
0,1,2,5,6,2,1,-1,2021-08-07 13:03:33,091465
-2,-4,-5,-13,-17,-10,-5,-2,2021-08-07 13:03:33,091465
-1,-4,-2,0,0,0,1,-2,2021-08-07 13:03:33,091465
2,4,6,8,14,11,6,1,2021-08-07 13:03:33,091465
0,-1,-1,0,2,-1,-2,1,2021-08-07 13:03:33,091465
0,0,-1,-6,-13,-10,-5,-2,2021-08-07 13:03:33,091465
-3,-4,-3,6,17,13,4,0,2021-08-07 13:03:33,106464
-2,-5,-4,-3,-2,-1,0,0,2021-08-07 13:03:33,106464
3,5,7,4,5,2,3,2,2021-08-07 13:03:33,106464
-1,-4,-6,-8,-7,-8,-2,-2,2021-08-07 13:03:33,106464
2,5,3,0,-7,-5,-2,-1,2021-08-07 13:03:33,122465
1,-1,0,1,-1,0,-1,1,2021-08-07 13:03:33,122465
-1,-2,-2,5,10,7,4,1,2021-08-07 13:03:33,122465
0,2,3,-1,-2,-4,-1,-1,2021-08-07 13:03:33,122465
-2,-5,-3,-6,-8,-6,-4,-2,2021-08-07 13:03:33,137465
3,4,4,5,6,4,2,3,2021-08-07 13:03:33,152995
-5,-9,-10,-12,-15,-10,-8,-6,2021-08-07 13:03:33,152995
1,3,2,2,0,2,-1,1,2021-08-07 13:03:33,152995
-1,-1,-3,1,13,11,3,1,2021-08-07 13:03:33,152995
0,1,1,0,2,0,0,0,2021-08-07 13:03:33,153993
2,2,2,8,12,5,2,2,2021-08-07 13:03:33,153993
-3,-3,-3,3,0,-5,-3,-3,2021-08-07 13:03:33,153993
1,1,2,1,-2,2,1,2,2021-08-07 13:03:33,184991
-3,-4,-3,-8,-11,-9,-4,-2,2021-08-07 13:03:33,184991
-2,-3,-4,-8,-9,-4,-3,-2,2021-08-07 13:03:33,184991
0,1,2,5,8,5,2,1,2021-08-07 13:03:33,184991
-2,-3,-3,1,-4,-5,-3,-1,2021-08-07 13:03:33,215991
1,1,2,-2,-2,-1,1,0,2021-08-07 13:03:33,231992
-1,0,-1,-1,1,-2,-1,-2,2021-08-07 13:03:33,262992
-4,-7,-6,-3,-1,-1,0,-3,2021-08-07 13:03:33,278991
3,4,5,1,1,-1,0,1,2021-08-07 13:03:33,278991
0,2,2,-2,-4,1,-1,-2,2021-08-07 13:03:33,278991
-1,-1,-1,-1,-8,-4,-2,0,2021-08-07 13:03:33,278991
-1,-1,1,2,6,4,1,-1,2021-08-07 13:03:33,278991
-4,-3,-2,-1,4,-1,-2,-2,2021-08-07 13:03:33,278991
-3,-7,-7,-2,-1,-4,-4,-3,2021-08-07 13:03:33,279992
3,6,7,4,5,5,4,3,2021-08-07 13:03:33,279992
-1,-1,-1,-3,-4,-3,-2,-1,2021-08-07 13:03:33,294992
-4,-4,-4,0,-1,-2,0,-2,2021-08-07 13:03:33,310993
-2,-2,-2,-1,2,0,0,-2,2021-08-07 13:03:33,310993
-2,-1,-2,-9,-20,-12,-5,-1,2021-08-07 13:03:33,326991
4,4,3,8,15,14,7,4,2021-08-07 13:03:33,326991
1,2,0,-3,9,6,3,0,2021-08-07 13:03:33,326991
-2,-2,-5,-3,-7,-4,-2,0,2021-08-07 13:03:33,326991
-2,-3,-1,7,15,7,1,-2,2021-08-07 13:03:33,326991
0,0,0,-5,-10,-7,-5,-1,2021-08-07 13:03:33,327992
-2,-5,-5,-8,-20,-14,-5,-2,2021-08-07 13:03:33,327992
-2,1,0,3,13,11,3,1,2021-08-07 13:03:33,327992
-1,-1,-2,-8,-11,-7,-2,-2,2021-08-07 13:03:33,327992
0,2,1,9,14,8,3,0,2021-08-07 13:03:33,327992
2,1,3,5,6,3,1,2,2021-08-07 13:03:33,327992
-2,-2,-6,-9,-17,-11,-4,-3,2021-08-07 13:03:33,328991
-1,-2,-3,-4,-9,-6,-1,0,2021-08-07 13:03:33,328991
-2,-1,-1,-3,3,2,-1,-3,2021-08-07 13:03:33,328991
-1,0,1,1,1,-1,-1,-1,2021-08-07 13:03:33,358994
0,-1,-1,-8,-7,-2,-1,0,2021-08-07 13:03:33,374994
0,0,-1,2,0,-1,-3,1,2021-08-07 13:03:33,390992
0,-1,0,4,1,1,2,1,2021-08-07 13:03:33,390992
-2,-1,-3,-7,-11,-6,-3,-2,2021-08-07 13:03:33,390992
0,1,2,7,12,7,3,1,2021-08-07 13:03:33,406991
0,-1,-2,-1,6,3,0,0,2021-08-07 13:03:33,422992
-1,0,-1,-4,-13,-4,-3,1,2021-08-07 13:03:33,422992
-2,-1,0,5,7,2,0,-1,2021-08-07 13:03:33,422992
-1,-1,-1,-8,-16,-10,-3,-2,2021-08-07 13:03:33,422992
-5,-7,-8,-3,-2,4,-2,-2,2021-08-07 13:03:33,437994
-1,2,3,-1,1,-2,-2,0,2021-08-07 13:03:33,437994
3,7,5,0,-2,1,0,2,2021-08-07 13:03:33,437994
-1,-2,-4,1,0,1,1,0,2021-08-07 13:03:33,437994
0,0,3,0,-6,-4,0,-1,2021-08-07 13:03:33,438994
-4,-3,-3,-6,-8,-6,-3,-3,2021-08-07 13:03:33,438994
-3,-4,-3,-5,-6,-4,-2,-1,2021-08-07 13:03:33,438994
0,1,4,7,12,6,4,0,2021-08-07 13:03:33,438994
-2,-4,-4,0,2,2,0,-2,2021-08-07 13:03:33,438994
-2,-4,-6,-4,-1,0,-1,-1,2021-08-07 13:03:33,438994
4,7,8,3,2,1,3,4,2021-08-07 13:03:33,439993
-1,-1,-2,-1,-1,-3,-2,-1,2021-08-07 13:03:33,439993
1,4,3,-4,-5,-1,0,1,2021-08-07 13:03:33,469992
-2,-5,-4,6,6,0,-1,-3,2021-08-07 13:03:33,469992
3,2,3,7,11,8,3,3,2021-08-07 13:03:33,469992
0,0,-1,2,0,-1,-2,0,2021-08-07 13:03:33,469992
-2,-4,-5,0,9,4,0,-3,2021-08-07 13:03:33,469992
3,5,6,-1,-5,-3,-1,3,2021-08-07 13:03:33,470993
-4,-4,-5,-7,-8,-5,-5,-3,2021-08-07 13:03:33,485990
1,-1,1,4,8,3,2,0,2021-08-07 13:03:33,485990
1,0,-1,3,-4,-5,-1,0,2021-08-07 13:03:33,485990
1,2,1,-1,7,2,2,0,2021-08-07 13:03:33,485990
-4,-11,-10,-4,-3,-3,-2,-3,2021-08-07 13:03:33,517992
2,5,6,4,8,4,3,1,2021-08-07 13:03:33,517992
0,1,1,-5,-12,-8,-2,-2,2021-08-07 13:03:33,517992
-1,-2,-5,-4,-5,-3,-1,-1,2021-08-07 13:03:33,517992
3,4,4,4,1,2,0,1,2021-08-07 13:03:33,533992
-3,-4,-4,-5,-8,-3,-4,-3,2021-08-07 13:03:33,564990
-3,-4,-3,0,4,2,-1,-2,2021-08-07 13:03:33,564990
0,1,-1,-5,-7,-6,-2,-1,2021-08-07 13:03:33,564990
-1,-2,-2,-6,-9,-6,-5,-4,2021-08-07 13:03:33,564990
4,3,2,7,10,7,4,4,2021-08-07 13:03:33,564990
1,0,3,5,0,0,1,-1,2021-08-07 13:03:33,565993
0,-4,-2,4,10,5,1,0,2021-08-07 13:03:33,565993
-2,1,0,-4,-5,-4,-2,-1,2021-08-07 13:03:33,565993
-1,1,1,-3,-4,-3,-2,0,2021-08-07 13:03:33,565993
0,1,2,-5,-4,-1,-3,0,2021-08-07 13:03:33,565993
0,2,1,-1,-4,-2,-1,0,2021-08-07 13:03:33,565993
0,-1,-4,-6,-6,-3,-1,-1,2021-08-07 13:03:33,596992
0,-1,-2,3,8,5,3,-1,2021-08-07 13:03:33,596992
2,2,1,4,6,3,1,3,2021-08-07 13:03:33,596992
-5,-8,-9,-10,-15,-7,-5,-5,2021-08-07 13:03:33,596992
-1,-2,-1,1,-2,-3,-2,-2,2021-08-07 13:03:33,596992
-3,-2,-1,-1,-3,-2,-3,-1,2021-08-07 13:03:33,597991
1,1,4,16,29,16,8,1,2021-08-07 13:03:33,612990
-2,-3,-3,-3,-2,-6,-4,-4,2021-08-07 13:03:33,612990
4,5,5,4,3,3,0,3,2021-08-07 13:03:33,628990
1,2,-1,-2,-7,-5,0,0,2021-08-07 13:03:33,628990
-2,-4,-6,-11,-9,-6,-3,-1,2021-08-07 13:03:33,628990
1,2,0,0,-1,1,2,1,2021-08-07 13:03:33,628990
-7,-9,-6,-4,-3,-5,-4,-4,2021-08-07 13:03:33,660992
5,8,10,8,9,8,3,3,2021-08-07 13:03:33,675992
-1,2,-2,-1,0,0,-1,0,2021-08-07 13:03:33,675992
-5,-10,-7,-7,-11,-7,-6,-4,2021-08-07 13:03:33,675992
2,5,2,1,4,4,1,2,2021-08-07 13:03:33,675992
-3,-3,-3,-5,-5,-5,-2,-4,2021-08-07 13:03:33,675992
0,1,-1,0,-5,-4,-3,-1,2021-08-07 13:03:33,675992
-4,-5,-6,-10,-8,-4,-3,-2,2021-08-07 13:03:33,676991
1,-1,0,5,10,6,3,0,2021-08-07 13:03:33,691992
-2,-2,-3,-5,-8,-5,-4,0,2021-08-07 13:03:33,706991
1,4,5,4,2,0,1,1,2021-08-07 13:03:33,706991
-1,-2,0,-1,3,5,2,-2,2021-08-07 13:03:33,707993
-6,-6,-5,-2,3,-1,-1,-4,2021-08-07 13:03:33,707993
3,3,3,4,10,7,4,2,2021-08-07 13:03:33,707993
-2,-5,-6,-2,-3,-5,-2,-1,2021-08-07 13:03:33,707993
2,5,5,2,-2,-1,-1,1,2021-08-07 13:03:33,707993
2,-2,0,-3,-5,-3,0,-1,2021-08-07 13:03:33,723992
-7,-11,-11,-6,-9,-6,-5,-5,2021-08-07 13:03:33,723992
3,5,5,-4,-9,-2,-1,2,2021-08-07 13:03:33,723992
2,5,6,9,9,5,0,2,2021-08-07 13:03:33,723992
-4,-5,-6,-4,-6,-3,-3,-4,2021-08-07 13:03:33,754992
0,-2,-2,-4,-8,-5,-1,1,2021-08-07 13:03:33,770992
-2,-2,-1,2,12,7,2,0,2021-08-07 13:03:33,786991
0,0,-2,-1,-6,-6,-2,1,2021-08-07 13:03:33,786991
-3,-3,-3,0,7,4,2,-1,2021-08-07 13:03:33,786991
0,1,2,6,8,5,2,2,2021-08-07 13:03:33,786991
0,-3,-3,-7,-10,-5,-4,-3,2021-08-07 13:03:33,786991
2,4,5,2,3,4,3,1,2021-08-07 13:03:33,786991
-2,-4,-3,-1,-1,-2,-3,-2,2021-08-07 13:03:33,786991
-3,-6,-7,-9,-6,-3,-4,-3,2021-08-07 13:03:33,787992
1,3,1,3,-2,-2,1,1,2021-08-07 13:03:33,787992
-3,-4,-6,-12,-15,-9,-4,-2,2021-08-07 13:03:33,787992
1,3,4,9,14,5,2,1,2021-08-07 13:03:33,802991
-2,-4,0,7,6,0,0,-1,2021-08-07 13:03:33,802991
-4,-3,-4,-1,-2,-2,-2,-4,2021-08-07 13:03:33,802991
0,-1,-3,-11,-18,-13,-5,-2,2021-08-07 13:03:33,802991
2,3,1,4,10,9,5,2,2021-08-07 13:03:33,833990
3,4,5,8,7,4,3,3,2021-08-07 13:03:33,833990
-3,-5,-2,-2,0,1,-1,-2,2021-08-07 13:03:33,833990
-2,-1,0,2,3,1,-1,1,2021-08-07 13:03:33,833990
0,-1,-1,-10,-16,-8,-3,-2,2021-08-07 13:03:33,849992
1,1,-1,0,1,0,1,-1,2021-08-07 13:03:33,849992
-1,0,0,0,-1,-1,0,-1,2021-08-07 13:03:33,849992
-2,-1,-2,-1,1,1,-1,-2,2021-08-07 13:03:33,849992
-3,-4,-2,-2,-3,-4,-3,-2,2021-08-07 13:03:33,880993
0,2,1,0,-4,-1,0,1,2021-08-07 13:03:33,880993
-1,2,-1,-2,-3,-1,-1,0,2021-08-07 13:03:33,880993
0,-1,-1,4,6,3,1,-2,2021-08-07 13:03:33,880993
-3,-4,-5,-3,-2,-3,-3,-1,2021-08-07 13:03:33,880993
-1,-1,-1,-5,0,-1,0,-2,2021-08-07 13:03:33,880993
-1,-2,0,0,0,-2,0,0,2021-08-07 13:03:33,896992
1,2,1,5,8,1,2,-1,2021-08-07 13:03:33,896992
1,2,0,0,-5,-3,-1,-1,2021-08-07 13:03:33,912992
-2,0,-1,-3,-4,-2,-2,-1,2021-08-07 13:03:33,912992
0,0,0,0,2,0,0,2,2021-08-07 13:03:33,928990
-1,-3,0,-1,2,0,0,-2,2021-08-07 13:03:33,943990
0,3,-1,-3,-2,-3,0,0,2021-08-07 13:03:33,959992
-1,2,2,-2,-1,0,-1,0,2021-08-07 13:03:33,959992
-2,-7,-6,-4,-3,0,-1,-3,2021-08-07 13:03:33,959992
2,3,5,5,3,2,0,4,2021-08-07 13:03:33,959992
-1,0,-2,-1,-3,-2,-1,-1,2021-08-07 13:03:33,959992
1,-1,-3,-1,-1,-4,-3,-4,2021-08-07 13:03:33,960993
2,2,1,1,1,0,-1,2,2021-08-07 13:03:33,960993
-9,-2,-2,0,-1,0,-2,-8,2021-08-07 13:03:33,960993
2,-4,-2,-1,-3,0,0,2,2021-08-07 13:03:33,991992
3,1,1,1,0,0,2,5,2021-08-07 13:03:33,992235
-5,-4,1,-2,0,1,2,4,2021-08-07 13:03:33,992235
1,-1,-1,0,1,0,-1,0,2021-08-07 13:03:33,992235
-1,0,1,-1,-2,-2,-2,-3,2021-08-07 13:03:33,992235
-1,-1,-2,-1,-2,-1,-3,-3,2021-08-07 13:03:33,992235
3,3,-1,1,1,0,-2,-1,2021-08-07 13:03:33,992994
-2,-2,-3,-6,-10,-6,-3,-2,2021-08-07 13:03:33,992994
-3,-3,-3,-7,-11,-5,-4,-2,2021-08-07 13:03:34,008029
4,2,3,11,19,10,6,3,2021-08-07 13:03:34,024028
2,4,4,10,16,7,5,1,2021-08-07 13:03:34,024028
-1,-2,-2,0,-2,-1,-2,0,2021-08-07 13:03:34,024028
1,0,-3,-5,-4,-3,-2,-1,2021-08-07 13:03:34,024028
-3,-2,0,0,-2,-2,-1,-1,2021-08-07 13:03:34,024028
-1,1,0,-1,0,0,-1,-2,2021-08-07 13:03:34,040032
-1,-2,-4,-2,-1,-3,-3,-2,2021-08-07 13:03:34,040032
-7,-13,-12,-9,-9,-5,-5,-4,2021-08-07 13:03:34,040032
9,17,18,7,4,5,6,8,2021-08-07 13:03:34,040032
-2,-5,-5,-7,-10,-5,-4,-3,2021-08-07 13:03:34,056029
2,4,2,2,3,4,2,2,2021-08-07 13:03:34,056029
-1,0,1,0,2,3,0,-1,2021-08-07 13:03:34,072029
-4,-5,-5,-7,-7,-6,-5,-4,2021-08-07 13:03:34,072029
1,2,1,5,1,0,-1,-1,2021-08-07 13:03:34,072029
1,-1,-1,-1,0,0,1,1,2021-08-07 13:03:34,073034
-2,0,-2,1,2,0,0,0,2021-08-07 13:03:34,103030
-2,-4,-5,-5,-8,-5,-4,-4,2021-08-07 13:03:34,119029
0,-1,0,-6,-15,-6,-1,-1,2021-08-07 13:03:34,150029
-2,-4,-1,0,7,3,0,-2,2021-08-07 13:03:34,166029
2,5,7,13,18,8,4,1,2021-08-07 13:03:34,182027
1,-3,-2,0,3,2,0,-3,2021-08-07 13:03:34,182027
-2,-2,-5,-6,-9,-6,-3,-2,2021-08-07 13:03:34,182027
-5,-5,-7,-10,-15,-10,-6,-4,2021-08-07 13:03:34,182027
-3,-2,-1,-3,-6,0,-3,-3,2021-08-07 13:03:34,182027
2,6,5,0,-8,-2,1,2,2021-08-07 13:03:34,182027
-2,-6,-4,2,15,7,2,-3,2021-08-07 13:03:34,183029
4,8,9,1,-3,-2,2,4,2021-08-07 13:03:34,183029
0,4,1,0,-1,-2,1,0,2021-08-07 13:03:34,183029
-4,-3,-6,-3,-3,-1,-3,-2,2021-08-07 13:03:34,183029
-3,-2,-1,-3,-4,-3,-3,-3,2021-08-07 13:03:34,183029
-2,-4,-4,-2,-2,0,-2,-2,2021-08-07 13:03:34,183029
-2,-7,-5,-4,-3,-5,-5,-3,2021-08-07 13:03:34,184029
1,1,2,2,1,0,2,0,2021-08-07 13:03:34,184029
-3,-3,-5,-9,-7,-4,-2,0,2021-08-07 13:03:34,184029
0,1,4,11,14,7,3,1,2021-08-07 13:03:34,184029
4,8,8,9,8,6,4,2,2021-08-07 13:03:34,184029
-3,-3,-2,-2,-3,-2,-2,0,2021-08-07 13:03:34,184029
-1,0,0,-2,-4,-4,-2,-2,2021-08-07 13:03:34,184029
-3,-5,-7,-10,-14,-10,-6,-3,2021-08-07 13:03:34,184029
1,-2,0,1,6,4,1,0,2021-08-07 13:03:34,214028
-1,-2,-3,0,1,-1,0,-2,2021-08-07 13:03:34,230029
1,0,1,2,1,1,0,1,2021-08-07 13:03:34,246027
2,5,6,7,10,5,4,2,2021-08-07 13:03:34,246027
0,0,-1,-6,-13,-8,-4,-1,2021-08-07 13:03:34,246027
-5,-3,-6,-6,-6,-2,-2,-3,2021-08-07 13:03:34,246027
-3,-5,-4,-2,6,3,-1,-3,2021-08-07 13:03:34,246027
4,10,8,4,0,2,3,4,2021-08-07 13:03:34,246027
-2,-4,-1,3,3,0,-1,-5,2021-08-07 13:03:34,246027
-2,-4,-2,-2,-5,-3,-4,-2,2021-08-07 13:03:34,247029
3,8,8,7,5,3,2,3,2021-08-07 13:03:34,247029
-2,-5,-5,-5,-2,-1,-3,-3,2021-08-07 13:03:34,247029
-1,-1,-2,-4,-3,-2,-2,0,2021-08-07 13:03:34,278029
-2,-5,-5,-7,-13,-9,-4,-2,2021-08-07 13:03:34,294028
1,1,1,-2,-2,-1,-1,0,2021-08-07 13:03:34,309548
-5,-11,-9,0,13,6,2,-3,2021-08-07 13:03:34,309548
7,11,11,8,8,4,4,6,2021-08-07 13:03:34,309548
2,2,3,3,5,2,0,0,2021-08-07 13:03:34,309548
-1,-3,-6,-9,-17,-11,-5,-1,2021-08-07 13:03:34,309548
2,1,0,0,0,0,1,-1,2021-08-07 13:03:34,310546
-4,-9,-9,-7,-4,-3,-3,-4,2021-08-07 13:03:34,310546
-2,-1,1,3,7,6,1,1,2021-08-07 13:03:34,310546
3,5,5,5,3,1,3,1,2021-08-07 13:03:34,310546
-5,-6,-6,-7,-8,-5,-4,-5,2021-08-07 13:03:34,310546
3,5,5,3,3,2,3,3,2021-08-07 13:03:34,341546
-4,-7,-7,-9,-9,-7,-4,-3,2021-08-07 13:03:34,356544
-3,-2,-3,1,5,4,1,-2,2021-08-07 13:03:34,356544
1,3,4,2,0,0,-2,0,2021-08-07 13:03:34,356544
1,1,0,-5,-5,-3,-1,0,2021-08-07 13:03:34,356544
1,2,0,1,5,4,2,1,2021-08-07 13:03:34,357548
-3,-3,-4,-5,-3,-2,-1,-2,2021-08-07 13:03:34,357548
-2,-5,-4,-5,-9,-4,-2,-1,2021-08-07 13:03:34,372544
0,0,-2,0,-1,1,1,-2,2021-08-07 13:03:34,388546
-2,-3,-4,-2,0,-1,0,-3,2021-08-07 13:03:34,404546
-4,-3,0,6,7,0,-4,-3,2021-08-07 13:03:34,404546
0,1,1,-1,-3,-3,1,-1,2021-08-07 13:03:34,404546
-2,0,-1,-4,-4,-2,-2,0,2021-08-07 13:03:34,404546
-5,-10,-7,-1,-2,-7,-7,-5,2021-08-07 13:03:34,404546
4,5,5,-1,-6,-2,-1,2,2021-08-07 13:03:34,404546
-3,-4,-5,-4,-2,-1,0,-2,2021-08-07 13:03:34,404546
1,3,2,2,0,-1,2,1,2021-08-07 13:03:34,404546
3,2,-1,0,4,4,4,3,2021-08-07 13:03:34,405547
-2,-5,-2,-1,0,0,-2,-1,2021-08-07 13:03:34,420546
-2,0,-5,-4,-5,-4,-4,-3,2021-08-07 13:03:34,420546
0,-1,2,3,5,4,1,1,2021-08-07 13:03:34,436547
3,6,6,1,-2,1,3,2,2021-08-07 13:03:34,436547
-2,-3,-4,-7,-8,-5,-3,-2,2021-08-07 13:03:34,436547
0,-2,-1,3,7,3,1,1,2021-08-07 13:03:34,436547
-4,-6,-6,-6,-6,-6,-4,-4,2021-08-07 13:03:34,452546
4,5,6,7,8,5,2,1,2021-08-07 13:03:34,468546
0,1,2,5,3,0,1,1,2021-08-07 13:03:34,483545
-2,-4,-4,-5,-6,-3,-2,-3,2021-08-07 13:03:34,483545
-2,-1,-2,-1,-3,0,-3,-1,2021-08-07 13:03:34,483545
-2,-2,0,1,0,-1,-2,-1,2021-08-07 13:03:34,483545
2,3,-1,-7,-6,-1,0,1,2021-08-07 13:03:34,498547
1,4,5,1,-4,-1,-2,0,2021-08-07 13:03:34,498547
0,-1,-1,2,5,0,0,0,2021-08-07 13:03:34,498547
-2,0,-5,-9,-3,-2,-2,-1,2021-08-07 13:03:34,498547
-4,-6,-4,0,0,1,-1,-2,2021-08-07 13:03:34,498547
-2,-4,-4,-3,-5,-4,-2,-1,2021-08-07 13:03:34,498547
2,4,4,1,-1,0,1,1,2021-08-07 13:03:34,514545
-4,-7,-6,-7,-9,-7,-4,-5,2021-08-07 13:03:34,514545
4,7,6,9,15,10,5,4,2021-08-07 13:03:34,514545
-2,-1,-1,0,4,1,2,-1,2021-08-07 13:03:34,514545
-1,-2,0,0,0,-2,-1,-2,2021-08-07 13:03:34,530544
1,2,4,2,0,0,2,1,2021-08-07 13:03:34,530544
-5,-7,-10,-10,-12,-8,-6,-6,2021-08-07 13:03:34,546545
0,0,2,4,4,1,1,0,2021-08-07 13:03:34,546545
-1,0,-1,0,1,1,1,1,2021-08-07 13:03:34,546545
0,1,0,-3,-3,-2,0,-1,2021-08-07 13:03:34,546545
-3,-5,-1,-4,-6,-5,-4,-2,2021-08-07 13:03:34,546545
1,3,4,6,10,6,0,0,2021-08-07 13:03:34,546545
-1,-2,-1,-5,-11,-9,-5,-2,2021-08-07 13:03:34,578546
1,1,0,5,8,6,3,0,2021-08-07 13:03:34,594545
1,1,2,4,2,4,2,0,2021-08-07 13:03:34,594545
-1,-3,-4,-5,-3,-5,-3,-2,2021-08-07 13:03:34,594545
-2,-2,-2,-1,3,3,0,-2,2021-08-07 13:03:34,594545
1,0,1,1,-3,-3,-2,-1,2021-08-07 13:03:34,594545
-1,-1,-3,-4,-4,-3,-2,-3,2021-08-07 13:03:34,594545
2,0,-1,-4,-6,-3,-1,0,2021-08-07 13:03:34,595546
1,-2,0,2,4,1,1,0,2021-08-07 13:03:34,610546
1,1,-1,-1,2,1,2,1,2021-08-07 13:03:34,626546
-1,0,-2,0,2,0,1,-1,2021-08-07 13:03:34,642545
-2,-2,-1,-3,-3,-1,-3,-2,2021-08-07 13:03:34,642545
0,-2,-2,-3,-6,-2,-2,-2,2021-08-07 13:03:34,642545
-1,-1,0,0,-3,0,-1,0,2021-08-07 13:03:34,642545
-3,-4,-3,-9,-10,-7,-5,-2,2021-08-07 13:03:34,643547
1,0,3,11,12,7,4,3,2021-08-07 13:03:34,643547
1,3,2,0,1,2,2,1,2021-08-07 13:03:34,643547
0,0,1,3,4,1,-1,-1,2021-08-07 13:03:34,643547
-1,2,1,5,3,0,0,0,2021-08-07 13:03:34,651547
-2,-4,-5,-10,-10,-5,-4,-2,2021-08-07 13:03:34,652546
0,-2,1,0,5,6,2,-2,2021-08-07 13:03:34,674547
1,1,1,6,4,-1,0,1,2021-08-07 13:03:34,690546
3,1,2,2,7,5,1,0,2021-08-07 13:03:34,706549
0,1,0,4,1,-3,-2,-1,2021-08-07 13:03:34,706549
-3,-4,-4,-7,-13,-6,-3,0,2021-08-07 13:03:34,706549
-1,0,-1,-2,3,1,-1,0,2021-08-07 13:03:34,706549
0,-1,0,1,2,-1,1,0,2021-08-07 13:03:34,706549
-1,0,-1,-5,-6,-3,-1,-2,2021-08-07 13:03:34,706549
-1,-1,-1,0,-1,-2,-2,-2,2021-08-07 13:03:34,706549
-1,-1,-2,-5,-6,-1,-3,0,2021-08-07 13:03:34,707546
-2,-3,-2,-5,-7,-6,-4,-1,2021-08-07 13:03:34,707546
0,-2,-1,3,3,1,0,0,2021-08-07 13:03:34,707546
-3,-5,-4,-2,0,-2,-1,-1,2021-08-07 13:03:34,737546
5,8,8,4,5,5,5,4,2021-08-07 13:03:34,753546
3,6,4,4,4,0,2,4,2021-08-07 13:03:34,768546
-4,-2,-3,-1,-2,-3,-2,-3,2021-08-07 13:03:34,768546
-4,-6,-7,-3,-3,-4,-3,-3,2021-08-07 13:03:34,768546
0,2,0,-3,-4,-2,-2,0,2021-08-07 13:03:34,768546
-1,-3,-2,-3,-1,-3,-1,-2,2021-08-07 13:03:34,768546
-2,-1,-1,-7,-7,-3,-3,-1,2021-08-07 13:03:34,800546
1,4,1,7,10,3,1,1,2021-08-07 13:03:34,800546
-4,-5,-6,-5,-9,-5,-1,-3,2021-08-07 13:03:34,800546
0,1,0,3,-1,-2,-3,-1,2021-08-07 13:03:34,800546
4,3,6,9,18,15,7,5,2021-08-07 13:03:34,800546
-2,-3,-4,-6,-5,-5,-4,-3,2021-08-07 13:03:34,800546
1,0,-1,1,3,3,1,1,2021-08-07 13:03:34,800546
-1,-2,-1,-3,-7,-3,-1,-3,2021-08-07 13:03:34,800546
-3,-4,-3,-2,-5,-4,-4,-1,2021-08-07 13:03:34,801547
-3,-4,-4,-3,-5,-4,-3,-3,2021-08-07 13:03:34,816545
4,2,2,3,5,5,5,3,2021-08-07 13:03:34,832545
-2,-4,-4,-6,-14,-9,-4,-2,2021-08-07 13:03:34,848547
2,0,1,1,11,5,1,-2,2021-08-07 13:03:34,848547
3,8,10,7,8,6,3,2,2021-08-07 13:03:34,848547
-5,-5,-6,-5,-7,-6,-4,-5,2021-08-07 13:03:34,848547
5,5,6,6,8,7,5,5,2021-08-07 13:03:34,848547
-3,-4,-7,-7,-15,-9,-3,-3,2021-08-07 13:03:34,848547
2,3,2,-2,-4,-3,0,1,2021-08-07 13:03:34,849546
-3,-3,-3,-4,-3,-1,-2,-3,2021-08-07 13:03:34,849546
-3,-3,-2,-1,1,0,1,0,2021-08-07 13:03:34,849546
-3,-6,-6,-9,-14,-10,-6,-5,2021-08-07 13:03:34,849546
0,-2,-2,-4,-4,-3,-2,-1,2021-08-07 13:03:34,879544
0,-2,2,4,2,-1,-3,-1,2021-08-07 13:03:34,879544
-1,0,-1,3,4,3,2,0,2021-08-07 13:03:34,895546
1,2,1,-3,-2,1,0,1,2021-08-07 13:03:34,895546
2,1,1,2,3,3,4,2,2021-08-07 13:03:34,895546
-2,-2,0,0,4,1,0,-3,2021-08-07 13:03:34,895546
-4,-5,-5,-3,-2,-3,-5,-4,2021-08-07 13:03:34,927544
0,-1,-3,-1,-1,-1,2,-1,2021-08-07 13:03:34,943545
0,5,3,0,-5,-1,0,0,2021-08-07 13:03:34,943545
-4,-2,-3,-3,-3,-3,0,0,2021-08-07 13:03:34,943545
-2,-4,-4,-3,-1,-1,-1,-2,2021-08-07 13:03:34,943545
-2,-1,-2,-2,-5,-3,-1,-2,2021-08-07 13:03:34,943545
-1,-1,-2,0,-1,-1,-1,1,2021-08-07 13:03:34,943545
0,0,-2,-2,-2,-1,-2,-1,2021-08-07 13:03:34,943545
-1,-4,-4,-1,-2,-2,-4,-1,2021-08-07 13:03:34,944547
-2,-4,-1,1,1,0,-1,-1,2021-08-07 13:03:34,944547
-2,-1,0,1,2,0,0,0,2021-08-07 13:03:34,959545
2,2,1,-1,-1,-2,-1,0,2021-08-07 13:03:34,959545
1,5,5,0,-1,0,0,1,2021-08-07 13:03:34,959545
-2,-3,-5,-2,-3,-1,-3,-1,2021-08-07 13:03:34,959545
-2,-1,-2,2,3,2,1,0,2021-08-07 13:03:34,959545
-2,-1,0,1,2,2,0,-1,2021-08-07 13:03:34,959545
-2,-3,-1,-1,1,0,-1,-2,2021-08-07 13:03:34,991546
0,1,0,-4,-2,-2,-1,-1,2021-08-07 13:03:34,991546
0,-3,-2,-1,-2,-3,-1,-1,2021-08-07 13:03:34,991546
-3,-6,-5,-5,-4,-3,-2,-2,2021-08-07 13:03:34,991546
6,10,11,7,6,5,4,4,2021-08-07 13:03:34,991546
3,5,6,1,3,3,1,3,2021-08-07 13:03:34,991546
-1,-2,-4,-5,-3,-1,-1,-1,2021-08-07 13:03:35,023546
-5,-9,-9,-4,-3,-3,-3,-3,2021-08-07 13:03:35,023546
-2,-4,-4,-6,-5,-5,-2,-3,2021-08-07 13:03:35,023546
0,2,4,2,0,-4,-1,0,2021-08-07 13:03:35,023546
5,6,4,2,2,3,4,2,2021-08-07 13:03:35,023546
1,1,1,1,1,0,0,0,2021-08-07 13:03:35,023546
-7,-9,-10,-8,-4,-5,-3,-5,2021-08-07 13:03:35,039545
-3,-6,-5,-3,-3,-5,-2,-4,2021-08-07 13:03:35,039545
2,3,2,2,-2,-1,-2,1,2021-08-07 13:03:35,055545
-1,-4,-3,-2,-2,-1,-3,-3,2021-08-07 13:03:35,071545
1,0,-1,4,5,3,0,-1,2021-08-07 13:03:35,071545
-6,-7,-6,-4,-4,-1,-2,-3,2021-08-07 13:03:35,071545
1,-1,1,-6,-4,-2,0,0,2021-08-07 13:03:35,071545
4,11,10,5,5,1,3,3,2021-08-07 13:03:35,071545
1,3,2,0,0,1,1,1,2021-08-07 13:03:35,072549
1,4,3,6,7,5,0,1,2021-08-07 13:03:35,072549
-3,-7,-4,-2,-1,-1,-1,-2,2021-08-07 13:03:35,103546
-5,-9,-10,-14,-16,-11,-6,-3,2021-08-07 13:03:35,103546
-2,-2,0,-7,-8,-4,-1,-1,2021-08-07 13:03:35,119546
2,4,2,3,3,2,3,2,2021-08-07 13:03:35,119546
-2,-4,-2,5,5,2,0,-1,2021-08-07 13:03:35,119546
3,6,7,5,5,5,2,2,2021-08-07 13:03:35,119546
-4,-7,-6,-3,-2,-4,-4,-3,2021-08-07 13:03:35,135546
-1,-3,-2,-5,-10,-5,-3,-2,2021-08-07 13:03:35,150547
1,3,2,6,8,3,2,1,2021-08-07 13:03:35,150547
0,1,0,2,1,2,0,0,2021-08-07 13:03:35,150547
0,-1,-2,-2,-1,1,-2,0,2021-08-07 13:03:35,150547
-3,-5,-4,-9,-9,-6,-4,-3,2021-08-07 13:03:35,150547
-2,-2,0,5,4,0,0,-2,2021-08-07 13:03:35,151546
1,1,1,0,-2,-2,0,1,2021-08-07 13:03:35,151546
-2,0,0,1,0,1,1,-1,2021-08-07 13:03:35,151546
0,1,-2,-1,1,-1,-1,-1,2021-08-07 13:03:35,151546
0,-2,-3,-4,-4,-4,-3,-2,2021-08-07 13:03:35,182545
0,-1,1,3,6,3,1,1,2021-08-07 13:03:35,213544
-1,-2,-3,-5,-7,-5,-4,1,2021-08-07 13:03:35,229544
1,1,2,1,2,2,2,2,2021-08-07 13:03:35,229544
-5,-7,-8,-6,-2,0,-3,-3,2021-08-07 13:03:35,229544
2,7,8,5,4,4,4,2,2021-08-07 13:03:35,229544
1,3,4,1,-1,1,0,-1,2021-08-07 13:03:35,229544
-2,-2,-3,1,-2,-1,-4,-2,2021-08-07 13:03:35,230545
-4,-3,-4,-4,-5,-4,-4,-4,2021-08-07 13:03:35,230545
-4,-6,-7,-8,-7,-4,-3,-1,2021-08-07 13:03:35,230545
0,1,2,7,7,3,1,-1,2021-08-07 13:03:35,230545
3,1,1,0,-1,-2,2,1,2021-08-07 13:03:35,230545
0,0,2,-3,-4,-2,0,1,2021-08-07 13:03:35,230545
-3,-3,-3,-2,-3,-2,-2,-3,2021-08-07 13:03:35,230545
1,2,0,4,7,3,1,1,2021-08-07 13:03:35,231545
1,1,1,2,3,1,2,0,2021-08-07 13:03:35,231545
0,1,0,-3,-4,-1,-2,0,2021-08-07 13:03:35,260545
0,-1,0,3,4,3,-1,0,2021-08-07 13:03:35,276546
-2,-4,-4,-5,-4,-3,0,-2,2021-08-07 13:03:35,308546
-4,-3,-2,-7,-8,-7,-3,-2,2021-08-07 13:03:35,308546
2,3,0,0,3,2,1,-1,2021-08-07 13:03:35,308546
-1,-1,-3,-2,-1,-1,-1,-1,2021-08-07 13:03:35,308546
-1,-3,-1,-1,1,2,-1,-1,2021-08-07 13:03:35,308546
4,4,3,2,5,4,2,2,2021-08-07 13:03:35,308546
-3,-2,-2,-3,-6,-3,-2,-2,2021-08-07 13:03:35,308546
0,-2,0,0,5,4,3,-1,2021-08-07 13:03:35,309547
7,14,12,8,6,3,4,6,2021-08-07 13:03:35,309547
-4,-4,-5,-2,-4,-3,-4,-4,2021-08-07 13:03:35,309547
0,1,5,1,1,-1,-1,0,2021-08-07 13:03:35,309547
-2,-3,-5,-1,-1,-1,-1,-3,2021-08-07 13:03:35,309547
-4,-8,-6,-9,-10,-6,-6,-4,2021-08-07 13:03:35,309547
-2,-3,-1,-4,-4,0,-2,-1,2021-08-07 13:03:35,309547
1,-2,-2,3,7,3,1,1,2021-08-07 13:03:35,324544
0,-1,-1,-4,-6,-5,-4,-2,2021-08-07 13:03:35,324544
-1,-1,-2,-2,-1,1,1,-1,2021-08-07 13:03:35,356545
-1,0,-2,-1,-4,-5,-1,-2,2021-08-07 13:03:35,356545
-2,-2,-3,-3,-3,-1,-3,-1,2021-08-07 13:03:35,356545
2,1,3,3,8,4,3,0,2021-08-07 13:03:35,356545
0,-1,-3,-5,-5,-4,-2,-2,2021-08-07 13:03:35,372544
2,-2,0,1,0,0,0,0,2021-08-07 13:03:35,372544
1,1,1,-2,-2,-2,-1,1,2021-08-07 13:03:35,372544
2,1,0,-3,-3,-1,0,0,2021-08-07 13:03:35,372544
-5,-8,-7,-5,-1,-4,-2,-4,2021-08-07 13:03:35,372544
-2,-2,0,2,4,1,1,0,2021-08-07 13:03:35,372544
4,6,7,7,5,3,4,4,2021-08-07 13:03:35,388546
1,4,2,3,0,2,0,2,2021-08-07 13:03:35,388546
-2,-3,-5,-4,-3,-2,-1,-3,2021-08-07 13:03:35,388546
-2,-2,0,0,2,0,-2,-1,2021-08-07 13:03:35,388546
-1,-1,-1,-2,-2,0,0,-1,2021-08-07 13:03:35,420545
-2,-1,0,-4,-7,-4,-3,-2,2021-08-07 13:03:35,436545
2,0,1,1,2,1,1,1,2021-08-07 13:03:35,436545
0,1,-1,0,4,0,0,-1,2021-08-07 13:03:35,436545
0,0,-1,1,3,4,2,0,2021-08-07 13:03:35,436545
-3,-4,-4,-1,-6,-4,-2,-1,2021-08-07 13:03:35,436545
-6,-8,-9,-13,-17,-9,-7,-4,2021-08-07 13:03:35,436545
10,15,14,11,15,11,6,7,2021-08-07 13:03:35,437546
-2,-2,-2,3,2,-1,-2,-1,2021-08-07 13:03:35,451545
-1,1,2,1,1,-1,-1,1,2021-08-07 13:03:35,451545
-5,-7,-6,-8,-10,-7,-4,-4,2021-08-07 13:03:35,451545
-4,-5,-4,-3,1,1,-2,-1,2021-08-07 13:03:35,451545
3,6,5,2,4,3,3,2,2021-08-07 13:03:35,467546
-3,-4,-3,-2,-6,-5,-2,-4,2021-08-07 13:03:35,483545
4,6,7,6,4,3,2,3,2021-08-07 13:03:35,498545
-3,-6,-5,-7,-11,-5,-3,-3,2021-08-07 13:03:35,498545
0,-1,-2,-2,2,3,0,-2,2021-08-07 13:03:35,498545
-4,-6,-4,-2,0,-2,0,-3,2021-08-07 13:03:35,498545
-2,0,0,3,1,-1,-1,-2,2021-08-07 13:03:35,498545
0,0,-4,-5,-3,-1,-1,1,2021-08-07 13:03:35,498545
3,9,5,2,-6,-5,0,2,2021-08-07 13:03:35,511546
1,0,2,2,8,2,0,0,2021-08-07 13:03:35,511546
-2,-2,-2,-3,-3,-3,-2,-2,2021-08-07 13:03:35,511546
-3,-2,-3,2,0,2,0,2,2021-08-07 13:03:35,511546
-2,-6,-5,-8,-14,-9,-5,-2,2021-08-07 13:03:35,530544
2,5,4,2,1,1,-1,1,2021-08-07 13:03:35,545545
1,3,1,3,5,4,2,1,2021-08-07 13:03:35,545545
-2,-6,-4,-5,-7,-5,-3,-5,2021-08-07 13:03:35,545545
-5,-4,-5,-11,-10,-5,-5,-4,2021-08-07 13:03:35,545545
1,0,-1,4,6,3,1,1,2021-08-07 13:03:35,545545
0,-1,0,1,1,0,2,1,2021-08-07 13:03:35,561546
-5,-5,-3,-1,1,-3,-2,-3,2021-08-07 13:03:35,561546
0,-1,-3,-3,-3,-2,-2,-1,2021-08-07 13:03:35,561546
2,1,1,-3,-4,-2,0,-1,2021-08-07 13:03:35,561546
-2,-2,-3,0,2,-1,-1,-3,2021-08-07 13:03:35,577545
2,4,2,2,0,1,1,0,2021-08-07 13:03:35,577545
-4,-6,-5,-10,-7,-5,-4,-4,2021-08-07 13:03:35,592548
2,3,3,12,18,10,5,2,2021-08-07 13:03:35,592548
-3,-4,-4,-1,-1,-1,-2,-1,2021-08-07 13:03:35,592548
-1,0,-1,-1,-2,-2,0,-1,2021-08-07 13:03:35,592548
5,7,8,9,5,3,2,3,2021-08-07 13:03:35,624546
-5,-4,-6,-10,-10,-7,-4,-3,2021-08-07 13:03:35,640545
-1,-2,-2,-2,0,-1,-1,-1,2021-08-07 13:03:35,640545
-2,-3,-2,0,-2,-3,-2,-3,2021-08-07 13:03:35,640545
0,-4,-4,-1,-3,-1,2,0,2021-08-07 13:03:35,640545
1,3,3,-1,-4,0,-3,1,2021-08-07 13:03:35,640545
3,2,1,5,6,3,0,0,2021-08-07 13:03:35,640545
-1,0,0,-1,-4,-3,-3,-1,2021-08-07 13:03:35,640545
-1,-2,-3,2,5,1,0,-1,2021-08-07 13:03:35,655545
-3,-4,-3,-1,-4,-5,-2,-3,2021-08-07 13:03:35,671545
-1,1,0,1,8,5,2,1,2021-08-07 13:03:35,687545
2,1,2,-1,0,1,0,0,2021-08-07 13:03:35,687545
1,3,5,7,7,4,3,1,2021-08-07 13:03:35,687545
-3,-5,-5,-7,-5,-5,-4,-3,2021-08-07 13:03:35,687545
-1,-3,-5,-3,-6,-2,-1,0,2021-08-07 13:03:35,687545
-2,-3,-1,-2,-2,-3,-2,-2,2021-08-07 13:03:35,687545
1,0,4,3,2,2,1,1,2021-08-07 13:03:35,687545
2,5,2,-2,-2,-2,-1,3,2021-08-07 13:03:35,687545
1,2,8,-1,-5,-3,-3,-2,2021-08-07 13:03:35,703545
0,1,-5,2,4,4,2,1,2021-08-07 13:03:35,703545
-7,-13,-15,-9,-5,-4,-5,-6,2021-08-07 13:03:35,703545
7,8,13,7,3,5,6,5,2021-08-07 13:03:35,703545
5,5,5,0,-1,-1,2,4,2021-08-07 13:03:35,719545
-1,1,1,-3,-1,-1,0,-2,2021-08-07 13:03:35,719545
-6,-5,-6,-2,3,-1,-3,-4,2021-08-07 13:03:35,735546
-5,-10,-12,-5,-5,-3,-4,-3,2021-08-07 13:03:35,735546
4,7,7,4,1,0,1,3,2021-08-07 13:03:35,735546
2,2,3,3,3,3,2,1,2021-08-07 13:03:35,735546
-3,-2,-5,-8,-8,-4,-5,0,2021-08-07 13:03:35,766545
-5,-8,-7,-1,-2,-3,-2,-4,2021-08-07 13:03:35,781544
-1,-1,1,-1,0,-1,0,0,2021-08-07 13:03:35,781544
2,4,2,1,0,2,0,1,2021-08-07 13:03:35,781544
3,2,3,1,3,1,1,1,2021-08-07 13:03:35,781544
-3,-5,-3,-9,-8,-6,-3,-4,2021-08-07 13:03:35,781544
-2,-3,-3,-5,-7,-4,-2,-1,2021-08-07 13:03:35,781544
-1,-1,-3,4,7,4,1,-1,2021-08-07 13:03:35,781544
6,11,12,9,9,5,6,4,2021-08-07 13:03:35,797549
-6,-6,-9,-8,-11,-8,-5,-4,2021-08-07 13:03:35,797549
1,3,2,5,6,4,1,-1,2021-08-07 13:03:35,797549
-4,-5,-3,-3,-5,-5,-4,-4,2021-08-07 13:03:35,797549
-1,0,-2,-3,-6,-4,-1,0,2021-08-07 13:03:35,813545
0,0,-2,-2,1,1,0,0,2021-08-07 13:03:35,813545
-1,-3,0,3,3,2,0,0,2021-08-07 13:03:35,813545
3,1,0,-1,-2,-2,0,1,2021-08-07 13:03:35,813545
-5,-5,-5,-3,-2,-1,-2,-4,2021-08-07 13:03:35,829544
0,1,0,2,1,2,1,1,2021-08-07 13:03:35,829544
-2,-3,-3,-1,-4,-4,-4,-3,2021-08-07 13:03:35,829544
-3,-4,-3,-6,-7,-4,-2,-3,2021-08-07 13:03:35,829544
3,2,4,9,6,5,4,4,2021-08-07 13:03:35,861583
-6,-10,-10,-9,-6,-6,-5,-5,2021-08-07 13:03:35,877583
-4,-5,-5,-6,-5,-4,-4,-4,2021-08-07 13:03:35,877583
8,14,13,7,3,2,3,7,2021-08-07 13:03:35,877583
-6,-7,-9,-10,-16,-11,-7,-6,2021-08-07 13:03:35,877583
4,6,5,11,20,12,6,4,2021-08-07 13:03:35,877583
-3,-6,-6,-2,0,0,-1,-2,2021-08-07 13:03:35,877583
-3,-5,-5,-1,0,-2,-2,-1,2021-08-07 13:03:35,892586
0,3,4,2,2,1,1,2,2021-08-07 13:03:35,892586
-2,-4,1,-4,-8,-7,-4,-2,2021-08-07 13:03:35,892586
0,-1,-3,-5,-6,-3,0,-1,2021-08-07 13:03:35,908585
1,-2,-1,0,2,1,0,-1,2021-08-07 13:03:35,908585
2,2,1,-1,2,2,1,1,2021-08-07 13:03:35,908585
-1,-2,-3,0,0,0,-1,-1,2021-08-07 13:03:35,908585
1,1,1,-3,-2,-2,0,0,2021-08-07 13:03:35,908585
-3,-5,-5,-2,-3,-3,-3,-2,2021-08-07 13:03:35,908585
0,1,0,3,3,3,1,1,2021-08-07 13:03:35,940583
3,6,4,3,1,-1,3,2,2021-08-07 13:03:35,940583
-1,-1,-1,1,3,2,2,0,2021-08-07 13:03:35,940583
-3,-3,-4,-4,-5,-4,-3,-4,2021-08-07 13:03:35,940583
-1,-2,-2,-2,-1,0,-1,-1,2021-08-07 13:03:35,952584
0,4,1,-2,-2,0,0,0,2021-08-07 13:03:35,952584
-6,-10,-9,-8,-11,-8,-6,-4,2021-08-07 13:03:35,953583
4,7,9,7,11,6,3,3,2021-08-07 13:03:35,953583
3,5,5,4,3,0,3,1,2021-08-07 13:03:35,972583
-6,-8,-9,-11,-11,-6,-6,-4,2021-08-07 13:03:35,987584
4,9,10,7,6,4,2,3,2021-08-07 13:03:36,003585
-1,1,1,-1,-1,0,-1,2,2021-08-07 13:03:36,003585
-1,-3,-1,1,3,1,-2,-1,2021-08-07 13:03:36,003585
-4,-6,-5,-5,-7,-4,-4,-4,2021-08-07 13:03:36,003585
0,1,-2,4,4,1,0,0,2021-08-07 13:03:36,003585
1,1,1,-3,-10,-4,0,0,2021-08-07 13:03:36,004583
1,2,2,7,12,9,3,2,2021-08-07 13:03:36,004583
-2,-5,-4,-5,-8,-4,-1,1,2021-08-07 13:03:36,004583
1,1,0,1,3,2,0,1,2021-08-07 13:03:36,019585
-1,-1,-2,0,-1,-1,0,0,2021-08-07 13:03:36,019585
-4,-4,-4,-4,-4,-3,-3,-3,2021-08-07 13:03:36,035583
-4,-5,-2,-6,-9,-4,-5,-5,2021-08-07 13:03:36,050585
-2,-4,0,6,8,2,0,-2,2021-08-07 13:03:36,050585
8,16,14,9,6,4,3,6,2021-08-07 13:03:36,051585
-3,-4,-4,-6,-9,-5,-2,-2,2021-08-07 13:03:36,051585
-2,-4,-4,0,1,0,-1,-1,2021-08-07 13:03:36,051585
5,6,6,0,-1,0,2,2,2021-08-07 13:03:36,051585
-6,-8,-8,-8,-4,-4,-4,-4,2021-08-07 13:03:36,052584
4,5,4,2,2,1,2,1,2021-08-07 13:03:36,082583
0,0,0,0,-1,0,-1,0,2021-08-07 13:03:36,098582
-4,-8,-8,-6,-5,-4,-4,-3,2021-08-07 13:03:36,113584
-6,-9,-7,-8,-9,-5,-6,-5,2021-08-07 13:03:36,113584
-1,-2,-2,1,-1,-1,0,-1,2021-08-07 13:03:36,113584
2,4,5,6,7,1,3,2,2021-08-07 13:03:36,113584
-4,-4,-6,-7,-9,-6,-3,-2,2021-08-07 13:03:36,113584
5,9,8,8,12,9,4,5,2021-08-07 13:03:36,114583
-1,-2,-1,-3,-3,-3,-4,-1,2021-08-07 13:03:36,129585
-3,-5,-3,-2,0,-1,-3,-3,2021-08-07 13:03:36,129585
-2,-3,-2,-3,-3,-2,-2,-1,2021-08-07 13:03:36,129585
-1,-2,-2,-3,-2,-1,0,-3,2021-08-07 13:03:36,129585
2,1,1,1,3,2,1,1,2021-08-07 13:03:36,129585
4,6,7,6,4,5,2,3,2021-08-07 13:03:36,130584
-4,-5,-5,-4,-5,-3,-2,-2,2021-08-07 13:03:36,130584
-5,-9,-8,-4,-3,-3,-3,-2,2021-08-07 13:03:36,130584
2,3,5,2,2,2,0,1,2021-08-07 13:03:36,160586
1,1,1,0,1,-1,0,-1,2021-08-07 13:03:36,176585
0,-1,-3,-5,-5,-2,-1,-1,2021-08-07 13:03:36,192584
-7,-13,-12,-6,-6,-5,-4,-5,2021-08-07 13:03:36,208582
6,8,10,6,4,4,3,4,2021-08-07 13:03:36,223584
2,3,3,-1,-3,0,-1,0,2021-08-07 13:03:36,239584
-4,-3,-6,-2,-2,-1,-3,-4,2021-08-07 13:03:36,255583
7,11,11,13,12,7,7,5,2021-08-07 13:03:36,255583
-8,-10,-9,-4,-2,-2,-3,-5,2021-08-07 13:03:36,255583
3,2,0,1,3,0,-1,-1,2021-08-07 13:03:36,255583
-2,-3,-5,-6,-7,-5,-3,-4,2021-08-07 13:03:36,255583
0,0,0,5,7,2,0,-2,2021-08-07 13:03:36,255583
-4,-7,-6,-9,-11,-5,-3,-3,2021-08-07 13:03:36,255583
2,3,2,-4,-4,-2,0,2,2021-08-07 13:03:36,256583
-3,-7,-4,-2,-1,-2,-1,-2,2021-08-07 13:03:36,256583
4,7,5,1,-1,1,1,2,2021-08-07 13:03:36,271585
-1,0,-1,-1,-2,-2,-1,-2,2021-08-07 13:03:36,271585
-3,-5,-5,-5,-5,-5,-4,-3,2021-08-07 13:03:36,271585
5,6,9,10,9,5,4,1,2021-08-07 13:03:36,271585
-1,-2,-4,-2,-2,-1,-1,1,2021-08-07 13:03:36,271585
-3,-2,-3,-1,-1,-1,-1,-3,2021-08-07 13:03:36,271585
-1,-2,-2,1,0,0,3,-1,2021-08-07 13:03:36,287583
1,3,1,-4,-5,-2,-1,0,2021-08-07 13:03:36,303583
-2,-4,0,5,6,1,-1,-1,2021-08-07 13:03:36,303583
0,-2,-4,-1,-2,-1,-2,-1,2021-08-07 13:03:36,303583
0,4,3,2,2,-1,-1,0,2021-08-07 13:03:36,303583
1,0,0,-4,-5,-4,-1,-1,2021-08-07 13:03:36,303583
-2,-3,-1,-1,0,0,0,-1,2021-08-07 13:03:36,303583
1,4,3,3,-2,-4,-1,-1,2021-08-07 13:03:36,303583
-3,-3,-4,-1,-1,0,-2,-2,2021-08-07 13:03:36,304584
1,3,1,2,7,4,2,2,2021-08-07 13:03:36,304584
-3,-2,-6,-8,-6,-4,-1,-3,2021-08-07 13:03:36,304584
-5,-7,-8,-7,-6,-5,-4,-3,2021-08-07 13:03:36,304584
0,1,1,-2,-5,-4,-2,0,2021-08-07 13:03:36,304584
2,3,3,7,8,6,3,2,2021-08-07 13:03:36,319584
-2,-4,-3,-1,-2,1,0,-1,2021-08-07 13:03:36,319584
2,1,0,1,6,4,1,1,2021-08-07 13:03:36,335584
-2,-2,0,9,7,4,0,-1,2021-08-07 13:03:36,335584
0,-1,-2,-1,-6,-3,-3,-1,2021-08-07 13:03:36,335584
2,4,3,-2,-4,-1,2,1,2021-08-07 13:03:36,335584
-3,-6,-7,-9,-15,-14,-6,-6,2021-08-07 13:03:36,366581
1,-1,-2,-4,2,3,0,1,2021-08-07 13:03:36,382584
3,3,7,13,18,8,7,2,2021-08-07 13:03:36,398583
-2,-1,-3,-2,-3,-3,-1,-1,2021-08-07 13:03:36,398583
-1,2,0,-1,-1,-1,-2,-1,2021-08-07 13:03:36,398583
-3,-6,-6,-7,-9,-5,-3,-5,2021-08-07 13:03:36,398583
-6,-5,-7,-7,-9,-9,-6,-4,2021-08-07 13:03:36,398583
1,3,3,-3,-4,-1,0,-1,2021-08-07 13:03:36,398583
1,0,0,0,-1,-1,1,2,2021-08-07 13:03:36,399586
3,3,6,10,15,9,5,2,2021-08-07 13:03:36,399586
3,5,6,-1,-2,2,1,2,2021-08-07 13:03:36,399586
-4,-7,-7,-11,-12,-7,-5,-3,2021-08-07 13:03:36,399586
2,2,2,8,16,11,3,2,2021-08-07 13:03:36,412583
-2,-2,-3,-4,-5,-3,-3,-1,2021-08-07 13:03:36,412583
-1,0,-1,1,0,-1,-2,-1,2021-08-07 13:03:36,412583
-2,-4,-4,-7,-10,-5,-5,-1,2021-08-07 13:03:36,412583
-4,-7,-5,-16,-21,-10,-6,-3,2021-08-07 13:03:36,430583
3,3,5,13,23,12,7,4,2021-08-07 13:03:36,430583
-2,-3,-4,-6,-9,-6,-4,-3,2021-08-07 13:03:36,430583
1,2,4,4,2,0,0,0,2021-08-07 13:03:36,430583
-3,-3,-3,-1,3,3,-1,-3,2021-08-07 13:03:36,462584
3,6,4,-3,-10,-5,0,1,2021-08-07 13:03:36,462584
-2,-3,-3,0,4,1,-1,-2,2021-08-07 13:03:36,478581
0,0,-3,3,7,4,1,0,2021-08-07 13:03:36,478581
-7,-10,-9,-9,-9,-7,-4,-4,2021-08-07 13:03:36,478581
1,4,5,-2,-7,-4,-2,-1,2021-08-07 13:03:36,478581
2,4,4,7,3,3,0,0,2021-08-07 13:03:36,478581
-1,-3,-1,-6,-7,-3,-4,-1,2021-08-07 13:03:36,478581
-1,-6,-5,-2,2,-3,-1,0,2021-08-07 13:03:36,494583
-1,-2,-2,-6,-8,-5,-5,-3,2021-08-07 13:03:36,494583
-3,-5,-6,-13,-11,-3,-1,0,2021-08-07 13:03:36,494583
1,1,-1,4,4,4,3,0,2021-08-07 13:03:36,494583
4,5,5,11,15,8,4,1,2021-08-07 13:03:36,525584
-4,-5,-5,-4,-5,-5,-3,-3,2021-08-07 13:03:36,525584
2,1,3,5,7,0,-1,0,2021-08-07 13:03:36,525584
-2,-2,-3,-2,-1,-1,-1,-2,2021-08-07 13:03:36,525584
6,10,9,13,11,4,5,3,2021-08-07 13:03:36,541583
-8,-12,-15,-18,-20,-17,-8,-7,2021-08-07 13:03:36,557583
-9,-18,-18,-23,-28,-15,-9,-8,2021-08-07 13:03:36,557583
7,12,11,6,7,3,4,7,2021-08-07 13:03:36,557583
3,6,6,7,6,6,3,3,2021-08-07 13:03:36,557583
1,4,4,8,8,5,0,-2,2021-08-07 13:03:36,557583
-2,-4,-5,-2,4,1,1,-1,2021-08-07 13:03:36,557583
-6,-9,-9,-12,-13,-9,-6,-3,2021-08-07 13:03:36,557583
1,2,6,8,12,11,3,3,2021-08-07 13:03:36,573583
-2,-2,-3,-1,-1,-3,-4,-2,2021-08-07 13:03:36,573583
-4,-2,-2,-2,-2,1,0,-1,2021-08-07 13:03:36,573583
5,4,3,3,4,5,8,5,2021-08-07 13:03:36,573583
-1,-1,0,-5,-10,-7,-5,-3,2021-08-07 13:03:36,605586
-4,-5,-4,-2,-1,-6,-8,-6,2021-08-07 13:03:36,621583
24,20,17,14,18,39,59,34,2021-08-07 13:03:36,621583
26,15,12,20,34,37,24,5,2021-08-07 13:03:36,621583
6,3,-2,-7,-14,-31,-45,-12,2021-08-07 13:03:36,621583
-53,-30,-26,-31,-42,-46,-29,-24,2021-08-07 13:03:36,637583
52,20,9,13,28,59,78,37,2021-08-07 13:03:36,637583
28,10,9,11,19,37,32,12,2021-08-07 13:03:36,637583
-82,-46,-20,-23,-44,-69,-59,-77,2021-08-07 13:03:36,637583
73,28,3,-4,-4,9,57,22,2021-08-07 13:03:36,637583
57,24,1,-8,-14,18,13,-40,2021-08-07 13:03:36,637583
-81,-39,-14,-11,-26,-75,-72,-77,2021-08-07 13:03:36,637583
-59,-78,-38,-38,-49,-50,-15,20,2021-08-07 13:03:36,653584
27,-26,-1,11,20,64,59,80,2021-08-07 13:03:36,653584
82,75,61,51,46,52,59,76,2021-08-07 13:03:36,653584
28,21,-5,-1,1,16,0,-20,2021-08-07 13:03:36,653584
-66,2,6,6,4,-25,-85,-71,2021-08-07 13:03:36,669583
-47,-34,-11,-3,10,8,37,24,2021-08-07 13:03:36,669583
42,22,11,14,28,54,38,70,2021-08-07 13:03:36,700585
-14,10,-2,-10,-24,-66,-93,-36,2021-08-07 13:03:36,700585
8,5,-4,-1,0,1,26,23,2021-08-07 13:03:36,700585
51,19,3,-4,1,38,44,25,2021-08-07 13:03:36,700585
-40,-23,-2,2,5,2,-9,-24,2021-08-07 13:03:36,700585
-8,17,17,9,3,3,-3,-35,2021-08-07 13:03:36,701584
9,-9,-10,-8,-5,-7,-33,-36,2021-08-07 13:03:36,716583
-42,0,5,-1,-4,-36,-53,-12,2021-08-07 13:03:36,732584
-43,-40,-21,-25,-46,-64,-45,14,2021-08-07 13:03:36,748583
19,-14,-14,-12,-10,11,42,50,2021-08-07 13:03:36,748583
81,55,30,28,51,96,106,58,2021-08-07 13:03:36,748583
0,1,-5,0,0,-5,-33,-54,2021-08-07 13:03:36,748583
-59,-32,-22,-29,-50,-72,-78,-66,2021-08-07 13:03:36,748583
3,-1,3,0,13,30,36,34,2021-08-07 13:03:36,748583
35,20,13,43,65,62,51,29,2021-08-07 13:03:36,748583
-10,-5,-9,-22,-40,-39,-41,-26,2021-08-07 13:03:36,748583
-40,-19,-6,24,45,-7,-29,-32,2021-08-07 13:03:36,764583
17,14,15,32,33,30,31,31,2021-08-07 13:03:36,780582
15,8,-4,-19,-37,-13,3,9,2021-08-07 13:03:36,780582
-5,-4,-9,-8,21,13,-7,-10,2021-08-07 13:03:36,780582
-23,-31,-40,-62,-62,-46,-29,-21,2021-08-07 13:03:36,780582
-2,-11,-6,-25,-53,-25,-8,1,2021-08-07 13:03:36,780582
3,5,4,-10,-26,-15,-2,4,2021-08-07 13:03:36,796581
6,13,17,39,28,26,10,3,2021-08-07 13:03:36,811581
0,9,16,55,98,60,19,-1,2021-08-07 13:03:36,827582
-7,-6,0,18,29,10,1,1,2021-08-07 13:03:36,827582
7,6,5,13,17,13,13,4,2021-08-07 13:03:36,827582
8,1,0,-9,-37,-24,-6,4,2021-08-07 13:03:36,827582
-10,2,1,-10,-19,-25,-25,-16,2021-08-07 13:03:36,827582
-14,-22,-19,-25,-23,-13,-7,-2,2021-08-07 13:03:36,827582
21,17,16,11,12,18,22,21,2021-08-07 13:03:36,828585
3,13,11,4,5,-1,-6,-9,2021-08-07 13:03:36,828585
-12,-9,-7,-3,-9,-12,-10,-9,2021-08-07 13:03:36,842582
-15,-16,-19,-59,-105,-69,-36,-13,2021-08-07 13:03:36,842582
11,-2,-1,41,84,71,36,14,2021-08-07 13:03:36,854583
8,25,29,25,36,23,11,4,2021-08-07 13:03:36,854583
-8,-2,-3,-7,-13,-7,-4,-5,2021-08-07 13:03:36,854583
2,-2,-5,-1,-1,2,7,3,2021-08-07 13:03:36,854583
-5,-11,-15,-34,-55,-38,-19,-4,2021-08-07 13:03:36,874583
-9,-6,-5,3,12,0,-7,-9,2021-08-07 13:03:36,874583
0,3,0,-1,-9,-3,-1,1,2021-08-07 13:03:36,874583
2,-2,-2,4,15,15,9,6,2021-08-07 13:03:36,874583
0,-1,-2,-4,-6,-8,-2,0,2021-08-07 13:03:36,904583
2,1,3,5,7,5,3,-2,2021-08-07 13:03:36,904583
-9,-9,-7,-18,-31,-22,-15,-12,2021-08-07 13:03:36,904583
5,6,9,19,29,19,9,8,2021-08-07 13:03:36,904583
5,4,1,-5,-7,1,6,5,2021-08-07 13:03:36,920582
-9,-13,-13,-13,-20,-19,-13,-10,2021-08-07 13:03:36,920582
-2,-2,-3,-1,1,-2,-7,-4,2021-08-07 13:03:36,920582
0,0,3,13,22,14,9,4,2021-08-07 13:03:36,920582
0,-2,-4,-10,-19,-9,-1,1,2021-08-07 13:03:36,936584
-5,-5,-10,-7,-4,-3,-6,-5,2021-08-07 13:03:36,936584
-1,2,4,8,3,0,-1,-1,2021-08-07 13:03:36,936584
-5,-5,-5,-8,-5,0,-2,-1,2021-08-07 13:03:36,936584
-6,-12,-12,-4,-2,-3,-3,-3,2021-08-07 13:03:36,967584
8,15,17,16,21,10,6,4,2021-08-07 13:03:36,967584
1,2,1,3,-1,-3,0,2,2021-08-07 13:03:36,967584
2,1,1,2,9,6,6,2,2021-08-07 13:03:36,967584
-4,-4,-3,-4,-7,-7,-5,-5,2021-08-07 13:03:36,983586
-6,-9,-12,-11,-7,-5,-6,-6,2021-08-07 13:03:36,999583
1,0,2,0,-1,-2,-1,1,2021-08-07 13:03:36,999583
4,5,4,4,3,5,5,4,2021-08-07 13:03:36,999583
-2,-1,-3,-11,-13,-10,-4,-2,2021-08-07 13:03:36,999583
2,2,3,8,12,8,5,2,2021-08-07 13:03:36,999583
-1,-3,-4,-11,-18,-12,-6,-3,2021-08-07 13:03:37,015582
-3,-5,-4,-3,0,1,-1,-2,2021-08-07 13:03:37,031582
1,4,4,4,4,3,1,1,2021-08-07 13:03:37,047581
-1,1,-3,-9,-18,-9,-6,-2,2021-08-07 13:03:37,047581
3,3,5,13,20,13,5,3,2021-08-07 13:03:37,047581
-3,-4,-4,-4,-6,-6,-4,-5,2021-08-07 13:03:37,047581
3,4,5,11,21,13,7,5,2021-08-07 13:03:37,047581
-3,-3,-1,-10,-15,-11,-7,-4,2021-08-07 13:03:37,047581
-5,-5,-6,-8,-12,-7,-5,-4,2021-08-07 13:03:37,047581
4,2,3,7,11,6,3,2,2021-08-07 13:03:37,047581
2,-2,-5,-10,-17,-5,0,3,2021-08-07 13:03:37,047581
-4,-5,-6,-3,5,4,0,-3,2021-08-07 13:03:37,048584
0,1,1,3,3,-1,2,1,2021-08-07 13:03:37,063583
-1,1,0,8,11,7,1,-2,2021-08-07 13:03:37,063583
3,6,7,-4,-17,-11,-3,-2,2021-08-07 13:03:37,079584
-5,-9,-10,-1,-4,-7,-6,-4,2021-08-07 13:03:37,095582
1,2,0,-7,-9,0,2,1,2021-08-07 13:03:37,111581
3,4,1,13,26,13,7,4,2021-08-07 13:03:37,111581
-1,-1,-3,-10,-4,-1,-2,0,2021-08-07 13:03:37,111581
-6,-7,-4,-2,-11,-8,-6,-5,2021-08-07 13:03:37,111581
3,5,8,17,24,9,4,4,2021-08-07 13:03:37,111581
-6,-9,-10,-25,-39,-21,-7,-5,2021-08-07 13:03:37,111581
6,12,12,25,42,30,13,8,2021-08-07 13:03:37,127582
-2,-2,-3,-6,-7,-7,-3,-2,2021-08-07 13:03:37,127582
-5,-3,-4,-6,-16,-10,-6,-4,2021-08-07 13:03:37,127582
2,1,3,3,2,2,2,4,2021-08-07 13:03:37,127582
-9,-9,-9,-21,-29,-19,-13,-8,2021-08-07 13:03:37,142584
-3,-5,-4,-2,1,1,0,-2,2021-08-07 13:03:37,142584
2,3,3,2,-2,-2,0,0,2021-08-07 13:03:37,142584
-1,-3,-1,1,-7,-5,-3,-2,2021-08-07 13:03:37,142584
0,1,-1,-10,-9,-4,-2,0,2021-08-07 13:03:37,158583
3,8,8,16,26,11,3,3,2021-08-07 13:03:37,174582
-2,-7,-6,-10,-3,-1,-2,-2,2021-08-07 13:03:37,190584
3,5,7,19,23,11,5,4,2021-08-07 13:03:37,190584
-2,-2,-2,2,-7,-6,-3,-4,2021-08-07 13:03:37,190584
-2,-3,-3,-16,-19,-11,-6,-4,2021-08-07 13:03:37,190584
2,7,8,10,14,9,3,2,2021-08-07 13:03:37,190584
1,1,4,11,14,8,5,0,2021-08-07 13:03:37,191585
-7,-11,-17,-29,-28,-16,-8,-7,2021-08-07 13:03:37,191585
0,-1,-7,-23,-14,-7,-3,1,2021-08-07 13:03:37,191585
-5,-8,-8,-22,-31,-17,-10,-6,2021-08-07 13:03:37,191585
2,4,6,11,15,10,3,4,2021-08-07 13:03:37,191585
4,7,10,32,39,19,9,4,2021-08-07 13:03:37,221583
2,3,0,16,8,3,5,0,2021-08-07 13:03:37,221583
-3,-5,-7,-19,-21,-11,-8,-5,2021-08-07 13:03:37,221583
2,3,5,9,15,8,4,3,2021-08-07 13:03:37,221583
-1,-2,0,-11,-17,-11,-4,-3,2021-08-07 13:03:37,237583
-3,-3,-2,-7,-8,-3,-4,-2,2021-08-07 13:03:37,253581
-1,-2,-2,3,-2,-1,2,1,2021-08-07 13:03:37,269585
3,7,8,4,-3,0,1,3,2021-08-07 13:03:37,269585
-3,-3,-2,-1,6,0,-2,-4,2021-08-07 13:03:37,269585
4,4,5,10,10,8,6,3,2021-08-07 13:03:37,269585
-6,-9,-11,-6,2,-2,-2,-3,2021-08-07 13:03:37,269585
-1,-3,-1,-2,3,2,1,-2,2021-08-07 13:03:37,270583
1,1,2,1,-5,-3,-2,-1,2021-08-07 13:03:37,276585
-2,2,1,-1,-7,-2,-1,0,2021-08-07 13:03:37,276585
7,8,8,6,18,11,7,5,2021-08-07 13:03:37,276585
-8,-11,-15,-32,-51,-29,-16,-10,2021-08-07 13:03:37,276585
4,3,7,20,50,30,12,5,2021-08-07 13:03:37,276585
-2,-4,0,-2,0,-2,-2,-3,2021-08-07 13:03:37,277586
-2,-1,4,5,3,0,-1,-1,2021-08-07 13:03:37,301584
-2,-4,-19,-14,-10,-7,-3,-1,2021-08-07 13:03:37,301584
-1,1,1,-2,-21,-12,-4,-1,2021-08-07 13:03:37,301584
-1,0,0,8,9,4,1,0,2021-08-07 13:03:37,301584
2,4,5,0,3,1,2,1,2021-08-07 13:03:37,317583
-2,-2,2,-8,-15,-9,-6,-3,2021-08-07 13:03:37,317583
-8,-12,-10,-10,-8,-4,-5,-8,2021-08-07 13:03:37,333583
7,9,13,20,27,15,9,5,2021-08-07 13:03:37,333583
-3,-2,-3,0,-11,-7,-5,-5,2021-08-07 13:03:37,349584
2,3,5,1,0,3,2,1,2021-08-07 13:03:37,349584
-2,0,-2,5,6,-1,-2,-2,2021-08-07 13:03:37,349584
-2,-4,-6,-21,-22,-11,-6,-3,2021-08-07 13:03:37,349584
-4,-8,-13,-25,-18,-7,-5,-4,2021-08-07 13:03:37,349584
-3,-5,-4,4,4,2,-2,-3,2021-08-07 13:03:37,349584
6,8,9,-2,-8,-2,1,4,2021-08-07 13:03:37,365583
2,3,4,15,10,3,4,0,2021-08-07 13:03:37,381583
2,4,2,10,0,3,2,2,2021-08-07 13:03:37,413585
-5,-8,-5,5,12,4,0,-1,2021-08-07 13:03:37,429584
-9,-11,-14,-14,-16,-15,-9,-7,2021-08-07 13:03:37,429584
6,12,11,11,15,12,6,5,2021-08-07 13:03:37,429584
4,5,5,23,28,15,11,5,2021-08-07 13:03:37,429584
1,3,4,-2,-3,-4,-1,-1,2021-08-07 13:03:37,429584
-5,-7,-7,-7,-12,-6,-6,-3,2021-08-07 13:03:37,429584
-10,-15,-17,-27,-33,-21,-15,-8,2021-08-07 13:03:37,429584
-1,-4,0,3,6,5,2,-1,2021-08-07 13:03:37,430584
2,5,6,8,13,11,4,2,2021-08-07 13:03:37,430584
-1,1,1,-2,-2,-3,-1,2,2021-08-07 13:03:37,430584
-4,-7,-8,-7,-16,-7,-5,-3,2021-08-07 13:03:37,430584
-1,4,2,-3,-9,-6,-2,0,2021-08-07 13:03:37,430584
-1,-1,-2,-3,4,4,1,0,2021-08-07 13:03:37,430584
-3,-4,-7,-18,-12,-5,-3,-3,2021-08-07 13:03:37,461585
0,1,2,9,10,4,2,0,2021-08-07 13:03:37,477583
-1,-2,-2,0,-9,-6,-3,-3,2021-08-07 13:03:37,493583
7,9,9,11,16,8,7,6,2021-08-07 13:03:37,493583
7,8,8,12,13,9,6,6,2021-08-07 13:03:37,493583
-5,-5,-6,2,0,0,-2,-3,2021-08-07 13:03:37,493583
-2,-5,-9,-18,-4,-3,-2,-2,2021-08-07 13:03:37,493583
-3,-3,-2,-16,-26,-14,-10,-4,2021-08-07 13:03:37,493583
-2,-4,0,12,14,8,3,0,2021-08-07 13:03:37,494586
8,10,13,11,3,3,4,4,2021-08-07 13:03:37,494586
-1,-1,-1,5,10,3,2,-1,2021-08-07 13:03:37,494586
-8,-12,-12,-26,-24,-13,-7,-6,2021-08-07 13:03:37,494586
4,7,9,14,16,7,3,3,2021-08-07 13:03:37,525584
-2,-2,-4,0,-3,-3,0,0,2021-08-07 13:03:37,541583
-1,0,2,2,0,-3,-4,-3,2021-08-07 13:03:37,541583
0,-3,-5,-2,2,2,1,-1,2021-08-07 13:03:37,541583
-6,-7,-6,-5,-14,-8,-7,-5,2021-08-07 13:03:37,541583
3,5,5,1,-4,-5,-4,0,2021-08-07 13:03:37,541583
-2,-3,-6,-10,-13,-3,-2,-1,2021-08-07 13:03:37,541583
-1,2,1,14,23,9,4,-2,2021-08-07 13:03:37,541583
4,7,6,4,7,3,3,3,2021-08-07 13:03:37,557583
-8,-8,-13,-17,-22,-12,-6,-6,2021-08-07 13:03:37,573583
2,4,11,12,18,6,3,1,2021-08-07 13:03:37,589583
-4,-6,-16,-1,2,-1,-2,-3,2021-08-07 13:03:37,589583
3,7,7,2,2,1,2,1,2021-08-07 13:03:37,589583
1,3,4,9,8,6,3,3,2021-08-07 13:03:37,589583
2,0,-1,-5,-9,-3,1,0,2021-08-07 13:03:37,589583
-4,-5,-1,-7,-22,-11,-7,-4,2021-08-07 13:03:37,589583
-3,-5,-4,-8,-1,-3,-4,-1,2021-08-07 13:03:37,590583
2,3,3,9,21,13,7,4,2021-08-07 13:03:37,590583
0,1,-1,11,17,7,2,1,2021-08-07 13:03:37,590583
4,7,11,18,21,10,6,3,2021-08-07 13:03:37,590583
1,-2,-3,-1,-19,-13,-6,-3,2021-08-07 13:03:37,604583
-6,-11,-15,-33,-34,-17,-11,-5,2021-08-07 13:03:37,620585
-8,-12,-11,-36,-36,-18,-11,-6,2021-08-07 13:03:37,620585
2,3,7,12,18,12,3,2,2021-08-07 13:03:37,620585
2,3,-1,9,18,10,6,1,2021-08-07 13:03:37,636582
2,2,5,17,22,9,3,0,2021-08-07 13:03:37,636582
-1,1,-1,18,12,3,3,1,2021-08-07 13:03:37,636582
-5,-6,-7,-20,-33,-20,-9,-4,2021-08-07 13:03:37,636582
-4,-6,-5,-6,-13,-7,-5,-5,2021-08-07 13:03:37,652583
0,-3,-2,1,13,8,3,-1,2021-08-07 13:03:37,668582
-1,2,1,6,-2,0,-2,0,2021-08-07 13:03:37,668582
-1,-3,-1,-2,6,-1,-1,-1,2021-08-07 13:03:37,668582
-1,-1,-2,0,-5,-1,-1,-1,2021-08-07 13:03:37,684583
0,-3,-5,-7,-5,-2,0,-1,2021-08-07 13:03:37,684583
1,-1,1,-6,3,0,-1,-2,2021-08-07 13:03:37,684583
2,4,2,5,-2,-1,0,1,2021-08-07 13:03:37,684583
-2,-3,-3,-4,-14,-10,-5,-1,2021-08-07 13:03:37,684583
0,3,3,16,27,14,5,1,2021-08-07 13:03:37,684583
2,2,1,-4,-19,-9,-3,1,2021-08-07 13:03:37,700581
3,1,2,0,20,13,6,4,2021-08-07 13:03:37,705584
-3,-7,-3,1,14,8,2,-3,2021-08-07 13:03:37,705584
-2,-1,3,-15,-24,-13,-7,-4,2021-08-07 13:03:37,705584
4,7,0,30,43,21,11,5,2021-08-07 13:03:37,715581
0,1,1,9,-9,-9,-2,1,2021-08-07 13:03:37,715581
-6,-6,-10,-18,-19,-11,-8,-4,2021-08-07 13:03:37,731583
-2,-3,0,-10,-12,-5,-1,-2,2021-08-07 13:03:37,747581
-3,-6,-11,-23,-16,-6,-6,-4,2021-08-07 13:03:37,747581
1,0,0,2,6,3,2,2,2021-08-07 13:03:37,747581
0,1,3,17,17,8,4,0,2021-08-07 13:03:37,747581
1,0,1,10,2,0,-1,0,2021-08-07 13:03:37,747581
-5,-5,-4,-10,-23,-14,-8,-6,2021-08-07 13:03:37,763581
-4,-3,1,3,4,4,1,-3,2021-08-07 13:03:37,763581
0,1,2,-4,-7,-2,-2,-2,2021-08-07 13:03:37,779584
1,3,-1,-3,-3,-4,-2,0,2021-08-07 13:03:37,795583
0,-4,-5,-12,-5,-1,1,0,2021-08-07 13:03:37,795583
-1,-1,-5,-8,3,-2,-2,-1,2021-08-07 13:03:37,795583
-1,2,4,2,-8,-7,-2,0,2021-08-07 13:03:37,795583
2,2,1,7,3,2,2,0,2021-08-07 13:03:37,795583
4,5,8,22,30,16,6,3,2021-08-07 13:03:37,795583
-6,-11,-13,-20,-24,-14,-9,-5,2021-08-07 13:03:37,795583
0,0,2,-3,8,8,2,1,2021-08-07 13:03:37,810583
3,9,7,1,-2,-7,-1,2,2021-08-07 13:03:37,810583
-1,-1,1,-4,-10,-6,-4,-3,2021-08-07 13:03:37,810583
3,5,4,6,10,7,4,3,2021-08-07 13:03:37,810583
-2,-5,-6,1,2,4,2,-1,2021-08-07 13:03:37,842584
0,-3,-1,-2,0,0,-1,0,2021-08-07 13:03:37,842584
0,0,1,3,2,-1,-1,0,2021-08-07 13:03:37,842584
-2,-2,-7,-8,-14,-7,-4,-1,2021-08-07 13:03:37,842584
-6,-5,-4,-12,-26,-19,-8,-4,2021-08-07 13:03:37,842584
5,6,10,21,28,20,11,6,2021-08-07 13:03:37,842584
1,3,5,18,27,11,4,4,2021-08-07 13:03:37,858581
-2,-1,-3,-9,-16,-10,-5,-4,2021-08-07 13:03:37,858581
-3,-4,-10,-21,-2,1,-2,-1,2021-08-07 13:03:37,874583
-9,-12,-11,-24,-23,-15,-11,-7,2021-08-07 13:03:37,874583
-1,-4,-6,-6,-17,-11,-6,-1,2021-08-07 13:03:37,874583
4,6,13,24,26,13,7,5,2021-08-07 13:03:37,874583
3,5,3,14,6,-1,1,-1,2021-08-07 13:03:37,890586
-3,-4,-7,-17,-12,-1,-1,-1,2021-08-07 13:03:37,890586
-3,-3,4,-5,-6,-3,-2,-2,2021-08-07 13:03:37,890586
-1,-1,-2,-5,-7,-5,-2,0,2021-08-07 13:03:37,890586
3,4,2,9,11,5,4,1,2021-08-07 13:03:37,906584
-2,-5,-6,-4,-8,-4,-2,-1,2021-08-07 13:03:37,906584
1,2,3,8,8,4,1,0,2021-08-07 13:03:37,922583
0,2,4,-2,5,1,0,1,2021-08-07 13:03:37,922583
0,-1,0,-6,-3,-5,-2,-1,2021-08-07 13:03:37,922583
3,3,1,2,0,5,4,1,2021-08-07 13:03:37,922583
-5,-10,-12,-25,-30,-17,-9,-4,2021-08-07 13:03:37,938582
2,4,10,35,39,20,8,2,2021-08-07 13:03:37,938582
0,3,1,4,6,1,-1,2,2021-08-07 13:03:37,970583
-4,-6,-8,-15,-22,-13,-8,-2,2021-08-07 13:03:37,986583
3,6,3,-5,3,3,4,4,2021-08-07 13:03:38,002583
-7,-9,-7,-9,-12,-9,-6,-5,2021-08-07 13:03:38,002583
0,0,0,3,-4,-4,-1,2,2021-08-07 13:03:38,002583
2,3,4,15,16,9,4,2,2021-08-07 13:03:38,002583
-3,-3,-4,-9,-12,-5,-3,-1,2021-08-07 13:03:38,002583
-2,-2,-5,-20,-18,-7,-4,-3,2021-08-07 13:03:38,002583
-1,-1,-1,6,6,1,-1,-2,2021-08-07 13:03:38,003584
0,-1,0,13,17,6,1,-1,2021-08-07 13:03:38,003584
0,-2,1,10,11,5,1,-1,2021-08-07 13:03:38,003584
4,6,3,4,2,3,3,3,2021-08-07 13:03:38,003584
-1,0,0,-10,-15,-4,-2,0,2021-08-07 13:03:38,018583
0,0,2,-19,-15,-9,-3,-3,2021-08-07 13:03:38,018583
-3,-5,-12,5,3,-2,-3,-4,2021-08-07 13:03:38,034583
-2,-5,-3,-5,-1,-3,-2,-2,2021-08-07 13:03:38,034583
1,-2,-1,7,11,8,3,0,2021-08-07 13:03:38,034583
4,6,10,28,26,11,6,3,2021-08-07 13:03:38,034583
1,6,11,3,-2,-1,1,1,2021-08-07 13:03:38,034583
-3,-5,-5,-11,-18,-12,-4,-4,2021-08-07 13:03:38,034583
-2,-5,-10,-26,-18,-4,-2,-2,2021-08-07 13:03:38,050582
-9,-10,-10,-27,-29,-18,-11,-7,2021-08-07 13:03:38,050582
0,-2,1,3,5,5,2,1,2021-08-07 13:03:38,082583
-2,-3,-3,8,12,4,1,0,2021-08-07 13:03:38,082583
-6,-8,-5,-6,-18,-15,-9,-8,2021-08-07 13:03:38,082583
12,19,19,34,39,26,15,11,2021-08-07 13:03:38,082583
2,3,2,2,-2,-2,1,1,2021-08-07 13:03:38,082583
-2,-2,-1,2,4,2,0,-2,2021-08-07 13:03:38,082583
-4,-7,-7,-12,-10,-6,-4,-4,2021-08-07 13:03:38,083585
-2,-4,-7,0,-2,-4,-2,-2,2021-08-07 13:03:38,083585
1,2,5,8,2,1,2,0,2021-08-07 13:03:38,098583
5,8,9,2,10,8,4,5,2021-08-07 13:03:38,114584
-8,-10,-16,-10,-3,-7,-5,-6,2021-08-07 13:03:38,114584
-3,-1,-6,-7,-11,-6,-3,0,2021-08-07 13:03:38,114584
-1,-2,-5,-5,-7,-3,-2,-2,2021-08-07 13:03:38,146583
1,2,7,-17,-20,-8,-2,0,2021-08-07 13:03:38,146784
0,4,2,9,11,6,2,1,2021-08-07 13:03:38,146784
-4,-5,-6,-4,-12,-7,-4,-4,2021-08-07 13:03:38,146784
0,2,-1,13,18,7,5,2,2021-08-07 13:03:38,146784
-4,-5,-6,-8,-18,-12,-5,-4,2021-08-07 13:03:38,146784
4,4,9,9,10,10,5,3,2021-08-07 13:03:38,146784
1,-2,-1,3,5,2,-1,-1,2021-08-07 13:03:38,147583
0,-2,-4,-7,-8,-5,-3,-1,2021-08-07 13:03:38,150583
-3,-6,-4,-2,0,-1,-2,-2,2021-08-07 13:03:38,150583
4,7,7,15,22,12,9,5,2021-08-07 13:03:38,194583
-1,1,0,-12,-20,-10,-4,-3,2021-08-07 13:03:38,194583
3,4,5,1,9,7,2,2,2021-08-07 13:03:38,194583
0,2,-1,11,6,2,1,0,2021-08-07 13:03:38,194583
-5,-7,-8,-10,-8,-5,-4,-4,2021-08-07 13:03:38,195584
-4,-5,-7,-9,1,1,-2,-3,2021-08-07 13:03:38,195584
-3,-3,-1,-10,-14,-8,-4,-3,2021-08-07 13:03:38,195584
2,3,2,7,4,3,-1,-1,2021-08-07 13:03:38,195584
0,0,3,3,1,0,0,0,2021-08-07 13:03:38,226581
-4,-5,-3,-3,-2,-4,-3,-2,2021-08-07 13:03:38,241583
0,3,1,2,5,2,1,1,2021-08-07 13:03:38,241583
-2,-4,-5,-3,-7,-5,-3,-1,2021-08-07 13:03:38,241583
1,3,6,7,3,1,1,0,2021-08-07 13:03:38,241583
-1,-3,-4,-9,-8,-5,-3,-2,2021-08-07 13:03:38,241583
0,2,4,2,8,9,4,0,2021-08-07 13:03:38,242583
3,5,3,16,20,12,7,3,2021-08-07 13:03:38,242583
-2,1,-1,-8,-10,-8,-5,0,2021-08-07 13:03:38,272583
1,2,1,-2,3,4,1,2,2021-08-07 13:03:38,272583
-7,-13,-14,-24,-22,-14,-10,-7,2021-08-07 13:03:38,272583
-3,-3,-2,-5,-8,-6,-5,-3,2021-08-07 13:03:38,272583
0,0,1,2,0,-1,1,-1,2021-08-07 13:03:38,272583
-1,0,-1,7,-6,-4,-3,-2,2021-08-07 13:03:38,273584
2,3,4,10,9,6,3,3,2021-08-07 13:03:38,304583
-4,-4,-7,-16,-10,-8,-5,-4,2021-08-07 13:03:38,304583
2,2,4,7,2,2,2,3,2021-08-07 13:03:38,304583
-1,1,4,-3,1,2,2,-1,2021-08-07 13:03:38,304583
1,-2,-6,-4,-12,-7,-4,0,2021-08-07 13:03:38,304583
-1,-1,-1,13,25,15,5,1,2021-08-07 13:03:38,305583
-4,-4,-5,-3,-9,-8,-5,-3,2021-08-07 13:03:38,320583
1,4,2,7,10,5,2,2,2021-08-07 13:03:38,336582
0,0,-1,-9,-5,-2,2,0,2021-08-07 13:03:38,352584
-4,-5,-6,-14,-23,-14,-8,-4,2021-08-07 13:03:38,352584
-2,-7,-7,-16,-10,1,-1,-2,2021-08-07 13:03:38,352584
-2,-6,-7,7,13,5,1,0,2021-08-07 13:03:38,352584
8,15,18,21,23,14,8,6,2021-08-07 13:03:38,352584
0,1,1,0,-6,-5,-1,-1,2021-08-07 13:03:38,353583
1,4,4,14,-5,-6,-1,-2,2021-08-07 13:03:38,353583
-3,-3,-4,4,21,9,4,-1,2021-08-07 13:03:38,353583
-6,-11,-13,-30,-24,-13,-5,-5,2021-08-07 13:03:38,353583
3,4,7,13,24,15,5,1,2021-08-07 13:03:38,353583
0,0,0,-5,-8,-6,0,-1,2021-08-07 13:03:38,383583
0,0,0,0,-10,-2,-1,0,2021-08-07 13:03:38,383583
-1,2,2,7,6,0,0,0,2021-08-07 13:03:38,383583
-4,-6,-7,-17,-19,-13,-5,-4,2021-08-07 13:03:38,383583
0,-2,0,2,7,7,2,1,2021-08-07 13:03:38,399583
2,4,6,8,4,1,1,2,2021-08-07 13:03:38,415581
1,4,6,19,17,8,4,3,2021-08-07 13:03:38,430582
-6,-8,-14,-28,-31,-14,-7,-6,2021-08-07 13:03:38,430582
-3,-3,-2,-10,1,2,0,-2,2021-08-07 13:03:38,430582
-2,1,-1,-9,-3,1,-1,0,2021-08-07 13:03:38,430582
-1,-3,5,16,15,7,2,-3,2021-08-07 13:03:38,430582
2,3,1,10,4,-1,1,2,2021-08-07 13:03:38,430582
1,0,-4,-2,-3,-6,-3,0,2021-08-07 13:03:38,446583
-1,-1,4,2,4,5,2,1,2021-08-07 13:03:38,462582
-4,-4,-7,2,-10,-8,-5,-2,2021-08-07 13:03:38,462582
-2,-2,1,3,-2,1,-1,-2,2021-08-07 13:03:38,462582
0,-1,0,-15,11,4,0,0,2021-08-07 13:03:38,462582
1,0,-1,0,-4,-4,1,2,2021-08-07 13:03:38,462582
0,0,0,-1,-1,0,-1,0,2021-08-07 13:03:38,462582
0,0,2,0,2,1,1,0,2021-08-07 13:03:38,462582
-1,-1,-1,3,-11,-6,-4,-2,2021-08-07 13:03:38,478583
0,-3,-3,-7,-5,-2,-2,0,2021-08-07 13:03:38,478583
1,0,1,4,12,10,6,2,2021-08-07 13:03:38,478583
-3,1,4,9,4,0,-1,-2,2021-08-07 13:03:38,478583
0,4,6,7,0,0,1,1,2021-08-07 13:03:38,510583
0,-3,-3,-5,-7,-4,-3,-2,2021-08-07 13:03:38,510583
-10,-13,-12,-27,-35,-22,-12,-9,2021-08-07 13:03:38,510583
6,7,3,13,26,17,7,5,2021-08-07 13:03:38,510583
4,6,7,19,32,19,9,4,2021-08-07 13:03:38,510583
-1,1,3,8,-1,-3,-1,-1,2021-08-07 13:03:38,510583
1,-1,-3,0,-8,-2,0,0,2021-08-07 13:03:38,542582
-6,-10,-10,-24,-17,-12,-6,-6,2021-08-07 13:03:38,542582
-2,-1,-1,-1,-11,-7,-4,-4,2021-08-07 13:03:38,542582
0,1,1,-4,1,0,0,0,2021-08-07 13:03:38,542582
-1,-2,3,6,2,1,-3,-1,2021-08-07 13:03:38,542582
-1,-2,-2,8,4,3,2,0,2021-08-07 13:03:38,542582
3,0,-3,0,-1,-1,3,3,2021-08-07 13:03:38,558587
-7,-10,-10,-28,-19,-9,-6,-5,2021-08-07 13:03:38,558587
-3,-2,3,-4,-4,-2,-1,-3,2021-08-07 13:03:38,574583
-3,-3,-6,2,2,-1,-1,-1,2021-08-07 13:03:38,574583
-3,-3,0,10,10,5,1,-2,2021-08-07 13:03:38,580583
1,3,3,12,1,-1,-1,-2,2021-08-07 13:03:38,580583
1,4,1,-9,-9,-8,-3,1,2021-08-07 13:03:38,581583
2,0,6,5,17,13,4,2,2021-08-07 13:03:38,581583
0,1,-6,-8,-7,-1,0,-1,2021-08-07 13:03:38,606584
6,8,12,31,36,17,9,6,2021-08-07 13:03:38,622582
5,5,0,6,9,4,2,3,2021-08-07 13:03:38,622582
-7,-11,-10,-37,-37,-23,-13,-8,2021-08-07 13:03:38,622582
-3,-8,-6,-6,-6,-4,-3,-2,2021-08-07 13:03:38,622582
-1,-2,-2,-8,-10,-8,-5,-1,2021-08-07 13:03:38,622582
6,12,11,15,24,18,7,7,2021-08-07 13:03:38,622582
0,2,2,10,1,-2,2,0,2021-08-07 13:03:38,622582
-2,-3,0,-14,-5,-1,-2,-1,2021-08-07 13:03:38,654583
-6,-8,-10,-17,-23,-16,-9,-5,2021-08-07 13:03:38,670582
-4,-7,-7,-7,-12,-4,-4,-4,2021-08-07 13:03:38,686581
1,0,2,11,15,6,0,1,2021-08-07 13:03:38,686581
-1,0,0,6,5,1,0,-2,2021-08-07 13:03:38,686581
4,5,7,27,25,16,9,3,2021-08-07 13:03:38,686581
-2,-2,-5,-18,-24,-16,-6,-2,2021-08-07 13:03:38,686581
2,2,11,-2,-1,3,3,3,2021-08-07 13:03:38,686581
-3,-4,-16,4,15,7,1,-2,2021-08-07 13:03:38,686581
-3,-3,-4,-3,-5,-3,-2,-4,2021-08-07 13:03:38,687583
1,7,5,-2,4,1,2,2,2021-08-07 13:03:38,687583
-6,-7,-8,-15,-32,-19,-11,-6,2021-08-07 13:03:38,687583
-2,0,2,-10,4,5,0,-2,2021-08-07 13:03:38,702582
2,2,4,10,8,4,2,2,2021-08-07 13:03:38,718583
-3,-5,-3,14,14,6,-1,-4,2021-08-07 13:03:38,733583
2,6,-1,-1,-4,1,2,3,2021-08-07 13:03:38,733583
-6,-10,-9,-26,-33,-17,-9,-4,2021-08-07 13:03:38,733583
-2,3,0,3,8,4,1,0,2021-08-07 13:03:38,733583
-1,-4,-7,-4,-10,-7,-2,-2,2021-08-07 13:03:38,733583
3,5,8,20,28,15,5,3,2021-08-07 13:03:38,733583
-3,-2,-1,-6,-4,-3,-2,-3,2021-08-07 13:03:38,733583
0,-1,3,-3,-3,-1,-1,0,2021-08-07 13:03:38,734583
-1,-3,-4,-5,-4,1,0,0,2021-08-07 13:03:38,749581
1,1,-2,-8,0,-1,0,1,2021-08-07 13:03:38,765581
2,1,5,12,5,1,2,1,2021-08-07 13:03:38,780581
-2,-3,-2,-3,-1,-2,-1,-3,2021-08-07 13:03:38,795582
2,4,3,14,17,7,4,4,2021-08-07 13:03:38,826582
-6,-5,-7,-13,-17,-8,-4,-6,2021-08-07 13:03:38,826582
3,7,7,1,4,1,2,3,2021-08-07 13:03:38,826582
0,2,1,-1,-3,1,1,1,2021-08-07 13:03:38,826582
0,-2,-1,5,5,2,-1,1,2021-08-07 13:03:38,826582
-4,-5,-5,2,-7,-7,-2,-3,2021-08-07 13:03:38,826582
-1,-2,-2,-14,-12,-3,-1,-1,2021-08-07 13:03:38,826582
-2,-4,-5,-9,-6,-3,-2,-3,2021-08-07 13:03:38,827584
-2,0,-2,-2,3,1,-1,-2,2021-08-07 13:03:38,827584
1,2,4,17,16,6,2,0,2021-08-07 13:03:38,827584
0,2,2,15,-1,-6,-1,2,2021-08-07 13:03:38,827584
3,1,-2,-5,-4,1,1,3,2021-08-07 13:03:38,827584
-3,-3,5,-13,-8,-4,-4,-2,2021-08-07 13:03:38,827584
-6,-9,-22,-28,-27,-17,-11,-6,2021-08-07 13:03:38,827584
0,-2,0,23,25,12,6,2,2021-08-07 13:03:38,842583
5,9,9,10,22,17,10,5,2021-08-07 13:03:38,857581
-3,-5,-2,-2,2,0,-2,-3,2021-08-07 13:03:38,872583
3,6,11,20,19,11,5,3,2021-08-07 13:03:38,872583
0,3,6,3,-8,-8,-5,-1,2021-08-07 13:03:38,872583
-4,-4,-5,-3,-15,-9,-5,-3,2021-08-07 13:03:38,873045
-1,-3,-7,-3,-5,-2,1,-2,2021-08-07 13:03:38,873045
-5,-8,-9,-28,-20,-9,-7,-4,2021-08-07 13:03:38,873045
-2,-2,-2,-3,0,0,-2,-2,2021-08-07 13:03:38,888605
3,4,5,12,3,1,0,3,2021-08-07 13:03:38,904604
6,9,10,24,18,8,5,7,2021-08-07 13:03:38,920604
-2,-3,-7,-1,-12,-5,0,-1,2021-08-07 13:03:38,935604
-7,-12,-11,-44,-18,-8,-6,-4,2021-08-07 13:03:38,935604
-3,-6,-12,-17,-19,-12,-7,-4,2021-08-07 13:03:38,935604
-3,-4,-4,-1,2,1,-3,-4,2021-08-07 13:03:38,935604
0,3,6,12,-1,-2,-1,0,2021-08-07 13:03:38,935604
8,11,11,31,28,17,9,8,2021-08-07 13:03:38,935604
-5,-9,-15,-25,-16,-11,-6,-5,2021-08-07 13:03:38,936606
3,4,9,14,25,14,7,2,2021-08-07 13:03:38,936606
-3,-2,-3,-14,-24,-17,-7,-4,2021-08-07 13:03:38,936606
-1,0,-7,5,7,4,1,-1,2021-08-07 13:03:38,936606
-1,3,6,8,7,0,0,-1,2021-08-07 13:03:38,936606
-1,1,-3,-7,-18,-12,-4,-2,2021-08-07 13:03:38,951604
-2,-2,1,0,12,9,1,-1,2021-08-07 13:03:38,967603
1,-1,1,-10,-16,-8,-3,-1,2021-08-07 13:03:38,967603
1,1,1,13,8,4,2,3,2021-08-07 13:03:38,967603
-2,-2,-1,5,5,0,-2,0,2021-08-07 13:03:38,967603
0,3,2,-5,12,7,5,2,2021-08-07 13:03:38,982603
-4,-5,-10,-27,-30,-17,-9,-5,2021-08-07 13:03:38,987605
-3,-2,3,-7,-7,-2,-2,-2,2021-08-07 13:03:38,987605
-5,-1,-4,-9,-17,-11,-6,-4,2021-08-07 13:03:38,987605
6,11,16,44,43,24,11,6,2021-08-07 13:03:38,987605
