EMG 1,EMG 2,EMG 3,EMG 4,EMG 5,EMG 6,EMG 7,EMG 8,Timestamp,Milliseconds
0,0,2,0,2,2,2,1,2021-08-07 13:02:51,990546
-3,0,-1,-3,-5,-5,-3,-3,2021-08-07 13:02:51,990546
3,2,3,6,6,3,2,0,2021-08-07 13:02:51,990546
0,1,1,1,2,1,2,0,2021-08-07 13:02:51,990546
-3,-5,-6,-8,-10,-6,-3,-4,2021-08-07 13:02:51,990546
-6,-9,-10,-12,-17,-12,-8,-8,2021-08-07 13:02:51,990546
4,11,10,16,20,10,6,4,2021-08-07 13:02:52,006545
2,2,1,1,3,3,1,0,2021-08-07 13:02:52,006545
-1,0,0,1,0,-2,-1,0,2021-08-07 13:02:52,006545
-3,-4,-4,-2,-1,-3,-3,-2,2021-08-07 13:02:52,006545
-4,-7,-9,-16,-15,-7,-7,-4,2021-08-07 13:02:52,006545
5,6,7,12,11,7,3,5,2021-08-07 13:02:52,006545
-1,-1,-3,1,-3,-3,-1,-1,2021-08-07 13:02:52,022549
-3,-5,-3,-5,-3,-3,-2,-2,2021-08-07 13:02:52,037549
2,5,3,6,9,6,5,3,2021-08-07 13:02:52,037549
-1,0,0,0,0,0,1,1,2021-08-07 13:02:52,037549
0,0,0,0,-1,0,-2,0,2021-08-07 13:02:52,037549
-1,-2,-3,-3,-4,-2,-1,-2,2021-08-07 13:02:52,037549
-7,-11,-10,-10,-10,-7,-5,-5,2021-08-07 13:02:52,053546
4,7,8,6,2,2,1,3,2021-08-07 13:02:52,053546
-2,1,1,0,1,1,0,-1,2021-08-07 13:02:52,084593
0,0,-2,-6,-5,-3,-2,-1,2021-08-07 13:02:52,100573
-2,-2,-3,5,2,-2,-1,-1,2021-08-07 13:02:52,116573
-3,-4,-4,-7,-4,-1,-2,-2,2021-08-07 13:02:52,116573
-2,-3,-4,-6,-8,-5,-3,-2,2021-08-07 13:02:52,116573
1,-1,0,0,2,1,-1,1,2021-08-07 13:02:52,116573
3,1,2,1,-2,0,-2,0,2021-08-07 13:02:52,116573
-3,-3,-5,-2,-1,-2,-4,-3,2021-08-07 13:02:52,116573
-5,-3,-1,-1,1,-2,-3,-3,2021-08-07 13:02:52,116573
0,1,0,-2,-7,-4,0,-1,2021-08-07 13:02:52,116573
2,3,3,3,6,4,4,3,2021-08-07 13:02:52,116573
0,-3,-5,-3,-3,-3,-2,-2,2021-08-07 13:02:52,117548
2,3,1,1,0,0,0,0,2021-08-07 13:02:52,141573
1,1,1,1,1,0,0,0,2021-08-07 13:02:52,141573
-3,-1,-4,-4,-5,0,0,-2,2021-08-07 13:02:52,141573
-4,-6,-7,-9,-14,-6,-5,-3,2021-08-07 13:02:52,141573
-1,1,0,2,-3,-2,-1,0,2021-08-07 13:02:52,141573
4,5,5,4,14,12,7,5,2021-08-07 13:02:52,142548
1,0,1,8,10,4,2,0,2021-08-07 13:02:52,178549
-5,-5,-4,-3,-3,-1,-5,-4,2021-08-07 13:02:52,178549
-1,-1,-3,-4,-7,-4,-3,0,2021-08-07 13:02:52,178549
-3,-4,-5,-12,-13,-7,-3,-4,2021-08-07 13:02:52,178549
1,2,4,8,4,0,0,1,2021-08-07 13:02:52,194585
0,1,1,0,3,0,1,0,2021-08-07 13:02:52,194585
1,-2,-2,0,2,1,0,0,2021-08-07 13:02:52,194585
-2,1,-1,-1,-3,-3,-1,-2,2021-08-07 13:02:52,194585
-3,-6,-6,-8,-8,-5,-2,-3,2021-08-07 13:02:52,210585
0,1,0,0,-1,0,-1,-1,2021-08-07 13:02:52,226573
0,2,2,0,0,1,1,0,2021-08-07 13:02:52,242550
0,-2,-2,0,3,1,0,1,2021-08-07 13:02:52,242550
-1,1,0,-2,-2,-1,-1,0,2021-08-07 13:02:52,242550
-2,-3,-2,-2,-1,-1,-2,-2,2021-08-07 13:02:52,242550
0,0,0,1,4,3,1,0,2021-08-07 13:02:52,242550
0,0,2,2,3,2,0,1,2021-08-07 13:02:52,242550
1,0,0,-2,-3,-2,-1,-1,2021-08-07 13:02:52,242550
0,0,2,0,-1,-1,-1,-1,2021-08-07 13:02:52,242550
-2,-2,-2,-3,-3,-2,-2,-2,2021-08-07 13:02:52,243551
-1,-1,0,2,0,0,-1,-2,2021-08-07 13:02:52,243551
-1,-2,-3,-2,-1,1,-1,1,2021-08-07 13:02:52,273547
-1,0,0,0,0,0,0,-1,2021-08-07 13:02:52,289549
-1,0,-1,0,-2,0,2,0,2021-08-07 13:02:52,289549
2,0,-1,2,-3,-1,-1,-1,2021-08-07 13:02:52,289549
-1,-1,-2,-2,-2,-2,-1,-1,2021-08-07 13:02:52,289549
-1,1,-1,1,0,0,-1,0,2021-08-07 13:02:52,289549
1,0,1,-2,0,-1,-1,0,2021-08-07 13:02:52,289549
-1,0,-2,-2,-1,-2,2,0,2021-08-07 13:02:52,289549
-1,-2,1,-2,-3,0,-1,0,2021-08-07 13:02:52,305586
-4,-7,-5,-5,-7,-5,-4,-5,2021-08-07 13:02:52,305586
5,5,4,8,11,7,3,1,2021-08-07 13:02:52,305586
-1,-1,-1,-1,-1,-2,-2,0,2021-08-07 13:02:52,305586
-1,3,2,2,5,2,2,0,2021-08-07 13:02:52,321547
-1,1,-2,-4,-5,-3,-2,-1,2021-08-07 13:02:52,321547
-5,-6,-5,-7,-7,-7,-5,-2,2021-08-07 13:02:52,337586
3,1,1,5,3,4,2,2,2021-08-07 13:02:52,337586
1,1,2,0,-2,-1,-1,2,2021-08-07 13:02:52,353586
-2,-3,-3,-8,-9,-3,-1,0,2021-08-07 13:02:52,369585
-2,-2,-2,2,3,4,1,-2,2021-08-07 13:02:52,385586
-1,-1,0,2,2,0,0,0,2021-08-07 13:02:52,385586
-5,-4,-5,-8,-10,-7,-6,-6,2021-08-07 13:02:52,385586
4,7,8,7,7,4,3,2,2021-08-07 13:02:52,385586
-1,-2,-3,-2,0,-3,-2,-1,2021-08-07 13:02:52,385586
0,3,2,4,5,2,1,-1,2021-08-07 13:02:52,385586
-3,-3,-4,-1,3,1,1,-2,2021-08-07 13:02:52,385586
-2,-5,-6,-3,-1,0,-1,-3,2021-08-07 13:02:52,385586
-2,-1,-2,-6,-6,-4,-2,-1,2021-08-07 13:02:52,386549
0,1,0,2,1,1,-1,1,2021-08-07 13:02:52,386549
-2,-3,-4,-8,-14,-9,-5,-3,2021-08-07 13:02:52,417576
2,3,4,6,16,11,5,3,2021-08-07 13:02:52,433577
1,2,3,7,9,5,3,1,2021-08-07 13:02:52,465574
-2,-4,-5,-6,-7,-5,-2,-2,2021-08-07 13:02:52,465574
1,0,1,-5,-8,-3,0,0,2021-08-07 13:02:52,465574
0,-2,-1,6,7,2,-1,1,2021-08-07 13:02:52,465574
-2,-5,-5,-4,-7,-5,-3,-3,2021-08-07 13:02:52,465574
2,3,5,3,7,5,2,-1,2021-08-07 13:02:52,465574
-2,-7,-8,-7,-7,-6,-3,-3,2021-08-07 13:02:52,466548
3,6,8,0,-3,-4,1,2,2021-08-07 13:02:52,466548
2,5,4,4,5,4,2,1,2021-08-07 13:02:52,466548
-2,-4,-4,-1,-3,-2,-3,-2,2021-08-07 13:02:52,466548
2,5,4,11,14,8,2,1,2021-08-07 13:02:52,466548
-2,-5,-3,-6,-12,-8,-3,-4,2021-08-07 13:02:52,481550
-1,1,1,-3,-8,-6,-3,-1,2021-08-07 13:02:52,497549
0,0,0,1,6,3,2,0,2021-08-07 13:02:52,497549
-1,-2,-1,-1,3,1,-2,-2,2021-08-07 13:02:52,497549
-2,-4,-3,-3,-6,-3,-2,-2,2021-08-07 13:02:52,497549
1,3,0,-5,-8,-5,-3,0,2021-08-07 13:02:52,497549
1,3,5,9,9,6,2,1,2021-08-07 13:02:52,497549
3,3,1,6,9,5,4,2,2021-08-07 13:02:52,497549
-1,0,-2,-5,-6,-4,-2,-2,2021-08-07 13:02:52,513549
-2,-6,-6,-5,-9,-7,-5,-3,2021-08-07 13:02:52,529575
-3,-6,-6,-3,2,0,-1,-1,2021-08-07 13:02:52,529575
2,4,4,2,2,2,0,1,2021-08-07 13:02:52,529575
-1,0,-1,-1,-5,-3,0,-1,2021-08-07 13:02:52,529575
-1,-3,-1,0,3,3,1,-2,2021-08-07 13:02:52,529575
2,2,1,-7,-4,-1,0,4,2021-08-07 13:02:52,529575
-1,-3,-5,-3,-4,-4,-4,-2,2021-08-07 13:02:52,545550
1,0,-2,3,5,3,1,1,2021-08-07 13:02:52,545550
-2,0,0,2,0,2,0,0,2021-08-07 13:02:52,545550
-2,-2,-2,-6,-9,-6,-3,-2,2021-08-07 13:02:52,551549
-6,-7,-8,-8,-11,-6,-4,-6,2021-08-07 13:02:52,561547
0,1,0,-2,-1,1,-1,0,2021-08-07 13:02:52,561547
1,2,4,11,18,11,5,2,2021-08-07 13:02:52,561547
-2,-2,-3,-5,-9,-5,-3,-2,2021-08-07 13:02:52,561547
-2,-2,-2,1,3,2,-1,-2,2021-08-07 13:02:52,592550
-1,-2,-3,-3,-4,-3,-1,-2,2021-08-07 13:02:52,592550
1,3,2,5,12,8,4,2,2021-08-07 13:02:52,608579
0,-1,2,1,-2,-4,-1,0,2021-08-07 13:02:52,608579
-1,-1,-3,-5,-9,-5,0,0,2021-08-07 13:02:52,608579
-2,-3,-4,-9,-10,-7,-5,-3,2021-08-07 13:02:52,608579
0,-1,2,4,5,3,3,-1,2021-08-07 13:02:52,608579
1,2,2,5,7,3,1,0,2021-08-07 13:02:52,608579
-1,0,-1,0,2,2,-1,0,2021-08-07 13:02:52,624588
-1,-3,-3,-3,-1,-1,-1,-1,2021-08-07 13:02:52,640586
-2,-4,-6,-11,-13,-9,-3,-3,2021-08-07 13:02:52,640586
-3,0,-2,-4,-10,-7,-4,-3,2021-08-07 13:02:52,640586
-1,0,1,3,5,1,0,-2,2021-08-07 13:02:52,656572
3,0,1,2,8,7,3,2,2021-08-07 13:02:52,672573
-1,-2,-2,3,-2,-3,-2,-1,2021-08-07 13:02:52,688549
-4,-6,-5,-5,-7,-6,-2,-5,2021-08-07 13:02:52,688549
0,1,0,-2,-1,0,0,1,2021-08-07 13:02:52,688549
-1,1,-2,-5,-9,-3,-3,-1,2021-08-07 13:02:52,688549
2,3,2,8,10,2,3,3,2021-08-07 13:02:52,688549
-1,1,0,-1,-4,-2,-2,-1,2021-08-07 13:02:52,688549
-1,-4,-4,-1,2,2,2,-2,2021-08-07 13:02:52,688549
3,5,8,9,5,0,2,2,2021-08-07 13:02:52,689549
0,-1,-3,-4,-6,-2,-2,-1,2021-08-07 13:02:52,689549
-3,-4,-6,-8,-9,-6,-6,-2,2021-08-07 13:02:52,689549
0,-1,0,1,3,2,2,1,2021-08-07 13:02:52,704586
2,3,3,7,11,8,4,2,2021-08-07 13:02:52,704586
-1,-2,-2,-1,-3,-3,-3,0,2021-08-07 13:02:52,735586
-1,-2,-2,-7,-9,-3,-1,-1,2021-08-07 13:02:52,735586
-2,-1,0,1,3,1,0,-1,2021-08-07 13:02:52,735586
-3,-2,-3,-3,-3,-4,-2,-3,2021-08-07 13:02:52,735586
-1,-2,-1,-4,-4,-1,-1,-1,2021-08-07 13:02:52,735586
-2,-4,-4,-9,-15,-8,-4,-2,2021-08-07 13:02:52,751547
0,-1,2,7,12,5,1,0,2021-08-07 13:02:52,751547
-2,-3,-2,7,8,2,1,-1,2021-08-07 13:02:52,751547
2,4,5,2,4,2,2,2,2021-08-07 13:02:52,751547
-2,-3,-3,0,0,0,0,0,2021-08-07 13:02:52,751547
-1,2,-1,-9,-13,-7,-3,-1,2021-08-07 13:02:52,767548
0,0,1,3,2,0,0,-1,2021-08-07 13:02:52,783584
-1,-3,-3,-7,-5,-2,-2,-1,2021-08-07 13:02:52,783584
1,0,1,2,4,4,1,0,2021-08-07 13:02:52,783584
-2,-4,-4,-3,-5,-3,-1,-2,2021-08-07 13:02:52,783584
-5,-8,-6,-5,-3,-4,-4,-3,2021-08-07 13:02:52,783584
2,5,3,-2,-4,-1,-2,1,2021-08-07 13:02:52,799584
2,4,4,6,8,5,4,1,2021-08-07 13:02:52,815585
-1,-2,-3,-3,-5,-3,-2,-1,2021-08-07 13:02:52,831586
-1,1,-2,-4,-7,-5,-1,-2,2021-08-07 13:02:52,831586
-3,-3,-3,-1,-1,-1,0,-1,2021-08-07 13:02:52,831586
0,0,2,3,9,6,2,0,2021-08-07 13:02:52,831586
-1,0,0,0,0,-2,-2,1,2021-08-07 13:02:52,831586
-3,-5,-5,-5,-8,-6,-3,-2,2021-08-07 13:02:52,831586
0,-1,4,2,2,-1,-2,-1,2021-08-07 13:02:52,831586
5,6,3,8,6,2,2,2,2021-08-07 13:02:52,831586
-2,-4,-7,-4,-4,-3,0,-2,2021-08-07 13:02:52,847549
-4,-5,-2,-4,-2,-1,-1,-1,2021-08-07 13:02:52,863548
1,5,3,1,-1,1,1,2,2021-08-07 13:02:52,863548
-1,-3,0,-2,-2,-4,-1,-1,2021-08-07 13:02:52,863548
-1,3,3,0,-1,-2,-1,-3,2021-08-07 13:02:52,863548
4,4,4,5,5,3,2,4,2021-08-07 13:02:52,863548
-5,-7,-6,-7,-5,-3,-2,-4,2021-08-07 13:02:52,863548
0,-3,-2,-2,-1,1,-1,0,2021-08-07 13:02:52,864549
0,1,0,2,0,0,-1,1,2021-08-07 13:02:52,894573
1,2,2,-1,2,2,2,1,2021-08-07 13:02:52,910575
-1,0,1,-3,-4,-2,-1,-1,2021-08-07 13:02:52,910575
-2,-3,-5,-8,-9,-6,-4,-2,2021-08-07 13:02:52,910575
1,-1,1,0,3,4,0,0,2021-08-07 13:02:52,910575
0,0,-1,5,14,9,1,0,2021-08-07 13:02:52,910575
-4,-4,-6,1,1,-1,0,-2,2021-08-07 13:02:52,910575
2,8,7,4,-1,0,1,3,2021-08-07 13:02:52,910575
-3,-5,-4,-7,-12,-9,-5,-1,2021-08-07 13:02:52,926549
2,4,3,0,5,5,2,2,2021-08-07 13:02:52,942590
-3,-5,-9,-9,-7,-6,-4,-4,2021-08-07 13:02:52,958574
-5,-5,-3,-2,-1,-2,-4,-4,2021-08-07 13:02:52,958574
2,4,2,1,1,1,1,1,2021-08-07 13:02:52,958574
1,1,1,1,-2,-2,-2,1,2021-08-07 13:02:52,973586
0,3,1,3,0,2,1,1,2021-08-07 13:02:52,973586
-3,-6,-3,-5,-5,-4,-4,-3,2021-08-07 13:02:52,973586
0,-3,-3,1,5,3,2,0,2021-08-07 13:02:52,973586
-1,1,1,-3,-6,-4,0,-1,2021-08-07 13:02:52,973586
1,-2,-2,-1,2,2,1,1,2021-08-07 13:02:52,974585
-2,-3,-4,-3,-5,-5,-4,-2,2021-08-07 13:02:52,974585
0,-1,1,-4,-6,-2,-3,-1,2021-08-07 13:02:52,990578
0,1,1,6,10,7,3,0,2021-08-07 13:02:53,006574
1,2,2,-3,-7,-4,-1,0,2021-08-07 13:02:53,006574
-1,-3,-2,4,8,5,3,0,2021-08-07 13:02:53,006574
-3,-4,-4,-1,0,-2,-2,-1,2021-08-07 13:02:53,006574
3,4,3,-1,-6,-4,1,1,2021-08-07 13:02:53,006574
1,2,2,1,0,1,2,2,2021-08-07 13:02:53,006574
-1,-2,-4,-1,5,1,-1,-2,2021-08-07 13:02:53,007575
-7,-5,-7,-8,-11,-10,-6,-6,2021-08-07 13:02:53,038571
1,3,3,2,2,4,2,4,2021-08-07 13:02:53,038571
0,-2,-2,0,-1,-2,-1,0,2021-08-07 13:02:53,038571
0,-1,-1,-2,-8,-4,-3,-2,2021-08-07 13:02:53,038571
-2,-3,-2,-4,-1,2,-1,-2,2021-08-07 13:02:53,038571
-4,-5,-4,1,0,-3,-3,-5,2021-08-07 13:02:53,038571
3,3,3,6,9,3,1,0,2021-08-07 13:02:53,053575
-1,-2,-3,-7,-5,-3,-2,-1,2021-08-07 13:02:53,053575
0,0,-1,-3,-5,-4,-2,0,2021-08-07 13:02:53,069575
0,-2,-1,-1,-1,-2,-3,-1,2021-08-07 13:02:53,069575
1,1,2,0,-2,2,0,0,2021-08-07 13:02:53,069575
-1,-3,-2,-5,-1,0,0,-1,2021-08-07 13:02:53,069575
-2,0,-1,-1,-2,-2,-2,-1,2021-08-07 13:02:53,085546
5,9,9,16,13,4,4,5,2021-08-07 13:02:53,101587
-2,-4,-3,1,5,2,0,-1,2021-08-07 13:02:53,117577
1,3,1,2,0,2,1,1,2021-08-07 13:02:53,117577
2,0,-1,-2,-1,-1,0,-1,2021-08-07 13:02:53,117577
-3,-5,-4,-6,-8,-4,-3,-3,2021-08-07 13:02:53,117577
-4,0,-3,-8,-11,-6,-5,-4,2021-08-07 13:02:53,117577
3,4,5,8,14,8,6,4,2021-08-07 13:02:53,117577
-1,0,-1,-1,-3,-2,-2,-2,2021-08-07 13:02:53,133547
-5,-9,-9,-10,-12,-8,-5,-4,2021-08-07 13:02:53,133547
0,-1,0,-1,0,1,-2,2,2021-08-07 13:02:53,133547
2,3,1,-1,-5,-4,-1,0,2021-08-07 13:02:53,133547
2,3,1,-2,-4,4,2,2,2021-08-07 13:02:53,149550
-2,-4,-4,3,14,6,4,-1,2021-08-07 13:02:53,165586
-2,-3,-2,2,6,4,2,-1,2021-08-07 13:02:53,181546
0,4,6,9,14,9,3,2,2021-08-07 13:02:53,181546
-3,-3,-1,-1,-6,-8,-5,-4,2021-08-07 13:02:53,181546
-2,-1,-2,-6,-11,-7,-4,-1,2021-08-07 13:02:53,181546
1,1,1,-1,-3,-2,-2,0,2021-08-07 13:02:53,197546
2,3,4,7,5,2,1,2,2021-08-07 13:02:53,197546
4,1,1,6,15,9,3,0,2021-08-07 13:02:53,197546
-3,-4,-5,-8,-7,-4,-4,-3,2021-08-07 13:02:53,197546
1,1,1,-1,-3,-2,0,0,2021-08-07 13:02:53,197546
-5,-5,-8,-8,-11,-7,-4,-2,2021-08-07 13:02:53,197546
-4,-2,-2,-7,-10,-7,-2,-3,2021-08-07 13:02:53,229549
3,5,4,11,19,10,3,2,2021-08-07 13:02:53,229549
0,0,-2,-1,-3,-3,-1,-1,2021-08-07 13:02:53,229549
-3,-6,-6,-4,-5,-3,-2,-3,2021-08-07 13:02:53,229549
3,6,6,5,2,0,1,3,2021-08-07 13:02:53,229549
-3,-1,0,-5,-9,-3,-2,-3,2021-08-07 13:02:53,229549
0,1,2,-1,4,3,1,-1,2021-08-07 13:02:53,229549
-1,-1,-1,-3,0,-2,-1,-2,2021-08-07 13:02:53,229549
-6,-8,-11,-10,-12,-9,-6,-4,2021-08-07 13:02:53,261585
5,7,8,11,15,13,5,5,2021-08-07 13:02:53,261585
-1,-5,-4,-1,1,-1,-2,-2,2021-08-07 13:02:53,261585
-4,-7,-6,-3,-4,-5,-3,-5,2021-08-07 13:02:53,261585
0,-1,1,-2,-3,-3,-3,-1,2021-08-07 13:02:53,293575
0,1,0,-3,-8,-4,-2,0,2021-08-07 13:02:53,309575
0,-3,-2,-2,-3,-1,-2,-3,2021-08-07 13:02:53,309575
-2,-5,-5,-8,-4,-2,-3,-2,2021-08-07 13:02:53,309575
1,1,4,6,5,3,3,1,2021-08-07 13:02:53,309575
-1,0,-1,-6,-9,-6,-2,-1,2021-08-07 13:02:53,309575
2,4,5,4,7,3,2,3,2021-08-07 13:02:53,309575
-4,-5,-6,-10,-12,-7,-6,-5,2021-08-07 13:02:53,309575
2,3,9,14,19,12,4,1,2021-08-07 13:02:53,310549
0,-3,-11,-7,-7,-5,-1,-2,2021-08-07 13:02:53,310549
1,3,2,5,2,1,0,0,2021-08-07 13:02:53,310549
0,0,0,-7,-11,-6,-2,-2,2021-08-07 13:02:53,310549
-3,0,-1,4,7,3,-1,-1,2021-08-07 13:02:53,325546
-4,-4,6,-7,-8,-5,-4,-3,2021-08-07 13:02:53,325546
-4,-4,-11,-7,-9,-4,-5,-3,2021-08-07 13:02:53,341573
2,2,-1,3,2,0,2,0,2021-08-07 13:02:53,341573
0,1,4,6,9,5,4,1,2021-08-07 13:02:53,357589
-3,-3,-5,-4,-9,-8,-5,-2,2021-08-07 13:02:53,373550
-4,-6,-5,-5,-4,-3,-2,-2,2021-08-07 13:02:53,389547
1,1,6,7,7,5,4,2,2021-08-07 13:02:53,401574
-1,0,-1,-6,-8,-5,-2,-1,2021-08-07 13:02:53,401574
1,2,1,4,4,-1,0,-1,2021-08-07 13:02:53,401574
-3,-1,0,-6,-9,-6,-1,-3,2021-08-07 13:02:53,401574
1,2,0,-2,-2,-3,-1,1,2021-08-07 13:02:53,401574
-1,-2,-4,0,-5,-4,-2,0,2021-08-07 13:02:53,402576
1,0,1,0,9,9,4,1,2021-08-07 13:02:53,402576
1,0,1,4,5,2,1,-1,2021-08-07 13:02:53,421575
-5,-7,-7,-5,-4,-5,-5,-4,2021-08-07 13:02:53,421575
-1,0,-2,-9,-15,-7,-3,-3,2021-08-07 13:02:53,421575
-2,-2,-2,9,11,5,1,0,2021-08-07 13:02:53,421575
1,1,1,3,6,7,5,2,2021-08-07 13:02:53,421575
1,3,2,6,7,4,2,-1,2021-08-07 13:02:53,421575
-1,0,-2,-6,-7,-5,-1,-1,2021-08-07 13:02:53,437597
-4,-7,-9,-13,-15,-10,-3,-3,2021-08-07 13:02:53,437597
4,9,11,8,9,7,5,4,2021-08-07 13:02:53,469549
0,3,3,5,4,1,0,2,2021-08-07 13:02:53,484546
-2,-3,-5,-2,-1,-1,-2,-1,2021-08-07 13:02:53,500574
-4,-8,-6,-6,-6,-3,-1,-4,2021-08-07 13:02:53,500574
1,0,0,-5,-4,-2,0,-1,2021-08-07 13:02:53,500574
1,3,3,3,6,3,0,1,2021-08-07 13:02:53,500574
4,4,7,5,6,3,2,2,2021-08-07 13:02:53,500574
-1,-1,-2,0,1,0,-2,-1,2021-08-07 13:02:53,500574
-6,-7,-9,-14,-18,-11,-7,-5,2021-08-07 13:02:53,501551
-2,-2,-2,2,1,-1,0,-2,2021-08-07 13:02:53,501551
1,2,3,9,14,8,4,3,2021-08-07 13:02:53,501551
-1,2,-1,-3,-3,-2,-3,-1,2021-08-07 13:02:53,501551
-5,-5,-6,-4,-4,-3,-3,-2,2021-08-07 13:02:53,501551
2,4,3,-2,0,-1,-2,2,2021-08-07 13:02:53,501551
-2,-4,-4,-2,-1,-1,-2,-2,2021-08-07 13:02:53,501551
1,3,4,4,1,0,2,-2,2021-08-07 13:02:53,502549
-1,-3,-1,3,1,0,-2,-1,2021-08-07 13:02:53,532565
-3,-4,-6,-5,-3,-1,-1,-2,2021-08-07 13:02:53,532565
1,1,-2,-4,-4,-2,-1,1,2021-08-07 13:02:53,532565
0,4,4,3,3,2,2,3,2021-08-07 13:02:53,532565
-4,-6,-5,0,2,-1,-1,-4,2021-08-07 13:02:53,532565
-2,-3,-2,0,-1,0,1,0,2021-08-07 13:02:53,532565
1,3,1,-2,-3,-1,1,2,2021-08-07 13:02:53,563593
0,1,0,-1,-4,-2,-1,0,2021-08-07 13:02:53,579581
0,1,-1,-2,0,-2,-3,0,2021-08-07 13:02:53,595574
-3,-2,-2,2,-1,1,-1,-1,2021-08-07 13:02:53,595574
-5,-4,-6,-6,-8,-8,-6,-4,2021-08-07 13:02:53,595574
0,-1,-3,-2,0,0,1,-1,2021-08-07 13:02:53,611575
1,0,1,0,3,0,-1,1,2021-08-07 13:02:53,626575
-3,-5,-3,-7,-5,-1,-3,-3,2021-08-07 13:02:53,626575
0,2,3,1,3,1,-1,0,2021-08-07 13:02:53,626575
-2,-3,-1,-3,-10,-7,-4,-3,2021-08-07 13:02:53,626575
0,2,2,3,1,-1,0,1,2021-08-07 13:02:53,626575
4,5,3,8,10,8,4,1,2021-08-07 13:02:53,626575
-2,-3,-2,-2,-2,0,-1,-4,2021-08-07 13:02:53,626575
0,-2,-3,-5,-5,-3,-3,-1,2021-08-07 13:02:53,626575
-2,-3,-3,-3,-6,-4,-2,-2,2021-08-07 13:02:53,627548
-4,-6,-7,-6,-4,-4,-3,-1,2021-08-07 13:02:53,627548
6,9,13,15,16,10,7,5,2021-08-07 13:02:53,642575
-3,-4,-4,0,4,2,-2,-1,2021-08-07 13:02:53,658573
1,0,0,-4,-5,-3,0,-1,2021-08-07 13:02:53,658573
-2,-1,-1,-5,-7,-5,-4,-2,2021-08-07 13:02:53,658573
-3,-5,-9,-5,-3,-2,-1,-2,2021-08-07 13:02:53,658573
-1,-3,-2,-5,-11,-7,-4,-2,2021-08-07 13:02:53,658573
4,8,12,17,21,15,7,5,2021-08-07 13:02:53,658573
0,-1,0,0,-2,-3,-1,-1,2021-08-07 13:02:53,658573
-1,-4,-6,-8,-16,-9,-6,-2,2021-08-07 13:02:53,674546
1,1,1,6,13,11,5,2,2021-08-07 13:02:53,689547
-4,-6,-6,-10,-14,-9,-6,-4,2021-08-07 13:02:53,689547
2,3,2,1,0,3,2,0,2021-08-07 13:02:53,689547
-1,0,-1,1,0,-2,-2,-1,2021-08-07 13:02:53,689547
-3,-3,-5,-10,-13,-7,-5,-3,2021-08-07 13:02:53,689547
0,2,3,10,15,7,3,-1,2021-08-07 13:02:53,689547
-2,2,2,-3,-4,-2,-1,-1,2021-08-07 13:02:53,690549
-1,-4,-3,-5,-5,-4,-1,-1,2021-08-07 13:02:53,720550
0,2,2,0,-3,-3,-1,2,2021-08-07 13:02:53,736575
1,3,3,1,3,2,2,2,2021-08-07 13:02:53,736575
-1,-1,0,-1,-3,-3,-2,-2,2021-08-07 13:02:53,736575
-3,-5,-6,-1,4,1,-1,-2,2021-08-07 13:02:53,736575
-3,-3,-2,-3,-1,-1,-1,-3,2021-08-07 13:02:53,736575
3,3,2,1,-3,0,0,1,2021-08-07 13:02:53,736575
3,2,2,2,2,-1,1,2,2021-08-07 13:02:53,737573
-1,1,0,-7,-6,-4,-2,0,2021-08-07 13:02:53,752550
0,0,0,4,4,2,2,1,2021-08-07 13:02:53,768575
-4,-4,-4,-3,-4,-3,-3,-3,2021-08-07 13:02:53,768575
0,0,1,3,3,2,1,0,2021-08-07 13:02:53,768575
-2,-3,-4,-7,-9,-6,-3,-3,2021-08-07 13:02:53,768575
0,0,4,1,2,1,0,0,2021-08-07 13:02:53,768575
-2,-1,-2,0,4,0,0,0,2021-08-07 13:02:53,799587
1,2,1,5,4,1,2,1,2021-08-07 13:02:53,815549
-4,-4,-5,-7,-10,-9,-5,-4,2021-08-07 13:02:53,822551
-1,1,1,1,-3,-4,-1,0,2021-08-07 13:02:53,822551
4,3,3,4,11,8,4,3,2021-08-07 13:02:53,822551
-4,-7,-6,-6,-1,-1,-3,-4,2021-08-07 13:02:53,822551
-2,-2,-1,-2,-4,-2,-1,-1,2021-08-07 13:02:53,822551
6,10,9,8,5,4,4,3,2021-08-07 13:02:53,822551
1,-1,-2,-5,-8,-3,-1,0,2021-08-07 13:02:53,823587
-3,-4,-4,-2,-4,-3,-2,-3,2021-08-07 13:02:53,823587
-4,-7,-5,-4,-3,-1,-2,-3,2021-08-07 13:02:53,823587
-1,-1,-1,-2,-1,-2,-4,-1,2021-08-07 13:02:53,823587
-1,-1,-1,1,2,0,0,-2,2021-08-07 13:02:53,847548
-1,-3,-5,-3,3,3,0,-1,2021-08-07 13:02:53,847548
1,2,2,4,3,0,-2,-1,2021-08-07 13:02:53,847548
-1,-1,-2,-4,2,2,-1,-1,2021-08-07 13:02:53,847548
1,3,5,3,-2,0,2,3,2021-08-07 13:02:53,847548
-3,-4,-4,-4,-3,-4,-3,-3,2021-08-07 13:02:53,847548
-2,0,1,4,5,4,0,0,2021-08-07 13:02:53,878575
-2,-6,-5,-5,-5,-3,-1,-2,2021-08-07 13:02:53,878575
2,5,5,0,-4,-3,0,2,2021-08-07 13:02:53,878575
2,6,4,1,4,2,1,1,2021-08-07 13:02:53,878575
2,1,2,2,2,2,2,1,2021-08-07 13:02:53,893550
-3,-1,-4,0,2,1,-2,-1,2021-08-07 13:02:53,909550
-5,-10,-9,-6,-8,-6,-5,-5,2021-08-07 13:02:53,909550
-1,0,0,-2,-3,-1,1,1,2021-08-07 13:02:53,909550
0,4,2,2,1,-1,-2,-1,2021-08-07 13:02:53,909550
0,-4,-3,2,2,2,0,-2,2021-08-07 13:02:53,909550
0,0,0,-3,-6,0,-1,1,2021-08-07 13:02:53,909550
-1,1,1,0,-3,-2,-3,-1,2021-08-07 13:02:53,910549
-2,-2,-2,-3,-2,-1,0,1,2021-08-07 13:02:53,941549
-3,-4,-3,0,4,2,-1,-1,2021-08-07 13:02:53,941549
-1,-3,-3,-6,-6,-5,-3,-2,2021-08-07 13:02:53,941549
1,1,2,4,1,0,-2,0,2021-08-07 13:02:53,941549
2,5,3,6,13,8,4,2,2021-08-07 13:02:53,957586
2,4,3,3,0,0,1,1,2021-08-07 13:02:53,957586
-5,-6,-9,-5,-2,-2,-2,-4,2021-08-07 13:02:53,957586
-1,-4,-2,-4,-4,-4,-3,-1,2021-08-07 13:02:53,957586
-3,-4,-3,-4,-4,-2,-2,-2,2021-08-07 13:02:53,972548
-2,-4,-4,-7,-9,-9,-4,-4,2021-08-07 13:02:53,988586
-4,-2,-1,-1,-2,-1,-3,-4,2021-08-07 13:02:53,988586
-1,-1,0,-1,-5,-2,-2,-1,2021-08-07 13:02:53,988586
3,1,1,2,-1,-3,-2,-1,2021-08-07 13:02:54,004551
-5,-6,-7,-12,-10,-4,-3,-3,2021-08-07 13:02:54,004551
9,12,12,20,34,24,13,9,2021-08-07 13:02:54,004551
-1,-2,-4,-1,-2,-3,-2,-2,2021-08-07 13:02:54,004551
0,-4,-3,-2,0,-1,0,-2,2021-08-07 13:02:54,004551
0,4,0,1,0,0,0,-1,2021-08-07 13:02:54,004551
0,-2,-2,-13,-18,-11,-5,-2,2021-08-07 13:02:54,020546
-1,-2,-1,3,5,1,-1,-1,2021-08-07 13:02:54,020546
2,0,0,4,3,2,3,1,2021-08-07 13:02:54,036593
-2,-3,-1,-4,-6,-4,-2,-2,2021-08-07 13:02:54,052590
-4,-6,-6,-9,-10,-7,-6,-3,2021-08-07 13:02:54,052590
1,1,1,1,1,0,2,1,2021-08-07 13:02:54,052590
-4,-3,-2,-1,-1,1,-1,0,2021-08-07 13:02:54,052590
3,3,3,6,5,2,3,2,2021-08-07 13:02:54,052590
-3,-3,-6,-11,-15,-11,-5,-3,2021-08-07 13:02:54,052590
-2,-4,-6,-1,4,2,0,-2,2021-08-07 13:02:54,052590
2,3,6,5,6,2,2,1,2021-08-07 13:02:54,084550
1,5,5,10,12,7,3,3,2021-08-07 13:02:54,084550
-3,-4,-4,-1,-2,-4,-3,-2,2021-08-07 13:02:54,084550
-2,-4,-3,-9,-14,-8,-3,-3,2021-08-07 13:02:54,084550
0,1,-2,-5,-5,-5,-2,-1,2021-08-07 13:02:54,099547
0,-2,0,1,1,1,0,0,2021-08-07 13:02:54,099547
-2,-3,-4,-2,-5,-5,-2,-3,2021-08-07 13:02:54,099547
-1,1,3,4,8,5,2,-1,2021-08-07 13:02:54,099547
0,1,3,7,14,9,4,1,2021-08-07 13:02:54,115574
3,2,1,-7,-6,-3,0,1,2021-08-07 13:02:54,115574
-2,-3,-3,3,3,0,-1,-2,2021-08-07 13:02:54,115574
0,2,2,-2,-3,-1,-2,-1,2021-08-07 13:02:54,115574
-2,-1,-1,-1,-3,0,-1,0,2021-08-07 13:02:54,131587
-1,0,1,6,8,7,3,1,2021-08-07 13:02:54,131587
-2,-3,-3,-2,-3,-3,-3,-2,2021-08-07 13:02:54,131587
-1,-3,-7,-13,-16,-11,-4,-1,2021-08-07 13:02:54,131587
-3,-5,-6,-8,-12,-9,-4,-3,2021-08-07 13:02:54,162574
1,0,0,2,5,4,1,-1,2021-08-07 13:02:54,178577
2,5,6,7,11,7,4,1,2021-08-07 13:02:54,178577
0,2,4,7,9,4,4,2,2021-08-07 13:02:54,178577
-3,-5,-6,-9,-9,-7,-5,-3,2021-08-07 13:02:54,178577
-2,-5,-4,-5,-5,-5,-4,-3,2021-08-07 13:02:54,178577
0,1,1,-2,-2,-2,1,-2,2021-08-07 13:02:54,194575
-2,-2,-2,-4,-2,-2,-3,-3,2021-08-07 13:02:54,194575
-3,-5,-5,-1,1,0,0,-3,2021-08-07 13:02:54,194575
4,9,9,7,8,8,4,4,2021-08-07 13:02:54,194575
1,2,2,3,2,-1,1,1,2021-08-07 13:02:54,194575
-2,-2,-4,-3,-3,-2,-1,-3,2021-08-07 13:02:54,194575
-2,-1,-3,-6,-9,-5,-3,-1,2021-08-07 13:02:54,210546
-4,-6,-7,-4,-3,-5,-4,-4,2021-08-07 13:02:54,210546
-2,-5,-3,-2,3,3,0,-1,2021-08-07 13:02:54,226547
5,4,5,6,10,5,3,3,2021-08-07 13:02:54,226547
1,4,5,3,2,3,2,3,2021-08-07 13:02:54,242577
-2,-2,-2,-2,-1,-1,-1,-1,2021-08-07 13:02:54,242577
1,0,0,2,1,0,0,1,2021-08-07 13:02:54,258590
-7,-8,-10,-12,-12,-8,-6,-7,2021-08-07 13:02:54,259549
-1,-3,-1,2,0,0,-1,-2,2021-08-07 13:02:54,259549
3,3,3,-3,-8,-4,0,1,2021-08-07 13:02:54,259549
-1,1,-1,2,8,5,2,1,2021-08-07 13:02:54,259549
-4,-5,-7,-9,-10,-5,-3,-2,2021-08-07 13:02:54,260549
5,5,8,13,16,8,3,3,2021-08-07 13:02:54,274578
-2,-4,-4,-2,-4,-4,-1,-2,2021-08-07 13:02:54,274578
1,0,-2,-4,-3,-2,-1,-1,2021-08-07 13:02:54,274578
-1,0,0,3,0,-1,-1,-1,2021-08-07 13:02:54,274578
4,5,6,0,-6,-2,0,2,2021-08-07 13:02:54,306550
1,1,0,6,10,7,2,1,2021-08-07 13:02:54,322551
-2,-2,-2,-2,-3,-5,-4,-3,2021-08-07 13:02:54,338604
-1,-1,-1,-2,-3,-3,-2,-1,2021-08-07 13:02:54,338604
-1,-3,-7,-7,-1,0,0,-2,2021-08-07 13:02:54,338604
2,2,3,1,0,-2,0,1,2021-08-07 13:02:54,354587
1,1,0,-1,-5,-3,-3,1,2021-08-07 13:02:54,354587
-1,-2,-1,0,5,3,0,-1,2021-08-07 13:02:54,354587
0,1,2,-3,-5,-8,-4,0,2021-08-07 13:02:54,354587
-2,-1,-3,-7,-7,0,-1,0,2021-08-07 13:02:54,354587
2,0,3,10,11,6,4,2,2021-08-07 13:02:54,354587
1,0,0,4,3,3,2,-1,2021-08-07 13:02:54,354587
-4,-3,-5,-2,1,1,-1,-3,2021-08-07 13:02:54,354587
1,2,3,1,0,0,0,0,2021-08-07 13:02:54,354587
-1,-2,-1,-8,-11,-6,-3,-2,2021-08-07 13:02:54,355550
-4,-6,-6,-5,-5,-4,-4,-3,2021-08-07 13:02:54,355550
4,6,8,7,8,4,5,5,2021-08-07 13:02:54,370546
-2,-4,-5,-2,-1,-2,-2,-2,2021-08-07 13:02:54,370546
-2,-1,-2,-4,-8,-4,-3,-3,2021-08-07 13:02:54,370546
0,1,2,4,6,2,0,1,2021-08-07 13:02:54,370546
-2,-4,-3,-3,-4,-4,-1,-1,2021-08-07 13:02:54,417588
-3,-4,-4,-9,-8,-7,-2,-2,2021-08-07 13:02:54,417588
-1,0,2,7,12,8,2,2,2021-08-07 13:02:54,417588
1,0,0,0,0,-1,-1,1,2021-08-07 13:02:54,417588
0,-2,-1,1,3,2,-2,-1,2021-08-07 13:02:54,417588
0,0,-1,0,-5,-5,-3,0,2021-08-07 13:02:54,418549
0,0,-1,-3,0,3,0,0,2021-08-07 13:02:54,418549
-3,-2,-1,-3,-4,-2,-1,-2,2021-08-07 13:02:54,418549
2,2,2,2,7,5,1,2,2021-08-07 13:02:54,433547
2,1,4,8,9,5,1,1,2021-08-07 13:02:54,433547
-4,-4,-5,-7,-9,-7,-3,-3,2021-08-07 13:02:54,433547
-2,-3,-5,-4,-7,-5,-3,-1,2021-08-07 13:02:54,433547
1,2,1,-1,-2,0,-1,0,2021-08-07 13:02:54,465591
1,4,5,-2,-3,0,-1,2,2021-08-07 13:02:54,481576
-1,0,0,1,1,-1,-3,-1,2021-08-07 13:02:54,481576
0,0,-2,-8,-8,-5,-1,0,2021-08-07 13:02:54,481576
-1,-1,-4,4,5,5,3,0,2021-08-07 13:02:54,481576
-3,-4,-4,2,4,-2,0,-2,2021-08-07 13:02:54,481576
-1,-4,-5,-6,-3,-1,0,0,2021-08-07 13:02:54,481576
1,2,5,4,2,-1,-1,-1,2021-08-07 13:02:54,481576
1,-1,-2,0,3,3,3,1,2021-08-07 13:02:54,497576
0,2,3,3,2,-1,-1,0,2021-08-07 13:02:54,513549
-5,-8,-8,-6,-6,-5,-5,-4,2021-08-07 13:02:54,529548
2,3,2,-7,-7,-3,-2,0,2021-08-07 13:02:54,529548
-3,-1,0,-2,-1,-3,-4,-3,2021-08-07 13:02:54,529548
-6,-8,-9,-6,-7,-2,-2,-3,2021-08-07 13:02:54,529548
-1,2,2,-1,0,-2,-1,-2,2021-08-07 13:02:54,545576
6,10,9,9,8,8,6,6,2021-08-07 13:02:54,561575
0,3,2,-2,-3,-2,0,0,2021-08-07 13:02:54,561575
-1,-1,0,-1,0,-1,0,-2,2021-08-07 13:02:54,561575
-1,-1,-2,3,1,-1,1,-2,2021-08-07 13:02:54,561575
-1,-1,-1,3,3,1,0,0,2021-08-07 13:02:54,561575
-2,-4,-4,-3,-3,-1,-3,-2,2021-08-07 13:02:54,562547
-1,-2,-2,1,0,0,-1,-2,2021-08-07 13:02:54,562547
-1,1,1,1,-2,0,-2,1,2021-08-07 13:02:54,562547
-2,-1,-3,-6,-2,-1,0,-2,2021-08-07 13:02:54,562547
-4,-6,-7,-7,-7,-5,-3,-4,2021-08-07 13:02:54,592574
4,4,3,1,-3,-1,1,1,2021-08-07 13:02:54,592574
2,2,2,3,6,5,2,2,2021-08-07 13:02:54,592574
-6,-8,-7,-3,-5,-5,-4,-3,2021-08-07 13:02:54,592574
1,6,8,10,5,3,3,4,2021-08-07 13:02:54,592574
-1,-1,0,-3,6,3,2,1,2021-08-07 13:02:54,592574
0,0,-2,-3,-5,-3,0,-1,2021-08-07 13:02:54,608546
-6,-4,-4,-4,-5,-6,-5,-5,2021-08-07 13:02:54,608546
-1,-4,-3,1,9,4,0,-3,2021-08-07 13:02:54,624596
0,2,1,2,0,1,1,1,2021-08-07 13:02:54,624596
1,1,-1,-6,-13,-8,-5,-2,2021-08-07 13:02:54,624596
3,0,2,10,13,8,5,2,2021-08-07 13:02:54,624596
-2,0,0,0,-8,-5,-3,-3,2021-08-07 13:02:54,640546
-1,-2,-1,-3,-1,0,-1,0,2021-08-07 13:02:54,656549
-5,-6,-6,-14,-15,-12,-6,-4,2021-08-07 13:02:54,656549
2,4,3,3,1,0,0,1,2021-08-07 13:02:54,656549
-2,-3,-3,-2,-4,-1,-1,-1,2021-08-07 13:02:54,656549
-2,-3,-3,3,3,0,-2,-1,2021-08-07 13:02:54,656549
6,7,5,-2,3,5,4,6,2021-08-07 13:02:54,656549
4,5,8,14,18,9,4,1,2021-08-07 13:02:54,657549
-1,3,1,1,2,-1,0,1,2021-08-07 13:02:54,686547
-5,-6,-6,-5,-4,-6,-4,-5,2021-08-07 13:02:54,686547
-2,-2,-2,-3,-8,-5,-3,-4,2021-08-07 13:02:54,686547
-1,0,-1,-1,-2,0,0,-3,2021-08-07 13:02:54,686547
3,2,2,3,5,5,2,4,2021-08-07 13:02:54,686547
-2,-3,-4,-6,-6,-6,-3,-3,2021-08-07 13:02:54,686547
-1,-2,-2,1,2,-1,0,-2,2021-08-07 13:02:54,702546
0,0,2,-4,-6,-4,-1,2,2021-08-07 13:02:54,717548
-2,-4,-2,-4,-5,-6,-3,-3,2021-08-07 13:02:54,717548
1,1,-1,-2,-2,0,0,1,2021-08-07 13:02:54,717548
1,-1,-1,4,6,4,2,1,2021-08-07 13:02:54,717548
-1,-4,-7,-8,-7,-3,-1,0,2021-08-07 13:02:54,717548
-1,-3,-5,-4,-1,-2,0,-1,2021-08-07 13:02:54,748547
0,-1,0,1,3,1,-1,-2,2021-08-07 13:02:54,764546
-2,2,4,9,8,2,-1,-4,2021-08-07 13:02:54,764546
-2,-1,-2,-5,-8,-4,-2,-2,2021-08-07 13:02:54,764546
-3,-2,-2,-2,-5,-5,-3,-3,2021-08-07 13:02:54,779547
1,-1,-2,-4,-3,-2,0,1,2021-08-07 13:02:54,779547
-1,0,-1,0,0,-1,-3,0,2021-08-07 13:02:54,795548
0,1,-1,-2,-2,1,1,0,2021-08-07 13:02:54,795548
-1,0,-1,-2,-5,-2,0,-1,2021-08-07 13:02:54,795548
2,3,4,8,12,7,5,2,2021-08-07 13:02:54,795548
-1,-5,-4,-1,-2,-1,-2,0,2021-08-07 13:02:54,796547
-2,-4,-2,-2,-1,-2,-3,-3,2021-08-07 13:02:54,796547
1,-1,0,-1,0,-1,0,0,2021-08-07 13:02:54,796547
-1,1,0,-1,-5,-2,-1,0,2021-08-07 13:02:54,796547
-2,1,0,0,0,1,-1,1,2021-08-07 13:02:54,796547
0,-1,0,0,1,0,-1,0,2021-08-07 13:02:54,796547
-1,-5,-3,-3,-3,-2,-2,-3,2021-08-07 13:02:54,811548
-1,2,3,2,-2,-2,-1,-1,2021-08-07 13:02:54,827546
1,4,3,1,2,1,2,1,2021-08-07 13:02:54,827546
-2,0,-1,4,3,0,1,-1,2021-08-07 13:02:54,843597
-3,-2,-3,-3,-3,-3,-1,-2,2021-08-07 13:02:54,843597
-4,-5,-6,-7,-12,-9,-7,-4,2021-08-07 13:02:54,843597
-2,-2,-2,0,2,4,0,0,2021-08-07 13:02:54,843597
3,3,3,2,7,4,2,2,2021-08-07 13:02:54,843597
1,0,-1,-1,-1,-1,0,1,2021-08-07 13:02:54,859580
0,0,2,4,4,4,2,0,2021-08-07 13:02:54,874576
-4,-6,-4,-6,-11,-8,-3,-5,2021-08-07 13:02:54,874576
1,-1,-1,-4,-5,-4,-2,0,2021-08-07 13:02:54,874576
1,1,1,1,2,0,-2,-1,2021-08-07 13:02:54,874576
1,4,1,1,-2,-1,0,1,2021-08-07 13:02:54,874576
-6,-6,-4,-4,-3,-3,-3,-4,2021-08-07 13:02:54,874576
-7,-5,-2,-1,0,-2,0,-3,2021-08-07 13:02:54,874576
-2,-4,-5,-4,-2,0,-2,0,2021-08-07 13:02:54,904547
6,5,5,3,5,4,4,3,2021-08-07 13:02:54,904547
2,3,0,1,2,-1,-1,-1,2021-08-07 13:02:54,904547
0,1,-1,-4,-4,-2,-2,-1,2021-08-07 13:02:54,904547
0,-1,1,-1,-1,1,1,1,2021-08-07 13:02:54,920576
0,1,1,3,7,4,3,2,2021-08-07 13:02:54,936587
-3,-3,-4,-3,-4,-2,-1,-1,2021-08-07 13:02:54,936587
-1,-3,-3,-3,-3,-2,-2,-3,2021-08-07 13:02:54,936587
-1,-1,0,-2,-5,-4,-2,-3,2021-08-07 13:02:54,936587
-1,0,-1,-1,2,2,0,-2,2021-08-07 13:02:54,936587
2,3,3,1,-2,-3,0,0,2021-08-07 13:02:54,936587
1,-1,-2,3,10,5,2,1,2021-08-07 13:02:54,936587
-3,0,-1,-5,-9,-3,-2,-1,2021-08-07 13:02:54,966550
-2,-3,1,4,1,0,0,-1,2021-08-07 13:02:54,982576
2,2,1,1,8,5,2,1,2021-08-07 13:02:54,982576
-3,-3,-3,-3,-5,-4,-3,-4,2021-08-07 13:02:54,982576
2,2,0,2,3,1,3,0,2021-08-07 13:02:54,982576
-2,-2,-3,-7,-10,-9,-4,-3,2021-08-07 13:02:54,982576
-2,-2,-2,-1,0,0,-2,0,2021-08-07 13:02:54,998550
3,4,4,0,-2,3,6,5,2021-08-07 13:02:54,998550
0,0,1,4,3,3,-1,0,2021-08-07 13:02:54,998550
-4,-5,-8,-6,-5,-4,-6,-4,2021-08-07 13:02:54,998550
-1,0,0,1,1,-2,-2,-1,2021-08-07 13:02:54,998550
-4,-4,-6,-6,-9,-5,-2,-3,2021-08-07 13:02:54,998550
-5,-4,-4,0,4,2,-2,-3,2021-08-07 13:02:55,014587
-1,-2,-2,-2,0,2,-1,0,2021-08-07 13:02:55,029586
6,7,8,6,4,5,4,6,2021-08-07 13:02:55,061575
1,4,3,0,-2,1,0,1,2021-08-07 13:02:55,077573
0,1,0,-1,-1,-3,0,-2,2021-08-07 13:02:55,077573
-6,-5,-3,-2,-7,-5,-4,-3,2021-08-07 13:02:55,077573
-6,-10,-9,-8,-5,-3,-5,-6,2021-08-07 13:02:55,077573
3,5,4,8,8,5,2,2,2021-08-07 13:02:55,077573
-1,-3,0,2,2,2,0,-1,2021-08-07 13:02:55,077573
2,3,2,1,4,2,2,2,2021-08-07 13:02:55,077573
0,1,1,-2,-5,-2,1,2,2021-08-07 13:02:55,078549
-4,-6,-5,-7,-10,-9,-6,-4,2021-08-07 13:02:55,078549
2,5,5,4,3,2,1,1,2021-08-07 13:02:55,078549
0,-1,-1,1,2,1,0,-1,2021-08-07 13:02:55,078549
-3,-2,-3,-3,-7,-4,-3,-2,2021-08-07 13:02:55,078549
-2,0,-2,-4,-1,-1,-1,-1,2021-08-07 13:02:55,078549
-3,-3,-2,-5,-5,-3,-2,-1,2021-08-07 13:02:55,109573
2,3,2,1,2,0,1,0,2021-08-07 13:02:55,111550
-1,-1,-2,0,-1,-4,-1,-1,2021-08-07 13:02:55,112551
-5,-5,-4,-7,-11,-8,-7,-3,2021-08-07 13:02:55,112551
2,1,2,6,9,4,3,3,2021-08-07 13:02:55,112551
2,6,6,0,0,2,3,3,2021-08-07 13:02:55,125550
0,0,-2,2,2,0,0,0,2021-08-07 13:02:55,141585
0,1,1,0,1,0,-1,0,2021-08-07 13:02:55,141585
-2,-1,0,-3,-4,-3,1,1,2021-08-07 13:02:55,141585
-3,-4,-4,-4,-3,-2,-2,-2,2021-08-07 13:02:55,141585
-3,-5,-5,-4,-8,-3,-5,-2,2021-08-07 13:02:55,141585
-1,-2,-5,-5,-1,0,0,0,2021-08-07 13:02:55,141585
3,7,5,4,5,4,4,2,2021-08-07 13:02:55,173576
1,0,2,2,5,2,0,1,2021-08-07 13:02:55,173576
-3,-3,-3,-6,-9,-6,-4,-4,2021-08-07 13:02:55,173576
-1,-4,-3,0,1,0,-1,0,2021-08-07 13:02:55,173576
-1,0,0,-6,-10,-7,-3,-2,2021-08-07 13:02:55,173576
2,0,2,9,18,11,5,3,2021-08-07 13:02:55,173576
0,-1,-1,-2,0,-1,-1,-1,2021-08-07 13:02:55,189548
-2,-4,-2,-3,-3,0,-2,-3,2021-08-07 13:02:55,221585
4,8,5,3,2,2,1,4,2021-08-07 13:02:55,221585
-3,-4,-3,-8,-9,-6,-2,-2,2021-08-07 13:02:55,221585
-1,-3,-1,5,8,3,2,-1,2021-08-07 13:02:55,237550
1,2,3,3,2,-2,-1,0,2021-08-07 13:02:55,237550
0,-2,-5,1,2,2,-1,-1,2021-08-07 13:02:55,237550
-4,-5,-5,-7,-10,-7,-3,-3,2021-08-07 13:02:55,253548
2,5,6,4,7,4,1,4,2021-08-07 13:02:55,269575
-4,-2,-4,-4,-4,-5,-2,-4,2021-08-07 13:02:55,269575
-3,-4,-2,0,2,0,-3,-1,2021-08-07 13:02:55,269575
2,2,0,-5,-1,3,0,0,2021-08-07 13:02:55,269575
-1,-3,-1,-3,-5,-2,-1,-2,2021-08-07 13:02:55,269575
2,2,2,3,7,5,3,3,2021-08-07 13:02:55,270549
-1,-2,0,-1,0,-2,-1,-1,2021-08-07 13:02:55,270549
-2,-2,-1,-1,-1,-2,-3,-2,2021-08-07 13:02:55,270549
-1,-1,-3,-7,-8,-6,-2,-2,2021-08-07 13:02:55,285575
0,-1,-2,-2,-8,-3,-2,-2,2021-08-07 13:02:55,285575
-1,-2,-2,-7,-3,0,0,-1,2021-08-07 13:02:55,285575
2,6,6,15,16,7,3,2,2021-08-07 13:02:55,285575
0,0,0,0,-1,-1,-1,-1,2021-08-07 13:02:55,285575
0,1,-2,-3,-6,-4,-3,-1,2021-08-07 13:02:55,285575
-2,-2,-1,-1,-3,-2,-3,-1,2021-08-07 13:02:55,285575
-2,-2,-2,-8,-11,-7,-4,-2,2021-08-07 13:02:55,286550
-1,1,3,-2,-2,0,-2,-1,2021-08-07 13:02:55,301576
0,0,1,3,8,3,1,0,2021-08-07 13:02:55,301576
-3,-5,-6,-5,-7,-6,-4,-3,2021-08-07 13:02:55,317547
2,4,2,7,10,5,2,4,2021-08-07 13:02:55,317547
-1,-4,-3,-3,3,1,0,-1,2021-08-07 13:02:55,317547
2,1,2,-5,-7,-2,0,0,2021-08-07 13:02:55,317547
-1,0,0,0,0,-1,-1,-1,2021-08-07 13:02:55,349548
-5,-9,-7,-7,-12,-6,-6,-5,2021-08-07 13:02:55,349548
-2,-1,-2,-1,-2,-4,-1,-1,2021-08-07 13:02:55,349548
-1,-1,1,3,10,6,2,2,2021-08-07 13:02:55,349548
2,3,2,2,0,0,1,1,2021-08-07 13:02:55,349548
-2,-3,-2,-6,-6,-4,-2,-4,2021-08-07 13:02:55,349548
-2,-2,-1,-1,-4,-3,-2,-2,2021-08-07 13:02:55,365588
0,-1,-3,1,-2,-3,0,-1,2021-08-07 13:02:55,365588
0,-1,0,5,13,12,3,1,2021-08-07 13:02:55,381587
0,-2,-1,3,-1,-1,-1,0,2021-08-07 13:02:55,381587
2,2,4,1,1,1,1,0,2021-08-07 13:02:55,381587
-2,-3,-4,-1,-3,-5,-2,-2,2021-08-07 13:02:55,381587
-1,-3,-2,-2,-6,-4,-2,0,2021-08-07 13:02:55,413587
-1,-3,-4,-2,2,-1,1,0,2021-08-07 13:02:55,413587
2,3,0,1,1,1,1,1,2021-08-07 13:02:55,413587
-2,1,0,-1,-1,-2,-2,-1,2021-08-07 13:02:55,413587
2,3,3,0,-4,-3,0,0,2021-08-07 13:02:55,413587
-3,-4,-6,-8,-6,-6,-4,-4,2021-08-07 13:02:55,414550
-2,-1,-1,4,5,2,0,2,2021-08-07 13:02:55,429549
-3,-1,-2,-1,-1,0,0,0,2021-08-07 13:02:55,429549
3,4,6,4,1,-2,1,2,2021-08-07 13:02:55,429549
-2,-2,-2,-3,-4,-2,-2,-2,2021-08-07 13:02:55,429549
-3,-4,-6,-6,-3,-3,-2,-3,2021-08-07 13:02:55,445548
-1,-3,-2,1,3,-1,-1,0,2021-08-07 13:02:55,445548
-2,-2,-3,0,-2,1,-1,-2,2021-08-07 13:02:55,477573
0,1,-1,-5,-6,-3,-3,1,2021-08-07 13:02:55,477573
0,0,4,4,3,5,0,2,2021-08-07 13:02:55,477573
-3,-2,-2,-1,0,0,-1,-1,2021-08-07 13:02:55,477573
-4,-4,-6,-2,-1,-3,-2,-2,2021-08-07 13:02:55,477573
5,10,11,7,5,4,2,4,2021-08-07 13:02:55,477573
0,-1,-4,-5,-4,-3,-4,-3,2021-08-07 13:02:55,477573
0,0,-1,-2,-4,-3,-1,-1,2021-08-07 13:02:55,478547
-3,-3,-5,-6,-3,-1,-1,-1,2021-08-07 13:02:55,509549
-4,-8,-7,-3,-1,-1,-2,-2,2021-08-07 13:02:55,509549
4,9,10,10,7,8,4,4,2021-08-07 13:02:55,509549
2,-1,3,7,15,6,3,1,2021-08-07 13:02:55,509549
1,1,2,4,5,0,0,-1,2021-08-07 13:02:55,525546
-2,-2,-4,-2,-3,-3,-2,-2,2021-08-07 13:02:55,525546
-7,-8,-9,-11,-8,-9,-5,-4,2021-08-07 13:02:55,525546
2,2,1,-4,-10,-2,0,0,2021-08-07 13:02:55,525546
-1,-4,-3,-6,-6,-2,-2,-1,2021-08-07 13:02:55,548580
-2,0,1,4,8,3,1,0,2021-08-07 13:02:55,549549
-5,-3,-2,-3,-8,-6,-6,-5,2021-08-07 13:02:55,557597
1,2,0,0,-1,1,1,2,2021-08-07 13:02:55,557597
0,0,-1,0,3,1,2,2,2021-08-07 13:02:55,557597
-3,-7,-7,-5,-6,-3,0,-1,2021-08-07 13:02:55,557597
-3,-3,-3,0,0,2,2,0,2021-08-07 13:02:55,557597
4,6,6,6,7,8,7,6,2021-08-07 13:02:55,557597
2,7,7,1,-4,-1,-1,-1,2021-08-07 13:02:55,604591
-3,-4,-1,1,-1,-2,-4,-4,2021-08-07 13:02:55,620592
-4,-2,-3,-5,-4,-6,-6,-5,2021-08-07 13:02:55,636615
-3,-3,-1,-7,-11,-9,-8,-5,2021-08-07 13:02:55,636615
-1,-2,-3,5,7,3,1,1,2021-08-07 13:02:55,636615
1,-1,-3,-6,-3,-2,0,-1,2021-08-07 13:02:55,636615
4,4,2,-1,-3,-1,3,4,2021-08-07 13:02:55,636615
1,2,1,-2,1,3,1,1,2021-08-07 13:02:55,636615
-1,1,-3,0,2,-1,-3,0,2021-08-07 13:02:55,636615
-2,-3,-1,1,-2,-4,-2,-1,2021-08-07 13:02:55,637593
-3,-3,-3,-3,-2,-1,-1,-2,2021-08-07 13:02:55,637593
0,-1,-1,-1,-3,-3,-1,0,2021-08-07 13:02:55,637593
0,-4,-3,-10,-17,-11,-3,-2,2021-08-07 13:02:55,637593
2,4,2,11,21,15,7,3,2021-08-07 13:02:55,637593
-1,-3,-3,-3,0,-2,-2,-3,2021-08-07 13:02:55,637593
1,4,4,5,5,3,1,0,2021-08-07 13:02:55,637593
-3,-6,-6,-2,-2,-2,-2,-1,2021-08-07 13:02:55,668593
0,1,0,-9,-16,-9,-3,-2,2021-08-07 13:02:55,668593
4,5,4,3,6,6,3,2,2021-08-07 13:02:55,668593
-3,-5,-4,-6,-9,-8,-5,-3,2021-08-07 13:02:55,668593
-3,-4,-4,-2,-4,-3,-2,-1,2021-08-07 13:02:55,668593
-1,-1,-2,0,-1,0,-1,-2,2021-08-07 13:02:55,668593
2,3,5,6,7,5,3,2,2021-08-07 13:02:55,684591
-2,-3,-4,-2,1,1,0,-2,2021-08-07 13:02:55,684591
-2,-5,-1,0,2,2,3,1,2021-08-07 13:02:55,700629
0,-2,-1,-2,-3,-2,-2,0,2021-08-07 13:02:55,716632
-2,0,-3,-3,2,-1,-5,-1,2021-08-07 13:02:55,716632
0,-1,-1,2,2,3,4,2,2021-08-07 13:02:55,716632
2,6,5,-4,-4,-1,0,1,2021-08-07 13:02:55,716632
-4,-2,-2,-1,-3,-6,-3,-1,2021-08-07 13:02:55,716632
-2,-5,-2,0,2,2,2,0,2021-08-07 13:02:55,732640
-4,-2,-2,-2,-4,-6,-6,-4,2021-08-07 13:02:55,732640
0,0,-1,0,7,4,1,-1,2021-08-07 13:02:55,732640
5,5,6,2,-2,0,2,3,2021-08-07 13:02:55,732640
-4,-7,-7,-11,-18,-13,-5,-3,2021-08-07 13:02:55,748632
-1,-3,-3,2,4,7,5,0,2021-08-07 13:02:55,748632
0,3,3,5,3,0,1,0,2021-08-07 13:02:55,764590
1,0,-2,-4,-7,-4,-1,0,2021-08-07 13:02:55,780632
0,1,0,4,5,4,2,1,2021-08-07 13:02:55,780632
-3,-3,-3,2,-3,-3,-2,-2,2021-08-07 13:02:55,780632
0,0,-1,-4,-1,-2,-1,-1,2021-08-07 13:02:55,780632
0,1,0,-6,-6,-3,-1,0,2021-08-07 13:02:55,780632
-4,-6,-5,-7,-17,-10,-5,-3,2021-08-07 13:02:55,780632
-5,-8,-10,-4,8,3,-4,-4,2021-08-07 13:02:55,781593
5,13,13,16,20,11,6,3,2021-08-07 13:02:55,796591
-3,-3,-5,-4,-4,-5,-4,-5,2021-08-07 13:02:55,812830
3,4,1,-3,-3,0,5,4,2021-08-07 13:02:55,812830
0,0,-1,-7,-9,-5,0,0,2021-08-07 13:02:55,812830
4,-1,-1,0,5,19,31,15,2021-08-07 13:02:55,812830
9,6,9,18,25,25,13,5,2021-08-07 13:02:55,812830
-10,-9,-11,-13,-24,-39,-48,-25,2021-08-07 13:02:55,812830
-12,-9,-10,-19,-29,-20,-10,-10,2021-08-07 13:02:55,813593
16,8,5,7,24,29,20,13,2021-08-07 13:02:55,843852
-8,-2,-1,6,-2,-23,-24,-11,2021-08-07 13:02:55,859849
-26,-17,-12,-3,3,-8,-9,-11,2021-08-07 13:02:55,859849
13,14,12,11,18,16,12,12,2021-08-07 13:02:55,859849
3,-5,-5,-12,-23,-17,-11,-3,2021-08-07 13:02:55,859849
-12,-13,-11,-26,-38,-19,0,-6,2021-08-07 13:02:55,859849
24,13,15,38,54,64,56,34,2021-08-07 13:02:55,859849
17,17,11,-1,-9,-6,1,12,2021-08-07 13:02:55,859849
-36,-15,-12,1,-1,-34,-48,-44,2021-08-07 13:02:55,875809
17,8,6,5,19,23,14,11,2021-08-07 13:02:55,875809
9,4,1,-7,-15,-26,-37,-6,2021-08-07 13:02:55,891809
-23,-10,-10,-12,-18,-18,-18,-19,2021-08-07 13:02:55,891809
0,-6,-5,-6,-7,0,2,13,2021-08-07 13:02:55,907809
-22,-16,-12,-10,-20,-21,-17,-11,2021-08-07 13:02:55,923846
9,7,6,3,11,33,43,19,2021-08-07 13:02:55,923846
32,17,17,30,45,57,55,30,2021-08-07 13:02:55,923846
2,0,-3,-12,-24,-23,-17,-6,2021-08-07 13:02:55,923846
-23,-14,-18,-35,-56,-54,-40,-31,2021-08-07 13:02:55,923846
15,17,17,36,60,46,26,13,2021-08-07 13:02:55,923846
-11,-12,-10,6,10,-8,-16,-13,2021-08-07 13:02:55,923846
-6,-4,1,5,6,9,8,-1,2021-08-07 13:02:55,939846
8,3,3,1,-10,2,15,12,2021-08-07 13:02:55,939846
6,6,-1,0,11,-1,-6,-2,2021-08-07 13:02:55,939846
-10,-6,-6,-21,-13,-14,-13,-13,2021-08-07 13:02:55,939846
-6,-6,0,9,5,4,4,-1,2021-08-07 13:02:55,969809
10,7,6,11,-2,0,3,9,2021-08-07 13:02:55,985810
-12,-9,-14,-20,-23,-18,-14,-12,2021-08-07 13:02:55,991811
-8,-12,-13,-31,-22,-13,-10,-5,2021-08-07 13:02:55,991811
9,12,25,37,23,15,9,7,2021-08-07 13:02:55,991811
3,7,2,-4,12,6,-2,0,2021-08-07 13:02:55,991811
0,-6,-14,-26,-14,4,8,3,2021-08-07 13:02:55,992811
-7,-14,-17,-31,-28,-15,-9,-5,2021-08-07 13:02:55,992811
-7,-11,-21,-33,-33,-25,-19,-11,2021-08-07 13:02:55,992811
-4,-1,7,17,7,3,-3,-6,2021-08-07 13:02:55,992811
-8,-5,7,15,1,-4,-2,-5,2021-08-07 13:02:55,992811
10,13,16,25,22,12,7,8,2021-08-07 13:02:55,992811
-3,-2,-3,-9,-17,-9,-6,-5,2021-08-07 13:02:56,032849
4,1,4,23,45,30,17,9,2021-08-07 13:02:56,048387
0,6,1,-10,-16,-14,-8,-6,2021-08-07 13:02:56,048387
-1,4,5,8,0,-4,-5,-3,2021-08-07 13:02:56,048387
2,4,-3,-5,-4,-1,2,2,2021-08-07 13:02:56,048387
-4,3,-3,-6,0,3,1,-3,2021-08-07 13:02:56,048387
-8,-9,-8,-11,-19,-15,-8,-10,2021-08-07 13:02:56,048387
-10,-16,-11,1,-5,-6,-5,1,2021-08-07 13:02:56,048387
7,7,4,-5,-6,-2,1,3,2021-08-07 13:02:56,064399
8,1,1,7,32,25,14,10,2021-08-07 13:02:56,064399
-8,-8,-9,-11,-15,-15,-11,-11,2021-08-07 13:02:56,064399
5,11,13,16,10,7,7,3,2021-08-07 13:02:56,064399
1,-1,-2,-5,1,1,4,3,2021-08-07 13:02:56,080360
-1,2,2,-2,-2,0,-1,-3,2021-08-07 13:02:56,096398
-1,-2,1,1,-7,-5,-2,-1,2021-08-07 13:02:56,112361
1,-3,-8,-1,1,2,0,0,2021-08-07 13:02:56,112361
5,0,0,1,4,1,1,3,2021-08-07 13:02:56,112361
0,4,4,-1,-4,-1,-1,-3,2021-08-07 13:02:56,112361
-2,-3,-2,-8,-13,-3,2,5,2021-08-07 13:02:56,112361
-2,-2,-1,5,7,-3,-1,1,2021-08-07 13:02:56,112361
-4,-3,-2,2,7,2,-3,-5,2021-08-07 13:02:56,127362
-2,-6,-7,-3,1,-1,1,1,2021-08-07 13:02:56,143363
4,3,2,1,1,1,2,1,2021-08-07 13:02:56,143363
0,6,7,-1,-7,-4,-3,-3,2021-08-07 13:02:56,143363
-8,-10,-8,-3,-3,0,-2,-6,2021-08-07 13:02:56,143363
5,6,5,7,10,8,7,7,2021-08-07 13:02:56,143363
3,3,8,6,2,-2,-1,3,2021-08-07 13:02:56,159389
3,6,4,5,-1,-2,0,0,2021-08-07 13:02:56,175387
0,1,-2,9,7,5,3,0,2021-08-07 13:02:56,175387
-2,-6,-9,-16,-7,-2,-2,-3,2021-08-07 13:02:56,175387
-9,-12,-10,-22,-13,-9,-10,-8,2021-08-07 13:02:56,175387
-1,-1,-2,1,-3,-1,-1,-2,2021-08-07 13:02:56,175387
5,5,6,2,1,2,2,3,2021-08-07 13:02:56,175387
2,4,6,18,13,7,4,3,2021-08-07 13:02:56,175387
10,13,16,31,32,19,11,8,2021-08-07 13:02:56,191398
-2,-1,7,-3,-2,-5,-3,-3,2021-08-07 13:02:56,191398
-3,-5,-17,-4,-6,-1,-1,-1,2021-08-07 13:02:56,207363
-5,-7,-11,-33,-24,-14,-8,-6,2021-08-07 13:02:56,223398
0,-2,-1,-1,4,3,3,1,2021-08-07 13:02:56,255365
1,-1,-5,0,2,3,2,0,2021-08-07 13:02:56,255365
-3,-5,-1,-15,-20,-14,-8,-5,2021-08-07 13:02:56,255365
0,-2,-2,-3,-8,-4,-4,-1,2021-08-07 13:02:56,255365
-2,-1,-3,-6,-16,-11,-3,3,2021-08-07 13:02:56,255365
7,11,16,37,51,32,14,10,2021-08-07 13:02:56,255365
3,5,8,9,20,9,6,3,2021-08-07 13:02:56,255365
-5,-6,-6,-4,-7,-8,-3,-5,2021-08-07 13:02:56,255365
-2,-1,-2,-6,-9,-11,-6,-5,2021-08-07 13:02:56,255365
-8,-9,-11,-13,-13,-7,-6,-6,2021-08-07 13:02:56,256388
6,8,8,4,3,5,5,5,2021-08-07 13:02:56,256388
-1,1,1,1,-2,-2,-2,0,2021-08-07 13:02:56,256388
-3,-2,-4,-7,-8,-4,-3,-4,2021-08-07 13:02:56,256388
1,-2,-5,-3,-8,-8,-2,-1,2021-08-07 13:02:56,256388
-5,-6,-7,-4,4,1,-2,-6,2021-08-07 13:02:56,286360
1,1,6,8,0,-1,0,-1,2021-08-07 13:02:56,286360
2,5,0,-1,1,3,1,1,2021-08-07 13:02:56,302397
-3,-4,-4,0,1,-2,-3,-5,2021-08-07 13:02:56,302397
3,6,8,10,12,9,4,2,2021-08-07 13:02:56,302397
-4,-4,-6,-1,-11,-11,-6,-4,2021-08-07 13:02:56,302397
1,-2,-6,-11,0,6,1,1,2021-08-07 13:02:56,302397
1,-2,7,-5,-8,-3,-2,0,2021-08-07 13:02:56,302397
-4,-5,-8,0,-1,-5,-5,-3,2021-08-07 13:02:56,318361
3,1,-3,4,-1,0,2,0,2021-08-07 13:02:56,334663
-3,-6,-7,-17,-10,-2,-3,-3,2021-08-07 13:02:56,350390
0,2,3,4,1,-3,-1,0,2021-08-07 13:02:56,350390
2,2,4,5,4,2,0,1,2021-08-07 13:02:56,350390
0,0,1,3,-4,-3,0,-1,2021-08-07 13:02:56,350390
-3,-6,-7,-9,-11,-10,-4,-3,2021-08-07 13:02:56,350390
3,2,2,-4,6,5,2,2,2021-08-07 13:02:56,350390
-2,2,4,6,8,3,2,0,2021-08-07 13:02:56,351363
1,5,6,9,15,7,3,0,2021-08-07 13:02:56,366376
0,0,2,16,-2,-5,-2,-1,2021-08-07 13:02:56,382395
-3,-6,-11,-20,-27,-14,-6,-4,2021-08-07 13:02:56,382395
-2,-1,-2,-13,-10,-3,-3,-1,2021-08-07 13:02:56,382395
-2,-4,-2,-4,5,3,-1,-1,2021-08-07 13:02:56,382395
4,3,7,24,24,10,7,3,2021-08-07 13:02:56,382395
6,5,1,2,19,16,11,6,2021-08-07 13:02:56,382395
-4,-8,-9,-27,-23,-13,-8,-6,2021-08-07 13:02:56,414362
-4,-4,-8,-13,-17,-11,-5,-4,2021-08-07 13:02:56,414362
-5,-2,6,9,5,-2,-4,-5,2021-08-07 13:02:56,414362
-2,1,4,15,-3,-4,-3,-2,2021-08-07 13:02:56,414362
0,-1,-3,4,1,2,1,0,2021-08-07 13:02:56,414362
2,3,10,-19,-4,-2,0,-2,2021-08-07 13:02:56,414362
-5,-10,-16,-21,-24,-15,-9,-6,2021-08-07 13:02:56,423392
3,5,3,6,7,4,3,5,2021-08-07 13:02:56,424387
3,3,6,24,30,18,8,3,2021-08-07 13:02:56,461398
-1,0,-1,2,-1,-1,-2,1,2021-08-07 13:02:56,461398
1,-1,2,13,29,17,8,2,2021-08-07 13:02:56,461398
-2,-2,-3,-20,-24,-16,-9,-6,2021-08-07 13:02:56,461398
0,3,3,0,0,-1,-1,-1,2021-08-07 13:02:56,461398
1,0,5,18,19,11,2,0,2021-08-07 13:02:56,462362
1,3,3,-4,-10,-1,0,0,2021-08-07 13:02:56,462362
1,1,1,22,35,16,6,3,2021-08-07 13:02:56,462362
-3,-4,-1,1,0,-2,-2,-4,2021-08-07 13:02:56,476395
-1,-2,-8,-13,-15,-6,-2,0,2021-08-07 13:02:56,492362
-3,-3,-6,-28,-18,-6,-4,-2,2021-08-07 13:02:56,524410
-5,-7,-5,-21,-17,-7,-5,-5,2021-08-07 13:02:56,540362
-1,0,-4,3,-2,-3,-2,-1,2021-08-07 13:02:56,540362
1,5,8,17,11,5,5,2,2021-08-07 13:02:56,540362
2,3,3,17,7,1,4,1,2021-08-07 13:02:56,540362
1,1,3,-2,-9,-4,0,0,2021-08-07 13:02:56,540362
-5,-2,-9,-29,-21,-13,-6,-4,2021-08-07 13:02:56,540362
-1,-3,-2,4,8,5,-1,-1,2021-08-07 13:02:56,540362
-1,1,1,7,5,-2,-2,-1,2021-08-07 13:02:56,540362
0,-1,-4,3,9,6,1,0,2021-08-07 13:02:56,540362
2,2,8,7,0,0,0,2,2021-08-07 13:02:56,540362
0,0,2,2,-1,-2,-1,0,2021-08-07 13:02:56,541388
-1,0,0,2,-2,-1,-3,0,2021-08-07 13:02:56,541388
-3,-9,-13,-33,-32,-16,-7,-4,2021-08-07 13:02:56,541388
-7,-12,-10,-24,-16,-9,-7,-7,2021-08-07 13:02:56,572386
0,1,1,10,22,16,6,3,2021-08-07 13:02:56,572386
5,7,10,16,20,7,3,2,2021-08-07 13:02:56,572386
2,7,4,14,2,0,2,1,2021-08-07 13:02:56,572386
0,-1,0,1,-8,-4,-1,-1,2021-08-07 13:02:56,573366
-5,-8,-8,-9,-7,-5,-6,-3,2021-08-07 13:02:56,573366
0,2,3,3,0,1,2,1,2021-08-07 13:02:56,573366
-7,-7,-9,-22,-14,-10,-6,-6,2021-08-07 13:02:56,573366
2,-1,-3,-3,-6,-2,1,1,2021-08-07 13:02:56,588389
0,-2,0,-6,4,2,2,-1,2021-08-07 13:02:56,604363
2,2,1,-2,0,-2,1,1,2021-08-07 13:02:56,619389
-1,0,4,14,6,1,0,-1,2021-08-07 13:02:56,619389
-1,1,3,12,6,1,0,0,2021-08-07 13:02:56,635399
1,1,-7,-18,-12,-3,-1,0,2021-08-07 13:02:56,635399
-1,1,2,3,7,3,0,0,2021-08-07 13:02:56,635399
4,9,12,9,7,2,3,3,2021-08-07 13:02:56,635399
-3,-2,-5,3,0,-1,-1,-2,2021-08-07 13:02:56,635399
-2,-3,-7,-7,-19,-12,-5,-2,2021-08-07 13:02:56,635399
-5,-6,-3,-7,-11,-5,-5,-4,2021-08-07 13:02:56,635399
2,0,-2,18,39,25,10,2,2021-08-07 13:02:56,635399
-4,-5,-4,-12,-6,-4,-3,-2,2021-08-07 13:02:56,651361
-3,-6,-5,-6,-9,-7,-4,-3,2021-08-07 13:02:56,667387
2,4,4,3,0,2,3,3,2021-08-07 13:02:56,683359
4,5,9,8,-1,1,1,2,2021-08-07 13:02:56,683359
3,2,5,19,9,7,3,3,2021-08-07 13:02:56,683359
-1,2,1,7,10,4,3,0,2021-08-07 13:02:56,683359
-4,-7,-11,-22,-7,-4,-4,-5,2021-08-07 13:02:56,683359
0,-1,-1,-2,-5,-3,-1,1,2021-08-07 13:02:56,684374
-3,-4,-4,-5,-1,-2,-3,-1,2021-08-07 13:02:56,699363
-7,-7,-7,-15,-26,-16,-10,-8,2021-08-07 13:02:56,699363
5,7,12,11,9,6,4,3,2021-08-07 13:02:56,699363
0,-1,-5,-2,-8,-1,-2,0,2021-08-07 13:02:56,699363
3,3,8,15,31,14,7,4,2021-08-07 13:02:56,715358
-1,-1,3,5,-1,-4,-3,-1,2021-08-07 13:02:56,715358
-2,-3,-9,3,6,1,-2,-2,2021-08-07 13:02:56,715358
-3,-6,-6,-20,-25,-13,-7,-4,2021-08-07 13:02:56,715358
0,1,1,-3,1,1,2,1,2021-08-07 13:02:56,731388
-1,-2,0,3,11,6,1,-1,2021-08-07 13:02:56,747400
0,0,-2,2,-2,-1,-2,1,2021-08-07 13:02:56,763362
1,2,1,7,-7,-6,-2,1,2021-08-07 13:02:56,763362
0,-2,-4,-8,-1,3,1,-2,2021-08-07 13:02:56,763362
1,4,11,-2,-1,-2,0,-1,2021-08-07 13:02:56,763362
-6,-10,-23,-15,-24,-15,-8,-7,2021-08-07 13:02:56,763362
5,10,15,21,23,15,8,6,2021-08-07 13:02:56,763362
-2,-1,-2,4,8,1,-1,-1,2021-08-07 13:02:56,764363
5,2,3,-2,1,2,2,2,2021-08-07 13:02:56,764363
-1,-3,1,-3,-1,3,1,-1,2021-08-07 13:02:56,778358
-9,-14,-15,-26,-32,-22,-11,-9,2021-08-07 13:02:56,794389
2,4,3,4,1,2,0,2,2021-08-07 13:02:56,794389
5,8,9,14,16,12,7,5,2021-08-07 13:02:56,794389
-2,2,2,13,1,-2,-1,0,2021-08-07 13:02:56,794389
-6,-9,-16,-10,-6,-2,-2,-4,2021-08-07 13:02:56,794389
0,0,1,-18,-7,-1,-1,-1,2021-08-07 13:02:56,826358
-4,-3,-9,-5,-7,-8,-5,-5,2021-08-07 13:02:56,826358
4,7,9,2,5,7,4,2,2021-08-07 13:02:56,826358
-2,0,-2,1,-5,-5,-3,-1,2021-08-07 13:02:56,826358
-3,-4,-1,9,-2,-3,-3,-3,2021-08-07 13:02:56,826358
1,-1,-3,6,6,4,2,2,2021-08-07 13:02:56,826358
-1,-3,-4,-8,-16,-13,-7,-2,2021-08-07 13:02:56,842396
-1,2,3,8,25,13,5,2,2021-08-07 13:02:56,842396
3,4,2,4,-8,-3,0,3,2021-08-07 13:02:56,856386
2,3,2,2,2,4,2,3,2021-08-07 13:02:56,856386
-5,-9,-12,-32,-16,-6,-6,-5,2021-08-07 13:02:56,857360
-1,-1,2,1,-1,-5,-4,-2,2021-08-07 13:02:56,857360
-3,-4,-3,-1,-4,-2,-2,-3,2021-08-07 13:02:56,873360
0,1,2,14,9,3,4,-2,2021-08-07 13:02:56,889361
1,1,1,6,2,-2,-1,3,2021-08-07 13:02:56,905361
-1,1,-2,-9,-2,1,0,-2,2021-08-07 13:02:56,905361
-1,-2,-1,-4,-9,-8,-5,-2,2021-08-07 13:02:56,905361
-5,-7,-10,-8,-9,-7,-5,-5,2021-08-07 13:02:56,905361
1,-1,-1,-3,6,4,2,0,2021-08-07 13:02:56,905361
-1,-1,-1,-3,-7,-7,-1,-1,2021-08-07 13:02:56,906362
2,2,4,17,16,12,5,2,2021-08-07 13:02:56,906362
-2,-3,-4,-6,-3,-2,-1,-1,2021-08-07 13:02:56,906362
-4,-3,-1,-4,-16,-11,-7,-5,2021-08-07 13:02:56,921358
6,7,9,27,39,21,9,6,2021-08-07 13:02:56,937362
-1,1,1,0,-1,-4,0,0,2021-08-07 13:02:56,937362
-1,-1,-1,8,8,0,-1,-1,2021-08-07 13:02:56,937362
1,4,7,1,-2,2,4,3,2021-08-07 13:02:56,937362
0,-4,-5,-32,-25,-12,-7,-3,2021-08-07 13:02:56,937362
-4,-6,-9,-22,-26,-9,-4,-4,2021-08-07 13:02:56,985396
-3,-9,-10,-9,17,7,1,-1,2021-08-07 13:02:56,985396
1,1,5,14,6,1,-1,0,2021-08-07 13:02:56,985396
2,6,12,15,6,4,3,3,2021-08-07 13:02:56,985396
-1,-2,-1,-2,-6,-7,-4,-1,2021-08-07 13:02:56,985396
2,2,-3,13,7,5,3,3,2021-08-07 13:02:56,985396
2,1,1,12,16,11,5,2,2021-08-07 13:02:56,985396
0,0,-3,-6,0,1,1,0,2021-08-07 13:02:56,985396
-7,-7,-8,-20,-19,-12,-8,-6,2021-08-07 13:02:57,001398
-7,-6,-7,-35,-41,-21,-10,-5,2021-08-07 13:02:57,001398
1,-1,3,15,21,9,4,2,2021-08-07 13:02:57,001398
2,2,2,14,16,7,3,1,2021-08-07 13:02:57,001398
0,1,1,10,5,-1,-1,-1,2021-08-07 13:02:57,017359
6,9,10,20,22,14,8,6,2021-08-07 13:02:57,017359
4,5,2,-13,-7,-1,0,2,2021-08-07 13:02:57,017359
-4,-6,-6,-14,-18,-10,-6,-4,2021-08-07 13:02:57,017359
0,-1,-2,3,4,0,1,-1,2021-08-07 13:02:57,033396
-3,-6,-4,6,1,-3,-2,-3,2021-08-07 13:02:57,033396
-3,-3,-2,-9,-11,-6,-4,-4,2021-08-07 13:02:57,033396
-1,-1,-2,-11,-7,0,1,0,2021-08-07 13:02:57,033396
-3,-4,-7,-12,-6,-6,-4,-3,2021-08-07 13:02:57,081361
2,3,7,6,0,1,-2,1,2021-08-07 13:02:57,081361
-2,-2,-3,-4,-4,-2,0,-1,2021-08-07 13:02:57,081361
-4,-5,-3,3,-2,-3,-3,-4,2021-08-07 13:02:57,081361
1,3,3,-2,-6,-3,-1,0,2021-08-07 13:02:57,081361
-1,-1,-3,-1,-3,-4,-3,-2,2021-08-07 13:02:57,081361
3,3,5,21,27,16,7,2,2021-08-07 13:02:57,081361
-1,-2,-3,-7,-8,-5,-3,-4,2021-08-07 13:02:57,082361
1,2,3,-9,-9,0,-1,1,2021-08-07 13:02:57,097398
-4,-7,-7,-5,-6,-5,-4,-5,2021-08-07 13:02:57,113398
-3,-4,-9,-24,-18,-8,-5,-3,2021-08-07 13:02:57,129387
0,-4,-5,3,1,-1,-1,-1,2021-08-07 13:02:57,129387
2,4,10,13,10,3,0,1,2021-08-07 13:02:57,129387
-3,-5,-5,-10,-13,-7,-3,-2,2021-08-07 13:02:57,129387
1,0,-7,11,17,12,5,3,2021-08-07 13:02:57,129387
3,4,8,8,4,3,1,3,2021-08-07 13:02:57,129387
-1,1,-1,-6,-2,-3,-1,-1,2021-08-07 13:02:57,129387
2,6,7,8,7,2,2,1,2021-08-07 13:02:57,129387
-3,-2,-1,2,-5,-6,-2,-3,2021-08-07 13:02:57,145363
-6,-8,-12,-16,-14,-11,-6,-4,2021-08-07 13:02:57,145363
-2,-4,-1,4,11,9,3,-1,2021-08-07 13:02:57,145363
1,3,3,1,-3,-2,0,0,2021-08-07 13:02:57,145363
-3,-6,-10,-19,-25,-13,-7,-4,2021-08-07 13:02:57,177362
1,0,0,-4,8,7,2,1,2021-08-07 13:02:57,177362
-1,0,-1,-3,-4,-6,-1,-1,2021-08-07 13:02:57,177362
-1,-2,2,6,5,3,1,0,2021-08-07 13:02:57,177362
3,8,11,19,21,14,7,3,2021-08-07 13:02:57,177362
-2,1,1,3,-6,-5,-3,-1,2021-08-07 13:02:57,177362
-1,-3,-6,-5,7,5,3,1,2021-08-07 13:02:57,209359
-6,-7,-5,-15,-15,-10,-6,-3,2021-08-07 13:02:57,209359
-1,-1,3,1,-5,-5,-2,1,2021-08-07 13:02:57,209359
3,5,4,14,15,9,6,2,2021-08-07 13:02:57,225398
1,6,5,10,1,-2,-1,1,2021-08-07 13:02:57,241409
-4,-5,-5,-20,-19,-11,-6,-3,2021-08-07 13:02:57,241409
-6,-6,-10,-12,-14,-9,-8,-6,2021-08-07 13:02:57,241409
0,-3,-6,-2,-3,1,0,-1,2021-08-07 13:02:57,241409
3,3,-1,13,27,13,7,4,2021-08-07 13:02:57,241409
1,1,3,4,3,1,2,1,2021-08-07 13:02:57,241409
-3,-6,3,2,-6,-6,-4,-2,2021-08-07 13:02:57,242361
-3,-1,1,9,6,-1,-2,-3,2021-08-07 13:02:57,242361
-4,-4,-4,4,2,3,1,-3,2021-08-07 13:02:57,257398
-1,-1,-3,-16,-8,-5,-4,-3,2021-08-07 13:02:57,257398
5,6,7,1,4,5,3,4,2021-08-07 13:02:57,257398
-2,-2,-5,-18,-17,-8,-4,-1,2021-08-07 13:02:57,257398
-2,-5,-4,-1,-7,-5,-4,-4,2021-08-07 13:02:57,273358
0,1,-2,9,9,4,2,1,2021-08-07 13:02:57,273358
5,7,8,6,-2,-2,1,3,2021-08-07 13:02:57,280360
1,-1,-1,-1,-2,0,0,0,2021-08-07 13:02:57,280360
-1,-1,-1,2,8,4,1,-2,2021-08-07 13:02:57,305388
-8,-12,-19,-42,-34,-16,-10,-5,2021-08-07 13:02:57,321386
-3,-3,-1,-6,7,4,0,-1,2021-08-07 13:02:57,321386
4,6,6,16,6,4,4,2,2021-08-07 13:02:57,321386
-1,0,0,2,-4,-5,-3,-3,2021-08-07 13:02:57,321386
1,1,3,5,1,-2,-2,0,2021-08-07 13:02:57,321386
2,0,0,3,2,1,2,2,2021-08-07 13:02:57,321386
-3,-3,-5,-9,-6,-4,-2,-2,2021-08-07 13:02:57,321386
-4,-6,-4,-15,-13,-7,-4,-4,2021-08-07 13:02:57,337387
5,8,7,11,4,3,1,2,2021-08-07 13:02:57,337387
-3,-3,-6,0,4,1,0,-4,2021-08-07 13:02:57,337387
0,2,2,1,-1,-3,-2,0,2021-08-07 13:02:57,337387
4,6,6,13,14,8,6,2,2021-08-07 13:02:57,352389
2,2,6,6,6,1,0,1,2021-08-07 13:02:57,368386
0,2,4,11,1,0,1,-1,2021-08-07 13:02:57,368386
-3,-5,-8,-14,-10,-4,-4,-3,2021-08-07 13:02:57,368386
-5,-9,-8,-17,-18,-11,-8,-4,2021-08-07 13:02:57,384397
-1,-1,-1,8,13,9,4,0,2021-08-07 13:02:57,400362
-3,-2,-6,-14,-7,-4,-4,-2,2021-08-07 13:02:57,432363
0,1,-1,3,7,5,2,1,2021-08-07 13:02:57,432363
-7,-9,-10,-26,-37,-22,-11,-6,2021-08-07 13:02:57,447399
7,11,15,38,43,26,13,6,2021-08-07 13:02:57,447399
-1,-2,-3,0,-8,-5,-1,-2,2021-08-07 13:02:57,447399
1,1,5,11,7,3,1,2,2021-08-07 13:02:57,447399
1,2,3,6,8,3,1,1,2021-08-07 13:02:57,447399
-6,-7,-13,-22,-25,-12,-6,-6,2021-08-07 13:02:57,447399
-2,-2,1,3,16,11,3,-1,2021-08-07 13:02:57,447399
1,-2,0,7,8,2,1,0,2021-08-07 13:02:57,447399
0,-1,-4,-6,-8,-2,-1,0,2021-08-07 13:02:57,447399
-4,-6,-4,-8,-15,-10,-6,-5,2021-08-07 13:02:57,447399
7,11,10,11,12,8,6,5,2021-08-07 13:02:57,448398
-3,0,2,4,2,-1,-3,-4,2021-08-07 13:02:57,448398
0,-2,-4,1,7,6,1,1,2021-08-07 13:02:57,463362
-4,-6,-8,-19,-18,-13,-7,-3,2021-08-07 13:02:57,463362
-3,-4,-6,-11,-11,-7,-6,-3,2021-08-07 13:02:57,463362
0,2,3,11,21,13,5,1,2021-08-07 13:02:57,463362
-5,-3,-1,6,5,0,-1,-2,2021-08-07 13:02:57,495359
1,2,5,5,10,6,3,2,2021-08-07 13:02:57,511400
-1,-2,-4,-8,-17,-11,-5,-1,2021-08-07 13:02:57,527401
0,-2,-1,-6,-8,-5,-5,-3,2021-08-07 13:02:57,559362
-2,-2,-3,-4,-4,-2,-1,-2,2021-08-07 13:02:57,559362
-2,-3,-3,2,5,1,0,1,2021-08-07 13:02:57,559362
-6,-6,-6,-5,-8,-7,-4,-3,2021-08-07 13:02:57,559362
4,4,4,-1,-13,-2,2,3,2021-08-07 13:02:57,559362
5,6,9,16,39,21,9,3,2021-08-07 13:02:57,559362
1,3,3,6,-3,-4,0,-1,2021-08-07 13:02:57,559362
-2,-7,-10,-20,-11,-5,-2,-2,2021-08-07 13:02:57,559362
-6,-10,-10,-20,-12,-5,-3,-4,2021-08-07 13:02:57,559362
1,3,3,7,1,-2,1,0,2021-08-07 13:02:57,559362
1,2,3,20,9,5,2,2,2021-08-07 13:02:57,560360
-1,-1,0,1,4,2,0,-3,2021-08-07 13:02:57,560360
-1,-1,-2,-8,-14,-8,-5,-3,2021-08-07 13:02:57,560360
-5,-6,-4,-10,-9,-5,-5,-4,2021-08-07 13:02:57,575358
2,5,9,10,17,11,5,2,2021-08-07 13:02:57,575358
1,-1,-10,8,-1,-1,1,1,2021-08-07 13:02:57,575358
-1,0,0,5,5,2,0,-2,2021-08-07 13:02:57,575358
-5,-6,-5,-4,-9,-5,-6,-2,2021-08-07 13:02:57,575358
5,9,10,5,3,4,2,3,2021-08-07 13:02:57,575358
-2,0,2,1,3,2,1,0,2021-08-07 13:02:57,590398
-1,0,-3,-7,-9,-7,-3,-1,2021-08-07 13:02:57,590398
-2,-2,-2,-9,-11,-4,-3,-2,2021-08-07 13:02:57,622399
-4,-7,-10,-5,-19,-11,-5,-3,2021-08-07 13:02:57,622399
5,5,12,12,29,19,10,6,2021-08-07 13:02:57,622399
2,4,3,2,11,7,3,2,2021-08-07 13:02:57,622399
-2,-2,-4,-7,-7,-5,-1,-1,2021-08-07 13:02:57,622399
-1,-1,-1,1,0,-1,-2,-2,2021-08-07 13:02:57,622399
-2,0,0,-2,-10,-6,-4,-3,2021-08-07 13:02:57,623402
-2,-3,1,8,-5,-2,0,-1,2021-08-07 13:02:57,623402
-1,-2,-4,-6,2,-1,-1,-1,2021-08-07 13:02:57,637400
-4,-5,-8,-16,-3,1,-2,-1,2021-08-07 13:02:57,637400
-2,-1,0,-2,-11,-8,-3,-1,2021-08-07 13:02:57,653399
-1,1,3,2,1,0,-1,-1,2021-08-07 13:02:57,669387
2,6,3,12,5,3,2,0,2021-08-07 13:02:57,685387
-1,-1,-2,2,0,-3,-1,-1,2021-08-07 13:02:57,685387
-2,1,2,3,6,0,-3,-1,2021-08-07 13:02:57,685387
-4,-7,-7,-8,-17,-13,-7,-5,2021-08-07 13:02:57,685387
0,3,3,15,17,12,7,3,2021-08-07 13:02:57,685387
-1,-3,-6,-19,-5,-1,0,-1,2021-08-07 13:02:57,685387
2,1,1,-4,-5,-2,2,1,2021-08-07 13:02:57,686363
-3,-2,0,6,3,-1,-2,-1,2021-08-07 13:02:57,686363
1,4,4,8,-3,-3,-1,-1,2021-08-07 13:02:57,701361
1,0,3,8,14,11,6,2,2021-08-07 13:02:57,704361
-5,-7,-6,-15,-21,-11,-6,-5,2021-08-07 13:02:57,717359
-7,-10,-13,-18,-12,-6,-6,-5,2021-08-07 13:02:57,748399
-2,-4,-2,-2,-2,-1,-1,-1,2021-08-07 13:02:57,764362
2,5,12,11,7,3,1,2,2021-08-07 13:02:57,764362
5,3,-5,15,17,9,4,2,2021-08-07 13:02:57,764362
-1,-1,0,5,0,-6,-2,-2,2021-08-07 13:02:57,764362
-4,-5,-7,-15,-20,-12,-6,-3,2021-08-07 13:02:57,764362
2,1,0,-1,-1,-1,0,-1,2021-08-07 13:02:57,764362
-2,1,6,2,1,2,-1,-3,2021-08-07 13:02:57,764362
-1,0,3,0,0,0,-1,-1,2021-08-07 13:02:57,764362
2,0,0,-3,0,1,0,1,2021-08-07 13:02:57,765361
0,-2,-1,6,3,1,0,-1,2021-08-07 13:02:57,765361
0,-4,-8,-18,-16,-8,-3,-2,2021-08-07 13:02:57,780399
-2,-2,-3,-4,4,4,2,-2,2021-08-07 13:02:57,780399
2,7,9,12,7,2,1,3,2021-08-07 13:02:57,780399
0,1,-3,2,3,0,0,1,2021-08-07 13:02:57,780399
-3,-5,-4,3,-1,-3,-3,-3,2021-08-07 13:02:57,780399
-4,-3,-2,-4,-7,-2,-5,-1,2021-08-07 13:02:57,780399
-2,-4,-5,-11,-10,-4,-4,-2,2021-08-07 13:02:57,812398
0,1,2,0,3,2,2,0,2021-08-07 13:02:57,828386
2,4,0,13,20,13,7,4,2021-08-07 13:02:57,844398
-2,-4,-2,-5,-11,-9,-3,-2,2021-08-07 13:02:57,844398
-2,-2,-2,7,4,2,-1,-1,2021-08-07 13:02:57,844398
-3,-3,-6,-11,-2,0,-3,-1,2021-08-07 13:02:57,844398
-1,1,8,-2,-8,-6,-1,-1,2021-08-07 13:02:57,844398
1,2,2,8,8,6,1,1,2021-08-07 13:02:57,844398
-2,-1,-2,-4,-8,-4,-1,-2,2021-08-07 13:02:57,844398
2,2,-1,0,5,5,3,2,2021-08-07 13:02:57,844398
-5,-7,-9,-10,-12,-8,-6,-4,2021-08-07 13:02:57,845362
2,4,2,3,11,7,4,3,2021-08-07 13:02:57,845362
-1,1,2,2,-5,-5,-2,-2,2021-08-07 13:02:57,876358
-4,-4,-7,-10,-8,-5,-4,-4,2021-08-07 13:02:57,876358
1,0,4,4,-1,0,0,2,2021-08-07 13:02:57,876358
1,3,2,6,2,-1,2,2,2021-08-07 13:02:57,876358
-4,-7,-8,-19,-12,-10,-5,-4,2021-08-07 13:02:57,876358
-5,-7,-8,-8,-15,-10,-5,-6,2021-08-07 13:02:57,876358
2,5,4,11,11,8,4,1,2021-08-07 13:02:57,892361
-1,-1,-1,-5,8,3,2,-1,2021-08-07 13:02:57,892361
-2,-2,-3,-1,0,1,-1,0,2021-08-07 13:02:57,907407
5,11,8,3,-4,0,2,4,2021-08-07 13:02:57,923395
2,3,5,11,11,0,0,1,2021-08-07 13:02:57,923395
1,1,0,5,2,4,1,0,2021-08-07 13:02:57,923395
-5,-8,-9,-25,-21,-10,-6,-4,2021-08-07 13:02:57,923395
-6,-10,-5,-19,-16,-11,-7,-6,2021-08-07 13:02:57,923395
5,4,-5,4,21,15,7,7,2021-08-07 13:02:57,923395
4,5,9,18,17,6,4,4,2021-08-07 13:02:57,923395
0,1,0,12,9,3,0,-1,2021-08-07 13:02:57,939362
-1,1,4,11,3,-3,0,0,2021-08-07 13:02:57,939362
-3,-2,-2,-14,-21,-11,-5,-1,2021-08-07 13:02:57,955361
0,-6,-10,-19,10,6,1,0,2021-08-07 13:02:57,970402
2,3,4,4,7,4,4,2,2021-08-07 13:02:57,970402
-1,-1,1,2,-2,-4,-1,-1,2021-08-07 13:02:57,970402
-2,-3,0,4,-3,-3,-3,-4,2021-08-07 13:02:57,970402
0,2,2,10,-1,-1,-1,-1,2021-08-07 13:02:57,970402
5,5,3,3,4,6,3,3,2021-08-07 13:02:57,986361
-3,-7,-7,-12,0,4,-1,-2,2021-08-07 13:02:57,986361
-2,-1,-1,-5,-10,-7,-3,-2,2021-08-07 13:02:57,986361
-1,-1,1,4,-1,-1,-1,-2,2021-08-07 13:02:57,986361
1,-1,1,12,15,7,2,1,2021-08-07 13:02:58,002389
4,4,-1,8,-2,1,2,2,2021-08-07 13:02:58,002389
-6,-8,-6,-29,-23,-14,-9,-5,2021-08-07 13:02:58,002389
-4,-2,-2,-8,-8,-3,-2,-3,2021-08-07 13:02:58,002389
-4,-5,-1,-1,-6,-6,-4,-4,2021-08-07 13:02:58,033362
2,-2,-13,4,11,9,5,1,2021-08-07 13:02:58,049387
0,2,8,13,16,8,3,0,2021-08-07 13:02:58,065387
0,6,6,5,-10,-11,-3,1,2021-08-07 13:02:58,065387
3,2,4,12,18,14,6,3,2021-08-07 13:02:58,065387
-4,-6,-5,-18,-17,-12,-6,-4,2021-08-07 13:02:58,065387
-2,-5,-8,-12,-6,-3,0,-2,2021-08-07 13:02:58,065387
-3,-5,-6,-4,-5,-5,-3,-2,2021-08-07 13:02:58,065387
2,2,1,2,-4,-2,-2,-2,2021-08-07 13:02:58,066361
2,1,5,16,12,4,2,1,2021-08-07 13:02:58,066361
-1,1,0,-2,4,1,0,0,2021-08-07 13:02:58,066361
1,1,3,2,0,2,-1,-1,2021-08-07 13:02:58,066361
-3,-2,-1,-11,-14,-10,-4,-3,2021-08-07 13:02:58,081410
-1,0,0,-9,-5,-3,-1,0,2021-08-07 13:02:58,081410
0,0,3,3,-1,1,0,1,2021-08-07 13:02:58,081410
1,-2,-2,9,11,8,5,2,2021-08-07 13:02:58,081410
-1,-3,-7,-3,-3,-3,-1,-1,2021-08-07 13:02:58,113399
1,1,4,5,-1,0,-2,0,2021-08-07 13:02:58,113399
-3,-5,-10,-9,-13,-10,-5,-3,2021-08-07 13:02:58,113399
-4,-4,-5,-8,-4,1,-2,-1,2021-08-07 13:02:58,113399
-2,0,-2,-4,1,1,-3,-2,2021-08-07 13:02:58,113399
-2,2,6,8,4,2,-2,0,2021-08-07 13:02:58,113399
2,1,3,11,15,8,5,3,2021-08-07 13:02:58,127387
-2,-1,1,-14,-23,-15,-6,-4,2021-08-07 13:02:58,127387
2,3,2,-3,2,3,2,1,2021-08-07 13:02:58,145360
-2,-2,-2,-1,0,-4,-2,-2,2021-08-07 13:02:58,145360
4,2,1,6,7,7,4,3,2021-08-07 13:02:58,145360
-3,-7,-10,-20,-18,-10,-5,-4,2021-08-07 13:02:58,145360
-5,-4,-3,-2,-3,-1,-2,-3,2021-08-07 13:02:58,177398
-2,-2,-3,3,5,2,1,-1,2021-08-07 13:02:58,177398
2,8,8,9,8,5,1,1,2021-08-07 13:02:58,177398
-2,-5,-5,-3,-5,-5,-2,-1,2021-08-07 13:02:58,177398
-2,1,1,-2,-7,-3,-2,0,2021-08-07 13:02:58,177398
0,0,-2,-7,-9,-1,1,1,2021-08-07 13:02:58,177398
-1,3,7,5,1,-3,-1,0,2021-08-07 13:02:58,193398
3,-2,-3,1,8,8,3,2,2021-08-07 13:02:58,193398
-1,-1,-1,9,8,4,1,-1,2021-08-07 13:02:58,209397
-1,1,3,8,3,2,2,2,2021-08-07 13:02:58,209397
0,-2,-1,6,8,4,2,0,2021-08-07 13:02:58,209397
-1,1,0,-15,-11,-7,-6,-2,2021-08-07 13:02:58,209397
-3,-9,-7,-7,-4,-2,-4,-3,2021-08-07 13:02:58,225387
4,7,9,15,7,3,3,3,2021-08-07 13:02:58,225387
-3,-2,-8,-11,-6,-2,-1,-2,2021-08-07 13:02:58,241387
-2,-2,5,4,-2,-5,-1,-3,2021-08-07 13:02:58,241387
0,0,4,4,2,2,1,-1,2021-08-07 13:02:58,241387
2,2,-5,6,15,6,3,-1,2021-08-07 13:02:58,241387
-1,-1,1,5,-3,0,1,0,2021-08-07 13:02:58,241387
-3,-4,-9,-6,-2,1,-1,-2,2021-08-07 13:02:58,241387
-2,-3,0,-21,-20,-13,-7,-2,2021-08-07 13:02:58,272398
0,-2,4,-2,-14,-9,-6,-1,2021-08-07 13:02:58,288390
1,2,-1,15,24,17,6,2,2021-08-07 13:02:58,304409
4,10,11,16,15,8,5,4,2021-08-07 13:02:58,304409
-3,-4,-12,-12,-15,-8,-2,-2,2021-08-07 13:02:58,304409
-5,-7,-7,-20,-11,-8,-3,-4,2021-08-07 13:02:58,304409
-3,-2,0,-7,-9,-6,-3,-2,2021-08-07 13:02:58,304409
-2,-3,-2,4,6,3,0,-2,2021-08-07 13:02:58,304409
-2,-4,-2,2,0,-1,-2,-2,2021-08-07 13:02:58,304409
8,10,10,6,3,4,4,8,2021-08-07 13:02:58,305361
-3,-7,-4,-6,-7,-6,-4,-4,2021-08-07 13:02:58,305361
0,-2,-2,0,0,1,-1,0,2021-08-07 13:02:58,305361
-1,0,-3,-3,-10,-8,-3,-2,2021-08-07 13:02:58,335359
-3,-4,-5,-2,8,7,-1,-4,2021-08-07 13:02:58,351396
3,3,5,5,0,-2,-1,1,2021-08-07 13:02:58,383386
0,3,2,5,4,2,1,2,2021-08-07 13:02:58,383386
1,3,2,16,12,4,2,3,2021-08-07 13:02:58,383386
1,-2,-5,-14,-6,0,-1,0,2021-08-07 13:02:58,383386
-3,-5,-6,-17,-8,-2,-3,-3,2021-08-07 13:02:58,383386
-5,-3,-4,5,1,-1,-2,-2,2021-08-07 13:02:58,383386
0,2,4,-4,-10,-6,-3,0,2021-08-07 13:02:58,383386
3,3,4,12,16,15,6,4,2021-08-07 13:02:58,384389
-6,-7,-10,-25,-27,-18,-10,-5,2021-08-07 13:02:58,384389
0,-2,2,8,10,0,1,0,2021-08-07 13:02:58,384389
0,3,7,2,14,10,4,1,2021-08-07 13:02:58,384389
-5,-7,-4,8,1,-4,-4,-4,2021-08-07 13:02:58,384389
2,0,-9,-7,-10,-4,0,0,2021-08-07 13:02:58,384389
-1,-4,-3,-7,1,0,0,-3,2021-08-07 13:02:58,384389
2,3,-2,5,8,3,2,2,2021-08-07 13:02:58,415359
0,1,7,-2,-11,-8,-3,-1,2021-08-07 13:02:58,415359
0,-2,0,10,10,8,5,0,2021-08-07 13:02:58,415359
3,3,2,3,10,5,3,2,2021-08-07 13:02:58,415359
-4,-7,-5,-6,-5,-6,-4,-4,2021-08-07 13:02:58,431361
-2,-3,-4,-2,2,0,-2,0,2021-08-07 13:02:58,447360
-3,-2,2,-3,-17,-12,-6,-4,2021-08-07 13:02:58,463385
-2,-2,-3,-5,-5,-2,-2,-1,2021-08-07 13:02:58,463385
4,4,2,-1,4,6,3,2,2021-08-07 13:02:58,479361
-7,-10,-12,-18,-17,-13,-5,-7,2021-08-07 13:02:58,479361
4,7,9,23,17,8,4,5,2021-08-07 13:02:58,494394
-1,0,-2,-4,-4,0,-1,-1,2021-08-07 13:02:58,510363
-5,-5,-7,-13,-11,-6,-4,-3,2021-08-07 13:02:58,510363
0,5,1,-10,-11,-5,-3,0,2021-08-07 13:02:58,510363
-4,-5,-5,-6,3,2,-2,-4,2021-08-07 13:02:58,510363
1,2,2,5,5,2,2,1,2021-08-07 13:02:58,510363
0,-1,0,1,-10,-6,-2,1,2021-08-07 13:02:58,510363
-1,-5,-4,-1,0,0,-2,0,2021-08-07 13:02:58,510363
-1,-1,0,4,0,-2,-1,1,2021-08-07 13:02:58,511361
-1,3,4,6,9,7,3,0,2021-08-07 13:02:58,511361
1,2,-2,0,6,3,2,1,2021-08-07 13:02:58,511361
-1,-2,-2,-8,-10,-5,-2,-2,2021-08-07 13:02:58,511361
-4,-6,-9,-6,0,-3,-2,-4,2021-08-07 13:02:58,511361
-1,-1,7,3,-4,-3,-4,-2,2021-08-07 13:02:58,511361
4,5,-1,12,11,7,6,4,2021-08-07 13:02:58,526404
1,0,-5,4,7,3,3,1,2021-08-07 13:02:58,526404
-2,-5,-7,-29,-25,-13,-7,-3,2021-08-07 13:02:58,526404
-4,-9,-8,-13,-20,-14,-7,-6,2021-08-07 13:02:58,526404
5,7,13,24,29,18,10,4,2021-08-07 13:02:58,548358
3,5,6,14,7,1,1,1,2021-08-07 13:02:58,548358
-1,-2,-2,15,6,0,1,-1,2021-08-07 13:02:58,548358
-3,-3,-4,-18,-7,-2,-2,-1,2021-08-07 13:02:58,548358
-6,-9,-8,-19,-22,-16,-9,-6,2021-08-07 13:02:58,574358
-4,-1,-4,-3,-2,0,1,-2,2021-08-07 13:02:58,590413
4,5,9,11,14,7,5,3,2021-08-07 13:02:58,606361
-2,-2,-3,3,-11,-9,-4,-3,2021-08-07 13:02:58,606361
2,2,3,9,8,8,4,1,2021-08-07 13:02:58,606361
-3,-5,-2,-6,11,6,-2,-2,2021-08-07 13:02:58,606361
-4,-5,-7,-10,-11,-6,-5,-4,2021-08-07 13:02:58,606361
1,1,-2,-4,-6,-4,-1,0,2021-08-07 13:02:58,606361
-4,-5,-6,-9,-12,-8,-7,-4,2021-08-07 13:02:58,606361
5,7,11,26,23,11,8,4,2021-08-07 13:02:58,607395
6,7,7,15,15,13,7,4,2021-08-07 13:02:58,607395
-3,-5,-10,-16,0,-2,-2,-3,2021-08-07 13:02:58,607395
-2,-4,-3,-7,-12,-9,-7,-2,2021-08-07 13:02:58,622397
-3,-2,-5,-12,-18,-12,-6,-1,2021-08-07 13:02:58,622397
-2,-2,-1,-5,-2,2,-2,-2,2021-08-07 13:02:58,622397
2,2,1,7,5,5,4,2,2021-08-07 13:02:58,622397
-1,0,3,7,4,-1,0,-2,2021-08-07 13:02:58,653394
0,-1,4,2,-6,-2,-1,0,2021-08-07 13:02:58,653394
-4,-4,-6,3,-3,-6,-4,-2,2021-08-07 13:02:58,653394
2,1,0,4,13,12,5,4,2021-08-07 13:02:58,653394
-2,-1,-3,-12,1,2,2,0,2021-08-07 13:02:58,668359
-1,-4,-4,-4,-5,-3,-3,-2,2021-08-07 13:02:58,684398
-2,2,5,-14,-17,-11,-4,-3,2021-08-07 13:02:58,684398
-3,-3,-8,12,17,5,0,-2,2021-08-07 13:02:58,684398
3,4,7,16,12,9,3,4,2021-08-07 13:02:58,684398
1,2,1,2,0,0,-1,0,2021-08-07 13:02:58,684398
2,2,8,18,20,9,4,3,2021-08-07 13:02:58,684398
-3,-5,-10,-19,-22,-9,-5,-2,2021-08-07 13:02:58,684398
-1,-2,-6,-11,-2,-1,-1,-2,2021-08-07 13:02:58,715402
-5,-5,-5,-10,-12,-7,-5,-5,2021-08-07 13:02:58,730398
-1,-3,-1,-1,-6,-5,-3,-4,2021-08-07 13:02:58,746398
1,4,9,14,0,1,0,1,2021-08-07 13:02:58,746398
2,3,3,2,7,1,1,3,2021-08-07 13:02:58,746398
3,2,2,-3,1,4,3,3,2021-08-07 13:02:58,746398
-3,-3,-6,0,6,0,-1,-3,2021-08-07 13:02:58,746398
-1,1,3,1,0,-1,0,-1,2021-08-07 13:02:58,746398
-3,-3,-3,-4,-9,-8,-4,-3,2021-08-07 13:02:58,747400
-3,-1,-3,6,4,0,-1,-4,2021-08-07 13:02:58,747400
2,1,0,0,0,2,3,3,2021-08-07 13:02:58,747400
-6,-8,-6,-13,-13,-10,-6,-5,2021-08-07 13:02:58,747400
3,3,3,4,6,5,3,1,2021-08-07 13:02:58,777381
0,-1,0,-8,-12,-9,-4,-1,2021-08-07 13:02:58,793410
-1,-2,-1,6,11,8,4,1,2021-08-07 13:02:58,809401
1,2,5,19,11,6,1,0,2021-08-07 13:02:58,809401
-3,-3,-2,-13,2,2,-1,-3,2021-08-07 13:02:58,809401
4,3,2,1,-3,-2,1,2,2021-08-07 13:02:58,809401
-1,-2,-1,-3,-6,-1,0,0,2021-08-07 13:02:58,809401
-3,-5,-11,-15,-10,-7,-5,-3,2021-08-07 13:02:58,809401
-3,-3,-2,2,-3,-3,-2,-4,2021-08-07 13:02:58,810400
1,1,3,3,1,1,1,0,2021-08-07 13:02:58,810400
-1,1,-1,-8,-5,-5,-3,0,2021-08-07 13:02:58,810400
1,-1,1,-2,-4,-2,-1,0,2021-08-07 13:02:58,810400
-1,-1,0,2,-1,-2,-1,0,2021-08-07 13:02:58,825402
-3,-6,-4,-5,-10,-6,-3,-2,2021-08-07 13:02:58,825402
1,4,3,4,6,3,1,0,2021-08-07 13:02:58,825402
-1,-1,-1,-2,3,1,-1,-1,2021-08-07 13:02:58,825402
1,1,0,6,4,2,1,0,2021-08-07 13:02:58,856362
-2,-1,0,7,9,5,0,-1,2021-08-07 13:02:58,856362
-3,-3,-3,-16,-17,-11,-5,-4,2021-08-07 13:02:58,856362
2,2,1,3,1,-2,0,2,2021-08-07 13:02:58,856362
-6,-9,-10,-19,-15,-7,-8,-3,2021-08-07 13:02:58,856362
3,5,6,16,25,14,6,3,2021-08-07 13:02:58,856362
0,2,1,-4,-2,-3,-2,0,2021-08-07 13:02:58,888402
-1,-1,0,2,-3,-3,1,-1,2021-08-07 13:02:58,904397
-2,-3,-1,0,-9,-7,-3,-1,2021-08-07 13:02:58,920398
-2,0,-7,-5,1,2,-1,-1,2021-08-07 13:02:58,920398
-6,-10,-10,-6,-9,-6,-6,-4,2021-08-07 13:02:58,920398
2,4,7,6,0,-1,2,1,2021-08-07 13:02:58,920398
5,6,6,15,26,18,10,7,2021-08-07 13:02:58,920398
-2,-4,-4,-16,-5,-3,-3,-1,2021-08-07 13:02:58,920398
-2,-2,-2,10,12,6,2,0,2021-08-07 13:02:58,920398
-1,1,0,3,-3,-3,-3,-1,2021-08-07 13:02:58,921400
-1,-3,-2,-5,-18,-11,-6,-2,2021-08-07 13:02:58,921400
4,6,2,1,9,8,7,4,2021-08-07 13:02:58,921400
-2,-4,-2,-1,4,-1,-2,-1,2021-08-07 13:02:58,951361
1,3,6,9,13,7,4,1,2021-08-07 13:02:58,951361
-1,0,-1,4,-3,1,0,-1,2021-08-07 13:02:58,951361
1,2,0,-3,9,4,2,2,2021-08-07 13:02:58,951361
