EMG 1,EMG 2,EMG 3,EMG 4,EMG 5,EMG 6,EMG 7,EMG 8,Timestamp,Milliseconds
3,2,3,0,-8,-6,-1,2,2021-08-07 13:02:17,524601
-3,-3,-5,-5,-10,-7,-4,-2,2021-08-07 13:02:17,524601
0,1,2,8,19,11,4,1,2021-08-07 13:02:17,524601
-2,-1,-2,-6,-16,-10,-5,-5,2021-08-07 13:02:17,524601
2,1,3,7,18,12,5,3,2021-08-07 13:02:17,524601
1,0,-3,-9,-9,-5,0,-2,2021-08-07 13:02:17,524601
-4,-5,-4,-11,-9,-7,-5,-4,2021-08-07 13:02:17,524601
-1,-2,-3,-2,-6,-3,-1,-1,2021-08-07 13:02:17,524601
-1,0,1,3,-3,-2,-1,-2,2021-08-07 13:02:17,525606
-3,-2,1,-2,-14,-12,-8,-2,2021-08-07 13:02:17,525606
-2,0,0,7,16,14,6,1,2021-08-07 13:02:17,556604
0,-1,0,-2,18,9,2,2,2021-08-07 13:02:17,556604
0,1,-1,3,2,1,2,0,2021-08-07 13:02:17,556604
-3,-1,-2,-2,-6,-7,-5,-2,2021-08-07 13:02:17,556604
-2,-4,-2,1,-12,-7,-1,-2,2021-08-07 13:02:17,556604
-2,0,-1,0,-5,-5,-4,-3,2021-08-07 13:02:17,556604
6,6,6,13,23,16,9,5,2021-08-07 13:02:17,556604
4,3,5,3,25,20,9,4,2021-08-07 13:02:17,556604
-4,-4,-4,-18,-34,-25,-13,-6,2021-08-07 13:02:17,587601
-6,-6,-10,-10,-13,-11,-5,-5,2021-08-07 13:02:17,587601
2,1,3,15,28,16,5,1,2021-08-07 13:02:17,587601
1,0,0,0,-8,-5,-1,0,2021-08-07 13:02:17,587601
-2,-2,0,-9,-23,-15,-9,-2,2021-08-07 13:02:17,617603
6,5,10,34,58,38,16,9,2021-08-07 13:02:17,617603
-2,0,-1,-9,-15,-8,-4,-1,2021-08-07 13:02:17,617603
0,0,-1,5,8,6,1,0,2021-08-07 13:02:17,617603
1,3,2,-1,12,9,4,0,2021-08-07 13:02:17,665601
2,0,-1,0,-3,-1,3,0,2021-08-07 13:02:17,665601
0,0,1,-6,6,5,2,1,2021-08-07 13:02:17,665601
-3,-4,-3,-1,-3,-5,-4,-4,2021-08-07 13:02:17,665601
0,2,-1,3,-3,-2,-1,-2,2021-08-07 13:02:17,665601
2,5,5,6,7,3,3,1,2021-08-07 13:02:17,665601
1,1,0,5,3,2,1,0,2021-08-07 13:02:17,665601
-5,-8,-9,-12,-11,-9,-5,-6,2021-08-07 13:02:17,665601
2,3,5,0,-4,-3,-1,1,2021-08-07 13:02:17,666603
4,4,3,8,9,9,3,2,2021-08-07 13:02:17,666603
-2,-1,-1,-5,-17,-13,-4,-3,2021-08-07 13:02:17,666603
0,-3,0,12,35,23,8,1,2021-08-07 13:02:17,666603
-7,-8,-9,-10,-19,-10,-7,-5,2021-08-07 13:02:17,666603
1,3,4,2,5,2,1,3,2021-08-07 13:02:17,666603
-2,0,-1,-8,-10,-7,-2,-1,2021-08-07 13:02:17,680601
-2,0,-2,1,-15,-10,-5,-3,2021-08-07 13:02:17,696601
-6,-6,-8,-14,-10,-7,-5,-4,2021-08-07 13:02:17,696601
3,4,6,16,20,15,7,5,2021-08-07 13:02:17,696601
-4,-3,-5,-7,-13,-11,-7,-4,2021-08-07 13:02:17,712601
2,3,4,4,1,-2,0,0,2021-08-07 13:02:17,728604
4,1,2,2,5,3,3,2,2021-08-07 13:02:17,744601
-3,-2,-1,-10,-17,-13,-5,-2,2021-08-07 13:02:17,760602
-2,-6,-10,-7,-4,-2,-2,-1,2021-08-07 13:02:17,760602
0,2,1,6,16,10,3,3,2021-08-07 13:02:17,760602
-3,-5,-3,13,14,4,-1,-2,2021-08-07 13:02:17,760602
3,5,5,1,4,4,2,1,2021-08-07 13:02:17,760602
2,4,2,-2,5,6,3,2,2021-08-07 13:02:17,760602
-7,-8,-10,-36,-46,-26,-13,-8,2021-08-07 13:02:17,760602
0,0,0,6,15,10,5,2,2021-08-07 13:02:17,761605
-2,-4,-3,3,6,4,2,-2,2021-08-07 13:02:17,761605
3,2,5,16,15,8,3,0,2021-08-07 13:02:17,776602
-1,-2,-1,7,-3,-5,-2,-2,2021-08-07 13:02:17,792603
-3,-3,-5,-18,-13,-10,-5,-5,2021-08-07 13:02:17,808602
-4,-3,-5,-19,-35,-20,-10,-3,2021-08-07 13:02:17,808602
4,5,6,17,37,23,11,6,2021-08-07 13:02:17,808602
3,2,3,10,20,17,9,5,2021-08-07 13:02:17,808602
2,2,0,4,6,4,3,4,2021-08-07 13:02:17,808602
-4,-5,-7,-6,-4,-4,-4,-5,2021-08-07 13:02:17,808602
-5,-5,-3,-14,-23,-13,-8,-6,2021-08-07 13:02:17,808602
-5,-5,-2,-5,-14,-13,-9,-4,2021-08-07 13:02:17,808602
-1,2,4,9,12,11,2,0,2021-08-07 13:02:17,809603
2,1,-1,-8,0,2,0,0,2021-08-07 13:02:17,809603
0,2,2,8,9,2,2,0,2021-08-07 13:02:17,840601
-1,0,-1,1,2,-3,0,1,2021-08-07 13:02:17,856602
1,-1,-1,0,1,0,0,0,2021-08-07 13:02:17,856602
-4,-4,-5,-8,-13,-8,-4,-1,2021-08-07 13:02:17,856602
2,3,6,7,1,1,1,3,2021-08-07 13:02:17,856602
-3,-3,-4,-5,-14,-8,-3,-3,2021-08-07 13:02:17,856602
-1,0,-2,-9,2,2,1,0,2021-08-07 13:02:17,856602
0,-2,0,5,8,4,1,-1,2021-08-07 13:02:17,856602
1,-1,-1,2,5,2,1,-1,2021-08-07 13:02:17,888602
0,0,1,6,2,0,-1,0,2021-08-07 13:02:17,904602
1,-2,1,2,-7,-5,-1,-1,2021-08-07 13:02:17,904602
-3,-2,-2,3,8,5,0,-2,2021-08-07 13:02:17,904602
-2,-1,-2,-5,-5,-4,-4,-3,2021-08-07 13:02:17,904602
1,0,-2,-15,-22,-13,-6,-2,2021-08-07 13:02:17,904602
-1,-1,1,10,12,4,-1,-1,2021-08-07 13:02:17,904602
1,2,1,6,6,3,2,1,2021-08-07 13:02:17,904602
-4,-4,-3,-1,-3,-2,-3,-2,2021-08-07 13:02:17,904602
-2,-3,-4,-9,-11,-9,-4,-2,2021-08-07 13:02:17,905604
-3,-2,-3,-4,-9,-3,-2,-2,2021-08-07 13:02:17,905604
4,3,6,15,20,7,4,3,2021-08-07 13:02:17,905604
0,-3,-2,-11,-9,-5,-3,-2,2021-08-07 13:02:17,952603
1,2,1,5,14,10,5,2,2021-08-07 13:02:17,952603
-4,-5,-3,-12,-27,-20,-9,-4,2021-08-07 13:02:17,952603
-7,-8,-9,-17,-26,-17,-10,-7,2021-08-07 13:02:17,952603
6,7,7,18,34,25,13,9,2021-08-07 13:02:17,952603
0,0,1,-1,5,3,1,0,2021-08-07 13:02:17,952603
2,1,0,5,7,3,2,1,2021-08-07 13:02:17,952603
-5,-3,-4,-7,-14,-11,-2,-3,2021-08-07 13:02:17,952603
-1,-1,-3,-4,1,-2,-2,0,2021-08-07 13:02:17,969601
-2,-4,-3,-8,-10,-2,-4,-1,2021-08-07 13:02:17,970601
4,6,8,7,9,10,7,5,2021-08-07 13:02:17,970601
-1,-2,-4,-1,2,-3,-2,-2,2021-08-07 13:02:17,970601
2,1,0,6,2,2,2,-2,2021-08-07 13:02:17,999603
-2,-2,-4,-5,-8,-6,-4,-4,2021-08-07 13:02:17,999603
0,1,-1,2,4,5,0,-1,2021-08-07 13:02:17,999603
0,-1,-3,-9,-10,-5,-4,1,2021-08-07 13:02:17,999603
-1,-1,0,-3,-7,-4,-1,0,2021-08-07 13:02:18,015601
1,1,3,12,17,9,2,1,2021-08-07 13:02:18,031601
-6,-7,-9,-14,-33,-25,-12,-5,2021-08-07 13:02:18,062603
0,-1,-1,-6,-4,1,0,0,2021-08-07 13:02:18,062603
-3,-3,-1,4,2,-2,-3,-2,2021-08-07 13:02:18,062603
1,3,1,2,13,11,7,3,2021-08-07 13:02:18,062603
-1,0,0,-1,1,2,3,1,2021-08-07 13:02:18,062603
0,2,2,8,10,5,3,1,2021-08-07 13:02:18,062603
-5,-8,-5,-12,-19,-12,-11,-9,2021-08-07 13:02:18,062603
2,3,3,1,6,3,3,2,2021-08-07 13:02:18,062603
-1,-2,-1,7,6,2,0,-1,2021-08-07 13:02:18,062603
1,3,2,3,2,-1,0,1,2021-08-07 13:02:18,062603
-5,-5,-8,-18,-34,-21,-11,-6,2021-08-07 13:02:18,078602
2,2,3,14,21,16,7,3,2021-08-07 13:02:18,078602
1,0,-1,-11,-7,-1,0,-1,2021-08-07 13:02:18,079054
0,-2,1,-2,-1,0,0,0,2021-08-07 13:02:18,079054
-2,-4,-5,3,10,5,-2,-3,2021-08-07 13:02:18,094615
1,1,1,-4,-8,-5,-1,-2,2021-08-07 13:02:18,110616
5,5,7,11,15,7,2,2,2021-08-07 13:02:18,125615
-2,-1,-1,3,3,3,3,0,2021-08-07 13:02:18,125615
-2,-3,-1,0,-7,-6,-2,-2,2021-08-07 13:02:18,125615
-5,-8,-12,-16,-34,-21,-11,-5,2021-08-07 13:02:18,125615
4,6,4,2,29,24,12,6,2021-08-07 13:02:18,125615
-2,0,0,-4,-8,-6,-3,-2,2021-08-07 13:02:18,125615
1,2,1,5,17,10,4,3,2021-08-07 13:02:18,141616
-5,-4,-5,-3,-10,-9,-5,-6,2021-08-07 13:02:18,157614
-6,-7,-4,-8,-23,-14,-10,-6,2021-08-07 13:02:18,173614
7,9,8,14,23,15,7,3,2021-08-07 13:02:18,189615
-2,0,-2,-4,-6,-3,-1,-1,2021-08-07 13:02:18,205615
-1,-5,-3,2,1,1,-2,-4,2021-08-07 13:02:18,205615
0,0,-3,-8,-13,-10,-4,0,2021-08-07 13:02:18,205615
-4,-5,-6,-6,-2,-1,-1,-2,2021-08-07 13:02:18,205615
3,5,5,3,2,4,2,3,2021-08-07 13:02:18,221615
-4,-5,-4,-5,-3,-4,-4,-3,2021-08-07 13:02:18,221615
5,7,4,1,-12,-7,1,3,2021-08-07 13:02:18,221615
1,-1,2,16,38,20,6,0,2021-08-07 13:02:18,221615
0,0,-2,-5,0,2,1,1,2021-08-07 13:02:18,221615
-3,-5,-4,-1,4,1,0,-2,2021-08-07 13:02:18,221615
2,3,3,7,3,0,2,3,2021-08-07 13:02:18,221615
-1,-3,-3,-12,-26,-15,-7,-3,2021-08-07 13:02:18,221615
-6,-10,-12,-24,-11,-6,-5,-7,2021-08-07 13:02:18,221615
3,4,2,-1,-1,2,0,1,2021-08-07 13:02:18,221615
2,4,7,15,22,10,4,1,2021-08-07 13:02:18,221615
-4,-6,-8,-3,-15,-11,-5,-3,2021-08-07 13:02:18,222617
-1,0,1,8,3,-1,0,3,2021-08-07 13:02:18,237615
-2,1,0,-4,-17,-11,-5,-2,2021-08-07 13:02:18,237615
-1,0,-1,-3,4,7,3,2,2021-08-07 13:02:18,237615
3,3,4,13,25,15,5,2,2021-08-07 13:02:18,237615
-7,-10,-8,-10,-16,-12,-7,-5,2021-08-07 13:02:18,269614
1,2,3,-1,6,4,1,1,2021-08-07 13:02:18,269614
-4,-6,-8,-7,-19,-15,-9,-5,2021-08-07 13:02:18,269614
-5,-7,-5,-15,-24,-16,-8,-5,2021-08-07 13:02:18,269614
8,9,11,34,69,49,20,8,2021-08-07 13:02:18,269614
2,4,5,10,11,5,4,5,2021-08-07 13:02:18,269614
-2,-7,-7,-10,-12,-7,-6,-4,2021-08-07 13:02:18,285615
-3,-5,-4,-9,-16,-11,-6,-4,2021-08-07 13:02:18,301616
2,4,4,0,-10,-11,-5,0,2021-08-07 13:02:18,301853
-1,-4,-4,2,-2,1,0,-1,2021-08-07 13:02:18,301853
-4,-5,-6,-7,7,4,-1,-3,2021-08-07 13:02:18,301853
-1,-1,0,-8,-13,-7,-2,0,2021-08-07 13:02:18,301853
-1,-2,-1,0,-3,-1,-1,-2,2021-08-07 13:02:18,317122
0,3,6,9,12,6,4,1,2021-08-07 13:02:18,321122
-3,-6,-5,-4,-11,-8,-5,-5,2021-08-07 13:02:18,322123
-2,0,0,0,-4,-4,-1,-3,2021-08-07 13:02:18,322123
-1,1,-1,-18,-28,-11,-5,-2,2021-08-07 13:02:18,333122
1,1,0,11,34,17,6,3,2021-08-07 13:02:18,333122
-1,0,2,11,21,11,5,0,2021-08-07 13:02:18,333122
-3,-1,-3,-2,-3,-6,-4,-3,2021-08-07 13:02:18,333122
-2,-2,-2,-4,-29,-20,-8,-3,2021-08-07 13:02:18,365122
-1,0,0,-8,-8,-6,-4,-4,2021-08-07 13:02:18,381124
2,3,1,2,10,10,5,3,2021-08-07 13:02:18,397125
0,-2,-3,0,6,5,1,0,2021-08-07 13:02:18,413124
-3,-4,-3,-3,-18,-14,-5,-3,2021-08-07 13:02:18,413124
0,-1,0,-5,2,3,1,1,2021-08-07 13:02:18,413124
2,5,3,4,6,6,4,2,2021-08-07 13:02:18,413124
-2,-3,-3,-9,-20,-13,-7,-3,2021-08-07 13:02:18,413124
1,-1,1,10,27,20,8,2,2021-08-07 13:02:18,413124
-1,-1,1,2,-1,-2,-1,-1,2021-08-07 13:02:18,413124
0,-1,-1,-4,-31,-20,-6,-1,2021-08-07 13:02:18,413124
4,5,5,17,53,34,16,5,2021-08-07 13:02:18,413124
-3,-4,-5,-13,-21,-16,-9,-5,2021-08-07 13:02:18,414124
-3,-4,-5,-6,-10,-6,-3,-2,2021-08-07 13:02:18,414124
4,7,7,12,19,13,6,4,2021-08-07 13:02:18,414124
0,1,0,-6,-22,-13,-5,0,2021-08-07 13:02:18,414124
-2,-1,-1,3,9,5,0,-2,2021-08-07 13:02:18,445125
-1,-2,-2,-2,-3,-4,-1,0,2021-08-07 13:02:18,461146
-6,-10,-8,-14,-22,-19,-13,-5,2021-08-07 13:02:18,461146
3,3,2,-2,-8,1,4,3,2021-08-07 13:02:18,461146
2,1,3,13,31,12,4,3,2021-08-07 13:02:18,461146
-2,-2,-2,-11,-24,-12,-6,-3,2021-08-07 13:02:18,461146
-3,-3,0,15,32,19,6,-1,2021-08-07 13:02:18,461146
5,4,6,4,3,5,5,4,2021-08-07 13:02:18,461146
-1,3,3,-1,-9,-8,0,1,2021-08-07 13:02:18,477146
-1,-3,-2,2,1,-1,-1,-2,2021-08-07 13:02:18,493148
-1,-2,-2,-14,-28,-21,-9,-6,2021-08-07 13:02:18,509148
-5,-4,-7,-11,-10,-5,-5,-4,2021-08-07 13:02:18,525146
0,-3,-2,3,10,6,3,0,2021-08-07 13:02:18,541147
3,5,4,10,17,10,5,4,2021-08-07 13:02:18,541147
-2,-2,-2,-3,-2,-5,-1,-3,2021-08-07 13:02:18,541147
-3,-3,-4,-3,-12,-10,-4,-3,2021-08-07 13:02:18,541147
-4,-5,-2,-18,-28,-15,-9,-4,2021-08-07 13:02:18,541147
0,0,1,7,20,13,4,2,2021-08-07 13:02:18,541147
2,2,1,-5,-6,-4,-1,-1,2021-08-07 13:02:18,541147
1,-3,-4,-7,1,-1,-1,-2,2021-08-07 13:02:18,541147
3,2,1,8,19,11,5,1,2021-08-07 13:02:18,541147
-3,-6,-5,-9,-22,-15,-9,-4,2021-08-07 13:02:18,541147
3,3,4,15,23,19,8,3,2021-08-07 13:02:18,542148
2,2,3,9,17,6,2,1,2021-08-07 13:02:18,542148
-2,-2,-5,-7,-12,-9,-4,-3,2021-08-07 13:02:18,557146
-1,-3,0,-8,-21,-14,-8,-4,2021-08-07 13:02:18,557146
-1,0,-1,2,18,8,0,1,2021-08-07 13:02:18,557146
0,0,3,8,7,5,2,1,2021-08-07 13:02:18,557146
-2,-1,-1,7,15,4,1,-1,2021-08-07 13:02:18,573146
0,2,0,-6,-11,-7,-2,-2,2021-08-07 13:02:18,573146
0,0,0,0,-4,-2,1,1,2021-08-07 13:02:18,573146
-2,-2,-1,-4,-5,-5,-3,-2,2021-08-07 13:02:18,573146
-3,-5,-4,-1,0,3,-1,-3,2021-08-07 13:02:18,604146
3,4,5,12,12,7,5,1,2021-08-07 13:02:18,604146
0,1,0,1,-1,-1,0,-1,2021-08-07 13:02:18,604146
-3,-5,-5,-15,-15,-8,-5,-3,2021-08-07 13:02:18,604146
-9,-10,-13,-33,-53,-36,-19,-8,2021-08-07 13:02:18,620145
6,5,6,13,30,30,14,7,2021-08-07 13:02:18,636146
0,-1,1,4,9,0,2,2,2021-08-07 13:02:18,636146
0,2,2,8,11,5,0,1,2021-08-07 13:02:18,636146
-4,-3,-2,-3,-15,-12,-6,-3,2021-08-07 13:02:18,636146
-4,-4,-6,-18,-19,-11,-7,-4,2021-08-07 13:02:18,636146
3,4,4,10,3,3,2,4,2021-08-07 13:02:18,636146
-2,-3,-2,5,10,3,1,-2,2021-08-07 13:02:18,636146
1,3,2,3,5,7,3,2,2021-08-07 13:02:18,667404
0,1,0,-6,-2,-3,-1,0,2021-08-07 13:02:18,679653
1,1,0,-11,-10,-5,-1,0,2021-08-07 13:02:18,680657
-5,-5,-6,-7,-12,-9,-7,-5,2021-08-07 13:02:18,680657
3,4,5,8,7,8,3,3,2021-08-07 13:02:18,680657
2,2,3,9,15,9,5,2,2021-08-07 13:02:18,680657
-4,-6,-7,-14,-24,-15,-9,-4,2021-08-07 13:02:18,680657
4,4,5,16,24,16,8,5,2021-08-07 13:02:18,680657
6,7,4,4,22,13,9,5,2021-08-07 13:02:18,698654
-3,-3,-5,-6,-12,-10,-6,-1,2021-08-07 13:02:18,714653
-4,-7,-8,-21,-29,-21,-10,-5,2021-08-07 13:02:18,714653
3,3,4,6,4,6,4,3,2021-08-07 13:02:18,714653
0,2,1,20,38,24,10,2,2021-08-07 13:02:18,730655
1,2,3,8,10,1,1,0,2021-08-07 13:02:18,730655
-7,-8,-4,-3,-4,-5,-3,-6,2021-08-07 13:02:18,730655
-3,0,2,-7,-27,-18,-10,-3,2021-08-07 13:02:18,730655
1,2,3,9,20,10,3,0,2021-08-07 13:02:18,730655
2,4,4,8,17,8,5,3,2021-08-07 13:02:18,730655
-3,-4,-8,-7,-9,-6,-5,-2,2021-08-07 13:02:18,746653
-1,-3,-3,-13,-10,-4,-2,-2,2021-08-07 13:02:18,746653
-1,-3,-3,-13,-28,-18,-9,-2,2021-08-07 13:02:18,762655
-2,-3,-4,-4,-2,1,-2,-2,2021-08-07 13:02:18,777654
1,3,3,7,9,6,4,1,2021-08-07 13:02:18,777654
-1,-1,-1,11,21,13,5,2,2021-08-07 13:02:18,777654
-4,-6,-5,-14,-33,-21,-11,-6,2021-08-07 13:02:18,793654
-1,-1,-1,2,-4,1,1,0,2021-08-07 13:02:18,809654
4,6,7,11,34,20,11,2,2021-08-07 13:02:18,825654
-2,-2,-3,-7,-5,-7,-3,-2,2021-08-07 13:02:18,825654
-4,-7,-7,-9,-14,-8,-6,-5,2021-08-07 13:02:18,825654
-3,-3,-5,-12,-18,-14,-7,-4,2021-08-07 13:02:18,825654
2,4,5,8,4,3,0,1,2021-08-07 13:02:18,825654
-2,0,0,9,-2,-1,-2,1,2021-08-07 13:02:18,825654
3,5,2,1,11,8,5,3,2021-08-07 13:02:18,825654
-1,-3,-5,-10,2,3,0,-1,2021-08-07 13:02:18,825654
-4,-4,-5,-5,-3,0,-3,-1,2021-08-07 13:02:18,826656
0,2,3,-5,-8,-8,-5,-2,2021-08-07 13:02:18,826656
0,0,0,5,-7,-4,-1,-2,2021-08-07 13:02:18,841655
-2,0,-2,-4,-8,-6,-1,1,2021-08-07 13:02:18,841655
1,-2,3,-1,1,4,2,1,2021-08-07 13:02:18,841655
-1,-2,-1,2,12,6,2,-2,2021-08-07 13:02:18,841655
-1,-3,-10,-6,-17,-14,-6,-3,2021-08-07 13:02:18,872655
4,6,6,16,17,15,10,3,2021-08-07 13:02:18,872655
-5,-3,-6,-11,-21,-18,-9,-5,2021-08-07 13:02:18,872655
2,1,3,8,15,13,5,1,2021-08-07 13:02:18,872655
-1,0,6,7,16,12,5,1,2021-08-07 13:02:18,872655
-9,-13,-15,-23,-38,-28,-15,-8,2021-08-07 13:02:18,872655
11,14,16,16,26,18,12,9,2021-08-07 13:02:18,888654
2,2,1,8,7,7,3,1,2021-08-07 13:02:18,888654
-1,-2,-5,-15,-9,-7,-5,-2,2021-08-07 13:02:18,904654
-2,-3,-1,1,-7,-6,-3,-2,2021-08-07 13:02:18,920653
-3,-3,-3,4,5,3,0,-2,2021-08-07 13:02:18,935655
-3,-2,-4,-1,0,-1,-4,-2,2021-08-07 13:02:18,935655
0,-1,-2,-4,-3,-1,0,1,2021-08-07 13:02:18,935655
-3,-5,-3,-10,-13,-9,-6,-3,2021-08-07 13:02:18,935655
5,3,2,10,22,18,9,5,2021-08-07 13:02:18,935655
-1,-1,-2,-13,-28,-22,-8,-3,2021-08-07 13:02:18,935655
-4,-4,-2,2,8,6,0,-2,2021-08-07 13:02:18,935655
0,1,3,1,-2,0,0,0,2021-08-07 13:02:18,936654
2,3,4,10,16,9,6,3,2021-08-07 13:02:18,936654
-2,-2,-4,-8,-11,-10,-4,-2,2021-08-07 13:02:18,950654
-3,-3,-2,-1,-4,-3,-3,-2,2021-08-07 13:02:18,966655
2,2,1,-6,-10,-6,-1,1,2021-08-07 13:02:18,966655
-4,-4,-4,-4,-8,-7,-4,-3,2021-08-07 13:02:18,966655
-3,-3,-6,-8,-9,-6,-5,-3,2021-08-07 13:02:18,966655
-1,-4,-4,-5,-7,-4,-1,-2,2021-08-07 13:02:18,982654
5,8,12,25,28,15,7,4,2021-08-07 13:02:18,982654
1,1,-2,2,-12,-10,-3,0,2021-08-07 13:02:18,982654
0,-2,-5,-18,6,4,1,1,2021-08-07 13:02:18,982654
-1,-1,-1,4,13,9,4,0,2021-08-07 13:02:18,998653
2,3,3,9,20,12,7,2,2021-08-07 13:02:19,014653
-4,-3,-3,-2,-12,-10,-6,-4,2021-08-07 13:02:19,030655
-2,-2,-2,8,1,-3,-1,-2,2021-08-07 13:02:19,030655
0,-1,0,-10,-12,-7,-4,-2,2021-08-07 13:02:19,030655
-3,-6,-8,-15,-12,-9,-6,-4,2021-08-07 13:02:19,030655
2,4,4,14,20,10,3,1,2021-08-07 13:02:19,030655
1,-1,-2,2,9,7,3,1,2021-08-07 13:02:19,030655
0,-1,0,-13,-19,-13,-4,-3,2021-08-07 13:02:19,043655
1,0,0,3,18,10,4,1,2021-08-07 13:02:19,044654
-3,-5,2,-12,-14,-7,-5,-2,2021-08-07 13:02:19,044654
-1,-2,-8,6,4,2,-1,0,2021-08-07 13:02:19,044654
3,4,5,8,2,-1,1,2,2021-08-07 13:02:19,062655
-2,0,-2,0,-15,-10,-6,-1,2021-08-07 13:02:19,078653
2,1,-3,-10,6,9,5,3,2021-08-07 13:02:19,078653
1,-2,5,11,17,8,3,0,2021-08-07 13:02:19,078653
-1,-1,-1,-1,6,4,2,0,2021-08-07 13:02:19,078653
1,3,1,-5,-6,-6,0,0,2021-08-07 13:02:19,078653
-9,-11,-10,-22,-48,-32,-19,-10,2021-08-07 13:02:19,078653
5,7,8,14,31,21,10,5,2021-08-07 13:02:19,078653
-1,0,0,7,1,-2,1,1,2021-08-07 13:02:19,109656
3,6,6,19,36,22,10,5,2021-08-07 13:02:19,125656
-3,-3,-5,-3,1,0,1,-1,2021-08-07 13:02:19,125656
-3,-4,-5,-12,-15,-10,-5,-3,2021-08-07 13:02:19,125656
-1,0,1,-1,-2,-1,-2,-3,2021-08-07 13:02:19,125656
-3,-3,-1,-7,-12,-7,-6,-4,2021-08-07 13:02:19,125656
0,-4,-6,-10,-12,-4,-1,0,2021-08-07 13:02:19,125656
-2,-2,-1,-7,-11,-9,-5,-2,2021-08-07 13:02:19,125656
-1,-1,1,10,17,12,3,0,2021-08-07 13:02:19,141655
2,-1,-2,-6,-15,-14,-6,-1,2021-08-07 13:02:19,157654
-1,-1,-4,-2,10,9,3,0,2021-08-07 13:02:19,189655
-1,-2,2,11,3,0,-1,-1,2021-08-07 13:02:19,205654
2,4,3,5,9,7,2,3,2021-08-07 13:02:19,205654
2,4,4,-4,-3,2,1,2,2021-08-07 13:02:19,205654
-4,-3,-5,-11,-10,-7,-5,-4,2021-08-07 13:02:19,205654
1,2,2,2,-5,0,0,0,2021-08-07 13:02:19,205654
-1,-1,0,3,5,3,1,1,2021-08-07 13:02:19,205654
-4,-7,-2,-8,-12,-12,-7,-4,2021-08-07 13:02:19,205654
0,-2,-10,-6,-6,-3,0,0,2021-08-07 13:02:19,206655
-2,-1,0,-3,-5,-2,-1,-1,2021-08-07 13:02:19,206655
1,2,2,8,6,3,1,1,2021-08-07 13:02:19,206655
-2,-2,-2,3,8,8,1,-1,2021-08-07 13:02:19,206655
-2,-2,0,-6,-10,-8,-4,-3,2021-08-07 13:02:19,206655
-3,-7,-6,-17,-19,-11,-5,-4,2021-08-07 13:02:19,206655
3,5,4,16,22,9,5,3,2021-08-07 13:02:19,221654
0,-2,-1,3,9,8,3,2,2021-08-07 13:02:19,237653
1,3,6,11,16,10,5,0,2021-08-07 13:02:19,253654
-3,-3,-4,-11,-18,-12,-5,-2,2021-08-07 13:02:19,253654
-2,1,2,-15,-37,-23,-10,-4,2021-08-07 13:02:19,253654
1,2,3,15,17,17,8,4,2021-08-07 13:02:19,253654
0,1,-3,2,23,8,3,-1,2021-08-07 13:02:19,253654
-1,-2,-3,-2,9,4,1,-2,2021-08-07 13:02:19,253654
-2,-2,-2,-2,-2,-2,-1,-2,2021-08-07 13:02:19,269655
-5,-8,-8,-10,-25,-19,-11,-7,2021-08-07 13:02:19,285654
2,1,1,-10,-14,0,2,4,2021-08-07 13:02:19,301653
1,2,1,10,19,12,6,1,2021-08-07 13:02:19,301653
-3,-4,-5,-8,-13,-10,-4,-3,2021-08-07 13:02:19,301653
3,5,3,7,14,9,6,2,2021-08-07 13:02:19,301653
-2,-4,-2,-4,-17,-13,-9,-3,2021-08-07 13:02:19,301653
-2,-2,-6,-15,-11,-6,-4,-3,2021-08-07 13:02:19,301653
2,0,-1,3,10,11,4,3,2021-08-07 13:02:19,301653
-1,1,1,9,15,9,5,-1,2021-08-07 13:02:19,302655
1,3,6,15,15,9,3,0,2021-08-07 13:02:19,302655
-5,-7,-8,-12,-22,-16,-7,-3,2021-08-07 13:02:19,302655
-4,-6,-10,-26,-37,-24,-11,-5,2021-08-07 13:02:19,333655
-2,-3,-3,-7,-4,0,0,0,2021-08-07 13:02:19,349653
3,8,11,24,22,12,6,4,2021-08-07 13:02:19,365654
2,3,1,5,5,2,1,2,2021-08-07 13:02:19,365654
0,-1,-1,-2,8,6,2,1,2021-08-07 13:02:19,365654
-2,-3,-6,-13,-15,-11,-6,-2,2021-08-07 13:02:19,365654
-3,-4,-4,-5,-8,-7,-4,-2,2021-08-07 13:02:19,365654
0,3,4,5,-10,-9,-1,-2,2021-08-07 13:02:19,365654
-2,-2,-1,7,29,21,8,1,2021-08-07 13:02:19,365654
2,2,2,1,3,3,3,2,2021-08-07 13:02:19,365654
3,3,4,10,4,1,2,2,2021-08-07 13:02:19,366655
0,2,3,8,12,10,2,2,2021-08-07 13:02:19,366655
-1,-1,-4,-9,-9,-5,-2,-2,2021-08-07 13:02:19,396653
-2,-3,-5,-15,-22,-10,-4,-2,2021-08-07 13:02:19,398654
-5,-11,-8,-10,3,-3,-7,-5,2021-08-07 13:02:19,398654
0,0,0,-1,-8,-5,-3,-4,2021-08-07 13:02:19,398654
3,1,3,15,14,8,3,1,2021-08-07 13:02:19,398654
-3,-3,-2,-1,-2,-3,-2,-2,2021-08-07 13:02:19,399655
-1,-2,0,0,-3,-1,0,-1,2021-08-07 13:02:19,399655
0,1,3,-3,-3,-2,-3,0,2021-08-07 13:02:19,399655
-2,0,2,7,7,5,2,-1,2021-08-07 13:02:19,427653
2,2,1,0,0,-2,-1,0,2021-08-07 13:02:19,443654
-6,-9,-11,-14,-8,-5,-3,-3,2021-08-07 13:02:19,443654
0,1,4,8,8,2,0,0,2021-08-07 13:02:19,443654
2,3,2,7,23,14,5,4,2021-08-07 13:02:19,443654
-1,-2,-3,-2,-10,-6,-3,-2,2021-08-07 13:02:19,443654
-2,0,-2,-6,-14,-9,-3,-2,2021-08-07 13:02:19,443654
-2,-4,-5,-14,-15,-6,-4,-2,2021-08-07 13:02:19,443654
-3,-2,-3,-4,-9,-12,-7,-2,2021-08-07 13:02:19,474654
0,0,4,11,12,5,2,1,2021-08-07 13:02:19,490654
2,4,3,9,7,6,5,1,2021-08-07 13:02:19,522655
-2,-2,-6,-16,-8,-4,-3,-1,2021-08-07 13:02:19,538654
-3,-4,-5,-21,-30,-17,-7,-4,2021-08-07 13:02:19,538654
1,2,2,11,20,9,3,2,2021-08-07 13:02:19,538654
5,6,8,15,19,13,6,3,2021-08-07 13:02:19,538654
-1,-2,-5,0,-4,-4,-1,-2,2021-08-07 13:02:19,538654
-6,-9,-12,-20,-22,-12,-5,-7,2021-08-07 13:02:19,538654
6,10,10,7,3,0,2,3,2021-08-07 13:02:19,538654
-4,-5,-5,-6,-10,-7,-5,-2,2021-08-07 13:02:19,538654
1,2,6,9,10,5,3,1,2021-08-07 13:02:19,538654
0,-1,-2,1,2,4,0,0,2021-08-07 13:02:19,538654
-3,-1,-1,-6,-4,-1,0,-2,2021-08-07 13:02:19,539656
0,0,0,2,1,-2,0,0,2021-08-07 13:02:19,539656
-1,-2,-5,-13,3,2,-2,0,2021-08-07 13:02:19,539656
-1,-4,-3,-8,-18,-11,-5,-3,2021-08-07 13:02:19,539656
-1,-2,-2,0,-3,-3,-1,-1,2021-08-07 13:02:19,539656
1,1,1,6,6,4,2,2,2021-08-07 13:02:19,539656
-1,-2,1,7,4,1,2,2,2021-08-07 13:02:19,539656
2,2,1,1,5,5,2,5,2021-08-07 13:02:19,570653
-3,-5,-5,-5,5,5,2,0,2021-08-07 13:02:19,570653
-1,-1,-1,-3,-6,-6,-4,-4,2021-08-07 13:02:19,570653
-4,-3,-2,-1,-3,-4,-2,-3,2021-08-07 13:02:19,570653
3,6,9,13,10,4,2,-1,2021-08-07 13:02:19,585655
-4,-3,-1,-4,-6,-4,-4,-3,2021-08-07 13:02:19,601653
0,3,3,-2,-1,-4,-2,0,2021-08-07 13:02:19,617654
1,1,-3,-6,-1,2,2,2,2021-08-07 13:02:19,617654
0,1,0,-7,-1,-1,0,0,2021-08-07 13:02:19,617654
-2,-5,-6,-7,-9,-7,-5,-1,2021-08-07 13:02:19,617654
0,-3,-3,-7,-8,-1,-1,0,2021-08-07 13:02:19,617654
1,3,3,7,2,-3,-1,0,2021-08-07 13:02:19,617654
-2,-4,-3,-6,-17,-12,-4,-2,2021-08-07 13:02:19,617654
3,5,7,23,40,25,12,5,2021-08-07 13:02:19,617654
-1,-2,0,4,10,6,3,1,2021-08-07 13:02:19,617654
-3,-3,-3,-2,-6,-2,-3,-2,2021-08-07 13:02:19,618654
0,1,2,4,-2,-1,-4,2,2021-08-07 13:02:19,648654
0,-1,0,-1,-15,-10,-4,-2,2021-08-07 13:02:19,664655
-4,-8,-11,-17,-18,-14,-6,-6,2021-08-07 13:02:19,679655
2,4,1,-7,-2,-2,0,0,2021-08-07 13:02:19,679655
2,4,8,19,18,14,6,3,2021-08-07 13:02:19,679655
2,4,2,-1,4,2,1,2,2021-08-07 13:02:19,679655
-4,-4,-8,-14,-10,-6,-4,-2,2021-08-07 13:02:19,679655
-4,-6,-4,-1,-7,-6,-6,-6,2021-08-07 13:02:19,679655
0,-1,-1,0,1,0,0,0,2021-08-07 13:02:19,679655
2,4,3,6,3,4,2,2,2021-08-07 13:02:19,679655
-2,-2,0,-4,-5,-5,-2,-1,2021-08-07 13:02:19,680655
-1,-2,-4,-8,-9,-5,-2,-1,2021-08-07 13:02:19,680655
2,5,6,16,23,11,6,4,2021-08-07 13:02:19,711654
-2,0,-2,1,-3,-2,-2,-2,2021-08-07 13:02:19,711654
-2,-2,-3,-6,-11,-10,-6,-2,2021-08-07 13:02:19,711654
-1,-4,-2,-2,0,-1,-2,-4,2021-08-07 13:02:19,711654
0,1,-1,3,4,3,1,-2,2021-08-07 13:02:19,727655
-2,0,-3,-6,-5,-2,-2,-2,2021-08-07 13:02:19,743655
0,1,1,0,2,2,0,0,2021-08-07 13:02:19,743655
1,0,3,7,4,1,-2,2,2021-08-07 13:02:19,743655
-4,-5,-7,-7,-7,-4,-3,-5,2021-08-07 13:02:19,743655
-1,-5,-5,-14,-12,-6,-5,-2,2021-08-07 13:02:19,743655
0,2,5,0,-9,-5,-2,0,2021-08-07 13:02:19,743655
2,3,5,18,26,17,8,2,2021-08-07 13:02:19,743655
2,2,3,3,11,5,3,2,2021-08-07 13:02:19,759655
-3,-6,-6,-11,-8,-6,-2,-2,2021-08-07 13:02:19,759655
-2,-3,-2,-1,3,0,-1,-2,2021-08-07 13:02:19,759655
0,-1,-2,-1,-12,-8,-4,0,2021-08-07 13:02:19,759655
3,5,4,13,16,13,6,4,2021-08-07 13:02:19,791693
-2,-3,-5,-6,3,1,0,-3,2021-08-07 13:02:19,791693
-1,0,0,-2,0,0,-1,-3,2021-08-07 13:02:19,791693
-3,0,-2,-2,-1,-2,0,-2,2021-08-07 13:02:19,791693
-4,-6,-2,-9,-20,-15,-9,-4,2021-08-07 13:02:19,807654
3,2,4,5,9,8,5,3,2021-08-07 13:02:19,807654
1,1,-1,2,13,10,4,3,2021-08-07 13:02:19,807654
-3,-4,-6,-7,-11,-7,-5,-4,2021-08-07 13:02:19,807654
0,0,-2,-2,0,1,1,1,2021-08-07 13:02:19,823654
2,6,6,16,17,9,5,3,2021-08-07 13:02:19,823654
-4,-5,-5,-6,-2,-2,-2,-3,2021-08-07 13:02:19,823654
-5,-3,-1,-8,-8,-5,-4,-2,2021-08-07 13:02:19,823654
1,1,2,-4,-6,-3,0,0,2021-08-07 13:02:19,839655
-4,-8,-6,-4,-15,-12,-7,-6,2021-08-07 13:02:19,854654
7,8,6,14,18,13,7,6,2021-08-07 13:02:19,854654
-2,-2,-5,-3,1,0,1,-2,2021-08-07 13:02:19,854654
-4,-5,-5,-1,-3,-2,-2,-3,2021-08-07 13:02:19,870655
1,2,3,5,2,2,1,1,2021-08-07 13:02:19,870655
-4,-5,-5,-11,-19,-16,-7,-4,2021-08-07 13:02:19,870655
-2,-4,-4,-9,-8,-4,-3,-1,2021-08-07 13:02:19,870655
6,7,8,20,24,14,7,4,2021-08-07 13:02:19,886653
-1,-1,-4,-3,-2,-2,0,0,2021-08-07 13:02:19,886653
-3,-3,-3,-11,-12,-9,-5,-1,2021-08-07 13:02:19,886653
-4,-6,-5,-7,-15,-11,-7,-5,2021-08-07 13:02:19,886653
3,4,3,1,12,11,6,4,2021-08-07 13:02:19,902653
0,-1,-1,1,1,0,1,1,2021-08-07 13:02:19,902653
-3,-2,-2,-1,-8,-6,-3,-3,2021-08-07 13:02:19,902653
2,2,2,-2,2,6,4,2,2021-08-07 13:02:19,902653
-3,-2,-1,3,3,0,-2,-3,2021-08-07 13:02:19,933653
3,6,6,5,2,-1,1,1,2021-08-07 13:02:19,949654
0,-2,0,1,0,0,0,0,2021-08-07 13:02:19,965653
-2,-5,-4,-4,-8,-6,-4,-2,2021-08-07 13:02:19,965653
-3,-3,-2,-8,-9,-8,-4,-2,2021-08-07 13:02:19,965653
-2,-2,-2,-4,-2,2,-1,-1,2021-08-07 13:02:19,965653
-4,-6,-7,-2,-4,-3,-3,-5,2021-08-07 13:02:19,965653
6,8,9,10,10,6,3,5,2021-08-07 13:02:19,965653
0,-1,-1,-5,-4,-1,-1,0,2021-08-07 13:02:19,965653
-3,-2,-3,-1,-5,-5,-2,-2,2021-08-07 13:02:19,965653
0,0,0,2,-1,-2,-2,0,2021-08-07 13:02:19,981653
-4,-3,-6,-7,-10,-9,-5,-5,2021-08-07 13:02:19,997655
-3,-4,-3,0,1,3,0,-1,2021-08-07 13:02:19,997655
1,2,3,8,13,9,3,1,2021-08-07 13:02:19,997655
4,6,6,14,15,11,5,3,2021-08-07 13:02:19,997655
-1,-4,-1,-3,5,3,2,1,2021-08-07 13:02:19,997655
-7,-7,-12,-24,-39,-28,-14,-7,2021-08-07 13:02:19,997655
2,5,3,5,16,14,5,2,2021-08-07 13:02:19,997655
-1,0,0,-2,0,0,1,0,2021-08-07 13:02:20,013655
1,3,4,15,17,8,3,0,2021-08-07 13:02:20,013655
-4,-7,-7,-14,-15,-14,-9,-5,2021-08-07 13:02:20,013655
-1,-2,-3,-1,-3,-1,-1,0,2021-08-07 13:02:20,013655
1,2,2,1,-2,-1,2,0,2021-08-07 13:02:20,029654
0,-1,-1,1,5,4,2,2,2021-08-07 13:02:20,029654
0,1,1,0,-2,-1,-1,-1,2021-08-07 13:02:20,045653
-3,-3,-3,-8,-14,-10,-6,-3,2021-08-07 13:02:20,061656
1,1,3,6,9,7,2,0,2021-08-07 13:02:20,077656
0,0,-3,-5,-6,-5,-1,-2,2021-08-07 13:02:20,077656
-1,-2,-4,0,-3,-5,-2,-2,2021-08-07 13:02:20,093655
5,8,9,0,4,5,4,4,2021-08-07 13:02:20,109654
-4,-4,-4,-6,-4,-2,-1,-3,2021-08-07 13:02:20,114654
-1,0,1,2,2,3,1,0,2021-08-07 13:02:20,114654
-4,-4,-6,-17,-31,-20,-11,-5,2021-08-07 13:02:20,114654
1,0,3,26,42,23,9,2,2021-08-07 13:02:20,114654
-1,-1,-2,-4,-3,-3,-2,-1,2021-08-07 13:02:20,114654
-1,1,1,2,4,2,0,1,2021-08-07 13:02:20,114654
0,2,2,7,10,4,2,0,2021-08-07 13:02:20,114654
-3,-7,-9,-24,-38,-23,-11,-6,2021-08-07 13:02:20,115655
1,1,1,1,6,5,0,1,2021-08-07 13:02:20,115655
0,1,2,8,8,2,2,-1,2021-08-07 13:02:20,115655
0,-3,-4,-2,1,2,-1,0,2021-08-07 13:02:20,124654
-2,-4,-4,-6,-11,-8,-5,-2,2021-08-07 13:02:20,140654
1,0,1,4,3,4,2,2,2021-08-07 13:02:20,140654
-3,-1,-2,-5,-7,-5,-3,-3,2021-08-07 13:02:20,140654
1,4,4,5,12,7,4,1,2021-08-07 13:02:20,140654
0,-1,0,0,-2,-2,-2,-2,2021-08-07 13:02:20,140654
2,-1,0,-5,-7,-4,-2,0,2021-08-07 13:02:20,140654
-3,-5,-2,-3,-1,-4,-4,-1,2021-08-07 13:02:20,140654
4,2,2,2,12,14,9,3,2021-08-07 13:02:20,172654
-4,-3,-1,4,1,-5,-3,-3,2021-08-07 13:02:20,188654
-1,-2,-4,-13,-16,-6,-2,-1,2021-08-07 13:02:20,188654
3,5,5,21,30,18,9,4,2021-08-07 13:02:20,188654
0,2,1,3,3,-1,0,2,2021-08-07 13:02:20,188654
-3,-3,-4,-9,-15,-10,-5,-3,2021-08-07 13:02:20,188654
-5,-6,-6,-10,-19,-12,-8,-4,2021-08-07 13:02:20,188654
0,0,0,-3,5,5,1,0,2021-08-07 13:02:20,188654
1,6,7,9,14,8,5,2,2021-08-07 13:02:20,204656
-1,-2,-4,-6,-9,-6,-2,-1,2021-08-07 13:02:20,220654
-2,0,0,6,3,-2,-1,-2,2021-08-07 13:02:20,236653
0,0,-3,-7,-13,-5,-3,1,2021-08-07 13:02:20,236653
-2,-4,0,-1,2,2,0,-1,2021-08-07 13:02:20,236653
3,3,3,4,3,1,2,3,2021-08-07 13:02:20,236653
0,-2,-1,-1,-1,0,-1,-2,2021-08-07 13:02:20,236653
0,-1,1,-2,-3,-2,0,0,2021-08-07 13:02:20,236653
-3,-1,-3,0,-3,-2,-2,-1,2021-08-07 13:02:20,252654
-4,-6,-7,-11,-16,-11,-6,-3,2021-08-07 13:02:20,268653
-1,-1,2,2,-7,-4,-2,-1,2021-08-07 13:02:20,284653
5,6,8,23,43,27,11,6,2021-08-07 13:02:20,284653
3,5,6,16,18,9,3,3,2021-08-07 13:02:20,284653
-3,-2,-5,-14,-5,-2,-2,-3,2021-08-07 13:02:20,284653
-1,-4,-6,-11,-13,-11,-6,-2,2021-08-07 13:02:20,284653
-3,-4,-5,-11,-15,-8,-5,-4,2021-08-07 13:02:20,284653
2,1,1,1,-3,-1,0,0,2021-08-07 13:02:20,284653
0,0,1,3,1,2,1,0,2021-08-07 13:02:20,284653
-1,-1,-3,0,5,5,3,-1,2021-08-07 13:02:20,285655
-2,-4,-2,-8,-15,-6,-3,-2,2021-08-07 13:02:20,285655
-1,-2,-4,-8,-16,-11,-6,-4,2021-08-07 13:02:20,316653
1,3,3,8,15,11,6,3,2021-08-07 13:02:20,332653
0,1,2,7,12,6,3,0,2021-08-07 13:02:20,332653
3,3,1,2,0,-1,2,2,2021-08-07 13:02:20,332653
-2,-4,-7,-9,-10,-9,-5,-3,2021-08-07 13:02:20,333176
-2,-2,-3,-16,-28,-15,-7,-3,2021-08-07 13:02:20,333176
2,2,4,11,22,15,8,3,2021-08-07 13:02:20,333176
-5,-5,-7,-8,-14,-10,-7,-6,2021-08-07 13:02:20,333176
3,4,8,14,22,16,11,5,2021-08-07 13:02:20,347672
2,4,5,10,11,6,4,1,2021-08-07 13:02:20,347672
-1,-2,-3,-2,0,0,-4,-2,2021-08-07 13:02:20,347672
1,0,1,-6,-11,-7,-2,-2,2021-08-07 13:02:20,347672
-2,-1,-3,-10,-12,-8,-4,-2,2021-08-07 13:02:20,363672
-2,-6,-4,-5,-10,-7,-6,-2,2021-08-07 13:02:20,379672
-3,-4,-4,-7,-18,-10,-5,-3,2021-08-07 13:02:20,395672
0,-1,-3,0,13,7,2,0,2021-08-07 13:02:20,395672
-1,-1,-1,-8,-13,-8,-5,-2,2021-08-07 13:02:20,395672
2,1,2,6,12,13,6,2,2021-08-07 13:02:20,395672
0,0,1,9,14,4,1,1,2021-08-07 13:02:20,395672
0,-2,-2,-5,-8,-5,-4,-2,2021-08-07 13:02:20,395672
-2,-2,-1,-3,0,-2,-3,-1,2021-08-07 13:02:20,395672
-2,-2,-6,-14,-20,-12,-6,-3,2021-08-07 13:02:20,396673
-2,1,3,4,6,3,0,0,2021-08-07 13:02:20,411677
-1,-1,-2,-1,-1,0,1,-2,2021-08-07 13:02:20,411677
-5,-6,-7,-9,-10,-8,-4,-3,2021-08-07 13:02:20,427673
2,1,4,6,8,5,1,1,2021-08-07 13:02:20,427673
2,5,5,-2,-4,-1,2,2,2021-08-07 13:02:20,427673
0,-1,2,6,7,5,1,3,2021-08-07 13:02:20,427673
-1,1,0,1,3,2,-1,0,2021-08-07 13:02:20,459673
-1,-3,-2,-3,-5,-6,-3,-1,2021-08-07 13:02:20,475671
-3,-5,-5,-9,-6,-4,-3,-1,2021-08-07 13:02:20,475671
-1,-2,-2,-3,-3,-3,-1,0,2021-08-07 13:02:20,475671
3,3,0,5,10,8,6,3,2021-08-07 13:02:20,475671
-2,-2,2,8,16,11,5,2,2021-08-07 13:02:20,475671
-2,-1,-1,0,-4,-5,-3,-4,2021-08-07 13:02:20,475671
-4,-2,-3,-8,-14,-10,-5,-5,2021-08-07 13:02:20,475671
-1,-3,-5,-7,-10,-4,-4,-3,2021-08-07 13:02:20,491673
-1,1,2,5,4,1,-1,0,2021-08-07 13:02:20,507672
1,3,0,2,8,3,2,3,2021-08-07 13:02:20,523672
-1,-1,-2,-3,-5,-3,-1,1,2021-08-07 13:02:20,523672
0,-2,-2,-2,-3,-1,0,-1,2021-08-07 13:02:20,523672
-2,1,-4,-13,-18,-15,-7,-3,2021-08-07 13:02:20,523672
-1,-2,-1,2,2,3,0,-1,2021-08-07 13:02:20,523672
1,-1,0,2,2,0,0,-1,2021-08-07 13:02:20,523672
3,3,4,7,10,6,4,2,2021-08-07 13:02:20,523672
-3,-4,-6,-2,-4,-5,-1,-4,2021-08-07 13:02:20,539672
-1,0,-1,-5,-3,0,0,0,2021-08-07 13:02:20,555181
0,0,-1,-3,-6,-4,-1,1,2021-08-07 13:02:20,555181
1,1,1,0,3,4,1,1,2021-08-07 13:02:20,555181
0,1,2,4,6,3,3,1,2021-08-07 13:02:20,555181
-2,-4,-3,-5,-15,-13,-6,-4,2021-08-07 13:02:20,555181
2,3,4,6,11,13,7,3,2021-08-07 13:02:20,555181
-1,-2,-2,-4,-3,-3,-1,-1,2021-08-07 13:02:20,571182
0,2,1,1,1,1,0,-1,2021-08-07 13:02:20,571182
-2,-3,-4,-2,-2,-1,-1,-2,2021-08-07 13:02:20,571182
-3,-4,-5,-7,-12,-10,-5,-4,2021-08-07 13:02:20,571182
1,0,1,1,-2,-2,-1,0,2021-08-07 13:02:20,587181
0,0,-1,-1,1,0,0,1,2021-08-07 13:02:20,603180
-1,-1,-2,-8,-14,-9,-3,-1,2021-08-07 13:02:20,618181
2,1,-1,2,7,4,1,0,2021-08-07 13:02:20,618181
-2,-2,-2,4,5,4,2,0,2021-08-07 13:02:20,618181
0,-3,1,-3,-5,-4,-4,-3,2021-08-07 13:02:20,618181
-3,-2,0,-2,-3,-3,-4,-1,2021-08-07 13:02:20,618181
3,4,1,2,6,6,4,1,2021-08-07 13:02:20,618181
-2,-2,-1,0,-3,-2,-3,-4,2021-08-07 13:02:20,634180
-1,-1,-2,1,0,-1,0,-1,2021-08-07 13:02:20,634180
-1,-1,-2,-2,-1,0,0,-2,2021-08-07 13:02:20,634180
-1,-1,-2,-7,-13,-7,-4,0,2021-08-07 13:02:20,634180
-2,-5,-3,1,0,-2,-1,-2,2021-08-07 13:02:20,650181
1,3,3,6,12,8,4,2,2021-08-07 13:02:20,666181
2,2,1,3,4,3,2,0,2021-08-07 13:02:20,681181
-4,-2,-2,-3,-6,-6,-3,-2,2021-08-07 13:02:20,681181
-1,-1,-2,-5,-5,-2,-3,-1,2021-08-07 13:02:20,681181
-1,-1,-2,-5,-6,-3,-4,0,2021-08-07 13:02:20,681181
-1,-2,-3,-2,-2,-1,-1,-1,2021-08-07 13:02:20,681181
-1,1,1,-1,-2,-1,-3,0,2021-08-07 13:02:20,681181
2,1,4,11,18,11,5,1,2021-08-07 13:02:20,681181
-1,-2,-4,-3,0,0,-3,-2,2021-08-07 13:02:20,682182
-3,-2,-2,-4,-1,-2,-1,0,2021-08-07 13:02:20,682182
-4,-6,-6,-14,-24,-18,-7,-4,2021-08-07 13:02:20,682182
4,6,8,10,22,16,9,4,2021-08-07 13:02:20,729181
0,0,-1,3,9,4,2,0,2021-08-07 13:02:20,729181
2,0,-1,1,4,2,2,1,2021-08-07 13:02:20,729181
1,-1,-1,1,-5,-5,-1,0,2021-08-07 13:02:20,729181
-4,-2,-3,-12,-20,-15,-6,-3,2021-08-07 13:02:20,729181
-1,-3,-1,6,12,8,1,-1,2021-08-07 13:02:20,729181
-1,0,-1,-2,0,-1,-1,-3,2021-08-07 13:02:20,729181
-1,1,1,1,4,2,2,0,2021-08-07 13:02:20,730183
-1,0,-1,-4,-10,-6,-3,-1,2021-08-07 13:02:20,760182
-2,-3,-3,-10,-13,-7,-4,-3,2021-08-07 13:02:20,760182
-2,-3,-1,-1,-1,-3,0,-1,2021-08-07 13:02:20,760182
1,2,2,4,6,4,0,1,2021-08-07 13:02:20,760182
1,0,0,2,10,6,1,0,2021-08-07 13:02:20,760182
-2,-4,-4,-11,-20,-15,-6,-4,2021-08-07 13:02:20,760182
4,7,7,7,12,10,7,4,2021-08-07 13:02:20,776181
-2,-2,-1,1,9,7,1,-2,2021-08-07 13:02:20,776181
-3,-5,-2,2,6,0,-1,-1,2021-08-07 13:02:20,792182
2,5,7,6,0,1,2,2,2021-08-07 13:02:20,808181
0,-1,-1,-4,-9,-6,-5,-2,2021-08-07 13:02:20,808181
-2,-2,-2,-3,-3,-5,0,-3,2021-08-07 13:02:20,808181
-1,-4,-2,-1,-4,-2,-2,-1,2021-08-07 13:02:20,808181
-4,-7,-5,-6,-8,-5,-3,-4,2021-08-07 13:02:20,808181
1,1,0,3,6,4,2,2,2021-08-07 13:02:20,808181
2,1,2,2,0,1,1,1,2021-08-07 13:02:20,808181
-2,-2,-3,-4,-4,-4,-3,-4,2021-08-07 13:02:20,824182
1,1,-2,2,4,3,2,0,2021-08-07 13:02:20,836181
-1,0,0,-3,-4,-5,-2,0,2021-08-07 13:02:20,836181
-2,-1,-3,-1,4,2,1,-2,2021-08-07 13:02:20,836181
-4,-2,-4,-12,-24,-17,-9,-1,2021-08-07 13:02:20,855183
1,0,1,9,16,12,6,2,2021-08-07 13:02:20,871182
1,0,0,1,6,4,2,1,2021-08-07 13:02:20,871182
-1,-2,-2,1,1,-1,-1,-2,2021-08-07 13:02:20,871182
1,2,1,-2,-5,-2,-1,1,2021-08-07 13:02:20,871182
-2,-4,-6,-11,-14,-10,-7,-3,2021-08-07 13:02:20,871182
0,-2,0,4,4,4,0,1,2021-08-07 13:02:20,871182
3,1,2,3,6,5,1,2,2021-08-07 13:02:20,871182
0,2,1,1,4,2,1,-1,2021-08-07 13:02:20,887181
-3,-5,-4,-2,-6,-5,-3,-2,2021-08-07 13:02:20,903181
-1,-2,-3,-4,-6,-4,-2,-1,2021-08-07 13:02:20,903181
-3,-1,1,0,0,1,-1,-2,2021-08-07 13:02:20,903181
2,2,0,2,5,3,3,1,2021-08-07 13:02:20,903181
-3,-2,-1,-2,-3,0,-2,-2,2021-08-07 13:02:20,903181
1,0,2,-2,-2,-1,-2,-1,2021-08-07 13:02:20,903181
-1,-2,0,-4,-6,-3,-2,-1,2021-08-07 13:02:20,903181
-1,1,-1,-6,-3,-4,-2,0,2021-08-07 13:02:20,935182
0,1,1,6,12,6,2,2,2021-08-07 13:02:20,951181
-2,-2,-4,-2,5,3,0,-3,2021-08-07 13:02:20,951181
-2,-3,-5,-6,-17,-12,-8,-4,2021-08-07 13:02:20,951181
5,4,8,4,7,10,6,2,2021-08-07 13:02:20,951181
-1,-1,-1,-5,-4,-1,-2,-1,2021-08-07 13:02:20,951181
2,2,2,14,23,14,5,2,2021-08-07 13:02:20,951181
-1,2,-3,-1,0,0,0,1,2021-08-07 13:02:20,951181
-3,-5,-6,-7,-9,-8,-5,-5,2021-08-07 13:02:20,966180
-1,-3,-2,-5,-6,-5,-4,-1,2021-08-07 13:02:20,981181
-1,0,-2,-5,-10,-7,-3,-2,2021-08-07 13:02:20,997181
-1,-5,-2,-6,-11,-8,-5,-4,2021-08-07 13:02:20,997181
5,5,4,13,25,18,8,6,2021-08-07 13:02:20,997181
1,2,3,4,6,3,3,0,2021-08-07 13:02:20,997181
-2,0,-3,-2,-1,0,0,-1,2021-08-07 13:02:20,997181
-1,0,-1,-2,-4,-3,-2,-2,2021-08-07 13:02:20,997181
-3,-3,-5,-7,-13,-8,-3,-2,2021-08-07 13:02:20,997181
-1,1,1,-1,2,3,1,-1,2021-08-07 13:02:20,998182
-1,-1,-2,0,-4,-3,-3,-2,2021-08-07 13:02:21,013180
0,0,0,5,6,3,1,0,2021-08-07 13:02:21,013180
0,-2,-2,3,6,3,1,1,2021-08-07 13:02:21,029181
-2,-3,-5,-10,-14,-9,-4,-2,2021-08-07 13:02:21,045182
-2,2,1,-6,-10,-5,0,-1,2021-08-07 13:02:21,061181
0,0,-1,0,7,7,1,0,2021-08-07 13:02:21,061181
-1,0,0,3,3,-1,-2,-1,2021-08-07 13:02:21,061181
0,-2,-2,2,0,-3,0,-3,2021-08-07 13:02:21,061181
-1,-3,-3,-1,3,0,-1,-1,2021-08-07 13:02:21,061181
-1,-2,-2,-7,-9,-4,-2,0,2021-08-07 13:02:21,061181
-2,-1,-1,1,-7,-5,-2,0,2021-08-07 13:02:21,061181
-1,0,0,1,4,5,1,0,2021-08-07 13:02:21,062182
-2,-2,-2,-4,-4,-1,-1,-1,2021-08-07 13:02:21,077182
1,2,0,-2,2,1,3,0,2021-08-07 13:02:21,077182
-1,-1,-3,-7,-6,-5,-2,-3,2021-08-07 13:02:21,093181
-3,-4,-3,1,1,0,-2,-2,2021-08-07 13:02:21,109180
1,2,4,1,-2,-4,-2,1,2021-08-07 13:02:21,125181
3,7,6,12,20,13,6,4,2021-08-07 13:02:21,125181
-3,-3,-3,-7,-16,-14,-8,-5,2021-08-07 13:02:21,125181
1,0,2,-7,-7,0,0,-1,2021-08-07 13:02:21,125181
-4,-6,-8,-1,5,-1,-1,-3,2021-08-07 13:02:21,125181
2,-1,-3,10,12,5,2,0,2021-08-07 13:02:21,125181
-1,-1,0,2,4,3,2,0,2021-08-07 13:02:21,125181
-2,0,-4,-4,-7,-7,-3,-2,2021-08-07 13:02:21,125181
-2,-3,0,-3,-6,-5,-3,-3,2021-08-07 13:02:21,125181
1,0,3,-2,-1,-1,-1,0,2021-08-07 13:02:21,125181
0,-3,-3,0,2,1,0,-1,2021-08-07 13:02:21,156182
1,2,3,4,3,1,0,1,2021-08-07 13:02:21,172181
-3,-6,-6,-9,-17,-10,-7,-3,2021-08-07 13:02:21,172181
0,0,2,2,5,1,1,1,2021-08-07 13:02:21,172181
2,3,1,-7,-6,0,1,2,2021-08-07 13:02:21,172181
3,3,4,7,14,8,3,1,2021-08-07 13:02:21,172181
2,-1,0,7,13,4,4,1,2021-08-07 13:02:21,172181
-4,-3,-5,-8,-13,-8,-5,-3,2021-08-07 13:02:21,172181
-3,-6,-4,-4,-7,-4,-4,-3,2021-08-07 13:02:21,188181
2,4,2,5,2,2,1,3,2021-08-07 13:02:21,188181
-2,-3,-2,-5,-3,-2,-2,-3,2021-08-07 13:02:21,188181
0,-1,0,-4,-3,-4,-2,-3,2021-08-07 13:02:21,188181
1,-1,-2,1,0,2,-2,-2,2021-08-07 13:02:21,204185
-2,-4,-5,-3,0,-1,-1,-2,2021-08-07 13:02:21,204185
-1,0,-1,-4,-8,-5,-2,-2,2021-08-07 13:02:21,204185
-1,-2,-2,-2,-4,-1,0,1,2021-08-07 13:02:21,204185
0,2,4,13,10,3,3,-1,2021-08-07 13:02:21,234181
-1,-2,-3,5,11,5,3,0,2021-08-07 13:02:21,250181
-1,2,-1,-3,-8,-4,-1,-2,2021-08-07 13:02:21,266181
-1,-2,-3,-3,-3,-3,-1,0,2021-08-07 13:02:21,266181
-1,-1,-2,-7,-6,-3,0,0,2021-08-07 13:02:21,266181
-2,-4,-1,-6,-9,-6,-4,0,2021-08-07 13:02:21,266181
0,0,-1,1,2,3,-2,0,2021-08-07 13:02:21,266181
-2,-4,-4,-2,0,0,-2,-2,2021-08-07 13:02:21,266181
4,4,4,-1,1,2,2,3,2021-08-07 13:02:21,266181
-1,-1,-2,-5,-2,-4,-3,-3,2021-08-07 13:02:21,266181
-2,-1,0,-1,1,2,1,-1,2021-08-07 13:02:21,266181
0,-3,-2,-5,-3,-4,-3,-2,2021-08-07 13:02:21,267182
-2,-2,-1,-3,0,0,-1,-1,2021-08-07 13:02:21,298181
-1,-1,-3,-1,0,-1,-1,-2,2021-08-07 13:02:21,314181
-1,-1,-3,-2,-5,-4,-4,-1,2021-08-07 13:02:21,330181
2,2,3,5,5,5,1,2,2021-08-07 13:02:21,330181
1,2,2,10,21,9,3,3,2021-08-07 13:02:21,330181
0,0,0,-6,-7,-2,-2,-1,2021-08-07 13:02:21,330181
-2,-3,-5,-1,-2,-2,1,-2,2021-08-07 13:02:21,330181
-1,-1,-3,-7,-10,-6,-4,-4,2021-08-07 13:02:21,330181
4,5,4,5,8,5,3,4,2021-08-07 13:02:21,330181
1,0,-2,-3,-6,-4,-1,-1,2021-08-07 13:02:21,330181
2,2,2,1,2,4,2,2,2021-08-07 13:02:21,330181
-7,-8,-6,-13,-24,-18,-8,-6,2021-08-07 13:02:21,331183
6,8,9,16,32,23,12,5,2021-08-07 13:02:21,346181
0,0,0,4,12,8,4,-2,2021-08-07 13:02:21,362180
-3,-3,-2,1,0,-1,-1,-3,2021-08-07 13:02:21,362180
1,2,5,2,3,1,2,1,2021-08-07 13:02:21,362180
-5,-3,-5,-8,-20,-15,-7,-5,2021-08-07 13:02:21,377182
-1,-2,-1,-5,-7,-4,-1,0,2021-08-07 13:02:21,377182
1,2,1,-3,-3,1,1,2,2021-08-07 13:02:21,377182
0,0,-3,2,3,3,1,1,2021-08-07 13:02:21,377182
-1,-1,-1,-2,-4,-4,-1,-2,2021-08-07 13:02:21,377182
-1,-1,-3,1,0,-1,-1,0,2021-08-07 13:02:21,377182
-1,-4,-4,-3,-3,-3,-3,-3,2021-08-07 13:02:21,393183
-2,0,0,3,6,3,1,0,2021-08-07 13:02:21,393183
-1,-4,-4,-6,-8,-5,-2,-2,2021-08-07 13:02:21,409181
0,1,0,-1,-2,-2,-1,0,2021-08-07 13:02:21,409181
0,2,3,0,3,2,-1,0,2021-08-07 13:02:21,409181
2,2,3,7,6,6,3,2,2021-08-07 13:02:21,409181
-4,-7,-9,-10,-11,-9,-5,-5,2021-08-07 13:02:21,440182
3,6,8,7,3,4,2,3,2021-08-07 13:02:21,440182
0,2,2,4,7,5,1,1,2021-08-07 13:02:21,440182
0,1,1,2,6,2,1,2,2021-08-07 13:02:21,440182
-5,-6,-8,-7,-11,-9,-5,-6,2021-08-07 13:02:21,440182
-3,-4,-5,-7,-9,-5,-4,-3,2021-08-07 13:02:21,440182
-1,-1,-1,1,-2,-2,-1,-1,2021-08-07 13:02:21,440182
0,2,2,2,5,4,2,0,2021-08-07 13:02:21,440182
-3,-4,-3,-11,-25,-16,-7,-4,2021-08-07 13:02:21,486218
0,-1,1,12,27,15,7,0,2021-08-07 13:02:21,486218
-1,1,-1,2,4,2,2,0,2021-08-07 13:02:21,486218
0,-1,-2,-2,-1,-1,-1,-1,2021-08-07 13:02:21,486218
-2,0,-2,1,0,-1,-1,-1,2021-08-07 13:02:21,518183
-1,-3,-3,-7,-15,-10,-6,-2,2021-08-07 13:02:21,518183
-1,-3,-3,-3,-4,-5,-4,-1,2021-08-07 13:02:21,518183
1,-1,-3,1,3,2,-1,-1,2021-08-07 13:02:21,518183
-1,0,-2,-6,-7,-1,-1,0,2021-08-07 13:02:21,518183
1,1,3,4,5,1,2,2,2021-08-07 13:02:21,518183
-1,-1,0,0,1,0,1,-1,2021-08-07 13:02:21,518183
-1,5,4,-1,-1,-3,-1,0,2021-08-07 13:02:21,518183
1,-2,0,5,3,0,-1,0,2021-08-07 13:02:21,533180
-1,1,-1,1,5,2,1,1,2021-08-07 13:02:21,533180
-1,-2,-2,-3,-4,-3,-1,-1,2021-08-07 13:02:21,533180
-4,-4,-5,-5,-5,-6,-3,-2,2021-08-07 13:02:21,533180
0,0,-1,-4,-2,2,0,0,2021-08-07 13:02:21,563181
3,4,2,-1,-1,0,0,2,2021-08-07 13:02:21,563181
-1,0,1,-2,-1,-1,0,0,2021-08-07 13:02:21,563181
0,-2,0,-2,1,3,1,0,2021-08-07 13:02:21,563181
-2,-3,0,4,6,4,-1,-2,2021-08-07 13:02:21,563181
-1,-3,-2,-4,-3,-4,-2,-3,2021-08-07 13:02:21,563181
0,0,-1,0,0,-1,-1,-2,2021-08-07 13:02:21,579182
0,1,-1,-1,-4,-4,0,0,2021-08-07 13:02:21,595182
0,2,2,4,5,1,1,1,2021-08-07 13:02:21,611182
-6,-8,-8,-13,-17,-10,-6,-5,2021-08-07 13:02:21,627183
0,-2,-1,5,8,5,2,2,2021-08-07 13:02:21,627183
0,0,1,0,-3,-1,-1,-2,2021-08-07 13:02:21,627183
5,5,3,7,13,10,4,2,2021-08-07 13:02:21,627183
0,2,1,3,1,0,-1,0,2021-08-07 13:02:21,627183
-2,-3,-3,-10,-12,-7,-4,-3,2021-08-07 13:02:21,627183
-2,-3,-2,-2,1,1,-3,-1,2021-08-07 13:02:21,627183
-1,-1,-1,-3,-3,-5,-3,-2,2021-08-07 13:02:21,628182
-3,-4,-3,2,1,1,0,-3,2021-08-07 13:02:21,628182
-2,-2,0,-4,-5,-4,-3,0,2021-08-07 13:02:21,643182
2,4,2,1,3,2,2,1,2021-08-07 13:02:21,643182
-3,-3,-4,-2,-5,-4,-3,0,2021-08-07 13:02:21,643182
-1,-1,1,3,11,7,3,2,2021-08-07 13:02:21,643182
-1,0,0,1,1,-2,1,0,2021-08-07 13:02:21,643182
-2,-3,-2,-7,-7,-4,-3,-2,2021-08-07 13:02:21,643182
0,-1,1,-5,-3,0,-1,-1,2021-08-07 13:02:21,674184
2,0,1,1,-2,-1,-1,-1,2021-08-07 13:02:21,690181
0,-2,0,1,2,3,0,-1,2021-08-07 13:02:21,706183
0,0,0,0,-2,1,0,-1,2021-08-07 13:02:21,706183
-1,1,2,3,6,2,1,0,2021-08-07 13:02:21,706183
-2,-4,-3,-3,-5,-3,-2,-1,2021-08-07 13:02:21,706183
1,2,3,0,-2,-1,0,1,2021-08-07 13:02:21,706183
-2,0,-2,-1,-2,-3,0,0,2021-08-07 13:02:21,706183
-4,-8,-7,-9,-8,-6,-4,-4,2021-08-07 13:02:21,707184
4,8,7,5,4,4,3,3,2021-08-07 13:02:21,707184
0,2,-2,-4,-7,-5,-2,0,2021-08-07 13:02:21,707184
3,5,5,13,20,13,5,5,2021-08-07 13:02:21,707184
-3,-3,-1,-1,-2,0,-1,-3,2021-08-07 13:02:21,737185
-5,-6,-6,-11,-16,-10,-6,-4,2021-08-07 13:02:21,737185
-1,-3,-4,-1,4,2,-2,0,2021-08-07 13:02:21,737185
2,0,2,1,-1,-1,-2,2,2021-08-07 13:02:21,753182
-2,-2,-4,-7,-9,-5,-3,-2,2021-08-07 13:02:21,769182
0,-2,-2,-4,-8,-6,-3,-2,2021-08-07 13:02:21,769182
1,2,3,14,24,15,6,0,2021-08-07 13:02:21,769182
0,0,-2,0,0,-2,-1,-2,2021-08-07 13:02:21,769182
2,3,1,4,2,1,1,2,2021-08-07 13:02:21,769182
-7,-6,-8,-16,-24,-17,-10,-5,2021-08-07 13:02:21,770183
-1,0,-1,1,4,3,1,-2,2021-08-07 13:02:21,770183
-2,-6,-3,1,6,0,0,-1,2021-08-07 13:02:21,770183
2,4,2,-2,-5,-2,0,0,2021-08-07 13:02:21,801182
2,1,2,0,-3,-2,2,-1,2021-08-07 13:02:21,817181
-2,-1,-1,0,-2,-4,-1,-2,2021-08-07 13:02:21,849182
-1,-1,-3,-1,4,3,1,0,2021-08-07 13:02:21,849182
0,-2,-2,-1,-2,0,-1,-1,2021-08-07 13:02:21,849182
-4,-4,-3,-1,3,0,-2,0,2021-08-07 13:02:21,849182
-2,-2,-1,-6,-10,-7,-3,-2,2021-08-07 13:02:21,849182
0,2,1,-1,-4,-1,-1,0,2021-08-07 13:02:21,849182
1,3,5,2,5,0,2,2,2021-08-07 13:02:21,849182
0,0,-1,2,6,2,0,0,2021-08-07 13:02:21,850183
-3,-6,-5,-9,-8,-5,-5,-2,2021-08-07 13:02:21,850183
0,0,-1,-4,-4,-3,-1,-1,2021-08-07 13:02:21,850183
0,-1,-1,2,1,1,1,-1,2021-08-07 13:02:21,850183
-2,1,0,1,1,0,-1,-2,2021-08-07 13:02:21,850183
0,0,-2,-2,-6,-5,-3,-2,2021-08-07 13:02:21,850183
1,1,1,-1,-4,-2,1,-1,2021-08-07 13:02:21,850183
-2,-6,-4,-3,-6,-5,-4,-3,2021-08-07 13:02:21,865183
2,3,2,4,8,10,5,3,2021-08-07 13:02:21,881183
-1,-2,0,0,0,-2,0,0,2021-08-07 13:02:21,897183
0,4,1,3,3,3,0,2,2021-08-07 13:02:21,897183
-3,-3,-3,-5,-6,-3,-3,-1,2021-08-07 13:02:21,897183
0,-1,-1,1,6,3,0,-1,2021-08-07 13:02:21,897183
2,2,1,3,5,3,1,1,2021-08-07 13:02:21,897183
0,0,-1,-1,0,-1,-1,-1,2021-08-07 13:02:21,897183
-2,-2,-1,-3,-1,-2,-1,-1,2021-08-07 13:02:21,929182
-2,-2,-2,-4,-7,-6,-3,-3,2021-08-07 13:02:21,929182
1,1,-2,-3,-7,-3,-1,1,2021-08-07 13:02:21,929182
0,-1,-1,-2,0,1,0,-2,2021-08-07 13:02:21,929182
0,2,1,6,6,6,3,1,2021-08-07 13:02:21,929182
-2,-2,-3,-1,0,-1,-3,0,2021-08-07 13:02:21,929182
1,3,3,-2,-9,-5,-2,2,2021-08-07 13:02:21,935182
-3,-3,-5,-4,-4,-3,-3,-2,2021-08-07 13:02:21,935182
2,2,1,1,3,2,0,1,2021-08-07 13:02:21,960184
1,1,4,7,4,2,3,0,2021-08-07 13:02:21,960184
1,-3,-3,0,1,3,2,-1,2021-08-07 13:02:21,960184
-2,-2,-2,-6,-13,-7,-4,-3,2021-08-07 13:02:21,960184
1,3,4,9,11,6,3,1,2021-08-07 13:02:21,976183
-1,-1,-1,2,7,4,2,0,2021-08-07 13:02:21,992182
-3,-4,-2,-4,-7,-5,-4,-3,2021-08-07 13:02:21,992182
3,4,5,4,4,4,2,2,2021-08-07 13:02:21,992182
-2,-2,-3,-5,-4,-4,-3,-2,2021-08-07 13:02:21,992182
-3,-5,-5,-10,-12,-9,-4,-2,2021-08-07 13:02:21,992182
3,7,7,3,6,6,4,3,2021-08-07 13:02:21,992182
0,0,0,0,2,1,0,1,2021-08-07 13:02:21,992182
-1,-1,-2,1,4,2,0,0,2021-08-07 13:02:22,008182
-1,-1,-3,-3,-4,-4,-2,-2,2021-08-07 13:02:22,008182
-3,-3,-5,-5,-6,-4,-3,-3,2021-08-07 13:02:22,008182
1,0,1,6,7,4,1,1,2021-08-07 13:02:22,008182
1,0,2,0,-1,1,0,-1,2021-08-07 13:02:22,039183
-2,-1,-1,-2,-1,-1,-1,-1,2021-08-07 13:02:22,055182
-2,-1,-2,-2,-1,-1,-1,-2,2021-08-07 13:02:22,055182
-2,-3,-2,-3,-4,-4,-3,-1,2021-08-07 13:02:22,055182
0,0,-2,0,2,-1,1,-1,2021-08-07 13:02:22,055182
-2,1,-1,-1,-4,-1,-1,-1,2021-08-07 13:02:22,055182
1,1,0,1,2,1,0,0,2021-08-07 13:02:22,055182
-2,-2,-3,-5,-9,-6,-4,-3,2021-08-07 13:02:22,056183
-4,-4,-4,-4,-4,-1,-2,-2,2021-08-07 13:02:22,070185
3,3,4,6,6,2,3,1,2021-08-07 13:02:22,070185
-1,-1,1,-1,-2,0,-1,-1,2021-08-07 13:02:22,070185
-2,-2,-1,1,3,1,0,-2,2021-08-07 13:02:22,070185
-2,-4,-6,-10,-16,-9,-7,-2,2021-08-07 13:02:22,102182
0,0,1,5,9,4,1,0,2021-08-07 13:02:22,117181
1,2,3,3,3,1,0,1,2021-08-07 13:02:22,117181
-2,-3,-5,-2,-1,-1,-1,-1,2021-08-07 13:02:22,117181
-2,-4,-1,-3,-4,-4,-3,-3,2021-08-07 13:02:22,117181
0,3,1,-2,-4,-2,-3,1,2021-08-07 13:02:22,117181
0,1,1,1,2,1,0,0,2021-08-07 13:02:22,117181
-2,0,-3,-3,-5,-3,-2,-2,2021-08-07 13:02:22,117181
1,1,0,1,4,0,1,0,2021-08-07 13:02:22,133182
1,-2,-1,1,-2,0,-1,-2,2021-08-07 13:02:22,133182
-2,-2,-2,-2,-3,-2,-2,-2,2021-08-07 13:02:22,133182
1,1,0,1,1,-1,2,2,2021-08-07 13:02:22,133182
-1,1,1,1,-2,-1,-1,-1,2021-08-07 13:02:22,149183
-2,-2,0,-1,6,1,0,-1,2021-08-07 13:02:22,149183
-3,-7,-7,-8,-15,-11,-6,-5,2021-08-07 13:02:22,149183
2,4,6,4,9,9,5,2,2021-08-07 13:02:22,149183
1,3,4,6,9,2,3,1,2021-08-07 13:02:22,164185
-4,-7,-8,-10,-11,-8,-6,-3,2021-08-07 13:02:22,180181
0,3,-1,-2,-3,0,3,3,2021-08-07 13:02:22,180181
-1,-3,-4,1,2,0,-1,-1,2021-08-07 13:02:22,180181
3,3,2,7,6,5,4,1,2021-08-07 13:02:22,180181
-5,-5,-3,0,-2,-3,-1,-4,2021-08-07 13:02:22,180181
0,2,2,0,2,1,-1,-1,2021-08-07 13:02:22,196181
-2,-1,-1,-8,-11,-7,-6,-4,2021-08-07 13:02:22,196181
-1,1,0,-2,-5,-3,-3,-2,2021-08-07 13:02:22,212182
-5,-5,-9,-11,-9,-8,-4,-3,2021-08-07 13:02:22,212182
5,3,2,10,16,9,5,4,2021-08-07 13:02:22,212182
0,1,0,-3,-3,-3,-1,0,2021-08-07 13:02:22,212182
0,-2,-5,-2,1,-1,0,1,2021-08-07 13:02:22,227184
-2,-1,-2,-9,-15,-7,-4,-2,2021-08-07 13:02:22,243183
-2,-2,0,0,4,4,2,-1,2021-08-07 13:02:22,243183
1,-1,2,8,12,5,2,0,2021-08-07 13:02:22,243183
-1,0,-1,-4,-6,-3,0,0,2021-08-07 13:02:22,243183
0,1,0,-3,-6,-4,-2,-1,2021-08-07 13:02:22,243183
-1,0,1,6,4,4,1,0,2021-08-07 13:02:22,244186
0,-1,1,4,6,6,1,-1,2021-08-07 13:02:22,244186
-1,1,-2,-2,0,-2,-2,0,2021-08-07 13:02:22,275185
1,1,1,4,6,3,2,0,2021-08-07 13:02:22,275185
0,-1,0,2,1,-1,-1,-2,2021-08-07 13:02:22,275185
-4,-3,-6,-8,-12,-8,-5,-3,2021-08-07 13:02:22,275185
-3,-4,-4,-3,-3,-2,-3,-4,2021-08-07 13:02:22,291181
1,2,1,-1,0,2,0,0,2021-08-07 13:02:22,291181
0,-1,0,0,1,0,-1,-1,2021-08-07 13:02:22,291181
-1,-2,-3,-3,-7,-6,0,-3,2021-08-07 13:02:22,291181
-2,-2,-1,-2,0,1,-1,-1,2021-08-07 13:02:22,307187
0,1,0,1,-1,-1,-2,0,2021-08-07 13:02:22,323182
-3,-3,-4,-6,-7,-5,-3,-2,2021-08-07 13:02:22,323182
1,1,3,6,6,3,1,-1,2021-08-07 13:02:22,323182
1,0,0,0,-3,-3,-2,-1,2021-08-07 13:02:22,323182
-1,-2,-2,-2,-2,0,2,-1,2021-08-07 13:02:22,323182
-1,-1,-2,-2,-1,-3,-3,-2,2021-08-07 13:02:22,338183
-1,-2,-3,-6,-8,-5,-2,-1,2021-08-07 13:02:22,338183
1,0,2,7,11,9,4,2,2021-08-07 13:02:22,350182
0,-3,-3,-6,-10,-4,-2,0,2021-08-07 13:02:22,351183
1,4,4,2,3,0,1,2,2021-08-07 13:02:22,351183
-3,-3,-3,-5,-5,-3,-3,-1,2021-08-07 13:02:22,351183
-1,0,1,2,2,-1,-1,-2,2021-08-07 13:02:22,370185
1,1,-1,-2,0,2,1,0,2021-08-07 13:02:22,386184
-2,-2,-4,-4,-6,-4,-3,-1,2021-08-07 13:02:22,401181
0,2,1,1,6,4,3,2,2021-08-07 13:02:22,401181
0,0,0,-4,-8,-5,-3,-1,2021-08-07 13:02:22,401181
-1,0,1,3,7,4,1,1,2021-08-07 13:02:22,401181
-4,-6,-6,-6,-5,-3,-3,-3,2021-08-07 13:02:22,401181
3,4,1,2,0,1,1,1,2021-08-07 13:02:22,401181
0,-2,-3,1,6,3,1,-1,2021-08-07 13:02:22,417183
0,1,2,0,-3,-3,-2,0,2021-08-07 13:02:22,433183
0,-1,-1,0,-2,0,0,-1,2021-08-07 13:02:22,448182
-4,-7,-6,-7,-8,-4,-5,-4,2021-08-07 13:02:22,448182
1,3,2,-3,-4,-1,0,2,2021-08-07 13:02:22,448182
-1,-1,1,6,8,5,2,-2,2021-08-07 13:02:22,448182
1,2,0,-3,-7,-4,-1,0,2021-08-07 13:02:22,448182
0,1,1,2,6,3,3,1,2021-08-07 13:02:22,449183
-1,-4,-4,-5,-3,-3,-2,-1,2021-08-07 13:02:22,449183
-1,-1,-2,3,7,5,2,0,2021-08-07 13:02:22,449183
0,-2,0,3,9,5,3,0,2021-08-07 13:02:22,449183
-3,-3,-4,-5,-11,-8,-4,-4,2021-08-07 13:02:22,449183
-3,-3,-4,0,-4,-2,-2,-1,2021-08-07 13:02:22,480183
0,3,4,1,-3,-2,0,1,2021-08-07 13:02:22,480183
0,-1,-3,1,4,2,-1,-2,2021-08-07 13:02:22,480183
-1,1,0,2,4,3,0,0,2021-08-07 13:02:22,480183
-3,-3,-3,-5,-5,-4,-3,-2,2021-08-07 13:02:22,480183
-1,-4,-3,1,2,-1,-1,-1,2021-08-07 13:02:22,480183
0,-2,-2,-6,-11,-6,-3,-1,2021-08-07 13:02:22,496183
1,1,0,5,8,5,1,1,2021-08-07 13:02:22,496183
0,0,0,-3,-8,-7,-3,-2,2021-08-07 13:02:22,512183
1,1,-1,4,6,2,0,-1,2021-08-07 13:02:22,512183
-1,-1,-2,-4,1,1,0,-1,2021-08-07 13:02:22,512183
2,1,2,1,-2,0,0,1,2021-08-07 13:02:22,512183
-3,-5,-5,-11,-12,-5,-4,-3,2021-08-07 13:02:22,544182
-1,-3,-2,4,1,-1,-2,0,2021-08-07 13:02:22,544182
2,4,5,10,12,7,5,1,2021-08-07 13:02:22,544182
0,-2,-1,-1,1,-2,-1,-1,2021-08-07 13:02:22,544182
-1,2,1,0,2,0,0,0,2021-08-07 13:02:22,544182
-1,-2,-1,-11,-16,-12,-4,-1,2021-08-07 13:02:22,545183
0,0,-2,-3,1,3,0,-1,2021-08-07 13:02:22,560183
-1,-2,-1,3,-2,-2,-2,-2,2021-08-07 13:02:22,560183
0,-1,0,5,7,5,2,-1,2021-08-07 13:02:22,576183
-2,-2,-3,-5,-4,-1,1,-1,2021-08-07 13:02:22,576183
-1,0,-1,-1,-6,-7,-2,-1,2021-08-07 13:02:22,576183
0,-1,0,-4,-5,-1,0,0,2021-08-07 13:02:22,576183
1,0,1,5,10,5,0,0,2021-08-07 13:02:22,592183
-1,1,0,1,3,2,1,0,2021-08-07 13:02:22,608183
-2,-3,-3,-5,-9,-5,-3,0,2021-08-07 13:02:22,640183
-1,0,-1,-6,-11,-4,-2,-2,2021-08-07 13:02:22,656181
-1,0,5,15,14,7,3,2,2021-08-07 13:02:22,656181
-2,-3,-1,-3,-1,-2,-3,-2,2021-08-07 13:02:22,656181
0,-1,0,-2,0,0,0,0,2021-08-07 13:02:22,656181
-3,-1,-3,-1,-4,-6,0,0,2021-08-07 13:02:22,656181
-2,-1,-2,-4,-5,-3,-2,-2,2021-08-07 13:02:22,656181
1,-1,-2,-3,-5,1,-1,-1,2021-08-07 13:02:22,656181
1,0,-1,7,10,6,2,0,2021-08-07 13:02:22,672185
1,0,0,2,3,1,2,0,2021-08-07 13:02:22,688183
0,-1,-3,-3,-4,-3,-1,-1,2021-08-07 13:02:22,704183
-2,-1,-3,-4,-8,-4,-2,-1,2021-08-07 13:02:22,720182
-1,-1,0,2,4,4,1,0,2021-08-07 13:02:22,736181
-1,1,0,0,3,3,1,-1,2021-08-07 13:02:22,736181
-1,-1,-1,0,-2,1,1,-3,2021-08-07 13:02:22,736181
-4,-4,-6,-8,-16,-11,-6,-4,2021-08-07 13:02:22,736181
2,2,6,9,13,8,4,4,2021-08-07 13:02:22,736181
-1,0,-1,0,2,1,0,0,2021-08-07 13:02:22,736181
-2,-2,-2,-6,-7,-4,-3,-1,2021-08-07 13:02:22,736181
2,5,2,6,7,2,3,2,2021-08-07 13:02:22,737185
-1,-2,-2,-4,-6,-3,-3,-1,2021-08-07 13:02:22,737185
-1,-2,-4,-6,-3,-3,-2,-1,2021-08-07 13:02:22,752184
-4,-2,-2,-2,-7,-6,-3,-2,2021-08-07 13:02:22,768181
-1,-2,2,2,4,4,2,-1,2021-08-07 13:02:22,775183
-2,-2,-2,-2,-3,-3,-2,0,2021-08-07 13:02:22,775183
0,-1,0,-1,-3,-1,-2,0,2021-08-07 13:02:22,776183
-1,-2,-4,-6,-5,-3,-2,-2,2021-08-07 13:02:22,776183
-1,-1,-1,3,7,4,1,-1,2021-08-07 13:02:22,776183
-1,-1,-1,-2,-5,-3,-1,-1,2021-08-07 13:02:22,776183
0,1,2,3,4,3,0,0,2021-08-07 13:02:22,776183
2,1,0,1,2,1,1,2,2021-08-07 13:02:22,776183
0,-1,-1,-2,-3,-2,-1,-1,2021-08-07 13:02:22,776183
-2,-1,-3,-9,-10,-5,-1,-4,2021-08-07 13:02:22,776183
-1,-2,0,1,0,-1,0,0,2021-08-07 13:02:22,777185
-4,-8,-7,-9,-10,-8,-7,-4,2021-08-07 13:02:22,777185
6,8,9,13,19,11,6,4,2021-08-07 13:02:22,777185
-3,-3,-3,-2,-6,-6,-3,-2,2021-08-07 13:02:22,777185
1,1,2,1,1,1,0,1,2021-08-07 13:02:22,777185
-4,-4,-3,-3,-3,-3,0,-2,2021-08-07 13:02:22,783185
-4,-6,-4,-5,-9,-6,-5,-2,2021-08-07 13:02:22,783185
0,0,-1,1,2,1,1,0,2021-08-07 13:02:22,799183
-1,-1,0,-4,-1,0,1,-1,2021-08-07 13:02:22,799183
1,3,4,2,2,1,0,1,2021-08-07 13:02:22,814183
0,-1,-2,2,4,0,0,-1,2021-08-07 13:02:22,814183
-3,-1,-2,-1,-4,-1,-2,-2,2021-08-07 13:02:22,814183
-2,-3,-5,-6,-6,-2,-2,-2,2021-08-07 13:02:22,814183
3,1,1,1,1,0,0,-1,2021-08-07 13:02:22,830182
0,1,0,-3,-3,-2,0,-2,2021-08-07 13:02:22,830182
-4,-2,-5,-7,-9,-8,-6,-4,2021-08-07 13:02:22,830182
0,0,1,-3,-8,-3,1,1,2021-08-07 13:02:22,830182
1,2,3,13,23,13,6,3,2021-08-07 13:02:22,846181
-2,-2,-2,-5,-4,-4,-3,-2,2021-08-07 13:02:22,846181
1,0,1,1,-1,1,1,0,2021-08-07 13:02:22,861182
0,-1,-2,-8,-16,-11,-6,-1,2021-08-07 13:02:22,861182
2,2,3,3,6,4,2,2,2021-08-07 13:02:22,877185
-3,-5,-5,-1,0,-1,-2,-2,2021-08-07 13:02:22,877185
1,0,1,1,0,-3,1,2,2021-08-07 13:02:22,877185
-1,-1,-2,5,9,4,0,-2,2021-08-07 13:02:22,877185
-3,-1,-1,-4,-10,-5,-1,-2,2021-08-07 13:02:22,893183
-3,-4,-5,-9,-12,-7,-4,-4,2021-08-07 13:02:22,909183
0,1,-1,-4,-6,-2,-3,1,2021-08-07 13:02:22,909183
0,0,2,11,17,9,4,1,2021-08-07 13:02:22,909183
0,2,1,4,7,5,3,0,2021-08-07 13:02:22,909183
1,1,2,0,-3,-1,1,1,2021-08-07 13:02:22,909183
-2,-5,-7,-6,-3,-3,-3,-2,2021-08-07 13:02:22,910184
1,5,3,2,-2,-1,0,0,2021-08-07 13:02:22,910184
1,3,0,-6,-9,-6,-2,0,2021-08-07 13:02:22,940185
-1,-2,-2,0,1,-1,0,-2,2021-08-07 13:02:22,956185
0,-2,0,-4,0,2,0,-2,2021-08-07 13:02:22,972183
-2,-2,-1,-2,1,0,-1,-2,2021-08-07 13:02:22,972183
-1,-2,0,0,-1,-1,0,-1,2021-08-07 13:02:22,972183
-2,-1,-2,-3,-6,-5,-3,0,2021-08-07 13:02:22,972183
1,3,4,3,3,1,0,1,2021-08-07 13:02:22,988183
2,1,2,-1,1,3,2,1,2021-08-07 13:02:22,988183
0,-1,-1,0,-1,0,-2,-1,2021-08-07 13:02:22,988183
0,2,2,0,-1,-1,-1,0,2021-08-07 13:02:22,988183
0,2,1,0,-2,0,0,1,2021-08-07 13:02:22,988183
-1,-2,-1,-1,-5,-3,-3,0,2021-08-07 13:02:22,988183
-2,-2,-4,-1,7,5,1,0,2021-08-07 13:02:22,988183
0,0,1,2,2,6,2,2,2021-08-07 13:02:22,988183
-3,-3,-5,-9,-14,-9,-4,-2,2021-08-07 13:02:22,988183
2,3,6,14,21,12,6,2,2021-08-07 13:02:22,988183
-5,-5,-5,-5,-6,-6,-4,-6,2021-08-07 13:02:23,020182
0,1,1,2,0,-3,-2,-1,2021-08-07 13:02:23,036181
4,6,6,-1,-2,0,0,3,2021-08-07 13:02:23,052182
-4,-4,-4,-2,-3,-4,-4,-3,2021-08-07 13:02:23,052182
2,2,1,-1,-5,-1,0,1,2021-08-07 13:02:23,052182
1,1,1,1,2,2,2,1,2021-08-07 13:02:23,052182
-1,-3,-3,2,-2,-1,-2,-2,2021-08-07 13:02:23,052182
-2,-2,-4,-6,-3,-3,-2,-2,2021-08-07 13:02:23,053184
-2,-1,-3,1,-2,-3,-1,-1,2021-08-07 13:02:23,053184
-1,0,-2,-8,-10,-4,-3,0,2021-08-07 13:02:23,053184
-2,-2,0,7,16,9,4,0,2021-08-07 13:02:23,053184
0,1,-1,-1,-3,-1,0,1,2021-08-07 13:02:23,053184
4,5,5,5,3,3,2,2,2021-08-07 13:02:23,084183
-1,-2,-3,-6,-9,-6,-3,-3,2021-08-07 13:02:23,084183
0,3,4,5,6,5,3,1,2021-08-07 13:02:23,084183
-3,-2,-2,1,0,-1,-1,-2,2021-08-07 13:02:23,084183
-6,-8,-7,-9,-12,-8,-5,-5,2021-08-07 13:02:23,085183
2,3,3,1,0,1,-1,1,2021-08-07 13:02:23,085183
-2,-2,-1,-2,-6,-1,1,-1,2021-08-07 13:02:23,116181
-1,-2,-2,-2,1,-2,-2,-1,2021-08-07 13:02:23,116181
-1,0,1,-1,-2,-1,-1,-1,2021-08-07 13:02:23,116181
-4,-3,-2,0,1,0,-2,0,2021-08-07 13:02:23,116181
0,2,0,6,9,6,1,0,2021-08-07 13:02:23,116181
0,0,-1,-2,-4,-1,0,-2,2021-08-07 13:02:23,116181
-2,-2,-4,-9,-16,-9,-5,-2,2021-08-07 13:02:23,131182
-1,-1,0,6,9,2,0,0,2021-08-07 13:02:23,131182
0,1,0,4,8,5,2,0,2021-08-07 13:02:23,131182
0,-1,-1,-2,0,1,-1,0,2021-08-07 13:02:23,131182
-1,-1,1,-1,-2,-3,-2,-2,2021-08-07 13:02:23,147183
2,2,1,-2,1,3,2,-1,2021-08-07 13:02:23,163184
0,-2,-3,-6,-9,-7,-3,0,2021-08-07 13:02:23,163184
-2,-1,-4,-2,2,3,2,0,2021-08-07 13:02:23,163184
1,-2,0,0,-1,0,0,1,2021-08-07 13:02:23,163184
1,0,0,3,11,7,4,2,2021-08-07 13:02:23,163184
-1,0,-1,1,1,-3,-4,-2,2021-08-07 13:02:23,179183
-2,-4,-3,-9,-15,-10,-7,-2,2021-08-07 13:02:23,179183
-4,-1,-4,-4,-3,-4,-2,-1,2021-08-07 13:02:23,195183
-1,-1,-1,2,2,2,2,0,2021-08-07 13:02:23,211183
0,2,-1,2,4,2,2,1,2021-08-07 13:02:23,211183
1,1,-1,-1,-5,-4,-2,-1,2021-08-07 13:02:23,211183
-2,-2,-3,-4,-3,-2,-3,-2,2021-08-07 13:02:23,211183
-1,-1,-2,0,-3,-3,-2,-1,2021-08-07 13:02:23,211183
1,0,2,1,0,0,0,0,2021-08-07 13:02:23,211183
-1,-1,0,-2,-5,-5,-1,-2,2021-08-07 13:02:23,211183
-1,0,1,-2,1,0,1,1,2021-08-07 13:02:23,227184
-3,-4,-4,-5,-8,-5,-4,-3,2021-08-07 13:02:23,227184
0,-1,-1,-1,4,2,0,-2,2021-08-07 13:02:23,227184
4,4,4,1,6,6,4,4,2021-08-07 13:02:23,227184
0,0,-2,2,6,4,1,0,2021-08-07 13:02:23,259181
-2,-1,0,-1,-4,-1,-2,-1,2021-08-07 13:02:23,274183
-5,-4,-6,-6,-11,-9,-6,-3,2021-08-07 13:02:23,274183
-2,-1,1,2,5,1,4,1,2021-08-07 13:02:23,274183
-3,-4,-4,-5,-6,-4,-3,-2,2021-08-07 13:02:23,274183
1,1,2,0,-4,-3,0,1,2021-08-07 13:02:23,274183
-2,-3,-2,-5,-6,-1,-1,-2,2021-08-07 13:02:23,274183
0,1,1,6,8,6,2,0,2021-08-07 13:02:23,274183
1,4,2,4,4,0,-1,-1,2021-08-07 13:02:23,290183
-2,-3,-4,-5,-6,-4,-2,-4,2021-08-07 13:02:23,306184
1,2,5,3,8,6,3,3,2021-08-07 13:02:23,306184
-3,-6,-5,-4,-10,-9,-6,-4,2021-08-07 13:02:23,306184
2,2,1,-1,-3,-3,-1,-1,2021-08-07 13:02:23,306184
2,1,1,-1,0,1,1,0,2021-08-07 13:02:23,306184
1,1,2,2,3,1,2,2,2021-08-07 13:02:23,322182
-3,-4,-5,-7,-7,-5,-5,-2,2021-08-07 13:02:23,322182
-1,-3,-1,3,7,3,1,1,2021-08-07 13:02:23,338182
-2,-1,0,-4,-7,-5,-3,-2,2021-08-07 13:02:23,338182
0,0,1,-1,-2,-2,0,-1,2021-08-07 13:02:23,338182
-2,-2,-3,-4,-7,-5,-3,-1,2021-08-07 13:02:23,338182
1,0,3,6,7,4,2,2,2021-08-07 13:02:23,354185
0,-1,-1,2,4,2,1,1,2021-08-07 13:02:23,369185
-2,-3,-4,-5,-6,-5,-2,-2,2021-08-07 13:02:23,369185
0,0,0,0,2,-1,-1,-1,2021-08-07 13:02:23,369185
-3,-4,-3,-9,-10,-7,-5,-2,2021-08-07 13:02:23,385182
-2,1,2,2,4,0,-2,-1,2021-08-07 13:02:23,385182
0,-1,2,4,10,7,2,1,2021-08-07 13:02:23,385182
1,-1,0,-1,-2,-2,-1,-2,2021-08-07 13:02:23,385182
1,2,2,3,3,2,3,2,2021-08-07 13:02:23,401184
0,0,-1,1,1,0,-1,1,2021-08-07 13:02:23,401184
-2,-4,-3,-11,-13,-9,-6,-3,2021-08-07 13:02:23,401184
2,0,2,3,3,3,1,0,2021-08-07 13:02:23,401184
-1,-2,-1,1,-2,-2,0,-2,2021-08-07 13:02:23,417185
0,-1,-1,2,2,0,1,0,2021-08-07 13:02:23,417185
-1,-1,-1,-2,-4,-2,-2,0,2021-08-07 13:02:23,417185
-3,-1,-1,1,2,2,-1,-1,2021-08-07 13:02:23,417185
-4,-3,-4,-6,-6,-5,-4,-3,2021-08-07 13:02:23,433183
3,3,3,2,4,4,4,2,2021-08-07 13:02:23,433183
1,2,0,2,3,2,0,0,2021-08-07 13:02:23,433183
-2,-1,-1,-2,-3,-3,-2,-3,2021-08-07 13:02:23,433183
-3,-2,-3,-4,-7,-4,-4,-2,2021-08-07 13:02:23,464183
-1,-2,-2,-3,-5,-2,-2,-2,2021-08-07 13:02:23,464183
-2,0,0,-1,-5,-4,-2,-1,2021-08-07 13:02:23,464183
-2,-3,-3,2,9,4,1,-2,2021-08-07 13:02:23,464183
2,4,5,2,6,4,1,0,2021-08-07 13:02:23,464183
-1,0,-1,1,4,3,-2,0,2021-08-07 13:02:23,464183
-1,-1,-1,-2,-7,-6,-3,0,2021-08-07 13:02:23,480183
-3,-4,-3,-11,-15,-9,-4,-4,2021-08-07 13:02:23,480183
0,-1,-2,4,11,4,1,-2,2021-08-07 13:02:23,496182
-1,-2,0,4,7,3,2,-1,2021-08-07 13:02:23,496182
0,2,2,2,4,4,2,1,2021-08-07 13:02:23,496182
-1,-2,0,-1,-4,-3,-2,0,2021-08-07 13:02:23,496182
-3,-3,-4,-5,-8,-4,-3,-3,2021-08-07 13:02:23,511181
-2,-1,-2,-3,-6,-4,-1,-2,2021-08-07 13:02:23,527183
-1,-2,-2,2,3,2,0,-1,2021-08-07 13:02:23,543182
2,1,1,-1,-2,1,1,2,2021-08-07 13:02:23,543182
0,1,-1,0,0,1,-1,0,2021-08-07 13:02:23,543182
-5,-5,-5,-4,-5,-4,-3,-1,2021-08-07 13:02:23,543182
2,2,2,1,1,-1,1,0,2021-08-07 13:02:23,543182
1,-2,-1,-3,-1,0,0,1,2021-08-07 13:02:23,543182
0,2,2,5,8,2,1,2,2021-08-07 13:02:23,559183
0,0,-2,-1,-5,-3,-2,1,2021-08-07 13:02:23,559183
0,0,1,1,2,1,1,0,2021-08-07 13:02:23,559183
-2,-1,-3,-5,-9,-5,-4,-4,2021-08-07 13:02:23,559183
0,-2,-1,2,5,2,2,0,2021-08-07 13:02:23,591183
-1,0,-1,0,3,2,0,-1,2021-08-07 13:02:23,607185
-1,0,-1,-3,-1,-2,-1,-1,2021-08-07 13:02:23,623183
0,-2,-3,0,-2,-1,-3,0,2021-08-07 13:02:23,623183
-1,-2,-1,-6,-8,-3,1,0,2021-08-07 13:02:23,623183
0,-1,2,1,3,1,2,-1,2021-08-07 13:02:23,623183
-4,-5,-3,0,-2,-3,-4,-3,2021-08-07 13:02:23,623183
-2,2,-2,-3,2,-3,-1,-1,2021-08-07 13:02:23,623183
-1,-1,0,-4,-2,1,0,-1,2021-08-07 13:02:23,624182
0,0,1,0,0,1,1,1,2021-08-07 13:02:23,624182
0,-3,-2,-3,-7,-4,-1,0,2021-08-07 13:02:23,624182
-2,-2,-2,-1,0,0,-1,-1,2021-08-07 13:02:23,624182
0,-3,-2,0,0,-1,-1,-1,2021-08-07 13:02:23,639184
1,5,5,0,0,-3,1,-1,2021-08-07 13:02:23,655184
1,-1,-3,-4,-4,0,1,0,2021-08-07 13:02:23,661181
-4,-3,-5,-3,3,0,-2,-2,2021-08-07 13:02:23,661181
0,2,4,1,-2,-3,0,0,2021-08-07 13:02:23,661181
0,-2,-2,4,13,10,3,1,2021-08-07 13:02:23,661181
-3,-4,-4,-6,-14,-12,-5,-4,2021-08-07 13:02:23,661181
5,6,7,7,10,9,8,5,2021-08-07 13:02:23,662183
-4,-4,-3,-4,1,-1,-3,-1,2021-08-07 13:02:23,671183
1,1,2,-2,-6,-3,-2,1,2021-08-07 13:02:23,671183
-1,-2,-1,3,4,1,0,-2,2021-08-07 13:02:23,671183
-1,-3,-4,-4,-7,-6,-3,-2,2021-08-07 13:02:23,671183
-3,-6,-6,-9,-12,-10,-5,-6,2021-08-07 13:02:23,703184
1,1,0,1,0,1,1,0,2021-08-07 13:02:23,719183
1,0,1,3,7,4,1,0,2021-08-07 13:02:23,719183
1,1,4,3,1,1,1,0,2021-08-07 13:02:23,719183
-1,-2,-2,-6,-6,-4,-3,-2,2021-08-07 13:02:23,719183
0,-1,-3,-8,-7,-5,-2,-1,2021-08-07 13:02:23,719183
0,3,2,4,10,7,5,2,2021-08-07 13:02:23,719183
-2,-1,-2,1,-2,-1,-1,-2,2021-08-07 13:02:23,720184
0,0,0,-4,-7,-4,-4,-1,2021-08-07 13:02:23,735183
0,-1,-2,-2,-2,0,0,-2,2021-08-07 13:02:23,751185
-2,-2,0,6,9,6,-1,-1,2021-08-07 13:02:23,767183
-1,0,-1,-2,-2,-1,0,0,2021-08-07 13:02:23,767183
2,1,-2,-2,1,2,2,1,2021-08-07 13:02:23,767183
-3,-3,-4,-5,-6,-5,-5,-4,2021-08-07 13:02:23,767183
-3,-2,-3,-4,-4,-4,-3,-1,2021-08-07 13:02:23,767183
-3,-4,-3,-1,-1,-2,-3,-2,2021-08-07 13:02:23,767183
1,2,2,3,-2,1,0,1,2021-08-07 13:02:23,768187
1,1,0,-3,-2,0,0,0,2021-08-07 13:02:23,768187
-1,-1,-2,-8,-8,-4,0,-1,2021-08-07 13:02:23,783182
-2,-3,-2,-4,-6,-5,-3,-2,2021-08-07 13:02:23,783182
2,1,3,5,10,4,2,0,2021-08-07 13:02:23,798186
1,4,4,6,11,7,3,3,2021-08-07 13:02:23,798186
-2,-3,-4,-4,-4,-1,-3,0,2021-08-07 13:02:23,798186
0,2,0,-3,-8,-5,-1,0,2021-08-07 13:02:23,798186
1,1,0,0,0,1,1,0,2021-08-07 13:02:23,814185
-3,-3,-3,1,0,-1,-2,-1,2021-08-07 13:02:23,814185
-2,-1,1,-1,-3,-1,0,-1,2021-08-07 13:02:23,814185
-2,-4,-1,0,-3,-2,-2,-2,2021-08-07 13:02:23,814185
-3,-3,-3,-2,-6,-4,-3,-4,2021-08-07 13:02:23,830184
2,0,1,2,1,-1,-1,-1,2021-08-07 13:02:23,830184
1,1,1,1,5,4,3,1,2021-08-07 13:02:23,830184
1,2,0,2,1,1,1,1,2021-08-07 13:02:23,830184
-3,-4,-4,-3,-4,-1,-1,1,2021-08-07 13:02:23,862184
1,2,0,2,-1,-2,0,0,2021-08-07 13:02:23,878184
0,-1,0,-5,-4,-3,-2,-1,2021-08-07 13:02:23,894184
0,1,0,-4,-4,0,0,-1,2021-08-07 13:02:23,894184
1,2,3,10,15,9,7,1,2021-08-07 13:02:23,894184
-4,-4,-3,-4,-8,-6,-3,-3,2021-08-07 13:02:23,894184
3,5,3,6,9,5,3,1,2021-08-07 13:02:23,894184
-1,-2,-2,-2,-4,-4,-2,-2,2021-08-07 13:02:23,894184
-3,-3,-4,-7,-10,-4,-3,-3,2021-08-07 13:02:23,895183
-1,-2,-1,2,3,-2,0,-1,2021-08-07 13:02:23,895183
-2,-2,-3,-8,-10,-7,-4,-1,2021-08-07 13:02:23,895183
3,7,9,12,18,10,6,4,2021-08-07 13:02:23,895183
-2,-2,-4,-2,-4,-4,-3,-2,2021-08-07 13:02:23,910181
-1,-3,0,1,0,-1,-2,-2,2021-08-07 13:02:23,926185
-1,-1,-3,-4,-9,-4,-2,-3,2021-08-07 13:02:23,926185
-2,-3,-3,-2,-5,-2,-3,-1,2021-08-07 13:02:23,942181
-1,0,-1,0,1,2,1,-1,2021-08-07 13:02:23,942181
0,-1,-1,-2,2,1,-1,-1,2021-08-07 13:02:23,958183
-3,-5,-4,-2,-3,-4,-3,-3,2021-08-07 13:02:23,974183
2,2,1,0,1,1,0,0,2021-08-07 13:02:23,974183
-1,-1,0,3,2,-1,-1,0,2021-08-07 13:02:23,974183
-1,-4,-4,-5,-8,-3,-2,0,2021-08-07 13:02:23,974183
2,1,2,9,12,8,2,2,2021-08-07 13:02:23,974183
-3,-4,-4,-3,1,-2,-2,-2,2021-08-07 13:02:23,974183
-1,-1,0,-3,-8,-6,-4,-2,2021-08-07 13:02:23,975185
-1,-1,-2,-5,-3,0,1,-2,2021-08-07 13:02:23,975185
2,3,3,3,0,1,1,1,2021-08-07 13:02:23,975185
-2,-2,-2,-3,-1,-1,-2,-2,2021-08-07 13:02:23,975185
-2,-2,-3,-4,-3,0,-1,-1,2021-08-07 13:02:24,022185
0,-2,-2,-1,-6,-5,-1,0,2021-08-07 13:02:24,038181
5,6,6,2,5,4,1,3,2021-08-07 13:02:24,070184
1,2,2,6,6,2,1,1,2021-08-07 13:02:24,101184
-2,-1,-1,-3,-3,-2,-3,-3,2021-08-07 13:02:24,101184
-3,-3,-3,1,4,1,-1,-1,2021-08-07 13:02:24,101184
-4,-4,-3,-4,-4,-3,-1,0,2021-08-07 13:02:24,102183
-4,-5,-3,-5,-3,-2,-3,-3,2021-08-07 13:02:24,102183
-1,3,3,1,-1,-3,-2,-1,2021-08-07 13:02:24,102183
0,2,0,-3,-8,-5,-3,-1,2021-08-07 13:02:24,102183
1,3,2,4,7,8,3,3,2021-08-07 13:02:24,102183
-4,-3,-1,0,-2,-2,-1,0,2021-08-07 13:02:24,102183
-2,-2,-4,-2,-1,-2,-1,-3,2021-08-07 13:02:24,102183
-1,1,1,-2,-2,-1,0,-1,2021-08-07 13:02:24,103186
-3,-3,-5,-7,-9,-7,-4,-5,2021-08-07 13:02:24,117182
-2,-3,-4,-8,-15,-11,-6,-2,2021-08-07 13:02:24,117182
2,0,2,-3,1,6,3,2,2021-08-07 13:02:24,117182
4,5,7,15,24,12,7,4,2021-08-07 13:02:24,117182
-2,0,-2,-1,-2,-2,-1,-1,2021-08-07 13:02:24,117182
-1,-3,-2,0,2,0,0,-2,2021-08-07 13:02:24,133183
-3,-3,-4,-7,-12,-9,-5,-2,2021-08-07 13:02:24,133183
-2,-3,-3,-7,-11,-5,-2,-3,2021-08-07 13:02:24,133183
1,1,1,5,9,7,3,1,2021-08-07 13:02:24,133183
1,1,2,-1,-2,0,1,0,2021-08-07 13:02:24,133183
-1,-1,-3,0,2,0,-2,-1,2021-08-07 13:02:24,133183
0,0,0,3,4,3,0,0,2021-08-07 13:02:24,133183
-3,-2,-2,-1,-5,-4,-2,-1,2021-08-07 13:02:24,134183
0,-1,-2,-2,0,1,1,0,2021-08-07 13:02:24,149183
-1,-1,1,1,2,0,1,-1,2021-08-07 13:02:24,165181
-3,-2,-1,-2,-2,-1,-2,-2,2021-08-07 13:02:24,180183
1,0,-1,-2,-3,-4,-2,-1,2021-08-07 13:02:24,196183
-1,-1,0,0,5,2,-2,1,2021-08-07 13:02:24,196183
-1,-4,-5,-3,-3,-1,-1,-3,2021-08-07 13:02:24,196183
1,-2,0,-3,-8,-6,-3,2,2021-08-07 13:02:24,196183
5,8,9,12,21,16,6,5,2021-08-07 13:02:24,196183
-1,1,-1,1,-1,0,1,-2,2021-08-07 13:02:24,197184
-1,-2,-2,-1,0,-1,0,0,2021-08-07 13:02:24,197184
-3,-3,-6,-8,-10,-8,-3,-2,2021-08-07 13:02:24,197184
-3,-5,-3,-5,-8,-4,-3,-2,2021-08-07 13:02:24,197184
0,-1,1,1,0,-1,0,-1,2021-08-07 13:02:24,197184
1,2,5,5,10,6,3,3,2021-08-07 13:02:24,197184
0,0,-1,1,2,2,1,0,2021-08-07 13:02:24,197184
-3,-4,-4,-5,-6,-5,-2,-1,2021-08-07 13:02:24,198182
-2,-3,-2,-4,-3,-2,-2,-1,2021-08-07 13:02:24,198182
-1,-2,-2,-2,-4,-3,-2,-1,2021-08-07 13:02:24,212182
0,0,1,-1,-1,-1,1,-1,2021-08-07 13:02:24,227183
1,1,0,-1,-1,-3,-1,-2,2021-08-07 13:02:24,243184
-3,0,-2,-1,-2,-1,-2,-2,2021-08-07 13:02:24,259183
1,0,-1,0,0,-2,-1,-1,2021-08-07 13:02:24,259183
0,-3,-4,0,2,0,1,1,2021-08-07 13:02:24,259183
-1,-2,-1,-3,-6,-3,-2,-2,2021-08-07 13:02:24,259183
-2,-1,0,0,-2,-1,0,-1,2021-08-07 13:02:24,259183
-1,0,0,0,4,3,2,-2,2021-08-07 13:02:24,259183
1,2,2,4,6,3,1,0,2021-08-07 13:02:24,259183
-3,-6,-6,-11,-15,-10,-4,-3,2021-08-07 13:02:24,259183
5,5,7,13,15,9,4,3,2021-08-07 13:02:24,259183
-2,1,0,-4,-9,-5,-3,-1,2021-08-07 13:02:24,275182
-1,-2,-1,-5,-4,-2,-2,-1,2021-08-07 13:02:24,291183
-2,-4,-1,0,7,1,-1,-1,2021-08-07 13:02:24,307182
0,2,0,-2,-4,-3,-1,0,2021-08-07 13:02:24,307182
-1,0,1,5,7,4,1,0,2021-08-07 13:02:24,307182
1,3,0,1,-4,-3,0,0,2021-08-07 13:02:24,307182
0,0,-1,-2,-4,-2,-1,-1,2021-08-07 13:02:24,307182
-4,-6,-5,-6,-3,-2,-2,-1,2021-08-07 13:02:24,307182
-3,-5,-3,-4,-9,-6,-3,-3,2021-08-07 13:02:24,323183
1,4,5,8,12,6,3,1,2021-08-07 13:02:24,323183
-1,0,2,3,0,0,1,-1,2021-08-07 13:02:24,323183
-2,-5,-5,-6,-6,-5,-3,-3,2021-08-07 13:02:24,323183
3,5,3,5,0,-1,0,2,2021-08-07 13:02:24,339183
-4,-5,-3,-5,-3,0,-2,-3,2021-08-07 13:02:24,339183
-1,1,-1,2,1,0,-1,-2,2021-08-07 13:02:24,339183
1,-1,-1,-4,-4,-3,-2,0,2021-08-07 13:02:24,339183
0,-3,-3,-4,3,3,2,0,2021-08-07 13:02:24,355186
1,1,2,7,5,1,2,1,2021-08-07 13:02:24,355186
-2,-3,-3,-4,-6,-4,-2,-1,2021-08-07 13:02:24,355186
-4,-3,-3,-5,-5,-6,-3,-3,2021-08-07 13:02:24,355186
3,2,2,-2,-7,-1,-1,1,2021-08-07 13:02:24,387183
1,-1,2,1,11,7,3,0,2021-08-07 13:02:24,402183
-3,-4,-3,-2,-4,-4,-2,-3,2021-08-07 13:02:24,402183
3,3,4,2,4,2,1,0,2021-08-07 13:02:24,402183
-1,-1,-1,-4,-6,-4,-1,-1,2021-08-07 13:02:24,402183
1,1,0,1,1,2,0,0,2021-08-07 13:02:24,402183
-1,-2,-1,2,1,0,-1,0,2021-08-07 13:02:24,402183
-3,-2,-1,-3,-4,-3,-3,-1,2021-08-07 13:02:24,402183
-1,-1,-2,-2,-2,-4,-1,-1,2021-08-07 13:02:24,418183
-1,-1,-1,-1,-1,2,0,1,2021-08-07 13:02:24,418183
-2,-1,2,0,3,-2,-1,-2,2021-08-07 13:02:24,433182
1,0,-2,-1,-3,2,0,0,2021-08-07 13:02:24,433182
0,1,0,2,-1,-2,-1,0,2021-08-07 13:02:24,433182
0,-1,-3,-8,-11,-5,-3,-2,2021-08-07 13:02:24,433182
2,2,0,5,7,6,2,5,2021-08-07 13:02:24,433182
-1,-1,-1,1,0,1,-1,-1,2021-08-07 13:02:24,433182
-2,-2,0,-2,1,-1,-1,-3,2021-08-07 13:02:24,464182
-2,-3,-5,-9,-12,-6,-5,-2,2021-08-07 13:02:24,464182
-2,-2,-2,-6,-11,-7,-3,-2,2021-08-07 13:02:24,464182
0,-2,0,-2,-3,-1,0,-1,2021-08-07 13:02:24,464182
2,4,4,6,10,7,4,2,2021-08-07 13:02:24,480185
-1,0,1,3,9,5,2,0,2021-08-07 13:02:24,496181
-2,-2,-3,-8,-4,-2,-3,-2,2021-08-07 13:02:24,512183
-1,-1,0,4,7,1,0,-2,2021-08-07 13:02:24,512183
-2,-3,-3,-6,-12,-8,-3,-2,2021-08-07 13:02:24,512183
5,7,6,-2,-5,2,10,8,2021-08-07 13:02:24,512183
4,3,2,1,-3,-1,0,2,2021-08-07 13:02:24,512183
1,0,-1,-2,1,-4,-10,-2,2021-08-07 13:02:24,512183
-6,-5,-5,2,6,-2,-7,-7,2021-08-07 13:02:24,512183
2,0,2,0,-6,-3,2,3,2021-08-07 13:02:24,513183
3,-1,-2,-1,3,5,4,0,2021-08-07 13:02:24,528182
6,5,7,5,12,27,33,-8,2021-08-07 13:02:24,528182
34,7,6,5,17,49,64,39,2021-08-07 13:02:24,528182
5,12,15,12,8,-18,-43,8,2021-08-07 13:02:24,528182
-84,-57,-46,-53,-76,-88,-73,-69,2021-08-07 13:02:24,539183
72,33,5,4,17,71,74,41,2021-08-07 13:02:24,539183
70,25,10,14,28,43,11,13,2021-08-07 13:02:24,560183
-62,-10,11,15,5,-46,-57,-42,2021-08-07 13:02:24,560183
-57,-52,-23,-23,-31,-30,-19,0,2021-08-07 13:02:24,560183
11,-12,-7,-8,-15,-13,-7,-12,2021-08-07 13:02:24,560183
47,9,2,1,-1,26,44,11,2021-08-07 13:02:24,576181
78,45,16,14,21,50,52,48,2021-08-07 13:02:24,591182
65,51,30,35,46,35,17,6,2021-08-07 13:02:24,606183
-45,-21,-5,1,10,13,23,4,2021-08-07 13:02:24,622184
-47,-15,4,-3,-10,-40,-39,17,2021-08-07 13:02:24,622184
-79,-54,-39,-36,-43,-64,-61,-43,2021-08-07 13:02:24,622184
21,18,5,7,16,14,9,20,2021-08-07 13:02:24,622184
42,21,4,3,5,12,3,-8,2021-08-07 13:02:24,622184
10,20,14,11,11,8,1,-7,2021-08-07 13:02:24,622184
-45,-28,-16,-20,-30,-24,-14,-21,2021-08-07 13:02:24,623182
11,-7,-4,5,15,31,35,18,2021-08-07 13:02:24,638182
2,3,2,2,5,-5,-11,5,2021-08-07 13:02:24,638182
-31,-9,-2,-4,-14,-32,-33,-30,2021-08-07 13:02:24,638182
10,-2,-9,-17,-28,-7,7,-9,2021-08-07 13:02:24,638182
22,18,12,25,38,39,31,18,2021-08-07 13:02:24,638182
-21,-8,0,11,2,-22,-30,-8,2021-08-07 13:02:24,638182
-33,-16,-12,-10,-14,-23,-22,-19,2021-08-07 13:02:24,654182
33,8,2,14,24,37,38,22,2021-08-07 13:02:24,670182
12,6,-2,-19,-14,-3,-2,5,2021-08-07 13:02:24,686183
-32,-20,-18,-32,-41,-46,-38,-15,2021-08-07 13:02:24,686183
-15,-17,-16,-19,-14,-8,-4,-8,2021-08-07 13:02:24,686183
26,13,11,16,30,36,31,14,2021-08-07 13:02:24,686183
0,10,18,22,-1,-8,-6,-5,2021-08-07 13:02:24,686183
-12,-2,2,34,15,-6,-10,-4,2021-08-07 13:02:24,687186
2,1,-8,-27,-13,10,7,5,2021-08-07 13:02:24,687186
-1,-18,-11,-54,-25,-6,-4,-9,2021-08-07 13:02:24,687186
-7,-7,-18,-17,-20,-17,-14,-12,2021-08-07 13:02:24,701184
-4,-4,0,-14,-31,-21,-9,1,2021-08-07 13:02:24,717182
5,11,15,48,46,23,12,6,2021-08-07 13:02:24,717182
10,12,9,25,23,16,11,4,2021-08-07 13:02:24,717182
6,5,6,-1,-6,-2,4,4,2021-08-07 13:02:24,717182
-6,-7,-4,-24,-32,-15,-10,-3,2021-08-07 13:02:24,717182
-4,-1,1,21,33,9,0,-2,2021-08-07 13:02:24,748183
2,1,-1,3,1,2,4,0,2021-08-07 13:02:24,748183
4,2,0,2,7,8,5,4,2021-08-07 13:02:24,748183
-4,-2,-3,-1,0,-5,-6,-2,2021-08-07 13:02:24,748183
-13,-9,-8,-25,-33,-22,-14,-9,2021-08-07 13:02:24,748183
8,1,-1,9,10,10,10,6,2021-08-07 13:02:24,748183
4,6,5,5,-3,1,1,2,2021-08-07 13:02:24,764183
-8,-6,-4,-10,-1,-2,-6,-5,2021-08-07 13:02:24,764183
-7,-5,-7,-11,-9,-9,-6,-5,2021-08-07 13:02:24,780182
6,2,-1,7,1,5,5,2,2021-08-07 13:02:24,796181
0,4,4,-4,-4,0,0,1,2021-08-07 13:02:24,811182
-2,2,3,4,16,6,0,1,2021-08-07 13:02:24,811182
-2,-2,-1,2,-5,-4,-3,0,2021-08-07 13:02:24,811182
0,-2,-6,-7,-18,-10,-4,-4,2021-08-07 13:02:24,811182
-3,-5,-4,-1,2,3,-1,-2,2021-08-07 13:02:24,812182
2,3,3,12,33,16,8,3,2021-08-07 13:02:24,827183
-2,-2,-1,-2,-6,-6,-4,-4,2021-08-07 13:02:24,843183
2,2,1,1,1,1,1,1,2021-08-07 13:02:24,843183
3,2,4,2,-3,-2,0,0,2021-08-07 13:02:24,859184
-1,0,-3,-8,-10,-7,-5,0,2021-08-07 13:02:24,859184
-5,-7,-6,-11,-11,-7,-6,-3,2021-08-07 13:02:24,859184
1,2,2,11,22,14,7,2,2021-08-07 13:02:24,859184
-1,-2,-1,-1,1,1,0,0,2021-08-07 13:02:24,859184
0,1,0,4,5,5,2,2,2021-08-07 13:02:24,859184
-4,-1,-1,3,-3,-3,-3,-4,2021-08-07 13:02:24,860184
5,3,5,9,7,7,4,5,2021-08-07 13:02:24,860184
0,-1,0,2,0,-1,0,-1,2021-08-07 13:02:24,860184
-3,-6,-4,-9,-10,-7,-6,-2,2021-08-07 13:02:24,860184
-3,-4,-4,-6,-11,-8,-3,-3,2021-08-07 13:02:24,875182
5,4,3,2,-3,0,2,2,2021-08-07 13:02:24,875182
-2,-1,0,2,-3,-4,-3,-2,2021-08-07 13:02:24,875182
0,-1,-3,6,5,5,2,0,2021-08-07 13:02:24,875182
1,-1,-4,-8,12,7,4,1,2021-08-07 13:02:24,907181
0,1,-1,2,-7,-4,-1,-4,2021-08-07 13:02:24,907181
-1,-3,-2,-1,1,1,-3,-2,2021-08-07 13:02:24,907181
-4,-5,-5,-17,-23,-12,-6,-4,2021-08-07 13:02:24,907181
-4,-5,-5,-7,-3,-2,-2,-2,2021-08-07 13:02:24,923182
0,-1,-1,0,4,1,-1,0,2021-08-07 13:02:24,939182
-1,-1,2,6,7,6,3,2,2021-08-07 13:02:24,955184
0,1,1,10,4,-2,0,2,2021-08-07 13:02:24,971183
0,3,1,1,-7,-5,0,0,2021-08-07 13:02:24,971183
1,4,5,5,7,6,5,3,2021-08-07 13:02:24,971183
1,3,5,13,16,9,3,2,2021-08-07 13:02:24,971183
1,2,2,8,0,-1,-1,0,2021-08-07 13:02:24,971183
-1,-4,-4,4,3,1,0,-1,2021-08-07 13:02:24,971183
-5,-7,-11,-40,-19,-8,-6,-4,2021-08-07 13:02:24,972186
0,-4,-4,-9,-5,-1,-1,-1,2021-08-07 13:02:24,972186
-3,-2,5,-3,2,1,-3,-1,2021-08-07 13:02:24,972186
6,10,6,14,3,-1,2,4,2021-08-07 13:02:24,972186
-3,-5,-4,6,-9,-7,-5,-5,2021-08-07 13:02:24,972186
-2,1,-1,-3,0,2,1,1,2021-08-07 13:02:24,972186
-4,-6,-6,-18,-23,-17,-9,-5,2021-08-07 13:02:24,972186
4,3,7,14,22,16,8,5,2021-08-07 13:02:25,003183
1,3,4,17,21,9,5,1,2021-08-07 13:02:25,003183
3,3,1,1,1,2,3,3,2021-08-07 13:02:25,003183
-1,0,-2,0,7,4,1,1,2021-08-07 13:02:25,003183
-3,-3,-3,-11,-22,-12,-7,-2,2021-08-07 13:02:25,019182
-3,-5,-7,-20,-15,-6,-5,-3,2021-08-07 13:02:25,019182
-3,-3,0,9,6,-1,-2,-3,2021-08-07 13:02:25,019182
-1,0,1,6,4,1,1,0,2021-08-07 13:02:25,019182
1,-1,0,-7,-10,-8,-2,-1,2021-08-07 13:02:25,035183
-2,0,2,13,15,7,3,1,2021-08-07 13:02:25,035183
2,0,-5,1,-1,0,1,2,2021-08-07 13:02:25,035183
-8,-12,-14,-36,-27,-13,-10,-9,2021-08-07 13:02:25,035183
-3,-6,2,-20,-16,-6,-6,-5,2021-08-07 13:02:25,051182
2,2,-7,3,0,-2,0,1,2021-08-07 13:02:25,051182
4,5,4,11,15,8,5,2,2021-08-07 13:02:25,067183
3,6,5,26,22,8,7,3,2021-08-07 13:02:25,067183
-2,0,1,3,-2,-1,-1,-2,2021-08-07 13:02:25,083183
-1,-4,-1,-5,-11,-9,-5,-3,2021-08-07 13:02:25,083183
-6,-7,-7,-18,-25,-15,-9,-6,2021-08-07 13:02:25,083183
5,8,7,12,12,9,6,5,2021-08-07 13:02:25,083183
-2,-1,-4,-2,1,-2,-1,-1,2021-08-07 13:02:25,131183
-1,2,5,9,7,6,2,1,2021-08-07 13:02:25,146183
-2,-3,-5,-5,-8,-5,-4,-2,2021-08-07 13:02:25,146183
-2,-2,3,0,8,4,2,-1,2021-08-07 13:02:25,146183
-1,-1,-2,5,0,-2,-1,-1,2021-08-07 13:02:25,146183
-1,-2,0,1,-2,-1,-2,0,2021-08-07 13:02:25,146183
0,-1,-4,-27,-16,-8,-2,-1,2021-08-07 13:02:25,146183
-2,-1,-1,1,-3,1,-1,-1,2021-08-07 13:02:25,146183
3,4,5,14,11,4,2,0,2021-08-07 13:02:25,146183
-6,-9,-10,-13,-13,-9,-7,-4,2021-08-07 13:02:25,147185
-1,0,3,3,9,6,1,0,2021-08-07 13:02:25,147185
1,0,0,-8,-2,1,0,0,2021-08-07 13:02:25,147185
0,0,2,8,11,5,1,1,2021-08-07 13:02:25,162182
0,0,4,8,2,-1,0,1,2021-08-07 13:02:25,177183
-1,-3,0,7,-2,-5,-3,-1,2021-08-07 13:02:25,177183
2,0,-6,-8,-7,0,0,1,2021-08-07 13:02:25,177183
-4,-5,-3,-16,-12,-11,-6,-3,2021-08-07 13:02:25,177183
-1,0,-3,0,-7,-5,-3,0,2021-08-07 13:02:25,177183
2,4,5,14,22,14,6,3,2021-08-07 13:02:25,177183
2,1,1,5,4,2,3,3,2021-08-07 13:02:25,177183
-8,-12,-12,-29,-24,-13,-10,-8,2021-08-07 13:02:25,193184
2,1,3,-1,2,0,1,0,2021-08-07 13:02:25,193184
-2,-2,-2,3,-3,-4,-3,-3,2021-08-07 13:02:25,193184
1,3,1,4,0,-2,1,1,2021-08-07 13:02:25,193184
-2,-2,-3,1,-2,3,1,0,2021-08-07 13:02:25,225181
1,2,1,5,10,8,5,1,2021-08-07 13:02:25,225181
1,2,3,4,2,-1,1,0,2021-08-07 13:02:25,225181
-3,-3,0,5,8,2,0,-2,2021-08-07 13:02:25,225181
4,7,3,8,12,6,5,3,2021-08-07 13:02:25,241182
-2,-2,-1,-14,-14,-8,-6,-1,2021-08-07 13:02:25,241182
-4,-5,-7,-16,-19,-5,-4,-3,2021-08-07 13:02:25,241182
-1,-5,-2,-4,-9,-8,-7,-5,2021-08-07 13:02:25,241182
1,0,2,1,5,3,1,2,2021-08-07 13:02:25,257182
0,0,2,10,9,4,1,-1,2021-08-07 13:02:25,273182
1,1,0,-1,2,0,0,1,2021-08-07 13:02:25,273182
0,3,3,8,5,3,2,2,2021-08-07 13:02:25,273182
-2,-2,-2,1,-10,-6,-4,-1,2021-08-07 13:02:25,273182
1,0,2,2,11,6,3,2,2021-08-07 13:02:25,273182
-5,-5,-5,-10,-7,-7,-6,-5,2021-08-07 13:02:25,273182
-1,1,1,6,6,3,1,1,2021-08-07 13:02:25,273182
1,2,2,7,6,4,2,-1,2021-08-07 13:02:25,304185
-4,-4,-3,-5,-8,-5,-2,-3,2021-08-07 13:02:25,304185
0,1,1,4,2,0,-1,0,2021-08-07 13:02:25,304185
-3,-3,-2,-1,-6,-6,-2,-2,2021-08-07 13:02:25,304185
-2,-2,-7,-22,-20,-9,-4,-1,2021-08-07 13:02:25,320183
0,0,2,-6,-10,-8,-4,-3,2021-08-07 13:02:25,320183
1,-1,0,8,16,13,5,0,2021-08-07 13:02:25,320183
2,3,8,14,28,10,4,2,2021-08-07 13:02:25,320183
0,0,-4,4,-5,-1,0,-1,2021-08-07 13:02:25,336182
-4,-8,-12,-27,-18,-9,-6,-6,2021-08-07 13:02:25,336182
-2,0,0,1,-1,-3,-2,0,2021-08-07 13:02:25,336182
-3,-4,-2,-8,-17,-9,-5,-3,2021-08-07 13:02:25,336182
3,5,9,3,14,9,3,2,2021-08-07 13:02:25,367182
2,0,-11,9,2,1,0,2,2021-08-07 13:02:25,367182
0,-1,0,6,10,6,3,1,2021-08-07 13:02:25,367182
0,1,2,-9,-19,-10,-5,-3,2021-08-07 13:02:25,367182
4,3,9,24,24,14,6,4,2021-08-07 13:02:25,383221
-3,0,0,-7,-9,-6,-2,-1,2021-08-07 13:02:25,383221
-3,-5,-8,-18,-14,-5,-3,-2,2021-08-07 13:02:25,383221
-4,-7,-6,-16,-19,-12,-7,-6,2021-08-07 13:02:25,383221
0,-2,-6,-4,0,-1,-2,-1,2021-08-07 13:02:25,399220
2,4,5,15,16,8,4,1,2021-08-07 13:02:25,399220
1,3,4,10,8,5,3,1,2021-08-07 13:02:25,399220
-2,-3,-3,-4,-3,-1,-1,-2,2021-08-07 13:02:25,399220
-4,-3,-4,-9,-13,-7,-3,-3,2021-08-07 13:02:25,447222
0,1,5,7,6,2,2,1,2021-08-07 13:02:25,463221
3,3,5,9,10,4,2,-1,2021-08-07 13:02:25,479221
-2,-2,-5,-3,-5,-2,-1,-2,2021-08-07 13:02:25,479221
1,0,-4,-17,-3,-1,-1,0,2021-08-07 13:02:25,479221
0,0,2,-6,-8,-4,-2,2,2021-08-07 13:02:25,479221
-1,-1,-3,-9,-9,-5,-3,-1,2021-08-07 13:02:25,479221
0,-1,0,9,7,4,-1,0,2021-08-07 13:02:25,479221
0,1,0,7,9,4,3,-2,2021-08-07 13:02:25,480221
-4,-2,2,1,2,3,2,-2,2021-08-07 13:02:25,480221
-1,-3,-4,-3,-9,-8,-5,-2,2021-08-07 13:02:25,480221
0,2,-1,-4,11,7,5,1,2021-08-07 13:02:25,480221
0,0,3,8,1,-2,0,0,2021-08-07 13:02:25,480221
-2,-3,-5,-10,-15,-9,-5,-2,2021-08-07 13:02:25,480221
-1,0,6,11,7,4,1,1,2021-08-07 13:02:25,480221
0,0,-7,-7,3,2,0,1,2021-08-07 13:02:25,481219
1,3,3,3,3,1,1,0,2021-08-07 13:02:25,495220
1,0,1,5,8,5,3,0,2021-08-07 13:02:25,495220
-2,-4,-5,-3,-8,-6,-3,-2,2021-08-07 13:02:25,495220
1,0,-2,-20,-11,-6,-1,0,2021-08-07 13:02:25,495220
0,-3,-5,-10,-21,-11,-6,-1,2021-08-07 13:02:25,527219
1,1,2,13,19,9,4,0,2021-08-07 13:02:25,542220
0,3,4,11,23,13,6,2,2021-08-07 13:02:25,542220
-3,1,4,15,12,4,2,-1,2021-08-07 13:02:25,558220
-2,1,1,1,3,2,-1,0,2021-08-07 13:02:25,558220
-1,3,2,-4,-10,-6,-5,-2,2021-08-07 13:02:25,558220
-3,-6,-6,-16,-18,-11,-7,-4,2021-08-07 13:02:25,558220
-1,-3,-6,-9,-13,-6,-3,-1,2021-08-07 13:02:25,558220
-1,-4,0,6,9,4,0,1,2021-08-07 13:02:25,558220
0,0,1,6,2,1,-1,2,2021-08-07 13:02:25,558220
0,2,-2,-13,-11,-5,-1,-3,2021-08-07 13:02:25,558220
2,2,0,2,-2,-1,-1,1,2021-08-07 13:02:25,558220
-2,-2,2,13,8,3,1,0,2021-08-07 13:02:25,590454
-2,-2,-1,-7,-5,-1,-1,-3,2021-08-07 13:02:25,590454
-2,-1,-6,-5,-7,-5,-4,-2,2021-08-07 13:02:25,590454
1,2,2,-6,-7,-3,-2,-1,2021-08-07 13:02:25,590454
1,0,-3,-2,0,0,0,0,2021-08-07 13:02:25,605739
-1,-1,2,6,4,1,-1,1,2021-08-07 13:02:25,605739
-1,-2,0,7,5,0,0,0,2021-08-07 13:02:25,605739
-1,0,1,3,4,2,2,0,2021-08-07 13:02:25,605739
-1,0,0,-1,1,2,-1,-1,2021-08-07 13:02:25,637739
-4,-6,-9,-16,-10,-7,-6,-4,2021-08-07 13:02:25,653740
-2,-5,-4,-11,-15,-10,-5,-2,2021-08-07 13:02:25,653740
-1,-1,0,1,3,3,-1,-1,2021-08-07 13:02:25,653740
3,3,4,7,4,3,4,4,2021-08-07 13:02:25,653740
0,2,2,6,4,0,0,0,2021-08-07 13:02:25,653740
3,2,1,6,7,4,0,1,2021-08-07 13:02:25,653740
0,-3,-4,0,0,1,-2,-1,2021-08-07 13:02:25,654739
-3,-6,-6,-8,-9,-5,-4,-3,2021-08-07 13:02:25,654739
-4,-7,-9,-23,-19,-12,-7,-5,2021-08-07 13:02:25,654739
2,3,4,-5,-5,1,0,2,2021-08-07 13:02:25,654739
6,8,13,31,49,27,12,4,2021-08-07 13:02:25,654739
-1,0,-2,5,-3,-5,-2,-2,2021-08-07 13:02:25,685740
0,1,1,4,7,5,4,2,2021-08-07 13:02:25,685740
-6,-8,-9,-24,-26,-16,-9,-6,2021-08-07 13:02:25,685740
-3,-3,-4,-11,-17,-10,-4,-2,2021-08-07 13:02:25,685740
3,3,1,1,6,6,2,-1,2021-08-07 13:02:25,701742
-3,-3,0,2,-1,-3,-4,-3,2021-08-07 13:02:25,701742
1,4,2,6,-2,-2,2,2,2021-08-07 13:02:25,701742
-1,1,-1,2,3,2,1,2,2021-08-07 13:02:25,701742
-2,-5,-3,-8,-1,-2,0,-3,2021-08-07 13:02:25,733739
1,0,-1,1,-7,-4,-2,-1,2021-08-07 13:02:25,748739
1,0,0,-2,2,2,0,0,2021-08-07 13:02:25,748739
-2,-2,-2,-5,-8,-7,-3,-3,2021-08-07 13:02:25,748739
0,1,-2,-2,3,3,1,0,2021-08-07 13:02:25,748739
-1,1,1,1,-4,-5,-3,0,2021-08-07 13:02:25,748739
-4,-1,0,10,9,3,-1,0,2021-08-07 13:02:25,748739
2,3,6,22,15,7,4,3,2021-08-07 13:02:25,748739
0,-1,-4,-10,6,6,-1,-2,2021-08-07 13:02:25,764740
1,-1,0,-6,1,1,2,0,2021-08-07 13:02:25,764740
-1,-3,-3,-12,-11,-7,-4,-4,2021-08-07 13:02:25,764740
-3,-1,-3,-9,-27,-19,-10,-2,2021-08-07 13:02:25,764740
3,4,6,24,16,8,4,2,2021-08-07 13:02:25,780740
2,1,-1,-3,1,3,1,2,2021-08-07 13:02:25,796739
-1,-1,-4,-6,9,7,2,-2,2021-08-07 13:02:25,827740
-5,-9,-3,-13,-14,-6,-4,-5,2021-08-07 13:02:25,843738
-3,0,-4,0,-7,-4,-1,0,2021-08-07 13:02:25,843738
0,-1,-1,-5,-8,-7,-4,-3,2021-08-07 13:02:25,843738
0,-1,3,11,0,3,1,-1,2021-08-07 13:02:25,843738
7,8,8,21,30,15,8,5,2021-08-07 13:02:25,843738
1,0,1,-6,-6,-5,0,1,2021-08-07 13:02:25,843738
-3,0,-1,-1,-2,-2,-1,-3,2021-08-07 13:02:25,843738
-4,-4,1,-5,-11,-8,-6,-4,2021-08-07 13:02:25,844739
-1,-3,-14,-7,-2,0,-1,-1,2021-08-07 13:02:25,844739
-4,-4,-3,-12,-19,-12,-7,-3,2021-08-07 13:02:25,844739
5,6,4,23,29,20,11,7,2021-08-07 13:02:25,844739
-1,-1,-1,-10,4,1,1,0,2021-08-07 13:02:25,844739
-3,-2,3,0,-4,-3,0,-1,2021-08-07 13:02:25,844739
1,1,0,3,-4,-4,-1,-2,2021-08-07 13:02:25,851739
-3,-5,-6,-13,-24,-15,-8,-4,2021-08-07 13:02:25,852739
3,6,5,17,23,15,8,5,2021-08-07 13:02:25,859739
0,0,0,-4,-4,-2,0,-1,2021-08-07 13:02:25,859739
-1,-1,-2,-8,-5,-2,-2,0,2021-08-07 13:02:25,875740
-4,-6,-3,-3,-1,0,-1,-4,2021-08-07 13:02:25,891739
-1,-1,-4,1,-4,-5,-2,0,2021-08-07 13:02:25,891739
2,6,4,6,5,1,2,1,2021-08-07 13:02:25,891739
-1,-5,-3,2,3,1,-2,-3,2021-08-07 13:02:25,907739
5,9,9,8,8,7,5,4,2021-08-07 13:02:25,907739
-4,-6,-7,-10,-12,-8,-5,-4,2021-08-07 13:02:25,907739
-2,-3,-4,-9,-11,-5,-3,-2,2021-08-07 13:02:25,907739
0,1,2,5,3,3,1,0,2021-08-07 13:02:25,907739
-1,-1,-4,-6,-1,-2,-2,-2,2021-08-07 13:02:25,907739
2,1,2,1,8,7,3,1,2021-08-07 13:02:25,938740
-3,-4,-2,1,-6,-4,-2,-4,2021-08-07 13:02:25,939256
2,1,1,-1,5,4,0,0,2021-08-07 13:02:25,939256
-5,-7,-6,-6,-12,-9,-5,-4,2021-08-07 13:02:25,939256
-1,-4,-5,-19,-19,-10,-5,-2,2021-08-07 13:02:25,939256
0,-1,0,-1,5,6,-1,0,2021-08-07 13:02:25,939742
0,0,1,6,0,-2,2,-3,2021-08-07 13:02:25,970760
0,-1,0,3,7,7,2,0,2021-08-07 13:02:25,970760
-4,-2,-1,1,-5,-9,-3,-3,2021-08-07 13:02:25,970760
0,0,-1,-8,-15,-7,-2,-1,2021-08-07 13:02:25,970760
5,6,7,10,21,11,6,6,2021-08-07 13:02:25,970760
0,0,-2,-2,1,-1,1,0,2021-08-07 13:02:25,970760
-1,-3,-2,-1,0,-1,-1,-1,2021-08-07 13:02:25,986761
-4,-3,-2,-7,-10,-6,-4,-2,2021-08-07 13:02:25,986761
-3,-5,-2,-5,-14,-11,-6,-3,2021-08-07 13:02:26,002761
1,3,1,4,4,4,1,1,2021-08-07 13:02:26,002761
3,4,3,9,13,9,5,4,2021-08-07 13:02:26,018762
-3,-7,-5,-10,-11,-6,-5,-5,2021-08-07 13:02:26,050759
1,2,1,-15,-6,0,0,0,2021-08-07 13:02:26,050759
-3,-6,-3,-6,-6,-6,-5,-3,2021-08-07 13:02:26,050759
-1,1,2,11,8,4,2,0,2021-08-07 13:02:26,050759
1,4,11,10,9,3,2,2,2021-08-07 13:02:26,050759
-1,0,-6,6,-2,-1,-1,0,2021-08-07 13:02:26,051761
-2,-3,-6,-17,-7,-2,-3,-3,2021-08-07 13:02:26,051761
-2,-2,-2,-1,1,-1,-2,-1,2021-08-07 13:02:26,066759
3,3,4,7,3,2,1,2,2021-08-07 13:02:26,066759
0,3,3,10,7,3,2,2,2021-08-07 13:02:26,066759
-3,-3,-3,-11,-15,-9,-6,-2,2021-08-07 13:02:26,066759
-1,-1,0,7,10,8,3,-1,2021-08-07 13:02:26,066759
-3,-5,-3,-4,-1,-1,-2,-2,2021-08-07 13:02:26,066759
0,0,2,4,4,1,2,1,2021-08-07 13:02:26,082761
0,1,1,9,10,3,2,1,2021-08-07 13:02:26,098761
-3,-3,-3,-4,-12,-9,-5,-3,2021-08-07 13:02:26,098761
0,-1,-5,-10,-3,-4,-2,-1,2021-08-07 13:02:26,098761
0,-1,0,1,2,2,0,-1,2021-08-07 13:02:26,098761
2,0,3,7,6,3,1,1,2021-08-07 13:02:26,098761
-2,-2,-3,3,-1,-2,-2,-2,2021-08-07 13:02:26,098761
-1,-1,-3,-8,-1,1,0,-3,2021-08-07 13:02:26,099761
-3,-4,-8,-19,-15,-6,-6,-2,2021-08-07 13:02:26,129761
-1,1,3,3,5,1,0,-1,2021-08-07 13:02:26,129761
1,-1,-1,-3,-4,-4,-2,-3,2021-08-07 13:02:26,129761
4,2,4,8,3,3,2,2,2021-08-07 13:02:26,129761
-4,-7,-5,-6,-8,-4,-4,-5,2021-08-07 13:02:26,145761
1,1,1,2,4,5,2,1,2021-08-07 13:02:26,145761
1,5,5,9,10,4,2,2,2021-08-07 13:02:26,145761
-2,-2,-6,-10,-6,-4,-3,-1,2021-08-07 13:02:26,145761
0,-1,2,2,1,-1,0,1,2021-08-07 13:02:26,161993
0,-2,-2,1,-4,-2,-2,-3,2021-08-07 13:02:26,161993
-5,-6,-5,-13,-17,-10,-5,-3,2021-08-07 13:02:26,161993
3,5,4,12,10,7,3,1,2021-08-07 13:02:26,161993
1,2,0,-4,6,3,2,2,2021-08-07 13:02:26,177278
1,2,3,6,4,1,1,2,2021-08-07 13:02:26,193278
0,-1,-4,-4,-1,1,0,-4,2021-08-07 13:02:26,225277
-3,-2,-3,-4,-6,-5,-3,0,2021-08-07 13:02:26,241278
-5,-5,-4,-17,-18,-9,-4,-5,2021-08-07 13:02:26,241278
2,6,6,1,-5,-2,-2,2,2021-08-07 13:02:26,241278
0,2,-5,5,9,4,1,2,2021-08-07 13:02:26,241278
1,1,0,-3,-3,0,0,2,2021-08-07 13:02:26,241278
1,-1,-1,9,16,10,2,1,2021-08-07 13:02:26,241278
-1,-2,-2,-9,-8,-7,-3,-1,2021-08-07 13:02:26,241278
-2,-3,0,0,-2,2,-1,-3,2021-08-07 13:02:26,242278
1,3,4,11,16,9,4,2,2021-08-07 13:02:26,242278
-1,0,1,2,1,-3,-1,-2,2021-08-07 13:02:26,242278
-1,-4,-5,-9,-10,-5,-4,-1,2021-08-07 13:02:26,242278
1,1,1,-1,-1,-2,-1,1,2021-08-07 13:02:26,242278
-3,-2,-2,-2,1,0,-2,-3,2021-08-07 13:02:26,242278
0,1,2,3,-4,-3,-1,-1,2021-08-07 13:02:26,257277
-5,-5,-4,-2,-5,-3,-3,-3,2021-08-07 13:02:26,257277
1,0,2,6,9,7,3,3,2021-08-07 13:02:26,257277
-1,-4,-4,-3,-10,-6,-5,-3,2021-08-07 13:02:26,257277
1,0,-2,-19,-9,-3,-3,0,2021-08-07 13:02:26,288277
-3,-3,-1,6,8,5,1,-1,2021-08-07 13:02:26,289281
0,-1,0,-2,-2,-2,-1,0,2021-08-07 13:02:26,289281
-1,0,0,1,-6,-5,-2,0,2021-08-07 13:02:26,289281
0,-2,-1,-2,-15,-5,-3,-1,2021-08-07 13:02:26,289281
4,8,7,28,45,23,11,4,2021-08-07 13:02:26,290278
1,1,-4,-11,-8,-3,-1,1,2021-08-07 13:02:26,305278
-7,-10,-11,-41,-23,-12,-7,-8,2021-08-07 13:02:26,321277
-1,0,-2,0,-7,-7,-4,-1,2021-08-07 13:02:26,337276
-4,-5,-5,-13,-19,-11,-4,-3,2021-08-07 13:02:26,353277
1,1,4,13,4,0,0,1,2021-08-07 13:02:26,369277
5,6,6,16,12,6,2,3,2021-08-07 13:02:26,369277
0,2,2,15,27,15,5,1,2021-08-07 13:02:26,369277
2,3,3,5,3,3,0,2,2021-08-07 13:02:26,369277
0,1,1,-2,1,-1,1,-1,2021-08-07 13:02:26,369277
1,1,-1,-8,-9,-5,-1,3,2021-08-07 13:02:26,369277
0,-2,-3,1,-7,-3,-2,0,2021-08-07 13:02:26,370279
-2,-4,-6,-10,-5,-3,-2,-1,2021-08-07 13:02:26,370279
-4,-5,-4,-6,-10,-5,-2,-2,2021-08-07 13:02:26,370279
-1,-2,0,-4,-12,-7,-3,-1,2021-08-07 13:02:26,370279
-1,2,3,18,25,15,6,-1,2021-08-07 13:02:26,384275
-2,0,1,-6,-4,0,0,-2,2021-08-07 13:02:26,384275
0,-1,1,-2,1,-1,-3,-2,2021-08-07 13:02:26,384275
-1,-1,-2,6,2,-1,1,-1,2021-08-07 13:02:26,384275
-6,-6,-2,-9,-10,-7,-6,-5,2021-08-07 13:02:26,415277
2,2,-4,-11,-20,-10,-3,-1,2021-08-07 13:02:26,431278
2,2,3,13,21,12,6,3,2021-08-07 13:02:26,447279
2,3,2,6,9,5,1,1,2021-08-07 13:02:26,447279
0,0,-4,-15,-17,-8,-4,-1,2021-08-07 13:02:26,447279
-6,-6,-4,-4,0,-1,-3,-3,2021-08-07 13:02:26,447279
-1,-4,-2,-4,-13,-11,-5,-2,2021-08-07 13:02:26,447279
1,1,3,14,18,11,6,2,2021-08-07 13:02:26,447279
0,-2,-1,5,-2,-2,-1,-1,2021-08-07 13:02:26,448279
3,2,2,-3,7,1,2,0,2021-08-07 13:02:26,448279
-2,-2,-3,-3,-8,-5,-4,-2,2021-08-07 13:02:26,448279
-3,-5,-3,-9,-7,-1,-2,-4,2021-08-07 13:02:26,448279
1,3,3,6,18,9,5,2,2021-08-07 13:02:26,463279
-2,-3,-1,7,-4,-4,-3,-2,2021-08-07 13:02:26,463279
-1,2,3,10,8,1,1,1,2021-08-07 13:02:26,463279
-3,-3,-2,-8,-8,-7,-3,-3,2021-08-07 13:02:26,463279
0,0,0,-9,-7,-3,0,0,2021-08-07 13:02:26,479277
-5,-9,-8,-20,-15,-8,-7,-5,2021-08-07 13:02:26,495277
-2,-2,-5,-10,-8,-1,-2,-1,2021-08-07 13:02:26,495277
0,1,4,13,5,1,-1,-1,2021-08-07 13:02:26,495277
3,4,1,8,6,4,2,2,2021-08-07 13:02:26,495277
-1,0,-1,-4,0,0,0,1,2021-08-07 13:02:26,495277
-3,-5,-5,-15,-13,-7,-6,-4,2021-08-07 13:02:26,495277
0,1,2,6,8,3,1,1,2021-08-07 13:02:26,495277
-3,-5,-6,-9,-25,-16,-9,-3,2021-08-07 13:02:26,526278
6,7,6,19,27,20,11,4,2021-08-07 13:02:26,542277
-1,-2,-2,-4,0,0,-1,-1,2021-08-07 13:02:26,542277
2,0,-3,-3,-1,-2,0,1,2021-08-07 13:02:26,542277
-3,-5,-2,-2,-5,-4,-2,-2,2021-08-07 13:02:26,557277
-4,-3,-3,-4,-16,-12,-7,-3,2021-08-07 13:02:26,573276
1,1,2,-4,-1,2,-1,0,2021-08-07 13:02:26,589276
0,1,1,0,4,5,4,0,2021-08-07 13:02:26,589276
-2,-1,-3,-3,-2,-5,-2,-2,2021-08-07 13:02:26,589276
0,-3,0,0,-1,0,-1,-2,2021-08-07 13:02:26,589276
-2,0,-2,-4,-6,-3,-1,0,2021-08-07 13:02:26,589276
-2,-4,-3,-6,-8,-4,-3,0,2021-08-07 13:02:26,589276
2,3,3,8,11,5,4,0,2021-08-07 13:02:26,589276
0,0,-1,-1,-2,0,-1,0,2021-08-07 13:02:26,590278
0,-3,0,-4,-3,-2,-1,-1,2021-08-07 13:02:26,590278
-5,-4,-5,-2,-4,-3,-3,-2,2021-08-07 13:02:26,590278
2,1,0,-2,-2,0,1,1,2021-08-07 13:02:26,605278
2,1,2,6,6,2,0,0,2021-08-07 13:02:26,605278
-1,-3,-4,-4,-11,-7,-4,-4,2021-08-07 13:02:26,605278
1,1,7,4,11,7,4,1,2021-08-07 13:02:26,605278
3,4,2,7,8,5,4,4,2021-08-07 13:02:26,621278
-4,-5,-8,-5,-6,-8,-5,-5,2021-08-07 13:02:26,621278
-2,0,-1,0,-1,2,1,-1,2021-08-07 13:02:26,621278
1,0,-3,-1,-3,-2,0,-1,2021-08-07 13:02:26,621278
-4,-4,0,-11,-24,-16,-7,-3,2021-08-07 13:02:26,653277
4,4,5,15,27,18,8,4,2021-08-07 13:02:26,653277
0,1,2,5,6,4,1,1,2021-08-07 13:02:26,653277
-4,-3,-3,1,1,-1,-1,-2,2021-08-07 13:02:26,653277
1,-1,0,-9,-2,1,0,0,2021-08-07 13:02:26,653277
2,1,3,4,-7,-7,-1,0,2021-08-07 13:02:26,653277
1,2,2,-4,3,4,0,-2,2021-08-07 13:02:26,685279
-1,0,-2,3,10,2,1,0,2021-08-07 13:02:26,700278
-5,-6,-8,-23,-20,-7,-5,-4,2021-08-07 13:02:26,716277
-8,-8,-5,-15,-14,-11,-10,-6,2021-08-07 13:02:26,716277
0,3,3,6,1,0,0,1,2021-08-07 13:02:26,716277
3,5,5,11,3,2,2,3,2021-08-07 13:02:26,716277
5,6,4,19,23,12,8,5,2021-08-07 13:02:26,716277
-4,-2,-2,-6,-4,-3,-1,-2,2021-08-07 13:02:26,716277
0,-2,-1,-3,-9,-7,-3,-2,2021-08-07 13:02:26,717279
1,1,-2,-3,-3,-2,-3,-1,2021-08-07 13:02:26,717279
0,0,2,9,9,5,1,0,2021-08-07 13:02:26,732278
-1,-4,-2,-4,2,3,1,0,2021-08-07 13:02:26,732278
-1,-4,-5,-1,-6,-3,-1,-1,2021-08-07 13:02:26,732278
1,3,0,-11,-12,-6,-1,0,2021-08-07 13:02:26,732278
1,2,5,12,17,10,3,1,2021-08-07 13:02:26,747279
0,2,1,4,-3,-5,-1,-1,2021-08-07 13:02:26,747279
-3,-2,-5,-3,-2,0,2,0,2021-08-07 13:02:26,747279
0,0,-1,4,9,4,3,0,2021-08-07 13:02:26,747279
-5,-3,-2,-12,-15,-9,-5,-6,2021-08-07 13:02:26,764277
-1,-1,-1,-9,-5,-5,-3,-4,2021-08-07 13:02:26,780276
0,-2,-7,0,-6,-5,-3,-2,2021-08-07 13:02:26,795275
-1,-2,-3,-10,-3,3,2,1,2021-08-07 13:02:26,795275
-1,-1,-3,4,2,0,-3,-2,2021-08-07 13:02:26,795275
0,-2,2,4,0,-1,0,0,2021-08-07 13:02:26,795275
2,3,8,3,3,0,1,1,2021-08-07 13:02:26,795275
1,-1,-1,4,1,0,-1,0,2021-08-07 13:02:26,795275
-4,-6,-4,-7,-11,-8,-5,-3,2021-08-07 13:02:26,796277
3,6,6,15,13,7,2,1,2021-08-07 13:02:26,796277
0,-3,-4,-2,5,4,-1,1,2021-08-07 13:02:26,796277
-2,1,1,1,1,0,-1,0,2021-08-07 13:02:26,796277
-1,-3,-1,-3,-5,-4,-1,-1,2021-08-07 13:02:26,826277
-5,-3,-4,-2,-7,-4,-4,-3,2021-08-07 13:02:26,826277
-1,0,-2,-9,-3,-1,0,0,2021-08-07 13:02:26,826277
-3,-4,-1,3,-2,-3,-3,-2,2021-08-07 13:02:26,826277
2,2,3,5,9,6,2,1,2021-08-07 13:02:26,842277
-2,-3,-4,-5,-8,-6,-2,1,2021-08-07 13:02:26,842277
-2,0,2,2,4,-1,-3,-2,2021-08-07 13:02:26,842277
-4,-4,-4,-11,-10,-5,-5,-4,2021-08-07 13:02:26,842277
2,1,-1,2,5,3,1,1,2021-08-07 13:02:26,858277
-2,-5,-7,-19,-13,-7,-4,-2,2021-08-07 13:02:26,858277
-3,-4,1,3,10,6,2,-1,2021-08-07 13:02:26,858277
1,0,1,-5,-12,-9,-3,-2,2021-08-07 13:02:26,858277
-2,2,5,10,6,1,2,1,2021-08-07 13:02:26,890277
1,4,5,8,7,5,3,2,2021-08-07 13:02:26,890277
-2,-2,-4,-4,-4,-4,-2,0,2021-08-07 13:02:26,890277
0,0,1,-3,-2,-2,-3,-1,2021-08-07 13:02:26,890277
-1,-3,-5,3,2,0,0,-2,2021-08-07 13:02:26,890277
-5,-7,-9,-15,-16,-10,-6,-5,2021-08-07 13:02:26,890277
-1,-1,4,-2,-1,2,1,0,2021-08-07 13:02:26,906277
-1,1,2,7,10,4,2,-1,2021-08-07 13:02:26,906277
1,0,-3,-12,-14,-6,-2,1,2021-08-07 13:02:26,922278
-1,-1,6,3,11,4,1,0,2021-08-07 13:02:26,938276
1,2,-4,5,3,-1,-1,0,2021-08-07 13:02:26,938276
-2,-6,-6,-4,-2,-2,0,-1,2021-08-07 13:02:26,938276
1,1,2,5,8,4,3,2,2021-08-07 13:02:26,938276
-1,0,-4,-5,-17,-12,-5,-1,2021-08-07 13:02:26,938276
3,6,9,0,6,6,4,2,2021-08-07 13:02:26,938276
3,0,1,1,4,3,3,1,2021-08-07 13:02:26,938276
-4,-3,-7,-8,-5,-3,-2,-3,2021-08-07 13:02:26,954280
-2,-3,-2,3,3,1,0,-1,2021-08-07 13:02:26,954280
-2,-3,-4,-5,-11,-8,-3,-2,2021-08-07 13:02:26,970278
1,1,1,7,6,3,1,1,2021-08-07 13:02:26,970278
0,-1,2,12,7,2,0,-1,2021-08-07 13:02:26,985277
1,2,-5,-12,-7,-2,-2,-2,2021-08-07 13:02:26,985277
-1,-2,-2,-11,-12,-5,-4,-2,2021-08-07 13:02:26,985277
1,2,1,6,7,2,0,-1,2021-08-07 13:02:26,985277
-1,-1,3,-2,-4,-4,-4,-2,2021-08-07 13:02:27,001278
1,1,3,17,9,5,4,3,2021-08-07 13:02:27,001278
0,-1,0,-6,5,5,2,2,2021-08-07 13:02:27,001278
0,-1,-1,-9,0,3,1,-1,2021-08-07 13:02:27,001278
-7,-9,-9,-17,-14,-11,-8,-6,2021-08-07 13:02:27,033276
-2,-2,-1,5,0,-1,-2,-1,2021-08-07 13:02:27,033276
2,2,4,8,3,1,0,1,2021-08-07 13:02:27,033276
0,3,2,4,-3,-3,0,1,2021-08-07 13:02:27,033276
-1,1,0,-3,-3,-3,-1,1,2021-08-07 13:02:27,033276
-1,0,-3,-7,-1,3,3,-1,2021-08-07 13:02:27,033276
0,-3,-2,2,2,0,0,-2,2021-08-07 13:02:27,049278
-3,-3,-1,-5,-4,-4,-3,-1,2021-08-07 13:02:27,065277
-1,-4,-5,-7,-4,-5,-3,-2,2021-08-07 13:02:27,081277
1,2,3,2,1,-1,-1,0,2021-08-07 13:02:27,097276
0,3,3,9,5,4,1,1,2021-08-07 13:02:27,097276
0,1,-1,8,5,5,1,0,2021-08-07 13:02:27,097276
1,1,-1,-4,0,0,1,-1,2021-08-07 13:02:27,097276
-2,-4,-5,-13,-6,-5,-3,-2,2021-08-07 13:02:27,097276
-4,-6,-7,-17,-21,-11,-7,-4,2021-08-07 13:02:27,097276
1,0,2,-5,2,6,3,1,2021-08-07 13:02:27,098278
1,1,1,11,11,6,4,0,2021-08-07 13:02:27,098278
-3,-4,-3,2,-3,-5,-3,-3,2021-08-07 13:02:27,098278
2,5,6,7,4,0,2,1,2021-08-07 13:02:27,113279
2,3,4,11,4,-1,0,2,2021-08-07 13:02:27,113279
2,1,3,2,-4,-1,-1,0,2021-08-07 13:02:27,129277
-2,-2,-7,-14,-4,0,0,-1,2021-08-07 13:02:27,129277
-1,-5,-8,-10,-5,-3,-4,-4,2021-08-07 13:02:27,129277
-5,-2,-2,-7,-13,-8,-5,-3,2021-08-07 13:02:27,129277
1,3,2,5,9,7,3,2,2021-08-07 13:02:27,145276
-2,-2,-2,4,4,2,0,-4,2021-08-07 13:02:27,161277
-1,-2,-4,-6,-5,-3,-1,0,2021-08-07 13:02:27,176278
1,-1,-1,2,6,3,1,1,2021-08-07 13:02:27,176278
0,0,0,4,0,0,0,-1,2021-08-07 13:02:27,176278
1,2,4,11,6,5,2,2,2021-08-07 13:02:27,176278
1,1,-1,-2,8,6,3,0,2021-08-07 13:02:27,176278
-2,-3,-3,-4,-13,-10,-4,-3,2021-08-07 13:02:27,192276
-4,-4,-2,-4,-8,-5,-3,-2,2021-08-07 13:02:27,192276
4,8,7,11,20,13,7,6,2021-08-07 13:02:27,192276
-1,1,0,1,-4,-2,-1,0,2021-08-07 13:02:27,192276
-3,-5,1,-13,-12,-6,-6,-5,2021-08-07 13:02:27,192276
-1,-3,-8,-8,-8,-5,-4,-2,2021-08-07 13:02:27,207277
-2,-4,-9,-1,-8,-5,-1,-1,2021-08-07 13:02:27,223277
-2,-2,0,11,17,8,5,1,2021-08-07 13:02:27,239278
4,7,8,16,13,10,7,5,2021-08-07 13:02:27,239278
-1,3,8,9,5,1,0,0,2021-08-07 13:02:27,239278
-3,-3,-2,-15,-16,-9,-7,-6,2021-08-07 13:02:27,239278
-3,-3,-6,0,-2,-2,-3,-3,2021-08-07 13:02:27,239278
-4,-3,-9,-21,-6,-3,-4,-4,2021-08-07 13:02:27,239278
1,0,1,0,4,3,0,-2,2021-08-07 13:02:27,240278
3,0,1,2,-1,-1,0,2,2021-08-07 13:02:27,240278
-1,1,1,3,-4,-3,-1,0,2021-08-07 13:02:27,255278
2,3,1,10,10,6,4,2,2021-08-07 13:02:27,271277
-2,-2,-1,-5,-4,-4,-2,-1,2021-08-07 13:02:27,271277
-2,-1,3,1,3,1,0,-1,2021-08-07 13:02:27,271277
-2,-3,-4,2,-8,-6,-5,-3,2021-08-07 13:02:27,271277
-1,-5,-11,-22,-13,-5,-3,-2,2021-08-07 13:02:27,271277
0,1,-1,-11,-5,-2,0,1,2021-08-07 13:02:27,287277
0,0,3,5,8,6,2,0,2021-08-07 13:02:27,303279
2,2,5,9,8,6,3,3,2021-08-07 13:02:27,303279
0,1,3,12,5,0,-1,0,2021-08-07 13:02:27,303279
2,-1,-7,-2,-5,-4,-2,-2,2021-08-07 13:02:27,303279
-1,-3,-2,-3,3,1,0,-1,2021-08-07 13:02:27,303279
-2,-1,-1,-1,-1,-1,-1,-2,2021-08-07 13:02:27,303279
2,3,3,3,0,0,0,0,2021-08-07 13:02:27,303279
-6,-7,-8,-4,-13,-7,-5,-4,2021-08-07 13:02:27,335277
3,2,2,-3,5,4,2,0,2021-08-07 13:02:27,335277
0,0,0,4,5,1,0,1,2021-08-07 13:02:27,335277
-2,-2,-2,-9,-6,-3,-1,-2,2021-08-07 13:02:27,335277
-2,-1,-2,-1,4,2,0,-3,2021-08-07 13:02:27,335277
0,0,0,0,-5,-4,-3,-2,2021-08-07 13:02:27,335277
0,-1,0,-4,-1,-1,-1,0,2021-08-07 13:02:27,351277
-2,-4,-4,-2,-4,-4,-2,-2,2021-08-07 13:02:27,351277
1,3,3,-1,0,2,1,3,2021-08-07 13:02:27,367277
-4,-1,-5,0,-1,-2,-3,-2,2021-08-07 13:02:27,399276
0,-1,1,-5,-1,1,-1,-1,2021-08-07 13:02:27,414278
-1,-2,-1,4,-1,-3,-2,-2,2021-08-07 13:02:27,414278
-1,0,1,-4,-1,-3,0,-2,2021-08-07 13:02:27,414278
-1,-1,-2,-8,-12,-7,-2,-2,2021-08-07 13:02:27,414278
-1,0,2,5,5,0,1,-4,2021-08-07 13:02:27,415278
-13,-10,-8,-2,1,-3,-7,-17,2021-08-07 13:02:27,415278
3,0,4,2,4,0,-1,6,2021-08-07 13:02:27,415278
16,7,0,-5,-6,-1,7,22,2021-08-07 13:02:27,415278
2,2,0,-5,-4,0,2,4,2021-08-07 13:02:27,415278
1,2,1,4,2,0,1,2,2021-08-07 13:02:27,415278
-7,-3,0,1,1,0,-3,-10,2021-08-07 13:02:27,416276
-10,-8,-7,-5,-8,-8,-8,-8,2021-08-07 13:02:27,416276
0,-1,0,-3,-1,0,1,-1,2021-08-07 13:02:27,430278
2,2,2,5,4,4,2,1,2021-08-07 13:02:27,430278
-1,-2,0,-2,-3,-1,-1,-1,2021-08-07 13:02:27,446277
-3,-2,-1,1,2,0,-1,-3,2021-08-07 13:02:27,446277
-3,-5,-8,-10,-9,-7,-6,-5,2021-08-07 13:02:27,446277
2,4,6,9,11,5,3,2,2021-08-07 13:02:27,446277
2,3,-2,8,5,1,0,4,2021-08-07 13:02:27,462277
-1,1,0,-7,-1,-2,-2,-3,2021-08-07 13:02:27,478277
0,-2,0,-8,-8,-4,-2,-2,2021-08-07 13:02:27,478277
-1,-4,2,-11,-14,-12,-5,1,2021-08-07 13:02:27,478277
2,0,-11,8,13,14,6,2,2021-08-07 13:02:27,478277
-3,-1,0,4,3,2,0,-2,2021-08-07 13:02:27,478277
-3,-2,-3,-2,-1,-3,-2,-3,2021-08-07 13:02:27,478277
-2,-3,-2,-12,-17,-9,-6,-1,2021-08-07 13:02:27,479278
2,2,8,10,12,10,6,2,2021-08-07 13:02:27,510277
-7,-8,-8,-15,-9,-8,-6,-7,2021-08-07 13:02:27,510277
2,2,3,12,6,2,3,2,2021-08-07 13:02:27,510277
0,0,-5,-2,0,1,1,1,2021-08-07 13:02:27,510277
-3,-2,0,-4,-12,-8,-3,-3,2021-08-07 13:02:27,526277
2,2,2,8,18,9,4,0,2021-08-07 13:02:27,526277
2,1,4,5,1,-1,-2,1,2021-08-07 13:02:27,526277
1,1,-1,2,3,0,1,1,2021-08-07 13:02:27,526277
-3,-5,-5,-12,-16,-11,-4,-4,2021-08-07 13:02:27,542277
1,-1,1,0,-4,2,0,0,2021-08-07 13:02:27,542277
2,3,2,12,15,9,4,2,2021-08-07 13:02:27,542277
1,2,-1,1,3,2,1,1,2021-08-07 13:02:27,542277
3,3,3,0,5,4,1,0,2021-08-07 13:02:27,572277
-6,-7,-6,-12,-22,-15,-9,-7,2021-08-07 13:02:27,572277
0,2,1,-2,-1,0,1,0,2021-08-07 13:02:27,572277
-1,-4,-6,-1,4,5,0,1,2021-08-07 13:02:27,572277
-5,-5,-3,-15,-19,-13,-7,-3,2021-08-07 13:02:27,572277
2,3,6,6,8,7,3,2,2021-08-07 13:02:27,572277
0,-2,-1,5,2,2,-1,-1,2021-08-07 13:02:27,588277
3,2,1,9,3,0,1,2,2021-08-07 13:02:27,588277
-1,-2,-3,-13,-3,-1,0,0,2021-08-07 13:02:27,604277
-2,-1,1,4,5,4,-1,-1,2021-08-07 13:02:27,604277
1,1,-1,1,-2,1,1,1,2021-08-07 13:02:27,604277
-1,-3,1,-1,-5,-4,-3,-1,2021-08-07 13:02:27,604277
0,-3,-8,-7,-5,-1,-1,-1,2021-08-07 13:02:27,623279
-1,0,-1,-1,3,0,-1,0,2021-08-07 13:02:27,624277
-2,2,3,-2,3,3,1,1,2021-08-07 13:02:27,624277
-3,-3,-3,-2,-3,-3,-3,-3,2021-08-07 13:02:27,624277
1,1,3,6,8,1,1,0,2021-08-07 13:02:27,651278
-1,2,0,-4,-3,-1,-1,0,2021-08-07 13:02:27,651278
-2,-3,-6,-6,-7,-5,-4,-3,2021-08-07 13:02:27,651278
-4,-6,-5,-10,-7,-7,-4,-4,2021-08-07 13:02:27,651278
3,1,6,2,6,5,2,2,2021-08-07 13:02:27,667277
-5,-7,-7,-5,-14,-13,-7,-6,2021-08-07 13:02:27,667277
6,8,8,18,24,16,9,6,2021-08-07 13:02:27,683276
0,-2,-2,-10,-10,-4,-1,0,2021-08-07 13:02:27,683276
-3,-2,-1,3,8,3,-1,-2,2021-08-07 13:02:27,699279
0,3,4,3,1,0,1,0,2021-08-07 13:02:27,715277
-4,-4,-5,-8,-16,-10,-7,-3,2021-08-07 13:02:27,715277
3,4,7,12,20,12,4,3,2021-08-07 13:02:27,715277
-2,-2,-1,1,-6,-4,-3,-1,2021-08-07 13:02:27,715277
-1,-4,-6,-7,-6,-3,-2,-1,2021-08-07 13:02:27,715277
-6,-9,-10,-20,-18,-10,-7,-5,2021-08-07 13:02:27,715277
2,3,2,0,8,7,5,1,2021-08-07 13:02:27,715277
2,3,4,5,2,-1,1,1,2021-08-07 13:02:27,716278
1,-1,0,8,4,3,0,0,2021-08-07 13:02:27,716278
-1,0,2,0,-3,-3,0,1,2021-08-07 13:02:27,731276
-2,-5,-5,-6,-6,-1,-1,-2,2021-08-07 13:02:27,731276
-1,1,2,1,-1,0,-1,1,2021-08-07 13:02:27,763277
-1,-3,-2,-3,-3,1,-1,0,2021-08-07 13:02:27,763277
1,1,-1,4,6,1,1,0,2021-08-07 13:02:27,763277
-3,-2,-3,-10,-9,-5,-3,-3,2021-08-07 13:02:27,763277
-3,-3,-6,-3,0,1,-1,-2,2021-08-07 13:02:27,763277
0,1,4,12,13,4,2,-1,2021-08-07 13:02:27,763277
0,3,2,-3,-2,-2,-1,2,2021-08-07 13:02:27,763277
-1,-2,-3,-2,-5,-3,-2,-1,2021-08-07 13:02:27,764277
0,1,1,3,3,2,2,0,2021-08-07 13:02:27,795278
-3,-6,-5,-7,-10,-7,-4,-3,2021-08-07 13:02:27,811277
0,1,0,10,5,4,3,-1,2021-08-07 13:02:27,843277
1,3,1,-1,2,1,0,0,2021-08-07 13:02:27,859277
-2,-1,-1,0,3,1,-1,-1,2021-08-07 13:02:27,875276
1,2,1,-8,-8,-1,1,2,2021-08-07 13:02:27,875276
0,-1,7,4,8,4,2,-1,2021-08-07 13:02:27,875276
-1,-2,-10,1,-2,-1,-1,1,2021-08-07 13:02:27,875276
-2,-1,1,2,0,-4,-2,-2,2021-08-07 13:02:27,875276
-1,-2,-3,-4,-7,-5,-3,-1,2021-08-07 13:02:27,875276
0,-1,0,-7,-2,0,0,-1,2021-08-07 13:02:27,875276
1,2,7,11,12,6,4,4,2021-08-07 13:02:27,875276
0,-1,-4,-3,-7,-4,-3,-1,2021-08-07 13:02:27,876280
0,-1,-1,1,-5,-6,-1,-4,2021-08-07 13:02:27,876280
1,0,-2,7,14,10,3,2,2021-08-07 13:02:27,876280
-1,-1,1,-7,-4,-2,-1,0,2021-08-07 13:02:27,876280
-2,-4,-5,-5,0,-2,-1,-1,2021-08-07 13:02:27,876280
-2,-4,-3,-4,-7,-5,-4,-2,2021-08-07 13:02:27,876280
1,2,2,0,-2,-1,-1,0,2021-08-07 13:02:27,876280
2,3,4,11,7,3,2,1,2021-08-07 13:02:27,891277
-2,-2,-4,-5,-6,-3,-2,-1,2021-08-07 13:02:27,907276
-2,-4,-4,-13,-8,-5,-3,-2,2021-08-07 13:02:27,907276
-3,-6,-5,-8,-10,-7,-6,-3,2021-08-07 13:02:27,907276
-2,-5,-1,-4,-7,-2,-3,-3,2021-08-07 13:02:27,907276
5,8,13,20,19,8,6,4,2021-08-07 13:02:27,907276
3,4,3,3,8,5,4,1,2021-08-07 13:02:27,907276
-4,-6,-8,-13,-14,-9,-7,-2,2021-08-07 13:02:27,907276
-2,-2,2,-3,-5,-3,-3,-1,2021-08-07 13:02:27,907276
-4,-6,-6,-9,-9,-4,-4,-3,2021-08-07 13:02:27,922280
2,2,3,13,14,8,2,2,2021-08-07 13:02:27,922280
0,2,0,-1,-6,-2,-1,-1,2021-08-07 13:02:27,922280
0,-2,-3,-3,-4,-5,-3,-2,2021-08-07 13:02:27,922280
1,0,0,1,9,8,4,0,2021-08-07 13:02:27,938276
-1,-1,1,0,-2,-2,0,-2,2021-08-07 13:02:27,938276
1,1,2,1,3,1,2,2,2021-08-07 13:02:27,954279
0,1,-3,-3,-1,-3,-2,0,2021-08-07 13:02:27,954279
0,-1,0,5,0,0,1,-2,2021-08-07 13:02:27,970278
1,3,2,-3,2,3,2,2,2021-08-07 13:02:27,986277
2,-1,-3,9,7,4,0,0,2021-08-07 13:02:28,002278
-4,-3,-4,-21,-10,-4,-4,-2,2021-08-07 13:02:28,002278
-1,-5,-3,-7,-10,-7,-5,-3,2021-08-07 13:02:28,002278
-5,-5,-5,-6,-8,-4,-4,-1,2021-08-07 13:02:28,002278
1,3,5,5,-3,-4,-1,1,2021-08-07 13:02:28,002278
4,4,5,22,22,12,6,3,2021-08-07 13:02:28,003277
-3,-3,-3,-1,-3,-2,-4,-3,2021-08-07 13:02:28,003277
0,0,1,-3,1,2,1,1,2021-08-07 13:02:28,003277
-4,-5,-9,-16,-8,-2,-1,-3,2021-08-07 13:02:28,003277
-2,-2,1,-2,-5,0,0,-3,2021-08-07 13:02:28,003277
-1,0,3,-2,2,-1,-2,-1,2021-08-07 13:02:28,034277
-2,0,-6,-6,-8,-6,-4,-3,2021-08-07 13:02:28,034277
-3,-2,0,5,6,4,-1,-1,2021-08-07 13:02:28,034277
6,8,6,9,9,5,3,4,2021-08-07 13:02:28,034277
-1,-2,-4,2,-4,-2,-1,0,2021-08-07 13:02:28,050278
2,1,0,-3,7,4,1,1,2021-08-07 13:02:28,056278
-2,-2,-5,-9,-11,-6,-2,-2,2021-08-07 13:02:28,056278
-4,-5,-4,-5,-7,-5,-3,-2,2021-08-07 13:02:28,056278
-3,-2,0,4,-4,-2,-3,-2,2021-08-07 13:02:28,066278
0,1,0,15,8,5,2,2,2021-08-07 13:02:28,066278
1,1,5,-8,6,4,1,-1,2021-08-07 13:02:28,066278
-1,1,2,1,-2,-1,0,-1,2021-08-07 13:02:28,066278
0,0,-2,-8,-8,-4,-3,-2,2021-08-07 13:02:28,098279
-2,-1,0,-1,-8,-5,-3,-1,2021-08-07 13:02:28,098279
1,-1,-1,10,7,3,3,1,2021-08-07 13:02:28,098279
2,0,0,1,0,-1,0,0,2021-08-07 13:02:28,098279
-4,-5,-9,-17,-20,-14,-7,-3,2021-08-07 13:02:28,098279
0,-2,0,14,23,17,6,2,2021-08-07 13:02:28,098279
1,1,2,3,4,0,2,0,2021-08-07 13:02:28,114278
-2,-1,1,-2,-6,-4,-3,-2,2021-08-07 13:02:28,114278
0,1,1,5,4,0,-2,0,2021-08-07 13:02:28,130276
1,0,2,-7,-10,-7,-2,-1,2021-08-07 13:02:28,130276
-2,-4,-4,0,-6,-3,-1,-2,2021-08-07 13:02:28,130276
-5,-8,-14,-25,-19,-11,-7,-6,2021-08-07 13:02:28,130276
3,4,5,6,12,7,4,1,2021-08-07 13:02:28,146276
-1,-1,1,3,6,4,1,-1,2021-08-07 13:02:28,162280
1,0,1,5,5,1,-1,-1,2021-08-07 13:02:28,162280
1,0,1,7,-6,-6,-1,0,2021-08-07 13:02:28,162280
0,1,-1,-5,-1,1,-2,-1,2021-08-07 13:02:28,162280
2,1,0,-4,-2,-2,-1,-1,2021-08-07 13:02:28,162280
-1,0,1,4,-4,-4,-2,-1,2021-08-07 13:02:28,162280
-1,-3,-7,-1,5,5,2,1,2021-08-07 13:02:28,163278
-2,-3,-2,-4,-6,-5,-1,-2,2021-08-07 13:02:28,194277
-3,-3,-4,-3,-1,-1,-2,-3,2021-08-07 13:02:28,194277
0,-1,-2,-12,-12,-6,-3,0,2021-08-07 13:02:28,194277
-1,-1,2,5,7,2,-1,-2,2021-08-07 13:02:28,194277
1,6,5,12,16,11,5,4,2021-08-07 13:02:28,194277
-2,-3,-3,4,-4,-3,-4,-3,2021-08-07 13:02:28,195277
1,1,-2,-3,-7,-3,-2,-1,2021-08-07 13:02:28,210278
-4,-3,-3,-15,-4,-1,-1,-2,2021-08-07 13:02:28,210278
0,-1,-4,-6,-6,-6,-2,-1,2021-08-07 13:02:28,226277
-1,1,2,0,3,2,2,0,2021-08-07 13:02:28,242276
-4,-6,-7,-3,-3,-5,-4,-3,2021-08-07 13:02:28,242276
6,8,10,19,13,6,5,3,2021-08-07 13:02:28,242276
-1,-2,-5,-11,-13,-7,-5,-1,2021-08-07 13:02:28,242276
1,0,-1,-4,-5,-2,0,1,2021-08-07 13:02:28,242276
0,-1,1,0,7,4,1,0,2021-08-07 13:02:28,242276
-2,-2,-4,0,1,1,0,-1,2021-08-07 13:02:28,242276
-3,-4,-4,-8,-19,-12,-7,-5,2021-08-07 13:02:28,274278
1,1,1,8,8,5,3,0,2021-08-07 13:02:28,290278
2,2,1,4,12,7,2,1,2021-08-07 13:02:28,290278
3,3,1,-2,-3,-1,0,1,2021-08-07 13:02:28,290278
-3,-4,-4,-5,-5,-3,-2,-3,2021-08-07 13:02:28,290278
-1,0,1,0,-6,-3,-3,-1,2021-08-07 13:02:28,291280
1,1,-1,-4,4,3,0,1,2021-08-07 13:02:28,291280
-3,-3,-1,14,7,1,-1,-3,2021-08-07 13:02:28,292278
3,1,0,-8,0,-1,-1,0,2021-08-07 13:02:28,306276
-3,-3,-5,-4,-5,-4,-2,-2,2021-08-07 13:02:28,322277
2,3,6,7,0,1,1,2,2021-08-07 13:02:28,322277
-1,-2,-3,-10,-10,-6,-4,0,2021-08-07 13:02:28,322277
-2,-1,0,6,9,3,1,-1,2021-08-07 13:02:28,322277
0,-1,0,-3,-2,-2,-3,-1,2021-08-07 13:02:28,322277
-2,-4,-2,-6,-8,-5,-2,-3,2021-08-07 13:02:28,322277
-2,-3,-1,1,4,3,1,-3,2021-08-07 13:02:28,322277
-2,-2,-3,2,-4,-4,-1,-1,2021-08-07 13:02:28,353280
3,6,4,11,12,5,4,4,2021-08-07 13:02:28,369280
-2,0,-2,-9,-8,-3,-1,-1,2021-08-07 13:02:28,369280
-1,-1,0,-8,-10,-5,-3,-3,2021-08-07 13:02:28,369280
-1,-2,0,1,5,3,1,-1,2021-08-07 13:02:28,369280
-2,-2,-2,-5,-5,-3,-3,-1,2021-08-07 13:02:28,369280
-1,-2,-2,5,1,0,0,0,2021-08-07 13:02:28,369280
0,2,4,2,7,5,1,2,2021-08-07 13:02:28,369280
1,3,3,20,20,8,4,2,2021-08-07 13:02:28,385277
-2,-4,-6,-21,-12,-9,-2,-3,2021-08-07 13:02:28,401278
1,0,-2,-11,-6,-2,0,1,2021-08-07 13:02:28,417275
-2,-3,-2,-1,-4,-3,-2,-1,2021-08-07 13:02:28,417275
-1,-2,1,2,-5,-5,-2,-2,2021-08-07 13:02:28,417275
1,0,3,8,3,0,1,0,2021-08-07 13:02:28,417275
1,1,4,9,11,5,1,1,2021-08-07 13:02:28,417275
0,0,-1,-2,2,2,0,0,2021-08-07 13:02:28,417275
-2,-4,-5,-6,-1,-1,-2,-3,2021-08-07 13:02:28,433279
-5,-5,-5,-11,-19,-10,-7,-4,2021-08-07 13:02:28,449275
4,5,5,12,9,6,2,2,2021-08-07 13:02:28,449275
1,-1,2,4,8,5,2,1,2021-08-07 13:02:28,465278
-3,-3,-3,-4,-3,0,-1,-2,2021-08-07 13:02:28,481277
1,-2,-3,-14,-13,-7,-3,-2,2021-08-07 13:02:28,488278
1,3,4,6,0,-1,1,2,2021-08-07 13:02:28,488278
-2,-1,-1,2,3,1,-1,-2,2021-08-07 13:02:28,488278
3,3,5,13,16,10,4,2,2021-08-07 13:02:28,489278
-3,-2,-3,-4,-3,-2,-2,-4,2021-08-07 13:02:28,489278
-5,-6,-7,-12,-6,-3,-3,-3,2021-08-07 13:02:28,497276
0,-1,-1,-7,-6,-5,-1,1,2021-08-07 13:02:28,497276
-3,-4,-5,-15,-13,-8,-6,-4,2021-08-07 13:02:28,497276
3,4,8,12,5,2,1,2,2021-08-07 13:02:28,497276
-1,-3,-1,2,1,-3,-3,-2,2021-08-07 13:02:28,497276
-2,-2,-2,-5,-9,-4,-4,-1,2021-08-07 13:02:28,497276
-2,-1,-1,5,8,6,0,0,2021-08-07 13:02:28,497276
2,2,1,11,16,8,4,1,2021-08-07 13:02:28,498279
-1,-4,-5,-10,-11,-6,-3,-3,2021-08-07 13:02:28,512277
0,0,-2,2,-3,-3,-1,-2,2021-08-07 13:02:28,512277
-4,-5,-6,-14,-18,-11,-5,-3,2021-08-07 13:02:28,528280
4,7,8,7,9,8,5,4,2021-08-07 13:02:28,528280
-3,-2,-3,-10,-7,-7,-4,-4,2021-08-07 13:02:28,528280
-2,-7,-6,-2,-2,-1,-2,-4,2021-08-07 13:02:28,528280
4,5,6,3,8,7,4,6,2021-08-07 13:02:28,560276
-3,-3,-3,1,2,-1,-1,-2,2021-08-07 13:02:28,576278
-2,-2,-1,-4,-6,-5,-1,-2,2021-08-07 13:02:28,591279
0,-1,-1,2,6,4,1,1,2021-08-07 13:02:28,591279
-2,-1,-3,-3,-2,-4,-2,-1,2021-08-07 13:02:28,591279
-3,-2,-2,-6,-7,-4,-3,-2,2021-08-07 13:02:28,591279
2,0,-2,5,-3,0,0,2,2021-08-07 13:02:28,591279
1,-1,0,-3,-2,0,-1,-1,2021-08-07 13:02:28,591279
3,3,3,-4,-6,-2,0,1,2021-08-07 13:02:28,591279
0,1,1,11,11,4,3,1,2021-08-07 13:02:28,591279
-2,-2,-2,0,4,3,0,-1,2021-08-07 13:02:28,623277
1,5,3,-1,-2,-1,1,2,2021-08-07 13:02:28,623277
-3,-6,-6,-5,-2,0,-2,-3,2021-08-07 13:02:28,623277
-1,-2,-4,-9,-9,-6,-3,-1,2021-08-07 13:02:28,623277
-1,-1,0,-3,-7,-4,0,0,2021-08-07 13:02:28,623277
0,2,2,4,-2,0,-1,1,2021-08-07 13:02:28,623277
3,2,4,13,24,14,6,2,2021-08-07 13:02:28,623277
0,-2,0,7,4,2,1,0,2021-08-07 13:02:28,624278
1,0,1,3,2,3,1,0,2021-08-07 13:02:28,624278
-1,0,-1,-3,5,2,3,0,2021-08-07 13:02:28,624278
-2,-5,-4,-11,-18,-9,-5,-4,2021-08-07 13:02:28,655276
-1,-1,-2,-4,-5,-4,-4,-1,2021-08-07 13:02:28,671277
1,3,4,8,13,8,4,1,2021-08-07 13:02:28,687276
-3,-1,-2,-4,-6,-5,-3,-3,2021-08-07 13:02:28,687276
-3,-2,-3,-12,-14,-8,-3,-1,2021-08-07 13:02:28,687276
-1,-3,-1,3,7,2,1,-1,2021-08-07 13:02:28,687276
0,1,1,-1,-7,-4,-2,0,2021-08-07 13:02:28,687276
-1,-1,1,-3,9,5,1,1,2021-08-07 13:02:28,687276
-3,-4,-3,0,-6,-6,-2,-3,2021-08-07 13:02:28,688277
-1,1,0,-12,-15,-7,-4,-3,2021-08-07 13:02:28,688277
-1,-1,1,2,2,0,-1,0,2021-08-07 13:02:28,688277
1,0,-1,7,7,7,2,0,2021-08-07 13:02:28,688277
0,-2,0,4,1,-1,0,-1,2021-08-07 13:02:28,719276
-5,-6,-7,-6,-9,-5,-4,-3,2021-08-07 13:02:28,719276
1,2,4,4,12,8,4,3,2021-08-07 13:02:28,719276
-5,-6,-5,-9,-16,-12,-7,-4,2021-08-07 13:02:28,719276
2,4,2,-3,-4,-3,1,-1,2021-08-07 13:02:28,719276
0,2,2,11,14,9,2,0,2021-08-07 13:02:28,719276
-2,-1,-4,-1,2,0,-2,-1,2021-08-07 13:02:28,735276
0,1,4,-4,-13,-11,-4,-2,2021-08-07 13:02:28,735276
0,-1,-9,-5,0,5,2,0,2021-08-07 13:02:28,735276
1,0,0,5,8,1,0,0,2021-08-07 13:02:28,735276
-2,-1,-2,-4,-4,-3,0,-2,2021-08-07 13:02:28,751276
0,-2,-1,4,-1,-1,1,1,2021-08-07 13:02:28,751276
-1,1,4,0,-2,-4,-2,0,2021-08-07 13:02:28,783277
-3,-2,-3,-6,-5,-1,-2,-2,2021-08-07 13:02:28,783277
-3,-2,-3,-10,-8,-4,-3,-3,2021-08-07 13:02:28,783277
-3,-4,-5,-18,-14,-8,-5,-1,2021-08-07 13:02:28,783277
1,3,7,13,15,6,2,3,2021-08-07 13:02:28,783277
3,2,2,4,7,3,3,3,2021-08-07 13:02:28,783277
-1,-1,1,7,2,-2,0,-2,2021-08-07 13:02:28,783277
-2,-4,-6,-7,-12,-8,-4,-2,2021-08-07 13:02:28,783277
1,0,0,7,11,8,3,2,2021-08-07 13:02:28,799277
-1,-2,-3,-10,-5,-1,-1,-3,2021-08-07 13:02:28,799277
-1,-3,-1,-2,-5,-5,-3,-2,2021-08-07 13:02:28,815275
-3,-5,-2,1,0,-3,-2,-3,2021-08-07 13:02:28,815275
-1,-1,0,2,-1,-1,0,-1,2021-08-07 13:02:28,831276
3,4,3,8,14,8,5,4,2021-08-07 13:02:28,847277
0,2,1,-3,-2,-1,0,1,2021-08-07 13:02:28,878275
-2,-5,-6,0,-1,1,-3,-3,2021-08-07 13:02:28,894277
0,0,0,0,-3,-6,-3,-2,2021-08-07 13:02:28,902276
-4,-4,-5,-14,-30,-18,-11,-4,2021-08-07 13:02:28,902276
4,3,3,14,37,26,11,5,2021-08-07 13:02:28,903277
-1,0,1,-4,0,-3,-1,0,2021-08-07 13:02:28,903277
