EMG 1,EMG 2,EMG 3,EMG 4,EMG 5,EMG 6,EMG 7,EMG 8,Timestamp,Milliseconds
-1,5,3,-2,-13,-8,-2,-1,2021-08-07 13:03:52,124507
0,-1,2,3,7,5,1,1,2021-08-07 13:03:52,124507
-3,-7,-6,-2,-3,-5,-3,-4,2021-08-07 13:03:52,124507
5,7,6,1,-3,4,4,3,2021-08-07 13:03:52,124507
0,-1,-2,0,6,3,1,-1,2021-08-07 13:03:52,124507
-2,-1,-5,-11,-10,-6,-4,-1,2021-08-07 13:03:52,124507
-1,1,2,3,1,2,2,2,2021-08-07 13:03:52,124507
-4,-3,-3,1,-1,-4,-3,-1,2021-08-07 13:03:52,124507
0,0,1,-2,-6,-4,-3,0,2021-08-07 13:03:52,124507
-6,-6,-6,-10,-14,-6,-4,-3,2021-08-07 13:03:52,124507
1,1,2,6,17,9,3,2,2021-08-07 13:03:52,124507
1,0,-2,-5,-6,-2,-1,-2,2021-08-07 13:03:52,125509
-1,0,1,4,-1,-1,-1,0,2021-08-07 13:03:52,139508
-3,-3,-5,-2,7,0,-3,-3,2021-08-07 13:03:52,139508
-2,-2,-5,-14,-20,-15,-5,-3,2021-08-07 13:03:52,155510
-1,-2,-1,-3,-12,-5,-1,-1,2021-08-07 13:03:52,171508
1,-1,1,14,38,21,8,1,2021-08-07 13:03:52,187484
-3,-4,0,2,-4,-5,-2,-3,2021-08-07 13:03:52,203530
3,7,6,3,3,1,1,0,2021-08-07 13:03:52,203530
1,1,0,-7,-12,-9,-3,-1,2021-08-07 13:03:52,203530
-5,-7,-11,-21,-32,-20,-10,-5,2021-08-07 13:03:52,203530
3,2,3,5,10,11,7,3,2021-08-07 13:03:52,203530
-2,-3,-4,-3,-1,-1,-1,-1,2021-08-07 13:03:52,251484
0,0,-2,-9,-7,-2,-2,-2,2021-08-07 13:03:52,251484
0,-2,-1,6,10,4,3,0,2021-08-07 13:03:52,251484
1,-1,-1,-1,-2,-1,1,1,2021-08-07 13:03:52,251484
0,2,3,2,0,0,0,0,2021-08-07 13:03:52,251484
-4,-1,-1,-2,-6,-5,-3,-4,2021-08-07 13:03:52,251484
-7,-6,-9,-21,-28,-17,-11,-6,2021-08-07 13:03:52,251484
4,3,5,12,16,13,6,4,2021-08-07 13:03:52,252484
3,5,6,14,13,6,4,3,2021-08-07 13:03:52,252484
-2,-4,-6,-4,-2,-1,1,-2,2021-08-07 13:03:52,252484
-3,-5,-6,-3,5,4,1,0,2021-08-07 13:03:52,252484
2,6,4,1,-2,-3,1,2,2021-08-07 13:03:52,252484
0,1,0,-2,-1,1,-1,-1,2021-08-07 13:03:52,252484
1,1,2,2,-3,0,0,-2,2021-08-07 13:03:52,253484
-3,-2,-1,-1,-1,-5,-1,-2,2021-08-07 13:03:52,267480
-2,-6,-8,-8,-2,2,2,-1,2021-08-07 13:03:52,283521
-4,-4,-3,0,-2,-2,-2,-2,2021-08-07 13:03:52,287484
-2,1,-2,-1,4,-2,-5,-2,2021-08-07 13:03:52,287484
3,6,6,3,-5,-3,-3,1,2021-08-07 13:03:52,287484
-1,-1,-3,-5,-9,-6,-4,-1,2021-08-07 13:03:52,288486
-2,-3,-4,-4,-2,1,3,0,2021-08-07 13:03:52,299483
-4,-7,-7,-10,-9,-5,-3,-1,2021-08-07 13:03:52,315511
-1,0,0,3,5,3,1,0,2021-08-07 13:03:52,315511
-1,0,2,1,0,-2,-1,-1,2021-08-07 13:03:52,315511
3,3,4,2,7,5,2,1,2021-08-07 13:03:52,315511
0,-2,-3,-4,-5,-3,-2,-1,2021-08-07 13:03:52,315511
4,5,6,9,17,13,6,4,2021-08-07 13:03:52,347510
-4,-6,-7,-7,-10,-8,-5,-4,2021-08-07 13:03:52,347510
-4,-7,-9,-9,-5,-4,-3,-1,2021-08-07 13:03:52,347510
-2,1,2,-6,-11,-10,-5,-2,2021-08-07 13:03:52,347510
6,6,6,8,14,11,5,3,2021-08-07 13:03:52,347510
-1,-1,-1,2,0,2,1,0,2021-08-07 13:03:52,347510
-1,-3,-4,-3,0,-4,-4,-5,2021-08-07 13:03:52,363482
-5,-7,-4,-5,-10,-7,-6,-3,2021-08-07 13:03:52,363482
4,3,1,1,-3,-1,3,2,2021-08-07 13:03:52,379483
-1,1,-1,-13,-23,-14,-6,-2,2021-08-07 13:03:52,395508
1,3,5,15,28,19,8,1,2021-08-07 13:03:52,395508
1,3,1,8,14,6,3,1,2021-08-07 13:03:52,395508
-3,-3,-3,-3,-9,-5,-4,-4,2021-08-07 13:03:52,395508
0,2,3,1,0,-2,-1,2,2021-08-07 13:03:52,395508
-2,-2,-3,-11,-23,-14,-7,-2,2021-08-07 13:03:52,395508
-1,-1,0,3,2,4,2,-1,2021-08-07 13:03:52,395508
-3,-3,-1,4,7,2,0,-2,2021-08-07 13:03:52,411529
-3,-7,-8,-13,-14,-8,-5,-5,2021-08-07 13:03:52,411529
7,10,10,11,16,9,5,5,2021-08-07 13:03:52,427484
0,-1,-1,2,2,4,0,0,2021-08-07 13:03:52,443529
-2,-5,-6,-7,-6,-3,-1,-2,2021-08-07 13:03:52,459483
0,3,4,2,1,-1,1,0,2021-08-07 13:03:52,459483
-1,0,0,0,0,1,0,0,2021-08-07 13:03:52,459483
0,1,-1,2,0,-2,0,0,2021-08-07 13:03:52,459483
-4,-5,-4,-5,-3,-4,-5,-4,2021-08-07 13:03:52,459483
-7,-11,-8,-7,-9,-8,-6,-6,2021-08-07 13:03:52,475521
4,3,2,-13,-17,-5,0,2,2021-08-07 13:03:52,475521
2,3,2,10,17,9,5,2,2021-08-07 13:03:52,491519
1,0,0,-1,-2,-1,2,0,2021-08-07 13:03:52,491519
-2,-3,-2,0,-1,1,0,-3,2021-08-07 13:03:52,492482
-9,-11,-10,-4,-6,-6,-8,-7,2021-08-07 13:03:52,492482
0,0,1,3,8,4,0,-2,2021-08-07 13:03:52,493483
3,3,3,-4,-4,-2,-2,0,2021-08-07 13:03:52,493483
3,3,2,2,1,0,-1,2,2021-08-07 13:03:52,493483
-1,-2,-2,-13,-18,-9,-3,-2,2021-08-07 13:03:52,493483
4,3,5,9,18,10,5,4,2021-08-07 13:03:52,494484
-2,-3,-3,0,1,-1,-1,-1,2021-08-07 13:03:52,523520
3,4,3,5,10,6,3,1,2021-08-07 13:03:52,539511
-5,-6,-7,-5,-9,-9,-6,-4,2021-08-07 13:03:52,555524
-3,-4,-4,-10,-13,-7,-3,-1,2021-08-07 13:03:52,555524
-3,-5,-4,-8,-10,-5,-3,-2,2021-08-07 13:03:52,555524
3,6,6,4,5,4,2,1,2021-08-07 13:03:52,555524
0,0,0,7,10,5,2,-1,2021-08-07 13:03:52,555524
-1,0,3,2,1,-1,0,-1,2021-08-07 13:03:52,555524
-1,-2,-3,-4,-10,-8,-4,-3,2021-08-07 13:03:52,571485
-4,-6,-6,-5,-6,-6,-5,-3,2021-08-07 13:03:52,571485
2,3,4,7,12,9,2,1,2021-08-07 13:03:52,587521
0,2,1,-5,-7,-3,-2,0,2021-08-07 13:03:52,587521
-1,0,0,9,11,5,3,0,2021-08-07 13:03:52,587521
-3,-3,-3,2,2,2,-2,-2,2021-08-07 13:03:52,587521
5,9,6,-1,-10,-6,0,2,2021-08-07 13:03:52,587521
-1,-2,0,-6,-8,-5,-4,-1,2021-08-07 13:03:52,587521
-3,-3,-4,-5,-7,-5,-3,-5,2021-08-07 13:03:52,587521
2,2,3,4,3,4,3,1,2021-08-07 13:03:52,587521
-2,-4,-2,1,9,2,0,-1,2021-08-07 13:03:52,603482
-3,-3,-6,-4,-2,-2,-3,-1,2021-08-07 13:03:52,603482
1,0,2,2,3,1,-1,0,2021-08-07 13:03:52,619485
0,0,1,-1,2,0,1,0,2021-08-07 13:03:52,619485
-3,-7,-7,-8,-11,-6,-5,-3,2021-08-07 13:03:52,619485
-2,-4,-2,-5,-11,-6,-2,-4,2021-08-07 13:03:52,619485
2,0,0,1,0,0,1,1,2021-08-07 13:03:52,635522
-1,0,-2,1,6,5,0,-1,2021-08-07 13:03:52,635522
0,2,2,5,9,4,2,0,2021-08-07 13:03:52,635522
-3,-4,-6,-5,-9,-7,-4,-4,2021-08-07 13:03:52,635522
-5,-2,-3,-4,-4,-1,1,-3,2021-08-07 13:03:52,667485
2,1,3,0,4,3,1,1,2021-08-07 13:03:52,683518
-1,0,-1,1,-4,-4,-2,-2,2021-08-07 13:03:52,699484
-5,-5,-4,-2,-2,-4,-4,-3,2021-08-07 13:03:52,715483
2,2,3,-5,-9,-5,-3,0,2021-08-07 13:03:52,715483
4,8,4,1,10,9,4,3,2021-08-07 13:03:52,715483
-7,-7,-8,-12,-23,-13,-6,-5,2021-08-07 13:03:52,715483
5,7,8,20,30,18,10,5,2021-08-07 13:03:52,715483
-1,0,2,3,8,2,1,1,2021-08-07 13:03:52,715483
-4,-8,-7,-5,-3,-5,-3,-4,2021-08-07 13:03:52,715483
0,1,1,-2,-3,-2,-2,0,2021-08-07 13:03:52,716484
-2,-6,-4,-8,-11,-8,-5,-3,2021-08-07 13:03:52,716484
1,0,-1,1,-2,0,-1,1,2021-08-07 13:03:52,716484
-1,0,1,-1,-3,-1,1,-1,2021-08-07 13:03:52,716484
-2,-4,-3,-1,3,1,-1,-3,2021-08-07 13:03:52,716484
3,5,1,0,-6,-5,-2,-1,2021-08-07 13:03:52,716484
0,0,0,0,0,4,0,-1,2021-08-07 13:03:52,747518
0,-1,2,8,17,8,2,1,2021-08-07 13:03:52,747518
-4,-5,-6,-5,-9,-7,-3,-3,2021-08-07 13:03:52,747518
1,2,2,0,3,2,1,1,2021-08-07 13:03:52,747518
-1,1,1,0,-4,-5,-1,0,2021-08-07 13:03:52,779508
-3,-2,-5,-8,-14,-6,-4,-3,2021-08-07 13:03:52,779508
-1,-2,3,6,14,9,4,1,2021-08-07 13:03:52,779508
0,3,1,-1,-1,-1,1,2,2021-08-07 13:03:52,779508
-1,-1,-2,-7,-10,-9,-3,-3,2021-08-07 13:03:52,794484
-4,-5,-4,1,1,1,0,-2,2021-08-07 13:03:52,794484
1,4,4,-1,-3,-4,-2,-1,2021-08-07 13:03:52,794484
-1,-1,2,6,12,8,5,2,2021-08-07 13:03:52,794484
-2,-2,-6,-8,-7,-8,-4,-3,2021-08-07 13:03:52,794484
-1,-2,-3,-6,-9,-5,-2,-1,2021-08-07 13:03:52,794484
1,1,2,10,16,11,5,3,2021-08-07 13:03:52,794484
-2,-1,0,-3,-5,-4,-3,-1,2021-08-07 13:03:52,794484
3,4,5,9,17,11,1,-1,2021-08-07 13:03:52,825483
-4,-6,-7,-7,-7,-8,-7,-5,2021-08-07 13:03:52,825483
0,0,-3,-6,-10,-3,-2,1,2021-08-07 13:03:52,825483
7,5,6,3,1,4,9,6,2021-08-07 13:03:52,825483
-3,-5,-3,-1,2,2,-2,-3,2021-08-07 13:03:52,841483
-5,-1,1,1,-2,-7,-9,-8,2021-08-07 13:03:52,857496
-3,-2,-2,-3,-3,-3,-5,-5,2021-08-07 13:03:52,873518
-5,-9,-11,-6,-4,-2,-3,-4,2021-08-07 13:03:52,873518
0,0,0,-7,-14,-7,-1,3,2021-08-07 13:03:52,873518
11,14,10,-1,-5,6,7,10,2021-08-07 13:03:52,873518
1,2,5,18,31,14,6,1,2021-08-07 13:03:52,873518
-2,-4,-4,-2,-4,-3,-2,-3,2021-08-07 13:03:52,873518
4,5,6,20,40,24,11,6,2021-08-07 13:03:52,873518
-2,-5,-3,-3,-3,-5,-1,-3,2021-08-07 13:03:52,874508
-2,0,-3,-13,-21,-13,-9,-4,2021-08-07 13:03:52,874508
-6,-6,-8,-13,-16,-12,-8,-6,2021-08-07 13:03:52,874508
-2,-2,-1,-7,-17,-9,-8,-1,2021-08-07 13:03:52,905513
2,-1,0,5,10,5,3,1,2021-08-07 13:03:52,905513
-3,-6,-9,-7,-8,-5,0,-2,2021-08-07 13:03:52,905513
3,4,3,3,1,5,8,3,2021-08-07 13:03:52,905513
3,6,4,-2,-7,-2,-2,-1,2021-08-07 13:03:52,921508
-3,2,4,7,14,4,-5,-6,2021-08-07 13:03:52,937482
-5,-4,-1,7,9,1,-3,-2,2021-08-07 13:03:52,937482
-4,-8,-8,-8,-6,-2,-2,-3,2021-08-07 13:03:52,937482
3,2,1,5,5,5,7,3,2021-08-07 13:03:52,937482
1,2,-2,-10,-21,-14,-7,0,2021-08-07 13:03:52,937482
1,1,2,6,16,14,6,2,2021-08-07 13:03:52,937482
3,7,9,14,20,11,6,6,2021-08-07 13:03:52,937482
-3,-7,-6,-6,-8,-4,-1,-2,2021-08-07 13:03:52,968529
-2,-2,-2,2,-4,-4,0,-1,2021-08-07 13:03:52,968529
-3,-5,-7,-15,-19,-15,-6,-3,2021-08-07 13:03:52,968529
-3,-3,-3,-5,-10,-10,-5,-3,2021-08-07 13:03:52,968529
3,4,4,6,16,10,3,0,2021-08-07 13:03:52,968529
0,3,0,-1,2,3,1,1,2021-08-07 13:03:52,968529
-3,-6,-8,-10,-15,-9,-5,-4,2021-08-07 13:03:52,984551
6,8,11,11,13,10,4,3,2021-08-07 13:03:53,000520
-5,-7,-8,-3,-7,-7,-4,-4,2021-08-07 13:03:53,000520
3,2,3,0,5,4,4,3,2021-08-07 13:03:53,000520
1,0,-1,1,-1,-1,0,1,2021-08-07 13:03:53,000520
-3,-5,-7,-17,-16,-9,-8,-5,2021-08-07 13:03:53,000520
-2,-3,-4,-8,-11,-6,-4,-1,2021-08-07 13:03:53,032508
-3,-4,-3,-2,-13,-7,-2,-2,2021-08-07 13:03:53,048483
4,8,8,16,29,19,10,4,2021-08-07 13:03:53,048483
1,2,3,8,16,11,4,1,2021-08-07 13:03:53,048483
1,3,1,0,0,-3,0,1,2021-08-07 13:03:53,048483
-3,-6,-8,-8,-7,-6,-2,-4,2021-08-07 13:03:53,048483
-4,-5,-7,-17,-30,-20,-10,-4,2021-08-07 13:03:53,048483
-4,-8,-6,-6,-8,-7,-6,-4,2021-08-07 13:03:53,048483
2,8,7,2,5,3,4,4,2021-08-07 13:03:53,064481
0,2,1,2,5,4,3,2,2021-08-07 13:03:53,080519
-3,-2,-2,-5,-17,-10,-5,-4,2021-08-07 13:03:53,080519
1,2,2,9,18,12,4,1,2021-08-07 13:03:53,080519
-5,-5,-5,1,3,-1,-1,-6,2021-08-07 13:03:53,080519
2,3,0,3,10,5,2,1,2021-08-07 13:03:53,096508
-2,-5,-7,-17,-19,-11,-5,-3,2021-08-07 13:03:53,096508
2,5,6,7,4,-1,0,2,2021-08-07 13:03:53,112534
2,2,-1,2,-4,-2,-2,-2,2021-08-07 13:03:53,112534
-4,-6,-5,-3,-5,-3,-3,-3,2021-08-07 13:03:53,112534
6,9,11,12,13,9,6,4,2021-08-07 13:03:53,112534
-3,-5,-7,-9,-18,-13,-7,-5,2021-08-07 13:03:53,112534
-1,-2,-5,-8,-9,-4,-1,-1,2021-08-07 13:03:53,112534
1,-1,0,5,9,6,2,0,2021-08-07 13:03:53,128506
-1,-2,1,13,26,11,2,0,2021-08-07 13:03:53,128506
1,2,1,-1,-3,-3,-1,-2,2021-08-07 13:03:53,128506
-2,-4,-4,-7,-8,-5,-3,-1,2021-08-07 13:03:53,144518
0,0,-1,-7,-20,-10,-4,1,2021-08-07 13:03:53,144518
1,2,4,10,17,9,3,1,2021-08-07 13:03:53,144518
0,2,0,-3,-4,-2,-1,0,2021-08-07 13:03:53,144518
-3,-6,-4,-2,-1,1,-1,-2,2021-08-07 13:03:53,160514
1,-1,0,2,6,3,1,0,2021-08-07 13:03:53,160514
-3,-3,-4,-14,-23,-15,-7,-6,2021-08-07 13:03:53,160514
1,-3,-2,0,2,2,1,0,2021-08-07 13:03:53,160514
1,0,0,6,11,3,0,-1,2021-08-07 13:03:53,192479
-2,-3,-2,2,8,4,0,-2,2021-08-07 13:03:53,192479
4,3,1,-1,-3,0,1,2,2021-08-07 13:03:53,192479
-3,-3,-4,-11,-17,-16,-6,-4,2021-08-07 13:03:53,192479
-1,-4,-5,-9,-13,-8,-5,-2,2021-08-07 13:03:53,208485
5,7,8,14,20,13,8,5,2021-08-07 13:03:53,208485
-5,-5,-6,-8,-10,-6,-5,-4,2021-08-07 13:03:53,208485
-2,-3,-4,5,10,8,2,-1,2021-08-07 13:03:53,208485
5,8,10,10,10,5,3,3,2021-08-07 13:03:53,224518
-2,-2,-4,-4,-6,-7,-5,-2,2021-08-07 13:03:53,239486
-4,-7,-7,-6,-8,-3,-3,-2,2021-08-07 13:03:53,255508
2,0,2,0,-1,-1,0,0,2021-08-07 13:03:53,270507
0,1,1,2,5,3,0,0,2021-08-07 13:03:53,270507
-4,-3,-4,-7,-9,-7,-5,-3,2021-08-07 13:03:53,270507
2,2,2,7,17,11,6,4,2021-08-07 13:03:53,270507
1,3,1,-2,2,2,0,0,2021-08-07 13:03:53,270507
-1,2,4,-1,-2,-4,-1,0,2021-08-07 13:03:53,270507
0,1,1,-4,-6,-2,-2,0,2021-08-07 13:03:53,270507
-1,-1,-1,4,12,3,1,0,2021-08-07 13:03:53,286485
-2,-6,-5,-5,-16,-10,-3,-2,2021-08-07 13:03:53,302531
-2,-5,-5,-10,-16,-8,-5,-2,2021-08-07 13:03:53,302531
3,3,4,16,34,19,10,2,2021-08-07 13:03:53,302531
0,1,1,-4,-12,-9,-4,-2,2021-08-07 13:03:53,302531
-1,-2,-4,-6,2,4,-1,-1,2021-08-07 13:03:53,302531
0,1,3,4,-6,-5,-2,0,2021-08-07 13:03:53,302531
-2,-7,-7,-7,-7,-6,-4,-3,2021-08-07 13:03:53,302531
0,1,3,4,-2,2,0,-2,2021-08-07 13:03:53,302531
-3,-5,-3,-2,7,0,0,-2,2021-08-07 13:03:53,302531
-2,-3,-4,-2,-1,-1,-1,0,2021-08-07 13:03:53,318484
1,7,6,-8,-21,-14,-5,0,2021-08-07 13:03:53,318484
3,4,4,9,18,13,6,3,2021-08-07 13:03:53,334483
1,5,5,14,19,9,5,2,2021-08-07 13:03:53,350519
1,-3,-4,1,2,0,3,-1,2021-08-07 13:03:53,366519
-3,-7,-8,-11,-17,-8,-6,-2,2021-08-07 13:03:53,366519
-2,-3,-3,-1,3,-2,-2,-1,2021-08-07 13:03:53,366519
-6,-7,-6,-13,-18,-9,-6,-5,2021-08-07 13:03:53,366519
4,5,5,13,18,12,8,4,2021-08-07 13:03:53,366519
0,1,2,0,-2,-2,0,-1,2021-08-07 13:03:53,366519
-2,-1,-1,-4,-11,-7,-5,-3,2021-08-07 13:03:53,382509
-1,-2,-2,1,5,1,-1,-3,2021-08-07 13:03:53,398520
-4,-3,-5,-9,-6,-10,-7,-4,2021-08-07 13:03:53,414481
4,5,3,2,0,1,3,3,2021-08-07 13:03:53,414481
1,2,2,11,25,15,6,1,2021-08-07 13:03:53,414481
-2,0,-2,-8,-14,-10,-3,-1,2021-08-07 13:03:53,414481
-4,-8,-6,3,7,10,1,-2,2021-08-07 13:03:53,414481
1,3,6,8,11,4,1,2,2021-08-07 13:03:53,414481
-1,3,-1,-5,-11,-6,-1,0,2021-08-07 13:03:53,415484
-3,-2,-4,-4,-9,-6,-2,-1,2021-08-07 13:03:53,415484
0,0,0,-4,-4,-1,-2,0,2021-08-07 13:03:53,430518
-5,-9,-9,-2,3,0,-2,-6,2021-08-07 13:03:53,430518
-1,-6,-6,-13,-19,-11,-5,-3,2021-08-07 13:03:53,446519
5,8,9,10,10,8,3,4,2021-08-07 13:03:53,446519
-8,-10,-11,-16,-19,-10,-5,-5,2021-08-07 13:03:53,446519
0,-1,2,7,10,3,1,0,2021-08-07 13:03:53,446519
2,4,4,2,7,4,1,1,2021-08-07 13:03:53,446519
-1,-1,0,0,-5,-3,0,-1,2021-08-07 13:03:53,446519
1,1,4,9,14,11,5,0,2021-08-07 13:03:53,462524
-3,-5,-6,-9,-13,-8,-3,-3,2021-08-07 13:03:53,478483
-2,-6,-6,0,1,1,-1,-3,2021-08-07 13:03:53,478483
5,8,7,6,8,3,2,3,2021-08-07 13:03:53,478483
-2,-3,-6,-11,-25,-17,-9,-3,2021-08-07 13:03:53,478483
-1,0,1,11,32,20,5,1,2021-08-07 13:03:53,493508
-4,-7,-5,-2,3,0,-1,-3,2021-08-07 13:03:53,493508
-1,-3,-5,1,7,6,1,-2,2021-08-07 13:03:53,493508
5,10,8,-4,-15,-9,-2,4,2021-08-07 13:03:53,493508
-2,-3,-3,-8,-13,-8,-5,-2,2021-08-07 13:03:53,493508
-1,-4,-1,4,5,2,2,-1,2021-08-07 13:03:53,508531
1,-2,-3,1,4,4,0,-1,2021-08-07 13:03:53,508531
-4,-2,-5,-6,-6,-5,-1,-3,2021-08-07 13:03:53,524521
-2,0,0,3,6,2,1,0,2021-08-07 13:03:53,524521
0,1,0,-5,-11,-7,-5,1,2021-08-07 13:03:53,524521
-3,-5,-4,0,-4,-3,-2,-3,2021-08-07 13:03:53,524521
1,2,2,0,5,1,0,-1,2021-08-07 13:03:53,556518
-1,-1,-2,-7,-15,-6,-3,-2,2021-08-07 13:03:53,556518
-2,-1,-2,-5,-1,-3,-1,-2,2021-08-07 13:03:53,556518
-4,-4,-3,-2,-7,-4,-2,-2,2021-08-07 13:03:53,556518
-2,-2,-1,10,22,10,3,0,2021-08-07 13:03:53,556518
3,7,4,4,6,3,3,4,2021-08-07 13:03:53,556518
-2,0,0,0,-4,-3,-2,-1,2021-08-07 13:03:53,572484
-3,-4,-6,-14,-22,-14,-8,-4,2021-08-07 13:03:53,572484
1,-2,1,5,14,11,4,0,2021-08-07 13:03:53,588483
-1,-1,0,-2,-7,-7,-3,-2,2021-08-07 13:03:53,588483
-2,0,-1,-1,2,4,2,0,2021-08-07 13:03:53,588483
0,-1,-1,0,4,0,0,-1,2021-08-07 13:03:53,588483
1,3,4,0,-1,3,2,2,2021-08-07 13:03:53,603519
-2,-3,-4,-2,-3,-1,-2,-2,2021-08-07 13:03:53,603519
-2,-3,-4,-7,-9,-6,-4,-2,2021-08-07 13:03:53,603519
-4,-4,-4,-6,-6,-5,-3,-2,2021-08-07 13:03:53,603519
7,10,14,6,4,3,3,5,2021-08-07 13:03:53,619485
0,0,-3,-9,-15,-9,-3,-1,2021-08-07 13:03:53,635484
-8,-9,-13,-22,-29,-11,-7,-6,2021-08-07 13:03:53,667485
2,4,7,23,38,21,7,4,2021-08-07 13:03:53,667485
-2,-4,-4,5,12,4,0,-1,2021-08-07 13:03:53,667485
-2,-2,0,3,8,4,2,0,2021-08-07 13:03:53,667485
-5,-10,-8,-14,-27,-19,-11,-7,2021-08-07 13:03:53,667485
7,15,13,-1,-9,-1,3,7,2021-08-07 13:03:53,667485
-2,-2,0,4,6,4,-1,-1,2021-08-07 13:03:53,667485
-5,-10,-11,-7,-8,-5,-5,-6,2021-08-07 13:03:53,682519
1,2,2,5,9,4,3,2,2021-08-07 13:03:53,682519
-3,-4,-5,-8,-9,-5,-1,-3,2021-08-07 13:03:53,682519
4,7,7,5,3,0,1,1,2021-08-07 13:03:53,682519
-4,-4,-3,-7,-5,-1,-3,-2,2021-08-07 13:03:53,682519
5,6,3,3,4,1,2,4,2021-08-07 13:03:53,682519
-3,-6,-2,4,8,5,2,1,2021-08-07 13:03:53,682519
-3,-5,-10,-12,-21,-11,-5,-3,2021-08-07 13:03:53,714070
-1,-2,1,5,8,2,1,-2,2021-08-07 13:03:53,730034
2,-2,0,2,8,3,3,2,2021-08-07 13:03:53,745071
0,-3,0,-1,-1,-1,-3,-1,2021-08-07 13:03:53,745071
0,0,-2,1,1,0,2,0,2021-08-07 13:03:53,745071
0,5,5,2,8,7,3,1,2021-08-07 13:03:53,745071
-4,-5,-5,-12,-12,-8,-5,-4,2021-08-07 13:03:53,745071
5,7,7,10,7,5,4,2,2021-08-07 13:03:53,745071
-9,-12,-14,-17,-19,-13,-9,-7,2021-08-07 13:03:53,745071
2,4,5,14,8,4,1,0,2021-08-07 13:03:53,745071
2,5,2,7,5,4,3,1,2021-08-07 13:03:53,746069
-2,-1,-2,-4,2,0,0,-1,2021-08-07 13:03:53,746069
0,1,0,-4,-7,-1,0,-1,2021-08-07 13:03:53,760069
-1,-6,-6,2,8,-1,-1,-2,2021-08-07 13:03:53,760069
2,4,4,1,-3,1,1,2,2021-08-07 13:03:53,776035
2,2,3,2,-7,-5,-1,0,2021-08-07 13:03:53,776035
-1,1,-1,2,8,3,1,0,2021-08-07 13:03:53,792038
-5,-6,-5,-12,-15,-8,-5,-5,2021-08-07 13:03:53,792038
6,8,7,7,8,5,2,5,2021-08-07 13:03:53,792038
-1,-4,-3,-4,-8,-1,-1,-1,2021-08-07 13:03:53,792038
-2,-4,-3,-5,-1,-2,-3,-3,2021-08-07 13:03:53,792038
1,2,-1,-8,-17,-9,-2,0,2021-08-07 13:03:53,793037
-1,-1,4,9,14,8,2,-2,2021-08-07 13:03:53,808085
0,2,3,6,15,8,4,2,2021-08-07 13:03:53,808085
-5,-9,-5,-4,-9,-8,-5,-3,2021-08-07 13:03:53,824070
0,0,-3,-12,-11,-3,0,1,2021-08-07 13:03:53,824070
-1,-2,-2,-2,-11,-9,-3,0,2021-08-07 13:03:53,824070
1,3,6,16,21,10,4,0,2021-08-07 13:03:53,824070
1,1,2,7,13,8,4,0,2021-08-07 13:03:53,856061
-3,-3,-3,-4,-9,-7,-3,-3,2021-08-07 13:03:53,856061
-1,-2,-2,-7,-8,-5,-2,-2,2021-08-07 13:03:53,856061
-3,-5,-7,-8,-6,-3,-3,-3,2021-08-07 13:03:53,856061
-1,0,1,2,-4,-3,-1,-1,2021-08-07 13:03:53,856061
0,3,2,-1,-3,-4,0,1,2021-08-07 13:03:53,857034
-4,-4,-4,6,12,8,4,-1,2021-08-07 13:03:53,872070
0,-1,-1,-9,-13,-8,-3,-1,2021-08-07 13:03:53,872070
2,4,1,-3,-6,1,0,0,2021-08-07 13:03:53,888035
2,1,2,5,13,9,3,2,2021-08-07 13:03:53,904070
1,0,2,12,25,17,5,2,2021-08-07 13:03:53,904070
-3,-7,-8,-10,-15,-11,-5,-2,2021-08-07 13:03:53,904070
3,3,3,1,3,1,0,0,2021-08-07 13:03:53,904070
-1,-1,-1,5,2,2,0,-2,2021-08-07 13:03:53,904070
0,2,1,0,-1,-3,-2,-1,2021-08-07 13:03:53,920039
-2,-1,-2,-5,-8,-5,-2,-2,2021-08-07 13:03:53,920039
-4,-5,-5,-6,-7,-2,-2,0,2021-08-07 13:03:53,920039
-3,-6,-6,-6,-6,-5,-5,-5,2021-08-07 13:03:53,920039
4,5,8,27,33,16,10,3,2021-08-07 13:03:53,936035
1,3,2,4,5,3,2,2,2021-08-07 13:03:53,936035
-3,0,-1,5,8,7,2,-1,2021-08-07 13:03:53,936035
-3,-4,-5,-8,-20,-14,-8,-3,2021-08-07 13:03:53,936035
-3,-7,-9,-15,-11,-1,-1,-2,2021-08-07 13:03:53,952035
8,12,14,23,31,16,9,7,2021-08-07 13:03:53,952305
-2,-4,-4,-1,3,0,-1,-3,2021-08-07 13:03:53,967444
1,1,2,-1,0,4,-1,0,2021-08-07 13:03:53,983468
-4,-4,-3,-12,-22,-17,-8,-4,2021-08-07 13:03:53,999482
-2,-2,-4,-7,-5,-2,-3,-2,2021-08-07 13:03:54,015468
-2,0,-1,-2,-1,-4,-2,-4,2021-08-07 13:03:54,031467
-3,-5,-3,-7,-6,-6,-2,-2,2021-08-07 13:03:54,043470
2,4,4,6,9,6,3,2,2021-08-07 13:03:54,043470
-5,-8,-7,-5,-7,-4,-4,-5,2021-08-07 13:03:54,043470
1,1,2,-3,-4,-5,-1,0,2021-08-07 13:03:54,044467
4,8,9,19,34,24,11,5,2021-08-07 13:03:54,044467
-1,-1,-2,-3,-6,-4,-3,-2,2021-08-07 13:03:54,044467
-3,-6,-7,-7,-10,-7,-5,-3,2021-08-07 13:03:54,044467
1,-1,-1,-1,-2,-5,-3,0,2021-08-07 13:03:54,044467
-4,-7,-7,-9,-7,-3,-5,-4,2021-08-07 13:03:54,044467
0,3,3,-6,-8,-3,-1,1,2021-08-07 13:03:54,045468
-3,-2,-2,-3,-6,-3,2,-1,2021-08-07 13:03:54,045468
0,-1,1,8,6,5,0,1,2021-08-07 13:03:54,045468
2,5,3,4,6,3,3,2,2021-08-07 13:03:54,045468
-1,-2,-3,-5,-7,-4,-2,-1,2021-08-07 13:03:54,045468
-5,-7,-9,-18,-25,-14,-7,-6,2021-08-07 13:03:54,045468
-1,-4,0,5,0,-1,0,1,2021-08-07 13:03:54,063432
2,7,7,15,22,15,7,1,2021-08-07 13:03:54,063432
5,7,7,8,16,4,2,4,2021-08-07 13:03:54,063432
0,3,2,5,10,6,3,1,2021-08-07 13:03:54,063432
-1,-1,-3,-8,-5,-3,0,-2,2021-08-07 13:03:54,095456
-5,-9,-10,-23,-39,-23,-10,-5,2021-08-07 13:03:54,095456
0,-2,-1,6,9,8,4,-1,2021-08-07 13:03:54,095456
2,3,5,11,10,6,2,2,2021-08-07 13:03:54,095456
-1,-2,-2,1,1,2,0,1,2021-08-07 13:03:54,111467
-3,-4,-5,-6,-5,-7,-4,-3,2021-08-07 13:03:54,111467
-4,-3,-6,-11,-19,-13,-8,-3,2021-08-07 13:03:54,111467
7,10,9,10,12,6,3,4,2021-08-07 13:03:54,111467
-3,-2,0,-3,-9,-5,-3,-4,2021-08-07 13:03:54,127456
-1,-3,-2,1,2,-1,-1,-1,2021-08-07 13:03:54,143472
-2,-7,-5,-4,-7,-4,-2,-4,2021-08-07 13:03:54,175467
-5,-8,-9,-12,-8,-4,-4,-4,2021-08-07 13:03:54,175467
2,5,4,8,5,3,2,2,2021-08-07 13:03:54,175467
1,-1,2,7,17,8,4,0,2021-08-07 13:03:54,175467
0,3,0,-3,-2,-1,-1,-1,2021-08-07 13:03:54,175467
-8,-12,-12,-12,-14,-8,-7,-5,2021-08-07 13:03:54,175467
6,9,10,9,7,6,5,4,2021-08-07 13:03:54,176433
1,1,2,-1,-5,-1,-2,-2,2021-08-07 13:03:54,176433
-2,-5,-5,-14,-28,-16,-6,-3,2021-08-07 13:03:54,176433
1,-1,0,-1,9,9,3,1,2021-08-07 13:03:54,176433
-2,2,-3,-7,4,0,-4,-2,2021-08-07 13:03:54,176433
3,8,6,6,1,3,4,3,2021-08-07 13:03:54,176433
-2,0,0,3,4,-2,-3,-1,2021-08-07 13:03:54,191470
1,2,2,9,18,10,4,3,2021-08-07 13:03:54,191470
-5,-10,-10,-8,-4,-5,-3,-3,2021-08-07 13:03:54,207429
0,-4,-2,1,3,2,0,1,2021-08-07 13:03:54,207429
-3,-3,-5,-15,-16,-6,-4,-3,2021-08-07 13:03:54,207429
3,4,3,1,-7,-6,-2,1,2021-08-07 13:03:54,207429
0,1,1,4,7,6,3,-1,2021-08-07 13:03:54,239432
-1,-1,0,1,-1,0,-2,-1,2021-08-07 13:03:54,239432
-2,-4,-5,-5,-5,-1,1,-1,2021-08-07 13:03:54,239432
0,-3,-2,-5,-8,-4,-2,0,2021-08-07 13:03:54,239432
5,9,7,2,0,1,1,2,2021-08-07 13:03:54,239432
-6,-7,-7,-2,-3,-4,-4,-7,2021-08-07 13:03:54,240468
2,2,4,4,10,6,1,1,2021-08-07 13:03:54,255432
-2,-1,4,-6,-10,-8,-6,-3,2021-08-07 13:03:54,270449
-1,-2,-2,-1,1,3,4,2,2021-08-07 13:03:54,286436
5,4,6,7,10,10,6,5,2021-08-07 13:03:54,286436
-5,-5,-5,-6,-3,-1,-2,-4,2021-08-07 13:03:54,286436
1,1,-2,0,0,-2,0,0,2021-08-07 13:03:54,286436
-5,-6,-7,-13,-19,-11,-5,-2,2021-08-07 13:03:54,286436
-4,-4,-5,-4,-5,-9,-6,-4,2021-08-07 13:03:54,286436
1,2,2,3,4,3,2,2,2021-08-07 13:03:54,286436
5,7,8,11,16,9,5,4,2021-08-07 13:03:54,287468
-2,-5,-4,-7,-9,-8,-4,-3,2021-08-07 13:03:54,302433
0,-1,-2,0,9,5,1,-2,2021-08-07 13:03:54,302433
0,-2,-1,4,0,-2,-1,-1,2021-08-07 13:03:54,302433
-2,0,-3,-11,-15,-11,-4,-3,2021-08-07 13:03:54,302433
-3,-4,-5,-10,-14,-8,-5,-3,2021-08-07 13:03:54,332468
0,0,-2,3,5,3,1,1,2021-08-07 13:03:54,332468
0,0,2,7,13,7,2,0,2021-08-07 13:03:54,332468
-1,2,2,2,3,2,1,1,2021-08-07 13:03:54,332468
-7,-9,-10,-6,-8,-7,-7,-6,2021-08-07 13:03:54,348459
5,12,9,-9,-12,-1,1,6,2021-08-07 13:03:54,348459
2,2,6,10,6,2,2,1,2021-08-07 13:03:54,348459
-3,0,-2,2,0,1,1,0,2021-08-07 13:03:54,348459
-3,-5,-6,1,6,3,0,-2,2021-08-07 13:03:54,364434
-6,-7,-8,-13,-15,-12,-6,-5,2021-08-07 13:03:54,364434
2,4,4,2,3,1,2,3,2021-08-07 13:03:54,364434
0,-3,-2,-8,-8,-3,-1,-3,2021-08-07 13:03:54,364434
0,-1,3,8,5,1,1,-1,2021-08-07 13:03:54,395478
-3,-4,-3,10,17,9,3,-1,2021-08-07 13:03:54,395478
1,1,0,-3,-7,-2,1,0,2021-08-07 13:03:54,395478
0,0,-2,-4,-7,-7,-4,-2,2021-08-07 13:03:54,395478
-2,-3,-5,-8,-7,-4,-2,-4,2021-08-07 13:03:54,411432
3,5,7,14,6,2,2,2,2021-08-07 13:03:54,427233
-2,-2,-3,-1,-8,-6,-4,-3,2021-08-07 13:03:54,443234
2,2,4,18,42,25,10,3,2021-08-07 13:03:54,443234
-2,-2,-2,-1,-2,-5,-2,-1,2021-08-07 13:03:54,443234
-6,-7,-10,-15,-18,-11,-6,-5,2021-08-07 13:03:54,443234
3,2,3,2,3,2,1,1,2021-08-07 13:03:54,459198
-3,-2,-3,-7,-19,-12,-5,-3,2021-08-07 13:03:54,459198
-1,-2,-2,-6,-5,-4,-3,-3,2021-08-07 13:03:54,459198
0,0,1,13,24,11,5,2,2021-08-07 13:03:54,459198
-1,-1,-2,-8,-8,-4,0,1,2021-08-07 13:03:54,459198
-5,-4,-4,-3,-5,-3,-4,-2,2021-08-07 13:03:54,460233
0,-1,0,0,-3,-3,-3,1,2021-08-07 13:03:54,465237
2,6,6,1,-7,-1,0,2,2021-08-07 13:03:54,465237
-1,-1,-1,0,3,1,0,-2,2021-08-07 13:03:54,465237
-1,-3,-3,-8,-6,-2,0,-1,2021-08-07 13:03:54,465237
-3,-4,-2,1,3,1,0,-4,2021-08-07 13:03:54,491233
2,0,-2,-7,-7,-4,0,-1,2021-08-07 13:03:54,507233
3,5,7,14,18,10,4,3,2021-08-07 13:03:54,523223
0,0,0,2,-9,-6,-3,-1,2021-08-07 13:03:54,523223
-2,-1,-1,0,4,5,0,1,2021-08-07 13:03:54,523223
-4,-4,-5,-6,-3,-1,-4,-3,2021-08-07 13:03:54,523223
-3,-5,-8,-13,-18,-12,-5,-5,2021-08-07 13:03:54,523223
3,4,5,17,28,16,9,6,2021-08-07 13:03:54,523223
0,0,1,-1,-2,-3,-1,0,2021-08-07 13:03:54,524223
-3,-2,-2,-4,-6,-5,-2,-3,2021-08-07 13:03:54,524223
-2,-1,-3,-3,-7,-6,-3,-2,2021-08-07 13:03:54,524223
-3,-4,-4,-7,-9,-4,-2,-4,2021-08-07 13:03:54,524223
1,2,2,-2,-4,-2,0,0,2021-08-07 13:03:54,555197
-3,-2,0,-1,3,1,1,-1,2021-08-07 13:03:54,555197
-3,-2,-2,3,9,5,1,-2,2021-08-07 13:03:54,555197
-3,-4,-6,-18,-33,-19,-10,-5,2021-08-07 13:03:54,555197
6,6,6,16,29,17,6,4,2021-08-07 13:03:54,571236
2,-1,0,-4,-7,-5,-4,-1,2021-08-07 13:03:54,571236
-2,-2,-3,-5,-4,-2,-3,-1,2021-08-07 13:03:54,571236
-1,-2,-2,-8,-10,-7,-4,-2,2021-08-07 13:03:54,571236
-6,-7,-6,-2,-13,-9,-5,-6,2021-08-07 13:03:54,586198
-3,-4,-6,1,6,1,-2,-3,2021-08-07 13:03:54,586198
6,10,10,11,19,13,6,6,2021-08-07 13:03:54,586198
-2,-2,-1,-4,-5,-4,-2,-1,2021-08-07 13:03:54,586198
-3,-1,-3,-5,-7,-5,-4,-1,2021-08-07 13:03:54,602236
-2,-2,-1,-2,-5,-2,0,-1,2021-08-07 13:03:54,602236
-6,-11,-10,-8,-9,-8,-5,-7,2021-08-07 13:03:54,634196
5,7,5,1,4,4,4,4,2021-08-07 13:03:54,634487
3,6,8,5,9,5,4,3,2021-08-07 13:03:54,634487
-1,0,1,1,-1,1,1,0,2021-08-07 13:03:54,635234
-1,-4,-4,-6,-9,-5,-1,-1,2021-08-07 13:03:54,649810
-4,-4,-4,-1,3,0,-2,-2,2021-08-07 13:03:54,665796
-3,-4,-5,-8,-10,-9,-6,-2,2021-08-07 13:03:54,681760
7,14,12,10,16,14,7,7,2021-08-07 13:03:54,681760
-1,-2,1,7,12,4,2,-2,2021-08-07 13:03:54,681760
1,1,1,7,12,6,3,2,2021-08-07 13:03:54,681760
2,3,1,0,-5,-2,1,0,2021-08-07 13:03:54,681760
-4,-8,-8,-12,-21,-14,-9,-4,2021-08-07 13:03:54,681760
-3,-2,-3,-9,-10,-3,-2,-2,2021-08-07 13:03:54,681760
8,5,6,12,17,15,15,10,2021-08-07 13:03:54,681760
7,3,1,2,4,4,3,6,2021-08-07 13:03:54,682798
-10,-11,-9,-6,-9,-18,-18,-16,2021-08-07 13:03:54,682798
-7,-3,0,0,-2,-10,-16,-12,2021-08-07 13:03:54,713796
-5,-4,-3,-6,-10,-6,-5,-2,2021-08-07 13:03:54,729795
8,6,4,3,7,13,19,14,2021-08-07 13:03:54,745795
5,-2,-4,-10,-8,0,3,5,2021-08-07 13:03:54,760621
-1,4,5,12,15,4,-6,-6,2021-08-07 13:03:54,776621
-11,-8,-8,-10,-14,-17,-16,-13,2021-08-07 13:03:54,776621
-1,-3,-2,1,1,2,1,1,2021-08-07 13:03:54,792619
0,2,2,-3,-6,-2,5,5,2021-08-07 13:03:54,792619
8,4,3,-3,-11,2,8,10,2021-08-07 13:03:54,792619
7,6,9,25,53,34,16,7,2021-08-07 13:03:54,792619
-4,-2,-5,-3,5,1,-2,-5,2021-08-07 13:03:54,792619
-2,-4,-6,-16,-23,-11,-4,-3,2021-08-07 13:03:54,792619
-3,-5,-3,7,15,6,3,0,2021-08-07 13:03:54,793624
3,4,3,0,-7,-3,-1,2,2021-08-07 13:03:54,793624
-3,-1,0,-3,-6,-5,-6,-5,2021-08-07 13:03:54,793624
-3,0,-1,5,8,1,-3,-5,2021-08-07 13:03:54,793624
2,-1,-3,-4,-10,-4,-1,2,2021-08-07 13:03:54,793624
2,4,3,-2,-1,3,1,2,2021-08-07 13:03:54,793624
-4,-6,-5,-7,-9,-8,-7,-6,2021-08-07 13:03:54,793624
-3,-3,-5,-11,-14,-7,-4,-3,2021-08-07 13:03:54,794654
1,0,2,13,26,17,9,6,2021-08-07 13:03:54,794654
-2,-5,-6,-3,-7,-7,-6,-4,2021-08-07 13:03:54,794654
-1,2,2,-4,-6,-7,-5,-2,2021-08-07 13:03:54,808620
-1,-1,-1,5,9,4,2,-1,2021-08-07 13:03:54,824656
-3,-4,-6,-17,-26,-11,-4,0,2021-08-07 13:03:54,824656
-1,-3,-2,2,-3,-6,-2,-2,2021-08-07 13:03:54,824656
0,2,5,4,8,4,1,-1,2021-08-07 13:03:54,824656
0,-3,-3,2,2,4,2,2,2021-08-07 13:03:54,824656
4,4,2,3,9,5,4,3,2021-08-07 13:03:54,824656
-3,-2,-2,-13,-24,-17,-9,-6,2021-08-07 13:03:54,824656
-1,-4,-1,3,9,2,-1,-4,2021-08-07 13:03:54,840671
-4,-3,-4,1,2,-2,-2,-3,2021-08-07 13:03:54,856653
2,4,5,4,-1,1,4,0,2021-08-07 13:03:54,888669
-6,-8,-7,-17,-27,-17,-10,-6,2021-08-07 13:03:54,888669
2,4,4,20,38,19,9,3,2021-08-07 13:03:54,904653
7,7,7,10,18,13,8,5,2021-08-07 13:03:54,904653
-2,-1,-2,-3,-9,-6,-2,-1,2021-08-07 13:03:54,904653
-1,-1,-1,-5,-6,-4,-3,-1,2021-08-07 13:03:54,904653
-4,-6,-5,-11,-21,-9,-7,-3,2021-08-07 13:03:54,904653
-1,-2,-1,-3,-7,-4,-3,-1,2021-08-07 13:03:54,904653
-1,-1,0,-4,-4,-2,-3,-3,2021-08-07 13:03:54,904653
3,1,3,15,24,14,6,3,2021-08-07 13:03:54,905620
-2,-1,-1,-6,-15,-9,-4,-2,2021-08-07 13:03:54,905620
-1,-1,0,0,6,3,1,0,2021-08-07 13:03:54,905620
-1,0,-3,-6,-2,1,0,0,2021-08-07 13:03:54,905620
-1,0,0,3,2,-1,-1,-1,2021-08-07 13:03:54,905620
1,0,3,7,4,1,0,-1,2021-08-07 13:03:54,935655
2,1,3,7,13,9,4,1,2021-08-07 13:03:54,935655
-2,-4,-4,-5,-2,-2,0,-1,2021-08-07 13:03:54,935655
-5,-6,-5,-6,-3,-2,-2,-2,2021-08-07 13:03:54,935655
0,1,0,-4,-4,-6,-5,-1,2021-08-07 13:03:54,967619
6,8,9,8,12,9,5,5,2021-08-07 13:03:54,983205
0,1,0,1,2,2,1,-1,2021-08-07 13:03:54,999205
-2,-3,-4,-3,-6,-3,-1,-2,2021-08-07 13:03:54,999205
-7,-10,-11,-18,-28,-15,-7,-5,2021-08-07 13:03:54,999205
-4,-4,-3,1,2,-1,-1,-3,2021-08-07 13:03:54,999205
3,4,2,6,12,7,2,4,2021-08-07 13:03:54,999205
1,0,1,-1,-2,-1,0,0,2021-08-07 13:03:54,999205
0,1,2,1,3,0,1,-1,2021-08-07 13:03:55,000168
-3,-4,-4,-15,-27,-14,-5,-3,2021-08-07 13:03:55,000168
1,0,0,5,14,6,2,0,2021-08-07 13:03:55,000168
2,1,1,4,3,2,2,1,2021-08-07 13:03:55,000168
0,0,-2,0,3,2,0,1,2021-08-07 13:03:55,015168
-3,-3,-5,-7,-12,-7,-4,-3,2021-08-07 13:03:55,031164
-3,-1,-3,-11,-16,-9,-6,-3,2021-08-07 13:03:55,031164
3,5,7,9,8,6,5,1,2021-08-07 13:03:55,031164
-1,0,-2,-2,1,0,-1,-1,2021-08-07 13:03:55,031164
-2,-5,-3,1,-7,-6,-4,-4,2021-08-07 13:03:55,031164
-2,-2,-1,-4,-7,-1,-2,-1,2021-08-07 13:03:55,031164
0,0,-2,1,6,2,1,0,2021-08-07 13:03:55,032167
-1,1,0,-2,-1,-1,0,-2,2021-08-07 13:03:55,046202
-2,-4,-4,-3,2,1,0,-1,2021-08-07 13:03:55,046202
5,6,5,3,0,-2,1,1,2021-08-07 13:03:55,046202
0,-1,-1,-3,-1,0,-1,0,2021-08-07 13:03:55,046202
-3,-2,-1,0,0,0,-1,-1,2021-08-07 13:03:55,077169
-2,-3,-3,-3,0,-2,-1,-2,2021-08-07 13:03:55,077169
-3,-5,-2,-5,-8,-5,-3,-1,2021-08-07 13:03:55,077169
1,2,0,-5,-3,-2,-3,0,2021-08-07 13:03:55,077169
0,-1,1,5,6,5,2,1,2021-08-07 13:03:55,093203
0,-1,1,1,3,1,-2,-1,2021-08-07 13:03:55,093203
-2,-2,-2,-4,-4,-3,-1,1,2021-08-07 13:03:55,093203
-3,-4,-4,-5,-10,-7,-3,-4,2021-08-07 13:03:55,093203
-2,-3,-2,3,4,0,-1,-2,2021-08-07 13:03:55,109163
3,6,7,9,16,9,4,3,2021-08-07 13:03:55,109163
0,-1,-1,-1,-5,-4,-1,0,2021-08-07 13:03:55,109163
-1,1,0,-3,-2,0,0,1,2021-08-07 13:03:55,109163
0,0,0,-4,-4,-2,-1,-1,2021-08-07 13:03:55,140167
-3,-1,-3,-8,-12,-8,-4,-2,2021-08-07 13:03:55,156201
-2,-5,-7,-16,-26,-14,-8,-4,2021-08-07 13:03:55,156201
1,-1,2,15,30,16,8,3,2021-08-07 13:03:55,156201
4,7,7,12,16,11,4,2,2021-08-07 13:03:55,156201
-1,-5,-5,0,1,1,2,1,2021-08-07 13:03:55,156201
-2,-6,-8,-16,-18,-10,-4,-2,2021-08-07 13:03:55,156201
-1,1,1,-2,-8,-4,-3,-2,2021-08-07 13:03:55,156201
-5,-6,-5,-8,-10,-6,-5,-5,2021-08-07 13:03:55,171167
3,7,8,15,20,10,4,1,2021-08-07 13:03:55,171167
1,3,4,10,14,7,3,1,2021-08-07 13:03:55,171167
-4,-7,-7,-12,-22,-14,-10,-7,2021-08-07 13:03:55,171167
2,2,1,-6,-5,-2,-1,1,2021-08-07 13:03:55,187208
1,1,2,10,10,7,2,2,2021-08-07 13:03:55,203167
-1,-4,-3,4,3,-1,-1,-1,2021-08-07 13:03:55,203167
-1,1,0,-3,-5,-3,0,1,2021-08-07 13:03:55,203167
-2,-2,-2,-7,-9,-5,-4,-2,2021-08-07 13:03:55,203167
0,-2,-3,-2,7,5,3,-1,2021-08-07 13:03:55,203167
-2,-3,-2,2,8,4,0,-2,2021-08-07 13:03:55,219167
1,0,0,-3,-2,-1,0,-1,2021-08-07 13:03:55,219167
0,-1,1,-2,-9,-6,-2,-1,2021-08-07 13:03:55,235216
1,0,2,-3,-10,-8,-4,-1,2021-08-07 13:03:55,235216
-3,0,-5,-11,-19,-11,-5,-3,2021-08-07 13:03:55,235216
0,-1,1,17,28,17,5,0,2021-08-07 13:03:55,235216
-1,0,-2,5,7,3,1,-1,2021-08-07 13:03:55,251232
0,-1,-4,-10,-17,-7,-4,-1,2021-08-07 13:03:55,267252
1,2,4,14,19,6,3,1,2021-08-07 13:03:55,283253
-3,-3,-4,-13,-13,-8,-4,-2,2021-08-07 13:03:55,299252
-2,-1,-4,-9,-12,-7,-2,-3,2021-08-07 13:03:55,315253
0,0,1,7,5,3,0,-2,2021-08-07 13:03:55,315253
3,4,5,5,9,9,5,4,2021-08-07 13:03:55,315253
-1,-2,1,2,-2,-2,0,1,2021-08-07 13:03:55,315253
3,1,1,8,11,5,1,2,2021-08-07 13:03:55,315253
-1,-1,-3,-14,-20,-14,-6,-2,2021-08-07 13:03:55,315253
-2,-3,-2,-1,-4,-2,-2,-1,2021-08-07 13:03:55,315253
-1,-1,-1,-6,-6,-3,0,-1,2021-08-07 13:03:55,316254
-5,-4,-5,0,2,0,0,-3,2021-08-07 13:03:55,316254
0,-1,-2,-2,-2,-4,-2,-1,2021-08-07 13:03:55,316254
2,5,5,8,10,7,5,3,2021-08-07 13:03:55,316254
0,-1,-2,-3,-6,-6,-4,-2,2021-08-07 13:03:55,316254
-3,-3,-4,-14,-17,-8,-6,-2,2021-08-07 13:03:55,331217
3,4,4,12,21,11,5,3,2021-08-07 13:03:55,331217
-3,-2,-1,-2,-6,-6,-2,-2,2021-08-07 13:03:55,331217
0,0,-2,2,1,-1,2,-1,2021-08-07 13:03:55,331217
5,4,3,1,0,6,14,9,2021-08-07 13:03:55,347214
4,1,2,4,9,11,8,4,2021-08-07 13:03:55,347214
-2,-1,-1,1,3,-7,-14,-8,2021-08-07 13:03:55,347214
-19,-13,-13,-22,-34,-31,-29,-22,2021-08-07 13:03:55,347214
-5,-6,-4,4,15,9,3,0,2021-08-07 13:03:55,378259
3,3,2,0,-4,3,10,8,2021-08-07 13:03:55,394244
7,3,5,0,2,6,9,9,2021-08-07 13:03:55,410241
3,12,11,3,1,-3,-6,-3,2021-08-07 13:03:55,410241
-7,-7,-4,-10,-28,-24,-16,-10,2021-08-07 13:03:55,410241
4,5,7,15,30,25,10,6,2021-08-07 13:03:55,410241
0,-3,-2,-1,-4,2,7,4,2021-08-07 13:03:55,410241
-1,-7,-5,5,12,10,7,3,2021-08-07 13:03:55,410241
8,13,12,6,2,3,3,4,2021-08-07 13:03:55,411218
-5,-7,-5,-7,-14,-13,-7,-6,2021-08-07 13:03:55,411218
-1,-3,-4,-4,-4,-2,-4,-4,2021-08-07 13:03:55,411218
2,0,0,0,0,4,5,6,2021-08-07 13:03:55,411218
-4,-7,-9,-9,-10,-5,-6,-5,2021-08-07 13:03:55,426243
-3,-3,-4,-7,-10,-14,-11,-6,2021-08-07 13:03:55,442267
-3,1,3,18,27,17,4,1,2021-08-07 13:03:55,457817
2,1,2,7,7,6,6,3,2021-08-07 13:03:55,457817
-1,-4,-2,-3,-5,-2,0,0,2021-08-07 13:03:55,457817
-2,0,-1,-9,-17,-11,-5,0,2021-08-07 13:03:55,457817
2,2,-1,-6,-5,1,2,1,2021-08-07 13:03:55,457817
0,-5,-6,6,18,8,1,-2,2021-08-07 13:03:55,457817
3,9,10,17,22,7,-2,-1,2021-08-07 13:03:55,458782
-3,-3,-5,-8,-10,-10,-7,-5,2021-08-07 13:03:55,458782
-5,-6,-4,-1,-5,-6,-1,-2,2021-08-07 13:03:55,473782
5,6,3,-4,-6,3,6,9,2021-08-07 13:03:55,473782
-3,-4,-6,-6,-6,-3,-4,-3,2021-08-07 13:03:55,489783
1,3,4,3,-4,-2,-2,1,2021-08-07 13:03:55,489783
2,1,0,-5,-7,-3,0,0,2021-08-07 13:03:55,489783
-3,-6,-5,-2,-2,-3,-3,-1,2021-08-07 13:03:55,489783
-2,-4,-4,-5,-2,-3,-2,-1,2021-08-07 13:03:55,521782
-4,-4,-6,-11,-15,-7,-5,-4,2021-08-07 13:03:55,521782
1,3,6,19,34,16,6,2,2021-08-07 13:03:55,521782
2,4,2,-5,-7,-3,-1,-2,2021-08-07 13:03:55,537817
0,-3,-3,2,0,0,-2,0,2021-08-07 13:03:55,553816
-2,-5,-5,-13,-9,-3,-2,-4,2021-08-07 13:03:55,553816
-2,1,0,-2,-7,-8,-5,-1,2021-08-07 13:03:55,554780
0,-3,-4,-3,-4,0,0,-3,2021-08-07 13:03:55,554780
1,4,8,30,40,23,12,5,2021-08-07 13:03:55,554780
-1,0,0,0,-1,-2,-2,-1,2021-08-07 13:03:55,555780
1,0,0,-4,-10,-6,-2,-2,2021-08-07 13:03:55,555780
-1,-1,-1,-4,-7,-6,-2,-1,2021-08-07 13:03:55,555780
-2,-2,-2,-12,-18,-9,-3,-1,2021-08-07 13:03:55,569809
-3,-6,-3,4,10,6,-1,-2,2021-08-07 13:03:55,585783
-2,0,2,0,3,3,2,0,2021-08-07 13:03:55,585783
-3,-3,-5,-12,-18,-11,-4,-2,2021-08-07 13:03:55,585783
-2,-8,-5,-5,-1,-3,-2,-4,2021-08-07 13:03:55,585783
-2,-1,-1,-5,-6,-5,-1,-1,2021-08-07 13:03:55,585783
1,1,4,2,-2,0,1,0,2021-08-07 13:03:55,585783
1,-1,0,13,25,18,6,1,2021-08-07 13:03:55,586817
1,2,3,3,9,5,2,1,2021-08-07 13:03:55,617782
4,6,6,6,3,0,0,1,2021-08-07 13:03:55,617782
-5,-7,-12,-18,-23,-15,-9,-4,2021-08-07 13:03:55,649782
-3,-2,-2,-3,1,-3,-2,-3,2021-08-07 13:03:55,649782
-2,-3,-2,0,3,2,1,-1,2021-08-07 13:03:55,649782
2,1,3,7,4,1,1,0,2021-08-07 13:03:55,649782
-2,-3,-5,-9,-11,-9,-5,-4,2021-08-07 13:03:55,649782
1,2,3,0,-5,-3,-2,2,2021-08-07 13:03:55,649782
3,4,2,3,8,9,5,2,2021-08-07 13:03:55,649782
-1,-1,-1,2,8,2,0,-2,2021-08-07 13:03:55,649782
0,-2,-3,7,9,5,1,0,2021-08-07 13:03:55,665805
-1,-1,-1,-8,-14,-7,-3,-2,2021-08-07 13:03:55,665805
0,-1,-2,-2,-5,-2,-2,-1,2021-08-07 13:03:55,665805
0,1,0,1,0,5,0,1,2021-08-07 13:03:55,665805
1,0,3,-1,-2,-1,-1,-1,2021-08-07 13:03:55,665805
-3,-5,-6,-6,-6,-6,-3,-3,2021-08-07 13:03:55,665805
-6,-7,-10,-19,-26,-14,-8,-3,2021-08-07 13:03:55,697782
2,4,6,18,21,11,8,4,2021-08-07 13:03:55,713779
-1,-1,-2,-3,-4,-2,-1,0,2021-08-07 13:03:55,713779
1,2,3,9,7,3,2,0,2021-08-07 13:03:55,713779
0,-3,-2,-4,-5,-5,-3,-4,2021-08-07 13:03:55,713779
-4,-3,-6,-12,-10,-7,-5,-3,2021-08-07 13:03:55,713779
0,1,3,1,0,1,0,-2,2021-08-07 13:03:55,713779
1,2,3,5,8,5,3,2,2021-08-07 13:03:55,714782
1,2,2,0,0,-1,0,0,2021-08-07 13:03:55,745817
-2,-3,-3,-5,-10,-7,-4,-3,2021-08-07 13:03:55,761806
-4,-5,-5,-5,-6,-4,-4,-1,2021-08-07 13:03:55,761806
0,1,1,1,2,0,0,1,2021-08-07 13:03:55,761806
0,-1,1,7,9,6,0,0,2021-08-07 13:03:55,761806
-1,0,-2,-4,-4,-2,0,-1,2021-08-07 13:03:55,761806
-5,-6,-7,-18,-20,-13,-7,-4,2021-08-07 13:03:55,761806
1,3,2,2,-3,-1,0,2,2021-08-07 13:03:55,761806
0,3,1,6,9,6,2,2,2021-08-07 13:03:55,762809
3,2,3,10,10,5,3,1,2021-08-07 13:03:55,762809
0,1,-2,-3,-10,-6,-3,-1,2021-08-07 13:03:55,777806
-2,-4,-5,-6,3,2,-2,-3,2021-08-07 13:03:55,785781
-1,-1,-1,4,7,4,1,0,2021-08-07 13:03:55,786784
1,1,1,1,-2,2,3,1,2021-08-07 13:03:55,786784
3,2,4,9,17,8,4,3,2021-08-07 13:03:55,786784
-3,-4,-5,-10,-18,-11,-6,-4,2021-08-07 13:03:55,786784
-1,-1,0,-5,-10,-7,-2,-2,2021-08-07 13:03:55,809779
0,-2,-1,-4,-1,1,-2,-1,2021-08-07 13:03:55,809779
3,2,2,4,2,3,3,0,2021-08-07 13:03:55,809779
-1,-3,-3,1,6,4,1,-2,2021-08-07 13:03:55,825779
2,0,2,6,14,5,3,3,2021-08-07 13:03:55,825779
-1,2,0,-3,-4,-3,-1,0,2021-08-07 13:03:55,825779
0,0,1,3,7,7,2,-1,2021-08-07 13:03:55,857818
-1,-1,0,-2,-5,-5,-1,1,2021-08-07 13:03:55,857818
-3,-3,-5,-9,-13,-9,-4,-3,2021-08-07 13:03:55,857818
-3,-4,-5,-8,-13,-10,-5,-2,2021-08-07 13:03:55,857818
-1,1,2,8,9,4,2,0,2021-08-07 13:03:55,857818
-2,-1,-3,-6,-6,-5,0,-1,2021-08-07 13:03:55,857818
-3,-1,0,-11,-17,-6,-5,-2,2021-08-07 13:03:55,873817
-2,-3,-4,1,3,2,-1,0,2021-08-07 13:03:55,873817
2,4,3,12,23,13,7,4,2021-08-07 13:03:55,873817
-2,-3,-3,-6,-5,-5,-3,-1,2021-08-07 13:03:55,873817
-1,0,-2,-6,-14,-8,-3,-2,2021-08-07 13:03:55,889781
-1,-2,-1,-6,-1,4,0,-2,2021-08-07 13:03:55,889781
1,3,2,8,7,3,0,0,2021-08-07 13:03:55,889781
-1,-1,0,-2,-2,-1,-2,0,2021-08-07 13:03:55,889781
-1,-2,-1,6,4,-3,-5,-2,2021-08-07 13:03:55,905818
0,-3,0,1,5,5,2,0,2021-08-07 13:03:55,921785
-2,-1,-1,-8,-10,-7,-3,-2,2021-08-07 13:03:55,921785
-2,0,1,-1,-4,-2,0,-1,2021-08-07 13:03:55,921785
-1,-2,-2,-3,2,4,3,-1,2021-08-07 13:03:55,937782
-2,-3,-1,1,-2,-5,-3,-1,2021-08-07 13:03:55,937782
-1,-4,-2,-7,-7,-6,-2,-1,2021-08-07 13:03:55,937782
1,1,1,0,2,3,1,-1,2021-08-07 13:03:55,937782
-1,0,-1,-3,-9,-6,-2,-1,2021-08-07 13:03:55,937782
-2,-3,-4,-4,-8,-4,-2,-3,2021-08-07 13:03:55,937782
1,3,4,9,22,11,5,1,2021-08-07 13:03:55,953868
0,2,0,-1,0,-1,0,0,2021-08-07 13:03:55,953868
-3,-3,-4,-11,-11,-9,-4,-4,2021-08-07 13:03:55,969754
1,3,3,13,6,4,3,2,2021-08-07 13:03:55,984723
2,3,-1,-6,-5,-1,2,2,2021-08-07 13:03:55,984723
-5,-7,-5,1,6,3,-2,-3,2021-08-07 13:03:55,984723
-1,-2,-3,-1,-6,-5,-5,-2,2021-08-07 13:03:55,984723
-9,-13,-10,-9,-7,-9,-6,-6,2021-08-07 13:03:55,984723
4,4,2,-2,-7,-1,0,2,2021-08-07 13:03:55,984723
3,4,5,4,4,3,1,2,2021-08-07 13:03:55,984723
2,2,1,-2,-2,0,2,3,2021-08-07 13:03:56,016747
0,-1,-2,-5,-1,0,-1,0,2021-08-07 13:03:56,016747
-5,-9,-7,-8,-15,-10,-7,-4,2021-08-07 13:03:56,016747
0,0,2,14,31,24,9,3,2021-08-07 13:03:56,016747
2,2,4,3,7,6,5,2,2021-08-07 13:03:56,031721
1,2,0,2,5,1,1,0,2021-08-07 13:03:56,047760
-1,-1,1,1,-4,-3,2,0,2021-08-07 13:03:56,063717
-4,-4,-6,-4,-10,-10,-10,-5,2021-08-07 13:03:56,078755
-7,-11,-13,-21,-21,-18,-17,-10,2021-08-07 13:03:56,078755
10,21,22,31,37,23,12,9,2021-08-07 13:03:56,078755
-1,-2,-2,-8,-8,-1,5,4,2021-08-07 13:03:56,078755
9,6,3,-6,-11,1,12,10,2021-08-07 13:03:56,078755
-1,-1,-2,4,5,0,-7,-4,2021-08-07 13:03:56,078755
-11,-15,-11,-18,-23,-12,4,-2,2021-08-07 13:03:56,078755
13,8,9,17,31,37,39,18,2021-08-07 13:03:56,078755
10,4,1,0,-7,-18,-34,-11,2021-08-07 13:03:56,078755
-34,-19,-15,-14,-23,-52,-64,-47,2021-08-07 13:03:56,094765
-8,-5,-7,-4,-1,-13,-20,-13,2021-08-07 13:03:56,094765
-3,0,1,3,8,6,1,2,2021-08-07 13:03:56,094765
-2,-3,0,3,7,19,31,13,2021-08-07 13:03:56,094765
15,6,7,2,7,20,27,20,2021-08-07 13:03:56,110752
9,14,13,3,-4,1,5,8,2021-08-07 13:03:56,126720
-1,-2,-8,-8,-9,-3,1,-2,2021-08-07 13:03:56,126720
5,7,7,9,5,4,5,3,2021-08-07 13:03:56,126720
1,1,0,3,6,7,7,3,2021-08-07 13:03:56,126720
-4,-5,-5,-2,-1,1,1,-2,2021-08-07 13:03:56,126720
3,2,1,-4,-8,-7,-7,-2,2021-08-07 13:03:56,141754
-9,-5,-5,-20,-31,-24,-16,-10,2021-08-07 13:03:56,141754
2,3,6,24,41,25,15,5,2021-08-07 13:03:56,141754
7,2,1,6,11,13,14,8,2021-08-07 13:03:56,141754
-7,-7,-11,-35,-53,-31,-17,-8,2021-08-07 13:03:56,157721
-1,0,4,37,60,20,-5,-4,2021-08-07 13:03:56,157721
17,16,15,18,22,31,35,21,2021-08-07 13:03:56,173754
17,13,6,2,9,13,8,8,2021-08-07 13:03:56,174037
-25,-15,-12,-16,-34,-60,-66,-41,2021-08-07 13:03:56,174037
-36,-26,-23,-35,-49,-34,-21,-21,2021-08-07 13:03:56,174037
17,9,5,2,7,29,34,15,2021-08-07 13:03:56,203755
8,4,2,-1,-8,-10,-15,-4,2021-08-07 13:03:56,219721
0,4,8,13,13,19,27,19,2021-08-07 13:03:56,226233
80,27,18,17,37,83,97,84,2021-08-07 13:03:56,227239
-12,0,3,6,-4,-49,-70,-12,2021-08-07 13:03:56,227239
-96,-58,-44,-53,-75,-78,-65,-78,2021-08-07 13:03:56,227239
-20,-17,-16,0,11,16,10,-16,2021-08-07 13:03:56,227787
3,15,17,16,19,27,27,1,2021-08-07 13:03:56,227787
34,12,5,6,8,29,43,30,2021-08-07 13:03:56,227787
43,19,10,14,20,24,21,37,2021-08-07 13:03:56,227787
16,5,-2,-16,-29,-43,-39,-1,2021-08-07 13:03:56,227787
-42,-17,-21,-38,-45,-36,-38,-39,2021-08-07 13:03:56,227787
5,7,14,46,64,51,30,5,2021-08-07 13:03:56,251799
-10,-8,-7,-1,3,13,19,-1,2021-08-07 13:03:56,267798
1,0,6,25,34,22,10,6,2021-08-07 13:03:56,283800
9,8,7,-2,2,-19,-28,-10,2021-08-07 13:03:56,283800
-18,-6,-11,-25,-44,-41,-30,-20,2021-08-07 13:03:56,284803
-1,-1,-2,-2,-4,-5,3,3,2021-08-07 13:03:56,284803
10,-1,-3,-11,-19,15,29,17,2021-08-07 13:03:56,284803
3,0,-2,-11,-8,-1,0,5,2021-08-07 13:03:56,284803
-19,-5,-3,7,11,-13,-23,-22,2021-08-07 13:03:56,284803
13,-2,-3,1,11,11,11,13,2021-08-07 13:03:56,285802
9,9,9,-14,-20,-10,-4,4,2021-08-07 13:03:56,299836
-21,-3,4,15,1,-24,-29,-22,2021-08-07 13:03:56,299836
-2,-10,-9,-5,7,16,21,5,2021-08-07 13:03:56,315835
19,15,8,17,39,33,21,17,2021-08-07 13:03:56,315835
-14,-4,-2,-6,-20,-26,-29,-25,2021-08-07 13:03:56,315835
-3,-6,-6,9,37,25,18,4,2021-08-07 13:03:56,315835
5,0,-4,-28,-45,-24,-2,4,2021-08-07 13:03:56,347835
-9,-8,-4,-14,-26,-21,-19,-10,2021-08-07 13:03:56,347835
-5,4,3,13,16,5,0,-1,2021-08-07 13:03:56,347835
-4,-8,-11,-14,-37,-18,-10,-8,2021-08-07 13:03:56,347835
10,7,9,32,54,41,25,15,2021-08-07 13:03:56,347835
-15,-3,-7,-15,-13,-27,-28,-17,2021-08-07 13:03:56,347835
-1,-1,-1,-8,-10,1,3,0,2021-08-07 13:03:56,347835
9,10,14,31,39,16,8,8,2021-08-07 13:03:56,347835
-9,-6,-7,-19,-30,-18,-13,-11,2021-08-07 13:03:56,378804
1,-5,-8,1,10,15,8,1,2021-08-07 13:03:56,378804
3,0,2,2,16,10,6,4,2021-08-07 13:03:56,378804
-4,-3,-3,-12,-25,-20,-14,-8,2021-08-07 13:03:56,378804
-6,-6,-5,-10,-20,-8,-4,-2,2021-08-07 13:03:56,394824
11,12,12,25,27,17,13,11,2021-08-07 13:03:56,394824
-1,-6,-7,-7,-13,-11,-5,-1,2021-08-07 13:03:56,394824
1,5,7,5,18,14,6,2,2021-08-07 13:03:56,394824
6,2,-1,-2,-8,0,7,9,2021-08-07 13:03:56,410837
2,-1,-1,-17,-38,-19,-7,0,2021-08-07 13:03:56,426802
3,2,2,20,42,25,8,3,2021-08-07 13:03:56,442837
-10,-15,-15,-17,-21,-16,-9,-7,2021-08-07 13:03:56,443061
3,5,4,13,17,11,5,5,2021-08-07 13:03:56,443061
5,4,4,2,-2,3,3,2,2021-08-07 13:03:56,443061
-6,-4,-3,-1,-1,-2,-2,-5,2021-08-07 13:03:56,443061
5,-1,-4,-7,-10,-6,1,9,2021-08-07 13:03:56,443061
-8,-7,-8,-11,-19,-16,-11,-10,2021-08-07 13:03:56,458797
2,4,3,3,5,2,1,3,2021-08-07 13:03:56,474837
5,5,6,13,20,17,10,6,2021-08-07 13:03:56,490799
-9,-12,-16,-16,-18,-15,-10,-8,2021-08-07 13:03:56,490799
6,7,12,-5,-15,-6,-2,3,2021-08-07 13:03:56,490799
2,3,5,16,17,9,5,2,2021-08-07 13:03:56,490799
0,-1,-4,-1,-10,-3,1,-2,2021-08-07 13:03:56,490799
-12,-11,-14,-26,-16,-10,-9,-7,2021-08-07 13:03:56,490799
-5,-2,-2,-10,-2,0,0,-4,2021-08-07 13:03:56,491834
-1,0,3,14,13,5,-1,-2,2021-08-07 13:03:56,491834
5,5,6,14,19,9,5,4,2021-08-07 13:03:56,491834
-3,-5,-4,-5,-19,-8,-3,-3,2021-08-07 13:03:56,491834
-3,-6,-7,-11,-8,-5,-5,-6,2021-08-07 13:03:56,505823
4,4,3,-7,-13,-2,1,3,2021-08-07 13:03:56,505823
-5,-8,-5,11,23,10,1,-2,2021-08-07 13:03:56,521798
-6,-7,-6,-7,-18,-15,-10,-9,2021-08-07 13:03:56,521798
3,6,8,2,3,1,1,2,2021-08-07 13:03:56,536798
-1,-2,-3,-4,-7,-6,-3,-2,2021-08-07 13:03:56,536798
2,2,0,2,9,7,2,-1,2021-08-07 13:03:56,536798
4,8,8,9,11,6,5,4,2021-08-07 13:03:56,536798
-4,-5,-6,-1,-8,-9,-8,-5,2021-08-07 13:03:56,552799
-1,-1,-4,-8,-6,-3,-1,-1,2021-08-07 13:03:56,568799
-3,-4,-3,-12,-16,-6,-3,-1,2021-08-07 13:03:56,584802
4,6,8,14,10,4,1,2,2021-08-07 13:03:56,584802
-9,-16,-15,-8,-2,5,1,-6,2021-08-07 13:03:56,584802
4,8,8,17,19,3,-1,0,2021-08-07 13:03:56,584802
4,8,10,1,1,1,2,4,2021-08-07 13:03:56,584802
3,6,3,5,0,-1,1,0,2021-08-07 13:03:56,584802
-8,-11,-11,-13,-22,-14,-9,-5,2021-08-07 13:03:56,584802
-1,0,2,-2,2,5,4,0,2021-08-07 13:03:56,584802
0,-1,0,1,-4,-3,-2,0,2021-08-07 13:03:56,584802
5,5,7,18,24,14,7,2,2021-08-07 13:03:56,585800
3,4,-2,-6,-4,3,2,3,2021-08-07 13:03:56,631843
-9,-16,-16,-34,-30,-19,-12,-8,2021-08-07 13:03:56,631843
-4,-7,-5,-9,-10,-6,-6,-5,2021-08-07 13:03:56,631843
-3,-5,-2,4,11,7,1,-3,2021-08-07 13:03:56,647799
6,7,10,16,14,8,6,5,2021-08-07 13:03:56,663796
4,3,3,4,-2,0,5,3,2021-08-07 13:03:56,665799
1,1,-2,-9,-13,-9,-8,-2,2021-08-07 13:03:56,665799
-2,0,1,6,2,0,-3,-2,2021-08-07 13:03:56,665799
-2,0,2,0,4,0,0,-1,2021-08-07 13:03:56,666811
-1,0,1,9,13,10,3,-1,2021-08-07 13:03:56,666811
-6,-10,-10,-17,-26,-19,-6,-4,2021-08-07 13:03:56,666811
2,2,2,7,32,22,11,3,2021-08-07 13:03:56,666811
0,6,5,3,0,-4,-3,0,2021-08-07 13:03:56,667802
-4,-4,-3,-6,-11,-7,-3,-3,2021-08-07 13:03:56,667802
-1,-3,-2,5,5,6,3,0,2021-08-07 13:03:56,679798
-2,-1,-3,-11,-11,-8,-5,-3,2021-08-07 13:03:56,679798
-2,0,1,-5,-11,-8,-4,-2,2021-08-07 13:03:56,679798
2,3,2,2,2,1,0,2,2021-08-07 13:03:56,679798
1,-2,-4,2,15,9,5,3,2021-08-07 13:03:56,695821
-7,-11,-9,-8,0,-4,-4,-5,2021-08-07 13:03:56,695821
6,7,5,7,5,4,4,5,2021-08-07 13:03:56,727829
-1,-2,1,-2,-11,-9,-4,-3,2021-08-07 13:03:56,727829
-4,-3,0,-2,1,0,-1,-5,2021-08-07 13:03:56,727829
1,3,0,-4,-18,-10,-3,3,2021-08-07 13:03:56,727829
-3,-6,-7,2,15,9,2,-4,2021-08-07 13:03:56,727829
-3,-4,-4,-10,4,-1,-1,-1,2021-08-07 13:03:56,727829
-2,-1,-3,-10,-15,-8,-5,-3,2021-08-07 13:03:56,728799
1,0,5,-4,-16,-8,-3,0,2021-08-07 13:03:56,728799
-7,-9,-7,-1,0,-1,-6,-6,2021-08-07 13:03:56,743824
6,8,10,19,20,10,6,4,2021-08-07 13:03:56,743824
-2,-1,-4,-8,-10,-4,-1,-2,2021-08-07 13:03:56,759829
0,3,0,-8,-16,-11,-4,-1,2021-08-07 13:03:56,759829
-1,-5,-4,8,1,-6,-2,-1,2021-08-07 13:03:56,775798
1,3,2,17,36,26,9,3,2021-08-07 13:03:56,775798
-5,-2,-4,-12,-20,-13,-9,-6,2021-08-07 13:03:56,775798
2,2,6,12,11,4,2,2,2021-08-07 13:03:56,775798
1,3,-1,-14,-14,-6,-1,1,2021-08-07 13:03:56,806834
0,0,1,6,9,7,1,1,2021-08-07 13:03:56,806834
-2,-5,-4,-3,-7,-6,-4,-3,2021-08-07 13:03:56,806834
-4,-6,-10,-10,-15,-7,-5,-4,2021-08-07 13:03:56,806834
-5,-7,-4,0,27,16,4,-2,2021-08-07 13:03:56,806834
-1,0,0,-8,-18,-9,-4,0,2021-08-07 13:03:56,806834
4,5,9,17,22,9,5,3,2021-08-07 13:03:56,822823
-2,0,2,-6,-14,-9,-3,-2,2021-08-07 13:03:56,822823
1,2,3,7,11,6,2,-1,2021-08-07 13:03:56,837836
-3,-5,-8,-9,-17,-11,-4,-2,2021-08-07 13:03:56,837836
-2,-4,-3,-7,-5,-4,-6,-3,2021-08-07 13:03:56,837836
1,-2,-2,5,14,5,2,-1,2021-08-07 13:03:56,837836
1,3,3,-13,-27,-15,-5,-1,2021-08-07 13:03:56,853836
-2,-4,-1,11,24,14,4,-2,2021-08-07 13:03:56,853836
-5,-7,-12,-14,-20,-12,-3,-3,2021-08-07 13:03:56,853836
10,18,22,19,23,13,7,8,2021-08-07 13:03:56,853836
-2,-1,-4,-1,-1,-1,-2,-3,2021-08-07 13:03:56,885803
-2,-1,3,-2,-12,-12,-5,-2,2021-08-07 13:03:56,885803
-2,-2,-4,-7,-7,-4,-3,-2,2021-08-07 13:03:56,885803
-5,-10,-12,-5,-4,-1,-2,-5,2021-08-07 13:03:56,885803
0,2,10,-1,-6,0,1,3,2021-08-07 13:03:56,901802
0,2,-4,-4,-3,-2,-1,-1,2021-08-07 13:03:56,916834
-2,-5,-7,0,3,0,-1,-1,2021-08-07 13:03:56,916834
1,-5,-3,-6,4,2,0,1,2021-08-07 13:03:56,916834
2,2,3,1,-2,-2,-1,3,2021-08-07 13:03:56,916834
2,3,4,16,23,12,6,1,2021-08-07 13:03:56,916834
0,1,4,6,6,2,0,-1,2021-08-07 13:03:56,916834
2,6,2,-6,-14,-5,-1,1,2021-08-07 13:03:56,916834
-10,-14,-15,-21,-27,-14,-11,-11,2021-08-07 13:03:56,932834
4,-1,-3,5,11,7,5,6,2021-08-07 13:03:56,948834
4,10,10,3,2,4,5,4,2021-08-07 13:03:56,948834
0,4,6,10,21,9,2,1,2021-08-07 13:03:56,948834
2,-2,-7,-7,-9,-8,-2,-2,2021-08-07 13:03:56,948834
-1,0,2,-7,-12,-5,-2,0,2021-08-07 13:03:56,948834
-6,-8,-7,1,5,0,-3,-3,2021-08-07 13:03:56,948834
-6,-8,-9,-17,-32,-18,-10,-4,2021-08-07 13:03:56,948834
-1,-2,-6,-6,2,2,-1,-1,2021-08-07 13:03:56,979796
1,-2,1,4,7,6,5,2,2021-08-07 13:03:56,995848
2,5,8,10,8,4,3,2,2021-08-07 13:03:56,995848
-3,-4,-2,-8,-13,-11,-7,-4,2021-08-07 13:03:56,995848
5,6,2,15,16,9,7,2,2021-08-07 13:03:56,995848
-1,1,1,2,4,2,2,-1,2021-08-07 13:03:56,995848
-6,-9,-9,-18,-24,-13,-7,-5,2021-08-07 13:03:56,995848
-1,-6,-9,2,20,11,5,1,2021-08-07 13:03:56,995848
4,12,13,5,-9,-4,0,2,2021-08-07 13:03:57,011799
-1,2,3,-9,-18,-9,-6,-1,2021-08-07 13:03:57,011799
2,6,7,14,14,8,4,3,2021-08-07 13:03:57,011799
-8,-9,-10,-8,-16,-11,-8,-7,2021-08-07 13:03:57,011799
-5,-5,-4,-4,6,2,-1,-3,2021-08-07 13:03:57,042828
-1,2,1,5,0,-3,-2,-2,2021-08-07 13:03:57,042828
-4,-3,-2,-14,-11,-3,-2,-2,2021-08-07 13:03:57,042828
6,7,7,19,23,15,9,7,2021-08-07 13:03:57,058821
7,6,7,26,36,20,11,7,2021-08-07 13:03:57,058821
0,-2,-2,-10,-15,-10,-5,-2,2021-08-07 13:03:57,058821
-2,-5,-8,-13,-15,-11,-7,-4,2021-08-07 13:03:57,058821
-2,0,-1,-9,-7,-4,-1,-1,2021-08-07 13:03:57,058821
-6,-7,-9,-21,-37,-24,-12,-7,2021-08-07 13:03:57,074799
-2,-1,2,6,15,12,3,1,2021-08-07 13:03:57,090837
8,9,12,34,53,28,13,7,2021-08-07 13:03:57,090837
-2,-3,-3,-10,-16,-8,-4,-4,2021-08-07 13:03:57,090837
-1,-3,-3,-5,-3,-6,-3,2,2021-08-07 13:03:57,090837
-9,-13,-16,-35,-42,-24,-15,-10,2021-08-07 13:03:57,090837
4,7,8,17,20,12,5,5,2021-08-07 13:03:57,106798
1,-1,0,4,-1,-2,0,2,2021-08-07 13:03:57,106798
-7,-8,-8,-21,-27,-17,-9,-6,2021-08-07 13:03:57,122799
3,4,5,23,34,20,8,3,2021-08-07 13:03:57,122799
-2,0,-2,-14,-14,-6,-4,-2,2021-08-07 13:03:57,122799
3,10,7,9,11,4,4,2,2021-08-07 13:03:57,122799
-5,-9,-9,-12,-21,-11,-7,-4,2021-08-07 13:03:57,122799
-3,-6,-8,-17,-20,-14,-7,-4,2021-08-07 13:03:57,122799
0,-2,-2,4,10,5,3,-2,2021-08-07 13:03:57,137835
-6,-10,-8,-9,-19,-11,-9,-6,2021-08-07 13:03:57,137835
8,12,10,11,17,13,9,6,2021-08-07 13:03:57,153799
4,6,5,17,25,10,7,4,2021-08-07 13:03:57,153799
-2,-2,-1,-4,-1,-4,-2,-2,2021-08-07 13:03:57,153799
-7,-8,-5,-17,-24,-16,-9,-7,2021-08-07 13:03:57,153799
0,-3,-9,5,5,4,1,-1,2021-08-07 13:03:57,185822
4,5,7,-5,-13,-6,-1,2,2021-08-07 13:03:57,201841
4,4,3,16,20,13,7,3,2021-08-07 13:03:57,217893
1,1,2,0,8,6,2,0,2021-08-07 13:03:57,217893
2,1,5,13,20,10,4,2,2021-08-07 13:03:57,217893
-5,-3,-9,-19,-33,-18,-9,-5,2021-08-07 13:03:57,217893
-2,-5,-6,-11,-18,-10,-6,-3,2021-08-07 13:03:57,217893
0,-1,-3,8,25,14,5,3,2021-08-07 13:03:57,217893
7,13,13,0,-7,-5,1,4,2021-08-07 13:03:57,217893
-5,-1,-1,-3,-12,-8,-6,-5,2021-08-07 13:03:57,217893
0,-1,-1,-7,-10,-4,-1,-1,2021-08-07 13:03:57,249799
-2,-3,-4,-2,1,2,-2,-1,2021-08-07 13:03:57,249799
-2,-4,-3,-1,3,2,0,-1,2021-08-07 13:03:57,249799
-2,-3,-5,-12,-18,-10,-6,-3,2021-08-07 13:03:57,249799
-7,-8,-8,-12,-12,-8,-7,-5,2021-08-07 13:03:57,249799
3,1,4,20,23,14,7,3,2021-08-07 13:03:57,249799
4,8,8,7,8,4,5,4,2021-08-07 13:03:57,249799
0,1,2,4,-1,-1,0,0,2021-08-07 13:03:57,249799
-1,-1,0,10,27,13,5,1,2021-08-07 13:03:57,249799
0,1,0,4,5,-2,0,1,2021-08-07 13:03:57,250804
-4,-5,-3,-6,-8,-6,-4,-3,2021-08-07 13:03:57,280800
-2,-3,-5,-7,-10,-6,-6,-3,2021-08-07 13:03:57,296799
-2,-3,-3,-9,-12,-5,-4,0,2021-08-07 13:03:57,296799
1,0,-1,0,-1,0,-1,0,2021-08-07 13:03:57,296799
-2,-3,-3,11,28,15,4,-2,2021-08-07 13:03:57,296799
4,5,6,5,11,9,8,6,2021-08-07 13:03:57,296799
2,8,6,-6,-17,-10,-4,1,2021-08-07 13:03:57,296799
-1,0,2,9,13,6,2,-2,2021-08-07 13:03:57,296799
-3,-8,-8,-5,-8,-5,-5,-4,2021-08-07 13:03:57,311834
-6,-8,-8,-5,-3,-2,-5,-5,2021-08-07 13:03:57,311834
-1,-2,0,-9,-19,-11,-4,-4,2021-08-07 13:03:57,311834
2,3,2,1,6,6,5,3,2021-08-07 13:03:57,311834
-1,1,1,13,22,11,4,2,2021-08-07 13:03:57,343845
1,0,0,8,7,3,3,1,2021-08-07 13:03:57,359835
-2,-5,-6,-2,9,1,0,-2,2021-08-07 13:03:57,391833
-3,-1,-1,-28,-57,-32,-14,-7,2021-08-07 13:03:57,407834
3,3,5,12,21,15,6,4,2021-08-07 13:03:57,407834
-2,-2,0,2,15,6,2,1,2021-08-07 13:03:57,407834
-3,-3,-4,5,11,5,2,-2,2021-08-07 13:03:57,407834
-3,-7,-6,-12,-13,-9,-7,-3,2021-08-07 13:03:57,407834
0,4,6,0,-9,-3,-1,2,2021-08-07 13:03:57,407834
-3,-4,-5,-9,-9,-5,-4,-4,2021-08-07 13:03:57,408837
2,5,3,-1,-8,-5,-2,1,2021-08-07 13:03:57,408837
0,0,0,-2,-2,0,-2,2,2021-08-07 13:03:57,408837
-2,0,-2,-2,-8,-4,-2,-2,2021-08-07 13:03:57,408837
0,3,3,-3,0,-1,-1,0,2021-08-07 13:03:57,408837
-4,-9,-13,-12,-19,-7,-4,-2,2021-08-07 13:03:57,408837
4,6,9,25,41,19,10,5,2021-08-07 13:03:57,423800
1,2,2,-1,2,1,0,1,2021-08-07 13:03:57,423800
1,3,3,6,6,0,1,-1,2021-08-07 13:03:57,423800
-3,-4,-4,-6,-9,-2,-2,-2,2021-08-07 13:03:57,423800
-2,-1,-5,0,-1,0,-2,-3,2021-08-07 13:03:57,423800
-2,-4,-2,-11,-25,-13,-7,-4,2021-08-07 13:03:57,423800
-3,-5,-5,-5,-3,-3,-3,-1,2021-08-07 13:03:57,423800
-1,-1,4,7,22,11,2,1,2021-08-07 13:03:57,455834
-2,-3,-6,-7,-8,-5,-3,-3,2021-08-07 13:03:57,471799
-3,-1,-2,-4,-7,-4,-2,-2,2021-08-07 13:03:57,487835
-2,-2,-3,-8,-11,-3,-1,-3,2021-08-07 13:03:57,503834
2,4,5,11,6,4,2,3,2021-08-07 13:03:57,503834
-3,-3,-6,-17,-21,-9,-5,-1,2021-08-07 13:03:57,503834
2,1,3,7,10,1,2,2,2021-08-07 13:03:57,503834
-3,-4,-5,-9,-12,-8,-4,-5,2021-08-07 13:03:57,503834
1,1,2,10,16,11,7,3,2021-08-07 13:03:57,503834
0,0,1,3,14,7,2,-1,2021-08-07 13:03:57,503834
-2,-5,-9,-19,-21,-11,-5,-6,2021-08-07 13:03:57,504803
6,9,12,26,41,25,12,9,2021-08-07 13:03:57,504803
-3,-4,-4,-11,-22,-18,-8,-5,2021-08-07 13:03:57,504803
2,6,5,3,7,10,4,3,2021-08-07 13:03:57,504803
-3,-6,-6,-9,-14,-10,-6,-4,2021-08-07 13:03:57,519799
-7,-8,-7,-8,-15,-9,-7,-7,2021-08-07 13:03:57,527825
-2,-2,-3,-2,-2,-4,-4,-4,2021-08-07 13:03:57,528800
-5,-13,-11,-15,-28,-17,-9,-6,2021-08-07 13:03:57,528800
10,16,16,35,64,37,19,12,2021-08-07 13:03:57,528800
4,10,7,-4,-8,-2,1,2,2021-08-07 13:03:57,528800
0,0,0,2,-4,-4,-2,-2,2021-08-07 13:03:57,535824
0,2,3,-1,-6,-3,-1,0,2021-08-07 13:03:57,535824
-3,-7,-6,-3,-2,-3,-2,-2,2021-08-07 13:03:57,551799
-4,-6,-5,-4,2,1,-2,-4,2021-08-07 13:03:57,567799
-1,1,-3,-6,-5,-4,-2,0,2021-08-07 13:03:57,582835
-7,-9,-13,-24,-33,-18,-10,-9,2021-08-07 13:03:57,582835
14,18,18,34,41,27,16,11,2021-08-07 13:03:57,598832
0,0,-1,1,10,4,-2,-1,2021-08-07 13:03:57,614835
3,5,7,-2,1,2,3,1,2021-08-07 13:03:57,614835
-2,-2,4,-5,-5,-4,-3,-3,2021-08-07 13:03:57,614835
-8,-11,-18,-27,-57,-33,-15,-7,2021-08-07 13:03:57,614835
3,3,7,33,61,35,15,6,2021-08-07 13:03:57,614835
1,1,-2,-3,-11,-7,-3,0,2021-08-07 13:03:57,614835
2,3,4,8,12,6,4,2,2021-08-07 13:03:57,614835
-4,-4,-3,-13,-21,-13,-6,-3,2021-08-07 13:03:57,614835
-1,-5,-4,-2,-1,-4,-3,-1,2021-08-07 13:03:57,614835
-4,-4,-7,-12,-12,-5,-4,-3,2021-08-07 13:03:57,615839
-1,-1,-2,10,7,2,0,2,2021-08-07 13:03:57,615839
1,0,1,-1,1,0,0,0,2021-08-07 13:03:57,645818
0,1,-2,-3,-12,-7,0,-3,2021-08-07 13:03:57,661798
4,8,9,10,14,9,5,3,2021-08-07 13:03:57,661798
3,1,-3,6,7,2,1,1,2021-08-07 13:03:57,661798
-2,-1,-1,-15,-20,-9,-7,-4,2021-08-07 13:03:57,661798
-8,-11,-11,-11,-19,-13,-6,-6,2021-08-07 13:03:57,661798
1,1,2,11,19,8,2,-1,2021-08-07 13:03:57,661798
6,10,9,14,17,10,5,5,2021-08-07 13:03:57,661798
-9,-13,-13,-30,-38,-23,-13,-8,2021-08-07 13:03:57,661798
5,7,10,23,32,20,10,4,2021-08-07 13:03:57,661798
-7,-11,-11,-17,-27,-17,-9,-5,2021-08-07 13:03:57,677834
3,3,3,13,21,16,7,2,2021-08-07 13:03:57,693834
-1,1,1,-5,1,0,-1,0,2021-08-07 13:03:57,693834
-3,-8,-8,-11,-22,-11,-8,-4,2021-08-07 13:03:57,693834
3,5,2,-6,1,4,1,3,2021-08-07 13:03:57,693834
3,3,6,19,33,10,6,4,2021-08-07 13:03:57,694452
-2,-2,-2,0,-1,-2,-1,-1,2021-08-07 13:03:57,725796
1,-1,-1,-2,-3,1,1,0,2021-08-07 13:03:57,725796
-7,-9,-11,-12,-23,-17,-8,-6,2021-08-07 13:03:57,725796
0,-1,0,1,4,5,2,0,2021-08-07 13:03:57,725796
8,11,17,20,25,16,8,7,2021-08-07 13:03:57,725796
-4,-7,-10,-18,-26,-19,-10,-6,2021-08-07 13:03:57,725796
3,3,8,18,24,15,8,4,2021-08-07 13:03:57,741834
-3,-1,-4,-12,-24,-13,-8,-4,2021-08-07 13:03:57,741834
-4,-8,-8,-3,0,0,-1,-3,2021-08-07 13:03:57,757834
3,4,4,1,-3,0,1,1,2021-08-07 13:03:57,757834
-6,-13,-14,-13,-17,-9,-6,-6,2021-08-07 13:03:57,757834
0,4,5,6,18,11,5,0,2021-08-07 13:03:57,757834
3,6,7,15,12,4,2,2,2021-08-07 13:03:57,789834
-2,1,2,-8,-4,-3,-4,-1,2021-08-07 13:03:57,789834
-4,-6,-6,2,-2,-3,-3,-4,2021-08-07 13:03:57,789834
2,3,2,-6,-10,-3,1,0,2021-08-07 13:03:57,789834
-3,-5,-6,-7,-6,-4,-5,-3,2021-08-07 13:03:57,789834
2,2,-1,-4,-4,-2,0,-1,2021-08-07 13:03:57,789834
0,-1,0,8,18,7,0,-2,2021-08-07 13:03:57,805802
1,2,-1,-1,-4,-2,-2,0,2021-08-07 13:03:57,805802
-1,-3,-3,2,10,2,1,-1,2021-08-07 13:03:57,805802
-4,-6,-7,-5,-9,-5,-3,-2,2021-08-07 13:03:57,805802
4,8,11,6,4,2,4,4,2021-08-07 13:03:57,837846
-3,-5,-7,-13,-21,-12,-8,-4,2021-08-07 13:03:57,837846
-2,-2,-1,-3,-7,-4,-2,-2,2021-08-07 13:03:57,837846
-1,-3,-3,2,10,1,-2,-1,2021-08-07 13:03:57,837846
-1,-1,0,-2,-2,0,0,-1,2021-08-07 13:03:57,837846
-1,-1,-2,-6,-7,-7,-2,-1,2021-08-07 13:03:57,837846
0,-2,-2,-2,-8,-3,-1,1,2021-08-07 13:03:57,853834
1,-2,-1,7,20,13,4,2,2021-08-07 13:03:57,869833
4,10,10,5,5,6,5,4,2021-08-07 13:03:57,869833
0,0,1,7,13,6,3,0,2021-08-07 13:03:57,869833
-3,-2,-6,-9,-8,-4,-2,-3,2021-08-07 13:03:57,900801
-4,-8,-7,-8,-12,-8,-4,-3,2021-08-07 13:03:57,901103
-2,-2,-5,-14,-26,-13,-6,0,2021-08-07 13:03:57,901103
1,-2,-1,7,23,13,5,3,2021-08-07 13:03:57,901103
-2,-5,-5,10,23,9,3,-2,2021-08-07 13:03:57,901103
9,14,18,9,-6,-1,4,7,2021-08-07 13:03:57,901103
1,-1,1,3,14,9,2,0,2021-08-07 13:03:57,901802
-2,-3,-4,-18,-29,-17,-7,-4,2021-08-07 13:03:57,901802
-3,-5,-7,-6,-5,-1,-3,-3,2021-08-07 13:03:57,915815
-7,-3,-4,-13,-20,-13,-8,-3,2021-08-07 13:03:57,915815
2,2,1,6,2,1,-2,-1,2021-08-07 13:03:57,915815
-3,-4,-5,-8,-11,-3,-1,-2,2021-08-07 13:03:57,915815
3,3,3,6,11,7,5,4,2021-08-07 13:03:57,947836
0,-2,0,6,9,3,-1,-3,2021-08-07 13:03:57,947836
-1,0,0,-9,-11,-7,-2,-1,2021-08-07 13:03:57,947836
0,1,2,10,10,5,5,1,2021-08-07 13:03:57,948425
-3,-2,-3,-11,-17,-11,-7,-3,2021-08-07 13:03:57,948425
-6,-5,-9,-16,-22,-12,-7,-5,2021-08-07 13:03:57,948799
5,3,6,27,49,27,12,7,2021-08-07 13:03:57,972800
0,3,3,-2,-7,-6,-2,-1,2021-08-07 13:03:57,972800
-2,-1,1,5,15,6,2,-3,2021-08-07 13:03:57,972800
-3,-3,-1,-3,-7,-5,-3,-1,2021-08-07 13:03:57,972800
-11,-14,-15,-21,-23,-17,-12,-10,2021-08-07 13:03:57,972800
0,-2,1,6,5,3,1,1,2021-08-07 13:03:57,973835
5,4,3,8,10,6,1,4,2021-08-07 13:03:58,010834
-3,-2,-6,-22,-31,-17,-8,-3,2021-08-07 13:03:58,025796
-2,-2,-4,11,23,10,4,-1,2021-08-07 13:03:58,041799
8,9,9,3,7,7,6,8,2021-08-07 13:03:58,041799
-2,-2,0,-5,-22,-13,-7,-3,2021-08-07 13:03:58,057824
0,-2,-1,7,22,13,4,-1,2021-08-07 13:03:58,073823
-2,-3,-7,-10,-14,-9,-4,-3,2021-08-07 13:03:58,073823
-6,-8,-7,-7,-14,-9,-7,-7,2021-08-07 13:03:58,073823
2,-1,-3,4,18,13,4,0,2021-08-07 13:03:58,073823
1,2,1,-8,-22,-12,-4,1,2021-08-07 13:03:58,073823
4,6,10,12,10,7,4,4,2021-08-07 13:03:58,089835
-4,-4,-6,-9,-10,-4,-2,-4,2021-08-07 13:03:58,105799
0,1,2,4,-1,-1,0,1,2021-08-07 13:03:58,121800
-2,-2,-5,-2,0,-4,-3,-2,2021-08-07 13:03:58,121800
1,3,5,11,21,13,6,3,2021-08-07 13:03:58,121800
0,2,-1,2,-1,-2,-2,0,2021-08-07 13:03:58,121800
-2,-5,-6,-15,-12,-1,0,1,2021-08-07 13:03:58,121800
-1,1,3,13,12,2,-1,-3,2021-08-07 13:03:58,121800
-1,-1,-3,-12,-22,-10,-6,-1,2021-08-07 13:03:58,122803
2,1,5,16,28,15,5,1,2021-08-07 13:03:58,122803
-3,2,0,-13,-22,-13,-5,-2,2021-08-07 13:03:58,122803
4,5,3,16,30,20,8,4,2021-08-07 13:03:58,122803
1,0,0,-5,-18,-10,-3,-1,2021-08-07 13:03:58,122803
-2,-3,-4,1,14,7,2,0,2021-08-07 13:03:58,122803
0,0,2,7,5,-2,-1,-3,2021-08-07 13:03:58,122803
-1,-2,1,2,0,2,1,-1,2021-08-07 13:03:58,122803
-2,-4,-3,-5,3,2,-1,-4,2021-08-07 13:03:58,122803
4,4,4,8,6,5,5,5,2021-08-07 13:03:58,123824
-4,-4,-6,-12,-7,-6,-5,-4,2021-08-07 13:03:58,137824
-3,-5,-4,-13,-28,-19,-8,-5,2021-08-07 13:03:58,152799
-7,-6,-5,-5,-4,-3,-4,-5,2021-08-07 13:03:58,153014
2,1,1,1,2,2,0,0,2021-08-07 13:03:58,153014
-7,-10,-10,-10,-9,-3,-6,-5,2021-08-07 13:03:58,153014
14,20,25,35,42,25,16,12,2021-08-07 13:03:58,153014
3,6,2,4,9,4,4,4,2021-08-07 13:03:58,184804
-4,-6,-6,-13,-23,-16,-8,-5,2021-08-07 13:03:58,200796
0,-2,-2,12,21,13,8,1,2021-08-07 13:03:58,216834
-10,-16,-17,-14,-5,-4,-7,-6,2021-08-07 13:03:58,216834
-2,-2,0,-10,-19,-10,-4,-2,2021-08-07 13:03:58,231800
1,5,3,-2,-1,1,0,3,2021-08-07 13:03:58,247845
1,1,4,8,10,3,1,-1,2021-08-07 13:03:58,263797
-4,-3,-2,-9,-19,-8,-4,-4,2021-08-07 13:03:58,263797
1,2,1,5,12,3,0,0,2021-08-07 13:03:58,263797
-7,-9,-13,-30,-37,-20,-10,-5,2021-08-07 13:03:58,263797
4,6,10,18,23,13,5,6,2021-08-07 13:03:58,263797
-7,-8,-9,-6,-3,-4,-5,-5,2021-08-07 13:03:58,263797
0,-2,0,0,1,1,0,0,2021-08-07 13:03:58,263797
5,7,6,2,-6,-3,2,3,2021-08-07 13:03:58,264837
4,5,8,6,11,4,3,3,2021-08-07 13:03:58,264837
0,-1,-3,-10,-15,-8,0,-1,2021-08-07 13:03:58,264837
-8,-9,-11,-14,-21,-16,-11,-7,2021-08-07 13:03:58,264837
-1,-2,1,12,18,11,4,-1,2021-08-07 13:03:58,264837
1,0,-2,0,5,4,5,2,2021-08-07 13:03:58,264837
-2,3,1,-3,-4,-3,-2,-1,2021-08-07 13:03:58,264837
-1,-5,-7,-2,-4,-2,-1,-1,2021-08-07 13:03:58,265834
-10,-9,-7,-14,-18,-14,-10,-10,2021-08-07 13:03:58,265834
3,3,3,4,-1,0,0,-1,2021-08-07 13:03:58,279796
2,3,1,0,8,6,4,1,2021-08-07 13:03:58,279796
0,1,0,-6,-10,-5,-3,-2,2021-08-07 13:03:58,279796
0,0,-3,11,15,5,2,0,2021-08-07 13:03:58,279796
0,0,0,-8,-16,-4,-2,-1,2021-08-07 13:03:58,295796
-4,-5,-5,-3,12,1,-3,-4,2021-08-07 13:03:58,295796
-1,-2,-2,-4,-8,-2,1,-3,2021-08-07 13:03:58,295796
-1,-2,1,-3,-11,-8,-6,-3,2021-08-07 13:03:58,295796
-1,1,1,-4,-2,-3,-2,-1,2021-08-07 13:03:58,325796
-1,0,-1,0,-3,-2,-2,0,2021-08-07 13:03:58,341836
-2,-4,-4,-12,-24,-11,-6,-2,2021-08-07 13:03:58,357838
0,0,0,12,40,22,8,2,2021-08-07 13:03:58,357838
-2,-6,-7,-4,-5,-4,-2,-3,2021-08-07 13:03:58,357838
0,3,4,4,2,0,0,1,2021-08-07 13:03:58,357838
1,1,0,5,6,2,2,2,2021-08-07 13:03:58,357838
-2,-3,-4,-14,-29,-17,-8,-2,2021-08-07 13:03:58,357838
1,6,6,9,8,7,1,2,2021-08-07 13:03:58,358836
0,-3,1,0,9,2,1,2,2021-08-07 13:03:58,358836
4,7,6,8,18,9,5,4,2021-08-07 13:03:58,373835
-1,-3,-2,2,3,2,-1,-3,2021-08-07 13:03:58,389835
-5,-3,-6,-13,-20,-10,-5,-4,2021-08-07 13:03:58,405835
-5,-6,-7,-7,-21,-10,-6,-5,2021-08-07 13:03:58,416799
-1,-4,-4,3,5,1,-1,0,2021-08-07 13:03:58,416799
-4,-6,-6,-23,-28,-11,-7,-4,2021-08-07 13:03:58,416799
11,15,15,28,44,23,13,8,2021-08-07 13:03:58,416799
2,6,5,9,3,3,2,0,2021-08-07 13:03:58,436800
0,0,0,0,7,4,2,0,2021-08-07 13:03:58,436800
-5,-7,-9,-12,-26,-13,-6,-6,2021-08-07 13:03:58,436800
-6,-9,-12,-22,-21,-13,-9,-7,2021-08-07 13:03:58,436800
9,13,14,14,14,12,6,7,2021-08-07 13:03:58,436800
1,2,4,4,7,3,2,0,2021-08-07 13:03:58,436800
1,2,3,6,4,0,0,0,2021-08-07 13:03:58,436800
-6,-7,-8,-12,-10,-7,-5,-5,2021-08-07 13:03:58,436800
-4,-8,-5,9,18,8,2,0,2021-08-07 13:03:58,437799
-1,4,2,-9,-19,-8,-5,-1,2021-08-07 13:03:58,467845
3,0,0,7,11,6,4,3,2021-08-07 13:03:58,467845
0,0,-2,-4,-3,-2,-2,-2,2021-08-07 13:03:58,467845
-4,-3,-3,-11,-14,-9,-6,-3,2021-08-07 13:03:58,467845
-1,-1,-2,-8,-12,-5,-1,-1,2021-08-07 13:03:58,467845
0,2,3,-1,2,0,-2,-2,2021-08-07 13:03:58,467845
5,9,10,23,23,10,7,7,2021-08-07 13:03:58,467845
0,-4,-2,2,1,1,1,0,2021-08-07 13:03:58,467845
-5,-3,-6,1,12,4,0,-2,2021-08-07 13:03:58,483835
2,3,0,-9,-15,-9,-1,1,2021-08-07 13:03:58,483835
-6,-8,-6,-13,-21,-13,-9,-8,2021-08-07 13:03:58,515823
1,-1,0,0,-12,-6,-1,3,2021-08-07 13:03:58,515823
-1,-4,-4,0,2,0,-3,-4,2021-08-07 13:03:58,515823
6,8,13,37,68,39,17,6,2021-08-07 13:03:58,515823
1,-1,1,-1,-8,-4,1,2,2021-08-07 13:03:58,515823
-2,-3,-7,-9,-11,-11,-7,-3,2021-08-07 13:03:58,515823
-4,-6,-7,-24,-39,-20,-9,-4,2021-08-07 13:03:58,516798
1,2,5,23,32,18,7,4,2021-08-07 13:03:58,516798
0,2,5,13,10,6,1,1,2021-08-07 13:03:58,531798
-1,-3,-3,-6,-1,-1,1,-2,2021-08-07 13:03:58,531798
1,-2,0,-5,-5,-5,-4,0,2021-08-07 13:03:58,547836
0,1,-2,-11,-9,-4,-1,0,2021-08-07 13:03:58,547836
-9,-15,-14,-17,-21,-15,-9,-6,2021-08-07 13:03:58,547836
3,6,4,-3,4,7,3,2,2021-08-07 13:03:58,547836
0,3,3,1,-7,-5,-1,0,2021-08-07 13:03:58,562799
4,5,4,9,14,7,5,5,2021-08-07 13:03:58,562799
-2,-3,-5,-1,-5,0,-1,-3,2021-08-07 13:03:58,578846
-5,-6,-6,9,22,8,2,-2,2021-08-07 13:03:58,594834
5,5,6,15,29,11,5,2,2021-08-07 13:03:58,610845
-4,-5,-4,-12,-22,-15,-7,-5,2021-08-07 13:03:58,610845
-3,-4,-6,-27,-35,-21,-9,-4,2021-08-07 13:03:58,610845
1,2,4,4,-6,-1,-1,2,2021-08-07 13:03:58,610845
1,2,1,11,16,9,5,2,2021-08-07 13:03:58,610845
1,0,-1,-1,2,-2,-2,1,2021-08-07 13:03:58,610845
-5,-8,-8,-6,1,-1,-4,-4,2021-08-07 13:03:58,611800
-2,-4,-7,-16,-21,-11,-6,-4,2021-08-07 13:03:58,611800
1,3,4,8,2,-1,0,-1,2021-08-07 13:03:58,611800
-1,-2,-2,1,5,4,3,0,2021-08-07 13:03:58,611800
3,8,9,14,19,11,6,4,2021-08-07 13:03:58,657834
-4,-7,-10,-18,-22,-14,-5,-4,2021-08-07 13:03:58,673797
-5,-6,-5,7,18,8,-2,-2,2021-08-07 13:03:58,688837
4,10,11,2,-1,3,2,4,2021-08-07 13:03:58,689079
2,3,3,1,5,3,0,-1,2021-08-07 13:03:58,689079
-3,-3,-4,-5,5,1,-1,-1,2021-08-07 13:03:58,689079
-3,-4,-5,-3,-11,-6,0,-3,2021-08-07 13:03:58,689079
-2,-4,-4,-6,-13,-8,-5,-1,2021-08-07 13:03:58,689079
-4,-5,-6,-4,-7,-6,-5,-4,2021-08-07 13:03:58,689799
1,2,7,11,14,9,3,2,2021-08-07 13:03:58,689799
-3,-1,-3,-2,3,4,-1,-2,2021-08-07 13:03:58,689799
0,0,-1,-8,-12,-8,-1,0,2021-08-07 13:03:58,689799
2,4,5,4,1,2,0,0,2021-08-07 13:03:58,689799
-5,-8,-10,-20,-29,-17,-11,-5,2021-08-07 13:03:58,689799
7,9,10,23,37,19,11,7,2021-08-07 13:03:58,720844
-6,-10,-8,2,-7,-7,-6,-4,2021-08-07 13:03:58,736844
-1,0,3,2,8,4,1,0,2021-08-07 13:03:58,752839
-2,-1,-3,-2,-10,-9,-5,-1,2021-08-07 13:03:58,768844
-2,-3,-2,-17,-17,0,-2,-3,2021-08-07 13:03:58,800798
2,5,2,-3,-11,-8,-1,1,2021-08-07 13:03:58,816839
1,3,4,16,26,11,7,2,2021-08-07 13:03:58,816839
2,5,7,13,16,10,3,1,2021-08-07 13:03:58,816839
-6,-9,-11,-26,-45,-28,-11,-6,2021-08-07 13:03:58,816839
-3,-4,-2,6,2,0,-1,-3,2021-08-07 13:03:58,816839
0,0,-1,-6,-14,-5,-1,1,2021-08-07 13:03:58,816839
2,1,4,2,13,8,0,0,2021-08-07 13:03:58,816839
-2,-4,-4,1,3,0,-1,1,2021-08-07 13:03:58,817799
-1,-5,-3,-5,0,1,0,-2,2021-08-07 13:03:58,817799
5,6,4,5,4,1,3,4,2021-08-07 13:03:58,817799
-2,-4,-4,2,0,-1,0,-3,2021-08-07 13:03:58,817799
3,9,11,7,0,-1,-1,2,2021-08-07 13:03:58,817799
3,1,3,19,40,28,12,4,2021-08-07 13:03:58,817799
-1,-6,-8,-6,-7,-5,-4,-4,2021-08-07 13:03:58,817799
-1,3,0,-5,-9,-5,-1,-2,2021-08-07 13:03:58,818798
2,0,1,2,4,0,0,2,2021-08-07 13:03:58,818798
-2,1,0,-10,-10,-7,-3,-2,2021-08-07 13:03:58,818798
1,-2,0,6,12,8,2,1,2021-08-07 13:03:58,818798
0,-2,-2,-1,-7,-4,-1,-1,2021-08-07 13:03:58,818798
-2,-3,0,1,-1,-3,-3,-2,2021-08-07 13:03:58,832802
0,1,-1,1,0,1,3,0,2021-08-07 13:03:58,832802
-4,-6,-7,-18,-28,-16,-9,-3,2021-08-07 13:03:58,832802
-1,-2,-4,-4,3,2,2,1,2021-08-07 13:03:58,832802
0,2,-1,14,25,17,7,2,2021-08-07 13:03:58,844846
0,1,1,3,6,1,-2,-1,2021-08-07 13:03:58,844846
