EMG 1,EMG 2,EMG 3,EMG 4,EMG 5,EMG 6,EMG 7,EMG 8,Timestamp,Milliseconds
-1,-3,-2,-4,-6,-6,-2,-4,2021-08-07 12:39:44,652208
0,-3,-1,-2,-1,-1,-1,-2,2021-08-07 12:39:44,652208
0,1,-3,0,0,-3,-2,2,2021-08-07 12:39:44,652208
1,2,1,1,-1,2,1,3,2021-08-07 12:39:44,668182
-4,-7,-7,-6,-4,-5,-4,-4,2021-08-07 12:39:44,684182
5,6,6,4,2,1,2,3,2021-08-07 12:39:44,684182
1,-1,-1,-1,1,1,1,1,2021-08-07 12:39:44,684182
0,3,4,-1,1,0,1,-1,2021-08-07 12:39:44,684182
-5,-7,-6,-5,-6,-2,-4,-3,2021-08-07 12:39:44,699180
-1,-3,-3,-8,-9,-7,-3,-1,2021-08-07 12:39:44,699180
1,1,0,-5,-3,1,1,1,2021-08-07 12:39:44,699180
3,2,4,11,14,7,3,1,2021-08-07 12:39:44,699180
0,-1,-1,5,8,3,2,0,2021-08-07 12:39:44,731183
-4,-6,-4,-7,-5,-2,-2,-3,2021-08-07 12:39:44,731183
-1,-3,-2,-2,-7,-4,-2,-2,2021-08-07 12:39:44,731183
-2,-6,-6,-7,-9,-7,-3,-1,2021-08-07 12:39:44,731183
2,4,4,4,6,5,3,0,2021-08-07 12:39:44,731183
-2,-1,-1,0,1,0,-2,-1,2021-08-07 12:39:44,731183
-1,0,-1,1,1,-1,0,1,2021-08-07 12:39:44,732181
-1,-1,-2,0,3,5,-2,0,2021-08-07 12:39:44,732181
0,-1,-1,-3,-3,-5,-2,-1,2021-08-07 12:39:44,732181
-5,-5,-3,-4,-6,-4,-1,-1,2021-08-07 12:39:44,732181
0,1,3,1,2,1,-1,2,2021-08-07 12:39:44,747184
-3,-2,-4,-10,-14,-10,-5,-1,2021-08-07 12:39:44,747184
-1,1,1,0,7,6,2,1,2021-08-07 12:39:44,778183
1,1,0,6,10,5,1,0,2021-08-07 12:39:44,794185
0,0,2,4,6,5,2,0,2021-08-07 12:39:44,810182
0,1,0,1,-3,-2,1,-1,2021-08-07 12:39:44,825183
-2,0,1,-7,-13,-11,-5,0,2021-08-07 12:39:44,856184
-2,-2,-4,-1,3,0,-1,1,2021-08-07 12:39:44,856184
-2,-3,-6,0,-1,-3,-2,-2,2021-08-07 12:39:44,856184
-1,1,0,-2,-3,-3,0,-1,2021-08-07 12:39:44,856184
-3,0,-2,1,1,2,0,-1,2021-08-07 12:39:44,856184
0,-1,-1,3,2,1,2,-2,2021-08-07 12:39:44,857184
3,2,1,-3,-3,0,0,1,2021-08-07 12:39:44,857184
-4,-5,-4,-1,-1,-2,-2,-2,2021-08-07 12:39:44,872181
2,0,-2,-2,-6,-2,-1,0,2021-08-07 12:39:44,872181
-3,1,0,-3,-8,-4,-2,-1,2021-08-07 12:39:44,888185
1,1,2,8,12,9,5,2,2021-08-07 12:39:44,888185
-2,-3,-5,-8,-9,-5,-3,-2,2021-08-07 12:39:44,888185
-1,-2,1,4,8,6,-1,-1,2021-08-07 12:39:44,888185
2,1,1,4,5,4,1,1,2021-08-07 12:39:44,888185
-1,0,0,-1,-4,-4,-2,0,2021-08-07 12:39:44,888185
-2,-3,-2,-3,-8,-6,-3,-3,2021-08-07 12:39:44,889183
-3,-2,-3,-5,-9,-7,-4,-2,2021-08-07 12:39:44,889183
-1,-2,-2,-3,-7,-5,-3,-1,2021-08-07 12:39:44,889183
-1,1,2,0,10,9,3,0,2021-08-07 12:39:44,889183
0,1,1,2,5,4,2,0,2021-08-07 12:39:44,890183
-2,-3,-3,-4,-4,-4,0,-3,2021-08-07 12:39:44,904181
0,-3,-1,0,0,-1,-1,-1,2021-08-07 12:39:44,904181
-1,-5,-3,-6,-8,-6,-4,-2,2021-08-07 12:39:44,920181
3,4,3,4,1,0,1,0,2021-08-07 12:39:44,920181
3,5,6,2,7,8,5,2,2021-08-07 12:39:44,936180
-1,1,1,0,1,0,1,-2,2021-08-07 12:39:44,936180
-2,-2,-4,-5,-10,-7,-3,-3,2021-08-07 12:39:44,936180
-4,-4,-3,1,2,1,-1,-1,2021-08-07 12:39:44,936180
-1,-3,-3,-2,-1,-1,-2,-1,2021-08-07 12:39:44,937187
-2,-2,-2,-6,-9,-6,-3,-1,2021-08-07 12:39:44,937187
-3,-1,-1,-3,-2,-3,-2,-2,2021-08-07 12:39:44,937187
2,4,3,9,14,7,3,4,2021-08-07 12:39:44,937187
-1,-3,-4,1,0,-2,-1,-1,2021-08-07 12:39:44,937187
-1,-2,-5,-3,-2,-3,-1,-2,2021-08-07 12:39:44,937187
-1,-2,-1,0,-5,-4,-2,-3,2021-08-07 12:39:44,952219
-1,-3,0,-4,-4,-2,-1,-2,2021-08-07 12:39:44,968184
0,3,-1,4,4,4,1,2,2021-08-07 12:39:44,984181
1,0,0,-2,-2,-2,-3,0,2021-08-07 12:39:44,999182
0,-1,0,4,9,7,2,1,2021-08-07 12:39:44,999182
-1,-4,-3,-4,-9,-8,-4,-1,2021-08-07 12:39:44,999182
-2,-2,-3,-9,-16,-11,-4,-2,2021-08-07 12:39:44,999182
5,5,5,10,21,16,9,4,2021-08-07 12:39:44,999182
1,0,-2,-8,-12,-7,-5,-2,2021-08-07 12:39:45,000182
-1,-2,-3,-3,3,3,0,-2,2021-08-07 12:39:45,000182
0,-2,-1,4,8,4,2,1,2021-08-07 12:39:45,000182
-4,-2,-4,-7,-16,-11,-6,-2,2021-08-07 12:39:45,000182
-1,1,-2,2,6,4,2,1,2021-08-07 12:39:45,015182
0,3,2,-4,-6,-5,-2,-1,2021-08-07 12:39:45,031183
-3,-4,-1,-5,-4,-3,-2,-3,2021-08-07 12:39:45,063183
1,1,4,6,10,8,3,2,2021-08-07 12:39:45,063183
1,3,2,0,-2,-1,2,1,2021-08-07 12:39:45,079182
0,0,-2,-3,-8,-7,-4,-3,2021-08-07 12:39:45,079182
0,-1,-2,-6,-2,4,0,0,2021-08-07 12:39:45,079182
-2,0,0,1,0,-1,-2,0,2021-08-07 12:39:45,079182
-2,-3,-1,3,7,4,0,-1,2021-08-07 12:39:45,080182
0,0,3,2,4,3,2,1,2021-08-07 12:39:45,080182
1,0,0,0,-3,-3,-2,0,2021-08-07 12:39:45,080182
-2,-4,-5,-6,-5,-5,-1,-1,2021-08-07 12:39:45,080182
-2,-2,-2,-3,-4,-3,-3,-3,2021-08-07 12:39:45,095182
-1,0,-1,-8,-8,-5,-1,-1,2021-08-07 12:39:45,111182
-4,-4,-2,0,-5,-6,-4,-4,2021-08-07 12:39:45,127182
1,3,3,7,10,7,3,0,2021-08-07 12:39:45,127182
-1,1,1,4,5,1,2,-1,2021-08-07 12:39:45,127182
0,0,0,1,5,3,0,0,2021-08-07 12:39:45,143184
0,1,-1,-4,-8,-6,-3,-1,2021-08-07 12:39:45,159183
-3,-4,-5,-4,-4,-4,-3,-3,2021-08-07 12:39:45,159183
0,0,-1,-2,-4,-2,-3,0,2021-08-07 12:39:45,174182
1,-3,-3,-1,3,1,0,-1,2021-08-07 12:39:45,174182
2,1,2,0,-4,-5,0,0,2021-08-07 12:39:45,174182
3,-1,-1,-3,2,2,1,1,2021-08-07 12:39:45,174182
3,5,6,13,20,13,7,4,2021-08-07 12:39:45,174182
-3,-3,-3,-3,-9,-6,-4,-2,2021-08-07 12:39:45,175183
-2,-1,-1,0,3,4,0,-2,2021-08-07 12:39:45,175183
-1,-1,0,-3,-2,-1,-2,1,2021-08-07 12:39:45,175183
-3,-6,-5,-2,-7,-6,-4,-3,2021-08-07 12:39:45,175183
1,2,0,1,2,3,1,2,2021-08-07 12:39:45,175183
-2,-3,-3,-2,-6,-5,-1,-2,2021-08-07 12:39:45,175183
-1,-2,-3,-6,-7,-3,-3,-3,2021-08-07 12:39:45,176183
1,1,2,5,10,6,3,2,2021-08-07 12:39:45,190220
1,2,2,6,6,5,1,1,2021-08-07 12:39:45,190220
-3,-4,-4,-3,-3,-1,-2,-2,2021-08-07 12:39:45,206182
-2,-1,-3,-3,-7,-6,-3,-3,2021-08-07 12:39:45,208184
2,5,3,-7,-8,-3,1,3,2021-08-07 12:39:45,208184
-1,-2,-1,2,2,0,1,-1,2021-08-07 12:39:45,208184
-1,2,0,-1,2,0,1,-1,2021-08-07 12:39:45,208184
-1,-4,0,1,1,-1,-1,-2,2021-08-07 12:39:45,209184
-5,-7,-7,-8,-10,-9,-7,-4,2021-08-07 12:39:45,209184
1,1,3,1,5,3,2,1,2021-08-07 12:39:45,209184
-1,1,0,3,3,3,-2,1,2021-08-07 12:39:45,209184
1,3,3,-2,-1,4,3,2,2021-08-07 12:39:45,209184
-1,-1,0,4,3,1,1,-1,2021-08-07 12:39:45,238219
-3,-3,-3,-5,-7,-4,-2,-2,2021-08-07 12:39:45,238219
-3,-7,-5,-4,-3,-3,-4,-3,2021-08-07 12:39:45,238219
-3,-3,-3,-5,-9,-7,-6,-3,2021-08-07 12:39:45,239183
4,6,7,7,10,9,4,3,2021-08-07 12:39:45,254228
-4,-4,-6,-10,-13,-9,-5,-4,2021-08-07 12:39:45,254228
2,2,3,5,6,6,3,2,2021-08-07 12:39:45,270218
-1,-1,-3,-1,-2,-4,-3,-2,2021-08-07 12:39:45,270218
-3,-4,-4,-4,-9,-8,-3,-2,2021-08-07 12:39:45,270218
-2,-3,-2,2,6,3,1,-1,2021-08-07 12:39:45,270218
1,0,0,3,2,2,1,1,2021-08-07 12:39:45,270218
2,3,1,1,0,1,2,1,2021-08-07 12:39:45,271217
-2,-3,-2,-7,-8,-8,-5,-3,2021-08-07 12:39:45,302182
-1,0,-1,-1,-4,0,0,-1,2021-08-07 12:39:45,318183
1,-1,-1,-1,1,-2,0,-2,2021-08-07 12:39:45,318183
-3,0,-1,5,4,1,0,-1,2021-08-07 12:39:45,318183
-1,-2,-3,-6,-7,-3,-2,-2,2021-08-07 12:39:45,318183
2,2,1,7,9,6,3,1,2021-08-07 12:39:45,318183
1,5,3,1,0,-1,0,1,2021-08-07 12:39:45,319182
-2,-3,-3,1,1,-2,-2,-1,2021-08-07 12:39:45,319182
-3,-5,-6,-1,-3,-4,-4,-3,2021-08-07 12:39:45,334180
0,2,0,-2,-3,0,-1,0,2021-08-07 12:39:45,334180
-1,-3,-1,0,0,0,-1,0,2021-08-07 12:39:45,349182
2,4,3,0,0,0,2,1,2021-08-07 12:39:45,349182
-4,-4,-5,-3,-2,-2,-3,-2,2021-08-07 12:39:45,349182
0,-2,2,5,8,4,0,-2,2021-08-07 12:39:45,349182
-1,1,-2,-4,-5,-5,-2,-3,2021-08-07 12:39:45,350183
-4,-4,1,3,6,3,0,-1,2021-08-07 12:39:45,350183
2,0,0,-4,-6,-3,-1,-1,2021-08-07 12:39:45,380180
1,3,2,2,4,2,1,1,2021-08-07 12:39:45,380180
0,0,1,1,-2,-2,-1,-1,2021-08-07 12:39:45,396182
-3,-2,-2,-3,-1,-1,-1,0,2021-08-07 12:39:45,396182
-1,-2,0,-3,-8,-2,-2,-3,2021-08-07 12:39:45,396182
-2,-2,-2,-2,-2,-2,-3,-2,2021-08-07 12:39:45,396182
1,0,-2,0,2,2,1,1,2021-08-07 12:39:45,397182
1,0,-1,-5,-2,-4,0,1,2021-08-07 12:39:45,397182
2,2,1,5,8,7,4,3,2021-08-07 12:39:45,428181
-4,-6,-8,-8,-15,-9,-3,-4,2021-08-07 12:39:45,428181
-5,-4,1,3,4,3,-1,-2,2021-08-07 12:39:45,428181
-3,-3,-2,-3,-10,-3,-4,-5,2021-08-07 12:39:45,428181
0,0,3,7,10,4,3,1,2021-08-07 12:39:45,444182
1,4,4,5,12,5,4,3,2021-08-07 12:39:45,444182
-1,-3,-4,-6,-8,-7,-5,-3,2021-08-07 12:39:45,444182
1,0,-1,-3,-5,-2,-2,0,2021-08-07 12:39:45,444182
-3,-2,-5,-10,-17,-12,-7,-3,2021-08-07 12:39:45,460182
0,0,0,3,7,7,1,2,2021-08-07 12:39:45,460182
-4,-5,-6,-8,-10,-4,-3,-2,2021-08-07 12:39:45,460182
6,9,9,10,14,11,6,4,2021-08-07 12:39:45,460182
-1,-2,-2,-2,-1,-1,-1,-2,2021-08-07 12:39:45,476181
-3,-1,-3,-4,-7,-8,-5,-2,2021-08-07 12:39:45,476181
-1,-4,-2,-2,-5,-2,-2,-4,2021-08-07 12:39:45,476181
-1,-4,-5,-4,5,1,0,-1,2021-08-07 12:39:45,476181
1,2,2,0,-6,-4,-1,1,2021-08-07 12:39:45,492180
0,0,0,0,6,6,3,1,2021-08-07 12:39:45,508181
1,2,1,2,1,0,-1,1,2021-08-07 12:39:45,508181
-1,-2,-3,-1,-2,-1,-3,-2,2021-08-07 12:39:45,508181
-2,-2,-2,1,2,1,-1,-3,2021-08-07 12:39:45,508181
-1,-2,-2,-5,-8,-8,-3,-2,2021-08-07 12:39:45,508181
1,1,3,3,5,7,3,3,2021-08-07 12:39:45,509182
0,1,3,6,2,0,2,0,2021-08-07 12:39:45,509182
-1,0,-2,-4,-2,-1,-1,-1,2021-08-07 12:39:45,555181
-3,-3,-2,-4,-9,-8,-4,-4,2021-08-07 12:39:45,555181
-3,-6,-4,-8,-8,-5,-3,-3,2021-08-07 12:39:45,571180
1,4,3,3,12,6,5,1,2021-08-07 12:39:45,587182
0,0,0,7,16,12,4,2,2021-08-07 12:39:45,603183
0,-2,-2,-1,0,0,0,-2,2021-08-07 12:39:45,619182
2,1,1,-3,-5,-3,-1,-1,2021-08-07 12:39:45,635180
0,-1,-1,0,-1,0,-2,1,2021-08-07 12:39:45,635180
-3,-3,-3,-3,-6,-6,-4,-3,2021-08-07 12:39:45,635180
1,2,3,4,5,4,0,1,2021-08-07 12:39:45,635180
1,3,0,-3,-3,-4,-1,0,2021-08-07 12:39:45,635180
-4,-5,-5,-9,-18,-10,-6,-4,2021-08-07 12:39:45,636182
1,3,3,5,9,7,5,0,2021-08-07 12:39:45,636182
-1,-1,-3,-3,-2,1,-2,0,2021-08-07 12:39:45,636182
0,2,0,0,-1,-1,0,1,2021-08-07 12:39:45,636182
-1,-1,0,3,2,2,0,0,2021-08-07 12:39:45,636182
-1,-2,-1,-2,-4,-2,-2,-1,2021-08-07 12:39:45,637182
-1,-1,1,-3,-9,-8,-4,-4,2021-08-07 12:39:45,637182
3,7,6,7,7,3,4,5,2021-08-07 12:39:45,637182
-3,-5,-4,-7,-10,-5,-2,-4,2021-08-07 12:39:45,637182
-2,-3,-3,-2,-3,-5,-3,0,2021-08-07 12:39:45,637182
-3,-4,-2,4,4,3,0,0,2021-08-07 12:39:45,637182
-2,-3,-1,0,5,2,0,-1,2021-08-07 12:39:45,651180
0,0,-1,1,-3,-2,0,1,2021-08-07 12:39:45,666180
-1,-1,-5,-13,-19,-11,-6,-1,2021-08-07 12:39:45,666180
2,3,4,11,19,13,7,3,2021-08-07 12:39:45,666180
1,-1,0,8,10,4,1,1,2021-08-07 12:39:45,682182
-1,-3,-4,-7,-5,-3,-2,-2,2021-08-07 12:39:45,682182
-1,-1,1,-1,-4,-5,-3,-2,2021-08-07 12:39:45,682182
-2,-1,-3,-1,4,4,0,0,2021-08-07 12:39:45,682182
-2,-2,0,-2,-5,-5,-4,-2,2021-08-07 12:39:45,682182
2,4,6,7,9,6,3,3,2021-08-07 12:39:45,683182
-2,-3,-4,-3,-4,-3,-4,-2,2021-08-07 12:39:45,698183
-1,-3,-3,-2,-1,-2,-3,-2,2021-08-07 12:39:45,698183
-1,-3,-2,3,5,3,1,0,2021-08-07 12:39:45,698183
-4,-4,-6,-6,-6,-5,-6,-2,2021-08-07 12:39:45,698183
5,5,5,3,1,3,4,2,2021-08-07 12:39:45,714182
-1,0,-1,-3,-4,-3,-3,-1,2021-08-07 12:39:45,730181
-2,-4,-5,-5,-5,-3,-1,-4,2021-08-07 12:39:45,730181
1,2,2,2,3,-2,0,0,2021-08-07 12:39:45,730181
-2,-1,-4,-4,-4,-1,-2,0,2021-08-07 12:39:45,746221
1,0,-2,-3,-7,-6,-2,-1,2021-08-07 12:39:45,746221
0,0,1,4,8,5,2,-1,2021-08-07 12:39:45,746221
1,1,0,1,7,5,4,2,2021-08-07 12:39:45,746221
0,-2,0,2,6,3,1,-2,2021-08-07 12:39:45,762219
-5,-3,-3,-6,-9,-9,-3,-3,2021-08-07 12:39:45,777223
-2,-3,-2,-5,-7,-5,-3,-1,2021-08-07 12:39:45,777223
0,0,1,-3,-6,-5,-3,-2,2021-08-07 12:39:45,778222
-3,-4,-4,-5,-12,-6,-3,-3,2021-08-07 12:39:45,794184
4,5,6,12,19,13,8,4,2021-08-07 12:39:45,809184
0,2,0,-2,-4,-3,-1,0,2021-08-07 12:39:45,825182
0,-3,-1,1,2,0,0,1,2021-08-07 12:39:45,825182
1,1,1,0,2,-2,-1,0,2021-08-07 12:39:45,825182
-5,-8,-9,-13,-24,-14,-8,-6,2021-08-07 12:39:45,825182
0,-1,-1,-2,0,2,2,1,2021-08-07 12:39:45,825182
4,5,6,5,13,10,6,2,2021-08-07 12:39:45,841223
-1,0,0,-1,0,-4,0,-2,2021-08-07 12:39:45,841223
-1,-4,-4,0,0,-1,-2,-2,2021-08-07 12:39:45,841223
-1,-1,-1,-4,-11,-8,-5,-3,2021-08-07 12:39:45,841223
1,2,2,-3,-6,-4,0,-1,2021-08-07 12:39:45,841223
0,-1,-1,3,6,5,1,0,2021-08-07 12:39:45,841223
0,0,0,-1,0,-1,-2,-2,2021-08-07 12:39:45,841223
-2,-2,-3,-2,-2,1,-1,-1,2021-08-07 12:39:45,842182
-1,-1,-2,0,2,1,0,-3,2021-08-07 12:39:45,842182
-2,-1,1,1,4,2,0,1,2021-08-07 12:39:45,857203
-2,-2,-4,-6,-12,-8,-2,-2,2021-08-07 12:39:45,857203
1,1,1,0,4,3,1,1,2021-08-07 12:39:45,857203
2,2,3,9,13,8,4,1,2021-08-07 12:39:45,857203
-5,-5,-5,-5,-6,-3,-6,-4,2021-08-07 12:39:45,889209
-1,1,3,-3,-2,1,0,-1,2021-08-07 12:39:45,889209
1,0,-1,-4,-6,-4,0,0,2021-08-07 12:39:45,889209
-5,-5,-6,-5,-4,-3,-1,-4,2021-08-07 12:39:45,889209
1,2,2,2,5,3,2,2,2021-08-07 12:39:45,890184
1,0,1,1,1,0,-1,0,2021-08-07 12:39:45,890184
1,0,-3,-3,-4,-3,-1,-2,2021-08-07 12:39:45,905181
-4,-6,-6,-2,-3,-4,-4,-2,2021-08-07 12:39:45,905181
0,2,0,-2,-2,-1,0,0,2021-08-07 12:39:45,921226
0,-1,0,3,8,5,-1,0,2021-08-07 12:39:45,937223
3,8,6,4,5,3,3,3,2021-08-07 12:39:45,937223
-1,-4,-4,-3,-9,-8,-6,-3,2021-08-07 12:39:45,937223
-1,-1,-1,1,4,0,1,0,2021-08-07 12:39:45,937223
-2,-3,-4,-6,-9,-7,-2,-2,2021-08-07 12:39:45,938222
-1,-1,0,4,4,1,-1,-1,2021-08-07 12:39:45,938222
0,-1,0,-1,-3,-2,0,0,2021-08-07 12:39:45,938222
0,1,1,4,11,6,4,2,2021-08-07 12:39:45,952222
-1,-2,-2,-2,-4,-4,-3,-2,2021-08-07 12:39:45,952222
-2,1,-1,-5,-3,-2,-1,0,2021-08-07 12:39:45,968183
-3,-3,-2,-5,-11,-6,-4,-3,2021-08-07 12:39:45,983222
2,2,3,6,10,8,2,2,2021-08-07 12:39:45,983222
0,4,4,5,2,3,2,3,2021-08-07 12:39:45,983222
-2,-2,-2,-1,1,-2,0,-1,2021-08-07 12:39:45,983222
0,2,1,0,-1,-3,-2,0,2021-08-07 12:39:45,983222
-4,-4,-4,-5,-11,-8,-4,-3,2021-08-07 12:39:45,999232
3,0,-1,2,5,5,4,1,2021-08-07 12:39:46,015181
-2,-3,-3,-1,0,1,-1,0,2021-08-07 12:39:46,046223
1,3,1,2,2,1,1,1,2021-08-07 12:39:46,046223
1,1,2,3,-4,-2,-3,-1,2021-08-07 12:39:46,046223
1,2,2,1,3,2,2,-1,2021-08-07 12:39:46,046223
0,-1,-1,2,2,1,0,1,2021-08-07 12:39:46,046223
-4,-5,-4,-7,-8,-6,-2,-3,2021-08-07 12:39:46,047183
-2,-3,-2,0,-1,-1,0,-2,2021-08-07 12:39:46,047183
3,4,4,-1,1,0,2,2,2021-08-07 12:39:46,062223
0,-2,-1,-3,-2,-2,0,-1,2021-08-07 12:39:46,062223
-3,-1,-2,-7,-6,-5,-1,-2,2021-08-07 12:39:46,062223
2,1,1,7,13,6,2,1,2021-08-07 12:39:46,062223
-2,-2,-2,-3,-5,-2,-2,-1,2021-08-07 12:39:46,062223
-2,-3,-2,2,0,-1,-2,-2,2021-08-07 12:39:46,062223
0,1,-1,-7,-10,-6,-3,0,2021-08-07 12:39:46,063182
-5,-5,-4,-1,-1,-2,-2,-4,2021-08-07 12:39:46,078180
0,0,-2,2,6,7,3,2,2021-08-07 12:39:46,078180
0,0,-1,-2,-6,-7,-2,1,2021-08-07 12:39:46,093182
1,-2,-3,0,-4,0,-1,-1,2021-08-07 12:39:46,093182
0,2,1,-3,4,2,0,1,2021-08-07 12:39:46,093182
-2,-4,-3,0,3,-2,-1,-1,2021-08-07 12:39:46,093182
-1,-1,0,1,-1,1,1,1,2021-08-07 12:39:46,108220
-2,-3,-5,-4,-5,-5,-3,-1,2021-08-07 12:39:46,124222
-1,0,-1,-9,-16,-9,-3,0,2021-08-07 12:39:46,124222
-4,-6,-7,-8,-6,-6,-4,-3,2021-08-07 12:39:46,124222
6,9,10,12,23,16,8,3,2021-08-07 12:39:46,124222
-1,-1,0,1,5,3,-1,-2,2021-08-07 12:39:46,124222
-1,-2,-2,-1,-7,-2,-2,-3,2021-08-07 12:39:46,140181
-6,-10,-10,-19,-30,-21,-13,-7,2021-08-07 12:39:46,155181
4,6,7,11,21,17,9,4,2021-08-07 12:39:46,187190
4,6,6,11,17,11,6,5,2021-08-07 12:39:46,187190
-1,0,-3,-1,2,0,0,-1,2021-08-07 12:39:46,187190
-1,0,0,1,-5,-4,-3,-2,2021-08-07 12:39:46,187831
-5,-8,-10,-11,-15,-10,-7,-6,2021-08-07 12:39:46,187831
2,3,4,1,3,4,3,1,2021-08-07 12:39:46,188183
-4,-3,-2,-5,-7,-6,-3,-2,2021-08-07 12:39:46,188183
0,0,0,3,8,3,4,0,2021-08-07 12:39:46,188183
-2,-3,-6,-1,-1,-2,-4,-1,2021-08-07 12:39:46,188183
0,-3,-2,-3,-4,-3,-3,-1,2021-08-07 12:39:46,188183
2,3,1,-1,-7,-3,-1,2,2021-08-07 12:39:46,188183
4,5,6,11,23,14,5,4,2021-08-07 12:39:46,188183
-2,-4,-4,-7,-11,-9,-5,-4,2021-08-07 12:39:46,202829
-3,-2,-1,2,2,2,1,-2,2021-08-07 12:39:46,202829
-1,-1,-3,-3,1,-1,-2,0,2021-08-07 12:39:46,217790
0,2,2,-3,-8,-3,0,-1,2021-08-07 12:39:46,217790
0,-1,0,0,-1,-1,1,0,2021-08-07 12:39:46,217790
1,-1,-5,-8,-10,-7,-3,-1,2021-08-07 12:39:46,217790
0,-2,-2,-1,-4,-2,-1,-2,2021-08-07 12:39:46,247790
-2,-2,0,4,8,7,1,0,2021-08-07 12:39:46,247790
-8,-6,-4,-6,0,-4,-4,-5,2021-08-07 12:39:46,247790
2,3,5,9,13,6,3,0,2021-08-07 12:39:46,247790
-2,-1,-2,-1,1,-1,0,-2,2021-08-07 12:39:46,247790
-1,-2,-2,-3,-4,-6,-5,-2,2021-08-07 12:39:46,247790
1,3,0,-5,-13,-6,-2,0,2021-08-07 12:39:46,262793
3,3,-1,-1,3,0,2,2,2021-08-07 12:39:46,262793
1,2,1,1,3,1,1,0,2021-08-07 12:39:46,278833
-2,-3,-2,-3,-7,-5,-1,-3,2021-08-07 12:39:46,278833
-3,-4,-2,-4,-4,-3,-2,-3,2021-08-07 12:39:46,294831
-2,-3,-3,-5,-4,-3,-2,-2,2021-08-07 12:39:46,294831
-1,1,0,2,1,0,-1,0,2021-08-07 12:39:46,294831
0,0,-2,-4,-5,-2,1,0,2021-08-07 12:39:46,294831
-1,-1,0,1,0,2,0,1,2021-08-07 12:39:46,294831
0,-2,1,2,6,3,1,-1,2021-08-07 12:39:46,295832
1,-2,-2,-3,0,2,0,-1,2021-08-07 12:39:46,325830
-2,-2,0,0,0,-1,-3,0,2021-08-07 12:39:46,325830
1,3,0,0,-4,-5,-1,1,2021-08-07 12:39:46,325830
-3,-3,-3,-5,-5,-1,-2,-4,2021-08-07 12:39:46,325830
0,0,4,8,19,13,6,2,2021-08-07 12:39:46,341831
2,2,3,3,7,6,3,3,2021-08-07 12:39:46,344793
2,3,2,1,3,2,1,3,2021-08-07 12:39:46,344793
-2,-3,-2,-1,-4,-6,-4,-2,2021-08-07 12:39:46,344793
-4,-4,-4,-9,-19,-13,-7,-4,2021-08-07 12:39:46,373817
-2,-1,-2,-3,2,1,1,-2,2021-08-07 12:39:46,373817
0,0,1,0,6,4,1,1,2021-08-07 12:39:46,373817
-4,-5,-6,-3,-9,-8,-4,-1,2021-08-07 12:39:46,373817
1,0,2,2,8,8,2,2,2021-08-07 12:39:46,373817
0,1,0,-1,-6,-5,-3,0,2021-08-07 12:39:46,374795
-1,-3,-1,-1,-1,-2,-2,-2,2021-08-07 12:39:46,389794
-1,-2,0,1,7,6,2,1,2021-08-07 12:39:46,389794
0,1,0,2,-1,-4,-3,-2,2021-08-07 12:39:46,405790
2,-1,-2,-5,-10,-6,-2,-2,2021-08-07 12:39:46,405790
2,3,1,4,4,5,0,1,2021-08-07 12:39:46,405790
0,0,1,2,3,0,-2,0,2021-08-07 12:39:46,405790
-3,-4,-3,1,-4,-3,-3,-2,2021-08-07 12:39:46,421790
-1,-1,1,3,3,1,1,-2,2021-08-07 12:39:46,437830
-2,-4,-3,-6,-8,-5,-2,-2,2021-08-07 12:39:46,437830
1,2,1,0,1,3,3,1,2021-08-07 12:39:46,437830
1,0,0,-8,-6,-3,0,1,2021-08-07 12:39:46,437830
0,1,0,4,6,5,-1,0,2021-08-07 12:39:46,453816
-3,-6,-6,-5,-6,-4,-3,-3,2021-08-07 12:39:46,468790
1,2,3,2,3,5,3,2,2021-08-07 12:39:46,468790
0,0,1,-2,-1,-2,0,1,2021-08-07 12:39:46,468790
-3,-4,-6,-7,-8,-5,-3,-2,2021-08-07 12:39:46,468790
-1,1,2,3,5,2,0,0,2021-08-07 12:39:46,468790
-4,-6,-5,-1,0,-2,-4,-4,2021-08-07 12:39:46,469792
4,5,4,5,6,5,3,1,2021-08-07 12:39:46,484793
0,1,-1,2,2,-1,1,0,2021-08-07 12:39:46,484793
0,-1,-1,-1,-3,-2,-2,-2,2021-08-07 12:39:46,484793
-1,2,2,-3,-6,-4,-1,0,2021-08-07 12:39:46,484793
-3,-6,-8,-5,-6,-4,-3,-1,2021-08-07 12:39:46,499788
1,0,0,-3,-3,-3,-3,0,2021-08-07 12:39:46,515830
0,2,1,-3,-8,-5,-2,-1,2021-08-07 12:39:46,515830
0,-2,-1,11,19,12,3,-1,2021-08-07 12:39:46,515830
-2,-1,-1,0,1,2,1,-1,2021-08-07 12:39:46,515830
0,-2,-2,-5,3,1,1,0,2021-08-07 12:39:46,515830
-3,-6,-7,-7,-11,-11,-4,-5,2021-08-07 12:39:46,516790
3,3,5,1,2,3,2,2,2021-08-07 12:39:46,516790
-2,-2,-2,-7,-11,-8,-5,-2,2021-08-07 12:39:46,547790
2,4,3,6,5,4,4,2,2021-08-07 12:39:46,547790
-1,-1,2,7,14,11,4,1,2021-08-07 12:39:46,547790
-1,-3,-2,-3,-5,-4,-1,-2,2021-08-07 12:39:46,547790
1,0,1,-1,-1,0,-1,-2,2021-08-07 12:39:46,547790
-3,-4,-4,-6,-11,-7,-4,-3,2021-08-07 12:39:46,548791
0,-2,-2,-2,-5,-4,-2,0,2021-08-07 12:39:46,563831
-2,-3,-3,-4,-5,-3,-1,-2,2021-08-07 12:39:46,563831
1,5,4,6,7,7,6,1,2021-08-07 12:39:46,579824
3,1,5,6,11,7,3,2,2021-08-07 12:39:46,594790
1,4,3,7,11,6,4,2,2021-08-07 12:39:46,594790
-2,-3,-4,-7,-14,-10,-7,-2,2021-08-07 12:39:46,594790
0,-4,-3,-4,-7,-6,-3,1,2021-08-07 12:39:46,594790
-2,-4,-2,-3,-8,-3,-3,-3,2021-08-07 12:39:46,594790
2,4,3,6,14,10,7,4,2021-08-07 12:39:46,594790
1,-1,-1,0,2,1,-1,-2,2021-08-07 12:39:46,595791
-4,-5,-5,-3,-3,-5,-3,-3,2021-08-07 12:39:46,625827
1,4,0,-2,-6,-3,-2,0,2021-08-07 12:39:46,625827
0,0,0,-1,-1,-2,-1,1,2021-08-07 12:39:46,625827
0,1,0,1,0,1,1,0,2021-08-07 12:39:46,625827
0,1,2,4,4,2,1,0,2021-08-07 12:39:46,641832
-3,-5,-3,-5,-8,-5,-1,-3,2021-08-07 12:39:46,641832
0,-1,1,0,4,2,-2,-1,2021-08-07 12:39:46,641832
0,1,-1,-2,-2,-1,0,0,2021-08-07 12:39:46,641832
-2,-2,-4,-6,-12,-9,-6,-2,2021-08-07 12:39:46,689790
-1,-3,-4,-5,-1,-2,-2,-1,2021-08-07 12:39:46,689790
1,1,3,4,10,7,5,2,2021-08-07 12:39:46,689790
0,-1,0,1,0,0,-1,-1,2021-08-07 12:39:46,689790
0,2,-2,-1,-1,0,-2,-1,2021-08-07 12:39:46,689790
-3,-2,-4,-6,-9,-9,-5,-2,2021-08-07 12:39:46,690790
-1,-3,-6,-11,-17,-7,-4,-4,2021-08-07 12:39:46,704790
2,3,6,15,23,16,7,3,2021-08-07 12:39:46,704790
-3,-2,-3,-2,-3,-4,-1,-1,2021-08-07 12:39:46,704790
-1,1,1,4,4,1,0,0,2021-08-07 12:39:46,720788
-3,-5,-5,-7,-11,-8,-4,-3,2021-08-07 12:39:46,752790
-1,-2,-3,-7,-10,-5,-4,-1,2021-08-07 12:39:46,752790
1,0,2,4,11,7,1,0,2021-08-07 12:39:46,752790
0,2,3,4,7,4,2,2,2021-08-07 12:39:46,753494
-1,0,-2,-3,-5,-4,-4,-1,2021-08-07 12:39:46,753793
-5,-8,-9,-16,-19,-10,-7,-3,2021-08-07 12:39:46,753793
1,0,3,8,12,8,4,2,2021-08-07 12:39:46,753793
2,2,2,2,3,1,0,0,2021-08-07 12:39:46,753793
-2,2,0,-2,-4,-3,-2,-2,2021-08-07 12:39:46,753793
-2,-1,-1,-5,-6,-5,-3,0,2021-08-07 12:39:46,753793
-3,-3,-4,-4,-7,-7,-2,-3,2021-08-07 12:39:46,754790
1,0,-1,4,10,8,4,0,2021-08-07 12:39:46,754790
-1,-2,-3,4,6,5,2,0,2021-08-07 12:39:46,754790
-2,-2,-3,-6,-10,-9,-4,-1,2021-08-07 12:39:46,754790
0,1,1,2,5,2,0,0,2021-08-07 12:39:46,783838
-1,-3,-4,-4,-5,-2,-1,0,2021-08-07 12:39:46,799837
1,1,3,6,7,6,2,1,2021-08-07 12:39:46,815835
2,2,0,3,4,2,2,1,2021-08-07 12:39:46,831834
-1,-1,-2,-6,-10,-6,-3,-2,2021-08-07 12:39:46,831834
-3,-5,-5,-4,-6,-6,-4,-4,2021-08-07 12:39:46,831834
3,3,3,1,1,1,-1,2,2021-08-07 12:39:46,847837
-1,2,1,2,-3,-3,-1,-1,2021-08-07 12:39:46,863834
-3,-3,-4,-6,-4,-1,-3,-1,2021-08-07 12:39:46,878835
-2,0,-2,-3,-3,-3,-3,-2,2021-08-07 12:39:46,878835
-1,-3,-1,0,0,1,1,-2,2021-08-07 12:39:46,894836
0,1,1,6,3,2,1,-1,2021-08-07 12:39:46,909838
-1,-2,-2,-4,-4,-1,0,-2,2021-08-07 12:39:46,909838
-2,-3,-4,-9,-11,-7,-5,-3,2021-08-07 12:39:46,909838
-3,-1,-1,2,7,5,1,0,2021-08-07 12:39:46,909838
1,-1,-1,2,1,-1,-1,-3,2021-08-07 12:39:46,910837
-1,0,2,5,8,4,2,1,2021-08-07 12:39:46,910837
-2,-4,-3,-4,-3,-3,-2,-2,2021-08-07 12:39:46,910837
2,3,2,-3,-7,-5,0,0,2021-08-07 12:39:46,910837
-1,0,0,0,1,0,1,-1,2021-08-07 12:39:46,910837
-3,-4,-2,-5,-9,-5,-3,-2,2021-08-07 12:39:46,910837
1,1,2,3,4,3,1,1,2021-08-07 12:39:46,911836
-1,-4,-2,-1,-2,-3,-1,-2,2021-08-07 12:39:46,911836
0,-1,-3,-1,1,1,0,-1,2021-08-07 12:39:46,911836
-1,0,-4,-2,-3,-4,-4,-2,2021-08-07 12:39:46,911836
-2,-1,0,0,-2,-1,0,-1,2021-08-07 12:39:46,911836
1,1,0,-1,2,3,0,0,2021-08-07 12:39:46,911836
0,1,1,2,8,3,1,1,2021-08-07 12:39:46,912836
-1,-2,-4,-5,-6,-3,-3,-2,2021-08-07 12:39:46,925834
2,1,3,5,2,3,1,1,2021-08-07 12:39:46,925834
0,-3,-2,0,-2,-4,-2,0,2021-08-07 12:39:46,925834
-1,-2,-2,-8,-6,-3,-3,0,2021-08-07 12:39:46,925834
1,1,4,0,0,1,1,-1,2021-08-07 12:39:46,941877
0,1,-1,5,10,2,0,0,2021-08-07 12:39:46,941877
-2,-3,-3,-6,-8,-7,-3,-3,2021-08-07 12:39:46,941877
-2,-3,-3,-4,-8,-3,-2,-2,2021-08-07 12:39:46,941877
3,3,2,7,12,7,3,1,2021-08-07 12:39:46,957877
-1,-2,-3,-3,-2,-3,-2,-2,2021-08-07 12:39:46,957877
-3,-3,-2,-2,-1,-2,-2,-2,2021-08-07 12:39:46,974130
-1,-2,-2,-3,-13,-11,-4,-2,2021-08-07 12:39:46,974130
-1,-1,-1,-1,5,3,0,0,2021-08-07 12:39:46,989837
-2,0,1,3,5,7,2,0,2021-08-07 12:39:46,989837
3,5,3,8,12,8,4,2,2021-08-07 12:39:46,989837
0,-1,-1,2,5,3,0,0,2021-08-07 12:39:46,989837
-1,-2,-3,-4,-8,-5,-2,0,2021-08-07 12:39:46,989837
-3,-4,-4,-7,-8,-7,-4,-1,2021-08-07 12:39:46,990839
-2,-4,-4,-5,-7,-2,-3,-2,2021-08-07 12:39:47,005836
0,2,2,1,0,1,1,1,2021-08-07 12:39:47,020876
0,-1,1,0,-2,-5,-2,-3,2021-08-07 12:39:47,020876
-1,-1,-1,-2,-5,-1,0,1,2021-08-07 12:39:47,020876
1,0,-1,0,1,0,0,-2,2021-08-07 12:39:47,020876
-1,-3,-4,-1,0,-2,-1,-1,2021-08-07 12:39:47,020876
0,2,2,-1,0,1,3,2,2021-08-07 12:39:47,052839
0,4,3,0,-4,-4,-1,1,2021-08-07 12:39:47,052839
2,3,5,5,7,5,0,2,2021-08-07 12:39:47,052839
-2,-4,-5,-5,-4,-3,-1,-2,2021-08-07 12:39:47,052839
0,-2,-1,0,-3,-3,-1,0,2021-08-07 12:39:47,052839
2,1,0,-2,0,0,1,-1,2021-08-07 12:39:47,052839
-2,-2,-5,-8,-9,-6,-3,-1,2021-08-07 12:39:47,068839
-1,-2,-2,-3,-3,-1,0,-2,2021-08-07 12:39:47,084836
-3,-4,-1,0,4,4,1,-2,2021-08-07 12:39:47,084836
-2,-1,2,10,15,9,3,0,2021-08-07 12:39:47,084836
-1,3,2,2,2,-1,0,-1,2021-08-07 12:39:47,084836
-2,0,-2,-1,-5,-5,-3,-2,2021-08-07 12:39:47,084836
-1,0,-2,-4,-8,-6,-3,-1,2021-08-07 12:39:47,100865
2,-1,-2,-2,-2,0,0,1,2021-08-07 12:39:47,116840
0,-3,-5,-5,-9,-6,-3,-2,2021-08-07 12:39:47,116840
0,1,2,1,6,6,2,1,2021-08-07 12:39:47,116840
1,2,1,5,8,7,1,0,2021-08-07 12:39:47,116840
0,0,0,1,3,-3,-1,0,2021-08-07 12:39:47,117837
1,1,2,0,1,0,0,2,2021-08-07 12:39:47,132837
-1,-4,-2,-6,-8,-5,-2,-2,2021-08-07 12:39:47,132837
-3,-2,-1,2,3,1,-2,-2,2021-08-07 12:39:47,132837
0,-1,-2,2,2,4,1,1,2021-08-07 12:39:47,133838
-1,-1,0,-2,-4,-1,0,1,2021-08-07 12:39:47,148838
0,2,2,4,2,0,0,-1,2021-08-07 12:39:47,148838
-2,-3,-5,-3,-8,-6,-2,-2,2021-08-07 12:39:47,164878
1,-2,-3,-3,-5,-4,-3,-2,2021-08-07 12:39:47,164878
-1,-3,-3,-2,0,1,0,-2,2021-08-07 12:39:47,164878
1,3,3,4,3,1,1,3,2021-08-07 12:39:47,164878
-3,-3,-3,-3,1,-1,0,-2,2021-08-07 12:39:47,180839
-2,-2,-2,0,-1,-4,-3,-2,2021-08-07 12:39:47,196835
2,3,2,2,4,3,2,1,2021-08-07 12:39:47,196835
-1,-1,0,2,8,5,0,-1,2021-08-07 12:39:47,196835
0,0,-2,-1,-2,-5,-2,-2,2021-08-07 12:39:47,212838
0,0,0,-2,-5,-3,-1,-1,2021-08-07 12:39:47,228836
-1,-1,-1,-5,-9,-6,-2,-2,2021-08-07 12:39:47,228836
-1,0,0,1,2,-1,-2,-1,2021-08-07 12:39:47,228836
-1,0,0,-2,-2,-2,-1,0,2021-08-07 12:39:47,228836
0,1,1,1,6,5,0,0,2021-08-07 12:39:47,228836
-1,-2,-1,3,4,1,0,-1,2021-08-07 12:39:47,229839
-4,-6,-7,-8,-7,-6,-4,-4,2021-08-07 12:39:47,229839
-2,-5,-8,-13,-23,-12,-6,-2,2021-08-07 12:39:47,229839
7,13,14,23,30,20,10,8,2021-08-07 12:39:47,229839
1,1,1,2,2,3,0,1,2021-08-07 12:39:47,260835
1,2,0,1,4,1,-1,0,2021-08-07 12:39:47,260835
-3,-6,-6,-7,-8,-7,-5,-4,2021-08-07 12:39:47,260835
-5,-6,-8,-10,-15,-8,-4,-4,2021-08-07 12:39:47,260835
2,1,2,1,1,2,1,0,2021-08-07 12:39:47,261837
-1,-1,0,-1,1,0,2,0,2021-08-07 12:39:47,261837
0,2,2,3,0,-1,-1,1,2021-08-07 12:39:47,291873
0,-2,-2,-8,-5,-2,-3,-2,2021-08-07 12:39:47,307834
-2,-2,-2,0,0,-5,-1,-2,2021-08-07 12:39:47,307834
-2,-1,-1,-4,-9,-8,-5,-1,2021-08-07 12:39:47,307834
0,1,1,2,4,4,1,-1,2021-08-07 12:39:47,307834
3,3,4,8,15,8,6,3,2021-08-07 12:39:47,307834
-2,-3,-4,-5,-7,-5,-4,-2,2021-08-07 12:39:47,308836
0,0,-1,0,0,-2,1,-1,2021-08-07 12:39:47,308836
-1,0,1,-3,-1,1,-1,2,2021-08-07 12:39:47,323838
-4,-5,-6,-6,-7,-9,-5,-4,2021-08-07 12:39:47,323838
1,0,1,4,9,8,4,2,2021-08-07 12:39:47,323838
0,-1,-1,1,-2,-2,-3,-3,2021-08-07 12:39:47,323838
-1,0,-2,-2,-1,-1,1,-2,2021-08-07 12:39:47,339840
2,-1,-2,1,1,0,0,0,2021-08-07 12:39:47,339840
-3,-1,-5,-6,-6,-4,-2,-3,2021-08-07 12:39:47,339840
2,3,6,4,4,3,2,3,2021-08-07 12:39:47,339840
-1,-1,-1,-1,-2,-3,-2,-1,2021-08-07 12:39:47,355837
-4,-5,-4,-8,-12,-7,-5,-3,2021-08-07 12:39:47,355837
-2,-3,-4,-2,-2,-1,-1,-2,2021-08-07 12:39:47,387873
-1,0,1,1,4,3,1,0,2021-08-07 12:39:47,387873
-1,0,1,1,2,1,2,0,2021-08-07 12:39:47,387873
0,1,0,1,3,1,1,0,2021-08-07 12:39:47,403834
-2,-2,-2,-5,-4,-4,-5,-3,2021-08-07 12:39:47,403834
-3,-1,-3,-4,-5,-2,-4,-2,2021-08-07 12:39:47,403834
4,5,3,8,8,5,2,2,2021-08-07 12:39:47,403834
2,5,4,1,-2,2,2,3,2021-08-07 12:39:47,403834
-1,0,1,-1,0,0,-1,0,2021-08-07 12:39:47,404836
-1,-2,-3,-4,-4,-3,-3,-2,2021-08-07 12:39:47,404836
-3,-6,-4,-1,-2,-4,-3,-2,2021-08-07 12:39:47,419841
0,0,1,-5,-6,-4,-2,-2,2021-08-07 12:39:47,435842
3,2,1,2,-2,0,1,1,2021-08-07 12:39:47,435842
-2,-3,-2,-5,-7,-2,-2,-1,2021-08-07 12:39:47,435842
3,4,4,6,11,6,4,2,2021-08-07 12:39:47,435842
-3,-5,-7,-7,-11,-9,-5,-3,2021-08-07 12:39:47,435842
0,-1,0,1,2,1,0,0,2021-08-07 12:39:47,451837
-1,-1,-3,-1,2,1,1,0,2021-08-07 12:39:47,451837
-3,-2,-2,-2,-4,-3,-4,-2,2021-08-07 12:39:47,467836
0,-2,-3,0,5,3,1,0,2021-08-07 12:39:47,467836
0,0,1,2,0,-2,-1,0,2021-08-07 12:39:47,467836
0,1,-1,-3,-7,-3,-1,-1,2021-08-07 12:39:47,467836
0,-1,1,0,0,0,-1,-2,2021-08-07 12:39:47,472836
0,-2,2,2,3,3,1,0,2021-08-07 12:39:47,472836
-1,-2,-3,-4,-4,-3,-2,-1,2021-08-07 12:39:47,483834
-3,-3,-3,-6,-4,-1,-2,-2,2021-08-07 12:39:47,483834
-3,-5,-4,-1,-1,0,0,-2,2021-08-07 12:39:47,499836
4,8,8,7,14,10,4,3,2021-08-07 12:39:47,515838
-1,0,0,1,-2,0,1,0,2021-08-07 12:39:47,515838
-1,-1,0,1,2,0,0,-1,2021-08-07 12:39:47,515838
-1,-2,-4,-4,-8,-5,-4,-3,2021-08-07 12:39:47,515838
-5,-7,-10,-8,-14,-10,-9,-5,2021-08-07 12:39:47,515838
0,2,0,-2,-6,-5,-2,-1,2021-08-07 12:39:47,531837
1,3,5,12,21,15,6,2,2021-08-07 12:39:47,547837
-2,-1,0,3,10,4,1,-1,2021-08-07 12:39:47,547837
-2,-2,-2,-3,-5,-4,-2,-1,2021-08-07 12:39:47,547837
-2,-3,-3,-4,-7,-5,-4,-2,2021-08-07 12:39:47,547837
-2,-4,-3,-7,-13,-8,-4,-3,2021-08-07 12:39:47,547837
2,1,1,2,7,6,4,2,2021-08-07 12:39:47,563835
-2,-2,-3,-3,-2,1,0,-2,2021-08-07 12:39:47,563835
1,2,2,2,3,1,0,0,2021-08-07 12:39:47,563835
1,1,1,3,1,-1,0,1,2021-08-07 12:39:47,563835
0,-1,0,-4,-5,-3,-1,0,2021-08-07 12:39:47,595874
-2,-2,-2,-1,5,0,-1,-1,2021-08-07 12:39:47,611870
0,-1,0,-1,0,0,0,-1,2021-08-07 12:39:47,611870
0,-2,-3,0,3,3,0,-1,2021-08-07 12:39:47,611870
-1,-1,-2,-1,-4,-4,-3,-2,2021-08-07 12:39:47,611870
-1,1,-1,-1,-7,-5,-1,0,2021-08-07 12:39:47,627874
-2,-2,-2,0,3,1,0,1,2021-08-07 12:39:47,627874
1,1,0,-3,-2,-1,-1,1,2021-08-07 12:39:47,627874
-4,-4,-5,-11,-13,-7,-4,-2,2021-08-07 12:39:47,627874
2,4,7,9,13,7,5,2,2021-08-07 12:39:47,627874
-1,0,-1,-1,-1,-1,-1,0,2021-08-07 12:39:47,643835
-1,-2,-1,-1,-4,-2,0,-1,2021-08-07 12:39:47,643835
-1,0,-2,-6,-5,-6,-1,-1,2021-08-07 12:39:47,643835
-4,-5,-4,-6,-7,-5,-2,-4,2021-08-07 12:39:47,643835
1,0,1,5,9,8,4,0,2021-08-07 12:39:47,643835
-2,-1,-1,-3,-8,-9,-6,-4,2021-08-07 12:39:47,644880
2,3,1,3,6,6,2,1,2021-08-07 12:39:47,674841
-1,-2,-2,-2,-4,-1,-1,-2,2021-08-07 12:39:47,674841
-2,-3,-3,-4,-7,-5,-2,0,2021-08-07 12:39:47,674841
2,-1,0,2,4,4,2,1,2021-08-07 12:39:47,674841
-3,-3,-2,-2,-5,-4,-4,-2,2021-08-07 12:39:47,674841
0,1,2,4,4,0,0,0,2021-08-07 12:39:47,689879
-1,-3,-3,-5,-4,-4,-1,-1,2021-08-07 12:39:47,721835
0,0,-2,-3,-1,-1,-3,-1,2021-08-07 12:39:47,737876
1,5,4,5,7,4,1,2,2021-08-07 12:39:47,737876
-2,-2,-1,-4,-7,-5,-3,-3,2021-08-07 12:39:47,737876
1,1,3,4,7,4,1,-1,2021-08-07 12:39:47,737876
-1,-1,0,0,-2,-1,0,0,2021-08-07 12:39:47,737876
0,-1,-2,-5,-6,-4,-1,-1,2021-08-07 12:39:47,737876
-1,-1,0,-2,0,-1,-1,0,2021-08-07 12:39:47,738839
-2,-1,-1,-4,-4,-1,-2,-1,2021-08-07 12:39:47,738839
-4,-3,-6,-5,-5,-3,-1,-2,2021-08-07 12:39:47,753879
2,3,3,4,6,2,1,0,2021-08-07 12:39:47,769878
0,2,1,0,-4,0,0,1,2021-08-07 12:39:47,769878
-1,-1,-2,3,8,2,1,-1,2021-08-07 12:39:47,769878
-1,-1,0,-2,0,2,0,2,2021-08-07 12:39:47,769878
0,1,0,3,7,5,4,0,2021-08-07 12:39:47,769878
-2,-5,-6,-7,-6,-5,-4,0,2021-08-07 12:39:47,770838
0,2,0,-2,-3,-1,1,1,2021-08-07 12:39:47,770838
1,1,2,2,1,2,0,0,2021-08-07 12:39:47,770838
-2,-3,-2,-1,-1,-2,-3,-1,2021-08-07 12:39:47,784838
-2,-4,-4,0,0,-2,-2,-3,2021-08-07 12:39:47,800838
-2,1,-2,-1,-5,-2,-1,-1,2021-08-07 12:39:47,816836
0,1,-2,0,1,-1,1,0,2021-08-07 12:39:47,816836
-2,-1,-1,-4,-7,-5,-2,-2,2021-08-07 12:39:47,816836
0,-2,-1,-1,3,2,-1,0,2021-08-07 12:39:47,831876
1,3,3,4,5,2,0,0,2021-08-07 12:39:47,847836
-2,-3,-5,-2,-3,-3,-3,-2,2021-08-07 12:39:47,847836
-1,-1,1,1,-2,-1,-1,1,2021-08-07 12:39:47,863837
-1,0,0,2,5,5,2,1,2021-08-07 12:39:47,863837
-2,-4,-4,-4,-4,-3,-3,-2,2021-08-07 12:39:47,863837
-1,1,1,1,1,0,1,-1,2021-08-07 12:39:47,863837
-1,-1,0,-2,-1,-2,-2,-1,2021-08-07 12:39:47,864840
-1,1,0,-2,-5,-3,-2,0,2021-08-07 12:39:47,864840
-1,-1,0,2,1,1,2,1,2021-08-07 12:39:47,864840
-3,-3,-5,-5,-9,-6,-3,-3,2021-08-07 12:39:47,864840
-2,0,-3,-2,-4,-2,-2,0,2021-08-07 12:39:47,864840
2,3,6,7,11,9,5,0,2021-08-07 12:39:47,864840
1,0,-1,-2,0,-1,-2,-2,2021-08-07 12:39:47,865840
1,2,2,4,4,4,3,3,2021-08-07 12:39:47,865840
-2,-2,-2,1,0,0,-1,-1,2021-08-07 12:39:47,894839
-4,-2,-5,-6,-10,-6,-3,-2,2021-08-07 12:39:47,910838
-4,-5,-5,-4,-5,-3,-2,-1,2021-08-07 12:39:47,926875
1,0,3,0,0,-2,-1,-2,2021-08-07 12:39:47,926875
2,3,2,-1,2,3,0,2,2021-08-07 12:39:47,926875
-1,-1,-2,1,-2,-4,-2,-3,2021-08-07 12:39:47,926875
-2,-2,-2,-1,-3,-2,-1,-2,2021-08-07 12:39:47,926875
-2,0,0,-1,3,0,-1,-1,2021-08-07 12:39:47,927838
-1,-2,-3,-4,-6,-5,-2,-1,2021-08-07 12:39:47,927838
1,-1,-3,-4,-4,-1,0,1,2021-08-07 12:39:47,927838
3,1,0,2,5,4,2,3,2021-08-07 12:39:47,927838
0,-4,-4,-5,-7,-6,-3,0,2021-08-07 12:39:47,927838
-2,-5,-4,-2,2,2,0,-1,2021-08-07 12:39:47,942834
-1,1,3,1,-4,-4,-1,-2,2021-08-07 12:39:47,942834
-1,3,3,7,16,7,2,-3,2021-08-07 12:39:47,942834
-1,2,2,0,-2,-2,-3,-1,2021-08-07 12:39:47,942834
-1,-2,-1,-4,-3,0,-1,-2,2021-08-07 12:39:47,974876
-1,-2,-2,-1,-1,-1,0,0,2021-08-07 12:39:47,974876
-1,-1,-1,-6,-15,-9,-4,-2,2021-08-07 12:39:47,974876
-2,-1,-4,-2,-1,-1,-3,0,2021-08-07 12:39:47,974876
2,2,3,7,8,5,2,2,2021-08-07 12:39:47,974876
0,2,0,-1,-6,-5,-2,1,2021-08-07 12:39:47,975842
0,0,0,-3,0,2,0,1,2021-08-07 12:39:47,990835
-2,-2,-2,-4,-2,-2,-1,-2,2021-08-07 12:39:48,005838
-2,-2,-3,-5,-9,-4,-2,-2,2021-08-07 12:39:48,005838
-1,-1,0,5,12,8,3,0,2021-08-07 12:39:48,006838
0,0,3,-4,-5,-1,-1,1,2021-08-07 12:39:48,006838
1,0,2,6,3,1,1,1,2021-08-07 12:39:48,006838
-2,-2,-3,0,-1,-3,-2,-3,2021-08-07 12:39:48,037876
-1,-2,0,1,1,0,-1,-3,2021-08-07 12:39:48,053875
-3,-2,-4,-6,-7,-3,-2,-2,2021-08-07 12:39:48,053875
1,3,3,9,13,7,4,2,2021-08-07 12:39:48,053875
1,2,1,4,7,5,0,0,2021-08-07 12:39:48,053875
-2,-4,-7,-6,-8,-5,-4,-3,2021-08-07 12:39:48,053875
3,4,3,-1,-3,-3,-2,2,2021-08-07 12:39:48,053875
-1,0,0,-6,-11,-7,-4,-1,2021-08-07 12:39:48,054838
1,-2,2,2,5,4,2,-1,2021-08-07 12:39:48,069875
2,3,1,8,17,14,4,2,2021-08-07 12:39:48,069875
-4,-4,-4,-1,-2,-5,-3,-1,2021-08-07 12:39:48,069875
-5,-5,-7,-8,-6,-3,-3,-5,2021-08-07 12:39:48,069875
3,6,7,4,1,0,2,3,2021-08-07 12:39:48,101839
2,3,-1,-6,-4,-2,0,2,2021-08-07 12:39:48,101839
0,-1,0,4,6,3,2,0,2021-08-07 12:39:48,101839
-5,-3,-5,-5,-8,-5,-5,-2,2021-08-07 12:39:48,101839
-1,1,0,-3,-4,-2,-2,-1,2021-08-07 12:39:48,101839
0,-2,0,-2,-1,-1,1,-2,2021-08-07 12:39:48,101839
2,1,0,-2,-5,-3,-1,0,2021-08-07 12:39:48,102837
-2,-2,-2,-1,1,0,-1,0,2021-08-07 12:39:48,102837
-2,-3,-3,-4,-5,-3,-4,-1,2021-08-07 12:39:48,132873
-1,1,1,2,2,0,-1,1,2021-08-07 12:39:48,148881
-3,-3,-3,-3,-3,0,-2,-1,2021-08-07 12:39:48,148881
-1,-1,2,0,2,3,1,-1,2021-08-07 12:39:48,148881
-1,-2,-3,-1,-5,-3,-1,-2,2021-08-07 12:39:48,148881
2,3,4,3,4,5,2,1,2021-08-07 12:39:48,148881
-2,-1,-3,-2,-4,-2,-2,-3,2021-08-07 12:39:48,149837
-1,-1,-2,-2,-4,0,-2,-1,2021-08-07 12:39:48,149837
-2,-2,-1,-1,4,2,0,-1,2021-08-07 12:39:48,163839
-2,-1,-2,-7,-10,-8,-6,-3,2021-08-07 12:39:48,179835
-1,-1,-2,0,-4,-2,0,0,2021-08-07 12:39:48,179835
2,2,-1,-5,-3,-2,-1,-2,2021-08-07 12:39:48,179835
2,2,3,9,17,12,8,2,2021-08-07 12:39:48,179835
-1,-2,0,-1,-2,-2,-2,-2,2021-08-07 12:39:48,195877
-2,0,0,0,-3,-3,-1,1,2021-08-07 12:39:48,211837
-3,-2,-2,-2,-4,-4,-1,0,2021-08-07 12:39:48,211837
-3,-3,-3,-5,-7,-6,-3,-2,2021-08-07 12:39:48,211837
-2,-2,-2,-5,-5,-3,-3,0,2021-08-07 12:39:48,211837
2,3,3,2,4,2,2,0,2021-08-07 12:39:48,227839
-1,-1,-2,1,3,5,1,-1,2021-08-07 12:39:48,243836
1,3,2,0,-3,-4,0,-1,2021-08-07 12:39:48,259840
-1,-1,-2,1,-2,-1,-1,-1,2021-08-07 12:39:48,275876
0,-2,-2,-1,2,1,0,-3,2021-08-07 12:39:48,275876
0,-2,-1,1,1,0,0,-2,2021-08-07 12:39:48,275876
-2,-2,-2,-2,-8,-6,-3,-2,2021-08-07 12:39:48,275876
0,0,1,5,6,3,4,1,2021-08-07 12:39:48,276839
0,0,-1,-2,-2,0,0,-1,2021-08-07 12:39:48,276839
0,2,4,1,2,2,2,1,2021-08-07 12:39:48,276839
-1,-2,-4,-2,-4,-2,-3,-1,2021-08-07 12:39:48,276839
-2,-4,-3,-10,-19,-12,-5,0,2021-08-07 12:39:48,276839
1,1,2,4,12,10,2,1,2021-08-07 12:39:48,276839
3,3,5,15,15,8,4,1,2021-08-07 12:39:48,277837
1,0,1,1,2,0,1,0,2021-08-07 12:39:48,277837
-1,-2,-2,1,1,0,-1,-2,2021-08-07 12:39:48,277837
-3,-4,-4,-8,-14,-11,-6,-4,2021-08-07 12:39:48,291839
0,-1,0,-2,-2,0,0,1,2021-08-07 12:39:48,291839
-2,-3,-3,-4,-2,-2,-1,-2,2021-08-07 12:39:48,307876
2,1,4,6,10,8,3,0,2021-08-07 12:39:48,307876
-2,-1,-3,-1,0,-1,-1,-1,2021-08-07 12:39:48,307876
1,0,1,0,-4,-3,-1,0,2021-08-07 12:39:48,308837
-4,-3,-3,-5,-13,-9,-5,-4,2021-08-07 12:39:48,323877
3,1,1,1,9,5,4,2,2021-08-07 12:39:48,323877
1,2,0,7,9,6,2,0,2021-08-07 12:39:48,323877
-1,-3,-5,-7,-3,-3,-3,-2,2021-08-07 12:39:48,323877
-2,-2,-1,3,6,3,-2,-1,2021-08-07 12:39:48,339840
2,3,4,-2,-5,-3,-2,-1,2021-08-07 12:39:48,339840
-1,-2,1,2,1,1,0,1,2021-08-07 12:39:48,355835
1,4,4,1,-4,-3,0,0,2021-08-07 12:39:48,355835
0,0,-2,-7,-8,-3,-2,2,2021-08-07 12:39:48,355835
-3,-2,-3,0,2,1,-2,-1,2021-08-07 12:39:48,355835
-2,-3,1,0,3,3,1,-1,2021-08-07 12:39:48,387834
0,-2,-1,-4,-3,-2,-1,-2,2021-08-07 12:39:48,387834
-3,-2,-4,-3,-7,-4,-3,-3,2021-08-07 12:39:48,387834
0,1,3,4,5,3,1,0,2021-08-07 12:39:48,402838
-2,-2,-6,-8,-8,-7,-4,-2,2021-08-07 12:39:48,402838
-1,-2,-3,-2,-5,-4,-3,-2,2021-08-07 12:39:48,402838
1,1,2,7,11,9,4,1,2021-08-07 12:39:48,402838
-3,-4,-2,-3,-3,-3,-1,-2,2021-08-07 12:39:48,402838
1,0,-1,-4,-5,-3,-1,1,2021-08-07 12:39:48,402838
0,-1,0,2,1,0,1,0,2021-08-07 12:39:48,402838
-1,-2,-1,-3,-4,-2,0,-3,2021-08-07 12:39:48,434874
1,0,0,0,-1,-1,0,-1,2021-08-07 12:39:48,449836
-3,-3,-2,-3,-5,-3,-3,-2,2021-08-07 12:39:48,449836
1,-2,0,0,3,3,0,0,2021-08-07 12:39:48,449836
2,0,-1,1,-1,-1,-2,0,2021-08-07 12:39:48,449836
-3,-5,-6,-8,-12,-9,-3,-2,2021-08-07 12:39:48,449836
2,3,3,5,8,6,4,1,2021-08-07 12:39:48,450836
-3,0,-1,-6,-10,-7,-4,-1,2021-08-07 12:39:48,450836
1,0,0,2,7,4,2,1,2021-08-07 12:39:48,465835
0,1,2,3,6,4,2,0,2021-08-07 12:39:48,465835
-1,-1,-1,-1,-3,-2,-3,-2,2021-08-07 12:39:48,480837
-1,-1,-1,2,4,1,-1,1,2021-08-07 12:39:48,480837
0,-1,-1,-2,2,-2,0,-1,2021-08-07 12:39:48,480837
-1,-1,-1,-4,-6,-5,-2,-3,2021-08-07 12:39:48,480837
-2,-2,-1,-4,-5,-3,-2,-2,2021-08-07 12:39:48,480837
-1,-1,0,1,4,3,1,-1,2021-08-07 12:39:48,480837
2,0,0,-1,-4,-3,0,0,2021-08-07 12:39:48,512875
-3,-2,-5,-1,-3,-1,-3,0,2021-08-07 12:39:48,512875
0,-2,-3,-2,0,-3,0,-2,2021-08-07 12:39:48,512875
-1,3,2,-3,-4,0,-1,-1,2021-08-07 12:39:48,512875
0,1,0,3,3,3,1,0,2021-08-07 12:39:48,528841
1,3,4,5,9,7,2,2,2021-08-07 12:39:48,544872
-4,-4,-4,-7,-10,-8,-5,-4,2021-08-07 12:39:48,544872
-1,-2,-2,-6,-3,0,2,0,2021-08-07 12:39:48,544872
0,0,2,7,15,9,4,-2,2021-08-07 12:39:48,544872
0,-2,-2,-1,0,1,-1,0,2021-08-07 12:39:48,544872
0,0,1,3,4,2,0,-1,2021-08-07 12:39:48,545835
0,-1,-2,-4,-9,-8,-4,-2,2021-08-07 12:39:48,545835
-2,-3,-3,-7,-10,-7,-5,-1,2021-08-07 12:39:48,575838
-3,-2,-3,0,0,0,0,-2,2021-08-07 12:39:48,591839
3,4,5,6,11,5,4,3,2021-08-07 12:39:48,607874
0,1,-1,2,1,-1,-1,-2,2021-08-07 12:39:48,607874
-3,-3,-4,-10,-8,-4,-4,-2,2021-08-07 12:39:48,607874
-1,0,0,1,-2,-2,0,-2,2021-08-07 12:39:48,607874
-2,-2,-2,-4,-8,-7,-4,-2,2021-08-07 12:39:48,607874
-3,-1,-3,-5,-5,-2,-2,-2,2021-08-07 12:39:48,608838
1,0,0,5,7,6,2,1,2021-08-07 12:39:48,608838
0,-1,-3,-6,-5,-3,-4,-2,2021-08-07 12:39:48,608838
1,3,2,4,6,4,4,0,2021-08-07 12:39:48,608838
-3,-7,-8,-6,-8,-8,-6,-7,2021-08-07 12:39:48,608838
3,5,3,7,12,7,3,1,2021-08-07 12:39:48,639839
1,1,2,-2,-3,-4,-1,1,2021-08-07 12:39:48,655840
2,2,2,-1,1,3,2,1,2021-08-07 12:39:48,671852
0,1,3,7,6,0,-1,2,2021-08-07 12:39:48,671852
-3,-4,-2,-6,-8,-4,-2,-3,2021-08-07 12:39:48,671852
-1,-2,0,2,6,4,1,-1,2021-08-07 12:39:48,671852
-1,-2,-2,-1,-1,0,-2,-1,2021-08-07 12:39:48,687835
0,0,2,1,7,4,3,-1,2021-08-07 12:39:48,687835
0,-2,0,-6,-12,-8,-4,0,2021-08-07 12:39:48,687835
0,0,-2,0,0,-2,-1,-1,2021-08-07 12:39:48,688838
-1,-4,-3,-1,3,3,-1,-2,2021-08-07 12:39:48,688838
-2,-5,-5,-2,1,1,-2,-1,2021-08-07 12:39:48,688838
-1,0,-1,-5,-6,-5,-2,0,2021-08-07 12:39:48,688838
0,1,1,1,-8,-5,0,-1,2021-08-07 12:39:48,689839
-1,-1,0,-1,-1,-2,0,-1,2021-08-07 12:39:48,689839
-1,-1,0,-1,3,4,2,-2,2021-08-07 12:39:48,689839
0,2,1,0,-3,-1,1,1,2021-08-07 12:39:48,718836
0,-1,-1,0,-2,-2,-2,-1,2021-08-07 12:39:48,718836
0,-1,-1,0,4,1,1,0,2021-08-07 12:39:48,718836
-1,-3,-3,-1,-6,-5,-4,0,2021-08-07 12:39:48,718836
-3,-5,-5,-8,-10,-8,-6,-4,2021-08-07 12:39:48,719836
2,1,1,2,8,5,3,1,2021-08-07 12:39:48,719836
0,1,1,0,-2,-2,-1,0,2021-08-07 12:39:48,734837
-3,-3,-1,-5,-7,-4,-4,0,2021-08-07 12:39:48,734837
0,1,2,5,11,6,3,0,2021-08-07 12:39:48,750837
-1,1,-1,-3,-2,-1,0,1,2021-08-07 12:39:48,765872
-1,-1,-1,1,1,-2,-1,0,2021-08-07 12:39:48,765872
1,2,0,-1,-4,-4,-1,2,2021-08-07 12:39:48,765872
-2,-3,-2,-3,-6,-3,-3,0,2021-08-07 12:39:48,765872
-3,-5,-4,-2,1,-1,0,-3,2021-08-07 12:39:48,765872
0,0,0,-3,-3,-2,0,-1,2021-08-07 12:39:48,766874
0,2,2,-4,1,3,3,2,2021-08-07 12:39:48,766874
1,0,1,3,1,-2,-1,0,2021-08-07 12:39:48,781837
-2,-4,-5,-4,-6,-4,-2,-2,2021-08-07 12:39:48,796838
-2,0,-1,3,3,1,1,0,2021-08-07 12:39:48,811838
-1,-1,0,2,2,1,-1,0,2021-08-07 12:39:48,811838
-2,0,-2,-4,-3,-3,-2,-1,2021-08-07 12:39:48,827839
-1,3,-1,-3,-4,-4,-2,0,2021-08-07 12:39:48,827839
-1,-2,-5,-3,-1,0,0,-1,2021-08-07 12:39:48,827839
-1,-1,-1,-1,3,1,0,-1,2021-08-07 12:39:48,827839
2,2,-2,-2,-2,2,1,0,2021-08-07 12:39:48,827839
-3,-3,-2,0,1,2,-1,0,2021-08-07 12:39:48,828837
-2,-3,0,0,-3,-2,0,-2,2021-08-07 12:39:48,828837
-3,-5,-3,2,3,1,0,-3,2021-08-07 12:39:48,828837
-2,-1,4,3,4,1,-1,0,2021-08-07 12:39:48,843838
1,3,1,-3,-4,-3,-3,-1,2021-08-07 12:39:48,859839
0,-1,-1,0,-1,0,-2,0,2021-08-07 12:39:48,890876
1,3,1,4,3,1,2,2,2021-08-07 12:39:48,890876
-1,-1,-2,-1,-2,-2,-2,0,2021-08-07 12:39:48,890876
1,0,-1,-2,-3,-1,0,1,2021-08-07 12:39:48,890876
-1,-4,-2,-3,-6,-3,-4,-1,2021-08-07 12:39:48,890876
0,-1,-2,-5,-3,0,0,0,2021-08-07 12:39:48,890876
0,0,0,5,9,5,2,1,2021-08-07 12:39:48,891876
0,-2,1,2,3,0,1,1,2021-08-07 12:39:48,891876
-2,-2,-4,-3,-3,-1,-3,-1,2021-08-07 12:39:48,891876
0,0,0,0,-2,-3,-2,-1,2021-08-07 12:39:48,891876
-4,-5,-7,-15,-20,-12,-6,-5,2021-08-07 12:39:48,906836
1,2,5,11,20,15,6,3,2021-08-07 12:39:48,922839
0,1,1,2,6,2,1,0,2021-08-07 12:39:48,922839
2,3,2,0,1,1,0,0,2021-08-07 12:39:48,938837
-2,1,-2,1,1,0,0,-3,2021-08-07 12:39:48,938837
-1,-3,-3,-7,-13,-11,-5,-3,2021-08-07 12:39:48,938837
-3,-2,-2,-7,-9,-5,-5,-3,2021-08-07 12:39:48,938837
1,2,4,9,11,8,3,6,2021-08-07 12:39:48,938837
0,-2,-1,-1,-2,0,1,0,2021-08-07 12:39:48,954835
0,0,-2,-3,-5,-3,-1,-2,2021-08-07 12:39:48,954835
0,2,0,1,0,0,0,-2,2021-08-07 12:39:48,954835
-3,-3,-3,-7,-10,-4,-3,-3,2021-08-07 12:39:48,970865
-2,-2,-2,-1,-2,-1,-3,-2,2021-08-07 12:39:48,970865
-2,-2,-2,-2,-3,-2,-2,-1,2021-08-07 12:39:48,970865
1,0,-1,1,7,6,2,1,2021-08-07 12:39:48,970865
-3,-1,-1,-3,-3,-1,-2,-3,2021-08-07 12:39:48,970865
1,3,3,1,3,3,3,3,2021-08-07 12:39:48,985881
-3,-3,-3,-4,-2,-2,-1,-2,2021-08-07 12:39:48,985881
1,2,0,-2,-7,-5,-2,-1,2021-08-07 12:39:48,985881
-2,-3,-4,-3,-3,-4,-2,-2,2021-08-07 12:39:48,985881
-1,-1,1,1,0,2,0,0,2021-08-07 12:39:49,017839
-3,-3,-4,-4,-5,-4,-3,-1,2021-08-07 12:39:49,017839
-1,-1,-2,-4,-2,-2,-1,-1,2021-08-07 12:39:49,047837
-2,0,0,2,2,0,-1,-2,2021-08-07 12:39:49,047837
0,3,0,2,1,0,0,-1,2021-08-07 12:39:49,047837
1,0,1,0,-1,0,0,0,2021-08-07 12:39:49,047837
3,5,4,3,1,2,2,2,2021-08-07 12:39:49,047837
-2,-6,-5,-1,-3,0,-3,-2,2021-08-07 12:39:49,048836
1,2,2,2,2,0,1,2,2021-08-07 12:39:49,048836
0,-2,0,1,0,0,-1,-1,2021-08-07 12:39:49,048836
-3,0,-1,1,-2,-2,-2,-1,2021-08-07 12:39:49,079835
-1,-2,-3,-2,-4,-3,-4,-1,2021-08-07 12:39:49,079835
-1,-3,-4,-1,0,1,0,-2,2021-08-07 12:39:49,079835
-1,-2,-4,-6,-7,-3,-1,1,2021-08-07 12:39:49,095876
-3,-3,-1,-5,-5,-4,-2,-1,2021-08-07 12:39:49,095876
6,12,12,14,21,11,8,5,2021-08-07 12:39:49,095876
-5,-3,-6,-10,-15,-11,-6,-2,2021-08-07 12:39:49,095876
1,3,1,7,18,11,4,0,2021-08-07 12:39:49,095876
-4,-7,-6,-6,-6,-7,-4,-4,2021-08-07 12:39:49,096840
-4,-5,-5,-2,3,2,1,-3,2021-08-07 12:39:49,096840
4,2,4,3,1,1,2,2,2021-08-07 12:39:49,111841
-1,-2,-1,0,-4,-5,-3,0,2021-08-07 12:39:49,127839
2,3,4,-2,-4,0,1,3,2021-08-07 12:39:49,129837
-2,-5,-4,-4,-6,-7,-4,-3,2021-08-07 12:39:49,130837
-1,-3,-1,-1,-1,-2,0,-3,2021-08-07 12:39:49,130837
0,2,-4,-3,0,0,0,0,2021-08-07 12:39:49,130837
-3,-3,-3,-3,-4,-2,-3,-4,2021-08-07 12:39:49,130837
3,5,6,3,3,5,4,3,2021-08-07 12:39:49,130837
-2,-1,-1,1,3,2,0,1,2021-08-07 12:39:49,143353
0,-1,1,1,-1,-1,0,0,2021-08-07 12:39:49,143353
-2,-4,-4,-1,2,-2,-2,-1,2021-08-07 12:39:49,143353
0,-2,-3,-11,-15,-10,-5,-2,2021-08-07 12:39:49,143353
-3,-5,-4,-2,2,2,-1,-2,2021-08-07 12:39:49,174393
6,8,8,11,16,9,5,4,2021-08-07 12:39:49,190351
0,1,0,2,1,1,2,0,2021-08-07 12:39:49,190351
-3,-3,-4,-7,-10,-9,-5,-3,2021-08-07 12:39:49,190351
0,-4,-4,-5,-6,-7,-4,-3,2021-08-07 12:39:49,190351
-3,-2,-3,-2,-1,0,-2,-2,2021-08-07 12:39:49,190351
2,3,2,0,0,-1,0,0,2021-08-07 12:39:49,191388
0,-1,0,3,1,1,0,-1,2021-08-07 12:39:49,191388
0,0,-4,-3,-4,-5,-3,0,2021-08-07 12:39:49,206391
-2,-3,0,-4,-8,-2,-1,-2,2021-08-07 12:39:49,206391
-2,-3,-5,-6,-4,-2,-3,-1,2021-08-07 12:39:49,206391
2,6,5,10,14,8,5,2,2021-08-07 12:39:49,206391
2,4,3,3,3,1,2,1,2021-08-07 12:39:49,237392
-4,-6,-6,-11,-20,-15,-8,-3,2021-08-07 12:39:49,253393
-1,-3,-1,8,14,9,5,0,2021-08-07 12:39:49,253393
-1,-2,-1,-3,-3,-3,-1,-2,2021-08-07 12:39:49,253393
0,2,1,1,3,2,1,2,2021-08-07 12:39:49,253393
-2,0,-2,-2,-4,-3,-3,-2,2021-08-07 12:39:49,253393
0,-1,-2,-3,-9,-8,-4,-1,2021-08-07 12:39:49,253393
-3,-4,-5,-5,-5,-1,-3,-1,2021-08-07 12:39:49,254353
4,3,4,8,13,9,4,3,2021-08-07 12:39:49,269382
-1,0,0,0,-1,0,1,0,2021-08-07 12:39:49,269382
-1,-1,0,0,-2,-2,-1,-1,2021-08-07 12:39:49,285395
-4,-7,-6,-3,1,1,-2,-2,2021-08-07 12:39:49,301360
-1,-1,-2,-8,-10,-6,-4,-4,2021-08-07 12:39:49,317399
6,8,11,6,5,3,5,4,2021-08-07 12:39:49,317399
-1,-1,1,4,7,5,1,1,2021-08-07 12:39:49,317399
3,6,3,-1,-3,-4,1,2,2021-08-07 12:39:49,317399
-5,-4,-3,-4,-4,-4,-4,-4,2021-08-07 12:39:49,317399
-1,-5,-5,-7,-3,-2,-2,-2,2021-08-07 12:39:49,317399
0,0,-1,1,0,1,-3,-2,2021-08-07 12:39:49,318355
2,0,3,3,5,3,0,0,2021-08-07 12:39:49,318355
-2,0,-1,1,1,1,-1,-1,2021-08-07 12:39:49,333381
-2,-1,-1,-1,-3,-5,-3,-2,2021-08-07 12:39:49,333381
-3,-4,-8,-8,-9,-5,-5,-5,2021-08-07 12:39:49,333381
-4,-3,-3,-2,3,1,0,-1,2021-08-07 12:39:49,333381
0,0,1,-2,-4,-3,1,0,2021-08-07 12:39:49,349394
-3,-5,-6,-3,-2,-1,-2,-2,2021-08-07 12:39:49,349675
1,0,1,-3,0,-1,0,0,2021-08-07 12:39:49,349675
-2,-3,-6,-6,-13,-7,-4,-3,2021-08-07 12:39:49,349675
0,0,3,5,3,-1,0,0,2021-08-07 12:39:49,379869
2,7,5,6,6,5,2,0,2021-08-07 12:39:49,379869
-4,-4,-4,-5,-2,-1,-2,-3,2021-08-07 12:39:49,395906
1,2,2,4,4,2,2,-1,2021-08-07 12:39:49,395906
-4,-6,-7,-4,-2,-3,-3,-3,2021-08-07 12:39:49,411892
-5,-4,-4,-7,-12,-9,-5,-3,2021-08-07 12:39:49,411892
-1,-1,-3,-6,-12,-8,-4,-2,2021-08-07 12:39:49,411892
0,-2,-3,3,4,6,3,0,2021-08-07 12:39:49,411892
3,1,1,0,3,3,2,2,2021-08-07 12:39:49,411892
1,1,2,5,9,4,3,1,2021-08-07 12:39:49,412871
0,0,2,2,3,1,1,-2,2021-08-07 12:39:49,412871
-3,-7,-6,-11,-17,-11,-7,-7,2021-08-07 12:39:49,412871
0,-2,1,2,7,5,1,-1,2021-08-07 12:39:49,427869
5,5,1,-1,2,2,3,4,2021-08-07 12:39:49,427869
-1,0,1,3,-2,-4,-2,0,2021-08-07 12:39:49,427869
0,0,0,1,1,-2,-1,0,2021-08-07 12:39:49,427869
-3,-4,-6,-11,-15,-9,-3,-2,2021-08-07 12:39:49,443870
-3,-4,-1,2,3,2,0,-3,2021-08-07 12:39:49,443870
4,6,7,10,10,8,4,4,2021-08-07 12:39:49,443870
-2,0,-3,-3,-3,-5,-5,-1,2021-08-07 12:39:49,443870
-3,-6,-6,-14,-22,-14,-8,-3,2021-08-07 12:39:49,474899
0,-1,0,3,12,9,3,1,2021-08-07 12:39:49,490909
2,1,1,8,14,8,4,2,2021-08-07 12:39:49,490909
-1,-3,-1,-2,-5,-3,-1,-2,2021-08-07 12:39:49,490909
-1,1,1,1,-5,-7,-5,-3,2021-08-07 12:39:49,490909
2,3,-1,-15,-17,-4,0,2,2021-08-07 12:39:49,490909
1,1,3,15,27,16,6,2,2021-08-07 12:39:49,491872
-3,-2,-2,-5,-8,-4,-2,-1,2021-08-07 12:39:49,491872
-3,-5,-4,1,1,-1,-1,-2,2021-08-07 12:39:49,522870
-1,-1,-2,-5,-12,-10,-4,-1,2021-08-07 12:39:49,522870
1,2,1,-2,-8,-1,1,0,2021-08-07 12:39:49,522870
0,1,2,6,15,10,4,2,2021-08-07 12:39:49,522870
3,5,5,3,5,3,4,2,2021-08-07 12:39:49,523872
-5,-8,-6,-2,-3,-5,-4,-4,2021-08-07 12:39:49,523872
-2,-4,-4,-13,-16,-8,-5,-2,2021-08-07 12:39:49,538870
-1,-2,-1,-2,-7,-7,-4,-1,2021-08-07 12:39:49,538870
3,6,6,7,16,16,8,4,2021-08-07 12:39:49,554869
-1,1,1,6,4,3,-1,-1,2021-08-07 12:39:49,570912
0,0,-1,3,8,2,2,1,2021-08-07 12:39:49,570912
-4,-6,-5,-4,-5,-5,-3,-4,2021-08-07 12:39:49,570912
0,0,-2,-1,1,-1,-3,-2,2021-08-07 12:39:49,571869
0,2,-2,-2,-5,-2,-2,-1,2021-08-07 12:39:49,571869
-3,-2,0,-1,-5,-2,-2,-2,2021-08-07 12:39:49,571869
1,1,1,1,4,3,1,0,2021-08-07 12:39:49,571869
0,0,-2,1,4,1,1,1,2021-08-07 12:39:49,586899
-5,-4,-4,-3,-8,-6,-5,-5,2021-08-07 12:39:49,586899
-4,-5,-5,-6,-5,-5,-4,-3,2021-08-07 12:39:49,602908
0,3,2,-2,-5,-5,-1,2,2021-08-07 12:39:49,602908
-1,2,0,2,8,6,1,0,2021-08-07 12:39:49,602908
-1,-2,-2,-1,3,2,0,-2,2021-08-07 12:39:49,602908
2,2,3,2,1,0,0,2,2021-08-07 12:39:49,602908
0,-2,0,5,8,4,0,0,2021-08-07 12:39:49,602908
-3,-1,-2,0,-4,-3,-3,-1,2021-08-07 12:39:49,633909
0,0,1,-5,-2,1,-1,0,2021-08-07 12:39:49,633909
-3,-2,-2,-4,-2,-4,-1,-4,2021-08-07 12:39:49,633909
2,4,4,0,2,2,2,-1,2021-08-07 12:39:49,633909
-4,-5,-6,-11,-19,-9,-5,-2,2021-08-07 12:39:49,649869
2,4,6,17,25,14,7,4,2021-08-07 12:39:49,649869
0,1,-1,-5,-5,-2,-1,1,2021-08-07 12:39:49,649869
0,3,4,3,0,1,0,0,2021-08-07 12:39:49,649869
-1,-4,-3,-4,0,-1,0,-2,2021-08-07 12:39:49,665870
1,1,2,3,7,1,2,1,2021-08-07 12:39:49,681867
2,0,2,3,0,-1,0,1,2021-08-07 12:39:49,687871
-1,-1,-2,2,9,5,1,-1,2021-08-07 12:39:49,687871
2,3,4,7,6,3,1,2,2021-08-07 12:39:49,697870
-5,-6,-9,-15,-22,-11,-7,-5,2021-08-07 12:39:49,712869
2,3,4,14,26,17,7,3,2021-08-07 12:39:49,712869
-3,-4,-6,-7,-9,-8,-5,-3,2021-08-07 12:39:49,712869
1,-2,-1,0,-7,-6,-2,0,2021-08-07 12:39:49,712869
5,7,3,2,3,4,3,5,2021-08-07 12:39:49,712869
-7,-11,-13,-14,-17,-12,-6,-7,2021-08-07 12:39:49,712869
4,4,5,11,12,10,7,4,2021-08-07 12:39:49,712869
2,6,5,15,24,12,7,2,2021-08-07 12:39:49,727868
-6,-9,-8,-11,-19,-14,-10,-7,2021-08-07 12:39:49,743871
-3,-1,2,-8,-15,-10,-7,-3,2021-08-07 12:39:49,743871
-8,-9,-9,-9,-12,-10,-7,-6,2021-08-07 12:39:49,743871
0,5,5,6,7,4,3,-1,2021-08-07 12:39:49,743871
5,5,5,15,30,16,8,5,2021-08-07 12:39:49,743871
0,-1,-4,-14,-24,-19,-8,-3,2021-08-07 12:39:49,743871
2,1,-1,-1,-7,2,3,1,2021-08-07 12:39:49,744872
-1,-1,0,1,10,7,3,0,2021-08-07 12:39:49,775897
-3,-4,-3,3,6,5,1,-3,2021-08-07 12:39:49,775897
2,2,-1,-1,-4,-3,-1,2,2021-08-07 12:39:49,775897
-5,-8,-10,-21,-22,-15,-9,-5,2021-08-07 12:39:49,775897
-2,-6,-5,-11,-16,-10,-5,-3,2021-08-07 12:39:49,791868
2,3,7,10,13,10,4,1,2021-08-07 12:39:49,791868
0,4,2,3,1,1,1,1,2021-08-07 12:39:49,791868
0,0,0,6,10,5,2,-1,2021-08-07 12:39:49,807906
-1,-4,-5,-5,-3,0,-1,-1,2021-08-07 12:39:49,807906
-4,-8,-10,-22,-26,-14,-6,-4,2021-08-07 12:39:49,807906
5,5,6,27,51,31,16,6,2021-08-07 12:39:49,807906
4,7,8,0,-5,-2,0,2,2021-08-07 12:39:49,807906
-8,-9,-10,-5,-2,-3,-5,-6,2021-08-07 12:39:49,823870
5,9,10,1,-12,-8,0,2,2021-08-07 12:39:49,839870
-6,-6,-5,-12,-19,-11,-7,-5,2021-08-07 12:39:49,855915
-1,0,1,4,14,10,3,1,2021-08-07 12:39:49,855915
-1,0,-2,-4,-4,-2,-2,0,2021-08-07 12:39:49,855915
-3,-5,-4,-1,-2,-4,-2,-3,2021-08-07 12:39:49,855915
-2,-2,-1,-3,-7,-3,-3,-2,2021-08-07 12:39:49,855915
-1,-2,-1,-4,-4,-5,-1,0,2021-08-07 12:39:49,856872
0,1,1,-4,-9,-2,-1,1,2021-08-07 12:39:49,871869
-5,-5,-6,-1,2,-2,-2,-4,2021-08-07 12:39:49,887873
-2,-2,-3,-12,-14,-7,-3,-2,2021-08-07 12:39:49,919897
0,2,2,6,15,5,1,1,2021-08-07 12:39:49,935895
6,6,5,9,10,7,5,5,2021-08-07 12:39:49,935895
1,1,2,5,10,5,3,2,2021-08-07 12:39:49,935895
-4,-7,-5,-1,0,0,-3,-3,2021-08-07 12:39:49,935895
-3,-2,-3,-12,-22,-12,-7,-4,2021-08-07 12:39:49,935895
5,5,5,6,8,5,3,3,2021-08-07 12:39:49,935895
-2,-1,0,6,8,-1,-2,0,2021-08-07 12:39:49,936869
-3,-4,-4,-13,-21,-12,-5,-2,2021-08-07 12:39:49,936869
2,4,5,7,7,9,4,2,2021-08-07 12:39:49,936869
-2,-2,1,3,7,2,1,-1,2021-08-07 12:39:49,936869
-3,-4,-6,-12,-16,-11,-6,-5,2021-08-07 12:39:49,936869
1,2,3,8,8,3,1,-1,2021-08-07 12:39:49,936869
4,5,4,9,14,9,6,4,2021-08-07 12:39:49,937868
0,0,-2,-6,-11,-7,-3,-1,2021-08-07 12:39:49,937868
-1,-2,-2,1,2,1,-1,0,2021-08-07 12:39:49,937868
-4,-6,-6,-11,-13,-9,-5,-5,2021-08-07 12:39:49,951867
-1,1,1,4,6,4,2,-3,2021-08-07 12:39:49,967867
-1,-2,-1,-2,-5,-2,-2,-1,2021-08-07 12:39:49,983872
0,2,1,-3,-9,-2,-1,1,2021-08-07 12:39:49,983872
-3,-2,-3,1,6,2,-2,-1,2021-08-07 12:39:49,983872
3,4,3,4,7,7,5,4,2021-08-07 12:39:49,983872
-2,-2,0,3,4,-1,-1,0,2021-08-07 12:39:49,983872
-2,-2,-4,-1,-1,-1,-1,-2,2021-08-07 12:39:49,983872
1,3,4,-6,-9,-5,-3,-1,2021-08-07 12:39:49,984870
-2,-2,-4,-3,-10,-8,-4,-3,2021-08-07 12:39:49,984870
2,3,3,11,21,11,5,3,2021-08-07 12:39:50,015906
3,3,5,7,9,6,4,3,2021-08-07 12:39:50,031906
-4,-8,-7,-4,-6,-5,-4,-5,2021-08-07 12:39:50,031906
1,1,2,-1,-1,-2,0,1,2021-08-07 12:39:50,031906
-4,-5,-6,-7,-13,-7,-2,-4,2021-08-07 12:39:50,031906
0,3,3,-3,-3,-1,-3,1,2021-08-07 12:39:50,031906
1,2,1,3,3,1,1,0,2021-08-07 12:39:50,031906
-5,-6,-8,-8,-6,-5,-4,-3,2021-08-07 12:39:50,047906
2,1,2,1,0,2,2,3,2021-08-07 12:39:50,047906
-2,-3,-4,-6,-5,-5,-3,-3,2021-08-07 12:39:50,047906
-1,-3,-3,-6,-14,-8,-3,0,2021-08-07 12:39:50,047906
1,-2,0,7,15,11,5,0,2021-08-07 12:39:50,047906
0,-2,-1,4,14,6,0,-1,2021-08-07 12:39:50,063867
2,2,1,-1,-4,-2,-1,0,2021-08-07 12:39:50,063867
1,1,2,2,6,1,0,0,2021-08-07 12:39:50,079869
-4,-5,-5,-9,-16,-10,-5,-4,2021-08-07 12:39:50,079869
0,0,-2,-4,-5,-3,-1,0,2021-08-07 12:39:50,095905
-3,-3,-3,1,3,3,1,1,2021-08-07 12:39:50,095905
0,2,2,-1,-3,-3,0,-1,2021-08-07 12:39:50,095905
-1,-2,-2,-3,-1,-2,-2,0,2021-08-07 12:39:50,095905
0,1,0,-6,-13,-7,-4,-2,2021-08-07 12:39:50,111869
-1,-1,0,-3,-5,-4,-1,-2,2021-08-07 12:39:50,127871
-2,0,-2,2,5,5,2,0,2021-08-07 12:39:50,127871
-3,-3,-5,-3,-2,-5,-4,-3,2021-08-07 12:39:50,127871
1,1,3,-2,-9,-4,-2,-3,2021-08-07 12:39:50,127871
2,0,-2,-2,2,2,1,0,2021-08-07 12:39:50,127871
2,1,2,9,11,4,2,1,2021-08-07 12:39:50,127871
0,1,-1,3,6,3,1,0,2021-08-07 12:39:50,128871
2,1,-2,-2,-5,-2,0,1,2021-08-07 12:39:50,158867
-4,-9,-6,-7,-10,-9,-5,-6,2021-08-07 12:39:50,158867
3,2,3,4,4,7,3,2,2021-08-07 12:39:50,159871
0,-1,2,-3,-4,0,-1,0,2021-08-07 12:39:50,174870
-1,-1,-1,3,8,6,1,0,2021-08-07 12:39:50,174870
-2,-1,-2,0,-1,-3,-1,-2,2021-08-07 12:39:50,174870
-1,-1,-3,-1,2,-2,-1,1,2021-08-07 12:39:50,174870
-5,-8,-7,-12,-24,-17,-9,-6,2021-08-07 12:39:50,174870
-1,-2,-1,-4,-9,-3,-1,-3,2021-08-07 12:39:50,190906
3,3,7,19,33,22,9,5,2021-08-07 12:39:50,190906
0,0,-3,-4,0,-3,-2,0,2021-08-07 12:39:50,206907
-1,-2,0,-2,-3,-3,-1,1,2021-08-07 12:39:50,206907
-4,-4,-4,-8,-11,-10,-6,-2,2021-08-07 12:39:50,206907
0,1,1,-1,-4,-1,0,2,2021-08-07 12:39:50,206907
-1,-2,0,3,1,2,0,-1,2021-08-07 12:39:50,206907
-1,-4,-4,-7,-7,-6,-4,-2,2021-08-07 12:39:50,207872
4,6,7,9,13,10,6,3,2021-08-07 12:39:50,238873
0,1,1,-2,-5,-3,-2,0,2021-08-07 12:39:50,238873
-4,-2,-2,1,5,0,1,-2,2021-08-07 12:39:50,238873
-3,-4,-2,-5,-15,-12,-6,-2,2021-08-07 12:39:50,238873
0,-1,-3,-4,1,3,0,0,2021-08-07 12:39:50,238873
-1,-1,0,1,0,1,0,-1,2021-08-07 12:39:50,239873
3,2,1,5,10,5,3,2,2021-08-07 12:39:50,245872
0,0,0,4,5,2,1,-2,2021-08-07 12:39:50,245872
-1,-3,-3,-3,-10,-9,-3,-2,2021-08-07 12:39:50,270868
0,-3,0,-6,-11,-8,-4,-3,2021-08-07 12:39:50,286867
-7,-11,-14,-16,-24,-11,-6,-6,2021-08-07 12:39:50,286867
9,14,14,13,25,20,11,8,2021-08-07 12:39:50,286867
0,-2,-4,-2,0,-2,-3,1,2021-08-07 12:39:50,286867
-3,-2,-5,-5,-7,-6,-2,-1,2021-08-07 12:39:50,287872
-2,0,0,-7,-7,-5,-3,-2,2021-08-07 12:39:50,302909
-5,-7,-7,-10,-9,-8,-5,-5,2021-08-07 12:39:50,302909
8,11,20,18,29,24,14,7,2021-08-07 12:39:50,318872
1,0,-10,6,10,2,-1,1,2021-08-07 12:39:50,318872
-4,-7,-5,-16,-28,-20,-9,-5,2021-08-07 12:39:50,318872
-1,-2,-4,-6,-9,-3,-2,0,2021-08-07 12:39:50,318872
-4,-6,-4,-4,-6,-5,-3,-4,2021-08-07 12:39:50,334871
2,3,5,2,0,0,0,1,2021-08-07 12:39:50,349870
5,5,7,11,16,13,6,5,2021-08-07 12:39:50,349870
0,-1,-2,2,8,4,1,0,2021-08-07 12:39:50,349870
-4,-4,-5,-10,-13,-11,-6,-4,2021-08-07 12:39:50,349870
0,0,2,3,4,4,3,3,2021-08-07 12:39:50,349870
2,1,1,5,3,1,0,0,2021-08-07 12:39:50,350869
1,3,0,-4,-5,-3,-2,0,2021-08-07 12:39:50,350869
0,0,-2,-2,-9,-6,-2,-1,2021-08-07 12:39:50,365895
-8,-10,-7,-10,-11,-9,-6,-6,2021-08-07 12:39:50,381868
0,2,1,7,15,11,6,2,2021-08-07 12:39:50,381868
3,7,7,11,15,11,8,5,2021-08-07 12:39:50,381868
1,4,1,1,2,-2,0,-1,2021-08-07 12:39:50,381868
-2,-1,-2,-11,-15,-12,-4,-4,2021-08-07 12:39:50,397867
-9,-12,-10,-14,-23,-16,-12,-10,2021-08-07 12:39:50,413869
2,1,3,8,13,8,5,4,2021-08-07 12:39:50,413869
3,4,1,10,26,20,9,5,2021-08-07 12:39:50,413869
-5,-3,-2,-11,-17,-16,-9,-5,2021-08-07 12:39:50,413869
0,0,-2,-4,-5,-1,-1,-2,2021-08-07 12:39:50,413869
-5,-6,-5,-6,-19,-11,-7,-5,2021-08-07 12:39:50,414869
-2,-5,-2,-6,-3,-4,-4,-2,2021-08-07 12:39:50,444868
4,1,0,7,17,16,7,4,2021-08-07 12:39:50,444868
5,6,8,16,19,10,5,4,2021-08-07 12:39:50,460905
-1,-2,-3,-1,-1,-4,-1,-2,2021-08-07 12:39:50,460905
-2,-1,0,0,-8,-5,-4,-3,2021-08-07 12:39:50,460905
-3,-3,-4,-3,-7,-4,-2,-5,2021-08-07 12:39:50,460905
-4,-4,-6,-6,-11,-5,-3,-2,2021-08-07 12:39:50,460905
2,5,7,5,7,2,2,2,2021-08-07 12:39:50,461868
2,2,0,6,13,8,5,3,2021-08-07 12:39:50,476870
-2,-2,-2,-5,1,2,0,-1,2021-08-07 12:39:50,492869
2,3,6,7,8,3,1,1,2021-08-07 12:39:50,492869
-2,-4,-4,-1,-6,-6,-4,-2,2021-08-07 12:39:50,492869
-8,-10,-13,-19,-33,-21,-12,-9,2021-08-07 12:39:50,492869
5,5,6,5,15,14,7,3,2021-08-07 12:39:50,493869
1,2,2,5,16,7,6,4,2021-08-07 12:39:50,493869
1,-1,0,3,3,3,0,0,2021-08-07 12:39:50,493869
-4,-2,0,-1,-8,-9,-5,-3,2021-08-07 12:39:50,508870
-4,-5,-6,-3,-8,-9,-5,-5,2021-08-07 12:39:50,508870
1,0,-2,-7,-6,3,0,0,2021-08-07 12:39:50,508870
1,1,-1,-2,-6,-5,-1,1,2021-08-07 12:39:50,508870
-2,0,1,2,-1,1,-1,0,2021-08-07 12:39:50,539900
1,1,2,7,8,7,2,0,2021-08-07 12:39:50,555867
0,1,0,-1,0,1,0,-1,2021-08-07 12:39:50,571871
-3,-4,-6,-7,-10,-9,-5,-5,2021-08-07 12:39:50,571871
-1,-2,-1,-10,-13,-6,-2,1,2021-08-07 12:39:50,571871
-5,-6,-5,-5,1,-1,-2,-3,2021-08-07 12:39:50,571871
1,2,4,12,24,13,4,3,2021-08-07 12:39:50,587872
0,2,0,-8,-9,-3,-1,-1,2021-08-07 12:39:50,603911
2,3,3,8,15,7,3,1,2021-08-07 12:39:50,619870
-1,-1,-2,-10,-14,-10,-6,-2,2021-08-07 12:39:50,635869
0,1,0,-2,-7,-5,-2,-1,2021-08-07 12:39:50,635869
-6,-7,-5,-11,-16,-14,-8,-7,2021-08-07 12:39:50,635869
5,3,2,13,29,24,11,7,2021-08-07 12:39:50,635869
2,3,4,5,7,4,3,3,2021-08-07 12:39:50,635869
-1,-1,-4,-1,-5,-7,-1,-1,2021-08-07 12:39:50,636872
-1,-1,-3,-2,2,3,2,1,2021-08-07 12:39:50,636872
-4,-6,-6,-6,-13,-9,-6,-7,2021-08-07 12:39:50,636872
-4,-2,0,-3,-5,-2,-3,-3,2021-08-07 12:39:50,636872
-5,-3,-2,-5,-10,-6,-6,-6,2021-08-07 12:39:50,636872
-1,-1,1,-3,-2,-1,-1,-1,2021-08-07 12:39:50,636872
0,-2,-1,-4,-7,-5,-2,-3,2021-08-07 12:39:50,636872
4,2,1,3,4,3,1,1,2021-08-07 12:39:50,636872
0,0,0,1,2,-2,-1,0,2021-08-07 12:39:50,637874
2,2,-1,4,7,5,3,1,2021-08-07 12:39:50,637874
-3,-1,-3,-3,2,2,-1,0,2021-08-07 12:39:50,651867
0,-2,0,4,11,3,1,1,2021-08-07 12:39:50,651867
-3,0,-3,-14,-21,-15,-7,-3,2021-08-07 12:39:50,651867
4,3,5,15,23,12,5,4,2021-08-07 12:39:50,651867
-2,-1,-5,-8,-17,-11,-6,-3,2021-08-07 12:39:50,683867
0,1,1,2,4,4,2,1,2021-08-07 12:39:50,683867
-3,-7,-7,-6,-6,-2,-3,-3,2021-08-07 12:39:50,683867
-1,-1,1,4,2,0,-2,-2,2021-08-07 12:39:50,683867
0,-1,-2,0,-3,-4,0,-1,2021-08-07 12:39:50,683867
-2,1,-2,-1,-7,-5,-3,-1,2021-08-07 12:39:50,683867
2,1,0,-8,-3,4,2,2,2021-08-07 12:39:50,699870
-2,-3,2,-8,-6,-2,-5,-3,2021-08-07 12:39:50,699870
2,0,-5,0,1,0,0,1,2021-08-07 12:39:50,715903
-2,-4,-4,5,5,2,0,-1,2021-08-07 12:39:50,715903
-3,-2,-2,-4,-9,-5,-2,-2,2021-08-07 12:39:50,715903
3,4,4,4,7,5,5,3,2021-08-07 12:39:50,715903
-2,0,4,7,15,9,3,2,2021-08-07 12:39:50,731908
2,4,3,2,5,0,-1,2,2021-08-07 12:39:50,731908
-1,-2,-2,2,1,-5,-4,-2,2021-08-07 12:39:50,731908
-3,-5,-5,-9,-12,-8,-6,-4,2021-08-07 12:39:50,731908
-2,-4,-2,-6,-15,-8,-4,-4,2021-08-07 12:39:50,747868
3,4,7,9,9,8,6,2,2021-08-07 12:39:50,747868
2,3,4,7,15,5,2,1,2021-08-07 12:39:50,763871
-1,-1,-1,0,-3,-1,-1,1,2021-08-07 12:39:50,779868
-2,-3,-2,-3,-5,-6,-2,-4,2021-08-07 12:39:50,795867
-2,-5,-6,-10,-15,-7,-5,-3,2021-08-07 12:39:50,797869
-1,-2,2,6,12,10,3,0,2021-08-07 12:39:50,797869
-4,-7,-12,-13,-9,-7,-3,-4,2021-08-07 12:39:50,798869
4,9,11,6,9,8,5,5,2021-08-07 12:39:50,798869
-3,-2,-1,-6,-13,-10,-5,-4,2021-08-07 12:39:50,798869
3,3,2,6,0,2,2,1,2021-08-07 12:39:50,798869
-4,-8,-10,-9,-12,-12,-9,-6,2021-08-07 12:39:50,798869
0,-2,-1,-4,7,7,1,0,2021-08-07 12:39:50,799872
3,8,7,14,30,18,7,3,2021-08-07 12:39:50,799872
-2,-3,-5,-4,-5,-5,-2,-3,2021-08-07 12:39:50,811867
-2,-2,-1,-6,-11,-5,-4,-1,2021-08-07 12:39:50,811867
-3,-8,-5,-11,-12,-12,-7,-4,2021-08-07 12:39:50,842868
1,1,1,-1,-8,-3,-2,0,2021-08-07 12:39:50,842868
-5,-5,-6,1,8,-1,-1,-4,2021-08-07 12:39:50,842868
2,5,5,8,7,6,3,4,2021-08-07 12:39:50,842868
-1,-1,-2,-2,-5,-4,0,0,2021-08-07 12:39:50,858867
1,1,1,4,7,5,2,0,2021-08-07 12:39:50,874867
-1,-2,-1,2,5,2,1,0,2021-08-07 12:39:50,890868
0,0,1,-2,-11,-11,-4,-1,2021-08-07 12:39:50,890868
1,1,0,3,0,3,2,4,2021-08-07 12:39:50,890868
-2,-3,-3,-4,-3,-1,-2,0,2021-08-07 12:39:50,890868
2,3,6,3,7,4,2,0,2021-08-07 12:39:50,890868
0,1,1,7,9,5,2,0,2021-08-07 12:39:50,891870
-1,-1,-1,-3,-8,-9,-5,-3,2021-08-07 12:39:50,891870
-3,-5,-6,-10,-9,-4,-2,-3,2021-08-07 12:39:50,891870
-3,-7,-6,-10,-18,-12,-8,-2,2021-08-07 12:39:50,891870
2,2,6,10,19,13,9,3,2021-08-07 12:39:50,891870
-1,-1,2,1,4,-1,-3,-1,2021-08-07 12:39:50,921869
-2,-3,-3,1,-3,-3,-2,-1,2021-08-07 12:39:50,937868
0,1,2,3,3,3,3,2,2021-08-07 12:39:50,937868
-3,-4,-7,-10,-15,-10,-7,-4,2021-08-07 12:39:50,937868
6,8,6,7,8,9,5,5,2021-08-07 12:39:50,937868
4,3,5,3,9,4,4,3,2021-08-07 12:39:50,938870
-4,-5,-8,-18,-27,-18,-9,-3,2021-08-07 12:39:50,953869
1,3,11,7,23,16,6,2,2021-08-07 12:39:50,953869
-2,-2,-9,-1,-5,-5,-1,-1,2021-08-07 12:39:50,953869
-6,-5,-8,-5,-15,-11,-5,-4,2021-08-07 12:39:50,953869
0,2,2,6,6,3,3,1,2021-08-07 12:39:50,953869
4,6,4,8,20,15,8,4,2021-08-07 12:39:50,954869
-4,-2,-2,-7,-5,-6,-5,-4,2021-08-07 12:39:50,984869
-3,-5,-2,-12,-23,-13,-7,-4,2021-08-07 12:39:50,999869
-3,-1,-1,0,0,-1,-3,-2,2021-08-07 12:39:50,999869
3,3,3,8,14,10,7,2,2021-08-07 12:39:51,015908
3,4,5,11,17,10,5,3,2021-08-07 12:39:51,015908
-4,-4,-6,-9,-13,-9,-4,-3,2021-08-07 12:39:51,015908
4,4,3,-5,4,7,4,1,2021-08-07 12:39:51,015908
-8,-8,-12,-16,-19,-13,-9,-6,2021-08-07 12:39:51,015908
-1,-3,-2,2,4,3,0,0,2021-08-07 12:39:51,031918
-1,3,4,2,-5,-3,-4,-1,2021-08-07 12:39:51,047869
-1,1,1,2,-4,-1,0,-2,2021-08-07 12:39:51,047869
0,-1,-3,2,1,1,2,1,2021-08-07 12:39:51,047869
-4,-6,-6,-9,-13,-10,-7,-5,2021-08-07 12:39:51,047869
-3,-4,-4,-4,2,2,0,-2,2021-08-07 12:39:51,047869
0,1,-3,-2,-6,-3,-3,0,2021-08-07 12:39:51,048872
1,1,0,7,9,3,-1,-2,2021-08-07 12:39:51,048872
2,2,2,-1,-2,0,-2,0,2021-08-07 12:39:51,048872
3,2,2,4,10,3,2,1,2021-08-07 12:39:51,048872
-1,-5,-3,-2,-4,-1,-1,-1,2021-08-07 12:39:51,048872
-1,-4,-2,-4,-9,-8,-5,-1,2021-08-07 12:39:51,048872
1,1,2,0,2,4,3,3,2021-08-07 12:39:51,079868
2,2,0,6,13,11,4,0,2021-08-07 12:39:51,079868
-1,-2,-2,-9,-10,-10,-5,-1,2021-08-07 12:39:51,095919
-1,-2,-1,-7,-13,-5,-4,-2,2021-08-07 12:39:51,095919
-3,-4,-2,-1,1,-3,-3,-4,2021-08-07 12:39:51,095919
2,6,4,1,0,1,1,4,2021-08-07 12:39:51,095919
0,-1,-1,-2,0,0,-2,0,2021-08-07 12:39:51,096869
-8,-7,-2,-14,-21,-13,-8,-6,2021-08-07 12:39:51,096869
3,7,2,7,10,7,5,3,2021-08-07 12:39:51,111867
-4,-7,-8,-2,0,-1,-1,-3,2021-08-07 12:39:51,111867
3,3,5,5,8,3,3,3,2021-08-07 12:39:51,127868
0,-1,-2,-1,-6,-7,-2,-1,2021-08-07 12:39:51,127868
2,1,4,4,0,0,1,2,2021-08-07 12:39:51,127868
-2,-3,-3,-10,-12,-10,-6,-3,2021-08-07 12:39:51,127868
-5,-6,-7,-15,-10,-4,-4,-4,2021-08-07 12:39:51,127868
3,4,3,12,25,17,9,4,2021-08-07 12:39:51,128868
-2,-2,-4,-3,-3,-2,-1,-2,2021-08-07 12:39:51,158868
3,2,3,6,1,2,0,1,2021-08-07 12:39:51,174868
-4,-2,0,0,-1,-1,-2,-1,2021-08-07 12:39:51,189906
-1,-2,-3,-7,-15,-10,-5,-5,2021-08-07 12:39:51,189906
-3,-1,-3,-3,-7,-4,-3,-2,2021-08-07 12:39:51,189906
-1,0,2,3,10,10,4,-1,2021-08-07 12:39:51,189906
3,5,6,13,14,8,5,3,2021-08-07 12:39:51,189906
1,3,-1,5,8,3,4,2,2021-08-07 12:39:51,190870
-4,-5,-4,-5,-7,-6,-4,-2,2021-08-07 12:39:51,190870
-7,-8,-8,-12,-20,-12,-8,-8,2021-08-07 12:39:51,190870
3,6,3,0,6,7,5,2,2021-08-07 12:39:51,190870
2,4,1,2,2,1,1,2,2021-08-07 12:39:51,190870
-1,2,1,-3,-1,1,0,1,2021-08-07 12:39:51,221632
-2,-5,-3,-6,-7,-7,-4,-2,2021-08-07 12:39:51,221632
0,-1,1,10,11,6,4,1,2021-08-07 12:39:51,221632
1,2,2,6,2,-1,1,1,2021-08-07 12:39:51,221632
-1,-4,-7,-12,-9,-4,-1,-2,2021-08-07 12:39:51,221632
-1,2,2,-10,-6,-6,-3,-2,2021-08-07 12:39:51,222631
-5,-7,-1,-8,-12,-10,-8,-5,2021-08-07 12:39:51,252627
2,3,-5,3,7,7,2,2,2021-08-07 12:39:51,252627
1,-2,2,15,24,17,6,1,2021-08-07 12:39:51,252627
0,-2,0,5,3,0,0,0,2021-08-07 12:39:51,252627
1,-3,-3,0,-3,-2,-2,0,2021-08-07 12:39:51,252627
1,4,5,-3,-4,0,-1,0,2021-08-07 12:39:51,252627
-1,-1,-1,-7,-11,-9,-5,-2,2021-08-07 12:39:51,282630
0,2,-1,-1,-3,0,0,1,2021-08-07 12:39:51,298676
-2,-2,-3,0,-5,-3,-1,-2,2021-08-07 12:39:51,298676
0,-3,-1,1,16,13,6,2,2021-08-07 12:39:51,298676
5,8,8,10,11,7,6,5,2021-08-07 12:39:51,298676
0,0,2,-1,-4,-4,-1,-1,2021-08-07 12:39:51,298676
1,-2,-3,1,11,6,3,0,2021-08-07 12:39:51,299630
-2,-3,-5,-6,-13,-12,-7,-3,2021-08-07 12:39:51,314628
-4,-3,-2,0,-2,-4,-5,-4,2021-08-07 12:39:51,330630
-2,-2,-3,-3,-6,-5,-2,-2,2021-08-07 12:39:51,330630
0,1,-3,-2,1,3,1,1,2021-08-07 12:39:51,331630
-6,-7,-7,-18,-19,-12,-8,-4,2021-08-07 12:39:51,331630
0,1,3,3,12,7,3,1,2021-08-07 12:39:51,331630
0,0,0,7,0,-3,0,-1,2021-08-07 12:39:51,332628
0,-1,1,9,7,5,0,0,2021-08-07 12:39:51,332628
-4,-3,-5,-12,-12,-6,-2,-5,2021-08-07 12:39:51,332628
2,3,-1,5,9,8,4,2,2021-08-07 12:39:51,346630
-3,-2,-2,-4,-2,-5,-2,-1,2021-08-07 12:39:51,346630
2,2,2,0,-7,2,2,0,2021-08-07 12:39:51,378667
-3,-2,0,-1,0,-6,-3,-2,2021-08-07 12:39:51,394667
-4,-7,-5,-9,-15,-10,-6,-4,2021-08-07 12:39:51,410667
3,1,3,3,10,8,4,1,2021-08-07 12:39:51,426670
-1,-1,-3,0,2,-1,-2,-2,2021-08-07 12:39:51,426890
-1,-3,-2,-6,-16,-8,-3,-1,2021-08-07 12:39:51,426890
0,-2,-5,-3,-2,1,3,0,2021-08-07 12:39:51,426890
-2,-2,-2,2,-1,-1,-2,-2,2021-08-07 12:39:51,426890
1,0,0,2,5,2,2,-1,2021-08-07 12:39:51,426890
-2,-2,-3,-5,3,1,-1,-2,2021-08-07 12:39:51,427669
-4,-6,-7,-12,-15,-10,-7,-5,2021-08-07 12:39:51,427669
6,8,5,6,11,10,6,6,2021-08-07 12:39:51,427669
1,2,2,3,8,4,2,2,2021-08-07 12:39:51,427669
1,3,3,8,2,-2,-2,1,2021-08-07 12:39:51,427669
0,-3,-3,7,5,0,0,-2,2021-08-07 12:39:51,427669
-2,-2,-3,-17,-24,-12,-6,-2,2021-08-07 12:39:51,428670
-3,-4,-4,-10,-2,0,0,0,2021-08-07 12:39:51,441632
1,-2,-2,0,9,4,1,1,2021-08-07 12:39:51,441632
1,3,7,1,-7,-5,0,0,2021-08-07 12:39:51,457667
-4,-3,-3,4,4,0,-2,-4,2021-08-07 12:39:51,457667
0,4,1,-2,1,-1,1,0,2021-08-07 12:39:51,457667
0,-4,-5,-5,-10,-8,-4,-2,2021-08-07 12:39:51,457667
-5,-5,-4,-3,-5,-4,-5,-4,2021-08-07 12:39:51,489676
0,0,0,0,5,3,2,2,2021-08-07 12:39:51,505629
1,2,4,4,4,5,2,2,2021-08-07 12:39:51,521666
-3,0,7,3,-1,-3,-3,1,2021-08-07 12:39:51,521666
-1,-1,-10,-6,-12,-7,-3,-1,2021-08-07 12:39:51,521666
1,1,2,6,15,11,4,0,2021-08-07 12:39:51,521666
-3,-2,-3,-6,-8,-5,-4,-3,2021-08-07 12:39:51,521666
-2,-3,-1,2,0,0,-1,-3,2021-08-07 12:39:51,522632
-2,-4,-3,-8,-7,-6,-1,0,2021-08-07 12:39:51,522632
2,5,0,-11,-11,-7,-4,1,2021-08-07 12:39:51,522632
1,2,1,1,4,4,3,3,2021-08-07 12:39:51,537632
1,2,3,5,5,5,5,0,2021-08-07 12:39:51,537632
-4,-3,3,11,11,6,0,-1,2021-08-07 12:39:51,537632
-4,-6,-7,-5,-6,-7,-2,-3,2021-08-07 12:39:51,537632
-5,-6,-4,-14,-8,-7,-5,-4,2021-08-07 12:39:51,553665
0,3,3,5,6,2,-1,-2,2021-08-07 12:39:51,569634
1,-2,-2,-5,-10,-3,-1,1,2021-08-07 12:39:51,585665
1,3,4,19,34,16,7,2,2021-08-07 12:39:51,585665
-3,-4,-3,3,-5,-6,-6,-5,2021-08-07 12:39:51,585665
4,3,-1,0,5,5,5,6,2021-08-07 12:39:51,585665
2,0,1,-12,-14,-6,-1,-1,2021-08-07 12:39:51,585665
0,0,0,-2,-6,-4,-1,0,2021-08-07 12:39:51,585665
-2,-5,-3,-1,-6,-4,-1,-2,2021-08-07 12:39:51,586634
-1,-2,-3,5,5,0,-1,-1,2021-08-07 12:39:51,586634
-2,2,-2,-2,5,1,-1,-1,2021-08-07 12:39:51,600667
-2,-3,-2,-8,-12,-8,-5,-2,2021-08-07 12:39:51,616667
-2,3,1,1,-3,-3,-1,-1,2021-08-07 12:39:51,648628
-3,-5,-5,-1,-12,-7,-4,-2,2021-08-07 12:39:51,648628
1,0,-1,4,18,13,6,3,2021-08-07 12:39:51,648628
2,2,2,-10,-4,3,3,1,2021-08-07 12:39:51,648628
-3,-7,-6,-3,-7,-8,-4,-3,2021-08-07 12:39:51,664666
4,11,10,9,6,5,2,2,2021-08-07 12:39:51,680666
0,-2,0,6,-1,-1,-3,0,2021-08-07 12:39:51,696666
-2,-3,-2,5,3,1,0,-2,2021-08-07 12:39:51,711666
-1,2,2,-4,0,1,-1,0,2021-08-07 12:39:51,711666
0,-2,-2,1,6,9,5,1,2021-08-07 12:39:51,711666
-2,-3,-2,-5,-10,-8,-5,-4,2021-08-07 12:39:51,711666
-2,-1,-5,1,4,-3,-1,0,2021-08-07 12:39:51,711666
2,0,2,1,-5,-6,-3,0,2021-08-07 12:39:51,711666
-1,0,1,-4,3,4,2,1,2021-08-07 12:39:51,712672
-1,0,8,-1,2,-1,-1,-1,2021-08-07 12:39:51,712672
-2,-6,-16,-5,-12,-6,-4,-3,2021-08-07 12:39:51,712672
-4,-6,-9,-17,-14,-8,-6,-5,2021-08-07 12:39:51,712672
0,0,0,2,-6,-7,-3,-2,2021-08-07 12:39:51,712672
4,5,6,5,10,10,7,5,2021-08-07 12:39:51,712672
3,9,13,13,6,5,3,3,2021-08-07 12:39:51,713630
1,2,-2,5,6,3,2,0,2021-08-07 12:39:51,713630
-4,-6,-5,-3,-1,0,-3,-3,2021-08-07 12:39:51,713630
-5,-4,-7,-9,-4,-4,-5,-4,2021-08-07 12:39:51,713630
-3,-5,-3,-7,-14,-10,-5,-3,2021-08-07 12:39:51,713630
-1,-1,0,-9,-18,-7,-4,-1,2021-08-07 12:39:51,713630
6,8,11,30,41,25,12,6,2021-08-07 12:39:51,713630
1,2,-1,6,4,1,1,0,2021-08-07 12:39:51,727668
-7,-9,-11,-20,-19,-8,-6,-5,2021-08-07 12:39:51,743668
1,2,3,6,17,9,3,1,2021-08-07 12:39:51,759668
-1,-1,-5,-17,-26,-14,-4,-1,2021-08-07 12:39:51,759668
-1,0,-1,9,11,2,2,0,2021-08-07 12:39:51,759668
2,2,4,8,6,2,0,0,2021-08-07 12:39:51,759668
-2,-4,-5,-13,-12,-4,-3,-2,2021-08-07 12:39:51,759668
-3,-7,-6,-8,-10,-6,-3,-5,2021-08-07 12:39:51,759668
1,4,7,3,2,0,0,1,2021-08-07 12:39:51,775666
-1,-1,2,-2,-9,-7,-4,-1,2021-08-07 12:39:51,791631
-1,-1,-2,1,-2,-1,0,2,2021-08-07 12:39:51,791631
-1,-1,-2,-2,10,9,3,2,2021-08-07 12:39:51,791631
0,-1,3,-5,-6,-4,-3,-2,2021-08-07 12:39:51,791631
-3,-4,-7,-3,1,-2,-3,-4,2021-08-07 12:39:51,791631
0,3,1,1,-7,-4,0,0,2021-08-07 12:39:51,791631
0,1,1,9,10,3,3,1,2021-08-07 12:39:51,792628
