EMG 1,EMG 2,EMG 3,EMG 4,EMG 5,EMG 6,EMG 7,EMG 8,Timestamp,Milliseconds
-1,0,0,-3,-3,0,-1,0,2021-08-07 12:37:42,739825
0,-2,-1,-1,-2,-3,-1,-1,2021-08-07 12:37:42,739825
-2,-1,0,-3,-3,0,-2,-2,2021-08-07 12:37:42,739825
-1,-4,-3,-5,-8,-5,-3,-3,2021-08-07 12:37:42,739825
2,2,1,1,1,-1,0,0,2021-08-07 12:37:42,739825
0,0,-1,-2,-2,2,1,0,2021-08-07 12:37:42,739825
-1,1,-1,5,9,5,2,1,2021-08-07 12:37:42,739825
-2,-4,-4,-3,-2,-2,-3,-1,2021-08-07 12:37:42,739825
-1,0,-1,0,-1,0,0,0,2021-08-07 12:37:42,755827
-1,-1,-1,-1,-4,-3,-1,0,2021-08-07 12:37:42,771826
0,1,0,-4,-4,-4,-2,-1,2021-08-07 12:37:42,771826
-2,0,-2,-2,1,2,0,-2,2021-08-07 12:37:42,771826
-1,-4,-3,0,-3,-2,-1,-1,2021-08-07 12:37:42,771826
0,2,3,2,4,4,1,1,2021-08-07 12:37:42,771826
-2,-4,-3,-5,-8,-6,-3,-1,2021-08-07 12:37:42,803825
-2,0,0,-1,0,-1,-1,-1,2021-08-07 12:37:42,819826
0,0,-2,1,6,6,2,1,2021-08-07 12:37:42,819826
1,1,1,2,3,2,2,1,2021-08-07 12:37:42,819826
-1,-4,-1,-1,-1,-2,-2,-1,2021-08-07 12:37:42,819826
0,0,0,-1,-4,-3,-3,0,2021-08-07 12:37:42,819826
-3,-3,-1,1,0,-1,-3,-1,2021-08-07 12:37:42,819826
0,0,-2,-4,-3,-2,-1,-1,2021-08-07 12:37:42,819826
2,2,1,0,0,1,2,2,2021-08-07 12:37:42,850826
1,0,-2,-3,0,0,2,0,2021-08-07 12:37:42,850826
-4,-4,-2,-4,-7,-6,-4,-4,2021-08-07 12:37:42,850826
-2,-1,-2,1,2,2,0,-2,2021-08-07 12:37:42,850826
-3,-2,-1,0,1,2,-1,0,2021-08-07 12:37:42,850826
1,-1,2,5,4,2,0,0,2021-08-07 12:37:42,850826
-1,0,-2,-2,-3,-1,0,0,2021-08-07 12:37:42,865826
0,-2,-1,-3,-4,-3,-3,-3,2021-08-07 12:37:42,865826
0,1,0,1,0,0,0,1,2021-08-07 12:37:42,881826
1,2,1,1,-1,1,0,2,2021-08-07 12:37:42,897826
0,1,-3,-4,-1,0,-1,0,2021-08-07 12:37:42,928826
-3,-4,-1,-3,-3,-3,-1,-1,2021-08-07 12:37:42,928826
1,-1,0,-1,-1,-1,-1,-1,2021-08-07 12:37:42,928826
0,-1,-1,-4,-3,-3,-1,-2,2021-08-07 12:37:42,928826
0,1,0,-5,-6,-4,0,-1,2021-08-07 12:37:42,928826
0,1,0,3,5,3,3,0,2021-08-07 12:37:42,928826
0,1,3,6,5,4,3,-1,2021-08-07 12:37:42,928826
-2,-3,-2,-2,-5,-4,-4,-1,2021-08-07 12:37:42,928826
-1,-3,-1,2,5,4,0,0,2021-08-07 12:37:42,928826
-1,-4,-4,-7,-5,-3,-3,-2,2021-08-07 12:37:42,929826
2,3,2,-1,0,0,1,0,2021-08-07 12:37:42,929826
-1,0,-1,0,-1,-4,-1,-2,2021-08-07 12:37:42,929826
1,-1,0,0,0,0,-2,-2,2021-08-07 12:37:42,944829
-1,-1,-2,-2,-4,-1,0,0,2021-08-07 12:37:42,944829
-2,-4,-3,-2,-2,-2,-2,-3,2021-08-07 12:37:42,960825
-2,-1,0,-2,-1,0,0,-1,2021-08-07 12:37:42,960825
0,0,2,2,1,-1,0,0,2021-08-07 12:37:42,976826
-1,-1,0,0,-1,-1,-2,-1,2021-08-07 12:37:42,976826
2,1,1,0,-2,0,-2,0,2021-08-07 12:37:42,992826
0,0,-3,-1,-2,1,0,0,2021-08-07 12:37:43,008824
-1,-1,-2,1,5,5,1,1,2021-08-07 12:37:43,024826
0,-1,-1,0,1,1,-1,1,2021-08-07 12:37:43,024826
-3,-3,-3,-3,-3,-2,-2,-4,2021-08-07 12:37:43,024826
-1,1,4,3,2,1,1,-1,2021-08-07 12:37:43,024826
-4,-2,-1,0,-5,-6,-4,-3,2021-08-07 12:37:43,024826
1,3,2,2,3,0,-1,0,2021-08-07 12:37:43,024826
-2,-1,-1,-3,-5,-5,-4,-1,2021-08-07 12:37:43,024826
2,0,0,-2,-4,1,1,2,2021-08-07 12:37:43,024826
-1,-2,-2,-1,-2,-1,-1,-1,2021-08-07 12:37:43,024826
0,2,-2,-3,-1,0,1,1,2021-08-07 12:37:43,025827
1,0,0,3,0,1,0,0,2021-08-07 12:37:43,025827
-1,0,-2,-2,-1,0,0,0,2021-08-07 12:37:43,025827
-1,-3,-2,-2,-3,-2,-2,-2,2021-08-07 12:37:43,040826
-2,-2,-1,-1,-1,0,-2,-2,2021-08-07 12:37:43,040826
0,0,-1,-2,2,0,1,2,2021-08-07 12:37:43,055826
-2,-1,-1,-2,-4,-3,-2,-3,2021-08-07 12:37:43,055826
0,-1,0,-1,2,1,1,0,2021-08-07 12:37:43,071825
-1,-1,0,2,0,-2,-1,0,2021-08-07 12:37:43,071825
0,-1,1,-1,1,2,1,0,2021-08-07 12:37:43,071825
0,-1,-2,1,1,-1,-1,0,2021-08-07 12:37:43,071825
-2,-3,-3,-1,-3,-3,-4,-3,2021-08-07 12:37:43,087826
0,0,0,-2,-4,-1,-1,-2,2021-08-07 12:37:43,087826
1,2,1,-3,-2,-1,-1,1,2021-08-07 12:37:43,103829
-1,0,-1,2,3,2,0,0,2021-08-07 12:37:43,119825
-1,-1,-1,1,-3,-1,-1,-1,2021-08-07 12:37:43,135827
-2,-1,0,0,0,-1,-2,-1,2021-08-07 12:37:43,135827
-2,-2,-1,-2,-4,-1,-1,-2,2021-08-07 12:37:43,135827
-1,-3,-2,0,-3,0,0,-1,2021-08-07 12:37:43,135827
1,0,-1,-1,2,1,0,0,2021-08-07 12:37:43,135827
-3,-3,-1,-1,-3,-3,-3,-3,2021-08-07 12:37:43,135827
0,1,-1,-3,0,2,2,1,2021-08-07 12:37:43,135827
2,1,4,3,8,5,2,3,2021-08-07 12:37:43,136827
-1,0,0,-5,-5,-2,-1,0,2021-08-07 12:37:43,151826
-3,-2,-4,-1,-1,-3,-3,0,2021-08-07 12:37:43,166826
-1,-4,-3,-3,-8,-8,-2,0,2021-08-07 12:37:43,166826
1,3,3,5,9,7,2,0,2021-08-07 12:37:43,166826
-2,-2,-2,-2,0,-1,-1,-2,2021-08-07 12:37:43,166826
1,1,0,0,0,0,0,1,2021-08-07 12:37:43,166826
-4,-2,-1,0,-3,-3,-4,-2,2021-08-07 12:37:43,182827
-1,-3,-3,-4,-5,-4,-2,-2,2021-08-07 12:37:43,198826
0,-1,-1,-1,-1,1,1,-1,2021-08-07 12:37:43,198826
2,1,0,0,4,4,1,0,2021-08-07 12:37:43,214826
1,-1,0,1,0,0,-2,-2,2021-08-07 12:37:43,230826
-4,-3,-4,-3,-4,-3,-3,-1,2021-08-07 12:37:43,230826
0,1,2,-1,-1,-1,0,0,2021-08-07 12:37:43,230826
1,2,1,4,0,0,1,1,2021-08-07 12:37:43,230826
1,-1,0,2,1,2,0,0,2021-08-07 12:37:43,230826
0,1,1,-3,-2,0,-1,0,2021-08-07 12:37:43,230826
-1,-2,-2,-3,-4,-5,-2,-3,2021-08-07 12:37:43,230826
1,-1,-2,-2,-1,-1,0,0,2021-08-07 12:37:43,231827
-1,2,2,7,5,2,1,1,2021-08-07 12:37:43,231827
-1,-1,1,-3,-2,-3,-1,-2,2021-08-07 12:37:43,231827
1,-2,-5,-3,0,-2,0,0,2021-08-07 12:37:43,246826
-1,-2,0,5,5,1,0,0,2021-08-07 12:37:43,255827
-1,-2,-4,-5,1,0,0,1,2021-08-07 12:37:43,255827
-2,-4,-4,-9,-14,-10,-6,-2,2021-08-07 12:37:43,256826
-3,0,3,-1,-1,-2,-1,-2,2021-08-07 12:37:43,277828
-1,-1,-1,-1,0,-2,0,-2,2021-08-07 12:37:43,277828
1,2,1,2,3,1,0,1,2021-08-07 12:37:43,277828
0,3,0,7,8,6,3,2,2021-08-07 12:37:43,277828
-2,-1,-3,-5,-4,-2,-2,-2,2021-08-07 12:37:43,277828
0,0,1,0,-3,0,0,-1,2021-08-07 12:37:43,278829
-1,-1,-1,1,2,2,0,-1,2021-08-07 12:37:43,293826
-2,-1,-3,-1,-1,0,-2,-1,2021-08-07 12:37:43,293826
0,1,3,6,3,2,1,1,2021-08-07 12:37:43,309826
0,0,0,0,-1,-1,-1,-1,2021-08-07 12:37:43,309826
-2,-2,0,-1,-4,-3,-2,-2,2021-08-07 12:37:43,309826
0,1,1,-1,-3,-3,1,-1,2021-08-07 12:37:43,309826
1,2,0,2,2,2,0,1,2021-08-07 12:37:43,325826
-1,0,-1,-3,-4,-1,-3,1,2021-08-07 12:37:43,325826
-1,-1,-3,-3,0,-2,-1,-2,2021-08-07 12:37:43,325826
1,-1,1,3,0,0,-1,0,2021-08-07 12:37:43,325826
-1,0,-1,0,0,-1,-1,-1,2021-08-07 12:37:43,357827
-1,-2,-3,-4,-2,-1,-2,0,2021-08-07 12:37:43,357827
0,2,-1,0,1,2,1,0,2021-08-07 12:37:43,357827
-1,-2,-3,-3,-2,-1,-3,-1,2021-08-07 12:37:43,357827
-3,0,0,-1,-1,0,-2,-1,2021-08-07 12:37:43,373826
-1,0,0,-1,-1,0,-1,0,2021-08-07 12:37:43,389826
-3,-3,-2,0,-1,-3,-1,-2,2021-08-07 12:37:43,405826
-2,-3,-2,-3,-2,-2,-1,-3,2021-08-07 12:37:43,405826
2,-1,3,3,4,2,2,1,2021-08-07 12:37:43,405826
-3,-1,-1,-1,0,-2,-1,-1,2021-08-07 12:37:43,405826
1,0,2,-1,-2,-2,-1,0,2021-08-07 12:37:43,405826
1,-1,-1,0,0,1,1,-1,2021-08-07 12:37:43,405826
-1,-3,-3,-1,-3,-4,-4,-2,2021-08-07 12:37:43,405826
0,0,-3,-7,-10,-5,-2,-3,2021-08-07 12:37:43,405826
3,4,4,5,12,8,4,2,2021-08-07 12:37:43,405826
-1,0,-2,-2,-2,-2,-2,-1,2021-08-07 12:37:43,405826
-3,-2,-5,0,2,0,-1,0,2021-08-07 12:37:43,421826
1,-1,1,-2,-3,-3,-3,0,2021-08-07 12:37:43,421826
0,-1,-1,-1,-7,-4,-2,-4,2021-08-07 12:37:43,453826
-2,-2,-3,-3,-5,-3,-3,-2,2021-08-07 12:37:43,453826
0,2,3,1,4,5,3,0,2021-08-07 12:37:43,453826
-3,-2,-3,-3,-3,-4,0,0,2021-08-07 12:37:43,453826
-1,-1,-2,-1,1,2,2,1,2021-08-07 12:37:43,453826
0,1,3,2,2,-1,-1,0,2021-08-07 12:37:43,453826
-1,0,-2,-2,-5,-3,-3,0,2021-08-07 12:37:43,469826
1,-1,0,1,0,2,1,0,2021-08-07 12:37:43,485828
-1,0,0,-2,-3,-2,-1,-1,2021-08-07 12:37:43,485828
-2,-1,-1,1,0,0,-3,-1,2021-08-07 12:37:43,485828
-2,0,-1,-1,0,-2,-1,0,2021-08-07 12:37:43,501827
0,0,0,-1,-1,1,0,-2,2021-08-07 12:37:43,501827
-1,1,-2,-4,-4,-2,-2,1,2021-08-07 12:37:43,501827
-2,0,1,0,3,0,1,0,2021-08-07 12:37:43,501827
2,2,3,2,1,1,1,2,2021-08-07 12:37:43,501827
-3,-2,-2,0,1,0,-1,-1,2021-08-07 12:37:43,501827
-2,-3,-5,-3,-9,-6,-5,-2,2021-08-07 12:37:43,501827
2,1,2,0,5,5,3,0,2021-08-07 12:37:43,502827
-2,-2,-2,-1,1,-1,-2,-3,2021-08-07 12:37:43,548826
2,2,2,2,2,1,2,0,2021-08-07 12:37:43,548826
-1,-2,-2,-1,-1,-2,0,-2,2021-08-07 12:37:43,548826
-2,-1,-2,-2,-3,-3,-2,-1,2021-08-07 12:37:43,548826
-1,-3,-3,-5,-7,-4,-3,-2,2021-08-07 12:37:43,548826
0,1,-2,3,7,5,3,1,2021-08-07 12:37:43,548826
-2,-2,-1,-3,1,-2,-1,-2,2021-08-07 12:37:43,548826
-2,-1,-2,-3,-3,-1,-2,-2,2021-08-07 12:37:43,549828
0,0,-2,-2,-2,-3,0,-2,2021-08-07 12:37:43,564827
-2,0,1,-1,-1,-2,-2,0,2021-08-07 12:37:43,564827
-1,-1,-2,-1,-2,2,0,-1,2021-08-07 12:37:43,564827
0,2,3,-1,-1,1,0,2,2021-08-07 12:37:43,564827
-2,-3,-3,-4,-7,-6,-2,-2,2021-08-07 12:37:43,596824
0,-3,-2,0,-5,-2,-2,0,2021-08-07 12:37:43,612826
-1,0,3,8,9,2,0,0,2021-08-07 12:37:43,628825
-1,-3,-2,-7,-18,-11,-4,-2,2021-08-07 12:37:43,628825
1,2,2,14,28,18,7,2,2021-08-07 12:37:43,628825
4,1,2,0,-1,-6,-2,-1,2021-08-07 12:37:43,628825
5,2,0,-3,7,7,5,4,2021-08-07 12:37:43,628825
-7,-6,-6,-7,-14,-11,-7,-4,2021-08-07 12:37:43,628825
2,5,7,2,1,2,2,2,2021-08-07 12:37:43,628825
-4,-4,-2,1,3,2,-3,-3,2021-08-07 12:37:43,629827
1,-2,-3,-3,-7,-6,-4,0,2021-08-07 12:37:43,629827
4,-2,-5,0,-1,-2,1,1,2021-08-07 12:37:43,629827
-1,-3,-2,-8,-10,-7,-3,0,2021-08-07 12:37:43,660825
-2,-1,0,2,-1,-2,-1,-2,2021-08-07 12:37:43,660825
1,3,4,9,5,4,1,-1,2021-08-07 12:37:43,660825
-3,-4,-3,-1,11,4,3,0,2021-08-07 12:37:43,660825
-3,-10,-12,-21,-23,-14,-10,-6,2021-08-07 12:37:43,660825
1,4,4,4,4,4,5,1,2021-08-07 12:37:43,660825
2,8,11,22,21,11,3,2,2021-08-07 12:37:43,667826
-2,-6,-10,-10,1,-3,0,-2,2021-08-07 12:37:43,667826
-1,-4,-7,-17,-21,-10,-3,0,2021-08-07 12:37:43,691825
-1,-3,-2,-8,-6,-2,-1,1,2021-08-07 12:37:43,691825
-3,-3,-1,-6,-15,-8,-5,-3,2021-08-07 12:37:43,691825
3,7,10,22,24,15,6,2,2021-08-07 12:37:43,691825
-1,-1,0,1,-1,-3,-3,-2,2021-08-07 12:37:43,723825
-2,0,-2,-3,-7,-1,-1,0,2021-08-07 12:37:43,723825
0,-1,-1,5,10,4,2,1,2021-08-07 12:37:43,723825
0,-1,1,-2,-3,-1,-2,-1,2021-08-07 12:37:43,723825
-2,-1,-3,-2,-3,-3,-3,-2,2021-08-07 12:37:43,723825
0,1,1,2,5,3,2,2,2021-08-07 12:37:43,723825
-4,-3,-3,-4,-6,-4,-3,0,2021-08-07 12:37:43,738826
-3,-2,-3,-9,-13,-9,-5,-3,2021-08-07 12:37:43,738826
5,6,8,9,8,7,5,5,2021-08-07 12:37:43,754825
-1,0,-1,3,4,1,-1,-1,2021-08-07 12:37:43,754825
-1,-6,-7,-11,-7,-2,-2,-1,2021-08-07 12:37:43,754825
-1,0,-1,0,-3,-1,-2,0,2021-08-07 12:37:43,754825
-1,-2,1,9,9,4,1,-1,2021-08-07 12:37:43,786828
-2,-2,-2,-5,-1,-3,-2,-2,2021-08-07 12:37:43,802828
-4,-7,-5,-6,-9,-9,-4,-4,2021-08-07 12:37:43,818828
1,2,4,2,1,2,-1,0,2021-08-07 12:37:43,818828
0,3,2,3,7,3,1,-1,2021-08-07 12:37:43,818828
-1,0,-3,0,-2,-2,-1,-1,2021-08-07 12:37:43,818828
1,0,-1,-5,-5,-4,-2,0,2021-08-07 12:37:43,818828
1,0,1,-5,-2,1,1,-1,2021-08-07 12:37:43,819828
-2,-3,-3,-2,-5,-2,-2,-1,2021-08-07 12:37:43,819828
-1,-1,0,-1,-2,-1,1,-1,2021-08-07 12:37:43,819828
0,0,-3,-2,-4,-1,-1,-2,2021-08-07 12:37:43,819828
-3,-3,-3,0,-1,-3,-1,-1,2021-08-07 12:37:43,819828
0,1,-1,-2,0,1,1,-1,2021-08-07 12:37:43,834827
0,1,2,1,1,2,1,1,2021-08-07 12:37:43,834827
-2,-1,-1,-2,0,-1,-3,0,2021-08-07 12:37:43,834827
0,-2,-2,-1,-2,-1,-1,-1,2021-08-07 12:37:43,834827
-1,-1,1,3,2,2,1,1,2021-08-07 12:37:43,866826
0,-1,-2,-1,-1,-2,-2,-1,2021-08-07 12:37:43,866826
-1,-2,-2,-4,-4,0,0,0,2021-08-07 12:37:43,866826
0,0,-1,2,5,1,1,1,2021-08-07 12:37:43,866826
-3,0,-1,0,-2,-4,-3,-1,2021-08-07 12:37:43,866826
2,0,0,1,0,2,1,1,2021-08-07 12:37:43,866826
0,1,3,2,5,2,1,0,2021-08-07 12:37:43,881826
-2,0,-3,-5,-10,-6,-4,-2,2021-08-07 12:37:43,897827
-1,-1,-3,-6,-3,0,0,-1,2021-08-07 12:37:43,897827
0,0,2,10,20,12,2,1,2021-08-07 12:37:43,897827
-3,-1,-3,-4,-6,-5,-2,-2,2021-08-07 12:37:43,897827
0,0,0,1,-1,-2,-2,0,2021-08-07 12:37:43,897827
-1,-1,-1,1,1,0,-1,0,2021-08-07 12:37:43,913826
-2,-4,-6,-8,-13,-7,-6,-2,2021-08-07 12:37:43,913826
2,4,5,5,7,7,3,2,2021-08-07 12:37:43,913826
-2,-2,0,-1,-3,-3,-2,-1,2021-08-07 12:37:43,913826
-1,-2,-2,-2,-2,-1,0,-2,2021-08-07 12:37:43,929826
0,0,0,-3,-2,0,-2,-1,2021-08-07 12:37:43,944826
-3,-3,-3,-1,-2,-2,-2,-1,2021-08-07 12:37:43,944826
-1,0,0,0,0,1,0,1,2021-08-07 12:37:43,944826
-1,-1,1,-3,-5,-3,-1,-2,2021-08-07 12:37:43,944826
-1,-1,-2,-7,-7,-4,0,-2,2021-08-07 12:37:43,944826
-2,-3,0,0,-2,-5,-2,-3,2021-08-07 12:37:43,944826
2,2,2,5,13,9,4,2,2021-08-07 12:37:43,944826
0,0,-1,3,6,6,0,0,2021-08-07 12:37:43,976827
-3,0,-3,-1,-7,-4,-2,-3,2021-08-07 12:37:43,992826
2,3,2,-1,4,8,5,2,2021-08-07 12:37:43,992826
-4,-3,0,-2,-3,-4,-2,-3,2021-08-07 12:37:44,008827
1,-1,-1,-2,-5,-3,-2,-2,2021-08-07 12:37:44,024825
-1,-1,-1,-2,-4,-4,-2,-1,2021-08-07 12:37:44,024825
-3,-4,-2,-6,-8,-6,-3,-4,2021-08-07 12:37:44,024825
-2,-1,-1,-4,-6,-5,-3,-2,2021-08-07 12:37:44,024825
1,2,3,5,8,3,3,2,2021-08-07 12:37:44,024825
0,-1,1,2,2,1,1,0,2021-08-07 12:37:44,024825
-2,-3,-3,1,1,1,-2,-1,2021-08-07 12:37:44,024825
-1,0,-2,-1,-4,-3,-2,-2,2021-08-07 12:37:44,024825
0,2,2,6,11,6,2,1,2021-08-07 12:37:44,040826
-1,-2,-1,-8,-1,-2,-1,1,2021-08-07 12:37:44,040826
-1,-3,-4,-7,-9,-6,-3,0,2021-08-07 12:37:44,040826
0,-3,-1,-3,-4,-2,-2,-1,2021-08-07 12:37:44,040826
0,-1,0,-3,-4,0,-1,-1,2021-08-07 12:37:44,055827
1,0,0,9,16,9,3,1,2021-08-07 12:37:44,071826
0,1,0,0,-1,1,0,1,2021-08-07 12:37:44,071826
-1,0,-1,1,5,3,-1,-2,2021-08-07 12:37:44,071826
-2,-4,-2,0,-6,-6,-4,-3,2021-08-07 12:37:44,071826
3,3,2,-2,-2,2,3,2,2021-08-07 12:37:44,071826
0,0,0,0,0,-2,-3,-2,2021-08-07 12:37:44,071826
0,0,0,2,3,2,2,0,2021-08-07 12:37:44,071826
-2,-3,-3,-5,-4,-3,-3,-1,2021-08-07 12:37:44,093829
0,-1,1,-1,-3,-3,-1,-1,2021-08-07 12:37:44,093829
-2,0,-2,-1,-3,-4,-2,-1,2021-08-07 12:37:44,093829
1,0,-2,-1,0,3,1,1,2021-08-07 12:37:44,093829
-2,-1,-2,0,4,3,2,1,2021-08-07 12:37:44,119825
-1,-1,-2,-3,-3,-3,-2,-1,2021-08-07 12:37:44,135830
-1,-2,-2,-1,2,2,1,-1,2021-08-07 12:37:44,135830
0,-1,-1,0,0,-2,-1,-1,2021-08-07 12:37:44,151827
-1,-1,-1,0,-2,-1,-1,0,2021-08-07 12:37:44,183825
-2,1,-1,-1,0,-2,-1,-1,2021-08-07 12:37:44,183825
-2,-3,-4,-2,-1,-2,-2,-4,2021-08-07 12:37:44,183825
0,1,0,-1,-5,-4,-3,-1,2021-08-07 12:37:44,183825
2,4,5,3,5,8,3,3,2021-08-07 12:37:44,183825
1,0,0,2,7,3,0,1,2021-08-07 12:37:44,183825
-1,-1,-3,-1,2,1,0,-1,2021-08-07 12:37:44,184828
-1,-2,-2,-1,-3,-2,-2,0,2021-08-07 12:37:44,184828
-1,-2,-3,-2,-7,-4,-3,-3,2021-08-07 12:37:44,184828
-3,-3,-3,-5,-8,-7,-5,-4,2021-08-07 12:37:44,184828
1,2,1,-3,2,4,1,2,2021-08-07 12:37:44,184828
-1,1,1,2,6,1,1,-2,2021-08-07 12:37:44,184828
0,0,-2,-3,-4,-5,-1,-1,2021-08-07 12:37:44,198826
-1,-2,-1,-2,-4,-3,-2,-1,2021-08-07 12:37:44,198826
-2,-2,-2,-1,3,-1,-1,-1,2021-08-07 12:37:44,198826
-1,-1,-2,0,1,2,2,-1,2021-08-07 12:37:44,198826
-5,-3,-3,0,1,-2,-2,-1,2021-08-07 12:37:44,214825
2,2,2,-2,-5,-2,1,0,2021-08-07 12:37:44,214825
-1,1,1,-2,-6,-4,-2,-1,2021-08-07 12:37:44,214825
-1,-2,-1,4,10,6,2,-1,2021-08-07 12:37:44,214825
0,1,0,1,1,-1,-1,0,2021-08-07 12:37:44,246825
1,1,0,0,0,1,0,1,2021-08-07 12:37:44,246825
-2,-1,-2,-5,-12,-6,-3,-1,2021-08-07 12:37:44,246825
-1,1,1,3,2,1,-1,1,2021-08-07 12:37:44,246825
0,0,-2,0,8,6,3,-1,2021-08-07 12:37:44,246825
-1,1,0,4,7,3,-2,0,2021-08-07 12:37:44,246825
-3,-3,-4,-3,-6,-6,-2,-2,2021-08-07 12:37:44,247828
-1,0,-1,-5,-5,-1,0,-1,2021-08-07 12:37:44,247828
0,0,1,0,2,-1,0,-1,2021-08-07 12:37:44,277825
-1,-1,-1,-1,0,-4,-1,-2,2021-08-07 12:37:44,277825
1,1,-1,4,9,9,4,1,2021-08-07 12:37:44,277825
-3,-2,-3,-7,-10,-9,-5,-2,2021-08-07 12:37:44,277825
-1,-1,0,-6,-7,-2,-2,-1,2021-08-07 12:37:44,293827
2,1,0,1,1,1,2,2,2021-08-07 12:37:44,309828
1,-3,1,0,-4,-4,-2,-3,2021-08-07 12:37:44,309828
1,3,1,-1,0,1,2,2,2021-08-07 12:37:44,309828
-2,0,-2,0,-3,-3,-3,-2,2021-08-07 12:37:44,309828
-5,-3,-4,-2,-4,-1,-3,-3,2021-08-07 12:37:44,309828
0,-3,-2,-1,-1,-2,-2,-1,2021-08-07 12:37:44,309828
0,-3,-2,-4,-4,-2,-2,-2,2021-08-07 12:37:44,310826
2,2,5,2,2,2,1,3,2021-08-07 12:37:44,341826
-2,-1,-2,-1,-2,-2,1,-2,2021-08-07 12:37:44,341826
-2,0,0,1,4,3,0,1,2021-08-07 12:37:44,341826
-1,-1,-3,-3,-2,-3,-1,0,2021-08-07 12:37:44,341826
0,-1,-3,-3,-5,-2,-2,-2,2021-08-07 12:37:44,356827
0,-1,-1,-2,-3,-4,-1,-3,2021-08-07 12:37:44,356827
0,1,-2,-5,-5,-3,-2,-1,2021-08-07 12:37:44,356827
-1,-1,0,2,2,2,0,-2,2021-08-07 12:37:44,356827
-1,1,1,1,-3,-2,-2,-1,2021-08-07 12:37:44,371826
-1,-3,0,0,-2,-1,-2,-1,2021-08-07 12:37:44,387829
-1,-2,-2,-10,-18,-13,-7,-3,2021-08-07 12:37:44,387829
1,1,3,7,17,12,6,2,2021-08-07 12:37:44,387829
1,2,1,3,9,7,5,3,2021-08-07 12:37:44,403826
0,-2,-2,1,3,2,0,-1,2021-08-07 12:37:44,403826
-1,-1,-2,1,-2,-2,-1,-1,2021-08-07 12:37:44,403826
-3,-4,-3,-6,-11,-7,-5,-4,2021-08-07 12:37:44,403826
-1,0,-3,-1,-3,-2,-1,-3,2021-08-07 12:37:44,419827
0,0,1,1,2,1,0,-2,2021-08-07 12:37:44,435826
-1,-1,0,1,1,2,0,-1,2021-08-07 12:37:44,435826
-1,1,-1,-3,-4,-3,-3,0,2021-08-07 12:37:44,435826
-2,-3,-3,-4,-4,-4,-3,-1,2021-08-07 12:37:44,435826
1,0,0,-1,-2,3,2,1,2021-08-07 12:37:44,435826
0,2,2,5,7,4,1,0,2021-08-07 12:37:44,436828
0,-1,-1,0,-3,-3,-1,0,2021-08-07 12:37:44,436828
-1,-3,-1,-1,-4,-3,-2,-1,2021-08-07 12:37:44,451827
0,-1,-1,-1,-2,-1,0,0,2021-08-07 12:37:44,467827
1,-1,0,1,6,2,0,0,2021-08-07 12:37:44,467827
1,1,1,-3,-2,2,0,2,2021-08-07 12:37:44,483828
1,-2,-2,-2,-7,-4,-3,-1,2021-08-07 12:37:44,483828
-2,0,-1,-2,-1,-1,-2,-1,2021-08-07 12:37:44,483828
-1,0,-1,2,5,5,1,0,2021-08-07 12:37:44,483828
-2,-1,-5,-7,-9,-8,-5,-2,2021-08-07 12:37:44,483828
1,2,3,6,8,5,2,0,2021-08-07 12:37:44,499827
0,0,0,0,0,1,-2,1,2021-08-07 12:37:44,499827
-2,-3,-3,-2,2,0,0,0,2021-08-07 12:37:44,499827
-1,-1,0,-1,-4,-4,0,-1,2021-08-07 12:37:44,499827
0,0,-1,1,3,2,0,1,2021-08-07 12:37:44,515827
-2,-2,0,0,-2,-2,-2,-1,2021-08-07 12:37:44,515827
-1,0,-3,-1,-3,-2,1,0,2021-08-07 12:37:44,515827
0,2,2,2,6,3,3,2,2021-08-07 12:37:44,515827
0,0,-2,-2,-1,-2,2,-2,2021-08-07 12:37:44,546863
0,1,-1,0,-1,0,-1,-1,2021-08-07 12:37:44,562865
-1,-1,0,-3,-6,-5,-2,-1,2021-08-07 12:37:44,562865
1,-2,-3,1,0,1,-1,-1,2021-08-07 12:37:44,562865
1,-1,-2,-1,1,2,2,1,2021-08-07 12:37:44,562865
-1,-1,-4,-3,-5,-3,-2,-1,2021-08-07 12:37:44,562865
-1,-2,-1,0,2,3,-1,-1,2021-08-07 12:37:44,563865
-2,-1,-1,3,3,3,0,-4,2021-08-07 12:37:44,563865
-6,-3,0,0,-4,-2,-4,-3,2021-08-07 12:37:44,578864
-5,-3,-1,-3,-3,-3,-3,-2,2021-08-07 12:37:44,578864
2,4,5,3,2,2,0,1,2021-08-07 12:37:44,592865
-1,0,-1,-2,-2,-1,0,0,2021-08-07 12:37:44,592865
0,-2,-2,-5,-9,-8,-3,-2,2021-08-07 12:37:44,592865
1,-1,-2,-2,3,4,3,0,2021-08-07 12:37:44,593867
2,2,2,8,8,2,2,0,2021-08-07 12:37:44,626868
1,2,-1,1,2,2,1,2,2021-08-07 12:37:44,626868
-1,-3,-1,-4,-5,-3,-2,1,2021-08-07 12:37:44,626868
-2,-2,-4,-8,-12,-8,-4,-1,2021-08-07 12:37:44,626868
-1,-1,0,-1,5,5,1,0,2021-08-07 12:37:44,642867
-2,-4,-4,-3,-6,-6,-3,-4,2021-08-07 12:37:44,658865
2,3,2,5,12,9,5,2,2021-08-07 12:37:44,658865
-1,-1,0,-2,-6,-5,-3,-2,2021-08-07 12:37:44,658865
-2,-2,-3,-9,-12,-6,-4,-2,2021-08-07 12:37:44,658865
-2,-3,-2,4,8,5,1,-1,2021-08-07 12:37:44,658865
-2,-3,-3,-1,-2,-3,-2,-2,2021-08-07 12:37:44,658865
4,8,6,3,5,3,4,4,2021-08-07 12:37:44,659866
-2,-3,-1,1,-1,-2,-2,-4,2021-08-07 12:37:44,659866
-1,-2,-4,-2,-5,-4,-3,-2,2021-08-07 12:37:44,659866
-2,-2,-4,-5,-4,0,0,0,2021-08-07 12:37:44,674864
-1,0,2,6,7,4,0,0,2021-08-07 12:37:44,690864
-4,-3,-5,-6,-5,-4,-4,-1,2021-08-07 12:37:44,690864
-2,-1,1,3,4,1,1,1,2021-08-07 12:37:44,690864
0,0,-1,-6,-14,-9,-4,-1,2021-08-07 12:37:44,690864
1,1,1,2,4,4,3,2,2021-08-07 12:37:44,690864
-1,-1,-2,-1,3,1,0,-2,2021-08-07 12:37:44,690864
-3,-4,-3,-4,-3,-2,-3,-4,2021-08-07 12:37:44,690864
0,1,-1,-1,-3,-4,-2,-3,2021-08-07 12:37:44,722864
-2,-1,0,2,5,5,2,0,2021-08-07 12:37:44,738866
-2,-2,-2,-3,-4,-5,-1,-1,2021-08-07 12:37:44,754864
0,2,2,4,6,3,0,0,2021-08-07 12:37:44,755089
-1,0,-1,-1,-1,-1,-1,-1,2021-08-07 12:37:44,755089
-1,-1,-1,2,4,2,1,1,2021-08-07 12:37:44,755089
0,0,0,1,2,1,2,-1,2021-08-07 12:37:44,755089
-1,-2,-1,-6,-9,-8,-4,-2,2021-08-07 12:37:44,755089
-1,1,-1,-2,-1,1,1,0,2021-08-07 12:37:44,755089
-2,-3,-3,1,3,-1,-2,-3,2021-08-07 12:37:44,755866
0,2,0,0,-3,-1,-2,1,2021-08-07 12:37:44,755866
-1,-2,1,-3,-5,-3,0,-1,2021-08-07 12:37:44,755866
0,-1,0,4,10,6,1,0,2021-08-07 12:37:44,786377
0,1,1,1,-1,-1,0,-1,2021-08-07 12:37:44,802378
0,-1,-1,-2,-5,-3,-2,-2,2021-08-07 12:37:44,818378
1,2,1,0,2,3,2,0,2021-08-07 12:37:44,818378
-1,-2,-2,0,1,0,-2,0,2021-08-07 12:37:44,818378
-2,-3,-1,-5,-7,-6,-2,-1,2021-08-07 12:37:44,818378
0,-1,0,-3,-2,-2,-2,-1,2021-08-07 12:37:44,818378
-1,-2,-4,-2,-4,-3,-2,-1,2021-08-07 12:37:44,818378
-1,1,2,5,5,4,2,1,2021-08-07 12:37:44,818378
1,2,-1,-5,-3,-2,-1,0,2021-08-07 12:37:44,819380
2,2,3,5,11,9,4,1,2021-08-07 12:37:44,819380
0,-3,0,2,1,0,-1,-1,2021-08-07 12:37:44,819380
-1,-1,-2,0,-1,-2,-1,-1,2021-08-07 12:37:44,834377
-2,-4,-4,-3,-6,-5,-3,-2,2021-08-07 12:37:44,834377
-3,-2,-3,-4,-6,-3,-2,-2,2021-08-07 12:37:44,834377
0,0,1,-3,-7,-2,0,-1,2021-08-07 12:37:44,834377
-1,-1,-1,-2,-4,-2,0,-3,2021-08-07 12:37:44,850379
-2,-2,0,4,5,4,0,-1,2021-08-07 12:37:44,850379
1,0,-1,2,5,2,2,0,2021-08-07 12:37:44,866376
0,2,1,1,8,2,2,1,2021-08-07 12:37:44,882379
-2,0,-1,-3,-5,-5,-3,-1,2021-08-07 12:37:44,882379
-3,-3,-6,-6,-8,-5,-4,-4,2021-08-07 12:37:44,882379
0,-1,-1,-3,-4,-4,-2,-1,2021-08-07 12:37:44,882379
1,2,3,1,4,2,1,-1,2021-08-07 12:37:44,882379
0,1,0,0,4,3,1,1,2021-08-07 12:37:44,898377
-4,-3,-2,-3,0,-2,-2,-3,2021-08-07 12:37:44,914376
1,0,1,1,1,-1,1,0,2021-08-07 12:37:44,929379
0,-2,-2,-3,-7,-4,-3,-1,2021-08-07 12:37:44,929379
1,0,0,-2,-1,0,0,0,2021-08-07 12:37:44,929379
1,0,0,3,8,4,2,0,2021-08-07 12:37:44,929379
-2,-2,-3,-4,-6,-5,-3,-2,2021-08-07 12:37:44,929379
1,1,-1,0,0,1,1,-1,2021-08-07 12:37:44,929379
0,-2,0,-2,-4,-4,-3,-3,2021-08-07 12:37:44,929379
1,1,0,1,-1,1,1,0,2021-08-07 12:37:44,930378
-1,-1,-3,-4,-6,-6,-6,-3,2021-08-07 12:37:44,930378
0,1,-1,-5,-4,-1,-1,1,2021-08-07 12:37:44,930378
0,-2,-2,2,4,2,1,0,2021-08-07 12:37:44,961378
1,1,1,4,3,2,1,0,2021-08-07 12:37:44,961378
-2,-2,-1,2,5,3,0,-2,2021-08-07 12:37:44,961378
-2,-3,-4,-3,-6,-7,-4,-1,2021-08-07 12:37:44,961378
-2,-1,-1,1,5,3,1,0,2021-08-07 12:37:44,977377
-1,0,-1,-5,-7,-5,-2,0,2021-08-07 12:37:44,993378
0,0,1,-1,-1,1,-1,0,2021-08-07 12:37:44,993378
-2,-2,0,-1,-3,-3,-4,-1,2021-08-07 12:37:44,993378
0,-2,-1,-2,-5,-3,-3,-1,2021-08-07 12:37:44,993378
-1,-1,-3,-2,-2,-1,-1,2,2021-08-07 12:37:44,993378
-1,-1,-1,0,2,0,0,-1,2021-08-07 12:37:44,994378
0,1,0,3,5,4,1,1,2021-08-07 12:37:44,994378
-2,-1,0,-1,-5,-3,-3,-2,2021-08-07 12:37:45,024376
2,-1,-1,-1,-1,-2,-1,-1,2021-08-07 12:37:45,024376
-6,-8,-8,-5,-9,-8,-5,-6,2021-08-07 12:37:45,024376
1,1,1,-1,1,1,1,-1,2021-08-07 12:37:45,024376
10,14,13,10,9,10,9,8,2021-08-07 12:37:45,040378
0,0,1,0,-2,-2,-1,0,2021-08-07 12:37:45,055377
-2,-2,-2,3,1,-2,-2,-1,2021-08-07 12:37:45,055377
-6,-6,-5,-1,0,-3,-2,-4,2021-08-07 12:37:45,055377
-3,-5,-6,-4,0,0,-2,-2,2021-08-07 12:37:45,055377
2,3,4,0,4,3,2,3,2021-08-07 12:37:45,055377
2,1,2,-4,-2,2,2,2,2021-08-07 12:37:45,055377
-3,-4,-2,-3,-10,-8,-4,-3,2021-08-07 12:37:45,056380
0,-2,-2,1,3,1,0,-2,2021-08-07 12:37:45,087379
-1,-1,-1,0,-3,0,0,-1,2021-08-07 12:37:45,103378
1,-1,0,1,1,1,0,2,2021-08-07 12:37:45,119379
0,-1,2,-2,0,0,0,1,2021-08-07 12:37:45,135379
-4,-3,-3,-3,-4,-3,-3,-3,2021-08-07 12:37:45,151378
0,1,0,-1,-1,0,1,-1,2021-08-07 12:37:45,151378
-1,-1,-2,-2,-2,-1,-1,0,2021-08-07 12:37:45,151378
1,3,2,0,-2,0,0,1,2021-08-07 12:37:45,151378
-2,-2,-1,-2,0,-1,0,0,2021-08-07 12:37:45,152377
-2,-1,0,3,6,4,0,-1,2021-08-07 12:37:45,152377
-3,-1,-2,0,-1,-2,-1,-2,2021-08-07 12:37:45,152377
1,1,-1,-1,1,2,1,0,2021-08-07 12:37:45,152377
-4,-6,-4,-5,-9,-8,-3,-5,2021-08-07 12:37:45,152377
2,3,4,3,2,3,2,3,2021-08-07 12:37:45,152377
-1,2,2,1,3,2,3,1,2021-08-07 12:37:45,152377
-2,-2,-2,-2,-2,-3,-2,-2,2021-08-07 12:37:45,152377
0,1,-1,-3,-3,-2,-2,1,2021-08-07 12:37:45,153378
0,-2,-2,1,7,4,2,0,2021-08-07 12:37:45,153378
1,3,0,-1,-1,0,-1,-1,2021-08-07 12:37:45,153378
0,1,2,0,2,4,3,2,2021-08-07 12:37:45,153378
-1,-1,-1,-4,-4,-3,-3,-2,2021-08-07 12:37:45,198377
-2,-2,-2,-1,-4,-4,-3,-2,2021-08-07 12:37:45,198377
2,0,-1,1,1,-2,1,0,2021-08-07 12:37:45,198377
0,1,-1,0,2,3,2,-1,2021-08-07 12:37:45,198377
0,0,0,-2,0,-1,1,-2,2021-08-07 12:37:45,198377
-3,-3,-3,-1,-2,-2,-2,-1,2021-08-07 12:37:45,198377
0,-1,0,-1,-5,-4,0,0,2021-08-07 12:37:45,198377
-1,-1,-2,-2,-3,-3,-3,-2,2021-08-07 12:37:45,198377
1,1,0,2,0,2,0,2,2021-08-07 12:37:45,230377
-2,-4,-3,-3,-5,-2,-2,-2,2021-08-07 12:37:45,230377
0,4,5,4,4,5,2,1,2021-08-07 12:37:45,230377
1,-1,-2,1,3,3,1,0,2021-08-07 12:37:45,230377
-2,1,2,7,11,8,0,0,2021-08-07 12:37:45,230377
1,0,0,-2,-2,-2,0,0,2021-08-07 12:37:45,230377
-1,-2,-4,0,0,0,1,-2,2021-08-07 12:37:45,231379
-2,-2,-2,-1,-4,-3,-2,-2,2021-08-07 12:37:45,231379
-2,-3,-3,-1,-5,-5,-2,-2,2021-08-07 12:37:45,262410
-4,-2,-4,-10,-14,-10,-6,-4,2021-08-07 12:37:45,278410
2,2,3,7,10,8,4,2,2021-08-07 12:37:45,294411
1,2,2,4,7,4,0,2,2021-08-07 12:37:45,310410
-2,-2,-2,-5,-3,-6,-3,-3,2021-08-07 12:37:45,326413
-2,1,-1,0,-1,-2,-2,-1,2021-08-07 12:37:45,326413
0,-1,1,-4,-5,-4,0,-1,2021-08-07 12:37:45,326413
0,-1,-4,-2,-3,-1,-1,-1,2021-08-07 12:37:45,326413
2,1,-1,1,3,3,2,3,2021-08-07 12:37:45,326413
-1,-3,-3,-3,-3,-2,-2,-1,2021-08-07 12:37:45,342411
-4,-4,-2,-4,-2,-3,-5,-3,2021-08-07 12:37:45,358409
-3,-1,0,3,-3,-1,-1,-1,2021-08-07 12:37:45,358409
1,3,4,4,11,7,2,1,2021-08-07 12:37:45,358409
0,2,0,1,2,0,0,-2,2021-08-07 12:37:45,358409
-1,-2,-4,-3,-2,-3,-2,0,2021-08-07 12:37:45,358409
-2,-5,-1,-2,-5,-7,-2,-1,2021-08-07 12:37:45,358409
0,-2,-1,-4,-8,-4,-1,-1,2021-08-07 12:37:45,359412
5,5,3,0,5,3,4,4,2021-08-07 12:37:45,359412
-2,-4,-4,-3,-3,1,-5,-1,2021-08-07 12:37:45,359412
-2,-1,-3,-1,1,0,0,-1,2021-08-07 12:37:45,359412
1,2,0,2,-3,-2,-2,0,2021-08-07 12:37:45,359412
-4,-5,-4,0,-1,-3,-1,-2,2021-08-07 12:37:45,359412
0,1,-1,-2,-1,-1,0,-1,2021-08-07 12:37:45,359412
-1,-1,2,2,0,-1,-1,-1,2021-08-07 12:37:45,360411
-1,-1,0,1,6,2,1,1,2021-08-07 12:37:45,389413
-2,1,0,-3,-8,-4,-3,0,2021-08-07 12:37:45,389413
-1,-1,0,3,7,4,0,-1,2021-08-07 12:37:45,389413
-4,-6,-4,0,-1,-6,-3,-4,2021-08-07 12:37:45,405411
-1,0,-4,-13,-15,-7,-2,0,2021-08-07 12:37:45,405411
2,1,5,13,21,14,6,2,2021-08-07 12:37:45,405411
-1,-1,-2,-4,-6,-4,-3,0,2021-08-07 12:37:45,405411
0,1,0,3,6,4,1,0,2021-08-07 12:37:45,405411
-1,-2,-1,-2,-6,-6,-3,-3,2021-08-07 12:37:45,421411
-2,-2,-3,-5,-7,-6,-2,-3,2021-08-07 12:37:45,437411
-2,0,-2,-2,-2,0,0,-2,2021-08-07 12:37:45,437411
0,0,0,-3,-3,-3,-2,0,2021-08-07 12:37:45,437411
-2,-1,-2,-1,-4,-3,-2,-1,2021-08-07 12:37:45,437411
-1,-1,-3,-2,-5,-1,-1,0,2021-08-07 12:37:45,437411
2,3,4,8,10,6,3,3,2021-08-07 12:37:45,437411
-1,-2,-4,-5,-3,-1,-2,-1,2021-08-07 12:37:45,438412
-1,-1,-1,0,2,3,1,0,2021-08-07 12:37:45,468927
2,5,4,5,4,2,2,2,2021-08-07 12:37:45,484925
-4,-3,-2,-5,-9,-9,-4,-4,2021-08-07 12:37:45,500927
-1,2,3,-2,-3,0,0,0,2021-08-07 12:37:45,500927
-1,-3,-3,2,5,2,2,-2,2021-08-07 12:37:45,500927
1,0,0,0,3,2,1,1,2021-08-07 12:37:45,503926
-1,-2,-1,-3,-7,-5,-4,-2,2021-08-07 12:37:45,503926
1,-2,-1,-4,-5,-3,-2,0,2021-08-07 12:37:45,503926
0,0,2,6,8,7,2,1,2021-08-07 12:37:45,503926
-5,-4,-5,-7,-9,-6,-5,-4,2021-08-07 12:37:45,516925
1,1,1,6,9,5,3,0,2021-08-07 12:37:45,531928
2,2,0,-1,2,2,0,1,2021-08-07 12:37:45,531928
-3,0,-1,-1,-4,-2,-2,-2,2021-08-07 12:37:45,531928
-1,-3,-3,-3,-3,-3,-4,0,2021-08-07 12:37:45,531928
-2,0,-3,-5,-3,-2,-1,0,2021-08-07 12:37:45,531928
-1,-2,-2,-2,-6,-3,-1,-2,2021-08-07 12:37:45,531928
-2,-4,-4,-10,-12,-10,-4,-2,2021-08-07 12:37:45,531928
2,3,6,6,8,8,4,3,2021-08-07 12:37:45,532928
1,2,2,1,5,5,2,0,2021-08-07 12:37:45,547927
0,0,1,3,8,6,1,1,2021-08-07 12:37:45,563927
-1,0,1,1,0,-1,0,0,2021-08-07 12:37:45,578927
-4,-4,-4,-6,-8,-5,-6,-4,2021-08-07 12:37:45,594928
-2,-3,-3,-5,-9,-7,-3,-3,2021-08-07 12:37:45,594928
-1,1,0,0,1,0,-1,0,2021-08-07 12:37:45,594928
0,-1,0,1,0,0,-1,0,2021-08-07 12:37:45,594928
-2,0,-1,-2,-3,-4,-1,0,2021-08-07 12:37:45,594928
-1,0,0,6,6,4,2,1,2021-08-07 12:37:45,594928
-1,-1,-1,-1,-1,-1,0,-1,2021-08-07 12:37:45,595928
-1,1,0,3,3,2,1,0,2021-08-07 12:37:45,595928
0,-3,0,0,-2,-4,-1,-1,2021-08-07 12:37:45,595928
-3,-2,-1,-3,-3,-4,-4,-3,2021-08-07 12:37:45,595928
0,-1,-2,0,-1,0,-1,1,2021-08-07 12:37:45,595928
0,-1,0,2,4,1,0,0,2021-08-07 12:37:45,626928
0,1,2,0,2,2,2,0,2021-08-07 12:37:45,642927
1,-2,-2,-3,-6,-6,-4,-1,2021-08-07 12:37:45,658927
-1,1,1,-2,-3,0,0,0,2021-08-07 12:37:45,674927
-4,-2,-1,1,4,2,-1,-2,2021-08-07 12:37:45,690928
0,2,2,1,2,1,1,-1,2021-08-07 12:37:45,690928
-1,-2,-2,-2,-4,-4,-1,0,2021-08-07 12:37:45,690928
-2,-2,-2,-4,-6,-7,-3,-2,2021-08-07 12:37:45,690928
2,1,2,2,5,3,1,2,2021-08-07 12:37:45,690928
-1,-3,-4,0,-2,-2,-3,-3,2021-08-07 12:37:45,690928
0,-2,-2,-5,-7,-2,-2,-2,2021-08-07 12:37:45,690928
-1,0,1,7,10,4,2,-1,2021-08-07 12:37:45,691927
0,0,-1,-3,-2,1,0,1,2021-08-07 12:37:45,691927
2,1,1,1,-4,-4,1,0,2021-08-07 12:37:45,691927
-1,0,-2,-2,0,-1,-2,0,2021-08-07 12:37:45,691927
-1,-1,-3,-6,-7,-4,-1,-2,2021-08-07 12:37:45,691927
1,1,1,3,3,1,2,0,2021-08-07 12:37:45,691927
-3,-3,-4,-1,0,-1,-3,0,2021-08-07 12:37:45,691927
-2,-1,-1,-1,-1,-2,-2,-1,2021-08-07 12:37:45,691927
-2,-1,2,-2,-6,-3,-3,0,2021-08-07 12:37:45,691927
0,0,0,3,8,5,2,0,2021-08-07 12:37:45,706927
0,0,1,-2,-1,-1,2,2,2021-08-07 12:37:45,706927
-1,-2,-1,1,-1,-1,1,-3,2021-08-07 12:37:45,722929
0,-1,1,0,4,1,0,0,2021-08-07 12:37:45,722929
1,0,-1,-2,-11,-7,-4,-2,2021-08-07 12:37:45,738927
-1,-1,-1,0,0,1,0,-2,2021-08-07 12:37:45,738927
1,0,1,3,4,3,0,1,2021-08-07 12:37:45,738927
1,-2,-1,2,3,1,0,1,2021-08-07 12:37:45,738927
-2,-1,-4,-4,-1,-1,-1,-2,2021-08-07 12:37:45,770927
-1,1,0,2,2,-1,-1,-1,2021-08-07 12:37:45,786927
-2,-1,0,-3,-6,-3,-1,-1,2021-08-07 12:37:45,801928
0,0,-1,0,1,1,1,0,2021-08-07 12:37:45,817927
-2,-1,-2,1,3,2,1,-3,2021-08-07 12:37:45,832956
-2,-4,-3,-1,-4,-3,-3,-3,2021-08-07 12:37:45,832956
4,4,1,0,2,1,3,2,2021-08-07 12:37:45,832956
-1,-2,-1,-1,-2,-2,-2,-1,2021-08-07 12:37:45,832956
-1,-2,-1,-2,-6,-3,-2,-2,2021-08-07 12:37:45,832956
-1,-1,-3,-5,-6,-4,-2,-2,2021-08-07 12:37:45,832956
-3,-3,-1,2,0,-1,-3,-1,2021-08-07 12:37:45,832956
-1,0,-2,1,2,0,0,-3,2021-08-07 12:37:45,833958
2,4,3,1,5,4,2,3,2021-08-07 12:37:45,833958
-2,-4,-4,-2,-1,-2,-1,-1,2021-08-07 12:37:45,833958
0,0,-1,-3,-1,-1,0,-2,2021-08-07 12:37:45,833958
1,0,-1,2,2,0,1,-1,2021-08-07 12:37:45,833958
-2,-3,-2,-2,-5,-5,-4,-2,2021-08-07 12:37:45,848958
1,0,-1,-3,0,0,0,-1,2021-08-07 12:37:45,864957
-1,1,0,0,2,1,-1,1,2021-08-07 12:37:45,864957
1,-1,1,2,2,2,1,-1,2021-08-07 12:37:45,864957
1,0,1,1,1,1,-1,0,2021-08-07 12:37:45,864957
-1,-1,-1,-1,-1,-2,-4,-1,2021-08-07 12:37:45,864957
1,-2,-2,-2,-3,-2,-2,0,2021-08-07 12:37:45,865957
-3,-2,-5,-5,-3,-3,-4,-1,2021-08-07 12:37:45,865957
-1,-1,1,-2,-4,-4,-2,-1,2021-08-07 12:37:45,880956
-2,0,1,-4,-7,-3,-3,-2,2021-08-07 12:37:45,895956
1,2,3,7,10,9,4,2,2021-08-07 12:37:45,911956
-2,-1,0,1,0,-1,-3,-2,2021-08-07 12:37:45,911956
-1,0,-2,-5,-7,-5,-1,-1,2021-08-07 12:37:45,911956
-1,0,-1,2,6,4,2,-1,2021-08-07 12:37:45,911956
0,-1,-3,-4,-4,-4,-2,-2,2021-08-07 12:37:45,911956
-1,-2,-1,-2,-2,-2,-1,-1,2021-08-07 12:37:45,911956
-1,-1,-2,2,1,0,-2,-1,2021-08-07 12:37:45,912958
0,0,-1,-2,-6,-5,-3,-2,2021-08-07 12:37:45,912958
-1,-2,-2,-2,-1,0,-1,0,2021-08-07 12:37:45,912958
2,1,4,2,4,2,2,2,2021-08-07 12:37:45,912958
0,-1,-1,-4,-5,-4,-2,-2,2021-08-07 12:37:45,941957
0,-1,-1,-2,4,3,1,1,2021-08-07 12:37:45,941957
-4,-4,-3,-3,-3,-2,-3,-4,2021-08-07 12:37:45,942957
0,-1,0,-4,-4,0,-1,-2,2021-08-07 12:37:45,942957
-1,-1,0,-1,0,2,-1,0,2021-08-07 12:37:45,974956
4,5,4,7,11,9,5,4,2021-08-07 12:37:45,989956
-4,-2,-2,-3,-3,-5,-3,-4,2021-08-07 12:37:45,989956
-2,2,0,-2,-3,-3,-2,-2,2021-08-07 12:37:45,989956
-1,-2,-1,-1,-4,-2,0,-2,2021-08-07 12:37:45,989956
-1,-2,-3,0,0,1,-1,-3,2021-08-07 12:37:45,989956
1,1,1,-1,-2,1,1,3,2021-08-07 12:37:45,989956
-1,-1,-3,-1,-2,-2,1,-1,2021-08-07 12:37:45,990958
-1,-3,-4,-2,-1,-1,-1,-1,2021-08-07 12:37:46,005957
-1,-1,0,0,-2,-3,-2,-2,2021-08-07 12:37:46,005957
-2,0,-1,0,1,1,0,-2,2021-08-07 12:37:46,005957
0,-1,-1,-1,2,1,-1,0,2021-08-07 12:37:46,005957
0,0,0,3,3,1,0,1,2021-08-07 12:37:46,021957
-2,-4,-3,-3,-6,-4,-1,0,2021-08-07 12:37:46,038229
-2,-1,-2,-3,-4,-3,-1,0,2021-08-07 12:37:46,038229
-2,-2,-1,0,3,0,-1,0,2021-08-07 12:37:46,038229
0,0,0,1,-3,-3,-1,0,2021-08-07 12:37:46,038229
-2,-2,-4,-7,0,0,-1,0,2021-08-07 12:37:46,038229
1,2,2,1,5,5,3,0,2021-08-07 12:37:46,038229
-1,1,2,5,8,2,1,0,2021-08-07 12:37:46,038959
-1,0,-1,-2,-1,0,0,-1,2021-08-07 12:37:46,069472
-1,-2,0,-2,-7,-6,-5,-2,2021-08-07 12:37:46,069472
-1,-1,-1,-6,-12,-8,-4,-2,2021-08-07 12:37:46,069472
-1,-2,-3,-14,-20,-10,-4,-2,2021-08-07 12:37:46,069472
6,4,8,18,35,26,15,7,2021-08-07 12:37:46,084471
-6,-2,-1,3,1,0,-3,-5,2021-08-07 12:37:46,084471
-5,-5,-3,-2,2,-3,-4,-4,2021-08-07 12:37:46,084471
-1,-2,-2,0,-3,-3,-5,-2,2021-08-07 12:37:46,084471
-2,0,-3,-8,-16,-11,-6,-3,2021-08-07 12:37:46,115474
1,2,1,-2,0,3,2,0,2021-08-07 12:37:46,115474
0,0,2,4,5,0,1,-1,2021-08-07 12:37:46,115474
2,-1,-6,-9,-12,-7,-2,1,2021-08-07 12:37:46,115474
2,1,-1,2,2,1,1,3,2021-08-07 12:37:46,115474
4,1,3,6,11,10,5,4,2021-08-07 12:37:46,115474
-3,-5,-2,-1,-3,-2,-2,0,2021-08-07 12:37:46,115474
-5,-4,0,2,1,-1,-2,-4,2021-08-07 12:37:46,116473
-2,-2,0,-1,3,1,-2,-3,2021-08-07 12:37:46,147473
1,1,2,2,2,0,-2,-2,2021-08-07 12:37:46,163473
1,0,-2,-2,-3,-1,-1,0,2021-08-07 12:37:46,163473
0,0,1,1,3,3,0,-1,2021-08-07 12:37:46,163473
1,3,1,2,3,0,1,2,2021-08-07 12:37:46,163473
-2,-1,-4,-6,-6,-5,-2,0,2021-08-07 12:37:46,163473
0,0,2,0,0,2,0,0,2021-08-07 12:37:46,163473
-1,-2,-2,0,-1,-1,1,0,2021-08-07 12:37:46,163473
0,2,1,-4,-5,-3,-1,-1,2021-08-07 12:37:46,179473
0,0,-1,-2,2,3,1,0,2021-08-07 12:37:46,179473
-2,0,-1,3,5,1,1,1,2021-08-07 12:37:46,179473
0,0,-1,-1,-2,0,1,0,2021-08-07 12:37:46,179473
-4,-6,-4,-6,-8,-6,-3,-3,2021-08-07 12:37:46,211471
0,0,1,4,1,-1,1,1,2021-08-07 12:37:46,211471
1,0,1,0,-1,0,0,0,2021-08-07 12:37:46,211471
2,-1,-1,-1,2,3,0,-1,2021-08-07 12:37:46,211471
-1,-2,-4,-4,-7,-5,-3,-2,2021-08-07 12:37:46,211471
-2,-2,-5,-5,-7,-3,-3,-2,2021-08-07 12:37:46,211471
1,0,0,2,3,2,0,0,2021-08-07 12:37:46,211471
0,0,1,3,3,2,1,1,2021-08-07 12:37:46,212474
-2,-2,-2,-5,-6,-4,-3,-2,2021-08-07 12:37:46,243473
-1,-1,-1,0,0,2,-1,2,2021-08-07 12:37:46,259474
2,0,-1,-3,0,0,0,-1,2021-08-07 12:37:46,259474
-1,1,0,-2,-4,-6,-2,-1,2021-08-07 12:37:46,259474
-2,-2,-2,-2,0,2,-1,-1,2021-08-07 12:37:46,259474
0,0,0,-3,-6,-5,-1,-1,2021-08-07 12:37:46,259474
0,1,0,1,2,3,3,1,2021-08-07 12:37:46,259474
2,4,5,7,14,10,4,3,2021-08-07 12:37:46,259474
-1,0,-1,0,-4,-3,-4,0,2021-08-07 12:37:46,275471
-2,-2,-3,-2,-3,-5,-3,-2,2021-08-07 12:37:46,275471
-3,-2,-3,-3,-4,-3,-2,-2,2021-08-07 12:37:46,275471
-2,-2,-3,-5,-11,-6,-4,-2,2021-08-07 12:37:46,275471
1,0,0,0,4,3,1,1,2021-08-07 12:37:46,307473
1,1,1,2,4,2,3,1,2021-08-07 12:37:46,307473
-2,-2,-1,-3,-3,-3,-2,-1,2021-08-07 12:37:46,307473
-1,0,1,3,2,2,-1,2,2021-08-07 12:37:46,307473
-1,-1,-1,-3,-5,-5,-2,-1,2021-08-07 12:37:46,323473
-1,-2,-3,-1,0,-1,-3,-3,2021-08-07 12:37:46,323473
-1,1,2,-2,-5,-3,-1,0,2021-08-07 12:37:46,323473
-2,-1,-2,-1,3,0,-2,-2,2021-08-07 12:37:46,323473
-1,-1,-3,0,-2,-2,0,-1,2021-08-07 12:37:46,339472
-1,-1,0,1,1,-1,0,-1,2021-08-07 12:37:46,355474
0,2,1,-1,2,2,0,1,2021-08-07 12:37:46,355474
1,-1,-1,-2,-1,0,2,-1,2021-08-07 12:37:46,355474
-2,-2,-3,-5,-8,-5,-4,-1,2021-08-07 12:37:46,355474
-2,-2,-2,0,4,1,0,-1,2021-08-07 12:37:46,355474
-1,-1,-1,4,7,5,1,-1,2021-08-07 12:37:46,355474
2,1,1,2,5,3,0,1,2021-08-07 12:37:46,371474
0,1,1,0,2,3,2,0,2021-08-07 12:37:46,387473
-2,-1,-2,-4,-8,-4,-2,-1,2021-08-07 12:37:46,387473
0,-2,-2,-3,-7,-5,-3,-1,2021-08-07 12:37:46,387473
0,0,-2,-1,-3,-3,0,0,2021-08-07 12:37:46,387473
1,0,0,-1,-1,-2,0,-1,2021-08-07 12:37:46,403472
1,0,1,4,10,8,4,2,2021-08-07 12:37:46,403472
-5,-6,-3,-3,-6,-6,-5,-6,2021-08-07 12:37:46,403472
0,0,-1,-1,0,2,1,1,2021-08-07 12:37:46,403472
1,3,2,0,2,3,3,3,2021-08-07 12:37:46,419475
0,2,1,1,1,-1,-1,0,2021-08-07 12:37:46,435472
-6,-6,-5,-5,-6,-7,-7,-5,2021-08-07 12:37:46,451473
-2,-3,-2,-2,-2,-2,-4,-4,2021-08-07 12:37:46,451473
-2,-1,1,4,3,2,0,0,2021-08-07 12:37:46,451473
0,3,3,0,-3,0,0,1,2021-08-07 12:37:46,451473
-1,-1,-4,0,0,0,0,-1,2021-08-07 12:37:46,451473
2,1,-2,-5,-5,1,1,1,2021-08-07 12:37:46,451473
2,0,2,6,12,6,4,1,2021-08-07 12:37:46,452473
0,-2,-3,-4,-5,-2,-2,-1,2021-08-07 12:37:46,452473
3,2,1,-1,-2,-1,-1,1,2021-08-07 12:37:46,467471
-2,-1,-1,-1,-3,-1,-2,-1,2021-08-07 12:37:46,482471
-2,-4,-2,-2,-4,-4,-2,-4,2021-08-07 12:37:46,514474
-1,-1,-1,-3,-9,-5,-3,-3,2021-08-07 12:37:46,546473
2,2,2,5,14,9,5,2,2021-08-07 12:37:46,546473
-1,0,0,2,6,2,2,1,2021-08-07 12:37:46,546473
-1,-3,1,-1,-1,0,0,-2,2021-08-07 12:37:46,546473
-1,-3,-2,-2,-4,-7,-5,-3,2021-08-07 12:37:46,546473
0,0,-3,-4,-9,-3,-1,0,2021-08-07 12:37:46,546473
-1,2,3,3,0,3,2,1,2021-08-07 12:37:46,546473
-1,-1,-1,-1,-2,-2,-1,-1,2021-08-07 12:37:46,546473
-2,-1,-2,-3,-3,-3,-1,-1,2021-08-07 12:37:46,547473
1,-1,-1,0,-3,-1,-1,0,2021-08-07 12:37:46,547473
1,0,-1,0,3,2,1,1,2021-08-07 12:37:46,547473
0,-1,0,1,-1,-2,-2,-1,2021-08-07 12:37:46,547473
0,-1,-1,-2,-1,1,-1,-1,2021-08-07 12:37:46,547473
0,-1,-1,0,-1,-1,0,-2,2021-08-07 12:37:46,547473
-1,-2,-1,0,-3,-2,-1,0,2021-08-07 12:37:46,547473
0,-1,-1,-4,-3,-1,-2,0,2021-08-07 12:37:46,562472
-1,1,-2,0,1,-2,3,1,2021-08-07 12:37:46,562472
-1,0,1,5,7,3,3,1,2021-08-07 12:37:46,562472
-1,-2,0,0,-1,-2,-3,-4,2021-08-07 12:37:46,562472
-2,-2,-2,-2,-1,-1,-1,1,2021-08-07 12:37:46,578473
-3,-1,-1,0,-1,0,-1,-2,2021-08-07 12:37:46,578473
-3,-5,-4,-8,-12,-8,-5,-4,2021-08-07 12:37:46,578473
1,3,-1,-4,-8,-4,0,1,2021-08-07 12:37:46,578473
3,4,8,15,25,17,8,3,2021-08-07 12:37:46,610473
-2,-3,-2,-2,-1,-3,-2,-1,2021-08-07 12:37:46,626473
-1,-2,-3,-3,-2,-1,-2,-2,2021-08-07 12:37:46,626473
-3,-3,-3,1,-4,-5,-3,-3,2021-08-07 12:37:46,626473
0,-1,-3,-7,-9,-4,-3,-2,2021-08-07 12:37:46,626473
0,0,-1,2,0,0,-1,1,2021-08-07 12:37:46,626473
0,1,-1,2,5,4,1,1,2021-08-07 12:37:46,626473
-2,-2,-1,-1,-1,0,0,0,2021-08-07 12:37:46,627473
-2,-1,-4,-2,-5,-3,-3,-1,2021-08-07 12:37:46,642472
-1,0,0,0,2,1,-2,-1,2021-08-07 12:37:46,642472
1,2,0,-2,-2,-2,1,1,2021-08-07 12:37:46,642472
-1,0,1,1,2,1,0,-1,2021-08-07 12:37:46,642472
-2,0,0,0,-2,-1,-1,-1,2021-08-07 12:37:46,657472
0,-2,-1,-1,-1,-2,0,0,2021-08-07 12:37:46,657472
-3,-4,-3,-5,-8,-5,-5,-2,2021-08-07 12:37:46,657472
2,1,1,5,7,5,4,1,2021-08-07 12:37:46,657472
2,1,-1,1,4,1,1,0,2021-08-07 12:37:46,689473
0,-1,-2,-1,-1,2,-2,0,2021-08-07 12:37:46,705472
0,0,1,2,1,-1,1,1,2021-08-07 12:37:46,705472
-3,-4,-4,-4,-3,-4,-3,-3,2021-08-07 12:37:46,705472
-1,-2,-1,-2,-7,-6,-4,-3,2021-08-07 12:37:46,705472
1,1,2,5,5,3,0,1,2021-08-07 12:37:46,705472
-1,1,-1,-2,0,0,1,-1,2021-08-07 12:37:46,705472
-1,0,1,-1,0,-2,-2,-1,2021-08-07 12:37:46,705472
-2,-2,-3,-1,-4,-2,-2,-1,2021-08-07 12:37:46,721471
1,0,-1,-1,1,1,0,1,2021-08-07 12:37:46,721471
0,1,0,0,-1,-1,0,0,2021-08-07 12:37:46,721471
0,-1,-1,1,-1,0,-2,1,2021-08-07 12:37:46,721471
-3,-1,-2,-4,-5,-3,0,-1,2021-08-07 12:37:46,753473
-3,-3,-2,-2,-4,-3,-1,-2,2021-08-07 12:37:46,753473
2,1,3,3,6,8,2,3,2021-08-07 12:37:46,753473
-2,0,-1,1,1,1,1,1,2021-08-07 12:37:46,753473
-1,-2,-1,-1,-4,-5,-2,-2,2021-08-07 12:37:46,753473
-1,-2,-3,-4,-6,-1,-1,-1,2021-08-07 12:37:46,753473
-1,-1,1,-3,-3,-1,0,-1,2021-08-07 12:37:46,769472
-2,-3,-3,-2,2,1,-2,-2,2021-08-07 12:37:46,769472
1,1,1,-1,-2,-1,-1,-1,2021-08-07 12:37:46,785473
0,2,3,2,1,2,2,1,2021-08-07 12:37:46,785473
0,1,-1,0,0,-4,-2,-1,2021-08-07 12:37:46,785473
-1,-3,-2,-1,1,1,0,-2,2021-08-07 12:37:46,785473
-1,-1,-3,-3,-5,-3,-2,0,2021-08-07 12:37:46,801471
-2,-2,-2,-2,0,0,-1,-2,2021-08-07 12:37:46,801471
2,1,2,3,1,3,0,1,2021-08-07 12:37:46,803471
0,0,-1,2,-1,-4,0,-2,2021-08-07 12:37:46,803471
-1,-3,-3,-1,-1,-2,-2,-2,2021-08-07 12:37:46,832473
1,2,2,1,3,1,1,0,2021-08-07 12:37:46,832473
-1,-1,-2,-1,-2,-1,-1,-1,2021-08-07 12:37:46,832473
-2,-2,0,-4,-3,-1,-2,1,2021-08-07 12:37:46,832473
-2,0,0,-2,-4,-1,-1,-1,2021-08-07 12:37:46,832473
1,0,0,1,-1,-1,-2,0,2021-08-07 12:37:46,832473
0,-1,-2,-2,-7,-4,-2,0,2021-08-07 12:37:46,832473
0,0,-2,0,4,3,1,1,2021-08-07 12:37:46,832473
0,0,2,4,6,2,2,0,2021-08-07 12:37:46,863471
-2,1,0,-1,3,2,1,0,2021-08-07 12:37:46,863471
-1,-3,-3,-7,-7,-6,-2,-3,2021-08-07 12:37:46,863471
1,1,3,5,5,3,1,-1,2021-08-07 12:37:46,863471
-2,0,-2,-3,-1,-2,-1,0,2021-08-07 12:37:46,894472
0,0,-1,2,4,1,0,-1,2021-08-07 12:37:46,910473
-1,-3,-2,-2,-6,-5,-3,-1,2021-08-07 12:37:46,926474
-2,-1,-3,-5,-11,-7,-3,-1,2021-08-07 12:37:46,926474
-1,0,-1,1,6,5,0,2,2021-08-07 12:37:46,926474
-1,0,1,0,3,1,2,1,2021-08-07 12:37:46,926474
-1,-1,-1,-2,1,2,0,-1,2021-08-07 12:37:46,926474
0,-2,1,0,-2,-3,-1,-2,2021-08-07 12:37:46,926474
-1,1,-1,1,-1,-2,-2,0,2021-08-07 12:37:46,926474
-2,-1,-2,-4,-9,-3,0,-2,2021-08-07 12:37:46,927473
-1,0,0,1,5,3,0,2,2021-08-07 12:37:46,927473
0,2,0,-2,-2,0,0,-1,2021-08-07 12:37:46,927473
-1,-4,-2,-2,-2,-4,-2,-2,2021-08-07 12:37:46,942473
-2,-3,-5,-6,-7,-4,-3,-1,2021-08-07 12:37:46,942473
0,0,0,0,0,0,1,-1,2021-08-07 12:37:46,942473
3,3,2,3,6,6,2,2,2021-08-07 12:37:46,942473
1,0,-2,0,1,1,3,2,2021-08-07 12:37:46,958473
1,-3,-4,-6,-5,-4,-1,-1,2021-08-07 12:37:46,958473
-4,-5,-4,2,1,-2,0,-2,2021-08-07 12:37:46,958473
-2,1,1,-2,0,1,0,0,2021-08-07 12:37:46,958473
-2,0,3,4,5,4,0,-1,2021-08-07 12:37:46,988473
-3,-4,-2,-3,-4,-5,-5,-4,2021-08-07 12:37:47,004473
1,2,2,1,-3,-3,-1,0,2021-08-07 12:37:47,020473
0,0,-1,-3,-5,-2,0,0,2021-08-07 12:37:47,036473
1,2,0,1,2,2,1,1,2021-08-07 12:37:47,036473
-1,0,0,1,0,0,-1,-2,2021-08-07 12:37:47,036473
-1,-3,-2,-2,-1,0,-2,-2,2021-08-07 12:37:47,036473
1,3,1,3,2,-1,1,2,2021-08-07 12:37:47,036473
-1,-1,-3,-2,-4,-2,-1,-3,2021-08-07 12:37:47,036473
0,0,0,0,5,4,1,1,2021-08-07 12:37:47,036473
-2,0,0,0,-1,-2,-2,-1,2021-08-07 12:37:47,036473
-1,-3,-2,-2,0,0,1,-1,2021-08-07 12:37:47,037473
-1,0,0,-1,-2,-2,0,-2,2021-08-07 12:37:47,037473
-2,-2,-1,3,4,2,0,-2,2021-08-07 12:37:47,037473
-2,-1,-4,2,5,0,0,-2,2021-08-07 12:37:47,037473
2,1,3,-1,-1,-2,-1,1,2021-08-07 12:37:47,037473
0,1,0,-2,-2,0,1,0,2021-08-07 12:37:47,068474
-2,-1,1,3,3,0,-2,-1,2021-08-07 12:37:47,068474
-1,0,0,-3,-2,-2,0,0,2021-08-07 12:37:47,068474
-1,-3,-4,-3,-6,-3,-3,-2,2021-08-07 12:37:47,068474
0,1,1,4,9,5,1,1,2021-08-07 12:37:47,084471
1,0,-1,1,-1,-2,-2,-2,2021-08-07 12:37:47,084471
1,0,0,-1,-2,1,-1,0,2021-08-07 12:37:47,084471
0,0,0,1,-1,-2,-1,-1,2021-08-07 12:37:47,084471
0,-1,-2,-4,-5,-3,-1,-2,2021-08-07 12:37:47,099472
0,-2,0,-2,-1,-3,-2,-2,2021-08-07 12:37:47,114473
0,0,-1,-1,-1,-1,0,-1,2021-08-07 12:37:47,114473
-2,-2,-2,-2,-3,-1,-1,-2,2021-08-07 12:37:47,114473
1,1,0,4,2,2,2,0,2021-08-07 12:37:47,129473
-2,0,-2,-4,-1,0,0,0,2021-08-07 12:37:47,129473
0,-2,0,1,1,0,2,-1,2021-08-07 12:37:47,145473
-1,-3,-1,-2,-2,-3,-2,-1,2021-08-07 12:37:47,145473
-1,-2,-1,-3,-3,-3,-4,-3,2021-08-07 12:37:47,145473
0,1,-1,0,-2,0,1,1,2021-08-07 12:37:47,145473
-1,-2,0,0,-1,-2,-2,-1,2021-08-07 12:37:47,145473
-2,-1,-2,-3,-3,-2,-1,-1,2021-08-07 12:37:47,145473
-1,-2,-1,-2,-1,2,-1,-1,2021-08-07 12:37:47,161474
-2,0,-1,0,3,1,1,0,2021-08-07 12:37:47,161474
-2,0,-1,-1,-1,-2,0,-1,2021-08-07 12:37:47,161474
-1,0,-1,0,-1,-1,-1,-2,2021-08-07 12:37:47,161474
-2,-4,-2,-1,2,1,-1,0,2021-08-07 12:37:47,192475
0,-1,1,0,0,-1,0,0,2021-08-07 12:37:47,192475
-1,2,-1,1,2,2,1,0,2021-08-07 12:37:47,208473
-2,-2,-3,-5,-9,-9,-4,-3,2021-08-07 12:37:47,224473
1,1,-1,-3,-1,1,0,1,2021-08-07 12:37:47,224473
0,-1,0,-1,-1,-1,1,0,2021-08-07 12:37:47,234471
0,-1,-1,1,2,3,0,0,2021-08-07 12:37:47,255473
-1,0,-1,0,1,0,-1,0,2021-08-07 12:37:47,255473
-3,-1,-2,-4,-5,-4,-3,-1,2021-08-07 12:37:47,255473
-1,-1,-3,0,-1,-2,-3,-1,2021-08-07 12:37:47,255473
-1,-2,-2,-3,-3,-2,-1,-2,2021-08-07 12:37:47,255473
2,3,5,4,8,5,4,3,2021-08-07 12:37:47,255473
-1,0,-1,-3,-3,-4,1,-3,2021-08-07 12:37:47,255473
-2,-1,1,0,2,1,-1,-2,2021-08-07 12:37:47,256473
-3,-2,0,-3,-4,-3,-2,-3,2021-08-07 12:37:47,256473
-1,1,0,0,2,2,0,-1,2021-08-07 12:37:47,256473
0,-1,-1,0,-1,-2,-1,0,2021-08-07 12:37:47,256473
-1,-2,-2,-1,-4,-2,-3,-1,2021-08-07 12:37:47,256473
1,0,-1,-1,0,1,-2,1,2021-08-07 12:37:47,256473
-1,-4,-2,0,-1,-2,-3,-1,2021-08-07 12:37:47,256473
-2,-3,-1,-1,-1,-1,0,-2,2021-08-07 12:37:47,287472
-1,-1,0,-4,-3,1,0,0,2021-08-07 12:37:47,303471
0,1,-1,-1,-2,-3,-2,2,2021-08-07 12:37:47,303471
0,2,0,2,4,3,2,2,2021-08-07 12:37:47,303471
-1,-1,-1,4,3,2,-1,0,2021-08-07 12:37:47,303471
0,-2,-3,-5,-5,-4,-4,-2,2021-08-07 12:37:47,303471
1,-2,-2,-2,0,-2,-1,-2,2021-08-07 12:37:47,303471
-1,-2,-1,-1,-4,-2,-1,0,2021-08-07 12:37:47,304473
0,1,0,-2,-5,-4,-2,-1,2021-08-07 12:37:47,319472
1,1,2,5,10,8,3,0,2021-08-07 12:37:47,335472
0,0,0,2,2,3,2,1,2021-08-07 12:37:47,351475
-1,-3,-2,-2,-3,-2,-3,-3,2021-08-07 12:37:47,351475
-1,2,2,1,1,2,1,2,2021-08-07 12:37:47,367473
-1,0,0,1,-2,-2,-2,0,2021-08-07 12:37:47,367473
-3,-2,-1,-2,0,-2,-1,0,2021-08-07 12:37:47,367473
-2,-1,-1,1,2,0,1,0,2021-08-07 12:37:47,367473
-1,-3,-3,-2,-4,-3,-2,-1,2021-08-07 12:37:47,367473
1,3,1,-5,-7,-5,-2,-1,2021-08-07 12:37:47,367473
-1,-2,0,-1,1,2,1,-2,2021-08-07 12:37:47,367473
1,1,0,0,0,-1,0,0,2021-08-07 12:37:47,368476
-2,1,0,-1,0,-1,0,-2,2021-08-07 12:37:47,383471
-2,-2,-3,-2,-4,-2,-2,-2,2021-08-07 12:37:47,383471
-1,0,1,-1,-2,-1,-2,-2,2021-08-07 12:37:47,383471
0,0,0,1,-2,1,0,-2,2021-08-07 12:37:47,383471
0,-1,-1,-2,-2,-3,-1,-1,2021-08-07 12:37:47,399473
-1,-3,-3,-1,-1,-2,-2,0,2021-08-07 12:37:47,399473
1,0,-2,-2,-2,-1,-2,1,2021-08-07 12:37:47,399473
0,0,-1,-1,-1,0,0,0,2021-08-07 12:37:47,399473
0,0,0,-2,-2,-2,0,0,2021-08-07 12:37:47,431473
0,0,-1,0,1,2,0,1,2021-08-07 12:37:47,431473
-2,-2,0,-1,-2,-4,-2,0,2021-08-07 12:37:47,431473
0,-1,-2,-3,-5,-2,-1,0,2021-08-07 12:37:47,431473
-2,0,-1,1,2,1,0,1,2021-08-07 12:37:47,431473
0,-1,1,-4,-5,-4,-3,-1,2021-08-07 12:37:47,431473
2,-1,-1,2,4,3,2,1,2021-08-07 12:37:47,447473
-1,-1,-1,3,2,1,0,-1,2021-08-07 12:37:47,463473
1,1,1,0,3,2,-1,-1,2021-08-07 12:37:47,479473
-4,-4,-3,-6,-7,-6,-1,-2,2021-08-07 12:37:47,479473
-1,1,1,3,-1,-2,-2,0,2021-08-07 12:37:47,479473
-2,-1,-1,-4,-3,-4,-2,-2,2021-08-07 12:37:47,479473
1,-1,0,-3,-4,-3,1,-1,2021-08-07 12:37:47,479473
-2,-2,-3,-1,-1,-3,-1,-3,2021-08-07 12:37:47,479473
-2,1,0,-2,-2,-1,-1,0,2021-08-07 12:37:47,480472
-1,0,1,0,3,2,0,1,2021-08-07 12:37:47,480472
-2,-4,-3,-3,-4,-3,-2,-1,2021-08-07 12:37:47,495474
0,1,2,-1,-2,0,2,1,2021-08-07 12:37:47,495474
0,-1,-3,-1,4,4,2,1,2021-08-07 12:37:47,511471
0,0,0,3,6,3,0,-1,2021-08-07 12:37:47,527473
-1,-3,-2,-2,-4,-3,-2,-2,2021-08-07 12:37:47,543472
0,-1,-3,-8,-12,-7,-4,-1,2021-08-07 12:37:47,543472
-1,-1,-2,1,1,0,-2,-2,2021-08-07 12:37:47,543472
2,5,5,6,12,9,5,3,2021-08-07 12:37:47,543472
1,1,-2,-1,0,1,0,1,2021-08-07 12:37:47,543472
-2,-2,-4,2,-6,-7,-5,-3,2021-08-07 12:37:47,543472
2,1,0,-3,-3,1,3,2,2021-08-07 12:37:47,543472
-1,-1,-2,-2,-4,-4,-3,-2,2021-08-07 12:37:47,543472
-1,-1,0,0,2,0,-1,-2,2021-08-07 12:37:47,558472
-1,-1,0,2,2,1,0,1,2021-08-07 12:37:47,558472
-3,-1,-1,-4,-6,-2,-2,-2,2021-08-07 12:37:47,574473
-2,-2,-3,-3,-6,-5,-3,-2,2021-08-07 12:37:47,574473
-2,-3,-4,-3,-2,-3,-1,-3,2021-08-07 12:37:47,574473
-1,-1,-1,0,-3,1,-2,-1,2021-08-07 12:37:47,574473
1,-1,0,4,3,0,-1,-2,2021-08-07 12:37:47,574473
0,-1,0,0,-1,-1,-2,-2,2021-08-07 12:37:47,575473
0,1,2,0,-3,-1,-3,1,2021-08-07 12:37:47,605472
1,1,0,-1,4,4,2,-1,2021-08-07 12:37:47,621474
-2,-1,0,4,1,-1,-1,-2,2021-08-07 12:37:47,621474
1,-1,-4,-5,-7,-5,-1,-1,2021-08-07 12:37:47,621474
-1,-1,1,6,11,8,4,1,2021-08-07 12:37:47,621474
0,1,2,4,7,1,1,0,2021-08-07 12:37:47,621474
-3,-2,-4,-6,-6,-6,-2,-3,2021-08-07 12:37:47,621474
-2,-3,-4,-5,-13,-7,-4,-4,2021-08-07 12:37:47,621474
3,3,2,9,14,11,4,3,2021-08-07 12:37:47,653473
-2,-2,0,-1,0,0,-1,-2,2021-08-07 12:37:47,668472
-1,-1,1,-1,-2,-2,-3,-2,2021-08-07 12:37:47,669473
-2,-3,-2,-2,-3,-2,-3,0,2021-08-07 12:37:47,669473
-1,0,-2,-4,-9,-8,-4,-2,2021-08-07 12:37:47,669473
-1,1,0,2,5,3,0,-1,2021-08-07 12:37:47,669473
0,-1,1,-1,-2,-2,0,0,2021-08-07 12:37:47,670473
0,0,0,0,2,2,1,0,2021-08-07 12:37:47,670473
-4,-5,-3,-3,-2,-2,-1,-2,2021-08-07 12:37:47,684471
-1,-1,-2,-2,-3,-3,-2,-2,2021-08-07 12:37:47,684471
1,1,2,0,-1,-3,-1,1,2021-08-07 12:37:47,684471
3,2,3,3,10,8,3,2,2021-08-07 12:37:47,684471
0,0,-1,0,-6,-5,-2,-2,2021-08-07 12:37:47,699473
0,1,0,1,3,4,2,0,2021-08-07 12:37:47,699473
-1,-3,-2,-2,1,0,-1,-1,2021-08-07 12:37:47,699473
-1,-1,-1,-1,-2,-1,0,-1,2021-08-07 12:37:47,699473
1,1,1,0,1,-1,-1,2,2021-08-07 12:37:47,730473
-1,-5,-3,-3,-4,-4,-2,-3,2021-08-07 12:37:47,730473
-1,1,-1,1,1,2,-1,0,2021-08-07 12:37:47,730473
-4,-5,-4,0,-1,-1,-4,-3,2021-08-07 12:37:47,730473
1,1,-1,-2,-3,-3,0,0,2021-08-07 12:37:47,746471
1,2,2,-1,0,1,2,0,2021-08-07 12:37:47,762472
-1,1,-2,3,3,2,1,0,2021-08-07 12:37:47,778472
-2,-1,-1,-1,0,0,-1,1,2021-08-07 12:37:47,794473
-2,-2,0,-2,-3,-4,-3,-3,2021-08-07 12:37:47,810474
0,0,0,0,0,-2,-1,0,2021-08-07 12:37:47,810474
-2,-2,-4,-8,-13,-5,-3,-2,2021-08-07 12:37:47,810474
3,2,3,-2,6,5,3,3,2021-08-07 12:37:47,810474
-3,-3,-3,1,4,2,-1,-2,2021-08-07 12:37:47,810474
0,0,-1,1,2,1,0,0,2021-08-07 12:37:47,810474
1,1,0,-1,0,-1,1,2,2021-08-07 12:37:47,810474
-3,-3,-3,-4,-10,-10,-6,-2,2021-08-07 12:37:47,810474
1,1,1,-1,3,7,1,2,2021-08-07 12:37:47,810474
-2,-1,0,0,-4,-3,-3,-3,2021-08-07 12:37:47,811473
-4,-3,-5,-3,-1,-2,-2,-3,2021-08-07 12:37:47,811473
3,4,2,-1,-2,0,2,5,2021-08-07 12:37:47,811473
0,-2,-3,-4,-8,-6,-2,1,2021-08-07 12:37:47,826473
-3,-5,-6,-4,-6,-2,-1,-2,2021-08-07 12:37:47,826473
1,0,2,4,6,6,1,2,2021-08-07 12:37:47,826473
-1,-1,0,2,7,4,2,-1,2021-08-07 12:37:47,842472
-3,-2,1,3,0,-2,-2,-3,2021-08-07 12:37:47,858471
1,1,1,-3,-3,-2,-1,1,2021-08-07 12:37:47,858471
1,1,1,2,-3,-2,-1,-1,2021-08-07 12:37:47,858471
-3,-4,-4,-2,-2,-5,-4,-2,2021-08-07 12:37:47,858471
2,2,0,-3,-1,2,-1,1,2021-08-07 12:37:47,874473
1,1,0,2,5,3,1,2,2021-08-07 12:37:47,874473
1,4,0,2,2,2,2,2,2021-08-07 12:37:47,890473
-1,-3,-3,-4,-9,-8,-3,-4,2021-08-07 12:37:47,890473
2,3,2,-1,3,4,3,2,2021-08-07 12:37:47,890473
-1,-3,-2,-1,-3,0,-2,-2,2021-08-07 12:37:47,906473
-4,-4,-2,-2,-1,-2,-2,-3,2021-08-07 12:37:47,922473
0,-1,-3,2,5,4,1,3,2021-08-07 12:37:47,922473
-2,-2,-1,-5,-11,-7,-2,-2,2021-08-07 12:37:47,922473
-1,0,0,1,-2,-3,-2,1,2021-08-07 12:37:47,922473
0,-1,-1,-2,-1,0,0,0,2021-08-07 12:37:47,922473
-2,0,1,3,1,-1,-1,-3,2021-08-07 12:37:47,922473
-1,-1,-2,-1,0,1,-1,-1,2021-08-07 12:37:47,922473
0,-1,-2,2,6,3,2,1,2021-08-07 12:37:47,923474
-4,-5,-4,-7,-6,-7,-4,-4,2021-08-07 12:37:47,923474
-1,-1,0,-3,-10,-6,-4,-2,2021-08-07 12:37:47,923474
-2,-1,-1,0,2,3,0,-1,2021-08-07 12:37:47,938473
-1,0,1,8,10,3,1,-1,2021-08-07 12:37:47,954472
1,1,1,-2,1,2,1,3,2021-08-07 12:37:47,970473
1,0,0,4,8,6,4,0,2021-08-07 12:37:47,970473
1,2,2,3,2,0,-2,1,2021-08-07 12:37:47,970473
-2,-3,-4,-6,-11,-8,-4,-3,2021-08-07 12:37:47,970473
0,0,1,0,-1,-2,0,-3,2021-08-07 12:37:47,986471
-3,-1,-3,-4,-2,-1,-1,0,2021-08-07 12:37:48,002473
2,2,2,6,11,8,5,3,2021-08-07 12:37:48,002473
-2,-2,-2,-2,0,-2,-2,0,2021-08-07 12:37:48,002473
2,0,1,0,0,1,-1,1,2021-08-07 12:37:48,002473
-3,-1,-2,-4,-7,-5,-3,-3,2021-08-07 12:37:48,002473
-1,-4,-3,0,-1,-1,-2,-1,2021-08-07 12:37:48,002473
0,2,2,4,8,6,2,2,2021-08-07 12:37:48,003474
0,-2,0,4,6,3,0,0,2021-08-07 12:37:48,003474
0,0,0,2,1,2,0,-1,2021-08-07 12:37:48,003474
-3,-3,-4,-8,-11,-10,-6,-3,2021-08-07 12:37:48,034473
-2,-1,2,-8,-14,-9,-7,-4,2021-08-07 12:37:48,050471
1,4,2,1,6,7,3,0,2021-08-07 12:37:48,050471
-1,-2,-4,10,13,6,2,1,2021-08-07 12:37:48,050471
-1,-2,-2,-3,-3,-2,-2,-2,2021-08-07 12:37:48,050471
1,2,2,-4,-6,-3,-1,2,2021-08-07 12:37:48,050471
0,0,0,-2,-4,-1,-1,0,2021-08-07 12:37:48,050471
0,0,2,-5,-1,0,-1,0,2021-08-07 12:37:48,050471
-2,-3,-5,-5,-8,-7,-4,-1,2021-08-07 12:37:48,066471
-1,-2,0,6,10,9,3,0,2021-08-07 12:37:48,066471
-1,1,2,2,-2,-1,0,0,2021-08-07 12:37:48,066471
0,2,2,1,0,2,1,0,2021-08-07 12:37:48,066471
1,-3,-2,-5,-7,-6,-3,0,2021-08-07 12:37:48,082473
-3,-6,-4,-7,-9,-7,-3,-4,2021-08-07 12:37:48,082473
0,1,2,10,13,5,2,1,2021-08-07 12:37:48,082473
2,1,1,3,6,2,2,1,2021-08-07 12:37:48,082473
-4,-1,-2,-5,-5,-5,-3,-3,2021-08-07 12:37:48,101474
1,-1,-2,4,4,3,1,0,2021-08-07 12:37:48,101474
-2,-4,-5,-2,-4,-4,-3,-2,2021-08-07 12:37:48,101474
1,0,0,-4,-4,-3,0,-1,2021-08-07 12:37:48,101474
1,0,2,3,2,0,-1,-2,2021-08-07 12:37:48,130473
-1,0,-3,0,2,2,2,-1,2021-08-07 12:37:48,145473
0,-3,-1,-3,-5,-4,-2,-2,2021-08-07 12:37:48,145473
-1,-1,0,-3,-6,-2,-2,-1,2021-08-07 12:37:48,145473
-2,-3,-3,-1,4,3,2,0,2021-08-07 12:37:48,145473
-2,0,-1,0,1,0,0,0,2021-08-07 12:37:48,145473
0,-2,-2,-3,-2,0,0,0,2021-08-07 12:37:48,145473
2,-1,1,5,9,3,2,1,2021-08-07 12:37:48,146474
2,2,1,-2,-4,-3,0,-1,2021-08-07 12:37:48,177473
-2,-1,-3,-5,-4,-3,-2,-2,2021-08-07 12:37:48,192472
-2,-1,-2,-3,-6,-4,-2,-1,2021-08-07 12:37:48,192472
0,0,-1,-2,-6,-4,-4,-2,2021-08-07 12:37:48,192472
-2,-1,-2,0,0,0,-1,0,2021-08-07 12:37:48,192472
2,-1,1,1,5,4,3,0,2021-08-07 12:37:48,192472
0,-1,-1,-2,-3,-5,-2,-1,2021-08-07 12:37:48,192472
-2,-1,0,-4,-5,-2,0,1,2021-08-07 12:37:48,193473
-1,-1,-3,0,1,1,-1,-1,2021-08-07 12:37:48,208473
0,0,-1,-1,-3,2,0,0,2021-08-07 12:37:48,224474
0,3,1,1,2,3,1,2,2021-08-07 12:37:48,240473
-2,0,1,-1,-1,0,-1,-1,2021-08-07 12:37:48,240473
0,0,1,2,2,0,-1,0,2021-08-07 12:37:48,240473
-2,-2,0,-4,-8,-7,-4,-3,2021-08-07 12:37:48,240473
-2,-1,-1,-1,3,3,2,-1,2021-08-07 12:37:48,240473
1,0,1,0,0,0,0,1,2021-08-07 12:37:48,240473
-5,-5,-4,0,-7,-5,-4,-4,2021-08-07 12:37:48,241473
2,5,0,-4,1,2,3,2,2021-08-07 12:37:48,241473
-1,0,0,-1,-4,-3,-2,-1,2021-08-07 12:37:48,241473
-2,-1,-1,-4,-4,-2,-2,-2,2021-08-07 12:37:48,241473
0,-1,-2,3,6,4,3,0,2021-08-07 12:37:48,272474
-2,-1,-2,1,-2,-2,-2,-2,2021-08-07 12:37:48,272474
-1,-1,-2,1,1,-4,-1,2,2021-08-07 12:37:48,272474
-1,-2,-1,-3,-5,-3,-1,-2,2021-08-07 12:37:48,272474
1,1,3,2,-1,-1,1,0,2021-08-07 12:37:48,288473
-1,0,0,3,2,1,-2,0,2021-08-07 12:37:48,304471
-1,-4,-4,-8,-5,-5,-1,-2,2021-08-07 12:37:48,320472
-1,-1,-3,-1,-3,-2,0,-1,2021-08-07 12:37:48,320472
-2,-2,0,-1,-1,-1,-1,-4,2021-08-07 12:37:48,320472
0,-2,0,1,4,1,1,1,2021-08-07 12:37:48,320472
0,-1,1,3,2,3,1,0,2021-08-07 12:37:48,320472
1,-1,-1,2,6,3,1,0,2021-08-07 12:37:48,320472
-2,-2,-1,-2,-6,-5,-4,-3,2021-08-07 12:37:48,320472
-1,-1,-3,-6,-5,-5,-2,0,2021-08-07 12:37:48,320472
-3,-2,-4,-5,-8,-6,-4,-2,2021-08-07 12:37:48,320472
1,2,-1,0,2,2,1,0,2021-08-07 12:37:48,321474
-2,0,1,-2,-5,-4,-2,-1,2021-08-07 12:37:48,351471
-1,0,1,5,11,7,3,0,2021-08-07 12:37:48,366471
-1,-1,-1,-4,-3,-2,-1,-2,2021-08-07 12:37:48,382472
-2,0,0,-2,-1,-2,-1,-1,2021-08-07 12:37:48,398473
1,1,-2,-5,-3,-2,0,0,2021-08-07 12:37:48,398473
-2,-5,-2,1,-3,-4,-3,-2,2021-08-07 12:37:48,398473
1,1,1,-2,-2,0,1,0,2021-08-07 12:37:48,398473
0,-1,0,0,1,0,0,0,2021-08-07 12:37:48,398473
-1,-2,-3,-6,-5,-1,-2,-2,2021-08-07 12:37:48,398473
1,1,0,3,6,3,-1,0,2021-08-07 12:37:48,399474
1,1,-1,2,5,3,1,1,2021-08-07 12:37:48,399474
-2,-1,-1,0,-2,-1,-2,-2,2021-08-07 12:37:48,399474
-2,-3,-1,-2,-9,-6,-4,-3,2021-08-07 12:37:48,430473
-1,-1,-1,-1,-1,1,2,0,2021-08-07 12:37:48,430473
3,3,2,3,8,5,4,3,2021-08-07 12:37:48,430473
0,-1,1,2,1,1,0,-1,2021-08-07 12:37:48,430473
1,1,1,2,5,2,1,1,2021-08-07 12:37:48,430473
0,-1,-3,-8,-10,-4,-4,0,2021-08-07 12:37:48,430473
-3,-1,1,1,-1,-3,-2,-2,2021-08-07 12:37:48,430473
-1,-1,-3,-5,-3,0,-1,0,2021-08-07 12:37:48,430473
0,-2,-1,2,1,-1,-1,-2,2021-08-07 12:37:48,446474
-1,-1,-3,-6,-4,-1,-1,-2,2021-08-07 12:37:48,446474
0,0,1,3,8,3,3,0,2021-08-07 12:37:48,446474
-2,-1,-2,-2,-2,-6,-3,-1,2021-08-07 12:37:48,446474
-1,-3,-2,0,2,0,-2,-2,2021-08-07 12:37:48,478472
-2,-2,-3,0,-1,0,-2,0,2021-08-07 12:37:48,494473
1,0,0,-2,-1,0,0,1,2021-08-07 12:37:48,494473
0,1,1,0,1,0,1,0,2021-08-07 12:37:48,494473
-3,-3,-3,-7,-9,-5,-3,0,2021-08-07 12:37:48,494473
-2,-1,1,3,2,-1,-1,-1,2021-08-07 12:37:48,494473
0,-2,-3,-3,-2,0,-3,-1,2021-08-07 12:37:48,494473
1,-1,2,6,6,3,2,1,2021-08-07 12:37:48,494473
1,1,1,-4,-1,1,0,1,2021-08-07 12:37:48,510472
0,0,1,-4,-4,-3,2,-1,2021-08-07 12:37:48,510472
0,-1,-1,2,0,-3,-1,-2,2021-08-07 12:37:48,510472
-1,1,2,3,4,4,0,0,2021-08-07 12:37:48,510472
1,0,0,1,5,1,0,0,2021-08-07 12:37:48,526472
-1,-2,-2,0,-3,-6,-4,-2,2021-08-07 12:37:48,526472
-1,-2,-2,-7,-10,-6,-4,-2,2021-08-07 12:37:48,535472
-1,-3,-3,-6,-8,-5,-2,-1,2021-08-07 12:37:48,535472
3,4,3,7,19,15,7,5,2021-08-07 12:37:48,535472
-3,-2,-2,-3,-3,-3,-2,-2,2021-08-07 12:37:48,535472
0,-1,-1,0,0,-1,0,0,2021-08-07 12:37:48,558473
0,1,3,4,2,0,0,0,2021-08-07 12:37:48,574472
-1,-1,2,1,-4,-5,-2,-1,2021-08-07 12:37:48,606474
1,0,0,2,6,3,0,0,2021-08-07 12:37:48,622474
-3,-5,-5,-3,-6,-6,-4,-3,2021-08-07 12:37:48,638473
-1,2,-1,-7,-5,0,1,-2,2021-08-07 12:37:48,638473
1,2,2,6,8,3,3,1,2021-08-07 12:37:48,638473
-1,-1,1,-1,-3,0,-1,-2,2021-08-07 12:37:48,638473
0,0,0,3,3,3,1,0,2021-08-07 12:37:48,639473
-2,-6,-5,-3,-6,-5,-3,-1,2021-08-07 12:37:48,639473
1,2,0,-3,4,2,2,0,2021-08-07 12:37:48,639473
1,1,0,1,4,0,1,1,2021-08-07 12:37:48,639473
0,1,-2,-4,-3,-2,-2,-2,2021-08-07 12:37:48,639473
2,1,0,0,2,1,2,1,2021-08-07 12:37:48,639473
-2,-2,-3,-2,-2,0,0,-1,2021-08-07 12:37:48,639473
-2,-3,-3,-3,-8,-8,-3,-2,2021-08-07 12:37:48,640474
3,2,2,5,10,10,6,3,2021-08-07 12:37:48,640474
-2,-2,-4,-3,-6,-7,-4,-2,2021-08-07 12:37:48,640474
0,0,0,-1,1,5,-1,-1,2021-08-07 12:37:48,640474
0,0,-2,1,0,-1,0,-3,2021-08-07 12:37:48,640474
1,0,-3,-8,-10,-6,-3,-2,2021-08-07 12:37:48,640474
-2,-1,0,5,9,6,0,-2,2021-08-07 12:37:48,640474
-1,-3,-3,-7,-9,-7,-3,-1,2021-08-07 12:37:48,654473
-2,-1,0,2,4,2,-2,-2,2021-08-07 12:37:48,654473
1,2,2,6,10,6,3,2,2021-08-07 12:37:48,670472
0,-1,1,0,0,-2,-1,2,2021-08-07 12:37:48,670472
1,-1,-3,-2,-2,-2,1,0,2021-08-07 12:37:48,685473
0,-2,-3,-5,-6,-4,-2,1,2021-08-07 12:37:48,701474
-1,-2,-1,-6,-9,-5,-3,0,2021-08-07 12:37:48,701474
-2,-2,-2,1,4,2,-1,-1,2021-08-07 12:37:48,701474
-3,-1,-1,1,-4,-2,-2,-2,2021-08-07 12:37:48,701474
-1,0,5,5,7,5,2,0,2021-08-07 12:37:48,702474
-3,0,0,2,2,0,-1,-1,2021-08-07 12:37:48,702474
0,-1,-1,-3,-5,-4,0,-1,2021-08-07 12:37:48,702474
-1,-3,-2,-4,-6,-5,-5,-1,2021-08-07 12:37:48,731473
1,0,-1,-5,-4,-2,-3,1,2021-08-07 12:37:48,731473
2,3,2,4,8,6,1,3,2021-08-07 12:37:48,731473
-1,-1,-2,-3,3,1,1,-1,2021-08-07 12:37:48,731473
-1,-2,-1,1,-6,-5,-1,-2,2021-08-07 12:37:48,763473
1,-1,-2,-2,1,2,-1,1,2021-08-07 12:37:48,763473
-1,-1,0,1,-1,-2,-2,-2,2021-08-07 12:37:48,763473
-2,-1,-3,-3,-6,-5,-4,-1,2021-08-07 12:37:48,763473
1,2,2,4,8,5,3,1,2021-08-07 12:37:48,763473
-1,-3,-3,-1,-2,0,-1,0,2021-08-07 12:37:48,763473
-1,-2,-1,0,0,0,0,-1,2021-08-07 12:37:48,764474
2,2,-2,-1,-1,-2,0,1,2021-08-07 12:37:48,764474
-1,-2,-2,-1,2,2,-1,0,2021-08-07 12:37:48,794473
-1,2,-2,0,-2,-3,-1,0,2021-08-07 12:37:48,794473
-4,-5,-4,-1,-7,-7,-5,-4,2021-08-07 12:37:48,794473
0,0,-1,-4,-3,2,1,0,2021-08-07 12:37:48,794473
0,1,2,2,1,-1,0,0,2021-08-07 12:37:48,810474
1,0,1,4,7,5,1,1,2021-08-07 12:37:48,826471
0,-2,-1,0,0,-2,1,-1,2021-08-07 12:37:48,841472
-3,-3,-1,-4,-6,-6,-4,-2,2021-08-07 12:37:48,841472
-2,-1,-2,-1,-2,-1,-3,-1,2021-08-07 12:37:48,841472
-1,-1,-1,0,3,2,0,-2,2021-08-07 12:37:48,841472
-3,-2,-3,-8,-10,-7,-2,-4,2021-08-07 12:37:48,841472
2,2,5,9,6,5,2,1,2021-08-07 12:37:48,841472
1,1,0,-3,0,1,2,1,2021-08-07 12:37:48,857473
-1,-1,-1,-1,-4,-2,0,0,2021-08-07 12:37:48,873472
-2,-2,-3,-1,0,-1,0,-1,2021-08-07 12:37:48,873472
1,1,-1,1,5,2,2,-1,2021-08-07 12:37:48,873472
-2,-2,0,-3,-5,-4,-3,-3,2021-08-07 12:37:48,873472
-2,-2,-1,-5,-8,-6,-4,-3,2021-08-07 12:37:48,873472
1,-2,1,-1,-1,-1,0,0,2021-08-07 12:37:48,873472
2,2,0,-1,3,2,1,1,2021-08-07 12:37:48,873472
0,-1,0,4,7,4,1,-1,2021-08-07 12:37:48,889474
-2,-3,-4,-4,-5,-4,-3,-2,2021-08-07 12:37:48,905471
0,0,1,1,-1,0,-1,-1,2021-08-07 12:37:48,905471
-2,-3,-3,-3,-4,-2,-3,-1,2021-08-07 12:37:48,905471
-1,-1,-2,-1,-5,-3,-2,-2,2021-08-07 12:37:48,905471
0,2,0,-1,-1,0,0,0,2021-08-07 12:37:48,905471
1,1,0,0,2,3,0,1,2021-08-07 12:37:48,905471
-3,-3,-2,-6,-8,-3,-4,-2,2021-08-07 12:37:48,905471
-2,1,-2,-1,-2,0,1,1,2021-08-07 12:37:48,937474
0,-2,-1,-2,0,0,0,0,2021-08-07 12:37:48,937474
0,-1,-1,1,0,-1,-1,-1,2021-08-07 12:37:48,937474
0,-1,0,1,0,1,0,0,2021-08-07 12:37:48,937474
0,-1,1,2,6,2,-1,0,2021-08-07 12:37:48,953472
-2,-1,1,-1,-3,-1,-1,-1,2021-08-07 12:37:48,953472
0,-1,-1,1,2,2,0,1,2021-08-07 12:37:48,953472
0,-4,-2,-6,-13,-10,-6,-4,2021-08-07 12:37:48,953472
2,1,0,-1,3,4,4,3,2021-08-07 12:37:48,962475
0,-1,-1,-3,-1,-1,0,1,2021-08-07 12:37:48,962475
0,1,0,0,3,0,-1,-1,2021-08-07 12:37:48,962475
-1,0,0,-1,-3,-3,0,-2,2021-08-07 12:37:48,962475
-4,-2,-2,-1,-5,-3,-2,-3,2021-08-07 12:37:48,985473
0,-1,0,4,9,5,3,1,2021-08-07 12:37:49,001472
-3,-4,-2,0,-4,-4,-3,-1,2021-08-07 12:37:49,001472
-1,0,-1,-4,-8,-5,-3,-2,2021-08-07 12:37:49,001472
4,4,4,10,19,11,7,2,2021-08-07 12:37:49,001472
2,1,-2,-3,-4,-3,-1,-3,2021-08-07 12:37:49,001472
-1,0,0,1,-2,-2,-1,-2,2021-08-07 12:37:49,001472
0,1,0,4,6,5,2,1,2021-08-07 12:37:49,002473
-1,-3,-2,-5,-9,-6,-4,-2,2021-08-07 12:37:49,032472
-3,-2,-2,-2,-5,-4,-4,-1,2021-08-07 12:37:49,048472
-2,-6,-3,-11,-17,-7,-5,-3,2021-08-07 12:37:49,064473
5,5,5,15,26,17,8,4,2021-08-07 12:37:49,064473
-1,0,-1,-2,-4,-4,-1,0,2021-08-07 12:37:49,064473
0,1,0,-1,-1,-3,-1,-2,2021-08-07 12:37:49,064473
-4,-3,-2,-9,-13,-11,-4,-3,2021-08-07 12:37:49,064473
0,1,1,0,3,3,2,1,2021-08-07 12:37:49,064473
-1,-3,-1,0,1,0,-1,-2,2021-08-07 12:37:49,065473
-1,-1,2,-1,0,-1,-1,-1,2021-08-07 12:37:49,065473
1,2,-1,1,4,1,0,1,2021-08-07 12:37:49,065473
-2,-1,-1,-1,-3,-2,-1,-1,2021-08-07 12:37:49,065473
-1,0,-2,-5,-4,-3,-2,-1,2021-08-07 12:37:49,096471
-2,-2,-2,-1,-2,-3,-2,-1,2021-08-07 12:37:49,111472
0,-1,-1,2,2,1,-1,-1,2021-08-07 12:37:49,111472
-1,-2,-3,-4,-5,-1,-1,-1,2021-08-07 12:37:49,111472
-2,-2,-2,2,2,-1,-2,-1,2021-08-07 12:37:49,111472
0,-1,-2,-3,-2,0,1,0,2021-08-07 12:37:49,111472
1,1,2,1,3,4,2,0,2021-08-07 12:37:49,111472
-2,-3,-2,-2,-2,-3,-3,-2,2021-08-07 12:37:49,111472
-2,-2,-2,-1,0,0,-1,-2,2021-08-07 12:37:49,143473
0,0,0,3,1,-1,0,-1,2021-08-07 12:37:49,159473
0,0,0,6,9,5,2,1,2021-08-07 12:37:49,159473
-3,-2,-3,-7,-10,-8,-5,-2,2021-08-07 12:37:49,159473
-2,-1,3,-9,-10,-6,-5,-2,2021-08-07 12:37:49,159473
3,3,2,9,13,7,2,2,2021-08-07 12:37:49,159473
-2,-2,-6,0,0,1,0,-2,2021-08-07 12:37:49,159473
-1,-2,-2,1,-3,-1,-2,-1,2021-08-07 12:37:49,160473
-1,-2,-2,1,1,0,1,1,2021-08-07 12:37:49,160473
-2,0,2,-3,0,1,1,0,2021-08-07 12:37:49,160473
-1,0,1,-3,-1,-3,-1,1,2021-08-07 12:37:49,160473
0,1,0,1,4,2,3,2,2021-08-07 12:37:49,160473
0,-1,-1,-1,-4,-2,-2,-1,2021-08-07 12:37:49,191472
-2,-3,-3,-7,-8,-4,-4,-2,2021-08-07 12:37:49,191472
0,1,2,-3,-6,-2,-1,0,2021-08-07 12:37:49,191472
2,4,1,1,6,5,2,2,2021-08-07 12:37:49,191472
0,1,-1,0,0,2,1,1,2021-08-07 12:37:49,207475
-2,-3,-3,4,2,2,-1,-2,2021-08-07 12:37:49,223471
2,0,0,-3,-4,-2,0,1,2021-08-07 12:37:49,238472
0,0,4,4,6,2,1,-2,2021-08-07 12:37:49,238472
0,-3,-3,-6,-8,-4,-2,-3,2021-08-07 12:37:49,238472
-2,-1,-1,-1,-1,-2,-1,0,2021-08-07 12:37:49,238472
-1,-2,-2,-3,-5,-5,-2,-1,2021-08-07 12:37:49,238472
0,-3,0,-2,-2,-2,-1,-1,2021-08-07 12:37:49,238472
-1,-2,-4,-1,0,-3,-2,-2,2021-08-07 12:37:49,254472
0,-2,0,-4,-4,-1,0,-1,2021-08-07 12:37:49,254472
0,-1,1,3,5,2,1,-2,2021-08-07 12:37:49,254472
1,1,1,3,5,2,0,1,2021-08-07 12:37:49,254472
-1,-2,-1,-1,-1,-1,-1,0,2021-08-07 12:37:49,270472
-2,-1,1,-3,-6,-4,-3,0,2021-08-07 12:37:49,270472
-3,-3,-2,0,0,-2,-2,-1,2021-08-07 12:37:49,270472
3,3,2,-1,5,7,6,3,2021-08-07 12:37:49,270472
-1,-3,-3,-5,-6,-5,-2,-1,2021-08-07 12:37:49,286472
2,2,1,2,7,4,3,2,2021-08-07 12:37:49,286472
1,2,0,-2,1,3,0,1,2021-08-07 12:37:49,286472
-6,-6,-5,-4,-13,-12,-8,-4,2021-08-07 12:37:49,286472
2,0,0,4,10,5,4,1,2021-08-07 12:37:49,317473
1,0,0,-3,-2,0,-1,-1,2021-08-07 12:37:49,317473
0,0,-2,1,1,1,1,-1,2021-08-07 12:37:49,317473
-2,-1,-2,-4,-4,-4,-3,-1,2021-08-07 12:37:49,317473
0,0,0,0,-5,-2,-3,-1,2021-08-07 12:37:49,333471
-1,-2,1,0,-2,-3,0,-2,2021-08-07 12:37:49,333471
-1,-1,0,4,4,1,0,0,2021-08-07 12:37:49,333471
2,2,0,-1,1,1,0,-1,2021-08-07 12:37:49,333471
1,1,2,3,8,4,1,-1,2021-08-07 12:37:49,349473
-2,-3,-4,-9,-9,-5,-3,-1,2021-08-07 12:37:49,364473
-1,-1,1,-1,-6,-4,-3,-1,2021-08-07 12:37:49,364473
-1,-1,1,3,6,5,3,0,2021-08-07 12:37:49,364473
0,-1,-3,1,3,3,-1,-1,2021-08-07 12:37:49,364473
0,0,-3,-1,-4,-3,-3,0,2021-08-07 12:37:49,364473
1,0,-2,-4,0,2,0,1,2021-08-07 12:37:49,364473
-2,-3,1,-5,-14,-10,-5,-3,2021-08-07 12:37:49,364473
0,2,3,7,7,4,1,0,2021-08-07 12:37:49,395473
0,0,-2,-1,0,-1,0,-2,2021-08-07 12:37:49,395473
-1,-1,-2,0,0,3,1,0,2021-08-07 12:37:49,398473
-1,-3,-5,-6,-6,-5,-4,-3,2021-08-07 12:37:49,399473
-2,-3,-2,-7,-9,-8,-4,0,2021-08-07 12:37:49,411473
-2,-1,0,2,0,1,0,0,2021-08-07 12:37:49,411473
-1,-1,-2,4,2,-1,-2,-2,2021-08-07 12:37:49,411473
2,5,6,5,6,5,4,3,2021-08-07 12:37:49,411473
-3,-1,-3,-7,-8,-4,-3,-2,2021-08-07 12:37:49,427474
-2,-1,-1,1,0,-1,-1,-2,2021-08-07 12:37:49,427474
0,-2,1,-1,-1,-2,0,-2,2021-08-07 12:37:49,427474
0,1,0,3,6,5,1,0,2021-08-07 12:37:49,427474
-2,-4,-4,-1,-1,-2,-2,-3,2021-08-07 12:37:49,459510
1,1,-1,-6,-8,-6,-2,-1,2021-08-07 12:37:49,459510
2,3,3,0,4,6,4,5,2021-08-07 12:37:49,459510
-3,-2,-2,1,1,-4,-3,-3,2021-08-07 12:37:49,459510
-2,-3,-3,-3,-6,-4,-2,-1,2021-08-07 12:37:49,459510
-3,-2,0,-1,-3,-2,-2,0,2021-08-07 12:37:49,459510
0,-1,1,2,6,3,1,1,2021-08-07 12:37:49,475499
-2,-2,-2,-1,-4,-3,-2,-1,2021-08-07 12:37:49,475499
0,-3,-1,-4,-6,-2,-2,-1,2021-08-07 12:37:49,491471
-2,-3,-1,0,2,0,-3,-1,2021-08-07 12:37:49,491471
1,2,1,0,1,0,2,-1,2021-08-07 12:37:49,491471
0,0,0,-1,0,0,1,0,2021-08-07 12:37:49,491471
-1,-2,-3,-5,-6,-5,-2,-3,2021-08-07 12:37:49,522472
1,-1,-1,2,-1,-2,-1,0,2021-08-07 12:37:49,538473
-1,-1,-1,0,2,1,-1,2,2021-08-07 12:37:49,554475
-3,-2,-3,-1,1,0,-1,-3,2021-08-07 12:37:49,570473
1,2,1,-1,-4,-1,0,0,2021-08-07 12:37:49,586471
-3,-2,-2,-2,1,2,-1,-1,2021-08-07 12:37:49,586471
1,1,2,2,0,-2,-1,-1,2021-08-07 12:37:49,586471
-1,-3,-2,-6,-9,-8,-5,-1,2021-08-07 12:37:49,586471
0,-1,-1,2,3,2,-1,-1,2021-08-07 12:37:49,586471
1,1,1,4,4,3,1,-1,2021-08-07 12:37:49,586471
0,1,0,1,2,0,-1,-1,2021-08-07 12:37:49,586471
0,-1,-2,-1,-2,-1,-2,-1,2021-08-07 12:37:49,587473
-1,-1,0,-2,1,-3,-2,-2,2021-08-07 12:37:49,587473
2,1,1,-2,1,2,2,1,2021-08-07 12:37:49,587473
-1,-1,-1,-2,-5,-2,0,0,2021-08-07 12:37:49,587473
0,-2,-1,-4,-3,-2,0,1,2021-08-07 12:37:49,587473
-1,-2,-3,-2,-3,0,-2,1,2021-08-07 12:37:49,587473
-2,-2,-4,1,4,6,1,0,2021-08-07 12:37:49,587473
-2,1,2,7,11,4,4,-1,2021-08-07 12:37:49,587473
-2,-2,0,5,3,2,1,-3,2021-08-07 12:37:49,602473
-4,-1,3,3,-1,-3,-1,-4,2021-08-07 12:37:49,617473
-3,-2,0,-3,-6,-6,-4,-4,2021-08-07 12:37:49,633473
0,-2,-2,-5,-11,-8,-5,-3,2021-08-07 12:37:49,665473
1,1,1,4,8,5,3,2,2021-08-07 12:37:49,681474
1,1,0,4,10,8,4,2,2021-08-07 12:37:49,681474
1,1,-1,-3,-5,-2,0,1,2021-08-07 12:37:49,681474
0,0,-2,-4,-4,-1,-1,-2,2021-08-07 12:37:49,681474
1,-3,0,1,-3,-5,-1,-1,2021-08-07 12:37:49,681474
-2,0,-3,-3,-2,-2,-2,-3,2021-08-07 12:37:49,681474
1,2,4,5,9,6,3,2,2021-08-07 12:37:49,681474
-1,-1,-1,1,3,2,1,0,2021-08-07 12:37:49,682474
-1,-1,-2,-5,-5,-2,-3,-1,2021-08-07 12:37:49,682474
-1,-2,-1,2,-4,-3,-2,-1,2021-08-07 12:37:49,682474
-2,-1,-2,-3,-3,-4,-3,-3,2021-08-07 12:37:49,682474
-1,-2,-5,-12,-13,-6,-5,-3,2021-08-07 12:37:49,682474
4,5,2,6,6,6,5,3,2021-08-07 12:37:49,682474
-1,2,3,3,6,4,1,1,2021-08-07 12:37:49,682474
-2,0,4,-1,-7,-6,-2,-1,2021-08-07 12:37:49,682474
-1,-3,-9,1,4,5,0,-1,2021-08-07 12:37:49,683472
-4,-3,-1,-1,0,-3,-2,-2,2021-08-07 12:37:49,683472
2,-1,-3,-3,-5,-4,-3,-1,2021-08-07 12:37:49,727472
0,-3,-1,-5,-5,-2,1,0,2021-08-07 12:37:49,742473
0,1,4,1,1,-1,0,-1,2021-08-07 12:37:49,758475
0,-1,-4,-3,-3,-3,-1,-1,2021-08-07 12:37:49,758475
-2,-1,-1,0,-2,-1,1,-1,2021-08-07 12:37:49,758475
1,1,-1,3,6,3,2,1,2021-08-07 12:37:49,758475
0,0,0,1,0,-2,0,1,2021-08-07 12:37:49,758475
-1,-1,-2,-2,0,-1,-2,-2,2021-08-07 12:37:49,758475
1,2,3,3,2,1,3,1,2021-08-07 12:37:49,759474
1,2,-1,1,5,4,2,1,2021-08-07 12:37:49,759474
1,1,0,3,2,-1,0,-1,2021-08-07 12:37:49,759474
-4,-1,-3,-2,-6,-4,-3,-3,2021-08-07 12:37:49,759474
-5,-5,-4,-10,-11,-10,-6,-4,2021-08-07 12:37:49,774473
1,-2,-3,0,-1,1,-1,-1,2021-08-07 12:37:49,774473
2,2,5,4,5,3,3,2,2021-08-07 12:37:49,774473
-1,1,-1,-2,-4,-4,-3,-2,2021-08-07 12:37:49,774473
1,-1,0,1,-2,-1,-1,0,2021-08-07 12:37:49,790472
-2,-3,-3,-5,-5,-6,-4,-3,2021-08-07 12:37:49,790472
-1,-2,-1,-3,-5,-3,-2,0,2021-08-07 12:37:49,790472
-1,-4,0,4,6,4,1,-2,2021-08-07 12:37:49,790472
2,1,-2,-4,-5,0,1,-1,2021-08-07 12:37:49,814473
-1,1,0,5,9,4,1,0,2021-08-07 12:37:49,814473
-1,0,-1,-3,-7,-4,-2,-2,2021-08-07 12:37:49,814473
-1,-1,-1,-3,-2,0,0,-1,2021-08-07 12:37:49,814473
