EMG 1,EMG 2,EMG 3,EMG 4,EMG 5,EMG 6,EMG 7,EMG 8,Timestamp,Milliseconds
-7,1,106,7,3,-7,1,4,2021-08-04 14:20:30,344392
6,1,56,3,-2,-3,-3,4,2021-08-04 14:20:30,344392
-20,-9,-52,-1,-6,5,-1,-5,2021-08-04 14:20:30,344392
1,-3,-96,-14,-3,9,-2,-3,2021-08-04 14:20:30,345396
0,-1,54,9,-4,14,3,-2,2021-08-04 14:20:30,345396
-5,-1,59,-28,0,15,-2,-4,2021-08-04 14:20:30,345396
1,1,-5,24,-2,13,-2,1,2021-08-04 14:20:30,345396
3,-2,-46,-20,-1,15,18,1,2021-08-04 14:20:30,346395
1,0,34,5,2,8,-39,17,2021-08-04 14:20:30,359393
3,1,33,8,6,5,-4,-60,2021-08-04 14:20:30,359393
5,2,-65,-14,4,4,4,2,2021-08-04 14:20:30,359393
-5,-7,-16,2,-6,-2,-4,-1,2021-08-04 14:20:30,375394
1,-1,-33,-3,-2,-4,7,-2,2021-08-04 14:20:30,391394
-4,-2,41,8,-2,-2,1,13,2021-08-04 14:20:30,406396
-3,2,-25,6,-4,-9,-11,-3,2021-08-04 14:20:30,437924
-2,4,-28,8,-2,-6,-4,-3,2021-08-04 14:20:30,453923
-2,1,6,-14,-1,-1,6,-6,2021-08-04 14:20:30,453923
-1,-2,-13,8,4,0,-3,9,2021-08-04 14:20:30,469920
2,0,0,2,4,0,7,-4,2021-08-04 14:20:30,469920
1,-1,-18,-3,-5,-5,-4,7,2021-08-04 14:20:30,469920
3,-5,-1,-4,-3,-7,0,-8,2021-08-04 14:20:30,485922
-2,-2,-30,-13,-4,-4,-1,5,2021-08-04 14:20:30,501923
2,-2,24,11,-2,-4,-3,2,2021-08-04 14:20:30,517922
1,5,18,14,7,3,-1,-3,2021-08-04 14:20:30,532920
1,-1,-76,4,1,5,4,-4,2021-08-04 14:20:30,547923
-3,-2,11,-9,-2,-3,-2,4,2021-08-04 14:20:30,547923
8,-7,-50,-6,-3,-4,2,-11,2021-08-04 14:20:30,548928
-10,-1,25,0,-2,-4,-1,8,2021-08-04 14:20:30,548928
0,4,51,7,4,1,-4,-13,2021-08-04 14:20:30,563922
-2,-4,33,7,1,0,1,-1,2021-08-04 14:20:30,579923
3,0,41,-15,-1,5,2,-1,2021-08-04 14:20:30,579923
1,-5,17,-17,-6,-16,2,-4,2021-08-04 14:20:30,579923
1,3,60,6,-1,7,-13,3,2021-08-04 14:20:30,579923
-3,-1,27,11,2,-1,9,-2,2021-08-04 14:20:30,580927
-3,2,53,0,-1,1,-15,2,2021-08-04 14:20:30,580927
0,-7,-11,-3,0,4,4,-3,2021-08-04 14:20:30,580927
-3,1,43,7,-1,-8,0,2,2021-08-04 14:20:30,580927
2,-2,-30,-1,-4,-4,0,-1,2021-08-04 14:20:30,581923
-4,0,26,5,0,0,-22,1,2021-08-04 14:20:30,581923
4,4,-31,0,7,7,-1,-3,2021-08-04 14:20:30,581923
0,-7,-21,-14,-6,-4,2,-1,2021-08-04 14:20:30,581923
-1,2,-8,2,-1,0,8,0,2021-08-04 14:20:30,594924
-3,1,-11,2,-2,-4,-16,-1,2021-08-04 14:20:30,610920
0,3,29,11,2,4,7,-2,2021-08-04 14:20:30,626922
-1,-6,-27,6,3,1,-11,0,2021-08-04 14:20:30,642923
-1,-3,-25,-23,-2,3,3,0,2021-08-04 14:20:30,658920
-2,3,2,-11,-3,-6,9,2,2021-08-04 14:20:30,674922
3,3,20,3,1,4,2,-1,2021-08-04 14:20:30,674922
-4,-10,-4,-4,-9,-6,5,-2,2021-08-04 14:20:30,674922
-2,-5,-14,-4,-1,-3,-10,-3,2021-08-04 14:20:30,690924
1,2,9,14,2,2,8,-2,2021-08-04 14:20:30,706923
-1,-5,-28,-17,-2,-5,-7,0,2021-08-04 14:20:30,706923
-1,2,2,-6,-2,0,8,-1,2021-08-04 14:20:30,722921
0,1,20,8,1,2,-6,-1,2021-08-04 14:20:30,738924
-3,0,-10,0,4,1,8,-1,2021-08-04 14:20:30,769924
0,-1,-16,7,-3,-2,-4,-3,2021-08-04 14:20:30,785921
-2,-1,5,-9,0,-4,-9,-1,2021-08-04 14:20:30,801923
-2,0,24,10,-4,-3,10,-2,2021-08-04 14:20:30,816920
-1,-1,-55,-17,3,2,23,2,2021-08-04 14:20:30,831925
-5,-10,-19,0,-12,-9,-44,-3,2021-08-04 14:20:30,831925
1,1,-26,2,6,2,4,1,2021-08-04 14:20:30,832924
2,2,9,5,3,6,-4,-1,2021-08-04 14:20:30,847923
-1,2,31,14,1,2,11,12,2021-08-04 14:20:30,862926
6,-7,-19,-24,-3,0,12,-29,2021-08-04 14:20:30,862926
2,1,-9,-8,-3,-2,-3,5,2021-08-04 14:20:30,862926
1,-1,1,0,-2,-4,-12,2,2021-08-04 14:20:30,878925
-4,-2,-2,6,-1,-1,7,-4,2021-08-04 14:20:30,894922
2,5,-3,1,2,-2,-7,10,2021-08-04 14:20:30,910921
-2,-1,4,7,2,0,-2,-3,2021-08-04 14:20:30,910921
-2,-2,-2,-7,-4,-4,3,-5,2021-08-04 14:20:30,926923
2,-4,5,-2,-5,-4,-10,2,2021-08-04 14:20:30,942921
-1,5,-15,10,1,-1,4,3,2021-08-04 14:20:30,942921
0,0,15,-15,-3,-6,4,-3,2021-08-04 14:20:30,943925
0,5,33,12,8,9,-1,4,2021-08-04 14:20:30,943925
-5,-8,-23,-24,-8,0,-6,-7,2021-08-04 14:20:30,957924
-2,2,22,26,4,1,4,4,2021-08-04 14:20:30,957924
0,1,-6,23,1,-1,11,-1,2021-08-04 14:20:30,973920
-1,-2,8,-10,-8,-9,-15,-3,2021-08-04 14:20:30,973920
-1,1,-8,-15,0,-3,-6,-4,2021-08-04 14:20:30,974924
-2,-1,24,3,-3,1,3,0,2021-08-04 14:20:30,974924
0,0,-16,0,-2,0,-5,2,2021-08-04 14:20:30,974924
1,0,-16,12,3,-1,3,-2,2021-08-04 14:20:30,975924
0,-2,-24,6,4,3,-1,-1,2021-08-04 14:20:30,975924
-1,2,23,-2,3,3,5,4,2021-08-04 14:20:30,975924
-1,-1,0,-5,-1,2,2,-1,2021-08-04 14:20:30,976923
-2,2,4,-7,-1,-5,10,0,2021-08-04 14:20:30,976923
-1,-1,10,-3,-6,-3,-12,-4,2021-08-04 14:20:30,976923
2,0,4,-1,2,-1,2,1,2021-08-04 14:20:30,989922
0,0,4,6,1,2,-8,-1,2021-08-04 14:20:30,989922
-2,0,3,-14,-4,-1,10,-2,2021-08-04 14:20:30,989922
0,-2,-7,1,-3,-6,0,0,2021-08-04 14:20:30,989922
-2,0,2,-8,-5,-1,-4,0,2021-08-04 14:20:30,990924
-1,2,-21,2,10,6,9,-1,2021-08-04 14:20:30,990924
1,-1,-4,11,-2,-3,-6,2,2021-08-04 14:20:30,990924
-3,-2,5,-7,2,1,-1,-2,2021-08-04 14:20:30,990924
-3,-2,-34,-10,-2,1,-3,-1,2021-08-04 14:20:30,991923
-2,0,-7,-14,-4,0,1,-2,2021-08-04 14:20:30,991923
-3,-2,-14,-1,2,1,-8,-4,2021-08-04 14:20:30,991923
0,1,0,1,-5,-3,-6,-2,2021-08-04 14:20:30,991923
-1,0,15,12,0,-1,5,0,2021-08-04 14:20:30,991923
2,-4,-11,-5,-4,-1,-2,-1,2021-08-04 14:20:30,992923
-2,-2,-13,-7,-2,-1,-6,-3,2021-08-04 14:20:30,992923
0,-1,10,21,4,1,7,-1,2021-08-04 14:20:30,992923
-2,-1,3,-25,1,-3,-1,0,2021-08-04 14:20:30,992923
-1,0,1,1,2,2,-1,-2,2021-08-04 14:20:30,993923
-1,-1,-20,4,-1,-2,-4,-1,2021-08-04 14:20:30,993923
-1,0,26,7,-3,-2,1,0,2021-08-04 14:20:30,993923
0,1,11,-7,-6,-1,-4,-3,2021-08-04 14:20:30,993923
-2,-2,17,-13,0,-1,-4,-2,2021-08-04 14:20:30,994923
-2,0,-18,11,2,2,3,-1,2021-08-04 14:20:31,005923
0,2,-2,-1,7,5,3,0,2021-08-04 14:20:31,021920
0,-2,14,-4,-4,-3,0,1,2021-08-04 14:20:31,036924
-1,1,-2,1,-2,-5,-5,-1,2021-08-04 14:20:31,036924
-1,-2,8,-5,-4,-3,-3,-1,2021-08-04 14:20:31,052923
-1,-1,-4,-1,-2,-3,-3,0,2021-08-04 14:20:31,052923
-3,-2,-2,7,-3,-3,-2,-1,2021-08-04 14:20:31,052923
-2,-1,-8,1,-4,-2,-2,-1,2021-08-04 14:20:31,052923
-1,-1,8,-4,4,2,-2,2,2021-08-04 14:20:31,053924
0,-1,3,6,3,-1,-1,-1,2021-08-04 14:20:31,053924
-1,-3,-41,0,-5,2,1,0,2021-08-04 14:20:31,053924
-4,-6,-28,-24,-7,-6,-1,-3,2021-08-04 14:20:31,053924
0,1,23,-12,-3,-2,-2,0,2021-08-04 14:20:31,053924
0,2,5,9,1,-2,-1,-1,2021-08-04 14:20:31,068922
0,0,9,3,-2,0,-1,0,2021-08-04 14:20:31,084921
1,1,-5,7,-3,0,0,1,2021-08-04 14:20:31,084921
2,0,-13,-8,3,1,1,1,2021-08-04 14:20:31,084921
0,1,6,0,0,1,1,1,2021-08-04 14:20:31,084921
0,0,-1,0,2,-3,0,-2,2021-08-04 14:20:31,085923
1,1,-2,5,-2,0,-1,1,2021-08-04 14:20:31,100924
0,-1,4,-7,-7,-1,-1,-1,2021-08-04 14:20:31,105922
-2,-1,3,8,-4,-2,1,-1,2021-08-04 14:20:31,105922
0,-3,-6,-8,1,0,-1,0,2021-08-04 14:20:31,105922
-2,-3,9,-5,1,-1,0,-1,2021-08-04 14:20:31,115922
-1,-2,2,16,1,-1,0,0,2021-08-04 14:20:31,115922
-3,-3,21,-15,-3,0,-1,0,2021-08-04 14:20:31,115922
-2,0,10,11,1,-1,-1,-1,2021-08-04 14:20:31,115922
-3,0,3,1,1,1,2,0,2021-08-04 14:20:31,130924
0,-1,-16,-6,-2,-1,-3,-1,2021-08-04 14:20:31,130924
1,-2,-6,4,0,-1,-2,0,2021-08-04 14:20:31,130924
-2,0,9,-3,-1,-2,-2,0,2021-08-04 14:20:31,131924
-1,1,-4,0,-4,-4,-3,0,2021-08-04 14:20:31,131924
0,-1,-1,-2,1,-1,0,-2,2021-08-04 14:20:31,131924
1,-3,-6,9,3,4,0,-1,2021-08-04 14:20:31,145923
0,-2,0,-2,2,6,2,-1,2021-08-04 14:20:31,145923
-2,0,11,-10,-2,-2,-3,0,2021-08-04 14:20:31,160925
-2,-2,-29,-9,-4,-2,-1,-2,2021-08-04 14:20:31,160925
-2,-1,0,-3,-5,-2,-3,-2,2021-08-04 14:20:31,160925
-2,0,5,13,3,-2,0,-1,2021-08-04 14:20:31,161925
1,-1,1,4,1,1,1,-1,2021-08-04 14:20:31,161925
-1,0,14,-18,2,-3,-1,0,2021-08-04 14:20:31,161925
0,0,-24,5,-3,1,-1,0,2021-08-04 14:20:31,161925
0,0,-1,-3,-4,-4,-1,-3,2021-08-04 14:20:31,175923
-3,-4,-1,11,-3,-2,-2,-1,2021-08-04 14:20:31,190925
-1,-2,-1,-2,-7,-1,-2,-2,2021-08-04 14:20:31,190925
0,1,1,-9,6,3,0,-1,2021-08-04 14:20:31,206923
-2,-4,-16,1,-1,2,0,1,2021-08-04 14:20:31,206923
1,-1,5,6,2,-2,1,-1,2021-08-04 14:20:31,207924
0,0,18,-1,-2,-1,-1,0,2021-08-04 14:20:31,207924
-2,-1,-5,-3,-8,-5,-2,-1,2021-08-04 14:20:31,207924
-1,-2,20,4,-2,1,0,-2,2021-08-04 14:20:31,208922
-1,-4,-51,-10,1,0,-1,-3,2021-08-04 14:20:31,208922
-2,-1,-16,9,-1,-1,0,1,2021-08-04 14:20:31,222922
2,3,-11,-14,-3,0,-1,-3,2021-08-04 14:20:31,238923
-1,1,15,6,2,1,-1,0,2021-08-04 14:20:31,238923
1,2,12,5,0,3,2,1,2021-08-04 14:20:31,254921
1,-1,3,5,1,0,0,-1,2021-08-04 14:20:31,254921
-2,-1,-14,-5,-2,-4,0,-1,2021-08-04 14:20:31,254921
0,-2,-9,-19,-5,1,-3,-1,2021-08-04 14:20:31,255927
-1,0,7,2,-2,5,0,-2,2021-08-04 14:20:31,255927
-1,0,-4,-4,9,1,3,0,2021-08-04 14:20:31,255927
1,0,21,4,2,6,2,0,2021-08-04 14:20:31,255927
-1,-1,-4,18,-4,-6,-2,0,2021-08-04 14:20:31,256925
-2,-2,6,-9,-4,-5,-3,-2,2021-08-04 14:20:31,270924
-1,0,16,-2,-2,1,-2,-3,2021-08-04 14:20:31,270924
-2,-5,-20,2,-1,-7,-3,-1,2021-08-04 14:20:31,270924
-2,0,-21,-8,0,-1,0,-1,2021-08-04 14:20:31,270924
-2,-1,-5,-15,-2,-1,-2,-1,2021-08-04 14:20:31,271923
-1,-1,5,7,0,-2,-1,0,2021-08-04 14:20:31,271923
-2,1,6,3,0,-1,-1,-1,2021-08-04 14:20:31,271923
0,3,13,6,0,-1,0,1,2021-08-04 14:20:31,272923
0,-1,-8,-5,3,1,1,0,2021-08-04 14:20:31,272923
-3,-1,-1,-14,-4,-2,-2,-2,2021-08-04 14:20:31,272923
1,-1,2,6,-1,-1,1,-1,2021-08-04 14:20:31,272923
-1,-1,10,-1,1,1,0,0,2021-08-04 14:20:31,273922
-2,2,13,4,1,-2,0,-1,2021-08-04 14:20:31,273922
0,-2,-5,4,-2,3,0,2,2021-08-04 14:20:31,302924
-3,-3,-5,-2,-2,-2,-1,13,2021-08-04 14:20:31,318924
-1,1,-7,-6,0,0,0,-39,2021-08-04 14:20:31,318924
-2,-4,-4,8,0,-3,-4,-5,2021-08-04 14:20:31,318924
1,0,-6,-2,-3,-1,-1,11,2021-08-04 14:20:31,350923
22,-2,3,-4,-1,2,1,-10,2021-08-04 14:20:31,350923
-14,2,3,-3,2,1,0,24,2021-08-04 14:20:31,350923
11,0,-2,2,-2,-1,0,-14,2021-08-04 14:20:31,351925
-8,1,0,-1,-2,-2,2,-3,2021-08-04 14:20:31,351925
5,-1,-4,-4,-1,-3,-2,28,2021-08-04 14:20:31,351925
3,0,11,-2,-1,-2,-2,-12,2021-08-04 14:20:31,351925
1,1,-2,0,0,0,-1,-1,2021-08-04 14:20:31,352924
3,0,2,-1,0,-2,31,15,2021-08-04 14:20:31,352924
-13,-1,-4,0,-1,-2,-28,-53,2021-08-04 14:20:31,352924
1,-4,-10,-4,-1,0,1,9,2021-08-04 14:20:31,352924
18,1,4,2,-1,0,9,-1,2021-08-04 14:20:31,353921
-23,-2,-1,-2,-1,-3,-3,17,2021-08-04 14:20:31,353921
3,1,0,-2,-1,-1,3,-47,2021-08-04 14:20:31,353921
7,-1,-1,1,3,1,15,10,2021-08-04 14:20:31,353921
8,-1,0,0,-1,-2,-29,-11,2021-08-04 14:20:31,354923
-2,-1,2,0,1,0,-2,-52,2021-08-04 14:20:31,354923
-1,-1,-4,-3,-1,1,5,19,2021-08-04 14:20:31,354923
12,9,2,-2,-2,-3,-6,0,2021-08-04 14:20:31,354923
-29,-34,-9,2,0,-1,20,-1,2021-08-04 14:20:31,354923
49,24,-2,-1,0,2,15,34,2021-08-04 14:20:31,355922
-1,17,1,-1,0,0,-29,-11,2021-08-04 14:20:31,382924
29,6,-2,0,0,-2,1,16,2021-08-04 14:20:31,382924
-29,2,-4,-4,0,0,2,9,2021-08-04 14:20:31,398925
-12,15,-5,-1,-3,-3,-15,-6,2021-08-04 14:20:31,429923
-12,-16,1,2,2,0,32,-4,2021-08-04 14:20:31,429923
17,-2,2,-2,-1,0,-37,40,2021-08-04 14:20:31,444923
25,17,5,2,-2,-4,-9,-53,2021-08-04 14:20:31,460923
-20,0,4,2,2,2,-3,7,2021-08-04 14:20:31,460923
-3,-2,-10,-2,-3,-1,13,-10,2021-08-04 14:20:31,460923
-33,-5,-11,-1,-2,-2,-9,14,2021-08-04 14:20:31,461924
17,-12,10,0,0,0,5,14,2021-08-04 14:20:31,461924
43,-5,-1,0,1,1,-16,-2,2021-08-04 14:20:31,461924
-48,-10,-1,-1,-2,-2,7,-29,2021-08-04 14:20:31,476922
23,-16,0,-2,0,-1,12,-28,2021-08-04 14:20:31,492921
-72,1,-2,1,-2,-2,-5,4,2021-08-04 14:20:31,492921
25,-8,-5,0,-2,0,5,5,2021-08-04 14:20:31,493928
-35,4,4,-1,1,-1,-20,38,2021-08-04 14:20:31,493928
-30,-5,-3,-2,-1,-4,-4,-82,2021-08-04 14:20:31,493928
31,8,0,0,1,1,21,22,2021-08-04 14:20:31,493928
-27,-24,-5,-1,1,2,-2,-8,2021-08-04 14:20:31,494924
12,15,2,-2,-2,-1,8,37,2021-08-04 14:20:31,494924
4,3,1,-2,-1,0,-6,-24,2021-08-04 14:20:31,494924
5,3,-1,1,-2,-1,-8,31,2021-08-04 14:20:31,495926
-15,8,-5,-1,-1,-2,13,-13,2021-08-04 14:20:31,495926
29,2,0,2,3,0,-39,6,2021-08-04 14:20:31,495926
6,-8,0,-3,-2,0,9,11,2021-08-04 14:20:31,495926
1,2,0,-1,-1,0,-1,6,2021-08-04 14:20:31,496928
-2,-11,-1,0,-1,-1,-4,-18,2021-08-04 14:20:31,496928
-25,-5,-2,-1,-1,-2,6,16,2021-08-04 14:20:31,508925
1,1,-3,1,-2,-4,3,26,2021-08-04 14:20:31,524923
-11,-11,-3,-1,2,2,-4,-49,2021-08-04 14:20:31,540975
-5,-3,-4,-1,-3,-3,-6,-20,2021-08-04 14:20:31,556978
20,-14,-5,-3,-2,-2,6,15,2021-08-04 14:20:31,572978
6,8,-6,-1,-1,-1,-1,2,2021-08-04 14:20:31,588975
-38,2,2,-1,-1,-2,2,12,2021-08-04 14:20:31,604975
5,7,3,-1,-1,-1,-8,-7,2021-08-04 14:20:31,620975
15,-17,-4,0,-3,-3,1,5,2021-08-04 14:20:31,636979
-22,7,1,0,0,2,3,-2,2021-08-04 14:20:31,652976
26,2,-4,3,0,-1,-4,13,2021-08-04 14:20:31,652976
-14,-3,-4,-2,0,-1,-5,3,2021-08-04 14:20:31,652976
12,8,4,0,-1,1,3,10,2021-08-04 14:20:31,653976
-26,-7,-6,-2,-1,-2,-1,4,2021-08-04 14:20:31,653976
-5,-2,2,-4,-2,-2,0,-15,2021-08-04 14:20:31,653976
-1,1,2,-2,-1,0,-7,18,2021-08-04 14:20:31,653976
6,-13,-4,-3,-1,-1,6,-6,2021-08-04 14:20:31,654976
7,18,17,-2,0,0,1,3,2021-08-04 14:20:31,654976
5,2,-1,-2,-1,-3,-2,-4,2021-08-04 14:20:31,654976
-14,-13,-5,0,-3,1,-3,-2,2021-08-04 14:20:31,668974
22,3,0,0,0,-1,1,7,2021-08-04 14:20:31,668974
-3,0,1,-1,-2,0,-1,-29,2021-08-04 14:20:31,668974
-1,0,3,1,-2,1,-3,11,2021-08-04 14:20:31,684972
4,4,12,1,-3,1,-1,-13,2021-08-04 14:20:31,700973
-2,-4,5,-2,-2,0,1,10,2021-08-04 14:20:31,700973
-3,-2,-5,0,-3,-2,-2,22,2021-08-04 14:20:31,700973
2,4,-1,-1,-2,-3,0,8,2021-08-04 14:20:31,701979
7,-5,-5,0,-1,-4,-3,-3,2021-08-04 14:20:31,715974
-5,-2,-6,-2,-1,-1,3,-24,2021-08-04 14:20:31,715974
-2,-8,-3,1,0,0,0,9,2021-08-04 14:20:31,715974
2,-2,-2,0,-1,-2,-4,1,2021-08-04 14:20:31,731976
-4,2,1,0,0,1,0,12,2021-08-04 14:20:31,731976
-5,3,5,-2,-2,-4,-1,-25,2021-08-04 14:20:31,731976
-1,-4,-4,-1,-1,0,1,12,2021-08-04 14:20:31,732978
4,2,2,0,-2,0,-1,2,2021-08-04 14:20:31,748237
3,1,-3,-1,-2,-2,-2,0,2021-08-04 14:20:31,748237
-26,-3,1,-1,1,1,0,-6,2021-08-04 14:20:31,763560
3,-6,2,1,2,0,2,-3,2021-08-04 14:20:31,779561
5,1,-2,0,1,1,0,19,2021-08-04 14:20:31,795559
-4,-4,3,-1,-1,-1,-1,5,2021-08-04 14:20:31,795559
5,6,1,0,-4,-2,0,-3,2021-08-04 14:20:31,796562
-3,-11,-9,-2,-1,0,-3,1,2021-08-04 14:20:31,796562
-4,-1,-6,1,-2,-1,-2,7,2021-08-04 14:20:31,811565
-4,-4,-7,-3,0,-1,-2,18,2021-08-04 14:20:31,811565
4,1,0,-1,-1,-1,0,-6,2021-08-04 14:20:31,811565
-2,2,-6,0,-1,1,1,4,2021-08-04 14:20:31,811565
3,1,-1,0,0,-1,-1,-5,2021-08-04 14:20:31,827559
6,13,6,-1,-1,-2,0,1,2021-08-04 14:20:31,859559
-4,2,-1,-2,0,0,1,-13,2021-08-04 14:20:31,875561
-3,-2,1,2,0,1,0,-1,2021-08-04 14:20:31,875561
-2,0,0,-2,-2,0,-2,-8,2021-08-04 14:20:31,891562
-4,-4,-2,-1,0,0,-2,-5,2021-08-04 14:20:31,891562
-6,-2,-3,0,1,-1,0,6,2021-08-04 14:20:31,891562
0,-1,-2,-1,-4,-2,1,-1,2021-08-04 14:20:31,892561
4,-3,-1,0,-1,-2,0,-3,2021-08-04 14:20:31,907559
-3,-4,0,-2,0,0,1,-4,2021-08-04 14:20:31,907559
2,2,0,-1,-1,-1,0,5,2021-08-04 14:20:31,923563
4,-3,0,-1,0,0,-1,21,2021-08-04 14:20:31,923563
-1,2,-1,-1,0,-1,-1,-24,2021-08-04 14:20:31,923563
-2,-4,-3,1,0,0,1,0,2021-08-04 14:20:31,924562
-4,-3,5,0,0,0,-2,-9,2021-08-04 14:20:31,924562
4,2,1,-3,-1,-1,0,11,2021-08-04 14:20:31,924562
0,-3,-2,-3,-1,-1,0,7,2021-08-04 14:20:31,925565
-8,-1,2,1,0,-1,-2,-6,2021-08-04 14:20:31,925565
8,-4,-7,2,-1,-1,0,-2,2021-08-04 14:20:31,925565
-4,2,6,-1,-2,0,-1,-14,2021-08-04 14:20:31,925565
-4,-4,-2,-1,0,2,0,1,2021-08-04 14:20:31,955561
4,-4,-1,-1,-1,-1,-2,-8,2021-08-04 14:20:31,955561
5,0,-2,-1,-2,-1,0,7,2021-08-04 14:20:31,955561
-5,-1,-4,0,0,0,-2,-10,2021-08-04 14:20:31,971559
3,0,-1,-1,-1,0,0,-1,2021-08-04 14:20:31,971820
-2,-4,-4,1,-2,-2,-3,21,2021-08-04 14:20:31,971820
-2,-1,2,-1,-1,0,-1,-2,2021-08-04 14:20:31,972561
-5,0,-3,-2,-2,-2,1,-12,2021-08-04 14:20:31,972561
3,-2,1,-2,-1,0,0,11,2021-08-04 14:20:31,972561
-4,-2,-1,-1,0,0,-1,-8,2021-08-04 14:20:31,972561
-2,-1,3,-2,0,-2,0,2,2021-08-04 14:20:31,973562
3,-1,-2,0,-1,-2,0,-5,2021-08-04 14:20:31,973562
8,-1,-6,2,2,1,2,7,2021-08-04 14:20:31,987090
-31,-2,5,-2,0,0,-3,-41,2021-08-04 14:20:31,987090
6,-1,-4,-2,-3,-1,-2,7,2021-08-04 14:20:31,987090
-28,-4,-4,-4,-2,-1,-1,3,2021-08-04 14:20:32,003091
-5,-1,-4,-1,-1,-1,-2,-5,2021-08-04 14:20:32,049091
9,-2,1,1,0,-1,0,7,2021-08-04 14:20:32,049091
-3,1,2,0,-1,0,-1,-2,2021-08-04 14:20:32,049091
1,-1,-1,0,1,0,-1,-6,2021-08-04 14:20:32,049091
1,0,0,-3,-3,-2,-3,5,2021-08-04 14:20:32,050094
2,-1,-2,-1,-2,-1,-1,2,2021-08-04 14:20:32,050094
1,-1,-1,0,-1,-1,-2,-3,2021-08-04 14:20:32,050094
9,0,0,2,0,0,1,4,2021-08-04 14:20:32,053091
-6,-1,-3,-6,-1,-1,0,-3,2021-08-04 14:20:32,053091
7,-1,-1,-2,-2,0,0,4,2021-08-04 14:20:32,053091
-3,-1,-2,0,0,0,-1,-2,2021-08-04 14:20:32,064090
2,-1,1,1,-1,0,-1,-1,2021-08-04 14:20:32,064090
-4,1,0,0,1,0,0,-3,2021-08-04 14:20:32,064090
2,-1,-4,-1,-2,-3,-1,-1,2021-08-04 14:20:32,065091
3,-1,1,-3,-1,-2,0,4,2021-08-04 14:20:32,065091
-1,-2,-1,-1,-1,-3,-2,-4,2021-08-04 14:20:32,066093
-3,-2,2,-1,-1,-1,-1,-3,2021-08-04 14:20:32,095092
5,0,-1,-3,-2,-1,1,5,2021-08-04 14:20:32,111091
-3,-2,-1,-1,-1,0,-1,0,2021-08-04 14:20:32,111091
4,-1,2,-2,0,-2,-1,-1,2021-08-04 14:20:32,111091
-3,-1,-5,11,-1,-2,-1,-4,2021-08-04 14:20:32,143090
-1,-2,-3,1,-1,1,-2,-2,2021-08-04 14:20:32,143090
-2,0,-1,-4,-1,-1,-2,34,2021-08-04 14:20:32,143090
0,1,0,-4,-1,1,-2,-32,2021-08-04 14:20:32,144091
-3,-2,3,-2,-1,-1,-2,2,2021-08-04 14:20:32,144091
-1,-1,-2,2,-1,-2,0,1,2021-08-04 14:20:32,159090
0,-1,0,0,-2,-1,0,1,2021-08-04 14:20:32,159090
0,-1,-3,1,-1,-1,0,9,2021-08-04 14:20:32,159090
-1,-1,2,-1,0,-1,-2,-2,2021-08-04 14:20:32,160092
1,0,-4,0,0,-2,-1,-3,2021-08-04 14:20:32,175092
8,0,2,-3,0,2,0,-12,2021-08-04 14:20:32,175092
-35,-2,-4,-1,-2,0,-2,9,2021-08-04 14:20:32,175092
0,-1,1,-1,-3,-1,-2,-8,2021-08-04 14:20:32,207088
0,-1,0,-4,0,-3,1,4,2021-08-04 14:20:32,207088
-2,-1,-3,8,-2,-3,-1,-7,2021-08-04 14:20:32,207088
11,-1,1,-3,0,-1,0,0,2021-08-04 14:20:32,208090
-1,-1,-3,-2,0,-1,0,4,2021-08-04 14:20:32,208090
-5,0,1,0,0,1,0,0,2021-08-04 14:20:32,208090
-1,0,2,0,-1,-2,-1,-7,2021-08-04 14:20:32,208090
6,1,-3,1,-1,-1,-1,1,2021-08-04 14:20:32,208090
-2,-1,0,-1,1,-1,-3,-3,2021-08-04 14:20:32,209090
6,1,-1,-2,0,-2,-1,-1,2021-08-04 14:20:32,209090
-4,-2,-2,-3,-1,-1,0,-8,2021-08-04 14:20:32,209090
1,-3,0,1,-2,1,1,4,2021-08-04 14:20:32,209090
-2,-1,-6,-2,-2,-1,1,-1,2021-08-04 14:20:32,210090
2,-1,5,0,-2,1,-2,-1,2021-08-04 14:20:32,210090
-3,-1,0,-4,-1,0,0,-2,2021-08-04 14:20:32,210090
4,1,2,-1,1,0,-1,0,2021-08-04 14:20:32,210090
0,-2,-1,3,-1,-1,-1,-2,2021-08-04 14:20:32,211091
-3,-1,-2,-1,-2,0,-1,-1,2021-08-04 14:20:32,211091
-3,-1,0,-1,-1,-2,-2,-2,2021-08-04 14:20:32,211091
4,0,-1,-3,1,0,0,2,2021-08-04 14:20:32,211091
-2,-1,2,-1,0,0,1,-3,2021-08-04 14:20:32,212089
-1,0,-2,0,-2,0,-1,-1,2021-08-04 14:20:32,212089
-1,-3,-3,0,-1,-2,0,-2,2021-08-04 14:20:32,212089
1,0,0,-2,-1,-4,-2,-1,2021-08-04 14:20:32,213092
-1,-3,1,0,-1,1,1,1,2021-08-04 14:20:32,213092
-2,-1,-4,-1,-1,0,0,-1,2021-08-04 14:20:32,222091
-2,0,3,-3,-1,0,-1,-2,2021-08-04 14:20:32,222091
0,-1,-3,13,-1,0,-1,-1,2021-08-04 14:20:32,222091
-1,1,1,-2,-3,-2,0,-1,2021-08-04 14:20:32,223092
0,-2,-2,-2,-2,0,0,-1,2021-08-04 14:20:32,223092
-1,-1,-2,1,1,0,-1,-3,2021-08-04 14:20:32,223092
1,-3,0,0,-1,-1,-2,-1,2021-08-04 14:20:32,224091
1,0,-1,0,-1,-2,-2,-1,2021-08-04 14:20:32,238089
-1,0,-1,-1,-1,-3,-3,-2,2021-08-04 14:20:32,238089
-1,-1,-2,0,0,-1,-1,-2,2021-08-04 14:20:32,284090
0,0,0,-4,-1,0,1,0,2021-08-04 14:20:32,284090
1,0,-3,0,0,0,2,-2,2021-08-04 14:20:32,300091
0,0,1,-1,1,0,-2,0,2021-08-04 14:20:32,316091
-1,0,-1,-1,-1,0,-1,-1,2021-08-04 14:20:32,332091
1,-3,0,-3,0,-1,0,1,2021-08-04 14:20:32,332091
-1,-1,-1,-1,-1,-3,-2,0,2021-08-04 14:20:32,332091
0,-1,2,-1,-1,-2,0,0,2021-08-04 14:20:32,333090
1,-3,-6,-2,-2,-1,0,-1,2021-08-04 14:20:32,333090
-2,0,-5,-12,0,-1,-2,0,2021-08-04 14:20:32,348091
-1,0,0,-2,-1,-1,-2,0,2021-08-04 14:20:32,364091
-1,-2,0,2,-2,1,0,-1,2021-08-04 14:20:32,364091
-1,0,-1,0,0,0,-2,-2,2021-08-04 14:20:32,364091
1,-2,0,3,-1,1,1,-1,2021-08-04 14:20:32,364091
-1,0,-2,-4,-1,-1,-4,0,2021-08-04 14:20:32,365091
0,0,1,-2,1,0,-1,-1,2021-08-04 14:20:32,365091
0,0,-5,3,-1,-1,-1,0,2021-08-04 14:20:32,365091
0,-1,2,0,-2,-3,-1,-1,2021-08-04 14:20:32,366092
-2,0,1,-2,-3,-1,0,0,2021-08-04 14:20:32,366092
0,-1,0,3,-2,-2,-2,-3,2021-08-04 14:20:32,366092
-1,2,1,4,0,0,-2,-1,2021-08-04 14:20:32,366092
0,-1,-6,-15,-3,-3,0,0,2021-08-04 14:20:32,366092
-1,-1,2,5,1,2,0,0,2021-08-04 14:20:32,395092
0,-1,1,4,3,0,1,0,2021-08-04 14:20:32,395092
-1,-1,3,0,0,2,0,-1,2021-08-04 14:20:32,395092
0,0,-1,4,-1,0,-3,0,2021-08-04 14:20:32,396091
-1,-2,1,-7,-3,-4,-2,-2,2021-08-04 14:20:32,396091
-3,0,-4,-5,-2,-2,-3,-1,2021-08-04 14:20:32,396091
-3,-1,-2,-1,-1,-2,-1,0,2021-08-04 14:20:32,396091
-1,-1,-2,1,1,-1,-2,-1,2021-08-04 14:20:32,397091
-1,-2,0,0,1,2,0,-2,2021-08-04 14:20:32,411091
-1,0,2,3,-2,-1,-1,0,2021-08-04 14:20:32,427092
0,-2,1,-7,-4,-1,0,-2,2021-08-04 14:20:32,443088
-1,-2,1,-3,-3,-2,0,0,2021-08-04 14:20:32,443088
-2,-1,1,2,1,-1,-2,-1,2021-08-04 14:20:32,443088
-1,-2,-2,-2,1,0,-1,-2,2021-08-04 14:20:32,444092
0,0,1,1,-2,-1,1,1,2021-08-04 14:20:32,459091
-1,0,6,12,1,0,-1,-2,2021-08-04 14:20:32,459091
-1,-1,-30,-27,-1,-3,0,-2,2021-08-04 14:20:32,475090
0,1,-10,1,-1,0,-1,-1,2021-08-04 14:20:32,475090
0,-1,17,-1,-1,-1,-1,-1,2021-08-04 14:20:32,475090
1,1,-12,6,1,0,0,-1,2021-08-04 14:20:32,491088
0,1,28,10,-3,-1,0,-2,2021-08-04 14:20:32,491088
-1,0,0,-6,-2,-2,-2,0,2021-08-04 14:20:32,491088
0,-1,-15,-3,-1,-1,-1,-2,2021-08-04 14:20:32,492093
0,1,-2,-3,1,-3,-2,1,2021-08-04 14:20:32,492093
-1,-2,5,2,-1,-2,-1,-1,2021-08-04 14:20:32,492093
-2,-1,2,-4,-2,0,0,0,2021-08-04 14:20:32,492093
0,0,-1,6,0,0,-2,-1,2021-08-04 14:20:32,492093
-2,0,11,-2,-1,2,1,0,2021-08-04 14:20:32,493089
0,-1,12,0,2,0,1,-1,2021-08-04 14:20:32,507088
0,0,-10,5,-1,0,0,0,2021-08-04 14:20:32,507088
-1,-2,10,-4,-2,-5,-2,0,2021-08-04 14:20:32,523092
-2,-1,-24,-6,-1,-1,-1,-1,2021-08-04 14:20:32,523092
1,1,6,3,-2,-2,-1,0,2021-08-04 14:20:32,523092
-1,-4,-5,-4,-1,-1,-2,-1,2021-08-04 14:20:32,524093
0,0,2,-1,-1,-1,0,-1,2021-08-04 14:20:32,539088
-2,1,12,4,-2,-3,-2,-2,2021-08-04 14:20:32,539088
-3,-4,-26,-11,-2,-2,0,1,2021-08-04 14:20:32,539088
-1,0,1,-2,0,-2,-1,0,2021-08-04 14:20:32,540092
-1,-1,-11,-3,-1,-1,0,0,2021-08-04 14:20:32,571090
0,0,38,4,0,-1,-1,-1,2021-08-04 14:20:32,587091
0,-2,-21,3,-2,1,-1,0,2021-08-04 14:20:32,603091
-2,-3,7,0,-4,-4,-1,-2,2021-08-04 14:20:32,619090
0,-2,-7,-13,-1,-2,-3,-1,2021-08-04 14:20:32,619090
-2,-2,11,6,0,1,-1,0,2021-08-04 14:20:32,619090
0,-1,-20,4,2,3,-1,1,2021-08-04 14:20:32,620090
2,0,10,3,3,0,2,3,2021-08-04 14:20:32,620090
-1,2,4,8,3,0,0,0,2021-08-04 14:20:32,620090
0,-2,-14,-23,-2,-2,-1,-1,2021-08-04 14:20:32,620090
-2,-2,-7,4,-2,-4,-2,-2,2021-08-04 14:20:32,621090
-3,-6,12,-5,-3,-3,-1,-3,2021-08-04 14:20:32,621090
-1,1,6,11,1,1,1,0,2021-08-04 14:20:32,621090
-1,-2,-36,-12,0,0,-1,-1,2021-08-04 14:20:32,621090
-1,0,35,3,0,-3,-3,-2,2021-08-04 14:20:32,635092
-1,1,-22,0,1,1,0,-2,2021-08-04 14:20:32,635092
-1,-6,-26,-17,-5,-3,0,-2,2021-08-04 14:20:32,636090
0,-1,43,17,1,0,-1,0,2021-08-04 14:20:32,636090
-1,0,0,-4,-1,1,0,0,2021-08-04 14:20:32,651090
0,-6,-40,-6,-3,-3,-2,19,2021-08-04 14:20:32,651090
12,-1,41,-5,1,-1,-1,-37,2021-08-04 14:20:32,667088
-10,-1,-60,3,-1,1,0,-2,2021-08-04 14:20:32,682093
-1,1,22,-12,1,-1,-1,0,2021-08-04 14:20:32,697089
0,3,18,2,0,1,0,4,2021-08-04 14:20:32,713091
3,-1,-25,2,3,0,-3,10,2021-08-04 14:20:32,713091
3,-1,8,-3,-3,-3,-2,-2,2021-08-04 14:20:32,713091
-6,-3,1,4,1,-2,1,-7,2021-08-04 14:20:32,714090
0,2,17,5,1,2,-2,-4,2021-08-04 14:20:32,729091
-6,0,-25,1,-3,0,1,6,2021-08-04 14:20:32,729091
-2,-2,39,-2,0,-1,-4,-4,2021-08-04 14:20:32,745090
1,-1,-41,8,-2,-1,-1,5,2021-08-04 14:20:32,745090
-2,-4,50,-7,-3,-4,0,-6,2021-08-04 14:20:32,761090
-5,1,-22,-12,3,2,-3,4,2021-08-04 14:20:32,777092
0,-2,-35,10,-1,-2,0,3,2021-08-04 14:20:32,777092
5,-1,12,-18,-5,-2,0,0,2021-08-04 14:20:32,778095
-2,2,31,6,0,-3,-3,-5,2021-08-04 14:20:32,778095
-3,1,-8,9,1,-1,-2,3,2021-08-04 14:20:32,793092
-5,0,10,-4,0,1,2,-4,2021-08-04 14:20:32,809091
7,-2,1,9,2,1,1,28,2021-08-04 14:20:32,809091
0,-1,-52,-4,2,3,1,-49,2021-08-04 14:20:32,809091
13,-3,20,-8,-5,-1,-1,10,2021-08-04 14:20:32,809091
-1,1,-12,-3,-2,-3,-3,-1,2021-08-04 14:20:32,810092
-2,1,6,9,-2,-2,-1,-2,2021-08-04 14:20:32,825089
-2,2,-1,-3,-2,-4,-3,11,2021-08-04 14:20:32,825089
4,0,20,1,0,0,1,-3,2021-08-04 14:20:32,841090
0,-9,-45,-2,-3,-2,0,-5,2021-08-04 14:20:32,841090
-4,-1,19,5,-2,3,-1,-3,2021-08-04 14:20:32,841090
7,1,6,-4,1,1,2,4,2021-08-04 14:20:32,842091
-10,3,27,12,-1,0,0,-3,2021-08-04 14:20:32,842091
3,-3,-37,-15,0,-1,2,8,2021-08-04 14:20:32,842091
-7,1,30,-7,-2,-1,-2,-5,2021-08-04 14:20:32,873091
-4,-8,-103,4,-4,-2,-4,2,2021-08-04 14:20:32,889088
-6,-3,-2,-9,-1,-4,2,3,2021-08-04 14:20:32,905089
-1,7,34,-8,-2,1,-2,-1,2021-08-04 14:20:32,905089
2,-1,13,1,0,-3,0,-8,2021-08-04 14:20:32,905089
-1,-2,-4,3,1,1,1,3,2021-08-04 14:20:32,920091
-4,0,-3,9,-1,-2,0,0,2021-08-04 14:20:32,936090
4,-3,-35,8,-3,-2,-2,-2,2021-08-04 14:20:32,936090
11,2,5,-4,2,0,-2,-12,2021-08-04 14:20:32,936090
21,1,3,-3,-2,-2,-8,12,2021-08-04 14:20:32,937091
-9,-2,-12,3,-3,0,3,2,2021-08-04 14:20:32,937091
0,-4,23,-26,-2,-1,0,-2,2021-08-04 14:20:32,952088
-5,-4,-2,17,-2,-1,-2,-17,2021-08-04 14:20:32,952088
11,4,27,6,3,1,2,6,2021-08-04 14:20:32,971094
-3,0,48,-12,0,1,-3,-3,2021-08-04 14:20:32,972091
8,-2,-61,1,1,0,0,-7,2021-08-04 14:20:32,972091
-7,-7,-38,-18,-6,-6,-2,-5,2021-08-04 14:20:32,972091
-6,0,53,7,0,-1,-1,20,2021-08-04 14:20:32,973092
-1,0,18,6,0,2,-1,-6,2021-08-04 14:20:32,983090
-6,3,-7,5,2,1,2,2,2021-08-04 14:20:32,999089
-3,5,40,14,0,-2,-3,-1,2021-08-04 14:20:32,999089
-9,-3,-67,-6,0,-1,2,-6,2021-08-04 14:20:33,015093
-2,-3,-57,-15,-2,-3,-2,0,2021-08-04 14:20:33,015093
5,-7,49,8,-2,-1,-2,-2,2021-08-04 14:20:33,015093
2,4,25,12,2,0,-1,0,2021-08-04 14:20:33,016089
-3,-7,-18,-12,-5,-2,-2,-3,2021-08-04 14:20:33,016089
-6,-2,2,-9,-1,0,1,-8,2021-08-04 14:20:33,016089
5,-9,-41,-9,-1,-3,-4,3,2021-08-04 14:20:33,030089
-2,-6,-45,-1,-2,-2,-1,11,2021-08-04 14:20:33,030089
10,2,56,7,0,0,3,-7,2021-08-04 14:20:33,030089
-6,5,43,23,3,3,2,-1,2021-08-04 14:20:33,031091
0,5,0,-36,-4,-1,-4,-8,2021-08-04 14:20:33,031091
-40,-10,5,1,-4,-2,19,0,2021-08-04 14:20:33,031091
-1,-5,-83,-11,-5,-3,-39,-7,2021-08-04 14:20:33,032092
0,2,-2,14,0,-2,1,3,2021-08-04 14:20:33,061091
-2,2,46,-22,0,0,3,-1,2021-08-04 14:20:33,061091
9,2,101,-6,-2,0,-7,5,2021-08-04 14:20:33,061091
-6,5,-12,18,5,5,12,-6,2021-08-04 14:20:33,062092
1,-5,-52,-8,-2,-3,-2,-1,2021-08-04 14:20:33,062092
-4,0,0,5,-1,-1,-6,-1,2021-08-04 14:20:33,062092
7,-2,-39,4,3,2,4,-8,2021-08-04 14:20:33,062092
4,8,12,-2,0,0,3,13,2021-08-04 14:20:33,077093
6,-15,1,-12,-2,-2,-6,26,2021-08-04 14:20:33,093089
6,7,87,28,2,-1,9,-33,2021-08-04 14:20:33,093089
-21,-4,-105,-13,4,3,-6,15,2021-08-04 14:20:33,093089
-13,0,58,-10,0,0,4,-11,2021-08-04 14:20:33,093089
10,1,-14,-14,-10,-6,-4,-3,2021-08-04 14:20:33,094090
-25,3,14,18,1,1,0,4,2021-08-04 14:20:33,094090
11,-8,58,19,-3,-1,-2,-4,2021-08-04 14:20:33,094090
-8,9,-3,22,6,3,-7,-3,2021-08-04 14:20:33,095091
2,-19,-27,-53,-9,-3,37,-19,2021-08-04 14:20:33,095091
-11,6,48,16,-2,-3,-39,6,2021-08-04 14:20:33,095091
6,5,-41,13,4,2,9,-6,2021-08-04 14:20:33,096092
2,-5,-28,-19,-3,0,9,5,2021-08-04 14:20:33,109091
14,10,45,27,4,2,-7,5,2021-08-04 14:20:33,109586
-1,-5,0,11,-7,-6,7,5,2021-08-04 14:20:33,109586
1,3,-51,-18,3,1,-1,8,2021-08-04 14:20:33,110091
2,3,117,-3,0,1,-1,-7,2021-08-04 14:20:33,125143
7,-1,-94,10,-3,-2,2,22,2021-08-04 14:20:33,125143
-10,0,16,-2,-5,-1,-1,-54,2021-08-04 14:20:33,125143
13,0,33,-10,-2,0,-7,-11,2021-08-04 14:20:33,126145
-17,-2,26,15,0,-2,7,21,2021-08-04 14:20:33,126145
13,0,-49,-9,3,1,-10,-12,2021-08-04 14:20:33,126145
16,11,42,18,2,-1,6,35,2021-08-04 14:20:33,140144
18,-11,51,-29,-9,-8,-9,-8,2021-08-04 14:20:33,140144
-30,-3,2,6,2,1,0,-11,2021-08-04 14:20:33,140144
-11,2,-45,14,6,4,-1,5,2021-08-04 14:20:33,140144
-8,-14,-103,-36,-4,-3,-1,11,2021-08-04 14:20:33,155141
11,14,88,23,1,1,2,-3,2021-08-04 14:20:33,155141
3,6,-66,-31,-6,-3,1,-2,2021-08-04 14:20:33,155141
-15,-3,56,31,-2,0,-9,26,2021-08-04 14:20:33,171144
58,8,49,16,11,6,9,-2,2021-08-04 14:20:33,171144
-46,-13,-25,5,-3,-3,-4,-6,2021-08-04 14:20:33,187143
-11,-14,-6,-10,-6,-4,-1,1,2021-08-04 14:20:33,187143
22,6,-18,21,3,3,-3,10,2021-08-04 14:20:33,187143
-30,-17,-49,-63,-10,-6,0,-6,2021-08-04 14:20:33,187143
32,18,-17,2,0,0,-2,7,2021-08-04 14:20:33,188144
-29,14,-7,21,5,5,10,8,2021-08-04 14:20:33,188144
23,28,51,-1,-2,0,-2,-1,2021-08-04 14:20:33,203141
-3,-16,61,18,2,-1,-4,8,2021-08-04 14:20:33,219148
16,15,-58,-5,-2,-5,-4,-11,2021-08-04 14:20:33,235144
24,-28,-38,-12,-4,-2,-2,3,2021-08-04 14:20:33,235144
-30,-1,116,-9,0,0,5,-20,2021-08-04 14:20:33,235144
-19,13,-33,5,2,2,3,-7,2021-08-04 14:20:33,236145
-24,-8,-34,-19,-6,-4,-8,-1,2021-08-04 14:20:33,251146
36,23,-19,40,5,4,6,-1,2021-08-04 14:20:33,267144
-20,-44,-15,-70,-11,-6,-6,-8,2021-08-04 14:20:33,282145
20,12,26,24,1,0,1,5,2021-08-04 14:20:33,298143
-4,15,127,3,-1,-3,1,3,2021-08-04 14:20:33,298143
29,-1,-63,-18,2,2,3,-1,2021-08-04 14:20:33,330145
-17,0,10,14,4,2,0,-9,2021-08-04 14:20:33,360671
3,10,32,1,-1,-1,0,6,2021-08-04 14:20:33,360671
-3,0,-18,-13,-3,-4,-2,1,2021-08-04 14:20:33,360671
-4,-21,-59,-14,-4,-4,-6,-10,2021-08-04 14:20:33,376674
-3,9,44,17,2,-1,-16,-10,2021-08-04 14:20:33,376674
13,21,35,-18,-1,0,16,8,2021-08-04 14:20:33,376674
-11,-7,-65,34,4,5,4,12,2021-08-04 14:20:33,377674
3,1,-11,-23,-6,-6,-7,-15,2021-08-04 14:20:33,377674
3,3,-8,28,0,1,1,1,2021-08-04 14:20:33,408672
-18,-35,-86,-25,-4,-4,-6,-1,2021-08-04 14:20:33,424669
-7,-6,-40,0,1,0,-1,-2,2021-08-04 14:20:33,424669
-7,9,8,15,3,3,1,3,2021-08-04 14:20:33,440674
4,6,-28,2,-1,0,1,-6,2021-08-04 14:20:33,455670
-1,-4,79,11,-1,-1,-1,3,2021-08-04 14:20:33,455670
1,-6,17,-22,-4,-4,-3,-5,2021-08-04 14:20:33,455670
13,10,-22,6,-6,-1,-1,-1,2021-08-04 14:20:33,456672
-5,7,-15,-5,-2,0,1,0,2021-08-04 14:20:33,470669
-2,-13,44,30,3,2,13,2,2021-08-04 14:20:33,470669
-10,-8,44,-35,-2,-1,-31,14,2021-08-04 14:20:33,470669
-6,-31,-8,-8,-6,-3,-5,-14,2021-08-04 14:20:33,470669
12,0,-40,-9,-1,-1,3,11,2021-08-04 14:20:33,471670
-21,2,52,8,-1,2,-2,-3,2021-08-04 14:20:33,471670
-9,-3,-31,9,2,2,10,22,2021-08-04 14:20:33,471670
2,-12,-40,1,0,3,2,-4,2021-08-04 14:20:33,471670
0,-7,23,-5,-5,-2,-5,-7,2021-08-04 14:20:33,471670
16,28,37,-5,2,-2,1,8,2021-08-04 14:20:33,472676
-4,0,-7,5,-1,-3,4,-15,2021-08-04 14:20:33,472676
-12,2,38,-16,-3,-8,-5,-1,2021-08-04 14:20:33,472676
-8,8,10,7,4,-2,5,-3,2021-08-04 14:20:33,472676
5,-9,11,-2,-1,-1,-7,-1,2021-08-04 14:20:33,486671
9,4,-38,14,3,3,4,-9,2021-08-04 14:20:33,486671
-4,10,-29,-8,-7,-4,-1,2,2021-08-04 14:20:33,486671
33,12,60,12,2,0,-11,0,2021-08-04 14:20:33,517675
-62,-12,-28,-27,-5,-6,10,-25,2021-08-04 14:20:33,517675
1,-15,6,5,3,-1,1,2,2021-08-04 14:20:33,517675
2,-19,-47,-8,-1,-2,-4,1,2021-08-04 14:20:33,518673
9,12,1,-2,-2,1,1,-1,2021-08-04 14:20:33,533670
30,20,6,25,5,4,-7,0,2021-08-04 14:20:33,549671
-38,4,41,-6,-5,-1,4,-7,2021-08-04 14:20:33,549671
-12,-15,23,-12,-3,1,1,10,2021-08-04 14:20:33,549671
-17,-48,36,-8,0,-4,-1,-11,2021-08-04 14:20:33,581670
2,41,33,39,2,2,-1,14,2021-08-04 14:20:33,597669
10,-8,-52,-37,-3,-3,-2,-13,2021-08-04 14:20:33,612670
-17,17,-32,5,-3,-4,-5,-21,2021-08-04 14:20:33,627670
5,5,36,1,1,2,0,-1,2021-08-04 14:20:33,642672
7,-21,61,2,2,1,2,18,2021-08-04 14:20:33,658675
-10,-5,-34,42,3,2,1,-29,2021-08-04 14:20:33,674672
-3,17,7,-28,0,-1,2,9,2021-08-04 14:20:33,690671
4,-2,4,-9,-4,-2,16,-2,2021-08-04 14:20:33,706669
14,-11,-20,5,-4,-3,-10,4,2021-08-04 14:20:33,706669
22,-2,105,6,-2,-4,1,15,2021-08-04 14:20:33,722669
-15,-22,-49,4,3,2,-1,-8,2021-08-04 14:20:33,722669
0,17,28,5,-1,-2,-8,4,2021-08-04 14:20:33,722669
-14,1,51,3,-3,-2,-15,-5,2021-08-04 14:20:33,723672
-22,-11,-100,-15,-5,-1,9,19,2021-08-04 14:20:33,723672
23,2,3,10,1,3,-4,-23,2021-08-04 14:20:33,723672
14,-2,40,-1,1,-4,0,4,2021-08-04 14:20:33,723672
15,1,28,2,0,0,-11,1,2021-08-04 14:20:33,724672
1,-4,-65,-3,-5,-4,-10,9,2021-08-04 14:20:33,724672
-8,3,-10,1,2,-2,-3,-22,2021-08-04 14:20:33,724672
15,19,32,4,-1,4,-13,5,2021-08-04 14:20:33,724672
-8,12,-49,14,8,9,37,14,2021-08-04 14:20:33,725672
0,-12,-9,-40,-6,1,-31,-25,2021-08-04 14:20:33,725672
-7,19,15,31,0,3,2,24,2021-08-04 14:20:33,738671
14,-14,-58,-45,-20,-19,-10,8,2021-08-04 14:20:33,770670
3,2,7,-35,-2,5,-2,-5,2021-08-04 14:20:33,770670
27,6,-35,20,1,2,11,-5,2021-08-04 14:20:33,770670
-23,5,-23,23,5,2,6,8,2021-08-04 14:20:33,771674
1,10,24,17,10,7,-11,-13,2021-08-04 14:20:33,786673
0,-24,-2,-22,-9,-12,-2,3,2021-08-04 14:20:33,801673
18,8,-43,-11,-3,-2,15,11,2021-08-04 14:20:33,801673
14,-25,-24,-20,-8,-2,-3,-5,2021-08-04 14:20:33,801673
-22,24,-28,10,0,2,24,18,2021-08-04 14:20:33,816672
1,-16,11,-5,7,5,-12,-13,2021-08-04 14:20:33,816672
-16,13,33,21,14,8,-1,-14,2021-08-04 14:20:33,816672
16,1,-10,-5,5,3,3,18,2021-08-04 14:20:33,817673
-19,-10,23,-5,-8,-5,3,-9,2021-08-04 14:20:33,831670
-9,-14,-92,1,-38,0,-1,2,2021-08-04 14:20:33,847732
13,-20,-19,-15,27,-4,-6,0,2021-08-04 14:20:33,847732
-9,-13,41,15,11,4,18,8,2021-08-04 14:20:33,847732
-7,-31,-13,-6,-5,2,17,-3,2021-08-04 14:20:33,862730
-2,10,14,-25,-8,-12,-34,-58,2021-08-04 14:20:33,862730
0,-8,43,10,-17,-7,7,-2,2021-08-04 14:20:33,862730
-10,-24,-37,-6,-6,-4,-9,33,2021-08-04 14:20:33,862730
-12,-15,61,-8,6,-2,-22,17,2021-08-04 14:20:33,863730
6,-17,-19,9,4,-3,22,-38,2021-08-04 14:20:33,863730
19,25,-11,-11,-5,1,-13,5,2021-08-04 14:20:33,863730
-12,30,25,3,-6,3,23,-2,2021-08-04 14:20:33,863730
37,-14,-23,-6,-2,-4,-14,-4,2021-08-04 14:20:33,864729
-36,-21,32,9,7,-4,-4,17,2021-08-04 14:20:33,878731
27,7,-27,12,-13,-2,2,4,2021-08-04 14:20:33,894730
-8,9,-4,12,47,13,-4,5,2021-08-04 14:20:33,894730
-31,-13,21,2,-7,5,1,-26,2021-08-04 14:20:33,894730
4,-3,23,-2,-4,-13,-2,9,2021-08-04 14:20:33,895735
-22,-8,-20,-41,-24,7,3,-3,2021-08-04 14:20:33,910730
19,-3,-34,-6,-51,-18,-16,-3,2021-08-04 14:20:33,910730
-3,25,-2,29,41,2,6,-5,2021-08-04 14:20:33,926730
-4,6,43,-5,32,5,1,21,2021-08-04 14:20:33,942728
0,-2,26,17,1,4,19,12,2021-08-04 14:20:33,955727
15,5,-4,-9,-13,-4,-23,-17,2021-08-04 14:20:33,955727
-12,-1,-25,-21,-24,-8,-5,17,2021-08-04 14:20:33,955727
23,-1,15,10,-3,5,1,-5,2021-08-04 14:20:33,956728
-24,0,8,10,16,0,4,2,2021-08-04 14:20:33,972732
9,-1,5,-5,1,-2,0,-3,2021-08-04 14:20:33,972732
-47,6,-5,-3,-15,-14,-9,-22,2021-08-04 14:20:33,972732
20,4,-18,-3,-20,-14,6,10,2021-08-04 14:20:33,973731
-2,-4,-14,1,31,21,-6,-4,2021-08-04 14:20:33,973731
1,15,66,-3,10,-1,14,-10,2021-08-04 14:20:33,974731
-8,-31,18,6,10,5,-11,14,2021-08-04 14:20:33,974731
-3,3,-34,-17,-14,-9,-8,-15,2021-08-04 14:20:33,988731
-1,0,-4,3,-14,-11,-10,-1,2021-08-04 14:20:34,004731
6,-5,-7,-2,-5,-5,7,0,2021-08-04 14:20:34,004731
4,16,5,2,1,5,11,-29,2021-08-04 14:20:34,004731
-26,11,22,-5,3,-2,1,39,2021-08-04 14:20:34,004731
7,-19,32,-6,-10,-10,-6,-13,2021-08-04 14:20:34,005732
4,4,-30,11,16,6,-25,-11,2021-08-04 14:20:34,020731
7,-4,2,7,-1,22,13,26,2021-08-04 14:20:34,020731
-2,-10,17,8,2,5,-23,-18,2021-08-04 14:20:34,020731
-3,9,-33,0,-16,-12,-3,-15,2021-08-04 14:20:34,020731
-6,-2,33,-5,7,-10,19,8,2021-08-04 14:20:34,021730
0,-5,-41,0,-6,9,-7,-8,2021-08-04 14:20:34,021730
-9,-4,5,-29,5,-3,10,5,2021-08-04 14:20:34,021730
15,7,-11,2,3,-12,-5,9,2021-08-04 14:20:34,021730
-2,-2,-4,7,-22,-2,-6,-10,2021-08-04 14:20:34,035732
5,3,-11,5,12,2,4,1,2021-08-04 14:20:34,035732
13,4,-3,6,4,6,3,1,2021-08-04 14:20:34,051728
-9,-7,109,-8,-5,-1,-1,-1,2021-08-04 14:20:34,051970
-8,-3,-14,-4,-1,1,4,21,2021-08-04 14:20:34,051970
25,4,19,-12,-7,-10,27,2,2021-08-04 14:20:34,052731
-34,2,13,15,-5,0,-35,12,2021-08-04 14:20:34,052731
-5,7,-7,0,0,0,-3,-5,2021-08-04 14:20:34,052731
9,-3,-21,-4,-16,-14,-1,8,2021-08-04 14:20:34,052731
12,2,15,-6,25,13,3,-17,2021-08-04 14:20:34,053732
12,-1,-19,15,-1,0,9,1,2021-08-04 14:20:34,053732
-4,-4,27,-7,14,5,4,6,2021-08-04 14:20:34,053732
-5,-4,30,-10,-18,1,-10,-12,2021-08-04 14:20:34,053732
-8,-1,-25,-1,-6,-6,-1,-3,2021-08-04 14:20:34,054731
9,-1,-32,-3,9,3,8,-4,2021-08-04 14:20:34,054731
-9,2,-52,21,2,9,4,-2,2021-08-04 14:20:34,054731
2,3,29,-7,17,0,-4,-2,2021-08-04 14:20:34,054731
-4,-2,41,-11,-15,-13,-18,-7,2021-08-04 14:20:34,067729
-1,0,5,-4,-15,-6,8,12,2021-08-04 14:20:34,067729
5,-1,-18,1,-8,-2,-3,0,2021-08-04 14:20:34,067729
-1,-3,-26,9,17,-6,6,0,2021-08-04 14:20:34,068730
-5,1,-26,-4,-7,17,-3,13,2021-08-04 14:20:34,068730
19,-2,28,-12,-11,-5,-5,-6,2021-08-04 14:20:34,068730
-5,-2,-55,-6,-5,-22,13,9,2021-08-04 14:20:34,068730
-1,-2,5,13,6,17,-22,-6,2021-08-04 14:20:34,068730
-10,-4,-56,6,12,-6,-4,2,2021-08-04 14:20:34,068730
7,2,3,0,3,5,5,-3,2021-08-04 14:20:34,069730
1,-3,-4,0,-8,-2,0,-7,2021-08-04 14:20:34,069730
-8,-2,23,-20,-12,-6,-2,4,2021-08-04 14:20:34,083727
2,2,-6,7,-11,-9,-14,-2,2021-08-04 14:20:34,099729
-4,-1,-20,5,6,3,8,-7,2021-08-04 14:20:34,099729
-3,3,5,-6,5,3,2,0,2021-08-04 14:20:34,115731
-2,-4,-25,2,-15,5,0,-7,2021-08-04 14:20:34,130730
-1,6,16,-2,24,-2,-11,2,2021-08-04 14:20:34,145727
-3,-1,-26,3,-2,-3,15,0,2021-08-04 14:20:34,145727
-10,-4,-9,8,3,8,-9,-12,2021-08-04 14:20:34,145727
6,16,56,-9,-13,-5,4,-7,2021-08-04 14:20:34,161730
-2,23,-38,-5,-12,-4,2,2,2021-08-04 14:20:34,161730
-1,-23,-18,-7,3,-3,-6,-7,2021-08-04 14:20:34,161730
9,31,0,-1,-4,1,2,15,2021-08-04 14:20:34,161730
-1,-16,-15,4,-2,-1,-2,-7,2021-08-04 14:20:34,177730
1,-13,38,1,-1,7,4,6,2021-08-04 14:20:34,193727
-2,0,2,6,16,1,-1,-4,2021-08-04 14:20:34,193727
2,-7,19,4,2,8,1,-3,2021-08-04 14:20:34,193727
1,1,8,0,4,-10,-2,2,2021-08-04 14:20:34,209731
-13,11,-43,-8,-20,-15,-3,-9,2021-08-04 14:20:34,225727
-3,-2,-33,-1,-10,6,21,-4,2021-08-04 14:20:34,225727
1,-14,58,10,6,-8,-41,0,2021-08-04 14:20:34,225727
1,2,-7,-2,0,8,39,13,2021-08-04 14:20:34,225727
18,-5,-12,8,29,3,-23,-2,2021-08-04 14:20:34,226729
-17,3,6,-12,-17,1,-9,21,2021-08-04 14:20:34,226729
-21,-5,-3,-6,7,-7,4,-39,2021-08-04 14:20:34,226729
-2,-11,5,5,-7,-7,0,-8,2021-08-04 14:20:34,241728
2,-1,-33,0,-9,4,6,-13,2021-08-04 14:20:34,257728
8,8,2,7,1,1,0,5,2021-08-04 14:20:34,257728
2,-3,17,-9,-1,2,1,8,2021-08-04 14:20:34,257728
-2,-3,-6,-6,-2,-2,-14,0,2021-08-04 14:20:34,258735
-5,-4,-21,-2,-7,-10,10,1,2021-08-04 14:20:34,273727
1,9,-1,11,2,1,-9,10,2021-08-04 14:20:34,273727
3,-7,-15,-10,-9,11,9,13,2021-08-04 14:20:34,273727
-4,-4,-1,-9,3,-5,-2,-4,2021-08-04 14:20:34,273727
-2,0,9,6,-3,0,2,4,2021-08-04 14:20:34,289729
7,-8,-34,1,32,-6,-1,1,2021-08-04 14:20:34,289729
-24,1,19,-1,-14,4,2,1,2021-08-04 14:20:34,290730
2,8,18,1,-7,4,-2,0,2021-08-04 14:20:34,290730
-8,-14,7,-12,-14,-10,-5,-3,2021-08-04 14:20:34,305727
4,5,-26,-4,-14,-4,-7,-11,2021-08-04 14:20:34,305727
2,-4,35,3,0,-5,-9,5,2021-08-04 14:20:34,305727
6,-6,-18,-12,20,11,10,-3,2021-08-04 14:20:34,305727
-4,2,-6,3,-4,0,30,20,2021-08-04 14:20:34,306731
3,-2,-18,-1,-1,2,-25,-13,2021-08-04 14:20:34,306731
6,-2,11,2,-3,-5,-8,-1,2021-08-04 14:20:34,306731
-3,0,15,5,-4,-6,-1,-1,2021-08-04 14:20:34,306731
0,2,-8,-4,4,3,7,-6,2021-08-04 14:20:34,307729
-3,-3,20,3,-4,-1,9,17,2021-08-04 14:20:34,307729
7,1,10,-7,-3,-4,-4,-23,2021-08-04 14:20:34,307729
-8,-6,24,-3,-3,1,-5,4,2021-08-04 14:20:34,307729
7,-5,-2,-3,-1,-5,-4,-7,2021-08-04 14:20:34,321728
-22,4,-13,1,7,4,-2,8,2021-08-04 14:20:34,321728
3,3,-3,6,-21,-21,4,4,2021-08-04 14:20:34,337733
0,-1,11,8,31,26,-1,1,2021-08-04 14:20:34,353729
1,7,76,4,5,-6,-3,1,2021-08-04 14:20:34,369727
18,-10,-54,-4,-12,-6,-3,-11,2021-08-04 14:20:34,369727
-26,-16,-67,-15,-7,-8,-8,8,2021-08-04 14:20:34,385729
-5,3,21,2,-13,-7,9,-9,2021-08-04 14:20:34,401731
2,0,31,7,0,3,-8,2,2021-08-04 14:20:34,433731
6,11,36,6,6,4,4,-6,2021-08-04 14:20:34,433731
6,0,3,3,10,8,9,1,2021-08-04 14:20:34,433731
8,6,26,3,-2,-5,-12,5,2021-08-04 14:20:34,449727
-9,-16,-65,-16,-5,1,-5,23,2021-08-04 14:20:34,465731
-7,0,4,0,0,-3,2,-48,2021-08-04 14:20:34,466208
4,3,51,-4,-4,3,2,9,2021-08-04 14:20:34,466208
-1,2,-1,-2,4,-2,-6,8,2021-08-04 14:20:34,466729
5,4,12,10,0,-3,1,1,2021-08-04 14:20:34,466729
-6,-1,-60,-4,-6,0,-1,10,2021-08-04 14:20:34,481730
4,-4,5,9,10,4,7,-10,2021-08-04 14:20:34,481730
11,3,35,4,-15,-2,19,-3,2021-08-04 14:20:34,497727
-40,-2,4,-4,14,0,-27,-6,2021-08-04 14:20:34,497727
-1,-1,-13,-3,-8,5,1,4,2021-08-04 14:20:34,498732
4,9,32,9,2,8,-1,0,2021-08-04 14:20:34,498732
-8,-16,-49,-9,1,-13,1,-11,2021-08-04 14:20:34,498732
8,0,0,-8,-9,-3,1,17,2021-08-04 14:20:34,498732
-1,3,19,-1,2,2,-4,-5,2021-08-04 14:20:34,512729
5,4,8,-1,-6,-3,7,7,2021-08-04 14:20:34,512729
-3,-1,20,-1,0,2,-9,-3,2021-08-04 14:20:34,544730
4,-2,-20,10,-9,-1,2,-15,2021-08-04 14:20:34,544730
-1,-2,-30,-14,22,0,-4,3,2021-08-04 14:20:34,560727
7,2,-14,-1,-8,-2,3,10,2021-08-04 14:20:34,560727
-6,-5,20,-17,-4,-6,-10,16,2021-08-04 14:20:34,576732
-4,-14,-63,-8,-14,-4,-4,-51,2021-08-04 14:20:34,592731
4,0,-21,-8,-5,3,6,12,2021-08-04 14:20:34,608732
4,3,19,2,-9,7,1,-1,2021-08-04 14:20:34,624732
-9,-6,-42,-5,24,-6,-7,-7,2021-08-04 14:20:34,624732
37,10,8,10,-10,16,8,14,2021-08-04 14:20:34,624732
-59,-2,59,14,-6,0,-5,-3,2021-08-04 14:20:34,640729
1,-5,-27,-11,10,-9,5,14,2021-08-04 14:20:34,640729
-3,6,43,14,-10,1,16,-45,2021-08-04 14:20:34,640729
4,-9,-52,-21,2,2,-33,7,2021-08-04 14:20:34,641731
11,-2,-23,11,2,-7,3,-5,2021-08-04 14:20:34,641731
1,0,-3,-2,-1,5,1,0,2021-08-04 14:20:34,641731
-6,1,30,2,-9,-10,-5,22,2021-08-04 14:20:34,642734
-8,-3,11,-7,-3,-4,11,-14,2021-08-04 14:20:34,656729
10,3,26,-6,-3,-1,-1,35,2021-08-04 14:20:34,656729
-10,0,-29,2,9,-5,-7,-59,2021-08-04 14:20:34,657731
8,0,5,-2,1,3,-6,7,2021-08-04 14:20:34,672733
-7,-1,-8,15,-2,-1,4,-2,2021-08-04 14:20:34,672982
6,-6,-19,-7,-20,-1,-2,2,2021-08-04 14:20:34,672982
3,-1,-13,-8,26,1,4,11,2021-08-04 14:20:34,673731
-1,-1,-19,5,-5,-6,-8,-2,2021-08-04 14:20:34,673731
-3,6,49,3,-1,0,3,-2,2021-08-04 14:20:34,688728
0,-5,13,-15,-5,-11,5,-8,2021-08-04 14:20:34,704728
-1,-8,-12,-9,-17,-2,-5,-1,2021-08-04 14:20:34,704728
0,2,9,5,1,-3,-5,7,2021-08-04 14:20:34,704728
-4,2,10,6,22,4,5,11,2021-08-04 14:20:34,705730
11,6,6,8,2,0,1,-13,2021-08-04 14:20:34,705730
3,-1,11,3,-5,0,0,9,2021-08-04 14:20:34,720730
9,-3,-26,-16,-7,0,-8,-3,2021-08-04 14:20:34,720730
-11,-2,19,5,-8,-6,5,-5,2021-08-04 14:20:34,720730
-2,-1,6,3,-4,-5,-7,-6,2021-08-04 14:20:34,720730
-3,-9,-49,-12,-4,-1,-3,19,2021-08-04 14:20:34,721730
-3,-8,-51,-2,6,5,0,-36,2021-08-04 14:20:34,721730
2,1,-16,5,3,3,2,1,2021-08-04 14:20:34,721730
-2,1,30,8,13,-1,-3,-14,2021-08-04 14:20:34,721730
4,3,35,1,-3,1,-2,5,2021-08-04 14:20:34,721730
-3,2,14,3,-10,11,3,13,2021-08-04 14:20:34,736731
-9,-13,-89,-29,3,-3,2,0,2021-08-04 14:20:34,768728
-1,1,31,13,1,-5,1,-3,2021-08-04 14:20:34,768728
4,5,-18,9,-2,1,-1,5,2021-08-04 14:20:34,768728
-2,1,6,-2,-3,-5,-4,3,2021-08-04 14:20:34,784727
4,7,47,5,-1,-6,-3,-7,2021-08-04 14:20:34,799731
-1,-9,-31,-18,-8,3,0,3,2021-08-04 14:20:34,815727
-3,-6,12,-2,2,-16,-2,-2,2021-08-04 14:20:34,831733
-6,-1,-2,-5,-12,8,-8,0,2021-08-04 14:20:34,831733
11,9,25,11,-1,0,5,7,2021-08-04 14:20:34,831733
-14,-1,-41,-8,-7,1,3,-21,2021-08-04 14:20:34,832731
6,4,32,0,30,3,-3,8,2021-08-04 14:20:34,847732
-3,-2,14,7,-6,-2,2,1,2021-08-04 14:20:34,862732
-6,-6,-3,-5,-15,-7,-4,-1,2021-08-04 14:20:34,865727
11,1,14,1,-1,-1,-6,27,2021-08-04 14:20:34,865727
-7,2,-44,0,-9,7,0,-57,2021-08-04 14:20:34,877727
-9,3,7,4,9,-4,0,12,2021-08-04 14:20:34,908731
17,-16,-8,-22,4,-5,-1,-6,2021-08-04 14:20:34,938731
-1,2,24,-1,-5,15,1,1,2021-08-04 14:20:34,938731
0,-1,-6,12,-2,0,1,9,2021-08-04 14:20:34,938731
15,8,2,-1,8,1,0,8,2021-08-04 14:20:34,939730
-13,2,46,10,-8,-5,-5,-7,2021-08-04 14:20:34,939730
6,-3,20,-2,5,-2,-1,3,2021-08-04 14:20:34,939730
-6,-4,-17,-16,-6,3,0,12,2021-08-04 14:20:34,939730
-6,-2,6,3,-6,-2,0,-7,2021-08-04 14:20:34,940727
-4,4,40,3,-2,-2,4,6,2021-08-04 14:20:34,954728
-1,2,2,16,14,-3,-2,0,2021-08-04 14:20:34,954728
3,5,14,12,0,-8,0,2,2021-08-04 14:20:34,954728
4,-6,-2,-28,-5,12,1,1,2021-08-04 14:20:34,970729
-22,2,24,9,-3,-6,-2,-6,2021-08-04 14:20:34,985731
5,-10,-13,-11,-6,-3,-1,15,2021-08-04 14:20:34,985731
-2,3,15,-1,1,-5,-3,-28,2021-08-04 14:20:35,001729
-6,-7,-46,-1,-9,-2,4,18,2021-08-04 14:20:35,001729
8,7,28,10,1,10,3,25,2021-08-04 14:20:35,001729
1,-3,-17,-6,16,3,2,-19,2021-08-04 14:20:35,017734
3,-5,-22,-8,-2,0,-3,25,2021-08-04 14:20:35,017734
-5,4,1,7,-3,-6,1,-6,2021-08-04 14:20:35,017734
3,1,-7,1,3,0,-2,4,2021-08-04 14:20:35,033729
-2,-2,7,-4,-8,-10,-1,2,2021-08-04 14:20:35,033729
-1,-2,-23,0,-26,-4,0,-4,2021-08-04 14:20:35,033729
1,-1,-2,-2,15,2,-4,-5,2021-08-04 14:20:35,048733
-2,-4,-18,5,22,5,3,-3,2021-08-04 14:20:35,048733
2,8,2,-6,-4,0,1,-4,2021-08-04 14:20:35,048733
-2,-11,0,-3,-6,2,-3,0,2021-08-04 14:20:35,064728
-1,2,21,1,-10,-9,-2,0,2021-08-04 14:20:35,080732
-9,-7,-61,-8,-11,-9,-5,-8,2021-08-04 14:20:35,080732
4,1,11,-5,-2,9,-4,-8,2021-08-04 14:20:35,080732
0,0,64,16,20,8,5,10,2021-08-04 14:20:35,081731
-2,0,-37,3,4,-1,1,-1,2021-08-04 14:20:35,081731
12,-3,1,-3,-2,-14,-1,-3,2021-08-04 14:20:35,081731
-42,0,7,4,-13,1,-2,-1,2021-08-04 14:20:35,096727
-4,-4,-16,-11,-6,-10,-3,16,2021-08-04 14:20:35,112730
5,0,26,15,4,0,-1,-4,2021-08-04 14:20:35,127727
-1,-3,-53,-31,-19,0,1,-6,2021-08-04 14:20:35,158728
9,1,27,9,26,-1,2,10,2021-08-04 14:20:35,174731
-3,7,5,8,-1,4,-2,0,2021-08-04 14:20:35,174731
2,-1,37,0,-2,-4,0,13,2021-08-04 14:20:35,190732
3,3,29,1,2,5,0,-27,2021-08-04 14:20:35,237729
5,-8,-24,0,-14,-4,-1,-7,2021-08-04 14:20:35,253731
-5,-3,-22,-13,-1,-2,-2,2,2021-08-04 14:20:35,269731
7,3,-23,16,0,-1,-1,4,2021-08-04 14:20:35,269731
0,-4,5,-13,14,3,2,4,2021-08-04 14:20:35,269731
2,3,-11,2,2,4,-2,-2,2021-08-04 14:20:35,270730
3,3,72,-13,-1,-14,-2,-11,2021-08-04 14:20:35,285730
-4,-15,-13,-12,-14,0,-6,-4,2021-08-04 14:20:35,285730
-1,5,27,13,-2,-5,1,2,2021-08-04 14:20:35,285730
2,1,7,1,7,1,-3,-5,2021-08-04 14:20:35,285730
-1,3,-13,14,-21,-1,1,7,2021-08-04 14:20:35,286730
-3,2,-25,-7,29,3,0,-8,2021-08-04 14:20:35,286730
-4,1,0,5,-2,4,-4,2,2021-08-04 14:20:35,286730
6,1,0,3,-4,-7,0,3,2021-08-04 14:20:35,300727
15,0,-6,-2,-3,7,1,-2,2021-08-04 14:20:35,300727
-27,0,-7,-1,-2,-5,-2,-5,2021-08-04 14:20:35,316728
2,-9,-44,-18,-3,-4,-5,-3,2021-08-04 14:20:35,316728
-1,-4,-19,-15,-17,-8,0,-1,2021-08-04 14:20:35,316728
1,-5,-3,1,9,6,-2,-4,2021-08-04 14:20:35,317730
6,1,22,5,10,11,2,-5,2021-08-04 14:20:35,317730
2,5,28,20,1,-3,0,5,2021-08-04 14:20:35,332728
-1,2,-5,-4,-6,-7,-2,-2,2021-08-04 14:20:35,347732
-7,-3,-10,-11,0,0,0,-3,2021-08-04 14:20:35,362731
3,3,0,2,-19,-16,0,-2,2021-08-04 14:20:35,362731
-3,0,35,10,25,10,1,0,2021-08-04 14:20:35,377729
1,-13,21,-7,-9,-5,-2,8,2021-08-04 14:20:35,377729
-5,8,45,24,7,2,-1,-15,2021-08-04 14:20:35,377729
1,-5,-11,-36,-11,-4,2,4,2021-08-04 14:20:35,393727
12,6,41,9,-19,1,0,5,2021-08-04 14:20:35,393727
-4,-6,-14,-5,15,-15,-2,-6,2021-08-04 14:20:35,393727
-5,-3,-31,-1,2,10,-2,7,2021-08-04 14:20:35,409733
2,5,22,7,1,4,-1,-2,2021-08-04 14:20:35,409733
-4,-1,-13,4,1,-5,0,-6,2021-08-04 14:20:35,409733
0,3,23,6,-2,3,-2,5,2021-08-04 14:20:35,409733
4,-6,-63,-18,2,-1,-3,0,2021-08-04 14:20:35,425728
-31,0,-29,-6,1,-2,-3,-6,2021-08-04 14:20:35,425728
-2,-2,6,-10,-8,0,0,-1,2021-08-04 14:20:35,425728
-1,2,13,2,-6,1,-2,-5,2021-08-04 14:20:35,426729
4,2,19,0,4,-2,0,0,2021-08-04 14:20:35,426729
13,2,-6,9,-1,4,0,-3,2021-08-04 14:20:35,426729
-2,-12,-17,-28,-1,-7,-2,-1,2021-08-04 14:20:35,426729
0,4,5,5,-20,8,3,4,2021-08-04 14:20:35,441730
-4,-4,1,15,27,-3,-1,-6,2021-08-04 14:20:35,456728
6,1,-16,-8,-3,-1,-5,2,2021-08-04 14:20:35,487729
-3,2,8,-3,-5,7,-3,3,2021-08-04 14:20:35,503017
2,-6,-6,-3,-6,-7,-2,-2,2021-08-04 14:20:35,503017
-5,0,21,4,-5,-1,0,14,2021-08-04 14:20:35,503017
6,-7,-2,-1,-8,-4,5,-3,2021-08-04 14:20:35,517732
0,4,-8,6,2,0,-4,9,2021-08-04 14:20:35,517732
5,-1,23,2,15,5,2,-14,2021-08-04 14:20:35,532727
1,-5,-20,4,-8,0,1,20,2021-08-04 14:20:35,532727
-11,-2,20,-15,2,0,-3,-3,2021-08-04 14:20:35,547732
-2,1,11,6,-9,-2,4,-5,2021-08-04 14:20:35,562727
0,2,-6,-10,3,-3,-2,5,2021-08-04 14:20:35,562727
1,2,-25,10,-2,0,0,-9,2021-08-04 14:20:35,562727
7,-2,1,7,-3,-3,-3,-2,2021-08-04 14:20:35,563730
3,-4,-37,-16,-1,-1,-3,-3,2021-08-04 14:20:35,563730
-5,-1,44,-1,-2,-2,0,-3,2021-08-04 14:20:35,563730
-1,1,-4,-3,-5,-1,1,-10,2021-08-04 14:20:35,564730
2,-1,-11,7,-4,0,-2,0,2021-08-04 14:20:35,564730
-3,-2,-2,24,9,1,0,-1,2021-08-04 14:20:35,564730
2,2,-35,0,3,1,1,-1,2021-08-04 14:20:35,564730
-5,-2,4,-21,-12,-1,-1,-5,2021-08-04 14:20:35,565730
2,4,2,14,24,-2,0,17,2021-08-04 14:20:35,578728
-8,-11,-13,-9,-11,-5,-7,-46,2021-08-04 14:20:35,578728
1,-2,-7,-17,-5,2,-2,9,2021-08-04 14:20:35,594733
3,-1,-17,4,-3,-5,4,-4,2021-08-04 14:20:35,610732
1,-1,5,-4,3,2,-2,16,2021-08-04 14:20:35,626730
-8,3,11,4,1,0,0,-2,2021-08-04 14:20:35,642731
1,0,-29,6,3,-1,-2,-2,2021-08-04 14:20:35,642731
-3,-1,-25,-17,-8,-3,-3,-4,2021-08-04 14:20:35,642731
1,0,-5,9,-4,-1,2,-6,2021-08-04 14:20:35,658732
1,-3,17,-11,5,4,-1,10,2021-08-04 14:20:35,673730
0,-1,44,19,0,3,1,-3,2021-08-04 14:20:35,688730
-5,-1,-3,5,2,-1,-3,11,2021-08-04 14:20:35,688730
6,2,-12,1,-4,1,-1,-12,2021-08-04 14:20:35,688730
-26,-1,15,0,1,13,-1,6,2021-08-04 14:20:35,688730
-1,2,-18,6,-1,-4,-1,-5,2021-08-04 14:20:35,689731
9,-5,-17,-16,-14,-2,-1,-1,2021-08-04 14:20:35,689731
-12,-1,35,-13,20,-1,0,-1,2021-08-04 14:20:35,689731
9,-1,-49,2,-6,2,0,18,2021-08-04 14:20:35,704728
-5,1,-19,12,3,1,-13,-15,2021-08-04 14:20:35,704728
7,1,16,3,-1,4,13,-4,2021-08-04 14:20:35,704728
-13,-8,12,-9,-11,-5,3,15,2021-08-04 14:20:35,704728
6,2,-11,8,0,-5,-9,8,2021-08-04 14:20:35,705731
-7,-6,9,-14,-6,-1,-5,10,2021-08-04 14:20:35,720730
7,2,46,5,5,-5,-6,-8,2021-08-04 14:20:35,720730
9,-7,-28,-17,-8,2,-4,-7,2021-08-04 14:20:35,720730
-5,-1,3,-3,1,-5,6,-9,2021-08-04 14:20:35,721731
3,0,11,4,-6,-14,1,2,2021-08-04 14:20:35,721731
-10,1,24,-6,6,11,-4,-16,2021-08-04 14:20:35,728732
4,-1,-21,13,7,-2,7,-3,2021-08-04 14:20:35,728732
8,0,5,16,-13,0,-2,2,2021-08-04 14:20:35,736730
7,3,18,2,17,-6,2,10,2021-08-04 14:20:35,736730
-11,-4,-49,-16,-22,1,-3,-22,2021-08-04 14:20:35,737731
-8,-9,-5,11,13,-2,-3,-11,2021-08-04 14:20:35,737731
29,0,-11,-8,-5,-6,-1,4,2021-08-04 14:20:35,737731
-4,-6,44,1,-8,5,3,-6,2021-08-04 14:20:35,752730
-1,0,-47,-5,3,-10,-3,13,2021-08-04 14:20:35,752730
7,3,48,0,-10,8,-2,1,2021-08-04 14:20:35,752730
2,1,8,-7,1,-7,1,-18,2021-08-04 14:20:35,753730
2,2,-29,1,3,7,-1,30,2021-08-04 14:20:35,753730
3,1,12,1,4,-3,14,-5,2021-08-04 14:20:35,753730
22,-1,-1,0,-9,-5,-5,5,2021-08-04 14:20:35,753730
10,7,19,0,-1,-11,4,-32,2021-08-04 14:20:35,753730
-3,-10,-54,-22,-3,17,-14,0,2021-08-04 14:20:35,754730
-3,0,35,12,11,-2,0,11,2021-08-04 14:20:35,754730
0,6,2,16,-5,1,5,0,2021-08-04 14:20:35,767732
1,-2,39,-16,17,-3,1,-2,2021-08-04 14:20:35,783729
-35,-3,-1,-6,-36,-5,2,12,2021-08-04 14:20:35,783729
3,-4,31,0,20,0,-5,-20,2021-08-04 14:20:35,783729
1,1,10,6,-11,3,-3,21,2021-08-04 14:20:35,799733
4,5,-1,14,3,3,0,12,2021-08-04 14:20:35,799733
-5,-8,-9,-20,-4,-9,4,-23,2021-08-04 14:20:35,799733
3,-3,1,-1,-4,-1,-8,27,2021-08-04 14:20:35,815730
13,3,16,-1,-2,-5,-1,-18,2021-08-04 14:20:35,815730
-27,-9,11,-1,-1,2,5,0,2021-08-04 14:20:35,831732
4,6,-15,3,6,2,1,-6,2021-08-04 14:20:35,847728
-13,1,1,9,7,4,-1,25,2021-08-04 14:20:35,847728
6,-1,-4,-4,4,-1,4,-17,2021-08-04 14:20:35,847728
-8,2,27,0,-2,0,-15,18,2021-08-04 14:20:35,848733
23,2,12,5,1,-5,4,-5,2021-08-04 14:20:35,848733
-1,-8,-32,-15,-13,12,-7,-38,2021-08-04 14:20:35,848733
-44,1,-2,-7,-5,-8,-3,22,2021-08-04 14:20:35,863729
7,-5,-9,-6,-11,-3,-3,3,2021-08-04 14:20:35,878729
-4,11,19,25,37,-4,5,-8,2021-08-04 14:20:35,894731
-5,-7,0,-25,-10,8,-4,8,2021-08-04 14:20:35,894731
-6,-7,-10,0,-4,-1,0,-15,2021-08-04 14:20:35,894731
9,-5,-50,-4,-7,1,2,9,2021-08-04 14:20:35,895729
5,3,56,6,-6,-8,-2,-28,2021-08-04 14:20:35,895729
-18,1,-35,-2,-5,-5,3,8,2021-08-04 14:20:35,910732
8,-1,4,-1,14,6,-6,-10,2021-08-04 14:20:35,910732
-4,-1,-5,-4,3,-2,12,-16,2021-08-04 14:20:35,926730
33,6,-25,10,-8,5,-2,23,2021-08-04 14:20:35,926730
-37,-3,57,8,16,-6,-5,7,2021-08-04 14:20:35,941729
7,-5,21,-18,-25,-7,-2,-21,2021-08-04 14:20:35,941729
-12,-1,-52,6,4,0,-4,-2,2021-08-04 14:20:35,941729
-3,-4,-13,-7,3,7,-1,0,2021-08-04 14:20:35,942730
24,9,5,20,-3,11,-1,-6,2021-08-04 14:20:35,956727
-2,0,1,-4,3,-8,-1,5,2021-08-04 14:20:35,956727
-7,-5,-22,-6,-4,-4,-4,4,2021-08-04 14:20:35,956727
-1,-2,-15,-2,-5,0,-1,-1,2021-08-04 14:20:35,957733
8,-2,-7,-3,-2,-9,-1,2,2021-08-04 14:20:35,957733
-8,0,-7,3,4,4,-1,-2,2021-08-04 14:20:35,957733
1,-1,11,-4,-2,2,-2,1,2021-08-04 14:20:35,957733
-10,-2,4,-8,6,-4,-4,-2,2021-08-04 14:20:35,958729
7,3,-25,18,1,-1,29,14,2021-08-04 14:20:35,958729
26,-8,-11,-17,-2,-1,-18,-6,2021-08-04 14:20:35,958729
-27,4,74,3,-14,-1,-1,3,2021-08-04 14:20:35,958729
-7,-12,-79,-15,7,-3,-2,-4,2021-08-04 14:20:35,958729
1,2,18,0,-2,-1,-5,9,2021-08-04 14:20:35,959730
10,4,-19,2,1,4,6,-4,2021-08-04 14:20:35,959730
6,-3,9,-1,3,-3,-15,3,2021-08-04 14:20:35,959730
-10,1,17,3,-4,0,2,-5,2021-08-04 14:20:35,959730
10,1,25,12,-4,-3,-9,7,2021-08-04 14:20:35,959730
5,-2,-17,-15,-6,-3,2,1,2021-08-04 14:20:35,959730
-16,0,5,-8,2,-2,-2,-3,2021-08-04 14:20:35,960730
-12,-5,2,-1,-5,-2,3,-16,2021-08-04 14:20:35,960730
5,-1,-15,3,-1,14,-7,-5,2021-08-04 14:20:35,960730
-13,-1,19,13,1,-3,2,-6,2021-08-04 14:20:35,971731
19,3,-7,-3,8,-4,4,14,2021-08-04 14:20:35,986730
-35,2,-13,-2,-8,-2,-3,-1,2021-08-04 14:20:35,986730
-1,-1,9,-9,-4,-5,-2,-13,2021-08-04 14:20:36,002729
-5,1,7,4,2,2,0,6,2021-08-04 14:20:36,002729
9,-9,-43,-17,2,2,0,-7,2021-08-04 14:20:36,002729
5,-3,-18,-2,8,2,26,19,2021-08-04 14:20:36,003733
-1,0,15,8,-6,-5,-42,-25,2021-08-04 14:20:36,018730
1,-1,54,-8,0,-5,1,8,2021-08-04 14:20:36,033732
-14,2,-8,9,-6,1,2,-8,2021-08-04 14:20:36,048952
13,3,4,-3,3,1,-4,24,2021-08-04 14:20:36,048952
-4,-3,15,-3,3,-3,8,-1,2021-08-04 14:20:36,063730
21,0,-26,4,-6,-4,-1,9,2021-08-04 14:20:36,063730
-20,4,51,15,2,-1,-5,1,2021-08-04 14:20:36,079729
2,-6,-45,-23,-9,-2,-5,-12,2021-08-04 14:20:36,079729
3,-4,22,-7,1,1,5,0,2021-08-04 14:20:36,079729
-7,3,3,10,0,0,-5,-6,2021-08-04 14:20:36,079729
6,-1,-20,5,7,-3,4,1,2021-08-04 14:20:36,080731
-1,4,27,28,4,2,-9,-9,2021-08-04 14:20:36,080731
1,1,-3,-15,-2,-10,12,1,2021-08-04 14:20:36,080731
-13,-4,-5,3,-2,3,-1,2,2021-08-04 14:20:36,081734
3,1,-2,3,-4,-4,0,0,2021-08-04 14:20:36,081734
5,-1,27,5,-3,0,-5,-4,2021-08-04 14:20:36,081734
6,-3,-11,-7,0,-4,0,1,2021-08-04 14:20:36,081734
-19,-5,40,-8,1,-2,2,0,2021-08-04 14:20:36,082730
5,-5,-29,-8,4,0,-1,-1,2021-08-04 14:20:36,082730
2,-1,0,3,1,-2,-3,-3,2021-08-04 14:20:36,082730
-2,1,-10,3,-7,-1,2,2,2021-08-04 14:20:36,094728
-7,-1,6,6,7,3,2,0,2021-08-04 14:20:36,094728
7,3,11,6,-7,1,-4,6,2021-08-04 14:20:36,094728
-3,-4,24,-22,-5,2,-1,-11,2021-08-04 14:20:36,109728
10,0,6,-9,8,-3,1,6,2021-08-04 14:20:36,125730
-4,1,2,5,-5,-1,1,3,2021-08-04 14:20:36,125730
1,-3,-13,-3,-1,-3,4,-3,2021-08-04 14:20:36,125730
5,0,3,15,-5,9,-1,6,2021-08-04 14:20:36,125730
2,0,-9,-6,1,-2,-6,-3,2021-08-04 14:20:36,157732
0,1,10,-6,-3,-2,3,-8,2021-08-04 14:20:36,157732
-1,-5,-63,-10,-2,0,0,5,2021-08-04 14:20:36,157732
2,-4,38,0,0,-7,-1,4,2021-08-04 14:20:36,158730
-8,-1,1,6,-5,-1,-3,-12,2021-08-04 14:20:36,158730
-1,1,26,-1,2,2,-1,0,2021-08-04 14:20:36,173729
-4,2,6,3,1,-2,-2,-5,2021-08-04 14:20:36,189732
2,3,-20,3,-2,-5,-1,-7,2021-08-04 14:20:36,189732
0,-3,1,-8,12,5,4,10,2021-08-04 14:20:36,189732
-3,-3,-14,3,-9,-5,-5,0,2021-08-04 14:20:36,190730
5,-2,4,-1,1,4,1,-4,2021-08-04 14:20:36,190730
8,-2,-18,-8,-9,-4,-1,-5,2021-08-04 14:20:36,205727
-5,1,20,0,-2,0,4,3,2021-08-04 14:20:36,221730
1,-1,-12,-1,7,2,-2,8,2021-08-04 14:20:36,221730
1,1,7,5,-4,0,1,-37,2021-08-04 14:20:36,221730
13,1,-7,1,1,-2,-4,7,2021-08-04 14:20:36,222730
-7,-2,-48,-5,-7,-5,-7,-1,2021-08-04 14:20:36,222730
2,-1,-1,1,-3,1,3,-3,2021-08-04 14:20:36,222730
5,-2,4,-3,-2,2,0,3,2021-08-04 14:20:36,222730
-10,4,-2,7,5,6,-5,10,2021-08-04 14:20:36,237731
6,1,17,10,-2,-6,-2,-2,2021-08-04 14:20:36,253731
-4,-4,-36,-27,-6,-4,-3,-1,2021-08-04 14:20:36,253731
-2,-2,13,-1,-6,-3,-3,3,2021-08-04 14:20:36,269731
-5,-3,-13,-5,4,-5,2,-6,2021-08-04 14:20:36,285729
-6,3,30,16,-2,4,2,4,2021-08-04 14:20:36,285729
2,2,-11,4,-17,1,1,-5,2021-08-04 14:20:36,286732
-5,0,10,-1,26,-2,0,5,2021-08-04 14:20:36,286732
-2,2,-2,-1,-6,4,0,-1,2021-08-04 14:20:36,286732
0,-2,-24,-5,-4,-1,6,-3,2021-08-04 14:20:36,301730
8,0,23,7,-3,-7,-10,15,2021-08-04 14:20:36,301730
-30,-5,-39,-8,-5,0,-3,-43,2021-08-04 14:20:36,301730
-1,-1,-12,7,-2,0,-2,6,2021-08-04 14:20:36,317730
-4,-2,4,-21,1,0,0,-3,2021-08-04 14:20:36,333729
0,-2,12,-6,6,-2,1,-2,2021-08-04 14:20:36,349730
6,3,5,6,-5,-3,-1,18,2021-08-04 14:20:36,365730
2,0,-1,4,3,-2,-1,-6,2021-08-04 14:20:36,365730
-19,-3,-9,6,1,0,1,-4,2021-08-04 14:20:36,381730
-5,-3,1,-7,2,1,-1,-7,2021-08-04 14:20:36,381730
19,0,20,2,-9,6,-2,9,2021-08-04 14:20:36,397727
-30,-4,-29,-5,5,-6,0,9,2021-08-04 14:20:36,397727
9,3,-1,-1,1,-1,2,-1,2021-08-04 14:20:36,397727
1,-2,17,4,3,1,-2,-5,2021-08-04 14:20:36,398730
6,0,-5,-7,-4,-2,-3,-2,2021-08-04 14:20:36,398730
0,-2,21,-7,-6,-2,-3,7,2021-08-04 14:20:36,398730
-1,2,-2,4,-1,4,-2,7,2021-08-04 14:20:36,412732
0,1,-2,4,-9,-2,0,-13,2021-08-04 14:20:36,428732
-1,-1,-2,2,25,2,1,13,2021-08-04 14:20:36,444732
6,0,-18,-6,-9,-1,0,-2,2021-08-04 14:20:36,460730
-3,-3,4,4,-4,-3,2,-6,2021-08-04 14:20:36,476728
2,4,-4,7,7,1,0,5,2021-08-04 14:20:36,492732
5,-8,-18,-14,-12,-1,-2,7,2021-08-04 14:20:36,492732
-6,1,21,1,2,-1,2,-8,2021-08-04 14:20:36,492732
-2,-2,5,-3,4,-1,0,3,2021-08-04 14:20:36,507731
7,0,-4,5,-1,2,0,1,2021-08-04 14:20:36,507731
-15,-3,16,10,-3,1,0,9,2021-08-04 14:20:36,507731
27,0,-37,-15,4,-2,-2,-11,2021-08-04 14:20:36,508733
-29,-2,25,1,-8,-5,-4,-2,2021-08-04 14:20:36,522729
3,-3,4,-1,5,-3,17,35,2021-08-04 14:20:36,522729
6,0,3,-7,-9,-12,-20,-65,2021-08-04 14:20:36,522729
3,-2,-25,1,-1,3,1,3,2021-08-04 14:20:36,523731
14,1,2,-3,3,1,3,-2,2021-08-04 14:20:36,537727
-9,-1,-17,-6,5,4,1,-8,2021-08-04 14:20:36,552729
-5,-6,-36,0,-2,-2,9,24,2021-08-04 14:20:36,567730
-1,1,6,6,-2,-2,-4,-6,2021-08-04 14:20:36,583728
4,0,38,5,-2,-2,-7,3,2021-08-04 14:20:36,599730
-9,-9,-51,-20,-4,-7,-4,-4,2021-08-04 14:20:36,599730
3,2,14,-3,-4,1,-11,7,2021-08-04 14:20:36,599730
9,1,17,-1,1,-4,14,-13,2021-08-04 14:20:36,600730
21,-2,4,3,3,2,3,20,2021-08-04 14:20:36,600730
-27,3,-3,12,1,2,-5,5,2021-08-04 14:20:36,600730
3,1,24,6,-4,-2,1,-28,2021-08-04 14:20:36,600730
-8,-8,-3,-22,-1,1,-3,0,2021-08-04 14:20:36,601731
10,1,1,9,3,-4,0,0,2021-08-04 14:20:36,601731
5,-7,35,-17,-6,-4,-3,-12,2021-08-04 14:20:36,615730
0,2,14,7,2,1,1,13,2021-08-04 14:20:36,615730
-9,2,30,16,-1,-1,-5,6,2021-08-04 14:20:36,630728
-5,-5,-20,-18,-20,1,2,-15,2021-08-04 14:20:36,630728
-3,3,15,5,29,0,-5,-3,2021-08-04 14:20:36,631729
-1,-1,-10,-3,-8,3,4,30,2021-08-04 14:20:36,631729
0,-1,37,8,-7,-1,-4,-13,2021-08-04 14:20:36,631729
-6,-3,-50,-3,-8,-3,-6,0,2021-08-04 14:20:36,661730
0,-2,30,3,-8,-5,-1,-13,2021-08-04 14:20:36,674731
3,-5,18,-14,4,-13,0,9,2021-08-04 14:20:36,674731
-3,-3,-57,8,-1,4,1,3,2021-08-04 14:20:36,691731
-12,2,-12,0,2,-2,6,-11,2021-08-04 14:20:36,691731
2,-1,-14,-5,0,3,-12,-3,2021-08-04 14:20:36,691731
5,0,13,7,3,-1,3,-8,2021-08-04 14:20:36,707730
4,2,4,-1,-3,-2,-8,7,2021-08-04 14:20:36,707730
-23,-1,-3,-2,4,0,6,6,2021-08-04 14:20:36,723728
17,11,8,9,-5,3,0,-13,2021-08-04 14:20:36,723728
-5,-16,-12,3,-3,4,1,18,2021-08-04 14:20:36,723728
-3,-8,-13,-16,-2,-3,-5,-10,2021-08-04 14:20:36,724731
8,-1,5,-14,-1,-2,-6,8,2021-08-04 14:20:36,739731
-1,7,-26,-3,-6,-1,1,-3,2021-08-04 14:20:36,739731
4,27,6,11,6,8,3,-4,2021-08-04 14:20:36,739731
8,-30,44,10,6,-2,4,7,2021-08-04 14:20:36,740734
-4,-11,3,-10,0,-2,-4,-12,2021-08-04 14:20:36,740734
-8,15,16,2,-6,-4,-1,6,2021-08-04 14:20:36,740734
-6,-28,-39,-7,-11,-7,-3,-6,2021-08-04 14:20:36,755731
-9,21,-9,28,-26,-2,2,1,2021-08-04 14:20:36,755731
-3,1,-9,15,33,1,-2,-4,2021-08-04 14:20:36,755731
22,-2,0,-54,-8,5,4,2,2021-08-04 14:20:36,756730
-14,-13,-17,-35,-7,-3,2,15,2021-08-04 14:20:36,756730
4,-11,-25,7,-7,-7,-5,-8,2021-08-04 14:20:36,756730
-43,44,17,36,-2,4,-6,-24,2021-08-04 14:20:36,757731
20,2,72,-5,11,6,1,9,2021-08-04 14:20:36,757731
-5,8,-38,9,-2,-5,0,0,2021-08-04 14:20:36,757731
-17,-31,-33,-23,2,1,2,-4,2021-08-04 14:20:36,757731
16,23,-1,-2,-7,-3,-4,2,2021-08-04 14:20:36,758734
-12,-6,27,-10,-2,-7,-1,-5,2021-08-04 14:20:36,758734
17,3,11,-12,-7,0,5,2,2021-08-04 14:20:36,771730
0,23,6,23,12,7,-3,3,2021-08-04 14:20:36,786732
8,-11,-13,11,2,2,0,6,2021-08-04 14:20:36,786732
-2,-13,13,-8,-5,0,-1,-2,2021-08-04 14:20:36,786732
-20,11,18,23,2,-2,-2,-6,2021-08-04 14:20:36,802730
20,9,-40,-3,6,1,2,1,2021-08-04 14:20:36,802730
21,-30,0,-29,-7,0,1,1,2021-08-04 14:20:36,803731
-21,-17,-28,23,-3,-2,-1,2,2021-08-04 14:20:36,803731
-38,-18,10,-18,2,1,0,-10,2021-08-04 14:20:36,818732
2,16,-10,-17,3,-4,0,12,2021-08-04 14:20:36,818732
23,-8,11,-5,-6,-2,-2,-5,2021-08-04 14:20:36,848732
20,-6,2,26,2,-3,1,-15,2021-08-04 14:20:36,848732
-3,7,11,-4,6,4,-6,23,2021-08-04 14:20:36,863732
-14,-2,35,-8,2,2,0,-1,2021-08-04 14:20:36,878730
17,5,27,-3,-2,0,9,12,2021-08-04 14:20:36,878730
2,-6,-72,-11,-4,3,14,-12,2021-08-04 14:20:36,878730
-34,2,39,7,-5,-5,-56,-11,2021-08-04 14:20:36,879731
13,-4,-44,-30,-1,-6,51,22,2021-08-04 14:20:36,879731
-26,-5,10,6,1,-2,-28,-28,2021-08-04 14:20:36,879731
12,4,52,17,1,-3,13,-27,2021-08-04 14:20:36,880731
31,8,-38,-9,2,3,2,16,2021-08-04 14:20:36,880731
-17,-3,-34,0,-6,-2,29,12,2021-08-04 14:20:36,880731
-7,-2,23,3,2,3,-55,-15,2021-08-04 14:20:36,881729
0,-7,-88,-28,-4,-1,-5,19,2021-08-04 14:20:36,881729
18,1,82,20,-8,-7,7,-9,2021-08-04 14:20:36,881729
-1,3,45,-17,3,0,-20,16,2021-08-04 14:20:36,881729
-8,-5,9,-2,-1,2,42,10,2021-08-04 14:20:36,882731
-1,3,-24,-4,-7,-6,-18,-21,2021-08-04 14:20:36,882731
41,-4,-44,-3,3,1,4,13,2021-08-04 14:20:36,882731
5,6,29,17,3,5,17,2,2021-08-04 14:20:36,894731
-16,-1,-39,-17,-2,-4,-32,24,2021-08-04 14:20:36,925729
36,-9,-17,-6,-2,-3,-3,34,2021-08-04 14:20:36,925729
-46,1,4,7,-1,0,7,-75,2021-08-04 14:20:36,925729
-6,-5,-10,2,2,2,-14,-40,2021-08-04 14:20:36,926730
17,-1,-15,-2,-3,0,19,42,2021-08-04 14:20:36,926730
-18,11,58,21,5,3,12,8,2021-08-04 14:20:36,926730
33,-7,-91,-6,1,-3,7,14,2021-08-04 14:20:36,926730
-36,3,39,14,-4,-3,-24,-7,2021-08-04 14:20:36,927731
6,-4,-2,-7,-7,-6,-21,-27,2021-08-04 14:20:36,927731
8,2,41,18,5,3,17,5,2021-08-04 14:20:36,941729
-19,5,45,-9,2,4,-5,42,2021-08-04 14:20:36,941729
4,1,-4,8,2,-1,-13,-20,2021-08-04 14:20:36,941729
8,-4,-9,-2,-2,-1,23,15,2021-08-04 14:20:36,957730
-8,5,18,15,-1,-1,-25,-14,2021-08-04 14:20:36,957730
-38,-3,0,-15,-2,-2,7,-19,2021-08-04 14:20:36,957730
7,9,-58,-16,-1,1,8,23,2021-08-04 14:20:36,958730
-1,1,32,6,-1,0,-1,-5,2021-08-04 14:20:36,958730
2,2,-17,3,1,1,4,2,2021-08-04 14:20:36,958730
-3,-1,19,9,-1,0,-5,-4,2021-08-04 14:20:36,958730
-37,-4,-21,-18,-7,-5,-14,0,2021-08-04 14:20:36,958730
-11,-2,18,4,-1,-1,13,-33,2021-08-04 14:20:36,959730
-15,-9,-3,6,2,0,-4,2,2021-08-04 14:20:36,959730
19,0,-27,3,1,-1,3,3,2021-08-04 14:20:36,959730
19,-4,24,0,-1,-1,-10,-13,2021-08-04 14:20:36,960732
-13,-35,10,3,0,-2,5,-8,2021-08-04 14:20:36,973733
-27,-5,-48,-17,-8,-6,11,0,2021-08-04 14:20:36,973733
5,-20,54,4,-2,1,-32,-1,2021-08-04 14:20:36,989730
24,6,-15,3,-1,-2,3,13,2021-08-04 14:20:37,005729
11,-2,-25,7,1,0,-1,-32,2021-08-04 14:20:37,005729
1,12,41,-13,-2,1,0,8,2021-08-04 14:20:37,005729
6,7,-46,0,-1,-2,14,-12,2021-08-04 14:20:37,006731
-5,-5,11,8,1,-3,5,17,2021-08-04 14:20:37,021731
7,16,2,5,3,-2,-10,-19,2021-08-04 14:20:37,021731
-5,10,13,13,-1,2,-7,-12,2021-08-04 14:20:37,021731
10,-18,-7,-9,-4,-3,4,9,2021-08-04 14:20:37,022730
1,-3,-3,-4,-2,-3,-10,9,2021-08-04 14:20:37,022730
-4,9,6,-5,-3,-3,7,-45,2021-08-04 14:20:37,036733
-20,-9,-6,-7,-1,1,-2,1,2021-08-04 14:20:37,036733
13,9,6,3,2,2,3,1,2021-08-04 14:20:37,036733
25,13,1,0,1,3,-5,-16,2021-08-04 14:20:37,051729
17,4,-4,-7,-3,-3,6,25,2021-08-04 14:20:37,051729
-7,-3,-30,2,1,-2,-9,-4,2021-08-04 14:20:37,051729
-1,0,13,4,2,0,6,-6,2021-08-04 14:20:37,051729
-8,-44,0,-2,-2,-2,-4,0,2021-08-04 14:20:37,052731
19,9,-24,-6,-2,0,3,10,2021-08-04 14:20:37,052731
4,-6,8,8,-3,-1,-6,-4,2021-08-04 14:20:37,052731
1,12,-19,5,-3,1,9,12,2021-08-04 14:20:37,052731
-2,7,0,-14,4,-2,-2,-19,2021-08-04 14:20:37,053730
-15,-4,30,13,4,4,0,15,2021-08-04 14:20:37,053730
0,-4,-31,-1,4,1,1,4,2021-08-04 14:20:37,053730
-7,1,32,-13,-7,-4,1,-4,2021-08-04 14:20:37,054730
6,5,-22,8,-7,-2,-5,-7,2021-08-04 14:20:37,054730
1,3,4,-2,-4,-2,3,30,2021-08-04 14:20:37,054730
-5,5,16,13,2,2,-2,-8,2021-08-04 14:20:37,054730
18,0,-1,-8,-2,-3,1,-9,2021-08-04 14:20:37,066728
-4,0,-8,-3,2,4,-2,-8,2021-08-04 14:20:37,082728
-9,-8,-12,3,0,0,3,23,2021-08-04 14:20:37,098730
0,-10,6,-20,-3,-2,-3,-11,2021-08-04 14:20:37,098730
6,-8,-28,7,1,-2,-3,33,2021-08-04 14:20:37,098730
-18,8,10,-3,0,1,0,5,2021-08-04 14:20:37,114731
-8,2,-4,1,-2,-3,-2,-10,2021-08-04 14:20:37,145728
3,1,0,-3,-3,-2,-2,5,2021-08-04 14:20:37,145728
1,2,-8,3,3,3,2,-22,2021-08-04 14:20:37,145728
6,6,23,7,1,-3,-4,29,2021-08-04 14:20:37,146732
-29,-5,3,-8,-1,2,-1,1,2021-08-04 14:20:37,160729
-2,-1,20,6,-3,-2,0,-1,2021-08-04 14:20:37,160729
-9,-8,-24,-6,-5,-3,-1,4,2021-08-04 14:20:37,160729
-5,-3,1,-12,-4,-2,0,-12,2021-08-04 14:20:37,161730
6,1,-10,0,4,-2,-1,-4,2021-08-04 14:20:37,161730
5,2,-3,-3,4,-2,1,8,2021-08-04 14:20:37,176729
-9,1,35,10,-4,-2,0,-9,2021-08-04 14:20:37,176729
-1,-3,-32,-1,1,2,-2,-5,2021-08-04 14:20:37,191730
4,-1,-11,-25,1,2,0,1,2021-08-04 14:20:37,207729
-2,4,36,5,-1,-1,-1,-1,2021-08-04 14:20:37,222728
0,7,-14,2,2,0,3,10,2021-08-04 14:20:37,222728
-9,-6,9,-4,-8,-4,20,-51,2021-08-04 14:20:37,237728
1,-3,-39,-7,-8,-6,-55,-2,2021-08-04 14:20:37,237728
6,-2,0,-1,2,4,24,7,2021-08-04 14:20:37,237728
5,7,30,2,5,4,3,7,2021-08-04 14:20:37,238730
0,-5,8,2,-3,1,-2,8,2021-08-04 14:20:37,238730
-22,0,-4,3,-2,-3,16,-4,2021-08-04 14:20:37,238730
11,0,-11,0,-4,-3,-15,-5,2021-08-04 14:20:37,238730
-5,0,-12,-5,0,-1,-1,16,2021-08-04 14:20:37,239731
8,-1,3,3,1,0,-2,-3,2021-08-04 14:20:37,252730
4,-12,16,14,0,1,5,0,2021-08-04 14:20:37,268732
-3,18,8,-22,-5,-3,-8,18,2021-08-04 14:20:37,284728
-12,-15,-36,-8,-4,-2,10,-25,2021-08-04 14:20:37,300730
0,-1,6,-2,-1,-5,-17,-9,2021-08-04 14:20:37,316730
3,2,7,6,-2,0,6,-7,2021-08-04 14:20:37,332730
6,0,14,13,7,3,4,26,2021-08-04 14:20:37,332730
3,12,20,6,4,2,1,1,2021-08-04 14:20:37,332730
-28,-8,5,-5,0,-1,-6,5,2021-08-04 14:20:37,333730
5,3,-21,-3,-5,-2,4,-3,2021-08-04 14:20:37,348728
-4,-10,-71,-15,-4,-4,-1,-5,2021-08-04 14:20:37,348728
-2,4,14,15,0,-1,-7,4,2021-08-04 14:20:37,348728
14,7,27,9,3,2,-2,0,2021-08-04 14:20:37,349730
0,7,-12,6,2,4,8,6,2021-08-04 14:20:37,349730
-3,-24,-22,-16,-5,-5,-5,-23,2021-08-04 14:20:37,349730
-33,-9,14,-15,-7,-6,-12,16,2021-08-04 14:20:37,349730
4,7,6,5,5,4,3,28,2021-08-04 14:20:37,364729
2,8,-2,0,1,0,0,-50,2021-08-04 14:20:37,364729
0,8,19,28,6,5,3,-6,2021-08-04 14:20:37,364729
6,-7,-44,-21,-4,-4,-3,-8,2021-08-04 14:20:37,365732
0,0,12,1,-2,-2,0,1,2021-08-04 14:20:37,365732
2,7,10,-5,0,-1,3,21,2021-08-04 14:20:37,380727
-7,-14,-8,-5,-6,-4,-8,-6,2021-08-04 14:20:37,396733
6,4,0,11,1,1,0,-13,2021-08-04 14:20:37,412732
-4,8,5,-3,1,1,1,0,2021-08-04 14:20:37,428731
5,-14,-8,-2,-1,-2,3,4,2021-08-04 14:20:37,443731
-8,-12,20,-3,5,-1,1,-3,2021-08-04 14:20:37,458732
7,5,33,3,0,1,2,0,2021-08-04 14:20:37,474729
13,-7,-26,-5,-2,-2,-1,-3,2021-08-04 14:20:37,490729
2,5,2,-2,-3,0,-1,-1,2021-08-04 14:20:37,506729
0,7,14,8,-6,0,-2,-1,2021-08-04 14:20:37,506729
3,0,-4,6,8,5,6,-2,2021-08-04 14:20:37,522728
-2,-1,-6,-6,1,0,-4,-4,2021-08-04 14:20:37,522728
2,-6,23,-14,-5,-2,-1,26,2021-08-04 14:20:37,538729
-9,1,22,3,-3,-5,-2,-29,2021-08-04 14:20:37,554731
5,-4,-22,-3,-5,2,1,-10,2021-08-04 14:20:37,554731
-4,-4,-39,-1,-4,-5,-1,-3,2021-08-04 14:20:37,570731
0,-5,-13,-8,0,-1,3,10,2021-08-04 14:20:37,570731
-3,9,14,18,-2,2,-1,3,2021-08-04 14:20:37,570731
0,2,-30,-27,-4,-4,-3,-2,2021-08-04 14:20:37,586732
0,-6,12,16,9,6,2,-3,2021-08-04 14:20:37,602729
-6,-6,-21,-29,-6,-1,0,-3,2021-08-04 14:20:37,634727
4,10,3,-4,1,0,-1,12,2021-08-04 14:20:37,634727
4,24,6,22,2,-2,0,-13,2021-08-04 14:20:37,649730
-8,-4,-48,-18,-1,-2,1,8,2021-08-04 14:20:37,650730
5,-4,-48,-2,-4,-1,-4,-3,2021-08-04 14:20:37,650730
-6,-13,-31,-3,-4,-6,-5,8,2021-08-04 14:20:37,650730
-11,-6,29,17,4,3,-1,-30,2021-08-04 14:20:37,651731
15,6,-6,0,4,4,1,-3,2021-08-04 14:20:37,651731
-18,-3,-7,6,-1,-2,-1,2,2021-08-04 14:20:37,651731
3,26,1,-17,-2,0,2,22,2021-08-04 14:20:37,651731
-1,-4,54,-1,-4,-6,-2,-23,2021-08-04 14:20:37,652733
-6,-7,6,7,-5,-6,-4,14,2021-08-04 14:20:37,666729
18,7,18,7,3,3,2,-3,2021-08-04 14:20:37,681730
-29,-14,-67,-2,-1,0,0,5,2021-08-04 14:20:37,697732
4,0,30,0,-2,-1,-1,15,2021-08-04 14:20:37,712732
-3,3,-22,-7,-1,1,2,-11,2021-08-04 14:20:37,727731
2,1,25,6,6,-1,0,9,2021-08-04 14:20:37,727731
-2,-3,14,2,-3,-4,-7,-23,2021-08-04 14:20:37,742733
7,3,27,-3,3,1,1,9,2021-08-04 14:20:37,742733
-11,-9,39,-5,-21,-9,-5,-2,2021-08-04 14:20:37,742733
4,5,94,-8,17,3,1,-1,2021-08-04 14:20:37,743730
10,10,-2,11,11,8,5,0,2021-08-04 14:20:37,743730
-7,-18,22,-5,0,-1,0,12,2021-08-04 14:20:37,743730
15,11,77,9,-3,-5,-2,-5,2021-08-04 14:20:37,743730
-14,-4,-35,13,-13,-7,-3,-34,2021-08-04 14:20:37,744732
10,4,-23,-4,-2,0,-1,-20,2021-08-04 14:20:37,744732
-13,-12,-14,0,1,-1,-1,9,2021-08-04 14:20:37,744732
13,-25,33,23,-21,1,-4,0,2021-08-04 14:20:37,744732
-20,3,-67,-43,19,-2,-2,7,2021-08-04 14:20:37,758729
9,-6,39,11,6,1,1,-6,2021-08-04 14:20:37,774729
6,-9,29,-5,-4,-3,-4,-4,2021-08-04 14:20:37,790728
-7,-22,2,-6,-3,0,-1,8,2021-08-04 14:20:37,790728
7,-6,-37,20,-11,-2,-1,4,2021-08-04 14:20:37,790728
1,0,44,10,-3,-4,-2,6,2021-08-04 14:20:37,790728
-2,0,-37,-18,9,0,4,2,2021-08-04 14:20:37,806729
-15,7,2,-6,6,-1,-2,3,2021-08-04 14:20:37,821730
18,-6,-39,22,0,0,-1,-1,2021-08-04 14:20:37,821730
-14,15,27,-27,-2,-1,-2,11,2021-08-04 14:20:37,821730
5,-11,9,16,-9,-2,-1,15,2021-08-04 14:20:37,836730
-17,4,-55,-15,1,-2,-2,-28,2021-08-04 14:20:37,852728
-5,-38,-66,-46,-12,-6,-3,1,2021-08-04 14:20:37,868731
24,3,12,25,-2,-2,-1,17,2021-08-04 14:20:37,884727
-25,4,40,2,0,-1,-4,-7,2021-08-04 14:20:37,884727
19,23,32,-2,10,4,3,-13,2021-08-04 14:20:37,900729
-22,22,-30,28,-3,5,2,-1,2021-08-04 14:20:37,915731
5,6,-15,2,3,2,3,3,2021-08-04 14:20:37,931730
10,2,-30,-4,4,-1,-4,-5,2021-08-04 14:20:37,931730
1,-4,-11,3,3,-2,0,-3,2021-08-04 14:20:37,932731
2,-5,-15,-4,-8,-2,-4,1,2021-08-04 14:20:37,947729
11,-11,-15,-9,-3,0,1,-9,2021-08-04 14:20:37,962729
-2,7,46,9,-7,0,6,16,2021-08-04 14:20:37,962729
-3,1,-72,-18,6,3,2,40,2021-08-04 14:20:37,993727
19,7,-4,21,12,6,-1,-64,2021-08-04 14:20:37,993727
-29,9,23,13,-2,0,1,83,2021-08-04 14:20:37,993727
0,-23,-58,-57,-9,-7,-13,-41,2021-08-04 14:20:38,009732
-12,4,-42,4,-3,-4,-4,-22,2021-08-04 14:20:38,025729
-5,-3,35,-8,-7,-3,-3,53,2021-08-04 14:20:38,040729
20,-13,-31,-9,-3,-1,6,-21,2021-08-04 14:20:38,040729
-1,-2,58,27,-2,4,6,5,2021-08-04 14:20:38,040729
-2,3,-52,-4,0,-1,3,23,2021-08-04 14:20:38,041730
4,12,0,10,10,3,0,9,2021-08-04 14:20:38,041730
14,21,49,24,6,4,-2,-36,2021-08-04 14:20:38,041730
-6,-28,-33,-38,-9,-3,-4,4,2021-08-04 14:20:38,041730
2,8,-38,-9,-5,-6,-3,-2,2021-08-04 14:20:38,042728
-3,-17,19,1,-5,-5,-2,-20,2021-08-04 14:20:38,042728
12,-7,-1,-7,-2,-2,-5,-5,2021-08-04 14:20:38,042728
-21,24,48,15,9,5,4,-5,2021-08-04 14:20:38,042728
-3,25,32,21,11,3,2,-3,2021-08-04 14:20:38,043730
1,-3,-30,-17,-5,1,5,37,2021-08-04 14:20:38,043730
-18,-3,25,1,-2,-3,-6,-54,2021-08-04 14:20:38,056730
13,5,21,3,-8,-3,-3,16,2021-08-04 14:20:38,072729
17,-5,-3,-6,-8,-7,-8,10,2021-08-04 14:20:38,072729
-2,12,20,5,1,2,8,2,2021-08-04 14:20:38,072729
-2,-2,20,8,6,5,-1,-3,2021-08-04 14:20:38,073731
12,7,-10,11,8,1,2,20,2021-08-04 14:20:38,073731
-10,-30,-42,-13,-6,-6,-3,-24,2021-08-04 14:20:38,073731
-2,1,87,-5,-7,-3,-3,-7,2021-08-04 14:20:38,073731
6,-26,-47,-24,-12,-3,-2,16,2021-08-04 14:20:38,074730
5,7,4,8,-3,-4,-2,7,2021-08-04 14:20:38,074730
7,-5,32,14,8,5,0,-8,2021-08-04 14:20:38,074730
-22,-8,-16,-15,-4,0,-3,-21,2021-08-04 14:20:38,074730
-6,-9,19,-9,-3,-2,0,0,2021-08-04 14:20:38,075730
7,2,7,12,2,-3,-4,13,2021-08-04 14:20:38,075730
-12,8,21,-21,-33,-1,2,-29,2021-08-04 14:20:38,088730
6,-9,-17,21,30,1,1,12,2021-08-04 14:20:38,088730
-10,0,44,-2,6,0,0,12,2021-08-04 14:20:38,088730
-7,-4,13,-5,-6,-1,2,-25,2021-08-04 14:20:38,089731
26,12,67,17,-2,-1,-1,15,2021-08-04 14:20:38,089731
-49,-3,-40,-16,-10,-2,-2,1,2021-08-04 14:20:38,089731
-1,-1,-4,-1,3,-2,2,6,2021-08-04 14:20:38,089731
-6,-8,1,-12,-3,-1,-2,-16,2021-08-04 14:20:38,090729
-3,-4,38,-1,2,-3,-1,7,2021-08-04 14:20:38,090729
13,3,-5,6,-6,-1,2,-38,2021-08-04 14:20:38,090729
-13,-6,10,4,2,1,3,10,2021-08-04 14:20:38,090729
15,21,26,3,7,4,1,-6,2021-08-04 14:20:38,090729
-25,-23,-72,-2,7,0,-2,16,2021-08-04 14:20:38,104731
8,-4,-12,-6,-6,-4,-3,9,2021-08-04 14:20:38,120730
-14,-6,8,-6,-10,-8,-5,-21,2021-08-04 14:20:38,136735
16,18,29,20,2,1,0,5,2021-08-04 14:20:38,136735
-8,-7,-8,-25,4,1,2,6,2021-08-04 14:20:38,136735
12,8,-1,22,6,3,2,4,2021-08-04 14:20:38,151727
-1,3,-15,-3,0,-2,-5,-7,2021-08-04 14:20:38,166730
-6,-2,22,3,-5,-1,-2,-14,2021-08-04 14:20:38,182727
4,0,1,11,2,-1,2,3,2021-08-04 14:20:38,198727
7,0,-27,-11,-10,-3,-2,23,2021-08-04 14:20:38,198727
-4,-6,1,-11,1,-1,-6,-11,2021-08-04 14:20:38,214728
0,-10,6,8,1,2,-2,-55,2021-08-04 14:20:38,230731
12,2,-7,-6,-14,0,0,-9,2021-08-04 14:20:38,230731
-2,4,13,-3,11,0,2,15,2021-08-04 14:20:38,230731
3,2,4,9,-2,4,3,12,2021-08-04 14:20:38,246732
-3,10,-15,4,11,1,3,15,2021-08-04 14:20:38,262729
14,-19,1,-4,-8,-4,-3,-8,2021-08-04 14:20:38,262729
-6,0,27,4,-7,-4,-6,-3,2021-08-04 14:20:38,278732
-11,-6,28,-30,-7,-4,-1,-2,2021-08-04 14:20:38,278732
-10,-10,18,5,-9,-5,-4,3,2021-08-04 14:20:38,293734
14,19,-25,8,16,9,4,0,2021-08-04 14:20:38,293734
10,-18,-7,11,-4,-1,-2,7,2021-08-04 14:20:38,293734
-9,-8,-25,-4,3,-4,0,3,2021-08-04 14:20:38,293734
3,5,14,-10,-2,-1,-1,-10,2021-08-04 14:20:38,294732
-16,3,14,6,2,-3,0,4,2021-08-04 14:20:38,309730
7,0,-15,7,2,0,-3,4,2021-08-04 14:20:38,325731
4,2,-23,-2,-1,4,0,-45,2021-08-04 14:20:38,325731
-5,-7,2,4,1,1,-1,21,2021-08-04 14:20:38,325731
-13,-6,-26,-7,2,0,-1,-10,2021-08-04 14:20:38,326729
1,-14,-19,-15,-11,-2,-2,0,2021-08-04 14:20:38,326729
-11,1,0,0,2,-4,1,6,2021-08-04 14:20:38,326729
-19,-2,-21,-18,-11,-5,0,27,2021-08-04 14:20:38,326729
-13,4,15,6,6,3,-2,-26,2021-08-04 14:20:38,327732
15,17,16,10,8,4,3,16,2021-08-04 14:20:38,327732
0,3,-34,8,-2,-3,-6,-15,2021-08-04 14:20:38,327732
-1,-20,-92,-19,-3,-3,-5,-8,2021-08-04 14:20:38,327732
-10,-5,42,6,-7,-4,1,-1,2021-08-04 14:20:38,328729
-6,-4,-34,-26,-7,-6,-3,-5,2021-08-04 14:20:38,340729
11,7,18,19,-20,4,3,17,2021-08-04 14:20:38,340729
0,4,19,-3,22,0,0,7,2021-08-04 14:20:38,340729
4,3,-14,-7,1,0,0,9,2021-08-04 14:20:38,341730
-4,5,-6,13,-1,0,-2,-58,2021-08-04 14:20:38,341730
5,-9,-5,-1,-4,-1,1,17,2021-08-04 14:20:38,341730
2,0,28,5,-8,-1,-1,3,2021-08-04 14:20:38,341730
-6,4,-13,-5,0,-2,-2,11,2021-08-04 14:20:38,342730
12,4,10,1,0,0,-1,3,2021-08-04 14:20:38,342730
2,5,18,-2,2,1,1,-12,2021-08-04 14:20:38,343730
-49,-15,-50,-4,-3,-1,0,8,2021-08-04 14:20:38,343730
7,3,61,5,3,-3,0,7,2021-08-04 14:20:38,343730
-5,8,-25,4,-5,3,0,-3,2021-08-04 14:20:38,344731
11,2,-3,-5,10,0,-2,-1,2021-08-04 14:20:38,344731
8,-10,43,9,-5,-4,-1,0,2021-08-04 14:20:38,344731
-2,2,-34,-5,-6,-2,-1,-3,2021-08-04 14:20:38,345730
-4,-9,26,6,-3,-3,-1,4,2021-08-04 14:20:38,345730
1,6,11,-3,2,-3,0,3,2021-08-04 14:20:38,355727
7,5,-35,3,2,3,0,-2,2021-08-04 14:20:38,371732
-4,-1,-45,-19,-20,1,-1,0,2021-08-04 14:20:38,387727
4,4,10,-3,19,0,0,-2,2021-08-04 14:20:38,387727
9,-3,12,3,-3,-1,-2,27,2021-08-04 14:20:38,387727
-35,2,19,0,-5,0,-4,-84,2021-08-04 14:20:38,387727
13,6,4,8,4,-1,0,12,2021-08-04 14:20:38,403730
9,6,-17,-2,-2,1,3,3,2021-08-04 14:20:38,435729
-16,-9,3,-7,-2,-5,-3,8,2021-08-04 14:20:38,435729
15,3,24,0,-7,-2,0,36,2021-08-04 14:20:38,435729
-7,-10,6,-7,2,0,-1,-11,2021-08-04 14:20:38,436731
-10,0,-16,-5,3,1,2,-4,2021-08-04 14:20:38,436731
4,-3,6,-4,0,-1,0,-10,2021-08-04 14:20:38,437730
14,-1,12,-2,-7,-2,2,5,2021-08-04 14:20:38,437730
-7,4,-8,12,13,3,-2,6,2021-08-04 14:20:38,451731
6,-7,-6,-6,-1,-1,-3,-9,2021-08-04 14:20:38,451731
-25,-3,-8,-3,-3,-2,-1,0,2021-08-04 14:20:38,451731
7,8,7,6,1,-2,0,18,2021-08-04 14:20:38,467728
0,8,-9,-1,-3,-2,-2,-37,2021-08-04 14:20:38,483729
-10,-13,-11,-4,-7,-1,-5,1,2021-08-04 14:20:38,483729
0,-5,11,-9,2,-1,-5,-8,2021-08-04 14:20:38,483729
7,3,-8,8,0,-2,-1,14,2021-08-04 14:20:38,483729
-3,2,18,11,-5,-1,1,5,2021-08-04 14:20:38,499727
-1,4,28,-4,22,0,0,2,2021-08-04 14:20:38,532730
2,3,-14,1,-1,-3,0,-8,2021-08-04 14:20:38,533730
9,-3,5,-6,-3,0,-2,14,2021-08-04 14:20:38,533730
3,-3,31,-6,-7,-1,-1,4,2021-08-04 14:20:38,533730
-27,3,3,8,-3,2,2,2,2021-08-04 14:20:38,561728
11,2,4,8,7,4,4,3,2021-08-04 14:20:38,561728
-1,-3,-4,-10,2,-3,-5,4,2021-08-04 14:20:38,561728
0,4,-21,1,-1,-2,-2,-10,2021-08-04 14:20:38,577730
8,13,1,2,-10,-2,-1,-1,2021-08-04 14:20:38,577730
-2,-6,65,9,7,1,0,-3,2021-08-04 14:20:38,578729
3,-1,-49,-17,-1,3,0,-3,2021-08-04 14:20:38,578729
-3,1,26,-5,-2,-7,-3,18,2021-08-04 14:20:38,593729
1,1,-12,-9,-11,-6,-3,-26,2021-08-04 14:20:38,609727
-6,1,-21,2,0,2,-2,-15,2021-08-04 14:20:38,609727
11,-1,1,4,5,4,0,-3,2021-08-04 14:20:38,609727
-3,-7,-22,1,-22,2,0,24,2021-08-04 14:20:38,609727
0,0,24,-2,18,-2,0,8,2021-08-04 14:20:38,610733
10,-1,10,-14,-10,-5,0,4,2021-08-04 14:20:38,610733
-18,1,2,-3,-11,-3,-1,-1,2021-08-04 14:20:38,625727
0,-8,3,2,12,3,0,-9,2021-08-04 14:20:38,625727
5,6,-16,-5,-11,2,1,14,2021-08-04 14:20:38,641732
2,-9,25,1,-3,1,-2,-4,2021-08-04 14:20:38,641732
7,-1,-5,12,3,-3,-1,-2,2021-08-04 14:20:38,641732
-2,-3,-14,3,4,-1,0,1,2021-08-04 14:20:38,642732
-2,-13,2,-14,-9,-2,-1,1,2021-08-04 14:20:38,642732
-1,6,-40,-4,2,-1,0,11,2021-08-04 14:20:38,642732
-9,2,37,-1,0,-2,0,-15,2021-08-04 14:20:38,643729
10,1,-4,8,4,-1,-3,2,2021-08-04 14:20:38,643729
-17,5,2,7,-1,2,1,-4,2021-08-04 14:20:38,643729
-3,-4,-27,2,-3,-2,0,43,2021-08-04 14:20:38,643729
-2,-9,-35,-16,-3,-4,-4,-38,2021-08-04 14:20:38,644730
2,1,6,5,7,-1,0,0,2021-08-04 14:20:38,644730
0,-13,-19,-6,-7,0,-1,2,2021-08-04 14:20:38,644730
-3,-1,-17,-5,-10,-2,-1,0,2021-08-04 14:20:38,657730
-1,3,20,2,-5,-1,-1,12,2021-08-04 14:20:38,689733
-4,1,-22,3,34,6,0,-3,2021-08-04 14:20:38,705726
4,-9,8,-1,-7,-1,-2,0,2021-08-04 14:20:38,720728
-2,1,21,4,-4,-5,0,-4,2021-08-04 14:20:38,736728
6,3,4,-3,0,-1,0,12,2021-08-04 14:20:38,736728
-5,-19,-39,-14,-11,-2,-2,-27,2021-08-04 14:20:38,736728
6,4,7,4,-3,-1,0,7,2021-08-04 14:20:38,737732
-15,1,8,-2,8,0,-4,-10,2021-08-04 14:20:38,737732
5,3,7,-2,0,2,-1,2,2021-08-04 14:20:38,737732
-6,-3,-24,0,-7,-2,0,6,2021-08-04 14:20:38,752728
0,0,31,5,-1,-2,-2,1,2021-08-04 14:20:38,752728
1,3,45,-9,1,1,-1,-11,2021-08-04 14:20:38,752728
1,3,8,5,2,-2,-1,1,2021-08-04 14:20:38,752728
-4,-10,-34,-5,0,-2,-1,6,2021-08-04 14:20:38,753730
3,-5,-20,3,-2,-1,0,-5,2021-08-04 14:20:38,753730
0,0,43,3,10,-3,-1,-10,2021-08-04 14:20:38,753730
2,-1,-23,-9,-1,4,0,22,2021-08-04 14:20:38,754730
-1,-3,41,7,-6,-1,-2,-41,2021-08-04 14:20:38,754730
4,16,28,10,7,-1,-1,12,2021-08-04 14:20:38,768730
-1,-7,-35,-15,-10,0,-3,-24,2021-08-04 14:20:38,784728
1,-12,-5,-16,-1,-1,3,5,2021-08-04 14:20:38,784728
10,6,-1,-2,-5,-5,-5,11,2021-08-04 14:20:38,784728
-2,-1,7,-1,-8,1,1,10,2021-08-04 14:20:38,785731
1,-5,9,10,6,-1,-1,-4,2021-08-04 14:20:38,785731
1,3,26,11,7,-1,0,9,2021-08-04 14:20:38,800729
-1,7,-3,-4,-6,0,-2,-22,2021-08-04 14:20:38,816731
1,0,-6,-5,-2,1,0,-2,2021-08-04 14:20:38,832731
0,-4,-32,-1,-2,-1,1,3,2021-08-04 14:20:38,832731
16,3,-2,2,-1,-2,1,19,2021-08-04 14:20:38,833731
-39,-5,44,-7,-25,-1,-3,-12,2021-08-04 14:20:38,833731
0,2,16,5,26,1,0,3,2021-08-04 14:20:38,833731
-2,-1,-11,0,-2,2,-1,2,2021-08-04 14:20:38,834730
-1,-3,21,1,1,-1,-1,-4,2021-08-04 14:20:38,834730
10,3,-11,2,-2,-2,0,15,2021-08-04 14:20:38,834730
-6,-3,-1,-8,-11,-5,-1,-11,2021-08-04 14:20:38,835729
0,3,10,0,-5,-1,-1,6,2021-08-04 14:20:38,835729
-2,3,-23,12,6,3,-2,-12,2021-08-04 14:20:38,835729
0,-10,50,-2,13,1,1,10,2021-08-04 14:20:38,835729
2,0,2,-12,-5,0,-1,-1,2021-08-04 14:20:38,836731
3,1,3,6,3,-1,0,4,2021-08-04 14:20:38,836731
-5,3,25,-9,-8,-4,-3,-5,2021-08-04 14:20:38,836731
3,-5,-9,4,-1,0,2,7,2021-08-04 14:20:38,836731
6,0,-5,4,5,2,1,-1,2021-08-04 14:20:38,837732
2,-6,7,-3,-7,-3,1,5,2021-08-04 14:20:38,837732
-5,2,10,-2,-3,2,0,-7,2021-08-04 14:20:38,837732
3,-8,-24,-5,2,-1,0,10,2021-08-04 14:20:38,837732
12,2,6,8,1,1,-2,-49,2021-08-04 14:20:38,847733
-5,-2,-15,-5,-10,-1,-2,17,2021-08-04 14:20:38,847733
-3,-1,6,5,9,0,-1,-11,2021-08-04 14:20:38,863783
4,3,17,-16,-2,-1,1,18,2021-08-04 14:20:38,863783
-4,-16,-6,-3,-6,-3,-2,12,2021-08-04 14:20:38,863783
0,4,32,5,-10,-4,-3,-15,2021-08-04 14:20:38,863783
-1,0,23,-1,1,-2,0,-3,2021-08-04 14:20:38,864784
0,6,-21,5,3,3,2,2,2021-08-04 14:20:38,878782
-5,-6,-9,-1,0,1,1,6,2021-08-04 14:20:38,909785
0,-1,18,3,8,2,1,-4,2021-08-04 14:20:38,909785
-6,-8,-20,-1,-5,-4,-1,-1,2021-08-04 14:20:38,909785
3,2,-7,0,-3,-4,1,-4,2021-08-04 14:20:38,910783
-2,4,-4,1,-5,-3,-1,5,2021-08-04 14:20:38,925786
-1,-4,-22,-12,4,3,1,-1,2021-08-04 14:20:38,925786
0,-5,-27,-6,5,3,1,-3,2021-08-04 14:20:38,957784
-3,3,-51,5,-1,-3,-2,-1,2021-08-04 14:20:38,957784
-4,-2,-35,4,-4,-1,-2,3,2021-08-04 14:20:38,973781
-4,-1,-1,3,-4,-2,-1,-1,2021-08-04 14:20:38,973781
7,10,7,0,-10,-1,-1,0,2021-08-04 14:20:39,005783
0,-6,-18,1,26,0,1,2,2021-08-04 14:20:39,005783
-2,-3,-17,-10,-4,1,1,15,2021-08-04 14:20:39,005783
-2,0,-15,-3,-6,-3,-3,7,2021-08-04 14:20:39,006785
-7,-3,-19,-10,-2,-4,-5,-21,2021-08-04 14:20:39,006785
1,5,26,6,-5,-2,0,11,2021-08-04 14:20:39,006785
12,1,38,5,1,2,0,4,2021-08-04 14:20:39,021782
-26,-7,-45,-3,11,1,0,-15,2021-08-04 14:20:39,037785
1,-5,-10,3,-11,0,1,11,2021-08-04 14:20:39,037785
6,2,7,7,-3,-2,-1,2,2021-08-04 14:20:39,053786
-4,3,-16,-8,-5,0,0,-7,2021-08-04 14:20:39,069781
8,5,7,-2,-3,-2,-3,-4,2021-08-04 14:20:39,070035
-3,-1,15,8,6,3,-1,-20,2021-08-04 14:20:39,070035
-4,-1,-28,8,0,1,0,-3,2021-08-04 14:20:39,085315
-3,-2,2,-19,0,-2,0,-5,2021-08-04 14:20:39,101313
2,-3,2,-8,-1,-5,-1,5,2021-08-04 14:20:39,117317
-3,-4,12,-4,-3,-3,-3,-7,2021-08-04 14:20:39,117317
6,7,-10,1,2,1,-1,-8,2021-08-04 14:20:39,133315
-8,-21,21,2,-5,-1,-2,4,2021-08-04 14:20:39,133315
3,-2,-6,10,4,1,2,-1,2021-08-04 14:20:39,133315
0,-3,16,-7,3,-2,0,4,2021-08-04 14:20:39,148317
-3,2,27,-9,-18,-4,-1,-2,2021-08-04 14:20:39,148317
-1,6,-26,-3,0,-1,-2,4,2021-08-04 14:20:39,148317
3,3,54,12,10,5,-1,-2,2021-08-04 14:20:39,149315
1,-3,21,2,-4,0,0,0,2021-08-04 14:20:39,149315
-1,-2,15,5,0,-1,-1,4,2021-08-04 14:20:39,149315
-1,8,7,-9,-4,-2,-1,-2,2021-08-04 14:20:39,149315
4,1,14,-2,-6,-3,-1,-8,2021-08-04 14:20:39,150315
-1,-2,-5,2,0,-1,-2,15,2021-08-04 14:20:39,150315
2,0,-22,-5,6,4,1,-3,2021-08-04 14:20:39,164315
-10,-2,-20,5,0,-4,-1,-8,2021-08-04 14:20:39,180313
3,3,0,-4,-8,-2,1,-1,2021-08-04 14:20:39,180313
12,1,12,-2,-2,-3,-2,15,2021-08-04 14:20:39,180313
-3,-4,-6,-3,-3,0,-2,-34,2021-08-04 14:20:39,181315
2,2,-11,10,25,0,-1,-1,2021-08-04 14:20:39,181315
1,-5,8,-9,-7,-3,-2,3,2021-08-04 14:20:39,181315
-5,-11,-11,-6,-11,-4,-1,-1,2021-08-04 14:20:39,181315
1,4,23,-2,4,1,-1,4,2021-08-04 14:20:39,182316
-2,2,-10,6,-5,1,2,4,2021-08-04 14:20:39,182316
3,2,-5,3,2,2,1,-2,2021-08-04 14:20:39,182316
-2,0,9,1,9,1,-1,11,2021-08-04 14:20:39,182316
-7,-7,-57,-10,-9,-4,-3,-50,2021-08-04 14:20:39,183318
-2,-2,11,1,-8,-2,-2,0,2021-08-04 14:20:39,183318
-1,5,50,4,1,-2,-1,4,2021-08-04 14:20:39,183318
-1,-3,21,3,-3,-1,1,-1,2021-08-04 14:20:39,183318
-3,-2,-33,-8,3,0,-1,15,2021-08-04 14:20:39,183318
2,-5,-36,-8,-6,-1,-1,0,2021-08-04 14:20:39,195315
-2,-3,-1,-3,-9,-3,-1,-8,2021-08-04 14:20:39,211313
-2,-1,14,-3,29,0,-1,-4,2021-08-04 14:20:39,227317
-2,7,-4,4,-7,1,2,11,2021-08-04 14:20:39,243315
-3,-16,-10,-3,-5,-1,-3,-2,2021-08-04 14:20:39,243315
-2,0,-8,-11,-6,0,-1,4,2021-08-04 14:20:39,259316
-3,5,-7,-3,0,0,-2,-6,2021-08-04 14:20:39,259316
1,2,7,2,0,-1,-1,25,2021-08-04 14:20:39,259316
14,4,6,2,-2,-1,-2,-13,2021-08-04 14:20:39,275314
-9,-2,-19,-1,-1,1,1,-15,2021-08-04 14:20:39,291316
2,0,-16,-2,-6,0,0,4,2021-08-04 14:20:39,307315
-2,-3,5,-6,2,2,0,-7,2021-08-04 14:20:39,307315
0,-1,-14,1,-13,-4,-2,21,2021-08-04 14:20:39,307315
3,-6,41,-6,11,-1,-2,1,2021-08-04 14:20:39,323315
-4,3,2,9,-1,0,1,-12,2021-08-04 14:20:39,323315
2,-2,-6,-6,-6,-3,1,22,2021-08-04 14:20:39,323315
-7,3,7,9,0,0,0,-7,2021-08-04 14:20:39,324317
1,-3,-72,-13,4,-1,-1,-1,2021-08-04 14:20:39,324317
-4,1,14,5,3,1,0,-2,2021-08-04 14:20:39,324317
0,-2,36,0,-3,-1,-1,-1,2021-08-04 14:20:39,324317
-3,4,-14,-4,2,-1,-2,-4,2021-08-04 14:20:39,325315
-1,-4,51,19,-6,-2,0,-4,2021-08-04 14:20:39,325315
2,-2,-55,-19,-10,-1,-1,-2,2021-08-04 14:20:39,325315
-4,-4,-23,-11,7,-3,-3,1,2021-08-04 14:20:39,325315
0,5,17,3,-3,-1,1,-5,2021-08-04 14:20:39,326319
-2,-5,18,-5,0,-3,-3,8,2021-08-04 14:20:39,339312
-3,-6,9,18,-6,-4,-3,-4,2021-08-04 14:20:39,355315
0,-1,-40,-1,3,1,1,20,2021-08-04 14:20:39,371317
-2,3,-2,-5,1,1,-1,-22,2021-08-04 14:20:39,387315
6,12,-18,14,4,-1,1,17,2021-08-04 14:20:39,403316
19,-8,20,-3,-1,-1,2,6,2021-08-04 14:20:39,403316
-7,-18,-37,8,-6,-1,-4,-25,2021-08-04 14:20:39,404315
1,3,-10,-20,4,2,1,8,2021-08-04 14:20:39,418314
-1,-1,2,3,-22,-3,-1,-8,2021-08-04 14:20:39,421315
8,6,2,1,29,1,1,6,2021-08-04 14:20:39,422315
-2,5,13,-2,-10,-2,1,4,2021-08-04 14:20:39,422315
-4,-7,-8,2,-7,0,0,-1,2021-08-04 14:20:39,422315
0,-3,-17,-3,7,1,0,-7,2021-08-04 14:20:39,448317
-5,1,-4,-15,-11,-1,-2,-2,2021-08-04 14:20:39,464317
1,3,-5,14,-2,-1,-2,-5,2021-08-04 14:20:39,464317
-5,-3,20,11,9,1,1,2,2021-08-04 14:20:39,464317
-1,1,-2,-5,1,-5,-2,8,2021-08-04 14:20:39,465316
-7,-1,-2,-9,-9,-1,-3,10,2021-08-04 14:20:39,465316
3,3,3,2,8,4,1,-9,2021-08-04 14:20:39,466316
0,-2,-27,0,-7,2,1,6,2021-08-04 14:20:39,466316
-1,0,0,7,13,3,-1,1,2021-08-04 14:20:39,466316
-9,0,-35,0,-13,-5,-2,3,2021-08-04 14:20:39,480315
0,-2,67,3,-8,-6,-1,-1,2021-08-04 14:20:39,496314
12,-2,-4,-5,2,-2,-2,-10,2021-08-04 14:20:39,512315
0,-11,-22,-4,12,3,1,5,2021-08-04 14:20:39,512315
-4,-5,0,-1,-8,1,0,-12,2021-08-04 14:20:39,542313
-2,3,-29,-11,1,-2,-4,17,2021-08-04 14:20:39,542313
3,3,3,11,-4,0,0,-4,2021-08-04 14:20:39,542313
-1,4,1,-5,-5,-3,-1,-6,2021-08-04 14:20:39,543316
-2,5,6,6,0,2,2,-7,2021-08-04 14:20:39,543316
5,-7,-16,3,-5,-2,-1,1,2021-08-04 14:20:39,543316
-6,0,49,-8,-3,-4,-3,19,2021-08-04 14:20:39,543316
-9,-3,35,-5,-8,-5,-5,-43,2021-08-04 14:20:39,544316
-2,1,-9,1,-1,-1,2,1,2021-08-04 14:20:39,558314
-1,1,19,-14,7,2,0,1,2021-08-04 14:20:39,558314
-5,-3,6,12,6,0,1,-6,2021-08-04 14:20:39,558314
-4,-7,-26,-15,-5,-2,0,10,2021-08-04 14:20:39,558314
2,-3,14,13,-19,-3,-2,-3,2021-08-04 14:20:39,589313
-4,2,29,-11,24,-1,-1,-10,2021-08-04 14:20:39,604316
0,2,-20,7,1,6,1,14,2021-08-04 14:20:39,604316
0,-5,8,-5,-4,3,-1,4,2021-08-04 14:20:39,604316
-3,4,13,-9,-6,-5,-4,1,2021-08-04 14:20:39,605315
2,-1,4,-2,-3,-2,1,4,2021-08-04 14:20:39,605315
-1,-2,11,4,-2,-2,1,-3,2021-08-04 14:20:39,605315
-2,-4,-34,1,0,-3,-2,2,2021-08-04 14:20:39,620316
-1,2,4,7,7,2,0,2,2021-08-04 14:20:39,620316
3,-16,-56,-5,-12,-3,-1,5,2021-08-04 14:20:39,620316
-23,4,-10,-6,-2,-7,-3,-40,2021-08-04 14:20:39,621316
10,3,24,0,-6,3,1,11,2021-08-04 14:20:39,621316
-19,-7,7,3,8,2,0,-5,2021-08-04 14:20:39,636316
4,7,4,4,-3,2,1,9,2021-08-04 14:20:39,636316
3,-7,-2,-9,-3,-1,-1,4,2021-08-04 14:20:39,636316
2,6,26,11,1,-4,-1,1,2021-08-04 14:20:39,652317
2,2,-16,-18,-9,-5,-2,-5,2021-08-04 14:20:39,684315
-6,5,9,7,19,4,1,-8,2021-08-04 14:20:39,700315
-1,-11,2,2,-3,2,-1,8,2021-08-04 14:20:39,700315
-3,5,18,-14,0,-1,-1,-14,2021-08-04 14:20:39,716317
6,-4,7,5,1,-3,-1,0,2021-08-04 14:20:39,732315
-3,-1,-25,-1,-9,-2,-1,-6,2021-08-04 14:20:39,732315
4,-3,-21,-1,-4,-4,-3,5,2021-08-04 14:20:39,747315
0,-4,-14,15,3,2,0,7,2021-08-04 14:20:39,747315
-2,-3,22,-33,-5,-2,-3,-5,2021-08-04 14:20:39,747315
2,1,-19,9,-2,1,-1,-4,2021-08-04 14:20:39,747315
2,8,8,4,9,2,3,11,2021-08-04 14:20:39,748320
-1,-15,-6,4,-8,-2,-2,-1,2021-08-04 14:20:39,748320
-14,0,-37,-11,-1,-2,-3,-4,2021-08-04 14:20:39,748320
0,1,26,4,-3,-1,0,8,2021-08-04 14:20:39,763318
4,4,25,8,0,1,-1,-20,2021-08-04 14:20:39,779315
-5,1,-17,-10,3,0,-1,12,2021-08-04 14:20:39,779315
7,-1,22,12,-1,-4,-3,-4,2021-08-04 14:20:39,779315
-1,-3,-29,-8,-24,-3,0,-3,2021-08-04 14:20:39,779315
-2,-1,20,-11,25,-1,-3,7,2021-08-04 14:20:39,780317
3,5,-6,12,-3,3,0,-4,2021-08-04 14:20:39,780317
3,3,-6,17,4,5,1,-3,2021-08-04 14:20:39,794316
-5,-14,18,-40,-12,-4,-3,0,2021-08-04 14:20:39,794316
2,0,-10,2,-5,-4,-1,1,2021-08-04 14:20:39,794316
-2,5,8,-6,5,0,0,5,2021-08-04 14:20:39,795314
1,-4,-4,23,10,5,-2,-16,2021-08-04 14:20:39,795314
-2,8,-18,-1,0,-2,0,17,2021-08-04 14:20:39,810313
-1,-2,-30,-3,-12,-2,-2,-17,2021-08-04 14:20:39,826314
-2,-2,8,12,3,-4,-3,-2,2021-08-04 14:20:39,842316
0,0,-27,-25,-2,-2,0,10,2021-08-04 14:20:39,842316
1,3,32,12,3,1,0,3,2021-08-04 14:20:39,842316
-2,-7,-15,-2,-4,3,0,8,2021-08-04 14:20:39,843317
-2,0,8,-1,-4,-1,2,6,2021-08-04 14:20:39,843317
1,0,-12,0,23,-2,0,-1,2021-08-04 14:20:39,843317
0,4,80,15,2,1,0,-11,2021-08-04 14:20:39,844316
4,-8,-22,-9,-12,-5,-3,25,2021-08-04 14:20:39,844316
-12,-2,14,-4,2,-3,-1,-2,2021-08-04 14:20:39,844316
-26,-1,-7,1,-10,-2,0,2,2021-08-04 14:20:39,845317
-3,-1,-46,3,7,-1,-3,-14,2021-08-04 14:20:39,845317
1,6,12,12,-1,2,2,8,2021-08-04 14:20:39,845317
8,3,-34,-19,-7,1,0,17,2021-08-04 14:20:39,845317
5,-5,5,1,1,-1,-3,-13,2021-08-04 14:20:39,857316
-1,2,-38,10,4,-2,-1,0,2021-08-04 14:20:39,872315
0,5,44,-18,-9,-3,1,-7,2021-08-04 14:20:39,888312
2,-2,-18,4,0,-1,-1,3,2021-08-04 14:20:39,904318
2,-4,3,8,0,-1,0,2,2021-08-04 14:20:39,920317
2,-9,16,-2,-6,-2,0,-5,2021-08-04 14:20:39,920317
1,2,-11,6,0,0,0,0,2021-08-04 14:20:39,935314
-2,-4,18,-27,-3,0,-1,-11,2021-08-04 14:20:39,935314
5,8,19,21,21,0,0,4,2021-08-04 14:20:39,936317
0,-6,-20,2,-8,-2,-1,3,2021-08-04 14:20:39,936317
-3,0,6,-8,5,-3,-3,-28,2021-08-04 14:20:39,936317
-1,6,12,6,-2,-1,1,-9,2021-08-04 14:20:39,936317
1,0,19,5,-16,-1,-2,0,2021-08-04 14:20:39,937316
6,-2,-1,-7,5,3,1,10,2021-08-04 14:20:39,937316
15,6,15,15,8,1,1,12,2021-08-04 14:20:39,937316
-7,-9,-15,-3,-10,-6,-6,-67,2021-08-04 14:20:39,937316
4,-1,0,-16,-6,3,1,8,2021-08-04 14:20:39,965315
1,5,-40,14,6,2,1,-2,2021-08-04 14:20:39,965315
-1,-10,72,-17,-8,-3,-1,0,2021-08-04 14:20:39,996317
5,0,0,21,1,-3,0,12,2021-08-04 14:20:39,996317
-1,0,15,-14,-1,-1,-1,-1,2021-08-04 14:20:40,012316
-2,0,-15,-11,4,4,-1,-14,2021-08-04 14:20:40,012316
1,10,-22,22,-2,2,2,2,2021-08-04 14:20:40,028313
-4,-2,9,7,-5,0,0,12,2021-08-04 14:20:40,044313
-3,-10,-5,-40,6,-8,-3,-5,2021-08-04 14:20:40,060314
-3,-1,-11,1,-1,-1,-2,2,2021-08-04 14:20:40,060314
-2,1,10,11,6,2,1,0,2021-08-04 14:20:40,060314
0,2,38,3,2,-1,0,11,2021-08-04 14:20:40,060314
-1,6,13,1,-13,-4,-2,-39,2021-08-04 14:20:40,076312
-3,-5,0,-1,-4,-3,-2,2,2021-08-04 14:20:40,076312
-6,5,-37,3,1,-1,-1,2,2021-08-04 14:20:40,076312
2,-5,22,-10,5,6,2,4,2021-08-04 14:20:40,076312
1,-4,3,29,-5,0,1,18,2021-08-04 14:20:40,092315
12,-4,-3,-7,-7,-6,-3,-20,2021-08-04 14:20:40,108317
-16,1,-28,-23,-9,-4,-3,1,2021-08-04 14:20:40,124315
2,5,-1,3,4,1,-2,9,2021-08-04 14:20:40,124315
2,-1,6,-5,-4,2,1,7,2021-08-04 14:20:40,140316
0,0,30,5,2,0,0,2,2021-08-04 14:20:40,140316
1,-5,-9,0,-3,0,0,0,2021-08-04 14:20:40,140316
0,12,-26,-2,3,-2,-1,-4,2021-08-04 14:20:40,156317
-8,-18,-41,-10,-34,-4,-1,10,2021-08-04 14:20:40,156317
-1,-3,-17,-2,24,-2,-1,-1,2021-08-04 14:20:40,172314
4,-4,17,6,-3,5,1,-6,2021-08-04 14:20:40,172314
6,8,-6,-3,7,3,1,4,2021-08-04 14:20:40,172314
0,-4,-7,-7,-9,-2,0,15,2021-08-04 14:20:40,172314
-4,0,-15,9,-6,-2,-1,12,2021-08-04 14:20:40,173316
-5,-1,-12,-25,-1,-6,-4,-37,2021-08-04 14:20:40,173316
1,-10,-13,21,-3,-1,-1,2,2021-08-04 14:20:40,173316
4,8,5,-7,14,6,3,12,2021-08-04 14:20:40,174315
-8,-3,6,5,-10,-4,-1,-2,2021-08-04 14:20:40,174315
2,-2,-14,-3,3,-4,1,-2,2021-08-04 14:20:40,174315
-2,-6,22,-10,-10,-4,-2,0,2021-08-04 14:20:40,174315
4,5,21,13,10,3,-1,-16,2021-08-04 14:20:40,174315
-19,5,-15,-2,5,3,0,10,2021-08-04 14:20:40,175317
-1,-8,44,5,-4,2,0,0,2021-08-04 14:20:40,175317
-2,-5,-30,-14,-3,-3,1,-4,2021-08-04 14:20:40,175317
-1,5,29,10,-21,-4,-2,0,2021-08-04 14:20:40,188315
6,-5,4,-14,13,0,-1,-4,2021-08-04 14:20:40,188315
6,16,-42,17,-4,-1,-4,14,2021-08-04 14:20:40,188315
-15,-23,50,-15,0,-6,-1,-12,2021-08-04 14:20:40,189315
3,2,-10,8,1,0,0,0,2021-08-04 14:20:40,189315
4,11,16,16,-3,3,2,2,2021-08-04 14:20:40,190316
1,6,-15,-19,1,1,1,27,2021-08-04 14:20:40,204318
1,-3,-30,-10,-2,0,-4,-7,2021-08-04 14:20:40,204318
0,-1,-31,0,4,-1,-2,2,2021-08-04 14:20:40,236315
-1,6,20,1,-11,-5,5,-6,2021-08-04 14:20:40,236315
-3,-10,-18,15,3,0,-3,15,2021-08-04 14:20:40,237316
9,-4,38,-12,2,-1,-1,3,2021-08-04 14:20:40,252312
-5,-3,-6,-7,4,-3,-1,-4,2021-08-04 14:20:40,268317
-11,0,-1,7,-16,-3,-2,-2,2021-08-04 14:20:40,284315
7,6,46,13,28,1,0,-3,2021-08-04 14:20:40,284315
6,14,-31,6,0,4,3,-2,2021-08-04 14:20:40,300317
-6,-20,-15,-12,-2,-3,-4,-12,2021-08-04 14:20:40,300317
3,3,-8,-11,-4,-4,-2,1,2021-08-04 14:20:40,300317
-3,-3,13,1,-12,0,1,-12,2021-08-04 14:20:40,301315
-6,2,-8,22,3,2,-2,-1,2021-08-04 14:20:40,316319
1,7,-5,-13,7,-2,0,31,2021-08-04 14:20:40,316319
-4,-2,-6,-15,-6,1,-4,-80,2021-08-04 14:20:40,319315
-5,-11,5,-8,0,1,2,-1,2021-08-04 14:20:40,319315
3,0,-11,12,-1,-3,0,7,2021-08-04 14:20:40,319315
-31,3,18,20,-5,-2,0,1,2021-08-04 14:20:40,320315
13,-7,-23,-20,-2,-4,-3,21,2021-08-04 14:20:40,320315
1,-1,39,-20,-1,0,0,-6,2021-08-04 14:20:40,320315
-4,-5,-34,-11,-2,-1,1,3,2021-08-04 14:20:40,321315
5,5,23,4,1,-1,-2,-14,2021-08-04 14:20:40,321315
2,1,-6,12,-18,-1,-1,5,2021-08-04 14:20:40,321315
-7,-5,8,-20,29,0,1,0,2021-08-04 14:20:40,322315
-1,-4,9,5,-12,-2,-1,8,2021-08-04 14:20:40,322315
6,6,11,-11,-2,2,1,-7,2021-08-04 14:20:40,322315
-1,-3,-19,3,9,3,2,3,2021-08-04 14:20:40,323315
0,-4,-22,4,-23,-6,-2,-1,2021-08-04 14:20:40,323315
-1,10,18,7,11,-2,-2,-3,2021-08-04 14:20:40,323315
-2,-22,-65,-9,0,-1,-3,-12,2021-08-04 14:20:40,332315
-2,-7,3,-7,-1,-1,1,25,2021-08-04 14:20:40,332315
-4,2,-4,4,-8,-2,-1,-39,2021-08-04 14:20:40,332315
1,4,21,0,-2,-2,-2,24,2021-08-04 14:20:40,347835
12,14,32,19,0,2,-2,-17,2021-08-04 14:20:40,347835
-2,-8,-18,-8,7,1,0,18,2021-08-04 14:20:40,363837
0,-8,9,-4,-4,0,-4,9,2021-08-04 14:20:40,379835
7,14,-3,2,3,0,0,0,2021-08-04 14:20:40,379835
-30,-21,0,-7,-4,-4,-2,4,2021-08-04 14:20:40,379835
4,5,38,-11,-2,-3,-2,-5,2021-08-04 14:20:40,380837
0,0,-26,-6,-24,-1,-1,-2,2021-08-04 14:20:40,380837
-4,-4,33,-1,28,0,-2,-6,2021-08-04 14:20:40,380837
15,14,-3,13,-2,3,3,6,2021-08-04 14:20:40,380837
-5,-8,-13,19,0,0,-1,-9,2021-08-04 14:20:40,380837
-4,-11,32,7,0,-1,-2,7,2021-08-04 14:20:40,381835
-6,-10,-2,-18,-9,-5,-1,-5,2021-08-04 14:20:40,394839
4,9,25,2,1,-3,-1,11,2021-08-04 14:20:40,409835
1,9,33,-1,2,3,0,7,2021-08-04 14:20:40,425838
6,4,-34,6,4,-1,0,16,2021-08-04 14:20:40,425838
-7,-18,-5,-12,-12,-4,-4,-16,2021-08-04 14:20:40,425838
8,4,11,4,9,0,-1,13,2021-08-04 14:20:40,426838
2,7,3,9,-4,-1,1,-8,2021-08-04 14:20:40,426838
3,5,28,-3,1,3,0,12,2021-08-04 14:20:40,426838
4,1,-7,5,2,2,0,6,2021-08-04 14:20:40,426838
-6,-2,-1,-6,-29,-4,-1,-14,2021-08-04 14:20:40,427836
3,5,15,-1,20,-2,-2,6,2021-08-04 14:20:40,427836
8,-1,-9,10,4,2,2,-14,2021-08-04 14:20:40,427836
-15,-7,-21,-3,0,-2,-8,2,2021-08-04 14:20:40,427836
6,-11,-14,-20,-7,-1,4,-8,2021-08-04 14:20:40,428839
-4,-4,-33,2,-3,-4,-1,8,2021-08-04 14:20:40,428839
3,14,25,3,-1,1,1,-17,2021-08-04 14:20:40,441834
0,-1,10,6,-4,1,-1,-3,2021-08-04 14:20:40,441834
1,2,18,21,10,4,-4,8,2021-08-04 14:20:40,457835
-2,-4,-6,-31,-5,-1,3,1,2021-08-04 14:20:40,473835
-7,-4,-15,2,-2,-6,-3,4,2021-08-04 14:20:40,473835
7,11,18,9,-4,2,3,0,2021-08-04 14:20:40,473835
-4,-7,-25,-15,8,-3,-4,-6,2021-08-04 14:20:40,489836
1,4,2,11,-2,3,-1,-3,2021-08-04 14:20:40,489836
7,-3,-22,-6,-11,-4,-3,7,2021-08-04 14:20:40,489836
-30,-15,-11,-16,-12,-1,1,-26,2021-08-04 14:20:40,490836
4,12,5,8,32,3,3,5,2021-08-04 14:20:40,505838
-4,-17,4,1,-8,0,-3,-5,2021-08-04 14:20:40,521836
0,-1,8,-4,1,-1,1,11,2021-08-04 14:20:40,521836
9,9,35,11,-1,-3,0,4,2021-08-04 14:20:40,521836
0,8,-14,4,-2,4,2,-8,2021-08-04 14:20:40,537836
-5,-12,-8,5,-4,-1,-2,-6,2021-08-04 14:20:40,537836
-6,-1,13,-20,6,-1,-3,4,2021-08-04 14:20:40,553836
2,10,-21,7,-4,-2,-1,-34,2021-08-04 14:20:40,569363
-8,-22,-8,-13,-5,-2,-3,1,2021-08-04 14:20:40,569363
6,9,-24,26,7,2,-2,-10,2021-08-04 14:20:40,569363
-5,-3,43,-5,-4,2,-1,4,2021-08-04 14:20:40,570362
4,3,-2,-8,0,-1,-4,15,2021-08-04 14:20:40,585364
-1,1,-36,1,10,-2,-2,2,2021-08-04 14:20:40,585364
7,-2,1,7,3,4,4,1,2021-08-04 14:20:40,585364
-8,-9,-29,6,2,-3,1,-5,2021-08-04 14:20:40,586362
0,4,36,6,1,0,0,11,2021-08-04 14:20:40,586362
3,-5,-35,-11,-11,-6,-4,-1,2021-08-04 14:20:40,617362
-1,6,-4,-7,-7,2,0,2,2021-08-04 14:20:40,633363
9,4,-14,0,11,3,0,-1,2021-08-04 14:20:40,649366
2,-8,25,-5,0,0,3,-3,2021-08-04 14:20:40,665362
-4,0,-43,2,-5,-5,-3,-4,2021-08-04 14:20:40,697363
1,0,1,1,-5,-5,-3,0,2021-08-04 14:20:40,713360
-5,-3,1,-3,3,1,1,5,2021-08-04 14:20:40,729365
2,2,-4,5,0,2,-1,-5,2021-08-04 14:20:40,744362
1,7,45,14,0,1,1,2,2021-08-04 14:20:40,744362
-7,-2,-10,-25,-5,-5,-3,-1,2021-08-04 14:20:40,744362
-1,-6,-12,-6,-1,-1,-2,7,2021-08-04 14:20:40,745365
3,-2,1,11,-4,-3,0,-6,2021-08-04 14:20:40,745365
-18,-4,-49,-9,-4,-1,-1,-6,2021-08-04 14:20:40,745365
-3,-9,86,11,22,-3,-3,11,2021-08-04 14:20:40,745365
-6,1,2,-11,-7,2,0,-9,2021-08-04 14:20:40,746363
7,15,-33,7,2,0,1,10,2021-08-04 14:20:40,746363
1,-20,20,-6,-7,-3,-2,-5,2021-08-04 14:20:40,746363
-3,2,-27,-8,-5,2,-1,-6,2021-08-04 14:20:40,746363
-8,-1,-7,26,-8,-1,-1,1,2021-08-04 14:20:40,746363
4,-5,19,-8,10,-1,-3,1,2021-08-04 14:20:40,747362
6,11,7,4,-6,0,7,17,2021-08-04 14:20:40,747362
-3,-2,-16,-4,-1,-1,-2,-39,2021-08-04 14:20:40,747362
5,-3,2,-5,0,-1,-2,7,2021-08-04 14:20:40,747362
-3,6,6,2,-2,-3,-6,-1,2021-08-04 14:20:40,748362
14,-4,11,10,-1,0,5,9,2021-08-04 14:20:40,748362
-29,-3,-11,-19,-6,-1,-2,4,2021-08-04 14:20:40,749364
4,11,48,22,4,0,0,-12,2021-08-04 14:20:40,749364
-7,-23,-53,-34,-9,-7,-4,0,2021-08-04 14:20:40,749364
6,14,31,-8,4,3,-4,-1,2021-08-04 14:20:40,759364
7,-9,-33,9,-7,-5,0,13,2021-08-04 14:20:40,759364
-7,-5,49,0,-1,-3,-3,-34,2021-08-04 14:20:40,759364
-2,-2,28,12,13,4,2,14,2021-08-04 14:20:40,775360
-1,-5,-47,-1,-4,-1,-3,-8,2021-08-04 14:20:40,775360
6,14,4,15,1,2,2,5,2021-08-04 14:20:40,775360
-7,-10,8,-13,-1,-3,-4,-2,2021-08-04 14:20:40,775360
2,-6,-18,-2,-9,-2,0,-3,2021-08-04 14:20:40,776362
-2,0,-14,-23,3,0,-1,6,2021-08-04 14:20:40,791363
2,5,7,8,-5,1,-2,-27,2021-08-04 14:20:40,807363
-4,-9,35,-10,-6,-5,-2,5,2021-08-04 14:20:40,807363
-2,-10,-7,3,-1,-1,-1,-5,2021-08-04 14:20:40,823360
-5,5,-1,23,1,0,1,4,2021-08-04 14:20:40,823360
6,-4,15,-37,-3,-2,-1,20,2021-08-04 14:20:40,823360
-20,7,-21,4,-2,0,0,-10,2021-08-04 14:20:40,824363
7,0,6,-9,-11,-5,2,8,2021-08-04 14:20:40,824363
0,4,12,14,7,2,-6,-10,2021-08-04 14:20:40,839364
3,0,1,-3,-2,-1,6,7,2021-08-04 14:20:40,839364
9,5,-16,6,-10,2,0,5,2021-08-04 14:20:40,839364
-4,-9,30,0,14,0,-1,0,2021-08-04 14:20:40,840362
-7,-13,-105,-22,-11,-2,-2,-9,2021-08-04 14:20:40,840362
10,13,34,4,3,-2,-3,9,2021-08-04 14:20:40,840362
1,-10,16,-10,-6,-3,-1,6,2021-08-04 14:20:40,841363
-8,7,20,14,-1,-1,-1,-4,2021-08-04 14:20:40,841363
8,2,31,1,3,-1,1,10,2021-08-04 14:20:40,869362
-1,-7,12,2,-7,1,-1,4,2021-08-04 14:20:40,869362
2,5,-3,5,3,-4,-1,-4,2021-08-04 14:20:40,869362
-2,-4,-9,-11,-5,0,-7,-1,2021-08-04 14:20:40,870363
12,8,65,-4,2,-2,4,-4,2021-08-04 14:20:40,870363
-17,-9,-18,20,0,-1,-3,-2,2021-08-04 14:20:40,870363
1,-4,-19,-34,-2,-3,-1,-3,2021-08-04 14:20:40,871362
4,5,9,10,-3,3,2,7,2021-08-04 14:20:40,871362
2,0,-31,-2,26,2,-1,-7,2021-08-04 14:20:40,871362
2,1,-7,20,3,5,3,4,2021-08-04 14:20:40,871362
-3,-15,0,-17,-8,-4,-5,-15,2021-08-04 14:20:40,871362
-1,4,-3,-8,-1,1,1,-1,2021-08-04 14:20:40,872365
-6,-1,-7,5,-16,-3,-3,-4,2021-08-04 14:20:40,872365
0,-2,19,1,-2,-2,-3,-8,2021-08-04 14:20:40,872365
-5,-9,-66,10,10,0,0,15,2021-08-04 14:20:40,872365
-3,5,11,3,-3,1,5,0,2021-08-04 14:20:40,872365
3,1,-45,-2,-4,1,0,-3,2021-08-04 14:20:40,884363
4,10,22,9,7,2,-1,14,2021-08-04 14:20:40,900365
3,-8,-33,-24,-9,-3,0,-2,2021-08-04 14:20:40,900365
-1,-1,8,2,-1,-4,-3,4,2021-08-04 14:20:40,900365
7,-2,11,2,-1,-1,0,1,2021-08-04 14:20:40,900365
2,-7,-47,-4,-1,0,0,-13,2021-08-04 14:20:40,901362
2,12,7,20,4,0,-2,13,2021-08-04 14:20:40,901362
-2,8,22,-4,-2,2,0,-10,2021-08-04 14:20:40,901362
0,-6,-28,7,3,0,-3,1,2021-08-04 14:20:40,901362
0,0,10,-1,-6,-3,-2,-2,2021-08-04 14:20:40,902362
4,3,24,11,15,2,2,-7,2021-08-04 14:20:40,916363
-2,-8,-40,-24,2,-2,-2,9,2021-08-04 14:20:40,932364
-10,8,54,-8,-10,-3,-6,-31,2021-08-04 14:20:40,962363
-6,-19,-42,-22,-5,-5,-1,0,2021-08-04 14:20:40,962363
7,12,24,12,-5,0,0,6,2021-08-04 14:20:40,978361
1,-2,3,6,1,-1,0,-4,2021-08-04 14:20:40,978361
-5,-3,47,11,4,1,0,16,2021-08-04 14:20:40,994362
-3,11,3,-3,-5,-3,-3,-12,2021-08-04 14:20:40,994362
-3,-8,-26,-5,0,-3,-3,3,2021-08-04 14:20:40,994362
1,9,-16,10,2,2,1,0,2021-08-04 14:20:40,995367
-7,-18,-5,-5,-5,0,-1,15,2021-08-04 14:20:40,995367
11,1,-33,-32,-1,-3,-4,2,2021-08-04 14:20:41,010361
-27,8,39,14,-5,0,-1,-4,2021-08-04 14:20:41,010361
3,-1,15,-5,-1,-2,-1,-5,2021-08-04 14:20:41,026364
-2,6,-7,17,3,1,-2,-3,2021-08-04 14:20:41,026364
-1,-12,-10,-3,-10,0,0,5,2021-08-04 14:20:41,026364
7,0,-10,2,6,0,-2,-3,2021-08-04 14:20:41,027363
-7,-6,17,7,-7,-6,-3,-11,2021-08-04 14:20:41,041363
-4,-2,-28,-14,15,-4,0,-2,2021-08-04 14:20:41,041363
-4,-2,60,-9,0,3,-2,-1,2021-08-04 14:20:41,056363
4,-1,10,-4,-8,3,3,0,2021-08-04 14:20:41,072361
-1,1,14,11,5,-2,1,8,2021-08-04 14:20:41,072361
6,5,-18,5,-14,-6,1,5,2021-08-04 14:20:41,072361
-4,-8,-40,2,0,-1,-3,12,2021-08-04 14:20:41,088363
3,-3,86,-16,5,0,-2,-5,2021-08-04 14:20:41,088363
4,3,41,5,2,3,1,-1,2021-08-04 14:20:41,088363
8,7,32,6,-1,0,-2,10,2021-08-04 14:20:41,104360
-26,0,-17,9,4,-1,3,4,2021-08-04 14:20:41,120363
-4,-14,-7,-15,-10,-2,-4,-6,2021-08-04 14:20:41,120363
-3,-6,-17,-20,-6,-4,-2,-3,2021-08-04 14:20:41,120363
7,9,-14,-6,2,2,0,-3,2021-08-04 14:20:41,121365
6,-4,38,11,5,0,-1,-6,2021-08-04 14:20:41,121365
-1,1,1,13,-4,-1,0,-4,2021-08-04 14:20:41,121365
-5,-5,-24,-8,2,0,-1,-5,2021-08-04 14:20:41,121365
-7,-1,-1,6,-4,-2,0,-9,2021-08-04 14:20:41,136362
6,8,-6,-12,-27,0,-1,8,2021-08-04 14:20:41,136362
0,-1,47,-12,19,-1,3,-8,2021-08-04 14:20:41,151360
11,3,14,4,-8,-3,-9,-4,2021-08-04 14:20:41,151360
-12,-15,-38,-22,-8,-1,-2,-9,2021-08-04 14:20:41,151360
3,1,19,8,5,-2,1,4,2021-08-04 14:20:41,152367
10,17,-2,6,-10,-3,2,17,2021-08-04 14:20:41,152367
6,-17,-53,0,6,1,-1,-4,2021-08-04 14:20:41,152367
-13,1,33,2,-3,2,-1,-8,2021-08-04 14:20:41,152367
3,0,-21,-2,8,2,0,-10,2021-08-04 14:20:41,166362
1,3,-3,3,-2,0,0,2,2021-08-04 14:20:41,166362
4,5,12,-1,0,-1,-1,-4,2021-08-04 14:20:41,166362
2,-2,47,3,-4,-1,-1,3,2021-08-04 14:20:41,167365
-5,-16,10,-9,-6,-7,-1,-10,2021-08-04 14:20:41,167365
-2,1,27,11,0,1,-2,-5,2021-08-04 14:20:41,167365
-3,1,11,-21,4,2,2,10,2021-08-04 14:20:41,182361
-10,-6,17,-14,-1,-1,-2,-18,2021-08-04 14:20:41,182361
-2,10,10,8,6,0,0,-2,2021-08-04 14:20:41,183364
7,-4,42,25,-4,-1,-1,1,2021-08-04 14:20:41,183364
-6,-2,-34,-1,-6,-3,1,20,2021-08-04 14:20:41,198361
1,3,-11,2,-1,-1,-4,-34,2021-08-04 14:20:41,198361
-3,6,2,2,4,1,1,-16,2021-08-04 14:20:41,198361
12,-10,-68,-5,-5,-2,-3,12,2021-08-04 14:20:41,199363
-10,9,-2,0,-1,-3,2,-3,2021-08-04 14:20:41,199363
6,-4,-44,-10,0,-1,0,17,2021-08-04 14:20:41,214363
0,-9,-35,1,-23,-1,0,13,2021-08-04 14:20:41,230362
5,-4,-3,-9,23,-1,-8,-5,2021-08-04 14:20:41,230362
-2,9,-24,16,0,2,2,-2,2021-08-04 14:20:41,246366
-1,-15,-55,-17,-7,-5,-2,-3,2021-08-04 14:20:41,276364
-1,2,-14,-4,-2,-3,-3,-3,2021-08-04 14:20:41,292360
-5,5,-16,-3,-6,-1,1,2,2021-08-04 14:20:41,292360
0,-4,8,4,-6,-4,6,2,2021-08-04 14:20:41,292360
-2,3,-1,5,2,-1,-17,10,2021-08-04 14:20:41,293362
1,3,5,3,14,7,5,-5,2021-08-04 14:20:41,293362
-5,-5,-12,3,1,1,0,7,2021-08-04 14:20:41,293362
-3,-3,39,-11,3,-2,-2,-12,2021-08-04 14:20:41,293362
7,-1,-20,10,-6,-3,-10,15,2021-08-04 14:20:41,307364
6,8,57,9,1,-2,17,16,2021-08-04 14:20:41,307364
-45,-15,-33,-42,-9,-3,-4,-12,2021-08-04 14:20:41,307364
11,-3,29,4,-3,0,15,1,2021-08-04 14:20:41,308361
-9,0,-3,-2,-9,-6,-4,3,2021-08-04 14:20:41,324361
3,10,33,16,31,2,-9,-6,2021-08-04 14:20:41,324361
3,0,-7,3,-1,2,8,7,2021-08-04 14:20:41,324361
-5,-9,-6,-8,-3,2,-11,-5,2021-08-04 14:20:41,325362
0,10,29,18,2,2,10,-15,2021-08-04 14:20:41,325362
0,-5,-57,-15,-8,-2,-12,-2,2021-08-04 14:20:41,325362
9,10,80,2,1,3,11,0,2021-08-04 14:20:41,355359
-10,-24,-14,-7,-3,-6,-11,-4,2021-08-04 14:20:41,370363
5,2,-67,1,-2,0,7,13,2021-08-04 14:20:41,370363
-6,2,5,5,-3,-1,-6,-34,2021-08-04 14:20:41,370363
5,6,25,0,6,1,-14,3,2021-08-04 14:20:41,385363
-4,7,15,3,-5,-1,11,-1,2021-08-04 14:20:41,385363
1,-3,-11,0,3,-1,-1,1,2021-08-04 14:20:41,385363
1,-3,-5,-3,-2,-1,4,6,2021-08-04 14:20:41,386363
3,-4,-47,-23,-10,-2,-7,-5,2021-08-04 14:20:41,386363
2,-6,-1,4,-2,-1,-9,-13,2021-08-04 14:20:41,387361
9,-3,10,-4,2,0,11,12,2021-08-04 14:20:41,387361
4,-1,-19,-6,1,-4,-9,-23,2021-08-04 14:20:41,387361
3,2,-4,11,-4,-2,0,-7,2021-08-04 14:20:41,400362
6,9,10,5,-1,0,-3,1,2021-08-04 14:20:41,416361
-7,-13,9,-4,-5,-2,2,2,2021-08-04 14:20:41,416361
0,1,0,0,2,4,0,8,2021-08-04 14:20:41,431362
4,-2,-3,17,3,0,1,-3,2021-08-04 14:20:41,431362
-4,5,24,-14,-2,-1,5,-6,2021-08-04 14:20:41,431362
-9,-4,12,-8,-23,-3,-14,-3,2021-08-04 14:20:41,432363
-3,1,-26,-13,23,-7,-3,1,2021-08-04 14:20:41,447362
-1,-3,62,11,-6,-1,-1,7,2021-08-04 14:20:41,447362
4,1,13,4,5,2,-4,10,2021-08-04 14:20:41,463363
-3,0,0,2,0,-1,3,-10,2021-08-04 14:20:41,463363
0,-5,10,-3,-14,-2,-2,10,2021-08-04 14:20:41,463363
0,9,-37,-1,2,-1,3,-5,2021-08-04 14:20:41,464364
-6,-1,17,14,-2,0,-4,-2,2021-08-04 14:20:41,479361
5,-1,66,2,12,1,-1,4,2021-08-04 14:20:41,479361
10,-10,-12,-4,-9,2,3,-3,2021-08-04 14:20:41,479361
-4,1,27,0,2,-1,2,1,2021-08-04 14:20:41,480362
11,1,15,5,-6,-2,-1,0,2021-08-04 14:20:41,494362
-5,0,-56,-19,1,0,1,-13,2021-08-04 14:20:41,510359
10,9,-5,15,-1,0,0,11,2021-08-04 14:20:41,525361
-2,-5,-5,-20,-5,0,0,1,2021-08-04 14:20:41,525361
-5,-2,7,1,-1,-2,-3,-2,2021-08-04 14:20:41,540364
6,7,-39,9,5,0,2,4,2021-08-04 14:20:41,555362
-8,-7,33,-5,-4,-3,-4,-4,2021-08-04 14:20:41,555362
0,-3,-15,8,1,1,1,9,2021-08-04 14:20:41,571365
-8,-3,-14,-16,1,-2,4,-34,2021-08-04 14:20:41,571365
2,0,20,4,4,-1,3,9,2021-08-04 14:20:41,571365
-6,-3,-22,-9,-8,-1,-4,4,2021-08-04 14:20:41,572364
-2,-3,14,2,-2,-4,1,-2,2021-08-04 14:20:41,572364
-1,1,10,5,1,-1,1,7,2021-08-04 14:20:41,572364
-4,-3,-8,1,-1,0,-13,-7,2021-08-04 14:20:41,573362
-3,0,8,-7,0,1,4,-1,2021-08-04 14:20:41,573362
4,3,-29,8,-1,-3,-2,-3,2021-08-04 14:20:41,601362
-5,-7,3,-9,-8,-3,-3,5,2021-08-04 14:20:41,616361
-6,-7,-97,-13,18,-2,2,-7,2021-08-04 14:20:41,616361
0,8,-7,-4,8,6,5,8,2021-08-04 14:20:41,616361
7,1,26,6,1,2,-4,-4,2021-08-04 14:20:41,617364
-27,1,7,12,2,-3,-1,0,2021-08-04 14:20:41,617364
2,4,23,0,-13,-2,2,1,2021-08-04 14:20:41,617364
-2,-5,-48,-8,-4,-5,0,-3,2021-08-04 14:20:41,617364
1,8,41,4,4,-2,0,-1,2021-08-04 14:20:41,631364
4,-1,-50,11,-4,3,3,9,2021-08-04 14:20:41,646361
-4,-7,55,-7,6,-1,-15,8,2021-08-04 14:20:41,661361
-1,2,-9,-6,-4,0,6,7,2021-08-04 14:20:41,677366
5,-6,28,4,-5,-2,11,3,2021-08-04 14:20:41,693363
11,6,6,-6,-1,-2,-23,-4,2021-08-04 14:20:41,693363
0,0,-2,16,-3,-2,7,18,2021-08-04 14:20:41,709361
-3,3,26,0,-1,0,-5,3,2021-08-04 14:20:41,725361
-2,-2,-54,-9,-6,0,18,-8,2021-08-04 14:20:41,725361
2,-6,-10,-2,6,-1,-11,10,2021-08-04 14:20:41,741362
8,3,-44,-5,0,1,6,-6,2021-08-04 14:20:41,757364
-28,-6,40,0,-10,-3,-12,-8,2021-08-04 14:20:41,773365
-6,-3,-6,9,0,0,3,-3,2021-08-04 14:20:41,773365
3,3,-32,-2,6,2,5,-2,2021-08-04 14:20:41,789363
0,1,-52,-23,-6,-3,-2,-10,2021-08-04 14:20:41,789363
3,-9,-18,7,-1,-1,7,-1,2021-08-04 14:20:41,789363
-6,-4,30,-6,-2,-4,-13,-4,2021-08-04 14:20:41,790366
-3,0,-1,7,-2,-1,1,1,2021-08-04 14:20:41,790366
-1,6,36,10,-2,1,-5,-5,2021-08-04 14:20:41,790366
4,-2,-44,1,3,2,11,-1,2021-08-04 14:20:41,790366
3,-1,23,4,-1,1,-5,2,2021-08-04 14:20:41,791363
2,0,20,-17,-3,-3,-5,-1,2021-08-04 14:20:41,805360
-4,-3,-19,2,-3,-3,12,9,2021-08-04 14:20:41,805360
0,-2,34,4,-5,-1,-14,-14,2021-08-04 14:20:41,805360
0,-5,-22,-13,5,0,-8,10,2021-08-04 14:20:41,806365
-1,-1,-28,-12,-5,0,4,-5,2021-08-04 14:20:41,806365
0,8,18,19,-1,-2,-5,8,2021-08-04 14:20:41,806365
8,-7,16,7,-1,-2,3,18,2021-08-04 14:20:41,807365
-29,-3,-18,-16,-6,-2,-15,-5,2021-08-04 14:20:41,807365
0,1,32,2,1,0,11,-1,2021-08-04 14:20:41,807365
-1,-2,48,3,3,2,-1,-3,2021-08-04 14:20:41,807365
2,1,-7,3,1,1,2,-2,2021-08-04 14:20:41,821364
6,-2,13,-13,-2,-3,-4,-7,2021-08-04 14:20:41,837361
-2,6,16,5,1,1,1,4,2021-08-04 14:20:41,837361
-8,-13,-4,-11,-6,-2,-3,-13,2021-08-04 14:20:41,853363
6,4,-23,8,6,1,-1,0,2021-08-04 14:20:41,868362
-1,-3,-53,-1,-3,-2,0,-6,2021-08-04 14:20:41,883363
-4,-5,8,-2,-4,-2,18,0,2021-08-04 14:20:41,899363
7,3,-6,5,3,1,-13,10,2021-08-04 14:20:41,915363
-11,0,-19,-3,-3,-4,-5,-20,2021-08-04 14:20:41,930363
7,-1,-16,-4,-2,-1,-1,9,2021-08-04 14:20:41,945362
0,-2,2,-1,1,-1,5,0,2021-08-04 14:20:41,945362
-2,0,27,9,0,0,7,-2,2021-08-04 14:20:41,945362
6,3,-13,-11,-1,0,6,11,2021-08-04 14:20:41,946363
-19,-6,45,-2,-4,-2,-14,-21,2021-08-04 14:20:41,946363
2,-2,18,0,-3,-3,-7,23,2021-08-04 14:20:41,946363
-3,-7,-27,-20,-1,0,-12,-8,2021-08-04 14:20:41,946363
-2,7,17,12,2,0,0,2,2021-08-04 14:20:41,961365
9,5,81,9,3,1,9,-1,2021-08-04 14:20:41,961365
-1,-5,-13,-4,2,1,-7,-6,2021-08-04 14:20:41,991365
-7,-5,-29,0,-3,-2,2,-3,2021-08-04 14:20:41,991365
6,3,16,-6,-3,-1,2,4,2021-08-04 14:20:41,991365
-1,-8,-71,1,-3,-3,-2,-5,2021-08-04 14:20:41,991365
-3,2,20,15,2,-1,-6,-1,2021-08-04 14:20:42,007363
1,-3,-44,-37,-5,-1,5,-2,2021-08-04 14:20:42,007363
0,2,-15,11,0,3,-3,-6,2021-08-04 14:20:42,007363
5,3,25,12,4,2,4,8,2021-08-04 14:20:42,008363
1,-5,-17,-22,-8,-2,-6,19,2021-08-04 14:20:42,023363
-3,-5,-27,2,1,-3,0,-40,2021-08-04 14:20:42,039362
-3,-4,6,-9,-2,-1,-2,5,2021-08-04 14:20:42,054364
4,12,1,13,2,2,2,3,2021-08-04 14:20:42,086362
2,-10,11,-7,-1,-2,-11,9,2021-08-04 14:20:42,086362
2,3,21,11,-5,0,31,12,2021-08-04 14:20:42,102363
12,-3,8,-8,6,-3,-29,-22,2021-08-04 14:20:42,118362
-9,-2,2,2,-3,0,6,1,2021-08-04 14:20:42,134362
4,3,-14,-1,1,-3,-3,-12,2021-08-04 14:20:42,134362
1,8,29,0,1,0,-2,7,2021-08-04 14:20:42,134362
0,-6,7,2,-4,-1,7,-4,2021-08-04 14:20:42,150363
3,-3,-4,6,-1,-1,2,-1,2021-08-04 14:20:42,150363
-4,-5,-52,14,1,1,-3,-13,2021-08-04 14:20:42,150363
-4,-4,0,-21,0,0,-3,0,2021-08-04 14:20:42,150363
-3,-2,-22,-14,-3,0,12,11,2021-08-04 14:20:42,151364
0,1,28,0,-2,-3,-23,-4,2021-08-04 14:20:42,151364
-4,5,-37,2,-3,-2,4,-6,2021-08-04 14:20:42,151364
3,5,-11,23,1,-1,-7,2,2021-08-04 14:20:42,151364
-6,-10,0,-11,-1,-1,3,-2,2021-08-04 14:20:42,152367
0,-2,2,-2,-3,-3,4,6,2021-08-04 14:20:42,165364
5,4,12,7,-1,-2,1,-3,2021-08-04 14:20:42,180361
4,2,-3,1,1,-3,-6,4,2021-08-04 14:20:42,180361
-5,2,9,3,-4,-1,-3,4,2021-08-04 14:20:42,180361
1,-9,-29,-25,0,1,5,-3,2021-08-04 14:20:42,195359
0,-1,-17,-4,-3,0,0,6,2021-08-04 14:20:42,195359
-1,4,42,6,0,-2,-4,-1,2021-08-04 14:20:42,197366
-2,5,-1,12,2,2,2,-4,2021-08-04 14:20:42,197366
0,-13,-69,-9,-4,-4,0,3,2021-08-04 14:20:42,198362
-4,5,-6,3,0,0,-3,-8,2021-08-04 14:20:42,198362
-3,-7,29,0,2,1,-2,-4,2021-08-04 14:20:42,211363
1,2,28,3,-4,-2,-2,-1,2021-08-04 14:20:42,226363
2,6,9,7,6,0,1,-1,2021-08-04 14:20:42,242362
17,1,13,-11,0,0,-2,-5,2021-08-04 14:20:42,242362
-4,-3,-64,-4,-4,-1,0,-1,2021-08-04 14:20:42,242362
-2,-4,11,2,3,-1,-1,5,2021-08-04 14:20:42,258365
0,2,5,5,-5,-1,1,-5,2021-08-04 14:20:42,274364
1,-2,-5,-1,0,-2,1,-4,2021-08-04 14:20:42,274364
1,-1,22,5,1,-2,-2,3,2021-08-04 14:20:42,274364
-4,-6,-23,-9,-8,-4,-3,-3,2021-08-04 14:20:42,275365
2,6,6,0,2,1,1,0,2021-08-04 14:20:42,275365
-6,0,28,5,4,1,2,-2,2021-08-04 14:20:42,275365
-1,2,-12,4,-1,2,-2,-2,2021-08-04 14:20:42,289364
-5,-5,16,4,-3,-2,-1,-1,2021-08-04 14:20:42,305362
0,-3,-32,-22,-6,-2,1,5,2021-08-04 14:20:42,305362
-8,-2,20,-3,-8,-1,-2,-5,2021-08-04 14:20:42,305362
2,1,5,8,2,2,1,3,2021-08-04 14:20:42,306364
0,-2,9,-3,-2,-2,0,-1,2021-08-04 14:20:42,306364
1,6,25,19,3,2,0,9,2021-08-04 14:20:42,306364
-5,-14,-3,-29,-4,-4,-5,4,2021-08-04 14:20:42,307365
2,2,4,-7,-1,-3,-2,-5,2021-08-04 14:20:42,307365
2,6,-34,11,4,1,1,-4,2021-08-04 14:20:42,307365
-4,-15,80,-5,-3,0,-1,2,2021-08-04 14:20:42,307365
-7,-6,19,-4,-4,-3,-1,0,2021-08-04 14:20:42,308363
1,4,39,17,-1,0,0,-3,2021-08-04 14:20:42,308363
-2,-7,-24,-26,-6,-3,-1,-1,2021-08-04 14:20:42,309363
1,2,9,10,7,3,-1,-6,2021-08-04 14:20:42,321363
0,4,-18,-4,1,0,2,-3,2021-08-04 14:20:42,352360
-3,-6,23,3,-3,-3,-3,-3,2021-08-04 14:20:42,367363
0,5,-7,-1,0,-1,-1,2,2021-08-04 14:20:42,367363
0,-3,3,-5,-4,-3,0,-6,2021-08-04 14:20:42,383362
-1,-2,-13,8,1,-3,0,-4,2021-08-04 14:20:42,399364
0,2,-8,0,2,2,0,5,2021-08-04 14:20:42,399364
-2,-5,-15,-14,0,-1,-3,-2,2021-08-04 14:20:42,399364
2,6,27,2,2,2,0,-3,2021-08-04 14:20:42,400363
-3,-2,-27,5,2,-1,-1,-3,2021-08-04 14:20:42,400363
-4,-4,27,-13,-5,-2,-3,-1,2021-08-04 14:20:42,400363
1,4,23,4,-3,2,1,0,2021-08-04 14:20:42,400363
-2,-1,7,6,-4,-4,-2,-4,2021-08-04 14:20:42,401363
-1,0,3,-2,-2,1,1,1,2021-08-04 14:20:42,401363
-3,-6,-97,-10,-2,-2,0,-2,2021-08-04 14:20:42,401363
-1,1,36,11,1,-1,-1,-2,2021-08-04 14:20:42,402361
1,7,-12,1,1,1,0,1,2021-08-04 14:20:42,402361
-2,-4,10,2,-1,-2,1,1,2021-08-04 14:20:42,402361
1,0,10,-5,1,-1,-3,-3,2021-08-04 14:20:42,402361
-2,-6,-35,5,-1,-2,-2,2,2021-08-04 14:20:42,403362
0,5,-7,-1,-2,-2,-3,-2,2021-08-04 14:20:42,403362
1,10,26,11,1,-1,-2,0,2021-08-04 14:20:42,403362
-4,-14,4,-10,-3,0,-1,-4,2021-08-04 14:20:42,403362
-1,-2,-6,-3,2,2,1,-2,2021-08-04 14:20:42,404362
-1,-1,16,3,3,0,1,-1,2021-08-04 14:20:42,404362
-3,-1,-39,-6,-4,-1,-1,-2,2021-08-04 14:20:42,404362
0,2,49,12,-1,-3,0,1,2021-08-04 14:20:42,415360
0,5,21,2,-3,-2,-1,7,2021-08-04 14:20:42,415360
-7,-11,15,-7,-4,-3,-3,-26,2021-08-04 14:20:42,431362
-1,3,-3,3,1,1,-1,4,2021-08-04 14:20:42,431362
1,7,0,1,2,2,-1,2,2021-08-04 14:20:42,431362
-1,-5,3,0,-2,-1,-2,-4,2021-08-04 14:20:42,432367
-1,-3,-17,-14,-4,-3,-2,8,2021-08-04 14:20:42,462366
-4,-9,30,-2,-5,-3,-2,-6,2021-08-04 14:20:42,478362
-1,5,-41,9,0,4,2,-3,2021-08-04 14:20:42,494361
3,3,39,7,11,3,-1,6,2021-08-04 14:20:42,494361
-2,-9,-18,-12,-2,-1,0,2,2021-08-04 14:20:42,509363
-1,0,-18,8,0,0,0,-1,2021-08-04 14:20:42,509363
-5,-12,20,-25,-10,-5,-4,0,2021-08-04 14:20:42,509363
-1,8,-24,8,-3,0,0,-4,2021-08-04 14:20:42,509363
1,1,19,4,3,0,0,1,2021-08-04 14:20:42,510363
-2,-4,-11,-5,1,0,-2,-3,2021-08-04 14:20:42,510363
2,5,-11,17,1,1,0,0,2021-08-04 14:20:42,510363
-1,-7,-8,-25,-5,-4,0,-3,2021-08-04 14:20:42,511362
-4,-7,21,2,-2,-2,-4,-1,2021-08-04 14:20:42,525365
0,0,-2,-3,-1,0,1,2,2021-08-04 14:20:42,525365
-2,-1,-43,5,2,1,0,0,2021-08-04 14:20:42,525365
-3,-3,49,3,0,-2,-1,-2,2021-08-04 14:20:42,526363
2,8,-14,9,1,0,1,1,2021-08-04 14:20:42,526363
-2,-9,-16,-6,-4,-4,-1,-2,2021-08-04 14:20:42,540362
4,4,-16,-7,0,0,-1,1,2021-08-04 14:20:42,555361
-7,-3,-31,6,0,0,-2,-5,2021-08-04 14:20:42,570363
3,7,16,3,-4,0,1,0,2021-08-04 14:20:42,570363
0,-2,31,1,1,1,1,0,2021-08-04 14:20:42,570363
-4,-7,-15,-17,-5,-3,-2,-3,2021-08-04 14:20:42,571364
2,5,-18,-2,-1,0,0,1,2021-08-04 14:20:42,571364
1,-2,29,4,1,-1,0,9,2021-08-04 14:20:42,571364
-2,1,14,3,1,-2,-2,-15,2021-08-04 14:20:42,571364
-1,1,-15,0,2,-1,1,4,2021-08-04 14:20:42,586362
1,0,-12,3,0,-3,1,1,2021-08-04 14:20:42,586362
-3,3,8,-7,-2,1,-1,-5,2021-08-04 14:20:42,602360
-2,-3,-10,-6,-4,-1,0,5,2021-08-04 14:20:42,602360
2,-3,11,4,-1,-3,-2,-1,2021-08-04 14:20:42,602360
-1,0,-41,-5,0,-1,-1,-4,2021-08-04 14:20:42,602360
0,-3,44,-1,-2,0,-1,2,2021-08-04 14:20:42,603362
2,2,17,11,6,-2,1,2,2021-08-04 14:20:42,603362
-9,-14,-26,-27,-8,-2,-1,-6,2021-08-04 14:20:42,603362
-1,-1,-2,-3,-2,0,-1,0,2021-08-04 14:20:42,604361
0,3,-8,1,1,-1,1,-1,2021-08-04 14:20:42,604361
1,3,19,-2,3,0,0,-1,2021-08-04 14:20:42,604361
-1,2,-4,13,0,0,0,-4,2021-08-04 14:20:42,617362
1,-3,9,1,-3,0,-1,0,2021-08-04 14:20:42,633361
-1,-1,-36,-4,-2,-2,-1,-3,2021-08-04 14:20:42,664361
0,4,-2,3,1,1,-1,-1,2021-08-04 14:20:42,679362
-2,-2,-22,-6,0,-2,-2,1,2021-08-04 14:20:42,695360
0,-1,41,-3,-4,-3,-2,-1,2021-08-04 14:20:42,710361
-1,-3,-40,1,1,1,-1,-1,2021-08-04 14:20:42,726360
3,5,-5,3,1,-1,0,2,2021-08-04 14:20:42,726360
0,-3,64,7,1,1,1,-2,2021-08-04 14:20:42,726360
-4,-6,-8,-10,-5,-1,-3,-3,2021-08-04 14:20:42,726360
-3,1,0,-3,2,-4,-1,-4,2021-08-04 14:20:42,727363
0,-2,6,6,-3,-2,-2,5,2021-08-04 14:20:42,727363
-1,-1,-16,-1,0,0,-1,5,2021-08-04 14:20:42,727363
-2,-1,-18,2,0,1,2,-2,2021-08-04 14:20:42,727363
1,-1,-25,3,0,-4,0,4,2021-08-04 14:20:42,727363
-5,-14,-25,-8,-5,-3,-1,-3,2021-08-04 14:20:42,728364
2,9,37,8,3,1,2,7,2021-08-04 14:20:42,728364
1,-4,-2,-1,0,-1,-1,1,2021-08-04 14:20:42,728364
-1,0,19,-4,-3,-1,-2,-3,2021-08-04 14:20:42,728364
2,4,-15,-12,1,0,-2,4,2021-08-04 14:20:42,728364
-3,-10,-58,-9,-3,-3,-1,-5,2021-08-04 14:20:42,742363
1,3,-1,1,0,0,0,-2,2021-08-04 14:20:42,742363
-1,-1,42,4,-1,1,-1,-2,2021-08-04 14:20:42,742363
-3,1,28,-1,-2,2,0,-3,2021-08-04 14:20:42,743363
1,6,-13,6,2,-2,-1,-2,2021-08-04 14:20:42,743363
-1,-4,-7,-9,-4,-4,0,-5,2021-08-04 14:20:42,743363
-3,-4,43,10,0,-4,-1,-1,2021-08-04 14:20:42,743363
1,0,8,-3,0,2,-1,0,2021-08-04 14:20:42,744366
0,1,23,-3,-2,-1,-1,-2,2021-08-04 14:20:42,744366
0,3,-5,-2,0,0,0,2,2021-08-04 14:20:42,758364
3,0,-24,-4,-3,0,0,0,2021-08-04 14:20:42,758364
-5,-9,0,-1,6,-1,2,-4,2021-08-04 14:20:42,758364
-1,-1,-19,0,-4,0,0,-3,2021-08-04 14:20:42,759361
-1,1,36,9,0,3,2,0,2021-08-04 14:20:42,759361
-2,1,5,2,-1,-2,-1,0,2021-08-04 14:20:42,759361
-1,0,26,-13,-6,-3,-1,-2,2021-08-04 14:20:42,759361
2,3,-19,7,0,0,-1,0,2021-08-04 14:20:42,760363
-1,-6,11,-6,0,-1,-2,-2,2021-08-04 14:20:42,760363
0,-3,4,-7,-4,-1,1,-3,2021-08-04 14:20:42,760363
0,-1,38,10,-1,-2,0,1,2021-08-04 14:20:42,774362
-2,0,-35,6,-1,2,0,-2,2021-08-04 14:20:42,774362
-3,-5,-17,-15,-2,-2,-1,-3,2021-08-04 14:20:42,774362
0,3,-16,0,6,0,0,2,2021-08-04 14:20:42,775362
-3,-4,-38,-5,-4,-4,-4,-2,2021-08-04 14:20:42,775362
0,3,25,1,0,1,1,0,2021-08-04 14:20:42,775362
2,5,-11,11,-1,-2,-1,0,2021-08-04 14:20:42,776362
-6,-11,-8,-9,-2,0,-1,-2,2021-08-04 14:20:42,776362
-3,-3,-21,-5,-4,-4,-3,-2,2021-08-04 14:20:42,789362
-2,0,29,2,-3,-2,-3,-2,2021-08-04 14:20:42,804363
0,2,-12,5,1,2,-1,1,2021-08-04 14:20:42,804363
1,7,19,0,2,-2,-1,-1,2021-08-04 14:20:42,804363
-1,-8,7,7,0,1,-1,10,2021-08-04 14:20:42,805365
-4,2,8,-18,-6,-5,-3,-39,2021-08-04 14:20:42,805365
-1,2,11,-1,2,-1,0,2,2021-08-04 14:20:42,820365
-2,1,17,-4,4,6,1,0,2021-08-04 14:20:42,850362
3,1,-34,1,-1,-1,-1,3,2021-08-04 14:20:42,850362
-1,-3,6,3,5,-2,-2,10,2021-08-04 14:20:42,850362
-1,-3,-9,1,-6,-3,-1,-3,2021-08-04 14:20:42,850362
-2,-4,26,-4,-2,-3,-1,-4,2021-08-04 14:20:42,851365
-2,2,8,-2,0,0,2,-2,2021-08-04 14:20:42,866362
1,-1,-23,2,0,1,0,5,2021-08-04 14:20:42,866362
0,5,-6,4,2,0,-1,-2,2021-08-04 14:20:42,866362
-1,-6,1,-4,-5,-2,-4,4,2021-08-04 14:20:42,867361
-2,2,6,-6,-2,-1,-2,-4,2021-08-04 14:20:42,882364
2,-1,-7,4,1,0,0,4,2021-08-04 14:20:42,898363
-3,-6,34,-9,-3,-3,-1,0,2021-08-04 14:20:42,898363
0,0,-37,5,-2,-1,1,-1,2021-08-04 14:20:42,898363
-1,3,27,3,5,2,-2,-3,2021-08-04 14:20:42,899361
-1,-7,-3,-2,0,1,0,1,2021-08-04 14:20:42,899361
0,3,25,11,1,2,0,0,2021-08-04 14:20:42,899361
-4,-10,-1,-10,-7,-7,-3,-3,2021-08-04 14:20:42,913362
2,5,-24,-5,-2,-1,1,-2,2021-08-04 14:20:42,928363
-1,0,36,6,1,0,0,5,2021-08-04 14:20:42,928363
0,-1,1,1,-1,-2,-1,-1,2021-08-04 14:20:42,928363
-2,-1,-31,-13,0,-2,-2,-2,2021-08-04 14:20:42,929364
-2,-7,18,-5,-4,0,-2,-2,2021-08-04 14:20:42,929364
0,1,-11,-1,0,0,1,1,2021-08-04 14:20:42,929364
-2,-1,30,-1,-5,-3,-2,1,2021-08-04 14:20:42,929364
2,7,14,8,7,0,0,0,2021-08-04 14:20:42,929364
0,4,16,6,-2,0,-1,-2,2021-08-04 14:20:42,930362
-1,1,19,-7,-2,0,-2,0,2021-08-04 14:20:42,930362
-3,-9,-19,0,-1,-1,-1,-2,2021-08-04 14:20:42,944363
2,1,6,-4,-3,-1,-1,1,2021-08-04 14:20:42,960362
-2,-3,-3,1,-1,-3,1,2,2021-08-04 14:20:42,960362
2,1,52,1,-2,-3,-2,5,2021-08-04 14:20:42,960362
0,0,28,-2,1,-3,-1,2,2021-08-04 14:20:42,961363
0,1,-9,0,-2,0,0,1,2021-08-04 14:20:42,961363
0,7,-14,0,1,-1,-2,-3,2021-08-04 14:20:42,961363
-2,-2,5,-1,-3,-2,0,5,2021-08-04 14:20:42,976361
0,1,11,2,0,2,1,-2,2021-08-04 14:20:42,991363
-3,-5,10,0,-4,-3,-3,-6,2021-08-04 14:20:42,991363
-1,-4,6,-7,-1,-2,0,5,2021-08-04 14:20:42,991363
-2,1,-14,7,4,3,0,-2,2021-08-04 14:20:42,991363
1,0,-4,-11,0,1,-1,-2,2021-08-04 14:20:43,007361
1,3,3,11,1,0,0,-1,2021-08-04 14:20:43,038360
-1,-3,4,-7,-4,-3,-1,-5,2021-08-04 14:20:43,038360
-1,-7,-42,-7,-6,-5,-5,-2,2021-08-04 14:20:43,054364
-4,-10,30,-4,-9,-2,-2,-3,2021-08-04 14:20:43,054364
2,3,29,9,8,2,1,3,2021-08-04 14:20:43,054364
0,2,-5,1,1,0,0,-5,2021-08-04 14:20:43,055362
1,3,-30,5,0,1,0,-2,2021-08-04 14:20:43,070363
1,6,23,-9,3,2,0,2,2021-08-04 14:20:43,070363
-2,-5,19,-4,-6,-1,-2,-1,2021-08-04 14:20:43,085361
-3,-1,41,7,-1,-1,-1,0,2021-08-04 14:20:43,100363
-3,-2,-10,-5,0,-1,0,-2,2021-08-04 14:20:43,115362
1,4,-24,7,2,1,-1,0,2021-08-04 14:20:43,146360
-2,-5,2,-4,3,0,-1,0,2021-08-04 14:20:43,146360
-1,2,-31,-1,2,0,0,14,2021-08-04 14:20:43,146360
-3,0,3,-2,-2,-2,-1,-22,2021-08-04 14:20:43,161363
1,1,-15,2,0,-3,1,2,2021-08-04 14:20:43,175365
-4,-6,26,0,-3,-1,-3,-2,2021-08-04 14:20:43,176364
