EMG 1,EMG 2,EMG 3,EMG 4,EMG 5,EMG 6,EMG 7,EMG 8,Timestamp,Milliseconds
2,2,1,-5,-9,-3,0,-1,2021-08-07 11:40:05,789150
1,1,-5,-3,7,2,1,0,2021-08-07 11:40:05,789150
-4,-6,-4,-4,-7,-4,-3,-3,2021-08-07 11:40:05,789150
-4,-5,-5,-10,-11,-6,-5,-4,2021-08-07 11:40:05,789150
0,0,2,2,5,4,0,0,2021-08-07 11:40:05,789150
-1,0,2,4,3,1,-1,-2,2021-08-07 11:40:05,789150
-2,-1,0,5,6,-1,-2,-2,2021-08-07 11:40:05,789150
-1,0,-4,-8,-14,-8,-2,-1,2021-08-07 11:40:05,789150
-1,-1,-3,1,-10,-3,-1,-1,2021-08-07 11:40:05,805151
0,0,0,-2,7,2,1,1,2021-08-07 11:40:05,805151
-4,-2,-6,-10,-8,-3,-2,-4,2021-08-07 11:40:05,805151
0,-2,1,6,-3,-1,-1,-1,2021-08-07 11:40:05,805151
1,0,1,5,16,6,0,-1,2021-08-07 11:40:05,821152
4,4,3,5,-1,3,1,2,2021-08-07 11:40:05,821152
-5,-5,-3,0,-6,-3,-4,-2,2021-08-07 11:40:05,837151
5,6,5,-2,-5,1,1,3,2021-08-07 11:40:05,837151
1,2,1,3,14,6,3,3,2021-08-07 11:40:05,837151
-2,-5,1,3,-3,-5,-1,-3,2021-08-07 11:40:05,837151
-1,-2,-2,-4,-3,-4,-3,-1,2021-08-07 11:40:05,868151
-2,-3,-4,-3,-3,-2,-1,-2,2021-08-07 11:40:05,868151
-4,-6,-6,-6,-6,-5,-3,-1,2021-08-07 11:40:05,868151
-2,-1,0,-7,-13,-7,-3,0,2021-08-07 11:40:05,868151
1,0,0,1,6,4,2,0,2021-08-07 11:40:05,915673
1,2,4,10,10,5,2,1,2021-08-07 11:40:05,931673
-2,-2,-6,-11,-19,-7,-3,-2,2021-08-07 11:40:05,947673
-2,0,1,4,9,3,-1,0,2021-08-07 11:40:05,947673
-2,-1,-5,-7,-13,-4,-3,-2,2021-08-07 11:40:05,947673
-6,-7,-6,-7,4,-1,1,-3,2021-08-07 11:40:05,947673
8,10,7,1,-8,1,3,5,2021-08-07 11:40:05,947673
1,1,7,22,30,9,1,-1,2021-08-07 11:40:05,947673
2,2,2,8,6,7,10,5,2021-08-07 11:40:05,948675
3,3,1,-2,-7,2,-2,0,2021-08-07 11:40:05,948675
-10,-9,-8,-14,-12,-18,-23,-15,2021-08-07 11:40:05,948675
-8,-9,-7,-6,-11,-16,-12,-8,2021-08-07 11:40:05,948675
7,8,6,7,7,4,3,5,2021-08-07 11:40:05,948675
4,2,3,1,-1,2,4,4,2021-08-07 11:40:05,948675
-1,-4,-3,-1,0,6,6,3,2021-08-07 11:40:05,948675
0,1,-1,-7,-9,2,2,0,2021-08-07 11:40:05,948675
-4,-5,-4,-6,-4,-3,-4,-4,2021-08-07 11:40:05,963674
0,0,0,-3,-6,-3,-1,1,2021-08-07 11:40:05,963674
0,2,2,9,13,5,3,0,2021-08-07 11:40:05,995674
-2,-1,-1,-3,-3,3,3,-1,2021-08-07 11:40:05,995674
0,0,4,12,17,4,-2,-1,2021-08-07 11:40:05,995674
-4,-2,-6,-16,-33,-18,-11,-8,2021-08-07 11:40:05,995674
0,-1,2,6,17,3,-1,-2,2021-08-07 11:40:06,011673
1,2,2,2,0,3,8,5,2021-08-07 11:40:06,027673
0,-1,-2,-8,-11,-1,0,-2,2021-08-07 11:40:06,059710
-5,-5,-4,0,10,-2,-5,-4,2021-08-07 11:40:06,059710
0,-3,-3,-11,-11,-1,5,1,2021-08-07 11:40:06,059710
-1,-4,-6,-11,-12,-3,-4,-2,2021-08-07 11:40:06,059710
-4,-1,1,1,3,-10,-12,-6,2021-08-07 11:40:06,059710
-2,-2,-1,-3,-4,-5,-3,-2,2021-08-07 11:40:06,059710
0,-1,-3,-8,-11,-4,3,1,2021-08-07 11:40:06,059710
-1,-2,-5,-8,-5,1,2,0,2021-08-07 11:40:06,059710
2,2,6,16,8,7,1,3,2021-08-07 11:40:06,060712
-2,-2,-1,7,24,5,0,-2,2021-08-07 11:40:06,060712
-2,-2,-2,1,1,-2,-1,-1,2021-08-07 11:40:06,060712
0,-2,-4,-11,-15,-6,-3,-1,2021-08-07 11:40:06,060712
-3,-7,-8,-19,-25,-10,-1,-4,2021-08-07 11:40:06,060712
1,0,1,8,12,9,6,3,2021-08-07 11:40:06,060712
7,10,13,25,24,10,3,5,2021-08-07 11:40:06,091710
2,1,1,-1,-2,-5,-5,-1,2021-08-07 11:40:06,091710
1,1,0,1,-6,-3,-1,0,2021-08-07 11:40:06,091710
-1,-1,-3,-1,-2,-1,0,3,2021-08-07 11:40:06,091710
-7,-7,-6,-9,-6,-3,-3,-5,2021-08-07 11:40:06,123709
-5,-5,-6,-10,-2,-4,-3,-4,2021-08-07 11:40:06,139708
2,3,1,4,10,6,4,3,2021-08-07 11:40:06,139708
3,4,6,9,3,4,3,1,2021-08-07 11:40:06,139708
-5,-5,-6,-4,-4,-3,-5,-4,2021-08-07 11:40:06,139708
-4,-3,-4,-6,-11,-9,-8,-4,2021-08-07 11:40:06,139708
0,0,-1,-1,0,-1,1,0,2021-08-07 11:40:06,139708
1,1,3,8,8,6,3,1,2021-08-07 11:40:06,139708
0,-1,-1,-6,-10,-6,-3,-3,2021-08-07 11:40:06,140710
-3,-4,-1,0,8,6,1,-2,2021-08-07 11:40:06,140710
2,1,2,1,-2,0,1,0,2021-08-07 11:40:06,140710
-3,-4,-6,-14,-16,-8,-4,-3,2021-08-07 11:40:06,140710
1,1,5,18,19,5,1,0,2021-08-07 11:40:06,170711
-2,-2,3,3,-7,-2,-2,-1,2021-08-07 11:40:06,170711
-1,1,0,5,12,3,0,0,2021-08-07 11:40:06,170711
0,2,-3,-10,-17,-8,-3,-2,2021-08-07 11:40:06,170711
-2,-5,-2,-3,-1,-2,-3,-3,2021-08-07 11:40:06,170711
-2,-4,-5,0,2,-3,-1,-2,2021-08-07 11:40:06,170711
0,3,0,-17,-16,-5,-1,2,2021-08-07 11:40:06,186708
-1,1,5,22,26,10,3,1,2021-08-07 11:40:06,186708
3,2,1,-3,-5,-1,1,2,2021-08-07 11:40:06,202710
-2,-2,-3,-3,-7,-5,-4,-2,2021-08-07 11:40:06,202710
-5,-5,-5,-7,-1,-1,-4,-4,2021-08-07 11:40:06,202710
0,-1,-2,-11,-13,-5,1,-1,2021-08-07 11:40:06,202710
-4,-5,-6,-10,-11,-7,-4,-1,2021-08-07 11:40:06,233710
4,2,3,4,15,7,3,4,2021-08-07 11:40:06,233710
-1,-3,-3,5,8,3,1,0,2021-08-07 11:40:06,233710
-2,-3,-2,-7,-9,-1,-4,-2,2021-08-07 11:40:06,233710
0,-1,2,13,18,8,3,0,2021-08-07 11:40:06,233710
-1,1,-1,-11,-11,-5,-2,-3,2021-08-07 11:40:06,233710
-4,-3,-2,-4,-8,-7,-5,-4,2021-08-07 11:40:06,249712
-2,0,0,-4,-14,-7,-3,-3,2021-08-07 11:40:06,249712
-3,-4,-8,-18,-7,-8,-4,-3,2021-08-07 11:40:06,265710
1,0,1,4,4,-1,-2,0,2021-08-07 11:40:06,265970
6,5,5,19,27,11,5,2,2021-08-07 11:40:06,265970
0,-3,-4,-7,-5,-4,-3,-1,2021-08-07 11:40:06,265970
-3,-4,-5,-9,-11,-3,0,-2,2021-08-07 11:40:06,281226
2,0,-1,-2,-6,-1,0,1,2021-08-07 11:40:06,281226
-2,-2,-1,-2,-3,-2,1,0,2021-08-07 11:40:06,281226
-1,-1,-3,-6,-6,-2,-2,-2,2021-08-07 11:40:06,281226
-2,-2,0,0,-1,-1,-2,-1,2021-08-07 11:40:06,297226
4,6,7,10,13,8,4,4,2021-08-07 11:40:06,313225
-3,-2,-2,-1,-9,-5,-2,-2,2021-08-07 11:40:06,313225
2,1,1,11,14,5,1,1,2021-08-07 11:40:06,313225
-3,-4,-5,-7,-10,-6,-4,-3,2021-08-07 11:40:06,313225
-6,-8,-9,-6,-7,-7,-5,-3,2021-08-07 11:40:06,313225
-1,-1,-4,-13,-13,-5,-2,-1,2021-08-07 11:40:06,329227
2,3,5,12,15,6,2,1,2021-08-07 11:40:06,329227
1,0,0,8,6,5,1,0,2021-08-07 11:40:06,345225
-2,0,-1,-5,-3,-1,-1,-2,2021-08-07 11:40:06,361225
0,1,1,0,0,1,-1,1,2021-08-07 11:40:06,377226
-3,-3,-4,-7,-8,-5,-3,-1,2021-08-07 11:40:06,377226
0,3,0,1,1,0,1,0,2021-08-07 11:40:06,377226
1,0,-2,-9,-9,-7,-1,0,2021-08-07 11:40:06,377226
-3,-5,-3,-5,-6,-4,-3,-3,2021-08-07 11:40:06,377226
-4,-2,-4,-5,-5,-5,-1,-2,2021-08-07 11:40:06,377226
3,3,4,4,5,3,1,1,2021-08-07 11:40:06,377226
2,3,3,6,9,5,3,0,2021-08-07 11:40:06,377226
-5,-6,-2,-1,-1,-2,-2,-3,2021-08-07 11:40:06,377226
1,3,4,6,2,1,1,1,2021-08-07 11:40:06,378227
-2,-2,0,2,2,-1,-2,0,2021-08-07 11:40:06,399226
3,5,4,7,4,1,1,0,2021-08-07 11:40:06,399226
0,-1,-4,-5,-6,-2,-1,-3,2021-08-07 11:40:06,399226
-1,1,0,-2,0,2,2,0,2021-08-07 11:40:06,399226
-1,0,-1,3,6,4,1,0,2021-08-07 11:40:06,424225
-5,-5,-2,2,-3,-3,-3,-4,2021-08-07 11:40:06,424225
3,3,5,7,5,1,0,3,2021-08-07 11:40:06,440226
-2,-3,-5,-2,-2,-3,-4,-4,2021-08-07 11:40:06,440226
2,2,2,3,3,1,0,-1,2021-08-07 11:40:06,440226
-5,-6,-6,-3,-4,-3,-2,-3,2021-08-07 11:40:06,440226
0,2,0,-10,-11,-6,-3,-2,2021-08-07 11:40:06,441227
-5,-6,-7,-10,-8,-3,-2,-5,2021-08-07 11:40:06,441227
5,4,8,12,9,4,1,1,2021-08-07 11:40:06,472226
1,3,5,9,8,8,4,1,2021-08-07 11:40:06,472226
-2,0,-3,-8,-8,-5,-2,-1,2021-08-07 11:40:06,472226
1,0,0,-4,-4,-2,0,1,2021-08-07 11:40:06,472226
-7,-7,-6,-7,-7,-5,-5,-6,2021-08-07 11:40:06,472226
8,11,13,16,13,6,5,6,2021-08-07 11:40:06,472226
-1,-1,-4,1,5,3,2,0,2021-08-07 11:40:06,487226
-2,-5,-6,-14,-10,-8,-3,-3,2021-08-07 11:40:06,487226
-4,-5,-6,-13,-18,-9,-3,-4,2021-08-07 11:40:06,503226
-7,-9,-15,-30,-34,-16,-10,-8,2021-08-07 11:40:06,503226
2,2,9,22,20,7,0,1,2021-08-07 11:40:06,503226
4,4,10,30,39,20,7,3,2021-08-07 11:40:06,503226
-2,-3,-2,-8,-9,-1,-1,-3,2021-08-07 11:40:06,535227
-1,3,7,25,38,11,3,-1,2021-08-07 11:40:06,551226
-4,-5,-9,-16,-22,-10,-5,-6,2021-08-07 11:40:06,551226
-4,-8,-12,-22,-24,-13,-6,-3,2021-08-07 11:40:06,551226
8,11,8,4,0,0,4,7,2021-08-07 11:40:06,551226
2,2,0,-2,-1,0,2,0,2021-08-07 11:40:06,551226
-3,-3,-4,-6,-4,-3,-1,-3,2021-08-07 11:40:06,551226
-1,0,1,0,-2,-1,-1,-1,2021-08-07 11:40:06,552228
-6,-6,-7,-8,-6,-4,-1,-5,2021-08-07 11:40:06,566226
-7,-8,-9,-10,-10,-6,-6,-4,2021-08-07 11:40:06,566226
7,11,6,10,12,6,4,3,2021-08-07 11:40:06,566226
2,2,1,1,-4,-2,0,-2,2021-08-07 11:40:06,566226
2,2,0,5,3,1,0,2,2021-08-07 11:40:06,582226
-2,-3,-3,-1,-4,1,1,-1,2021-08-07 11:40:06,597227
-6,-4,-5,-7,-3,-3,-3,-4,2021-08-07 11:40:06,613226
0,1,5,5,7,1,0,-1,2021-08-07 11:40:06,613226
-5,-7,-9,-13,-11,-7,-5,-4,2021-08-07 11:40:06,613226
2,2,-1,-13,-14,-4,-1,1,2021-08-07 11:40:06,613226
4,2,5,17,21,11,5,3,2021-08-07 11:40:06,613226
1,4,2,-4,-9,-3,0,0,2021-08-07 11:40:06,613226
0,-1,5,17,11,5,0,1,2021-08-07 11:40:06,613226
0,-1,-1,3,17,4,-1,0,2021-08-07 11:40:06,614226
-3,-6,-7,-11,-5,-2,-2,-1,2021-08-07 11:40:06,629227
-1,-1,0,2,6,3,1,2,2021-08-07 11:40:06,629227
-2,-2,-5,-14,-24,-11,-6,-3,2021-08-07 11:40:06,645225
-5,-4,-4,-6,-19,-10,-6,-3,2021-08-07 11:40:06,661228
-1,-2,-3,-2,-1,-2,-2,-1,2021-08-07 11:40:06,677226
-1,-2,-1,1,1,-1,1,-1,2021-08-07 11:40:06,677226
0,1,-1,-4,-1,3,5,3,2021-08-07 11:40:06,677226
3,3,2,5,4,4,0,-1,2021-08-07 11:40:06,677226
-2,-1,-1,2,-1,-6,-5,-3,2021-08-07 11:40:06,677226
-5,-5,-8,-16,-18,-8,-6,-2,2021-08-07 11:40:06,677226
1,0,7,18,18,8,0,1,2021-08-07 11:40:06,677226
1,0,5,15,22,6,2,0,2021-08-07 11:40:06,677226
-11,-12,-10,-9,-15,-8,-8,-9,2021-08-07 11:40:06,677226
5,6,3,-2,1,2,2,2,2021-08-07 11:40:06,678226
1,3,2,5,8,4,2,0,2021-08-07 11:40:06,725227
-1,-2,-5,-11,-12,-2,2,1,2021-08-07 11:40:06,725227
4,3,6,1,-2,2,2,3,2021-08-07 11:40:06,725227
-6,-8,-9,-7,-10,-5,-3,-6,2021-08-07 11:40:06,725227
1,2,-1,2,18,7,2,1,2021-08-07 11:40:06,725227
4,2,6,16,22,7,-1,1,2021-08-07 11:40:06,725227
-6,-6,-8,-13,-18,-16,-9,-5,2021-08-07 11:40:06,726227
-2,-3,1,2,7,4,-2,-1,2021-08-07 11:40:06,726227
-3,-4,-5,-6,-10,-7,-2,-3,2021-08-07 11:40:06,741227
-1,0,-3,-9,-17,-4,1,2,2021-08-07 11:40:06,741227
-1,1,-3,-3,5,3,3,0,2021-08-07 11:40:06,741227
-2,-2,-2,-1,-11,-6,-3,-2,2021-08-07 11:40:06,741227
0,-1,2,7,14,4,1,-1,2021-08-07 11:40:06,772226
-2,-5,-4,2,-1,-2,-4,-3,2021-08-07 11:40:06,787226
2,2,1,-4,-8,-3,0,-1,2021-08-07 11:40:06,787226
-3,-2,-1,1,4,2,-4,-2,2021-08-07 11:40:06,787226
-2,0,-2,-1,-4,-6,-4,-1,2021-08-07 11:40:06,787226
0,-1,-1,-12,-10,-3,0,0,2021-08-07 11:40:06,787226
0,0,0,0,0,1,1,1,2021-08-07 11:40:06,802232
2,-1,1,-1,-1,-2,2,2,2021-08-07 11:40:06,802232
-2,-3,-3,-5,-3,-3,-4,-3,2021-08-07 11:40:06,802232
-4,-2,-5,-9,-14,-9,-4,-2,2021-08-07 11:40:06,802232
-1,-1,1,7,13,6,1,0,2021-08-07 11:40:06,802232
2,3,4,8,11,5,3,1,2021-08-07 11:40:06,803228
-2,-2,-4,-13,-14,-5,-3,-2,2021-08-07 11:40:06,833225
-4,-6,-5,-5,-21,-9,-4,-3,2021-08-07 11:40:06,833225
3,4,5,7,17,6,2,4,2021-08-07 11:40:06,833225
2,2,7,12,13,7,3,3,2021-08-07 11:40:06,833225
-3,-2,-3,-10,-15,-8,-5,-2,2021-08-07 11:40:06,849226
0,0,1,-2,5,1,0,-1,2021-08-07 11:40:06,849226
-1,-2,0,5,3,1,-1,-2,2021-08-07 11:40:06,849226
1,1,2,4,4,-1,-1,-1,2021-08-07 11:40:06,849226
-3,-3,-7,-12,-17,-8,-3,-2,2021-08-07 11:40:06,865228
4,5,3,2,3,2,1,2,2021-08-07 11:40:06,881228
2,2,2,6,0,3,1,0,2021-08-07 11:40:06,881228
-2,1,1,-3,1,-2,-2,-3,2021-08-07 11:40:06,881228
2,2,5,10,6,4,4,0,2021-08-07 11:40:06,881228
-7,-6,-12,-14,-11,-7,-4,-2,2021-08-07 11:40:06,881228
-1,-3,-4,-11,-13,-6,-2,0,2021-08-07 11:40:06,897228
0,0,-2,2,-2,-2,-3,-1,2021-08-07 11:40:06,897228
-3,-3,-2,-7,-4,-1,-1,-2,2021-08-07 11:40:06,913227
3,2,4,9,16,7,3,2,2021-08-07 11:40:06,929227
-1,1,-2,0,-2,-2,0,-1,2021-08-07 11:40:06,945229
-2,-2,-1,3,0,-2,-3,-1,2021-08-07 11:40:06,945229
-2,-2,-5,-2,3,1,-1,-2,2021-08-07 11:40:06,945229
2,2,9,11,14,6,3,2,2021-08-07 11:40:06,945229
-2,-3,-6,-13,-16,-6,-2,-3,2021-08-07 11:40:06,945229
-2,-5,-5,-2,-9,-7,-3,-1,2021-08-07 11:40:06,946228
5,5,6,11,14,6,4,4,2021-08-07 11:40:06,946228
-5,-4,-5,-4,-2,-3,-3,-3,2021-08-07 11:40:06,946228
-6,-5,-4,-9,-7,-4,-4,-5,2021-08-07 11:40:06,946228
0,3,3,7,3,2,-2,-2,2021-08-07 11:40:06,946228
-1,-2,2,12,16,6,-1,-1,2021-08-07 11:40:06,976226
3,2,0,-2,-6,-2,0,2,2021-08-07 11:40:06,992228
-1,0,2,2,1,0,-1,0,2021-08-07 11:40:06,992228
-2,-3,-10,-20,-23,-10,-5,-3,2021-08-07 11:40:06,992228
-1,-2,-3,-7,-2,-1,-2,2,2021-08-07 11:40:06,992228
6,5,9,28,30,12,7,5,2021-08-07 11:40:06,992228
-2,-1,-3,-5,-6,-2,0,-2,2021-08-07 11:40:06,992228
-4,-5,-6,-6,-2,-2,-3,-3,2021-08-07 11:40:06,992228
-2,-2,-4,-12,-22,-8,-4,-3,2021-08-07 11:40:07,008226
1,1,3,8,15,5,1,0,2021-08-07 11:40:07,008226
1,-1,0,1,2,2,0,2,2021-08-07 11:40:07,008226
-3,-4,-9,-26,-22,-9,-4,-3,2021-08-07 11:40:07,008226
0,-1,6,21,15,2,-1,0,2021-08-07 11:40:07,038229
-2,0,-2,-5,-8,-2,-2,-1,2021-08-07 11:40:07,054227
-1,-1,3,10,10,5,2,0,2021-08-07 11:40:07,054227
-1,-1,1,1,0,0,2,-1,2021-08-07 11:40:07,054227
-1,-1,-2,-6,-6,-2,-1,0,2021-08-07 11:40:07,054227
-1,0,-2,-4,-9,-3,-2,-1,2021-08-07 11:40:07,054227
-1,-1,-2,-5,-8,-4,-1,-1,2021-08-07 11:40:07,054227
-1,0,0,2,6,3,0,-1,2021-08-07 11:40:07,054227
-6,-6,-6,-11,-15,-9,-5,-6,2021-08-07 11:40:07,054227
2,3,5,7,10,4,-1,2,2021-08-07 11:40:07,054227
-1,0,0,1,2,0,-1,-2,2021-08-07 11:40:07,086226
-2,-2,1,0,-3,-3,-1,0,2021-08-07 11:40:07,086226
-4,-5,0,-5,-1,-2,-3,-2,2021-08-07 11:40:07,086226
2,2,0,0,-12,-4,0,1,2021-08-07 11:40:07,086226
0,-3,-3,-1,1,1,-1,0,2021-08-07 11:40:07,086226
1,3,5,19,26,9,3,1,2021-08-07 11:40:07,086226
-2,-2,-6,-9,-14,-6,-2,-2,2021-08-07 11:40:07,118226
-4,-4,-5,-17,-18,-9,-4,-3,2021-08-07 11:40:07,118226
0,1,2,7,5,2,0,1,2021-08-07 11:40:07,118226
1,0,-2,-2,3,3,2,2,2021-08-07 11:40:07,118226
1,4,4,6,9,4,1,0,2021-08-07 11:40:07,118226
-4,-4,-5,-4,-3,-2,-2,-4,2021-08-07 11:40:07,118226
-1,1,2,-2,-5,-2,-1,-1,2021-08-07 11:40:07,134226
0,-1,-2,-3,-6,-3,-1,0,2021-08-07 11:40:07,134226
1,4,1,3,7,2,3,2,2021-08-07 11:40:07,149225
-6,-7,-7,-7,-7,-5,-3,-5,2021-08-07 11:40:07,149225
-1,0,0,5,2,-1,-1,-2,2021-08-07 11:40:07,149225
1,2,3,4,4,2,0,-1,2021-08-07 11:40:07,149225
2,2,1,3,4,3,0,2,2021-08-07 11:40:07,180229
-3,-2,-2,-2,-5,-3,-2,-2,2021-08-07 11:40:07,196227
-4,-5,-7,-11,-5,-3,-3,-2,2021-08-07 11:40:07,196227
0,1,5,8,6,4,0,1,2021-08-07 11:40:07,196227
2,1,2,7,3,1,3,1,2021-08-07 11:40:07,196227
-5,-8,-10,-12,-8,-10,-5,-5,2021-08-07 11:40:07,196227
-2,-2,-1,-8,-4,-3,-3,-1,2021-08-07 11:40:07,196227
0,2,3,8,4,1,-1,0,2021-08-07 11:40:07,196227
-2,-1,2,8,12,7,1,0,2021-08-07 11:40:07,212226
0,-1,-3,-3,-4,-2,0,1,2021-08-07 11:40:07,228226
0,-1,0,-2,-3,0,0,-1,2021-08-07 11:40:07,228226
-5,-8,-7,-10,-10,-9,-5,-5,2021-08-07 11:40:07,228226
4,6,4,5,5,3,1,3,2021-08-07 11:40:07,228226
2,2,2,6,8,5,3,2,2021-08-07 11:40:07,228226
-2,-2,-6,-14,-18,-9,-4,-2,2021-08-07 11:40:07,228226
-3,-2,-1,-7,-10,-4,-3,-1,2021-08-07 11:40:07,228226
-1,-3,-3,-8,-4,-3,-3,-2,2021-08-07 11:40:07,260225
3,4,8,16,14,9,3,2,2021-08-07 11:40:07,260225
3,3,4,7,-1,0,1,1,2021-08-07 11:40:07,260225
-3,-3,-3,2,10,0,0,-4,2021-08-07 11:40:07,260225
2,1,-3,-6,-6,0,1,2,2021-08-07 11:40:07,260225
1,1,2,4,11,4,2,1,2021-08-07 11:40:07,260225
-3,-2,-4,-2,-2,-2,-3,-2,2021-08-07 11:40:07,261227
1,0,-1,-3,-7,-3,0,-1,2021-08-07 11:40:07,261227
-3,-3,-3,-1,-3,-4,-2,-2,2021-08-07 11:40:07,292226
-4,-4,-4,-6,-8,-3,-3,-4,2021-08-07 11:40:07,308226
2,2,1,4,5,1,1,0,2021-08-07 11:40:07,308226
-1,-2,-4,-7,-12,-2,-3,-1,2021-08-07 11:40:07,308226
1,0,-2,-1,1,0,1,0,2021-08-07 11:40:07,308226
1,3,1,2,0,1,-1,0,2021-08-07 11:40:07,308226
-2,-4,-4,-4,-3,-2,-2,-2,2021-08-07 11:40:07,308226
3,5,5,3,0,2,1,2,2021-08-07 11:40:07,308226
-5,-4,1,10,8,1,0,-4,2021-08-07 11:40:07,324226
4,3,3,-1,-4,-1,2,3,2021-08-07 11:40:07,340227
-1,-1,0,1,2,0,0,-1,2021-08-07 11:40:07,356224
-3,-3,-3,-4,4,2,-2,-1,2021-08-07 11:40:07,356224
-1,-2,-4,-5,-7,-3,-2,1,2021-08-07 11:40:07,356224
-1,0,-3,-6,-8,-6,-1,-2,2021-08-07 11:40:07,356224
1,-1,0,-7,-9,-2,5,2,2021-08-07 11:40:07,356224
1,0,2,8,6,6,-1,0,2021-08-07 11:40:07,357225
-2,-2,1,0,9,-3,-7,-6,2021-08-07 11:40:07,372226
-1,-2,1,4,5,-2,-2,-1,2021-08-07 11:40:07,372226
-1,-1,-1,-1,2,0,-4,-2,2021-08-07 11:40:07,372226
-1,-2,-3,-9,-13,-8,0,-1,2021-08-07 11:40:07,372226
-2,-3,-3,-4,-7,-3,1,-1,2021-08-07 11:40:07,388226
-3,-5,-1,-4,-3,1,0,-1,2021-08-07 11:40:07,388226
-5,-6,-4,-1,2,1,-2,-3,2021-08-07 11:40:07,388226
6,8,6,10,10,7,5,4,2021-08-07 11:40:07,388226
-3,-3,-3,-6,-8,-6,-4,-3,2021-08-07 11:40:07,420225
-1,-2,-4,-6,-7,-7,-5,-3,2021-08-07 11:40:07,420225
0,2,0,3,8,6,3,2,2021-08-07 11:40:07,436224
-2,-2,-4,-6,-1,2,3,-1,2021-08-07 11:40:07,452226
2,2,2,-5,-7,-4,-5,0,2021-08-07 11:40:07,468229
-10,-7,-4,-7,-15,-14,-15,-11,2021-08-07 11:40:07,468229
1,1,0,1,5,0,2,1,2021-08-07 11:40:07,468229
4,2,6,14,16,14,8,4,2021-08-07 11:40:07,468229
0,1,2,8,6,-1,-5,-3,2021-08-07 11:40:07,468229
-2,-3,-3,-5,-5,-7,-7,-3,2021-08-07 11:40:07,468229
-4,-3,-4,-2,-5,-5,-6,-4,2021-08-07 11:40:07,468229
0,-2,-4,-10,-14,-6,2,1,2021-08-07 11:40:07,468229
2,-1,-5,-4,-4,8,10,3,2021-08-07 11:40:07,469226
3,3,4,4,4,5,2,3,2021-08-07 11:40:07,469226
-6,-6,-5,-2,-3,-6,-5,-5,2021-08-07 11:40:07,469226
-3,-5,-3,-1,-2,-4,-3,-5,2021-08-07 11:40:07,469226
6,7,10,8,7,6,4,4,2021-08-07 11:40:07,500225
1,0,-4,-6,-3,0,2,-1,2021-08-07 11:40:07,500225
1,-2,-8,-14,-12,-3,2,1,2021-08-07 11:40:07,500225
-5,-3,-3,4,5,5,-4,-2,2021-08-07 11:40:07,500225
-8,-6,-5,-5,-8,-16,-15,-11,2021-08-07 11:40:07,500225
0,2,2,6,5,2,4,4,2021-08-07 11:40:07,500225
-3,-4,-4,-6,-2,-2,-1,-6,2021-08-07 11:40:07,516226
1,1,3,9,0,-4,0,1,2021-08-07 11:40:07,516226
3,3,0,2,4,8,9,5,2021-08-07 11:40:07,532226
1,0,-2,1,0,4,3,1,2021-08-07 11:40:07,548226
-1,-1,0,-4,-1,-2,-3,-1,2021-08-07 11:40:07,563229
-2,-3,-2,-5,-4,-5,-4,-2,2021-08-07 11:40:07,563229
0,-1,-1,-1,1,0,1,-2,2021-08-07 11:40:07,563229
0,3,1,-1,-1,1,2,3,2021-08-07 11:40:07,563229
0,-1,4,11,7,3,-1,-1,2021-08-07 11:40:07,563229
-2,0,-4,-13,-14,-8,-5,-4,2021-08-07 11:40:07,564227
-3,-1,0,-2,-8,-3,-3,1,2021-08-07 11:40:07,564227
-1,-2,-2,0,7,3,0,-1,2021-08-07 11:40:07,564227
5,7,9,15,14,7,2,2,2021-08-07 11:40:07,579226
-5,-5,-3,-3,-3,-6,-4,-4,2021-08-07 11:40:07,579226
-6,-8,-12,-19,-16,-8,-3,-5,2021-08-07 11:40:07,595227
-2,0,-2,-5,-13,-5,-1,0,2021-08-07 11:40:07,595227
4,5,6,12,14,7,3,6,2021-08-07 11:40:07,595227
-2,-3,0,2,4,-1,-3,-4,2021-08-07 11:40:07,595227
-3,-4,-4,-5,-1,0,-2,-1,2021-08-07 11:40:07,611224
-3,-4,-2,0,2,0,-1,-2,2021-08-07 11:40:07,611224
0,0,0,-4,-6,-4,-2,-1,2021-08-07 11:40:07,611224
-4,-4,-3,-5,-8,-3,-4,-2,2021-08-07 11:40:07,611224
2,5,5,10,8,7,4,3,2021-08-07 11:40:07,627226
-2,-3,-5,-9,-7,-3,-4,-3,2021-08-07 11:40:07,643226
0,2,3,4,7,3,1,1,2021-08-07 11:40:07,658226
1,1,1,3,0,-1,1,1,2021-08-07 11:40:07,658226
-2,-2,-1,0,-2,-1,0,1,2021-08-07 11:40:07,658226
-1,0,-1,2,1,0,1,-2,2021-08-07 11:40:07,658226
-3,-2,-5,-9,-6,-4,-1,-3,2021-08-07 11:40:07,658226
0,-1,-2,-3,4,1,0,0,2021-08-07 11:40:07,658226
1,-1,1,2,0,0,1,2,2021-08-07 11:40:07,690229
-3,-6,-8,-10,-13,-8,-4,-3,2021-08-07 11:40:07,690229
2,0,-1,1,-1,1,-1,2,2021-08-07 11:40:07,690229
-3,-1,-1,0,3,0,-1,-1,2021-08-07 11:40:07,690229
-4,-1,-1,0,0,0,-4,-4,2021-08-07 11:40:07,690229
0,4,7,7,11,6,0,1,2021-08-07 11:40:07,691228
-2,0,2,-1,-6,-6,-4,-3,2021-08-07 11:40:07,706226
-2,-3,-6,-7,-10,-8,-4,-2,2021-08-07 11:40:07,706226
4,3,3,2,7,5,4,4,2021-08-07 11:40:07,706226
3,1,3,14,11,5,2,1,2021-08-07 11:40:07,706226
-1,-1,-1,1,1,2,-1,-1,2021-08-07 11:40:07,706226
-1,-1,-4,-3,-4,-3,-1,-1,2021-08-07 11:40:07,706226
-4,-3,-7,-17,-18,-11,-5,-4,2021-08-07 11:40:07,727227
2,2,4,5,8,5,3,2,2021-08-07 11:40:07,727227
-2,-4,-3,1,0,0,-1,-2,2021-08-07 11:40:07,728231
-3,-4,-4,-8,-7,-3,-5,-2,2021-08-07 11:40:07,728231
2,1,2,3,4,1,0,1,2021-08-07 11:40:07,753228
0,3,6,15,6,3,2,2,2021-08-07 11:40:07,769225
-5,-7,-11,-16,-12,-7,-3,-3,2021-08-07 11:40:07,769225
3,5,1,-10,-7,-2,-2,1,2021-08-07 11:40:07,769225
1,-2,1,4,2,0,1,1,2021-08-07 11:40:07,769225
1,0,1,3,1,3,1,-2,2021-08-07 11:40:07,769225
0,0,1,1,3,2,1,1,2021-08-07 11:40:07,769225
-6,-5,-6,-2,-2,-3,-2,-3,2021-08-07 11:40:07,770228
2,2,2,6,5,3,0,0,2021-08-07 11:40:07,801228
0,-1,-2,-6,1,1,0,1,2021-08-07 11:40:07,817226
-3,-6,-4,-9,-12,-10,-4,-3,2021-08-07 11:40:07,833225
0,0,1,3,4,1,1,1,2021-08-07 11:40:07,833225
-1,-2,-2,2,-3,-4,-1,-1,2021-08-07 11:40:07,833225
-3,-3,-4,-7,-6,-5,-2,-2,2021-08-07 11:40:07,833225
1,5,8,13,12,7,2,1,2021-08-07 11:40:07,833225
0,0,1,0,-1,-1,0,0,2021-08-07 11:40:07,833225
-2,-1,-1,2,3,1,-1,-4,2021-08-07 11:40:07,834225
0,-1,-1,-3,-2,0,-1,-1,2021-08-07 11:40:07,834225
-4,-5,-9,-17,-17,-12,-6,-3,2021-08-07 11:40:07,834225
0,-1,1,-2,0,-1,-1,-2,2021-08-07 11:40:07,834225
-1,-1,-3,-5,-4,-2,0,0,2021-08-07 11:40:07,849226
0,-1,-1,-3,-3,-2,-2,-1,2021-08-07 11:40:07,865227
4,7,11,17,23,14,5,2,2021-08-07 11:40:07,865227
-1,-5,-4,0,-2,-1,-1,-1,2021-08-07 11:40:07,865227
-4,-5,-8,-21,-29,-18,-9,-3,2021-08-07 11:40:07,880225
-1,1,2,3,2,1,0,0,2021-08-07 11:40:07,880225
-3,-6,-8,-7,-6,-4,-1,-1,2021-08-07 11:40:07,880225
1,4,3,6,11,7,3,1,2021-08-07 11:40:07,880225
2,1,0,4,6,4,1,1,2021-08-07 11:40:07,880225
-1,-1,-2,-7,-4,-2,0,-1,2021-08-07 11:40:07,881228
1,2,3,15,10,5,1,-2,2021-08-07 11:40:07,896229
2,3,2,4,5,1,0,1,2021-08-07 11:40:07,896229
-2,-2,0,2,0,-1,1,-2,2021-08-07 11:40:07,912226
-7,-5,-6,-12,-15,-9,-4,-4,2021-08-07 11:40:07,912226
3,2,0,-3,-4,-3,-2,1,2021-08-07 11:40:07,912226
-3,-1,2,7,6,1,-3,-1,2021-08-07 11:40:07,912226
1,2,3,4,7,3,1,3,2021-08-07 11:40:07,944228
-1,-4,-3,-3,-3,-2,-1,-2,2021-08-07 11:40:07,960228
-3,-4,-6,-7,-8,-5,-3,-2,2021-08-07 11:40:07,976226
0,3,1,-5,-7,-4,-1,1,2021-08-07 11:40:07,976226
-1,-3,-4,-11,-2,1,-1,0,2021-08-07 11:40:07,976226
-1,-1,0,9,8,2,0,-1,2021-08-07 11:40:07,976226
-3,0,-2,-2,-4,-4,-1,-1,2021-08-07 11:40:07,976226
-1,-3,1,3,1,0,-1,-1,2021-08-07 11:40:07,976226
-1,0,-1,-1,0,1,1,0,2021-08-07 11:40:07,976226
2,1,1,0,-4,-3,0,1,2021-08-07 11:40:07,977226
-2,-3,-3,-5,-4,-6,-3,-2,2021-08-07 11:40:07,977226
2,-1,4,12,10,6,3,0,2021-08-07 11:40:07,977226
0,1,0,2,-3,-2,0,0,2021-08-07 11:40:07,992226
0,0,-1,-3,-2,-1,-1,0,2021-08-07 11:40:08,008226
0,-1,0,0,-3,0,-1,-1,2021-08-07 11:40:08,008226
-4,-4,-4,-1,-5,-3,-3,-5,2021-08-07 11:40:08,008226
2,1,2,1,2,1,2,3,2021-08-07 11:40:08,008226
3,2,1,5,5,6,4,3,2021-08-07 11:40:08,008226
-1,-1,-1,-2,-4,0,2,1,2021-08-07 11:40:08,008226
2,3,-1,-3,1,4,4,4,2021-08-07 11:40:08,008226
-7,-8,-6,-2,-6,-9,-12,-9,2021-08-07 11:40:08,040227
-1,1,-2,-4,4,-5,-8,-3,2021-08-07 11:40:08,056226
-12,-9,-10,-16,-17,-19,-16,-13,2021-08-07 11:40:08,056226
4,3,9,21,25,15,15,10,2021-08-07 11:40:08,056226
2,1,-1,-3,-2,4,3,2,2021-08-07 11:40:08,056226
1,2,3,3,2,-2,-5,-2,2021-08-07 11:40:08,056226
-2,-2,0,-4,-8,-5,-2,-3,2021-08-07 11:40:08,056226
-1,-1,-2,0,0,-3,-3,-3,2021-08-07 11:40:08,056226
-2,-3,-5,-8,-8,3,5,3,2021-08-07 11:40:08,072228
0,1,3,3,9,8,6,1,2021-08-07 11:40:08,072228
4,3,6,12,14,7,3,2,2021-08-07 11:40:08,072228
-4,-3,-6,-11,-15,-11,-7,-5,2021-08-07 11:40:08,072228
-1,0,-1,0,1,-1,1,0,2021-08-07 11:40:08,088226
-7,-9,-10,-19,-23,-12,-6,-6,2021-08-07 11:40:08,088226
5,8,7,11,6,6,2,2,2021-08-07 11:40:08,088226
0,-2,0,4,11,3,-1,-1,2021-08-07 11:40:08,088226
-1,0,3,3,2,1,0,-3,2021-08-07 11:40:08,119226
-2,0,0,3,5,2,-1,0,2021-08-07 11:40:08,119226
0,-2,-1,3,1,-4,-3,0,2021-08-07 11:40:08,119226
-1,-1,-3,-15,-15,-6,-4,-3,2021-08-07 11:40:08,119226
-2,-2,-2,3,3,1,-2,-3,2021-08-07 11:40:08,135226
-5,-3,-5,-5,-4,-4,-3,-2,2021-08-07 11:40:08,151224
-2,-3,-4,-2,0,4,4,1,2021-08-07 11:40:08,167227
1,2,-1,-7,-6,-2,-2,-1,2021-08-07 11:40:08,167227
-2,-1,1,3,1,1,-2,-2,2021-08-07 11:40:08,167227
2,0,1,2,0,3,2,3,2021-08-07 11:40:08,167227
-2,-3,-4,-5,-6,-3,-3,-3,2021-08-07 11:40:08,167227
-4,-5,-8,-17,-11,-5,-7,-4,2021-08-07 11:40:08,167227
4,5,6,13,11,5,4,1,2021-08-07 11:40:08,167227
1,3,4,11,5,0,1,0,2021-08-07 11:40:08,168228
-1,-3,-3,-7,-1,0,-2,-2,2021-08-07 11:40:08,168228
-1,-1,-2,-5,-7,-2,-1,-1,2021-08-07 11:40:08,168228
-2,-2,-2,1,-1,-2,-3,-2,2021-08-07 11:40:08,183227
1,0,1,2,-1,-1,0,0,2021-08-07 11:40:08,183227
0,0,2,0,0,1,0,-1,2021-08-07 11:40:08,183227
-3,-3,-1,6,5,2,-1,-1,2021-08-07 11:40:08,183227
0,-2,-3,-6,1,-3,-1,-3,2021-08-07 11:40:08,215225
-1,-2,-4,-7,-10,-5,-2,-1,2021-08-07 11:40:08,215225
-6,-6,-7,-8,-7,-4,-4,-4,2021-08-07 11:40:08,215225
1,1,5,10,4,1,1,1,2021-08-07 11:40:08,215225
5,6,6,10,8,3,3,4,2021-08-07 11:40:08,231226
-2,-1,-3,-4,-2,0,-2,0,2021-08-07 11:40:08,231226
-3,-3,-4,-6,-2,-1,-1,-1,2021-08-07 11:40:08,231226
-3,-2,-2,-2,-4,-2,-3,-3,2021-08-07 11:40:08,231226
4,3,7,15,13,5,2,2,2021-08-07 11:40:08,247226
0,-5,-8,-16,-11,-5,-2,-1,2021-08-07 11:40:08,247226
0,1,-1,-3,-7,-4,-1,0,2021-08-07 11:40:08,247226
-5,-5,-7,-11,-11,-7,-3,-3,2021-08-07 11:40:08,247226
-1,0,1,-1,3,-1,0,-1,2021-08-07 11:40:08,278226
0,3,4,9,11,5,2,-1,2021-08-07 11:40:08,293226
1,0,0,8,9,6,2,0,2021-08-07 11:40:08,309227
1,2,-1,-10,-10,-6,-1,1,2021-08-07 11:40:08,325226
-1,-2,-2,0,-5,-2,-2,-1,2021-08-07 11:40:08,341227
-3,-2,-2,-7,-3,-2,-1,-2,2021-08-07 11:40:08,341227
0,-2,0,1,1,0,-1,-1,2021-08-07 11:40:08,341227
4,5,6,11,13,5,1,2,2021-08-07 11:40:08,341227
-1,-3,-4,-8,-5,-3,-3,-1,2021-08-07 11:40:08,341227
-3,-5,-4,-6,-3,0,-2,-2,2021-08-07 11:40:08,341227
2,1,3,5,4,2,1,2,2021-08-07 11:40:08,341227
-2,-2,-3,-5,-10,-3,-2,-1,2021-08-07 11:40:08,342229
-1,1,-1,-2,-2,-2,-2,-1,2021-08-07 11:40:08,356224
2,3,3,7,3,4,0,0,2021-08-07 11:40:08,356224
1,2,1,2,0,0,2,1,2021-08-07 11:40:08,356224
-3,-3,-8,-14,-11,-8,-5,-2,2021-08-07 11:40:08,356224
-3,-2,-2,-4,-4,-2,0,0,2021-08-07 11:40:08,356224
-3,-3,-2,-5,-6,-3,-2,-3,2021-08-07 11:40:08,356224
0,0,0,-1,3,2,-1,-1,2021-08-07 11:40:08,372226
0,-1,2,12,10,4,2,-1,2021-08-07 11:40:08,372226
-3,-3,-5,-8,-4,-2,-3,-2,2021-08-07 11:40:08,372226
2,3,4,11,9,4,1,3,2021-08-07 11:40:08,372226
-2,-6,-8,-13,-15,-10,-4,-3,2021-08-07 11:40:08,372226
-2,-3,-2,-6,-6,-4,-2,-2,2021-08-07 11:40:08,372226
-3,-4,-8,-16,-12,-6,-3,-3,2021-08-07 11:40:08,402226
3,7,15,37,25,11,6,5,2021-08-07 11:40:08,402226
1,2,4,2,1,0,-1,1,2021-08-07 11:40:08,402226
0,-1,-1,-3,-2,-2,-1,-1,2021-08-07 11:40:08,402226
0,0,0,2,-3,-1,1,0,2021-08-07 11:40:08,418226
-3,-5,-6,-10,-3,-3,-1,-1,2021-08-07 11:40:08,434224
2,1,0,0,4,1,2,1,2021-08-07 11:40:08,450228
-4,-5,-4,-3,-5,-5,-3,-1,2021-08-07 11:40:08,450228
-6,-5,-6,-7,-6,-2,-3,-3,2021-08-07 11:40:08,450228
5,5,6,0,2,1,1,3,2021-08-07 11:40:08,450228
1,5,13,23,23,13,1,-1,2021-08-07 11:40:08,450228
0,-1,-5,-6,-1,2,0,-1,2021-08-07 11:40:08,450228
-7,-8,-13,-24,-30,-21,-10,-5,2021-08-07 11:40:08,466227
-3,-4,-5,-11,-14,-8,-4,-3,2021-08-07 11:40:08,466227
2,0,0,4,4,2,1,1,2021-08-07 11:40:08,466227
2,1,0,0,1,0,1,0,2021-08-07 11:40:08,466227
2,1,2,7,6,6,2,2,2021-08-07 11:40:08,467226
-1,-4,-4,-5,-2,-2,-1,1,2021-08-07 11:40:08,467226
-4,-2,-2,-2,-3,-1,-1,-4,2021-08-07 11:40:08,467226
0,2,5,13,11,5,1,0,2021-08-07 11:40:08,467226
-1,2,1,1,4,3,1,0,2021-08-07 11:40:08,498224
-2,-1,-2,-3,-3,-2,-3,-2,2021-08-07 11:40:08,498224
3,4,4,8,8,5,3,3,2021-08-07 11:40:08,498224
-3,-4,-4,-5,-4,-5,-3,0,2021-08-07 11:40:08,498224
0,-3,-3,-5,-9,-6,-4,-2,2021-08-07 11:40:08,514227
-3,-2,-3,-2,-1,-1,-1,0,2021-08-07 11:40:08,530226
-3,-4,-5,-10,-9,-6,-3,-1,2021-08-07 11:40:08,530226
-2,-2,-4,-5,-3,-2,-1,-1,2021-08-07 11:40:08,530226
5,6,9,15,12,7,4,4,2021-08-07 11:40:08,530226
-1,-1,-5,-1,2,2,0,-1,2021-08-07 11:40:08,530226
-2,-4,-1,-5,-12,-8,-3,-1,2021-08-07 11:40:08,530226
-1,-2,0,-1,14,4,2,-1,2021-08-07 11:40:08,530226
-3,-2,2,5,1,0,-1,-1,2021-08-07 11:40:08,546226
2,1,-5,-8,-9,-2,1,0,2021-08-07 11:40:08,546226
-3,-4,-6,-8,-6,-4,-3,-2,2021-08-07 11:40:08,546226
3,6,6,10,4,4,1,2,2021-08-07 11:40:08,546226
-5,-6,-5,-5,0,-1,0,-1,2021-08-07 11:40:08,578227
-2,-1,-1,-2,-7,-4,-3,-4,2021-08-07 11:40:08,578227
-2,-4,-6,-7,-6,-4,-3,-1,2021-08-07 11:40:08,578227
-1,-2,-1,3,2,1,-2,-1,2021-08-07 11:40:08,578227
2,0,1,3,6,3,2,0,2021-08-07 11:40:08,594227
-2,-4,-6,-15,-14,-2,2,0,2021-08-07 11:40:08,610224
3,5,7,16,13,6,-1,1,2021-08-07 11:40:08,610224
-7,-7,-7,-4,-10,-18,-18,-12,2021-08-07 11:40:08,610224
-2,-1,-3,-4,-1,-2,-2,-1,2021-08-07 11:40:08,610224
5,2,6,11,4,5,7,5,2021-08-07 11:40:08,610224
0,-3,-3,-4,-3,2,3,0,2021-08-07 11:40:08,610224
-2,1,1,4,0,-5,-8,-6,2021-08-07 11:40:08,610224
-1,0,-1,-4,-3,-2,-4,-3,2021-08-07 11:40:08,624225
-3,-3,-1,0,0,-3,0,-2,2021-08-07 11:40:08,624225
-1,-4,-11,-18,-12,0,5,1,2021-08-07 11:40:08,625228
11,14,19,31,26,15,8,8,2021-08-07 11:40:08,625228
-2,-3,-4,0,-2,-5,-2,-3,2021-08-07 11:40:08,658225
-2,0,-3,-5,-1,0,-2,-1,2021-08-07 11:40:08,658225
-1,-2,-1,1,2,-2,-2,-2,2021-08-07 11:40:08,658225
-1,-3,-5,-12,-14,5,13,6,2021-08-07 11:40:08,658225
1,2,2,2,4,8,1,2,2021-08-07 11:40:08,673226
-3,-3,-5,-6,-7,-14,-15,-9,2021-08-07 11:40:08,689224
-9,-6,-7,-11,-15,-18,-13,-9,2021-08-07 11:40:08,689224
-2,-2,-2,-2,1,1,0,0,2021-08-07 11:40:08,689224
1,1,0,2,1,4,6,3,2021-08-07 11:40:08,690229
1,1,5,17,18,11,6,3,2021-08-07 11:40:08,690229
2,1,0,-2,-2,-1,-1,0,2021-08-07 11:40:08,690229
1,2,3,-2,-4,1,3,0,2021-08-07 11:40:08,690229
1,0,-2,-4,-3,-1,2,2,2021-08-07 11:40:08,721226
-6,-5,-5,-8,-10,-8,-7,-4,2021-08-07 11:40:08,721226
-4,-4,-5,-11,-2,0,-2,-4,2021-08-07 11:40:08,721226
2,1,4,10,2,2,1,1,2021-08-07 11:40:08,721226
-3,-3,-5,-10,-7,-6,-7,-5,2021-08-07 11:40:08,721226
0,1,-3,-8,-8,-5,-4,0,2021-08-07 11:40:08,721226
1,1,5,9,8,5,2,2,2021-08-07 11:40:08,721226
-2,-3,-8,-4,1,1,-1,0,2021-08-07 11:40:08,736225
3,1,6,12,8,4,2,1,2021-08-07 11:40:08,752226
-1,-2,0,3,6,2,0,-2,2021-08-07 11:40:08,768226
-2,-2,0,-1,-4,-1,-1,1,2021-08-07 11:40:08,784224
-5,-7,-9,-16,-16,-10,-8,-5,2021-08-07 11:40:08,799224
0,-3,-5,-5,-2,-3,-2,0,2021-08-07 11:40:08,799224
3,4,5,9,7,5,4,1,2021-08-07 11:40:08,799224
1,1,3,8,3,2,1,2,2021-08-07 11:40:08,799224
-2,-1,-3,-8,-5,-3,-2,0,2021-08-07 11:40:08,799224
1,1,1,6,0,-1,0,0,2021-08-07 11:40:08,800228
-1,-3,-3,-5,-2,0,-2,-1,2021-08-07 11:40:08,800228
-1,0,0,7,3,-2,-1,-4,2021-08-07 11:40:08,800228
0,0,1,-1,-3,0,0,1,2021-08-07 11:40:08,800228
-1,-1,1,-2,-4,-3,-1,0,2021-08-07 11:40:08,815226
2,2,1,7,8,5,1,1,2021-08-07 11:40:08,831226
-3,-4,-5,-9,-9,-5,-5,-3,2021-08-07 11:40:08,831226
-2,-1,-1,1,0,-2,0,-3,2021-08-07 11:40:08,831226
-3,-3,-1,-2,-4,-3,-2,-4,2021-08-07 11:40:08,831226
-3,-3,-2,-3,-4,-4,0,-1,2021-08-07 11:40:08,847226
0,0,-1,0,6,1,1,-1,2021-08-07 11:40:08,863228
0,1,0,-5,-4,-1,-2,0,2021-08-07 11:40:08,863228
-1,-1,0,6,7,3,1,0,2021-08-07 11:40:08,863228
-4,-4,-5,-13,-12,-6,-4,-3,2021-08-07 11:40:08,863228
-1,-1,-1,0,-2,-2,-1,0,2021-08-07 11:40:08,863228
-1,-1,2,7,8,3,2,1,2021-08-07 11:40:08,879227
0,2,0,-4,-1,0,-1,0,2021-08-07 11:40:08,911229
-3,-3,-1,-1,1,-1,-1,-3,2021-08-07 11:40:08,911229
1,2,4,10,0,1,2,1,2021-08-07 11:40:08,911229
-1,-2,1,8,8,2,1,-2,2021-08-07 11:40:08,927226
-1,2,2,1,-2,-1,-1,0,2021-08-07 11:40:08,927226
-5,-6,-10,-20,-19,-11,-4,-3,2021-08-07 11:40:08,927226
1,1,1,4,7,3,0,0,2021-08-07 11:40:08,927226
0,-1,0,-7,-5,0,-1,0,2021-08-07 11:40:08,927226
0,0,4,16,17,7,2,-1,2021-08-07 11:40:08,927226
-2,-2,-1,1,0,0,1,0,2021-08-07 11:40:08,927226
-2,-2,-5,-9,-4,-4,-1,-2,2021-08-07 11:40:08,927226
-2,-2,-3,-6,-5,-4,-2,0,2021-08-07 11:40:08,927226
0,0,-4,-9,-8,-5,-4,1,2021-08-07 11:40:08,927226
0,-1,1,0,-1,-1,-2,0,2021-08-07 11:40:08,928227
-2,0,2,0,0,3,-2,-2,2021-08-07 11:40:08,928227
-2,-4,-2,2,1,0,-2,-3,2021-08-07 11:40:08,928227
4,4,0,-1,-2,0,1,1,2021-08-07 11:40:08,959227
1,-2,0,0,-2,-1,-1,0,2021-08-07 11:40:08,975227
-1,-1,-2,0,2,1,-1,0,2021-08-07 11:40:08,975227
0,0,1,0,1,1,1,2,2021-08-07 11:40:08,975227
-3,-3,-2,-2,-2,-1,-1,-3,2021-08-07 11:40:08,975227
-3,-2,-4,-3,-1,-2,0,0,2021-08-07 11:40:08,976226
5,5,4,3,5,2,3,2,2021-08-07 11:40:08,991228
-1,0,1,2,0,0,1,-1,2021-08-07 11:40:08,991228
-1,-1,-2,-4,-1,-2,-3,-2,2021-08-07 11:40:09,007228
-1,1,4,7,5,2,0,-1,2021-08-07 11:40:09,007228
-3,-4,-5,-9,-6,-3,-3,-2,2021-08-07 11:40:09,007228
4,2,1,-2,-2,-1,1,0,2021-08-07 11:40:09,007228
-3,-2,-2,-3,-3,-4,-2,-2,2021-08-07 11:40:09,007228
0,1,-3,-3,1,1,0,0,2021-08-07 11:40:09,007228
-2,-4,0,5,1,-2,-1,-1,2021-08-07 11:40:09,008227
0,0,-2,-6,-1,0,1,2,2021-08-07 11:40:09,008227
-1,-2,-3,-5,-6,-4,-2,-1,2021-08-07 11:40:09,038227
-1,-1,2,2,-1,-1,-2,0,2021-08-07 11:40:09,038227
1,1,4,10,11,5,3,2,2021-08-07 11:40:09,038227
-3,-3,-4,-3,-5,-3,-2,-2,2021-08-07 11:40:09,038227
0,-3,-4,-6,-5,-4,-1,-1,2021-08-07 11:40:09,054227
1,0,0,3,7,3,2,-1,2021-08-07 11:40:09,069226
-1,-4,-3,-6,-7,-5,-1,-2,2021-08-07 11:40:09,069226
-1,-3,0,3,1,-1,0,-1,2021-08-07 11:40:09,069226
2,1,2,3,1,1,0,1,2021-08-07 11:40:09,069226
-4,-3,-5,-10,-13,-5,-2,-3,2021-08-07 11:40:09,069226
-1,-1,0,3,10,1,-1,-1,2021-08-07 11:40:09,069226
-2,-1,-3,0,-1,-2,-1,-1,2021-08-07 11:40:09,069226
-2,-1,0,-1,4,2,0,1,2021-08-07 11:40:09,100228
1,2,4,9,6,0,-1,1,2021-08-07 11:40:09,100228
-1,-1,-2,-4,-5,-2,-1,0,2021-08-07 11:40:09,100228
-3,-4,-6,-11,-11,-6,-5,-3,2021-08-07 11:40:09,100228
-1,-1,-3,-4,-2,-1,-3,-2,2021-08-07 11:40:09,132227
0,0,1,3,2,0,-1,-2,2021-08-07 11:40:09,132227
1,2,2,3,3,4,2,1,2021-08-07 11:40:09,132227
0,2,0,-1,-1,-2,0,1,2021-08-07 11:40:09,147226
-3,-5,-5,-4,-5,-4,-2,-1,2021-08-07 11:40:09,163225
-3,-9,-4,-8,-6,-4,-1,-3,2021-08-07 11:40:09,163225
0,1,-3,0,0,0,-1,-2,2021-08-07 11:40:09,163225
-1,1,1,3,2,2,1,0,2021-08-07 11:40:09,163225
2,5,4,11,7,3,0,-1,2021-08-07 11:40:09,163225
0,1,0,2,1,0,-1,-1,2021-08-07 11:40:09,163225
-2,-4,-2,-5,-6,-4,-1,-3,2021-08-07 11:40:09,164226
0,-1,-2,-7,-3,0,-1,-1,2021-08-07 11:40:09,164226
-2,-1,-1,2,-1,-1,0,-1,2021-08-07 11:40:09,164226
2,3,3,9,10,4,2,0,2021-08-07 11:40:09,164226
-4,-5,-10,-23,-24,-13,-7,-3,2021-08-07 11:40:09,164226
6,6,15,34,37,18,7,5,2021-08-07 11:40:09,164226
-3,-2,0,0,4,0,1,-1,2021-08-07 11:40:09,195228
-6,-7,-7,-7,-7,-5,-4,-3,2021-08-07 11:40:09,195228
6,7,5,-1,-6,-1,4,5,2021-08-07 11:40:09,195228
0,-1,-2,-7,-5,-2,-3,-2,2021-08-07 11:40:09,211225
-2,-3,-2,-7,-9,-8,-7,-5,2021-08-07 11:40:09,227224
-2,0,0,5,6,-1,-1,-3,2021-08-07 11:40:09,227224
-2,-3,-4,-7,-2,1,2,1,2021-08-07 11:40:09,227224
1,-2,-4,-3,-1,4,7,3,2021-08-07 11:40:09,227224
1,0,0,2,4,4,1,2,2021-08-07 11:40:09,227224
-3,-4,-5,-8,-12,-13,-10,-6,2021-08-07 11:40:09,227224
-5,-3,-1,2,1,-4,-6,-5,2021-08-07 11:40:09,227224
0,1,3,0,0,6,8,4,2021-08-07 11:40:09,228228
-2,-2,-3,-6,-5,1,-1,-2,2021-08-07 11:40:09,259226
1,2,0,-3,-11,-6,-7,-2,2021-08-07 11:40:09,275227
-6,-5,-1,11,11,-3,-7,-8,2021-08-07 11:40:09,275227
0,-2,-1,2,-4,-6,-4,-1,2021-08-07 11:40:09,275227
1,-3,-3,-6,-4,1,4,3,2021-08-07 11:40:09,291225
1,3,2,5,7,7,7,6,2021-08-07 11:40:09,307226
-1,-3,-3,-8,-11,-3,-3,-1,2021-08-07 11:40:09,322226
1,3,-1,-6,-3,-4,-3,-2,2021-08-07 11:40:09,354226
-2,0,0,1,3,-1,0,0,2021-08-07 11:40:09,354226
9,9,8,10,11,11,10,6,2021-08-07 11:40:09,354226
-6,-7,-6,-9,-12,-5,-4,-2,2021-08-07 11:40:09,354226
-4,-6,-10,-8,-7,-7,-6,-4,2021-08-07 11:40:09,354226
-1,-2,1,6,14,1,-3,-2,2021-08-07 11:40:09,354226
7,6,4,8,16,24,25,11,2021-08-07 11:40:09,355226
10,8,3,-1,7,19,15,9,2021-08-07 11:40:09,355226
2,-2,-4,-14,-21,-24,-25,-7,2021-08-07 11:40:09,355226
-22,-16,-15,-27,-38,-44,-32,-23,2021-08-07 11:40:09,355226
-6,-6,-5,-7,2,1,-1,0,2021-08-07 11:40:09,355226
9,8,10,21,21,19,17,10,2021-08-07 11:40:09,355226
20,14,6,1,10,48,54,28,2021-08-07 11:40:09,356228
22,17,15,30,47,27,-1,13,2021-08-07 11:40:09,370225
-46,-33,-26,-38,-61,-111,-108,-73,2021-08-07 11:40:09,386225
-25,-20,-16,-23,-23,-23,-21,-19,2021-08-07 11:40:09,402226
-1,1,1,3,5,8,8,6,2021-08-07 11:40:09,402226
16,12,9,3,5,39,49,26,2021-08-07 11:40:09,402226
27,18,12,16,22,50,45,31,2021-08-07 11:40:09,402226
25,16,11,20,24,38,40,23,2021-08-07 11:40:09,402226
-8,-10,-8,-9,-10,-18,-26,-13,2021-08-07 11:40:09,402226
-48,-31,-19,-16,-33,-69,-66,-57,2021-08-07 11:40:09,402226
57,32,12,9,33,87,82,80,2021-08-07 11:40:09,403225
58,30,16,22,19,14,-19,15,2021-08-07 11:40:09,403225
-83,-40,-20,-34,-77,-83,-87,-92,2021-08-07 11:40:09,403225
-59,-51,-20,-10,-1,18,19,-20,2021-08-07 11:40:09,418226
7,-17,-9,-1,13,24,27,12,2021-08-07 11:40:09,418226
37,15,11,11,21,36,45,46,2021-08-07 11:40:09,418226
51,24,3,-4,1,18,15,34,2021-08-07 11:40:09,418226
26,24,15,17,10,-10,-14,1,2021-08-07 11:40:09,449227
-36,-13,-9,-5,-11,-12,-12,-26,2021-08-07 11:40:09,449227
-5,-4,-3,3,11,13,15,7,2021-08-07 11:40:09,465227
-1,2,6,15,15,-14,-16,-8,2021-08-07 11:40:09,465227
5,8,3,-2,-3,-2,4,4,2021-08-07 11:40:09,465227
9,7,3,4,18,17,13,9,2021-08-07 11:40:09,465227
-2,3,3,-1,-16,-26,-21,-12,2021-08-07 11:40:09,465227
-18,-14,-13,-29,-37,-35,-20,-17,2021-08-07 11:40:09,465227
-12,-11,-12,-9,-8,-4,-7,-5,2021-08-07 11:40:09,466226
10,7,9,9,0,-3,-6,2,2021-08-07 11:40:09,466226
-31,-14,-5,7,27,-12,-19,-26,2021-08-07 11:40:09,466226
6,2,3,4,15,31,32,19,2021-08-07 11:40:09,466226
30,16,7,7,8,28,28,26,2021-08-07 11:40:09,497225
-15,-10,-7,-22,-42,-48,-39,-28,2021-08-07 11:40:09,513226
-29,-18,-14,-22,-26,-25,-20,-23,2021-08-07 11:40:09,513226
20,17,18,43,56,40,31,24,2021-08-07 11:40:09,513226
23,23,26,28,19,11,6,12,2021-08-07 11:40:09,513226
-16,-13,-17,-49,-47,-24,-16,-15,2021-08-07 11:40:09,513226
-15,-15,-19,7,36,10,2,-5,2021-08-07 11:40:09,513226
1,-5,-12,-24,-18,-6,-2,3,2021-08-07 11:40:09,514226
-3,-8,-12,-21,-25,-12,-8,-1,2021-08-07 11:40:09,529226
0,6,14,23,12,5,0,0,2021-08-07 11:40:09,529226
0,1,7,1,-5,0,1,0,2021-08-07 11:40:09,529226
1,2,3,-5,-35,-12,-4,-2,2021-08-07 11:40:09,529226
12,10,12,11,28,16,10,11,2021-08-07 11:40:09,561225
9,9,14,46,70,33,11,7,2021-08-07 11:40:09,577228
1,-2,-7,-8,-23,-10,-1,1,2021-08-07 11:40:09,593226
-20,-23,-27,-42,-26,-17,-11,-14,2021-08-07 11:40:09,609226
8,7,-2,-26,-27,-4,5,9,2021-08-07 11:40:09,609226
1,2,4,14,4,-3,-4,-1,2021-08-07 11:40:09,609226
-1,5,13,28,19,4,-2,-4,2021-08-07 11:40:09,609226
0,-2,0,-9,-12,2,2,1,2021-08-07 11:40:09,609226
6,0,-2,6,-1,6,8,4,2021-08-07 11:40:09,609226
-1,0,-3,5,16,0,-4,-3,2021-08-07 11:40:09,609226
-5,-1,3,-4,-24,-14,-6,-5,2021-08-07 11:40:09,609226
6,4,8,21,31,15,10,7,2021-08-07 11:40:09,625225
-3,-8,-10,-1,1,0,-7,-6,2021-08-07 11:40:09,657226
0,5,4,-3,-12,-8,-4,-2,2021-08-07 11:40:09,673226
-7,-9,-14,-39,-50,-22,-9,-8,2021-08-07 11:40:09,688225
3,2,5,17,28,15,5,4,2021-08-07 11:40:09,704225
-2,-1,0,13,16,4,2,0,2021-08-07 11:40:09,704225
-7,-10,-12,-21,-34,-16,-8,-8,2021-08-07 11:40:09,704225
-2,-3,1,-8,3,3,-4,-3,2021-08-07 11:40:09,704225
1,1,4,12,13,6,3,2,2021-08-07 11:40:09,704225
-1,1,-3,6,2,2,0,0,2021-08-07 11:40:09,704225
1,-3,-2,-11,-14,-5,-1,1,2021-08-07 11:40:09,705226
-5,-2,-6,-14,-16,-7,-5,-7,2021-08-07 11:40:09,705226
4,4,7,17,15,7,4,2,2021-08-07 11:40:09,705226
-3,-3,-3,-10,-14,-4,-1,-2,2021-08-07 11:40:09,705226
-5,-7,-5,-3,0,-3,-2,-3,2021-08-07 11:40:09,705226
-5,-4,-4,1,0,-1,-3,-4,2021-08-07 11:40:09,705226
4,5,3,1,5,3,3,4,2021-08-07 11:40:09,706226
-3,-4,-1,0,-10,-4,-2,-2,2021-08-07 11:40:09,720226
4,8,5,9,6,4,3,1,2021-08-07 11:40:09,720226
-2,-2,1,2,-1,-3,-1,-4,2021-08-07 11:40:09,720226
1,2,1,-13,-10,-2,-1,1,2021-08-07 11:40:09,720226
-3,-5,-13,-18,-14,-8,-5,-3,2021-08-07 11:40:09,736227
-5,-6,-5,8,15,3,0,-1,2021-08-07 11:40:09,736227
-4,-2,2,5,9,4,-1,-1,2021-08-07 11:40:09,736227
3,3,4,8,5,2,3,1,2021-08-07 11:40:09,736227
5,7,11,14,10,4,3,2,2021-08-07 11:40:09,736227
-6,-8,-9,-19,-24,-11,-6,-5,2021-08-07 11:40:09,736227
0,1,0,5,0,-4,-3,-3,2021-08-07 11:40:09,737228
-5,-4,-10,-20,-22,-9,-6,-4,2021-08-07 11:40:09,737228
2,3,6,19,17,10,3,0,2021-08-07 11:40:09,768224
-1,0,4,19,29,7,0,-1,2021-08-07 11:40:09,784226
-4,-3,-4,-9,-10,-2,1,1,2021-08-07 11:40:09,816226
2,1,3,20,15,6,3,3,2021-08-07 11:40:09,816226
-5,-6,-14,-35,-30,-16,-8,-4,2021-08-07 11:40:09,816226
-1,1,3,-1,-17,-1,-1,-1,2021-08-07 11:40:09,816226
8,9,9,27,52,17,6,6,2021-08-07 11:40:09,817228
0,-2,3,10,3,1,1,0,2021-08-07 11:40:09,817228
-2,0,0,0,-3,-2,-2,-2,2021-08-07 11:40:09,817228
-7,-8,-10,-26,-25,-16,-9,-7,2021-08-07 11:40:09,832226
-10,-10,-11,-26,-36,-13,-10,-7,2021-08-07 11:40:09,832226
4,8,10,21,30,11,6,5,2021-08-07 11:40:09,832226
3,5,9,11,14,7,3,2,2021-08-07 11:40:09,848226
-4,-4,-2,1,-3,-3,-4,-5,2021-08-07 11:40:09,848226
1,0,-7,-18,-27,-7,-1,0,2021-08-07 11:40:09,848226
-1,0,-1,-6,0,-3,-3,0,2021-08-07 11:40:09,848226
4,4,10,16,14,4,1,-1,2021-08-07 11:40:09,848226
2,3,-3,-8,-6,-1,1,0,2021-08-07 11:40:09,848226
-6,-10,-8,-21,-16,-9,-5,-4,2021-08-07 11:40:09,848226
-4,-5,-7,-2,4,-3,-2,-2,2021-08-07 11:40:09,849226
-3,-2,-9,-9,1,-2,-1,0,2021-08-07 11:40:09,849226
3,4,7,17,16,8,3,3,2021-08-07 11:40:09,849226
-1,1,2,6,1,1,0,0,2021-08-07 11:40:09,849226
-3,-5,-4,-19,-24,-10,-5,-4,2021-08-07 11:40:09,849226
-2,0,6,9,11,2,1,-1,2021-08-07 11:40:09,879226
-6,-9,-23,-29,-22,-8,-4,-2,2021-08-07 11:40:09,879226
-1,2,2,2,-2,1,-1,0,2021-08-07 11:40:09,879226
3,5,6,22,36,14,5,3,2021-08-07 11:40:09,879226
1,2,6,2,-16,-5,1,2,2021-08-07 11:40:09,911225
-1,0,4,13,12,1,0,-1,2021-08-07 11:40:09,911225
4,6,8,10,15,3,1,0,2021-08-07 11:40:09,911225
0,-1,2,0,-22,-6,-2,-1,2021-08-07 11:40:09,911225
-7,-10,-14,-20,-17,-8,-6,-5,2021-08-07 11:40:09,911225
2,6,8,16,13,4,1,4,2021-08-07 11:40:09,911225
-1,-1,-3,-3,-4,-2,1,1,2021-08-07 11:40:09,912227
-4,0,5,5,14,5,1,-2,2021-08-07 11:40:09,912227
3,2,-3,-3,-7,0,2,2,2021-08-07 11:40:09,943228
-11,-16,-23,-40,-28,-16,-7,-7,2021-08-07 11:40:09,959226
1,3,2,9,11,4,1,2,2021-08-07 11:40:09,959226
0,2,3,4,-7,-1,-1,0,2021-08-07 11:40:09,959226
0,2,1,-5,6,0,-1,-1,2021-08-07 11:40:09,959226
-1,0,5,12,-9,-2,0,-2,2021-08-07 11:40:09,959226
3,4,9,24,29,13,5,4,2021-08-07 11:40:09,959226
-4,-5,-6,-11,-16,-9,-5,-5,2021-08-07 11:40:09,959226
1,0,2,11,6,3,1,1,2021-08-07 11:40:09,974226
1,2,0,-4,4,0,-1,1,2021-08-07 11:40:09,975228
-5,-5,-5,-15,-4,-4,-3,-4,2021-08-07 11:40:09,975228
-2,-3,-8,-11,-14,-6,-3,-2,2021-08-07 11:40:09,975228
-6,-5,-6,-6,-6,-7,-6,-5,2021-08-07 11:40:10,007226
4,7,9,3,7,8,3,4,2021-08-07 11:40:10,007226
2,4,5,7,-1,-1,1,1,2021-08-07 11:40:10,007226
-3,-4,-7,-9,-7,-3,-1,0,2021-08-07 11:40:10,007226
-2,2,3,-6,-6,-4,-2,0,2021-08-07 11:40:10,007226
0,1,5,6,0,-1,-2,-3,2021-08-07 11:40:10,007226
-2,-4,-3,5,1,1,-1,-2,2021-08-07 11:40:10,023228
-8,-13,-25,-35,-23,-11,-6,-6,2021-08-07 11:40:10,023228
-3,-3,-3,-15,-8,-4,-4,-2,2021-08-07 11:40:10,039226
1,-2,-9,-3,-4,-4,-1,0,2021-08-07 11:40:10,039226
3,4,7,13,16,9,5,2,2021-08-07 11:40:10,054224
3,4,8,14,10,4,2,0,2021-08-07 11:40:10,054224
3,3,16,25,29,15,7,4,2021-08-07 11:40:10,054224
-3,-5,-12,-13,-25,-8,-4,-3,2021-08-07 11:40:10,054224
-2,-5,-8,-6,2,-1,0,-2,2021-08-07 11:40:10,054224
0,0,2,1,-2,-2,-2,-3,2021-08-07 11:40:10,055226
-3,2,1,0,-1,-2,-3,-5,2021-08-07 11:40:10,086229
-1,3,10,13,10,2,-2,-4,2021-08-07 11:40:10,086229
-5,-6,-10,-22,-32,-11,-5,-5,2021-08-07 11:40:10,086229
0,1,0,-6,14,4,0,1,2021-08-07 11:40:10,087228
1,-1,5,14,2,-1,-3,0,2021-08-07 11:40:10,102266
6,4,1,1,2,3,5,4,2021-08-07 11:40:10,102266
0,-2,-6,-12,-17,-9,-3,-1,2021-08-07 11:40:10,102266
3,2,6,15,9,5,2,1,2021-08-07 11:40:10,102266
0,-1,1,2,1,2,1,0,2021-08-07 11:40:10,117266
-1,-2,7,3,0,-2,0,-1,2021-08-07 11:40:10,117266
0,1,0,-2,2,0,-2,-2,2021-08-07 11:40:10,117266
-5,-2,-10,-18,-20,-9,-2,-4,2021-08-07 11:40:10,117266
-4,-9,-15,-1,4,1,-2,-2,2021-08-07 11:40:10,148264
-6,-8,-10,-37,-24,-10,-7,-4,2021-08-07 11:40:10,164265
4,6,14,25,28,11,3,4,2021-08-07 11:40:10,180266
1,0,7,20,10,4,1,0,2021-08-07 11:40:10,180266
4,6,8,10,3,2,5,2,2021-08-07 11:40:10,180266
-2,-4,-7,1,-5,-3,-2,-3,2021-08-07 11:40:10,180266
-5,-7,-8,-22,-15,-7,-4,-4,2021-08-07 11:40:10,180266
2,4,4,3,-1,0,1,2,2021-08-07 11:40:10,180266
0,1,5,14,15,9,2,0,2021-08-07 11:40:10,180266
-5,-4,5,5,6,-1,-2,-2,2021-08-07 11:40:10,180266
1,2,-7,-3,-13,-5,-1,0,2021-08-07 11:40:10,181269
0,-1,-4,-13,-5,-3,-3,-1,2021-08-07 11:40:10,181269
-2,-4,-10,-16,-21,-10,-3,-1,2021-08-07 11:40:10,196266
-10,-15,-25,-43,-26,-12,-8,-7,2021-08-07 11:40:10,212265
-7,-10,-11,-3,-1,-5,-6,-4,2021-08-07 11:40:10,212265
2,3,5,3,4,6,3,3,2021-08-07 11:40:10,212265
6,14,27,36,28,10,4,1,2021-08-07 11:40:10,212265
4,6,5,17,9,5,3,3,2021-08-07 11:40:10,212265
-8,-13,-22,-25,-25,-10,-4,-3,2021-08-07 11:40:10,212265
-9,-9,-6,-21,-4,-6,-8,-7,2021-08-07 11:40:10,213267
-4,-6,-22,-24,-20,-8,-3,-3,2021-08-07 11:40:10,242266
-1,1,8,30,37,11,2,-1,2021-08-07 11:40:10,242266
7,12,19,24,13,6,5,5,2021-08-07 11:40:10,242266
2,6,5,7,-4,0,3,2,2021-08-07 11:40:10,242266
-4,-4,-2,-25,-24,-9,-5,-4,2021-08-07 11:40:10,258265
5,9,11,21,22,9,5,4,2021-08-07 11:40:10,274264
-3,-2,-6,-12,-11,-7,-2,-1,2021-08-07 11:40:10,274264
2,1,10,27,24,10,3,1,2021-08-07 11:40:10,274264
-8,-9,-12,-10,0,-4,-4,-2,2021-08-07 11:40:10,290264
2,2,-4,-12,-13,-4,1,1,2021-08-07 11:40:10,290264
-5,-3,-3,-21,-12,-5,-3,-5,2021-08-07 11:40:10,290264
-1,-4,-1,-9,-14,-7,-2,-3,2021-08-07 11:40:10,290264
-4,-9,-24,-25,-18,-7,-2,-1,2021-08-07 11:40:10,290264
-3,-6,-2,16,14,2,-3,-2,2021-08-07 11:40:10,290264
5,7,12,7,0,1,1,3,2021-08-07 11:40:10,290264
-1,0,3,5,3,1,0,-2,2021-08-07 11:40:10,291266
0,1,11,14,-1,0,0,0,2021-08-07 11:40:10,320791
-2,-5,-16,-23,-18,-7,-2,-4,2021-08-07 11:40:10,336791
0,-2,1,7,16,8,2,1,2021-08-07 11:40:10,336791
-2,-4,-9,5,8,-1,-3,-1,2021-08-07 11:40:10,336791
-2,-2,-1,-17,-19,-6,-2,-2,2021-08-07 11:40:10,336791
5,9,14,18,33,13,6,5,2021-08-07 11:40:10,336791
-2,1,5,10,7,1,-1,-1,2021-08-07 11:40:10,336791
3,6,7,12,10,5,0,3,2021-08-07 11:40:10,337792
1,-1,0,-3,-10,-6,-2,-3,2021-08-07 11:40:10,352790
-6,-9,-9,-28,-34,-14,-7,-5,2021-08-07 11:40:10,352790
-3,-12,-27,-36,-26,-11,-5,-4,2021-08-07 11:40:10,352790
0,1,0,-2,6,3,2,0,2021-08-07 11:40:10,352790
4,4,5,20,22,7,4,2,2021-08-07 11:40:10,383791
1,4,5,5,1,3,-1,0,2021-08-07 11:40:10,383791
0,0,7,12,2,2,1,-1,2021-08-07 11:40:10,383791
-2,-3,-6,-1,-9,-6,-4,-2,2021-08-07 11:40:10,383791
-1,-1,-1,-5,-3,-3,-2,-1,2021-08-07 11:40:10,399794
-1,-1,1,6,4,3,0,-1,2021-08-07 11:40:10,415790
8,9,14,24,19,8,5,5,2021-08-07 11:40:10,447790
-3,-8,-10,-21,-17,-7,-2,-3,2021-08-07 11:40:10,447790
-7,-7,-10,-12,-8,-5,-4,-3,2021-08-07 11:40:10,447790
-11,-12,-15,-32,-39,-21,-11,-8,2021-08-07 11:40:10,447790
6,9,15,21,16,11,5,4,2021-08-07 11:40:10,447790
6,8,7,27,40,19,8,5,2021-08-07 11:40:10,447790
3,3,7,9,18,5,2,0,2021-08-07 11:40:10,447790
-1,0,5,10,-6,-4,0,-1,2021-08-07 11:40:10,448792
-2,-1,-2,-3,-9,-8,-5,-3,2021-08-07 11:40:10,448792
-4,-8,-15,-23,-24,-11,-6,-5,2021-08-07 11:40:10,448792
-7,-10,-15,-44,-43,-19,-9,-8,2021-08-07 11:40:10,448792
-4,-4,-1,-1,15,6,-1,-2,2021-08-07 11:40:10,448792
6,7,11,19,22,10,6,5,2021-08-07 11:40:10,463790
2,5,14,38,31,13,4,4,2021-08-07 11:40:10,479790
5,10,19,21,12,7,3,2,2021-08-07 11:40:10,495789
-4,-6,-18,-13,-21,-10,-2,-4,2021-08-07 11:40:10,495789
-5,-10,-23,-31,-10,-4,-3,-4,2021-08-07 11:40:10,495789
-8,-12,-14,-26,-24,-12,-9,-7,2021-08-07 11:40:10,495789
2,0,-5,-6,-4,-2,0,3,2021-08-07 11:40:10,495789
8,14,23,26,22,12,4,5,2021-08-07 11:40:10,511789
0,2,10,18,-1,1,1,0,2021-08-07 11:40:10,543789
-1,1,-1,-3,-5,-3,-1,1,2021-08-07 11:40:10,559790
1,2,2,34,27,11,4,1,2021-08-07 11:40:10,559790
-5,-12,-18,-44,-23,-11,-4,-4,2021-08-07 11:40:10,559790
-6,-4,-8,-15,-10,-7,-4,-3,2021-08-07 11:40:10,559790
-3,-4,-4,-21,-30,-14,-8,-5,2021-08-07 11:40:10,559790
1,1,7,16,7,3,0,0,2021-08-07 11:40:10,559790
2,6,8,24,22,8,2,2,2021-08-07 11:40:10,559790
3,-1,2,7,15,7,4,0,2021-08-07 11:40:10,560790
-4,-4,-5,-10,-16,-4,-1,-2,2021-08-07 11:40:10,560790
-1,-3,-7,-14,-1,-3,-3,-1,2021-08-07 11:40:10,560790
0,0,10,-5,-8,-6,-3,-1,2021-08-07 11:40:10,560790
-4,-3,-11,-7,-9,-3,-4,-3,2021-08-07 11:40:10,560790
0,1,-2,15,8,3,2,0,2021-08-07 11:40:10,560790
-3,-7,-18,-9,11,5,3,-1,2021-08-07 11:40:10,575788
1,4,5,11,12,4,0,0,2021-08-07 11:40:10,575788
6,11,23,31,12,5,4,5,2021-08-07 11:40:10,575788
2,1,3,11,6,0,2,1,2021-08-07 11:40:10,575788
-6,-8,-16,-33,-33,-15,-7,-6,2021-08-07 11:40:10,607790
-4,-3,-6,-23,-16,-7,-2,-2,2021-08-07 11:40:10,607790
-5,-7,-6,-16,-16,-7,-4,-5,2021-08-07 11:40:10,607790
2,0,2,6,7,4,3,0,2021-08-07 11:40:10,607790
2,4,7,11,14,3,0,2,2021-08-07 11:40:10,623789
-2,-2,-8,-2,-3,0,2,-1,2021-08-07 11:40:10,639788
-7,-10,-16,-18,-14,-11,-8,-5,2021-08-07 11:40:10,655791
1,1,-2,-11,-8,-2,1,1,2021-08-07 11:40:10,655791
5,12,26,48,28,12,6,3,2021-08-07 11:40:10,655791
2,0,3,8,-3,0,-1,0,2021-08-07 11:40:10,655791
-2,-3,-13,-20,-18,-6,-2,-2,2021-08-07 11:40:10,655791
-5,-4,-6,-21,-10,-7,-5,-4,2021-08-07 11:40:10,655791
-2,-3,-6,-3,9,4,-1,1,2021-08-07 11:40:10,656789
2,3,9,21,10,4,1,1,2021-08-07 11:40:10,656789
4,6,15,19,24,6,2,1,2021-08-07 11:40:10,656789
-1,-3,-9,-15,-21,-8,-4,-2,2021-08-07 11:40:10,656789
-7,-12,-15,-20,-26,-11,-8,-5,2021-08-07 11:40:10,687789
0,-3,0,-9,5,4,0,0,2021-08-07 11:40:10,687789
2,1,-5,17,23,8,2,4,2021-08-07 11:40:10,687789
1,7,10,5,5,3,1,1,2021-08-07 11:40:10,687789
-7,-4,-6,-17,-26,-14,-6,-6,2021-08-07 11:40:10,687789
1,-2,-13,-10,-9,-6,-1,1,2021-08-07 11:40:10,687789
-1,-3,-1,0,-11,-3,-1,-2,2021-08-07 11:40:10,703791
5,9,17,21,38,14,4,4,2021-08-07 11:40:10,703791
-7,-7,-2,-9,-17,-8,-6,-5,2021-08-07 11:40:10,734790
4,6,-2,12,14,10,4,4,2021-08-07 11:40:10,734790
-10,-12,-17,-44,-40,-18,-9,-6,2021-08-07 11:40:10,734790
-3,-6,-10,-6,-7,-6,-5,-1,2021-08-07 11:40:10,734790
1,0,2,-3,4,1,1,1,2021-08-07 11:40:10,734790
4,3,9,12,6,3,3,2,2021-08-07 11:40:10,734790
0,1,9,23,9,4,3,2,2021-08-07 11:40:10,734790
2,3,3,4,7,2,2,0,2021-08-07 11:40:10,734790
0,2,-1,-7,-1,-1,2,0,2021-08-07 11:40:10,750789
-3,-1,0,6,1,-2,-1,-3,2021-08-07 11:40:10,750789
3,3,6,6,-1,-1,-1,1,2021-08-07 11:40:10,766791
-7,-12,-19,-27,-25,-9,-6,-6,2021-08-07 11:40:10,766791
2,4,19,35,33,12,3,2,2021-08-07 11:40:10,782791
8,11,16,25,11,6,5,5,2021-08-07 11:40:10,782791
2,-2,-9,-6,0,2,2,0,2021-08-07 11:40:10,782791
-11,-19,-36,-65,-54,-26,-10,-7,2021-08-07 11:40:10,782791
-3,-4,-14,-23,-12,-5,-4,-2,2021-08-07 11:40:10,798788
-1,0,2,14,12,6,0,0,2021-08-07 11:40:10,798788
0,6,19,28,26,9,2,0,2021-08-07 11:40:10,798788
8,10,17,28,12,9,6,7,2021-08-07 11:40:10,798788
1,-1,4,5,5,2,1,1,2021-08-07 11:40:10,814791
-3,-5,-1,-5,-1,-5,-5,-4,2021-08-07 11:40:10,814791
0,0,-7,-5,-6,-2,0,-2,2021-08-07 11:40:10,814791
-5,-5,-2,-13,-8,-5,-3,-4,2021-08-07 11:40:10,814791
-5,-6,-15,-21,-4,-5,-4,-3,2021-08-07 11:40:10,846789
2,0,1,-8,-12,-4,-1,1,2021-08-07 11:40:10,862791
1,2,4,8,7,2,2,0,2021-08-07 11:40:10,878790
1,2,10,23,21,9,2,0,2021-08-07 11:40:10,878790
3,9,12,27,11,5,2,1,2021-08-07 11:40:10,878790
-6,-9,-15,-9,-2,-1,-2,-2,2021-08-07 11:40:10,878790
-6,-6,-13,-33,-28,-14,-8,-5,2021-08-07 11:40:10,878790
-3,-2,0,-9,-16,-6,-3,-1,2021-08-07 11:40:10,878790
-1,-6,-12,-19,-24,-5,-4,-2,2021-08-07 11:40:10,879789
2,2,5,13,29,9,4,2,2021-08-07 11:40:10,879789
1,1,6,8,7,3,1,0,2021-08-07 11:40:10,879789
1,7,10,18,3,2,1,0,2021-08-07 11:40:10,879789
2,2,2,5,-6,-4,-1,2,2021-08-07 11:40:10,893790
-2,-3,-5,-14,-7,-4,-3,-1,2021-08-07 11:40:10,894792
-1,-8,-6,-14,2,2,-1,1,2021-08-07 11:40:10,894792
4,1,-5,7,24,8,4,5,2021-08-07 11:40:10,894792
-8,-14,-20,-26,-22,-9,-6,-8,2021-08-07 11:40:10,926789
-5,-4,4,-2,-17,-11,-6,-6,2021-08-07 11:40:10,942790
-6,-3,-5,-8,-10,-5,-5,-5,2021-08-07 11:40:10,958790
10,12,15,20,21,13,7,5,2021-08-07 11:40:10,958790
5,10,15,24,14,5,4,3,2021-08-07 11:40:10,958790
-3,-6,-7,-18,-33,-15,-6,-3,2021-08-07 11:40:10,958790
3,2,7,16,15,6,3,3,2021-08-07 11:40:10,958790
2,4,9,30,28,12,2,2,2021-08-07 11:40:10,958790
-4,-11,-16,-18,-1,0,0,-2,2021-08-07 11:40:10,974790
-3,-5,-15,-17,-1,0,-1,-1,2021-08-07 11:40:10,990789
-4,-2,1,-18,-25,-12,-5,-3,2021-08-07 11:40:11,005791
1,1,5,4,-1,-5,-1,-1,2021-08-07 11:40:11,005791
3,9,15,23,9,4,3,3,2021-08-07 11:40:11,006790
-8,-12,-24,-26,-21,-10,-5,-6,2021-08-07 11:40:11,006790
-5,-8,-6,-23,-14,-5,-4,-3,2021-08-07 11:40:11,006790
-1,-2,-12,-8,-5,0,-1,-2,2021-08-07 11:40:11,006790
8,11,15,20,22,9,4,4,2021-08-07 11:40:11,006790
-2,-1,-1,-8,-18,-6,0,-2,2021-08-07 11:40:11,006790
4,3,5,27,30,11,6,4,2021-08-07 11:40:11,006790
0,-1,6,22,25,6,1,-1,2021-08-07 11:40:11,007791
0,-1,0,2,-12,-5,-4,-3,2021-08-07 11:40:11,007791
-1,2,2,3,4,2,-1,0,2021-08-07 11:40:11,007791
0,0,0,-9,-12,-5,-2,-1,2021-08-07 11:40:11,037789
-12,-14,-15,-28,-36,-17,-10,-9,2021-08-07 11:40:11,053790
5,7,0,-12,-10,-4,1,4,2021-08-07 11:40:11,069833
5,6,10,27,32,13,6,4,2021-08-07 11:40:11,069833
-2,-2,-2,-6,-12,-6,-3,-2,2021-08-07 11:40:11,099833
-7,-10,-14,-22,-23,-11,-6,-6,2021-08-07 11:40:11,099833
-8,-14,-25,-46,-16,-8,-6,-8,2021-08-07 11:40:11,099833
3,4,14,24,22,7,0,2,2021-08-07 11:40:11,099833
3,7,12,31,20,8,3,3,2021-08-07 11:40:11,099833
7,10,17,34,23,13,8,8,2021-08-07 11:40:11,099833
-4,-6,-13,-23,-24,-7,-3,-2,2021-08-07 11:40:11,100831
-10,-13,-16,-28,-15,-11,-8,-8,2021-08-07 11:40:11,100831
-3,-6,-16,-29,-28,-15,-6,-4,2021-08-07 11:40:11,100831
8,12,17,30,30,15,7,5,2021-08-07 11:40:11,100831
6,9,18,40,37,13,6,4,2021-08-07 11:40:11,100831
2,2,6,10,-1,3,2,0,2021-08-07 11:40:11,115830
0,-2,4,-3,-8,-3,1,0,2021-08-07 11:40:11,145830
-11,-15,-29,-56,-56,-24,-11,-9,2021-08-07 11:40:11,161829
0,-2,0,8,22,8,2,1,2021-08-07 11:40:11,161829
-4,-5,-10,-5,9,0,-3,-4,2021-08-07 11:40:11,161829
-4,-1,1,-4,-20,-7,-5,-4,2021-08-07 11:40:11,161829
4,4,7,18,12,3,1,1,2021-08-07 11:40:11,177829
-2,-2,-3,-3,-1,-3,-2,-3,2021-08-07 11:40:11,193829
10,15,11,-6,-5,3,6,8,2021-08-07 11:40:11,209830
-9,-14,-21,-17,-5,-5,-6,-8,2021-08-07 11:40:11,224832
-3,-6,-5,-9,-10,-6,-4,-1,2021-08-07 11:40:11,224832
-1,0,6,20,20,5,2,-1,2021-08-07 11:40:11,224832
-2,0,4,20,7,2,-1,1,2021-08-07 11:40:11,224832
-2,0,-5,-7,-1,0,-1,-2,2021-08-07 11:40:11,224832
10,14,15,8,-3,1,4,7,2021-08-07 11:40:11,224832
2,1,3,4,0,3,0,0,2021-08-07 11:40:11,225831
-4,-8,-16,-19,-8,-7,-4,-4,2021-08-07 11:40:11,225831
0,1,13,11,10,7,1,0,2021-08-07 11:40:11,225831
-8,-12,-19,-14,3,-3,-5,-6,2021-08-07 11:40:11,225831
-1,0,-4,-9,-22,-6,-2,-1,2021-08-07 11:40:11,225831
-2,-1,-2,-13,-15,-6,-4,-3,2021-08-07 11:40:11,225831
1,0,-6,10,15,4,2,0,2021-08-07 11:40:11,225831
-7,-7,-4,-16,-13,-6,-5,-4,2021-08-07 11:40:11,225831
-7,-5,-1,-4,-5,-3,-4,-3,2021-08-07 11:40:11,226831
6,12,14,17,9,7,4,5,2021-08-07 11:40:11,226831
-3,-2,0,6,4,0,-1,-2,2021-08-07 11:40:11,226831
-3,-6,-8,-3,1,-2,-3,-4,2021-08-07 11:40:11,226831
10,10,11,8,6,5,6,6,2021-08-07 11:40:11,240829
-1,2,2,3,-2,-2,-2,-1,2021-08-07 11:40:11,256831
6,4,4,8,9,5,4,3,2021-08-07 11:40:11,272831
8,9,6,7,7,6,4,5,2021-08-07 11:40:11,273074
-9,-13,-19,-21,-16,-10,-8,-7,2021-08-07 11:40:11,273074
1,-1,2,0,-5,0,1,0,2021-08-07 11:40:11,273074
-3,-1,-2,-8,-6,-6,-4,-4,2021-08-07 11:40:11,273074
-4,-4,3,9,9,1,-2,-3,2021-08-07 11:40:11,273074
2,-2,4,18,24,8,3,2,2021-08-07 11:40:11,273830
-3,-3,-4,-2,-5,-3,-2,-1,2021-08-07 11:40:11,273830
-5,-5,-10,-19,-27,-11,-6,-3,2021-08-07 11:40:11,273830
-4,-2,-1,-1,-2,0,-3,-3,2021-08-07 11:40:11,273830
4,7,9,18,16,8,3,1,2021-08-07 11:40:11,304352
-1,-4,-5,0,11,1,1,-2,2021-08-07 11:40:11,304352
-2,-3,-9,-21,-17,-8,-2,-2,2021-08-07 11:40:11,304352
-5,-5,-10,-37,-37,-16,-6,-5,2021-08-07 11:40:11,304352
-7,-9,-9,-21,-26,-14,-8,-6,2021-08-07 11:40:11,320352
2,0,0,-8,-1,2,-1,3,2021-08-07 11:40:11,320352
4,6,13,43,31,13,3,1,2021-08-07 11:40:11,336352
1,3,0,-6,-8,-3,-1,2,2021-08-07 11:40:11,336352
-3,-5,-14,-14,8,1,1,-2,2021-08-07 11:40:11,336352
-7,-8,-1,-11,-27,-13,-8,-7,2021-08-07 11:40:11,352352
7,11,9,14,29,14,7,8,2021-08-07 11:40:11,352352
-2,0,3,16,9,5,-1,-2,2021-08-07 11:40:11,352352
5,8,11,19,-8,-2,0,3,2021-08-07 11:40:11,360355
-4,-3,-6,-15,3,-2,-1,-2,2021-08-07 11:40:11,360355
-1,-3,-2,-12,-7,1,-1,0,2021-08-07 11:40:11,361352
-1,-5,-2,0,18,3,1,-2,2021-08-07 11:40:11,361352
-5,-8,-15,-9,-17,-8,-3,-3,2021-08-07 11:40:11,384352
-1,-2,-3,-6,-10,-4,-3,-2,2021-08-07 11:40:11,384352
1,3,8,22,15,3,0,-1,2021-08-07 11:40:11,384352
3,3,6,4,4,2,1,1,2021-08-07 11:40:11,384352
-7,-6,-4,-10,-14,-7,-5,-5,2021-08-07 11:40:11,399352
1,2,4,7,11,3,1,1,2021-08-07 11:40:11,399352
-3,-4,-7,-4,8,-1,-1,-4,2021-08-07 11:40:11,415351
-2,0,-4,-5,-13,-5,-2,-3,2021-08-07 11:40:11,415351
-4,-5,-8,-33,-17,-6,-2,-2,2021-08-07 11:40:11,415351
2,3,5,35,35,12,5,1,2021-08-07 11:40:11,430352
0,-1,-2,-7,-6,-3,-2,-3,2021-08-07 11:40:11,478352
-2,-4,-3,-4,-11,-6,-3,-2,2021-08-07 11:40:11,494352
-2,-4,-5,-8,-1,-3,-3,-2,2021-08-07 11:40:11,510351
1,1,1,-3,-3,1,1,1,2021-08-07 11:40:11,510351
1,2,1,-6,3,1,1,0,2021-08-07 11:40:11,510351
2,7,8,11,9,4,3,2,2021-08-07 11:40:11,511353
0,-1,7,20,9,2,0,0,2021-08-07 11:40:11,511353
-6,-6,-11,-14,-12,-2,-1,-4,2021-08-07 11:40:11,511353
-4,-5,-11,-36,-29,-11,-3,-2,2021-08-07 11:40:11,511353
1,-1,0,5,10,4,0,2,2021-08-07 11:40:11,511353
2,6,10,11,6,2,1,2,2021-08-07 11:40:11,511353
6,5,9,29,22,9,5,3,2021-08-07 11:40:11,511353
-10,-16,-18,-16,-28,-15,-7,-8,2021-08-07 11:40:11,511353
1,1,-5,-39,-43,-15,-6,-2,2021-08-07 11:40:11,512354
2,1,2,13,19,7,4,2,2021-08-07 11:40:11,512354
5,7,12,31,29,13,4,2,2021-08-07 11:40:11,512354
0,0,0,3,19,6,1,2,2021-08-07 11:40:11,512354
-2,-3,-5,0,2,-3,-1,-3,2021-08-07 11:40:11,512354
-4,-3,-4,-14,-24,-12,-7,-6,2021-08-07 11:40:11,512354
-17,-25,-28,-49,-56,-26,-15,-12,2021-08-07 11:40:11,512354
17,25,22,19,23,12,10,14,2021-08-07 11:40:11,512354
5,7,14,50,59,24,10,4,2021-08-07 11:40:11,513355
-5,-6,-5,-19,-31,-12,-5,-6,2021-08-07 11:40:11,542353
2,5,14,9,23,8,3,2,2021-08-07 11:40:11,542353
-2,-5,-9,14,7,3,-1,-2,2021-08-07 11:40:11,542353
-4,-7,-13,-16,-14,-7,-3,-1,2021-08-07 11:40:11,542353
-11,-12,-16,-33,-19,-14,-8,-8,2021-08-07 11:40:11,558351
1,3,-1,-16,-21,-8,-4,1,2021-08-07 11:40:11,574352
1,2,5,3,-11,-2,-1,1,2021-08-07 11:40:11,574352
-2,-2,-2,-8,5,3,-1,-3,2021-08-07 11:40:11,574352
-1,-2,-4,-8,-10,-2,0,0,2021-08-07 11:40:11,574352
-1,-1,8,16,11,4,1,-1,2021-08-07 11:40:11,574352
10,14,19,25,27,11,8,6,2021-08-07 11:40:11,574352
-1,-2,1,7,4,3,1,0,2021-08-07 11:40:11,574352
0,0,-4,9,18,3,2,1,2021-08-07 11:40:11,606352
-2,-3,-5,-7,-13,-8,-2,-3,2021-08-07 11:40:11,606352
-4,-2,-6,-8,-13,-5,-4,-4,2021-08-07 11:40:11,606352
-1,-6,-1,-18,-12,-4,0,-1,2021-08-07 11:40:11,606352
6,11,13,27,25,12,4,6,2021-08-07 11:40:11,606352
2,3,3,13,14,6,3,0,2021-08-07 11:40:11,607352
-8,-12,-18,-31,-44,-20,-9,-7,2021-08-07 11:40:11,621352
0,3,12,20,16,5,1,-1,2021-08-07 11:40:11,621352
1,2,7,1,7,2,0,-1,2021-08-07 11:40:11,637352
-5,-8,-19,-16,-14,-8,-7,-4,2021-08-07 11:40:11,637352
3,2,10,12,20,13,4,2,2021-08-07 11:40:11,637352
-3,-2,-4,-6,-20,-11,-6,-2,2021-08-07 11:40:11,637352
-1,-4,0,10,9,3,0,0,2021-08-07 11:40:11,669350
2,5,0,-10,-1,2,1,1,2021-08-07 11:40:11,669350
1,1,2,-13,-15,-6,-1,2,2021-08-07 11:40:11,669350
-4,-4,-14,-9,-13,-10,-7,-4,2021-08-07 11:40:11,669350
-2,-1,7,18,10,6,1,-2,2021-08-07 11:40:11,669350
-4,-6,-5,-8,-5,-2,-3,-1,2021-08-07 11:40:11,669350
4,8,11,15,17,9,5,0,2021-08-07 11:40:11,684351
0,0,0,-6,-2,-1,-1,0,2021-08-07 11:40:11,684351
-2,-8,-18,-24,-23,-9,-5,-1,2021-08-07 11:40:11,700354
-8,-12,-23,-33,-42,-21,-11,-10,2021-08-07 11:40:11,700354
0,0,0,11,10,5,2,2,2021-08-07 11:40:11,700354
7,12,22,32,38,17,8,4,2021-08-07 11:40:11,700354
-3,-1,4,4,-10,-6,-2,-4,2021-08-07 11:40:11,731353
3,4,7,15,13,8,6,4,2021-08-07 11:40:11,747350
-9,-10,-13,-53,-46,-24,-10,-7,2021-08-07 11:40:11,778352
-4,-4,-10,13,21,6,1,0,2021-08-07 11:40:11,794351
7,8,10,17,21,10,5,5,2021-08-07 11:40:11,815352
1,3,5,1,-10,-5,-2,0,2021-08-07 11:40:11,815352
-3,-6,-2,12,1,1,-2,-3,2021-08-07 11:40:11,815352
7,7,6,11,25,10,7,6,2021-08-07 11:40:11,815352
4,5,0,-16,-9,-3,0,0,2021-08-07 11:40:11,815352
-3,-2,3,-10,-26,-12,-2,-1,2021-08-07 11:40:11,815352
-8,-14,-16,-28,-18,-10,-8,-7,2021-08-07 11:40:11,816356
-2,-4,3,31,38,14,3,0,2021-08-07 11:40:11,816356
2,6,2,4,14,8,1,2,2021-08-07 11:40:11,816356
-5,0,0,-9,-10,-7,-5,-4,2021-08-07 11:40:11,816356
-3,-3,-7,-28,-56,-25,-9,-3,2021-08-07 11:40:11,816356
0,-2,4,13,-5,-1,0,-1,2021-08-07 11:40:11,816356
4,2,11,31,40,15,5,3,2021-08-07 11:40:11,816356
6,4,4,22,39,18,7,4,2021-08-07 11:40:11,817352
1,-1,-4,-15,-3,1,2,1,2021-08-07 11:40:11,817352
-8,-10,-13,-13,-13,-7,-7,-6,2021-08-07 11:40:11,817352
-10,-12,-20,-61,-85,-37,-15,-9,2021-08-07 11:40:11,817352
10,11,22,47,50,24,11,7,2021-08-07 11:40:11,817352
7,11,19,55,65,26,9,4,2021-08-07 11:40:11,817352
-7,-5,-13,-33,-38,-18,-8,-7,2021-08-07 11:40:11,817352
-3,-2,-7,-12,-15,-3,-4,-3,2021-08-07 11:40:11,842353
-8,-11,-18,-52,-58,-28,-11,-8,2021-08-07 11:40:11,842353
2,3,8,29,29,11,3,3,2021-08-07 11:40:11,842353
-2,1,4,3,6,2,0,-1,2021-08-07 11:40:11,842353
-2,-3,-3,-5,9,3,0,1,2021-08-07 11:40:11,858352
0,-2,-15,-24,-16,-2,-3,-2,2021-08-07 11:40:11,858352
-3,-2,-6,-11,-24,-13,-4,-4,2021-08-07 11:40:11,858352
11,12,18,28,34,12,7,7,2021-08-07 11:40:11,858352
1,-2,5,33,34,12,3,0,2021-08-07 11:40:11,890352
-1,-1,2,-8,-2,-1,0,2,2021-08-07 11:40:11,890352
-8,-9,-11,-30,-26,-11,-7,-7,2021-08-07 11:40:11,890352
-9,-10,-16,-36,-40,-14,-7,-4,2021-08-07 11:40:11,890352
10,13,21,51,66,25,11,9,2021-08-07 11:40:11,922353
6,7,13,39,37,14,5,2,2021-08-07 11:40:11,938392
-5,-7,-10,-27,-35,-19,-7,-4,2021-08-07 11:40:11,938392
-10,-14,-22,-50,-48,-18,-11,-7,2021-08-07 11:40:11,938392
4,8,20,51,48,15,6,3,2021-08-07 11:40:11,938392
-1,1,5,21,10,4,1,0,2021-08-07 11:40:11,938392
-4,-2,-7,3,7,2,-3,-2,2021-08-07 11:40:11,939394
-3,-4,-19,-58,-45,-19,-7,-2,2021-08-07 11:40:11,939394
-10,-12,-19,-43,-34,-13,-9,-7,2021-08-07 11:40:11,939394
-3,-2,-1,2,9,1,-1,-2,2021-08-07 11:40:11,939394
2,2,5,15,6,0,-1,-1,2021-08-07 11:40:11,939394
3,4,11,26,4,0,1,1,2021-08-07 11:40:11,939394
-2,-3,-10,-22,-32,-12,-4,-3,2021-08-07 11:40:11,969392
2,5,7,3,17,6,4,2,2021-08-07 11:40:11,985392
-5,-10,-11,-4,9,0,-2,-2,2021-08-07 11:40:11,985392
3,4,10,17,17,8,3,3,2021-08-07 11:40:11,985392
-5,-5,-8,-24,-38,-19,-7,-5,2021-08-07 11:40:11,985392
0,1,2,3,-22,-6,-2,0,2021-08-07 11:40:11,985392
9,10,17,53,76,33,13,8,2021-08-07 11:40:11,985392
-5,-7,-12,-23,-17,-10,-6,-6,2021-08-07 11:40:11,986392
-6,-8,-9,-18,-25,-12,-6,-4,2021-08-07 11:40:12,001394
-5,-5,-4,-1,6,0,-3,-3,2021-08-07 11:40:12,017391
0,2,-1,3,-3,-1,-1,0,2021-08-07 11:40:12,017391
0,2,6,10,7,2,1,2,2021-08-07 11:40:12,017391
-1,-1,-9,-21,-27,-8,-4,-1,2021-08-07 11:40:12,018393
1,0,-8,-17,-9,-7,-2,-2,2021-08-07 11:40:12,018393
4,2,8,14,17,6,2,2,2021-08-07 11:40:12,018393
-6,-3,-3,-7,-24,-8,-4,-6,2021-08-07 11:40:12,018393
4,3,8,23,43,18,6,4,2021-08-07 11:40:12,049392
-2,-4,-7,-4,-4,-5,-1,-2,2021-08-07 11:40:12,049392
-13,-15,-24,-50,-46,-17,-10,-9,2021-08-07 11:40:12,049392
10,14,25,37,49,19,9,7,2021-08-07 11:40:12,049392
0,2,1,26,23,8,3,2,2021-08-07 11:40:12,065390
1,1,3,-5,-16,-8,-3,1,2021-08-07 11:40:12,065390
0,-1,-1,20,15,7,0,-3,2021-08-07 11:40:12,065390
-7,-9,-15,-19,-4,0,-3,-5,2021-08-07 11:40:12,065390
1,4,5,-3,-4,-1,0,0,2021-08-07 11:40:12,081392
3,5,8,8,-3,-3,0,1,2021-08-07 11:40:12,081392
-1,-3,-2,-12,-16,-8,-3,0,2021-08-07 11:40:12,081392
-3,-5,-10,-12,-9,-4,-4,-2,2021-08-07 11:40:12,081392
1,1,5,12,18,7,4,2,2021-08-07 11:40:12,112393
-6,-9,-11,-18,-18,-9,-5,-5,2021-08-07 11:40:12,112393
7,10,15,17,1,-1,2,5,2021-08-07 11:40:12,112393
4,3,8,16,5,-1,2,0,2021-08-07 11:40:12,112393
-1,-3,-14,-21,-19,-9,-2,-2,2021-08-07 11:40:12,113394
-8,-12,-16,-46,-27,-7,-6,-3,2021-08-07 11:40:12,113394
1,4,5,32,54,17,5,2,2021-08-07 11:40:12,128392
-3,-3,-7,-13,-35,-14,-8,-5,2021-08-07 11:40:12,128392
5,8,19,35,40,17,7,6,2021-08-07 11:40:12,144395
12,16,25,39,36,18,8,8,2021-08-07 11:40:12,159909
0,0,1,3,-19,-6,0,-2,2021-08-07 11:40:12,175910
-4,-9,-26,-33,1,-2,-2,-4,2021-08-07 11:40:12,191913
-8,-12,-20,-40,-24,-12,-7,-8,2021-08-07 11:40:12,191913
1,2,5,18,26,10,3,2,2021-08-07 11:40:12,191913
-1,1,1,-10,-14,-4,-2,-2,2021-08-07 11:40:12,191913
-1,2,8,11,-20,-10,-4,-2,2021-08-07 11:40:12,191913
1,0,-2,-10,-21,-4,1,2,2021-08-07 11:40:12,191913
3,7,16,49,63,21,7,3,2021-08-07 11:40:12,191913
2,3,1,-3,-5,1,2,1,2021-08-07 11:40:12,191913
-11,-14,-19,-30,-25,-13,-8,-7,2021-08-07 11:40:12,192911
-5,-7,-6,-44,-36,-16,-9,-6,2021-08-07 11:40:12,207911
-7,-7,-21,-16,-11,-6,-5,-4,2021-08-07 11:40:12,207911
1,1,10,37,33,11,1,1,2021-08-07 11:40:12,207911
4,7,18,30,27,9,6,5,2021-08-07 11:40:12,207911
8,13,16,15,5,6,4,3,2021-08-07 11:40:12,223908
0,-3,-11,-27,-30,-10,-3,-2,2021-08-07 11:40:12,223908
-11,-20,-41,-73,-56,-22,-12,-11,2021-08-07 11:40:12,223908
0,0,11,33,52,19,5,1,2021-08-07 11:40:12,223908
-6,-6,-11,12,0,-1,-4,-2,2021-08-07 11:40:12,238912
0,4,7,3,-18,-6,-1,-1,2021-08-07 11:40:12,238912
4,8,9,9,6,1,4,3,2021-08-07 11:40:12,238912
3,2,8,13,20,11,5,3,2021-08-07 11:40:12,238912
0,-1,1,2,4,-1,-1,-1,2021-08-07 11:40:12,264909
-1,-1,-7,-21,-32,-10,-4,-2,2021-08-07 11:40:12,264909
-5,-8,-10,-16,6,-2,-3,-1,2021-08-07 11:40:12,264909
-4,-2,3,2,-10,-7,-6,-3,2021-08-07 11:40:12,264909
6,8,16,31,19,8,3,5,2021-08-07 11:40:12,285909
0,-4,-9,-12,-8,-3,0,-2,2021-08-07 11:40:12,300908
-13,-20,-29,-72,-65,-28,-14,-10,2021-08-07 11:40:12,300908
2,2,-1,-9,7,2,1,1,2021-08-07 11:40:12,300908
2,6,13,40,38,16,6,4,2021-08-07 11:40:12,300908
1,2,10,24,18,6,3,1,2021-08-07 11:40:12,301910
7,11,19,26,8,9,6,4,2021-08-07 11:40:12,301910
-9,-10,-21,-43,-54,-24,-11,-8,2021-08-07 11:40:12,301910
-5,-9,-13,-14,-4,-4,-4,-6,2021-08-07 11:40:12,331908
3,3,15,30,42,14,2,1,2021-08-07 11:40:12,347910
-3,-2,-8,12,20,7,1,-3,2021-08-07 11:40:12,347910
1,1,5,3,-9,-3,-1,-1,2021-08-07 11:40:12,347910
-1,2,-1,-27,-47,-17,-6,-2,2021-08-07 11:40:12,347910
1,0,-2,6,11,7,3,2,2021-08-07 11:40:12,347910
4,3,1,6,21,4,3,1,2021-08-07 11:40:12,347910
2,2,3,10,1,1,1,0,2021-08-07 11:40:12,347910
-2,-2,1,1,-2,1,-1,-4,2021-08-07 11:40:12,362910
-5,-6,-7,-4,-16,-9,-3,-4,2021-08-07 11:40:12,378909
-3,-5,-2,-16,3,-1,-1,-1,2021-08-07 11:40:12,410910
2,4,-2,-5,-2,1,1,1,2021-08-07 11:40:12,410910
6,5,13,19,25,11,6,4,2021-08-07 11:40:12,410910
0,-1,-12,-16,-16,-8,-3,-1,2021-08-07 11:40:12,410910
1,2,6,20,15,7,4,3,2021-08-07 11:40:12,410910
-6,-10,-10,-16,-19,-12,-6,-5,2021-08-07 11:40:12,410910
-4,-5,-11,-20,-13,-6,-4,-2,2021-08-07 11:40:12,411912
-1,3,6,0,-17,-6,-2,0,2021-08-07 11:40:12,411912
3,5,11,29,29,12,3,0,2021-08-07 11:40:12,442910
-3,-7,-18,-7,3,1,-2,-2,2021-08-07 11:40:12,442910
-3,-3,1,-14,-30,-10,-4,-1,2021-08-07 11:40:12,442910
6,4,0,5,20,4,2,2,2021-08-07 11:40:12,442910
1,4,10,9,0,2,2,2,2021-08-07 11:40:12,458908
-1,1,6,12,16,4,-1,0,2021-08-07 11:40:12,474909
-7,-15,-27,-36,-37,-16,-8,-7,2021-08-07 11:40:12,490912
1,4,6,7,9,6,4,2,2021-08-07 11:40:12,522910
1,2,1,3,4,0,-1,1,2021-08-07 11:40:12,522910
4,3,5,11,-1,-1,1,1,2021-08-07 11:40:12,522910
-1,-1,2,3,-5,-4,-2,-2,2021-08-07 11:40:12,522910
-3,-5,-3,-17,3,-1,-3,-4,2021-08-07 11:40:12,522910
2,1,4,27,22,8,2,1,2021-08-07 11:40:12,522910
-2,2,5,-4,-12,-4,-1,-2,2021-08-07 11:40:12,522910
-4,-3,-9,-11,-4,-4,-2,-2,2021-08-07 11:40:12,522910
-6,-8,-8,-9,-13,-5,-5,-6,2021-08-07 11:40:12,522910
-3,-3,-14,-30,-30,-11,-5,-3,2021-08-07 11:40:12,523910
-6,-9,-8,-20,-9,-5,-5,-4,2021-08-07 11:40:12,523910
7,9,12,24,23,14,7,5,2021-08-07 11:40:12,523910
6,11,24,46,50,19,8,6,2021-08-07 11:40:12,523910
5,5,9,9,-10,-4,0,4,2021-08-07 11:40:12,523910
2,-2,-6,4,10,4,2,3,2021-08-07 11:40:12,523910
-11,-12,-20,-53,-37,-17,-11,-9,2021-08-07 11:40:12,523910
-11,-19,-32,-28,-24,-13,-10,-9,2021-08-07 11:40:12,523910
-2,0,7,4,-8,-4,-4,-1,2021-08-07 11:40:12,523910
9,13,10,21,16,9,6,8,2021-08-07 11:40:12,524910
4,5,10,29,31,10,4,0,2021-08-07 11:40:12,537910
-2,-3,-1,-18,-13,-5,-3,-4,2021-08-07 11:40:12,537910
-4,-4,-6,-14,-29,-13,-5,-5,2021-08-07 11:40:12,553910
-3,-4,1,15,23,7,1,-1,2021-08-07 11:40:12,553910
-1,0,3,-4,-13,-5,-2,1,2021-08-07 11:40:12,569908
4,4,0,5,11,7,2,3,2021-08-07 11:40:12,569908
0,-5,-11,-6,5,-3,-1,1,2021-08-07 11:40:12,569908
-5,-7,-9,-30,-27,-7,-3,-4,2021-08-07 11:40:12,569908
-2,-5,-4,5,14,5,-2,0,2021-08-07 11:40:12,585910
-6,-6,-4,7,-5,-2,-1,-1,2021-08-07 11:40:12,585910
1,4,12,17,17,6,3,-1,2021-08-07 11:40:12,585910
6,15,30,50,31,12,6,2,2021-08-07 11:40:12,585910
0,0,-8,-9,-11,-5,-2,-3,2021-08-07 11:40:12,601910
-5,-8,-23,-51,-46,-18,-8,-5,2021-08-07 11:40:12,601910
-12,-14,-14,-40,-29,-18,-13,-8,2021-08-07 11:40:12,601910
2,2,3,12,22,8,3,2,2021-08-07 11:40:12,601910
-1,-1,4,8,6,2,1,0,2021-08-07 11:40:12,633947
3,3,3,23,1,2,2,2,2021-08-07 11:40:12,633947
5,8,9,10,20,11,6,2,2021-08-07 11:40:12,633947
-2,-2,-3,-1,-3,-4,-2,-3,2021-08-07 11:40:12,633947
1,1,0,5,-1,1,2,1,2021-08-07 11:40:12,649909
0,3,7,2,7,1,0,1,2021-08-07 11:40:12,649909
0,-3,-5,-6,-19,-6,-2,0,2021-08-07 11:40:12,649909
-1,-3,0,1,3,3,1,0,2021-08-07 11:40:12,649909
1,4,6,-1,10,5,1,-1,2021-08-07 11:40:12,649909
-4,-9,-12,-8,-25,-11,-6,-4,2021-08-07 11:40:12,649909
-12,-15,-27,-51,-41,-18,-11,-10,2021-08-07 11:40:12,665908
7,14,11,11,31,13,5,6,2021-08-07 11:40:12,665908
1,-2,2,8,2,-1,-1,-1,2021-08-07 11:40:12,681908
4,6,11,4,-5,-1,1,0,2021-08-07 11:40:12,681908
3,2,13,32,17,7,3,3,2021-08-07 11:40:12,681908
-4,-9,-12,-27,-25,-12,-5,-3,2021-08-07 11:40:12,681908
3,7,9,23,18,5,3,1,2021-08-07 11:40:12,699908
-3,-3,-3,-7,1,2,-1,-1,2021-08-07 11:40:12,699908
