EMG 1,EMG 2,EMG 3,EMG 4,EMG 5,EMG 6,EMG 7,EMG 8,Timestamp,Milliseconds
1,-1,0,7,17,7,4,1,2021-08-07 11:39:25,936506
-1,-1,-2,-7,-6,-3,-2,0,2021-08-07 11:39:25,936506
-5,-5,-3,0,-6,-5,-5,-5,2021-08-07 11:39:25,936506
5,5,3,0,-3,1,3,2,2021-08-07 11:39:25,936506
1,1,-1,-4,-6,1,0,0,2021-08-07 11:39:25,936506
0,0,2,7,9,7,7,0,2021-08-07 11:39:25,936506
-3,-3,-4,-5,-3,1,-4,0,2021-08-07 11:39:25,936506
-9,-8,-7,-8,-7,-11,-11,-7,2021-08-07 11:39:25,936506
2,5,6,-1,-5,-5,-2,-1,2021-08-07 11:39:25,952533
0,-2,-5,-4,-4,-1,0,1,2021-08-07 11:39:25,968507
1,2,-4,-18,-17,-1,3,1,2021-08-07 11:39:25,968507
4,3,8,29,32,18,11,4,2021-08-07 11:39:25,968507
2,1,0,-4,-3,0,1,3,2021-08-07 11:39:25,984508
-4,-5,-2,-1,0,-5,-7,-8,2021-08-07 11:39:25,984508
-6,-4,-3,-1,-7,-9,-8,-9,2021-08-07 11:39:25,984508
-6,-6,-11,-28,-24,-12,-2,-2,2021-08-07 11:39:25,984508
4,4,8,25,30,17,3,3,2021-08-07 11:39:25,984508
-2,1,0,-3,-2,-6,-10,-6,2021-08-07 11:39:25,985510
0,-3,1,5,7,2,0,-1,2021-08-07 11:39:26,000506
-1,-2,-2,-3,-4,-3,0,-1,2021-08-07 11:39:26,016507
1,1,-3,-6,-11,-5,3,3,2021-08-07 11:39:26,032507
1,0,-1,-2,-4,2,5,3,2021-08-07 11:39:26,032507
0,1,2,1,1,0,-1,-1,2021-08-07 11:39:26,032507
0,-1,-2,-2,-4,-1,-1,-2,2021-08-07 11:39:26,048506
4,5,6,10,17,4,3,3,2021-08-07 11:39:26,080506
1,2,-3,-10,-15,-4,-3,-1,2021-08-07 11:39:26,080506
-2,-1,-3,8,11,3,0,-2,2021-08-07 11:39:26,080506
-2,-1,0,-2,2,-1,-1,-2,2021-08-07 11:39:26,080506
-5,-5,-3,0,-5,-5,-5,-5,2021-08-07 11:39:26,080506
-1,-2,-2,-6,-13,-6,-1,-3,2021-08-07 11:39:26,080506
3,2,4,14,22,9,4,2,2021-08-07 11:39:26,080506
-2,-2,-4,-6,-6,-3,-3,-3,2021-08-07 11:39:26,080506
-3,-3,-7,-15,-14,-5,-4,-2,2021-08-07 11:39:26,080506
1,-1,3,7,11,1,0,-1,2021-08-07 11:39:26,081507
-2,0,-2,-13,-17,-7,-4,0,2021-08-07 11:39:26,081507
-2,-1,0,3,2,1,-1,0,2021-08-07 11:39:26,081507
-3,-3,-2,-1,0,-1,-3,-3,2021-08-07 11:39:26,081507
-2,-2,-2,-1,-5,-2,1,0,2021-08-07 11:39:26,096507
1,1,0,0,3,1,2,1,2021-08-07 11:39:26,112506
1,1,-1,-1,4,1,0,-1,2021-08-07 11:39:26,112506
-2,0,-4,-16,-20,-7,-3,-1,2021-08-07 11:39:26,112506
-3,-1,0,9,16,4,-1,1,2021-08-07 11:39:26,112506
4,2,9,14,11,3,1,2,2021-08-07 11:39:26,142507
-4,-5,-3,-4,-4,-4,-4,-2,2021-08-07 11:39:26,142507
-1,0,1,5,2,0,1,-1,2021-08-07 11:39:26,142507
4,3,1,-3,-7,-2,0,1,2021-08-07 11:39:26,142507
0,0,-4,-7,-11,-5,-3,-1,2021-08-07 11:39:26,142507
1,1,3,7,7,5,2,1,2021-08-07 11:39:26,142507
-4,-7,-4,-3,-4,-3,-2,-4,2021-08-07 11:39:26,143507
-1,-1,2,1,4,3,0,1,2021-08-07 11:39:26,143507
-1,1,-1,0,1,-3,-1,-2,2021-08-07 11:39:26,176506
0,-1,-4,-8,-6,-4,1,-1,2021-08-07 11:39:26,191507
0,3,2,10,5,1,0,1,2021-08-07 11:39:26,191507
-1,-2,-2,2,6,0,-1,-1,2021-08-07 11:39:26,191507
-1,-3,-2,-8,-13,-6,-1,0,2021-08-07 11:39:26,191507
1,1,0,6,9,4,0,0,2021-08-07 11:39:26,191507
0,1,-1,-1,3,1,-1,0,2021-08-07 11:39:26,191507
-2,-2,-3,-6,-6,-2,-1,-2,2021-08-07 11:39:26,192508
0,-2,-2,1,-2,1,1,-2,2021-08-07 11:39:26,207507
0,-2,-7,-13,-10,-5,-2,-1,2021-08-07 11:39:26,207507
2,1,2,-1,0,1,1,0,2021-08-07 11:39:26,207507
3,6,7,17,22,9,5,2,2021-08-07 11:39:26,207507
-1,0,0,3,0,-1,0,1,2021-08-07 11:39:26,239506
-4,-3,0,3,-7,-4,-3,-1,2021-08-07 11:39:26,254506
-4,-2,-4,-13,-14,-6,-4,-4,2021-08-07 11:39:26,254506
2,0,-2,-5,-2,0,2,0,2021-08-07 11:39:26,254506
0,2,2,-2,-1,1,-1,0,2021-08-07 11:39:26,254506
1,1,-1,5,8,1,1,1,2021-08-07 11:39:26,254506
-1,-3,2,5,10,3,0,0,2021-08-07 11:39:26,254506
-2,0,2,4,-2,-1,-2,-1,2021-08-07 11:39:26,255507
-3,-5,-5,-6,-4,0,0,-2,2021-08-07 11:39:26,270508
-2,-4,-6,-13,-14,-10,-6,-4,2021-08-07 11:39:26,270508
-2,0,-2,0,-4,-3,-1,-2,2021-08-07 11:39:26,270508
-1,-2,1,4,-3,0,1,0,2021-08-07 11:39:26,270508
-1,-2,-2,-7,2,1,-2,-1,2021-08-07 11:39:26,302507
0,3,3,3,0,-1,0,0,2021-08-07 11:39:26,318506
1,0,3,4,4,1,1,-1,2021-08-07 11:39:26,334507
-1,-1,0,1,-4,-2,-1,-2,2021-08-07 11:39:26,334507
-3,-3,-5,-7,-9,-6,-4,-3,2021-08-07 11:39:26,334507
-3,-3,-5,-12,-4,-1,-3,-2,2021-08-07 11:39:26,334507
-4,-5,-10,-22,-31,-13,-7,-3,2021-08-07 11:39:26,334507
5,6,12,43,50,21,8,5,2021-08-07 11:39:26,334507
-1,-1,5,10,6,2,0,-1,2021-08-07 11:39:26,334507
4,1,-1,1,-1,2,1,1,2021-08-07 11:39:26,334507
-3,-3,-11,-17,-7,-7,-6,-3,2021-08-07 11:39:26,334507
-3,-4,-6,-24,-26,-11,-5,-3,2021-08-07 11:39:26,335508
-1,0,3,8,4,1,1,-2,2021-08-07 11:39:26,350507
1,1,8,15,8,2,2,1,2021-08-07 11:39:26,350507
0,-1,-3,-6,-1,2,2,1,2021-08-07 11:39:26,350507
-4,-3,-6,-16,-12,-8,-4,-3,2021-08-07 11:39:26,350507
1,2,2,9,9,3,1,1,2021-08-07 11:39:26,381507
-3,-1,2,4,2,0,0,0,2021-08-07 11:39:26,381507
0,0,3,13,13,5,2,0,2021-08-07 11:39:26,381507
-3,-6,-8,-18,-18,-9,-5,-4,2021-08-07 11:39:26,381507
-1,-2,-5,-12,-12,-4,-3,-1,2021-08-07 11:39:26,397508
-1,0,1,5,7,3,0,-1,2021-08-07 11:39:26,397508
1,3,7,29,20,6,3,0,2021-08-07 11:39:26,397508
0,-2,-2,-11,-8,-2,-3,-2,2021-08-07 11:39:26,397508
-6,-6,-13,-24,-23,-12,-6,-5,2021-08-07 11:39:26,413507
2,3,-1,-6,-8,-1,3,1,2021-08-07 11:39:26,413507
4,4,10,17,21,10,6,6,2021-08-07 11:39:26,429507
1,2,0,3,0,1,1,1,2021-08-07 11:39:26,445506
-3,-3,-1,-3,-2,-2,-3,-3,2021-08-07 11:39:26,445506
-7,-6,-7,-4,-6,-5,-6,-9,2021-08-07 11:39:26,445506
-6,-5,-3,-7,-9,-4,-4,-6,2021-08-07 11:39:26,445506
0,3,4,11,9,2,-1,2,2021-08-07 11:39:26,445506
1,2,-1,-5,-2,-2,0,1,2021-08-07 11:39:26,445506
-3,-4,-1,1,-1,-3,-2,-2,2021-08-07 11:39:26,446507
5,4,3,1,1,1,1,3,2021-08-07 11:39:26,446507
-2,-3,-2,0,0,2,1,1,2021-08-07 11:39:26,446507
-1,-2,-7,-16,-9,-5,-2,0,2021-08-07 11:39:26,477507
-1,-2,0,-3,2,1,1,0,2021-08-07 11:39:26,477507
-1,-2,0,5,6,-2,-2,-1,2021-08-07 11:39:26,477507
-5,-6,-7,-14,-14,-3,-4,-3,2021-08-07 11:39:26,477507
3,5,9,24,24,9,4,3,2021-08-07 11:39:26,493507
-1,0,-3,-2,-11,-4,-1,-1,2021-08-07 11:39:26,509507
-1,-3,-6,-18,-9,-4,-2,-1,2021-08-07 11:39:26,509507
3,3,0,-5,-3,0,-1,2,2021-08-07 11:39:26,509507
0,-2,1,5,-10,-1,0,-1,2021-08-07 11:39:26,509507
-2,-1,1,2,5,2,-2,-1,2021-08-07 11:39:26,509507
6,7,8,21,35,14,7,4,2021-08-07 11:39:26,510507
-3,-4,-5,-7,-14,-9,-5,-4,2021-08-07 11:39:26,510507
1,-1,0,16,14,4,1,1,2021-08-07 11:39:26,540507
0,0,0,-5,-13,-6,-3,-1,2021-08-07 11:39:26,556508
3,3,-2,-10,-15,-5,0,0,2021-08-07 11:39:26,556508
-1,-1,-2,-3,1,-1,2,0,2021-08-07 11:39:26,556508
-2,-2,-1,-3,-7,-1,-2,-3,2021-08-07 11:39:26,556508
-1,0,-2,6,17,3,-2,-3,2021-08-07 11:39:26,556508
-5,-5,-4,-9,-5,-2,-2,-3,2021-08-07 11:39:26,556508
1,1,-1,-4,-6,-3,-1,0,2021-08-07 11:39:26,557507
-1,2,-2,-10,-12,-4,0,1,2021-08-07 11:39:26,572509
6,2,2,7,13,16,18,12,2021-08-07 11:39:26,588506
3,3,4,10,5,10,5,3,2021-08-07 11:39:26,592508
-4,-4,-3,2,3,-13,-18,-9,2021-08-07 11:39:26,592508
-20,-14,-11,-13,-19,-27,-28,-22,2021-08-07 11:39:26,593507
-5,-3,0,-8,-9,-10,-6,-4,2021-08-07 11:39:26,593507
-2,-2,-2,-7,-10,-3,3,1,2021-08-07 11:39:26,593507
8,6,3,6,7,14,17,8,2021-08-07 11:39:26,593507
7,3,4,11,16,12,9,8,2021-08-07 11:39:26,620506
-1,-2,-3,-7,-10,-3,0,-2,2021-08-07 11:39:26,620506
-5,-7,-11,-22,-24,-10,-6,-4,2021-08-07 11:39:26,620506
-1,0,9,30,31,10,1,-1,2021-08-07 11:39:26,620506
-1,1,2,8,9,2,1,-2,2021-08-07 11:39:26,636506
4,5,3,-5,-5,-2,-1,2,2021-08-07 11:39:26,636506
0,1,2,13,4,-1,-2,0,2021-08-07 11:39:26,636506
-7,-7,-10,-27,-22,-10,-3,-5,2021-08-07 11:39:26,636506
4,1,1,0,9,6,4,3,2021-08-07 11:39:26,652507
1,0,2,6,9,4,0,1,2021-08-07 11:39:26,652507
-4,-5,-5,-7,-7,-6,-4,-5,2021-08-07 11:39:26,652507
-2,0,1,-1,0,-1,0,0,2021-08-07 11:39:26,652507
0,2,0,0,0,3,2,2,2021-08-07 11:39:26,683507
-4,-5,-4,-5,-9,-11,-8,-5,2021-08-07 11:39:26,699506
-2,-1,0,1,2,-4,-4,-3,2021-08-07 11:39:26,699506
-1,-4,-3,-2,-1,0,0,0,2021-08-07 11:39:26,699506
2,1,-1,-3,-2,3,3,3,2021-08-07 11:39:26,699506
-2,-2,-2,1,1,0,-2,-2,2021-08-07 11:39:26,699506
-5,-4,-2,-1,-1,-5,-3,-1,2021-08-07 11:39:26,699506
-2,-1,-2,-1,-1,-1,0,-1,2021-08-07 11:39:26,700509
3,2,0,-5,-4,-1,1,0,2021-08-07 11:39:26,714507
-3,-5,-4,-2,-4,-2,-4,-3,2021-08-07 11:39:26,714507
0,0,-1,4,4,3,2,0,2021-08-07 11:39:26,714507
4,5,2,0,-2,1,1,1,2021-08-07 11:39:26,714507
-1,-1,-4,-15,-4,-3,-1,-1,2021-08-07 11:39:26,746508
1,0,1,4,0,-1,-1,0,2021-08-07 11:39:26,746508
-5,-5,-6,-8,-6,-4,-4,-5,2021-08-07 11:39:26,746508
2,0,3,3,-1,-1,-2,0,2021-08-07 11:39:26,746508
0,0,2,13,10,4,3,1,2021-08-07 11:39:26,746508
0,1,1,4,6,3,1,2,2021-08-07 11:39:26,746508
0,-1,-1,-2,-1,-1,-3,0,2021-08-07 11:39:26,762507
-4,-4,-6,-12,-15,-8,-3,-4,2021-08-07 11:39:26,778508
-3,-5,-4,-11,-8,-4,-3,-3,2021-08-07 11:39:26,794505
-1,-1,0,1,1,0,1,0,2021-08-07 11:39:26,794505
1,1,3,1,0,-1,-1,2,2021-08-07 11:39:26,794505
-2,-4,-6,-12,-18,-6,-3,-3,2021-08-07 11:39:26,794505
0,0,0,7,22,8,3,2,2021-08-07 11:39:26,794505
1,2,5,13,6,2,-1,-1,2021-08-07 11:39:26,810506
-1,0,-1,-3,-3,0,0,-1,2021-08-07 11:39:26,826506
0,2,2,4,-1,-1,1,1,2021-08-07 11:39:26,842507
-4,-4,-3,-12,-17,-8,-4,-3,2021-08-07 11:39:26,857507
-1,-2,-5,-10,-16,-8,-3,-1,2021-08-07 11:39:26,857507
1,0,0,5,13,6,2,-1,2021-08-07 11:39:26,857507
-2,-4,-3,-5,1,3,-1,-2,2021-08-07 11:39:26,857507
4,6,7,15,18,8,4,3,2021-08-07 11:39:26,857507
-3,-3,-4,-3,0,-3,-2,-3,2021-08-07 11:39:26,858507
1,1,1,-4,-14,-6,-1,1,2021-08-07 11:39:26,858507
-1,-1,-1,0,5,-1,-1,-1,2021-08-07 11:39:26,858507
-5,-8,-8,-18,-20,-7,-4,-3,2021-08-07 11:39:26,858507
-3,0,0,1,8,2,0,-2,2021-08-07 11:39:26,858507
4,5,5,7,4,1,0,2,2021-08-07 11:39:26,858507
0,-1,0,7,8,1,1,-1,2021-08-07 11:39:26,858507
1,2,4,7,2,1,0,0,2021-08-07 11:39:26,873505
-4,-6,-8,-20,-24,-10,-6,-3,2021-08-07 11:39:26,873505
-4,-6,-9,-18,-11,-4,-4,-2,2021-08-07 11:39:26,873505
2,3,6,18,24,8,2,2,2021-08-07 11:39:26,873505
1,3,2,11,3,1,0,-1,2021-08-07 11:39:26,904507
6,8,7,10,14,9,6,5,2021-08-07 11:39:26,935507
1,0,3,-4,-7,-3,-2,-2,2021-08-07 11:39:26,951507
-1,-3,1,2,-5,-1,-1,0,2021-08-07 11:39:26,951507
-5,-7,-7,-9,-11,-9,-4,-4,2021-08-07 11:39:26,951507
-2,-3,-10,-7,-2,-1,-2,-3,2021-08-07 11:39:26,951507
-2,-3,-5,3,1,0,-2,-1,2021-08-07 11:39:26,951507
1,1,2,-6,-2,-1,0,0,2021-08-07 11:39:26,951507
-1,0,1,5,-2,1,-1,-1,2021-08-07 11:39:26,952508
-1,1,2,9,11,4,1,1,2021-08-07 11:39:26,952508
1,2,4,5,4,1,0,1,2021-08-07 11:39:26,952508
1,1,3,6,9,5,-1,2,2021-08-07 11:39:26,952508
-1,-1,-3,-9,-13,-7,-5,-3,2021-08-07 11:39:26,952508
-4,-6,-11,-27,-27,-14,-8,-5,2021-08-07 11:39:26,952508
4,5,12,34,43,20,7,4,2021-08-07 11:39:26,953509
1,0,1,3,-7,-3,-2,0,2021-08-07 11:39:26,953509
0,-1,1,6,14,6,4,1,2021-08-07 11:39:26,983508
-1,1,0,-3,-5,-2,-2,0,2021-08-07 11:39:26,998508
-3,-4,-5,-14,-15,-7,-4,-3,2021-08-07 11:39:26,998508
-2,-2,-4,-7,-7,-5,-2,-1,2021-08-07 11:39:26,998508
0,-1,-5,-6,-5,-2,0,0,2021-08-07 11:39:26,998508
-2,-1,2,0,2,0,0,-2,2021-08-07 11:39:26,998508
-6,-4,-4,0,-5,-3,-3,-3,2021-08-07 11:39:26,998508
3,3,3,4,3,3,2,1,2021-08-07 11:39:26,998508
0,0,-3,-8,-11,-7,-1,-2,2021-08-07 11:39:27,013507
1,1,4,10,8,4,1,0,2021-08-07 11:39:27,013507
1,0,-1,-3,4,2,1,1,2021-08-07 11:39:27,013507
-3,-5,-5,-4,-1,-4,-3,-4,2021-08-07 11:39:27,013507
-3,-1,-1,-1,-5,-4,-3,-1,2021-08-07 11:39:27,036508
3,1,2,2,0,-1,0,0,2021-08-07 11:39:27,036508
1,-2,-1,-5,-4,-3,0,-1,2021-08-07 11:39:27,036508
-2,-1,1,9,4,1,-2,-2,2021-08-07 11:39:27,036508
0,-1,-3,-4,-4,-1,-2,-1,2021-08-07 11:39:27,061505
-2,-2,-1,-5,0,-2,-1,-1,2021-08-07 11:39:27,077507
-1,-1,-2,-3,-3,-1,0,0,2021-08-07 11:39:27,077507
-1,0,1,1,2,1,0,0,2021-08-07 11:39:27,077507
-2,-1,-2,-2,-6,-2,-1,1,2021-08-07 11:39:27,077507
1,1,4,7,5,2,2,2,2021-08-07 11:39:27,077507
-3,-3,-7,-12,-14,-6,-3,-3,2021-08-07 11:39:27,077507
-3,-2,-6,-8,-1,-3,-2,-1,2021-08-07 11:39:27,078507
2,3,1,5,4,1,1,0,2021-08-07 11:39:27,109512
1,1,1,8,8,3,2,1,2021-08-07 11:39:27,109512
1,1,2,3,1,-1,1,-1,2021-08-07 11:39:27,109512
-1,-2,-4,-7,-12,-5,-3,-2,2021-08-07 11:39:27,109512
-2,-2,-3,-6,3,0,-1,0,2021-08-07 11:39:27,125508
-7,-6,-5,-4,-1,-2,-3,-6,2021-08-07 11:39:27,141507
5,5,6,6,1,0,2,2,2021-08-07 11:39:27,156506
-3,-4,-5,-7,-6,-2,-3,-1,2021-08-07 11:39:27,156506
-4,-7,-3,-3,-2,-2,-2,-1,2021-08-07 11:39:27,156506
6,8,7,5,2,3,5,5,2021-08-07 11:39:27,156506
-5,-4,-4,-2,-4,-2,-2,-2,2021-08-07 11:39:27,156506
0,-1,-3,-11,-10,-3,-2,-1,2021-08-07 11:39:27,157508
0,0,0,-2,-6,-3,-3,0,2021-08-07 11:39:27,157508
-4,-6,-7,-9,-10,-6,-3,-2,2021-08-07 11:39:27,157508
1,-1,-1,13,25,10,2,2,2021-08-07 11:39:27,157508
7,5,9,19,16,7,6,5,2021-08-07 11:39:27,157508
2,0,-1,5,5,3,3,0,2021-08-07 11:39:27,187508
-4,-4,-3,-5,-10,-4,-2,-2,2021-08-07 11:39:27,203508
-7,-3,-4,-17,-26,-13,-7,-7,2021-08-07 11:39:27,203508
-3,-1,2,6,9,3,-1,-3,2021-08-07 11:39:27,219506
2,1,3,0,3,1,-2,-1,2021-08-07 11:39:27,219506
1,0,0,2,2,1,-2,-2,2021-08-07 11:39:27,219506
1,0,0,0,2,0,2,0,2021-08-07 11:39:27,219506
-3,-4,-5,-4,-7,-6,-2,-2,2021-08-07 11:39:27,235507
0,-1,-2,-7,-7,-4,-2,-1,2021-08-07 11:39:27,251508
-2,-4,-4,-4,0,0,-2,-1,2021-08-07 11:39:27,251508
6,6,5,0,1,2,3,4,2021-08-07 11:39:27,251508
0,1,-1,0,-4,-2,1,-1,2021-08-07 11:39:27,251508
-2,-2,-3,-2,0,-1,-1,-3,2021-08-07 11:39:27,267507
-4,-6,-4,-4,-5,-5,-4,-4,2021-08-07 11:39:27,283508
-2,-3,-2,0,-12,-4,-2,-1,2021-08-07 11:39:27,283508
4,3,9,15,21,16,8,5,2021-08-07 11:39:27,283508
3,1,4,10,13,5,1,0,2021-08-07 11:39:27,283508
-8,-7,-6,-5,-8,-10,-12,-8,2021-08-07 11:39:27,283508
-3,-2,-3,-1,2,-1,-2,-1,2021-08-07 11:39:27,283508
-4,-4,-6,-9,-8,-3,-2,-1,2021-08-07 11:39:27,283508
0,2,3,5,1,2,1,3,2021-08-07 11:39:27,283508
0,1,1,0,-2,-3,-1,0,2021-08-07 11:39:27,283508
4,1,0,-5,-4,6,11,5,2021-08-07 11:39:27,284508
-1,-2,-6,-8,-6,-1,-6,-2,2021-08-07 11:39:27,284508
-5,-2,-1,1,-2,-10,-14,-9,2021-08-07 11:39:27,315507
-10,-8,-7,-11,-7,-11,-11,-10,2021-08-07 11:39:27,315507
-2,-3,-1,-2,0,-1,-2,-2,2021-08-07 11:39:27,315507
0,-1,-3,-3,-5,2,8,3,2021-08-07 11:39:27,315507
2,-1,5,19,10,8,6,4,2021-08-07 11:39:27,315507
10,9,8,12,9,7,4,4,2021-08-07 11:39:27,315507
0,1,1,4,4,1,-2,-2,2021-08-07 11:39:27,316508
-2,-4,-7,-11,-11,-3,-2,-1,2021-08-07 11:39:27,316508
0,2,1,-12,-6,-3,0,1,2021-08-07 11:39:27,346508
-1,-2,-1,-6,-2,1,0,1,2021-08-07 11:39:27,362508
-4,-3,0,9,2,-6,-7,-6,2021-08-07 11:39:27,362508
-1,0,1,6,2,-5,-6,-4,2021-08-07 11:39:27,362508
-5,-5,-8,-11,-11,-5,-2,-3,2021-08-07 11:39:27,362508
-1,-2,-3,-6,-6,1,5,2,2021-08-07 11:39:27,362508
1,0,-1,-6,-2,1,-1,-2,2021-08-07 11:39:27,362508
-3,-2,-1,-4,-5,-4,-6,-3,2021-08-07 11:39:27,362508
-3,-2,-3,-2,3,1,0,-1,2021-08-07 11:39:27,378507
3,0,0,-2,-3,4,4,1,2021-08-07 11:39:27,378507
-4,-5,-5,-2,0,-5,-2,-4,2021-08-07 11:39:27,393507
1,1,5,7,5,1,-1,-1,2021-08-07 11:39:27,393507
-5,-3,-4,0,-2,1,1,-2,2021-08-07 11:39:27,409507
-5,-6,-7,-3,-4,-4,-7,-4,2021-08-07 11:39:27,425507
0,0,-1,-5,-7,-4,-3,1,2021-08-07 11:39:27,425507
2,4,0,-11,-7,-4,0,0,2021-08-07 11:39:27,425507
2,1,0,-4,-3,-3,1,0,2021-08-07 11:39:27,425507
0,-1,-2,1,6,3,1,0,2021-08-07 11:39:27,425507
-4,-4,-1,-1,-2,1,-2,-1,2021-08-07 11:39:27,426508
-1,-1,0,1,1,-1,-1,0,2021-08-07 11:39:27,426508
-3,-3,-3,-7,-3,-2,-2,-2,2021-08-07 11:39:27,441509
0,0,0,6,1,0,1,-2,2021-08-07 11:39:27,441509
1,0,0,0,0,0,-2,-1,2021-08-07 11:39:27,441509
0,-2,-2,0,1,0,0,-1,2021-08-07 11:39:27,441509
-3,-5,0,2,-3,-3,-3,-2,2021-08-07 11:39:27,472508
0,2,1,4,18,10,4,2,2021-08-07 11:39:27,472508
0,0,-2,-5,-5,-1,-1,1,2021-08-07 11:39:27,472508
-1,-1,-1,0,2,2,-1,-3,2021-08-07 11:39:27,472508
-1,-4,0,10,4,1,0,-1,2021-08-07 11:39:27,472508
-1,1,2,-4,-5,-1,0,1,2021-08-07 11:39:27,472508
-1,1,-1,4,5,1,0,-1,2021-08-07 11:39:27,472508
-3,-2,-4,-9,-9,-6,-3,-2,2021-08-07 11:39:27,473508
2,3,0,-7,-7,-1,0,0,2021-08-07 11:39:27,501509
-1,-2,-2,-2,-3,-2,2,-1,2021-08-07 11:39:27,501509
0,-3,-4,-4,0,-1,-1,-2,2021-08-07 11:39:27,501509
-2,-1,0,5,6,3,-1,-1,2021-08-07 11:39:27,502507
3,3,1,1,13,4,2,1,2021-08-07 11:39:27,534507
1,1,1,1,-7,-3,2,1,2021-08-07 11:39:27,550508
-3,-2,-4,-8,-8,-4,-2,-2,2021-08-07 11:39:27,550508
-6,-5,-5,-16,-30,-16,-7,-5,2021-08-07 11:39:27,550508
3,0,-2,-5,11,6,3,3,2021-08-07 11:39:27,550508
2,2,7,13,15,10,4,4,2021-08-07 11:39:27,550508
0,-1,3,15,15,7,2,-2,2021-08-07 11:39:27,550508
-3,-4,-5,-12,-12,-9,-3,-1,2021-08-07 11:39:27,550508
-2,-2,-3,-2,-10,-3,-3,-4,2021-08-07 11:39:27,566508
0,3,3,10,21,6,2,0,2021-08-07 11:39:27,566508
-1,1,3,0,-6,-1,1,1,2021-08-07 11:39:27,566508
-3,-7,-14,-28,-35,-18,-8,-5,2021-08-07 11:39:27,566508
-5,-5,-6,-8,1,-2,-3,-3,2021-08-07 11:39:27,597507
4,4,6,14,19,9,3,2,2021-08-07 11:39:27,613505
6,8,15,20,19,14,5,3,2021-08-07 11:39:27,629507
1,-3,-5,2,6,7,3,0,2021-08-07 11:39:27,629507
-11,-11,-23,-50,-62,-35,-15,-7,2021-08-07 11:39:27,629507
-2,-3,-1,-3,-11,-5,-2,-2,2021-08-07 11:39:27,629507
2,2,5,16,34,10,3,3,2021-08-07 11:39:27,629507
2,4,8,12,8,8,2,1,2021-08-07 11:39:27,629507
2,2,6,21,23,12,3,1,2021-08-07 11:39:27,630508
-1,-1,-4,-9,-9,-4,-2,-2,2021-08-07 11:39:27,630508
-2,-2,-3,2,-11,-5,-2,-1,2021-08-07 11:39:27,630508
-2,-3,-7,-16,-16,-8,-3,-3,2021-08-07 11:39:27,630508
6,8,16,46,61,26,11,7,2021-08-07 11:39:27,645507
-1,-3,-3,-10,-20,-9,-4,-1,2021-08-07 11:39:27,661508
-3,-2,-6,-13,-13,-5,-1,-4,2021-08-07 11:39:27,661508
-2,-1,0,6,10,1,-1,-2,2021-08-07 11:39:27,661508
-4,-3,-4,-9,-22,-10,-6,-3,2021-08-07 11:39:27,661508
0,-2,-4,-10,-9,-4,-1,1,2021-08-07 11:39:27,661508
0,-3,-2,0,4,1,1,0,2021-08-07 11:39:27,662507
-1,0,0,-3,-1,0,-2,-2,2021-08-07 11:39:27,662507
2,2,4,3,-2,-1,0,1,2021-08-07 11:39:27,677507
-2,-3,-3,-4,-7,-3,-3,-1,2021-08-07 11:39:27,693505
-3,-4,-4,-9,-14,-5,-3,-1,2021-08-07 11:39:27,693505
0,0,5,14,25,9,2,2,2021-08-07 11:39:27,693505
0,-3,0,2,2,2,-2,-2,2021-08-07 11:39:27,709507
-4,-2,-4,-8,-8,-7,-2,-2,2021-08-07 11:39:27,724507
1,1,-6,-17,-26,-11,-2,-1,2021-08-07 11:39:27,724507
0,1,0,-1,0,0,1,1,2021-08-07 11:39:27,724507
6,3,8,22,24,11,5,3,2021-08-07 11:39:27,724507
1,0,1,6,1,1,-1,-1,2021-08-07 11:39:27,724507
-2,-5,-5,-8,-6,-5,-3,-3,2021-08-07 11:39:27,724507
-3,-4,-8,-7,-10,-7,-4,-2,2021-08-07 11:39:27,725509
-5,-5,-6,-10,-10,-7,-3,-3,2021-08-07 11:39:27,740508
1,3,1,5,3,1,1,1,2021-08-07 11:39:27,756507
-1,-1,-4,-12,-15,-8,-2,0,2021-08-07 11:39:27,772507
3,2,4,5,10,6,2,0,2021-08-07 11:39:27,772507
-1,-1,0,2,7,5,1,1,2021-08-07 11:39:27,772507
-2,-3,-2,1,0,0,-1,-1,2021-08-07 11:39:27,772507
0,3,1,4,12,3,0,-1,2021-08-07 11:39:27,787507
-3,-3,0,1,-3,-5,-2,-4,2021-08-07 11:39:27,803507
-1,-1,-5,-16,-26,-9,-4,-1,2021-08-07 11:39:27,803507
1,2,2,7,13,5,2,1,2021-08-07 11:39:27,803507
0,-4,-4,-2,2,-2,-2,-2,2021-08-07 11:39:27,803507
0,0,1,2,-1,0,-3,0,2021-08-07 11:39:27,803507
1,1,2,-1,-4,-2,0,-1,2021-08-07 11:39:27,804508
-1,1,1,-1,5,1,0,0,2021-08-07 11:39:27,804508
-4,-7,-6,-7,-2,-1,-1,-3,2021-08-07 11:39:27,819506
5,5,6,11,12,5,3,3,2021-08-07 11:39:27,819506
-1,-2,-5,-11,-17,-7,-2,-2,2021-08-07 11:39:27,819506
-3,-5,-5,1,3,-1,-3,-5,2021-08-07 11:39:27,819506
1,2,2,7,16,9,2,0,2021-08-07 11:39:27,819506
0,-1,0,14,15,5,2,0,2021-08-07 11:39:27,819506
-4,-2,-5,-15,-18,-9,-3,-3,2021-08-07 11:39:27,835507
-4,-6,-8,-19,-31,-14,-6,-3,2021-08-07 11:39:27,835507
0,-1,1,7,13,6,0,2,2021-08-07 11:39:27,851508
-1,-2,0,-1,4,0,0,-2,2021-08-07 11:39:27,851508
-2,-1,-1,3,0,1,-1,-2,2021-08-07 11:39:27,867507
-1,2,1,-2,-3,-3,0,1,2021-08-07 11:39:27,882505
2,0,-2,-5,-14,-6,-2,-1,2021-08-07 11:39:27,882505
-3,-4,-4,-17,-18,-9,-3,-1,2021-08-07 11:39:27,882505
-2,-2,4,17,19,8,3,-1,2021-08-07 11:39:27,882505
3,1,3,5,6,3,1,1,2021-08-07 11:39:27,882505
-1,2,-2,-9,-13,-7,-2,0,2021-08-07 11:39:27,883509
1,2,5,12,11,4,2,0,2021-08-07 11:39:27,897507
-2,-1,-3,-12,-16,-9,-4,-1,2021-08-07 11:39:27,913506
-1,-6,-7,-10,2,0,-1,-2,2021-08-07 11:39:27,913506
3,2,4,12,10,8,4,2,2021-08-07 11:39:27,913506
1,0,1,7,14,7,3,1,2021-08-07 11:39:27,913506
1,2,1,3,2,2,3,1,2021-08-07 11:39:27,913506
-6,-6,-4,-10,-21,-6,-2,-1,2021-08-07 11:39:27,913506
-7,-5,-8,-24,-22,-12,-9,-8,2021-08-07 11:39:27,929508
-3,2,8,29,38,18,5,-1,2021-08-07 11:39:27,929508
2,4,1,2,1,3,1,3,2021-08-07 11:39:27,944506
2,3,2,1,0,-2,-4,0,2021-08-07 11:39:27,944506
-8,-6,-5,-12,-19,-21,-16,-11,2021-08-07 11:39:27,944506
-5,-5,-7,-16,-21,-11,-6,-4,2021-08-07 11:39:27,944506
2,1,0,2,4,2,4,1,2021-08-07 11:39:27,960506
3,3,3,8,16,14,10,7,2021-08-07 11:39:27,960506
3,2,2,3,3,7,6,4,2021-08-07 11:39:27,960506
-3,-4,-4,-3,-4,-5,-6,-4,2021-08-07 11:39:27,960506
-5,-6,-5,-7,-4,-2,-2,-3,2021-08-07 11:39:27,992507
3,5,2,2,-5,-1,1,1,2021-08-07 11:39:27,992507
-2,-2,-1,3,3,2,0,0,2021-08-07 11:39:27,992507
2,3,-1,-7,-11,-2,0,0,2021-08-07 11:39:27,992507
-2,-3,-2,5,4,-1,-2,-1,2021-08-07 11:39:28,008508
-2,-1,-2,-2,-3,-4,-5,-3,2021-08-07 11:39:28,024506
2,0,1,6,-1,1,3,4,2021-08-07 11:39:28,040508
-1,-3,0,4,11,5,3,0,2021-08-07 11:39:28,056508
7,7,7,-1,-10,0,1,2,2021-08-07 11:39:28,072507
2,0,4,9,20,5,1,2,2021-08-07 11:39:28,072507
-8,-5,-5,-10,-13,-9,-7,-10,2021-08-07 11:39:28,072507
6,5,5,12,9,2,-6,2,2021-08-07 11:39:28,072507
4,-3,-7,-10,-8,-7,3,6,2021-08-07 11:39:28,072507
-14,-10,-9,-12,-15,-1,7,-7,2021-08-07 11:39:28,073507
-4,-2,0,4,13,9,11,2,2021-08-07 11:39:28,073507
-14,-9,-5,-3,-4,-6,-6,-8,2021-08-07 11:39:28,073507
8,8,8,6,10,5,-2,4,2021-08-07 11:39:28,073507
11,4,1,-4,-13,-7,-4,5,2021-08-07 11:39:28,073507
3,-6,-7,-8,-14,-8,-4,1,2021-08-07 11:39:28,073507
-3,-2,-7,-25,-29,-13,-5,-4,2021-08-07 11:39:28,074509
2,2,6,22,31,12,2,0,2021-08-07 11:39:28,074509
-4,-1,0,6,5,-1,-2,-2,2021-08-07 11:39:28,074509
0,2,4,6,3,3,0,-3,2021-08-07 11:39:28,087508
-1,-2,-5,-9,-1,-3,-3,-2,2021-08-07 11:39:28,087508
-7,-5,-8,-15,-21,-8,-3,-4,2021-08-07 11:39:28,103509
-2,0,0,-1,5,1,-1,-3,2021-08-07 11:39:28,103509
0,1,2,10,10,4,1,1,2021-08-07 11:39:28,103509
4,4,2,-2,-7,1,4,3,2021-08-07 11:39:28,103509
-9,-7,-7,-11,-10,-8,-7,-6,2021-08-07 11:39:28,135509
-5,-1,-4,-2,2,0,-3,-2,2021-08-07 11:39:28,151507
2,0,-3,-3,-7,-3,0,4,2021-08-07 11:39:28,151507
-2,-3,-7,-17,-21,-9,-4,-3,2021-08-07 11:39:28,151507
0,3,11,36,53,19,4,-2,2021-08-07 11:39:28,151507
-2,-5,-3,4,-6,-2,-4,-3,2021-08-07 11:39:28,151507
12,14,14,13,13,11,7,8,2021-08-07 11:39:28,151507
2,0,-3,-16,-19,-6,2,2,2021-08-07 11:39:28,152507
-6,-7,-10,-20,-27,-11,-7,-6,2021-08-07 11:39:28,167507
-3,-3,-4,-10,-4,-4,-4,-3,2021-08-07 11:39:28,167507
-2,-1,0,10,19,10,3,1,2021-08-07 11:39:28,167507
2,4,6,15,18,6,1,2,2021-08-07 11:39:28,167507
-3,-2,-2,-5,-13,-6,-2,-5,2021-08-07 11:39:28,183509
0,2,3,9,15,3,0,2,2021-08-07 11:39:28,183509
-7,-7,-10,-18,-26,-14,-8,-5,2021-08-07 11:39:28,199507
-1,-3,-2,-3,-6,-2,-3,0,2021-08-07 11:39:28,199507
-2,-1,-2,-8,-4,-3,-3,-2,2021-08-07 11:39:28,199507
0,1,3,4,-4,1,0,-1,2021-08-07 11:39:28,199507
-2,-3,-3,-3,9,1,0,-2,2021-08-07 11:39:28,199507
-2,-3,-2,4,4,2,-2,0,2021-08-07 11:39:28,200509
0,0,3,0,-6,0,0,-1,2021-08-07 11:39:28,230506
2,2,1,-6,-7,-2,1,1,2021-08-07 11:39:28,246507
1,1,3,5,5,3,0,0,2021-08-07 11:39:28,246507
-3,-7,-6,2,2,-1,0,-2,2021-08-07 11:39:28,246507
-3,-3,-5,-6,-5,-4,-2,0,2021-08-07 11:39:28,246507
7,8,8,10,7,6,3,3,2021-08-07 11:39:28,246507
2,2,7,6,8,6,1,0,2021-08-07 11:39:28,246507
0,-2,-4,-7,-2,2,1,1,2021-08-07 11:39:28,247508
-9,-10,-19,-35,-45,-26,-14,-7,2021-08-07 11:39:28,262509
3,3,7,19,18,7,2,2,2021-08-07 11:39:28,262509
2,2,4,8,6,3,2,0,2021-08-07 11:39:28,293506
1,2,4,6,7,4,0,-1,2021-08-07 11:39:28,309507
-4,-4,-4,-7,-5,-4,-3,-4,2021-08-07 11:39:28,309507
-5,-3,-6,-8,-11,-4,-2,-2,2021-08-07 11:39:28,309507
5,6,5,14,28,9,2,2,2021-08-07 11:39:28,309507
-2,-1,-1,3,5,2,2,-1,2021-08-07 11:39:28,309507
-1,1,-1,-6,-5,-3,0,0,2021-08-07 11:39:28,309507
-4,-5,-7,-18,-29,-16,-8,-6,2021-08-07 11:39:28,324508
-3,-3,-5,-4,9,3,-1,0,2021-08-07 11:39:28,340507
4,6,9,19,14,7,2,1,2021-08-07 11:39:28,356506
4,3,9,26,33,15,6,4,2021-08-07 11:39:28,356506
-6,-6,-10,-16,-17,-10,-6,-5,2021-08-07 11:39:28,356506
-4,-6,-7,-14,-24,-9,-3,-4,2021-08-07 11:39:28,356506
-1,0,-2,-12,-13,-8,-2,-1,2021-08-07 11:39:28,357507
1,2,6,16,20,10,4,0,2021-08-07 11:39:28,357507
-2,-5,-5,-7,-6,-1,1,-1,2021-08-07 11:39:28,357507
1,1,0,-1,-8,-6,-1,1,2021-08-07 11:39:28,372509
-2,-4,-2,-3,5,1,-2,-1,2021-08-07 11:39:28,372509
5,6,10,9,8,7,4,3,2021-08-07 11:39:28,372509
2,1,3,4,2,1,0,0,2021-08-07 11:39:28,372509
-6,-8,-12,-19,-18,-11,-7,-4,2021-08-07 11:39:28,372509
1,1,1,5,6,4,1,0,2021-08-07 11:39:28,373510
-3,-3,-4,-4,-5,-4,-1,-1,2021-08-07 11:39:28,388506
-1,-1,-3,1,7,2,-2,-1,2021-08-07 11:39:28,404507
3,3,1,-7,-14,-3,-1,0,2021-08-07 11:39:28,420508
-1,-1,2,5,2,-2,-2,-1,2021-08-07 11:39:28,420508
0,-3,-4,-4,-3,-2,-2,-3,2021-08-07 11:39:28,420508
-1,1,0,-7,-2,-2,0,-1,2021-08-07 11:39:28,420508
-1,3,6,14,14,7,4,1,2021-08-07 11:39:28,420508
-1,4,6,-7,-8,-6,-1,-3,2021-08-07 11:39:28,420508
-1,-6,-7,0,-5,-3,0,-1,2021-08-07 11:39:28,421508
-5,-11,-11,-12,-15,-8,-5,-3,2021-08-07 11:39:28,421508
1,3,1,11,22,7,0,-1,2021-08-07 11:39:28,421508
1,-3,-1,-9,-6,-3,-2,1,2021-08-07 11:39:28,421508
1,14,11,10,11,-2,-2,0,2021-08-07 11:39:28,452509
1,-13,8,9,9,5,2,1,2021-08-07 11:39:28,452509
-4,2,-10,-7,-9,-2,-2,-2,2021-08-07 11:39:28,452509
1,-1,-7,-13,-16,-9,-5,-1,2021-08-07 11:39:28,468508
-4,-2,-10,-14,-12,-3,-3,-4,2021-08-07 11:39:28,484508
0,8,2,5,6,0,0,2,2021-08-07 11:39:28,500508
-2,-2,8,2,-2,-2,-2,-4,2021-08-07 11:39:28,516509
-3,-1,-4,4,3,0,0,-1,2021-08-07 11:39:28,516509
-1,-6,-8,-14,-16,-5,-4,-2,2021-08-07 11:39:28,516509
3,6,11,22,20,9,4,2,2021-08-07 11:39:28,517507
3,3,6,6,6,6,4,4,2021-08-07 11:39:28,517507
1,2,2,3,2,3,2,1,2021-08-07 11:39:28,517507
1,-3,3,7,8,2,1,-1,2021-08-07 11:39:28,517507
-3,-3,-5,-10,-9,-5,-1,-2,2021-08-07 11:39:28,517507
-3,-6,-7,-14,-16,-11,-1,-3,2021-08-07 11:39:28,517507
-3,-3,-5,-11,-10,-3,-1,-3,2021-08-07 11:39:28,517507
2,3,6,9,9,5,2,3,2021-08-07 11:39:28,517507
0,2,-1,2,4,1,0,-1,2021-08-07 11:39:28,518510
-4,-5,-6,-12,-17,-6,-3,-4,2021-08-07 11:39:28,532508
-1,-2,-2,3,5,2,0,0,2021-08-07 11:39:28,548506
-10,-8,-7,-4,-1,-3,-5,-6,2021-08-07 11:39:28,563507
9,13,11,9,9,7,4,6,2021-08-07 11:39:28,579507
0,-3,-1,-1,1,-1,-1,1,2021-08-07 11:39:28,594506
-2,-1,-3,2,-3,3,8,3,2021-08-07 11:39:28,594506
7,5,1,0,7,7,2,4,2021-08-07 11:39:28,594506
-5,-5,-6,-11,-10,-13,-12,-9,2021-08-07 11:39:28,594506
-2,-4,-1,5,7,-5,-9,-6,2021-08-07 11:39:28,594506
-5,-3,-2,0,-8,-5,-4,-1,2021-08-07 11:39:28,609507
4,2,3,9,7,13,18,10,2021-08-07 11:39:28,625507
3,2,-2,-2,-2,7,0,3,2021-08-07 11:39:28,641506
-10,-8,-4,-8,-14,-20,-25,-17,2021-08-07 11:39:28,641506
-9,-8,-5,-4,-5,-16,-15,-13,2021-08-07 11:39:28,641506
-5,-6,-6,-14,-15,-7,-5,-3,2021-08-07 11:39:28,641506
2,0,-1,-3,-2,3,8,4,2021-08-07 11:39:28,641506
9,8,8,9,6,14,15,11,2021-08-07 11:39:28,657508
5,3,3,10,12,9,4,3,2021-08-07 11:39:28,672506
-1,-2,1,-1,-1,1,0,-1,2021-08-07 11:39:28,687508
1,0,-2,0,4,3,5,3,2021-08-07 11:39:28,703507
-2,-4,-7,-8,0,1,1,0,2021-08-07 11:39:28,735507
-3,-4,-3,-2,0,0,-2,-2,2021-08-07 11:39:28,735507
4,6,7,0,0,-3,-2,0,2021-08-07 11:39:28,735507
-6,-2,-2,5,3,-6,-8,-8,2021-08-07 11:39:28,735507
-2,-1,-2,-5,-8,-4,-1,2,2021-08-07 11:39:28,735507
-2,0,-5,-13,-6,-2,-2,-2,2021-08-07 11:39:28,735507
-1,-1,1,9,6,-2,-3,-1,2021-08-07 11:39:28,736508
0,-1,-4,-6,-6,-3,-1,1,2021-08-07 11:39:28,736508
2,0,0,1,1,0,3,3,2021-08-07 11:39:28,736508
0,-1,-4,-8,-9,-3,-1,-2,2021-08-07 11:39:28,736508
-3,-4,-5,-6,3,0,-3,-4,2021-08-07 11:39:28,736508
-1,1,4,12,7,3,3,0,2021-08-07 11:39:28,736508
0,-2,-2,0,-2,2,1,2,2021-08-07 11:39:28,736508
-1,0,2,3,1,-1,-2,1,2021-08-07 11:39:28,737509
-4,-3,-5,-10,-9,-5,-6,-4,2021-08-07 11:39:28,737509
-1,-2,-2,-6,-3,-2,-1,-1,2021-08-07 11:39:28,737509
-2,-2,-6,-6,-4,-2,-1,-2,2021-08-07 11:39:28,737509
1,0,2,5,0,0,0,-2,2021-08-07 11:39:28,737509
1,-2,-3,-8,-12,-3,-2,0,2021-08-07 11:39:28,737509
-1,-2,0,7,22,9,2,0,2021-08-07 11:39:28,751507
-2,1,1,5,8,3,0,-2,2021-08-07 11:39:28,783507
2,2,1,4,1,-1,-2,1,2021-08-07 11:39:28,799507
1,-1,-1,-3,-10,-7,-3,-2,2021-08-07 11:39:28,799507
-2,-3,-3,-5,1,-2,-4,-1,2021-08-07 11:39:28,799507
-2,-4,0,3,4,2,1,1,2021-08-07 11:39:28,799507
2,4,5,3,6,3,1,3,2021-08-07 11:39:28,799507
3,4,3,5,3,2,2,1,2021-08-07 11:39:28,799507
-2,-4,-5,-8,-16,-8,-3,-2,2021-08-07 11:39:28,800508
-3,-4,-2,-5,-5,-5,-2,-3,2021-08-07 11:39:28,800508
-1,-3,-4,-5,-6,-1,-1,-1,2021-08-07 11:39:28,800508
-1,0,-2,-4,5,0,-1,-1,2021-08-07 11:39:28,800508
2,3,5,9,-1,1,1,0,2021-08-07 11:39:28,800508
1,2,4,16,18,8,3,2,2021-08-07 11:39:28,800508
-2,-4,-2,-4,-4,-3,-2,-1,2021-08-07 11:39:28,801508
-2,-2,-2,-2,-2,-2,-2,-1,2021-08-07 11:39:28,801508
-1,-2,-2,-11,-9,-2,-2,-2,2021-08-07 11:39:28,801508
-1,-1,-1,-2,-4,-3,0,-1,2021-08-07 11:39:28,801508
-4,-3,-2,-3,-5,-4,-3,-4,2021-08-07 11:39:28,801508
0,2,5,5,15,7,2,0,2021-08-07 11:39:28,830508
1,2,3,1,-1,0,3,2,2021-08-07 11:39:28,830508
0,-1,-1,-2,-1,-1,-1,-1,2021-08-07 11:39:28,830508
-1,-1,-5,-4,-1,-3,-2,-2,2021-08-07 11:39:28,830508
-1,-4,0,-3,-10,-6,-4,0,2021-08-07 11:39:28,846506
-2,0,-4,-7,-5,-1,-2,-3,2021-08-07 11:39:28,862508
3,2,2,4,2,2,0,1,2021-08-07 11:39:28,862508
-2,0,-1,-2,-1,-1,0,-1,2021-08-07 11:39:28,862508
0,1,2,2,1,0,-1,0,2021-08-07 11:39:28,862508
-1,1,-3,-2,-3,-1,1,0,2021-08-07 11:39:28,862508
-3,-3,-7,-13,-11,-6,-4,-3,2021-08-07 11:39:28,863508
3,3,6,10,10,5,2,0,2021-08-07 11:39:28,863508
-1,-2,-3,0,-4,-2,-2,-1,2021-08-07 11:39:28,877507
-1,-1,-1,-4,0,1,1,-3,2021-08-07 11:39:28,894508
0,1,3,11,2,1,1,0,2021-08-07 11:39:28,894508
0,-2,-1,0,3,0,-1,-2,2021-08-07 11:39:28,894508
-1,-2,-6,-13,-7,-4,0,-1,2021-08-07 11:39:28,910507
-2,-2,-5,-6,-3,-4,-4,-2,2021-08-07 11:39:28,925508
0,-1,-2,-4,1,0,-2,-1,2021-08-07 11:39:28,941506
-3,-2,1,-1,4,3,1,-2,2021-08-07 11:39:28,957506
1,4,7,18,8,3,1,2,2021-08-07 11:39:28,957506
-3,0,-2,0,-1,-1,-2,-1,2021-08-07 11:39:28,957506
0,-1,-4,-19,-15,-6,-2,1,2021-08-07 11:39:28,957506
-1,-1,0,11,9,2,-1,-1,2021-08-07 11:39:28,957506
-4,-2,-5,-11,-8,-4,-4,-3,2021-08-07 11:39:28,958507
1,-1,0,3,0,0,-1,1,2021-08-07 11:39:28,958507
-1,1,0,-1,-2,0,0,0,2021-08-07 11:39:28,958507
3,1,-2,-2,-1,0,0,0,2021-08-07 11:39:28,958507
-4,-4,-4,-5,-3,-3,-2,-3,2021-08-07 11:39:28,958507
-1,-1,0,-1,-2,-2,-1,0,2021-08-07 11:39:28,958507
4,5,4,5,5,4,4,3,2021-08-07 11:39:28,958507
-2,-2,-5,-7,-3,-2,-1,2,2021-08-07 11:39:28,959506
-2,-3,2,1,-5,-4,-3,-4,2021-08-07 11:39:29,004506
1,-2,-3,-6,0,0,-1,0,2021-08-07 11:39:29,004506
-1,-2,0,11,10,1,0,-1,2021-08-07 11:39:29,004506
1,0,0,5,0,1,2,-1,2021-08-07 11:39:29,020508
0,0,5,14,1,-1,-1,1,2021-08-07 11:39:29,036508
0,4,1,-5,-8,-3,-3,0,2021-08-07 11:39:29,036508
-1,-3,-6,-11,3,2,1,-1,2021-08-07 11:39:29,036508
-3,-6,-3,-3,-3,-3,-1,-2,2021-08-07 11:39:29,036508
-1,1,-5,-4,0,0,-1,-1,2021-08-07 11:39:29,036508
-2,0,1,-1,-1,-3,-1,-3,2021-08-07 11:39:29,036508
0,2,1,4,-1,-2,-1,-1,2021-08-07 11:39:29,036508
-1,2,0,-5,-5,-5,-2,-2,2021-08-07 11:39:29,036508
1,0,-3,-5,-2,-2,1,1,2021-08-07 11:39:29,052507
-1,-3,0,4,1,2,0,-1,2021-08-07 11:39:29,067507
-4,-6,-7,-9,-11,-7,-3,-3,2021-08-07 11:39:29,067507
3,2,5,8,16,6,3,1,2021-08-07 11:39:29,067507
-2,-1,-2,0,0,0,-1,-2,2021-08-07 11:39:29,067507
0,0,-2,0,3,0,-1,-2,2021-08-07 11:39:29,067507
-1,-2,0,1,-5,-2,-1,-1,2021-08-07 11:39:29,067507
0,1,-1,-2,-4,-1,-1,0,2021-08-07 11:39:29,067507
0,-1,-3,-3,0,1,-2,0,2021-08-07 11:39:29,082506
1,-3,-4,-6,-12,-6,-4,-1,2021-08-07 11:39:29,082506
-4,-3,-1,-2,1,1,-1,0,2021-08-07 11:39:29,082506
1,5,6,13,13,6,3,2,2021-08-07 11:39:29,082506
0,0,1,1,2,3,1,0,2021-08-07 11:39:29,114506
-3,-4,1,4,2,2,0,-1,2021-08-07 11:39:29,129507
-3,-2,-3,-16,-14,-7,-5,-3,2021-08-07 11:39:29,129507
0,0,-1,1,-3,-1,0,1,2021-08-07 11:39:29,129507
-3,-2,-5,-6,-2,-1,-1,0,2021-08-07 11:39:29,129507
0,2,4,7,4,1,-1,0,2021-08-07 11:39:29,129507
0,-1,-2,0,-4,-1,-1,-1,2021-08-07 11:39:29,129507
-2,-2,-4,-9,-10,-4,-4,-1,2021-08-07 11:39:29,129507
3,1,3,5,2,2,2,1,2021-08-07 11:39:29,161506
-1,-1,-6,-6,4,2,1,-1,2021-08-07 11:39:29,161506
2,3,9,18,15,7,2,1,2021-08-07 11:39:29,161506
-7,-7,-8,-12,-15,-11,-8,-8,2021-08-07 11:39:29,161506
-2,-1,0,-1,-1,0,-1,-2,2021-08-07 11:39:29,161506
-5,-4,-4,-3,-7,-4,-2,-2,2021-08-07 11:39:29,177509
4,3,2,2,2,5,7,6,2021-08-07 11:39:29,193506
5,4,3,3,5,9,14,9,2021-08-07 11:39:29,193506
4,4,2,4,9,5,1,3,2021-08-07 11:39:29,193506
-5,-3,0,-2,-4,-15,-18,-11,2021-08-07 11:39:29,193506
-16,-11,-6,-5,-9,-21,-24,-19,2021-08-07 11:39:29,225508
-8,-7,-10,-19,-21,-12,-7,-5,2021-08-07 11:39:29,225508
6,4,7,13,8,7,11,6,2021-08-07 11:39:29,225508
6,2,1,-1,3,9,12,8,2021-08-07 11:39:29,225508
1,-1,-2,-4,-6,2,3,2,2021-08-07 11:39:29,225508
0,-1,-1,2,3,2,4,1,2021-08-07 11:39:29,225508
0,-2,-3,-6,-8,-4,-6,-1,2021-08-07 11:39:29,226507
-2,-1,4,14,11,-2,-8,-6,2021-08-07 11:39:29,226507
0,0,-3,-9,-7,-5,-1,-1,2021-08-07 11:39:29,226507
0,1,-1,-5,-7,0,2,1,2021-08-07 11:39:29,226507
-2,-1,2,5,7,4,2,1,2021-08-07 11:39:29,241508
-2,-2,-6,-5,-7,-4,-3,-2,2021-08-07 11:39:29,257507
-1,-1,-2,-3,1,-3,-2,-2,2021-08-07 11:39:29,257507
0,0,1,3,1,1,-1,-2,2021-08-07 11:39:29,257507
-4,-3,-8,-15,-15,-9,-5,-4,2021-08-07 11:39:29,257507
-1,-2,3,4,4,5,6,2,2021-08-07 11:39:29,258508
3,4,5,7,7,8,5,4,2021-08-07 11:39:29,273507
-3,-5,-4,-9,-7,-7,-7,-5,2021-08-07 11:39:29,289505
-7,-3,-6,-6,-2,-5,-6,-5,2021-08-07 11:39:29,289505
0,2,3,-1,1,1,2,0,2021-08-07 11:39:29,289505
-2,-2,-4,-2,-4,0,1,2,2021-08-07 11:39:29,289505
-1,-1,3,5,1,0,1,-2,2021-08-07 11:39:29,289505
1,-1,-2,-3,3,3,3,2,2021-08-07 11:39:29,305506
3,3,2,5,7,4,4,3,2021-08-07 11:39:29,320508
1,3,-1,-2,-2,2,4,3,2021-08-07 11:39:29,320508
-1,1,0,-3,-3,-2,-6,-2,2021-08-07 11:39:29,329507
-8,-8,-8,-16,-16,-12,-8,-7,2021-08-07 11:39:29,329507
1,1,4,10,1,2,3,1,2021-08-07 11:39:29,329507
4,2,1,2,11,4,2,5,2021-08-07 11:39:29,329507
-5,-7,-4,-2,-2,-4,-4,-6,2021-08-07 11:39:29,330507
0,3,5,4,2,3,1,-1,2021-08-07 11:39:29,352507
-2,-2,-3,-11,-10,-1,-2,0,2021-08-07 11:39:29,368507
-4,-6,-6,-8,-11,-4,-2,-3,2021-08-07 11:39:29,368507
6,6,11,22,17,7,5,6,2021-08-07 11:39:29,368507
3,1,-1,2,-2,-1,1,2,2021-08-07 11:39:29,368507
-6,-4,-4,-14,-12,-10,-5,-5,2021-08-07 11:39:29,368507
2,1,5,11,9,3,1,0,2021-08-07 11:39:29,368507
1,-2,-6,-8,0,-1,-3,0,2021-08-07 11:39:29,369507
1,0,-1,1,-3,-2,-1,1,2021-08-07 11:39:29,384506
-1,-1,-3,-3,-2,1,0,1,2021-08-07 11:39:29,400508
-5,-3,-4,-4,-1,-1,0,-1,2021-08-07 11:39:29,400508
-4,0,3,5,3,0,-2,-6,2021-08-07 11:39:29,400508
-3,1,0,-1,0,-2,-2,-3,2021-08-07 11:39:29,400508
-1,0,-5,-5,-5,-7,-4,-1,2021-08-07 11:39:29,400508
1,0,1,1,-4,-5,-2,-2,2021-08-07 11:39:29,400508
0,0,-2,-4,-6,-5,-1,0,2021-08-07 11:39:29,401507
1,0,5,11,4,4,2,1,2021-08-07 11:39:29,432507
1,-1,-4,-5,1,2,2,2,2021-08-07 11:39:29,448510
-1,0,-1,0,9,2,-2,-2,2021-08-07 11:39:29,448510
-3,-2,-2,-2,1,-1,-2,-1,2021-08-07 11:39:29,448510
1,2,-1,0,0,-1,1,0,2021-08-07 11:39:29,448510
0,-1,-3,1,-3,-1,-1,-3,2021-08-07 11:39:29,448510
-2,-3,-3,-4,-4,-3,-1,-2,2021-08-07 11:39:29,448510
-1,0,-1,-5,-3,-1,-2,1,2021-08-07 11:39:29,448510
-3,-2,-2,0,3,-2,-2,-3,2021-08-07 11:39:29,464507
-1,-1,-4,-9,-6,-1,-2,-3,2021-08-07 11:39:29,464507
1,0,-1,3,-3,0,0,1,2021-08-07 11:39:29,464507
-2,0,-1,4,0,-1,-2,-2,2021-08-07 11:39:29,464507
1,2,3,7,5,1,-1,-1,2021-08-07 11:39:29,496506
-4,-4,-4,-9,-4,-2,-1,-1,2021-08-07 11:39:29,496506
0,0,-5,-11,-9,-2,1,1,2021-08-07 11:39:29,496506
0,0,4,12,13,4,2,1,2021-08-07 11:39:29,496506
-2,-2,-1,-2,1,1,0,-1,2021-08-07 11:39:29,496506
0,0,0,5,0,-2,-1,1,2021-08-07 11:39:29,496506
-3,-2,-6,-14,-12,-6,-6,-3,2021-08-07 11:39:29,512506
2,4,5,9,4,3,0,0,2021-08-07 11:39:29,512506
-1,-3,-4,-5,-5,-3,-1,-1,2021-08-07 11:39:29,528505
-2,-2,-1,1,4,3,0,1,2021-08-07 11:39:29,528505
-1,-1,0,0,-3,-2,-1,-2,2021-08-07 11:39:29,543507
0,-2,-4,-7,-2,-2,0,-2,2021-08-07 11:39:29,559508
1,0,3,4,3,1,1,2,2021-08-07 11:39:29,559508
-1,-1,-1,-4,-2,-1,-1,-1,2021-08-07 11:39:29,559508
-2,-3,1,1,1,-1,-1,-1,2021-08-07 11:39:29,559508
3,4,5,5,1,1,2,1,2021-08-07 11:39:29,559508
-2,-4,-5,-7,-5,-4,-1,-3,2021-08-07 11:39:29,560507
1,2,5,7,4,0,1,2,2021-08-07 11:39:29,560507
-1,-1,1,3,-1,1,0,-1,2021-08-07 11:39:29,575510
-2,0,-4,-2,2,-1,-1,-2,2021-08-07 11:39:29,591508
-2,-3,-5,-10,-8,-5,-3,-1,2021-08-07 11:39:29,607505
0,1,-2,-1,-1,-2,-1,-1,2021-08-07 11:39:29,607505
-1,-1,-1,-3,0,-1,-1,-3,2021-08-07 11:39:29,607505
-1,-4,-2,-5,-5,-1,-1,-1,2021-08-07 11:39:29,607505
-1,0,4,9,6,0,-1,0,2021-08-07 11:39:29,607505
0,-2,-5,-10,-5,-3,0,0,2021-08-07 11:39:29,608508
0,-1,0,5,4,3,-1,-2,2021-08-07 11:39:29,608508
-2,-4,-6,-7,-6,-3,-2,-4,2021-08-07 11:39:29,608508
0,-1,0,0,-1,0,-1,-2,2021-08-07 11:39:29,623506
0,-2,4,4,2,-1,-1,0,2021-08-07 11:39:29,639508
0,-1,-1,-1,-4,-3,-3,-2,2021-08-07 11:39:29,655506
-1,-3,-7,-17,-17,-5,-2,-2,2021-08-07 11:39:29,655506
3,2,3,8,12,5,0,1,2021-08-07 11:39:29,655506
4,5,9,27,20,9,5,4,2021-08-07 11:39:29,655506
-1,-2,-2,-2,0,1,1,-2,2021-08-07 11:39:29,655506
-5,-5,-6,-8,-9,-6,-4,-4,2021-08-07 11:39:29,656509
0,-1,2,2,-1,-1,-1,-1,2021-08-07 11:39:29,671507
0,0,-1,-1,0,0,0,0,2021-08-07 11:39:29,687506
-2,-3,-5,-4,-5,-4,-1,-1,2021-08-07 11:39:29,687506
-2,-4,-3,-5,-4,-2,-3,-1,2021-08-07 11:39:29,687506
-3,-4,-5,-8,-6,-3,-2,0,2021-08-07 11:39:29,687506
4,4,6,10,9,5,3,1,2021-08-07 11:39:29,687506
0,1,3,2,0,-2,-1,-1,2021-08-07 11:39:29,688508
-4,-2,-5,-9,-9,-4,-3,-2,2021-08-07 11:39:29,688508
-2,-1,-2,3,2,2,-1,-1,2021-08-07 11:39:29,703507
-4,-4,-4,-3,7,3,-1,-2,2021-08-07 11:39:29,719507
3,5,6,5,4,4,4,3,2021-08-07 11:39:29,751507
0,2,3,4,3,1,1,1,2021-08-07 11:39:29,751507
0,-1,-1,-5,-7,-4,-2,-2,2021-08-07 11:39:29,751507
-3,-3,-6,-11,-13,-7,-3,-3,2021-08-07 11:39:29,751507
-4,-4,-5,-4,-3,-1,-3,-2,2021-08-07 11:39:29,751507
1,-1,1,5,2,0,-1,1,2021-08-07 11:39:29,751507
-5,-5,-7,-12,-8,-4,-3,-4,2021-08-07 11:39:29,751507
3,2,0,-4,-3,0,-1,0,2021-08-07 11:39:29,752508
5,7,5,7,7,1,2,3,2021-08-07 11:39:29,752508
0,0,0,7,1,1,0,-1,2021-08-07 11:39:29,752508
1,-1,-2,-3,0,0,0,1,2021-08-07 11:39:29,767506
-5,-6,-5,-5,-6,-5,-4,-3,2021-08-07 11:39:29,774507
-3,-1,1,1,0,1,-1,0,2021-08-07 11:39:29,774507
-1,-2,-2,-5,-3,-3,-3,0,2021-08-07 11:39:29,775507
0,2,1,3,-2,1,1,0,2021-08-07 11:39:29,799507
2,2,5,15,27,13,5,2,2021-08-07 11:39:29,799507
2,2,2,-2,-4,1,4,3,2021-08-07 11:39:29,799507
0,0,-2,0,-2,0,1,-1,2021-08-07 11:39:29,799507
-1,-1,-3,-6,-8,-5,-1,-2,2021-08-07 11:39:29,815537
-4,-2,-5,-7,-11,-7,-6,-4,2021-08-07 11:39:29,831535
-3,-6,-8,-8,-4,-3,-5,-3,2021-08-07 11:39:29,831535
-1,-1,0,-3,-1,-5,-4,-1,2021-08-07 11:39:29,831535
-1,2,-1,3,4,0,1,0,2021-08-07 11:39:29,831535
0,0,0,3,-2,1,3,1,2021-08-07 11:39:29,831535
-3,-3,-2,-1,3,4,5,1,2021-08-07 11:39:29,832536
2,0,-2,-8,-7,-3,-2,2,2021-08-07 11:39:29,832536
0,-3,-5,-10,-14,-10,-6,-3,2021-08-07 11:39:29,847536
-5,-3,0,1,-2,-6,-5,-6,2021-08-07 11:39:29,862536
4,3,4,13,25,16,13,6,2021-08-07 11:39:29,878536
7,6,4,7,8,12,6,4,2021-08-07 11:39:29,878536
-2,0,-1,-10,-12,-13,-11,-5,2021-08-07 11:39:29,878536
-3,-1,3,2,-7,-6,-6,-3,2021-08-07 11:39:29,878536
-3,-4,-4,-1,-4,-4,-2,-1,2021-08-07 11:39:29,879537
-6,-4,-4,-4,-4,0,1,-2,2021-08-07 11:39:29,879537
4,3,1,9,18,15,9,7,2021-08-07 11:39:29,879537
4,3,3,0,-2,5,3,3,2021-08-07 11:39:29,879537
12,10,6,8,10,29,30,19,2021-08-07 11:39:29,879537
23,13,2,6,12,34,28,26,2021-08-07 11:39:29,879537
-13,-11,-5,-3,-23,-52,-58,-31,2021-08-07 11:39:29,910535
-62,-43,-29,-30,-44,-97,-92,-75,2021-08-07 11:39:29,926536
-17,-13,-7,-15,-6,8,17,1,2021-08-07 11:39:29,942537
19,15,15,32,52,56,42,27,2021-08-07 11:39:29,942537
29,20,11,7,8,12,11,22,2021-08-07 11:39:29,942537
-13,-4,-7,-21,-39,-49,-36,-25,2021-08-07 11:39:29,942537
9,5,-2,-2,-7,1,7,5,2021-08-07 11:39:29,942537
7,1,-2,-8,-2,16,14,8,2021-08-07 11:39:29,942537
8,10,12,15,20,25,20,11,2021-08-07 11:39:29,942537
-30,-20,-11,-13,-6,15,23,-1,2021-08-07 11:39:29,943537
9,0,-4,-3,1,18,13,11,2021-08-07 11:39:29,943537
10,13,8,5,4,-13,-16,-4,2021-08-07 11:39:29,943537
38,22,4,15,21,5,-7,20,2021-08-07 11:39:29,974535
58,17,2,0,0,-4,-12,20,2021-08-07 11:39:29,974535
-109,-58,-29,-42,-74,-124,-103,-116,2021-08-07 11:39:29,974535
-43,-47,-24,-24,-21,-11,9,-19,2021-08-07 11:39:29,974535
18,0,5,9,26,53,56,24,2021-08-07 11:39:29,974535
59,31,19,25,44,88,71,66,2021-08-07 11:39:29,974535
72,43,22,24,11,-1,-6,39,2021-08-07 11:39:29,990535
-35,-22,-26,-54,-88,-90,-73,-50,2021-08-07 11:39:29,990535
-24,-7,4,9,19,1,-2,-11,2021-08-07 11:39:30,006535
13,11,11,27,44,48,41,24,2021-08-07 11:39:30,006535
6,4,5,4,8,18,8,5,2021-08-07 11:39:30,006535
-16,-2,3,9,-6,-32,-30,-23,2021-08-07 11:39:30,006535
-12,-13,-16,-31,-26,4,14,0,2021-08-07 11:39:30,038053
9,7,8,9,20,21,19,15,2021-08-07 11:39:30,054052
-12,-4,3,18,14,-19,-27,-20,2021-08-07 11:39:30,086054
0,-4,-4,-10,-4,6,6,3,2021-08-07 11:39:30,102055
13,7,-1,-7,-13,19,19,17,2021-08-07 11:39:30,102055
-31,-19,-20,-43,-71,-78,-60,-45,2021-08-07 11:39:30,102055
0,1,9,32,56,25,9,5,2021-08-07 11:39:30,102055
16,10,10,14,40,24,13,14,2021-08-07 11:39:30,102055
-4,1,17,47,13,6,2,-7,2021-08-07 11:39:30,103054
-12,-7,-7,-20,-29,-6,1,-5,2021-08-07 11:39:30,103054
14,4,-4,12,34,18,12,13,2021-08-07 11:39:30,103054
-5,-10,-23,-44,-27,-10,-7,-5,2021-08-07 11:39:30,103054
-12,-4,1,-13,-21,-22,-15,-13,2021-08-07 11:39:30,103054
3,4,5,3,-11,0,7,5,2021-08-07 11:39:30,103054
-1,-11,-14,-16,-22,0,1,2,2021-08-07 11:39:30,103054
11,12,8,19,33,14,7,5,2021-08-07 11:39:30,104054
-14,-7,2,-4,-12,-21,-17,-15,2021-08-07 11:39:30,104054
-5,-3,0,-21,-37,-9,-3,-4,2021-08-07 11:39:30,104054
13,9,14,58,43,27,15,10,2021-08-07 11:39:30,104054
-1,-4,-9,-5,8,-1,-4,-3,2021-08-07 11:39:30,104054
-15,-14,-25,-52,-60,-34,-18,-14,2021-08-07 11:39:30,134054
-2,-1,-1,2,7,11,4,1,2021-08-07 11:39:30,150054
5,7,14,9,10,6,5,5,2021-08-07 11:39:30,166054
0,1,8,19,0,-5,-4,0,2021-08-07 11:39:30,166054
-3,-3,0,17,24,6,-1,-1,2021-08-07 11:39:30,166054
5,7,2,8,13,6,6,2,2021-08-07 11:39:30,166054
-4,-11,-16,-51,-58,-26,-9,-4,2021-08-07 11:39:30,167055
8,6,9,8,3,1,4,5,2021-08-07 11:39:30,167055
-5,-4,-8,-9,-3,-3,-3,-4,2021-08-07 11:39:30,167055
1,-1,-3,0,6,2,4,3,2021-08-07 11:39:30,167055
-5,-7,-10,-20,-10,-2,-3,-4,2021-08-07 11:39:30,167055
5,11,14,27,22,11,5,3,2021-08-07 11:39:30,167055
-10,-6,-4,7,7,0,-7,-9,2021-08-07 11:39:30,182054
-1,-2,-6,-20,-9,0,0,0,2021-08-07 11:39:30,182054
-1,-1,-4,-4,9,1,-1,1,2021-08-07 11:39:30,198053
-3,-2,1,0,-6,-3,-4,-2,2021-08-07 11:39:30,214055
4,2,0,1,0,-3,1,0,2021-08-07 11:39:30,214055
-2,-1,0,14,17,6,2,-2,2021-08-07 11:39:30,214055
-3,-2,-5,-15,-21,-7,-1,0,2021-08-07 11:39:30,229053
4,2,2,-1,-2,-4,-1,1,2021-08-07 11:39:30,229053
-5,-5,-10,-24,-19,-10,-5,-6,2021-08-07 11:39:30,229053
7,7,15,43,53,24,13,6,2021-08-07 11:39:30,229053
-9,-9,-10,-23,-40,-17,-9,-8,2021-08-07 11:39:30,239054
3,2,4,10,14,8,3,4,2021-08-07 11:39:30,239054
8,10,14,25,30,11,6,6,2021-08-07 11:39:30,239054
-2,-3,-2,1,4,0,-3,-2,2021-08-07 11:39:30,240053
-3,1,-1,-7,-20,-5,-1,-1,2021-08-07 11:39:30,261053
-7,-7,-12,-21,-23,-11,-8,-5,2021-08-07 11:39:30,276054
-1,-3,-3,1,11,5,2,-1,2021-08-07 11:39:30,292054
4,3,2,17,18,6,3,2,2021-08-07 11:39:30,292054
-1,-4,-10,-30,-15,-6,-3,-1,2021-08-07 11:39:30,292054
-8,-8,-2,-18,-24,-9,-7,-6,2021-08-07 11:39:30,292054
2,0,-6,-5,-2,-2,-1,1,2021-08-07 11:39:30,292054
2,2,5,6,2,1,1,1,2021-08-07 11:39:30,292054
4,3,8,26,11,5,3,1,2021-08-07 11:39:30,293053
-2,-2,-9,-12,-5,-3,-2,-3,2021-08-07 11:39:30,293053
-2,-3,1,0,4,0,-1,-2,2021-08-07 11:39:30,307053
-3,-1,-1,3,2,0,0,-1,2021-08-07 11:39:30,307053
0,-1,-4,-17,-12,-4,-3,0,2021-08-07 11:39:30,307053
1,-1,6,18,6,1,-1,2,2021-08-07 11:39:30,307053
0,1,2,1,8,1,1,0,2021-08-07 11:39:30,339053
0,0,1,12,19,9,3,1,2021-08-07 11:39:30,355053
-1,-2,-1,1,8,3,0,-2,2021-08-07 11:39:30,355053
7,9,7,19,23,11,6,5,2021-08-07 11:39:30,355053
-3,-5,-6,-5,-18,-8,-3,-2,2021-08-07 11:39:30,355053
-2,-2,-5,-19,-19,-10,-3,-2,2021-08-07 11:39:30,355679
-4,-4,-2,-5,-7,0,-3,-4,2021-08-07 11:39:30,355679
2,2,3,6,14,3,2,0,2021-08-07 11:39:30,356054
1,2,0,-2,-5,-1,-1,0,2021-08-07 11:39:30,371088
-1,-3,-4,-10,-7,-3,-1,0,2021-08-07 11:39:30,387086
0,0,-1,-4,-12,-7,-2,-2,2021-08-07 11:39:30,403086
-2,-1,-3,1,9,1,-3,-2,2021-08-07 11:39:30,419086
-1,-4,4,15,10,3,2,0,2021-08-07 11:39:30,435086
0,3,-2,-12,-12,-4,-1,-1,2021-08-07 11:39:30,435086
-1,-3,-8,-6,8,0,-2,0,2021-08-07 11:39:30,435086
3,3,5,11,-1,2,2,0,2021-08-07 11:39:30,435086
-4,-8,-10,-20,-17,-8,-6,-4,2021-08-07 11:39:30,435086
-1,-2,2,6,4,-3,-5,0,2021-08-07 11:39:30,435086
2,3,7,18,25,12,6,1,2021-08-07 11:39:30,436086
-1,-2,-3,-2,-3,-4,0,0,2021-08-07 11:39:30,436086
-2,-1,-1,-10,2,1,0,0,2021-08-07 11:39:30,436086
2,3,10,20,2,1,1,0,2021-08-07 11:39:30,436086
6,7,13,25,26,9,4,3,2021-08-07 11:39:30,436086
-3,-6,-12,-14,-21,-7,-2,-3,2021-08-07 11:39:30,436086
-11,-16,-30,-49,-32,-17,-11,-10,2021-08-07 11:39:30,451087
-9,-9,-7,-25,-13,-6,-7,-7,2021-08-07 11:39:30,467087
0,-2,-5,10,3,-3,-2,0,2021-08-07 11:39:30,467087
8,9,11,5,3,6,5,5,2021-08-07 11:39:30,467087
7,9,19,47,36,15,6,4,2021-08-07 11:39:30,467087
-4,-3,0,4,0,-1,-1,-2,2021-08-07 11:39:30,467087
3,6,2,-7,-19,-6,2,4,2021-08-07 11:39:30,468090
-3,-5,-6,3,20,5,0,-2,2021-08-07 11:39:30,468090
3,3,3,-10,-10,-2,0,1,2021-08-07 11:39:30,483086
0,-2,-1,9,17,5,2,0,2021-08-07 11:39:30,483086
-5,-6,-4,-2,-10,-6,-5,-6,2021-08-07 11:39:30,499088
-1,-1,-9,-14,-26,-10,-3,0,2021-08-07 11:39:30,499088
-2,-1,-4,-11,13,5,2,0,2021-08-07 11:39:30,514086
-4,-4,-8,-18,-22,-10,-5,-4,2021-08-07 11:39:30,530087
0,1,4,5,11,7,2,2,2021-08-07 11:39:30,530087
-5,-4,-2,-4,-3,-2,-4,-2,2021-08-07 11:39:30,530087
-5,-7,-5,-3,-20,-9,-4,-5,2021-08-07 11:39:30,530087
8,9,9,8,2,4,6,7,2021-08-07 11:39:30,530087
-2,-1,1,4,4,1,-1,-1,2021-08-07 11:39:30,530087
-4,-4,1,6,1,-2,-2,-3,2021-08-07 11:39:30,531087
6,9,10,9,13,7,5,3,2021-08-07 11:39:30,546089
-6,-7,-10,-14,-4,-6,-6,-5,2021-08-07 11:39:30,546089
0,-2,-9,-2,5,2,0,0,2021-08-07 11:39:30,546089
-3,-3,0,-10,-21,-9,-3,-3,2021-08-07 11:39:30,546089
-6,-9,-13,-7,-1,-3,-4,-4,2021-08-07 11:39:30,577090
3,6,5,4,4,3,2,2,2021-08-07 11:39:30,593085
4,5,9,16,19,7,1,3,2021-08-07 11:39:30,609087
-7,-9,-15,-21,-25,-14,-6,-5,2021-08-07 11:39:30,609087
-4,-3,-7,-23,-10,-4,-3,0,2021-08-07 11:39:30,609087
1,-2,0,-9,-10,-3,0,0,2021-08-07 11:39:30,609087
0,2,6,17,14,4,0,1,2021-08-07 11:39:30,609087
5,3,8,11,5,4,3,3,2021-08-07 11:39:30,610087
0,3,9,10,-10,-4,-1,-1,2021-08-07 11:39:30,610087
-5,-7,-10,-4,1,2,-2,-3,2021-08-07 11:39:30,610087
-9,-11,-16,-33,-39,-19,-10,-7,2021-08-07 11:39:30,610087
5,7,8,20,37,16,8,5,2021-08-07 11:39:30,610087
-2,-2,5,20,31,7,0,-1,2021-08-07 11:39:30,625086
2,3,-4,-10,-20,-6,-2,2,2021-08-07 11:39:30,625086
-4,-7,-9,-18,-18,-10,-4,-5,2021-08-07 11:39:30,625086
0,-1,-2,4,6,1,0,-2,2021-08-07 11:39:30,625086
0,2,2,3,-3,-1,-1,-1,2021-08-07 11:39:30,656087
-3,-4,-2,-5,-1,-2,-3,-4,2021-08-07 11:39:30,656087
-2,1,-2,-10,-18,-9,-2,-4,2021-08-07 11:39:30,656087
-2,-4,-10,-19,-16,-9,-6,-3,2021-08-07 11:39:30,656087
3,1,3,1,8,7,4,5,2021-08-07 11:39:30,672088
-5,-8,-7,-16,-20,-13,-6,-4,2021-08-07 11:39:30,688088
2,4,9,25,35,15,5,3,2021-08-07 11:39:30,688088
0,1,3,7,-8,-3,-2,-2,2021-08-07 11:39:30,688088
6,7,7,25,24,9,5,4,2021-08-07 11:39:30,688088
-3,-3,-5,-6,-8,-6,-3,-3,2021-08-07 11:39:30,688088
-1,-2,-6,-19,-11,-4,-2,0,2021-08-07 11:39:30,688088
-4,-2,3,-2,-2,-2,-3,-2,2021-08-07 11:39:30,688088
2,2,2,6,-15,-3,-2,-1,2021-08-07 11:39:30,720091
6,6,14,15,24,11,6,5,2021-08-07 11:39:30,736087
-3,-7,-19,-23,-12,-6,-4,-4,2021-08-07 11:39:30,752086
-5,-9,-15,-3,3,-2,-2,-3,2021-08-07 11:39:30,752086
-1,2,-1,-11,-3,-2,-2,-2,2021-08-07 11:39:30,752086
4,3,10,39,36,16,7,4,2021-08-07 11:39:30,752086
-2,0,5,-4,-15,-7,-3,-2,2021-08-07 11:39:30,752086
0,1,-1,-9,-11,-2,1,0,2021-08-07 11:39:30,752086
-1,-3,-5,-7,-3,-3,0,-3,2021-08-07 11:39:30,753088
1,3,2,8,7,1,0,1,2021-08-07 11:39:30,753088
-3,-4,0,-5,-12,-5,-3,-3,2021-08-07 11:39:30,753088
-3,-2,-1,2,3,-2,-2,-1,2021-08-07 11:39:30,768086
1,2,6,-6,-15,-4,-1,2,2021-08-07 11:39:30,799086
0,3,5,25,27,10,4,1,2021-08-07 11:39:30,815088
-1,-4,-11,-9,-7,-3,-2,0,2021-08-07 11:39:30,815088
-9,-9,-14,-42,-16,-9,-6,-7,2021-08-07 11:39:30,815088
3,4,1,-1,1,1,2,4,2021-08-07 11:39:30,815088
-1,-3,0,-12,-9,-5,-3,-2,2021-08-07 11:39:30,815088
5,3,4,27,11,9,4,4,2021-08-07 11:39:30,831090
1,0,4,14,11,4,3,0,2021-08-07 11:39:30,847086
-4,-6,-14,-24,-19,-7,-5,-4,2021-08-07 11:39:30,862086
-5,-4,-10,-19,-13,-6,-4,-3,2021-08-07 11:39:30,862086
-1,-1,7,-7,1,-2,-2,-2,2021-08-07 11:39:30,862086
1,1,-1,-9,-16,-5,-2,0,2021-08-07 11:39:30,862086
3,2,11,24,5,2,1,3,2021-08-07 11:39:30,862086
8,7,8,29,36,14,6,4,2021-08-07 11:39:30,863086
-5,-4,-9,-22,-7,-2,-4,-6,2021-08-07 11:39:30,863086
-2,-1,1,-4,-1,-3,-2,0,2021-08-07 11:39:30,863086
-2,0,0,7,4,-1,-1,-1,2021-08-07 11:39:30,863086
-4,-5,-9,-16,-28,-11,-5,-2,2021-08-07 11:39:30,863086
4,5,11,17,7,3,1,2,2021-08-07 11:39:30,863086
0,0,1,-1,4,1,-1,-1,2021-08-07 11:39:30,863086
-3,-3,-8,-11,-6,-4,-2,-3,2021-08-07 11:39:30,878085
-2,-5,-13,-15,-17,-5,-2,-2,2021-08-07 11:39:30,894087
-2,-3,-4,-10,-3,-2,-2,-1,2021-08-07 11:39:30,894087
-4,-2,-2,5,1,-3,-3,-1,2021-08-07 11:39:30,894087
-4,-4,-5,-10,-1,-2,-2,-3,2021-08-07 11:39:30,910087
3,10,26,30,16,9,5,3,2021-08-07 11:39:30,926087
6,10,20,34,35,16,9,6,2021-08-07 11:39:30,942088
0,-5,-20,-24,-8,-2,-2,-1,2021-08-07 11:39:30,942088
-6,-12,-18,-19,-23,-12,-6,-5,2021-08-07 11:39:30,942088
-5,-10,-19,-25,-18,-8,-7,-7,2021-08-07 11:39:30,942088
-4,-4,-5,-15,-15,-8,-3,-1,2021-08-07 11:39:30,942088
4,9,24,33,16,6,3,1,2021-08-07 11:39:30,942088
1,2,1,9,0,2,-1,0,2021-08-07 11:39:30,943087
-2,-4,-5,-3,13,2,-1,-3,2021-08-07 11:39:30,943087
-4,-5,-5,-19,-27,-12,-4,-2,2021-08-07 11:39:30,943087
1,0,-2,-7,-8,-4,-2,0,2021-08-07 11:39:30,943087
0,0,0,3,7,2,1,-1,2021-08-07 11:39:30,958086
-2,-3,-4,3,-5,-4,-2,-2,2021-08-07 11:39:30,958086
6,8,10,14,7,7,7,5,2021-08-07 11:39:30,958086
3,3,4,24,22,8,4,4,2021-08-07 11:39:30,958086
-5,-5,-9,-32,-38,-14,-5,-6,2021-08-07 11:39:30,958086
-7,-6,-10,-16,-1,-3,-6,-5,2021-08-07 11:39:30,958086
-3,0,-3,9,28,5,-2,-3,2021-08-07 11:39:30,974085
-4,-3,1,-5,-22,-7,-6,-4,2021-08-07 11:39:30,990086
0,0,2,-3,-2,-3,0,0,2021-08-07 11:39:31,005086
2,4,6,2,-5,-2,-1,1,2021-08-07 11:39:31,005086
4,4,1,2,-11,-2,0,1,2021-08-07 11:39:31,005086
8,3,-3,17,25,16,9,5,2021-08-07 11:39:31,005086
-4,-8,-12,-18,7,-2,-2,-4,2021-08-07 11:39:31,005086
-2,-1,-6,-6,-4,-4,-1,-3,2021-08-07 11:39:31,005086
-1,1,4,5,-3,-2,-2,-2,2021-08-07 11:39:31,006088
-3,-2,-2,-14,-20,-7,-3,-2,2021-08-07 11:39:31,006088
8,11,19,45,31,17,9,6,2021-08-07 11:39:31,021088
1,0,10,17,21,8,1,1,2021-08-07 11:39:31,021088
-7,-12,-18,-21,-20,-8,-7,-6,2021-08-07 11:39:31,037088
-5,-4,-15,-17,4,-4,-3,-2,2021-08-07 11:39:31,037088
-4,-4,-6,-18,-19,-9,-5,-2,2021-08-07 11:39:31,053086
1,3,7,9,4,0,0,-1,2021-08-07 11:39:31,069087
7,10,16,13,2,4,6,4,2021-08-07 11:39:31,085088
2,3,11,20,3,1,1,1,2021-08-07 11:39:31,085088
-1,-4,-9,-1,3,0,0,0,2021-08-07 11:39:31,085088
-4,-7,-13,-36,-33,-11,-6,-4,2021-08-07 11:39:31,085088
-4,-5,-13,-16,-3,-4,-4,-4,2021-08-07 11:39:31,085088
4,7,15,28,21,9,3,2,2021-08-07 11:39:31,086088
3,5,12,18,8,1,1,1,2021-08-07 11:39:31,086088
2,-2,-9,-4,-10,0,3,1,2021-08-07 11:39:31,101087
-10,-12,-18,-34,-16,-9,-8,-7,2021-08-07 11:39:31,101087
-4,-3,1,-5,-14,-10,-6,-4,2021-08-07 11:39:31,101087
6,7,14,27,36,17,7,5,2021-08-07 11:39:31,101087
-1,0,9,20,3,0,1,0,2021-08-07 11:39:31,101087
2,1,-8,3,15,7,1,2,2021-08-07 11:39:31,101087
-2,0,1,-21,-26,-11,-2,-2,2021-08-07 11:39:31,102089
-1,-3,-3,13,-11,-2,0,0,2021-08-07 11:39:31,133087
1,3,-4,-12,2,3,1,2,2021-08-07 11:39:31,133087
-2,-3,-3,4,11,3,-1,-2,2021-08-07 11:39:31,133087
-4,-5,-1,1,11,3,-1,-1,2021-08-07 11:39:31,133087
2,4,2,-1,-10,-2,1,1,2021-08-07 11:39:31,165086
0,-1,-2,1,-9,-5,-2,-3,2021-08-07 11:39:31,165086
2,1,6,3,2,1,-1,0,2021-08-07 11:39:31,165086
-3,-7,-12,-20,-19,-6,-2,-3,2021-08-07 11:39:31,165086
-7,-10,-11,-14,-4,-8,-7,-7,2021-08-07 11:39:31,166087
1,5,3,5,0,0,1,1,2021-08-07 11:39:31,166087
-1,0,1,-5,1,-1,1,0,2021-08-07 11:39:31,166087
8,10,16,36,16,10,7,5,2021-08-07 11:39:31,166087
-5,-5,-7,-16,-12,-7,-4,-4,2021-08-07 11:39:31,197085
-4,-5,-9,-11,3,-2,-2,-2,2021-08-07 11:39:31,197085
-7,-9,-11,-27,-35,-16,-6,-6,2021-08-07 11:39:31,197085
1,1,3,28,29,10,2,0,2021-08-07 11:39:31,197085
-2,-1,-3,-16,-12,-5,-3,-1,2021-08-07 11:39:31,212087
0,-2,0,-10,-11,-4,-1,1,2021-08-07 11:39:31,212087
1,4,15,29,15,9,2,1,2021-08-07 11:39:31,212087
7,8,8,16,39,17,9,5,2021-08-07 11:39:31,212087
-3,-7,-16,-21,-9,-3,-3,-3,2021-08-07 11:39:31,228088
-11,-12,-15,-23,-15,-9,-8,-7,2021-08-07 11:39:31,228088
5,12,14,15,-7,-1,2,5,2021-08-07 11:39:31,228088
3,5,6,13,5,3,1,1,2021-08-07 11:39:31,228088
0,2,5,7,2,1,0,1,2021-08-07 11:39:31,260087
-9,-14,-14,-14,-3,-1,-2,-6,2021-08-07 11:39:31,276087
-6,-9,-13,-11,-3,-6,-5,-4,2021-08-07 11:39:31,276087
-1,-1,-8,-21,-28,-11,-5,-1,2021-08-07 11:39:31,276087
7,10,16,25,31,15,8,4,2021-08-07 11:39:31,292087
5,6,10,21,19,6,2,3,2021-08-07 11:39:31,292087
-2,-1,8,28,26,11,2,0,2021-08-07 11:39:31,292087
-4,-6,-3,-13,-18,-8,-6,-5,2021-08-07 11:39:31,292087
-2,0,-9,-18,-15,-5,-3,-2,2021-08-07 11:39:31,308087
2,1,-1,6,5,1,0,2,2021-08-07 11:39:31,308087
-5,-7,-16,-32,-19,-7,-4,-5,2021-08-07 11:39:31,308087
-1,-1,3,-5,-21,-10,-3,-1,2021-08-07 11:39:31,308087
6,10,24,46,53,17,6,5,2021-08-07 11:39:31,308087
9,8,11,33,23,14,7,5,2021-08-07 11:39:31,309088
-6,-10,-26,-38,-8,-7,-4,-3,2021-08-07 11:39:31,324086
-11,-13,-9,-23,-13,-7,-7,-6,2021-08-07 11:39:31,340086
-7,-6,-5,-12,-32,-17,-7,-6,2021-08-07 11:39:31,355086
8,12,21,26,16,7,3,5,2021-08-07 11:39:31,355086
1,0,-1,6,-3,-1,0,-1,2021-08-07 11:39:31,355086
3,1,-14,-35,-15,-4,0,2,2021-08-07 11:39:31,355086
-4,-4,-2,7,14,4,0,-2,2021-08-07 11:39:31,355086
-2,-2,-5,-5,-11,-6,-3,-3,2021-08-07 11:39:31,355086
4,8,14,4,-11,-1,2,3,2021-08-07 11:39:31,356087
-4,-8,-21,-9,7,4,0,-2,2021-08-07 11:39:31,356087
-7,-13,-21,-29,-22,-14,-8,-7,2021-08-07 11:39:31,371088
-7,-5,-5,-19,-32,-15,-7,-4,2021-08-07 11:39:31,371088
3,8,22,51,50,19,6,4,2021-08-07 11:39:31,387089
3,6,13,26,5,2,2,1,2021-08-07 11:39:31,403089
0,0,-6,-15,-18,-4,-1,-1,2021-08-07 11:39:31,403089
-8,-9,-15,-41,-31,-17,-9,-9,2021-08-07 11:39:31,403089
-1,3,14,20,4,1,-1,-3,2021-08-07 11:39:31,403089
12,32,54,27,26,11,6,6,2021-08-07 11:39:31,404091
3,7,25,17,11,3,3,3,2021-08-07 11:39:31,404091
-10,-47,-92,-48,-27,-11,-7,-7,2021-08-07 11:39:31,404091
-19,-41,-64,-48,-26,-13,-10,-9,2021-08-07 11:39:31,404091
-11,-11,-23,-7,1,-4,-6,-5,2021-08-07 11:39:31,404091
3,5,-7,0,-6,0,0,1,2021-08-07 11:39:31,435086
11,31,57,38,15,8,4,8,2021-08-07 11:39:31,451088
10,12,12,8,-1,1,4,6,2021-08-07 11:39:31,467086
0,-3,6,1,-2,1,1,1,2021-08-07 11:39:31,483088
1,3,6,-5,8,6,2,1,2021-08-07 11:39:31,499087
-7,-2,0,-11,-1,-5,-5,-3,2021-08-07 11:39:31,499087
-5,-4,-9,-38,-37,-13,-6,-2,2021-08-07 11:39:31,499087
2,3,19,41,44,14,4,0,2021-08-07 11:39:31,499087
9,14,17,33,22,10,7,5,2021-08-07 11:39:31,515088
2,2,1,21,20,9,4,1,2021-08-07 11:39:31,515088
-7,-6,-13,-32,-32,-14,-7,-6,2021-08-07 11:39:31,515088
-6,-9,-21,-50,-44,-16,-8,-4,2021-08-07 11:39:31,515088
-3,-14,-19,-4,27,9,0,1,2021-08-07 11:39:31,515088
0,8,17,7,2,0,-1,-1,2021-08-07 11:39:31,516088
4,6,4,18,8,3,1,2,2021-08-07 11:39:31,516088
1,-3,-15,-8,-16,-5,-1,-1,2021-08-07 11:39:31,516088
-1,-2,9,21,16,4,-1,-2,2021-08-07 11:39:31,516088
2,7,10,-13,-27,-12,-4,0,2021-08-07 11:39:31,516088
10,14,20,41,43,22,11,9,2021-08-07 11:39:31,516088
-7,-12,-18,-27,-19,-13,-7,-7,2021-08-07 11:39:31,517089
-2,-6,-9,-15,0,2,1,2,2021-08-07 11:39:31,531087
-2,-2,7,5,3,-1,0,-3,2021-08-07 11:39:31,531087
3,4,6,8,1,-1,0,0,2021-08-07 11:39:31,531087
3,2,-6,-8,-21,-7,-1,1,2021-08-07 11:39:31,531087
-9,-13,-17,-36,-36,-16,-9,-7,2021-08-07 11:39:31,563085
0,0,-3,20,32,10,2,2,2021-08-07 11:39:31,579087
-1,0,5,6,11,3,-1,-3,2021-08-07 11:39:31,595086
4,5,7,9,5,4,4,3,2021-08-07 11:39:31,595086
-6,-9,-18,-32,-46,-22,-10,-6,2021-08-07 11:39:31,595086
-2,-4,-6,-5,13,4,0,-1,2021-08-07 11:39:31,595086
0,2,14,18,10,3,1,-1,2021-08-07 11:39:31,595086
-1,1,0,6,10,4,0,-1,2021-08-07 11:39:31,595086
-2,-1,0,0,-20,-9,-3,-2,2021-08-07 11:39:31,595086
3,4,8,17,23,9,4,2,2021-08-07 11:39:31,596088
10,13,26,49,36,14,8,6,2021-08-07 11:39:31,596088
-4,-5,-24,-32,-18,-9,-4,-3,2021-08-07 11:39:31,596088
-7,-9,-12,-23,-5,-3,-3,-4,2021-08-07 11:39:31,611085
-12,-20,-22,-51,-48,-21,-11,-7,2021-08-07 11:39:31,611085
-2,-8,-9,2,25,9,1,-1,2021-08-07 11:39:31,611085
13,17,22,39,23,11,7,9,2021-08-07 11:39:31,611085
3,9,14,20,1,3,2,2,2021-08-07 11:39:31,643088
-5,-6,-10,-14,-9,-4,-2,-4,2021-08-07 11:39:31,659086
-5,-8,-13,-34,-29,-12,-6,-5,2021-08-07 11:39:31,659086
-5,-6,0,5,1,-1,0,-1,2021-08-07 11:39:31,659086
4,8,24,22,14,8,3,3,2021-08-07 11:39:31,659086
7,4,-4,12,5,4,3,3,2021-08-07 11:39:31,659086
-4,-6,-14,-18,-5,-5,-4,-4,2021-08-07 11:39:31,659086
-5,-5,-6,-10,-12,-9,-5,-1,2021-08-07 11:39:31,659086
0,-2,1,24,25,8,2,0,2021-08-07 11:39:31,675088
0,3,12,20,12,5,1,1,2021-08-07 11:39:31,691088
5,7,-1,-21,-26,-6,1,3,2021-08-07 11:39:31,691088
-11,-15,-21,-33,-25,-13,-10,-10,2021-08-07 11:39:31,691088
0,2,23,4,12,4,0,0,2021-08-07 11:39:31,707086
2,4,-11,20,14,1,1,2,2021-08-07 11:39:31,723089
4,5,7,19,3,4,4,4,2021-08-07 11:39:31,739086
-2,-4,-11,4,22,9,3,-1,2021-08-07 11:39:31,770089
-7,-10,-10,-23,-30,-15,-7,-6,2021-08-07 11:39:31,770089
-6,-4,0,-11,-1,-2,-4,-4,2021-08-07 11:39:31,770089
-5,-4,-3,-13,-18,-10,-4,-2,2021-08-07 11:39:31,770089
4,7,17,26,15,9,4,2,2021-08-07 11:39:31,770089
2,6,0,9,4,0,0,0,2021-08-07 11:39:31,770089
1,1,3,-2,6,5,1,0,2021-08-07 11:39:31,771088
-4,-6,-6,-7,-5,-5,-4,-4,2021-08-07 11:39:31,771088
-4,-6,0,-10,-1,-3,-2,-2,2021-08-07 11:39:31,771088
5,6,-6,3,3,2,0,4,2021-08-07 11:39:31,771088
1,1,1,9,-8,-1,2,3,2021-08-07 11:39:31,771088
0,-3,-6,2,-3,-1,0,2,2021-08-07 11:39:31,771088
2,-3,-5,-2,4,6,4,1,2021-08-07 11:39:31,771088
-7,-9,-12,-18,-10,-7,-5,-6,2021-08-07 11:39:31,771088
-1,4,11,9,2,1,-1,-2,2021-08-07 11:39:31,772090
-2,5,15,-4,-15,-8,-4,-4,2021-08-07 11:39:31,772090
-4,1,8,4,-5,-4,-3,-2,2021-08-07 11:39:31,772090
2,-1,-4,14,38,12,3,2,2021-08-07 11:39:31,801088
2,-2,-9,-17,-14,-7,-1,3,2021-08-07 11:39:31,817088
-1,0,-10,-5,-7,-3,-1,-1,2021-08-07 11:39:31,817088
0,0,5,9,5,3,0,-1,2021-08-07 11:39:31,817088
1,1,-2,-4,-11,-4,0,0,2021-08-07 11:39:31,817088
-3,-6,-9,-24,-12,-4,-4,-4,2021-08-07 11:39:31,817088
-6,-4,2,-17,-13,-10,-6,-4,2021-08-07 11:39:31,818087
7,11,17,33,35,16,6,6,2021-08-07 11:39:31,818087
-2,-6,-9,5,-1,-1,-1,-3,2021-08-07 11:39:31,833088
1,0,-2,7,-7,-3,-1,-1,2021-08-07 11:39:31,849088
1,-1,-7,-14,-11,-1,2,1,2021-08-07 11:39:31,849088
-11,-10,-14,-26,-30,-16,-11,-10,2021-08-07 11:39:31,849088
3,6,4,3,29,13,5,5,2021-08-07 11:39:31,849088
-3,-1,20,6,-5,-5,-5,-3,2021-08-07 11:39:31,849088
-4,-4,-7,3,-2,-3,-3,-3,2021-08-07 11:39:31,849088
-2,-5,-13,-5,-5,-2,-1,-2,2021-08-07 11:39:31,850087
3,4,0,24,33,13,6,3,2021-08-07 11:39:31,881086
-3,-1,-8,-23,-26,-9,-3,-3,2021-08-07 11:39:31,897085
3,7,11,-5,11,7,3,2,2021-08-07 11:39:31,913086
1,-1,3,-4,-13,-7,-1,-2,2021-08-07 11:39:31,928087
0,1,6,8,-8,-4,-1,-3,2021-08-07 11:39:31,928087
3,3,13,22,26,10,3,4,2021-08-07 11:39:31,928087
-1,-7,-8,6,2,0,-1,-3,2021-08-07 11:39:31,928087
-5,-5,-16,-33,-26,-11,-5,-3,2021-08-07 11:39:31,928087
1,3,3,-12,-16,-5,-2,1,2021-08-07 11:39:31,929089
-1,0,5,10,14,2,-1,-1,2021-08-07 11:39:31,929089
2,4,10,-1,-7,-2,0,-2,2021-08-07 11:39:31,929089
-1,-7,-11,2,15,6,1,1,2021-08-07 11:39:31,929089
-9,-10,-20,-38,-35,-15,-9,-8,2021-08-07 11:39:31,929089
4,7,11,20,29,13,5,2,2021-08-07 11:39:31,929089
2,5,9,27,15,3,0,0,2021-08-07 11:39:31,930088
5,8,18,34,16,7,2,1,2021-08-07 11:39:31,930088
-7,-16,-27,-40,-32,-11,-6,-6,2021-08-07 11:39:31,959087
-10,-16,-40,-49,-24,-12,-7,-8,2021-08-07 11:39:31,975088
0,1,-1,-8,-5,-3,-1,-1,2021-08-07 11:39:31,975088
4,8,15,19,14,9,4,4,2021-08-07 11:39:31,975088
6,13,28,48,39,10,4,4,2021-08-07 11:39:31,975088
1,1,7,-1,-4,0,1,1,2021-08-07 11:39:31,975088
-5,-9,-15,-7,4,0,-4,-2,2021-08-07 11:39:31,975088
-3,-7,-9,-25,-34,-17,-5,-2,2021-08-07 11:39:31,976087
-6,-4,-4,-18,-24,-9,-6,-6,2021-08-07 11:39:31,991085
6,5,13,30,24,12,3,4,2021-08-07 11:39:31,991085
4,8,12,26,25,11,4,3,2021-08-07 11:39:31,991085
-3,-4,-7,-15,-20,-6,-2,-3,2021-08-07 11:39:31,991085
-5,-8,-14,-29,-23,-8,-5,-3,2021-08-07 11:39:32,007087
-5,-5,5,-10,1,-2,-2,-2,2021-08-07 11:39:32,022086
-8,-10,-26,-25,-17,-7,-8,-6,2021-08-07 11:39:32,038087
3,-1,7,28,30,10,4,2,2021-08-07 11:39:32,042086
7,5,5,19,4,3,4,5,2021-08-07 11:39:32,042086
0,3,1,0,-14,-5,-2,0,2021-08-07 11:39:32,042086
-1,-2,4,2,0,-1,0,0,2021-08-07 11:39:32,042086
2,5,0,-9,2,2,2,2,2021-08-07 11:39:32,042086
-1,1,3,-4,-20,-8,-2,-1,2021-08-07 11:39:32,054087
-2,-4,3,-3,7,0,-2,-2,2021-08-07 11:39:32,070088
-4,-6,-11,5,0,2,-1,-4,2021-08-07 11:39:32,070088
4,6,10,21,17,4,2,1,2021-08-07 11:39:32,070088
-2,-4,0,7,15,5,1,-1,2021-08-07 11:39:32,070088
-8,-12,-40,-52,-34,-16,-8,-5,2021-08-07 11:39:32,070088
-5,-5,1,-10,-16,-5,-2,-2,2021-08-07 11:39:32,071088
1,0,3,6,17,7,2,0,2021-08-07 11:39:32,071088
-1,3,4,-2,-13,-7,-3,-2,2021-08-07 11:39:32,101087
5,11,23,24,5,2,3,1,2021-08-07 11:39:32,101087
6,4,10,25,24,8,6,3,2021-08-07 11:39:32,101087
-7,-12,-23,-18,-12,-6,-4,-4,2021-08-07 11:39:32,101087
-1,1,-6,-27,-7,-4,-3,-1,2021-08-07 11:39:32,117087
-3,1,0,-13,-30,-10,-4,-1,2021-08-07 11:39:32,133086
-2,-4,0,1,14,2,-1,-1,2021-08-07 11:39:32,148086
5,6,10,27,20,10,7,5,2021-08-07 11:39:32,148086
-2,-3,-2,2,-2,2,-2,-2,2021-08-07 11:39:32,148086
2,5,7,19,14,5,3,1,2021-08-07 11:39:32,148086
-1,-1,2,-15,-3,-3,-2,-3,2021-08-07 11:39:32,148086
-3,-2,-5,-7,-14,-6,-4,-3,2021-08-07 11:39:32,149086
-2,0,1,9,23,5,0,-1,2021-08-07 11:39:32,149086
-3,-6,-14,-9,-18,-7,-3,-3,2021-08-07 11:39:32,149086
-4,-4,3,-6,-2,-3,-3,-2,2021-08-07 11:39:32,149086
-5,-7,-20,-16,-11,-6,-5,-4,2021-08-07 11:39:32,149086
1,1,-3,-2,-10,-2,1,0,2021-08-07 11:39:32,180085
6,8,8,9,6,3,3,3,2021-08-07 11:39:32,196088
1,1,2,-2,-19,-5,1,-1,2021-08-07 11:39:32,212087
-1,2,4,-1,17,7,1,0,2021-08-07 11:39:32,212087
-2,-2,-1,17,9,4,0,-1,2021-08-07 11:39:32,212087
-7,-8,-9,-11,-5,-3,-3,-5,2021-08-07 11:39:32,212087
-5,-10,-22,-16,-5,-6,-3,-2,2021-08-07 11:39:32,212087
1,3,7,-16,-27,-14,-5,-1,2021-08-07 11:39:32,212087
7,9,17,23,10,8,4,3,2021-08-07 11:39:32,213087
0,0,-4,7,16,4,1,-2,2021-08-07 11:39:32,213087
7,8,9,9,9,4,5,5,2021-08-07 11:39:32,213087
-5,-8,-10,-11,-15,-9,-5,-6,2021-08-07 11:39:32,213087
-2,-5,-12,-14,0,-1,-2,-1,2021-08-07 11:39:32,243086
2,4,12,8,4,1,2,1,2021-08-07 11:39:32,243086
2,4,10,15,14,5,2,0,2021-08-07 11:39:32,243086
1,-4,-3,7,-2,0,2,0,2021-08-07 11:39:32,243086
-3,-2,-2,-15,-14,-7,-4,-4,2021-08-07 11:39:32,259088
-5,-7,-7,-12,-11,-5,-4,-5,2021-08-07 11:39:32,275089
2,0,-7,-4,9,5,2,2,2021-08-07 11:39:32,275089
1,3,7,-9,-12,-5,-2,-1,2021-08-07 11:39:32,275089
2,1,3,13,7,4,2,1,2021-08-07 11:39:32,275089
-4,-9,-9,-5,-1,-4,-3,-1,2021-08-07 11:39:32,275089
-2,3,1,9,6,4,-1,-1,2021-08-07 11:39:32,275089
-2,1,5,8,5,1,-2,-1,2021-08-07 11:39:32,275089
-5,-4,-8,-21,-32,-14,-4,-2,2021-08-07 11:39:32,291086
3,1,2,5,30,10,5,3,2021-08-07 11:39:32,291086
-2,-3,-4,0,-9,-4,-4,-1,2021-08-07 11:39:32,291086
1,5,7,10,13,4,1,1,2021-08-07 11:39:32,291086
-1,2,10,11,-1,-2,-1,-2,2021-08-07 11:39:32,323088
1,1,3,-4,-14,-3,-2,1,2021-08-07 11:39:32,339089
3,2,4,-12,-23,-8,-1,0,2021-08-07 11:39:32,355088
-3,-8,-12,16,19,10,4,0,2021-08-07 11:39:32,355088
-6,-10,-24,-30,-7,-1,-4,-5,2021-08-07 11:39:32,355088
1,3,7,14,7,3,1,1,2021-08-07 11:39:32,355088
-2,1,7,18,25,9,1,-1,2021-08-07 11:39:32,355088
4,6,15,11,2,1,4,2,2021-08-07 11:39:32,355088
-10,-11,-26,-38,-22,-12,-7,-6,2021-08-07 11:39:32,356087
-5,-6,-9,-15,-14,-5,-5,-2,2021-08-07 11:39:32,356087
1,-1,3,-4,-13,-4,-3,-1,2021-08-07 11:39:32,356087
2,4,4,13,5,2,-1,1,2021-08-07 11:39:32,356087
1,2,7,7,11,-1,2,0,2021-08-07 11:39:32,387087
2,4,1,14,11,4,3,0,2021-08-07 11:39:32,387087
-4,-5,-11,-28,-21,-10,-5,-4,2021-08-07 11:39:32,402087
-2,-4,-5,-20,-17,-6,-4,-2,2021-08-07 11:39:32,402087
1,-1,5,8,3,3,1,1,2021-08-07 11:39:32,402087
-4,-3,-1,7,2,-2,-2,-2,2021-08-07 11:39:32,402087
3,1,2,15,15,6,3,0,2021-08-07 11:39:32,402087
3,10,10,5,2,1,2,2,2021-08-07 11:39:32,403088
4,4,10,14,3,-2,0,0,2021-08-07 11:39:32,418086
-1,-5,-10,-9,-10,-4,-1,-2,2021-08-07 11:39:32,434087
-5,-6,-11,-7,-1,1,-2,-2,2021-08-07 11:39:32,434087
-4,-7,-9,-16,-7,-3,-3,-6,2021-08-07 11:39:32,434087
0,1,16,0,0,-3,-1,-1,2021-08-07 11:39:32,434087
-7,-10,-23,-21,-28,-10,-5,-6,2021-08-07 11:39:32,435089
5,8,5,10,21,6,6,6,2021-08-07 11:39:32,435089
0,2,0,-4,-18,-8,-3,-2,2021-08-07 11:39:32,435089
5,8,16,31,29,11,4,3,2021-08-07 11:39:32,450088
-2,-7,-4,-12,-11,-2,-3,-3,2021-08-07 11:39:32,450088
0,-2,-9,0,11,5,1,0,2021-08-07 11:39:32,450088
-9,-11,-11,-25,-13,-9,-7,-5,2021-08-07 11:39:32,450088
-2,3,-1,2,-12,-7,-3,0,2021-08-07 11:39:32,482087
2,5,9,3,-9,-3,0,1,2021-08-07 11:39:32,490086
0,-2,-1,11,11,4,1,2,2021-08-07 11:39:32,490086
1,-3,-14,7,23,9,5,2,2021-08-07 11:39:32,491088
