EMG 1,EMG 2,EMG 3,EMG 4,EMG 5,EMG 6,EMG 7,EMG 8,Timestamp,Milliseconds
-2,0,-2,6,17,4,0,-2,2021-08-07 11:40:55,754467
-1,1,3,5,2,2,2,2,2021-08-07 11:40:55,754467
0,-1,-3,-1,-3,0,0,0,2021-08-07 11:40:55,754467
-8,-9,-10,-19,-24,-10,-6,-6,2021-08-07 11:40:55,754467
-1,1,0,4,1,-1,-3,-1,2021-08-07 11:40:55,754467
0,1,2,15,27,12,3,0,2021-08-07 11:40:55,754467
0,-1,2,5,2,1,1,0,2021-08-07 11:40:55,755465
3,3,4,6,5,2,0,0,2021-08-07 11:40:55,755465
-4,-5,-6,-16,-21,-10,-5,-3,2021-08-07 11:40:55,755465
-2,-4,-4,-8,-8,-3,-2,-3,2021-08-07 11:40:55,755465
-1,1,-3,-8,-10,-4,-2,0,2021-08-07 11:40:55,770466
3,2,3,16,14,7,1,2,2021-08-07 11:40:55,786465
-4,-4,-1,-4,-9,-4,-3,-2,2021-08-07 11:40:55,786465
1,0,-4,-1,0,-1,-3,0,2021-08-07 11:40:55,786465
1,1,1,-4,-4,-2,0,-2,2021-08-07 11:40:55,786465
-4,-4,-6,-12,-8,-4,-2,-4,2021-08-07 11:40:55,786465
-3,-1,1,4,-3,-2,0,-3,2021-08-07 11:40:55,802466
-2,-4,-1,5,-3,-3,-1,-2,2021-08-07 11:40:55,802466
2,2,5,11,10,5,0,1,2021-08-07 11:40:55,818465
3,5,1,7,16,4,2,3,2021-08-07 11:40:55,818465
2,1,0,2,2,0,0,0,2021-08-07 11:40:55,833467
-4,-3,-5,-12,-14,-6,-5,-3,2021-08-07 11:40:55,833467
1,0,-1,1,12,5,1,1,2021-08-07 11:40:55,833467
-4,-4,-2,-3,-6,-4,-3,-4,2021-08-07 11:40:55,833467
-1,-1,-1,-3,-1,-1,0,1,2021-08-07 11:40:55,912466
2,2,3,10,9,4,1,1,2021-08-07 11:40:55,928465
0,1,-1,3,1,-1,0,0,2021-08-07 11:40:55,944465
-3,-3,-4,-9,-9,-2,-3,-3,2021-08-07 11:40:55,944465
-3,-2,-2,3,5,1,-2,-3,2021-08-07 11:40:55,944465
2,2,0,0,-3,0,2,0,2021-08-07 11:40:55,944465
-4,-3,-3,1,2,-2,-3,-4,2021-08-07 11:40:55,944465
0,0,0,-3,-3,-3,-2,1,2021-08-07 11:40:55,944465
-2,-2,-2,-13,-11,-7,-2,-3,2021-08-07 11:40:55,945466
3,3,0,-5,-4,0,1,1,2021-08-07 11:40:55,945466
-1,-1,0,9,1,0,0,1,2021-08-07 11:40:55,945466
1,1,3,11,23,11,3,0,2021-08-07 11:40:55,945466
3,2,2,10,2,2,0,1,2021-08-07 11:40:55,945466
-7,-9,-9,-11,-16,-9,-5,-5,2021-08-07 11:40:55,945466
-2,1,1,-15,-11,-5,-1,-2,2021-08-07 11:40:55,945466
3,3,6,17,21,7,2,3,2021-08-07 11:40:55,946468
1,0,3,2,2,2,2,1,2021-08-07 11:40:55,946468
-2,-4,-2,4,2,0,-2,-1,2021-08-07 11:40:55,946468
-3,-6,-8,-10,-15,-8,-4,-5,2021-08-07 11:40:55,946468
-5,-5,-6,-12,-14,-7,-4,-3,2021-08-07 11:40:55,946468
1,1,3,10,10,3,1,1,2021-08-07 11:40:55,946468
0,0,0,-8,-5,0,-1,1,2021-08-07 11:40:55,946468
3,2,4,12,10,4,2,2,2021-08-07 11:40:55,975464
0,1,0,-4,0,0,0,0,2021-08-07 11:40:55,990465
1,1,-1,0,1,2,0,0,2021-08-07 11:40:56,006466
-1,1,0,0,0,0,-1,-2,2021-08-07 11:40:56,006466
0,0,0,-2,-3,0,-1,0,2021-08-07 11:40:56,006466
-2,-3,-4,-5,-10,-6,-4,-3,2021-08-07 11:40:56,006466
-2,-2,-4,-8,-11,-4,-3,-1,2021-08-07 11:40:56,006466
0,-1,1,11,15,5,2,1,2021-08-07 11:40:56,006466
1,2,2,0,2,0,-1,0,2021-08-07 11:40:56,006466
-2,-3,-1,1,-6,-3,-2,-1,2021-08-07 11:40:56,007466
-3,-3,-2,-3,0,1,-1,-1,2021-08-07 11:40:56,007466
-2,-2,-5,-5,-8,-4,-4,-3,2021-08-07 11:40:56,007466
0,-1,2,-6,-6,-3,-2,-3,2021-08-07 11:40:56,022466
2,1,1,-3,4,1,-1,-1,2021-08-07 11:40:56,022466
0,1,-2,-2,-2,-1,-2,0,2021-08-07 11:40:56,022466
-2,-4,-5,-3,-2,-2,-2,-1,2021-08-07 11:40:56,022466
-4,-6,-7,-3,-3,-2,-2,-3,2021-08-07 11:40:56,053466
2,5,2,-1,-2,1,2,1,2021-08-07 11:40:56,085466
2,2,2,-1,-8,-3,0,-2,2021-08-07 11:40:56,085466
2,1,3,9,14,5,2,0,2021-08-07 11:40:56,085466
-1,2,1,5,6,4,-1,0,2021-08-07 11:40:56,085466
-3,-4,-2,-1,-5,-2,-1,-2,2021-08-07 11:40:56,085466
-2,-1,-2,-1,-1,-3,-2,0,2021-08-07 11:40:56,085466
0,-1,-1,-5,-7,-4,-2,-2,2021-08-07 11:40:56,085466
-3,-4,-5,-6,-2,-2,0,-1,2021-08-07 11:40:56,085466
-1,-2,-4,-2,-3,-2,-2,-2,2021-08-07 11:40:56,086468
1,-1,1,4,3,0,0,0,2021-08-07 11:40:56,086468
1,0,1,-3,-3,-1,0,1,2021-08-07 11:40:56,086468
-1,-2,-4,-9,-7,-3,-3,-2,2021-08-07 11:40:56,117466
-2,-4,-5,-5,-8,-4,-3,-3,2021-08-07 11:40:56,133466
0,-1,0,-6,-6,-2,-1,-2,2021-08-07 11:40:56,165466
3,4,4,14,24,10,4,2,2021-08-07 11:40:56,181466
-2,0,3,2,3,-1,0,-3,2021-08-07 11:40:56,212499
-5,-5,-5,-6,-14,-6,-5,-2,2021-08-07 11:40:56,212499
-2,-4,-1,-3,0,-1,-1,-3,2021-08-07 11:40:56,212499
1,4,2,-5,-12,-6,-2,1,2021-08-07 11:40:56,212499
2,-1,0,-2,-9,-2,-1,1,2021-08-07 11:40:56,228498
-5,-6,-7,-3,7,2,-1,-4,2021-08-07 11:40:56,228498
-1,-4,-4,-1,1,0,-2,-1,2021-08-07 11:40:56,228498
-3,-3,-2,-8,-11,-6,-3,-2,2021-08-07 11:40:56,228498
3,5,3,6,13,5,2,2,2021-08-07 11:40:56,228498
-1,-2,-1,-3,-8,-6,-3,-1,2021-08-07 11:40:56,228498
2,3,2,8,12,6,2,1,2021-08-07 11:40:56,229499
-7,-7,-6,-3,-2,-1,-3,-5,2021-08-07 11:40:56,229499
0,0,-3,-3,-7,-2,-2,1,2021-08-07 11:40:56,229499
1,2,3,4,3,3,1,0,2021-08-07 11:40:56,229499
-3,-2,-3,-4,-7,-3,-4,-2,2021-08-07 11:40:56,229499
-4,-5,-5,-6,-6,-5,-4,-1,2021-08-07 11:40:56,229499
6,5,5,6,7,5,5,4,2021-08-07 11:40:56,229499
4,4,4,3,4,4,4,1,2021-08-07 11:40:56,230499
3,1,2,1,-3,-1,3,0,2021-08-07 11:40:56,230499
-2,-4,-3,-3,-4,-1,-4,-3,2021-08-07 11:40:56,230499
-3,-3,-3,-4,-3,-3,-3,-4,2021-08-07 11:40:56,230499
-1,1,1,3,0,-1,2,-2,2021-08-07 11:40:56,230499
-5,-3,-1,-1,-2,-2,-2,-3,2021-08-07 11:40:56,230499
8,14,9,9,6,4,6,7,2021-08-07 11:40:56,230499
-7,-10,-11,-11,-10,-9,-5,-5,2021-08-07 11:40:56,259499
-1,-1,-1,-3,-4,-1,-2,-1,2021-08-07 11:40:56,275498
-4,-6,-2,0,5,2,-4,-3,2021-08-07 11:40:56,291500
0,-1,-1,-4,0,0,-1,-1,2021-08-07 11:40:56,293499
-1,-1,1,9,12,6,-1,-1,2021-08-07 11:40:56,293499
1,0,0,-3,-14,-5,-1,0,2021-08-07 11:40:56,293499
3,3,7,18,24,12,5,4,2021-08-07 11:40:56,294500
-2,-3,-4,-3,-3,0,-2,-1,2021-08-07 11:40:56,294500
-3,-4,-2,-8,-9,-3,-3,-2,2021-08-07 11:40:56,294500
0,2,1,-1,2,-1,0,-1,2021-08-07 11:40:56,294500
0,-3,-5,-13,-15,-5,-2,0,2021-08-07 11:40:56,294500
3,4,5,4,3,2,3,3,2021-08-07 11:40:56,294500
-2,-5,-5,-5,-2,-1,-2,-1,2021-08-07 11:40:56,307498
-1,-3,-3,2,6,-1,-1,1,2021-08-07 11:40:56,307498
2,4,2,-5,-9,-3,0,1,2021-08-07 11:40:56,307498
-4,-7,-7,-6,-4,-3,-1,-2,2021-08-07 11:40:56,307498
-3,-1,-1,-4,-8,-4,-5,-2,2021-08-07 11:40:56,322497
-1,0,0,5,4,-2,-2,-1,2021-08-07 11:40:56,322497
-3,-2,-3,-11,-18,-7,0,-2,2021-08-07 11:40:56,322497
-2,-4,-3,-3,4,2,0,-1,2021-08-07 11:40:56,322497
0,0,4,19,17,4,2,0,2021-08-07 11:40:56,353499
-3,-3,-2,-2,-2,-4,-5,-1,2021-08-07 11:40:56,353499
3,4,2,3,2,1,1,3,2021-08-07 11:40:56,353499
-4,0,0,-8,-16,-6,-2,-2,2021-08-07 11:40:56,369497
-1,-2,-5,-1,-1,1,1,-2,2021-08-07 11:40:56,369497
-1,-1,-6,-23,-25,-9,-2,-1,2021-08-07 11:40:56,369497
1,2,9,29,38,15,5,1,2021-08-07 11:40:56,369497
3,3,5,11,8,5,2,0,2021-08-07 11:40:56,369497
1,3,5,5,6,0,-1,2,2021-08-07 11:40:56,385499
0,-2,-2,-2,-4,-1,0,-2,2021-08-07 11:40:56,385499
0,-2,-7,-18,-19,-6,0,-2,2021-08-07 11:40:56,385499
-2,-4,-4,-6,-5,-2,-1,-1,2021-08-07 11:40:56,385499
1,-1,0,-1,-1,-2,-4,-1,2021-08-07 11:40:56,417499
1,-2,-2,-4,-1,-5,-5,-4,2021-08-07 11:40:56,417726
-3,-3,-3,-2,1,0,-1,0,2021-08-07 11:40:56,417726
-3,-3,-5,-7,-2,0,1,-2,2021-08-07 11:40:56,417726
1,2,4,8,6,4,4,0,2021-08-07 11:40:56,433016
-3,-1,0,5,3,3,2,-1,2021-08-07 11:40:56,433016
-6,-3,-2,-1,0,-3,-7,-7,2021-08-07 11:40:56,433016
-5,-4,-4,-5,-9,-7,-6,-3,2021-08-07 11:40:56,433016
-3,-4,-6,-15,-14,-4,-3,-2,2021-08-07 11:40:56,449014
5,3,6,5,5,4,1,3,2021-08-07 11:40:56,465015
1,-2,0,6,17,4,1,2,2021-08-07 11:40:56,465015
3,2,-2,-4,-11,-3,0,0,2021-08-07 11:40:56,465015
0,0,-3,-5,-2,0,1,1,2021-08-07 11:40:56,465015
-2,-3,1,6,10,3,0,-2,2021-08-07 11:40:56,465015
0,1,0,-4,-13,-5,-2,-1,2021-08-07 11:40:56,466018
-1,-1,3,3,8,2,0,-1,2021-08-07 11:40:56,466018
-2,0,-1,-8,-7,-3,-2,-2,2021-08-07 11:40:56,497015
-4,-4,-4,0,1,1,-1,-1,2021-08-07 11:40:56,497015
2,0,4,9,2,1,2,2,2021-08-07 11:40:56,497015
2,6,5,4,2,1,1,2,2021-08-07 11:40:56,497015
-1,-3,-3,-1,0,0,-1,-3,2021-08-07 11:40:56,497015
-2,-2,-4,-6,-3,-2,2,0,2021-08-07 11:40:56,497015
-8,-10,-11,-13,-13,-8,-7,-6,2021-08-07 11:40:56,513016
2,1,-2,-7,-6,-3,-1,0,2021-08-07 11:40:56,513016
5,5,7,16,21,11,4,3,2021-08-07 11:40:56,528015
3,6,6,10,9,6,5,2,2021-08-07 11:40:56,528015
0,2,0,-2,-4,-3,-1,0,2021-08-07 11:40:56,544015
-8,-10,-7,-5,-6,-6,-5,-7,2021-08-07 11:40:56,560015
-2,-2,-4,-8,-9,-5,-1,-1,2021-08-07 11:40:56,560015
0,-2,-1,3,2,0,0,-1,2021-08-07 11:40:56,560015
1,3,-1,-3,-3,-2,-1,1,2021-08-07 11:40:56,560015
-3,-4,-2,1,2,-2,-3,-4,2021-08-07 11:40:56,560015
2,1,1,0,0,0,1,2,2021-08-07 11:40:56,560015
-1,-1,-1,-6,-3,0,0,0,2021-08-07 11:40:56,560015
-2,-3,-6,-4,-7,-2,0,-1,2021-08-07 11:40:56,576016
-1,-3,-8,-7,-8,-2,0,0,2021-08-07 11:40:56,576016
3,4,9,16,19,8,2,3,2021-08-07 11:40:56,592015
-1,-2,0,5,0,0,-1,0,2021-08-07 11:40:56,607014
-2,-3,-2,-10,-9,-4,-3,-3,2021-08-07 11:40:56,623014
1,1,3,10,10,4,1,0,2021-08-07 11:40:56,623014
-4,-3,-5,-8,-11,-6,-1,-1,2021-08-07 11:40:56,623014
-3,-2,-1,-3,-6,-3,-1,0,2021-08-07 11:40:56,623014
4,6,2,-6,3,0,1,3,2021-08-07 11:40:56,623014
-1,1,0,2,0,-2,0,-1,2021-08-07 11:40:56,623014
-3,-5,-3,-7,-6,-2,-2,-4,2021-08-07 11:40:56,639015
-1,0,1,6,6,4,0,1,2021-08-07 11:40:56,654014
2,-1,-1,-2,-5,-1,-1,0,2021-08-07 11:40:56,670016
-1,2,1,1,-1,-2,-1,-1,2021-08-07 11:40:56,686017
-4,-4,-6,-12,-15,-8,-5,-4,2021-08-07 11:40:56,686017
1,1,0,4,13,7,2,1,2021-08-07 11:40:56,686017
0,-1,-1,6,4,3,0,-2,2021-08-07 11:40:56,686017
3,3,5,6,5,2,0,2,2021-08-07 11:40:56,686017
-3,-1,-4,-1,-3,-3,-3,-1,2021-08-07 11:40:56,686017
-3,-3,-4,-10,-10,-4,-1,-2,2021-08-07 11:40:56,686017
-2,-2,-3,-3,-5,-3,0,-3,2021-08-07 11:40:56,687016
1,0,3,1,7,4,0,0,2021-08-07 11:40:56,687016
-3,-2,-1,-2,-7,-5,-4,-2,2021-08-07 11:40:56,687016
-1,-3,-5,-11,-16,-8,-4,-1,2021-08-07 11:40:56,687016
2,1,5,13,19,10,4,4,2021-08-07 11:40:56,687016
0,-2,1,9,9,4,0,-1,2021-08-07 11:40:56,687016
2,1,3,5,5,3,1,1,2021-08-07 11:40:56,718014
-2,-2,-3,-3,-4,-3,-2,-3,2021-08-07 11:40:56,729015
-5,-5,-10,-22,-28,-12,-8,-5,2021-08-07 11:40:56,729015
4,5,7,11,19,6,2,3,2021-08-07 11:40:56,729015
0,-2,1,3,3,1,1,0,2021-08-07 11:40:56,730016
1,2,4,5,4,2,0,0,2021-08-07 11:40:56,730016
-7,-8,-8,-6,-7,-7,-5,-5,2021-08-07 11:40:56,730016
3,5,2,-8,-22,-8,0,1,2021-08-07 11:40:56,730016
-3,-3,-6,-9,-8,-7,-2,-1,2021-08-07 11:40:56,750016
3,3,7,17,19,10,5,2,2021-08-07 11:40:56,766014
-2,-2,-3,4,6,0,1,-2,2021-08-07 11:40:56,782016
-4,-4,-5,-4,-5,-1,-2,-1,2021-08-07 11:40:56,782016
-2,-2,-4,-10,-13,-8,-3,-2,2021-08-07 11:40:56,782016
-1,-1,-1,-3,-13,-7,-4,0,2021-08-07 11:40:56,798015
0,0,0,1,0,0,-1,1,2021-08-07 11:40:56,814015
-2,-5,-4,0,1,-2,-1,-4,2021-08-07 11:40:56,814015
1,0,-1,-6,-7,-1,0,-1,2021-08-07 11:40:56,814015
2,2,4,14,18,7,1,0,2021-08-07 11:40:56,814015
3,1,5,7,10,6,2,2,2021-08-07 11:40:56,814015
-2,-3,-2,-8,-9,-5,-4,-2,2021-08-07 11:40:56,814015
-2,-2,-6,-9,-10,-6,-4,-2,2021-08-07 11:40:56,830015
-4,-4,-3,0,3,1,0,-2,2021-08-07 11:40:56,830015
-2,-2,-4,-9,-9,-5,-2,-2,2021-08-07 11:40:56,830015
5,7,5,10,6,4,0,1,2021-08-07 11:40:56,830015
0,-1,1,4,6,3,0,0,2021-08-07 11:40:56,830015
-3,-3,-7,-16,-25,-9,-4,-4,2021-08-07 11:40:56,830015
3,2,4,9,16,6,2,2,2021-08-07 11:40:56,830015
-5,-6,-5,-2,0,1,-1,-2,2021-08-07 11:40:56,830015
1,5,4,3,4,2,1,1,2021-08-07 11:40:56,845014
0,1,-1,-3,-3,-3,-2,0,2021-08-07 11:40:56,845014
-5,-3,-7,-9,-14,-8,-4,-5,2021-08-07 11:40:56,861015
0,0,0,-1,6,1,0,1,2021-08-07 11:40:56,861015
1,1,2,8,6,3,1,1,2021-08-07 11:40:56,877017
0,-1,-2,-2,-3,-2,0,-1,2021-08-07 11:40:56,893017
-2,-1,0,2,1,0,-1,-1,2021-08-07 11:40:56,909015
-8,-8,-10,-14,-13,-8,-7,-7,2021-08-07 11:40:56,909015
1,2,3,1,-1,0,0,2,2021-08-07 11:40:56,909015
3,6,3,8,11,3,2,3,2021-08-07 11:40:56,909015
1,-1,0,-4,-7,-2,-2,-2,2021-08-07 11:40:56,909015
-2,-3,-2,5,3,0,-1,-1,2021-08-07 11:40:56,909015
-4,-5,-10,-17,-12,-7,-5,-3,2021-08-07 11:40:56,909015
2,2,5,15,15,7,3,3,2021-08-07 11:40:56,910016
0,2,2,9,11,3,0,0,2021-08-07 11:40:56,910016
-3,-5,-6,-8,-5,-2,0,-1,2021-08-07 11:40:56,910016
2,1,1,-3,-12,-5,0,-1,2021-08-07 11:40:56,940014
-2,-4,-2,-4,1,-1,-3,-1,2021-08-07 11:40:56,956015
0,1,1,0,-3,-1,-1,1,2021-08-07 11:40:56,987017
1,3,2,0,-4,-2,-2,-1,2021-08-07 11:40:57,003015
-2,-3,-2,4,12,4,1,-2,2021-08-07 11:40:57,003015
-2,-2,-4,-8,-11,-6,0,-2,2021-08-07 11:40:57,003015
0,-3,-2,-4,-4,-2,-2,-3,2021-08-07 11:40:57,003015
0,-1,-4,-7,-9,-4,-2,-1,2021-08-07 11:40:57,003015
2,3,5,15,21,8,-1,0,2021-08-07 11:40:57,003015
-3,-4,-4,-5,-3,-1,-1,-3,2021-08-07 11:40:57,003015
1,1,0,0,0,2,3,2,2021-08-07 11:40:57,004015
-3,-5,-4,-4,-8,-6,-6,-3,2021-08-07 11:40:57,004015
-2,-1,-3,-2,-4,-8,-7,-4,2021-08-07 11:40:57,004015
-2,-1,-2,-2,1,-3,-4,-2,2021-08-07 11:40:57,004015
-4,-5,-6,-9,-12,-7,-4,-3,2021-08-07 11:40:57,004015
-3,-2,-2,-8,-4,1,2,0,2021-08-07 11:40:57,004015
6,7,13,28,24,13,8,8,2021-08-07 11:40:57,019015
-2,-2,-3,-6,-6,-3,-2,-1,2021-08-07 11:40:57,035014
3,4,7,14,13,5,3,2,2021-08-07 11:40:57,051016
-6,-9,-7,-7,-7,-5,-4,-5,2021-08-07 11:40:57,051016
-1,-1,-7,-18,-16,-6,-3,-1,2021-08-07 11:40:57,051016
2,1,3,-7,-13,-4,-2,1,2021-08-07 11:40:57,051016
-3,-2,-1,15,22,9,1,-2,2021-08-07 11:40:57,051016
10,9,8,10,14,5,7,6,2021-08-07 11:40:57,051016
-3,-4,-2,-2,-2,-3,-2,-4,2021-08-07 11:40:57,052016
-2,-4,-7,-13,-17,-8,-5,-2,2021-08-07 11:40:57,052016
-2,-4,-3,-11,-16,-7,-5,-3,2021-08-07 11:40:57,052016
-2,-1,-1,5,6,3,0,-2,2021-08-07 11:40:57,052016
-3,-5,-5,-11,-6,-4,-2,-1,2021-08-07 11:40:57,083016
0,1,5,7,3,-1,-2,0,2021-08-07 11:40:57,099016
-1,-2,-2,-3,-2,-2,-3,-1,2021-08-07 11:40:57,099016
0,0,4,7,3,2,0,0,2021-08-07 11:40:57,099016
-1,-2,-5,-8,-11,-2,0,-1,2021-08-07 11:40:57,099016
-1,0,1,-1,3,2,0,0,2021-08-07 11:40:57,099016
0,0,-3,-12,-7,-4,-2,-1,2021-08-07 11:40:57,099016
-3,-1,2,5,2,-1,-1,-3,2021-08-07 11:40:57,099016
-4,-2,-2,3,0,0,0,0,2021-08-07 11:40:57,115015
6,6,4,8,19,8,6,3,2021-08-07 11:40:57,131015
2,4,3,6,-4,1,2,1,2021-08-07 11:40:57,131015
-5,-6,-8,-12,-15,-7,-6,-4,2021-08-07 11:40:57,131015
0,-2,3,6,8,2,-1,-2,2021-08-07 11:40:57,131015
-1,0,2,11,14,5,1,0,2021-08-07 11:40:57,131015
1,1,1,-6,-3,-1,0,1,2021-08-07 11:40:57,131015
-2,-2,0,2,-3,-3,-3,-2,2021-08-07 11:40:57,131015
1,2,-2,-6,-9,-3,0,0,2021-08-07 11:40:57,147015
-1,-1,-3,-4,0,-1,0,0,2021-08-07 11:40:57,147015
-1,-2,-2,-1,3,2,-1,-1,2021-08-07 11:40:57,162015
-2,-2,-4,-4,-3,-4,-1,-2,2021-08-07 11:40:57,162015
-1,-2,-3,-2,1,-2,-2,-3,2021-08-07 11:40:57,173014
0,-1,-1,-2,-9,-3,-1,0,2021-08-07 11:40:57,174017
-3,-3,-7,-11,-13,-9,-3,-2,2021-08-07 11:40:57,174017
4,3,4,18,28,11,4,3,2021-08-07 11:40:57,174017
3,6,11,12,6,4,2,2,2021-08-07 11:40:57,194014
-4,-7,-6,-7,-5,-3,-2,-3,2021-08-07 11:40:57,194014
-7,-10,-12,-17,-24,-15,-8,-6,2021-08-07 11:40:57,194014
-3,-1,-8,-12,-16,-8,-4,0,2021-08-07 11:40:57,194014
5,6,5,10,17,8,3,4,2021-08-07 11:40:57,210015
8,11,16,29,25,15,7,3,2021-08-07 11:40:57,210015
0,-2,3,5,10,6,3,3,2021-08-07 11:40:57,210015
-9,-15,-19,-35,-32,-19,-7,-5,2021-08-07 11:40:57,210015
-7,-9,-6,-10,-11,-6,-5,-5,2021-08-07 11:40:57,241016
-1,2,1,-4,-6,-3,-1,0,2021-08-07 11:40:57,241016
2,6,6,11,14,7,0,-1,2021-08-07 11:40:57,241016
3,6,10,11,8,3,1,0,2021-08-07 11:40:57,241016
-4,-3,-7,-10,-9,-3,-2,0,2021-08-07 11:40:57,257015
-3,-3,-3,1,-3,-3,-3,-2,2021-08-07 11:40:57,257015
2,2,3,8,7,2,1,2,2021-08-07 11:40:57,257015
2,1,2,-1,0,-1,0,1,2021-08-07 11:40:57,257015
-3,-4,-4,-5,-7,-4,-3,-3,2021-08-07 11:40:57,273015
-2,-4,-8,-19,-18,-7,-4,-2,2021-08-07 11:40:57,273015
2,3,6,8,2,2,2,3,2021-08-07 11:40:57,273015
1,3,8,28,33,15,4,1,2021-08-07 11:40:57,273015
-2,-2,-1,-1,-1,0,0,-2,2021-08-07 11:40:57,289014
-8,-8,-8,-11,-8,-7,-6,-5,2021-08-07 11:40:57,289014
2,5,2,-4,-7,-2,-2,2,2021-08-07 11:40:57,289014
0,0,-1,-9,-12,-4,-3,-1,2021-08-07 11:40:57,289014
-3,1,1,0,1,0,-1,-1,2021-08-07 11:40:57,321014
-1,-2,-2,3,0,-2,-1,-1,2021-08-07 11:40:57,321014
-9,-10,-10,-9,-8,-5,-5,-5,2021-08-07 11:40:57,321014
0,2,5,3,1,0,0,1,2021-08-07 11:40:57,321014
5,4,1,-1,0,1,2,3,2021-08-07 11:40:57,337016
0,-2,-3,-8,-6,-3,0,-1,2021-08-07 11:40:57,353016
0,0,1,0,4,1,-1,-1,2021-08-07 11:40:57,353016
-7,-7,-7,-7,-3,-3,-3,-6,2021-08-07 11:40:57,353016
-1,2,0,-5,-10,-5,-3,-1,2021-08-07 11:40:57,353016
3,3,2,8,17,6,3,3,2021-08-07 11:40:57,353016
1,0,-1,3,6,2,0,0,2021-08-07 11:40:57,353016
0,-1,-3,-4,-8,-4,-1,-2,2021-08-07 11:40:57,353016
-4,-6,-5,-11,-12,-6,-4,-4,2021-08-07 11:40:57,385047
-1,-2,-3,-2,-6,-1,-3,-2,2021-08-07 11:40:57,385047
-2,-1,-3,-4,4,0,-1,0,2021-08-07 11:40:57,385047
0,1,3,7,-3,-2,-1,-1,2021-08-07 11:40:57,385047
0,-2,1,3,2,0,1,0,2021-08-07 11:40:57,401045
-2,-2,0,0,0,-2,0,-2,2021-08-07 11:40:57,401045
-2,-2,-2,-6,-3,-2,-1,-3,2021-08-07 11:40:57,401045
1,-1,-3,-7,-4,-3,-2,-1,2021-08-07 11:40:57,401045
-1,0,3,4,5,2,1,-1,2021-08-07 11:40:57,433047
0,0,-5,-8,-7,-3,-3,-1,2021-08-07 11:40:57,449047
-1,-3,-5,-8,-7,-4,-3,-3,2021-08-07 11:40:57,449047
1,2,2,3,2,1,0,2,2021-08-07 11:40:57,449047
0,-2,0,8,7,2,0,-2,2021-08-07 11:40:57,465047
-5,-3,-3,-4,-4,-2,-1,-2,2021-08-07 11:40:57,465047
-1,-2,2,5,2,0,-2,-1,2021-08-07 11:40:57,465047
0,1,0,-4,-4,0,0,1,2021-08-07 11:40:57,465047
-2,-5,-5,1,3,-1,-2,-3,2021-08-07 11:40:57,465047
0,2,4,7,6,2,1,1,2021-08-07 11:40:57,465047
-1,-3,-1,-2,-4,-2,0,-1,2021-08-07 11:40:57,465047
0,1,3,4,10,5,3,1,2021-08-07 11:40:57,465047
-1,-1,-2,0,-3,-3,-1,0,2021-08-07 11:40:57,465047
-5,-3,-6,-14,-11,-4,-3,-3,2021-08-07 11:40:57,466047
-3,-2,-3,-1,-11,-5,-1,-1,2021-08-07 11:40:57,481046
1,1,2,6,17,8,3,1,2021-08-07 11:40:57,497048
4,4,4,7,5,3,1,2,2021-08-07 11:40:57,513045
-2,-5,-3,-5,-8,-3,-1,-2,2021-08-07 11:40:57,513045
-4,-1,-3,-2,-3,-2,-3,-1,2021-08-07 11:40:57,513045
-4,-4,-2,-4,-6,-3,-2,-2,2021-08-07 11:40:57,513045
-3,1,-2,0,-1,0,-2,-2,2021-08-07 11:40:57,513045
-1,-1,-3,-7,-9,-2,-3,-3,2021-08-07 11:40:57,513045
2,1,-1,-5,0,0,1,-1,2021-08-07 11:40:57,513045
-1,-1,-1,6,7,2,-2,-2,2021-08-07 11:40:57,513045
-1,-3,-6,-9,-9,-6,-2,-1,2021-08-07 11:40:57,545046
2,2,0,2,0,5,8,4,2021-08-07 11:40:57,545046
-2,-1,0,-5,1,5,3,-1,2021-08-07 11:40:57,561047
0,0,-2,-6,-13,-9,-8,-5,2021-08-07 11:40:57,576047
-9,-7,-3,-2,1,-13,-14,-11,2021-08-07 11:40:57,591565
1,1,-1,1,1,-1,1,3,2021-08-07 11:40:57,591565
1,-3,-2,1,2,2,6,3,2021-08-07 11:40:57,591565
0,2,0,-3,0,6,2,0,2021-08-07 11:40:57,591565
-5,-4,-5,-3,-7,-7,-6,-5,2021-08-07 11:40:57,591565
0,0,1,0,-3,-2,-1,-2,2021-08-07 11:40:57,591565
2,0,3,11,14,6,1,3,2021-08-07 11:40:57,592565
-5,-5,-4,-7,-11,-11,-7,-6,2021-08-07 11:40:57,592565
3,3,0,2,2,5,5,4,2021-08-07 11:40:57,592565
-1,-2,1,2,3,-1,-2,-1,2021-08-07 11:40:57,592565
-1,-1,-3,-5,-2,1,2,1,2021-08-07 11:40:57,592565
-1,-3,-3,-2,-6,-2,-1,2,2021-08-07 11:40:57,592565
-2,-1,-2,-5,0,1,1,0,2021-08-07 11:40:57,623563
1,1,3,0,-5,-3,-1,1,2021-08-07 11:40:57,627565
4,7,5,4,5,4,0,1,2021-08-07 11:40:57,627565
-2,-3,0,3,7,-1,-1,-3,2021-08-07 11:40:57,627565
0,-2,0,1,1,2,2,1,2021-08-07 11:40:57,639564
-4,-4,-2,3,3,0,-3,-2,2021-08-07 11:40:57,655562
-4,-5,-6,-14,-14,-11,-9,-7,2021-08-07 11:40:57,671564
1,1,2,3,-9,-3,1,2,2021-08-07 11:40:57,671564
2,0,3,12,20,11,6,3,2021-08-07 11:40:57,671564
-1,-2,-2,-2,-1,-2,-4,-3,2021-08-07 11:40:57,671564
-4,-3,-1,5,2,-3,-6,-6,2021-08-07 11:40:57,671564
0,2,-4,-12,-9,-4,0,-1,2021-08-07 11:40:57,671564
1,1,2,1,-1,1,3,3,2021-08-07 11:40:57,671564
-1,-2,0,3,-1,-2,-1,-2,2021-08-07 11:40:57,672565
-3,-4,-3,-3,-3,-3,-2,-2,2021-08-07 11:40:57,672565
1,2,-1,-4,-6,-1,2,0,2021-08-07 11:40:57,672565
3,2,3,-3,-2,2,1,1,2021-08-07 11:40:57,703564
4,3,3,4,7,3,1,2,2021-08-07 11:40:57,703564
-5,-5,-5,-1,-6,-6,-2,-3,2021-08-07 11:40:57,703564
-4,-5,-5,-12,-3,-3,-2,-4,2021-08-07 11:40:57,703564
3,5,7,10,-1,3,2,2,2021-08-07 11:40:57,735564
0,-1,-2,-3,5,1,1,0,2021-08-07 11:40:57,735564
-2,-2,-2,-1,-6,-3,-2,-4,2021-08-07 11:40:57,735564
-6,-8,-9,-14,-8,-6,-4,-5,2021-08-07 11:40:57,735564
4,5,8,16,14,8,5,5,2021-08-07 11:40:57,735564
-3,0,-2,-4,-6,-3,-2,-1,2021-08-07 11:40:57,735564
-3,-2,-1,2,-3,-3,-3,-2,2021-08-07 11:40:57,735564
-4,-3,-9,-20,-23,-11,-5,-2,2021-08-07 11:40:57,735564
-1,-4,0,7,19,7,1,-2,2021-08-07 11:40:57,767565
4,6,6,14,20,8,3,3,2021-08-07 11:40:57,767565
1,1,4,1,6,2,0,1,2021-08-07 11:40:57,767565
1,-1,1,3,-1,1,-1,0,2021-08-07 11:40:57,767565
-6,-4,-12,-22,-35,-16,-7,-6,2021-08-07 11:40:57,767565
-3,-5,-3,-3,1,-1,-1,-2,2021-08-07 11:40:57,767565
-1,2,-2,-4,-2,-3,-2,-1,2021-08-07 11:40:57,783563
4,3,5,7,11,7,5,4,2021-08-07 11:40:57,783563
0,-3,-2,-3,-6,-2,-1,-1,2021-08-07 11:40:57,799565
1,3,6,11,5,4,3,2,2021-08-07 11:40:57,815564
1,-1,1,3,-4,-2,-1,0,2021-08-07 11:40:57,831563
-5,-7,-6,2,2,-3,-2,-2,2021-08-07 11:40:57,831563
1,2,0,-6,-1,-2,-1,0,2021-08-07 11:40:57,831563
0,1,-3,-8,-6,-4,-2,-1,2021-08-07 11:40:57,831563
2,3,2,4,-2,0,-1,-1,2021-08-07 11:40:57,831563
2,1,3,7,8,5,1,2,2021-08-07 11:40:57,831563
-3,-4,0,5,6,2,-1,-1,2021-08-07 11:40:57,831563
-2,-3,-6,-6,-4,-2,-2,-3,2021-08-07 11:40:57,831563
-3,-3,-3,-7,-2,-4,-4,-2,2021-08-07 11:40:57,831563
3,3,3,2,1,1,2,3,2021-08-07 11:40:57,832565
0,-1,-2,-4,-5,-3,-2,1,2021-08-07 11:40:57,862565
-3,-6,-4,-6,-10,-6,-5,-3,2021-08-07 11:40:57,862565
-2,-1,0,-3,-3,-1,-2,-1,2021-08-07 11:40:57,878564
1,4,6,13,18,9,3,2,2021-08-07 11:40:57,894564
-1,-1,-1,-2,-3,-2,-3,1,2021-08-07 11:40:57,894564
-3,-2,-2,-5,-7,-2,-2,0,2021-08-07 11:40:57,894564
0,-4,-1,5,6,1,0,-1,2021-08-07 11:40:57,894564
3,6,4,2,-4,-2,0,1,2021-08-07 11:40:57,894564
0,0,-2,-1,2,1,1,0,2021-08-07 11:40:57,894564
-2,-1,-2,-3,-8,-5,-4,-3,2021-08-07 11:40:57,894564
-2,-2,-3,0,3,0,-1,-2,2021-08-07 11:40:57,895565
-2,-2,-1,-3,0,2,-2,-2,2021-08-07 11:40:57,895565
1,5,4,10,5,3,1,2,2021-08-07 11:40:57,910564
-3,-2,-2,-4,-3,-1,-2,-1,2021-08-07 11:40:57,925564
-2,1,0,-9,-5,-4,0,-3,2021-08-07 11:40:57,925564
-4,-5,-7,-3,-6,-5,-3,-4,2021-08-07 11:40:57,925564
-1,-2,-3,-8,-7,-3,0,-1,2021-08-07 11:40:57,941564
0,-2,0,3,5,1,-1,0,2021-08-07 11:40:57,957564
1,3,5,9,9,4,1,3,2021-08-07 11:40:57,957564
-2,-2,0,-1,-3,-2,-1,-1,2021-08-07 11:40:57,957564
0,1,4,4,-8,-3,-2,-1,2021-08-07 11:40:57,957564
-1,0,-4,-7,-5,-5,-1,0,2021-08-07 11:40:57,973562
2,-2,-1,5,6,3,1,-1,2021-08-07 11:40:57,973562
-2,-3,-1,-5,-5,-3,-2,0,2021-08-07 11:40:57,973562
-3,-4,-4,-5,-2,-1,-2,-1,2021-08-07 11:40:57,973562
-1,0,0,4,1,1,0,0,2021-08-07 11:40:57,973562
-3,-1,-3,-7,-9,-3,-2,-1,2021-08-07 11:40:57,973562
1,0,-1,0,-4,-2,-1,1,2021-08-07 11:40:57,974564
0,-2,-2,-1,8,5,1,1,2021-08-07 11:40:58,005565
-2,-3,-7,-20,-23,-9,-3,-3,2021-08-07 11:40:58,021567
-1,-2,2,16,22,10,3,1,2021-08-07 11:40:58,021567
-2,0,3,8,13,6,2,-2,2021-08-07 11:40:58,021567
-5,-3,-3,-5,-7,-4,-4,-4,2021-08-07 11:40:58,021567
-3,-1,-2,0,-4,-3,-5,-3,2021-08-07 11:40:58,021567
-1,0,-5,-12,-17,-9,-5,-3,2021-08-07 11:40:58,037564
3,1,2,0,-1,0,1,0,2021-08-07 11:40:58,037564
2,1,0,5,9,4,-1,1,2021-08-07 11:40:58,037564
0,-2,-2,-3,5,1,2,-2,2021-08-07 11:40:58,037564
-1,-4,-5,-8,-12,-7,-3,-2,2021-08-07 11:40:58,037564
3,2,2,10,13,7,1,2,2021-08-07 11:40:58,037564
2,0,-1,-3,-1,-2,1,1,2021-08-07 11:40:58,053564
-4,-3,0,3,3,0,-1,-2,2021-08-07 11:40:58,053564
-2,1,-1,-4,-2,-1,0,1,2021-08-07 11:40:58,067563
-3,-1,-2,-4,-3,-3,-1,-2,2021-08-07 11:40:58,067563
1,0,0,0,-3,-1,0,-1,2021-08-07 11:40:58,068565
1,1,2,3,2,2,2,1,2021-08-07 11:40:58,068565
-4,-5,-3,-1,0,0,-1,-3,2021-08-07 11:40:58,085562
2,1,0,-4,-8,-2,-2,0,2021-08-07 11:40:58,085562
-1,0,0,-2,-2,-3,0,0,2021-08-07 11:40:58,101566
0,-1,0,7,8,3,-1,0,2021-08-07 11:40:58,117564
-4,-4,-4,-6,-8,-4,-4,-4,2021-08-07 11:40:58,133564
1,0,-2,-9,-6,-3,-1,0,2021-08-07 11:40:58,133564
-2,0,0,-1,-6,-2,-1,-1,2021-08-07 11:40:58,133564
4,7,7,21,30,10,4,4,2021-08-07 11:40:58,133564
-1,-3,0,3,2,0,1,0,2021-08-07 11:40:58,133564
-6,-6,-6,-6,-7,-7,-5,-6,2021-08-07 11:40:58,133564
-4,-4,-7,-11,-10,-6,-4,-5,2021-08-07 11:40:58,133564
-3,-1,-2,-9,-9,-4,-1,-1,2021-08-07 11:40:58,133564
1,2,-1,-2,-3,-1,0,1,2021-08-07 11:40:58,133564
2,3,6,17,24,12,10,5,2021-08-07 11:40:58,149564
-2,-2,-4,-6,-5,-3,-3,-2,2021-08-07 11:40:58,149564
-6,-4,-5,-6,-6,-7,-10,-7,2021-08-07 11:40:58,149564
-3,-2,-6,-11,-14,-9,-5,-4,2021-08-07 11:40:58,149564
2,5,7,9,15,8,2,2,2021-08-07 11:40:58,149564
1,0,0,0,4,2,4,2,2021-08-07 11:40:58,180565
4,3,3,7,4,6,8,5,2021-08-07 11:40:58,180565
1,0,-1,-2,0,2,2,0,2021-08-07 11:40:58,180565
1,1,1,-1,-10,-5,1,0,2021-08-07 11:40:58,180565
-3,-5,-5,3,4,1,-4,-3,2021-08-07 11:40:58,196564
-3,0,0,-3,-4,-13,-17,-9,2021-08-07 11:40:58,196564
-5,-6,-3,-2,-1,-5,-3,-4,2021-08-07 11:40:58,196564
-2,-4,-4,-5,-4,-1,-1,0,2021-08-07 11:40:58,196564
0,-1,0,-1,-2,1,3,1,2021-08-07 11:40:58,212564
3,0,-4,-13,-10,3,10,5,2021-08-07 11:40:58,212564
4,5,2,7,11,9,3,3,2021-08-07 11:40:58,212564
0,0,-2,1,3,-2,-6,-2,2021-08-07 11:40:58,212564
-1,-1,-1,-4,-10,-6,1,0,2021-08-07 11:40:58,244565
-3,-5,-1,4,4,1,-2,-3,2021-08-07 11:40:58,260563
2,5,6,8,14,4,3,1,2021-08-07 11:40:58,260563
-4,-5,-5,-10,-17,-12,-2,-3,2021-08-07 11:40:58,260563
-2,-1,-3,-9,-9,-3,-4,-3,2021-08-07 11:40:58,260563
-3,-3,-4,0,-5,-4,-2,-2,2021-08-07 11:40:58,260563
1,-2,-1,1,1,5,3,2,2021-08-07 11:40:58,261565
2,2,3,9,16,6,1,2,2021-08-07 11:40:58,261565
-2,0,-5,-11,-13,-6,-3,-2,2021-08-07 11:40:58,276564
0,0,4,5,6,3,3,1,2021-08-07 11:40:58,292565
-3,-6,-4,-8,-12,-6,-4,-3,2021-08-07 11:40:58,308564
-4,-3,-3,-5,-9,-3,-4,-2,2021-08-07 11:40:58,308564
6,9,5,1,7,3,0,4,2021-08-07 11:40:58,324567
2,1,3,8,5,4,3,3,2021-08-07 11:40:58,324567
-1,0,-3,-7,-8,-5,-1,-2,2021-08-07 11:40:58,324567
-6,-6,-5,-6,-12,-5,-4,-4,2021-08-07 11:40:58,324567
-1,-1,1,6,9,3,3,1,2021-08-07 11:40:58,324567
0,1,-1,7,9,5,1,0,2021-08-07 11:40:58,324567
-1,-2,-1,-2,-1,-3,-2,-2,2021-08-07 11:40:58,324567
2,2,0,-1,1,1,1,1,2021-08-07 11:40:58,324567
-4,-5,-6,-5,-5,-2,-5,-4,2021-08-07 11:40:58,340563
1,0,-3,-15,-16,-8,0,1,2021-08-07 11:40:58,356564
0,1,1,8,7,2,0,1,2021-08-07 11:40:58,371566
0,-1,0,3,-3,-1,0,-1,2021-08-07 11:40:58,371566
0,0,4,10,14,5,1,0,2021-08-07 11:40:58,371566
-5,-6,-4,-9,-11,-7,-5,-3,2021-08-07 11:40:58,371566
-3,-4,-5,-13,-15,-8,-4,-3,2021-08-07 11:40:58,371566
3,3,1,4,6,3,1,1,2021-08-07 11:40:58,371566
1,1,4,4,8,4,2,0,2021-08-07 11:40:58,372565
-1,-2,-3,-1,-4,-2,-2,-1,2021-08-07 11:40:58,372565
6,6,6,7,4,2,2,4,2021-08-07 11:40:58,372565
-2,-3,-4,-3,-6,-1,-4,-3,2021-08-07 11:40:58,372565
-5,-6,-7,-18,-17,-10,-5,-5,2021-08-07 11:40:58,403565
1,0,2,2,8,5,1,0,2021-08-07 11:40:58,403565
-1,0,1,4,0,-1,-3,-1,2021-08-07 11:40:58,419562
1,-1,-1,-3,-1,-4,1,1,2021-08-07 11:40:58,419562
-3,-4,-5,-4,-4,-2,-2,-3,2021-08-07 11:40:58,419562
-2,-2,-3,-3,-1,1,-1,-1,2021-08-07 11:40:58,419562
-3,-1,-4,-6,-2,-1,-2,-2,2021-08-07 11:40:58,419562
1,1,2,-2,-1,-2,-1,-2,2021-08-07 11:40:58,419562
1,0,1,1,-1,0,2,3,2021-08-07 11:40:58,450564
-3,-3,-1,-1,1,-1,-1,-1,2021-08-07 11:40:58,466564
3,2,3,1,-1,1,0,1,2021-08-07 11:40:58,482565
-5,-2,0,8,8,3,-1,0,2021-08-07 11:40:58,498563
1,1,1,6,5,1,0,-1,2021-08-07 11:40:58,502563
0,-1,-2,-1,4,0,-1,-1,2021-08-07 11:40:58,502563
-1,-2,-1,-2,-1,0,-1,-2,2021-08-07 11:40:58,503564
-2,-3,-2,-7,-13,-7,-3,0,2021-08-07 11:40:58,503564
2,3,4,11,7,4,2,2,2021-08-07 11:40:58,503564
-3,-3,-5,-10,-10,-5,-3,-3,2021-08-07 11:40:58,503564
-1,-2,-1,-3,1,-1,0,0,2021-08-07 11:40:58,503564
1,0,1,4,7,4,1,0,2021-08-07 11:40:58,504565
1,0,0,1,1,2,0,0,2021-08-07 11:40:58,504565
-4,-5,-9,-22,-25,-12,-7,-4,2021-08-07 11:40:58,504565
-2,-3,0,10,14,5,0,-1,2021-08-07 11:40:58,504565
-1,-2,-8,-16,-15,-5,-2,-1,2021-08-07 11:40:58,504565
2,3,8,30,27,11,4,2,2021-08-07 11:40:58,513565
-1,0,0,0,4,2,2,0,2021-08-07 11:40:58,513565
-1,-1,0,-4,-9,-4,0,0,2021-08-07 11:40:58,513565
-3,-1,-2,-2,-4,-3,-2,-2,2021-08-07 11:40:58,513565
-2,-3,-4,-13,-12,-4,-3,-1,2021-08-07 11:40:58,545564
-1,-1,1,3,-1,-2,-2,-2,2021-08-07 11:40:58,561564
2,2,2,3,-4,-1,0,-1,2021-08-07 11:40:58,561564
4,6,5,12,21,8,3,1,2021-08-07 11:40:58,561564
-4,-5,-6,-12,-12,-7,-3,-4,2021-08-07 11:40:58,561564
-2,-2,0,4,5,2,-1,0,2021-08-07 11:40:58,562566
-6,-5,-9,-12,-10,-5,-5,-4,2021-08-07 11:40:58,562566
-1,0,0,-1,-7,-4,0,1,2021-08-07 11:40:58,562566
1,0,0,1,6,3,0,2,2021-08-07 11:40:58,577564
3,1,1,0,0,0,1,2,2021-08-07 11:40:58,577564
-3,-2,-1,0,-1,0,0,-1,2021-08-07 11:40:58,577564
-3,-3,-3,-5,-4,-2,-2,-2,2021-08-07 11:40:58,577564
-2,-2,-3,-3,-5,-3,-4,-3,2021-08-07 11:40:58,593565
0,2,-2,-1,-1,2,1,1,2021-08-07 11:40:58,608564
4,5,7,4,4,3,3,2,2021-08-07 11:40:58,608564
-1,-1,-1,4,3,1,-1,-2,2021-08-07 11:40:58,608564
-4,-4,-2,-1,-3,-3,-1,0,2021-08-07 11:40:58,624565
1,2,1,2,5,3,1,1,2021-08-07 11:40:58,640563
-2,-1,-4,-7,-2,-2,-2,-1,2021-08-07 11:40:58,640563
-2,-3,-2,-5,-7,-3,-1,-2,2021-08-07 11:40:58,640563
-3,-2,-2,-5,-8,-4,-2,-2,2021-08-07 11:40:58,640563
-1,-3,-3,0,4,-1,-1,-2,2021-08-07 11:40:58,640563
3,4,3,3,2,2,1,2,2021-08-07 11:40:58,641565
-1,-2,-2,0,0,-2,0,-1,2021-08-07 11:40:58,641565
0,1,-2,-7,-2,1,1,-1,2021-08-07 11:40:58,656563
-1,-1,0,9,0,-1,1,-1,2021-08-07 11:40:58,656563
-3,-5,-6,-3,-8,-7,-3,-6,2021-08-07 11:40:58,656563
5,6,7,11,17,9,5,5,2021-08-07 11:40:58,656563
2,2,3,8,2,1,1,1,2021-08-07 11:40:58,688564
-1,0,-1,-2,-1,-3,-3,-1,2021-08-07 11:40:58,688564
-8,-9,-9,-14,-14,-9,-6,-5,2021-08-07 11:40:58,688564
7,9,9,12,13,8,4,5,2021-08-07 11:40:58,688564
-2,-2,-5,-6,-7,-5,-3,-3,2021-08-07 11:40:58,688564
-2,-2,0,-1,0,0,0,-3,2021-08-07 11:40:58,688564
-4,-3,-1,-1,0,-3,-2,-3,2021-08-07 11:40:58,704564
-5,-8,-7,-10,-11,-6,-4,-5,2021-08-07 11:40:58,704564
2,1,-1,-1,4,3,1,5,2021-08-07 11:40:58,720565
0,1,-1,-4,-5,-2,0,0,2021-08-07 11:40:58,720565
-1,-2,-4,2,5,3,-1,-1,2021-08-07 11:40:58,720565
-1,-1,-3,-5,-7,-3,-3,-2,2021-08-07 11:40:58,720565
2,3,4,6,11,4,1,1,2021-08-07 11:40:58,750564
-3,-4,-4,-4,-7,-3,-2,-2,2021-08-07 11:40:58,766565
1,0,1,1,2,1,0,1,2021-08-07 11:40:58,782565
-2,-3,-2,-4,-2,-3,-2,-2,2021-08-07 11:40:58,782565
-6,-8,-8,-10,-10,-8,-4,-5,2021-08-07 11:40:58,782565
-1,1,0,-3,-2,-2,-1,0,2021-08-07 11:40:58,782565
0,2,4,7,8,4,1,1,2021-08-07 11:40:58,783567
-2,-1,-3,-4,-8,-6,-1,-3,2021-08-07 11:40:58,783567
1,2,-3,-8,-5,0,0,0,2021-08-07 11:40:58,783567
0,1,2,4,-8,-4,-3,1,2021-08-07 11:40:58,783567
3,3,6,9,13,3,1,1,2021-08-07 11:40:58,783567
1,-2,0,9,14,6,0,-1,2021-08-07 11:40:58,783567
-3,-3,-4,-5,-6,-3,-2,-1,2021-08-07 11:40:58,798563
2,0,0,3,6,5,3,2,2021-08-07 11:40:58,798563
-4,-6,-6,-8,-11,-4,-2,-2,2021-08-07 11:40:58,798563
-4,-6,-3,-7,-12,-6,-3,-4,2021-08-07 11:40:58,798563
-2,0,3,5,5,1,2,-3,2021-08-07 11:40:58,814564
-1,-1,-1,-6,-4,0,1,-1,2021-08-07 11:40:58,814564
1,2,2,4,3,3,-3,-1,2021-08-07 11:40:58,814564
-4,1,-1,-5,-3,-8,-10,-4,2021-08-07 11:40:58,814564
-1,-1,-3,-4,-9,-9,-6,-2,2021-08-07 11:40:58,845565
0,-2,-2,-3,-2,-2,2,-2,2021-08-07 11:40:58,845565
1,-2,-2,-3,0,3,3,2,2021-08-07 11:40:58,845565
7,2,0,-2,0,13,23,14,2021-08-07 11:40:58,845565
9,8,5,7,9,8,-1,4,2021-08-07 11:40:58,861563
-14,-13,-11,-20,-22,-26,-26,-21,2021-08-07 11:40:58,876566
-16,-7,5,24,15,-9,-15,-14,2021-08-07 11:40:58,876566
0,1,-4,-11,-13,-4,-1,1,2021-08-07 11:40:58,876566
2,2,6,9,12,10,12,7,2021-08-07 11:40:58,876566
11,4,-2,-3,5,17,18,12,2021-08-07 11:40:58,877565
9,7,3,0,-5,5,6,6,2021-08-07 11:40:58,877565
-10,-7,-4,-5,-4,-11,-13,-10,2021-08-07 11:40:58,877565
0,-3,-4,4,-2,-3,-1,-1,2021-08-07 11:40:58,908565
-5,-3,-3,-1,2,-2,-2,-3,2021-08-07 11:40:58,908565
7,4,1,-5,-5,7,14,10,2021-08-07 11:40:58,908565
5,2,3,7,9,8,2,5,2021-08-07 11:40:58,908565
-15,-10,-7,-14,-17,-29,-30,-21,2021-08-07 11:40:58,924565
-11,-7,-2,-1,-5,-12,-11,-7,2021-08-07 11:40:58,940566
1,-3,-7,-10,-3,1,6,4,2021-08-07 11:40:58,940566
8,5,-1,-3,0,9,11,8,2021-08-07 11:40:58,940566
6,2,2,-4,-8,3,4,4,2021-08-07 11:40:58,940566
1,1,7,24,33,12,1,-2,2021-08-07 11:40:58,940566
-3,-4,-6,-14,-19,-11,-4,-3,2021-08-07 11:40:58,941564
-3,0,2,8,6,-2,-5,-6,2021-08-07 11:40:58,941564
-7,-6,-5,0,7,0,0,-4,2021-08-07 11:40:58,956563
5,3,1,0,-4,1,3,5,2021-08-07 11:40:58,956563
1,-1,-5,-5,-4,0,1,1,2021-08-07 11:40:58,956563
-3,0,2,3,-3,-4,-3,-2,2021-08-07 11:40:58,956563
2,1,0,-3,-1,4,3,5,2021-08-07 11:40:58,988564
3,2,3,-1,-2,1,1,1,2021-08-07 11:40:59,004565
0,1,0,7,6,1,-2,-1,2021-08-07 11:40:59,036565
-7,-7,-6,-8,-9,-9,-6,-7,2021-08-07 11:40:59,052564
-6,-4,-5,-5,-8,-3,-1,-3,2021-08-07 11:40:59,068563
1,0,-1,2,6,6,1,4,2021-08-07 11:40:59,084565
-2,0,3,-5,-2,-4,-3,-2,2021-08-07 11:40:59,100564
0,0,2,5,5,-1,-1,-1,2021-08-07 11:40:59,100564
0,-2,-4,-10,-6,0,1,-1,2021-08-07 11:40:59,100564
-3,-1,0,0,-7,-4,-3,-3,2021-08-07 11:40:59,100564
-1,-2,1,11,16,5,0,-1,2021-08-07 11:40:59,100564
-1,0,-3,-15,-14,-5,-1,-1,2021-08-07 11:40:59,101564
-2,-2,0,10,4,1,0,-2,2021-08-07 11:40:59,101564
4,6,3,2,10,5,4,2,2021-08-07 11:40:59,101564
-2,-3,-5,-2,4,1,-1,-1,2021-08-07 11:40:59,101564
0,0,-1,-9,-7,-1,0,0,2021-08-07 11:40:59,101564
0,0,2,7,-1,-1,0,1,2021-08-07 11:40:59,101564
-5,-5,-6,-12,-10,-4,-2,-3,2021-08-07 11:40:59,101564
3,4,2,3,-1,0,1,0,2021-08-07 11:40:59,101564
-5,-5,-5,-4,-1,-2,-3,-3,2021-08-07 11:40:59,101564
1,1,0,-1,3,3,3,1,2021-08-07 11:40:59,102565
0,-1,-2,1,-6,-4,-2,0,2021-08-07 11:40:59,102565
0,0,0,-4,-1,0,-2,-1,2021-08-07 11:40:59,102565
-1,-1,1,-2,-5,-3,-1,-2,2021-08-07 11:40:59,102565
-1,0,0,0,-4,-1,-1,-2,2021-08-07 11:40:59,102565
1,1,2,5,8,4,3,2,2021-08-07 11:40:59,102565
-4,-3,-4,-4,-5,-6,-4,-5,2021-08-07 11:40:59,116565
-3,-3,-6,-3,-7,-5,-2,-2,2021-08-07 11:40:59,116565
-3,-2,1,4,2,2,0,0,2021-08-07 11:40:59,132562
-1,0,1,6,2,-1,-1,0,2021-08-07 11:40:59,132562
1,0,2,-3,-4,2,0,1,2021-08-07 11:40:59,132562
2,1,2,10,16,5,2,1,2021-08-07 11:40:59,132562
-2,-5,-7,-10,-11,-6,-3,-3,2021-08-07 11:40:59,132562
-3,-4,-9,-17,-12,-4,-2,-3,2021-08-07 11:40:59,133565
1,0,5,9,3,-1,1,0,2021-08-07 11:40:59,133565
-1,0,-1,3,-2,1,0,-1,2021-08-07 11:40:59,133565
0,-1,1,-2,-3,-2,0,-1,2021-08-07 11:40:59,164563
2,2,6,14,23,12,4,4,2021-08-07 11:40:59,180563
1,4,0,-3,-4,-1,-1,0,2021-08-07 11:40:59,196564
-3,-5,-6,-16,-20,-11,-7,-3,2021-08-07 11:40:59,212563
-2,0,2,10,14,4,-1,0,2021-08-07 11:40:59,228564
-2,0,-2,0,-1,-2,2,-2,2021-08-07 11:40:59,228564
-5,-7,-7,-8,-4,-2,-2,-3,2021-08-07 11:40:59,228564
3,6,7,9,4,1,1,1,2021-08-07 11:40:59,228564
-1,-1,-5,-3,1,2,2,-1,2021-08-07 11:40:59,228564
2,2,2,-2,-5,-1,1,0,2021-08-07 11:40:59,228564
-3,-2,-3,0,0,1,-1,-1,2021-08-07 11:40:59,229564
-4,-3,-5,-6,-4,-4,-2,-3,2021-08-07 11:40:59,229564
2,1,0,-7,-7,-2,-2,0,2021-08-07 11:40:59,229564
-3,-4,-1,-1,3,1,-2,-1,2021-08-07 11:40:59,229564
0,-1,-2,-2,-7,-4,-3,-1,2021-08-07 11:40:59,229564
1,1,5,9,15,7,2,2,2021-08-07 11:40:59,229564
-3,-1,3,6,7,2,-2,-3,2021-08-07 11:40:59,244563
-5,-2,-7,-15,-16,-9,-5,-4,2021-08-07 11:40:59,260566
1,1,0,-10,-7,-3,0,1,2021-08-07 11:40:59,276563
1,2,6,22,16,8,3,1,2021-08-07 11:40:59,276563
0,0,-4,-6,-4,-3,0,0,2021-08-07 11:40:59,276563
-2,-2,1,1,-4,-1,-2,-1,2021-08-07 11:40:59,276563
-2,-5,-2,-1,0,-1,-1,-2,2021-08-07 11:40:59,276563
-2,-2,-3,-6,-3,-1,-1,-2,2021-08-07 11:40:59,277565
2,0,0,-2,-2,-1,1,1,2021-08-07 11:40:59,277565
-3,-3,-3,0,4,-1,-2,-3,2021-08-07 11:40:59,277565
0,0,0,0,2,1,-1,0,2021-08-07 11:40:59,277565
1,3,-1,-3,-7,-1,-1,1,2021-08-07 11:40:59,277565
4,5,7,15,18,8,3,2,2021-08-07 11:40:59,323564
-1,-1,-3,-5,-8,-2,-2,-2,2021-08-07 11:40:59,323564
-3,-2,-2,3,2,-1,-1,-1,2021-08-07 11:40:59,323564
-2,-3,-3,-7,-7,-6,-4,-2,2021-08-07 11:40:59,323564
-3,-3,-3,-5,-2,-1,-2,-1,2021-08-07 11:40:59,323564
0,-2,-2,0,1,-1,0,1,2021-08-07 11:40:59,323564
2,3,4,7,4,2,1,-1,2021-08-07 11:40:59,323564
-1,-1,-4,-10,-11,-5,-1,-2,2021-08-07 11:40:59,323564
-1,-2,-1,4,4,1,-1,0,2021-08-07 11:40:59,339562
-1,1,5,9,10,5,2,1,2021-08-07 11:40:59,339562
-1,-2,-4,-7,-7,-5,-1,-1,2021-08-07 11:40:59,339562
-2,-3,-4,-5,-2,-1,-3,-2,2021-08-07 11:40:59,339562
0,1,2,-5,-6,-3,1,-2,2021-08-07 11:40:59,370564
-2,-3,-4,-7,-9,-6,-4,-2,2021-08-07 11:40:59,385563
5,6,2,6,6,5,4,4,2021-08-07 11:40:59,385563
1,3,5,11,15,6,2,2,2021-08-07 11:40:59,385563
-3,-5,-6,-12,-11,-5,-4,-3,2021-08-07 11:40:59,385563
-3,-6,-5,-2,-9,-6,-6,-3,2021-08-07 11:40:59,385563
1,1,3,-2,3,3,1,-1,2021-08-07 11:40:59,386565
2,0,0,0,1,-1,1,1,2021-08-07 11:40:59,402565
-6,-6,-3,-6,-13,-5,-4,-5,2021-08-07 11:40:59,418564
3,4,2,4,9,2,3,1,2021-08-07 11:40:59,418564
1,2,0,1,10,6,7,5,2021-08-07 11:40:59,418564
2,1,2,5,8,9,8,3,2021-08-07 11:40:59,418564
-2,-1,-2,-1,-4,-3,-2,-1,2021-08-07 11:40:59,418564
-5,-3,-3,-8,-11,-11,-17,-9,2021-08-07 11:40:59,418564
-5,-5,0,9,-1,-15,-16,-9,2021-08-07 11:40:59,418564
-7,-7,-4,-2,-7,-9,-6,-6,2021-08-07 11:40:59,419566
0,0,-4,-8,-3,3,5,4,2021-08-07 11:40:59,434564
1,-1,-1,3,-2,5,7,2,2021-08-07 11:40:59,434564
6,8,7,2,7,10,8,5,2021-08-07 11:40:59,434564
-1,-1,-4,0,-1,1,3,1,2021-08-07 11:40:59,434564
1,3,0,-6,-1,0,-1,0,2021-08-07 11:40:59,481564
-1,-1,-6,-14,-6,1,0,-2,2021-08-07 11:40:59,497564
-6,-6,-1,9,0,-2,-6,-9,2021-08-07 11:40:59,497564
-4,-2,-6,-11,-9,-9,-6,-6,2021-08-07 11:40:59,497564
-4,-1,1,6,12,3,-2,-2,2021-08-07 11:40:59,497564
-1,-2,-2,-6,-12,-4,-1,1,2021-08-07 11:40:59,497564
-2,-1,-3,-2,2,2,1,0,2021-08-07 11:40:59,497564
1,-1,-3,-11,-15,1,6,4,2021-08-07 11:40:59,497564
8,8,8,8,9,8,1,1,2021-08-07 11:40:59,497564
-7,-5,0,8,8,-12,-15,-11,2021-08-07 11:40:59,498565
-7,-7,-5,-9,-3,-4,-5,-3,2021-08-07 11:40:59,498565
-2,-2,-2,1,3,2,0,0,2021-08-07 11:40:59,498565
1,2,1,-1,-11,-1,8,3,2021-08-07 11:40:59,529565
4,2,0,-2,-7,3,3,3,2021-08-07 11:40:59,545564
-7,-6,-6,-7,-3,-10,-10,-9,2021-08-07 11:40:59,545564
-1,-2,-2,-4,-4,-4,-2,-2,2021-08-07 11:40:59,545564
5,7,8,14,13,9,4,4,2021-08-07 11:40:59,545564
-2,-1,-1,1,3,1,4,2,2021-08-07 11:40:59,545564
2,3,-1,-4,-9,0,5,5,2021-08-07 11:40:59,545564
-3,-4,-4,-3,1,0,-3,-2,2021-08-07 11:40:59,546564
-3,-5,-4,-3,-8,-9,-9,-6,2021-08-07 11:40:59,560566
-3,-3,-2,-5,1,1,-1,-2,2021-08-07 11:40:59,560566
8,7,2,1,3,12,13,9,2021-08-07 11:40:59,560566
2,3,3,4,1,2,-1,0,2021-08-07 11:40:59,560566
-7,-11,-11,-23,-27,-24,-21,-12,2021-08-07 11:40:59,576566
-5,-4,-5,-1,9,-5,-2,-4,2021-08-07 11:40:59,576566
2,-1,3,2,7,6,7,4,2021-08-07 11:40:59,592567
4,4,5,16,25,14,8,3,2021-08-07 11:40:59,608563
-2,-1,-1,-3,-2,2,2,-1,2021-08-07 11:40:59,608563
0,3,3,-2,-15,-5,-1,-1,2021-08-07 11:40:59,608563
-6,-4,-4,-7,-9,-6,-7,-6,2021-08-07 11:40:59,608563
0,1,-2,-9,-9,-5,-3,0,2021-08-07 11:40:59,608563
-1,1,6,19,19,2,0,1,2021-08-07 11:40:59,608563
3,1,0,-4,-6,-1,3,2,2021-08-07 11:40:59,608563
2,-1,-1,-4,-7,-2,1,1,2021-08-07 11:40:59,608563
-2,-4,-4,-6,-4,0,-1,-1,2021-08-07 11:40:59,608563
-4,-6,-6,-1,4,-1,-3,-2,2021-08-07 11:40:59,640563
-2,-1,-1,-4,-6,-6,-6,-4,2021-08-07 11:40:59,656564
1,1,3,11,12,3,-2,0,2021-08-07 11:40:59,656564
1,0,1,-2,-6,-4,-4,-2,2021-08-07 11:40:59,656564
-4,-4,-6,-10,-3,-2,2,-1,2021-08-07 11:40:59,656564
3,3,6,13,13,13,9,5,2021-08-07 11:40:59,656564
-1,-2,1,1,-2,-3,-5,-3,2021-08-07 11:40:59,656564
2,3,2,2,2,1,-1,1,2021-08-07 11:40:59,657565
0,-1,-1,0,0,3,1,0,2021-08-07 11:40:59,672564
-2,-2,-5,-15,-21,-8,-4,-2,2021-08-07 11:40:59,672564
-2,-1,-2,-6,-4,-2,-2,0,2021-08-07 11:40:59,672564
2,2,4,13,24,9,3,2,2021-08-07 11:40:59,672564
1,1,5,6,-2,-2,0,0,2021-08-07 11:40:59,703564
1,1,2,5,3,1,1,3,2021-08-07 11:40:59,703564
-3,-5,-6,-9,-8,-5,-4,-4,2021-08-07 11:40:59,703564
-3,-3,-3,-1,-3,-3,-3,-3,2021-08-07 11:40:59,703564
-4,-4,-8,-14,-21,-11,-5,-2,2021-08-07 11:40:59,719566
3,2,6,14,15,9,6,4,2021-08-07 11:40:59,719566
0,2,2,1,1,1,-1,0,2021-08-07 11:40:59,719566
-4,-2,-2,-8,-5,-7,-4,-4,2021-08-07 11:40:59,719566
-2,-4,-1,5,6,2,1,-2,2021-08-07 11:40:59,735565
2,4,3,4,-1,-1,0,1,2021-08-07 11:40:59,735565
-2,0,-3,-3,-6,-2,-3,-1,2021-08-07 11:40:59,735565
3,4,6,7,7,2,1,1,2021-08-07 11:40:59,735565
-1,1,-2,-5,-6,-1,0,-1,2021-08-07 11:40:59,783566
-2,-5,-5,-4,1,-1,-3,-3,2021-08-07 11:40:59,783566
-4,-5,-4,-7,-9,-5,-3,-2,2021-08-07 11:40:59,783566
-2,-4,-4,-10,-12,-3,-3,-1,2021-08-07 11:40:59,783566
2,1,2,7,24,10,4,2,2021-08-07 11:40:59,783566
0,0,1,7,12,5,2,1,2021-08-07 11:40:59,783566
1,3,2,4,2,0,1,0,2021-08-07 11:40:59,783566
-4,-6,-5,-1,-8,-4,-3,-3,2021-08-07 11:40:59,784564
-4,-5,-7,-20,-23,-10,-5,-3,2021-08-07 11:40:59,799565
1,3,4,6,12,3,2,-1,2021-08-07 11:40:59,815564
1,2,1,9,9,3,2,1,2021-08-07 11:40:59,827563
0,3,1,1,2,1,0,-2,2021-08-07 11:40:59,827563
-2,-2,-2,-1,-5,-3,-1,-1,2021-08-07 11:40:59,827563
-1,-3,-1,-8,-5,-4,-2,-1,2021-08-07 11:40:59,827563
-1,-2,-4,-4,-7,-3,-3,-3,2021-08-07 11:40:59,827563
-2,-2,-6,2,3,1,-1,-1,2021-08-07 11:40:59,828564
1,2,2,3,7,3,0,-1,2021-08-07 11:40:59,847564
-4,-3,-3,-7,-4,-1,0,-1,2021-08-07 11:40:59,847564
-1,-3,-1,0,-1,0,-1,-1,2021-08-07 11:40:59,847564
-1,-1,-3,-3,-5,-4,-1,-1,2021-08-07 11:40:59,847564
2,2,2,5,4,1,1,1,2021-08-07 11:40:59,847564
-1,1,-1,-4,-5,-3,0,-1,2021-08-07 11:40:59,847564
-4,-4,-5,-6,-1,-4,-2,-1,2021-08-07 11:40:59,863564
-1,2,6,8,0,-2,-1,-2,2021-08-07 11:40:59,863564
-1,-3,-2,2,-1,1,0,0,2021-08-07 11:40:59,878563
3,0,2,6,14,5,2,1,2021-08-07 11:40:59,878563
-5,-6,-6,-9,-9,-4,-2,-4,2021-08-07 11:40:59,878563
0,-1,0,-3,-2,-2,0,2,2021-08-07 11:40:59,878563
0,0,0,-2,-3,-2,-2,0,2021-08-07 11:40:59,909565
-2,1,-4,-3,-7,-4,-2,-3,2021-08-07 11:40:59,909565
0,-2,-3,-1,-1,-1,0,-1,2021-08-07 11:40:59,909565
-1,-4,-2,-4,-3,0,-3,-2,2021-08-07 11:40:59,909565
3,2,2,3,1,1,-1,-1,2021-08-07 11:40:59,909565
-1,-3,-4,-2,-5,-4,-2,-1,2021-08-07 11:40:59,909565
-1,-2,0,-1,0,0,-1,0,2021-08-07 11:40:59,925565
-6,-7,-4,-5,-2,-4,-3,-4,2021-08-07 11:40:59,925565
6,9,9,7,6,5,6,5,2021-08-07 11:40:59,941567
0,-1,-2,-4,-4,-2,-1,-2,2021-08-07 11:40:59,941567
-2,1,-2,-1,-3,-2,-1,-2,2021-08-07 11:40:59,941567
-2,-4,-1,-1,-1,0,-2,-1,2021-08-07 11:40:59,941567
-3,-4,-6,-7,-4,-2,-2,-1,2021-08-07 11:40:59,957564
-3,-4,-2,-4,-8,-6,-2,-2,2021-08-07 11:40:59,957564
1,0,-3,-9,-4,1,0,0,2021-08-07 11:40:59,957564
-1,-1,-1,1,3,2,1,0,2021-08-07 11:40:59,957564
4,5,10,22,13,7,4,3,2021-08-07 11:40:59,973564
-2,-1,-4,-3,-3,-1,-1,-1,2021-08-07 11:40:59,973564
-1,-1,-4,-7,-10,-5,-4,-1,2021-08-07 11:40:59,989562
0,-1,-3,-4,-7,-5,-1,-3,2021-08-07 11:41:00,005566
-4,-5,-7,-11,-1,-1,-2,-4,2021-08-07 11:41:00,021564
-4,-4,-1,5,-2,0,-3,-2,2021-08-07 11:41:00,021564
6,7,7,9,7,5,3,4,2021-08-07 11:41:00,021564
1,1,1,2,6,1,2,1,2021-08-07 11:41:00,021564
-5,-3,-4,-6,-7,-6,-3,-3,2021-08-07 11:41:00,037565
0,0,0,0,-3,-2,-2,-1,2021-08-07 11:41:00,037565
0,-2,-1,-7,-5,-4,-2,-2,2021-08-07 11:41:00,037565
4,5,5,8,7,3,2,3,2021-08-07 11:41:00,037565
-4,-6,-4,-5,-4,-3,-3,-2,2021-08-07 11:41:00,037565
-1,-2,-3,-9,-6,-2,-1,-2,2021-08-07 11:41:00,037565
-2,-3,0,6,5,0,0,-1,2021-08-07 11:41:00,037565
0,0,-3,-4,-10,-3,-1,-1,2021-08-07 11:41:00,037565
1,0,-3,0,5,0,0,0,2021-08-07 11:41:00,069562
-4,-2,-2,-1,-2,-4,-3,-1,2021-08-07 11:41:00,085563
-2,-3,-1,1,3,1,0,0,2021-08-07 11:41:00,101564
-2,-1,-1,-4,-11,-6,-2,-4,2021-08-07 11:41:00,117565
-2,-3,-4,-8,-2,1,0,-1,2021-08-07 11:41:00,117565
3,3,5,16,23,11,3,2,2021-08-07 11:41:00,117565
0,-3,-1,-1,0,-1,0,-1,2021-08-07 11:41:00,117565
4,4,6,9,8,3,2,3,2021-08-07 11:41:00,117565
-3,-4,-5,-7,-11,-5,-4,-5,2021-08-07 11:41:00,117565
-2,-3,-5,-11,-12,-7,-3,-4,2021-08-07 11:41:00,117565
0,0,-1,3,2,1,-1,-1,2021-08-07 11:41:00,118564
-3,-4,-4,-8,-6,-2,-3,-2,2021-08-07 11:41:00,118564
1,0,2,-1,-6,1,0,0,2021-08-07 11:41:00,118564
1,1,2,4,5,2,-1,1,2021-08-07 11:41:00,132567
2,5,2,1,-1,1,4,1,2021-08-07 11:41:00,132567
-1,-2,-2,-1,1,-2,-4,-2,2021-08-07 11:41:00,132567
-4,-4,-4,-8,-2,-2,-2,-1,2021-08-07 11:41:00,148562
-3,-2,0,5,-9,-3,0,-2,2021-08-07 11:41:00,148562
4,4,2,3,2,2,0,3,2021-08-07 11:41:00,148562
-3,-1,-4,-9,-7,-6,-5,-5,2021-08-07 11:41:00,148562
-3,-3,0,1,1,-4,-6,-6,2021-08-07 11:41:00,164563
0,0,0,-1,2,1,0,-1,2021-08-07 11:41:00,164563
-2,-2,1,10,5,1,3,-1,2021-08-07 11:41:00,164563
2,-1,-1,-1,-2,3,3,1,2021-08-07 11:41:00,164563
0,-2,-2,1,-1,0,-1,0,2021-08-07 11:41:00,179565
1,1,-1,-6,-4,0,1,0,2021-08-07 11:41:00,179565
-2,0,-2,-6,-5,-4,-5,-3,2021-08-07 11:41:00,179565
-3,-4,-2,3,7,3,0,-2,2021-08-07 11:41:00,179565
-4,-1,-1,1,-5,-4,-1,0,2021-08-07 11:41:00,210563
6,3,2,7,13,9,8,6,2021-08-07 11:41:00,210563
3,2,-2,-9,-9,-2,-2,0,2021-08-07 11:41:00,210563
1,0,0,2,-2,-6,-7,-3,2021-08-07 11:41:00,210563
-5,-7,-5,1,2,-4,-6,-5,2021-08-07 11:41:00,226563
3,3,2,-2,3,5,3,5,2021-08-07 11:41:00,226563
-3,-3,-3,-2,0,0,-1,-1,2021-08-07 11:41:00,226563
-1,1,1,5,2,2,3,1,2021-08-07 11:41:00,226563
2,3,3,2,1,0,-1,-1,2021-08-07 11:41:00,242562
-1,-3,-5,-7,-5,-4,-4,-4,2021-08-07 11:41:00,257563
-5,-6,-7,-4,-3,-2,0,-3,2021-08-07 11:41:00,257563
6,8,9,5,5,6,5,5,2021-08-07 11:41:00,257563
-1,0,-3,-1,-2,0,0,0,2021-08-07 11:41:00,257563
-2,-2,-1,-5,-5,-3,-4,-3,2021-08-07 11:41:00,257563
-4,-4,-3,-5,-4,-2,-1,-2,2021-08-07 11:41:00,257563
-5,-5,-4,1,2,-1,-2,-1,2021-08-07 11:41:00,270564
-1,-2,-3,-10,-7,-3,-1,1,2021-08-07 11:41:00,287565
2,1,5,11,8,3,2,2,2021-08-07 11:41:00,287565
-2,-3,-1,5,1,-1,-1,0,2021-08-07 11:41:00,287565
-1,0,-3,-5,2,0,1,0,2021-08-07 11:41:00,287565
1,1,1,2,7,4,0,-2,2021-08-07 11:41:00,303564
-3,-1,-4,-5,-8,-5,-5,-3,2021-08-07 11:41:00,303564
-2,-4,-1,-1,-3,-3,-3,-2,2021-08-07 11:41:00,319563
0,2,1,-8,-9,-4,-1,0,2021-08-07 11:41:00,319563
1,1,1,7,2,1,0,0,2021-08-07 11:41:00,335564
-5,-5,-6,-9,-9,-5,-3,-4,2021-08-07 11:41:00,350564
3,5,8,13,13,6,3,2,2021-08-07 11:41:00,366565
-3,-6,-6,-6,-6,-3,-1,-2,2021-08-07 11:41:00,366565
-1,-1,1,-1,-1,-1,0,0,2021-08-07 11:41:00,366565
-1,-2,-1,2,-2,-2,-1,-1,2021-08-07 11:41:00,366565
-1,0,-1,-4,2,0,-1,0,2021-08-07 11:41:00,366565
-2,-2,-5,-6,-7,-4,-1,-4,2021-08-07 11:41:00,366565
0,0,2,4,3,2,2,1,2021-08-07 11:41:00,382564
0,-1,0,0,0,-1,-1,-1,2021-08-07 11:41:00,382564
1,1,2,6,2,-1,0,0,2021-08-07 11:41:00,382564
-1,-3,-1,1,5,3,-2,-2,2021-08-07 11:41:00,382564
-3,-3,-3,-5,-7,-3,-3,-1,2021-08-07 11:41:00,382564
-1,-2,-3,-8,-7,-4,-1,-1,2021-08-07 11:41:00,383564
-5,-4,-7,-12,-16,-8,-6,-4,2021-08-07 11:41:00,383564
6,6,9,12,18,11,5,4,2021-08-07 11:41:00,383564
3,2,2,9,6,1,0,1,2021-08-07 11:41:00,413226
0,0,-1,1,5,4,0,0,2021-08-07 11:41:00,428595
-1,-2,0,0,-1,0,1,-1,2021-08-07 11:41:00,444595
-3,-7,-7,-10,-11,-6,-2,-2,2021-08-07 11:41:00,444595
-3,-5,-4,-11,-10,-3,-1,-2,2021-08-07 11:41:00,444595
-3,-1,0,0,3,1,-1,-2,2021-08-07 11:41:00,444595
1,1,1,2,1,1,-1,-2,2021-08-07 11:41:00,444595
-6,-4,-3,-1,-4,-2,-4,-4,2021-08-07 11:41:00,444595
1,1,4,7,11,5,1,0,2021-08-07 11:41:00,444595
1,1,0,-2,-6,-3,-1,0,2021-08-07 11:41:00,445595
1,0,1,-1,0,1,-1,0,2021-08-07 11:41:00,460595
-3,-3,-4,-4,-7,-4,-2,-2,2021-08-07 11:41:00,460595
0,0,-2,-2,2,-2,1,1,2021-08-07 11:41:00,460595
0,-1,-3,3,6,1,1,1,2021-08-07 11:41:00,460595
4,2,6,10,7,2,3,3,2021-08-07 11:41:00,460595
-1,-1,-1,-3,0,0,-2,0,2021-08-07 11:41:00,460595
2,1,1,3,-3,0,-1,-2,2021-08-07 11:41:00,476595
-1,-2,-1,-2,-4,-1,-2,-1,2021-08-07 11:41:00,476595
0,-1,-1,0,0,0,0,-1,2021-08-07 11:41:00,476595
-3,-1,-2,-1,-3,-3,-1,-3,2021-08-07 11:41:00,476595
-5,-3,-6,-10,-12,-5,-3,-1,2021-08-07 11:41:00,508594
-1,-2,0,4,4,1,1,0,2021-08-07 11:41:00,508594
0,1,2,6,10,5,0,-1,2021-08-07 11:41:00,508594
1,2,1,1,2,0,1,0,2021-08-07 11:41:00,508594
0,1,1,0,1,2,3,1,2021-08-07 11:41:00,524595
-4,-1,-2,-2,-2,-2,-2,-1,2021-08-07 11:41:00,524595
-2,-2,-6,-11,-13,-6,-3,-1,2021-08-07 11:41:00,524595
-4,-4,-2,0,3,3,0,-2,2021-08-07 11:41:00,524595
2,3,5,10,7,1,1,0,2021-08-07 11:41:00,540594
2,2,1,0,-3,-1,-1,2,2021-08-07 11:41:00,556595
-1,-1,-1,-3,0,-2,0,-2,2021-08-07 11:41:00,556595
-3,-2,-3,-4,-7,-6,-5,-5,2021-08-07 11:41:00,556595
0,-1,-1,-1,-4,-3,-1,-1,2021-08-07 11:41:00,556595
0,2,1,0,6,5,0,0,2021-08-07 11:41:00,556595
-4,-3,-2,3,3,0,-3,-1,2021-08-07 11:41:00,556595
6,7,5,6,4,3,4,3,2021-08-07 11:41:00,556595
1,-2,-3,-7,-5,-2,0,0,2021-08-07 11:41:00,587595
0,1,4,2,1,1,2,0,2021-08-07 11:41:00,587595
0,-1,0,7,7,4,0,0,2021-08-07 11:41:00,587595
-4,-3,-1,-1,0,-3,-3,0,2021-08-07 11:41:00,587595
-2,-3,-4,-7,-7,-3,-4,-1,2021-08-07 11:41:00,603595
-3,-2,0,0,-2,-1,-1,-2,2021-08-07 11:41:00,603595
1,2,2,-4,-5,-2,-1,0,2021-08-07 11:41:00,619595
-3,-6,-4,-5,-5,-2,-1,-3,2021-08-07 11:41:00,619595
1,2,0,4,6,3,0,-2,2021-08-07 11:41:00,619595
-3,-3,-4,-6,-7,-4,-2,-2,2021-08-07 11:41:00,619595
-1,-1,-1,-4,-1,-1,0,-1,2021-08-07 11:41:00,619595
-1,-1,-2,0,-3,-2,-1,0,2021-08-07 11:41:00,619595
-5,-4,-5,-7,-9,-4,0,-2,2021-08-07 11:41:00,651104
-2,-1,-4,-6,-5,-4,-3,-2,2021-08-07 11:41:00,651104
4,4,5,5,2,2,2,3,2021-08-07 11:41:00,651104
0,0,-2,-3,-9,-4,-3,-3,2021-08-07 11:41:00,651104
-4,-5,-2,4,14,5,-2,-3,2021-08-07 11:41:00,667106
-1,-3,-2,-6,1,2,1,-1,2021-08-07 11:41:00,667106
2,4,2,6,7,3,2,2,2021-08-07 11:41:00,667106
1,-2,-2,-1,1,-1,-1,1,2021-08-07 11:41:00,667106
-1,0,1,-1,-6,-3,0,-2,2021-08-07 11:41:00,683105
-3,-5,-5,-7,-5,-6,-4,-3,2021-08-07 11:41:00,699106
-1,0,-3,-6,-6,-1,-2,-1,2021-08-07 11:41:00,699106
2,4,0,-4,3,4,4,3,2021-08-07 11:41:00,699106
0,-1,-2,1,-3,-2,-2,-1,2021-08-07 11:41:00,699106
0,3,3,4,1,0,1,1,2021-08-07 11:41:00,699106
-4,-6,-5,-2,2,0,-1,-3,2021-08-07 11:41:00,699106
4,1,3,15,14,14,15,8,2021-08-07 11:41:00,700107
3,4,-1,-6,0,3,0,0,2021-08-07 11:41:00,715105
-5,-3,-2,-1,-11,-17,-20,-13,2021-08-07 11:41:00,724104
-8,-5,-7,-11,-14,-11,-2,-2,2021-08-07 11:41:00,724104
1,1,-2,-6,0,1,-6,-2,2021-08-07 11:41:00,724104
0,4,3,4,7,3,5,2,2021-08-07 11:41:00,747106
5,1,2,7,10,20,21,14,2021-08-07 11:41:00,747106
7,3,2,4,3,3,-7,0,2021-08-07 11:41:00,747106
-34,-23,-17,-24,-34,-57,-52,-43,2021-08-07 11:41:00,747106
-1,0,0,1,-3,-2,2,3,2021-08-07 11:41:00,763107
15,7,-1,-9,5,35,52,30,2021-08-07 11:41:00,763107
21,17,14,19,19,35,18,20,2021-08-07 11:41:00,763107
-7,-4,1,2,-4,-33,-45,-26,2021-08-07 11:41:00,763107
-30,-23,-15,-16,-19,-39,-45,-32,2021-08-07 11:41:00,779105
-4,1,9,18,13,9,22,10,2021-08-07 11:41:00,779105
16,4,0,-2,9,40,50,27,2021-08-07 11:41:00,779105
34,21,14,20,21,32,16,24,2021-08-07 11:41:00,779105
-49,-26,-17,-21,-37,-73,-71,-56,2021-08-07 11:41:00,810105
-19,-14,-13,-21,-20,-23,-17,-15,2021-08-07 11:41:00,810105
30,17,9,3,16,66,84,56,2021-08-07 11:41:00,810105
38,28,22,30,37,42,22,33,2021-08-07 11:41:00,810105
-17,-12,-9,-14,-30,-66,-64,-50,2021-08-07 11:41:00,842105
-32,-19,-16,-12,-15,-30,-33,-31,2021-08-07 11:41:00,842105
-10,-11,-11,-8,-10,-22,-23,-13,2021-08-07 11:41:00,842105
-11,-4,-2,-10,-13,-3,7,0,2021-08-07 11:41:00,842105
5,6,4,9,11,32,34,24,2021-08-07 11:41:00,842105
10,6,9,13,22,6,-5,0,2021-08-07 11:41:00,842105
-6,-5,-8,-18,-20,-16,-5,-9,2021-08-07 11:41:00,842105
17,5,5,25,40,50,53,32,2021-08-07 11:41:00,843106
29,18,8,9,16,41,40,30,2021-08-07 11:41:00,858106
5,4,-1,-9,-18,-21,-29,-10,2021-08-07 11:41:00,858106
-23,-13,-2,11,1,-40,-46,-36,2021-08-07 11:41:00,858106
-17,-10,-8,-7,-10,-14,-10,-12,2021-08-07 11:41:00,858106
15,6,3,7,18,45,49,30,2021-08-07 11:41:00,905105
25,13,5,1,3,26,23,26,2021-08-07 11:41:00,921106
-32,-22,-18,-28,-52,-84,-88,-58,2021-08-07 11:41:00,921106
-42,-26,-20,-35,-45,-59,-46,-40,2021-08-07 11:41:00,921106
13,7,5,9,26,42,43,27,2021-08-07 11:41:00,921106
21,11,7,12,21,37,31,25,2021-08-07 11:41:00,921106
-7,-7,-4,-3,-4,-18,-21,-14,2021-08-07 11:41:00,921106
-3,-3,-9,-25,-30,-13,3,-1,2021-08-07 11:41:00,922108
13,7,12,21,19,21,16,14,2021-08-07 11:41:00,922108
-3,-1,-2,1,12,1,-6,-5,2021-08-07 11:41:00,922108
0,3,7,15,17,12,6,2,2021-08-07 11:41:00,936106
0,-3,-4,-7,2,6,9,1,2021-08-07 11:41:00,936106
-3,-7,-11,-24,-23,-12,-8,-3,2021-08-07 11:41:00,952105
-2,5,13,19,1,-10,-12,-7,2021-08-07 11:41:00,952105
-6,2,25,26,-4,-3,0,-5,2021-08-07 11:41:00,952105
6,3,-7,10,3,11,12,9,2021-08-07 11:41:00,952105
-1,-10,-40,-60,0,-5,-7,-2,2021-08-07 11:41:00,952105
-13,-13,-28,-41,-2,-14,-17,-13,2021-08-07 11:41:00,952105
-4,-4,-12,-19,1,2,2,3,2021-08-07 11:41:00,968104
-1,-1,13,11,-8,1,-1,1,2021-08-07 11:41:00,968104
0,1,15,21,-3,-1,-3,-1,2021-08-07 11:41:00,984105
2,10,25,62,40,10,0,0,2021-08-07 11:41:01,000107
9,10,6,9,9,8,9,7,2021-08-07 11:41:01,016107
4,9,13,26,-1,1,5,1,2021-08-07 11:41:01,016107
-15,-21,-34,-95,-80,-32,-15,-10,2021-08-07 11:41:01,016107
13,12,23,44,59,26,10,8,2021-08-07 11:41:01,016107
-3,-8,-21,-10,-9,-4,-3,0,2021-08-07 11:41:01,016107
-1,-1,0,11,8,6,2,0,2021-08-07 11:41:01,016107
3,9,10,13,-9,-12,-4,-2,2021-08-07 11:41:01,017107
-11,-7,-4,-29,-27,-17,-9,-9,2021-08-07 11:41:01,017107
2,7,17,25,11,5,3,3,2021-08-07 11:41:01,048106
-7,-20,-43,-48,-35,-10,-4,-4,2021-08-07 11:41:01,048106
6,8,6,20,50,23,9,7,2021-08-07 11:41:01,048106
-5,-8,-5,-7,-10,-9,-6,-5,2021-08-07 11:41:01,048106
1,2,3,6,-5,-3,1,1,2021-08-07 11:41:01,048106
-2,-4,-2,-20,-3,-3,0,-1,2021-08-07 11:41:01,048106
4,6,17,26,3,5,1,3,2021-08-07 11:41:01,064104
-6,-4,-10,-15,-25,-13,-8,-5,2021-08-07 11:41:01,064104
-1,-4,0,-4,7,4,2,0,2021-08-07 11:41:01,064104
3,6,13,18,10,5,3,2,2021-08-07 11:41:01,064104
4,6,7,19,17,6,1,-1,2021-08-07 11:41:01,096106
-6,-4,-11,-26,-33,-14,-7,-6,2021-08-07 11:41:01,096106
5,2,0,1,-2,4,7,6,2021-08-07 11:41:01,096106
-4,-5,-3,-1,8,-2,-3,-3,2021-08-07 11:41:01,096106
3,5,10,15,13,3,2,2,2021-08-07 11:41:01,096106
-1,-2,-4,-2,-16,-5,-1,-3,2021-08-07 11:41:01,096106
-3,-5,-8,-18,-3,-2,-2,-4,2021-08-07 11:41:01,112108
0,4,7,8,19,5,2,2,2021-08-07 11:41:01,112108
-6,-6,-4,5,-11,-8,-4,-4,2021-08-07 11:41:01,128105
-3,-8,-9,-9,-17,-8,-3,-2,2021-08-07 11:41:01,128105
1,2,-2,-12,-7,0,-1,2,2021-08-07 11:41:01,128105
1,3,-4,-2,7,3,0,-1,2021-08-07 11:41:01,128105
2,1,6,17,13,8,3,3,2021-08-07 11:41:01,144105
-5,-5,-9,-13,-17,-6,-4,-5,2021-08-07 11:41:01,160107
1,6,14,24,26,11,4,1,2021-08-07 11:41:01,165106
-3,-1,3,-3,-17,-7,-3,-2,2021-08-07 11:41:01,165106
1,-1,1,-8,-15,-6,-3,-1,2021-08-07 11:41:01,166106
0,-2,-5,4,21,5,0,1,2021-08-07 11:41:01,166106
-5,-5,-13,-15,-18,-8,-3,-4,2021-08-07 11:41:01,166106
8,9,23,44,31,11,6,4,2021-08-07 11:41:01,166106
1,2,2,11,4,2,0,-1,2021-08-07 11:41:01,191105
-4,-10,-30,-67,-49,-14,-4,-5,2021-08-07 11:41:01,191105
-10,-15,-22,-34,-13,-11,-8,-6,2021-08-07 11:41:01,191105
-3,-2,1,5,8,1,-1,-2,2021-08-07 11:41:01,191105
6,8,20,43,49,17,7,6,2021-08-07 11:41:01,207105
3,8,12,17,-7,-4,0,1,2021-08-07 11:41:01,223106
0,-1,-2,4,9,7,4,0,2021-08-07 11:41:01,223106
-1,1,-2,-7,-5,-3,-1,-2,2021-08-07 11:41:01,223106
-3,-5,-3,2,-8,-6,-3,-4,2021-08-07 11:41:01,223106
6,5,5,3,1,4,5,7,2021-08-07 11:41:01,223634
2,2,2,-2,-6,-5,-2,1,2021-08-07 11:41:01,223634
-2,-6,-4,-6,-4,-2,-1,-2,2021-08-07 11:41:01,223634
-2,-3,-5,-8,-8,-1,0,-1,2021-08-07 11:41:01,255139
-5,-6,-4,2,-2,-4,-2,-2,2021-08-07 11:41:01,271138
-3,-3,-2,0,10,4,-1,-1,2021-08-07 11:41:01,271138
-2,-3,-2,0,2,1,1,1,2021-08-07 11:41:01,271138
-2,0,0,-9,-12,-7,-5,-5,2021-08-07 11:41:01,271138
-5,-1,-1,-3,-1,-2,-5,-5,2021-08-07 11:41:01,271138
-1,1,4,3,-8,-4,-3,-2,2021-08-07 11:41:01,271138
-3,-5,-5,-4,5,0,-3,-2,2021-08-07 11:41:01,272139
5,5,4,15,10,7,5,5,2021-08-07 11:41:01,287140
-1,-1,7,0,-5,-3,0,-1,2021-08-07 11:41:01,303140
-4,-11,-19,-18,-15,-8,-5,-4,2021-08-07 11:41:01,319139
-3,-5,-15,-21,-16,-8,-5,-1,2021-08-07 11:41:01,319139
0,-1,1,14,6,3,-1,-1,2021-08-07 11:41:01,319139
4,5,10,20,14,6,4,2,2021-08-07 11:41:01,319139
5,10,15,22,18,11,7,4,2021-08-07 11:41:01,319139
0,1,1,-3,-9,-4,-1,-2,2021-08-07 11:41:01,335140
-3,-3,-10,-18,-19,-7,-2,0,2021-08-07 11:41:01,335140
-6,-8,-16,-36,-4,-4,-3,-5,2021-08-07 11:41:01,335140
-7,-7,-3,-14,-17,-12,-8,-4,2021-08-07 11:41:01,335140
-4,-7,-13,-7,-11,-4,-4,-2,2021-08-07 11:41:01,335140
2,5,11,17,18,8,4,2,2021-08-07 11:41:01,336139
0,2,3,10,1,1,-2,1,2021-08-07 11:41:01,336139
12,16,29,33,16,9,7,9,2021-08-07 11:41:01,367138
3,5,14,24,18,7,4,1,2021-08-07 11:41:01,367138
-4,-12,-33,-40,-18,-8,-4,-4,2021-08-07 11:41:01,367138
-8,-9,-16,-32,-17,-11,-7,-6,2021-08-07 11:41:01,367138
-2,-1,-11,-12,-6,-3,-2,-1,2021-08-07 11:41:01,367138
-4,-3,3,0,0,0,-2,-3,2021-08-07 11:41:01,368140
3,6,14,10,0,0,0,1,2021-08-07 11:41:01,383140
5,7,14,38,27,12,5,3,2021-08-07 11:41:01,383140
2,1,2,0,1,-2,1,-2,2021-08-07 11:41:01,383140
-3,-4,-10,-16,-11,-4,-3,-2,2021-08-07 11:41:01,383140
-6,-7,-10,-23,-15,-6,-4,-4,2021-08-07 11:41:01,399137
-3,-4,-5,-9,-24,-8,-4,-3,2021-08-07 11:41:01,399137
2,3,5,16,19,5,2,1,2021-08-07 11:41:01,415139
-1,-1,0,-1,5,2,-1,0,2021-08-07 11:41:01,431139
1,3,3,4,12,4,2,2,2021-08-07 11:41:01,447368
7,7,13,38,41,17,8,4,2021-08-07 11:41:01,447368
-7,-9,-12,-18,-28,-12,-6,-5,2021-08-07 11:41:01,447368
7,9,7,-4,2,4,1,5,2021-08-07 11:41:01,447368
-6,-7,-6,-15,-15,-9,-6,-7,2021-08-07 11:41:01,447368
-1,-3,-4,0,-4,-2,0,0,2021-08-07 11:41:01,447368
-2,-3,-9,-16,-5,-2,-2,-1,2021-08-07 11:41:01,448140
-5,-8,-3,-7,-7,-4,-4,-5,2021-08-07 11:41:01,448140
2,1,7,5,-7,-4,-2,-1,2021-08-07 11:41:01,462658
12,14,23,61,59,24,12,10,2021-08-07 11:41:01,462658
-7,-12,-20,-43,-27,-10,-5,-8,2021-08-07 11:41:01,462658
-7,-11,-3,-35,-20,-11,-6,-5,2021-08-07 11:41:01,462658
-4,-5,-17,5,6,-1,-3,-4,2021-08-07 11:41:01,494656
-6,-7,-15,-19,-34,-15,-8,-6,2021-08-07 11:41:01,510656
6,7,11,39,48,20,8,6,2021-08-07 11:41:01,510656
1,3,3,7,10,3,4,2,2021-08-07 11:41:01,510656
2,5,16,19,6,4,2,2,2021-08-07 11:41:01,510656
2,4,6,1,1,-4,-1,0,2021-08-07 11:41:01,510656
-2,0,4,4,-12,-5,-4,-3,2021-08-07 11:41:01,541656
-2,-4,-15,-25,-25,-10,-4,-4,2021-08-07 11:41:01,557655
-5,-10,-16,-15,3,-3,-2,-3,2021-08-07 11:41:01,573655
-9,-10,-14,-27,-22,-11,-9,-8,2021-08-07 11:41:01,573655
2,3,1,-11,-7,1,2,3,2021-08-07 11:41:01,573655
-2,-1,8,25,19,4,-1,-3,2021-08-07 11:41:01,573655
7,10,11,16,6,5,4,5,2021-08-07 11:41:01,573655
2,1,3,0,1,1,3,2,2021-08-07 11:41:01,574655
-5,-5,-6,-6,-11,-7,-6,-5,2021-08-07 11:41:01,574655
-7,-7,-14,-26,-22,-9,-5,-3,2021-08-07 11:41:01,588656
0,0,6,17,12,3,0,-1,2021-08-07 11:41:01,604656
0,1,1,-10,-14,-5,0,0,2021-08-07 11:41:01,604656
5,3,9,24,32,13,5,3,2021-08-07 11:41:01,604656
-2,-3,-8,-8,-6,-5,-2,-1,2021-08-07 11:41:01,604656
-3,-5,-5,-21,-29,-14,-7,-4,2021-08-07 11:41:01,604656
2,5,7,21,30,10,3,3,2021-08-07 11:41:01,605657
-5,-7,-13,-23,-21,-10,-3,-5,2021-08-07 11:41:01,605657
5,5,2,9,-3,2,1,2,2021-08-07 11:41:01,605657
-3,-5,-4,7,25,7,1,0,2021-08-07 11:41:01,605657
-5,-5,-10,-19,-28,-13,-6,-3,2021-08-07 11:41:01,605657
-5,-6,-4,-13,-3,-4,-3,-2,2021-08-07 11:41:01,605657
2,3,11,29,17,7,3,2,2021-08-07 11:41:01,606656
1,2,0,-6,-18,-6,-3,0,2021-08-07 11:41:01,622656
0,-1,1,0,-4,1,0,1,2021-08-07 11:41:01,622656
-1,-2,-5,-4,0,-1,-1,-2,2021-08-07 11:41:01,623657
-3,-4,-11,-15,-5,-2,-2,-2,2021-08-07 11:41:01,623657
-1,2,1,2,4,3,1,0,2021-08-07 11:41:01,651656
1,1,7,13,6,2,-1,0,2021-08-07 11:41:01,651656
-1,-1,0,9,-7,-5,-1,-2,2021-08-07 11:41:01,651656
4,5,4,-10,-2,0,1,2,2021-08-07 11:41:01,651656
-1,-2,4,3,4,1,-1,0,2021-08-07 11:41:01,667654
-5,-5,-16,-8,-6,-5,-4,-4,2021-08-07 11:41:01,683656
0,2,1,-1,-6,-1,-2,-1,2021-08-07 11:41:01,699655
0,-1,1,12,8,1,0,-1,2021-08-07 11:41:01,699655
0,1,0,-7,-7,-3,-1,1,2021-08-07 11:41:01,699655
-1,-3,2,-3,8,6,1,0,2021-08-07 11:41:01,699655
-4,-4,-5,5,-5,-3,-3,-3,2021-08-07 11:41:01,699655
2,2,-1,-3,1,-1,3,2,2021-08-07 11:41:01,700656
-6,-8,-8,-25,-20,-13,-7,-5,2021-08-07 11:41:01,715655
2,1,4,10,11,8,3,1,2021-08-07 11:41:01,731655
1,1,0,6,17,6,1,1,2021-08-07 11:41:01,747659
-2,-1,1,2,-14,-2,-1,-2,2021-08-07 11:41:01,747659
1,-1,-3,-5,13,2,0,1,2021-08-07 11:41:01,747659
-2,0,0,-6,-11,-4,-1,-3,2021-08-07 11:41:01,747659
-3,-3,0,0,-5,-2,-2,-3,2021-08-07 11:41:01,747659
-3,0,3,14,4,-2,-1,-1,2021-08-07 11:41:01,747659
-2,-2,-3,-10,-16,-5,0,1,2021-08-07 11:41:01,748655
9,12,8,8,15,10,3,4,2021-08-07 11:41:01,748655
0,-2,3,-7,1,1,-1,1,2021-08-07 11:41:01,748655
0,-3,-5,5,2,-1,0,0,2021-08-07 11:41:01,748655
-5,-5,-4,1,-7,-2,0,-1,2021-08-07 11:41:01,763656
-4,-5,1,-6,12,2,-1,-1,2021-08-07 11:41:01,779655
-2,0,0,9,-3,-2,2,-1,2021-08-07 11:41:01,779655
2,-1,2,4,5,1,0,1,2021-08-07 11:41:01,779655
2,3,4,3,-3,0,1,0,2021-08-07 11:41:01,779655
-1,0,-2,-7,-7,-3,-1,-1,2021-08-07 11:41:01,779655
2,3,8,6,0,0,0,2,2021-08-07 11:41:01,779655
-2,-2,1,8,14,4,-1,-4,2021-08-07 11:41:01,779655
2,2,1,3,7,5,1,-1,2021-08-07 11:41:01,811656
-2,-3,-6,-15,-15,-8,-3,-2,2021-08-07 11:41:01,827655
-1,-2,-4,-3,-7,-5,-2,-2,2021-08-07 11:41:01,827655
-5,-5,-3,-9,-7,-4,-4,-4,2021-08-07 11:41:01,827655
-1,-3,0,-3,0,-2,-1,-1,2021-08-07 11:41:01,827655
5,8,8,8,-1,2,3,3,2021-08-07 11:41:01,827655
2,2,7,16,30,12,4,2,2021-08-07 11:41:01,827655
1,0,-6,1,3,1,0,0,2021-08-07 11:41:01,827655
-4,-3,-5,-4,-1,0,0,-3,2021-08-07 11:41:01,843655
-6,-6,-5,-17,-2,-5,-3,-4,2021-08-07 11:41:01,843655
-1,-3,-12,-6,-5,-2,0,-1,2021-08-07 11:41:01,843655
0,3,9,8,2,1,0,-1,2021-08-07 11:41:01,843655
-2,-2,0,9,2,-3,-3,-3,2021-08-07 11:41:01,875657
0,2,5,8,-6,-2,0,0,2021-08-07 11:41:01,875657
0,0,-15,-18,-11,-3,0,-2,2021-08-07 11:41:01,875657
-5,-6,-10,-28,-12,-4,-3,-3,2021-08-07 11:41:01,891656
1,4,7,17,7,3,1,2,2021-08-07 11:41:01,907656
-2,-4,4,9,-1,-1,-1,0,2021-08-07 11:41:01,907656
-3,-3,-5,-4,-11,-5,-2,-3,2021-08-07 11:41:01,907656
2,3,-2,-4,-7,-1,1,1,2021-08-07 11:41:01,907656
-1,-1,2,-6,0,2,-2,-4,2021-08-07 11:41:01,907656
-1,-2,-9,9,4,-2,-1,-1,2021-08-07 11:41:01,908656
-5,-7,1,4,-1,-2,-4,-6,2021-08-07 11:41:01,908656
4,4,-2,-7,-12,-4,0,3,2021-08-07 11:41:01,908656
6,5,12,9,20,10,6,4,2021-08-07 11:41:01,923654
-6,-6,-10,-13,-10,-6,-6,-5,2021-08-07 11:41:01,938655
2,3,-2,1,-3,-1,-1,1,2021-08-07 11:41:01,954655
1,1,5,-8,-6,-2,-1,0,2021-08-07 11:41:01,954655
-3,-4,3,4,-5,-4,-2,0,2021-08-07 11:41:01,954655
3,5,-3,10,18,8,3,2,2021-08-07 11:41:01,954655
-4,-4,-5,-12,-14,-9,-5,-3,2021-08-07 11:41:01,954655
-2,-4,-6,-27,-15,-3,-3,-2,2021-08-07 11:41:01,954655
0,1,1,2,6,1,-1,-2,2021-08-07 11:41:01,970656
-4,-8,-11,-20,-23,-10,-3,-4,2021-08-07 11:41:01,986656
6,8,24,46,47,18,7,6,2021-08-07 11:41:01,986656
1,2,0,5,-1,-1,-1,-2,2021-08-07 11:41:01,986656
-4,-4,-7,-15,-16,-6,-3,-2,2021-08-07 11:41:01,986656
-4,-2,-1,2,-3,-3,-2,-2,2021-08-07 11:41:01,986656
-5,-6,-10,-26,-28,-12,-5,-2,2021-08-07 11:41:01,987655
-2,-2,-6,-6,2,-3,-2,-1,2021-08-07 11:41:01,987655
0,-3,0,4,6,-1,-1,0,2021-08-07 11:41:02,017655
1,1,-3,-9,-10,-2,-1,-2,2021-08-07 11:41:02,033656
1,0,5,2,-6,-2,1,0,2021-08-07 11:41:02,049656
-4,-4,-1,10,14,3,-1,-2,2021-08-07 11:41:02,065655
7,10,4,8,8,6,5,5,2021-08-07 11:41:02,065655
-1,-2,3,6,3,-1,-2,-2,2021-08-07 11:41:02,065655
-1,1,2,2,-5,-2,-3,-2,2021-08-07 11:41:02,065655
-2,-3,3,4,-5,-3,-1,0,2021-08-07 11:41:02,065655
-3,-6,-12,-15,-11,-5,-4,-4,2021-08-07 11:41:02,065655
3,2,0,4,3,2,1,2,2021-08-07 11:41:02,065655
-1,-3,-12,-25,-11,-4,-3,-3,2021-08-07 11:41:02,065655
-4,-2,-2,8,-4,-4,-2,-4,2021-08-07 11:41:02,065655
-1,-1,2,4,4,4,1,1,2021-08-07 11:41:02,066656
2,0,-1,-3,4,-1,2,0,2021-08-07 11:41:02,066656
-1,-2,-6,-9,2,3,0,1,2021-08-07 11:41:02,066656
-5,-6,-5,-9,0,-1,-2,-3,2021-08-07 11:41:02,066656
-4,-4,-9,-9,-14,-6,-2,-1,2021-08-07 11:41:02,081657
-5,-5,6,13,8,2,-4,-4,2021-08-07 11:41:02,097655
2,9,14,26,21,10,4,1,2021-08-07 11:41:02,129655
-1,3,5,13,13,2,-1,-2,2021-08-07 11:41:02,129655
6,9,8,-4,-8,-3,0,4,2021-08-07 11:41:02,129655
-3,-5,-11,-21,-21,-9,-4,-3,2021-08-07 11:41:02,129655
-4,-8,-7,-15,-5,-5,-4,-4,2021-08-07 11:41:02,129655
2,3,10,19,21,8,3,2,2021-08-07 11:41:02,129655
-3,-4,-4,7,-3,-3,-2,-4,2021-08-07 11:41:02,129655
0,-1,-6,-7,2,2,1,2,2021-08-07 11:41:02,130658
-2,-4,-3,-19,-22,-11,-5,-3,2021-08-07 11:41:02,130658
3,4,-2,1,-2,2,1,1,2021-08-07 11:41:02,130658
-2,-4,1,-3,-2,-2,-6,-4,2021-08-07 11:41:02,145655
-4,-5,-5,-4,-3,0,-1,-1,2021-08-07 11:41:02,145655
-1,1,6,19,13,5,2,-1,2021-08-07 11:41:02,145655
4,4,4,2,-2,1,1,2,2021-08-07 11:41:02,145655
-2,-3,-12,-11,-2,-1,-1,-2,2021-08-07 11:41:02,176655
0,3,4,-3,-5,-2,-1,1,2021-08-07 11:41:02,192655
-3,-5,-7,-11,-4,-3,-3,-2,2021-08-07 11:41:02,208654
-3,-1,-1,5,4,0,-1,-1,2021-08-07 11:41:02,208654
-1,0,0,1,-7,-2,-1,-1,2021-08-07 11:41:02,208654
-1,-3,3,22,32,8,0,-2,2021-08-07 11:41:02,208654
7,11,11,10,-2,2,4,6,2021-08-07 11:41:02,208654
2,-1,-2,-15,-6,-2,-1,-1,2021-08-07 11:41:02,208654
-5,-9,-11,-6,0,-1,-3,-4,2021-08-07 11:41:02,208654
3,5,7,-2,-12,-4,-1,0,2021-08-07 11:41:02,209657
-7,-8,-9,-14,-24,-14,-9,-5,2021-08-07 11:41:02,209657
9,10,19,38,35,21,11,8,2021-08-07 11:41:02,209657
-1,0,1,7,5,-1,-1,-1,2021-08-07 11:41:02,238654
-5,-7,-17,-30,0,-1,-1,-1,2021-08-07 11:41:02,238654
-2,-2,-7,-4,-2,-4,0,-3,2021-08-07 11:41:02,238654
-5,-7,-8,-23,-28,-14,-6,-5,2021-08-07 11:41:02,238654
-4,-4,-2,4,-4,-4,-2,-1,2021-08-07 11:41:02,254656
1,2,14,17,0,2,1,3,2021-08-07 11:41:02,254656
11,16,13,24,16,8,5,7,2021-08-07 11:41:02,254656
-9,-11,-23,-21,-12,-7,-6,-8,2021-08-07 11:41:02,254656
-2,-5,-7,-34,-19,-9,-4,-1,2021-08-07 11:41:02,270656
-7,-7,-6,-15,-11,-5,-5,-7,2021-08-07 11:41:02,286655
-4,-7,-10,0,0,-1,-2,-3,2021-08-07 11:41:02,302655
-4,-4,-1,5,-4,-6,-4,-3,2021-08-07 11:41:02,302655
8,14,16,17,14,12,6,5,2021-08-07 11:41:02,302655
8,9,18,39,33,14,8,5,2021-08-07 11:41:02,302655
-3,-6,-8,-24,-15,-6,-3,-4,2021-08-07 11:41:02,302655
-6,-8,-9,-20,-12,-9,-5,-5,2021-08-07 11:41:02,303656
-6,-8,-15,-25,-19,-9,-7,-4,2021-08-07 11:41:02,303656
-2,-2,-4,-12,-17,-9,-4,-1,2021-08-07 11:41:02,303656
6,8,14,35,36,17,5,5,2021-08-07 11:41:02,303656
-4,-5,-4,-14,-16,-9,-3,-2,2021-08-07 11:41:02,303656
-2,2,3,15,12,2,2,-1,2021-08-07 11:41:02,334656
9,10,11,25,22,13,8,6,2021-08-07 11:41:02,334656
2,5,14,19,11,3,1,3,2021-08-07 11:41:02,334656
3,4,13,10,-1,0,0,2,2021-08-07 11:41:02,334656
-3,-10,-24,-12,-6,-2,-1,-3,2021-08-07 11:41:02,350656
-18,-23,-34,-73,-53,-26,-14,-12,2021-08-07 11:41:02,350656
-11,-13,-13,-31,-15,-13,-9,-6,2021-08-07 11:41:02,366656
3,6,-1,12,12,7,3,3,2021-08-07 11:41:02,366656
5,11,23,39,23,9,2,5,2021-08-07 11:41:02,366656
4,5,7,15,-5,1,2,2,2021-08-07 11:41:02,366656
3,2,12,20,29,12,5,1,2021-08-07 11:41:02,366656
0,0,-1,-3,-5,-4,-3,0,2021-08-07 11:41:02,366656
1,-1,0,3,7,5,2,-2,2021-08-07 11:41:02,382655
1,2,4,21,20,6,1,2,2021-08-07 11:41:02,397654
-3,-4,-7,-18,-23,-11,-4,-4,2021-08-07 11:41:02,397654
-2,-4,-2,-9,-7,-2,-2,-2,2021-08-07 11:41:02,397654
-10,-13,-25,-35,-18,-10,-7,-5,2021-08-07 11:41:02,413656
0,3,3,-5,-6,-3,-1,0,2021-08-07 11:41:02,428656
1,2,3,11,12,7,2,-1,2021-08-07 11:41:02,444655
4,5,3,8,5,2,1,1,2021-08-07 11:41:02,444655
0,0,12,7,-7,-4,-2,-1,2021-08-07 11:41:02,444655
2,3,5,14,4,0,0,1,2021-08-07 11:41:02,444655
-5,-8,-21,-26,-19,-8,-5,-4,2021-08-07 11:41:02,445657
-8,-12,-13,-39,-18,-9,-6,-6,2021-08-07 11:41:02,445657
1,1,-3,9,11,2,-1,0,2021-08-07 11:41:02,460656
0,3,6,17,4,2,0,0,2021-08-07 11:41:02,460656
0,-1,1,5,-8,-4,-3,-2,2021-08-07 11:41:02,460656
4,4,7,13,15,7,3,3,2021-08-07 11:41:02,460656
8,11,17,23,17,8,6,4,2021-08-07 11:41:02,460656
1,-2,-2,-2,0,1,0,-1,2021-08-07 11:41:02,460656
-7,-7,-11,-23,-16,-9,-6,-4,2021-08-07 11:41:02,460656
-5,-5,-4,-6,-12,-6,-3,-4,2021-08-07 11:41:02,460656
0,0,4,10,10,0,-2,0,2021-08-07 11:41:02,491656
4,7,13,22,1,0,2,2,2021-08-07 11:41:02,507655
3,2,-4,9,12,7,6,3,2021-08-07 11:41:02,507655
-3,-4,-7,-22,6,0,-1,-2,2021-08-07 11:41:02,507655
-4,-6,-12,-12,-11,-4,-4,-4,2021-08-07 11:41:02,507655
-4,-5,-8,-9,1,-2,-3,-4,2021-08-07 11:41:02,507655
-1,1,7,0,-15,-5,-2,-1,2021-08-07 11:41:02,507655
5,5,6,25,3,3,3,4,2021-08-07 11:41:02,507655
