EMG 1,EMG 2,EMG 3,EMG 4,EMG 5,EMG 6,EMG 7,EMG 8,Timestamp,Milliseconds
2,0,1,3,5,1,2,2,2021-08-07 12:07:39,621912
1,0,-1,1,2,1,0,-1,2021-08-07 12:07:39,621912
-3,-5,-5,-4,-6,-4,-4,-4,2021-08-07 12:07:39,621912
-2,-2,0,2,4,0,-2,-1,2021-08-07 12:07:39,621912
1,1,-2,-3,-4,0,0,1,2021-08-07 12:07:39,637912
1,1,-1,-4,-2,-1,-1,0,2021-08-07 12:07:39,637912
-1,-1,-2,0,-1,-3,-1,-1,2021-08-07 12:07:39,637912
0,-2,-1,-7,-6,-2,-2,2,2021-08-07 12:07:39,637912
1,0,1,3,0,0,-2,-1,2021-08-07 12:07:39,653913
2,1,6,14,20,8,4,2,2021-08-07 12:07:39,653913
-2,-2,-3,-8,-3,-2,-2,-2,2021-08-07 12:07:39,653913
-2,-1,-5,-15,-24,-11,-4,-4,2021-08-07 12:07:39,653913
1,1,6,16,21,10,3,2,2021-08-07 12:07:39,653913
1,1,2,4,0,0,-1,0,2021-08-07 12:07:39,653913
-3,-3,-2,-1,0,0,-2,-2,2021-08-07 12:07:39,685913
-1,-1,0,5,4,-1,0,-1,2021-08-07 12:07:39,685913
-2,-2,-6,-17,-16,-10,-4,-3,2021-08-07 12:07:39,685913
-3,-4,-3,-5,-7,-5,-4,-3,2021-08-07 12:07:39,685913
-2,-4,-3,3,4,1,-2,0,2021-08-07 12:07:39,717913
4,5,3,-2,2,3,1,2,2021-08-07 12:07:39,717913
0,-1,0,0,1,0,2,-1,2021-08-07 12:07:39,717913
-3,-3,-1,-3,-1,-1,-1,-2,2021-08-07 12:07:39,717913
-1,-2,-3,-4,-8,-6,-4,-3,2021-08-07 12:07:39,717913
1,0,-1,2,5,3,1,0,2021-08-07 12:07:39,717913
0,-1,-5,-11,-4,-3,-1,0,2021-08-07 12:07:39,717913
2,4,7,12,5,3,3,2,2021-08-07 12:07:39,717913
-3,-4,-3,-6,-4,-4,-2,-2,2021-08-07 12:07:39,748913
-3,-1,-2,1,2,-1,-2,-1,2021-08-07 12:07:39,748913
-3,-1,-1,1,-1,-1,-1,0,2021-08-07 12:07:39,748913
-3,-6,-8,-14,-13,-7,-3,-2,2021-08-07 12:07:39,748913
-4,-3,-3,-6,-1,-2,-3,-3,2021-08-07 12:07:39,780913
1,0,0,-1,0,1,0,1,2021-08-07 12:07:39,780913
3,2,4,6,5,1,2,2,2021-08-07 12:07:39,780913
-1,-5,-2,-2,-3,-2,-2,-3,2021-08-07 12:07:39,780913
0,2,-2,-6,-6,-3,-2,0,2021-08-07 12:07:39,795912
-1,-1,-1,0,-1,0,-2,-2,2021-08-07 12:07:39,811913
0,-1,0,0,3,1,0,0,2021-08-07 12:07:39,811913
-2,-1,-1,3,4,2,0,1,2021-08-07 12:07:39,811913
-4,-4,-3,-5,-8,-5,-4,-5,2021-08-07 12:07:39,826947
0,0,-2,-5,-1,0,0,1,2021-08-07 12:07:39,835947
4,4,2,5,1,1,0,3,2021-08-07 12:07:39,835947
1,1,3,10,10,3,1,0,2021-08-07 12:07:39,835947
-2,-2,-1,0,0,-1,-1,-2,2021-08-07 12:07:39,836951
-2,-1,0,2,-1,-4,-3,-2,2021-08-07 12:07:39,836951
-4,-5,-4,-7,-8,-3,-1,-4,2021-08-07 12:07:39,836951
1,2,-3,-9,0,0,0,0,2021-08-07 12:07:39,836951
2,2,3,4,-4,-1,1,2,2021-08-07 12:07:39,836951
-1,-2,-1,0,0,-1,0,-1,2021-08-07 12:07:39,836951
0,-1,1,2,0,0,0,-1,2021-08-07 12:07:39,836951
-3,-4,-3,-2,-5,-3,-4,-3,2021-08-07 12:07:39,837947
0,-1,-2,-3,0,0,0,-2,2021-08-07 12:07:39,874948
-2,-1,-4,-8,-8,-5,-3,-2,2021-08-07 12:07:39,890948
-2,-3,-7,-9,-10,-4,-3,0,2021-08-07 12:07:39,890948
1,2,4,7,6,2,1,0,2021-08-07 12:07:39,890948
1,-1,-2,0,-1,-2,-1,0,2021-08-07 12:07:39,890948
1,-2,-1,0,1,3,-1,0,2021-08-07 12:07:39,890948
-2,-1,-1,0,-6,-3,-2,-1,2021-08-07 12:07:39,890948
-1,-4,-7,-13,-9,-5,-3,-3,2021-08-07 12:07:39,890948
0,0,1,3,0,-2,-3,0,2021-08-07 12:07:39,890948
2,4,9,20,21,12,7,2,2021-08-07 12:07:39,890948
1,2,4,9,10,7,3,0,2021-08-07 12:07:39,922948
-3,-2,-3,-7,-12,-5,-3,-3,2021-08-07 12:07:39,938949
-3,-2,-2,-4,-11,-6,-3,-1,2021-08-07 12:07:39,938949
-1,-1,1,5,10,4,-1,-1,2021-08-07 12:07:39,938949
-1,-1,-2,2,5,2,-2,-1,2021-08-07 12:07:39,938949
-1,-1,-4,-11,-12,-6,-2,-2,2021-08-07 12:07:39,939950
-2,-4,-5,-7,-6,-3,-2,-4,2021-08-07 12:07:39,939950
1,-1,-3,-8,-9,-5,-2,0,2021-08-07 12:07:39,939950
-1,0,1,3,6,6,3,0,2021-08-07 12:07:39,970948
1,2,2,18,18,7,3,1,2021-08-07 12:07:39,970948
-1,-4,-4,-5,-4,-3,-3,-2,2021-08-07 12:07:39,986948
-1,-2,-2,-9,-8,-3,-3,0,2021-08-07 12:07:39,986948
-2,0,0,-3,-6,-6,-2,-2,2021-08-07 12:07:39,986948
-4,-6,-6,-12,-9,-6,-4,-4,2021-08-07 12:07:39,986948
0,0,2,6,8,2,1,0,2021-08-07 12:07:39,986948
-1,-3,-7,-8,-7,-5,-2,-1,2021-08-07 12:07:39,986948
5,6,4,0,-4,0,1,2,2021-08-07 12:07:39,986948
-2,-3,-4,-8,-9,-2,-2,-2,2021-08-07 12:07:39,986948
-3,-4,-4,0,9,6,2,-1,2021-08-07 12:07:39,986948
4,5,6,4,0,-1,2,1,2021-08-07 12:07:39,987948
-3,-3,-2,3,5,1,0,-1,2021-08-07 12:07:40,018949
-1,-1,1,-3,-8,-5,-3,-3,2021-08-07 12:07:40,018949
0,1,1,7,12,6,1,-1,2021-08-07 12:07:40,018949
-5,-6,-6,-7,-7,-5,-3,-3,2021-08-07 12:07:40,018949
-2,-2,-1,-4,0,-2,-2,-2,2021-08-07 12:07:40,034948
3,3,5,3,-3,-1,1,3,2021-08-07 12:07:40,035180
-3,-4,-6,-14,-16,-9,-3,-2,2021-08-07 12:07:40,035180
4,6,7,10,15,10,5,2,2021-08-07 12:07:40,035180
0,-2,-1,3,4,0,-1,-1,2021-08-07 12:07:40,050471
-6,-6,-4,0,3,0,-3,-3,2021-08-07 12:07:40,050471
-1,-2,-4,-9,-12,-7,-5,-1,2021-08-07 12:07:40,050471
3,5,3,9,2,1,2,2,2021-08-07 12:07:40,050471
1,-2,-1,-3,-6,-2,-1,-1,2021-08-07 12:07:40,081468
0,-2,-2,-2,-1,1,1,-2,2021-08-07 12:07:40,097470
2,-1,1,6,7,4,2,0,2021-08-07 12:07:40,097470
-7,-9,-9,-17,-17,-10,-7,-6,2021-08-07 12:07:40,097470
5,7,8,8,5,3,2,4,2021-08-07 12:07:40,097470
-2,0,-2,2,9,2,0,-1,2021-08-07 12:07:40,097470
0,1,1,-1,-3,-3,-2,-1,2021-08-07 12:07:40,129468
-1,1,-1,0,6,3,1,-1,2021-08-07 12:07:40,129468
-2,-5,-6,-4,-7,-3,-3,-2,2021-08-07 12:07:40,129468
2,-3,-5,-6,-5,-2,-1,2,2021-08-07 12:07:40,129468
1,1,4,8,6,4,2,2,2021-08-07 12:07:40,129468
-5,-4,-4,-7,-13,-7,-3,-4,2021-08-07 12:07:40,129468
-7,-5,-5,-8,-11,-6,-4,-4,2021-08-07 12:07:40,129468
-5,0,7,17,20,8,2,-2,2021-08-07 12:07:40,130470
1,3,0,-1,0,0,0,1,2021-08-07 12:07:40,130470
-1,0,-3,-8,-5,-3,-3,0,2021-08-07 12:07:40,130470
1,3,1,4,-2,-2,0,0,2021-08-07 12:07:40,161470
1,1,2,5,9,5,1,1,2021-08-07 12:07:40,161470
-1,-3,-4,-8,-7,-4,-1,-2,2021-08-07 12:07:40,161470
4,3,3,3,10,7,3,4,2021-08-07 12:07:40,161470
-3,-6,-6,-9,-7,-5,-4,-5,2021-08-07 12:07:40,161470
-1,-2,-5,-7,-10,-5,-3,-2,2021-08-07 12:07:40,161470
-1,0,2,4,1,1,-2,-3,2021-08-07 12:07:40,192469
3,2,0,-3,-5,-3,0,1,2021-08-07 12:07:40,208470
-2,-4,-3,-5,-2,-1,-1,0,2021-08-07 12:07:40,208470
-1,0,-1,1,-1,0,0,0,2021-08-07 12:07:40,208470
-2,-1,-2,-2,1,-1,-1,0,2021-08-07 12:07:40,208470
-3,-4,-3,-1,-6,-3,-3,-4,2021-08-07 12:07:40,208470
-2,-2,-3,-3,-2,2,-2,-3,2021-08-07 12:07:40,208470
-2,-1,-1,-3,-7,-6,-2,-1,2021-08-07 12:07:40,208470
0,0,-1,-3,-3,1,1,1,2021-08-07 12:07:40,208470
0,1,6,15,18,8,4,0,2021-08-07 12:07:40,208470
-1,0,0,-3,-1,-1,1,0,2021-08-07 12:07:40,224475
0,0,-3,-9,-10,-4,-2,0,2021-08-07 12:07:40,224475
-1,-1,0,3,5,2,-1,-1,2021-08-07 12:07:40,240471
-1,-2,0,3,-1,-1,-1,0,2021-08-07 12:07:40,240471
-3,-2,-3,-6,-4,-2,-3,-1,2021-08-07 12:07:40,271469
-1,-2,-4,-3,-5,-4,-1,-1,2021-08-07 12:07:40,271469
3,2,0,-4,-5,-2,0,1,2021-08-07 12:07:40,271469
-4,-6,-7,-6,-3,-3,-2,-3,2021-08-07 12:07:40,271469
0,2,1,3,5,1,1,-2,2021-08-07 12:07:40,271469
-1,2,3,2,1,1,1,1,2021-08-07 12:07:40,271469
1,1,1,3,4,1,2,-2,2021-08-07 12:07:40,272471
-1,-2,-1,-2,-6,-4,-2,0,2021-08-07 12:07:40,272471
-3,-2,-4,-4,-2,-1,-3,-1,2021-08-07 12:07:40,304469
-1,-1,-1,-2,1,1,-1,-2,2021-08-07 12:07:40,304469
0,1,2,1,-5,-3,-1,1,2021-08-07 12:07:40,304469
0,0,-4,-7,-9,-5,-5,-3,2021-08-07 12:07:40,304469
1,2,2,7,13,5,3,2,2021-08-07 12:07:40,320470
0,-1,2,6,7,2,1,-2,2021-08-07 12:07:40,320470
0,-1,-2,2,2,1,-1,-1,2021-08-07 12:07:40,320470
-6,-6,-6,-11,-13,-7,-6,-5,2021-08-07 12:07:40,320470
2,2,-2,-6,-8,-2,-2,0,2021-08-07 12:07:40,336469
-3,-1,0,4,-3,-3,-3,-2,2021-08-07 12:07:40,336469
1,4,2,6,7,3,2,3,2021-08-07 12:07:40,336469
0,-1,0,-3,-1,-1,0,-1,2021-08-07 12:07:40,336469
-1,-2,0,5,2,0,0,0,2021-08-07 12:07:40,352471
-1,-2,-3,-7,-7,-3,-2,-2,2021-08-07 12:07:40,352471
-2,-2,2,2,1,0,-1,-1,2021-08-07 12:07:40,352471
1,1,2,0,-1,1,3,3,2021-08-07 12:07:40,352471
-2,-2,-1,-3,0,0,-1,-2,2021-08-07 12:07:40,384471
-1,-1,-3,-8,-9,-5,-2,0,2021-08-07 12:07:40,384471
-2,-3,-2,-6,-3,-3,-3,-4,2021-08-07 12:07:40,384471
-2,0,2,11,9,5,3,-1,2021-08-07 12:07:40,384471
0,1,0,-3,-6,-3,-2,0,2021-08-07 12:07:40,384471
-1,0,0,0,0,1,-1,-1,2021-08-07 12:07:40,384471
-2,-4,-3,0,0,-1,-1,-3,2021-08-07 12:07:40,400470
0,2,-2,-4,-2,-2,-1,0,2021-08-07 12:07:40,400470
-2,-1,-2,1,-2,0,0,0,2021-08-07 12:07:40,400470
0,1,2,2,3,1,0,0,2021-08-07 12:07:40,400470
-2,-3,-2,-2,1,-1,-2,-1,2021-08-07 12:07:40,416469
-1,1,-1,0,-1,0,-1,-1,2021-08-07 12:07:40,416469
2,1,2,0,-2,-1,1,0,2021-08-07 12:07:40,432472
0,-1,-2,-1,-1,-1,-2,1,2021-08-07 12:07:40,448468
-2,-1,-2,-2,1,0,-2,-1,2021-08-07 12:07:40,464469
-2,-4,-1,0,0,-1,-1,0,2021-08-07 12:07:40,464469
-2,-4,-5,-10,-9,-5,-4,-1,2021-08-07 12:07:40,464469
1,0,3,5,6,3,0,1,2021-08-07 12:07:40,464469
-2,-2,-2,-3,0,1,1,-2,2021-08-07 12:07:40,465471
-1,-2,-5,-15,-11,-6,-2,-3,2021-08-07 12:07:40,465471
-2,1,5,13,10,3,-1,-1,2021-08-07 12:07:40,465471
2,3,2,5,8,4,2,2,2021-08-07 12:07:40,465471
0,-1,1,4,2,1,1,1,2021-08-07 12:07:40,479472
0,-2,-3,-3,-2,-1,0,-2,2021-08-07 12:07:40,479472
-1,0,0,-4,-5,-2,-1,-1,2021-08-07 12:07:40,495471
-2,-4,-2,-4,-6,-4,-2,-2,2021-08-07 12:07:40,511470
-2,0,2,3,2,3,-1,0,2021-08-07 12:07:40,527470
1,0,0,0,-2,-1,0,0,2021-08-07 12:07:40,527470
-2,-5,-5,-1,1,-1,-3,-3,2021-08-07 12:07:40,527470
-1,1,0,1,0,0,0,0,2021-08-07 12:07:40,527470
4,3,3,1,-2,1,2,3,2021-08-07 12:07:40,527470
-1,-2,0,2,1,0,-1,-1,2021-08-07 12:07:40,528471
1,0,-1,-3,-4,-2,-1,-1,2021-08-07 12:07:40,543468
-7,-6,-7,-13,-10,-8,-5,-4,2021-08-07 12:07:40,559468
3,1,-1,2,1,1,2,0,2021-08-07 12:07:40,575471
4,3,6,14,13,7,3,2,2021-08-07 12:07:40,575471
-1,-2,0,1,1,1,1,-1,2021-08-07 12:07:40,575471
-1,-2,-3,-3,-1,1,0,-3,2021-08-07 12:07:40,575471
-1,0,-1,-1,-4,-2,-3,-2,2021-08-07 12:07:40,575471
0,1,-1,-3,-2,-4,-2,-1,2021-08-07 12:07:40,575471
-2,-1,-1,-2,-1,0,1,-1,2021-08-07 12:07:40,575471
1,-1,-1,0,0,0,1,0,2021-08-07 12:07:40,576469
-4,-4,-5,-10,-10,-7,-4,-3,2021-08-07 12:07:40,576469
-3,-2,-3,-4,-2,-1,-2,-2,2021-08-07 12:07:40,576469
-2,-2,-1,-1,0,-2,-2,-1,2021-08-07 12:07:40,591470
2,1,2,7,4,3,0,1,2021-08-07 12:07:40,607471
1,0,1,3,2,1,0,0,2021-08-07 12:07:40,623470
0,-2,-1,-6,-8,-4,-4,-2,2021-08-07 12:07:40,623470
-1,-3,-2,-1,-3,-3,-3,0,2021-08-07 12:07:40,623470
-3,-2,-6,-12,-11,-4,-1,0,2021-08-07 12:07:40,639468
0,0,2,10,17,6,1,1,2021-08-07 12:07:40,639468
-1,0,-1,1,5,2,1,-2,2021-08-07 12:07:40,639468
-2,0,0,1,1,0,0,-2,2021-08-07 12:07:40,639468
-1,-2,-2,0,-6,-4,-1,0,2021-08-07 12:07:40,639468
0,-2,-2,-5,-10,-5,-2,-3,2021-08-07 12:07:40,639468
-2,-2,-4,-8,-5,-5,-2,-1,2021-08-07 12:07:40,640470
1,1,-1,-4,-3,-1,-2,1,2021-08-07 12:07:40,640470
0,0,-3,-3,-1,-2,0,-1,2021-08-07 12:07:40,640470
-1,2,2,3,1,1,1,0,2021-08-07 12:07:40,655470
-2,-3,-4,-3,-3,-2,-2,-1,2021-08-07 12:07:40,655470
-3,-4,-3,-5,-3,-3,-2,-5,2021-08-07 12:07:40,671471
4,6,6,5,3,2,0,1,2021-08-07 12:07:40,687470
-3,-3,-2,-6,-4,-5,-4,-1,2021-08-07 12:07:40,703472
3,3,4,14,10,7,3,3,2021-08-07 12:07:40,703472
-3,-3,-7,-10,-7,-5,-2,-2,2021-08-07 12:07:40,703472
-3,-3,-3,-1,-1,-2,-1,-3,2021-08-07 12:07:40,703472
-2,-3,-2,-7,-7,-4,-3,-3,2021-08-07 12:07:40,703472
-2,-1,1,1,-4,-2,-2,-1,2021-08-07 12:07:40,703472
-2,-2,-1,3,2,1,-1,-1,2021-08-07 12:07:40,703472
0,2,4,5,4,2,1,-1,2021-08-07 12:07:40,719468
0,0,-6,-10,-10,-6,-1,-1,2021-08-07 12:07:40,719468
0,-2,1,-4,-7,-1,-2,0,2021-08-07 12:07:40,719468
1,1,5,12,15,6,1,1,2021-08-07 12:07:40,735471
1,1,1,3,2,2,0,-1,2021-08-07 12:07:40,735471
1,3,1,2,1,1,1,0,2021-08-07 12:07:40,735471
-2,-1,-1,-1,-2,-3,-2,-2,2021-08-07 12:07:40,735471
-3,-2,-5,-15,-15,-9,-4,-1,2021-08-07 12:07:40,751470
-2,-2,2,7,9,0,0,0,2021-08-07 12:07:40,751470
-2,-2,0,-1,-1,0,-1,-1,2021-08-07 12:07:40,766470
-2,-1,-3,-4,-2,-2,-2,-3,2021-08-07 12:07:40,766470
0,-3,-2,0,2,0,0,-1,2021-08-07 12:07:40,782470
-4,-3,-2,-4,-1,-1,-2,-3,2021-08-07 12:07:40,797469
-2,-2,-1,3,2,0,0,-2,2021-08-07 12:07:40,813469
0,0,-1,-6,-3,-1,-1,0,2021-08-07 12:07:40,813469
1,1,1,8,9,4,2,1,2021-08-07 12:07:40,813469
-2,-3,-6,-11,-11,-7,-5,-4,2021-08-07 12:07:40,813469
1,2,2,0,1,-1,0,-1,2021-08-07 12:07:40,813469
-2,-1,-1,2,1,0,0,0,2021-08-07 12:07:40,813469
-1,-1,-1,-4,1,0,1,0,2021-08-07 12:07:40,814471
0,-1,-1,-1,-1,-1,-1,0,2021-08-07 12:07:40,814471
-3,-4,-2,-8,-6,-4,-2,-1,2021-08-07 12:07:40,814471
2,3,1,4,2,2,2,1,2021-08-07 12:07:40,814471
-1,-3,0,3,-3,-3,-2,-1,2021-08-07 12:07:40,845471
0,3,2,3,-1,-2,-2,-2,2021-08-07 12:07:40,861472
-2,1,0,4,4,2,-1,0,2021-08-07 12:07:40,877469
-2,-2,-3,-2,-2,-2,-1,-1,2021-08-07 12:07:40,877469
-2,-1,-2,-3,-3,-1,-2,-2,2021-08-07 12:07:40,877469
-1,-4,-4,-4,-5,-5,-2,-1,2021-08-07 12:07:40,877469
-3,-3,-5,-10,-7,-4,0,-2,2021-08-07 12:07:40,877469
3,2,8,13,10,4,2,3,2021-08-07 12:07:40,878472
4,4,3,4,2,1,1,1,2021-08-07 12:07:40,878472
-2,-1,-1,-4,-2,-1,-3,-1,2021-08-07 12:07:40,878472
-1,-1,0,6,2,0,-1,0,2021-08-07 12:07:40,908470
-2,-2,-4,-4,-5,-2,-1,-2,2021-08-07 12:07:40,908470
-6,-5,-10,-18,-14,-9,-4,-5,2021-08-07 12:07:40,908470
5,4,7,12,7,6,5,5,2021-08-07 12:07:40,908470
3,2,-1,5,9,5,2,0,2021-08-07 12:07:40,908470
0,1,0,1,4,2,2,-1,2021-08-07 12:07:40,908470
-2,-4,-2,-3,-3,-2,-2,-1,2021-08-07 12:07:40,923471
-7,-6,-8,-12,-9,-7,-6,-7,2021-08-07 12:07:40,923471
-2,1,4,2,-2,0,0,-1,2021-08-07 12:07:40,955469
-2,2,3,7,9,2,0,-3,2021-08-07 12:07:40,971468
0,0,-1,-1,-3,-3,-2,-2,2021-08-07 12:07:40,971468
0,-1,-2,-1,0,-2,1,1,2021-08-07 12:07:40,971468
1,-2,-2,-5,-3,-3,-3,-1,2021-08-07 12:07:40,971468
1,-2,-4,-5,-5,-3,-1,-2,2021-08-07 12:07:40,971468
0,1,0,-5,-6,-2,-1,0,2021-08-07 12:07:40,971468
2,1,3,7,11,7,2,1,2021-08-07 12:07:40,972472
-1,-2,-2,0,-3,0,-1,-1,2021-08-07 12:07:40,972472
-1,-1,1,4,0,-1,-3,-2,2021-08-07 12:07:40,972472
-2,0,-2,-3,0,0,-2,-2,2021-08-07 12:07:40,987470
-2,-2,-2,-7,-7,-4,0,-1,2021-08-07 12:07:40,987470
-3,-3,-5,-8,-5,-3,-1,-1,2021-08-07 12:07:40,987470
-2,-2,0,4,5,0,-1,0,2021-08-07 12:07:40,987470
2,-1,0,-1,0,-2,1,0,2021-08-07 12:07:41,003471
1,1,1,0,-2,-2,0,0,2021-08-07 12:07:41,019470
0,-2,-1,7,8,4,0,1,2021-08-07 12:07:41,035469
-1,0,-3,-9,-8,-5,-3,-2,2021-08-07 12:07:41,035469
-2,0,-3,0,1,0,0,-2,2021-08-07 12:07:41,035469
-2,-1,2,0,-1,2,0,0,2021-08-07 12:07:41,035469
-2,-2,-3,-8,-7,-5,-5,-3,2021-08-07 12:07:41,035469
-1,0,-1,-4,-4,-4,-2,0,2021-08-07 12:07:41,035469
1,1,3,2,2,-1,-1,-1,2021-08-07 12:07:41,036472
-3,-4,-3,-1,2,1,-2,-3,2021-08-07 12:07:41,036472
1,1,4,6,4,2,3,0,2021-08-07 12:07:41,050470
-3,-5,-5,-3,-2,-2,-1,-1,2021-08-07 12:07:41,066471
0,1,2,1,0,0,0,1,2021-08-07 12:07:41,082471
3,1,-2,0,0,0,-1,2,2021-08-07 12:07:41,082471
-1,0,-3,-3,-2,-4,-2,-2,2021-08-07 12:07:41,098468
0,0,2,3,-1,0,0,0,2021-08-07 12:07:41,113469
-3,-2,-1,1,2,1,1,0,2021-08-07 12:07:41,129469
-4,-3,-9,-15,-11,-5,-3,-2,2021-08-07 12:07:41,129469
4,6,9,21,14,7,5,4,2021-08-07 12:07:41,129469
-4,-3,-4,-8,-4,-4,-3,-2,2021-08-07 12:07:41,129469
-2,-5,-2,-6,-4,-3,-2,-2,2021-08-07 12:07:41,129469
0,1,0,-2,0,0,1,1,2021-08-07 12:07:41,129469
-2,-4,-4,-9,-8,-6,-3,-1,2021-08-07 12:07:41,130469
-1,-2,-2,-2,-5,-2,-2,-2,2021-08-07 12:07:41,130469
0,1,5,10,10,3,2,1,2021-08-07 12:07:41,130469
0,0,-2,-1,2,-1,0,-1,2021-08-07 12:07:41,130469
-1,0,2,0,1,1,1,-1,2021-08-07 12:07:41,130469
-1,-1,-2,0,-3,-1,-1,0,2021-08-07 12:07:41,131470
-2,-3,-7,-9,-9,-5,-4,-2,2021-08-07 12:07:41,131470
0,-3,1,-2,-2,1,0,-1,2021-08-07 12:07:41,131470
0,1,5,8,5,3,1,0,2021-08-07 12:07:41,131470
1,-1,0,-4,-5,-3,-3,-2,2021-08-07 12:07:41,131470
0,-2,-1,3,1,2,-1,0,2021-08-07 12:07:41,176468
-1,-2,-2,-2,-1,-4,-2,-1,2021-08-07 12:07:41,176468
2,0,-4,-5,-4,0,0,0,2021-08-07 12:07:41,176468
-1,0,4,8,6,3,1,0,2021-08-07 12:07:41,176468
-4,-4,-4,-5,-7,-3,-3,-3,2021-08-07 12:07:41,176468
-2,-2,-2,2,0,-1,-1,-2,2021-08-07 12:07:41,176468
0,2,-4,-8,-3,-1,0,1,2021-08-07 12:07:41,176468
0,-1,1,6,3,0,0,-1,2021-08-07 12:07:41,176468
2,1,2,4,3,1,1,0,2021-08-07 12:07:41,187470
-3,0,2,0,-1,1,-1,-1,2021-08-07 12:07:41,187470
0,-2,-2,0,0,-1,-1,-2,2021-08-07 12:07:41,187470
-1,0,-5,-7,-3,-3,-3,-1,2021-08-07 12:07:41,187470
-2,-1,1,2,1,0,1,-3,2021-08-07 12:07:41,223470
0,-1,-2,-1,0,-2,1,1,2021-08-07 12:07:41,223470
-1,-1,-1,-3,-1,-1,0,-1,2021-08-07 12:07:41,224082
0,-2,-3,-3,-2,0,0,-2,2021-08-07 12:07:41,224082
0,-2,-4,-7,-5,-3,-3,0,2021-08-07 12:07:41,238510
-3,-2,-2,0,-4,-5,-5,-3,2021-08-07 12:07:41,254510
3,1,-1,1,1,1,1,2,2021-08-07 12:07:41,270509
1,3,2,3,4,1,0,1,2021-08-07 12:07:41,270509
-1,-2,-1,0,-2,0,-2,-2,2021-08-07 12:07:41,270509
-2,-4,-3,-4,-8,-4,-2,-2,2021-08-07 12:07:41,270509
-1,0,-2,-3,-4,-3,-1,0,2021-08-07 12:07:41,270509
2,4,5,12,14,9,4,2,2021-08-07 12:07:41,270509
2,2,0,4,2,-1,2,1,2021-08-07 12:07:41,271509
-4,-3,0,1,0,-1,-2,-2,2021-08-07 12:07:41,271509
-3,-3,-4,-12,-12,-8,-4,0,2021-08-07 12:07:41,271509
-3,-2,-7,-2,-1,-1,-2,0,2021-08-07 12:07:41,271509
-2,-2,0,-4,0,-1,-2,0,2021-08-07 12:07:41,302510
3,1,4,9,6,3,1,-2,2021-08-07 12:07:41,318508
-1,-1,3,2,2,1,0,0,2021-08-07 12:07:41,334511
0,-2,-5,-8,-7,-3,-2,-1,2021-08-07 12:07:41,334511
-3,-1,-6,-9,-4,-1,-2,-2,2021-08-07 12:07:41,349512
-2,-2,-1,-4,-5,-3,-1,-1,2021-08-07 12:07:41,349512
-1,0,-3,-3,1,0,0,-2,2021-08-07 12:07:41,349512
-4,-2,1,-2,-3,-3,-4,-2,2021-08-07 12:07:41,349512
-2,1,2,3,0,-1,0,1,2021-08-07 12:07:41,349512
3,2,2,6,6,4,3,1,2021-08-07 12:07:41,349512
-2,-1,-1,3,-1,-2,-1,-2,2021-08-07 12:07:41,350509
-4,-4,-4,-7,-6,-4,-3,-4,2021-08-07 12:07:41,350509
2,2,1,1,0,0,1,0,2021-08-07 12:07:41,365511
2,3,5,6,3,2,1,2,2021-08-07 12:07:41,381511
-3,-4,-1,-2,-2,-3,-3,-3,2021-08-07 12:07:41,381511
0,-1,-2,-3,-6,-3,0,0,2021-08-07 12:07:41,381511
-4,-4,1,2,5,0,-1,-3,2021-08-07 12:07:41,381511
-1,2,-2,-4,0,0,1,3,2021-08-07 12:07:41,381511
2,2,-3,-3,-5,-2,-1,2,2021-08-07 12:07:41,381511
-1,-1,-3,-4,-4,-3,-2,-2,2021-08-07 12:07:41,381511
2,0,7,13,10,5,3,1,2021-08-07 12:07:41,397508
-1,-1,-1,0,-1,-2,-2,-2,2021-08-07 12:07:41,413511
0,0,1,0,-3,-1,-3,-1,2021-08-07 12:07:41,429508
2,4,2,-4,0,3,2,3,2021-08-07 12:07:41,429508
-1,-1,-2,-5,-1,-3,0,0,2021-08-07 12:07:41,429508
-2,1,-1,-1,-1,-1,-2,-1,2021-08-07 12:07:41,429508
-1,-2,-1,0,1,0,0,0,2021-08-07 12:07:41,429508
-2,-1,-2,-6,-2,-1,0,0,2021-08-07 12:07:41,429508
-2,0,-1,0,-3,-2,-2,-2,2021-08-07 12:07:41,429508
-1,0,-4,-6,-2,-2,-1,-3,2021-08-07 12:07:41,430509
0,0,2,8,4,0,0,-2,2021-08-07 12:07:41,430509
-2,-3,-2,2,1,-1,0,-2,2021-08-07 12:07:41,430509
1,2,0,-4,-2,-2,-2,0,2021-08-07 12:07:41,460038
-1,2,4,9,6,1,0,1,2021-08-07 12:07:41,460038
4,1,0,-2,4,12,16,10,2021-08-07 12:07:41,460038
5,3,3,4,5,4,-1,4,2021-08-07 12:07:41,460038
-14,-11,-9,-10,-14,-20,-23,-20,2021-08-07 12:07:41,492037
-7,-7,-4,-5,-9,-13,-12,-7,2021-08-07 12:07:41,492037
-4,-2,-2,-2,-4,-5,-6,-3,2021-08-07 12:07:41,492037
-2,-1,0,-2,-3,1,5,2,2021-08-07 12:07:41,492037
6,4,1,3,7,15,13,11,2021-08-07 12:07:41,492037
5,2,1,-5,5,5,5,3,2021-08-07 12:07:41,492037
2,0,1,11,10,4,1,1,2021-08-07 12:07:41,492037
1,0,1,6,3,3,3,1,2021-08-07 12:07:41,492037
-1,-2,-2,-6,-6,-4,-3,-1,2021-08-07 12:07:41,524038
-3,-4,-3,-4,-4,-1,-1,-2,2021-08-07 12:07:41,540037
-1,2,-1,-5,-6,-2,-2,0,2021-08-07 12:07:41,540037
-3,0,-1,-2,-1,-5,-4,-5,2021-08-07 12:07:41,540037
-2,-1,-3,2,-2,-3,0,-1,2021-08-07 12:07:41,540037
-1,-1,-2,1,3,2,1,0,2021-08-07 12:07:41,541038
-1,-1,0,-4,-3,-3,-4,-3,2021-08-07 12:07:41,541038
-3,-2,0,-3,-6,-4,-4,-3,2021-08-07 12:07:41,541038
0,2,1,1,0,1,2,1,2021-08-07 12:07:41,556037
2,-3,-5,-12,-8,-2,0,2,2021-08-07 12:07:41,556037
-4,-4,-3,2,3,-1,-4,-4,2021-08-07 12:07:41,556037
-3,-3,3,9,7,1,-1,-2,2021-08-07 12:07:41,556037
3,2,-2,-9,-6,-2,1,0,2021-08-07 12:07:41,572035
3,3,2,8,7,4,3,2,2021-08-07 12:07:41,572035
-3,-3,-1,1,-3,-3,-2,-3,2021-08-07 12:07:41,572035
-2,-1,-3,-6,-6,-4,-3,-1,2021-08-07 12:07:41,572035
-1,-1,-3,-3,-3,-2,0,1,2021-08-07 12:07:41,604035
-1,-2,-1,2,-2,-2,0,0,2021-08-07 12:07:41,620037
-3,-3,-2,-3,2,0,-4,-4,2021-08-07 12:07:41,636037
-1,-1,-5,-7,-6,-4,-2,-2,2021-08-07 12:07:41,652037
0,2,5,11,8,3,1,0,2021-08-07 12:07:41,652037
-3,-2,-4,-4,-5,-2,-2,-1,2021-08-07 12:07:41,652037
-2,-2,2,1,0,-1,-2,-2,2021-08-07 12:07:41,652037
-1,-1,-4,-13,-13,-6,-4,-1,2021-08-07 12:07:41,652037
0,-1,1,6,9,6,3,2,2021-08-07 12:07:41,659040
1,2,5,6,0,0,1,0,2021-08-07 12:07:41,659040
1,-1,-4,-4,0,-2,-1,0,2021-08-07 12:07:41,660037
0,0,1,4,-1,-1,-3,0,2021-08-07 12:07:41,660037
-3,-1,-2,-2,-1,0,0,0,2021-08-07 12:07:41,660037
-1,0,2,7,5,2,1,1,2021-08-07 12:07:41,660037
1,0,0,-3,-3,0,1,0,2021-08-07 12:07:41,660037
-2,-2,-2,-3,-5,-3,-1,-1,2021-08-07 12:07:41,660037
-3,-5,-6,-8,-7,-2,-3,-2,2021-08-07 12:07:41,684037
-1,2,-1,-2,0,-3,-2,-2,2021-08-07 12:07:41,700037
1,1,2,-1,-2,-2,0,1,2021-08-07 12:07:41,716037
-1,-3,-3,2,3,2,0,-2,2021-08-07 12:07:41,732037
0,0,0,-1,-1,1,-1,-1,2021-08-07 12:07:41,732037
-3,-4,-2,-6,-6,-3,-2,-3,2021-08-07 12:07:41,732037
1,3,-1,-2,-3,0,0,1,2021-08-07 12:07:41,732037
-2,-2,0,-2,3,-2,-1,-1,2021-08-07 12:07:41,732037
0,-1,0,-1,-6,-4,-3,0,2021-08-07 12:07:41,733038
0,-2,-6,-12,-10,-4,-2,0,2021-08-07 12:07:41,733038
1,0,5,17,18,8,5,3,2021-08-07 12:07:41,733038
-2,-3,1,4,1,0,-1,-2,2021-08-07 12:07:41,733038
1,5,0,1,2,2,1,1,2021-08-07 12:07:41,733038
0,2,5,6,2,-1,-1,-1,2021-08-07 12:07:41,733038
-5,-4,-3,-12,-12,-6,-6,-5,2021-08-07 12:07:41,733038
-3,-1,0,-2,2,-1,-3,-3,2021-08-07 12:07:41,733038
0,2,4,3,1,0,0,1,2021-08-07 12:07:41,764038
2,1,-2,1,2,2,1,2,2021-08-07 12:07:41,780036
-3,-2,-1,-3,-6,-2,0,-2,2021-08-07 12:07:41,780036
1,-2,-3,-5,-4,0,-1,1,2021-08-07 12:07:41,780036
-4,-3,-3,-5,-5,-4,-3,-2,2021-08-07 12:07:41,780036
2,1,2,4,7,5,2,-1,2021-08-07 12:07:41,780036
1,-1,-2,-2,0,-2,-1,0,2021-08-07 12:07:41,780036
-1,-2,-2,-1,-1,-1,0,-2,2021-08-07 12:07:41,781037
-1,-2,0,-1,-4,-2,-3,-1,2021-08-07 12:07:41,795038
-1,-1,-1,-4,-3,-1,-1,0,2021-08-07 12:07:41,795038
-1,-2,0,3,0,-1,0,-1,2021-08-07 12:07:41,795038
-3,-2,-3,-5,-6,-3,-2,-2,2021-08-07 12:07:41,795038
0,-1,-3,-6,-4,-2,-2,0,2021-08-07 12:07:41,827038
1,3,6,17,17,8,3,2,2021-08-07 12:07:41,843035
-1,0,1,3,0,0,1,-1,2021-08-07 12:07:41,843035
0,-2,-1,-2,-1,-1,-1,-1,2021-08-07 12:07:41,843035
-3,-3,-6,-10,-8,-4,-1,-3,2021-08-07 12:07:41,843035
-3,-4,-2,-5,-6,-2,-1,1,2021-08-07 12:07:41,843035
0,1,-2,-5,-3,-1,-1,0,2021-08-07 12:07:41,843035
1,2,6,13,8,4,1,0,2021-08-07 12:07:41,843035
-1,-2,-2,1,1,0,-1,-3,2021-08-07 12:07:41,859036
-5,-3,0,3,-1,-3,-1,0,2021-08-07 12:07:41,874040
1,2,-2,-5,-5,-3,0,2,2021-08-07 12:07:41,890039
-1,-4,-12,-18,-15,-9,-3,-3,2021-08-07 12:07:41,906036
-1,0,0,4,6,3,1,2,2021-08-07 12:07:41,906036
0,4,9,9,8,6,2,0,2021-08-07 12:07:41,906036
-5,-6,-3,-6,-6,-3,-3,-4,2021-08-07 12:07:41,906036
0,-1,-6,1,0,-1,0,1,2021-08-07 12:07:41,906036
1,-1,0,0,-1,-2,0,-1,2021-08-07 12:07:41,906036
-2,-3,-5,-7,-8,-5,-3,-2,2021-08-07 12:07:41,907038
-1,-1,3,-2,-6,-2,-2,-1,2021-08-07 12:07:41,907038
0,2,4,1,2,1,0,-1,2021-08-07 12:07:41,907038
-1,-2,-1,10,11,4,3,0,2021-08-07 12:07:41,907038
2,1,1,-8,-6,-3,-1,0,2021-08-07 12:07:41,907038
0,-1,-4,0,1,-1,-2,-2,2021-08-07 12:07:41,908037
-2,-2,-2,-2,-6,-3,-3,-4,2021-08-07 12:07:41,908037
-3,-3,0,-3,-3,-2,-2,0,2021-08-07 12:07:41,938035
0,-1,-1,4,0,0,0,-3,2021-08-07 12:07:41,954038
-4,-5,-5,-5,2,-1,-2,0,2021-08-07 12:07:41,970039
-1,0,3,4,4,2,-1,1,2021-08-07 12:07:41,970039
2,3,3,5,5,2,1,0,2021-08-07 12:07:41,986037
0,-2,-5,-9,-8,-4,1,-2,2021-08-07 12:07:41,986037
-1,-1,-1,1,-2,-3,-1,-3,2021-08-07 12:07:41,986037
-1,-1,1,2,3,0,1,-2,2021-08-07 12:07:41,986037
0,-1,-2,-5,-4,-2,-2,0,2021-08-07 12:07:41,986037
-1,2,1,-2,-1,-1,-2,-1,2021-08-07 12:07:41,986037
-4,-6,-9,-12,-7,-4,-5,-3,2021-08-07 12:07:41,987041
0,-1,1,0,0,-1,-1,0,2021-08-07 12:07:41,987041
4,4,4,5,1,2,4,1,2021-08-07 12:07:42,002040
-3,-4,-4,-4,-3,-2,-2,-2,2021-08-07 12:07:42,002040
-2,0,-1,-5,-5,-2,-1,-1,2021-08-07 12:07:42,002040
0,-1,0,7,9,4,0,0,2021-08-07 12:07:42,002040
-2,-1,-3,0,-4,-2,-2,-3,2021-08-07 12:07:42,018035
2,1,0,-2,0,1,-1,1,2021-08-07 12:07:42,018035
-1,-2,1,3,2,0,-1,-2,2021-08-07 12:07:42,018035
-2,-2,-6,-11,-13,-8,-2,-1,2021-08-07 12:07:42,034040
0,-1,1,1,7,3,1,2,2021-08-07 12:07:42,034040
3,3,5,13,5,4,0,2,2021-08-07 12:07:42,034040
2,0,0,0,0,0,0,0,2021-08-07 12:07:42,034040
0,-1,-1,-6,-7,-4,-2,-1,2021-08-07 12:07:42,034040
-3,-4,-5,-2,-2,-1,-1,-1,2021-08-07 12:07:42,066036
0,1,-1,0,5,1,1,0,2021-08-07 12:07:42,066036
0,0,-2,-1,-6,-2,-2,0,2021-08-07 12:07:42,066036
-2,0,2,6,9,6,0,0,2021-08-07 12:07:42,066036
-1,-2,-4,-5,-6,-3,-3,-1,2021-08-07 12:07:42,082038
-4,-5,-7,-10,-8,-5,-2,-2,2021-08-07 12:07:42,082038
-1,-1,-1,3,4,1,0,-2,2021-08-07 12:07:42,082038
4,5,8,11,8,4,5,3,2021-08-07 12:07:42,082038
-3,-4,-5,-10,-7,-5,-2,-4,2021-08-07 12:07:42,098037
1,1,2,-2,-1,-1,-1,-1,2021-08-07 12:07:42,108038
0,0,3,0,-4,-1,-1,-1,2021-08-07 12:07:42,108038
-3,-4,-8,-1,-1,-1,-2,-2,2021-08-07 12:07:42,108038
-2,0,-2,-3,-4,-4,-2,-1,2021-08-07 12:07:42,108038
0,-1,2,3,3,1,1,-1,2021-08-07 12:07:42,109037
-1,-2,-3,-1,-1,-1,-1,-1,2021-08-07 12:07:42,114037
-3,-3,-4,-10,-4,-2,-2,-4,2021-08-07 12:07:42,130037
3,3,7,19,9,6,2,2,2021-08-07 12:07:42,145038
-1,-1,-1,-1,-1,-1,-1,-1,2021-08-07 12:07:42,160037
1,1,2,4,5,3,0,-1,2021-08-07 12:07:42,160037
0,0,0,-1,-7,-5,-1,-1,2021-08-07 12:07:42,160037
-2,-3,-5,-11,-5,-4,-2,-3,2021-08-07 12:07:42,160037
-4,-1,-5,-10,-6,-4,-3,-2,2021-08-07 12:07:42,160037
3,1,2,9,13,5,2,2,2021-08-07 12:07:42,160037
-1,-2,-1,0,-2,-1,-2,0,2021-08-07 12:07:42,175036
-1,0,1,-2,-3,-1,-3,-2,2021-08-07 12:07:42,207039
-1,-3,-5,-5,-5,-3,-2,-1,2021-08-07 12:07:42,207039
1,2,2,-2,-2,-1,0,0,2021-08-07 12:07:42,207039
-5,-4,-2,-1,-2,-2,-3,-4,2021-08-07 12:07:42,223036
0,2,2,4,4,2,3,1,2021-08-07 12:07:42,223036
-4,-5,-6,-4,-6,-2,-2,-2,2021-08-07 12:07:42,223036
3,5,1,-2,0,1,0,2,2021-08-07 12:07:42,223036
-1,1,1,1,-1,-1,-2,-2,2021-08-07 12:07:42,224039
-2,-3,-6,-5,-2,-2,-3,-2,2021-08-07 12:07:42,224039
-1,-2,-5,-6,-8,-5,-2,-2,2021-08-07 12:07:42,224039
-2,-1,2,5,8,3,0,-1,2021-08-07 12:07:42,224039
0,1,1,2,2,0,-1,0,2021-08-07 12:07:42,224039
-2,-3,-5,-9,-8,-3,-3,-2,2021-08-07 12:07:42,239037
3,3,10,18,12,5,3,2,2021-08-07 12:07:42,239037
-3,-4,-2,-5,-9,-5,-4,-3,2021-08-07 12:07:42,239037
-2,-1,-5,-6,-3,0,-1,-1,2021-08-07 12:07:42,239037
-2,-4,0,-4,-3,-3,-2,0,2021-08-07 12:07:42,271037
3,3,2,1,3,2,1,2,2021-08-07 12:07:42,287038
-2,-1,-2,-3,-7,-4,-2,-3,2021-08-07 12:07:42,303045
1,1,0,4,3,2,0,1,2021-08-07 12:07:42,303045
1,0,-2,-2,0,2,0,0,2021-08-07 12:07:42,319035
-1,0,-3,-5,-5,-3,-1,-1,2021-08-07 12:07:42,319035
-4,-3,-2,2,4,2,0,0,2021-08-07 12:07:42,335036
-5,-8,-6,-11,-10,-7,-4,-4,2021-08-07 12:07:42,335036
3,4,7,16,11,5,2,2,2021-08-07 12:07:42,335036
2,2,3,1,2,2,2,3,2021-08-07 12:07:42,335036
-1,-2,-3,0,-3,-2,-2,-1,2021-08-07 12:07:42,336039
0,0,1,-4,-5,-3,-2,1,2021-08-07 12:07:42,336039
0,2,2,-2,-1,1,-1,1,2021-08-07 12:07:42,336039
-2,-3,-4,-2,-3,-1,-1,-1,2021-08-07 12:07:42,336039
-1,-1,-6,-11,-5,-2,0,0,2021-08-07 12:07:42,337038
-1,-1,2,6,7,2,1,-1,2021-08-07 12:07:42,337038
-2,-4,-5,-9,-5,-5,-1,-1,2021-08-07 12:07:42,350036
0,-1,-1,-1,-1,0,-1,-2,2021-08-07 12:07:42,350036
0,-3,-5,-10,-7,-4,-4,0,2021-08-07 12:07:42,350036
1,2,0,-2,-4,-3,-1,0,2021-08-07 12:07:42,350036
1,0,2,0,0,0,-1,0,2021-08-07 12:07:42,382038
-3,0,-1,-1,3,-1,0,-1,2021-08-07 12:07:42,382038
-1,-3,1,5,1,0,0,-2,2021-08-07 12:07:42,382038
1,4,3,2,3,2,2,0,2021-08-07 12:07:42,398039
-2,-2,-5,-5,-6,-4,-1,-3,2021-08-07 12:07:42,398039
1,2,5,3,2,2,-1,1,2021-08-07 12:07:42,398039
2,0,0,1,2,3,2,1,2021-08-07 12:07:42,398039
-4,-8,-13,-14,-12,-9,-6,-4,2021-08-07 12:07:42,398039
0,-2,0,-3,-3,-3,-1,0,2021-08-07 12:07:42,398039
4,6,6,17,11,9,2,2,2021-08-07 12:07:42,399037
-1,-1,0,5,2,2,1,0,2021-08-07 12:07:42,399037
-7,-9,-18,-23,-15,-12,-6,-6,2021-08-07 12:07:42,399037
-1,-2,-2,-6,-4,-5,-3,-2,2021-08-07 12:07:42,428038
-1,-2,-1,-3,0,-2,-2,-2,2021-08-07 12:07:42,444035
6,7,12,15,9,8,4,2,2021-08-07 12:07:42,444035
-3,-2,4,0,0,1,0,0,2021-08-07 12:07:42,444035
4,6,7,13,7,6,2,4,2021-08-07 12:07:42,444035
0,-4,-4,-7,-4,-1,0,-2,2021-08-07 12:07:42,444035
-2,0,-8,-5,-5,-4,-3,-1,2021-08-07 12:07:42,460035
1,-1,2,2,1,1,1,-1,2021-08-07 12:07:42,460035
-1,0,0,3,0,0,0,0,2021-08-07 12:07:42,460035
-1,-3,-1,2,2,0,-1,0,2021-08-07 12:07:42,460035
-3,-2,-4,-7,-6,-4,-4,-2,2021-08-07 12:07:42,460035
2,1,1,1,1,1,0,0,2021-08-07 12:07:42,460035
-1,3,6,8,3,2,2,0,2021-08-07 12:07:42,491038
-4,-4,-10,-10,-10,-5,-2,-2,2021-08-07 12:07:42,491038
-2,-3,-4,-7,-4,-4,-1,-4,2021-08-07 12:07:42,491038
1,1,2,7,5,4,0,0,2021-08-07 12:07:42,491038
0,-3,-5,-5,-1,0,0,-2,2021-08-07 12:07:42,491038
0,-1,-4,-6,-2,-1,-1,1,2021-08-07 12:07:42,491038
0,-1,-1,-2,-6,-3,-4,0,2021-08-07 12:07:42,507038
1,3,1,1,5,3,2,1,2021-08-07 12:07:42,507038
-1,0,0,4,3,0,0,1,2021-08-07 12:07:42,523038
-1,-1,-1,-2,-3,-3,-3,-2,2021-08-07 12:07:42,539037
-2,-3,-2,1,-1,-1,0,-1,2021-08-07 12:07:42,555038
4,5,2,2,1,3,2,4,2021-08-07 12:07:42,555038
-3,-4,-9,-10,-5,0,-1,0,2021-08-07 12:07:42,555038
-2,-2,-1,-1,-3,-2,1,1,2021-08-07 12:07:42,555038
-5,-4,-1,0,2,1,-1,-2,2021-08-07 12:07:42,555038
-6,-2,-1,0,0,-3,-3,-4,2021-08-07 12:07:42,555038
-3,-1,-1,-3,-2,-1,-5,-5,2021-08-07 12:07:42,555038
0,1,2,-1,-5,-2,-1,-1,2021-08-07 12:07:42,556037
1,1,0,0,6,2,0,0,2021-08-07 12:07:42,556037
-1,-2,-1,2,0,-2,0,0,2021-08-07 12:07:42,556037
0,-2,-3,-4,-5,-3,-2,-2,2021-08-07 12:07:42,576038
-1,-3,-10,-13,-12,-6,-2,-1,2021-08-07 12:07:42,576038
3,5,7,9,10,5,4,1,2021-08-07 12:07:42,576038
2,3,2,9,11,7,3,3,2021-08-07 12:07:42,576038
-2,-4,-4,-1,-3,-2,-3,-1,2021-08-07 12:07:42,619037
-1,-2,-3,0,-1,0,0,-2,2021-08-07 12:07:42,619037
-4,-2,-5,-9,-9,-5,-4,-2,2021-08-07 12:07:42,619037
1,1,2,0,-1,0,-1,1,2021-08-07 12:07:42,619037
1,0,-1,-3,1,0,2,1,2021-08-07 12:07:42,635036
-2,-2,-3,-2,-1,-2,-2,0,2021-08-07 12:07:42,635036
-2,-2,-4,-7,-6,-4,-3,-2,2021-08-07 12:07:42,651037
0,-1,5,13,7,3,0,-2,2021-08-07 12:07:42,651037
0,-2,-2,-2,-4,0,0,-1,2021-08-07 12:07:42,651037
-1,0,1,1,2,0,0,0,2021-08-07 12:07:42,651037
-1,-2,-1,0,-1,-2,0,-2,2021-08-07 12:07:42,651037
-2,-4,-5,-10,-12,-8,-5,-5,2021-08-07 12:07:42,651037
-4,-5,-5,-5,-5,-5,-2,-1,2021-08-07 12:07:42,667035
5,7,14,20,23,12,6,2,2021-08-07 12:07:42,682038
-2,-2,-3,-2,-2,-1,-1,-3,2021-08-07 12:07:42,682038
0,1,-3,-7,-2,-1,-1,2,2021-08-07 12:07:42,682038
-4,-1,1,-2,-4,-2,-3,-2,2021-08-07 12:07:42,682038
1,-1,-2,-2,-3,-1,0,0,2021-08-07 12:07:42,682038
0,0,0,0,-4,-3,-2,-1,2021-08-07 12:07:42,683037
0,0,0,-1,-2,-2,-1,0,2021-08-07 12:07:42,683037
3,2,1,3,6,3,3,2,2021-08-07 12:07:42,714038
-5,-5,-4,-5,-6,-7,-3,-3,2021-08-07 12:07:42,714038
-3,-4,-5,-9,-3,-2,-2,-2,2021-08-07 12:07:42,730036
5,6,10,12,7,5,4,3,2021-08-07 12:07:42,746038
-1,-4,-9,-4,-1,-2,0,-1,2021-08-07 12:07:42,746038
0,1,-2,-6,-5,-3,-2,-1,2021-08-07 12:07:42,746038
-3,-3,-2,3,1,-2,-1,-2,2021-08-07 12:07:42,746038
-4,-4,-7,-7,-5,-5,-5,-3,2021-08-07 12:07:42,746038
1,1,4,0,-2,0,1,0,2021-08-07 12:07:42,747037
-1,-1,1,5,4,1,0,0,2021-08-07 12:07:42,747037
1,-1,-3,3,-1,-1,0,0,2021-08-07 12:07:42,747037
-2,-2,-3,-3,-3,-2,-1,-1,2021-08-07 12:07:42,747037
1,1,2,5,4,0,0,0,2021-08-07 12:07:42,762037
0,-2,-4,-4,-1,0,-1,-1,2021-08-07 12:07:42,762037
0,2,5,1,0,0,1,1,2021-08-07 12:07:42,762037
-3,-2,-4,-1,0,-1,-1,0,2021-08-07 12:07:42,762037
-1,2,-2,-4,-10,-5,-4,1,2021-08-07 12:07:42,778038
-1,-2,-2,-4,0,-1,-3,-2,2021-08-07 12:07:42,778038
-1,0,-1,1,0,-2,-3,-3,2021-08-07 12:07:42,778038
-4,-5,-8,-15,-9,-2,-2,-3,2021-08-07 12:07:42,778038
3,4,8,18,16,8,1,3,2021-08-07 12:07:42,809036
1,2,4,4,-1,0,-1,-1,2021-08-07 12:07:42,809036
2,2,1,2,1,0,1,0,2021-08-07 12:07:42,809036
-4,-6,-7,-4,-9,-6,-3,-3,2021-08-07 12:07:42,809036
-2,-5,-7,-15,-8,-3,-2,-2,2021-08-07 12:07:42,825037
-3,-2,-5,-5,-1,-1,-1,-3,2021-08-07 12:07:42,841040
1,0,3,4,3,1,0,0,2021-08-07 12:07:42,841040
-1,0,0,3,1,0,-1,0,2021-08-07 12:07:42,841040
-3,-3,-4,-6,-1,-1,-1,-2,2021-08-07 12:07:42,841040
-2,-1,-1,-2,-5,-2,-2,0,2021-08-07 12:07:42,841040
-4,-4,-1,0,2,1,-2,-3,2021-08-07 12:07:42,857037
2,1,3,7,6,3,2,0,2021-08-07 12:07:42,857037
-2,-2,-2,-1,-1,-1,-1,-2,2021-08-07 12:07:42,857037
2,0,1,-4,-8,-5,-3,0,2021-08-07 12:07:42,857037
-2,0,1,-1,-1,-1,-1,0,2021-08-07 12:07:42,857037
2,-1,-2,-3,4,2,1,2,2021-08-07 12:07:42,858039
1,0,1,5,-1,-2,-1,-1,2021-08-07 12:07:42,889036
-3,-4,-3,0,1,0,1,-1,2021-08-07 12:07:42,905040
-5,-5,-7,-12,-9,-5,-5,-4,2021-08-07 12:07:42,937038
5,7,9,10,11,4,3,2,2021-08-07 12:07:42,952037
1,1,6,6,0,0,0,1,2021-08-07 12:07:42,952037
0,2,0,-3,-4,-1,1,1,2021-08-07 12:07:42,952037
-1,-4,-12,-7,-6,-4,-3,0,2021-08-07 12:07:42,952037
-5,-6,-4,-6,-6,-3,-4,-5,2021-08-07 12:07:42,952037
-1,-1,-4,-6,-2,0,-3,-1,2021-08-07 12:07:42,952037
-1,1,6,2,0,2,-1,-1,2021-08-07 12:07:42,952037
-1,1,1,4,5,0,-2,-2,2021-08-07 12:07:42,952037
1,2,3,1,0,1,0,0,2021-08-07 12:07:42,952037
1,-1,3,9,9,3,2,1,2021-08-07 12:07:42,953039
-2,-3,-5,-6,-4,-2,-3,-1,2021-08-07 12:07:42,953039
-1,0,-3,-7,-5,-3,0,0,2021-08-07 12:07:42,953039
-1,-1,1,5,3,1,1,0,2021-08-07 12:07:42,953039
-2,-1,-2,-1,-2,-1,-2,0,2021-08-07 12:07:42,983037
-1,-1,-3,-4,0,0,-1,0,2021-08-07 12:07:42,999038
1,0,2,2,-4,-2,0,0,2021-08-07 12:07:42,999038
-1,-3,-1,1,-2,-2,-3,-1,2021-08-07 12:07:42,999038
-4,-4,-7,-8,-5,-4,-3,-3,2021-08-07 12:07:43,000038
-2,0,-4,1,2,-1,0,-1,2021-08-07 12:07:43,000038
-1,-2,-4,-6,-4,0,-1,-2,2021-08-07 12:07:43,000038
2,3,6,11,8,5,4,2,2021-08-07 12:07:43,015036
-2,-2,3,4,1,-1,1,-2,2021-08-07 12:07:43,031037
-2,-3,-7,-5,-8,-5,-5,-2,2021-08-07 12:07:43,031037
0,0,2,0,0,-1,-1,-2,2021-08-07 12:07:43,031037
-3,-2,-3,0,3,1,1,-1,2021-08-07 12:07:43,031037
3,2,-3,-4,0,1,1,1,2021-08-07 12:07:43,031037
-2,1,2,6,6,2,1,0,2021-08-07 12:07:43,031037
-3,-4,-5,-9,-10,-6,-4,-3,2021-08-07 12:07:43,032038
2,0,2,6,1,2,-1,1,2021-08-07 12:07:43,032038
-1,2,0,-2,-3,-1,0,-1,2021-08-07 12:07:43,032038
-2,-2,-3,-1,-1,-1,-1,-2,2021-08-07 12:07:43,032038
-1,-2,0,3,0,0,0,0,2021-08-07 12:07:43,037037
-1,-2,-4,-9,-5,-3,-2,-1,2021-08-07 12:07:43,037037
1,0,2,2,1,1,-1,0,2021-08-07 12:07:43,062037
-1,-2,-2,-3,-3,-2,-1,-1,2021-08-07 12:07:43,078039
0,0,0,0,0,-1,2,1,2021-08-07 12:07:43,078039
-2,-1,-3,-8,-4,-2,-1,0,2021-08-07 12:07:43,078039
-6,-3,-6,-8,-7,-3,-4,-2,2021-08-07 12:07:43,078039
-1,1,3,2,3,0,1,-1,2021-08-07 12:07:43,078039
0,-1,2,2,3,1,0,1,2021-08-07 12:07:43,079040
-1,-1,-3,3,1,-2,-1,-1,2021-08-07 12:07:43,079040
1,-1,0,1,2,0,1,-1,2021-08-07 12:07:43,109037
-3,-5,-4,-7,-7,-5,-3,-3,2021-08-07 12:07:43,109037
0,1,3,3,0,0,0,1,2021-08-07 12:07:43,109037
0,-2,-5,-5,-4,-2,-4,0,2021-08-07 12:07:43,109037
-1,0,0,-3,-1,-1,1,0,2021-08-07 12:07:43,125038
0,0,1,3,-1,-1,-1,-1,2021-08-07 12:07:43,125038
-3,-6,-7,-6,2,0,-2,-3,2021-08-07 12:07:43,125038
1,5,7,4,4,1,1,3,2021-08-07 12:07:43,125038
0,0,2,4,3,-1,-2,-2,2021-08-07 12:07:43,141037
1,0,-2,0,3,1,1,-1,2021-08-07 12:07:43,141037
-3,-1,-3,-4,-6,-3,-3,-2,2021-08-07 12:07:43,141037
-2,-6,-7,-9,-7,-4,-3,-5,2021-08-07 12:07:43,141037
-1,-1,-1,-1,-1,1,1,0,2021-08-07 12:07:43,157038
2,3,6,8,2,1,1,0,2021-08-07 12:07:43,173035
1,-1,0,5,4,2,0,2,2021-08-07 12:07:43,173035
-2,-1,-3,-7,-8,-6,-3,-4,2021-08-07 12:07:43,173035
0,1,-1,-2,-4,0,-1,1,2021-08-07 12:07:43,189037
-2,-3,-1,4,6,2,-2,0,2021-08-07 12:07:43,189037
0,2,1,-1,-2,0,0,0,2021-08-07 12:07:43,189037
-3,-4,-2,-1,-2,-1,-2,-2,2021-08-07 12:07:43,189037
-1,1,0,0,-3,-3,-2,-1,2021-08-07 12:07:43,189037
-2,-2,-4,-6,-4,-2,-2,-1,2021-08-07 12:07:43,189037
-2,-1,-2,-1,1,0,-2,0,2021-08-07 12:07:43,205037
-1,-2,-4,-5,-5,-4,0,0,2021-08-07 12:07:43,205037
0,1,-1,-4,-2,-2,-1,-1,2021-08-07 12:07:43,221041
-2,-1,-1,1,-1,1,1,-1,2021-08-07 12:07:43,237038
-1,1,0,-2,0,-1,1,-1,2021-08-07 12:07:43,237038
-3,-3,3,8,7,2,-1,-4,2021-08-07 12:07:43,237038
2,2,1,-1,-1,0,-1,3,2021-08-07 12:07:43,237038
-3,-3,-5,-4,-3,-2,-2,-1,2021-08-07 12:07:43,237038
3,4,5,6,3,1,0,1,2021-08-07 12:07:43,237038
-4,-3,-4,-7,-5,-2,-2,-3,2021-08-07 12:07:43,237038
-2,-3,-4,-8,-6,-3,-3,-2,2021-08-07 12:07:43,285037
-1,-2,-1,-2,-3,-1,-2,-3,2021-08-07 12:07:43,301035
1,1,-2,0,-1,-1,-1,0,2021-08-07 12:07:43,317036
1,2,2,3,2,0,1,3,2021-08-07 12:07:43,317036
-5,-4,-4,-3,-1,-2,-1,-3,2021-08-07 12:07:43,317036
1,1,0,-3,-4,-3,-2,-1,2021-08-07 12:07:43,317036
-4,-5,-3,-3,-3,-2,-3,-3,2021-08-07 12:07:43,317036
3,3,0,-5,-3,-1,0,1,2021-08-07 12:07:43,317036
0,-1,3,10,5,3,1,0,2021-08-07 12:07:43,317036
1,0,0,-3,3,1,1,0,2021-08-07 12:07:43,318038
1,0,0,-2,-3,-4,1,-2,2021-08-07 12:07:43,318038
-2,-1,-5,-11,-9,-5,-6,-3,2021-08-07 12:07:43,318038
0,1,9,17,15,9,4,1,2021-08-07 12:07:43,318038
-2,-3,-2,-3,-5,-4,-3,0,2021-08-07 12:07:43,318038
-1,-4,-5,-4,0,0,1,0,2021-08-07 12:07:43,318038
-1,1,2,1,-1,1,2,2,2021-08-07 12:07:43,318038
-2,-1,-3,-1,2,0,-2,-3,2021-08-07 12:07:43,349038
1,2,2,3,2,2,2,1,2021-08-07 12:07:43,365037
-2,-2,-2,-3,-5,-3,-2,-3,2021-08-07 12:07:43,381037
-4,-3,-2,-3,-4,-3,-3,-4,2021-08-07 12:07:43,381037
2,4,-1,-7,-7,-4,-2,1,2021-08-07 12:07:43,381037
-1,-1,-1,2,3,1,-1,-1,2021-08-07 12:07:43,381037
2,-1,-5,-6,-7,-4,-2,-2,2021-08-07 12:07:43,381037
4,2,2,6,11,6,5,4,2021-08-07 12:07:43,381037
-4,-5,-8,-8,-7,-3,-1,0,2021-08-07 12:07:43,381037
-3,-1,2,4,1,1,1,-1,2021-08-07 12:07:43,382037
-6,-4,-1,-3,-5,-2,-4,-4,2021-08-07 12:07:43,382037
-1,2,3,9,6,1,-1,-1,2021-08-07 12:07:43,382037
-5,-2,-2,-10,-9,-6,-4,-5,2021-08-07 12:07:43,397038
0,1,-2,-4,-2,-3,-2,-2,2021-08-07 12:07:43,397038
1,1,3,6,5,4,2,2,2021-08-07 12:07:43,413038
2,0,-2,-5,-9,-4,-1,-1,2021-08-07 12:07:43,429037
0,-4,-5,-8,-7,-2,-3,-2,2021-08-07 12:07:43,445037
1,-1,-2,-3,-2,-2,1,-2,2021-08-07 12:07:43,461037
-1,-4,-2,-5,-7,-3,-1,-2,2021-08-07 12:07:43,477036
0,0,0,2,7,4,1,3,2021-08-07 12:07:43,477036
-2,-3,-3,1,1,0,-1,-2,2021-08-07 12:07:43,477036
-1,-2,1,2,0,0,-1,-1,2021-08-07 12:07:43,477036
1,3,1,1,2,1,-1,0,2021-08-07 12:07:43,477036
1,1,1,5,3,2,1,0,2021-08-07 12:07:43,477036
0,-1,-2,0,-3,-4,-2,-2,2021-08-07 12:07:43,492037
-1,5,2,3,3,1,-2,-1,2021-08-07 12:07:43,504040
-4,-5,-5,-12,-12,-8,-6,-4,2021-08-07 12:07:43,504040
0,-8,-1,1,-2,-1,0,0,2021-08-07 12:07:43,505036
4,7,5,18,22,11,6,4,2021-08-07 12:07:43,505036
-2,-7,-9,-6,-6,-4,-4,-1,2021-08-07 12:07:43,505036
0,1,1,6,5,1,1,0,2021-08-07 12:07:43,505036
2,5,-2,-12,-10,-4,4,1,2021-08-07 12:07:43,505036
-2,-3,2,2,0,1,0,-2,2021-08-07 12:07:43,506038
-5,-1,-4,-9,-7,-8,-9,-7,2021-08-07 12:07:43,506038
-5,-1,-1,0,0,-4,-5,-3,2021-08-07 12:07:43,506038
-5,-6,-3,-3,-2,-4,-5,-2,2021-08-07 12:07:43,506038
4,0,0,-3,-3,0,3,3,2021-08-07 12:07:43,523035
-2,-3,-2,-4,-1,0,1,0,2021-08-07 12:07:43,539036
2,1,4,5,5,4,1,2,2021-08-07 12:07:43,539036
0,1,-1,-6,-4,-3,-2,0,2021-08-07 12:07:43,539036
1,1,3,6,5,3,1,2,2021-08-07 12:07:43,539036
-1,-3,-4,-5,-5,-4,-2,-1,2021-08-07 12:07:43,539036
1,1,4,11,15,7,4,1,2021-08-07 12:07:43,539036
-1,1,-3,4,-1,-2,-1,-2,2021-08-07 12:07:43,540037
0,-2,-1,-3,-2,-4,-2,-2,2021-08-07 12:07:43,585037
-1,0,-3,-6,-8,-4,-1,-1,2021-08-07 12:07:43,585037
-3,-3,-3,-12,-9,-5,-1,-3,2021-08-07 12:07:43,585037
0,0,0,5,7,4,0,-2,2021-08-07 12:07:43,585037
0,0,-2,-3,-2,0,-1,-2,2021-08-07 12:07:43,585037
1,0,2,5,2,1,3,1,2021-08-07 12:07:43,585037
-4,-4,-8,-7,-6,-3,-1,-2,2021-08-07 12:07:43,586040
-3,-3,-1,-5,-7,-5,-6,-1,2021-08-07 12:07:43,586040
-3,-4,1,8,3,-1,-1,-4,2021-08-07 12:07:43,601035
2,4,1,3,6,4,3,1,2021-08-07 12:07:43,617038
2,1,1,1,-1,0,0,-1,2021-08-07 12:07:43,617038
-3,-6,-7,-10,-6,-5,-3,-4,2021-08-07 12:07:43,617038
-3,-4,-5,-6,-4,-4,-2,0,2021-08-07 12:07:43,617038
-2,-3,0,-3,-7,-4,-3,-1,2021-08-07 12:07:43,617038
2,1,4,15,13,5,4,2,2021-08-07 12:07:43,633037
1,2,-1,1,4,3,0,2,2021-08-07 12:07:43,633037
-1,0,-2,-6,-8,-3,-3,-1,2021-08-07 12:07:43,633037
-5,-4,-2,-1,-1,0,-2,-3,2021-08-07 12:07:43,633037
-4,-2,-4,-8,-10,-6,-3,-2,2021-08-07 12:07:43,649038
-1,1,6,17,13,6,2,-1,2021-08-07 12:07:43,649038
1,0,0,2,1,-1,0,-1,2021-08-07 12:07:43,681037
0,-1,-2,-5,-6,-1,1,-1,2021-08-07 12:07:43,681037
0,0,3,0,5,3,1,0,2021-08-07 12:07:43,681037
-3,0,2,7,5,2,3,0,2021-08-07 12:07:43,681037
0,-1,0,-5,-7,-2,-1,0,2021-08-07 12:07:43,681037
-2,-4,-4,-1,-2,-3,-4,-1,2021-08-07 12:07:43,682039
1,2,0,-6,-8,-4,-4,0,2021-08-07 12:07:43,682039
-1,0,3,11,11,6,2,1,2021-08-07 12:07:43,682039
-1,0,-2,-8,-9,-5,-2,0,2021-08-07 12:07:43,697037
1,2,4,12,16,6,2,0,2021-08-07 12:07:43,697037
-1,-4,-6,-4,-2,-1,-2,-2,2021-08-07 12:07:43,713037
-1,0,-2,-8,-7,-6,-3,-4,2021-08-07 12:07:43,713037
-3,-3,-5,-4,-9,-5,-2,-3,2021-08-07 12:07:43,728038
2,2,5,6,-1,0,0,2,2021-08-07 12:07:43,744035
0,1,4,6,9,3,0,0,2021-08-07 12:07:43,760038
-2,-4,-8,-15,-17,-11,-7,-2,2021-08-07 12:07:43,760038
3,3,8,11,19,10,6,3,2021-08-07 12:07:43,760038
-5,-7,-9,-9,-11,-5,-5,-4,2021-08-07 12:07:43,760038
-1,1,0,-1,-3,-1,-1,-1,2021-08-07 12:07:43,760038
3,2,4,13,10,5,4,2,2021-08-07 12:07:43,760038
-6,-6,-7,-8,-8,-6,-5,-5,2021-08-07 12:07:43,761038
0,0,2,4,3,-1,-1,0,2021-08-07 12:07:43,761038
5,5,7,3,2,1,3,3,2021-08-07 12:07:43,775038
-2,-5,-6,-14,-13,-7,-2,-1,2021-08-07 12:07:43,775038
-1,-2,-3,-4,-3,1,1,0,2021-08-07 12:07:43,791037
-2,-2,1,2,1,-1,-2,-2,2021-08-07 12:07:43,807037
-4,-5,-3,0,4,2,-1,-1,2021-08-07 12:07:43,807037
1,3,5,-1,-2,-1,1,0,2021-08-07 12:07:43,807037
1,0,-2,1,0,1,-2,-1,2021-08-07 12:07:43,807037
-3,-1,-3,-7,-7,-4,-2,-3,2021-08-07 12:07:43,807037
1,0,1,9,9,6,1,1,2021-08-07 12:07:43,807037
-1,-2,2,7,11,10,2,-1,2021-08-07 12:07:43,807037
0,1,-2,-5,-8,-4,-2,-1,2021-08-07 12:07:43,823035
-7,-8,-11,-16,-19,-13,-10,-6,2021-08-07 12:07:43,823035
-1,-2,-5,-8,-7,-6,-2,-2,2021-08-07 12:07:43,823035
0,-1,-5,-11,-9,-2,0,1,2021-08-07 12:07:43,823035
1,1,3,9,12,7,3,0,2021-08-07 12:07:43,854036
2,3,4,2,1,3,5,3,2021-08-07 12:07:43,854036
-4,-5,-6,1,-3,-1,-1,-2,2021-08-07 12:07:43,854036
3,5,4,4,3,2,1,2,2021-08-07 12:07:43,854036
1,1,-1,-4,-2,-2,-2,0,2021-08-07 12:07:43,870037
-3,-2,-5,-13,-11,-3,-3,-2,2021-08-07 12:07:43,870037
-3,-5,-2,8,7,1,-1,-1,2021-08-07 12:07:43,870037
1,1,0,5,4,2,1,-2,2021-08-07 12:07:43,870037
-4,-3,-3,-5,-5,-6,-4,-3,2021-08-07 12:07:43,870037
2,4,6,14,16,8,4,2,2021-08-07 12:07:43,870037
-4,-2,-7,-19,-28,-13,-5,-3,2021-08-07 12:07:43,902036
-2,-2,1,12,15,6,1,2,2021-08-07 12:07:43,902036
1,3,3,8,7,1,0,0,2021-08-07 12:07:43,902036
-4,-3,-3,-8,-4,-4,-2,-4,2021-08-07 12:07:43,902036
2,3,2,-3,-4,-1,0,2,2021-08-07 12:07:43,902036
-2,-4,-3,-17,-13,-8,-5,-3,2021-08-07 12:07:43,902036
1,0,1,6,2,1,1,0,2021-08-07 12:07:43,934036
-4,-4,-9,-1,6,5,0,-2,2021-08-07 12:07:43,934036
-3,-5,-7,-7,-2,-3,-3,-4,2021-08-07 12:07:43,934036
-2,0,2,-7,-9,-6,-4,-2,2021-08-07 12:07:43,934036
0,3,3,-7,-8,-4,-2,0,2021-08-07 12:07:43,934036
2,2,9,19,18,8,3,1,2021-08-07 12:07:43,934036
-1,-8,-6,5,3,-1,0,-2,2021-08-07 12:07:43,963036
0,-2,-2,5,3,0,-1,-3,2021-08-07 12:07:43,963036
-4,-5,-6,-19,-18,-9,-5,-3,2021-08-07 12:07:43,963036
7,10,11,22,25,13,7,7,2021-08-07 12:07:43,964037
-3,-1,0,-1,-3,2,0,-3,2021-08-07 12:07:43,964037
0,0,1,-3,-4,-4,0,0,2021-08-07 12:07:43,964037
-2,0,-5,-12,-9,-5,-1,-1,2021-08-07 12:07:43,982038
-2,-6,0,2,2,0,-3,0,2021-08-07 12:07:43,998036
1,4,6,4,3,1,1,1,2021-08-07 12:07:43,998036
-2,-1,-3,-6,-8,-4,-3,-2,2021-08-07 12:07:43,998036
-2,-3,-5,-5,-12,-5,-2,-1,2021-08-07 12:07:43,998036
-2,-3,-7,-8,9,2,1,-1,2021-08-07 12:07:43,998036
1,6,8,9,14,5,2,2,2021-08-07 12:07:44,014040
-1,-1,2,8,6,2,0,-1,2021-08-07 12:07:44,030037
-1,-6,-5,1,-1,-1,-1,-1,2021-08-07 12:07:44,030037
-3,-3,-7,-10,-18,-10,-4,-2,2021-08-07 12:07:44,030037
-2,-2,-6,-10,-8,-5,-3,-3,2021-08-07 12:07:44,030037
-1,-2,-5,-11,-13,-7,-2,-1,2021-08-07 12:07:44,030037
0,-1,8,12,15,8,1,-1,2021-08-07 12:07:44,045038
1,0,-1,2,-2,-3,0,-1,2021-08-07 12:07:44,060035
0,1,0,-1,1,0,1,0,2021-08-07 12:07:44,060035
-2,-4,-9,-5,-10,-6,-5,-1,2021-08-07 12:07:44,060035
0,0,2,9,14,7,4,0,2021-08-07 12:07:44,075036
-1,0,-1,-2,0,-2,-2,-2,2021-08-07 12:07:44,075036
-2,-1,1,-2,-4,-2,-1,0,2021-08-07 12:07:44,075036
0,-2,2,3,3,0,1,0,2021-08-07 12:07:44,075036
-1,-1,-5,-6,-9,-6,-3,-3,2021-08-07 12:07:44,091037
0,1,3,2,2,1,1,0,2021-08-07 12:07:44,106037
5,8,5,5,5,3,2,3,2021-08-07 12:07:44,106037
-1,-1,-1,1,-1,0,0,-2,2021-08-07 12:07:44,106037
-2,-1,-4,-6,-8,-6,-2,-2,2021-08-07 12:07:44,106037
-6,-8,-9,-16,-16,-8,-5,-7,2021-08-07 12:07:44,106037
-1,-4,1,10,7,1,-2,-2,2021-08-07 12:07:44,106037
3,5,7,9,7,4,1,3,2021-08-07 12:07:44,106037
-2,0,2,7,5,1,-1,-2,2021-08-07 12:07:44,122036
-4,-5,-7,-17,-22,-11,-6,-3,2021-08-07 12:07:44,122036
1,-1,-3,-5,-5,-3,-2,-1,2021-08-07 12:07:44,122036
-2,-2,-1,4,9,1,0,-4,2021-08-07 12:07:44,122036
1,1,4,15,17,9,4,3,2021-08-07 12:07:44,153036
2,3,1,4,5,3,3,2,2021-08-07 12:07:44,169037
-6,-6,-10,-11,-7,-4,-6,-4,2021-08-07 12:07:44,185037
0,2,1,1,-4,-1,-1,0,2021-08-07 12:07:44,185037
-2,-3,-3,-11,-9,-5,-2,-2,2021-08-07 12:07:44,185037
-1,-1,1,1,-2,-4,-1,-2,2021-08-07 12:07:44,185037
-1,-2,0,-3,-4,-3,-1,-1,2021-08-07 12:07:44,185037
0,-2,-1,-1,8,5,0,-1,2021-08-07 12:07:44,185037
2,3,3,9,6,2,2,2,2021-08-07 12:07:44,186040
-1,-4,-8,-17,-21,-12,-6,-2,2021-08-07 12:07:44,186040
-2,-4,-9,-17,-13,-3,-3,-1,2021-08-07 12:07:44,186040
-1,-3,-8,-11,-9,-6,-4,-3,2021-08-07 12:07:44,186040
0,1,6,20,20,12,3,4,2021-08-07 12:07:44,201036
2,5,7,12,14,7,3,2,2021-08-07 12:07:44,201036
-4,-4,-5,-7,-10,-3,-1,-2,2021-08-07 12:07:44,201036
-3,-3,-1,0,-2,-1,-2,0,2021-08-07 12:07:44,201036
-6,-4,-6,-10,-17,-11,-6,-4,2021-08-07 12:07:44,233038
0,0,2,5,5,3,-2,-1,2021-08-07 12:07:44,265037
1,3,1,-3,2,1,0,-1,2021-08-07 12:07:44,280037
1,0,1,3,-2,-1,1,1,2021-08-07 12:07:44,280037
2,3,-1,-1,3,1,1,3,2021-08-07 12:07:44,280037
1,-1,-2,-3,-8,-2,1,0,2021-08-07 12:07:44,280037
-1,-2,-4,-1,-2,-1,0,-1,2021-08-07 12:07:44,280037
-2,-5,-5,-5,-3,0,-3,0,2021-08-07 12:07:44,281038
-1,-4,-2,-3,-2,-1,0,-2,2021-08-07 12:07:44,281038
5,7,8,4,-5,-2,2,2,2021-08-07 12:07:44,281038
3,2,8,12,12,7,3,1,2021-08-07 12:07:44,312038
-1,-2,-9,-6,13,4,2,1,2021-08-07 12:07:44,328080
-6,-8,-12,-10,-9,-8,-8,-6,2021-08-07 12:07:44,328080
-4,-5,-7,-10,-5,-3,-3,-2,2021-08-07 12:07:44,328080
-3,1,3,1,-1,-4,-2,0,2021-08-07 12:07:44,328080
-3,1,0,-10,-18,-8,-3,-4,2021-08-07 12:07:44,328080
-1,-3,-5,-18,-12,-3,-2,-2,2021-08-07 12:07:44,328080
3,1,10,31,36,17,8,4,2021-08-07 12:07:44,328080
1,1,3,6,4,0,1,0,2021-08-07 12:07:44,328080
0,-1,-3,-3,-1,1,2,-2,2021-08-07 12:07:44,329079
1,2,3,4,6,3,0,1,2021-08-07 12:07:44,329079
-1,-3,-7,-11,-18,-9,-4,-3,2021-08-07 12:07:44,329079
-4,-2,-2,-1,-2,-2,-1,-3,2021-08-07 12:07:44,329079
2,3,-1,-1,-1,-2,0,2,2021-08-07 12:07:44,329079
2,2,3,4,5,2,2,-1,2021-08-07 12:07:44,344078
-6,-7,-8,-14,-7,-5,-5,-5,2021-08-07 12:07:44,344078
3,4,1,-3,-8,-3,1,0,2021-08-07 12:07:44,344078
-4,-10,-7,-4,-4,-5,-3,-4,2021-08-07 12:07:44,344078
0,1,2,5,-3,-2,-1,-1,2021-08-07 12:07:44,376079
-2,-2,-3,-3,-1,-1,-2,-2,2021-08-07 12:07:44,376079
0,-3,1,1,5,3,-1,-1,2021-08-07 12:07:44,376079
1,4,7,9,-1,-1,-1,0,2021-08-07 12:07:44,376079
1,0,0,2,6,3,1,2,2021-08-07 12:07:44,376079
2,0,5,-1,-2,-2,1,2,2021-08-07 12:07:44,377079
-1,0,-1,8,1,-2,-1,0,2021-08-07 12:07:44,391079
-3,0,-8,-14,-14,-5,-2,1,2021-08-07 12:07:44,391079
-8,-8,-11,-3,5,-1,-3,-5,2021-08-07 12:07:44,407080
-2,-1,-3,-5,-2,-2,-3,-1,2021-08-07 12:07:44,417078
0,-1,3,7,8,6,2,1,2021-08-07 12:07:44,417078
1,1,5,8,12,4,2,2,2021-08-07 12:07:44,418083
-1,2,0,-6,-15,-7,-4,0,2021-08-07 12:07:44,439077
2,1,3,11,8,6,4,2,2021-08-07 12:07:44,455079
-2,-3,-4,-12,-12,-6,-3,-2,2021-08-07 12:07:44,455079
-4,-3,-2,-5,-10,-7,-4,-6,2021-08-07 12:07:44,455079
1,-1,1,5,8,7,3,1,2021-08-07 12:07:44,455079
-2,-2,-6,-7,-9,-3,-1,-2,2021-08-07 12:07:44,455079
0,-2,-4,-1,6,2,-1,1,2021-08-07 12:07:44,455079
-1,-3,0,8,1,0,-1,-2,2021-08-07 12:07:44,455079
0,1,5,0,-6,-3,-1,-1,2021-08-07 12:07:44,471081
-1,-1,-6,-6,7,4,2,-1,2021-08-07 12:07:44,487080
0,4,-2,-2,-10,-3,-1,0,2021-08-07 12:07:44,503080
2,3,2,-5,-6,-4,-1,-2,2021-08-07 12:07:44,503080
-3,-4,-1,0,0,-2,-2,-1,2021-08-07 12:07:44,503080
-1,-1,6,16,14,5,0,-3,2021-08-07 12:07:44,503080
0,-1,-3,-2,-3,-1,1,1,2021-08-07 12:07:44,503080
1,0,0,-1,6,5,0,1,2021-08-07 12:07:44,503080
-4,-2,-3,-10,-14,-7,-3,-2,2021-08-07 12:07:44,503080
-2,-1,2,-1,-5,-4,-2,-1,2021-08-07 12:07:44,504079
0,1,1,0,-3,0,0,0,2021-08-07 12:07:44,504079
1,0,-3,7,14,6,1,2,2021-08-07 12:07:44,504079
-1,-2,-6,-9,-9,-5,-3,-1,2021-08-07 12:07:44,534080
-5,-5,-8,-13,-8,-5,-4,-3,2021-08-07 12:07:44,550079
1,2,7,8,12,4,1,0,2021-08-07 12:07:44,566078
1,1,5,13,4,1,-1,1,2021-08-07 12:07:44,566078
-6,-8,-8,-13,-15,-10,-6,-5,2021-08-07 12:07:44,582079
-2,-1,0,-4,-5,-3,-3,0,2021-08-07 12:07:44,598080
2,2,1,6,10,5,2,3,2021-08-07 12:07:44,598080
-1,-2,-2,-3,-7,-3,-1,-1,2021-08-07 12:07:44,614087
4,5,5,5,10,5,3,1,2021-08-07 12:07:44,630079
0,1,6,12,2,1,2,0,2021-08-07 12:07:44,646077
-2,-5,-7,-2,-4,-3,-2,-2,2021-08-07 12:07:44,662079
-5,-6,-8,-11,-8,-7,-3,-3,2021-08-07 12:07:44,662079
1,-1,-1,2,7,2,2,1,2021-08-07 12:07:44,662079
-3,-3,-7,-13,-11,-7,-4,-3,2021-08-07 12:07:44,662079
-2,1,3,1,2,1,-1,-2,2021-08-07 12:07:44,662079
-1,0,7,7,3,2,2,0,2021-08-07 12:07:44,662079
-6,-5,-6,-14,-17,-6,-2,-1,2021-08-07 12:07:44,663079
5,4,5,26,20,13,7,3,2021-08-07 12:07:44,663079
-4,-8,-10,-9,-5,-5,-4,-4,2021-08-07 12:07:44,663079
1,5,3,0,7,4,3,0,2021-08-07 12:07:44,663079
-5,-5,-6,-15,-18,-12,-8,-6,2021-08-07 12:07:44,663079
-2,-2,-4,-1,-2,-3,-1,0,2021-08-07 12:07:44,663079
4,5,10,15,12,7,4,3,2021-08-07 12:07:44,663079
0,1,0,3,0,1,-1,0,2021-08-07 12:07:44,678079
3,7,9,14,12,7,4,2,2021-08-07 12:07:44,694078
-5,-5,-5,-9,-19,-12,-6,-5,2021-08-07 12:07:44,694078
0,-1,-3,-13,-8,-2,-1,0,2021-08-07 12:07:44,709079
-3,-3,-6,-13,-6,-4,-1,-2,2021-08-07 12:07:44,709079
2,2,6,17,11,7,2,1,2021-08-07 12:07:44,709079
-3,-4,-10,-7,6,1,-2,-1,2021-08-07 12:07:44,709079
-2,-4,-8,-17,-14,-8,-4,-1,2021-08-07 12:07:44,709079
-1,-2,3,-2,-2,-1,-1,-2,2021-08-07 12:07:44,709079
-2,-3,-2,7,5,0,-2,-2,2021-08-07 12:07:44,709079
3,6,8,0,-9,-3,1,2,2021-08-07 12:07:44,710080
0,0,-4,4,3,1,0,-1,2021-08-07 12:07:44,710080
-8,-11,-23,-37,-27,-11,-5,-5,2021-08-07 12:07:44,710080
0,0,0,7,24,9,2,0,2021-08-07 12:07:44,725077
-1,0,4,8,10,1,-2,-2,2021-08-07 12:07:44,740079
0,0,-1,-6,-8,-4,-2,-2,2021-08-07 12:07:44,772079
3,4,12,24,13,7,3,1,2021-08-07 12:07:44,788081
1,1,3,-2,0,2,0,1,2021-08-07 12:07:44,804079
-3,-1,0,-1,-8,-3,-2,-3,2021-08-07 12:07:44,820079
-2,-2,1,1,-5,-4,0,0,2021-08-07 12:07:44,835077
-1,-4,-3,3,5,1,-2,0,2021-08-07 12:07:44,850628
5,6,2,-1,4,1,0,2,2021-08-07 12:07:44,866080
-2,-2,-4,-1,2,-2,-3,0,2021-08-07 12:07:44,875079
-4,-5,-9,-17,-18,-9,-5,-3,2021-08-07 12:07:44,875079
1,3,7,9,6,5,0,1,2021-08-07 12:07:44,875079
1,1,3,4,1,2,1,0,2021-08-07 12:07:44,875079
-6,-7,-12,-17,-17,-8,-6,-5,2021-08-07 12:07:44,875079
-2,-2,-5,-13,-6,-5,-3,0,2021-08-07 12:07:44,876079
1,0,-2,4,3,1,0,0,2021-08-07 12:07:44,876079
1,-1,1,8,1,2,3,1,2021-08-07 12:07:44,876079
1,1,3,1,9,4,2,-1,2021-08-07 12:07:44,876079
-1,0,6,13,10,3,2,0,2021-08-07 12:07:44,876079
1,3,7,8,3,1,0,1,2021-08-07 12:07:44,876079
-6,-10,-21,-31,-28,-15,-7,-7,2021-08-07 12:07:44,876079
-2,-2,-6,-1,13,3,0,0,2021-08-07 12:07:44,876079
-2,-2,1,1,3,1,-1,1,2021-08-07 12:07:44,877079
1,3,5,-1,-4,-1,-1,0,2021-08-07 12:07:44,877079
0,3,9,19,10,4,2,1,2021-08-07 12:07:44,877079
-2,-6,-8,-20,-23,-11,-5,-4,2021-08-07 12:07:44,877079
-3,-5,-11,0,1,-1,-3,-5,2021-08-07 12:07:44,877079
4,4,8,12,10,4,2,3,2021-08-07 12:07:44,877079
-3,-3,-2,-1,-1,-1,-3,-4,2021-08-07 12:07:44,878080
-1,2,-5,-14,-16,-6,-2,-1,2021-08-07 12:07:44,878080
-2,-2,2,-4,-4,-3,-1,-2,2021-08-07 12:07:44,878080
2,-4,-4,12,16,13,4,1,2021-08-07 12:07:44,878080
0,2,3,-1,-1,-1,-2,0,2021-08-07 12:07:44,878080
3,7,13,20,16,7,4,2,2021-08-07 12:07:44,879079
1,1,3,1,-8,-3,-1,1,2021-08-07 12:07:44,879079
-5,-8,-10,-18,-12,-9,-5,-4,2021-08-07 12:07:44,879079
-5,-7,-12,-21,-16,-8,-4,-4,2021-08-07 12:07:44,879079
0,0,-1,4,6,2,2,0,2021-08-07 12:07:44,879079
0,4,4,4,0,-1,-1,1,2021-08-07 12:07:44,879079
-3,-4,-4,-5,-2,-5,-4,-4,2021-08-07 12:07:44,879079
1,0,0,5,4,2,2,2,2021-08-07 12:07:44,914079
-3,-4,-7,-16,-19,-12,-5,-4,2021-08-07 12:07:44,930079
4,3,10,22,20,11,7,3,2021-08-07 12:07:44,946079
2,2,3,6,2,1,1,1,2021-08-07 12:07:44,962079
-6,-7,-11,-8,-8,-5,-4,-6,2021-08-07 12:07:44,978079
6,4,1,8,9,5,2,3,2021-08-07 12:07:44,993079
-1,-3,-4,-12,-13,-7,-5,-1,2021-08-07 12:07:44,993079
0,2,1,-1,4,-1,-1,-1,2021-08-07 12:07:44,993079
-2,-2,-1,-1,-8,-4,-2,-1,2021-08-07 12:07:44,993079
2,2,9,20,24,12,4,1,2021-08-07 12:07:44,993079
0,0,0,1,-6,-1,0,0,2021-08-07 12:07:44,993079
-3,-4,-5,-14,-7,-6,-3,-4,2021-08-07 12:07:44,994079
-6,-7,-14,-23,-23,-12,-7,-6,2021-08-07 12:07:44,994079
-1,-1,0,-2,-4,-1,-2,-1,2021-08-07 12:07:44,994079
1,-1,1,17,27,11,2,-1,2021-08-07 12:07:44,994079
-3,-2,-1,3,-1,0,1,0,2021-08-07 12:07:44,994079
4,6,13,9,10,6,3,3,2021-08-07 12:07:44,994079
-1,-3,-3,-1,-8,-5,-4,-3,2021-08-07 12:07:44,994079
0,-2,-9,-20,-14,-7,-3,0,2021-08-07 12:07:44,995079
0,2,-3,0,0,1,-2,0,2021-08-07 12:07:44,995079
-1,-5,-3,0,11,4,1,0,2021-08-07 12:07:45,024079
-1,-1,1,1,-7,-2,0,0,2021-08-07 12:07:45,040080
-2,-4,-6,-6,-4,-2,-2,-2,2021-08-07 12:07:45,056287
-4,-5,-6,-14,-15,-8,-5,-4,2021-08-07 12:07:45,056287
5,9,13,22,13,9,5,6,2021-08-07 12:07:45,056287
-1,-3,0,3,-1,1,-1,-1,2021-08-07 12:07:45,056287
-1,-2,-2,-6,2,0,-1,1,2021-08-07 12:07:45,056287
-2,2,2,-19,-20,-12,-6,-5,2021-08-07 12:07:45,057081
7,6,8,29,25,11,5,2,2021-08-07 12:07:45,057081
-2,-4,-11,-14,-5,-5,0,-2,2021-08-07 12:07:45,057081
-8,-8,-12,-16,-22,-16,-9,-4,2021-08-07 12:07:45,057081
0,-3,0,-15,-5,0,0,2,2021-08-07 12:07:45,057081
-5,-5,-10,-3,-8,-4,-5,-4,2021-08-07 12:07:45,058080
3,4,7,7,8,7,3,3,2021-08-07 12:07:45,058080
5,13,24,36,24,15,7,3,2021-08-07 12:07:45,072079
-2,0,8,13,5,2,0,-1,2021-08-07 12:07:45,088080
-6,-9,-24,-23,-12,-10,-7,-7,2021-08-07 12:07:45,104080
-4,-1,-16,-24,-14,-8,-5,-2,2021-08-07 12:07:45,104080
1,-2,-1,4,0,-1,0,1,2021-08-07 12:07:45,104080
1,0,-1,-2,-7,-5,0,-1,2021-08-07 12:07:45,104080
-4,-3,-2,-7,-14,-4,-3,-2,2021-08-07 12:07:45,104080
2,3,11,27,34,14,6,5,2021-08-07 12:07:45,104080
7,10,13,17,13,9,7,2,2021-08-07 12:07:45,104080
6,6,14,33,29,13,6,4,2021-08-07 12:07:45,104080
-4,-5,-9,-21,-23,-12,-5,-4,2021-08-07 12:07:45,136080
-9,-11,-16,-27,-26,-15,-8,-8,2021-08-07 12:07:45,152081
-6,-10,-15,-21,-16,-9,-7,-4,2021-08-07 12:07:45,168079
-1,-2,-2,7,11,4,1,-1,2021-08-07 12:07:45,168079
-2,-1,5,3,-2,-3,-1,-2,2021-08-07 12:07:45,168079
4,4,6,3,1,4,1,3,2021-08-07 12:07:45,168079
12,14,21,30,35,19,11,8,2021-08-07 12:07:45,168079
-3,-5,-18,-19,-22,-12,-7,-5,2021-08-07 12:07:45,168079
-2,-2,-2,-9,3,1,-2,1,2021-08-07 12:07:45,184078
-4,-4,-1,2,2,-1,-2,-3,2021-08-07 12:07:45,200079
-7,-9,-12,-20,-18,-12,-7,-6,2021-08-07 12:07:45,200079
-3,1,-4,-10,-10,-4,-3,-1,2021-08-07 12:07:45,200079
6,6,12,15,8,5,5,2,2021-08-07 12:07:45,200079
7,9,25,39,45,18,9,6,2021-08-07 12:07:45,200079
2,0,0,7,8,6,3,0,2021-08-07 12:07:45,200079
-3,-7,-12,-11,-12,-5,-4,-2,2021-08-07 12:07:45,216080
-10,-15,-28,-47,-35,-21,-13,-8,2021-08-07 12:07:45,216080
-2,-5,-8,-18,-24,-10,-5,-2,2021-08-07 12:07:45,232079
-1,0,-1,-4,-4,-2,-3,-2,2021-08-07 12:07:45,248077
3,4,10,14,11,8,3,3,2021-08-07 12:07:45,248077
8,14,24,29,22,11,7,5,2021-08-07 12:07:45,248077
6,7,16,20,16,11,5,3,2021-08-07 12:07:45,248077
-3,-6,-11,-14,-15,-7,-3,-2,2021-08-07 12:07:45,248077
-11,-18,-34,-31,-7,-9,-7,-8,2021-08-07 12:07:45,264078
-5,-3,-9,-3,3,-5,-4,-2,2021-08-07 12:07:45,280080
-4,-10,-14,-11,-22,-11,-5,-3,2021-08-07 12:07:45,296080
0,5,15,16,14,7,2,2,2021-08-07 12:07:45,312079
6,7,14,16,10,7,5,4,2021-08-07 12:07:45,312079
3,3,11,15,6,3,2,1,2021-08-07 12:07:45,312079
-4,-1,-2,-8,-15,-8,-4,-2,2021-08-07 12:07:45,312079
0,-3,-7,2,6,3,0,-2,2021-08-07 12:07:45,328079
-6,-7,-12,-20,-14,-8,-6,-2,2021-08-07 12:07:45,328079
1,0,6,7,8,3,0,1,2021-08-07 12:07:45,328079
0,-1,-7,-25,-24,-11,-5,-1,2021-08-07 12:07:45,328079
1,2,4,7,3,1,2,2,2021-08-07 12:07:45,328079
-2,-3,-2,-3,-4,-4,-4,-3,2021-08-07 12:07:45,328079
-3,-3,-4,-1,-4,-4,-1,-4,2021-08-07 12:07:45,328079
-4,-6,-5,-5,-2,1,0,-3,2021-08-07 12:07:45,329081
1,5,5,8,7,4,2,1,2021-08-07 12:07:45,329081
2,4,7,12,5,3,2,1,2021-08-07 12:07:45,329081
-1,-3,-5,-5,-7,-2,-1,1,2021-08-07 12:07:45,329081
-6,-11,-22,-35,-26,-15,-10,-8,2021-08-07 12:07:45,329081
0,-2,1,6,8,3,0,0,2021-08-07 12:07:45,329081
-1,-1,0,3,-7,-2,-1,0,2021-08-07 12:07:45,329081
-1,-3,-3,-12,-10,-2,-1,0,2021-08-07 12:07:45,351079
5,10,16,30,25,10,6,3,2021-08-07 12:07:45,351079
-1,-2,-3,-5,-3,-1,-1,-1,2021-08-07 12:07:45,351079
0,1,0,-2,-2,-1,-1,-1,2021-08-07 12:07:45,351079
2,2,-3,-4,1,0,-2,0,2021-08-07 12:07:45,375079
-1,-2,0,2,1,0,-2,-2,2021-08-07 12:07:45,375079
-4,-6,-8,-17,-14,-7,-5,-2,2021-08-07 12:07:45,375079
-2,-2,2,4,-3,-3,-1,-2,2021-08-07 12:07:45,375079
-4,-4,2,-1,-4,-4,-4,-4,2021-08-07 12:07:45,391078
5,11,19,36,33,19,8,4,2021-08-07 12:07:45,406079
4,4,-11,-19,-5,0,2,1,2021-08-07 12:07:45,422079
-7,-12,-21,-21,-18,-12,-7,-6,2021-08-07 12:07:45,438077
0,2,7,8,6,3,-1,1,2021-08-07 12:07:45,454079
-5,-6,-7,-16,-15,-9,-6,-3,2021-08-07 12:07:45,454079
-2,0,10,8,-4,-1,1,1,2021-08-07 12:07:45,454079
0,2,8,19,16,5,2,2,2021-08-07 12:07:45,454079
5,5,0,-1,8,4,2,1,2021-08-07 12:07:45,454079
-2,-4,-4,-4,-3,-4,-2,-1,2021-08-07 12:07:45,454079
-1,-4,-5,-2,3,-2,-1,-3,2021-08-07 12:07:45,454079
1,-1,-3,-14,-15,-8,-4,0,2021-08-07 12:07:45,454079
-6,-5,-1,6,1,-1,-1,-4,2021-08-07 12:07:45,454079
0,-2,-1,-6,-7,-1,0,0,2021-08-07 12:07:45,454079
-1,0,-3,-2,1,0,0,-2,2021-08-07 12:07:45,455079
2,2,-1,1,15,8,3,-1,2021-08-07 12:07:45,455079
0,0,-3,-5,0,-2,-1,-1,2021-08-07 12:07:45,470079
-3,-5,-10,-10,-14,-7,-5,-3,2021-08-07 12:07:45,486081
-7,-6,2,-3,-6,-4,-5,-5,2021-08-07 12:07:45,517079
3,4,7,7,5,3,4,1,2021-08-07 12:07:45,533079
6,6,11,27,25,12,6,7,2021-08-07 12:07:45,549081
-2,-1,-10,-13,-13,-8,-2,-1,2021-08-07 12:07:45,565079
-3,-3,-10,-23,-17,-9,-6,-3,2021-08-07 12:07:45,565079
1,5,9,19,4,4,1,2,2021-08-07 12:07:45,565079
-2,-4,-4,-8,4,1,-1,-1,2021-08-07 12:07:45,566081
-3,-2,4,2,-2,-1,-1,-1,2021-08-07 12:07:45,566081
-2,-2,-9,-3,-9,-5,-4,-3,2021-08-07 12:07:45,566081
-2,-3,-3,-1,2,-1,0,-2,2021-08-07 12:07:45,566081
1,1,-5,-17,-16,-5,0,1,2021-08-07 12:07:45,566081
4,4,7,22,32,17,8,5,2021-08-07 12:07:45,566081
-5,-4,-5,-4,-7,-5,-4,-6,2021-08-07 12:07:45,566081
-3,-4,-5,-13,-15,-7,-5,-1,2021-08-07 12:07:45,567080
1,1,7,13,2,-1,1,-1,2021-08-07 12:07:45,567080
1,-1,-9,-10,-8,-4,-1,0,2021-08-07 12:07:45,567080
-1,-1,1,3,7,2,-1,-2,2021-08-07 12:07:45,567080
-4,-3,0,-2,-6,-5,-4,-3,2021-08-07 12:07:45,567080
1,1,0,-1,-4,0,-1,-1,2021-08-07 12:07:45,567080
0,2,2,-3,-3,-1,-1,0,2021-08-07 12:07:45,567080
-5,-5,-1,6,2,-3,-2,-2,2021-08-07 12:07:45,567080
-4,-6,-8,-9,-5,-3,-2,-3,2021-08-07 12:07:45,567080
4,7,8,11,13,5,5,3,2021-08-07 12:07:45,597078
-1,1,2,-1,-4,0,-1,-2,2021-08-07 12:07:45,597078
1,2,2,1,2,2,1,1,2021-08-07 12:07:45,597078
-4,-4,-7,-9,-11,-8,-6,-4,2021-08-07 12:07:45,597078
2,-2,3,12,2,0,1,0,2021-08-07 12:07:45,597078
-2,-4,-8,-9,-6,-2,-2,-2,2021-08-07 12:07:45,597078
2,1,-2,-6,7,0,0,0,2021-08-07 12:07:45,613077
-3,-2,0,-1,3,0,-2,-2,2021-08-07 12:07:45,613077
-4,-4,-8,-3,-10,-5,-5,-3,2021-08-07 12:07:45,629079
-1,1,4,9,12,4,1,1,2021-08-07 12:07:45,629079
4,5,12,20,6,4,4,3,2021-08-07 12:07:45,629079
-1,-2,-5,-1,7,3,2,0,2021-08-07 12:07:45,629079
-6,-5,-6,-14,-13,-9,-6,-5,2021-08-07 12:07:45,661080
0,-1,0,-1,-5,-4,-1,-2,2021-08-07 12:07:45,676079
-4,-5,-8,-20,-22,-11,-5,-3,2021-08-07 12:07:45,676079
5,6,8,15,27,16,8,4,2021-08-07 12:07:45,676079
-3,-3,-4,-7,-6,-3,-3,-2,2021-08-07 12:07:45,676079
-1,0,5,15,14,6,1,0,2021-08-07 12:07:45,676079
-6,-6,-7,-8,-9,-6,-2,-5,2021-08-07 12:07:45,676079
-1,-2,-8,-27,-33,-17,-6,-2,2021-08-07 12:07:45,676079
0,2,10,32,29,13,4,1,2021-08-07 12:07:45,692079
1,3,0,-5,1,0,0,2,2021-08-07 12:07:45,692079
3,2,1,7,6,8,4,3,2021-08-07 12:07:45,692079
-3,-5,-3,-8,-7,-8,-5,-2,2021-08-07 12:07:45,692079
-4,-5,-7,-17,-12,-9,-6,-3,2021-08-07 12:07:45,707079
0,1,7,12,5,2,0,0,2021-08-07 12:07:45,707079
1,-2,2,9,12,6,1,1,2021-08-07 12:07:45,723079
1,2,-4,3,6,5,2,0,2021-08-07 12:07:45,723079
-2,-2,-7,-14,-13,-7,-4,-2,2021-08-07 12:07:45,739078
-6,-7,-11,-13,-22,-13,-8,-5,2021-08-07 12:07:45,755077
-1,-5,-4,-6,2,-3,-2,-1,2021-08-07 12:07:45,755077
3,3,12,8,4,1,0,1,2021-08-07 12:07:45,755077
1,-2,-1,6,9,6,3,0,2021-08-07 12:07:45,755077
-1,0,-2,-1,4,-1,0,-1,2021-08-07 12:07:45,755077
-1,2,5,-3,-6,-4,-2,0,2021-08-07 12:07:45,756079
-6,-6,-10,-11,-17,-11,-5,-5,2021-08-07 12:07:45,756079
4,7,13,34,43,22,10,5,2021-08-07 12:07:45,771080
0,-3,-5,-12,-10,-2,-2,-3,2021-08-07 12:07:45,771080
0,2,2,6,6,3,2,-1,2021-08-07 12:07:45,771080
2,4,8,2,-10,-5,-2,0,2021-08-07 12:07:45,771080
0,-4,-6,-12,-2,-1,-1,-1,2021-08-07 12:07:45,787079
-1,0,-8,7,16,7,4,1,2021-08-07 12:07:45,803079
-6,-8,-16,-22,-19,-12,-8,-4,2021-08-07 12:07:45,803079
-1,1,7,9,8,3,1,0,2021-08-07 12:07:45,803079
-3,-6,-9,-16,-20,-10,-5,-6,2021-08-07 12:07:45,803079
2,2,15,18,11,6,2,1,2021-08-07 12:07:45,803079
0,2,2,-1,-9,-4,0,0,2021-08-07 12:07:45,804079
6,8,8,22,27,14,7,5,2021-08-07 12:07:45,804079
-1,-2,-10,-9,-10,-5,-2,-1,2021-08-07 12:07:45,834079
-7,-8,-15,-25,-23,-12,-6,-5,2021-08-07 12:07:45,850079
-5,-3,-4,-14,-8,-7,-5,-3,2021-08-07 12:07:45,850079
-2,-5,-2,5,4,2,0,-1,2021-08-07 12:07:45,850079
1,4,6,11,10,7,2,1,2021-08-07 12:07:45,850079
-1,-2,-4,2,-3,-3,0,0,2021-08-07 12:07:45,850079
3,5,9,22,10,6,2,1,2021-08-07 12:07:45,850079
-4,-4,-4,-19,-14,-9,-7,-4,2021-08-07 12:07:45,851079
-2,-3,-9,-11,-3,-3,-2,0,2021-08-07 12:07:45,865079
-1,0,-8,-10,-11,-5,-1,-2,2021-08-07 12:07:45,865079
-1,-2,-2,-5,-2,-2,-2,-2,2021-08-07 12:07:45,865079
3,4,10,23,17,8,4,2,2021-08-07 12:07:45,865079
-3,-5,-5,-13,-22,-7,-4,-1,2021-08-07 12:07:45,897080
4,6,8,8,9,6,1,4,2021-08-07 12:07:45,929078
4,5,13,22,27,14,8,4,2021-08-07 12:07:45,961079
-3,-4,-8,-13,-10,-3,0,-2,2021-08-07 12:07:45,977082
-5,-4,-11,-20,-16,-10,-6,-4,2021-08-07 12:07:45,977082
-3,-3,-8,-18,-25,-14,-7,-3,2021-08-07 12:07:45,993081
-1,0,-2,0,-4,-2,-2,-2,2021-08-07 12:07:45,993081
0,-1,5,17,15,8,0,-1,2021-08-07 12:07:45,993081
5,7,16,21,20,8,6,3,2021-08-07 12:07:45,993081
4,3,5,5,8,6,4,5,2021-08-07 12:07:45,993081
1,-2,-8,-6,-7,-2,0,2,2021-08-07 12:07:45,993081
-4,-8,-16,-19,-19,-12,-4,-4,2021-08-07 12:07:45,993081
-2,-3,-2,1,4,2,0,-1,2021-08-07 12:07:45,993081
-2,0,3,3,0,-1,-1,-1,2021-08-07 12:07:45,994079
-3,0,2,1,4,0,-3,-2,2021-08-07 12:07:45,994079
-4,0,0,-2,-7,-2,-3,-3,2021-08-07 12:07:45,994079
1,2,7,-3,-2,-1,1,-1,2021-08-07 12:07:45,994079
-3,-3,-3,-1,1,-2,-3,-4,2021-08-07 12:07:45,994079
3,4,-5,2,-1,2,2,3,2021-08-07 12:07:46,009079
-2,-5,-12,-18,-10,-7,-5,-1,2021-08-07 12:07:46,009079
-4,-3,-1,-7,-17,-11,-5,-4,2021-08-07 12:07:46,009079
2,3,9,7,9,4,2,2,2021-08-07 12:07:46,009079
-4,-5,-4,-15,-17,-11,-6,-4,2021-08-07 12:07:46,009079
3,3,9,26,22,14,5,3,2021-08-07 12:07:46,009079
-2,-1,-6,-9,-8,-2,-1,0,2021-08-07 12:07:46,009079
-4,-7,-5,-6,-6,-4,-2,-1,2021-08-07 12:07:46,009079
-2,-1,-9,-11,-6,-3,-1,-2,2021-08-07 12:07:46,010079
-2,-2,0,-9,-14,-7,-3,-1,2021-08-07 12:07:46,010079
-4,-5,-6,-13,-10,-7,-6,-3,2021-08-07 12:07:46,025078
1,2,-1,5,3,2,0,1,2021-08-07 12:07:46,041081
0,-2,1,10,18,8,3,1,2021-08-07 12:07:46,041081
0,0,-2,2,-3,-1,0,1,2021-08-07 12:07:46,041081
-1,0,5,7,6,3,-1,-2,2021-08-07 12:07:46,041081
-3,-3,-3,-9,-15,-8,-3,-4,2021-08-07 12:07:46,041081
-1,-1,2,6,14,7,2,0,2021-08-07 12:07:46,041081
3,2,9,0,-1,-1,2,3,2021-08-07 12:07:46,041081
-3,-3,-7,-2,-1,-4,-2,-2,2021-08-07 12:07:46,072079
2,0,-3,0,1,2,1,2,2021-08-07 12:07:46,088078
-5,-3,-2,-2,-17,-8,-4,-4,2021-08-07 12:07:46,103078
5,4,11,32,33,14,6,3,2021-08-07 12:07:46,103078
3,4,-1,-8,-2,1,1,2,2021-08-07 12:07:46,103078
-3,-5,-9,-9,-2,-1,-4,-5,2021-08-07 12:07:46,103078
0,0,0,2,-2,-3,-3,1,2021-08-07 12:07:46,104079
-3,-3,-10,-19,-16,-7,-3,-3,2021-08-07 12:07:46,104079
-2,-1,1,-1,-9,-7,-1,-2,2021-08-07 12:07:46,104079
0,2,11,15,11,5,3,0,2021-08-07 12:07:46,104079
0,-3,-4,-9,-8,0,1,2,2021-08-07 12:07:46,104079
-5,-5,-8,-7,-3,-4,-3,-4,2021-08-07 12:07:46,104079
-1,-1,1,9,9,2,-1,0,2021-08-07 12:07:46,135079
-2,1,4,-5,-2,-2,-2,0,2021-08-07 12:07:46,135079
0,0,-4,-5,-11,-6,-5,-1,2021-08-07 12:07:46,135079
3,1,3,8,10,6,4,2,2021-08-07 12:07:46,135079
0,0,-3,1,3,0,2,1,2021-08-07 12:07:46,151078
-1,0,-3,-8,-8,-4,-3,-1,2021-08-07 12:07:46,167080
1,1,9,7,6,1,-2,0,2021-08-07 12:07:46,183079
-1,-1,1,-1,-4,-2,0,0,2021-08-07 12:07:46,183079
-4,-5,-4,1,-4,-3,-1,-2,2021-08-07 12:07:46,183079
-2,-3,-4,-10,-4,-2,-3,-2,2021-08-07 12:07:46,183079
3,4,-1,3,3,2,1,2,2021-08-07 12:07:46,183079
-3,-7,-8,-12,-7,-4,-5,-4,2021-08-07 12:07:46,184079
-1,1,7,11,2,2,0,2,2021-08-07 12:07:46,184079
3,4,-1,3,10,7,6,3,2021-08-07 12:07:46,184079
-4,-6,-11,-9,-3,-2,-1,-3,2021-08-07 12:07:46,184079
-6,-3,-7,-15,-16,-12,-7,-4,2021-08-07 12:07:46,184079
-1,-1,5,10,7,2,1,-1,2021-08-07 12:07:46,215078
-2,-1,1,1,-6,-5,-2,-3,2021-08-07 12:07:46,215078
1,1,10,13,12,8,3,2,2021-08-07 12:07:46,231079
3,7,10,20,19,7,3,2,2021-08-07 12:07:46,246079
-2,-1,-3,-8,-6,-3,-1,-3,2021-08-07 12:07:46,246079
3,5,5,1,-1,0,1,-1,2021-08-07 12:07:46,246079
-2,-3,-4,-3,-4,-4,-2,-1,2021-08-07 12:07:46,246079
-8,-8,-12,-12,-9,-7,-4,-5,2021-08-07 12:07:46,246079
-2,-4,-13,-15,-3,-4,-4,0,2021-08-07 12:07:46,246079
-5,-4,-3,-4,-10,-6,-5,-2,2021-08-07 12:07:46,246079
-2,1,6,-2,-8,-5,-3,0,2021-08-07 12:07:46,246079
6,9,13,22,22,13,9,5,2021-08-07 12:07:46,247079
