EMG 1,EMG 2,EMG 3,EMG 4,EMG 5,EMG 6,EMG 7,EMG 8,Timestamp,Milliseconds
0,0,2,0,0,-2,0,-2,2021-08-16 12:31:52,632361
0,-1,0,-2,0,-1,-3,1,2021-08-16 12:31:52,632361
-1,-1,0,1,0,1,-1,-1,2021-08-16 12:31:52,632361
1,0,-1,-1,-1,-1,0,0,2021-08-16 12:31:52,632361
-2,0,-2,-1,-1,0,-1,-1,2021-08-16 12:31:52,632361
0,-1,-2,0,-2,-6,-3,-3,2021-08-16 12:31:52,632361
-1,-1,0,-3,1,1,-1,2,2021-08-16 12:31:52,647361
-1,-1,0,-1,2,0,-2,-2,2021-08-16 12:31:52,647361
-2,-1,-1,-1,-5,-7,-2,-2,2021-08-16 12:31:52,647361
0,1,2,2,6,16,7,-1,2021-08-16 12:31:52,647361
-2,0,-3,-2,-2,-4,-4,-2,2021-08-16 12:31:52,663364
-3,-1,-2,-1,-1,-2,-1,-1,2021-08-16 12:31:52,679363
-1,0,0,-2,-2,1,0,-1,2021-08-16 12:31:52,695364
-2,-2,0,-2,-4,-8,-3,-2,2021-08-16 12:31:52,711361
1,0,-1,-1,1,1,3,-1,2021-08-16 12:31:52,711361
1,0,0,0,0,4,1,1,2021-08-16 12:31:52,711361
-1,-3,0,0,1,0,-4,-1,2021-08-16 12:31:52,711361
1,0,0,1,-1,-2,0,2,2021-08-16 12:31:52,711361
-1,-2,0,-1,-2,-2,0,-2,2021-08-16 12:31:52,711361
-1,-2,-1,-1,-3,-5,0,0,2021-08-16 12:31:52,711361
0,0,-1,-2,0,2,1,-1,2021-08-16 12:31:52,711361
0,-2,-2,-2,-2,-3,-1,-2,2021-08-16 12:31:52,711361
0,0,2,1,1,1,-3,-2,2021-08-16 12:31:52,711361
0,1,-2,-3,-2,-2,-1,-1,2021-08-16 12:31:52,712363
0,-1,-2,-1,0,-2,-2,0,2021-08-16 12:31:52,759363
-2,-1,1,0,-2,-3,-2,0,2021-08-16 12:31:52,759363
-2,-1,0,0,-2,-3,0,-1,2021-08-16 12:31:52,759363
-1,-1,-1,-1,-1,-4,-2,-1,2021-08-16 12:31:52,775363
0,0,1,0,-1,1,-1,-2,2021-08-16 12:31:52,775363
-1,-1,-2,-2,-2,-4,-1,-2,2021-08-16 12:31:52,775363
0,-1,-1,0,0,0,-4,-1,2021-08-16 12:31:52,775363
0,-2,0,1,2,2,3,3,2021-08-16 12:31:52,775363
0,-1,0,0,-2,-2,-1,-1,2021-08-16 12:31:52,775363
1,0,1,0,-2,-1,-1,0,2021-08-16 12:31:52,775363
-1,-1,-1,-2,-1,-1,-1,-2,2021-08-16 12:31:52,776364
-1,-1,-3,-3,-1,-2,-1,-2,2021-08-16 12:31:52,776364
2,0,0,1,1,0,-1,2,2021-08-16 12:31:52,776364
-2,-3,-2,-2,-5,-11,-1,-1,2021-08-16 12:31:52,776364
1,1,2,2,6,13,3,4,2021-08-16 12:31:52,807362
0,-1,-2,-1,-3,-1,-2,-2,2021-08-16 12:31:52,807362
0,-2,-2,-1,-2,-2,-1,-1,2021-08-16 12:31:52,807362
-2,-2,-1,-3,0,-2,0,-2,2021-08-16 12:31:52,807362
-1,-1,0,-3,-2,-5,-1,-2,2021-08-16 12:31:52,824363
-1,-1,-1,0,-2,-5,-5,-2,2021-08-16 12:31:52,825364
-3,-1,-1,-1,-1,0,2,0,2021-08-16 12:31:52,825364
1,-1,0,3,3,9,-1,1,2021-08-16 12:31:52,825364
1,-2,-3,0,-1,1,0,1,2021-08-16 12:31:52,839362
-2,-1,-1,-3,0,-1,-2,-2,2021-08-16 12:31:52,839362
-2,-1,-2,-2,-3,-2,-1,-3,2021-08-16 12:31:52,839362
1,1,0,2,-1,2,1,2,2021-08-16 12:31:52,839362
0,-1,-1,-2,-3,-6,-3,-1,2021-08-16 12:31:52,871365
2,0,0,2,1,2,3,0,2021-08-16 12:31:52,871365
-2,-3,0,1,-1,-3,-2,0,2021-08-16 12:31:52,871365
-2,-2,-2,-2,0,-2,0,-2,2021-08-16 12:31:52,871365
0,-1,-1,-1,-1,0,-3,-1,2021-08-16 12:31:52,887361
0,-1,0,-2,0,0,-2,-1,2021-08-16 12:31:52,887361
1,1,1,-2,0,-1,-1,1,2021-08-16 12:31:52,887361
0,0,-1,-2,-2,-1,-2,0,2021-08-16 12:31:52,887361
-2,-1,-2,-1,-3,-6,-1,-2,2021-08-16 12:31:52,902363
-1,-2,0,1,0,-1,1,-1,2021-08-16 12:31:52,902363
-1,0,-1,-1,0,0,-1,0,2021-08-16 12:31:52,902363
0,-1,-1,0,0,-3,-3,0,2021-08-16 12:31:52,917362
-2,0,-2,0,-1,0,2,0,2021-08-16 12:31:52,933363
0,0,-1,0,-2,2,0,-2,2021-08-16 12:31:52,949363
-1,0,-2,-1,1,-3,1,1,2021-08-16 12:31:52,965362
-3,0,-2,-3,-2,-2,1,0,2021-08-16 12:31:52,965362
-1,-2,0,1,1,4,-2,-1,2021-08-16 12:31:52,981363
1,0,0,0,0,0,1,0,2021-08-16 12:31:52,981363
1,-3,0,-2,0,1,-3,-2,2021-08-16 12:31:52,981363
-1,0,-1,-1,-2,0,-1,-3,2021-08-16 12:31:52,981363
2,-1,-1,-1,0,-3,0,0,2021-08-16 12:31:52,981363
-3,0,0,-2,-1,-3,-1,-2,2021-08-16 12:31:52,981363
0,0,-1,-2,1,-1,-4,1,2021-08-16 12:31:52,982366
-2,-1,-1,-1,0,-1,0,-1,2021-08-16 12:31:52,982366
-1,0,0,-2,-1,-1,-2,0,2021-08-16 12:31:52,996363
0,1,-1,-1,-3,-2,-1,-1,2021-08-16 12:31:52,996363
-3,0,-3,-1,-1,-2,-2,-1,2021-08-16 12:31:52,996363
1,0,0,1,1,2,-2,1,2021-08-16 12:31:52,996363
-2,-1,-2,-3,-2,-3,0,-2,2021-08-16 12:31:53,012365
-2,-1,-3,-2,-2,-3,-1,-2,2021-08-16 12:31:53,012365
1,0,1,2,-1,0,1,3,2021-08-16 12:31:53,012365
0,-1,-2,1,-1,3,2,-3,2021-08-16 12:31:53,012365
-2,-1,-1,-1,-2,-1,-1,-2,2021-08-16 12:31:53,028362
-1,-2,-1,-1,-3,-1,0,0,2021-08-16 12:31:53,028362
-2,-1,-2,-3,-3,-3,-3,-4,2021-08-16 12:31:53,028362
0,-1,0,-1,1,2,-1,0,2021-08-16 12:31:53,028362
-2,-2,0,-1,0,0,0,-1,2021-08-16 12:31:53,044362
2,0,1,1,0,4,-2,0,2021-08-16 12:31:53,044362
-2,-3,-1,-4,-3,-5,-3,0,2021-08-16 12:31:53,076362
-1,0,-3,-1,1,3,2,1,2021-08-16 12:31:53,092364
0,0,-2,-2,-1,-4,-3,-1,2021-08-16 12:31:53,092364
-1,-1,0,-1,-1,-1,-2,0,2021-08-16 12:31:53,092364
-1,-1,0,0,-1,2,3,0,2021-08-16 12:31:53,092364
-3,-3,-2,-5,-5,-11,-5,-3,2021-08-16 12:31:53,093365
0,0,1,2,5,10,3,2,2021-08-16 12:31:53,093365
-2,-2,-2,-1,-1,-2,1,0,2021-08-16 12:31:53,093365
0,2,1,2,1,3,-1,0,2021-08-16 12:31:53,093365
-1,-1,0,-1,-2,-1,-1,-2,2021-08-16 12:31:53,093365
-1,-1,-2,-2,-4,-7,-2,-3,2021-08-16 12:31:53,108363
0,-2,-1,-3,2,-1,-2,1,2021-08-16 12:31:53,108363
-1,-2,-1,-1,0,2,1,-3,2021-08-16 12:31:53,108363
-1,-1,-2,-1,-1,-5,0,1,2021-08-16 12:31:53,108363
-1,-2,0,-1,-1,-3,-3,-1,2021-08-16 12:31:53,140363
-1,1,-1,1,1,1,0,-1,2021-08-16 12:31:53,140363
-2,-1,-2,-2,0,-3,-2,-3,2021-08-16 12:31:53,140363
2,0,-1,-2,-2,2,-1,0,2021-08-16 12:31:53,140363
0,-1,-2,-2,-1,-2,0,-1,2021-08-16 12:31:53,140363
-1,-3,-1,-2,-2,0,1,-1,2021-08-16 12:31:53,141364
-1,1,0,-1,2,0,-3,-1,2021-08-16 12:31:53,141364
-2,0,1,1,0,-1,0,-1,2021-08-16 12:31:53,141364
-2,-1,-1,-1,-1,1,0,0,2021-08-16 12:31:53,172363
-1,-1,-2,-1,-2,-1,-1,-1,2021-08-16 12:31:53,172363
-1,-2,-2,-1,-2,-2,1,-1,2021-08-16 12:31:53,172363
-3,0,0,0,0,-2,-2,-2,2021-08-16 12:31:53,172363
-1,-1,0,1,-1,1,1,0,2021-08-16 12:31:53,188362
-2,-1,-3,0,-1,-3,-1,-1,2021-08-16 12:31:53,219363
0,0,-1,-1,0,1,0,1,2021-08-16 12:31:53,219363
-1,0,0,-2,-1,-3,-1,-1,2021-08-16 12:31:53,219363
-1,-1,-2,-1,-5,-9,-5,-1,2021-08-16 12:31:53,219363
1,1,0,1,5,10,3,-1,2021-08-16 12:31:53,219363
-1,-2,-3,-1,-1,-1,2,0,2021-08-16 12:31:53,220365
0,0,-1,1,-1,1,-5,0,2021-08-16 12:31:53,220365
-1,-1,0,-1,-3,2,3,-1,2021-08-16 12:31:53,220365
-2,-1,1,0,0,-3,-4,-2,2021-08-16 12:31:53,220365
-1,-2,1,2,1,2,-1,-1,2021-08-16 12:31:53,220365
-1,0,-3,-2,-1,1,0,-1,2021-08-16 12:31:53,220365
-2,-1,-2,1,-2,-3,-1,0,2021-08-16 12:31:53,250365
-1,-1,-1,-2,-2,-5,-3,-1,2021-08-16 12:31:53,250365
-2,-1,0,0,1,2,-1,-1,2021-08-16 12:31:53,250365
0,-1,-1,0,-1,1,-1,0,2021-08-16 12:31:53,266364
0,0,-3,-2,0,-1,-2,-3,2021-08-16 12:31:53,266364
-2,-2,-3,-2,-2,-3,-1,-2,2021-08-16 12:31:53,266364
-1,1,0,-1,-3,-4,-2,-2,2021-08-16 12:31:53,267365
-1,0,-2,0,0,1,1,-1,2021-08-16 12:31:53,267365
0,-1,-1,-1,-2,-4,-2,-1,2021-08-16 12:31:53,282364
-1,-1,-1,-2,1,6,2,-1,2021-08-16 12:31:53,298364
0,-2,-2,-1,-2,-2,-3,-2,2021-08-16 12:31:53,298364
0,-1,-1,0,-1,-3,0,-2,2021-08-16 12:31:53,313364
0,-1,0,-1,2,1,-2,0,2021-08-16 12:31:53,329362
-3,-2,-1,-1,-1,-1,1,1,2021-08-16 12:31:53,329362
0,-2,-1,-1,-2,-3,-2,-1,2021-08-16 12:31:53,329362
0,0,0,-2,0,0,0,-1,2021-08-16 12:31:53,329362
0,0,-2,-1,-3,-4,-2,-2,2021-08-16 12:31:53,376363
0,2,0,-2,-2,1,-1,-1,2021-08-16 12:31:53,376363
-2,-1,-1,0,0,1,0,1,2021-08-16 12:31:53,376363
0,-1,-1,-1,-2,-2,-1,-1,2021-08-16 12:31:53,392366
0,0,0,-1,-2,0,-1,1,2021-08-16 12:31:53,392366
1,0,-1,-2,-2,-4,-2,-1,2021-08-16 12:31:53,392366
-1,-2,-1,-1,-2,-2,1,-1,2021-08-16 12:31:53,392366
0,-1,0,-1,0,-1,-2,0,2021-08-16 12:31:53,393364
-1,-1,-1,-1,-1,1,1,-1,2021-08-16 12:31:53,393364
0,-2,0,-2,-1,-2,0,-1,2021-08-16 12:31:53,393364
-1,0,-1,-2,-1,-1,-2,0,2021-08-16 12:31:53,393364
-2,-1,1,-2,-2,-2,-3,-2,2021-08-16 12:31:53,393364
-1,0,0,0,-2,-4,0,-1,2021-08-16 12:31:53,394366
2,1,0,2,3,7,3,2,2021-08-16 12:31:53,394366
-1,-1,-2,0,-4,-6,2,-1,2021-08-16 12:31:53,394366
-1,0,1,1,2,4,-1,0,2021-08-16 12:31:53,395365
1,1,-2,-1,-2,-2,0,-1,2021-08-16 12:31:53,408364
-1,-1,-1,-1,0,-1,-4,-2,2021-08-16 12:31:53,408364
0,1,-1,0,-1,0,0,-1,2021-08-16 12:31:53,424363
-1,-1,-3,-1,-3,-1,0,-2,2021-08-16 12:31:53,424363
0,-1,1,-1,-1,0,0,-1,2021-08-16 12:31:53,440363
-3,-1,-1,-1,-3,-6,-4,0,2021-08-16 12:31:53,440363
-1,0,-1,-1,0,3,0,-2,2021-08-16 12:31:53,440363
-2,-1,1,-2,-3,-3,-2,-1,2021-08-16 12:31:53,456362
-2,0,-2,-1,2,3,-1,-2,2021-08-16 12:31:53,456362
-3,-1,-2,-1,-1,0,1,0,2021-08-16 12:31:53,456362
-3,-2,-1,-1,-2,-1,-2,-1,2021-08-16 12:31:53,456362
-1,0,0,-1,0,2,2,1,2021-08-16 12:31:53,456362
-1,-2,0,0,0,-2,-2,-1,2021-08-16 12:31:53,472363
-2,-1,-1,0,-4,-8,-4,-4,2021-08-16 12:31:53,472363
0,-1,-1,1,1,5,1,-1,2021-08-16 12:31:53,472363
0,0,-1,-1,-1,-2,-1,0,2021-08-16 12:31:53,472363
-3,-1,-1,-1,0,0,-1,-3,2021-08-16 12:31:53,488364
1,0,0,-2,0,-1,2,0,2021-08-16 12:31:53,488364
-2,-1,-3,-3,-1,-2,-4,-2,2021-08-16 12:31:53,504365
0,0,-1,0,-1,0,-1,1,2021-08-16 12:31:53,504365
-2,-2,-3,-1,-2,-5,-2,0,2021-08-16 12:31:53,504365
-2,-2,0,-1,0,4,2,0,2021-08-16 12:31:53,504365
0,0,1,0,0,-1,-2,-2,2021-08-16 12:31:53,505365
0,-1,2,0,0,-1,-1,-2,2021-08-16 12:31:53,505365
-1,-1,0,-2,-3,1,0,-1,2021-08-16 12:31:53,552362
0,0,-2,-1,-5,-3,-5,-3,2021-08-16 12:31:53,568363
0,-1,-1,0,0,-3,-2,2,2021-08-16 12:31:53,584364
-1,-1,-2,-2,-1,-4,0,-2,2021-08-16 12:31:53,584364
0,1,0,1,3,2,1,1,2021-08-16 12:31:53,584364
-2,-2,-2,-1,1,0,-1,-1,2021-08-16 12:31:53,584364
0,-1,0,0,0,0,0,0,2021-08-16 12:31:53,585364
-1,-2,-2,-2,-2,-4,-4,-2,2021-08-16 12:31:53,600363
1,-2,-3,0,-2,-1,-2,1,2021-08-16 12:31:53,616362
1,0,0,0,0,0,0,0,2021-08-16 12:31:53,616362
-1,-2,0,-1,-1,-4,-1,-3,2021-08-16 12:31:53,616362
-1,-2,-3,1,-2,-2,0,0,2021-08-16 12:31:53,616362
-2,0,-1,-3,-1,0,-3,-1,2021-08-16 12:31:53,616362
-2,-2,-1,-1,-2,-2,-2,0,2021-08-16 12:31:53,617364
1,0,-1,0,3,2,2,1,2021-08-16 12:31:53,617364
0,-2,0,-1,-2,0,-2,0,2021-08-16 12:31:53,617364
0,1,-1,0,0,-1,1,-1,2021-08-16 12:31:53,631363
0,-1,-1,2,0,2,0,0,2021-08-16 12:31:53,647362
-1,0,-1,-1,-2,-3,-4,-2,2021-08-16 12:31:53,663364
0,0,0,2,1,3,0,1,2021-08-16 12:31:53,663364
-3,-1,-1,-2,-1,-2,0,0,2021-08-16 12:31:53,678364
-2,1,1,-1,-1,-2,-2,1,2021-08-16 12:31:53,678364
0,-1,0,-1,-1,0,0,0,2021-08-16 12:31:53,678364
-1,0,-1,-1,2,-1,-2,-1,2021-08-16 12:31:53,679363
-1,-3,-1,0,-1,0,-3,-2,2021-08-16 12:31:53,694364
1,-2,-2,0,-2,-6,0,-1,2021-08-16 12:31:53,694364
0,-1,0,1,2,5,3,1,2021-08-16 12:31:53,694364
-1,0,0,-1,0,-1,-2,0,2021-08-16 12:31:53,694364
0,-1,0,0,1,0,0,-1,2021-08-16 12:31:53,709365
-2,-2,-1,-1,-2,-1,-3,-3,2021-08-16 12:31:53,709365
-2,0,0,0,-3,-4,-5,-2,2021-08-16 12:31:53,709365
-2,-1,-1,-1,-2,2,3,1,2021-08-16 12:31:53,709365
0,1,2,1,2,2,1,1,2021-08-16 12:31:53,710364
0,-1,-1,0,-2,0,-2,-3,2021-08-16 12:31:53,710364
-1,-1,-2,0,-1,-2,-2,-1,2021-08-16 12:31:53,725364
0,0,-2,-1,-1,0,2,-1,2021-08-16 12:31:53,741363
-1,-1,-2,-3,-4,-1,0,-3,2021-08-16 12:31:53,772362
0,1,1,0,3,5,1,3,2021-08-16 12:31:53,772362
0,-2,-1,-2,-2,-1,0,0,2021-08-16 12:31:53,772362
0,-2,-1,-2,-2,-4,-1,-1,2021-08-16 12:31:53,772362
0,0,-1,0,2,5,4,2,2021-08-16 12:31:53,772362
-1,-2,-2,-2,-4,-8,-2,-2,2021-08-16 12:31:53,773366
0,0,-1,-1,1,-2,-3,-1,2021-08-16 12:31:53,773366
-1,-3,1,-1,1,3,-1,-2,2021-08-16 12:31:53,773366
2,-1,-1,0,-2,0,1,-1,2021-08-16 12:31:53,788366
0,-1,0,-1,-2,-2,-1,-1,2021-08-16 12:31:53,788366
-3,-2,-1,-2,-4,-3,1,-3,2021-08-16 12:31:53,788366
1,1,0,2,2,1,-2,0,2021-08-16 12:31:53,788366
-3,-1,-1,-2,-1,-3,-3,-3,2021-08-16 12:31:53,789367
0,0,0,-1,3,5,2,1,2021-08-16 12:31:53,789367
-1,0,-1,-1,-2,2,0,-1,2021-08-16 12:31:53,789367
-2,-1,0,0,0,0,1,0,2021-08-16 12:31:53,789367
-1,-3,-2,-1,-1,-1,0,-2,2021-08-16 12:31:53,789367
-1,-1,0,-2,0,1,-1,-1,2021-08-16 12:31:53,790364
-2,-1,-1,-1,-2,-3,-4,-2,2021-08-16 12:31:53,790364
-3,-2,-1,0,-2,-1,0,-1,2021-08-16 12:31:53,790364
1,-1,0,-1,0,-3,-3,-1,2021-08-16 12:31:53,820364
-2,-3,-2,-1,-2,-3,0,-3,2021-08-16 12:31:53,836364
-1,-2,-1,-1,0,2,-1,-2,2021-08-16 12:31:53,852363
0,0,-2,-2,-1,-3,-1,-1,2021-08-16 12:31:53,852363
-1,-1,-1,-1,0,-3,-1,0,2021-08-16 12:31:53,852363
-1,1,-1,-1,0,-1,0,-1,2021-08-16 12:31:53,868364
-1,0,-3,-1,-2,0,1,0,2021-08-16 12:31:53,868364
-3,0,-2,-1,-2,-3,-2,-2,2021-08-16 12:31:53,868364
-3,1,-1,-2,-3,-3,-1,1,2021-08-16 12:31:53,868364
1,0,0,0,1,0,-1,1,2021-08-16 12:31:53,868364
1,-2,-1,-2,-1,-2,-1,-2,2021-08-16 12:31:53,869363
-1,-1,-1,-2,-3,-4,-2,-3,2021-08-16 12:31:53,869363
1,1,1,1,2,4,3,4,2021-08-16 12:31:53,869363
1,-1,0,1,-1,4,2,1,2021-08-16 12:31:53,869363
-1,-1,-2,-2,-1,1,0,-1,2021-08-16 12:31:53,884364
1,0,-1,-2,-3,-3,-2,-2,2021-08-16 12:31:53,884364
-1,-2,0,1,3,6,2,-2,2021-08-16 12:31:53,899366
-1,-1,-1,-2,-4,-7,-3,-3,2021-08-16 12:31:53,915363
-1,-1,0,-1,-1,1,-1,0,2021-08-16 12:31:53,915363
-1,-2,-1,-2,-2,-2,-1,0,2021-08-16 12:31:53,915363
-1,-1,-2,-2,-2,-2,-2,-1,2021-08-16 12:31:53,915363
-1,-3,0,2,-2,-1,2,-1,2021-08-16 12:31:53,915363
-2,-1,-1,1,-1,-3,-1,-1,2021-08-16 12:31:53,931363
0,-2,0,0,0,-1,-2,0,2021-08-16 12:31:53,947368
-1,-1,0,-3,-2,-4,-2,-1,2021-08-16 12:31:53,947368
-1,0,0,-2,0,-1,-4,0,2021-08-16 12:31:53,963362
2,-2,0,-2,-1,-1,2,-1,2021-08-16 12:31:53,979365
-1,0,0,0,0,2,-1,-1,2021-08-16 12:31:53,979365
0,-1,-1,-2,-1,-2,-4,-3,2021-08-16 12:31:53,979365
-2,0,-1,-1,0,-1,-1,-2,2021-08-16 12:31:53,979365
-4,-2,0,0,-1,1,1,0,2021-08-16 12:31:54,011364
0,0,-2,0,1,-1,0,1,2021-08-16 12:31:54,042365
0,-3,-2,1,0,0,-1,-2,2021-08-16 12:31:54,042365
-2,-1,-2,-2,-2,-4,-2,-2,2021-08-16 12:31:54,042365
1,0,-1,0,-2,-3,3,1,2021-08-16 12:31:54,042365
-1,0,1,1,1,4,-1,0,2021-08-16 12:31:54,042365
-2,-1,1,0,-3,-4,-2,-1,2021-08-16 12:31:54,043365
0,-1,-1,-1,0,-1,-1,-2,2021-08-16 12:31:54,043365
-1,-2,-1,-1,0,-1,0,-1,2021-08-16 12:31:54,043365
-1,-1,-1,-1,0,-2,0,-2,2021-08-16 12:31:54,043365
-1,0,-2,-1,-1,0,-2,-1,2021-08-16 12:31:54,043365
-1,0,-1,-2,-1,2,-1,1,2021-08-16 12:31:54,044365
-1,-2,-2,-2,0,-2,-2,-2,2021-08-16 12:31:54,044365
-1,-2,0,0,-1,-1,1,1,2021-08-16 12:31:54,044365
-2,-1,0,0,0,-1,-4,-1,2021-08-16 12:31:54,044365
-1,-1,-2,1,-1,-2,1,1,2021-08-16 12:31:54,058364
-2,-1,-2,-1,1,-2,-2,-1,2021-08-16 12:31:54,058364
1,0,-1,-2,-2,0,-1,1,2021-08-16 12:31:54,074363
-1,1,-2,-2,-1,-3,-1,-2,2021-08-16 12:31:54,074363
-1,-1,1,-3,-2,0,-1,-1,2021-08-16 12:31:54,078363
-1,1,0,0,0,-2,-2,-1,2021-08-16 12:31:54,078363
-2,-2,0,0,2,2,1,0,2021-08-16 12:31:54,079364
-1,-1,-2,0,-1,-2,0,-2,2021-08-16 12:31:54,079364
-1,-1,-1,1,1,2,-1,1,2021-08-16 12:31:54,079364
0,0,0,1,-1,-1,-1,0,2021-08-16 12:31:54,080366
-1,-1,-1,0,-2,-2,-2,-3,2021-08-16 12:31:54,080366
-2,0,-2,0,0,1,1,-2,2021-08-16 12:31:54,106364
-1,-2,-3,-1,-2,-3,0,-1,2021-08-16 12:31:54,106364
1,-1,-1,0,-2,1,-3,0,2021-08-16 12:31:54,106364
0,-3,-1,-1,-1,1,1,-1,2021-08-16 12:31:54,106364
1,-1,-2,-2,-1,-3,-1,0,2021-08-16 12:31:54,107366
-1,0,-1,-2,-1,-1,0,-2,2021-08-16 12:31:54,107366
-1,-2,-1,-3,-2,-4,-2,-2,2021-08-16 12:31:54,107366
-1,-1,0,-2,1,3,0,-2,2021-08-16 12:31:54,121367
0,0,2,0,-1,0,-1,1,2021-08-16 12:31:54,137364
-1,-1,0,0,0,-1,-1,-1,2021-08-16 12:31:54,137364
0,0,-1,0,-1,-1,-2,-1,2021-08-16 12:31:54,137364
-1,-1,-3,-2,-1,-2,-1,0,2021-08-16 12:31:54,153364
-1,-1,-1,0,0,0,1,0,2021-08-16 12:31:54,153364
-1,1,-2,-1,1,-1,-3,-1,2021-08-16 12:31:54,153364
-1,-1,-1,-1,-1,0,0,0,2021-08-16 12:31:54,153364
-3,0,-2,-2,-3,-2,0,-1,2021-08-16 12:31:54,153364
0,-2,-2,-1,-1,1,0,-1,2021-08-16 12:31:54,184364
-1,-1,-1,-1,-1,-1,2,-1,2021-08-16 12:31:54,184364
0,-1,0,1,0,1,-3,-2,2021-08-16 12:31:54,184364
0,-1,-2,-1,-2,-2,-2,-1,2021-08-16 12:31:54,184364
-2,-1,1,-1,-1,-1,-1,-2,2021-08-16 12:31:54,199362
0,-1,-2,-2,-3,-2,0,-2,2021-08-16 12:31:54,199362
-1,-1,-1,1,0,1,-1,-1,2021-08-16 12:31:54,199362
1,-1,0,0,-2,0,0,0,2021-08-16 12:31:54,199362
-2,-1,0,0,0,-4,-1,0,2021-08-16 12:31:54,215363
0,-1,-1,2,1,-2,-2,-1,2021-08-16 12:31:54,231364
-2,-2,-1,-2,-1,-2,0,-1,2021-08-16 12:31:54,231364
0,1,2,-2,0,-1,-1,-1,2021-08-16 12:31:54,247367
1,-3,-2,0,-1,0,0,-1,2021-08-16 12:31:54,247367
0,-1,-1,-1,0,1,-1,0,2021-08-16 12:31:54,263362
0,-2,-1,-1,0,-2,0,1,2021-08-16 12:31:54,263362
-1,0,0,0,-1,-2,-1,0,2021-08-16 12:31:54,279363
-2,-1,-1,-2,-1,0,1,-1,2021-08-16 12:31:54,279363
-1,-1,0,-1,0,1,-1,0,2021-08-16 12:31:54,279363
-1,-1,-3,-1,-3,-2,-1,-2,2021-08-16 12:31:54,279363
1,-1,-2,0,0,2,0,1,2021-08-16 12:31:54,295363
0,-2,-1,0,0,-1,-1,0,2021-08-16 12:31:54,295363
-1,-1,-1,0,-1,-1,-1,-1,2021-08-16 12:31:54,295363
0,0,0,-1,-1,-3,0,1,2021-08-16 12:31:54,311364
-2,-1,-1,0,0,-2,-1,-2,2021-08-16 12:31:54,311364
-2,-2,-1,0,0,0,-2,-1,2021-08-16 12:31:54,311364
-1,-2,0,0,0,-1,-1,0,2021-08-16 12:31:54,311364
-2,0,-1,0,-3,-1,-2,-2,2021-08-16 12:31:54,311364
0,0,0,2,1,4,2,0,2021-08-16 12:31:54,312365
-1,0,-1,0,-2,0,-1,1,2021-08-16 12:31:54,312365
0,-1,-3,-3,-3,0,-2,-1,2021-08-16 12:31:54,312365
-2,-1,0,0,0,-1,0,1,2021-08-16 12:31:54,312365
0,-2,1,-1,-3,-5,-1,-3,2021-08-16 12:31:54,313365
-2,0,0,-1,0,-2,-2,0,2021-08-16 12:31:54,343365
-1,-1,0,0,-2,0,-2,0,2021-08-16 12:31:54,343365
-2,-1,0,0,0,1,0,0,2021-08-16 12:31:54,359365
-3,-1,-1,0,-1,-1,-1,-2,2021-08-16 12:31:54,375365
-1,0,-1,1,0,2,2,0,2021-08-16 12:31:54,375365
0,-1,0,1,-2,-4,2,-1,2021-08-16 12:31:54,375365
2,-2,-1,-1,1,0,-1,0,2021-08-16 12:31:54,375365
-1,-1,-3,-1,-2,-3,-3,-3,2021-08-16 12:31:54,375365
0,-1,-2,-3,-4,-6,-3,-5,2021-08-16 12:31:54,376365
0,-1,-2,0,2,5,4,4,2021-08-16 12:31:54,376365
-1,1,0,0,-1,0,-1,-2,2021-08-16 12:31:54,391365
-1,0,-2,-1,-2,-3,-1,-1,2021-08-16 12:31:54,391365
-1,-1,-1,0,-2,-4,0,-2,2021-08-16 12:31:54,391365
-1,-1,-2,-1,-1,-2,-2,-2,2021-08-16 12:31:54,407364
0,-2,-1,-1,-1,1,-1,0,2021-08-16 12:31:54,407364
-1,-1,-1,-2,-2,-1,0,0,2021-08-16 12:31:54,407364
0,1,0,-2,0,-1,-2,-1,2021-08-16 12:31:54,407364
-1,-1,0,-2,-1,-3,-1,-1,2021-08-16 12:31:54,408366
-3,0,-1,-1,-1,-1,1,-3,2021-08-16 12:31:54,423362
-1,-3,-2,-2,1,0,-4,-2,2021-08-16 12:31:54,423362
0,-1,0,-1,1,2,-2,0,2021-08-16 12:31:54,439364
1,-1,-2,0,-1,-2,-1,0,2021-08-16 12:31:54,455362
-1,-1,-2,-3,-1,-2,-4,-2,2021-08-16 12:31:54,471363
0,-1,0,1,1,3,2,1,2021-08-16 12:31:54,487365
0,-3,-1,-2,-2,0,1,0,2021-08-16 12:31:54,487365
-1,0,-1,-2,-1,-1,-1,0,2021-08-16 12:31:54,503364
-1,1,-1,0,-1,-2,1,-1,2021-08-16 12:31:54,503364
-1,-1,-2,0,-1,-4,-4,-1,2021-08-16 12:31:54,503364
0,0,-1,-1,-1,0,-1,1,2021-08-16 12:31:54,503364
-2,-1,-2,0,-1,-1,-1,-2,2021-08-16 12:31:54,504366
-2,0,-1,-2,-1,-1,-1,-1,2021-08-16 12:31:54,519363
0,-1,0,0,1,1,2,-1,2021-08-16 12:31:54,519363
-2,0,2,0,0,0,2,0,2021-08-16 12:31:54,519363
-1,0,0,-1,-2,-2,-1,-1,2021-08-16 12:31:54,520367
-1,-1,-1,-1,-1,2,0,1,2021-08-16 12:31:54,520367
0,-1,-1,-1,-2,-2,-1,-2,2021-08-16 12:31:54,520367
-1,-2,-1,1,-3,-4,-3,-2,2021-08-16 12:31:54,520367
-1,-1,0,-1,3,5,0,2,2021-08-16 12:31:54,521365
0,-2,-1,-1,0,-3,-1,2,2021-08-16 12:31:54,521365
-2,-1,-2,0,-3,0,-1,-2,2021-08-16 12:31:54,521365
-1,-1,-2,-1,0,1,3,1,2021-08-16 12:31:54,534363
-1,0,-1,-1,-2,-4,0,-2,2021-08-16 12:31:54,550363
0,1,-1,1,-1,1,-3,0,2021-08-16 12:31:54,550363
0,-1,-2,-2,-1,-3,-2,0,2021-08-16 12:31:54,550363
-2,-1,-1,-1,0,1,-4,-1,2021-08-16 12:31:54,550363
-1,-2,0,1,-1,-1,-1,-1,2021-08-16 12:31:54,551365
0,0,-2,-1,-1,0,2,0,2021-08-16 12:31:54,551365
0,0,0,-1,-1,-1,0,0,2021-08-16 12:31:54,551365
0,0,-2,-2,0,-1,-1,-1,2021-08-16 12:31:54,582367
1,0,-1,-1,-3,-2,-3,-3,2021-08-16 12:31:54,598365
-3,-2,-1,0,-2,-2,-2,-3,2021-08-16 12:31:54,614364
2,1,-1,1,1,3,5,7,2021-08-16 12:31:54,614364
-2,-2,0,0,1,-1,2,0,2021-08-16 12:31:54,614364
-1,-2,0,1,-4,-1,-4,-2,2021-08-16 12:31:54,630365
-1,-3,-2,-1,0,1,1,-2,2021-08-16 12:31:54,630365
-1,0,-1,-1,-2,-3,-3,-1,2021-08-16 12:31:54,646362
-1,-1,-1,-1,-2,-3,-2,-3,2021-08-16 12:31:54,662363
-3,0,-1,-2,0,0,1,-1,2021-08-16 12:31:54,662363
0,-1,-1,-1,-1,-2,-1,-3,2021-08-16 12:31:54,662363
-1,-2,-1,-1,0,-1,-2,0,2021-08-16 12:31:54,662363
0,-3,-3,-2,-2,-1,-2,-2,2021-08-16 12:31:54,678363
-2,-1,-2,-2,-1,-2,-1,1,2021-08-16 12:31:54,678363
0,-2,-1,-1,-1,0,-2,0,2021-08-16 12:31:54,678363
-2,-2,-1,-2,0,0,-1,-3,2021-08-16 12:31:54,678363
-1,1,0,0,-1,-2,-1,-1,2021-08-16 12:31:54,679366
-1,-1,-1,-1,1,1,-1,0,2021-08-16 12:31:54,679366
1,-1,0,-1,-2,0,-1,0,2021-08-16 12:31:54,679366
0,-1,0,-1,-2,-1,-3,-1,2021-08-16 12:31:54,679366
-1,-1,0,1,-2,-2,-2,-1,2021-08-16 12:31:54,679366
1,0,0,0,1,3,5,2,2021-08-16 12:31:54,680367
-2,0,0,0,-1,-1,0,0,2021-08-16 12:31:54,680367
-1,1,-1,-1,-1,0,0,-1,2021-08-16 12:31:54,680367
0,-1,0,0,-3,1,-3,-3,2021-08-16 12:31:54,708364
-2,-3,0,0,-1,-6,-1,-1,2021-08-16 12:31:54,708364
0,1,0,2,-1,1,-1,1,2021-08-16 12:31:54,708364
0,-2,-1,-1,-1,-1,-2,-4,2021-08-16 12:31:54,708364
0,1,1,-2,0,0,1,0,2021-08-16 12:31:54,709364
0,-1,-1,-1,-2,0,-1,0,2021-08-16 12:31:54,709364
-3,-3,-2,-1,-1,-1,-2,-2,2021-08-16 12:31:54,724364
-2,0,-1,-2,-2,-1,-2,-1,2021-08-16 12:31:54,724364
1,-1,0,-1,0,1,1,1,2021-08-16 12:31:54,740364
0,-2,-1,-2,-2,-3,-3,-2,2021-08-16 12:31:54,740364
0,-1,-4,-2,-1,-2,-1,-1,2021-08-16 12:31:54,740364
0,-1,0,0,0,-2,0,0,2021-08-16 12:31:54,741365
-2,0,-3,0,-1,-2,-3,0,2021-08-16 12:31:54,756364
0,0,-1,-1,0,1,1,2,2021-08-16 12:31:54,756364
0,-1,-1,-2,-1,-1,-1,-1,2021-08-16 12:31:54,772363
0,-1,0,-2,-2,1,0,-1,2021-08-16 12:31:54,788364
-1,0,-1,0,-1,2,0,-1,2021-08-16 12:31:54,788364
0,-2,1,0,0,-1,-2,-3,2021-08-16 12:31:54,803364
-1,-1,0,-1,-2,-2,0,0,2021-08-16 12:31:54,819365
0,-1,-2,-1,-2,-1,-1,-1,2021-08-16 12:31:54,819365
-2,-2,-1,-1,-2,0,-2,-1,2021-08-16 12:31:54,835365
-1,-2,-2,-1,0,-1,0,-1,2021-08-16 12:31:54,839364
-2,-2,-1,-1,-1,-2,1,-1,2021-08-16 12:31:54,839364
-1,0,-1,-1,-1,1,-2,1,2021-08-16 12:31:54,840364
0,0,-1,1,-1,-1,-1,-1,2021-08-16 12:31:54,840364
-2,0,-2,0,-1,0,0,-3,2021-08-16 12:31:54,840364
0,0,1,1,0,0,3,1,2021-08-16 12:31:54,840364
-2,-1,-1,-1,-1,-2,-1,-1,2021-08-16 12:31:54,840364
0,-1,-1,-2,0,0,0,-2,2021-08-16 12:31:54,850365
-1,0,-1,-1,-1,-1,-2,-1,2021-08-16 12:31:54,850365
-2,0,0,-3,-2,-1,-4,-1,2021-08-16 12:31:54,850365
-2,-2,-2,-2,-1,-1,-1,-1,2021-08-16 12:31:54,850365
-2,-1,-2,-1,0,-3,0,0,2021-08-16 12:31:54,851366
-1,0,0,-2,-1,0,-3,0,2021-08-16 12:31:54,851366
-1,0,-2,1,1,2,-2,-1,2021-08-16 12:31:54,851366
-1,-1,-2,1,0,-2,-1,-1,2021-08-16 12:31:54,851366
0,0,-3,1,-1,-1,-1,0,2021-08-16 12:31:54,882364
0,-1,-2,-1,-3,-3,-2,-1,2021-08-16 12:31:54,898366
0,0,0,2,-1,-2,-4,-3,2021-08-16 12:31:54,914362
-1,-1,1,0,1,2,3,1,2021-08-16 12:31:54,930365
-2,-1,0,0,-1,1,0,-3,2021-08-16 12:31:54,930365
-1,0,0,1,-1,-1,-1,-1,2021-08-16 12:31:54,930365
0,-2,-2,-1,-1,-2,-4,-2,2021-08-16 12:31:54,946363
-1,-1,-2,-2,0,0,-2,-2,2021-08-16 12:31:54,946913
0,-2,0,-1,1,-1,-2,0,2021-08-16 12:31:54,961414
0,-2,-2,-1,0,-2,0,-2,2021-08-16 12:31:54,961414
-1,0,-1,-1,0,0,2,0,2021-08-16 12:31:54,961414
0,-1,0,-2,0,2,1,-1,2021-08-16 12:31:54,961414
1,-1,0,0,-3,-2,-1,0,2021-08-16 12:31:54,961414
0,-2,-1,-3,0,0,0,0,2021-08-16 12:31:54,962415
-1,-1,0,-3,0,0,0,0,2021-08-16 12:31:54,977414
-1,-1,1,0,-2,-2,-2,-1,2021-08-16 12:31:54,993415
-1,-1,0,-1,0,-1,-1,-1,2021-08-16 12:31:55,009414
-2,-1,-1,0,-1,-3,-2,-1,2021-08-16 12:31:55,009414
-2,-1,0,-1,-2,-2,-1,0,2021-08-16 12:31:55,041417
-3,-1,-3,0,-2,-2,-1,-2,2021-08-16 12:31:55,041417
-1,1,0,-1,0,0,1,0,2021-08-16 12:31:55,041417
-1,0,0,-1,0,1,-1,0,2021-08-16 12:31:55,041417
-1,1,-1,-1,-2,-1,-2,-2,2021-08-16 12:31:55,042416
0,-2,-1,-1,-3,-1,-1,-2,2021-08-16 12:31:55,042416
0,-1,1,-1,-2,-2,-1,-1,2021-08-16 12:31:55,057413
0,-1,0,-2,-1,1,0,0,2021-08-16 12:31:55,057413
-2,-3,-1,-1,0,-1,-1,-3,2021-08-16 12:31:55,057413
1,-1,-2,0,0,-2,-1,1,2021-08-16 12:31:55,057413
0,0,-1,-1,-1,-1,-1,-2,2021-08-16 12:31:55,073418
-1,-1,0,-1,-1,1,1,-1,2021-08-16 12:31:55,073418
-1,-1,-1,0,-1,0,-1,0,2021-08-16 12:31:55,073418
-2,-1,0,-1,0,-2,-1,-1,2021-08-16 12:31:55,074415
0,0,0,-3,0,-1,1,1,2021-08-16 12:31:55,074415
-1,0,-1,0,0,-1,-2,0,2021-08-16 12:31:55,074415
0,0,1,0,0,-2,-1,-2,2021-08-16 12:31:55,105415
0,0,0,-1,1,-1,-1,-2,2021-08-16 12:31:55,105415
-1,-2,-2,-2,-2,-1,-3,-2,2021-08-16 12:31:55,105415
0,0,-2,-1,-1,-2,-1,2,2021-08-16 12:31:55,105415
-1,-2,-2,-1,-2,-1,1,-1,2021-08-16 12:31:55,106417
-1,-2,0,0,-1,0,-2,-1,2021-08-16 12:31:55,106417
1,0,0,1,-2,-1,-2,0,2021-08-16 12:31:55,106417
-3,0,-1,-1,-1,-1,-1,-1,2021-08-16 12:31:55,106417
1,0,-2,0,0,-2,-1,2,2021-08-16 12:31:55,106417
-1,0,-2,0,0,-1,1,-1,2021-08-16 12:31:55,107415
-1,-1,-2,-1,-1,1,1,-1,2021-08-16 12:31:55,107415
0,-2,-1,0,-2,1,1,-1,2021-08-16 12:31:55,107415
-2,-1,1,0,-1,-1,-1,0,2021-08-16 12:31:55,107415
0,-2,1,0,-2,-1,-2,-1,2021-08-16 12:31:55,107415
-2,-2,0,-1,-1,-1,1,1,2021-08-16 12:31:55,121412
-3,0,0,0,-3,-3,-4,-2,2021-08-16 12:31:55,137414
2,-1,0,1,1,1,-3,2,2021-08-16 12:31:55,137414
-1,0,-2,-1,-3,3,2,-1,2021-08-16 12:31:55,137414
-2,-1,-1,-1,-2,1,1,0,2021-08-16 12:31:55,138417
1,0,0,-1,-2,-2,-1,-1,2021-08-16 12:31:55,138417
-1,-2,-2,0,-3,-3,-4,-3,2021-08-16 12:31:55,138417
0,0,-1,-1,0,-3,-1,1,2021-08-16 12:31:55,138417
-1,-1,-1,-1,-3,-2,0,-1,2021-08-16 12:31:55,153415
-1,-2,-3,-1,-1,1,-1,-1,2021-08-16 12:31:55,153415
-1,0,-3,0,0,0,1,-2,2021-08-16 12:31:55,169665
0,-3,-3,-1,0,-2,-3,0,2021-08-16 12:31:55,169665
0,0,-1,0,0,0,0,-2,2021-08-16 12:31:55,169665
-1,0,-1,0,0,-1,0,-1,2021-08-16 12:31:55,170417
-2,-1,0,-3,0,0,0,-2,2021-08-16 12:31:55,184934
-1,-2,-1,-1,-1,-1,-2,-2,2021-08-16 12:31:55,199932
-2,-1,-1,-2,1,-1,-2,-1,2021-08-16 12:31:55,199932
0,-2,-1,-1,0,0,0,-1,2021-08-16 12:31:55,199932
-1,-1,0,-1,-2,-1,2,0,2021-08-16 12:31:55,215933
-1,1,0,-1,-1,-1,-1,-1,2021-08-16 12:31:55,215933
-2,-2,-1,1,0,-1,-3,-3,2021-08-16 12:31:55,231935
0,1,0,-1,-1,-1,-1,1,2021-08-16 12:31:55,231935
-1,-2,-1,-1,-1,0,-2,-2,2021-08-16 12:31:55,231935
-1,-1,-1,-1,-1,-1,2,1,2021-08-16 12:31:55,231935
-1,-1,-2,-2,-1,-3,0,-2,2021-08-16 12:31:55,247935
1,-1,-1,1,-2,0,2,0,2021-08-16 12:31:55,247935
0,-1,-3,1,-2,-1,-1,0,2021-08-16 12:31:55,263934
1,1,-1,1,-2,-3,-2,-1,2021-08-16 12:31:55,263934
-1,-1,-1,-2,0,-1,-1,-1,2021-08-16 12:31:55,263934
-2,-3,-3,-3,0,-1,-3,-2,2021-08-16 12:31:55,263934
-1,1,-1,-2,0,0,-2,-1,2021-08-16 12:31:55,264935
-2,1,1,1,-2,0,-2,0,2021-08-16 12:31:55,264935
1,-1,-1,-1,-1,-2,-1,0,2021-08-16 12:31:55,279935
-2,-1,1,0,1,0,-1,0,2021-08-16 12:31:55,295935
2,0,-2,0,0,1,1,0,2021-08-16 12:31:55,295935
-2,-2,-2,-1,0,1,1,-2,2021-08-16 12:31:55,295935
0,0,-2,-1,-1,-1,-2,0,2021-08-16 12:31:55,311935
-1,-1,-1,-1,-1,1,-2,-2,2021-08-16 12:31:55,311935
-1,0,-1,1,-1,-1,0,0,2021-08-16 12:31:55,311935
-2,-3,-3,-1,-1,0,-3,-3,2021-08-16 12:31:55,312936
2,0,0,0,0,1,1,1,2021-08-16 12:31:55,312936
0,-1,-2,0,0,1,0,-2,2021-08-16 12:31:55,312936
-2,-2,-1,-2,-2,-3,-3,0,2021-08-16 12:31:55,327934
1,-1,1,0,1,5,1,0,2021-08-16 12:31:55,327934
0,0,-2,-1,-2,-2,-2,-2,2021-08-16 12:31:55,327934
-1,-2,-1,-3,-1,-1,-1,0,2021-08-16 12:31:55,328936
0,-2,-1,-3,-1,-3,-2,-3,2021-08-16 12:31:55,343933
0,1,0,-1,-1,-4,-4,-1,2021-08-16 12:31:55,358936
-3,-2,-1,-1,-2,0,0,-2,2021-08-16 12:31:55,374936
-1,-2,0,0,-1,-2,-3,-1,2021-08-16 12:31:55,374936
-1,-1,-1,1,0,1,2,1,2021-08-16 12:31:55,374936
-2,-1,-2,0,1,-2,-2,-1,2021-08-16 12:31:55,374936
0,-1,0,-1,0,1,-1,-1,2021-08-16 12:31:55,390933
-1,-1,-2,-2,-3,-3,-2,-1,2021-08-16 12:31:55,390933
0,0,0,-3,0,1,-2,0,2021-08-16 12:31:55,390933
1,1,-1,0,0,1,1,0,2021-08-16 12:31:55,390933
-2,-1,0,-1,0,-1,1,-1,2021-08-16 12:31:55,391938
-1,-1,-1,1,-3,-3,-1,-1,2021-08-16 12:31:55,406936
0,-1,0,-1,-2,-1,-4,-1,2021-08-16 12:31:55,422935
0,0,-1,0,0,3,3,1,2021-08-16 12:31:55,422935
-3,-1,-1,-1,0,-1,-2,0,2021-08-16 12:31:55,422935
0,1,0,-1,-1,-3,0,1,2021-08-16 12:31:55,438937
-1,-1,0,0,1,5,6,1,2021-08-16 12:31:55,438937
-1,-2,-1,-1,-2,-5,-2,-1,2021-08-16 12:31:55,438937
-1,0,-2,-1,-2,-1,-2,-1,2021-08-16 12:31:55,438937
-1,-2,-2,-1,0,2,2,-1,2021-08-16 12:31:55,439936
-1,0,-1,-1,-2,-3,-4,-1,2021-08-16 12:31:55,439936
1,-2,0,0,0,-1,-2,-1,2021-08-16 12:31:55,439936
-1,1,0,1,-2,-2,0,0,2021-08-16 12:31:55,454934
-1,-3,-2,-1,-1,0,-3,-2,2021-08-16 12:31:55,454934
-1,-1,-1,1,1,1,2,0,2021-08-16 12:31:55,454934
-3,-1,0,-1,-1,-1,-1,-1,2021-08-16 12:31:55,454934
1,-1,-2,0,0,0,2,2,2021-08-16 12:31:55,485934
0,1,-2,-2,0,-2,-2,-1,2021-08-16 12:31:55,485934
0,-1,1,1,1,1,1,-1,2021-08-16 12:31:55,485934
0,-1,-1,-1,-2,-3,0,-1,2021-08-16 12:31:55,485934
-3,-2,-1,-1,-2,-2,-3,-2,2021-08-16 12:31:55,501935
-1,1,-1,0,-1,0,1,1,2021-08-16 12:31:55,517934
-2,-2,-1,-1,-1,0,-1,-2,2021-08-16 12:31:55,517934
0,-1,-1,0,-1,-2,1,1,2021-08-16 12:31:55,517934
0,-2,1,0,-1,0,-1,0,2021-08-16 12:31:55,517934
0,-1,-2,-1,-1,-3,-2,-2,2021-08-16 12:31:55,518934
-2,-1,0,-1,-2,-4,-4,-3,2021-08-16 12:31:55,518934
-1,-1,-3,0,-1,0,-1,-1,2021-08-16 12:31:55,518934
0,-2,-1,-1,0,0,-1,-2,2021-08-16 12:31:55,548933
-1,-1,-1,1,1,2,-1,-1,2021-08-16 12:31:55,548933
-1,-1,-1,-1,-3,-2,-1,-1,2021-08-16 12:31:55,564935
0,-1,-1,1,-1,-1,-3,-1,2021-08-16 12:31:55,564935
-1,-1,-3,-1,-1,0,-1,0,2021-08-16 12:31:55,566937
-1,0,0,0,-1,-1,-2,-1,2021-08-16 12:31:55,567936
0,-1,-1,1,1,4,2,-1,2021-08-16 12:31:55,567936
0,-1,1,-3,0,-1,-2,-1,2021-08-16 12:31:55,567936
0,-1,1,-1,-1,-4,0,2,2021-08-16 12:31:55,567936
-2,-2,1,-1,-2,-1,-2,-1,2021-08-16 12:31:55,568936
-1,0,-1,0,-2,-2,-1,0,2021-08-16 12:31:55,580934
0,0,1,-1,-1,0,1,1,2021-08-16 12:31:55,580934
-2,-1,1,-1,1,1,-1,-3,2021-08-16 12:31:55,596935
-2,-1,1,-1,-2,-3,-1,-2,2021-08-16 12:31:55,596935
-1,0,2,0,-2,-3,-2,1,2021-08-16 12:31:55,611936
-2,-2,-1,-1,0,0,-1,-1,2021-08-16 12:31:55,627934
0,0,-2,0,-2,-2,-2,-1,2021-08-16 12:31:55,627934
2,-1,0,0,-2,0,2,0,2021-08-16 12:31:55,627934
-1,-2,-2,0,1,0,-3,-1,2021-08-16 12:31:55,643936
-1,-1,0,-1,-2,-3,-3,-2,2021-08-16 12:31:55,643936
-1,-1,1,-1,0,2,4,1,2021-08-16 12:31:55,659934
0,-3,-1,-1,-3,-3,0,0,2021-08-16 12:31:55,675934
0,-1,-3,0,-1,0,-2,-1,2021-08-16 12:31:55,691935
0,-3,-1,-1,-1,-1,-2,-2,2021-08-16 12:31:55,691935
-1,-1,-1,0,0,0,-3,-1,2021-08-16 12:31:55,707937
-2,0,-2,1,0,0,1,0,2021-08-16 12:31:55,723934
0,-1,-1,-2,-2,-2,-1,-2,2021-08-16 12:31:55,723934
-1,-1,0,0,-2,-2,-2,-2,2021-08-16 12:31:55,723934
0,0,-1,1,0,0,1,0,2021-08-16 12:31:55,723934
0,0,0,0,0,1,-1,0,2021-08-16 12:31:55,724937
-2,-1,0,0,-2,-1,1,0,2021-08-16 12:31:55,724937
-2,1,-1,1,0,-1,-1,0,2021-08-16 12:31:55,724937
-1,-2,0,-1,-1,-2,-5,-2,2021-08-16 12:31:55,739934
0,-1,-3,-2,1,2,1,2,2021-08-16 12:31:55,739934
0,-2,-3,-1,0,0,0,-2,2021-08-16 12:31:55,754935
-2,-2,-2,-2,-2,-1,-1,0,2021-08-16 12:31:55,754935
0,0,-1,-1,-2,-2,-1,-1,2021-08-16 12:31:55,754935
0,0,0,0,1,-1,-1,-1,2021-08-16 12:31:55,754935
-1,1,-1,-2,-2,-4,0,-1,2021-08-16 12:31:55,755936
2,-1,0,-1,-1,1,3,0,2021-08-16 12:31:55,755936
-1,-1,-2,0,-1,-1,0,0,2021-08-16 12:31:55,755936
-1,-1,-1,-3,-2,-1,-1,-1,2021-08-16 12:31:55,755936
-2,0,-2,-2,-1,2,1,1,2021-08-16 12:31:55,756937
-1,0,-1,-1,-2,-1,-2,-2,2021-08-16 12:31:55,756937
0,-1,0,-1,-1,-2,0,-1,2021-08-16 12:31:55,756937
0,-1,0,-2,-1,-1,0,1,2021-08-16 12:31:55,756937
-2,-1,-1,-1,-2,0,-2,1,2021-08-16 12:31:55,756937
-1,-2,-1,0,1,-1,0,0,2021-08-16 12:31:55,757939
-2,-1,-2,1,-2,-1,-3,-2,2021-08-16 12:31:55,785935
-2,-2,0,1,0,-1,-1,-1,2021-08-16 12:31:55,785935
-1,-1,-2,-1,-1,-3,-3,-3,2021-08-16 12:31:55,785935
-1,-1,-1,1,-1,0,3,2,2021-08-16 12:31:55,785935
-1,-1,-1,-3,1,-1,-1,-1,2021-08-16 12:31:55,801934
-2,-1,-1,0,-1,-2,-2,-1,2021-08-16 12:31:55,801934
-2,-2,-1,-2,-3,-4,-2,-2,2021-08-16 12:31:55,801934
0,0,-2,-1,0,6,1,1,2021-08-16 12:31:55,801934
-2,0,0,-1,0,-1,-1,-1,2021-08-16 12:31:55,817937
0,-1,-2,-2,-1,-1,-1,0,2021-08-16 12:31:55,817937
1,-1,1,-1,1,2,0,0,2021-08-16 12:31:55,817937
1,-2,-1,-1,-3,-4,-3,-3,2021-08-16 12:31:55,817937
1,0,-3,0,0,0,0,-2,2021-08-16 12:31:55,847934
-1,1,-2,-1,-1,-1,-1,-1,2021-08-16 12:31:55,847934
0,-1,-2,-1,-1,-2,0,-1,2021-08-16 12:31:55,847934
-2,0,-2,-2,0,-2,-1,-1,2021-08-16 12:31:55,847934
-1,-2,-1,-2,-2,-1,0,1,2021-08-16 12:31:55,863933
-2,-1,-2,-2,-2,0,-2,-1,2021-08-16 12:31:55,879934
-2,0,1,0,-1,-2,-1,0,2021-08-16 12:31:55,879934
0,1,-1,0,-1,0,-2,0,2021-08-16 12:31:55,879934
-1,-1,0,0,-1,0,-1,0,2021-08-16 12:31:55,879934
-2,-1,0,0,1,0,-1,-2,2021-08-16 12:31:55,879934
-2,-2,0,1,-2,-1,-1,-1,2021-08-16 12:31:55,895936
-2,-2,-2,-2,-1,-1,1,-2,2021-08-16 12:31:55,911935
-1,0,0,0,0,-1,0,-2,2021-08-16 12:31:55,911935
0,-1,0,0,1,-2,-2,-1,2021-08-16 12:31:55,911935
-1,-2,-1,-1,1,0,1,0,2021-08-16 12:31:55,912935
0,-1,1,-1,-3,-3,-3,-1,2021-08-16 12:31:55,912935
0,0,-1,-1,-3,-2,0,-2,2021-08-16 12:31:55,912935
-1,0,-1,-1,-2,1,0,0,2021-08-16 12:31:55,912935
-1,-2,-2,-3,-3,-1,-4,-3,2021-08-16 12:31:55,927936
-1,-1,0,-1,0,0,-1,-1,2021-08-16 12:31:55,927936
-1,-1,-1,-1,-2,-3,1,-1,2021-08-16 12:31:55,927936
-1,0,-1,-1,0,2,1,0,2021-08-16 12:31:55,927936
-2,-1,-3,0,-2,-3,-2,0,2021-08-16 12:31:55,959934
-1,-1,-1,1,-1,-1,-1,0,2021-08-16 12:31:55,975933
0,-2,-2,1,-1,1,-2,-1,2021-08-16 12:31:55,975933
1,-1,-1,2,-2,1,2,-1,2021-08-16 12:31:55,975933
-1,0,-1,0,0,3,1,0,2021-08-16 12:31:55,975933
-1,-2,0,-2,-1,-2,-1,0,2021-08-16 12:31:55,975933
-3,-1,-3,-2,-1,-1,0,-1,2021-08-16 12:31:55,976935
0,-2,-1,-1,-1,-2,-4,-1,2021-08-16 12:31:55,991935
-1,-2,-1,-1,-1,-2,0,0,2021-08-16 12:31:55,991935
0,-1,0,-1,0,0,1,-2,2021-08-16 12:31:55,991935
-1,-1,-1,-1,0,-2,-2,-1,2021-08-16 12:31:56,007935
0,-1,-3,-2,-3,-1,0,-2,2021-08-16 12:31:56,007935
0,0,-2,1,-1,-1,-2,-2,2021-08-16 12:31:56,039937
-1,-1,-1,0,-1,-1,-2,-1,2021-08-16 12:31:56,055936
0,-1,0,0,-2,-3,-3,0,2021-08-16 12:31:56,071934
-1,-1,0,-1,0,1,3,0,2021-08-16 12:31:56,071934
-1,-2,-1,-1,-2,-2,-1,-2,2021-08-16 12:31:56,118932
-1,-1,-2,0,1,-1,-1,0,2021-08-16 12:31:56,118932
0,-1,-2,-1,-1,0,0,-2,2021-08-16 12:31:56,134936
-2,0,-1,0,-2,-2,-2,0,2021-08-16 12:31:56,134936
0,1,0,1,0,-1,0,-1,2021-08-16 12:31:56,165933
-1,-2,-1,-1,-2,1,2,-1,2021-08-16 12:31:56,181933
0,-2,-2,-1,-2,-3,-1,-2,2021-08-16 12:31:56,197935
-2,-3,-2,-2,-2,-3,-4,-2,2021-08-16 12:31:56,197935
0,0,0,-2,-1,0,-1,-1,2021-08-16 12:31:56,197935
-2,1,-1,1,-1,-3,-4,-1,2021-08-16 12:31:56,197935
-1,-1,-2,-1,2,2,0,0,2021-08-16 12:31:56,198937
-1,-1,0,-2,-2,0,1,-2,2021-08-16 12:31:56,198937
-1,0,0,-1,2,2,0,-2,2021-08-16 12:31:56,198937
-1,-1,-1,0,-2,-2,1,-3,2021-08-16 12:31:56,198937
-3,0,0,1,0,-1,-1,0,2021-08-16 12:31:56,198937
0,-1,0,-1,-1,-4,0,1,2021-08-16 12:31:56,198937
-1,-1,-2,-1,-1,-1,0,0,2021-08-16 12:31:56,199936
-2,0,0,-1,-1,1,-1,0,2021-08-16 12:31:56,199936
-1,-1,0,-3,-2,1,-1,-2,2021-08-16 12:31:56,199936
0,-1,0,0,-1,-2,1,1,2021-08-16 12:31:56,199936
-2,-1,-1,-2,-1,-1,0,1,2021-08-16 12:31:56,199936
0,-1,-1,0,-3,-1,0,-2,2021-08-16 12:31:56,200935
0,-1,-1,-3,-3,-2,0,-2,2021-08-16 12:31:56,200935
-2,-2,-2,-2,-1,-1,-3,-1,2021-08-16 12:31:56,200935
0,-2,-3,-1,-1,-1,-1,-1,2021-08-16 12:31:56,200935
-1,-2,-3,-3,-2,-3,-2,1,2021-08-16 12:31:56,200935
1,0,-1,0,1,1,-1,1,2021-08-16 12:31:56,201936
-1,0,-2,2,1,0,-1,-2,2021-08-16 12:31:56,201936
-1,-2,-1,-2,-3,-3,-2,-1,2021-08-16 12:31:56,201936
-2,0,-2,-1,1,1,-2,-1,2021-08-16 12:31:56,201936
1,1,0,0,-2,0,2,0,2021-08-16 12:31:56,201936
1,1,0,-2,-1,-1,-2,-2,2021-08-16 12:31:56,201936
-1,-1,1,-1,-2,0,-1,-1,2021-08-16 12:31:56,202934
-2,0,0,0,0,-4,-2,-1,2021-08-16 12:31:56,202934
-1,-1,-2,0,-1,-1,1,1,2021-08-16 12:31:56,202934
-1,0,-1,1,1,0,-1,-1,2021-08-16 12:31:56,202934
0,-1,1,0,1,1,-3,-2,2021-08-16 12:31:56,202934
-1,-2,-2,-1,-2,-2,0,0,2021-08-16 12:31:56,202934
1,-1,0,1,0,1,0,0,2021-08-16 12:31:56,228934
0,-1,-2,-1,-1,-1,-2,-2,2021-08-16 12:31:56,244933
0,0,0,0,0,-5,-3,-2,2021-08-16 12:31:56,244933
-1,1,1,0,1,4,3,1,2021-08-16 12:31:56,244933
-2,-1,-2,-2,-2,-2,-4,-1,2021-08-16 12:31:56,260935
-1,-4,-2,-1,-2,-3,-2,-2,2021-08-16 12:31:56,260935
-1,0,0,-1,1,-1,0,1,2021-08-16 12:31:56,260935
0,-2,-2,-3,-1,-3,-4,-1,2021-08-16 12:31:56,260935
-2,-1,0,-2,1,3,3,-1,2021-08-16 12:31:56,261936
-1,-2,-2,1,-3,1,-1,-1,2021-08-16 12:31:56,261936
0,-2,-1,0,-2,0,1,-2,2021-08-16 12:31:56,261936
1,0,0,0,-1,-1,-2,0,2021-08-16 12:31:56,261936
-2,0,-2,0,-2,-2,-2,-3,2021-08-16 12:31:56,276986
-2,0,-1,0,0,-2,-2,-1,2021-08-16 12:31:56,292983
-2,-2,-2,-2,0,3,1,-1,2021-08-16 12:31:56,292983
0,-1,-1,-1,-2,-1,0,-1,2021-08-16 12:31:56,292983
-2,-1,0,-2,-1,-1,-4,-1,2021-08-16 12:31:56,292983
-1,-1,-2,-2,-3,-4,1,-1,2021-08-16 12:31:56,293981
0,-2,0,0,1,4,1,-1,2021-08-16 12:31:56,308983
-1,-2,-1,0,-1,-1,-1,-1,2021-08-16 12:31:56,324984
-1,0,-1,-1,-2,-4,-2,-3,2021-08-16 12:31:56,324984
0,-1,-1,-1,3,0,2,3,2021-08-16 12:31:56,324984
-1,1,0,0,-1,-1,-2,0,2021-08-16 12:31:56,331984
-2,-2,-2,-2,-1,0,-3,-1,2021-08-16 12:31:56,331984
2,0,0,-3,-2,-2,-3,0,2021-08-16 12:31:56,332986
0,0,1,-1,0,3,3,0,2021-08-16 12:31:56,332986
-1,-1,-2,-2,-1,-2,-1,0,2021-08-16 12:31:56,340985
-1,-1,-2,0,-1,1,0,1,2021-08-16 12:31:56,340985
-2,-2,-2,0,-3,-4,-3,-3,2021-08-16 12:31:56,372982
-1,0,-1,-1,-1,0,0,-1,2021-08-16 12:31:56,388982
0,1,-1,-3,-2,-1,0,4,2021-08-16 12:31:56,404984
-1,-2,-2,-2,-1,-2,-2,-1,2021-08-16 12:31:56,404984
0,-2,-1,-1,1,-2,1,1,2021-08-16 12:31:56,404984
-1,-2,-2,-1,-3,-2,-6,-3,2021-08-16 12:31:56,420983
-1,-1,-1,-1,0,-2,0,0,2021-08-16 12:31:56,420983
-1,1,1,0,0,0,0,-2,2021-08-16 12:31:56,420983
-2,-1,0,0,0,1,3,3,2021-08-16 12:31:56,421984
-1,-1,-2,1,-1,-1,-3,-1,2021-08-16 12:31:56,436985
-2,-1,-1,-1,-1,-1,-3,-2,2021-08-16 12:31:56,436985
1,0,0,-1,0,-2,1,0,2021-08-16 12:31:56,436985
-1,-1,-3,-1,1,2,1,-2,2021-08-16 12:31:56,436985
-1,-1,-1,-3,1,-2,-1,-1,2021-08-16 12:31:56,437984
-1,-1,-2,-2,-4,-4,-2,-2,2021-08-16 12:31:56,437984
-2,0,0,-1,-2,-2,0,-4,2021-08-16 12:31:56,437984
1,0,1,0,1,3,2,1,2021-08-16 12:31:56,437984
0,-1,0,-1,-1,-1,2,-1,2021-08-16 12:31:56,437984
-1,-1,-2,0,-1,-2,-1,-3,2021-08-16 12:31:56,437984
-1,0,-2,-1,-1,1,0,2,2021-08-16 12:31:56,438984
0,-1,-1,-2,-3,-1,-3,-3,2021-08-16 12:31:56,467982
-1,1,0,1,-1,-1,-3,0,2021-08-16 12:31:56,467982
-1,-2,-2,-2,0,-4,0,0,2021-08-16 12:31:56,467982
1,0,-1,0,1,-2,2,1,2021-08-16 12:31:56,467982
-4,-2,-1,-2,-1,-1,-2,-2,2021-08-16 12:31:56,483982
-1,-2,0,0,1,7,4,1,2021-08-16 12:31:56,499981
0,-1,-1,0,-1,-1,0,-1,2021-08-16 12:31:56,499981
-1,-1,-2,0,-2,-2,0,-1,2021-08-16 12:31:56,499981
-1,-2,-2,1,-1,-2,-2,-1,2021-08-16 12:31:56,514981
-1,-1,0,-1,-2,0,-2,-1,2021-08-16 12:31:56,530980
-3,-2,-1,-2,-2,1,-1,0,2021-08-16 12:31:56,530980
1,-1,0,-1,-1,2,-1,0,2021-08-16 12:31:56,530980
0,0,-1,-2,-1,-1,0,0,2021-08-16 12:31:56,530980
1,-2,-2,-1,-2,-2,-4,-1,2021-08-16 12:31:56,546982
-1,1,-1,-1,0,1,0,0,2021-08-16 12:31:56,546982
0,-1,-1,-1,-2,-1,-1,-1,2021-08-16 12:31:56,546982
-2,0,-1,-3,0,-2,0,0,2021-08-16 12:31:56,562982
-2,0,-2,-1,0,0,-2,0,2021-08-16 12:31:56,562982
-1,-1,-1,-2,1,2,0,0,2021-08-16 12:31:56,562982
-2,-2,0,0,-1,-2,-3,-2,2021-08-16 12:31:56,562982
-1,-2,-1,-1,-1,2,0,-1,2021-08-16 12:31:56,563983
-1,-1,2,-1,0,-4,-3,-1,2021-08-16 12:31:56,563983
0,0,0,2,1,0,1,0,2021-08-16 12:31:56,563983
1,0,-1,-1,-1,-1,-1,-1,2021-08-16 12:31:56,563983
0,0,-2,-1,-1,-1,-2,1,2021-08-16 12:31:56,578983
-2,0,-3,-2,-1,1,1,-2,2021-08-16 12:31:56,594988
0,-2,-1,-3,-1,-1,0,-1,2021-08-16 12:31:56,610982
-1,-1,0,-1,-2,-2,-2,-2,2021-08-16 12:31:56,626981
0,-1,0,0,-1,3,-1,0,2021-08-16 12:31:56,626981
-1,-2,-2,-1,0,0,1,0,2021-08-16 12:31:56,642982
0,0,-1,1,-1,-1,-1,-1,2021-08-16 12:31:56,658983
-2,0,-2,0,0,0,1,-1,2021-08-16 12:31:56,658983
-1,0,0,0,-1,-3,-2,-1,2021-08-16 12:31:56,658983
0,-1,-2,-3,-3,-2,-2,0,2021-08-16 12:31:56,658983
-1,-1,-2,-2,-2,-2,-2,1,2021-08-16 12:31:56,659983
-1,-1,-1,1,0,0,0,0,2021-08-16 12:31:56,659983
-2,-1,-2,0,-3,0,-2,-1,2021-08-16 12:31:56,659983
0,-2,1,-2,-1,-3,0,-1,2021-08-16 12:31:56,659983
0,-1,-1,1,-1,-1,-1,0,2021-08-16 12:31:56,659983
-2,-1,0,-1,-3,-2,-1,-1,2021-08-16 12:31:56,659983
-1,0,0,0,1,2,4,0,2021-08-16 12:31:56,660983
-2,-1,0,-1,0,0,0,-2,2021-08-16 12:31:56,660983
-2,-2,-1,-1,-1,-2,-2,-1,2021-08-16 12:31:56,660983
-1,-1,-2,-1,0,1,-1,1,2021-08-16 12:31:56,660983
0,-1,0,-1,-3,-6,-4,-2,2021-08-16 12:31:56,674984
-2,0,-1,0,0,1,0,-1,2021-08-16 12:31:56,674984
0,-2,0,0,-1,0,-1,-2,2021-08-16 12:31:56,689982
0,-2,-3,-1,-1,-2,0,-1,2021-08-16 12:31:56,689982
-2,-2,-2,-3,0,-2,-1,1,2021-08-16 12:31:56,705982
-2,0,0,0,-2,0,-2,1,2021-08-16 12:31:56,705982
-1,-1,-2,-1,-2,-1,-1,0,2021-08-16 12:31:56,705982
1,0,2,-1,1,4,2,-1,2021-08-16 12:31:56,705982
1,1,-2,0,-1,-2,-1,-2,2021-08-16 12:31:56,721983
0,0,-1,0,-1,-2,-1,0,2021-08-16 12:31:56,721983
-2,-1,-1,-2,-1,-2,0,1,2021-08-16 12:31:56,721983
-1,-2,-1,-2,-2,-2,-2,-2,2021-08-16 12:31:56,721983
1,-2,-1,-1,-1,-1,-2,-1,2021-08-16 12:31:56,737983
-1,-2,-1,0,-2,0,-4,-1,2021-08-16 12:31:56,737983
-1,0,1,-1,-1,0,-2,-1,2021-08-16 12:31:56,753984
-1,0,0,0,1,-1,-1,0,2021-08-16 12:31:56,753984
-2,-1,-1,-1,1,0,0,-2,2021-08-16 12:31:56,753984
-1,-1,-2,-1,-3,-3,-1,-3,2021-08-16 12:31:56,753984
0,0,0,1,1,1,-2,1,2021-08-16 12:31:56,754984
-2,0,-1,0,-1,0,0,0,2021-08-16 12:31:56,769982
-1,0,-1,0,0,1,1,-1,2021-08-16 12:31:56,785982
1,1,-2,-1,0,-1,1,0,2021-08-16 12:31:56,785982
-2,-1,-1,0,-1,2,0,-1,2021-08-16 12:31:56,785982
-1,0,0,0,-1,-2,0,-2,2021-08-16 12:31:56,785982
-2,-3,1,0,-1,-1,-2,0,2021-08-16 12:31:56,801980
-1,0,0,2,0,0,0,-2,2021-08-16 12:31:56,801980
-1,-1,0,-1,-2,0,-2,-2,2021-08-16 12:31:56,801980
-1,-1,-1,-1,-2,-3,-3,0,2021-08-16 12:31:56,801980
1,-1,0,0,0,0,0,0,2021-08-16 12:31:56,817983
-1,-1,0,0,-2,0,-1,0,2021-08-16 12:31:56,833981
0,0,-2,0,-1,-2,0,-1,2021-08-16 12:31:56,833981
-1,-1,-1,-1,0,-1,-1,0,2021-08-16 12:31:56,849984
1,1,-2,-1,-1,0,-1,0,2021-08-16 12:31:56,865981
0,-2,-1,-1,-1,-2,1,-1,2021-08-16 12:31:56,865981
0,-1,-2,-2,-1,-1,0,-1,2021-08-16 12:31:56,865981
-2,-1,-3,-2,1,1,2,-1,2021-08-16 12:31:56,880981
-1,-1,1,-1,-1,0,0,1,2021-08-16 12:31:56,896983
-1,0,-1,-1,-1,0,-2,0,2021-08-16 12:31:56,896983
0,-1,-2,-1,-1,0,0,-2,2021-08-16 12:31:56,896983
0,-1,-1,-1,-1,-1,-1,-2,2021-08-16 12:31:56,896983
-2,0,0,-2,-1,-1,0,-2,2021-08-16 12:31:56,896983
-2,-2,-1,0,-2,-1,1,0,2021-08-16 12:31:56,897982
1,-1,-1,-2,-2,-2,-2,1,2021-08-16 12:31:56,897982
0,0,-2,-2,0,-2,-3,0,2021-08-16 12:31:56,897982
-1,-1,0,-2,0,4,2,-2,2021-08-16 12:31:56,897982
-1,-1,-1,-2,0,1,-2,0,2021-08-16 12:31:56,897982
-2,0,-1,-1,0,0,2,-1,2021-08-16 12:31:56,897982
1,-2,1,0,-1,-2,-2,0,2021-08-16 12:31:56,898984
0,-2,-1,-1,-4,-5,-2,-1,2021-08-16 12:31:56,927982
0,-1,-1,-1,-1,0,-3,-1,2021-08-16 12:31:56,943981
-3,0,-2,-2,-1,-1,-2,-1,2021-08-16 12:31:56,959983
-3,-2,-1,-1,0,0,-2,1,2021-08-16 12:31:56,975983
-1,-1,-1,1,0,-1,0,-2,2021-08-16 12:31:56,975983
0,0,-1,-1,0,-2,0,-1,2021-08-16 12:31:56,975983
0,-2,-1,-1,-2,-3,-1,1,2021-08-16 12:31:56,991984
-1,-1,-1,-1,-1,-1,-1,-1,2021-08-16 12:31:56,991984
0,-2,-1,0,-3,-2,-2,1,2021-08-16 12:31:56,991984
-1,-1,-1,-1,-1,-1,-2,1,2021-08-16 12:31:56,991984
0,-1,-1,0,1,2,1,1,2021-08-16 12:31:56,992985
-1,-2,0,-2,-1,-1,1,-1,2021-08-16 12:31:56,992985
-1,0,-1,1,0,-1,0,1,2021-08-16 12:31:56,992985
0,-2,-1,-3,-2,-3,-3,-2,2021-08-16 12:31:56,992985
2,-1,-1,2,2,2,2,3,2021-08-16 12:31:56,992985
0,1,-1,1,-1,1,0,-2,2021-08-16 12:31:56,993983
-1,-1,-2,-1,-1,-2,0,-1,2021-08-16 12:31:56,993983
-2,1,-1,-4,-1,-3,-2,-1,2021-08-16 12:31:56,993983
-2,0,0,0,-1,0,-2,-1,2021-08-16 12:31:56,993983
-1,-1,0,0,1,0,-1,2,2021-08-16 12:31:56,993983
-1,-2,-1,0,-2,-2,-1,0,2021-08-16 12:31:57,023983
0,0,-1,1,0,2,-1,-2,2021-08-16 12:31:57,023983
-2,-2,-2,0,0,-2,-2,0,2021-08-16 12:31:57,023983
-2,0,-1,0,0,0,0,-2,2021-08-16 12:31:57,023983
0,1,0,0,-3,-2,-1,0,2021-08-16 12:31:57,054982
1,-1,-1,1,-1,-2,-1,0,2021-08-16 12:31:57,054982
-2,0,-1,-1,-2,-1,-1,-3,2021-08-16 12:31:57,054982
2,0,0,0,0,-1,0,2,2021-08-16 12:31:57,054982
0,-1,-1,-2,0,0,1,-1,2021-08-16 12:31:57,054982
-1,0,-1,1,0,1,0,1,2021-08-16 12:31:57,055983
-2,-1,-1,-2,-1,-3,-1,-1,2021-08-16 12:31:57,055983
-1,1,0,-2,-3,-1,-1,-2,2021-08-16 12:31:57,055983
-3,-1,0,-2,0,-3,-3,-2,2021-08-16 12:31:57,073985
-1,-1,-1,-1,-1,0,2,-1,2021-08-16 12:31:57,073985
-2,0,-1,-1,-1,0,-2,-2,2021-08-16 12:31:57,074983
1,0,-2,0,-2,-2,-2,0,2021-08-16 12:31:57,074983
1,-1,-1,-1,-2,0,-1,-1,2021-08-16 12:31:57,101982
-1,-2,2,0,-2,0,-1,-1,2021-08-16 12:31:57,117983
1,0,0,0,-2,-1,2,1,2021-08-16 12:31:57,132982
-2,-1,-3,1,-2,-2,-3,-4,2021-08-16 12:31:57,132982
-1,-2,-2,0,-1,-2,-3,-2,2021-08-16 12:31:57,132982
2,-1,0,0,-1,0,0,0,2021-08-16 12:31:57,148981
0,1,0,-1,0,1,1,0,2021-08-16 12:31:57,164980
-2,-3,-2,-3,0,-2,0,-2,2021-08-16 12:31:57,164980
0,-1,-2,-1,-1,-2,1,-1,2021-08-16 12:31:57,164980
-1,0,-1,-1,0,-2,-1,-1,2021-08-16 12:31:57,164980
1,-1,-1,-2,-1,-2,-1,0,2021-08-16 12:31:57,165985
1,-1,0,0,-1,2,-1,1,2021-08-16 12:31:57,180980
0,-2,-1,-1,2,0,-1,-1,2021-08-16 12:31:57,180980
-1,-2,0,-1,-3,-2,-1,-4,2021-08-16 12:31:57,180980
-1,-1,-2,-1,-1,-2,0,0,2021-08-16 12:31:57,180980
-1,-1,-1,-1,0,2,-1,0,2021-08-16 12:31:57,181984
0,0,-2,-2,-1,1,-1,-2,2021-08-16 12:31:57,181984
-1,0,-1,0,2,4,1,-1,2021-08-16 12:31:57,181984
-2,-1,-1,-3,-2,-2,-2,-4,2021-08-16 12:31:57,181984
-2,0,0,-2,-2,1,0,-2,2021-08-16 12:31:57,182983
0,0,0,1,0,1,1,0,2021-08-16 12:31:57,212983
-1,-1,-1,0,-2,-4,-3,-1,2021-08-16 12:31:57,212983
-1,-1,-1,-1,-2,-1,-3,-3,2021-08-16 12:31:57,212983
0,0,-1,0,1,3,2,1,2021-08-16 12:31:57,212983
-2,0,-1,-3,0,0,2,0,2021-08-16 12:31:57,228983
-1,0,-1,0,-1,0,0,0,2021-08-16 12:31:57,244982
0,-1,-1,-1,1,0,-2,-1,2021-08-16 12:31:57,244982
-1,0,-3,-3,-2,-3,-3,-4,2021-08-16 12:31:57,244982
-1,0,0,-2,-1,-1,-1,-2,2021-08-16 12:31:57,244982
-2,-1,-1,1,0,0,0,1,2021-08-16 12:31:57,245983
-1,-1,0,0,-1,-1,0,0,2021-08-16 12:31:57,245983
0,-2,-1,0,-2,-3,-1,-3,2021-08-16 12:31:57,245983
1,-1,-2,-1,0,1,-2,0,2021-08-16 12:31:57,260986
-1,0,-3,-2,-1,1,0,-2,2021-08-16 12:31:57,275985
-1,-2,2,-1,-2,-2,-2,-1,2021-08-16 12:31:57,291985
-1,-1,0,-1,-1,0,-1,0,2021-08-16 12:31:57,291985
-1,0,-1,0,-1,-3,0,0,2021-08-16 12:31:57,307984
0,-1,-1,-1,-1,-3,-1,-1,2021-08-16 12:31:57,323981
-2,1,-1,0,-1,-1,-1,-4,2021-08-16 12:31:57,323981
-1,0,1,0,1,0,2,3,2021-08-16 12:31:57,323981
-2,-1,-1,0,0,0,-3,-3,2021-08-16 12:31:57,323981
0,-1,-2,-1,-1,-2,0,-1,2021-08-16 12:31:57,324984
0,-1,-2,0,-1,-1,-1,-1,2021-08-16 12:31:57,324984
0,-2,1,-1,-2,-1,-2,0,2021-08-16 12:31:57,324984
0,-1,1,1,2,3,2,3,2021-08-16 12:31:57,324984
0,-1,-1,0,-1,-1,1,-1,2021-08-16 12:31:57,325983
1,-1,-1,-1,-1,0,0,1,2021-08-16 12:31:57,325983
-2,-1,-2,-1,-1,-3,-3,-3,2021-08-16 12:31:57,325983
-2,-2,0,-1,-1,-2,-2,0,2021-08-16 12:31:57,354983
0,0,0,-3,0,-2,-1,-1,2021-08-16 12:31:57,354983
-1,-1,-1,-2,0,2,-4,-1,2021-08-16 12:31:57,354983
-1,-2,-1,-1,0,-2,-2,0,2021-08-16 12:31:57,354983
-1,-2,0,-1,-2,0,0,-2,2021-08-16 12:31:57,355986
-1,-1,0,-2,0,-1,-1,0,2021-08-16 12:31:57,355986
-2,0,0,-2,-1,-2,1,-2,2021-08-16 12:31:57,370982
0,0,0,0,0,0,5,3,2021-08-16 12:31:57,370982
-1,0,-1,-1,-2,-1,-4,-1,2021-08-16 12:31:57,386980
-1,-1,-2,-2,0,-2,-1,-1,2021-08-16 12:31:57,386980
-1,-2,-1,-1,0,-1,0,1,2021-08-16 12:31:57,402982
-2,0,-2,0,0,-1,-4,-3,2021-08-16 12:31:57,402982
0,-1,-1,-2,-2,-5,0,-1,2021-08-16 12:31:57,402982
-1,0,0,-1,-1,3,-3,-3,2021-08-16 12:31:57,402982
-2,-1,-2,1,1,1,-5,-3,2021-08-16 12:31:57,402982
0,0,-4,-1,-2,-3,-2,-2,2021-08-16 12:31:57,403982
-2,-1,-1,-1,1,5,2,0,2021-08-16 12:31:57,418987
-1,-3,0,-1,-2,-3,-3,-3,2021-08-16 12:31:57,418987
-1,-2,-2,-2,-3,-4,-2,-2,2021-08-16 12:31:57,418987
0,-1,-1,0,2,6,-3,2,2021-08-16 12:31:57,419984
-1,-2,-2,-1,-3,-5,-5,-1,2021-08-16 12:31:57,449983
-1,-1,-1,1,1,3,6,2,2021-08-16 12:31:57,449983
-1,-1,-2,-1,-1,-2,2,-1,2021-08-16 12:31:57,465980
-2,0,0,-1,0,-1,0,-2,2021-08-16 12:31:57,465980
-2,-1,0,0,-2,-1,-5,-2,2021-08-16 12:31:57,481981
-1,0,1,1,1,4,1,0,2021-08-16 12:31:57,481981
0,0,-2,-2,-1,-4,-5,-1,2021-08-16 12:31:57,481981
1,-1,1,-2,-1,-3,0,-1,2021-08-16 12:31:57,481981
-2,-1,-2,-2,-2,-3,-1,-2,2021-08-16 12:31:57,481981
-1,0,1,-2,-3,-3,-1,-2,2021-08-16 12:31:57,482983
0,-2,-1,-2,-2,-2,-2,0,2021-08-16 12:31:57,512983
0,0,1,0,-1,1,-1,-2,2021-08-16 12:31:57,528981
0,0,-1,-1,2,3,3,2,2021-08-16 12:31:57,528981
0,-1,-1,-1,0,-4,-4,-2,2021-08-16 12:31:57,544984
0,0,-1,2,0,0,0,0,2021-08-16 12:31:57,575980
-3,-3,-2,-2,-2,1,1,-1,2021-08-16 12:31:57,575980
-1,-1,-2,0,-2,-2,0,-2,2021-08-16 12:31:57,575980
-1,-1,0,1,1,-1,-3,-1,2021-08-16 12:31:57,575980
-3,0,-1,-3,1,3,1,-1,2021-08-16 12:31:57,575980
-1,-3,0,-2,-5,-10,-4,-2,2021-08-16 12:31:57,576983
-1,1,1,-1,0,6,4,-1,2021-08-16 12:31:57,576983
0,1,-2,0,-2,-2,-1,1,2021-08-16 12:31:57,576983
-1,-1,-1,0,-1,-2,-1,-3,2021-08-16 12:31:57,576983
-3,0,-1,-1,-1,-1,-2,0,2021-08-16 12:31:57,591985
-1,0,-1,-1,-1,-2,-1,-1,2021-08-16 12:31:57,607982
-1,-1,-1,-2,-3,-1,-2,-2,2021-08-16 12:31:57,623982
0,0,1,0,-1,-2,1,-1,2021-08-16 12:31:57,623982
1,0,-1,-2,3,5,-2,-1,2021-08-16 12:31:57,623982
0,0,0,-2,0,-1,-1,1,2021-08-16 12:31:57,624984
0,-1,-2,0,-2,-2,2,0,2021-08-16 12:31:57,624984
-2,-2,-2,-2,-4,-6,-2,-2,2021-08-16 12:31:57,624984
0,0,1,1,2,4,1,2,2021-08-16 12:31:57,624984
0,0,-1,0,-2,-4,-2,-2,2021-08-16 12:31:57,639984
1,1,0,1,5,8,0,1,2021-08-16 12:31:57,639984
-2,-1,-1,-1,-3,-2,4,1,2021-08-16 12:31:57,639984
-1,-1,-3,-3,-5,-7,-4,-3,2021-08-16 12:31:57,639984
0,0,2,2,1,5,4,1,2021-08-16 12:31:57,655982
-2,-2,-2,-4,-3,-1,0,0,2021-08-16 12:31:57,655982
1,-1,-2,-2,-1,-3,-1,-1,2021-08-16 12:31:57,655982
0,1,0,-1,1,0,0,-2,2021-08-16 12:31:57,671982
-1,0,-2,-1,0,-1,-2,-1,2021-08-16 12:31:57,687981
-1,-2,-3,-2,-4,-9,-4,-3,2021-08-16 12:31:57,687981
1,0,1,1,3,9,1,1,2021-08-16 12:31:57,687981
0,1,1,2,3,5,2,2,2021-08-16 12:31:57,687981
-1,-2,-1,-2,-3,-5,-6,-3,2021-08-16 12:31:57,687981
-1,0,0,-1,2,3,4,1,2021-08-16 12:31:57,688985
2,-1,-1,-2,-1,-4,-3,-1,2021-08-16 12:31:57,688985
-1,-1,-2,-2,-2,-3,-2,-3,2021-08-16 12:31:57,688985
0,0,-1,-1,0,-2,0,2,2021-08-16 12:31:57,688985
-1,0,0,-2,-1,-2,-1,-2,2021-08-16 12:31:57,689984
-1,0,-1,2,-1,0,-1,-2,2021-08-16 12:31:57,689984
0,-1,0,-1,-4,-5,-3,-1,2021-08-16 12:31:57,689984
0,-1,-1,1,1,1,0,-1,2021-08-16 12:31:57,703984
-1,0,-1,2,1,2,0,1,2021-08-16 12:31:57,703984
0,1,1,0,-1,3,-3,-1,2021-08-16 12:31:57,703984
-1,-2,0,0,-1,1,0,-2,2021-08-16 12:31:57,704983
0,-3,-1,-2,-3,-3,-1,-1,2021-08-16 12:31:57,719984
0,-2,-2,-2,0,1,-1,-1,2021-08-16 12:31:57,719984
-2,0,-1,-4,0,-2,-1,0,2021-08-16 12:31:57,719984
-3,-2,-2,-3,-3,-1,1,-2,2021-08-16 12:31:57,719984
0,1,0,-2,-1,1,-1,-2,2021-08-16 12:31:57,751985
-2,-2,-2,-3,-3,-3,-3,-3,2021-08-16 12:31:57,751985
3,1,1,0,3,3,4,4,2021-08-16 12:31:57,763984
-2,-2,-3,-3,-3,-7,-2,-2,2021-08-16 12:31:57,763984
-1,0,-1,1,1,3,0,0,2021-08-16 12:31:57,763984
-3,-1,0,-1,-4,-3,1,0,2021-08-16 12:31:57,763984
0,0,1,3,2,6,-1,0,2021-08-16 12:31:57,763984
0,2,1,4,3,4,0,2,2021-08-16 12:31:57,764983
-1,0,-2,-2,-2,-4,-1,-1,2021-08-16 12:31:57,783986
0,-1,-2,-1,-2,-1,-2,-1,2021-08-16 12:31:57,783986
-3,-1,1,-1,-2,-2,-1,-3,2021-08-16 12:31:57,783986
-2,-1,-1,0,-3,-4,-2,-1,2021-08-16 12:31:57,783986
-3,-2,-3,0,-2,-2,-2,-1,2021-08-16 12:31:57,814981
0,-2,-3,0,-3,-7,-4,-2,2021-08-16 12:31:57,814981
2,0,-1,2,1,5,4,0,2021-08-16 12:31:57,814981
0,-2,-2,-1,-1,1,0,-2,2021-08-16 12:31:57,830983
-1,0,1,0,-1,-2,-3,-1,2021-08-16 12:31:57,830983
-1,0,-2,-1,-1,-3,-1,-2,2021-08-16 12:31:57,830983
-2,-1,-3,-4,-3,-8,-1,-3,2021-08-16 12:31:57,846982
0,0,0,1,1,4,2,-2,2021-08-16 12:31:57,862983
0,-2,-1,-2,0,-6,0,-1,2021-08-16 12:31:57,878984
2,0,2,2,3,8,0,0,2021-08-16 12:31:57,878984
-2,-3,-2,-3,-3,-4,-2,-2,2021-08-16 12:31:57,878984
-1,-1,-1,-2,-1,-3,-1,-1,2021-08-16 12:31:57,878984
-1,-1,-3,-3,-4,-8,-2,-1,2021-08-16 12:31:57,879984
-1,-1,-1,-1,1,1,0,-1,2021-08-16 12:31:57,879984
-3,-2,-1,0,0,-2,-2,0,2021-08-16 12:31:57,894982
0,-1,0,-1,1,2,-3,-1,2021-08-16 12:31:57,894982
0,-1,0,-3,-2,-1,0,2,2021-08-16 12:31:57,910982
-3,-3,-2,-3,-3,-7,-4,-3,2021-08-16 12:31:57,910982
3,0,2,3,6,12,7,2,2021-08-16 12:31:57,910982
-2,-2,-3,-3,-6,-7,-2,-2,2021-08-16 12:31:57,910982
0,0,0,2,2,6,1,-1,2021-08-16 12:31:57,910982
-3,-2,-2,-3,-6,-8,-2,-2,2021-08-16 12:31:57,911982
-1,-1,1,-2,-1,-1,-5,-2,2021-08-16 12:31:57,911982
0,1,-2,-1,1,4,1,-1,2021-08-16 12:31:57,911982
-1,0,-1,0,1,5,2,-1,2021-08-16 12:31:57,926983
-1,-1,0,-1,-2,-4,1,-1,2021-08-16 12:31:57,926983
-1,-1,-2,-3,-2,-3,-2,1,2021-08-16 12:31:57,926983
0,0,-1,0,1,0,0,0,2021-08-16 12:31:57,926983
0,0,-2,-1,-2,-1,-2,-4,2021-08-16 12:31:57,942983
-1,-1,-1,0,0,-3,-4,-1,2021-08-16 12:31:57,957986
-4,-1,-4,-3,-5,-7,-6,-4,2021-08-16 12:31:57,957986
0,0,1,-1,0,4,5,1,2021-08-16 12:31:57,973984
-2,-2,0,-2,-1,1,-1,-1,2021-08-16 12:31:57,989983
2,3,3,3,5,14,4,3,2021-08-16 12:31:58,005981
-4,-3,-3,-3,-7,-6,1,-2,2021-08-16 12:31:58,005981
-2,-1,-2,0,0,-3,-3,-3,2021-08-16 12:31:58,005981
-2,-1,-1,-1,-2,-2,-1,0,2021-08-16 12:31:58,005981
0,-2,-1,-2,-2,-3,-2,1,2021-08-16 12:31:58,006982
0,1,2,1,-2,0,-1,-1,2021-08-16 12:31:58,006982
-4,-2,-2,-3,-4,-5,-4,-1,2021-08-16 12:31:58,021983
-2,-2,2,1,0,1,1,1,2021-08-16 12:31:58,021983
-3,0,1,-1,2,0,0,-1,2021-08-16 12:31:58,037982
2,1,-2,-1,-1,-4,0,1,2021-08-16 12:31:58,037982
0,-1,1,1,1,8,2,0,2021-08-16 12:31:58,053980
0,-1,0,-3,-2,-3,-1,-1,2021-08-16 12:31:58,084980
-1,-2,-2,-1,1,2,2,0,2021-08-16 12:31:58,100982
-2,-2,-2,-3,-1,-8,-2,-2,2021-08-16 12:31:58,100982
0,0,-1,2,1,2,-4,1,2021-08-16 12:31:58,100982
0,-2,-1,0,0,4,0,-1,2021-08-16 12:31:58,100982
-2,0,-1,0,-2,1,-1,0,2021-08-16 12:31:58,100982
-2,-1,-2,-3,-3,-3,-3,-1,2021-08-16 12:31:58,101984
-2,-2,0,-4,-3,-7,-3,-1,2021-08-16 12:31:58,101984
-1,-2,0,-2,1,-1,2,-1,2021-08-16 12:31:58,101984
2,0,0,0,0,1,1,2,2021-08-16 12:31:58,101984
1,-1,1,0,1,0,-1,-3,2021-08-16 12:31:58,101984
0,-1,1,0,-3,-2,0,0,2021-08-16 12:31:58,102983
-1,0,-1,1,-3,1,0,-1,2021-08-16 12:31:58,102983
-2,-1,0,-2,-1,-3,-1,-1,2021-08-16 12:31:58,102983
-2,-1,-1,0,-1,-4,-3,-1,2021-08-16 12:31:58,102983
-2,0,-1,-1,1,2,4,1,2021-08-16 12:31:58,102983
0,0,0,1,0,4,2,1,2021-08-16 12:31:58,102983
-2,-3,-4,-2,-1,-3,-4,-2,2021-08-16 12:31:58,103984
-1,-2,-1,2,0,0,1,0,2021-08-16 12:31:58,103984
0,-2,-2,-2,-2,-3,-2,-1,2021-08-16 12:31:58,103984
-2,-1,-2,-2,0,-2,-4,-2,2021-08-16 12:31:58,116983
-1,0,0,-1,0,-1,-1,-1,2021-08-16 12:31:58,116983
-2,1,-1,1,-1,0,-3,0,2021-08-16 12:31:58,116983
1,-1,0,0,0,1,-1,0,2021-08-16 12:31:58,117983
-2,1,-2,0,0,-1,-1,-2,2021-08-16 12:31:58,148981
-1,0,-1,-1,-3,0,-1,0,2021-08-16 12:31:58,164982
-2,0,0,1,0,2,0,0,2021-08-16 12:31:58,164982
-3,-1,-2,-1,-3,-4,-2,-3,2021-08-16 12:31:58,164982
-1,-2,-1,0,-3,-4,-3,-1,2021-08-16 12:31:58,180984
0,0,0,-2,-1,0,0,-1,2021-08-16 12:31:58,180984
1,-1,-3,0,-1,2,0,-1,2021-08-16 12:31:58,195982
-1,0,-2,-1,-3,-4,0,0,2021-08-16 12:31:58,211982
-3,-1,-1,-5,-3,-5,-3,-4,2021-08-16 12:31:58,211982
1,2,1,2,4,8,1,1,2021-08-16 12:31:58,211982
-1,-3,-1,-2,-1,2,5,1,2021-08-16 12:31:58,211982
-1,-4,-2,-2,0,-2,-4,-4,2021-08-16 12:31:58,212984
1,0,-1,-3,0,-5,-1,0,2021-08-16 12:31:58,227981
-1,-2,-2,-3,-2,-2,-1,-3,2021-08-16 12:31:58,259983
1,1,1,-3,-1,-1,-4,-1,2021-08-16 12:31:58,259983
-2,1,0,0,0,2,3,-1,2021-08-16 12:31:58,259983
-2,-3,-2,-3,-2,-4,-3,-1,2021-08-16 12:31:58,259983
-2,1,1,2,1,-2,2,1,2021-08-16 12:31:58,260983
-1,-1,0,-1,0,-1,1,-3,2021-08-16 12:31:58,260983
0,-1,0,0,0,-1,-3,1,2021-08-16 12:31:58,260983
-1,-1,-1,2,-1,3,1,-1,2021-08-16 12:31:58,260983
-2,-1,-2,-1,-2,-3,1,0,2021-08-16 12:31:58,260983
-3,-2,-2,-2,-3,-1,-4,-3,2021-08-16 12:31:58,275982
0,0,1,-1,1,3,2,3,2021-08-16 12:31:58,275982
-1,-2,0,-2,0,-2,-1,0,2021-08-16 12:31:58,275982
2,-3,1,0,3,6,2,0,2021-08-16 12:31:58,291983
-3,-2,-2,-1,-1,-2,1,0,2021-08-16 12:31:58,291983
-1,-1,-1,-1,-3,-6,-3,-3,2021-08-16 12:31:58,291983
1,0,0,0,-2,-2,-3,0,2021-08-16 12:31:58,291983
-1,-3,-1,-1,-3,-3,-2,-3,2021-08-16 12:31:58,292987
0,-1,-1,-1,-4,-5,-2,-2,2021-08-16 12:31:58,292987
2,1,0,1,1,4,2,2,2021-08-16 12:31:58,292987
0,-1,-1,0,2,9,2,1,2021-08-16 12:31:58,307982
-1,-3,-2,-1,-2,-5,-3,-4,2021-08-16 12:31:58,307982
0,-1,2,-1,2,3,0,0,2021-08-16 12:31:58,307982
-3,-2,-3,-4,-4,-6,-2,-3,2021-08-16 12:31:58,307982
0,0,1,3,4,7,3,1,2021-08-16 12:31:58,323981
-1,-1,-1,0,-2,-2,-3,-1,2021-08-16 12:31:58,323981
-1,0,-1,-3,-1,-3,-1,-1,2021-08-16 12:31:58,323981
-2,-1,-1,0,2,3,-1,-1,2021-08-16 12:31:58,323981
0,2,-1,0,-2,-2,-2,-2,2021-08-16 12:31:58,339983
-3,-1,-1,-2,-2,-1,-1,-1,2021-08-16 12:31:58,339983
0,-1,0,0,-2,-1,-1,0,2021-08-16 12:31:58,339983
-1,-1,-1,-1,-2,-2,-2,-2,2021-08-16 12:31:58,339983
-2,-1,-1,-1,-2,-1,1,-1,2021-08-16 12:31:58,370984
-1,0,0,2,0,2,-1,1,2021-08-16 12:31:58,370984
-1,0,-1,-1,-3,-4,-3,-2,2021-08-16 12:31:58,370984
-1,-1,1,-1,2,3,2,-1,2021-08-16 12:31:58,370984
0,-1,1,0,-1,-3,-3,1,2021-08-16 12:31:58,386986
0,-1,-2,-2,-2,-6,-2,-1,2021-08-16 12:31:58,386986
-1,0,-1,2,4,5,-1,1,2021-08-16 12:31:58,386986
-1,-2,-1,-1,-1,0,0,-2,2021-08-16 12:31:58,387987
-1,-1,-2,-3,-3,-3,-2,-1,2021-08-16 12:31:58,402983
0,-1,-1,-4,-4,-5,-3,-1,2021-08-16 12:31:58,402983
-1,-1,-1,0,1,-1,1,-2,2021-08-16 12:31:58,402983
0,0,0,1,2,3,-1,-1,2021-08-16 12:31:58,402983
-1,0,-1,0,-1,-1,-1,-1,2021-08-16 12:31:58,434981
-1,-2,-2,-3,-3,-4,-2,-1,2021-08-16 12:31:58,434981
-1,-1,0,1,1,2,1,1,2021-08-16 12:31:58,434981
0,-2,-1,-2,-3,-5,-3,0,2021-08-16 12:31:58,434981
-1,-3,-2,-2,0,1,0,0,2021-08-16 12:31:58,450983
-1,0,-1,-1,0,0,0,0,2021-08-16 12:31:58,450983
-1,0,0,-1,-1,1,-1,-1,2021-08-16 12:31:58,450983
-2,0,0,0,-1,-2,-2,0,2021-08-16 12:31:58,450983
-2,-2,-1,-1,-1,-3,0,-1,2021-08-16 12:31:58,466983
-1,1,1,-1,0,-1,-4,-2,2021-08-16 12:31:58,466983
-2,-2,2,-2,0,2,2,1,2021-08-16 12:31:58,481982
2,0,0,1,0,0,2,1,2021-08-16 12:31:58,481982
-1,-2,-1,-3,-2,-5,-4,-2,2021-08-16 12:31:58,481982
1,0,0,0,0,4,2,1,2021-08-16 12:31:58,481982
-1,-1,-1,-3,1,-2,0,1,2021-08-16 12:31:58,481982
-2,1,-1,-3,-1,-1,-2,-1,2021-08-16 12:31:58,497983
0,-1,-1,-2,-2,-4,-3,0,2021-08-16 12:31:58,510980
0,0,1,-1,0,-2,1,1,2021-08-16 12:31:58,510980
0,0,0,1,0,4,1,-2,2021-08-16 12:31:58,510980
-2,-1,-2,-1,-2,-3,-2,-2,2021-08-16 12:31:58,510980
-2,-2,-1,0,-1,-1,-2,0,2021-08-16 12:31:58,529980
-2,-3,-1,0,2,3,3,-3,2021-08-16 12:31:58,529980
1,-1,-3,-2,-3,-6,-4,0,2021-08-16 12:31:58,529980
-2,-1,-2,-1,-1,-3,-2,-2,2021-08-16 12:31:58,529980
0,2,-1,-1,2,3,0,0,2021-08-16 12:31:58,545982
2,2,-1,2,1,2,2,3,2021-08-16 12:31:58,560982
-2,-2,0,0,-3,-2,-4,-3,2021-08-16 12:31:58,575983
0,-2,-1,-1,0,1,-1,-1,2021-08-16 12:31:58,591982
-1,-1,-3,-2,-1,-2,-2,-3,2021-08-16 12:31:58,591982
-1,-1,-1,-1,-1,-4,-3,-1,2021-08-16 12:31:58,591982
1,-1,-1,-1,0,-1,0,0,2021-08-16 12:31:58,607982
0,-1,-1,0,-2,-5,-2,-1,2021-08-16 12:31:58,607982
-1,-2,1,0,-1,-3,3,-1,2021-08-16 12:31:58,607982
-1,1,-1,-1,2,8,-1,-1,2021-08-16 12:31:58,607982
-1,-2,-2,-1,1,-1,0,0,2021-08-16 12:31:58,608983
-2,-1,-1,-3,-3,-1,0,-1,2021-08-16 12:31:58,608983
0,1,-1,-1,0,-1,-1,2,2021-08-16 12:31:58,608983
-2,-3,-1,-1,0,0,0,-2,2021-08-16 12:31:58,608983
-1,0,-1,0,0,0,-1,0,2021-08-16 12:31:58,609984
0,0,0,0,-1,3,0,0,2021-08-16 12:31:58,623986
-3,-1,-2,0,-1,-2,-1,0,2021-08-16 12:31:58,655986
-2,-2,-2,-2,-4,-5,-3,-2,2021-08-16 12:31:58,671982
-1,-1,0,0,-2,-2,-2,-2,2021-08-16 12:31:58,671982
2,-2,0,0,1,2,1,0,2021-08-16 12:31:58,671982
-1,0,0,-2,-1,-1,-3,-3,2021-08-16 12:31:58,671982
-1,-1,-1,-1,-1,1,0,0,2021-08-16 12:31:58,672991
-1,0,-1,-2,-1,-3,0,-3,2021-08-16 12:31:58,672991
-2,-1,-2,-1,-1,-1,-1,-1,2021-08-16 12:31:58,672991
0,-2,-1,0,-2,1,0,-2,2021-08-16 12:31:58,672991
-1,-1,-1,-1,-1,-4,-2,-1,2021-08-16 12:31:58,673983
-1,0,-1,-1,0,1,0,-1,2021-08-16 12:31:58,673983
-1,0,0,-1,1,-2,-1,0,2021-08-16 12:31:58,673983
0,0,0,0,0,1,0,1,2021-08-16 12:31:58,687982
-1,-1,0,-1,-1,-4,-2,-2,2021-08-16 12:31:58,687982
-3,-1,0,1,-2,-1,-1,1,2021-08-16 12:31:58,687982
0,-1,1,-1,-1,-1,-2,0,2021-08-16 12:31:58,687982
-2,-2,0,-1,0,1,0,-4,2021-08-16 12:31:58,702981
0,1,0,0,-2,-2,-3,-3,2021-08-16 12:31:58,702981
-1,0,-1,-2,-2,-4,3,2,2021-08-16 12:31:58,702981
0,1,0,0,2,8,0,-1,2021-08-16 12:31:58,702981
0,-1,-2,0,-2,-3,-1,-2,2021-08-16 12:31:58,733981
-2,-1,-3,-1,-2,-3,-7,-3,2021-08-16 12:31:58,748984
0,1,0,2,3,8,7,4,2021-08-16 12:31:58,748984
-1,-2,-2,-2,-4,-7,-1,-3,2021-08-16 12:31:58,748984
2,1,0,-3,1,-1,1,0,2021-08-16 12:31:58,748984
-1,-2,0,-2,-2,-2,-1,-1,2021-08-16 12:31:58,748984
-2,-3,-1,-1,-1,-4,-7,-3,2021-08-16 12:31:58,749983
-3,0,0,1,0,-1,0,-1,2021-08-16 12:31:58,749983
0,-1,-3,-1,-2,-2,-2,-1,2021-08-16 12:31:58,763981
0,0,1,2,1,1,3,2,2021-08-16 12:31:58,778981
1,-1,1,0,0,1,-2,-2,2021-08-16 12:31:58,778981
-1,1,-1,0,-1,0,2,-2,2021-08-16 12:31:58,778981
0,-2,-1,0,-2,-1,0,-3,2021-08-16 12:31:58,778981
-1,1,1,-1,-2,0,0,-1,2021-08-16 12:31:58,779984
-2,-1,-1,-1,-1,1,-1,-1,2021-08-16 12:31:58,793981
-2,-2,-1,-3,-2,-4,-3,-3,2021-08-16 12:31:58,793981
-1,-1,2,1,0,2,-2,0,2021-08-16 12:31:58,809983
-1,-1,-2,0,0,0,2,1,2021-08-16 12:31:58,809983
-1,-1,-3,-3,-2,-6,-5,-3,2021-08-16 12:31:58,809983
-2,-2,-3,-3,-2,-2,-2,-2,2021-08-16 12:31:58,810985
1,1,1,1,3,6,-2,0,2021-08-16 12:31:58,840984
-1,-1,0,-2,-1,0,2,1,2021-08-16 12:31:58,840984
0,0,-1,-1,0,-1,0,-2,2021-08-16 12:31:58,840984
0,-1,0,-2,-2,-4,1,-1,2021-08-16 12:31:58,840984
-1,-1,0,0,-1,-3,-2,1,2021-08-16 12:31:58,841982
-3,0,-2,-3,-2,-2,0,-3,2021-08-16 12:31:58,841982
2,-1,0,1,1,2,-2,-1,2021-08-16 12:31:58,872983
-2,-1,-1,-1,-1,-2,-1,1,2021-08-16 12:31:58,887985
-1,-1,-1,0,-2,-1,0,0,2021-08-16 12:31:58,887985
-2,-2,-2,-1,-2,-1,-1,-1,2021-08-16 12:31:58,887985
0,-2,-1,-1,-2,-1,1,-2,2021-08-16 12:31:58,888983
-1,-1,1,0,0,0,-2,0,2021-08-16 12:31:58,888983
-2,-2,-3,-1,-2,-1,1,-1,2021-08-16 12:31:58,888983
-2,-1,-1,0,0,0,-2,-1,2021-08-16 12:31:58,888983
-1,-2,-3,-4,-3,-6,-5,-2,2021-08-16 12:31:58,903984
-2,0,-1,-1,3,7,8,-1,2021-08-16 12:31:58,903984
-2,-1,-2,-2,-2,-5,-6,0,2021-08-16 12:31:58,903984
2,0,1,2,3,6,4,1,2021-08-16 12:31:58,919983
2,0,-1,-1,0,3,0,0,2021-08-16 12:31:58,934982
-2,-2,-3,-1,-2,-5,-3,0,2021-08-16 12:31:58,934982
-1,0,0,-1,1,-2,0,-3,2021-08-16 12:31:58,934982
-1,-3,-1,-2,-2,-6,-2,-1,2021-08-16 12:31:58,950983
0,1,0,-2,-2,-1,0,-1,2021-08-16 12:31:58,950983
-1,-1,-1,1,1,1,-1,-1,2021-08-16 12:31:58,966983
-1,0,-3,-2,-2,-2,0,-1,2021-08-16 12:31:58,966983
-2,0,-2,-1,-2,-2,-3,-3,2021-08-16 12:31:58,982982
0,0,-1,2,0,1,0,0,2021-08-16 12:31:58,982982
-1,-1,-1,-1,-1,-1,-3,0,2021-08-16 12:31:58,982982
-2,0,0,-1,-1,2,1,-3,2021-08-16 12:31:58,998980
-1,0,-1,-1,-2,0,-3,0,2021-08-16 12:31:58,998980
-2,-2,-1,-1,-1,-1,2,-1,2021-08-16 12:31:58,998980
1,1,0,0,0,0,-1,1,2021-08-16 12:31:58,998980
-2,-1,1,-1,-1,0,-1,-1,2021-08-16 12:31:58,999984
-1,-1,-2,-4,-1,-5,-2,-4,2021-08-16 12:31:58,999984
-3,-2,-2,-3,-3,-8,-9,-3,2021-08-16 12:31:58,999984
3,3,3,2,6,13,4,2,2021-08-16 12:31:58,999984
-1,-1,-3,-3,-2,-3,-2,0,2021-08-16 12:31:59,014983
0,-1,1,1,2,6,1,0,2021-08-16 12:31:59,014983
-2,-1,-1,-3,-3,-4,-1,-1,2021-08-16 12:31:59,014983
-3,-2,-1,-3,-2,-6,-4,-3,2021-08-16 12:31:59,015985
0,-1,-2,-1,-1,0,0,-2,2021-08-16 12:31:59,030982
0,-1,-2,-1,0,1,3,1,2021-08-16 12:31:59,030982
-1,0,-1,-1,-1,0,-1,-1,2021-08-16 12:31:59,030982
-1,0,-2,-1,-3,-1,-2,0,2021-08-16 12:31:59,030982
-1,-1,1,-1,0,-3,-2,0,2021-08-16 12:31:59,046981
-2,-1,-2,-2,-3,-5,-1,-2,2021-08-16 12:31:59,046981
-1,0,0,1,3,6,2,-1,2021-08-16 12:31:59,046981
0,0,0,-1,-1,0,-2,-3,2021-08-16 12:31:59,046981
-3,-1,-3,-3,-3,-5,0,-1,2021-08-16 12:31:59,078980
1,0,0,-1,0,2,-4,-1,2021-08-16 12:31:59,078980
0,-1,-1,0,2,3,4,1,2021-08-16 12:31:59,078980
-1,-2,-2,-3,-3,-8,-4,-3,2021-08-16 12:31:59,078980
-2,-1,-1,-2,-2,-1,-2,1,2021-08-16 12:31:59,094982
-1,-3,-1,-1,-2,-6,-2,-1,2021-08-16 12:31:59,109982
0,-1,0,-1,-2,-2,-4,0,2021-08-16 12:31:59,125984
1,0,0,1,-1,0,0,1,2021-08-16 12:31:59,125984
1,0,1,0,0,1,1,-1,2021-08-16 12:31:59,125984
-2,-1,-1,-2,-2,-3,-3,-1,2021-08-16 12:31:59,141985
1,2,1,1,2,4,2,2,2021-08-16 12:31:59,141985
-3,-2,-2,0,-2,-1,-1,-2,2021-08-16 12:31:59,141985
0,0,-1,0,0,2,0,-1,2021-08-16 12:31:59,142985
-1,-1,-2,-1,-2,-6,-2,-1,2021-08-16 12:31:59,142985
-1,-1,1,1,2,5,0,1,2021-08-16 12:31:59,142985
1,0,2,0,0,-3,-1,-1,2021-08-16 12:31:59,142985
-1,1,-1,-1,0,0,2,-2,2021-08-16 12:31:59,142985
0,0,0,0,1,1,-1,0,2021-08-16 12:31:59,142985
-1,-1,-3,-2,-2,-4,-2,-4,2021-08-16 12:31:59,143982
-1,0,-2,1,-1,-2,-1,1,2021-08-16 12:31:59,143982
-1,-1,-1,-1,-5,-6,-5,-1,2021-08-16 12:31:59,173983
2,0,1,2,3,10,5,0,2021-08-16 12:31:59,188980
-3,-1,-1,-3,-3,-3,-2,-1,2021-08-16 12:31:59,204981
-2,-2,-1,-1,-1,-2,-2,-2,2021-08-16 12:31:59,204981
-1,-1,-1,1,1,0,-3,-1,2021-08-16 12:31:59,204981
-2,-2,-1,-1,-4,-4,0,-1,2021-08-16 12:31:59,204981
-1,-4,-2,-1,-2,-4,0,-1,2021-08-16 12:31:59,220984
-1,0,-1,-3,-3,-1,1,-1,2021-08-16 12:31:59,220984
-2,-1,0,-3,-1,-3,-4,0,2021-08-16 12:31:59,220984
-3,-1,-1,0,-1,-2,-1,0,2021-08-16 12:31:59,221984
1,2,2,1,2,7,5,2,2021-08-16 12:31:59,232982
-1,0,-1,-1,-3,-3,-1,-2,2021-08-16 12:31:59,233984
-1,0,0,0,-1,1,-1,0,2021-08-16 12:31:59,233984
-1,0,-1,0,0,1,-1,-2,2021-08-16 12:31:59,251982
-1,-2,-3,-3,-1,-5,-2,-1,2021-08-16 12:31:59,267982
-1,-1,-3,0,0,-1,-2,1,2021-08-16 12:31:59,283985
-1,-2,-2,-1,-1,1,2,-2,2021-08-16 12:31:59,283985
1,0,-1,-1,-3,-2,0,1,2021-08-16 12:31:59,283985
0,-1,-1,2,0,0,-1,3,2021-08-16 12:31:59,283985
-2,-3,0,-2,0,-1,-1,-3,2021-08-16 12:31:59,284986
2,-1,0,1,0,-3,0,2,2021-08-16 12:31:59,284986
-2,-3,-2,-2,-3,-2,0,-1,2021-08-16 12:31:59,284986
1,0,1,2,3,5,0,2,2021-08-16 12:31:59,284986
-1,-3,-1,-1,-4,-3,1,-1,2021-08-16 12:31:59,284986
1,1,1,2,2,5,-3,-2,2021-08-16 12:31:59,284986
-1,-1,-1,0,0,1,0,-1,2021-08-16 12:31:59,285986
-3,-2,0,-4,-4,-8,-4,-4,2021-08-16 12:31:59,285986
1,0,-1,-1,-1,2,1,0,2021-08-16 12:31:59,285986
0,-1,-2,-1,-1,1,1,-1,2021-08-16 12:31:59,331982
-1,0,-1,-1,2,1,-1,0,2021-08-16 12:31:59,347982
-2,-1,-1,-1,-3,-5,-3,-3,2021-08-16 12:31:59,362983
-1,1,0,-2,-1,-1,-5,1,2021-08-16 12:31:59,362983
-1,-1,-1,-2,-1,3,2,1,2021-08-16 12:31:59,362983
0,-1,1,-1,-1,0,-2,-2,2021-08-16 12:31:59,362983
-1,-2,-1,-2,-1,-2,0,-1,2021-08-16 12:31:59,362983
-1,-2,-3,-1,0,-1,1,-1,2021-08-16 12:31:59,363983
-2,-3,0,-1,-2,-4,-1,-1,2021-08-16 12:31:59,363983
1,0,0,1,1,5,3,2,2021-08-16 12:31:59,363983
-2,-1,-3,-4,-3,-4,-3,-2,2021-08-16 12:31:59,363983
-1,-1,0,1,1,6,3,1,2021-08-16 12:31:59,363983
-1,0,-1,-1,0,2,0,0,2021-08-16 12:31:59,364984
-3,-2,-3,-2,-2,-9,-6,-3,2021-08-16 12:31:59,364984
2,1,-2,1,1,1,4,1,2021-08-16 12:31:59,364984
0,0,0,1,0,4,-1,-1,2021-08-16 12:31:59,364984
0,0,-1,0,0,-3,-1,-1,2021-08-16 12:31:59,393981
-1,-2,0,-2,-1,1,-1,-2,2021-08-16 12:31:59,393981
-1,-1,-2,-2,-2,-2,-1,0,2021-08-16 12:31:59,393981
0,-4,-1,-2,-3,-5,-3,-3,2021-08-16 12:31:59,393981
-3,0,0,1,-1,-1,-1,-1,2021-08-16 12:31:59,409984
0,-1,-1,-1,-1,-4,-3,-1,2021-08-16 12:31:59,409984
-3,-1,0,-2,-1,-1,-3,-2,2021-08-16 12:31:59,409984
-1,-2,-1,-1,-4,-5,-3,-1,2021-08-16 12:31:59,409984
1,0,0,0,4,8,5,1,2021-08-16 12:31:59,440980
-2,-2,-2,-3,-2,-5,-4,-3,2021-08-16 12:31:59,440980
1,0,0,1,2,8,6,1,2021-08-16 12:31:59,440980
1,-1,-1,-3,0,-1,-1,-2,2021-08-16 12:31:59,440980
0,-1,-2,-1,0,-4,-4,-2,2021-08-16 12:31:59,440980
-3,-1,-1,-1,-4,-8,0,-2,2021-08-16 12:31:59,440980
-1,-1,0,1,-1,2,0,-2,2021-08-16 12:31:59,456982
0,0,0,0,1,2,1,-1,2021-08-16 12:31:59,456982
0,-2,-2,-3,-2,-5,-2,-1,2021-08-16 12:31:59,472984
-2,1,-2,0,0,3,0,0,2021-08-16 12:31:59,489187
-2,-2,-4,-2,-4,-9,-7,-4,2021-08-16 12:31:59,489187
1,0,1,1,1,3,-2,1,2021-08-16 12:31:59,489187
-2,-2,-1,-1,0,2,-1,-1,2021-08-16 12:31:59,504982
-1,-1,0,0,2,6,2,-1,2021-08-16 12:31:59,504982
-3,-1,-2,-2,-1,-5,-1,0,2021-08-16 12:31:59,504982
-1,1,-1,0,0,1,-1,-1,2021-08-16 12:31:59,504982
1,1,0,3,1,4,1,1,2021-08-16 12:31:59,504982
2,0,0,-2,-1,-1,-2,1,2021-08-16 12:31:59,504982
0,1,-1,2,1,1,-2,-1,2021-08-16 12:31:59,520982
-1,-1,-1,-1,-1,-5,0,-2,2021-08-16 12:31:59,520982
0,-1,-1,-2,-4,-6,-2,-1,2021-08-16 12:31:59,520982
-3,0,-3,-1,-2,-1,-1,-2,2021-08-16 12:31:59,520982
0,1,2,-1,2,4,-2,-1,2021-08-16 12:31:59,520982
-1,-2,0,-2,-1,-2,-3,0,2021-08-16 12:31:59,520982
-1,-1,-3,-1,-2,-1,0,-1,2021-08-16 12:31:59,551980
1,-1,1,-1,0,-4,-4,1,2021-08-16 12:31:59,551980
-2,-3,-2,-4,-2,-2,1,0,2021-08-16 12:31:59,551980
-1,-1,-2,0,1,-1,-2,0,2021-08-16 12:31:59,551980
-2,-1,-1,-3,-3,-3,-3,-3,2021-08-16 12:31:59,567983
0,-1,-1,-1,1,3,3,0,2021-08-16 12:31:59,567983
-2,-1,-3,-2,-4,-4,-1,-2,2021-08-16 12:31:59,567983
0,0,2,1,1,3,2,1,2021-08-16 12:31:59,567983
-3,-1,-2,-2,-2,-5,0,-4,2021-08-16 12:31:59,583982
1,-1,-1,0,0,-1,-3,0,2021-08-16 12:31:59,583982
0,-1,-1,-1,-1,2,3,-1,2021-08-16 12:31:59,583982
0,1,-2,-2,-4,-4,-4,-1,2021-08-16 12:31:59,583982
-2,-1,-2,-1,-2,2,2,0,2021-08-16 12:31:59,615980
-2,1,-2,0,-2,-4,-3,-2,2021-08-16 12:31:59,615980
0,0,1,4,3,5,1,-1,2021-08-16 12:31:59,615980
-1,-1,-2,0,1,1,-1,0,2021-08-16 12:31:59,615980
-3,-1,-1,0,1,1,0,0,2021-08-16 12:31:59,615980
1,-1,-2,-1,-1,0,-1,0,2021-08-16 12:31:59,616983
-1,-1,-4,-3,-5,-7,-5,-3,2021-08-16 12:31:59,631980
-3,-2,-3,-1,-3,-3,-1,-3,2021-08-16 12:31:59,631980
0,0,1,1,2,2,0,0,2021-08-16 12:31:59,647980
-1,0,-1,-1,0,2,0,-1,2021-08-16 12:31:59,647980
0,0,0,-1,-1,-1,-6,0,2021-08-16 12:31:59,647980
-1,0,2,-2,-2,-2,0,0,2021-08-16 12:31:59,647980
1,-2,-1,-2,-4,-5,-1,-3,2021-08-16 12:31:59,679980
1,0,-2,0,1,-1,-1,0,2021-08-16 12:31:59,679980
-2,1,1,0,1,2,-2,1,2021-08-16 12:31:59,679980
-2,-1,-2,-1,0,-3,-3,-3,2021-08-16 12:31:59,679980
-1,0,-1,-1,0,-4,-1,0,2021-08-16 12:31:59,679980
-1,-2,-2,-1,-3,-5,0,-2,2021-08-16 12:31:59,679980
-1,-3,-2,-1,1,2,1,-2,2021-08-16 12:31:59,695982
1,0,-1,-2,-1,-1,-1,-1,2021-08-16 12:31:59,695982
-2,-1,-3,-2,-1,-1,-1,-1,2021-08-16 12:31:59,711980
1,0,0,-1,-1,1,-1,1,2021-08-16 12:31:59,711980
-2,-2,-5,-2,-2,-3,-1,-2,2021-08-16 12:31:59,711980
0,0,0,2,0,2,0,-2,2021-08-16 12:31:59,711980
-1,-3,0,-1,-1,-1,1,-2,2021-08-16 12:31:59,727982
-1,0,0,-1,0,1,0,-1,2021-08-16 12:31:59,727982
-2,-2,-3,-2,-6,-11,-4,-2,2021-08-16 12:31:59,743982
0,0,0,1,3,9,4,0,2021-08-16 12:31:59,743982
0,-1,-1,-1,-2,-2,-2,0,2021-08-16 12:31:59,743982
-2,-1,-2,-3,-1,-2,0,-3,2021-08-16 12:31:59,743982
-1,0,0,-1,-2,-1,1,-1,2021-08-16 12:31:59,743982
-3,-2,-3,-2,-5,-6,-3,-1,2021-08-16 12:31:59,743982
2,1,0,2,2,4,-3,1,2021-08-16 12:31:59,775982
-1,0,0,-2,-2,-4,-2,-2,2021-08-16 12:31:59,784982
