EMG 1,EMG 2,EMG 3,EMG 4,EMG 5,EMG 6,EMG 7,EMG 8,Timestamp,Milliseconds
-2,0,1,0,-1,0,0,-1,2021-08-06 18:22:13,903058
1,2,2,3,1,0,2,-1,2021-08-06 18:22:13,903058
-2,0,1,3,1,-2,0,-1,2021-08-06 18:22:13,919059
-1,-3,-4,-2,-1,-2,-3,-1,2021-08-06 18:22:13,935059
-1,-1,-2,-5,-2,-1,-2,0,2021-08-06 18:22:13,935059
3,2,-3,-7,0,2,0,-1,2021-08-06 18:22:13,935059
-1,0,0,-1,-6,-3,1,-1,2021-08-06 18:22:13,935059
-4,-4,-1,0,-3,-2,-2,-2,2021-08-06 18:22:13,935059
-1,0,1,1,-1,-1,0,-1,2021-08-06 18:22:13,935059
0,0,2,2,4,1,0,2,2021-08-06 18:22:13,935059
3,1,0,0,3,2,2,1,2021-08-06 18:22:13,935059
-1,-1,-3,-2,-2,-2,-1,0,2021-08-06 18:22:13,936059
-2,-3,-2,-2,-3,-2,-1,-1,2021-08-06 18:22:13,936059
0,-1,0,3,4,3,2,0,2021-08-06 18:22:13,936059
-1,-1,0,-1,-2,0,-2,-1,2021-08-06 18:22:13,983061
-3,-2,4,3,-2,-4,-1,-4,2021-08-06 18:22:13,983061
-1,0,1,1,1,-1,0,-3,2021-08-06 18:22:13,983061
1,0,-8,-1,-1,0,1,0,2021-08-06 18:22:13,983061
-1,0,2,-3,-1,-2,-1,-1,2021-08-06 18:22:13,983061
0,-1,-3,-9,-2,0,-2,-1,2021-08-06 18:22:13,999058
-1,0,1,4,-1,0,-1,-1,2021-08-06 18:22:13,999058
-3,-1,-1,3,-6,-4,-1,-2,2021-08-06 18:22:13,999058
0,1,-1,-8,7,5,4,0,2021-08-06 18:22:13,999058
-2,0,-1,2,0,-4,-2,0,2021-08-06 18:22:14,000061
-1,-2,0,-6,-5,-4,-2,-3,2021-08-06 18:22:14,046061
-3,-2,-2,-2,-3,-3,-3,-4,2021-08-06 18:22:14,046061
4,4,5,10,18,11,7,4,2021-08-06 18:22:14,046061
2,2,-2,0,1,1,1,1,2021-08-06 18:22:14,046061
-1,0,-1,2,1,1,1,1,2021-08-06 18:22:14,046061
-3,-2,0,1,-6,-5,-2,-2,2021-08-06 18:22:14,046061
-2,-4,2,-4,-8,-5,-5,-3,2021-08-06 18:22:14,046061
1,-2,-4,-5,-3,0,-1,-1,2021-08-06 18:22:14,047060
0,1,-4,-8,-4,1,1,-2,2021-08-06 18:22:14,047060
-3,-4,0,-5,-5,-3,-5,-3,2021-08-06 18:22:14,047060
-3,-3,-3,0,-3,-3,-2,-1,2021-08-06 18:22:14,062061
2,1,3,2,5,2,0,2,2021-08-06 18:22:14,062061
1,-1,0,1,0,-1,-2,0,2021-08-06 18:22:14,062061
1,1,1,4,4,1,1,1,2021-08-06 18:22:14,062061
-2,0,0,4,-3,-3,-1,-1,2021-08-06 18:22:14,078060
-1,-2,-2,-8,-1,-1,-2,-1,2021-08-06 18:22:14,078060
-2,-2,-2,5,-5,-3,-2,-2,2021-08-06 18:22:14,094060
1,-1,-4,-10,1,2,0,-1,2021-08-06 18:22:14,094060
-1,-1,-4,-2,2,2,-1,-1,2021-08-06 18:22:14,110059
0,0,4,5,-2,-1,0,-1,2021-08-06 18:22:14,126061
1,1,3,4,4,2,1,1,2021-08-06 18:22:14,141062
1,-2,-2,4,-2,-1,-1,0,2021-08-06 18:22:14,157061
-1,-1,-1,-2,-3,-3,-3,-2,2021-08-06 18:22:14,157061
-1,1,0,-3,-1,1,0,-1,2021-08-06 18:22:14,157061
0,0,0,-3,-1,1,0,-1,2021-08-06 18:22:14,157061
-1,-2,-2,-2,-4,-3,-1,-1,2021-08-06 18:22:14,162061
-1,-2,-4,-4,-3,-2,-2,-3,2021-08-06 18:22:14,162061
0,0,0,4,0,0,-2,-1,2021-08-06 18:22:14,162061
1,-1,3,3,3,1,1,1,2021-08-06 18:22:14,163061
-2,-2,0,-3,-1,-1,-2,-2,2021-08-06 18:22:14,163061
1,0,-8,-3,-2,-1,-1,-3,2021-08-06 18:22:14,163061
0,-1,2,4,1,-1,0,0,2021-08-06 18:22:14,163061
1,0,-2,7,3,3,1,1,2021-08-06 18:22:14,173060
-1,2,3,-5,1,1,-1,0,2021-08-06 18:22:14,173060
-4,-5,2,-4,-7,-5,-3,-4,2021-08-06 18:22:14,189061
1,1,-12,-13,-2,1,2,1,2021-08-06 18:22:14,189061
-2,-2,-1,-2,-2,-3,-1,-2,2021-08-06 18:22:14,189061
0,0,3,9,4,0,2,0,2021-08-06 18:22:14,189061
0,0,0,2,-1,-2,-1,0,2021-08-06 18:22:14,220061
-2,0,3,5,3,1,0,0,2021-08-06 18:22:14,220061
-1,-1,-3,-5,-6,-3,-4,-2,2021-08-06 18:22:14,220061
-2,-3,-2,-8,-6,-2,1,-1,2021-08-06 18:22:14,220061
-2,-2,-3,-2,4,2,-1,1,2021-08-06 18:22:14,250061
-1,-2,1,3,3,2,1,1,2021-08-06 18:22:14,250061
1,4,2,3,4,2,2,2,2021-08-06 18:22:14,250061
-3,-1,-3,3,-2,-2,0,-1,2021-08-06 18:22:14,250061
0,-1,-3,-2,-3,-2,0,0,2021-08-06 18:22:14,250061
-3,-3,2,-1,-4,-4,-2,-2,2021-08-06 18:22:14,251061
0,-1,-4,-3,0,-1,-1,-2,2021-08-06 18:22:14,251061
1,-3,-4,6,0,0,-1,-1,2021-08-06 18:22:14,251061
-2,-2,0,-5,-3,-2,-2,-2,2021-08-06 18:22:14,282060
1,-1,-4,-11,-1,1,1,0,2021-08-06 18:22:14,297058
-1,0,4,-3,-1,-1,1,0,2021-08-06 18:22:14,297058
-1,1,-2,3,2,1,0,-1,2021-08-06 18:22:14,297058
-1,1,2,7,2,0,0,-1,2021-08-06 18:22:14,297058
-3,-2,2,6,0,-1,-2,-2,2021-08-06 18:22:14,297058
0,-1,-3,-7,-3,-1,-1,-1,2021-08-06 18:22:14,297058
-3,-3,2,-2,-3,-3,-3,-3,2021-08-06 18:22:14,297058
-1,0,-4,-1,-4,-1,-1,0,2021-08-06 18:22:14,312059
0,-1,1,0,1,2,-1,1,2021-08-06 18:22:14,312059
-3,-2,-2,0,-4,-3,-3,-2,2021-08-06 18:22:14,312059
0,0,-1,-1,5,3,2,1,2021-08-06 18:22:14,313062
-1,-1,3,-4,0,0,-2,0,2021-08-06 18:22:14,343060
-2,0,-2,-1,-4,-3,-2,-3,2021-08-06 18:22:14,359061
-1,-1,-1,3,1,0,-1,0,2021-08-06 18:22:14,375062
-1,-3,0,-4,-3,-3,-3,-1,2021-08-06 18:22:14,375062
0,-1,-2,-2,-1,-1,1,-1,2021-08-06 18:22:14,375062
-2,0,-2,-1,-3,-2,-1,0,2021-08-06 18:22:14,375062
0,1,0,3,2,0,1,-1,2021-08-06 18:22:14,375062
-3,-1,-1,1,-3,-1,-1,-2,2021-08-06 18:22:14,376061
2,1,2,6,5,3,2,3,2021-08-06 18:22:14,376061
1,1,-3,-6,-2,-1,1,-1,2021-08-06 18:22:14,376061
-2,-1,-3,-3,-2,1,-1,-3,2021-08-06 18:22:14,376061
2,0,-1,-2,1,0,-2,-1,2021-08-06 18:22:14,376061
-2,-3,0,1,-4,-4,-3,-2,2021-08-06 18:22:14,391062
0,-2,3,12,3,0,0,0,2021-08-06 18:22:14,391062
2,1,-1,-7,0,1,2,3,2021-08-06 18:22:14,391062
-1,0,0,-9,-3,-2,-1,0,2021-08-06 18:22:14,391062
1,-2,-7,-3,-4,-2,-3,-2,2021-08-06 18:22:14,423061
-1,-2,-1,-1,2,3,0,-2,2021-08-06 18:22:14,439061
-3,-4,0,-1,-3,-2,-2,1,2021-08-06 18:22:14,455060
0,0,2,7,1,-1,-1,-1,2021-08-06 18:22:14,471061
-2,0,-2,-1,0,2,1,0,2021-08-06 18:22:14,471061
-4,-2,-4,-3,-7,-5,-2,-2,2021-08-06 18:22:14,471061
1,2,4,8,11,6,3,2,2021-08-06 18:22:14,471061
0,0,1,1,0,-1,-1,0,2021-08-06 18:22:14,471061
0,-1,-4,-12,-5,-2,-1,0,2021-08-06 18:22:14,472062
-1,-1,-3,-5,-2,-3,-2,0,2021-08-06 18:22:14,472062
-4,-3,-2,-2,-5,-4,-3,-3,2021-08-06 18:22:14,472062
-3,-1,2,5,-2,-4,-2,-2,2021-08-06 18:22:14,472062
2,1,2,13,8,4,4,1,2021-08-06 18:22:14,472062
4,3,3,-10,4,4,3,3,2021-08-06 18:22:14,472062
-2,-2,-7,-9,-3,-2,-2,-2,2021-08-06 18:22:14,472062
-4,-1,-6,-3,-2,-1,-2,-1,2021-08-06 18:22:14,473061
-2,-2,4,-3,-8,-4,-3,-3,2021-08-06 18:22:14,487062
0,-1,-2,6,2,-2,0,0,2021-08-06 18:22:14,503062
-1,-3,-2,3,-1,0,-1,-1,2021-08-06 18:22:14,519060
-1,0,-6,-5,-4,-1,-2,-1,2021-08-06 18:22:14,535062
0,0,0,-3,4,4,1,-1,2021-08-06 18:22:14,565059
-2,1,4,6,2,3,0,0,2021-08-06 18:22:14,565059
0,-1,2,6,1,0,-1,0,2021-08-06 18:22:14,565059
1,-1,-5,-9,2,1,3,3,2021-08-06 18:22:14,565059
-2,-3,-1,-4,-9,-9,-4,-2,2021-08-06 18:22:14,565059
-1,-2,-7,-2,-7,-4,-2,-3,2021-08-06 18:22:14,566063
0,0,0,0,3,1,0,0,2021-08-06 18:22:14,566063
0,1,3,9,6,5,0,0,2021-08-06 18:22:14,566063
-1,0,-2,-7,1,1,-1,0,2021-08-06 18:22:14,566063
-2,-2,1,-6,-7,-4,-2,-2,2021-08-06 18:22:14,567062
-4,-4,-4,-7,-11,-9,-4,-4,2021-08-06 18:22:14,567062
1,0,-7,-7,-6,-4,-1,-1,2021-08-06 18:22:14,567062
0,1,7,13,8,5,0,1,2021-08-06 18:22:14,567062
0,-1,5,12,6,2,-1,-2,2021-08-06 18:22:14,567062
2,1,-7,-10,7,7,2,2,2021-08-06 18:22:14,568063
0,-1,1,-3,-5,-5,-1,-1,2021-08-06 18:22:14,568063
0,0,-2,-2,0,-1,2,1,2021-08-06 18:22:14,596061
-5,-7,-6,-12,-20,-17,-7,-6,2021-08-06 18:22:14,612061
0,-1,5,6,-7,-5,-3,-2,2021-08-06 18:22:14,628059
2,0,2,8,9,7,1,-2,2021-08-06 18:22:14,628059
3,4,-2,-5,16,11,5,2,2021-08-06 18:22:14,628059
1,1,0,0,-2,-2,0,1,2021-08-06 18:22:14,628059
-4,-1,0,1,-1,-3,-3,-3,2021-08-06 18:22:14,629062
-2,-2,-1,4,4,1,0,-1,2021-08-06 18:22:14,629062
3,2,7,13,6,3,1,2,2021-08-06 18:22:14,629062
-1,1,-3,-4,1,0,-1,-2,2021-08-06 18:22:14,629062
-4,-5,-8,-18,-26,-13,-2,-2,2021-08-06 18:22:14,629062
1,0,3,6,7,5,-1,1,2021-08-06 18:22:14,630061
-1,0,-4,-2,2,1,0,-1,2021-08-06 18:22:14,659060
-2,-4,-13,-13,-20,-12,-3,-2,2021-08-06 18:22:14,675061
-2,-4,-4,-8,-15,-10,-5,-4,2021-08-06 18:22:14,707059
0,-1,3,4,2,1,1,-2,2021-08-06 18:22:14,707059
-1,0,3,10,11,5,0,0,2021-08-06 18:22:14,707059
2,3,7,3,15,10,1,0,2021-08-06 18:22:14,707059
-4,-3,-7,4,0,0,-2,-2,2021-08-06 18:22:14,708060
0,1,-2,-11,0,0,0,0,2021-08-06 18:22:14,708060
0,-2,-4,2,2,-1,0,1,2021-08-06 18:22:14,708060
0,0,4,15,11,7,2,2,2021-08-06 18:22:14,708060
2,0,3,0,11,6,2,2,2021-08-06 18:22:14,708060
-3,-3,-4,-7,-12,-7,-5,-2,2021-08-06 18:22:14,708060
-2,-3,-3,-8,-14,-10,-4,-3,2021-08-06 18:22:14,709061
1,0,0,0,0,0,-2,0,2021-08-06 18:22:14,709061
0,1,0,4,4,1,1,-1,2021-08-06 18:22:14,709061
-4,-3,-6,-6,-10,-5,-2,-3,2021-08-06 18:22:14,709061
-2,-1,-2,-1,-4,-4,0,-3,2021-08-06 18:22:14,719059
-1,-1,-1,-1,0,1,1,-1,2021-08-06 18:22:14,720061
2,4,3,0,5,4,1,2,2021-08-06 18:22:14,755060
-1,1,-1,5,-1,-1,0,0,2021-08-06 18:22:14,755060
-2,-3,-7,-10,-8,-5,-4,-2,2021-08-06 18:22:14,755060
0,-3,1,-2,2,1,1,0,2021-08-06 18:22:14,755060
-1,-2,4,8,3,-1,-1,-2,2021-08-06 18:22:14,755060
1,0,-7,-5,7,5,3,2,2021-08-06 18:22:14,756060
1,0,5,3,-3,0,1,-1,2021-08-06 18:22:14,771061
0,-2,-5,-5,-8,-5,-2,2,2021-08-06 18:22:14,771061
-2,-2,-3,-8,1,0,-1,-2,2021-08-06 18:22:14,771061
-4,-5,3,-1,-16,-12,-5,-5,2021-08-06 18:22:14,771061
-2,-3,-9,-4,2,3,-4,-2,2021-08-06 18:22:14,787062
-2,-1,1,2,2,1,0,-3,2021-08-06 18:22:14,803061
-1,0,3,8,3,-1,-2,-2,2021-08-06 18:22:14,803061
3,3,3,14,21,11,4,4,2021-08-06 18:22:14,803061
2,2,2,4,5,2,1,2,2021-08-06 18:22:14,819061
-1,-2,-2,-13,-17,-9,-4,-3,2021-08-06 18:22:14,819061
-1,-3,-5,-5,-9,-6,-3,-1,2021-08-06 18:22:14,819061
-2,-2,1,0,0,-1,-3,-2,2021-08-06 18:22:14,819061
-1,-1,-4,-10,-6,-3,1,1,2021-08-06 18:22:14,835059
1,1,0,14,14,7,2,1,2021-08-06 18:22:14,851060
-1,2,7,11,7,3,0,0,2021-08-06 18:22:14,867062
-5,-3,-1,-7,-10,-9,-4,-2,2021-08-06 18:22:14,867062
0,0,-2,1,-8,-3,0,0,2021-08-06 18:22:14,867062
0,1,-7,-3,5,5,0,1,2021-08-06 18:22:14,867062
1,-1,2,-2,5,6,2,1,2021-08-06 18:22:14,867062
1,0,-6,-11,-1,-1,0,-1,2021-08-06 18:22:14,867062
-6,-5,-3,-10,-17,-13,-6,-6,2021-08-06 18:22:14,868060
2,1,5,7,3,0,3,1,2021-08-06 18:22:14,868060
2,2,3,5,3,2,1,1,2021-08-06 18:22:14,868060
1,-1,-1,10,5,3,0,0,2021-08-06 18:22:14,868060
-2,-2,1,1,6,2,1,-1,2021-08-06 18:22:14,899060
0,1,3,0,0,-2,-1,0,2021-08-06 18:22:14,899060
-1,-1,-3,-9,-8,-4,-1,-1,2021-08-06 18:22:14,915061
-3,-2,-3,-5,-10,-5,-2,-1,2021-08-06 18:22:14,930062
1,-1,-1,9,13,7,1,2,2021-08-06 18:22:14,946062
-1,-1,-1,-4,2,2,0,0,2021-08-06 18:22:14,946062
-1,-2,-3,-11,-15,-8,-3,0,2021-08-06 18:22:14,946062
-2,0,-3,-6,-6,-5,-1,-1,2021-08-06 18:22:14,946062
-1,-2,0,2,2,2,0,-1,2021-08-06 18:22:14,947063
1,0,8,12,15,6,-1,0,2021-08-06 18:22:14,947063
-1,-2,0,0,1,-3,-2,-3,2021-08-06 18:22:14,947063
1,0,3,6,0,1,3,0,2021-08-06 18:22:14,947063
-2,-2,-2,-2,-10,-4,-3,-1,2021-08-06 18:22:14,947063
-3,-1,-5,-20,-4,-2,-3,-1,2021-08-06 18:22:14,947063
-2,-1,-4,-2,0,2,-1,0,2021-08-06 18:22:14,948062
1,0,-2,5,5,3,1,-1,2021-08-06 18:22:14,948062
-1,2,2,3,2,-2,1,0,2021-08-06 18:22:14,978059
-3,-3,-3,-2,-14,-7,-2,-3,2021-08-06 18:22:14,994061
0,1,2,10,6,0,-1,-1,2021-08-06 18:22:15,010059
0,1,4,2,11,7,2,0,2021-08-06 18:22:15,026060
-1,-1,2,2,0,0,-1,-2,2021-08-06 18:22:15,026060
-3,-2,-9,-11,-5,-4,0,-1,2021-08-06 18:22:15,026060
-1,-4,-10,-17,-17,-10,-4,-1,2021-08-06 18:22:15,026060
-4,-3,0,-3,-8,-5,-4,-2,2021-08-06 18:22:15,026060
2,3,7,8,15,9,3,1,2021-08-06 18:22:15,027060
3,5,8,17,23,16,4,4,2021-08-06 18:22:15,027060
-4,-5,-3,-10,-24,-19,-4,-5,2021-08-06 18:22:15,027060
-5,-2,-6,-12,-16,-12,-4,-4,2021-08-06 18:22:15,027060
-3,-2,-3,-10,-7,-4,-1,-2,2021-08-06 18:22:15,041061
2,0,1,12,10,5,1,0,2021-08-06 18:22:15,057061
1,3,7,27,30,17,4,3,2021-08-06 18:22:15,057061
2,0,0,0,3,1,-1,-1,2021-08-06 18:22:15,057061
-4,-4,-5,-34,-26,-13,-6,-3,2021-08-06 18:22:15,057061
-4,-4,-4,-5,-9,-2,-3,-2,2021-08-06 18:22:15,057061
-4,-4,-3,-5,-4,-3,-1,0,2021-08-06 18:22:15,058060
4,3,-1,9,12,8,3,3,2021-08-06 18:22:15,058060
4,7,11,27,32,17,5,3,2021-08-06 18:22:15,072060
-2,-2,-4,-10,-21,-14,-3,-4,2021-08-06 18:22:15,072060
-6,-5,-9,-28,-33,-19,-7,-5,2021-08-06 18:22:15,072060
0,-1,1,5,5,2,0,0,2021-08-06 18:22:15,072060
0,0,1,13,10,5,5,2,2021-08-06 18:22:15,103060
-2,-1,0,2,3,-4,-4,-3,2021-08-06 18:22:15,103060
1,-1,-10,-4,2,6,5,2,2021-08-06 18:22:15,103060
1,-2,-4,-13,-6,2,3,0,2021-08-06 18:22:15,119060
-1,-2,-4,1,2,1,-1,0,2021-08-06 18:22:15,135060
-1,1,7,12,8,4,-1,-1,2021-08-06 18:22:15,135060
-1,-2,-4,-3,-2,-4,-3,-4,2021-08-06 18:22:15,135060
-3,-1,-6,0,-4,-3,-3,-2,2021-08-06 18:22:15,135060
-1,-3,2,-5,-2,1,-3,-1,2021-08-06 18:22:15,135060
-1,0,6,-18,-18,-11,-4,-1,2021-08-06 18:22:15,136060
-3,-2,-6,-6,-11,-7,-5,-4,2021-08-06 18:22:15,136060
5,4,5,5,12,8,6,6,2021-08-06 18:22:15,136060
-4,-3,1,18,6,0,-2,-3,2021-08-06 18:22:15,183060
2,0,-4,6,9,6,3,2,2021-08-06 18:22:15,183060
1,0,1,-1,8,6,3,2,2021-08-06 18:22:15,215060
-2,-3,-3,-6,-8,-5,-1,-1,2021-08-06 18:22:15,215060
0,1,-2,1,2,-1,-2,-1,2021-08-06 18:22:15,215060
-1,-2,0,-3,-7,-4,-1,-2,2021-08-06 18:22:15,215060
1,0,2,2,-3,-2,1,1,2021-08-06 18:22:15,215060
-5,-4,-2,-4,-4,-4,-3,-4,2021-08-06 18:22:15,216061
0,1,-4,-8,-11,-7,-1,1,2021-08-06 18:22:15,216061
1,1,-2,12,8,4,2,1,2021-08-06 18:22:15,216061
0,1,-2,-5,11,8,2,0,2021-08-06 18:22:15,216061
3,3,5,5,8,5,3,2,2021-08-06 18:22:15,217062
-5,-7,-9,-26,-29,-20,-6,-5,2021-08-06 18:22:15,217062
-4,-4,-10,-2,-10,-6,-3,-3,2021-08-06 18:22:15,217062
3,4,9,28,33,20,5,3,2021-08-06 18:22:15,230061
3,4,11,15,21,12,4,4,2021-08-06 18:22:15,230061
0,0,7,9,6,-2,-3,-4,2021-08-06 18:22:15,246062
-5,-6,-18,-46,-55,-26,-6,-3,2021-08-06 18:22:15,262064
-2,-5,-7,-21,-31,-14,-5,-3,2021-08-06 18:22:15,262064
-1,-1,0,6,1,1,-3,-1,2021-08-06 18:22:15,262763
2,2,4,11,17,8,3,1,2021-08-06 18:22:15,262763
2,2,1,13,28,16,3,3,2021-08-06 18:22:15,263060
1,2,1,13,19,8,2,2,2021-08-06 18:22:15,263060
0,1,9,7,6,3,1,1,2021-08-06 18:22:15,263060
-3,-1,-8,-23,-30,-16,-3,-3,2021-08-06 18:22:15,277090
-3,-2,-2,-5,-5,-7,-2,-4,2021-08-06 18:22:15,278092
-2,0,-1,-6,-9,-4,-2,0,2021-08-06 18:22:15,278092
-3,-2,-2,2,-1,-3,-3,-2,2021-08-06 18:22:15,278092
2,2,1,11,13,11,2,2,2021-08-06 18:22:15,310091
1,0,4,13,18,10,2,2,2021-08-06 18:22:15,310091
-1,-1,3,1,1,-4,0,-2,2021-08-06 18:22:15,310091
0,0,3,9,4,1,0,-2,2021-08-06 18:22:15,310091
-1,-1,-6,-22,-14,-7,-4,-1,2021-08-06 18:22:15,310091
-2,-5,-15,-28,-44,-26,-5,-4,2021-08-06 18:22:15,311088
2,1,7,15,16,5,2,3,2021-08-06 18:22:15,326090
-3,-4,-6,-15,-14,-7,-1,-2,2021-08-06 18:22:15,342092
-1,0,0,5,5,4,0,0,2021-08-06 18:22:15,342092
1,2,8,26,34,19,4,1,2021-08-06 18:22:15,342092
-2,0,2,6,8,4,-2,-2,2021-08-06 18:22:15,342092
0,1,-3,-13,-14,-7,-2,-2,2021-08-06 18:22:15,342092
0,0,5,2,-7,-4,-2,-1,2021-08-06 18:22:15,358092
-2,-2,-3,-15,-16,-8,-3,-1,2021-08-06 18:22:15,358092
0,-1,-4,1,2,1,0,-1,2021-08-06 18:22:15,358092
0,-3,-5,-2,-1,-2,-3,-3,2021-08-06 18:22:15,358092
1,0,2,10,12,7,4,1,2021-08-06 18:22:15,374089
1,1,1,8,2,0,0,0,2021-08-06 18:22:15,389088
-3,-3,0,-11,-4,-1,1,-2,2021-08-06 18:22:15,404092
1,2,0,-3,0,0,1,2,2021-08-06 18:22:15,420091
-2,-2,-4,-11,-12,-7,-2,0,2021-08-06 18:22:15,436090
-1,-1,6,10,8,1,1,-1,2021-08-06 18:22:15,436090
1,1,3,4,2,0,0,0,2021-08-06 18:22:15,436090
-1,-1,-2,-4,-2,-2,-2,-2,2021-08-06 18:22:15,436090
-2,-2,-7,-6,-7,-3,0,0,2021-08-06 18:22:15,437092
-1,-3,-1,8,7,3,0,-1,2021-08-06 18:22:15,437092
-2,-2,0,1,3,2,-2,0,2021-08-06 18:22:15,437092
-2,-4,-5,-10,-12,-5,-3,-2,2021-08-06 18:22:15,437092
-1,-1,-4,-4,-3,-2,-1,-1,2021-08-06 18:22:15,437092
2,3,5,10,16,9,3,2,2021-08-06 18:22:15,437092
0,-1,1,0,-3,-2,0,1,2021-08-06 18:22:15,438091
0,-1,-2,-3,-4,-3,-2,-2,2021-08-06 18:22:15,438091
-3,-3,-3,1,-3,-4,-2,-4,2021-08-06 18:22:15,468091
-3,-2,-5,-10,-10,-5,-3,-3,2021-08-06 18:22:15,484090
3,3,4,12,20,11,4,4,2021-08-06 18:22:15,499611
-3,-3,-4,-1,-3,-1,-1,-2,2021-08-06 18:22:15,499611
2,1,0,1,8,5,1,1,2021-08-06 18:22:15,499611
-2,-2,-1,-5,-6,-4,-4,-2,2021-08-06 18:22:15,499611
-3,-2,-3,-5,-10,-3,-3,-1,2021-08-06 18:22:15,500612
-1,0,-1,-1,1,0,0,0,2021-08-06 18:22:15,515609
1,-1,1,0,5,1,1,0,2021-08-06 18:22:15,531610
-1,-1,-2,-3,-2,0,0,-1,2021-08-06 18:22:15,531610
-3,-4,-5,-1,-9,-7,-5,-4,2021-08-06 18:22:15,531610
3,3,10,4,13,7,3,5,2021-08-06 18:22:15,531610
-2,-2,-6,-5,-7,-4,-3,-3,2021-08-06 18:22:15,531610
1,1,0,1,3,3,2,2,2021-08-06 18:22:15,532613
-1,-1,-2,1,-2,0,0,-1,2021-08-06 18:22:15,563612
-5,-4,-7,-3,-8,-7,-4,-4,2021-08-06 18:22:15,579611
1,1,1,-2,3,2,3,2,2021-08-06 18:22:15,579611
0,1,8,6,9,3,2,1,2021-08-06 18:22:15,579611
-2,-2,-3,-3,-4,-3,-1,-2,2021-08-06 18:22:15,579611
0,-1,1,-1,-4,-3,-1,0,2021-08-06 18:22:15,579611
-2,-1,-3,1,-3,-1,-3,-2,2021-08-06 18:22:15,579611
0,0,-5,-6,-2,0,0,2,2021-08-06 18:22:15,580611
1,3,8,13,6,4,2,2,2021-08-06 18:22:15,580611
0,1,-5,-7,4,2,1,-1,2021-08-06 18:22:15,580611
-1,-3,-3,-1,0,-2,0,0,2021-08-06 18:22:15,580611
-2,-3,-4,-7,-6,-4,-2,-1,2021-08-06 18:22:15,580611
-3,-2,0,-6,-7,-5,-3,-2,2021-08-06 18:22:15,580611
-3,-2,-1,3,0,0,-1,-2,2021-08-06 18:22:15,581610
-3,-1,1,2,1,0,0,-1,2021-08-06 18:22:15,595614
-2,-1,2,10,3,1,-3,-3,2021-08-06 18:22:15,595614
2,3,3,-5,3,0,-1,0,2021-08-06 18:22:15,595614
0,1,-3,-8,-5,-2,-1,-1,2021-08-06 18:22:15,595614
0,0,1,-2,-7,-3,-1,0,2021-08-06 18:22:15,611611
0,1,-2,-2,2,-1,0,0,2021-08-06 18:22:15,611611
0,-3,-6,2,0,-2,-3,-1,2021-08-06 18:22:15,627609
-2,1,1,1,-3,-2,-1,-1,2021-08-06 18:22:15,627609
0,0,3,4,6,4,2,0,2021-08-06 18:22:15,643611
0,-1,-2,2,0,3,0,1,2021-08-06 18:22:15,659610
-2,-2,-3,-7,-5,-2,-1,-2,2021-08-06 18:22:15,675612
0,-2,-2,-1,-2,-3,-3,-1,2021-08-06 18:22:15,675612
-1,0,-5,-4,-4,-2,-1,-1,2021-08-06 18:22:15,675612
-1,-1,3,1,1,0,-1,-2,2021-08-06 18:22:15,675612
-3,0,0,-4,-2,-2,0,-1,2021-08-06 18:22:15,675612
-1,-1,2,2,-6,-2,-1,-2,2021-08-06 18:22:15,691614
-1,0,-5,9,4,1,0,1,2021-08-06 18:22:15,691614
0,0,-3,-7,2,1,0,0,2021-08-06 18:22:15,691614
-2,-2,-2,-5,-1,-2,-2,-2,2021-08-06 18:22:15,691614
1,-1,-2,-2,1,0,0,0,2021-08-06 18:22:15,691614
1,0,4,0,0,-1,-1,0,2021-08-06 18:22:15,692611
-3,-1,-3,0,-3,-3,-1,-1,2021-08-06 18:22:15,692611
-1,0,-2,-1,-3,-3,-1,-2,2021-08-06 18:22:15,692611
-3,0,0,0,-3,-1,-2,-2,2021-08-06 18:22:15,692611
1,-1,0,-1,4,0,0,0,2021-08-06 18:22:15,723609
1,0,0,-2,1,0,0,1,2021-08-06 18:22:15,754612
-1,0,0,0,-3,-1,-2,-1,2021-08-06 18:22:15,754612
0,0,-1,1,2,0,-1,1,2021-08-06 18:22:15,754612
-2,-1,-1,-1,-3,-2,-2,-2,2021-08-06 18:22:15,754612
-4,-4,-2,0,-5,-3,-2,-4,2021-08-06 18:22:15,754612
4,2,0,1,0,4,2,2,2021-08-06 18:22:15,770614
-1,-2,-4,-1,1,0,1,0,2021-08-06 18:22:15,770614
0,0,-1,-4,-5,-3,-3,-1,2021-08-06 18:22:15,770614
0,0,1,2,3,0,-1,0,2021-08-06 18:22:15,770614
-1,-3,-2,0,-2,-1,-2,-2,2021-08-06 18:22:15,785612
-1,-1,-3,-2,-3,-2,-2,-1,2021-08-06 18:22:15,800611
-1,0,2,1,0,1,0,-1,2021-08-06 18:22:15,816613
0,1,-1,0,1,1,-1,0,2021-08-06 18:22:15,832613
0,-1,-4,-4,-3,-2,0,0,2021-08-06 18:22:15,832613
1,1,0,2,5,3,2,2,2021-08-06 18:22:15,841612
-1,-2,0,0,1,1,-1,-1,2021-08-06 18:22:15,841612
0,-2,0,1,-1,-2,-2,-2,2021-08-06 18:22:15,842612
-1,-2,-2,-2,-1,0,-2,-2,2021-08-06 18:22:15,842612
1,-1,-10,1,-1,-2,0,0,2021-08-06 18:22:15,842612
0,-4,-12,1,-1,0,0,-1,2021-08-06 18:22:15,842612
-3,0,16,-9,-5,-4,-3,-3,2021-08-06 18:22:15,842612
1,2,3,0,2,3,0,0,2021-08-06 18:22:15,842612
-2,0,8,4,2,0,1,-1,2021-08-06 18:22:15,843611
-1,-1,5,7,0,-2,-1,-1,2021-08-06 18:22:15,862611
-1,-4,-16,-9,-3,-1,0,1,2021-08-06 18:22:15,862611
0,-1,-2,-2,-3,-4,-1,0,2021-08-06 18:22:15,862611
-1,-1,3,-3,-2,-2,-1,-1,2021-08-06 18:22:15,862611
1,1,5,4,-1,0,0,-1,2021-08-06 18:22:15,863610
0,-1,-3,0,-1,0,0,0,2021-08-06 18:22:15,863610
-1,-2,-7,2,4,2,1,0,2021-08-06 18:22:15,878612
-1,-1,-4,-2,-1,-3,-1,-1,2021-08-06 18:22:15,894610
-1,2,6,0,1,-2,0,-1,2021-08-06 18:22:15,910609
0,1,1,-2,-5,-2,-1,-2,2021-08-06 18:22:15,910609
-1,1,1,5,10,4,0,0,2021-08-06 18:22:15,910609
-1,-3,-2,0,0,1,-1,-1,2021-08-06 18:22:15,911611
-2,-1,-4,-6,-2,0,-1,-2,2021-08-06 18:22:15,911611
-1,0,-4,-1,-5,-2,-2,0,2021-08-06 18:22:15,911611
-1,0,-1,1,-5,-1,0,2,2021-08-06 18:22:15,912611
0,-1,-4,-7,1,0,0,1,2021-08-06 18:22:15,912611
0,-1,-4,-7,-2,-1,-2,-2,2021-08-06 18:22:15,925612
-1,-2,0,3,0,0,0,-1,2021-08-06 18:22:15,925612
-2,-2,-1,-3,-3,-3,-2,-3,2021-08-06 18:22:15,925612
0,0,1,3,0,-2,1,0,2021-08-06 18:22:15,925612
-1,1,1,-5,0,0,2,1,2021-08-06 18:22:15,941612
-1,2,3,-6,0,-1,-1,0,2021-08-06 18:22:15,941612
-3,-2,2,4,-4,-2,-1,-2,2021-08-06 18:22:15,941612
0,-2,2,-3,-1,-1,0,-2,2021-08-06 18:22:15,941612
-1,0,-3,2,1,-1,-1,0,2021-08-06 18:22:15,957612
1,-1,-2,2,2,2,0,0,2021-08-06 18:22:15,957612
0,-1,0,-5,-1,-1,-2,0,2021-08-06 18:22:15,957612
-1,0,-2,-1,-1,-1,-2,0,2021-08-06 18:22:15,973611
0,-1,-1,-1,-1,1,0,1,2021-08-06 18:22:15,989614
0,-1,-1,3,1,0,0,-1,2021-08-06 18:22:15,989614
0,0,-3,-3,-1,-1,1,-1,2021-08-06 18:22:15,989614
-1,0,0,1,-2,0,-1,0,2021-08-06 18:22:15,989614
-2,-1,2,0,-1,-2,-2,-2,2021-08-06 18:22:15,989614
0,0,-2,0,0,-2,-2,-3,2021-08-06 18:22:15,990611
0,0,-1,0,-1,-1,0,1,2021-08-06 18:22:16,005610
1,-1,1,1,1,0,0,1,2021-08-06 18:22:16,021612
1,-1,0,-3,0,0,2,-1,2021-08-06 18:22:16,037613
0,-3,-3,3,1,-2,-2,0,2021-08-06 18:22:16,037613
-2,-2,-3,-3,-2,-3,-1,-3,2021-08-06 18:22:16,037613
-1,-2,-1,3,-6,-4,-1,-1,2021-08-06 18:22:16,037613
0,0,-6,-11,-1,-1,0,2,2021-08-06 18:22:16,037613
1,1,5,7,6,1,1,1,2021-08-06 18:22:16,038612
-2,-1,-1,-1,-2,-1,-2,-2,2021-08-06 18:22:16,038612
0,0,3,-3,1,1,0,-2,2021-08-06 18:22:16,038612
-2,-1,2,5,-6,-4,-4,-3,2021-08-06 18:22:16,052613
0,-1,-5,-3,-4,-2,-1,-2,2021-08-06 18:22:16,068609
0,-2,-2,-3,-4,-2,-2,0,2021-08-06 18:22:16,100611
0,0,-4,-4,-1,0,0,-1,2021-08-06 18:22:16,115610
0,-2,-4,8,6,3,2,0,2021-08-06 18:22:16,115610
-1,1,1,-10,3,3,0,0,2021-08-06 18:22:16,130610
0,-1,5,5,0,1,0,-1,2021-08-06 18:22:16,130610
-3,-2,-5,-4,-2,-1,-1,-1,2021-08-06 18:22:16,130610
-1,0,4,-2,-2,-2,0,1,2021-08-06 18:22:16,130610
-2,-2,-3,4,-1,-2,-1,-1,2021-08-06 18:22:16,130610
1,-2,-3,-1,-1,-1,0,-1,2021-08-06 18:22:16,130610
-1,-2,-1,0,-2,-3,-1,-1,2021-08-06 18:22:16,131611
-1,0,-2,-4,-2,-2,-2,-1,2021-08-06 18:22:16,131611
2,1,-1,0,3,4,2,2,2021-08-06 18:22:16,131611
0,1,3,5,4,2,1,0,2021-08-06 18:22:16,131611
-2,0,-4,-7,1,1,-2,-1,2021-08-06 18:22:16,131611
-1,-4,-2,1,-4,-3,-2,-4,2021-08-06 18:22:16,132613
-3,-4,-1,-2,-6,-3,-3,-3,2021-08-06 18:22:16,132613
2,2,-2,-1,5,4,3,2,2021-08-06 18:22:16,146611
2,1,1,4,5,4,1,0,2021-08-06 18:22:16,146611
0,0,3,0,0,0,-1,0,2021-08-06 18:22:16,161611
-4,-3,-2,0,-4,-5,-2,-3,2021-08-06 18:22:16,176612
-3,-3,-2,-2,-4,-6,-4,-1,2021-08-06 18:22:16,176612
1,1,-3,-5,1,3,1,0,2021-08-06 18:22:16,176612
0,0,-1,-1,2,2,0,0,2021-08-06 18:22:16,176612
-1,-1,0,4,2,2,0,-1,2021-08-06 18:22:16,177610
-1,-1,-1,1,-2,-1,-1,-1,2021-08-06 18:22:16,177610
-2,-1,2,1,-5,-4,-3,-2,2021-08-06 18:22:16,177610
-2,1,-2,-2,-3,-2,-1,-1,2021-08-06 18:22:16,208612
1,0,4,-1,-1,1,1,-2,2021-08-06 18:22:16,224612
-3,-1,-8,-7,-4,-1,-3,-4,2021-08-06 18:22:16,224612
-1,-1,1,3,3,1,0,0,2021-08-06 18:22:16,224612
-2,-3,-3,-2,-4,-1,-3,-2,2021-08-06 18:22:16,224612
1,1,2,5,8,5,3,3,2021-08-06 18:22:16,225613
-1,-1,3,-3,-2,-2,-1,-3,2021-08-06 18:22:16,225613
0,-1,2,2,-3,-3,0,-1,2021-08-06 18:22:16,225613
0,-2,0,-2,-4,-2,-2,-2,2021-08-06 18:22:16,240611
-1,-3,-4,-1,-5,-2,-2,-2,2021-08-06 18:22:16,256609
0,0,2,3,2,1,0,0,2021-08-06 18:22:16,287614
0,0,-4,-8,2,1,0,1,2021-08-06 18:22:16,303615
-2,-1,-1,0,1,3,0,0,2021-08-06 18:22:16,319612
-2,0,2,8,-5,-5,-2,-1,2021-08-06 18:22:16,319612
-3,-2,1,-8,-2,-3,0,-1,2021-08-06 18:22:16,335611
0,0,3,0,-4,0,-1,0,2021-08-06 18:22:16,335611
1,1,2,-2,2,1,2,1,2021-08-06 18:22:16,336612
-1,-2,-4,-3,-1,0,-1,0,2021-08-06 18:22:16,336612
0,-1,-1,3,0,-1,-1,1,2021-08-06 18:22:16,351611
-1,-3,0,-1,-2,-2,-2,0,2021-08-06 18:22:16,351611
-1,-1,0,-1,0,-1,0,0,2021-08-06 18:22:16,351611
-1,-1,-3,-1,1,0,1,1,2021-08-06 18:22:16,351611
-1,-1,1,2,-1,-2,-1,-2,2021-08-06 18:22:16,367612
0,1,-4,-3,1,1,0,-1,2021-08-06 18:22:16,367612
-2,-1,0,1,-1,-1,-1,-2,2021-08-06 18:22:16,367612
-2,-3,-3,-6,-6,-4,-1,-3,2021-08-06 18:22:16,367612
-1,-1,-3,-1,3,2,-1,1,2021-08-06 18:22:16,367612
1,0,-1,2,1,2,0,0,2021-08-06 18:22:16,368612
-1,0,-2,-1,0,-1,-1,0,2021-08-06 18:22:16,368612
-1,0,-3,-5,-5,-4,-2,-1,2021-08-06 18:22:16,368612
-2,-2,-3,-7,-11,-5,-3,-2,2021-08-06 18:22:16,368612
0,0,1,5,7,5,3,2,2021-08-06 18:22:16,368612
1,1,2,8,1,-2,-1,1,2021-08-06 18:22:16,369611
-2,-2,-3,-13,-1,0,-1,-2,2021-08-06 18:22:16,383612
-2,1,-2,2,-1,-1,-2,-1,2021-08-06 18:22:16,399611
-1,-1,1,-3,-4,-3,-4,-2,2021-08-06 18:22:16,410611
0,-1,-5,-4,-3,-2,-3,-3,2021-08-06 18:22:16,411612
2,2,3,10,3,1,0,0,2021-08-06 18:22:16,411612
0,1,1,-6,4,2,1,1,2021-08-06 18:22:16,411612
0,-2,1,1,-3,-1,-1,0,2021-08-06 18:22:16,411612
0,-1,-2,-3,0,0,1,0,2021-08-06 18:22:16,411612
-2,-2,-3,-1,-2,-2,-2,-2,2021-08-06 18:22:16,412613
1,-1,-3,0,0,0,0,-1,2021-08-06 18:22:16,412613
-1,0,-3,0,3,0,0,-2,2021-08-06 18:22:16,412613
-1,0,0,-3,-2,0,0,1,2021-08-06 18:22:16,412613
0,-1,2,-2,-2,0,-1,-1,2021-08-06 18:22:16,412613
0,1,1,0,-2,-2,0,1,2021-08-06 18:22:16,430611
-2,0,2,1,-1,-1,0,-1,2021-08-06 18:22:16,430611
-1,0,-4,-1,2,-1,0,0,2021-08-06 18:22:16,430611
0,-2,-4,-2,-2,-2,-3,-1,2021-08-06 18:22:16,430611
0,0,1,5,0,2,-1,0,2021-08-06 18:22:16,446611
1,0,-1,-8,2,0,0,2,2021-08-06 18:22:16,446611
-3,-3,-2,-3,-3,-2,0,-1,2021-08-06 18:22:16,462612
-3,-2,-2,-5,-5,-6,-5,-3,2021-08-06 18:22:16,478612
0,1,-3,0,0,0,0,0,2021-08-06 18:22:16,494610
-2,0,0,5,0,-2,-2,-3,2021-08-06 18:22:16,494610
2,1,2,1,2,0,1,3,2021-08-06 18:22:16,494610
-1,-2,0,1,1,0,0,0,2021-08-06 18:22:16,495612
-2,-3,0,-1,-3,-3,-1,-1,2021-08-06 18:22:16,495612
-1,-1,-1,-4,-2,-3,-1,-1,2021-08-06 18:22:16,495612
0,1,-1,0,1,1,-1,-1,2021-08-06 18:22:16,495612
-1,-1,0,0,-3,-3,-2,-1,2021-08-06 18:22:16,496610
0,1,1,-1,4,0,0,0,2021-08-06 18:22:16,510612
-2,1,-1,-3,-2,-1,-1,-1,2021-08-06 18:22:16,526610
0,-1,-1,-2,3,1,1,1,2021-08-06 18:22:16,542612
-1,-1,-2,1,0,1,0,-1,2021-08-06 18:22:16,542612
-1,-1,0,0,0,0,2,-1,2021-08-06 18:22:16,542612
0,-1,1,4,-4,-2,-2,0,2021-08-06 18:22:16,542612
-3,-1,2,5,0,-1,-1,-2,2021-08-06 18:22:16,542612
-1,-1,-4,-4,-2,-1,0,-1,2021-08-06 18:22:16,542612
-1,0,1,-12,1,1,0,0,2021-08-06 18:22:16,543613
-2,-3,-3,-6,-4,-2,-1,-1,2021-08-06 18:22:16,558612
0,-1,3,1,0,0,1,0,2021-08-06 18:22:16,574615
-2,0,3,4,1,1,0,0,2021-08-06 18:22:16,590609
-3,-3,-1,6,-3,-4,-3,-2,2021-08-06 18:22:16,605611
0,-1,-1,-4,-5,-3,-3,0,2021-08-06 18:22:16,605611
3,1,0,5,10,5,2,2,2021-08-06 18:22:16,605611
1,-1,0,-2,0,0,0,-1,2021-08-06 18:22:16,605611
-1,-1,-5,-3,-3,-3,-1,0,2021-08-06 18:22:16,605611
-2,-2,-9,-2,-3,-1,-3,-1,2021-08-06 18:22:16,606612
-3,-2,2,-4,-7,-5,-3,-3,2021-08-06 18:22:16,606612
0,1,0,1,4,4,1,2,2021-08-06 18:22:16,606612
1,0,2,2,2,0,-1,1,2021-08-06 18:22:16,606612
-1,-2,0,2,0,-2,-1,-3,2021-08-06 18:22:16,606612
-2,-3,-4,0,-6,-4,-3,-1,2021-08-06 18:22:16,621611
0,-1,-1,-4,0,-1,-1,-1,2021-08-06 18:22:16,653613
2,0,-3,-1,-1,1,0,-1,2021-08-06 18:22:16,669611
0,0,-1,3,1,1,1,1,2021-08-06 18:22:16,669611
-2,-1,1,-4,-4,-2,-2,-3,2021-08-06 18:22:16,669611
-4,-3,-2,-3,-6,-4,-3,-3,2021-08-06 18:22:16,669611
0,0,-3,2,3,2,1,0,2021-08-06 18:22:16,670617
1,-1,1,1,4,1,1,1,2021-08-06 18:22:16,670617
1,-1,-1,-3,-3,-3,-1,-1,2021-08-06 18:22:16,670617
-1,-1,-1,0,-3,-2,-2,-2,2021-08-06 18:22:16,670617
-3,-3,-3,-1,-3,-2,-1,-2,2021-08-06 18:22:16,671611
0,0,1,1,1,0,-1,0,2021-08-06 18:22:16,671611
0,0,-2,-4,-2,-1,-1,-1,2021-08-06 18:22:16,671611
1,1,1,3,3,1,0,1,2021-08-06 18:22:16,671611
0,1,0,0,5,3,-1,0,2021-08-06 18:22:16,685609
-2,-1,0,2,-1,-1,-2,-2,2021-08-06 18:22:16,701610
0,0,0,8,4,3,1,0,2021-08-06 18:22:16,717611
0,-1,-4,-10,-2,-1,-1,-2,2021-08-06 18:22:16,733612
-1,-2,-1,-3,-5,-2,-2,-2,2021-08-06 18:22:16,733612
-2,-2,-2,-2,-3,-2,-1,0,2021-08-06 18:22:16,733612
-2,-1,-1,-3,-4,-3,0,-2,2021-08-06 18:22:16,733612
0,0,-2,-1,1,-1,-1,-1,2021-08-06 18:22:16,733612
-1,-2,0,0,-3,-2,0,0,2021-08-06 18:22:16,734611
2,2,2,1,5,1,1,1,2021-08-06 18:22:16,734611
0,-2,-2,-1,2,0,-2,-2,2021-08-06 18:22:16,734611
-1,1,-2,-2,-3,-1,-2,-1,2021-08-06 18:22:16,734611
0,0,0,-2,-4,-2,-1,-2,2021-08-06 18:22:16,748611
1,-1,1,2,1,-1,0,-1,2021-08-06 18:22:16,748611
0,1,-2,-4,0,0,0,1,2021-08-06 18:22:16,763611
-1,-1,-2,0,0,-1,0,0,2021-08-06 18:22:16,779611
0,-1,0,2,2,1,1,1,2021-08-06 18:22:16,795612
-3,-2,-1,-2,-4,-3,-2,-1,2021-08-06 18:22:16,811610
0,-1,-1,0,0,-2,-1,-1,2021-08-06 18:22:16,827611
0,-1,-1,-1,-2,0,-1,-1,2021-08-06 18:22:16,842611
-1,1,0,2,2,2,-1,-1,2021-08-06 18:22:16,842611
-2,0,-2,-1,-3,-3,-1,-2,2021-08-06 18:22:16,842611
0,1,0,-1,3,2,2,1,2021-08-06 18:22:16,842611
-1,-2,0,0,-1,0,0,-1,2021-08-06 18:22:16,842611
0,-1,-1,-1,-3,-3,-1,-1,2021-08-06 18:22:16,843610
-1,-1,-2,-2,-2,-1,-2,0,2021-08-06 18:22:16,843610
-1,0,0,-1,-1,-1,-1,-1,2021-08-06 18:22:16,843610
-1,0,0,0,-1,-1,-2,-1,2021-08-06 18:22:16,843610
0,0,0,0,0,1,1,0,2021-08-06 18:22:16,843610
-1,-2,-1,-2,-2,0,0,-2,2021-08-06 18:22:16,843610
-1,-2,-3,-2,-3,-1,-3,0,2021-08-06 18:22:16,844611
-2,-2,2,0,-1,-1,-1,0,2021-08-06 18:22:16,844611
0,0,1,1,1,-1,-1,0,2021-08-06 18:22:16,858611
0,-1,0,-1,-2,-1,-1,0,2021-08-06 18:22:16,858611
1,0,-2,-2,2,2,2,1,2021-08-06 18:22:16,858611
-1,-1,-1,2,0,-1,-1,-2,2021-08-06 18:22:16,858611
-2,-2,-3,-1,-2,-2,-1,0,2021-08-06 18:22:16,858611
-2,0,0,1,0,-1,-1,-1,2021-08-06 18:22:16,859611
-1,-1,1,-2,-1,0,-1,0,2021-08-06 18:22:16,888613
0,-1,-3,-3,-2,-2,-2,-2,2021-08-06 18:22:16,904612
-2,-1,1,1,1,0,0,0,2021-08-06 18:22:16,904612
0,0,1,-3,-1,0,0,0,2021-08-06 18:22:16,904612
-3,-3,-1,-3,-8,-6,-3,-4,2021-08-06 18:22:16,904612
3,2,1,2,6,3,2,3,2021-08-06 18:22:16,904612
0,0,-1,0,-1,-1,-1,-1,2021-08-06 18:22:16,905611
0,-1,1,0,0,0,0,-1,2021-08-06 18:22:16,905611
-5,-3,-1,-3,-8,-7,-5,-4,2021-08-06 18:22:16,920611
1,-1,-2,1,5,4,1,2,2021-08-06 18:22:16,935612
0,0,-1,0,4,3,1,1,2021-08-06 18:22:16,951613
-1,-1,-1,0,0,0,2,1,2021-08-06 18:22:16,951613
-1,-1,-1,-1,-3,0,0,-2,2021-08-06 18:22:16,951613
-2,-2,1,-2,-6,-4,-1,-2,2021-08-06 18:22:16,951613
0,-2,-2,-1,0,-1,0,-3,2021-08-06 18:22:16,951613
1,0,-2,-3,-2,-1,0,0,2021-08-06 18:22:16,952611
-2,-2,-3,-1,-1,0,-2,0,2021-08-06 18:22:16,967610
-2,0,1,2,-1,-2,-1,-1,2021-08-06 18:22:16,983611
0,0,0,-4,-1,-2,-1,-3,2021-08-06 18:22:16,983611
0,1,-1,3,1,-1,-1,0,2021-08-06 18:22:16,983611
-1,-2,-3,-1,-2,0,0,-2,2021-08-06 18:22:16,983611
-2,-1,1,-2,-1,0,-1,0,2021-08-06 18:22:16,983611
0,1,-2,-4,-2,0,-1,1,2021-08-06 18:22:16,983611
-2,-1,-1,2,0,-1,-2,-2,2021-08-06 18:22:16,984612
4,4,1,-1,7,3,3,2,2021-08-06 18:22:16,999610
-3,-2,-1,-3,-5,-3,-2,-3,2021-08-06 18:22:17,015612
-2,-2,0,1,0,-1,0,0,2021-08-06 18:22:17,015612
-1,2,4,6,0,0,0,-1,2021-08-06 18:22:17,015612
-2,-2,-3,-3,-3,-4,-2,-1,2021-08-06 18:22:17,015612
-1,-1,-4,-8,-4,-2,-1,-2,2021-08-06 18:22:17,016617
-1,-2,4,0,-2,-2,-2,-3,2021-08-06 18:22:17,031613
0,-1,-2,0,3,3,1,0,2021-08-06 18:22:17,031613
0,-1,1,4,3,1,-1,-3,2021-08-06 18:22:17,031613
-1,-1,0,1,-1,-2,-3,-2,2021-08-06 18:22:17,032613
-2,-2,-3,-2,-2,0,0,1,2021-08-06 18:22:17,063611
1,-1,-2,-3,-1,-1,-2,-1,2021-08-06 18:22:17,063611
-2,-1,-1,-1,-2,-1,-1,1,2021-08-06 18:22:17,063611
2,-1,-3,-1,2,3,-1,1,2021-08-06 18:22:17,063611
0,0,-3,2,1,0,-1,-1,2021-08-06 18:22:17,064616
-2,-2,-3,-1,-1,0,-1,-2,2021-08-06 18:22:17,064616
1,0,4,1,1,-1,0,1,2021-08-06 18:22:17,095615
-1,-1,3,-1,-4,-5,-1,-1,2021-08-06 18:22:17,095615
-1,-1,-1,0,-1,-1,0,0,2021-08-06 18:22:17,111614
1,0,-3,-5,2,2,0,3,2021-08-06 18:22:17,111614
-1,-1,-2,3,0,0,-1,-2,2021-08-06 18:22:17,111614
-2,-1,1,2,-2,-2,-2,-2,2021-08-06 18:22:17,127612
0,0,-1,-4,-4,-3,-2,-1,2021-08-06 18:22:17,143614
0,0,-1,1,2,0,0,0,2021-08-06 18:22:17,143614
1,0,-1,-2,0,0,0,0,2021-08-06 18:22:17,143614
-2,-2,0,9,1,-2,0,-2,2021-08-06 18:22:17,144612
0,-1,-4,-6,0,0,-1,-1,2021-08-06 18:22:17,144612
-2,-1,-5,-4,-2,-2,-2,-3,2021-08-06 18:22:17,144612
-1,-1,4,-1,-2,-2,-1,-1,2021-08-06 18:22:17,144612
-1,0,3,0,0,-1,1,0,2021-08-06 18:22:17,145616
0,-1,0,3,-1,0,0,-1,2021-08-06 18:22:17,145616
-1,-2,-6,-2,-4,-2,-3,0,2021-08-06 18:22:17,145616
-4,-4,-6,-2,1,0,0,-1,2021-08-06 18:22:17,159612
-2,0,-3,1,6,4,0,-2,2021-08-06 18:22:17,159612
-1,1,3,1,1,-1,-1,-1,2021-08-06 18:22:17,159612
-1,-2,2,-4,-3,-2,-2,-2,2021-08-06 18:22:17,159612
-1,-1,-4,0,-4,-2,-3,-4,2021-08-06 18:22:17,190611
1,0,-2,-5,-3,-2,-1,0,2021-08-06 18:22:17,191099
-2,-1,1,-2,-2,-1,-1,-2,2021-08-06 18:22:17,191099
1,1,3,6,7,4,1,0,2021-08-06 18:22:17,191612
-1,-1,-1,-3,-1,-1,-2,-1,2021-08-06 18:22:17,222651
0,-2,-5,-1,0,1,0,-1,2021-08-06 18:22:17,238653
0,0,2,5,1,0,-1,-1,2021-08-06 18:22:17,254653
-2,0,1,-1,-1,-1,1,-1,2021-08-06 18:22:17,254653
-3,-1,1,5,1,-1,-1,0,2021-08-06 18:22:17,254653
-2,-1,2,-5,-5,-2,-1,-1,2021-08-06 18:22:17,270654
-1,-1,-7,-9,-3,-1,-1,1,2021-08-06 18:22:17,270654
-1,-2,1,0,-4,-2,-1,-2,2021-08-06 18:22:17,270654
1,1,0,1,3,3,1,1,2021-08-06 18:22:17,286653
-2,-2,-2,3,-1,-1,-1,-2,2021-08-06 18:22:17,286653
-1,-1,3,6,6,3,1,1,2021-08-06 18:22:17,287656
0,0,-2,-3,0,0,0,-2,2021-08-06 18:22:17,302655
-2,-2,-3,-6,-10,-6,-2,-2,2021-08-06 18:22:17,318654
3,1,-2,-3,1,0,1,1,2021-08-06 18:22:17,334657
-1,0,-1,1,1,0,0,-2,2021-08-06 18:22:17,366653
-1,-1,-6,4,3,2,0,1,2021-08-06 18:22:17,366653
1,0,5,3,1,0,0,0,2021-08-06 18:22:17,366653
-4,-2,-3,-7,-7,-4,-4,-2,2021-08-06 18:22:17,367657
0,0,1,-1,-4,-3,-1,-1,2021-08-06 18:22:17,367657
-1,-1,-6,0,-2,-3,-2,-1,2021-08-06 18:22:17,367657
-1,-2,-4,-4,-1,0,1,1,2021-08-06 18:22:17,368658
-1,-1,-2,1,2,1,-1,1,2021-08-06 18:22:17,382656
-1,-1,0,0,-1,-2,0,0,2021-08-06 18:22:17,398657
-1,-1,3,-1,-2,-2,-1,-1,2021-08-06 18:22:17,398657
-1,0,-1,-2,-3,-4,-3,-2,2021-08-06 18:22:17,398657
0,-1,-2,-2,-2,-3,-3,-1,2021-08-06 18:22:17,399657
1,-1,-3,-7,-3,0,0,0,2021-08-06 18:22:17,414653
1,1,9,11,6,3,2,-1,2021-08-06 18:22:17,414889
-1,-1,-3,-4,2,0,0,-2,2021-08-06 18:22:17,414889
0,1,-4,-5,3,3,3,1,2021-08-06 18:22:17,414889
-1,-2,-2,-3,-6,-3,-4,-1,2021-08-06 18:22:17,414889
-2,-3,-1,-4,-3,0,0,-1,2021-08-06 18:22:17,415653
2,0,2,0,2,3,0,1,2021-08-06 18:22:17,415653
-2,-1,-2,4,-1,-2,-2,-2,2021-08-06 18:22:17,415653
-2,-2,-4,-1,-1,0,-1,-1,2021-08-06 18:22:17,416654
2,-1,1,-2,0,-1,0,-2,2021-08-06 18:22:17,416654
-1,-1,-5,-1,0,-1,-1,-2,2021-08-06 18:22:17,430179
-1,-2,1,0,1,0,1,-2,2021-08-06 18:22:17,430179
0,1,6,2,-1,-1,0,0,2021-08-06 18:22:17,430179
-3,-1,0,-2,-4,-3,-1,-1,2021-08-06 18:22:17,430179
0,0,-1,-3,-1,-1,0,0,2021-08-06 18:22:17,430179
-3,-3,-2,0,-6,-3,-2,-2,2021-08-06 18:22:17,431178
2,-1,-3,0,1,1,0,1,2021-08-06 18:22:17,431178
1,-1,0,-1,5,3,2,1,2021-08-06 18:22:17,431178
1,1,0,0,-1,-1,-2,-3,2021-08-06 18:22:17,431178
0,-2,-1,0,0,-1,0,-1,2021-08-06 18:22:17,431178
-3,-3,-2,-3,-3,-3,-2,-2,2021-08-06 18:22:17,445179
-1,-1,-3,-4,-4,-3,-2,0,2021-08-06 18:22:17,461178
1,0,-1,0,0,3,2,0,2021-08-06 18:22:17,461178
-1,-1,0,0,-1,0,-1,-3,2021-08-06 18:22:17,461178
-2,-1,-1,-2,-1,-2,-3,-3,2021-08-06 18:22:17,461178
0,1,1,-2,0,-2,-1,1,2021-08-06 18:22:17,462180
-2,-1,0,5,2,0,0,0,2021-08-06 18:22:17,462180
1,0,-1,-1,0,0,0,1,2021-08-06 18:22:17,462180
-1,-1,-2,-1,0,-2,0,0,2021-08-06 18:22:17,462180
-1,0,-1,-3,-5,-2,-1,-3,2021-08-06 18:22:17,462180
-2,-1,1,2,0,-2,-2,-1,2021-08-06 18:22:17,493180
-1,-1,-2,-2,0,0,-1,-2,2021-08-06 18:22:17,509179
1,1,-3,0,4,2,2,3,2021-08-06 18:22:17,509179
-1,-3,0,-2,-2,-2,-2,-3,2021-08-06 18:22:17,509179
-1,-1,0,-1,-1,-1,0,-1,2021-08-06 18:22:17,509179
-1,0,0,-1,-2,-3,-1,1,2021-08-06 18:22:17,510179
-2,-3,-1,0,-3,-2,0,-2,2021-08-06 18:22:17,510179
2,3,0,-2,3,4,1,2,2021-08-06 18:22:17,510179
-3,0,-2,-3,-1,-3,-2,0,2021-08-06 18:22:17,540177
0,-1,0,-2,-1,0,-1,0,2021-08-06 18:22:17,555178
-1,-2,-1,-1,-2,-1,-2,-3,2021-08-06 18:22:17,555178
0,0,1,1,1,-1,0,1,2021-08-06 18:22:17,555178
-1,-1,-2,0,-1,-1,0,-2,2021-08-06 18:22:17,555178
-2,0,-1,-3,0,-1,-1,0,2021-08-06 18:22:17,555178
-1,0,0,0,-3,0,-1,0,2021-08-06 18:22:17,571179
-2,-1,-4,-2,0,0,0,-1,2021-08-06 18:22:17,587178
0,-1,-1,-3,0,1,-2,0,2021-08-06 18:22:17,587178
-1,0,0,0,3,0,0,-1,2021-08-06 18:22:17,587178
0,0,-2,-2,-1,-1,0,-1,2021-08-06 18:22:17,588180
-1,-1,1,-1,-2,-1,-2,0,2021-08-06 18:22:17,588180
-2,-1,-1,-3,-3,-1,0,-2,2021-08-06 18:22:17,588180
-2,-1,-1,-1,1,0,0,1,2021-08-06 18:22:17,588180
0,0,-1,0,1,1,1,0,2021-08-06 18:22:17,588180
-2,-1,-2,-2,-4,-1,-1,-2,2021-08-06 18:22:17,589178
-1,-2,1,1,1,1,0,-1,2021-08-06 18:22:17,603178
-1,-3,-1,1,-3,-2,-1,-2,2021-08-06 18:22:17,619178
-2,-1,-2,1,2,0,-1,0,2021-08-06 18:22:17,635178
2,1,-2,-3,-1,-1,1,1,2021-08-06 18:22:17,635178
-1,-2,-1,0,-3,-2,-1,-1,2021-08-06 18:22:17,635178
0,0,1,-2,1,-1,1,-2,2021-08-06 18:22:17,635178
-2,-1,0,-2,-4,-3,-1,-1,2021-08-06 18:22:17,635178
-1,-1,2,5,2,-1,-1,0,2021-08-06 18:22:17,636179
2,0,-1,-3,5,5,4,4,2021-08-06 18:22:17,651180
1,1,-2,-1,-1,-1,0,2,2021-08-06 18:22:17,651180
0,0,1,2,3,1,-1,-1,2021-08-06 18:22:17,651180
-2,-2,0,0,-3,-3,-2,-2,2021-08-06 18:22:17,651180
-1,0,0,-3,-6,-4,-2,-2,2021-08-06 18:22:17,666178
-2,-2,-1,1,1,2,0,-1,2021-08-06 18:22:17,667180
1,-1,0,-1,0,2,0,-1,2021-08-06 18:22:17,667180
-2,-2,-1,-3,-4,-1,-2,-2,2021-08-06 18:22:17,667180
-1,-1,-1,1,-3,-4,-1,-3,2021-08-06 18:22:17,683180
-2,-2,-4,-1,-1,-1,-1,-2,2021-08-06 18:22:17,683180
3,3,1,-2,4,4,1,0,2021-08-06 18:22:17,683180
-2,-2,-2,0,-3,-3,-1,-2,2021-08-06 18:22:17,699179
-1,-2,0,0,1,0,-2,-2,2021-08-06 18:22:17,699179
0,-1,-1,0,-2,-3,-1,-2,2021-08-06 18:22:17,699179
0,-2,0,-1,-1,-2,-3,-2,2021-08-06 18:22:17,700181
0,-1,-1,-1,2,1,0,0,2021-08-06 18:22:17,700181
-1,-2,-3,-3,-2,-1,-1,0,2021-08-06 18:22:17,730179
-1,-1,0,1,-2,0,-3,0,2021-08-06 18:22:17,730179
-1,-1,-2,0,-2,-2,-2,-3,2021-08-06 18:22:17,746180
0,-1,-2,-1,-3,-2,-1,-1,2021-08-06 18:22:17,746180
-1,-1,-3,-2,-1,-2,-1,-2,2021-08-06 18:22:17,746180
-2,-1,-1,-2,-1,-2,1,0,2021-08-06 18:22:17,746180
-1,-2,-1,1,0,0,1,0,2021-08-06 18:22:17,747183
0,2,3,1,3,1,0,-1,2021-08-06 18:22:17,747183
-1,0,-1,0,-1,-1,-2,-1,2021-08-06 18:22:17,778177
-1,0,3,0,-1,-1,-1,-1,2021-08-06 18:22:17,778177
-2,-2,-2,-2,-4,-3,-2,-1,2021-08-06 18:22:17,778177
-1,0,-3,-3,-3,-1,-1,0,2021-08-06 18:22:17,778177
0,0,0,-2,-1,-2,-2,-1,2021-08-06 18:22:17,778177
0,1,-3,-1,-1,-1,0,-1,2021-08-06 18:22:17,779179
0,0,0,3,0,1,0,-1,2021-08-06 18:22:17,779179
-2,-1,-1,-5,-1,0,0,1,2021-08-06 18:22:17,779179
-1,-1,0,-2,0,2,0,0,2021-08-06 18:22:17,809180
0,-1,-1,-1,1,1,-1,1,2021-08-06 18:22:17,825180
-1,-2,1,5,2,0,-1,1,2021-08-06 18:22:17,841180
-1,-1,0,2,-3,-1,-3,-2,2021-08-06 18:22:17,841180
-2,-3,-1,-4,-7,-4,-1,-3,2021-08-06 18:22:17,841180
2,0,-1,-1,3,1,0,0,2021-08-06 18:22:17,841180
-2,-2,-1,-2,-2,0,0,-1,2021-08-06 18:22:17,857178
1,1,3,4,5,1,0,-1,2021-08-06 18:22:17,873178
-3,-3,-1,-1,-2,-2,-1,-2,2021-08-06 18:22:17,889176
0,0,-2,-3,-1,1,1,1,2021-08-06 18:22:17,905179
0,1,-3,-1,2,2,1,2,2021-08-06 18:22:17,937183
-1,-1,2,-2,-4,-5,-1,-1,2021-08-06 18:22:17,953178
-1,1,-2,-2,-3,-1,-1,0,2021-08-06 18:22:17,969178
-2,-3,0,-3,-4,-3,0,-2,2021-08-06 18:22:17,969178
0,-1,-1,-4,-1,1,-1,-1,2021-08-06 18:22:17,969178
0,0,-1,1,5,4,1,-1,2021-08-06 18:22:17,969178
-2,-1,1,3,2,0,-1,-1,2021-08-06 18:22:17,969178
-2,0,1,1,-2,-1,-1,-1,2021-08-06 18:22:17,970180
-1,-1,2,0,-1,-1,1,0,2021-08-06 18:22:17,985178
-2,-1,-2,3,0,-1,-1,-1,2021-08-06 18:22:17,985178
0,-2,-3,-1,1,0,-2,0,2021-08-06 18:22:17,985178
-2,-2,-1,-4,-4,-1,-2,-1,2021-08-06 18:22:17,985178
-3,-1,0,-2,-5,-3,-3,-1,2021-08-06 18:22:17,986178
-2,-1,-1,-1,-4,-2,0,-1,2021-08-06 18:22:17,986178
2,0,-1,-1,6,3,1,0,2021-08-06 18:22:17,986178
1,0,-2,-3,1,1,-1,-1,2021-08-06 18:22:17,986178
1,1,5,10,5,3,0,0,2021-08-06 18:22:17,986178
-2,-1,-1,-7,0,-1,0,0,2021-08-06 18:22:17,987180
-2,-2,-7,-3,-9,-4,-3,-2,2021-08-06 18:22:17,987180
-1,-1,0,0,1,1,2,1,2021-08-06 18:22:17,987180
1,0,-1,-5,1,0,0,0,2021-08-06 18:22:17,988179
0,-1,2,6,3,1,-2,0,2021-08-06 18:22:17,988179
-1,-1,2,0,-2,-3,0,0,2021-08-06 18:22:17,988179
1,-2,-4,-1,1,0,-2,0,2021-08-06 18:22:17,988179
-3,0,-2,-3,-3,-1,-2,-2,2021-08-06 18:22:17,988179
1,0,-1,-2,3,5,2,2,2021-08-06 18:22:17,988179
-1,-1,-2,3,3,0,0,-2,2021-08-06 18:22:17,989180
-2,-2,-1,2,-1,-2,-3,-3,2021-08-06 18:22:17,989180
-1,-1,-2,2,6,4,2,0,2021-08-06 18:22:17,989180
0,-1,1,-4,-9,-5,-2,-3,2021-08-06 18:22:18,001178
-1,-2,1,-6,-6,-3,-3,-2,2021-08-06 18:22:18,001178
-2,-1,1,1,-2,-2,-1,-2,2021-08-06 18:22:18,001178
2,0,-1,4,1,-1,0,0,2021-08-06 18:22:18,001178
0,0,-4,-4,3,-2,-2,0,2021-08-06 18:22:18,001178
0,-1,-2,-2,-5,-2,-1,0,2021-08-06 18:22:18,032235
-1,-2,1,6,3,1,0,0,2021-08-06 18:22:18,048234
0,0,2,-3,1,0,1,0,2021-08-06 18:22:18,063237
-2,-3,-5,-11,-8,-7,-3,-3,2021-08-06 18:22:18,063237
-1,0,2,3,0,-2,0,0,2021-08-06 18:22:18,063237
-1,0,0,4,7,2,1,-1,2021-08-06 18:22:18,063237
-1,-1,-1,5,4,2,0,2,2021-08-06 18:22:18,064239
1,0,0,-4,-6,-2,1,2,2021-08-06 18:22:18,079234
-3,1,-4,-9,-6,-4,-2,-2,2021-08-06 18:22:18,079234
0,1,10,24,19,10,0,1,2021-08-06 18:22:18,079234
2,1,4,8,10,5,2,0,2021-08-06 18:22:18,111238
-2,-3,-7,-8,-7,-3,-2,-2,2021-08-06 18:22:18,111238
-5,-6,-15,-38,-40,-23,-4,-4,2021-08-06 18:22:18,126238
-7,-9,-19,-41,-52,-29,-11,-7,2021-08-06 18:22:18,142235
-1,1,3,3,3,2,-1,-2,2021-08-06 18:22:18,158239
1,-1,7,21,22,11,1,2,2021-08-06 18:22:18,158239
3,5,9,25,32,18,4,3,2021-08-06 18:22:18,158239
0,1,4,8,13,6,3,0,2021-08-06 18:22:18,173234
0,0,-1,-3,-1,-2,-2,-1,2021-08-06 18:22:18,173234
-1,-2,-1,4,1,1,1,1,2021-08-06 18:22:18,189231
-1,-3,0,3,6,2,-1,0,2021-08-06 18:22:18,189231
1,1,2,-1,0,-1,0,1,2021-08-06 18:22:18,189231
-3,-3,-5,-8,-11,-6,-4,-3,2021-08-06 18:22:18,189231
-1,0,-1,1,0,0,0,-1,2021-08-06 18:22:18,189231
0,-1,2,3,2,2,0,0,2021-08-06 18:22:18,190236
-1,-1,-2,-2,-2,-2,0,0,2021-08-06 18:22:18,190236
-3,-2,-2,-7,-9,-6,-1,-1,2021-08-06 18:22:18,205233
1,2,1,0,-1,0,0,-1,2021-08-06 18:22:18,205233
-2,-4,2,6,-2,-1,-2,-1,2021-08-06 18:22:18,205233
0,-2,-1,-4,6,4,2,0,2021-08-06 18:22:18,205233
-1,-2,-2,-4,-6,-3,0,1,2021-08-06 18:22:18,205233
0,-1,0,-3,-2,1,-1,-1,2021-08-06 18:22:18,206233
0,0,0,1,0,-1,-2,-2,2021-08-06 18:22:18,206233
1,0,0,5,3,3,0,1,2021-08-06 18:22:18,206233
-1,-2,-3,-4,-3,-3,-1,-1,2021-08-06 18:22:18,206233
-2,-2,-1,-1,-3,-2,-2,1,2021-08-06 18:22:18,206233
0,-1,0,1,3,1,0,1,2021-08-06 18:22:18,207234
-1,0,0,-1,-6,-5,-1,0,2021-08-06 18:22:18,207234
-2,-2,-2,-2,1,0,-1,-1,2021-08-06 18:22:18,207234
-1,1,0,-2,0,0,1,0,2021-08-06 18:22:18,221234
-2,-2,-2,-1,3,1,1,-2,2021-08-06 18:22:18,237493
1,0,-1,1,4,2,0,0,2021-08-06 18:22:18,252754
1,0,-3,-2,-2,-1,0,0,2021-08-06 18:22:18,284752
-1,-3,-1,-3,-9,-5,-2,-3,2021-08-06 18:22:18,300753
-2,-2,0,4,1,0,-2,-1,2021-08-06 18:22:18,310754
0,-2,-2,-3,-2,0,1,1,2021-08-06 18:22:18,310754
-1,1,-2,-4,1,1,0,-1,2021-08-06 18:22:18,310754
-2,-1,-1,-1,1,0,-2,0,2021-08-06 18:22:18,316756
1,1,1,1,2,0,0,-1,2021-08-06 18:22:18,316756
-1,-2,-1,-1,-1,-1,-1,-1,2021-08-06 18:22:18,316756
-1,0,-1,-1,-3,-3,-3,-2,2021-08-06 18:22:18,316756
0,-1,-2,-3,-1,-2,0,0,2021-08-06 18:22:18,317755
-1,-1,-1,-2,-1,-1,0,-1,2021-08-06 18:22:18,317755
-3,-1,0,0,1,-2,0,0,2021-08-06 18:22:18,317755
1,0,-1,-1,-2,2,0,0,2021-08-06 18:22:18,317755
-1,-1,-3,-1,-1,-1,-1,0,2021-08-06 18:22:18,317755
0,0,-2,-2,-3,-1,0,0,2021-08-06 18:22:18,317755
-1,-1,0,0,-3,-2,0,-1,2021-08-06 18:22:18,318752
-2,-1,1,2,-1,-2,1,1,2021-08-06 18:22:18,318752
-1,-1,-1,2,2,-1,-1,-1,2021-08-06 18:22:18,318752
1,-1,-1,-1,0,1,-2,1,2021-08-06 18:22:18,318752
1,-1,-2,0,-1,2,-1,0,2021-08-06 18:22:18,318752
-2,-2,-2,-2,-1,-2,-1,-1,2021-08-06 18:22:18,348751
-1,-1,1,2,-2,0,-1,-1,2021-08-06 18:22:18,363755
-1,0,0,-1,0,-1,0,-2,2021-08-06 18:22:18,379753
1,2,0,0,3,3,1,0,2021-08-06 18:22:18,395754
0,-1,0,0,-1,-2,-2,1,2021-08-06 18:22:18,411754
-1,-2,-2,-3,-1,-1,1,-2,2021-08-06 18:22:18,411754
-3,-1,-1,-1,1,0,0,0,2021-08-06 18:22:18,427751
-1,-1,-1,-2,-1,-1,-1,-1,2021-08-06 18:22:18,443755
1,-1,1,0,-1,-1,1,1,2021-08-06 18:22:18,474756
-1,1,-1,-2,-3,-3,-1,-1,2021-08-06 18:22:18,474756
0,-1,-2,-2,-4,-3,-2,-2,2021-08-06 18:22:18,474756
-1,-2,-2,-1,-4,-2,-2,-2,2021-08-06 18:22:18,490752
0,-1,-3,-3,1,2,-1,1,2021-08-06 18:22:18,522754
0,0,-1,-2,-3,0,0,1,2021-08-06 18:22:18,538756
-1,1,-2,-1,-3,-3,-2,0,2021-08-06 18:22:18,538756
-2,1,-1,3,4,1,0,-2,2021-08-06 18:22:18,538756
-1,0,-1,-3,-1,-3,-2,-1,2021-08-06 18:22:18,538756
1,0,-2,-4,0,1,-1,0,2021-08-06 18:22:18,539754
-3,-2,0,0,-4,-2,-2,0,2021-08-06 18:22:18,539754
-4,-4,0,-4,-5,-4,-2,-2,2021-08-06 18:22:18,539754
-1,-1,-2,0,0,2,1,-2,2021-08-06 18:22:18,539754
0,0,0,4,6,2,1,1,2021-08-06 18:22:18,540753
-1,0,-1,1,1,0,2,1,2021-08-06 18:22:18,540753
-1,0,1,1,1,-1,0,-1,2021-08-06 18:22:18,554755
-3,-2,-2,-1,-3,-3,-2,-2,2021-08-06 18:22:18,602804
-1,0,-1,-1,0,0,-1,0,2021-08-06 18:22:18,634801
0,-2,-2,0,0,0,-1,0,2021-08-06 18:22:18,650802
-2,2,2,0,-2,0,-1,0,2021-08-06 18:22:18,666804
-1,0,-2,-3,-4,-3,0,-2,2021-08-06 18:22:18,666804
-3,-1,0,-1,-4,-3,-4,-2,2021-08-06 18:22:18,666804
-1,-2,-1,-1,-1,-1,-1,-3,2021-08-06 18:22:18,666804
0,-1,0,2,3,1,0,1,2021-08-06 18:22:18,667802
0,-1,-1,0,-2,0,-1,-2,2021-08-06 18:22:18,667802
-2,-1,-5,-5,-2,-1,2,1,2021-08-06 18:22:18,667802
-1,-3,0,-3,-2,-1,0,-2,2021-08-06 18:22:18,667802
1,2,4,-1,-2,-1,-2,0,2021-08-06 18:22:18,667802
0,2,4,8,4,2,-1,-1,2021-08-06 18:22:18,668803
-1,-1,0,0,-3,-2,0,1,2021-08-06 18:22:18,668803
-3,-4,-8,-12,-12,-8,-3,-3,2021-08-06 18:22:18,668803
0,-3,-5,-4,-2,0,1,-1,2021-08-06 18:22:18,668803
1,0,0,-1,1,1,1,0,2021-08-06 18:22:18,668803
-1,0,-1,4,2,1,-4,-2,2021-08-06 18:22:18,682806
0,1,3,5,6,2,1,-1,2021-08-06 18:22:18,698803
-1,0,-1,-1,0,-1,-1,0,2021-08-06 18:22:18,698803
-1,-2,-2,-2,-4,-3,-3,-1,2021-08-06 18:22:18,698803
0,1,3,8,1,0,1,0,2021-08-06 18:22:18,714802
-1,-1,-2,-6,2,3,-2,0,2021-08-06 18:22:18,714802
-1,0,-3,-2,2,1,1,1,2021-08-06 18:22:18,714802
-1,-1,1,0,0,-1,1,-1,2021-08-06 18:22:18,714802
-3,-3,-3,-4,-6,-5,-4,-3,2021-08-06 18:22:18,714802
1,0,0,3,-2,-1,1,0,2021-08-06 18:22:18,715803
0,1,-2,-3,-2,0,-1,-1,2021-08-06 18:22:18,730807
0,-1,-2,0,3,1,0,2,2021-08-06 18:22:18,746802
-2,-2,0,-3,-2,-1,0,0,2021-08-06 18:22:18,746802
0,-1,0,3,1,0,0,-2,2021-08-06 18:22:18,746802
1,-1,-1,-1,-1,-1,-1,0,2021-08-06 18:22:18,746802
-1,-1,-2,-4,-1,-2,0,0,2021-08-06 18:22:18,747802
0,-1,-2,-4,-6,-2,-2,-1,2021-08-06 18:22:18,747802
-1,0,3,4,6,3,0,0,2021-08-06 18:22:18,747802
0,-2,-1,1,0,1,0,0,2021-08-06 18:22:18,747802
0,-1,-1,-2,-2,0,-2,0,2021-08-06 18:22:18,748803
-2,-1,-2,-2,-2,-2,-1,-3,2021-08-06 18:22:18,748803
0,0,3,-1,1,1,0,1,2021-08-06 18:22:18,761804
0,-1,-3,2,0,-1,0,1,2021-08-06 18:22:18,761804
0,1,-3,-2,3,2,2,0,2021-08-06 18:22:18,762806
1,-1,7,7,4,2,-1,-1,2021-08-06 18:22:18,777052
-3,-3,-6,-10,-9,-6,-3,-2,2021-08-06 18:22:18,792336
-2,-4,-4,-10,-10,-6,-3,-3,2021-08-06 18:22:18,792336
-2,0,1,-2,-1,-2,0,-1,2021-08-06 18:22:18,808336
0,1,0,8,3,0,-1,-2,2021-08-06 18:22:18,808336
2,3,7,12,14,8,4,1,2021-08-06 18:22:18,808336
0,-1,-6,-8,-7,-4,-1,-2,2021-08-06 18:22:18,808336
-2,-3,-3,-9,-10,-7,-3,-2,2021-08-06 18:22:18,824333
-2,-4,0,-5,-4,-2,0,-1,2021-08-06 18:22:18,840333
-2,0,-2,4,2,-1,-2,-1,2021-08-06 18:22:18,856332
-1,0,1,3,5,2,0,-1,2021-08-06 18:22:18,872333
-1,-1,0,6,5,3,1,0,2021-08-06 18:22:18,904335
0,-1,0,6,10,4,-2,1,2021-08-06 18:22:18,904335
-1,-2,-2,-11,-14,-8,-2,-1,2021-08-06 18:22:18,904335
-2,-3,-4,-15,-17,-8,-2,-3,2021-08-06 18:22:18,904335
1,1,0,-1,2,1,-2,1,2021-08-06 18:22:18,904335
0,1,-1,2,1,2,0,1,2021-08-06 18:22:18,905335
-1,0,0,8,9,5,1,1,2021-08-06 18:22:18,905335
0,0,-1,5,2,1,-1,-1,2021-08-06 18:22:18,905335
0,-1,-2,-3,-3,-3,-2,-2,2021-08-06 18:22:18,905335
0,1,-3,-6,0,-1,0,-1,2021-08-06 18:22:18,905335
0,-2,-1,-2,-7,-4,-2,-2,2021-08-06 18:22:18,906334
-3,-1,-1,-1,-1,-2,0,1,2021-08-06 18:22:18,906334
-2,-1,-1,2,3,3,1,1,2021-08-06 18:22:18,906334
-1,-2,1,-2,-1,-3,0,0,2021-08-06 18:22:18,920335
0,-1,0,-2,2,2,-1,-3,2021-08-06 18:22:18,936333
-2,-1,-4,7,7,2,-2,-2,2021-08-06 18:22:18,936333
-2,-1,0,-7,-11,-8,-5,-3,2021-08-06 18:22:18,936333
0,0,-2,-8,-6,-4,-2,0,2021-08-06 18:22:18,936333
-3,-1,0,-4,-7,-4,-3,-1,2021-08-06 18:22:18,937336
1,0,1,6,8,4,0,0,2021-08-06 18:22:18,937336
0,0,0,4,6,4,2,2,2021-08-06 18:22:18,952334
-2,-4,-4,-10,-9,-5,0,-2,2021-08-06 18:22:18,968333
-1,-1,-1,-3,-2,-3,-1,0,2021-08-06 18:22:18,968333
1,1,0,2,3,2,-1,0,2021-08-06 18:22:18,968333
-6,-3,-2,-2,-3,-3,-3,-3,2021-08-06 18:22:18,968333
5,4,5,4,3,3,4,3,2021-08-06 18:22:18,969335
2,1,-2,1,4,1,0,0,2021-08-06 18:22:18,969335
2,-2,0,1,2,0,1,0,2021-08-06 18:22:18,969335
-1,-2,0,-1,-4,-2,-2,-3,2021-08-06 18:22:18,984334
-4,-4,-6,-4,-3,-3,-5,-4,2021-08-06 18:22:18,984334
0,0,-4,-2,-2,-2,-1,-2,2021-08-06 18:22:18,984334
0,1,4,0,0,-1,-1,-1,2021-08-06 18:22:18,984334
-1,-2,-1,-1,-2,0,0,-1,2021-08-06 18:22:18,985334
-4,-4,-2,0,-3,-2,-2,-2,2021-08-06 18:22:18,985334
0,1,0,-4,0,1,2,2,2021-08-06 18:22:18,986334
-2,-1,0,0,-1,-3,-1,-1,2021-08-06 18:22:18,986334
4,2,2,3,8,5,2,4,2021-08-06 18:22:18,986334
-2,1,-1,-1,-4,-2,-2,-3,2021-08-06 18:22:18,987335
-4,-3,-2,-1,-5,-4,-2,-2,2021-08-06 18:22:18,987335
0,-1,2,4,-2,0,0,-1,2021-08-06 18:22:19,000336
1,2,2,2,4,1,0,0,2021-08-06 18:22:19,016337
0,0,-5,-9,-2,0,0,0,2021-08-06 18:22:19,032334
-1,-1,0,3,-1,0,0,0,2021-08-06 18:22:19,032334
-3,-1,0,-1,-2,-2,-2,-2,2021-08-06 18:22:19,032334
3,3,-1,-2,0,2,3,2,2021-08-06 18:22:19,048335
0,-1,-3,2,0,-1,0,-2,2021-08-06 18:22:19,048335
-1,-3,-3,-3,-1,-1,-2,-1,2021-08-06 18:22:19,048335
-1,-2,-2,-2,-4,-3,-2,1,2021-08-06 18:22:19,048335
-1,0,2,1,1,1,-1,-2,2021-08-06 18:22:19,064333
-3,-2,0,1,4,2,0,-1,2021-08-06 18:22:19,064333
-1,-1,-1,-1,-2,-2,-1,-1,2021-08-06 18:22:19,064333
1,2,0,-3,2,1,2,1,2021-08-06 18:22:19,064333
-3,-4,-3,-2,-8,-6,-2,-2,2021-08-06 18:22:19,064333
0,-1,-1,-3,-2,0,1,-1,2021-08-06 18:22:19,064333
0,0,2,10,12,6,1,1,2021-08-06 18:22:19,065334
-1,0,0,-1,0,1,1,0,2021-08-06 18:22:19,065334
-1,-2,-2,0,-3,-2,-1,-1,2021-08-06 18:22:19,065334
0,0,0,-5,-5,-4,-1,-2,2021-08-06 18:22:19,066340
-3,-2,-3,-4,-5,-3,-2,-3,2021-08-06 18:22:19,066340
0,0,-1,2,3,1,0,1,2021-08-06 18:22:19,066340
0,1,-2,0,1,2,0,-1,2021-08-06 18:22:19,066340
-1,0,-2,1,0,0,0,-2,2021-08-06 18:22:19,067341
-2,-2,0,-2,-3,-2,-2,-2,2021-08-06 18:22:19,080334
1,1,0,-1,4,3,3,1,2021-08-06 18:22:19,080334
-3,-3,-1,0,-4,-3,-5,-2,2021-08-06 18:22:19,080334
1,0,2,0,3,1,1,0,2021-08-06 18:22:19,080334
-2,-1,-2,-1,-2,0,0,0,2021-08-06 18:22:19,081335
0,-2,-2,-2,-3,-3,-3,0,2021-08-06 18:22:19,081335
-1,-2,-2,-1,-4,-3,-2,0,2021-08-06 18:22:19,081335
2,4,1,0,6,3,1,1,2021-08-06 18:22:19,095337
-1,-1,-1,0,-1,-1,-1,-1,2021-08-06 18:22:19,111334
-2,-2,1,-1,-2,-1,0,-2,2021-08-06 18:22:19,127334
-2,-1,-3,-4,-5,-3,-1,-1,2021-08-06 18:22:19,143334
1,1,-2,1,1,1,0,0,2021-08-06 18:22:19,143334
2,-1,0,1,3,-1,-1,0,2021-08-06 18:22:19,143334
0,0,-1,5,3,1,-3,-1,2021-08-06 18:22:19,144334
-1,0,0,-2,3,0,0,-1,2021-08-06 18:22:19,144334
-3,-2,-4,-2,-8,-3,-2,-2,2021-08-06 18:22:19,144334
-1,0,-1,-2,-5,-3,-1,-2,2021-08-06 18:22:19,144334
-2,-2,-4,-2,-1,0,1,-1,2021-08-06 18:22:19,145334
-2,0,0,1,3,1,1,-1,2021-08-06 18:22:19,145334
-1,-3,0,1,-2,-1,-1,1,2021-08-06 18:22:19,145334
-2,-2,-2,-2,-2,-1,1,0,2021-08-06 18:22:19,145334
-1,-3,-1,-3,-5,-3,-2,-4,2021-08-06 18:22:19,146337
1,-2,-1,1,0,1,0,-1,2021-08-06 18:22:19,146337
1,0,0,-1,1,1,0,1,2021-08-06 18:22:19,146337
1,1,0,0,-3,-1,-3,-1,2021-08-06 18:22:19,146337
-1,1,0,-1,-1,0,0,0,2021-08-06 18:22:19,146337
-2,-2,-2,2,1,0,-2,-2,2021-08-06 18:22:19,146337
-3,-3,-3,1,-6,-5,-3,-4,2021-08-06 18:22:19,147335
2,2,-1,-2,5,5,2,2,2021-08-06 18:22:19,175335
-1,-1,-2,-1,-1,-2,0,0,2021-08-06 18:22:19,175335
1,1,0,2,1,2,0,0,2021-08-06 18:22:19,190332
-3,-4,-2,-1,-6,-5,-4,-4,2021-08-06 18:22:19,190332
-1,0,-1,-4,-2,-1,-1,0,2021-08-06 18:22:19,205335
0,0,-1,0,3,1,1,1,2021-08-06 18:22:19,221335
-1,-1,0,1,2,-1,-1,-1,2021-08-06 18:22:19,237334
-1,-1,0,0,-1,0,-1,0,2021-08-06 18:22:19,237334
-2,-1,0,-1,-4,-3,-2,-2,2021-08-06 18:22:19,237334
1,1,-1,-1,1,2,1,0,2021-08-06 18:22:19,237334
-2,-2,-3,-4,-4,-1,-1,0,2021-08-06 18:22:19,238336
-1,-2,-2,0,-1,0,0,0,2021-08-06 18:22:19,238336
0,-1,3,1,-3,-2,-2,-1,2021-08-06 18:22:19,238336
0,1,1,-1,-2,-2,-1,-1,2021-08-06 18:22:19,238336
0,0,1,0,3,1,1,-1,2021-08-06 18:22:19,238336
2,1,-1,2,4,2,3,0,2021-08-06 18:22:19,238336
-2,-4,-3,-1,-2,-2,-2,-1,2021-08-06 18:22:19,239334
-1,-1,0,-2,-1,-2,-2,-1,2021-08-06 18:22:19,239334
-1,0,-2,1,-3,-4,-1,-3,2021-08-06 18:22:19,269335
1,1,-1,-2,3,3,0,0,2021-08-06 18:22:19,269335
1,-1,0,-1,-3,-1,0,-2,2021-08-06 18:22:19,269335
-2,0,-2,0,-4,-1,-2,-2,2021-08-06 18:22:19,270335
-1,-1,0,2,0,-1,1,-1,2021-08-06 18:22:19,285333
-1,0,-2,-2,-1,-2,0,-1,2021-08-06 18:22:19,301377
-1,-1,-2,-4,-3,-2,-2,0,2021-08-06 18:22:19,301377
-1,-2,2,-1,-1,1,-2,-1,2021-08-06 18:22:19,301377
-1,-2,-1,-3,-2,-1,-1,0,2021-08-06 18:22:19,301377
-2,-2,0,1,-2,-1,-2,-2,2021-08-06 18:22:19,302376
-1,-1,-3,-3,-3,-3,-2,-2,2021-08-06 18:22:19,302376
1,1,0,-1,1,1,2,-1,2021-08-06 18:22:19,317378
2,1,-1,1,2,0,-2,1,2021-08-06 18:22:19,365377
0,-1,0,-4,1,1,-1,0,2021-08-06 18:22:19,365377
-1,0,-1,2,-1,0,-1,-2,2021-08-06 18:22:19,365377
-1,-2,0,0,-2,-2,-1,0,2021-08-06 18:22:19,365377
-1,-1,0,-2,-5,-2,0,-1,2021-08-06 18:22:19,366382
0,0,-1,3,4,2,2,1,2021-08-06 18:22:19,366382
-2,-1,-2,0,1,-1,-1,1,2021-08-06 18:22:19,366382
0,-1,-1,1,3,1,1,-1,2021-08-06 18:22:19,366382
0,0,-3,-1,-2,0,0,0,2021-08-06 18:22:19,366382
-1,0,-1,-2,-3,-3,-3,-2,2021-08-06 18:22:19,367377
-1,-2,0,-1,-2,0,-1,0,2021-08-06 18:22:19,367377
-3,-1,0,2,-1,-3,-4,-3,2021-08-06 18:22:19,367377
0,-2,-2,-3,-1,-2,1,0,2021-08-06 18:22:19,367377
-3,-1,-2,-1,-1,-1,0,-1,2021-08-06 18:22:19,367377
0,-1,-2,3,2,1,0,-1,2021-08-06 18:22:19,396381
-1,-2,-1,-2,-4,-2,-2,-1,2021-08-06 18:22:19,396381
0,-1,-1,-2,-2,0,0,-1,2021-08-06 18:22:19,428377
1,-1,0,-3,-2,0,-1,0,2021-08-06 18:22:19,428377
0,0,-1,-3,0,-2,0,0,2021-08-06 18:22:19,428377
0,-2,-3,-1,1,-1,0,2,2021-08-06 18:22:19,428377
-1,0,-1,-1,-1,-1,-1,0,2021-08-06 18:22:19,444374
-1,-1,1,0,-1,1,0,-1,2021-08-06 18:22:19,444374
1,1,-1,-4,-2,-1,-1,-2,2021-08-06 18:22:19,444374
-3,-1,1,-1,-3,-3,-2,-3,2021-08-06 18:22:19,444374
1,-1,2,1,5,2,2,2,2021-08-06 18:22:19,445377
-2,-1,-1,-5,-3,-3,-1,-1,2021-08-06 18:22:19,445377
0,0,0,3,0,0,0,0,2021-08-06 18:22:19,445377
0,0,-1,-3,-3,-2,0,1,2021-08-06 18:22:19,459380
-1,0,-1,-2,0,-1,0,-1,2021-08-06 18:22:19,491378
-2,-2,-1,2,-2,-3,-2,-3,2021-08-06 18:22:19,506623
-2,-2,-2,-1,-2,-2,-2,-3,2021-08-06 18:22:19,521896
1,1,0,1,3,3,1,3,2021-08-06 18:22:19,521896
-2,-1,-1,1,0,0,-3,-2,2021-08-06 18:22:19,521896
-2,-2,-3,-7,-8,-4,-3,-1,2021-08-06 18:22:19,521896
0,0,-1,3,5,2,-1,-1,2021-08-06 18:22:19,521896
1,0,0,2,5,3,1,2,2021-08-06 18:22:19,522896
1,0,-2,-1,0,-1,0,-1,2021-08-06 18:22:19,522896
-1,-1,-1,2,-3,-3,-3,-2,2021-08-06 18:22:19,522896
-1,-2,1,-2,-3,0,-1,-2,2021-08-06 18:22:19,522896
-2,-1,2,-1,-2,-3,0,-2,2021-08-06 18:22:19,522896
1,-1,-3,-3,-1,0,0,0,2021-08-06 18:22:19,537895
-1,1,-2,0,-1,-2,-1,-1,2021-08-06 18:22:19,537895
-2,-1,-1,-1,0,0,0,-1,2021-08-06 18:22:19,553898
-1,-1,-1,-1,3,1,0,1,2021-08-06 18:22:19,569895
0,1,0,-3,-2,-2,-1,0,2021-08-06 18:22:19,585895
0,-1,-1,-1,-1,0,1,0,2021-08-06 18:22:19,585895
-2,-1,-1,-3,-1,-1,-1,-1,2021-08-06 18:22:19,585895
-4,-3,-3,-1,-3,-3,-3,-5,2021-08-06 18:22:19,585895
-1,1,-1,1,0,0,-1,-1,2021-08-06 18:22:19,586897
-1,1,-1,-2,2,2,0,3,2021-08-06 18:22:19,586897
1,-2,0,-1,0,-1,1,-1,2021-08-06 18:22:19,586897
-2,0,-2,-1,-4,-2,-1,-1,2021-08-06 18:22:19,586897
-2,-2,0,1,-2,-2,-1,0,2021-08-06 18:22:19,601895
0,-2,-3,-1,-2,-2,0,0,2021-08-06 18:22:19,601895
1,0,-1,0,3,0,0,1,2021-08-06 18:22:19,601895
-1,-2,-1,0,0,1,0,0,2021-08-06 18:22:19,601895
-2,-1,0,2,2,0,-2,-3,2021-08-06 18:22:19,601895
-4,-1,-1,0,-1,-1,-2,-3,2021-08-06 18:22:19,602897
0,-1,0,-2,-4,-3,-2,-1,2021-08-06 18:22:19,617902
0,2,0,-2,-3,-1,-2,-1,2021-08-06 18:22:19,617902
0,0,0,1,0,0,-1,0,2021-08-06 18:22:19,630899
2,-2,-1,0,1,-2,0,-1,2021-08-06 18:22:19,630899
-3,-2,-2,1,-2,-2,-1,0,2021-08-06 18:22:19,630899
-2,-2,1,-1,-3,-2,0,-1,2021-08-06 18:22:19,631901
0,0,1,3,6,4,3,2,2021-08-06 18:22:19,631901
-2,-2,-3,-1,-4,-5,-2,-1,2021-08-06 18:22:19,631901
-1,1,-1,0,4,3,1,1,2021-08-06 18:22:19,649898
0,-2,-2,-2,-1,-1,-2,-1,2021-08-06 18:22:19,665897
-2,-1,-1,-4,-3,-1,-1,1,2021-08-06 18:22:19,696896
0,-2,1,1,1,1,1,-1,2021-08-06 18:22:19,712899
-1,0,0,-2,0,-1,0,0,2021-08-06 18:22:19,712899
-1,-3,-1,0,-2,-2,0,0,2021-08-06 18:22:19,712899
-1,-2,-1,0,1,1,-1,0,2021-08-06 18:22:19,712899
-1,-1,-1,0,-1,0,-1,-2,2021-08-06 18:22:19,713902
-2,0,0,-4,-7,-5,-2,-2,2021-08-06 18:22:19,713902
1,2,-2,-2,1,1,-2,-2,2021-08-06 18:22:19,713902
0,-2,-2,0,0,1,0,-1,2021-08-06 18:22:19,713902
-1,-1,-1,-2,-1,2,0,1,2021-08-06 18:22:19,744900
1,-1,-1,-1,0,1,-1,0,2021-08-06 18:22:19,759898
-3,-1,0,0,-2,-2,-3,-3,2021-08-06 18:22:19,775896
0,1,0,-2,-3,-3,-1,-1,2021-08-06 18:22:19,791897
0,0,-1,-3,3,2,0,-1,2021-08-06 18:22:19,791897
-2,-1,-1,2,-1,-3,0,-2,2021-08-06 18:22:19,791897
1,1,0,0,3,2,1,1,2021-08-06 18:22:19,791897
0,0,0,-4,-2,-1,1,-1,2021-08-06 18:22:19,791897
0,0,-1,-3,3,2,1,-1,2021-08-06 18:22:19,792898
-1,-2,-1,-1,0,-2,-3,-2,2021-08-06 18:22:19,792898
-1,1,1,1,3,2,1,0,2021-08-06 18:22:19,792898
-2,0,-1,0,-3,-4,-2,-3,2021-08-06 18:22:19,792898
1,0,-2,-2,-1,1,-1,1,2021-08-06 18:22:19,792898
-2,-2,-2,-2,-3,-2,-1,0,2021-08-06 18:22:19,792898
-2,0,-1,-1,-3,0,-1,-2,2021-08-06 18:22:19,793896
-2,-1,-1,0,1,1,-1,-2,2021-08-06 18:22:19,807899
-3,-3,-1,1,-2,-6,-3,-2,2021-08-06 18:22:19,807899
0,1,0,-2,4,2,3,0,2021-08-06 18:22:19,807899
0,1,1,1,-1,0,2,1,2021-08-06 18:22:19,808896
-1,-2,-2,-2,-3,-2,1,-1,2021-08-06 18:22:19,808896
-3,-2,0,0,-3,-3,-3,-4,2021-08-06 18:22:19,808896
-1,0,0,-1,-2,0,0,0,2021-08-06 18:22:19,808896
-1,-1,-2,-1,1,-2,-1,-1,2021-08-06 18:22:19,808896
2,1,1,0,4,2,0,0,2021-08-06 18:22:19,808896
0,1,0,-1,-2,-1,0,-1,2021-08-06 18:22:19,809896
0,-2,3,9,1,-1,-1,-2,2021-08-06 18:22:19,839894
1,-1,-2,-8,-4,-3,0,0,2021-08-06 18:22:19,839894
-1,0,-2,-3,-1,-1,1,1,2021-08-06 18:22:19,839894
1,-1,-3,-2,-1,-1,1,-1,2021-08-06 18:22:19,839894
-2,-3,-3,-5,-5,-4,-4,-3,2021-08-06 18:22:19,855894
-2,-2,-1,4,2,1,0,-1,2021-08-06 18:22:19,870896
0,0,0,1,1,0,0,1,2021-08-06 18:22:19,918895
3,3,1,-4,-2,-1,1,1,2021-08-06 18:22:19,934936
0,0,1,-2,0,2,2,1,2021-08-06 18:22:19,934936
0,-2,-3,1,-4,-4,-2,-2,2021-08-06 18:22:19,950935
-1,-2,-1,0,1,0,-2,0,2021-08-06 18:22:19,950935
-3,-2,-3,3,-3,-2,-2,-3,2021-08-06 18:22:19,950935
4,5,1,-1,5,4,-4,-1,2021-08-06 18:22:19,950935
4,3,1,-1,-1,1,1,1,2021-08-06 18:22:19,966939
4,3,2,4,4,3,10,7,2021-08-06 18:22:19,966939
-12,-11,-5,-4,-3,-6,-8,-6,2021-08-06 18:22:19,966939
-11,-12,-8,-5,-10,-8,-9,-9,2021-08-06 18:22:19,966939
2,0,1,2,6,5,-9,-2,2021-08-06 18:22:19,966939
18,9,2,1,2,4,12,13,2021-08-06 18:22:19,967935
0,3,-4,-4,-5,0,9,4,2021-08-06 18:22:19,967935
-17,-14,-4,-8,-10,-9,-9,-10,2021-08-06 18:22:19,967935
2,0,0,-1,10,4,1,1,2021-08-06 18:22:19,967935
-4,-6,-2,1,-4,-3,-7,-4,2021-08-06 18:22:19,967935
11,6,4,4,9,6,8,8,2021-08-06 18:22:19,968939
6,6,1,3,0,1,4,4,2021-08-06 18:22:19,968939
-5,-5,-4,-5,-7,-5,-3,-4,2021-08-06 18:22:19,968939
-1,-1,1,1,3,1,-2,-3,2021-08-06 18:22:19,968939
0,0,0,-1,2,-1,-3,-2,2021-08-06 18:22:19,968939
2,2,2,4,6,2,0,0,2021-08-06 18:22:19,968939
-1,-2,-1,2,-3,-4,0,-1,2021-08-06 18:22:19,998936
-4,-4,-4,-5,-5,-3,-3,-3,2021-08-06 18:22:19,998936
-4,-1,-1,-2,0,2,-2,-3,2021-08-06 18:22:19,998936
1,0,-1,-1,0,1,-1,0,2021-08-06 18:22:19,998936
3,4,1,-1,0,2,4,5,2021-08-06 18:22:19,999937
-7,-4,-2,-2,-7,-5,-5,-8,2021-08-06 18:22:19,999937
-3,-3,-1,0,-2,-2,-4,-3,2021-08-06 18:22:19,999937
7,4,1,3,7,4,6,6,2021-08-06 18:22:20,014935
-4,-2,-2,-2,-4,-4,-1,-3,2021-08-06 18:22:20,014935
-4,-2,0,-1,-4,-2,-4,-6,2021-08-06 18:22:20,014935
0,-2,0,2,-3,-3,-4,-2,2021-08-06 18:22:20,014935
2,3,-1,2,1,2,1,0,2021-08-06 18:22:20,030935
-1,1,0,-1,-2,0,-1,0,2021-08-06 18:22:20,046940
-5,-1,-2,-1,2,-1,-4,-3,2021-08-06 18:22:20,046940
0,1,0,1,0,0,-2,0,2021-08-06 18:22:20,046940
2,1,-1,-3,-1,1,1,2,2021-08-06 18:22:20,046940
-3,-2,0,-1,-2,-2,-2,-2,2021-08-06 18:22:20,046940
-1,-1,-1,-1,-3,-1,-2,-1,2021-08-06 18:22:20,047935
-1,-1,-2,0,1,1,-1,-2,2021-08-06 18:22:20,047935
-1,-3,-2,-1,-4,-3,-1,-2,2021-08-06 18:22:20,078936
4,2,1,-3,5,7,4,3,2021-08-06 18:22:20,110935
-2,-1,1,-1,-1,-2,-1,-2,2021-08-06 18:22:20,126938
-2,-3,0,-2,-4,-3,-2,-3,2021-08-06 18:22:20,127206
0,-1,-1,-1,2,0,1,-1,2021-08-06 18:22:20,127206
-1,-1,1,9,7,4,3,2,2021-08-06 18:22:20,127206
-3,0,1,5,5,3,-2,-2,2021-08-06 18:22:20,127206
2,3,0,-12,3,1,1,2,2021-08-06 18:22:20,127936
-2,0,-6,-12,-9,-5,-1,0,2021-08-06 18:22:20,127936
-3,-6,-6,-12,-22,-11,-4,-4,2021-08-06 18:22:20,127936
-1,-3,3,5,2,1,-1,0,2021-08-06 18:22:20,158464
-2,-1,-2,5,1,2,-2,-2,2021-08-06 18:22:20,158464
0,2,-2,2,4,1,2,1,2021-08-06 18:22:20,158464
-3,1,7,4,3,2,1,-2,2021-08-06 18:22:20,174465
0,1,-6,7,-1,-3,-3,0,2021-08-06 18:22:20,174465
-3,-4,-5,-6,2,1,1,-2,2021-08-06 18:22:20,175465
-3,-4,1,-14,-7,-4,-2,-3,2021-08-06 18:22:20,175465
4,8,9,23,7,2,1,5,2021-08-06 18:22:20,175465
6,11,15,31,7,3,3,5,2021-08-06 18:22:20,175465
7,5,0,-41,-2,6,6,7,2021-08-06 18:22:20,175465
-15,-21,-36,-55,-20,-10,-9,-11,2021-08-06 18:22:20,176462
-8,-13,-16,-18,-8,-6,-6,-7,2021-08-06 18:22:20,176462
-2,0,44,35,9,-1,0,-3,2021-08-06 18:22:20,190461
5,9,-10,36,8,2,2,4,2021-08-06 18:22:20,190461
9,7,-25,-18,2,8,6,7,2021-08-06 18:22:20,190461
-8,-10,4,-17,-11,-7,-5,-7,2021-08-06 18:22:20,190461
-3,-3,-12,-13,-9,-5,-4,-4,2021-08-06 18:22:20,191463
-4,-3,20,16,0,-3,-4,-2,2021-08-06 18:22:20,206460
3,7,18,26,6,1,0,1,2021-08-06 18:22:20,222461
6,6,-7,11,16,10,6,6,2021-08-06 18:22:20,222461
0,-1,-4,-8,9,6,4,2,2021-08-06 18:22:20,222461
-3,-4,0,-1,-1,-3,-2,-4,2021-08-06 18:22:20,222461
1,3,1,9,3,1,-1,2,2021-08-06 18:22:20,222461
-2,-1,0,1,-4,-4,-2,-1,2021-08-06 18:22:20,223463
-4,-4,-11,-22,-13,-7,-4,-4,2021-08-06 18:22:20,238462
-3,-3,-6,-4,-4,-2,0,-2,2021-08-06 18:22:20,238462
0,0,9,18,6,4,2,0,2021-08-06 18:22:20,254463
1,2,5,-2,1,1,1,1,2021-08-06 18:22:20,270464
0,-1,-12,-16,-5,-1,-1,0,2021-08-06 18:22:20,289462
-2,-3,-6,-5,-5,-3,-2,-4,2021-08-06 18:22:20,289462
1,0,15,19,5,0,0,0,2021-08-06 18:22:20,289462
1,4,-2,2,-1,1,1,0,2021-08-06 18:22:20,289462
-1,-4,-14,-26,-6,0,1,1,2021-08-06 18:22:20,290463
-1,-2,5,7,2,0,-1,1,2021-08-06 18:22:20,290463
1,1,16,19,-1,-3,-1,-1,2021-08-06 18:22:20,290463
3,0,-11,-12,4,4,3,1,2021-08-06 18:22:20,291028
-1,-3,-13,-19,-2,-2,-1,-1,2021-08-06 18:22:20,291028
-2,-3,0,-9,-3,-1,-2,-1,2021-08-06 18:22:20,301514
-2,-4,-4,-3,0,0,0,0,2021-08-06 18:22:20,301514
-3,-6,4,9,-4,-6,-3,-4,2021-08-06 18:22:20,301514
-1,1,1,6,-3,-2,-2,-1,2021-08-06 18:22:20,317514
1,1,3,1,1,-1,1,0,2021-08-06 18:22:20,333515
4,5,4,5,4,2,1,2,2021-08-06 18:22:20,349516
-2,0,0,2,0,1,-1,-1,2021-08-06 18:22:20,349516
-3,-2,-3,-2,0,-1,-1,-3,2021-08-06 18:22:20,365512
-1,-1,-1,-1,-3,-4,-4,0,2021-08-06 18:22:20,365512
-1,-1,-4,-1,-3,0,0,0,2021-08-06 18:22:20,365512
0,-1,0,-6,1,-1,0,0,2021-08-06 18:22:20,365512
0,-1,0,2,0,-3,-2,-1,2021-08-06 18:22:20,366514
-2,-2,-2,3,-1,0,0,-2,2021-08-06 18:22:20,366514
0,-1,-2,-5,0,1,1,1,2021-08-06 18:22:20,366514
0,1,0,0,0,-2,-1,0,2021-08-06 18:22:20,366514
-3,-3,0,6,-2,-2,-3,-2,2021-08-06 18:22:20,380513
-2,-2,0,-5,-6,-6,-3,-5,2021-08-06 18:22:20,380513
3,3,4,1,11,9,6,5,2021-08-06 18:22:20,396514
1,1,-14,-18,-2,1,2,2,2021-08-06 18:22:20,412515
-4,-3,-2,-7,-6,-3,-1,-1,2021-08-06 18:22:20,412515
-4,-4,3,7,-1,-1,-3,-3,2021-08-06 18:22:20,412515
-2,-2,8,9,5,0,-1,-2,2021-08-06 18:22:20,412515
1,3,2,6,6,2,0,0,2021-08-06 18:22:20,413512
-1,-2,-1,0,1,0,-1,-1,2021-08-06 18:22:20,413512
-3,-1,-10,-6,-5,-4,-1,-2,2021-08-06 18:22:20,413512
1,2,3,1,0,-1,0,1,2021-08-06 18:22:20,427515
0,1,3,2,-1,-1,0,2,2021-08-06 18:22:20,427515
2,1,-4,-11,-3,-2,-2,0,2021-08-06 18:22:20,427515
1,1,2,5,3,3,2,1,2021-08-06 18:22:20,427515
-3,-4,-3,-3,-3,-4,-3,-4,2021-08-06 18:22:20,458514
-1,-2,2,2,0,1,0,-1,2021-08-06 18:22:20,458514
0,1,4,9,2,0,1,-1,2021-08-06 18:22:20,474515
-1,0,0,0,-1,0,-2,-1,2021-08-06 18:22:20,490512
-1,-1,-6,-14,-8,-5,-5,-4,2021-08-06 18:22:20,490512
-2,-2,8,-3,-1,1,0,0,2021-08-06 18:22:20,490512
0,0,-17,-11,0,0,1,1,2021-08-06 18:22:20,490512
0,-2,-4,-5,-1,0,-1,0,2021-08-06 18:22:20,490512
0,2,9,8,2,0,-1,-2,2021-08-06 18:22:20,491515
-2,1,3,9,-4,-2,-4,-2,2021-08-06 18:22:20,491515
2,0,-6,-2,3,2,0,2,2021-08-06 18:22:20,491515
-6,-4,-5,-11,-6,-4,-3,-3,2021-08-06 18:22:20,491515
-4,-3,-3,0,-7,-3,-2,-4,2021-08-06 18:22:20,522034
2,1,7,5,3,1,2,1,2021-08-06 18:22:20,538035
3,4,6,8,3,2,1,1,2021-08-06 18:22:20,570035
0,1,2,9,5,-1,-1,-2,2021-08-06 18:22:20,570035
-3,-1,-1,-6,-5,-3,-3,-2,2021-08-06 18:22:20,570035
-1,0,-10,-13,-8,0,1,0,2021-08-06 18:22:20,571039
-5,-3,0,4,1,-2,-2,-3,2021-08-06 18:22:20,586033
1,0,1,13,2,0,1,1,2021-08-06 18:22:20,586033
-3,-3,-4,-24,-5,-2,-3,-2,2021-08-06 18:22:20,602037
0,0,7,15,5,0,0,0,2021-08-06 18:22:20,618038
3,1,-7,-8,-1,2,1,1,2021-08-06 18:22:20,618038
-2,-5,-16,-40,-7,-2,-2,-3,2021-08-06 18:22:20,618038
-4,-6,-3,8,-8,-6,-6,-5,2021-08-06 18:22:20,618038
-1,-4,-5,-4,2,0,-3,0,2021-08-06 18:22:20,619039
0,0,10,14,4,2,1,0,2021-08-06 18:22:20,619039
0,1,7,20,6,2,1,0,2021-08-06 18:22:20,634035
4,5,-3,-2,1,3,3,3,2021-08-06 18:22:20,650035
-1,0,1,0,0,-2,-3,-2,2021-08-06 18:22:20,666088
-2,-1,4,4,-6,-3,-1,-2,2021-08-06 18:22:20,682088
0,-1,-2,-7,-5,-1,-1,-1,2021-08-06 18:22:20,682088
-1,-1,-4,-6,2,2,0,1,2021-08-06 18:22:20,682088
-1,0,0,3,-3,-2,-2,-2,2021-08-06 18:22:20,698087
-1,-1,-2,-4,0,-1,-1,0,2021-08-06 18:22:20,698087
1,0,2,3,1,-1,2,0,2021-08-06 18:22:20,698087
-2,0,2,11,2,-1,0,-1,2021-08-06 18:22:20,698087
1,0,6,13,1,1,0,0,2021-08-06 18:22:20,699087
-4,-2,3,-26,-8,-4,-3,-3,2021-08-06 18:22:20,699087
-3,-3,-20,-17,-5,-1,-3,-2,2021-08-06 18:22:20,699087
-2,-4,-6,-2,-2,-4,-5,-3,2021-08-06 18:22:20,699087
2,1,-7,-5,-1,1,0,1,2021-08-06 18:22:20,699087
-1,2,11,16,1,0,0,-1,2021-08-06 18:22:20,700089
1,2,8,-4,-3,-3,-1,0,2021-08-06 18:22:20,700089
-1,-2,-2,5,6,1,2,1,2021-08-06 18:22:20,700089
-2,-3,-6,-3,-2,0,-1,0,2021-08-06 18:22:20,700089
0,-1,1,-1,-3,-3,-2,-2,2021-08-06 18:22:20,700089
0,3,5,10,1,1,1,1,2021-08-06 18:22:20,701087
1,2,-5,-3,2,2,2,2,2021-08-06 18:22:20,701087
-1,-2,-2,-2,2,0,1,-2,2021-08-06 18:22:20,701087
-3,-3,-3,2,0,-2,-1,0,2021-08-06 18:22:20,701087
0,-1,-1,-3,-2,-1,-1,-3,2021-08-06 18:22:20,701087
-2,-2,0,-3,-7,-3,-3,-3,2021-08-06 18:22:20,714085
0,0,6,9,9,4,1,0,2021-08-06 18:22:20,714085
3,4,4,16,8,5,2,3,2021-08-06 18:22:20,729088
2,4,4,26,10,2,1,1,2021-08-06 18:22:20,744088
-2,-2,-1,-23,-10,-3,-2,-1,2021-08-06 18:22:20,744088
-5,-7,-24,-65,-17,-6,-5,-3,2021-08-06 18:22:20,744088
-1,-2,12,30,7,0,-3,-2,2021-08-06 18:22:20,744088
1,3,-15,1,5,3,1,3,2021-08-06 18:22:20,745088
-3,-3,-11,-27,-17,-9,-1,-1,2021-08-06 18:22:20,745088
-8,-10,-12,-15,-17,-13,-7,-8,2021-08-06 18:22:20,745088
-1,-1,24,10,-5,-3,-1,-3,2021-08-06 18:22:20,745088
3,3,16,33,12,6,2,4,2021-08-06 18:22:20,745088
1,0,-26,-16,7,5,2,-1,2021-08-06 18:22:20,776087
-5,-6,-21,-27,-9,-4,-3,-5,2021-08-06 18:22:20,791088
-1,-3,-4,7,9,3,-1,-2,2021-08-06 18:22:20,806136
0,1,22,26,6,1,-1,-1,2021-08-06 18:22:20,806136
5,7,19,11,4,2,1,4,2021-08-06 18:22:20,806136
1,1,-1,-2,-4,-3,-1,1,2021-08-06 18:22:20,806136
-1,-3,-23,-22,-5,-2,-1,0,2021-08-06 18:22:20,806136
-2,-4,0,-14,-4,-1,-3,-2,2021-08-06 18:22:20,806136
-2,-2,9,24,8,2,0,-1,2021-08-06 18:22:20,807088
1,4,17,24,8,4,2,0,2021-08-06 18:22:20,807088
0,1,-2,-9,-4,0,1,2,2021-08-06 18:22:20,807088
-3,-4,-13,-21,-8,-4,-2,-3,2021-08-06 18:22:20,807088
-3,-4,-1,2,-3,-2,-3,-3,2021-08-06 18:22:20,838087
-1,0,9,17,7,3,-1,-1,2021-08-06 18:22:20,854087
0,-2,-10,-13,-3,-1,0,1,2021-08-06 18:22:20,854087
-1,-2,-4,-16,-11,-5,-5,-3,2021-08-06 18:22:20,854087
3,2,3,6,10,6,4,3,2021-08-06 18:22:20,854087
3,6,15,28,10,3,3,1,2021-08-06 18:22:20,854087
-3,-2,-12,-7,-5,-2,-2,-3,2021-08-06 18:22:20,854087
-6,-6,-15,-36,-13,-7,-4,-4,2021-08-06 18:22:20,854087
