EMG 1,EMG 2,EMG 3,EMG 4,EMG 5,EMG 6,EMG 7,EMG 8,Timestamp,Milliseconds
-2,-2,-3,-6,-6,-3,-2,-2,2021-08-07 12:45:19,824496
0,-1,-1,1,-1,-3,-1,0,2021-08-07 12:45:19,824496
-3,-6,-4,-3,-3,-1,-2,-2,2021-08-07 12:45:19,824496
0,0,-1,-2,-4,-3,-2,-2,2021-08-07 12:45:19,824496
-2,-4,-3,-3,-3,-4,-3,-2,2021-08-07 12:45:19,824496
3,4,3,-2,0,2,2,1,2021-08-07 12:45:19,824496
3,3,1,-1,0,3,2,1,2021-08-07 12:45:19,824496
0,0,0,4,6,2,1,1,2021-08-07 12:45:19,824496
-4,-3,-3,-1,-3,-2,-2,-3,2021-08-07 12:45:19,824496
0,0,2,-1,-2,-1,-1,0,2021-08-07 12:45:19,824496
0,-4,-3,-1,-6,-4,-1,-2,2021-08-07 12:45:19,825498
1,1,-1,-3,-1,-3,-3,-1,2021-08-07 12:45:19,825498
-2,1,0,0,2,2,0,1,2021-08-07 12:45:19,840496
-1,-1,-2,-3,-8,-3,-1,0,2021-08-07 12:45:19,856495
-3,-2,0,3,1,-2,-1,-2,2021-08-07 12:45:19,888496
0,-1,-1,-2,-2,1,1,-1,2021-08-07 12:45:19,904497
2,1,2,6,15,9,5,2,2021-08-07 12:45:19,904497
-2,-1,1,1,1,1,0,-1,2021-08-07 12:45:19,904497
0,0,0,-4,-5,-4,-1,0,2021-08-07 12:45:19,904497
-4,-3,0,-1,-3,-2,-4,-1,2021-08-07 12:45:19,904497
2,3,2,2,1,2,2,1,2021-08-07 12:45:19,904497
-1,-1,-2,-2,-2,1,-1,0,2021-08-07 12:45:19,904497
1,1,2,1,4,2,2,2,2021-08-07 12:45:19,904497
-5,-6,-4,-2,1,2,-2,-3,2021-08-07 12:45:19,904497
0,1,2,1,0,2,1,2,2021-08-07 12:45:19,935496
-1,-4,-2,-4,-5,-2,-1,-1,2021-08-07 12:45:19,935496
-2,-1,-1,-1,-3,-2,-2,-2,2021-08-07 12:45:19,935496
0,0,-1,-3,-2,-1,-1,0,2021-08-07 12:45:19,935496
-1,-2,-2,-1,-3,-1,0,-2,2021-08-07 12:45:19,935496
-2,-2,-1,-5,-4,-1,-2,-1,2021-08-07 12:45:19,935496
1,3,3,4,5,4,1,1,2021-08-07 12:45:19,935496
-3,-2,-1,2,4,1,-1,-1,2021-08-07 12:45:19,935496
1,2,5,2,0,-2,-1,2,2021-08-07 12:45:19,935496
-3,-5,-6,-4,-5,-6,-3,-3,2021-08-07 12:45:19,950497
-4,-6,-5,-5,-5,-2,-2,-3,2021-08-07 12:45:19,956497
0,1,3,2,3,4,2,1,2021-08-07 12:45:19,956497
2,4,2,0,2,3,0,3,2021-08-07 12:45:19,956497
-6,-6,-7,-7,-8,-7,-5,-5,2021-08-07 12:45:19,956497
4,5,4,5,2,1,2,3,2021-08-07 12:45:19,982495
1,0,0,1,-1,-2,1,0,2021-08-07 12:45:19,998497
-3,-4,-5,-4,-2,-1,-2,-2,2021-08-07 12:45:20,030496
2,3,1,-1,-2,1,0,0,2021-08-07 12:45:20,046497
-4,-5,-5,-5,-4,-5,-3,-3,2021-08-07 12:45:20,046497
-2,0,1,-2,-2,0,-1,-1,2021-08-07 12:45:20,046497
1,0,0,1,1,0,0,-1,2021-08-07 12:45:20,046497
0,-2,-3,1,1,-1,0,-1,2021-08-07 12:45:20,046497
-2,-4,-3,-3,0,-1,1,-2,2021-08-07 12:45:20,046497
1,3,2,-1,-3,-3,-1,0,2021-08-07 12:45:20,046497
-1,1,-2,4,3,2,1,-1,2021-08-07 12:45:20,046497
0,2,3,5,5,2,1,0,2021-08-07 12:45:20,046497
-1,-2,-4,-2,-3,-3,-3,-2,2021-08-07 12:45:20,046497
-1,-1,-1,-1,-2,-2,0,0,2021-08-07 12:45:20,047497
-3,-4,-3,-3,-2,-1,-1,-1,2021-08-07 12:45:20,047497
-1,0,-1,-1,-1,-2,-1,-1,2021-08-07 12:45:20,047497
0,2,1,1,1,-1,0,-2,2021-08-07 12:45:20,062499
0,-2,-3,-3,-2,1,-1,-1,2021-08-07 12:45:20,062499
-1,-1,0,0,-1,-1,-1,0,2021-08-07 12:45:20,062499
-1,0,-1,0,1,1,0,0,2021-08-07 12:45:20,062499
-1,-1,0,-1,-2,-1,-2,1,2021-08-07 12:45:20,078496
1,-1,-1,0,1,2,1,-2,2021-08-07 12:45:20,078496
-1,-2,-2,0,-2,-2,0,0,2021-08-07 12:45:20,078496
0,-2,1,0,-1,-1,-1,-2,2021-08-07 12:45:20,078496
-2,-2,-3,-2,-3,-1,-3,-1,2021-08-07 12:45:20,110497
-1,0,1,1,-2,-4,-3,0,2021-08-07 12:45:20,110497
-1,-2,-1,-4,-2,0,1,-1,2021-08-07 12:45:20,110497
1,3,5,4,5,2,1,3,2021-08-07 12:45:20,110497
2,1,3,7,6,4,3,0,2021-08-07 12:45:20,126496
1,0,-1,2,3,1,0,1,2021-08-07 12:45:20,126496
-1,-2,-3,1,2,2,0,-1,2021-08-07 12:45:20,126496
-1,1,-2,3,4,2,0,0,2021-08-07 12:45:20,126496
0,-2,-2,-3,-5,-4,-3,-2,2021-08-07 12:45:20,142497
-3,-1,-1,-1,-5,-4,-4,-1,2021-08-07 12:45:20,158497
0,-1,-1,-5,-7,-5,-2,0,2021-08-07 12:45:20,174497
0,-2,1,-4,-6,-2,-1,-1,2021-08-07 12:45:20,174497
0,1,-1,-3,-2,-1,0,0,2021-08-07 12:45:20,174497
2,-1,0,6,11,6,2,0,2021-08-07 12:45:20,174497
-1,-2,0,-2,-1,0,-1,-1,2021-08-07 12:45:20,174497
-1,1,-1,1,1,-1,-1,-1,2021-08-07 12:45:20,174497
-1,2,2,0,-1,-2,0,1,2021-08-07 12:45:20,190495
-1,0,-1,-2,-4,-2,-1,-1,2021-08-07 12:45:20,206497
-1,1,-2,-1,0,-2,-2,0,2021-08-07 12:45:20,206497
-3,-4,-6,-6,-6,-4,-3,-3,2021-08-07 12:45:20,206497
-1,-1,0,1,0,2,0,1,2021-08-07 12:45:20,206497
0,-2,-4,-6,-3,1,0,-1,2021-08-07 12:45:20,206497
0,-1,-2,-2,-4,-5,-2,-2,2021-08-07 12:45:20,206497
2,1,2,4,10,9,3,3,2021-08-07 12:45:20,206497
-1,-1,-1,0,2,2,1,0,2021-08-07 12:45:20,221498
0,1,2,1,-1,-1,-1,0,2021-08-07 12:45:20,237495
-3,-2,0,3,8,3,-1,-3,2021-08-07 12:45:20,237495
0,0,0,-4,-4,-2,0,2,2021-08-07 12:45:20,237495
-1,-2,0,-3,-4,-5,-3,-2,2021-08-07 12:45:20,237495
-1,-2,-3,0,0,-2,0,1,2021-08-07 12:45:20,237495
2,5,4,-1,-1,-1,-1,2,2021-08-07 12:45:20,237495
-1,-3,1,2,-1,-4,-1,-2,2021-08-07 12:45:20,237495
-3,-2,-4,-3,-1,-2,-2,-1,2021-08-07 12:45:20,267497
-2,-5,-4,-7,-12,-6,-2,-2,2021-08-07 12:45:20,282495
1,3,2,4,2,1,1,2,2021-08-07 12:45:20,297497
2,1,1,0,4,3,1,0,2021-08-07 12:45:20,297497
0,-1,-1,1,-2,-1,0,-1,2021-08-07 12:45:20,297497
-1,-2,-1,0,1,1,0,-1,2021-08-07 12:45:20,297497
-2,-6,-7,-8,-11,-8,-3,-2,2021-08-07 12:45:20,297497
4,4,3,6,10,6,4,3,2021-08-07 12:45:20,297497
0,-1,0,1,0,2,-2,-1,2021-08-07 12:45:20,298497
-2,-3,-1,-2,-1,-3,-2,-1,2021-08-07 12:45:20,298497
1,1,1,0,-2,0,0,-1,2021-08-07 12:45:20,298497
-1,-1,-2,-3,-7,-7,-5,-4,2021-08-07 12:45:20,298497
-1,1,2,0,7,3,2,-1,2021-08-07 12:45:20,313496
1,1,0,2,1,0,1,1,2021-08-07 12:45:20,313496
-3,-4,-3,-3,-2,0,-1,-1,2021-08-07 12:45:20,329496
0,-2,-2,-2,1,2,1,-2,2021-08-07 12:45:20,329496
0,2,0,-1,0,1,0,0,2021-08-07 12:45:20,345497
0,0,-2,0,-1,-1,1,0,2021-08-07 12:45:20,359497
-1,-3,-2,-1,0,-1,1,0,2021-08-07 12:45:20,359497
-6,-4,-5,-3,-6,-4,-5,-3,2021-08-07 12:45:20,359497
-5,-5,-4,-1,-5,-5,-5,-4,2021-08-07 12:45:20,359497
-1,-1,3,4,9,5,1,0,2021-08-07 12:45:20,360499
1,2,3,2,0,0,-2,1,2021-08-07 12:45:20,360499
0,2,0,1,0,1,1,-1,2021-08-07 12:45:20,360499
0,-2,-3,-6,-8,-5,-2,-1,2021-08-07 12:45:20,393529
-1,0,-3,-2,-2,-1,-1,0,2021-08-07 12:45:20,393529
1,0,0,-1,1,1,-1,0,2021-08-07 12:45:20,393529
0,-2,0,-3,-4,-4,-2,0,2021-08-07 12:45:20,393529
1,0,0,-2,-3,-2,1,0,2021-08-07 12:45:20,393529
-4,-7,-4,-3,2,1,-4,-3,2021-08-07 12:45:20,393529
2,3,5,6,7,4,4,2,2021-08-07 12:45:20,393529
-1,1,-2,-1,-6,-4,-3,-1,2021-08-07 12:45:20,394529
-1,1,0,0,0,-1,0,1,2021-08-07 12:45:20,424527
0,0,0,2,1,0,-1,-1,2021-08-07 12:45:20,440528
-3,-3,-3,-4,-1,-1,-2,-2,2021-08-07 12:45:20,456527
-1,-2,-2,-1,-4,-4,-2,-3,2021-08-07 12:45:20,456527
0,0,1,-1,-2,-1,-1,0,2021-08-07 12:45:20,456527
1,1,-1,-1,2,2,2,-1,2021-08-07 12:45:20,456527
-2,-2,-2,0,0,-3,-2,-3,2021-08-07 12:45:20,456527
-3,-4,-3,-8,-8,-5,-3,-3,2021-08-07 12:45:20,456527
2,3,3,3,7,5,2,2,2021-08-07 12:45:20,456527
-1,3,0,-1,-3,-2,0,1,2021-08-07 12:45:20,456527
0,-1,0,5,12,7,2,0,2021-08-07 12:45:20,457530
-3,-5,-5,-4,-5,-5,-2,0,2021-08-07 12:45:20,457530
-2,-2,-1,-2,-1,-1,-1,-2,2021-08-07 12:45:20,488528
-1,-2,-2,-6,-7,-4,-1,-2,2021-08-07 12:45:20,488528
0,0,2,1,6,3,2,1,2021-08-07 12:45:20,488528
2,2,1,4,9,6,3,3,2021-08-07 12:45:20,488528
-1,-4,-5,1,0,-1,-2,-2,2021-08-07 12:45:20,504528
-1,-2,-2,0,0,0,0,0,2021-08-07 12:45:20,504528
2,4,1,-4,-6,-4,-1,0,2021-08-07 12:45:20,504528
3,2,3,-1,2,1,1,1,2021-08-07 12:45:20,504528
0,-2,-2,-2,-4,-3,0,-1,2021-08-07 12:45:20,520526
0,0,-1,-2,-1,-2,-2,-2,2021-08-07 12:45:20,520526
-3,-7,-4,1,-2,-1,-2,-3,2021-08-07 12:45:20,520526
-1,1,0,-2,-2,-2,-1,0,2021-08-07 12:45:20,520526
0,-1,0,-1,-2,-1,0,-2,2021-08-07 12:45:20,551527
0,1,0,1,1,0,-1,1,2021-08-07 12:45:20,567527
-2,-1,-2,-6,-10,-8,-4,-1,2021-08-07 12:45:20,567527
0,-1,2,2,4,2,1,-3,2021-08-07 12:45:20,567527
-2,-5,-7,-5,-2,-5,-4,-2,2021-08-07 12:45:20,567527
4,9,7,4,8,8,6,4,2021-08-07 12:45:20,567527
-3,-4,-5,-3,-2,-4,-3,-2,2021-08-07 12:45:20,567527
-1,1,2,3,0,-2,1,-1,2021-08-07 12:45:20,567527
-1,0,2,-1,0,-2,-2,-2,2021-08-07 12:45:20,583528
-1,-4,0,-1,-2,-3,-2,-3,2021-08-07 12:45:20,583528
1,-1,-2,-4,-4,-1,-2,-1,2021-08-07 12:45:20,583528
-3,-4,-4,-3,-2,-2,-2,-2,2021-08-07 12:45:20,583528
2,1,2,0,2,1,1,0,2021-08-07 12:45:20,615036
1,2,1,0,2,-1,0,2,2021-08-07 12:45:20,631040
-3,-2,-3,2,0,-1,-1,-3,2021-08-07 12:45:20,631040
0,0,0,0,-2,1,0,-2,2021-08-07 12:45:20,631040
0,3,3,0,0,0,1,2,2021-08-07 12:45:20,631040
-4,-4,-4,-9,-13,-6,-3,-2,2021-08-07 12:45:20,631040
-4,-6,-5,-9,-9,-6,-2,-4,2021-08-07 12:45:20,631040
3,3,3,12,20,11,3,1,2021-08-07 12:45:20,632040
1,1,1,0,0,-1,1,-1,2021-08-07 12:45:20,632040
-2,-3,-5,-4,-6,-6,-4,-2,2021-08-07 12:45:20,632040
-1,-1,-1,-3,-8,-5,-3,-1,2021-08-07 12:45:20,647038
-2,-2,-2,-3,3,2,0,-1,2021-08-07 12:45:20,647038
-4,-2,-3,2,3,0,-1,0,2021-08-07 12:45:20,663036
1,1,1,0,-4,-3,-1,0,2021-08-07 12:45:20,663036
-1,1,0,0,-1,-1,1,0,2021-08-07 12:45:20,663036
-5,-5,-6,-7,-9,-5,-4,-3,2021-08-07 12:45:20,663036
-1,-2,-2,-3,-4,-1,-3,-1,2021-08-07 12:45:20,695038
4,7,7,7,5,2,2,2,2021-08-07 12:45:20,711038
2,2,2,4,6,5,1,2,2021-08-07 12:45:20,711038
-2,-4,-3,-6,-9,-5,-6,-2,2021-08-07 12:45:20,711038
-5,-8,-10,-9,-8,-4,-2,-5,2021-08-07 12:45:20,711038
4,2,6,12,15,7,4,2,2021-08-07 12:45:20,711038
2,2,1,-1,3,-1,1,1,2021-08-07 12:45:20,711038
-3,-2,-1,0,-3,-3,-1,-3,2021-08-07 12:45:20,712041
-2,1,-3,-3,-5,-4,-2,2,2021-08-07 12:45:20,727038
1,-2,-1,4,6,6,2,-1,2021-08-07 12:45:20,743037
0,-1,0,3,7,4,0,0,2021-08-07 12:45:20,743037
-1,-2,-3,0,-3,-3,-1,-1,2021-08-07 12:45:20,743037
-1,-1,1,2,1,-1,0,-1,2021-08-07 12:45:20,743037
-3,-4,-5,-5,-8,-4,-1,-4,2021-08-07 12:45:20,743037
-2,-1,-1,0,-2,-1,-2,-2,2021-08-07 12:45:20,743037
1,-1,0,-2,-4,-3,-1,0,2021-08-07 12:45:20,743037
2,2,1,3,3,2,1,1,2021-08-07 12:45:20,759037
-2,-3,-4,-6,-5,-4,-2,-2,2021-08-07 12:45:20,759037
0,-1,-1,1,-2,0,-1,-3,2021-08-07 12:45:20,759037
-3,-4,-6,-5,-2,-2,-1,-2,2021-08-07 12:45:20,759037
4,7,8,4,5,3,3,1,2021-08-07 12:45:20,785037
0,1,1,0,-2,-2,0,0,2021-08-07 12:45:20,786038
-3,-1,0,0,-1,-4,-1,-2,2021-08-07 12:45:20,786038
0,-1,-2,1,1,0,-1,-1,2021-08-07 12:45:20,786038
-2,-3,-3,-2,-1,-1,-1,-3,2021-08-07 12:45:20,805037
-3,-3,-4,-4,-4,-3,-4,-2,2021-08-07 12:45:20,805037
-1,-5,-4,-2,-2,-2,-2,-2,2021-08-07 12:45:20,805037
3,4,4,0,-2,-2,1,1,2021-08-07 12:45:20,805037
-1,-1,0,-3,-1,3,2,0,2021-08-07 12:45:20,820038
-2,-2,-1,2,2,0,-1,-2,2021-08-07 12:45:20,820038
-3,-3,-3,-3,-7,-5,-4,-3,2021-08-07 12:45:20,820038
2,3,2,-2,1,3,2,2,2021-08-07 12:45:20,820038
0,2,1,3,9,4,3,2,2021-08-07 12:45:20,851038
-3,-2,0,-1,-2,-1,-1,-1,2021-08-07 12:45:20,867039
0,2,1,-1,2,0,2,1,2021-08-07 12:45:20,883039
-2,-3,-2,-3,-6,-3,-2,-3,2021-08-07 12:45:20,883039
0,-2,-2,-1,-6,-3,-3,-1,2021-08-07 12:45:20,883039
-1,-4,-3,-3,-1,0,-2,-1,2021-08-07 12:45:20,883039
-2,-2,-4,-6,-7,-5,-2,-1,2021-08-07 12:45:20,899038
1,0,2,6,6,1,2,2,2021-08-07 12:45:20,915037
0,2,0,3,4,5,1,1,2021-08-07 12:45:20,915037
-1,1,0,-1,2,-2,0,0,2021-08-07 12:45:20,915037
0,-2,-2,-6,-12,-7,-2,-2,2021-08-07 12:45:20,915037
-2,-1,-4,-6,-1,2,1,2,2021-08-07 12:45:20,915037
0,2,2,11,11,5,0,0,2021-08-07 12:45:20,915037
-2,1,0,-3,-5,-3,-2,-1,2021-08-07 12:45:20,915037
0,2,3,3,7,5,2,2,2021-08-07 12:45:20,915037
-2,-2,-1,-2,-7,-6,-2,-2,2021-08-07 12:45:20,916040
-3,-4,-3,-4,-4,-4,-1,-1,2021-08-07 12:45:20,931036
0,-2,-4,-6,-4,-1,-1,-2,2021-08-07 12:45:20,947039
0,-1,0,1,-1,-3,-3,-1,2021-08-07 12:45:20,963043
0,0,2,3,9,8,3,0,2021-08-07 12:45:20,963043
1,2,1,-1,0,-1,-1,0,2021-08-07 12:45:20,963043
-3,-2,-2,-2,-1,-2,-2,-2,2021-08-07 12:45:20,963043
-1,0,-1,1,4,4,2,0,2021-08-07 12:45:20,963043
-1,-2,-3,0,-2,-2,-2,-2,2021-08-07 12:45:20,963043
0,-1,-1,-6,-6,-1,-1,-3,2021-08-07 12:45:20,964040
-1,-2,-2,-2,-4,-2,0,-2,2021-08-07 12:45:20,964040
0,1,1,0,2,4,1,1,2021-08-07 12:45:20,964040
1,2,2,4,5,1,0,0,2021-08-07 12:45:20,964040
-2,-3,-2,-3,-4,-3,-2,0,2021-08-07 12:45:20,994037
-1,-3,-2,0,2,1,-1,0,2021-08-07 12:45:21,010038
-4,-4,-3,-3,-4,-1,-3,-2,2021-08-07 12:45:21,010038
2,4,4,4,2,-2,-1,0,2021-08-07 12:45:21,010038
0,2,2,3,-1,-1,-2,0,2021-08-07 12:45:21,010038
0,1,-3,0,1,-1,0,-1,2021-08-07 12:45:21,010038
-6,-6,-7,-8,-9,-6,-5,-5,2021-08-07 12:45:21,010038
6,6,6,8,11,8,5,4,2021-08-07 12:45:21,010038
-1,0,-1,-1,-3,-3,-1,0,2021-08-07 12:45:21,042037
-1,0,2,2,3,2,0,-1,2021-08-07 12:45:21,058038
-2,-1,-1,3,2,0,1,-1,2021-08-07 12:45:21,073039
-5,-8,-5,-10,-12,-7,-6,-4,2021-08-07 12:45:21,073039
1,0,-2,-1,2,3,1,0,2021-08-07 12:45:21,073039
0,0,1,2,0,0,0,1,2021-08-07 12:45:21,073039
0,-1,0,2,0,-1,-1,1,2021-08-07 12:45:21,089038
-1,-1,-1,-4,-7,-3,-2,0,2021-08-07 12:45:21,105040
-1,-1,-1,-3,-1,-1,0,-1,2021-08-07 12:45:21,105040
-2,-4,-3,-3,-3,-4,-3,-2,2021-08-07 12:45:21,105040
2,3,2,2,4,4,1,1,2021-08-07 12:45:21,105040
-3,-2,-3,-1,-5,-3,-3,-2,2021-08-07 12:45:21,105040
-2,-5,-5,-4,-6,-4,-2,-2,2021-08-07 12:45:21,105040
3,3,4,6,10,7,3,2,2021-08-07 12:45:21,106037
-1,-2,-1,-2,-1,-4,-1,-2,2021-08-07 12:45:21,121036
-1,1,-2,-2,1,3,2,0,2021-08-07 12:45:21,121036
-1,1,-1,3,2,0,-1,0,2021-08-07 12:45:21,121036
-3,-1,-3,-5,-9,-6,-4,-2,2021-08-07 12:45:21,121036
2,0,0,3,4,3,2,0,2021-08-07 12:45:21,121036
-2,-3,-2,-1,0,-1,-2,-3,2021-08-07 12:45:21,121036
0,0,0,1,0,0,1,0,2021-08-07 12:45:21,122037
-4,-4,-4,-7,-10,-7,-4,-2,2021-08-07 12:45:21,122037
3,5,4,5,1,1,-1,3,2021-08-07 12:45:21,122037
-2,0,-1,3,9,6,3,0,2021-08-07 12:45:21,122037
-1,-4,-4,-5,-4,-2,-2,-2,2021-08-07 12:45:21,168036
1,2,1,4,9,5,3,1,2021-08-07 12:45:21,168036
2,1,-2,-5,-7,-3,-2,1,2021-08-07 12:45:21,168036
-3,-4,-3,-3,-3,-3,-2,-2,2021-08-07 12:45:21,168036
-2,0,1,1,0,-1,0,-2,2021-08-07 12:45:21,168036
-2,-5,-2,-2,-3,-1,-3,-3,2021-08-07 12:45:21,168036
-4,-2,0,2,7,4,0,-2,2021-08-07 12:45:21,168036
1,0,0,1,2,1,-2,-1,2021-08-07 12:45:21,168036
0,-1,-1,-3,-4,-4,-3,-1,2021-08-07 12:45:21,184039
1,1,1,4,2,3,4,-1,2021-08-07 12:45:21,200036
1,1,1,-1,-2,0,0,0,2021-08-07 12:45:21,200036
-1,-2,-2,-4,-7,-4,-1,-2,2021-08-07 12:45:21,200036
2,4,5,4,8,4,3,1,2021-08-07 12:45:21,216037
0,2,1,3,2,-1,0,1,2021-08-07 12:45:21,224037
-2,-3,-4,-5,-4,-2,-2,-1,2021-08-07 12:45:21,224037
-2,-3,-2,-2,-6,-6,-4,-3,2021-08-07 12:45:21,224037
0,-1,0,0,0,1,0,-1,2021-08-07 12:45:21,224037
0,1,-1,-3,-2,-2,0,0,2021-08-07 12:45:21,224037
0,2,-1,-3,-2,0,0,0,2021-08-07 12:45:21,225040
-2,-3,-3,-3,-6,-6,-3,-2,2021-08-07 12:45:21,225040
0,0,-1,-2,-4,-4,-3,-2,2021-08-07 12:45:21,248036
-1,-3,-3,-4,0,1,0,1,2021-08-07 12:45:21,264038
0,-1,0,1,4,3,1,-1,2021-08-07 12:45:21,264038
-2,-1,-3,-2,2,-1,-1,-1,2021-08-07 12:45:21,264038
1,2,2,0,2,1,1,2,2021-08-07 12:45:21,264038
-3,-4,-3,-3,-6,-7,-6,-4,2021-08-07 12:45:21,264038
-2,-3,-3,-10,-14,-8,-4,-4,2021-08-07 12:45:21,264038
4,5,3,5,8,7,3,2,2021-08-07 12:45:21,265040
0,-1,1,3,5,3,-1,-1,2021-08-07 12:45:21,296038
1,1,-2,-2,-1,2,1,1,2021-08-07 12:45:21,296038
-3,-4,-2,-1,2,-1,0,-3,2021-08-07 12:45:21,296038
-2,-8,-4,-7,-10,-7,-6,-3,2021-08-07 12:45:21,312038
2,3,4,-1,-3,-1,1,2,2021-08-07 12:45:21,312038
1,0,0,-1,-4,-2,-2,1,2021-08-07 12:45:21,312038
0,-2,-1,0,-3,-4,-1,-1,2021-08-07 12:45:21,312038
0,1,0,3,4,5,2,-1,2021-08-07 12:45:21,312038
-4,-4,-6,-10,-6,-5,-6,-4,2021-08-07 12:45:21,328036
4,5,7,10,13,6,3,2,2021-08-07 12:45:21,328036
0,0,-1,-2,-1,-1,-2,0,2021-08-07 12:45:21,328036
-2,-1,-2,-3,-4,-1,-2,-1,2021-08-07 12:45:21,328036
-2,-6,-5,-3,-5,-4,-2,-4,2021-08-07 12:45:21,344038
3,5,4,0,0,2,3,2,2021-08-07 12:45:21,344038
1,3,1,2,2,2,2,1,2021-08-07 12:45:21,360038
0,1,1,1,-1,-4,0,0,2021-08-07 12:45:21,360038
-2,-1,-2,0,1,2,1,1,2021-08-07 12:45:21,360038
-5,-6,-7,-4,-3,-2,-5,-5,2021-08-07 12:45:21,360038
0,-1,1,1,1,1,0,-1,2021-08-07 12:45:21,361038
-2,-2,-2,2,9,4,0,-2,2021-08-07 12:45:21,361038
1,2,2,3,-1,0,-1,-1,2021-08-07 12:45:21,392038
-1,-1,-1,-7,-11,-7,-2,-1,2021-08-07 12:45:21,392038
-1,-2,-2,-1,4,5,3,1,2021-08-07 12:45:21,392038
2,-1,0,3,1,-1,0,1,2021-08-07 12:45:21,392038
-2,-1,0,-3,-4,-3,-1,-2,2021-08-07 12:45:21,408036
-3,-2,-4,-1,3,1,-1,-1,2021-08-07 12:45:21,408036
-1,-3,-3,-1,-3,-4,-3,0,2021-08-07 12:45:21,408036
2,4,4,-2,-6,-1,1,0,2021-08-07 12:45:21,408036
-1,-1,-3,-2,-1,-1,0,0,2021-08-07 12:45:21,439038
0,-1,1,3,8,6,3,-1,2021-08-07 12:45:21,455038
-2,-4,-4,-2,-5,-4,-1,0,2021-08-07 12:45:21,471038
-2,-2,-3,-3,-2,-1,-2,-2,2021-08-07 12:45:21,471038
1,3,2,3,1,0,3,1,2021-08-07 12:45:21,471038
0,0,0,2,1,-1,-3,-2,2021-08-07 12:45:21,471038
-2,-2,-3,-1,0,-1,-2,-2,2021-08-07 12:45:21,471038
3,3,4,3,1,1,-1,1,2021-08-07 12:45:21,472043
-3,-3,-1,-2,-4,-3,-1,-2,2021-08-07 12:45:21,472043
-2,-2,-2,-1,1,0,-2,-1,2021-08-07 12:45:21,472043
1,1,3,1,1,2,-1,-1,2021-08-07 12:45:21,472043
-1,0,-2,-4,-7,-5,-1,0,2021-08-07 12:45:21,472043
-1,-2,0,-3,-4,-2,-2,-1,2021-08-07 12:45:21,487076
-1,-1,-1,-1,-4,-3,-1,-1,2021-08-07 12:45:21,487076
-2,-3,-2,-5,-4,-2,-1,-1,2021-08-07 12:45:21,487076
2,0,1,3,10,5,1,1,2021-08-07 12:45:21,487076
-1,-4,-1,-2,-4,-4,-2,-2,2021-08-07 12:45:21,518065
1,1,2,2,7,9,5,2,2021-08-07 12:45:21,518065
0,0,0,1,1,0,2,-1,2021-08-07 12:45:21,518065
0,-1,-2,-6,-10,-7,-4,-1,2021-08-07 12:45:21,518065
0,-1,-1,-2,-1,0,2,0,2021-08-07 12:45:21,518065
-2,-2,-2,2,5,2,-1,0,2021-08-07 12:45:21,518065
1,2,-1,-2,1,1,1,-1,2021-08-07 12:45:21,534038
0,-3,-2,0,-1,-2,-3,-2,2021-08-07 12:45:21,534038
-1,1,0,-1,-4,-2,-2,0,2021-08-07 12:45:21,550036
-4,-2,0,1,1,2,-2,-1,2021-08-07 12:45:21,550036
1,1,0,-1,-2,-2,0,0,2021-08-07 12:45:21,550036
-1,0,1,1,3,2,3,0,2021-08-07 12:45:21,550036
-2,-1,-3,-3,-2,0,-4,-1,2021-08-07 12:45:21,582037
-1,-3,-2,-5,-9,-7,-3,-2,2021-08-07 12:45:21,598039
-1,1,-1,2,4,2,-1,0,2021-08-07 12:45:21,630038
-2,-1,-2,-4,-8,-2,-2,-3,2021-08-07 12:45:21,630038
1,2,2,2,7,4,2,1,2021-08-07 12:45:21,630038
-1,-2,-1,-2,-1,-3,-1,0,2021-08-07 12:45:21,630038
-1,-4,-4,-6,-11,-9,-6,-4,2021-08-07 12:45:21,630038
-1,1,3,3,4,2,0,0,2021-08-07 12:45:21,630038
1,1,0,3,7,8,4,2,2021-08-07 12:45:21,631039
-2,-1,-4,-5,-9,-8,-4,-2,2021-08-07 12:45:21,631039
-1,-1,0,3,3,1,-1,-2,2021-08-07 12:45:21,631039
-2,-2,-3,-3,-6,-3,-2,-1,2021-08-07 12:45:21,631039
0,2,1,4,8,3,3,1,2021-08-07 12:45:21,631039
-1,-1,1,-4,-5,-2,-2,0,2021-08-07 12:45:21,631039
0,-1,-2,-1,-5,-1,-2,-1,2021-08-07 12:45:21,632038
-2,-2,-2,-5,-5,-4,-2,-2,2021-08-07 12:45:21,632038
-1,-3,-2,-2,-4,-4,-4,-4,2021-08-07 12:45:21,646036
3,2,0,-3,-4,-1,0,1,2021-08-07 12:45:21,661037
-2,1,1,5,7,2,1,1,2021-08-07 12:45:21,661037
0,0,0,1,5,1,0,0,2021-08-07 12:45:21,661037
-3,-3,-2,-3,-8,-7,-3,-2,2021-08-07 12:45:21,661037
-4,-4,-4,-7,-12,-6,-4,-3,2021-08-07 12:45:21,661037
0,1,3,4,15,8,4,2,2021-08-07 12:45:21,661037
0,0,0,6,4,4,1,1,2021-08-07 12:45:21,661037
-1,0,-1,2,0,0,-1,-3,2021-08-07 12:45:21,692039
-3,-3,-3,-5,-9,-8,-4,-3,2021-08-07 12:45:21,708036
-1,-1,-2,-4,-5,-3,-3,-2,2021-08-07 12:45:21,724038
0,0,0,-1,4,2,-1,0,2021-08-07 12:45:21,740038
3,2,1,0,3,3,2,2,2021-08-07 12:45:21,740038
-1,-1,-1,3,3,0,-1,-2,2021-08-07 12:45:21,740453
0,0,-1,-4,-4,-1,-2,-1,2021-08-07 12:45:21,740453
0,-2,-3,0,2,-2,1,1,2021-08-07 12:45:21,740453
-1,-2,-3,-3,-7,-3,-2,-1,2021-08-07 12:45:21,740453
-1,0,-1,-2,-3,-4,-1,-1,2021-08-07 12:45:21,741038
-2,-2,1,1,0,2,0,-1,2021-08-07 12:45:21,741038
3,2,2,-1,-2,0,1,0,2021-08-07 12:45:21,741038
-2,-1,-2,2,4,2,0,0,2021-08-07 12:45:21,756072
0,0,-2,-1,1,0,0,-3,2021-08-07 12:45:21,756072
-2,-1,-1,-4,-7,-5,-3,-2,2021-08-07 12:45:21,756072
0,1,0,3,0,-1,0,-2,2021-08-07 12:45:21,756072
-1,-2,-2,-1,0,-1,-1,-2,2021-08-07 12:45:21,771072
2,1,0,1,1,1,-1,0,2021-08-07 12:45:21,771072
-1,-2,-4,-2,-3,-3,-2,-1,2021-08-07 12:45:21,771072
-1,-2,-2,-2,-2,-2,-2,-1,2021-08-07 12:45:21,771072
-2,-2,-2,-5,-6,-4,-1,-2,2021-08-07 12:45:21,787072
-2,0,0,3,4,3,1,0,2021-08-07 12:45:21,787072
0,-1,0,3,2,0,1,1,2021-08-07 12:45:21,787072
-3,-3,-3,-2,-3,-5,-2,-1,2021-08-07 12:45:21,787072
1,2,3,0,0,3,1,2,2021-08-07 12:45:21,819070
-1,-2,-1,-2,2,3,0,0,2021-08-07 12:45:21,819070
-1,0,-1,0,-2,-1,0,-1,2021-08-07 12:45:21,819070
-2,1,0,-3,-3,-2,0,0,2021-08-07 12:45:21,819070
-1,-1,-2,-4,-4,-1,-3,0,2021-08-07 12:45:21,834071
1,2,1,4,10,5,3,-1,2021-08-07 12:45:21,834071
-2,-4,-2,-2,-5,-4,-2,-3,2021-08-07 12:45:21,834071
-1,-4,-4,-5,-7,-3,-4,-3,2021-08-07 12:45:21,834071
1,0,-2,-2,-1,-2,0,0,2021-08-07 12:45:21,850072
0,-1,1,-3,-7,-4,-1,0,2021-08-07 12:45:21,850072
1,0,0,-2,0,1,0,0,2021-08-07 12:45:21,850072
-1,-2,0,0,-2,-2,-2,-2,2021-08-07 12:45:21,850072
-1,0,1,0,-1,-1,-1,0,2021-08-07 12:45:21,881070
-3,-2,-2,-6,-10,-9,-5,-3,2021-08-07 12:45:21,897072
1,0,3,4,10,6,2,1,2021-08-07 12:45:21,897072
1,0,-1,-2,4,4,2,2,2021-08-07 12:45:21,897072
0,0,1,-2,0,1,-1,-1,2021-08-07 12:45:21,897072
0,-2,0,3,1,0,0,-1,2021-08-07 12:45:21,913073
-1,-2,-2,-3,-8,-3,-3,-3,2021-08-07 12:45:21,913073
-1,-2,0,5,6,3,1,0,2021-08-07 12:45:21,913073
0,-2,-2,-3,-3,-3,0,-2,2021-08-07 12:45:21,913073
-1,0,-1,-3,-6,-1,0,0,2021-08-07 12:45:21,913073
-2,-1,-2,-2,-3,-3,-4,-1,2021-08-07 12:45:21,913073
-1,0,-1,-1,-4,-1,-1,-1,2021-08-07 12:45:21,913073
1,-1,1,2,0,1,-1,1,2021-08-07 12:45:21,929071
-3,-2,-2,1,2,0,-1,-1,2021-08-07 12:45:21,929071
-2,0,-1,-7,-8,-5,-1,-1,2021-08-07 12:45:21,929071
2,4,6,3,10,5,1,2,2021-08-07 12:45:21,929071
-4,-4,-6,-5,-6,-4,-3,-3,2021-08-07 12:45:21,961071
-3,-6,-5,-2,-5,-3,-4,-2,2021-08-07 12:45:21,976589
6,8,4,1,4,3,4,4,2021-08-07 12:45:21,976589
-2,-4,-7,-9,-11,-8,-3,-3,2021-08-07 12:45:21,976589
-1,-1,-2,8,15,8,6,1,2021-08-07 12:45:21,976589
-7,-8,-8,-6,-4,-3,-4,-6,2021-08-07 12:45:21,976589
0,3,7,10,9,3,3,-1,2021-08-07 12:45:21,976589
-1,-1,0,0,-4,-3,-3,-1,2021-08-07 12:45:21,976589
0,2,3,4,3,-2,-1,-3,2021-08-07 12:45:21,992589
2,1,-1,-3,-3,-2,0,0,2021-08-07 12:45:22,008587
-1,-4,-5,-3,0,-2,-3,0,2021-08-07 12:45:22,008587
-1,0,-2,-1,3,2,0,0,2021-08-07 12:45:22,008587
1,1,1,1,4,1,1,1,2021-08-07 12:45:22,008587
2,3,0,1,1,-1,1,3,2021-08-07 12:45:22,008587
-1,-2,-2,-6,-5,-3,-1,0,2021-08-07 12:45:22,008587
-2,-3,-3,-1,-2,-2,-2,-1,2021-08-07 12:45:22,008587
-2,-3,-2,-2,-3,-2,-1,0,2021-08-07 12:45:22,024589
0,1,-1,-4,-5,-3,0,-1,2021-08-07 12:45:22,040589
1,1,0,0,-4,-3,-1,0,2021-08-07 12:45:22,040589
-1,-3,-3,-2,-1,-2,-1,-3,2021-08-07 12:45:22,040589
1,1,0,0,1,3,0,-1,2021-08-07 12:45:22,056589
3,4,5,8,13,8,2,2,2021-08-07 12:45:22,087589
-4,-6,-6,-4,-6,-4,-5,-4,2021-08-07 12:45:22,103591
-1,0,0,2,0,-1,0,-1,2021-08-07 12:45:22,103591
0,1,1,-3,-9,-4,-2,0,2021-08-07 12:45:22,103591
-1,-1,0,-5,-4,-3,-2,0,2021-08-07 12:45:22,103591
-3,0,-2,6,9,6,2,-2,2021-08-07 12:45:22,103591
0,0,0,-7,-8,-6,-1,2,2021-08-07 12:45:22,104591
-3,-3,-4,-2,1,0,-1,-1,2021-08-07 12:45:22,104591
3,4,3,3,1,0,0,1,2021-08-07 12:45:22,104591
1,-1,-1,-5,-6,-4,-2,0,2021-08-07 12:45:22,104591
-1,-2,-3,0,-2,-1,-2,-1,2021-08-07 12:45:22,104591
-1,-1,0,5,6,3,1,1,2021-08-07 12:45:22,105589
-2,-4,-4,-3,0,-2,0,-2,2021-08-07 12:45:22,105589
1,1,0,-3,-4,-4,1,2,2021-08-07 12:45:22,105589
0,0,-1,1,0,1,0,-1,2021-08-07 12:45:22,105589
-2,-2,-2,-2,0,0,-1,-3,2021-08-07 12:45:22,134590
0,-1,0,-2,-3,0,0,-2,2021-08-07 12:45:22,150589
0,1,1,0,3,1,0,0,2021-08-07 12:45:22,166588
0,-2,0,3,1,1,1,0,2021-08-07 12:45:22,166588
0,-3,-1,-3,-6,-4,-2,-2,2021-08-07 12:45:22,166588
0,-1,-1,-3,-2,-1,1,0,2021-08-07 12:45:22,166588
-3,-3,-3,1,-5,-3,-4,-4,2021-08-07 12:45:22,166588
0,0,3,-3,2,0,3,0,2021-08-07 12:45:22,166588
2,3,2,2,2,3,3,0,2021-08-07 12:45:22,166588
-2,-1,-2,1,-3,-3,-2,-4,2021-08-07 12:45:22,167593
-2,-3,-3,-5,-7,-5,-3,-2,2021-08-07 12:45:22,167593
-1,0,0,-1,-1,0,-3,-1,2021-08-07 12:45:22,167593
2,3,2,2,2,3,1,3,2021-08-07 12:45:22,198590
-2,-3,-4,1,4,2,0,0,2021-08-07 12:45:22,198590
-3,-2,-3,2,4,0,0,0,2021-08-07 12:45:22,198590
1,-2,-2,0,-2,-1,0,0,2021-08-07 12:45:22,198590
1,4,3,2,-2,-3,-1,1,2021-08-07 12:45:22,198590
-2,-1,-2,-2,-4,-4,-5,-1,2021-08-07 12:45:22,198590
1,0,0,-2,-5,-3,0,-2,2021-08-07 12:45:22,214589
-1,-1,-2,4,12,6,3,1,2021-08-07 12:45:22,214589
-3,-4,-5,-8,-6,-4,-3,-2,2021-08-07 12:45:22,246589
0,0,1,-5,-6,-3,-1,0,2021-08-07 12:45:22,246589
1,1,3,7,7,3,1,1,2021-08-07 12:45:22,246589
1,2,2,0,-2,2,-1,0,2021-08-07 12:45:22,246589
-1,-1,0,2,2,-1,-2,-1,2021-08-07 12:45:22,246589
-2,-3,-5,-12,-11,-4,-5,-2,2021-08-07 12:45:22,246589
1,0,0,-2,0,0,0,0,2021-08-07 12:45:22,246589
-3,-3,-3,0,7,5,2,1,2021-08-07 12:45:22,247591
2,4,5,10,5,4,2,1,2021-08-07 12:45:22,278587
0,2,3,10,15,9,5,1,2021-08-07 12:45:22,294587
-9,-13,-19,-40,-53,-36,-19,-8,2021-08-07 12:45:22,310589
1,4,4,5,-2,-3,-4,-1,2021-08-07 12:45:22,310589
7,13,16,34,50,40,18,7,2021-08-07 12:45:22,310589
3,4,4,14,43,26,14,6,2021-08-07 12:45:22,310589
-11,-18,-22,-45,-59,-45,-25,-14,2021-08-07 12:45:22,310589
-5,-7,-11,-27,-41,-28,-12,-6,2021-08-07 12:45:22,310589
-6,-9,-9,-23,-40,-28,-16,-8,2021-08-07 12:45:22,311591
6,9,12,24,25,18,8,3,2021-08-07 12:45:22,311591
7,10,12,31,47,34,18,9,2021-08-07 12:45:22,311591
-1,-1,-2,-3,-3,-4,-1,-1,2021-08-07 12:45:22,311591
0,1,-1,-1,0,-2,-2,0,2021-08-07 12:45:22,326589
-2,-2,-3,-7,-13,-7,-3,-2,2021-08-07 12:45:22,342589
0,1,3,6,11,8,5,2,2021-08-07 12:45:22,342589
2,3,2,4,5,2,0,0,2021-08-07 12:45:22,342589
-2,-1,-3,-4,-3,-1,0,-2,2021-08-07 12:45:22,342589
-5,-7,-7,-16,-26,-18,-10,-4,2021-08-07 12:45:22,342589
1,3,4,4,3,4,2,1,2021-08-07 12:45:22,358590
4,3,5,8,15,12,6,4,2021-08-07 12:45:22,374590
-2,-5,-6,-6,-6,-7,-4,-1,2021-08-07 12:45:22,390589
-4,-6,-5,-9,-19,-14,-8,-5,2021-08-07 12:45:22,390589
4,5,6,11,22,16,7,3,2021-08-07 12:45:22,390589
1,0,1,-1,3,1,2,-2,2021-08-07 12:45:22,390589
-4,-5,-6,-7,-8,-6,-3,-1,2021-08-07 12:45:22,390589
-2,-1,-1,-3,-11,-8,-6,-3,2021-08-07 12:45:22,390589
2,3,3,9,14,11,7,3,2021-08-07 12:45:22,390589
0,1,0,1,3,-1,-1,0,2021-08-07 12:45:22,390589
-1,-2,-3,-4,-6,-5,-2,-1,2021-08-07 12:45:22,422589
1,0,3,5,8,4,1,0,2021-08-07 12:45:22,422589
0,-1,0,0,-1,1,0,-1,2021-08-07 12:45:22,422589
-2,-2,-3,-3,-3,-3,-4,0,2021-08-07 12:45:22,422589
-1,-2,0,-5,-6,-4,0,-1,2021-08-07 12:45:22,438589
1,1,0,-6,-13,-7,-3,0,2021-08-07 12:45:22,438589
-2,1,0,4,9,3,1,-2,2021-08-07 12:45:22,438589
-1,-1,-3,0,-4,-1,-2,-1,2021-08-07 12:45:22,438589
-1,-1,-3,-1,1,0,0,-2,2021-08-07 12:45:22,438589
1,-1,0,-1,2,1,-1,0,2021-08-07 12:45:22,439593
-2,-2,-2,-3,-5,-2,-1,0,2021-08-07 12:45:22,453590
1,0,2,0,-1,1,2,0,2021-08-07 12:45:22,453590
0,-3,0,2,7,4,3,2,2021-08-07 12:45:22,469590
-1,0,-3,-3,-2,-3,-2,-1,2021-08-07 12:45:22,469590
-1,0,2,1,0,-1,-1,0,2021-08-07 12:45:22,469590
-2,-1,-2,-3,-4,-3,-3,-1,2021-08-07 12:45:22,469590
0,-3,-4,-11,-12,-8,-4,-3,2021-08-07 12:45:22,500590
-3,-2,-1,3,2,0,2,-1,2021-08-07 12:45:22,500590
5,5,4,5,9,5,4,4,2021-08-07 12:45:22,500590
-3,-1,-2,-6,-4,-3,-1,-2,2021-08-07 12:45:22,500590
-2,-2,0,3,-3,-4,-1,-1,2021-08-07 12:45:22,500590
-2,-1,-2,-3,-8,-6,-2,-3,2021-08-07 12:45:22,500590
-2,-2,-1,4,6,2,0,-1,2021-08-07 12:45:22,516589
-1,-2,-2,-2,-5,-5,-1,0,2021-08-07 12:45:22,516589
1,2,1,1,4,6,2,2,2021-08-07 12:45:22,532588
-2,-2,-1,2,2,0,0,-2,2021-08-07 12:45:22,548588
0,-1,-3,-2,-5,-3,-3,-3,2021-08-07 12:45:22,548588
1,1,2,1,3,4,2,1,2021-08-07 12:45:22,548588
0,-1,1,-2,-8,-7,-3,-1,2021-08-07 12:45:22,548588
1,-3,-2,-1,2,2,1,1,2021-08-07 12:45:22,548588
-1,-1,-1,-2,0,-1,-1,-1,2021-08-07 12:45:22,548588
-3,-4,-2,0,-1,-1,-2,-2,2021-08-07 12:45:22,548588
0,0,-1,-3,-4,-1,-2,-1,2021-08-07 12:45:22,579589
-1,1,0,-2,-3,-1,0,1,2021-08-07 12:45:22,595589
-1,-2,0,0,1,-1,1,0,2021-08-07 12:45:22,595589
0,-2,-1,-1,-4,-2,-1,-2,2021-08-07 12:45:22,595589
-3,-3,-4,-3,-2,-1,-2,-2,2021-08-07 12:45:22,611588
-1,0,-2,-4,-6,-5,-2,0,2021-08-07 12:45:22,611588
1,0,1,-6,-6,1,1,1,2021-08-07 12:45:22,611588
1,1,3,12,15,5,2,4,2021-08-07 12:45:22,611588
-1,-1,-2,-8,-16,-11,-6,-2,2021-08-07 12:45:22,611588
-5,-7,-8,2,8,3,-1,-5,2021-08-07 12:45:22,611588
-2,2,5,1,1,2,-1,0,2021-08-07 12:45:22,612589
0,2,0,2,9,4,1,-1,2021-08-07 12:45:22,612589
4,3,0,6,18,10,8,1,2021-08-07 12:45:22,643589
0,1,-1,-8,-14,-11,-4,-2,2021-08-07 12:45:22,643589
0,0,0,3,1,1,1,2,2021-08-07 12:45:22,643589
-7,-5,-7,-17,-32,-17,-9,-5,2021-08-07 12:45:22,643589
3,6,6,9,21,12,4,3,2021-08-07 12:45:22,643589
1,0,1,8,9,3,4,0,2021-08-07 12:45:22,643589
-3,-5,-5,-1,-3,-1,-4,-4,2021-08-07 12:45:22,644589
1,0,-1,-1,2,0,-1,-1,2021-08-07 12:45:22,644589
-7,-8,-8,-12,-18,-10,-8,-6,2021-08-07 12:45:22,674625
0,0,0,-3,-2,0,0,0,2021-08-07 12:45:22,674625
-1,-3,-3,-3,-7,-6,-3,-1,2021-08-07 12:45:22,674625
1,2,4,8,6,5,3,2,2021-08-07 12:45:22,674625
3,3,4,8,13,7,3,2,2021-08-07 12:45:22,706589
0,0,0,-5,-9,-5,-2,0,2021-08-07 12:45:22,722589
1,0,-2,-2,2,1,0,0,2021-08-07 12:45:22,738588
2,0,2,4,11,8,4,2,2021-08-07 12:45:22,738588
-2,-1,0,-7,-13,-7,-3,-1,2021-08-07 12:45:22,738588
-4,-5,-5,-3,0,-2,-3,-3,2021-08-07 12:45:22,738588
0,1,-1,4,1,-1,-1,0,2021-08-07 12:45:22,738588
3,6,5,6,13,8,5,3,2021-08-07 12:45:22,739590
-1,0,-1,0,-1,-5,-2,-2,2021-08-07 12:45:22,739590
-4,-7,-6,-14,-28,-15,-7,-4,2021-08-07 12:45:22,739590
-1,0,-1,-6,-9,-7,-4,0,2021-08-07 12:45:22,739590
2,1,3,9,15,10,5,1,2021-08-07 12:45:22,739590
-1,-2,-1,-1,4,-2,-1,-3,2021-08-07 12:45:22,753587
1,1,0,3,8,6,3,1,2021-08-07 12:45:22,753587
-2,-4,-3,-5,-10,-7,-5,-4,2021-08-07 12:45:22,768589
0,2,1,-4,-10,-7,-5,1,2021-08-07 12:45:22,784587
0,-4,-3,-4,-4,1,0,0,2021-08-07 12:45:22,800588
0,-1,-2,-4,-4,-1,-2,0,2021-08-07 12:45:22,816589
0,1,1,7,18,11,6,2,2021-08-07 12:45:22,832587
-1,-2,-2,-4,-8,-3,-2,-3,2021-08-07 12:45:22,832587
-5,-5,-1,2,-2,-3,-3,-3,2021-08-07 12:45:22,832587
-3,3,2,-1,3,-1,1,-2,2021-08-07 12:45:22,832587
1,2,4,1,-4,-1,1,-1,2021-08-07 12:45:22,832587
-4,-4,-6,-7,-9,-8,-6,-4,2021-08-07 12:45:22,832587
1,2,3,8,10,5,4,1,2021-08-07 12:45:22,833591
1,-1,0,-5,-3,-2,0,0,2021-08-07 12:45:22,833591
-1,-3,-1,2,1,-1,-1,-1,2021-08-07 12:45:22,848588
3,4,3,3,8,7,4,3,2021-08-07 12:45:22,848588
1,2,1,-1,-3,-1,1,2,2021-08-07 12:45:22,848588
2,4,4,3,5,4,1,1,2021-08-07 12:45:22,848588
-2,-6,-4,-5,-8,-6,-2,-4,2021-08-07 12:45:22,848588
-5,-7,-6,-7,-8,-7,-5,-4,2021-08-07 12:45:22,848588
-4,-2,-2,-2,-2,-1,0,-2,2021-08-07 12:45:22,848588
3,3,3,5,9,5,3,2,2021-08-07 12:45:22,848588
1,2,0,-3,-6,0,0,0,2021-08-07 12:45:22,849591
0,0,-2,3,5,0,0,-2,2021-08-07 12:45:22,849591
-1,-2,-3,-8,-11,-10,-4,-2,2021-08-07 12:45:22,879589
-2,-2,-2,3,5,2,0,-2,2021-08-07 12:45:22,879589
1,2,3,7,17,11,6,1,2021-08-07 12:45:22,879589
-2,-3,-3,-5,-5,-2,0,-1,2021-08-07 12:45:22,879589
1,-1,-1,0,-1,1,-1,-1,2021-08-07 12:45:22,895587
2,4,2,5,8,1,1,2,2021-08-07 12:45:22,895587
-1,-1,-4,-5,-5,-3,-3,-1,2021-08-07 12:45:22,895587
-1,-4,-4,-1,-2,-1,-1,-2,2021-08-07 12:45:22,895587
-4,-4,-6,-7,-12,-9,-6,-5,2021-08-07 12:45:22,911588
-2,-1,0,-2,0,3,1,0,2021-08-07 12:45:22,911588
0,0,-2,-2,-5,-2,0,-1,2021-08-07 12:45:22,911588
2,1,2,-1,2,1,1,0,2021-08-07 12:45:22,911588
1,-2,0,1,3,3,-2,1,2021-08-07 12:45:22,943587
-1,-3,-3,-2,-8,-7,-4,-2,2021-08-07 12:45:22,943587
-2,-3,-3,-5,-1,-2,-2,0,2021-08-07 12:45:22,943587
-1,1,-1,1,1,0,0,-1,2021-08-07 12:45:22,943587
0,5,5,7,9,4,1,0,2021-08-07 12:45:22,943587
-3,-7,-5,-6,-4,-3,-3,-3,2021-08-07 12:45:22,943587
1,1,0,-10,-21,-13,-5,0,2021-08-07 12:45:22,975588
1,1,0,1,5,7,3,2,2021-08-07 12:45:22,975588
-1,-2,-1,-3,-1,3,0,-2,2021-08-07 12:45:22,975588
-1,1,3,7,9,4,1,0,2021-08-07 12:45:22,975588
-1,-1,-2,0,-2,-2,-1,-2,2021-08-07 12:45:22,975588
-1,1,2,-2,-4,-3,-2,0,2021-08-07 12:45:22,975588
1,0,-1,-2,-5,-3,-1,-1,2021-08-07 12:45:22,989588
-1,-3,-3,-4,-9,-7,-2,-2,2021-08-07 12:45:22,989588
2,2,3,10,23,15,4,3,2021-08-07 12:45:22,990591
-1,-2,-2,-2,-10,-7,-3,-1,2021-08-07 12:45:22,990591
-2,-1,-1,2,4,1,0,1,2021-08-07 12:45:23,021589
0,1,0,4,5,3,-1,1,2021-08-07 12:45:23,036589
-1,-1,-3,0,-6,-4,-2,-2,2021-08-07 12:45:23,036589
-3,-4,-5,-5,-6,-3,-5,-4,2021-08-07 12:45:23,052589
-2,-4,-2,0,-1,-4,-1,0,2021-08-07 12:45:23,052589
1,4,1,-5,-5,-1,-1,1,2021-08-07 12:45:23,052589
-1,2,1,4,5,2,0,2,2021-08-07 12:45:23,052589
-2,-1,0,-2,-2,0,-1,-1,2021-08-07 12:45:23,052589
-4,-7,-7,-10,-14,-8,-5,-5,2021-08-07 12:45:23,052589
-1,-3,-2,6,8,4,3,-1,2021-08-07 12:45:23,052589
1,3,4,-3,-4,-3,0,-1,2021-08-07 12:45:23,053591
0,3,4,3,4,1,1,1,2021-08-07 12:45:23,053591
-1,1,-2,-1,-1,1,-1,0,2021-08-07 12:45:23,067589
-1,-1,-2,3,4,2,2,-1,2021-08-07 12:45:23,067589
-3,-3,-4,-7,-8,-4,-4,-2,2021-08-07 12:45:23,083589
-2,-2,-1,-1,0,0,0,-2,2021-08-07 12:45:23,099589
-1,-3,-2,-12,-16,-10,-6,-2,2021-08-07 12:45:23,099589
1,2,4,11,21,17,5,4,2021-08-07 12:45:23,099589
1,1,1,5,6,3,1,1,2021-08-07 12:45:23,099589
2,1,2,1,2,2,1,0,2021-08-07 12:45:23,099589
-1,-2,-3,-1,0,-3,0,-2,2021-08-07 12:45:23,115588
2,-1,-1,-4,-10,-6,-2,-1,2021-08-07 12:45:23,131588
-3,-3,-3,-1,3,1,-2,-1,2021-08-07 12:45:23,131588
0,1,1,-1,-2,-1,0,1,2021-08-07 12:45:23,131588
1,1,2,1,0,-2,0,0,2021-08-07 12:45:23,131588
-3,-4,-4,-7,-16,-10,-4,-3,2021-08-07 12:45:23,131588
-4,-5,-5,-1,4,1,-2,-3,2021-08-07 12:45:23,132589
2,3,2,3,5,4,1,3,2021-08-07 12:45:23,132589
0,2,1,3,2,1,0,0,2021-08-07 12:45:23,163590
-2,-1,-2,-4,1,-1,-2,-1,2021-08-07 12:45:23,179589
-1,-2,1,0,-3,-2,-1,-2,2021-08-07 12:45:23,195589
-1,-4,-5,-4,-8,-8,-5,-3,2021-08-07 12:45:23,195589
-3,-6,-4,-3,0,0,-2,-2,2021-08-07 12:45:23,195589
-1,0,0,-1,-1,-4,-3,-1,2021-08-07 12:45:23,195589
3,1,2,1,3,3,1,0,2021-08-07 12:45:23,196590
2,5,6,10,16,9,4,2,2021-08-07 12:45:23,196590
0,2,1,0,2,1,0,1,2021-08-07 12:45:23,196590
-4,-4,-4,-8,-10,-6,-4,-3,2021-08-07 12:45:23,196590
-2,-1,-2,-2,-5,-4,-3,-1,2021-08-07 12:45:23,196590
-2,-2,-1,-5,-8,-3,-1,-1,2021-08-07 12:45:23,196590
0,-1,0,1,3,0,-1,1,2021-08-07 12:45:23,211589
1,0,-1,-5,-8,-4,-1,0,2021-08-07 12:45:23,227590
-1,0,2,7,14,9,2,2,2021-08-07 12:45:23,227590
-3,-2,-5,-2,-1,-1,-1,-2,2021-08-07 12:45:23,243588
1,0,0,0,-3,-2,0,-1,2021-08-07 12:45:23,259589
0,-1,-2,0,2,0,0,-2,2021-08-07 12:45:23,275590
1,-1,-1,-5,-13,-8,-3,-1,2021-08-07 12:45:23,291589
1,-1,0,1,3,1,0,2,2021-08-07 12:45:23,291589
-4,-3,-5,-6,-8,-2,-2,-2,2021-08-07 12:45:23,291589
2,4,6,9,14,10,4,2,2021-08-07 12:45:23,291589
0,1,0,1,1,-2,0,1,2021-08-07 12:45:23,291589
-3,-5,-4,-3,-6,-3,-3,-2,2021-08-07 12:45:23,291589
1,0,-1,-1,-4,-5,-1,0,2021-08-07 12:45:23,292592
2,1,0,-1,-2,-1,-1,-1,2021-08-07 12:45:23,292592
-4,-3,-3,-6,-5,-3,-3,-4,2021-08-07 12:45:23,292592
-1,-2,-3,1,-1,-2,-1,-1,2021-08-07 12:45:23,292592
3,3,5,7,10,7,4,3,2021-08-07 12:45:23,292592
0,-2,-1,-2,-3,-3,-2,-1,2021-08-07 12:45:23,292592
-1,-2,-2,-4,-9,-5,-3,-3,2021-08-07 12:45:23,292592
0,2,-2,-2,-2,-1,-1,-2,2021-08-07 12:45:23,293591
-1,-2,-1,1,9,3,1,-3,2021-08-07 12:45:23,307589
-1,0,0,0,3,3,1,0,2021-08-07 12:45:23,323590
0,0,-2,-3,-4,-5,0,-1,2021-08-07 12:45:23,323590
2,1,3,1,-6,-5,-1,-1,2021-08-07 12:45:23,323590
-2,-1,1,5,10,6,2,0,2021-08-07 12:45:23,339588
-3,-4,-3,-6,-11,-9,-7,-3,2021-08-07 12:45:23,355588
-1,-2,-3,-3,-7,-3,-1,0,2021-08-07 12:45:23,355588
1,1,2,-1,2,3,2,3,2021-08-07 12:45:23,355588
0,0,1,5,11,2,1,2,2021-08-07 12:45:23,355588
0,0,-1,2,6,3,2,-1,2021-08-07 12:45:23,355588
0,-2,-2,-2,-1,-3,-2,-2,2021-08-07 12:45:23,355588
-5,-9,-9,-9,-13,-8,-5,-5,2021-08-07 12:45:23,356589
6,12,11,3,-2,2,2,5,2021-08-07 12:45:23,371589
-3,-2,-4,-5,-6,-5,-2,-3,2021-08-07 12:45:23,371589
-1,-2,-2,-4,-4,-1,0,-1,2021-08-07 12:45:23,371589
-3,-5,-3,-1,-2,-1,-1,-3,2021-08-07 12:45:23,371589
1,0,0,0,9,7,1,0,2021-08-07 12:45:23,403625
-1,0,1,2,0,0,0,-1,2021-08-07 12:45:23,403625
0,2,3,4,9,5,2,2,2021-08-07 12:45:23,403625
-1,-1,-1,-3,-5,-6,-4,-2,2021-08-07 12:45:23,403625
-7,-7,-9,-7,-8,-6,-4,-6,2021-08-07 12:45:23,418624
5,3,4,1,-5,-4,-1,3,2021-08-07 12:45:23,431625
0,0,0,-1,-2,-1,1,1,2021-08-07 12:45:23,431625
-1,-4,-3,-1,6,2,0,-1,2021-08-07 12:45:23,431625
4,6,3,4,3,2,1,1,2021-08-07 12:45:23,431625
-1,-2,-2,-3,-5,-2,-3,-2,2021-08-07 12:45:23,432625
-1,0,0,-1,0,1,1,-1,2021-08-07 12:45:23,432625
0,-2,0,0,4,1,0,0,2021-08-07 12:45:23,432625
-2,-3,-2,-4,-7,-3,-3,0,2021-08-07 12:45:23,464625
2,2,2,2,1,-1,0,2,2021-08-07 12:45:23,464625
1,1,-1,0,-2,-1,-1,-1,2021-08-07 12:45:23,464625
-1,1,-2,-2,-3,1,1,1,2021-08-07 12:45:23,464625
0,-1,0,1,3,0,1,-1,2021-08-07 12:45:23,480626
-3,-2,-4,-4,-5,-3,-2,-2,2021-08-07 12:45:23,480626
0,0,0,0,-1,-4,-1,-2,2021-08-07 12:45:23,480626
1,1,1,-1,-4,0,0,-1,2021-08-07 12:45:23,480626
-2,-2,-2,1,5,3,-2,-2,2021-08-07 12:45:23,480626
-1,-2,-2,2,1,1,3,-1,2021-08-07 12:45:23,480626
-1,-2,-1,1,4,2,0,0,2021-08-07 12:45:23,496625
2,5,5,4,2,0,-1,2,2021-08-07 12:45:23,496625
0,-2,-4,-8,-14,-6,-3,0,2021-08-07 12:45:23,512627
1,3,5,7,8,8,2,0,2021-08-07 12:45:23,512627
0,0,0,0,1,2,1,1,2021-08-07 12:45:23,512627
-6,-11,-14,-18,-25,-19,-12,-7,2021-08-07 12:45:23,512627
-1,0,-2,-6,-8,-6,-2,-1,2021-08-07 12:45:23,544627
0,-1,1,8,20,9,5,0,2021-08-07 12:45:23,544627
-2,-4,-3,-3,-2,1,-1,-2,2021-08-07 12:45:23,544627
4,7,7,7,11,11,4,5,2021-08-07 12:45:23,544627
0,2,1,0,-4,-4,-2,-1,2021-08-07 12:45:23,545626
-3,-7,-8,-7,-12,-5,-4,-3,2021-08-07 12:45:23,560626
3,4,4,7,15,10,8,4,2021-08-07 12:45:23,575625
-2,-5,-4,-3,-3,-3,1,-1,2021-08-07 12:45:23,575625
-3,-4,-4,-1,-2,-3,-4,-2,2021-08-07 12:45:23,575625
-5,-5,-3,-6,-10,-7,-6,-4,2021-08-07 12:45:23,575625
-2,-2,0,2,0,-2,-3,-3,2021-08-07 12:45:23,575625
1,4,5,2,3,1,2,0,2021-08-07 12:45:23,575625
2,4,4,3,-1,0,0,1,2021-08-07 12:45:23,606626
-2,-1,-4,-5,-7,-7,-3,-2,2021-08-07 12:45:23,606871
0,0,-1,-3,-3,-2,-3,0,2021-08-07 12:45:23,606871
1,3,1,5,5,5,1,1,2021-08-07 12:45:23,606871
0,-3,-1,1,-2,-2,0,0,2021-08-07 12:45:23,606871
0,1,0,1,3,1,1,-1,2021-08-07 12:45:23,606871
0,-1,-2,-4,-7,-4,-2,-1,2021-08-07 12:45:23,622627
-1,-1,-1,1,1,-2,1,-2,2021-08-07 12:45:23,622627
-5,-7,-7,-10,-11,-7,-4,-4,2021-08-07 12:45:23,638624
2,2,1,5,11,7,4,1,2021-08-07 12:45:23,638624
0,0,1,-1,0,0,-1,0,2021-08-07 12:45:23,638624
0,0,-2,0,2,0,-1,-3,2021-08-07 12:45:23,638624
-3,-6,-5,-4,-4,-4,-3,-4,2021-08-07 12:45:23,669624
-1,-1,0,-8,-15,-8,-5,-1,2021-08-07 12:45:23,669624
0,2,2,1,0,-3,-1,0,2021-08-07 12:45:23,669624
0,-1,-1,-3,2,3,0,1,2021-08-07 12:45:23,669624
0,2,2,13,20,12,8,2,2021-08-07 12:45:23,669624
-2,-2,-3,-3,-3,-4,-4,0,2021-08-07 12:45:23,669624
-1,-1,-2,0,-1,1,0,1,2021-08-07 12:45:23,670627
-3,-1,-2,-7,-12,-8,-5,-3,2021-08-07 12:45:23,670627
-2,-3,-4,-7,-10,-5,-4,-4,2021-08-07 12:45:23,701626
2,1,3,3,5,4,2,1,2021-08-07 12:45:23,701626
1,0,1,0,3,4,1,0,2021-08-07 12:45:23,701626
0,0,1,5,3,1,0,0,2021-08-07 12:45:23,701626
-3,-1,-1,-4,1,1,-2,-1,2021-08-07 12:45:23,717626
-3,-6,-3,-4,-4,-3,-1,-1,2021-08-07 12:45:23,717626
2,4,5,1,-1,0,1,2,2021-08-07 12:45:23,749625
3,2,2,3,6,4,2,2,2021-08-07 12:45:23,765625
3,4,4,2,5,2,1,1,2021-08-07 12:45:23,765625
-4,-5,-5,-7,-10,-7,-5,-4,2021-08-07 12:45:23,765625
-2,-3,-2,3,5,0,0,-3,2021-08-07 12:45:23,797624
-3,-4,-4,-1,-2,-2,-2,-2,2021-08-07 12:45:23,797624
4,4,3,-3,-5,-2,1,3,2021-08-07 12:45:23,797624
4,5,5,6,10,7,5,4,2021-08-07 12:45:23,797624
0,1,-2,2,2,2,1,-2,2021-08-07 12:45:23,797624
-2,-4,-1,-2,-3,-2,-1,-2,2021-08-07 12:45:23,797624
-6,-8,-9,-10,-14,-11,-8,-7,2021-08-07 12:45:23,797624
-2,-1,0,0,6,4,1,-1,2021-08-07 12:45:23,797624
2,1,1,2,2,-1,0,2,2021-08-07 12:45:23,798628
0,3,1,1,3,0,0,2,2021-08-07 12:45:23,798628
-3,-4,-3,-1,-3,-1,0,-1,2021-08-07 12:45:23,798628
-1,-1,-2,-4,-9,-5,-3,-1,2021-08-07 12:45:23,798628
-4,-3,-5,-8,-10,-7,-5,-4,2021-08-07 12:45:23,798628
0,1,2,2,-2,1,1,1,2021-08-07 12:45:23,798628
-2,-1,-1,-1,2,1,-1,0,2021-08-07 12:45:23,813626
0,1,0,4,3,2,2,1,2021-08-07 12:45:23,829628
-1,-1,1,0,4,2,1,-2,2021-08-07 12:45:23,845626
-1,-1,-2,-4,-5,-2,-2,-1,2021-08-07 12:45:23,845626
-4,-1,-2,-1,0,-1,-4,-3,2021-08-07 12:45:23,845626
0,-3,-4,0,5,2,-1,-1,2021-08-07 12:45:23,845626
6,8,9,4,1,1,1,3,2021-08-07 12:45:23,845626
-1,-2,-2,-4,-6,-5,-1,-3,2021-08-07 12:45:23,845626
-2,-2,-3,-4,-2,-2,-2,-3,2021-08-07 12:45:23,861624
-1,-1,1,4,2,0,0,1,2021-08-07 12:45:23,868624
-4,-7,-6,-2,-1,-2,-1,-2,2021-08-07 12:45:23,868624
-1,0,1,1,2,1,1,1,2021-08-07 12:45:23,868624
0,-1,1,2,1,3,1,0,2021-08-07 12:45:23,869625
0,-1,-1,-1,-4,-3,0,-2,2021-08-07 12:45:23,869625
0,0,-1,-5,-7,-5,-2,0,2021-08-07 12:45:23,877627
0,1,-1,1,2,1,-1,1,2021-08-07 12:45:23,877627
-2,-4,-4,-1,3,-1,0,-2,2021-08-07 12:45:23,893626
0,1,-1,-3,-7,-6,-3,-1,2021-08-07 12:45:23,893626
-2,-1,-1,-2,-5,-2,-1,1,2021-08-07 12:45:23,893626
0,2,2,4,6,1,1,-1,2021-08-07 12:45:23,893626
-2,-3,-3,-5,-12,-10,-3,-3,2021-08-07 12:45:23,925625
-1,-2,-3,-1,9,10,2,0,2021-08-07 12:45:23,925625
3,2,3,3,11,8,4,3,2021-08-07 12:45:23,925625
0,-2,-1,3,3,-1,-2,-1,2021-08-07 12:45:23,925625
-1,-1,-2,1,0,-1,-2,0,2021-08-07 12:45:23,925625
2,5,6,-1,-9,-6,-2,2,2021-08-07 12:45:23,925625
-4,-3,-5,-8,-10,-6,-4,-3,2021-08-07 12:45:23,941626
-2,-3,-2,0,2,1,-1,-2,2021-08-07 12:45:23,941626
0,-1,2,0,1,1,-1,0,2021-08-07 12:45:23,957624
0,-1,-2,-4,-7,-6,-3,-2,2021-08-07 12:45:23,973626
0,0,-1,2,2,2,0,-1,2021-08-07 12:45:23,989625
1,-1,-1,-2,0,-1,1,-1,2021-08-07 12:45:23,989625
-1,0,1,0,0,0,-1,1,2021-08-07 12:45:23,989625
-2,-3,-2,0,-1,0,-1,-2,2021-08-07 12:45:23,989625
-1,-1,-2,-1,-1,-1,-3,-1,2021-08-07 12:45:23,989625
1,-1,-2,-5,-6,-2,-1,-1,2021-08-07 12:45:23,989625
-2,-1,-3,-4,-3,-1,0,0,2021-08-07 12:45:23,989625
2,6,5,3,7,7,4,4,2021-08-07 12:45:23,990628
-2,-5,-2,2,1,-1,-2,-2,2021-08-07 12:45:24,005626
-2,-1,-1,-2,-2,1,0,0,2021-08-07 12:45:24,005626
1,1,3,6,4,2,1,0,2021-08-07 12:45:24,021626
-5,-10,-9,-10,-11,-10,-6,-5,2021-08-07 12:45:24,037625
-4,-5,-5,-6,-10,-7,-3,-2,2021-08-07 12:45:24,037625
3,3,5,2,6,4,2,1,2021-08-07 12:45:24,037625
4,4,5,14,26,16,7,3,2021-08-07 12:45:24,037625
-1,1,1,-1,-4,-3,-1,1,2021-08-07 12:45:24,038625
-3,-7,-5,0,1,-2,-4,-3,2021-08-07 12:45:24,038625
-1,1,-1,-3,-6,-5,-2,1,2021-08-07 12:45:24,038625
2,4,3,1,-1,2,1,0,2021-08-07 12:45:24,053624
-2,-5,-5,-2,-4,-2,-4,-4,2021-08-07 12:45:24,053624
-1,2,2,2,2,1,0,-2,2021-08-07 12:45:24,053624
-3,-3,-3,0,1,1,0,0,2021-08-07 12:45:24,053624
1,0,-3,0,-1,-1,0,0,2021-08-07 12:45:24,085626
0,5,4,3,4,3,1,2,2021-08-07 12:45:24,101626
0,-1,-2,-3,-5,-4,0,1,2021-08-07 12:45:24,117626
-2,0,-1,2,0,1,-1,-1,2021-08-07 12:45:24,117626
-7,-8,-9,-17,-27,-19,-10,-6,2021-08-07 12:45:24,117626
2,4,3,7,16,11,8,1,2021-08-07 12:45:24,117626
2,3,4,11,18,11,6,2,2021-08-07 12:45:24,117626
0,-1,0,-2,-1,-2,-3,0,2021-08-07 12:45:24,117626
-4,-4,-7,-7,-9,-7,-4,-2,2021-08-07 12:45:24,117626
-4,-5,-6,-7,-8,-6,-5,-4,2021-08-07 12:45:24,117626
4,8,8,2,0,2,3,6,2021-08-07 12:45:24,117626
-2,-2,-4,-3,-3,-3,-2,-3,2021-08-07 12:45:24,117626
0,1,2,-4,-7,-6,-3,-3,2021-08-07 12:45:24,133626
-1,1,0,1,3,2,0,1,2021-08-07 12:45:24,133626
-2,-3,-3,-1,1,0,-2,-3,2021-08-07 12:45:24,149625
1,-2,-2,-1,-4,-1,-2,-1,2021-08-07 12:45:24,149625
2,3,2,3,3,2,1,2,2021-08-07 12:45:24,165625
1,0,1,9,17,10,4,2,2021-08-07 12:45:24,165625
-2,-5,-5,-7,-7,-4,-4,-3,2021-08-07 12:45:24,165625
-2,-1,-1,-9,-16,-8,-3,-2,2021-08-07 12:45:24,165625
0,-1,3,5,6,6,2,0,2021-08-07 12:45:24,165625
1,0,-2,-8,-11,-6,-1,-1,2021-08-07 12:45:24,165625
1,2,5,14,20,5,3,1,2021-08-07 12:45:24,197624
-2,-4,-4,-6,-13,-12,-7,-3,2021-08-07 12:45:24,212626
-1,-2,-2,0,8,7,3,0,2021-08-07 12:45:24,212626
-3,-5,-4,-5,-9,-7,-5,-4,2021-08-07 12:45:24,212626
-4,-5,-6,-9,-7,-4,-3,-2,2021-08-07 12:45:24,212626
4,8,9,8,10,6,4,4,2021-08-07 12:45:24,212626
0,0,-1,-3,-5,-5,-3,0,2021-08-07 12:45:24,212626
-4,-6,-5,-3,-3,-3,-2,-3,2021-08-07 12:45:24,213628
0,0,-1,-5,-6,-3,-2,-1,2021-08-07 12:45:24,213628
-3,-3,-4,-1,2,-1,-1,-1,2021-08-07 12:45:24,213628
1,4,2,0,-3,1,1,0,2021-08-07 12:45:24,228625
-2,-2,-2,-8,-6,-3,-3,-1,2021-08-07 12:45:24,228625
0,0,2,0,-2,-1,-1,1,2021-08-07 12:45:24,244626
2,2,3,4,9,7,2,1,2021-08-07 12:45:24,244626
-1,1,0,4,12,6,1,1,2021-08-07 12:45:24,260625
-3,-6,-6,-6,-11,-10,-6,-4,2021-08-07 12:45:24,260625
-3,-2,-5,-15,-22,-9,-3,-1,2021-08-07 12:45:24,260625
-1,2,3,12,17,9,4,0,2021-08-07 12:45:24,260625
-3,-2,-1,0,1,-2,-1,-2,2021-08-07 12:45:24,276625
0,2,0,-1,0,1,-1,3,2021-08-07 12:45:24,276625
0,1,2,6,14,6,2,1,2021-08-07 12:45:24,276625
-2,-2,-3,-4,-7,-5,-3,-2,2021-08-07 12:45:24,276625
3,4,1,3,3,3,0,3,2021-08-07 12:45:24,292626
-1,-1,-1,-5,-11,-7,-3,-1,2021-08-07 12:45:24,292626
1,-3,-2,-3,-5,-1,-2,-3,2021-08-07 12:45:24,292626
-3,-5,-5,-5,-4,-4,-4,-3,2021-08-07 12:45:24,292626
-4,-3,-5,-17,-18,-9,-6,-5,2021-08-07 12:45:24,316626
0,3,3,5,1,0,1,0,2021-08-07 12:45:24,316626
1,1,1,7,14,9,3,0,2021-08-07 12:45:24,316626
5,7,7,11,12,7,5,5,2021-08-07 12:45:24,317627
-3,-6,-7,-4,-3,-3,-1,-1,2021-08-07 12:45:24,339625
0,-1,-4,-7,-5,-6,-2,0,2021-08-07 12:45:24,355626
-1,0,0,1,-5,-3,-1,0,2021-08-07 12:45:24,355626
-3,-3,-5,-11,-15,-9,-6,-4,2021-08-07 12:45:24,355626
-1,0,2,5,12,8,2,-1,2021-08-07 12:45:24,355626
-4,-3,-2,0,-6,-5,-5,-5,2021-08-07 12:45:24,355626
0,0,-1,3,7,6,0,0,2021-08-07 12:45:24,355626
1,2,4,8,11,8,4,0,2021-08-07 12:45:24,355626
4,5,5,9,15,8,5,6,2021-08-07 12:45:24,371627
0,-1,-3,-2,0,0,-1,0,2021-08-07 12:45:24,371627
-1,-2,-5,-7,-15,-11,-7,-1,2021-08-07 12:45:24,371627
-1,0,-3,0,5,4,1,1,2021-08-07 12:45:24,371627
-2,-4,-5,-8,-14,-7,-4,-2,2021-08-07 12:45:24,403625
-2,-3,-1,0,1,2,0,-1,2021-08-07 12:45:24,403625
0,0,1,5,0,0,0,0,2021-08-07 12:45:24,403625
0,2,3,3,8,4,2,1,2021-08-07 12:45:24,403625
0,0,0,1,2,0,-1,-1,2021-08-07 12:45:24,403625
3,2,2,0,2,1,0,1,2021-08-07 12:45:24,403625
-4,-6,-6,-10,-12,-8,-4,-3,2021-08-07 12:45:24,419625
-4,-5,-4,-7,-14,-9,-6,-2,2021-08-07 12:45:24,419625
2,3,2,5,7,8,5,1,2021-08-07 12:45:24,435625
1,1,2,2,7,5,2,1,2021-08-07 12:45:24,451625
0,-1,0,-2,-3,-2,-2,-2,2021-08-07 12:45:24,483625
-5,-5,-6,-9,-14,-7,-3,-3,2021-08-07 12:45:24,499625
0,-2,-1,-1,-5,-2,-2,-2,2021-08-07 12:45:24,499625
-2,-2,-3,-4,-8,-6,-3,0,2021-08-07 12:45:24,499625
3,6,7,16,28,15,6,5,2021-08-07 12:45:24,499625
-1,0,-3,-4,-2,0,0,0,2021-08-07 12:45:24,499625
-2,-3,-1,-4,-8,-4,-4,-2,2021-08-07 12:45:24,499625
-1,0,1,-1,1,-1,-1,-1,2021-08-07 12:45:24,499625
-5,-6,-8,-16,-20,-16,-9,-4,2021-08-07 12:45:24,515625
-2,-6,-5,-7,-12,-8,-4,-2,2021-08-07 12:45:24,531627
-3,-1,-1,-3,-14,-8,-5,-3,2021-08-07 12:45:24,531627
6,7,9,24,38,22,10,5,2021-08-07 12:45:24,531627
4,4,0,-2,4,7,6,2,2021-08-07 12:45:24,531627
-1,-4,-4,-7,-4,-2,-3,-3,2021-08-07 12:45:24,531627
-2,-3,-2,4,9,0,-1,-4,2021-08-07 12:45:24,531627
-3,-4,-4,-4,-10,-7,-5,-3,2021-08-07 12:45:24,531627
2,3,3,2,-3,-1,0,0,2021-08-07 12:45:24,532626
2,2,0,-2,0,1,1,1,2021-08-07 12:45:24,532626
-4,-4,-4,-10,-8,-9,-7,-3,2021-08-07 12:45:24,532626
-1,0,-2,1,-4,3,1,-1,2021-08-07 12:45:24,532626
2,1,2,3,8,5,3,0,2021-08-07 12:45:24,532626
0,0,0,5,2,1,0,1,2021-08-07 12:45:24,532626
1,0,1,3,4,2,-1,-3,2021-08-07 12:45:24,563626
-4,-6,-5,-4,-4,-4,-4,-4,2021-08-07 12:45:24,563626
0,3,2,0,-7,-5,-2,0,2021-08-07 12:45:24,563626
-1,-1,-1,-10,-8,-5,-4,-2,2021-08-07 12:45:24,563626
-3,-5,-7,-4,2,2,1,0,2021-08-07 12:45:24,579625
3,5,6,2,1,0,2,1,2021-08-07 12:45:24,595625
-1,0,8,1,-2,0,0,0,2021-08-07 12:45:24,595625
-2,-1,-8,4,2,0,0,-3,2021-08-07 12:45:24,595625
1,1,0,2,4,3,2,4,2021-08-07 12:45:24,595625
-1,-4,-6,-4,-2,0,0,0,2021-08-07 12:45:24,595625
-5,-6,-7,-9,-7,-5,-5,-3,2021-08-07 12:45:24,595625
1,1,6,-1,-3,-1,-2,-1,2021-08-07 12:45:24,595625
1,1,1,0,1,0,0,0,2021-08-07 12:45:24,611625
2,1,0,1,-2,-1,0,-1,2021-08-07 12:45:24,611625
-2,-2,-2,-2,0,-3,-1,-2,2021-08-07 12:45:24,627624
2,3,6,20,27,14,7,2,2021-08-07 12:45:24,643625
-1,-1,-3,0,-5,-1,1,-1,2021-08-07 12:45:24,643625
2,0,1,-2,1,2,2,1,2021-08-07 12:45:24,643625
-7,-10,-16,-30,-32,-18,-11,-8,2021-08-07 12:45:24,643625
-6,-8,-8,-17,-13,-9,-6,-4,2021-08-07 12:45:24,643625
-1,1,4,0,2,-1,0,-2,2021-08-07 12:45:24,659626
2,5,3,6,7,3,1,0,2021-08-07 12:45:24,675626
2,3,5,16,19,12,5,2,2021-08-07 12:45:24,691625
1,2,0,-1,-1,0,0,1,2021-08-07 12:45:24,691625
-1,-1,-1,-5,-2,-1,-2,-1,2021-08-07 12:45:24,691625
-2,-3,-4,-9,-18,-11,-5,-3,2021-08-07 12:45:24,691625
0,0,0,0,1,2,-1,0,2021-08-07 12:45:24,691625
-2,-2,1,6,1,0,0,-2,2021-08-07 12:45:24,692626
1,-2,0,3,5,3,1,-2,2021-08-07 12:45:24,692626
-3,-3,-5,-2,-4,-3,-3,-2,2021-08-07 12:45:24,692626
2,-1,-3,-12,-10,-5,-2,1,2021-08-07 12:45:24,692626
3,4,5,8,15,6,2,1,2021-08-07 12:45:24,692626
0,-3,-4,-4,-5,-2,-2,-3,2021-08-07 12:45:24,722625
-1,1,2,3,2,2,1,0,2021-08-07 12:45:24,738625
-1,1,-3,11,7,3,0,0,2021-08-07 12:45:24,751625
-4,-5,-2,-2,-16,-13,-6,-4,2021-08-07 12:45:24,751625
0,2,0,2,2,3,1,2,2021-08-07 12:45:24,751625
-1,-4,-4,-27,-7,-2,-1,0,2021-08-07 12:45:24,751625
-3,-6,-6,-22,-20,-10,-6,-4,2021-08-07 12:45:24,751625
0,-3,-13,-1,2,2,2,-1,2021-08-07 12:45:24,751625
-1,-2,2,6,-2,-4,-4,-1,2021-08-07 12:45:24,752626
3,6,7,18,15,8,4,3,2021-08-07 12:45:24,752626
3,5,8,12,15,9,5,1,2021-08-07 12:45:24,752626
-3,-3,-1,-7,-14,-6,-3,-4,2021-08-07 12:45:24,752626
-1,1,1,-8,-13,-8,-4,0,2021-08-07 12:45:24,786626
2,3,3,12,20,14,8,4,2021-08-07 12:45:24,786626
0,0,0,4,5,1,-1,-1,2021-08-07 12:45:24,786626
1,1,2,0,1,0,-1,0,2021-08-07 12:45:24,786626
-3,-5,-8,-12,-15,-11,-5,-2,2021-08-07 12:45:24,786626
-2,-2,0,1,3,1,-2,-2,2021-08-07 12:45:24,786626
-1,-2,-2,2,-5,-1,1,0,2021-08-07 12:45:24,802626
-1,0,0,3,6,5,2,1,2021-08-07 12:45:24,802626
-3,-3,-4,-7,-11,-5,-3,-3,2021-08-07 12:45:24,818624
1,-1,0,0,2,-2,-3,-2,2021-08-07 12:45:24,818624
5,6,8,9,9,4,4,3,2021-08-07 12:45:24,818624
-2,-3,-2,-8,-2,-2,0,-3,2021-08-07 12:45:24,818624
-1,-1,-1,3,9,5,2,0,2021-08-07 12:45:24,849624
0,2,4,7,0,-3,-1,0,2021-08-07 12:45:24,849624
-5,-8,-10,-8,-12,-9,-4,-4,2021-08-07 12:45:24,849624
7,12,11,11,23,13,7,6,2021-08-07 12:45:24,849624
0,0,-3,4,7,4,3,0,2021-08-07 12:45:24,849624
-2,-5,-9,-20,-14,-3,-1,-2,2021-08-07 12:45:24,850627
-1,-3,0,-4,0,-3,-2,-1,2021-08-07 12:45:24,865626
-7,-6,-7,-18,-23,-18,-10,-6,2021-08-07 12:45:24,881628
-1,0,0,1,-5,1,-1,-1,2021-08-07 12:45:24,881628
0,2,4,22,25,9,3,3,2021-08-07 12:45:24,881628
-2,-3,-4,-3,-1,2,0,-1,2021-08-07 12:45:24,881628
3,1,1,4,8,5,2,2,2021-08-07 12:45:24,881628
2,4,3,2,3,-1,-1,1,2021-08-07 12:45:24,897625
-2,-6,-6,-14,-22,-15,-8,-5,2021-08-07 12:45:24,913625
-2,-1,-3,-8,-13,-10,-4,-2,2021-08-07 12:45:24,913625
-1,-3,1,3,-2,-1,0,1,2021-08-07 12:45:24,913625
1,1,2,6,13,9,5,2,2021-08-07 12:45:24,913625
-2,-5,-5,-4,-7,-3,-2,-2,2021-08-07 12:45:24,913625
3,3,5,5,7,4,3,3,2021-08-07 12:45:24,913625
-5,0,2,-11,-19,-8,-6,-4,2021-08-07 12:45:24,913625
0,-2,-10,-1,4,0,-1,-1,2021-08-07 12:45:24,944625
-4,-4,-3,-4,-7,-4,-4,-4,2021-08-07 12:45:24,960627
0,-1,-2,-7,-7,-5,-1,0,2021-08-07 12:45:24,960627
3,2,3,9,17,13,5,4,2021-08-07 12:45:24,960627
0,0,2,1,7,1,1,-1,2021-08-07 12:45:24,960627
0,-1,-4,-4,-3,-2,-1,-1,2021-08-07 12:45:24,960627
-2,-1,-1,1,3,-1,-1,1,2021-08-07 12:45:24,960627
-5,-7,-8,-12,-23,-13,-7,-5,2021-08-07 12:45:24,960627
2,0,1,-3,1,2,1,2,2021-08-07 12:45:24,976626
2,2,2,2,2,2,1,-1,2021-08-07 12:45:24,976875
1,1,4,7,5,1,0,0,2021-08-07 12:45:24,976875
-1,-3,-5,5,7,2,2,0,2021-08-07 12:45:24,976875
-6,-7,-4,-9,-16,-10,-7,-5,2021-08-07 12:45:25,006626
-1,1,0,-17,-20,-12,-5,-2,2021-08-07 12:45:25,022627
2,6,2,10,8,6,5,2,2021-08-07 12:45:25,038625
-1,0,1,8,13,6,2,0,2021-08-07 12:45:25,038625
0,-1,-1,2,8,3,1,-2,2021-08-07 12:45:25,038625
-3,-4,-3,-3,-6,-4,-3,-1,2021-08-07 12:45:25,038625
3,4,0,-9,-10,-5,-1,0,2021-08-07 12:45:25,038625
0,2,1,2,4,3,0,2,2021-08-07 12:45:25,039626
2,3,5,7,0,2,1,2,2021-08-07 12:45:25,039626
-1,-1,0,10,10,4,0,-1,2021-08-07 12:45:25,039626
-5,-8,-9,-5,-6,-7,-5,-5,2021-08-07 12:45:25,039626
3,2,-2,-21,-15,-6,0,-1,2021-08-07 12:45:25,039626
-1,-3,2,2,8,7,0,-1,2021-08-07 12:45:25,054626
-1,2,2,6,5,2,1,0,2021-08-07 12:45:25,054626
-4,-4,-3,2,1,-2,-4,-3,2021-08-07 12:45:25,054626
3,3,3,3,0,0,1,2,2021-08-07 12:45:25,054626
-1,2,0,-8,-10,-8,-1,-2,2021-08-07 12:45:25,086625
-1,-4,-3,-3,-4,-4,-3,-2,2021-08-07 12:45:25,086625
3,3,6,7,9,6,4,3,2021-08-07 12:45:25,086625
-2,-1,-1,7,12,8,1,-2,2021-08-07 12:45:25,086625
-1,-2,0,1,-9,-7,-4,-3,2021-08-07 12:45:25,086625
2,2,-2,-4,-4,1,2,1,2021-08-07 12:45:25,086625
1,0,-1,-4,6,6,3,1,2021-08-07 12:45:25,101625
-2,-3,-2,-8,-5,-5,-3,-3,2021-08-07 12:45:25,101625
-1,-3,-9,-2,1,-2,-2,0,2021-08-07 12:45:25,116625
-4,-3,-2,-3,-8,-5,-4,-3,2021-08-07 12:45:25,116625
-4,-3,-8,-6,-9,-6,-3,-3,2021-08-07 12:45:25,116625
3,5,8,7,6,6,4,3,2021-08-07 12:45:25,116625
1,3,4,4,12,8,2,1,2021-08-07 12:45:25,148625
-1,1,-1,1,1,0,0,1,2021-08-07 12:45:25,148625
0,0,1,1,-1,-1,-2,-1,2021-08-07 12:45:25,148625
-8,-8,-9,-12,-21,-19,-11,-8,2021-08-07 12:45:25,148625
-2,-3,-4,-7,-9,-4,-1,-3,2021-08-07 12:45:25,148625
6,7,7,17,35,22,10,5,2021-08-07 12:45:25,148625
-1,-3,1,-2,3,3,0,-2,2021-08-07 12:45:25,164625
1,3,1,1,1,0,3,1,2021-08-07 12:45:25,164625
-2,-2,-4,-3,-16,-10,-6,-4,2021-08-07 12:45:25,180625
-1,-3,-3,-6,-8,-4,-2,-2,2021-08-07 12:45:25,196625
-3,-5,-9,-2,4,1,-2,-3,2021-08-07 12:45:25,196625
0,0,3,0,-4,-5,-6,-5,2021-08-07 12:45:25,196625
5,10,8,-2,4,5,6,4,2021-08-07 12:45:25,196625
-3,-3,-6,-13,-12,-6,-3,-3,2021-08-07 12:45:25,196625
-1,0,6,-7,-8,-6,-5,-1,2021-08-07 12:45:25,197626
-5,-11,-23,-10,-6,-3,-3,-2,2021-08-07 12:45:25,197626
-1,-4,-3,1,-3,-4,0,-1,2021-08-07 12:45:25,228625
2,1,2,3,-1,1,1,1,2021-08-07 12:45:25,244624
-4,-3,-1,3,4,1,1,-2,2021-08-07 12:45:25,260625
0,4,13,11,4,1,-1,-1,2021-08-07 12:45:25,260625
-1,-2,2,0,1,0,-1,-1,2021-08-07 12:45:25,260625
1,0,-2,-9,-6,-3,-1,0,2021-08-07 12:45:25,260625
-1,0,1,0,-2,0,0,-2,2021-08-07 12:45:25,260625
3,0,2,6,10,6,4,2,2021-08-07 12:45:25,260625
1,0,-4,1,1,0,2,1,2021-08-07 12:45:25,261625
-1,-2,1,2,-4,-4,-2,-2,2021-08-07 12:45:25,261625
0,-1,-4,-11,-18,-11,-6,-1,2021-08-07 12:45:25,261625
0,1,0,4,8,8,3,1,2021-08-07 12:45:25,261625
1,1,2,4,11,5,0,2,2021-08-07 12:45:25,276626
1,4,5,2,-4,-3,0,2,2021-08-07 12:45:25,276626
1,0,2,0,-2,0,0,-1,2021-08-07 12:45:25,276626
-2,-3,-7,-5,-4,-3,-2,-2,2021-08-07 12:45:25,276626
-5,-6,-4,-9,-9,-5,-5,-4,2021-08-07 12:45:25,307625
-2,-3,-2,-8,-3,-1,-2,-2,2021-08-07 12:45:25,323627
3,1,-2,2,3,5,4,4,2021-08-07 12:45:25,323627
-1,1,0,2,0,-1,-1,0,2021-08-07 12:45:25,323627
0,1,2,2,3,1,1,-1,2021-08-07 12:45:25,323627
-2,-3,-4,-3,-5,-5,0,-3,2021-08-07 12:45:25,323627
-1,0,0,1,7,6,2,1,2021-08-07 12:45:25,323627
1,-2,0,-2,-2,-2,-1,-1,2021-08-07 12:45:25,323627
-4,-2,-1,0,-5,-5,-5,-3,2021-08-07 12:45:25,339626
-5,-7,-5,-11,-23,-16,-11,-6,2021-08-07 12:45:25,339626
-1,-3,-2,6,8,8,1,-2,2021-08-07 12:45:25,339626
11,15,14,24,40,23,13,9,2021-08-07 12:45:25,339626
0,0,-2,-4,-2,-1,-1,-1,2021-08-07 12:45:25,355626
-3,-3,-4,-8,-6,-4,-2,-3,2021-08-07 12:45:25,355626
-4,-4,-2,-4,-9,-6,-4,-5,2021-08-07 12:45:25,355626
-3,-2,-3,-8,-16,-9,-6,-3,2021-08-07 12:45:25,355626
-2,-2,1,-1,-4,-2,-1,-1,2021-08-07 12:45:25,387625
0,1,4,6,7,4,3,3,2021-08-07 12:45:25,387625
1,1,2,-5,-7,-5,0,1,2021-08-07 12:45:25,387625
-1,-2,-3,2,4,4,2,1,2021-08-07 12:45:25,387625
-1,0,-1,0,1,-1,0,-1,2021-08-07 12:45:25,388626
-1,-3,-1,5,3,1,0,-2,2021-08-07 12:45:25,388626
-3,-2,-4,-4,3,1,-1,-2,2021-08-07 12:45:25,403625
4,1,0,-9,-14,-10,-2,1,2021-08-07 12:45:25,403625
3,3,3,2,10,9,4,2,2021-08-07 12:45:25,419625
1,2,3,11,12,8,4,2,2021-08-07 12:45:25,419625
0,-1,1,9,4,0,0,-1,2021-08-07 12:45:25,419625
-5,-6,-7,-13,-11,-7,-4,-6,2021-08-07 12:45:25,419625
-2,-1,-3,-10,-9,-5,-3,-1,2021-08-07 12:45:25,451628
1,2,4,2,6,2,0,1,2021-08-07 12:45:25,467626
1,3,1,4,12,7,3,1,2021-08-07 12:45:25,483626
-6,-6,-6,-8,-15,-9,-8,-5,2021-08-07 12:45:25,483626
0,-2,-3,1,-4,-5,0,-3,2021-08-07 12:45:25,483626
2,5,5,5,11,9,4,2,2021-08-07 12:45:25,483626
-3,0,-2,-8,-11,-9,-4,-3,2021-08-07 12:45:25,483626
-3,-3,-3,-10,-17,-8,-4,-3,2021-08-07 12:45:25,483626
2,2,6,11,27,19,9,4,2021-08-07 12:45:25,484625
-2,-2,-3,-1,-4,-3,-2,-3,2021-08-07 12:45:25,484625
4,3,3,9,17,8,5,3,2021-08-07 12:45:25,484625
-3,-1,-1,-4,-5,-5,-2,-2,2021-08-07 12:45:25,484625
-1,-3,-3,-4,-7,-7,-4,-1,2021-08-07 12:45:25,499625
-2,-1,-2,-6,-10,-5,-4,-2,2021-08-07 12:45:25,499625
-1,1,-2,-1,-3,-3,-2,-2,2021-08-07 12:45:25,499625
-2,-2,-3,-6,-4,-1,0,-1,2021-08-07 12:45:25,499625
-1,-2,-4,-6,-8,-5,-4,-2,2021-08-07 12:45:25,515626
2,2,2,7,15,9,5,2,2021-08-07 12:45:25,515626
3,7,10,21,12,3,2,2,2021-08-07 12:45:25,515626
-3,-4,-1,3,-1,-1,-4,-3,2021-08-07 12:45:25,515626
2,4,-2,-2,8,8,5,4,2021-08-07 12:45:25,546626
-4,-5,-6,-28,-23,-13,-7,-5,2021-08-07 12:45:25,546626
-3,-6,-7,-10,-8,-3,-5,-2,2021-08-07 12:45:25,546626
-4,-3,-10,2,0,-4,-3,-2,2021-08-07 12:45:25,546626
0,-1,7,12,-2,-2,-1,-1,2021-08-07 12:45:25,562625
2,1,-2,3,7,4,3,2,2021-08-07 12:45:25,562625
0,1,4,10,13,9,4,1,2021-08-07 12:45:25,562625
3,1,5,5,8,3,2,1,2021-08-07 12:45:25,562625
1,1,-1,-5,-11,-8,-3,0,2021-08-07 12:45:25,578626
-2,-2,0,-1,-2,-3,-3,-3,2021-08-07 12:45:25,578626
-1,-4,-4,-12,-9,-4,-2,-1,2021-08-07 12:45:25,578626
-4,-4,-7,-9,-11,-6,-6,-4,2021-08-07 12:45:25,578626
-3,-2,-2,-7,-7,-4,-3,-3,2021-08-07 12:45:25,609665
0,-2,-1,2,4,2,0,-1,2021-08-07 12:45:25,625626
-2,-6,-7,-1,-4,-3,-3,-2,2021-08-07 12:45:25,625626
5,7,8,1,10,9,6,5,2021-08-07 12:45:25,625626
3,2,3,4,4,1,2,0,2021-08-07 12:45:25,625626
-1,-1,1,2,-5,-2,-2,-1,2021-08-07 12:45:25,638627
-2,0,-8,-4,-6,-4,-2,-1,2021-08-07 12:45:25,639630
-4,-4,-2,-9,-8,-6,-3,-4,2021-08-07 12:45:25,639630
-2,-1,0,-5,-10,-6,-2,-1,2021-08-07 12:45:25,639630
2,1,-1,3,1,1,2,1,2021-08-07 12:45:25,639630
3,4,4,8,13,9,6,2,2021-08-07 12:45:25,657627
-2,-6,-6,-7,-5,-5,-3,-3,2021-08-07 12:45:25,657627
-2,0,-3,-1,-2,0,-1,0,2021-08-07 12:45:25,657627
-2,-4,-2,4,7,2,1,-1,2021-08-07 12:45:25,657627
1,4,2,-2,-3,-2,-1,0,2021-08-07 12:45:25,657627
4,2,5,10,12,5,3,3,2021-08-07 12:45:25,657627
-2,-2,-2,1,-5,-4,-2,-1,2021-08-07 12:45:25,688627
0,-1,1,-1,4,6,0,1,2021-08-07 12:45:25,703626
-1,-2,-2,-8,-15,-10,-6,-2,2021-08-07 12:45:25,703626
-1,-2,-2,-1,-2,0,-1,-1,2021-08-07 12:45:25,703626
-2,-3,0,5,7,4,2,0,2021-08-07 12:45:25,703626
0,2,-1,-4,-4,-3,-1,-1,2021-08-07 12:45:25,704628
-2,-2,-3,-3,0,1,-1,-2,2021-08-07 12:45:25,719627
0,-2,-2,-8,-11,-8,-5,-3,2021-08-07 12:45:25,735626
-1,0,0,5,13,7,2,2,2021-08-07 12:45:25,735626
4,6,6,15,17,9,6,4,2021-08-07 12:45:25,735626
2,2,3,4,5,2,3,0,2021-08-07 12:45:25,735626
-6,-8,-11,-16,-16,-10,-7,-5,2021-08-07 12:45:25,735626
0,0,-1,-7,-13,-5,-4,-3,2021-08-07 12:45:25,735626
0,0,-2,-2,-4,-3,-3,0,2021-08-07 12:45:25,735626
0,1,0,-4,-5,-3,0,2,2021-08-07 12:45:25,736625
2,1,2,8,10,5,3,1,2021-08-07 12:45:25,736625
-3,-4,-8,-10,-13,-9,-7,-2,2021-08-07 12:45:25,767626
1,0,3,6,12,5,2,1,2021-08-07 12:45:25,767626
-2,-6,-2,-4,-10,-4,-5,-2,2021-08-07 12:45:25,767626
1,7,3,10,17,11,6,2,2021-08-07 12:45:25,767626
2,1,2,0,6,4,1,1,2021-08-07 12:45:25,783624
-2,-3,-5,-7,-14,-9,-4,-4,2021-08-07 12:45:25,783624
-2,-3,-5,-9,-8,-5,-3,-2,2021-08-07 12:45:25,783624
-3,-4,-1,-4,-2,-2,-2,-3,2021-08-07 12:45:25,783624
-1,0,0,-1,-10,-5,-3,-3,2021-08-07 12:45:25,798624
2,4,3,9,12,6,4,2,2021-08-07 12:45:25,814625
0,-2,-3,-2,-5,-4,-2,-1,2021-08-07 12:45:25,814625
6,5,5,7,25,17,8,4,2021-08-07 12:45:25,814625
-2,-1,-5,-10,-3,-3,-1,-1,2021-08-07 12:45:25,814625
-4,-6,-6,-12,-19,-9,-7,-6,2021-08-07 12:45:25,814625
-3,-1,0,4,1,-4,-1,-2,2021-08-07 12:45:25,845626
-1,1,3,1,-9,-6,-1,0,2021-08-07 12:45:25,861625
-2,-3,-2,-2,-2,-1,-2,-3,2021-08-07 12:45:25,861625
0,1,-2,-2,4,2,1,1,2021-08-07 12:45:25,877624
1,2,1,-3,0,1,1,0,2021-08-07 12:45:25,877624
0,0,1,7,5,1,-1,-1,2021-08-07 12:45:25,877624
1,2,1,10,15,8,5,-1,2021-08-07 12:45:25,877624
-7,-7,-9,-21,-22,-13,-9,-5,2021-08-07 12:45:25,877624
-1,1,0,-2,2,1,0,-1,2021-08-07 12:45:25,877624
2,1,7,1,-2,-2,-1,-2,2021-08-07 12:45:25,877624
-1,-3,-7,-2,-11,-7,-5,-1,2021-08-07 12:45:25,878625
-6,-8,-10,-4,-9,-8,-6,-2,2021-08-07 12:45:25,878625
6,7,7,10,18,14,9,4,2021-08-07 12:45:25,878625
2,3,4,9,13,8,4,1,2021-08-07 12:45:25,878625
0,0,5,2,3,-1,0,-1,2021-08-07 12:45:25,908624
-4,-3,-3,-11,-9,-5,-3,-1,2021-08-07 12:45:25,908624
-5,-8,-11,-23,-32,-19,-12,-6,2021-08-07 12:45:25,908624
0,0,1,2,2,4,2,2,2021-08-07 12:45:25,908624
2,4,5,2,5,7,6,2,2021-08-07 12:45:25,924625
4,8,10,29,41,24,11,4,2021-08-07 12:45:25,940624
-3,-1,1,5,3,-2,-1,-2,2021-08-07 12:45:25,956625
-4,-2,-7,-12,-18,-12,-7,-4,2021-08-07 12:45:25,956625
1,0,-3,1,1,1,1,0,2021-08-07 12:45:25,956625
-1,1,2,3,-8,-3,-1,0,2021-08-07 12:45:25,956625
-2,-1,1,10,8,1,0,0,2021-08-07 12:45:25,956625
0,-1,-6,-5,-2,-1,0,2,2021-08-07 12:45:25,957626
-3,-5,-2,-11,-8,-4,-4,-3,2021-08-07 12:45:25,957626
4,3,2,-2,1,3,2,0,2021-08-07 12:45:25,957626
0,-3,-3,-1,3,3,0,0,2021-08-07 12:45:25,957626
-5,-7,-8,-4,-10,-9,-3,-4,2021-08-07 12:45:25,957626
-2,1,3,3,0,-2,-2,-2,2021-08-07 12:45:25,988625
0,0,1,1,-10,-9,-4,-1,2021-08-07 12:45:25,988625
3,1,-2,2,13,11,5,4,2021-08-07 12:45:25,988625
3,5,8,5,9,6,4,3,2021-08-07 12:45:25,988625
-2,-2,1,-7,-1,0,-2,-2,2021-08-07 12:45:26,003624
-2,-2,-11,-1,-6,-4,-1,-2,2021-08-07 12:45:26,003624
-3,-3,-2,-10,-12,-8,-4,-4,2021-08-07 12:45:26,003624
-3,-5,-3,-3,-15,-11,-6,-2,2021-08-07 12:45:26,003624
-3,-3,-3,-11,-10,-5,-4,-2,2021-08-07 12:45:26,033626
-1,-5,-2,-2,0,2,0,-2,2021-08-07 12:45:26,033626
12,17,17,36,53,28,15,11,2021-08-07 12:45:26,033626
-2,-5,-7,-10,-2,0,-3,-2,2021-08-07 12:45:26,033626
-1,1,2,-7,-12,-10,-5,-1,2021-08-07 12:45:26,033626
-2,-4,-3,-11,-22,-14,-6,-5,2021-08-07 12:45:26,033626
-3,-3,-3,-7,-11,-3,-3,-3,2021-08-07 12:45:26,033626
-1,0,3,5,1,1,-1,-2,2021-08-07 12:45:26,034631
-4,-8,-9,-5,-12,-10,-7,-5,2021-08-07 12:45:26,065627
4,4,-1,-9,1,5,4,5,2021-08-07 12:45:26,065627
3,2,2,12,16,12,8,4,2021-08-07 12:45:26,065627
3,6,12,13,12,4,3,2,2021-08-07 12:45:26,065627
-1,0,4,8,8,6,3,0,2021-08-07 12:45:26,069626
-5,-5,-8,-5,-3,-5,-5,-3,2021-08-07 12:45:26,069626
-10,-13,-18,-27,-28,-20,-15,-10,2021-08-07 12:45:26,081625
-4,-7,-12,-9,-4,-4,-5,-4,2021-08-07 12:45:26,081625
0,1,4,10,8,3,0,0,2021-08-07 12:45:26,097625
3,6,13,12,8,3,2,1,2021-08-07 12:45:26,097625
3,5,10,1,-3,1,2,2,2021-08-07 12:45:26,097625
0,4,9,2,-5,-4,0,-1,2021-08-07 12:45:26,097625
1,2,-1,4,8,7,3,3,2021-08-07 12:45:26,129624
0,-1,-8,0,-1,-3,0,1,2021-08-07 12:45:26,145627
-6,-11,-9,-14,-21,-11,-7,-4,2021-08-07 12:45:26,145627
-5,-14,-30,-12,-5,-3,-4,-3,2021-08-07 12:45:26,145627
1,-2,-1,-1,7,4,3,2,2021-08-07 12:45:26,145627
-2,-1,-9,-8,-4,0,-1,-2,2021-08-07 12:45:26,145627
1,6,16,8,6,0,2,-1,2021-08-07 12:45:26,145627
-1,4,13,5,1,1,-1,0,2021-08-07 12:45:26,145627
2,4,5,2,-7,-5,-1,0,2021-08-07 12:45:26,161625
-2,-1,2,-8,-2,0,-2,-2,2021-08-07 12:45:26,177626
-4,-2,-6,-12,-20,-15,-7,-3,2021-08-07 12:45:26,193624
0,1,0,-1,10,14,6,4,2021-08-07 12:45:26,209626
-1,-2,-8,5,4,2,1,-1,2021-08-07 12:45:26,241624
1,2,6,7,10,5,2,2,2021-08-07 12:45:26,257626
-3,-5,-8,-5,-3,-2,-3,-3,2021-08-07 12:45:26,273624
-2,-1,-1,-4,-11,-8,-4,-2,2021-08-07 12:45:26,273624
-2,0,-6,-3,-8,-4,-2,-1,2021-08-07 12:45:26,273624
3,3,6,6,7,4,3,1,2021-08-07 12:45:26,273624
1,3,1,4,3,3,3,2,2021-08-07 12:45:26,273624
-3,-6,-7,-3,-4,-4,-2,-2,2021-08-07 12:45:26,273624
2,4,6,5,9,7,2,3,2021-08-07 12:45:26,274626
-2,-3,-3,-3,-8,-9,-4,-4,2021-08-07 12:45:26,274626
-4,-6,-5,-4,-4,-4,-5,-3,2021-08-07 12:45:26,274626
0,3,1,-6,0,0,0,1,2021-08-07 12:45:26,274626
1,1,3,7,13,5,3,0,2021-08-07 12:45:26,274626
0,0,0,5,0,-1,-1,0,2021-08-07 12:45:26,274626
1,-2,-3,2,2,-2,1,0,2021-08-07 12:45:26,274626
-1,-2,-2,-2,-2,0,0,-1,2021-08-07 12:45:26,275628
-4,-2,-5,-18,-21,-12,-6,-3,2021-08-07 12:45:26,275628
0,-3,-1,1,5,3,1,1,2021-08-07 12:45:26,275628
0,0,-2,4,6,2,-1,-1,2021-08-07 12:45:26,275628
-1,-1,0,-3,-3,-4,-3,0,2021-08-07 12:45:26,275628
-3,-3,-2,-1,3,1,-1,-3,2021-08-07 12:45:26,275628
0,-1,2,-1,-3,-2,0,0,2021-08-07 12:45:26,275628
2,4,7,-2,-6,-3,0,-1,2021-08-07 12:45:26,276627
6,5,2,13,18,8,5,4,2021-08-07 12:45:26,276627
-1,-5,-4,-2,0,3,0,-2,2021-08-07 12:45:26,305625
-3,-4,-4,-9,-9,-10,-6,-2,2021-08-07 12:45:26,305625
-4,-6,-4,-10,-17,-6,-5,-3,2021-08-07 12:45:26,305625
1,3,5,7,22,10,5,2,2021-08-07 12:45:26,305625
2,4,3,4,7,3,2,2,2021-08-07 12:45:26,321627
-2,-1,-1,1,-4,-3,-2,0,2021-08-07 12:45:26,337626
-6,-5,-8,-12,-11,-8,-5,-5,2021-08-07 12:45:26,337626
-1,1,3,-1,-10,-6,-3,-1,2021-08-07 12:45:26,337626
-1,-2,-3,6,5,3,1,-2,2021-08-07 12:45:26,337626
5,6,5,2,3,5,4,3,2021-08-07 12:45:26,337626
-2,-4,-3,-1,-3,-3,-3,-2,2021-08-07 12:45:26,338625
-1,0,-3,-16,-16,-6,-3,-2,2021-08-07 12:45:26,338625
-2,-1,0,-1,2,-1,-2,-1,2021-08-07 12:45:26,369624
-2,-1,0,4,6,5,1,-1,2021-08-07 12:45:26,384626
-1,-3,-6,8,12,3,2,-2,2021-08-07 12:45:26,384626
0,1,0,3,-9,-7,-3,-3,2021-08-07 12:45:26,384626
0,-3,-2,-8,-8,-5,-2,-1,2021-08-07 12:45:26,384626
-1,2,4,1,5,2,0,-1,2021-08-07 12:45:26,384626
0,4,10,-2,-7,-5,-2,-1,2021-08-07 12:45:26,384626
-2,-3,-11,8,19,11,5,-1,2021-08-07 12:45:26,385628
1,-1,-3,-2,-5,-4,-3,0,2021-08-07 12:45:26,400626
-4,-4,-6,-3,-6,-2,-3,-1,2021-08-07 12:45:26,416626
4,3,1,6,13,9,4,3,2021-08-07 12:45:26,432627
-3,-2,2,-1,-9,-7,-3,-4,2021-08-07 12:45:26,464625
-2,1,0,2,-1,1,0,0,2021-08-07 12:45:26,480624
-1,0,-3,-6,-13,-5,-3,-2,2021-08-07 12:45:26,480624
3,2,4,10,31,22,10,6,2021-08-07 12:45:26,480624
-3,-7,-7,-12,-11,-10,-7,-3,2021-08-07 12:45:26,480624
-3,-8,-5,-11,-8,-4,-4,-4,2021-08-07 12:45:26,480624
1,2,2,3,-3,-1,-1,0,2021-08-07 12:45:26,480624
2,6,4,9,-3,-3,0,-1,2021-08-07 12:45:26,481628
0,-2,-3,6,6,5,1,-1,2021-08-07 12:45:26,481628
0,3,-2,-8,-7,-3,-1,0,2021-08-07 12:45:26,481628
-5,-7,-5,-17,-16,-11,-5,-4,2021-08-07 12:45:26,481628
-1,-1,1,3,4,1,0,-1,2021-08-07 12:45:26,481628
1,0,1,2,2,2,0,0,2021-08-07 12:45:26,481628
-2,-3,-4,-5,-11,-7,-3,-5,2021-08-07 12:45:26,481628
-1,-2,0,-4,4,1,1,-1,2021-08-07 12:45:26,482628
2,-1,-14,3,12,6,4,0,2021-08-07 12:45:26,482628
2,1,9,7,2,-2,0,-1,2021-08-07 12:45:26,482628
1,-1,-2,0,3,0,0,0,2021-08-07 12:45:26,504625
1,2,2,5,5,1,2,-1,2021-08-07 12:45:26,504625
-2,-2,0,-7,-13,-7,-4,-2,2021-08-07 12:45:26,505626
