EMG 1,EMG 2,EMG 3,EMG 4,EMG 5,EMG 6,EMG 7,EMG 8,Timestamp,Milliseconds
0,-1,-2,-1,-3,-2,1,0,2021-08-07 12:45:09,775290
1,1,2,2,2,1,1,0,2021-08-07 12:45:09,775290
0,-2,-2,-3,-3,-3,-1,-3,2021-08-07 12:45:09,775290
-4,-6,-6,-8,-11,-7,-6,-3,2021-08-07 12:45:09,775290
0,1,1,4,3,2,0,-2,2021-08-07 12:45:09,775290
2,0,1,2,6,5,3,1,2021-08-07 12:45:09,775290
1,2,3,2,-1,0,1,1,2021-08-07 12:45:09,807291
-2,1,2,1,0,0,0,-1,2021-08-07 12:45:09,807291
0,-1,2,2,7,5,1,-1,2021-08-07 12:45:09,807291
-1,-2,-2,-1,-1,-1,0,0,2021-08-07 12:45:09,807291
2,0,-1,2,3,2,1,0,2021-08-07 12:45:09,807291
-3,-1,-2,0,-2,-4,-2,-3,2021-08-07 12:45:09,807291
-1,1,-1,-3,-4,-1,-1,1,2021-08-07 12:45:09,807291
-3,-3,-4,-2,0,-1,-3,-2,2021-08-07 12:45:09,807291
-4,-4,-3,-9,-9,-5,-3,-3,2021-08-07 12:45:09,823289
5,7,7,6,7,6,4,3,2021-08-07 12:45:09,839290
2,4,5,8,12,6,5,1,2021-08-07 12:45:09,871289
-1,-1,-2,-1,-4,-4,-3,0,2021-08-07 12:45:09,886288
-2,-4,-5,-1,-3,-4,-3,-2,2021-08-07 12:45:09,902290
-4,-6,-5,-4,-5,-6,-4,-5,2021-08-07 12:45:09,918289
0,-1,-4,-7,-8,-3,-3,0,2021-08-07 12:45:09,918289
0,-1,-1,-1,0,-1,-2,-1,2021-08-07 12:45:09,918289
0,-2,0,-2,-1,0,-1,-1,2021-08-07 12:45:09,918289
-1,-1,-1,-2,1,0,-1,0,2021-08-07 12:45:09,918289
-2,-4,-4,-6,-7,-5,-3,-2,2021-08-07 12:45:09,918289
1,3,1,0,2,2,1,0,2021-08-07 12:45:09,918289
1,1,1,3,5,2,-1,-1,2021-08-07 12:45:09,918289
-1,-3,-2,1,0,0,-2,-3,2021-08-07 12:45:09,918289
-2,-1,0,0,-3,-3,-4,-2,2021-08-07 12:45:09,918289
-5,-6,-5,-6,-9,-8,-5,-4,2021-08-07 12:45:09,918289
2,1,1,4,9,6,4,1,2021-08-07 12:45:09,927290
-2,0,-2,0,-1,-1,0,0,2021-08-07 12:45:09,927290
-4,-6,-6,-9,-9,-5,-3,-4,2021-08-07 12:45:09,927290
-5,-5,-3,1,4,1,-1,-4,2021-08-07 12:45:09,928291
-2,-1,0,2,0,-3,-2,-2,2021-08-07 12:45:09,928291
-1,-1,2,-1,-2,-2,-1,-3,2021-08-07 12:45:09,928291
0,4,3,5,5,2,0,-1,2021-08-07 12:45:09,934291
-2,-1,-1,-5,-9,-7,-3,-2,2021-08-07 12:45:09,934291
0,-2,-2,2,5,3,1,-1,2021-08-07 12:45:09,950289
-1,-2,-3,-1,-2,-1,0,0,2021-08-07 12:45:09,950289
4,4,2,1,-3,-1,0,2,2021-08-07 12:45:09,950289
-1,-2,-2,-4,-5,-4,-1,-3,2021-08-07 12:45:09,950289
-2,-2,-2,-5,-5,-4,-2,-2,2021-08-07 12:45:09,982291
-2,-3,-2,0,-2,0,1,-2,2021-08-07 12:45:09,998289
0,-3,-3,-2,-2,0,-1,0,2021-08-07 12:45:09,998289
2,1,1,3,5,3,0,2,2021-08-07 12:45:09,998289
0,-1,-2,-7,-8,-5,-3,-1,2021-08-07 12:45:09,998289
-2,-2,-2,-7,-13,-9,-5,-3,2021-08-07 12:45:09,998289
4,8,11,16,25,18,11,7,2021-08-07 12:45:09,998289
-2,3,1,4,8,1,-1,-1,2021-08-07 12:45:09,998289
-4,-2,-4,-6,-9,-5,-4,-2,2021-08-07 12:45:09,999291
1,2,3,7,14,8,3,2,2021-08-07 12:45:09,999291
-3,-4,-5,-8,-10,-8,-5,-3,2021-08-07 12:45:10,030290
-1,-5,-2,-2,-6,-4,-3,-3,2021-08-07 12:45:10,030290
-2,-1,0,1,-1,-2,-2,-2,2021-08-07 12:45:10,030290
1,0,-1,-1,-1,1,0,1,2021-08-07 12:45:10,030290
-1,-2,0,-4,-4,-2,-2,-2,2021-08-07 12:45:10,045288
2,1,-1,-1,-1,2,1,0,2021-08-07 12:45:10,061289
-1,0,1,1,3,1,0,-2,2021-08-07 12:45:10,061289
-1,-1,-2,-1,-2,-1,-1,1,2021-08-07 12:45:10,061289
-3,-5,-5,-7,-6,-5,-2,-3,2021-08-07 12:45:10,061289
-1,-2,-1,1,1,0,0,1,2021-08-07 12:45:10,061289
3,7,6,3,5,5,3,5,2021-08-07 12:45:10,061289
1,1,1,3,6,3,1,0,2021-08-07 12:45:10,061289
-2,-3,-3,-2,-7,-7,-5,-3,2021-08-07 12:45:10,077290
-3,-4,-4,-5,-7,-3,-2,-3,2021-08-07 12:45:10,077290
-1,-3,0,1,6,4,0,-2,2021-08-07 12:45:10,077290
4,2,3,0,2,0,1,1,2021-08-07 12:45:10,077290
1,1,1,4,3,1,1,1,2021-08-07 12:45:10,109291
-1,0,-1,-1,-2,-1,-2,-1,2021-08-07 12:45:10,125290
-4,-4,-5,-7,-12,-8,-4,-2,2021-08-07 12:45:10,141288
1,0,1,8,14,8,3,-1,2021-08-07 12:45:10,141288
0,-1,-1,-3,-3,-1,-2,0,2021-08-07 12:45:10,141288
0,0,0,0,6,3,1,-1,2021-08-07 12:45:10,141288
-2,-1,-2,-3,-2,-1,0,-3,2021-08-07 12:45:10,142291
0,0,-4,-1,-3,-2,-1,-1,2021-08-07 12:45:10,142291
1,1,2,1,2,0,1,-1,2021-08-07 12:45:10,142291
-2,1,-2,-1,1,-1,0,-1,2021-08-07 12:45:10,142291
0,-1,-3,-3,-8,-3,-2,-3,2021-08-07 12:45:10,142291
-1,-2,-3,-10,-9,-6,-3,-1,2021-08-07 12:45:10,142291
-6,-8,-8,-6,-4,-5,-5,-4,2021-08-07 12:45:10,172289
4,4,4,2,2,3,2,3,2021-08-07 12:45:10,172289
2,4,5,10,6,3,1,2,2021-08-07 12:45:10,172289
-2,-2,-2,-2,-4,-4,-3,-1,2021-08-07 12:45:10,172289
-1,-2,-2,1,1,0,-2,-1,2021-08-07 12:45:10,188289
-2,-3,-2,-3,-5,-4,-3,-2,2021-08-07 12:45:10,204289
1,0,-1,-5,-7,-3,-2,0,2021-08-07 12:45:10,204289
0,-1,2,6,9,5,1,-2,2021-08-07 12:45:10,220290
1,1,0,-3,-3,-1,0,0,2021-08-07 12:45:10,235289
-2,0,0,3,3,0,0,-1,2021-08-07 12:45:10,251288
-1,-3,-3,-4,-4,-3,-2,0,2021-08-07 12:45:10,251288
-1,0,-2,-4,-9,-4,-3,-2,2021-08-07 12:45:10,251288
0,0,2,10,15,9,4,0,2021-08-07 12:45:10,251288
-1,1,1,-1,-1,-1,-3,-2,2021-08-07 12:45:10,251288
1,1,0,0,0,2,0,0,2021-08-07 12:45:10,251288
-2,-4,-4,-6,-9,-7,-4,-1,2021-08-07 12:45:10,251288
0,-1,-4,-7,-8,-6,-1,-1,2021-08-07 12:45:10,251288
1,-3,-2,-2,-4,0,-1,1,2021-08-07 12:45:10,252289
-1,-3,-1,0,-1,-1,-1,-1,2021-08-07 12:45:10,252289
1,2,2,1,3,4,2,3,2021-08-07 12:45:10,252289
0,4,4,8,9,3,2,0,2021-08-07 12:45:10,252289
0,1,2,-2,-1,-1,-2,-1,2021-08-07 12:45:10,252289
-3,-6,-7,-7,-5,-5,-2,-3,2021-08-07 12:45:10,283290
1,0,-1,-2,3,1,1,0,2021-08-07 12:45:10,299288
4,7,6,5,1,1,3,4,2021-08-07 12:45:10,299288
-1,-1,-2,-1,-2,-2,0,-1,2021-08-07 12:45:10,299288
-4,-4,-4,-1,-1,1,-3,-2,2021-08-07 12:45:10,299288
-2,-3,0,-2,-3,-3,-1,0,2021-08-07 12:45:10,299288
-1,-1,-1,3,2,1,-1,-1,2021-08-07 12:45:10,299288
-2,-2,-2,-1,-2,0,0,0,2021-08-07 12:45:10,300291
1,1,2,4,5,2,2,0,2021-08-07 12:45:10,315289
-1,-2,-1,-3,-4,-3,-1,0,2021-08-07 12:45:10,315289
-1,-3,-4,-5,-6,-1,-1,0,2021-08-07 12:45:10,315289
-1,1,0,0,0,1,0,2,2021-08-07 12:45:10,315289
-1,-1,-1,-1,2,0,0,-1,2021-08-07 12:45:10,331291
-1,0,-1,-4,-7,-4,-1,-1,2021-08-07 12:45:10,338290
-1,0,0,2,5,1,-1,-2,2021-08-07 12:45:10,347290
-2,-3,-4,-3,-4,-3,-3,-2,2021-08-07 12:45:10,363289
-1,1,2,3,-1,-1,0,1,2021-08-07 12:45:10,378290
-1,1,-1,1,1,2,1,-1,2021-08-07 12:45:10,378290
0,-3,0,-6,-2,-1,-1,-1,2021-08-07 12:45:10,378290
-2,-3,-3,-1,-1,-3,-1,-5,2021-08-07 12:45:10,378290
1,2,3,0,1,0,-1,1,2021-08-07 12:45:10,393289
-1,-1,-2,4,1,1,-2,-1,2021-08-07 12:45:10,393289
-3,-4,-3,-2,-2,-5,-4,0,2021-08-07 12:45:10,393289
-2,-3,-3,-2,-1,0,-1,-2,2021-08-07 12:45:10,393289
0,1,0,1,3,2,0,1,2021-08-07 12:45:10,393289
-1,-1,0,-1,-4,-4,-3,-3,2021-08-07 12:45:10,393289
2,3,4,3,3,5,2,1,2021-08-07 12:45:10,408289
1,2,1,0,-1,-1,0,0,2021-08-07 12:45:10,408289
-1,-4,-4,-3,-3,-2,-1,-3,2021-08-07 12:45:10,408289
0,0,0,4,6,3,1,1,2021-08-07 12:45:10,408289
-2,0,-1,-5,-6,-3,-2,-1,2021-08-07 12:45:10,439288
-1,-3,0,0,2,0,1,0,2021-08-07 12:45:10,439288
1,2,0,1,1,1,2,2,2021-08-07 12:45:10,439288
-2,0,0,-2,-2,-2,-1,-1,2021-08-07 12:45:10,439288
-2,-3,-3,-3,-4,-2,-2,-1,2021-08-07 12:45:10,439288
-1,-1,-3,0,1,0,1,-1,2021-08-07 12:45:10,439288
-4,-4,-4,-5,-7,-6,-3,-4,2021-08-07 12:45:10,439288
2,2,1,1,4,4,2,1,2021-08-07 12:45:10,440289
-2,-1,-2,-2,-4,-1,-3,-2,2021-08-07 12:45:10,487288
2,3,4,1,0,2,1,2,2021-08-07 12:45:10,503291
-1,-3,-2,-1,0,-1,-1,-1,2021-08-07 12:45:10,503291
-2,-3,-3,-4,-1,0,-1,-1,2021-08-07 12:45:10,503291
2,-1,2,4,3,0,0,-1,2021-08-07 12:45:10,503291
-2,-1,-1,-1,-1,-1,-2,-2,2021-08-07 12:45:10,503291
-1,-1,1,-2,-4,-2,-3,-3,2021-08-07 12:45:10,503291
-2,-2,-1,-1,-3,-4,-3,-1,2021-08-07 12:45:10,504290
-2,-5,-5,-6,-5,-3,0,-2,2021-08-07 12:45:10,504290
-1,-1,-1,-1,-1,-2,-2,-1,2021-08-07 12:45:10,504290
-1,0,-1,-1,1,1,1,1,2021-08-07 12:45:10,504290
0,-1,0,2,7,4,1,-2,2021-08-07 12:45:10,504290
-3,-3,-5,-5,-7,-5,-3,-3,2021-08-07 12:45:10,534291
2,4,5,6,6,4,2,1,2021-08-07 12:45:10,534291
2,5,5,6,8,5,3,2,2021-08-07 12:45:10,566290
0,-1,1,1,1,0,1,1,2021-08-07 12:45:10,566290
0,0,-1,-2,-7,-6,-3,-3,2021-08-07 12:45:10,566290
-2,-3,-6,-8,-9,-5,-2,-1,2021-08-07 12:45:10,566290
1,-2,-4,2,4,3,0,2,2021-08-07 12:45:10,566290
-1,-2,-2,-1,-1,-2,0,0,2021-08-07 12:45:10,566290
-1,2,-1,-2,-1,-1,1,2,2021-08-07 12:45:10,566290
-2,-5,-5,-7,-10,-4,-2,-3,2021-08-07 12:45:10,566290
3,5,4,7,11,10,4,1,2021-08-07 12:45:10,566290
-3,0,0,-1,-2,-1,0,-2,2021-08-07 12:45:10,567291
-2,0,0,2,2,-2,-2,-2,2021-08-07 12:45:10,582290
-3,-2,-1,-1,-2,-3,-2,-2,2021-08-07 12:45:10,582290
-1,-1,-2,-7,-9,-7,-4,0,2021-08-07 12:45:10,582290
2,-2,-2,-6,-14,-9,-4,-2,2021-08-07 12:45:10,582290
0,0,0,5,13,8,3,2,2021-08-07 12:45:10,598290
2,0,-1,-1,0,-1,1,0,2021-08-07 12:45:10,598290
-3,-4,-4,-9,-19,-11,-6,-3,2021-08-07 12:45:10,614291
5,6,8,28,45,29,12,6,2021-08-07 12:45:10,630290
-3,-1,-2,-3,-3,-3,-2,-2,2021-08-07 12:45:10,630290
-3,-3,-4,-5,-10,-6,-4,-2,2021-08-07 12:45:10,630290
0,-1,-1,2,10,4,3,1,2021-08-07 12:45:10,630290
-2,-3,-4,-9,-16,-11,-6,-3,2021-08-07 12:45:10,630290
-1,0,-2,-1,-5,-2,0,-1,2021-08-07 12:45:10,646289
-2,0,0,1,0,-4,-1,-2,2021-08-07 12:45:10,661288
-2,-3,-4,-11,-14,-6,-2,-2,2021-08-07 12:45:10,661288
1,1,1,2,6,3,0,1,2021-08-07 12:45:10,661288
1,-2,-3,-7,-11,-5,-3,1,2021-08-07 12:45:10,661288
1,1,-1,4,12,7,2,2,2021-08-07 12:45:10,661288
-1,-1,-3,-3,1,1,0,-2,2021-08-07 12:45:10,661288
-2,-1,-1,3,6,3,2,-1,2021-08-07 12:45:10,661288
0,1,0,0,-1,0,1,0,2021-08-07 12:45:10,677290
0,-2,-3,-8,-8,-5,-3,-2,2021-08-07 12:45:10,677290
-1,0,2,4,4,2,1,-2,2021-08-07 12:45:10,693291
-1,-1,-3,-7,-13,-12,-5,-2,2021-08-07 12:45:10,693291
0,-2,0,1,2,2,0,1,2021-08-07 12:45:10,708290
-3,-4,-4,-5,-6,-4,-5,-2,2021-08-07 12:45:10,708290
0,-2,-2,3,9,4,1,1,2021-08-07 12:45:10,708290
1,1,2,-8,-14,-7,-2,2,2021-08-07 12:45:10,708290
0,3,4,5,5,3,1,0,2021-08-07 12:45:10,724290
-1,0,2,1,2,1,2,1,2021-08-07 12:45:10,724290
1,-1,-1,1,1,1,0,0,2021-08-07 12:45:10,724290
-3,-5,-4,-3,-4,-2,-5,-5,2021-08-07 12:45:10,724290
-1,-4,-2,-3,-1,0,-1,-1,2021-08-07 12:45:10,740290
0,0,1,3,2,2,1,2,2021-08-07 12:45:10,740290
-3,-2,-3,-12,-13,-9,-4,-2,2021-08-07 12:45:10,740290
2,4,4,5,5,3,4,1,2021-08-07 12:45:10,740290
1,1,0,3,8,3,1,-1,2021-08-07 12:45:10,771290
-1,-1,-3,1,5,3,-2,-4,2021-08-07 12:45:10,771290
0,-1,1,4,7,3,2,0,2021-08-07 12:45:10,771290
2,4,4,2,1,1,2,2,2021-08-07 12:45:10,771290
-4,-4,-4,-7,-11,-7,-4,-4,2021-08-07 12:45:10,787290
1,1,2,1,-1,0,0,1,2021-08-07 12:45:10,803289
-4,-2,-3,-1,-7,-5,-4,-2,2021-08-07 12:45:10,819290
-5,-9,-9,-11,-8,-5,-5,-4,2021-08-07 12:45:10,819290
3,5,5,7,8,7,3,2,2021-08-07 12:45:10,819290
3,2,2,-4,-5,-4,-3,2,2021-08-07 12:45:10,819290
2,4,4,6,9,6,3,0,2021-08-07 12:45:10,819290
-5,-6,-7,-6,-7,-6,-3,-3,2021-08-07 12:45:10,819290
-1,-1,-2,4,10,4,3,1,2021-08-07 12:45:10,820291
0,2,2,2,2,3,2,-1,2021-08-07 12:45:10,820291
0,0,1,3,1,-1,0,0,2021-08-07 12:45:10,820291
-3,-4,-5,-12,-14,-9,-5,-3,2021-08-07 12:45:10,820291
-1,-3,0,7,7,3,1,0,2021-08-07 12:45:10,850328
0,0,-1,1,-1,0,-1,-1,2021-08-07 12:45:10,866329
-2,-2,-3,-4,-8,-5,-4,-2,2021-08-07 12:45:10,882328
0,0,-2,-5,-7,-6,-2,-2,2021-08-07 12:45:10,882328
0,1,2,2,7,4,1,0,2021-08-07 12:45:10,882328
1,-1,1,4,5,0,0,0,2021-08-07 12:45:10,882328
0,0,-1,-3,-8,-6,-2,1,2021-08-07 12:45:10,898329
-2,-1,-1,1,2,2,-1,0,2021-08-07 12:45:10,914329
-3,-2,-2,-6,-11,-6,-4,-3,2021-08-07 12:45:10,930329
-2,0,-1,-2,-1,0,1,0,2021-08-07 12:45:10,961330
0,-2,-2,-1,1,-1,-2,-1,2021-08-07 12:45:10,977330
1,1,3,4,3,1,-1,-1,2021-08-07 12:45:10,977330
0,-1,0,-1,-5,-2,0,0,2021-08-07 12:45:10,977330
-1,-2,1,-3,2,0,0,-2,2021-08-07 12:45:10,977330
1,1,1,2,4,1,0,0,2021-08-07 12:45:10,977330
0,0,1,0,2,3,1,-1,2021-08-07 12:45:10,977330
-3,-4,-5,-3,-4,-4,-5,-4,2021-08-07 12:45:10,977330
-1,-1,-2,-3,-7,-4,-2,-2,2021-08-07 12:45:10,977330
2,1,3,3,6,4,3,1,2021-08-07 12:45:10,978329
0,-1,-3,2,1,1,-1,-1,2021-08-07 12:45:10,978329
0,-3,-4,-8,-10,-5,-2,-2,2021-08-07 12:45:10,978329
-1,-2,-2,1,4,0,0,-1,2021-08-07 12:45:10,978329
-1,2,2,-4,-5,-1,-1,1,2021-08-07 12:45:10,978329
1,1,1,2,5,3,2,2,2021-08-07 12:45:10,978329
-4,-4,-3,-3,-5,-6,-1,-3,2021-08-07 12:45:10,978329
0,1,-1,1,-1,1,1,1,2021-08-07 12:45:10,978329
-4,-6,-2,1,-1,-3,-1,-3,2021-08-07 12:45:10,978329
2,5,2,-4,-4,-3,0,1,2021-08-07 12:45:10,978329
2,3,3,3,4,2,-1,-1,2021-08-07 12:45:10,993328
0,-1,-2,-3,-3,0,-1,-2,2021-08-07 12:45:11,008327
-1,-4,-2,4,13,5,2,-1,2021-08-07 12:45:11,008327
0,0,1,0,0,3,0,0,2021-08-07 12:45:11,008327
0,-1,-1,-4,-5,-5,-2,-1,2021-08-07 12:45:11,008327
0,-2,-1,-3,-5,-2,-1,-2,2021-08-07 12:45:11,008327
-2,-3,-2,-4,-7,-3,-2,-1,2021-08-07 12:45:11,008327
0,0,0,3,8,3,1,-2,2021-08-07 12:45:11,008327
-1,-1,-3,-6,-5,-1,-2,0,2021-08-07 12:45:11,024329
0,2,4,10,11,5,3,1,2021-08-07 12:45:11,024329
-1,0,-2,-3,-4,-3,-1,-1,2021-08-07 12:45:11,024329
-5,-6,-4,-5,-9,-8,-6,-3,2021-08-07 12:45:11,024329
1,4,2,1,1,5,1,1,2021-08-07 12:45:11,056329
-1,-1,-1,-1,0,-1,-1,1,2021-08-07 12:45:11,071843
2,2,1,0,1,2,1,0,2021-08-07 12:45:11,071843
-3,-5,-2,1,1,0,0,-2,2021-08-07 12:45:11,071843
-2,0,-1,-1,2,0,-1,-2,2021-08-07 12:45:11,071843
-1,-1,1,-2,-4,-2,-1,-1,2021-08-07 12:45:11,071843
1,2,0,1,1,-2,-1,0,2021-08-07 12:45:11,071843
0,1,0,-3,-2,0,1,0,2021-08-07 12:45:11,071843
-3,-3,-3,-7,-10,-6,-2,-1,2021-08-07 12:45:11,087844
-1,-2,-1,-2,3,2,0,-2,2021-08-07 12:45:11,103842
1,2,2,4,2,2,0,-1,2021-08-07 12:45:11,103842
1,0,0,5,5,3,1,0,2021-08-07 12:45:11,103842
-1,-1,-1,-3,-1,-1,-2,-1,2021-08-07 12:45:11,103842
-1,-4,-3,-6,-7,-5,-4,-2,2021-08-07 12:45:11,103842
-1,2,2,-3,-5,-3,-1,-1,2021-08-07 12:45:11,103842
1,3,2,2,3,1,0,0,2021-08-07 12:45:11,103842
0,-1,1,4,4,3,0,0,2021-08-07 12:45:11,135844
1,0,-3,0,0,0,-1,1,2021-08-07 12:45:11,135844
-3,-4,-4,-3,-4,-2,-3,-2,2021-08-07 12:45:11,135844
-2,-4,-2,-9,-21,-12,-6,-3,2021-08-07 12:45:11,135844
3,2,4,9,20,13,5,3,2021-08-07 12:45:11,135844
-1,0,0,1,3,2,1,1,2021-08-07 12:45:11,135844
2,2,0,-2,3,2,1,2,2021-08-07 12:45:11,151846
-2,-1,0,1,0,-1,-2,0,2021-08-07 12:45:11,151846
-3,-3,-2,-6,-11,-8,-4,-3,2021-08-07 12:45:11,167844
-1,1,1,3,-1,-3,-1,-1,2021-08-07 12:45:11,183845
-2,-3,-2,-8,-10,-8,-4,-2,2021-08-07 12:45:11,183845
0,0,-1,3,9,6,2,0,2021-08-07 12:45:11,199842
-1,-1,-1,0,-2,-2,-1,-2,2021-08-07 12:45:11,199842
0,0,0,-1,2,0,0,0,2021-08-07 12:45:11,199842
0,0,0,0,-3,-2,-1,1,2021-08-07 12:45:11,199842
-2,-3,-1,-3,-3,-2,-2,-2,2021-08-07 12:45:11,199842
-3,-3,-4,-4,-6,-4,-5,-1,2021-08-07 12:45:11,199842
0,2,0,1,-1,0,0,-1,2021-08-07 12:45:11,199842
0,-2,0,1,-1,0,0,0,2021-08-07 12:45:11,219843
-1,1,0,1,-2,-1,-1,-1,2021-08-07 12:45:11,219843
1,2,1,6,15,8,3,1,2021-08-07 12:45:11,220844
-2,-2,-3,-3,-2,-1,-1,-1,2021-08-07 12:45:11,220844
2,0,1,1,1,0,-1,-1,2021-08-07 12:45:11,231843
1,2,1,5,4,2,1,0,2021-08-07 12:45:11,247845
-1,-4,-5,-6,-10,-8,-3,-4,2021-08-07 12:45:11,263846
0,1,1,2,3,3,0,1,2021-08-07 12:45:11,279845
-2,0,0,1,2,1,-1,-1,2021-08-07 12:45:11,279845
-2,-2,-3,1,-1,-1,-3,-2,2021-08-07 12:45:11,279845
-1,0,0,0,-3,-3,-1,0,2021-08-07 12:45:11,279845
-2,-3,-5,-13,-17,-8,-6,-3,2021-08-07 12:45:11,279845
0,1,1,13,22,13,5,1,2021-08-07 12:45:11,280844
-6,-5,-5,-7,-8,-8,-5,-4,2021-08-07 12:45:11,280844
4,5,7,6,13,7,3,2,2021-08-07 12:45:11,280844
0,1,1,5,4,0,1,1,2021-08-07 12:45:11,280844
2,0,-1,0,-1,-1,-1,0,2021-08-07 12:45:11,280844
0,-2,-3,-5,-4,-3,-1,-1,2021-08-07 12:45:11,280844
-3,-4,-5,-3,-8,-5,-4,-4,2021-08-07 12:45:11,311843
0,-1,-1,-2,-1,-2,-1,0,2021-08-07 12:45:11,327842
-2,-1,0,-3,-4,-3,-1,-2,2021-08-07 12:45:11,357843
1,-1,-1,0,2,-1,-1,-1,2021-08-07 12:45:11,357843
-2,-1,-3,-8,-14,-8,-4,0,2021-08-07 12:45:11,357843
3,5,3,2,5,4,5,2,2021-08-07 12:45:11,357843
-1,-1,-4,-1,-3,-5,-2,-1,2021-08-07 12:45:11,373844
1,1,0,3,9,7,5,3,2021-08-07 12:45:11,373844
-5,-7,-7,-9,-6,-3,-4,-3,2021-08-07 12:45:11,373844
-6,-6,-4,0,1,-1,-2,-4,2021-08-07 12:45:11,373844
1,4,5,0,-3,0,-1,-2,2021-08-07 12:45:11,373844
-2,1,1,3,5,2,2,-3,2021-08-07 12:45:11,373844
1,2,3,-1,-5,-4,-3,-1,2021-08-07 12:45:11,373844
0,-2,-3,-1,-2,-3,-2,-1,2021-08-07 12:45:11,374844
-3,-5,-7,-11,-14,-9,-4,-4,2021-08-07 12:45:11,389844
2,1,1,1,6,6,1,3,2021-08-07 12:45:11,405844
1,-1,-1,6,8,2,2,0,2021-08-07 12:45:11,405844
-1,-1,1,-1,-4,-3,-2,0,2021-08-07 12:45:11,405844
-1,-2,-3,-2,-3,-3,-2,-1,2021-08-07 12:45:11,405844
0,-1,0,-2,-5,-5,-1,0,2021-08-07 12:45:11,405844
-2,0,-1,-1,-3,-5,-1,-1,2021-08-07 12:45:11,405844
-2,0,-2,-2,2,2,-1,0,2021-08-07 12:45:11,406845
0,0,0,2,1,2,0,0,2021-08-07 12:45:11,406845
-1,-1,-2,-2,0,0,-1,0,2021-08-07 12:45:11,406845
-1,-1,0,2,3,1,0,0,2021-08-07 12:45:11,436845
0,-3,-1,-2,-5,-2,-3,-2,2021-08-07 12:45:11,452842
-4,-6,-5,-3,-1,2,-1,-2,2021-08-07 12:45:11,468844
5,9,9,3,-1,0,0,4,2021-08-07 12:45:11,468844
-2,-3,-1,-3,-3,0,-1,-2,2021-08-07 12:45:11,468844
-1,-1,-1,-2,-2,0,-2,-1,2021-08-07 12:45:11,468844
-1,-1,-1,1,3,1,1,-1,2021-08-07 12:45:11,484844
-2,-5,-2,-3,-2,-2,-2,-3,2021-08-07 12:45:11,484844
0,2,-1,-3,-5,-1,1,0,2021-08-07 12:45:11,484844
4,3,6,6,9,5,2,2,2021-08-07 12:45:11,484844
-1,0,-2,-4,-4,-3,-3,0,2021-08-07 12:45:11,484844
-1,0,-2,-2,-3,-1,-2,-2,2021-08-07 12:45:11,484844
0,-1,1,1,5,6,-1,0,2021-08-07 12:45:11,485843
-2,-2,-3,-3,-3,-2,-1,1,2021-08-07 12:45:11,485843
1,1,0,3,6,2,0,0,2021-08-07 12:45:11,500845
-4,-5,-4,-4,-6,-4,-2,-2,2021-08-07 12:45:11,500845
0,-1,-2,-1,-6,-4,-2,0,2021-08-07 12:45:11,500845
-1,0,-2,-3,-6,-4,-1,-3,2021-08-07 12:45:11,500845
0,-1,0,0,0,0,-1,-1,2021-08-07 12:45:11,516844
-2,-4,-4,-3,-3,-2,-1,-1,2021-08-07 12:45:11,516844
-1,-1,0,-4,1,3,3,1,2021-08-07 12:45:11,532847
0,2,1,3,1,-1,1,0,2021-08-07 12:45:11,564843
1,0,-1,-5,-7,-5,-1,0,2021-08-07 12:45:11,564843
-1,-2,-1,-2,0,0,-2,-3,2021-08-07 12:45:11,564843
-1,-1,0,4,4,2,0,0,2021-08-07 12:45:11,564843
-1,-3,-1,-7,-6,-3,-3,-3,2021-08-07 12:45:11,564843
2,4,5,8,6,3,4,3,2021-08-07 12:45:11,565844
0,1,-1,1,-1,1,1,-1,2021-08-07 12:45:11,565844
0,-3,-4,4,11,2,-1,-1,2021-08-07 12:45:11,565844
-3,-3,-4,-2,-3,-2,-4,-2,2021-08-07 12:45:11,565844
-1,-2,-1,-2,-2,-2,-2,0,2021-08-07 12:45:11,565844
1,2,3,0,2,0,2,2,2021-08-07 12:45:11,565844
-3,-2,-3,-3,-7,-2,-3,-2,2021-08-07 12:45:11,596844
-1,0,0,2,0,-1,2,0,2021-08-07 12:45:11,612844
-2,-3,-3,-3,0,-1,-2,-1,2021-08-07 12:45:11,612844
-2,-5,-3,-4,-4,-3,-2,-3,2021-08-07 12:45:11,612844
1,0,2,-2,-1,-1,0,0,2021-08-07 12:45:11,612844
3,5,2,-1,-2,-3,1,1,2021-08-07 12:45:11,612844
-1,0,1,-1,3,2,-1,-1,2021-08-07 12:45:11,612844
1,3,1,-3,-2,-2,0,0,2021-08-07 12:45:11,613845
-4,-6,-6,-6,-7,-4,-4,-5,2021-08-07 12:45:11,643845
0,-3,0,2,6,4,1,-1,2021-08-07 12:45:11,643845
1,2,0,-2,-3,-3,-1,0,2021-08-07 12:45:11,643845
-1,1,-1,0,3,2,-1,-1,2021-08-07 12:45:11,643845
0,0,0,0,-1,-1,0,0,2021-08-07 12:45:11,643845
-5,-4,-4,-4,-6,-3,-3,-4,2021-08-07 12:45:11,643845
3,3,3,4,2,3,3,1,2021-08-07 12:45:11,643845
1,-2,2,1,4,1,0,0,2021-08-07 12:45:11,644844
-3,-3,-2,-7,-11,-6,-3,0,2021-08-07 12:45:11,675845
2,2,0,4,8,6,4,2,2021-08-07 12:45:11,677844
-3,-2,-2,-4,-7,-6,-3,-3,2021-08-07 12:45:11,677844
-3,-4,-4,-1,-6,-5,-1,-1,2021-08-07 12:45:11,677844
0,2,0,4,11,5,2,1,2021-08-07 12:45:11,691845
3,2,3,2,0,0,0,1,2021-08-07 12:45:11,691845
0,-2,-2,-1,-1,0,-1,-1,2021-08-07 12:45:11,691845
0,2,-1,1,0,-1,-2,-1,2021-08-07 12:45:11,691845
-1,-3,0,-4,-8,-5,-1,-3,2021-08-07 12:45:11,707845
-1,-3,-3,-5,-7,-5,-5,-2,2021-08-07 12:45:11,707845
-2,-3,-4,1,5,4,0,-1,2021-08-07 12:45:11,707845
3,7,9,12,13,8,3,4,2021-08-07 12:45:11,707845
-1,-2,-3,-2,-2,-2,-2,-2,2021-08-07 12:45:11,738843
2,5,3,2,0,2,1,1,2021-08-07 12:45:11,754846
-2,-6,-2,-3,-4,-4,-3,-4,2021-08-07 12:45:11,770842
-3,-3,-4,-4,-3,-4,-3,-2,2021-08-07 12:45:11,770842
0,-1,-2,-5,-6,-3,1,0,2021-08-07 12:45:11,770842
1,1,3,-4,-4,-2,0,1,2021-08-07 12:45:11,770842
-1,0,0,3,7,3,1,1,2021-08-07 12:45:11,770842
0,0,0,-2,-4,0,-1,-2,2021-08-07 12:45:11,770842
-1,3,2,1,3,0,0,0,2021-08-07 12:45:11,770842
-4,-5,-6,-6,-9,-7,-4,-3,2021-08-07 12:45:11,786844
-2,-1,-1,-2,-2,0,-2,0,2021-08-07 12:45:11,786844
-1,-2,0,1,0,1,-1,-1,2021-08-07 12:45:11,786844
0,-1,0,1,-2,-3,-1,0,2021-08-07 12:45:11,786844
-1,-2,-2,0,3,2,-1,-2,2021-08-07 12:45:11,786844
-1,1,0,-4,-8,-3,-4,0,2021-08-07 12:45:11,786844
-2,-1,-1,4,8,4,2,0,2021-08-07 12:45:11,786844
1,-2,-1,-3,-4,-2,-4,-2,2021-08-07 12:45:11,818844
0,1,1,-2,1,-1,-1,0,2021-08-07 12:45:11,818844
3,4,4,7,11,5,3,2,2021-08-07 12:45:11,818844
-2,-4,-3,-7,-8,-6,-3,-2,2021-08-07 12:45:11,818844
0,1,0,-1,1,1,0,-1,2021-08-07 12:45:11,818844
-4,-4,-2,-1,-3,-2,-2,-1,2021-08-07 12:45:11,819844
0,-4,-4,-5,-6,-2,-2,-1,2021-08-07 12:45:11,834842
3,4,5,3,2,2,2,2,2021-08-07 12:45:11,834842
-1,1,1,1,0,-1,-2,-2,2021-08-07 12:45:11,850844
-2,-4,-5,-4,-6,-4,-1,-1,2021-08-07 12:45:11,866845
-2,0,-1,0,4,2,1,-1,2021-08-07 12:45:11,866845
-1,-2,-2,-1,0,-2,-1,-1,2021-08-07 12:45:11,866845
-2,-4,-2,-1,-2,-1,-1,0,2021-08-07 12:45:11,866845
2,2,2,1,3,3,1,1,2021-08-07 12:45:11,866845
-3,-5,-3,-5,-6,-4,-2,-2,2021-08-07 12:45:11,866845
0,1,-1,2,2,2,1,0,2021-08-07 12:45:11,867843
0,-1,1,1,0,-1,0,-1,2021-08-07 12:45:11,898845
-2,-3,-2,-2,-1,0,-1,-2,2021-08-07 12:45:11,914843
0,2,1,2,4,2,2,0,2021-08-07 12:45:11,930843
-2,-6,-3,-5,-8,-6,-3,-2,2021-08-07 12:45:11,930843
2,3,3,4,3,5,1,2,2021-08-07 12:45:11,930843
1,-1,1,2,4,2,1,1,2021-08-07 12:45:11,930843
-2,-2,-2,-3,-4,-2,-3,-1,2021-08-07 12:45:11,930843
-3,-3,-5,-5,-4,-5,-1,-3,2021-08-07 12:45:11,930843
-2,-1,0,0,1,0,0,-3,2021-08-07 12:45:11,931845
0,0,0,3,3,2,0,1,2021-08-07 12:45:11,931845
2,2,3,1,-1,0,1,1,2021-08-07 12:45:11,931845
-1,-2,-3,-5,-5,-3,-3,-4,2021-08-07 12:45:11,931845
-1,-2,-2,-5,-4,-4,-1,-2,2021-08-07 12:45:11,946845
0,1,0,2,3,2,-2,0,2021-08-07 12:45:11,946845
0,-1,0,0,0,1,0,0,2021-08-07 12:45:11,946845
-3,-1,-2,-2,1,0,-1,0,2021-08-07 12:45:11,946845
-1,-1,-1,-2,-4,-3,0,-1,2021-08-07 12:45:11,978842
-1,1,-1,-4,-3,-2,0,-1,2021-08-07 12:45:11,978842
-2,-1,-1,2,6,1,1,-1,2021-08-07 12:45:11,978842
-2,-1,1,3,1,1,-1,0,2021-08-07 12:45:11,978842
-1,-1,-2,-2,-1,0,-2,-2,2021-08-07 12:45:11,994844
0,0,0,-1,-3,-1,-1,-1,2021-08-07 12:45:11,994844
-3,-2,-3,-6,-9,-6,-4,-3,2021-08-07 12:45:11,994844
2,0,3,3,3,3,2,1,2021-08-07 12:45:11,994844
-2,-1,-4,-2,-3,-3,-3,0,2021-08-07 12:45:12,026844
1,1,0,1,0,-1,0,0,2021-08-07 12:45:12,042844
1,1,0,1,7,4,3,0,2021-08-07 12:45:12,058845
-1,-3,-2,-7,-5,-5,-3,-3,2021-08-07 12:45:12,058845
-1,-2,-2,-2,-7,-5,-4,-1,2021-08-07 12:45:12,058845
-1,-2,-1,-3,0,-1,-1,-1,2021-08-07 12:45:12,058845
0,0,0,4,7,5,1,0,2021-08-07 12:45:12,058845
-1,0,-3,-3,-1,-2,-1,-2,2021-08-07 12:45:12,058845
0,0,2,6,6,3,3,0,2021-08-07 12:45:12,059844
0,0,-1,-1,1,2,0,-2,2021-08-07 12:45:12,059844
-2,-1,-4,-5,-13,-10,-4,-2,2021-08-07 12:45:12,059844
-1,-3,-3,-4,-5,-1,-4,-1,2021-08-07 12:45:12,059844
2,1,-1,-1,1,1,0,0,2021-08-07 12:45:12,059844
-1,-1,-2,-1,0,-2,-1,-2,2021-08-07 12:45:12,059844
3,4,6,4,8,5,2,5,2021-08-07 12:45:12,074844
-3,-2,-5,-4,-9,-7,-3,-2,2021-08-07 12:45:12,074844
3,1,2,0,3,2,2,3,2021-08-07 12:45:12,090843
0,-1,0,1,1,1,1,2,2021-08-07 12:45:12,106843
-2,-6,-6,-5,-2,-2,-1,-2,2021-08-07 12:45:12,122846
-1,0,0,0,-1,-1,-1,-2,2021-08-07 12:45:12,130844
-2,-1,1,0,-2,0,-1,-4,2021-08-07 12:45:12,130844
0,2,2,3,3,1,1,0,2021-08-07 12:45:12,131845
0,1,2,-4,-4,0,-2,-1,2021-08-07 12:45:12,131845
-2,-2,-2,3,7,1,-1,-2,2021-08-07 12:45:12,131845
-2,-3,-4,-2,0,-1,0,0,2021-08-07 12:45:12,131845
1,1,2,-4,-7,-3,-2,0,2021-08-07 12:45:12,131845
-1,-1,-1,0,-5,-4,-3,-2,2021-08-07 12:45:12,131845
2,-1,-1,-3,3,4,1,0,2021-08-07 12:45:12,131845
0,2,4,6,7,4,1,2,2021-08-07 12:45:12,154844
-1,-2,-4,-1,3,0,-1,-1,2021-08-07 12:45:12,170842
-1,-1,-3,0,-3,-3,0,0,2021-08-07 12:45:12,170842
-3,-1,-3,-3,-5,-1,-3,-2,2021-08-07 12:45:12,170842
0,-2,-3,-6,-7,-7,-3,-1,2021-08-07 12:45:12,170842
0,-1,-1,-1,-1,0,1,1,2021-08-07 12:45:12,170842
-1,-1,1,-3,-7,-4,-2,-2,2021-08-07 12:45:12,171844
0,-4,-1,-1,1,0,-2,-1,2021-08-07 12:45:12,171844
0,1,1,4,10,6,3,0,2021-08-07 12:45:12,202844
-7,-10,-9,-7,-4,-3,-4,-4,2021-08-07 12:45:12,217877
1,4,5,6,7,3,1,2,2021-08-07 12:45:12,217877
2,5,5,3,0,-2,1,3,2021-08-07 12:45:12,217877
1,1,1,-2,-3,-1,0,-2,2021-08-07 12:45:12,217877
-1,-1,-1,3,-1,-3,-3,-2,2021-08-07 12:45:12,217877
-3,-2,-2,-1,-3,-2,-2,-1,2021-08-07 12:45:12,217877
-3,-6,-3,-6,-8,-4,-1,-2,2021-08-07 12:45:12,217877
-3,-4,-4,-5,-3,-3,-4,-2,2021-08-07 12:45:12,233878
3,4,6,1,2,2,1,1,2021-08-07 12:45:12,233878
-1,-3,-4,-2,2,4,1,-1,2021-08-07 12:45:12,233878
3,4,4,6,7,3,3,1,2021-08-07 12:45:12,233878
-1,-2,-2,-2,-5,-1,-3,-2,2021-08-07 12:45:12,249875
-2,-4,-2,-1,1,0,0,-1,2021-08-07 12:45:12,249875
-2,-4,-2,-4,-5,-3,-3,-2,2021-08-07 12:45:12,249875
-1,3,0,-2,-5,-2,-1,1,2021-08-07 12:45:12,249875
0,-1,-2,0,3,3,0,0,2021-08-07 12:45:12,280878
-2,-2,-2,-4,-10,-6,-4,-1,2021-08-07 12:45:12,296880
1,2,1,2,1,2,1,0,2021-08-07 12:45:12,296880
-3,-3,-1,5,4,-1,-1,-2,2021-08-07 12:45:12,296880
-3,-6,-5,-10,-13,-10,-6,-3,2021-08-07 12:45:12,296880
2,2,4,8,8,4,3,1,2021-08-07 12:45:12,296880
1,2,3,2,8,7,5,2,2021-08-07 12:45:12,297877
0,2,2,4,3,2,1,0,2021-08-07 12:45:12,297877
0,2,2,4,1,0,0,2,2021-08-07 12:45:12,297877
-2,-3,-3,-4,-7,-7,-4,-3,2021-08-07 12:45:12,297877
-1,-3,-2,-4,-4,-3,-1,0,2021-08-07 12:45:12,312878
0,-3,-3,-3,0,-1,-2,0,2021-08-07 12:45:12,312878
-1,-2,0,-2,-1,0,0,-2,2021-08-07 12:45:12,328880
0,-1,-2,-2,-2,0,0,-1,2021-08-07 12:45:12,328880
-2,-4,-4,-2,-2,0,-2,-2,2021-08-07 12:45:12,344878
0,2,0,-1,0,-1,1,2,2021-08-07 12:45:12,344878
-1,-1,-2,-1,-1,0,1,-1,2021-08-07 12:45:12,344878
0,2,0,4,8,3,1,1,2021-08-07 12:45:12,344878
-2,-2,-1,-2,-5,-2,-3,-4,2021-08-07 12:45:12,360877
-2,-5,-4,-3,-2,-5,-2,-2,2021-08-07 12:45:12,376877
3,3,3,0,4,5,3,1,2021-08-07 12:45:12,392876
0,-1,0,2,2,1,0,-1,2021-08-07 12:45:12,408878
-2,0,0,8,9,2,1,0,2021-08-07 12:45:12,408878
-2,-2,-1,-3,-4,-1,-2,-2,2021-08-07 12:45:12,408878
0,1,-1,-2,-4,-4,-2,0,2021-08-07 12:45:12,408878
-2,-2,-4,-5,-9,-5,-1,-1,2021-08-07 12:45:12,408878
-4,-6,-4,-1,3,0,0,-1,2021-08-07 12:45:12,408878
1,4,4,1,1,2,2,2,2021-08-07 12:45:12,409878
-3,-1,-4,0,2,-1,2,-1,2021-08-07 12:45:12,409878
-1,-1,0,0,0,-1,-3,-2,2021-08-07 12:45:12,409878
0,-4,-3,-7,-13,-8,-5,0,2021-08-07 12:45:12,423877
-2,-1,0,-1,4,2,0,-1,2021-08-07 12:45:12,424117
1,2,1,-1,0,-1,-3,3,2021-08-07 12:45:12,424117
-1,1,0,0,4,2,1,-1,2021-08-07 12:45:12,424117
0,3,0,-2,0,1,-1,-2,2021-08-07 12:45:12,439396
-1,-3,-2,-1,-9,-5,-3,-1,2021-08-07 12:45:12,439396
-2,0,-1,1,3,2,0,0,2021-08-07 12:45:12,455395
0,0,-1,-2,4,2,2,1,2021-08-07 12:45:12,455395
-1,-1,-2,-3,-2,-1,-1,-1,2021-08-07 12:45:12,455395
-4,-6,-7,-7,-5,-4,-3,-3,2021-08-07 12:45:12,455395
0,2,1,-3,-4,-2,-1,0,2021-08-07 12:45:12,471395
1,-1,2,2,2,2,0,0,2021-08-07 12:45:12,487395
3,1,-1,1,5,2,0,1,2021-08-07 12:45:12,503395
-3,-2,-3,-5,-5,-3,-2,-1,2021-08-07 12:45:12,503395
-1,-2,-1,-1,-1,-2,-2,-2,2021-08-07 12:45:12,503395
-1,-1,0,-2,-1,2,0,-1,2021-08-07 12:45:12,503395
0,0,-2,0,-5,-5,-1,-2,2021-08-07 12:45:12,503395
-1,-3,-2,0,2,0,-3,-2,2021-08-07 12:45:12,503395
1,1,1,3,5,1,2,2,2021-08-07 12:45:12,503395
-1,-2,-2,-3,-3,-3,-2,-2,2021-08-07 12:45:12,504396
-1,-1,0,-4,-7,-2,-1,1,2021-08-07 12:45:12,504396
-2,-2,-3,-1,-3,0,-1,-2,2021-08-07 12:45:12,504396
-2,0,1,4,9,5,2,0,2021-08-07 12:45:12,535396
1,1,1,0,-2,-4,-1,1,2021-08-07 12:45:12,551395
1,1,2,-4,-4,0,0,0,2021-08-07 12:45:12,551395
-1,1,0,4,6,5,1,-2,2021-08-07 12:45:12,551395
-2,-5,-3,-1,-3,-2,-2,-3,2021-08-07 12:45:12,551395
0,-1,0,-2,-2,0,-1,0,2021-08-07 12:45:12,551395
-1,0,-1,-6,-5,-7,-3,-1,2021-08-07 12:45:12,551395
0,-2,0,2,3,1,1,1,2021-08-07 12:45:12,551395
1,3,3,4,1,0,0,0,2021-08-07 12:45:12,566395
-3,-2,-6,-4,-2,0,-2,0,2021-08-07 12:45:12,566395
2,2,3,-1,-1,0,1,0,2021-08-07 12:45:12,566395
0,-1,-1,-2,-2,-3,-1,0,2021-08-07 12:45:12,566395
0,-4,-4,-1,1,-1,-1,0,2021-08-07 12:45:12,598394
0,0,0,1,1,-2,-1,-1,2021-08-07 12:45:12,614395
-3,-2,-3,1,4,2,2,0,2021-08-07 12:45:12,614395
0,-3,-2,-2,-1,-2,-2,-2,2021-08-07 12:45:12,614395
0,0,-3,-2,-3,-3,-3,0,2021-08-07 12:45:12,614395
0,-2,-1,-5,-3,-2,-2,-2,2021-08-07 12:45:12,614395
-1,0,-2,3,3,1,1,0,2021-08-07 12:45:12,614395
-1,1,0,0,-1,0,0,0,2021-08-07 12:45:12,614395
0,1,0,0,-2,0,0,1,2021-08-07 12:45:12,630395
-1,1,2,5,4,3,0,-1,2021-08-07 12:45:12,646396
-3,-3,-3,-2,-2,-3,-2,-3,2021-08-07 12:45:12,646396
-1,-3,-4,-5,-7,-5,-2,-1,2021-08-07 12:45:12,646396
0,0,1,2,2,2,-1,-1,2021-08-07 12:45:12,646396
-2,-1,-2,2,6,2,1,0,2021-08-07 12:45:12,646396
-1,0,2,-1,-4,-3,-2,-1,2021-08-07 12:45:12,646396
2,3,3,7,7,4,3,1,2021-08-07 12:45:12,646396
-2,-2,-2,-6,-6,-5,-3,-2,2021-08-07 12:45:12,677394
-1,-1,-2,1,0,-1,-1,-1,2021-08-07 12:45:12,693393
-1,-2,-3,0,3,2,0,1,2021-08-07 12:45:12,709398
0,-1,0,-2,0,-2,1,-1,2021-08-07 12:45:12,709398
2,0,1,3,-2,-3,1,-1,2021-08-07 12:45:12,709398
1,3,3,2,7,5,2,0,2021-08-07 12:45:12,709398
-4,-3,2,0,-1,-5,-3,-4,2021-08-07 12:45:12,709398
-2,-2,-9,-7,-7,-4,-4,-1,2021-08-07 12:45:12,709398
-4,-5,-8,-24,-13,-6,-3,-1,2021-08-07 12:45:12,709398
2,2,6,7,9,4,1,1,2021-08-07 12:45:12,710396
1,2,2,-1,3,2,2,0,2021-08-07 12:45:12,710396
-1,-1,2,3,3,2,2,1,2021-08-07 12:45:12,710396
-1,-2,1,7,-2,-6,-4,-2,2021-08-07 12:45:12,741397
0,-2,-6,-8,-7,-3,-2,0,2021-08-07 12:45:12,741397
-1,-2,1,3,0,-1,0,-1,2021-08-07 12:45:12,757393
-1,-2,0,7,2,0,0,-2,2021-08-07 12:45:12,757393
3,3,3,5,4,4,3,2,2021-08-07 12:45:12,757393
-2,-4,-4,-2,-3,-3,-2,-2,2021-08-07 12:45:12,757393
2,4,2,7,4,2,0,1,2021-08-07 12:45:12,757393
1,0,1,1,2,3,0,1,2021-08-07 12:45:12,758396
-3,-3,-3,-3,1,1,0,-2,2021-08-07 12:45:12,773395
-1,0,-4,-2,-4,-2,-1,-1,2021-08-07 12:45:12,789395
-1,-3,-3,-5,-5,-6,-3,-2,2021-08-07 12:45:12,789395
-2,-2,-4,-4,0,-1,-2,-1,2021-08-07 12:45:12,789395
-1,-2,1,-1,-1,0,1,-2,2021-08-07 12:45:12,789395
1,1,4,5,-1,0,0,1,2021-08-07 12:45:12,789395
0,-1,-5,-6,-5,-1,-1,1,2021-08-07 12:45:12,789395
-1,-2,1,-1,1,-1,-1,-3,2021-08-07 12:45:12,790395
-3,-3,-5,-2,-1,0,-1,-3,2021-08-07 12:45:12,820395
2,3,0,-4,-5,-4,1,0,2021-08-07 12:45:12,836395
-4,-3,-4,-10,-13,-6,-5,-4,2021-08-07 12:45:12,836395
2,2,3,4,6,6,2,0,2021-08-07 12:45:12,836395
1,2,0,5,5,1,0,1,2021-08-07 12:45:12,836395
-4,-4,-3,-7,-6,-3,-3,-3,2021-08-07 12:45:12,836395
-2,0,-1,2,0,-1,-1,-2,2021-08-07 12:45:12,836395
-1,-2,-4,-7,-11,-7,-4,-1,2021-08-07 12:45:12,836395
0,0,0,-5,-3,-2,1,2,2021-08-07 12:45:12,852395
-1,-2,-4,-4,-4,-2,-2,0,2021-08-07 12:45:12,852395
1,0,-1,0,1,1,1,1,2021-08-07 12:45:12,852395
-5,-6,-7,-4,-3,-1,-1,-3,2021-08-07 12:45:12,852395
1,0,1,5,6,2,1,-2,2021-08-07 12:45:12,867396
-1,-1,1,-1,0,-1,-2,-1,2021-08-07 12:45:12,883397
-3,-3,-3,-3,-1,0,-1,-2,2021-08-07 12:45:12,899395
2,4,6,1,1,0,-1,0,2021-08-07 12:45:12,899395
2,2,1,-2,-4,-1,-1,0,2021-08-07 12:45:12,899395
2,2,2,5,1,1,1,0,2021-08-07 12:45:12,899395
-1,-3,-2,-5,-4,-3,-3,-2,2021-08-07 12:45:12,899395
-1,-1,-1,-3,1,0,0,0,2021-08-07 12:45:12,900396
-3,0,-2,0,2,1,0,-1,2021-08-07 12:45:12,915395
0,-1,1,5,6,2,1,0,2021-08-07 12:45:12,931394
0,-1,-1,-1,1,1,0,0,2021-08-07 12:45:12,947395
0,2,-1,-7,-9,-4,-2,0,2021-08-07 12:45:12,947395
0,0,2,3,7,3,0,1,2021-08-07 12:45:12,947395
-3,-2,-5,-4,-4,-1,-1,0,2021-08-07 12:45:12,947395
-3,-3,-2,-3,-5,-3,-4,-1,2021-08-07 12:45:12,962395
0,-2,1,1,0,-4,-1,-1,2021-08-07 12:45:12,962395
1,1,-1,-3,-7,-2,-2,-3,2021-08-07 12:45:12,962395
1,0,0,0,1,0,0,-1,2021-08-07 12:45:12,962395
1,0,1,1,4,1,1,0,2021-08-07 12:45:12,962395
-1,1,0,-1,-6,-2,-1,1,2021-08-07 12:45:12,962395
-5,-3,-5,-4,-2,0,-3,-2,2021-08-07 12:45:12,978396
0,-1,-1,-1,-3,-2,0,-1,2021-08-07 12:45:12,994395
-1,-3,0,2,1,0,0,0,2021-08-07 12:45:13,002395
2,0,1,1,6,2,0,1,2021-08-07 12:45:13,003397
-1,-2,-1,0,-1,-3,0,0,2021-08-07 12:45:13,003397
-1,0,1,1,3,2,-1,-1,2021-08-07 12:45:13,003397
-2,0,1,-1,0,-1,-2,0,2021-08-07 12:45:13,003397
-1,-3,-3,-2,-4,-3,-1,-1,2021-08-07 12:45:13,003397
0,-4,-3,-4,-7,-6,-4,-1,2021-08-07 12:45:13,010394
-1,-2,-1,-2,2,2,0,0,2021-08-07 12:45:13,026396
2,3,2,0,0,0,2,0,2021-08-07 12:45:13,026396
-2,-3,-2,-2,-1,0,0,-2,2021-08-07 12:45:13,026396
0,-1,-1,2,5,1,0,-1,2021-08-07 12:45:13,042396
-2,-1,-2,-5,-8,-5,-1,0,2021-08-07 12:45:13,058398
-1,-3,-1,1,6,3,0,-1,2021-08-07 12:45:13,058398
1,3,2,0,-2,-1,1,2,2021-08-07 12:45:13,058398
1,2,7,11,6,4,3,2,2021-08-07 12:45:13,058398
2,4,4,6,6,3,2,0,2021-08-07 12:45:13,058398
-3,-4,-4,-11,-7,-4,-4,-4,2021-08-07 12:45:13,058398
2,1,-2,-3,2,0,1,0,2021-08-07 12:45:13,059396
-2,-2,-3,-2,-1,-2,-3,-1,2021-08-07 12:45:13,074395
-2,-3,-1,-2,-6,-5,-2,-1,2021-08-07 12:45:13,074395
2,0,0,4,-1,-1,-3,1,2021-08-07 12:45:13,074395
-2,-3,-4,-6,-6,-4,-2,-2,2021-08-07 12:45:13,074395
-3,-3,-5,-11,-2,1,-2,-2,2021-08-07 12:45:13,106394
1,1,1,6,7,3,1,-1,2021-08-07 12:45:13,106394
1,3,1,3,4,3,4,2,2021-08-07 12:45:13,106394
-2,-1,0,0,-5,-2,-1,-1,2021-08-07 12:45:13,106394
1,1,0,3,5,3,1,1,2021-08-07 12:45:13,106394
1,-2,-1,-4,-1,-1,-2,0,2021-08-07 12:45:13,106394
0,-1,-2,-1,-2,-2,0,0,2021-08-07 12:45:13,137394
-2,-2,-2,-1,-3,-4,-4,-3,2021-08-07 12:45:13,137394
0,-3,-3,-5,-7,-3,-2,0,2021-08-07 12:45:13,137394
2,2,1,1,4,3,2,1,2021-08-07 12:45:13,137394
-2,-1,-1,2,-1,-4,-1,0,2021-08-07 12:45:13,137394
-1,-4,-3,-3,-2,-1,-2,-1,2021-08-07 12:45:13,137394
0,-1,2,6,7,4,2,-2,2021-08-07 12:45:13,153395
-3,-4,-3,1,3,0,-2,-2,2021-08-07 12:45:13,153395
2,3,2,-4,4,7,3,1,2021-08-07 12:45:13,153395
-1,-2,1,0,0,-1,0,-3,2021-08-07 12:45:13,153395
-2,-3,-4,-7,-11,-8,-6,-4,2021-08-07 12:45:13,168399
-2,-2,0,-1,-3,-3,-1,0,2021-08-07 12:45:13,168399
0,-2,0,1,-1,0,1,0,2021-08-07 12:45:13,184394
-1,-2,0,1,8,4,-1,0,2021-08-07 12:45:13,184394
3,2,3,5,4,0,2,2,2021-08-07 12:45:13,184394
-2,-1,-4,-2,-4,-4,-2,0,2021-08-07 12:45:13,184394
-4,-3,-4,-4,-12,-6,-4,-2,2021-08-07 12:45:13,200394
2,2,0,0,3,3,1,1,2021-08-07 12:45:13,200394
0,1,2,2,1,0,0,0,2021-08-07 12:45:13,216393
0,-1,0,-3,2,1,0,-1,2021-08-07 12:45:13,216393
2,1,2,4,5,1,1,-1,2021-08-07 12:45:13,216393
-2,-4,-5,-3,-6,-3,-2,-2,2021-08-07 12:45:13,216393
1,3,1,-3,-6,-4,-2,1,2021-08-07 12:45:13,231396
1,2,0,-1,-3,-1,1,1,2021-08-07 12:45:13,231396
0,1,1,4,4,1,-1,1,2021-08-07 12:45:13,231396
0,0,2,2,3,3,-1,1,2021-08-07 12:45:13,231396
-2,-4,-6,-4,-5,-2,-1,-1,2021-08-07 12:45:13,263396
-2,-1,-3,-5,-8,-5,-3,-1,2021-08-07 12:45:13,263396
-2,-2,-3,-2,0,-2,-3,-3,2021-08-07 12:45:13,263396
-1,-1,0,0,4,3,1,-1,2021-08-07 12:45:13,263396
-1,0,1,3,2,2,0,1,2021-08-07 12:45:13,279396
-2,-2,-3,-2,-3,-1,0,-3,2021-08-07 12:45:13,279396
-3,-3,-3,-2,-1,-2,0,-3,2021-08-07 12:45:13,279396
-1,-1,-2,-5,-3,-3,-2,-2,2021-08-07 12:45:13,279396
-1,0,-4,-5,-5,-3,-1,-2,2021-08-07 12:45:13,295395
2,1,3,-3,-2,0,-1,2,2021-08-07 12:45:13,311395
1,2,3,5,2,1,-1,1,2021-08-07 12:45:13,327395
0,1,-1,1,0,0,-1,1,2021-08-07 12:45:13,327395
0,-1,-1,-2,2,-2,2,-2,2021-08-07 12:45:13,327395
-3,-4,-2,2,1,-1,-2,-2,2021-08-07 12:45:13,327395
-1,-2,-4,-8,-3,-2,-2,-2,2021-08-07 12:45:13,327395
2,2,-1,-3,1,0,1,0,2021-08-07 12:45:13,327395
0,-1,-2,-4,0,0,-1,0,2021-08-07 12:45:13,328396
0,1,0,2,1,1,0,-1,2021-08-07 12:45:13,328396
-1,-1,-1,1,-1,-1,0,-2,2021-08-07 12:45:13,343395
-1,1,3,2,1,0,0,0,2021-08-07 12:45:13,343395
-2,-1,-1,-1,-1,-2,0,-1,2021-08-07 12:45:13,343395
-2,-3,-4,-3,-2,-3,-2,-1,2021-08-07 12:45:13,343395
0,2,3,3,3,3,0,1,2021-08-07 12:45:13,359395
0,0,-2,-2,-3,-2,-1,-3,2021-08-07 12:45:13,359395
0,0,1,-1,-3,-1,0,0,2021-08-07 12:45:13,375448
-1,1,1,1,1,0,1,-1,2021-08-07 12:45:13,391445
0,-1,-3,-4,2,1,0,-1,2021-08-07 12:45:13,407448
-1,-1,-1,1,-3,0,0,-1,2021-08-07 12:45:13,407448
-1,-3,-4,-3,-5,-2,-3,-1,2021-08-07 12:45:13,407448
0,0,1,4,4,2,0,-2,2021-08-07 12:45:13,407448
-1,-1,-2,-4,-7,-4,-2,-2,2021-08-07 12:45:13,407448
0,0,0,-1,0,0,0,-1,2021-08-07 12:45:13,407448
-1,0,1,-1,-1,-2,-2,1,2021-08-07 12:45:13,407448
0,-1,-1,-3,-2,-1,-2,-2,2021-08-07 12:45:13,407448
0,-1,-1,2,1,0,0,-1,2021-08-07 12:45:13,423448
-1,-2,-2,-3,-4,-3,-1,-1,2021-08-07 12:45:13,423448
2,5,5,3,1,3,2,3,2021-08-07 12:45:13,439447
1,4,2,0,3,1,2,2,2021-08-07 12:45:13,439447
-4,-6,-4,-8,-8,-5,-4,-3,2021-08-07 12:45:13,439447
0,-1,0,5,7,3,3,0,2021-08-07 12:45:13,439447
1,0,0,2,2,3,-1,1,2021-08-07 12:45:13,455447
0,1,-1,-2,1,-1,0,-1,2021-08-07 12:45:13,455447
-3,-3,-4,-5,-7,-6,-2,-1,2021-08-07 12:45:13,455447
-2,-4,-2,-2,-4,-1,-2,-1,2021-08-07 12:45:13,455447
0,0,0,2,5,4,0,-1,2021-08-07 12:45:13,487447
-3,-5,-6,-7,-10,-5,-4,-3,2021-08-07 12:45:13,487447
0,-1,1,5,4,2,0,0,2021-08-07 12:45:13,487447
-1,-1,0,-4,-7,-4,-1,0,2021-08-07 12:45:13,487447
-1,2,2,10,13,5,3,0,2021-08-07 12:45:13,487447
-1,-2,-1,0,3,3,1,0,2021-08-07 12:45:13,487447
-3,-2,-3,-5,-6,-3,-2,-3,2021-08-07 12:45:13,487447
1,0,-1,1,-2,-2,-1,1,2021-08-07 12:45:13,487447
-1,-2,-3,-5,-10,-5,-2,-2,2021-08-07 12:45:13,518448
-2,-4,-4,-5,-2,-3,-2,-2,2021-08-07 12:45:13,534447
0,1,1,4,10,5,0,0,2021-08-07 12:45:13,550446
-1,2,2,-1,-1,-1,-3,-2,2021-08-07 12:45:13,566448
0,-1,-3,-8,-6,-5,-2,-1,2021-08-07 12:45:13,566448
1,2,4,6,8,5,4,2,2021-08-07 12:45:13,582449
0,-1,1,-4,-4,-1,0,-2,2021-08-07 12:45:13,582449
-3,-2,-2,-1,-1,-3,-2,-1,2021-08-07 12:45:13,582449
-2,-4,-3,-1,-3,0,-1,-2,2021-08-07 12:45:13,582449
0,-1,0,1,-3,-2,0,-1,2021-08-07 12:45:13,582449
0,-1,-1,1,-2,-2,-2,0,2021-08-07 12:45:13,582449
-1,-1,-1,1,4,1,1,-2,2021-08-07 12:45:13,582449
2,2,1,-2,-4,-1,-1,0,2021-08-07 12:45:13,583449
-1,-3,-4,-3,-5,-3,-4,-1,2021-08-07 12:45:13,583449
5,6,9,9,8,5,5,3,2021-08-07 12:45:13,583449
1,0,-1,1,3,0,1,-2,2021-08-07 12:45:13,598448
1,0,1,2,2,1,0,-1,2021-08-07 12:45:13,614446
1,-1,0,0,3,3,0,1,2021-08-07 12:45:13,614446
-2,-5,-4,-5,-3,-2,-2,0,2021-08-07 12:45:13,614446
2,1,2,0,-1,5,11,6,2021-08-07 12:45:13,614446
4,1,2,1,3,6,10,6,2021-08-07 12:45:13,614446
1,2,3,4,4,0,-8,-4,2021-08-07 12:45:13,614446
-23,-17,-14,-11,-16,-26,-31,-28,2021-08-07 12:45:13,645449
3,2,0,-1,-1,2,2,3,2021-08-07 12:45:13,661448
3,2,2,5,5,7,8,6,2021-08-07 12:45:13,677448
-6,-2,-2,-4,-5,-9,-12,-10,2021-08-07 12:45:13,693447
-7,-5,-6,-6,-6,-10,-12,-10,2021-08-07 12:45:13,725448
-1,-1,1,-1,-2,-1,-4,0,2021-08-07 12:45:13,741449
0,-2,2,-2,-3,0,3,1,2021-08-07 12:45:13,757447
5,3,0,0,-1,3,7,7,2021-08-07 12:45:13,757447
8,5,-2,3,2,6,8,7,2021-08-07 12:45:13,757447
-1,1,-1,-4,-7,-3,-2,-2,2021-08-07 12:45:13,757447
1,0,-1,-1,3,1,0,2,2021-08-07 12:45:13,757447
-1,-4,0,-4,-3,2,2,-1,2021-08-07 12:45:13,757447
0,-5,0,-3,8,4,5,2,2021-08-07 12:45:13,773447
6,8,7,4,-4,1,2,4,2021-08-07 12:45:13,773447
0,3,6,14,17,6,0,-2,2021-08-07 12:45:13,773447
-7,-7,-7,-9,-13,-13,-7,-7,2021-08-07 12:45:13,773447
3,4,-2,-2,-3,0,3,5,2021-08-07 12:45:13,773447
-5,-5,-5,-5,-2,-4,-4,-4,2021-08-07 12:45:13,773447
-6,-6,-7,-12,-16,-14,-12,-9,2021-08-07 12:45:13,774449
-1,0,-2,1,3,1,0,1,2021-08-07 12:45:13,789448
6,5,5,3,-1,4,8,8,2021-08-07 12:45:13,805449
-4,-4,-3,-3,-2,-3,-5,-5,2021-08-07 12:45:13,821447
-4,-3,-3,-5,-4,-4,-4,-4,2021-08-07 12:45:13,837448
2,0,-1,4,6,2,4,2,2021-08-07 12:45:13,853449
1,-1,-1,-3,2,4,2,2,2021-08-07 12:45:13,853449
-1,1,0,0,3,1,-1,-2,2021-08-07 12:45:13,853449
2,5,4,0,-7,-5,-2,1,2021-08-07 12:45:13,853449
3,2,1,3,9,9,7,4,2021-08-07 12:45:13,853449
1,1,-1,3,2,2,1,0,2021-08-07 12:45:13,853449
-4,-5,-5,2,4,0,-2,-2,2021-08-07 12:45:13,854448
1,3,0,1,1,1,0,1,2021-08-07 12:45:13,854448
-1,1,1,-6,-9,-6,-3,-2,2021-08-07 12:45:13,854448
-1,-3,0,-5,-10,-3,-2,0,2021-08-07 12:45:13,854448
1,-2,-3,2,13,7,4,1,2021-08-07 12:45:13,854448
0,0,1,1,5,1,-1,0,2021-08-07 12:45:13,854448
-1,-3,-2,-3,-7,-4,1,2,2021-08-07 12:45:13,854448
-1,-1,1,-4,-3,0,2,-1,2021-08-07 12:45:13,855448
-2,-4,-4,-2,-4,-4,-3,-3,2021-08-07 12:45:13,855448
-5,-5,-4,-4,-2,-3,-5,-4,2021-08-07 12:45:13,855448
2,4,5,6,8,7,4,2,2021-08-07 12:45:13,855448
-1,-3,-4,-6,-7,-5,-2,-1,2021-08-07 12:45:13,869446
2,3,4,2,5,5,1,3,2021-08-07 12:45:13,869446
-1,-2,-4,-3,-3,-3,-2,-2,2021-08-07 12:45:13,869446
-4,-4,-4,-5,-7,-3,-4,-4,2021-08-07 12:45:13,869446
1,1,-1,3,2,1,1,0,2021-08-07 12:45:13,869446
-2,-2,-3,-5,-8,-7,-4,-3,2021-08-07 12:45:13,869446
0,1,0,-2,-2,-1,0,1,2021-08-07 12:45:13,869446
0,-1,1,3,6,3,1,1,2021-08-07 12:45:13,869446
2,1,1,-1,-4,0,-3,-1,2021-08-07 12:45:13,869446
-4,-5,-7,-3,-4,-2,-4,-4,2021-08-07 12:45:13,870447
-4,-5,-4,0,6,4,0,-1,2021-08-07 12:45:13,870447
1,3,5,-1,-3,-4,-1,1,2021-08-07 12:45:13,870447
1,3,2,-3,-6,-2,-1,2,2021-08-07 12:45:13,900448
3,3,5,15,28,15,8,4,2021-08-07 12:45:13,913448
-3,-3,-6,-7,-8,-8,-5,-3,2021-08-07 12:45:13,913448
-1,-2,-4,-7,-9,-6,-2,-1,2021-08-07 12:45:13,913448
-2,0,0,5,16,8,3,1,2021-08-07 12:45:13,913448
-1,0,0,-5,-12,-8,-4,-1,2021-08-07 12:45:13,913448
0,0,0,1,2,2,0,-1,2021-08-07 12:45:13,914448
-1,-3,-3,-3,-1,-4,-3,-2,2021-08-07 12:45:13,914448
-4,-4,-4,-6,-9,-5,-2,-3,2021-08-07 12:45:13,914448
2,1,2,7,5,2,3,1,2021-08-07 12:45:13,914448
-2,-3,-4,1,3,2,0,-1,2021-08-07 12:45:13,932447
3,8,8,3,0,1,2,2,2021-08-07 12:45:13,932447
0,-3,-1,-1,-3,-2,-3,0,2021-08-07 12:45:13,948446
-3,-4,-5,-13,-14,-9,-7,-3,2021-08-07 12:45:13,948446
1,2,2,4,4,4,2,0,2021-08-07 12:45:13,964448
-3,-4,-6,-3,-2,-1,-1,-1,2021-08-07 12:45:13,964448
0,0,0,6,5,0,0,0,2021-08-07 12:45:13,964448
-1,0,-1,-5,-3,-2,-1,0,2021-08-07 12:45:13,964448
2,2,0,0,-1,2,2,2,2021-08-07 12:45:13,980447
2,3,4,9,17,9,2,3,2021-08-07 12:45:13,980447
-2,-3,-4,-4,-2,-3,-1,-3,2021-08-07 12:45:13,980447
-2,-2,-4,-8,-14,-10,-6,-1,2021-08-07 12:45:13,980447
-3,-2,-1,-5,-10,-6,-3,-2,2021-08-07 12:45:13,996447
-2,-3,-3,-3,0,0,-2,-1,2021-08-07 12:45:14,012448
4,4,3,4,4,2,1,1,2021-08-07 12:45:14,028447
-1,-1,-1,-3,-6,-4,-2,-2,2021-08-07 12:45:14,028447
-1,-3,-3,-3,-4,-1,-1,-1,2021-08-07 12:45:14,028447
-3,-3,-3,-7,-8,-4,-2,-2,2021-08-07 12:45:14,028447
2,2,4,9,19,11,5,1,2021-08-07 12:45:14,028447
1,2,0,0,1,1,2,1,2021-08-07 12:45:14,029448
-3,-3,-5,-3,-4,-5,-2,-2,2021-08-07 12:45:14,044447
-1,0,2,-4,-11,-8,-5,-1,2021-08-07 12:45:14,060449
-1,0,-1,1,12,10,5,1,2021-08-07 12:45:14,060449
-4,-3,-3,3,-4,-5,-3,-3,2021-08-07 12:45:14,060449
3,1,2,-5,-6,-1,0,3,2021-08-07 12:45:14,060449
0,2,0,3,7,1,0,0,2021-08-07 12:45:14,060449
-2,0,-3,-2,-2,1,-1,0,2021-08-07 12:45:14,060449
-2,-2,-1,-1,3,4,1,-3,2021-08-07 12:45:14,060449
-2,-3,-2,-8,-16,-9,-6,-4,2021-08-07 12:45:14,076447
0,0,-2,-7,-16,-7,-3,-2,2021-08-07 12:45:14,076447
1,0,1,-2,-4,-3,0,-1,2021-08-07 12:45:14,076447
1,2,5,2,4,1,0,1,2021-08-07 12:45:14,076447
-2,-2,-8,2,9,3,1,-1,2021-08-07 12:45:14,092449
-1,-5,-7,1,4,1,-2,-2,2021-08-07 12:45:14,092449
-2,-1,0,0,-5,-4,-2,-4,2021-08-07 12:45:14,092449
3,2,1,-2,0,3,3,1,2021-08-07 12:45:14,092449
0,1,5,4,7,3,1,0,2021-08-07 12:45:14,123448
-1,-1,-2,1,-3,-3,-1,-1,2021-08-07 12:45:14,123448
-4,-2,-4,-5,-18,-13,-5,-2,2021-08-07 12:45:14,123448
3,3,1,0,6,8,3,1,2021-08-07 12:45:14,123448
-2,-2,-1,0,5,0,1,-1,2021-08-07 12:45:14,139447
-3,-4,-3,-8,-13,-8,-4,-2,2021-08-07 12:45:14,155447
1,0,2,10,27,15,4,2,2021-08-07 12:45:14,155447
0,0,3,6,8,2,1,1,2021-08-07 12:45:14,155447
3,4,2,8,14,9,5,2,2021-08-07 12:45:14,155447
-5,-6,-8,-12,-16,-13,-8,-5,2021-08-07 12:45:14,155447
-5,-5,-8,-26,-40,-22,-12,-6,2021-08-07 12:45:14,155447
1,1,0,-2,-3,0,1,1,2021-08-07 12:45:14,156448
1,2,2,4,10,5,3,1,2021-08-07 12:45:14,185447
0,-1,1,8,16,8,5,1,2021-08-07 12:45:14,200451
-1,-1,1,-2,-2,-2,-1,-2,2021-08-07 12:45:14,216449
-2,-1,-4,-4,-16,-9,-6,-3,2021-08-07 12:45:14,216449
2,4,8,11,25,17,7,4,2021-08-07 12:45:14,216449
-3,-1,-3,-5,-7,-5,-2,-3,2021-08-07 12:45:14,216449
-1,-3,-6,-2,2,1,0,-1,2021-08-07 12:45:14,216449
-3,-2,-4,-1,10,3,2,0,2021-08-07 12:45:14,216449
-1,-1,-1,-8,-18,-10,-4,0,2021-08-07 12:45:14,216449
-2,-3,-1,-2,-4,0,-1,-3,2021-08-07 12:45:14,216449
5,5,6,16,22,12,6,5,2021-08-07 12:45:14,216449
-2,-3,-1,-2,-2,-2,-1,-1,2021-08-07 12:45:14,216449
0,0,-3,-6,-11,-8,-5,-2,2021-08-07 12:45:14,248448
-1,-1,-3,-5,-5,0,-1,-2,2021-08-07 12:45:14,264447
1,1,1,-1,5,1,2,1,2021-08-07 12:45:14,280448
-3,-3,-3,-6,-9,-8,-5,-4,2021-08-07 12:45:14,280448
3,5,7,13,16,9,5,3,2021-08-07 12:45:14,280448
1,1,1,5,6,4,2,1,2021-08-07 12:45:14,280448
-3,-2,0,-4,-13,-8,-5,-2,2021-08-07 12:45:14,280448
0,0,4,-1,0,-2,-1,-2,2021-08-07 12:45:14,281448
-3,-4,-14,-15,-20,-9,-5,-2,2021-08-07 12:45:14,281448
-1,-1,0,-2,-1,0,0,-1,2021-08-07 12:45:14,281448
-1,0,1,9,18,10,3,1,2021-08-07 12:45:14,281448
4,3,4,14,21,14,7,3,2021-08-07 12:45:14,281448
-4,-2,0,-10,-14,-12,-6,-3,2021-08-07 12:45:14,296448
-1,0,0,-2,-3,-3,1,-2,2021-08-07 12:45:14,312447
-1,-1,-1,-5,-15,-9,-2,-2,2021-08-07 12:45:14,312447
0,-1,0,4,9,4,1,0,2021-08-07 12:45:14,312447
-1,-5,-2,-4,-10,-6,-4,-4,2021-08-07 12:45:14,312447
2,2,3,15,21,11,7,3,2021-08-07 12:45:14,312447
-2,-3,-4,-10,-14,-8,-4,-1,2021-08-07 12:45:14,312447
-1,0,-2,-2,-6,-5,-3,-1,2021-08-07 12:45:14,312447
-4,-7,-4,-9,-7,-4,-5,-4,2021-08-07 12:45:14,328445
5,7,9,17,25,15,6,4,2021-08-07 12:45:14,344447
-1,-3,-3,1,8,5,1,-3,2021-08-07 12:45:14,344447
1,2,1,-3,-6,-2,0,0,2021-08-07 12:45:14,344447
-4,-2,-3,-6,-8,-6,-5,-3,2021-08-07 12:45:14,358448
-3,-6,-5,-17,-25,-16,-7,-3,2021-08-07 12:45:14,358448
5,7,8,15,27,20,8,6,2021-08-07 12:45:14,358448
-4,-4,-7,-8,-15,-10,-6,-4,2021-08-07 12:45:14,358448
-2,-2,-1,-3,-2,-2,-1,-1,2021-08-07 12:45:14,376446
2,3,2,6,8,5,3,3,2021-08-07 12:45:14,376446
-3,-6,-6,1,-2,-5,-4,-1,2021-08-07 12:45:14,376446
2,5,4,1,1,3,1,3,2021-08-07 12:45:14,376446
2,0,2,-1,-4,-5,-1,1,2021-08-07 12:45:14,392450
-2,-1,-2,1,0,-2,-1,0,2021-08-07 12:45:14,392450
0,-1,-3,-6,-9,-5,-2,-2,2021-08-07 12:45:14,392450
-3,-4,-2,-4,-4,-4,-4,-2,2021-08-07 12:45:14,392450
1,1,0,6,12,8,4,-1,2021-08-07 12:45:14,424446
0,1,1,-4,-4,-2,0,1,2021-08-07 12:45:14,424446
-1,-1,0,-3,-9,-9,-5,-1,2021-08-07 12:45:14,424446
1,-1,-2,-1,7,5,2,1,2021-08-07 12:45:14,424446
-1,0,-1,-2,-8,-3,-1,-2,2021-08-07 12:45:14,439445
1,0,-2,3,14,5,1,1,2021-08-07 12:45:14,455447
-2,-1,-2,-4,-2,0,-2,-2,2021-08-07 12:45:14,455447
-3,-3,-3,-5,-7,-5,-3,-4,2021-08-07 12:45:14,455447
-1,-1,1,4,7,1,1,0,2021-08-07 12:45:14,455447
-4,-1,-1,0,-3,-1,-3,-4,2021-08-07 12:45:14,455447
-4,-3,-3,-8,-17,-12,-7,-5,2021-08-07 12:45:14,455447
3,1,1,1,4,0,-2,0,2021-08-07 12:45:14,456447
2,1,0,2,-1,3,1,1,2021-08-07 12:45:14,471449
-2,0,1,-4,-1,-1,0,-1,2021-08-07 12:45:14,471449
2,1,1,1,-2,-2,1,2,2021-08-07 12:45:14,487447
2,1,3,12,20,11,6,3,2021-08-07 12:45:14,487447
-1,-1,-2,-6,-5,-1,-2,-1,2021-08-07 12:45:14,502445
-2,-4,-3,-8,-10,-6,-5,-4,2021-08-07 12:45:14,518447
-5,-5,-5,-13,-19,-10,-7,-4,2021-08-07 12:45:14,534448
-1,-2,-1,4,4,2,0,1,2021-08-07 12:45:14,534448
2,2,4,9,9,5,3,3,2021-08-07 12:45:14,534448
-3,-3,-2,3,4,2,1,-2,2021-08-07 12:45:14,534448
-1,0,-1,-2,-3,-2,-2,1,2021-08-07 12:45:14,534448
0,1,0,3,1,2,2,0,2021-08-07 12:45:14,534448
1,3,6,10,17,10,4,2,2021-08-07 12:45:14,534448
0,-2,-1,-8,-13,-7,-4,0,2021-08-07 12:45:14,534448
-1,-1,-2,0,5,3,1,0,2021-08-07 12:45:14,534448
-2,-1,-2,-8,-10,-8,-3,0,2021-08-07 12:45:14,535448
-3,-3,-5,-3,-4,-2,-3,-3,2021-08-07 12:45:14,566450
-3,-3,-2,-4,-13,-8,-5,-3,2021-08-07 12:45:14,566450
2,3,4,7,14,12,6,2,2021-08-07 12:45:14,566450
-1,-3,-3,-5,-7,-5,-1,-2,2021-08-07 12:45:14,566450
-1,2,1,3,2,1,-1,0,2021-08-07 12:45:14,582448
1,0,2,0,2,1,1,2,2021-08-07 12:45:14,582448
0,0,2,2,2,-1,0,0,2021-08-07 12:45:14,582448
-2,-2,-2,-12,-15,-6,-4,0,2021-08-07 12:45:14,582448
-1,-1,0,3,1,-2,1,0,2021-08-07 12:45:14,598448
-1,-3,-2,-3,2,3,-1,-2,2021-08-07 12:45:14,614446
3,2,0,4,10,2,3,0,2021-08-07 12:45:14,629446
1,3,4,7,11,7,2,1,2021-08-07 12:45:14,629446
-1,0,-2,-5,-8,-7,-5,-4,2021-08-07 12:45:14,629446
-2,-2,-2,-4,-6,0,0,0,2021-08-07 12:45:14,629446
-2,-2,-1,-4,-5,-5,-2,-3,2021-08-07 12:45:14,629446
-2,-4,-5,-6,-1,-1,-2,0,2021-08-07 12:45:14,630447
4,5,7,5,3,3,4,3,2021-08-07 12:45:14,645448
1,-1,0,5,3,-1,-1,1,2021-08-07 12:45:14,645448
0,-1,0,-2,-4,-3,-2,-1,2021-08-07 12:45:14,645448
-2,-2,-3,2,5,0,0,-2,2021-08-07 12:45:14,645448
-5,-8,-9,-8,-8,-5,-5,-4,2021-08-07 12:45:14,676448
0,2,3,-5,-4,-2,0,1,2021-08-07 12:45:14,676448
3,6,4,1,0,1,1,2,2021-08-07 12:45:14,676448
-2,-1,-3,-5,-11,-7,-2,-2,2021-08-07 12:45:14,676448
3,2,1,10,15,11,5,2,2021-08-07 12:45:14,676448
-2,-6,-4,-1,1,0,-2,-4,2021-08-07 12:45:14,676448
-2,-3,-4,-5,-5,-3,-4,-1,2021-08-07 12:45:14,692448
-2,1,1,-2,-10,-8,-4,-3,2021-08-07 12:45:14,692448
-3,-7,-6,-12,-17,-11,-6,-5,2021-08-07 12:45:14,692448
2,4,2,4,8,4,2,1,2021-08-07 12:45:14,692448
2,3,2,12,5,3,1,2,2021-08-07 12:45:14,724446
0,0,-2,-2,13,9,2,2,2021-08-07 12:45:14,724446
-3,0,-1,-7,1,0,-2,0,2021-08-07 12:45:14,724446
0,-1,-1,0,6,1,0,-1,2021-08-07 12:45:14,724446
-3,-2,-1,-7,-11,-7,-3,-2,2021-08-07 12:45:14,724446
-2,-2,-2,3,-5,-2,-2,0,2021-08-07 12:45:14,724446
-4,-3,-3,-7,-18,-8,-4,-3,2021-08-07 12:45:14,739447
5,7,9,26,43,23,11,7,2021-08-07 12:45:14,739447
-1,0,0,-1,-2,-3,-1,-2,2021-08-07 12:45:14,739447
2,2,1,1,3,3,2,2,2021-08-07 12:45:14,739447
-2,-2,-3,-8,-7,-5,-2,-1,2021-08-07 12:45:14,771447
-9,-8,-6,-13,-22,-13,-8,-5,2021-08-07 12:45:14,771447
-3,-6,-4,-8,-6,-3,-3,-3,2021-08-07 12:45:14,771447
-4,-3,-1,-1,-4,-8,-4,-3,2021-08-07 12:45:14,771447
3,4,6,20,23,11,7,2,2021-08-07 12:45:14,787449
5,4,4,8,11,7,4,3,2021-08-07 12:45:14,801448
0,2,-1,-7,-5,-4,-3,-1,2021-08-07 12:45:14,801448
-1,-2,-1,-3,-4,-1,-1,0,2021-08-07 12:45:14,802446
-4,-4,-5,-8,-11,-9,-6,-3,2021-08-07 12:45:14,802446
-6,-9,-11,-16,-24,-14,-8,-6,2021-08-07 12:45:14,802446
2,3,3,16,30,19,9,3,2021-08-07 12:45:14,802446
2,-2,-2,-3,-4,-3,-1,-1,2021-08-07 12:45:14,802446
5,7,7,14,27,14,7,4,2021-08-07 12:45:14,835449
-2,-1,-2,-5,-9,-8,-5,-2,2021-08-07 12:45:14,851445
-3,-3,-5,-9,-14,-6,-4,-2,2021-08-07 12:45:14,851445
-2,-1,-1,2,-2,-3,-1,-1,2021-08-07 12:45:14,851445
-1,-3,-2,-3,-4,0,-1,-1,2021-08-07 12:45:14,851445
-2,-2,-3,-7,-9,-6,-5,-1,2021-08-07 12:45:14,851445
0,0,-1,1,1,-1,-1,0,2021-08-07 12:45:14,851445
0,-1,-2,-5,-11,-3,-2,0,2021-08-07 12:45:14,851445
5,7,6,17,32,19,9,5,2021-08-07 12:45:14,851445
0,0,3,-4,2,2,-1,0,2021-08-07 12:45:14,867448
-2,-3,0,0,2,0,0,-3,2021-08-07 12:45:14,883448
0,0,-1,-3,-6,-5,-2,-1,2021-08-07 12:45:14,883448
-5,-6,-7,-16,-26,-16,-8,-4,2021-08-07 12:45:14,883448
-2,-1,0,8,6,5,3,-1,2021-08-07 12:45:14,883448
-3,-5,-5,-8,-5,-4,-4,-3,2021-08-07 12:45:14,883448
1,4,7,4,-2,-2,-1,0,2021-08-07 12:45:14,884446
3,3,4,13,20,14,6,3,2021-08-07 12:45:14,899447
-2,-1,-3,-4,-4,-5,-1,1,2021-08-07 12:45:14,915448
-1,-4,-5,-10,-10,-4,-2,-2,2021-08-07 12:45:14,931446
0,3,1,-1,0,0,1,-1,2021-08-07 12:45:14,931446
-1,-2,-4,-8,-14,-9,-3,-2,2021-08-07 12:45:14,947447
-2,-3,-2,-4,-2,-1,-3,-3,2021-08-07 12:45:14,963447
3,2,7,8,5,4,2,2,2021-08-07 12:45:14,963447
1,-1,-6,1,6,5,2,1,2021-08-07 12:45:14,979447
1,0,0,-2,-8,-4,-4,0,2021-08-07 12:45:14,995447
-3,-3,-5,-8,-10,-5,-3,-4,2021-08-07 12:45:15,011445
-3,-2,-1,-1,-2,-3,-3,-1,2021-08-07 12:45:15,027448
0,0,1,1,2,6,3,0,2021-08-07 12:45:15,027448
-1,-4,1,7,8,1,1,-2,2021-08-07 12:45:15,027448
0,-2,-2,-2,1,0,0,0,2021-08-07 12:45:15,027448
2,2,0,1,-1,-1,-1,-2,2021-08-07 12:45:15,027448
-2,-2,-1,-1,-2,-4,-2,-2,2021-08-07 12:45:15,028447
-3,-3,-5,-11,-15,-8,-5,-3,2021-08-07 12:45:15,028447
-2,-4,-4,-4,-5,-3,-2,-5,2021-08-07 12:45:15,028447
5,8,9,12,8,5,3,5,2021-08-07 12:45:15,028447
0,-2,-1,-9,5,4,0,1,2021-08-07 12:45:15,028447
-3,-3,-3,-8,-3,-1,0,0,2021-08-07 12:45:15,028447
-2,-2,-4,-4,-5,-4,-4,-1,2021-08-07 12:45:15,028447
-5,-5,-6,-12,-16,-12,-4,-3,2021-08-07 12:45:15,028447
1,0,2,14,15,8,3,0,2021-08-07 12:45:15,029447
0,-1,0,-8,-11,-8,-3,-1,2021-08-07 12:45:15,029447
2,4,5,12,10,7,2,1,2021-08-07 12:45:15,029447
0,-1,-3,3,11,7,2,-1,2021-08-07 12:45:15,029447
-2,0,-3,-6,-1,-3,-2,0,2021-08-07 12:45:15,029447
-2,-3,-5,-9,-10,-8,-5,-4,2021-08-07 12:45:15,029447
-2,-3,-4,-4,-8,-6,-4,-1,2021-08-07 12:45:15,029447
0,1,2,3,2,-1,1,0,2021-08-07 12:45:15,043446
-3,-4,-4,-7,-13,-6,-5,-4,2021-08-07 12:45:15,043446
4,5,5,16,20,10,5,3,2021-08-07 12:45:15,059449
2,0,0,1,1,0,2,2,2021-08-07 12:45:15,059449
1,-1,2,8,15,8,4,1,2021-08-07 12:45:15,059449
0,-1,-1,-3,-2,-2,1,-1,2021-08-07 12:45:15,059449
-5,-8,-7,-5,-4,-4,-4,-2,2021-08-07 12:45:15,075447
-2,0,1,-5,-14,-11,-6,-4,2021-08-07 12:45:15,075447
1,0,-1,3,5,6,3,3,2021-08-07 12:45:15,075447
4,3,5,11,16,9,4,5,2021-08-07 12:45:15,075447
0,0,-1,-1,-2,-1,1,-1,2021-08-07 12:45:15,106448
-1,-3,-5,-12,-2,0,-1,-2,2021-08-07 12:45:15,122445
-4,-4,-4,-9,-13,-10,-5,-4,2021-08-07 12:45:15,122445
-2,-2,-1,-6,-8,-7,-3,-2,2021-08-07 12:45:15,122445
-1,-1,0,3,4,3,0,0,2021-08-07 12:45:15,122445
1,0,2,-2,-6,-4,-1,-1,2021-08-07 12:45:15,122445
1,4,2,14,13,9,4,2,2021-08-07 12:45:15,123450
-3,0,0,5,3,-1,1,-3,2021-08-07 12:45:15,123450
2,3,3,2,1,3,1,1,2021-08-07 12:45:15,137447
0,0,-5,-4,1,0,0,1,2021-08-07 12:45:15,137683
-5,-9,-10,-20,-21,-12,-8,-6,2021-08-07 12:45:15,137683
1,3,4,3,2,2,2,1,2021-08-07 12:45:15,137683
-1,0,0,8,9,1,0,-1,2021-08-07 12:45:15,169448
-4,-3,-2,4,4,4,-1,-1,2021-08-07 12:45:15,169448
1,2,0,-1,-2,-2,-1,-1,2021-08-07 12:45:15,169448
2,0,4,5,6,4,2,2,2021-08-07 12:45:15,169448
-1,1,0,-8,-12,-7,-2,0,2021-08-07 12:45:15,184447
0,0,0,-2,-1,-1,-1,0,2021-08-07 12:45:15,184447
-2,-4,-6,-13,-21,-11,-5,-1,2021-08-07 12:45:15,199447
2,3,3,16,34,21,8,3,2021-08-07 12:45:15,199447
-1,0,1,-3,-5,-2,-2,-2,2021-08-07 12:45:15,199447
1,2,2,6,2,2,1,-1,2021-08-07 12:45:15,199447
-3,-3,-2,-5,-4,-3,-3,-1,2021-08-07 12:45:15,199447
-5,-6,-7,-7,-11,-8,-4,-5,2021-08-07 12:45:15,199447
0,-2,-4,-5,-5,-2,-3,-1,2021-08-07 12:45:15,215446
4,5,6,15,17,9,5,2,2021-08-07 12:45:15,231445
-1,0,0,-10,-16,-9,-5,-1,2021-08-07 12:45:15,231445
-1,-2,-4,-9,-3,-1,-1,-1,2021-08-07 12:45:15,231445
-2,-2,-1,3,-2,0,-2,-4,2021-08-07 12:45:15,244447
-4,-6,-6,-7,-7,-6,-4,-2,2021-08-07 12:45:15,244447
2,4,5,10,9,6,2,1,2021-08-07 12:45:15,245447
-3,-2,-3,-3,0,2,-1,-1,2021-08-07 12:45:15,245447
0,1,4,-2,-5,-4,0,0,2021-08-07 12:45:15,245447
0,2,0,3,2,3,2,0,2021-08-07 12:45:15,245447
-2,-2,-5,-7,-7,-4,-4,-3,2021-08-07 12:45:15,263447
2,3,4,5,6,4,1,3,2021-08-07 12:45:15,263447
-5,-4,-5,-9,-7,-4,-3,-3,2021-08-07 12:45:15,279447
0,0,1,-3,-2,1,1,0,2021-08-07 12:45:15,279447
-5,-6,-5,-5,-2,-2,0,-4,2021-08-07 12:45:15,279447
4,7,8,6,-4,-4,-1,3,2021-08-07 12:45:15,279447
0,1,-2,-4,-4,0,0,1,2021-08-07 12:45:15,310450
-1,-3,-4,-11,-8,-7,-5,-2,2021-08-07 12:45:15,326447
3,3,2,6,16,11,6,4,2021-08-07 12:45:15,342447
-2,-3,-3,1,0,-1,-3,0,2021-08-07 12:45:15,342447
-1,-4,-5,-9,-19,-11,-1,-2,2021-08-07 12:45:15,342447
-3,-4,-4,-3,5,1,-2,-4,2021-08-07 12:45:15,342447
5,5,8,22,32,20,10,5,2021-08-07 12:45:15,342447
-5,-4,-2,-7,-17,-12,-6,-6,2021-08-07 12:45:15,342447
0,-1,-3,-2,2,0,0,-3,2021-08-07 12:45:15,343450
-2,0,-1,0,0,2,1,0,2021-08-07 12:45:15,343450
-3,-3,-3,-7,-13,-10,-6,-3,2021-08-07 12:45:15,343450
0,1,-2,-2,-8,-2,0,0,2021-08-07 12:45:15,343450
-1,-2,-2,-1,0,-1,-1,-2,2021-08-07 12:45:15,358447
-2,-2,-4,-7,-9,-5,-1,-1,2021-08-07 12:45:15,374447
-2,-4,-4,-4,5,1,-1,-2,2021-08-07 12:45:15,390446
2,4,4,-3,-7,-6,-2,1,2021-08-07 12:45:15,406446
0,-1,2,-2,-5,-4,-4,-3,2021-08-07 12:45:15,422447
4,2,3,13,12,8,4,2,2021-08-07 12:45:15,437447
-1,-1,-4,-2,-1,-1,-1,-2,2021-08-07 12:45:15,437447
-5,-8,-11,-22,-12,-6,-4,-3,2021-08-07 12:45:15,437447
-1,-2,1,1,4,2,-1,-1,2021-08-07 12:45:15,437447
1,1,3,5,4,2,0,0,2021-08-07 12:45:15,437447
0,0,2,8,-3,-2,0,-1,2021-08-07 12:45:15,437447
4,2,0,6,5,5,2,1,2021-08-07 12:45:15,438447
-1,0,1,-3,11,8,2,0,2021-08-07 12:45:15,438447
-4,-6,-4,-11,-15,-11,-7,-4,2021-08-07 12:45:15,438447
-3,-4,-4,-9,-12,-5,-4,-3,2021-08-07 12:45:15,438447
-2,-1,-2,4,11,5,1,-1,2021-08-07 12:45:15,438447
2,3,5,10,11,4,2,1,2021-08-07 12:45:15,438447
3,5,5,10,3,1,2,3,2021-08-07 12:45:15,438447
-1,1,1,-2,-5,-4,-2,1,2021-08-07 12:45:15,438447
-1,-1,0,5,2,-1,-1,-1,2021-08-07 12:45:15,439448
-5,-6,-11,-11,-16,-9,-7,-6,2021-08-07 12:45:15,469447
-2,-4,-2,-1,-1,0,-2,-1,2021-08-07 12:45:15,469447
2,3,3,4,8,4,3,4,2021-08-07 12:45:15,469447
4,5,7,5,1,2,3,2,2021-08-07 12:45:15,469447
2,4,4,14,17,9,5,5,2021-08-07 12:45:15,485445
-3,0,-1,-2,-6,-4,-4,-4,2021-08-07 12:45:15,485445
0,0,-1,-8,-11,-9,-4,0,2021-08-07 12:45:15,485445
-2,-2,-5,-6,-5,0,-1,-2,2021-08-07 12:45:15,485445
-1,-3,-1,-6,1,2,0,0,2021-08-07 12:45:15,500448
-1,-2,3,-1,-3,-2,-1,-1,2021-08-07 12:45:15,516447
4,4,-1,11,16,9,5,2,2021-08-07 12:45:15,516447
-1,-1,-1,-7,-11,-7,-4,-4,2021-08-07 12:45:15,516447
-1,1,1,7,0,-2,1,0,2021-08-07 12:45:15,516447
-1,-2,-5,-5,-3,-3,-2,0,2021-08-07 12:45:15,516447
-1,-3,-2,-8,-8,-5,-1,-2,2021-08-07 12:45:15,516447
-3,-5,-2,-4,-4,-3,-3,-2,2021-08-07 12:45:15,516447
-1,-1,0,3,-1,-1,-2,0,2021-08-07 12:45:15,563448
-3,-2,-3,-5,-10,-5,-2,-4,2021-08-07 12:45:15,579448
2,3,6,14,25,19,8,4,2021-08-07 12:45:15,579448
4,4,5,10,15,5,0,0,2021-08-07 12:45:15,579448
-3,-1,-1,-3,-5,-5,-2,-2,2021-08-07 12:45:15,579448
-1,-4,-8,-11,-7,-6,-3,-2,2021-08-07 12:45:15,579448
-7,-7,-6,-18,-28,-16,-10,-5,2021-08-07 12:45:15,579448
-4,-4,-2,-5,-7,-5,-4,-3,2021-08-07 12:45:15,580449
2,5,5,4,6,2,0,3,2021-08-07 12:45:15,580449
2,3,5,17,26,15,8,2,2021-08-07 12:45:15,580449
-3,-3,-4,-6,-8,-6,-5,-4,2021-08-07 12:45:15,580449
1,1,2,0,4,7,5,1,2021-08-07 12:45:15,580449
-3,-3,-3,-5,-4,-2,-3,-4,2021-08-07 12:45:15,611447
-2,-2,-6,-12,-14,-8,-3,0,2021-08-07 12:45:15,611447
-2,0,2,7,11,7,2,-1,2021-08-07 12:45:15,627445
-5,-6,-7,-13,-19,-14,-8,-3,2021-08-07 12:45:15,627445
-2,-3,-1,-7,-13,-6,-3,0,2021-08-07 12:45:15,627445
1,3,4,8,8,6,3,1,2021-08-07 12:45:15,627445
3,5,7,23,36,17,6,2,2021-08-07 12:45:15,627445
0,2,0,3,0,-2,0,1,2021-08-07 12:45:15,627445
-3,-4,-6,-7,-4,-1,0,-2,2021-08-07 12:45:15,643447
-3,-7,-6,-17,-15,-10,-7,-5,2021-08-07 12:45:15,659446
-3,-2,2,-9,-14,-10,-4,-3,2021-08-07 12:45:15,659446
-1,-2,-9,-1,-3,0,-1,-1,2021-08-07 12:45:15,659446
-2,-3,-6,0,-2,-3,-2,-3,2021-08-07 12:45:15,659446
1,2,1,9,9,6,4,2,2021-08-07 12:45:15,659446
7,7,7,6,9,7,5,4,2021-08-07 12:45:15,659446
0,2,8,2,4,2,0,1,2021-08-07 12:45:15,660448
1,-2,-3,-9,-9,-4,-2,0,2021-08-07 12:45:15,691447
-3,-5,-5,-9,-14,-8,-5,-2,2021-08-07 12:45:15,692447
-1,-2,-2,-2,-2,-4,-1,-1,2021-08-07 12:45:15,692447
-1,-3,-4,-2,-2,-2,-1,-2,2021-08-07 12:45:15,693447
-1,-2,-2,0,-2,2,-1,-2,2021-08-07 12:45:15,693447
4,5,5,9,15,10,5,6,2021-08-07 12:45:15,693447
5,6,6,-1,-4,1,1,3,2021-08-07 12:45:15,707448
-1,2,2,4,3,-1,0,0,2021-08-07 12:45:15,723450
-2,1,-5,-4,-4,-3,-3,-1,2021-08-07 12:45:15,723450
-5,-6,-7,-14,-13,-9,-5,-4,2021-08-07 12:45:15,739447
-5,-8,-11,-19,-33,-21,-11,-7,2021-08-07 12:45:15,739447
-3,-3,-2,1,-8,0,-1,-3,2021-08-07 12:45:15,739447
6,7,7,28,52,26,13,6,2021-08-07 12:45:15,739447
1,2,3,10,6,0,0,-1,2021-08-07 12:45:15,739447
-1,-2,-2,1,7,2,-1,0,2021-08-07 12:45:15,739447
-4,-4,-6,-20,-24,-18,-10,-6,2021-08-07 12:45:15,739447
-3,-5,-2,-6,-16,-10,-5,-3,2021-08-07 12:45:15,755448
2,4,5,6,12,7,3,2,2021-08-07 12:45:15,755448
-4,-4,-5,-10,-12,-8,-4,-4,2021-08-07 12:45:15,755448
0,-1,-1,2,6,4,3,1,2021-08-07 12:45:15,770449
0,1,2,-7,-3,1,0,0,2021-08-07 12:45:15,786446
2,1,2,7,4,0,1,0,2021-08-07 12:45:15,802445
2,2,4,10,9,6,2,0,2021-08-07 12:45:15,802445
0,1,-3,4,4,1,0,-1,2021-08-07 12:45:15,802445
-2,-4,-4,-12,-3,-1,-4,-2,2021-08-07 12:45:15,802445
-7,-10,-11,-15,-27,-18,-9,-7,2021-08-07 12:45:15,802445
-3,-1,0,-6,-17,-6,-6,-1,2021-08-07 12:45:15,803448
9,11,17,40,61,35,17,9,2021-08-07 12:45:15,803448
1,4,3,3,-1,-1,1,1,2021-08-07 12:45:15,818448
0,0,0,-4,3,1,1,0,2021-08-07 12:45:15,834446
-5,-7,-9,-14,-19,-12,-4,-2,2021-08-07 12:45:15,834446
-6,-7,-6,-16,-23,-15,-9,-5,2021-08-07 12:45:15,834446
-2,-4,-6,-1,-8,-4,-2,-2,2021-08-07 12:45:15,834446
0,3,4,10,16,9,3,1,2021-08-07 12:45:15,834446
1,3,2,2,5,3,2,0,2021-08-07 12:45:15,850447
-1,-1,-2,-6,-6,-3,-3,-2,2021-08-07 12:45:15,850447
-2,-2,0,-2,-5,-5,-2,-1,2021-08-07 12:45:15,866446
-3,-2,-3,-12,-9,-4,-5,-3,2021-08-07 12:45:15,866446
1,1,0,5,8,4,2,0,2021-08-07 12:45:15,866446
1,0,5,-1,3,1,1,1,2021-08-07 12:45:15,866446
1,0,0,4,5,0,0,-2,2021-08-07 12:45:15,882447
1,-1,-7,1,-3,-2,0,0,2021-08-07 12:45:15,898446
3,5,6,6,15,11,7,2,2021-08-07 12:45:15,914449
-3,-6,-8,-12,-15,-8,-4,-4,2021-08-07 12:45:15,914449
-7,-8,-6,-16,-24,-15,-8,-4,2021-08-07 12:45:15,914449
4,7,11,8,11,11,7,4,2021-08-07 12:45:15,914449
4,2,0,18,32,16,7,4,2021-08-07 12:45:15,914449
-2,-2,-3,-4,-10,-8,-5,-3,2021-08-07 12:45:15,915448
1,3,5,8,6,5,1,0,2021-08-07 12:45:15,915448
-6,-6,-7,-9,-8,-6,-4,-3,2021-08-07 12:45:15,915448
-3,-5,-5,-10,-15,-10,-7,-3,2021-08-07 12:45:15,930450
3,8,7,13,20,11,8,5,2021-08-07 12:45:15,930450
-1,-3,-4,-11,-16,-10,-5,-2,2021-08-07 12:45:15,930450
0,-1,-3,-1,2,3,1,-1,2021-08-07 12:45:15,930450
-2,-4,-3,-6,-11,-7,-3,-3,2021-08-07 12:45:15,946449
-3,-5,-5,-6,-1,-2,-4,-4,2021-08-07 12:45:15,946449
0,-1,2,-1,3,2,3,0,2021-08-07 12:45:15,962450
7,9,10,19,22,15,9,6,2021-08-07 12:45:15,962450
-1,1,-2,-4,-2,-2,-1,1,2021-08-07 12:45:15,962450
1,3,-1,7,6,6,4,2,2021-08-07 12:45:15,962450
-5,-4,-4,-6,-9,-6,-5,-4,2021-08-07 12:45:15,993447
-2,-5,-3,-4,-8,-8,-5,-4,2021-08-07 12:45:15,993447
-1,-1,1,5,2,0,0,-2,2021-08-07 12:45:15,993447
1,-1,-2,-2,-7,-7,-3,0,2021-08-07 12:45:15,993447
4,2,4,9,20,14,5,2,2021-08-07 12:45:15,994451
-1,-2,-3,-5,-9,-7,-6,-2,2021-08-07 12:45:15,994451
0,-1,-2,-6,-4,0,-1,-2,2021-08-07 12:45:16,009447
-2,-3,0,-2,-4,-2,-3,-2,2021-08-07 12:45:16,009447
2,3,1,7,9,3,3,0,2021-08-07 12:45:16,025448
-1,0,6,-1,-4,-3,-3,-1,2021-08-07 12:45:16,041447
-3,-8,-14,-16,-13,-8,-4,-3,2021-08-07 12:45:16,041447
-3,-3,-3,-5,-3,0,-1,-1,2021-08-07 12:45:16,041447
-2,-3,-5,-3,-12,-8,-6,-2,2021-08-07 12:45:16,041447
3,4,4,8,11,9,7,5,2021-08-07 12:45:16,041447
1,1,6,5,3,1,0,0,2021-08-07 12:45:16,041447
-1,-5,-2,-6,-8,-4,-4,-3,2021-08-07 12:45:16,041447
0,-1,0,2,9,5,0,1,2021-08-07 12:45:16,056448
-5,-5,-4,-6,-10,-9,-5,-5,2021-08-07 12:45:16,056448
1,3,1,-3,-8,-4,-1,0,2021-08-07 12:45:16,072447
1,4,6,21,27,15,7,3,2021-08-07 12:45:16,072447
-1,-2,0,1,-5,-3,0,-1,2021-08-07 12:45:16,072447
-3,-5,-8,-17,-10,-6,-3,-3,2021-08-07 12:45:16,072447
-7,-9,-11,-18,-18,-9,-7,-5,2021-08-07 12:45:16,087447
0,1,-1,-5,-4,-3,0,1,2021-08-07 12:45:16,103447
-1,0,2,1,-4,-3,-1,-1,2021-08-07 12:45:16,119445
0,-1,0,15,14,5,0,-1,2021-08-07 12:45:16,131446
1,5,7,5,0,1,1,2,2021-08-07 12:45:16,132447
0,0,-1,-1,0,1,1,2,2021-08-07 12:45:16,132447
-1,1,0,-1,5,4,3,1,2021-08-07 12:45:16,132447
-2,-3,-5,-9,-9,-6,-3,-3,2021-08-07 12:45:16,132447
-2,-3,-2,0,-2,-1,-1,-2,2021-08-07 12:45:16,132447
-1,-2,-2,-2,-5,-5,-2,-2,2021-08-07 12:45:16,132447
2,3,5,8,15,10,6,2,2021-08-07 12:45:16,133447
2,3,4,13,16,10,5,2,2021-08-07 12:45:16,133447
1,3,3,5,11,3,4,2,2021-08-07 12:45:16,133447
-3,-4,-2,-4,1,-1,-3,-2,2021-08-07 12:45:16,133447
-3,-4,-8,-9,-12,-8,-4,-1,2021-08-07 12:45:16,167446
-4,-2,-3,-7,-15,-10,-7,-3,2021-08-07 12:45:16,167446
1,0,-1,3,2,1,0,1,2021-08-07 12:45:16,167446
2,1,-3,-11,-12,-2,1,0,2021-08-07 12:45:16,167446
0,0,4,4,8,4,0,-1,2021-08-07 12:45:16,183447
4,2,1,3,6,5,5,3,2021-08-07 12:45:16,199447
-1,-4,-6,-5,-1,0,0,-1,2021-08-07 12:45:16,215447
-5,-6,-4,-10,-14,-10,-5,-4,2021-08-07 12:45:16,231445
-1,4,6,4,-1,-3,-2,-1,2021-08-07 12:45:16,247447
-5,-4,-2,-4,-7,-6,-5,-4,2021-08-07 12:45:16,247447
-3,-6,-4,4,1,2,0,-2,2021-08-07 12:45:16,247447
7,11,10,20,34,17,10,7,2021-08-07 12:45:16,247447
-4,-4,-5,-9,-13,-10,-6,-3,2021-08-07 12:45:16,247447
2,0,-1,0,-2,-1,1,3,2021-08-07 12:45:16,247447
0,4,0,-4,3,0,0,-1,2021-08-07 12:45:16,248450
-8,-10,-10,-22,-29,-15,-10,-5,2021-08-07 12:45:16,248450
-1,1,5,-1,5,0,-1,1,2021-08-07 12:45:16,248450
1,-2,-7,7,-1,3,1,1,2021-08-07 12:45:16,248450
0,1,2,7,18,9,3,1,2021-08-07 12:45:16,248450
2,2,1,0,1,0,1,2,2021-08-07 12:45:16,248450
-4,-5,-10,-12,-12,-7,-4,-4,2021-08-07 12:45:16,263447
0,0,4,-4,-2,-1,0,0,2021-08-07 12:45:16,263447
-1,-2,-3,-2,-11,-8,-5,-2,2021-08-07 12:45:16,263447
1,1,3,10,8,4,1,-1,2021-08-07 12:45:16,263447
-1,-2,-1,4,-1,0,-3,-2,2021-08-07 12:45:16,278447
-1,-1,-1,0,8,2,-1,0,2021-08-07 12:45:16,278447
2,-1,0,-5,-2,-2,-2,2,2021-08-07 12:45:16,278447
-3,-3,-3,-3,-7,-6,-6,-3,2021-08-07 12:45:16,278447
2,2,0,3,-4,0,1,0,2021-08-07 12:45:16,310447
-3,-4,-5,-1,5,3,0,-2,2021-08-07 12:45:16,326446
2,4,7,2,4,1,2,2,2021-08-07 12:45:16,326446
-3,-5,-4,-17,-24,-14,-5,-4,2021-08-07 12:45:16,326446
-1,2,-2,1,6,5,4,0,2021-08-07 12:45:16,326446
0,0,2,2,3,1,-1,-1,2021-08-07 12:45:16,326446
1,4,2,10,9,5,2,1,2021-08-07 12:45:16,327448
0,0,2,8,17,8,3,2,2021-08-07 12:45:16,327448
0,0,0,6,6,4,2,0,2021-08-07 12:45:16,342448
-5,-5,-4,-14,-22,-13,-7,-3,2021-08-07 12:45:16,358447
-6,-8,-4,-15,-15,-10,-8,-6,2021-08-07 12:45:16,374447
2,4,-3,8,9,5,1,1,2021-08-07 12:45:16,374447
-1,-2,-2,-6,-10,-8,-4,-2,2021-08-07 12:45:16,374447
3,4,3,1,2,3,3,3,2021-08-07 12:45:16,374447
-2,-2,2,0,-7,-3,-3,-2,2021-08-07 12:45:16,374447
2,0,2,5,3,4,1,1,2021-08-07 12:45:16,374447
-3,-2,-3,-9,-9,-5,-3,-1,2021-08-07 12:45:16,374447
-2,-1,-1,6,3,2,0,-1,2021-08-07 12:45:16,374447
0,-1,-4,-1,-4,-3,-1,-1,2021-08-07 12:45:16,375449
-1,-3,-3,-9,-2,0,0,0,2021-08-07 12:45:16,375449
-5,-7,-7,-9,-13,-4,-4,-3,2021-08-07 12:45:16,405447
0,2,3,6,12,1,0,-1,2021-08-07 12:45:16,405447
2,6,6,13,14,10,4,3,2021-08-07 12:45:16,405447
0,1,1,2,-4,-4,0,-1,2021-08-07 12:45:16,405447
-2,-5,-3,-1,0,-2,-3,-4,2021-08-07 12:45:16,436447
-3,-3,-6,-19,-24,-15,-6,-4,2021-08-07 12:45:16,436447
-3,-3,-4,-2,4,2,0,-3,2021-08-07 12:45:16,436447
2,2,3,5,9,4,2,2,2021-08-07 12:45:16,436447
2,4,4,10,15,7,4,3,2021-08-07 12:45:16,436447
-2,0,0,1,-5,-2,-2,-1,2021-08-07 12:45:16,452446
-2,-3,-4,-6,-12,-8,-5,-3,2021-08-07 12:45:16,468446
-5,-6,-7,-11,-16,-8,-7,-6,2021-08-07 12:45:16,468446
1,-1,-3,-8,1,1,-2,0,2021-08-07 12:45:16,468446
-1,1,4,1,-5,-1,0,-1,2021-08-07 12:45:16,468446
5,5,12,11,18,11,8,4,2021-08-07 12:45:16,468446
0,1,-7,0,0,-1,1,-1,2021-08-07 12:45:16,469448
-2,-1,1,9,9,5,3,-1,2021-08-07 12:45:16,484447
-3,-3,-5,-6,-3,-2,-3,-2,2021-08-07 12:45:16,484447
0,0,2,2,0,1,0,1,2021-08-07 12:45:16,484447
-4,-7,-3,-10,-10,-7,-4,-3,2021-08-07 12:45:16,484447
-2,-1,-2,0,-7,-6,-4,-1,2021-08-07 12:45:16,500448
2,3,3,0,1,1,-1,2,2021-08-07 12:45:16,500448
4,4,5,13,23,14,7,6,2021-08-07 12:45:16,500448
-3,-4,-7,-17,-14,-4,-2,-3,2021-08-07 12:45:16,500448
1,-1,-3,-1,8,2,1,0,2021-08-07 12:45:16,532445
-4,-3,-1,-3,-10,-9,-6,-5,2021-08-07 12:45:16,548446
-2,-1,-2,-3,-3,-1,-1,-1,2021-08-07 12:45:16,564447
-1,1,2,8,-5,-4,-3,0,2021-08-07 12:45:16,579449
0,1,3,-1,-2,2,1,0,2021-08-07 12:45:16,579449
1,-1,-2,-1,9,3,3,0,2021-08-07 12:45:16,579449
-1,-2,-5,-8,-6,-6,-5,-3,2021-08-07 12:45:16,579449
1,1,1,-1,2,1,1,0,2021-08-07 12:45:16,579449
