EMG 1,EMG 2,EMG 3,EMG 4,EMG 5,EMG 6,EMG 7,EMG 8,Timestamp,Milliseconds
-1,0,-2,-6,-11,-8,-4,-1,2021-08-07 12:45:29,737908
-4,-5,-6,-16,-24,-12,-5,-3,2021-08-07 12:45:29,737908
3,2,4,28,53,30,13,4,2021-08-07 12:45:29,737908
1,3,4,3,5,1,2,1,2021-08-07 12:45:29,737908
-1,-3,-2,-1,1,1,1,0,2021-08-07 12:45:29,737908
-1,1,1,-3,-8,-7,-5,-2,2021-08-07 12:45:29,737908
-5,-6,-7,-12,-22,-16,-8,-6,2021-08-07 12:45:29,737908
2,0,1,2,5,4,4,1,2021-08-07 12:45:29,737908
2,4,2,6,9,4,2,2,2021-08-07 12:45:29,738908
-5,-6,-6,-3,-2,-1,-1,-3,2021-08-07 12:45:29,738908
4,5,3,0,-4,0,1,2,2021-08-07 12:45:29,738908
0,0,-2,-2,-3,-1,-3,-2,2021-08-07 12:45:29,738908
-2,-4,-3,0,-1,-1,-2,-2,2021-08-07 12:45:29,769908
-1,-1,-1,1,4,1,1,-1,2021-08-07 12:45:29,769908
0,-2,-2,-5,-6,-3,-2,0,2021-08-07 12:45:29,769908
0,0,2,1,0,0,-1,0,2021-08-07 12:45:29,769908
1,1,3,2,2,3,2,1,2021-08-07 12:45:29,785908
-2,-2,0,4,11,6,-1,-1,2021-08-07 12:45:29,785908
0,0,0,-6,-9,-4,-2,0,2021-08-07 12:45:29,785908
-5,-6,-6,-9,-18,-10,-6,-3,2021-08-07 12:45:29,785908
4,5,5,8,6,4,3,4,2021-08-07 12:45:29,801908
1,1,2,3,2,2,2,1,2021-08-07 12:45:29,801908
0,0,-1,-6,-8,-6,-2,-2,2021-08-07 12:45:29,849907
0,-1,-1,-1,-3,-2,0,-1,2021-08-07 12:45:29,849907
-2,-3,-3,-5,-5,-4,-3,-2,2021-08-07 12:45:29,849907
0,0,0,-1,-4,-2,-1,-2,2021-08-07 12:45:29,849907
2,1,1,1,1,0,0,2,2021-08-07 12:45:29,849907
-7,-7,-9,-12,-19,-13,-10,-6,2021-08-07 12:45:29,850909
5,6,9,13,20,15,10,6,2021-08-07 12:45:29,850909
1,1,1,-1,-3,-3,0,1,2021-08-07 12:45:29,850909
-2,-2,-2,1,1,1,1,-2,2021-08-07 12:45:29,850909
-4,-5,-5,-4,-3,-2,-3,-2,2021-08-07 12:45:29,850909
1,5,4,2,1,1,1,1,2021-08-07 12:45:29,863909
0,1,-1,1,-1,2,0,-2,2021-08-07 12:45:29,863909
-1,-3,-3,-3,-3,-4,-2,-2,2021-08-07 12:45:29,863909
-3,-4,-2,-5,-8,-7,-4,-3,2021-08-07 12:45:29,863909
0,-3,-1,1,2,1,0,-2,2021-08-07 12:45:29,881907
2,3,3,10,17,9,6,1,2021-08-07 12:45:29,881907
-1,0,0,1,-2,-2,0,2,2021-08-07 12:45:29,897907
-2,-2,-2,-2,-2,0,-1,0,2021-08-07 12:45:29,913909
-3,-2,-5,-6,-7,-8,-5,-2,2021-08-07 12:45:29,913909
1,-3,-2,-5,-5,-2,-1,1,2021-08-07 12:45:29,913909
0,-1,-1,5,6,3,1,-2,2021-08-07 12:45:29,913909
0,-3,-3,-2,3,0,0,-1,2021-08-07 12:45:29,913909
2,3,3,2,-2,0,0,0,2021-08-07 12:45:29,929909
-1,2,-1,-2,-3,-1,-1,0,2021-08-07 12:45:29,945908
-1,-1,-3,-2,-1,0,-2,-1,2021-08-07 12:45:29,945908
-1,-1,-1,-1,1,1,1,-2,2021-08-07 12:45:29,945908
-2,-4,-5,-4,-9,-6,-2,-3,2021-08-07 12:45:29,961907
1,-1,1,1,6,3,1,1,2021-08-07 12:45:29,961907
1,1,1,1,-1,0,0,1,2021-08-07 12:45:29,961907
-1,1,1,4,6,2,1,0,2021-08-07 12:45:29,961907
-3,-4,-5,-8,-5,-4,-5,-4,2021-08-07 12:45:29,961907
1,1,1,0,-3,-2,0,1,2021-08-07 12:45:29,961907
-2,-3,-3,-1,0,1,-2,-3,2021-08-07 12:45:29,977908
2,4,6,2,2,4,2,3,2021-08-07 12:45:29,977908
-2,1,-2,-5,-6,-4,-1,1,2021-08-07 12:45:29,993908
-2,-1,0,1,2,2,0,-2,2021-08-07 12:45:30,008907
-1,-2,-2,-5,-7,-7,-2,-4,2021-08-07 12:45:30,008907
2,3,3,0,6,6,4,3,2021-08-07 12:45:30,008907
-2,-3,-4,4,5,1,0,-2,2021-08-07 12:45:30,008907
-2,-3,-3,-5,-2,-2,-3,-1,2021-08-07 12:45:30,008907
0,0,2,2,3,0,-1,1,2021-08-07 12:45:30,008907
-1,-1,-5,-5,-11,-9,-5,-4,2021-08-07 12:45:30,008907
-3,-2,0,-5,-8,-4,-3,-1,2021-08-07 12:45:30,039909
1,0,0,8,15,9,3,1,2021-08-07 12:45:30,055908
-5,-5,-6,-10,-12,-8,-5,-1,2021-08-07 12:45:30,071910
2,1,1,3,2,1,-1,2,2021-08-07 12:45:30,087910
-2,-3,-3,-3,-6,-5,-4,-2,2021-08-07 12:45:30,087910
-2,-4,-5,-3,-4,-1,-1,-3,2021-08-07 12:45:30,087910
0,0,-1,-1,-7,-5,-3,-1,2021-08-07 12:45:30,087910
-1,1,2,-3,-7,-2,0,0,2021-08-07 12:45:30,087910
3,5,5,15,27,16,8,3,2021-08-07 12:45:30,087910
1,-1,-2,-6,-9,-7,-2,0,2021-08-07 12:45:30,088909
0,3,5,3,5,4,3,2,2021-08-07 12:45:30,088909
-4,-6,-5,-7,-10,-9,-6,-5,2021-08-07 12:45:30,088909
-1,-2,-2,-3,-4,-2,-1,-2,2021-08-07 12:45:30,088909
-1,-2,-2,0,0,1,0,0,2021-08-07 12:45:30,088909
3,5,5,4,7,5,3,2,2021-08-07 12:45:30,102911
-3,-5,-5,-3,-7,-4,-3,-4,2021-08-07 12:45:30,102911
1,0,0,-2,2,2,1,0,2021-08-07 12:45:30,118911
0,2,0,2,-1,-2,1,1,2021-08-07 12:45:30,118911
-2,-5,-5,-6,-8,-3,-4,-4,2021-08-07 12:45:30,118911
-2,0,1,-1,5,5,1,-1,2021-08-07 12:45:30,118911
2,2,3,2,4,2,2,0,2021-08-07 12:45:30,134909
-1,0,1,-3,-4,-1,-2,-1,2021-08-07 12:45:30,134909
0,2,2,2,9,5,2,2,2021-08-07 12:45:30,134909
-1,-2,-3,-5,-8,-3,-2,-2,2021-08-07 12:45:30,134909
-1,-4,0,5,5,1,0,0,2021-08-07 12:45:30,150907
-2,-1,-1,-6,-11,-10,-4,-1,2021-08-07 12:45:30,150907
-2,-3,-4,-2,1,2,0,-2,2021-08-07 12:45:30,150907
2,4,4,5,12,8,4,4,2021-08-07 12:45:30,150907
-3,-3,-4,-5,-7,-5,-3,-2,2021-08-07 12:45:30,181909
0,-2,1,2,2,2,1,-1,2021-08-07 12:45:30,197907
-2,-2,-3,-2,-7,-5,-1,-3,2021-08-07 12:45:30,197907
-2,-4,-4,-1,-4,-1,-1,-2,2021-08-07 12:45:30,197907
0,3,1,4,2,-1,1,0,2021-08-07 12:45:30,197907
1,2,0,1,-2,0,-1,0,2021-08-07 12:45:30,197907
-2,-2,-2,-2,-3,-2,-4,-1,2021-08-07 12:45:30,197907
0,0,-1,4,7,2,0,0,2021-08-07 12:45:30,197907
-1,-4,-8,-9,-10,-4,-3,-3,2021-08-07 12:45:30,213908
0,0,-1,-1,-2,0,1,1,2021-08-07 12:45:30,229907
2,1,2,2,3,2,3,2,2021-08-07 12:45:30,229907
-1,0,-1,1,4,1,0,0,2021-08-07 12:45:30,229907
-2,-4,-1,-2,-3,-2,-3,-1,2021-08-07 12:45:30,229907
-4,-5,-3,3,3,-1,-2,-5,2021-08-07 12:45:30,229907
0,1,1,0,4,2,1,0,2021-08-07 12:45:30,229907
-1,1,5,0,0,-3,-1,0,2021-08-07 12:45:30,244909
-2,-3,-3,-6,-13,-9,-6,-2,2021-08-07 12:45:30,255910
-1,-1,-1,-3,-2,-2,-1,-1,2021-08-07 12:45:30,255910
0,1,-1,0,-2,-1,-1,-1,2021-08-07 12:45:30,255910
3,2,3,5,7,4,3,0,2021-08-07 12:45:30,256911
-1,-1,-3,-3,-3,-1,-3,0,2021-08-07 12:45:30,276909
-3,-4,-4,-3,-2,-2,-3,0,2021-08-07 12:45:30,276909
-1,-1,-2,-1,0,3,-1,-2,2021-08-07 12:45:30,276909
1,3,4,3,2,1,0,-1,2021-08-07 12:45:30,276909
-1,-2,-3,-4,-5,-6,-3,-4,2021-08-07 12:45:30,292909
1,1,1,2,-1,-1,-1,0,2021-08-07 12:45:30,308908
-4,-7,-5,-4,-7,-6,-6,-4,2021-08-07 12:45:30,308908
0,-1,-2,-1,3,4,1,1,2021-08-07 12:45:30,308908
3,4,5,5,8,6,6,3,2021-08-07 12:45:30,308908
0,-1,1,1,-1,0,-1,-1,2021-08-07 12:45:30,308908
0,0,2,4,4,3,0,1,2021-08-07 12:45:30,308908
1,0,1,2,1,-1,-2,-1,2021-08-07 12:45:30,308908
-3,-4,-5,-7,-7,-4,-2,-1,2021-08-07 12:45:30,339908
-1,-3,-4,-10,-13,-8,-5,-2,2021-08-07 12:45:30,355907
-1,-3,-2,-3,-1,0,-1,-2,2021-08-07 12:45:30,371909
0,-3,-3,-1,-3,-3,-2,-2,2021-08-07 12:45:30,387910
2,2,7,18,20,14,6,1,2021-08-07 12:45:30,403910
1,2,5,0,4,4,5,2,2021-08-07 12:45:30,403910
-8,-11,-18,-28,-42,-34,-21,-9,2021-08-07 12:45:30,403910
0,-4,-4,-2,-7,-4,-1,1,2021-08-07 12:45:30,403910
2,2,3,1,-3,0,-1,0,2021-08-07 12:45:30,403910
1,3,6,8,17,13,6,2,2021-08-07 12:45:30,404910
-2,0,3,-3,-5,-3,1,-3,2021-08-07 12:45:30,404910
2,6,5,15,29,20,10,5,2021-08-07 12:45:30,404910
0,-3,-3,5,8,1,0,0,2021-08-07 12:45:30,404910
-1,-1,-2,-1,-1,-1,-3,0,2021-08-07 12:45:30,404910
-1,-2,-1,2,3,-1,0,0,2021-08-07 12:45:30,404910
-5,-7,-7,-12,-20,-14,-6,-6,2021-08-07 12:45:30,404910
-2,-2,-2,-5,-11,-5,-5,-2,2021-08-07 12:45:30,419908
0,1,-2,-2,-3,-3,-1,1,2021-08-07 12:45:30,419908
2,4,4,9,13,9,3,3,2021-08-07 12:45:30,419908
-1,-2,-1,-2,-4,-2,-3,-2,2021-08-07 12:45:30,419908
-2,-2,-2,-7,-6,-2,-1,-1,2021-08-07 12:45:30,435909
-1,-2,-2,-5,-4,-3,-3,-3,2021-08-07 12:45:30,435909
2,3,3,5,8,6,2,1,2021-08-07 12:45:30,435909
-2,-1,-2,-2,-1,-1,-1,-3,2021-08-07 12:45:30,435909
-1,-1,0,-4,-7,-4,-1,-2,2021-08-07 12:45:30,466909
-2,-1,-4,-3,-7,-3,-1,-2,2021-08-07 12:45:30,466909
-1,-2,1,2,6,4,1,-1,2021-08-07 12:45:30,466909
3,4,2,-1,1,0,1,3,2021-08-07 12:45:30,466909
-2,-3,-5,-5,-5,-3,-2,-2,2021-08-07 12:45:30,466909
2,3,1,3,6,5,2,2,2021-08-07 12:45:30,466909
2,4,7,15,21,11,6,4,2021-08-07 12:45:30,482907
-3,-4,-5,-13,-20,-13,-7,-2,2021-08-07 12:45:30,482907
-2,0,-2,-3,-5,1,-2,0,2021-08-07 12:45:30,498909
-2,-2,-2,1,6,1,-1,-2,2021-08-07 12:45:30,514909
-1,-1,0,2,1,1,-1,-1,2021-08-07 12:45:30,514909
-3,-4,-2,-2,-5,-2,-3,-3,2021-08-07 12:45:30,514909
1,2,0,1,1,1,-1,-1,2021-08-07 12:45:30,514909
-2,-2,-4,-7,-9,-5,-4,-2,2021-08-07 12:45:30,514909
-1,-1,-2,-7,-7,-2,-1,-2,2021-08-07 12:45:30,514909
-1,-1,0,-2,-5,-6,0,-1,2021-08-07 12:45:30,514909
0,2,1,7,17,10,5,2,2021-08-07 12:45:30,530909
-2,-2,-2,0,-1,0,1,1,2021-08-07 12:45:30,530909
0,-2,-1,-1,1,-1,-1,0,2021-08-07 12:45:30,546909
-2,-3,-3,-3,-2,-1,-3,-1,2021-08-07 12:45:30,562908
3,6,8,2,-2,0,2,0,2021-08-07 12:45:30,562908
-3,-5,-5,-5,-8,-6,-4,-4,2021-08-07 12:45:30,562908
4,3,3,5,5,5,3,4,2021-08-07 12:45:30,562908
-2,-5,-2,-7,-11,-6,-5,-4,2021-08-07 12:45:30,562908
-3,-5,-6,-12,-14,-9,-5,-3,2021-08-07 12:45:30,578907
-2,1,1,6,9,4,1,1,2021-08-07 12:45:30,594908
2,4,4,12,14,9,3,1,2021-08-07 12:45:30,594908
0,1,-2,3,10,6,1,0,2021-08-07 12:45:30,594908
-1,-2,-4,-5,-7,-6,-5,-2,2021-08-07 12:45:30,594908
-3,-4,-2,-6,-15,-9,-5,-5,2021-08-07 12:45:30,594908
-5,-7,-9,-8,-6,-5,-3,-4,2021-08-07 12:45:30,594908
2,4,5,4,4,3,2,1,2021-08-07 12:45:30,595909
0,-1,0,2,5,1,1,-1,2021-08-07 12:45:30,624910
1,-1,-1,-2,-2,-3,1,-1,2021-08-07 12:45:30,640907
-2,-4,-4,-4,-6,-2,0,-1,2021-08-07 12:45:30,656907
-2,1,0,0,-1,1,0,0,2021-08-07 12:45:30,656907
-1,-2,-3,-3,-2,-1,-1,1,2021-08-07 12:45:30,656907
1,1,1,1,-1,-1,-2,0,2021-08-07 12:45:30,656907
-2,-1,-3,-10,-12,-5,-4,-1,2021-08-07 12:45:30,656907
-5,-8,-7,-8,-6,-5,-4,-4,2021-08-07 12:45:30,656907
5,6,6,9,12,6,5,3,2021-08-07 12:45:30,672909
2,2,3,8,10,6,1,2,2021-08-07 12:45:30,672909
-1,-2,-3,-4,-6,-5,-1,-2,2021-08-07 12:45:30,672909
-2,-2,-1,0,1,-2,-3,-2,2021-08-07 12:45:30,672909
-8,-8,-10,-11,-17,-12,-9,-8,2021-08-07 12:45:30,672909
0,-2,0,3,8,6,4,0,2021-08-07 12:45:30,672909
4,7,9,8,13,11,5,5,2021-08-07 12:45:30,673910
-1,0,-3,-1,-3,-1,-1,0,2021-08-07 12:45:30,673910
0,-1,1,3,5,2,1,0,2021-08-07 12:45:30,704909
-2,-2,-5,-5,-11,-8,-3,-3,2021-08-07 12:45:30,720909
-3,-5,-4,-3,-8,-8,-4,-2,2021-08-07 12:45:30,720909
-1,0,-1,3,8,5,2,-3,2021-08-07 12:45:30,720909
3,6,6,5,5,5,2,3,2021-08-07 12:45:30,720909
0,0,0,-3,-3,-2,-1,-2,2021-08-07 12:45:30,720909
-2,-2,-2,-6,-6,-4,-3,-3,2021-08-07 12:45:30,720909
3,2,4,3,2,2,2,3,2021-08-07 12:45:30,721909
-5,-5,-7,-9,-15,-8,-5,-3,2021-08-07 12:45:30,736908
1,-1,-2,1,5,4,2,1,2021-08-07 12:45:30,736908
0,1,0,-1,-3,-2,0,-1,2021-08-07 12:45:30,736908
2,4,4,6,8,5,2,1,2021-08-07 12:45:30,736908
0,-1,-2,0,1,-2,0,-3,2021-08-07 12:45:30,767908
1,1,3,4,8,6,2,0,2021-08-07 12:45:30,767908
-2,-5,-5,-7,-8,-8,-4,-3,2021-08-07 12:45:30,767908
0,1,-1,-4,-6,-2,-1,1,2021-08-07 12:45:30,767908
0,-1,1,5,7,1,1,0,2021-08-07 12:45:30,767908
-2,0,0,0,-3,-1,0,0,2021-08-07 12:45:30,767908
-2,-3,-1,4,2,1,0,-2,2021-08-07 12:45:30,783909
-1,-1,-1,-5,-4,-5,-4,-2,2021-08-07 12:45:30,783909
2,0,-1,1,1,3,2,1,2021-08-07 12:45:30,799909
0,-1,-1,-3,-4,0,-2,0,2021-08-07 12:45:30,799909
-2,0,0,1,0,-1,-2,0,2021-08-07 12:45:30,799909
-2,1,1,2,2,1,0,0,2021-08-07 12:45:30,799909
0,-1,-1,-1,-1,0,0,0,2021-08-07 12:45:30,815910
-2,-2,-2,-1,-1,-1,-2,-1,2021-08-07 12:45:30,831909
-2,-3,-4,-2,-3,-2,-2,-2,2021-08-07 12:45:30,831909
1,1,2,2,2,0,3,0,2021-08-07 12:45:30,831909
-3,-3,-3,-7,-6,-5,-4,-2,2021-08-07 12:45:30,831909
-1,0,2,2,5,3,1,-2,2021-08-07 12:45:30,831909
0,1,1,1,0,1,0,-1,2021-08-07 12:45:30,847909
-2,-4,-3,0,0,-1,-1,-1,2021-08-07 12:45:30,847909
-3,-1,-1,-5,-8,-5,-4,-1,2021-08-07 12:45:30,862908
1,0,0,-2,-7,-5,-2,-1,2021-08-07 12:45:30,878911
2,1,2,4,11,9,4,1,2021-08-07 12:45:30,878911
-1,-2,-1,3,4,2,-1,-2,2021-08-07 12:45:30,878911
-2,-1,-1,0,-2,-1,0,-2,2021-08-07 12:45:30,878911
-1,-2,-5,-8,-9,-8,-2,-2,2021-08-07 12:45:30,878911
1,1,2,-3,-4,-3,2,0,2021-08-07 12:45:30,878911
0,0,1,-4,-5,-1,0,1,2021-08-07 12:45:30,879909
-3,-4,-4,-5,-4,-3,-5,-3,2021-08-07 12:45:30,910908
-3,-2,0,8,10,5,0,-1,2021-08-07 12:45:30,910908
2,2,1,3,9,5,4,2,2021-08-07 12:45:30,910908
2,3,2,4,2,1,2,2,2021-08-07 12:45:30,910908
0,-1,-1,-3,-3,-5,0,-1,2021-08-07 12:45:30,942910
-2,-1,0,-5,-4,-2,-2,0,2021-08-07 12:45:30,942910
-3,-6,-6,-6,-10,-7,-6,-6,2021-08-07 12:45:30,942910
-3,-1,-2,-7,-6,-2,-2,-2,2021-08-07 12:45:30,942910
2,4,5,11,12,9,4,4,2021-08-07 12:45:30,942910
-1,-3,-4,3,3,-1,-2,-1,2021-08-07 12:45:30,942910
-1,-1,0,-2,-2,-1,-1,-1,2021-08-07 12:45:30,943909
-1,1,0,-3,-7,-3,-2,1,2021-08-07 12:45:30,943909
-2,-3,-5,-4,-3,-1,-1,0,2021-08-07 12:45:30,958909
-2,-1,0,-3,-3,-1,-2,0,2021-08-07 12:45:30,958909
0,2,2,1,-3,-1,1,0,2021-08-07 12:45:30,958909
1,-2,-1,1,1,-1,1,-2,2021-08-07 12:45:30,958909
0,-2,-1,-1,-3,-1,-2,0,2021-08-07 12:45:30,990910
-2,-2,-4,0,2,0,-1,-1,2021-08-07 12:45:31,006908
-1,1,1,0,1,0,0,0,2021-08-07 12:45:31,006908
-1,-2,-4,-2,-4,-2,-3,-2,2021-08-07 12:45:31,006908
0,-1,0,-4,-2,-1,-1,-2,2021-08-07 12:45:31,006908
3,3,5,2,8,4,1,1,2021-08-07 12:45:31,006908
0,0,0,3,1,1,0,-1,2021-08-07 12:45:31,006908
0,0,-1,1,2,1,-1,1,2021-08-07 12:45:31,006908
-1,0,-1,-5,-4,-2,-1,-1,2021-08-07 12:45:31,022909
-5,-2,-3,-9,-15,-10,-5,-4,2021-08-07 12:45:31,038908
-1,-2,0,-2,-7,-6,-2,-2,2021-08-07 12:45:31,038908
5,5,7,17,27,15,7,5,2021-08-07 12:45:31,038908
3,2,-1,5,1,0,1,2,2021-08-07 12:45:31,038908
-1,0,-3,-9,-4,-3,0,0,2021-08-07 12:45:31,038908
-3,-7,-7,-10,-7,-5,-4,-2,2021-08-07 12:45:31,038908
-2,-4,-5,-8,-11,-8,-4,-1,2021-08-07 12:45:31,038908
1,0,1,4,6,5,2,-1,2021-08-07 12:45:31,054908
1,2,3,10,5,1,1,-2,2021-08-07 12:45:31,054908
-6,-5,-6,-6,-5,-5,-6,-5,2021-08-07 12:45:31,070908
0,2,1,-5,-8,-5,-3,-3,2021-08-07 12:45:31,086908
-2,0,-3,1,7,5,2,0,2021-08-07 12:45:31,086908
-2,-4,-3,0,1,-1,-2,-2,2021-08-07 12:45:31,086908
2,6,2,3,1,1,1,3,2021-08-07 12:45:31,086908
0,1,1,-2,-2,2,0,1,2021-08-07 12:45:31,086908
2,3,4,-1,2,0,1,0,2021-08-07 12:45:31,101909
-2,-4,-8,-9,-8,-4,-2,-2,2021-08-07 12:45:31,115907
-1,-3,-5,-1,1,-1,-1,-1,2021-08-07 12:45:31,115907
-3,-4,-3,-2,-5,-6,-2,-1,2021-08-07 12:45:31,115907
-2,-5,-4,-7,-13,-9,-4,-4,2021-08-07 12:45:31,115907
0,3,3,2,4,4,2,1,2021-08-07 12:45:31,115907
-1,0,3,1,0,2,0,-1,2021-08-07 12:45:31,115907
1,2,0,5,11,9,5,0,2021-08-07 12:45:31,132909
-1,0,1,3,5,0,0,0,2021-08-07 12:45:31,132909
-1,-4,-2,-1,-4,-3,-2,0,2021-08-07 12:45:31,132909
0,1,-1,-3,-2,-1,0,0,2021-08-07 12:45:31,147909
-1,-2,-2,-7,-10,-8,-4,-3,2021-08-07 12:45:31,163909
-2,-4,-3,-1,1,0,-1,-1,2021-08-07 12:45:31,179910
1,1,1,-4,-6,-3,0,0,2021-08-07 12:45:31,179910
2,3,2,0,2,3,2,2,2021-08-07 12:45:31,179910
1,0,1,4,12,6,3,0,2021-08-07 12:45:31,179910
-2,0,-2,-3,-5,-5,-1,-2,2021-08-07 12:45:31,179910
-4,-8,-9,-9,-10,-7,-4,-5,2021-08-07 12:45:31,179910
4,5,7,6,7,2,3,1,2021-08-07 12:45:31,195909
0,-2,-4,0,-6,-4,-3,-1,2021-08-07 12:45:31,211907
1,3,3,-1,0,2,3,1,2021-08-07 12:45:31,227909
-3,-3,-5,-6,-10,-6,-3,-4,2021-08-07 12:45:31,243912
-2,-4,-2,-5,-2,0,-2,0,2021-08-07 12:45:31,243912
1,2,2,5,5,2,1,2,2021-08-07 12:45:31,243912
-3,-6,-6,-7,-6,-3,-4,-2,2021-08-07 12:45:31,243912
4,5,6,7,10,5,2,2,2021-08-07 12:45:31,243912
-2,-3,-4,0,2,1,1,0,2021-08-07 12:45:31,243912
-2,0,0,-2,-5,-5,-2,-2,2021-08-07 12:45:31,244909
0,-2,-1,-1,-3,-2,-3,-2,2021-08-07 12:45:31,244909
1,0,3,3,0,-1,0,1,2021-08-07 12:45:31,244909
-2,-1,-4,-2,1,1,-1,-3,2021-08-07 12:45:31,244909
-1,0,-2,-1,1,0,0,-2,2021-08-07 12:45:31,244909
-4,-3,-2,3,0,0,0,-1,2021-08-07 12:45:31,259908
4,7,6,2,6,6,4,4,2021-08-07 12:45:31,259908
-5,-6,-6,-8,-11,-9,-6,-3,2021-08-07 12:45:31,259908
2,4,6,4,6,5,2,2,2021-08-07 12:45:31,259908
-1,-1,-3,-2,-2,-1,0,-1,2021-08-07 12:45:31,291910
-2,-3,-2,0,-3,-3,-2,0,2021-08-07 12:45:31,307909
0,-1,-1,0,-1,1,1,0,2021-08-07 12:45:31,323909
-5,-3,-4,-8,-8,-6,-5,-4,2021-08-07 12:45:31,323909
1,3,3,4,6,7,3,3,2021-08-07 12:45:31,323909
-2,0,2,6,9,4,1,-3,2021-08-07 12:45:31,323909
-3,-3,-3,-5,-6,-2,-3,-4,2021-08-07 12:45:31,323909
0,1,2,2,2,0,3,3,2021-08-07 12:45:31,324909
-1,1,0,2,5,5,2,1,2021-08-07 12:45:31,324909
-1,-1,-3,-9,-9,-5,-2,-1,2021-08-07 12:45:31,324909
-1,-1,0,5,3,-3,0,-1,2021-08-07 12:45:31,324909
-2,-3,-4,-4,-8,-5,-5,-2,2021-08-07 12:45:31,324909
0,-1,1,0,1,-2,-2,-2,2021-08-07 12:45:31,355909
0,1,2,0,4,5,1,2,2021-08-07 12:45:31,371909
-1,-1,-1,1,2,0,0,-1,2021-08-07 12:45:31,403909
-1,-3,-1,-3,-3,1,-1,-1,2021-08-07 12:45:31,403909
-1,-3,-2,0,-3,-5,0,-1,2021-08-07 12:45:31,403909
-2,-5,-5,-9,-12,-5,-4,-2,2021-08-07 12:45:31,403909
5,3,4,10,11,5,3,2,2021-08-07 12:45:31,403909
0,0,-3,-1,-1,0,-1,0,2021-08-07 12:45:31,403909
-1,-4,-3,-7,-4,-3,-3,-1,2021-08-07 12:45:31,403909
0,4,5,9,5,0,2,-1,2021-08-07 12:45:31,404909
-4,-2,-5,-10,-10,-5,-4,-1,2021-08-07 12:45:31,404909
0,1,2,1,3,2,3,1,2021-08-07 12:45:31,404909
1,0,0,-1,-1,-1,-1,0,2021-08-07 12:45:31,404909
-3,-3,-4,-2,-4,-4,-1,-1,2021-08-07 12:45:31,404909
-1,-1,-2,1,1,1,-1,0,2021-08-07 12:45:31,404909
-3,-4,-4,0,2,1,-2,-4,2021-08-07 12:45:31,404909
5,4,2,-1,-1,-1,1,2,2021-08-07 12:45:31,418909
0,-2,-2,-4,-11,-7,-4,-1,2021-08-07 12:45:31,418909
-2,-3,-2,-4,-9,-3,-3,-2,2021-08-07 12:45:31,418909
1,1,0,2,8,4,2,0,2021-08-07 12:45:31,418909
-3,-3,-3,0,-2,-1,-2,-1,2021-08-07 12:45:31,448909
2,5,3,3,1,1,3,3,2021-08-07 12:45:31,464910
1,2,2,3,4,2,2,2,2021-08-07 12:45:31,479909
0,-2,0,-1,-1,-1,0,-1,2021-08-07 12:45:31,479909
-2,-3,-4,-3,-3,-4,-4,-3,2021-08-07 12:45:31,479909
1,1,2,0,-3,-2,-2,1,2021-08-07 12:45:31,479909
-3,-5,-5,-8,-7,-2,-2,-3,2021-08-07 12:45:31,479909
2,4,6,8,7,6,2,3,2021-08-07 12:45:31,479909
1,1,1,-3,-2,-2,-2,0,2021-08-07 12:45:31,479909
-4,-6,-6,-8,-2,-1,-3,-2,2021-08-07 12:45:31,479909
0,1,2,-4,-5,-4,-2,-2,2021-08-07 12:45:31,480910
-3,-3,-2,0,2,-1,-2,-1,2021-08-07 12:45:31,480910
-1,1,2,2,-3,-1,0,-1,2021-08-07 12:45:31,511909
-1,2,1,3,1,0,0,1,2021-08-07 12:45:31,527909
0,-2,0,2,2,-1,1,0,2021-08-07 12:45:31,527909
-3,-5,-6,-10,-13,-6,-3,-4,2021-08-07 12:45:31,527909
2,4,4,9,9,6,5,3,2021-08-07 12:45:31,527909
1,0,0,3,5,3,1,-2,2021-08-07 12:45:31,527909
0,-1,-1,-4,-4,-3,0,0,2021-08-07 12:45:31,527909
1,0,-1,-1,-2,-3,-1,0,2021-08-07 12:45:31,527909
0,-1,-2,-4,-2,2,0,-1,2021-08-07 12:45:31,527909
0,-2,-2,2,5,2,1,-1,2021-08-07 12:45:31,527909
-1,-1,2,2,1,-1,-2,-1,2021-08-07 12:45:31,542909
-1,-3,-2,-4,-8,-6,-3,-1,2021-08-07 12:45:31,542909
-2,-2,-2,3,-2,-3,0,-2,2021-08-07 12:45:31,552909
0,1,-1,-4,0,2,2,1,2021-08-07 12:45:31,553910
1,1,2,5,15,5,2,1,2021-08-07 12:45:31,553910
-4,-3,-4,-7,-8,-5,-4,-1,2021-08-07 12:45:31,553910
2,0,0,1,3,2,0,-1,2021-08-07 12:45:31,589908
-1,-1,-1,1,-2,-1,-1,-2,2021-08-07 12:45:31,605910
0,1,-1,-2,-3,-1,2,1,2021-08-07 12:45:31,621909
-2,-4,-3,-5,-3,-3,-2,-3,2021-08-07 12:45:31,621909
-2,-2,-1,-5,-7,-5,-3,0,2021-08-07 12:45:31,621909
-1,-3,0,7,6,2,-1,-2,2021-08-07 12:45:31,621909
1,-3,-2,-1,-1,-2,0,-1,2021-08-07 12:45:31,621909
3,6,4,-1,4,5,3,5,2021-08-07 12:45:31,621909
0,0,2,-5,-5,0,-1,0,2021-08-07 12:45:31,621909
-5,-6,-11,-8,-7,-4,-5,-3,2021-08-07 12:45:31,621909
-2,-2,0,6,4,3,0,-1,2021-08-07 12:45:31,621909
-3,-5,-6,-1,-3,-1,-1,-5,2021-08-07 12:45:31,621909
4,6,6,2,4,2,1,2,2021-08-07 12:45:31,653909
-2,-3,-3,-3,-2,-4,-2,-1,2021-08-07 12:45:31,669909
3,5,4,2,-1,0,2,3,2021-08-07 12:45:31,669909
-1,1,3,1,0,-1,0,-2,2021-08-07 12:45:31,669909
-1,-1,-5,4,7,3,-1,-1,2021-08-07 12:45:31,669909
-2,-6,-5,-4,-7,-6,-1,-2,2021-08-07 12:45:31,669909
-2,-4,-5,-5,-5,-4,-3,-1,2021-08-07 12:45:31,669909
1,1,-1,0,0,-2,1,0,2021-08-07 12:45:31,669909
-4,-2,-1,-6,-3,-2,-2,-3,2021-08-07 12:45:31,685908
0,0,0,-6,-2,-1,-3,-1,2021-08-07 12:45:31,685908
-1,0,2,4,3,4,1,0,2021-08-07 12:45:31,685908
2,4,5,8,9,5,3,2,2021-08-07 12:45:31,685908
-3,-5,-9,-9,-10,-6,-2,-3,2021-08-07 12:45:31,700909
-1,0,-2,-4,-6,-5,-3,-1,2021-08-07 12:45:31,700909
0,-1,1,-4,-3,-1,-3,-2,2021-08-07 12:45:31,700909
0,-1,0,3,3,3,0,0,2021-08-07 12:45:31,700909
-3,-1,0,3,-1,-2,0,-1,2021-08-07 12:45:31,732908
1,2,1,4,7,5,4,1,2021-08-07 12:45:31,732908
-3,-2,-2,-6,-8,-5,-4,-2,2021-08-07 12:45:31,732908
2,1,1,2,5,5,2,2,2021-08-07 12:45:31,732908
-2,-4,-3,-3,-3,-4,-3,-2,2021-08-07 12:45:31,732908
2,3,6,11,17,8,4,2,2021-08-07 12:45:31,732908
2,2,0,2,5,4,4,-1,2021-08-07 12:45:31,764908
-3,-1,-3,-4,-3,-6,-2,-1,2021-08-07 12:45:31,764908
-3,-6,-5,-4,-7,-7,-5,-5,2021-08-07 12:45:31,764908
-1,-1,2,-1,-9,-5,-3,0,2021-08-07 12:45:31,764908
1,-1,-2,-3,-1,-2,0,1,2021-08-07 12:45:31,764908
-3,-6,-6,-6,-10,-7,-4,-4,2021-08-07 12:45:31,764908
1,1,4,4,5,5,3,2,2021-08-07 12:45:31,796909
1,1,1,-2,-5,-2,0,0,2021-08-07 12:45:31,812908
-1,-1,-2,1,0,0,0,0,2021-08-07 12:45:31,812908
-3,-1,-3,-4,-6,-4,-2,-1,2021-08-07 12:45:31,812908
0,-1,0,-1,2,0,0,-3,2021-08-07 12:45:31,812908
-2,-3,0,0,1,-1,-1,-2,2021-08-07 12:45:31,812908
-4,-7,-4,-7,-11,-7,-5,-5,2021-08-07 12:45:31,812908
4,5,5,9,4,3,3,3,2021-08-07 12:45:31,812908
1,3,2,8,14,7,3,4,2021-08-07 12:45:31,828909
-1,-2,-3,-4,-5,-3,-2,-2,2021-08-07 12:45:31,844908
-1,1,1,-2,-4,-4,-2,-2,2021-08-07 12:45:31,876908
-3,-7,-5,0,1,-2,-4,-3,2021-08-07 12:45:31,891910
2,1,2,-1,-3,2,1,0,2021-08-07 12:45:31,891910
1,3,2,0,-2,-1,-1,1,2021-08-07 12:45:31,891910
-2,-1,-1,0,3,2,0,-1,2021-08-07 12:45:31,891910
-4,-5,-5,-6,-8,-4,-2,-3,2021-08-07 12:45:31,891910
0,1,0,-5,-8,-5,-2,-2,2021-08-07 12:45:31,891910
-2,-2,-2,-3,-4,-3,-3,-1,2021-08-07 12:45:31,891910
3,5,3,6,8,5,3,2,2021-08-07 12:45:31,891910
1,1,-3,-2,0,2,1,3,2021-08-07 12:45:31,892909
-1,-6,-5,-2,-1,-1,0,1,2021-08-07 12:45:31,892909
-3,-4,-6,-4,-5,-2,-2,-3,2021-08-07 12:45:31,892909
-2,-2,1,3,4,0,-1,-1,2021-08-07 12:45:31,907908
-2,0,2,-2,0,1,0,-3,2021-08-07 12:45:31,907908
-2,0,0,-1,-6,-3,-2,-2,2021-08-07 12:45:31,907908
-3,-3,-4,-9,-12,-7,-5,-4,2021-08-07 12:45:31,907908
2,4,4,11,22,12,5,2,2021-08-07 12:45:31,907908
2,2,2,-1,1,-1,0,0,2021-08-07 12:45:31,907908
-1,-4,-4,-4,-6,-3,-4,0,2021-08-07 12:45:31,923909
4,4,5,7,7,5,3,3,2021-08-07 12:45:31,923909
-4,-5,-7,-12,-16,-9,-4,-2,2021-08-07 12:45:31,923909
2,2,4,7,1,3,2,1,2021-08-07 12:45:31,923909
1,3,3,4,10,6,4,2,2021-08-07 12:45:31,939909
0,0,0,1,4,2,2,0,2021-08-07 12:45:31,939909
-1,-3,-4,-1,5,3,-1,-2,2021-08-07 12:45:31,955909
-2,-4,-5,-5,-4,-5,-4,-1,2021-08-07 12:45:31,955909
-2,-4,-3,-3,-9,-6,-3,-2,2021-08-07 12:45:31,971909
-3,0,2,2,1,1,0,-2,2021-08-07 12:45:31,971909
2,4,4,1,-2,0,1,1,2021-08-07 12:45:31,971909
-3,-4,-5,-9,-9,-7,-4,-3,2021-08-07 12:45:31,971909
2,4,4,8,12,9,3,2,2021-08-07 12:45:31,971909
-3,-3,-5,-6,-8,-7,-5,-2,2021-08-07 12:45:31,971909
1,-1,0,3,4,3,1,0,2021-08-07 12:45:31,982909
-1,2,0,2,3,2,2,-2,2021-08-07 12:45:31,982909
-2,-1,-4,-4,-2,-1,1,-2,2021-08-07 12:45:32,003909
-3,-5,-4,0,1,0,-2,-3,2021-08-07 12:45:32,003909
2,3,3,-3,-9,-7,-2,1,2021-08-07 12:45:32,003909
-1,0,-2,-8,-6,-3,-2,0,2021-08-07 12:45:32,003909
4,3,5,10,10,4,2,2,2021-08-07 12:45:32,035909
-3,-7,-5,-3,-3,-2,-2,-3,2021-08-07 12:45:32,035909
-2,-4,-6,-5,-4,-4,-3,-2,2021-08-07 12:45:32,035909
2,2,3,2,-1,-1,0,1,2021-08-07 12:45:32,035909
-1,0,1,-4,-8,-4,-3,-1,2021-08-07 12:45:32,035909
1,1,2,6,10,5,2,2,2021-08-07 12:45:32,035909
-3,-4,-5,-6,-11,-7,-7,-4,2021-08-07 12:45:32,051908
1,0,1,2,8,5,2,1,2021-08-07 12:45:32,067910
-2,-2,-2,-4,-1,-3,-2,-2,2021-08-07 12:45:32,067910
-1,-3,-1,-2,-4,-1,-1,-1,2021-08-07 12:45:32,067910
-1,-2,1,-4,-5,-2,-1,0,2021-08-07 12:45:32,067910
0,0,1,5,6,6,1,-2,2021-08-07 12:45:32,067910
0,-1,-2,1,2,3,-2,1,2021-08-07 12:45:32,083909
-1,2,2,-4,-4,-4,-1,1,2021-08-07 12:45:32,099910
2,0,0,3,5,3,3,0,2021-08-07 12:45:32,099910
0,-1,0,-4,-5,-3,-2,0,2021-08-07 12:45:32,099910
-3,-5,-4,-3,-1,-2,-2,-3,2021-08-07 12:45:32,099910
4,5,4,1,3,2,1,3,2021-08-07 12:45:32,099910
-2,-1,0,-2,-7,-4,-1,0,2021-08-07 12:45:32,099910
-2,-4,-5,-5,-7,-5,-2,-2,2021-08-07 12:45:32,099910
-1,0,-1,2,5,3,2,1,2021-08-07 12:45:32,131909
3,2,2,3,4,2,3,2,2021-08-07 12:45:32,147909
1,3,4,6,12,7,3,2,2021-08-07 12:45:32,147909
-2,-2,0,-1,-3,-4,-3,-3,2021-08-07 12:45:32,147909
-2,-3,-3,-6,-8,-3,-2,-3,2021-08-07 12:45:32,147909
-2,-6,-5,-1,-4,-3,-4,-3,2021-08-07 12:45:32,147909
-2,-1,-1,-3,-9,-7,-3,-2,2021-08-07 12:45:32,147909
0,-2,0,-4,-1,0,0,0,2021-08-07 12:45:32,147909
1,2,1,3,6,3,2,-1,2021-08-07 12:45:32,163907
-2,-1,-2,3,7,3,0,-1,2021-08-07 12:45:32,163907
-2,-4,-5,-2,-1,-1,-1,-2,2021-08-07 12:45:32,163907
1,0,0,-1,-2,0,1,0,2021-08-07 12:45:32,163907
-1,2,2,1,0,-3,-2,1,2021-08-07 12:45:32,179909
-4,-5,-5,-9,-13,-9,-7,-4,2021-08-07 12:45:32,179909
-1,-1,-2,-7,-13,-7,-4,-1,2021-08-07 12:45:32,179909
4,7,7,14,25,14,6,3,2021-08-07 12:45:32,179909
0,0,0,-2,-2,-2,-1,-1,2021-08-07 12:45:32,210911
0,-1,-1,1,2,2,0,-2,2021-08-07 12:45:32,226911
-3,-5,-4,-3,-3,-6,-4,-2,2021-08-07 12:45:32,226911
0,1,3,1,-5,-3,-2,-1,2021-08-07 12:45:32,226911
-2,-1,-2,1,-1,0,-1,0,2021-08-07 12:45:32,226911
-1,-2,-1,-3,-7,-7,-2,-2,2021-08-07 12:45:32,226911
2,2,2,-4,-3,0,2,1,2021-08-07 12:45:32,226911
1,0,-1,4,10,4,3,-1,2021-08-07 12:45:32,226911
-1,0,0,-1,1,1,0,0,2021-08-07 12:45:32,242908
-5,-5,-5,-5,-4,-3,-1,-3,2021-08-07 12:45:32,258909
1,-3,-2,-3,-4,-3,0,-1,2021-08-07 12:45:32,258909
0,4,0,-1,-5,-2,0,2,2021-08-07 12:45:32,258909
0,0,0,3,4,0,1,0,2021-08-07 12:45:32,273909
1,1,0,-4,-2,-2,-1,2,2021-08-07 12:45:32,273909
-1,-1,-2,-1,7,2,-1,-1,2021-08-07 12:45:32,273909
-6,-8,-8,-8,-11,-8,-5,-4,2021-08-07 12:45:32,273909
3,4,5,4,3,1,2,2,2021-08-07 12:45:32,273909
-2,1,0,0,-3,0,-1,-2,2021-08-07 12:45:32,273909
1,2,3,0,-4,-1,-2,1,2021-08-07 12:45:32,289909
-2,-4,-2,-2,1,1,1,-1,2021-08-07 12:45:32,289909
-1,-3,-2,0,1,-1,0,0,2021-08-07 12:45:32,305909
1,0,0,-1,4,3,1,0,2021-08-07 12:45:32,321909
0,3,5,10,15,9,4,0,2021-08-07 12:45:32,337908
-1,0,0,-1,-7,-5,-2,-1,2021-08-07 12:45:32,353909
-3,-3,-4,-10,-13,-9,-5,-3,2021-08-07 12:45:32,353909
2,1,2,2,2,2,1,1,2021-08-07 12:45:32,353909
0,-1,-1,-1,4,2,1,-1,2021-08-07 12:45:32,353909
1,0,0,1,4,4,0,1,2021-08-07 12:45:32,353909
-3,-3,-3,-3,-5,-6,-3,-2,2021-08-07 12:45:32,354909
0,0,-1,1,2,2,1,-1,2021-08-07 12:45:32,354909
-5,-6,-7,-9,-12,-5,-6,-3,2021-08-07 12:45:32,354909
4,4,6,6,10,7,5,4,2021-08-07 12:45:32,354909
-1,0,0,-6,-5,-2,0,0,2021-08-07 12:45:32,354909
0,2,1,-1,-2,-2,-1,0,2021-08-07 12:45:32,354909
-1,-3,-3,2,4,2,-1,-1,2021-08-07 12:45:32,369909
-2,-4,-3,-4,-6,-5,-2,-2,2021-08-07 12:45:32,385908
2,1,2,-2,-5,0,0,-1,2021-08-07 12:45:32,400910
1,0,1,4,4,3,1,0,2021-08-07 12:45:32,400910
-2,1,0,0,1,-1,0,0,2021-08-07 12:45:32,400910
-1,-3,-3,0,-5,-3,-2,-1,2021-08-07 12:45:32,400910
-3,-3,-2,-1,-1,-2,-2,-2,2021-08-07 12:45:32,400910
-3,-5,-6,-6,-3,-3,-3,-4,2021-08-07 12:45:32,400910
5,4,5,4,1,3,2,3,2021-08-07 12:45:32,400910
-2,-1,-2,-2,-1,-1,-2,-1,2021-08-07 12:45:32,400910
-1,-1,-1,4,3,4,0,1,2021-08-07 12:45:32,418909
-1,0,-2,-1,-2,-2,0,0,2021-08-07 12:45:32,418909
0,2,1,-1,-2,-1,1,1,2021-08-07 12:45:32,418909
1,-1,-3,-2,-2,-4,-3,-2,2021-08-07 12:45:32,418909
-2,-3,-1,-3,-3,-1,-1,-1,2021-08-07 12:45:32,447909
1,2,4,8,10,3,0,1,2021-08-07 12:45:32,447909
-2,0,-2,-1,-1,2,-1,0,2021-08-07 12:45:32,447909
-4,-8,-7,-5,-3,-1,-3,-3,2021-08-07 12:45:32,447909
3,5,1,-5,-2,-1,-1,1,2021-08-07 12:45:32,463909
-3,-3,-4,-3,-4,-2,-3,-5,2021-08-07 12:45:32,479908
1,1,1,4,7,0,1,-1,2021-08-07 12:45:32,479908
-1,0,-2,-3,-8,-6,-3,-2,2021-08-07 12:45:32,479908
-1,-5,-4,-2,1,0,1,-1,2021-08-07 12:45:32,479908
0,2,3,2,-1,-1,1,0,2021-08-07 12:45:32,479908
-2,-5,-2,-1,1,1,0,-1,2021-08-07 12:45:32,479908
2,7,6,1,0,-1,2,2,2021-08-07 12:45:32,479908
-4,-4,-5,-4,-5,-5,-3,-4,2021-08-07 12:45:32,511908
1,1,3,1,2,1,1,1,2021-08-07 12:45:32,527909
-2,-1,-4,-1,-3,-3,-3,-1,2021-08-07 12:45:32,527909
-1,-2,-1,0,0,0,-1,1,2021-08-07 12:45:32,527909
0,3,2,-3,-3,-3,-2,-1,2021-08-07 12:45:32,527909
-3,-4,-4,-5,-10,-7,-3,-2,2021-08-07 12:45:32,527909
-2,-2,0,-4,0,2,2,1,2021-08-07 12:45:32,528910
-2,0,-1,3,8,5,0,-1,2021-08-07 12:45:32,528910
1,2,2,2,2,0,-1,1,2021-08-07 12:45:32,543909
2,1,0,6,12,7,3,2,2021-08-07 12:45:32,543909
0,1,-1,1,1,1,-1,-1,2021-08-07 12:45:32,543909
-1,-1,0,-3,-3,-3,-1,-2,2021-08-07 12:45:32,543909
-2,-5,-5,-1,-7,-4,-2,-2,2021-08-07 12:45:32,575909
1,2,2,-3,-2,0,0,1,2021-08-07 12:45:32,575909
4,8,7,10,6,3,2,2,2021-08-07 12:45:32,575909
0,1,-1,-1,2,4,2,0,2021-08-07 12:45:32,575909
-4,-5,-4,-2,-5,-4,-5,-5,2021-08-07 12:45:32,575909
-3,-4,-5,-4,-6,-4,-3,-2,2021-08-07 12:45:32,575909
2,1,1,0,1,0,0,1,2021-08-07 12:45:32,591909
-2,0,-3,-5,-6,-3,-2,-1,2021-08-07 12:45:32,607909
0,-1,1,5,10,4,2,0,2021-08-07 12:45:32,607909
-2,-1,-2,1,-3,-3,-1,-1,2021-08-07 12:45:32,607909
-4,-4,-4,-5,-3,-4,-3,-1,2021-08-07 12:45:32,639908
-1,0,-1,-6,-10,-6,-3,-2,2021-08-07 12:45:32,639908
-2,-3,-4,4,7,2,1,-1,2021-08-07 12:45:32,639908
3,5,5,1,1,2,2,3,2021-08-07 12:45:32,639908
0,-1,0,-2,-2,-1,0,-1,2021-08-07 12:45:32,639908
-2,-1,0,4,3,0,0,-1,2021-08-07 12:45:32,639908
-2,0,-2,-1,3,0,0,-1,2021-08-07 12:45:32,639908
-1,-3,-3,1,-1,-2,-2,-1,2021-08-07 12:45:32,639908
-3,-3,-5,-4,-6,-4,-4,-3,2021-08-07 12:45:32,655909
1,0,-1,-2,-3,0,0,3,2021-08-07 12:45:32,671909
4,6,6,3,7,6,4,2,2021-08-07 12:45:32,686908
-4,-2,-4,-3,-3,-3,-2,-3,2021-08-07 12:45:32,686908
-1,-3,-2,-6,-8,-6,-2,-2,2021-08-07 12:45:32,686908
-2,-3,-3,0,2,-1,-3,-3,2021-08-07 12:45:32,686908
2,5,3,-5,-8,-3,0,1,2021-08-07 12:45:32,686908
0,-1,1,1,2,3,-1,0,2021-08-07 12:45:32,686908
1,-2,-4,0,3,2,0,-2,2021-08-07 12:45:32,686908
-1,-7,-5,-2,2,3,0,-2,2021-08-07 12:45:32,686908
-2,-3,-3,-1,-1,-1,0,-1,2021-08-07 12:45:32,718911
-2,-1,-2,1,-1,-2,-3,-4,2021-08-07 12:45:32,718911
-1,-2,1,3,1,1,-1,-2,2021-08-07 12:45:32,718911
-3,-1,1,-1,2,0,-1,-2,2021-08-07 12:45:32,718911
-3,-3,-2,-5,-7,-5,-3,-4,2021-08-07 12:45:32,718911
0,1,-1,-2,-5,-2,0,0,2021-08-07 12:45:32,719910
-1,-2,-4,-10,-16,-10,-5,0,2021-08-07 12:45:32,719910
5,5,5,11,17,10,6,4,2021-08-07 12:45:32,719910
-2,-3,-5,-1,-1,0,-2,-1,2021-08-07 12:45:32,750908
0,-2,1,-2,-1,-1,-1,0,2021-08-07 12:45:32,750908
0,-1,0,-1,-3,-4,-1,0,2021-08-07 12:45:32,750908
-2,-3,-4,-7,-10,-7,-4,-2,2021-08-07 12:45:32,750908
3,2,4,5,7,6,1,1,2021-08-07 12:45:32,766911
-2,-2,-3,-7,-4,-3,-1,-1,2021-08-07 12:45:32,766911
-2,-2,-4,-4,1,1,0,-1,2021-08-07 12:45:32,782909
3,3,5,-2,-4,-3,0,1,2021-08-07 12:45:32,798908
-2,-1,-1,0,0,-1,-1,-1,2021-08-07 12:45:32,813909
-3,-5,-3,-6,-8,-6,-6,-2,2021-08-07 12:45:32,829910
0,2,2,2,4,3,3,0,2021-08-07 12:45:32,845907
-4,-1,-1,4,9,2,1,0,2021-08-07 12:45:32,845907
-2,-5,-5,-6,-8,-7,-4,-1,2021-08-07 12:45:32,845907
4,6,4,9,13,8,5,4,2021-08-07 12:45:32,845907
-5,-3,-4,-8,-12,-9,-6,-3,2021-08-07 12:45:32,845907
7,7,8,10,11,11,5,2,2021-08-07 12:45:32,845907
-1,-2,-3,-7,-6,-4,-2,-2,2021-08-07 12:45:32,845907
-4,-4,-4,-3,-2,-3,0,-2,2021-08-07 12:45:32,846908
1,3,1,4,4,3,1,1,2021-08-07 12:45:32,846908
-2,-3,-5,-5,-9,-5,-3,-2,2021-08-07 12:45:32,846908
-1,0,1,0,2,1,1,-1,2021-08-07 12:45:32,846908
-2,-2,-3,-2,-5,-3,-4,-2,2021-08-07 12:45:32,846908
1,0,0,-1,0,0,1,0,2021-08-07 12:45:32,846908
-3,-3,-3,-4,-6,-4,-2,-1,2021-08-07 12:45:32,846908
2,-2,0,4,6,4,2,2,2021-08-07 12:45:32,877909
-1,1,-2,-1,0,-2,-1,-1,2021-08-07 12:45:32,877909
-3,-4,-5,-7,-11,-6,-5,-2,2021-08-07 12:45:32,877909
3,1,-1,-3,-5,-3,-2,1,2021-08-07 12:45:32,877909
1,3,5,13,21,13,7,4,2021-08-07 12:45:32,893909
2,3,3,5,2,2,1,0,2021-08-07 12:45:32,909909
-2,-2,-3,1,4,0,-1,-3,2021-08-07 12:45:32,925909
-2,-4,-5,-6,-11,-9,-5,-2,2021-08-07 12:45:32,941909
-2,0,-2,-3,-9,-7,-3,-3,2021-08-07 12:45:32,941909
-2,-1,-2,-3,-2,-2,-2,-2,2021-08-07 12:45:32,941909
-1,-2,-1,-2,3,3,2,0,2021-08-07 12:45:32,941909
-2,-1,-3,-2,-1,0,0,0,2021-08-07 12:45:32,941909
-1,1,2,3,3,0,0,-1,2021-08-07 12:45:32,941909
-1,-1,-1,-1,-4,-1,0,-1,2021-08-07 12:45:32,941909
-2,-4,-4,-2,-5,-3,-2,-2,2021-08-07 12:45:32,941909
0,1,2,2,4,2,0,0,2021-08-07 12:45:32,941909
0,0,-1,-6,-5,-2,-2,0,2021-08-07 12:45:32,942909
-1,0,0,4,6,1,1,-1,2021-08-07 12:45:32,942909
-2,-1,0,1,1,0,-1,-1,2021-08-07 12:45:32,957907
-4,-6,-5,-5,-8,-6,-4,-4,2021-08-07 12:45:32,957907
1,2,1,-1,-5,-3,-1,0,2021-08-07 12:45:32,957907
1,-1,0,-4,-4,-1,-3,-2,2021-08-07 12:45:32,957907
-1,2,1,3,5,3,1,0,2021-08-07 12:45:32,972912
0,-1,-1,-4,0,0,0,-1,2021-08-07 12:45:32,988908
-2,-2,-3,-4,-4,-2,-3,-2,2021-08-07 12:45:32,988908
-1,1,1,1,3,2,2,2,2021-08-07 12:45:32,988908
0,1,1,0,1,1,1,0,2021-08-07 12:45:32,988908
-3,-3,-2,-1,-2,-4,-3,-2,2021-08-07 12:45:32,988908
-1,-2,-2,-4,-3,-2,-1,-2,2021-08-07 12:45:33,004908
0,-1,2,5,6,2,1,1,2021-08-07 12:45:33,020908
4,7,7,10,15,11,6,3,2021-08-07 12:45:33,052912
0,0,1,1,0,1,1,-1,2021-08-07 12:45:33,052912
0,-2,-2,-6,-6,-3,-3,-1,2021-08-07 12:45:33,052912
-3,-3,-3,-5,-8,-4,-2,-1,2021-08-07 12:45:33,052912
-1,-2,0,1,0,-2,0,-1,2021-08-07 12:45:33,052912
0,1,0,1,0,0,0,0,2021-08-07 12:45:33,053910
0,-1,1,0,0,1,0,-1,2021-08-07 12:45:33,053910
0,-1,0,-2,-3,-2,1,-1,2021-08-07 12:45:33,053910
-1,-2,-1,-4,-2,-2,-2,-1,2021-08-07 12:45:33,053910
-1,-6,-3,-6,0,-1,0,-1,2021-08-07 12:45:33,053910
2,3,-2,1,0,0,1,2,2021-08-07 12:45:33,068909
-3,-5,-6,-5,-5,-4,-3,-2,2021-08-07 12:45:33,068909
2,2,5,2,2,0,2,1,2021-08-07 12:45:33,068909
4,9,11,10,8,6,4,4,2021-08-07 12:45:33,068909
-7,-8,-6,-4,-3,-4,-4,-6,2021-08-07 12:45:33,084908
-1,0,2,1,2,0,-1,0,2021-08-07 12:45:33,084908
2,3,-1,1,0,0,0,3,2021-08-07 12:45:33,084908
-4,-5,-6,-7,-8,-4,-5,-3,2021-08-07 12:45:33,084908
1,0,1,0,1,1,0,0,2021-08-07 12:45:33,115909
-2,-1,-4,-4,0,-1,-2,-1,2021-08-07 12:45:33,115909
-2,-2,-1,-2,-3,-3,-1,-1,2021-08-07 12:45:33,115909
-1,-2,-3,0,2,-1,-1,-1,2021-08-07 12:45:33,115909
-1,-4,-3,-4,-6,-3,-2,-3,2021-08-07 12:45:33,131908
-2,-1,0,-1,-2,-1,0,-2,2021-08-07 12:45:33,147909
-1,-1,-4,-4,-4,-3,-2,-2,2021-08-07 12:45:33,163907
-1,-1,-1,0,-2,-2,-2,0,2021-08-07 12:45:33,163907
0,0,2,2,5,2,1,1,2021-08-07 12:45:33,163907
1,1,1,2,9,2,1,1,2021-08-07 12:45:33,163907
0,-2,-3,-2,-2,-1,-2,-1,2021-08-07 12:45:33,163907
0,2,1,-2,-7,-2,0,0,2021-08-07 12:45:33,163907
-2,-2,-1,1,0,0,0,-1,2021-08-07 12:45:33,163907
4,3,3,4,4,4,1,2,2021-08-07 12:45:33,163907
-1,-2,-3,-1,0,1,-1,-2,2021-08-07 12:45:33,164908
-1,1,-1,-3,-3,-3,-2,-1,2021-08-07 12:45:33,164908
-2,-2,-2,-6,-7,-6,-4,-1,2021-08-07 12:45:33,194908
-1,-1,-3,-4,-6,-3,-3,-2,2021-08-07 12:45:33,194908
-3,-8,-6,-3,0,-3,-3,-4,2021-08-07 12:45:33,194908
1,2,2,1,0,-1,1,2,2021-08-07 12:45:33,194908
5,6,5,4,4,4,4,1,2021-08-07 12:45:33,194908
-4,-6,-5,-6,-8,-8,-4,-3,2021-08-07 12:45:33,194908
3,5,4,-1,-2,2,0,1,2021-08-07 12:45:33,210910
-3,-5,-5,-4,0,-1,-3,-2,2021-08-07 12:45:33,210910
-3,-3,-3,0,4,0,-2,-2,2021-08-07 12:45:33,226908
-1,-1,-1,-6,-4,-2,-1,-1,2021-08-07 12:45:33,242907
-3,-3,0,4,4,0,0,-1,2021-08-07 12:45:33,242907
-1,-1,0,1,3,3,0,0,2021-08-07 12:45:33,242907
-1,0,0,-1,1,1,0,0,2021-08-07 12:45:33,242907
2,2,3,5,4,3,1,0,2021-08-07 12:45:33,242907
0,1,0,0,4,1,2,3,2021-08-07 12:45:33,242907
1,1,1,2,1,1,2,-1,2021-08-07 12:45:33,242907
-2,-3,-2,-7,-10,-8,-4,-2,2021-08-07 12:45:33,257909
-5,-6,-9,-6,-6,-6,-4,-5,2021-08-07 12:45:33,273908
-1,-3,-2,-4,-7,-3,-4,-1,2021-08-07 12:45:33,289909
1,3,2,2,7,4,3,2,2021-08-07 12:45:33,289909
1,3,3,-1,0,0,0,0,2021-08-07 12:45:33,289909
-2,-3,-1,0,2,-1,1,-1,2021-08-07 12:45:33,289909
5,7,6,6,4,2,4,2,2021-08-07 12:45:33,289909
0,-1,-3,1,3,0,0,-2,2021-08-07 12:45:33,289909
-4,-5,-5,-4,-8,-7,-6,-5,2021-08-07 12:45:33,305909
4,4,2,-4,-3,1,2,3,2021-08-07 12:45:33,305909
-4,-4,-1,3,5,0,-2,-3,2021-08-07 12:45:33,305909
1,0,-1,-6,-1,1,-1,1,2021-08-07 12:45:33,305909
1,-2,1,7,10,5,2,-1,2021-08-07 12:45:33,321908
-1,-2,-1,-1,-2,0,-3,-1,2021-08-07 12:45:33,321908
-2,-1,-3,-6,-8,-7,-1,-1,2021-08-07 12:45:33,321908
1,3,2,3,0,0,1,2,2021-08-07 12:45:33,321908
-5,-4,-5,-5,-6,-4,-3,-3,2021-08-07 12:45:33,352909
-3,-4,-6,-6,-9,-7,-5,-3,2021-08-07 12:45:33,352909
-1,0,2,2,-1,-1,-1,0,2021-08-07 12:45:33,352909
-1,2,0,0,-1,-1,-2,-2,2021-08-07 12:45:33,352909
-2,-3,-4,-2,3,3,1,0,2021-08-07 12:45:33,367909
2,6,7,4,4,3,3,2,2021-08-07 12:45:33,367909
-2,-2,-2,-4,-5,-2,-2,-1,2021-08-07 12:45:33,367909
-2,-4,-3,-4,-10,-9,-3,-1,2021-08-07 12:45:33,367909
-1,-5,-6,-3,-1,0,-1,-1,2021-08-07 12:45:33,399908
2,4,4,5,7,6,2,2,2021-08-07 12:45:33,399908
1,1,-1,2,-1,1,1,0,2021-08-07 12:45:33,399908
-4,-4,-4,-3,-7,-6,-4,-2,2021-08-07 12:45:33,399908
0,-1,-3,-8,-9,-4,-3,0,2021-08-07 12:45:33,399908
-2,-3,-3,3,6,4,0,0,2021-08-07 12:45:33,399908
2,3,2,5,9,6,3,2,2021-08-07 12:45:33,399908
-1,-2,-2,-1,0,-2,-1,-2,2021-08-07 12:45:33,400909
-2,-1,2,0,-5,-5,-1,-2,2021-08-07 12:45:33,430949
-2,-3,-4,-6,-11,-8,-4,-2,2021-08-07 12:45:33,446950
0,-1,-1,-4,-4,0,-1,0,2021-08-07 12:45:33,462949
1,-2,-3,-1,2,0,-1,-1,2021-08-07 12:45:33,478949
-1,-1,-1,1,2,0,-1,0,2021-08-07 12:45:33,494950
0,1,0,-1,-1,-1,-1,-2,2021-08-07 12:45:33,494950
-1,0,1,1,4,3,2,0,2021-08-07 12:45:33,494950
-2,-4,-4,-3,-4,-4,-2,-1,2021-08-07 12:45:33,494950
1,3,3,-1,-1,1,0,1,2021-08-07 12:45:33,494950
0,-1,-1,4,9,5,2,0,2021-08-07 12:45:33,494950
0,0,0,-1,-2,-1,-1,2,2021-08-07 12:45:33,494950
-3,-3,-1,0,3,1,0,-2,2021-08-07 12:45:33,495950
-4,-3,-5,-1,-4,-5,-2,-1,2021-08-07 12:45:33,495950
2,1,-1,-1,-3,2,0,2,2021-08-07 12:45:33,495950
2,2,2,3,2,1,2,0,2021-08-07 12:45:33,495950
-2,0,1,0,-1,0,-2,-1,2021-08-07 12:45:33,495950
-4,-5,-4,-2,-3,-4,-3,-4,2021-08-07 12:45:33,495950
-3,-2,-3,-8,-14,-10,-4,-4,2021-08-07 12:45:33,495950
2,1,1,11,29,18,9,5,2021-08-07 12:45:33,510949
2,0,-1,-3,-1,1,2,2,2021-08-07 12:45:33,510949
3,3,1,0,3,2,3,3,2021-08-07 12:45:33,526949
-4,-2,-4,-8,-9,-8,-4,-2,2021-08-07 12:45:33,541952
-2,-4,-3,-3,-7,-6,-4,-3,2021-08-07 12:45:33,541952
-3,0,1,2,5,3,0,-1,2021-08-07 12:45:33,541952
-1,1,2,1,-1,-2,-2,-3,2021-08-07 12:45:33,557950
-1,0,0,-1,-4,-5,-3,-3,2021-08-07 12:45:33,557950
-5,-6,-5,-8,-13,-12,-6,-4,2021-08-07 12:45:33,557950
0,-1,-3,1,3,2,-1,-2,2021-08-07 12:45:33,557950
1,-2,-3,3,5,1,2,1,2021-08-07 12:45:33,557950
8,12,16,10,13,10,8,9,2021-08-07 12:45:33,557950
-3,-3,-6,-12,-15,-8,-5,-3,2021-08-07 12:45:33,573949
-2,-3,-2,-2,-6,-3,-2,-2,2021-08-07 12:45:33,589949
0,3,4,5,10,8,1,1,2021-08-07 12:45:33,605948
-6,-7,-7,0,0,-1,-2,-2,2021-08-07 12:45:33,620950
-2,-3,-5,-11,-15,-7,-6,-4,2021-08-07 12:45:33,620950
1,1,4,1,-2,-2,1,1,2021-08-07 12:45:33,620950
-1,-2,-1,4,9,10,3,0,2021-08-07 12:45:33,637164
0,0,-1,1,4,3,1,0,2021-08-07 12:45:33,652949
0,1,-1,1,-2,-3,-3,0,2021-08-07 12:45:33,667949
-3,-4,-4,-3,0,-1,-1,-1,2021-08-07 12:45:33,667949
0,2,2,-4,-10,-6,-2,1,2021-08-07 12:45:33,667949
-3,-3,-1,1,-1,-2,-2,-2,2021-08-07 12:45:33,667949
0,1,3,2,4,4,2,-1,2021-08-07 12:45:33,667949
2,2,2,3,2,0,0,1,2021-08-07 12:45:33,667949
3,4,1,1,0,1,1,1,2021-08-07 12:45:33,668949
-3,-4,-6,-7,-8,-4,-2,-3,2021-08-07 12:45:33,668949
-4,-3,-4,-4,-6,-5,-3,-1,2021-08-07 12:45:33,668949
0,2,1,1,3,0,0,-2,2021-08-07 12:45:33,668949
-3,-4,-2,-6,-14,-11,-6,-3,2021-08-07 12:45:33,668949
3,5,3,1,4,2,2,2,2021-08-07 12:45:33,668949
0,2,0,7,11,5,2,1,2021-08-07 12:45:33,668949
-4,-2,-4,-15,-22,-11,-7,-4,2021-08-07 12:45:33,668949
-2,-2,-3,11,23,15,5,1,2021-08-07 12:45:33,699948
2,0,0,2,8,4,0,1,2021-08-07 12:45:33,699948
1,0,-2,-1,-2,-3,0,-1,2021-08-07 12:45:33,699948
-1,-3,-3,-1,-1,-3,-2,0,2021-08-07 12:45:33,699948
-3,-3,-5,-14,-25,-17,-8,-4,2021-08-07 12:45:33,699948
-2,-4,-2,-5,-1,0,-1,0,2021-08-07 12:45:33,699948
-1,-1,0,-7,-14,-10,-4,-1,2021-08-07 12:45:33,699948
4,6,7,26,35,22,11,6,2021-08-07 12:45:33,700950
-2,-2,-2,-8,-4,-2,-2,-3,2021-08-07 12:45:33,730951
-3,-2,-1,2,2,1,0,0,2021-08-07 12:45:33,734949
-3,-7,-5,-9,-18,-13,-8,-6,2021-08-07 12:45:33,734949
4,6,7,1,-1,3,2,3,2021-08-07 12:45:33,735950
-1,-2,-1,2,5,4,1,-1,2021-08-07 12:45:33,746949
-3,-3,-3,1,-2,-4,-2,-1,2021-08-07 12:45:33,746949
-2,-6,-5,-10,-16,-6,-5,-1,2021-08-07 12:45:33,746949
3,4,4,5,8,7,2,2,2021-08-07 12:45:33,746949
-1,-1,-2,-1,-8,-5,-2,0,2021-08-07 12:45:33,762949
-1,-1,1,5,14,6,2,-3,2021-08-07 12:45:33,762949
-2,0,-4,-5,-8,-4,0,-1,2021-08-07 12:45:33,762949
0,-2,-1,-2,2,-1,-1,0,2021-08-07 12:45:33,762949
1,0,-2,-6,-6,-3,-2,0,2021-08-07 12:45:33,794948
-2,-3,-2,5,4,1,-1,-1,2021-08-07 12:45:33,794948
5,6,5,8,18,12,7,4,2021-08-07 12:45:33,794948
-5,-6,-8,-17,-21,-14,-8,-7,2021-08-07 12:45:33,794948
0,0,2,3,-1,-1,-2,-1,2021-08-07 12:45:33,810949
-2,-1,-4,-9,-7,-4,-2,-3,2021-08-07 12:45:33,826950
0,0,3,6,9,7,3,0,2021-08-07 12:45:33,842949
-1,-3,-4,-3,0,0,-2,-1,2021-08-07 12:45:33,842949
0,2,2,2,4,0,3,1,2021-08-07 12:45:33,842949
2,1,1,0,-5,-3,-2,3,2021-08-07 12:45:33,842949
-2,0,2,3,4,0,0,-1,2021-08-07 12:45:33,842949
-1,2,3,7,9,9,3,-1,2021-08-07 12:45:33,842949
-3,-2,-3,-6,-9,-12,-5,-3,2021-08-07 12:45:33,842949
-2,-5,-4,-6,-11,-5,-3,-2,2021-08-07 12:45:33,843949
4,6,8,15,23,13,7,5,2021-08-07 12:45:33,843949
-2,-3,-3,2,1,-1,-1,-2,2021-08-07 12:45:33,843949
2,3,0,2,11,7,2,3,2021-08-07 12:45:33,873949
-10,-15,-17,-25,-30,-23,-13,-10,2021-08-07 12:45:33,873949
2,3,4,-4,-10,0,1,3,2021-08-07 12:45:33,873949
3,5,6,8,9,6,2,3,2021-08-07 12:45:33,873949
0,1,2,11,14,7,3,0,2021-08-07 12:45:33,889949
0,0,-1,-9,-9,-4,-1,-2,2021-08-07 12:45:33,889949
-2,-4,-5,-5,-5,-4,-3,-2,2021-08-07 12:45:33,889949
-1,-5,-4,-3,-4,-4,-2,-2,2021-08-07 12:45:33,889949
1,2,0,0,-5,-1,-1,-1,2021-08-07 12:45:33,905950
3,2,1,5,7,5,0,1,2021-08-07 12:45:33,905950
1,3,2,11,24,10,3,0,2021-08-07 12:45:33,921949
-4,-3,-2,-8,-19,-15,-7,-3,2021-08-07 12:45:33,921949
-3,-5,-4,-6,-2,1,-2,-2,2021-08-07 12:45:33,921949
5,8,9,24,25,20,11,4,2021-08-07 12:45:33,921949
-1,-2,-4,-3,2,1,0,-1,2021-08-07 12:45:33,937950
-2,-3,-3,0,-2,-4,-3,-3,2021-08-07 12:45:33,937950
-2,-4,-3,-11,-14,-11,-4,-2,2021-08-07 12:45:33,937950
0,2,1,-5,-7,-4,-2,0,2021-08-07 12:45:33,937950
-3,-5,-5,-4,-11,-5,-4,-5,2021-08-07 12:45:33,953950
4,5,5,1,5,5,5,4,2021-08-07 12:45:33,969950
-1,-1,3,0,3,2,-1,-2,2021-08-07 12:45:33,985952
-2,-1,-8,-2,-3,-1,-2,2,2021-08-07 12:45:33,985952
1,-2,-4,-2,-5,-4,-1,-1,2021-08-07 12:45:33,985952
-4,-5,-5,-3,-1,-1,-3,-3,2021-08-07 12:45:33,985952
2,5,7,6,6,4,3,3,2021-08-07 12:45:33,985952
0,1,4,5,7,2,1,1,2021-08-07 12:45:33,985952
-3,-2,-2,-7,-9,-5,-5,-1,2021-08-07 12:45:33,985952
-3,-6,-10,-7,-8,-7,-6,-3,2021-08-07 12:45:33,986951
2,2,1,6,3,4,3,2,2021-08-07 12:45:34,001949
1,2,0,-4,-13,-12,-5,-3,2021-08-07 12:45:34,001949
1,0,-1,3,9,7,3,0,2021-08-07 12:45:34,017947
2,2,5,1,3,3,1,1,2021-08-07 12:45:34,017947
-4,-7,-7,-9,-12,-7,-5,-4,2021-08-07 12:45:34,033950
-3,-5,-4,-8,-7,-4,-3,-3,2021-08-07 12:45:34,049951
3,4,4,7,10,4,3,2,2021-08-07 12:45:34,049951
-1,1,-2,-5,-3,-2,0,0,2021-08-07 12:45:34,049951
-2,0,-3,-3,-5,-4,-2,0,2021-08-07 12:45:34,049951
-1,-3,-2,-3,-5,-1,-2,-2,2021-08-07 12:45:34,049951
0,0,2,3,2,3,2,0,2021-08-07 12:45:34,050949
-2,-2,-3,-5,-9,-5,-3,-3,2021-08-07 12:45:34,050949
-3,-3,-2,1,0,-2,0,0,2021-08-07 12:45:34,065949
-2,1,1,-5,-1,1,1,0,2021-08-07 12:45:34,065949
0,1,1,8,11,6,2,2,2021-08-07 12:45:34,065949
-2,-4,-3,-3,-4,-1,-2,0,2021-08-07 12:45:34,065949
-2,-2,-2,-6,-10,-8,-4,-3,2021-08-07 12:45:34,096950
0,-2,1,3,5,5,2,0,2021-08-07 12:45:34,112949
-2,-2,-4,-7,-13,-10,-6,-2,2021-08-07 12:45:34,128949
4,6,8,17,26,19,9,5,2021-08-07 12:45:34,128949
1,-2,-1,4,11,3,0,0,2021-08-07 12:45:34,128949
-1,1,-1,-3,-5,-6,-2,0,2021-08-07 12:45:34,128949
-3,-5,-1,-6,-10,-7,-5,-4,2021-08-07 12:45:34,128949
-3,-5,-6,-12,-22,-13,-7,-6,2021-08-07 12:45:34,128949
4,5,4,2,-1,0,2,3,2021-08-07 12:45:34,129951
1,3,2,8,15,7,4,1,2021-08-07 12:45:34,129951
-4,-2,-5,0,2,0,0,-2,2021-08-07 12:45:34,129951
-2,-2,-2,0,-1,-2,-2,-1,2021-08-07 12:45:34,129951
-2,0,-3,-5,-7,-2,-1,-2,2021-08-07 12:45:34,144948
-1,-1,-2,-1,-4,-4,-2,-2,2021-08-07 12:45:34,144948
0,-1,1,-2,-1,-1,1,0,2021-08-07 12:45:34,144948
-4,-5,-3,-7,-11,-4,-3,-4,2021-08-07 12:45:34,160950
-1,0,-3,-4,-3,-2,-1,0,2021-08-07 12:45:34,176949
2,3,5,9,6,3,2,1,2021-08-07 12:45:34,176949
-1,0,-1,-6,-3,-1,-1,-1,2021-08-07 12:45:34,176949
-1,2,0,0,3,2,2,1,2021-08-07 12:45:34,176949
-2,-3,-4,-1,-2,-3,-5,-2,2021-08-07 12:45:34,176949
-1,-2,3,5,7,3,2,-1,2021-08-07 12:45:34,176949
-3,-2,-3,-9,-15,-12,-7,-1,2021-08-07 12:45:34,192948
0,0,1,3,6,3,1,0,2021-08-07 12:45:34,192948
2,2,2,7,18,11,6,3,2021-08-07 12:45:34,208950
-2,-2,-2,-6,-11,-6,-4,-1,2021-08-07 12:45:34,224949
-5,-9,-10,-4,-3,2,-3,-4,2021-08-07 12:45:34,225161
6,11,10,4,6,-1,3,1,2021-08-07 12:45:34,225161
-1,1,0,-2,-8,-4,-3,-2,2021-08-07 12:45:34,225161
3,3,2,4,9,7,2,3,2021-08-07 12:45:34,225161
-5,-3,-3,-8,-13,-8,-4,-3,2021-08-07 12:45:34,225161
-5,-8,-11,-10,-13,-8,-4,-3,2021-08-07 12:45:34,225161
1,1,7,9,11,7,3,1,2021-08-07 12:45:34,254949
-1,-3,-4,-5,-8,-5,-4,-2,2021-08-07 12:45:34,269949
4,5,4,2,6,4,5,2,2021-08-07 12:45:34,285949
3,1,0,1,5,2,1,1,2021-08-07 12:45:34,285949
-3,-3,-3,-3,-2,-4,-2,-1,2021-08-07 12:45:34,285949
-4,-3,-4,-6,-7,-1,2,-1,2021-08-07 12:45:34,285949
3,1,3,6,9,4,4,3,2021-08-07 12:45:34,285949
-2,-3,-2,-4,-6,-4,-2,-2,2021-08-07 12:45:34,285949
-4,-5,-4,-8,-10,-4,-3,-2,2021-08-07 12:45:34,285949
0,-1,0,5,9,2,-1,-2,2021-08-07 12:45:34,286950
2,1,3,2,0,-2,0,-1,2021-08-07 12:45:34,286950
-2,0,-1,-1,-3,-2,-2,-2,2021-08-07 12:45:34,286950
-2,-2,-2,-3,-3,-2,0,0,2021-08-07 12:45:34,316949
-1,0,-1,-3,-4,-3,0,1,2021-08-07 12:45:34,316949
1,1,2,1,9,6,2,2,2021-08-07 12:45:34,316949
-7,-8,-8,-7,-10,-8,-7,-6,2021-08-07 12:45:34,316949
1,-2,-2,0,-2,-3,-3,-1,2021-08-07 12:45:34,332949
2,4,5,4,5,2,1,0,2021-08-07 12:45:34,347949
-2,0,1,3,1,1,1,0,2021-08-07 12:45:34,363950
0,1,1,-4,-3,-3,0,-1,2021-08-07 12:45:34,363950
-2,-1,-3,-4,-6,-5,-2,-2,2021-08-07 12:45:34,363950
2,1,3,4,10,8,1,3,2021-08-07 12:45:34,363950
-1,-4,-3,-5,-9,-7,-5,-3,2021-08-07 12:45:34,379949
-2,-4,-6,-16,-24,-13,-7,-3,2021-08-07 12:45:34,379949
2,3,5,16,26,17,9,2,2021-08-07 12:45:34,379949
-1,-1,-2,1,0,-2,-1,-1,2021-08-07 12:45:34,379949
-4,-2,-3,-5,-8,-3,-2,-3,2021-08-07 12:45:34,379949
0,1,1,6,5,2,0,2,2021-08-07 12:45:34,379949
1,-1,-2,-6,-6,-2,0,-1,2021-08-07 12:45:34,379949
-2,-2,-6,-7,-5,-3,-1,-1,2021-08-07 12:45:34,380950
-2,-1,-1,4,-4,-4,-2,0,2021-08-07 12:45:34,395950
-1,-1,-2,1,5,4,0,-3,2021-08-07 12:45:34,395950
0,2,2,2,0,-1,-1,0,2021-08-07 12:45:34,411949
-2,1,0,1,1,2,0,-2,2021-08-07 12:45:34,427947
-2,-3,-3,-5,-6,-7,-6,-5,2021-08-07 12:45:34,443949
-1,-1,2,-2,-4,-2,0,-1,2021-08-07 12:45:34,459949
3,3,6,6,7,6,2,1,2021-08-07 12:45:34,475948
2,0,-1,-7,-2,-1,1,1,2021-08-07 12:45:34,491949
1,0,-1,2,3,3,0,0,2021-08-07 12:45:34,491949
1,-1,0,2,5,2,1,0,2021-08-07 12:45:34,491949
1,-1,-1,1,-1,-1,0,0,2021-08-07 12:45:34,491949
-4,-7,-6,-7,-11,-6,-5,-4,2021-08-07 12:45:34,491949
1,5,4,5,7,2,2,1,2021-08-07 12:45:34,491949
-1,0,0,1,3,1,0,0,2021-08-07 12:45:34,491949
-4,-3,-5,-6,-9,-6,-4,-2,2021-08-07 12:45:34,491949
1,-1,-2,-2,-3,-2,-2,-1,2021-08-07 12:45:34,492950
-1,-2,-3,-1,1,2,1,-1,2021-08-07 12:45:34,507949
0,3,1,5,13,7,1,2,2021-08-07 12:45:34,538948
-3,-5,-6,-9,-14,-11,-6,-3,2021-08-07 12:45:34,554948
2,1,1,6,10,5,2,1,2021-08-07 12:45:34,570949
1,1,0,-9,-11,-4,-2,1,2021-08-07 12:45:34,570949
0,-1,1,6,8,3,2,1,2021-08-07 12:45:34,570949
-1,0,-1,2,13,6,3,0,2021-08-07 12:45:34,570949
0,1,1,0,1,0,0,-1,2021-08-07 12:45:34,570949
0,0,-1,-2,-5,-3,-2,0,2021-08-07 12:45:34,571949
-2,-4,-2,-8,-21,-12,-5,-5,2021-08-07 12:45:34,571949
-2,-3,-2,1,2,-2,-4,-3,2021-08-07 12:45:34,571949
-1,-1,0,2,3,3,1,1,2021-08-07 12:45:34,571949
0,1,1,4,17,9,2,2,2021-08-07 12:45:34,571949
1,-1,-3,0,1,1,2,1,2021-08-07 12:45:34,571949
-3,-3,-6,-9,-16,-9,-6,-4,2021-08-07 12:45:34,571949
-1,5,5,3,5,1,0,-1,2021-08-07 12:45:34,571949
2,3,3,4,-2,-1,2,2,2021-08-07 12:45:34,572950
-2,-4,-1,2,10,5,1,-2,2021-08-07 12:45:34,572950
2,1,-1,-8,-12,-6,-1,1,2021-08-07 12:45:34,572950
-2,-5,-8,-7,-7,-5,-3,-4,2021-08-07 12:45:34,572950
-1,-2,2,1,2,0,-1,-2,2021-08-07 12:45:34,572950
-1,1,0,1,0,1,0,-1,2021-08-07 12:45:34,572950
-3,-3,-1,3,5,2,0,-2,2021-08-07 12:45:34,601952
-3,-4,-6,-19,-25,-15,-7,-3,2021-08-07 12:45:34,617949
3,3,2,9,10,9,7,3,2021-08-07 12:45:34,627949
3,3,3,9,21,12,7,5,2021-08-07 12:45:34,628949
-1,-3,-3,-5,-7,-3,-2,-3,2021-08-07 12:45:34,628949
-1,1,0,3,6,3,1,0,2021-08-07 12:45:34,628949
-3,-4,-4,-9,-17,-13,-7,-5,2021-08-07 12:45:34,628949
-2,-2,-4,-10,-14,-9,-5,-2,2021-08-07 12:45:34,628949
6,9,6,4,11,8,6,5,2021-08-07 12:45:34,628949
-1,-2,0,-1,-3,-2,-1,-2,2021-08-07 12:45:34,629949
2,0,2,4,11,8,4,2,2021-08-07 12:45:34,629949
-1,0,-1,-2,-3,-1,-1,-3,2021-08-07 12:45:34,629949
-3,-3,-3,-5,-9,-6,-4,-3,2021-08-07 12:45:34,648951
-1,0,-1,2,1,0,0,0,2021-08-07 12:45:34,648951
-3,-3,-2,-3,-5,-3,-4,-2,2021-08-07 12:45:34,648951
-1,-5,-4,3,7,4,1,-1,2021-08-07 12:45:34,664948
4,4,7,1,3,5,4,3,2021-08-07 12:45:34,664948
-2,-1,1,1,2,0,-1,0,2021-08-07 12:45:34,664948
-1,-3,-3,-3,0,-1,1,-2,2021-08-07 12:45:34,695949
0,0,1,-4,-12,-5,-2,-2,2021-08-07 12:45:34,695949
-6,-7,-7,-8,-10,-10,-5,-4,2021-08-07 12:45:34,695949
-4,-3,-3,-8,-18,-8,-5,-4,2021-08-07 12:45:34,695949
3,5,7,16,36,19,7,4,2021-08-07 12:45:34,695949
-3,-1,-2,-3,-4,-5,-3,-3,2021-08-07 12:45:34,711947
2,1,1,5,15,8,3,2,2021-08-07 12:45:34,727949
1,0,0,-1,-3,-3,-2,1,2021-08-07 12:45:34,743947
-4,-3,-4,-11,-22,-14,-7,-4,2021-08-07 12:45:34,743947
-3,-3,-5,-10,-14,-8,-4,-2,2021-08-07 12:45:34,743947
-2,-1,1,5,5,2,-1,-1,2021-08-07 12:45:34,743947
3,5,3,6,8,3,2,1,2021-08-07 12:45:34,743947
2,1,-2,-1,1,1,1,-1,2021-08-07 12:45:34,743947
-2,-1,-2,-5,-3,0,-2,-2,2021-08-07 12:45:34,743947
-1,-1,-3,3,5,3,2,-1,2021-08-07 12:45:34,743947
-2,-5,-5,-4,-5,-4,-1,-5,2021-08-07 12:45:34,744950
0,0,4,1,1,0,1,-1,2021-08-07 12:45:34,759949
2,3,2,8,7,0,0,1,2021-08-07 12:45:34,775949
-3,-3,-4,-7,-8,-5,-3,-2,2021-08-07 12:45:34,775949
0,0,-1,3,5,5,1,2,2021-08-07 12:45:34,775949
-2,-4,-4,-6,-7,-6,-3,-1,2021-08-07 12:45:34,775949
0,3,2,-6,-9,-6,-2,-1,2021-08-07 12:45:34,775949
1,1,1,1,8,4,2,1,2021-08-07 12:45:34,791949
3,3,6,8,9,6,4,3,2021-08-07 12:45:34,807949
-4,-4,-3,-1,-2,-1,-2,-2,2021-08-07 12:45:34,823949
-1,0,-2,5,5,5,1,2,2021-08-07 12:45:34,823949
0,-2,-2,-2,-2,-1,-2,-1,2021-08-07 12:45:34,823949
0,0,0,-4,-6,-4,0,0,2021-08-07 12:45:34,823949
-1,-2,-4,-2,-5,-3,-2,-1,2021-08-07 12:45:34,823949
-2,-2,0,-2,-5,-4,-3,-2,2021-08-07 12:45:34,823949
-1,-3,-4,-9,-13,-5,-4,-3,2021-08-07 12:45:34,823949
3,4,5,12,23,14,7,3,2021-08-07 12:45:34,824948
-2,-2,-4,-3,-5,-3,0,-1,2021-08-07 12:45:34,824948
0,0,2,3,4,0,0,1,2021-08-07 12:45:34,824948
-2,-2,-3,-1,-8,-8,-4,0,2021-08-07 12:45:34,855948
-2,-4,-5,-7,-12,-7,-4,-3,2021-08-07 12:45:34,871950
-1,-2,-2,0,1,1,-2,-3,2021-08-07 12:45:34,871950
3,5,4,8,21,11,5,3,2021-08-07 12:45:34,871950
-2,-3,-3,2,0,-2,-2,-2,2021-08-07 12:45:34,871950
2,3,3,-1,-4,-1,1,0,2021-08-07 12:45:34,871950
0,1,2,-1,-7,-4,-1,1,2021-08-07 12:45:34,871950
-2,-2,-2,-6,-8,-6,-3,-2,2021-08-07 12:45:34,871950
-1,0,0,-4,-4,-2,-1,-1,2021-08-07 12:45:34,887950
-2,-3,-4,-2,1,-3,-2,-1,2021-08-07 12:45:34,887950
-2,-4,-4,-6,-8,-3,-2,-2,2021-08-07 12:45:34,887950
3,2,5,9,11,5,5,1,2021-08-07 12:45:34,887950
-1,0,-1,3,3,2,1,0,2021-08-07 12:45:34,919952
-2,-3,-3,-7,-5,-3,-2,-3,2021-08-07 12:45:34,919952
1,2,1,2,-1,-1,-1,0,2021-08-07 12:45:34,919952
-2,-3,-3,-4,-9,-2,-3,-2,2021-08-07 12:45:34,919952
-2,1,1,3,4,2,2,-2,2021-08-07 12:45:34,919952
-2,-3,-3,-3,-7,-4,-3,-2,2021-08-07 12:45:34,919952
-2,-2,0,0,1,0,-2,1,2021-08-07 12:45:34,935951
-2,1,-1,-8,-8,-4,-2,-1,2021-08-07 12:45:34,951952
-2,-2,-3,-3,-3,-2,-1,0,2021-08-07 12:45:34,951952
-1,1,0,2,2,-1,-2,0,2021-08-07 12:45:34,951952
-2,-3,-4,-6,-5,-4,-2,-2,2021-08-07 12:45:34,951952
-1,0,-2,-1,1,2,1,0,2021-08-07 12:45:34,951952
-2,-3,-4,-6,-10,-6,-4,-3,2021-08-07 12:45:34,983948
-2,-1,-1,1,-4,-3,-3,-2,2021-08-07 12:45:34,983948
0,1,1,2,4,5,3,1,2021-08-07 12:45:34,983948
1,-1,-1,1,4,3,1,0,2021-08-07 12:45:34,983948
5,4,4,5,11,8,4,4,2021-08-07 12:45:34,983948
1,1,1,3,7,5,3,1,2021-08-07 12:45:34,983948
-3,-4,-4,-8,-10,-6,-3,-4,2021-08-07 12:45:34,999949
-3,-6,-6,-1,-5,-4,-4,-4,2021-08-07 12:45:34,999949
1,-1,1,-6,-16,-9,-6,-1,2021-08-07 12:45:35,015947
2,3,2,11,22,14,8,3,2021-08-07 12:45:35,031949
0,0,-3,-3,7,3,2,1,2021-08-07 12:45:35,046949
-3,-3,0,-1,-6,-6,-2,-1,2021-08-07 12:45:35,046949
0,4,6,6,8,6,1,0,2021-08-07 12:45:35,046949
-2,-1,-1,-3,-7,-5,-3,-2,2021-08-07 12:45:35,046949
0,-1,-2,4,3,0,0,0,2021-08-07 12:45:35,046949
-4,-6,-8,-7,-7,-5,-6,-5,2021-08-07 12:45:35,046949
2,0,-1,-3,-4,-3,-1,0,2021-08-07 12:45:35,046949
0,1,1,2,4,4,0,0,2021-08-07 12:45:35,047950
-2,-2,-2,-4,-8,-6,-4,-3,2021-08-07 12:45:35,047950
1,-1,1,-2,-2,1,-1,0,2021-08-07 12:45:35,047950
-3,-3,-3,1,-2,-1,-1,-2,2021-08-07 12:45:35,094948
3,0,-1,1,8,9,4,2,2021-08-07 12:45:35,110948
-2,2,1,3,0,-3,-1,-1,2021-08-07 12:45:35,110948
-4,-1,-3,-6,-8,-5,-4,-3,2021-08-07 12:45:35,110948
1,0,-1,1,0,0,0,0,2021-08-07 12:45:35,110948
0,-2,0,-3,-5,-6,1,0,2021-08-07 12:45:35,110948
1,0,0,1,2,3,0,0,2021-08-07 12:45:35,110948
-1,0,-3,-7,-5,-2,-2,-2,2021-08-07 12:45:35,110948
-1,-1,-3,-6,-6,-4,-2,-1,2021-08-07 12:45:35,111949
0,0,-1,0,0,-4,-2,-2,2021-08-07 12:45:35,111949
0,0,1,1,-1,0,-2,-1,2021-08-07 12:45:35,126949
-2,-3,-2,5,6,3,1,0,2021-08-07 12:45:35,126949
-2,-4,-4,-8,-6,-3,-3,-2,2021-08-07 12:45:35,126949
0,3,6,3,1,1,2,3,2021-08-07 12:45:35,126949
0,1,0,1,-2,-3,-1,-1,2021-08-07 12:45:35,141949
1,0,-1,2,5,2,0,0,2021-08-07 12:45:35,141949
-4,-5,-5,-3,-3,-5,-2,-3,2021-08-07 12:45:35,157949
-2,-4,-8,-12,-12,-6,-6,-3,2021-08-07 12:45:35,173949
1,3,4,8,9,3,2,0,2021-08-07 12:45:35,189949
-1,-1,0,0,-1,-2,1,-1,2021-08-07 12:45:35,189949
1,2,2,8,13,9,5,3,2021-08-07 12:45:35,189949
-1,0,-2,-1,-1,-3,-2,-1,2021-08-07 12:45:35,189949
-1,-2,-5,-11,-15,-11,-4,-2,2021-08-07 12:45:35,189949
-1,0,-1,-2,-4,-1,-1,-1,2021-08-07 12:45:35,189949
1,1,5,10,19,9,4,1,2021-08-07 12:45:35,190950
-1,-2,-1,3,-3,-3,-2,-2,2021-08-07 12:45:35,190950
1,-2,-1,-1,7,6,3,1,2021-08-07 12:45:35,190950
-1,-3,-3,-2,-6,-7,-4,-3,2021-08-07 12:45:35,190950
0,-2,-1,-8,-9,-6,-3,0,2021-08-07 12:45:35,221950
0,0,0,6,7,5,1,1,2021-08-07 12:45:35,221950
0,1,-1,-3,-6,-3,1,0,2021-08-07 12:45:35,221950
1,2,2,7,13,9,3,1,2021-08-07 12:45:35,221950
0,-1,-4,-4,-2,-1,-1,-2,2021-08-07 12:45:35,237948
-1,-3,-2,-8,-13,-8,-4,-1,2021-08-07 12:45:35,237948
-2,-3,-2,0,-3,-3,-4,-1,2021-08-07 12:45:35,237948
1,0,2,1,5,5,4,0,2021-08-07 12:45:35,237948
0,2,-1,1,-5,-3,-3,-1,2021-08-07 12:45:35,253948
1,0,2,6,6,2,1,0,2021-08-07 12:45:35,253948
-6,-7,-6,-8,-13,-8,-7,-5,2021-08-07 12:45:35,269950
4,6,6,8,13,10,5,4,2021-08-07 12:45:35,269950
3,3,3,5,12,6,7,4,2021-08-07 12:45:35,269950
-2,-4,-6,-6,-4,-2,-2,0,2021-08-07 12:45:35,269950
1,0,1,-1,-2,-1,0,-1,2021-08-07 12:45:35,269950
-3,-4,-5,-4,-9,-6,-5,-3,2021-08-07 12:45:35,269950
-3,-2,0,-1,2,-1,-3,-4,2021-08-07 12:45:35,285949
1,1,3,3,3,2,0,-2,2021-08-07 12:45:35,285949
0,2,1,2,5,5,2,2,2021-08-07 12:45:35,301948
-1,-2,-5,-9,-12,-9,-4,-1,2021-08-07 12:45:35,301948
-1,0,0,2,-4,-4,-2,1,2021-08-07 12:45:35,301948
-3,-4,-4,-11,-13,-7,-4,-2,2021-08-07 12:45:35,301948
1,2,1,7,14,5,3,0,2021-08-07 12:45:35,317948
1,2,-2,0,2,0,1,1,2021-08-07 12:45:35,317948
-4,-6,-6,-10,-8,-3,-4,-4,2021-08-07 12:45:35,333948
1,3,4,1,4,0,2,1,2021-08-07 12:45:35,333948
-1,-1,-1,-5,-6,-3,0,-1,2021-08-07 12:45:35,333948
-3,-4,-2,0,-1,-3,-3,0,2021-08-07 12:45:35,349949
-2,-2,-1,-2,-4,-4,-1,-1,2021-08-07 12:45:35,349949
0,2,1,2,-1,-2,0,0,2021-08-07 12:45:35,349949
4,3,0,-1,0,1,1,1,2021-08-07 12:45:35,349949
-1,0,1,-2,-1,0,-1,-3,2021-08-07 12:45:35,349949
-1,-2,-3,-1,-8,-5,-1,-1,2021-08-07 12:45:35,381948
-4,-5,-4,-1,6,5,0,-2,2021-08-07 12:45:35,381948
4,5,9,9,14,9,5,4,2021-08-07 12:45:35,381948
-5,-5,-5,-8,-15,-11,-6,-5,2021-08-07 12:45:35,381948
5,6,5,11,18,15,7,4,2021-08-07 12:45:35,397950
2,2,1,4,7,0,0,1,2021-08-07 12:45:35,413948
-5,-8,-8,-12,-18,-9,-5,-3,2021-08-07 12:45:35,429953
0,1,0,-2,0,-1,1,-1,2021-08-07 12:45:35,429953
-2,-2,-2,-8,-13,-9,-4,-2,2021-08-07 12:45:35,429953
-1,1,-3,2,4,3,1,1,2021-08-07 12:45:35,429953
1,-1,2,5,9,5,1,1,2021-08-07 12:45:35,429953
-4,-4,-6,-6,-10,-6,-3,-3,2021-08-07 12:45:35,429953
2,4,5,6,5,3,1,0,2021-08-07 12:45:35,429953
-1,-2,-2,-3,-4,-2,-1,0,2021-08-07 12:45:35,430950
-3,-4,-5,-9,-12,-8,-4,-2,2021-08-07 12:45:35,430950
0,1,-1,-2,1,1,0,1,2021-08-07 12:45:35,430950
1,1,0,4,11,4,1,0,2021-08-07 12:45:35,461949
-1,-4,-2,1,2,0,-2,-3,2021-08-07 12:45:35,477948
5,7,8,10,9,5,3,2,2021-08-07 12:45:35,495950
-1,-1,-2,-5,-8,-5,-1,0,2021-08-07 12:45:35,496950
-2,-1,-4,-5,-2,0,-3,-1,2021-08-07 12:45:35,496950
-2,-3,-3,-6,-11,-7,-4,-4,2021-08-07 12:45:35,496950
-3,-2,-3,1,3,-1,-2,-1,2021-08-07 12:45:35,496950
1,-1,2,2,1,0,-1,-2,2021-08-07 12:45:35,496950
0,1,-1,-5,-10,-6,-3,0,2021-08-07 12:45:35,496950
1,2,3,8,15,9,4,1,2021-08-07 12:45:35,496950
-3,-2,-5,-9,-11,-7,-5,-3,2021-08-07 12:45:35,496950
-1,0,-1,-1,0,-1,0,-2,2021-08-07 12:45:35,497949
-1,-4,-4,-9,-11,-6,-3,-2,2021-08-07 12:45:35,509949
0,-3,-2,-1,0,-1,-3,-2,2021-08-07 12:45:35,509949
-1,2,2,0,3,1,0,0,2021-08-07 12:45:35,509949
2,3,5,11,13,6,2,3,2021-08-07 12:45:35,509949
-3,-4,-5,0,1,0,0,-2,2021-08-07 12:45:35,541949
-1,1,-2,-6,-8,-4,-3,-1,2021-08-07 12:45:35,557949
-1,-1,-4,-6,-5,-5,-3,-3,2021-08-07 12:45:35,589949
-3,-2,-1,-5,-12,-8,-4,-3,2021-08-07 12:45:35,589949
-2,-3,-2,3,2,4,0,-2,2021-08-07 12:45:35,589949
0,-3,-5,-7,-3,0,0,0,2021-08-07 12:45:35,604949
1,0,1,3,8,3,1,1,2021-08-07 12:45:35,604949
4,6,7,7,9,5,3,4,2021-08-07 12:45:35,604949
-4,-2,-3,-5,-8,-6,-3,-1,2021-08-07 12:45:35,604949
-3,-2,-3,-5,-8,-5,-4,-4,2021-08-07 12:45:35,604949
-3,-6,-4,-4,-5,-2,-2,-3,2021-08-07 12:45:35,604949
-1,-4,-4,-3,0,0,0,-2,2021-08-07 12:45:35,604949
2,2,4,3,1,0,1,1,2021-08-07 12:45:35,605950
1,0,1,2,3,4,2,2,2021-08-07 12:45:35,605950
-1,-3,-5,-6,-8,-5,-3,-1,2021-08-07 12:45:35,605950
-1,-2,-2,-5,-4,-1,-3,-1,2021-08-07 12:45:35,605950
4,7,5,13,19,14,8,4,2021-08-07 12:45:35,620948
-2,-3,-6,-5,-8,-6,-1,-1,2021-08-07 12:45:35,636948
4,7,7,7,7,5,3,4,2021-08-07 12:45:35,636948
-2,-3,-1,-5,-5,-5,-3,-4,2021-08-07 12:45:35,636948
-2,-3,0,-5,-9,-8,-3,-3,2021-08-07 12:45:35,652949
-1,-2,-9,2,0,1,1,-1,2021-08-07 12:45:35,652949
-1,0,-1,2,7,5,3,0,2021-08-07 12:45:35,652949
-2,-3,-3,-4,-7,-4,-3,-1,2021-08-07 12:45:35,652949
0,-1,1,-6,-2,-1,0,-1,2021-08-07 12:45:35,652949
-1,1,5,3,2,-1,-1,1,2021-08-07 12:45:35,652949
-3,-6,-4,-1,-1,-4,-4,-4,2021-08-07 12:45:35,653950
0,0,1,-1,0,4,1,1,2021-08-07 12:45:35,653950
2,-1,-1,1,3,0,0,0,2021-08-07 12:45:35,684949
-2,2,2,2,-3,-4,-2,0,2021-08-07 12:45:35,684949
-4,-6,-9,-13,-12,-6,-3,-6,2021-08-07 12:45:35,684949
3,4,7,6,10,8,6,3,2021-08-07 12:45:35,684949
2,-1,1,-1,-7,-6,-1,0,2021-08-07 12:45:35,684949
3,1,1,1,2,2,0,0,2021-08-07 12:45:35,684949
-4,-6,-5,-5,-10,-6,-3,-3,2021-08-07 12:45:35,700949
2,5,3,12,17,6,4,2,2021-08-07 12:45:35,716949
-4,-3,-6,-4,-7,-5,-2,-2,2021-08-07 12:45:35,716949
2,1,3,1,10,8,3,2,2021-08-07 12:45:35,716949
-1,-2,-1,-3,-5,-1,-2,-1,2021-08-07 12:45:35,716949
-4,-7,-8,-7,-7,-4,-3,-3,2021-08-07 12:45:35,716949
-2,-3,-2,3,8,2,0,-2,2021-08-07 12:45:35,731949
2,1,4,1,3,1,2,1,2021-08-07 12:45:35,747949
2,4,4,11,15,7,4,1,2021-08-07 12:45:35,747949
-1,1,0,6,4,1,-1,-2,2021-08-07 12:45:35,747949
0,2,-1,-3,-5,-2,-2,0,2021-08-07 12:45:35,747949
-3,-4,-6,-14,-16,-9,-5,-3,2021-08-07 12:45:35,747949
-3,-4,-6,-10,-9,-4,-3,-2,2021-08-07 12:45:35,747949
2,2,4,1,2,-1,-1,1,2021-08-07 12:45:35,748950
-3,-2,-2,3,1,0,0,-2,2021-08-07 12:45:35,779948
1,1,2,6,-1,-2,-1,-2,2021-08-07 12:45:35,779948
3,4,2,7,15,10,6,3,2021-08-07 12:45:35,779948
-5,-5,-4,-4,-8,-6,-5,-4,2021-08-07 12:45:35,779948
-1,-2,-4,-5,-4,-4,-3,-1,2021-08-07 12:45:35,795950
3,6,6,1,3,1,2,3,2021-08-07 12:45:35,811949
0,-1,-3,-3,-7,-6,-3,-2,2021-08-07 12:45:35,811949
-1,-2,-2,0,-2,-1,0,0,2021-08-07 12:45:35,811949
-2,-2,-3,2,3,1,-1,-2,2021-08-07 12:45:35,811949
2,4,0,-2,3,6,4,3,2021-08-07 12:45:35,811949
0,-2,0,0,-3,-2,-3,-1,2021-08-07 12:45:35,811949
0,1,-2,0,4,3,1,1,2021-08-07 12:45:35,811949
-1,-2,-2,-7,-14,-9,-5,-2,2021-08-07 12:45:35,842950
-6,-7,-7,1,1,-1,-3,-5,2021-08-07 12:45:35,858950
1,5,7,4,3,4,1,3,2021-08-07 12:45:35,890949
2,4,3,12,21,13,7,2,2021-08-07 12:45:35,906949
-1,-2,-2,-10,-10,-5,-3,-1,2021-08-07 12:45:35,906949
0,-2,1,-2,-9,-6,-2,1,2021-08-07 12:45:35,906949
-2,-3,-3,0,4,2,0,-2,2021-08-07 12:45:35,906949
0,1,4,5,4,0,0,-1,2021-08-07 12:45:35,906949
1,3,1,2,4,5,0,0,2021-08-07 12:45:35,906949
-3,-1,0,1,7,2,0,-2,2021-08-07 12:45:35,906949
-4,-6,-9,-13,-16,-10,-6,-5,2021-08-07 12:45:35,906949
0,-4,-4,-14,-21,-12,-7,-2,2021-08-07 12:45:35,906949
1,1,2,11,16,11,6,2,2021-08-07 12:45:35,906949
-3,-1,0,2,1,-1,-2,-3,2021-08-07 12:45:35,907950
0,-2,0,4,-3,-3,-2,1,2021-08-07 12:45:35,907950
-2,-2,-5,-3,4,3,0,-2,2021-08-07 12:45:35,907950
1,1,0,2,4,-2,0,0,2021-08-07 12:45:35,907950
-2,-3,-6,-11,-15,-7,-4,-4,2021-08-07 12:45:35,907950
0,1,2,2,8,5,3,2,2021-08-07 12:45:35,907950
-5,-7,-8,-11,-18,-12,-7,-6,2021-08-07 12:45:35,907950
1,3,2,0,-1,4,4,2,2021-08-07 12:45:35,932950
3,3,4,11,13,6,3,2,2021-08-07 12:45:35,932950
-2,1,1,2,2,1,0,-2,2021-08-07 12:45:35,932950
-2,-6,-8,-11,-14,-8,-3,-4,2021-08-07 12:45:35,932950
0,1,3,2,2,1,0,1,2021-08-07 12:45:35,954951
4,6,6,7,13,6,4,4,2021-08-07 12:45:35,970950
0,1,5,-2,-8,-5,-4,-2,2021-08-07 12:45:35,986949
-3,-3,-8,-6,-4,-3,-2,-1,2021-08-07 12:45:35,986949
-4,-5,-9,-7,-7,-6,-5,-3,2021-08-07 12:45:35,986949
-1,-3,-3,-7,-10,-6,-5,-2,2021-08-07 12:45:35,986949
2,3,4,10,9,5,4,1,2021-08-07 12:45:35,986949
1,3,9,6,10,8,3,2,2021-08-07 12:45:35,986949
0,2,0,1,-1,-2,-1,0,2021-08-07 12:45:35,986949
-2,-3,-5,-4,-7,-3,-4,0,2021-08-07 12:45:35,987950
1,0,-1,-2,-1,2,0,-1,2021-08-07 12:45:35,987950
-3,-1,-3,-14,-17,-7,-5,-1,2021-08-07 12:45:35,987950
0,0,2,6,9,4,1,-1,2021-08-07 12:45:36,017950
-2,-1,-2,-2,-1,-1,1,-2,2021-08-07 12:45:36,033949
1,3,2,9,7,2,1,1,2021-08-07 12:45:36,033949
-1,-2,-4,-3,-6,-5,-2,-3,2021-08-07 12:45:36,033949
-2,-3,-1,0,-4,-2,-2,0,2021-08-07 12:45:36,049947
1,1,3,-2,-1,-1,1,-1,2021-08-07 12:45:36,049947
-3,-3,-3,-4,-3,-2,-2,-2,2021-08-07 12:45:36,049947
3,2,1,2,9,5,2,1,2021-08-07 12:45:36,049947
-4,-3,-2,-6,-15,-9,-6,-4,2021-08-07 12:45:36,049947
2,1,3,5,7,4,4,2,2021-08-07 12:45:36,049947
-2,-3,-5,-6,-5,-3,-2,-2,2021-08-07 12:45:36,050949
-1,-1,2,3,7,5,2,2,2021-08-07 12:45:36,050949
-1,-1,-1,0,-2,-1,-1,-1,2021-08-07 12:45:36,080951
-2,-5,-5,-10,-8,-3,-3,-3,2021-08-07 12:45:36,096949
-1,-2,-3,0,3,3,-1,-1,2021-08-07 12:45:36,128949
3,4,6,10,10,5,1,1,2021-08-07 12:45:36,128949
-2,-3,-1,1,-3,-4,-2,-2,2021-08-07 12:45:36,128949
3,6,6,7,3,2,3,3,2021-08-07 12:45:36,128949
-3,-4,-4,-6,-12,-8,-3,-3,2021-08-07 12:45:36,128949
-1,-1,-5,-2,-2,-1,-1,0,2021-08-07 12:45:36,128949
4,3,3,2,13,9,4,2,2021-08-07 12:45:36,129950
-2,-1,-2,-2,3,-1,-2,-2,2021-08-07 12:45:36,129950
-2,-1,-1,-3,-2,-2,-1,-1,2021-08-07 12:45:36,129950
0,-1,0,2,-1,-2,0,0,2021-08-07 12:45:36,129950
-1,-1,-3,-3,-1,-2,-2,1,2021-08-07 12:45:36,129950
-4,-6,-4,-7,-13,-8,-6,-3,2021-08-07 12:45:36,129950
4,5,6,9,9,4,3,4,2021-08-07 12:45:36,129950
-3,1,-1,0,-1,-3,-3,-2,2021-08-07 12:45:36,129950
0,-1,-1,-8,-8,-4,-2,-1,2021-08-07 12:45:36,175949
-1,0,-4,-3,-3,-1,-3,-1,2021-08-07 12:45:36,175949
-3,-4,-5,-10,-11,-7,-5,-4,2021-08-07 12:45:36,175949
1,-2,-3,-4,-2,3,1,0,2021-08-07 12:45:36,175949
2,2,3,8,17,9,6,4,2021-08-07 12:45:36,175949
0,3,-1,0,-5,-1,1,2,2021-08-07 12:45:36,176949
-5,-4,-2,0,2,0,0,-2,2021-08-07 12:45:36,176949
-1,1,3,7,0,-1,-1,-1,2021-08-07 12:45:36,176949
-4,-3,-3,-3,-1,-1,-2,-6,2021-08-07 12:45:36,191950
2,4,4,7,8,2,2,-1,2021-08-07 12:45:36,191950
-1,-1,-2,-3,-9,-6,-3,-1,2021-08-07 12:45:36,191950
3,2,1,-3,-7,-5,-2,0,2021-08-07 12:45:36,191950
-4,-7,-9,-17,-23,-11,-6,-3,2021-08-07 12:45:36,207948
2,3,3,11,29,16,8,1,2021-08-07 12:45:36,223949
-1,-4,-4,-5,-4,-1,-3,-3,2021-08-07 12:45:36,223949
-1,1,1,11,15,7,4,0,2021-08-07 12:45:36,223949
0,2,4,2,-6,-4,-1,1,2021-08-07 12:45:36,223949
-2,-4,-6,-7,-14,-8,-4,-3,2021-08-07 12:45:36,223949
0,-1,-3,-3,-1,-1,-3,-1,2021-08-07 12:45:36,255949
-1,-3,-4,-9,-4,-3,-1,-2,2021-08-07 12:45:36,255949
-1,-2,-4,-1,-5,-1,-3,-3,2021-08-07 12:45:36,255949
-3,-5,-3,-4,-4,-4,-3,-3,2021-08-07 12:45:36,255949
3,3,4,6,5,4,4,1,2021-08-07 12:45:36,255949
0,1,2,7,9,4,3,1,2021-08-07 12:45:36,255949
1,2,2,4,7,2,2,0,2021-08-07 12:45:36,271948
-3,-3,1,-3,-11,-9,-6,-1,2021-08-07 12:45:36,271948
0,3,0,11,7,3,1,0,2021-08-07 12:45:36,271948
-3,-2,-7,-14,-8,-4,-3,0,2021-08-07 12:45:36,271948
1,0,-3,-16,-4,-1,0,-1,2021-08-07 12:45:36,302949
-3,-5,-2,-9,-6,-2,-2,-3,2021-08-07 12:45:36,318949
-3,-5,6,-4,-3,-6,-4,-3,2021-08-07 12:45:36,334948
1,1,-4,7,1,3,2,1,2021-08-07 12:45:36,334948
-7,-5,-6,3,-3,-4,-4,-5,2021-08-07 12:45:36,334948
7,8,9,7,4,5,4,6,2021-08-07 12:45:36,334948
2,3,1,3,6,3,2,1,2021-08-07 12:45:36,334948
-2,-2,1,-11,-10,-5,-3,-2,2021-08-07 12:45:36,334948
1,-2,1,0,-1,-2,0,-1,2021-08-07 12:45:36,334948
-5,-8,-10,-10,-13,-7,-5,-6,2021-08-07 12:45:36,334948
0,0,-2,-4,-5,-5,-3,-2,2021-08-07 12:45:36,335950
2,3,3,7,7,6,3,1,2021-08-07 12:45:36,335950
-1,0,-3,0,2,3,1,1,2021-08-07 12:45:36,350948
0,2,2,12,26,15,4,0,2021-08-07 12:45:36,356950
-1,0,-1,1,0,-2,0,1,2021-08-07 12:45:36,356950
-1,-1,-2,-12,-11,-7,-2,-2,2021-08-07 12:45:36,356950
1,0,0,-5,-12,-7,-3,-1,2021-08-07 12:45:36,382949
-1,-1,0,-3,-7,-4,-1,-1,2021-08-07 12:45:36,382949
1,0,-1,5,14,11,5,0,2021-08-07 12:45:36,382949
0,0,-1,-6,2,1,0,1,2021-08-07 12:45:36,382949
2,3,2,3,6,6,3,2,2021-08-07 12:45:36,382949
-2,-7,-5,-9,-10,-8,-5,-3,2021-08-07 12:45:36,382949
-5,-5,-7,-13,-22,-15,-8,-5,2021-08-07 12:45:36,398949
-1,0,5,11,8,4,3,0,2021-08-07 12:45:36,398949
2,1,0,8,16,9,5,3,2021-08-07 12:45:36,414949
-3,-2,-3,-3,-5,-4,-5,-3,2021-08-07 12:45:36,414949
-4,-8,-6,-11,-13,-8,-6,-4,2021-08-07 12:45:36,414949
5,4,7,5,8,8,5,3,2021-08-07 12:45:36,414949
2,5,4,6,5,2,1,3,2021-08-07 12:45:36,445950
-1,-2,-4,-3,-6,-4,-1,-2,2021-08-07 12:45:36,445950
1,2,0,-2,0,-1,1,0,2021-08-07 12:45:36,445950
-1,-4,-3,-3,-10,-5,-4,-3,2021-08-07 12:45:36,445950
-3,-2,-1,0,-4,-3,-2,-2,2021-08-07 12:45:36,461948
0,-2,2,1,4,0,2,-3,2021-08-07 12:45:36,461948
0,-1,-2,2,7,4,1,-2,2021-08-07 12:45:36,461948
3,5,6,9,10,6,2,4,2021-08-07 12:45:36,461948
0,1,0,-3,-6,-2,0,-1,2021-08-07 12:45:36,476949
-4,-7,-5,-8,-10,-8,-4,-4,2021-08-07 12:45:36,491948
0,0,-2,-6,-4,0,-1,-2,2021-08-07 12:45:36,507949
-3,-2,-4,1,-3,-5,-2,-2,2021-08-07 12:45:36,507949
2,2,3,7,3,1,0,0,2021-08-07 12:45:36,507949
1,2,1,3,12,11,3,3,2021-08-07 12:45:36,507949
1,-2,-3,-6,-3,0,0,1,2021-08-07 12:45:36,507949
-3,-4,-3,-8,-4,-4,-5,-2,2021-08-07 12:45:36,507949
-2,-4,-3,-3,-13,-9,-5,-4,2021-08-07 12:45:36,523949
0,1,1,5,3,0,1,0,2021-08-07 12:45:36,539949
-1,1,4,10,11,2,2,1,2021-08-07 12:45:36,571947
-5,-10,-12,-18,-25,-15,-10,-6,2021-08-07 12:45:36,586949
5,8,5,8,22,16,8,5,2021-08-07 12:45:36,601949
2,1,-1,3,-3,-2,-1,2,2021-08-07 12:45:36,617947
0,2,2,-3,0,3,1,2,2021-08-07 12:45:36,633947
-4,-4,5,-6,-11,-9,-5,-3,2021-08-07 12:45:36,633947
-6,-8,-15,-13,-20,-13,-8,-5,2021-08-07 12:45:36,633947
2,6,4,23,37,20,10,4,2021-08-07 12:45:36,633947
-3,-3,-4,-2,-7,-4,-2,-2,2021-08-07 12:45:36,633947
3,5,2,8,14,8,5,1,2021-08-07 12:45:36,633947
0,1,3,-5,-5,-2,-1,0,2021-08-07 12:45:36,633947
-4,-5,-2,-12,-20,-14,-8,-4,2021-08-07 12:45:36,634949
-4,-5,-6,-7,-15,-8,-4,-3,2021-08-07 12:45:36,634949
4,3,5,12,18,12,7,4,2021-08-07 12:45:36,634949
-3,-1,1,3,1,-2,-2,-2,2021-08-07 12:45:36,634949
-2,-1,-4,1,-5,-4,-1,0,2021-08-07 12:45:36,634949
0,2,2,2,6,2,-2,0,2021-08-07 12:45:36,634949
2,2,0,3,13,10,5,2,2021-08-07 12:45:36,634949
-2,-3,-8,-16,-6,-1,-2,-2,2021-08-07 12:45:36,634949
-2,-7,-6,-16,-19,-10,-6,-4,2021-08-07 12:45:36,634949
-2,-3,-1,-1,-5,-4,-2,-1,2021-08-07 12:45:36,634949
-2,-2,0,8,-1,1,-1,-2,2021-08-07 12:45:36,634949
3,3,5,7,8,3,1,2,2021-08-07 12:45:36,635949
-2,-1,0,2,0,-1,-1,-2,2021-08-07 12:45:36,635949
3,5,3,1,6,5,3,1,2021-08-07 12:45:36,635949
-1,-1,-4,-3,-7,-5,-3,-1,2021-08-07 12:45:36,635949
-3,-4,-3,-7,-2,-3,-1,-3,2021-08-07 12:45:36,649949
-4,-5,-4,-6,-7,-5,-3,-3,2021-08-07 12:45:36,665949
0,-1,1,3,0,1,1,0,2021-08-07 12:45:36,680948
-2,-3,-3,-1,-9,-5,-1,-2,2021-08-07 12:45:36,680948
-2,-2,-1,-3,-11,-5,-4,-3,2021-08-07 12:45:36,680948
3,5,4,4,10,6,5,3,2021-08-07 12:45:36,680948
1,4,7,17,30,18,8,4,2021-08-07 12:45:36,680948
1,-1,-5,-5,-7,-4,-2,0,2021-08-07 12:45:36,680948
-1,1,-2,-8,-5,-1,0,0,2021-08-07 12:45:36,696947
-4,-5,-6,-9,-14,-9,-6,-4,2021-08-07 12:45:36,712948
-2,-3,-3,-9,-10,-8,-5,-3,2021-08-07 12:45:36,712948
-1,-1,0,1,5,2,0,-3,2021-08-07 12:45:36,712948
0,-2,-1,5,0,0,-1,1,2021-08-07 12:45:36,712948
2,6,5,6,10,6,3,2,2021-08-07 12:45:36,712948
4,6,7,15,18,11,6,3,2021-08-07 12:45:36,712948
-2,-1,-3,-3,-2,-4,-2,-4,2021-08-07 12:45:36,712948
-1,-2,-2,-6,-7,-5,-2,0,2021-08-07 12:45:36,743947
-3,-7,0,-21,-22,-15,-8,-6,2021-08-07 12:45:36,758969
-4,-6,-13,-9,-16,-9,-6,-3,2021-08-07 12:45:36,758969
1,3,3,8,11,5,2,1,2021-08-07 12:45:36,758969
0,-1,2,10,6,2,0,-2,2021-08-07 12:45:36,758969
0,-2,-2,-1,-8,-5,-3,1,2021-08-07 12:45:36,758969
2,3,6,8,13,11,4,2,2021-08-07 12:45:36,758969
1,4,6,7,9,4,3,0,2021-08-07 12:45:36,758969
-1,0,-2,-1,2,0,-1,0,2021-08-07 12:45:36,770968
-1,2,1,1,-8,-4,-2,-2,2021-08-07 12:45:36,771969
-8,-10,-9,-19,-21,-12,-9,-7,2021-08-07 12:45:36,771969
-2,-4,-6,-8,-4,-2,-2,-2,2021-08-07 12:45:36,771969
