EMG 1,EMG 2,EMG 3,EMG 4,EMG 5,EMG 6,EMG 7,EMG 8,Timestamp,Milliseconds
1,1,2,1,2,2,1,1,2021-08-07 10:32:58,512457
-3,-2,-2,-5,-9,-7,-3,-2,2021-08-07 10:32:58,512457
-3,-6,-6,-7,-7,-4,-3,-3,2021-08-07 10:32:58,512457
2,1,2,10,4,1,1,1,2021-08-07 10:32:58,512457
-1,-1,-3,-7,-1,1,0,0,2021-08-07 10:32:58,512457
-3,-3,0,2,4,-1,-2,-2,2021-08-07 10:32:58,512457
-2,0,-2,-9,-11,-6,-3,-1,2021-08-07 10:32:58,527458
-1,-3,-5,-9,-11,-5,-4,-2,2021-08-07 10:32:58,543458
1,0,3,12,16,5,1,1,2021-08-07 10:32:58,559458
0,-1,0,-1,-1,1,-1,-2,2021-08-07 10:32:58,575458
-4,-4,-5,-9,-14,-7,-2,-3,2021-08-07 10:32:58,603458
-1,0,1,-5,-3,-1,0,-2,2021-08-07 10:32:58,603458
1,0,1,10,10,4,1,1,2021-08-07 10:32:58,603458
-3,-2,-4,-7,-4,-2,-2,-2,2021-08-07 10:32:58,603458
2,2,1,11,9,2,0,0,2021-08-07 10:32:58,603458
2,5,2,-1,-6,-1,-1,1,2021-08-07 10:32:58,603458
-1,-3,-2,-7,-8,-5,-2,-3,2021-08-07 10:32:58,603458
-2,-2,-2,1,1,0,0,-1,2021-08-07 10:32:58,604458
3,2,2,-4,0,3,2,2,2021-08-07 10:32:58,623459
-2,-2,-5,-6,-4,-1,-1,-2,2021-08-07 10:32:58,623459
-1,0,2,7,6,0,-2,-2,2021-08-07 10:32:58,623459
-2,-2,-1,4,-2,-1,0,-1,2021-08-07 10:32:58,623459
-1,0,1,8,12,5,0,1,2021-08-07 10:32:58,639460
-2,-2,-9,-10,-7,-3,-4,-1,2021-08-07 10:32:58,639460
0,0,0,-5,0,1,-2,1,2021-08-07 10:32:58,639460
1,0,-3,-8,-7,-2,-1,0,2021-08-07 10:32:58,639460
-1,1,3,7,3,1,0,-1,2021-08-07 10:32:58,639460
-2,-3,-1,-1,-7,-3,-2,-3,2021-08-07 10:32:58,639460
0,1,0,5,7,5,1,1,2021-08-07 10:32:58,639460
-3,-2,-3,-6,-1,-1,0,-1,2021-08-07 10:32:58,639460
2,3,3,6,3,2,2,0,2021-08-07 10:32:58,639460
-3,-4,-5,-3,-6,-4,-2,0,2021-08-07 10:32:58,640458
3,-1,-1,0,6,3,3,1,2021-08-07 10:32:58,655461
-2,-4,1,2,2,0,-3,-2,2021-08-07 10:32:58,671457
-2,-2,-5,-7,-6,-3,-1,0,2021-08-07 10:32:58,687458
-3,-4,-5,-4,-6,-3,-2,0,2021-08-07 10:32:58,687458
-2,0,5,12,9,2,1,-1,2021-08-07 10:32:58,687458
-1,1,-4,1,2,0,-1,-3,2021-08-07 10:32:58,687458
-3,-3,-4,-3,-5,-4,-4,-4,2021-08-07 10:32:58,687813
2,3,5,-1,4,0,-1,-2,2021-08-07 10:32:58,687813
-1,1,-3,-3,-8,-6,-3,0,2021-08-07 10:32:58,703481
3,2,2,4,4,4,3,2,2021-08-07 10:32:58,719481
0,-3,-2,-3,-7,-3,-2,0,2021-08-07 10:32:58,719481
1,0,-1,3,7,1,2,2,2021-08-07 10:32:58,719481
-1,-2,0,-2,-2,-2,-2,-2,2021-08-07 10:32:58,719481
-2,-4,-3,-6,-10,-5,-4,-3,2021-08-07 10:32:58,719481
1,-1,-3,-9,-2,1,0,1,2021-08-07 10:32:58,719481
-3,-2,2,5,5,3,0,-2,2021-08-07 10:32:58,719481
0,-1,-1,1,5,1,2,-1,2021-08-07 10:32:58,751482
0,2,1,8,-4,-2,1,1,2021-08-07 10:32:58,767481
-3,-2,-4,-11,-5,-2,-1,-1,2021-08-07 10:32:58,767481
0,-1,-3,-1,4,0,-3,-2,2021-08-07 10:32:58,767481
-3,-3,-4,-7,-9,-6,-3,-1,2021-08-07 10:32:58,767481
-1,-1,-1,-2,1,0,2,1,2021-08-07 10:32:58,767481
1,-1,-2,-1,-4,-1,1,1,2021-08-07 10:32:58,767481
-1,1,3,9,10,4,1,-1,2021-08-07 10:32:58,767481
-1,-5,-5,-3,-4,-4,-2,-4,2021-08-07 10:32:58,783480
1,1,1,-1,-3,-2,0,1,2021-08-07 10:32:58,798481
3,5,2,-9,-5,-1,1,1,2021-08-07 10:32:58,798481
1,0,3,8,1,0,1,0,2021-08-07 10:32:58,798481
-2,-1,-2,1,-2,-2,-3,-1,2021-08-07 10:32:58,798481
-2,-2,-1,4,4,0,-1,-3,2021-08-07 10:32:58,798481
-3,-4,-2,0,-3,-4,-2,-3,2021-08-07 10:32:58,798481
-2,-1,-4,-10,-5,-2,-2,1,2021-08-07 10:32:58,798481
-1,0,1,-4,-3,-1,1,-1,2021-08-07 10:32:58,830480
0,-1,1,5,7,2,-1,0,2021-08-07 10:32:58,830480
0,0,4,9,8,3,2,0,2021-08-07 10:32:58,830480
1,1,-4,-5,-17,-6,1,1,2021-08-07 10:32:58,830480
-3,-1,-2,1,8,1,-1,-3,2021-08-07 10:32:58,846482
1,1,-4,-8,-2,-1,0,0,2021-08-07 10:32:58,862481
-2,-2,0,4,-1,-2,-3,-3,2021-08-07 10:32:58,876481
-1,-1,-1,-5,-1,-1,-1,0,2021-08-07 10:32:58,876481
2,4,4,6,-3,0,-1,1,2021-08-07 10:32:58,876481
0,-3,-4,-5,-10,-4,0,0,2021-08-07 10:32:58,877481
-1,1,1,8,14,4,1,0,2021-08-07 10:32:58,877481
-2,-3,-3,-5,-4,-2,-2,-1,2021-08-07 10:32:58,877481
0,0,0,-2,-4,-3,-1,-1,2021-08-07 10:32:58,877481
1,0,0,-2,0,-1,-1,-1,2021-08-07 10:32:58,877481
-2,-2,-3,-3,-6,-3,-2,-3,2021-08-07 10:32:58,893482
-2,-1,1,4,1,-1,-2,-2,2021-08-07 10:32:58,893482
-2,-3,-1,-5,-4,-1,-1,0,2021-08-07 10:32:58,893482
-4,-3,-3,0,-1,-2,-3,-1,2021-08-07 10:32:58,893482
1,0,3,5,-3,-3,0,1,2021-08-07 10:32:58,893482
1,1,4,7,3,1,1,1,2021-08-07 10:32:58,893482
0,1,0,2,3,1,-1,0,2021-08-07 10:32:58,924992
1,2,3,6,8,5,2,1,2021-08-07 10:32:58,924992
-1,-2,-3,-4,-4,-3,-2,-2,2021-08-07 10:32:58,924992
-2,0,-2,-5,-4,-4,-2,-1,2021-08-07 10:32:58,924992
-1,-4,-3,-5,-7,-3,-1,-3,2021-08-07 10:32:58,955993
-3,-3,-3,-6,-10,-5,-2,-2,2021-08-07 10:32:58,955993
0,0,2,7,12,6,-1,-1,2021-08-07 10:32:58,955993
-2,0,0,5,6,3,-1,-1,2021-08-07 10:32:58,955993
-1,-1,-1,-6,-6,-1,-2,-1,2021-08-07 10:32:58,955993
1,-1,0,4,2,-1,-2,-1,2021-08-07 10:32:58,955993
0,-2,-1,-1,-4,-2,0,-1,2021-08-07 10:32:58,971994
0,-2,-4,-10,-8,-4,-3,-1,2021-08-07 10:32:58,987993
-3,-2,-5,-9,-15,-8,-3,-2,2021-08-07 10:32:58,987993
5,5,12,27,35,17,5,1,2021-08-07 10:32:58,987993
-1,-2,-4,-6,-7,-2,0,-1,2021-08-07 10:32:58,987993
0,-1,-1,-2,2,-1,-2,-1,2021-08-07 10:32:58,987993
-2,-3,-5,-2,-5,-3,-2,-2,2021-08-07 10:32:59,003993
0,2,1,-3,-5,-4,0,1,2021-08-07 10:32:59,019992
-1,-1,-3,-6,-3,-2,-1,-1,2021-08-07 10:32:59,035992
-2,-1,-3,0,-1,1,0,-2,2021-08-07 10:32:59,035992
-1,-3,-3,-5,-2,-2,-2,-1,2021-08-07 10:32:59,035992
-2,-4,-4,-5,-5,-3,-2,-3,2021-08-07 10:32:59,051992
0,1,0,4,3,1,0,1,2021-08-07 10:32:59,067992
2,0,2,0,-1,-2,0,0,2021-08-07 10:32:59,083992
-2,0,2,4,4,1,0,-1,2021-08-07 10:32:59,083992
-2,-3,-2,-1,-6,-3,-2,-3,2021-08-07 10:32:59,083992
2,2,3,17,5,2,3,3,2021-08-07 10:32:59,083992
-2,1,-8,-15,-5,-4,-2,-1,2021-08-07 10:32:59,083992
2,2,6,-1,1,1,1,1,2021-08-07 10:32:59,083992
-5,-2,2,-5,-5,-6,-6,-4,2021-08-07 10:32:59,083992
-2,-3,-7,-3,-4,-4,-2,0,2021-08-07 10:32:59,083992
-2,-6,-5,-9,-2,-1,0,0,2021-08-07 10:32:59,083992
4,4,0,13,11,5,3,3,2021-08-07 10:32:59,084992
-1,-2,-2,-3,-6,-2,-1,-2,2021-08-07 10:32:59,084992
-3,0,1,0,0,0,-2,-1,2021-08-07 10:32:59,084992
0,2,-7,-12,-3,-1,0,-1,2021-08-07 10:32:59,084992
-5,-7,-5,-10,-9,-6,-5,-5,2021-08-07 10:32:59,098991
0,-1,1,-2,-2,-1,-1,0,2021-08-07 10:32:59,098991
-4,-6,-6,-8,-3,-1,-2,-3,2021-08-07 10:32:59,098991
0,-1,1,14,3,0,1,0,2021-08-07 10:32:59,114992
2,3,10,11,5,4,2,1,2021-08-07 10:32:59,130992
0,4,7,13,12,3,1,1,2021-08-07 10:32:59,130992
1,0,-9,-8,-1,0,-2,-2,2021-08-07 10:32:59,130992
-3,-4,-6,-9,-14,-6,-3,-3,2021-08-07 10:32:59,130992
-3,-5,-12,-23,-16,-8,-4,-1,2021-08-07 10:32:59,130992
3,3,8,17,20,11,5,1,2021-08-07 10:32:59,130992
0,1,4,-3,-5,-3,1,-1,2021-08-07 10:32:59,146992
0,0,3,11,7,3,1,-1,2021-08-07 10:32:59,150992
-5,-4,-6,-1,-7,-4,-4,-4,2021-08-07 10:32:59,162993
0,0,-5,-13,-11,-6,1,1,2021-08-07 10:32:59,162993
1,2,3,1,1,0,0,1,2021-08-07 10:32:59,162993
-1,-2,0,1,-4,-2,-1,-4,2021-08-07 10:32:59,162993
-1,-3,1,4,7,2,-1,0,2021-08-07 10:32:59,209993
-2,-3,-9,-14,-9,-5,-4,-3,2021-08-07 10:32:59,209993
2,4,3,3,1,0,1,1,2021-08-07 10:32:59,209993
1,1,3,2,1,0,0,1,2021-08-07 10:32:59,209993
-1,0,-2,3,5,2,2,-1,2021-08-07 10:32:59,225992
-4,-4,-10,-14,-14,-6,-4,-2,2021-08-07 10:32:59,241991
-4,-3,2,3,0,1,-3,0,2021-08-07 10:32:59,257991
0,1,3,3,4,2,-1,1,2021-08-07 10:32:59,273993
3,1,-2,2,7,2,3,2,2021-08-07 10:32:59,273993
-2,-2,-3,-3,-8,-4,0,-1,2021-08-07 10:32:59,273993
1,-1,-2,1,7,3,-1,-2,2021-08-07 10:32:59,273993
-1,0,2,-1,-3,0,-1,-2,2021-08-07 10:32:59,273993
1,0,-2,6,2,0,-1,-1,2021-08-07 10:32:59,289993
-1,-1,1,6,3,-1,0,-1,2021-08-07 10:32:59,289993
-2,-3,-2,-7,-13,-6,-1,-2,2021-08-07 10:32:59,289993
0,0,2,-7,1,1,-1,-2,2021-08-07 10:32:59,289993
-4,-3,-5,-13,-8,-4,-3,-3,2021-08-07 10:32:59,289993
0,-2,-10,-9,-8,-4,-2,-2,2021-08-07 10:32:59,289993
0,-1,2,0,1,2,0,-1,2021-08-07 10:32:59,289993
-1,-2,0,8,1,-1,-1,0,2021-08-07 10:32:59,289993
-1,-1,-1,-3,-6,-3,-1,0,2021-08-07 10:32:59,289993
-1,-2,4,5,11,5,1,-1,2021-08-07 10:32:59,289993
-2,-1,0,6,5,1,-1,-1,2021-08-07 10:32:59,289993
1,3,-2,-3,-4,-2,0,0,2021-08-07 10:32:59,289993
-1,-3,-1,-2,-2,0,-1,-2,2021-08-07 10:32:59,305992
-2,-2,-1,3,-2,-1,-3,-1,2021-08-07 10:32:59,321993
-1,-2,-2,-4,-2,0,0,-1,2021-08-07 10:32:59,321993
-2,-2,2,3,0,0,-2,-2,2021-08-07 10:32:59,321993
-2,-1,0,3,2,0,-2,-1,2021-08-07 10:32:59,321993
-1,0,2,3,1,0,1,0,2021-08-07 10:32:59,321993
0,1,-1,-6,-5,-3,0,0,2021-08-07 10:32:59,321993
1,0,3,-2,-2,-3,1,-1,2021-08-07 10:32:59,321993
-1,1,-3,0,11,5,1,0,2021-08-07 10:32:59,353992
0,-1,-1,3,0,0,-1,0,2021-08-07 10:32:59,353992
-3,-3,-2,-4,-6,-3,-3,-2,2021-08-07 10:32:59,353992
1,2,1,3,2,2,0,1,2021-08-07 10:32:59,353992
0,-1,2,-2,-2,-2,1,0,2021-08-07 10:32:59,369992
0,-1,-2,-2,-7,-2,-2,0,2021-08-07 10:32:59,369992
-3,-4,-9,-27,-14,-5,-4,-3,2021-08-07 10:32:59,369992
0,-1,1,8,15,5,0,0,2021-08-07 10:32:59,369992
7,10,17,27,19,11,6,4,2021-08-07 10:32:59,385993
1,-2,-4,-7,-4,-4,-1,-1,2021-08-07 10:32:59,385993
-1,-2,-2,-4,-9,-5,-4,-1,2021-08-07 10:32:59,385993
-2,-1,-5,-10,-9,-4,-2,-1,2021-08-07 10:32:59,385993
-2,-3,-2,0,2,-1,-2,0,2021-08-07 10:32:59,401993
1,-1,-5,-10,-5,0,0,0,2021-08-07 10:32:59,401993
-2,-3,-7,-4,-7,-4,-2,-2,2021-08-07 10:32:59,401993
-4,-4,-2,2,11,4,0,-1,2021-08-07 10:32:59,401993
-4,1,3,8,3,0,-2,-1,2021-08-07 10:32:59,427992
-1,3,4,1,0,-1,-2,-4,2021-08-07 10:32:59,433992
0,1,1,4,0,-2,-1,-1,2021-08-07 10:32:59,433992
-1,0,-1,-3,-7,-4,-2,-1,2021-08-07 10:32:59,433992
2,-2,-6,-9,-7,-3,0,-1,2021-08-07 10:32:59,449992
-4,-5,-4,-10,-12,-6,-1,-2,2021-08-07 10:32:59,465994
1,1,3,9,12,4,2,1,2021-08-07 10:32:59,481992
1,0,2,13,15,6,2,1,2021-08-07 10:32:59,481992
0,-2,3,5,-6,-3,-2,0,2021-08-07 10:32:59,481992
1,1,-12,-14,0,4,0,0,2021-08-07 10:32:59,481992
-4,-2,-1,-6,-6,-2,-2,-3,2021-08-07 10:32:59,481992
-2,-2,-4,-6,-8,-4,-2,0,2021-08-07 10:32:59,481992
-2,-3,0,-3,1,-1,-1,-2,2021-08-07 10:32:59,481992
-1,-2,2,5,1,-1,-1,-2,2021-08-07 10:32:59,481992
2,3,0,-6,-10,-2,2,1,2021-08-07 10:32:59,481992
-1,0,0,5,8,3,-1,-1,2021-08-07 10:32:59,482998
-1,1,-3,2,5,2,0,-1,2021-08-07 10:32:59,512993
-2,-1,-1,-8,-7,-3,1,-1,2021-08-07 10:32:59,528993
2,2,4,19,17,6,3,1,2021-08-07 10:32:59,528993
-2,-2,-2,-7,-12,-4,-1,-1,2021-08-07 10:32:59,528993
0,-2,-5,-9,-6,-2,-1,-1,2021-08-07 10:32:59,528993
-2,-3,0,-1,-3,-3,-3,-1,2021-08-07 10:32:59,528993
-1,0,-4,-4,-2,-1,-1,0,2021-08-07 10:32:59,528993
0,0,-1,-2,-4,-2,-1,-1,2021-08-07 10:32:59,528993
2,0,-2,0,0,0,-1,-2,2021-08-07 10:32:59,544992
0,-3,-1,-2,0,1,-2,-2,2021-08-07 10:32:59,560991
-1,-2,-2,-3,2,-1,-1,0,2021-08-07 10:32:59,576991
2,2,0,-3,-5,-1,0,1,2021-08-07 10:32:59,592992
-3,1,-2,-7,-5,-2,0,-1,2021-08-07 10:32:59,608993
-3,-2,0,0,-5,-5,-1,-3,2021-08-07 10:32:59,608993
-2,-2,-2,-3,-3,-2,-1,-1,2021-08-07 10:32:59,608993
-1,0,3,12,18,6,1,-1,2021-08-07 10:32:59,608993
-2,-1,-2,-6,-7,-3,-4,0,2021-08-07 10:32:59,608993
2,3,4,12,14,5,1,3,2021-08-07 10:32:59,608993
-2,-2,-3,-6,-9,-5,-2,-3,2021-08-07 10:32:59,608993
-4,-4,-4,-6,-12,-7,-4,-3,2021-08-07 10:32:59,608993
3,5,2,3,2,2,2,0,2021-08-07 10:32:59,624991
1,2,2,3,1,1,-1,0,2021-08-07 10:32:59,639993
-1,-1,-2,1,2,2,-1,-1,2021-08-07 10:32:59,655991
-2,-1,-2,-5,-8,-4,-2,-3,2021-08-07 10:32:59,655991
-5,-3,-6,-3,-5,-3,-3,-3,2021-08-07 10:32:59,655991
0,1,1,-8,1,2,2,-1,2021-08-07 10:32:59,655991
1,2,1,8,8,3,2,2,2021-08-07 10:32:59,655991
1,-1,3,6,2,0,1,-1,2021-08-07 10:32:59,655991
-1,-3,-4,-10,-12,-6,-2,0,2021-08-07 10:32:59,655991
-1,-1,0,-1,-2,-2,0,-1,2021-08-07 10:32:59,655991
1,-1,5,14,15,5,0,1,2021-08-07 10:32:59,655991
0,3,3,1,3,2,2,1,2021-08-07 10:32:59,655991
-3,-1,-3,-10,-4,-3,-2,-1,2021-08-07 10:32:59,655991
-1,-2,-5,-2,-4,-4,-1,-1,2021-08-07 10:32:59,655991
-3,-4,-2,-5,-7,-4,-3,-2,2021-08-07 10:32:59,702992
0,1,8,11,2,0,-2,-1,2021-08-07 10:32:59,706993
2,2,7,24,14,7,4,1,2021-08-07 10:32:59,718991
-5,-2,-11,-28,-11,-3,-3,-2,2021-08-07 10:32:59,734992
-5,-5,-9,-12,-12,-10,-6,-4,2021-08-07 10:32:59,734992
-1,0,-4,-11,-3,-1,-2,-1,2021-08-07 10:32:59,734992
-4,-4,0,-5,-3,0,-1,-1,2021-08-07 10:32:59,734992
-2,-1,3,11,0,-1,-1,0,2021-08-07 10:32:59,734992
3,4,3,5,5,5,3,3,2021-08-07 10:32:59,734992
-1,-1,0,-1,-1,-2,-1,0,2021-08-07 10:32:59,734992
0,-1,-1,0,-2,-3,-1,-1,2021-08-07 10:32:59,734992
-1,-3,-5,-4,-1,-2,-2,-2,2021-08-07 10:32:59,735993
3,3,9,12,14,7,3,2,2021-08-07 10:32:59,735993
3,2,-2,1,0,-1,0,0,2021-08-07 10:32:59,735993
0,-1,-4,-4,1,-2,0,0,2021-08-07 10:32:59,766992
-4,-4,-3,-10,-10,-5,-3,-3,2021-08-07 10:32:59,782992
-3,-4,-4,-4,-3,-2,-2,-2,2021-08-07 10:32:59,797993
-1,-2,-2,-2,0,0,0,-1,2021-08-07 10:32:59,797993
-2,-5,-7,-16,-11,-8,-5,-2,2021-08-07 10:32:59,797993
-1,-2,2,7,-2,-3,0,1,2021-08-07 10:32:59,797993
3,2,3,13,15,4,3,2,2021-08-07 10:32:59,797993
-1,-1,-4,-7,-3,-1,0,0,2021-08-07 10:32:59,797993
0,-1,2,5,4,2,0,-1,2021-08-07 10:32:59,797993
-2,-2,-4,-11,-9,-5,-4,-3,2021-08-07 10:32:59,797993
-2,-2,-2,-3,-3,0,-1,0,2021-08-07 10:32:59,829993
-1,-2,-3,1,-2,-2,-1,-1,2021-08-07 10:32:59,829993
-3,-1,-1,0,-5,-3,-1,-1,2021-08-07 10:32:59,829993
1,2,3,9,6,2,1,1,2021-08-07 10:32:59,829993
-3,-3,-5,-10,-8,-5,-2,-4,2021-08-07 10:32:59,829993
-3,-4,-5,-9,-7,-5,-2,-2,2021-08-07 10:32:59,829993
3,0,2,0,0,1,0,1,2021-08-07 10:32:59,829993
0,0,3,13,14,4,2,-1,2021-08-07 10:32:59,829993
-2,-3,-6,-14,-16,-8,-3,-2,2021-08-07 10:32:59,829993
2,0,3,9,14,4,2,2,2021-08-07 10:32:59,829993
-2,-1,-1,-8,-6,-3,-1,-1,2021-08-07 10:32:59,845993
3,4,5,13,13,5,2,3,2021-08-07 10:32:59,845993
0,-1,1,-2,-2,-1,-1,-1,2021-08-07 10:32:59,861992
-1,-1,-2,-7,-10,-4,-4,-3,2021-08-07 10:32:59,861992
0,0,-3,0,-2,-3,0,1,2021-08-07 10:32:59,861992
-1,-2,0,0,-2,-3,0,-2,2021-08-07 10:32:59,861992
-1,-2,-2,-3,-6,-3,-2,0,2021-08-07 10:32:59,861992
-2,-2,2,-2,-3,-1,0,-1,2021-08-07 10:32:59,861992
-4,-3,-2,3,4,1,0,-3,2021-08-07 10:32:59,891992
0,1,-3,-4,-2,0,0,2,2021-08-07 10:32:59,907992
0,1,-3,-6,-5,-2,1,0,2021-08-07 10:32:59,907992
0,-2,2,8,8,3,-1,-2,2021-08-07 10:32:59,907992
3,1,4,4,8,2,0,1,2021-08-07 10:32:59,907992
-2,-3,-1,-2,-5,-1,-1,-2,2021-08-07 10:32:59,907992
1,0,2,8,9,4,0,0,2021-08-07 10:32:59,923992
-1,-3,-5,-10,-12,-5,-1,-1,2021-08-07 10:32:59,939994
-3,-3,-3,-5,-2,-2,-2,-3,2021-08-07 10:32:59,939994
1,0,-2,1,2,0,0,0,2021-08-07 10:32:59,939994
-3,-4,-4,-9,-4,-1,-2,-4,2021-08-07 10:32:59,939994
1,1,4,6,0,1,1,0,2021-08-07 10:32:59,939994
0,1,0,7,5,2,0,1,2021-08-07 10:32:59,955993
-4,-6,-8,-19,-15,-9,-6,-5,2021-08-07 10:32:59,970991
3,3,6,9,13,4,1,2,2021-08-07 10:32:59,970991
-3,-4,-6,0,3,1,0,-2,2021-08-07 10:32:59,970991
-3,-3,-9,-13,-12,-4,-3,-2,2021-08-07 10:32:59,970991
0,0,4,7,4,0,-2,0,2021-08-07 10:32:59,970991
-7,-4,-4,-7,-16,-10,-4,-3,2021-08-07 10:32:59,970991
1,3,3,1,2,2,0,1,2021-08-07 10:32:59,984992
-1,-1,2,2,7,3,2,-1,2021-08-07 10:32:59,984992
2,2,0,2,2,2,2,1,2021-08-07 10:32:59,984992
-1,-3,-5,-3,-2,-1,-2,-2,2021-08-07 10:32:59,984992
-1,1,-3,-4,-5,-4,-1,0,2021-08-07 10:32:59,984992
-1,-2,-1,0,-3,-3,-2,-1,2021-08-07 10:33:00,018991
-2,-1,-1,0,2,1,-1,-3,2021-08-07 10:33:00,034992
0,1,2,3,1,0,0,0,2021-08-07 10:33:00,034992
-4,-3,-7,-4,-2,-3,-2,-3,2021-08-07 10:33:00,034992
-1,-2,-1,-2,-2,-2,-1,0,2021-08-07 10:33:00,034992
-1,0,2,1,-1,1,-1,0,2021-08-07 10:33:00,034992
0,-1,-3,-5,-3,-1,1,1,2021-08-07 10:33:00,034992
0,-1,-4,-6,-2,-1,-2,0,2021-08-07 10:33:00,034992
0,1,1,1,-1,-3,-1,-3,2021-08-07 10:33:00,050993
0,0,2,4,1,-1,0,-1,2021-08-07 10:33:00,067012
-3,-4,-6,-12,-10,-5,-2,-2,2021-08-07 10:33:00,067012
1,0,-3,-5,-3,-1,-1,1,2021-08-07 10:33:00,067012
0,2,4,6,11,5,1,2,2021-08-07 10:33:00,082013
0,-1,0,0,-1,1,2,0,2021-08-07 10:33:00,098012
1,-2,0,-2,-8,-5,-1,-1,2021-08-07 10:33:00,130012
-2,-3,-1,-1,6,3,0,-2,2021-08-07 10:33:00,130012
-2,-1,-1,4,-2,-2,-2,-1,2021-08-07 10:33:00,130012
0,0,0,-2,0,0,-1,1,2021-08-07 10:33:00,130012
0,0,1,1,2,3,0,0,2021-08-07 10:33:00,130012
-3,-3,1,-2,-6,-5,-3,-1,2021-08-07 10:33:00,130012
2,-1,0,1,0,1,2,0,2021-08-07 10:33:00,130012
-2,-2,-1,-2,4,2,0,-1,2021-08-07 10:33:00,130012
-2,-2,-1,1,-2,-2,-2,-3,2021-08-07 10:33:00,130012
0,-1,0,4,4,2,0,-1,2021-08-07 10:33:00,130012
0,0,-2,-5,-4,-4,0,-2,2021-08-07 10:33:00,130012
0,1,1,4,0,-1,0,0,2021-08-07 10:33:00,130012
1,1,1,5,5,3,0,-1,2021-08-07 10:33:00,130012
-1,-4,-7,-15,-11,-3,-2,-2,2021-08-07 10:33:00,130012
4,2,4,16,11,5,4,4,2021-08-07 10:33:00,161011
2,-1,0,6,2,1,2,1,2021-08-07 10:33:00,177011
-2,-3,-3,-2,3,0,0,-1,2021-08-07 10:33:00,208012
-3,-1,-3,-1,-3,-3,-2,-3,2021-08-07 10:33:00,224013
-6,-4,-4,-8,-6,-6,-7,-4,2021-08-07 10:33:00,240012
-2,-2,0,-2,1,-1,-1,-1,2021-08-07 10:33:00,256013
-1,1,0,3,1,-2,-4,0,2021-08-07 10:33:00,273012
1,2,5,4,-2,-4,1,1,2021-08-07 10:33:00,273012
-2,-4,-2,-10,-9,-5,-3,-3,2021-08-07 10:33:00,273012
3,3,-1,2,8,4,3,1,2021-08-07 10:33:00,273012
1,0,-3,-3,3,2,0,1,2021-08-07 10:33:00,273012
0,-1,5,4,-1,-1,0,0,2021-08-07 10:33:00,273012
0,-2,-3,0,-5,0,-1,-1,2021-08-07 10:33:00,273012
-4,-4,-10,-16,-10,-4,-4,-4,2021-08-07 10:33:00,273012
-2,-1,-1,1,-1,1,0,0,2021-08-07 10:33:00,274012
-2,-1,-3,-4,-2,-3,-3,-2,2021-08-07 10:33:00,274012
1,1,3,1,1,1,1,0,2021-08-07 10:33:00,274012
-1,-2,-1,2,-3,0,-1,-2,2021-08-07 10:33:00,274012
1,3,3,5,6,2,2,1,2021-08-07 10:33:00,274012
-3,-3,-2,-3,-2,0,-2,-2,2021-08-07 10:33:00,274012
-1,-3,-2,-3,-1,-3,-1,-1,2021-08-07 10:33:00,274012
0,0,1,4,-1,-2,-2,-2,2021-08-07 10:33:00,274012
0,-2,-3,-1,-4,-3,-2,-2,2021-08-07 10:33:00,274012
1,1,2,3,3,2,1,0,2021-08-07 10:33:00,274012
1,-1,-3,-7,-3,-1,-1,0,2021-08-07 10:33:00,274012
-1,-1,-4,-2,-1,-2,-1,1,2021-08-07 10:33:00,275011
-3,-3,0,-2,-3,-2,-2,-2,2021-08-07 10:33:00,275011
-3,-2,-3,-3,-3,-2,-3,-1,2021-08-07 10:33:00,275011
-1,1,3,10,6,2,0,0,2021-08-07 10:33:00,287522
2,3,5,4,0,0,1,0,2021-08-07 10:33:00,303524
0,0,-1,-6,-2,0,1,0,2021-08-07 10:33:00,334545
0,0,-3,-2,0,0,-1,0,2021-08-07 10:33:00,350545
-3,-1,-2,-5,-4,-2,-2,-1,2021-08-07 10:33:00,350545
-2,-1,-4,-7,-4,-2,0,0,2021-08-07 10:33:00,350545
0,1,2,7,4,2,0,-1,2021-08-07 10:33:00,350545
2,0,0,5,1,0,-1,0,2021-08-07 10:33:00,350545
-2,-2,-3,-6,-5,-2,-2,0,2021-08-07 10:33:00,350545
-2,-3,1,-1,2,-2,-1,-2,2021-08-07 10:33:00,350545
-1,-3,-6,-15,-11,-4,-3,0,2021-08-07 10:33:00,350545
-1,0,2,3,-6,-3,-1,-1,2021-08-07 10:33:00,351545
2,0,-5,4,10,5,2,2,2021-08-07 10:33:00,351545
-1,-1,-2,0,2,0,-1,-2,2021-08-07 10:33:00,351545
-3,-2,1,3,1,1,-1,-2,2021-08-07 10:33:00,351545
-1,1,-2,0,0,-1,-1,-1,2021-08-07 10:33:00,351545
-2,-2,-3,-12,-11,-5,-3,-3,2021-08-07 10:33:00,366545
2,2,4,6,3,2,1,0,2021-08-07 10:33:00,382544
0,0,-1,6,4,1,1,-2,2021-08-07 10:33:00,414545
-2,-4,-7,-6,-3,1,0,0,2021-08-07 10:33:00,430544
-2,-1,1,-4,-5,-1,-1,0,2021-08-07 10:33:00,446546
-2,-1,-1,-4,-5,-4,-2,0,2021-08-07 10:33:00,446546
1,1,1,1,-1,1,-1,-1,2021-08-07 10:33:00,446546
0,-3,-2,0,1,-4,-1,-1,2021-08-07 10:33:00,446546
0,-1,-3,0,0,-1,0,-1,2021-08-07 10:33:00,446546
-3,-1,-1,-6,-6,-1,-3,-2,2021-08-07 10:33:00,446546
-1,-1,-1,0,0,1,-1,-1,2021-08-07 10:33:00,446546
0,0,0,6,8,3,1,1,2021-08-07 10:33:00,446546
-3,-3,-3,-4,-1,0,-2,-2,2021-08-07 10:33:00,446546
0,-2,1,2,-3,-3,-1,-2,2021-08-07 10:33:00,446546
-3,-1,-4,-8,-3,-5,-2,-1,2021-08-07 10:33:00,446546
0,0,-1,-1,3,0,0,-1,2021-08-07 10:33:00,447545
0,0,1,3,2,1,1,-1,2021-08-07 10:33:00,447545
-1,-2,-3,-3,-1,0,-1,-2,2021-08-07 10:33:00,447545
-2,-3,-8,-16,-14,-7,-2,-2,2021-08-07 10:33:00,447545
1,6,6,14,13,6,1,1,2021-08-07 10:33:00,447545
0,0,4,13,6,2,-1,0,2021-08-07 10:33:00,477544
-2,-3,-4,-11,-5,-2,0,-2,2021-08-07 10:33:00,477544
-1,-1,0,4,3,0,-1,0,2021-08-07 10:33:00,477544
-2,-4,-4,-9,-13,-6,-3,-2,2021-08-07 10:33:00,477544
-1,1,1,4,6,1,2,-2,2021-08-07 10:33:00,493545
0,-1,-3,1,3,0,-2,-1,2021-08-07 10:33:00,493545
-3,-5,0,3,-4,-4,-2,-2,2021-08-07 10:33:00,493545
1,1,-1,-6,-1,1,0,0,2021-08-07 10:33:00,493545
1,0,0,3,-1,-1,0,0,2021-08-07 10:33:00,509546
-1,0,1,3,-2,-1,0,1,2021-08-07 10:33:00,525545
0,1,-1,2,3,-1,-1,-2,2021-08-07 10:33:00,541056
-1,-4,-3,-6,-6,-3,-2,-3,2021-08-07 10:33:00,553056
1,-1,-2,-8,-6,-2,-2,1,2021-08-07 10:33:00,554055
-2,-1,2,4,3,1,0,-2,2021-08-07 10:33:00,554055
1,2,2,2,1,3,0,2,2021-08-07 10:33:00,554055
-3,-2,0,2,4,1,-1,-1,2021-08-07 10:33:00,554055
-2,-2,-5,-7,-5,-4,-3,-2,2021-08-07 10:33:00,554055
0,0,-2,-3,-6,-4,-1,1,2021-08-07 10:33:00,554055
-1,-3,-2,-2,-2,-2,-1,-1,2021-08-07 10:33:00,554055
0,-1,1,9,9,6,2,-1,2021-08-07 10:33:00,554055
-4,-3,-2,-10,-20,-9,-5,-2,2021-08-07 10:33:00,573056
5,4,7,14,21,12,6,4,2021-08-07 10:33:00,573056
0,-2,-3,-2,-5,-4,-2,-1,2021-08-07 10:33:00,573056
1,2,1,-1,5,4,1,1,2021-08-07 10:33:00,573056
-2,-2,-1,-1,1,-1,-3,-2,2021-08-07 10:33:00,605056
-5,-5,-8,-15,-17,-8,-4,-3,2021-08-07 10:33:00,621056
1,2,1,1,0,0,3,2,2021-08-07 10:33:00,637055
-1,0,-1,-5,-3,-3,-1,1,2021-08-07 10:33:00,637055
0,0,0,5,2,0,0,0,2021-08-07 10:33:00,637055
0,-1,-1,1,1,-1,-3,-2,2021-08-07 10:33:00,637055
-2,-3,-2,-3,1,0,-2,-3,2021-08-07 10:33:00,637055
-3,-2,-3,-3,-8,-3,-3,-1,2021-08-07 10:33:00,637055
1,0,0,2,4,2,0,-1,2021-08-07 10:33:00,637055
0,-2,-3,0,1,0,-1,-2,2021-08-07 10:33:00,637055
-1,0,-1,1,-3,-3,-1,-1,2021-08-07 10:33:00,637055
0,1,-1,0,3,0,1,0,2021-08-07 10:33:00,638056
-2,-1,-2,-4,-2,-1,-1,-3,2021-08-07 10:33:00,653055
-2,-2,-2,-1,-2,-2,0,-2,2021-08-07 10:33:00,653055
-2,-3,-3,1,-3,-3,-2,-2,2021-08-07 10:33:00,653055
0,-2,-4,-6,-7,-3,1,1,2021-08-07 10:33:00,653055
1,1,3,4,4,1,1,2,2021-08-07 10:33:00,669055
-2,-1,-1,-1,0,-1,-2,-2,2021-08-07 10:33:00,669055
-2,-1,-3,-8,-7,0,2,-1,2021-08-07 10:33:00,669055
-4,-6,-4,-11,-8,-4,-5,-4,2021-08-07 10:33:00,669055
3,4,6,18,24,6,1,1,2021-08-07 10:33:00,701055
-1,0,-1,-4,-7,-4,-3,-2,2021-08-07 10:33:00,717056
0,0,1,7,7,1,0,0,2021-08-07 10:33:00,717056
0,-2,-3,-9,-11,-5,-1,-1,2021-08-07 10:33:00,717056
-2,-4,-6,-12,-13,-4,0,-2,2021-08-07 10:33:00,717056
-2,0,-1,-4,-5,-6,-4,1,2021-08-07 10:33:00,717056
0,-2,-1,-3,5,3,1,0,2021-08-07 10:33:00,717056
-1,-1,-1,-2,-6,-4,-2,-2,2021-08-07 10:33:00,717056
0,-1,-2,-1,0,-1,-2,-2,2021-08-07 10:33:00,733056
3,3,4,16,18,10,5,2,2021-08-07 10:33:00,748055
-1,-2,-1,-2,-3,-2,-2,-3,2021-08-07 10:33:00,748055
-2,-1,0,-1,2,-2,-2,-1,2021-08-07 10:33:00,748055
-3,-4,-5,-10,-10,-5,-3,-2,2021-08-07 10:33:00,748055
0,0,-2,-6,-3,-2,-2,-4,2021-08-07 10:33:00,748055
0,-1,-1,0,0,1,0,1,2021-08-07 10:33:00,748055
-1,-1,3,6,4,2,1,0,2021-08-07 10:33:00,748055
-3,-3,-4,-6,-8,-3,-4,-2,2021-08-07 10:33:00,764056
-3,-4,-5,-8,-9,-4,-3,-3,2021-08-07 10:33:00,764056
4,5,6,7,10,5,3,2,2021-08-07 10:33:00,796055
1,3,1,1,0,0,0,0,2021-08-07 10:33:00,796055
-4,1,-1,-2,-9,-3,-1,0,2021-08-07 10:33:00,796055
-2,-1,-3,-6,4,4,1,0,2021-08-07 10:33:00,796055
0,-1,2,8,7,3,1,-1,2021-08-07 10:33:00,796055
1,-1,0,4,2,0,-2,0,2021-08-07 10:33:00,796055
0,-1,-1,0,1,0,0,-1,2021-08-07 10:33:00,812055
-2,-1,-1,0,-5,-5,-1,1,2021-08-07 10:33:00,828055
-2,-1,-3,-8,-9,-4,-2,-1,2021-08-07 10:33:00,828055
0,0,0,1,1,2,-1,0,2021-08-07 10:33:00,830056
2,2,2,-3,-1,0,-1,0,2021-08-07 10:33:00,830056
0,-1,-2,2,-1,0,-1,1,2021-08-07 10:33:00,830056
-1,-2,0,-2,-1,-1,-2,-1,2021-08-07 10:33:00,830056
-1,0,2,6,2,0,-2,0,2021-08-07 10:33:00,830056
0,0,1,3,3,1,1,0,2021-08-07 10:33:00,859056
-2,-2,-2,-6,-5,-2,-1,-1,2021-08-07 10:33:00,875055
0,-2,-1,1,-3,-3,-1,1,2021-08-07 10:33:00,891055
-2,-2,-3,-4,-2,-1,-1,-1,2021-08-07 10:33:00,891055
0,0,0,0,1,-1,1,1,2021-08-07 10:33:00,891055
0,1,3,4,2,0,2,-1,2021-08-07 10:33:00,891055
0,2,1,3,2,0,-1,0,2021-08-07 10:33:00,891055
-2,-2,-5,-7,-6,-4,0,-2,2021-08-07 10:33:00,891055
-1,-2,-5,-5,-3,-3,-2,-2,2021-08-07 10:33:00,906568
1,0,-1,-1,-1,0,0,-1,2021-08-07 10:33:00,906568
-2,-3,-4,-7,-6,-3,-3,-1,2021-08-07 10:33:00,906568
4,1,3,12,9,6,3,3,2021-08-07 10:33:00,906568
-3,-3,-2,-1,0,1,1,-2,2021-08-07 10:33:00,906568
-3,-2,-2,-1,-4,-3,-1,-2,2021-08-07 10:33:00,906568
-4,0,-2,-2,-3,-4,-4,-3,2021-08-07 10:33:00,906568
-3,-1,-3,-3,-1,-1,-3,-3,2021-08-07 10:33:00,907569
0,1,2,4,3,1,-1,1,2021-08-07 10:33:00,938081
2,2,3,5,6,3,0,0,2021-08-07 10:33:00,938081
0,-2,-2,-3,0,-1,-1,-2,2021-08-07 10:33:00,938081
-2,-3,-7,-9,-11,-5,-2,-2,2021-08-07 10:33:00,938081
0,-1,0,3,7,1,0,0,2021-08-07 10:33:00,954081
3,3,3,1,1,0,2,0,2021-08-07 10:33:00,954081
-1,-2,-3,2,4,2,-1,-2,2021-08-07 10:33:00,954081
-2,-3,-3,-8,-4,-4,-2,-3,2021-08-07 10:33:00,954081
-2,-2,1,3,-2,0,-2,-1,2021-08-07 10:33:00,970082
-2,-2,-3,-7,-8,-5,-1,-2,2021-08-07 10:33:00,970082
-3,-2,-8,-12,-11,-4,-1,-1,2021-08-07 10:33:00,970082
2,3,5,5,17,7,1,2,2021-08-07 10:33:00,970082
-2,-2,-2,5,2,1,0,0,2021-08-07 10:33:01,001081
0,0,1,3,1,0,-1,-1,2021-08-07 10:33:01,001081
-1,-1,-1,-3,-5,-2,-1,0,2021-08-07 10:33:01,001081
-1,-4,-7,-16,-14,-7,-3,1,2021-08-07 10:33:01,001081
-1,1,1,1,3,-1,1,-4,2021-08-07 10:33:01,017081
-3,-3,-4,-2,-2,-3,-4,-4,2021-08-07 10:33:01,017081
-3,-1,0,1,2,1,1,-1,2021-08-07 10:33:01,017081
-1,-2,0,2,1,1,1,-1,2021-08-07 10:33:01,017081
1,-2,-2,-2,-3,-1,0,2,2021-08-07 10:33:01,033081
2,1,3,2,-2,-1,1,2,2021-08-07 10:33:01,049081
4,6,8,14,10,4,-1,1,2021-08-07 10:33:01,081081
-1,-1,0,6,7,5,-1,-1,2021-08-07 10:33:01,097081
-5,-7,-13,-18,-16,-7,-3,-2,2021-08-07 10:33:01,106081
-6,-10,-11,-16,-14,-8,-6,-5,2021-08-07 10:33:01,106081
1,0,2,1,2,0,0,1,2021-08-07 10:33:01,106081
2,5,10,13,10,5,1,-1,2021-08-07 10:33:01,106081
-1,1,0,1,2,2,1,-1,2021-08-07 10:33:01,106081
-3,-4,-4,-5,-8,-6,-4,-2,2021-08-07 10:33:01,106081
0,-1,-2,-5,-9,-5,-1,0,2021-08-07 10:33:01,106081
-2,0,-3,-2,-5,-4,-1,-1,2021-08-07 10:33:01,107081
-1,1,2,5,7,3,-1,0,2021-08-07 10:33:01,107081
2,1,2,7,10,7,3,1,2021-08-07 10:33:01,107081
0,-1,-2,-1,-4,-2,0,0,2021-08-07 10:33:01,107081
2,2,1,8,5,2,1,2,2021-08-07 10:33:01,107081
2,-1,0,-2,-3,-1,-1,-1,2021-08-07 10:33:01,107081
1,-2,-2,-3,-3,-1,0,-2,2021-08-07 10:33:01,107081
-2,-4,-2,-6,-6,-3,-3,-5,2021-08-07 10:33:01,107081
-3,-3,-4,-2,-3,-4,-2,-2,2021-08-07 10:33:01,107081
-1,-2,-2,-3,-6,-4,-2,0,2021-08-07 10:33:01,143591
2,2,4,10,14,6,3,3,2021-08-07 10:33:01,158592
1,0,-1,-3,3,1,-1,1,2021-08-07 10:33:01,158592
-5,-6,-6,-9,-8,-5,-3,-2,2021-08-07 10:33:01,158592
-2,-1,1,-2,-4,-5,-3,-2,2021-08-07 10:33:01,174590
0,0,0,2,-2,1,0,1,2021-08-07 10:33:01,174590
-2,-2,-4,-9,-8,-5,-1,-2,2021-08-07 10:33:01,174590
3,1,1,-6,1,0,1,1,2021-08-07 10:33:01,174590
-2,-1,3,18,11,3,0,-1,2021-08-07 10:33:01,174590
-1,-1,-3,-7,-1,2,-1,0,2021-08-07 10:33:01,174590
1,3,1,-4,0,2,-1,-1,2021-08-07 10:33:01,174590
-1,-1,-2,-2,-4,-2,0,-4,2021-08-07 10:33:01,174590
-4,-3,-5,-10,-10,-6,-2,-4,2021-08-07 10:33:01,206592
1,2,2,4,2,-1,1,1,2021-08-07 10:33:01,206592
-1,-2,0,7,7,2,0,-2,2021-08-07 10:33:01,206592
-2,-1,-3,-5,-5,-1,0,-1,2021-08-07 10:33:01,206592
-1,-3,-1,-5,-1,-1,-2,-2,2021-08-07 10:33:01,206592
-3,-1,-1,-1,-10,-6,-3,-2,2021-08-07 10:33:01,206592
2,1,1,12,14,6,3,1,2021-08-07 10:33:01,222593
2,2,3,2,1,3,0,1,2021-08-07 10:33:01,238593
-3,-2,-3,-4,-3,-2,-1,-1,2021-08-07 10:33:01,254591
-4,-5,-6,-9,-8,-4,-3,-3,2021-08-07 10:33:01,270608
1,3,6,-1,-3,0,1,2,2021-08-07 10:33:01,270608
0,0,-2,-2,-3,-2,-1,1,2021-08-07 10:33:01,270608
3,1,6,13,12,5,2,2,2021-08-07 10:33:01,270608
2,2,1,-2,-7,-3,1,1,2021-08-07 10:33:01,270608
-4,-5,-5,-5,-5,-2,-2,-3,2021-08-07 10:33:01,270608
-1,-2,-1,2,4,1,0,-1,2021-08-07 10:33:01,270608
0,0,-3,-8,-8,-3,-3,-2,2021-08-07 10:33:01,270608
-2,0,-1,2,8,1,-3,-2,2021-08-07 10:33:01,270608
-3,-3,-4,-2,-10,-6,-1,0,2021-08-07 10:33:01,271609
2,0,-2,-8,-4,1,5,1,2021-08-07 10:33:01,271609
-1,0,-1,-3,3,2,-1,1,2021-08-07 10:33:01,301608
-3,-4,0,5,3,-7,-6,-5,2021-08-07 10:33:01,333607
-3,-2,0,4,5,-1,-2,-2,2021-08-07 10:33:01,333607
-4,-3,-2,-5,-5,-4,-3,-1,2021-08-07 10:33:01,333607
-1,-1,-1,-7,-3,0,2,1,2021-08-07 10:33:01,333607
0,1,-3,-4,0,2,2,2,2021-08-07 10:33:01,333607
-1,-3,-1,0,-4,-1,-2,1,2021-08-07 10:33:01,333607
-2,0,1,3,4,0,1,-2,2021-08-07 10:33:01,333607
4,4,2,4,0,-1,1,0,2021-08-07 10:33:01,333607
-1,0,0,-4,-2,3,-1,1,2021-08-07 10:33:01,333607
-3,-3,-6,0,-1,-1,-2,-3,2021-08-07 10:33:01,333607
0,-2,-2,-5,-4,-3,-4,-2,2021-08-07 10:33:01,334610
3,3,5,9,10,3,2,2,2021-08-07 10:33:01,349609
-2,-2,1,-1,0,-1,-1,-2,2021-08-07 10:33:01,365607
2,1,-1,-2,-1,-1,0,0,2021-08-07 10:33:01,381607
-3,-3,-3,0,-6,-4,-2,-2,2021-08-07 10:33:01,381607
-1,1,-3,-7,-6,-3,0,-1,2021-08-07 10:33:01,381607
-3,-2,-2,-2,-4,-1,-1,-1,2021-08-07 10:33:01,381607
1,1,2,6,9,5,2,1,2021-08-07 10:33:01,381607
1,1,-1,1,-1,-3,-1,0,2021-08-07 10:33:01,381607
-1,-2,-2,0,0,-1,-1,-1,2021-08-07 10:33:01,381607
-1,0,0,0,-2,0,1,0,2021-08-07 10:33:01,381607
-3,-3,-2,-4,-4,-2,-3,-3,2021-08-07 10:33:01,397608
-2,-2,-1,-1,-1,-2,-1,-3,2021-08-07 10:33:01,397608
0,-3,-1,-3,-2,0,-1,-1,2021-08-07 10:33:01,413608
2,1,-1,-1,2,0,1,2,2021-08-07 10:33:01,429608
-2,-2,-2,-1,0,-1,-2,0,2021-08-07 10:33:01,429608
0,0,3,3,1,2,0,0,2021-08-07 10:33:01,429608
1,1,1,0,-4,0,-1,1,2021-08-07 10:33:01,429608
-1,0,-2,-2,-1,-1,-1,-2,2021-08-07 10:33:01,429608
1,1,3,1,4,-1,1,-1,2021-08-07 10:33:01,429608
-1,-1,-1,0,-2,-1,-1,-3,2021-08-07 10:33:01,429608
-4,-6,-6,-9,-10,-7,-4,-4,2021-08-07 10:33:01,460606
1,0,2,7,5,2,1,-1,2021-08-07 10:33:01,460606
-1,0,0,2,1,0,1,-1,2021-08-07 10:33:01,460606
1,-1,1,1,1,2,0,0,2021-08-07 10:33:01,460606
-2,-1,-4,-3,1,0,0,-1,2021-08-07 10:33:01,476608
0,-2,-2,0,-4,-4,0,0,2021-08-07 10:33:01,476608
-3,0,-5,-9,-10,-4,-4,0,2021-08-07 10:33:01,476608
-1,-2,-3,-3,-3,-4,-2,-1,2021-08-07 10:33:01,476608
0,-1,2,1,3,2,1,-1,2021-08-07 10:33:01,492608
0,1,3,9,6,2,1,0,2021-08-07 10:33:01,492608
0,1,1,0,4,1,0,0,2021-08-07 10:33:01,492608
1,1,-1,-1,2,2,0,0,2021-08-07 10:33:01,492608
-2,-3,-2,-3,-7,-1,-1,-2,2021-08-07 10:33:01,508608
-2,-2,-4,-7,-6,-4,-4,-2,2021-08-07 10:33:01,524606
-2,-1,0,-2,-2,-1,-1,-1,2021-08-07 10:33:01,524606
0,-1,0,2,0,-1,-1,1,2021-08-07 10:33:01,524606
-1,0,1,2,5,1,0,-2,2021-08-07 10:33:01,524606
-1,-1,0,2,0,-1,1,-2,2021-08-07 10:33:01,524606
-1,-1,-2,-5,-5,-1,-2,-2,2021-08-07 10:33:01,555608
-3,-1,0,-2,-4,-4,-3,0,2021-08-07 10:33:01,571608
-3,-2,-4,-2,-4,0,-1,1,2021-08-07 10:33:01,587607
2,2,2,7,7,4,4,2,2021-08-07 10:33:01,602608
1,1,-1,-1,-2,1,1,-1,2021-08-07 10:33:01,602608
-2,-2,-3,1,3,2,0,-2,2021-08-07 10:33:01,602608
-1,-2,-4,-6,-11,-7,-2,-2,2021-08-07 10:33:01,602608
-1,1,1,0,12,6,0,-1,2021-08-07 10:33:01,602608
-1,0,1,-1,-2,-1,0,-1,2021-08-07 10:33:01,602608
-1,0,1,6,2,1,0,1,2021-08-07 10:33:01,602608
-2,-1,-2,-2,-5,-4,-2,-2,2021-08-07 10:33:01,602608
-2,-4,-4,-11,-11,-5,-3,-2,2021-08-07 10:33:01,602608
-1,-1,-1,0,2,0,0,-1,2021-08-07 10:33:01,602608
-2,-2,-3,-3,-2,-2,-1,-1,2021-08-07 10:33:01,602608
-2,0,0,2,1,2,-1,0,2021-08-07 10:33:01,618608
-4,-2,-4,-11,-16,-8,-3,-2,2021-08-07 10:33:01,618608
0,0,1,11,20,7,1,2,2021-08-07 10:33:01,618608
-1,1,2,4,0,1,1,0,2021-08-07 10:33:01,618608
1,0,3,4,7,3,1,1,2021-08-07 10:33:01,634119
0,-3,-4,-7,-7,-3,-1,-2,2021-08-07 10:33:01,634119
-4,-4,-4,-12,-21,-10,-5,-4,2021-08-07 10:33:01,650118
2,0,-1,0,5,0,-1,-2,2021-08-07 10:33:01,650118
0,2,1,4,1,-4,-2,1,2021-08-07 10:33:01,650118
-1,-1,0,1,1,1,-1,0,2021-08-07 10:33:01,650118
0,0,-1,3,1,-1,0,0,2021-08-07 10:33:01,650118
-3,-4,-5,-13,-20,-9,-4,-5,2021-08-07 10:33:01,650118
1,1,0,1,5,2,0,-1,2021-08-07 10:33:01,682120
-2,-4,-5,-13,-29,-17,-6,-5,2021-08-07 10:33:01,682120
2,3,4,12,26,14,4,3,2021-08-07 10:33:01,682120
4,3,6,24,35,18,6,4,2021-08-07 10:33:01,682120
-1,-2,0,9,19,7,1,-1,2021-08-07 10:33:01,682120
-1,-1,-1,0,-1,1,1,1,2021-08-07 10:33:01,682120
-6,-6,-9,-21,-38,-20,-6,-4,2021-08-07 10:33:01,698118
-5,-5,-7,-21,-22,-12,-4,-5,2021-08-07 10:33:01,698118
-5,-3,-3,3,7,1,-2,-3,2021-08-07 10:33:01,713119
-2,1,0,3,4,3,0,-2,2021-08-07 10:33:01,713119
3,4,7,7,1,-1,-1,3,2021-08-07 10:33:01,713119
-1,-2,-4,-10,-10,-6,-3,-2,2021-08-07 10:33:01,713119
0,-1,-3,-8,-14,-6,-1,-2,2021-08-07 10:33:01,744120
2,3,2,4,10,5,1,1,2021-08-07 10:33:01,760119
-3,-5,-6,-6,-5,-3,-1,-3,2021-08-07 10:33:01,760119
1,2,1,2,2,2,1,1,2021-08-07 10:33:01,760119
0,0,-1,-3,-5,-3,-1,-1,2021-08-07 10:33:01,760119
-3,-4,-4,-5,-6,-3,-3,-2,2021-08-07 10:33:01,775118
1,2,4,8,16,8,4,0,2021-08-07 10:33:01,775118
-2,-1,0,0,-5,-3,-2,-1,2021-08-07 10:33:01,775118
-1,-2,-1,3,3,0,-1,-1,2021-08-07 10:33:01,775118
-4,-3,-7,-12,-4,0,-3,-3,2021-08-07 10:33:01,775118
0,1,4,13,11,1,-2,0,2021-08-07 10:33:01,775118
-2,-3,-5,-7,-7,-4,-2,-1,2021-08-07 10:33:01,775118
-1,0,-1,-1,-9,-3,-2,-1,2021-08-07 10:33:01,807119
1,-2,0,2,6,3,1,2,2021-08-07 10:33:01,823118
-1,-2,-5,-7,-6,-3,0,-2,2021-08-07 10:33:01,839120
1,3,3,1,-4,-2,-3,0,2021-08-07 10:33:01,839120
-1,0,1,1,7,1,0,-2,2021-08-07 10:33:01,839120
-1,-1,1,6,4,2,0,-1,2021-08-07 10:33:01,839120
-2,-2,-3,-6,-4,-1,1,-1,2021-08-07 10:33:01,839120
-1,-1,1,4,2,2,4,0,2021-08-07 10:33:01,839120
2,1,-2,-8,-10,-3,-4,1,2021-08-07 10:33:01,839120
-1,-2,1,6,11,-1,-3,-3,2021-08-07 10:33:01,839120
-3,-5,-4,-8,-9,-6,-5,-2,2021-08-07 10:33:01,871119
0,1,-2,-5,-6,-4,0,-1,2021-08-07 10:33:01,887119
0,2,-1,-2,-1,4,5,3,2021-08-07 10:33:01,887119
1,2,3,5,3,4,3,2,2021-08-07 10:33:01,887119
1,0,2,0,4,0,-2,-1,2021-08-07 10:33:01,887119
-4,-5,-6,-17,-10,-6,-5,-6,2021-08-07 10:33:01,887119
-1,0,4,15,15,4,0,0,2021-08-07 10:33:01,887119
0,1,0,-2,-9,-2,0,2,2021-08-07 10:33:01,887119
0,-2,-2,-3,4,3,3,-1,2021-08-07 10:33:01,887119
0,0,0,-2,-4,-2,-1,-1,2021-08-07 10:33:01,887119
-2,-3,-2,-7,-7,-3,-1,-2,2021-08-07 10:33:01,887119
-2,-1,-3,-7,-3,-2,-1,-2,2021-08-07 10:33:01,887119
-1,2,-1,-1,-10,-4,0,0,2021-08-07 10:33:01,888119
3,0,5,16,21,10,3,2,2021-08-07 10:33:01,888119
1,-2,-1,-4,-8,-3,-3,-1,2021-08-07 10:33:01,918119
2,2,1,5,6,1,0,1,2021-08-07 10:33:01,918119
-2,-2,1,-3,-5,-3,-3,-2,2021-08-07 10:33:01,918119
-1,0,-1,-4,-2,-3,-2,-1,2021-08-07 10:33:01,918119
-2,-3,-4,-6,-4,-1,-1,-1,2021-08-07 10:33:01,934119
-2,0,-2,1,1,-1,0,-1,2021-08-07 10:33:01,934119
2,0,-1,5,7,0,1,0,2021-08-07 10:33:01,934119
-2,-2,0,1,1,0,0,0,2021-08-07 10:33:01,934119
-3,-4,-2,-3,-4,-6,-3,-2,2021-08-07 10:33:01,950119
-3,-2,-2,-5,-8,-3,-5,-2,2021-08-07 10:33:01,950119
-1,-1,0,3,7,4,1,-1,2021-08-07 10:33:01,950119
-2,-3,-1,0,-2,-2,-1,-2,2021-08-07 10:33:01,966118
-2,-1,-4,-8,-13,-6,-1,-2,2021-08-07 10:33:01,982119
1,-1,0,4,13,4,0,1,2021-08-07 10:33:01,997119
-1,-1,-1,-1,-1,-1,-1,-1,2021-08-07 10:33:01,997119
-1,1,1,6,2,2,-1,0,2021-08-07 10:33:01,997119
1,-1,-1,-4,-3,-1,-1,-2,2021-08-07 10:33:01,997119
-1,-3,-3,-4,-11,-7,-2,-2,2021-08-07 10:33:01,997119
-2,-1,-3,-9,-9,-3,-1,-2,2021-08-07 10:33:01,997119
0,0,1,9,14,4,2,0,2021-08-07 10:33:01,997119
2,3,3,-3,-1,0,0,0,2021-08-07 10:33:02,013117
2,0,2,1,0,-1,0,-1,2021-08-07 10:33:02,013117
-3,-5,-5,-10,-13,-7,-4,-3,2021-08-07 10:33:02,013117
-2,-3,-5,-4,2,0,-1,-1,2021-08-07 10:33:02,013117
2,1,2,8,7,3,0,3,2021-08-07 10:33:02,044118
-3,-1,-1,-3,-7,-2,0,-4,2021-08-07 10:33:02,060118
2,1,3,8,15,5,3,1,2021-08-07 10:33:02,076119
-2,-2,-1,-4,-9,-3,-3,-2,2021-08-07 10:33:02,076119
-1,-1,0,0,3,2,0,-1,2021-08-07 10:33:02,076119
-2,-1,0,0,2,1,-1,-1,2021-08-07 10:33:02,076119
-2,-3,-6,-9,-14,-8,-3,-4,2021-08-07 10:33:02,076119
-2,-3,-1,-6,-7,-4,-3,-2,2021-08-07 10:33:02,076119
-2,-4,-3,-4,-2,-2,-3,-1,2021-08-07 10:33:02,076119
1,1,-1,2,5,2,0,1,2021-08-07 10:33:02,076119
-1,0,2,3,-1,0,-1,-1,2021-08-07 10:33:02,076119
2,0,-2,-6,-3,0,1,0,2021-08-07 10:33:02,076119
-2,-1,1,1,-1,-1,0,-1,2021-08-07 10:33:02,092119
-1,-3,-3,-2,-2,-2,-1,-2,2021-08-07 10:33:02,092119
-1,-3,-3,-3,-2,-1,-3,0,2021-08-07 10:33:02,092119
0,0,2,4,1,1,1,0,2021-08-07 10:33:02,092119
-4,-4,-4,-3,-9,-5,-3,-1,2021-08-07 10:33:02,124119
1,2,1,1,9,6,2,1,2021-08-07 10:33:02,139120
0,0,2,6,1,2,1,-1,2021-08-07 10:33:02,171119
2,3,3,12,7,3,2,2,2021-08-07 10:33:02,171119
-1,0,-1,-2,1,-3,-1,-1,2021-08-07 10:33:02,186119
1,-2,-2,-1,2,0,-1,0,2021-08-07 10:33:02,202119
-4,-2,-3,-6,-10,-6,-2,-2,2021-08-07 10:33:02,202119
-1,-1,-1,5,11,4,0,0,2021-08-07 10:33:02,202119
-2,-3,-3,-4,-7,-3,-2,-3,2021-08-07 10:33:02,202119
0,-1,-1,-2,-3,-2,-1,0,2021-08-07 10:33:02,202119
-2,-1,-4,-11,-10,-4,-4,-2,2021-08-07 10:33:02,202119
-1,1,3,8,8,3,1,-1,2021-08-07 10:33:02,202119
1,1,1,-1,0,2,0,0,2021-08-07 10:33:02,202119
-5,-4,-2,-4,-6,-5,-2,-5,2021-08-07 10:33:02,202119
1,-2,-3,-3,-5,-2,-1,0,2021-08-07 10:33:02,203119
-3,-3,-4,-13,-17,-8,-6,-3,2021-08-07 10:33:02,203119
1,1,1,6,13,6,3,2,2021-08-07 10:33:02,203119
3,3,6,15,11,6,4,2,2021-08-07 10:33:02,203119
-3,2,1,4,3,-1,0,0,2021-08-07 10:33:02,203119
0,-3,-3,-5,-6,-5,-2,-2,2021-08-07 10:33:02,203119
-1,0,-2,-5,-6,-2,0,-1,2021-08-07 10:33:02,218118
-1,0,-3,-3,-3,-1,-1,-1,2021-08-07 10:33:02,227119
-1,-3,-4,-3,0,-1,-1,-1,2021-08-07 10:33:02,227119
0,0,-1,-6,-4,-3,-1,-1,2021-08-07 10:33:02,233120
-2,-4,0,2,0,0,-2,-2,2021-08-07 10:33:02,249120
-2,-2,-3,-7,-4,-3,-1,-1,2021-08-07 10:33:02,249120
2,3,3,7,8,4,1,2,2021-08-07 10:33:02,249120
-6,-5,-3,-3,0,-1,-3,-3,2021-08-07 10:33:02,249120
-3,-4,-2,-2,-5,-4,-2,-3,2021-08-07 10:33:02,249120
-2,-1,0,-3,-5,-3,-2,1,2021-08-07 10:33:02,249120
2,1,1,10,14,5,1,2,2021-08-07 10:33:02,265118
0,0,-3,-8,-7,-3,1,-1,2021-08-07 10:33:02,297119
1,1,1,4,2,0,1,0,2021-08-07 10:33:02,312119
-3,-3,-3,-6,-14,-5,-2,-2,2021-08-07 10:33:02,327121
-1,-2,0,-7,-4,-3,-2,-1,2021-08-07 10:33:02,359119
-1,-1,-1,-8,-2,-1,-1,0,2021-08-07 10:33:02,359119
0,-1,2,9,16,6,-1,-1,2021-08-07 10:33:02,359119
0,-1,0,-2,-6,-2,2,0,2021-08-07 10:33:02,359119
-1,1,-2,-1,-3,-2,0,-1,2021-08-07 10:33:02,359119
-2,-1,-5,-15,-19,-10,-4,-3,2021-08-07 10:33:02,359119
0,-1,0,7,8,2,0,-1,2021-08-07 10:33:02,359119
-3,-2,-1,7,4,1,-1,-2,2021-08-07 10:33:02,359119
-1,0,2,6,4,2,1,-1,2021-08-07 10:33:02,359119
1,0,-3,-1,-5,-1,-3,1,2021-08-07 10:33:02,359119
0,2,1,6,4,2,2,1,2021-08-07 10:33:02,360119
-2,-1,-2,-2,7,0,0,-1,2021-08-07 10:33:02,360119
0,-1,0,3,6,4,1,0,2021-08-07 10:33:02,360119
-1,-2,0,2,6,0,-2,-1,2021-08-07 10:33:02,360119
4,2,2,-5,-8,-1,0,4,2021-08-07 10:33:02,360119
0,0,-1,-2,-5,-5,-2,-3,2021-08-07 10:33:02,360119
-1,-3,0,-1,-7,-5,-1,-2,2021-08-07 10:33:02,360119
0,1,0,3,11,4,1,1,2021-08-07 10:33:02,360119
-2,-2,-1,3,4,0,0,-2,2021-08-07 10:33:02,375119
-1,-1,1,3,1,-1,-2,-1,2021-08-07 10:33:02,375119
-2,-2,-3,-10,-11,-6,-3,-1,2021-08-07 10:33:02,375119
-2,-3,-1,6,4,0,-2,-1,2021-08-07 10:33:02,375119
-2,-2,-3,-11,-13,-4,-2,-1,2021-08-07 10:33:02,406119
0,0,-4,-5,3,0,-1,0,2021-08-07 10:33:02,422119
-1,-1,1,5,5,2,0,-2,2021-08-07 10:33:02,437119
0,0,3,9,7,2,2,0,2021-08-07 10:33:02,437119
-2,-2,-3,-7,-8,-4,-2,-3,2021-08-07 10:33:02,437119
1,0,0,-1,0,-1,-2,-1,2021-08-07 10:33:02,437119
-1,-2,-5,-12,-10,-4,-3,0,2021-08-07 10:33:02,437119
4,3,4,9,19,9,3,2,2021-08-07 10:33:02,437119
-4,-5,-5,-9,-10,-5,-2,-2,2021-08-07 10:33:02,437119
-2,-2,-1,1,0,1,-3,-3,2021-08-07 10:33:02,437119
-2,-3,-1,6,-1,-1,0,-1,2021-08-07 10:33:02,453118
-1,-4,-8,-16,-19,-8,-2,-2,2021-08-07 10:33:02,469119
2,2,0,-2,-6,-5,-3,-1,2021-08-07 10:33:02,485119
0,0,-1,-3,0,1,0,2,2021-08-07 10:33:02,485119
3,3,5,14,19,10,6,3,2021-08-07 10:33:02,485119
-4,-3,-1,-1,-10,-7,-6,-3,2021-08-07 10:33:02,485119
-4,-4,-4,-8,-3,-6,-7,-4,2021-08-07 10:33:02,485119
1,2,5,8,9,3,1,2,2021-08-07 10:33:02,485119
-1,-2,-6,-9,-6,-3,-2,-2,2021-08-07 10:33:02,485119
-1,-2,-1,-1,-1,0,2,1,2021-08-07 10:33:02,485119
2,1,-1,0,-1,1,2,3,2021-08-07 10:33:02,501118
-3,-5,-2,-5,-4,-2,-2,-2,2021-08-07 10:33:02,501118
-2,0,0,0,-1,-1,-2,-3,2021-08-07 10:33:02,501118
-3,1,3,2,6,2,-1,-3,2021-08-07 10:33:02,501118
-5,-2,-1,1,3,1,-2,-4,2021-08-07 10:33:02,507119
0,-1,-3,-2,-2,-1,-1,0,2021-08-07 10:33:02,507119
3,3,2,1,-2,-2,-1,2,2021-08-07 10:33:02,507119
1,-1,-2,-3,-10,-3,-4,-1,2021-08-07 10:33:02,507119
1,1,1,5,3,-1,1,-1,2021-08-07 10:33:02,533119
0,0,-1,0,3,1,0,-1,2021-08-07 10:33:02,533119
-4,-6,-6,-8,-6,-2,0,-3,2021-08-07 10:33:02,533119
0,1,2,13,10,2,1,0,2021-08-07 10:33:02,533119
2,0,1,-1,0,1,2,2,2021-08-07 10:33:02,565118
-2,-1,0,-1,-5,-2,0,-2,2021-08-07 10:33:02,581119
-2,0,0,-5,-6,-5,-5,-2,2021-08-07 10:33:02,581119
-3,-2,-1,-8,-1,-2,-3,-2,2021-08-07 10:33:02,581119
0,0,-1,3,3,1,-1,0,2021-08-07 10:33:02,581119
-3,-4,-8,-14,-14,-7,-4,-3,2021-08-07 10:33:02,581119
-3,-2,2,14,11,5,-1,-1,2021-08-07 10:33:02,581119
3,3,6,7,2,0,4,2,2021-08-07 10:33:02,581119
3,4,5,7,9,4,3,1,2021-08-07 10:33:02,597119
-3,-4,-5,-9,-9,-4,-3,-3,2021-08-07 10:33:02,597119
1,0,0,3,11,2,-1,-1,2021-08-07 10:33:02,597119
2,-1,-1,-6,-10,-4,-2,-2,2021-08-07 10:33:02,597119
-2,-2,-1,-2,-6,-3,-3,-2,2021-08-07 10:33:02,628118
-3,-3,-3,-4,-7,-4,-2,-2,2021-08-07 10:33:02,628118
-2,-4,-3,-6,5,0,0,-1,2021-08-07 10:33:02,628118
2,1,2,3,2,0,2,2,2021-08-07 10:33:02,628118
-1,-2,-3,-5,-3,-2,-2,-2,2021-08-07 10:33:02,628118
-3,-2,-1,-2,-4,-5,-2,-1,2021-08-07 10:33:02,628118
1,2,1,2,-4,-1,0,-1,2021-08-07 10:33:02,628118
-4,-2,-4,-6,-6,-2,-3,-1,2021-08-07 10:33:02,628118
-1,0,1,3,8,3,-1,1,2021-08-07 10:33:02,660119
0,-1,0,1,-2,2,0,-2,2021-08-07 10:33:02,660119
-2,-4,-2,0,2,-1,-3,-1,2021-08-07 10:33:02,660119
1,1,-3,-8,-8,-2,-1,0,2021-08-07 10:33:02,660119
4,4,5,13,13,7,4,2,2021-08-07 10:33:02,692119
-1,1,2,7,-1,0,-1,1,2021-08-07 10:33:02,708119
-2,-4,-8,-14,-10,-6,-2,-2,2021-08-07 10:33:02,708119
-2,1,3,9,9,4,1,0,2021-08-07 10:33:02,708119
-3,-3,-5,-10,-7,-3,0,-1,2021-08-07 10:33:02,708119
0,1,2,5,8,4,1,1,2021-08-07 10:33:02,708119
-4,-4,-4,-10,-22,-9,-4,-4,2021-08-07 10:33:02,708119
-5,-6,-7,-8,-3,-3,-3,-4,2021-08-07 10:33:02,708119
-2,-2,-5,-8,-5,-3,-1,0,2021-08-07 10:33:02,724120
5,6,7,13,12,6,2,2,2021-08-07 10:33:02,740119
0,0,-1,-1,-2,-1,0,-1,2021-08-07 10:33:02,756119
-1,-1,-2,-5,-3,-3,-4,-2,2021-08-07 10:33:02,772119
1,0,2,3,6,5,0,0,2021-08-07 10:33:02,772119
-2,-3,-3,-5,-4,-3,-3,-3,2021-08-07 10:33:02,772119
-2,-2,-2,-6,-5,-1,0,0,2021-08-07 10:33:02,772119
0,-1,1,3,7,3,0,-1,2021-08-07 10:33:02,772119
-1,-4,2,1,-8,-6,-2,-3,2021-08-07 10:33:02,772119
-1,0,5,7,10,3,1,-2,2021-08-07 10:33:02,772119
3,1,-3,0,3,3,2,2,2021-08-07 10:33:02,772119
-5,-5,-11,-19,-20,-13,-4,-3,2021-08-07 10:33:02,773120
-5,-6,-9,-22,-22,-11,-6,-4,2021-08-07 10:33:02,773120
-2,-2,0,9,12,2,1,-1,2021-08-07 10:33:02,773120
-1,1,3,-11,-12,-5,-2,-2,2021-08-07 10:33:02,773120
5,8,13,24,25,13,5,3,2021-08-07 10:33:02,773120
5,4,6,13,16,8,2,2,2021-08-07 10:33:02,804119
-1,-4,-5,-7,-8,-6,-1,-2,2021-08-07 10:33:02,804119
-4,-6,-7,-2,-3,-1,-4,-3,2021-08-07 10:33:02,804119
-1,-1,-4,-11,-9,-5,0,-1,2021-08-07 10:33:02,804119
-2,-2,0,0,-2,-3,-2,-3,2021-08-07 10:33:02,820119
-1,1,-1,-7,-7,-2,-3,0,2021-08-07 10:33:02,820119
-2,1,0,-2,1,-3,-2,-1,2021-08-07 10:33:02,820119
-1,-1,1,5,0,0,-1,-2,2021-08-07 10:33:02,820119
-1,-1,-1,-2,4,1,0,1,2021-08-07 10:33:02,836119
4,1,2,-1,-2,-1,0,2,2021-08-07 10:33:02,851119
-2,-2,-1,1,0,-2,-2,-3,2021-08-07 10:33:02,867119
3,5,8,13,14,7,3,2,2021-08-07 10:33:02,867119
-2,-4,-2,-2,-3,-1,1,-1,2021-08-07 10:33:02,867119
-1,-1,-8,-6,-3,-2,1,0,2021-08-07 10:33:02,867119
-3,-3,-3,-5,-12,-4,-4,-2,2021-08-07 10:33:02,867119
-1,-1,3,8,7,3,2,-1,2021-08-07 10:33:02,867119
1,0,1,5,1,1,-1,0,2021-08-07 10:33:02,867119
-1,-1,0,0,-1,0,-2,1,2021-08-07 10:33:02,867119
1,0,-3,-9,-6,-3,0,1,2021-08-07 10:33:02,867119
-5,-7,-10,-16,-14,-7,-3,-4,2021-08-07 10:33:02,867119
-3,-2,-6,-8,-6,-4,-3,-1,2021-08-07 10:33:02,899119
3,0,5,20,19,8,3,0,2021-08-07 10:33:02,914119
4,6,11,24,17,9,4,2,2021-08-07 10:33:02,914119
0,0,-3,-4,-3,0,-1,1,2021-08-07 10:33:02,914119
-4,-3,-7,-17,-16,-9,-4,-4,2021-08-07 10:33:02,914119
1,2,-2,-3,-2,-1,-1,0,2021-08-07 10:33:02,914119
-3,-5,-3,-3,-2,-1,-3,-3,2021-08-07 10:33:02,914119
-3,-4,-3,2,-1,-1,-1,-2,2021-08-07 10:33:02,914119
-1,0,-1,-5,-7,-4,-1,-2,2021-08-07 10:33:02,946119
1,1,5,11,14,7,3,2,2021-08-07 10:33:02,946119
2,1,2,7,8,4,3,1,2021-08-07 10:33:02,946119
-2,-5,-4,-6,-11,-4,-4,-3,2021-08-07 10:33:02,946119
-3,-1,-4,1,3,1,-1,-1,2021-08-07 10:33:02,962117
-5,-4,-2,-8,-4,-3,-1,-3,2021-08-07 10:33:02,978118
1,2,4,12,13,5,1,2,2021-08-07 10:33:02,994118
-2,-2,-3,-4,-5,-2,1,0,2021-08-07 10:33:02,994118
0,3,1,0,-1,2,0,1,2021-08-07 10:33:02,994118
-3,-2,-4,-7,-8,-5,-4,-3,2021-08-07 10:33:02,994118
-2,-3,-5,-10,-17,-8,-2,-3,2021-08-07 10:33:02,994118
4,4,8,19,20,9,4,5,2021-08-07 10:33:02,994118
0,1,4,10,10,3,0,0,2021-08-07 10:33:02,994118
-1,-2,-3,-6,-3,-2,0,1,2021-08-07 10:33:02,994118
-6,-6,-9,-12,-13,-8,-6,-4,2021-08-07 10:33:02,994118
-5,-5,-6,-10,-1,-3,-5,-4,2021-08-07 10:33:02,994118
4,6,5,1,1,1,1,2,2021-08-07 10:33:03,025119
1,0,2,6,-3,-3,-1,0,2021-08-07 10:33:03,025119
2,1,3,9,16,7,1,1,2021-08-07 10:33:03,025119
-3,-6,-10,-17,-14,-7,-6,-3,2021-08-07 10:33:03,025119
-5,-6,-7,-6,-9,-5,-2,-3,2021-08-07 10:33:03,041120
-1,0,0,-5,-1,-1,0,-1,2021-08-07 10:33:03,041120
0,2,2,2,-1,2,0,0,2021-08-07 10:33:03,041120
1,-1,3,5,1,-3,-1,-1,2021-08-07 10:33:03,041120
-2,-6,-3,-1,0,1,-1,-2,2021-08-07 10:33:03,057119
3,-1,-2,-4,-3,-1,1,0,2021-08-07 10:33:03,057119
1,0,3,9,15,3,2,2,2021-08-07 10:33:03,057119
1,1,-1,-1,-2,0,-2,-1,2021-08-07 10:33:03,057119
-2,-3,-1,-7,-16,-7,-4,-2,2021-08-07 10:33:03,088119
-3,-3,-4,-9,-2,-3,-5,-2,2021-08-07 10:33:03,120119
2,3,6,12,15,8,2,2,2021-08-07 10:33:03,136119
-3,-2,-4,-6,-11,-7,-3,-3,2021-08-07 10:33:03,136119
-1,1,-1,-3,4,4,1,1,2021-08-07 10:33:03,136119
2,2,6,11,12,4,0,0,2021-08-07 10:33:03,136119
-1,-2,-1,-1,-4,-2,-1,-3,2021-08-07 10:33:03,136119
-3,-3,-4,-11,-16,-8,-3,0,2021-08-07 10:33:03,136119
-2,-3,-2,2,5,0,-1,-4,2021-08-07 10:33:03,136119
-4,-2,-4,-5,-6,-2,-3,-2,2021-08-07 10:33:03,136119
1,-1,-4,-13,-10,-4,-1,-2,2021-08-07 10:33:03,136119
0,2,5,12,9,4,2,1,2021-08-07 10:33:03,136119
1,3,4,9,5,3,2,2,2021-08-07 10:33:03,137118
1,-1,1,6,-1,0,0,-1,2021-08-07 10:33:03,137118
-2,-2,-5,-12,-6,-4,-2,-1,2021-08-07 10:33:03,137118
-1,-2,-2,-10,-9,-3,-2,-1,2021-08-07 10:33:03,137118
0,-2,-3,3,8,0,1,0,2021-08-07 10:33:03,167118
-4,-4,-5,-5,-3,-1,-1,-2,2021-08-07 10:33:03,167118
-1,0,-1,-2,-18,-9,-4,-2,2021-08-07 10:33:03,167118
1,1,1,2,16,6,2,0,2021-08-07 10:33:03,167118
-1,-1,1,5,9,2,-3,-3,2021-08-07 10:33:03,167118
-2,-4,-4,-7,-11,-5,0,-2,2021-08-07 10:33:03,167118
0,0,-1,-2,-4,-2,-1,0,2021-08-07 10:33:03,167118
-1,-1,-3,-5,-6,-1,0,-1,2021-08-07 10:33:03,167118
-1,-2,-4,-3,1,-1,0,0,2021-08-07 10:33:03,197119
-3,-4,-3,-1,1,-2,-3,-3,2021-08-07 10:33:03,197119
-1,-2,-2,-7,-7,-3,-2,0,2021-08-07 10:33:03,197119
2,4,7,13,19,7,3,3,2021-08-07 10:33:03,197119
1,0,2,6,-2,0,1,1,2021-08-07 10:33:03,228119
-1,3,1,4,5,2,0,0,2021-08-07 10:33:03,228119
0,-2,-3,-8,-9,-2,0,0,2021-08-07 10:33:03,228119
-3,-1,-2,-6,-10,-6,-2,-3,2021-08-07 10:33:03,228119
-3,-3,-6,-8,-2,-3,-2,-3,2021-08-07 10:33:03,228119
0,0,3,4,2,1,0,0,2021-08-07 10:33:03,228119
3,2,6,11,7,3,2,3,2021-08-07 10:33:03,228119
1,-1,-3,3,0,0,-1,1,2021-08-07 10:33:03,228119
-4,-6,-9,-20,-21,-9,-6,-3,2021-08-07 10:33:03,259120
4,5,9,16,16,8,5,4,2021-08-07 10:33:03,259120
-6,-5,-3,-2,7,1,-1,-5,2021-08-07 10:33:03,259120
-5,-7,-11,-7,-4,-2,-3,-4,2021-08-07 10:33:03,259120
-3,0,1,1,-5,-2,-2,-2,2021-08-07 10:33:03,290118
-3,-2,-4,-8,-10,-5,-5,-2,2021-08-07 10:33:03,290118
1,1,-3,-7,-6,-4,-2,-1,2021-08-07 10:33:03,290118
6,8,6,6,11,4,3,3,2021-08-07 10:33:03,290118
1,1,0,-1,3,0,0,1,2021-08-07 10:33:03,290118
-1,-2,-9,-14,-12,-4,-1,-1,2021-08-07 10:33:03,290118
-3,-1,1,8,0,-2,-1,-3,2021-08-07 10:33:03,290118
-1,-3,-5,-11,-13,-2,-2,-4,2021-08-07 10:33:03,290118
5,4,8,18,25,13,5,3,2021-08-07 10:33:03,321118
-1,-3,0,1,0,0,0,-1,2021-08-07 10:33:03,321118
-2,-2,-6,2,-1,-3,-1,0,2021-08-07 10:33:03,321118
-4,-5,-7,-17,-13,-8,-4,-2,2021-08-07 10:33:03,321118
0,2,1,-4,-6,-1,0,0,2021-08-07 10:33:03,337120
-1,-2,-4,-4,-4,-3,1,-2,2021-08-07 10:33:03,353118
0,1,2,1,1,0,1,0,2021-08-07 10:33:03,353118
1,3,5,10,12,6,3,2,2021-08-07 10:33:03,353118
4,3,6,15,10,4,3,2,2021-08-07 10:33:03,353118
-5,-5,-8,-8,-13,-7,-5,-6,2021-08-07 10:33:03,353118
0,-1,0,0,13,5,0,1,2021-08-07 10:33:03,357119
2,0,1,-2,-5,-3,-1,1,2021-08-07 10:33:03,357119
-3,-3,-4,-7,-6,-4,-1,-1,2021-08-07 10:33:03,385118
1,2,0,-1,0,0,1,2,2021-08-07 10:33:03,385118
-6,-7,-9,-16,-14,-6,-3,-4,2021-08-07 10:33:03,385118
-3,-1,-2,2,3,0,-2,0,2021-08-07 10:33:03,385118
0,-1,1,3,0,-1,-1,0,2021-08-07 10:33:03,401118
2,0,4,4,0,0,2,2,2021-08-07 10:33:03,417119
-3,-4,-7,-12,-19,-9,-5,-4,2021-08-07 10:33:03,417119
0,-1,0,-2,3,1,2,0,2021-08-07 10:33:03,417119
0,-1,5,15,9,3,1,-2,2021-08-07 10:33:03,417119
0,-1,-1,2,-2,-2,-1,0,2021-08-07 10:33:03,417119
5,6,4,5,14,10,6,3,2021-08-07 10:33:03,417119
-5,-5,0,-15,-24,-11,-6,-5,2021-08-07 10:33:03,417119
-1,-3,-11,-10,0,-1,-2,1,2021-08-07 10:33:03,433119
1,-2,0,8,7,3,-1,0,2021-08-07 10:33:03,449120
0,3,5,10,2,1,2,2,2021-08-07 10:33:03,449120
0,1,3,10,13,5,1,0,2021-08-07 10:33:03,465118
-4,-3,-3,-11,-12,-4,-2,-2,2021-08-07 10:33:03,465118
-3,-4,-5,-10,-5,-3,-2,-2,2021-08-07 10:33:03,465118
-5,-5,-5,-7,-13,-8,-6,-4,2021-08-07 10:33:03,465118
-3,-2,0,-6,-3,-2,-2,-1,2021-08-07 10:33:03,465118
4,5,4,13,19,8,3,3,2021-08-07 10:33:03,465118
-1,-2,-4,-6,-5,-1,-1,0,2021-08-07 10:33:03,465118
0,1,3,3,2,0,0,-2,2021-08-07 10:33:03,481118
-2,-2,0,-1,-9,-2,-1,-2,2021-08-07 10:33:03,481118
-5,-5,-8,-12,-16,-7,-5,-3,2021-08-07 10:33:03,497119
0,1,0,-7,-3,-1,-1,0,2021-08-07 10:33:03,497119
1,1,2,0,3,2,-1,-2,2021-08-07 10:33:03,497119
2,1,5,23,17,6,2,1,2021-08-07 10:33:03,497119
-2,-3,-6,-9,-11,-4,-3,-1,2021-08-07 10:33:03,528119
-3,-2,0,-10,-4,-2,-1,-1,2021-08-07 10:33:03,528119
-4,-6,-5,-4,-8,-5,-3,-3,2021-08-07 10:33:03,528119
-1,-3,-6,-5,-5,-3,-2,-2,2021-08-07 10:33:03,528119
3,3,6,14,14,6,2,2,2021-08-07 10:33:03,528119
-1,1,3,2,-5,-3,-1,-2,2021-08-07 10:33:03,528119
1,-1,1,5,6,3,0,0,2021-08-07 10:33:03,544118
0,-1,-5,-10,-2,-2,0,-1,2021-08-07 10:33:03,544118
-1,0,-1,-7,-5,-4,-2,-1,2021-08-07 10:33:03,575121
-1,-2,-2,-1,-5,-2,-1,-1,2021-08-07 10:33:03,591118
0,1,4,10,13,4,1,2,2021-08-07 10:33:03,607120
-1,-2,-1,-3,-9,-5,-4,-2,2021-08-07 10:33:03,623119
1,1,2,3,6,3,3,1,2021-08-07 10:33:03,639118
1,2,1,0,8,4,1,1,2021-08-07 10:33:03,639118
2,2,3,5,7,4,1,1,2021-08-07 10:33:03,639118
-1,-2,-6,-5,-5,-2,1,0,2021-08-07 10:33:03,639118
-5,-8,-12,-20,-24,-12,-6,-5,2021-08-07 10:33:03,639118
-2,-3,-2,-6,-5,-3,-3,-2,2021-08-07 10:33:03,639118
4,4,10,19,16,7,3,3,2021-08-07 10:33:03,639118
0,1,0,3,2,1,-1,0,2021-08-07 10:33:03,639118
3,5,6,3,-5,0,2,1,2021-08-07 10:33:03,639118
-3,-5,-3,-3,0,-2,-3,-4,2021-08-07 10:33:03,639118
-7,-7,-8,-24,-29,-13,-6,-4,2021-08-07 10:33:03,639118
2,0,-1,10,24,11,4,2,2021-08-07 10:33:03,639118
0,-3,-2,5,2,0,-1,-1,2021-08-07 10:33:03,639118
0,1,3,5,-1,0,-1,-1,2021-08-07 10:33:03,640119
1,0,2,1,2,0,1,2,2021-08-07 10:33:03,640119
-3,-2,4,6,-4,-4,-1,-3,2021-08-07 10:33:03,640119
-4,-5,-8,-18,-15,-7,-4,-4,2021-08-07 10:33:03,655120
1,0,-3,-2,4,2,2,1,2021-08-07 10:33:03,655120
-4,-5,-5,-9,-6,-3,-2,-2,2021-08-07 10:33:03,655120
-1,-1,-1,-2,-6,-5,-2,0,2021-08-07 10:33:03,655120
0,-1,1,2,-2,-1,-1,-2,2021-08-07 10:33:03,686119
5,6,12,40,34,14,6,3,2021-08-07 10:33:03,702119
-1,1,-3,2,2,0,1,1,2021-08-07 10:33:03,718119
1,1,-2,-10,-3,-1,0,0,2021-08-07 10:33:03,734118
-3,-4,1,-3,-6,-6,-3,-2,2021-08-07 10:33:03,766119
-5,-5,-8,-26,-26,-13,-7,-3,2021-08-07 10:33:03,766119
1,1,1,16,15,6,3,2,2021-08-07 10:33:03,766119
-2,1,1,12,5,2,0,0,2021-08-07 10:33:03,766119
-3,-3,-10,-9,3,1,2,-1,2021-08-07 10:33:03,766119
1,0,2,3,3,0,0,0,2021-08-07 10:33:03,766119
-2,-5,-4,-13,-13,-6,-4,-3,2021-08-07 10:33:03,766119
-2,-3,-4,-19,-14,-7,-5,-3,2021-08-07 10:33:03,766119
3,5,10,5,-2,2,-1,0,2021-08-07 10:33:03,767120
0,0,1,10,12,5,2,1,2021-08-07 10:33:03,767120
0,-2,-3,2,4,3,1,0,2021-08-07 10:33:03,767120
-2,-3,3,0,0,-2,1,-1,2021-08-07 10:33:03,767120
-2,-3,-7,-6,-3,-2,0,0,2021-08-07 10:33:03,767120
-2,-2,-8,-3,-4,-2,-1,0,2021-08-07 10:33:03,767120
0,2,3,-4,-2,-3,-2,-2,2021-08-07 10:33:03,767120
-1,2,4,7,3,3,1,0,2021-08-07 10:33:03,767120
2,2,4,6,9,4,0,1,2021-08-07 10:33:03,782119
-3,-2,-1,-5,-11,-6,-3,-2,2021-08-07 10:33:03,782119
0,-2,-5,-3,8,1,0,0,2021-08-07 10:33:03,782119
3,3,2,-3,1,0,1,2,2021-08-07 10:33:03,782119
-3,0,2,6,-2,-3,-2,-2,2021-08-07 10:33:03,798118
-1,-3,-3,1,2,0,-1,-2,2021-08-07 10:33:03,798118
-1,-2,-4,-5,-4,-1,-1,0,2021-08-07 10:33:03,798118
-4,-7,-10,-15,-20,-10,-6,-4,2021-08-07 10:33:03,798118
0,1,0,4,13,2,1,1,2021-08-07 10:33:03,829119
2,5,8,7,3,1,0,1,2021-08-07 10:33:03,845117
1,3,4,12,11,6,3,2,2021-08-07 10:33:03,861118
-1,-2,-2,3,5,1,1,-1,2021-08-07 10:33:03,877118
-6,-8,-11,-22,-25,-11,-5,-6,2021-08-07 10:33:03,877118
-1,1,4,6,1,-1,-1,0,2021-08-07 10:33:03,877118
1,1,3,-4,-10,-5,-1,-2,2021-08-07 10:33:03,877118
0,0,-5,-9,5,2,1,-1,2021-08-07 10:33:03,877118
-2,-4,-3,-13,-12,-4,-3,-2,2021-08-07 10:33:03,877118
2,3,-1,17,20,9,3,2,2021-08-07 10:33:03,877118
-2,-2,-3,-1,-6,-4,-2,-2,2021-08-07 10:33:03,877118
0,0,4,14,7,3,1,2,2021-08-07 10:33:03,877118
-4,1,-1,-5,-9,-5,-2,-1,2021-08-07 10:33:03,877118
-3,-5,-5,-19,-13,-5,-4,-3,2021-08-07 10:33:03,878120
-1,0,1,2,2,-1,1,-2,2021-08-07 10:33:03,878120
-1,-2,-2,-7,-5,-4,-3,-2,2021-08-07 10:33:03,878120
1,1,4,10,7,4,1,-1,2021-08-07 10:33:03,909119
-1,-2,-6,-5,-8,-3,-2,1,2021-08-07 10:33:03,925120
-2,-1,-1,4,14,5,-1,-2,2021-08-07 10:33:03,935119
-2,-1,2,3,1,1,-2,0,2021-08-07 10:33:03,935119
3,2,-1,3,0,1,-1,2,2021-08-07 10:33:03,935119
-6,-6,-12,-20,-20,-11,-5,-5,2021-08-07 10:33:03,941118
-1,0,-1,-4,1,0,-1,1,2021-08-07 10:33:03,957119
0,1,9,15,9,3,1,0,2021-08-07 10:33:03,973120
2,1,1,12,12,4,1,1,2021-08-07 10:33:04,005119
-2,-2,0,-3,-4,-2,0,0,2021-08-07 10:33:04,021118
-1,-3,-7,-14,-8,-4,-1,-2,2021-08-07 10:33:04,021118
-4,-3,-5,-3,-3,-4,-2,-3,2021-08-07 10:33:04,021118
-2,-2,3,-8,-3,-2,0,-1,2021-08-07 10:33:04,021118
1,0,2,0,-4,-1,0,-2,2021-08-07 10:33:04,021118
3,3,4,19,12,7,4,4,2021-08-07 10:33:04,021118
-1,-1,-2,-5,-6,-2,-2,0,2021-08-07 10:33:04,021118
-3,-4,-5,-8,-6,-3,-3,-2,2021-08-07 10:33:04,021118
-2,1,3,-4,-1,0,-1,-1,2021-08-07 10:33:04,021118
-2,-5,-3,-7,-9,-5,-4,-3,2021-08-07 10:33:04,021118
2,2,-1,14,14,5,2,1,2021-08-07 10:33:04,022119
0,4,0,-1,2,0,0,-1,2021-08-07 10:33:04,022119
-4,-5,-6,-12,-5,-4,-2,-1,2021-08-07 10:33:04,022119
-3,-3,-5,-8,-13,-6,-3,-5,2021-08-07 10:33:04,022119
-3,-4,-1,2,-2,0,-1,-2,2021-08-07 10:33:04,022119
1,0,-1,3,6,2,0,1,2021-08-07 10:33:04,037119
1,1,2,2,3,2,0,0,2021-08-07 10:33:04,053119
0,0,1,1,0,0,-1,1,2021-08-07 10:33:04,053119
0,2,3,4,1,-3,-1,0,2021-08-07 10:33:04,053119
0,-2,2,3,5,2,1,0,2021-08-07 10:33:04,053119
-3,-4,-7,-12,-13,-6,-3,-3,2021-08-07 10:33:04,053119
0,-2,-10,-4,2,2,3,1,2021-08-07 10:33:04,053119
1,-1,1,3,1,-1,1,-2,2021-08-07 10:33:04,053119
-2,-4,-5,-5,-5,-2,0,-2,2021-08-07 10:33:04,053119
1,1,6,19,15,8,1,1,2021-08-07 10:33:04,053119
-4,-1,6,4,-3,-3,-3,-4,2021-08-07 10:33:04,053119
-2,1,-2,-4,-3,-1,-3,-1,2021-08-07 10:33:04,054119
0,3,4,5,2,-3,-1,-2,2021-08-07 10:33:04,085119
-2,-2,-4,-9,-3,-2,-2,-1,2021-08-07 10:33:04,085119
-4,-4,-5,-9,-8,-5,-4,-2,2021-08-07 10:33:04,085119
1,2,1,1,-4,-2,0,3,2021-08-07 10:33:04,085119
1,0,0,4,5,2,-1,2,2021-08-07 10:33:04,101119
3,3,2,2,5,2,2,2,2021-08-07 10:33:04,117119
-3,-1,2,-4,-3,-2,-2,-2,2021-08-07 10:33:04,117119
-5,-8,-11,-14,-8,-6,-4,-3,2021-08-07 10:33:04,117119
-3,-6,-6,-8,-10,-6,-3,-2,2021-08-07 10:33:04,117119
2,1,3,10,5,1,3,2,2021-08-07 10:33:04,132119
0,1,4,-1,4,2,-1,0,2021-08-07 10:33:04,148118
1,2,1,0,-2,0,-1,-1,2021-08-07 10:33:04,164119
3,3,4,9,4,3,2,2,2021-08-07 10:33:04,179118
-4,-6,-5,-15,-17,-6,-4,-3,2021-08-07 10:33:04,179118
0,2,2,15,21,8,3,2,2021-08-07 10:33:04,179118
-1,-1,-3,-2,-2,-1,-2,0,2021-08-07 10:33:04,179118
-2,-3,-3,-3,-3,-3,-2,-2,2021-08-07 10:33:04,179118
0,3,1,1,-5,-3,-1,-2,2021-08-07 10:33:04,179118
-2,-4,-5,-7,-13,-5,-2,-3,2021-08-07 10:33:04,179118
-1,1,-3,-1,14,5,2,0,2021-08-07 10:33:04,179118
-4,-4,0,-1,-9,-6,-4,-4,2021-08-07 10:33:04,179118
0,0,4,0,3,2,2,2,2021-08-07 10:33:04,179118
1,1,-2,0,-4,-1,0,-2,2021-08-07 10:33:04,180119
-3,-6,-8,-12,-8,-4,-3,-3,2021-08-07 10:33:04,180119
-3,-4,-7,-9,-2,0,0,-2,2021-08-07 10:33:04,211118
-1,-2,-1,3,0,-3,-3,0,2021-08-07 10:33:04,211118
0,1,3,-2,-3,-1,-2,0,2021-08-07 10:33:04,211118
3,2,6,9,5,3,3,2,2021-08-07 10:33:04,211118
2,2,1,7,8,6,3,3,2021-08-07 10:33:04,211118
-4,-7,-8,-5,-2,-4,-3,-3,2021-08-07 10:33:04,211118
0,-3,-2,-9,-12,-7,-3,0,2021-08-07 10:33:04,227118
-2,-3,-1,-5,-6,-4,-3,-3,2021-08-07 10:33:04,259118
2,4,8,18,15,8,4,2,2021-08-07 10:33:04,274117
-1,1,-2,0,5,3,2,-2,2021-08-07 10:33:04,290119
-5,-3,-10,-19,-17,-8,-3,-3,2021-08-07 10:33:04,306119
-2,-2,-4,-8,-5,-3,-2,-2,2021-08-07 10:33:04,306119
2,3,4,9,7,2,1,2,2021-08-07 10:33:04,322119
2,3,8,14,11,4,2,1,2021-08-07 10:33:04,322119
2,2,5,11,8,2,1,1,2021-08-07 10:33:04,322119
-3,-6,-12,-21,-17,-7,-3,-3,2021-08-07 10:33:04,322119
-7,-10,-19,-27,-21,-9,-6,-7,2021-08-07 10:33:04,322119
6,7,3,3,11,6,4,4,2021-08-07 10:33:04,322119
2,2,10,2,-5,-2,0,0,2021-08-07 10:33:04,322119
-2,-1,-2,5,6,0,1,0,2021-08-07 10:33:04,322119
0,0,1,6,2,-1,-1,-1,2021-08-07 10:33:04,322119
-3,-4,-8,-15,-17,-9,-3,-3,2021-08-07 10:33:04,322119
0,3,2,10,10,6,2,0,2021-08-07 10:33:04,322119
0,2,6,7,4,4,1,1,2021-08-07 10:33:04,323119
-2,-3,-1,-3,-6,-2,-2,-2,2021-08-07 10:33:04,323119
-3,-5,-7,-8,-3,-1,-3,-1,2021-08-07 10:33:04,323119
0,1,2,4,-1,-1,0,0,2021-08-07 10:33:04,323119
1,0,0,4,4,1,1,0,2021-08-07 10:33:04,323119
-1,-2,-4,3,4,1,0,0,2021-08-07 10:33:04,338120
-5,-4,-8,-16,-13,-8,-5,-6,2021-08-07 10:33:04,354119
-2,-4,-5,-5,-4,-4,-3,-2,2021-08-07 10:33:04,354119
0,1,5,4,3,1,-1,-1,2021-08-07 10:33:04,354119
1,2,5,11,2,1,1,0,2021-08-07 10:33:04,354119
3,2,2,8,8,5,2,2,2021-08-07 10:33:04,354119
-3,-4,-4,-5,1,0,-2,-2,2021-08-07 10:33:04,354119
-4,-5,-7,-12,-7,-4,-4,-2,2021-08-07 10:33:04,354119
0,1,-2,-5,-6,-5,-1,0,2021-08-07 10:33:04,385118
-2,-1,3,0,-5,-4,0,-3,2021-08-07 10:33:04,385118
-1,0,-3,10,11,3,0,0,2021-08-07 10:33:04,385118
3,2,4,5,-6,-2,-1,0,2021-08-07 10:33:04,401119
2,-1,-1,-1,10,5,1,0,2021-08-07 10:33:04,401119
-5,-4,-7,-7,-5,-4,-3,-2,2021-08-07 10:33:04,401119
-2,-3,-5,-5,-3,-3,-1,-1,2021-08-07 10:33:04,401119
-1,0,5,5,1,-1,0,0,2021-08-07 10:33:04,401119
-2,1,0,-1,-7,-4,-3,-1,2021-08-07 10:33:04,417119
0,0,1,4,1,0,0,0,2021-08-07 10:33:04,417119
5,3,6,16,21,9,5,4,2021-08-07 10:33:04,417119
-3,-4,-2,-15,-6,-4,-2,-3,2021-08-07 10:33:04,417119
-2,0,-6,-7,-10,-6,-4,-2,2021-08-07 10:33:04,449119
0,3,7,11,10,5,1,0,2021-08-07 10:33:04,465118
-1,1,-2,-9,-10,-3,-2,-1,2021-08-07 10:33:04,497120
1,2,-1,9,10,5,2,1,2021-08-07 10:33:04,500176
-5,-6,-4,-7,-2,0,-2,-2,2021-08-07 10:33:04,513119
-4,-5,-8,-15,-14,-8,-4,-3,2021-08-07 10:33:04,513119
2,0,1,6,7,1,1,1,2021-08-07 10:33:04,513119
-1,2,4,2,-1,-1,0,-2,2021-08-07 10:33:04,513119
2,2,3,-2,-5,-1,1,0,2021-08-07 10:33:04,513119
1,0,5,19,11,5,1,1,2021-08-07 10:33:04,513119
-2,-2,-2,-5,-7,-4,-2,-2,2021-08-07 10:33:04,513119
-3,-2,-6,-2,3,0,-3,-3,2021-08-07 10:33:04,513119
1,-1,1,1,6,3,2,2,2021-08-07 10:33:04,513119
-7,-10,-15,-27,-21,-11,-7,-4,2021-08-07 10:33:04,514119
1,2,-1,-4,-1,0,0,1,2021-08-07 10:33:04,514119
2,2,4,6,-3,-1,0,0,2021-08-07 10:33:04,514119
2,3,7,21,18,7,2,1,2021-08-07 10:33:04,514119
-1,2,9,15,3,3,2,1,2021-08-07 10:33:04,514119
-2,-2,-3,-11,-9,-3,-1,-1,2021-08-07 10:33:04,529119
0,-1,-7,-14,1,-1,0,1,2021-08-07 10:33:04,529119
-5,-8,-9,-26,-15,-9,-6,-5,2021-08-07 10:33:04,544120
-2,-4,-3,7,2,0,-1,-2,2021-08-07 10:33:04,560118
-4,-7,-8,1,-5,-5,-4,-3,2021-08-07 10:33:04,592118
2,3,8,10,1,3,3,0,2021-08-07 10:33:04,592118
4,5,8,10,8,3,2,2,2021-08-07 10:33:04,592118
3,3,10,13,14,6,2,2,2021-08-07 10:33:04,592118
0,0,-1,1,-4,0,-1,1,2021-08-07 10:33:04,608118
-5,-8,-16,-28,-18,-10,-5,-3,2021-08-07 10:33:04,608118
-4,-3,-7,-14,-10,-4,-2,0,2021-08-07 10:33:04,608118
-4,-3,-4,-3,0,-3,-2,-4,2021-08-07 10:33:04,608118
-1,-2,-1,-7,-6,-1,-2,-1,2021-08-07 10:33:04,608118
4,3,6,16,9,3,1,2,2021-08-07 10:33:04,608118
3,4,9,20,18,9,3,0,2021-08-07 10:33:04,608118
2,3,6,10,4,4,2,2,2021-08-07 10:33:04,608118
-3,-1,-6,-6,-3,-4,-3,-2,2021-08-07 10:33:04,608118
-4,-5,-8,-9,-11,-5,-5,-4,2021-08-07 10:33:04,608118
-6,-9,-9,-18,-15,-9,-7,-3,2021-08-07 10:33:04,624119
1,0,0,-1,2,1,0,0,2021-08-07 10:33:04,624119
-1,-3,-2,-1,-4,-3,-2,0,2021-08-07 10:33:04,624119
-1,0,4,9,6,2,-1,1,2021-08-07 10:33:04,624119
5,7,7,17,8,4,3,2,2021-08-07 10:33:04,640120
0,-1,0,0,8,4,0,0,2021-08-07 10:33:04,640120
1,1,-1,-9,-7,-1,1,0,2021-08-07 10:33:04,640120
-5,-6,-5,-15,-18,-12,-7,-5,2021-08-07 10:33:04,640120
-1,-3,-8,3,8,2,0,-2,2021-08-07 10:33:04,671118
-2,-4,-5,-12,-12,-5,-4,-2,2021-08-07 10:33:04,686119
2,5,13,17,16,7,1,0,2021-08-07 10:33:04,702118
3,5,4,9,4,4,3,2,2021-08-07 10:33:04,702118
-2,-2,0,4,2,-1,-1,-1,2021-08-07 10:33:04,702118
-1,-3,-8,-16,-11,-5,-2,-1,2021-08-07 10:33:04,702118
-3,-4,-6,-3,10,2,-2,-4,2021-08-07 10:33:04,702118
-3,-2,4,-2,-7,-4,-2,-1,2021-08-07 10:33:04,702118
-2,-1,-5,-13,-16,-6,-2,-1,2021-08-07 10:33:04,702118
0,2,0,0,6,3,1,0,2021-08-07 10:33:04,702118
2,2,5,16,11,5,2,2,2021-08-07 10:33:04,702118
1,1,3,10,6,0,-1,-1,2021-08-07 10:33:04,702118
-1,-2,0,-1,-3,-2,-1,0,2021-08-07 10:33:04,718119
-2,-4,-8,-10,-7,-2,0,-1,2021-08-07 10:33:04,718119
-5,-4,-10,-16,-13,-8,-4,-4,2021-08-07 10:33:04,718119
-3,-5,-5,5,0,-1,-1,-3,2021-08-07 10:33:04,718119
0,2,2,-8,1,1,1,0,2021-08-07 10:33:04,750119
3,6,8,14,13,4,2,2,2021-08-07 10:33:04,766119
2,3,4,-2,-4,2,1,2,2021-08-07 10:33:04,766119
-4,-5,-6,-11,-9,-4,-3,-1,2021-08-07 10:33:04,766119
-3,-6,-9,-7,-5,-5,-4,-3,2021-08-07 10:33:04,766119
-3,-1,-1,1,-7,-2,-3,-3,2021-08-07 10:33:04,766119
0,1,2,7,0,-1,0,0,2021-08-07 10:33:04,766119
1,0,1,0,4,2,0,-1,2021-08-07 10:33:04,766119
-4,-2,-2,-2,2,0,-3,-2,2021-08-07 10:33:04,776118
-3,-3,-5,-8,-10,-4,-4,0,2021-08-07 10:33:04,776118
-1,-2,-1,0,4,1,2,1,2021-08-07 10:33:04,776118
-1,1,1,5,6,4,1,-2,2021-08-07 10:33:04,776118
-1,0,-1,-10,-16,-8,-1,-1,2021-08-07 10:33:04,813118
4,3,7,19,18,8,5,2,2021-08-07 10:33:04,829119
-4,-3,-2,-5,-8,-6,-2,-4,2021-08-07 10:33:04,845118
1,2,4,8,10,2,2,0,2021-08-07 10:33:04,845118
-1,-1,-2,-3,-3,-1,-1,-1,2021-08-07 10:33:04,845118
-1,-3,-12,-15,-8,-5,-3,0,2021-08-07 10:33:04,845118
-3,-3,-5,-8,-8,-2,-1,-1,2021-08-07 10:33:04,845118
3,2,4,11,15,8,5,4,2021-08-07 10:33:04,845118
0,-1,3,6,-1,-2,0,0,2021-08-07 10:33:04,845118
-3,-1,4,-1,-3,-3,-1,-4,2021-08-07 10:33:04,845118
-6,-3,-7,-7,-8,-5,-5,-5,2021-08-07 10:33:04,846119
0,2,0,-3,6,3,0,-1,2021-08-07 10:33:04,846119
1,1,1,-3,0,0,-2,-1,2021-08-07 10:33:04,861117
0,-2,-3,3,1,-2,-1,1,2021-08-07 10:33:04,861117
3,2,3,11,11,4,3,0,2021-08-07 10:33:04,861117
-2,-1,-2,-3,-11,-5,-3,-1,2021-08-07 10:33:04,861117
-2,-1,0,7,-3,-3,-1,1,2021-08-07 10:33:04,891119
2,5,8,11,16,8,6,2,2021-08-07 10:33:04,906119
-2,-6,-14,-20,-23,-10,-5,-3,2021-08-07 10:33:04,922119
0,-2,-1,2,10,3,-1,0,2021-08-07 10:33:04,922119
2,2,5,13,12,7,1,2,2021-08-07 10:33:04,922119
-3,-2,-1,-5,-11,-6,-3,-2,2021-08-07 10:33:04,922119
-1,-1,3,-3,-1,-2,-2,-2,2021-08-07 10:33:04,922119
-6,-8,-10,-16,-18,-7,-5,-2,2021-08-07 10:33:04,922119
-1,-1,-1,-4,1,0,0,1,2021-08-07 10:33:04,922119
-2,-2,-6,-7,-3,-1,-1,-1,2021-08-07 10:33:04,922119
0,-2,-3,-7,-10,-4,-2,-3,2021-08-07 10:33:04,922119
1,2,3,8,6,1,0,0,2021-08-07 10:33:04,922119
0,1,5,7,-1,1,-2,-2,2021-08-07 10:33:04,954119
2,2,1,0,2,2,0,-1,2021-08-07 10:33:04,970119
-1,-1,0,4,6,1,0,1,2021-08-07 10:33:04,986120
-5,-9,-19,-27,-15,-7,-4,-3,2021-08-07 10:33:04,986120
0,1,2,-4,-5,-2,-1,-2,2021-08-07 10:33:04,986120
-2,-4,-11,-9,-10,-7,-4,-3,2021-08-07 10:33:04,986120
-1,0,6,7,7,2,0,0,2021-08-07 10:33:04,986120
2,3,5,16,14,5,4,0,2021-08-07 10:33:04,986120
3,3,0,-1,0,0,2,2,2021-08-07 10:33:04,986120
-5,-4,-4,-12,-12,-6,-4,-3,2021-08-07 10:33:05,002119
1,0,2,3,8,3,2,1,2021-08-07 10:33:05,018118
-2,-5,-7,-7,-7,-5,-4,-1,2021-08-07 10:33:05,018118
-3,-3,-3,-4,-1,0,-1,-2,2021-08-07 10:33:05,018118
3,3,5,8,3,1,1,1,2021-08-07 10:33:05,018118
1,1,-4,3,8,5,1,0,2021-08-07 10:33:05,018118
6,9,15,16,13,7,5,1,2021-08-07 10:33:05,018118
-4,-6,-10,-6,-6,-5,-2,-3,2021-08-07 10:33:05,018118
-3,-4,-9,-26,-16,-6,-3,-2,2021-08-07 10:33:05,018118
-1,-3,-1,0,-1,-4,-3,0,2021-08-07 10:33:05,018118
1,3,8,6,4,2,1,0,2021-08-07 10:33:05,019119
2,0,4,9,6,2,2,1,2021-08-07 10:33:05,050119
-1,1,3,12,2,1,0,-1,2021-08-07 10:33:05,050119
-2,-1,-4,-6,-1,-2,1,0,2021-08-07 10:33:05,050119
-1,-4,-12,-20,-14,-5,-2,0,2021-08-07 10:33:05,050119
-8,-9,-6,-23,-16,-9,-6,-6,2021-08-07 10:33:05,065634
0,-1,-2,11,12,3,1,0,2021-08-07 10:33:05,081150
0,-1,2,13,11,4,0,0,2021-08-07 10:33:05,081150
-1,1,6,9,3,2,-1,-1,2021-08-07 10:33:05,081150
0,2,2,3,-1,-2,0,1,2021-08-07 10:33:05,081150
-4,-3,4,-8,-7,-5,-4,-2,2021-08-07 10:33:05,081150
2,3,0,-1,-2,0,0,3,2021-08-07 10:33:05,081150
-2,-4,-1,3,-2,-3,-1,-1,2021-08-07 10:33:05,081150
-2,-4,-6,-5,-7,-5,-3,-1,2021-08-07 10:33:05,111149
-5,-5,-7,-14,-6,-3,-3,-4,2021-08-07 10:33:05,111149
-3,-5,-4,-4,-6,-4,-4,-3,2021-08-07 10:33:05,111149
0,-1,-3,-9,-8,-1,1,1,2021-08-07 10:33:05,111149
5,9,11,23,22,10,6,4,2021-08-07 10:33:05,143150
0,-1,1,8,5,0,0,-1,2021-08-07 10:33:05,159148
1,1,3,1,-3,2,2,0,2021-08-07 10:33:05,191150
-3,-2,0,0,-2,-5,-2,-4,2021-08-07 10:33:05,207148
-2,-4,-9,-11,-9,-3,-3,-1,2021-08-07 10:33:05,207148
-1,-3,-6,-8,-3,-1,-3,-2,2021-08-07 10:33:05,207148
-2,0,1,1,4,-1,-1,-2,2021-08-07 10:33:05,207148
0,0,0,-3,-12,-7,-4,-1,2021-08-07 10:33:05,207148
4,5,9,18,15,6,3,1,2021-08-07 10:33:05,207148
1,-1,-1,3,-1,-1,0,1,2021-08-07 10:33:05,207148
-4,-7,-12,-17,-11,-4,-5,-2,2021-08-07 10:33:05,207148
-2,-1,6,0,-1,0,-2,0,2021-08-07 10:33:05,207148
-1,-1,-9,-2,1,-1,-1,0,2021-08-07 10:33:05,207148
0,0,2,0,-2,0,-1,-1,2021-08-07 10:33:05,207148
-1,1,4,5,-2,0,0,-2,2021-08-07 10:33:05,208150
-1,-2,-5,-5,-3,-1,0,0,2021-08-07 10:33:05,208150
2,-2,-3,-13,-8,-2,-2,-1,2021-08-07 10:33:05,208150
0,1,5,11,8,2,1,0,2021-08-07 10:33:05,208150
1,0,-3,-4,-9,-3,0,0,2021-08-07 10:33:05,208150
-4,-5,-6,-11,-4,-3,-3,-4,2021-08-07 10:33:05,208150
4,6,10,20,14,7,2,2,2021-08-07 10:33:05,222149
1,2,2,5,4,0,1,0,2021-08-07 10:33:05,238149
-1,-1,-1,3,0,0,-1,-1,2021-08-07 10:33:05,270148
0,0,-3,-2,-3,1,0,0,2021-08-07 10:33:05,270148
-6,-6,-10,-19,-10,-5,-3,-1,2021-08-07 10:33:05,270148
-3,-4,-4,-13,-15,-8,-3,-2,2021-08-07 10:33:05,270148
0,1,2,5,13,6,4,1,2021-08-07 10:33:05,270148
1,2,9,18,10,2,2,-1,2021-08-07 10:33:05,270148
1,2,3,-2,-11,-3,0,-1,2021-08-07 10:33:05,270148
1,-1,-2,5,12,5,4,2,2021-08-07 10:33:05,270148
-8,-10,-23,-45,-35,-17,-9,-5,2021-08-07 10:33:05,271149
1,2,4,13,24,10,3,2,2021-08-07 10:33:05,271149
-3,-1,2,0,-5,-1,-1,-3,2021-08-07 10:33:05,285480
-1,0,5,4,-5,-2,-2,1,2021-08-07 10:33:05,300658
4,4,12,16,9,3,1,0,2021-08-07 10:33:05,316657
-1,-2,-12,-6,-2,-1,-1,1,2021-08-07 10:33:05,316657
-4,-5,-7,-12,-5,-3,-4,-2,2021-08-07 10:33:05,316657
-5,-5,-8,-11,-10,-5,-4,-2,2021-08-07 10:33:05,316657
-2,-1,4,4,3,-1,0,-1,2021-08-07 10:33:05,316657
2,3,3,-3,-4,-1,1,-1,2021-08-07 10:33:05,316657
2,3,5,12,6,2,0,-1,2021-08-07 10:33:05,316657
0,2,5,11,6,4,2,0,2021-08-07 10:33:05,316657
-2,-2,-6,-12,2,0,-1,-2,2021-08-07 10:33:05,332658
-1,-2,-1,0,0,-3,-1,-1,2021-08-07 10:33:05,332658
