EMG 1,EMG 2,EMG 3,EMG 4,EMG 5,EMG 6,EMG 7,EMG 8,Timestamp,Milliseconds
2,2,4,13,16,8,3,2,2021-08-07 10:32:48,452136
-2,-3,-4,-12,-10,-4,-1,-1,2021-08-07 10:32:48,452136
0,0,5,20,16,6,2,0,2021-08-07 10:32:48,467135
3,4,3,-4,-7,-2,0,1,2021-08-07 10:32:48,467135
-2,-3,-4,-6,-7,-4,-5,-2,2021-08-07 10:32:48,467135
-3,-2,-2,1,2,0,-1,0,2021-08-07 10:32:48,467135
-1,-2,-3,-8,-8,-3,-1,0,2021-08-07 10:32:48,467135
0,-2,0,1,3,-1,-1,1,2021-08-07 10:32:48,467135
1,2,0,0,0,3,0,0,2021-08-07 10:32:48,467135
-1,-3,-2,-2,-2,0,0,-1,2021-08-07 10:32:48,467135
-2,-2,-2,1,1,0,-4,-4,2021-08-07 10:32:48,483135
0,-2,0,3,2,1,1,-1,2021-08-07 10:32:48,483135
1,-2,-3,-4,-5,-3,-1,0,2021-08-07 10:32:48,483135
2,3,1,-6,-3,-1,0,0,2021-08-07 10:32:48,483135
-1,0,0,-6,-6,-4,0,-1,2021-08-07 10:32:48,499136
-2,1,1,7,8,4,3,-1,2021-08-07 10:32:48,514135
-3,-4,-6,-7,-13,-6,-3,-1,2021-08-07 10:32:48,514135
3,3,11,29,29,12,6,3,2021-08-07 10:32:48,514135
-3,-3,-3,-9,-7,-2,-2,-2,2021-08-07 10:32:48,530137
-3,-2,-3,-5,-3,-2,-4,-3,2021-08-07 10:32:48,530137
-4,-1,2,0,-1,-2,-2,-4,2021-08-07 10:32:48,530137
-3,-1,-2,-2,-11,-7,-7,-3,2021-08-07 10:32:48,530137
0,0,-1,-12,-3,-1,-1,1,2021-08-07 10:32:48,546136
0,1,4,13,11,4,1,2,2021-08-07 10:32:48,546136
0,1,-2,-4,-3,-1,0,1,2021-08-07 10:32:48,546136
0,-1,-2,-3,-5,-3,-2,-1,2021-08-07 10:32:48,546136
-4,-5,-5,-10,-6,-6,-2,-5,2021-08-07 10:32:48,562136
4,3,3,5,3,0,1,3,2021-08-07 10:32:48,562136
-2,-2,-3,-3,-7,-4,-1,0,2021-08-07 10:32:48,609138
-3,-3,-4,-6,-2,-3,-3,-2,2021-08-07 10:32:48,609138
1,2,3,9,10,4,2,2,2021-08-07 10:32:48,609138
-1,-2,0,-1,-4,-3,-2,-1,2021-08-07 10:32:48,625135
-1,-1,2,6,4,1,0,-2,2021-08-07 10:32:48,625135
0,-2,-4,-6,-13,-7,-1,-1,2021-08-07 10:32:48,625135
-2,-3,-4,-7,-6,-3,-1,-1,2021-08-07 10:32:48,640136
0,3,2,8,22,9,2,1,2021-08-07 10:32:48,640136
-2,-2,-5,-10,-10,-4,-5,-1,2021-08-07 10:32:48,640136
2,4,5,13,17,6,4,2,2021-08-07 10:32:48,640136
1,1,4,7,0,1,0,0,2021-08-07 10:32:48,640136
-4,-6,-11,-19,-40,-20,-7,-4,2021-08-07 10:32:48,640136
-3,-3,1,7,29,12,2,-2,2021-08-07 10:32:48,640136
-2,-1,-2,0,2,-1,-1,0,2021-08-07 10:32:48,640136
-3,-3,-8,-24,-26,-9,-4,-3,2021-08-07 10:32:48,640136
7,8,15,41,43,20,10,4,2021-08-07 10:32:48,640136
-3,-5,-6,-13,-24,-11,-6,-3,2021-08-07 10:32:48,656136
-1,-2,-2,-6,-7,-2,-2,-2,2021-08-07 10:32:48,656136
-2,-2,-2,2,6,-1,0,0,2021-08-07 10:32:48,687136
-2,-5,-7,-20,-20,-9,-3,-2,2021-08-07 10:32:48,687136
0,-1,-3,-3,-2,-1,0,-2,2021-08-07 10:32:48,687136
1,-1,2,6,3,2,-1,0,2021-08-07 10:32:48,687136
-1,-2,-2,3,-8,-2,-2,-2,2021-08-07 10:32:48,687136
-2,-1,-4,-9,7,2,1,0,2021-08-07 10:32:48,687136
1,5,5,12,3,1,2,1,2021-08-07 10:32:48,703137
-1,-2,-4,-12,-11,-4,-2,-1,2021-08-07 10:32:48,703137
5,3,7,18,20,11,5,3,2021-08-07 10:32:48,719137
-1,0,3,5,4,1,1,-1,2021-08-07 10:32:48,735136
-1,-4,-5,-6,-2,-4,-3,1,2021-08-07 10:32:48,735136
-6,-4,-4,-10,-11,-6,-4,-4,2021-08-07 10:32:48,735136
1,2,-1,-4,-3,-1,-1,1,2021-08-07 10:32:48,735136
2,1,2,5,3,0,-1,1,2021-08-07 10:32:48,735136
-3,-2,-3,-6,-10,-6,-2,-3,2021-08-07 10:32:48,735136
-3,-3,-1,4,8,4,0,-3,2021-08-07 10:32:48,735136
0,-1,-1,2,1,-1,-1,0,2021-08-07 10:32:48,751135
-4,-5,-5,-7,-5,-3,-4,-2,2021-08-07 10:32:48,767137
2,3,2,1,-1,0,-1,0,2021-08-07 10:32:48,767137
-1,-2,-3,-1,-2,-2,-1,-2,2021-08-07 10:32:48,767137
-1,-2,-1,-4,-1,-2,-3,-1,2021-08-07 10:32:48,767137
-2,-1,-2,-4,-10,-2,-2,-1,2021-08-07 10:32:48,767137
-5,-7,-6,-6,-10,-5,-5,-5,2021-08-07 10:32:48,798136
3,3,5,15,19,7,5,3,2021-08-07 10:32:48,798136
1,3,2,-4,0,2,2,3,2021-08-07 10:32:48,798136
-1,-2,-1,-7,-8,-6,-2,-2,2021-08-07 10:32:48,798136
2,3,6,23,19,11,5,0,2021-08-07 10:32:48,798136
-1,0,0,4,2,0,0,-2,2021-08-07 10:32:48,798136
-3,-4,-5,-8,-11,-3,0,-3,2021-08-07 10:32:48,813135
-2,-3,-5,-10,-12,-5,-3,-1,2021-08-07 10:32:48,823136
-1,0,0,-2,6,0,-4,-3,2021-08-07 10:32:48,829135
1,1,2,0,-4,-4,-5,0,2021-08-07 10:32:48,829135
-2,-1,-2,-3,-2,-2,-4,-2,2021-08-07 10:32:48,829135
-3,-3,-6,-12,-13,-5,0,-1,2021-08-07 10:32:48,829135
-1,0,-1,5,1,2,3,2,2021-08-07 10:32:48,829135
-1,-1,0,-4,-3,-1,-1,-1,2021-08-07 10:32:48,829135
1,-1,4,12,16,6,3,0,2021-08-07 10:32:48,860137
0,-1,-2,-4,-3,2,1,-1,2021-08-07 10:32:48,876136
-1,0,-1,-8,-3,-2,0,-2,2021-08-07 10:32:48,876136
-2,-1,-2,-6,-7,-4,-3,-2,2021-08-07 10:32:48,876136
-3,-2,-4,-3,-5,-4,-4,-1,2021-08-07 10:32:48,876136
-5,-5,-4,-2,-8,-4,-3,-2,2021-08-07 10:32:48,876136
1,2,4,6,3,-1,-2,-1,2021-08-07 10:32:48,876136
2,3,-1,-7,-6,-2,0,1,2021-08-07 10:32:48,876136
1,0,4,18,21,7,2,0,2021-08-07 10:32:48,907136
-2,-1,0,1,-1,1,-3,-2,2021-08-07 10:32:48,923136
-4,-4,-4,-9,-2,-2,-1,-2,2021-08-07 10:32:48,955136
-2,-2,-2,-3,-1,0,1,-2,2021-08-07 10:32:48,955136
4,6,2,-4,-9,-2,1,1,2021-08-07 10:32:48,955136
2,0,3,6,7,2,0,1,2021-08-07 10:32:48,955136
-3,-3,-5,-6,0,-1,-1,0,2021-08-07 10:32:48,955136
-4,-4,-3,-1,-6,-2,-2,-3,2021-08-07 10:32:48,955136
-5,-6,-6,-11,-8,-5,-4,-6,2021-08-07 10:32:48,955136
4,4,8,20,18,7,4,1,2021-08-07 10:32:48,955136
2,2,2,4,-2,3,2,3,2021-08-07 10:32:48,955136
2,1,0,6,6,2,1,2,2021-08-07 10:32:48,956137
-3,-4,-3,-3,-10,-6,-3,-3,2021-08-07 10:32:48,956137
-4,-2,-3,-8,-9,-6,-4,-3,2021-08-07 10:32:48,956137
0,-1,-1,-2,-2,1,-2,-2,2021-08-07 10:32:48,956137
2,2,3,8,10,6,1,0,2021-08-07 10:32:48,956137
-2,-2,-1,-1,3,1,1,-1,2021-08-07 10:32:48,987136
-1,-2,-2,-5,-1,-3,-1,0,2021-08-07 10:32:48,987136
0,-1,0,-1,-5,-3,-1,-1,2021-08-07 10:32:48,987136
-3,-2,-4,-12,-12,-6,-4,-2,2021-08-07 10:32:48,987136
-2,1,1,4,7,1,0,0,2021-08-07 10:32:49,003136
1,0,0,1,2,1,-2,-1,2021-08-07 10:32:49,003136
-2,-2,-2,-1,-1,-2,0,-2,2021-08-07 10:32:49,003136
-2,0,-1,-1,-5,-2,-1,-2,2021-08-07 10:32:49,003136
1,-1,-2,-4,-4,0,-1,0,2021-08-07 10:32:49,034137
-2,-1,-1,-1,0,-1,-1,-1,2021-08-07 10:32:49,050135
0,1,-1,-1,-2,-1,0,0,2021-08-07 10:32:49,066136
-1,-3,-2,-1,-1,-1,0,-1,2021-08-07 10:32:49,066136
-2,-5,-4,-13,-12,-6,-2,-2,2021-08-07 10:32:49,066136
1,2,5,17,23,8,2,2,2021-08-07 10:32:49,082135
-1,-2,-3,-4,-5,-1,-2,-1,2021-08-07 10:32:49,082135
-1,0,0,-2,-1,0,-2,-2,2021-08-07 10:32:49,082135
0,0,-1,-4,-8,-4,-2,0,2021-08-07 10:32:49,082135
-4,-2,-6,-11,-8,-3,-1,-2,2021-08-07 10:32:49,082135
-2,-2,-1,3,3,1,-1,-1,2021-08-07 10:32:49,082135
0,-1,-2,-6,-7,-3,-1,0,2021-08-07 10:32:49,082135
0,3,0,3,4,0,-1,0,2021-08-07 10:32:49,082135
0,0,-4,-15,-7,-3,-2,-2,2021-08-07 10:32:49,082135
2,3,5,17,14,6,3,2,2021-08-07 10:32:49,082135
0,-2,-2,-9,-11,-4,-1,0,2021-08-07 10:32:49,082135
-3,-4,-5,-9,-9,-5,-3,-4,2021-08-07 10:32:49,098135
1,-1,0,10,17,5,2,0,2021-08-07 10:32:49,098135
-1,0,-1,-8,-14,-7,-2,0,2021-08-07 10:32:49,098135
-1,-3,-1,-2,0,-1,-1,-1,2021-08-07 10:32:49,098135
-4,-2,-1,2,-4,-3,-3,-3,2021-08-07 10:32:49,130136
3,3,4,-1,0,3,1,3,2021-08-07 10:32:49,130136
-2,-3,-1,2,6,2,-3,-4,2021-08-07 10:32:49,130136
-1,-1,2,3,-2,-2,1,-1,2021-08-07 10:32:49,130136
0,-1,-2,-1,0,0,-1,-1,2021-08-07 10:32:49,130136
-2,-3,-3,-6,-12,-5,-3,-2,2021-08-07 10:32:49,130136
-1,-1,-1,-5,-2,0,0,1,2021-08-07 10:32:49,130136
0,1,-2,6,3,1,-1,1,2021-08-07 10:32:49,130136
-2,-1,-1,-3,1,1,-1,-2,2021-08-07 10:32:49,161158
-1,-2,-2,-2,-2,-1,-1,-2,2021-08-07 10:32:49,177158
-2,-3,-4,-9,-7,-4,-2,-3,2021-08-07 10:32:49,208158
2,2,3,1,-2,1,1,2,2021-08-07 10:32:49,208158
1,-2,0,5,12,5,0,0,2021-08-07 10:32:49,208158
-2,0,1,3,1,1,-2,0,2021-08-07 10:32:49,208158
1,1,4,11,12,5,1,2,2021-08-07 10:32:49,208158
2,1,0,-3,3,2,0,-1,2021-08-07 10:32:49,208158
2,-1,4,7,-2,0,1,1,2021-08-07 10:32:49,208158
-3,-2,-4,-8,-14,-6,-3,-3,2021-08-07 10:32:49,224159
-4,-6,-7,-12,-7,-5,-5,-2,2021-08-07 10:32:49,256159
-4,-2,-1,-1,4,0,-1,-2,2021-08-07 10:32:49,256159
2,2,0,-3,-6,-2,-1,1,2021-08-07 10:32:49,256159
0,-1,-1,1,4,2,1,-1,2021-08-07 10:32:49,256159
1,0,0,-3,-3,1,-1,0,2021-08-07 10:32:49,256159
1,3,2,9,13,4,3,-2,2021-08-07 10:32:49,256159
-2,-2,0,-2,-1,0,0,0,2021-08-07 10:32:49,256159
-2,-2,-4,0,-6,-4,0,-3,2021-08-07 10:32:49,256159
-1,0,-2,0,-2,-2,1,-1,2021-08-07 10:32:49,256159
-1,-3,-3,-6,-2,-2,-3,-1,2021-08-07 10:32:49,256159
-3,-1,-2,-2,-3,-2,-1,-3,2021-08-07 10:32:49,257160
-1,1,1,2,-2,-1,-1,0,2021-08-07 10:32:49,257160
-3,-3,-5,-12,-17,-7,-4,-3,2021-08-07 10:32:49,257160
-1,0,0,7,13,5,2,1,2021-08-07 10:32:49,257160
-1,0,-3,2,2,0,-2,-1,2021-08-07 10:32:49,287159
3,1,4,4,-1,-2,-1,2,2021-08-07 10:32:49,287159
3,3,2,0,1,1,0,0,2021-08-07 10:32:49,287159
-3,-5,-6,-12,-13,-7,-3,-3,2021-08-07 10:32:49,287159
0,-2,-1,-2,2,0,0,-1,2021-08-07 10:32:49,319160
-3,-8,-5,-5,-5,-2,-1,-2,2021-08-07 10:32:49,335158
-5,-5,-6,-11,-11,-6,-5,-2,2021-08-07 10:32:49,351159
0,3,5,17,23,11,1,0,2021-08-07 10:32:49,351159
0,0,2,4,4,4,0,-1,2021-08-07 10:32:49,351159
0,-1,-3,-4,-4,-5,-3,-3,2021-08-07 10:32:49,351159
-2,-2,-4,-9,-8,-5,-2,0,2021-08-07 10:32:49,351159
3,2,1,3,-7,-4,-1,0,2021-08-07 10:32:49,351159
0,1,0,-7,-6,-2,-2,1,2021-08-07 10:32:49,351159
0,-1,-1,-1,6,0,1,1,2021-08-07 10:32:49,351159
1,1,1,7,3,2,2,1,2021-08-07 10:32:49,351159
-2,-3,-5,-3,-8,-4,-2,0,2021-08-07 10:32:49,351159
-1,-1,-1,3,3,1,2,0,2021-08-07 10:32:49,367370
-4,-3,-2,-3,-7,-3,-2,-2,2021-08-07 10:32:49,379670
0,-1,-1,-1,0,-1,1,0,2021-08-07 10:32:49,398670
0,1,1,2,2,-1,1,0,2021-08-07 10:32:49,398670
1,0,-1,-1,-4,-2,-1,0,2021-08-07 10:32:49,398670
-2,-2,-5,-10,-8,-3,-2,-1,2021-08-07 10:32:49,398670
-2,-1,3,12,10,4,2,-1,2021-08-07 10:32:49,398670
-3,-3,0,-1,-3,-3,-2,0,2021-08-07 10:32:49,398670
0,1,-1,-2,3,2,0,2,2021-08-07 10:32:49,398670
3,4,8,17,14,5,3,0,2021-08-07 10:32:49,398670
-1,-1,-2,-3,-6,-2,-1,-1,2021-08-07 10:32:49,398670
-3,-7,-6,-7,-8,-4,-2,-5,2021-08-07 10:32:49,399670
0,1,1,0,-2,-2,-1,0,2021-08-07 10:32:49,430670
1,3,1,2,3,2,0,0,2021-08-07 10:32:49,446670
-2,-1,-4,-6,-4,-3,-2,-2,2021-08-07 10:32:49,462670
0,0,-2,-3,-5,-3,-2,0,2021-08-07 10:32:49,462670
-5,-6,-6,-4,-7,-3,-3,-2,2021-08-07 10:32:49,462670
1,-1,0,-1,1,0,-1,0,2021-08-07 10:32:49,478670
0,-1,1,7,12,6,3,1,2021-08-07 10:32:49,478670
-2,-2,-2,0,-1,0,-1,-2,2021-08-07 10:32:49,478670
0,2,1,-3,-5,-4,-2,1,2021-08-07 10:32:49,478670
-4,-4,-10,-20,-19,-9,-4,-2,2021-08-07 10:32:49,478670
4,5,9,19,21,9,3,4,2021-08-07 10:32:49,478670
0,2,0,0,-2,1,1,0,2021-08-07 10:32:49,478670
-2,0,0,7,5,1,-1,-2,2021-08-07 10:32:49,478670
-4,-2,-4,-6,-6,-2,-2,-2,2021-08-07 10:32:49,478670
-1,-3,-3,1,-4,-3,-1,-2,2021-08-07 10:32:49,479670
0,1,0,2,1,-1,-1,0,2021-08-07 10:32:49,479670
0,0,0,-2,-1,-1,-1,-1,2021-08-07 10:32:49,494670
-3,-3,-2,-1,0,0,0,-2,2021-08-07 10:32:49,494670
-2,-1,-2,-3,-3,-2,-3,-2,2021-08-07 10:32:49,494670
-2,-1,-3,-7,-8,-3,-2,-2,2021-08-07 10:32:49,494670
0,1,-1,3,12,4,1,0,2021-08-07 10:32:49,526670
1,-1,0,2,2,1,0,-1,2021-08-07 10:32:49,542670
-2,-1,-2,-1,-3,-4,-2,-2,2021-08-07 10:32:49,558670
0,-1,-1,-6,-11,-5,-1,0,2021-08-07 10:32:49,558670
-1,-1,-1,-4,3,1,0,-2,2021-08-07 10:32:49,558670
-2,-3,-3,-2,-1,-1,-2,-2,2021-08-07 10:32:49,558670
2,2,1,1,1,0,0,0,2021-08-07 10:32:49,558670
-1,-2,-2,-3,-2,-1,-2,1,2021-08-07 10:32:49,558670
-3,-3,-3,-1,-8,-3,-2,-3,2021-08-07 10:32:49,558670
0,0,1,4,3,1,-1,0,2021-08-07 10:32:49,558670
-2,-2,0,-2,-2,-1,-1,-2,2021-08-07 10:32:49,558670
-2,-2,-3,-2,0,-2,-2,-3,2021-08-07 10:32:49,559670
-1,-1,-1,2,-1,0,0,-2,2021-08-07 10:32:49,590669
0,0,2,3,5,3,0,1,2021-08-07 10:32:49,590669
-2,-2,-4,-7,-6,-1,-3,-2,2021-08-07 10:32:49,590669
1,-1,-1,4,5,1,-1,0,2021-08-07 10:32:49,590669
-1,-2,-1,-1,-2,-2,-2,-1,2021-08-07 10:32:49,606670
-1,1,-1,-1,0,0,-1,0,2021-08-07 10:32:49,606670
-1,0,-2,-3,-3,-2,-1,-1,2021-08-07 10:32:49,606670
1,0,0,0,1,0,0,-1,2021-08-07 10:32:49,606670
1,1,1,-3,-1,-1,-1,-1,2021-08-07 10:32:49,621671
-3,-2,-3,1,-2,-3,-1,-2,2021-08-07 10:32:49,637670
-2,0,-2,-6,-5,-2,0,0,2021-08-07 10:32:49,637670
0,-1,-1,-1,2,2,-1,-1,2021-08-07 10:32:49,637670
-1,1,1,-2,-2,-2,0,0,2021-08-07 10:32:49,637670
0,1,2,2,1,1,-1,-1,2021-08-07 10:32:49,637670
-1,-3,-4,-4,-3,-4,-2,-1,2021-08-07 10:32:49,653670
0,0,-2,-2,-2,-2,-1,-2,2021-08-07 10:32:49,653670
-1,0,-2,0,-1,-1,0,-2,2021-08-07 10:32:49,653670
-1,-1,0,0,1,1,1,0,2021-08-07 10:32:49,653670
-2,-1,0,-2,-2,0,-1,-2,2021-08-07 10:32:49,666670
-2,-2,-1,-2,-1,0,-1,-1,2021-08-07 10:32:49,684669
0,-2,-2,-4,-3,-2,0,-1,2021-08-07 10:32:49,700669
-3,-1,0,2,2,0,-1,-1,2021-08-07 10:32:49,715670
-1,0,0,0,-1,-1,-1,0,2021-08-07 10:32:49,715670
0,-1,-1,-4,-2,-1,0,-1,2021-08-07 10:32:49,715670
-1,-3,-1,-1,1,-1,-2,0,2021-08-07 10:32:49,715670
-1,-2,2,1,-1,-1,-1,1,2021-08-07 10:32:49,715670
-2,-1,-4,-6,-5,-3,-2,1,2021-08-07 10:32:49,715670
1,0,5,13,6,3,0,2,2021-08-07 10:32:49,715670
-1,0,1,5,3,0,0,1,2021-08-07 10:32:49,715670
0,-2,-3,-4,-5,-2,-2,-2,2021-08-07 10:32:49,715670
-2,-2,-2,-3,0,1,-1,-1,2021-08-07 10:32:49,731670
-2,-2,-4,-8,-12,-6,-2,-4,2021-08-07 10:32:49,747670
1,0,0,1,6,3,2,1,2021-08-07 10:32:49,763670
-1,0,-1,1,-1,0,1,0,2021-08-07 10:32:49,763670
1,2,2,5,6,2,1,1,2021-08-07 10:32:49,779671
-4,-3,-7,-16,-23,-11,-4,-4,2021-08-07 10:32:49,779671
0,1,1,6,15,5,0,0,2021-08-07 10:32:49,779671
1,2,-2,5,6,2,0,-2,2021-08-07 10:32:49,779671
1,1,2,3,2,2,0,1,2021-08-07 10:32:49,779671
-3,-3,-1,-2,1,0,0,0,2021-08-07 10:32:49,779671
-2,-3,-4,-13,-19,-8,-3,-5,2021-08-07 10:32:49,779671
1,-2,-1,0,-2,-3,-1,0,2021-08-07 10:32:49,780670
0,-2,-2,-2,-1,-2,-1,-3,2021-08-07 10:32:49,780670
0,1,1,4,4,1,0,-1,2021-08-07 10:32:49,780670
0,-2,-3,-3,-4,-2,-1,-3,2021-08-07 10:32:49,811669
1,-1,-1,-2,0,2,-1,-1,2021-08-07 10:32:49,827670
0,1,-1,-3,-5,-2,0,-1,2021-08-07 10:32:49,843670
-2,-1,-1,-1,5,3,0,1,2021-08-07 10:32:49,843670
-1,-2,-1,1,1,-1,0,-2,2021-08-07 10:32:49,843670
-2,-3,-4,-4,-3,-4,-3,-3,2021-08-07 10:32:49,843670
1,1,3,3,0,-1,0,0,2021-08-07 10:32:49,843670
0,1,1,1,5,3,1,0,2021-08-07 10:32:49,843670
0,0,3,3,2,2,0,4,2021-08-07 10:32:49,843670
-1,-3,-3,-7,-6,-5,-1,0,2021-08-07 10:32:49,843670
-3,-3,-3,-4,-3,-4,-3,-3,2021-08-07 10:32:49,843670
0,2,-1,4,5,0,0,0,2021-08-07 10:32:49,843670
-2,-4,-2,-3,-6,-2,-2,-2,2021-08-07 10:32:49,874670
0,1,-3,-3,-5,-2,-2,-1,2021-08-07 10:32:49,890670
1,1,-1,1,4,2,2,-1,2021-08-07 10:32:49,922671
0,-1,2,1,0,-2,-3,0,2021-08-07 10:32:49,938671
-2,-3,-5,-6,-8,-5,-2,-2,2021-08-07 10:32:49,944669
1,1,2,3,3,2,1,2,2021-08-07 10:32:49,944669
-3,-1,-1,4,-4,-3,-2,-2,2021-08-07 10:32:49,944669
-2,-1,-1,-1,2,1,-1,-3,2021-08-07 10:32:49,944669
-2,-1,0,2,3,1,0,-1,2021-08-07 10:32:49,944669
-1,0,-1,-7,-4,-3,1,-2,2021-08-07 10:32:49,944669
0,-1,-1,-3,-1,-1,1,0,2021-08-07 10:32:49,954670
0,-3,-2,-6,-5,-4,-1,-1,2021-08-07 10:32:49,954670
-3,-5,-1,4,0,-1,-1,-3,2021-08-07 10:32:49,954670
-4,-2,-5,-5,-1,-2,-1,-2,2021-08-07 10:32:49,954670
0,1,2,-1,0,0,-1,0,2021-08-07 10:32:49,970670
6,6,4,4,7,6,5,3,2021-08-07 10:32:49,970670
3,2,2,-1,-2,-1,2,1,2021-08-07 10:32:49,970670
-3,-3,-5,-5,-5,-3,-1,-5,2021-08-07 10:32:49,970670
-3,-4,-2,3,16,5,0,0,2021-08-07 10:32:49,970670
-1,-2,-2,-2,-3,-2,-2,-1,2021-08-07 10:32:49,970670
-3,-1,-2,-5,-7,-2,-3,0,2021-08-07 10:32:49,970670
1,1,2,4,6,2,0,0,2021-08-07 10:32:49,970670
-1,-3,-6,-17,-16,-7,-2,-2,2021-08-07 10:32:49,970670
-1,0,0,8,12,2,1,-1,2021-08-07 10:32:49,970670
-1,-2,-3,-7,-2,-1,0,-2,2021-08-07 10:32:49,986671
1,0,1,4,-2,0,0,0,2021-08-07 10:32:49,986671
1,0,3,9,7,3,-1,-3,2021-08-07 10:32:49,986671
-4,-4,-2,-5,-8,-3,-2,-2,2021-08-07 10:32:49,986671
-1,2,-3,-3,-6,-3,-2,-1,2021-08-07 10:32:50,002670
-1,-3,-4,-10,-2,-3,-2,0,2021-08-07 10:32:50,018671
1,0,3,13,9,4,2,2,2021-08-07 10:32:50,018671
-1,-2,-2,-2,-6,-4,-2,-1,2021-08-07 10:32:50,018671
-1,-1,-1,1,4,2,-1,0,2021-08-07 10:32:50,018671
0,2,3,0,-4,-2,0,0,2021-08-07 10:32:50,018671
0,1,-3,-6,-5,-2,-1,1,2021-08-07 10:32:50,034671
-3,-2,-1,1,1,-2,-2,-2,2021-08-07 10:32:50,050669
-3,-3,-3,-8,-7,-5,-3,-1,2021-08-07 10:32:50,065669
-1,-1,0,2,3,-1,-1,-1,2021-08-07 10:32:50,065669
-2,-2,-4,-3,-7,-3,-3,1,2021-08-07 10:32:50,065669
-1,-2,-3,-3,0,0,0,0,2021-08-07 10:32:50,065669
1,-1,-1,1,4,0,0,0,2021-08-07 10:32:50,065669
-2,1,2,7,3,0,0,0,2021-08-07 10:32:50,065669
-1,2,0,4,6,4,2,0,2021-08-07 10:32:50,065669
0,1,-1,-7,-7,-4,0,-1,2021-08-07 10:32:50,065669
0,-1,1,0,-1,-1,0,0,2021-08-07 10:32:50,081669
1,0,2,6,5,4,0,-1,2021-08-07 10:32:50,081669
-1,-3,-2,1,-7,-5,-4,-1,2021-08-07 10:32:50,097669
1,1,1,8,14,7,3,2,2021-08-07 10:32:50,112669
-4,-2,-2,-4,3,1,0,-2,2021-08-07 10:32:50,112669
-3,-1,0,1,-4,-2,-2,-3,2021-08-07 10:32:50,112669
-5,-3,-1,-8,-5,-3,-2,-4,2021-08-07 10:32:50,112669
-3,-1,1,4,-2,-1,-3,-1,2021-08-07 10:32:50,112669
1,4,1,-3,-3,-3,-3,2,2021-08-07 10:32:50,128670
2,4,1,2,0,2,1,2,2021-08-07 10:32:50,144670
0,-1,-3,-6,-8,-3,-1,1,2021-08-07 10:32:50,160669
-1,-2,-3,-4,-1,-1,-3,-3,2021-08-07 10:32:50,160669
-1,-3,-5,-6,-5,-2,-2,0,2021-08-07 10:32:50,160669
0,1,0,-1,1,0,0,0,2021-08-07 10:32:50,160669
2,0,3,12,16,3,2,-1,2021-08-07 10:32:50,160669
-1,-4,-2,-3,-6,-2,-1,0,2021-08-07 10:32:50,160669
1,1,2,6,1,0,-1,-1,2021-08-07 10:32:50,160669
-3,-2,-5,-12,-14,-7,-2,-3,2021-08-07 10:32:50,176670
-2,-2,-3,-8,-3,0,-1,-3,2021-08-07 10:32:50,176670
1,0,1,3,8,3,1,0,2021-08-07 10:32:50,176670
1,0,2,4,1,1,-2,-1,2021-08-07 10:32:50,176670
0,-1,-2,-3,-1,0,-1,0,2021-08-07 10:32:50,176670
-3,-3,-3,-4,-10,-5,-2,-2,2021-08-07 10:32:50,191671
0,1,-2,-2,-2,-2,-1,-1,2021-08-07 10:32:50,191671
-2,0,0,0,0,-1,-1,0,2021-08-07 10:32:50,191671
-1,0,-1,4,7,1,-1,-2,2021-08-07 10:32:50,191671
0,0,0,-4,-2,0,-1,-1,2021-08-07 10:32:50,206669
0,-1,-2,-4,-4,-3,-1,-2,2021-08-07 10:32:50,206669
-2,-1,-3,-2,-6,-4,-2,-3,2021-08-07 10:32:50,221670
0,-1,3,3,7,3,0,2,2021-08-07 10:32:50,229670
0,0,-1,1,1,-1,1,-2,2021-08-07 10:32:50,230670
-2,-2,-2,-2,-4,-2,0,-1,2021-08-07 10:32:50,230670
-1,0,0,-4,-1,1,1,-1,2021-08-07 10:32:50,253670
-1,0,-2,0,-1,-2,-2,-1,2021-08-07 10:32:50,253670
0,-1,0,0,1,1,-1,1,2021-08-07 10:32:50,253670
-1,-3,-1,-1,-3,-2,-1,-1,2021-08-07 10:32:50,253670
-2,-4,-3,-8,-9,-3,0,0,2021-08-07 10:32:50,269670
-1,-2,-1,-2,-3,-3,-3,-2,2021-08-07 10:32:50,285670
0,0,1,5,6,3,0,0,2021-08-07 10:32:50,301670
1,3,3,4,0,0,-1,-1,2021-08-07 10:32:50,301670
0,2,1,8,13,4,2,3,2021-08-07 10:32:50,301670
-2,-2,-2,-4,-5,-1,-1,-1,2021-08-07 10:32:50,301670
-2,-2,-4,-7,-7,-4,-3,-1,2021-08-07 10:32:50,301670
-3,-2,-2,-1,-2,-2,-1,-1,2021-08-07 10:32:50,301670
0,0,-1,-1,0,-1,-1,-1,2021-08-07 10:32:50,301670
0,0,0,-2,-2,-1,-1,-1,2021-08-07 10:32:50,301670
0,-1,-1,-1,-1,1,-1,1,2021-08-07 10:32:50,301670
0,0,-1,2,3,1,-1,0,2021-08-07 10:32:50,302672
1,3,5,5,4,-1,-1,-2,2021-08-07 10:32:50,317669
-4,-4,-3,-3,-2,0,-1,-1,2021-08-07 10:32:50,333669
-3,-5,-8,-13,-13,-8,-4,-2,2021-08-07 10:32:50,333669
-1,-2,-1,-3,-4,-1,-1,0,2021-08-07 10:32:50,333669
-3,-2,-2,-2,-1,-2,-2,-3,2021-08-07 10:32:50,348669
1,5,8,13,8,3,0,-1,2021-08-07 10:32:50,363670
1,1,1,5,4,-1,-1,0,2021-08-07 10:32:50,379670
-1,-2,-4,-8,1,0,0,-1,2021-08-07 10:32:50,379670
-3,-6,-7,-11,-11,-6,-3,-4,2021-08-07 10:32:50,379670
-2,-2,-4,-7,-7,-3,-2,-3,2021-08-07 10:32:50,379670
0,0,3,4,3,3,-1,-3,2021-08-07 10:32:50,379670
1,1,1,1,1,0,-2,-1,2021-08-07 10:32:50,379670
1,1,3,7,5,1,1,1,2021-08-07 10:32:50,379670
-2,-1,-1,2,2,2,-1,-2,2021-08-07 10:32:50,379670
-1,0,-2,-4,-2,-1,-2,0,2021-08-07 10:32:50,379670
-2,-2,-3,-3,-5,-3,-1,-3,2021-08-07 10:32:50,379670
-2,-3,-2,-4,-12,-5,-4,-2,2021-08-07 10:32:50,411669
2,0,0,0,4,-1,1,1,2021-08-07 10:32:50,411669
4,4,8,19,16,9,7,5,2021-08-07 10:32:50,411669
-3,-3,-2,-7,-9,-4,-5,-3,2021-08-07 10:32:50,411669
-2,-3,-1,0,-1,-1,-2,-1,2021-08-07 10:32:50,426670
-1,-2,-5,-11,-15,-10,-2,1,2021-08-07 10:32:50,426670
0,0,0,-4,3,1,-1,0,2021-08-07 10:32:50,426670
2,2,1,6,6,2,1,0,2021-08-07 10:32:50,426670
-1,0,-2,-3,-2,1,-2,-1,2021-08-07 10:32:50,458670
-2,-2,-2,-3,-4,-2,-2,-3,2021-08-07 10:32:50,473670
-3,-3,-3,-6,-12,-6,-3,-2,2021-08-07 10:32:50,489671
-1,-1,-2,-2,-1,-3,0,0,2021-08-07 10:32:50,489671
1,1,1,0,3,2,2,-1,2021-08-07 10:32:50,489671
1,-1,1,-2,1,1,-1,0,2021-08-07 10:32:50,489671
-5,-5,-4,-4,-4,-4,-3,-2,2021-08-07 10:32:50,489671
3,3,4,4,5,3,3,2,2021-08-07 10:32:50,489671
3,1,-1,0,1,1,-1,0,2021-08-07 10:32:50,489671
-1,0,-2,-1,2,3,1,0,2021-08-07 10:32:50,489671
-2,-2,-1,-2,-3,-3,-1,-2,2021-08-07 10:32:50,489671
-2,-3,-2,-2,-1,-1,0,-1,2021-08-07 10:32:50,490671
-4,-3,1,1,0,-1,-1,-2,2021-08-07 10:32:50,505670
-2,-1,-4,2,-1,0,-2,-2,2021-08-07 10:32:50,509185
0,-1,-2,-3,-3,-2,-1,-2,2021-08-07 10:32:50,509185
1,0,0,0,-3,-1,-3,-3,2021-08-07 10:32:50,509185
1,0,-1,-3,1,0,0,1,2021-08-07 10:32:50,521688
-1,-1,3,5,1,-2,-1,-1,2021-08-07 10:32:50,537688
-4,-5,-3,0,2,-1,-3,-1,2021-08-07 10:32:50,569688
-5,-1,-5,-10,-14,-7,-5,-2,2021-08-07 10:32:50,585688
1,2,1,3,4,3,1,1,2021-08-07 10:32:50,601688
-1,-1,-4,-3,6,1,-1,-2,2021-08-07 10:32:50,617688
2,3,4,2,2,2,2,0,2021-08-07 10:32:50,649688
-5,-4,-5,3,1,0,-1,-1,2021-08-07 10:32:50,664688
-5,-5,-4,-4,-9,-7,-5,-5,2021-08-07 10:32:50,680687
2,2,1,-1,-4,-1,0,-1,2021-08-07 10:32:50,680687
3,4,2,-1,-1,0,1,0,2021-08-07 10:32:50,680687
-1,0,1,-2,-3,-3,-3,-2,2021-08-07 10:32:50,680687
-2,-2,-2,-2,-2,-1,-1,-2,2021-08-07 10:32:50,680687
-1,-1,-1,2,4,0,-1,-1,2021-08-07 10:32:50,680687
-3,-4,-5,-5,-5,-3,-2,-2,2021-08-07 10:32:50,680687
0,0,3,7,6,3,1,0,2021-08-07 10:32:50,696688
0,0,-1,-1,-1,1,1,1,2021-08-07 10:32:50,712688
-3,-6,-7,-10,-9,-6,-4,-4,2021-08-07 10:32:50,712688
0,2,5,8,2,1,-1,1,2021-08-07 10:32:50,712688
1,3,3,11,16,7,4,2,2021-08-07 10:32:50,712688
0,-1,-2,0,-2,-2,0,-1,2021-08-07 10:32:50,712688
-4,-3,0,3,-2,-3,0,0,2021-08-07 10:32:50,712688
-2,-1,-5,-15,-13,-6,-3,-3,2021-08-07 10:32:50,712688
2,3,3,0,-1,1,0,1,2021-08-07 10:32:50,712688
-1,-1,0,3,5,0,-2,-2,2021-08-07 10:32:50,712688
0,-1,-1,1,0,-2,-1,-1,2021-08-07 10:32:50,712688
-3,-2,-5,-7,-8,-5,-2,-2,2021-08-07 10:32:50,712688
-3,-3,-5,-8,-7,-3,-1,-2,2021-08-07 10:32:50,712688
-2,-1,2,5,10,3,1,-1,2021-08-07 10:32:50,713688
-3,-4,-3,-6,-4,-3,-1,-1,2021-08-07 10:32:50,713688
-1,-2,-1,7,9,2,-1,-1,2021-08-07 10:32:50,713688
-1,-1,-2,-7,-6,-3,-3,-2,2021-08-07 10:32:50,713688
2,2,0,-3,-8,-4,-2,0,2021-08-07 10:32:50,713688
0,2,-1,-4,10,5,1,0,2021-08-07 10:32:50,713688
1,0,3,13,9,5,2,2,2021-08-07 10:32:50,713688
-3,-3,-5,-5,-7,-5,-3,-2,2021-08-07 10:32:50,713688
-6,-6,-7,-12,-13,-9,-3,-4,2021-08-07 10:32:50,713688
2,3,7,15,11,5,1,2,2021-08-07 10:32:50,713688
1,-2,-4,-7,-3,-3,0,-1,2021-08-07 10:32:50,713688
0,-1,0,2,2,0,-1,-1,2021-08-07 10:32:50,713688
-2,-1,-1,-5,-4,-2,-2,0,2021-08-07 10:32:50,728689
-3,-1,1,3,-6,-1,-3,-3,2021-08-07 10:32:50,728912
-1,-3,-2,-2,2,0,0,-2,2021-08-07 10:32:50,728912
2,-1,2,0,-1,-2,-1,-1,2021-08-07 10:32:50,728912
-1,0,0,-1,-3,0,0,0,2021-08-07 10:32:50,759199
-1,-1,0,0,5,2,-1,0,2021-08-07 10:32:50,774199
-2,-2,-1,-3,-6,-3,-3,-2,2021-08-07 10:32:50,774199
-1,-1,-2,1,3,0,-1,0,2021-08-07 10:32:50,774199
-1,-1,-1,3,0,0,-2,-2,2021-08-07 10:32:50,788200
-2,0,-3,-9,-9,-3,-2,-2,2021-08-07 10:32:50,806199
0,-1,0,1,2,0,-1,-2,2021-08-07 10:32:50,806199
-1,-2,-5,-14,-8,-4,-1,0,2021-08-07 10:32:50,806199
1,-1,3,8,4,2,0,0,2021-08-07 10:32:50,806199
-2,-2,-3,-2,-8,-6,-3,-2,2021-08-07 10:32:50,806199
0,3,0,-2,10,5,2,2,2021-08-07 10:32:50,806199
-2,-1,0,-1,-3,0,0,-2,2021-08-07 10:32:50,806199
1,0,1,7,9,2,2,1,2021-08-07 10:32:50,806199
1,-2,-1,-3,-4,-4,-1,0,2021-08-07 10:32:50,806199
0,-1,-3,-10,-11,-4,-3,-1,2021-08-07 10:32:50,806199
2,1,2,9,6,2,1,0,2021-08-07 10:32:50,807199
-1,0,1,2,2,2,-1,0,2021-08-07 10:32:50,822199
-2,0,0,3,2,0,-1,-2,2021-08-07 10:32:50,837710
-1,1,1,3,-2,-4,-3,-3,2021-08-07 10:32:50,837710
-4,-3,-5,-5,-4,-1,2,-1,2021-08-07 10:32:50,837710
-3,-7,-11,-18,-15,-11,-5,-4,2021-08-07 10:32:50,837710
0,-1,0,0,1,1,0,0,2021-08-07 10:32:50,853220
0,-1,0,-1,-2,1,0,0,2021-08-07 10:32:50,869220
0,2,3,3,0,0,-1,-1,2021-08-07 10:32:50,869220
1,1,4,5,7,3,1,2,2021-08-07 10:32:50,869220
1,1,0,4,5,2,1,-3,2021-08-07 10:32:50,869220
0,0,1,4,2,0,2,0,2021-08-07 10:32:50,869220
-2,-4,-5,-9,-14,-9,-3,-3,2021-08-07 10:32:50,869220
1,-1,-1,0,5,1,-1,1,2021-08-07 10:32:50,885220
1,0,1,-2,-2,0,0,1,2021-08-07 10:32:50,901220
0,-2,0,6,5,3,0,1,2021-08-07 10:32:50,917219
-2,-2,-3,-4,-2,1,0,0,2021-08-07 10:32:50,917219
-3,0,-2,-5,-2,0,-1,-1,2021-08-07 10:32:50,917219
-2,0,1,7,4,1,-2,-2,2021-08-07 10:32:50,917219
-3,-4,-3,-4,-4,-1,-3,-4,2021-08-07 10:32:50,917219
-1,0,0,-3,-5,-4,-3,-4,2021-08-07 10:32:50,917219
-1,-2,-3,-9,-10,-5,-3,-3,2021-08-07 10:32:50,933220
0,0,-3,-3,2,-1,1,2,2021-08-07 10:32:50,948220
1,1,0,-1,-1,0,2,2,2021-08-07 10:32:50,980220
4,3,4,10,12,7,3,2,2021-08-07 10:32:50,980220
0,0,2,4,4,4,2,-1,2021-08-07 10:32:50,980220
-5,-5,-5,-8,-9,-7,-3,-3,2021-08-07 10:32:50,980220
1,1,0,-5,-7,-5,-1,0,2021-08-07 10:32:50,980220
0,0,0,-2,3,1,0,0,2021-08-07 10:32:50,980220
1,0,2,5,3,3,2,2,2021-08-07 10:32:50,980220
-1,-2,-2,-3,-6,-2,-3,-2,2021-08-07 10:32:50,980220
-1,-2,-3,4,2,-1,-1,-3,2021-08-07 10:32:50,980220
-1,-2,-1,-5,-3,-2,-4,-1,2021-08-07 10:32:50,980220
2,1,0,-3,-1,0,0,-2,2021-08-07 10:32:50,980220
-1,-3,-3,1,-4,-1,0,-1,2021-08-07 10:32:50,981220
1,2,3,6,13,4,0,2,2021-08-07 10:32:50,981220
0,-1,-1,-3,6,3,0,2,2021-08-07 10:32:50,981220
-3,-1,-2,0,-2,-2,-1,-3,2021-08-07 10:32:51,012219
0,-1,0,-6,-5,-2,0,-1,2021-08-07 10:32:51,028220
-3,-5,-4,-5,-11,-5,-2,-3,2021-08-07 10:32:51,044220
-2,-2,-2,0,-3,-3,-1,-1,2021-08-07 10:32:51,044220
-1,-2,-4,-2,-1,1,0,0,2021-08-07 10:32:51,044464
1,1,0,-3,0,1,-1,0,2021-08-07 10:32:51,044464
-1,0,0,0,0,-1,-1,-2,2021-08-07 10:32:51,044464
-1,-1,2,3,3,1,0,-2,2021-08-07 10:32:51,044464
-2,-2,0,0,-2,-1,-1,-2,2021-08-07 10:32:51,044464
-3,-4,-4,-3,-7,-4,-3,-2,2021-08-07 10:32:51,044464
0,-1,-1,-2,4,0,-1,0,2021-08-07 10:32:51,045220
2,2,2,3,1,1,1,0,2021-08-07 10:32:51,045220
-1,-1,1,1,-2,-3,-2,1,2021-08-07 10:32:51,059729
-1,-1,-3,-6,2,0,-2,0,2021-08-07 10:32:51,075729
0,0,-1,-3,-5,0,0,0,2021-08-07 10:32:51,078729
-1,1,2,4,6,1,1,-1,2021-08-07 10:32:51,079730
2,2,2,9,4,3,1,1,2021-08-07 10:32:51,079730
-3,-3,-2,1,-6,-3,-1,-3,2021-08-07 10:32:51,079730
-4,-5,-4,-5,-4,-3,-3,-3,2021-08-07 10:32:51,107729
-1,-1,0,0,-3,0,-1,0,2021-08-07 10:32:51,123728
-3,-3,-4,-7,-4,-2,-3,-1,2021-08-07 10:32:51,123728
2,3,2,2,3,0,2,2,2021-08-07 10:32:51,123728
0,-2,-1,-3,-5,-3,-1,-2,2021-08-07 10:32:51,123728
-1,-3,-2,0,-2,-3,-2,-2,2021-08-07 10:32:51,123728
-1,0,-1,0,3,0,1,-1,2021-08-07 10:32:51,123728
0,-1,-2,0,1,1,0,-1,2021-08-07 10:32:51,123728
-1,-1,-2,-2,-3,-1,-3,-1,2021-08-07 10:32:51,123728
0,-2,-2,-2,-3,-2,-1,-2,2021-08-07 10:32:51,123728
0,1,1,0,-1,-1,2,0,2021-08-07 10:32:51,155729
2,2,1,-1,4,3,2,1,2021-08-07 10:32:51,171729
-7,-5,-6,-8,-13,-8,-4,-4,2021-08-07 10:32:51,171729
-5,-6,-7,-10,2,0,-1,-2,2021-08-07 10:32:51,171729
5,7,8,17,15,8,5,2,2021-08-07 10:32:51,171729
1,3,3,4,-4,-3,-1,-1,2021-08-07 10:32:51,171729
-3,-2,-4,-3,-3,-2,-2,-2,2021-08-07 10:32:51,171729
-3,-3,-6,-9,-8,-4,-4,-4,2021-08-07 10:32:51,171729
-2,-1,-2,-7,-4,-3,-3,-1,2021-08-07 10:32:51,187728
-1,-1,0,2,4,-1,0,-1,2021-08-07 10:32:51,203729
-1,0,-4,-1,-7,-3,-2,0,2021-08-07 10:32:51,219729
-2,0,-1,5,-2,-1,-1,-1,2021-08-07 10:32:51,219729
-2,-2,-3,-4,0,-1,-1,0,2021-08-07 10:32:51,234752
3,1,4,4,-1,1,2,-1,2021-08-07 10:32:51,234752
0,-2,1,-2,3,0,0,-2,2021-08-07 10:32:51,234752
0,0,0,2,0,0,1,0,2021-08-07 10:32:51,234752
-1,-2,0,-4,0,1,0,-1,2021-08-07 10:32:51,234752
-2,-2,-2,-3,-1,-1,-1,-2,2021-08-07 10:32:51,234752
-2,0,-3,-4,0,-1,0,0,2021-08-07 10:32:51,234752
0,0,-2,1,-2,-2,-2,0,2021-08-07 10:32:51,234752
-1,-2,-2,-3,-7,-3,-1,-3,2021-08-07 10:32:51,234752
-1,-3,-3,-8,-1,-1,-1,-1,2021-08-07 10:32:51,234752
1,1,4,1,1,-1,-1,1,2021-08-07 10:32:51,250750
1,0,2,5,2,1,0,-1,2021-08-07 10:32:51,250750
0,-1,-1,1,3,0,0,1,2021-08-07 10:32:51,266751
-4,-3,-4,-4,-3,-3,-1,-3,2021-08-07 10:32:51,266751
3,2,1,0,1,1,0,-1,2021-08-07 10:32:51,266751
-4,-4,-4,-9,-5,-2,-1,-1,2021-08-07 10:32:51,266751
-2,-2,-3,-9,-14,-6,-3,-3,2021-08-07 10:32:51,297752
3,4,7,20,21,9,3,1,2021-08-07 10:32:51,313751
2,-2,0,3,1,1,0,0,2021-08-07 10:32:51,313751
-3,-1,0,0,1,-1,-1,-1,2021-08-07 10:32:51,313751
-1,-1,0,2,1,0,-2,-1,2021-08-07 10:32:51,313751
-2,-3,-5,-11,-11,-6,-4,-1,2021-08-07 10:32:51,313751
-2,0,1,4,3,0,0,-1,2021-08-07 10:32:51,313751
0,-1,-1,-2,-1,-1,-1,0,2021-08-07 10:32:51,313751
-2,0,-2,-6,-5,-4,-2,0,2021-08-07 10:32:51,328751
-3,0,-1,-2,-2,-1,-1,-1,2021-08-07 10:32:51,344751
1,1,1,1,3,2,0,1,2021-08-07 10:32:51,344751
2,2,0,-1,-4,0,-1,0,2021-08-07 10:32:51,344751
0,-2,0,0,-3,-3,0,-1,2021-08-07 10:32:51,344751
-2,-2,-4,-6,-6,-2,-1,-3,2021-08-07 10:32:51,344751
1,-1,3,5,4,1,0,1,2021-08-07 10:32:51,344751
0,0,-1,-1,0,-1,-1,0,2021-08-07 10:32:51,344751
-1,-1,-1,1,5,1,0,0,2021-08-07 10:32:51,365751
-1,-2,-3,-7,-8,-4,-4,0,2021-08-07 10:32:51,365751
1,2,4,10,9,5,2,1,2021-08-07 10:32:51,365751
-2,-4,-3,-5,-7,-5,-3,-3,2021-08-07 10:32:51,365751
-1,0,-1,-1,-3,1,-1,0,2021-08-07 10:32:51,392752
1,-1,0,5,7,3,1,1,2021-08-07 10:32:51,408750
-3,-2,-4,-2,-7,-4,-4,-3,2021-08-07 10:32:51,424750
0,0,1,1,0,-2,-1,0,2021-08-07 10:32:51,424750
-1,-2,-3,-5,-3,-2,-2,-2,2021-08-07 10:32:51,424750
0,-2,0,1,1,1,-1,-2,2021-08-07 10:32:51,424750
0,-1,-1,-2,-1,0,-1,-1,2021-08-07 10:32:51,424750
1,-1,1,0,0,0,-1,-1,2021-08-07 10:32:51,424750
0,-3,-2,-3,-4,-2,0,-2,2021-08-07 10:32:51,424750
1,0,0,0,1,0,0,-1,2021-08-07 10:32:51,424750
0,0,-1,-3,0,-1,0,-1,2021-08-07 10:32:51,424750
0,-1,0,2,1,-1,-1,-1,2021-08-07 10:32:51,424750
-2,-1,-3,-3,1,0,-1,-1,2021-08-07 10:32:51,439751
1,-1,-1,-1,1,-2,-1,1,2021-08-07 10:32:51,439961
1,1,1,0,-3,0,-2,-1,2021-08-07 10:32:51,439961
-1,-2,0,0,-1,-1,0,-1,2021-08-07 10:32:51,439961
-1,-4,-2,-3,2,1,0,1,2021-08-07 10:32:51,471750
1,2,1,3,2,0,-1,0,2021-08-07 10:32:51,471750
-3,-2,-2,-5,-5,-3,-2,-1,2021-08-07 10:32:51,471750
0,-2,0,0,0,0,0,0,2021-08-07 10:32:51,471750
-1,-1,-2,-2,-2,-2,-2,-2,2021-08-07 10:32:51,487751
-4,-3,-4,-5,-7,-5,-3,-2,2021-08-07 10:32:51,487751
-1,-3,-6,-8,-6,-4,-3,-2,2021-08-07 10:32:51,502750
1,1,2,3,6,3,1,0,2021-08-07 10:32:51,502750
-2,0,2,10,8,3,1,-1,2021-08-07 10:32:51,518752
-1,-1,0,0,-1,-1,-1,-1,2021-08-07 10:32:51,534752
2,1,2,3,3,0,2,-1,2021-08-07 10:32:51,534752
-1,-3,-2,-6,-5,-2,-1,1,2021-08-07 10:32:51,534752
-5,-6,-8,-14,-11,-8,-4,-4,2021-08-07 10:32:51,534752
-2,-1,0,2,3,3,-1,0,2021-08-07 10:32:51,534752
1,2,1,3,2,3,0,0,2021-08-07 10:32:51,534752
2,6,8,13,14,7,4,2,2021-08-07 10:32:51,534752
-4,-6,-9,-15,-12,-7,-2,0,2021-08-07 10:32:51,550750
-5,-8,-12,-23,-24,-16,-7,-4,2021-08-07 10:32:51,550750
-2,-1,1,1,1,0,-2,1,2021-08-07 10:32:51,550750
2,7,9,19,19,10,1,0,2021-08-07 10:32:51,550750
5,3,7,14,15,14,5,3,2021-08-07 10:32:51,566750
-5,-7,-10,-15,-17,-10,-6,-3,2021-08-07 10:32:51,566750
-1,-2,-3,-8,-8,-5,-2,-2,2021-08-07 10:32:51,566750
0,2,2,1,-1,-3,-2,-2,2021-08-07 10:32:51,566750
-2,-1,-1,3,1,-1,0,-2,2021-08-07 10:32:51,597751
2,2,7,10,15,9,3,0,2021-08-07 10:32:51,613752
-1,-3,-2,-1,-4,0,-1,0,2021-08-07 10:32:51,613752
-3,-4,-6,-6,-8,-3,-2,-1,2021-08-07 10:32:51,613752
0,2,3,1,0,-2,-2,-2,2021-08-07 10:32:51,613752
1,2,3,9,8,6,3,1,2021-08-07 10:32:51,613752
-1,-2,-2,-5,-8,-9,-4,-2,2021-08-07 10:32:51,613752
-4,-4,-5,-11,-17,-11,-5,-4,2021-08-07 10:32:51,613752
-1,-1,-2,-4,-5,-3,-3,0,2021-08-07 10:32:51,629751
2,3,4,11,13,7,4,1,2021-08-07 10:32:51,629751
-1,0,-1,3,1,3,1,0,2021-08-07 10:32:51,629751
-1,-4,-3,0,8,4,0,0,2021-08-07 10:32:51,629751
-2,1,-1,-9,-8,-3,-2,-1,2021-08-07 10:32:51,644751
4,4,8,9,6,2,1,-1,2021-08-07 10:32:51,644751
-3,-3,-4,-1,1,-1,0,-1,2021-08-07 10:32:51,644751
-2,-3,-5,-6,-11,-4,-2,-1,2021-08-07 10:32:51,644751
1,0,-1,1,2,1,0,0,2021-08-07 10:32:51,676751
-3,-3,-3,-4,-3,-1,1,0,2021-08-07 10:32:51,676751
-2,-4,-3,0,3,1,-1,-1,2021-08-07 10:32:51,676751
-5,-4,-3,-3,-6,-5,-3,-3,2021-08-07 10:32:51,676751
-3,-2,-1,-3,-2,-3,-2,-4,2021-08-07 10:32:51,691751
0,1,1,1,-3,-3,-3,-1,2021-08-07 10:32:51,707750
5,4,4,5,6,4,2,3,2021-08-07 10:32:51,723750
-1,1,-2,-2,-1,0,0,-1,2021-08-07 10:32:51,723750
1,-2,-1,-5,-2,-1,1,0,2021-08-07 10:32:51,723750
-2,-2,0,5,0,-3,0,0,2021-08-07 10:32:51,723750
-2,-1,-3,-5,-4,-1,-1,-2,2021-08-07 10:32:51,723750
0,-1,-1,2,0,0,-1,0,2021-08-07 10:32:51,723750
-1,-2,-3,-3,-3,-3,-2,0,2021-08-07 10:32:51,723750
-3,0,-1,-1,-8,-3,-1,-1,2021-08-07 10:32:51,724752
-1,-1,2,4,5,3,1,-2,2021-08-07 10:32:51,724752
-4,-5,-6,-7,-5,-3,-4,-4,2021-08-07 10:32:51,724752
5,4,4,4,1,2,1,2,2021-08-07 10:32:51,739750
7,9,6,5,6,5,5,3,2021-08-07 10:32:51,739750
-2,-3,-3,-5,-9,-5,-2,-2,2021-08-07 10:32:51,739750
-8,-11,-9,-6,-7,-4,-4,-6,2021-08-07 10:32:51,739750
-9,-8,-7,-3,-3,-6,-7,-5,2021-08-07 10:32:51,771750
5,6,2,0,4,2,1,3,2021-08-07 10:32:51,787750
0,0,0,-2,3,0,2,0,2021-08-07 10:32:51,787750
1,1,1,2,2,1,0,-1,2021-08-07 10:32:51,787750
-3,-3,-3,-2,-4,-2,-3,-1,2021-08-07 10:32:51,803751
-4,-3,-7,-9,-5,-4,-6,-3,2021-08-07 10:32:51,819751
-2,-1,1,9,5,0,1,0,2021-08-07 10:32:51,835750
2,3,0,2,7,3,2,1,2021-08-07 10:32:51,851752
3,5,4,3,2,0,1,2,2021-08-07 10:32:51,851752
-3,-5,-4,-6,-5,-5,-1,-3,2021-08-07 10:32:51,851752
-2,-2,-3,-6,-6,-1,-2,-1,2021-08-07 10:32:51,851752
0,1,0,1,-3,-1,-1,1,2021-08-07 10:32:51,851752
0,0,0,0,-4,-1,-1,-1,2021-08-07 10:32:51,851752
-2,-2,-2,-1,7,3,-2,0,2021-08-07 10:32:51,851752
-1,-1,-1,-2,-2,-1,-1,0,2021-08-07 10:32:51,851752
1,0,-1,-8,-5,-1,0,-1,2021-08-07 10:32:51,851752
-2,0,-3,0,-5,-3,-3,-2,2021-08-07 10:32:51,851752
2,-3,1,1,-1,-1,1,-1,2021-08-07 10:32:51,852751
-1,0,0,6,4,1,-1,-1,2021-08-07 10:32:51,852751
2,3,1,2,4,0,1,1,2021-08-07 10:32:51,852751
-3,-4,-3,0,1,-1,-3,-4,2021-08-07 10:32:51,867751
0,3,2,5,-4,-1,1,0,2021-08-07 10:32:51,883766
2,-1,-1,-2,1,2,-1,-1,2021-08-07 10:32:51,883766
1,1,1,-1,0,-1,2,0,2021-08-07 10:32:51,883766
-4,-3,-2,4,0,0,-1,-2,2021-08-07 10:32:51,883766
-3,-3,-1,-1,1,-1,-2,-1,2021-08-07 10:32:51,883766
1,1,3,4,5,1,2,0,2021-08-07 10:32:51,883766
2,2,0,0,-3,-1,0,1,2021-08-07 10:32:51,883766
1,0,-4,-10,-9,-3,0,0,2021-08-07 10:32:51,915767
-2,-1,2,11,6,3,-1,-2,2021-08-07 10:32:51,930767
-3,-3,-3,0,-1,-3,-1,-2,2021-08-07 10:32:51,931768
0,-4,-2,-5,-3,-2,-2,-1,2021-08-07 10:32:51,931768
-1,-1,0,2,-1,-2,-1,-2,2021-08-07 10:32:51,931768
-1,-3,-4,-10,-9,-3,-3,-2,2021-08-07 10:32:51,931768
1,2,2,5,4,4,-1,-1,2021-08-07 10:32:51,931768
-3,-3,-2,-4,-6,-2,-3,-2,2021-08-07 10:32:51,931768
1,2,3,7,4,4,0,1,2021-08-07 10:32:51,945768
-1,-1,-1,2,1,-3,0,-1,2021-08-07 10:32:51,945768
0,2,-3,-11,-6,-5,0,-1,2021-08-07 10:32:51,945768
0,0,0,0,-4,-2,0,0,2021-08-07 10:32:51,945768
-1,0,1,1,4,2,1,0,2021-08-07 10:32:51,976767
-1,-4,-4,-4,2,-1,-1,-3,2021-08-07 10:32:51,976767
-2,-2,-3,-7,-7,-3,-2,-2,2021-08-07 10:32:51,976767
-3,-3,-4,-2,-3,-2,-2,-1,2021-08-07 10:32:51,976767
0,1,-1,-8,-6,-5,-3,-1,2021-08-07 10:32:51,992768
1,3,3,11,10,6,-1,0,2021-08-07 10:32:52,008767
1,-1,-1,-2,-4,-2,-1,-1,2021-08-07 10:32:52,024768
0,-1,0,-1,-2,-1,1,-1,2021-08-07 10:32:52,024768
1,-1,2,9,8,1,1,-1,2021-08-07 10:32:52,024768
-2,-4,-6,-15,-13,-6,-3,-2,2021-08-07 10:32:52,039768
-2,-2,-2,-5,-5,-2,-2,0,2021-08-07 10:32:52,039768
0,1,2,4,6,1,1,-1,2021-08-07 10:32:52,039768
1,1,1,-1,0,0,0,0,2021-08-07 10:32:52,039768
-1,-2,-2,-4,-3,-2,0,-2,2021-08-07 10:32:52,039768
-3,-3,-5,-6,-3,-2,-1,-3,2021-08-07 10:32:52,039768
0,-2,0,6,-3,-1,-1,-1,2021-08-07 10:32:52,039768
0,4,2,3,12,4,2,3,2021-08-07 10:32:52,039768
-1,0,3,8,4,2,0,0,2021-08-07 10:32:52,039768
-1,0,-2,-7,-4,-1,-1,-1,2021-08-07 10:32:52,055768
-1,-1,-3,-3,-2,0,-2,-1,2021-08-07 10:32:52,071768
0,-2,0,-1,-4,0,-1,-3,2021-08-07 10:32:52,088003
-4,-3,-5,-5,-5,-2,-2,-1,2021-08-07 10:32:52,088003
0,-1,0,0,-1,-1,-3,-1,2021-08-07 10:32:52,088003
0,1,-2,-5,-6,-2,-1,0,2021-08-07 10:32:52,088003
1,0,0,1,1,1,1,1,2021-08-07 10:32:52,088003
-2,-3,-3,-9,-3,-1,2,0,2021-08-07 10:32:52,088003
-2,-3,-3,7,3,-1,0,0,2021-08-07 10:32:52,088003
1,1,2,0,3,0,-2,1,2021-08-07 10:32:52,088003
-1,-2,-3,0,-2,-1,-1,-1,2021-08-07 10:32:52,103280
-3,-2,-2,-6,-4,-2,-3,-2,2021-08-07 10:32:52,103280
2,3,1,-2,-2,-1,0,1,2021-08-07 10:32:52,119280
0,-2,0,0,2,1,1,-1,2021-08-07 10:32:52,119280
0,1,-1,-3,-3,-2,-1,-2,2021-08-07 10:32:52,119280
-1,-2,-5,-1,-2,0,0,-1,2021-08-07 10:32:52,119280
0,0,2,7,6,5,1,0,2021-08-07 10:32:52,119280
0,-2,1,2,1,-1,1,1,2021-08-07 10:32:52,119280
-2,-3,-1,-1,3,-1,-2,-1,2021-08-07 10:32:52,151279
-3,-3,-4,-7,-8,-5,-2,-4,2021-08-07 10:32:52,151279
-2,-1,-1,-1,-1,-2,-2,-1,2021-08-07 10:32:52,151279
-1,1,-3,-2,-1,-1,-1,-3,2021-08-07 10:32:52,151279
3,2,4,7,6,4,3,2,2021-08-07 10:32:52,166279
-2,-1,-1,-3,-5,-3,-2,-3,2021-08-07 10:32:52,182279
-3,-3,-4,-7,-5,-2,-2,-1,2021-08-07 10:32:52,182279
0,1,4,3,-1,-2,0,0,2021-08-07 10:32:52,182279
-2,-1,1,7,10,2,0,0,2021-08-07 10:32:52,182279
0,-1,-1,-3,-2,-2,-1,0,2021-08-07 10:32:52,182279
-3,-5,-9,-16,-14,-7,-2,-2,2021-08-07 10:32:52,182279
-3,-2,-2,-2,-3,-3,-1,-1,2021-08-07 10:32:52,182279
3,1,1,6,7,5,0,0,2021-08-07 10:32:52,213280
2,5,4,9,6,2,0,1,2021-08-07 10:32:52,216280
-1,0,0,1,-3,-1,1,-3,2021-08-07 10:32:52,216280
-1,-1,-5,-6,-5,-2,-2,-4,2021-08-07 10:32:52,216280
-2,-1,-3,-9,-9,-3,-3,-3,2021-08-07 10:32:52,216280
-2,0,-1,-2,0,-1,-2,-1,2021-08-07 10:32:52,216280
0,0,3,7,8,2,0,-1,2021-08-07 10:32:52,229280
-2,-3,-2,-6,-8,-2,-1,-2,2021-08-07 10:32:52,229280
-2,-3,-3,-3,-3,-2,-1,-1,2021-08-07 10:32:52,245279
1,1,-1,0,-2,-1,1,0,2021-08-07 10:32:52,261278
-3,-2,-2,-10,-8,-4,-3,-3,2021-08-07 10:32:52,261278
1,3,2,6,7,3,1,0,2021-08-07 10:32:52,261278
-4,-3,-4,-8,-8,-6,0,-1,2021-08-07 10:32:52,261278
-1,-2,0,1,6,3,-2,-1,2021-08-07 10:32:52,261278
0,1,0,1,1,1,1,1,2021-08-07 10:32:52,277279
1,0,-2,-5,-4,-2,-2,-1,2021-08-07 10:32:52,293282
-2,-2,-4,-3,-2,-3,-3,-3,2021-08-07 10:32:52,324280
-1,0,-1,-3,-4,-3,-1,0,2021-08-07 10:32:52,340278
0,-4,0,4,6,2,0,0,2021-08-07 10:32:52,356279
-2,-2,-3,-7,-5,-3,-1,0,2021-08-07 10:32:52,371280
3,5,4,2,-1,2,2,1,2021-08-07 10:32:52,387279
-2,-4,-3,-6,-6,-4,-2,-3,2021-08-07 10:32:52,387279
-2,0,-4,-8,-6,-4,-2,-3,2021-08-07 10:32:52,387279
1,1,8,21,22,9,3,2,2021-08-07 10:32:52,387279
-4,-5,-8,-12,-8,-4,-3,-4,2021-08-07 10:32:52,387279
0,2,7,16,7,2,2,0,2021-08-07 10:32:52,387279
-3,-2,-2,-5,-4,-1,-1,-1,2021-08-07 10:32:52,387279
-2,-4,-4,-1,-2,-1,-2,-1,2021-08-07 10:32:52,387279
-3,-1,-2,-4,-9,-5,-2,-2,2021-08-07 10:32:52,387279
-2,-2,-3,-8,-3,-3,-3,-3,2021-08-07 10:32:52,387279
4,3,4,7,8,4,2,2,2021-08-07 10:32:52,387279
1,3,1,-1,-2,0,0,0,2021-08-07 10:32:52,387279
-1,-3,1,7,12,4,0,-2,2021-08-07 10:32:52,388281
-1,0,-4,-8,-9,-3,0,1,2021-08-07 10:32:52,388281
1,1,1,6,3,1,-1,0,2021-08-07 10:32:52,388281
-2,-1,-1,-7,0,0,0,-1,2021-08-07 10:32:52,388281
0,-2,-6,-8,-12,-5,-3,-1,2021-08-07 10:32:52,388281
-1,-1,-1,3,5,3,-1,1,2021-08-07 10:32:52,388281
-1,0,-3,2,2,2,-2,-1,2021-08-07 10:32:52,388281
1,0,0,-2,-4,-2,-1,1,2021-08-07 10:32:52,388281
0,2,1,5,2,-1,-1,-1,2021-08-07 10:32:52,419280
-1,-1,-2,2,4,1,2,-1,2021-08-07 10:32:52,419280
2,1,1,1,0,0,-1,-1,2021-08-07 10:32:52,419280
-3,-3,-4,-7,-7,-5,-4,-3,2021-08-07 10:32:52,419280
-1,0,1,-1,1,1,-1,0,2021-08-07 10:32:52,419280
-1,-2,-2,-5,-5,-3,0,-1,2021-08-07 10:32:52,419280
-3,-3,-2,-3,-2,-2,0,-2,2021-08-07 10:32:52,419280
0,-1,-3,1,4,1,2,0,2021-08-07 10:32:52,419280
3,2,3,5,2,0,0,1,2021-08-07 10:32:52,451278
0,0,0,-5,-8,-3,-1,-2,2021-08-07 10:32:52,451278
0,1,-2,-6,-1,0,0,0,2021-08-07 10:32:52,451278
1,0,1,10,7,3,2,1,2021-08-07 10:32:52,451278
-1,-2,-2,0,2,2,3,3,2021-08-07 10:32:52,483279
0,-3,-3,-1,4,4,1,0,2021-08-07 10:32:52,483279
-1,-1,4,8,2,-2,-2,-1,2021-08-07 10:32:52,483279
-4,-1,-3,-7,-8,-7,-7,-5,2021-08-07 10:32:52,483279
-3,-1,-1,-4,0,-2,-4,-4,2021-08-07 10:32:52,483279
-2,-1,-1,-2,-4,-3,-2,-2,2021-08-07 10:32:52,483279
-1,-1,-2,-3,-4,-3,-1,0,2021-08-07 10:32:52,483279
0,-1,-4,-7,-3,0,0,0,2021-08-07 10:32:52,483279
-1,-2,-1,2,-4,-2,-1,-1,2021-08-07 10:32:52,515279
2,2,0,-3,-2,-2,1,1,2021-08-07 10:32:52,531279
1,1,1,3,2,1,1,-1,2021-08-07 10:32:52,531279
-4,-1,-2,-2,-2,-2,0,-2,2021-08-07 10:32:52,531279
-3,-1,-3,-14,-12,-4,-4,-1,2021-08-07 10:32:52,531279
2,2,6,17,23,8,2,2,2021-08-07 10:32:52,531279
-2,0,0,2,-1,-2,-1,-1,2021-08-07 10:32:52,546279
-2,-3,-2,-5,-6,-2,-1,-2,2021-08-07 10:32:52,561278
-2,-3,-2,0,2,2,-1,-1,2021-08-07 10:32:52,561278
0,2,0,-1,-1,-1,-1,-2,2021-08-07 10:32:52,561278
-4,-4,-3,-6,-5,-3,-3,-1,2021-08-07 10:32:52,561278
-1,-5,-7,-13,-13,-8,-6,-3,2021-08-07 10:32:52,561278
2,2,5,12,16,8,3,1,2021-08-07 10:32:52,577279
0,-1,-2,-7,-8,-4,-2,1,2021-08-07 10:32:52,593280
1,0,1,5,7,2,0,1,2021-08-07 10:32:52,609279
0,0,0,-1,-4,-2,0,1,2021-08-07 10:32:52,625280
-1,0,-3,-2,-13,-6,-2,-1,2021-08-07 10:32:52,625280
0,-1,-3,-3,7,3,0,0,2021-08-07 10:32:52,625280
-2,-2,-2,0,-2,-2,-1,0,2021-08-07 10:32:52,625280
-1,-2,0,0,3,0,0,-1,2021-08-07 10:32:52,625280
-1,-2,-3,-3,-3,-4,-3,-2,2021-08-07 10:32:52,625280
-2,1,1,-2,-4,-3,-1,-2,2021-08-07 10:32:52,625280
-2,-3,-5,-10,-8,-4,-2,-1,2021-08-07 10:32:52,625280
1,1,4,11,9,4,2,0,2021-08-07 10:32:52,625280
1,2,1,-2,-1,1,0,1,2021-08-07 10:32:52,626280
-3,-4,-4,-5,-11,-6,-4,-2,2021-08-07 10:32:52,626280
-3,-1,-2,-1,0,0,-1,-2,2021-08-07 10:32:52,626280
1,0,0,0,0,1,0,0,2021-08-07 10:32:52,626280
-1,-2,-3,-5,-6,-4,-2,1,2021-08-07 10:32:52,657280
-2,-4,-4,-3,-4,-2,-4,-3,2021-08-07 10:32:52,673279
0,0,5,14,16,6,1,-1,2021-08-07 10:32:52,689279
2,3,4,1,-1,1,2,2,2021-08-07 10:32:52,705279
-1,1,-1,1,0,1,0,-1,2021-08-07 10:32:52,705279
-2,-3,-5,-8,-15,-9,-3,-2,2021-08-07 10:32:52,705279
1,1,1,-2,1,1,1,-2,2021-08-07 10:32:52,705279
-3,-2,-3,0,6,1,-1,-2,2021-08-07 10:32:52,705279
-1,-4,-2,-4,-5,-4,-2,-2,2021-08-07 10:32:52,705279
0,-3,-2,-5,-4,-1,-3,-1,2021-08-07 10:32:52,705279
0,1,0,4,4,0,0,1,2021-08-07 10:32:52,705279
1,-1,0,0,0,0,-2,0,2021-08-07 10:32:52,705279
-1,-1,-1,-4,-4,-5,-1,-3,2021-08-07 10:32:52,705279
-2,-1,-1,1,1,-1,-2,-1,2021-08-07 10:32:52,706281
1,0,-3,-6,-8,-3,1,0,2021-08-07 10:32:52,706281
-2,-1,-1,0,1,-2,-1,-1,2021-08-07 10:32:52,706281
-2,-2,-1,-1,-1,-2,-3,-2,2021-08-07 10:32:52,737280
-1,-1,-1,0,0,0,-1,-1,2021-08-07 10:32:52,753279
2,2,0,0,0,1,1,2,2021-08-07 10:32:52,753279
-1,0,0,0,-2,-1,1,0,2021-08-07 10:32:52,753279
1,-1,-1,-4,-3,-2,1,-1,2021-08-07 10:32:52,753279
-1,-2,1,2,2,-2,-1,-2,2021-08-07 10:32:52,753279
-3,-4,-2,-1,0,0,-3,-3,2021-08-07 10:32:52,753279
3,4,2,8,8,6,0,2,2021-08-07 10:32:52,753279
0,0,0,1,-1,0,-1,0,2021-08-07 10:32:52,775279
1,0,1,-1,-1,-2,0,-1,2021-08-07 10:32:52,775279
-1,0,-3,-7,-9,-4,0,0,2021-08-07 10:32:52,775279
-3,-3,-5,-6,-3,0,-3,-2,2021-08-07 10:32:52,775279
-1,1,3,10,11,5,1,-1,2021-08-07 10:32:52,784280
0,1,1,0,0,1,0,0,2021-08-07 10:32:52,800278
-3,-4,-2,-8,-19,-10,-5,-1,2021-08-07 10:32:52,800278
-3,-4,-4,-6,3,2,0,-2,2021-08-07 10:32:52,800278
-1,0,-2,3,13,4,1,1,2021-08-07 10:32:52,815278
1,2,1,1,3,2,1,2,2021-08-07 10:32:52,815278
-1,-1,0,-4,-3,-2,-1,-1,2021-08-07 10:32:52,815278
1,1,1,-1,-8,-3,-1,-1,2021-08-07 10:32:52,815278
-4,-4,-2,-3,-10,-3,-4,-1,2021-08-07 10:32:52,831278
-4,-4,-4,-2,2,0,-2,-3,2021-08-07 10:32:52,831278
3,6,4,4,4,2,1,3,2021-08-07 10:32:52,847280
-1,0,-1,1,-2,-2,-3,0,2021-08-07 10:32:52,847280
0,-1,-2,-3,1,-1,-1,0,2021-08-07 10:32:52,847280
-1,1,2,5,1,2,1,1,2021-08-07 10:32:52,847280
-2,-2,-3,-2,0,-1,-2,-3,2021-08-07 10:32:52,847280
-4,-2,-3,-4,-7,-5,-3,-2,2021-08-07 10:32:52,847280
0,1,1,-1,3,0,-1,0,2021-08-07 10:32:52,879279
0,-1,-3,-1,-5,-4,-1,-1,2021-08-07 10:32:52,879279
-1,-3,-1,-2,4,2,0,-2,2021-08-07 10:32:52,879279
0,-1,1,4,4,1,1,-1,2021-08-07 10:32:52,879279
-2,-4,-2,3,-1,-1,-1,-2,2021-08-07 10:32:52,894278
2,2,1,-6,-5,-1,-1,1,2021-08-07 10:32:52,894278
1,-1,-2,-4,-3,-3,-2,-1,2021-08-07 10:32:52,894278
-1,-2,-2,1,-2,-1,0,-3,2021-08-07 10:32:52,910279
-1,-2,-5,-8,-3,-3,-2,-1,2021-08-07 10:32:52,910279
-2,-2,-3,-3,-2,-1,-3,-2,2021-08-07 10:32:52,910279
1,2,2,1,1,0,0,0,2021-08-07 10:32:52,910279
0,1,3,1,-2,0,1,1,2021-08-07 10:32:52,910279
-2,-1,-3,-1,-4,-3,-2,-3,2021-08-07 10:32:52,926280
1,1,2,5,3,3,1,1,2021-08-07 10:32:52,942280
-3,-5,-4,-2,-3,-2,-4,-2,2021-08-07 10:32:52,942280
-2,-1,-3,-9,-8,-5,-3,-2,2021-08-07 10:32:52,942280
0,0,3,5,7,1,2,0,2021-08-07 10:32:52,958279
1,-1,-1,1,3,-1,0,-1,2021-08-07 10:32:52,974280
-2,-2,-3,-7,-7,-3,0,-2,2021-08-07 10:32:52,974280
0,1,1,6,1,-1,-2,1,2021-08-07 10:32:52,974280
-1,-2,-4,-7,-8,-1,-1,1,2021-08-07 10:32:52,974280
1,0,3,7,5,2,2,0,2021-08-07 10:32:52,974280
0,0,1,3,2,1,0,-1,2021-08-07 10:32:52,974280
-1,0,-2,-8,-5,-3,-3,-1,2021-08-07 10:32:52,974280
-2,-1,-1,-8,-10,-5,0,-2,2021-08-07 10:32:52,990281
-1,-1,2,11,14,6,2,0,2021-08-07 10:32:53,006279
2,2,4,13,10,3,2,1,2021-08-07 10:32:53,006279
-1,-5,-4,-3,-6,-3,-2,-3,2021-08-07 10:32:53,006279
2,3,2,-1,0,1,0,1,2021-08-07 10:32:53,006279
-5,-2,-5,-7,-10,-6,-2,-2,2021-08-07 10:32:53,006279
-4,-5,-3,-4,-6,-4,-2,-1,2021-08-07 10:32:53,006279
2,0,1,3,3,0,2,0,2021-08-07 10:32:53,022280
1,1,0,5,2,-1,1,-1,2021-08-07 10:32:53,052279
-1,-1,-2,-4,-4,-2,-2,-1,2021-08-07 10:32:53,053280
-2,-3,-1,-2,-3,-1,-1,-3,2021-08-07 10:32:53,053280
-2,-3,-1,3,8,2,0,0,2021-08-07 10:32:53,053280
1,-1,0,0,-1,0,0,0,2021-08-07 10:32:53,053280
-2,-2,-1,-7,-6,-4,-3,0,2021-08-07 10:32:53,053280
-2,0,-3,-4,-1,1,-1,-1,2021-08-07 10:32:53,053280
0,0,-1,9,7,2,0,-1,2021-08-07 10:32:53,053280
-1,0,-2,-2,-4,-3,-2,-1,2021-08-07 10:32:53,070279
-1,-1,-2,-2,-3,-1,-1,-1,2021-08-07 10:32:53,086281
-2,-1,0,0,-4,-2,-1,-3,2021-08-07 10:32:53,086281
-3,-3,-6,-9,-9,-4,-1,-1,2021-08-07 10:32:53,086281
1,2,6,12,14,7,2,1,2021-08-07 10:32:53,086281
0,-2,-2,-13,-17,-8,-3,-2,2021-08-07 10:32:53,086281
3,3,5,13,17,6,2,1,2021-08-07 10:32:53,086281
0,1,2,6,2,0,0,-1,2021-08-07 10:32:53,086281
-1,-3,-1,-5,-5,-1,-2,0,2021-08-07 10:32:53,102279
-3,-2,-4,-1,-2,-1,-3,0,2021-08-07 10:32:53,102279
-1,-2,-4,-11,-11,-3,-1,-1,2021-08-07 10:32:53,118279
-1,0,-2,-2,1,-1,-2,-2,2021-08-07 10:32:53,118279
-4,-5,-6,-5,-3,-2,-2,-2,2021-08-07 10:32:53,133279
0,2,1,1,0,-1,1,0,2021-08-07 10:32:53,149280
-2,-3,-6,-16,-7,-4,-2,0,2021-08-07 10:32:53,149280
3,1,4,16,12,3,0,2,2021-08-07 10:32:53,149280
0,2,1,1,0,0,-1,0,2021-08-07 10:32:53,149280
-1,-4,-2,-5,-4,-1,-2,-2,2021-08-07 10:32:53,149280
-1,-1,-1,-5,3,3,1,0,2021-08-07 10:32:53,149280
2,1,2,3,2,1,1,2,2021-08-07 10:32:53,149280
-1,-2,-1,-1,-3,-4,-2,-4,2021-08-07 10:32:53,180280
-1,-3,0,6,7,0,0,-2,2021-08-07 10:32:53,196279
-1,2,-1,0,-7,-3,-3,-1,2021-08-07 10:32:53,196279
-1,-1,-2,-13,-11,-5,0,-1,2021-08-07 10:32:53,196279
-1,0,0,1,1,-1,0,0,2021-08-07 10:32:53,196279
-1,-2,-1,-2,0,-1,-2,-2,2021-08-07 10:32:53,196279
-4,-4,-4,-3,-5,-5,-4,-2,2021-08-07 10:32:53,196279
-3,-2,-4,-12,-10,-4,-1,0,2021-08-07 10:32:53,196279
1,5,4,10,3,3,1,2,2021-08-07 10:32:53,211279
1,2,2,13,17,6,5,1,2021-08-07 10:32:53,227278
1,-2,2,5,3,1,1,1,2021-08-07 10:32:53,227278
0,-1,-2,-8,-8,-3,-2,-1,2021-08-07 10:32:53,243280
-2,-4,-1,-3,-4,-2,-2,-1,2021-08-07 10:32:53,243280
-3,-4,-7,-17,-16,-9,-5,-3,2021-08-07 10:32:53,243280
4,2,8,29,26,13,6,2,2021-08-07 10:32:53,243646
1,1,3,6,-1,1,1,0,2021-08-07 10:32:53,243646
-2,-4,-3,-12,-11,-6,-3,-2,2021-08-07 10:32:53,259299
0,1,1,10,10,4,2,0,2021-08-07 10:32:53,275298
3,3,3,-1,-2,-2,-1,0,2021-08-07 10:32:53,306299
-1,-1,-2,-3,-2,-3,-2,-1,2021-08-07 10:32:53,306299
0,0,0,1,-2,-1,0,1,2021-08-07 10:32:53,306299
-3,-3,-3,-6,-6,-1,-1,-1,2021-08-07 10:32:53,306299
-4,-3,-6,-11,-9,-5,-2,-1,2021-08-07 10:32:53,306299
0,-3,-2,-2,2,2,1,0,2021-08-07 10:32:53,306299
-1,-2,1,2,-4,-3,-1,-2,2021-08-07 10:32:53,306299
-2,1,2,9,17,6,-1,-1,2021-08-07 10:32:53,306299
-3,1,1,-2,-2,-2,-2,-1,2021-08-07 10:32:53,306299
-3,-1,-2,-4,-4,-5,-4,-4,2021-08-07 10:32:53,306299
1,-1,-1,0,4,3,-1,1,2021-08-07 10:32:53,306299
4,5,5,5,2,2,2,4,2021-08-07 10:32:53,306299
-1,-1,-1,-1,-10,-4,-2,-3,2021-08-07 10:32:53,307299
-1,-1,0,-1,6,2,1,1,2021-08-07 10:32:53,307299
-2,-3,-4,-3,-2,-2,-2,-2,2021-08-07 10:32:53,337299
0,-1,1,2,7,1,0,-1,2021-08-07 10:32:53,337299
-2,-2,-3,-4,-5,-4,-1,-2,2021-08-07 10:32:53,337299
-4,-3,-4,-5,-8,-4,-2,-1,2021-08-07 10:32:53,338300
-1,-1,-3,-5,-6,-3,0,-2,2021-08-07 10:32:53,352298
4,2,4,13,5,1,2,1,2021-08-07 10:32:53,368298
-1,-1,-2,-6,-2,-2,-2,-1,2021-08-07 10:32:53,399298
-2,-3,-4,-7,-8,-5,-3,-3,2021-08-07 10:32:53,415297
-1,2,2,2,1,1,1,1,2021-08-07 10:32:53,415297
-2,-3,-3,-10,-16,-6,-2,-3,2021-08-07 10:32:53,415297
2,3,2,3,10,4,2,2,2021-08-07 10:32:53,415297
0,-3,-3,-1,-3,-1,-2,-3,2021-08-07 10:32:53,415297
-1,2,2,11,14,5,2,-1,2021-08-07 10:32:53,415297
-4,-3,-3,-16,-22,-13,-5,-3,2021-08-07 10:32:53,415297
-1,3,1,-8,-5,0,0,0,2021-08-07 10:32:53,415297
-3,-6,-5,0,-1,-3,-3,-3,2021-08-07 10:32:53,415297
-1,-4,-5,-8,-5,-3,-1,-1,2021-08-07 10:32:53,416298
-3,-1,-1,8,10,4,-1,-1,2021-08-07 10:32:53,431298
-4,-4,-3,3,5,1,0,-2,2021-08-07 10:32:53,447298
-1,1,3,-4,-4,-1,-3,-2,2021-08-07 10:32:53,447298
0,2,0,1,0,0,-1,-1,2021-08-07 10:32:53,447298
0,-1,1,2,0,1,1,0,2021-08-07 10:32:53,447298
-1,1,-1,2,-4,-2,0,0,2021-08-07 10:32:53,447298
0,-1,0,1,2,2,0,0,2021-08-07 10:32:53,447298
-3,-5,-5,-10,-12,-7,-3,-3,2021-08-07 10:32:53,447298
2,2,2,-8,-11,-3,0,0,2021-08-07 10:32:53,448299
0,0,5,14,11,3,1,-2,2021-08-07 10:32:53,463527
2,1,-2,10,13,3,2,0,2021-08-07 10:32:53,463527
-3,-1,-1,0,1,0,-3,-2,2021-08-07 10:32:53,463527
-3,-1,-3,-7,-12,-6,-2,-3,2021-08-07 10:32:53,463527
-3,-4,-5,-8,-3,-1,-2,-3,2021-08-07 10:32:53,478810
-1,0,4,-9,-7,-3,-2,-2,2021-08-07 10:32:53,494809
5,5,13,24,13,6,2,1,2021-08-07 10:32:53,494809
-2,-9,-20,-28,-19,-7,-3,0,2021-08-07 10:32:53,494809
4,-2,-11,15,17,8,3,0,2021-08-07 10:32:53,494809
-8,-7,-8,-13,-13,-7,-6,-4,2021-08-07 10:32:53,494809
-5,-2,0,-11,-7,-4,-5,-4,2021-08-07 10:32:53,526810
1,5,16,16,14,5,2,1,2021-08-07 10:32:53,542810
3,1,2,-5,-4,-2,-1,2,2021-08-07 10:32:53,574810
2,3,-1,5,4,3,2,1,2021-08-07 10:32:53,590810
-2,0,-1,0,-2,-2,-1,-2,2021-08-07 10:32:53,590810
-1,-2,0,-1,-2,-1,-2,-2,2021-08-07 10:32:53,590810
-4,-4,-6,-15,-19,-9,-5,-3,2021-08-07 10:32:53,590810
-1,1,1,8,5,2,-1,-1,2021-08-07 10:32:53,590810
-2,-1,0,-3,-2,0,-1,0,2021-08-07 10:32:53,590810
-2,-3,-5,0,-7,-1,-2,-1,2021-08-07 10:32:53,590810
-1,-3,-1,-10,3,0,-1,-3,2021-08-07 10:32:53,590810
0,-2,5,9,4,-2,-1,-2,2021-08-07 10:32:53,590810
0,-1,-7,-14,-6,0,0,-1,2021-08-07 10:32:53,590810
2,1,3,8,13,4,1,1,2021-08-07 10:32:53,591810
-3,-2,-1,-9,-16,-6,-3,-2,2021-08-07 10:32:53,591810
-1,2,0,-5,-10,-3,-1,1,2021-08-07 10:32:53,591810
0,-3,-5,-4,3,-1,-1,1,2021-08-07 10:32:53,591810
-1,-2,-2,2,3,0,-1,-2,2021-08-07 10:32:53,591810
-1,-3,-3,-5,-3,-3,-1,-1,2021-08-07 10:32:53,591810
-2,-1,-2,-3,-2,-1,-1,-2,2021-08-07 10:32:53,591810
2,3,-2,-4,-7,-1,-2,0,2021-08-07 10:32:53,615810
-1,2,4,7,6,1,0,1,2021-08-07 10:32:53,615810
-2,-3,-1,-3,-10,-5,-3,-1,2021-08-07 10:32:53,615810
-2,-1,0,8,15,8,2,0,2021-08-07 10:32:53,615810
1,-1,2,8,8,1,1,1,2021-08-07 10:32:53,636808
-1,-2,-4,-5,-4,-4,-2,-2,2021-08-07 10:32:53,636808
-1,-1,-7,-11,-9,-5,-3,-1,2021-08-07 10:32:53,652809
0,-1,-2,-8,-6,-5,-1,-1,2021-08-07 10:32:53,652809
-1,1,3,4,2,1,1,0,2021-08-07 10:32:53,652809
1,2,1,8,12,5,2,2,2021-08-07 10:32:53,652809
-4,-3,0,1,-11,-5,-2,-1,2021-08-07 10:32:53,652809
-1,-4,-6,-17,-18,-7,-4,-1,2021-08-07 10:32:53,652809
1,1,3,14,27,11,4,1,2021-08-07 10:32:53,668809
-2,-2,-3,-2,-2,-2,-1,-4,2021-08-07 10:32:53,684812
1,2,1,4,1,1,1,-1,2021-08-07 10:32:53,700810
-1,2,-2,-2,-3,-3,-2,-1,2021-08-07 10:32:53,700810
-2,-6,-5,-13,-15,-8,-5,-4,2021-08-07 10:32:53,700810
2,1,1,-1,-1,2,0,1,2021-08-07 10:32:53,716809
2,-1,0,10,7,2,1,1,2021-08-07 10:32:53,732809
1,0,3,11,12,5,2,0,2021-08-07 10:32:53,732809
-2,-3,-4,-7,-10,-3,-1,-2,2021-08-07 10:32:53,732809
-3,-2,-1,-1,-2,-6,-3,-5,2021-08-07 10:32:53,732809
1,4,3,-1,3,4,1,3,2021-08-07 10:32:53,732809
3,1,4,13,15,5,1,2,2021-08-07 10:32:53,732809
0,-1,1,1,-3,-2,-2,-1,2021-08-07 10:32:53,732809
-2,-2,-1,-5,-3,0,0,-2,2021-08-07 10:32:53,732809
-1,-1,-1,-4,0,-1,-1,-2,2021-08-07 10:32:53,732809
0,-2,-5,-15,-11,-3,-3,-2,2021-08-07 10:32:53,732809
-1,1,5,15,16,6,2,1,2021-08-07 10:32:53,764809
-2,-3,-6,-5,-14,-5,-3,-2,2021-08-07 10:32:53,764809
-1,-2,2,6,12,4,1,-2,2021-08-07 10:32:53,764809
0,-1,-3,-11,-14,-4,-1,-1,2021-08-07 10:32:53,764809
-2,-2,-4,-3,2,-2,-1,0,2021-08-07 10:32:53,764809
0,-1,0,-1,6,2,0,0,2021-08-07 10:32:53,764809
-2,-2,-1,-2,-8,-5,-3,-2,2021-08-07 10:32:53,780810
-1,-1,-1,1,-1,-3,-1,0,2021-08-07 10:32:53,780810
-1,-2,-2,-7,-12,-5,-2,0,2021-08-07 10:32:53,796809
-3,-4,-10,-20,-10,-4,-3,0,2021-08-07 10:32:53,796809
1,0,5,14,19,8,2,1,2021-08-07 10:32:53,796809
-1,0,1,5,2,-1,1,0,2021-08-07 10:32:53,796809
-1,-1,-1,1,-2,-3,-2,-2,2021-08-07 10:32:53,826810
-2,1,-2,-4,-4,-1,-2,0,2021-08-07 10:32:53,842810
-2,-2,-5,-12,-16,-5,-4,-2,2021-08-07 10:32:53,858808
-2,-1,2,6,11,4,0,0,2021-08-07 10:32:53,858808
-1,-2,-6,-13,-10,-6,-3,-4,2021-08-07 10:32:53,858808
-1,0,-1,1,9,3,2,0,2021-08-07 10:32:53,858808
-1,-1,-2,-1,0,-5,0,-1,2021-08-07 10:32:53,858808
-1,-2,0,2,-3,-3,-1,0,2021-08-07 10:32:53,858808
-4,-4,-7,-13,-17,-8,-3,-4,2021-08-07 10:32:53,858808
8,9,15,36,45,20,6,6,2021-08-07 10:32:53,858808
-3,-2,0,0,-5,-2,-1,-2,2021-08-07 10:32:53,858808
2,2,0,0,9,1,2,1,2021-08-07 10:32:53,859811
-3,-2,-5,-7,-10,-6,-5,-2,2021-08-07 10:32:53,874809
-3,-3,-4,-7,-15,-7,-4,-2,2021-08-07 10:32:53,874809
-1,0,-1,-6,-7,-3,-1,-1,2021-08-07 10:32:53,874809
2,-1,-2,-1,6,2,-1,-1,2021-08-07 10:32:53,874809
3,3,5,12,15,5,2,1,2021-08-07 10:32:53,890810
-1,-3,-2,-4,-3,-3,-2,-2,2021-08-07 10:32:53,890810
0,1,3,3,2,1,0,0,2021-08-07 10:32:53,890810
-5,-5,-7,-15,-18,-8,-4,-4,2021-08-07 10:32:53,890810
2,1,2,14,15,8,2,2,2021-08-07 10:32:53,921810
0,2,2,2,-4,-1,2,1,2021-08-07 10:32:53,937809
0,-3,-2,-10,-11,-6,-3,-2,2021-08-07 10:32:53,953810
-1,-2,-5,4,10,4,1,1,2021-08-07 10:32:53,953810
1,2,2,4,0,0,-1,-2,2021-08-07 10:32:53,953810
-3,-4,-5,-8,-15,-10,-3,-3,2021-08-07 10:32:53,953810
1,0,2,-5,1,1,2,0,2021-08-07 10:32:53,953810
1,0,5,18,16,6,2,-1,2021-08-07 10:32:53,953810
-1,-3,-4,-5,-8,-4,-2,-3,2021-08-07 10:32:53,953810
-1,0,1,2,-2,-2,-1,-1,2021-08-07 10:32:53,953810
-3,-2,-7,-5,-3,-2,-3,-2,2021-08-07 10:32:53,953810
-2,-2,0,0,-3,-3,-2,-2,2021-08-07 10:32:53,954810
0,-2,-4,-8,-5,-2,1,-2,2021-08-07 10:32:53,969809
1,0,2,2,-4,-1,-1,-1,2021-08-07 10:32:53,985809
1,-1,1,11,18,9,2,0,2021-08-07 10:32:54,001810
2,3,4,9,8,3,1,0,2021-08-07 10:32:54,001810
1,0,1,-6,-8,-1,0,2,2021-08-07 10:32:54,001810
-1,-1,-4,-4,-8,-4,-2,-1,2021-08-07 10:32:54,001810
-2,-2,-4,-6,-5,-3,-3,-2,2021-08-07 10:32:54,001810
-2,-3,-6,-11,-10,-4,-2,-1,2021-08-07 10:32:54,001810
-1,0,1,4,8,2,1,0,2021-08-07 10:32:54,001810
-3,-3,-4,-9,-8,-4,-2,-1,2021-08-07 10:32:54,001810
1,0,1,0,-4,-1,0,0,2021-08-07 10:32:54,017809
5,4,4,8,17,8,4,2,2021-08-07 10:32:54,017809
-3,-1,0,3,2,-1,-1,-2,2021-08-07 10:32:54,033809
-1,-3,-1,-2,-1,-1,0,-2,2021-08-07 10:32:54,033809
-1,-2,-2,3,-1,-3,-1,-1,2021-08-07 10:32:54,033809
-2,-1,-1,-7,-12,-4,-2,-2,2021-08-07 10:32:54,033809
-1,-2,-2,-2,1,0,0,-2,2021-08-07 10:32:54,065810
-1,0,1,2,0,0,-2,-1,2021-08-07 10:32:54,065810
-4,-2,-7,-20,-32,-14,-5,-4,2021-08-07 10:32:54,065810
-3,-3,3,1,-2,-1,-2,-2,2021-08-07 10:32:54,065810
3,3,2,19,33,15,6,3,2021-08-07 10:32:54,065810
0,-1,-6,-4,-1,-2,-1,-2,2021-08-07 10:32:54,065810
-1,0,-4,-2,-3,-2,-1,-2,2021-08-07 10:32:54,081809
-2,-2,-3,-9,-17,-7,-3,-1,2021-08-07 10:32:54,081809
-5,-6,-5,-18,-23,-12,-7,-5,2021-08-07 10:32:54,097808
-1,-1,1,2,0,2,0,2,2021-08-07 10:32:54,113809
2,2,3,4,18,7,3,2,2021-08-07 10:32:54,128809
-2,-3,0,5,2,0,-2,-2,2021-08-07 10:32:54,128809
-2,-1,0,-2,-7,-1,-2,-2,2021-08-07 10:32:54,128809
0,-1,2,0,1,1,-3,-2,2021-08-07 10:32:54,128809
-2,0,4,7,2,0,-1,-2,2021-08-07 10:32:54,128809
0,1,-3,-5,-15,-5,-2,-1,2021-08-07 10:32:54,128809
1,1,-1,0,14,5,0,2,2021-08-07 10:32:54,128809
2,0,-2,-2,9,3,1,2,2021-08-07 10:32:54,128809
0,0,1,5,5,1,1,2,2021-08-07 10:32:54,144811
1,1,2,0,2,1,0,-1,2021-08-07 10:32:54,160808
-2,-1,0,6,-10,-4,-3,-2,2021-08-07 10:32:54,160808
-1,-2,-1,-5,-5,-3,0,-1,2021-08-07 10:32:54,160808
-1,-4,-5,-5,-2,-1,-2,-2,2021-08-07 10:32:54,160808
0,0,1,3,7,3,2,1,2021-08-07 10:32:54,160808
-3,-4,-5,-15,-19,-8,-4,0,2021-08-07 10:32:54,175810
0,5,2,12,25,12,5,1,2021-08-07 10:32:54,175810
-3,-4,-3,-3,-6,-5,-3,-3,2021-08-07 10:32:54,175810
0,1,-1,4,11,2,0,-1,2021-08-07 10:32:54,175810
0,-2,2,1,1,-2,-2,0,2021-08-07 10:32:54,191810
1,2,2,7,-3,-4,-2,0,2021-08-07 10:32:54,207809
1,1,-2,-4,-6,-2,-1,-1,2021-08-07 10:32:54,223809
-4,-3,-7,-15,-16,-8,-4,0,2021-08-07 10:32:54,223809
1,1,-2,3,5,2,0,1,2021-08-07 10:32:54,223809
-2,-2,-2,-16,-15,-6,-1,0,2021-08-07 10:32:54,223809
2,3,3,14,17,8,2,1,2021-08-07 10:32:54,223809
-1,-2,1,4,2,2,0,-2,2021-08-07 10:32:54,223809
-1,-2,-2,-4,-19,-7,-1,-1,2021-08-07 10:32:54,239810
2,2,1,5,12,7,2,1,2021-08-07 10:32:54,255810
-1,-3,-2,-4,-2,-3,0,-1,2021-08-07 10:32:54,271810
-1,1,3,-1,-4,-3,0,1,2021-08-07 10:32:54,271810
0,0,1,4,11,5,2,-1,2021-08-07 10:32:54,271810
-4,-7,-8,-11,-25,-11,-5,-4,2021-08-07 10:32:54,271810
-7,-8,-7,-17,-19,-11,-6,-5,2021-08-07 10:32:54,271810
2,5,6,20,27,14,5,2,2021-08-07 10:32:54,271810
2,2,5,11,6,3,1,1,2021-08-07 10:32:54,271810
-4,-5,-6,-15,-33,-15,-5,-3,2021-08-07 10:32:54,271810
-1,0,-4,-1,7,5,0,1,2021-08-07 10:32:54,271810
-2,-2,-7,-14,16,3,0,-1,2021-08-07 10:32:54,271810
-1,0,0,3,-6,-6,0,-1,2021-08-07 10:32:54,303808
3,4,13,30,44,18,6,4,2021-08-07 10:32:54,303808
0,-2,1,-7,-27,-10,-4,-2,2021-08-07 10:32:54,303808
1,-4,-4,-14,-26,-8,-4,-3,2021-08-07 10:32:54,303808
-2,-3,-8,-10,6,3,-1,-1,2021-08-07 10:32:54,319810
-3,-1,-1,-6,-3,-4,-4,-2,2021-08-07 10:32:54,335809
-1,-1,-2,-1,4,2,0,0,2021-08-07 10:32:54,335809
3,3,4,10,5,3,1,1,2021-08-07 10:32:54,335809
-2,-1,-2,-4,-1,-3,-2,-2,2021-08-07 10:32:54,335809
-3,-3,-4,-5,-10,-4,-2,-2,2021-08-07 10:32:54,335809
3,5,5,10,18,7,5,1,2021-08-07 10:32:54,335809
-2,-2,-5,-7,-16,-7,-3,-2,2021-08-07 10:32:54,335809
-2,-3,-3,-7,-13,-2,-1,0,2021-08-07 10:32:54,366809
1,0,2,6,12,5,0,0,2021-08-07 10:32:54,366809
0,2,6,8,5,3,0,0,2021-08-07 10:32:54,366809
-6,-4,-6,-6,-9,-8,-4,-4,2021-08-07 10:32:54,366809
-1,-1,-8,-13,-4,-2,-1,-2,2021-08-07 10:32:54,382809
-2,-2,-3,-4,4,1,-2,-1,2021-08-07 10:32:54,398809
1,3,4,7,2,0,0,1,2021-08-07 10:32:54,414809
-3,-2,-2,-5,-17,-7,-3,-1,2021-08-07 10:32:54,414809
1,0,4,0,5,-1,-1,0,2021-08-07 10:32:54,414809
-2,-2,3,2,-2,-3,0,-2,2021-08-07 10:32:54,414809
4,3,0,7,19,7,2,3,2021-08-07 10:32:54,414809
-2,-4,-1,-6,-4,-3,-1,-2,2021-08-07 10:32:54,414809
0,0,0,4,-1,2,0,0,2021-08-07 10:32:54,414809
0,1,-2,-7,-1,-1,1,-1,2021-08-07 10:32:54,414809
-2,-2,3,9,2,1,-1,-3,2021-08-07 10:32:54,415809
1,2,1,2,1,1,-1,1,2021-08-07 10:32:54,415809
0,-1,0,-4,-4,-5,-2,-1,2021-08-07 10:32:54,445808
-1,-2,0,-3,1,1,2,-1,2021-08-07 10:32:54,457810
-3,-1,-2,-2,-4,-2,-2,-1,2021-08-07 10:32:54,458811
1,1,0,1,5,0,0,1,2021-08-07 10:32:54,458811
-2,-2,-7,-7,-8,-4,-4,-4,2021-08-07 10:32:54,458811
-1,-1,-3,-9,-9,-2,-1,0,2021-08-07 10:32:54,458811
-3,-3,-4,-11,-6,-4,-2,-3,2021-08-07 10:32:54,458811
-1,-1,-1,2,-10,-5,-2,-2,2021-08-07 10:32:54,458811
1,4,8,14,24,10,3,2,2021-08-07 10:32:54,476810
1,1,1,5,5,-1,-2,0,2021-08-07 10:32:54,492809
1,-1,-2,-5,-5,-1,1,1,2021-08-07 10:32:54,507809
-2,-2,-3,3,3,-1,-3,-3,2021-08-07 10:32:54,507809
-1,1,-1,-2,-12,-2,-1,-1,2021-08-07 10:32:54,507809
2,1,2,12,8,3,-1,0,2021-08-07 10:32:54,507809
-3,-3,-4,-8,-10,-5,-3,-3,2021-08-07 10:32:54,507809
-3,-5,-8,-23,-15,-8,-5,-1,2021-08-07 10:32:54,507809
-1,-1,-2,3,6,2,0,0,2021-08-07 10:32:54,507809
-3,-2,-2,-5,-14,-6,-2,-1,2021-08-07 10:32:54,507809
3,0,2,11,16,6,3,1,2021-08-07 10:32:54,523809
0,2,2,7,5,5,0,1,2021-08-07 10:32:54,523809
0,-1,3,3,3,-1,-1,0,2021-08-07 10:32:54,539809
-3,1,1,7,1,0,-2,0,2021-08-07 10:32:54,555809
-2,0,0,6,2,2,-1,-1,2021-08-07 10:32:54,555809
2,1,-1,-2,0,-1,2,0,2021-08-07 10:32:54,555809
-3,-2,-2,-10,-8,-3,-2,-1,2021-08-07 10:32:54,555809
-1,-1,-3,-5,-8,-2,-2,-2,2021-08-07 10:32:54,555809
-2,-5,-5,-7,-9,-5,-2,-3,2021-08-07 10:32:54,555809
1,2,0,2,7,3,1,1,2021-08-07 10:32:54,555809
-4,-3,-3,-8,-8,-5,-4,-2,2021-08-07 10:32:54,570809
-1,-3,-3,-6,3,3,-2,-1,2021-08-07 10:32:54,570809
0,1,2,-3,-2,-3,-1,-2,2021-08-07 10:32:54,570809
-2,-2,1,3,0,0,-1,-1,2021-08-07 10:32:54,570809
1,-1,1,4,1,0,2,1,2021-08-07 10:32:54,601810
3,5,5,10,5,3,4,2,2021-08-07 10:32:54,617832
1,2,2,6,8,2,0,1,2021-08-07 10:32:54,633832
-1,-3,-6,-8,-5,-2,-2,-2,2021-08-07 10:32:54,633832
-5,-3,-8,-8,-7,-4,-2,-4,2021-08-07 10:32:54,633832
-5,-7,-7,-17,-28,-12,-6,-3,2021-08-07 10:32:54,633832
3,4,4,19,22,9,4,3,2021-08-07 10:32:54,633832
-1,1,3,-1,2,4,1,2,2021-08-07 10:32:54,649832
3,5,10,33,36,13,3,2,2021-08-07 10:32:54,665832
-1,-2,-5,-9,-11,-7,-2,-2,2021-08-07 10:32:54,681832
-2,-2,-1,-7,-11,-5,-4,-1,2021-08-07 10:32:54,681832
-3,-4,-5,-10,-18,-8,-5,-4,2021-08-07 10:32:54,681832
0,0,0,-5,-5,-1,-1,-1,2021-08-07 10:32:54,681832
-3,0,-2,4,11,3,1,-1,2021-08-07 10:32:54,681832
-3,-4,-11,-17,-18,-7,-5,-4,2021-08-07 10:32:54,681832
-1,-1,4,2,4,1,2,-1,2021-08-07 10:32:54,681832
-1,-1,-2,-11,-9,-5,-1,0,2021-08-07 10:32:54,681832
1,-2,-5,5,5,1,-1,-3,2021-08-07 10:32:54,681832
0,-1,1,6,4,1,1,1,2021-08-07 10:32:54,682833
1,1,3,11,11,5,0,-1,2021-08-07 10:32:54,682833
1,2,4,-3,-6,-3,0,0,2021-08-07 10:32:54,696832
-4,0,-1,-6,-10,-4,-1,-2,2021-08-07 10:32:54,696832
-2,1,-1,-2,5,2,0,0,2021-08-07 10:32:54,696832
-2,-2,-3,-4,-2,-2,-1,-2,2021-08-07 10:32:54,696832
-2,-1,1,1,-2,-2,-2,-1,2021-08-07 10:32:54,712831
2,0,1,2,2,-1,0,2,2021-08-07 10:32:54,728831
-1,0,-3,-8,0,2,1,0,2021-08-07 10:32:54,739832
-3,-2,-2,-3,0,-2,-1,-1,2021-08-07 10:32:54,740833
-3,-3,-6,-7,-3,0,0,-3,2021-08-07 10:32:54,740833
0,1,4,12,10,2,-1,0,2021-08-07 10:32:54,740833
0,0,3,9,-6,-5,-1,-1,2021-08-07 10:32:54,740833
1,-2,-8,-16,-7,-2,-2,-1,2021-08-07 10:32:54,740833
-1,-3,-7,-12,-7,-5,-2,-3,2021-08-07 10:32:54,760830
-3,-3,-2,-5,0,-3,-3,-2,2021-08-07 10:32:54,776832
-3,-3,3,-5,-7,-5,-4,-3,2021-08-07 10:32:54,776832
1,2,3,9,5,4,1,1,2021-08-07 10:32:54,776832
-1,-1,1,9,1,1,1,0,2021-08-07 10:32:54,776832
2,4,3,0,3,3,1,1,2021-08-07 10:32:54,776832
-1,-2,-5,-6,-8,-3,-1,-1,2021-08-07 10:32:54,776832
-3,-3,-4,4,7,1,-2,-1,2021-08-07 10:32:54,776832
-4,-4,-5,-6,-9,-5,-3,-2,2021-08-07 10:32:54,808831
-1,-2,-1,2,-4,-3,-1,-3,2021-08-07 10:32:54,808831
-2,-2,-6,-9,-5,-3,-2,-1,2021-08-07 10:32:54,808831
0,2,6,9,4,0,1,2,2021-08-07 10:32:54,824831
1,0,1,0,4,2,-1,0,2021-08-07 10:32:54,825047
0,-1,1,-7,-8,-1,-1,-1,2021-08-07 10:32:54,825047
-1,-2,-3,0,5,1,-2,-2,2021-08-07 10:32:54,825047
-1,-2,-4,-3,-14,-6,-3,-1,2021-08-07 10:32:54,825047
0,-1,1,-1,-3,1,0,-2,2021-08-07 10:32:54,840343
-1,0,1,8,10,3,1,-1,2021-08-07 10:32:54,840343
0,1,4,3,5,0,-1,0,2021-08-07 10:32:54,840343
0,2,3,6,16,5,2,0,2021-08-07 10:32:54,840343
-2,-1,0,1,-1,-2,-2,-3,2021-08-07 10:32:54,856345
-2,0,-3,-11,-17,-6,-3,-1,2021-08-07 10:32:54,872343
3,1,4,6,10,4,3,1,2021-08-07 10:32:54,888342
-4,-4,-6,-8,-13,-6,-2,-3,2021-08-07 10:32:54,888342
-1,-3,-4,-10,-7,-6,-3,-2,2021-08-07 10:32:54,888342
-3,-6,-10,-6,2,1,-4,-2,2021-08-07 10:32:54,888342
-3,-1,-1,-6,-3,-2,-3,-1,2021-08-07 10:32:54,888342
4,3,2,-2,-11,-4,-1,0,2021-08-07 10:32:54,888342
4,1,3,12,14,8,4,3,2021-08-07 10:32:54,888342
-3,-5,-6,-9,-3,-2,0,-2,2021-08-07 10:32:54,888342
-4,-4,-5,0,-7,-4,0,-1,2021-08-07 10:32:54,888342
0,0,4,5,2,3,2,-2,2021-08-07 10:32:54,888342
-4,0,2,4,4,1,-2,-4,2021-08-07 10:32:54,920343
-4,-1,-4,-4,-2,-2,-2,-2,2021-08-07 10:32:54,936342
-2,0,-2,0,-3,-3,-2,-2,2021-08-07 10:32:54,952343
-2,-1,0,-2,-2,-3,-1,0,2021-08-07 10:32:54,952343
0,2,-1,-2,-9,-3,-3,1,2021-08-07 10:32:54,952343
2,1,1,-1,-6,-3,1,3,2021-08-07 10:32:54,952343
3,1,2,10,15,8,4,2,2021-08-07 10:32:54,952343
3,5,9,26,30,16,6,2,2021-08-07 10:32:54,952343
-2,-3,-4,-4,-10,-5,-2,-1,2021-08-07 10:32:54,968343
-3,-1,-4,-4,-6,-3,-1,-2,2021-08-07 10:32:54,968343
-1,-1,-3,-14,-21,-9,-4,-3,2021-08-07 10:32:54,968343
-1,-1,-1,-1,0,-3,-2,0,2021-08-07 10:32:54,968343
2,2,1,3,-3,0,2,3,2021-08-07 10:32:54,984342
-2,-3,-2,-9,-9,-2,-3,-3,2021-08-07 10:32:55,000342
-3,-5,-9,-16,-3,-3,-1,-2,2021-08-07 10:32:55,000342
-3,-2,-7,-4,6,3,-2,-3,2021-08-07 10:32:55,000342
0,1,4,11,18,6,1,0,2021-08-07 10:32:55,000342
0,0,6,6,1,0,1,0,2021-08-07 10:32:55,000342
1,3,4,12,1,0,1,2,2021-08-07 10:32:55,000342
-1,-1,-1,-9,-14,-5,-2,-1,2021-08-07 10:32:55,000342
-4,-1,-3,-1,-1,-3,-1,-1,2021-08-07 10:32:55,016343
0,-1,-3,0,0,0,-1,-1,2021-08-07 10:32:55,018343
-3,-4,-10,-18,-12,-4,-4,-2,2021-08-07 10:32:55,018343
1,1,-1,6,7,2,1,0,2021-08-07 10:32:55,018343
1,1,0,0,-4,-2,-2,-1,2021-08-07 10:32:55,048343
-1,0,1,0,-8,-3,-3,0,2021-08-07 10:32:55,048343
-2,-1,4,1,-3,1,-3,-1,2021-08-07 10:32:55,048343
9,13,16,26,27,13,8,6,2021-08-07 10:32:55,048343
2,2,1,14,11,6,4,-1,2021-08-07 10:32:55,048343
-5,-10,-18,-28,-10,-6,-5,-2,2021-08-07 10:32:55,048343
-6,-5,-1,-13,-19,-9,-4,-5,2021-08-07 10:32:55,064343
-8,-8,-12,-22,-25,-12,-6,-4,2021-08-07 10:32:55,064343
2,2,3,13,18,7,3,1,2021-08-07 10:32:55,079343
3,6,7,15,6,2,3,3,2021-08-07 10:32:55,079343
1,1,3,7,5,4,-1,0,2021-08-07 10:32:55,079343
-4,-3,-1,-5,-11,-5,-3,-3,2021-08-07 10:32:55,079343
-3,-5,-4,-14,-3,-2,-1,1,2021-08-07 10:32:55,095343
-2,-3,-1,4,7,2,-1,-1,2021-08-07 10:32:55,111342
2,2,3,6,5,4,3,3,2021-08-07 10:32:55,142343
-1,0,0,-1,-1,-2,-2,-3,2021-08-07 10:32:55,142343
-1,-2,-5,-16,-19,-5,-2,0,2021-08-07 10:32:55,142343
2,-1,3,3,9,2,0,-1,2021-08-07 10:32:55,142343
0,1,2,11,11,3,1,-1,2021-08-07 10:32:55,142343
-3,-3,-4,-7,-17,-7,-4,-1,2021-08-07 10:32:55,142343
-3,-3,-3,-1,-5,-4,-3,-2,2021-08-07 10:32:55,142343
0,1,3,1,6,1,2,1,2021-08-07 10:32:55,142343
1,1,-1,-3,-6,-4,0,0,2021-08-07 10:32:55,143344
-2,-4,-7,-6,1,3,-1,-1,2021-08-07 10:32:55,143344
-4,-5,-9,-13,-5,-3,-1,-2,2021-08-07 10:32:55,158342
-3,-1,-2,-1,-7,-2,-3,-2,2021-08-07 10:32:55,174344
0,0,4,5,3,1,-1,-1,2021-08-07 10:32:55,205368
0,1,1,2,2,0,-1,1,2021-08-07 10:32:55,221369
0,0,5,7,0,0,-3,-2,2021-08-07 10:32:55,221369
0,0,0,3,-1,-1,1,-1,2021-08-07 10:32:55,221369
-1,-1,-1,-2,-1,-1,-1,1,2021-08-07 10:32:55,221369
-2,-1,0,-1,-2,-2,0,-1,2021-08-07 10:32:55,221369
-3,0,-6,-12,-11,-5,-3,0,2021-08-07 10:32:55,221369
0,1,3,10,11,4,0,0,2021-08-07 10:32:55,221369
2,-1,0,3,3,1,0,-1,2021-08-07 10:32:55,221369
-2,-1,2,3,1,-3,-2,-3,2021-08-07 10:32:55,222369
-1,-3,-6,-10,-13,-4,-2,-1,2021-08-07 10:32:55,222369
2,4,-1,-8,-3,0,1,0,2021-08-07 10:32:55,222369
-1,0,0,8,8,1,-1,-1,2021-08-07 10:32:55,222369
-1,-2,-4,-5,-3,-1,-1,-1,2021-08-07 10:32:55,222369
-1,-3,0,-4,-5,-3,-2,-1,2021-08-07 10:32:55,236369
-2,-2,-3,-2,2,0,-2,-1,2021-08-07 10:32:55,252369
-1,-1,-1,-1,-4,-1,0,0,2021-08-07 10:32:55,268394
1,-1,0,-2,0,2,1,0,2021-08-07 10:32:55,268394
1,1,2,5,1,-2,1,-2,2021-08-07 10:32:55,268394
0,-3,-3,-10,-13,-6,-2,-1,2021-08-07 10:32:55,268394
-2,-2,-3,-4,1,-3,-1,-2,2021-08-07 10:32:55,268394
2,0,-2,1,12,7,2,3,2021-08-07 10:32:55,268394
0,1,0,0,1,1,1,0,2021-08-07 10:32:55,284368
-4,-4,-6,-9,-20,-9,-3,-2,2021-08-07 10:32:55,298404
-3,-1,0,1,3,1,0,-3,2021-08-07 10:32:55,298404
2,1,4,8,6,-1,0,1,2021-08-07 10:32:55,298404
-4,-5,0,-4,0,-1,-2,-3,2021-08-07 10:32:55,298404
0,2,2,0,2,2,0,0,2021-08-07 10:32:55,298404
