EMG 1,EMG 2,EMG 3,EMG 4,EMG 5,EMG 6,EMG 7,EMG 8,Timestamp
-1,-1,-1,-2,0,-1,-1,-1,2021-08-07 10:17:18.278849
-1,-2,-1,0,0,0,-1,1,2021-08-07 10:17:18.278849
-1,-1,1,-2,-1,-1,0,-1,2021-08-07 10:17:18.279844
-1,0,0,-1,-2,-1,-3,-1,2021-08-07 10:17:18.279844
0,-2,-1,-2,-1,1,-1,-1,2021-08-07 10:17:18.280851
-2,0,0,1,-1,0,-2,-1,2021-08-07 10:17:18.281845
0,-2,-1,-2,0,1,0,-1,2021-08-07 10:17:18.282845
-1,-1,0,-1,-1,0,-1,0,2021-08-07 10:17:18.282845
-1,0,-1,-2,-1,0,-1,-1,2021-08-07 10:17:18.288852
0,1,-1,-1,0,-1,0,-1,2021-08-07 10:17:18.288852
-2,1,-1,1,-1,-1,0,0,2021-08-07 10:17:18.303843
-2,0,1,-1,-1,-1,-1,-2,2021-08-07 10:17:18.304853
-1,0,-2,1,0,-2,-1,0,2021-08-07 10:17:18.309852
0,-1,0,-1,-1,0,-1,-1,2021-08-07 10:17:18.309852
-1,-1,-2,1,0,0,-2,0,2021-08-07 10:17:18.328850
-1,-1,-3,-1,-2,-2,0,0,2021-08-07 10:17:18.328850
-2,-1,0,0,0,0,-2,0,2021-08-07 10:17:18.331853
1,-2,-2,-3,-1,-1,-1,0,2021-08-07 10:17:18.332844
-2,0,0,1,0,-1,-1,-2,2021-08-07 10:17:18.349852
-2,-2,-2,-1,-2,1,-1,-1,2021-08-07 10:17:18.349852
0,-1,-1,0,-2,-2,-1,-1,2021-08-07 10:17:18.349852
-1,-1,-1,1,-1,0,-1,-1,2021-08-07 10:17:18.350852
0,-3,0,-1,0,-2,-1,-2,2021-08-07 10:17:18.396853
-1,0,-2,1,-1,-1,-3,-1,2021-08-07 10:17:18.396853
-1,-1,0,-2,-1,1,-1,-1,2021-08-07 10:17:18.397852
-1,-1,-1,-1,-1,-2,-1,-2,2021-08-07 10:17:18.397852
-1,-2,-1,0,-1,-1,-2,-1,2021-08-07 10:17:18.400851
-1,-2,0,-1,-1,-2,-2,-1,2021-08-07 10:17:18.400851
1,0,-2,-1,0,-2,0,0,2021-08-07 10:17:18.401851
0,-1,-1,-1,1,0,-2,1,2021-08-07 10:17:18.401851
-1,0,-2,-3,-1,0,-3,0,2021-08-07 10:17:18.406848
-1,-2,-1,-1,-2,-1,-1,-2,2021-08-07 10:17:18.407851
-1,-2,0,1,0,-2,-2,-1,2021-08-07 10:17:18.423848
-2,0,1,0,-1,-1,-1,-1,2021-08-07 10:17:18.423848
-2,1,0,-1,-1,-1,0,-1,2021-08-07 10:17:18.424852
0,0,-1,0,0,-1,1,3,2021-08-07 10:17:18.425854
1,1,-3,-3,0,-1,1,1,2021-08-07 10:17:18.437843
2,-2,-5,-2,-2,0,1,0,2021-08-07 10:17:18.437843
-3,-3,-2,-1,0,1,-1,-2,2021-08-07 10:17:18.444851
-4,-3,-2,-1,0,0,-2,-3,2021-08-07 10:17:18.444851
-4,-1,0,1,-1,-1,-1,-2,2021-08-07 10:17:18.468851
-3,-1,1,1,-1,-2,-3,-4,2021-08-07 10:17:18.469854
0,-1,0,0,-2,-2,-2,-1,2021-08-07 10:17:18.470855
0,0,0,-1,-1,-1,-1,1,2021-08-07 10:17:18.470855
0,0,0,-2,-1,0,0,1,2021-08-07 10:17:18.482850
0,0,-1,-3,-1,-1,-1,-1,2021-08-07 10:17:18.482850
-1,0,0,-2,0,1,1,1,2021-08-07 10:17:18.489854
-1,1,-1,0,-1,2,2,-1,2021-08-07 10:17:18.489854
0,-1,-1,-1,-2,-2,-3,-3,2021-08-07 10:17:18.505850
0,-2,0,-1,-3,-2,-3,0,2021-08-07 10:17:18.506843
0,0,-1,1,-2,-4,-1,-1,2021-08-07 10:17:18.507853
1,-1,-1,-1,1,-1,0,0,2021-08-07 10:17:18.507853
-1,0,-1,0,0,1,1,-1,2021-08-07 10:17:18.527855
0,-1,0,-1,0,-1,1,0,2021-08-07 10:17:18.527855
0,-1,-1,-3,-1,-1,-2,-1,2021-08-07 10:17:18.528852
1,-1,-1,1,-1,-3,0,-1,2021-08-07 10:17:18.528852
-1,-2,-1,1,-3,-1,-1,1,2021-08-07 10:17:18.550854
-2,-1,-1,-1,-1,-1,0,-1,2021-08-07 10:17:18.550854
-1,-1,-1,0,1,0,-1,-1,2021-08-07 10:17:18.551852
0,-1,2,-1,-2,0,0,0,2021-08-07 10:17:18.551852
-2,0,0,-2,1,-2,-1,-2,2021-08-07 10:17:18.565850
-2,-2,-2,1,-2,0,-1,0,2021-08-07 10:17:18.565850
0,-1,-1,1,0,-2,-1,-1,2021-08-07 10:17:18.565850
-1,-1,-1,-1,-2,0,-1,-2,2021-08-07 10:17:18.565850
0,-1,-1,1,0,0,-1,0,2021-08-07 10:17:18.587848
0,0,1,-1,-1,-2,1,3,2021-08-07 10:17:18.588854
-3,0,-1,0,0,0,-2,0,2021-08-07 10:17:18.588854
-1,-1,-2,0,1,-1,0,-1,2021-08-07 10:17:18.588854
0,-1,0,1,-1,-3,-1,0,2021-08-07 10:17:18.610851
0,-1,-1,-2,1,-1,0,-2,2021-08-07 10:17:18.610851
-1,-1,-1,-1,-4,0,-1,-2,2021-08-07 10:17:18.611848
-1,-2,0,-1,-1,-1,1,-2,2021-08-07 10:17:18.611848
-1,-2,-1,0,1,1,0,0,2021-08-07 10:17:18.625851
0,0,0,-2,-1,-2,-1,-1,2021-08-07 10:17:18.625851
-1,0,-3,-1,-1,-1,-1,0,2021-08-07 10:17:18.625851
-1,1,-1,-1,0,-2,-2,0,2021-08-07 10:17:18.626853
-1,-1,0,0,0,-1,0,0,2021-08-07 10:17:18.649854
-2,-3,-1,1,-2,-1,-1,-1,2021-08-07 10:17:18.649854
-1,-2,1,-1,0,0,0,-1,2021-08-07 10:17:18.649854
-1,-1,-2,-1,-1,0,-1,-2,2021-08-07 10:17:18.650859
0,-2,-1,-2,-1,-1,-1,-1,2021-08-07 10:17:18.661852
0,-1,-2,-2,0,0,1,-1,2021-08-07 10:17:18.662856
0,-1,-1,-2,-2,-1,1,0,2021-08-07 10:17:18.669846
-1,-3,-2,0,0,-1,-1,-1,2021-08-07 10:17:18.669846
-2,-1,0,-1,-1,-1,-1,-1,2021-08-07 10:17:18.685851
-1,-2,-2,0,0,0,-3,-2,2021-08-07 10:17:18.685851
1,-1,-1,-1,0,-1,0,1,2021-08-07 10:17:18.686855
0,-1,-1,-1,-1,-1,0,-1,2021-08-07 10:17:18.686855
-1,-1,0,-1,-3,0,-1,-1,2021-08-07 10:17:18.707852
-1,0,-2,1,-1,0,-1,-4,2021-08-07 10:17:18.708849
-1,-1,1,-2,-1,-2,-2,-1,2021-08-07 10:17:18.708849
-2,-1,1,-1,0,-1,-2,-1,2021-08-07 10:17:18.708849
-1,-2,-1,-1,-1,0,-1,-1,2021-08-07 10:17:18.722852
-1,0,-1,0,0,-2,-1,-3,2021-08-07 10:17:18.722852
0,-1,-1,-2,-1,-2,1,-1,2021-08-07 10:17:18.729852
0,0,-1,-2,-1,-1,0,-1,2021-08-07 10:17:18.729852
0,1,-1,-1,-1,0,-1,1,2021-08-07 10:17:18.746848
-2,0,-2,-1,-1,-3,-2,-1,2021-08-07 10:17:18.746848
-1,0,0,1,0,-1,-1,-3,2021-08-07 10:17:18.747851
-1,0,-1,-1,-1,-1,-1,-1,2021-08-07 10:17:18.747851
-1,1,-2,-2,-1,0,0,-1,2021-08-07 10:17:18.767852
0,-1,0,-1,-2,0,-1,-1,2021-08-07 10:17:18.768854
0,0,-1,1,0,-1,-1,-2,2021-08-07 10:17:18.768854
-1,0,-2,-1,0,0,-1,-1,2021-08-07 10:17:18.768854
-1,-1,-1,-1,0,0,-1,0,2021-08-07 10:17:18.781854
0,-1,0,0,0,0,0,0,2021-08-07 10:17:18.782855
-1,-1,-1,-1,-2,-1,0,1,2021-08-07 10:17:18.789849
0,0,0,0,-1,-3,0,0,2021-08-07 10:17:18.789849
-2,0,0,-1,-1,-2,0,-1,2021-08-07 10:17:18.806854
-1,-1,0,0,-2,0,-2,-2,2021-08-07 10:17:18.806854
0,-1,0,-1,-1,-1,-1,-1,2021-08-07 10:17:18.807849
0,-2,-2,0,-1,-2,0,-2,2021-08-07 10:17:18.807849
-2,-1,-1,1,1,-3,-2,-2,2021-08-07 10:17:18.827855
0,1,0,0,-2,-2,1,0,2021-08-07 10:17:18.827855
0,1,-1,-1,-1,0,0,-1,2021-08-07 10:17:18.828852
0,-2,-2,0,-1,1,0,0,2021-08-07 10:17:18.828852
2,-1,0,0,-1,-1,-2,-2,2021-08-07 10:17:18.850855
1,0,-1,-1,1,-1,-2,-3,2021-08-07 10:17:18.850855
-1,0,-1,-2,-1,-1,-3,-2,2021-08-07 10:17:18.851852
-2,0,-1,-2,0,-1,-1,-1,2021-08-07 10:17:18.851852
-1,-1,-1,-3,-3,-1,1,-1,2021-08-07 10:17:18.864852
-2,-2,-1,-1,-2,-1,0,-1,2021-08-07 10:17:18.865852
-1,-2,-1,-1,-1,-1,0,1,2021-08-07 10:17:18.865852
-1,0,1,1,-1,1,-2,2,2021-08-07 10:17:18.866848
-1,0,0,0,1,-2,-1,0,2021-08-07 10:17:18.887854
-1,0,-2,-1,-1,0,0,0,2021-08-07 10:17:18.887854
0,-2,-2,0,0,-2,-1,-2,2021-08-07 10:17:18.888849
-3,-2,-1,-2,-2,0,-1,-2,2021-08-07 10:17:18.888849
-1,0,-2,-2,-1,1,-2,-2,2021-08-07 10:17:18.902846
-1,-2,-1,-1,-1,-1,-2,0,2021-08-07 10:17:18.902846
-1,-1,-2,0,-1,-2,0,-1,2021-08-07 10:17:18.909857
0,-1,-2,-1,-1,-2,-1,1,2021-08-07 10:17:18.909857
0,-2,-1,0,1,-2,0,-1,2021-08-07 10:17:18.925845
-2,-1,-2,-1,0,-1,0,0,2021-08-07 10:17:18.925845
-3,-2,0,1,0,0,-2,-2,2021-08-07 10:17:18.925845
-1,0,-2,-1,0,-3,-1,1,2021-08-07 10:17:18.926856
-1,-1,-1,-1,-1,-1,-1,-2,2021-08-07 10:17:18.947852
0,-2,0,0,0,-2,-1,-1,2021-08-07 10:17:18.947852
0,-2,-1,-2,0,-1,-1,1,2021-08-07 10:17:18.948854
0,1,-1,0,-1,-2,0,-2,2021-08-07 10:17:18.948854
-2,-2,-1,0,0,0,-1,0,2021-08-07 10:17:18.970853
-1,0,0,-2,0,0,-1,0,2021-08-07 10:17:18.970853
0,0,-1,0,-2,-2,0,-1,2021-08-07 10:17:18.970853
-1,-1,0,0,-1,-1,-2,-2,2021-08-07 10:17:18.971849
0,-2,-1,0,-2,1,-2,-1,2021-08-07 10:17:18.985857
-1,1,-2,-1,0,-2,-2,-1,2021-08-07 10:17:18.985857
-3,-1,1,-2,1,0,-1,-1,2021-08-07 10:17:18.985857
-1,-1,-1,-1,-1,-1,0,-2,2021-08-07 10:17:18.986846
-1,-1,-1,-1,-1,0,1,1,2021-08-07 10:17:19.007852
-2,-1,-1,-1,0,1,0,-1,2021-08-07 10:17:19.007852
-1,-2,-1,0,0,1,-2,-1,2021-08-07 10:17:19.008852
0,-2,0,-1,0,-1,0,-1,2021-08-07 10:17:19.008852
-1,-1,-1,0,-2,-1,0,0,2021-08-07 10:17:19.030854
0,-2,0,-1,-1,0,-2,0,2021-08-07 10:17:19.030854
-1,0,0,-1,-1,-1,0,-1,2021-08-07 10:17:19.030854
0,-3,-2,-1,-1,1,-1,-1,2021-08-07 10:17:19.031846
0,-1,-1,-2,-1,-2,-1,0,2021-08-07 10:17:19.045853
0,0,0,-1,-1,-2,-2,1,2021-08-07 10:17:19.045853
0,0,-2,0,-1,-1,-1,0,2021-08-07 10:17:19.045853
0,0,-1,0,-1,-2,-1,-1,2021-08-07 10:17:19.045853
-3,0,0,-1,0,1,0,-1,2021-08-07 10:17:19.067854
-2,-2,-3,-1,-1,-2,1,0,2021-08-07 10:17:19.068856
-1,0,-1,-1,0,-1,-1,-2,2021-08-07 10:17:19.068856
0,0,1,0,-2,1,-1,-2,2021-08-07 10:17:19.069843
1,1,-1,0,-1,0,-1,-1,2021-08-07 10:17:19.090852
-2,-2,2,-1,-1,-2,-3,-1,2021-08-07 10:17:19.090852
-3,1,-1,0,-1,-1,-2,-2,2021-08-07 10:17:19.090852
0,-1,-1,-2,-1,-2,-1,0,2021-08-07 10:17:19.091851
1,0,-1,-2,-1,-1,2,0,2021-08-07 10:17:19.105857
2,1,-3,-3,-2,0,2,2,2021-08-07 10:17:19.105857
2,0,-2,-3,-2,-2,2,1,2021-08-07 10:17:19.105857
-3,-2,-3,-4,0,0,-1,-2,2021-08-07 10:17:19.106851
-4,-3,0,-1,0,0,-3,-5,2021-08-07 10:17:19.129846
-4,-4,-1,1,0,0,-2,-3,2021-08-07 10:17:19.129846
-3,-2,0,2,-1,1,-3,-4,2021-08-07 10:17:19.129846
-1,0,0,1,-1,-1,-1,0,2021-08-07 10:17:19.130851
-1,1,0,-1,-2,-4,-2,-2,2021-08-07 10:17:19.150849
1,0,1,0,-1,0,-1,-1,2021-08-07 10:17:19.150849
1,2,-1,-2,-3,0,0,1,2021-08-07 10:17:19.151854
2,-1,0,0,-1,-1,-1,0,2021-08-07 10:17:19.151854
0,-1,-3,-1,0,0,0,0,2021-08-07 10:17:19.165845
0,0,-1,0,1,-1,1,-2,2021-08-07 10:17:19.165845
-1,-3,-2,-1,0,0,-1,0,2021-08-07 10:17:19.165845
0,-2,-2,-1,1,-1,-1,0,2021-08-07 10:17:19.166853
0,-1,0,-2,-1,-3,-2,1,2021-08-07 10:17:19.187849
0,-1,1,0,-1,-2,0,-1,2021-08-07 10:17:19.187849
0,-2,1,-1,1,-2,-1,-1,2021-08-07 10:17:19.188843
-1,-1,-1,-3,-1,-2,0,-2,2021-08-07 10:17:19.188843
-1,-2,-2,1,-1,-1,0,-2,2021-08-07 10:17:19.210855
1,-1,0,-1,0,-1,-2,-2,2021-08-07 10:17:19.210855
-2,-1,1,-1,0,-2,-1,-1,2021-08-07 10:17:19.210855
-2,0,-1,-1,0,-1,0,0,2021-08-07 10:17:19.211850
-1,0,-1,0,-1,0,-1,0,2021-08-07 10:17:19.225853
-1,0,2,0,-1,1,-2,0,2021-08-07 10:17:19.225853
-1,0,-1,0,-1,0,0,-2,2021-08-07 10:17:19.225853
-1,1,-2,-1,-2,0,-1,-1,2021-08-07 10:17:19.226857
-1,-1,0,-1,0,-2,-1,-1,2021-08-07 10:17:19.247852
-2,2,-1,-2,-1,0,0,0,2021-08-07 10:17:19.247852
-2,-2,-1,-1,-2,-1,1,-1,2021-08-07 10:17:19.248844
0,-2,-2,0,-2,-1,-1,1,2021-08-07 10:17:19.248844
0,-1,-2,0,-2,1,0,-1,2021-08-07 10:17:19.270844
1,-1,-3,-1,-2,-3,-2,0,2021-08-07 10:17:19.270844
-1,-1,-2,1,-1,1,0,-1,2021-08-07 10:17:19.270844
-1,0,-1,-2,-1,-2,-2,0,2021-08-07 10:17:19.271844
-1,0,1,0,0,-1,-2,0,2021-08-07 10:17:19.285847
-2,-1,-2,0,-1,1,1,-2,2021-08-07 10:17:19.285847
-1,1,-1,-1,0,0,-2,-1,2021-08-07 10:17:19.286858
-1,-2,-1,1,0,0,-1,-2,2021-08-07 10:17:19.286858
0,0,-1,-1,-3,-2,-1,1,2021-08-07 10:17:19.316847
-1,-3,-1,-3,1,-1,-1,0,2021-08-07 10:17:19.316847
0,-1,1,1,-1,-1,0,0,2021-08-07 10:17:19.316847
0,1,1,-1,1,0,0,-1,2021-08-07 10:17:19.317854
-2,-2,-1,-2,-2,-2,-1,-1,2021-08-07 10:17:19.330849
-2,-1,-1,-1,-1,-2,-1,-1,2021-08-07 10:17:19.330849
-1,0,-1,-2,-1,0,-3,-1,2021-08-07 10:17:19.331854
0,0,1,-2,-1,1,0,-1,2021-08-07 10:17:19.331854
1,0,-1,0,4,7,4,3,2021-08-07 10:17:19.345855
-4,-2,-2,1,3,9,0,-4,2021-08-07 10:17:19.345855
11,4,3,3,5,2,2,7,2021-08-07 10:17:19.345855
-6,-1,0,-3,-11,-26,-14,-10,2021-08-07 10:17:19.346849
-11,-10,-10,-9,-10,-15,-10,-10,2021-08-07 10:17:19.376861
-1,-3,-3,0,6,13,8,2,2021-08-07 10:17:19.376861
-4,-3,-2,-1,-1,-12,-13,-8,2021-08-07 10:17:19.376861
1,0,1,1,1,-1,-1,1,2021-08-07 10:17:19.377853
3,0,2,2,1,0,1,2,2021-08-07 10:17:19.390848
1,1,1,2,0,1,2,1,2021-08-07 10:17:19.390848
4,2,2,4,4,14,10,6,2021-08-07 10:17:19.390848
0,0,-1,-2,-1,5,3,3,2021-08-07 10:17:19.390848
-2,-1,2,-3,-2,-1,-3,-2,2021-08-07 10:17:19.412854
0,-3,-6,-5,-3,-2,-2,1,2021-08-07 10:17:19.413850
-4,-2,-10,-4,-2,-2,-3,-2,2021-08-07 10:17:19.413850
-3,-3,-2,0,-2,-2,-3,-2,2021-08-07 10:17:19.413850
1,1,2,2,3,5,2,2,2021-08-07 10:17:19.427849
1,2,5,0,-2,-5,-2,1,2021-08-07 10:17:19.427849
-3,-3,-2,-2,-4,-8,-3,-3,2021-08-07 10:17:19.435853
0,-1,-3,0,2,4,1,0,2021-08-07 10:17:19.435853
3,1,1,0,-1,3,4,3,2021-08-07 10:17:19.450853
-1,0,0,-1,-4,-9,-5,-4,2021-08-07 10:17:19.450853
-3,-2,-1,-4,-2,-3,-4,-2,2021-08-07 10:17:19.451856
0,-1,-1,-1,1,5,3,2,2021-08-07 10:17:19.451856
1,0,-1,0,0,0,-2,-1,2021-08-07 10:17:19.472854
-2,-2,-4,-3,-6,-8,-4,-3,2021-08-07 10:17:19.472854
-2,-1,-1,-1,-3,3,1,-1,2021-08-07 10:17:19.473843
1,0,-1,0,2,4,3,1,2021-08-07 10:17:19.473843
-2,-3,-2,-1,-1,-4,-2,-3,2021-08-07 10:17:19.495851
-1,-2,-1,-1,-1,-3,-2,-1,2021-08-07 10:17:19.496854
0,-1,0,-3,-3,-3,-2,-2,2021-08-07 10:17:19.496854
2,0,1,0,0,0,1,1,2021-08-07 10:17:19.496854
-1,-1,-1,1,3,3,0,-1,2021-08-07 10:17:19.510857
1,0,-1,-1,-1,-1,-1,0,2021-08-07 10:17:19.510857
-1,-2,2,-1,0,1,1,0,2021-08-07 10:17:19.511853
-3,-1,-1,-2,-2,-1,-2,-3,2021-08-07 10:17:19.511853
-1,-1,-2,-2,-2,0,0,2,2021-08-07 10:17:19.533851
-2,-1,2,-1,0,-2,-4,-2,2021-08-07 10:17:19.533851
-1,0,0,1,0,0,0,-1,2021-08-07 10:17:19.534852
0,-3,-2,-1,0,0,1,-1,2021-08-07 10:17:19.534852
-1,0,1,1,0,1,0,0,2021-08-07 10:17:19.555853
0,-2,-1,-2,0,-2,-1,-1,2021-08-07 10:17:19.556853
-1,-2,1,-2,-2,-2,0,-2,2021-08-07 10:17:19.556853
-1,-2,-2,-2,1,2,0,0,2021-08-07 10:17:19.556853
1,1,0,0,-4,-4,-2,0,2021-08-07 10:17:19.570846
-2,-2,-2,-1,0,0,-2,-1,2021-08-07 10:17:19.570846
1,0,-2,-2,0,1,0,0,2021-08-07 10:17:19.571860
2,1,0,1,-1,0,-1,0,2021-08-07 10:17:19.571860
-3,-2,-4,-1,0,-1,-1,-2,2021-08-07 10:17:19.593853
0,0,-1,0,-3,0,-1,-1,2021-08-07 10:17:19.593853
-1,-2,-1,0,-1,1,0,0,2021-08-07 10:17:19.594849
-2,0,0,0,-1,-1,0,0,2021-08-07 10:17:19.594849
-1,0,1,-1,0,-2,1,0,2021-08-07 10:17:19.615854
-1,-2,-1,-1,0,1,-1,0,2021-08-07 10:17:19.616852
-1,-1,-2,-1,-1,-3,-3,-3,2021-08-07 10:17:19.616852
0,-1,0,-1,-1,-1,-1,-2,2021-08-07 10:17:19.617851
0,-1,0,0,-2,-2,-3,-1,2021-08-07 10:17:19.630855
0,-2,0,1,-1,0,2,0,2021-08-07 10:17:19.630855
1,0,0,-1,-2,0,0,0,2021-08-07 10:17:19.631845
-3,-2,-2,-2,-1,-3,-2,-1,2021-08-07 10:17:19.631845
0,-1,-1,1,0,0,-1,-1,2021-08-07 10:17:19.653846
-2,0,-1,1,-1,1,1,-1,2021-08-07 10:17:19.653846
-2,-3,-2,-1,-2,-2,-1,-4,2021-08-07 10:17:19.654847
0,1,0,-1,-1,1,2,0,2021-08-07 10:17:19.654847
-1,-1,-4,-1,-1,-2,-2,-3,2021-08-07 10:17:19.675855
0,-2,0,0,0,2,-1,1,2021-08-07 10:17:19.676854
-2,-2,0,0,-2,-4,-3,0,2021-08-07 10:17:19.676854
0,0,-1,-1,-2,-1,-1,-1,2021-08-07 10:17:19.677856
0,0,-1,-2,-1,-3,-2,-1,2021-08-07 10:17:19.690853
0,0,-1,-2,-1,-3,0,-2,2021-08-07 10:17:19.690853
-2,-2,-2,-2,0,2,1,0,2021-08-07 10:17:19.690853
0,-1,-1,1,0,0,0,1,2021-08-07 10:17:19.691854
-2,-1,-1,0,0,0,-1,-2,2021-08-07 10:17:19.713856
-2,-1,-2,-2,-2,-4,-3,-2,2021-08-07 10:17:19.713856
-1,1,-1,-1,0,-1,0,1,2021-08-07 10:17:19.714844
-1,-1,0,0,-2,0,-2,-2,2021-08-07 10:17:19.714844
-1,-1,1,-2,1,1,1,1,2021-08-07 10:17:19.735855
-2,-1,0,-2,0,-2,0,-1,2021-08-07 10:17:19.736852
-1,-1,0,0,0,0,0,-1,2021-08-07 10:17:19.736852
-1,-2,-2,-1,0,0,0,-3,2021-08-07 10:17:19.736852
-1,-1,-1,0,-1,-1,1,0,2021-08-07 10:17:19.750855
1,-2,0,-1,-1,-2,0,-1,2021-08-07 10:17:19.750855
-2,0,-2,-2,-1,0,-1,-1,2021-08-07 10:17:19.751850
-1,-1,0,-2,-2,-1,-2,-1,2021-08-07 10:17:19.751850
-1,1,-1,-1,-1,-1,0,-2,2021-08-07 10:17:19.780855
-2,1,-2,-2,-1,-4,-1,0,2021-08-07 10:17:19.781848
-2,-1,0,0,-2,-1,1,0,2021-08-07 10:17:19.781848
-1,-2,1,0,-1,-1,-1,-2,2021-08-07 10:17:19.782850
-1,-1,-1,0,-2,0,-2,-1,2021-08-07 10:17:19.795854
0,-1,1,-3,1,1,-3,-3,2021-08-07 10:17:19.796851
-1,-2,-2,-2,-1,-3,-2,-1,2021-08-07 10:17:19.796851
-1,0,-1,0,-1,-1,1,0,2021-08-07 10:17:19.796851
1,1,1,-2,1,1,2,1,2021-08-07 10:17:19.810855
1,1,-3,-1,-1,-1,-1,1,2021-08-07 10:17:19.810855
3,2,-3,-1,-1,-1,1,2,2021-08-07 10:17:19.810855
0,-1,-5,-4,-1,0,-1,0,2021-08-07 10:17:19.811857
-3,-4,-3,0,1,0,-2,-1,2021-08-07 10:17:19.833857
-4,-3,-1,0,-1,0,-2,-2,2021-08-07 10:17:19.833857
-5,-2,1,1,0,-1,-4,-4,2021-08-07 10:17:19.834851
-4,-1,1,1,-1,-2,-2,-3,2021-08-07 10:17:19.834851
-3,1,2,1,-1,0,-2,-1,2021-08-07 10:17:19.856860
1,0,0,1,0,-2,0,-1,2021-08-07 10:17:19.856860
2,1,0,-1,-4,-2,1,1,2021-08-07 10:17:19.856860
0,0,-2,-2,0,-1,0,1,2021-08-07 10:17:19.857850
0,-1,-2,-3,-1,-2,0,0,2021-08-07 10:17:19.870855
-2,0,-1,-1,-2,-1,-1,1,2021-08-07 10:17:19.870855
0,-2,-1,-1,1,1,-2,-1,2021-08-07 10:17:19.871855
1,0,-2,0,0,1,-1,-1,2021-08-07 10:17:19.871855
-1,-1,0,-1,-1,-1,0,0,2021-08-07 10:17:19.893857
0,0,-1,0,0,0,0,-1,2021-08-07 10:17:19.893857
0,-1,-1,-1,1,-1,0,-1,2021-08-07 10:17:19.894845
0,0,0,0,0,-1,1,0,2021-08-07 10:17:19.894845
-1,0,-1,1,-2,0,1,0,2021-08-07 10:17:19.915859
-1,-1,-2,-2,-1,1,-2,0,2021-08-07 10:17:19.915859
-1,-1,-1,-1,-1,-1,-2,-1,2021-08-07 10:17:19.916844
1,0,0,-1,0,-2,0,1,2021-08-07 10:17:19.917846
0,0,2,-2,-1,-1,0,-1,2021-08-07 10:17:19.930854
-1,-2,0,1,-1,-1,0,-1,2021-08-07 10:17:19.930854
0,0,-1,-1,-1,0,-2,-1,2021-08-07 10:17:19.930854
-2,0,-1,-1,0,0,-2,-1,2021-08-07 10:17:19.931851
-1,-2,-2,0,0,-1,-2,-1,2021-08-07 10:17:19.953856
0,-1,-2,0,-1,0,-1,0,2021-08-07 10:17:19.954855
1,0,0,0,0,0,0,0,2021-08-07 10:17:19.954855
-1,-1,-2,0,-1,-3,-1,-1,2021-08-07 10:17:19.955853
0,0,0,0,-3,-1,-1,-1,2021-08-07 10:17:19.975849
-3,-1,-1,1,0,-2,0,-1,2021-08-07 10:17:19.975849
-2,-2,0,0,-2,0,0,-1,2021-08-07 10:17:19.976851
-3,0,0,-1,-2,-3,-1,-2,2021-08-07 10:17:19.977851
1,0,-1,0,0,-1,1,0,2021-08-07 10:17:19.990855
-1,0,-1,-1,1,0,0,-1,2021-08-07 10:17:19.990855
-1,-2,-2,0,0,0,0,0,2021-08-07 10:17:19.990855
-1,-1,-3,-2,0,-1,-2,0,2021-08-07 10:17:19.991853
-1,-1,-2,-4,-2,-2,-2,-2,2021-08-07 10:17:20.013851
-1,1,0,-1,-1,-1,-2,0,2021-08-07 10:17:20.013851
0,-1,-2,0,-1,-1,1,1,2021-08-07 10:17:20.014845
-1,-2,-1,-1,-2,1,-1,1,2021-08-07 10:17:20.014845
-1,-2,-3,1,-1,0,-1,0,2021-08-07 10:17:20.036853
0,-2,1,0,-1,0,0,-1,2021-08-07 10:17:20.036853
-1,0,-1,-3,0,-1,-1,-1,2021-08-07 10:17:20.037856
0,0,0,0,1,-1,-1,1,2021-08-07 10:17:20.037856
-2,-1,-1,-1,1,-1,-1,-1,2021-08-07 10:17:20.049854
0,-1,-2,-1,-3,-1,0,-1,2021-08-07 10:17:20.049854
-1,0,-2,0,0,0,0,0,2021-08-07 10:17:20.057844
0,-2,0,-1,-1,-1,1,-1,2021-08-07 10:17:20.057844
-2,0,-2,-3,0,-1,-1,-1,2021-08-07 10:17:20.073855
-1,0,1,-1,-2,-1,-1,-1,2021-08-07 10:17:20.073855
-2,-2,1,-2,-2,1,-2,-3,2021-08-07 10:17:20.074854
-1,-2,-1,-2,-1,0,-1,-2,2021-08-07 10:17:20.074854
-2,-2,-1,-2,1,0,-1,-1,2021-08-07 10:17:20.096855
-1,-1,-1,-2,0,0,-2,-2,2021-08-07 10:17:20.097850
-1,-1,-1,-1,-1,1,-2,0,2021-08-07 10:17:20.097850
-1,0,-2,-1,-1,0,0,-1,2021-08-07 10:17:20.098849
0,-1,0,-1,-3,0,0,-2,2021-08-07 10:17:20.109854
1,0,-3,1,0,-2,0,-1,2021-08-07 10:17:20.109854
-1,-1,-2,0,-1,-2,0,0,2021-08-07 10:17:20.117856
-2,0,-1,-1,1,0,-2,0,2021-08-07 10:17:20.118853
0,0,0,0,1,0,-1,1,2021-08-07 10:17:20.133855
0,-1,0,0,0,-1,0,-1,2021-08-07 10:17:20.133855
0,0,-2,0,-1,-2,-1,0,2021-08-07 10:17:20.134847
-1,-1,1,1,0,1,-1,-2,2021-08-07 10:17:20.134847
1,1,-1,0,-1,-1,-2,0,2021-08-07 10:17:20.156845
-1,-2,0,0,-1,0,-1,-2,2021-08-07 10:17:20.156845
0,-1,0,0,0,-1,-1,1,2021-08-07 10:17:20.156845
-1,0,0,-1,-2,-1,1,-1,2021-08-07 10:17:20.156845
0,0,0,-1,-1,-1,-1,-1,2021-08-07 10:17:20.169856
0,0,-1,-3,0,-1,1,-1,2021-08-07 10:17:20.169856
-1,-1,-1,1,0,0,-1,-2,2021-08-07 10:17:20.177857
-1,0,0,0,-1,0,-2,-1,2021-08-07 10:17:20.177857
0,-2,0,-1,-3,-2,-2,2,2021-08-07 10:17:20.193856
-1,-2,-2,-1,-1,1,0,0,2021-08-07 10:17:20.194846
1,-1,1,0,1,1,0,1,2021-08-07 10:17:20.194846
0,-1,0,-2,0,-2,0,-1,2021-08-07 10:17:20.194846
-1,0,-3,-1,-1,-2,-1,-2,2021-08-07 10:17:20.223857
0,1,-2,-1,0,-2,-2,0,2021-08-07 10:17:20.223857
-2,0,0,-2,-1,-2,-1,-1,2021-08-07 10:17:20.224854
-1,0,-3,0,0,-1,-1,0,2021-08-07 10:17:20.224854
0,-1,0,-1,-1,-1,-2,-1,2021-08-07 10:17:20.245854
-1,-2,-1,0,0,0,-1,-1,2021-08-07 10:17:20.246850
1,-2,0,-1,-2,-2,0,0,2021-08-07 10:17:20.246850
-2,0,-1,-2,-1,0,-1,0,2021-08-07 10:17:20.246850
-2,-2,0,-1,-1,0,0,-1,2021-08-07 10:17:20.253858
-1,-1,-2,-1,-2,0,1,1,2021-08-07 10:17:20.253858
-1,-1,0,0,0,-1,-1,-1,2021-08-07 10:17:20.254843
-1,-1,0,0,0,0,-1,-2,2021-08-07 10:17:20.254843
1,-1,0,-1,-1,-2,-2,0,2021-08-07 10:17:20.275855
-1,0,0,1,-2,-1,-2,-1,2021-08-07 10:17:20.276843
-1,-1,0,-1,-3,-2,-1,-2,2021-08-07 10:17:20.276843
0,-1,-1,-1,0,-1,1,1,2021-08-07 10:17:20.276843
-1,-1,0,-1,-1,0,-1,1,2021-08-07 10:17:20.289853
-1,0,-1,-3,1,-2,0,-2,2021-08-07 10:17:20.290856
-2,1,-1,-2,-1,-1,-2,-2,2021-08-07 10:17:20.298848
-1,-2,-2,-1,-1,0,-2,0,2021-08-07 10:17:20.299854
-2,-1,0,0,0,-2,0,-3,2021-08-07 10:17:20.313849
-2,-1,-1,-1,0,-1,0,1,2021-08-07 10:17:20.313849
0,0,-1,-1,1,0,0,0,2021-08-07 10:17:20.314847
0,1,-1,0,-1,-2,1,-2,2021-08-07 10:17:20.314847
0,-1,-3,0,1,1,0,-1,2021-08-07 10:17:20.335853
-1,-1,-1,-1,-2,-2,-1,0,2021-08-07 10:17:20.336853
-1,-1,-1,0,-1,0,0,0,2021-08-07 10:17:20.337856
-1,-1,-2,-1,0,-2,-2,-1,2021-08-07 10:17:20.337856
-1,0,-1,-1,-1,-1,-1,-2,2021-08-07 10:17:20.349855
2,0,0,0,1,1,-1,0,2021-08-07 10:17:20.349855
-1,-2,1,-2,-1,-2,0,-2,2021-08-07 10:17:20.365854
-1,-3,-1,-1,-1,0,-1,1,2021-08-07 10:17:20.366852
0,-1,-2,-3,-1,-3,-2,0,2021-08-07 10:17:20.380850
-1,-1,-1,-1,-2,-1,-1,-1,2021-08-07 10:17:20.381852
0,0,-1,-1,-1,0,0,1,2021-08-07 10:17:20.382853
-1,-2,1,-1,-2,-1,-1,-3,2021-08-07 10:17:20.382853
0,1,-1,0,-1,-1,0,1,2021-08-07 10:17:20.395852
0,0,-1,0,0,-1,-1,-3,2021-08-07 10:17:20.395852
0,-1,-3,0,-2,-1,-1,-1,2021-08-07 10:17:20.397846
-1,-2,-1,-1,-2,1,0,-1,2021-08-07 10:17:20.397846
-1,-2,-1,0,-2,-1,0,-1,2021-08-07 10:17:20.418853
-3,-2,-1,-2,0,-2,-2,0,2021-08-07 10:17:20.418853
-2,-3,-1,1,-1,-1,-1,-2,2021-08-07 10:17:20.420845
0,-2,-2,1,1,-1,-2,0,2021-08-07 10:17:20.420845
-1,-1,0,0,0,-1,-1,-2,2021-08-07 10:17:20.433854
0,-2,-2,-1,-2,-1,1,-1,2021-08-07 10:17:20.433854
-1,-1,0,-1,-2,-1,-1,0,2021-08-07 10:17:20.434855
-1,0,-3,-1,0,-2,-2,0,2021-08-07 10:17:20.435844
-2,-2,-2,0,-3,-1,-1,1,2021-08-07 10:17:20.456850
-2,1,-2,1,-2,-2,-1,-1,2021-08-07 10:17:20.456850
-1,0,0,-1,0,0,-1,0,2021-08-07 10:17:20.457850
2,0,0,-1,-1,0,-1,-1,2021-08-07 10:17:20.457850
-1,0,0,-2,0,-1,1,1,2021-08-07 10:17:20.478853
-1,0,0,0,0,-1,-1,-1,2021-08-07 10:17:20.478853
-1,-1,-2,-2,-2,-3,0,0,2021-08-07 10:17:20.480857
-1,-1,-1,1,-1,-1,0,-1,2021-08-07 10:17:20.480857
0,0,0,1,1,-1,-2,0,2021-08-07 10:17:20.493858
0,-2,-1,-1,0,0,-2,1,2021-08-07 10:17:20.493858
0,-1,0,-1,0,-2,-3,-2,2021-08-07 10:17:20.494855
0,-1,0,-2,-1,-1,1,-1,2021-08-07 10:17:20.494855
-1,-1,0,-1,0,0,0,-2,2021-08-07 10:17:20.515851
-3,-1,-1,-1,-1,0,-1,-2,2021-08-07 10:17:20.516857
0,1,0,0,-2,-1,0,0,2021-08-07 10:17:20.517855
-1,-2,-1,-1,-1,0,-2,-3,2021-08-07 10:17:20.517855
-2,0,-1,-1,-2,0,-1,1,2021-08-07 10:17:20.538856
2,0,-1,-2,-1,0,0,1,2021-08-07 10:17:20.538856
1,0,-4,-4,-3,0,1,1,2021-08-07 10:17:20.539852
1,-1,-3,-4,-1,0,1,2,2021-08-07 10:17:20.540857
-1,-3,-4,0,2,2,-1,-2,2021-08-07 10:17:20.552854
-5,-4,-1,0,1,-1,-1,-3,2021-08-07 10:17:20.552854
-5,-2,-2,2,1,0,-4,-4,2021-08-07 10:17:20.559852
-3,-1,2,4,0,-2,-4,-2,2021-08-07 10:17:20.559852
-3,-1,0,0,-1,-2,-2,-2,2021-08-07 10:17:20.575855
1,0,1,-1,-3,-2,0,1,2021-08-07 10:17:20.576856
1,0,-2,-1,0,0,-1,-1,2021-08-07 10:17:20.577854
1,1,-2,-1,0,-1,0,0,2021-08-07 10:17:20.577854
0,-1,-2,-2,-2,0,0,-1,2021-08-07 10:17:20.598846
0,1,-3,-1,0,0,1,0,2021-08-07 10:17:20.598846
-1,-3,0,-1,0,0,-1,-1,2021-08-07 10:17:20.600858
-1,-1,-2,-1,1,0,-1,-1,2021-08-07 10:17:20.600858
0,-3,-1,-2,-1,0,0,1,2021-08-07 10:17:20.612847
0,1,1,-2,-1,0,-1,-1,2021-08-07 10:17:20.612847
-1,-1,0,-1,0,-2,-2,0,2021-08-07 10:17:20.619854
-2,-1,-2,-1,0,-2,-1,0,2021-08-07 10:17:20.619854
-1,-1,-1,0,0,-1,-1,-1,2021-08-07 10:17:20.635850
0,-1,-1,-1,-1,0,1,0,2021-08-07 10:17:20.636847
-1,0,0,0,0,0,1,-1,2021-08-07 10:17:20.637848
-1,-2,-1,0,-2,0,-2,-1,2021-08-07 10:17:20.637848
0,1,-1,-1,-1,-1,-2,-1,2021-08-07 10:17:20.658849
-1,-1,-3,0,-1,-1,-3,-1,2021-08-07 10:17:20.658849
-1,-2,-1,-1,0,-1,1,-2,2021-08-07 10:17:20.659856
-3,-2,1,-3,-2,-1,0,-3,2021-08-07 10:17:20.660856
-1,-2,1,-1,-1,0,0,-1,2021-08-07 10:17:20.672843
-1,-1,0,-1,2,-2,-2,-1,2021-08-07 10:17:20.673845
0,1,-1,-1,-1,-1,-1,0,2021-08-07 10:17:20.679849
1,1,-2,-1,-1,0,-1,0,2021-08-07 10:17:20.679849
0,-1,-2,0,-1,-2,0,-2,2021-08-07 10:17:20.695853
-2,-1,1,0,-1,-1,-2,-1,2021-08-07 10:17:20.696843
-1,-1,-2,0,-1,0,0,1,2021-08-07 10:17:20.697854
-1,0,0,0,0,0,-1,1,2021-08-07 10:17:20.698843
-1,0,-1,-1,0,-1,-2,-1,2021-08-07 10:17:20.718850
-1,0,-2,-2,0,-1,-1,-1,2021-08-07 10:17:20.718850
0,-2,-1,-2,-1,-1,1,-1,2021-08-07 10:17:20.720846
-1,0,0,-1,-2,-2,0,-1,2021-08-07 10:17:20.720846
-1,-1,-2,-1,-2,-1,0,0,2021-08-07 10:17:20.732855
-1,-2,-1,-1,-1,-1,-1,1,2021-08-07 10:17:20.732855
1,0,0,-1,-2,-1,-2,-1,2021-08-07 10:17:20.739855
-3,-1,-2,-1,-2,-1,-2,1,2021-08-07 10:17:20.739855
-3,-2,-1,-1,0,-3,-1,-2,2021-08-07 10:17:20.755854
-2,-1,0,-1,-3,0,0,-1,2021-08-07 10:17:20.756856
0,-2,-1,0,-2,0,-1,-2,2021-08-07 10:17:20.757855
-1,-1,-1,-1,-1,-2,-2,-3,2021-08-07 10:17:20.757855
0,-2,-2,-2,-1,0,-2,-1,2021-08-07 10:17:20.778857
-1,-1,-1,0,-1,-2,1,-1,2021-08-07 10:17:20.779855
-3,0,-1,0,-1,-2,-1,-1,2021-08-07 10:17:20.780853
-1,-3,-1,-1,-1,-1,-1,-1,2021-08-07 10:17:20.780853
1,-1,-1,0,0,0,-1,0,2021-08-07 10:17:20.792843
1,-2,-2,0,-2,-1,-3,-2,2021-08-07 10:17:20.793847
-2,-1,0,-2,0,0,0,0,2021-08-07 10:17:20.799853
0,-1,-1,-1,-1,-1,0,1,2021-08-07 10:17:20.800844
-2,-1,-1,0,-2,-1,0,-1,2021-08-07 10:17:20.815854
-1,-2,0,0,0,0,-1,-3,2021-08-07 10:17:20.816855
-2,-1,-1,0,-2,-2,-2,-1,2021-08-07 10:17:20.817854
-1,0,0,1,-1,-1,0,-3,2021-08-07 10:17:20.817854
-1,-1,-1,-2,0,-1,1,0,2021-08-07 10:17:20.838857
-1,-1,-2,0,-1,-2,1,-1,2021-08-07 10:17:20.838857
0,0,0,-2,0,-1,0,-1,2021-08-07 10:17:20.839845
0,1,0,0,-1,-1,-2,1,2021-08-07 10:17:20.840859
0,-2,-1,0,0,-1,-1,-1,2021-08-07 10:17:20.852846
0,-1,-1,-2,-1,0,0,0,2021-08-07 10:17:20.853856
-2,0,-3,1,1,-1,-1,-2,2021-08-07 10:17:20.859855
-1,0,-2,-1,-1,-1,-2,0,2021-08-07 10:17:20.859855
-1,0,-1,-1,-1,-1,-2,0,2021-08-07 10:17:20.875853
0,0,-1,-1,-1,0,-2,0,2021-08-07 10:17:20.876842
0,-2,0,0,0,0,-1,-1,2021-08-07 10:17:20.877859
-2,0,1,-1,-1,0,0,-1,2021-08-07 10:17:20.877859
0,0,-1,-1,-2,-2,-1,0,2021-08-07 10:17:20.898851
-1,0,-2,-1,-1,0,-2,-1,2021-08-07 10:17:20.898851
0,-1,-1,0,-1,-1,0,1,2021-08-07 10:17:20.899852
-2,-2,-1,-1,1,-1,0,-1,2021-08-07 10:17:20.900858
1,-1,1,-1,-1,-2,0,-1,2021-08-07 10:17:20.912850
-2,-1,-2,-1,0,-1,-1,-2,2021-08-07 10:17:20.912850
-1,1,-2,0,-2,-1,-2,0,2021-08-07 10:17:20.921845
-1,0,0,0,0,0,0,0,2021-08-07 10:17:20.921845
-3,-1,-2,-1,-1,0,0,0,2021-08-07 10:17:20.935854
0,-1,-1,1,-1,-3,1,-1,2021-08-07 10:17:20.936863
-1,-2,-1,-2,0,-1,0,-1,2021-08-07 10:17:20.937857
-1,-1,-3,0,-2,-1,-2,0,2021-08-07 10:17:20.937857
-1,0,-2,0,-1,0,-1,-1,2021-08-07 10:17:20.958857
-1,-2,0,-1,-1,-1,-1,0,2021-08-07 10:17:20.958857
-1,0,-2,2,-1,-1,0,-3,2021-08-07 10:17:20.959854
-1,-1,-1,0,-1,0,0,-1,2021-08-07 10:17:20.960850
-2,-1,1,-2,-2,0,-1,-2,2021-08-07 10:17:20.971852
-1,1,0,-1,0,0,0,1,2021-08-07 10:17:20.972851
0,-1,0,-3,0,0,-1,0,2021-08-07 10:17:20.980854
1,-1,-1,-1,1,0,-1,-2,2021-08-07 10:17:20.981848
-1,0,-1,-1,0,-1,-2,1,2021-08-07 10:17:20.995852
-1,-1,1,-1,0,0,0,0,2021-08-07 10:17:20.996858
0,-1,-1,1,-1,-1,-3,-1,2021-08-07 10:17:20.997855
-1,1,0,0,0,-1,1,0,2021-08-07 10:17:20.997855
-1,-2,-1,-1,-1,2,0,-2,2021-08-07 10:17:21.018855
0,0,-1,-1,-2,0,-3,-2,2021-08-07 10:17:21.018855
-1,0,-2,-2,0,0,1,-1,2021-08-07 10:17:21.020855
-1,-2,-1,-1,-1,-2,-2,-1,2021-08-07 10:17:21.020855
-1,-2,-2,-2,-1,-2,-2,-1,2021-08-07 10:17:21.031844
-1,-1,-1,-2,-1,-1,0,1,2021-08-07 10:17:21.032859
-1,-2,-2,0,-1,-2,-1,-3,2021-08-07 10:17:21.040857
-1,-2,0,-2,-2,-1,-2,-1,2021-08-07 10:17:21.041855
0,0,0,0,-2,-1,0,0,2021-08-07 10:17:21.056852
-1,-1,-1,-1,-2,-2,0,-1,2021-08-07 10:17:21.056852
-1,-1,0,-2,-1,-1,0,0,2021-08-07 10:17:21.057861
0,-1,-2,-2,-1,-1,0,-1,2021-08-07 10:17:21.057861
0,-1,-1,-1,1,-1,-1,0,2021-08-07 10:17:21.078857
-1,-1,-1,-2,-1,-1,0,-1,2021-08-07 10:17:21.078857
0,-2,0,0,-1,0,-1,0,2021-08-07 10:17:21.080853
-1,-1,1,-1,-1,0,0,-1,2021-08-07 10:17:21.080853
-1,-1,-3,-2,-1,1,-1,-1,2021-08-07 10:17:21.092849
-2,-1,-2,1,-1,-1,-1,-1,2021-08-07 10:17:21.092849
-1,-2,-1,-2,0,1,0,-1,2021-08-07 10:17:21.101853
0,0,-1,-1,-1,-1,-2,-1,2021-08-07 10:17:21.101853
1,0,-1,-1,-2,-2,-1,-1,2021-08-07 10:17:21.115855
-2,-1,-2,-1,-1,-2,-1,0,2021-08-07 10:17:21.116852
-1,0,-1,1,1,0,0,0,2021-08-07 10:17:21.117851
0,-1,-1,-1,-1,0,-1,-1,2021-08-07 10:17:21.117851
-2,0,-2,-1,-1,-1,0,0,2021-08-07 10:17:21.138857
-2,-1,-1,0,-2,0,-1,-1,2021-08-07 10:17:21.138857
-1,0,-1,-2,-2,-1,-2,-1,2021-08-07 10:17:21.139845
-1,0,-1,-1,-2,-1,-1,-1,2021-08-07 10:17:21.140859
-1,-2,0,0,-1,-1,0,-3,2021-08-07 10:17:21.168856
0,0,-1,-2,0,0,-2,-1,2021-08-07 10:17:21.168856
0,0,0,-1,-1,-1,-1,-1,2021-08-07 10:17:21.169848
-1,-2,-2,0,1,0,0,0,2021-08-07 10:17:21.170855
-1,-1,0,0,0,-1,-2,-1,2021-08-07 10:17:21.175855
0,-1,1,-1,-1,0,0,0,2021-08-07 10:17:21.176859
0,-1,-1,0,-2,-2,-2,-1,2021-08-07 10:17:21.177858
-1,-1,0,-2,-1,-2,-1,-2,2021-08-07 10:17:21.177858
-1,-2,-2,1,0,-1,-1,-1,2021-08-07 10:17:21.198854
-1,-2,1,0,-2,1,0,0,2021-08-07 10:17:21.198854
0,-1,1,1,-1,-2,-1,1,2021-08-07 10:17:21.200855
-3,0,-1,-2,-1,-1,0,0,2021-08-07 10:17:21.200855
-2,0,-2,-1,-1,-1,-1,-1,2021-08-07 10:17:21.211853
0,-1,-1,-2,0,-2,-1,-3,2021-08-07 10:17:21.212852
-1,-1,-1,0,-2,1,-1,-1,2021-08-07 10:17:21.221848
-1,-2,0,0,-1,1,0,0,2021-08-07 10:17:21.221848
2,0,-1,-1,-2,0,0,0,2021-08-07 10:17:21.235855
1,0,-1,-2,-1,-2,-1,1,2021-08-07 10:17:21.236857
1,-1,-1,-4,-1,1,3,0,2021-08-07 10:17:21.237851
0,-3,-4,-3,-1,0,0,-1,2021-08-07 10:17:21.237851
-3,-2,-2,0,1,-1,-2,-3,2021-08-07 10:17:21.258855
-4,-1,-1,0,0,-1,-1,-3,2021-08-07 10:17:21.258855
-3,-2,-1,0,0,-2,-3,-3,2021-08-07 10:17:21.259859
-3,0,3,0,-2,0,-4,-2,2021-08-07 10:17:21.260860
-1,-1,0,0,-2,0,-2,-2,2021-08-07 10:17:21.272853
0,0,-1,1,-1,0,-2,0,2021-08-07 10:17:21.272853
0,1,0,-2,-1,0,-1,0,2021-08-07 10:17:21.280854
0,-1,-3,-2,-1,-3,-2,-1,2021-08-07 10:17:21.281854
1,-2,-1,-2,-3,-2,0,-1,2021-08-07 10:17:21.295850
0,0,0,-1,-1,-3,-1,0,2021-08-07 10:17:21.295850
0,-1,-3,1,0,0,1,-1,2021-08-07 10:17:21.297854
-1,0,-2,0,-1,-1,-1,-1,2021-08-07 10:17:21.297854
-1,0,-2,-2,-1,0,0,0,2021-08-07 10:17:21.318853
-2,-1,-1,-3,-1,-2,-1,-1,2021-08-07 10:17:21.318853
-1,-1,0,-1,-2,-2,0,0,2021-08-07 10:17:21.319849
-1,-2,0,-1,-1,-2,0,0,2021-08-07 10:17:21.320852
-1,-1,-1,-2,-1,0,0,0,2021-08-07 10:17:21.331846
1,-1,-1,0,-1,0,-1,1,2021-08-07 10:17:21.332851
-1,-2,0,1,-2,-2,0,-1,2021-08-07 10:17:21.340854
-2,0,-1,0,0,-1,0,-2,2021-08-07 10:17:21.341852
-1,-2,-1,0,-1,-1,-1,0,2021-08-07 10:17:21.355855
-1,1,0,-2,-1,0,-1,-1,2021-08-07 10:17:21.356859
-2,-1,0,-3,0,-1,-2,1,2021-08-07 10:17:21.357858
0,0,0,0,-2,0,0,0,2021-08-07 10:17:21.357858
-2,-1,0,0,1,-2,-1,0,2021-08-07 10:17:21.385853
0,0,-2,0,0,0,0,-3,2021-08-07 10:17:21.386849
-1,-1,-2,0,0,-1,-1,1,2021-08-07 10:17:21.387844
0,-1,-1,-1,-1,0,-2,-1,2021-08-07 10:17:21.387844
-1,-1,-1,-2,-1,0,-1,0,2021-08-07 10:17:21.400850
0,-2,-1,-1,0,0,-1,0,2021-08-07 10:17:21.401855
0,-1,1,0,-1,0,0,-1,2021-08-07 10:17:21.402845
-1,-1,0,0,-1,-1,-2,-2,2021-08-07 10:17:21.402845
0,1,-1,0,0,0,-1,-2,2021-08-07 10:17:21.415856
-1,-1,0,-1,-1,0,0,-1,2021-08-07 10:17:21.415856
-1,0,-1,-2,1,0,0,-2,2021-08-07 10:17:21.422844
0,-1,-2,-1,-2,-2,-1,1,2021-08-07 10:17:21.422844
0,-2,-2,-1,-2,-2,-1,-2,2021-08-07 10:17:21.438850
-1,0,-1,0,-1,-2,-1,-1,2021-08-07 10:17:21.438850
0,1,-2,-2,-1,-1,0,-1,2021-08-07 10:17:21.439855
1,-2,0,-1,1,0,-1,0,2021-08-07 10:17:21.440849
-3,-1,-2,-1,1,-1,0,-1,2021-08-07 10:17:21.461856
0,-1,-1,0,0,-1,0,0,2021-08-07 10:17:21.461856
0,-1,-1,0,0,0,-1,-2,2021-08-07 10:17:21.462851
0,-2,0,-1,0,-1,0,-2,2021-08-07 10:17:21.462851
-2,-1,0,0,-2,2,0,-1,2021-08-07 10:17:21.475854
-1,-2,-2,-1,-2,-1,0,0,2021-08-07 10:17:21.476856
-1,0,-1,-1,-2,0,-2,-3,2021-08-07 10:17:21.477854
0,-1,-1,0,-1,-1,0,0,2021-08-07 10:17:21.477854
1,0,0,-1,-1,-1,-1,-1,2021-08-07 10:17:21.498850
-2,-1,-2,-2,-1,-2,0,1,2021-08-07 10:17:21.498850
-2,-1,0,-2,-1,-3,0,-1,2021-08-07 10:17:21.499859
-2,0,-2,-1,0,0,-2,-2,2021-08-07 10:17:21.500852
-2,0,0,-1,-1,1,-2,1,2021-08-07 10:17:21.521854
0,-2,-1,-2,-1,0,-1,-2,2021-08-07 10:17:21.521854
0,0,0,-1,-1,-2,-2,0,2021-08-07 10:17:21.522849
0,-1,-1,0,-1,-1,-1,0,2021-08-07 10:17:21.523856
0,-1,1,0,0,-1,-1,-2,2021-08-07 10:17:21.535854
-1,-2,0,1,-1,0,-1,-3,2021-08-07 10:17:21.535854
-2,0,-1,-1,-2,-1,-2,-1,2021-08-07 10:17:21.541854
0,-1,-3,-2,-2,-1,-1,-2,2021-08-07 10:17:21.542852
1,0,-1,-1,-1,-2,-1,-1,2021-08-07 10:17:21.558852
-1,-2,-1,-2,0,-2,-3,2,2021-08-07 10:17:21.558852
-1,-3,0,0,-1,0,-2,-1,2021-08-07 10:17:21.559854
0,0,0,0,-2,-1,-1,-1,2021-08-07 10:17:21.560855
-1,0,-2,-1,-1,1,-2,0,2021-08-07 10:17:21.580853
-2,0,-1,-1,-1,-1,1,0,2021-08-07 10:17:21.581847
-2,-1,-2,-1,-1,0,-2,-1,2021-08-07 10:17:21.582854
-1,-1,0,-1,0,0,0,-1,2021-08-07 10:17:21.582854
0,-3,1,1,-1,-2,-1,-1,2021-08-07 10:17:21.595856
-1,0,-1,0,0,-1,-3,-3,2021-08-07 10:17:21.595856
-1,-1,-2,1,-1,-2,1,1,2021-08-07 10:17:21.609853
0,-1,-2,1,-1,0,-1,-1,2021-08-07 10:17:21.609853
-1,0,0,-1,0,-1,-1,-1,2021-08-07 10:17:21.618853
-1,-1,-1,-1,0,0,0,0,2021-08-07 10:17:21.618853
1,-2,-1,1,1,-2,0,-1,2021-08-07 10:17:21.619854
-3,-2,-1,-1,0,-1,-3,-2,2021-08-07 10:17:21.620856
-1,-1,-1,-1,-1,-1,0,-1,2021-08-07 10:17:21.640853
1,-1,-1,1,-2,-1,-1,-1,2021-08-07 10:17:21.641852
0,-1,-2,0,-1,-1,-1,-1,2021-08-07 10:17:21.642854
-2,0,0,-3,-1,-1,0,0,2021-08-07 10:17:21.642854
0,-1,-1,0,0,-1,-2,-2,2021-08-07 10:17:21.655856
-1,0,-1,-1,0,0,1,-1,2021-08-07 10:17:21.655856
-2,0,-2,-1,-1,1,1,-1,2021-08-07 10:17:21.669854
0,-1,0,-1,0,-2,0,-1,2021-08-07 10:17:21.670858
0,0,0,0,0,-1,-1,0,2021-08-07 10:17:21.678854
-1,1,-1,-1,-1,-1,-1,-1,2021-08-07 10:17:21.678854
-1,0,-1,-1,-2,-1,-2,1,2021-08-07 10:17:21.680856
-1,-1,-2,-2,0,-2,-1,0,2021-08-07 10:17:21.680856
-1,0,-1,-1,1,-1,0,0,2021-08-07 10:17:21.700853
0,-2,-1,0,-1,-1,-1,-1,2021-08-07 10:17:21.701853
0,0,0,-1,-2,1,-1,1,2021-08-07 10:17:21.702855
-2,0,1,-1,0,0,0,-1,2021-08-07 10:17:21.702855
-1,-1,0,-2,-1,-1,0,-1,2021-08-07 10:17:21.715854
-2,-1,-2,-1,-1,-1,0,0,2021-08-07 10:17:21.715854
0,-1,-3,0,1,-2,2,-1,2021-08-07 10:17:21.723855
-1,-2,0,1,0,-1,-2,-1,2021-08-07 10:17:21.723855
0,-1,-1,-1,0,0,-1,0,2021-08-07 10:17:21.738853
0,0,0,0,-1,-2,-1,-1,2021-08-07 10:17:21.738853
-3,-2,-1,-1,-1,-1,-1,-1,2021-08-07 10:17:21.739850
-1,-1,-2,0,-1,-1,1,-1,2021-08-07 10:17:21.740852
-1,-1,-2,-2,-3,-1,1,0,2021-08-07 10:17:21.760854
-1,-1,0,-1,0,-1,-1,0,2021-08-07 10:17:21.761852
0,-2,-1,-1,-2,-2,-2,-1,2021-08-07 10:17:21.762850
0,-1,0,-1,-1,-1,-1,-1,2021-08-07 10:17:21.762850
-2,-1,-1,-1,-1,-1,0,-1,2021-08-07 10:17:21.775855
0,-1,-1,-2,0,0,0,-2,2021-08-07 10:17:21.775855
-1,0,-1,-2,0,-1,-1,-1,2021-08-07 10:17:21.782852
-2,0,-2,-1,-1,0,0,1,2021-08-07 10:17:21.782852
-1,-1,-2,0,0,-2,0,-1,2021-08-07 10:17:21.798857
-1,0,-1,-1,0,-2,-1,-2,2021-08-07 10:17:21.798857
0,-1,-1,0,0,0,1,-1,2021-08-07 10:17:21.800856
0,-1,-1,0,-2,-1,-1,1,2021-08-07 10:17:21.800856
-1,-1,0,-2,-2,-2,0,-3,2021-08-07 10:17:21.820851
-2,-1,0,1,-1,0,-2,0,2021-08-07 10:17:21.821858
-1,-1,1,0,-2,1,-1,-1,2021-08-07 10:17:21.822855
-1,-2,0,0,0,-1,-1,-1,2021-08-07 10:17:21.822855
-2,-1,-3,1,-1,0,-1,0,2021-08-07 10:17:21.843845
0,0,0,-1,-1,-1,-2,0,2021-08-07 10:17:21.843845
-1,1,-3,-2,0,0,-2,-2,2021-08-07 10:17:21.844847
0,0,-1,-2,-1,-1,0,-2,2021-08-07 10:17:21.845845
-1,0,0,-1,0,-1,-1,-2,2021-08-07 10:17:21.858402
-2,-2,-2,-1,-2,-2,0,-1,2021-08-07 10:17:21.859405
-1,0,-2,0,0,-1,0,0,2021-08-07 10:17:21.860403
0,-1,0,-1,-1,-3,-1,-1,2021-08-07 10:17:21.860403
-1,-3,-1,-2,-1,1,0,0,2021-08-07 10:17:21.881399
-1,-1,-1,1,0,0,1,0,2021-08-07 10:17:21.881399
0,-2,-1,-2,0,-1,1,-2,2021-08-07 10:17:21.883405
-2,0,-2,-1,-1,-1,-1,-1,2021-08-07 10:17:21.883405
0,-2,0,0,-2,-1,-2,-2,2021-08-07 10:17:21.894403
1,-2,-2,0,-2,0,-2,-1,2021-08-07 10:17:21.895409
0,-1,0,-2,-1,-2,0,0,2021-08-07 10:17:21.904404
-3,-2,-1,1,-1,-1,0,0,2021-08-07 10:17:21.904404
0,-2,-1,-1,-2,-1,-1,-1,2021-08-07 10:17:21.918403
-1,-1,-1,-2,0,-1,0,-2,2021-08-07 10:17:21.919396
-1,-1,-1,-1,-1,-1,-1,-2,2021-08-07 10:17:21.920409
0,0,0,0,0,-1,-1,0,2021-08-07 10:17:21.920409
0,-1,0,0,0,1,-1,0,2021-08-07 10:17:21.941394
-1,0,-1,-2,-2,-1,-1,0,2021-08-07 10:17:21.941394
0,-2,1,-1,1,-1,-1,-1,2021-08-07 10:17:21.942407
-2,-1,-1,0,-3,-1,-2,-1,2021-08-07 10:17:21.943405
-2,-1,-2,1,0,-1,0,-1,2021-08-07 10:17:21.955400
-2,0,1,-1,-2,-1,-2,0,2021-08-07 10:17:21.955400
-1,-1,0,1,0,0,-1,1,2021-08-07 10:17:21.963403
1,0,-1,-1,-1,0,1,-1,2021-08-07 10:17:21.964396
1,0,-3,-2,0,-2,0,1,2021-08-07 10:17:21.986403
1,-2,-2,-2,-2,-2,0,1,2021-08-07 10:17:21.986403
2,-3,-4,-2,-2,-1,2,1,2021-08-07 10:17:21.987408
-2,-3,-2,0,0,0,-1,-2,2021-08-07 10:17:21.988406
-3,-3,0,-1,2,2,-2,-3,2021-08-07 10:17:22.001406
-5,-2,1,2,0,0,-2,-4,2021-08-07 10:17:22.001406
-3,-2,2,1,0,-2,-2,-2,2021-08-07 10:17:22.002399
-2,0,0,-1,-1,-1,-2,-1,2021-08-07 10:17:22.003402
-1,-1,0,-4,-3,-1,0,0,2021-08-07 10:17:22.014403
0,0,0,-2,-1,-1,-2,-2,2021-08-07 10:17:22.015401
-1,1,0,-2,-2,0,0,3,2021-08-07 10:17:22.023406
3,-1,-1,0,-1,0,3,1,2021-08-07 10:17:22.024403
0,1,-1,0,-1,-3,-2,1,2021-08-07 10:17:22.039401
1,-1,-2,0,1,1,1,-2,2021-08-07 10:17:22.039401
0,0,-2,-1,-1,-2,-4,-2,2021-08-07 10:17:22.041395
-1,0,-1,-1,0,0,-1,1,2021-08-07 10:17:22.041395
-1,0,-1,-1,-1,-2,-1,-1,2021-08-07 10:17:22.061402
-1,-2,-2,-1,0,-1,-1,0,2021-08-07 10:17:22.061402
-1,-1,-1,0,0,-1,-1,-2,2021-08-07 10:17:22.062408
-2,0,-1,-1,-1,-2,-1,0,2021-08-07 10:17:22.063406
-2,-1,-1,1,0,0,0,-1,2021-08-07 10:17:22.075406
0,-1,-2,-1,0,-1,1,0,2021-08-07 10:17:22.075406
-1,-4,-1,-1,-2,-1,0,-1,2021-08-07 10:17:22.091404
-1,-2,-2,-1,-2,-1,-2,-1,2021-08-07 10:17:22.091404
0,-1,-1,0,0,-1,-2,0,2021-08-07 10:17:22.098404
-1,-1,-1,-1,1,-1,-1,0,2021-08-07 10:17:22.098404
-1,1,-1,0,0,0,1,-2,2021-08-07 10:17:22.100406
-1,-1,0,0,-2,-2,-1,-1,2021-08-07 10:17:22.100406
-1,-1,-1,-2,-1,-2,0,0,2021-08-07 10:17:22.121405
0,-1,0,-2,-1,-2,-1,0,2021-08-07 10:17:22.122395
0,-2,0,-1,-2,0,-2,0,2021-08-07 10:17:22.122395
-2,-2,-1,1,-1,-2,0,-3,2021-08-07 10:17:22.123404
0,-2,-1,0,0,-1,1,-1,2021-08-07 10:17:22.134404
-1,-1,-2,0,-1,-1,-1,-1,2021-08-07 10:17:22.135405
0,0,-2,-2,-1,0,0,-1,2021-08-07 10:17:22.144404
1,1,-2,0,-1,2,-2,-1,2021-08-07 10:17:22.144404
-1,-2,-1,0,0,-2,-3,-1,2021-08-07 10:17:22.166404
-1,-1,-2,0,-2,-1,0,0,2021-08-07 10:17:22.166404
-1,0,-1,-1,-1,-1,0,-2,2021-08-07 10:17:22.167409
-2,-2,-1,-1,-1,0,-1,-1,2021-08-07 10:17:22.168405
-2,-1,-1,-1,-1,0,0,-1,2021-08-07 10:17:22.181397
-2,-1,-2,0,-1,0,-1,0,2021-08-07 10:17:22.181397
-2,-1,1,-1,-2,0,0,-1,2021-08-07 10:17:22.183405
-1,-1,-2,-3,-2,-1,-1,0,2021-08-07 10:17:22.183405
-1,0,0,-1,-2,-3,-3,-1,2021-08-07 10:17:22.203973
0,-2,-1,-1,0,-1,1,1,2021-08-07 10:17:22.203973
-1,0,-1,0,-1,-1,-2,-2,2021-08-07 10:17:22.209975
-1,-2,-1,-1,0,-1,-2,-2,2021-08-07 10:17:22.209975
0,0,-2,-1,-2,1,-1,1,2021-08-07 10:17:22.218974
-1,-2,0,-2,0,0,-1,-1,2021-08-07 10:17:22.219971
-1,-1,-2,-1,-2,-2,0,0,2021-08-07 10:17:22.219971
-3,-1,0,-2,-2,-1,-1,0,2021-08-07 10:17:22.220964
0,-2,-1,0,-1,-1,-1,-3,2021-08-07 10:17:22.240973
-2,-3,0,-2,0,1,-2,-1,2021-08-07 10:17:22.241971
-2,-1,0,0,-2,0,-1,-1,2021-08-07 10:17:22.242975
-2,1,0,-1,-1,-2,1,-1,2021-08-07 10:17:22.242975
-1,-1,0,-1,-1,1,-1,1,2021-08-07 10:17:22.254974
0,1,0,1,-1,-2,0,0,2021-08-07 10:17:22.254974
-1,-1,-1,-1,1,0,-2,-2,2021-08-07 10:17:22.263968
-1,0,0,1,-2,0,-1,-1,2021-08-07 10:17:22.263968
-1,0,-1,-2,-1,-1,0,-1,2021-08-07 10:17:22.278976
0,-1,-2,0,-2,-2,-1,-1,2021-08-07 10:17:22.278976
-1,-1,-2,-1,-1,0,0,0,2021-08-07 10:17:22.279969
-2,0,0,0,2,0,-1,-1,2021-08-07 10:17:22.279969
0,-1,0,0,0,-1,-3,1,2021-08-07 10:17:22.301974
-1,-2,0,-1,-1,-1,-2,-1,2021-08-07 10:17:22.301974
-1,-2,-2,-1,0,0,0,0,2021-08-07 10:17:22.302972
0,-2,-2,-1,0,-1,1,0,2021-08-07 10:17:22.303973
-1,-4,0,1,-1,0,-1,-4,2021-08-07 10:17:22.323974
0,1,-1,-1,-2,0,1,1,2021-08-07 10:17:22.323974
-2,-2,0,-2,0,-1,-1,-2,2021-08-07 10:17:22.324980
0,0,-1,-3,-2,-1,-2,0,2021-08-07 10:17:22.324980
-2,0,-1,-2,-2,-2,0,1,2021-08-07 10:17:22.338974
-1,-2,0,-1,-1,-1,-3,-1,2021-08-07 10:17:22.338974
-1,-1,-2,0,-1,-1,0,0,2021-08-07 10:17:22.339976
0,0,-1,0,-1,-2,-3,-1,2021-08-07 10:17:22.340976
0,0,-1,-1,-1,0,1,-2,2021-08-07 10:17:22.360971
-1,-2,-1,-1,0,-1,-1,-2,2021-08-07 10:17:22.361972
0,0,0,0,-1,-2,-2,-1,2021-08-07 10:17:22.362974
-1,-1,-2,0,0,-1,0,0,2021-08-07 10:17:22.362974
-2,-1,-1,-2,-1,-2,-2,-1,2021-08-07 10:17:22.383968
-1,0,0,-1,-2,0,2,-1,2021-08-07 10:17:22.384967
0,-2,-1,-2,0,-2,0,-1,2021-08-07 10:17:22.384967
0,-2,0,-2,-2,0,-2,-1,2021-08-07 10:17:22.385965
0,0,0,-1,-2,-1,0,-2,2021-08-07 10:17:22.398973
-1,0,-1,1,-1,0,-1,-1,2021-08-07 10:17:22.398973
-1,-1,1,-1,-1,-1,-2,0,2021-08-07 10:17:22.399964
-1,-2,-2,-1,-2,1,1,0,2021-08-07 10:17:22.400972
-1,-1,-1,-1,0,-2,-1,0,2021-08-07 10:17:22.420973
-2,-2,-1,0,0,-2,-1,-2,2021-08-07 10:17:22.420973
0,1,0,-1,-1,-2,-1,-1,2021-08-07 10:17:22.422978
1,-2,0,1,0,-1,0,-2,2021-08-07 10:17:22.422978
-2,-1,-1,-1,1,0,-2,0,2021-08-07 10:17:22.443979
1,-1,-2,0,-1,-2,0,0,2021-08-07 10:17:22.444985
-1,-2,0,-1,-1,-1,-1,0,2021-08-07 10:17:22.445976
-2,-1,-2,-1,0,-1,0,-2,2021-08-07 10:17:22.445976
0,-1,-1,0,-1,1,-1,-1,2021-08-07 10:17:22.457971
-2,0,-1,-1,-2,-1,-1,-1,2021-08-07 10:17:22.458976
0,-1,-1,-1,-3,0,0,-1,2021-08-07 10:17:22.464966
-1,1,0,-2,-2,-2,0,0,2021-08-07 10:17:22.464966
0,-1,-1,0,-1,-1,-1,-1,2021-08-07 10:17:22.480975
-2,-1,-1,0,1,1,-2,-1,2021-08-07 10:17:22.480975
-3,1,-2,1,1,-1,-1,-1,2021-08-07 10:17:22.482976
-1,-1,-1,-2,-3,-2,-1,1,2021-08-07 10:17:22.482976
-3,-1,-2,-1,-1,-1,0,-1,2021-08-07 10:17:22.503974
2,-2,-1,-1,-2,-1,-1,1,2021-08-07 10:17:22.503974
0,1,-1,-2,1,1,-1,2,2021-08-07 10:17:22.504970
-1,-1,0,1,0,-1,-1,-1,2021-08-07 10:17:22.505974
1,-2,-1,0,-2,-2,1,-1,2021-08-07 10:17:22.517975
0,-1,-2,-1,-1,-2,-1,-1,2021-08-07 10:17:22.518966
1,-1,-1,0,-3,0,-1,-2,2021-08-07 10:17:22.524974
-1,-1,-1,-1,-1,0,2,-1,2021-08-07 10:17:22.524974
0,1,0,0,-1,1,-1,0,2021-08-07 10:17:22.540972
-3,0,-2,0,-2,-1,-1,-1,2021-08-07 10:17:22.541975
0,0,0,-1,-2,-2,0,-2,2021-08-07 10:17:22.542976
0,-2,0,-1,-2,0,-1,-1,2021-08-07 10:17:22.542976
-1,-2,-1,0,0,0,-1,-2,2021-08-07 10:17:22.563967
0,0,-2,-1,0,-1,-1,-1,2021-08-07 10:17:22.563967
1,-1,-1,-1,-2,-1,0,-1,2021-08-07 10:17:22.564965
-1,1,-1,-2,-1,-1,-1,-1,2021-08-07 10:17:22.565966
-1,-2,-3,-1,0,-1,0,0,2021-08-07 10:17:22.577973
-2,-1,-2,0,-1,-1,0,1,2021-08-07 10:17:22.578975
-1,-1,-1,0,0,-1,1,0,2021-08-07 10:17:22.601975
-1,-1,-1,-2,-1,0,0,-1,2021-08-07 10:17:22.601975
0,-1,0,-2,0,1,1,0,2021-08-07 10:17:22.602973
-1,-1,0,-1,1,-1,0,1,2021-08-07 10:17:22.602973
0,-1,-3,0,-1,-2,-3,-1,2021-08-07 10:17:22.603975
-1,-1,-2,1,-1,0,0,-2,2021-08-07 10:17:22.603975
-1,0,-1,-1,-1,-2,-1,-1,2021-08-07 10:17:22.623972
1,-2,1,-1,-2,0,-1,0,2021-08-07 10:17:22.623972
-3,-1,-1,0,-2,1,1,0,2021-08-07 10:17:22.629977
-2,-1,-2,0,0,-2,-2,0,2021-08-07 10:17:22.629977
-1,1,0,-1,-1,-2,-2,-2,2021-08-07 10:17:22.637975
-1,0,-2,-1,0,-2,-1,0,2021-08-07 10:17:22.638975
-1,0,-1,-1,-1,-1,-1,-1,2021-08-07 10:17:22.644972
1,-1,0,1,-2,-1,-2,0,2021-08-07 10:17:22.644972
-1,-2,-2,0,-1,0,-2,-1,2021-08-07 10:17:22.660972
0,-2,-3,-1,-1,0,-1,-2,2021-08-07 10:17:22.661963
0,-2,1,-1,0,-1,-1,0,2021-08-07 10:17:22.662976
-2,-1,-1,1,0,0,0,-1,2021-08-07 10:17:22.662976
0,-2,-2,-1,0,-1,0,1,2021-08-07 10:17:22.683973
-2,-1,2,-1,0,1,-1,0,2021-08-07 10:17:22.683973
-1,-1,0,-1,-1,1,-1,-2,2021-08-07 10:17:22.684976
0,-2,-1,0,0,-2,-1,0,2021-08-07 10:17:22.685964
-2,0,-1,0,-3,0,-1,-2,2021-08-07 10:17:22.697970
-1,-1,-1,-1,0,-1,-2,-2,2021-08-07 10:17:22.698966
-2,0,-1,-2,0,-1,-2,-1,2021-08-07 10:17:22.704970
-1,0,-1,0,-1,-2,-2,0,2021-08-07 10:17:22.704970
-1,0,0,-3,-1,-1,1,3,2021-08-07 10:17:22.720970
3,-1,-3,-2,-1,0,1,2,2021-08-07 10:17:22.721975
1,-1,-4,-2,-2,0,3,1,2021-08-07 10:17:22.722972
-1,-1,-3,-2,0,0,-1,-2,2021-08-07 10:17:22.722972
-4,-3,0,1,2,0,-2,-3,2021-08-07 10:17:22.743979
-5,-2,0,1,-1,-1,-2,-4,2021-08-07 10:17:22.743979
-4,-1,3,0,-1,-1,-3,-2,2021-08-07 10:17:22.744975
-1,-2,2,1,-2,0,-1,-1,2021-08-07 10:17:22.745975
0,2,0,-1,0,-3,-1,0,2021-08-07 10:17:22.757973
1,0,0,-2,-1,-3,-1,1,2021-08-07 10:17:22.758974
1,0,-1,-1,-1,-1,-1,-1,2021-08-07 10:17:22.764978
0,0,-1,-3,-1,-1,1,0,2021-08-07 10:17:22.764978
0,-1,0,-2,-1,1,0,-2,2021-08-07 10:17:22.780973
-1,-2,1,-1,0,-1,0,0,2021-08-07 10:17:22.781963
-2,-2,-1,0,0,0,0,0,2021-08-07 10:17:22.782963
-1,-2,-2,-3,1,-3,1,0,2021-08-07 10:17:22.782963
1,-1,-2,-1,-2,-1,-2,0,2021-08-07 10:17:22.803974
0,0,-2,-1,-1,1,0,-1,2021-08-07 10:17:22.803974
0,-1,-1,0,0,-1,0,-1,2021-08-07 10:17:22.804979
-1,0,-1,0,0,-1,-2,-2,2021-08-07 10:17:22.805972
-1,-1,0,0,-1,-1,1,-1,2021-08-07 10:17:22.816973
-2,0,-1,0,-1,-2,-1,-1,2021-08-07 10:17:22.817970
1,-1,1,-2,0,-2,-2,-1,2021-08-07 10:17:22.826975
-1,-1,0,-1,-1,0,-2,-3,2021-08-07 10:17:22.826975
-1,0,-1,0,0,-1,0,-1,2021-08-07 10:17:22.840966
-2,0,-1,1,-2,-1,-2,1,2021-08-07 10:17:22.840966
-2,0,-3,0,0,0,-2,-1,2021-08-07 10:17:22.842976
0,-1,-1,-1,-1,1,1,0,2021-08-07 10:17:22.842976
-2,-1,-1,0,-2,-1,0,-1,2021-08-07 10:17:22.863966
-1,-1,0,0,0,-1,-1,-1,2021-08-07 10:17:22.863966
0,-1,-1,-1,-2,-1,-1,-1,2021-08-07 10:17:22.865972
-2,-1,-1,1,-1,-1,-1,-1,2021-08-07 10:17:22.865972
0,2,1,-1,0,-2,0,1,2021-08-07 10:17:22.877976
1,-2,1,-2,0,1,0,-1,2021-08-07 10:17:22.877976
-2,-1,-2,1,0,0,1,1,2021-08-07 10:17:22.885974
0,-1,0,-1,-1,-2,0,0,2021-08-07 10:17:22.886970
-1,-2,0,-1,-1,-2,0,0,2021-08-07 10:17:22.901969
-1,-2,-3,0,-1,-1,1,-3,2021-08-07 10:17:22.901969
0,-1,-1,-2,-2,-2,0,-2,2021-08-07 10:17:22.902972
-1,0,-1,0,0,-1,-3,-1,2021-08-07 10:17:22.902972
0,-1,-2,0,1,0,-1,-1,2021-08-07 10:17:22.923970
-1,0,-3,0,-2,-1,-1,0,2021-08-07 10:17:22.923970
-3,-1,-2,-2,0,-1,-2,-1,2021-08-07 10:17:22.924976
-1,-2,-1,0,-1,-2,-1,-1,2021-08-07 10:17:22.924976
-1,-2,0,-1,-3,-1,-2,-1,2021-08-07 10:17:22.937969
-1,0,-1,-1,0,-1,-2,-2,2021-08-07 10:17:22.937969
-3,-3,-1,-2,0,0,0,-1,2021-08-07 10:17:22.945978
0,-3,0,-3,-1,0,0,-1,2021-08-07 10:17:22.946975
-1,-1,-3,-1,0,2,0,-1,2021-08-07 10:17:22.960973
-1,-1,0,0,0,-1,-1,-1,2021-08-07 10:17:22.961974
-1,0,0,0,0,-2,0,-2,2021-08-07 10:17:22.962970
-1,-2,-2,0,1,0,-2,-1,2021-08-07 10:17:22.962970
-3,-1,1,-1,-1,-2,-1,-2,2021-08-07 10:17:22.983974
0,-1,-1,1,-1,0,0,-2,2021-08-07 10:17:22.983974
-1,0,0,-1,0,-2,0,-1,2021-08-07 10:17:22.984973
-1,-1,-2,-2,0,0,-1,0,2021-08-07 10:17:22.984973
-1,0,-2,-1,-1,-2,0,-1,2021-08-07 10:17:22.996974
-1,0,-1,-1,-1,-1,0,-1,2021-08-07 10:17:22.996974
0,0,0,0,0,0,-1,0,2021-08-07 10:17:23.005975
-1,1,-1,-2,0,0,0,-1,2021-08-07 10:17:23.006977
0,-1,0,0,-1,-1,-2,0,2021-08-07 10:17:23.020979
1,-1,0,-2,0,-1,-1,0,2021-08-07 10:17:23.020979
-1,-1,0,1,0,-1,-2,-1,2021-08-07 10:17:23.022975
-3,-1,-1,-1,-3,-3,-1,-2,2021-08-07 10:17:23.022975
-1,-1,-2,-2,-1,-2,-1,-2,2021-08-07 10:17:23.043973
-2,-1,0,-1,0,-1,-1,0,2021-08-07 10:17:23.043973
1,0,-1,-2,-1,-2,-1,1,2021-08-07 10:17:23.044972
-1,-1,-1,-2,-3,-1,0,-1,2021-08-07 10:17:23.045977
-2,-1,-1,-2,0,0,-2,-2,2021-08-07 10:17:23.056973
-1,0,-1,-2,-2,0,-1,1,2021-08-07 10:17:23.057979
0,-1,0,-2,-1,-3,-2,0,2021-08-07 10:17:23.065979
0,-2,0,-1,0,0,-1,-2,2021-08-07 10:17:23.066976
-1,-1,-1,0,-1,-3,1,0,2021-08-07 10:17:23.080974
-2,-2,-1,-1,-1,1,1,-1,2021-08-07 10:17:23.081965
0,-2,-2,-2,-1,-2,1,-1,2021-08-07 10:17:23.082976
1,-2,-1,0,-1,-1,-1,-2,2021-08-07 10:17:23.082976
0,0,-1,0,0,0,-2,-1,2021-08-07 10:17:23.103973
0,-2,-2,-1,-1,0,-2,-1,2021-08-07 10:17:23.104976
0,-1,-3,1,-3,0,0,-2,2021-08-07 10:17:23.109976
0,0,0,0,0,0,0,1,2021-08-07 10:17:23.109976
-1,0,-2,-1,-1,-1,-2,0,2021-08-07 10:17:23.116976
-3,-1,0,0,-1,-1,-1,-1,2021-08-07 10:17:23.117974
0,-1,-1,1,0,0,-1,-2,2021-08-07 10:17:23.141976
0,0,-1,-1,-1,0,-1,0,2021-08-07 10:17:23.141976
-1,-2,0,-2,1,0,0,-1,2021-08-07 10:17:23.142969
-1,-1,-1,-1,0,-1,-1,1,2021-08-07 10:17:23.142969
0,-1,-3,-2,-1,0,0,-1,2021-08-07 10:17:23.143974
-1,0,-2,0,-3,-2,-2,-1,2021-08-07 10:17:23.143974
1,1,-1,0,-2,-2,0,-2,2021-08-07 10:17:23.163965
-1,2,-1,-2,-1,1,0,-2,2021-08-07 10:17:23.163965
-1,-1,-2,-2,-1,-1,-1,-3,2021-08-07 10:17:23.165965
-1,1,-1,0,0,0,0,0,2021-08-07 10:17:23.165965
0,-1,-1,-1,0,0,0,1,2021-08-07 10:17:23.177974
1,0,-1,0,0,-1,1,-2,2021-08-07 10:17:23.177974
-1,-1,0,-1,-1,-1,0,0,2021-08-07 10:17:23.185972
-2,-1,-1,0,-2,-2,-4,-1,2021-08-07 10:17:23.185972
-1,-1,-2,-1,-1,-1,-1,-1,2021-08-07 10:17:23.200971
1,-1,0,-1,-1,0,-1,1,2021-08-07 10:17:23.201973
-2,-2,1,0,-2,-1,0,0,2021-08-07 10:17:23.202965
-2,-2,0,-3,-1,-1,-2,0,2021-08-07 10:17:23.202965
0,-2,-1,-1,-2,0,-2,0,2021-08-07 10:17:23.222975
-1,-3,-1,-2,0,-1,-2,-1,2021-08-07 10:17:23.222975
1,0,0,-1,0,-1,-2,-2,2021-08-07 10:17:23.230984
-2,-1,-1,1,0,0,0,0,2021-08-07 10:17:23.231975
0,-1,-2,-1,-1,-1,-1,-1,2021-08-07 10:17:23.237973
-1,0,0,-2,0,-1,-2,-1,2021-08-07 10:17:23.237973
0,-1,-1,0,0,0,-2,0,2021-08-07 10:17:23.246096
-1,-1,-1,-1,1,0,1,-1,2021-08-07 10:17:23.247100
0,-2,-2,-1,-1,-2,-1,-2,2021-08-07 10:17:23.261100
-2,-2,-1,0,-2,-2,-1,0,2021-08-07 10:17:23.262100
1,-2,0,-1,0,2,-1,-1,2021-08-07 10:17:23.263101
-1,-1,-2,-1,1,-1,1,0,2021-08-07 10:17:23.263101
-2,0,0,-1,0,1,1,-2,2021-08-07 10:17:23.284096
-2,1,0,-1,-1,-2,0,-2,2021-08-07 10:17:23.284096
-3,-1,-1,-1,-1,-1,0,-1,2021-08-07 10:17:23.285101
0,0,-2,-1,-1,-1,-3,-1,2021-08-07 10:17:23.286108
-2,0,-1,-1,-1,1,-1,-1,2021-08-07 10:17:23.306104
-1,-1,-2,-2,-2,0,0,-1,2021-08-07 10:17:23.306104
-1,0,-2,-1,0,2,-2,-1,2021-08-07 10:17:23.308101
0,-1,0,0,-1,-1,2,-1,2021-08-07 10:17:23.308101
-1,-1,-1,1,-1,-1,-2,1,2021-08-07 10:17:23.320101
-1,-1,0,0,-1,0,-1,-1,2021-08-07 10:17:23.321100
0,-1,-2,-1,-2,-2,-1,-1,2021-08-07 10:17:23.329100
0,-1,-1,-1,-1,-1,-1,-1,2021-08-07 10:17:23.329100
1,-1,0,-1,-1,1,0,0,2021-08-07 10:17:23.344101
1,-1,0,1,1,0,1,-1,2021-08-07 10:17:23.344101
-1,-1,0,-1,0,-2,0,0,2021-08-07 10:17:23.345103
-2,-1,0,0,0,-1,-2,-2,2021-08-07 10:17:23.345103
-1,-2,-2,0,-1,-1,-2,-1,2021-08-07 10:17:23.366101
-1,-1,-1,-1,-1,-1,-2,-1,2021-08-07 10:17:23.366101
0,-1,-1,-1,0,-2,-2,1,2021-08-07 10:17:23.368093
-2,-1,-3,0,-2,-1,-2,0,2021-08-07 10:17:23.368093
-2,0,1,-1,0,0,1,1,2021-08-07 10:17:23.381094
-1,-1,-1,0,-1,-2,-1,-1,2021-08-07 10:17:23.381094
-1,-1,0,0,0,-2,0,-1,2021-08-07 10:17:23.383102
0,-2,1,0,-1,-1,1,-1,2021-08-07 10:17:23.383102
-3,-3,-1,-2,-2,-2,-1,0,2021-08-07 10:17:23.404102
-1,-1,-2,-1,-1,-2,-1,-1,2021-08-07 10:17:23.404102
0,-2,-1,0,0,1,0,1,2021-08-07 10:17:23.405092
-1,-1,-2,-1,-1,-1,1,-1,2021-08-07 10:17:23.405092
0,-1,0,0,0,0,0,-1,2021-08-07 10:17:23.426103
-1,-1,0,1,-2,-1,0,0,2021-08-07 10:17:23.427103
-2,0,-2,0,-3,-2,-1,-2,2021-08-07 10:17:23.428102
-1,-1,0,-3,0,0,0,-1,2021-08-07 10:17:23.428102
-2,-2,-2,-1,-3,-3,-2,-2,2021-08-07 10:17:23.441107
-1,0,-1,0,0,0,-1,-1,2021-08-07 10:17:23.441107
-2,0,1,-1,0,0,0,-2,2021-08-07 10:17:23.447101
-1,-2,0,0,-1,0,-1,0,2021-08-07 10:17:23.448105
1,0,-2,1,-1,0,-2,-2,2021-08-07 10:17:23.464668
1,1,-2,-2,0,0,0,2,2021-08-07 10:17:23.464668
1,-1,-3,-3,-1,0,0,1,2021-08-07 10:17:23.465673
1,0,-2,-4,0,0,1,1,2021-08-07 10:17:23.465673
-2,-2,-3,-3,1,1,0,-1,2021-08-07 10:17:23.486667
-3,-3,-1,0,0,0,-1,-3,2021-08-07 10:17:23.486667
-5,-2,-1,2,0,-1,-2,-5,2021-08-07 10:17:23.487663
-5,-1,0,0,1,0,-4,-4,2021-08-07 10:17:23.488672
-2,-1,2,1,-3,-1,-1,-1,2021-08-07 10:17:23.500663
-1,1,0,-1,-1,-2,0,0,2021-08-07 10:17:23.500663
1,1,1,-1,-1,-3,-1,1,2021-08-07 10:17:23.507668
0,-1,-2,-1,-1,-1,-1,0,2021-08-07 10:17:23.507668
0,0,-3,-2,0,1,-2,-2,2021-08-07 10:17:23.523670
0,-2,0,-1,-1,-2,0,-1,2021-08-07 10:17:23.524668
0,0,-2,-2,-2,-1,1,0,2021-08-07 10:17:23.525669
-1,-1,-2,-1,-1,0,-1,-2,2021-08-07 10:17:23.525669
1,-1,-2,-2,1,-2,-1,-1,2021-08-07 10:17:23.545668
-1,0,-2,-1,-1,0,-1,1,2021-08-07 10:17:23.545668
-1,-1,-1,-1,2,1,-1,1,2021-08-07 10:17:23.553671
0,0,-1,1,-1,0,0,0,2021-08-07 10:17:23.553671
-1,-1,-1,-1,0,-3,0,0,2021-08-07 10:17:23.560670
-2,-2,-1,0,-2,0,-1,-1,2021-08-07 10:17:23.560670
-1,0,-2,0,0,2,-2,-1,2021-08-07 10:17:23.567668
-1,-1,0,-2,-1,0,-1,-2,2021-08-07 10:17:23.567668
-2,0,-1,0,-1,1,-1,-1,2021-08-07 10:17:23.583671
1,-2,-1,-1,-1,0,2,0,2021-08-07 10:17:23.584662
0,0,1,1,-3,-1,-1,1,2021-08-07 10:17:23.585658
-1,0,-1,-1,-1,1,-1,0,2021-08-07 10:17:23.585658
0,0,-2,-1,-2,-1,-1,-2,2021-08-07 10:17:23.606665
-1,-1,-2,-1,1,-1,-2,-1,2021-08-07 10:17:23.606665
0,-3,-1,-1,-1,0,0,-1,2021-08-07 10:17:23.608664
-1,-2,-1,0,-1,-2,-1,-1,2021-08-07 10:17:23.608664
0,-1,0,1,0,-1,-1,3,2021-08-07 10:17:23.620664
-2,-1,0,-1,0,1,-1,-1,2021-08-07 10:17:23.620664
0,-1,-2,-2,-3,-2,0,2,2021-08-07 10:17:23.627667
-1,0,-2,-1,0,0,0,0,2021-08-07 10:17:23.627667
0,-2,-1,-2,0,-2,0,-1,2021-08-07 10:17:23.651667
-1,0,-1,-2,0,-1,0,0,2021-08-07 10:17:23.651667
-3,-2,0,0,-1,-1,-3,-3,2021-08-07 10:17:23.652667
0,-1,1,0,-2,-2,-1,-1,2021-08-07 10:17:23.653657
-1,-1,0,-2,-1,-1,-1,-2,2021-08-07 10:17:23.666666
-1,0,0,-2,-2,0,-1,-2,2021-08-07 10:17:23.666666
-2,-1,-1,-2,0,-1,-1,-1,2021-08-07 10:17:23.667665
-1,-2,-1,-1,-1,-1,0,-1,2021-08-07 10:17:23.668675
0,0,0,-1,0,1,-2,-1,2021-08-07 10:17:23.680666
-2,0,-1,-1,-1,-2,-1,-1,2021-08-07 10:17:23.680666
-1,-1,0,-2,-1,-1,0,-2,2021-08-07 10:17:23.687667
0,-1,-1,0,-1,-1,-1,-1,2021-08-07 10:17:23.687667
-1,-1,-1,-1,0,0,1,-1,2021-08-07 10:17:23.703668
-1,0,0,-2,0,1,0,0,2021-08-07 10:17:23.703668
-1,-2,-2,-1,1,0,-1,-1,2021-08-07 10:17:23.705666
-2,-1,0,-2,1,0,0,-2,2021-08-07 10:17:23.705666
-2,0,-1,1,-1,-1,-2,-2,2021-08-07 10:17:23.726666
1,-1,-2,3,-1,0,-1,2,2021-08-07 10:17:23.726666
-1,-1,0,-2,-1,0,-1,-1,2021-08-07 10:17:23.728666
-2,0,-2,-1,-2,-2,-1,0,2021-08-07 10:17:23.728666
-2,-1,-2,0,0,0,-1,0,2021-08-07 10:17:23.740665
1,0,0,-2,1,-1,-1,0,2021-08-07 10:17:23.740665
-1,-1,-1,-1,1,-3,-1,-1,2021-08-07 10:17:23.746668
0,-1,-1,-1,-1,-1,-1,-2,2021-08-07 10:17:23.747662
1,-2,-1,-1,-1,0,0,-1,2021-08-07 10:17:23.763666
-1,-1,0,-1,-2,-1,-2,-1,2021-08-07 10:17:23.763666
1,1,-1,-1,-3,-1,-1,-1,2021-08-07 10:17:23.764658
-1,-1,-2,0,0,0,-3,-2,2021-08-07 10:17:23.765673
-2,-2,-2,0,-3,-1,1,0,2021-08-07 10:17:23.786665
0,-1,-2,-2,-1,-1,0,-1,2021-08-07 10:17:23.786665
-2,-2,-1,0,0,-1,-1,-1,2021-08-07 10:17:23.787662
-2,-1,-1,0,-2,-1,-1,0,2021-08-07 10:17:23.788671
0,-1,1,0,-1,-1,-2,-1,2021-08-07 10:17:23.799667
0,-2,-1,-2,-2,-1,-1,-2,2021-08-07 10:17:23.799667
-1,1,0,-1,-1,0,-1,-2,2021-08-07 10:17:23.808663
0,-1,-2,-1,-1,-1,-1,0,2021-08-07 10:17:23.808663
-2,0,-1,-1,0,-3,-2,-3,2021-08-07 10:17:23.823662
-2,-1,-1,0,-1,-2,-1,-1,2021-08-07 10:17:23.823662
1,-2,-1,-2,0,0,-3,-3,2021-08-07 10:17:23.825666
-1,-1,-1,-1,-2,-2,-1,-1,2021-08-07 10:17:23.825666
0,0,-1,-1,-1,0,0,0,2021-08-07 10:17:23.846666
-2,0,-1,-1,0,0,-1,-2,2021-08-07 10:17:23.846666
0,-1,-2,-1,-1,-1,-1,0,2021-08-07 10:17:23.847659
0,0,-1,0,-1,0,-2,0,2021-08-07 10:17:23.847659
1,0,-2,-2,0,0,0,0,2021-08-07 10:17:23.859657
0,0,-1,0,-2,-1,-2,-1,2021-08-07 10:17:23.860657
0,-2,-1,1,1,-1,1,0,2021-08-07 10:17:23.874666
1,-1,-1,0,-2,-1,0,-1,2021-08-07 10:17:23.874666
-1,-2,-1,1,-1,-1,-1,-1,2021-08-07 10:17:23.883667
-2,-1,0,0,0,1,-1,0,2021-08-07 10:17:23.884671
-2,0,-1,0,-2,0,-1,0,2021-08-07 10:17:23.885658
-1,0,-1,-1,1,-1,-1,0,2021-08-07 10:17:23.885658
-1,0,0,-1,-3,1,0,-2,2021-08-07 10:17:23.906666
0,-1,-1,-1,0,-1,-1,0,2021-08-07 10:17:23.906666
-1,-1,-2,-1,-1,0,1,0,2021-08-07 10:17:23.907666
-1,-1,-1,-2,0,-1,-1,-1,2021-08-07 10:17:23.907666
-3,0,-2,-1,0,-2,-1,0,2021-08-07 10:17:23.919666
-1,-2,-2,-1,-2,-2,-1,-1,2021-08-07 10:17:23.919666
0,0,-1,0,-2,-1,-1,-2,2021-08-07 10:17:23.928668
0,0,-1,-1,-1,-1,-2,-2,2021-08-07 10:17:23.929667
-1,-1,0,0,-1,0,0,-1,2021-08-07 10:17:23.943670
0,-1,-1,-1,1,-1,0,0,2021-08-07 10:17:23.943670
-2,0,0,-1,-2,-2,-1,0,2021-08-07 10:17:23.945662
-2,-1,0,0,-2,0,-1,-3,2021-08-07 10:17:23.945662
2,-1,-1,-2,-2,-1,1,0,2021-08-07 10:17:23.973664
-1,0,0,0,-1,-1,0,-1,2021-08-07 10:17:23.973664
0,-2,-2,-1,-1,0,0,1,2021-08-07 10:17:23.975662
0,-2,-1,0,0,0,-1,0,2021-08-07 10:17:23.975662
-2,-1,1,1,0,0,-1,1,2021-08-07 10:17:23.979667
-1,-2,-1,-1,-1,-1,-1,0,2021-08-07 10:17:23.980662
-1,-2,0,-1,-1,-1,-3,-1,2021-08-07 10:17:23.988666
-1,-2,-1,0,-1,0,0,0,2021-08-07 10:17:23.989666
-1,-1,0,-1,0,-1,0,-2,2021-08-07 10:17:24.002666
-1,0,0,0,-1,-1,0,0,2021-08-07 10:17:24.003666
-2,-1,0,-1,-1,-1,-1,0,2021-08-07 10:17:24.003666
0,-1,0,-3,-1,-1,-1,0,2021-08-07 10:17:24.004671
0,1,-2,0,-2,-2,-2,0,2021-08-07 10:17:24.025668
-1,-1,0,0,0,-1,-1,-1,2021-08-07 10:17:24.025668
0,-1,-4,-1,0,0,-1,-1,2021-08-07 10:17:24.032666
0,-2,1,0,1,0,0,-1,2021-08-07 10:17:24.033667
0,-2,0,-1,0,-1,0,0,2021-08-07 10:17:24.047659
-2,-2,-2,-2,-1,0,-2,-1,2021-08-07 10:17:24.048672
-1,0,0,-1,-2,-2,-2,-1,2021-08-07 10:17:24.048672
-1,1,0,-1,-2,-1,-1,-1,2021-08-07 10:17:24.048672
-2,-1,-1,0,-3,0,0,-1,2021-08-07 10:17:24.062669
-1,0,-1,0,0,-3,-2,-1,2021-08-07 10:17:24.062669
-1,-1,0,-1,-1,-1,-1,-1,2021-08-07 10:17:24.063665
1,0,-2,0,0,0,-2,-1,2021-08-07 10:17:24.063665
1,-1,0,-2,1,-1,-1,-1,2021-08-07 10:17:24.085662
-2,-1,-2,-1,-3,-1,0,-1,2021-08-07 10:17:24.085662
-1,0,-2,0,-1,-2,-2,0,2021-08-07 10:17:24.086669
-1,-1,-2,0,-1,-1,-1,0,2021-08-07 10:17:24.086669
-1,-2,0,-1,0,-1,-1,-1,2021-08-07 10:17:24.107666
0,-1,1,-1,-1,-1,-1,-2,2021-08-07 10:17:24.108663
-1,0,-2,-1,0,-3,-2,0,2021-08-07 10:17:24.108663
0,-2,-1,-1,-1,-1,0,-1,2021-08-07 10:17:24.108663
-1,-2,-2,2,-1,0,0,-1,2021-08-07 10:17:24.122670
-1,-1,-1,-2,1,0,-1,-2,2021-08-07 10:17:24.123669
-1,0,1,0,0,0,0,-2,2021-08-07 10:17:24.123669
-1,0,0,-1,-2,-2,-1,-1,2021-08-07 10:17:24.124669
1,-1,1,-1,-1,0,-3,-2,2021-08-07 10:17:24.161665
0,0,-1,0,-1,0,-1,0,2021-08-07 10:17:24.161665
0,0,-2,0,-1,-2,0,-2,2021-08-07 10:17:24.162667
-1,-1,-3,-2,0,-2,-1,-2,2021-08-07 10:17:24.162667
0,-1,0,-1,-1,-1,0,-1,2021-08-07 10:17:24.167667
-1,-1,0,-1,-1,0,0,-1,2021-08-07 10:17:24.168661
0,-1,0,-1,0,0,-1,0,2021-08-07 10:17:24.168661
-3,-1,0,0,0,-1,0,0,2021-08-07 10:17:24.168661
-2,-2,-1,0,-1,-1,0,1,2021-08-07 10:17:24.182670
-1,1,-1,-1,-1,0,-1,-1,2021-08-07 10:17:24.183668
0,0,0,-2,0,0,0,-1,2021-08-07 10:17:24.183668
-1,-2,0,0,-1,0,-2,-1,2021-08-07 10:17:24.184679
-1,1,0,-1,0,0,-2,0,2021-08-07 10:17:24.205668
1,0,0,-1,-1,-1,-2,-1,2021-08-07 10:17:24.205668
3,0,-3,-3,-2,0,1,0,2021-08-07 10:17:24.206662
3,0,-3,-3,-1,0,0,1,2021-08-07 10:17:24.206662
-1,-1,-4,-4,0,0,0,-1,2021-08-07 10:17:24.227665
-2,-4,-1,-1,0,0,-1,-2,2021-08-07 10:17:24.228667
-5,-2,-1,1,1,3,1,-2,2021-08-07 10:17:24.228667
-4,-2,0,1,1,0,-2,-2,2021-08-07 10:17:24.229668
-1,1,0,2,0,-1,-1,-2,2021-08-07 10:17:24.242668
1,-1,1,0,-3,-1,-3,0,2021-08-07 10:17:24.243666
0,-1,1,-1,-3,-1,-3,-1,2021-08-07 10:17:24.243666
0,0,1,-1,-1,-3,1,1,2021-08-07 10:17:24.243666
1,-1,0,0,0,0,0,2,2021-08-07 10:17:24.265667
-1,0,0,-1,0,1,0,1,2021-08-07 10:17:24.266661
-1,-1,0,-1,0,0,-2,-1,2021-08-07 10:17:24.266661
-1,0,0,-1,-1,-1,-1,-1,2021-08-07 10:17:24.266661
-1,-1,-1,-1,-1,0,-1,-1,2021-08-07 10:17:24.287666
0,-1,-1,-1,-3,0,-1,-2,2021-08-07 10:17:24.288671
0,-1,-1,0,0,-2,-2,-1,2021-08-07 10:17:24.295663
-2,0,-1,0,-1,1,-1,0,2021-08-07 10:17:24.295663
-2,-2,0,-2,-1,-2,0,-1,2021-08-07 10:17:24.302667
-1,-1,-3,-2,-1,-1,-1,0,2021-08-07 10:17:24.303671
-1,-1,-1,-3,0,-1,-1,1,2021-08-07 10:17:24.303671
0,1,-1,-1,-1,-1,0,-1,2021-08-07 10:17:24.303671
-1,-1,0,1,-1,-1,0,-2,2021-08-07 10:17:24.325669
-1,0,-2,1,-1,-1,-1,0,2021-08-07 10:17:24.325669
-1,-1,1,1,-2,-2,0,-1,2021-08-07 10:17:24.326673
-1,-3,-1,0,0,0,-2,-2,2021-08-07 10:17:24.326673
-1,0,0,0,-1,-2,-3,-2,2021-08-07 10:17:24.347668
-1,0,-1,-1,0,-2,1,-1,2021-08-07 10:17:24.348671
-1,-1,0,-2,-2,0,0,0,2021-08-07 10:17:24.348671
1,0,-1,-2,-1,0,-1,-1,2021-08-07 10:17:24.348671
1,0,-1,-1,-1,0,-2,-1,2021-08-07 10:17:24.362669
-1,-1,-2,-2,-1,-1,-1,-1,2021-08-07 10:17:24.363667
0,0,0,-3,-1,-1,-1,0,2021-08-07 10:17:24.363667
-1,0,-1,-1,-1,0,-1,0,2021-08-07 10:17:24.363667
-1,0,0,-1,-1,-2,0,-2,2021-08-07 10:17:24.385668
1,-1,0,-1,0,0,1,-1,2021-08-07 10:17:24.385668
0,-1,-1,1,-1,-1,-1,-2,2021-08-07 10:17:24.386660
-1,-2,-2,-2,-1,0,-2,-2,2021-08-07 10:17:24.386660
-1,-1,-1,-2,-1,0,1,0,2021-08-07 10:17:24.408669
-1,1,0,0,-1,1,-1,0,2021-08-07 10:17:24.408669
-1,0,-1,0,-1,0,-1,-1,2021-08-07 10:17:24.409667
-1,-2,0,-2,-1,0,0,-1,2021-08-07 10:17:24.409667
0,-1,-3,0,-2,-1,-1,-1,2021-08-07 10:17:24.423670
-1,0,0,-2,-1,1,-1,-1,2021-08-07 10:17:24.423670
-1,-1,-1,-1,0,-2,-2,0,2021-08-07 10:17:24.423670
-1,0,-2,1,-1,0,0,0,2021-08-07 10:17:24.424667
0,-1,0,0,1,0,-1,-2,2021-08-07 10:17:24.445664
1,-1,0,-1,0,-1,2,0,2021-08-07 10:17:24.445664
1,0,-2,0,-1,-1,1,-1,2021-08-07 10:17:24.446657
1,-2,0,-1,2,-1,-2,0,2021-08-07 10:17:24.446657
-1,-1,-1,-2,1,-1,-2,0,2021-08-07 10:17:24.476667
-2,0,-1,-1,0,-1,-1,-2,2021-08-07 10:17:24.476667
-2,-1,-1,-1,-1,-2,0,-1,2021-08-07 10:17:24.476667
-3,-1,-1,0,-1,0,-1,-2,2021-08-07 10:17:24.477672
0,3,-1,-2,-1,0,-2,2,2021-08-07 10:17:24.482671
-2,0,-1,-1,-1,-2,1,0,2021-08-07 10:17:24.483669
0,-1,-2,0,0,-1,-1,0,2021-08-07 10:17:24.483669
-1,-1,-1,-1,-2,0,0,-1,2021-08-07 10:17:24.484659
-1,-3,-1,0,-1,-1,0,0,2021-08-07 10:17:24.505668
-1,-1,0,-1,1,-1,-1,0,2021-08-07 10:17:24.505668
-1,-1,-1,-1,-2,-2,0,-1,2021-08-07 10:17:24.506666
0,1,-1,1,-1,-1,-1,-1,2021-08-07 10:17:24.506666
0,-2,0,-1,-1,-1,-2,-1,2021-08-07 10:17:24.528667
-1,-1,-1,2,-2,0,-2,0,2021-08-07 10:17:24.528667
0,-1,-2,-2,-2,1,-1,-3,2021-08-07 10:17:24.529675
-1,-2,0,-1,-1,-3,0,-1,2021-08-07 10:17:24.529675
-3,-1,0,-1,-2,-2,-1,0,2021-08-07 10:17:24.542667
1,0,0,0,-1,-1,0,-1,2021-08-07 10:17:24.543670
-2,-2,-2,-2,-1,-2,-2,0,2021-08-07 10:17:24.543670
0,-1,0,0,-1,-1,0,-2,2021-08-07 10:17:24.543670
-2,-2,-2,0,0,0,0,-1,2021-08-07 10:17:24.565666
1,0,0,-1,-1,-1,-2,-2,2021-08-07 10:17:24.565666
-2,-1,0,-1,-1,0,-1,-1,2021-08-07 10:17:24.566666
-2,-1,-1,-1,-2,-3,-1,1,2021-08-07 10:17:24.566666
0,0,0,0,-1,0,0,1,2021-08-07 10:17:24.588667
-2,-1,-3,0,0,0,-1,0,2021-08-07 10:17:24.588667
-1,0,0,0,0,0,1,0,2021-08-07 10:17:24.589667
0,-1,-1,-3,0,-1,-2,1,2021-08-07 10:17:24.589667
0,1,-2,-1,-2,-1,-1,-1,2021-08-07 10:17:24.602669
1,-1,1,0,1,0,-1,0,2021-08-07 10:17:24.603671
-2,-2,-1,0,-1,0,-2,-1,2021-08-07 10:17:24.603671
0,-1,-3,0,0,0,0,-1,2021-08-07 10:17:24.603671
-2,-2,1,-2,-1,0,0,0,2021-08-07 10:17:24.625665
-1,-1,-1,-2,-2,0,-2,0,2021-08-07 10:17:24.625665
-1,0,-1,-2,-2,0,-1,1,2021-08-07 10:17:24.626666
0,1,1,-1,0,-1,-1,-1,2021-08-07 10:17:24.626666
0,1,-1,0,-2,0,-2,-1,2021-08-07 10:17:24.648665
-1,1,0,0,-2,-3,-2,-1,2021-08-07 10:17:24.648665
0,-2,0,-2,0,-2,-1,1,2021-08-07 10:17:24.649666
-1,-1,-1,-1,-1,-1,-1,0,2021-08-07 10:17:24.649666
-2,-1,0,0,1,-1,0,-2,2021-08-07 10:17:24.662670
-2,-2,-1,-3,-1,-1,0,0,2021-08-07 10:17:24.663658
0,0,0,0,0,0,1,-2,2021-08-07 10:17:24.663658
0,-1,-2,-1,-3,0,-1,2,2021-08-07 10:17:24.663658
-1,-2,-3,-1,0,0,0,-1,2021-08-07 10:17:24.685663
-2,-2,-3,1,0,-1,1,1,2021-08-07 10:17:24.685663
-1,-2,-1,-1,0,-1,-1,0,2021-08-07 10:17:24.686672
0,-1,1,-1,-1,0,-1,0,2021-08-07 10:17:24.686672
0,-1,1,-2,0,-1,-1,-1,2021-08-07 10:17:24.708228
0,-2,-1,-2,0,0,0,0,2021-08-07 10:17:24.709230
0,-1,-1,0,0,-2,-2,0,2021-08-07 10:17:24.709230
-2,0,-1,0,-2,-2,-1,-1,2021-08-07 10:17:24.709230
-1,-1,-1,-1,0,0,-1,1,2021-08-07 10:17:24.723225
-1,-1,-1,-1,-2,0,0,-2,2021-08-07 10:17:24.723225
0,-1,-1,1,-1,-1,-1,0,2021-08-07 10:17:24.724225
0,-1,0,-1,-1,-1,-1,0,2021-08-07 10:17:24.724225
-1,0,-1,1,-1,-1,1,1,2021-08-07 10:17:24.745230
-1,0,0,-2,0,0,-1,-2,2021-08-07 10:17:24.746229
-1,-1,-2,0,0,0,1,-1,2021-08-07 10:17:24.746229
-2,0,0,-1,-1,-2,-2,-1,2021-08-07 10:17:24.746229
1,0,-2,-1,0,-2,0,0,2021-08-07 10:17:24.769230
-2,-1,0,0,0,-1,-3,-2,2021-08-07 10:17:24.769230
0,0,-1,0,-2,3,-1,-1,2021-08-07 10:17:24.770235
0,-2,-2,0,-1,0,0,-2,2021-08-07 10:17:24.770235
-2,-2,-1,-2,-1,0,-1,-2,2021-08-07 10:17:24.783222
-1,-1,0,-1,-3,-1,0,-2,2021-08-07 10:17:24.783222
-1,0,-1,0,-2,-2,0,0,2021-08-07 10:17:24.784221
-2,-1,-2,-1,1,-1,-3,-1,2021-08-07 10:17:24.784221
-2,0,0,-1,-2,-3,0,0,2021-08-07 10:17:24.805229
-1,-1,0,0,1,0,-1,-1,2021-08-07 10:17:24.806231
-1,0,1,-2,-1,0,-1,-2,2021-08-07 10:17:24.806231
-1,0,-1,-2,1,-1,2,-2,2021-08-07 10:17:24.807229
1,-1,-1,-1,-1,1,0,-1,2021-08-07 10:17:24.829231
0,-1,0,-1,-1,-1,0,0,2021-08-07 10:17:24.829231
-2,-3,-1,-1,0,-1,-1,0,2021-08-07 10:17:24.829231
0,0,-3,-1,0,-1,0,-1,2021-08-07 10:17:24.830234
1,0,0,0,-1,0,0,-2,2021-08-07 10:17:24.842229
0,0,-1,1,-1,-2,-1,0,2021-08-07 10:17:24.842229
-1,-1,-1,-2,-2,0,0,-2,2021-08-07 10:17:24.850232
-1,-1,-1,-1,-1,1,-1,0,2021-08-07 10:17:24.851221
-1,0,-1,-1,0,0,1,-1,2021-08-07 10:17:24.865230
-1,0,-1,-1,-2,-1,-1,-1,2021-08-07 10:17:24.866229
1,0,-1,1,0,-1,-1,-2,2021-08-07 10:17:24.866229
-1,-1,-1,0,-1,-1,-1,-1,2021-08-07 10:17:24.866229
0,-1,0,1,0,-1,-1,0,2021-08-07 10:17:24.889227
-3,0,-1,0,0,1,-2,-2,2021-08-07 10:17:24.889227
-2,-2,-2,-2,-1,-1,0,0,2021-08-07 10:17:24.890233
0,-1,-1,-2,-1,-1,1,-2,2021-08-07 10:17:24.890233
0,0,-1,-2,0,-1,-1,-1,2021-08-07 10:17:24.910804
1,0,-1,-2,-1,-1,0,-2,2021-08-07 10:17:24.911809
1,-1,-2,0,0,-1,-2,-1,2021-08-07 10:17:24.911809
1,-1,-2,2,-2,-1,-2,1,2021-08-07 10:17:24.911809
-3,-1,-1,0,-1,0,-2,0,2021-08-07 10:17:24.925805
-2,-1,1,-1,-1,-1,-1,1,2021-08-07 10:17:24.925805
-2,0,1,1,-1,-2,-1,-1,2021-08-07 10:17:24.926805
-3,-2,1,0,-2,-3,-1,-1,2021-08-07 10:17:24.926805
-1,-2,1,-1,-2,-1,0,-1,2021-08-07 10:17:24.955806
2,-1,-2,-3,-1,0,0,2,2021-08-07 10:17:24.956798
1,0,-2,-3,-1,0,2,3,2021-08-07 10:17:24.956798
0,-1,-3,-3,1,0,0,0,2021-08-07 10:17:24.957803
-1,-2,-4,-1,1,0,-1,-1,2021-08-07 10:17:24.962799
-2,-3,-2,0,2,0,-1,-5,2021-08-07 10:17:24.962799
-4,-2,-1,0,0,-1,-2,-4,2021-08-07 10:17:24.970798
-1,0,1,0,-2,-2,-2,-3,2021-08-07 10:17:24.971803
-2,1,0,-1,-2,-3,-2,-2,2021-08-07 10:17:24.985803
0,0,1,0,-2,-2,0,1,2021-08-07 10:17:24.986802
1,-1,-2,1,-1,0,0,0,2021-08-07 10:17:24.986802
-1,-2,-1,0,0,0,1,-2,2021-08-07 10:17:24.986802
1,0,0,-2,-2,0,-1,-1,2021-08-07 10:17:25.008803
0,-1,-1,0,-2,-3,0,0,2021-08-07 10:17:25.008803
0,-2,1,-2,-1,0,-1,-2,2021-08-07 10:17:25.009800
-1,-1,0,1,-1,0,-1,1,2021-08-07 10:17:25.009800
-1,-3,-1,0,-1,1,-1,-1,2021-08-07 10:17:25.022803
-2,-1,0,-1,1,-2,0,-2,2021-08-07 10:17:25.022803
-1,1,-1,-1,0,-1,-3,0,2021-08-07 10:17:25.030794
0,-1,-1,-1,-2,-1,-1,0,2021-08-07 10:17:25.030794
-2,-1,-1,1,0,-1,-1,-1,2021-08-07 10:17:25.045799
0,-2,-1,1,-2,1,-1,1,2021-08-07 10:17:25.045799
-1,0,-3,-1,-2,-1,0,-2,2021-08-07 10:17:25.046793
0,0,0,-1,0,-1,-1,1,2021-08-07 10:17:25.046793
-1,-1,0,-1,0,-1,0,0,2021-08-07 10:17:25.068802
-1,-2,-2,-1,-1,-1,0,0,2021-08-07 10:17:25.069791
-1,-1,-1,-1,-1,-1,0,-2,2021-08-07 10:17:25.069791
-2,-2,-1,0,-1,0,-1,-3,2021-08-07 10:17:25.069791
-1,-1,-2,0,0,0,-1,-1,2021-08-07 10:17:25.081802
0,-1,-1,0,0,0,-1,-3,2021-08-07 10:17:25.082802
-1,-1,-1,-1,0,0,0,0,2021-08-07 10:17:25.090803
-1,-1,-1,-1,-2,-1,0,1,2021-08-07 10:17:25.090803
0,-1,0,1,0,1,0,0,2021-08-07 10:17:25.105803
-2,0,-1,0,0,0,-2,0,2021-08-07 10:17:25.105803
0,-2,0,0,-1,0,-1,-1,2021-08-07 10:17:25.106802
0,0,-3,-1,-2,0,-1,0,2021-08-07 10:17:25.106802
0,-1,-2,0,0,-2,-1,0,2021-08-07 10:17:25.128806
1,-1,1,0,-1,-2,-1,-1,2021-08-07 10:17:25.128806
0,0,-1,-1,-1,-2,-1,0,2021-08-07 10:17:25.129802
0,0,-2,0,0,2,0,0,2021-08-07 10:17:25.129802
-1,1,-2,-1,0,1,-1,0,2021-08-07 10:17:25.151803
-1,-2,-2,-2,-1,-1,-1,-2,2021-08-07 10:17:25.151803
-1,-1,0,0,-1,-1,0,-1,2021-08-07 10:17:25.151803
-1,-2,-1,-1,0,-2,-1,-1,2021-08-07 10:17:25.152807
-1,-1,-1,-1,-2,0,-1,0,2021-08-07 10:17:25.165798
-1,-1,-2,0,-2,-1,-3,-1,2021-08-07 10:17:25.165798
-3,0,-2,0,-3,-1,0,0,2021-08-07 10:17:25.166795
-1,1,0,-2,-1,-1,0,-2,2021-08-07 10:17:25.166795
0,-1,0,-2,2,-1,0,-1,2021-08-07 10:17:25.188804
-1,0,0,-1,-1,0,-2,0,2021-08-07 10:17:25.189803
0,-2,-1,-1,-1,-1,-1,-1,2021-08-07 10:17:25.189803
-1,-1,1,0,0,-1,0,1,2021-08-07 10:17:25.189803
0,0,-3,-2,-1,-1,-2,1,2021-08-07 10:17:25.210802
-2,1,-2,0,-1,-2,0,-2,2021-08-07 10:17:25.211804
-1,-2,-3,-1,0,1,-3,0,2021-08-07 10:17:25.211804
-2,-1,-2,-2,-2,-2,0,-2,2021-08-07 10:17:25.211804
2,-1,0,-1,-1,0,1,-1,2021-08-07 10:17:25.225804
-1,0,-1,-1,-1,-1,-1,0,2021-08-07 10:17:25.225804
0,-1,-1,0,0,-1,-2,-2,2021-08-07 10:17:25.226802
-2,-1,-1,1,-1,-1,0,-1,2021-08-07 10:17:25.226802
-1,-1,-1,0,0,-2,1,0,2021-08-07 10:17:25.248803
0,-1,-3,-1,-2,1,0,-1,2021-08-07 10:17:25.249806
-1,-1,0,-2,-1,0,0,0,2021-08-07 10:17:25.249806
0,-1,0,0,1,0,-1,0,2021-08-07 10:17:25.249806
-1,0,-1,0,0,-1,-1,-2,2021-08-07 10:17:25.270800
0,-1,0,0,-1,0,0,-1,2021-08-07 10:17:25.270800
-1,-2,-2,0,-3,1,-1,-2,2021-08-07 10:17:25.277802
-1,0,-2,0,-1,0,0,-2,2021-08-07 10:17:25.278799
-2,-1,-1,-1,-2,-3,-2,-1,2021-08-07 10:17:25.285803
-1,-2,-1,-1,-1,-1,0,-1,2021-08-07 10:17:25.285803
-2,-1,-1,-2,-1,0,-2,0,2021-08-07 10:17:25.286803
0,0,-1,0,-1,0,-2,-1,2021-08-07 10:17:25.286803
-1,-3,-1,-1,1,-2,-1,0,2021-08-07 10:17:25.308803
1,0,0,0,-1,-2,-1,-1,2021-08-07 10:17:25.309804
-1,1,0,-1,-1,-2,-1,-1,2021-08-07 10:17:25.309804
-1,0,-1,-2,-2,-1,-2,-1,2021-08-07 10:17:25.310799
-2,-1,-1,-1,-2,0,-1,0,2021-08-07 10:17:25.331804
-1,-2,-2,1,-2,-1,-2,-1,2021-08-07 10:17:25.331804
-1,-1,0,1,0,1,-1,-1,2021-08-07 10:17:25.332805
0,-1,1,1,1,-1,-2,0,2021-08-07 10:17:25.332805
-1,1,-1,-1,-1,0,0,-1,2021-08-07 10:17:25.345804
-1,-1,-2,0,-2,-1,-1,0,2021-08-07 10:17:25.345804
1,1,-1,-1,-2,-1,-1,0,2021-08-07 10:17:25.346794
-1,-1,-2,-2,-1,-1,-1,0,2021-08-07 10:17:25.346794
0,0,0,0,-1,0,-1,-1,2021-08-07 10:17:25.368802
-1,-2,-2,-1,-2,-3,0,0,2021-08-07 10:17:25.369804
-1,-1,0,-3,0,-1,0,0,2021-08-07 10:17:25.369804
0,0,-2,0,-2,0,-2,0,2021-08-07 10:17:25.369804
1,-1,-2,-1,-1,1,-1,-1,2021-08-07 10:17:25.390801
0,0,0,-1,-1,-3,1,-1,2021-08-07 10:17:25.391813
-1,-2,-1,-1,-1,-2,0,-2,2021-08-07 10:17:25.391813
0,-3,-2,0,-1,1,-1,1,2021-08-07 10:17:25.391813
-2,-1,-1,1,-2,0,-2,0,2021-08-07 10:17:25.405803
-2,-1,-1,-2,0,1,-1,-1,2021-08-07 10:17:25.405803
0,-2,-1,-1,-3,-1,-1,-1,2021-08-07 10:17:25.405803
-1,0,0,-1,0,0,0,-1,2021-08-07 10:17:25.406802
-1,-1,-1,1,-1,-2,-4,-2,2021-08-07 10:17:25.428798
-2,-1,-2,0,0,0,-1,0,2021-08-07 10:17:25.429797
0,-1,0,1,0,-2,0,-2,2021-08-07 10:17:25.429797
-3,-2,0,-2,-1,-2,-2,-1,2021-08-07 10:17:25.429797
-1,-1,-1,-1,1,0,0,-2,2021-08-07 10:17:25.451794
1,0,0,-1,-2,0,0,1,2021-08-07 10:17:25.451794
-1,1,0,-1,1,0,0,1,2021-08-07 10:17:25.452803
0,-1,-2,-2,-2,1,-2,0,2021-08-07 10:17:25.452803
-1,0,-2,-2,-2,-1,-1,0,2021-08-07 10:17:25.465804
1,-1,-1,0,1,-2,-1,0,2021-08-07 10:17:25.465804
-1,0,-3,1,0,-1,0,0,2021-08-07 10:17:25.465804
1,0,-1,-1,0,-1,0,-1,2021-08-07 10:17:25.466805
-2,0,0,-1,-1,-1,0,0,2021-08-07 10:17:25.488802
0,-2,0,-2,0,1,0,-2,2021-08-07 10:17:25.489804
-1,-2,-2,0,0,-2,-1,0,2021-08-07 10:17:25.489804
0,-1,-2,0,0,0,1,0,2021-08-07 10:17:25.489804
0,-1,-1,1,-1,1,-1,-1,2021-08-07 10:17:25.510803
-1,-1,-3,0,-1,-1,-2,-2,2021-08-07 10:17:25.511805
-1,-1,-1,-2,0,-1,0,1,2021-08-07 10:17:25.511805
0,-2,0,-2,-1,-1,-1,-1,2021-08-07 10:17:25.512807
-1,-1,-2,-1,1,-1,-1,-1,2021-08-07 10:17:25.525792
-1,-1,-2,-1,0,-3,-2,0,2021-08-07 10:17:25.525792
-2,-1,-2,-2,-2,-1,-1,-3,2021-08-07 10:17:25.526799
0,-3,0,-1,-2,-1,0,0,2021-08-07 10:17:25.526799
1,2,-1,-2,-2,0,-1,-3,2021-08-07 10:17:25.547804
0,-1,1,-1,-2,-1,-3,-1,2021-08-07 10:17:25.547804
-1,-1,0,-1,-1,-1,-2,-1,2021-08-07 10:17:25.562802
-2,-1,-1,-1,0,-1,-1,0,2021-08-07 10:17:25.563806
0,-2,1,0,-2,0,0,-1,2021-08-07 10:17:25.570802
-1,-1,-1,-1,1,0,0,0,2021-08-07 10:17:25.571799
0,-2,-1,0,-1,-1,0,-1,2021-08-07 10:17:25.571799
-1,-1,1,-1,0,-1,-1,-2,2021-08-07 10:17:25.571799
-2,-1,-1,-2,-1,-2,-1,-1,2021-08-07 10:17:25.585803
0,0,0,-1,-2,0,-2,-1,2021-08-07 10:17:25.585803
0,-1,-1,-1,-1,-1,0,0,2021-08-07 10:17:25.586794
0,0,-3,-1,-2,-1,-2,-1,2021-08-07 10:17:25.586794
-1,-3,-1,0,0,-3,1,0,2021-08-07 10:17:25.608803
-1,0,0,-1,-1,0,0,-1,2021-08-07 10:17:25.608803
-1,-1,-1,-1,-1,-2,-1,0,2021-08-07 10:17:25.609792
0,-1,-1,0,-1,-1,0,-1,2021-08-07 10:17:25.609792
0,0,0,-1,-3,-1,-1,-1,2021-08-07 10:17:25.630801
-1,0,-1,-1,-1,-1,0,0,2021-08-07 10:17:25.631803
0,0,-1,1,-2,-1,-1,-1,2021-08-07 10:17:25.631803
-2,-1,0,-1,0,-2,-1,0,2021-08-07 10:17:25.632794
0,-1,-1,-1,0,-1,-1,0,2021-08-07 10:17:25.645798
-2,-2,0,-2,0,0,-1,-1,2021-08-07 10:17:25.645798
0,0,-1,0,-1,-1,0,-3,2021-08-07 10:17:25.646798
0,0,-2,0,-2,-3,0,0,2021-08-07 10:17:25.646798
-1,0,0,-1,-2,0,-1,-2,2021-08-07 10:17:25.676800
-1,-1,-1,1,-2,-1,0,1,2021-08-07 10:17:25.676800
-2,-1,-2,0,0,-1,0,-1,2021-08-07 10:17:25.676800
-1,0,1,-1,1,1,-2,-3,2021-08-07 10:17:25.676800
-1,-1,0,-1,-2,-1,-3,-1,2021-08-07 10:17:25.691807
0,-1,-2,1,-1,-2,0,0,2021-08-07 10:17:25.691807
1,0,-2,-1,-3,-1,-1,1,2021-08-07 10:17:25.691807
2,0,-1,-2,-1,0,1,2,2021-08-07 10:17:25.691807
1,-1,-4,-2,-1,0,1,4,2021-08-07 10:17:25.705800
-1,0,-4,-1,0,-1,0,0,2021-08-07 10:17:25.705800
-4,-3,-2,-1,2,1,0,-4,2021-08-07 10:17:25.706802
-5,-5,-1,0,1,0,-2,-4,2021-08-07 10:17:25.706802
-2,-2,1,2,0,-1,-4,-4,2021-08-07 10:17:25.728803
-1,1,1,1,-3,-4,-3,-3,2021-08-07 10:17:25.728803
-1,-1,2,0,-2,-1,-2,0,2021-08-07 10:17:25.729792
1,1,0,-1,-2,-1,0,1,2021-08-07 10:17:25.729792
-1,1,0,-2,-1,0,1,1,2021-08-07 10:17:25.751793
0,1,1,-2,0,-1,0,0,2021-08-07 10:17:25.751793
1,0,-2,-2,0,1,-2,-1,2021-08-07 10:17:25.752796
-1,-1,-1,-1,-1,-1,0,-2,2021-08-07 10:17:25.752796
0,-1,-1,-1,-1,-1,0,-1,2021-08-07 10:17:25.764807
-1,0,-2,-2,-1,1,0,0,2021-08-07 10:17:25.764807
-1,-1,0,0,-1,0,0,0,2021-08-07 10:17:25.773802
0,-1,0,-1,0,-2,-2,2,2021-08-07 10:17:25.773802
-1,0,-2,-1,0,-3,-1,-1,2021-08-07 10:17:25.788805
-2,-1,-1,0,0,0,0,-2,2021-08-07 10:17:25.788805
-2,-1,-1,-1,-1,-1,-1,-2,2021-08-07 10:17:25.789800
0,0,-1,0,0,-2,-1,0,2021-08-07 10:17:25.790807
1,0,-1,-1,0,0,-1,-2,2021-08-07 10:17:25.810801
0,-1,1,0,0,0,1,0,2021-08-07 10:17:25.811799
0,-2,-2,0,-2,-1,-1,-1,2021-08-07 10:17:25.812804
-3,0,0,-1,-1,0,-1,-2,2021-08-07 10:17:25.813803
-1,-1,-1,0,-3,-1,0,-1,2021-08-07 10:17:25.824805
0,0,-1,0,-2,1,0,1,2021-08-07 10:17:25.824805
-1,-1,-2,-2,-1,-1,0,1,2021-08-07 10:17:25.833800
0,-1,-1,1,1,-1,-2,1,2021-08-07 10:17:25.834803
1,0,-2,0,0,0,-3,0,2021-08-07 10:17:25.847803
-1,-2,-2,-5,-2,-1,-2,-3,2021-08-07 10:17:25.847803
0,0,-3,-6,-1,-2,0,1,2021-08-07 10:17:25.862802
0,0,-1,-1,-2,-3,-1,-2,2021-08-07 10:17:25.862802
-1,0,-1,1,1,0,-1,0,2021-08-07 10:17:25.878804
0,0,0,2,0,1,-2,-1,2021-08-07 10:17:25.878804
1,1,-1,2,0,-2,-1,-1,2021-08-07 10:17:25.879793
-2,-2,-1,-1,-1,-1,-2,-1,2021-08-07 10:17:25.880800
-3,-1,0,0,0,-1,-1,-1,2021-08-07 10:17:25.884795
0,-1,1,0,-1,-1,-1,0,2021-08-07 10:17:25.885794
-3,-1,1,1,-1,0,-2,0,2021-08-07 10:17:25.893807
1,0,-1,-1,0,1,0,-2,2021-08-07 10:17:25.893807
-2,-2,0,-2,-2,-1,0,-1,2021-08-07 10:17:25.908792
-1,-2,-1,-1,0,-2,-1,-1,2021-08-07 10:17:25.908792
-1,-1,0,-1,-2,0,1,-1,2021-08-07 10:17:25.916806
-1,-1,-1,-1,-1,-1,-1,-1,2021-08-07 10:17:25.916806
-1,0,-2,-2,-2,-1,1,0,2021-08-07 10:17:25.930807
-1,-1,0,0,-1,-1,0,0,2021-08-07 10:17:25.931798
1,-1,-1,0,-1,-1,-1,-1,2021-08-07 10:17:25.932804
-1,-1,-1,-1,-2,-3,-1,0,2021-08-07 10:17:25.932804
0,0,-2,-1,0,-1,-2,-1,2021-08-07 10:17:25.944803
-1,-1,-1,1,-1,0,-1,0,2021-08-07 10:17:25.945803
-1,-1,-1,0,-1,1,-1,-3,2021-08-07 10:17:25.953801
1,-1,-1,-1,-1,0,-2,-2,2021-08-07 10:17:25.953801
-1,-1,1,-2,-1,-2,0,-1,2021-08-07 10:17:25.968794
-1,-1,-2,-1,0,-2,-1,-1,2021-08-07 10:17:25.969795
0,-2,-1,1,0,0,0,-1,2021-08-07 10:17:25.969795
-3,-1,0,-3,0,-1,-1,-1,2021-08-07 10:17:25.970799
0,0,-1,0,-2,0,-1,0,2021-08-07 10:17:25.990803
0,0,-1,-2,0,-2,-1,-1,2021-08-07 10:17:25.991799
-2,0,0,-1,-1,-1,-2,0,2021-08-07 10:17:25.992806
-1,-2,-1,-1,0,-1,0,-1,2021-08-07 10:17:25.992806
-1,-1,0,-2,0,-1,-2,-3,2021-08-07 10:17:26.004803
-3,0,-1,-2,0,0,-1,-2,2021-08-07 10:17:26.004803
0,1,-1,2,-1,0,0,1,2021-08-07 10:17:26.013805
-1,0,0,-1,-1,0,0,-1,2021-08-07 10:17:26.014804
0,1,-1,0,0,-2,0,-1,2021-08-07 10:17:26.028803
-1,-1,-2,-2,-1,-1,-2,0,2021-08-07 10:17:26.029794
-1,-2,0,-2,0,-2,-2,-1,2021-08-07 10:17:26.030797
-1,-1,-2,0,0,0,-1,-1,2021-08-07 10:17:26.030797
0,-1,-1,1,-1,-1,-1,0,2021-08-07 10:17:26.051795
0,0,-1,0,-1,-2,-1,-2,2021-08-07 10:17:26.051795
-1,0,1,-1,-1,-1,-2,-3,2021-08-07 10:17:26.052802
-3,-1,-1,0,-1,0,0,0,2021-08-07 10:17:26.053793
-2,-2,-2,-1,-1,-1,0,-1,2021-08-07 10:17:26.064807
0,-2,0,0,0,-2,0,0,2021-08-07 10:17:26.065801
0,-2,-3,-2,-1,-1,-1,-1,2021-08-07 10:17:26.073792
-1,0,-1,-1,-2,-1,0,0,2021-08-07 10:17:26.073792
0,1,0,0,0,-2,1,0,2021-08-07 10:17:26.103805
-2,-2,0,0,-1,-1,1,-1,2021-08-07 10:17:26.103805
-1,0,-3,-1,0,0,0,0,2021-08-07 10:17:26.104807
0,0,0,-2,-1,-2,-1,-1,2021-08-07 10:17:26.105799
-1,-1,-2,-2,-2,-1,-2,-1,2021-08-07 10:17:26.110804
-1,1,-1,-1,-2,0,0,-1,2021-08-07 10:17:26.111806
-1,-3,-1,0,0,0,-1,0,2021-08-07 10:17:26.112804
-1,0,-2,-2,0,-1,-1,-2,2021-08-07 10:17:26.112804
-2,-1,-1,0,0,-1,-2,0,2021-08-07 10:17:26.140802
0,-1,-2,-1,-1,-1,-2,0,2021-08-07 10:17:26.141802
-1,0,0,0,-2,-1,0,-2,2021-08-07 10:17:26.142805
0,0,-1,-1,-1,0,1,-1,2021-08-07 10:17:26.142805
1,-1,0,-1,0,0,-1,-1,2021-08-07 10:17:26.148800
-1,-1,-1,-2,0,-1,0,0,2021-08-07 10:17:26.148800
-1,-1,0,-2,-2,-1,-1,0,2021-08-07 10:17:26.150805
0,1,-2,1,-1,-1,-1,-1,2021-08-07 10:17:26.150805
-1,-1,-2,0,0,0,0,-2,2021-08-07 10:17:26.170805
0,-1,-3,-2,-1,0,0,-1,2021-08-07 10:17:26.171809
-2,-1,-2,0,-1,-1,0,-1,2021-08-07 10:17:26.172798
-1,0,0,-1,0,0,1,-1,2021-08-07 10:17:26.172798
-2,-1,-1,-2,-1,-2,-1,-2,2021-08-07 10:17:26.193792
-2,-1,-1,-1,-1,2,-1,-2,2021-08-07 10:17:26.193792
-1,-2,-1,-1,-2,-1,0,-3,2021-08-07 10:17:26.195796
0,-2,-1,1,-2,-1,-2,-1,2021-08-07 10:17:26.195796
-1,-1,-2,1,0,0,-1,-1,2021-08-07 10:17:26.208804
-1,-1,1,-1,-2,-2,-2,-2,2021-08-07 10:17:26.208804
0,0,-1,-2,0,-2,0,0,2021-08-07 10:17:26.209804
-2,-1,-1,1,-1,-1,-1,1,2021-08-07 10:17:26.210801
-1,-1,-2,-1,0,-1,-2,0,2021-08-07 10:17:26.230800
0,-1,-2,-1,-1,0,0,-1,2021-08-07 10:17:26.231798
-1,-1,0,-3,-2,0,-2,0,2021-08-07 10:17:26.232803
0,-2,-1,-1,0,-1,-1,-1,2021-08-07 10:17:26.233802
-2,-2,-1,0,-2,0,0,0,2021-08-07 10:17:26.253802
-1,-1,-3,-1,1,-2,0,-2,2021-08-07 10:17:26.254802
0,-1,0,-1,0,1,-1,0,2021-08-07 10:17:26.254802
-1,-2,-2,-1,0,0,-1,0,2021-08-07 10:17:26.255802
1,-3,-1,-2,-1,-1,0,-1,2021-08-07 10:17:26.267802
-2,-1,0,0,-2,-1,-1,-1,2021-08-07 10:17:26.268811
0,-1,-2,0,0,-1,-2,-2,2021-08-07 10:17:26.274801
-1,-1,0,-1,-2,0,0,0,2021-08-07 10:17:26.274801
-1,-1,-1,-3,-2,-2,0,-1,2021-08-07 10:17:26.290802
-1,-1,-1,0,-1,0,0,0,2021-08-07 10:17:26.291797
0,0,-1,0,0,-2,0,-1,2021-08-07 10:17:26.292804
-1,-1,-2,1,-1,-2,-1,0,2021-08-07 10:17:26.292804
0,0,0,-1,-1,1,-1,-1,2021-08-07 10:17:26.313804
0,-1,-1,-2,-1,-1,0,0,2021-08-07 10:17:26.313804
-1,-1,0,-1,-1,-1,0,-1,2021-08-07 10:17:26.315801
-1,-2,-2,-2,0,0,-2,-1,2021-08-07 10:17:26.315801
-2,-1,-1,0,-2,-2,-1,0,2021-08-07 10:17:26.327804
-2,-1,-2,0,-2,-1,0,0,2021-08-07 10:17:26.328797
-1,-1,0,2,-1,-2,0,-2,2021-08-07 10:17:26.334802
0,0,-1,0,-1,-1,0,-2,2021-08-07 10:17:26.334802
-1,-1,-1,0,0,-1,-1,0,2021-08-07 10:17:26.351809
-2,0,1,-1,-1,-1,-1,-2,2021-08-07 10:17:26.351809
-1,0,-1,-1,0,-1,0,-1,2021-08-07 10:17:26.352792
-1,-2,1,-2,-2,-1,0,-1,2021-08-07 10:17:26.353793
0,-1,0,-2,-1,-1,-2,-2,2021-08-07 10:17:26.373804
0,-1,-1,0,0,-1,1,-1,2021-08-07 10:17:26.373804
0,0,-1,-2,-2,-1,-2,0,2021-08-07 10:17:26.379804
0,0,0,0,-1,-1,-2,0,2021-08-07 10:17:26.379804
-2,-1,-1,-1,-2,-1,1,0,2021-08-07 10:17:26.387801
-1,-1,-2,-1,1,0,0,0,2021-08-07 10:17:26.388798
-2,-3,0,0,-2,-2,-2,1,2021-08-07 10:17:26.394801
-1,0,-1,-1,0,-1,-1,-1,2021-08-07 10:17:26.394801
-3,0,-1,-1,-1,-1,-1,0,2021-08-07 10:17:26.425803
-1,-1,-1,-1,-1,-2,-3,-1,2021-08-07 10:17:26.426800
-2,-3,-1,-1,-2,0,-1,0,2021-08-07 10:17:26.427804
-2,-1,0,-1,0,-2,-1,-2,2021-08-07 10:17:26.428802
-2,-1,-1,0,-1,0,-1,-2,2021-08-07 10:17:26.433802
-1,-1,0,-1,0,2,-2,-2,2021-08-07 10:17:26.433802
1,-2,-2,-2,0,-1,0,-1,2021-08-07 10:17:26.434802
2,-1,-2,-2,-4,0,1,2,2021-08-07 10:17:26.435799
3,-1,-1,-3,0,0,2,1,2021-08-07 10:17:26.447806
0,-3,-3,-3,-1,1,1,0,2021-08-07 10:17:26.448804
-3,-3,-3,-2,0,2,-3,-4,2021-08-07 10:17:26.454805
-5,-3,-2,1,1,0,-1,-3,2021-08-07 10:17:26.455811
-5,-2,0,3,0,-2,-3,-4,2021-08-07 10:17:26.470805
-4,-1,1,2,-1,-3,-2,-1,2021-08-07 10:17:26.471802
0,0,0,-1,-3,-4,0,-1,2021-08-07 10:17:26.472804
1,0,0,0,-1,-1,0,-1,2021-08-07 10:17:26.472804
2,0,0,-1,-1,0,0,2,2021-08-07 10:17:26.493803
0,-1,-1,0,0,-2,0,0,2021-08-07 10:17:26.493803
-1,0,-1,-1,-1,1,0,-1,2021-08-07 10:17:26.495801
-1,-2,-2,-2,0,-2,-2,0,2021-08-07 10:17:26.495801
-1,0,-1,-1,-1,0,-1,0,2021-08-07 10:17:26.507800
-1,0,-1,0,0,-1,-2,0,2021-08-07 10:17:26.508792
-1,0,-1,-1,0,-1,-1,2,2021-08-07 10:17:26.514805
1,-1,-1,-2,-2,-3,-1,-2,2021-08-07 10:17:26.514805
0,-2,-2,1,0,-1,0,-1,2021-08-07 10:17:26.531807
0,-2,-1,-1,-3,-1,-1,0,2021-08-07 10:17:26.531807
0,0,0,-2,0,0,-1,-2,2021-08-07 10:17:26.532804
-2,0,-1,-1,-1,1,-1,-1,2021-08-07 10:17:26.533804
0,-2,0,-2,-1,-1,-1,0,2021-08-07 10:17:26.553799
-1,-2,-1,-1,-1,-1,-1,-1,2021-08-07 10:17:26.553799
-1,-1,0,-1,0,-1,-1,1,2021-08-07 10:17:26.554792
-1,-1,-1,-2,-1,0,-1,-2,2021-08-07 10:17:26.555801
-2,0,0,0,0,-2,0,-3,2021-08-07 10:17:26.567798
-2,1,-2,-1,-1,-3,-1,-2,2021-08-07 10:17:26.568796
0,-1,-2,-2,-2,-1,-1,-2,2021-08-07 10:17:26.574792
-3,-1,-1,0,0,0,-1,1,2021-08-07 10:17:26.574792
-2,1,-2,0,-2,0,0,-1,2021-08-07 10:17:26.590802
-1,-2,-1,-2,-2,0,-2,-2,2021-08-07 10:17:26.591805
-1,-3,-1,0,-1,-2,-1,-2,2021-08-07 10:17:26.592802
-1,1,0,0,-1,-1,0,-1,2021-08-07 10:17:26.592802
0,0,-1,-2,-1,0,-2,-1,2021-08-07 10:17:26.613792
0,-2,-1,0,-2,0,-1,0,2021-08-07 10:17:26.613792
-1,-1,0,0,-1,-1,-1,-1,2021-08-07 10:17:26.615807
0,-1,1,-1,-2,-2,-2,-1,2021-08-07 10:17:26.615807
-2,-1,-1,-1,-1,0,-1,-2,2021-08-07 10:17:26.627803
-2,0,0,-4,-1,-2,-1,-1,2021-08-07 10:17:26.627803
0,0,-2,-1,-1,-1,-1,0,2021-08-07 10:17:26.636794
0,-1,-1,-1,-1,-1,0,0,2021-08-07 10:17:26.636794
0,0,-1,-2,0,-1,0,-1,2021-08-07 10:17:26.651801
0,-2,-1,-1,0,0,-1,-1,2021-08-07 10:17:26.651801
0,0,0,0,-2,0,0,-1,2021-08-07 10:17:26.652796
0,0,-2,-2,1,1,0,-2,2021-08-07 10:17:26.653804
1,0,-1,0,0,-2,0,0,2021-08-07 10:17:26.673792
-1,0,-1,0,0,-1,0,-1,2021-08-07 10:17:26.674805
0,0,-1,0,1,-1,-1,1,2021-08-07 10:17:26.675804
0,0,-1,0,-1,0,-1,0,2021-08-07 10:17:26.675804
-1,-1,0,-2,-1,0,-1,-1,2021-08-07 10:17:26.695806
-1,-1,-1,0,-2,-1,-1,0,2021-08-07 10:17:26.696794
0,-2,0,-2,0,0,-3,-1,2021-08-07 10:17:26.697803
0,0,-1,0,0,0,1,-1,2021-08-07 10:17:26.697803
-2,-3,-1,-2,-2,0,-1,0,2021-08-07 10:17:26.710802
-1,-2,-2,0,-2,1,-1,-2,2021-08-07 10:17:26.711803
-1,-1,-2,0,-1,1,-1,0,2021-08-07 10:17:26.712806
-1,-2,-1,-1,-1,0,0,-1,2021-08-07 10:17:26.712806
-1,-1,-2,-1,0,-1,-2,-1,2021-08-07 10:17:26.734803
0,0,1,0,-1,-1,-1,-1,2021-08-07 10:17:26.734803
1,-1,0,-1,0,-1,-1,0,2021-08-07 10:17:26.735803
-1,1,-1,-1,0,-1,-1,0,2021-08-07 10:17:26.736804
-1,-1,-1,-1,0,1,0,-2,2021-08-07 10:17:26.747795
-2,1,0,-1,-3,-2,0,0,2021-08-07 10:17:26.747795
-1,0,-1,-1,-2,-1,1,-2,2021-08-07 10:17:26.756807
0,0,0,-1,-2,0,-2,0,2021-08-07 10:17:26.756807
-1,-1,-1,0,-2,-2,-2,0,2021-08-07 10:17:26.771801
-2,-1,-1,0,0,1,-1,0,2021-08-07 10:17:26.771801
0,-1,-1,0,0,-1,-1,-1,2021-08-07 10:17:26.772805
-2,-2,-1,-2,-1,-1,-2,-1,2021-08-07 10:17:26.772805
-1,-1,-2,-1,-1,-1,1,0,2021-08-07 10:17:26.800803
-1,-2,0,0,1,-1,-2,-1,2021-08-07 10:17:26.801801
-1,-1,-1,-1,-2,-2,-1,-1,2021-08-07 10:17:26.802796
0,-1,0,2,-1,0,-1,-2,2021-08-07 10:17:26.802796
0,-1,-2,0,-2,-2,-2,0,2021-08-07 10:17:26.807803
1,-1,-1,-1,0,0,-1,0,2021-08-07 10:17:26.807803
-1,1,-1,-2,0,-1,0,-1,2021-08-07 10:17:26.816794
-2,0,-2,1,-1,-2,-1,-1,2021-08-07 10:17:26.816794
-1,-1,-1,-1,0,-2,0,0,2021-08-07 10:17:26.831799
-1,0,-1,-2,-1,0,0,-1,2021-08-07 10:17:26.831799
0,-1,-1,-2,-1,-2,-2,0,2021-08-07 10:17:26.832808
-1,-1,-2,0,-1,0,-1,0,2021-08-07 10:17:26.833801
-1,0,-1,-1,0,0,-1,-2,2021-08-07 10:17:26.853798
-2,-2,-1,-2,-1,-1,-1,0,2021-08-07 10:17:26.853798
-1,0,-2,-1,0,0,0,-1,2021-08-07 10:17:26.855805
0,-2,-2,-1,0,-1,0,-1,2021-08-07 10:17:26.855805
0,0,1,-2,-1,0,-2,-1,2021-08-07 10:17:26.867800
-1,-2,-1,0,-1,0,-1,-2,2021-08-07 10:17:26.867800
-3,-1,0,0,-2,0,-1,-2,2021-08-07 10:17:26.876800
-2,-1,-2,-3,-2,-1,-2,0,2021-08-07 10:17:26.876800
-1,-1,-2,0,-1,-1,-1,-1,2021-08-07 10:17:26.890794
0,0,-1,-1,-2,-1,-1,-1,2021-08-07 10:17:26.891792
0,-1,1,-1,0,-1,0,-1,2021-08-07 10:17:26.892384
-1,1,0,0,-1,0,0,0,2021-08-07 10:17:26.893337
0,-1,-1,-1,1,0,-1,-2,2021-08-07 10:17:26.913906
-1,-1,0,-1,-1,-2,0,-1,2021-08-07 10:17:26.913906
-2,-1,-3,-1,0,0,0,-2,2021-08-07 10:17:26.914908
0,0,1,-2,-1,-1,0,-1,2021-08-07 10:17:26.915910
-1,-1,0,-1,0,-1,-1,-1,2021-08-07 10:17:26.927912
-2,-1,-1,0,0,-2,-2,-1,2021-08-07 10:17:26.927912
-1,-1,-2,-2,-2,0,-2,1,2021-08-07 10:17:26.943902
0,-1,-1,-2,0,0,-1,-1,2021-08-07 10:17:26.943902
-1,-2,-1,-2,-1,-2,-2,0,2021-08-07 10:17:26.951913
0,-1,-2,-1,-1,0,-2,-1,2021-08-07 10:17:26.951913
0,0,-1,0,0,-2,0,1,2021-08-07 10:17:26.952913
0,-1,0,-1,-2,0,1,-2,2021-08-07 10:17:26.952913
-2,0,-3,0,-1,0,1,0,2021-08-07 10:17:26.980913
-3,0,-1,-1,-2,1,-1,-2,2021-08-07 10:17:26.981912
0,-1,-2,1,-2,-1,-1,-2,2021-08-07 10:17:26.982909
-1,-3,1,-1,-1,-2,-1,-1,2021-08-07 10:17:26.982909
0,0,0,-1,-1,0,0,-1,2021-08-07 10:17:26.996913
0,-1,0,0,0,-1,0,-1,2021-08-07 10:17:26.996913
0,-1,0,0,-2,-1,1,0,2021-08-07 10:17:26.997909
-2,-1,-3,-1,0,-1,-1,-1,2021-08-07 10:17:26.997909
-1,-1,0,1,-1,0,-1,-2,2021-08-07 10:17:27.010911
-2,-1,-2,-2,0,-1,-2,1,2021-08-07 10:17:27.011913
-2,-1,0,0,-1,1,0,-2,2021-08-07 10:17:27.012906
1,0,-1,0,-2,-1,1,0,2021-08-07 10:17:27.012906
-1,-2,-1,-2,0,0,0,-1,2021-08-07 10:17:27.033907
0,-1,0,-1,0,-1,0,-3,2021-08-07 10:17:27.033907
0,-2,0,0,-1,-2,-1,-1,2021-08-07 10:17:27.034904
-2,-1,-1,1,-1,-1,-1,-1,2021-08-07 10:17:27.035919
0,-1,-1,-1,-2,0,-1,-1,2021-08-07 10:17:27.055913
0,1,-1,-1,0,0,1,0,2021-08-07 10:17:27.056914
-2,-2,-3,-2,0,-1,0,-1,2021-08-07 10:17:27.057907
-1,-1,-2,-1,1,0,-2,-1,2021-08-07 10:17:27.057907
-1,-1,-2,-2,-1,-3,-1,1,2021-08-07 10:17:27.070913
0,-1,0,-1,-1,0,0,-1,2021-08-07 10:17:27.070913
0,0,0,-1,0,0,-2,-1,2021-08-07 10:17:27.076914
-1,0,-2,-2,-2,-1,-1,-1,2021-08-07 10:17:27.077914
-1,-1,-1,1,-1,2,0,-1,2021-08-07 10:17:27.093912
1,-1,-1,-1,-2,-1,-3,0,2021-08-07 10:17:27.093912
-1,-1,-1,-1,0,-1,-2,0,2021-08-07 10:17:27.094912
-1,0,0,-2,-2,-1,0,-2,2021-08-07 10:17:27.095920
0,-1,0,0,-1,0,-2,-1,2021-08-07 10:17:27.115909
0,0,-1,0,0,-2,0,-1,2021-08-07 10:17:27.116906
0,-1,-1,0,-2,0,1,-1,2021-08-07 10:17:27.117912
0,-1,-1,-1,-1,-1,-1,-2,2021-08-07 10:17:27.118911
-2,-1,-2,-1,0,-1,-2,-1,2021-08-07 10:17:27.130916
-1,-1,-1,-1,-1,0,-1,1,2021-08-07 10:17:27.131920
-1,-3,0,-2,-1,0,-3,-2,2021-08-07 10:17:27.132913
-1,0,-2,0,-1,-2,-1,1,2021-08-07 10:17:27.133905
0,0,0,1,-1,-2,-1,-1,2021-08-07 10:17:27.154912
0,-1,-2,0,-1,0,-1,1,2021-08-07 10:17:27.154912
-1,0,-2,1,-1,-1,1,0,2021-08-07 10:17:27.169910
-2,-1,1,-1,-1,0,0,-1,2021-08-07 10:17:27.169910
-2,-1,-1,-1,1,0,-1,-2,2021-08-07 10:17:27.175908
-2,0,0,0,-1,0,-3,0,2021-08-07 10:17:27.176912
1,1,-1,-1,0,-2,-1,1,2021-08-07 10:17:27.177916
3,0,-2,-2,-2,-1,0,1,2021-08-07 10:17:27.177916
2,0,-3,-2,-2,-2,1,2,2021-08-07 10:17:27.190454
0,-2,-1,-4,-1,-1,1,0,2021-08-07 10:17:27.190454
-1,-3,-3,-3,0,1,0,-2,2021-08-07 10:17:27.205469
-4,-4,-2,2,3,0,0,-4,2021-08-07 10:17:27.205469
-2,-2,0,1,1,0,-1,-4,2021-08-07 10:17:27.214465
-4,-2,2,4,-2,0,-3,-4,2021-08-07 10:17:27.215467
-2,0,1,1,1,-2,-2,-2,2021-08-07 10:17:27.219467
0,-1,2,-2,-2,-1,-1,1,2021-08-07 10:17:27.220467
1,0,0,-1,-2,-2,-1,-1,2021-08-07 10:17:27.236463
-1,-1,0,-2,-1,-2,0,-1,2021-08-07 10:17:27.236463
-1,0,1,-1,-2,-2,0,0,2021-08-07 10:17:27.237465
-1,-2,-2,0,0,-1,1,-1,2021-08-07 10:17:27.238457
-1,0,0,-2,-1,-1,0,0,2021-08-07 10:17:27.251462
-2,-2,-2,-1,-1,-2,-1,-1,2021-08-07 10:17:27.251462
0,-2,-3,-1,1,-1,-1,-3,2021-08-07 10:17:27.257460
-2,-1,-2,-1,0,0,-1,1,2021-08-07 10:17:27.257460
-1,-2,-1,0,-1,-1,-1,-1,2021-08-07 10:17:27.273462
-1,-1,-2,-1,0,-1,0,1,2021-08-07 10:17:27.274464
-1,-2,0,-2,-2,0,-1,1,2021-08-07 10:17:27.275465
1,-1,-1,-1,-2,-1,-1,-2,2021-08-07 10:17:27.275465
-1,0,-2,0,0,-1,0,-1,2021-08-07 10:17:27.296457
0,-1,-1,-2,-3,-1,-1,-1,2021-08-07 10:17:27.296457
-1,-1,-1,1,0,-2,0,-1,2021-08-07 10:17:27.297465
-1,-1,-1,-2,-1,0,-1,-1,2021-08-07 10:17:27.298466
0,0,0,-3,-3,-2,-1,-1,2021-08-07 10:17:27.311460
-1,1,0,-2,0,-2,-1,0,2021-08-07 10:17:27.311460
-1,1,0,-1,-1,0,-1,1,2021-08-07 10:17:27.318454
-1,-1,0,1,-1,0,-3,-2,2021-08-07 10:17:27.318454
-1,-1,1,0,1,-2,1,-2,2021-08-07 10:17:27.333465
0,0,-1,-1,-2,0,0,-2,2021-08-07 10:17:27.334462
-1,-2,0,0,-2,0,-1,-1,2021-08-07 10:17:27.335457
-2,-1,0,0,0,-1,-1,0,2021-08-07 10:17:27.335457
0,-2,-1,-3,0,-3,0,-1,2021-08-07 10:17:27.356462
0,-2,0,0,1,-2,-1,-2,2021-08-07 10:17:27.356462
-1,-1,-2,-2,-1,0,-1,0,2021-08-07 10:17:27.357460
-2,-3,-2,-1,-2,-3,-1,-3,2021-08-07 10:17:27.358460
-2,-2,-2,1,-1,-1,-1,-2,2021-08-07 10:17:27.370463
-1,-2,-3,0,0,-1,-1,0,2021-08-07 10:17:27.371463
-1,-1,-2,-1,0,-1,-1,0,2021-08-07 10:17:27.377464
0,0,0,-2,-1,-3,0,0,2021-08-07 10:17:27.377464
0,0,0,0,0,0,1,1,2021-08-07 10:17:27.394463
-2,-2,-1,-1,-1,0,-1,0,2021-08-07 10:17:27.394463
-1,-3,0,-1,0,-1,-1,0,2021-08-07 10:17:27.395456
-3,-1,-1,0,1,-1,1,-1,2021-08-07 10:17:27.395456
-1,-1,-1,0,-1,-1,-4,-1,2021-08-07 10:17:27.416460
-1,1,-2,0,0,-1,-1,0,2021-08-07 10:17:27.416460
0,-1,0,-2,-2,-1,1,-1,2021-08-07 10:17:27.418459
-2,-1,0,0,-2,0,-1,-1,2021-08-07 10:17:27.418459
0,0,-1,-2,-1,-1,1,0,2021-08-07 10:17:27.430456
-1,0,-2,-1,-1,-1,0,-1,2021-08-07 10:17:27.431469
0,0,-3,0,-2,-3,0,0,2021-08-07 10:17:27.437461
0,-1,-1,0,-1,-1,-1,0,2021-08-07 10:17:27.438475
-3,-1,-1,1,0,2,-2,-1,2021-08-07 10:17:27.454465
-2,-2,-1,-1,0,-1,-1,-1,2021-08-07 10:17:27.454465
-1,-2,-2,-1,0,0,1,-1,2021-08-07 10:17:27.455466
0,0,-2,0,-1,-2,0,-1,2021-08-07 10:17:27.455466
0,-1,-1,-1,0,-1,-1,1,2021-08-07 10:17:27.476453
0,-2,0,-2,0,-1,-1,0,2021-08-07 10:17:27.476453
-1,0,1,-1,-2,-1,-3,-3,2021-08-07 10:17:27.477463
-1,-1,-1,-1,-2,0,-2,-1,2021-08-07 10:17:27.478461
-1,-1,0,1,-1,0,0,-1,2021-08-07 10:17:27.491460
-2,-1,-2,-1,-1,-1,0,1,2021-08-07 10:17:27.491460
0,-1,-1,0,-1,0,-1,0,2021-08-07 10:17:27.497465
-1,-1,-1,-1,-2,-2,-2,0,2021-08-07 10:17:27.497465
0,-1,-3,0,-1,-1,0,-1,2021-08-07 10:17:27.513467
0,0,-1,-2,-1,-1,-1,-2,2021-08-07 10:17:27.514470
-3,-1,-2,0,-1,0,0,-1,2021-08-07 10:17:27.515466
-1,-1,0,0,0,-1,0,-3,2021-08-07 10:17:27.515466
-1,0,0,-1,-1,0,0,-1,2021-08-07 10:17:27.536461
1,-1,-1,1,0,-1,-2,-1,2021-08-07 10:17:27.536461
0,-1,-2,-1,-3,-1,-1,0,2021-08-07 10:17:27.538460
1,-1,-1,-1,-1,-1,0,0,2021-08-07 10:17:27.538460
-2,0,-1,-2,0,-1,-1,0,2021-08-07 10:17:27.549466
-1,0,-2,1,-1,-1,-1,-1,2021-08-07 10:17:27.550467
-1,-1,0,-1,-1,-1,-1,0,2021-08-07 10:17:27.558464
0,0,-1,0,-1,0,1,0,2021-08-07 10:17:27.559464
-1,-1,-1,-1,-1,-1,0,0,2021-08-07 10:17:27.573467
-2,-1,-1,0,0,-2,-2,-1,2021-08-07 10:17:27.573467
-2,0,0,-1,-1,-1,-2,-2,2021-08-07 10:17:27.579466
-3,-1,-1,-2,-2,-2,-2,-2,2021-08-07 10:17:27.580456
-1,-1,-1,-1,-2,0,-2,-1,2021-08-07 10:17:27.596456
-2,-3,-1,-1,-1,0,-1,0,2021-08-07 10:17:27.596456
0,0,-1,-2,0,0,0,0,2021-08-07 10:17:27.598467
-1,0,-2,0,-1,1,-2,0,2021-08-07 10:17:27.598467
0,-2,0,-2,-1,0,0,-2,2021-08-07 10:17:27.609465
-2,-1,-1,0,-1,-1,-1,-2,2021-08-07 10:17:27.610460
0,-1,-1,-1,-1,-2,0,-2,2021-08-07 10:17:27.619460
0,-2,-1,-3,1,-1,0,0,2021-08-07 10:17:27.619460
0,-2,-3,0,0,-3,-1,0,2021-08-07 10:17:27.633467
0,1,-1,-1,-1,-2,0,0,2021-08-07 10:17:27.634458
-1,-2,-2,-1,1,-1,-2,-2,2021-08-07 10:17:27.635457
-2,0,1,1,-1,-1,0,-1,2021-08-07 10:17:27.635457
0,-2,-1,0,-1,-1,-1,-1,2021-08-07 10:17:27.656464
1,0,0,-1,-1,0,-1,-1,2021-08-07 10:17:27.656464
-1,0,-1,1,1,-2,0,-3,2021-08-07 10:17:27.657461
0,-2,-1,1,1,0,0,0,2021-08-07 10:17:27.658461
-1,0,-1,-3,0,-1,-1,-1,2021-08-07 10:17:27.670469
0,-1,-1,0,-2,-1,0,-2,2021-08-07 10:17:27.670469
-2,0,-1,-1,-1,-1,-2,1,2021-08-07 10:17:27.679463
-1,-1,0,0,-1,0,0,-1,2021-08-07 10:17:27.679463
0,-2,-1,0,0,0,-2,0,2021-08-07 10:17:27.693457
-1,0,-1,-2,-1,-1,-1,0,2021-08-07 10:17:27.694457
0,-1,-1,-1,0,0,-2,1,2021-08-07 10:17:27.695461
-1,0,-2,-1,-2,-1,-1,-2,2021-08-07 10:17:27.695461
0,-1,-2,-1,-1,-1,-1,-1,2021-08-07 10:17:27.716463
-1,-3,-2,0,-1,-1,-1,0,2021-08-07 10:17:27.716463
-1,0,-2,1,-1,-1,0,1,2021-08-07 10:17:27.718473
0,-1,1,-2,-1,-2,-2,1,2021-08-07 10:17:27.718473
0,-1,-2,0,0,0,0,-1,2021-08-07 10:17:27.729466
-1,-1,-3,0,1,0,-1,-1,2021-08-07 10:17:27.730461
1,0,-1,0,-1,-1,-1,0,2021-08-07 10:17:27.739467
1,0,-2,0,-1,1,-1,-1,2021-08-07 10:17:27.739467
-1,-1,0,-2,-2,0,-1,0,2021-08-07 10:17:27.753464
-1,-1,1,-1,0,0,0,0,2021-08-07 10:17:27.754462
0,0,-2,-2,-1,0,-2,0,2021-08-07 10:17:27.755464
-1,-1,-2,-2,-1,-1,-1,-1,2021-08-07 10:17:27.755464
-2,-1,-1,0,-1,-1,1,-1,2021-08-07 10:17:27.776462
-1,-1,0,-1,-1,-2,-1,-2,2021-08-07 10:17:27.776462
-1,-2,0,-1,-1,-1,-1,-1,2021-08-07 10:17:27.777461
-2,0,1,-2,-1,-1,-1,-1,2021-08-07 10:17:27.778467
-2,1,0,0,-2,0,0,0,2021-08-07 10:17:27.789462
0,-1,-3,0,-2,0,0,-1,2021-08-07 10:17:27.790465
-1,-1,0,-2,-1,0,-1,-1,2021-08-07 10:17:27.798464
1,-1,-2,0,-1,-1,-1,-1,2021-08-07 10:17:27.799464
-1,0,0,1,-1,-2,-1,0,2021-08-07 10:17:27.813465
0,0,-1,-2,-1,0,0,-1,2021-08-07 10:17:27.814464
-1,-1,1,0,0,-2,-2,-1,2021-08-07 10:17:27.815464
1,0,-2,0,-2,0,0,-1,2021-08-07 10:17:27.815464
0,-1,-1,-3,-1,-3,0,-1,2021-08-07 10:17:27.836471
1,-1,-1,0,-2,-1,-3,-2,2021-08-07 10:17:27.836471
-1,0,1,-1,-1,-2,-1,-1,2021-08-07 10:17:27.837462
-1,0,0,-1,-1,-1,-2,-1,2021-08-07 10:17:27.838460
1,-1,-2,0,0,-1,0,0,2021-08-07 10:17:27.849463
-2,-2,-3,-2,0,-3,-2,1,2021-08-07 10:17:27.850465
0,-1,-2,1,-2,0,-1,-1,2021-08-07 10:17:27.858464
0,-1,-1,2,1,-1,0,0,2021-08-07 10:17:27.859462
-1,-1,-1,0,0,2,-1,-1,2021-08-07 10:17:27.873465
-1,-1,0,-3,-1,0,-1,-2,2021-08-07 10:17:27.874453
-2,-1,-1,-1,-2,0,-1,0,2021-08-07 10:17:27.875459
-1,0,-1,-2,-1,-2,-1,-1,2021-08-07 10:17:27.875459
0,1,1,-1,0,-1,-1,0,2021-08-07 10:17:27.895460
0,0,-1,0,-2,0,3,1,2021-08-07 10:17:27.895460
1,0,-3,-2,-1,-1,1,3,2021-08-07 10:17:27.903463
2,-1,-3,-2,-1,0,0,1,2021-08-07 10:17:27.904462
-1,-1,-4,-1,0,-1,-1,-1,2021-08-07 10:17:27.918463
-3,-2,0,-1,1,-1,-2,-3,2021-08-07 10:17:27.919465
-3,-3,-2,-1,0,-1,-1,-4,2021-08-07 10:17:27.920463
-5,-2,0,1,-1,-2,-2,-2,2021-08-07 10:17:27.920463
-3,-1,1,0,-1,-2,-3,-3,2021-08-07 10:17:27.934459
0,0,0,1,-3,-2,-1,0,2021-08-07 10:17:27.934459
-1,1,-1,-1,-1,-2,1,0,2021-08-07 10:17:27.935462
1,0,-2,-1,-1,-2,0,0,2021-08-07 10:17:27.935462
0,-1,-1,-1,-2,0,0,-1,2021-08-07 10:17:27.956462
0,-1,0,-2,-1,-2,-1,1,2021-08-07 10:17:27.956462
-1,-1,-3,-2,0,0,0,0,2021-08-07 10:17:27.957463
-1,-1,0,-1,0,1,-1,0,2021-08-07 10:17:27.958462
-1,-2,-1,-1,-2,1,-1,0,2021-08-07 10:17:27.970465
-1,0,-2,0,-2,0,1,-1,2021-08-07 10:17:27.970465
-1,-1,0,0,-1,0,0,-1,2021-08-07 10:17:27.979453
-1,-1,-2,-3,-2,-3,-1,-2,2021-08-07 10:17:27.979453
0,0,-1,-2,0,-2,-1,-1,2021-08-07 10:17:27.994464
-2,-1,-1,-1,0,-1,-2,0,2021-08-07 10:17:27.994464
0,-3,-1,0,-1,-1,0,-1,2021-08-07 10:17:27.995464
-1,-1,1,0,0,1,0,-1,2021-08-07 10:17:27.996461
0,-1,-1,0,-1,-1,-1,-2,2021-08-07 10:17:28.016465
-1,0,0,0,0,-1,-1,-1,2021-08-07 10:17:28.016465
0,-1,1,-2,-1,-2,-2,-2,2021-08-07 10:17:28.018464
-2,-3,-1,0,-1,1,1,0,2021-08-07 10:17:28.018464
-1,-4,-1,0,-1,-1,-1,-1,2021-08-07 10:17:28.038453
-1,-2,-1,-1,-1,-1,0,-1,2021-08-07 10:17:28.039468
-1,0,-2,0,0,0,0,0,2021-08-07 10:17:28.040453
-2,0,0,-1,0,-1,-2,0,2021-08-07 10:17:28.040453
-2,0,-1,-2,-2,-1,0,-1,2021-08-07 10:17:28.053466
-2,-1,-2,-1,1,0,-1,0,2021-08-07 10:17:28.054471
0,0,-1,-2,-1,-1,0,-1,2021-08-07 10:17:28.055466
-1,-1,0,0,-2,0,0,-1,2021-08-07 10:17:28.055466
-1,-2,-1,0,0,-2,-1,0,2021-08-07 10:17:28.076465
0,-2,0,-1,0,-1,0,-1,2021-08-07 10:17:28.076465
-2,-2,-1,0,-1,1,-2,0,2021-08-07 10:17:28.077462
0,0,0,0,0,-1,-1,-2,2021-08-07 10:17:28.078466
-1,-1,1,0,-1,-2,1,0,2021-08-07 10:17:28.098465
-2,-1,0,-1,-2,-1,-1,-3,2021-08-07 10:17:28.099468
0,1,0,-1,-2,-1,-2,0,2021-08-07 10:17:28.100466
0,0,-2,0,-1,0,-1,0,2021-08-07 10:17:28.100466
0,0,2,-2,-1,-2,-1,-2,2021-08-07 10:17:28.113465
0,1,5,0,-1,-1,-1,-1,2021-08-07 10:17:28.114466
-2,-3,-9,-1,-1,-1,0,0,2021-08-07 10:17:28.115454
-1,-2,-5,-1,-1,-2,-2,-1,2021-08-07 10:17:28.115454
-2,0,-1,-1,-1,-1,-3,0,2021-08-07 10:17:28.136463
-1,-1,-2,-1,0,0,-1,0,2021-08-07 10:17:28.136463
0,0,3,-1,0,0,0,-1,2021-08-07 10:17:28.138462
-1,0,-1,-2,-1,-1,0,-2,2021-08-07 10:17:28.138462
1,0,-3,-1,1,-1,-1,1,2021-08-07 10:17:28.158465
-1,-3,-1,-3,-3,0,-1,0,2021-08-07 10:17:28.159460
-2,0,-1,0,-1,-1,0,-1,2021-08-07 10:17:28.160464
-1,-2,-2,-2,0,0,-2,-1,2021-08-07 10:17:28.160464
-1,-1,1,0,0,0,0,1,2021-08-07 10:17:28.173465
1,-1,-2,0,-2,0,0,-1,2021-08-07 10:17:28.173465
-1,-3,-2,0,-1,-2,-1,-1,2021-08-07 10:17:28.179466
-1,0,-1,-2,-1,-1,0,0,2021-08-07 10:17:28.180458
-2,1,-1,-3,-1,-1,-1,-1,2021-08-07 10:17:28.196457
0,-1,-2,0,-1,0,-1,0,2021-08-07 10:17:28.196457
-2,-1,0,0,-1,0,0,-1,2021-08-07 10:17:28.197467
-1,1,1,-1,-1,-2,-1,1,2021-08-07 10:17:28.198460
-2,-1,-3,1,-1,-1,-2,-1,2021-08-07 10:17:28.218470
-1,0,-2,1,0,-2,-2,0,2021-08-07 10:17:28.219464
0,-1,0,0,-1,0,-1,-2,2021-08-07 10:17:28.220460
-1,-1,1,0,0,0,0,-2,2021-08-07 10:17:28.221461
0,0,-2,-1,-2,-1,1,-2,2021-08-07 10:17:28.233465
-2,0,-2,-2,-2,-1,-1,-1,2021-08-07 10:17:28.233465
0,0,0,-2,-2,-2,0,-1,2021-08-07 10:17:28.240454
0,0,0,-1,0,-1,1,0,2021-08-07 10:17:28.240454
-1,0,-1,0,-1,-1,0,-1,2021-08-07 10:17:28.256454
-1,0,0,-2,1,-1,0,-1,2021-08-07 10:17:28.256454
-1,1,1,-2,0,0,-1,-1,2021-08-07 10:17:28.257465
0,-1,-1,1,-2,0,0,0,2021-08-07 10:17:28.258463
-2,-1,-1,1,0,-1,-1,1,2021-08-07 10:17:28.278463
0,0,-1,0,-1,-2,-1,0,2021-08-07 10:17:28.279455
0,0,-1,-1,0,-2,-1,-1,2021-08-07 10:17:28.280458
-1,1,0,0,0,0,0,-3,2021-08-07 10:17:28.280458
0,0,-2,-1,0,0,-1,-4,2021-08-07 10:17:28.293465
-1,-2,-2,-1,-2,-1,-1,-1,2021-08-07 10:17:28.293465
-3,-3,-1,-1,-1,-1,1,1,2021-08-07 10:17:28.300461
-1,-2,-3,-1,-1,0,-2,0,2021-08-07 10:17:28.300461
-1,-1,-1,-1,0,-1,0,-1,2021-08-07 10:17:28.316465
-1,-1,-2,-1,0,0,0,0,2021-08-07 10:17:28.316465
-1,0,-1,0,-1,-2,-3,0,2021-08-07 10:17:28.318465
-1,-1,-1,-1,0,-1,0,0,2021-08-07 10:17:28.318465
0,-1,0,-1,-1,-1,-1,-1,2021-08-07 10:17:28.338467
1,-1,0,-2,0,-3,-1,-1,2021-08-07 10:17:28.338467
-1,-2,1,0,-1,-1,0,-2,2021-08-07 10:17:28.340467
-2,0,-2,-1,-2,-1,-1,0,2021-08-07 10:17:28.340467
-1,-2,-2,-2,-1,-1,0,-2,2021-08-07 10:17:28.352460
-2,-2,0,-1,0,-1,-1,0,2021-08-07 10:17:28.352460
1,1,0,0,-2,0,-1,-1,2021-08-07 10:17:28.361460
-1,0,-1,-2,0,-1,-1,1,2021-08-07 10:17:28.361460
-3,-2,1,-1,0,0,1,1,2021-08-07 10:17:28.376464
-2,-1,-1,0,-1,0,-2,-2,2021-08-07 10:17:28.376464
-1,-2,0,-1,-1,0,0,-1,2021-08-07 10:17:28.377465
1,-1,-1,0,-2,0,-1,-1,2021-08-07 10:17:28.378465
-1,-1,-2,0,0,-1,-2,-1,2021-08-07 10:17:28.398467
0,1,-1,0,-1,-1,0,0,2021-08-07 10:17:28.399474
-1,0,-1,-2,-2,-1,-2,0,2021-08-07 10:17:28.400466
-1,0,0,-1,-2,-2,-1,-1,2021-08-07 10:17:28.400466
-2,0,0,-1,0,0,0,-1,2021-08-07 10:17:28.412467
0,0,0,-2,-2,1,0,-3,2021-08-07 10:17:28.413468
-1,0,0,-1,-2,-1,-1,-1,2021-08-07 10:17:28.419463
-1,-2,-2,1,0,0,-1,0,2021-08-07 10:17:28.420465
0,-1,-2,-1,-2,-2,-3,-1,2021-08-07 10:17:28.436460
-1,0,0,-1,-1,-1,0,-1,2021-08-07 10:17:28.436460
0,-1,-1,-1,0,0,0,-2,2021-08-07 10:17:28.437462
0,-1,0,-2,-1,0,0,1,2021-08-07 10:17:28.438465
0,-1,-1,-2,-2,0,-1,-1,2021-08-07 10:17:28.458464
-2,-3,-1,0,-1,-1,0,-1,2021-08-07 10:17:28.459465
0,0,-1,0,0,0,-1,-2,2021-08-07 10:17:28.460455
-2,-2,0,-2,0,-1,-2,0,2021-08-07 10:17:28.460455
-1,-1,-1,1,-3,0,-2,0,2021-08-07 10:17:28.473466
-1,0,-1,-1,0,-2,1,0,2021-08-07 10:17:28.473466
-1,0,0,0,1,0,0,0,2021-08-07 10:17:28.479465
0,-1,-1,-1,-1,-1,-1,-1,2021-08-07 10:17:28.480467
0,0,-1,-2,-1,-1,0,1,2021-08-07 10:17:28.496462
-1,-1,0,0,-3,-2,-2,0,2021-08-07 10:17:28.496462
0,-1,-1,-2,0,-1,0,-2,2021-08-07 10:17:28.497464
0,0,-1,1,-2,-1,-1,-3,2021-08-07 10:17:28.498467
-2,0,0,1,-1,-2,-1,-1,2021-08-07 10:17:28.518465
-2,1,-3,-1,-2,-1,0,-1,2021-08-07 10:17:28.519464
-1,-1,0,-2,-2,1,-2,1,2021-08-07 10:17:28.520473
-1,-2,-1,-2,1,0,-1,-1,2021-08-07 10:17:28.520473
1,0,0,-1,-1,-2,0,-3,2021-08-07 10:17:28.532466
-1,-2,0,-2,-1,1,-1,-2,2021-08-07 10:17:28.532466
0,-3,-2,0,-3,0,-2,-1,2021-08-07 10:17:28.541465
-1,-2,-2,-1,-1,0,-1,-1,2021-08-07 10:17:28.541465
-1,0,-2,0,1,-1,0,1,2021-08-07 10:17:28.556464
0,-1,-1,-1,1,1,-2,-3,2021-08-07 10:17:28.556464
-1,0,-3,-1,-1,-3,0,0,2021-08-07 10:17:28.557465
0,0,0,0,0,-1,0,0,2021-08-07 10:17:28.558465
0,-2,-1,-1,-1,2,1,-2,2021-08-07 10:17:28.578454
-2,-1,0,0,-1,-2,-1,0,2021-08-07 10:17:28.579454
-2,0,-1,-1,-1,0,-2,-1,2021-08-07 10:17:28.580467
-1,-1,-1,-1,0,-1,0,-2,2021-08-07 10:17:28.580467
-1,-2,-1,-1,0,0,-2,2,2021-08-07 10:17:28.592465
-1,-1,-2,-1,0,0,0,-1,2021-08-07 10:17:28.593464
0,-1,0,0,1,-1,-2,-1,2021-08-07 10:17:28.601460
0,0,-1,0,-1,-1,-1,0,2021-08-07 10:17:28.601460
1,0,-1,-3,0,0,-1,-1,2021-08-07 10:17:28.616463
0,-1,-1,-1,-1,0,0,-1,2021-08-07 10:17:28.616463
-1,0,0,-2,-1,-2,-1,0,2021-08-07 10:17:28.618469
1,-1,-1,-1,-1,0,0,1,2021-08-07 10:17:28.618469
-1,0,-1,-1,0,0,-1,-1,2021-08-07 10:17:28.638466
-2,0,-1,0,0,0,0,0,2021-08-07 10:17:28.638466
-1,0,-2,-1,0,-1,0,0,2021-08-07 10:17:28.640453
2,0,-2,-1,0,-1,-1,-1,2021-08-07 10:17:28.640453
1,-2,-2,-3,-3,0,1,0,2021-08-07 10:17:28.652467
2,-1,-3,-3,0,1,0,3,2021-08-07 10:17:28.653466
0,-2,-3,-1,1,-1,1,0,2021-08-07 10:17:28.661466
-5,-4,-2,0,-1,2,-1,-3,2021-08-07 10:17:28.661466
-5,-3,-1,0,1,0,-1,-5,2021-08-07 10:17:28.675466
-4,-1,1,2,-1,-3,-3,-3,2021-08-07 10:17:28.675466
-2,-1,1,1,-1,-1,-3,-3,2021-08-07 10:17:28.691463
-1,1,2,0,-1,-3,-2,-1,2021-08-07 10:17:28.691463
0,1,0,-1,-2,-3,-1,1,2021-08-07 10:17:28.698465
0,-1,0,0,-1,-1,-1,0,2021-08-07 10:17:28.699467
0,-1,-1,-2,-1,-1,0,0,2021-08-07 10:17:28.700455
-1,-1,0,-2,-2,0,-1,0,2021-08-07 10:17:28.700455
-1,-1,-2,0,-1,-1,-2,0,2021-08-07 10:17:28.712462
0,-2,-1,-2,-1,-1,0,1,2021-08-07 10:17:28.712462
-2,-2,1,-2,1,-1,0,-1,2021-08-07 10:17:28.721463
-1,0,0,-1,0,1,0,-1,2021-08-07 10:17:28.721463
1,-2,-1,0,0,0,-1,0,2021-08-07 10:17:28.736463
0,-1,-3,-1,-1,-1,-1,-2,2021-08-07 10:17:28.736463
0,-3,-2,-1,0,0,-2,-1,2021-08-07 10:17:28.737462
-2,0,-2,0,-1,-2,-2,-1,2021-08-07 10:17:28.738458
-2,-3,-1,0,-1,-1,1,-1,2021-08-07 10:17:28.758463
-4,0,0,-1,-1,0,-1,-2,2021-08-07 10:17:28.759463
-1,-1,0,-1,-1,-3,-1,-1,2021-08-07 10:17:28.760463
0,1,0,0,-2,-2,-1,0,2021-08-07 10:17:28.760463
-1,0,0,1,-2,-1,-2,1,2021-08-07 10:17:28.772464
0,-2,-2,-2,-1,-1,-1,1,2021-08-07 10:17:28.772464
-1,1,-1,-1,0,0,0,-1,2021-08-07 10:17:28.781464
-1,-1,0,-1,-1,1,-2,0,2021-08-07 10:17:28.781464
1,-1,-1,-2,-1,-1,-1,-1,2021-08-07 10:17:28.796465
0,-2,0,0,-1,0,0,-3,2021-08-07 10:17:28.796465
-2,0,-1,1,1,3,-1,-3,2021-08-07 10:17:28.797454
-1,0,-1,-2,-1,-2,1,-1,2021-08-07 10:17:28.797454
0,0,0,-2,-2,-1,0,1,2021-08-07 10:17:28.818460
-1,-1,-2,0,-2,-1,0,0,2021-08-07 10:17:28.819476
-1,-2,0,-2,-1,-1,1,0,2021-08-07 10:17:28.820464
-3,-1,2,-1,0,-2,0,0,2021-08-07 10:17:28.820464
-2,-1,-1,-1,-1,0,-3,0,2021-08-07 10:17:28.841464
0,0,-1,-2,-1,-1,-1,-1,2021-08-07 10:17:28.841464
0,0,-2,0,-1,-1,-1,-1,2021-08-07 10:17:28.842465
0,0,0,1,-1,0,0,1,2021-08-07 10:17:28.843461
-2,-3,-1,-2,-2,-3,0,-5,2021-08-07 10:17:28.856465
-1,-4,-2,-2,-1,0,0,0,2021-08-07 10:17:28.856465
0,-1,-1,-1,-2,0,1,0,2021-08-07 10:17:28.857459
-2,-2,-3,-2,-3,-1,-4,-4,2021-08-07 10:17:28.858467
-1,2,1,2,0,1,0,1,2021-08-07 10:17:28.878455
-1,-2,0,1,1,0,1,0,2021-08-07 10:17:28.879464
-3,0,-2,-2,-2,-4,-4,-4,2021-08-07 10:17:28.880458
-1,2,0,-1,0,0,0,0,2021-08-07 10:17:28.880458
-1,-1,-2,1,-1,-2,0,1,2021-08-07 10:17:28.892460
-2,-2,0,-1,-1,0,-1,-2,2021-08-07 10:17:28.892460
1,1,0,0,-1,-1,0,3,2021-08-07 10:17:28.901465
-2,-2,-1,-1,0,0,0,0,2021-08-07 10:17:28.901465
0,0,-2,-2,-1,0,-1,-2,2021-08-07 10:17:28.916465
1,1,-1,0,0,-1,1,-1,2021-08-07 10:17:28.916465
-2,-2,-2,0,1,0,-2,-1,2021-08-07 10:17:28.917456
-2,-1,-3,1,0,-2,0,0,2021-08-07 10:17:28.918457
-2,-1,-1,0,-1,-1,-2,0,2021-08-07 10:17:28.938470
0,0,-1,-1,-1,-1,-1,-1,2021-08-07 10:17:28.939454
-1,-2,-1,-1,-3,0,0,-3,2021-08-07 10:17:28.940464
1,1,0,0,0,-3,1,0,2021-08-07 10:17:28.940464
0,0,-3,-2,-2,-1,-1,-2,2021-08-07 10:17:28.961455
-1,-3,-2,0,-1,-1,-4,-1,2021-08-07 10:17:28.961455
0,1,0,0,0,0,0,0,2021-08-07 10:17:28.962454
-1,-2,-2,-2,-2,-1,-1,-1,2021-08-07 10:17:28.962454
-3,0,-1,0,0,0,-1,-1,2021-08-07 10:17:28.976465
-2,1,-1,-1,-1,0,-1,-1,2021-08-07 10:17:28.976465
1,-2,-1,-2,-1,-2,0,0,2021-08-07 10:17:28.977458
-1,-4,-1,-2,-1,-1,0,-1,2021-08-07 10:17:28.978463
-1,-2,-1,-1,0,-4,0,-2,2021-08-07 10:17:28.998466
0,0,0,0,-1,-2,-2,-1,2021-08-07 10:17:28.999455
-1,-1,0,0,-1,0,-1,1,2021-08-07 10:17:29.000456
-2,-4,-3,-1,-4,-2,-3,-2,2021-08-07 10:17:29.000456
-1,-2,-1,-4,-1,0,-1,-1,2021-08-07 10:17:29.021461
0,-1,0,-2,-2,0,-1,-2,2021-08-07 10:17:29.021461
-1,0,0,-2,-1,-1,0,-1,2021-08-07 10:17:29.022465
1,1,0,0,0,2,-2,0,2021-08-07 10:17:29.023461
1,0,1,2,0,-1,0,0,2021-08-07 10:17:29.036456
-5,-4,-3,-3,-2,-2,-2,-3,2021-08-07 10:17:29.036456
-2,1,-1,-1,0,0,-3,-1,2021-08-07 10:17:29.037468
0,-1,0,-2,0,-2,-1,-1,2021-08-07 10:17:29.038463
-1,0,-2,-2,0,1,-1,0,2021-08-07 10:17:29.058465
-1,1,0,-1,0,0,0,-1,2021-08-07 10:17:29.059475
0,-1,-4,0,0,-1,0,-1,2021-08-07 10:17:29.060465
-1,-1,-1,-1,0,0,1,-2,2021-08-07 10:17:29.060465
-1,0,0,-1,-3,1,0,-1,2021-08-07 10:17:29.081462
-1,1,0,-1,1,-1,-1,0,2021-08-07 10:17:29.081462
-1,-1,1,-3,-1,-1,-1,0,2021-08-07 10:17:29.083466
-1,1,1,0,0,0,0,0,2021-08-07 10:17:29.083466
1,-2,-2,-1,0,-2,-1,-2,2021-08-07 10:17:29.095468
-1,-2,-2,0,-1,-2,-1,-1,2021-08-07 10:17:29.096456
0,0,1,1,-2,0,1,-2,2021-08-07 10:17:29.102454
-1,-1,0,0,-1,-1,-1,-1,2021-08-07 10:17:29.102454
-3,-1,-1,-1,-2,-1,-1,-1,2021-08-07 10:17:29.118454
0,-1,-2,-4,-1,0,-1,0,2021-08-07 10:17:29.119467
-2,-1,-3,-1,1,-3,-2,-3,2021-08-07 10:17:29.120468
0,-1,-1,0,-1,1,0,2,2021-08-07 10:17:29.120468
-1,0,-1,-1,-2,-1,0,-1,2021-08-07 10:17:29.141463
-1,-1,1,2,-2,-1,1,0,2021-08-07 10:17:29.141463
-2,0,0,-2,-1,-2,0,2,2021-08-07 10:17:29.142464
-1,0,-2,-3,-1,-1,-1,-1,2021-08-07 10:17:29.143469
-1,-1,-3,-3,0,-2,-3,-2,2021-08-07 10:17:29.155466
0,-1,-1,0,0,1,0,0,2021-08-07 10:17:29.156465
0,-1,0,-2,-1,0,0,0,2021-08-07 10:17:29.162455
2,1,0,0,0,-1,1,0,2021-08-07 10:17:29.162455
-2,-4,-3,-2,-1,-2,0,-1,2021-08-07 10:17:29.179456
0,1,-2,-2,-1,-1,-1,-1,2021-08-07 10:17:29.179456
-2,-3,-3,-1,-2,0,0,-2,2021-08-07 10:17:29.180456
0,0,0,-1,-1,1,-1,0,2021-08-07 10:17:29.180456
0,0,0,-1,0,-2,0,-1,2021-08-07 10:17:29.201464
1,0,0,-1,-1,-1,0,-2,2021-08-07 10:17:29.201464
-1,0,1,0,0,-1,1,0,2021-08-07 10:17:29.202465
-2,-3,0,0,0,-1,-3,0,2021-08-07 10:17:29.203464
-1,0,0,-1,-3,0,-2,-1,2021-08-07 10:17:29.215462
-1,-2,-4,-2,0,-1,-2,-1,2021-08-07 10:17:29.215462
-2,-1,0,-2,0,-1,-1,-2,2021-08-07 10:17:29.222466
0,-3,-1,-1,0,-2,1,-1,2021-08-07 10:17:29.222466
-3,-2,-2,-2,-1,-3,-3,-2,2021-08-07 10:17:29.238464
-1,-1,-1,1,-2,-2,0,0,2021-08-07 10:17:29.239469
0,-1,-2,0,0,0,-2,-2,2021-08-07 10:17:29.240461
-1,0,-2,-2,-1,-2,-1,-2,2021-08-07 10:17:29.240461
1,0,1,-1,-1,0,2,0,2021-08-07 10:17:29.261463
3,1,0,-1,-1,-2,-1,1,2021-08-07 10:17:29.261463
-3,-2,-3,-1,-1,-2,0,-2,2021-08-07 10:17:29.262455
-1,-3,-3,-2,-3,0,-3,-3,2021-08-07 10:17:29.262455
-1,-2,-1,0,0,0,-1,-1,2021-08-07 10:17:29.275459
-1,0,0,-1,-1,0,-1,-2,2021-08-07 10:17:29.276464
3,1,1,1,0,-1,2,3,2021-08-07 10:17:29.282460
0,0,-1,-1,-1,0,-1,1,2021-08-07 10:17:29.282460
0,0,-1,-1,-2,-1,1,1,2021-08-07 10:17:29.298466
-2,-3,-1,-2,-1,0,-2,-1,2021-08-07 10:17:29.299465
0,-2,-1,-1,-1,0,-1,0,2021-08-07 10:17:29.300455
-1,-1,-1,-1,0,-2,0,-1,2021-08-07 10:17:29.300455
-1,0,0,1,-1,-1,0,-2,2021-08-07 10:17:29.321466
-1,-1,1,1,0,-1,1,0,2021-08-07 10:17:29.321466
-1,0,0,-1,-1,-3,-2,-1,2021-08-07 10:17:29.322465
-2,-1,-1,0,-2,-2,-1,0,2021-08-07 10:17:29.323465
0,-1,-1,0,0,0,-3,-2,2021-08-07 10:17:29.335464
-2,-1,0,-1,-2,-1,-2,-1,2021-08-07 10:17:29.336472
-4,-5,-3,-2,-1,-2,-1,-2,2021-08-07 10:17:29.349458
-2,-1,-1,1,1,-1,-1,-1,2021-08-07 10:17:29.350461
-1,-1,-1,-2,-2,-1,-2,0,2021-08-07 10:17:29.358464
-1,-1,-1,0,0,-1,-1,-1,2021-08-07 10:17:29.358464
0,-1,0,-1,-2,0,0,-1,2021-08-07 10:17:29.360467
0,0,0,1,-1,0,0,-2,2021-08-07 10:17:29.360467
-2,-2,1,1,0,1,0,2,2021-08-07 10:17:29.381466
0,0,0,0,0,1,1,1,2021-08-07 10:17:29.381466
-3,-2,-3,-1,-1,-2,-3,-3,2021-08-07 10:17:29.382461
-2,-1,-1,-2,-3,-1,0,0,2021-08-07 10:17:29.383467
1,1,1,1,0,0,0,0,2021-08-07 10:17:29.395463
1,0,-2,-3,-3,0,1,2,2021-08-07 10:17:29.395463
3,1,0,-2,-2,0,2,2,2021-08-07 10:17:29.402470
2,-1,-4,-2,-1,0,1,0,2021-08-07 10:17:29.402470
0,-2,-4,-3,-1,2,1,0,2021-08-07 10:17:29.418465
-4,-2,-1,0,2,0,-2,-3,2021-08-07 10:17:29.419464
-6,-3,-1,3,1,-1,-1,-3,2021-08-07 10:17:29.420468
-5,0,1,1,-1,-2,-2,-3,2021-08-07 10:17:29.420468
-2,1,1,-1,0,-2,0,-1,2021-08-07 10:17:29.441462
1,1,1,0,-1,-3,-2,-1,2021-08-07 10:17:29.441462
1,0,0,0,-3,-1,-1,-1,2021-08-07 10:17:29.442466
0,-1,0,-1,0,1,-1,-1,2021-08-07 10:17:29.442466
0,-2,-1,-1,-2,-1,0,-1,2021-08-07 10:17:29.463464
-1,0,-1,-3,-2,-1,0,-2,2021-08-07 10:17:29.464470
0,0,0,-3,-1,-1,-1,1,2021-08-07 10:17:29.464470
0,-2,-1,-2,-2,0,-1,0,2021-08-07 10:17:29.465455
-3,-1,0,1,-1,1,-3,-2,2021-08-07 10:17:29.478461
2,3,7,14,6,1,2,2,2021-08-07 10:17:29.478461
3,2,5,13,3,2,0,2,2021-08-07 10:17:29.478461
-1,-3,-8,-16,-6,-2,0,1,2021-08-07 10:17:29.479468
-6,-6,-9,-38,-18,-8,-5,-5,2021-08-07 10:17:29.500456
5,14,44,58,27,10,3,2,2021-08-07 10:17:29.501455
3,8,6,41,12,3,4,2,2021-08-07 10:17:29.501455
-1,-4,-34,-52,-14,-1,2,-1,2021-08-07 10:17:29.502465
-16,-36,-50,-100,-46,-19,-11,-10,2021-08-07 10:17:29.523464
-16,-23,-53,-39,-26,-17,-14,-10,2021-08-07 10:17:29.524466
-3,0,9,13,8,1,-3,-1,2021-08-07 10:17:29.524466
4,14,41,66,26,8,5,2,2021-08-07 10:17:29.524466
8,15,30,49,24,13,9,6,2021-08-07 10:17:29.538465
3,5,14,-2,1,2,2,3,2021-08-07 10:17:29.538465
2,0,1,2,-1,-2,1,-1,2021-08-07 10:17:29.538465
1,2,-2,4,1,0,1,-1,2021-08-07 10:17:29.539460
4,4,11,18,7,2,0,1,2021-08-07 10:17:29.560465
2,1,3,6,1,-1,1,1,2021-08-07 10:17:29.560465
1,5,6,10,5,3,1,2,2021-08-07 10:17:29.561461
0,-1,1,-3,-1,-1,-2,0,2021-08-07 10:17:29.561461
-2,-4,-20,-36,-13,-5,-2,0,2021-08-07 10:17:29.575464
-6,-15,-30,-46,-21,-9,-5,-5,2021-08-07 10:17:29.575464
-9,-13,-21,-27,-18,-11,-8,-6,2021-08-07 10:17:29.583464
-3,-4,9,1,1,-2,-4,-2,2021-08-07 10:17:29.583464
4,5,-4,34,14,6,4,3,2021-08-07 10:17:29.598464
2,6,10,6,6,5,3,3,2021-08-07 10:17:29.598464
3,7,32,24,7,3,2,3,2021-08-07 10:17:29.598464
0,-3,-14,3,-4,-2,-2,-3,2021-08-07 10:17:29.599464
-1,-6,-25,-37,-6,-2,-1,-2,2021-08-07 10:17:29.620467
-7,-10,-12,-19,-12,-8,-5,-4,2021-08-07 10:17:29.621470
-3,-3,-6,-3,-1,-2,-1,-3,2021-08-07 10:17:29.621470
1,4,22,33,8,2,1,2,2021-08-07 10:17:29.622466
5,13,32,47,18,7,5,3,2021-08-07 10:17:29.643456
8,9,13,22,12,7,5,2,2021-08-07 10:17:29.644471
4,6,16,2,5,4,3,1,2021-08-07 10:17:29.644471
-2,-6,-9,-20,-14,-7,-4,-2,2021-08-07 10:17:29.645467
-8,-10,-53,-66,-20,-11,-8,-5,2021-08-07 10:17:29.657465
-11,-21,-29,-41,-19,-10,-6,-6,2021-08-07 10:17:29.658466
-6,-9,-34,-4,-2,-4,-6,-3,2021-08-07 10:17:29.665465
7,29,84,57,23,11,5,4,2021-08-07 10:17:29.665465
11,18,55,97,29,10,6,4,2021-08-07 10:17:29.680464
2,-11,-86,-31,-7,0,2,0,2021-08-07 10:17:29.681461
-8,-27,-41,-119,-37,-10,-4,-2,2021-08-07 10:17:29.681461
-22,-37,-90,-35,-21,-14,-14,-14,2021-08-07 10:17:29.682465
1,13,61,64,23,5,-1,1,2021-08-07 10:17:29.694463
8,25,68,65,24,11,7,7,2021-08-07 10:17:29.695462
8,8,-15,-24,-7,1,4,1,2021-08-07 10:17:29.703465
-1,-2,-1,-44,-13,-4,1,-2,2021-08-07 10:17:29.703465
-6,-10,-12,-1,-9,-6,-5,-5,2021-08-07 10:17:29.718455
2,9,51,26,9,1,1,1,2021-08-07 10:17:29.718455
0,4,-18,25,5,-2,-2,-1,2021-08-07 10:17:29.719460
-11,-25,-37,-41,-15,-10,-23,-22,2021-08-07 10:17:29.719460
-9,-13,-25,-47,-22,-12,-6,1,2021-08-07 10:17:29.740464
15,0,-36,-12,-2,9,32,27,2021-08-07 10:17:29.740464
8,23,74,70,25,10,8,3,2021-08-07 10:17:29.741464
-11,6,8,51,22,13,10,4,2021-08-07 10:17:29.741464
-1,-6,-35,-42,-6,1,-5,-6,2021-08-07 10:17:29.772467
-11,-12,14,-28,-14,-11,-16,-11,2021-08-07 10:17:29.772467
4,10,21,58,21,4,2,3,2021-08-07 10:17:29.773466
13,11,-11,12,12,5,6,8,2021-08-07 10:17:29.773466
-2,-6,26,-44,-17,-5,-3,-3,2021-08-07 10:17:29.778467
-11,-9,0,-28,-27,-19,-13,-9,2021-08-07 10:17:29.778467
-4,0,-9,-17,-14,-8,-6,-4,2021-08-07 10:17:29.778467
5,13,87,31,8,4,2,4,2021-08-07 10:17:29.779465
2,-14,-98,6,11,6,5,3,2021-08-07 10:17:29.801465
3,-10,-31,-15,8,10,2,0,2021-08-07 10:17:29.801465
-18,-26,-4,-7,-16,-11,-12,-12,2021-08-07 10:17:29.801465
2,9,12,-17,-1,-1,1,3,2021-08-07 10:17:29.802463
4,14,58,19,2,1,4,1,2021-08-07 10:17:29.823465
0,9,14,35,14,2,-4,-6,2021-08-07 10:17:29.823465
6,11,13,21,8,5,8,4,2021-08-07 10:17:29.823465
6,-2,-12,-13,-3,0,7,5,2021-08-07 10:17:29.824465
-1,1,15,-30,-11,-3,-2,-2,2021-08-07 10:17:29.838466
-14,-26,-93,-31,-17,-12,-12,-10,2021-08-07 10:17:29.838466
-6,-8,-12,-17,-11,-7,-7,-2,2021-08-07 10:17:29.838466
1,7,43,44,11,1,-1,-2,2021-08-07 10:17:29.839463
3,8,1,34,18,7,3,2,2021-08-07 10:17:29.861466
7,14,33,-2,4,7,5,3,2021-08-07 10:17:29.861466
-3,-9,-17,-45,-14,-5,-2,-3,2021-08-07 10:17:29.861466
-2,-10,-56,-26,-8,-3,-2,0,2021-08-07 10:17:29.862461
-2,0,18,41,5,-4,-2,-2,2021-08-07 10:17:29.883463
0,4,41,-10,-3,1,-1,1,2021-08-07 10:17:29.884458
0,-6,-9,-11,0,2,1,2,2021-08-07 10:17:29.884458
-5,-8,-10,-2,-14,-11,-6,-4,2021-08-07 10:17:29.885461
2,0,-36,-25,-2,3,2,4,2021-08-07 10:17:29.906465
-7,-6,-16,1,-4,-6,-7,-6,2021-08-07 10:17:29.906465
0,-1,-7,6,6,1,-2,0,2021-08-07 10:17:29.907465
1,2,13,28,10,4,1,0,2021-08-07 10:17:29.907465
5,14,43,47,22,11,9,5,2021-08-07 10:17:29.920465
6,12,26,14,9,7,5,2,2021-08-07 10:17:29.921454
-2,-7,-21,-67,-21,-5,-1,-3,2021-08-07 10:17:29.921454
-10,-16,-43,-43,-28,-20,-12,-8,2021-08-07 10:17:29.921454
5,16,75,82,18,1,1,2,2021-08-07 10:17:29.943464
6,7,-22,-9,12,9,4,3,2021-08-07 10:17:29.944454
-5,-20,-47,-67,-15,1,0,-2,2021-08-07 10:17:29.944454
-10,-18,-62,-29,-16,-13,-9,-7,2021-08-07 10:17:29.944454
-7,-4,18,1,-4,-5,-7,-4,2021-08-07 10:17:29.957462
6,15,50,49,16,7,3,4,2021-08-07 10:17:29.958466
0,4,16,31,4,-4,0,0,2021-08-07 10:17:29.958466
1,0,11,-18,-8,-1,0,-1,2021-08-07 10:17:29.959462
-6,-6,-16,-20,-9,-5,-5,-4,2021-08-07 10:17:29.980464
0,3,13,17,13,4,2,-1,2021-08-07 10:17:29.981467
2,2,-23,-7,5,6,2,2,2021-08-07 10:17:29.981467
1,0,4,15,1,0,1,1,2021-08-07 10:17:29.981467
3,5,11,26,11,1,1,-1,2021-08-07 10:17:30.003454
-1,-4,-5,-45,-14,-1,1,-2,2021-08-07 10:17:30.004456
-4,-5,-14,-24,-7,-3,-6,-5,2021-08-07 10:17:30.004456
5,6,8,33,18,10,7,4,2021-08-07 10:17:30.005454
-1,-6,-15,-20,-19,-10,-1,-1,2021-08-07 10:17:30.018464
-3,-4,-3,17,-11,-14,-9,-4,2021-08-07 10:17:30.018464
3,6,21,-18,0,1,1,3,2021-08-07 10:17:30.018464
-10,-17,-29,-38,-25,-14,-9,-7,2021-08-07 10:17:30.019454
-2,-5,-24,-9,3,5,0,-2,2021-08-07 10:17:30.040464
2,4,31,45,17,10,2,0,2021-08-07 10:17:30.041454
0,6,5,23,6,-2,-2,-2,2021-08-07 10:17:30.041454
5,12,40,15,1,1,2,2,2021-08-07 10:17:30.041454
-3,-10,-44,-51,-11,-1,-2,-2,2021-08-07 10:17:30.063465
-8,-14,-33,-21,-11,-8,-6,-5,2021-08-07 10:17:30.064464
4,7,5,49,23,11,3,4,2021-08-07 10:17:30.064464
5,6,27,9,18,10,7,3,2021-08-07 10:17:30.065458
-1,1,15,34,2,-2,-1,-1,2021-08-07 10:17:30.078463
-4,-2,3,-34,-21,-13,-6,-2,2021-08-07 10:17:30.078463
-5,-8,-21,-46,-22,-10,-7,-5,2021-08-07 10:17:30.078463
3,6,-10,13,10,5,2,3,2021-08-07 10:17:30.079460
0,0,2,-13,2,4,3,1,2021-08-07 10:17:30.100464
-3,-6,-24,2,-5,-2,-1,-2,2021-08-07 10:17:30.101462
0,5,39,65,20,5,-1,-2,2021-08-07 10:17:30.101462
7,6,19,-25,10,13,7,5,2021-08-07 10:17:30.101462
-10,-13,-35,-25,-42,-32,-14,-9,2021-08-07 10:17:30.124466
0,-2,-6,-13,-13,-10,-2,1,2021-08-07 10:17:30.124466
-1,-6,-27,-22,-2,0,0,0,2021-08-07 10:17:30.125465
0,0,10,0,4,2,1,-1,2021-08-07 10:17:30.125465
-1,-3,-10,-6,2,4,1,0,2021-08-07 10:17:30.138467
-2,3,17,13,5,-1,-1,-1,2021-08-07 10:17:30.138467
2,5,26,47,12,4,1,2,2021-08-07 10:17:30.138467
7,6,1,14,23,16,8,4,2021-08-07 10:17:30.139465
1,0,1,-31,-4,-1,-1,1,2021-08-07 10:17:30.160466
-2,-1,-2,20,-3,-5,-6,-6,2021-08-07 10:17:30.160466
7,7,24,14,10,8,6,6,2021-08-07 10:17:30.161461
-4,-11,-46,-54,-24,-10,-3,-1,2021-08-07 10:17:30.161461
-4,-11,-27,-26,-15,-7,-3,-2,2021-08-07 10:17:30.183467
-6,-7,-4,-4,-2,-3,-5,-5,2021-08-07 10:17:30.184464
-4,1,25,52,16,6,0,-1,2021-08-07 10:17:30.184464
5,12,31,54,33,17,5,1,2021-08-07 10:17:30.185459
-1,-4,-15,-70,-19,-2,-1,-1,2021-08-07 10:17:30.198463
-14,-20,-54,-61,-54,-36,-18,-10,2021-08-07 10:17:30.198463
-2,-3,-5,-14,-17,-11,-5,-1,2021-08-07 10:17:30.198463
0,7,43,57,15,1,1,1,2021-08-07 10:17:30.199465
12,17,26,32,40,27,13,8,2021-08-07 10:17:30.220464
3,-8,-33,-26,-6,-3,0,1,2021-08-07 10:17:30.221463
-9,-11,-20,-15,-18,-12,-8,-7,2021-08-07 10:17:30.221463
-1,2,14,17,5,2,-2,-1,2021-08-07 10:17:30.221463
4,7,21,30,22,12,5,2,2021-08-07 10:17:30.243466
-1,1,8,-23,-10,-6,-1,-1,2021-08-07 10:17:30.244461
-2,-2,-16,-13,-14,-8,-2,-3,2021-08-07 10:17:30.244461
2,1,4,10,16,6,3,0,2021-08-07 10:17:30.244461
0,2,7,13,5,3,1,1,2021-08-07 10:17:30.258464
-3,-4,-7,-13,-12,-7,-2,-1,2021-08-07 10:17:30.258464
0,-1,-6,-14,-11,-7,-3,0,2021-08-07 10:17:30.259456
-6,-7,-18,-21,-20,-11,-7,-2,2021-08-07 10:17:30.259456
0,7,31,44,25,9,2,1,2021-08-07 10:17:30.282461
2,6,12,18,13,8,3,1,2021-08-07 10:17:30.282461
-2,-3,-27,-43,-11,-3,0,-2,2021-08-07 10:17:30.282461
-8,-11,-19,-21,-29,-17,-9,-4,2021-08-07 10:17:30.283455
-2,-6,-4,4,3,1,-1,-3,2021-08-07 10:17:30.303464
6,12,30,59,36,16,6,2,2021-08-07 10:17:30.303464
3,3,12,-31,-2,4,4,1,2021-08-07 10:17:30.304465
-7,-12,-32,-39,-34,-20,-10,-6,2021-08-07 10:17:30.304465
-7,-6,-18,-13,-24,-16,-9,-6,2021-08-07 10:17:30.318464
2,5,23,31,23,14,5,4,2021-08-07 10:17:30.318464
3,4,17,36,15,6,3,2,2021-08-07 10:17:30.318464
0,-2,-15,-18,0,0,1,-1,2021-08-07 10:17:30.319462
1,0,10,7,2,4,0,-1,2021-08-07 10:17:30.340465
1,1,-5,-19,2,1,1,1,2021-08-07 10:17:30.340465
-3,-3,-8,4,-5,-5,-3,-2,2021-08-07 10:17:30.341465
-2,-3,-4,-12,-5,2,0,0,2021-08-07 10:17:30.341465
-6,-6,-10,3,-20,-19,-8,-4,2021-08-07 10:17:30.363467
6,7,23,14,18,16,4,2,2021-08-07 10:17:30.364462
-1,-2,-6,-8,-6,-7,-3,-1,2021-08-07 10:17:30.364462
-1,-2,-17,-6,-13,-7,-1,-3,2021-08-07 10:17:30.365454
-2,-3,-8,-22,-3,2,0,1,2021-08-07 10:17:30.378464
-3,-2,-8,12,6,5,0,-1,2021-08-07 10:17:30.378464
3,6,17,11,22,14,4,0,2021-08-07 10:17:30.378464
-6,-9,-13,-25,-35,-23,-10,-6,2021-08-07 10:17:30.379460
-1,2,8,-2,-8,-5,-3,-1,2021-08-07 10:17:30.408464
2,3,1,6,20,15,6,4,2021-08-07 10:17:30.409471
1,-2,-2,12,-1,-1,0,0,2021-08-07 10:17:30.409471
-2,-3,0,6,4,0,-1,0,2021-08-07 10:17:30.410460
4,12,34,54,40,19,7,3,2021-08-07 10:17:30.423464
1,-6,-28,-61,-22,-12,-1,2,2021-08-07 10:17:30.423464
-12,-20,-46,-51,-51,-33,-15,-9,2021-08-07 10:17:30.424466
0,2,1,-6,2,2,0,0,2021-08-07 10:17:30.424466
-3,-2,5,16,7,2,-1,-4,2021-08-07 10:17:30.438465
9,15,37,65,45,27,12,6,2021-08-07 10:17:30.438465
3,6,10,-6,5,3,2,-1,2021-08-07 10:17:30.438465
-6,-10,-27,-37,-31,-19,-9,-3,2021-08-07 10:17:30.439466
-5,-7,-18,-20,-29,-20,-11,-6,2021-08-07 10:17:30.460468
-5,2,11,20,16,6,-3,-2,2021-08-07 10:17:30.461455
6,6,19,34,32,22,9,5,2021-08-07 10:17:30.461455
3,1,9,10,14,7,2,0,2021-08-07 10:17:30.461455
-3,-9,-26,-34,-31,-16,-5,-3,2021-08-07 10:17:30.484460
-7,-12,-26,-50,-50,-30,-10,-5,2021-08-07 10:17:30.484460
1,6,23,35,30,16,4,1,2021-08-07 10:17:30.490466
12,17,31,38,54,37,17,7,2021-08-07 10:17:30.491465
-7,-12,-29,-32,-38,-29,-12,-5,2021-08-07 10:17:30.497470
-7,-12,-18,-26,-41,-26,-13,-7,2021-08-07 10:17:30.497470
1,7,38,65,51,30,5,0,2021-08-07 10:17:30.505460
9,9,4,10,37,28,16,9,2021-08-07 10:17:30.505460
-11,-19,-36,-73,-80,-58,-22,-8,2021-08-07 10:17:30.520464
-1,0,4,3,-4,-4,-3,-3,2021-08-07 10:17:30.521471
-1,-2,-6,-8,-7,-6,-1,-2,2021-08-07 10:17:30.521471
0,4,15,25,20,14,2,1,2021-08-07 10:17:30.522466
5,8,16,35,48,29,11,3,2021-08-07 10:17:30.543467
3,6,22,45,38,21,7,1,2021-08-07 10:17:30.544462
-1,-6,-27,-62,-53,-31,-7,-3,2021-08-07 10:17:30.544462
-9,-13,-24,-41,-58,-37,-16,-8,2021-08-07 10:17:30.545456
0,0,-4,-2,3,4,-1,0,2021-08-07 10:17:30.557461
2,3,14,31,33,18,3,1,2021-08-07 10:17:30.557461
3,6,12,20,32,23,11,5,2021-08-07 10:17:30.565466
-4,-9,-15,-30,-43,-29,-12,-5,2021-08-07 10:17:30.566469
2,2,-1,5,13,9,1,1,2021-08-07 10:17:30.588467
1,0,3,3,3,1,1,0,2021-08-07 10:17:30.589469
0,-1,-1,3,0,1,-2,-1,2021-08-07 10:17:30.589469
-1,-2,-1,-3,-1,-3,-2,-3,2021-08-07 10:17:30.590471
0,2,13,26,24,14,5,1,2021-08-07 10:17:30.603464
2,2,-4,3,16,12,6,3,2021-08-07 10:17:30.604452
-6,-9,-19,-39,-46,-32,-11,-5,2021-08-07 10:17:30.604452
-7,-10,-16,-25,-35,-22,-10,-6,2021-08-07 10:17:30.604452
6,10,24,37,46,32,11,4,2021-08-07 10:17:30.617467
-2,-2,-8,-12,-13,-11,-4,-3,2021-08-07 10:17:30.618454
-4,-9,-23,-42,-45,-29,-11,-4,2021-08-07 10:17:30.625465
0,5,12,20,22,14,3,1,2021-08-07 10:17:30.625465
-2,-3,1,7,7,6,0,1,2021-08-07 10:17:30.640462
-3,-1,2,5,0,2,0,0,2021-08-07 10:17:30.641461
0,1,1,14,19,10,4,2,2021-08-07 10:17:30.641461
-1,-2,-2,-4,-5,-6,-2,-3,2021-08-07 10:17:30.641461
-1,0,-5,-11,-9,-5,-2,-3,2021-08-07 10:17:30.663468
-1,-2,-2,-2,-4,-4,-2,1,2021-08-07 10:17:30.664467
3,5,14,26,27,19,7,3,2021-08-07 10:17:30.664467
-2,-1,-4,-16,-20,-15,-5,-1,2021-08-07 10:17:30.664467
0,0,4,14,5,-1,0,-2,2021-08-07 10:17:30.677464
-2,-6,-14,-34,-33,-19,-6,-3,2021-08-07 10:17:30.677464
-4,-7,-13,-23,-24,-12,-8,-3,2021-08-07 10:17:30.685466
5,6,15,32,41,26,9,5,2021-08-07 10:17:30.686466
-3,-5,-12,-20,-25,-16,-5,-4,2021-08-07 10:17:30.700468
0,-2,3,-5,-5,-4,-2,-1,2021-08-07 10:17:30.700468
0,2,3,28,28,15,2,1,2021-08-07 10:17:30.701463
2,3,10,17,21,16,6,1,2021-08-07 10:17:30.701463
-2,-4,-14,-25,-20,-9,-2,2,2021-08-07 10:17:30.723466
-3,-3,-3,-9,-14,-9,-4,-2,2021-08-07 10:17:30.724458
-2,0,0,0,-3,-2,-2,-1,2021-08-07 10:17:30.724458
-2,3,11,32,24,10,2,-2,2021-08-07 10:17:30.724458
2,2,6,14,22,12,5,1,2021-08-07 10:17:30.737464
-2,-4,-20,-44,-51,-27,-8,-1,2021-08-07 10:17:30.737464
-2,-1,0,-9,-8,-5,-4,-2,2021-08-07 10:17:30.745465
