EMG 1,EMG 2,EMG 3,EMG 4,EMG 5,EMG 6,EMG 7,EMG 8,Timestamp
1,0,1,2,0,-1,-1,1,2021-08-07 12:14:25.162746
1,-1,-2,-3,-4,-3,-2,-1,2021-08-07 12:14:25.162746
0,0,-1,-1,3,2,2,-1,2021-08-07 12:14:25.163745
-3,-2,-1,4,1,-2,-1,-2,2021-08-07 12:14:25.164748
-3,-3,-10,-26,-25,-14,-7,-3,2021-08-07 12:14:25.175746
0,0,0,-3,6,4,1,0,2021-08-07 12:14:25.176745
-1,-1,-2,-9,-8,-4,-2,-2,2021-08-07 12:14:25.184745
8,10,23,65,72,37,16,6,2021-08-07 12:14:25.184745
-2,-2,-3,-8,-9,-5,-2,-4,2021-08-07 12:14:25.199746
-3,-4,-5,-8,-12,-6,-3,-3,2021-08-07 12:14:25.199746
-1,0,-3,-11,-13,-7,-4,-1,2021-08-07 12:14:25.201748
-3,-7,-13,-26,-28,-15,-7,-4,2021-08-07 12:14:25.201748
0,-1,3,6,8,4,1,0,2021-08-07 12:14:25.222748
0,-1,0,-2,-4,-2,-3,-3,2021-08-07 12:14:25.222748
1,2,0,2,0,1,1,1,2021-08-07 12:14:25.223749
-2,-1,2,4,4,0,-3,-2,2021-08-07 12:14:25.223749
3,1,0,5,5,3,1,2,2021-08-07 12:14:25.235747
-3,-5,-5,-8,-7,-6,-4,-4,2021-08-07 12:14:25.235747
1,2,4,7,4,3,2,2,2021-08-07 12:14:25.244749
0,0,0,-8,-7,-5,-2,-1,2021-08-07 12:14:25.245750
-2,-2,-6,-9,-8,-4,-2,-1,2021-08-07 12:14:25.259746
-1,0,2,4,4,2,1,0,2021-08-07 12:14:25.260746
-3,-6,-3,-5,-7,-5,-3,-2,2021-08-07 12:14:25.261746
-1,-1,0,0,2,1,0,1,2021-08-07 12:14:25.261746
-2,-2,-3,-1,4,2,0,0,2021-08-07 12:14:25.282746
3,3,6,12,6,3,2,1,2021-08-07 12:14:25.282746
-1,-1,-3,-2,-3,-1,-1,-1,2021-08-07 12:14:25.283746
-2,-3,-3,-8,-7,-1,-3,-1,2021-08-07 12:14:25.283746
-3,-3,-1,6,5,1,-1,-2,2021-08-07 12:14:25.295746
0,0,-5,-4,-5,-2,-1,0,2021-08-07 12:14:25.296748
2,2,6,7,9,3,2,1,2021-08-07 12:14:25.304748
-4,-7,-6,-6,-10,-6,-5,-4,2021-08-07 12:14:25.305747
1,2,2,-5,-4,-1,0,0,2021-08-07 12:14:25.319747
-1,0,1,5,1,2,2,2,2021-08-07 12:14:25.319747
0,1,2,1,-1,0,-1,-1,2021-08-07 12:14:25.321747
-3,-3,-5,-3,-4,-3,-2,-1,2021-08-07 12:14:25.321747
-2,0,-2,-3,-5,-1,-3,-1,2021-08-07 12:14:25.342751
-3,-5,-5,-10,-9,-6,-3,-3,2021-08-07 12:14:25.342751
0,0,-2,-3,1,0,0,-1,2021-08-07 12:14:25.343749
0,0,1,6,8,4,2,-1,2021-08-07 12:14:25.343749
1,1,4,15,7,2,1,1,2021-08-07 12:14:25.355750
1,2,0,-1,0,0,0,0,2021-08-07 12:14:25.356749
-2,-2,-1,2,0,-1,-1,-3,2021-08-07 12:14:25.365264
-2,-2,-7,-16,-14,-8,-2,0,2021-08-07 12:14:25.365264
-1,-1,-4,-15,-11,-8,-3,-2,2021-08-07 12:14:25.380263
0,0,3,10,10,3,0,-1,2021-08-07 12:14:25.380263
-1,-2,-2,1,3,0,1,-1,2021-08-07 12:14:25.381266
-2,-2,-2,-1,0,-2,-2,-3,2021-08-07 12:14:25.381266
0,0,2,1,-3,-2,-1,-1,2021-08-07 12:14:25.402266
1,0,0,0,2,2,1,1,2021-08-07 12:14:25.402266
-2,-4,-4,-8,-8,-4,-2,-3,2021-08-07 12:14:25.404264
-2,-3,-6,-12,-11,-7,-4,-1,2021-08-07 12:14:25.404264
1,3,7,18,16,9,4,2,2021-08-07 12:14:25.416264
1,1,0,-1,5,2,0,1,2021-08-07 12:14:25.416264
0,0,1,0,-1,1,0,0,2021-08-07 12:14:25.425265
-3,-3,-6,-7,-6,-6,-3,-2,2021-08-07 12:14:25.425265
0,-3,-5,-16,-12,-4,-1,-1,2021-08-07 12:14:25.440265
0,2,9,24,24,10,6,1,2021-08-07 12:14:25.440265
0,-1,-3,-6,-5,-3,-2,0,2021-08-07 12:14:25.441267
-2,-3,2,4,4,1,-2,-2,2021-08-07 12:14:25.442265
0,1,-6,-11,-12,-6,-3,0,2021-08-07 12:14:25.462263
1,0,0,3,-3,-2,0,1,2021-08-07 12:14:25.462263
-1,0,-3,-4,-3,-4,-3,-1,2021-08-07 12:14:25.464264
-1,-2,-1,0,-2,-2,0,-2,2021-08-07 12:14:25.464264
-1,-1,1,2,3,3,0,-2,2021-08-07 12:14:25.485265
-5,-6,-10,-14,-14,-9,-6,-4,2021-08-07 12:14:25.485265
2,4,2,7,8,4,3,2,2021-08-07 12:14:25.486263
2,3,1,-1,-1,1,0,1,2021-08-07 12:14:25.486263
-4,-3,-2,-3,-4,-4,-3,-2,2021-08-07 12:14:25.500264
-1,0,-2,-6,-2,0,-1,-2,2021-08-07 12:14:25.500264
-1,0,5,10,7,4,0,0,2021-08-07 12:14:25.501264
0,1,2,8,6,3,-1,0,2021-08-07 12:14:25.501264
-2,-5,-2,-1,-2,-2,-2,-2,2021-08-07 12:14:25.522268
-1,-1,1,-2,-6,-3,-2,-1,2021-08-07 12:14:25.523265
-1,-3,-5,-16,-17,-8,-5,-2,2021-08-07 12:14:25.524268
2,0,6,17,24,11,5,2,2021-08-07 12:14:25.524268
-1,1,-1,1,2,2,0,0,2021-08-07 12:14:25.545264
-3,-2,-2,0,-3,-2,-1,-1,2021-08-07 12:14:25.545264
-5,-6,-8,-17,-18,-10,-5,-4,2021-08-07 12:14:25.546264
0,1,1,-3,-5,-4,-2,-2,2021-08-07 12:14:25.546264
2,3,6,18,24,11,5,2,2021-08-07 12:14:25.560265
0,-1,-3,-3,0,-1,0,-1,2021-08-07 12:14:25.560265
-2,-4,-6,-6,-8,-1,-4,-1,2021-08-07 12:14:25.566265
-2,-3,-3,-10,-15,-7,-4,-2,2021-08-07 12:14:25.566265
1,0,3,6,4,2,0,0,2021-08-07 12:14:25.590266
2,2,1,1,7,5,1,1,2021-08-07 12:14:25.590266
-3,-3,-1,1,-1,-1,-3,-3,2021-08-07 12:14:25.591265
1,2,0,1,-1,0,-1,-2,2021-08-07 12:14:25.591265
-3,-3,-7,-17,-17,-9,-5,-2,2021-08-07 12:14:25.605264
1,3,6,9,5,4,3,1,2021-08-07 12:14:25.605264
2,2,1,9,9,2,3,1,2021-08-07 12:14:25.606263
-3,-4,-4,-2,-3,-2,-2,-2,2021-08-07 12:14:25.606263
-3,-4,-5,-13,-12,-6,-4,-3,2021-08-07 12:14:25.619265
-2,-2,-3,-4,-7,-6,-4,-2,2021-08-07 12:14:25.619265
2,2,5,4,8,4,3,1,2021-08-07 12:14:25.627267
-1,-1,4,9,10,6,1,-1,2021-08-07 12:14:25.627267
-2,-1,0,0,-4,-1,-1,-1,2021-08-07 12:14:25.642266
-2,-4,-3,-8,-5,-4,-3,-4,2021-08-07 12:14:25.642266
-1,-2,-3,3,-1,-1,-2,-3,2021-08-07 12:14:25.644264
0,1,-2,-6,-6,-4,0,2,2021-08-07 12:14:25.644264
-2,-2,-5,-4,-1,-2,-2,-1,2021-08-07 12:14:25.665265
1,1,1,2,1,1,0,-1,2021-08-07 12:14:25.665265
-1,-1,1,-2,-3,-3,-2,-2,2021-08-07 12:14:25.666265
-3,-5,-4,-4,-7,-4,-3,-2,2021-08-07 12:14:25.666265
0,0,-2,0,3,1,0,0,2021-08-07 12:14:25.679262
0,0,2,4,3,2,1,1,2021-08-07 12:14:25.679262
-1,1,3,12,8,3,0,0,2021-08-07 12:14:25.686265
-1,0,-1,-1,1,1,1,0,2021-08-07 12:14:25.686265
-3,-2,-3,-4,-8,-4,-3,-1,2021-08-07 12:14:25.702263
0,0,-2,-7,-5,-1,-2,-1,2021-08-07 12:14:25.702263
-3,-4,-2,-4,-2,-1,0,-2,2021-08-07 12:14:25.704264
0,0,-2,-4,-4,-2,0,1,2021-08-07 12:14:25.704264
0,0,0,2,2,1,1,-1,2021-08-07 12:14:25.725264
0,-3,-3,-5,-3,-2,-2,0,2021-08-07 12:14:25.725264
1,-1,0,-3,0,0,-1,1,2021-08-07 12:14:25.726264
-1,1,0,-1,-2,-2,-1,-1,2021-08-07 12:14:25.726264
1,0,-4,-6,-4,-2,1,0,2021-08-07 12:14:25.739264
-2,-1,-2,-1,-3,-1,-1,-1,2021-08-07 12:14:25.739264
-1,1,-2,2,0,0,-1,-1,2021-08-07 12:14:25.746265
-1,-2,2,7,4,2,-1,-2,2021-08-07 12:14:25.746265
0,-3,-1,-2,-3,-2,0,-1,2021-08-07 12:14:25.762265
-2,-3,-1,0,0,1,-2,-1,2021-08-07 12:14:25.762265
1,2,2,0,4,2,0,0,2021-08-07 12:14:25.764268
0,-1,-3,-8,-7,-3,-2,0,2021-08-07 12:14:25.764268
0,0,2,11,6,1,1,-1,2021-08-07 12:14:25.785266
0,1,-1,-8,-6,-4,0,-2,2021-08-07 12:14:25.785266
-1,0,-1,0,4,1,0,1,2021-08-07 12:14:25.786266
0,1,1,-1,-2,-3,0,-1,2021-08-07 12:14:25.786266
-1,-2,-2,-5,-5,-2,-3,-2,2021-08-07 12:14:25.799264
1,0,-1,1,2,2,1,0,2021-08-07 12:14:25.799264
-2,-1,0,-4,-5,-1,-2,-2,2021-08-07 12:14:25.806271
-3,-2,-4,-4,-3,-2,-2,-3,2021-08-07 12:14:25.806271
-1,-1,-1,-3,-1,1,1,2,2021-08-07 12:14:25.821264
0,0,1,6,2,0,-1,-1,2021-08-07 12:14:25.821264
1,2,4,11,6,1,1,0,2021-08-07 12:14:25.830267
1,-1,-3,0,-1,0,0,-1,2021-08-07 12:14:25.830267
-2,-1,-5,-8,-8,-4,-1,0,2021-08-07 12:14:25.844264
0,-2,-3,-4,2,0,1,3,2021-08-07 12:14:25.844264
0,-1,0,0,0,-1,1,1,2021-08-07 12:14:25.852264
-3,-4,-2,-1,-4,-2,0,0,2021-08-07 12:14:25.852264
-1,-1,1,3,2,2,-1,-3,2021-08-07 12:14:25.867267
-4,-2,0,0,1,1,-2,-2,2021-08-07 12:14:25.868264
-4,-1,-4,-7,-9,-6,-3,-4,2021-08-07 12:14:25.869265
-1,1,2,3,6,2,-2,-1,2021-08-07 12:14:25.869265
0,-2,-1,-5,-6,-4,-2,-1,2021-08-07 12:14:25.881268
-1,-2,-3,-7,-7,-6,-3,1,2021-08-07 12:14:25.881268
2,2,3,11,13,6,4,2,2021-08-07 12:14:25.890265
0,-1,-1,0,-4,-2,-2,0,2021-08-07 12:14:25.890265
0,0,-1,0,-1,0,0,0,2021-08-07 12:14:25.905264
-2,0,1,0,2,2,-1,-1,2021-08-07 12:14:25.905264
-4,-5,-6,-8,-9,-4,-2,-3,2021-08-07 12:14:25.906264
1,1,0,-4,-2,-2,-1,0,2021-08-07 12:14:25.906264
-1,-2,1,2,1,0,0,-1,2021-08-07 12:14:25.927264
1,-2,-4,-9,-7,-4,-1,-1,2021-08-07 12:14:25.927264
0,1,3,14,17,4,1,0,2021-08-07 12:14:25.929266
-1,1,1,-2,0,0,-1,1,2021-08-07 12:14:25.929266
-3,-1,1,1,2,1,-1,-1,2021-08-07 12:14:25.950266
-5,-5,-8,-9,-11,-7,-4,-4,2021-08-07 12:14:25.950266
0,-1,0,-4,-3,-1,-1,0,2021-08-07 12:14:25.951265
-1,-1,-1,3,3,0,-2,0,2021-08-07 12:14:25.952266
-1,-1,-2,1,1,-1,-2,0,2021-08-07 12:14:25.965266
-1,0,2,2,-1,1,1,-1,2021-08-07 12:14:25.965266
-4,-5,-6,-12,-7,-2,-2,-3,2021-08-07 12:14:25.966267
1,0,-1,-1,-3,-1,0,-2,2021-08-07 12:14:25.966267
-2,-3,-3,-5,-1,-1,-2,-2,2021-08-07 12:14:25.987266
-1,2,2,3,5,3,0,1,2021-08-07 12:14:25.987266
-4,-3,-6,-10,-8,-3,-3,-4,2021-08-07 12:14:25.989268
0,-2,-3,-1,0,1,0,0,2021-08-07 12:14:25.989268
0,-1,0,1,0,-1,0,0,2021-08-07 12:14:26.010264
1,2,4,11,2,0,0,0,2021-08-07 12:14:26.010264
0,-3,-3,-3,-4,-3,-3,-2,2021-08-07 12:14:26.011264
-2,-1,-2,0,3,1,0,0,2021-08-07 12:14:26.012267
-4,-1,-2,-6,-4,-2,-1,-2,2021-08-07 12:14:26.025264
1,0,-1,-1,-1,-2,2,1,2021-08-07 12:14:26.025264
0,0,0,2,-3,-2,-2,0,2021-08-07 12:14:26.026263
-2,-1,-2,0,0,1,0,-2,2021-08-07 12:14:26.026263
0,0,3,-2,-1,1,1,1,2021-08-07 12:14:26.048266
-1,0,0,-3,-1,-2,-2,-1,2021-08-07 12:14:26.048266
2,4,2,4,4,2,3,2,2021-08-07 12:14:26.049264
0,0,0,-2,-1,-2,-2,-2,2021-08-07 12:14:26.049264
-2,-3,-3,-2,-3,-3,-2,0,2021-08-07 12:14:26.070266
3,3,3,4,1,1,2,3,2021-08-07 12:14:26.070266
-1,-1,-1,-2,3,2,0,0,2021-08-07 12:14:26.071266
0,-2,-1,1,2,1,0,0,2021-08-07 12:14:26.072266
-2,-2,0,0,1,0,-2,-3,2021-08-07 12:14:26.084263
0,1,3,10,13,6,1,1,2021-08-07 12:14:26.084263
-1,-2,-2,-6,-9,-7,-3,-1,2021-08-07 12:14:26.085268
-1,1,-1,-1,-1,-1,0,-1,2021-08-07 12:14:26.085268
-2,-4,-4,-7,-3,-4,-2,-2,2021-08-07 12:14:26.106264
-1,-3,-6,-7,-4,-1,0,-1,2021-08-07 12:14:26.107267
0,0,1,-1,-3,-3,-1,0,2021-08-07 12:14:26.107267
-4,-2,0,-2,-2,-3,-1,0,2021-08-07 12:14:26.107267
1,0,-4,-2,1,1,0,1,2021-08-07 12:14:26.129263
-3,-2,-2,2,4,2,-1,-2,2021-08-07 12:14:26.129263
-1,-1,0,0,1,-2,-1,-2,2021-08-07 12:14:26.130265
-2,-1,-3,-10,-7,-4,-3,-1,2021-08-07 12:14:26.130265
-1,0,2,5,0,0,-3,-2,2021-08-07 12:14:26.144264
-3,-4,-4,-11,-11,-7,-5,-4,2021-08-07 12:14:26.144264
0,1,1,7,8,5,1,3,2021-08-07 12:14:26.145264
-2,-2,-2,0,1,0,-2,-2,2021-08-07 12:14:26.145264
0,4,4,8,7,3,2,4,2021-08-07 12:14:26.166263
-2,-1,0,2,0,-2,-1,-2,2021-08-07 12:14:26.167265
0,-2,-2,-5,-8,-3,-2,-2,2021-08-07 12:14:26.167265
-2,1,0,1,0,-1,0,-1,2021-08-07 12:14:26.168264
-2,-1,1,5,3,0,-1,-2,2021-08-07 12:14:26.189266
0,0,-4,-7,-5,-1,-1,0,2021-08-07 12:14:26.189266
0,0,2,0,2,0,-1,-1,2021-08-07 12:14:26.190264
1,-2,1,2,-1,-3,0,-3,2021-08-07 12:14:26.190264
3,2,-2,-10,-7,-2,-1,0,2021-08-07 12:14:26.205266
1,1,5,7,11,4,1,0,2021-08-07 12:14:26.206266
-3,-3,-3,-3,-4,-2,0,-2,2021-08-07 12:14:26.206266
-2,-1,-1,3,3,0,-2,-2,2021-08-07 12:14:26.206266
-1,1,2,2,-4,-2,0,-2,2021-08-07 12:14:26.227266
-2,-1,-3,-6,-4,-4,-3,-1,2021-08-07 12:14:26.227266
-1,0,1,4,0,1,-2,-1,2021-08-07 12:14:26.227266
-1,-3,-4,-6,-8,-4,-2,-2,2021-08-07 12:14:26.227266
-2,-3,-4,-9,-3,-1,-3,-3,2021-08-07 12:14:26.249265
0,0,4,10,6,4,1,3,2021-08-07 12:14:26.249265
-1,0,0,2,3,0,0,-1,2021-08-07 12:14:26.250264
-2,-1,-5,-10,-12,-5,1,-1,2021-08-07 12:14:26.250264
-2,-1,-2,1,2,-1,-1,-1,2021-08-07 12:14:26.264265
1,0,0,0,-2,0,1,0,2021-08-07 12:14:26.264265
-3,-2,-2,-4,-2,-4,-2,-2,2021-08-07 12:14:26.265270
4,3,6,13,12,5,4,2,2021-08-07 12:14:26.265270
0,1,1,2,0,1,1,1,2021-08-07 12:14:26.286266
-3,-5,-5,-11,-12,-7,-5,-3,2021-08-07 12:14:26.286266
-2,-2,-2,-1,-4,-3,-4,-1,2021-08-07 12:14:26.294263
-1,-2,-4,-8,-2,-1,-3,-1,2021-08-07 12:14:26.294263
1,0,-2,-4,-5,-3,-1,0,2021-08-07 12:14:26.309263
-1,0,4,11,12,6,1,-2,2021-08-07 12:14:26.309263
-1,-1,-4,-8,-6,-3,-3,-1,2021-08-07 12:14:26.310265
-3,-2,-1,-3,-1,-2,-2,-3,2021-08-07 12:14:26.310265
2,1,1,1,-1,0,0,2,2021-08-07 12:14:26.324264
0,-3,-4,-3,-3,-3,-1,0,2021-08-07 12:14:26.324264
-2,-1,-1,-5,-2,0,-3,-2,2021-08-07 12:14:26.325265
-2,-1,0,-2,-3,-2,-2,-2,2021-08-07 12:14:26.325265
-2,-1,-3,-5,-4,-3,-2,-2,2021-08-07 12:14:26.346263
3,1,2,5,5,1,1,-1,2021-08-07 12:14:26.347265
1,0,0,3,5,1,2,-1,2021-08-07 12:14:26.347265
-1,0,0,2,0,-1,-3,0,2021-08-07 12:14:26.347265
-2,-1,-4,-1,-3,-2,-2,-2,2021-08-07 12:14:26.369263
-3,-2,-5,-12,-4,-4,-3,-3,2021-08-07 12:14:26.369263
1,0,0,3,1,1,1,-1,2021-08-07 12:14:26.370262
-1,2,0,0,-2,0,0,-1,2021-08-07 12:14:26.370262
-1,1,1,4,2,2,-1,-1,2021-08-07 12:14:26.384264
-2,-1,-2,-7,-8,-4,-3,-1,2021-08-07 12:14:26.384264
-2,-2,-5,-14,-9,-4,-1,-1,2021-08-07 12:14:26.385265
-1,-1,1,3,10,7,2,-1,2021-08-07 12:14:26.385265
2,0,1,9,9,4,3,2,2021-08-07 12:14:26.415265
0,1,1,3,1,0,0,-1,2021-08-07 12:14:26.415265
-3,-5,-5,-8,-7,-3,-5,-3,2021-08-07 12:14:26.415265
0,0,2,0,-2,-2,0,1,2021-08-07 12:14:26.416266
1,3,2,0,2,1,1,0,2021-08-07 12:14:26.429265
-2,-2,-4,-5,-4,-1,0,-1,2021-08-07 12:14:26.429265
-2,-1,-1,1,-1,-2,-1,-3,2021-08-07 12:14:26.430263
-3,-1,-3,-5,-3,-2,-1,0,2021-08-07 12:14:26.430263
-4,-3,-2,-3,-1,-2,-1,-1,2021-08-07 12:14:26.444265
-1,1,-1,-4,-5,-2,-2,-1,2021-08-07 12:14:26.444265
1,3,4,6,6,3,0,0,2021-08-07 12:14:26.445264
-2,-2,-1,0,-2,-1,-1,-3,2021-08-07 12:14:26.445264
1,0,-1,0,0,1,0,0,2021-08-07 12:14:26.466262
1,-2,-3,-6,-10,-6,-4,-2,2021-08-07 12:14:26.467264
-2,-2,0,1,3,1,0,0,2021-08-07 12:14:26.467264
1,1,0,4,9,6,3,1,2021-08-07 12:14:26.467264
0,-1,3,4,-1,-1,0,-1,2021-08-07 12:14:26.489267
-3,-3,-6,-5,-1,0,-2,0,2021-08-07 12:14:26.489267
0,-2,3,9,3,0,-1,-2,2021-08-07 12:14:26.490264
0,0,-2,-2,-7,-4,0,0,2021-08-07 12:14:26.490264
0,0,-1,0,3,1,1,-2,2021-08-07 12:14:26.504264
-2,-1,0,0,1,-1,1,-1,2021-08-07 12:14:26.504264
0,0,-5,-8,-6,-2,0,-1,2021-08-07 12:14:26.505263
-1,-3,-4,-3,-3,-2,-3,-1,2021-08-07 12:14:26.505263
-1,-1,-1,0,-2,-2,-3,-1,2021-08-07 12:14:26.526264
1,1,2,1,3,2,3,1,2021-08-07 12:14:26.527266
1,1,2,4,2,2,0,0,2021-08-07 12:14:26.527266
1,-1,1,1,-1,-2,-2,-2,2021-08-07 12:14:26.527266
-1,-1,-2,-6,-6,-3,-1,-1,2021-08-07 12:14:26.549262
-1,-1,-3,-3,-5,-1,-4,-1,2021-08-07 12:14:26.549262
-1,2,0,6,9,4,1,1,2021-08-07 12:14:26.550265
-1,-3,-4,-5,-7,-4,-3,-2,2021-08-07 12:14:26.550265
-2,-2,0,-2,0,0,0,-1,2021-08-07 12:14:26.563264
5,6,-1,-8,-1,1,2,3,2021-08-07 12:14:26.564266
-2,-1,3,8,6,2,0,-1,2021-08-07 12:14:26.572266
-3,-2,-4,-8,-10,-4,-3,-3,2021-08-07 12:14:26.572266
0,0,1,3,3,-1,0,0,2021-08-07 12:14:26.587267
-1,0,1,2,-1,1,2,1,2021-08-07 12:14:26.587267
-3,-2,-4,-7,-5,-2,-2,0,2021-08-07 12:14:26.587267
-1,-1,0,1,0,0,-2,-1,2021-08-07 12:14:26.587267
0,-1,-4,-5,-5,-2,-2,0,2021-08-07 12:14:26.609265
-2,-2,-2,-1,-4,-3,-3,-1,2021-08-07 12:14:26.609265
-1,1,-2,-3,0,-1,0,0,2021-08-07 12:14:26.610267
-3,0,-2,-1,-4,-2,-2,-2,2021-08-07 12:14:26.610267
1,2,3,8,10,4,2,1,2021-08-07 12:14:26.623264
1,1,2,4,0,-2,0,-1,2021-08-07 12:14:26.624269
-2,-4,-4,-5,-8,-5,-3,-1,2021-08-07 12:14:26.632268
-1,0,1,1,0,-1,-1,0,2021-08-07 12:14:26.632268
2,1,-1,-1,-2,0,0,1,2021-08-07 12:14:26.646264
-2,-4,-3,-6,-5,-3,-1,-4,2021-08-07 12:14:26.647266
-1,0,0,-6,3,0,0,-1,2021-08-07 12:14:26.647266
1,-2,1,6,8,4,0,1,2021-08-07 12:14:26.648265
-2,-2,0,3,0,-2,0,-2,2021-08-07 12:14:26.669264
-3,-2,1,0,-5,-3,-4,-3,2021-08-07 12:14:26.669264
0,-1,-4,-8,-10,-4,-2,-2,2021-08-07 12:14:26.670264
0,0,2,5,3,1,-1,3,2021-08-07 12:14:26.670264
3,0,-1,-3,0,-2,1,0,2021-08-07 12:14:26.683264
-1,-3,-4,1,2,0,1,0,2021-08-07 12:14:26.684265
0,-2,-3,-4,-4,-2,1,0,2021-08-07 12:14:26.691264
0,-2,-1,-3,-1,1,1,-1,2021-08-07 12:14:26.692264
-4,-4,-4,-4,-7,-2,-3,-3,2021-08-07 12:14:26.707264
-4,-3,0,-5,-2,-2,-2,-3,2021-08-07 12:14:26.707264
-4,0,6,15,13,5,-2,-3,2021-08-07 12:14:26.714265
3,4,0,-1,0,0,2,1,2021-08-07 12:14:26.714265
2,1,5,5,5,3,0,0,2021-08-07 12:14:26.737264
3,4,3,0,-2,-1,0,0,2021-08-07 12:14:26.737264
0,-2,-6,-12,-11,-5,-1,0,2021-08-07 12:14:26.738264
1,-2,-2,0,3,0,-2,-1,2021-08-07 12:14:26.738264
-2,-5,-2,-2,0,-1,-2,-2,2021-08-07 12:14:26.743263
0,1,1,4,1,-1,0,0,2021-08-07 12:14:26.744265
0,0,0,3,4,2,1,0,2021-08-07 12:14:26.752266
-3,-2,-2,-5,-7,-3,-2,-3,2021-08-07 12:14:26.752266
0,-1,-3,-5,-3,0,-1,-1,2021-08-07 12:14:26.767266
-2,-3,0,5,1,-1,-1,-3,2021-08-07 12:14:26.767266
1,0,-2,-5,-5,-4,-1,1,2021-08-07 12:14:26.767266
-2,0,-4,-8,-3,-4,-3,-3,2021-08-07 12:14:26.767266
-2,-1,-6,-12,-12,-7,-4,-3,2021-08-07 12:14:26.789266
3,7,14,27,20,10,5,3,2021-08-07 12:14:26.789266
1,1,0,0,4,3,2,1,2021-08-07 12:14:26.790265
1,1,5,8,5,0,-1,-1,2021-08-07 12:14:26.790265
-3,-4,-3,-3,-9,-5,-3,-2,2021-08-07 12:14:26.803263
-1,0,-3,0,9,4,1,1,2021-08-07 12:14:26.804264
-6,-6,-2,-6,-7,-4,-5,-4,2021-08-07 12:14:26.812265
3,2,3,-1,-2,-1,1,3,2021-08-07 12:14:26.812265
-3,-2,-1,0,1,0,-2,-1,2021-08-07 12:14:26.826264
2,5,1,-8,-10,-4,0,2,2021-08-07 12:14:26.827264
0,-1,-1,-3,-11,-5,-3,-2,2021-08-07 12:14:26.827264
-2,-3,-3,-7,-6,-2,-2,-2,2021-08-07 12:14:26.827264
1,0,2,9,10,6,1,-1,2021-08-07 12:14:26.849264
-1,-3,-1,7,13,6,1,-2,2021-08-07 12:14:26.849264
0,0,1,2,-1,-3,-1,0,2021-08-07 12:14:26.850265
-4,-4,-5,-8,-17,-9,-4,-2,2021-08-07 12:14:26.850265
-1,2,-4,-6,0,0,-1,-1,2021-08-07 12:14:26.863262
-4,-5,-5,-3,0,-1,-2,-3,2021-08-07 12:14:26.864265
1,0,-2,-5,-5,-2,-1,-1,2021-08-07 12:14:26.871264
0,0,3,13,10,5,1,0,2021-08-07 12:14:26.872265
1,3,0,-2,-3,-1,0,2,2021-08-07 12:14:26.886264
-4,-5,-5,-4,-4,-4,-2,-1,2021-08-07 12:14:26.887265
-1,-1,-1,5,6,1,0,-1,2021-08-07 12:14:26.887265
0,0,-2,-5,-1,1,1,0,2021-08-07 12:14:26.887265
0,-1,1,3,1,-2,1,-1,2021-08-07 12:14:26.909265
-1,-2,-4,-7,-9,-5,-3,-2,2021-08-07 12:14:26.909265
-1,-1,-1,-1,0,-2,1,0,2021-08-07 12:14:26.910266
-1,-2,-1,-1,0,-1,-1,0,2021-08-07 12:14:26.910266
-2,-1,0,-1,-1,1,-2,0,2021-08-07 12:14:26.932265
0,-3,-3,-1,-2,-1,-2,2,2021-08-07 12:14:26.932265
1,0,-2,-4,0,1,0,1,2021-08-07 12:14:26.933264
0,0,1,1,-2,-2,1,-1,2021-08-07 12:14:26.933264
-2,-2,-2,1,0,-2,-1,0,2021-08-07 12:14:26.947266
-2,-1,-3,-2,-1,-1,-2,-2,2021-08-07 12:14:26.947266
-2,-3,-4,-6,3,2,0,-1,2021-08-07 12:14:26.947266
-2,-1,0,3,3,0,1,-2,2021-08-07 12:14:26.948266
-2,0,-2,-8,-11,-5,-4,-2,2021-08-07 12:14:26.969264
-1,-1,0,1,-1,-1,0,0,2021-08-07 12:14:26.969264
-3,-2,0,-3,-6,-5,-2,-3,2021-08-07 12:14:26.970266
-2,-4,-2,-3,-3,-3,-2,-2,2021-08-07 12:14:26.970266
0,0,1,9,13,6,4,4,2021-08-07 12:14:26.992263
-1,0,-3,-7,-6,-2,-2,-1,2021-08-07 12:14:26.992263
0,0,-2,0,-5,-2,-2,-1,2021-08-07 12:14:26.993272
0,-1,0,4,4,3,0,-1,2021-08-07 12:14:26.993272
0,-1,0,4,3,-1,-2,-3,2021-08-07 12:14:27.007271
1,3,0,-1,2,2,2,0,2021-08-07 12:14:27.007271
-3,-2,-2,0,-3,-1,-3,0,2021-08-07 12:14:27.007271
0,2,0,1,1,2,1,1,2021-08-07 12:14:27.008266
-1,-2,-3,-6,-6,-1,-1,-2,2021-08-07 12:14:27.029267
0,-3,0,-1,1,0,-1,-1,2021-08-07 12:14:27.029267
-1,0,1,0,1,-1,-1,-5,2021-08-07 12:14:27.030267
1,-1,-5,-6,-3,-2,-1,1,2021-08-07 12:14:27.030267
-1,-3,-1,0,-1,0,0,1,2021-08-07 12:14:27.052264
-1,0,-2,-6,-7,-3,-2,-1,2021-08-07 12:14:27.052264
-3,-3,-2,-2,-1,-4,-4,0,2021-08-07 12:14:27.053264
-2,0,1,5,6,3,0,0,2021-08-07 12:14:27.053264
1,3,3,-2,-6,-2,-1,-1,2021-08-07 12:14:27.067265
1,-2,0,1,3,3,1,-1,2021-08-07 12:14:27.067265
0,1,1,10,7,3,0,0,2021-08-07 12:14:27.067265
1,0,-4,-9,-9,-4,-2,-1,2021-08-07 12:14:27.067265
-1,-2,0,3,1,-1,-1,-1,2021-08-07 12:14:27.089265
-4,-3,-5,-10,-9,-5,-4,-3,2021-08-07 12:14:27.089265
0,2,0,8,6,6,1,1,2021-08-07 12:14:27.090264
0,0,3,2,0,0,1,-1,2021-08-07 12:14:27.090264
1,0,-2,-6,-5,-2,1,1,2021-08-07 12:14:27.120264
-1,-2,-1,-3,-2,-3,-2,-2,2021-08-07 12:14:27.120264
-2,-2,-1,-7,-7,-5,-3,-1,2021-08-07 12:14:27.120264
0,-2,5,16,21,7,1,1,2021-08-07 12:14:27.121265
3,1,2,-1,-2,0,-1,0,2021-08-07 12:14:27.127267
-2,-2,-1,-2,-1,-1,-1,-3,2021-08-07 12:14:27.127267
-2,-5,-6,-5,-9,-5,-3,-1,2021-08-07 12:14:27.127267
0,1,-2,-6,-3,1,0,2,2021-08-07 12:14:27.128264
-1,-1,-2,1,1,0,0,0,2021-08-07 12:14:27.149263
-3,-3,-5,-6,-6,-6,-2,-2,2021-08-07 12:14:27.149263
2,3,5,3,-1,0,2,0,2021-08-07 12:14:27.150267
0,-2,1,8,8,4,1,0,2021-08-07 12:14:27.150267
-1,0,-1,2,3,2,0,0,2021-08-07 12:14:27.172316
-3,-3,-1,0,-4,-2,-2,-2,2021-08-07 12:14:27.172316
-2,-5,-6,-5,-2,-2,-3,-3,2021-08-07 12:14:27.173318
0,0,0,-3,-3,-1,1,-1,2021-08-07 12:14:27.173318
-1,-1,-1,-5,-6,-4,-2,-1,2021-08-07 12:14:27.186315
2,3,6,13,13,5,3,2,2021-08-07 12:14:27.187316
-1,-1,-2,-7,-4,-3,-2,-1,2021-08-07 12:14:27.187316
-3,-3,-3,-4,-6,-3,-3,-2,2021-08-07 12:14:27.187316
-2,-1,-3,-2,1,1,0,-2,2021-08-07 12:14:27.209319
-2,-2,0,-3,-4,-4,-2,-3,2021-08-07 12:14:27.209319
-1,1,0,2,2,2,0,0,2021-08-07 12:14:27.210318
-1,0,-1,2,-2,-2,-1,-1,2021-08-07 12:14:27.210318
-1,-2,-5,-4,-6,-3,-1,-1,2021-08-07 12:14:27.232316
2,2,2,0,0,1,1,1,2021-08-07 12:14:27.232316
0,1,3,10,12,6,2,4,2021-08-07 12:14:27.233316
-1,-3,-3,-9,-8,-4,-1,-2,2021-08-07 12:14:27.233316
-1,0,2,5,4,2,-2,-2,2021-08-07 12:14:27.246316
-2,-2,-4,-7,-7,-5,-4,-2,2021-08-07 12:14:27.247319
-1,1,0,0,-7,-3,-2,-1,2021-08-07 12:14:27.247319
0,0,-4,-2,3,2,0,0,2021-08-07 12:14:27.247319
5,3,7,13,11,7,5,4,2021-08-07 12:14:27.269316
-2,-1,-1,5,3,2,0,-1,2021-08-07 12:14:27.269316
-2,-4,-6,-11,-10,-5,-3,-1,2021-08-07 12:14:27.270316
-1,1,-3,-2,-2,-1,-1,-1,2021-08-07 12:14:27.270316
-1,1,0,-3,-1,0,-1,1,2021-08-07 12:14:27.293317
-1,-2,-2,-1,0,-2,1,0,2021-08-07 12:14:27.293317
-1,-3,-4,-5,-3,-2,0,-3,2021-08-07 12:14:27.293317
-2,-2,-1,-4,-6,-3,-4,-1,2021-08-07 12:14:27.294317
-2,-2,-2,1,1,-1,-1,-2,2021-08-07 12:14:27.306316
1,0,0,-3,-2,0,0,0,2021-08-07 12:14:27.307319
-1,-1,0,2,0,0,0,0,2021-08-07 12:14:27.307319
-1,0,-2,-1,-1,1,1,0,2021-08-07 12:14:27.307319
-2,-3,-3,-2,-1,-2,-1,-2,2021-08-07 12:14:27.329316
-1,-3,1,4,2,0,-1,-1,2021-08-07 12:14:27.329316
-2,-1,-2,-1,-7,-4,-2,-2,2021-08-07 12:14:27.330316
0,-1,3,10,9,2,-1,-1,2021-08-07 12:14:27.330316
1,3,2,2,13,8,5,1,2021-08-07 12:14:27.352317
-2,1,2,9,2,1,0,0,2021-08-07 12:14:27.352317
-4,-2,-3,-11,-11,-8,-3,-5,2021-08-07 12:14:27.353319
-1,0,-1,1,3,0,0,0,2021-08-07 12:14:27.353319
2,2,4,4,1,0,1,0,2021-08-07 12:14:27.366316
0,-2,-2,2,6,2,0,0,2021-08-07 12:14:27.367324
2,1,2,0,1,-1,1,0,2021-08-07 12:14:27.367324
-6,-8,-18,-20,-19,-9,-5,-2,2021-08-07 12:14:27.367324
-5,-9,-9,-24,-14,-10,-6,-3,2021-08-07 12:14:27.390318
0,3,0,-1,3,0,-1,0,2021-08-07 12:14:27.390318
-2,-1,-2,3,-2,-2,-3,-1,2021-08-07 12:14:27.390318
6,7,15,13,7,4,3,1,2021-08-07 12:14:27.390318
0,-1,-1,6,4,2,0,2,2021-08-07 12:14:27.412316
-3,-3,-6,-3,-2,1,-1,-3,2021-08-07 12:14:27.412316
-2,-4,-3,-5,5,2,0,-1,2021-08-07 12:14:27.413320
0,2,1,2,-1,-1,-2,1,2021-08-07 12:14:27.413320
-3,2,3,6,2,1,0,-1,2021-08-07 12:14:27.426316
-3,-2,-3,-12,-12,-9,-4,-1,2021-08-07 12:14:27.427315
0,0,-3,-3,1,1,0,-1,2021-08-07 12:14:27.427315
1,1,3,9,7,4,2,1,2021-08-07 12:14:27.427315
-2,-1,-3,-5,-7,-6,-2,-1,2021-08-07 12:14:27.450318
0,0,1,2,-1,-2,-1,1,2021-08-07 12:14:27.450318
-5,-6,-6,-8,-3,-2,-3,-3,2021-08-07 12:14:27.450318
0,2,1,-5,-5,-2,-3,0,2021-08-07 12:14:27.451317
-1,-2,1,2,0,-2,-4,-3,2021-08-07 12:14:27.472317
2,3,2,0,3,3,1,0,2021-08-07 12:14:27.472317
-2,-2,-1,0,0,1,0,-2,2021-08-07 12:14:27.473317
-3,-4,-6,-11,-12,-9,-3,-2,2021-08-07 12:14:27.473317
1,2,3,3,6,5,2,1,2021-08-07 12:14:27.486315
-1,-5,-3,-4,-4,-3,-2,-1,2021-08-07 12:14:27.487317
0,1,0,2,-2,-2,-1,-1,2021-08-07 12:14:27.487317
0,2,-3,-2,1,3,2,0,2021-08-07 12:14:27.487317
-2,-3,-4,-7,-9,-5,-4,0,2021-08-07 12:14:27.509317
-2,-3,-1,-3,-4,-2,0,0,2021-08-07 12:14:27.510317
1,1,3,8,14,7,1,0,2021-08-07 12:14:27.510317
-1,-1,0,0,-5,-2,-1,-2,2021-08-07 12:14:27.511318
-3,-2,-4,-10,-9,-4,-1,-2,2021-08-07 12:14:27.532316
-1,0,2,9,5,3,-1,-1,2021-08-07 12:14:27.532316
1,1,0,-2,-6,-4,-2,0,2021-08-07 12:14:27.533317
0,-1,-1,-5,1,2,-3,-1,2021-08-07 12:14:27.533317
0,0,0,5,-1,-2,-1,-1,2021-08-07 12:14:27.546315
-4,-4,-6,-10,-7,-4,-1,-1,2021-08-07 12:14:27.546315
4,1,0,1,0,2,3,4,2021-08-07 12:14:27.554318
-2,-5,-3,-5,-3,-3,-1,-2,2021-08-07 12:14:27.554318
-2,-2,-2,2,4,2,0,-1,2021-08-07 12:14:27.570315
-2,0,1,2,3,1,-2,-2,2021-08-07 12:14:27.570315
-4,-4,-2,-5,-7,-3,-4,-5,2021-08-07 12:14:27.570315
-3,0,1,3,2,-4,-3,-3,2021-08-07 12:14:27.571319
3,6,8,14,13,6,3,3,2021-08-07 12:14:27.592315
0,-1,1,-1,-1,-1,1,0,2021-08-07 12:14:27.593316
0,3,4,8,5,2,1,1,2021-08-07 12:14:27.593316
-3,-4,-10,-17,-12,-6,-1,-2,2021-08-07 12:14:27.593316
-1,0,1,8,3,0,0,-4,2021-08-07 12:14:27.606317
1,1,0,1,1,1,0,2,2021-08-07 12:14:27.606317
-3,-2,-3,-6,-7,-3,-3,-1,2021-08-07 12:14:27.614316
-2,-2,-2,-4,-3,-1,-1,-1,2021-08-07 12:14:27.614316
-1,-2,-2,-5,0,-1,0,-2,2021-08-07 12:14:27.645319
0,-2,-3,0,-1,-1,-1,-1,2021-08-07 12:14:27.645319
-2,-2,-1,3,1,0,-1,-2,2021-08-07 12:14:27.645319
-1,-3,-3,-4,-9,-5,-3,-1,2021-08-07 12:14:27.645319
-1,-1,-1,-2,5,1,0,1,2021-08-07 12:14:27.652318
-2,-2,0,-1,-3,-3,-1,-2,2021-08-07 12:14:27.652318
-2,2,6,11,12,5,2,1,2021-08-07 12:14:27.653318
0,-2,-1,1,1,1,-1,-1,2021-08-07 12:14:27.653318
-2,-5,-12,-22,-18,-8,-4,-2,2021-08-07 12:14:27.666315
-1,0,3,5,-1,-3,-2,-2,2021-08-07 12:14:27.666315
2,3,1,5,7,4,3,1,2021-08-07 12:14:27.674317
0,0,-1,-1,-1,-3,0,-3,2021-08-07 12:14:27.674317
-1,-3,-2,-2,-9,-5,-5,-2,2021-08-07 12:14:27.690318
-2,-3,-9,-6,-4,-2,-2,-1,2021-08-07 12:14:27.690318
2,3,5,8,4,2,-1,1,2021-08-07 12:14:27.690318
1,2,6,13,12,9,5,1,2021-08-07 12:14:27.691315
-4,-7,-9,-15,-14,-10,-5,-4,2021-08-07 12:14:27.712315
2,0,-1,-5,-6,-4,-1,0,2021-08-07 12:14:27.712315
1,-1,-1,0,-1,0,0,1,2021-08-07 12:14:27.713315
1,-2,2,3,8,3,1,1,2021-08-07 12:14:27.713315
-2,1,7,14,11,4,2,-1,2021-08-07 12:14:27.726319
-4,-4,-6,-15,-12,-5,-5,-4,2021-08-07 12:14:27.726319
-1,0,-3,-3,4,-1,0,1,2021-08-07 12:14:27.734317
-1,0,3,6,1,-2,-2,-1,2021-08-07 12:14:27.734317
-1,-1,-3,1,-3,1,1,1,2021-08-07 12:14:27.750315
-3,-3,-2,-10,-9,-5,-4,-2,2021-08-07 12:14:27.750315
3,2,2,4,0,1,0,1,2021-08-07 12:14:27.750315
-1,0,-1,-8,-3,-1,-3,-1,2021-08-07 12:14:27.751315
0,1,2,0,-3,-3,-1,-1,2021-08-07 12:14:27.772317
-1,1,0,5,10,5,0,1,2021-08-07 12:14:27.772317
-3,-6,-6,-5,-5,-5,-2,-4,2021-08-07 12:14:27.773316
-1,1,-2,1,2,0,0,0,2021-08-07 12:14:27.773316
-1,0,-2,-5,-4,-1,-1,0,2021-08-07 12:14:27.786316
0,-2,1,2,4,1,0,1,2021-08-07 12:14:27.786316
-4,-5,-4,-5,-3,-3,-2,-3,2021-08-07 12:14:27.794316
1,3,0,1,0,-1,1,1,2021-08-07 12:14:27.794316
-1,1,2,3,2,2,-1,-1,2021-08-07 12:14:27.810317
0,0,-2,-4,-3,-1,-1,-1,2021-08-07 12:14:27.810317
-2,0,2,3,3,2,-1,-2,2021-08-07 12:14:27.810317
-1,-3,-3,-4,-5,-2,-2,-1,2021-08-07 12:14:27.811318
-3,-1,-3,-2,-4,-4,-1,-1,2021-08-07 12:14:27.832316
-3,-3,-6,-10,-7,-2,0,-1,2021-08-07 12:14:27.832316
2,2,1,-1,5,0,1,-1,2021-08-07 12:14:27.834317
1,2,7,17,13,6,1,1,2021-08-07 12:14:27.834317
0,1,1,0,1,1,0,1,2021-08-07 12:14:27.855316
-1,-1,0,-2,-6,-3,-1,-2,2021-08-07 12:14:27.855316
-4,-5,-9,-14,-13,-7,-5,-2,2021-08-07 12:14:27.856314
-1,-1,-3,-6,-1,-1,-2,0,2021-08-07 12:14:27.856314
2,-1,-1,2,3,1,-1,1,2021-08-07 12:14:27.868316
-1,0,2,9,8,3,0,-1,2021-08-07 12:14:27.869317
0,0,0,0,-2,-1,0,-2,2021-08-07 12:14:27.877317
-2,-4,-3,-5,-5,-4,-3,-3,2021-08-07 12:14:27.877317
-1,0,-1,-6,-4,-1,0,-1,2021-08-07 12:14:27.892315
1,-2,2,5,7,4,2,1,2021-08-07 12:14:27.892315
0,-1,-1,0,0,1,0,0,2021-08-07 12:14:27.894316
-4,-2,-3,-2,-4,-1,0,-2,2021-08-07 12:14:27.894316
-2,0,-3,-7,-6,-3,-2,-3,2021-08-07 12:14:27.915317
0,0,0,0,3,0,-1,1,2021-08-07 12:14:27.915317
1,-1,1,1,0,0,-1,0,2021-08-07 12:14:27.916316
1,1,-2,-7,-5,-2,-2,0,2021-08-07 12:14:27.916316
-1,-2,-1,0,1,-1,-2,-2,2021-08-07 12:14:27.929315
-5,-2,-2,-2,-8,-4,-2,-2,2021-08-07 12:14:27.929315
0,1,-2,-3,6,3,1,2,2021-08-07 12:14:27.936318
1,1,1,-1,-2,-1,0,-1,2021-08-07 12:14:27.936318
-1,0,2,6,4,1,0,-2,2021-08-07 12:14:27.952317
0,-1,-1,-1,0,-2,-2,-3,2021-08-07 12:14:27.952317
-1,-2,-5,-12,-13,-7,-2,-4,2021-08-07 12:14:27.954315
-3,-1,-1,0,4,2,1,0,2021-08-07 12:14:27.954315
0,-1,-5,-12,-8,-5,-3,-2,2021-08-07 12:14:27.975317
-2,1,2,7,10,4,1,-2,2021-08-07 12:14:27.975317
0,2,4,12,7,2,-1,0,2021-08-07 12:14:27.976316
2,2,0,7,10,2,-1,1,2021-08-07 12:14:27.976316
-1,-2,-3,-2,-5,-4,-1,0,2021-08-07 12:14:27.989318
-2,-4,-7,-14,-10,-4,-5,-2,2021-08-07 12:14:27.989318
-4,-1,-2,-9,-10,-6,-4,-2,2021-08-07 12:14:27.996316
0,0,1,7,6,4,2,1,2021-08-07 12:14:27.996316
2,4,7,11,9,5,3,2,2021-08-07 12:14:28.012315
1,1,0,-1,-1,0,1,0,2021-08-07 12:14:28.012315
-1,-1,0,0,-4,-2,-2,-2,2021-08-07 12:14:28.014316
-2,-2,-5,-10,-9,-4,-2,-2,2021-08-07 12:14:28.014316
-1,-1,-1,-3,-1,-2,0,-1,2021-08-07 12:14:28.035318
0,0,0,2,5,-1,0,-1,2021-08-07 12:14:28.035318
-3,-4,-1,2,-1,-3,-1,-2,2021-08-07 12:14:28.036317
-1,-3,-4,-6,-9,-4,-2,0,2021-08-07 12:14:28.036317
-1,0,3,4,5,3,1,0,2021-08-07 12:14:28.049315
-3,-1,0,4,-1,-1,-1,-1,2021-08-07 12:14:28.049315
-2,-4,-3,-2,-2,0,-1,-3,2021-08-07 12:14:28.056316
-5,-6,-9,-16,-14,-11,-4,-3,2021-08-07 12:14:28.056316
2,7,9,10,7,4,3,2,2021-08-07 12:14:28.072315
0,-1,3,7,7,3,2,0,2021-08-07 12:14:28.073318
1,0,-1,4,2,1,-2,0,2021-08-07 12:14:28.074317
-1,-2,0,-2,-2,-1,-1,-1,2021-08-07 12:14:28.074317
-4,-6,-7,-14,-11,-6,-4,-2,2021-08-07 12:14:28.095316
1,0,1,-1,3,2,2,1,2021-08-07 12:14:28.095316
-2,-2,-1,1,0,-1,0,0,2021-08-07 12:14:28.096317
0,-1,-4,-5,-7,-4,-2,-2,2021-08-07 12:14:28.096317
-1,-2,-3,4,2,-1,-3,-2,2021-08-07 12:14:28.109317
2,1,2,2,5,5,0,0,2021-08-07 12:14:28.109317
-3,-2,-3,-6,-3,-2,-1,-1,2021-08-07 12:14:28.116315
-1,1,3,5,3,2,1,-1,2021-08-07 12:14:28.116315
0,0,-1,-2,-3,-2,0,1,2021-08-07 12:14:28.132316
-3,-5,-4,-8,-8,-5,-4,-4,2021-08-07 12:14:28.132316
1,1,0,1,1,1,0,1,2021-08-07 12:14:28.134317
-2,-5,-2,-1,-1,-1,-2,-2,2021-08-07 12:14:28.134317
-1,-4,-2,0,1,0,0,0,2021-08-07 12:14:28.155316
1,1,1,-8,-10,-3,0,1,2021-08-07 12:14:28.155316
-3,0,3,7,6,1,0,-1,2021-08-07 12:14:28.156317
0,0,1,2,-2,-1,-2,-3,2021-08-07 12:14:28.156317
-4,-4,-3,-5,-2,-2,-3,-4,2021-08-07 12:14:28.169315
0,1,-4,-3,3,3,0,3,2021-08-07 12:14:28.169315
0,0,-2,1,4,0,0,0,2021-08-07 12:14:28.176315
0,0,0,-3,-3,-2,-1,-1,2021-08-07 12:14:28.176315
-1,-2,-4,-2,-3,-1,-3,-3,2021-08-07 12:14:28.192313
-4,-3,-4,-5,-7,-5,-2,-2,2021-08-07 12:14:28.192313
1,0,0,0,-1,-1,0,-1,2021-08-07 12:14:28.194315
0,0,-7,-10,-9,-4,-2,0,2021-08-07 12:14:28.194315
1,1,0,5,10,3,2,0,2021-08-07 12:14:28.215318
0,0,3,12,2,-2,-2,-1,2021-08-07 12:14:28.215318
5,4,5,4,6,5,3,3,2021-08-07 12:14:28.216315
0,-1,2,3,-3,-2,-1,-2,2021-08-07 12:14:28.216315
-3,-3,-3,-2,-3,-3,-2,0,2021-08-07 12:14:28.229314
0,-1,0,-3,-3,-4,-1,-2,2021-08-07 12:14:28.229314
-3,-4,-1,2,0,-1,-1,-3,2021-08-07 12:14:28.236315
0,4,2,2,10,8,2,1,2021-08-07 12:14:28.236315
1,2,4,7,2,3,0,-1,2021-08-07 12:14:28.260319
-3,-4,-5,-7,-9,-6,-3,-4,2021-08-07 12:14:28.260319
0,-2,-6,-11,-10,-5,-2,0,2021-08-07 12:14:28.261315
0,1,5,16,14,5,1,1,2021-08-07 12:14:28.261315
-3,-3,-1,-5,-2,-1,-1,-3,2021-08-07 12:14:28.275315
3,1,0,3,-3,1,0,2,2021-08-07 12:14:28.275315
-3,-5,-5,-9,-13,-8,-5,-3,2021-08-07 12:14:28.276316
0,0,3,6,10,4,1,-1,2021-08-07 12:14:28.276316
2,0,1,-2,0,2,-1,1,2021-08-07 12:14:28.289319
-3,-4,-3,-1,-2,-1,-3,-4,2021-08-07 12:14:28.289319
0,2,-2,-8,-8,-3,-2,-1,2021-08-07 12:14:28.296315
-1,-5,-6,-7,-6,-4,-3,-1,2021-08-07 12:14:28.296315
2,4,3,5,2,2,2,3,2021-08-07 12:14:28.312315
1,2,2,1,3,4,0,0,2021-08-07 12:14:28.312315
-1,0,1,2,4,1,-1,-1,2021-08-07 12:14:28.314315
-2,-3,-3,-4,-6,-4,-3,0,2021-08-07 12:14:28.314315
-2,-5,-5,-9,-9,-5,-4,-3,2021-08-07 12:14:28.334315
-3,-2,-5,-6,-3,-2,-3,-1,2021-08-07 12:14:28.335318
-1,0,2,0,-2,-1,-1,1,2021-08-07 12:14:28.341313
2,1,4,8,5,2,2,-1,2021-08-07 12:14:28.341313
-4,-2,-2,2,4,-1,-1,-1,2021-08-07 12:14:28.348316
-1,0,0,5,1,0,0,0,2021-08-07 12:14:28.348316
-1,-1,0,-2,2,0,1,-1,2021-08-07 12:14:28.357316
2,1,1,2,-1,0,1,0,2021-08-07 12:14:28.357316
-1,-2,-5,-6,-3,-1,0,-1,2021-08-07 12:14:28.372320
-1,-3,-1,-1,5,0,-1,-3,2021-08-07 12:14:28.372320
-1,-1,-2,-1,-4,0,-1,0,2021-08-07 12:14:28.374317
-1,1,-1,-4,-1,0,-2,1,2021-08-07 12:14:28.374317
-3,-3,-5,-10,-15,-10,-4,-2,2021-08-07 12:14:28.395314
-2,0,0,5,9,4,4,0,2021-08-07 12:14:28.395314
5,5,4,4,4,4,3,4,2021-08-07 12:14:28.396317
-1,0,1,2,-1,0,0,-2,2021-08-07 12:14:28.396317
-2,-4,0,-1,-2,-1,-4,-4,2021-08-07 12:14:28.408315
-1,-2,-3,-11,-8,-6,-3,0,2021-08-07 12:14:28.409316
0,-1,-1,2,3,0,-2,0,2021-08-07 12:14:28.417315
2,0,-2,1,0,3,2,2,2021-08-07 12:14:28.417315
1,-1,-2,3,2,2,2,0,2021-08-07 12:14:28.432316
-4,-4,-4,-1,-2,-3,-1,-2,2021-08-07 12:14:28.432316
-3,-3,-1,-4,-2,-1,-2,-3,2021-08-07 12:14:28.434318
-4,-2,1,-2,-2,-3,-3,-3,2021-08-07 12:14:28.434318
-6,-3,-2,-5,-4,-3,-4,-5,2021-08-07 12:14:28.454314
3,4,2,-5,0,0,0,0,2021-08-07 12:14:28.454314
1,0,1,6,1,-1,0,1,2021-08-07 12:14:28.462315
2,0,1,2,2,2,1,0,2021-08-07 12:14:28.463314
1,1,0,2,3,1,0,0,2021-08-07 12:14:28.468317
-2,-5,-7,-7,-10,-6,-4,-4,2021-08-07 12:14:28.468317
-1,-1,-3,-6,-2,0,-2,-1,2021-08-07 12:14:28.477317
1,1,2,5,4,2,1,0,2021-08-07 12:14:28.478315
0,-2,-2,0,-1,-2,0,-1,2021-08-07 12:14:28.492315
-5,-4,-4,-7,-8,-4,-3,-3,2021-08-07 12:14:28.492315
-2,1,2,1,0,1,0,-2,2021-08-07 12:14:28.494318
-1,-2,-2,3,3,1,-1,-2,2021-08-07 12:14:28.494318
0,2,0,0,-1,1,-1,0,2021-08-07 12:14:28.515316
-1,0,-2,-3,-3,-3,0,-1,2021-08-07 12:14:28.515316
-1,-1,-4,-7,-8,-4,0,-2,2021-08-07 12:14:28.516316
0,0,4,8,9,4,0,1,2021-08-07 12:14:28.516316
1,1,2,5,6,3,1,-1,2021-08-07 12:14:28.528315
-1,-1,2,3,1,0,0,-1,2021-08-07 12:14:28.528315
-1,-2,-4,-7,-4,-4,-3,-2,2021-08-07 12:14:28.537317
-1,-1,-4,-11,-10,-4,-2,-1,2021-08-07 12:14:28.537317
-3,-2,-3,-6,-8,-5,-3,-3,2021-08-07 12:14:28.552319
4,2,2,4,9,4,1,1,2021-08-07 12:14:28.552319
1,3,1,9,4,2,3,-1,2021-08-07 12:14:28.554318
-2,-4,-6,-10,-7,-4,-2,-1,2021-08-07 12:14:28.554318
0,1,3,6,3,1,1,0,2021-08-07 12:14:28.575315
0,1,-1,-5,-5,-3,-2,-1,2021-08-07 12:14:28.575315
-2,-2,-3,-1,-3,-1,-2,0,2021-08-07 12:14:28.576315
-2,-2,-2,-1,0,0,-1,-2,2021-08-07 12:14:28.576315
-1,-3,-2,4,6,1,-2,-1,2021-08-07 12:14:28.588316
-2,-1,-2,1,-5,-3,-2,0,2021-08-07 12:14:28.589316
0,-3,0,-1,5,2,1,-1,2021-08-07 12:14:28.597317
-2,0,2,0,-2,0,1,-1,2021-08-07 12:14:28.598316
0,0,-3,-11,-7,-3,-1,0,2021-08-07 12:14:28.612315
0,-1,0,3,0,-1,-1,-1,2021-08-07 12:14:28.612315
0,1,0,3,5,3,-1,0,2021-08-07 12:14:28.614316
-1,-2,-1,-2,-3,-3,-1,-2,2021-08-07 12:14:28.614316
-1,-3,-2,-5,-4,-3,-1,-3,2021-08-07 12:14:28.635319
-2,-1,-2,0,0,0,1,1,2021-08-07 12:14:28.635319
1,0,3,-3,-5,-3,-1,-1,2021-08-07 12:14:28.636315
0,-1,-2,2,4,0,1,1,2021-08-07 12:14:28.636315
-1,-1,-2,-3,-3,-1,-2,0,2021-08-07 12:14:28.648317
0,0,2,5,-1,-1,-2,-2,2021-08-07 12:14:28.649316
0,1,-4,-8,-6,0,-1,-1,2021-08-07 12:14:28.657315
-1,0,0,1,3,0,0,1,2021-08-07 12:14:28.658317
-1,-2,2,3,2,0,-2,-1,2021-08-07 12:14:28.672317
-3,-4,-5,-7,-1,-2,-1,-2,2021-08-07 12:14:28.672317
0,0,3,8,3,1,1,0,2021-08-07 12:14:28.674315
0,2,0,-2,-5,-4,-1,0,2021-08-07 12:14:28.674315
-2,-2,-1,3,3,0,0,-2,2021-08-07 12:14:28.695319
-3,-3,-1,-1,-4,-2,-3,-1,2021-08-07 12:14:28.695319
1,-3,-4,-6,1,-1,0,0,2021-08-07 12:14:28.696315
-2,-1,-1,1,-8,-6,-6,-3,2021-08-07 12:14:28.697318
4,4,0,1,4,4,4,3,2021-08-07 12:14:28.708318
-3,-2,2,4,1,-2,-3,-2,2021-08-07 12:14:28.709320
-2,-2,-2,-4,-5,-2,-2,0,2021-08-07 12:14:28.717316
-1,-3,-2,-2,-2,-2,-3,-2,2021-08-07 12:14:28.717316
-1,-2,0,-2,-4,-2,-1,1,2021-08-07 12:14:28.732316
-1,-2,-2,-7,-8,-2,-4,-2,2021-08-07 12:14:28.732316
0,3,4,10,4,0,1,1,2021-08-07 12:14:28.734317
-1,-4,-4,-5,0,1,0,-2,2021-08-07 12:14:28.734317
-1,0,5,10,2,0,0,-2,2021-08-07 12:14:28.755317
3,2,0,-7,-1,0,3,3,2021-08-07 12:14:28.755317
-2,-4,-3,-3,-1,-1,-3,-2,2021-08-07 12:14:28.756316
2,1,-1,-2,-3,0,0,-1,2021-08-07 12:14:28.756316
0,0,-2,-3,1,-1,-1,-1,2021-08-07 12:14:28.768317
-2,-3,-5,-5,-4,-2,-1,-3,2021-08-07 12:14:28.769315
-3,0,2,7,8,2,0,-1,2021-08-07 12:14:28.777315
-1,1,1,-2,-4,-2,2,1,2021-08-07 12:14:28.777315
-1,-3,-6,-6,-6,-2,-2,-1,2021-08-07 12:14:28.792316
-2,-2,0,4,1,0,1,0,2021-08-07 12:14:28.793316
2,0,0,-3,-3,-1,-2,0,2021-08-07 12:14:28.794316
-3,-2,-1,-2,-1,-2,0,-2,2021-08-07 12:14:28.794316
-1,-1,-4,-7,-8,-5,-2,0,2021-08-07 12:14:28.815314
3,4,4,7,15,6,2,2,2021-08-07 12:14:28.815314
-5,-4,-4,-2,-7,-6,-3,-3,2021-08-07 12:14:28.816318
2,3,4,10,9,6,4,3,2021-08-07 12:14:28.816318
0,-1,2,4,1,-2,-2,-1,2021-08-07 12:14:28.836317
0,-2,-1,-1,-3,-2,-1,-1,2021-08-07 12:14:28.836317
-2,-3,-4,-8,-4,-3,-2,0,2021-08-07 12:14:28.845317
-3,-1,-1,-5,-9,-5,-3,-4,2021-08-07 12:14:28.845317
-1,-1,0,0,4,4,2,0,2021-08-07 12:14:28.852317
-3,-2,-3,0,-1,-2,-1,-3,2021-08-07 12:14:28.852317
1,2,0,0,0,1,0,1,2021-08-07 12:14:28.854317
2,-2,-3,0,-2,-1,-2,2,2021-08-07 12:14:28.854317
-3,-1,-3,-4,-8,-4,-2,-2,2021-08-07 12:14:28.875316
-2,-3,-1,1,5,1,-3,-2,2021-08-07 12:14:28.875316
-3,-4,-3,-3,-5,-4,-1,-2,2021-08-07 12:14:28.876319
1,1,1,4,4,2,2,-1,2021-08-07 12:14:28.876319
0,1,-1,-5,-2,0,0,1,2021-08-07 12:14:28.897316
-2,-2,-4,-6,-10,-5,-4,-1,2021-08-07 12:14:28.897316
0,0,0,1,2,4,0,-1,2021-08-07 12:14:28.903318
-1,-1,-3,-2,-3,-3,-2,-2,2021-08-07 12:14:28.904315
-3,-5,-3,-2,-5,-3,-5,-4,2021-08-07 12:14:28.912315
-4,-4,-3,-6,0,-1,0,-1,2021-08-07 12:14:28.912315
4,4,0,-1,1,2,1,5,2021-08-07 12:14:28.914316
2,2,3,11,8,3,2,2,2021-08-07 12:14:28.914316
-1,1,-1,-2,1,0,0,0,2021-08-07 12:14:28.935320
-1,0,-1,3,0,-2,-1,-1,2021-08-07 12:14:28.935320
-5,-4,-7,-12,-10,-7,-3,-5,2021-08-07 12:14:28.936317
0,1,-2,-2,-1,1,3,0,2021-08-07 12:14:28.936317
-3,-3,-5,-8,-8,-3,-4,-2,2021-08-07 12:14:28.957313
2,4,3,2,4,4,2,2,2021-08-07 12:14:28.957313
0,-2,-3,-3,0,0,0,-3,2021-08-07 12:14:28.959317
-1,-1,-5,-8,-5,-4,-3,-2,2021-08-07 12:14:28.959317
3,3,4,5,6,4,1,1,2021-08-07 12:14:28.972318
-1,-3,-3,-10,-10,-5,-2,-1,2021-08-07 12:14:28.972318
-1,1,4,10,3,2,-1,0,2021-08-07 12:14:28.978317
-2,-5,-8,-15,-6,-2,-2,-2,2021-08-07 12:14:28.978317
0,-1,0,8,6,1,0,-2,2021-08-07 12:14:28.995317
4,4,5,6,0,3,5,3,2021-08-07 12:14:28.995317
-2,0,3,7,8,2,-1,-3,2021-08-07 12:14:28.996317
-2,-4,-4,-1,-1,-3,-2,-1,2021-08-07 12:14:28.996317
1,1,-1,-1,-3,-2,-1,-1,2021-08-07 12:14:29.017315
0,-2,-1,-1,-1,0,0,-1,2021-08-07 12:14:29.017315
-2,-4,-4,-7,-9,-6,-2,-2,2021-08-07 12:14:29.019316
0,0,0,-1,-1,0,-1,-1,2021-08-07 12:14:29.019316
-2,-5,-3,-5,-1,-1,-1,0,2021-08-07 12:14:29.032316
-1,0,-1,3,4,2,-1,1,2021-08-07 12:14:29.032316
-2,-2,-4,-6,-7,-2,-1,-2,2021-08-07 12:14:29.038314
0,1,3,6,9,4,1,2,2021-08-07 12:14:29.039317
-2,-1,0,1,-2,-3,0,0,2021-08-07 12:14:29.055314
2,3,0,0,-1,0,-1,-1,2021-08-07 12:14:29.055314
-1,-4,-5,-5,-3,-1,-1,0,2021-08-07 12:14:29.056314
-2,-3,-2,-7,-15,-8,-7,-3,2021-08-07 12:14:29.056314
5,3,3,9,17,10,6,3,2021-08-07 12:14:29.078316
0,2,7,19,11,4,2,0,2021-08-07 12:14:29.078316
0,0,-2,0,-1,0,0,1,2021-08-07 12:14:29.079315
-3,-4,-1,1,-4,-3,-2,-2,2021-08-07 12:14:29.079315
-4,-2,-4,-10,-12,-7,-4,-3,2021-08-07 12:14:29.092321
-1,-2,-4,-7,-3,-1,-2,0,2021-08-07 12:14:29.092321
1,0,1,0,0,1,0,-1,2021-08-07 12:14:29.098319
-1,-1,-3,-3,-4,-3,-2,-2,2021-08-07 12:14:29.098319
0,0,0,1,-2,-2,-1,-1,2021-08-07 12:14:29.115318
-3,-2,-2,1,5,1,0,-2,2021-08-07 12:14:29.115318
-2,-2,-2,-4,-6,-3,-2,-3,2021-08-07 12:14:29.116317
0,0,-1,-2,4,2,0,1,2021-08-07 12:14:29.117318
1,1,4,8,9,5,1,0,2021-08-07 12:14:29.137318
1,1,-3,-3,-5,-3,-1,0,2021-08-07 12:14:29.137318
-1,0,0,2,1,0,-1,0,2021-08-07 12:14:29.139315
0,-2,-1,-1,-6,-4,-3,-2,2021-08-07 12:14:29.139315
-4,-2,-6,-8,-3,-1,-1,-3,2021-08-07 12:14:29.152316
-2,-3,-4,-8,-3,-1,-1,-1,2021-08-07 12:14:29.152316
2,2,5,8,6,2,1,2,2021-08-07 12:14:29.158315
-1,4,2,0,0,-1,2,0,2021-08-07 12:14:29.159317
-2,-3,-4,-5,-7,-6,-3,-2,2021-08-07 12:14:29.174314
-4,-1,-3,-6,-7,-4,-2,-3,2021-08-07 12:14:29.174314
2,0,2,7,8,4,2,1,2021-08-07 12:14:29.181315
0,-2,-4,-3,-2,-2,0,0,2021-08-07 12:14:29.181315
-4,-2,-3,-4,-8,-5,-4,-1,2021-08-07 12:14:29.197316
-1,0,1,1,0,-1,-2,-2,2021-08-07 12:14:29.197316
-1,-1,0,-3,-1,-1,0,0,2021-08-07 12:14:29.199314
-4,-4,-4,-8,-7,-3,-2,-1,2021-08-07 12:14:29.199314
3,2,2,8,10,4,1,1,2021-08-07 12:14:29.211317
-1,-1,-1,2,2,0,-1,-2,2021-08-07 12:14:29.212315
0,0,0,-1,-2,-1,-2,0,2021-08-07 12:14:29.218315
-1,-2,-7,-10,-7,-3,-1,-2,2021-08-07 12:14:29.219317
-2,-1,0,3,4,0,-1,0,2021-08-07 12:14:29.235316
-1,-1,0,4,2,2,-1,-1,2021-08-07 12:14:29.235316
0,-1,0,-1,-2,-1,0,-2,2021-08-07 12:14:29.236316
-1,0,0,-3,-4,-2,-2,-1,2021-08-07 12:14:29.236316
-5,-5,-3,-11,-10,-5,-3,-4,2021-08-07 12:14:29.257319
1,1,1,0,3,3,1,1,2021-08-07 12:14:29.257319
-1,-2,-1,1,0,-1,0,-1,2021-08-07 12:14:29.259317
-2,-2,0,2,1,0,0,-2,2021-08-07 12:14:29.259317
0,0,-1,-1,-1,-2,-1,0,2021-08-07 12:14:29.271315
-3,-3,-3,-3,-8,-5,-3,-2,2021-08-07 12:14:29.272318
-3,-2,-5,-10,-11,-5,-2,-2,2021-08-07 12:14:29.278314
4,4,6,13,15,7,3,3,2021-08-07 12:14:29.279318
1,1,2,5,5,2,2,2,2021-08-07 12:14:29.295316
-2,-4,-5,-5,-4,-4,-1,-1,2021-08-07 12:14:29.295316
1,0,-1,-1,-3,-1,0,0,2021-08-07 12:14:29.296314
-5,-5,-6,-6,-1,0,0,-2,2021-08-07 12:14:29.296314
-2,-1,4,9,4,0,-1,-3,2021-08-07 12:14:29.317315
-1,-1,0,-1,-2,-2,-3,-2,2021-08-07 12:14:29.317315
-3,-2,1,0,0,-1,-3,-3,2021-08-07 12:14:29.319315
-1,1,1,4,3,1,-2,-1,2021-08-07 12:14:29.319315
-2,-3,-5,-10,-11,-7,-2,-1,2021-08-07 12:14:29.331316
2,2,1,0,5,2,2,3,2021-08-07 12:14:29.331316
2,2,2,5,5,2,1,1,2021-08-07 12:14:29.340316
0,-2,-1,-2,-3,-1,0,0,2021-08-07 12:14:29.340316
-1,-3,-3,-4,-4,-2,-1,-2,2021-08-07 12:14:29.355316
-3,-1,-3,-4,-5,-4,-1,-1,2021-08-07 12:14:29.355316
-1,1,1,2,5,2,-1,0,2021-08-07 12:14:29.356318
-1,0,0,-1,-2,-2,-1,-1,2021-08-07 12:14:29.356318
-2,0,-5,-6,-8,-4,-1,-1,2021-08-07 12:14:29.377317
0,2,4,9,11,5,1,1,2021-08-07 12:14:29.377317
0,0,-3,0,-4,-3,-2,0,2021-08-07 12:14:29.379316
-1,-1,-4,-8,-6,-3,-4,-2,2021-08-07 12:14:29.379316
1,1,3,1,2,2,0,0,2021-08-07 12:14:29.391314
-2,-4,-5,-8,-8,-4,-1,-1,2021-08-07 12:14:29.391314
0,0,-2,2,3,2,-1,-1,2021-08-07 12:14:29.400316
-2,-1,2,1,-3,-3,-2,1,2021-08-07 12:14:29.400316
0,-1,-7,-9,-5,-1,-1,0,2021-08-07 12:14:29.415321
1,-1,4,8,4,2,0,0,2021-08-07 12:14:29.415321
1,1,2,-2,-3,0,-2,-1,2021-08-07 12:14:29.416316
0,-1,-1,-3,-7,-3,-3,-1,2021-08-07 12:14:29.416316
0,1,0,-3,7,5,2,2,2021-08-07 12:14:29.437316
-1,0,2,4,4,3,1,-1,2021-08-07 12:14:29.437316
-1,-2,-2,-1,-2,-1,-1,0,2021-08-07 12:14:29.439317
-1,0,4,9,6,2,-1,-1,2021-08-07 12:14:29.439317
-1,-2,-2,-5,-7,-3,-1,-2,2021-08-07 12:14:29.451315
-2,-2,-7,-14,-13,-4,-4,-3,2021-08-07 12:14:29.451315
0,-2,-4,1,1,1,1,0,2021-08-07 12:14:29.460316
-2,-1,0,-3,-4,-3,0,-3,2021-08-07 12:14:29.460316
-1,3,6,13,8,2,0,-1,2021-08-07 12:14:29.475316
0,-1,-7,-6,-3,1,1,0,2021-08-07 12:14:29.475316
1,0,6,0,-3,-2,0,2,2021-08-07 12:14:29.476318
-1,-1,0,1,4,1,0,-1,2021-08-07 12:14:29.476318
2,4,27,22,6,2,2,1,2021-08-07 12:14:29.497317
-1,-1,8,-11,-9,-7,-4,-2,2021-08-07 12:14:29.497317
-3,-9,-63,-24,0,2,1,0,2021-08-07 12:14:29.499317
-8,-13,-23,-30,-11,-9,-7,-7,2021-08-07 12:14:29.499317
-3,-7,-7,-5,-6,-4,-3,-2,2021-08-07 12:14:29.511315
-1,2,13,9,-1,-2,-3,-2,2021-08-07 12:14:29.511315
3,13,52,34,12,6,4,0,2021-08-07 12:14:29.520319
4,4,-6,-5,-2,2,2,2,2021-08-07 12:14:29.520319
-2,-10,-27,3,11,5,1,-1,2021-08-07 12:14:29.535318
-5,-6,0,-9,-8,-6,-3,-2,2021-08-07 12:14:29.535318
-4,-3,0,-12,-13,-7,-5,-4,2021-08-07 12:14:29.536318
5,8,26,32,22,10,6,5,2021-08-07 12:14:29.536318
0,5,-2,0,-4,-3,-1,1,2021-08-07 12:14:29.557317
0,-3,-14,-7,5,3,1,0,2021-08-07 12:14:29.557317
-5,-8,-25,-17,-8,-6,-5,-4,2021-08-07 12:14:29.559316
0,3,9,-2,-2,0,-1,0,2021-08-07 12:14:29.559316
1,0,8,-4,-5,-3,-2,-1,2021-08-07 12:14:29.571318
2,1,2,10,5,1,1,0,2021-08-07 12:14:29.571318
0,-1,0,-3,-5,-1,-1,-1,2021-08-07 12:14:29.580317
-3,-2,-2,1,0,-2,-3,-3,2021-08-07 12:14:29.580317
-2,-3,0,0,2,0,-2,0,2021-08-07 12:14:29.595319
0,2,-4,3,2,1,1,1,2021-08-07 12:14:29.595319
-3,-2,2,-5,-5,-5,-2,-2,2021-08-07 12:14:29.596316
-3,-6,-12,-10,-11,-6,-2,-3,2021-08-07 12:14:29.596316
-2,1,1,4,4,2,-1,-3,2021-08-07 12:14:29.617314
0,0,1,7,5,3,2,2,2021-08-07 12:14:29.617314
-1,-2,7,5,3,1,-2,0,2021-08-07 12:14:29.619317
0,0,-8,-8,-5,-3,-3,0,2021-08-07 12:14:29.619317
-2,-2,-4,-11,-7,-6,-3,-3,2021-08-07 12:14:29.631316
0,-4,-3,-7,-7,-4,-2,-2,2021-08-07 12:14:29.631316
3,3,4,3,4,2,3,1,2021-08-07 12:14:29.640321
0,0,2,15,6,4,2,0,2021-08-07 12:14:29.640321
-2,-1,-5,-16,-11,-6,-3,-2,2021-08-07 12:14:29.655315
-3,-1,-8,-7,-7,-3,-2,-1,2021-08-07 12:14:29.655315
1,0,3,2,8,4,-1,-1,2021-08-07 12:14:29.656317
-3,0,1,3,6,3,-2,-1,2021-08-07 12:14:29.656317
0,4,2,6,0,0,1,1,2021-08-07 12:14:29.677316
-2,-2,-6,-2,0,-3,-2,-2,2021-08-07 12:14:29.677316
-3,-2,-3,-9,-9,-5,-2,-2,2021-08-07 12:14:29.679317
0,1,4,4,1,0,0,-1,2021-08-07 12:14:29.679317
0,-2,-2,-2,-3,0,-1,-1,2021-08-07 12:14:29.691315
-1,0,-5,-5,-6,-4,-2,1,2021-08-07 12:14:29.691315
0,3,8,9,8,3,1,1,2021-08-07 12:14:29.700316
-2,-3,-1,5,2,-2,0,-2,2021-08-07 12:14:29.700316
-4,-3,-11,-7,-6,-3,-2,-3,2021-08-07 12:14:29.715317
1,0,4,3,1,1,0,1,2021-08-07 12:14:29.715317
1,-1,-1,0,1,1,0,0,2021-08-07 12:14:29.716316
0,2,2,0,-2,0,2,0,2021-08-07 12:14:29.716316
-2,-2,-7,-19,-9,-6,-5,-5,2021-08-07 12:14:29.737315
0,-1,0,7,6,1,0,0,2021-08-07 12:14:29.737315
-1,-1,0,0,-2,-2,-1,-2,2021-08-07 12:14:29.739316
1,-1,-1,-4,-4,-2,0,0,2021-08-07 12:14:29.739316
0,-1,10,3,1,-2,0,0,2021-08-07 12:14:29.760317
0,-1,-17,-4,3,1,0,-1,2021-08-07 12:14:29.760317
1,-1,5,5,-1,-1,1,1,2021-08-07 12:14:29.761317
1,-2,-1,-1,-3,-2,-1,-1,2021-08-07 12:14:29.761317
-1,-1,6,12,12,4,1,0,2021-08-07 12:14:29.782316
2,2,7,2,1,1,0,-1,2021-08-07 12:14:29.782316
1,0,-5,-5,1,1,1,-1,2021-08-07 12:14:29.784316
-3,-2,-5,0,0,1,-1,-2,2021-08-07 12:14:29.784316
-2,-1,0,1,-5,-2,-1,-2,2021-08-07 12:14:29.797315
-2,0,4,4,-1,-2,-2,-4,2021-08-07 12:14:29.797315
-1,0,-4,-6,-2,-1,-1,1,2021-08-07 12:14:29.799316
-2,-2,-3,-6,-5,-3,-1,-1,2021-08-07 12:14:29.799316
-1,-2,-4,-2,-1,0,0,-1,2021-08-07 12:14:29.820320
-1,-2,-1,-1,-2,-2,-1,-1,2021-08-07 12:14:29.820320
-2,0,1,0,-3,-2,0,-1,2021-08-07 12:14:29.821316
1,0,-1,-4,-1,-2,-1,1,2021-08-07 12:14:29.821316
-3,-4,-8,-5,-4,-3,-3,-2,2021-08-07 12:14:29.835318
0,0,-1,-2,-1,-2,-2,-2,2021-08-07 12:14:29.835318
1,1,4,1,2,0,0,1,2021-08-07 12:14:29.836320
0,-2,-1,-3,-2,-1,-1,-1,2021-08-07 12:14:29.836320
-1,0,-1,7,1,-1,0,-1,2021-08-07 12:14:29.857317
-2,-4,-1,0,5,3,1,0,2021-08-07 12:14:29.857317
-2,-1,-4,-2,-6,-4,-4,-2,2021-08-07 12:14:29.859316
1,4,0,4,3,1,0,1,2021-08-07 12:14:29.859316
0,-1,1,-6,-5,-2,-3,0,2021-08-07 12:14:29.880320
-2,-2,-1,-3,-2,-3,-1,-1,2021-08-07 12:14:29.880320
-1,-5,-6,0,-1,-1,-2,-4,2021-08-07 12:14:29.881316
-2,-3,-3,-3,-4,-1,1,-2,2021-08-07 12:14:29.881316
-2,0,-1,-5,-3,-3,-4,-2,2021-08-07 12:14:29.894314
0,1,3,2,1,0,0,0,2021-08-07 12:14:29.894314
1,1,0,0,3,3,1,1,2021-08-07 12:14:29.901318
-2,-2,-3,-4,-6,-4,-3,-2,2021-08-07 12:14:29.901318
-1,-2,-4,-7,-4,-1,-1,0,2021-08-07 12:14:29.917315
2,1,2,6,2,2,2,2,2021-08-07 12:14:29.917315
-3,-1,-3,-2,-5,-4,-2,-1,2021-08-07 12:14:29.919316
-1,-2,-2,-1,0,-3,-2,-3,2021-08-07 12:14:29.919316
0,2,4,5,6,2,1,0,2021-08-07 12:14:29.940318
0,-1,1,-1,2,1,0,-2,2021-08-07 12:14:29.940318
0,0,-1,-5,-4,-3,-2,0,2021-08-07 12:14:29.941315
-4,-3,-4,-5,-4,-3,-3,-3,2021-08-07 12:14:29.942316
0,-3,-1,-2,-3,-2,1,0,2021-08-07 12:14:29.954315
-1,1,-1,1,2,-1,-1,0,2021-08-07 12:14:29.954315
2,2,5,2,0,-1,0,0,2021-08-07 12:14:29.961315
-1,-1,0,1,-2,-2,-1,-2,2021-08-07 12:14:29.961315
1,2,-1,3,2,2,0,0,2021-08-07 12:14:29.977314
-1,-2,-4,-5,-2,-2,-2,-1,2021-08-07 12:14:29.977314
0,2,1,3,2,1,2,1,2021-08-07 12:14:29.979316
1,1,0,-2,1,0,-2,0,2021-08-07 12:14:29.979316
-3,-3,-2,3,-1,-3,-1,-3,2021-08-07 12:14:30.000315
-3,-4,-5,-10,-11,-4,-3,-2,2021-08-07 12:14:30.000315
1,1,2,7,9,2,1,0,2021-08-07 12:14:30.001317
-1,1,2,2,0,1,1,1,2021-08-07 12:14:30.001317
-1,-1,-3,-5,-2,-1,-1,0,2021-08-07 12:14:30.015318
-1,0,3,8,1,-1,0,-1,2021-08-07 12:14:30.015318
-4,-4,-7,-8,-3,-1,-2,-2,2021-08-07 12:14:30.021316
2,5,7,12,12,5,2,1,2021-08-07 12:14:30.021316
-1,-2,-2,-6,-7,-2,-2,-2,2021-08-07 12:14:30.037315
-1,-1,-1,-3,2,0,0,-1,2021-08-07 12:14:30.037315
-2,-3,-4,-7,-9,-7,-4,-3,2021-08-07 12:14:30.039315
-2,-4,-4,-2,-3,-2,-1,-2,2021-08-07 12:14:30.039315
0,1,-1,0,3,1,0,0,2021-08-07 12:14:30.060316
-2,-2,-3,-3,-6,-5,-3,0,2021-08-07 12:14:30.060316
0,1,3,8,10,7,4,1,2021-08-07 12:14:30.061316
0,-3,-2,0,-2,-1,-2,-2,2021-08-07 12:14:30.061316
0,1,1,2,-2,-2,-1,-1,2021-08-07 12:14:30.074317
-1,-3,-4,-9,-4,-3,-3,0,2021-08-07 12:14:30.074317
-3,-5,0,-1,-5,-4,-3,-2,2021-08-07 12:14:30.081317
0,0,0,-3,1,1,1,1,2021-08-07 12:14:30.081317
-3,-3,-3,2,2,0,-1,-2,2021-08-07 12:14:30.097316
1,1,0,-7,-3,-1,1,-1,2021-08-07 12:14:30.097316
1,-2,0,1,0,2,0,-2,2021-08-07 12:14:30.099316
0,1,5,15,16,6,3,0,2021-08-07 12:14:30.099316
0,0,-1,-4,-3,-3,0,1,2021-08-07 12:14:30.119314
0,1,2,4,0,1,1,-1,2021-08-07 12:14:30.120316
-1,-1,-4,-6,-3,-3,-1,-1,2021-08-07 12:14:30.126317
-3,-3,-7,-16,-10,-4,-3,-2,2021-08-07 12:14:30.126317
-3,-3,-3,-2,0,1,0,-1,2021-08-07 12:14:30.134316
1,2,3,9,5,1,2,-1,2021-08-07 12:14:30.134316
-3,-2,-2,-6,-7,-2,-3,-2,2021-08-07 12:14:30.141317
-2,-3,-5,-9,-6,-4,-3,-1,2021-08-07 12:14:30.141317
0,1,1,4,4,2,-1,-2,2021-08-07 12:14:30.157315
1,-2,-2,-3,-5,0,0,-1,2021-08-07 12:14:30.157315
-1,-1,0,2,3,-1,0,-1,2021-08-07 12:14:30.159316
-2,-1,-2,-3,-3,-2,-2,-1,2021-08-07 12:14:30.159316
-1,-1,-2,-7,-5,-4,-3,-3,2021-08-07 12:14:30.180315
1,4,7,16,14,5,2,2,2021-08-07 12:14:30.180315
0,-2,-4,-6,-6,-2,0,0,2021-08-07 12:14:30.181318
0,-3,-4,-5,-9,-4,-1,-1,2021-08-07 12:14:30.181318
-3,-4,0,0,1,-1,-1,-1,2021-08-07 12:14:30.194316
-3,-3,0,3,5,2,0,-2,2021-08-07 12:14:30.194316
-4,2,4,7,7,0,-2,-4,2021-08-07 12:14:30.201317
-3,-1,0,-3,-2,-2,-4,-4,2021-08-07 12:14:30.201317
-1,0,-1,-3,-5,-3,-2,0,2021-08-07 12:14:30.217314
-1,-4,-8,-15,-9,-5,-4,-2,2021-08-07 12:14:30.217314
2,1,-1,0,-4,1,2,2,2021-08-07 12:14:30.219317
1,2,7,15,11,5,2,3,2021-08-07 12:14:30.219317
1,1,0,2,0,-2,2,0,2021-08-07 12:14:30.240316
-2,-2,-4,-3,-4,-2,-1,-2,2021-08-07 12:14:30.240316
-2,-4,-2,-6,-7,-3,-2,-3,2021-08-07 12:14:30.241316
0,0,-3,-2,-1,0,0,1,2021-08-07 12:14:30.242317
-2,-2,-1,-2,1,-1,0,-3,2021-08-07 12:14:30.253313
1,3,-1,0,-4,-2,0,0,2021-08-07 12:14:30.253313
0,-1,2,6,9,1,-2,-1,2021-08-07 12:14:30.262315
1,0,-2,-4,-4,-2,0,-1,2021-08-07 12:14:30.263316
-1,-2,-4,-4,-8,-2,-2,-2,2021-08-07 12:14:30.277316
-3,-5,-6,-12,-10,-5,-4,-3,2021-08-07 12:14:30.277316
4,7,10,16,9,4,2,4,2021-08-07 12:14:30.279315
-2,-1,0,4,4,0,2,1,2021-08-07 12:14:30.279315
-1,-2,-4,-4,-1,2,1,1,2021-08-07 12:14:30.308316
-2,-2,-2,-3,0,0,-2,0,2021-08-07 12:14:30.308316
0,0,2,3,2,1,2,0,2021-08-07 12:14:30.309315
-1,-1,-3,-8,-7,-3,-2,-1,2021-08-07 12:14:30.310316
0,1,2,2,2,-1,0,-1,2021-08-07 12:14:30.313316
-4,-2,-4,-7,-4,-4,-3,-4,2021-08-07 12:14:30.314320
-2,-1,-5,-4,-5,-2,-3,0,2021-08-07 12:14:30.322315
1,1,0,-2,0,0,0,1,2021-08-07 12:14:30.322315
-1,-1,0,0,7,3,0,-2,2021-08-07 12:14:30.337315
2,4,3,2,1,2,1,1,2021-08-07 12:14:30.337315
-5,-4,-5,-3,-4,-4,-4,-3,2021-08-07 12:14:30.343315
-2,-2,-1,-3,-6,-4,-2,-3,2021-08-07 12:14:30.343315
0,-1,1,-1,-4,-2,-1,-1,2021-08-07 12:14:30.360317
-1,-1,1,6,-1,-3,-1,0,2021-08-07 12:14:30.360317
-1,-1,1,5,10,4,0,-1,2021-08-07 12:14:30.361315
0,0,0,-2,2,2,-1,-2,2021-08-07 12:14:30.361315
1,0,2,8,8,5,1,1,2021-08-07 12:14:30.373315
1,0,-3,-5,-7,-3,-2,-1,2021-08-07 12:14:30.374317
-1,-2,-8,-16,-14,-8,-5,-1,2021-08-07 12:14:30.382315
-1,-1,4,15,13,5,1,-3,2021-08-07 12:14:30.383318
-2,-2,-2,1,-2,-2,-2,-3,2021-08-07 12:14:30.396314
2,0,1,1,-2,1,2,2,2021-08-07 12:14:30.396314
-2,-3,-4,-5,-2,-3,-2,-2,2021-08-07 12:14:30.405318
-1,-3,-3,-6,-5,-4,-1,-1,2021-08-07 12:14:30.405318
0,-2,-1,-3,-5,-4,-4,-1,2021-08-07 12:14:30.420315
1,0,2,4,4,1,1,0,2021-08-07 12:14:30.420315
-2,-1,0,-1,1,2,1,0,2021-08-07 12:14:30.421317
-2,-3,-3,-4,-6,-3,-3,-3,2021-08-07 12:14:30.421317
0,-2,-2,-1,-3,-2,0,-1,2021-08-07 12:14:30.433313
-2,0,-5,-10,-12,-6,-5,-1,2021-08-07 12:14:30.433313
2,1,1,1,5,4,2,-1,2021-08-07 12:14:30.442315
2,3,8,22,24,9,4,2,2021-08-07 12:14:30.442315
-3,-2,-3,-3,-5,-1,-1,-1,2021-08-07 12:14:30.457319
-1,0,-1,1,2,0,0,-2,2021-08-07 12:14:30.458316
-2,-4,-4,-6,-13,-6,-4,-2,2021-08-07 12:14:30.459316
-1,-4,-6,-13,-11,-4,-5,-1,2021-08-07 12:14:30.459316
-1,-1,2,1,5,1,0,-1,2021-08-07 12:14:30.480317
0,0,2,7,5,3,1,0,2021-08-07 12:14:30.480317
0,0,0,-1,-1,-1,0,1,2021-08-07 12:14:30.481317
-4,-4,-5,-10,-12,-6,-3,-4,2021-08-07 12:14:30.481317
-1,0,0,-4,-2,-2,-2,-1,2021-08-07 12:14:30.493315
-2,-3,-5,-6,7,3,0,-2,2021-08-07 12:14:30.494316
0,1,6,11,3,3,1,-1,2021-08-07 12:14:30.502319
-1,0,1,5,1,0,-1,1,2021-08-07 12:14:30.502319
-1,-1,-5,-13,-17,-8,-3,-3,2021-08-07 12:14:30.517318
0,0,0,3,10,5,1,-1,2021-08-07 12:14:30.517318
0,0,-1,4,2,-1,0,0,2021-08-07 12:14:30.519317
-1,3,-2,-1,3,1,-1,-1,2021-08-07 12:14:30.519317
0,-1,-1,9,5,1,1,-1,2021-08-07 12:14:30.540316
1,-2,1,-1,-5,-2,1,-1,2021-08-07 12:14:30.540316
-2,-4,-5,-7,-4,-6,-3,-1,2021-08-07 12:14:30.541317
2,1,1,-3,-4,-1,1,-1,2021-08-07 12:14:30.542315
0,0,0,-1,2,1,1,0,2021-08-07 12:14:30.553316
-1,2,4,7,2,0,1,1,2021-08-07 12:14:30.554315
-4,-6,-9,-16,-15,-6,-6,-6,2021-08-07 12:14:30.562319
1,0,1,1,1,1,1,0,2021-08-07 12:14:30.562319
0,0,5,11,9,3,2,0,2021-08-07 12:14:30.577316
0,-2,1,2,-1,-1,-1,0,2021-08-07 12:14:30.577316
0,1,5,10,10,4,2,1,2021-08-07 12:14:30.579318
-3,-5,-5,-7,-8,-6,-4,-3,2021-08-07 12:14:30.579318
-3,0,-2,-3,-4,-3,-2,-1,2021-08-07 12:14:30.600317
-2,-4,-7,-13,-9,-5,-4,-1,2021-08-07 12:14:30.600317
4,4,1,3,5,1,3,2,2021-08-07 12:14:30.601316
-2,-4,-1,-2,-2,-1,-3,-3,2021-08-07 12:14:30.602316
0,2,3,7,5,3,0,2,2021-08-07 12:14:30.613317
-1,-3,-2,2,-1,-1,-3,-1,2021-08-07 12:14:30.614317
-2,-4,-4,-10,-7,-2,-2,-2,2021-08-07 12:14:30.628316
-2,0,-1,-2,-6,-3,-1,-1,2021-08-07 12:14:30.629315
1,0,0,2,-2,-3,-2,0,2021-08-07 12:14:30.637317
0,-1,-3,-5,1,2,1,-2,2021-08-07 12:14:30.637317
1,2,3,9,12,5,2,1,2021-08-07 12:14:30.639316
1,-1,0,-1,-10,-6,-3,0,2021-08-07 12:14:30.639316
0,1,0,1,6,4,1,0,2021-08-07 12:14:30.660316
-1,0,-1,-6,-5,-2,0,-1,2021-08-07 12:14:30.660316
-3,-2,-2,-2,-3,0,-1,-1,2021-08-07 12:14:30.661317
-1,0,-2,0,1,-1,1,1,2021-08-07 12:14:30.661317
-2,-3,-2,-3,-3,-2,-4,-3,2021-08-07 12:14:30.673315
-2,-1,-1,-3,-4,-2,-3,-1,2021-08-07 12:14:30.673315
0,-2,-3,-8,-17,-6,-3,-2,2021-08-07 12:14:30.682316
-2,-1,1,6,9,2,0,-1,2021-08-07 12:14:30.682316
2,0,3,13,12,4,3,1,2021-08-07 12:14:30.697318
-1,-5,-1,2,5,1,1,-1,2021-08-07 12:14:30.698316
-4,-3,-7,-15,-19,-9,-6,-3,2021-08-07 12:14:30.699319
-2,0,0,3,8,4,1,-1,2021-08-07 12:14:30.699319
-2,0,-1,-2,-3,-1,-2,-2,2021-08-07 12:14:30.720320
2,-1,0,4,3,1,1,1,2021-08-07 12:14:30.720320
1,1,0,1,4,1,0,1,2021-08-07 12:14:30.721320
-3,-4,-8,-15,-13,-6,-4,-3,2021-08-07 12:14:30.721320
-3,-3,-5,-13,-8,-4,-2,-1,2021-08-07 12:14:30.742316
4,5,9,21,18,8,3,3,2021-08-07 12:14:30.742316
-1,-1,-2,-5,-8,-2,0,-1,2021-08-07 12:14:30.744315
0,-2,1,2,4,2,2,-1,2021-08-07 12:14:30.744315
-3,-3,-4,-12,-12,-7,-5,-5,2021-08-07 12:14:30.757315
1,0,3,13,7,4,1,1,2021-08-07 12:14:30.757315
-2,-1,-4,-9,-5,-4,-2,-1,2021-08-07 12:14:30.759316
2,2,4,7,-1,1,1,1,2021-08-07 12:14:30.759316
0,-2,-3,1,6,3,1,0,2021-08-07 12:14:30.780317
-5,-3,-3,-12,-16,-6,-4,-3,2021-08-07 12:14:30.780317
1,2,6,15,13,5,2,-1,2021-08-07 12:14:30.781316
-1,-4,-3,-5,-4,-4,-3,-2,2021-08-07 12:14:30.781316
-1,1,1,0,0,-2,0,1,2021-08-07 12:14:30.810316
-2,-1,-4,-6,-8,-4,-3,-2,2021-08-07 12:14:30.810316
2,2,3,5,7,5,1,4,2021-08-07 12:14:30.811316
-1,-2,-2,-5,-8,-6,-4,-2,2021-08-07 12:14:30.811316
0,-1,-2,-3,-3,-3,-2,0,2021-08-07 12:14:30.817315
-3,-3,-4,-4,-2,-1,-2,-2,2021-08-07 12:14:30.817315
-2,-4,-2,-2,0,-2,-1,-1,2021-08-07 12:14:30.819318
-1,-1,0,1,3,1,1,2,2021-08-07 12:14:30.819318
-5,-5,-8,-12,-18,-8,-6,-4,2021-08-07 12:14:30.839317
1,2,5,11,13,6,3,2,2021-08-07 12:14:30.839317
-2,-5,-4,-10,-7,-4,-3,-2,2021-08-07 12:14:30.847319
-1,2,4,9,8,4,0,0,2021-08-07 12:14:30.847319
-2,-3,-1,2,-6,-3,-1,-3,2021-08-07 12:14:30.862315
0,0,-2,-13,-7,-4,0,0,2021-08-07 12:14:30.862315
0,0,-1,3,1,-1,-2,-2,2021-08-07 12:14:30.864320
-2,-3,-2,-3,-1,0,-1,-1,2021-08-07 12:14:30.864320
0,-3,-4,-8,-5,-3,-1,1,2021-08-07 12:14:30.877314
0,0,0,3,4,1,-1,-1,2021-08-07 12:14:30.877314
-3,-3,-4,-8,-2,-1,-1,-3,2021-08-07 12:14:30.892313
-2,-1,0,1,0,-1,0,-1,2021-08-07 12:14:30.892313
0,2,1,6,8,5,1,0,2021-08-07 12:14:30.900317
-1,0,-4,-8,-7,-4,-2,-1,2021-08-07 12:14:30.900317
-3,-3,-6,-8,-5,-4,-2,-2,2021-08-07 12:14:30.901315
-1,-2,-3,-5,-10,-3,-4,-3,2021-08-07 12:14:30.901315
2,3,1,1,5,2,0,1,2021-08-07 12:14:30.922317
-1,0,1,5,10,6,3,-1,2021-08-07 12:14:30.922317
0,2,1,2,0,-2,0,-1,2021-08-07 12:14:30.924317
-2,-3,-4,-4,-8,-5,-2,-2,2021-08-07 12:14:30.924317
-1,0,3,7,-1,0,0,3,2021-08-07 12:14:30.937323
0,-2,-3,-4,-4,-2,0,-1,2021-08-07 12:14:30.937323
3,2,4,11,7,5,2,2,2021-08-07 12:14:30.951315
-3,-5,-5,-8,3,1,-2,-3,2021-08-07 12:14:30.951315
-1,-2,2,1,-4,-4,-2,-2,2021-08-07 12:14:30.960315
-2,-2,-2,-6,-8,-5,-3,0,2021-08-07 12:14:30.960315
-1,0,4,7,8,4,1,-1,2021-08-07 12:14:30.961318
-2,-1,-3,-8,-14,-6,-3,-2,2021-08-07 12:14:30.961318
2,1,-1,-5,2,3,1,1,2021-08-07 12:14:30.982314
-2,-4,-5,-9,-7,-3,-4,-3,2021-08-07 12:14:30.982314
-1,1,6,12,4,1,0,-1,2021-08-07 12:14:30.984315
2,3,3,5,5,2,2,2,2021-08-07 12:14:30.984315
-3,-4,-5,-12,-10,-3,-2,-3,2021-08-07 12:14:30.996318
2,3,1,12,10,4,2,3,2021-08-07 12:14:30.997317
-2,-4,-2,-8,-7,-4,-2,-3,2021-08-07 12:14:31.003315
-3,-1,3,3,-4,-3,-2,-2,2021-08-07 12:14:31.003315
5,5,6,19,19,13,8,5,2021-08-07 12:14:31.020316
0,-2,-11,-16,-13,-7,-3,-1,2021-08-07 12:14:31.020316
-2,-4,-13,-18,-11,-4,-4,-2,2021-08-07 12:14:31.021317
0,1,-1,0,13,3,0,-1,2021-08-07 12:14:31.021317
-5,-9,-4,-8,-9,-6,-4,-5,2021-08-07 12:14:31.042317
0,2,9,15,6,3,3,0,2021-08-07 12:14:31.043316
2,1,4,4,4,3,1,3,2021-08-07 12:14:31.044318
-1,-2,-3,-7,-10,-4,-3,-2,2021-08-07 12:14:31.044318
1,3,3,8,5,0,0,1,2021-08-07 12:14:31.057315
-1,0,0,-2,-1,-1,0,-1,2021-08-07 12:14:31.057315
0,1,1,2,0,-1,0,1,2021-08-07 12:14:31.063313
-2,-3,-4,-3,-3,-1,-1,-2,2021-08-07 12:14:31.064315
0,-1,-4,0,1,-1,-2,0,2021-08-07 12:14:31.080316
0,-1,1,-1,-1,-3,0,-2,2021-08-07 12:14:31.080316
0,2,0,-2,-1,-1,-2,0,2021-08-07 12:14:31.081315
0,1,0,-1,1,0,2,2,2021-08-07 12:14:31.081315
-1,-2,-2,-5,-3,-1,0,-1,2021-08-07 12:14:31.102318
-3,-1,-3,-3,-1,-2,1,-1,2021-08-07 12:14:31.102318
-3,-3,-2,2,2,1,-1,-3,2021-08-07 12:14:31.104319
-3,-2,0,1,1,-2,-2,-4,2021-08-07 12:14:31.104319
-3,1,-1,0,-2,-1,-2,-3,2021-08-07 12:14:31.117318
-4,-2,-3,-8,-10,-6,-6,-5,2021-08-07 12:14:31.117318
0,1,1,1,-1,0,1,1,2021-08-07 12:14:31.123315
2,2,0,9,11,3,1,1,2021-08-07 12:14:31.123315
2,3,3,5,9,4,2,2,2021-08-07 12:14:31.140316
1,0,2,1,-5,-2,-1,0,2021-08-07 12:14:31.140316
-1,-4,-4,-1,-2,-2,-1,-2,2021-08-07 12:14:31.141318
0,1,-1,-7,-7,-2,-2,0,2021-08-07 12:14:31.142317
-1,0,0,-11,-10,-4,-2,-2,2021-08-07 12:14:31.162316
1,-1,0,6,9,5,1,1,2021-08-07 12:14:31.162316
0,1,5,14,18,8,3,1,2021-08-07 12:14:31.164316
-1,-3,-7,-2,-6,-2,1,1,2021-08-07 12:14:31.164316
-7,-9,-18,-24,-15,-11,-5,-5,2021-08-07 12:14:31.177318
-4,-3,-5,-15,-19,-10,-8,-4,2021-08-07 12:14:31.177318
-1,1,-1,-6,-3,-1,-2,-2,2021-08-07 12:14:31.183316
3,4,10,15,12,9,2,1,2021-08-07 12:14:31.183316
2,4,8,16,10,6,4,1,2021-08-07 12:14:31.200317
0,2,2,0,-4,-1,0,1,2021-08-07 12:14:31.200317
-4,-4,-3,-9,-9,-5,-3,-4,2021-08-07 12:14:31.201317
-3,-4,-6,-1,-4,-3,-3,-3,2021-08-07 12:14:31.201317
2,2,2,6,7,2,2,2,2021-08-07 12:14:31.222316
0,-1,-3,1,9,4,2,0,2021-08-07 12:14:31.223316
2,0,0,-6,-13,-7,-1,-1,2021-08-07 12:14:31.224315
-4,-5,-6,-13,-19,-9,-5,-2,2021-08-07 12:14:31.224315
-3,-3,-5,2,13,2,0,-3,2021-08-07 12:14:31.236315
2,3,9,19,16,7,3,2,2021-08-07 12:14:31.236315
1,1,5,4,2,0,0,0,2021-08-07 12:14:31.245316
-1,0,-5,-11,-5,-2,-2,-3,2021-08-07 12:14:31.245316
0,-2,-9,-6,-12,-6,-2,-1,2021-08-07 12:14:31.260315
-5,-6,-8,-12,-8,-5,-1,-3,2021-08-07 12:14:31.260315
-2,-1,-3,-4,-3,-2,-2,-1,2021-08-07 12:14:31.261315
0,2,2,-2,-2,-3,-1,0,2021-08-07 12:14:31.261315
-1,-2,2,-2,-2,1,-2,1,2021-08-07 12:14:31.282315
-1,-5,-5,1,6,3,1,-3,2021-08-07 12:14:31.282315
-2,-1,-1,1,-5,-5,-1,0,2021-08-07 12:14:31.284321
0,1,6,7,4,3,2,1,2021-08-07 12:14:31.284321
7,10,17,28,21,12,6,5,2021-08-07 12:14:31.296319
1,4,8,10,10,4,2,1,2021-08-07 12:14:31.296319
-2,-5,-4,-3,-6,-6,-2,-2,2021-08-07 12:14:31.305317
-4,-5,-6,-8,-5,-5,-2,-4,2021-08-07 12:14:31.305317
-1,-3,-3,-11,-10,-6,-4,-3,2021-08-07 12:14:31.320315
0,0,0,-5,-7,-5,-3,0,2021-08-07 12:14:31.320315
0,1,-1,-6,-7,-4,-1,0,2021-08-07 12:14:31.321315
-3,-1,-5,-3,0,-1,-1,-1,2021-08-07 12:14:31.321315
0,-1,3,9,13,8,2,1,2021-08-07 12:14:31.342315
-1,-1,0,-2,-2,-2,-1,-2,2021-08-07 12:14:31.342315
0,0,1,7,4,2,0,0,2021-08-07 12:14:31.344315
1,-3,-3,-4,-5,-1,-1,0,2021-08-07 12:14:31.344315
-6,-6,-11,-12,-14,-8,-4,-3,2021-08-07 12:14:31.356315
-5,-2,-5,-15,-14,-9,-5,-3,2021-08-07 12:14:31.356315
0,-5,-5,-6,-2,0,-1,0,2021-08-07 12:14:31.365315
-2,-2,2,8,6,1,1,-2,2021-08-07 12:14:31.365315
5,7,11,17,10,6,5,3,2021-08-07 12:14:31.380316
1,1,4,5,0,1,0,0,2021-08-07 12:14:31.380316
-2,-1,-4,-4,-3,-2,-1,-1,2021-08-07 12:14:31.381316
-2,-1,-1,2,1,0,-1,-1,2021-08-07 12:14:31.381316
-5,-5,-9,-21,-18,-11,-6,-3,2021-08-07 12:14:31.402316
1,0,0,11,16,6,1,1,2021-08-07 12:14:31.402316
-3,1,3,5,3,3,-1,0,2021-08-07 12:14:31.404316
2,1,2,1,7,2,0,0,2021-08-07 12:14:31.404316
-4,-3,-3,-5,-7,-6,-4,-2,2021-08-07 12:14:31.416316
-2,-2,-2,-13,-14,-6,-4,-2,2021-08-07 12:14:31.416316
0,0,-2,2,4,1,1,0,2021-08-07 12:14:31.425316
2,2,1,2,1,-1,0,0,2021-08-07 12:14:31.425316
