EMG 1,EMG 2,EMG 3,EMG 4,EMG 5,EMG 6,EMG 7,EMG 8,Timestamp,Milliseconds
4,6,6,12,12,8,3,4,2021-08-07 12:15:14,970995
2,2,-2,-12,-9,-4,-3,1,2021-08-07 12:15:14,970995
2,1,0,6,7,3,3,0,2021-08-07 12:15:14,970995
0,0,0,6,1,-1,-1,0,2021-08-07 12:15:14,970995
-3,-6,-8,-11,-9,-6,-2,-2,2021-08-07 12:15:14,970995
6,4,8,12,13,7,5,2,2021-08-07 12:15:14,971995
-2,-3,-2,-3,-3,-1,-2,-2,2021-08-07 12:15:14,971995
-3,-4,-2,-8,-6,-3,-2,-1,2021-08-07 12:15:14,971995
-1,-2,-1,-1,0,-1,-1,0,2021-08-07 12:15:14,971995
-2,-2,-2,1,-2,-1,-2,0,2021-08-07 12:15:14,971995
-3,-2,-2,-4,-4,-1,-3,-3,2021-08-07 12:15:14,971995
-3,-2,-3,-1,-1,-2,-1,-2,2021-08-07 12:15:14,971995
1,1,-2,-4,-7,-3,-2,1,2021-08-07 12:15:15,018993
-1,-1,-4,-5,-5,-2,-1,-2,2021-08-07 12:15:15,034994
0,-2,-2,-3,-3,-4,-2,-1,2021-08-07 12:15:15,035227
-1,-4,0,6,15,5,1,-1,2021-08-07 12:15:15,035227
1,3,-2,2,6,4,2,0,2021-08-07 12:15:15,035227
2,3,5,8,13,7,3,1,2021-08-07 12:15:15,035227
-3,-3,-4,-5,-13,-5,-5,-2,2021-08-07 12:15:15,035993
-2,-3,-4,-3,-4,-1,-1,-2,2021-08-07 12:15:15,035993
-1,1,-2,-5,-5,-3,-2,-1,2021-08-07 12:15:15,065993
-3,-3,-3,-5,-3,-3,-3,-4,2021-08-07 12:15:15,065993
1,1,0,-1,-2,1,0,0,2021-08-07 12:15:15,065993
0,0,-6,-10,-5,-3,0,-1,2021-08-07 12:15:15,065993
-1,0,4,11,1,0,1,0,2021-08-07 12:15:15,065993
-1,-4,-1,1,4,0,1,0,2021-08-07 12:15:15,066995
0,-3,0,-1,-1,-1,-1,-2,2021-08-07 12:15:15,066995
-2,-4,-4,-7,-5,-5,-3,-2,2021-08-07 12:15:15,066995
0,0,-4,-7,-4,-3,-3,-1,2021-08-07 12:15:15,080991
0,1,3,8,9,5,2,-1,2021-08-07 12:15:15,096996
-2,-1,-1,2,1,2,1,0,2021-08-07 12:15:15,096996
-2,-2,0,2,-2,-1,-1,-2,2021-08-07 12:15:15,112992
-1,-2,-3,-3,-1,-1,-3,-3,2021-08-07 12:15:15,127992
-2,-3,-5,-7,-8,-5,-4,-2,2021-08-07 12:15:15,127992
0,1,-1,0,1,-1,-1,0,2021-08-07 12:15:15,127992
-1,0,2,5,5,2,1,0,2021-08-07 12:15:15,127992
-4,-2,-4,-7,-6,-4,-3,-3,2021-08-07 12:15:15,127992
-1,0,-3,-5,-4,-3,-1,-2,2021-08-07 12:15:15,127992
-1,2,0,0,1,-1,1,0,2021-08-07 12:15:15,127992
-3,-1,0,4,6,4,0,0,2021-08-07 12:15:15,127992
2,1,3,4,1,3,1,0,2021-08-07 12:15:15,143994
-1,-3,-2,-4,-6,-4,-3,-1,2021-08-07 12:15:15,143994
-3,-3,-5,-12,-17,-9,-3,-3,2021-08-07 12:15:15,159993
6,8,9,11,10,7,5,6,2021-08-07 12:15:15,163992
0,0,4,12,16,8,3,1,2021-08-07 12:15:15,163992
-2,-2,-3,-6,-6,-1,0,-1,2021-08-07 12:15:15,163992
-2,-1,-2,0,1,-1,-2,0,2021-08-07 12:15:15,191995
-4,-6,-5,-11,-12,-10,-6,-3,2021-08-07 12:15:15,191995
-1,-4,-5,-9,-7,-3,-3,-2,2021-08-07 12:15:15,191995
3,2,4,6,5,1,-1,3,2021-08-07 12:15:15,191995
0,-1,2,4,7,4,1,1,2021-08-07 12:15:15,191995
-3,-1,-2,1,-2,0,-1,-2,2021-08-07 12:15:15,191995
-3,-4,-6,-8,-6,-5,-4,-3,2021-08-07 12:15:15,223991
0,3,2,3,1,0,1,1,2021-08-07 12:15:15,223991
0,-1,-2,-1,1,1,-1,1,2021-08-07 12:15:15,223991
-2,-2,-1,0,-1,-1,-2,-3,2021-08-07 12:15:15,239996
3,4,4,3,5,1,1,1,2021-08-07 12:15:15,255032
0,0,-1,-4,-5,-1,-2,-1,2021-08-07 12:15:15,255032
2,1,-1,1,1,0,1,1,2021-08-07 12:15:15,255032
0,-2,-2,-5,-8,-3,-2,-1,2021-08-07 12:15:15,255032
-6,-4,-3,2,0,-2,-2,-1,2021-08-07 12:15:15,255032
0,1,0,0,-1,0,0,2,2021-08-07 12:15:15,255992
0,1,4,6,10,5,1,1,2021-08-07 12:15:15,255992
-2,-4,-3,-3,-6,-4,-1,-1,2021-08-07 12:15:15,255992
-2,0,-2,-4,2,0,0,0,2021-08-07 12:15:15,270993
1,3,2,8,1,0,0,2,2021-08-07 12:15:15,270993
0,-1,0,1,-3,-2,-2,0,2021-08-07 12:15:15,270993
1,0,-2,-5,-5,-3,-1,0,2021-08-07 12:15:15,270993
-1,-3,-2,-8,-12,-7,-2,0,2021-08-07 12:15:15,287020
-3,-3,-3,-4,5,0,0,-1,2021-08-07 12:15:15,287020
1,2,2,8,7,5,1,0,2021-08-07 12:15:15,302995
-2,0,-2,-2,2,2,-2,-2,2021-08-07 12:15:15,302995
-1,-2,-1,-1,-4,-3,-1,0,2021-08-07 12:15:15,302995
-2,-4,-4,-11,-8,-7,-4,-5,2021-08-07 12:15:15,302995
-1,-3,0,-3,0,-1,-1,-1,2021-08-07 12:15:15,334993
-1,-1,0,2,1,0,0,0,2021-08-07 12:15:15,334993
2,2,2,2,1,2,0,0,2021-08-07 12:15:15,334993
-1,-1,-3,-5,-8,-6,-3,-2,2021-08-07 12:15:15,334993
-1,-2,-4,-7,-7,-4,-2,-2,2021-08-07 12:15:15,334993
-2,-2,0,2,-5,-4,-2,-2,2021-08-07 12:15:15,335994
1,0,2,13,17,8,3,0,2021-08-07 12:15:15,335994
-2,-3,1,5,6,3,0,-1,2021-08-07 12:15:15,335994
-2,1,-2,-4,-7,-5,0,-1,2021-08-07 12:15:15,366031
0,0,-5,-12,-9,-3,-1,-2,2021-08-07 12:15:15,366031
0,-1,-1,-1,-3,-2,-2,-2,2021-08-07 12:15:15,366031
0,1,1,0,-2,1,-2,0,2021-08-07 12:15:15,366031
-3,0,-3,-5,-6,-3,-2,0,2021-08-07 12:15:15,366031
0,1,4,14,13,5,1,-1,2021-08-07 12:15:15,366031
-2,-1,-5,-8,-6,-3,-4,-2,2021-08-07 12:15:15,397990
-5,-4,-2,-1,-1,0,-1,-2,2021-08-07 12:15:15,397990
1,0,1,6,2,2,-1,1,2021-08-07 12:15:15,413993
3,3,3,5,0,2,0,0,2021-08-07 12:15:15,429991
-1,-2,-3,-9,-10,-4,-3,-2,2021-08-07 12:15:15,429991
-2,-1,-4,-4,-7,-4,-2,-3,2021-08-07 12:15:15,429991
0,1,2,3,8,5,3,1,2021-08-07 12:15:15,429991
-1,-2,-2,0,6,2,1,0,2021-08-07 12:15:15,429991
-4,-2,-2,-7,-8,-7,-3,-2,2021-08-07 12:15:15,445991
2,1,2,-2,-2,1,1,3,2021-08-07 12:15:15,445991
1,-1,0,4,5,0,0,-3,2021-08-07 12:15:15,445991
-2,-1,-3,-10,-9,-5,-2,-1,2021-08-07 12:15:15,461992
-2,-3,0,9,8,3,-1,-2,2021-08-07 12:15:15,461992
-3,0,-2,2,3,0,0,1,2021-08-07 12:15:15,461992
-2,-2,1,2,-3,-2,-1,-3,2021-08-07 12:15:15,461992
-1,-2,1,2,0,0,-1,-1,2021-08-07 12:15:15,461992
1,-1,1,-2,-2,-2,0,1,2021-08-07 12:15:15,478029
-2,-3,-5,-9,-9,-4,-2,-3,2021-08-07 12:15:15,478029
2,3,5,4,5,1,0,1,2021-08-07 12:15:15,478029
1,1,-1,-2,-5,-3,-1,-1,2021-08-07 12:15:15,478029
-2,-1,3,13,13,6,3,-1,2021-08-07 12:15:15,478029
-1,-4,-2,1,0,0,-3,-1,2021-08-07 12:15:15,478029
-6,-7,-11,-19,-15,-7,-5,-3,2021-08-07 12:15:15,509993
6,5,6,9,8,5,2,3,2021-08-07 12:15:15,525993
1,1,-2,-8,-3,0,-1,1,2021-08-07 12:15:15,525993
1,1,3,3,1,0,1,-1,2021-08-07 12:15:15,525993
-1,-3,-3,-5,-11,-7,-3,-2,2021-08-07 12:15:15,525993
-3,-5,-7,-16,-8,-4,-3,-3,2021-08-07 12:15:15,525993
1,3,4,7,10,5,4,3,2021-08-07 12:15:15,525993
-1,-1,-1,-1,1,0,2,-2,2021-08-07 12:15:15,525993
-2,-2,-1,3,0,-2,-2,-3,2021-08-07 12:15:15,541993
-2,-1,0,6,10,3,2,0,2021-08-07 12:15:15,557991
-3,-4,-7,-17,-18,-10,-5,-3,2021-08-07 12:15:15,573992
1,-1,2,5,2,2,0,0,2021-08-07 12:15:15,573992
1,4,1,-1,-3,0,1,2,2021-08-07 12:15:15,573992
-4,-4,-2,-6,-3,-1,-3,-3,2021-08-07 12:15:15,573992
0,0,-2,3,1,0,0,0,2021-08-07 12:15:15,573992
-1,2,4,9,7,2,-1,0,2021-08-07 12:15:15,574994
0,-1,-1,-2,3,2,1,-1,2021-08-07 12:15:15,574994
-1,-1,2,3,1,1,-3,-1,2021-08-07 12:15:15,574994
-2,-4,-2,-4,-4,-2,-1,0,2021-08-07 12:15:15,589992
3,6,4,-1,-2,-1,0,1,2021-08-07 12:15:15,605993
-2,-1,-1,1,1,-1,-1,-2,2021-08-07 12:15:15,613993
-2,-3,-3,-4,-7,-4,-2,-2,2021-08-07 12:15:15,613993
0,-1,-3,-2,1,1,0,-1,2021-08-07 12:15:15,613993
0,0,-1,0,1,0,-2,0,2021-08-07 12:15:15,613993
-3,-3,-4,-7,-3,-4,-4,-1,2021-08-07 12:15:15,622016
1,1,0,-2,-4,-4,-1,0,2021-08-07 12:15:15,637993
2,2,7,14,9,5,3,1,2021-08-07 12:15:15,637993
-4,-5,-5,-6,-5,-4,-1,-2,2021-08-07 12:15:15,653995
0,2,0,2,1,1,0,0,2021-08-07 12:15:15,669993
-3,-3,-6,-9,-9,-6,-3,-3,2021-08-07 12:15:15,669993
0,2,0,-5,-3,-2,-1,1,2021-08-07 12:15:15,669993
3,1,0,0,2,2,1,2,2021-08-07 12:15:15,669993
-2,-3,-3,1,3,3,0,0,2021-08-07 12:15:15,686037
0,-2,-2,-2,-4,-4,1,1,2021-08-07 12:15:15,701993
-3,-4,-6,-10,-11,-5,-2,-3,2021-08-07 12:15:15,716993
-3,-3,0,4,8,3,0,-3,2021-08-07 12:15:15,716993
0,2,3,3,4,1,-1,-2,2021-08-07 12:15:15,716993
-5,-1,-1,1,-2,-3,-4,-3,2021-08-07 12:15:15,716993
-3,-1,-3,-4,-6,-5,-5,-3,2021-08-07 12:15:15,716993
3,5,3,-1,1,2,1,2,2021-08-07 12:15:15,717991
2,1,0,-4,-4,-3,-2,-1,2021-08-07 12:15:15,717991
1,0,-1,4,4,1,0,0,2021-08-07 12:15:15,717991
-1,-2,0,3,-3,-1,0,0,2021-08-07 12:15:15,717991
-4,-2,-5,-5,-6,-4,-2,-2,2021-08-07 12:15:15,717991
0,-1,-1,0,-1,-1,0,1,2021-08-07 12:15:15,717991
0,0,0,-1,0,1,-1,0,2021-08-07 12:15:15,717991
-8,-9,-10,-16,-13,-9,-7,-7,2021-08-07 12:15:15,717991
8,10,12,22,24,14,8,6,2021-08-07 12:15:15,718993
0,1,-1,3,1,0,1,-1,2021-08-07 12:15:15,749020
-3,-2,-2,0,2,1,-1,-2,2021-08-07 12:15:15,764994
-3,-2,-4,-5,-6,-4,-3,-3,2021-08-07 12:15:15,780993
-6,-5,-10,-16,-15,-9,-3,-3,2021-08-07 12:15:15,780993
-1,-1,-3,-2,-2,-1,0,1,2021-08-07 12:15:15,780993
1,0,3,7,9,5,4,0,2021-08-07 12:15:15,780993
-1,1,4,7,5,2,0,-2,2021-08-07 12:15:15,780993
-2,-4,-4,0,-6,-3,-4,-2,2021-08-07 12:15:15,780993
0,1,1,0,-1,1,0,1,2021-08-07 12:15:15,781994
-2,-1,-3,-4,-3,-3,-2,-1,2021-08-07 12:15:15,781994
2,1,0,-1,3,0,-1,2,2021-08-07 12:15:15,781994
-6,-6,-5,-10,-8,-5,-4,-5,2021-08-07 12:15:15,781994
-1,0,-1,-1,-2,-2,-2,1,2021-08-07 12:15:15,812994
2,3,3,3,5,4,2,1,2021-08-07 12:15:15,829033
1,0,1,2,2,0,0,1,2021-08-07 12:15:15,829033
0,-2,-3,-3,-6,-3,-2,-2,2021-08-07 12:15:15,829033
-1,-3,-5,-5,-7,-3,0,-1,2021-08-07 12:15:15,829033
2,2,7,12,10,4,2,4,2021-08-07 12:15:15,829033
1,1,1,1,1,0,0,1,2021-08-07 12:15:15,829996
0,-2,-3,-5,-2,-2,-2,-2,2021-08-07 12:15:15,829996
-3,-6,-5,-7,-8,-3,-4,-3,2021-08-07 12:15:15,844992
0,0,-4,-2,-3,-2,0,1,2021-08-07 12:15:15,861033
-1,2,2,2,4,3,3,0,2021-08-07 12:15:15,861033
-1,1,0,-3,-10,-4,-1,-2,2021-08-07 12:15:15,861033
0,-1,0,1,9,2,1,-1,2021-08-07 12:15:15,861033
-1,-2,-2,-3,0,-1,-1,-3,2021-08-07 12:15:15,861033
-3,-5,-3,-3,-7,-3,-4,-3,2021-08-07 12:15:15,861033
0,0,-1,-1,4,0,-1,-1,2021-08-07 12:15:15,861033
-1,0,2,-2,-4,-2,-1,-2,2021-08-07 12:15:15,875994
0,-1,1,9,6,3,2,-1,2021-08-07 12:15:15,892045
0,1,0,3,3,4,1,-1,2021-08-07 12:15:15,892045
0,-4,-4,-5,-4,-4,1,-1,2021-08-07 12:15:15,892045
2,4,4,1,-1,0,-1,2,2021-08-07 12:15:15,907993
-1,0,-2,-4,-4,-3,-1,-2,2021-08-07 12:15:15,907993
-1,-1,0,0,0,-2,0,-1,2021-08-07 12:15:15,923995
0,0,0,2,-1,1,2,1,2021-08-07 12:15:15,923995
-1,-3,-4,-1,-2,-4,-2,-1,2021-08-07 12:15:15,923995
-2,-4,-6,-4,-4,-3,-3,-3,2021-08-07 12:15:15,939992
3,4,4,2,2,3,0,1,2021-08-07 12:15:15,955994
-3,-3,-2,-3,0,-2,-2,-2,2021-08-07 12:15:15,955994
2,1,-1,3,2,2,0,-2,2021-08-07 12:15:15,955994
-4,-6,-3,-6,-6,-4,-4,-1,2021-08-07 12:15:15,955994
2,6,1,1,1,2,1,1,2021-08-07 12:15:15,955994
0,1,4,7,7,5,1,1,2021-08-07 12:15:15,955994
-3,-1,-2,1,1,1,-1,-1,2021-08-07 12:15:15,955994
-1,-2,-5,-10,-11,-7,-4,-2,2021-08-07 12:15:15,955994
-2,-1,-1,-5,-2,-3,-2,-2,2021-08-07 12:15:15,971990
0,2,6,6,6,3,0,0,2021-08-07 12:15:15,988026
2,2,4,10,10,7,4,1,2021-08-07 12:15:16,004019
-4,-7,-12,-15,-14,-9,-4,-2,2021-08-07 12:15:16,019992
-3,-5,-7,-8,-10,-7,-5,-3,2021-08-07 12:15:16,035993
1,0,-2,-6,-6,-4,-2,-1,2021-08-07 12:15:16,035993
-1,1,4,9,10,4,1,-1,2021-08-07 12:15:16,035993
1,2,4,7,5,5,2,-1,2021-08-07 12:15:16,035993
-2,-4,-4,-5,-6,-3,-3,-2,2021-08-07 12:15:16,035993
5,7,8,11,7,6,4,4,2021-08-07 12:15:16,036993
-5,-3,-8,-18,-15,-12,-4,-3,2021-08-07 12:15:16,036993
8,9,12,24,25,13,8,6,2021-08-07 12:15:16,036993
-1,-2,0,8,5,1,0,-2,2021-08-07 12:15:16,036993
-3,-4,-5,-3,-3,-3,-2,-4,2021-08-07 12:15:16,036993
-4,-6,-9,-15,-12,-6,-6,-4,2021-08-07 12:15:16,036993
1,3,4,6,4,4,0,1,2021-08-07 12:15:16,037992
0,-1,-3,-4,-4,-1,-1,1,2021-08-07 12:15:16,051993
-2,-2,-4,-3,-2,-1,-2,-3,2021-08-07 12:15:16,067990
-2,-3,-2,-3,-5,-2,-3,-1,2021-08-07 12:15:16,067990
-5,-7,-10,-19,-17,-11,-7,-5,2021-08-07 12:15:16,067990
4,4,5,9,11,7,5,2,2021-08-07 12:15:16,080992
3,2,3,3,2,0,1,2,2021-08-07 12:15:16,081993
-3,-3,-2,-1,2,-1,-1,-2,2021-08-07 12:15:16,081993
-2,0,-1,-2,-5,-3,-2,-4,2021-08-07 12:15:16,081993
-3,-2,-1,2,-2,-2,-1,-2,2021-08-07 12:15:16,081993
-3,-3,-4,-5,-7,-4,-2,-2,2021-08-07 12:15:16,081993
3,4,2,1,4,3,2,1,2021-08-07 12:15:16,114992
3,2,5,6,5,3,1,1,2021-08-07 12:15:16,130991
-4,-5,-6,-14,-14,-8,-4,-3,2021-08-07 12:15:16,130991
-1,-2,-4,-16,-15,-6,-4,-1,2021-08-07 12:15:16,130991
0,0,2,12,15,8,3,2,2021-08-07 12:15:16,130991
-2,-3,0,8,7,2,0,-2,2021-08-07 12:15:16,130991
3,3,4,6,3,2,0,1,2021-08-07 12:15:16,131993
-2,-3,-3,-2,3,-1,-1,-1,2021-08-07 12:15:16,131993
0,-2,-1,-5,-11,-4,-2,-1,2021-08-07 12:15:16,146990
-3,-3,-7,-13,-13,-8,-4,-3,2021-08-07 12:15:16,146990
-2,-2,-2,1,2,-2,-1,-1,2021-08-07 12:15:16,146990
-4,-3,-5,-5,-1,-2,-2,-4,2021-08-07 12:15:16,146990
0,0,3,5,1,0,1,0,2021-08-07 12:15:16,162993
-3,-2,-4,-3,-3,-1,0,1,2021-08-07 12:15:16,178994
-4,-4,-3,-7,-4,-3,-2,-2,2021-08-07 12:15:16,178994
0,1,0,4,4,3,2,1,2021-08-07 12:15:16,178994
-3,-2,-1,0,0,-1,-2,-1,2021-08-07 12:15:16,178994
0,0,0,-1,-5,0,0,-2,2021-08-07 12:15:16,178994
-2,-1,-2,-5,-6,-5,-3,-2,2021-08-07 12:15:16,179772
0,1,1,3,8,3,0,1,2021-08-07 12:15:16,179992
1,0,1,1,-3,-3,-1,1,2021-08-07 12:15:16,211027
1,2,0,-6,-2,-3,-1,0,2021-08-07 12:15:16,211027
0,-3,0,9,7,3,1,-1,2021-08-07 12:15:16,211027
-1,1,1,-8,-8,-4,-2,-1,2021-08-07 12:15:16,211027
2,2,4,13,14,7,2,1,2021-08-07 12:15:16,227025
-2,-3,-4,-7,-6,-5,-2,-3,2021-08-07 12:15:16,243026
-2,-4,-3,-2,-2,-1,-1,-2,2021-08-07 12:15:16,258025
5,8,7,9,7,4,3,2,2021-08-07 12:15:16,274026
-2,-3,-4,-10,-9,-5,-3,-2,2021-08-07 12:15:16,306066
-3,-3,0,0,2,1,-1,-2,2021-08-07 12:15:16,322027
-2,-3,-3,-1,-1,0,-2,-1,2021-08-07 12:15:16,338054
-5,-8,-7,-4,-8,-6,-3,-4,2021-08-07 12:15:16,338054
3,5,4,2,2,2,3,2,2021-08-07 12:15:16,338054
-2,0,0,3,3,1,0,0,2021-08-07 12:15:16,338054
4,4,4,0,0,-1,1,1,2021-08-07 12:15:16,338054
-9,-9,-10,-5,-6,-4,-5,-5,2021-08-07 12:15:16,338054
6,11,7,3,2,2,3,3,2021-08-07 12:15:16,338054
-3,-6,-5,-3,-2,-2,-3,-4,2021-08-07 12:15:16,338054
-2,1,3,-4,-4,-2,-2,2,2021-08-07 12:15:16,339026
-3,-5,-5,4,4,0,0,-2,2021-08-07 12:15:16,339026
-3,-2,0,3,-2,-1,-1,-2,2021-08-07 12:15:16,339026
-1,-1,-1,-1,-1,-1,0,0,2021-08-07 12:15:16,339026
-1,0,-3,-4,4,3,2,1,2021-08-07 12:15:16,339026
2,2,2,2,-4,0,0,-2,2021-08-07 12:15:16,339026
-3,-5,-7,-11,-10,-7,-4,-3,2021-08-07 12:15:16,339026
2,1,4,13,12,6,2,1,2021-08-07 12:15:16,340028
-2,-3,-4,-5,-3,-1,-1,-2,2021-08-07 12:15:16,340028
4,4,5,3,8,3,1,2,2021-08-07 12:15:16,340028
-4,-5,-6,-3,-6,-5,-1,-4,2021-08-07 12:15:16,354054
-1,0,-1,-1,1,1,0,0,2021-08-07 12:15:16,354054
1,2,2,4,-2,-1,-2,0,2021-08-07 12:15:16,354054
0,0,0,-3,-5,-2,-1,1,2021-08-07 12:15:16,354054
-6,-8,-8,-9,-8,-4,-5,-3,2021-08-07 12:15:16,370027
1,3,2,-3,-5,-3,-1,0,2021-08-07 12:15:16,370027
0,0,1,6,4,3,1,-1,2021-08-07 12:15:16,370027
4,4,2,0,2,2,0,3,2021-08-07 12:15:16,370027
4,3,2,4,7,2,2,1,2021-08-07 12:15:16,386025
-3,-5,-3,0,-6,-3,-3,-2,2021-08-07 12:15:16,386025
-2,-3,-4,-6,-3,-2,-1,-2,2021-08-07 12:15:16,386025
0,1,5,9,11,6,3,1,2021-08-07 12:15:16,402277
-3,-5,-2,2,-1,-2,-4,-1,2021-08-07 12:15:16,402277
1,0,-2,-9,-7,-3,-1,0,2021-08-07 12:15:16,402277
-1,0,-2,1,1,-1,-2,-2,2021-08-07 12:15:16,402277
-1,-3,-2,-2,-2,0,-2,-3,2021-08-07 12:15:16,402277
0,2,-3,-11,-21,-10,-5,-1,2021-08-07 12:15:16,418029
-2,-4,-9,-19,-13,-7,-5,-2,2021-08-07 12:15:16,418029
5,5,6,20,23,12,9,4,2021-08-07 12:15:16,418029
-2,-3,-5,-8,-3,-1,1,-1,2021-08-07 12:15:16,418029
-1,-1,2,9,8,6,2,-1,2021-08-07 12:15:16,450026
-6,-6,-8,-16,-24,-11,-7,-7,2021-08-07 12:15:16,466029
-4,-3,-1,-4,-1,-3,-3,-4,2021-08-07 12:15:16,482030
-2,1,3,7,4,1,-2,-3,2021-08-07 12:15:16,482030
2,5,2,-1,-2,0,-1,0,2021-08-07 12:15:16,482030
2,2,0,3,2,-1,-2,0,2021-08-07 12:15:16,482030
-1,2,0,-1,-3,-2,0,3,2021-08-07 12:15:16,482030
0,-1,0,3,1,-1,-2,1,2021-08-07 12:15:16,483026
-4,-9,-9,-10,-9,-5,-5,-3,2021-08-07 12:15:16,483026
5,4,4,8,13,7,3,4,2021-08-07 12:15:16,483026
4,3,3,7,6,4,1,3,2021-08-07 12:15:16,483026
-1,-4,-7,-8,-10,-4,-2,-3,2021-08-07 12:15:16,483026
-2,-3,0,3,4,1,-1,-2,2021-08-07 12:15:16,514030
-6,-6,-5,-1,-3,-3,-3,-4,2021-08-07 12:15:16,530028
-1,-5,-6,-12,-11,-4,-4,-1,2021-08-07 12:15:16,539029
0,3,3,7,6,2,0,2,2021-08-07 12:15:16,539029
-1,2,-2,-1,5,0,0,-1,2021-08-07 12:15:16,540027
1,0,3,10,8,3,2,0,2021-08-07 12:15:16,540027
-3,-2,-3,-7,-11,-8,-4,-4,2021-08-07 12:15:16,540027
-2,-2,-3,-4,-3,-3,-1,-1,2021-08-07 12:15:16,540027
2,-1,0,2,3,4,0,1,2021-08-07 12:15:16,540027
1,3,2,2,3,0,1,0,2021-08-07 12:15:16,540027
-2,-2,-1,-1,-1,-1,-1,-1,2021-08-07 12:15:16,541027
-1,-4,-2,-6,-5,-4,-1,-2,2021-08-07 12:15:16,541027
-4,-4,-5,-9,-5,-4,-2,-3,2021-08-07 12:15:16,562028
4,3,5,2,-2,1,1,2,2021-08-07 12:15:16,562028
-2,-1,-1,4,6,3,0,-1,2021-08-07 12:15:16,562028
-2,0,0,1,-1,-2,-3,-3,2021-08-07 12:15:16,562028
-4,-8,-5,-4,-5,-2,-2,-2,2021-08-07 12:15:16,578026
3,3,4,4,2,0,0,2,2021-08-07 12:15:16,578026
3,3,1,-4,-5,-3,-1,0,2021-08-07 12:15:16,594026
-3,-1,-2,-4,-5,-4,-2,-1,2021-08-07 12:15:16,610026
-1,-1,0,-2,0,-1,-1,-1,2021-08-07 12:15:16,610026
-4,-3,-3,-5,-1,-2,-2,-2,2021-08-07 12:15:16,610026
0,-1,1,4,4,1,0,-2,2021-08-07 12:15:16,610026
0,0,-1,-5,-2,-1,0,0,2021-08-07 12:15:16,610026
1,2,1,-4,-2,0,0,0,2021-08-07 12:15:16,626063
-2,-2,5,19,17,7,3,1,2021-08-07 12:15:16,626063
2,1,0,-2,-2,1,0,0,2021-08-07 12:15:16,626063
-4,-3,-5,-3,-3,-2,-3,-2,2021-08-07 12:15:16,626063
1,4,-1,2,-2,-1,1,2,2021-08-07 12:15:16,642026
-3,-2,-7,-11,-10,-5,-5,-3,2021-08-07 12:15:16,658028
-2,-3,-2,-5,0,-3,-1,-1,2021-08-07 12:15:16,658028
-1,-1,3,8,1,0,-1,-1,2021-08-07 12:15:16,658028
-3,-5,-3,-2,-3,-1,-2,-3,2021-08-07 12:15:16,658028
0,-1,0,-1,-2,-2,-4,-3,2021-08-07 12:15:16,658028
1,2,1,1,-5,-1,2,0,2021-08-07 12:15:16,658028
3,4,3,1,2,0,2,2,2021-08-07 12:15:16,659027
-1,1,1,2,3,0,0,-1,2021-08-07 12:15:16,706027
-2,-3,-4,-1,-1,0,0,0,2021-08-07 12:15:16,706027
-4,-5,-6,-7,-7,-4,-4,-3,2021-08-07 12:15:16,706027
5,6,8,10,7,6,5,4,2021-08-07 12:15:16,706027
4,5,15,14,6,3,1,1,2021-08-07 12:15:16,706027
-3,-1,4,0,2,0,1,2,2021-08-07 12:15:16,706027
-3,-1,-17,-12,-11,-7,-3,-2,2021-08-07 12:15:16,707027
-10,-13,-21,-22,-18,-14,-10,-7,2021-08-07 12:15:16,707027
-2,-9,-5,-6,-2,-3,-1,-3,2021-08-07 12:15:16,722030
0,2,2,2,1,3,1,0,2021-08-07 12:15:16,722030
1,1,8,9,6,4,1,1,2021-08-07 12:15:16,722030
0,3,3,1,1,1,1,-2,2021-08-07 12:15:16,722030
0,1,-3,-6,-5,-4,-2,-1,2021-08-07 12:15:16,753025
-3,-1,2,0,-7,-6,-3,-2,2021-08-07 12:15:16,769028
-2,-1,3,10,12,6,1,1,2021-08-07 12:15:16,769028
0,-2,-2,6,2,2,1,0,2021-08-07 12:15:16,769028
3,5,1,0,2,1,0,2,2021-08-07 12:15:16,769028
0,-1,-4,-3,-1,1,0,-1,2021-08-07 12:15:16,769028
-2,-1,-4,-10,-14,-7,-4,-2,2021-08-07 12:15:16,769028
-1,-3,4,4,5,2,-1,-1,2021-08-07 12:15:16,770027
-1,0,-2,-1,-1,-1,0,-1,2021-08-07 12:15:16,785026
-1,-1,-5,-5,1,-1,0,-2,2021-08-07 12:15:16,785026
-2,-1,1,4,0,-2,-1,-2,2021-08-07 12:15:16,785026
-1,-1,-2,-15,-14,-7,-4,-1,2021-08-07 12:15:16,785026
-3,-4,-5,0,2,1,-2,-3,2021-08-07 12:15:16,817064
-2,0,2,1,-2,-1,-1,0,2021-08-07 12:15:16,817064
2,-1,-1,-1,2,3,3,0,2021-08-07 12:15:16,817064
1,2,3,9,6,3,2,1,2021-08-07 12:15:16,817064
0,3,-4,-5,-6,-2,-1,0,2021-08-07 12:15:16,833026
0,-4,-4,-3,-5,-2,-2,-2,2021-08-07 12:15:16,849028
-3,-2,0,-2,-2,-2,-3,-1,2021-08-07 12:15:16,849028
0,-2,-5,-3,-4,-3,-2,0,2021-08-07 12:15:16,849028
-1,0,-2,0,-1,-1,-2,0,2021-08-07 12:15:16,849028
0,0,-4,-5,-4,0,-1,1,2021-08-07 12:15:16,849028
1,1,2,1,1,1,-1,1,2021-08-07 12:15:16,849028
0,-2,-1,0,1,0,-3,-2,2021-08-07 12:15:16,850027
-1,-1,1,0,3,-1,-1,0,2021-08-07 12:15:16,865064
-2,-4,-3,-2,1,0,-2,-1,2021-08-07 12:15:16,881027
0,-1,-1,-4,-5,-3,-1,-1,2021-08-07 12:15:16,881027
0,2,1,-4,-1,0,-1,0,2021-08-07 12:15:16,881027
0,-2,0,1,-1,1,1,-1,2021-08-07 12:15:16,897025
-4,-4,-1,0,0,-1,-2,-1,2021-08-07 12:15:16,897025
-3,-1,-1,-1,-1,0,-2,0,2021-08-07 12:15:16,897025
-1,0,-1,-1,1,0,1,1,2021-08-07 12:15:16,897025
-2,-1,-1,-1,-1,-3,-1,-2,2021-08-07 12:15:16,897025
0,0,-2,1,-1,-3,0,-1,2021-08-07 12:15:16,913064
-3,-1,2,3,5,4,1,-1,2021-08-07 12:15:16,929025
2,3,2,-1,-1,0,1,1,2021-08-07 12:15:16,945025
-2,-1,-1,4,2,1,0,-1,2021-08-07 12:15:16,945025
0,1,-1,-2,2,0,-1,-2,2021-08-07 12:15:16,945025
-4,-4,-4,-8,-14,-8,-4,-3,2021-08-07 12:15:16,945025
-7,-9,-7,-1,7,3,-3,-4,2021-08-07 12:15:16,945025
6,9,8,2,-2,1,3,3,2021-08-07 12:15:16,945025
4,3,3,4,4,4,2,2,2021-08-07 12:15:16,946027
1,-1,-1,5,4,3,1,0,2021-08-07 12:15:16,946027
-4,-5,-4,-2,-1,0,-2,-4,2021-08-07 12:15:16,946027
-1,0,1,5,2,1,0,-2,2021-08-07 12:15:16,977065
-3,-2,-4,-4,-4,-4,-2,-3,2021-08-07 12:15:16,985027
-1,-2,-5,-9,-8,-3,-3,-2,2021-08-07 12:15:16,985027
3,1,4,5,-3,-1,1,3,2021-08-07 12:15:16,986028
-4,-7,-6,-6,-2,-2,-3,-3,2021-08-07 12:15:16,986028
-1,-1,-3,-7,-10,-6,-3,-3,2021-08-07 12:15:16,986028
2,1,3,7,8,4,1,0,2021-08-07 12:15:16,986028
2,1,4,8,3,3,3,-1,2021-08-07 12:15:16,986028
-2,-2,-4,-4,-4,-1,1,-2,2021-08-07 12:15:17,023029
0,1,1,-2,-2,-1,0,0,2021-08-07 12:15:17,038054
-1,-2,0,-3,-1,-2,-1,-1,2021-08-07 12:15:17,038054
0,1,-1,1,0,-1,-2,-3,2021-08-07 12:15:17,038054
-6,-7,-4,-2,0,-3,-3,-3,2021-08-07 12:15:17,038054
-1,1,1,-1,-2,0,1,0,2021-08-07 12:15:17,038054
8,11,8,4,5,3,5,5,2021-08-07 12:15:17,038054
1,2,-1,-3,-4,-4,-1,-1,2021-08-07 12:15:17,038054
-3,-3,-3,-8,-10,-5,-4,-2,2021-08-07 12:15:17,054052
-6,-9,-9,-5,0,-4,-4,-4,2021-08-07 12:15:17,054052
-1,-1,3,14,11,5,1,-1,2021-08-07 12:15:17,054052
2,0,3,3,5,4,0,1,2021-08-07 12:15:17,054052
1,2,3,-2,0,-1,-3,0,2021-08-07 12:15:17,070025
-3,-2,-3,-12,-14,-8,-3,-2,2021-08-07 12:15:17,070025
-1,-2,0,3,3,0,1,-2,2021-08-07 12:15:17,070025
-3,-2,-2,-1,1,-1,1,-1,2021-08-07 12:15:17,070025
0,0,-1,-3,-1,0,0,1,2021-08-07 12:15:17,086027
-1,-3,-6,-8,-6,-3,-2,-2,2021-08-07 12:15:17,086027
1,2,8,12,9,5,1,1,2021-08-07 12:15:17,086027
-2,-1,1,3,-2,-1,-1,0,2021-08-07 12:15:17,086027
-2,-1,3,3,2,0,0,-2,2021-08-07 12:15:17,118026
1,0,-1,4,5,4,0,0,2021-08-07 12:15:17,134051
-1,-4,-6,-10,-9,-6,-3,0,2021-08-07 12:15:17,150028
1,2,-2,-7,-4,-3,-2,0,2021-08-07 12:15:17,166025
0,1,1,7,3,1,1,0,2021-08-07 12:15:17,166025
-4,-5,-4,0,-3,-2,-2,-3,2021-08-07 12:15:17,166025
0,-2,-3,-7,-2,-1,-1,0,2021-08-07 12:15:17,166025
-2,1,1,1,-3,0,0,0,2021-08-07 12:15:17,166025
-5,-2,-7,-8,-7,-3,-4,-3,2021-08-07 12:15:17,166025
1,2,6,10,9,6,2,-1,2021-08-07 12:15:17,167027
-2,-2,-3,-6,-7,-5,-2,-2,2021-08-07 12:15:17,167027
-1,-2,-4,-3,2,-1,0,-1,2021-08-07 12:15:17,167027
-2,-3,-4,-3,-6,-4,-4,-2,2021-08-07 12:15:17,167027
1,1,2,-2,0,0,0,2,2021-08-07 12:15:17,167027
0,0,3,9,6,2,0,-1,2021-08-07 12:15:17,167027
2,-2,1,-2,-5,-2,-2,-1,2021-08-07 12:15:17,168028
-2,-5,-3,-3,-2,-3,-2,-3,2021-08-07 12:15:17,198027
-2,-4,-8,-7,-3,-2,-2,-2,2021-08-07 12:15:17,198027
4,6,4,-3,0,0,1,2,2021-08-07 12:15:17,198027
-2,-2,-1,-3,-5,-3,-3,-3,2021-08-07 12:15:17,198027
-2,-2,-3,0,-3,-1,-1,-2,2021-08-07 12:15:17,214027
0,0,4,4,9,4,2,0,2021-08-07 12:15:17,230062
-2,-1,-4,-1,0,-2,-3,-1,2021-08-07 12:15:17,230062
0,-2,-6,-2,-2,-1,-1,-1,2021-08-07 12:15:17,230062
0,1,2,-2,-2,0,-1,-2,2021-08-07 12:15:17,230062
-2,-2,-2,0,-5,-4,-1,-1,2021-08-07 12:15:17,230062
0,-3,-4,-2,0,1,-1,1,2021-08-07 12:15:17,230062
0,0,-1,0,-2,-1,0,2,2021-08-07 12:15:17,230062
-4,-5,-11,-17,-18,-11,-3,-1,2021-08-07 12:15:17,245050
4,4,11,15,22,12,6,3,2021-08-07 12:15:17,245050
-3,-1,5,16,7,2,0,-2,2021-08-07 12:15:17,245050
-3,0,0,-1,1,-1,-2,-3,2021-08-07 12:15:17,245050
-2,2,3,3,0,1,-3,-3,2021-08-07 12:15:17,277030
-2,0,-2,-7,-11,-7,-4,-1,2021-08-07 12:15:17,277030
-2,-3,-8,-20,-21,-10,-5,-2,2021-08-07 12:15:17,277030
1,-1,3,14,16,7,4,1,2021-08-07 12:15:17,277030
2,-2,-3,1,4,2,1,0,2021-08-07 12:15:17,293029
2,3,4,2,-3,0,0,2,2021-08-07 12:15:17,293029
-1,-1,-4,-6,-5,-2,0,-1,2021-08-07 12:15:17,293029
-1,-1,0,-5,-7,-2,1,0,2021-08-07 12:15:17,293029
2,2,3,6,7,3,2,1,2021-08-07 12:15:17,324067
0,-3,-1,0,-3,-2,-2,-2,2021-08-07 12:15:17,324067
-4,-4,-4,-9,-8,-6,-5,-3,2021-08-07 12:15:17,324067
-5,-7,-10,-20,-16,-7,-6,-3,2021-08-07 12:15:17,324565
9,11,19,33,34,18,10,9,2021-08-07 12:15:17,324565
-2,1,-2,0,-3,-3,-1,-2,2021-08-07 12:15:17,324565
-2,-3,-3,-4,-1,-2,-2,-2,2021-08-07 12:15:17,325027
-4,-3,-6,-15,-19,-11,-5,-5,2021-08-07 12:15:17,325027
-2,-1,0,7,13,7,3,-1,2021-08-07 12:15:17,356026
0,-1,0,4,5,3,1,-1,2021-08-07 12:15:17,371028
-1,1,-2,2,2,0,1,0,2021-08-07 12:15:17,371028
0,-1,2,1,1,0,-2,0,2021-08-07 12:15:17,371028
-3,-4,-6,-11,-13,-9,-5,-3,2021-08-07 12:15:17,371028
0,2,0,1,-1,-2,0,0,2021-08-07 12:15:17,371028
-1,-2,-3,-4,-4,-1,-2,-2,2021-08-07 12:15:17,371028
2,1,3,5,4,3,1,1,2021-08-07 12:15:17,372027
0,-2,-4,-2,-3,-1,-1,-1,2021-08-07 12:15:17,387030
-2,-1,-1,-1,-4,-2,-2,-3,2021-08-07 12:15:17,387030
-1,-1,-2,-6,-5,-3,-2,-2,2021-08-07 12:15:17,387030
0,0,-1,5,8,1,-1,-1,2021-08-07 12:15:17,387030
-3,0,0,0,-1,-1,-1,0,2021-08-07 12:15:17,419027
-1,-2,-1,0,0,-1,0,-1,2021-08-07 12:15:17,435026
-1,-1,-2,0,-1,-2,-2,-1,2021-08-07 12:15:17,435026
-1,1,2,2,2,1,0,0,2021-08-07 12:15:17,435026
-3,-2,-4,-8,-6,-3,-3,-1,2021-08-07 12:15:17,451028
0,0,-2,-4,-4,0,0,-2,2021-08-07 12:15:17,451028
-1,0,1,2,5,2,1,0,2021-08-07 12:15:17,451028
-1,0,0,2,-1,1,-1,-2,2021-08-07 12:15:17,451028
-2,-3,-2,-5,-6,-5,-2,-2,2021-08-07 12:15:17,451028
1,0,0,-1,0,-1,0,-1,2021-08-07 12:15:17,451028
0,0,1,0,2,1,1,0,2021-08-07 12:15:17,452027
-2,0,-1,0,0,-2,0,1,2021-08-07 12:15:17,452027
-4,-6,-5,-7,-7,-2,-3,-3,2021-08-07 12:15:17,467026
-2,-2,-1,-3,0,-2,-3,-1,2021-08-07 12:15:17,467026
7,7,7,6,5,3,3,3,2021-08-07 12:15:17,467026
0,-1,-1,-1,1,1,-2,-2,2021-08-07 12:15:17,467026
-2,-1,-3,-2,-1,0,-1,0,2021-08-07 12:15:17,483027
-6,-6,-9,-9,-11,-7,-5,-2,2021-08-07 12:15:17,483027
-3,-7,-6,-3,-2,-1,-2,-1,2021-08-07 12:15:17,499027
2,4,5,4,5,1,1,2,2021-08-07 12:15:17,515028
0,-4,-3,2,5,3,1,-2,2021-08-07 12:15:17,515028
6,8,8,5,0,4,4,3,2021-08-07 12:15:17,531027
-1,-1,-2,1,9,5,0,0,2021-08-07 12:15:17,547027
0,0,0,5,3,0,0,-2,2021-08-07 12:15:17,547027
-1,-3,-4,-6,-8,-7,-4,-2,2021-08-07 12:15:17,547027
-2,-2,-4,-2,-1,-3,-1,-1,2021-08-07 12:15:17,547027
-1,-2,-3,-8,-10,-7,-3,-2,2021-08-07 12:15:17,547027
-4,-4,-5,-7,-5,-2,-1,-2,2021-08-07 12:15:17,547027
2,4,5,11,9,4,3,2,2021-08-07 12:15:17,548026
-4,-2,-4,-3,-5,-4,-2,-2,2021-08-07 12:15:17,548026
1,4,3,5,7,4,4,3,2021-08-07 12:15:17,548026
-6,-3,-8,-9,-12,-9,-3,-4,2021-08-07 12:15:17,548026
-5,-6,-1,-1,0,-2,-3,-3,2021-08-07 12:15:17,563027
9,11,10,9,9,7,5,7,2021-08-07 12:15:17,579054
1,1,-2,-3,-5,-2,-1,-2,2021-08-07 12:15:17,595070
-3,-5,-7,-12,-13,-9,-5,-2,2021-08-07 12:15:17,595070
1,2,7,16,14,6,2,-1,2021-08-07 12:15:17,595070
-3,-4,-4,-5,-1,-1,-2,-1,2021-08-07 12:15:17,595070
0,0,1,6,4,3,-1,-2,2021-08-07 12:15:17,595070
0,-3,-3,-3,-6,-2,-1,0,2021-08-07 12:15:17,595070
0,1,-2,-5,-10,-4,-1,1,2021-08-07 12:15:17,611068
-3,-5,-4,-3,2,-1,-1,-3,2021-08-07 12:15:17,627026
0,1,3,3,-3,-1,0,0,2021-08-07 12:15:17,627026
-1,-2,-2,3,3,1,-1,-2,2021-08-07 12:15:17,627026
-3,-2,-5,-10,-10,-5,-4,-1,2021-08-07 12:15:17,627026
-1,0,0,4,1,1,-1,0,2021-08-07 12:15:17,627026
-2,-1,-2,-2,0,0,-1,1,2021-08-07 12:15:17,627026
0,-1,1,0,2,1,-1,-2,2021-08-07 12:15:17,627026
0,-1,-1,-5,-3,0,0,-1,2021-08-07 12:15:17,659028
-2,0,0,-5,-7,-4,-1,-2,2021-08-07 12:15:17,675065
-4,-5,2,9,6,0,-1,-3,2021-08-07 12:15:17,675065
5,5,5,7,8,5,3,4,2021-08-07 12:15:17,675065
2,3,0,-7,-4,-2,-2,2,2021-08-07 12:15:17,675065
-3,-4,-3,-6,-7,-3,-3,-3,2021-08-07 12:15:17,675065
-5,-3,-2,-5,-6,-4,-2,-3,2021-08-07 12:15:17,675065
-1,-2,-3,-2,3,2,0,0,2021-08-07 12:15:17,676027
-3,-1,-1,2,3,2,-1,-1,2021-08-07 12:15:17,691026
0,0,1,6,7,2,1,0,2021-08-07 12:15:17,707030
-1,-4,-3,-6,-6,-4,-1,0,2021-08-07 12:15:17,707030
-3,-2,-5,-16,-20,-10,-5,-3,2021-08-07 12:15:17,707030
3,5,4,11,15,5,3,0,2021-08-07 12:15:17,707030
2,1,2,13,13,7,4,1,2021-08-07 12:15:17,707030
0,-1,-3,-7,-9,-4,-3,-1,2021-08-07 12:15:17,707030
0,1,2,9,6,2,2,-1,2021-08-07 12:15:17,708027
-1,-3,-5,-10,-8,-4,0,-1,2021-08-07 12:15:17,737319
0,-1,1,1,1,0,0,0,2021-08-07 12:15:17,737319
-3,-3,-2,-3,-4,-4,-1,-2,2021-08-07 12:15:17,737319
-2,-3,-1,-6,-2,-2,-1,-1,2021-08-07 12:15:17,737319
-1,0,-1,3,-1,0,-1,-2,2021-08-07 12:15:17,737319
-1,-1,1,6,8,5,2,2,2021-08-07 12:15:17,738027
2,3,1,0,1,1,0,2,2021-08-07 12:15:17,753077
0,1,-1,-2,-1,0,-1,1,2021-08-07 12:15:17,753077
2,2,0,1,-1,0,1,1,2021-08-07 12:15:17,768292
-4,-4,-4,-10,-9,-7,-4,-3,2021-08-07 12:15:17,800293
0,-2,-1,-1,-2,-1,0,-2,2021-08-07 12:15:17,816291
-1,0,1,3,4,3,2,-1,2021-08-07 12:15:17,831294
-4,-6,-5,-6,-5,-4,-2,-3,2021-08-07 12:15:17,831294
-1,-1,-3,-7,-5,-2,-2,0,2021-08-07 12:15:17,831294
0,1,2,5,4,0,0,1,2021-08-07 12:15:17,831294
-4,-2,1,5,2,1,-2,-1,2021-08-07 12:15:17,831294
-2,0,-1,-4,-4,-3,-2,-2,2021-08-07 12:15:17,831294
-1,-3,-3,-5,-5,-3,-2,-1,2021-08-07 12:15:17,831294
0,1,2,6,5,2,1,2,2021-08-07 12:15:17,831294
-1,-2,-2,-2,-1,-1,0,1,2021-08-07 12:15:17,832293
-2,-4,-3,-6,-11,-7,-4,-3,2021-08-07 12:15:17,832293
-3,-3,-6,-13,-16,-7,-3,-3,2021-08-07 12:15:17,832293
4,7,5,11,19,9,2,3,2021-08-07 12:15:17,832293
0,1,1,7,11,5,2,1,2021-08-07 12:15:17,832293
-2,-1,-2,0,-2,1,0,0,2021-08-07 12:15:17,862330
-1,-4,-3,-3,-6,-4,-3,-2,2021-08-07 12:15:17,862330
0,-4,-4,-8,-10,-5,-1,-2,2021-08-07 12:15:17,862330
-1,-2,0,0,0,-2,0,-1,2021-08-07 12:15:17,862330
0,1,3,-1,1,0,0,0,2021-08-07 12:15:17,877292
-1,-2,-1,0,0,-2,-1,0,2021-08-07 12:15:17,877292
-2,0,-2,-6,-6,-2,-2,-1,2021-08-07 12:15:17,877292
2,0,-1,2,3,2,0,1,2021-08-07 12:15:17,877292
-1,0,-3,-4,-5,-4,-3,-1,2021-08-07 12:15:17,893292
-1,1,2,1,6,3,2,1,2021-08-07 12:15:17,909295
-3,-3,-4,-5,-6,-3,-2,-3,2021-08-07 12:15:17,925290
0,2,3,8,8,4,1,2,2021-08-07 12:15:17,925290
-2,-2,-2,-3,-3,-2,-2,-2,2021-08-07 12:15:17,925290
2,2,2,4,4,1,1,2,2021-08-07 12:15:17,926292
-3,-5,-4,-9,-7,-5,-3,-2,2021-08-07 12:15:17,926292
0,-3,-2,0,-6,-3,-2,-2,2021-08-07 12:15:17,926292
3,3,4,2,4,2,2,3,2021-08-07 12:15:17,926292
0,-2,1,4,5,2,0,0,2021-08-07 12:15:17,927300
-2,0,-1,-6,-7,-2,-3,-1,2021-08-07 12:15:17,941291
1,3,4,12,13,7,3,0,2021-08-07 12:15:17,957337
1,2,0,-1,1,1,2,1,2021-08-07 12:15:17,989290
-1,1,-2,-3,-2,-1,-1,-1,2021-08-07 12:15:17,989290
-3,-2,-5,-5,-6,-5,-2,-3,2021-08-07 12:15:17,989290
-2,-4,-5,-12,-8,-6,-4,-3,2021-08-07 12:15:17,989290
0,-2,-2,3,0,0,1,-1,2021-08-07 12:15:17,989290
0,-2,-5,-10,-12,-5,-2,-2,2021-08-07 12:15:17,989290
-1,0,-1,9,14,7,4,2,2021-08-07 12:15:17,990292
0,0,1,-5,0,0,-2,-2,2021-08-07 12:15:17,990292
-2,1,3,4,1,0,1,-1,2021-08-07 12:15:17,990292
-2,-3,-1,-5,-9,-6,-4,-2,2021-08-07 12:15:17,990292
2,0,-2,0,3,2,2,-1,2021-08-07 12:15:17,990292
0,-2,-2,-6,-5,-4,-1,-1,2021-08-07 12:15:17,990292
-2,-3,-3,6,2,-2,-1,0,2021-08-07 12:15:18,005331
-3,-3,-5,-6,-10,-7,-4,-4,2021-08-07 12:15:18,005331
2,2,2,4,7,5,1,0,2021-08-07 12:15:18,021330
-3,-3,1,8,3,-1,0,-1,2021-08-07 12:15:18,021330
1,0,-1,-3,-1,-1,-1,-2,2021-08-07 12:15:18,036292
0,2,0,-1,-3,-3,-2,1,2021-08-07 12:15:18,052293
1,0,1,-1,0,-2,-2,-1,2021-08-07 12:15:18,084293
-1,-3,-4,-5,-2,-2,-3,-1,2021-08-07 12:15:18,084293
-1,-5,-4,-5,-2,-2,-2,0,2021-08-07 12:15:18,084293
-1,-2,-2,3,4,4,1,0,2021-08-07 12:15:18,084293
-2,-4,0,-2,-3,-3,-2,-2,2021-08-07 12:15:18,100329
-4,-2,1,-1,-4,-1,-3,-2,2021-08-07 12:15:18,100329
-7,-5,-3,-8,-11,-6,-6,-6,2021-08-07 12:15:18,100329
0,2,4,5,12,6,2,0,2021-08-07 12:15:18,100329
1,1,2,4,2,0,-2,1,2021-08-07 12:15:18,100329
1,2,1,0,-2,-1,0,1,2021-08-07 12:15:18,101292
1,0,-1,-8,-9,-4,-2,3,2021-08-07 12:15:18,101292
1,0,0,1,3,1,1,2,2021-08-07 12:15:18,101292
1,-2,2,7,7,2,2,1,2021-08-07 12:15:18,101292
-1,0,-5,-5,-9,-6,-1,0,2021-08-07 12:15:18,101292
-2,-1,1,2,7,3,2,0,2021-08-07 12:15:18,116318
2,2,5,6,9,5,3,2,2021-08-07 12:15:18,116318
-3,-6,-7,-9,-8,-5,-2,-4,2021-08-07 12:15:18,116318
-1,-3,-2,-3,-1,-1,-2,-3,2021-08-07 12:15:18,116318
-1,-1,-5,-6,-5,-2,-2,-2,2021-08-07 12:15:18,131293
-1,-1,0,3,-3,-3,0,-1,2021-08-07 12:15:18,147292
0,3,1,4,5,2,1,-1,2021-08-07 12:15:18,147292
-1,-2,-4,-7,-4,-2,-2,-3,2021-08-07 12:15:18,147292
0,0,2,5,3,3,0,0,2021-08-07 12:15:18,147292
-2,-2,0,2,3,0,1,-2,2021-08-07 12:15:18,147292
-1,-1,-3,-4,-7,-4,-2,0,2021-08-07 12:15:18,148291
-1,1,-1,-1,-5,-2,-1,0,2021-08-07 12:15:18,148291
0,-3,-3,-2,-2,-2,-4,-2,2021-08-07 12:15:18,179292
-2,-1,0,-1,-2,-2,-1,0,2021-08-07 12:15:18,179292
-1,0,-1,-2,-2,-3,-1,-1,2021-08-07 12:15:18,179292
-1,-2,1,0,0,-1,1,-1,2021-08-07 12:15:18,179292
0,0,-1,1,1,0,-1,0,2021-08-07 12:15:18,179292
0,0,-1,-2,1,0,0,0,2021-08-07 12:15:18,179292
0,0,-2,-5,-5,-2,-2,-2,2021-08-07 12:15:18,195290
-1,0,-2,-3,-2,-3,-1,-1,2021-08-07 12:15:18,195290
-2,-2,2,9,5,1,1,0,2021-08-07 12:15:18,211293
0,0,-2,-3,-2,-1,-1,0,2021-08-07 12:15:18,211293
-1,-1,-1,1,3,0,0,0,2021-08-07 12:15:18,211293
2,0,0,1,2,2,1,1,2021-08-07 12:15:18,211293
-2,-1,-2,-5,-4,-3,1,-1,2021-08-07 12:15:18,243340
-2,-3,-1,-1,-2,-1,-3,-2,2021-08-07 12:15:18,243340
-3,-3,-4,-4,-6,-5,-3,-2,2021-08-07 12:15:18,243340
0,0,-2,-2,-4,-3,-1,1,2021-08-07 12:15:18,243340
1,3,3,5,8,5,3,1,2021-08-07 12:15:18,243340
-1,-3,-5,-2,-3,-1,-1,-2,2021-08-07 12:15:18,243340
0,-2,-1,-3,-5,-2,-2,-2,2021-08-07 12:15:18,259331
3,3,-1,-5,-3,0,1,1,2021-08-07 12:15:18,259331
3,2,5,9,8,5,1,1,2021-08-07 12:15:18,275293
0,2,2,3,1,-1,1,1,2021-08-07 12:15:18,291332
-4,-5,-2,1,-1,-2,-1,-2,2021-08-07 12:15:18,291332
-7,-6,-5,-5,-6,-4,-5,-4,2021-08-07 12:15:18,291332
-1,0,-3,-6,-6,-4,-3,0,2021-08-07 12:15:18,291332
0,1,-1,-1,-1,1,0,0,2021-08-07 12:15:18,291332
-1,0,0,0,-1,-1,0,-1,2021-08-07 12:15:18,291332
-2,-3,-2,2,-3,-2,-2,-1,2021-08-07 12:15:18,291332
-2,0,-1,-4,1,0,0,-3,2021-08-07 12:15:18,307289
2,1,1,2,4,2,1,0,2021-08-07 12:15:18,323293
1,2,1,0,1,0,0,2,2021-08-07 12:15:18,323293
-5,-5,-5,-6,-4,-1,-2,-4,2021-08-07 12:15:18,323293
-1,-1,-2,-7,-7,-5,-3,-1,2021-08-07 12:15:18,323293
-4,-6,-4,-4,4,0,-3,-3,2021-08-07 12:15:18,323293
5,7,8,8,9,5,5,4,2021-08-07 12:15:18,339327
-1,-1,2,6,7,2,0,1,2021-08-07 12:15:18,339327
-3,-5,-6,-4,-7,-5,-2,-2,2021-08-07 12:15:18,355319
-3,-1,-1,-1,-2,0,-3,-1,2021-08-07 12:15:18,371325
-1,-2,-2,1,-3,0,0,-1,2021-08-07 12:15:18,371325
-3,-4,-2,-2,1,-2,-1,-3,2021-08-07 12:15:18,371325
0,0,2,7,3,2,-1,2,2021-08-07 12:15:18,371325
-2,-1,-2,-3,-6,-2,-1,-3,2021-08-07 12:15:18,371325
-3,-4,-3,-4,-3,-4,-3,-2,2021-08-07 12:15:18,372292
-1,-2,-4,-5,-7,-5,-3,-2,2021-08-07 12:15:18,372292
-3,-1,-3,-11,-7,-4,-3,-3,2021-08-07 12:15:18,387292
2,5,5,10,9,3,3,2,2021-08-07 12:15:18,387292
-3,-4,-3,1,3,0,-2,-3,2021-08-07 12:15:18,387292
9,12,11,9,7,6,5,6,2021-08-07 12:15:18,388291
-2,-4,-5,-5,-4,-3,-2,-2,2021-08-07 12:15:18,419333
-6,-8,-5,-7,-8,-5,-4,-3,2021-08-07 12:15:18,419333
3,5,2,-5,-6,-2,1,3,2021-08-07 12:15:18,419333
-6,-9,-3,-1,0,-3,-5,-3,2021-08-07 12:15:18,419333
1,0,0,3,3,2,1,0,2021-08-07 12:15:18,435290
-1,-1,-4,-9,-10,-3,-3,-2,2021-08-07 12:15:18,435290
-4,-4,1,7,4,3,-1,0,2021-08-07 12:15:18,435290
-2,0,1,4,0,-1,0,-1,2021-08-07 12:15:18,435290
-1,0,1,3,7,3,3,1,2021-08-07 12:15:18,451292
0,1,1,5,2,1,0,0,2021-08-07 12:15:18,467330
-2,-1,-6,-11,-12,-5,-3,-3,2021-08-07 12:15:18,483293
0,0,-1,-1,2,0,0,-2,2021-08-07 12:15:18,483293
-7,-8,-9,-6,-11,-6,-7,-5,2021-08-07 12:15:18,483293
5,7,3,0,-3,-4,1,5,2021-08-07 12:15:18,483293
1,3,2,2,11,7,3,-1,2021-08-07 12:15:18,483293
-1,-1,0,3,0,0,-2,-3,2021-08-07 12:15:18,483293
-2,-5,-2,-1,-2,-2,-3,-4,2021-08-07 12:15:18,483293
1,1,0,-4,-5,-3,-1,-2,2021-08-07 12:15:18,484296
2,1,-2,0,-2,0,-1,0,2021-08-07 12:15:18,499341
-1,-2,-4,-7,-2,-1,-1,-2,2021-08-07 12:15:18,515290
-2,-1,-1,-1,2,0,-1,-1,2021-08-07 12:15:18,515290
-3,-3,-1,7,8,4,0,0,2021-08-07 12:15:18,515290
-3,-1,1,4,-2,-1,-1,-2,2021-08-07 12:15:18,515290
-2,-2,-5,-5,-4,-2,-3,0,2021-08-07 12:15:18,515290
-1,-1,-5,-9,-11,-7,-4,0,2021-08-07 12:15:18,531290
0,-1,-2,-1,0,-1,-1,0,2021-08-07 12:15:18,531290
1,1,0,4,11,5,2,2,2021-08-07 12:15:18,531290
-4,-3,-3,0,1,-1,0,-3,2021-08-07 12:15:18,531290
-2,0,0,-3,-7,-2,0,0,2021-08-07 12:15:18,547290
3,6,4,0,-3,-2,2,2,2021-08-07 12:15:18,547290
-2,-3,-1,1,0,-1,-3,-1,2021-08-07 12:15:18,562289
-1,-1,1,4,6,2,-1,-2,2021-08-07 12:15:18,578295
0,0,3,8,5,2,1,0,2021-08-07 12:15:18,578295
0,-3,-5,-6,-2,-1,-1,-1,2021-08-07 12:15:18,578295
-1,-3,-5,-6,-11,-5,-3,-2,2021-08-07 12:15:18,578295
3,6,4,2,0,1,1,1,2021-08-07 12:15:18,578295
-5,-4,-4,-5,-4,-4,-2,-4,2021-08-07 12:15:18,594292
-4,-4,0,0,0,-1,-1,-4,2021-08-07 12:15:18,610328
3,3,2,5,4,3,2,2,2021-08-07 12:15:18,610328
-3,-3,-3,-2,-3,-2,-2,-1,2021-08-07 12:15:18,610328
1,3,1,-2,5,4,2,2,2021-08-07 12:15:18,610328
-2,-3,-2,0,-1,-1,-1,-1,2021-08-07 12:15:18,610328
-4,-5,-3,-5,-6,-4,-3,-4,2021-08-07 12:15:18,610328
-1,-1,-5,-12,-10,-7,-4,-3,2021-08-07 12:15:18,610328
5,6,7,14,13,6,3,4,2021-08-07 12:15:18,641292
0,-2,-3,6,6,3,0,-1,2021-08-07 12:15:18,657330
-3,-4,-7,-11,-12,-7,-3,-3,2021-08-07 12:15:18,689292
-1,-5,-3,-3,2,1,1,-2,2021-08-07 12:15:18,689292
-1,0,0,-4,-3,-1,-1,1,2021-08-07 12:15:18,689292
-2,-3,-1,-1,-1,-2,-3,-2,2021-08-07 12:15:18,689292
0,-1,0,5,3,2,-1,-1,2021-08-07 12:15:18,689292
2,3,1,-2,-4,-1,1,1,2021-08-07 12:15:18,690296
0,-1,-2,-8,-6,-3,-1,0,2021-08-07 12:15:18,690296
1,-2,2,7,3,0,0,0,2021-08-07 12:15:18,690296
-2,-1,-5,-4,-3,-5,-3,-3,2021-08-07 12:15:18,690296
-2,-6,-3,-2,-4,-1,-1,-1,2021-08-07 12:15:18,690296
1,2,3,9,9,4,2,0,2021-08-07 12:15:18,690296
-2,0,-2,-5,-6,-3,-1,-2,2021-08-07 12:15:18,690296
-5,-4,-4,-10,-12,-7,-4,-3,2021-08-07 12:15:18,691292
-1,0,0,5,6,3,0,0,2021-08-07 12:15:18,691292
0,-1,0,2,-1,0,-2,-2,2021-08-07 12:15:18,720330
-2,-4,-6,-6,-5,-3,-3,0,2021-08-07 12:15:18,752293
3,6,5,3,2,0,1,1,2021-08-07 12:15:18,752293
-4,-4,-4,-7,-9,-5,-4,-2,2021-08-07 12:15:18,752293
-1,-1,-1,1,2,-1,0,-2,2021-08-07 12:15:18,752293
-2,-2,0,1,1,2,1,-1,2021-08-07 12:15:18,752293
-1,-1,-2,-5,-4,0,0,0,2021-08-07 12:15:18,752293
-2,-2,0,4,4,1,-3,0,2021-08-07 12:15:18,753292
-1,1,0,-2,-6,-4,0,-2,2021-08-07 12:15:18,753292
2,1,-3,-5,-2,0,2,1,2021-08-07 12:15:18,753292
-2,-3,-1,5,7,3,0,-2,2021-08-07 12:15:18,753292
-1,0,-3,-4,-5,-3,-2,-3,2021-08-07 12:15:18,753292
-1,-1,-4,-5,0,0,-2,-2,2021-08-07 12:15:18,783331
-1,0,2,1,0,0,-3,-1,2021-08-07 12:15:18,783331
-2,-2,-4,-12,-9,-3,-2,0,2021-08-07 12:15:18,783331
1,1,5,20,21,7,3,0,2021-08-07 12:15:18,783331
0,0,-3,-4,-7,-3,-2,-1,2021-08-07 12:15:18,798290
-4,-3,-3,-4,0,-2,-2,-2,2021-08-07 12:15:18,814292
-1,-2,0,-2,-3,-3,-3,-2,2021-08-07 12:15:18,830292
2,3,2,-5,-10,-5,-2,-1,2021-08-07 12:15:18,830292
-1,0,-1,-3,-6,-4,-2,-2,2021-08-07 12:15:18,830292
3,1,0,0,1,-2,0,0,2021-08-07 12:15:18,830292
1,0,-1,-1,3,2,0,1,2021-08-07 12:15:18,830292
1,-1,-1,2,3,5,3,2,2021-08-07 12:15:18,830292
-2,-5,-4,0,-2,1,-1,-1,2021-08-07 12:15:18,830292
-1,1,4,2,-4,-1,-1,0,2021-08-07 12:15:18,830292
-2,-1,1,3,4,2,-1,-3,2021-08-07 12:15:18,831295
-1,1,0,-5,-1,-2,-4,-3,2021-08-07 12:15:18,831295
1,3,3,4,-3,0,-3,-1,2021-08-07 12:15:18,854331
-3,-4,-4,-7,-6,-3,-3,-2,2021-08-07 12:15:18,854331
6,6,5,6,3,1,3,4,2021-08-07 12:15:18,854331
2,1,4,10,12,6,4,3,2021-08-07 12:15:18,854331
1,-2,-1,4,5,0,0,-1,2021-08-07 12:15:18,878329
-2,-3,-5,-8,-12,-7,-3,-3,2021-08-07 12:15:18,894291
-4,-5,-11,-22,-13,-7,-3,-3,2021-08-07 12:15:18,909642
4,4,8,22,19,9,5,2,2021-08-07 12:15:18,909642
-2,0,1,2,1,0,-1,-2,2021-08-07 12:15:18,909642
-1,-1,0,4,4,1,0,-1,2021-08-07 12:15:18,909642
-4,-6,-7,-14,-18,-11,-5,-3,2021-08-07 12:15:18,909642
-2,-3,-5,-12,-13,-5,-3,-3,2021-08-07 12:15:18,910642
-2,-2,-4,-1,6,1,0,0,2021-08-07 12:15:18,910642
5,6,7,13,20,13,5,5,2021-08-07 12:15:18,910642
0,3,5,11,6,3,0,-1,2021-08-07 12:15:18,910642
-4,-3,-7,-10,-10,-6,-4,-2,2021-08-07 12:15:18,910642
-3,-4,-3,-6,-10,-4,-2,-3,2021-08-07 12:15:18,941640
-5,-7,-7,-13,-13,-9,-5,-3,2021-08-07 12:15:18,941640
5,5,2,3,3,3,2,3,2021-08-07 12:15:18,941640
-1,-1,1,3,6,2,0,-1,2021-08-07 12:15:18,941640
1,1,0,-6,-6,-3,2,1,2021-08-07 12:15:18,957643
1,-2,-1,1,1,1,2,-1,2021-08-07 12:15:18,957643
-6,-6,-4,-6,-6,-4,-3,-2,2021-08-07 12:15:18,957643
1,2,1,7,9,6,2,1,2021-08-07 12:15:18,957643
0,0,0,3,4,1,0,2,2021-08-07 12:15:18,973671
-2,-1,-4,-11,-15,-6,-2,-2,2021-08-07 12:15:18,989642
-1,-4,-1,9,9,1,0,-1,2021-08-07 12:15:19,004640
2,4,4,0,-3,-1,-1,1,2021-08-07 12:15:19,004640
-1,-3,-2,-4,0,0,-2,-2,2021-08-07 12:15:19,004640
-3,-2,-4,-4,-7,-5,-3,-2,2021-08-07 12:15:19,004640
-4,-4,-8,-9,-10,-5,-4,-3,2021-08-07 12:15:19,004640
-3,0,0,-4,-4,-2,-1,0,2021-08-07 12:15:19,004640
5,9,5,4,7,5,5,4,2021-08-07 12:15:19,020682
-1,0,0,7,1,0,1,-1,2021-08-07 12:15:19,020682
-1,-2,0,-1,-5,-2,1,0,2021-08-07 12:15:19,020682
-4,-6,-6,-2,1,-1,-2,-3,2021-08-07 12:15:19,020682
-4,-6,-8,-18,-20,-9,-7,-5,2021-08-07 12:15:19,036640
1,1,1,6,7,4,3,1,2021-08-07 12:15:19,052641
3,5,4,3,11,4,2,2,2021-08-07 12:15:19,068642
-1,-2,-1,1,-4,-2,-1,-3,2021-08-07 12:15:19,068642
-2,-1,-1,2,-1,-1,-2,0,2021-08-07 12:15:19,068642
-2,0,3,2,2,1,0,-1,2021-08-07 12:15:19,068642
-5,-7,-5,-7,-8,-5,-5,-4,2021-08-07 12:15:19,068642
0,-1,-4,-11,-12,-7,-3,-1,2021-08-07 12:15:19,069642
-2,0,0,0,2,-1,0,0,2021-08-07 12:15:19,069642
-1,-1,1,5,8,3,-1,-1,2021-08-07 12:15:19,069642
0,0,0,-4,-4,-2,-1,-2,2021-08-07 12:15:19,083666
-4,-3,-4,-2,-6,-3,-1,-1,2021-08-07 12:15:19,083666
4,5,6,13,12,8,4,3,2021-08-07 12:15:19,099669
-1,0,1,2,0,-2,-1,-2,2021-08-07 12:15:19,099669
-2,-1,-3,2,2,0,-2,0,2021-08-07 12:15:19,099669
-1,-3,-4,-8,-6,-5,-2,-2,2021-08-07 12:15:19,099669
-3,-3,-1,1,2,0,0,-1,2021-08-07 12:15:19,115640
-1,-4,-2,-7,-5,-3,-2,-1,2021-08-07 12:15:19,130644
1,1,2,2,-5,-2,0,0,2021-08-07 12:15:19,130644
-5,-6,-10,-14,-15,-10,-5,-3,2021-08-07 12:15:19,130644
2,2,8,18,22,10,4,2,2021-08-07 12:15:19,130644
3,1,-1,-2,8,3,1,1,2021-08-07 12:15:19,130644
-3,-3,-5,-3,-1,0,-2,-2,2021-08-07 12:15:19,130644
3,5,3,-1,-3,1,0,2,2021-08-07 12:15:19,131642
-5,-6,-10,-14,-20,-13,-7,-3,2021-08-07 12:15:19,162641
4,3,0,4,11,8,3,2,2021-08-07 12:15:19,162641
1,0,4,9,7,3,1,-1,2021-08-07 12:15:19,162641
-2,-3,-3,-1,-2,-2,-1,-2,2021-08-07 12:15:19,162641
-2,-4,-3,-5,-8,-4,-3,-3,2021-08-07 12:15:19,162641
-3,-4,-7,-16,-17,-11,-5,-2,2021-08-07 12:15:19,162641
2,2,3,6,11,6,3,2,2021-08-07 12:15:19,178643
0,-1,0,2,3,1,1,-1,2021-08-07 12:15:19,194644
-2,-1,0,-1,1,0,0,-1,2021-08-07 12:15:19,194644
-2,-1,0,3,-2,-2,-1,-2,2021-08-07 12:15:19,194644
-1,-2,-5,-11,-12,-6,-3,-2,2021-08-07 12:15:19,194644
-4,-5,-4,-3,-1,-3,-3,-2,2021-08-07 12:15:19,194644
4,7,5,-2,2,2,1,3,2021-08-07 12:15:19,226680
5,7,10,18,22,11,6,4,2021-08-07 12:15:19,242640
-1,-1,-1,1,-1,-2,-2,-2,2021-08-07 12:15:19,242640
-1,-3,-2,-7,-6,-3,-1,-3,2021-08-07 12:15:19,242640
-5,-8,-10,-20,-18,-11,-5,-4,2021-08-07 12:15:19,242640
1,3,5,9,7,5,3,3,2021-08-07 12:15:19,242640
1,2,2,3,4,2,1,-1,2021-08-07 12:15:19,243645
2,1,1,1,3,3,1,2,2021-08-07 12:15:19,243645
-2,-2,-3,-2,-3,-2,-3,-3,2021-08-07 12:15:19,258643
-4,-5,-6,-9,-16,-9,-5,-4,2021-08-07 12:15:19,258643
0,1,3,6,11,5,2,0,2021-08-07 12:15:19,274642
-1,0,1,5,1,-1,-2,-2,2021-08-07 12:15:19,274642
1,6,0,5,2,2,2,0,2021-08-07 12:15:19,274642
-3,-7,-7,-8,-7,-4,-1,-3,2021-08-07 12:15:19,274642
0,-5,-1,-4,-1,-1,0,0,2021-08-07 12:15:19,274642
-2,0,0,-3,-13,-7,-4,0,2021-08-07 12:15:19,275642
-4,-3,1,6,12,5,0,-1,2021-08-07 12:15:19,290642
3,4,7,19,28,14,4,2,2021-08-07 12:15:19,290642
0,1,0,3,3,1,-1,-2,2021-08-07 12:15:19,290642
4,3,0,0,3,3,1,1,2021-08-07 12:15:19,290642
0,1,-1,-5,-9,-5,-1,-1,2021-08-07 12:15:19,319644
-6,-6,-9,-15,-17,-10,-5,-5,2021-08-07 12:15:19,319644
-3,0,-2,-4,-1,0,-1,-2,2021-08-07 12:15:19,320643
-4,-4,-2,5,4,0,-1,-3,2021-08-07 12:15:19,320643
-2,-4,-6,-6,-10,-5,-3,-1,2021-08-07 12:15:19,338643
3,4,4,5,9,7,2,1,2021-08-07 12:15:19,338643
0,0,-2,2,-1,-1,-1,-2,2021-08-07 12:15:19,354642
-3,-4,-3,-3,1,-1,-3,-2,2021-08-07 12:15:19,370642
-2,-1,0,1,2,1,0,-1,2021-08-07 12:15:19,386646
-3,-2,-4,-7,-9,-4,-4,-3,2021-08-07 12:15:19,402643
-2,-1,-5,-13,-16,-10,-4,-2,2021-08-07 12:15:19,418643
0,0,0,1,2,1,2,0,2021-08-07 12:15:19,418643
0,-4,1,7,9,4,0,1,2021-08-07 12:15:19,418643
0,-1,2,7,6,3,1,1,2021-08-07 12:15:19,418643
2,0,2,4,-1,-1,0,0,2021-08-07 12:15:19,418643
-2,0,1,1,9,3,1,-1,2021-08-07 12:15:19,419644
-1,-2,-4,-6,-9,-5,-3,-1,2021-08-07 12:15:19,419644
-1,1,-2,-13,-16,-8,-3,0,2021-08-07 12:15:19,419644
-1,-2,3,8,8,4,0,0,2021-08-07 12:15:19,419644
-1,-2,-2,0,1,-1,0,-1,2021-08-07 12:15:19,419644
2,0,3,2,2,1,3,1,2021-08-07 12:15:19,419644
-4,-5,-4,-9,-12,-8,-6,-3,2021-08-07 12:15:19,419644
2,1,1,-1,1,2,1,1,2021-08-07 12:15:19,419644
-3,-4,-5,-5,-4,-1,-2,-3,2021-08-07 12:15:19,419644
2,1,0,3,0,2,1,0,2021-08-07 12:15:19,434641
1,1,0,2,3,2,4,0,2021-08-07 12:15:19,434641
-2,-3,-2,1,-1,-1,-2,-2,2021-08-07 12:15:19,434641
3,3,6,12,6,4,1,1,2021-08-07 12:15:19,434641
-6,-7,-8,-10,-8,-4,-5,-5,2021-08-07 12:15:19,466667
4,5,5,-1,-3,-2,0,2,2021-08-07 12:15:19,466667
1,0,0,4,2,2,0,0,2021-08-07 12:15:19,466667
-5,-6,-7,-14,-10,-7,-4,-3,2021-08-07 12:15:19,466667
-1,1,5,14,14,4,2,-1,2021-08-07 12:15:19,466667
-1,-2,-2,1,3,-1,-1,0,2021-08-07 12:15:19,466667
-4,-7,-6,-8,-8,-5,-3,-2,2021-08-07 12:15:19,482644
1,0,-3,-9,-12,-7,-3,0,2021-08-07 12:15:19,482644
2,3,5,8,9,4,2,2,2021-08-07 12:15:19,498641
-3,-4,-2,0,1,0,0,-2,2021-08-07 12:15:19,513642
0,-1,-5,-11,-11,-6,-2,-3,2021-08-07 12:15:19,513642
1,5,6,-1,0,0,0,0,2021-08-07 12:15:19,513642
0,0,6,7,-2,-2,0,0,2021-08-07 12:15:19,513642
0,-2,-2,8,3,0,0,0,2021-08-07 12:15:19,513642
-3,-2,-9,2,4,4,1,-2,2021-08-07 12:15:19,513642
-1,-2,-9,-12,-6,-1,-2,-1,2021-08-07 12:15:19,514642
-1,4,13,1,-1,-1,-3,-2,2021-08-07 12:15:19,529684
0,-2,-3,-2,-2,-1,1,-1,2021-08-07 12:15:19,545644
-4,-9,-21,-15,-4,-5,-1,-2,2021-08-07 12:15:19,561642
-10,-9,-15,-21,-14,-9,-6,-7,2021-08-07 12:15:19,561642
1,2,1,-5,-5,-2,0,2,2021-08-07 12:15:19,561642
0,-2,6,3,-4,-2,-1,0,2021-08-07 12:15:19,561642
3,10,18,20,19,10,5,2,2021-08-07 12:15:19,561642
1,-2,4,12,3,3,2,1,2021-08-07 12:15:19,562643
0,-1,0,-1,10,4,-1,-1,2021-08-07 12:15:19,577641
0,4,3,7,7,3,2,2,2021-08-07 12:15:19,593684
1,3,2,-4,-15,-8,-3,0,2021-08-07 12:15:19,593684
-3,-3,-3,-1,-1,-3,-4,-2,2021-08-07 12:15:19,593684
-1,0,2,8,6,3,1,0,2021-08-07 12:15:19,593684
-2,-5,-8,-8,-9,-6,-3,-4,2021-08-07 12:15:19,593684
1,1,5,0,6,2,0,0,2021-08-07 12:15:19,609641
0,-2,-2,-5,-7,-4,0,-2,2021-08-07 12:15:19,609641
-2,-6,-8,-1,-1,-2,-1,-1,2021-08-07 12:15:19,609641
3,6,-1,-7,-2,-1,0,1,2021-08-07 12:15:19,609641
-1,-2,1,3,3,1,-1,1,2021-08-07 12:15:19,609641
3,1,1,-4,-4,-2,0,0,2021-08-07 12:15:19,610643
0,-2,-10,-9,-6,-3,-1,0,2021-08-07 12:15:19,641681
-5,-9,-8,-10,-6,-4,-4,-4,2021-08-07 12:15:19,657642
-2,-4,-2,-2,-5,-3,0,1,2021-08-07 12:15:19,657642
2,4,10,21,25,11,5,2,2021-08-07 12:15:19,657642
-5,-4,-2,0,-1,0,-2,-6,2021-08-07 12:15:19,657642
-6,-2,1,-3,-2,-3,-3,-4,2021-08-07 12:15:19,657642
-6,-3,-8,-9,-17,-11,-7,-4,2021-08-07 12:15:19,673685
0,2,0,-3,-1,-1,-1,2,2021-08-07 12:15:19,673685
0,-3,-6,-10,-8,-5,-3,-1,2021-08-07 12:15:19,673685
4,3,4,3,5,3,2,3,2021-08-07 12:15:19,673685
-2,-5,0,0,3,-1,-1,-3,2021-08-07 12:15:19,673685
6,5,7,11,7,3,5,3,2021-08-07 12:15:19,673685
0,0,-6,-10,-7,-3,0,0,2021-08-07 12:15:19,704680
-3,-7,-10,-14,-9,-4,-4,-4,2021-08-07 12:15:19,720643
-6,-7,-7,-10,-6,-6,-4,-3,2021-08-07 12:15:19,736680
7,11,12,18,15,10,5,4,2021-08-07 12:15:19,736680
1,2,-2,-15,-14,-6,-2,-1,2021-08-07 12:15:19,736680
-1,1,4,15,11,5,0,0,2021-08-07 12:15:19,736680
1,2,11,24,23,9,4,1,2021-08-07 12:15:19,736680
-7,-9,-10,-16,-13,-10,-5,-6,2021-08-07 12:15:19,736680
3,6,4,0,5,4,2,3,2021-08-07 12:15:19,736680
2,3,3,2,-5,-4,0,-1,2021-08-07 12:15:19,737641
0,-1,0,1,-4,-2,0,-1,2021-08-07 12:15:19,737641
-3,-2,-7,-14,-11,-6,-3,-2,2021-08-07 12:15:19,737641
-2,-5,-5,-3,-4,-5,-1,-2,2021-08-07 12:15:19,752640
0,-1,5,22,21,10,3,0,2021-08-07 12:15:19,752640
-1,0,-8,-14,-4,-3,-1,-1,2021-08-07 12:15:19,752640
-1,-3,-2,-3,-7,-4,-3,0,2021-08-07 12:15:19,753648
-2,2,1,1,1,-1,-1,-1,2021-08-07 12:15:19,784641
-1,1,3,-3,-3,-2,-2,1,2021-08-07 12:15:19,786642
-2,-2,0,-4,-13,-8,-3,-2,2021-08-07 12:15:19,786642
-5,-8,-11,-16,-15,-7,-3,-1,2021-08-07 12:15:19,787641
7,5,8,30,36,17,7,4,2021-08-07 12:15:19,787641
1,0,-7,0,3,1,1,1,2021-08-07 12:15:19,787641
-3,-3,-3,-1,7,2,-1,-2,2021-08-07 12:15:19,787641
-3,-4,-1,-4,-9,-6,-4,-3,2021-08-07 12:15:19,787641
-3,-3,-1,-8,-18,-10,-5,-2,2021-08-07 12:15:19,816642
4,4,7,13,16,8,5,2,2021-08-07 12:15:19,816642
-1,1,-3,-2,-5,-3,-1,-1,2021-08-07 12:15:19,816642
-1,-1,-1,0,2,1,-3,-1,2021-08-07 12:15:19,816642
-5,-7,-6,-12,-13,-4,-3,-2,2021-08-07 12:15:19,847642
1,3,6,0,-2,-4,-2,-1,2021-08-07 12:15:19,863642
-1,-4,-10,-13,-1,0,0,0,2021-08-07 12:15:19,879641
5,4,9,19,13,8,5,4,2021-08-07 12:15:19,879641
-4,-3,-7,-8,-5,-3,-4,-3,2021-08-07 12:15:19,879641
-6,-7,-10,-20,-22,-13,-7,-4,2021-08-07 12:15:19,879641
-2,-2,0,-7,-10,-2,-1,0,2021-08-07 12:15:19,910641
3,5,9,25,31,14,7,3,2021-08-07 12:15:19,926641
1,5,5,11,11,7,3,1,2021-08-07 12:15:19,926641
-3,-9,-6,-6,-7,-4,0,-5,2021-08-07 12:15:19,926641
-4,-5,-9,-16,-23,-12,-5,-4,2021-08-07 12:15:19,926641
-3,-4,-5,2,4,0,-2,-2,2021-08-07 12:15:19,926641
1,-1,0,-9,-9,-6,-3,-1,2021-08-07 12:15:19,926641
1,3,8,10,9,3,0,0,2021-08-07 12:15:19,927642
0,3,4,6,0,0,-1,0,2021-08-07 12:15:19,927642
-6,-8,-7,-8,-3,-3,-4,-4,2021-08-07 12:15:19,927642
-2,-7,-8,-2,-4,-3,-4,-2,2021-08-07 12:15:19,927642
2,1,-3,-14,-7,-1,-2,1,2021-08-07 12:15:19,927642
5,8,10,16,15,8,5,4,2021-08-07 12:15:19,958641
-4,-4,-5,-13,-15,-9,-5,-5,2021-08-07 12:15:19,974641
1,4,9,15,8,5,3,2,2021-08-07 12:15:19,990641
-6,-8,-11,-16,-22,-13,-7,-4,2021-08-07 12:15:19,990641
-3,-1,2,10,18,9,1,-1,2021-08-07 12:15:20,006640
-4,-3,-7,-17,-19,-8,-5,-1,2021-08-07 12:15:20,006640
-1,-2,-2,12,14,5,0,-1,2021-08-07 12:15:20,006640
-3,-6,-8,-17,-10,-6,-3,-3,2021-08-07 12:15:20,006640
6,7,9,13,7,3,0,1,2021-08-07 12:15:20,006640
0,1,1,-7,-12,-7,-4,-2,2021-08-07 12:15:20,006640
-2,-4,-2,-5,-2,-1,0,0,2021-08-07 12:15:20,007642
-2,0,3,7,9,4,0,1,2021-08-07 12:15:20,007642
4,5,3,10,10,5,3,4,2021-08-07 12:15:20,007642
-3,-1,-3,-8,-7,-2,-3,-1,2021-08-07 12:15:20,007642
-4,-6,-3,-13,-14,-9,-4,-6,2021-08-07 12:15:20,007642
-4,-2,-3,3,4,-1,0,-2,2021-08-07 12:15:20,007642
1,-1,-2,-3,-6,-1,-1,-1,2021-08-07 12:15:20,022642
2,2,1,10,6,1,2,1,2021-08-07 12:15:20,022642
-1,-2,-8,-16,-8,-5,-2,-1,2021-08-07 12:15:20,022642
1,0,-7,-15,-12,-5,-3,-1,2021-08-07 12:15:20,022642
-4,-5,6,17,10,0,-2,-4,2021-08-07 12:15:20,038640
6,10,5,8,8,5,5,4,2021-08-07 12:15:20,038640
-2,-2,2,4,4,1,0,-1,2021-08-07 12:15:20,038640
-2,-4,-2,-2,-4,-4,-2,-3,2021-08-07 12:15:20,038640
-8,-9,-15,-22,-23,-12,-8,-6,2021-08-07 12:15:20,038640
-1,-6,-12,-13,2,1,1,0,2021-08-07 12:15:20,038640
5,8,15,20,13,6,2,3,2021-08-07 12:15:20,054642
2,5,2,2,-1,3,2,2,2021-08-07 12:15:20,070642
-4,-4,-7,-10,-7,-4,-3,-2,2021-08-07 12:15:20,070642
-2,-2,6,9,0,-2,0,0,2021-08-07 12:15:20,070642
3,6,8,7,1,2,3,2,2021-08-07 12:15:20,086641
2,3,4,20,17,9,3,3,2021-08-07 12:15:20,102643
-8,-12,-19,-25,-15,-9,-7,-6,2021-08-07 12:15:20,118641
-5,-5,-9,-16,-10,-7,-5,-4,2021-08-07 12:15:20,118641
-3,-3,-9,-19,-13,-9,-3,-3,2021-08-07 12:15:20,118641
4,8,16,20,14,9,5,3,2021-08-07 12:15:20,118641
1,1,4,10,9,4,0,0,2021-08-07 12:15:20,118641
-1,-1,6,7,0,1,-1,-1,2021-08-07 12:15:20,118641
-2,-3,-3,-4,-5,-4,-2,-1,2021-08-07 12:15:20,133641
-2,-3,-7,-15,-13,-9,-4,-4,2021-08-07 12:15:20,133641
1,2,5,-2,-1,-2,-1,-1,2021-08-07 12:15:20,133641
0,-2,-1,2,1,-1,-1,-3,2021-08-07 12:15:20,133641
-4,-7,-7,-4,-9,-7,-5,-2,2021-08-07 12:15:20,133641
3,6,0,-2,-1,2,4,5,2021-08-07 12:15:20,133641
-1,-3,1,1,6,2,1,1,2021-08-07 12:15:20,133641
5,9,12,16,17,10,4,4,2021-08-07 12:15:20,133641
2,1,0,15,20,11,4,1,2021-08-07 12:15:20,164641
-6,-8,-12,-9,-6,-3,-2,-3,2021-08-07 12:15:20,180641
-6,-9,-12,-22,-22,-13,-8,-5,2021-08-07 12:15:20,180641
3,4,9,15,5,2,3,5,2021-08-07 12:15:20,180641
0,2,3,1,-2,0,0,1,2021-08-07 12:15:20,180641
-4,-5,-9,-9,-8,-6,-4,-2,2021-08-07 12:15:20,180641
2,2,2,5,4,3,2,2,2021-08-07 12:15:20,180641
-5,-5,-2,-5,3,0,-2,0,2021-08-07 12:15:20,180641
3,6,6,-1,-2,2,1,2,2021-08-07 12:15:20,196640
0,-2,2,12,8,2,-1,-1,2021-08-07 12:15:20,196640
-3,-5,-8,-13,-10,-5,-3,-2,2021-08-07 12:15:20,196640
-2,-4,-6,-3,-4,-3,-3,-2,2021-08-07 12:15:20,196640
0,2,0,-1,-4,-1,-1,-2,2021-08-07 12:15:20,212680
-3,-4,-2,-3,-3,-3,-2,-3,2021-08-07 12:15:20,212680
-3,-1,1,0,-3,-2,-2,-1,2021-08-07 12:15:20,228680
0,-2,-1,1,4,3,0,1,2021-08-07 12:15:20,228680
6,10,6,8,6,4,4,4,2021-08-07 12:15:20,244650
-1,-4,-3,-6,-8,-5,-5,-4,2021-08-07 12:15:20,244650
1,2,2,6,10,4,2,1,2021-08-07 12:15:20,244650
-7,-6,-10,-24,-27,-13,-6,-6,2021-08-07 12:15:20,244650
-2,-4,-1,16,23,7,0,-3,2021-08-07 12:15:20,260642
2,3,2,0,2,3,3,1,2021-08-07 12:15:20,276643
0,2,0,-2,-6,-3,-1,0,2021-08-07 12:15:20,276643
1,3,5,3,1,-2,-2,-2,2021-08-07 12:15:20,276643
-1,-4,-4,-9,-10,-4,-3,-2,2021-08-07 12:15:20,276643
-6,-7,-14,-14,-9,-5,-6,-3,2021-08-07 12:15:20,276643
-3,-5,-2,0,4,-1,-2,-2,2021-08-07 12:15:20,276643
-2,-4,-6,-9,-5,-4,-2,-2,2021-08-07 12:15:20,276643
-2,-1,5,4,4,2,0,0,2021-08-07 12:15:20,292681
-2,2,4,2,-5,-4,-2,-2,2021-08-07 12:15:20,292681
0,-1,-4,-3,-1,1,0,0,2021-08-07 12:15:20,292681
7,10,10,18,21,10,7,5,2021-08-07 12:15:20,292681
-2,-5,-7,-9,-7,-5,-3,-3,2021-08-07 12:15:20,324642
-7,-8,-6,-9,-8,-6,-4,-5,2021-08-07 12:15:20,324642
3,6,7,11,9,4,3,3,2021-08-07 12:15:20,324642
-3,-4,-12,-20,-14,-6,-4,-2,2021-08-07 12:15:20,324642
-1,-2,-8,-1,-1,1,-1,-1,2021-08-07 12:15:20,324642
3,4,1,0,5,1,-1,1,2021-08-07 12:15:20,324642
-2,-1,3,-1,-6,-4,-3,-1,2021-08-07 12:15:20,340680
-1,-2,4,7,3,2,0,-1,2021-08-07 12:15:20,340680
-2,1,4,1,-1,-1,0,0,2021-08-07 12:15:20,356641
0,-1,4,5,3,1,0,-1,2021-08-07 12:15:20,356641
3,3,4,2,1,2,1,0,2021-08-07 12:15:20,356641
-5,-8,-9,-8,-9,-5,-4,-5,2021-08-07 12:15:20,356641
4,4,-1,3,7,5,4,4,2021-08-07 12:15:20,388640
4,4,0,9,12,6,5,3,2021-08-07 12:15:20,404641
-5,-5,-9,-13,-8,-5,-4,-3,2021-08-07 12:15:20,420642
-2,0,5,6,1,-2,-1,-2,2021-08-07 12:15:20,420642
-3,-4,-5,-15,-18,-9,-6,-4,2021-08-07 12:15:20,420642
3,4,11,17,16,7,4,2,2021-08-07 12:15:20,436640
2,4,3,1,4,2,1,2,2021-08-07 12:15:20,468642
-1,0,0,6,8,5,2,0,2021-08-07 12:15:20,468642
-5,-6,-4,-11,-14,-8,-3,-3,2021-08-07 12:15:20,468642
-5,-8,-3,-2,-3,-2,-3,-3,2021-08-07 12:15:20,468642
8,9,4,5,3,5,5,5,2021-08-07 12:15:20,468642
5,6,5,7,3,1,3,2,2021-08-07 12:15:20,468642
-2,-2,-5,-1,4,1,-1,-1,2021-08-07 12:15:20,468642
-5,-8,-12,-17,-19,-10,-7,-5,2021-08-07 12:15:20,468642
0,-3,3,-5,-5,-1,-3,-2,2021-08-07 12:15:20,468642
1,1,1,6,6,1,0,0,2021-08-07 12:15:20,469642
3,4,2,7,5,4,2,0,2021-08-07 12:15:20,469642
-4,-9,-12,-11,-10,-6,-4,-3,2021-08-07 12:15:20,469642
-4,-3,-1,-3,-5,-6,-4,-3,2021-08-07 12:15:20,469642
0,3,3,1,0,0,1,2,2021-08-07 12:15:20,469642
1,0,1,-3,0,-3,-1,0,2021-08-07 12:15:20,498642
-3,-4,-5,-2,2,0,-2,-1,2021-08-07 12:15:20,513641
-5,-5,-2,4,0,-2,-1,-3,2021-08-07 12:15:20,513641
5,4,2,-3,-3,1,1,4,2021-08-07 12:15:20,513641
0,0,2,1,0,-1,0,1,2021-08-07 12:15:20,513641
4,8,11,9,6,4,3,2,2021-08-07 12:15:20,513641
-2,6,10,5,-1,-1,-3,-4,2021-08-07 12:15:20,514642
-6,2,8,3,2,-1,-3,-3,2021-08-07 12:15:20,514642
-7,-26,-34,-11,-1,-2,-1,-2,2021-08-07 12:15:20,514642
-5,-17,-29,-20,-9,-7,-4,-4,2021-08-07 12:15:20,514642
-1,2,6,-4,-4,-3,-3,-1,2021-08-07 12:15:20,514642
-1,-2,-12,-10,-7,-5,-4,-4,2021-08-07 12:15:20,514642
7,20,21,8,3,2,3,3,2021-08-07 12:15:20,544640
2,6,9,8,1,2,0,3,2021-08-07 12:15:20,544640
-2,-10,-17,-4,-1,-2,0,-1,2021-08-07 12:15:20,544640
-1,3,4,3,1,0,1,0,2021-08-07 12:15:20,544640
-2,-1,2,-1,-7,-3,-2,-3,2021-08-07 12:15:20,560641
3,5,7,8,12,8,4,1,2021-08-07 12:15:20,576641
2,1,0,3,7,3,1,2,2021-08-07 12:15:20,608641
-6,-8,-7,-7,-11,-7,-6,-4,2021-08-07 12:15:20,624642
-3,-9,-7,-10,-12,-6,-3,-3,2021-08-07 12:15:20,640640
3,12,9,3,7,2,4,4,2021-08-07 12:15:20,656641
1,2,-3,-4,-1,1,2,1,2021-08-07 12:15:20,672642
0,-6,-3,6,7,2,1,-2,2021-08-07 12:15:20,672642
-4,0,4,1,-6,-4,-5,-4,2021-08-07 12:15:20,672642
-1,-2,2,-9,-15,-8,-5,-2,2021-08-07 12:15:20,672642
1,-3,1,11,8,2,2,0,2021-08-07 12:15:20,672642
3,3,-1,-5,1,-1,1,4,2021-08-07 12:15:20,673641
-2,-3,-10,-14,-8,-5,-2,-1,2021-08-07 12:15:20,673641
-3,-9,-10,-9,-7,-3,-2,-3,2021-08-07 12:15:20,673641
-6,-8,-12,-7,-6,-4,-4,-6,2021-08-07 12:15:20,673641
-2,1,9,9,4,1,-1,-1,2021-08-07 12:15:20,673641
2,4,8,8,4,2,1,1,2021-08-07 12:15:20,673641
2,5,3,-2,0,-1,2,2,2021-08-07 12:15:20,673641
-5,-6,-2,3,0,-1,-2,-1,2021-08-07 12:15:20,674642
5,7,5,7,11,8,4,3,2021-08-07 12:15:20,674642
0,5,3,11,11,4,1,0,2021-08-07 12:15:20,674642
-7,-6,-8,-15,-16,-7,-7,-5,2021-08-07 12:15:20,674642
-2,0,2,-1,-5,-4,-1,-1,2021-08-07 12:15:20,674642
-3,-9,-12,-13,-12,-5,-6,-5,2021-08-07 12:15:20,674642
3,5,10,16,16,7,3,3,2021-08-07 12:15:20,675641
-2,0,3,6,3,1,0,-1,2021-08-07 12:15:20,675641
0,0,-12,-13,-5,-3,-2,-1,2021-08-07 12:15:20,675641
-4,-4,-9,-14,-10,-6,-4,-4,2021-08-07 12:15:20,675641
-6,-13,-9,-8,-5,-2,-5,-3,2021-08-07 12:15:20,703680
1,5,7,10,8,2,2,-1,2021-08-07 12:15:20,703680
5,7,18,23,16,11,6,4,2021-08-07 12:15:20,703680
3,0,-1,5,0,-1,2,-1,2021-08-07 12:15:20,703680
-5,-8,-14,-16,-13,-9,-5,-4,2021-08-07 12:15:20,707643
0,-4,-1,1,3,1,0,0,2021-08-07 12:15:20,707643
0,-1,-7,-10,-3,-3,-2,-1,2021-08-07 12:15:20,719681
0,0,3,1,-2,-2,-2,0,2021-08-07 12:15:20,719681
-2,1,2,-5,-6,-4,-4,-4,2021-08-07 12:15:20,735682
0,1,5,5,-3,-1,-2,0,2021-08-07 12:15:20,735682
-4,-4,-5,-5,-7,-5,-3,-3,2021-08-07 12:15:20,735682
2,3,5,14,15,9,4,3,2021-08-07 12:15:20,735682
2,4,2,-2,-3,1,0,1,2021-08-07 12:15:20,767642
-2,0,2,-7,-2,-3,-2,-1,2021-08-07 12:15:20,767642
-4,-7,-7,-3,-9,-5,-5,-4,2021-08-07 12:15:20,767642
-7,-10,-16,-13,-7,-6,-5,-4,2021-08-07 12:15:20,767642
-4,-5,-12,-9,-10,-8,-6,-4,2021-08-07 12:15:20,782671
-2,1,-3,-10,-2,-1,-1,-2,2021-08-07 12:15:20,798671
-1,-3,3,11,7,2,1,1,2021-08-07 12:15:20,798671
4,7,14,18,11,7,4,1,2021-08-07 12:15:20,798671
2,5,8,1,-4,-1,2,1,2021-08-07 12:15:20,798671
-5,-6,2,7,1,-2,-3,-2,2021-08-07 12:15:20,798671
10,7,-3,-5,5,5,5,5,2021-08-07 12:15:20,798671
0,-2,-4,-5,-2,-1,-1,0,2021-08-07 12:15:20,799642
0,0,2,1,6,0,-2,0,2021-08-07 12:15:20,829649
-3,-2,-2,-4,-14,-7,-3,-2,2021-08-07 12:15:20,861682
-4,-3,-4,-1,2,2,-1,-2,2021-08-07 12:15:20,861682
-2,-2,-2,2,7,2,0,-1,2021-08-07 12:15:20,861682
3,6,12,4,-1,1,2,0,2021-08-07 12:15:20,861682
-4,-10,-11,-4,0,-3,-3,-2,2021-08-07 12:15:20,861682
3,2,-7,-14,-10,-4,-1,2,2021-08-07 12:15:20,861682
-6,-6,-11,-28,-23,-13,-7,-5,2021-08-07 12:15:20,861682
0,-2,3,11,7,3,-1,1,2021-08-07 12:15:20,862642
1,4,5,8,6,3,2,3,2021-08-07 12:15:20,862642
-2,0,7,9,2,-1,-1,-3,2021-08-07 12:15:20,862642
-1,-4,-3,-1,-2,-2,-3,-1,2021-08-07 12:15:20,862642
0,-2,-10,-17,-13,-6,0,1,2021-08-07 12:15:20,892667
3,2,1,6,6,4,2,-1,2021-08-07 12:15:20,908642
-9,-6,-5,-8,-3,-4,-3,-6,2021-08-07 12:15:20,924641
8,9,5,4,-1,2,3,5,2021-08-07 12:15:20,924641
-3,-6,0,7,4,0,-2,-4,2021-08-07 12:15:20,924641
0,1,-2,-1,0,0,0,2,2021-08-07 12:15:20,924641
-1,0,0,-6,2,1,-1,-2,2021-08-07 12:15:20,924641
-2,1,8,11,3,1,-1,1,2021-08-07 12:15:20,925641
0,3,4,9,8,3,2,1,2021-08-07 12:15:20,925641
-2,-1,2,-5,-8,-5,-4,-2,2021-08-07 12:15:20,925641
-1,0,-4,-4,-1,-1,-1,-1,2021-08-07 12:15:20,925641
-4,-6,-9,-7,-5,-2,-2,-2,2021-08-07 12:15:20,925641
1,1,2,0,2,1,-1,-1,2021-08-07 12:15:20,940640
3,3,5,2,0,0,2,2,2021-08-07 12:15:20,940640
-2,-2,-1,-6,-11,-7,-2,-1,2021-08-07 12:15:20,956682
-1,-4,-5,-2,1,-1,-1,-2,2021-08-07 12:15:20,956682
2,4,1,5,10,7,5,2,2021-08-07 12:15:20,956682
-6,-9,-9,-7,-5,-3,-5,-6,2021-08-07 12:15:20,956682
2,1,8,11,4,1,-1,0,2021-08-07 12:15:20,957643
-2,-2,0,0,0,0,-2,-1,2021-08-07 12:15:20,957643
-6,-8,-10,-13,-7,-5,-4,-4,2021-08-07 12:15:20,987641
3,4,0,-2,-1,0,2,1,2021-08-07 12:15:21,003642
2,1,4,0,-4,0,2,0,2021-08-07 12:15:21,019640
-2,-1,-1,1,2,0,1,1,2021-08-07 12:15:21,019640
-2,-2,4,5,2,-2,-2,-2,2021-08-07 12:15:21,019640
2,2,-8,-6,0,1,0,1,2021-08-07 12:15:21,019640
0,1,1,-2,-6,-3,0,0,2021-08-07 12:15:21,035670
1,4,0,2,13,6,3,0,2021-08-07 12:15:21,051642
-4,-6,-6,-9,-8,-5,-5,-3,2021-08-07 12:15:21,051642
0,-2,2,9,6,2,2,0,2021-08-07 12:15:21,051642
0,0,2,-1,-4,-2,-2,-1,2021-08-07 12:15:21,051642
5,5,6,4,-4,1,1,0,2021-08-07 12:15:21,051642
-1,0,-4,-4,-3,-1,0,0,2021-08-07 12:15:21,066641
-4,-7,-11,-2,4,0,-2,-4,2021-08-07 12:15:21,082678
-6,-11,-11,-7,0,0,-2,-2,2021-08-07 12:15:21,082678
-3,-1,-8,-15,-8,-3,-2,-2,2021-08-07 12:15:21,098642
0,1,0,-3,-5,-2,-1,-1,2021-08-07 12:15:21,114641
1,4,8,2,-5,-3,-3,-1,2021-08-07 12:15:21,114641
2,1,1,7,2,2,1,2,2021-08-07 12:15:21,114641
-5,-5,-4,-16,-15,-9,-6,-5,2021-08-07 12:15:21,114641
6,10,18,31,28,13,6,5,2021-08-07 12:15:21,114641
-4,-3,-2,3,7,1,-1,0,2021-08-07 12:15:21,114641
-2,-5,-10,1,2,0,-1,-2,2021-08-07 12:15:21,115641
-1,-2,1,-3,-5,-1,-1,-1,2021-08-07 12:15:21,115641
-3,-3,-7,-12,-10,-5,-2,-4,2021-08-07 12:15:21,115641
0,2,5,1,0,0,0,-1,2021-08-07 12:15:21,115641
-1,3,6,4,0,-1,-2,-1,2021-08-07 12:15:21,115641
-8,-12,-10,-6,-8,-7,-6,-5,2021-08-07 12:15:21,130642
8,14,3,-4,-6,1,4,4,2021-08-07 12:15:21,130642
-2,-1,0,3,1,2,0,0,2021-08-07 12:15:21,130642
1,2,3,2,11,3,2,1,2021-08-07 12:15:21,130642
0,0,-3,8,8,3,1,1,2021-08-07 12:15:21,130642
-6,-9,-5,-10,-11,-7,-5,-4,2021-08-07 12:15:21,130642
-4,-10,-23,-38,-26,-14,-6,-4,2021-08-07 12:15:21,130642
2,5,4,11,14,6,2,1,2021-08-07 12:15:21,145640
5,6,12,18,16,5,3,3,2021-08-07 12:15:21,145640
-3,-2,2,3,-4,-3,-2,-3,2021-08-07 12:15:21,161642
-4,-3,4,-3,-8,-5,-3,-3,2021-08-07 12:15:21,169642
3,3,4,13,8,4,1,3,2021-08-07 12:15:21,169642
2,-1,-6,-7,-4,1,2,2,2021-08-07 12:15:21,170643
-5,-5,-1,-5,-2,-4,-5,-3,2021-08-07 12:15:21,192641
-4,-3,-2,-8,-8,-5,-5,-3,2021-08-07 12:15:21,208642
4,2,-1,-1,1,1,1,2,2021-08-07 12:15:21,240642
-5,-5,-2,-9,-17,-8,-5,-4,2021-08-07 12:15:21,240642
2,1,2,17,13,7,3,2,2021-08-07 12:15:21,240642
1,4,11,20,13,7,3,0,2021-08-07 12:15:21,240642
-1,-1,-4,-11,-3,-1,0,0,2021-08-07 12:15:21,240642
-2,-5,-17,-18,-17,-10,-4,-3,2021-08-07 12:15:21,240642
-4,-4,-10,-22,-9,-4,-4,-4,2021-08-07 12:15:21,240642
2,5,17,30,23,11,3,1,2021-08-07 12:15:21,240642
0,1,0,-3,-10,-3,-1,-1,2021-08-07 12:15:21,241642
-4,-7,-7,-10,-5,-5,-3,-3,2021-08-07 12:15:21,241642
-2,-4,-7,-12,-15,-8,-3,-1,2021-08-07 12:15:21,241642
2,4,3,4,5,3,1,2,2021-08-07 12:15:21,241642
-3,-7,-8,-5,0,-1,-1,-3,2021-08-07 12:15:21,241642
1,3,6,6,7,4,1,1,2021-08-07 12:15:21,241642
-1,-3,-5,6,5,2,0,2,2021-08-07 12:15:21,256641
1,2,0,-6,-4,-1,1,0,2021-08-07 12:15:21,256641
-5,-3,-2,-13,-15,-8,-6,-4,2021-08-07 12:15:21,272641
2,4,11,14,7,2,2,1,2021-08-07 12:15:21,287641
2,0,4,6,7,3,0,1,2021-08-07 12:15:21,303640
1,0,-8,4,2,1,0,-1,2021-08-07 12:15:21,319642
-5,-6,-9,-10,-2,-3,-2,-2,2021-08-07 12:15:21,319642
-1,0,1,3,-1,0,-1,-3,2021-08-07 12:15:21,319642
-3,-2,5,3,1,0,-2,-2,2021-08-07 12:15:21,319642
-2,-3,-4,-6,-6,-3,-1,-1,2021-08-07 12:15:21,319642
0,0,-3,-4,-9,-4,-1,0,2021-08-07 12:15:21,319642
4,4,5,2,2,1,1,1,2021-08-07 12:15:21,320642
-1,-1,-1,-5,1,0,-1,-1,2021-08-07 12:15:21,320642
-2,-4,-13,-16,-9,-6,-3,-2,2021-08-07 12:15:21,320642
1,-1,11,22,16,7,3,1,2021-08-07 12:15:21,335642
1,5,7,12,10,5,1,0,2021-08-07 12:15:21,335642
0,-5,-12,-14,-6,-4,-2,0,2021-08-07 12:15:21,335642
-3,-7,-9,-9,-9,-5,-2,-1,2021-08-07 12:15:21,335642
-1,0,-6,-13,-12,-5,-3,-1,2021-08-07 12:15:21,335642
-4,-3,-1,-1,-1,0,-1,-2,2021-08-07 12:15:21,335642
0,2,8,18,15,6,3,0,2021-08-07 12:15:21,367641
-6,-2,7,5,3,2,-3,-4,2021-08-07 12:15:21,367641
-3,0,5,9,2,-1,-1,0,2021-08-07 12:15:21,367641
-2,-4,-13,-14,-8,-6,-4,-4,2021-08-07 12:15:21,383640
-5,-7,-14,-23,-24,-14,-7,-5,2021-08-07 12:15:21,399641
6,6,8,7,9,5,4,6,2021-08-07 12:15:21,399641
3,0,3,7,14,6,1,2,2021-08-07 12:15:21,399641
0,-2,1,4,0,0,-2,-1,2021-08-07 12:15:21,399641
1,2,-1,11,5,4,2,1,2021-08-07 12:15:21,399641
-4,-6,-10,-14,-14,-7,-3,-5,2021-08-07 12:15:21,399641
-2,-3,-1,-22,-27,-12,-5,-3,2021-08-07 12:15:21,415641
1,2,5,25,32,14,6,2,2021-08-07 12:15:21,415641
-1,-1,2,8,3,2,-1,0,2021-08-07 12:15:21,415641
2,2,1,1,2,1,1,0,2021-08-07 12:15:21,415641
0,2,-7,-3,0,0,1,1,2021-08-07 12:15:21,415641
-1,0,-1,-11,-12,-5,-3,-2,2021-08-07 12:15:21,415641
0,0,2,-2,-2,2,1,-1,2021-08-07 12:15:21,446641
-3,-4,4,6,-2,-5,-2,-3,2021-08-07 12:15:21,446641
-2,-4,-2,-6,-7,-3,0,-3,2021-08-07 12:15:21,446641
-2,-3,-13,-17,-5,0,-3,1,2021-08-07 12:15:21,462641
-1,-1,-4,-5,-3,-2,-3,0,2021-08-07 12:15:21,478640
-1,-6,-8,-11,-10,-5,-5,-3,2021-08-07 12:15:21,478640
1,5,10,13,9,4,1,0,2021-08-07 12:15:21,478640
1,3,8,6,3,0,1,1,2021-08-07 12:15:21,478640
-3,-2,-3,-2,-2,0,-1,-2,2021-08-07 12:15:21,478640
-1,-2,-7,-7,2,-2,-2,-2,2021-08-07 12:15:21,478640
0,-1,-1,-5,-5,-1,1,1,2021-08-07 12:15:21,478640
2,3,5,15,11,4,2,3,2021-08-07 12:15:21,478640
-4,-5,-1,-13,-18,-12,-6,-5,2021-08-07 12:15:21,510641
7,9,11,18,15,9,5,5,2021-08-07 12:15:21,510641
-6,-9,-18,-5,1,0,-3,-3,2021-08-07 12:15:21,510641
-3,-2,1,-15,-7,-3,-2,-3,2021-08-07 12:15:21,510641
3,1,-4,2,-1,0,1,2,2021-08-07 12:15:21,510641
-3,0,0,-7,-6,-2,-3,0,2021-08-07 12:15:21,510641
1,1,11,14,6,1,0,-1,2021-08-07 12:15:21,525641
-2,-1,-3,-2,-6,-4,-1,-1,2021-08-07 12:15:21,541641
-7,-8,-8,-13,-5,-5,-3,-8,2021-08-07 12:15:21,557640
-5,-5,-4,-5,-8,-4,-4,-2,2021-08-07 12:15:21,557640
5,5,6,18,18,10,6,4,2021-08-07 12:15:21,557640
-3,-6,-11,-12,-10,-5,-3,-1,2021-08-07 12:15:21,557640
0,-1,-4,-8,-8,-4,-2,-1,2021-08-07 12:15:21,557640
-5,-8,-10,-17,-14,-8,-3,-3,2021-08-07 12:15:21,557640
3,8,17,27,19,9,3,2,2021-08-07 12:15:21,558641
3,5,8,4,-5,0,2,3,2021-08-07 12:15:21,558641
7,7,10,22,26,13,7,5,2021-08-07 12:15:21,587640
-3,-3,-4,-7,-9,-6,-5,-3,2021-08-07 12:15:21,603641
-6,-7,-8,-14,-12,-9,-6,-4,2021-08-07 12:15:21,603641
0,-2,-2,-5,-9,-3,-2,-1,2021-08-07 12:15:21,603641
-4,-2,-5,-3,-1,-1,-3,-2,2021-08-07 12:15:21,603641
2,4,8,26,28,14,6,3,2021-08-07 12:15:21,603641
1,2,-6,-12,-5,-3,-2,-1,2021-08-07 12:15:21,603641
-5,-9,-6,-7,-11,-8,-5,-7,2021-08-07 12:15:21,604643
7,11,3,-5,-4,1,4,5,2021-08-07 12:15:21,624642
2,4,15,22,12,6,2,1,2021-08-07 12:15:21,625641
-4,-7,-9,-7,-7,-3,-3,-3,2021-08-07 12:15:21,625641
-6,-8,-8,-6,-8,-5,-5,-5,2021-08-07 12:15:21,625641
