EMG 1,EMG 2,EMG 3,EMG 4,EMG 5,EMG 6,EMG 7,EMG 8,Timestamp,Milliseconds
-1,-2,-3,-3,-8,-10,-5,-1,2021-08-07 12:37:53,083833
0,-1,-3,-4,-4,0,0,-1,2021-08-07 12:37:53,098857
-2,-1,-1,0,-4,-5,-3,-3,2021-08-07 12:37:53,114832
1,2,4,6,8,9,6,1,2021-08-07 12:37:53,114832
3,2,4,6,10,8,5,1,2021-08-07 12:37:53,114832
-2,-4,-5,-7,-13,-9,-6,-4,2021-08-07 12:37:53,114832
-1,-2,-4,-5,-9,-5,-1,-1,2021-08-07 12:37:53,114832
-2,-3,-2,-7,-7,-1,-3,-2,2021-08-07 12:37:53,114832
4,6,6,14,24,16,8,3,2021-08-07 12:37:53,114832
-1,1,1,5,4,1,0,2,2021-08-07 12:37:53,114832
-3,-4,-3,-8,-9,-6,-4,-3,2021-08-07 12:37:53,114832
-5,-4,-6,-11,-13,-10,-7,-3,2021-08-07 12:37:53,114832
-1,-1,-2,-3,0,1,0,0,2021-08-07 12:37:53,114832
1,1,-1,0,3,1,0,2,2021-08-07 12:37:53,115867
-1,-1,1,6,10,5,0,-1,2021-08-07 12:37:53,115867
0,1,0,2,0,-4,-1,0,2021-08-07 12:37:53,115867
-4,-6,-6,-13,-14,-8,-5,-4,2021-08-07 12:37:53,115867
1,-2,0,0,-2,-3,-1,-1,2021-08-07 12:37:53,115867
0,0,-1,-3,-4,-4,-2,-1,2021-08-07 12:37:53,130856
1,-2,-1,1,7,5,3,-1,2021-08-07 12:37:53,146868
5,6,6,11,12,9,6,4,2021-08-07 12:37:53,146868
-2,-2,-3,1,1,3,0,-2,2021-08-07 12:37:53,146868
0,-2,-3,-9,-10,-6,-3,-2,2021-08-07 12:37:53,177833
1,2,2,7,12,10,5,3,2021-08-07 12:37:53,177833
1,0,0,0,-2,-2,-1,0,2021-08-07 12:37:53,177833
1,-2,1,5,10,8,2,1,2021-08-07 12:37:53,177833
-2,-2,-2,-3,-7,-8,-3,-2,2021-08-07 12:37:53,177833
-1,-3,-5,-9,-15,-7,-2,-2,2021-08-07 12:37:53,177833
4,3,4,9,23,16,7,4,2021-08-07 12:37:53,177833
-3,-3,-2,0,1,1,-2,-2,2021-08-07 12:37:53,178832
-3,-6,-3,-1,-5,-3,-5,-4,2021-08-07 12:37:53,178832
-4,-1,1,7,6,1,-1,-4,2021-08-07 12:37:53,178832
1,3,3,-2,-9,-5,-1,1,2021-08-07 12:37:53,209832
-1,-2,0,-2,-6,-4,-1,-2,2021-08-07 12:37:53,209832
0,-1,0,-2,0,-1,-2,0,2021-08-07 12:37:53,209832
0,0,-3,-5,-2,-2,0,-1,2021-08-07 12:37:53,209832
3,3,1,5,8,7,5,2,2021-08-07 12:37:53,209832
1,1,1,-1,-2,-3,-2,0,2021-08-07 12:37:53,209832
-2,-1,-3,-3,-7,-4,-3,-1,2021-08-07 12:37:53,225871
-4,-4,-2,-3,-8,-6,-4,-3,2021-08-07 12:37:53,241832
0,0,0,-1,4,4,1,3,2021-08-07 12:37:53,241832
1,3,2,1,3,2,1,3,2021-08-07 12:37:53,241832
-3,-3,-3,0,-1,-3,-2,-2,2021-08-07 12:37:53,241832
-2,-2,-5,-7,-12,-8,-3,-2,2021-08-07 12:37:53,241832
-4,-5,-4,-5,-9,-5,-4,-5,2021-08-07 12:37:53,257857
2,3,2,6,9,7,5,2,2021-08-07 12:37:53,257857
0,0,1,3,9,7,3,1,2021-08-07 12:37:53,257857
2,1,1,0,2,0,1,2,2021-08-07 12:37:53,257857
-3,-5,-3,-6,-11,-10,-6,-4,2021-08-07 12:37:53,288829
-2,-2,-4,-5,-8,-4,-4,-3,2021-08-07 12:37:53,288829
0,-1,-2,-2,1,0,1,1,2021-08-07 12:37:53,288829
-1,-1,2,-1,-2,-2,-1,0,2021-08-07 12:37:53,288829
-1,-2,-3,-4,-9,-5,-4,-1,2021-08-07 12:37:53,288829
-1,-3,-2,1,0,1,0,-3,2021-08-07 12:37:53,289832
2,4,3,0,3,0,1,1,2021-08-07 12:37:53,319867
1,2,2,6,6,5,1,1,2021-08-07 12:37:53,319867
-1,-2,-4,-3,-7,-6,-4,-2,2021-08-07 12:37:53,319867
-5,-6,-6,-11,-12,-9,-4,-2,2021-08-07 12:37:53,319867
-1,-2,0,0,3,2,0,-1,2021-08-07 12:37:53,319867
2,0,1,-1,0,1,2,2,2021-08-07 12:37:53,319867
-4,-2,-2,-4,-9,-8,-3,-3,2021-08-07 12:37:53,351833
-1,-1,0,1,7,5,0,-1,2021-08-07 12:37:53,367866
-1,2,4,8,9,6,2,1,2021-08-07 12:37:53,367866
-1,-1,0,0,2,2,0,-2,2021-08-07 12:37:53,367866
4,5,6,13,22,13,8,3,2021-08-07 12:37:53,367866
-4,-4,-7,-14,-20,-13,-7,-4,2021-08-07 12:37:53,367866
-1,2,1,-1,-1,-2,2,2,2021-08-07 12:37:53,368833
-2,-2,-2,2,6,1,-2,-1,2021-08-07 12:37:53,368833
-2,-2,0,-4,-9,-4,-3,-1,2021-08-07 12:37:53,383833
-1,-1,-1,0,-3,-2,-2,-1,2021-08-07 12:37:53,398832
-2,-2,-3,-4,-6,-3,-2,-2,2021-08-07 12:37:53,414867
2,2,2,3,0,-1,0,1,2021-08-07 12:37:53,414867
-1,-1,0,3,8,3,1,-2,2021-08-07 12:37:53,414867
3,3,2,6,13,7,2,1,2021-08-07 12:37:53,414867
-1,-2,-5,-4,-7,-4,-1,0,2021-08-07 12:37:53,414867
-4,-5,-5,-5,-5,-3,-3,-3,2021-08-07 12:37:53,414867
0,0,0,-6,-7,-2,-1,0,2021-08-07 12:37:53,429872
0,-3,0,1,-4,-4,-2,-2,2021-08-07 12:37:53,445872
2,3,3,10,20,13,7,2,2021-08-07 12:37:53,461872
0,-1,0,-4,4,0,0,-1,2021-08-07 12:37:53,461872
-5,-4,-6,-6,-5,-2,-2,-1,2021-08-07 12:37:53,461872
0,3,2,1,-4,-4,0,2,2021-08-07 12:37:53,461872
1,0,2,1,-4,-2,-1,-1,2021-08-07 12:37:53,461872
-1,-1,-1,-3,-7,-5,-3,-2,2021-08-07 12:37:53,461872
-2,-2,-3,0,1,-1,-3,-1,2021-08-07 12:37:53,462869
-1,0,2,1,3,3,2,-1,2021-08-07 12:37:53,462869
-4,-5,-8,-7,-2,-3,-3,-3,2021-08-07 12:37:53,462869
0,2,0,0,1,3,2,2,2021-08-07 12:37:53,462869
-1,-2,-1,-1,-6,-4,-2,-1,2021-08-07 12:37:53,477885
1,2,1,3,1,1,0,2,2021-08-07 12:37:53,493834
-1,-3,-1,-1,-5,-3,-2,-3,2021-08-07 12:37:53,524868
0,-3,-3,-3,-5,-3,-2,-2,2021-08-07 12:37:53,539832
0,0,2,1,7,3,2,0,2021-08-07 12:37:53,539832
1,1,2,4,5,4,1,1,2021-08-07 12:37:53,539832
0,0,0,0,2,0,2,0,2021-08-07 12:37:53,539832
-2,-3,-4,-9,-13,-11,-6,-2,2021-08-07 12:37:53,539832
0,1,1,-1,0,0,1,0,2021-08-07 12:37:53,539832
-2,-4,-5,-5,-6,-5,-5,-2,2021-08-07 12:37:53,539832
3,5,1,6,9,8,4,2,2021-08-07 12:37:53,539832
1,1,3,7,8,4,2,1,2021-08-07 12:37:53,539832
0,-1,1,-1,-2,0,0,0,2021-08-07 12:37:53,540874
-1,-2,-3,-1,-1,-2,0,-4,2021-08-07 12:37:53,555830
0,-1,-4,-10,-17,-10,-7,-2,2021-08-07 12:37:53,587880
-2,-2,-2,-1,0,-1,1,-3,2021-08-07 12:37:53,587880
1,0,1,4,3,1,0,1,2021-08-07 12:37:53,587880
-3,-2,0,3,4,1,1,-1,2021-08-07 12:37:53,587880
-1,-1,1,-1,-2,0,0,-1,2021-08-07 12:37:53,587880
1,3,1,-5,-2,1,-1,1,2021-08-07 12:37:53,587880
-2,-1,-4,-2,-3,-1,-2,-4,2021-08-07 12:37:53,587880
-2,-1,-1,-6,-5,-5,-2,1,2021-08-07 12:37:53,587880
-2,-3,-2,3,1,-2,-2,0,2021-08-07 12:37:53,587880
1,-1,-1,-1,-4,-2,0,0,2021-08-07 12:37:53,588843
0,1,2,2,1,-3,-2,1,2021-08-07 12:37:53,588843
-1,-3,-3,-5,-6,-2,-2,-3,2021-08-07 12:37:53,588843
2,0,-1,-2,-2,1,1,-1,2021-08-07 12:37:53,603868
-5,-6,-5,-6,-7,-4,-4,-2,2021-08-07 12:37:53,603868
0,2,2,1,2,1,2,1,2021-08-07 12:37:53,619879
-1,2,2,4,10,5,4,0,2021-08-07 12:37:53,619879
-3,-5,-2,-5,-7,-7,-3,-2,2021-08-07 12:37:53,619879
0,0,0,5,6,3,2,0,2021-08-07 12:37:53,619879
2,-1,2,6,13,9,6,0,2021-08-07 12:37:53,651870
-4,-2,-2,-5,-11,-8,-3,-1,2021-08-07 12:37:53,667875
-3,-2,-2,-8,-11,-9,-5,-4,2021-08-07 12:37:53,698868
2,4,4,7,9,9,5,3,2021-08-07 12:37:53,698868
-4,-4,-5,-5,-8,-5,-4,-3,2021-08-07 12:37:53,698868
1,2,1,0,2,3,0,0,2021-08-07 12:37:53,698868
-2,-2,-1,1,-3,-2,-2,0,2021-08-07 12:37:53,698868
-1,-2,-1,-1,0,1,1,-1,2021-08-07 12:37:53,698868
-2,-5,-3,-6,-4,-2,-3,-1,2021-08-07 12:37:53,714868
5,4,6,3,3,3,4,3,2021-08-07 12:37:53,730831
1,0,1,3,5,1,-1,0,2021-08-07 12:37:53,746868
-3,-2,-1,-3,-8,-7,-4,-3,2021-08-07 12:37:53,746868
0,-1,-2,0,-2,0,1,1,2021-08-07 12:37:53,746868
-3,-6,-4,-3,4,1,-2,-3,2021-08-07 12:37:53,746868
1,1,2,2,7,7,3,2,2021-08-07 12:37:53,746868
2,0,1,5,7,2,0,0,2021-08-07 12:37:53,746868
-2,0,-1,0,-3,-2,-1,-1,2021-08-07 12:37:53,747829
-1,-5,-6,-11,-17,-15,-8,-4,2021-08-07 12:37:53,747829
-2,-2,-3,-5,-4,-3,-3,-3,2021-08-07 12:37:53,747829
-1,-3,-2,-2,-2,1,1,0,2021-08-07 12:37:53,747829
0,1,-2,-1,2,3,0,0,2021-08-07 12:37:53,747829
2,4,4,7,8,6,2,2,2021-08-07 12:37:53,747829
0,0,3,3,4,2,1,0,2021-08-07 12:37:53,748857
-3,-3,-2,-3,-1,0,-1,0,2021-08-07 12:37:53,748857
-1,-3,-2,-2,-4,-5,-3,-2,2021-08-07 12:37:53,762857
-1,1,-3,-4,-5,-3,-2,0,2021-08-07 12:37:53,762857
1,1,-1,3,3,5,2,1,2021-08-07 12:37:53,762857
1,2,1,3,0,-2,-1,-1,2021-08-07 12:37:53,762857
-4,-4,-3,-7,-7,-5,-4,-3,2021-08-07 12:37:53,793867
1,1,0,-1,0,2,0,0,2021-08-07 12:37:53,808828
-4,-1,-2,0,0,0,-3,-1,2021-08-07 12:37:53,824871
2,4,2,9,18,15,6,3,2021-08-07 12:37:53,824871
-1,0,0,-1,1,1,-1,-1,2021-08-07 12:37:53,824871
-4,-6,-4,-7,-12,-10,-6,-4,2021-08-07 12:37:53,824871
-1,2,3,1,-4,-2,0,1,2021-08-07 12:37:53,824871
0,-2,0,0,1,1,1,0,2021-08-07 12:37:53,824871
-1,0,-1,-2,-8,-7,-3,-2,2021-08-07 12:37:53,824871
0,0,0,1,5,4,3,2,2021-08-07 12:37:53,824871
-3,-4,-3,-1,-4,-3,-1,-3,2021-08-07 12:37:53,824871
0,-2,-1,-3,-5,-4,-2,-1,2021-08-07 12:37:53,825868
-2,-4,-3,0,0,0,-1,-1,2021-08-07 12:37:53,856879
2,4,4,4,7,5,3,3,2021-08-07 12:37:53,856879
-1,1,0,1,2,1,0,0,2021-08-07 12:37:53,872860
-2,1,-1,-3,-8,-6,-4,-1,2021-08-07 12:37:53,872860
-1,-2,-2,-3,-4,-3,-2,-2,2021-08-07 12:37:53,872860
-1,-3,-2,3,4,2,-1,-1,2021-08-07 12:37:53,872860
-1,-1,0,-3,-2,-4,-2,-1,2021-08-07 12:37:53,872860
-2,-1,0,-2,2,0,0,-2,2021-08-07 12:37:53,872860
0,-1,-1,1,-1,0,1,1,2021-08-07 12:37:53,888832
-3,-2,-3,-4,-7,-5,-2,-3,2021-08-07 12:37:53,904876
-1,-2,-2,-1,0,-1,-1,0,2021-08-07 12:37:53,904876
0,-1,-1,1,2,1,1,0,2021-08-07 12:37:53,904876
0,1,-1,2,2,1,0,1,2021-08-07 12:37:53,904876
0,-3,-5,-2,-2,-2,-1,-3,2021-08-07 12:37:53,904876
0,1,0,-3,-2,-1,0,1,2021-08-07 12:37:53,904876
-3,0,1,2,2,0,1,0,2021-08-07 12:37:53,904876
0,-1,-1,-5,-9,-2,1,1,2021-08-07 12:37:53,920879
0,0,1,6,9,5,2,0,2021-08-07 12:37:53,920879
1,2,2,2,2,1,1,1,2021-08-07 12:37:53,920879
-1,1,1,1,-2,-2,0,-1,2021-08-07 12:37:53,920879
-3,-3,-2,-3,-5,-5,-4,-3,2021-08-07 12:37:53,952866
1,2,1,-3,-5,-3,0,2,2021-08-07 12:37:53,968870
0,1,1,0,-1,2,-1,0,2021-08-07 12:37:53,968870
1,-1,0,2,7,3,1,0,2021-08-07 12:37:53,968870
-3,-2,-2,-3,-1,-3,-3,-2,2021-08-07 12:37:53,968870
-4,-6,-6,-7,-9,-5,-5,-5,2021-08-07 12:37:53,968870
0,0,0,2,3,1,1,1,2021-08-07 12:37:53,969833
-1,1,-1,-6,-15,-9,-5,-1,2021-08-07 12:37:53,984831
-1,0,-1,1,3,3,1,-1,2021-08-07 12:37:53,984831
-1,3,2,5,9,5,2,1,2021-08-07 12:37:53,984831
-1,-2,-3,-3,-3,-2,-1,-1,2021-08-07 12:37:53,984831
-3,-3,-5,-7,-10,-8,-4,-3,2021-08-07 12:37:53,984831
3,1,4,7,10,5,2,2,2021-08-07 12:37:53,999833
-1,-1,-3,-4,-9,-5,-5,-2,2021-08-07 12:37:53,999833
-3,-2,-2,3,3,2,-1,-4,2021-08-07 12:37:54,015856
3,2,1,1,3,3,1,2,2021-08-07 12:37:54,015856
1,0,0,-3,-2,-3,0,-1,2021-08-07 12:37:54,031831
2,2,3,5,11,7,4,1,2021-08-07 12:37:54,047868
-1,-1,-3,-3,-4,-5,-1,-1,2021-08-07 12:37:54,049834
0,-2,-3,-5,-8,-4,-2,-1,2021-08-07 12:37:54,049834
-1,1,-2,-1,3,3,1,0,2021-08-07 12:37:54,050834
2,0,0,-1,-2,-1,1,3,2021-08-07 12:37:54,050834
-1,-2,-5,-7,-10,-5,-1,-2,2021-08-07 12:37:54,050834
0,-2,1,2,10,6,5,-1,2021-08-07 12:37:54,050834
0,1,-1,-2,0,0,-1,-1,2021-08-07 12:37:54,063838
-6,-4,-1,-2,-5,-4,-5,-6,2021-08-07 12:37:54,063838
-3,-2,-1,-4,-9,-8,-5,-2,2021-08-07 12:37:54,063838
0,4,3,1,7,7,3,2,2021-08-07 12:37:54,063838
2,3,2,9,12,5,2,3,2021-08-07 12:37:54,094828
-2,-3,-2,-3,-6,-3,-2,-2,2021-08-07 12:37:54,110873
1,-2,0,2,1,-1,-3,1,2021-08-07 12:37:54,110873
-4,-5,-4,-6,-7,-8,-5,-3,2021-08-07 12:37:54,110873
3,5,6,3,4,4,3,4,2021-08-07 12:37:54,110873
2,2,1,-1,-1,1,2,1,2021-08-07 12:37:54,110873
0,0,-2,-3,-3,-3,-1,-1,2021-08-07 12:37:54,110873
-2,-3,-3,1,-2,-2,-1,-2,2021-08-07 12:37:54,110873
-2,-1,1,1,2,1,0,0,2021-08-07 12:37:54,126868
-3,-3,-1,-3,3,1,0,-1,2021-08-07 12:37:54,142867
0,-2,-3,-3,-2,0,-2,0,2021-08-07 12:37:54,157872
-1,0,-1,-3,-1,-1,-1,0,2021-08-07 12:37:54,157872
-4,-3,-4,-6,-15,-10,-6,-3,2021-08-07 12:37:54,157872
-1,-2,-2,-4,-8,-1,-3,-1,2021-08-07 12:37:54,157872
3,4,6,17,31,21,11,4,2021-08-07 12:37:54,157872
-1,-1,-3,-4,-5,-3,-2,0,2021-08-07 12:37:54,157872
0,1,-1,1,-3,-3,0,-2,2021-08-07 12:37:54,173855
-2,-1,-2,1,3,1,0,1,2021-08-07 12:37:54,189868
-1,-3,-5,-8,-9,-5,-4,-3,2021-08-07 12:37:54,205868
1,1,1,-2,-3,-3,-1,0,2021-08-07 12:37:54,205868
-3,-1,-2,-5,-7,-4,-3,-2,2021-08-07 12:37:54,205868
-2,-2,-2,3,-1,-3,-1,-2,2021-08-07 12:37:54,205868
-1,1,0,5,3,0,2,0,2021-08-07 12:37:54,221830
0,0,-4,-2,1,2,1,-1,2021-08-07 12:37:54,236868
0,-1,0,-3,-1,-1,-1,-1,2021-08-07 12:37:54,236868
-2,-2,-2,-4,-3,-4,-2,-2,2021-08-07 12:37:54,236868
-1,1,1,1,-2,-1,0,0,2021-08-07 12:37:54,236868
-1,-1,-1,-1,-4,-3,-3,-1,2021-08-07 12:37:54,236868
-4,-2,-5,0,3,3,0,-1,2021-08-07 12:37:54,236868
1,-1,-1,-2,1,3,0,2,2021-08-07 12:37:54,237872
-1,-1,-2,-8,-13,-10,-4,0,2021-08-07 12:37:54,237872
1,3,2,-1,-2,0,0,1,2021-08-07 12:37:54,237872
0,-2,-1,1,1,-1,-1,-1,2021-08-07 12:37:54,252834
0,0,0,1,0,0,0,-1,2021-08-07 12:37:54,252834
-2,-4,-6,-5,-8,-5,-3,-2,2021-08-07 12:37:54,252834
-1,-2,1,2,-2,-1,-2,-1,2021-08-07 12:37:54,252834
0,0,0,-3,-3,0,0,1,2021-08-07 12:37:54,268871
-2,-2,-1,1,6,3,0,-2,2021-08-07 12:37:54,284832
1,1,0,-5,-4,-1,1,0,2021-08-07 12:37:54,300868
-2,-1,-1,2,3,2,0,0,2021-08-07 12:37:54,300868
1,0,-1,-2,-6,-4,-2,-1,2021-08-07 12:37:54,300868
0,0,-1,1,2,0,0,0,2021-08-07 12:37:54,300868
0,1,2,6,5,3,3,1,2021-08-07 12:37:54,300868
-2,0,-1,-4,-5,-4,-1,-1,2021-08-07 12:37:54,300868
-1,-3,-3,-2,-3,-2,-4,-4,2021-08-07 12:37:54,316830
-2,-2,-3,-6,-12,-8,-6,-5,2021-08-07 12:37:54,316830
1,2,3,4,12,12,4,2,2021-08-07 12:37:54,331868
0,-1,0,0,4,1,1,0,2021-08-07 12:37:54,331868
0,0,-1,-1,-1,1,0,1,2021-08-07 12:37:54,331868
-2,-2,-1,-3,-4,-4,-2,-1,2021-08-07 12:37:54,331868
-2,-3,-4,-3,-4,-3,-2,-2,2021-08-07 12:37:54,331868
1,1,1,-2,-4,-1,-1,1,2021-08-07 12:37:54,331868
-2,-4,-3,-4,-5,-4,-2,-2,2021-08-07 12:37:54,347868
-1,2,1,5,7,5,2,1,2021-08-07 12:37:54,347868
2,1,2,0,6,3,3,1,2021-08-07 12:37:54,347868
-2,-4,-1,0,3,1,-1,-2,2021-08-07 12:37:54,347868
1,2,-1,1,0,0,-1,-1,2021-08-07 12:37:54,379833
2,0,-1,-2,-3,-1,0,2,2021-08-07 12:37:54,379833
-2,-3,-2,-6,-8,-7,-2,-2,2021-08-07 12:37:54,379833
-3,-3,-2,-2,-2,-3,-3,-3,2021-08-07 12:37:54,379833
0,0,0,2,4,2,2,0,2021-08-07 12:37:54,379833
-1,-1,1,3,1,0,0,1,2021-08-07 12:37:54,379833
1,2,0,0,5,4,2,1,2021-08-07 12:37:54,395858
0,0,-1,0,-2,1,-1,-1,2021-08-07 12:37:54,411857
-3,-3,-2,-1,-1,-3,-3,0,2021-08-07 12:37:54,411857
1,-1,-2,-6,-7,-4,-3,-3,2021-08-07 12:37:54,411857
0,-2,-1,-2,-6,-2,-2,-1,2021-08-07 12:37:54,411857
0,1,-2,2,8,2,0,-1,2021-08-07 12:37:54,411857
-3,0,-2,-4,-8,-5,-3,-2,2021-08-07 12:37:54,443875
-1,1,-1,1,6,5,2,0,2021-08-07 12:37:54,443875
-2,-3,-2,-4,-2,-1,-1,-1,2021-08-07 12:37:54,443875
0,-2,0,3,0,-1,0,0,2021-08-07 12:37:54,443875
1,-1,-1,-2,0,-2,-1,-1,2021-08-07 12:37:54,443875
-1,-2,-2,0,1,-1,-2,-1,2021-08-07 12:37:54,443875
-2,-2,-2,-1,-5,-4,-2,-3,2021-08-07 12:37:54,444875
-1,0,-2,-2,-2,-1,0,-1,2021-08-07 12:37:54,444875
0,1,1,4,8,7,4,1,2021-08-07 12:37:54,471870
-3,-4,-2,-4,-8,-7,-3,-2,2021-08-07 12:37:54,471870
-2,0,-1,1,1,0,-2,-1,2021-08-07 12:37:54,471870
0,1,0,2,1,1,1,0,2021-08-07 12:37:54,471870
-2,-1,0,0,-4,-3,-3,-4,2021-08-07 12:37:54,490831
0,-1,-1,-7,-6,-4,-2,0,2021-08-07 12:37:54,490831
1,1,1,3,6,4,2,0,2021-08-07 12:37:54,490831
-2,-2,1,1,3,1,-1,-1,2021-08-07 12:37:54,490831
-1,-1,-3,-4,-6,-1,-1,-1,2021-08-07 12:37:54,506829
0,0,-1,2,3,3,1,-2,2021-08-07 12:37:54,506829
0,-1,-1,3,5,-1,-2,-3,2021-08-07 12:37:54,506829
-1,1,1,-1,-3,-2,-1,-1,2021-08-07 12:37:54,506829
0,0,0,1,4,3,1,1,2021-08-07 12:37:54,538853
-2,-1,-2,-3,-8,-4,-5,-3,2021-08-07 12:37:54,538853
-2,-1,-1,-5,-6,-3,-2,0,2021-08-07 12:37:54,538853
1,1,2,4,5,4,1,0,2021-08-07 12:37:54,538853
-2,-2,-2,-2,-2,-3,-1,-3,2021-08-07 12:37:54,554830
-2,0,0,3,-3,-3,-2,0,2021-08-07 12:37:54,554830
-1,-2,-2,-2,-4,-3,-3,-2,2021-08-07 12:37:54,554830
-3,-5,-3,-8,-12,-7,-5,-3,2021-08-07 12:37:54,554830
3,1,-2,-3,6,5,2,1,2021-08-07 12:37:54,569830
2,3,2,5,7,4,2,2,2021-08-07 12:37:54,585832
-2,-1,-1,0,-2,-3,-2,-2,2021-08-07 12:37:54,616834
-1,2,-3,0,-1,0,1,1,2021-08-07 12:37:54,631869
-2,-1,1,-2,-7,-6,-3,-1,2021-08-07 12:37:54,631869
-1,-1,-3,-4,0,0,0,-2,2021-08-07 12:37:54,632332
0,2,0,-1,-4,-3,-1,0,2021-08-07 12:37:54,632332
0,0,0,0,3,2,0,-1,2021-08-07 12:37:54,632332
-2,-5,-4,-7,-10,-7,-5,-2,2021-08-07 12:37:54,632332
3,2,3,3,8,9,4,3,2021-08-07 12:37:54,632833
1,1,4,4,3,3,0,-1,2021-08-07 12:37:54,632833
-1,-2,-3,-2,-4,-3,0,-1,2021-08-07 12:37:54,632833
0,0,1,3,3,2,0,0,2021-08-07 12:37:54,632833
-4,-5,-4,-6,-11,-7,-5,-4,2021-08-07 12:37:54,632833
0,0,-3,-4,-2,-2,-1,-1,2021-08-07 12:37:54,632833
0,0,0,1,4,2,0,0,2021-08-07 12:37:54,633831
-2,1,0,0,-2,-2,-1,-1,2021-08-07 12:37:54,647286
-2,-2,-2,-3,-7,-7,-4,-2,2021-08-07 12:37:54,647286
0,0,0,3,5,4,3,2,2021-08-07 12:37:54,647286
-2,-4,-3,-6,-10,-10,-5,-4,2021-08-07 12:37:54,647286
2,1,1,2,11,10,4,3,2021-08-07 12:37:54,679330
0,0,0,2,3,-1,0,-1,2021-08-07 12:37:54,679330
0,1,-1,0,-3,1,0,0,2021-08-07 12:37:54,679330
-1,-3,-3,-3,0,-1,-1,0,2021-08-07 12:37:54,679330
1,-1,-2,1,-1,-1,0,0,2021-08-07 12:37:54,679330
0,1,-2,-3,0,-1,0,0,2021-08-07 12:37:54,679330
-3,-3,-3,-4,-5,-5,-4,-2,2021-08-07 12:37:54,710326
2,2,0,-3,-5,0,0,0,2021-08-07 12:37:54,726323
-2,-2,0,3,4,1,-1,-4,2021-08-07 12:37:54,726323
-2,-1,-2,-6,-7,-4,-2,0,2021-08-07 12:37:54,726323
0,-2,-2,2,1,-2,0,-1,2021-08-07 12:37:54,742322
1,0,1,3,8,3,1,2,2021-08-07 12:37:54,742322
-2,-2,-2,-3,-4,-1,-1,-1,2021-08-07 12:37:54,742322
0,0,3,1,0,0,0,-2,2021-08-07 12:37:54,742322
1,1,-1,-4,-8,-1,-1,0,2021-08-07 12:37:54,742322
-1,1,1,2,0,2,0,-2,2021-08-07 12:37:54,742322
-1,-3,-2,-4,-7,-8,-3,-3,2021-08-07 12:37:54,743285
-1,-3,-2,-1,1,2,1,0,2021-08-07 12:37:54,743285
0,-2,0,5,10,6,2,0,2021-08-07 12:37:54,758322
1,-1,-2,1,4,3,0,-1,2021-08-07 12:37:54,758322
1,1,-1,2,2,0,1,-1,2021-08-07 12:37:54,773334
-2,1,-2,-3,-5,-3,-1,-1,2021-08-07 12:37:54,773334
-1,1,0,-3,-2,-1,-1,0,2021-08-07 12:37:54,773334
1,1,4,6,3,1,1,1,2021-08-07 12:37:54,773334
-2,-3,-3,-6,-8,-4,-3,-3,2021-08-07 12:37:54,789283
0,-2,-3,1,3,1,-1,-1,2021-08-07 12:37:54,805286
-1,0,-1,1,2,2,0,-1,2021-08-07 12:37:54,821290
-1,-3,-1,-2,-3,-4,-1,-2,2021-08-07 12:37:54,821290
-2,-3,-3,-4,-2,-2,-1,-2,2021-08-07 12:37:54,836325
1,-1,2,4,3,0,-1,-1,2021-08-07 12:37:54,836325
0,0,-1,-4,-2,-3,-3,-1,2021-08-07 12:37:54,836325
0,0,-1,-4,-3,0,0,0,2021-08-07 12:37:54,836325
-1,-4,-2,-1,-3,-2,-2,-3,2021-08-07 12:37:54,852287
1,1,1,4,11,7,3,1,2021-08-07 12:37:54,852532
-2,-3,-3,-7,-12,-9,-4,-2,2021-08-07 12:37:54,852532
0,1,1,-1,0,1,2,0,2021-08-07 12:37:54,867642
2,4,1,6,10,5,2,4,2021-08-07 12:37:54,883598
-1,-1,-2,0,-1,-1,-1,-1,2021-08-07 12:37:54,883598
-1,-1,0,0,1,-1,-4,-1,2021-08-07 12:37:54,883598
-4,-4,-6,-9,-15,-11,-5,-3,2021-08-07 12:37:54,883598
2,2,4,3,7,6,3,1,2021-08-07 12:37:54,883598
-2,-3,-3,-5,-7,-3,-3,-2,2021-08-07 12:37:54,883598
0,-1,-2,0,0,1,-1,-1,2021-08-07 12:37:54,883598
2,1,1,3,5,4,1,1,2021-08-07 12:37:54,883598
-2,-2,-3,-3,-4,-3,-2,-1,2021-08-07 12:37:54,884636
-3,0,-1,-3,-4,-2,-2,-1,2021-08-07 12:37:54,898633
-1,-2,-1,-1,-3,-3,-1,-1,2021-08-07 12:37:54,898633
1,1,-2,-1,-2,0,-1,0,2021-08-07 12:37:54,898633
1,2,5,4,5,3,0,1,2021-08-07 12:37:54,906594
1,-2,-1,-3,-8,-6,-4,-1,2021-08-07 12:37:54,906594
-1,2,3,1,2,4,1,-1,2021-08-07 12:37:54,906594
-1,-1,-1,1,1,-2,0,-2,2021-08-07 12:37:54,906594
1,1,1,-2,-1,2,2,1,2021-08-07 12:37:54,930596
1,0,1,2,5,1,1,1,2021-08-07 12:37:54,930596
-1,-5,-5,-6,-8,-7,-4,-1,2021-08-07 12:37:54,945623
3,1,1,-1,4,5,4,2,2021-08-07 12:37:54,961622
-3,-5,-4,-3,-6,-2,-1,-1,2021-08-07 12:37:54,977625
-3,-3,-4,-6,-6,-5,-1,-3,2021-08-07 12:37:54,992633
-2,-3,0,2,5,4,2,-2,2021-08-07 12:37:54,992633
-3,0,1,1,4,0,-1,-4,2021-08-07 12:37:54,992633
0,-1,1,-1,-2,-5,-3,-4,2021-08-07 12:37:54,992633
0,2,0,0,0,0,1,0,2021-08-07 12:37:54,993595
0,0,0,-1,0,0,-2,2,2021-08-07 12:37:54,993595
-2,-3,-4,-2,-5,-5,-2,0,2021-08-07 12:37:54,993595
-1,-1,-1,-5,-8,-5,-5,-1,2021-08-07 12:37:54,993595
3,4,4,3,6,5,2,3,2021-08-07 12:37:54,993595
0,0,1,5,6,3,2,-2,2021-08-07 12:37:54,993595
-3,-2,-4,-3,-1,-2,-3,0,2021-08-07 12:37:54,993595
-2,-5,-5,-6,-5,-5,-3,-4,2021-08-07 12:37:55,008610
-3,-3,-2,-2,-7,-3,-3,-2,2021-08-07 12:37:55,024633
1,1,2,3,6,4,2,2,2021-08-07 12:37:55,024633
0,0,-1,2,3,1,-1,0,2021-08-07 12:37:55,024633
2,1,1,5,11,6,3,2,2021-08-07 12:37:55,024633
-2,-3,-3,-5,-8,-6,-5,-2,2021-08-07 12:37:55,024633
-1,-1,-2,-4,-4,-3,-1,0,2021-08-07 12:37:55,025623
-2,-3,1,-3,-6,-3,-2,-2,2021-08-07 12:37:55,025623
-3,-3,-5,-9,-9,-7,-4,-1,2021-08-07 12:37:55,055595
1,0,1,4,6,4,1,0,2021-08-07 12:37:55,071634
-2,-1,-1,1,-1,-5,-2,-1,2021-08-07 12:37:55,087619
-1,-1,-1,-2,-1,1,-1,0,2021-08-07 12:37:55,087619
1,2,1,5,8,4,3,0,2021-08-07 12:37:55,087619
0,-1,-1,-2,0,-1,-2,-2,2021-08-07 12:37:55,103634
0,1,0,-1,-2,-1,-2,0,2021-08-07 12:37:55,103634
1,-2,-2,-2,-4,-3,-1,-2,2021-08-07 12:37:55,103634
-2,-2,-2,-5,-5,-3,-3,-2,2021-08-07 12:37:55,103634
-3,-4,-3,-1,-2,-3,-2,-3,2021-08-07 12:37:55,103634
-1,-1,-3,-3,-5,-2,0,-1,2021-08-07 12:37:55,103634
3,5,4,4,5,6,2,2,2021-08-07 12:37:55,103634
1,1,2,3,4,3,1,1,2021-08-07 12:37:55,119598
1,0,0,0,4,0,1,-1,2021-08-07 12:37:55,135634
0,-1,-2,-4,-4,-2,-2,-2,2021-08-07 12:37:55,167634
-3,-3,-2,-2,-3,-3,-2,-2,2021-08-07 12:37:55,183598
-4,-3,-2,-1,-4,-2,-2,-2,2021-08-07 12:37:55,198645
0,0,1,0,-3,1,-1,1,2021-08-07 12:37:55,198645
-1,-1,-1,-2,0,-1,0,-1,2021-08-07 12:37:55,198645
-1,-1,-1,-3,-2,-3,-1,0,2021-08-07 12:37:55,198645
-2,-3,-2,-6,-13,-7,-3,-2,2021-08-07 12:37:55,198645
2,2,3,8,19,15,8,2,2021-08-07 12:37:55,198645
0,2,2,-1,0,0,0,0,2021-08-07 12:37:55,198645
-2,-2,-2,0,0,-1,0,-1,2021-08-07 12:37:55,199600
0,-1,1,-1,-3,-4,-3,0,2021-08-07 12:37:55,199600
-2,-3,-2,-6,-10,-6,-4,-2,2021-08-07 12:37:55,199600
-2,-1,0,-1,-2,-3,-2,0,2021-08-07 12:37:55,199600
-1,-1,-1,0,2,-1,-1,0,2021-08-07 12:37:55,199600
-1,-1,-1,2,4,2,1,-1,2021-08-07 12:37:55,199600
1,0,-1,-1,-1,-1,-1,1,2021-08-07 12:37:55,199600
1,-1,-2,2,4,2,0,0,2021-08-07 12:37:55,199600
-2,-1,-1,-4,-4,-1,-1,-1,2021-08-07 12:37:55,200634
-1,-2,-2,-1,-3,-2,-1,0,2021-08-07 12:37:55,214633
-2,-2,-1,-2,-1,-2,-1,-2,2021-08-07 12:37:55,230597
2,2,3,1,2,3,3,2,2021-08-07 12:37:55,230597
-1,-1,-1,1,0,-1,-1,-1,2021-08-07 12:37:55,230597
0,-1,-1,2,4,3,0,0,2021-08-07 12:37:55,230597
-3,-1,-1,-2,-4,-2,0,-1,2021-08-07 12:37:55,230597
-1,-2,-2,-1,-1,-2,-1,-3,2021-08-07 12:37:55,230597
1,-1,-1,-3,-1,0,0,-2,2021-08-07 12:37:55,230597
1,1,0,1,1,0,0,1,2021-08-07 12:37:55,246623
-1,-3,-2,-3,-4,-6,-3,-2,2021-08-07 12:37:55,246623
-2,0,0,-3,-1,1,0,2,2021-08-07 12:37:55,246623
2,2,3,6,6,3,1,-1,2021-08-07 12:37:55,246623
-2,-4,-4,-5,-7,-7,-4,-3,2021-08-07 12:37:55,277634
1,2,2,2,2,3,3,2,2021-08-07 12:37:55,293077
-1,0,0,6,9,4,1,1,2021-08-07 12:37:55,309113
1,2,1,-2,0,1,1,2,2021-08-07 12:37:55,309113
-1,-1,-1,-2,-3,-1,-2,-1,2021-08-07 12:37:55,309113
-1,-3,-5,-5,-6,-6,-4,-3,2021-08-07 12:37:55,309113
-2,-2,-2,-2,-3,0,0,-1,2021-08-07 12:37:55,309113
-1,-1,0,3,5,3,2,-1,2021-08-07 12:37:55,309113
0,1,0,0,3,2,1,0,2021-08-07 12:37:55,310079
0,0,-1,-3,-4,1,-1,0,2021-08-07 12:37:55,325098
-1,-1,-1,0,-1,-2,-1,-2,2021-08-07 12:37:55,325098
-3,-3,-3,-3,-1,-2,-2,-2,2021-08-07 12:37:55,325098
0,0,0,-1,0,-1,1,-2,2021-08-07 12:37:55,325098
-2,-2,-1,1,-2,-2,-2,-1,2021-08-07 12:37:55,325098
-1,-2,0,-2,-2,-2,-3,-2,2021-08-07 12:37:55,325098
-2,-3,-3,-7,-7,-1,-3,-1,2021-08-07 12:37:55,325098
1,2,3,4,9,5,1,0,2021-08-07 12:37:55,372114
0,1,0,-2,-6,-4,-1,-1,2021-08-07 12:37:55,372114
1,2,1,0,1,2,3,1,2021-08-07 12:37:55,388078
-2,-3,1,0,-9,-9,-4,-4,2021-08-07 12:37:55,404079
0,-1,-2,2,5,5,2,0,2021-08-07 12:37:55,420080
2,0,-1,-1,4,5,1,2,2021-08-07 12:37:55,436114
-2,0,-1,-1,-5,-5,-3,0,2021-08-07 12:37:55,452118
-2,0,-2,-1,4,3,1,-1,2021-08-07 12:37:55,452118
-3,-1,0,-5,-8,-5,-3,-1,2021-08-07 12:37:55,452118
-1,-1,-1,3,4,0,0,-1,2021-08-07 12:37:55,452118
0,-1,-1,2,3,2,0,-1,2021-08-07 12:37:55,452118
0,0,-1,-1,-1,-1,0,2,2021-08-07 12:37:55,452118
-3,-2,-1,-3,-4,-2,-1,-1,2021-08-07 12:37:55,452118
-2,-1,-1,-3,-7,-6,-2,-2,2021-08-07 12:37:55,452118
-2,-3,-3,-1,2,2,0,-1,2021-08-07 12:37:55,453076
3,3,6,6,4,1,2,1,2021-08-07 12:37:55,453076
0,0,1,4,5,4,2,0,2021-08-07 12:37:55,453076
-2,-3,-1,0,0,0,-3,-2,2021-08-07 12:37:55,453076
-2,-1,-3,-5,-8,-4,-2,-1,2021-08-07 12:37:55,453076
-1,-2,-2,2,-2,0,-2,-1,2021-08-07 12:37:55,453076
0,0,-1,-5,-3,-2,-2,-1,2021-08-07 12:37:55,453076
-1,-2,0,0,1,0,-2,-1,2021-08-07 12:37:55,453076
1,1,0,-2,-3,-4,-1,1,2021-08-07 12:37:55,453076
-2,-2,-3,-5,-6,-4,-3,-1,2021-08-07 12:37:55,454078
-2,-2,-1,-1,3,2,-1,1,2021-08-07 12:37:55,484114
-1,0,-2,0,5,4,4,0,2021-08-07 12:37:55,484114
0,-1,0,0,1,0,-2,0,2021-08-07 12:37:55,484114
-2,-1,-1,-6,-5,-4,-1,0,2021-08-07 12:37:55,484114
-1,-2,-3,-3,-8,-4,-4,-2,2021-08-07 12:37:55,485077
0,0,0,2,3,0,-1,0,2021-08-07 12:37:55,485077
2,0,2,4,6,5,2,-1,2021-08-07 12:37:55,500332
-2,2,0,-2,-1,-1,-1,-1,2021-08-07 12:37:55,500332
-1,-2,-1,-1,-1,-2,-1,-2,2021-08-07 12:37:55,516080
-2,-4,-3,-4,-5,-2,-2,-3,2021-08-07 12:37:55,532102
1,1,0,-3,0,0,0,2,2021-08-07 12:37:55,532102
2,1,2,2,0,1,-1,0,2021-08-07 12:37:55,532102
-1,0,-1,0,2,0,0,-2,2021-08-07 12:37:55,532102
-1,-1,-1,2,-1,-1,-4,-2,2021-08-07 12:37:55,532102
-3,-4,-4,-4,-6,-5,-3,-2,2021-08-07 12:37:55,548078
-1,-2,-1,-2,-1,1,-1,-1,2021-08-07 12:37:55,548078
-1,1,0,2,1,0,0,-1,2021-08-07 12:37:55,548078
1,3,2,4,3,2,3,1,2021-08-07 12:37:55,548078
-3,-2,-4,-4,-6,-4,-3,-1,2021-08-07 12:37:55,548078
-1,0,-2,2,7,4,0,-1,2021-08-07 12:37:55,548078
0,2,0,0,-1,0,-1,0,2021-08-07 12:37:55,579113
0,0,-2,-5,-4,-2,-2,-1,2021-08-07 12:37:55,579113
2,2,2,8,12,7,4,1,2021-08-07 12:37:55,579113
-3,-4,-4,-4,-7,-6,-3,-3,2021-08-07 12:37:55,579113
0,-2,-1,0,-2,-3,0,-2,2021-08-07 12:37:55,595114
-1,-3,0,-1,0,-4,-1,-1,2021-08-07 12:37:55,595114
1,-1,0,-5,-5,-3,0,0,2021-08-07 12:37:55,595114
0,1,1,5,9,6,2,3,2021-08-07 12:37:55,595114
0,0,-1,-1,-2,-1,-1,-1,2021-08-07 12:37:55,611115
-3,-2,-3,-3,-5,-4,-3,-1,2021-08-07 12:37:55,611115
-2,-2,-1,-4,-4,-2,-3,-4,2021-08-07 12:37:55,611115
1,-1,-2,-4,-3,-2,-2,-1,2021-08-07 12:37:55,611115
-1,-2,0,1,0,-1,0,-2,2021-08-07 12:37:55,627114
0,-1,-1,0,5,5,3,-1,2021-08-07 12:37:55,627114
-2,0,-1,5,4,1,1,-1,2021-08-07 12:37:55,627114
-2,-2,-3,-4,-2,-4,0,-2,2021-08-07 12:37:55,627114
0,0,0,-1,-1,0,-2,0,2021-08-07 12:37:55,659103
-2,-2,-2,-6,-8,-6,-2,0,2021-08-07 12:37:55,659103
0,0,2,4,4,2,0,1,2021-08-07 12:37:55,659103
-2,0,-1,0,-1,0,0,1,2021-08-07 12:37:55,659103
-2,-1,1,1,2,2,-1,-1,2021-08-07 12:37:55,659103
0,1,1,4,4,3,1,0,2021-08-07 12:37:55,659103
0,-2,-2,-4,-7,-5,-4,-3,2021-08-07 12:37:55,674102
1,0,0,0,-2,1,-1,-1,2021-08-07 12:37:55,674102
0,-1,0,-4,0,1,0,1,2021-08-07 12:37:55,690077
2,3,4,6,10,10,5,4,2021-08-07 12:37:55,706120
-2,1,1,1,0,-1,0,0,2021-08-07 12:37:55,706120
-2,-2,-3,-2,-4,-4,-1,-3,2021-08-07 12:37:55,706120
-4,-3,-4,-6,-10,-8,-3,-3,2021-08-07 12:37:55,706120
0,1,0,2,0,0,2,0,2021-08-07 12:37:55,706120
-2,-1,-1,-1,-1,0,0,-2,2021-08-07 12:37:55,706120
1,2,2,0,1,2,1,1,2021-08-07 12:37:55,707113
-1,-1,-2,-1,-3,-2,0,0,2021-08-07 12:37:55,754115
0,-3,-4,-2,-3,-3,-2,-1,2021-08-07 12:37:55,754115
-1,-2,0,2,7,2,-1,0,2021-08-07 12:37:55,754115
-2,-2,-1,0,0,0,-1,-2,2021-08-07 12:37:55,754115
-1,1,1,2,4,1,1,-1,2021-08-07 12:37:55,754115
-1,0,-1,-3,-5,-3,-3,-2,2021-08-07 12:37:55,754115
-2,-3,-3,-5,-5,-3,-3,-2,2021-08-07 12:37:55,755078
0,1,0,-1,0,1,0,1,2021-08-07 12:37:55,755078
-1,-2,-3,-3,-1,-2,-2,-1,2021-08-07 12:37:55,764114
-1,1,1,1,2,2,1,-1,2021-08-07 12:37:55,765078
1,1,2,1,-2,1,-1,0,2021-08-07 12:37:55,785114
0,-3,-3,-3,0,-2,-3,-1,2021-08-07 12:37:55,785114
-1,-1,-2,2,0,-1,0,-1,2021-08-07 12:37:55,785114
0,-3,-1,-3,-1,-2,-2,0,2021-08-07 12:37:55,785114
-3,-3,-4,-4,-8,-7,-4,-1,2021-08-07 12:37:55,801114
1,1,2,1,4,5,2,1,2021-08-07 12:37:55,817115
-1,2,1,6,7,4,-1,1,2021-08-07 12:37:55,832129
0,1,-1,-1,-1,-2,-2,1,2021-08-07 12:37:55,848115
-1,-1,-3,-4,-7,-5,-3,-2,2021-08-07 12:37:55,864078
0,-2,-2,-4,-3,-1,-1,-1,2021-08-07 12:37:55,864078
2,-1,-2,-5,-2,2,0,1,2021-08-07 12:37:55,864078
2,3,1,4,5,3,1,1,2021-08-07 12:37:55,879114
-3,-3,-3,-1,2,0,-1,-1,2021-08-07 12:37:55,879114
-4,-1,-2,0,1,0,0,-2,2021-08-07 12:37:55,879114
-4,-1,-1,-1,-3,-3,-2,-4,2021-08-07 12:37:55,879114
-1,-1,2,1,-1,-1,-4,-4,2021-08-07 12:37:55,895126
0,3,2,-3,-3,-2,1,-1,2021-08-07 12:37:55,895126
-1,-2,-1,-1,-2,-2,-3,0,2021-08-07 12:37:55,895126
0,-2,-1,-4,-7,-7,-2,-2,2021-08-07 12:37:55,895126
1,-1,-2,-5,-5,-4,-1,-1,2021-08-07 12:37:55,895126
1,1,0,2,6,4,2,1,2021-08-07 12:37:55,895126
-1,-2,0,0,-1,0,-2,-2,2021-08-07 12:37:55,896077
0,-2,-1,-1,-1,-1,-2,0,2021-08-07 12:37:55,896077
1,1,1,1,1,0,0,0,2021-08-07 12:37:55,896077
2,0,2,-2,1,2,0,0,2021-08-07 12:37:55,896077
-3,-2,-1,-1,-3,-3,-1,-1,2021-08-07 12:37:55,896077
-2,-2,-2,-1,-4,-2,-2,0,2021-08-07 12:37:55,911114
-1,-3,-3,-2,-4,1,1,0,2021-08-07 12:37:55,927113
1,1,2,8,12,6,4,2,2021-08-07 12:37:55,927113
-1,-2,-1,-2,-3,-2,-3,-1,2021-08-07 12:37:55,927113
-1,-1,-2,-2,-4,-3,-1,-2,2021-08-07 12:37:55,927113
-1,-1,-1,0,3,1,0,1,2021-08-07 12:37:55,927113
0,-1,-2,0,-2,-3,-1,-3,2021-08-07 12:37:55,927113
-2,-1,-3,-1,-2,-1,-3,-2,2021-08-07 12:37:55,928104
1,2,1,-1,1,1,0,0,2021-08-07 12:37:55,959113
-1,0,-1,-4,-5,-5,-3,-2,2021-08-07 12:37:55,959113
-1,-1,0,-2,0,1,0,-1,2021-08-07 12:37:55,959113
1,0,0,2,4,1,1,0,2021-08-07 12:37:55,959113
-1,-3,-1,-3,-2,-3,0,-3,2021-08-07 12:37:55,959113
0,-1,1,-4,-3,-1,-1,-2,2021-08-07 12:37:55,960077
-2,0,-2,-4,-6,-3,-3,0,2021-08-07 12:37:55,975079
-1,-1,-2,-1,-1,-1,-1,-2,2021-08-07 12:37:55,975079
0,0,0,-1,0,-1,-1,0,2021-08-07 12:37:55,991114
-1,-2,0,3,3,3,1,-1,2021-08-07 12:37:56,007078
-1,-1,-1,-2,-3,-4,-3,-1,2021-08-07 12:37:56,038118
0,1,0,0,1,3,1,1,2021-08-07 12:37:56,038118
-2,-3,-2,0,0,-2,-1,-2,2021-08-07 12:37:56,038118
0,1,-1,1,-2,-2,-1,-2,2021-08-07 12:37:56,038118
-1,-1,0,-2,1,1,0,1,2021-08-07 12:37:56,038118
-2,-2,-2,-2,-4,-4,-1,1,2021-08-07 12:37:56,038118
0,0,1,-1,3,3,1,1,2021-08-07 12:37:56,054121
-1,-1,-2,1,-1,-3,-2,-2,2021-08-07 12:37:56,054121
-2,-1,-1,-1,-1,-1,-1,-1,2021-08-07 12:37:56,054121
0,0,-1,-1,0,-2,-1,-1,2021-08-07 12:37:56,054121
-1,-1,-3,-2,-3,-3,-2,-1,2021-08-07 12:37:56,054121
1,1,0,5,13,6,2,1,2021-08-07 12:37:56,055078
0,1,2,0,-2,-2,-1,1,2021-08-07 12:37:56,055078
-3,-3,-5,-9,-11,-10,-3,-4,2021-08-07 12:37:56,055078
-1,-1,0,3,7,2,0,-2,2021-08-07 12:37:56,070110
-1,0,-1,-2,-3,-2,1,0,2021-08-07 12:37:56,086077
0,-2,0,0,1,3,0,0,2021-08-07 12:37:56,086077
1,-1,1,1,1,2,1,0,2021-08-07 12:37:56,086077
-1,1,0,0,-1,-1,1,0,2021-08-07 12:37:56,102080
-1,-1,-2,-1,-3,-1,-1,-2,2021-08-07 12:37:56,118078
0,-1,-3,-2,-2,-3,0,-2,2021-08-07 12:37:56,118078
-2,-3,-3,-6,-6,-4,-2,-2,2021-08-07 12:37:56,118078
-1,0,-1,0,3,4,1,1,2021-08-07 12:37:56,118078
-1,-1,-1,-3,-1,-2,-1,0,2021-08-07 12:37:56,118078
-2,0,-2,-3,-6,-5,-3,-1,2021-08-07 12:37:56,118078
0,0,3,6,12,6,2,2,2021-08-07 12:37:56,119078
-2,-3,-3,-3,-5,-2,-2,-3,2021-08-07 12:37:56,134078
-1,-1,2,-2,-7,-5,-2,0,2021-08-07 12:37:56,134078
-2,-1,-2,3,3,2,0,-2,2021-08-07 12:37:56,134078
0,2,1,-1,1,1,1,0,2021-08-07 12:37:56,134078
0,-1,-2,-2,-3,-1,-2,-2,2021-08-07 12:37:56,166080
-2,-3,-4,-5,-9,-6,-4,-2,2021-08-07 12:37:56,166080
-1,-1,-3,-2,-2,-1,-2,-1,2021-08-07 12:37:56,182111
0,0,0,5,8,4,2,1,2021-08-07 12:37:56,182111
1,3,3,3,5,2,0,2,2021-08-07 12:37:56,182111
-2,-1,-2,-3,-4,-4,-2,-1,2021-08-07 12:37:56,182111
0,1,-1,-2,-5,-2,1,1,2021-08-07 12:37:56,182111
-2,-2,-3,-6,-11,-7,-5,-3,2021-08-07 12:37:56,182111
0,-2,1,4,10,6,4,0,2021-08-07 12:37:56,196105
-2,-1,-1,-2,0,-2,-1,-1,2021-08-07 12:37:56,196105
1,1,-1,0,1,1,0,-1,2021-08-07 12:37:56,197077
-1,-2,-2,0,-1,-3,-2,-2,2021-08-07 12:37:56,197077
-1,2,2,-1,-6,-4,-2,-1,2021-08-07 12:37:56,214124
-2,-1,-2,-9,-9,-4,-2,-1,2021-08-07 12:37:56,214124
0,-1,0,4,2,2,3,1,2021-08-07 12:37:56,214124
3,1,2,4,12,8,4,1,2021-08-07 12:37:56,214124
1,2,0,-1,-1,0,0,2,2021-08-07 12:37:56,230105
-1,-1,-2,3,4,2,-1,-1,2021-08-07 12:37:56,230105
-1,0,-1,-3,-2,-3,-3,0,2021-08-07 12:37:56,230105
-2,-3,-2,-4,-9,-6,-4,-3,2021-08-07 12:37:56,230105
0,0,-1,1,2,1,0,1,2021-08-07 12:37:56,262116
1,0,-2,0,-1,-1,-1,-2,2021-08-07 12:37:56,278116
0,3,2,2,6,5,3,0,2021-08-07 12:37:56,294116
-1,0,0,1,-2,-2,-1,-1,2021-08-07 12:37:56,294116
-3,-3,-3,-6,-6,-3,-2,-1,2021-08-07 12:37:56,294116
-2,-3,-2,0,-7,-7,-4,-3,2021-08-07 12:37:56,294116
0,1,2,1,5,4,1,1,2021-08-07 12:37:56,294116
2,1,2,1,5,4,2,2,2021-08-07 12:37:56,294116
-1,-2,-3,-3,-7,-4,-2,-2,2021-08-07 12:37:56,295114
0,-2,0,2,1,1,-1,0,2021-08-07 12:37:56,295114
0,-3,-3,-4,-7,-8,-4,-2,2021-08-07 12:37:56,310104
1,1,2,1,-1,-2,0,-1,2021-08-07 12:37:56,326125
-2,-1,0,-2,3,3,0,-1,2021-08-07 12:37:56,326125
-1,-1,-1,-3,1,2,-1,0,2021-08-07 12:37:56,326125
-2,-4,-2,-5,-7,-5,-4,-1,2021-08-07 12:37:56,326125
0,0,-1,3,3,3,1,1,2021-08-07 12:37:56,326125
0,2,2,4,0,-2,-1,-2,2021-08-07 12:37:56,342119
1,1,1,3,3,2,2,0,2021-08-07 12:37:56,342119
-1,-2,-4,-3,-4,-5,-3,-1,2021-08-07 12:37:56,342119
-2,-2,-4,-6,-9,-7,-3,-1,2021-08-07 12:37:56,342119
1,-2,0,4,8,5,2,-1,2021-08-07 12:37:56,342119
-2,0,1,3,6,3,2,0,2021-08-07 12:37:56,342119
-1,-2,1,-2,-4,-3,-1,-2,2021-08-07 12:37:56,358078
-1,-3,-3,-5,-3,-2,-2,-2,2021-08-07 12:37:56,374116
1,2,1,-4,-2,0,2,1,2021-08-07 12:37:56,390114
1,2,1,2,4,3,1,2,2021-08-07 12:37:56,390114
1,1,0,3,4,3,2,-3,2021-08-07 12:37:56,390114
-4,-4,-3,-1,-4,-3,-1,-1,2021-08-07 12:37:56,390114
-2,-4,-3,-3,-6,-5,-4,-2,2021-08-07 12:37:56,390114
1,0,0,-1,-2,-1,-1,-2,2021-08-07 12:37:56,406077
0,-1,0,-7,-3,0,1,0,2021-08-07 12:37:56,406077
1,0,2,5,5,2,0,1,2021-08-07 12:37:56,406077
0,-1,-1,0,2,3,2,1,2021-08-07 12:37:56,406077
-2,-1,-1,-2,-3,-2,-2,-1,2021-08-07 12:37:56,406077
-1,1,1,4,2,-1,0,-1,2021-08-07 12:37:56,422126
1,-2,-2,-7,-7,-1,-1,-2,2021-08-07 12:37:56,422126
-2,-3,-1,-1,-6,-4,-4,-1,2021-08-07 12:37:56,438076
1,-1,0,0,-1,-1,0,0,2021-08-07 12:37:56,438076
2,2,0,1,6,5,3,2,2021-08-07 12:37:56,438076
-1,1,2,3,9,7,3,1,2021-08-07 12:37:56,438076
-1,-2,-1,-1,1,-3,-1,-2,2021-08-07 12:37:56,454079
-1,0,-1,-2,-4,-4,-1,-2,2021-08-07 12:37:56,454079
-3,-4,-3,-4,-5,-4,-3,-1,2021-08-07 12:37:56,454079
0,1,1,-2,-4,0,0,1,2021-08-07 12:37:56,454079
0,-3,-4,-3,-1,0,-2,-1,2021-08-07 12:37:56,486115
0,-1,0,-4,-6,-5,-1,-2,2021-08-07 12:37:56,502115
-1,-1,-3,-5,-7,-2,-1,-1,2021-08-07 12:37:56,502115
1,2,-1,-1,5,2,2,1,2021-08-07 12:37:56,502115
0,-2,-1,-2,-5,-6,-2,-1,2021-08-07 12:37:56,502115
0,1,0,3,7,6,3,2,2021-08-07 12:37:56,502115
-2,-3,-2,2,0,-1,-2,-2,2021-08-07 12:37:56,502115
-1,-1,-2,-5,-8,-5,-2,-2,2021-08-07 12:37:56,518078
-2,-2,-2,-5,-9,-5,-5,-2,2021-08-07 12:37:56,518078
0,1,-1,1,3,2,1,0,2021-08-07 12:37:56,518078
1,0,2,0,1,0,-1,-1,2021-08-07 12:37:56,534115
-2,0,0,1,0,1,0,0,2021-08-07 12:37:56,550078
-3,-1,0,-1,-3,-2,-1,-1,2021-08-07 12:37:56,550078
2,2,4,7,10,4,3,3,2021-08-07 12:37:56,550078
1,0,0,-2,6,7,2,1,2021-08-07 12:37:56,550078
-2,-2,-1,-2,-6,-6,-2,-2,2021-08-07 12:37:56,550078
-1,-3,-4,-4,-5,-3,-3,-3,2021-08-07 12:37:56,550078
1,0,0,1,-2,1,0,2,2021-08-07 12:37:56,550078
0,2,0,0,1,-1,-1,1,2021-08-07 12:37:56,566079
-3,-3,-1,-3,-8,-7,-5,-1,2021-08-07 12:37:56,566079
2,2,1,-1,4,6,3,2,2021-08-07 12:37:56,582075
-2,-2,-1,1,3,-1,-2,-2,2021-08-07 12:37:56,582075
-2,-1,-1,-1,-2,-2,-2,-2,2021-08-07 12:37:56,582075
-1,-2,-2,-3,-2,-2,-3,-1,2021-08-07 12:37:56,582075
-2,0,-3,-2,-4,-4,-2,-2,2021-08-07 12:37:56,582075
0,0,-3,-5,-5,-2,0,-1,2021-08-07 12:37:56,582075
2,0,2,1,-1,0,-1,0,2021-08-07 12:37:56,598120
-2,-1,-3,-2,0,0,-1,-2,2021-08-07 12:37:56,598120
2,4,4,9,13,8,3,3,2021-08-07 12:37:56,614074
-2,-4,-6,-5,-7,-6,-4,-4,2021-08-07 12:37:56,629078
-1,2,2,2,3,2,0,0,2021-08-07 12:37:56,631078
-1,-2,-1,-2,-3,-2,-3,-1,2021-08-07 12:37:56,631078
0,1,1,3,5,7,2,1,2021-08-07 12:37:56,632079
-2,0,0,-1,-4,-3,-1,0,2021-08-07 12:37:56,632079
-3,-5,-5,-4,-6,-6,-3,-2,2021-08-07 12:37:56,632079
0,0,-1,0,-3,-2,-1,0,2021-08-07 12:37:56,632079
1,2,1,3,5,5,2,0,2021-08-07 12:37:56,661103
1,1,0,-2,-3,-1,-1,1,2021-08-07 12:37:56,676102
-1,-1,-1,0,-1,-1,0,-2,2021-08-07 12:37:56,676102
-1,0,-2,-2,-3,-3,-1,-2,2021-08-07 12:37:56,676102
0,-2,-1,0,-2,-4,-3,-3,2021-08-07 12:37:56,676102
1,1,-1,1,5,4,0,0,2021-08-07 12:37:56,676102
-1,0,-1,1,3,-1,0,1,2021-08-07 12:37:56,676102
-2,-2,-2,-5,-10,-7,-4,-4,2021-08-07 12:37:56,676102
-2,-2,0,0,3,2,3,0,2021-08-07 12:37:56,692113
3,5,4,4,10,7,2,0,2021-08-07 12:37:56,692113
0,1,-1,1,0,0,-1,0,2021-08-07 12:37:56,692113
-1,-2,-3,-4,-5,-4,-2,-2,2021-08-07 12:37:56,692113
-2,-2,0,-1,-2,-4,-2,-2,2021-08-07 12:37:56,708103
-1,-4,-5,-5,-7,-2,-1,0,2021-08-07 12:37:56,708103
0,-1,-2,0,1,5,1,-1,2021-08-07 12:37:56,724075
2,1,0,-1,5,5,4,2,2021-08-07 12:37:56,724075
-1,-1,-2,-5,-7,-2,-1,-1,2021-08-07 12:37:56,740077
-4,-5,-1,1,-1,-2,-1,-4,2021-08-07 12:37:56,756116
-2,-1,3,7,3,1,-2,-3,2021-08-07 12:37:56,772125
-3,-2,0,-9,-7,-5,-4,-2,2021-08-07 12:37:56,772125
-1,-2,0,-4,-5,-5,-5,-2,2021-08-07 12:37:56,772125
4,8,11,17,18,14,6,4,2021-08-07 12:37:56,772125
1,3,2,4,3,1,2,-1,2021-08-07 12:37:56,772125
-5,-7,-11,-17,-15,-10,-6,-3,2021-08-07 12:37:56,772125
-2,-3,-6,-8,-13,-8,-4,-3,2021-08-07 12:37:56,772125
-1,-1,-1,1,5,3,2,1,2021-08-07 12:37:56,772125
-1,0,0,-1,-2,0,0,0,2021-08-07 12:37:56,773078
3,4,9,14,11,9,4,2,2021-08-07 12:37:56,773078
-3,-4,-2,-2,-1,-5,-4,-3,2021-08-07 12:37:56,804113
-1,-2,-2,-6,-10,-9,-4,-2,2021-08-07 12:37:56,820118
0,-1,-2,-2,-2,-3,-1,1,2021-08-07 12:37:56,820118
-2,-2,-3,0,1,0,0,0,2021-08-07 12:37:56,820118
-1,0,-2,-4,-5,0,-1,0,2021-08-07 12:37:56,820118
0,2,2,2,-1,-2,0,0,2021-08-07 12:37:56,820118
0,0,-1,-2,3,2,0,1,2021-08-07 12:37:56,820118
2,1,2,2,5,2,2,0,2021-08-07 12:37:56,821076
-1,-1,-1,4,3,-1,-1,-2,2021-08-07 12:37:56,836074
-4,-4,-5,-8,-4,-3,-2,-2,2021-08-07 12:37:56,836074
-1,-1,-1,-5,-10,-6,-3,-3,2021-08-07 12:37:56,836074
0,1,1,0,-1,0,-1,0,2021-08-07 12:37:56,836074
1,3,5,7,14,9,5,3,2021-08-07 12:37:56,852113
-1,-2,-4,-4,-7,-6,-4,-2,2021-08-07 12:37:56,852113
-4,-5,-5,-7,-8,-5,-5,-1,2021-08-07 12:37:56,852113
-1,-3,-2,-1,4,6,0,-1,2021-08-07 12:37:56,852113
1,1,1,1,0,0,2,0,2021-08-07 12:37:56,884120
2,0,0,-4,-3,-4,-3,0,2021-08-07 12:37:56,899079
1,2,2,5,7,4,1,1,2021-08-07 12:37:56,915113
-2,-1,-3,1,-2,-4,-3,-2,2021-08-07 12:37:56,915113
-2,-2,-3,-8,-12,-6,-5,-2,2021-08-07 12:37:56,915113
0,1,2,6,8,5,3,2,2021-08-07 12:37:56,915113
0,-2,-1,0,3,2,1,-1,2021-08-07 12:37:56,915113
-1,0,0,-1,0,-3,-2,0,2021-08-07 12:37:56,915113
1,-2,-1,-1,-3,-3,-1,-1,2021-08-07 12:37:56,915113
-2,-2,-3,-3,-7,-3,-2,-2,2021-08-07 12:37:56,916079
-1,-2,-3,-3,-5,-3,-2,-2,2021-08-07 12:37:56,916079
-2,-1,-1,1,1,-2,0,-1,2021-08-07 12:37:56,916079
-1,1,-1,-2,-2,0,0,-1,2021-08-07 12:37:56,947113
-2,0,1,-4,-3,-1,-2,-1,2021-08-07 12:37:56,962118
-2,-1,1,3,4,3,1,-2,2021-08-07 12:37:56,962118
1,2,2,4,7,2,3,2,2021-08-07 12:37:56,962118
-3,-5,-7,-11,-13,-8,-6,-2,2021-08-07 12:37:56,962118
0,-1,-2,-7,-11,-4,-2,0,2021-08-07 12:37:56,962118
-1,-3,-2,-1,0,-1,-3,-2,2021-08-07 12:37:56,963075
1,4,4,7,11,6,3,0,2021-08-07 12:37:56,963075
0,1,1,4,7,4,1,-1,2021-08-07 12:37:56,978113
-1,0,-1,-3,-4,-5,-2,-1,2021-08-07 12:37:56,978113
0,-1,-1,-6,-6,-6,-3,-1,2021-08-07 12:37:56,978113
-1,-2,-1,-2,-6,-4,-4,-2,2021-08-07 12:37:56,978113
-1,-1,-1,2,4,4,1,1,2021-08-07 12:37:56,994113
-1,-1,-2,-2,4,4,0,-1,2021-08-07 12:37:56,994113
3,3,3,3,5,4,3,3,2021-08-07 12:37:56,994113
-2,-2,-4,-5,-8,-6,-2,-3,2021-08-07 12:37:56,994113
1,0,3,8,8,5,2,0,2021-08-07 12:37:57,026116
0,2,2,4,1,1,1,-1,2021-08-07 12:37:57,042078
-2,-1,-2,-1,3,2,2,0,2021-08-07 12:37:57,057107
-4,-5,-7,-10,-13,-7,-5,-4,2021-08-07 12:37:57,058074
0,-1,0,-1,-1,1,1,0,2021-08-07 12:37:57,058074
-1,-2,2,6,3,1,-1,-1,2021-08-07 12:37:57,058074
-3,-5,-7,-15,-19,-14,-8,-4,2021-08-07 12:37:57,058074
0,0,1,-1,-1,-1,1,0,2021-08-07 12:37:57,058074
0,-2,0,0,-2,-3,-2,-2,2021-08-07 12:37:57,059113
1,1,1,9,17,13,5,3,2021-08-07 12:37:57,059113
-1,0,0,3,0,2,1,0,2021-08-07 12:37:57,059113
0,1,0,3,3,3,0,1,2021-08-07 12:37:57,059113
-2,-1,-3,-3,-3,-6,-4,-1,2021-08-07 12:37:57,073074
-2,-5,-4,-7,-7,-6,-4,-2,2021-08-07 12:37:57,089117
-1,-3,-2,-6,-10,-5,-3,-2,2021-08-07 12:37:57,105117
5,4,5,10,19,16,8,4,2021-08-07 12:37:57,105117
0,3,4,5,6,3,1,1,2021-08-07 12:37:57,105117
-1,-3,-4,-3,-5,-4,-3,-3,2021-08-07 12:37:57,105117
-2,-3,-4,-6,-5,-4,-2,-2,2021-08-07 12:37:57,105117
-3,-2,-1,-2,-7,-4,-4,-2,2021-08-07 12:37:57,105117
0,0,-1,-2,-1,-1,1,0,2021-08-07 12:37:57,121078
-2,-2,-2,-4,-2,-1,0,-1,2021-08-07 12:37:57,121078
-1,0,0,-1,-2,-1,-1,2,2021-08-07 12:37:57,121078
-3,-5,-4,-1,-5,-5,-4,-4,2021-08-07 12:37:57,121078
2,4,3,0,2,6,4,2,2021-08-07 12:37:57,137113
0,-1,1,1,1,-1,0,0,2021-08-07 12:37:57,153077
0,2,1,3,5,4,2,0,2021-08-07 12:37:57,169079
-1,1,0,-1,1,0,0,0,2021-08-07 12:37:57,169079
-2,-2,-5,-7,-7,-5,-2,-2,2021-08-07 12:37:57,169079
0,1,-2,-6,-7,-2,-1,-2,2021-08-07 12:37:57,169079
0,2,3,5,2,4,2,1,2021-08-07 12:37:57,169079
-2,-4,-3,-3,-1,-2,-3,-1,2021-08-07 12:37:57,169079
0,0,-1,-3,-2,-3,-1,-1,2021-08-07 12:37:57,169079
0,2,2,-2,-1,-1,0,1,2021-08-07 12:37:57,170078
1,-2,1,4,3,-1,-1,0,2021-08-07 12:37:57,170078
0,-1,-2,-1,-4,-1,-1,0,2021-08-07 12:37:57,170078
-2,-1,-2,-2,-4,-4,-2,0,2021-08-07 12:37:57,200114
0,-1,-1,0,1,0,0,1,2021-08-07 12:37:57,216078
-2,-1,-2,2,2,2,1,-1,2021-08-07 12:37:57,232076
2,3,4,-1,1,0,1,0,2021-08-07 12:37:57,232076
-1,-4,-1,-2,-4,-3,-3,-2,2021-08-07 12:37:57,232076
-1,-1,-2,-2,-1,-1,-2,-2,2021-08-07 12:37:57,232076
-2,-1,0,0,0,1,0,-3,2021-08-07 12:37:57,232076
2,0,-1,1,1,0,0,2,2021-08-07 12:37:57,233078
1,1,0,-2,-1,0,-1,0,2021-08-07 12:37:57,233078
0,-1,2,2,1,-2,-1,-2,2021-08-07 12:37:57,233078
2,-1,0,-1,1,0,-1,-1,2021-08-07 12:37:57,233078
-2,-2,-1,1,1,0,-2,-3,2021-08-07 12:37:57,233078
-2,-3,-1,-3,-5,-4,-3,0,2021-08-07 12:37:57,263126
-1,-2,-3,2,-2,-2,-1,-3,2021-08-07 12:37:57,263126
0,1,0,0,2,0,1,1,2021-08-07 12:37:57,279118
-1,1,-1,-3,-4,-3,-3,-2,2021-08-07 12:37:57,295110
1,0,0,1,2,2,-1,-2,2021-08-07 12:37:57,311115
-1,-1,0,0,-3,-4,-2,0,2021-08-07 12:37:57,311115
-1,-2,-3,-3,-1,1,-1,0,2021-08-07 12:37:57,311115
-1,1,0,4,5,3,2,1,2021-08-07 12:37:57,311115
-1,1,0,3,0,0,0,-1,2021-08-07 12:37:57,311115
0,1,0,1,2,3,1,0,2021-08-07 12:37:57,311115
-2,-2,-2,-5,-7,-5,-3,-2,2021-08-07 12:37:57,312124
-2,-2,-2,-3,0,0,-1,-3,2021-08-07 12:37:57,312124
-2,-4,-4,-3,-3,0,-2,0,2021-08-07 12:37:57,312124
0,1,0,0,0,1,-1,0,2021-08-07 12:37:57,312124
1,2,0,0,1,0,1,1,2021-08-07 12:37:57,312124
-1,-1,-1,-2,-4,0,0,-2,2021-08-07 12:37:57,312124
-1,-1,-1,0,-2,-4,-3,-2,2021-08-07 12:37:57,342113
-2,-3,-5,-6,-12,-9,-5,-2,2021-08-07 12:37:57,358113
0,0,1,4,10,11,4,-1,2021-08-07 12:37:57,390114
0,-1,1,5,7,4,2,1,2021-08-07 12:37:57,390114
1,1,0,3,9,3,3,1,2021-08-07 12:37:57,390114
-1,0,-3,-5,-7,-4,-1,-1,2021-08-07 12:37:57,390114
1,2,0,-2,-2,-1,0,1,2021-08-07 12:37:57,390114
-1,-2,-1,-2,-5,-4,-2,-2,2021-08-07 12:37:57,390114
-1,-3,-2,1,2,1,0,-1,2021-08-07 12:37:57,390114
-2,-3,-2,-2,-3,-2,-2,-1,2021-08-07 12:37:57,391077
-2,-2,0,-3,-2,-3,-1,-1,2021-08-07 12:37:57,391077
-2,-3,-4,-7,-9,-7,-3,-4,2021-08-07 12:37:57,391077
1,2,-1,-3,-1,1,1,2,2021-08-07 12:37:57,405115
0,1,0,5,10,6,4,0,2021-08-07 12:37:57,421078
-1,-2,-1,-1,-3,-2,-3,-2,2021-08-07 12:37:57,437115
3,1,1,1,3,-1,-1,0,2021-08-07 12:37:57,437115
-2,-3,-2,-3,-6,-4,-2,-2,2021-08-07 12:37:57,437115
-1,-1,0,-3,-3,1,0,-2,2021-08-07 12:37:57,437115
0,0,-2,-2,-2,-3,-1,1,2021-08-07 12:37:57,437115
-1,-2,-2,-5,-6,-4,-2,-1,2021-08-07 12:37:57,437115
0,-1,-3,-3,-6,-4,-3,-2,2021-08-07 12:37:57,438119
1,1,4,3,4,3,2,0,2021-08-07 12:37:57,438119
-2,-3,-3,-6,-9,-5,-3,-3,2021-08-07 12:37:57,438119
0,1,2,7,12,6,3,2,2021-08-07 12:37:57,438119
-1,2,2,3,5,2,1,0,2021-08-07 12:37:57,453115
0,-1,-1,-1,1,-2,-2,1,2021-08-07 12:37:57,453115
-3,-3,-4,-5,-6,-5,-3,-3,2021-08-07 12:37:57,453115
-1,0,1,-3,-5,-2,-1,0,2021-08-07 12:37:57,453115
0,0,0,-2,-2,0,-2,-1,2021-08-07 12:37:57,485102
-1,-2,-1,-2,-3,-2,-2,-2,2021-08-07 12:37:57,485102
0,1,1,4,4,2,0,1,2021-08-07 12:37:57,485102
-3,-3,-3,-1,-2,-3,-3,-1,2021-08-07 12:37:57,485102
0,2,2,3,5,5,2,1,2021-08-07 12:37:57,492104
-1,-1,0,-2,-1,0,-1,0,2021-08-07 12:37:57,492104
-1,-2,0,-2,-1,-1,0,-2,2021-08-07 12:37:57,492104
-1,-1,-1,-2,-2,-2,-2,-2,2021-08-07 12:37:57,493076
-1,-2,-2,-2,-5,-4,-2,-1,2021-08-07 12:37:57,533108
-1,-2,-2,-3,-4,-2,-2,1,2021-08-07 12:37:57,549075
-1,1,1,1,3,1,0,0,2021-08-07 12:37:57,549075
-3,-3,-4,-3,-5,-4,-3,-2,2021-08-07 12:37:57,549075
-1,0,-1,-3,1,3,2,1,2021-08-07 12:37:57,549075
-2,0,0,-2,-4,-1,-1,0,2021-08-07 12:37:57,549075
1,2,4,8,9,5,1,0,2021-08-07 12:37:57,549075
1,2,2,4,4,2,1,-1,2021-08-07 12:37:57,550077
-1,-1,-3,-3,-2,-1,-1,-1,2021-08-07 12:37:57,550077
-2,-2,-3,-4,-6,-8,-3,-2,2021-08-07 12:37:57,550077
-1,-2,-5,-4,-4,-2,-1,-1,2021-08-07 12:37:57,565102
-2,-1,1,0,3,1,-1,0,2021-08-07 12:37:57,565102
0,-1,1,3,2,2,1,-1,2021-08-07 12:37:57,565102
0,-1,0,-1,2,-1,-2,-2,2021-08-07 12:37:57,565102
1,1,-1,-7,-12,-7,-3,-1,2021-08-07 12:37:57,596104
0,-1,-4,-7,-8,-3,-1,0,2021-08-07 12:37:57,596104
1,-1,0,2,6,4,1,0,2021-08-07 12:37:57,596104
0,-1,-2,2,2,1,1,0,2021-08-07 12:37:57,596104
-3,-6,-2,-2,-1,0,-1,-3,2021-08-07 12:37:57,596104
-2,-3,2,7,11,4,2,-1,2021-08-07 12:37:57,596104
-2,0,2,-2,-4,-5,-3,-2,2021-08-07 12:37:57,628078
-2,1,1,-1,-2,0,-2,-1,2021-08-07 12:37:57,628078
-2,0,-1,-1,-3,-5,-3,-1,2021-08-07 12:37:57,628078
1,1,2,-3,-3,1,3,2,2021-08-07 12:37:57,628078
-3,-2,0,-6,-8,-5,-2,-1,2021-08-07 12:37:57,628078
1,-1,-1,-3,-4,-1,0,-1,2021-08-07 12:37:57,628078
1,4,5,11,21,12,6,4,2021-08-07 12:37:57,659126
-2,-3,-3,-3,-5,-5,-3,-2,2021-08-07 12:37:57,659126
0,0,0,1,-1,-2,1,1,2021-08-07 12:37:57,659126
0,2,-1,1,4,0,0,0,2021-08-07 12:37:57,659126
-3,-4,-5,-9,-9,-5,-4,-2,2021-08-07 12:37:57,659126
-2,-2,-1,-6,-5,-3,-1,-1,2021-08-07 12:37:57,659126
0,0,-2,-1,0,-1,0,0,2021-08-07 12:37:57,675114
1,1,2,3,3,4,3,2,2021-08-07 12:37:57,675114
0,-1,-1,1,2,1,-1,1,2021-08-07 12:37:57,675114
0,-2,-3,0,-2,-2,-2,-1,2021-08-07 12:37:57,675114
-1,-3,-2,-2,-5,-5,-5,-1,2021-08-07 12:37:57,722105
-1,0,1,1,3,3,3,0,2021-08-07 12:37:57,738127
1,1,1,0,2,2,1,0,2021-08-07 12:37:57,754087
-1,-2,-1,-1,-1,-2,-1,-2,2021-08-07 12:37:57,754087
-2,-3,-2,0,-1,0,-1,-2,2021-08-07 12:37:57,754087
-1,0,0,1,3,1,1,0,2021-08-07 12:37:57,770115
-1,0,1,0,-3,-2,-2,-1,2021-08-07 12:37:57,786116
0,3,0,-3,-4,-3,-2,0,2021-08-07 12:37:57,786116
0,1,0,1,2,4,1,1,2021-08-07 12:37:57,786116
-3,-4,-4,-3,-4,-1,-1,-1,2021-08-07 12:37:57,786116
-1,-1,0,0,2,1,1,-1,2021-08-07 12:37:57,786116
0,2,0,0,1,1,0,1,2021-08-07 12:37:57,786116
-2,1,0,0,0,-1,-2,-2,2021-08-07 12:37:57,786116
-1,-4,0,-2,-1,-3,-1,-2,2021-08-07 12:37:57,787114
0,-1,-4,-3,-6,-4,-3,-1,2021-08-07 12:37:57,787114
-1,-3,-2,-3,-4,-4,-1,-1,2021-08-07 12:37:57,787114
-2,-1,-2,-1,0,1,1,-2,2021-08-07 12:37:57,787114
2,1,1,3,2,1,1,0,2021-08-07 12:37:57,787114
2,3,3,3,2,1,2,0,2021-08-07 12:37:57,787114
0,-1,-2,-1,2,0,1,-3,2021-08-07 12:37:57,787114
0,-1,-1,-1,-5,-3,-3,-2,2021-08-07 12:37:57,802117
-2,-3,-3,-3,-2,-1,-2,-3,2021-08-07 12:37:57,818078
0,2,1,2,0,-1,0,0,2021-08-07 12:37:57,834076
0,1,1,2,-1,1,-1,0,2021-08-07 12:37:57,834076
1,1,-1,-2,1,-2,-1,0,2021-08-07 12:37:57,834076
-1,-3,-5,-5,-4,-3,-1,-1,2021-08-07 12:37:57,834076
-2,-4,-5,-8,-9,-7,-4,-2,2021-08-07 12:37:57,834076
-2,-1,-1,0,1,0,-1,0,2021-08-07 12:37:57,834076
0,1,1,0,-1,-1,-1,-1,2021-08-07 12:37:57,834076
0,2,1,3,6,5,5,2,2021-08-07 12:37:57,834076
-3,-3,-3,-4,-3,-3,-3,-1,2021-08-07 12:37:57,834076
-2,-1,0,0,-2,-4,-1,-3,2021-08-07 12:37:57,834076
-1,-2,-2,-1,-1,-1,0,-1,2021-08-07 12:37:57,866077
-1,-1,-1,-2,-4,-5,-3,-1,2021-08-07 12:37:57,866077
0,-2,0,5,12,9,2,0,2021-08-07 12:37:57,866077
-2,-1,-2,2,0,-1,0,-1,2021-08-07 12:37:57,866077
-2,0,0,-2,-1,-1,-1,0,2021-08-07 12:37:57,866077
0,1,2,1,-2,0,-2,-1,2021-08-07 12:37:57,866077
-3,-3,-2,-4,-7,-5,-2,-1,2021-08-07 12:37:57,881077
-1,-1,-1,1,4,1,0,0,2021-08-07 12:37:57,881077
0,0,2,3,2,2,1,1,2021-08-07 12:37:57,897074
-2,-3,-6,-7,-3,-4,-3,-2,2021-08-07 12:37:57,897074
-2,0,-1,0,-4,-3,-2,1,2021-08-07 12:37:57,897074
1,0,-1,-1,-1,0,0,0,2021-08-07 12:37:57,897074
0,2,1,1,2,2,2,1,2021-08-07 12:37:57,923078
0,0,1,2,1,0,-3,-2,2021-08-07 12:37:57,923078
0,-2,-2,-4,-2,-1,0,-1,2021-08-07 12:37:57,923078
0,-1,1,2,0,0,-1,-2,2021-08-07 12:37:57,923078
1,-1,-4,-1,-4,-2,0,-1,2021-08-07 12:37:57,943077
-1,-2,-3,0,0,2,0,0,2021-08-07 12:37:57,943077
-1,0,0,-1,-2,-5,-2,-1,2021-08-07 12:37:57,943077
0,0,0,0,5,6,1,0,2021-08-07 12:37:57,943077
0,0,1,-3,0,-1,0,0,2021-08-07 12:37:57,959103
-3,0,1,-1,-2,-2,-3,-2,2021-08-07 12:37:57,959103
-1,0,-1,0,0,-1,-2,-1,2021-08-07 12:37:57,959103
0,-2,-2,-6,-5,-4,-2,0,2021-08-07 12:37:57,975103
0,1,2,3,1,0,0,-3,2021-08-07 12:37:58,007080
1,-1,-1,-2,-2,-1,0,-1,2021-08-07 12:37:58,023077
-1,-2,-1,-1,-2,-1,-2,-1,2021-08-07 12:37:58,055114
0,-2,-1,-2,-3,-3,-1,-2,2021-08-07 12:37:58,055114
1,-1,1,2,7,5,2,2,2021-08-07 12:37:58,055114
2,2,3,0,-3,-3,-1,0,2021-08-07 12:37:58,055114
-2,-1,-3,-3,-5,-2,-1,-2,2021-08-07 12:37:58,055114
0,0,0,5,8,4,2,0,2021-08-07 12:37:58,055114
0,-2,-5,-5,-7,-4,-2,-1,2021-08-07 12:37:58,055114
1,0,1,3,4,0,1,0,2021-08-07 12:37:58,056112
0,-2,-1,-3,-1,3,1,-1,2021-08-07 12:37:58,056112
-1,-1,0,0,-2,-2,-2,-1,2021-08-07 12:37:58,056112
0,0,-1,4,2,-3,-1,-1,2021-08-07 12:37:58,056112
0,2,-1,1,4,4,1,1,2021-08-07 12:37:58,056112
-1,-2,-5,-7,-9,-7,-3,0,2021-08-07 12:37:58,056112
-1,-2,-3,-3,-6,-5,-2,0,2021-08-07 12:37:58,056112
1,1,2,-2,-1,-2,0,0,2021-08-07 12:37:58,057078
1,-1,-1,0,-3,-1,-2,0,2021-08-07 12:37:58,057078
0,0,1,4,4,2,2,-1,2021-08-07 12:37:58,057078
-2,-1,-1,0,1,1,0,-1,2021-08-07 12:37:58,057078
-2,-2,1,4,6,3,1,1,2021-08-07 12:37:58,086106
-2,-2,0,-6,-4,-2,0,0,2021-08-07 12:37:58,086106
1,1,1,2,2,2,2,1,2021-08-07 12:37:58,086106
-1,-2,-3,-5,-8,-4,-3,-1,2021-08-07 12:37:58,086106
0,0,-1,-3,-5,-2,-3,-2,2021-08-07 12:37:58,102074
-1,-1,0,0,0,2,1,0,2021-08-07 12:37:58,102074
-2,-1,0,1,3,1,-1,-2,2021-08-07 12:37:58,102074
-1,0,-1,-3,-3,-2,-1,-1,2021-08-07 12:37:58,102074
0,2,2,-2,-1,1,0,0,2021-08-07 12:37:58,118078
-1,-2,-4,-4,-2,1,-1,-1,2021-08-07 12:37:58,118078
-1,-2,-3,-6,-10,-7,-3,-1,2021-08-07 12:37:58,134116
-2,-2,-2,0,1,0,-2,0,2021-08-07 12:37:58,134116
-1,-2,-2,4,8,4,2,0,2021-08-07 12:37:58,134116
2,0,0,4,2,1,0,-1,2021-08-07 12:37:58,134116
0,-2,-2,-2,-3,-3,-2,-1,2021-08-07 12:37:58,134116
-1,1,1,3,4,4,3,0,2021-08-07 12:37:58,134116
0,0,0,-2,-2,-2,-1,-1,2021-08-07 12:37:58,165128
-2,0,-2,2,-1,-5,-2,-1,2021-08-07 12:37:58,165128
-3,-1,-2,1,3,1,0,-1,2021-08-07 12:37:58,165128
3,1,0,-1,-1,-3,-1,1,2021-08-07 12:37:58,165128
-2,-3,-3,-4,-6,-2,-3,-2,2021-08-07 12:37:58,181077
-2,-2,1,1,2,0,0,-3,2021-08-07 12:37:58,197115
-1,-1,0,0,-2,-1,-2,-1,2021-08-07 12:37:58,213078
-3,-2,-2,-5,-12,-10,-6,-3,2021-08-07 12:37:58,213078
0,1,0,2,5,5,5,0,2021-08-07 12:37:58,213078
3,4,4,5,12,10,6,3,2021-08-07 12:37:58,213078
1,0,-2,0,5,2,1,-2,2021-08-07 12:37:58,213078
0,0,0,-2,-2,-3,-3,-1,2021-08-07 12:37:58,214078
-4,-6,-5,-7,-10,-12,-7,-4,2021-08-07 12:37:58,214078
1,0,0,0,-3,-1,-1,0,2021-08-07 12:37:58,214078
1,2,1,2,2,2,2,0,2021-08-07 12:37:58,214078
-2,-3,-2,-4,-2,-2,-3,-2,2021-08-07 12:37:58,214078
0,2,1,-1,0,2,2,1,2021-08-07 12:37:58,244116
0,-1,-1,0,-1,-1,0,-2,2021-08-07 12:37:58,260113
2,1,1,-1,-2,-1,0,0,2021-08-07 12:37:58,260113
-1,-2,0,0,1,0,-2,-2,2021-08-07 12:37:58,260113
-1,-2,0,0,0,-1,-1,-2,2021-08-07 12:37:58,260113
-3,-5,-3,-2,-3,-4,-4,-3,2021-08-07 12:37:58,260113
-1,-2,-3,-3,-7,-5,-4,-3,2021-08-07 12:37:58,260113
1,-1,-1,-4,-4,-1,0,-1,2021-08-07 12:37:58,261078
3,2,4,10,16,12,5,3,2021-08-07 12:37:58,276113
1,1,0,-1,3,3,2,1,2021-08-07 12:37:58,292076
-2,-2,-2,-4,-6,-6,-3,-2,2021-08-07 12:37:58,324114
-2,-2,-3,-2,-6,-3,0,-1,2021-08-07 12:37:58,324114
0,1,-1,1,-1,-1,0,0,2021-08-07 12:37:58,324114
-3,-3,-2,-4,-8,-4,-5,-3,2021-08-07 12:37:58,324114
-1,1,1,1,7,3,1,1,2021-08-07 12:37:58,324114
-1,0,-1,-2,-4,-3,-1,-2,2021-08-07 12:37:58,324114
-2,-3,-2,-5,-10,-6,-4,-4,2021-08-07 12:37:58,324114
-2,-2,-3,1,-1,-2,0,-1,2021-08-07 12:37:58,325077
1,1,1,0,0,2,0,0,2021-08-07 12:37:58,325077
0,1,1,2,2,1,0,0,2021-08-07 12:37:58,325077
-2,-2,0,0,-2,-4,-1,-1,2021-08-07 12:37:58,340113
0,-1,-3,-1,-2,1,0,-2,2021-08-07 12:37:58,355077
-1,-2,0,5,3,0,0,0,2021-08-07 12:37:58,355077
2,3,1,-1,3,5,3,1,2021-08-07 12:37:58,355077
-1,-1,0,0,0,0,0,-3,2021-08-07 12:37:58,356078
-2,0,-2,-5,-7,-5,-3,0,2021-08-07 12:37:58,356078
-2,-1,-1,0,-1,0,0,0,2021-08-07 12:37:58,372113
-2,-1,0,2,-1,0,-2,-1,2021-08-07 12:37:58,372113
-1,-3,-4,-4,-6,-6,-3,-3,2021-08-07 12:37:58,372113
2,1,-1,-7,-5,-3,0,1,2021-08-07 12:37:58,372113
0,1,2,9,12,5,4,2,2021-08-07 12:37:58,404118
0,0,3,0,5,5,1,0,2021-08-07 12:37:58,404118
1,0,1,4,12,8,2,2,2021-08-07 12:37:58,404118
-3,-5,-6,-8,-12,-10,-6,-4,2021-08-07 12:37:58,404118
3,1,2,0,4,5,2,0,2021-08-07 12:37:58,404118
-2,-1,-2,-1,-1,-1,0,-2,2021-08-07 12:37:58,405078
-1,-2,-2,-7,-6,-4,-2,0,2021-08-07 12:37:58,420121
-2,1,1,2,4,1,1,0,2021-08-07 12:37:58,436114
-1,-1,-1,-4,-4,-2,-2,-1,2021-08-07 12:37:58,452115
0,-1,-1,0,3,1,-1,0,2021-08-07 12:37:58,452115
0,1,-2,-1,-2,-1,-2,-2,2021-08-07 12:37:58,452115
0,0,0,4,3,2,1,1,2021-08-07 12:37:58,452115
-5,-3,-4,-5,-7,-6,-4,-3,2021-08-07 12:37:58,452115
0,1,-2,1,5,2,2,0,2021-08-07 12:37:58,452115
0,-2,0,0,0,-1,0,0,2021-08-07 12:37:58,452115
2,1,4,4,5,4,0,1,2021-08-07 12:37:58,453115
0,-1,-1,-2,-1,-2,-2,-1,2021-08-07 12:37:58,453115
-2,-5,-5,-16,-20,-13,-6,-3,2021-08-07 12:37:58,453115
2,2,0,-1,-3,2,2,1,2021-08-07 12:37:58,483116
2,3,2,8,16,10,5,2,2021-08-07 12:37:58,483116
1,0,-1,1,5,5,3,1,2021-08-07 12:37:58,483116
-2,-3,-2,-1,-2,-4,-1,0,2021-08-07 12:37:58,483116
-3,-4,-3,-4,-10,-4,-1,-2,2021-08-07 12:37:58,499078
-2,-3,0,-1,5,1,-1,0,2021-08-07 12:37:58,515075
-2,0,2,0,2,1,-1,-3,2021-08-07 12:37:58,515075
-1,-2,0,2,1,1,0,-3,2021-08-07 12:37:58,515075
-2,-2,-1,-1,-5,-6,-4,-1,2021-08-07 12:37:58,515075
-1,-1,-2,-8,-11,-6,-1,-1,2021-08-07 12:37:58,515075
0,-1,-2,-3,0,0,-1,1,2021-08-07 12:37:58,515075
0,0,-1,-1,-4,-4,0,1,2021-08-07 12:37:58,516077
1,1,3,2,6,7,3,1,2021-08-07 12:37:58,547117
1,-1,-3,-3,-7,-4,-2,-1,2021-08-07 12:37:58,563117
-1,-1,0,-2,-4,-4,-1,0,2021-08-07 12:37:58,563117
0,-1,-1,6,8,7,0,0,2021-08-07 12:37:58,563117
-1,2,0,-1,-2,0,-2,1,2021-08-07 12:37:58,563117
-4,-5,-3,-6,-14,-12,-8,-6,2021-08-07 12:37:58,563117
3,4,2,0,2,6,5,3,2021-08-07 12:37:58,564076
2,3,3,10,17,10,4,2,2021-08-07 12:37:58,564076
-2,-1,-2,0,3,0,-1,-2,2021-08-07 12:37:58,579116
-2,-2,-1,4,0,-2,-2,-1,2021-08-07 12:37:58,579116
-3,-4,-5,-3,-8,-6,-3,-4,2021-08-07 12:37:58,579116
1,1,2,-1,-3,-3,1,1,2021-08-07 12:37:58,579116
-2,-1,-1,0,0,-2,-1,0,2021-08-07 12:37:58,610103
0,-2,-2,-1,-6,-4,-1,0,2021-08-07 12:37:58,610103
-2,-2,-4,-5,-7,-2,-4,-1,2021-08-07 12:37:58,610103
2,1,4,4,7,7,4,2,2021-08-07 12:37:58,610103
-3,-2,-3,-5,-5,-6,-3,-3,2021-08-07 12:37:58,610103
-2,-4,-3,-4,-2,-3,-2,-3,2021-08-07 12:37:58,610103
2,2,1,1,1,1,1,0,2021-08-07 12:37:58,626101
-3,-2,-2,-5,-8,-6,-4,-3,2021-08-07 12:37:58,626101
4,4,3,4,6,5,4,5,2021-08-07 12:37:58,642115
-1,0,0,3,2,2,2,4,2021-08-07 12:37:58,658114
-3,-6,-4,-3,-5,-6,-4,-4,2021-08-07 12:37:58,658114
-1,0,-1,-5,-8,-3,-3,-2,2021-08-07 12:37:58,658114
2,1,1,6,12,8,4,1,2021-08-07 12:37:58,658114
0,0,-1,-1,0,0,1,-1,2021-08-07 12:37:58,658114
-2,-1,-2,-2,-3,-5,-3,-1,2021-08-07 12:37:58,659078
-2,-3,-5,-8,-11,-5,-3,-1,2021-08-07 12:37:58,659078
-1,-2,-2,-4,-6,-3,-1,-2,2021-08-07 12:37:58,674078
-2,-2,1,1,1,2,-1,-2,2021-08-07 12:37:58,674078
0,1,0,-1,-1,-3,0,-1,2021-08-07 12:37:58,690080
-1,-1,-1,0,1,1,1,0,2021-08-07 12:37:58,690080
-1,0,3,0,-5,-2,-1,0,2021-08-07 12:37:58,690080
0,2,0,3,10,6,1,0,2021-08-07 12:37:58,690080
-3,0,1,2,-1,0,-1,1,2021-08-07 12:37:58,706114
0,-1,-1,0,2,-3,-1,-2,2021-08-07 12:37:58,706114
0,-1,-2,-2,0,0,1,-1,2021-08-07 12:37:58,738078
-1,-1,-3,-5,-4,-3,0,-2,2021-08-07 12:37:58,754114
-1,-5,-2,-4,-7,-6,-5,-5,2021-08-07 12:37:58,754114
-2,-1,-1,3,4,3,0,-1,2021-08-07 12:37:58,754114
-2,-6,-5,-5,-8,-5,-5,-4,2021-08-07 12:37:58,754114
4,5,4,4,5,3,3,5,2021-08-07 12:37:58,754114
0,0,0,2,2,2,1,0,2021-08-07 12:37:58,754114
-1,-1,0,-1,-3,-3,-1,-1,2021-08-07 12:37:58,755075
-3,-3,-5,-8,-7,-4,-4,-3,2021-08-07 12:37:58,755075
1,3,3,5,3,3,2,2,2021-08-07 12:37:58,755075
-1,-1,-1,0,-4,-2,-1,-1,2021-08-07 12:37:58,755075
-1,-1,-1,1,3,3,1,1,2021-08-07 12:37:58,755075
-2,1,0,-2,-5,-4,-2,1,2021-08-07 12:37:58,786079
0,-2,0,3,10,5,0,0,2021-08-07 12:37:58,791114
1,0,-2,-1,-1,-3,-2,-1,2021-08-07 12:37:58,792079
-2,-3,-4,-4,-9,-7,-4,-5,2021-08-07 12:37:58,792079
-2,0,-1,-5,-13,-9,-4,-3,2021-08-07 12:37:58,792079
4,3,3,4,20,18,12,5,2021-08-07 12:37:58,792079
1,2,3,3,3,3,0,0,2021-08-07 12:37:58,802121
1,1,0,-2,-3,0,2,0,2021-08-07 12:37:58,802121
1,-1,1,1,1,-2,-1,0,2021-08-07 12:37:58,818077
-4,-4,-5,-6,-13,-9,-5,-3,2021-08-07 12:37:58,818077
-3,-6,-4,-4,-1,-1,-2,-2,2021-08-07 12:37:58,818077
4,5,6,3,6,3,3,3,2021-08-07 12:37:58,818077
1,-1,-1,2,0,0,-1,-1,2021-08-07 12:37:58,850114
-3,-3,-4,-10,-17,-10,-5,-3,2021-08-07 12:37:58,866117
-1,-3,-3,1,7,6,2,1,2021-08-07 12:37:58,914114
1,1,-1,-1,0,0,0,1,2021-08-07 12:37:58,914114
-2,-1,-2,0,7,5,2,0,2021-08-07 12:37:58,914114
-4,-3,-2,-3,-11,-9,-6,-4,2021-08-07 12:37:58,914114
0,1,-1,-3,-5,-2,-2,-1,2021-08-07 12:37:58,930078
1,0,-2,-2,5,6,1,1,2021-08-07 12:37:58,930078
0,-1,0,2,0,-4,-1,-1,2021-08-07 12:37:58,930078
0,-1,0,1,3,2,2,0,2021-08-07 12:37:58,930078
-1,-1,-3,-3,-3,1,2,0,2021-08-07 12:37:58,930078
2,2,4,6,3,1,1,3,2021-08-07 12:37:58,946148
1,2,1,-2,0,-1,0,1,2021-08-07 12:37:58,946148
-2,-2,-3,-4,-7,-5,-4,-3,2021-08-07 12:37:58,962113
0,-1,-2,-2,-4,-5,-2,-2,2021-08-07 12:37:58,962113
-5,-4,-5,-5,-10,-9,-6,-5,2021-08-07 12:37:58,962113
1,1,2,6,9,12,6,3,2021-08-07 12:37:58,962113
-2,-2,0,8,11,6,3,0,2021-08-07 12:37:58,962113
-1,-2,-2,-7,-3,-2,0,-2,2021-08-07 12:37:58,962113
-2,-1,-3,0,-2,-3,-4,-2,2021-08-07 12:37:58,962113
-3,-2,-4,-7,-14,-13,-6,-3,2021-08-07 12:37:58,962113
2,1,-2,-6,-2,3,2,2,2021-08-07 12:37:58,962113
2,4,6,16,23,14,7,4,2021-08-07 12:37:58,963116
-2,-1,-1,0,1,2,0,1,2021-08-07 12:37:58,963116
-1,-1,-2,-3,-5,-3,-2,0,2021-08-07 12:37:58,963116
-2,-5,-5,-9,-21,-14,-7,-3,2021-08-07 12:37:58,963116
0,0,1,5,11,8,3,0,2021-08-07 12:37:58,963116
-2,-2,0,-2,-6,-4,-1,-2,2021-08-07 12:37:58,978103
0,1,1,2,5,7,3,2,2021-08-07 12:37:58,978103
2,3,1,5,10,4,3,1,2021-08-07 12:37:58,978103
0,-1,-1,-5,-10,-7,-6,1,2021-08-07 12:37:58,978103
-1,-2,-3,1,3,0,-1,-2,2021-08-07 12:37:58,978103
-3,-2,-1,-4,-5,-4,-3,-3,2021-08-07 12:37:58,994103
0,2,4,1,-1,1,1,1,2021-08-07 12:37:58,994103
-3,-3,-5,-9,-13,-10,-4,-3,2021-08-07 12:37:59,010102
-1,-2,1,-2,-6,-5,-2,0,2021-08-07 12:37:59,010102
1,-1,-1,3,5,3,2,2,2021-08-07 12:37:59,042113
0,0,-3,-2,7,9,3,2,2021-08-07 12:37:59,042113
1,0,0,4,5,3,3,-2,2021-08-07 12:37:59,042113
-2,-2,-2,-4,-8,-7,-5,-1,2021-08-07 12:37:59,042113
-1,-3,-4,0,-6,-8,-3,-2,2021-08-07 12:37:59,042113
5,5,5,3,8,13,9,5,2021-08-07 12:37:59,042113
-1,-2,-1,5,15,6,0,-1,2021-08-07 12:37:59,043081
2,2,3,2,2,2,3,-1,2021-08-07 12:37:59,043081
-1,0,-1,2,6,3,1,0,2021-08-07 12:37:59,058078
-1,0,-1,-4,-11,-13,-6,-3,2021-08-07 12:37:59,058078
-1,-2,-3,-5,-9,-5,-4,-1,2021-08-07 12:37:59,058078
-3,-5,-7,-11,-13,-10,-6,-3,2021-08-07 12:37:59,058078
-1,-3,-2,-6,-5,0,0,-1,2021-08-07 12:37:59,089078
-4,-6,-5,-8,-21,-25,-14,-7,2021-08-07 12:37:59,105116
0,0,2,-3,-9,6,5,2,2021-08-07 12:37:59,105116
5,5,7,22,55,32,14,6,2021-08-07 12:37:59,105116
0,3,0,0,2,0,1,1,2021-08-07 12:37:59,105116
-3,-4,-5,-2,4,-1,-3,-2,2021-08-07 12:37:59,105116
0,0,-1,-6,-10,-6,-2,-1,2021-08-07 12:37:59,121079
-3,-3,-3,-3,-9,-7,-3,-2,2021-08-07 12:37:59,137075
0,1,0,4,7,5,1,1,2021-08-07 12:37:59,137075
0,-3,-3,-3,-4,-4,-2,0,2021-08-07 12:37:59,137075
-3,-4,-3,-4,-9,-11,-7,-4,2021-08-07 12:37:59,137075
2,1,-1,-5,-6,-1,2,2,2021-08-07 12:37:59,137075
0,2,1,2,7,6,2,0,2021-08-07 12:37:59,153111
-2,0,1,1,3,4,1,1,2021-08-07 12:37:59,153111
-5,-6,-3,-1,-9,-12,-6,-4,2021-08-07 12:37:59,169111
-2,-4,-8,-22,-28,-13,-6,-3,2021-08-07 12:37:59,184113
6,5,8,18,33,21,9,4,2021-08-07 12:37:59,184113
2,2,2,2,7,4,2,-1,2021-08-07 12:37:59,184113
-2,-1,-3,0,2,1,-1,-2,2021-08-07 12:37:59,184113
-5,-4,-4,-2,-13,-15,-10,-6,2021-08-07 12:37:59,184113
-4,-5,-5,-12,-31,-24,-12,-3,2021-08-07 12:37:59,184113
4,3,5,11,19,26,14,5,2021-08-07 12:37:59,184113
0,2,2,4,12,3,2,1,2021-08-07 12:37:59,184113
-2,-3,-2,-7,-5,-3,-3,-3,2021-08-07 12:37:59,185078
-2,-4,-5,-8,-12,-10,-5,-3,2021-08-07 12:37:59,200113
-2,-4,-3,-6,-14,-10,-7,-5,2021-08-07 12:37:59,216078
3,4,6,11,18,12,7,5,2021-08-07 12:37:59,216078
1,4,3,6,5,6,5,2,2021-08-07 12:37:59,216078
2,4,2,8,18,12,5,0,2021-08-07 12:37:59,216078
-3,-4,-6,-11,-21,-20,-11,-4,2021-08-07 12:37:59,216078
-1,-3,-7,-14,-16,-8,-4,-2,2021-08-07 12:37:59,216078
4,4,5,8,24,16,8,6,2021-08-07 12:37:59,216078
-2,-4,-3,-6,-15,-8,-6,-5,2021-08-07 12:37:59,248077
1,3,3,9,17,6,3,2,2021-08-07 12:37:59,248077
-2,-3,-4,-9,-12,-11,-7,-3,2021-08-07 12:37:59,248077
-2,-1,-3,2,7,6,0,-2,2021-08-07 12:37:59,248077
2,4,5,9,10,11,6,4,2021-08-07 12:37:59,264101
-3,-1,-4,-6,-7,-5,-6,-3,2021-08-07 12:37:59,264101
0,0,-5,-13,-16,-10,-5,-3,2021-08-07 12:37:59,264101
-2,-2,2,2,-8,-4,-2,-1,2021-08-07 12:37:59,264101
2,2,3,7,22,14,6,2,2021-08-07 12:37:59,280075
1,0,2,5,13,10,5,2,2021-08-07 12:37:59,280075
-1,-1,-2,-3,-6,-8,-6,-1,2021-08-07 12:37:59,280075
-4,-7,-8,-16,-36,-21,-10,-6,2021-08-07 12:37:59,280075
1,2,4,11,18,8,2,2,2021-08-07 12:37:59,312075
-1,0,-2,-5,-8,-4,-1,-1,2021-08-07 12:37:59,328104
3,2,5,9,17,19,9,3,2021-08-07 12:37:59,344101
0,-1,-1,1,6,2,1,0,2021-08-07 12:37:59,344101
-3,-4,-6,-8,-15,-13,-7,-4,2021-08-07 12:37:59,344101
1,0,-2,-5,3,3,0,0,2021-08-07 12:37:59,344101
0,0,3,5,2,2,0,-1,2021-08-07 12:37:59,344101
0,1,-2,1,4,2,1,0,2021-08-07 12:37:59,344101
-5,-5,-7,-14,-23,-19,-10,-6,2021-08-07 12:37:59,344101
-5,-8,-8,-20,-35,-29,-16,-7,2021-08-07 12:37:59,345115
5,5,5,15,15,22,13,7,2021-08-07 12:37:59,345115
2,6,6,20,40,20,9,5,2021-08-07 12:37:59,345115
-2,-1,-5,-8,-10,-5,-2,-1,2021-08-07 12:37:59,360113
-3,-3,-4,-7,-13,-14,-9,-4,2021-08-07 12:37:59,375104
-2,-3,-4,-8,-14,-7,-3,-3,2021-08-07 12:37:59,391114
1,-1,3,3,12,9,3,2,2021-08-07 12:37:59,391114
0,-2,-1,-1,-2,0,0,0,2021-08-07 12:37:59,391114
-1,1,2,1,-2,-1,-1,0,2021-08-07 12:37:59,391114
-5,-6,-5,-9,-16,-15,-10,-5,2021-08-07 12:37:59,391114
4,2,5,10,20,15,6,2,2021-08-07 12:37:59,391114
0,0,-2,-1,0,1,1,-2,2021-08-07 12:37:59,407074
2,0,0,5,11,13,6,2,2021-08-07 12:37:59,407074
1,1,-1,0,3,-2,1,2,2021-08-07 12:37:59,407074
-1,-2,-3,-10,-13,-7,-3,0,2021-08-07 12:37:59,407074
-2,-4,-1,0,-1,2,1,-2,2021-08-07 12:37:59,423125
-5,-1,2,15,20,11,5,-3,2021-08-07 12:37:59,423125
-3,-2,-1,-6,-12,-10,-8,-4,2021-08-07 12:37:59,423125
-2,0,-1,-2,-2,-2,-3,-2,2021-08-07 12:37:59,423125
-2,-2,0,-4,-5,-4,-4,0,2021-08-07 12:37:59,439115
3,2,0,3,11,10,5,3,2021-08-07 12:37:59,439115
-3,-5,-6,-8,-14,-13,-7,-5,2021-08-07 12:37:59,439115
-1,0,-2,-4,-7,0,0,0,2021-08-07 12:37:59,439115
0,0,-2,-4,-4,-3,-2,0,2021-08-07 12:37:59,470076
1,-1,1,4,-1,-2,-1,-2,2021-08-07 12:37:59,470076
-1,0,-1,-4,0,2,2,-1,2021-08-07 12:37:59,470076
-3,-3,-1,-2,-7,-3,-3,-2,2021-08-07 12:37:59,470076
5,5,5,14,29,22,10,5,2021-08-07 12:37:59,486102
-2,-1,-3,-6,-7,-2,-2,-2,2021-08-07 12:37:59,486102
-1,0,-2,4,10,3,2,-1,2021-08-07 12:37:59,486102
-5,-6,-3,-9,-20,-20,-11,-6,2021-08-07 12:37:59,486102
-2,-3,-1,-8,-14,-10,-5,-1,2021-08-07 12:37:59,502114
3,3,2,7,14,10,7,3,2021-08-07 12:37:59,502114
-4,-6,-5,-1,-9,-5,-4,-4,2021-08-07 12:37:59,502114
5,5,6,15,38,24,14,6,2021-08-07 12:37:59,502114
-4,-4,-6,-13,-21,-17,-8,-5,2021-08-07 12:37:59,534114
0,-2,-2,-6,-10,-7,-5,-2,2021-08-07 12:37:59,534114
2,1,1,1,7,3,1,2,2021-08-07 12:37:59,534114
-1,-2,-1,4,2,1,-2,-2,2021-08-07 12:37:59,534114
1,1,-1,3,1,5,3,0,2021-08-07 12:37:59,534114
-2,1,1,-1,-9,-7,-2,0,2021-08-07 12:37:59,534114
-2,-3,-3,-2,0,-3,-2,-2,2021-08-07 12:37:59,550075
-2,-3,-4,-5,-11,-8,-3,-2,2021-08-07 12:37:59,550075
1,1,3,7,10,7,3,2,2021-08-07 12:37:59,566117
0,-2,-3,-4,3,-1,-2,0,2021-08-07 12:37:59,566117
-1,-1,1,-3,0,0,-2,-1,2021-08-07 12:37:59,566117
-4,-3,-3,-7,-17,-11,-5,-3,2021-08-07 12:37:59,566117
-1,-1,1,2,6,3,3,-1,2021-08-07 12:37:59,582079
-3,-1,0,4,1,1,-1,-1,2021-08-07 12:37:59,598125
2,2,-1,2,9,7,4,3,2021-08-07 12:37:59,598125
-2,-1,-4,-7,-11,-11,-7,-3,2021-08-07 12:37:59,598125
-2,1,0,-1,-2,-3,-3,-2,2021-08-07 12:37:59,598125
-1,-2,-2,-1,6,5,2,1,2021-08-07 12:37:59,598125
0,1,2,2,4,3,3,1,2021-08-07 12:37:59,599077
-1,1,2,4,2,3,2,1,2021-08-07 12:37:59,599077
-2,-3,-4,-6,-6,-6,-2,-1,2021-08-07 12:37:59,629113
2,2,0,-9,-4,-1,1,0,2021-08-07 12:37:59,629113
-1,1,-1,2,3,0,-1,-2,2021-08-07 12:37:59,629113
-4,-5,-5,-7,-15,-13,-8,-5,2021-08-07 12:37:59,629113
2,2,1,-1,-8,1,0,0,2021-08-07 12:37:59,643078
2,5,7,19,36,21,10,3,2021-08-07 12:37:59,643078
