EMG 1,EMG 2,EMG 3,EMG 4,EMG 5,EMG 6,EMG 7,EMG 8,Timestamp,Milliseconds
-4,-6,-10,-15,-11,-5,-4,-3,2021-08-07 12:21:08,781723
-2,-1,-5,-16,-11,-6,-3,-2,2021-08-07 12:21:08,781723
0,-1,2,1,-8,-5,-2,0,2021-08-07 12:21:08,781723
-3,-4,-5,-34,-27,-11,-5,-2,2021-08-07 12:21:08,781723
7,11,32,74,75,31,12,5,2021-08-07 12:21:08,781723
-8,-10,-12,-7,-22,-12,-7,-5,2021-08-07 12:21:08,781723
6,10,8,20,40,19,10,7,2021-08-07 12:21:08,781723
-7,-8,-24,-45,-52,-27,-12,-8,2021-08-07 12:21:08,781723
3,3,1,7,20,8,4,1,2021-08-07 12:21:08,797760
1,1,8,4,-1,-2,-1,-1,2021-08-07 12:21:08,797760
1,4,6,3,-1,0,-1,1,2021-08-07 12:21:08,797760
-4,-5,-3,8,0,-1,-2,-4,2021-08-07 12:21:08,797760
2,5,0,-15,-23,-8,-2,1,2021-08-07 12:21:08,813759
-2,-1,0,4,11,4,0,-2,2021-08-07 12:21:08,813759
-5,-5,-5,-21,-24,-11,-6,-4,2021-08-07 12:21:08,829724
-2,-8,-4,-14,-7,-6,-3,-4,2021-08-07 12:21:08,829724
1,0,-1,8,4,4,1,1,2021-08-07 12:21:08,829724
1,-2,-11,6,17,6,3,0,2021-08-07 12:21:08,829724
-1,0,-1,-1,-6,-5,-2,-2,2021-08-07 12:21:08,860722
0,1,2,-7,-13,-6,-2,-1,2021-08-07 12:21:08,860722
9,14,11,14,6,6,4,7,2021-08-07 12:21:08,891782
-7,-9,-15,-33,-35,-18,-8,-6,2021-08-07 12:21:08,907759
-2,-3,-3,0,3,1,-1,-1,2021-08-07 12:21:08,920761
-5,-7,-8,-20,-19,-11,-6,-5,2021-08-07 12:21:08,920761
-3,-6,-8,-2,0,-3,-1,-4,2021-08-07 12:21:08,920761
1,3,0,-7,-6,-4,-1,0,2021-08-07 12:21:08,921724
4,5,11,19,8,7,4,3,2021-08-07 12:21:08,921724
-3,-3,-1,-5,-2,-3,-3,-3,2021-08-07 12:21:08,921724
3,3,8,13,19,10,5,3,2021-08-07 12:21:08,921724
1,1,0,18,18,6,2,0,2021-08-07 12:21:08,921724
-4,-4,-5,-15,-23,-11,-5,-5,2021-08-07 12:21:08,921724
1,0,11,16,24,11,5,2,2021-08-07 12:21:08,921724
5,11,4,-1,2,2,4,5,2021-08-07 12:21:08,921724
0,0,1,-10,-20,-10,-3,-2,2021-08-07 12:21:08,921724
-4,-8,-16,-18,-3,-3,-1,-2,2021-08-07 12:21:08,938725
1,1,4,26,19,10,5,3,2021-08-07 12:21:08,953725
-4,-6,-1,-19,-15,-6,-4,-1,2021-08-07 12:21:08,953725
-2,-6,-18,-16,-7,-4,-3,-3,2021-08-07 12:21:08,953725
-12,-11,-17,-47,-56,-32,-16,-11,2021-08-07 12:21:08,953725
0,4,10,25,30,17,6,1,2021-08-07 12:21:08,953725
1,4,21,48,46,18,7,-1,2021-08-07 12:21:08,953725
4,5,16,16,14,8,2,1,2021-08-07 12:21:08,954724
-2,0,0,9,5,1,0,-1,2021-08-07 12:21:08,985760
-1,-4,-17,-44,-54,-27,-11,-3,2021-08-07 12:21:08,985760
-2,-2,-6,-8,-5,-2,-1,-1,2021-08-07 12:21:08,985760
0,-2,1,10,14,8,2,2,2021-08-07 12:21:08,985760
-5,-9,-10,-15,-18,-11,-5,-5,2021-08-07 12:21:09,001761
3,4,0,6,9,6,3,3,2021-08-07 12:21:09,001761
-6,-8,-14,-23,-38,-18,-10,-5,2021-08-07 12:21:09,001761
-2,1,4,7,20,11,4,1,2021-08-07 12:21:09,001761
8,11,23,49,75,34,14,8,2021-08-07 12:21:09,017725
-6,-5,-4,-2,-18,-11,-6,-7,2021-08-07 12:21:09,017725
-3,-1,-3,-15,-27,-15,-6,-3,2021-08-07 12:21:09,033728
-1,0,2,-10,-15,-8,-1,0,2021-08-07 12:21:09,033728
1,0,-8,3,8,4,1,0,2021-08-07 12:21:09,033728
3,1,6,9,12,5,3,1,2021-08-07 12:21:09,033728
0,-2,1,1,-1,-1,0,-1,2021-08-07 12:21:09,033728
-1,-2,3,13,5,3,-1,-2,2021-08-07 12:21:09,033728
-5,-5,-9,-25,-19,-7,-3,-4,2021-08-07 12:21:09,065761
7,9,6,15,27,9,7,4,2021-08-07 12:21:09,065761
-4,-6,-9,-13,-17,-10,-6,-4,2021-08-07 12:21:09,065761
-5,-7,-4,-19,-25,-14,-5,-4,2021-08-07 12:21:09,065761
6,9,20,34,29,15,6,3,2021-08-07 12:21:09,065761
-2,-5,-12,-3,-8,-4,-2,-2,2021-08-07 12:21:09,065761
0,-2,-7,-9,2,2,1,-2,2021-08-07 12:21:09,081723
-7,-8,-12,-21,-27,-14,-7,-5,2021-08-07 12:21:09,081723
4,3,3,-3,0,2,2,4,2021-08-07 12:21:09,097759
-2,-1,3,5,10,3,0,-1,2021-08-07 12:21:09,097759
2,0,-1,1,0,-1,-1,1,2021-08-07 12:21:09,097759
1,0,-1,6,14,8,3,1,2021-08-07 12:21:09,097759
-8,-8,-6,-15,-38,-21,-11,-8,2021-08-07 12:21:09,129724
7,14,26,54,58,30,15,10,2021-08-07 12:21:09,145722
1,-2,1,7,21,11,5,2,2021-08-07 12:21:09,161777
0,-2,-17,-19,-9,-5,-2,-2,2021-08-07 12:21:09,177726
-8,-12,-8,-18,-27,-17,-9,-6,2021-08-07 12:21:09,177726
-6,-6,-19,-40,-40,-19,-8,-5,2021-08-07 12:21:09,177726
-3,-8,-5,4,18,7,0,-2,2021-08-07 12:21:09,177726
7,16,19,26,18,10,6,7,2021-08-07 12:21:09,177726
-1,-1,1,8,9,4,3,2,2021-08-07 12:21:09,177726
-8,-10,-8,-25,-41,-19,-10,-7,2021-08-07 12:21:09,177726
-4,-5,-4,-18,-31,-15,-8,-5,2021-08-07 12:21:09,177726
4,6,22,43,50,23,8,4,2021-08-07 12:21:09,177726
2,2,-9,-2,1,1,2,2,2021-08-07 12:21:09,177726
-6,-6,-7,-6,3,-1,-4,-5,2021-08-07 12:21:09,178761
0,1,1,8,11,7,3,1,2021-08-07 12:21:09,178761
-4,-5,-2,-1,-1,-3,-3,-3,2021-08-07 12:21:09,178761
-4,-3,-10,-32,-41,-21,-10,-4,2021-08-07 12:21:09,208724
8,10,15,19,22,10,6,5,2021-08-07 12:21:09,224759
-1,-1,-1,3,-2,-1,-1,-2,2021-08-07 12:21:09,240772
1,2,1,-3,-10,-5,0,0,2021-08-07 12:21:09,256761
-3,-6,-1,9,13,6,0,-2,2021-08-07 12:21:09,256761
-8,-12,-16,-36,-40,-18,-9,-6,2021-08-07 12:21:09,256761
3,8,13,21,13,3,1,2,2021-08-07 12:21:09,256761
4,0,-5,-12,-16,-6,-2,0,2021-08-07 12:21:09,256761
-5,-8,-23,-51,-55,-25,-10,-8,2021-08-07 12:21:09,256761
-3,-5,2,29,50,19,5,-1,2021-08-07 12:21:09,256761
-3,-2,2,11,3,2,0,-1,2021-08-07 12:21:09,256761
5,7,16,37,42,19,9,3,2021-08-07 12:21:09,257760
2,5,16,26,20,10,4,3,2021-08-07 12:21:09,257760
-4,-5,-12,-25,-34,-18,-10,-5,2021-08-07 12:21:09,257760
2,4,7,-7,-11,-5,-2,1,2021-08-07 12:21:09,257760
-1,-3,-10,-13,-17,-7,-5,-1,2021-08-07 12:21:09,257760
-1,-4,-13,-26,-3,-2,-3,-3,2021-08-07 12:21:09,287722
-1,-1,-6,-10,-5,-2,1,0,2021-08-07 12:21:09,287722
-2,-3,0,5,11,3,1,-1,2021-08-07 12:21:09,287722
-1,-1,0,-16,-33,-15,-6,-2,2021-08-07 12:21:09,287722
7,8,21,37,35,18,7,5,2021-08-07 12:21:09,303773
-6,-11,-2,7,1,-3,-6,-7,2021-08-07 12:21:09,304725
0,-3,-23,-35,-36,-18,-6,-3,2021-08-07 12:21:09,304725
-1,-1,-5,6,22,9,2,0,2021-08-07 12:21:09,304725
-1,1,11,15,6,5,2,1,2021-08-07 12:21:09,319723
1,-1,-6,-13,-13,-4,-2,0,2021-08-07 12:21:09,319723
-4,-5,3,3,-1,-1,-4,-3,2021-08-07 12:21:09,319723
-7,-8,-4,-15,-19,-12,-8,-7,2021-08-07 12:21:09,319723
5,5,-7,10,20,9,6,4,2021-08-07 12:21:09,334726
0,0,6,0,-9,-3,0,-1,2021-08-07 12:21:09,349914
3,5,-1,-5,-2,-1,1,1,2021-08-07 12:21:09,365909
-4,-5,-5,-9,-11,-5,-1,-5,2021-08-07 12:21:09,380873
0,0,11,14,12,5,1,1,2021-08-07 12:21:09,380873
5,9,4,1,-1,1,1,4,2021-08-07 12:21:09,380873
-2,-3,-2,-5,-3,-1,-1,-3,2021-08-07 12:21:09,380873
4,2,-3,-4,6,5,3,3,2021-08-07 12:21:09,380873
-14,-17,-19,-17,-11,-10,-9,-13,2021-08-07 12:21:09,380873
2,3,-1,-1,-3,-1,0,1,2021-08-07 12:21:09,380873
4,1,6,9,8,7,7,5,2021-08-07 12:21:09,380873
-8,-5,5,7,2,-5,-4,-4,2021-08-07 12:21:09,381873
1,6,3,1,-1,-4,-3,-2,2021-08-07 12:21:09,395909
-2,-3,-3,-8,-7,-3,-2,0,2021-08-07 12:21:09,395909
-4,-4,-2,2,5,0,-2,-2,2021-08-07 12:21:09,395909
0,-1,-4,-4,-1,2,1,1,2021-08-07 12:21:09,395909
4,7,5,4,3,2,2,5,2021-08-07 12:21:09,411877
-4,-5,-12,-26,-31,-16,-9,-6,2021-08-07 12:21:09,411877
4,3,8,19,12,7,5,4,2021-08-07 12:21:09,427921
-1,1,3,17,31,12,3,0,2021-08-07 12:21:09,443873
-3,-5,5,13,7,1,-1,-4,2021-08-07 12:21:09,459909
5,8,2,9,7,6,5,5,2021-08-07 12:21:09,459909
1,1,-7,-26,-23,-11,-5,-1,2021-08-07 12:21:09,459909
-4,-5,-11,-17,-18,-8,-7,-4,2021-08-07 12:21:09,459909
2,4,12,13,11,5,3,3,2021-08-07 12:21:09,459909
-1,-4,3,4,-1,0,1,-1,2021-08-07 12:21:09,459909
-8,-10,-14,-9,-6,-6,-5,-5,2021-08-07 12:21:09,459909
4,6,1,-4,0,2,1,1,2021-08-07 12:21:09,459909
-2,-2,-13,-18,-13,-6,-3,-2,2021-08-07 12:21:09,475874
-1,1,-3,-24,-26,-11,-5,-2,2021-08-07 12:21:09,475874
3,4,13,40,44,20,9,3,2021-08-07 12:21:09,475874
2,2,5,5,-10,-2,0,-1,2021-08-07 12:21:09,475874
-1,-7,-13,-1,7,2,2,-2,2021-08-07 12:21:09,507874
-7,-10,-6,-16,-12,-5,-5,-3,2021-08-07 12:21:09,507874
13,19,23,52,77,33,16,9,2021-08-07 12:21:09,507874
-5,-4,-2,-11,-18,-10,-4,-4,2021-08-07 12:21:09,507874
2,4,3,-4,-11,-4,0,2,2021-08-07 12:21:09,507874
-3,-2,-3,-10,-18,-9,-5,-3,2021-08-07 12:21:09,507874
-6,-6,-7,-26,-31,-14,-9,-6,2021-08-07 12:21:09,523875
1,0,10,25,17,6,3,2,2021-08-07 12:21:09,539921
0,-2,-13,-16,-6,-2,-2,-1,2021-08-07 12:21:09,555873
0,-1,-1,11,16,6,3,0,2021-08-07 12:21:09,555873
-7,-6,-9,-20,-22,-11,-7,-4,2021-08-07 12:21:09,555873
-3,-2,-2,-11,-20,-10,-4,-2,2021-08-07 12:21:09,555873
-6,-10,-8,-29,-33,-13,-7,-4,2021-08-07 12:21:09,555873
5,7,10,44,62,27,9,5,2021-08-07 12:21:09,556873
0,1,-9,-13,-7,-4,-2,-1,2021-08-07 12:21:09,556873
-4,-1,-3,-12,-12,-7,-2,-1,2021-08-07 12:21:09,556873
0,1,7,-17,-35,-15,-4,-2,2021-08-07 12:21:09,571875
0,2,16,50,48,21,7,2,2021-08-07 12:21:09,571875
0,-2,-8,-12,-6,0,2,3,2021-08-07 12:21:09,571875
-12,-19,-38,-52,-30,-21,-14,-12,2021-08-07 12:21:09,571875
-1,2,3,18,19,10,0,1,2021-08-07 12:21:09,602921
2,3,4,-1,-10,-2,-1,-1,2021-08-07 12:21:09,602921
0,0,10,10,-2,-3,-2,-2,2021-08-07 12:21:09,602921
4,7,9,15,9,6,4,2,2021-08-07 12:21:09,602921
2,4,4,4,5,2,1,2,2021-08-07 12:21:09,618872
-2,-3,0,-8,-13,-9,-3,-2,2021-08-07 12:21:09,618872
-1,-1,-3,4,-5,-1,-3,-2,2021-08-07 12:21:09,618872
-1,-8,-15,-17,-5,-1,-1,1,2021-08-07 12:21:09,618872
1,-1,-1,15,25,10,4,1,2021-08-07 12:21:09,634909
1,1,-1,-9,-5,0,-1,-1,2021-08-07 12:21:09,634909
-8,-8,-2,-14,-19,-12,-5,-7,2021-08-07 12:21:09,634909
-7,-4,-1,-9,-21,-9,-6,-6,2021-08-07 12:21:09,634909
2,10,18,34,32,14,5,2,2021-08-07 12:21:09,650874
0,-2,1,6,18,7,1,-2,2021-08-07 12:21:09,650874
4,6,1,8,7,3,1,1,2021-08-07 12:21:09,666889
-2,-4,0,7,4,1,-1,-4,2021-08-07 12:21:09,666889
4,5,0,-8,-10,-6,-2,0,2021-08-07 12:21:09,682914
-4,-7,-10,-21,-31,-14,-5,-2,2021-08-07 12:21:09,682914
-1,-3,-4,-7,-9,-4,-1,0,2021-08-07 12:21:09,682914
-2,-6,-9,-8,8,4,-1,1,2021-08-07 12:21:09,682914
-6,-11,-12,-20,-14,-9,-5,-5,2021-08-07 12:21:09,693911
2,5,11,11,6,3,2,1,2021-08-07 12:21:09,694873
-2,-3,5,3,-10,-7,-3,-2,2021-08-07 12:21:09,694873
9,7,5,7,5,6,6,6,2021-08-07 12:21:09,694873
-1,-4,-11,-1,18,6,0,-1,2021-08-07 12:21:09,713910
-3,-3,-9,-10,-11,-8,-4,-2,2021-08-07 12:21:09,714139
-5,-4,-1,1,8,1,-1,-2,2021-08-07 12:21:09,714139
2,8,11,8,-11,-5,-3,-1,2021-08-07 12:21:09,714139
-1,-2,0,-9,-19,-7,-2,-1,2021-08-07 12:21:09,744871
3,1,-1,31,47,23,9,2,2021-08-07 12:21:09,744871
0,-3,-5,3,16,5,0,0,2021-08-07 12:21:09,744871
0,4,12,17,16,4,3,1,2021-08-07 12:21:09,760909
4,6,5,0,-6,-2,0,2,2021-08-07 12:21:09,760909
-9,-12,-26,-49,-50,-27,-13,-7,2021-08-07 12:21:09,760909
-3,-4,-5,-8,-12,-5,-3,-2,2021-08-07 12:21:09,760909
0,-2,-3,-8,-7,-4,-2,-1,2021-08-07 12:21:09,760909
4,6,16,33,32,16,7,3,2021-08-07 12:21:09,776921
-1,-4,-4,-5,-9,-5,-3,-2,2021-08-07 12:21:09,776921
-1,1,2,-9,-12,-4,-2,0,2021-08-07 12:21:09,776921
0,-3,-6,-3,11,3,4,0,2021-08-07 12:21:09,776921
-6,-8,-1,-8,-8,-6,-5,-3,2021-08-07 12:21:09,807909
0,1,-12,-9,-9,-6,-3,-2,2021-08-07 12:21:09,823909
0,-1,-3,-6,5,1,-1,1,2021-08-07 12:21:09,839921
-1,5,12,6,-11,-1,-1,0,2021-08-07 12:21:09,855872
-1,-2,5,22,12,2,1,-1,2021-08-07 12:21:09,855872
6,7,10,17,24,12,9,4,2021-08-07 12:21:09,855872
-3,-7,-12,-30,-24,-11,-5,-5,2021-08-07 12:21:09,855872
-1,-4,-14,-10,4,1,-2,-1,2021-08-07 12:21:09,855872
-3,-5,-12,-7,-2,-3,-2,-3,2021-08-07 12:21:09,855872
-2,-2,3,-1,-17,-11,-4,-2,2021-08-07 12:21:09,855872
1,0,-1,-2,-5,-1,0,-1,2021-08-07 12:21:09,855872
0,1,10,16,18,9,4,3,2021-08-07 12:21:09,855872
1,3,1,3,3,0,1,1,2021-08-07 12:21:09,856910
-2,-1,5,-7,-9,-5,-3,-3,2021-08-07 12:21:09,856910
-1,-2,4,-7,-17,-10,-1,-1,2021-08-07 12:21:09,856910
-1,-6,-14,6,9,2,0,-1,2021-08-07 12:21:09,856910
4,5,-5,-4,22,9,2,2,2021-08-07 12:21:09,887874
-1,2,2,-11,-9,-3,-1,-1,2021-08-07 12:21:09,903922
-7,-11,-11,-3,-5,-6,-7,-5,2021-08-07 12:21:09,919875
-2,-1,9,10,-2,-2,-1,0,2021-08-07 12:21:09,919875
8,13,13,14,-3,1,4,4,2021-08-07 12:21:09,919875
3,5,9,21,19,10,4,3,2021-08-07 12:21:09,919875
-8,-8,-19,-28,-20,-10,-7,-6,2021-08-07 12:21:09,919875
1,0,14,14,9,4,1,0,2021-08-07 12:21:09,919875
-1,-3,-8,2,5,2,-1,-1,2021-08-07 12:21:09,919875
1,-1,-7,-9,-8,-3,-1,1,2021-08-07 12:21:09,919875
-11,-15,-33,-46,-54,-27,-14,-10,2021-08-07 12:21:09,919875
2,6,17,37,53,23,8,4,2021-08-07 12:21:09,920909
5,7,17,19,15,8,5,3,2021-08-07 12:21:09,950910
-1,-1,6,7,-2,-1,-1,-1,2021-08-07 12:21:09,950910
4,2,4,-2,-1,0,1,1,2021-08-07 12:21:09,950910
-6,-7,-21,-36,-34,-19,-9,-9,2021-08-07 12:21:09,950910
-4,-5,0,0,1,0,0,-1,2021-08-07 12:21:09,966891
-3,-2,8,18,11,3,0,1,2021-08-07 12:21:09,966891
5,8,0,13,14,9,5,3,2021-08-07 12:21:09,966891
-4,-8,-20,-29,-24,-14,-6,-3,2021-08-07 12:21:09,966891
2,4,2,-8,-3,2,0,0,2021-08-07 12:21:09,982914
-4,-6,-2,-3,-8,-5,-2,-2,2021-08-07 12:21:09,982914
2,5,6,8,0,-1,-2,2,2021-08-07 12:21:09,982914
4,8,20,34,21,14,7,4,2021-08-07 12:21:09,982914
-4,-6,-13,-10,4,-1,-1,-3,2021-08-07 12:21:10,014876
-3,-5,-12,-18,-13,-5,-4,-2,2021-08-07 12:21:10,014876
2,3,15,13,12,5,3,2,2021-08-07 12:21:10,014876
-3,-2,-4,-15,-18,-10,-5,-1,2021-08-07 12:21:10,014876
-1,-2,7,5,-7,-6,-3,-1,2021-08-07 12:21:10,030910
3,2,0,3,7,5,3,0,2021-08-07 12:21:10,030910
-2,-5,-22,-18,2,0,-1,-2,2021-08-07 12:21:10,030910
-4,-4,-11,-21,-13,-7,-4,-1,2021-08-07 12:21:10,030910
-3,-2,4,2,-6,-2,-2,-3,2021-08-07 12:21:10,046873
3,8,26,25,11,4,4,4,2021-08-07 12:21:10,046873
2,4,25,33,14,8,5,1,2021-08-07 12:21:10,046873
0,-5,-35,-25,-6,-1,-1,-1,2021-08-07 12:21:10,046873
-5,-8,-18,-33,-22,-12,-8,-4,2021-08-07 12:21:10,062873
-3,-5,-15,-31,-14,-6,-3,-3,2021-08-07 12:21:10,062873
2,5,17,28,21,10,5,2,2021-08-07 12:21:10,062873
4,5,24,25,6,0,2,1,2021-08-07 12:21:10,062873
-4,-5,-6,-7,-13,-7,-4,-3,2021-08-07 12:21:10,078873
-10,-13,-25,-23,-9,-7,-9,-8,2021-08-07 12:21:10,078873
2,4,-5,-10,3,2,0,3,2021-08-07 12:21:10,081909
-1,-2,4,-4,-10,-5,-3,-2,2021-08-07 12:21:10,081909
5,3,-1,11,12,6,4,5,2021-08-07 12:21:10,110909
1,-1,1,2,6,1,1,0,2021-08-07 12:21:10,110909
0,0,2,10,7,2,1,1,2021-08-07 12:21:10,110909
-1,1,1,0,-2,-3,-2,-3,2021-08-07 12:21:10,110909
0,3,14,0,-7,-5,-2,-2,2021-08-07 12:21:10,126921
2,3,3,9,1,1,1,1,2021-08-07 12:21:10,126921
1,-1,-6,4,7,5,3,-1,2021-08-07 12:21:10,126921
-8,-11,-18,-24,-10,-6,-4,-5,2021-08-07 12:21:10,126921
-4,-5,-8,-9,-12,-7,-5,-4,2021-08-07 12:21:10,158873
8,10,14,3,-5,1,1,4,2021-08-07 12:21:10,158873
-1,-1,-4,0,-4,-2,-2,-1,2021-08-07 12:21:10,174909
2,2,1,11,22,9,4,0,2021-08-07 12:21:10,190921
-2,-5,-3,5,8,5,2,-1,2021-08-07 12:21:10,190921
0,4,7,12,-1,-1,1,1,2021-08-07 12:21:10,190921
-1,-1,7,1,-10,-4,-1,-2,2021-08-07 12:21:10,190921
-2,-5,-10,-18,-14,-6,-3,-1,2021-08-07 12:21:10,190921
-3,-4,-14,-20,-3,-1,-2,-2,2021-08-07 12:21:10,190921
-1,-4,-8,-11,-9,-7,-4,0,2021-08-07 12:21:10,190921
0,0,9,14,13,5,1,0,2021-08-07 12:21:10,190921
2,5,11,26,22,12,2,1,2021-08-07 12:21:10,190921
-3,-5,-1,-10,-13,-6,-3,-2,2021-08-07 12:21:10,206910
0,-1,-3,-3,3,2,1,2,2021-08-07 12:21:10,206910
-4,-1,0,0,-2,-5,-3,-3,2021-08-07 12:21:10,206910
-2,-1,7,1,-12,-6,-5,-1,2021-08-07 12:21:10,206910
-1,1,-11,-19,-18,-7,-2,0,2021-08-07 12:21:10,222909
-4,-5,-14,-11,4,0,-3,-5,2021-08-07 12:21:10,222909
1,-2,1,12,10,6,1,2,2021-08-07 12:21:10,222909
1,0,6,0,1,3,2,-1,2021-08-07 12:21:10,222909
-3,-3,-11,-5,-11,-8,-5,-3,2021-08-07 12:21:10,253851
0,2,2,-7,-5,-3,0,0,2021-08-07 12:21:10,253851
4,2,9,14,20,10,5,1,2021-08-07 12:21:10,253851
6,8,5,14,7,6,3,5,2021-08-07 12:21:10,253851
-3,-6,-12,-12,-8,-5,-5,-4,2021-08-07 12:21:10,269801
-9,-9,-6,-19,-26,-17,-11,-8,2021-08-07 12:21:10,285839
0,2,10,9,8,4,3,0,2021-08-07 12:21:10,301804
6,9,4,4,10,4,4,3,2021-08-07 12:21:10,301804
-1,0,-4,10,8,3,2,0,2021-08-07 12:21:10,301804
-2,-1,0,9,2,0,-1,-2,2021-08-07 12:21:10,301804
-3,-3,0,-16,-34,-16,-7,-1,2021-08-07 12:21:10,301804
0,-1,2,10,26,11,4,2,2021-08-07 12:21:10,301804
0,-1,-5,-2,-3,-1,-2,-3,2021-08-07 12:21:10,301804
0,-1,0,-3,3,2,-1,-2,2021-08-07 12:21:10,301804
-4,-6,-12,-20,-14,-9,-4,-4,2021-08-07 12:21:10,301804
-3,-4,-13,-7,-12,-8,-5,-1,2021-08-07 12:21:10,301804
3,6,17,21,15,5,3,4,2021-08-07 12:21:10,333803
0,-1,-4,-11,-10,-4,-4,0,2021-08-07 12:21:10,333803
-3,-4,-7,-8,-2,-3,-3,-3,2021-08-07 12:21:10,333803
-3,-3,5,12,10,2,-1,-3,2021-08-07 12:21:10,334803
-3,-3,2,0,-8,-4,-3,-3,2021-08-07 12:21:10,334803
5,6,15,27,28,13,7,3,2021-08-07 12:21:10,334803
1,1,-17,-23,-9,-1,0,1,2021-08-07 12:21:10,334803
-2,0,5,3,-3,-6,-2,-3,2021-08-07 12:21:10,334803
-2,-5,7,7,-3,-3,-5,-1,2021-08-07 12:21:10,364805
4,4,-2,-10,-10,-5,1,2,2021-08-07 12:21:10,380829
-5,-7,-28,-29,-23,-13,-7,-5,2021-08-07 12:21:10,380829
1,0,4,14,25,12,3,1,2021-08-07 12:21:10,380829
4,4,15,22,15,10,5,4,2021-08-07 12:21:10,380829
-2,-4,-8,-1,5,4,1,-2,2021-08-07 12:21:10,380829
-3,-3,-2,1,5,1,0,-2,2021-08-07 12:21:10,396842
-2,-1,-3,-13,-26,-12,-8,-5,2021-08-07 12:21:10,412804
-2,0,3,2,3,-2,-1,-2,2021-08-07 12:21:10,412804
-3,-3,5,3,0,0,-2,-1,2021-08-07 12:21:10,412804
3,8,14,13,8,4,-1,-1,2021-08-07 12:21:10,412804
0,-1,-15,-20,-19,-6,-1,0,2021-08-07 12:21:10,412804
1,2,5,9,16,6,2,-1,2021-08-07 12:21:10,427850
-1,-6,-7,-3,-5,-1,2,1,2021-08-07 12:21:10,427850
5,9,4,-1,-1,1,2,4,2021-08-07 12:21:10,427850
-1,-1,6,8,-5,-3,-1,-1,2021-08-07 12:21:10,427850
-1,-2,-5,-9,-1,-1,0,0,2021-08-07 12:21:10,443838
-1,0,0,5,1,0,-3,-3,2021-08-07 12:21:10,459839
1,0,8,15,10,4,2,2,2021-08-07 12:21:10,459839
-4,-3,-4,-15,-11,-6,-3,-2,2021-08-07 12:21:10,459839
-5,-5,-11,-12,-13,-7,-4,-3,2021-08-07 12:21:10,459839
-1,-3,0,6,5,2,1,-1,2021-08-07 12:21:10,459839
-2,-4,2,-2,-4,-1,-1,-1,2021-08-07 12:21:10,475805
1,-1,-2,6,15,5,1,0,2021-08-07 12:21:10,477850
-7,-8,-8,-9,-9,-6,-4,-5,2021-08-07 12:21:10,478804
7,11,10,10,6,2,2,3,2021-08-07 12:21:10,478804
-2,-2,-10,-11,-7,-1,-1,-1,2021-08-07 12:21:10,478804
1,1,6,6,1,2,3,1,2021-08-07 12:21:10,478804
-2,-1,-5,-4,-1,-1,-2,-1,2021-08-07 12:21:10,506802
-1,-3,4,4,0,-1,-1,-3,2021-08-07 12:21:10,506802
-3,-3,4,-2,-4,-3,-2,-3,2021-08-07 12:21:10,506802
-1,-3,-13,-15,-5,-3,-1,-1,2021-08-07 12:21:10,506802
1,3,3,6,7,3,1,1,2021-08-07 12:21:10,538841
-4,-6,-7,-22,-32,-17,-7,-4,2021-08-07 12:21:10,538841
1,-1,6,21,32,15,4,2,2021-08-07 12:21:10,539104
-3,-4,-1,7,-2,-2,-2,-3,2021-08-07 12:21:10,539104
2,1,-3,-12,-8,-4,0,-2,2021-08-07 12:21:10,554286
2,4,-3,3,7,4,1,3,2021-08-07 12:21:10,570248
-1,-1,-1,-5,-9,-8,-5,0,2021-08-07 12:21:10,570248
-3,-3,3,-4,-6,-3,-2,-1,2021-08-07 12:21:10,570248
0,-1,-1,3,0,-1,-1,-1,2021-08-07 12:21:10,570248
-4,-4,-4,-12,-6,-4,-1,-3,2021-08-07 12:21:10,570248
-4,-7,-5,-5,0,-4,-1,-5,2021-08-07 12:21:10,570248
6,10,6,5,7,6,3,4,2021-08-07 12:21:10,570248
1,2,7,4,-3,1,1,0,2021-08-07 12:21:10,586267
-3,-5,-3,-3,1,1,-1,-2,2021-08-07 12:21:10,602245
1,0,-4,6,6,4,3,1,2021-08-07 12:21:10,602245
-2,1,1,-5,-9,-3,-1,0,2021-08-07 12:21:10,602245
1,0,-1,-3,0,0,0,0,2021-08-07 12:21:10,602245
-5,-5,-6,-1,3,-1,-2,-4,2021-08-07 12:21:10,602245
0,2,0,-3,-3,-1,-2,0,2021-08-07 12:21:10,602245
-1,-2,-1,-6,-7,-4,-3,0,2021-08-07 12:21:10,602245
-2,-5,-7,-8,-6,-4,-3,-1,2021-08-07 12:21:10,650246
0,-1,-3,-11,-6,0,1,1,2021-08-07 12:21:10,650246
3,4,6,18,19,8,5,1,2021-08-07 12:21:10,650246
-5,-5,-2,-5,-4,-4,-4,-5,2021-08-07 12:21:10,650246
-2,-1,3,4,3,0,2,0,2021-08-07 12:21:10,650246
-3,-3,-4,-4,-6,-4,-3,-1,2021-08-07 12:21:10,650246
0,0,-1,-13,-12,-5,-3,0,2021-08-07 12:21:10,650246
0,-3,-16,-9,1,2,0,-1,2021-08-07 12:21:10,650246
-2,-1,-3,-7,-6,-3,-2,-1,2021-08-07 12:21:10,666296
-3,-1,1,6,3,-1,-2,-2,2021-08-07 12:21:10,682284
-1,0,3,-4,-6,-3,-2,-2,2021-08-07 12:21:10,714250
0,-1,4,17,16,7,3,-1,2021-08-07 12:21:10,714250
2,2,-1,-4,-9,-3,-1,1,2021-08-07 12:21:10,714250
-1,-3,-1,10,14,7,1,-1,2021-08-07 12:21:10,714250
1,6,1,-2,-2,-2,0,0,2021-08-07 12:21:10,714250
-1,-2,5,-7,-7,-3,-4,-1,2021-08-07 12:21:10,714250
-3,-4,-7,-6,-5,-3,-2,-1,2021-08-07 12:21:10,714250
2,1,-4,3,3,1,0,1,2021-08-07 12:21:10,714250
-1,-1,-3,-7,-5,-3,-2,-2,2021-08-07 12:21:10,715285
-1,-1,3,1,-1,-3,-3,-2,2021-08-07 12:21:10,715285
-2,-1,-1,-3,-1,1,-1,-1,2021-08-07 12:21:10,729295
-2,1,2,1,0,1,0,0,2021-08-07 12:21:10,729295
-5,-7,-5,0,-1,-3,-2,-2,2021-08-07 12:21:10,745245
0,0,1,-10,-8,-5,-1,-2,2021-08-07 12:21:10,745245
-2,-3,2,1,0,-1,-2,-1,2021-08-07 12:21:10,745245
-4,-4,-11,-18,-14,-8,-3,-3,2021-08-07 12:21:10,745245
5,5,12,25,26,14,5,5,2021-08-07 12:21:10,745245
-2,-5,-3,2,-1,-1,-2,-3,2021-08-07 12:21:10,745245
1,1,-1,0,0,0,2,1,2021-08-07 12:21:10,777283
0,-1,-1,-7,-9,-5,-5,-3,2021-08-07 12:21:10,793247
-5,-6,-6,-6,-15,-9,-4,-3,2021-08-07 12:21:10,793247
2,5,-2,-2,6,2,1,2,2021-08-07 12:21:10,793247
-1,0,3,10,11,6,1,-2,2021-08-07 12:21:10,809247
2,3,3,4,3,0,0,0,2021-08-07 12:21:10,809247
-5,-6,-4,-4,-4,-5,-4,-3,2021-08-07 12:21:10,809247
-7,-6,-11,-14,-16,-10,-6,-6,2021-08-07 12:21:10,809247
2,3,4,5,2,1,2,1,2021-08-07 12:21:10,809247
3,5,5,9,8,4,3,2,2021-08-07 12:21:10,809247
0,1,-1,-1,-4,-1,-1,-1,2021-08-07 12:21:10,809247
-3,-3,-2,-1,-4,-3,0,-2,2021-08-07 12:21:10,809247
-3,-3,-1,-8,-4,-2,-3,-2,2021-08-07 12:21:10,841295
-2,-4,-3,1,4,0,-1,-1,2021-08-07 12:21:10,841295
0,-2,-4,1,4,0,0,-1,2021-08-07 12:21:10,841295
-2,-1,-3,-13,-14,-6,-4,-1,2021-08-07 12:21:10,841295
1,2,5,5,6,1,0,0,2021-08-07 12:21:10,841295
0,-1,6,15,14,7,2,0,2021-08-07 12:21:10,841295
-1,0,-9,-9,-4,-2,-1,0,2021-08-07 12:21:10,841295
-2,-1,-1,-1,0,0,1,-1,2021-08-07 12:21:10,842247
2,1,2,1,-2,-1,-2,0,2021-08-07 12:21:10,860248
-1,0,1,-8,-14,-6,-3,-2,2021-08-07 12:21:10,860248
-1,-3,-1,-2,-2,-1,-1,-1,2021-08-07 12:21:10,860248
-1,-2,-3,0,2,1,-1,-2,2021-08-07 12:21:10,860248
2,2,5,10,4,4,2,0,2021-08-07 12:21:10,889295
0,-1,0,3,4,-1,0,0,2021-08-07 12:21:10,905248
0,0,-2,-3,-9,-4,-1,-1,2021-08-07 12:21:10,905248
2,3,5,6,5,2,1,3,2021-08-07 12:21:10,905248
-3,-4,-8,-9,-6,-5,-3,-3,2021-08-07 12:21:10,905248
0,2,0,-2,-1,-2,-1,0,2021-08-07 12:21:10,905248
0,-1,0,5,1,1,1,-1,2021-08-07 12:21:10,905248
-5,-5,-6,-6,-8,-5,-4,-3,2021-08-07 12:21:10,905248
2,-2,-3,4,9,5,2,2,2021-08-07 12:21:10,937284
0,1,0,-1,-4,-1,0,1,2021-08-07 12:21:10,937284
-1,1,1,-1,2,-1,0,0,2021-08-07 12:21:10,937284
0,2,3,4,4,3,0,0,2021-08-07 12:21:10,937284
-1,-3,-3,-4,-3,-3,-2,-1,2021-08-07 12:21:10,953249
-5,-4,-7,-12,-7,-5,-4,-5,2021-08-07 12:21:10,953249
-1,-1,1,0,-4,-2,-1,-2,2021-08-07 12:21:10,953249
-5,-6,-5,3,4,1,-3,-4,2021-08-07 12:21:10,953249
5,8,5,5,3,2,3,4,2021-08-07 12:21:10,969249
-1,-4,-4,-6,-5,-2,-1,-1,2021-08-07 12:21:10,969249
1,2,3,4,2,0,0,-2,2021-08-07 12:21:10,969249
-1,-4,0,1,2,0,0,-2,2021-08-07 12:21:10,969249
-8,-8,-9,-16,-13,-8,-6,-5,2021-08-07 12:21:10,985298
3,5,1,-2,-3,-1,4,3,2021-08-07 12:21:11,001250
6,7,16,32,28,15,6,4,2021-08-07 12:21:11,001250
1,2,-1,-3,-6,-1,1,0,2021-08-07 12:21:11,001250
-4,-5,-3,-4,-2,-2,-4,-4,2021-08-07 12:21:11,001250
-2,-3,-3,-3,-3,-4,-2,-3,2021-08-07 12:21:11,001250
-4,-4,-6,-15,-15,-6,-4,-4,2021-08-07 12:21:11,017247
3,3,2,-1,2,1,0,3,2021-08-07 12:21:11,017247
2,2,3,8,4,3,1,0,2021-08-07 12:21:11,017247
-2,-6,-4,-4,0,2,-2,-2,2021-08-07 12:21:11,017247
-3,-5,-5,-8,-10,-4,-4,-3,2021-08-07 12:21:11,033298
5,6,8,15,18,7,4,4,2021-08-07 12:21:11,033298
-2,-4,-4,-5,-5,-4,-2,-2,2021-08-07 12:21:11,049298
-2,-1,-1,-1,1,0,-1,-1,2021-08-07 12:21:11,065284
0,-1,-3,-4,-2,-3,0,-1,2021-08-07 12:21:11,081247
-1,-2,-5,-12,-16,-8,-3,-1,2021-08-07 12:21:11,081247
2,3,6,13,15,5,3,1,2021-08-07 12:21:11,081247
-6,-6,-6,-7,-9,-5,-4,-4,2021-08-07 12:21:11,081247
8,11,9,12,17,9,6,6,2021-08-07 12:21:11,081247
-1,-1,-1,-2,-8,-4,-4,-2,2021-08-07 12:21:11,081247
-1,-2,-2,3,5,2,1,-1,2021-08-07 12:21:11,082247
2,0,0,8,5,1,-1,1,2021-08-07 12:21:11,082247
-5,-8,-12,-19,-16,-10,-4,-3,2021-08-07 12:21:11,097284
1,0,-1,-3,-6,-2,1,-1,2021-08-07 12:21:11,097284
-2,-1,4,12,13,7,2,-2,2021-08-07 12:21:11,113283
-2,-1,3,3,3,1,-2,-2,2021-08-07 12:21:11,129297
-7,-5,-3,-3,-4,-2,-5,-6,2021-08-07 12:21:11,129297
-2,0,3,4,4,-1,-1,-1,2021-08-07 12:21:11,129297
-4,-4,-8,-18,-23,-12,-6,-4,2021-08-07 12:21:11,129297
4,3,3,2,4,4,3,2,2021-08-07 12:21:11,129297
1,0,3,10,12,3,0,0,2021-08-07 12:21:11,129297
-1,1,-2,2,1,0,-1,0,2021-08-07 12:21:11,129297
-3,-3,-7,-14,-15,-8,-4,-2,2021-08-07 12:21:11,145283
-1,-3,-5,-8,-10,-6,-3,-1,2021-08-07 12:21:11,161283
0,2,5,11,18,9,4,1,2021-08-07 12:21:11,177298
-1,-3,-2,-2,-1,-1,-1,-3,2021-08-07 12:21:11,177298
0,3,2,5,6,1,1,1,2021-08-07 12:21:11,177298
-6,-5,-6,-10,-10,-6,-5,-4,2021-08-07 12:21:11,177298
2,5,3,-4,-8,-3,0,0,2021-08-07 12:21:11,177298
-2,-4,-1,1,1,1,-3,0,2021-08-07 12:21:11,177298
1,6,4,-2,-2,-1,-1,1,2021-08-07 12:21:11,193283
2,2,4,11,7,3,0,-1,2021-08-07 12:21:11,209283
-6,-6,-9,-10,-11,-6,-4,-3,2021-08-07 12:21:11,225246
-3,-4,-3,-4,-5,-3,-3,-3,2021-08-07 12:21:11,225246
1,-1,-5,-11,-9,-4,-4,0,2021-08-07 12:21:11,225246
2,3,12,23,20,9,5,1,2021-08-07 12:21:11,225246
0,0,0,-2,-3,-1,-1,1,2021-08-07 12:21:11,225246
0,-1,-2,2,-1,0,0,0,2021-08-07 12:21:11,225246
-6,-10,-10,-17,-8,-5,-4,-4,2021-08-07 12:21:11,225246
5,8,6,7,3,2,2,3,2021-08-07 12:21:11,225246
-4,-3,-5,-9,-10,-6,-4,-3,2021-08-07 12:21:11,225246
1,2,3,8,11,4,4,0,2021-08-07 12:21:11,226291
-2,-4,-3,-2,-4,-2,-1,-2,2021-08-07 12:21:11,241248
-1,0,0,0,3,1,-1,2,2021-08-07 12:21:11,241248
-2,-4,-4,-8,-10,-7,-4,-4,2021-08-07 12:21:11,257287
-4,-6,-10,-23,-16,-9,-7,-3,2021-08-07 12:21:11,257287
8,14,16,25,21,11,8,7,2021-08-07 12:21:11,257287
4,5,3,6,9,6,5,3,2021-08-07 12:21:11,257287
-5,-8,-8,-7,-7,-4,-2,-4,2021-08-07 12:21:11,273290
1,4,7,10,8,3,3,2,2021-08-07 12:21:11,273290
-1,-1,-2,-2,-6,-4,-1,-3,2021-08-07 12:21:11,289297
-4,-5,-4,-6,-6,-6,-2,-3,2021-08-07 12:21:11,289297
-1,-1,-4,-3,-1,0,-2,0,2021-08-07 12:21:11,289297
3,3,2,4,2,2,2,0,2021-08-07 12:21:11,305249
0,-2,1,3,-3,0,0,-1,2021-08-07 12:21:11,305249
-2,-1,-1,-3,-2,0,-2,-1,2021-08-07 12:21:11,305249
-1,-4,-9,-14,-17,-8,-4,-2,2021-08-07 12:21:11,305249
-3,-2,2,13,21,10,2,-1,2021-08-07 12:21:11,305249
4,7,8,17,12,7,4,4,2021-08-07 12:21:11,321247
-4,-4,-6,-6,-6,-5,-2,-4,2021-08-07 12:21:11,321247
-1,-4,-4,-5,-1,0,-2,-1,2021-08-07 12:21:11,337245
1,1,0,-8,-13,-6,-3,0,2021-08-07 12:21:11,337245
-4,-7,-7,-8,-6,-4,-3,-3,2021-08-07 12:21:11,353283
0,3,2,1,1,1,1,-1,2021-08-07 12:21:11,369284
-1,-2,-3,-10,-7,-6,0,-2,2021-08-07 12:21:11,369284
0,2,6,13,9,4,3,3,2021-08-07 12:21:11,369284
-2,-4,-3,1,3,1,-2,-2,2021-08-07 12:21:11,369284
-3,-2,-3,-4,-5,-3,-1,-1,2021-08-07 12:21:11,369284
-1,1,2,1,0,0,0,0,2021-08-07 12:21:11,369284
-5,-5,-4,-7,-5,-4,-4,-6,2021-08-07 12:21:11,369284
-2,0,-2,-5,-1,-3,-3,-1,2021-08-07 12:21:11,385297
1,0,2,2,0,0,-1,0,2021-08-07 12:21:11,385297
0,0,-1,5,6,3,-1,-1,2021-08-07 12:21:11,385297
-2,-4,-4,-2,-3,-3,0,-2,2021-08-07 12:21:11,385297
-1,0,-2,-4,-4,-3,-2,-2,2021-08-07 12:21:11,417247
0,0,-2,-3,-3,-2,-1,-1,2021-08-07 12:21:11,417247
-3,-3,-1,-4,-4,-3,-2,-2,2021-08-07 12:21:11,417247
0,-3,-7,-13,-7,-2,-3,0,2021-08-07 12:21:11,417247
-2,-3,-3,4,-2,-2,1,-1,2021-08-07 12:21:11,433297
-2,-3,2,12,18,5,-1,-1,2021-08-07 12:21:11,433297
3,5,4,9,5,2,2,1,2021-08-07 12:21:11,433297
0,1,-1,-7,-12,-5,-2,-3,2021-08-07 12:21:11,433297
-2,-3,-5,-10,-6,-3,0,-2,2021-08-07 12:21:11,449286
0,-1,-2,-5,-7,-4,-1,0,2021-08-07 12:21:11,465284
-5,-6,-3,0,-1,-3,-2,-3,2021-08-07 12:21:11,465284
3,3,3,2,5,3,1,2,2021-08-07 12:21:11,465284
-1,0,-2,-6,-6,-4,-2,0,2021-08-07 12:21:11,465284
1,-3,-1,1,-2,0,0,-2,2021-08-07 12:21:11,465284
-2,-2,0,5,1,1,1,-2,2021-08-07 12:21:11,465284
-3,-2,-5,-11,-9,-5,-1,0,2021-08-07 12:21:11,465284
1,4,6,13,17,8,4,2,2021-08-07 12:21:11,495283
-4,-4,-5,-10,-6,-4,-2,-1,2021-08-07 12:21:11,495283
1,2,3,2,2,0,-2,0,2021-08-07 12:21:11,495283
-6,-9,-14,-21,-19,-10,-6,-5,2021-08-07 12:21:11,495283
3,6,6,11,14,8,4,2,2021-08-07 12:21:11,495283
-1,-3,-4,-5,-5,-2,1,-1,2021-08-07 12:21:11,495283
2,4,5,11,8,2,2,1,2021-08-07 12:21:11,511296
-3,-4,-2,1,-5,-4,-4,-3,2021-08-07 12:21:11,511296
-4,-6,-8,-10,-7,-3,-3,-4,2021-08-07 12:21:11,527296
0,1,-1,-4,-7,-2,-1,0,2021-08-07 12:21:11,527296
-2,-2,-1,1,3,1,0,-1,2021-08-07 12:21:11,527296
-1,0,-2,3,1,-1,0,-1,2021-08-07 12:21:11,527296
1,1,2,2,-2,-1,0,0,2021-08-07 12:21:11,559284
-2,-2,-4,-7,-5,-4,-3,-2,2021-08-07 12:21:11,559284
0,-2,-2,-1,-1,-1,-1,1,2021-08-07 12:21:11,559284
4,3,5,5,9,4,2,2,2021-08-07 12:21:11,559284
-2,-1,2,7,1,1,1,-1,2021-08-07 12:21:11,559284
-4,-4,-4,0,-2,-1,-2,-2,2021-08-07 12:21:11,559284
5,7,6,2,1,2,2,3,2021-08-07 12:21:11,575248
-3,-2,-4,-2,-5,-3,-2,-3,2021-08-07 12:21:11,575248
-1,-4,-2,-9,-7,-3,-3,-1,2021-08-07 12:21:11,591245
-2,-2,-2,-5,-1,-1,0,-1,2021-08-07 12:21:11,591245
0,1,1,1,0,0,-1,0,2021-08-07 12:21:11,591245
1,2,1,0,0,1,-1,-1,2021-08-07 12:21:11,591245
-2,-4,-3,-11,-15,-8,-3,-2,2021-08-07 12:21:11,623247
2,1,3,9,11,4,2,1,2021-08-07 12:21:11,623247
-3,-4,-2,5,6,2,-1,0,2021-08-07 12:21:11,623247
-1,-1,-2,-1,0,0,-1,1,2021-08-07 12:21:11,623247
-1,-4,-3,-7,-9,-6,-4,-2,2021-08-07 12:21:11,623247
-1,-2,-2,1,-4,-4,-2,-3,2021-08-07 12:21:11,623247
-2,-2,-2,-1,1,1,1,-2,2021-08-07 12:21:11,629295
1,3,2,5,5,1,1,2,2021-08-07 12:21:11,629295
-3,-4,-5,-9,-7,-3,-4,-3,2021-08-07 12:21:11,655249
-2,-3,-2,-4,-7,-2,-2,-1,2021-08-07 12:21:11,671247
3,3,1,1,2,0,-1,0,2021-08-07 12:21:11,687254
-2,-1,-1,0,0,0,1,-1,2021-08-07 12:21:11,687254
-1,3,3,10,15,4,3,0,2021-08-07 12:21:11,687254
-1,0,1,3,2,-1,-3,1,2021-08-07 12:21:11,687254
-6,-5,-3,-8,-8,-4,-3,-3,2021-08-07 12:21:11,687254
3,2,0,-6,-6,-4,-1,0,2021-08-07 12:21:11,687254
4,4,4,6,3,2,2,2,2021-08-07 12:21:11,687254
0,0,2,2,3,2,0,0,2021-08-07 12:21:11,687254
-4,-4,-4,-5,-6,-4,-3,-3,2021-08-07 12:21:11,687254
-1,-1,-3,-1,-2,-2,0,-1,2021-08-07 12:21:11,688249
0,0,-3,-3,-1,0,1,0,2021-08-07 12:21:11,719248
0,2,0,1,-1,-1,0,0,2021-08-07 12:21:11,719248
2,2,-1,-1,3,2,1,-1,2021-08-07 12:21:11,719248
-2,-3,1,3,3,1,-2,-1,2021-08-07 12:21:11,719248
-4,-3,-2,-1,-2,-4,-3,-2,2021-08-07 12:21:11,735284
-3,-3,-3,-8,-8,-3,-2,-2,2021-08-07 12:21:11,735284
2,4,3,6,7,3,1,1,2021-08-07 12:21:11,735284
-3,-5,-2,2,-2,1,-2,-3,2021-08-07 12:21:11,735284
0,0,-4,-3,-1,1,-1,0,2021-08-07 12:21:11,751296
2,3,4,6,2,1,0,1,2021-08-07 12:21:11,751296
2,2,-3,-9,-7,-4,-1,2,2021-08-07 12:21:11,751296
1,1,3,3,8,4,2,1,2021-08-07 12:21:11,751296
-4,-4,-3,-6,-10,-6,-4,-4,2021-08-07 12:21:11,767248
-1,-2,0,2,6,3,1,0,2021-08-07 12:21:11,767248
-2,-5,-3,-3,-1,-1,-1,-3,2021-08-07 12:21:11,767248
2,3,2,2,3,1,-1,2,2021-08-07 12:21:11,767248
-4,-4,-1,-1,-3,-2,0,-1,2021-08-07 12:21:11,798284
3,5,0,1,2,0,0,-1,2021-08-07 12:21:11,814249
-2,-2,-5,-8,-5,-3,-5,-2,2021-08-07 12:21:11,829245
-3,-4,-1,1,-5,-5,-3,-1,2021-08-07 12:21:11,829245
-1,-3,-3,-2,-1,0,-1,-3,2021-08-07 12:21:11,829245
0,1,2,-2,-1,-1,2,0,2021-08-07 12:21:11,829245
4,5,5,5,5,2,3,2,2021-08-07 12:21:11,829245
-1,-3,-6,-3,-4,-3,-1,-1,2021-08-07 12:21:11,829245
-1,-1,-2,-6,-6,-3,-1,-2,2021-08-07 12:21:11,829245
-3,-1,1,-2,5,3,-1,-2,2021-08-07 12:21:11,830283
0,-1,5,20,19,9,3,0,2021-08-07 12:21:11,830283
-1,-1,0,4,3,0,-1,-3,2021-08-07 12:21:11,830283
-2,-3,-6,-11,-11,-7,-4,-1,2021-08-07 12:21:11,860248
1,-1,-1,-2,-5,-5,-1,0,2021-08-07 12:21:11,876246
-2,-1,-2,-4,-6,-4,-4,-2,2021-08-07 12:21:11,892248
0,1,-2,-1,-1,0,-2,0,2021-08-07 12:21:11,892248
0,-5,-4,-2,-2,-2,0,-1,2021-08-07 12:21:11,892248
3,3,0,-8,-3,-1,0,3,2021-08-07 12:21:11,892248
-1,-6,-4,-6,-4,-3,1,0,2021-08-07 12:21:11,892248
3,4,5,9,6,4,3,3,2021-08-07 12:21:11,892248
-6,-4,0,3,3,0,-3,-6,2021-08-07 12:21:11,892248
-3,-2,2,7,1,0,-2,-3,2021-08-07 12:21:11,892248
-5,-1,-2,-7,-10,-6,-4,-3,2021-08-07 12:21:11,893285
-1,-1,-1,-6,-3,-4,-2,0,2021-08-07 12:21:11,893285
4,5,8,18,14,9,3,3,2021-08-07 12:21:11,908296
-1,-3,-4,-8,-7,-4,-2,-1,2021-08-07 12:21:11,924284
0,-1,2,5,1,0,0,1,2021-08-07 12:21:11,940295
0,-2,-5,-3,-1,-2,0,-1,2021-08-07 12:21:11,940295
0,0,0,-3,1,1,-1,0,2021-08-07 12:21:11,940295
-1,-1,-4,-1,-3,-2,-1,-2,2021-08-07 12:21:11,940295
-8,-10,-9,-14,-12,-8,-6,-5,2021-08-07 12:21:11,940295
0,2,4,2,2,2,0,-1,2021-08-07 12:21:11,940295
4,2,2,3,4,3,2,2,2021-08-07 12:21:11,941283
-2,-4,-2,-1,-3,-2,-1,-4,2021-08-07 12:21:11,941283
-1,-3,-7,-8,-4,-2,-1,-1,2021-08-07 12:21:11,956295
2,1,1,0,0,-2,-2,-1,2021-08-07 12:21:11,972249
-2,-2,-4,-5,-8,-3,-3,0,2021-08-07 12:21:11,988248
-3,-5,1,7,7,1,-1,-1,2021-08-07 12:21:12,004248
-1,-2,-1,4,6,1,0,-3,2021-08-07 12:21:12,004248
2,6,4,1,2,3,2,1,2021-08-07 12:21:12,005247
1,2,-5,-9,-7,-4,-2,0,2021-08-07 12:21:12,005247
-1,-5,-2,5,1,-1,-1,-2,2021-08-07 12:21:12,005247
-1,1,1,2,3,2,-1,-1,2021-08-07 12:21:12,005247
-3,-6,-6,-8,-6,-3,-3,-3,2021-08-07 12:21:12,005247
0,1,2,1,-2,-2,1,0,2021-08-07 12:21:12,005247
-1,0,-3,-7,-1,-1,0,-1,2021-08-07 12:21:12,005247
1,0,2,2,2,-1,0,1,2021-08-07 12:21:12,006250
-3,-6,-4,-6,-6,-2,-4,-5,2021-08-07 12:21:12,006250
-2,-4,-4,-6,-6,-4,-2,-1,2021-08-07 12:21:12,036303
-1,1,-1,-7,-6,-2,-2,0,2021-08-07 12:21:12,052248
4,3,4,11,14,7,3,3,2021-08-07 12:21:12,067247
-3,-4,-4,-2,-3,-3,-3,-3,2021-08-07 12:21:12,067247
2,4,4,4,2,0,-1,-2,2021-08-07 12:21:12,067728
0,1,0,-5,-8,-3,0,0,2021-08-07 12:21:12,067728
1,2,3,9,9,4,3,1,2021-08-07 12:21:12,067728
-2,-2,0,2,7,2,1,0,2021-08-07 12:21:12,067728
-2,-1,2,6,1,0,0,1,2021-08-07 12:21:12,068284
-2,0,-3,-4,-2,-3,-2,0,2021-08-07 12:21:12,068284
-3,-1,-3,-10,-12,-4,-3,-3,2021-08-07 12:21:12,068284
2,2,0,-2,0,-1,1,2,2021-08-07 12:21:12,068284
-2,-1,-3,-5,-6,-4,-2,-2,2021-08-07 12:21:12,097817
0,-1,-2,-4,0,0,-1,0,2021-08-07 12:21:12,097817
-2,-2,-3,-8,-11,-4,-3,1,2021-08-07 12:21:12,097817
-2,-3,-3,-2,-1,-2,0,-2,2021-08-07 12:21:12,097817
-1,-2,-2,2,6,2,0,-3,2021-08-07 12:21:12,113787
0,0,-1,-4,-6,-3,-1,1,2021-08-07 12:21:12,113787
0,-2,-4,-9,-7,-4,-2,-3,2021-08-07 12:21:12,113787
-2,-1,-2,5,-2,-2,-2,-1,2021-08-07 12:21:12,113787
0,3,6,7,10,5,2,0,2021-08-07 12:21:12,128823
1,2,-3,3,7,3,3,1,2021-08-07 12:21:12,144787
-1,1,-2,0,-5,-3,-1,-1,2021-08-07 12:21:12,160824
-2,-4,-2,-8,-11,-6,-4,-1,2021-08-07 12:21:12,160824
-5,-7,-11,-21,-15,-8,-4,-4,2021-08-07 12:21:12,160824
0,1,5,20,17,8,3,0,2021-08-07 12:21:12,160824
-2,-1,-1,-1,-2,-1,0,-1,2021-08-07 12:21:12,160824
-2,0,-1,1,-1,-3,-2,-1,2021-08-07 12:21:12,160824
-1,-3,-5,-8,-10,-6,-3,-1,2021-08-07 12:21:12,176838
-3,-1,2,-4,6,3,0,-2,2021-08-07 12:21:12,176838
2,2,3,9,7,5,0,1,2021-08-07 12:21:12,176838
0,3,7,14,9,3,0,0,2021-08-07 12:21:12,176838
-1,-1,-6,-9,-12,-4,-4,-2,2021-08-07 12:21:12,192823
-2,-3,0,2,-5,-4,-2,-3,2021-08-07 12:21:12,192823
-2,-1,-5,-5,1,-1,-1,0,2021-08-07 12:21:12,192823
-1,0,2,1,0,0,1,0,2021-08-07 12:21:12,192823
1,4,3,3,5,2,2,3,2021-08-07 12:21:12,208788
-1,0,-4,-4,-6,-3,-1,1,2021-08-07 12:21:12,208788
-3,-7,-7,-8,-6,-3,-3,-4,2021-08-07 12:21:12,208788
2,2,-1,-7,-11,-2,-1,0,2021-08-07 12:21:12,224791
0,-1,4,8,10,4,2,0,2021-08-07 12:21:12,240823
-3,-2,-4,-6,-4,-2,-3,-1,2021-08-07 12:21:12,256823
0,2,4,6,2,0,-1,-1,2021-08-07 12:21:12,256823
-2,-1,0,2,3,2,-1,-1,2021-08-07 12:21:12,256823
-2,-1,-1,1,-1,0,-2,-2,2021-08-07 12:21:12,256823
0,-1,-5,-8,-8,-4,-2,-3,2021-08-07 12:21:12,256823
-1,-1,2,-1,1,0,0,1,2021-08-07 12:21:12,256823
-3,-2,-5,-9,-5,-3,-1,-2,2021-08-07 12:21:12,256823
2,0,2,7,10,5,1,2,2021-08-07 12:21:12,272823
3,4,4,3,-5,-2,0,2,2021-08-07 12:21:12,288835
0,0,-1,-2,-3,-1,-1,-2,2021-08-07 12:21:12,304117
-2,-4,-2,-2,5,3,2,-1,2021-08-07 12:21:12,304117
-2,0,2,3,2,2,1,-1,2021-08-07 12:21:12,304117
-1,-1,0,-1,-1,0,-2,0,2021-08-07 12:21:12,304117
-1,-1,-2,-7,-6,-5,-2,-1,2021-08-07 12:21:12,320082
0,0,-2,-2,-1,-1,-1,-1,2021-08-07 12:21:12,320082
-3,-4,-1,4,1,-1,-3,-2,2021-08-07 12:21:12,320082
1,0,0,0,0,1,-1,1,2021-08-07 12:21:12,320082
3,5,1,-3,-3,-2,1,2,2021-08-07 12:21:12,320082
-5,-7,-7,-7,-5,-4,-6,-5,2021-08-07 12:21:12,320082
4,7,7,8,5,5,3,3,2021-08-07 12:21:12,336083
1,2,2,3,3,4,1,2,2021-08-07 12:21:12,351131
0,-2,2,11,8,6,1,1,2021-08-07 12:21:12,351131
-3,-2,-5,-11,-6,-5,-3,0,2021-08-07 12:21:12,351131
1,0,1,4,3,0,-1,1,2021-08-07 12:21:12,351131
-4,-5,-7,-13,-12,-6,-5,-4,2021-08-07 12:21:12,351131
-3,-5,-6,-5,-4,-3,-4,-2,2021-08-07 12:21:12,351131
6,7,5,9,12,7,4,3,2021-08-07 12:21:12,351131
-2,-3,-3,-6,-7,-5,-1,1,2021-08-07 12:21:12,367101
-2,-2,0,4,2,1,-1,-1,2021-08-07 12:21:12,367101
-4,-4,-8,-9,-10,-7,-3,-1,2021-08-07 12:21:12,367101
0,-1,1,1,-1,-1,-2,-1,2021-08-07 12:21:12,367101
0,-1,1,2,4,1,1,0,2021-08-07 12:21:12,398131
-1,-2,0,1,-2,-1,-2,0,2021-08-07 12:21:12,398131
1,0,0,3,6,1,0,-2,2021-08-07 12:21:12,398131
-1,-2,-4,-8,-9,-4,-2,-1,2021-08-07 12:21:12,398131
-1,1,-1,-3,-2,-2,0,-2,2021-08-07 12:21:12,414084
-1,-2,-1,2,0,-2,-2,-2,2021-08-07 12:21:12,430081
-2,-2,-1,0,-2,-1,-2,0,2021-08-07 12:21:12,430081
-4,-8,-7,-3,-3,-3,-2,-3,2021-08-07 12:21:12,430081
3,3,1,-7,-5,-4,-3,-2,2021-08-07 12:21:12,430081
0,-3,-4,0,3,0,2,0,2021-08-07 12:21:12,430081
4,6,8,9,4,4,2,1,2021-08-07 12:21:12,430081
-1,0,-1,-1,2,1,-1,-1,2021-08-07 12:21:12,430081
-1,-1,0,0,-3,-1,1,0,2021-08-07 12:21:12,446082
-3,-4,-8,-15,-11,-6,-5,-3,2021-08-07 12:21:12,446082
-1,2,0,6,7,2,3,1,2021-08-07 12:21:12,446082
-3,-2,0,1,-1,-1,0,-2,2021-08-07 12:21:12,446082
-3,-6,-10,-7,-9,-6,-5,-3,2021-08-07 12:21:12,478080
0,2,5,3,6,4,1,1,2021-08-07 12:21:12,494081
-1,-1,2,4,6,2,0,-1,2021-08-07 12:21:12,494081
2,3,4,6,5,3,0,3,2021-08-07 12:21:12,494081
-1,-1,-6,-12,-9,-4,-1,0,2021-08-07 12:21:12,494081
-4,-6,-4,0,-2,-3,-2,-6,2021-08-07 12:21:12,494081
-1,2,-3,-9,-8,-3,-2,-1,2021-08-07 12:21:12,494081
5,9,8,7,3,2,3,3,2021-08-07 12:21:12,494081
-2,-3,1,4,2,0,-1,-2,2021-08-07 12:21:12,510115
-2,-5,-5,-12,-9,-6,-3,-1,2021-08-07 12:21:12,526118
-2,-5,-2,3,3,-1,-2,-4,2021-08-07 12:21:12,526118
-3,-3,-6,-4,-5,-4,-3,-4,2021-08-07 12:21:12,526118
0,0,2,3,3,4,1,0,2021-08-07 12:21:12,526118
-1,2,0,6,4,2,0,-1,2021-08-07 12:21:12,526118
-5,-6,-11,-18,-18,-9,-4,-3,2021-08-07 12:21:12,526118
3,2,6,15,14,8,3,3,2021-08-07 12:21:12,526118
-2,-2,-2,-7,-5,-2,-2,-1,2021-08-07 12:21:12,557123
5,4,6,9,9,5,2,1,2021-08-07 12:21:12,573082
-2,1,0,1,-1,0,-1,-1,2021-08-07 12:21:12,573082
-4,-5,-4,-11,-10,-6,-4,-3,2021-08-07 12:21:12,573082
1,4,2,4,4,1,1,1,2021-08-07 12:21:12,573082
0,2,2,2,-6,-4,-3,0,2021-08-07 12:21:12,573082
-2,-3,-2,-9,-4,0,0,-3,2021-08-07 12:21:12,589117
-4,-2,-1,5,9,1,0,-2,2021-08-07 12:21:12,589117
-5,-6,-8,-10,-9,-5,-4,-5,2021-08-07 12:21:12,589117
6,7,9,11,9,3,4,4,2021-08-07 12:21:12,589117
0,-2,-2,-7,-8,-2,-1,0,2021-08-07 12:21:12,589117
-1,-3,-3,-2,0,-1,-1,-2,2021-08-07 12:21:12,589117
-3,-4,-4,-5,-2,-3,-5,-3,2021-08-07 12:21:12,621080
-1,-1,0,-3,-4,-1,-2,-1,2021-08-07 12:21:12,637129
-3,-1,1,1,2,0,-2,-2,2021-08-07 12:21:12,653083
-1,0,-1,-6,-7,-2,-2,-2,2021-08-07 12:21:12,653083
-2,-2,-5,-8,-5,-4,-3,-2,2021-08-07 12:21:12,653083
-1,-1,0,6,7,3,3,1,2021-08-07 12:21:12,653083
0,1,4,14,9,3,2,2,2021-08-07 12:21:12,653083
-2,-4,-5,-5,-7,-3,-3,-3,2021-08-07 12:21:12,653083
3,4,3,0,-5,0,1,-1,2021-08-07 12:21:12,653083
-3,-4,-4,-5,-2,-1,-1,-2,2021-08-07 12:21:12,653083
1,1,1,0,1,1,0,-1,2021-08-07 12:21:12,653083
-2,-4,-2,2,2,0,-2,-3,2021-08-07 12:21:12,654121
2,1,1,0,0,-1,2,2,2021-08-07 12:21:12,685082
2,0,-3,-6,-4,-1,0,1,2021-08-07 12:21:12,685082
3,3,-1,-1,7,2,2,3,2021-08-07 12:21:12,685082
4,2,5,10,2,5,2,1,2021-08-07 12:21:12,685082
-5,-7,-4,1,3,2,-1,-2,2021-08-07 12:21:12,685082
-8,-6,-5,-7,-9,-4,-4,-6,2021-08-07 12:21:12,685082
-5,-3,-2,-2,0,0,-4,-5,2021-08-07 12:21:12,685082
-1,2,3,3,0,0,-1,0,2021-08-07 12:21:12,685082
0,3,4,7,8,2,1,0,2021-08-07 12:21:12,717122
-1,-2,-3,-5,-9,-5,-4,-2,2021-08-07 12:21:12,717122
-1,-4,-9,-18,-18,-10,-5,-2,2021-08-07 12:21:12,717122
-5,-5,-2,2,5,2,-1,-1,2021-08-07 12:21:12,717122
4,4,6,21,18,10,5,3,2021-08-07 12:21:12,733118
-1,0,-1,-1,1,-1,0,0,2021-08-07 12:21:12,733118
-1,0,3,-1,-3,-2,-1,-1,2021-08-07 12:21:12,733118
-2,0,-6,-15,-15,-7,-3,-1,2021-08-07 12:21:12,733118
-3,-4,-4,-8,-7,-5,-4,-2,2021-08-07 12:21:12,749133
1,0,2,1,1,1,0,2,2021-08-07 12:21:12,765126
3,4,2,3,4,2,3,1,2021-08-07 12:21:12,785130
1,0,1,-1,0,1,1,0,2021-08-07 12:21:12,785130
-2,-3,-3,-3,-1,0,0,-3,2021-08-07 12:21:12,785130
-3,-4,-6,-9,-6,-4,-4,-5,2021-08-07 12:21:12,785130
1,1,4,9,3,1,1,2,2021-08-07 12:21:12,785130
-3,-2,-4,-3,-1,-1,-3,-1,2021-08-07 12:21:12,785130
1,2,2,4,1,2,1,2,2021-08-07 12:21:12,797084
-1,-1,2,11,7,3,1,-3,2021-08-07 12:21:12,797084
0,-1,-2,0,-1,0,-2,1,2021-08-07 12:21:12,797084
-2,-3,-5,-7,-4,-3,-1,-1,2021-08-07 12:21:12,797084
-5,-9,-6,-8,-8,-6,-3,-4,2021-08-07 12:21:12,813121
7,9,4,2,1,1,2,3,2021-08-07 12:21:12,829117
-3,-2,-2,-4,-2,-2,-2,-4,2021-08-07 12:21:12,845117
2,2,3,5,2,2,1,1,2021-08-07 12:21:12,845117
-4,-5,-7,-9,-7,-7,-6,-4,2021-08-07 12:21:12,845117
-6,-8,-6,-12,-15,-8,-4,-3,2021-08-07 12:21:12,845117
3,5,5,11,17,8,4,4,2021-08-07 12:21:12,845117
1,1,-1,0,-1,-1,2,0,2021-08-07 12:21:12,845117
3,4,3,2,1,1,2,3,2021-08-07 12:21:12,861133
-6,-8,-10,-19,-9,-4,-4,-5,2021-08-07 12:21:12,877133
3,3,5,4,-2,0,1,0,2021-08-07 12:21:12,893118
-2,-1,2,6,5,2,0,2,2021-08-07 12:21:12,893118
2,0,2,4,3,2,0,0,2021-08-07 12:21:12,893118
0,0,-2,-1,-1,-1,0,-1,2021-08-07 12:21:12,893118
-5,-5,-8,-12,-12,-7,-4,-2,2021-08-07 12:21:12,893118
0,-3,-4,-5,-2,-2,0,-1,2021-08-07 12:21:12,893118
2,2,4,5,1,0,-2,1,2021-08-07 12:21:12,894081
-1,-3,-1,2,4,2,0,-1,2021-08-07 12:21:12,894081
-3,-2,0,0,-3,-2,-3,-3,2021-08-07 12:21:12,894081
0,-1,0,3,1,1,0,-2,2021-08-07 12:21:12,894081
5,8,6,-3,-3,0,1,3,2021-08-07 12:21:12,924121
-1,-1,-3,-1,3,2,1,0,2021-08-07 12:21:12,940133
-3,-5,-3,1,-2,-4,-4,-3,2021-08-07 12:21:12,956133
5,6,3,1,-1,2,0,2,2021-08-07 12:21:12,956133
-3,-4,-4,-3,-6,-4,-1,-4,2021-08-07 12:21:12,956133
2,2,5,3,4,1,3,2,2021-08-07 12:21:12,956133
-2,-2,2,7,4,0,0,-1,2021-08-07 12:21:12,956133
-5,-4,-6,-8,-5,-3,-4,-4,2021-08-07 12:21:12,956133
-2,-3,-2,3,1,0,-1,-2,2021-08-07 12:21:12,956133
0,0,0,0,-3,-2,-2,-1,2021-08-07 12:21:12,956133
-2,-4,-3,-5,-5,-2,-1,-1,2021-08-07 12:21:12,956133
-1,-1,-1,-5,-7,-4,-2,-1,2021-08-07 12:21:12,956133
-3,-4,-4,-1,3,0,-1,-2,2021-08-07 12:21:12,972109
0,2,2,5,8,2,1,0,2021-08-07 12:21:12,972109
0,-1,-2,-2,-3,-1,0,0,2021-08-07 12:21:12,972109
-3,-2,-2,-1,0,-1,-1,-2,2021-08-07 12:21:12,972109
0,-1,-5,-2,-2,-2,-1,-1,2021-08-07 12:21:12,988083
-1,0,-1,0,0,-1,-2,1,2021-08-07 12:21:12,988083
-5,-4,-4,-8,-5,-5,-2,-4,2021-08-07 12:21:12,988083
6,8,7,9,4,2,2,2,2021-08-07 12:21:12,988083
-5,-6,-5,-3,-1,0,0,-2,2021-08-07 12:21:13,019086
3,5,5,11,5,2,0,0,2021-08-07 12:21:13,019086
-1,-1,-3,-6,-4,-2,-1,-1,2021-08-07 12:21:13,019086
-6,-9,-6,-9,-9,-8,-5,-5,2021-08-07 12:21:13,019086
2,5,5,1,6,6,3,3,2021-08-07 12:21:13,035132
-1,0,-1,-3,1,-1,0,0,2021-08-07 12:21:13,035132
-3,-3,-7,-8,-9,-6,-4,-3,2021-08-07 12:21:13,035132
0,1,3,2,0,0,2,0,2021-08-07 12:21:13,035132
2,3,3,7,12,6,1,1,2021-08-07 12:21:13,051119
2,0,1,2,0,0,0,-1,2021-08-07 12:21:13,067083
0,0,0,0,-1,1,-1,-1,2021-08-07 12:21:13,067083
-4,-2,-4,-10,-11,-5,-5,-3,2021-08-07 12:21:13,067083
-1,-1,-2,-2,2,1,0,-1,2021-08-07 12:21:13,067083
-3,-3,-4,-2,-3,1,-2,-2,2021-08-07 12:21:13,067083
0,1,2,6,4,1,3,1,2021-08-07 12:21:13,067083
-2,-2,-4,-5,-1,-3,-2,-1,2021-08-07 12:21:13,067083
1,0,-2,-4,-8,-3,-2,-1,2021-08-07 12:21:13,098118
1,0,4,8,6,2,2,2,2021-08-07 12:21:13,114085
-1,0,-1,3,4,1,0,0,2021-08-07 12:21:13,114085
-3,-4,-1,-2,1,-2,-1,-1,2021-08-07 12:21:13,114085
-5,-5,-6,-7,-9,-7,-6,-5,2021-08-07 12:21:13,114085
1,-1,-4,-11,-8,-2,-3,0,2021-08-07 12:21:13,114085
4,5,7,9,10,4,2,1,2021-08-07 12:21:13,114085
0,0,0,4,6,3,-1,-1,2021-08-07 12:21:13,114085
-2,-3,-1,2,-1,-3,-1,0,2021-08-07 12:21:13,129130
-5,-5,-6,-7,-7,-5,-2,-4,2021-08-07 12:21:13,129130
-1,-2,-2,-8,-6,-1,0,1,2021-08-07 12:21:13,129130
0,-1,-2,-3,2,2,0,0,2021-08-07 12:21:13,129130
0,1,3,6,-1,1,1,0,2021-08-07 12:21:13,161129
-2,-2,0,2,2,1,-2,-1,2021-08-07 12:21:13,165130
-1,-3,-2,-2,-3,-2,-2,0,2021-08-07 12:21:13,165130
1,-1,-4,0,1,1,0,-1,2021-08-07 12:21:13,166081
-3,-6,-5,-7,-8,-4,-4,-3,2021-08-07 12:21:13,166081
2,4,4,3,1,1,2,0,2021-08-07 12:21:13,166081
0,1,-3,-5,0,0,-2,-1,2021-08-07 12:21:13,177083
1,0,2,6,3,3,3,1,2021-08-07 12:21:13,177083
-1,0,2,7,4,0,-1,0,2021-08-07 12:21:13,193081
-2,-1,-2,0,-2,-1,-1,-1,2021-08-07 12:21:13,209083
-1,2,0,-4,-4,-3,-2,0,2021-08-07 12:21:13,209083
1,-1,-3,-6,-1,-2,0,-1,2021-08-07 12:21:13,209083
-2,-1,0,4,2,0,0,-2,2021-08-07 12:21:13,209083
3,3,3,1,0,-1,1,1,2021-08-07 12:21:13,209083
-2,-3,-3,-5,-5,-1,-2,-2,2021-08-07 12:21:13,209083
-1,-1,2,5,7,3,0,0,2021-08-07 12:21:13,210118
-3,-1,0,-6,-6,-3,-2,-1,2021-08-07 12:21:13,225123
-4,-5,-4,2,3,0,-2,-2,2021-08-07 12:21:13,225123
0,-2,-2,-3,-4,-2,-2,-3,2021-08-07 12:21:13,241130
1,1,-1,-2,-6,-2,-1,-2,2021-08-07 12:21:13,241130
-1,1,0,0,0,-2,-1,-1,2021-08-07 12:21:13,257082
-5,-5,-2,-2,-4,-1,-2,0,2021-08-07 12:21:13,257082
2,1,2,7,7,4,1,-1,2021-08-07 12:21:13,257082
-4,-5,-1,-1,-3,-3,-1,-2,2021-08-07 12:21:13,257082
8,11,7,4,0,3,1,5,2021-08-07 12:21:13,273108
-1,-2,-4,-6,1,2,-1,-3,2021-08-07 12:21:13,289084
-2,-1,0,0,-1,-1,-1,-1,2021-08-07 12:21:13,289084
3,4,2,5,2,0,-1,1,2021-08-07 12:21:13,289084
0,-3,-3,-1,3,0,0,0,2021-08-07 12:21:13,289084
-2,-1,-2,0,-1,-1,-1,-2,2021-08-07 12:21:13,289084
-4,-3,-5,-6,-6,-2,-3,-3,2021-08-07 12:21:13,289084
-3,-3,-7,-9,-4,-2,-3,-3,2021-08-07 12:21:13,289084
-2,-2,-3,-10,-11,-5,-3,-1,2021-08-07 12:21:13,337111
3,3,6,12,9,4,1,-1,2021-08-07 12:21:13,353121
1,2,2,3,6,1,2,1,2021-08-07 12:21:13,369124
-2,-2,-4,-9,-8,-3,-2,-1,2021-08-07 12:21:13,369124
-1,-1,0,6,7,3,-2,-2,2021-08-07 12:21:13,369124
-3,-4,-2,-7,-7,-4,-1,-2,2021-08-07 12:21:13,369124
1,-1,0,-3,-6,-3,-2,-2,2021-08-07 12:21:13,369124
-3,-1,1,3,5,0,0,0,2021-08-07 12:21:13,369124
2,3,-1,-5,-5,0,0,0,2021-08-07 12:21:13,369124
-2,-1,-4,-4,-2,-3,-1,-2,2021-08-07 12:21:13,369124
-3,-4,2,8,8,1,0,-2,2021-08-07 12:21:13,369124
3,5,4,3,0,1,2,3,2021-08-07 12:21:13,369124
1,-1,0,1,1,-1,-1,0,2021-08-07 12:21:13,369124
1,-1,-3,-8,-8,-3,-2,-1,2021-08-07 12:21:13,370118
-1,-1,-2,-5,-5,-2,-1,-2,2021-08-07 12:21:13,370118
-4,-6,-2,-1,-3,-2,-2,-4,2021-08-07 12:21:13,370118
-2,-4,-4,-6,-5,-5,-2,-3,2021-08-07 12:21:13,401121
2,3,0,2,-1,0,0,3,2021-08-07 12:21:13,401121
-1,-2,-2,-4,-2,-3,-2,-3,2021-08-07 12:21:13,401121
-2,-3,3,6,7,4,1,-1,2021-08-07 12:21:13,401121
-5,-7,-2,-1,0,-3,-4,-3,2021-08-07 12:21:13,401121
2,4,3,3,1,1,2,1,2021-08-07 12:21:13,401121
1,2,2,6,-1,-1,0,1,2021-08-07 12:21:13,417081
-1,-2,-5,-8,-7,-5,-3,-2,2021-08-07 12:21:13,433111
1,0,-2,-6,-3,0,1,-1,2021-08-07 12:21:13,449109
-4,-7,-6,-9,-1,-4,-4,-5,2021-08-07 12:21:13,465111
1,2,2,9,5,3,0,2,2021-08-07 12:21:13,465111
0,1,1,0,-2,-1,-2,-2,2021-08-07 12:21:13,465111
-5,-6,-3,1,3,2,1,-2,2021-08-07 12:21:13,465111
3,4,1,0,-2,1,2,2,2021-08-07 12:21:13,465111
-2,-2,-5,-15,-12,-4,-2,-2,2021-08-07 12:21:13,465111
-2,-1,2,7,3,0,-2,0,2021-08-07 12:21:13,465111
3,4,7,7,7,5,3,2,2021-08-07 12:21:13,465111
-1,-2,0,8,9,3,1,-2,2021-08-07 12:21:13,466111
-3,-6,-5,-7,-4,-5,-2,-3,2021-08-07 12:21:13,481115
1,5,1,2,-1,2,-1,1,2021-08-07 12:21:13,481115
0,3,2,-1,-3,-2,1,0,2021-08-07 12:21:13,497083
-2,-2,-2,-3,-1,-2,-2,-1,2021-08-07 12:21:13,497083
1,-2,-4,-3,0,0,0,1,2021-08-07 12:21:13,497083
1,-3,-5,-9,-3,-1,-1,0,2021-08-07 12:21:13,497083
1,-1,1,8,9,5,2,1,2021-08-07 12:21:13,513082
-3,-5,-2,-3,-4,-3,-3,-3,2021-08-07 12:21:13,528081
-5,-3,1,5,2,-1,-3,-6,2021-08-07 12:21:13,544083
-3,-2,-1,-7,-11,-6,-3,-4,2021-08-07 12:21:13,544083
3,6,2,6,8,2,1,0,2021-08-07 12:21:13,544083
0,0,-1,-3,-7,-4,-1,-2,2021-08-07 12:21:13,544083
2,-2,-2,-3,2,1,1,0,2021-08-07 12:21:13,544083
3,4,1,1,1,2,2,1,2021-08-07 12:21:13,544083
-3,-4,-7,-17,-11,-5,-3,-2,2021-08-07 12:21:13,544083
1,0,3,10,4,3,2,2,2021-08-07 12:21:13,544083
1,3,1,0,-4,0,0,1,2021-08-07 12:21:13,559082
-3,-7,-6,-3,-3,-4,-2,-4,2021-08-07 12:21:13,572083
-1,0,-1,-2,0,-1,-3,-2,2021-08-07 12:21:13,572083
-2,-2,-2,-4,-1,-3,-1,0,2021-08-07 12:21:13,572083
-1,-1,0,-1,6,4,1,-1,2021-08-07 12:21:13,573107
-2,1,-1,3,0,-1,-1,-2,2021-08-07 12:21:13,573107
2,1,2,1,-3,-1,2,0,2021-08-07 12:21:13,607106
-3,-2,-3,-5,-5,-2,-2,-2,2021-08-07 12:21:13,607106
0,0,-1,0,-1,-1,0,0,2021-08-07 12:21:13,607106
-5,-4,-5,-7,-3,-3,-3,-1,2021-08-07 12:21:13,607106
1,0,-1,5,3,2,2,1,2021-08-07 12:21:13,607106
-2,-2,1,-2,-2,0,-1,-1,2021-08-07 12:21:13,607106
0,0,0,2,-1,-1,-1,0,2021-08-07 12:21:13,607106
1,1,2,3,3,1,1,0,2021-08-07 12:21:13,608089
-5,-6,-3,-1,-5,-4,-4,-3,2021-08-07 12:21:13,638084
0,-1,-1,2,4,0,1,-1,2021-08-07 12:21:13,638084
-1,-3,-2,-3,-2,-2,-3,-2,2021-08-07 12:21:13,638084
-2,-2,-6,-11,-9,-4,-2,-3,2021-08-07 12:21:13,638084
2,3,4,4,0,0,0,2,2021-08-07 12:21:13,654109
-2,0,2,12,12,4,1,-2,2021-08-07 12:21:13,669254
-3,-4,-1,5,2,0,1,0,2021-08-07 12:21:13,701255
4,3,4,3,7,3,3,3,2021-08-07 12:21:13,701255
0,2,-1,-8,-7,-4,-3,0,2021-08-07 12:21:13,701255
-1,-2,-4,-8,-9,-4,-3,0,2021-08-07 12:21:13,701255
-3,0,0,2,1,0,0,-2,2021-08-07 12:21:13,701255
-2,1,2,8,8,2,-1,1,2021-08-07 12:21:13,701255
0,-1,-2,0,0,-1,-3,-1,2021-08-07 12:21:13,701255
1,3,1,-4,-5,-1,0,0,2021-08-07 12:21:13,701255
-2,-2,-4,-9,-6,-4,-3,-2,2021-08-07 12:21:13,702255
-4,-9,-7,-6,-5,-3,-2,-3,2021-08-07 12:21:13,702255
3,5,5,9,8,4,1,1,2021-08-07 12:21:13,717251
2,1,1,1,-1,0,0,-1,2021-08-07 12:21:13,717251
0,-2,-4,-7,-5,-3,-2,-1,2021-08-07 12:21:13,717251
-2,-3,-3,-5,-6,-5,-4,-3,2021-08-07 12:21:13,717251
-3,-5,-3,-7,-6,-5,-2,-3,2021-08-07 12:21:13,733291
-2,-1,-3,1,3,-1,-2,-3,2021-08-07 12:21:13,733291
-1,1,0,1,2,2,-1,0,2021-08-07 12:21:13,733291
-3,-1,-1,-2,-4,-4,-2,-1,2021-08-07 12:21:13,733291
-3,-3,-5,-7,-6,-1,0,-2,2021-08-07 12:21:13,764253
-1,1,7,17,10,3,0,1,2021-08-07 12:21:13,764253
2,4,4,4,2,3,3,2,2021-08-07 12:21:13,780252
0,-1,0,4,3,1,0,-2,2021-08-07 12:21:13,780252
-2,-3,-5,-6,-4,-3,-2,-1,2021-08-07 12:21:13,780252
-2,-4,-6,-13,-8,-4,-2,-2,2021-08-07 12:21:13,780252
-2,-3,-3,1,-2,-3,-1,-2,2021-08-07 12:21:13,780252
-2,-4,-2,-3,-2,-1,-3,-3,2021-08-07 12:21:13,780252
1,1,0,0,2,1,-1,0,2021-08-07 12:21:13,796254
-3,-2,-1,-3,-3,-2,-1,0,2021-08-07 12:21:13,812301
-3,-3,-7,-16,-12,-8,-5,-2,2021-08-07 12:21:13,812301
2,4,9,22,21,10,5,1,2021-08-07 12:21:13,828291
-1,-2,-2,-2,-3,-4,-3,-2,2021-08-07 12:21:13,828291
-2,0,-2,0,2,0,-2,-2,2021-08-07 12:21:13,828291
-1,-1,-3,-3,-4,-2,-1,0,2021-08-07 12:21:13,828291
-1,1,-4,-13,-10,-3,-2,-1,2021-08-07 12:21:13,828291
-1,-2,1,9,6,2,0,1,2021-08-07 12:21:13,844252
0,-1,-2,-7,-6,-4,-1,-1,2021-08-07 12:21:13,844252
-2,-3,-2,2,-2,-1,-3,-2,2021-08-07 12:21:13,844252
0,-1,-2,-2,0,0,0,-1,2021-08-07 12:21:13,844252
0,0,1,3,3,3,0,-2,2021-08-07 12:21:13,844252
-2,-3,-5,-9,-8,-3,-2,-2,2021-08-07 12:21:13,844252
0,0,1,0,-3,-1,-1,1,2021-08-07 12:21:13,860280
-1,-2,-4,-9,1,0,0,-1,2021-08-07 12:21:13,860280
3,6,6,13,7,4,3,3,2021-08-07 12:21:13,876588
-2,-2,-1,-2,3,0,-1,-3,2021-08-07 12:21:13,891705
-1,1,-4,-1,0,1,-1,0,2021-08-07 12:21:13,891705
-1,-2,-1,-1,-4,-2,-3,-2,2021-08-07 12:21:13,891705
-6,-7,-8,-12,-9,-7,-5,-3,2021-08-07 12:21:13,891705
2,2,0,-1,-3,-3,0,1,2021-08-07 12:21:13,891705
-1,0,1,8,10,2,2,-1,2021-08-07 12:21:13,891705
1,0,-1,-5,-5,-2,-2,0,2021-08-07 12:21:13,892663
-4,-4,-3,-4,-2,-3,-1,-3,2021-08-07 12:21:13,907700
-3,-1,-3,-4,-6,-4,-4,-1,2021-08-07 12:21:13,907700
1,2,5,0,1,1,1,2,2021-08-07 12:21:13,923700
0,0,2,10,6,2,0,0,2021-08-07 12:21:13,939713
-2,-1,-1,-4,-4,-2,-1,-2,2021-08-07 12:21:13,955704
-2,-2,-1,1,1,-1,-2,-2,2021-08-07 12:21:13,955704
-1,-2,-3,-5,-3,-1,-1,-1,2021-08-07 12:21:13,955704
-1,-1,-1,0,0,0,0,0,2021-08-07 12:21:13,955704
0,-1,-1,-2,-3,-1,-1,-1,2021-08-07 12:21:13,955704
0,-3,0,-2,-1,-2,-1,-1,2021-08-07 12:21:13,955704
-1,-1,1,3,-1,0,-3,-2,2021-08-07 12:21:13,956701
-1,0,0,-1,-3,-2,-1,0,2021-08-07 12:21:13,956701
0,-3,-5,-7,-4,-3,-3,-2,2021-08-07 12:21:13,986661
-2,-3,-4,2,-1,1,-1,-1,2021-08-07 12:21:14,002692
0,-2,2,8,9,3,0,-3,2021-08-07 12:21:14,028695
1,3,2,3,0,-1,3,1,2021-08-07 12:21:14,028695
-4,-5,-5,-7,-4,-3,-1,-2,2021-08-07 12:21:14,028695
2,3,0,1,1,0,0,2,2021-08-07 12:21:14,028695
-5,-7,-7,-10,-9,-7,-5,-5,2021-08-07 12:21:14,028695
-1,-1,-5,-12,-11,-5,-3,-2,2021-08-07 12:21:14,028695
-1,-1,0,4,3,-1,-1,0,2021-08-07 12:21:14,029664
3,1,6,8,9,6,4,1,2021-08-07 12:21:14,029664
0,2,0,6,6,3,-1,0,2021-08-07 12:21:14,029664
-2,-2,0,1,-3,-1,-2,-2,2021-08-07 12:21:14,029664
-2,0,-3,-5,-4,-2,-2,-3,2021-08-07 12:21:14,029664
-3,-3,-3,-11,-8,-4,-4,-2,2021-08-07 12:21:14,029664
0,1,1,0,2,0,1,0,2021-08-07 12:21:14,030662
0,1,1,4,4,0,-1,1,2021-08-07 12:21:14,030662
-2,-2,-4,-9,-6,-4,-2,-1,2021-08-07 12:21:14,065710
3,3,2,6,3,1,1,1,2021-08-07 12:21:14,065710
-3,-4,-5,-10,-7,-4,-1,-2,2021-08-07 12:21:14,065710
0,-1,2,11,7,2,0,-2,2021-08-07 12:21:14,065710
4,7,8,8,5,3,4,3,2021-08-07 12:21:14,081687
-1,1,1,4,2,1,-1,1,2021-08-07 12:21:14,097663
-1,-1,-4,-11,-6,-4,1,0,2021-08-07 12:21:14,112684
2,3,4,0,5,1,2,2,2021-08-07 12:21:14,112684
0,0,-2,-1,-2,0,0,-1,2021-08-07 12:21:14,112684
-1,-2,-2,-2,-1,-1,0,-3,2021-08-07 12:21:14,112684
-2,-1,-2,-3,-4,-2,-1,-2,2021-08-07 12:21:14,112684
-1,-2,-3,-4,-4,-3,-2,-2,2021-08-07 12:21:14,112684
2,1,4,10,10,3,0,0,2021-08-07 12:21:14,112684
-4,-4,-4,-6,-5,-4,-3,-2,2021-08-07 12:21:14,112684
1,1,-2,-9,-10,-4,-1,1,2021-08-07 12:21:14,113664
-1,-3,-1,-1,0,-2,-2,-2,2021-08-07 12:21:14,113664
0,-1,2,8,11,5,0,1,2021-08-07 12:21:14,144701
-1,-2,0,2,3,2,0,-1,2021-08-07 12:21:14,144701
0,3,3,5,2,2,1,0,2021-08-07 12:21:14,144701
-1,-1,-3,-2,-6,-2,-2,0,2021-08-07 12:21:14,144701
-3,-2,-7,-11,-13,-7,-3,0,2021-08-07 12:21:14,144701
2,0,-4,-10,-8,-5,-3,0,2021-08-07 12:21:14,144701
2,0,6,20,18,6,1,1,2021-08-07 12:21:14,160702
1,1,0,-2,-5,-2,-1,0,2021-08-07 12:21:14,160702
-1,-1,0,3,4,1,-1,-3,2021-08-07 12:21:14,175664
0,0,-1,-1,-1,-1,0,-1,2021-08-07 12:21:14,175664
-3,-3,-6,-9,-9,-5,-3,-2,2021-08-07 12:21:14,175664
-1,-2,0,-4,-4,-2,-3,-2,2021-08-07 12:21:14,175664
-1,-1,-5,-7,-8,-3,-3,-1,2021-08-07 12:21:14,207715
2,0,2,1,6,3,3,0,2021-08-07 12:21:14,207715
-2,-1,-2,3,-1,0,-1,-2,2021-08-07 12:21:14,207715
-1,1,4,13,16,7,3,-1,2021-08-07 12:21:14,207715
-2,-4,-4,-6,-9,-5,-1,-4,2021-08-07 12:21:14,207715
-4,-2,-7,-18,-20,-10,-4,-2,2021-08-07 12:21:14,207715
1,1,6,15,14,4,2,3,2021-08-07 12:21:14,239702
-2,-3,-4,-5,-3,-2,0,-1,2021-08-07 12:21:14,271661
-1,0,0,0,2,1,0,1,2021-08-07 12:21:14,271661
2,5,8,17,11,6,3,1,2021-08-07 12:21:14,271661
-2,-3,-6,-14,-15,-7,-4,-2,2021-08-07 12:21:14,271661
0,-2,-6,-7,-5,-5,-3,-1,2021-08-07 12:21:14,271661
1,0,0,2,2,0,0,1,2021-08-07 12:21:14,271661
-5,-5,-7,-6,-5,-4,-4,-3,2021-08-07 12:21:14,271661
1,3,2,-1,-2,-2,0,1,2021-08-07 12:21:14,287662
0,1,-1,1,0,0,1,1,2021-08-07 12:21:14,287662
-4,-1,-3,-5,-4,-2,-3,-4,2021-08-07 12:21:14,287662
2,0,-1,-1,1,0,0,1,2021-08-07 12:21:14,287662
-2,-3,-1,-3,-2,0,-2,-2,2021-08-07 12:21:14,287662
-4,-3,-5,-6,-4,-1,-2,-2,2021-08-07 12:21:14,287662
2,1,4,14,14,7,3,2,2021-08-07 12:21:14,288663
-5,-6,-6,-10,-9,-6,-5,-5,2021-08-07 12:21:14,288663
2,3,3,4,4,1,1,2,2021-08-07 12:21:14,288663
-1,0,-4,-9,-6,-4,0,0,2021-08-07 12:21:14,288663
-2,-2,-3,-5,-7,-2,-3,-1,2021-08-07 12:21:14,319698
0,1,4,11,2,1,0,1,2021-08-07 12:21:14,335664
-1,-2,-2,-4,-2,-2,0,-2,2021-08-07 12:21:14,335664
1,4,3,5,6,2,1,3,2021-08-07 12:21:14,335664
0,-2,-4,-7,-4,-2,-2,-2,2021-08-07 12:21:14,335664
-1,-1,1,9,10,3,3,1,2021-08-07 12:21:14,335664
0,-4,-5,-9,-10,-3,0,-1,2021-08-07 12:21:14,335664
0,-4,-1,0,-2,-1,1,-3,2021-08-07 12:21:14,335664
-4,-3,-3,-4,-3,-3,0,-1,2021-08-07 12:21:14,351693
-2,1,0,-2,-3,-1,-2,-2,2021-08-07 12:21:14,351693
-4,-4,-1,0,1,-2,-2,-4,2021-08-07 12:21:14,351693
1,4,3,2,-2,-1,-2,-1,2021-08-07 12:21:14,351693
0,-6,-5,-4,-2,-1,-2,-2,2021-08-07 12:21:14,383663
4,4,3,-6,-6,-2,-1,2,2021-08-07 12:21:14,383663
5,5,8,19,15,8,4,5,2021-08-07 12:21:14,383663
3,0,-1,0,-3,-1,1,0,2021-08-07 12:21:14,399714
-3,-5,-4,-5,-6,-4,-1,-3,2021-08-07 12:21:14,399714
4,4,0,2,4,2,2,1,2021-08-07 12:21:14,399714
-5,-7,-7,-10,-8,-4,-4,-5,2021-08-07 12:21:14,399714
-2,-2,-4,-5,-2,0,-2,-2,2021-08-07 12:21:14,399714
1,1,4,7,3,2,1,1,2021-08-07 12:21:14,415698
-3,-6,-5,-8,-6,-3,-2,-2,2021-08-07 12:21:14,431695
3,4,5,12,9,5,2,3,2021-08-07 12:21:14,431695
-3,-3,-4,-5,-7,-5,-2,-2,2021-08-07 12:21:14,431695
0,1,-2,-9,-6,-5,-3,0,2021-08-07 12:21:14,431695
-2,-1,2,8,3,1,0,-2,2021-08-07 12:21:14,431695
0,1,-5,-7,1,0,1,-1,2021-08-07 12:21:14,431695
-1,-2,0,3,2,-1,-3,-3,2021-08-07 12:21:14,431695
-1,-2,-1,0,-2,-1,0,-2,2021-08-07 12:21:14,447662
-1,-1,-3,-1,-1,-1,-2,0,2021-08-07 12:21:14,462680
-3,-3,-4,-9,-9,-5,-3,-3,2021-08-07 12:21:14,478688
-1,-2,1,0,0,1,0,-1,2021-08-07 12:21:14,478688
1,1,0,2,-1,1,0,1,2021-08-07 12:21:14,478688
-5,-8,-2,-7,-6,-3,-2,-3,2021-08-07 12:21:14,478688
8,10,8,8,6,4,5,4,2021-08-07 12:21:14,478688
-4,-5,-5,-5,-5,-4,-3,-2,2021-08-07 12:21:14,478688
0,-2,-3,-7,-5,-3,-1,0,2021-08-07 12:21:14,494660
0,-1,1,6,6,-1,-1,-1,2021-08-07 12:21:14,510703
-2,-1,-1,-3,-3,1,-1,-2,2021-08-07 12:21:14,510703
1,3,5,12,11,6,4,1,2021-08-07 12:21:14,510703
-1,-1,-1,-1,-2,-2,0,0,2021-08-07 12:21:14,526715
-3,-6,-8,-12,-7,-4,-4,-1,2021-08-07 12:21:14,526715
-3,-5,-6,-6,-9,-7,-4,-2,2021-08-07 12:21:14,542665
1,0,-1,-1,3,1,0,0,2021-08-07 12:21:14,542665
-2,-1,1,7,7,2,0,-1,2021-08-07 12:21:14,542665
1,2,-3,-2,-2,0,0,0,2021-08-07 12:21:14,542665
-2,-3,-5,-8,-9,-6,-4,-2,2021-08-07 12:21:14,543662
-3,-2,-3,-7,-8,-3,-2,-1,2021-08-07 12:21:14,543662
-1,0,4,9,10,3,0,0,2021-08-07 12:21:14,557661
2,3,5,7,7,3,1,2,2021-08-07 12:21:14,557661
0,-3,-2,-1,-2,-2,-4,-2,2021-08-07 12:21:14,557661
-1,-2,-2,-2,2,0,-2,-1,2021-08-07 12:21:14,557661
-1,-1,-2,-8,-7,-5,-1,-1,2021-08-07 12:21:14,589702
-3,-3,-7,-5,-4,-3,-2,-2,2021-08-07 12:21:14,589702
-3,-4,-3,-6,-6,-4,-2,-1,2021-08-07 12:21:14,589702
0,-2,3,0,-1,-1,-2,-1,2021-08-07 12:21:14,589702
3,4,7,10,9,6,3,2,2021-08-07 12:21:14,589702
-1,-2,-1,0,2,2,-1,-1,2021-08-07 12:21:14,589702
-2,-5,-6,-9,-6,-5,-1,-2,2021-08-07 12:21:14,589702
0,-2,-8,-17,-18,-8,-2,-1,2021-08-07 12:21:14,590700
2,1,9,26,17,6,2,1,2021-08-07 12:21:14,620714
-2,-2,-3,-7,-7,-4,-3,-2,2021-08-07 12:21:14,636692
3,4,10,17,16,8,3,2,2021-08-07 12:21:14,652663
1,2,1,3,2,2,2,2,2021-08-07 12:21:14,652663
-1,-1,-3,-14,-14,-8,-3,-2,2021-08-07 12:21:14,652663
-2,-4,-4,0,2,-1,-1,-2,2021-08-07 12:21:14,652663
-3,-1,-1,-6,-9,-4,-3,-1,2021-08-07 12:21:14,652663
-4,-3,-3,-4,-1,-1,-2,-2,2021-08-07 12:21:14,652663
2,3,4,13,10,5,2,2,2021-08-07 12:21:14,668665
-3,-4,-1,0,-2,-1,-2,-3,2021-08-07 12:21:14,684664
-3,-2,-1,-3,-3,-1,0,-2,2021-08-07 12:21:14,684664
4,3,4,5,3,2,0,2,2021-08-07 12:21:14,684664
-2,-4,-7,-18,-12,-6,-3,-2,2021-08-07 12:21:14,684664
-2,-1,1,0,1,-1,0,0,2021-08-07 12:21:14,684664
-1,-1,-3,3,3,1,0,-1,2021-08-07 12:21:14,684664
-1,0,2,4,2,0,-2,-3,2021-08-07 12:21:14,685663
-2,-2,-4,-8,-6,-2,-1,-1,2021-08-07 12:21:14,700662
3,2,0,-3,-5,-2,-2,-1,2021-08-07 12:21:14,716703
-6,-5,-9,-17,-10,-6,-6,-4,2021-08-07 12:21:14,732712
2,4,5,16,15,7,3,0,2021-08-07 12:21:14,748687
-2,-2,-1,3,1,-1,1,-3,2021-08-07 12:21:14,764663
-2,-3,-4,-5,-4,-3,-1,-2,2021-08-07 12:21:14,780664
-1,0,-1,-5,-3,-2,0,1,2021-08-07 12:21:14,796662
1,1,-2,-9,-10,-5,-1,0,2021-08-07 12:21:14,796662
0,-1,1,7,5,3,0,-1,2021-08-07 12:21:14,812661
0,1,1,4,4,2,0,1,2021-08-07 12:21:14,812661
-3,-5,0,2,0,-2,-2,-4,2021-08-07 12:21:14,812661
-5,-8,-8,-14,-19,-8,-4,-3,2021-08-07 12:21:14,812661
5,6,4,3,11,7,4,2,2021-08-07 12:21:14,813663
2,1,3,7,7,5,3,1,2021-08-07 12:21:14,813663
-1,1,2,5,4,1,-1,1,2021-08-07 12:21:14,813663
-5,-5,-5,-5,-8,-5,-5,-1,2021-08-07 12:21:14,813663
-4,-7,-8,-11,-11,-7,-3,-3,2021-08-07 12:21:14,813663
2,2,1,1,6,3,1,2,2021-08-07 12:21:14,814664
0,-1,0,2,2,2,0,0,2021-08-07 12:21:14,814664
-4,-2,-2,-5,-2,-1,-1,-2,2021-08-07 12:21:14,814664
-2,-1,-3,-5,-7,-4,-2,0,2021-08-07 12:21:14,814664
0,2,6,12,9,3,1,0,2021-08-07 12:21:14,814664
-2,-4,-5,-2,-3,-1,-2,-1,2021-08-07 12:21:14,814664
1,1,1,2,2,0,0,0,2021-08-07 12:21:14,814664
-1,-1,-5,-9,-5,-2,-2,-1,2021-08-07 12:21:14,814664
1,0,-1,-5,-6,-1,-1,0,2021-08-07 12:21:14,814664
3,4,4,6,4,3,2,2,2021-08-07 12:21:14,814664
-4,-8,-6,-11,-6,-3,-4,-4,2021-08-07 12:21:14,815662
2,4,6,14,8,4,2,1,2021-08-07 12:21:14,828704
0,4,3,4,1,2,2,3,2021-08-07 12:21:14,828704
-1,-3,-1,0,-1,-1,-3,0,2021-08-07 12:21:14,844663
-3,-2,-3,-8,-5,-2,-2,-2,2021-08-07 12:21:14,860705
-1,-1,1,4,4,1,0,1,2021-08-07 12:21:14,860705
-2,-1,-3,-4,-2,-1,0,-1,2021-08-07 12:21:14,860705
0,-1,-2,-1,-1,0,1,1,2021-08-07 12:21:14,860705
-1,-2,0,5,3,0,0,-1,2021-08-07 12:21:14,860705
-4,-4,-6,-16,-15,-8,-5,-2,2021-08-07 12:21:14,876705
-2,-2,-2,0,1,-1,-2,-2,2021-08-07 12:21:14,876705
1,-1,-3,-6,-2,-3,-2,-3,2021-08-07 12:21:14,876705
4,3,5,11,6,4,3,0,2021-08-07 12:21:14,876705
-2,-3,-3,-3,-2,-2,-1,-2,2021-08-07 12:21:14,892664
-3,-3,-3,-4,-5,-2,0,-2,2021-08-07 12:21:14,892664
0,2,0,0,-2,1,-1,-1,2021-08-07 12:21:14,892664
-1,-2,-3,-6,-1,0,-1,0,2021-08-07 12:21:14,907664
1,1,3,6,2,1,0,0,2021-08-07 12:21:14,923700
-1,0,-2,-3,-3,-2,-1,1,2021-08-07 12:21:14,923700
-2,0,2,3,2,0,-1,-2,2021-08-07 12:21:14,923700
-1,0,-1,1,3,1,2,0,2021-08-07 12:21:14,923700
-4,-3,-4,-5,-4,-2,-1,-3,2021-08-07 12:21:14,939702
1,-3,-2,-4,-2,-1,-3,0,2021-08-07 12:21:14,939702
-2,-1,1,1,-2,-2,-2,-2,2021-08-07 12:21:14,939702
-1,1,-3,-7,-15,-9,-3,-2,2021-08-07 12:21:14,939702
3,4,3,8,16,8,2,1,2021-08-07 12:21:14,955664
-4,-2,0,8,3,0,-3,-4,2021-08-07 12:21:14,959716
2,2,1,2,5,4,3,2,2021-08-07 12:21:14,959716
1,0,3,6,1,0,-2,-1,2021-08-07 12:21:14,959716
-2,-4,-6,-8,-12,-7,-1,-1,2021-08-07 12:21:14,987661
0,-3,-3,-9,-6,-3,-1,-2,2021-08-07 12:21:15,003701
0,0,-1,-2,0,-1,0,-1,2021-08-07 12:21:15,019661
-3,-2,-4,-3,0,-1,-2,-2,2021-08-07 12:21:15,019661
-1,0,0,0,0,0,-2,1,2021-08-07 12:21:15,019661
-4,-3,-3,-3,-1,-2,-3,-1,2021-08-07 12:21:15,019661
-3,-6,-5,-4,1,1,1,-1,2021-08-07 12:21:15,019661
8,11,13,18,15,7,5,7,2021-08-07 12:21:15,019661
-1,-2,-3,-4,-2,-3,-2,-2,2021-08-07 12:21:15,019661
-2,-2,-3,-2,-5,-2,-2,-3,2021-08-07 12:21:15,019661
-1,-2,-2,3,-2,-1,-1,-1,2021-08-07 12:21:15,019661
-1,-2,0,1,3,0,0,0,2021-08-07 12:21:15,020664
-1,-2,0,0,-2,0,-1,0,2021-08-07 12:21:15,035688
1,0,-1,-2,-6,-2,-2,1,2021-08-07 12:21:15,035688
-3,-3,-3,1,2,1,-1,-3,2021-08-07 12:21:15,035688
0,-2,-2,-5,-5,-3,-2,-2,2021-08-07 12:21:15,035688
0,-1,3,3,1,0,1,0,2021-08-07 12:21:15,051665
-1,-2,-2,-6,-1,0,0,-2,2021-08-07 12:21:15,051665
0,0,0,-3,-4,-1,-1,0,2021-08-07 12:21:15,051665
-2,-4,-1,-3,0,-1,-1,-1,2021-08-07 12:21:15,051665
-1,-1,-2,-3,-6,-4,-1,0,2021-08-07 12:21:15,067663
0,1,0,2,4,1,0,-1,2021-08-07 12:21:15,067663
0,2,3,4,3,1,0,1,2021-08-07 12:21:15,067663
-2,-3,-3,-7,-5,-4,-3,-3,2021-08-07 12:21:15,067663
-1,-1,-4,-10,-7,-4,-2,-1,2021-08-07 12:21:15,098709
3,2,6,17,13,5,4,0,2021-08-07 12:21:15,098709
0,2,1,-3,-5,-2,-1,0,2021-08-07 12:21:15,098709
-2,-1,-2,0,0,0,-1,1,2021-08-07 12:21:15,098709
-2,-2,-1,-3,0,0,-2,-1,2021-08-07 12:21:15,130665
-1,-1,-3,-4,-4,-2,-3,-1,2021-08-07 12:21:15,130665
-2,-2,-2,1,3,0,1,1,2021-08-07 12:21:15,130665
0,-1,-1,1,0,0,1,0,2021-08-07 12:21:15,130665
-2,0,-3,-3,0,-1,1,-1,2021-08-07 12:21:15,130665
0,0,-3,-8,-8,-5,-1,1,2021-08-07 12:21:15,130665
0,2,1,2,2,1,-1,1,2021-08-07 12:21:15,146666
-2,-2,-2,-1,-3,-2,-1,0,2021-08-07 12:21:15,146666
-2,-4,-5,-9,-9,-2,-4,-4,2021-08-07 12:21:15,162684
-1,1,3,6,5,2,0,-1,2021-08-07 12:21:15,162684
1,1,0,2,6,2,0,0,2021-08-07 12:21:15,162684
0,0,0,1,3,2,1,1,2021-08-07 12:21:15,178699
-3,-3,-2,-5,-2,-2,-2,-3,2021-08-07 12:21:15,178699
-1,0,-2,-7,-8,-3,-1,-1,2021-08-07 12:21:15,178699
-1,0,0,-1,-1,-3,-1,-1,2021-08-07 12:21:15,178699
-1,0,0,-1,0,2,0,-1,2021-08-07 12:21:15,178699
1,-1,-2,5,3,1,1,1,2021-08-07 12:21:15,194701
-2,-4,-3,-4,-2,-2,-2,-1,2021-08-07 12:21:15,194701
1,-3,-3,-4,-3,-2,2,1,2021-08-07 12:21:15,194701
1,0,0,3,5,5,3,2,2021-08-07 12:21:15,194701
-1,0,3,2,2,2,-2,-1,2021-08-07 12:21:15,226693
-4,-1,2,6,4,1,-3,-4,2021-08-07 12:21:15,226693
0,3,1,-2,-8,-3,-4,-1,2021-08-07 12:21:15,226693
-2,-2,-3,-4,-1,-3,-5,-3,2021-08-07 12:21:15,226693
2,1,0,1,0,1,1,3,2021-08-07 12:21:15,242660
1,0,0,-1,1,1,0,1,2021-08-07 12:21:15,258662
-2,-4,-5,-10,-9,-5,-2,-2,2021-08-07 12:21:15,273663
2,1,3,1,-2,-1,3,0,2021-08-07 12:21:15,289247
1,0,0,3,4,-1,1,1,2021-08-07 12:21:15,289247
-2,-1,-4,-3,-4,-1,-1,-1,2021-08-07 12:21:15,305212
-3,-4,-3,-1,-1,-1,-2,-4,2021-08-07 12:21:15,305212
-4,-2,-1,2,2,-1,-1,-2,2021-08-07 12:21:15,305212
2,2,2,-1,-3,0,-1,-2,2021-08-07 12:21:15,305212
0,0,0,-6,-4,-2,-1,-1,2021-08-07 12:21:15,305212
-4,-3,-5,-2,-3,-3,-4,-3,2021-08-07 12:21:15,305212
0,-2,-2,-4,-3,-1,-3,1,2021-08-07 12:21:15,306247
-1,-1,-2,4,-1,1,-1,-1,2021-08-07 12:21:15,306247
-3,-4,-5,-4,-4,-3,-1,-1,2021-08-07 12:21:15,306247
0,1,1,3,1,0,2,0,2021-08-07 12:21:15,306247
3,3,0,-1,1,2,2,1,2021-08-07 12:21:15,306247
-2,-2,1,0,0,-2,-2,-1,2021-08-07 12:21:15,306247
-2,-3,-2,0,-1,-1,0,-1,2021-08-07 12:21:15,306247
-1,-2,-3,-6,-5,-4,-2,-3,2021-08-07 12:21:15,321209
-2,-1,-3,2,3,2,1,-2,2021-08-07 12:21:15,321209
2,-1,0,-3,-2,-1,1,-1,2021-08-07 12:21:15,337249
1,1,3,7,7,3,0,-2,2021-08-07 12:21:15,337249
-2,-4,-3,-2,-3,-1,-2,-2,2021-08-07 12:21:15,337249
-2,-4,-2,-6,-8,-4,-3,-2,2021-08-07 12:21:15,337249
-1,0,-1,1,4,2,1,1,2021-08-07 12:21:15,369210
-1,-4,-7,-9,-8,-6,-3,1,2021-08-07 12:21:15,369210
2,4,1,-8,1,0,-1,1,2021-08-07 12:21:15,369210
0,0,2,8,5,1,0,0,2021-08-07 12:21:15,369210
-3,-1,-2,-4,-6,-6,-2,-2,2021-08-07 12:21:15,369210
-2,-2,-1,-3,-5,-1,-1,-1,2021-08-07 12:21:15,369210
-1,-2,-1,-1,0,1,0,0,2021-08-07 12:21:15,385250
-1,-2,0,-2,-4,-2,-2,-2,2021-08-07 12:21:15,401211
-1,0,-2,-1,2,-1,-1,-1,2021-08-07 12:21:15,401211
3,5,4,0,0,0,2,2,2021-08-07 12:21:15,401211
0,-2,-2,2,-2,-2,-1,-1,2021-08-07 12:21:15,401211
-4,-3,0,3,0,-1,-1,-3,2021-08-07 12:21:15,401211
-1,-1,-1,1,1,-2,0,-1,2021-08-07 12:21:15,417209
-2,-1,-2,0,-2,-1,-3,-1,2021-08-07 12:21:15,417209
2,3,3,6,3,2,1,2,2021-08-07 12:21:15,417209
-2,-1,-1,1,-1,0,-1,0,2021-08-07 12:21:15,417209
-3,-5,-5,-9,-5,-3,-2,-2,2021-08-07 12:21:15,433207
-2,-1,-2,-4,-3,-1,-1,-1,2021-08-07 12:21:15,433207
0,1,5,9,3,1,1,1,2021-08-07 12:21:15,433207
0,-1,-1,3,4,1,1,-2,2021-08-07 12:21:15,433207
-2,-3,-5,-7,-7,-2,-1,-2,2021-08-07 12:21:15,465249
6,7,7,6,7,3,1,1,2021-08-07 12:21:15,465249
-2,-2,0,5,0,-1,-1,-1,2021-08-07 12:21:15,465249
-2,0,-2,-6,-5,-4,-2,-3,2021-08-07 12:21:15,465249
1,1,2,5,3,0,0,-2,2021-08-07 12:21:15,481208
-7,-8,-9,-13,-13,-6,-6,-5,2021-08-07 12:21:15,497208
-3,-1,1,4,11,7,3,0,2021-08-07 12:21:15,513213
4,7,6,9,3,3,2,3,2021-08-07 12:21:15,529238
0,-2,0,-3,-4,0,-1,-1,2021-08-07 12:21:15,529238
-1,-1,-1,-1,-2,-3,-3,-2,2021-08-07 12:21:15,529238
-4,-5,-4,-6,-3,-3,-4,-3,2021-08-07 12:21:15,529238
-3,-2,-3,-7,-5,-4,-3,-1,2021-08-07 12:21:15,529238
2,4,4,7,6,3,2,1,2021-08-07 12:21:15,529238
-3,-2,-1,-5,-3,-1,0,-2,2021-08-07 12:21:15,529238
3,2,-1,3,1,-1,0,1,2021-08-07 12:21:15,530210
-1,-3,-2,-5,-2,-2,-1,-1,2021-08-07 12:21:15,530210
2,3,1,0,0,1,1,2,2021-08-07 12:21:15,530210
-1,0,0,-2,0,-1,0,0,2021-08-07 12:21:15,530210
-1,0,0,4,3,0,0,0,2021-08-07 12:21:15,544247
-2,-3,-3,-3,-2,-1,-2,-3,2021-08-07 12:21:15,544247
-4,-4,-6,-7,-7,-5,-4,-3,2021-08-07 12:21:15,560236
4,3,1,5,5,3,2,3,2021-08-07 12:21:15,560236
-4,-7,-5,-5,-2,-4,-3,-5,2021-08-07 12:21:15,560236
5,6,5,4,3,2,2,2,2021-08-07 12:21:15,560236
-3,-2,2,3,3,0,-3,-2,2021-08-07 12:21:15,576208
-3,-5,-4,-3,-2,-4,-4,-4,2021-08-07 12:21:15,576208
1,2,-2,-6,-6,-2,0,0,2021-08-07 12:21:15,576208
-1,-4,-4,-5,-6,-4,-3,0,2021-08-07 12:21:15,576208
1,3,1,5,5,4,1,2,2021-08-07 12:21:15,608246
0,-3,0,3,6,2,1,-2,2021-08-07 12:21:15,624260
-2,-2,-2,-5,-5,-2,-2,-1,2021-08-07 12:21:15,640210
0,-2,-2,5,5,2,0,2,2021-08-07 12:21:15,640210
-1,0,-2,-4,-6,-1,1,0,2021-08-07 12:21:15,640210
-1,1,1,4,2,-1,-2,0,2021-08-07 12:21:15,640210
1,2,-1,-2,-2,0,0,0,2021-08-07 12:21:15,640210
-1,-3,-5,-7,-3,-4,-1,-4,2021-08-07 12:21:15,640210
-1,-1,-1,0,-5,-2,-3,0,2021-08-07 12:21:15,640210
0,0,1,4,0,-1,0,-1,2021-08-07 12:21:15,640210
1,-3,-3,-3,-3,0,0,-1,2021-08-07 12:21:15,641256
-4,-5,-4,-5,-3,-2,-2,-4,2021-08-07 12:21:15,641256
1,-1,-2,-1,2,-1,-1,-1,2021-08-07 12:21:15,656247
-1,-1,2,7,7,4,2,-1,2021-08-07 12:21:15,656247
-1,-1,0,-1,-2,-1,-1,0,2021-08-07 12:21:15,656247
1,3,-2,-7,-7,-4,-1,0,2021-08-07 12:21:15,656247
0,0,0,-5,-3,-2,-1,-1,2021-08-07 12:21:15,688214
-1,0,1,4,2,3,-1,1,2021-08-07 12:21:15,688214
-2,-2,-1,1,6,1,0,-2,2021-08-07 12:21:15,688214
-1,-3,-3,1,0,-1,-1,1,2021-08-07 12:21:15,688214
-2,0,1,4,0,-1,0,-1,2021-08-07 12:21:15,688214
1,0,-4,-8,-10,-4,-1,0,2021-08-07 12:21:15,688214
-4,-4,-1,-3,-5,-4,-3,-3,2021-08-07 12:21:15,689245
0,2,-1,-2,-1,0,-2,-1,2021-08-07 12:21:15,689245
0,-1,-1,-1,1,1,-1,-4,2021-08-07 12:21:15,720246
-1,-2,-3,-4,-5,-3,-1,-2,2021-08-07 12:21:15,736261
0,-1,0,3,4,0,0,0,2021-08-07 12:21:15,752210
-5,-5,-5,-11,-6,-2,-4,-2,2021-08-07 12:21:15,768246
4,4,2,4,4,2,3,3,2021-08-07 12:21:15,800207
-1,0,1,3,3,1,1,0,2021-08-07 12:21:15,800207
-2,-4,-5,-4,-5,-4,-2,-2,2021-08-07 12:21:15,800207
1,0,-3,-6,-6,-3,-2,-4,2021-08-07 12:21:15,800207
-4,-5,-2,-3,-2,-3,-3,-2,2021-08-07 12:21:15,800207
1,4,3,0,3,0,0,1,2021-08-07 12:21:15,800207
2,5,3,-4,-6,-1,1,1,2021-08-07 12:21:15,800207
-2,-4,1,11,10,1,0,-2,2021-08-07 12:21:15,801211
3,2,0,4,1,3,1,2,2021-08-07 12:21:15,801211
-1,-2,-4,-6,-6,-2,-3,-1,2021-08-07 12:21:15,801211
-3,-4,-4,-4,-2,-2,-2,-3,2021-08-07 12:21:15,801211
0,3,3,-1,-2,-1,0,0,2021-08-07 12:21:15,801211
-3,-2,-1,-1,-2,-2,-1,-1,2021-08-07 12:21:15,801211
-1,-1,-2,-1,-2,-1,0,-1,2021-08-07 12:21:15,801211
0,-1,-2,-3,-3,0,-1,-1,2021-08-07 12:21:15,802247
-2,-1,-3,-9,1,1,0,0,2021-08-07 12:21:15,802247
1,0,0,5,5,3,2,1,2021-08-07 12:21:15,815247
0,1,0,0,-2,0,-1,0,2021-08-07 12:21:15,815247
-1,-2,-2,-2,-4,-3,-1,-1,2021-08-07 12:21:15,815247
2,1,-1,-1,-3,-2,-1,1,2021-08-07 12:21:15,815247
-3,-2,-3,-7,-3,-4,-3,-2,2021-08-07 12:21:15,845246
-7,-6,-6,-8,-10,-6,-5,-3,2021-08-07 12:21:15,845246
5,6,1,4,11,9,5,6,2021-08-07 12:21:15,845246
-1,0,5,10,7,2,0,0,2021-08-07 12:21:15,845246
0,-3,-2,-4,-4,-2,-2,0,2021-08-07 12:21:15,861246
-1,-1,0,2,0,-1,0,-1,2021-08-07 12:21:15,861246
-3,-4,-5,-6,-7,-5,-3,-2,2021-08-07 12:21:15,861246
1,-2,-1,-3,-4,-1,-1,1,2021-08-07 12:21:15,861246
-3,-3,-2,0,-2,-3,0,-2,2021-08-07 12:21:15,877247
5,2,0,-4,-1,1,0,0,2021-08-07 12:21:15,893246
0,-1,0,0,-2,-1,-2,-2,2021-08-07 12:21:15,893246
0,0,1,2,2,2,2,0,2021-08-07 12:21:15,893246
-6,-6,-4,-5,-4,-4,-4,-4,2021-08-07 12:21:15,893246
1,-1,-4,-3,1,-1,1,1,2021-08-07 12:21:15,893246
0,-2,2,3,-1,-2,0,-1,2021-08-07 12:21:15,894246
0,0,3,4,8,3,0,-1,2021-08-07 12:21:15,894246
-1,0,3,3,1,0,0,0,2021-08-07 12:21:15,925209
-3,-1,-1,2,1,1,-1,-3,2021-08-07 12:21:15,941256
-3,-3,-4,-6,-5,-2,-2,-2,2021-08-07 12:21:15,957208
1,1,-1,-2,-6,-3,-2,-2,2021-08-07 12:21:15,957208
-1,-1,-3,-2,-1,-1,-1,0,2021-08-07 12:21:15,957208
1,0,0,1,2,2,0,-1,2021-08-07 12:21:15,957208
-1,-1,0,0,-1,-1,-1,-2,2021-08-07 12:21:15,957208
-2,-3,-3,-1,-3,-2,-2,-2,2021-08-07 12:21:15,957208
-3,-3,-5,-9,-9,-5,-2,-3,2021-08-07 12:21:15,958247
1,-2,3,11,16,6,3,0,2021-08-07 12:21:15,958247
-2,-1,-3,2,0,1,0,1,2021-08-07 12:21:15,958247
3,2,-1,-2,0,2,1,2,2021-08-07 12:21:15,972246
2,2,4,5,2,1,2,1,2021-08-07 12:21:15,988208
-3,-2,0,-3,-5,-5,-3,-2,2021-08-07 12:21:15,988208
-1,-3,-4,-3,-4,-2,-2,-3,2021-08-07 12:21:15,988208
-1,-1,1,3,1,1,-1,-2,2021-08-07 12:21:15,988208
0,-1,-2,-3,-3,-2,-1,1,2021-08-07 12:21:15,988208
-4,-2,-1,-4,-6,-3,-2,-3,2021-08-07 12:21:15,988208
1,2,8,20,21,9,4,1,2021-08-07 12:21:15,988208
0,2,0,3,-6,-4,0,2,2021-08-07 12:21:15,989212
0,-1,0,-3,-1,-1,0,-2,2021-08-07 12:21:16,020248
0,2,-2,-7,-3,-3,-1,0,2021-08-07 12:21:16,036246
-3,-2,0,2,-4,-5,-2,-2,2021-08-07 12:21:16,036246
-5,-4,-2,-5,-5,-3,-3,-2,2021-08-07 12:21:16,036246
1,3,0,1,3,2,0,2,2021-08-07 12:21:16,036246
1,3,2,4,1,0,-1,2,2021-08-07 12:21:16,036246
0,-2,-2,-9,-6,-5,-2,0,2021-08-07 12:21:16,036246
-3,-4,-3,-3,-1,0,0,-1,2021-08-07 12:21:16,036246
-1,-3,-3,-5,-3,1,-1,-2,2021-08-07 12:21:16,052209
0,-2,-3,-3,-4,0,1,2,2021-08-07 12:21:16,052209
-3,-3,-6,-12,-9,-4,-1,-2,2021-08-07 12:21:16,068235
-2,-2,3,7,11,4,0,-3,2021-08-07 12:21:16,084208
-2,0,4,10,3,1,-1,-2,2021-08-07 12:21:16,100208
-3,-1,2,2,-4,-2,-2,-2,2021-08-07 12:21:16,100208
2,3,3,-7,-3,-3,-2,1,2021-08-07 12:21:16,101209
0,-3,-4,-7,-7,-5,-2,-1,2021-08-07 12:21:16,101209
1,1,-3,-2,-1,0,-1,0,2021-08-07 12:21:16,101209
4,4,2,3,6,4,1,1,2021-08-07 12:21:16,101209
3,2,0,3,2,2,3,1,2021-08-07 12:21:16,101209
-1,-2,0,0,-4,0,1,1,2021-08-07 12:21:16,101209
-5,-6,-5,-5,-3,-5,-4,-3,2021-08-07 12:21:16,116210
-3,-4,-5,-5,-5,-4,-3,-2,2021-08-07 12:21:16,132246
-6,-4,-2,-1,0,-2,0,-3,2021-08-07 12:21:16,148246
0,2,-1,2,2,0,1,-1,2021-08-07 12:21:16,164239
2,2,1,0,0,0,0,-1,2021-08-07 12:21:16,164239
-2,-3,-3,-8,-7,-4,-2,-1,2021-08-07 12:21:16,164239
-2,-1,4,7,6,4,0,-2,2021-08-07 12:21:16,164239
0,-3,-2,-6,-6,-3,-2,0,2021-08-07 12:21:16,164239
-1,1,-1,-4,-7,-4,-3,0,2021-08-07 12:21:16,164239
1,0,4,14,14,4,2,-1,2021-08-07 12:21:16,165208
-2,-5,-5,0,3,2,0,0,2021-08-07 12:21:16,165208
1,3,2,1,-1,0,1,0,2021-08-07 12:21:16,165208
1,-1,-3,-4,-5,-4,-1,1,2021-08-07 12:21:16,180208
-3,-4,-5,-12,-9,-5,-3,-3,2021-08-07 12:21:16,180208
1,1,1,3,4,1,-2,1,2021-08-07 12:21:16,180208
-1,-2,-1,3,-1,-1,-1,-2,2021-08-07 12:21:16,180208
-1,-1,0,-3,-4,-2,0,0,2021-08-07 12:21:16,210208
-1,1,-2,-3,0,0,-1,-1,2021-08-07 12:21:16,210208
-4,-5,-8,-14,-10,-6,-4,-4,2021-08-07 12:21:16,210208
3,5,2,1,4,2,1,3,2021-08-07 12:21:16,210208
0,-1,3,8,8,3,1,0,2021-08-07 12:21:16,226248
-4,-4,-5,-8,-11,-6,-3,-3,2021-08-07 12:21:16,226248
5,6,4,12,5,2,2,3,2021-08-07 12:21:16,226248
-4,-5,-6,-10,-7,-4,-3,-3,2021-08-07 12:21:16,226248
-2,-3,0,3,6,1,2,-2,2021-08-07 12:21:16,242209
0,1,0,2,4,1,2,0,2021-08-07 12:21:16,242209
0,-2,-1,-4,-4,-3,-3,-1,2021-08-07 12:21:16,242209
-2,-5,-3,-2,-2,-2,-2,-1,2021-08-07 12:21:16,242209
-2,-3,1,-4,-6,-3,-1,-3,2021-08-07 12:21:16,258258
0,1,0,-6,-2,-3,-3,-2,2021-08-07 12:21:16,274210
2,3,2,3,1,1,1,1,2021-08-07 12:21:16,290253
0,1,3,5,9,6,3,-1,2021-08-07 12:21:16,290253
-1,0,-2,-4,-1,0,0,-1,2021-08-07 12:21:16,290253
1,2,2,8,5,4,1,2,2021-08-07 12:21:16,290253
1,3,3,0,-3,-1,-1,0,2021-08-07 12:21:16,290253
-1,-2,0,-1,-3,-2,-3,-2,2021-08-07 12:21:16,290253
-2,-4,-6,-7,-4,-1,-3,-2,2021-08-07 12:21:16,290253
0,-3,-1,-2,-3,0,-1,-1,2021-08-07 12:21:16,290253
-3,-1,-1,-4,-6,-1,-2,-2,2021-08-07 12:21:16,306235
1,-1,-4,-3,-1,-2,0,0,2021-08-07 12:21:16,322210
3,4,3,10,8,4,3,0,2021-08-07 12:21:16,338208
-2,-3,-2,-2,-3,-3,-3,-2,2021-08-07 12:21:16,338208
0,-2,0,-3,-3,-2,-3,-2,2021-08-07 12:21:16,338208
-4,-4,-4,-5,-5,-3,-3,-3,2021-08-07 12:21:16,338208
-2,-1,-4,-7,-5,-3,-1,-2,2021-08-07 12:21:16,338208
3,3,4,12,16,9,4,2,2021-08-07 12:21:16,338208
-3,-4,-4,-1,-1,-1,-1,-3,2021-08-07 12:21:16,338208
-2,0,1,3,1,-1,-1,-1,2021-08-07 12:21:16,339250
-3,-6,-6,-8,-8,-5,-5,-3,2021-08-07 12:21:16,354258
0,2,-3,-11,-11,-5,-2,0,2021-08-07 12:21:16,354258
-1,-4,1,7,10,4,-1,1,2021-08-07 12:21:16,370257
3,6,4,2,1,2,1,1,2021-08-07 12:21:16,386258
1,2,4,6,5,3,1,1,2021-08-07 12:21:16,386258
-2,-3,-4,-6,-7,-6,-3,-3,2021-08-07 12:21:16,386258
-2,-1,-2,-7,-3,-3,0,-1,2021-08-07 12:21:16,386258
-2,-2,-2,0,-2,-3,-2,0,2021-08-07 12:21:16,386258
-4,-2,-1,-2,-2,-1,-3,0,2021-08-07 12:21:16,402234
-1,-3,-1,2,2,0,0,2,2021-08-07 12:21:16,402234
1,2,-1,-6,-7,-4,0,1,2021-08-07 12:21:16,402234
-1,0,-3,-6,-1,-3,0,0,2021-08-07 12:21:16,402234
2,1,2,8,4,2,0,0,2021-08-07 12:21:16,434209
-1,-3,-1,1,0,1,-1,-3,2021-08-07 12:21:16,449209
-2,-2,-3,1,-1,-1,0,-1,2021-08-07 12:21:16,465250
-3,-3,-5,-9,-10,-6,-3,-2,2021-08-07 12:21:16,481246
0,-1,-2,-7,-1,-1,-2,0,2021-08-07 12:21:16,481246
0,2,4,7,8,2,0,0,2021-08-07 12:21:16,481246
-1,0,1,5,4,0,0,-1,2021-08-07 12:21:16,481246
0,-1,0,0,0,0,-1,-1,2021-08-07 12:21:16,481246
-2,-2,-4,-5,-7,-3,-1,-1,2021-08-07 12:21:16,496212
-2,-3,-6,-10,-4,-2,-2,-2,2021-08-07 12:21:16,496212
2,3,3,6,3,4,1,1,2021-08-07 12:21:16,496212
-2,-3,-5,-7,-7,-5,-2,-2,2021-08-07 12:21:16,496212
1,0,0,4,1,1,0,-1,2021-08-07 12:21:16,496212
-3,-2,-3,-6,-2,-2,-1,-2,2021-08-07 12:21:16,496212
1,-2,-1,3,5,2,0,-2,2021-08-07 12:21:16,497208
-1,1,2,1,0,1,-1,-1,2021-08-07 12:21:16,497208
0,1,0,-1,-2,-1,0,2,2021-08-07 12:21:16,497208
-2,-1,-2,-5,-4,-3,-2,-1,2021-08-07 12:21:16,497208
-1,-1,-3,-5,-6,-3,-1,-2,2021-08-07 12:21:16,512246
-1,-1,3,9,7,4,1,0,2021-08-07 12:21:16,512246
-3,-1,-1,-4,-3,-1,-3,-1,2021-08-07 12:21:16,528252
0,-2,1,1,-3,-2,0,-1,2021-08-07 12:21:16,528252
-2,-1,-6,-7,-3,-2,-2,0,2021-08-07 12:21:16,528252
0,3,0,3,1,3,2,2,2021-08-07 12:21:16,528252
-1,-1,0,1,3,0,-1,-3,2021-08-07 12:21:16,544206
-1,-1,2,5,4,4,0,2,2021-08-07 12:21:16,544206
2,1,1,-2,-1,0,0,1,2021-08-07 12:21:16,544206
1,0,-1,2,2,0,-1,0,2021-08-07 12:21:16,544206
1,1,0,3,0,-2,1,0,2021-08-07 12:21:16,576210
-2,-2,-4,-10,-12,-5,-4,-2,2021-08-07 12:21:16,591246
-1,-4,-1,4,9,3,0,-2,2021-08-07 12:21:16,623247
1,-3,0,1,0,-1,-1,-2,2021-08-07 12:21:16,623247
1,1,1,1,1,1,2,-1,2021-08-07 12:21:16,623247
-2,-1,-4,-10,-10,-7,-3,-3,2021-08-07 12:21:16,623247
-2,-1,-1,-2,0,0,0,-1,2021-08-07 12:21:16,623247
1,2,-2,-4,-1,1,0,1,2021-08-07 12:21:16,623247
2,1,0,4,6,2,0,-1,2021-08-07 12:21:16,624211
-2,-2,-2,-1,-6,-3,-2,-1,2021-08-07 12:21:16,624211
-4,-3,-2,-2,-1,-2,-2,-3,2021-08-07 12:21:16,624211
0,-1,2,4,4,1,1,0,2021-08-07 12:21:16,624211
-2,-4,-2,-5,-6,-2,-2,-2,2021-08-07 12:21:16,624211
-1,-3,-1,3,4,2,-1,0,2021-08-07 12:21:16,624211
6,9,5,0,-2,0,1,4,2021-08-07 12:21:16,624211
-2,-5,-4,-8,-6,-5,-4,-2,2021-08-07 12:21:16,624211
0,3,2,7,6,3,3,2,2021-08-07 12:21:16,638207
-1,-3,-2,3,2,1,0,-2,2021-08-07 12:21:16,638207
-5,-6,-4,-10,-15,-9,-5,-3,2021-08-07 12:21:16,638207
-3,-1,-6,-12,-5,0,-2,-2,2021-08-07 12:21:16,638207
0,3,8,17,13,5,2,1,2021-08-07 12:21:16,670233
1,1,1,1,3,0,0,0,2021-08-07 12:21:16,670233
1,0,1,3,-1,-1,0,0,2021-08-07 12:21:16,670233
-3,-2,-6,-12,-12,-8,-2,-3,2021-08-07 12:21:16,670233
-5,-9,-5,-10,-9,-4,-4,-3,2021-08-07 12:21:16,670233
2,2,3,7,9,4,2,1,2021-08-07 12:21:16,670233
3,4,1,-3,-1,0,0,1,2021-08-07 12:21:16,686247
3,4,7,10,6,3,4,2,2021-08-07 12:21:16,702247
-1,-1,-2,-8,-6,-3,-3,-2,2021-08-07 12:21:16,702247
-2,-4,-4,-4,-8,-4,-5,-3,2021-08-07 12:21:16,702247
-5,-7,-4,-1,1,-2,-2,-2,2021-08-07 12:21:16,702247
-2,-1,3,9,6,3,-1,-1,2021-08-07 12:21:16,702247
0,1,-3,-4,-4,-3,-1,-1,2021-08-07 12:21:16,734209
1,3,-2,-5,-8,-3,-1,-1,2021-08-07 12:21:16,750207
-2,-3,-3,-6,-4,-1,-2,-2,2021-08-07 12:21:16,750207
1,1,3,13,10,3,0,-1,2021-08-07 12:21:16,750207
-2,-3,-3,-4,-3,-1,-2,-3,2021-08-07 12:21:16,750207
-1,-2,1,3,2,0,0,-2,2021-08-07 12:21:16,751214
-5,-3,-5,-4,-7,-4,-4,-3,2021-08-07 12:21:16,766246
-1,-3,-3,-1,0,1,-1,-2,2021-08-07 12:21:16,766246
0,2,1,3,-3,-1,-2,-1,2021-08-07 12:21:16,766246
2,3,2,4,4,2,1,2,2021-08-07 12:21:16,766246
0,-1,2,1,2,1,-1,-1,2021-08-07 12:21:16,766246
-6,-9,-7,-10,-8,-5,-4,-2,2021-08-07 12:21:16,766246
-3,-2,-7,-17,-14,-8,-4,0,2021-08-07 12:21:16,782247
-1,1,5,10,5,4,-1,1,2021-08-07 12:21:16,782247
0,-1,0,3,5,3,0,-1,2021-08-07 12:21:16,782247
0,1,0,2,0,-1,0,0,2021-08-07 12:21:16,782247
-4,-8,-7,-9,-9,-6,-2,-4,2021-08-07 12:21:16,798246
1,2,2,1,-1,0,1,2,2021-08-07 12:21:16,798246
0,1,-1,-4,-4,-1,-1,0,2021-08-07 12:21:16,798246
1,1,4,13,5,1,-1,-3,2021-08-07 12:21:16,798246
0,0,-4,-8,-3,-2,0,-1,2021-08-07 12:21:16,829228
1,-1,1,0,-3,0,0,-1,2021-08-07 12:21:16,829228
-2,-1,-2,1,0,-2,-2,-2,2021-08-07 12:21:16,829228
2,-1,1,-1,4,3,1,1,2021-08-07 12:21:16,829228
-2,-3,-3,-1,-5,-3,-2,0,2021-08-07 12:21:16,845246
-3,-3,-4,-7,2,0,-1,-1,2021-08-07 12:21:16,857209
0,0,3,11,6,4,1,0,2021-08-07 12:21:16,857209
-1,0,-2,-3,-2,-2,-2,0,2021-08-07 12:21:16,857209
0,2,2,7,8,5,1,1,2021-08-07 12:21:16,857209
-3,-4,-2,-2,-2,-3,-2,-3,2021-08-07 12:21:16,857209
-2,-1,-4,-10,-9,-3,-2,0,2021-08-07 12:21:16,858235
-1,0,0,-6,-5,-4,-1,-2,2021-08-07 12:21:16,858235
2,0,2,3,4,2,1,2,2021-08-07 12:21:16,891246
0,1,1,1,-1,-1,1,-3,2021-08-07 12:21:16,907238
-3,-3,-2,-4,-3,-2,-3,-1,2021-08-07 12:21:16,923249
1,2,5,8,8,4,3,1,2021-08-07 12:21:16,923249
-1,-1,0,-3,-4,-4,-3,-1,2021-08-07 12:21:16,923249
0,-2,-4,-5,-5,-3,-1,-1,2021-08-07 12:21:16,923249
-1,-1,-1,0,0,-1,-1,-2,2021-08-07 12:21:16,923249
-1,-4,-6,-7,-8,-5,-3,-1,2021-08-07 12:21:16,923249
2,3,0,3,3,2,3,0,2021-08-07 12:21:16,924246
-2,-4,-5,-7,-2,-3,-1,1,2021-08-07 12:21:16,924246
0,-1,-2,0,-2,0,1,-1,2021-08-07 12:21:16,924246
-8,-6,-5,-8,-2,-2,-3,-5,2021-08-07 12:21:16,924246
1,2,7,19,14,5,1,1,2021-08-07 12:21:16,939248
-4,0,0,-1,-1,-2,-4,-5,2021-08-07 12:21:16,939248
0,-1,-2,-3,-3,-3,0,-1,2021-08-07 12:21:16,939248
0,2,-2,-6,-5,-3,-1,-1,2021-08-07 12:21:16,939248
-2,-5,-5,-10,-7,-4,-2,-3,2021-08-07 12:21:16,970211
4,5,3,7,9,4,3,3,2021-08-07 12:21:16,986247
2,-1,0,-2,-3,-2,-2,0,2021-08-07 12:21:16,986247
1,-1,-4,-9,-11,-5,-4,-2,2021-08-07 12:21:16,986247
-1,-1,0,6,8,4,0,0,2021-08-07 12:21:16,986247
-1,-1,-2,0,4,2,0,-1,2021-08-07 12:21:16,986247
-1,1,4,11,12,4,1,-1,2021-08-07 12:21:16,987209
0,0,1,4,0,0,-1,-1,2021-08-07 12:21:16,987209
-5,-3,-6,-10,-10,-6,-4,-3,2021-08-07 12:21:17,002246
-3,-3,-5,-8,-13,-7,-4,-1,2021-08-07 12:21:17,018246
0,0,3,2,1,2,0,-1,2021-08-07 12:21:17,018246
-1,0,0,1,1,0,-1,1,2021-08-07 12:21:17,018246
-2,-2,-4,-6,-6,-3,-3,-1,2021-08-07 12:21:17,018246
-3,-2,-2,1,1,0,0,-2,2021-08-07 12:21:17,018246
3,3,3,-3,-1,-1,0,1,2021-08-07 12:21:17,018246
-1,0,0,3,2,1,0,0,2021-08-07 12:21:17,019207
2,3,0,-6,-7,-4,1,0,2021-08-07 12:21:17,034209
-2,-3,-3,2,5,3,1,1,2021-08-07 12:21:17,034209
-2,-1,-1,0,1,1,2,0,2021-08-07 12:21:17,050211
2,5,4,6,6,4,2,2,2021-08-07 12:21:17,050211
0,-1,0,1,0,-2,-1,-3,2021-08-07 12:21:17,065206
-3,-4,-10,-16,-12,-7,-4,-4,2021-08-07 12:21:17,065206
1,3,1,4,2,1,-1,0,2021-08-07 12:21:17,065206
1,-1,0,2,4,2,0,1,2021-08-07 12:21:17,065206
-1,1,1,-1,2,2,-1,0,2021-08-07 12:21:17,081247
0,-2,-1,-1,-3,-2,-2,-2,2021-08-07 12:21:17,081247
-8,-11,-13,-18,-14,-8,-7,-6,2021-08-07 12:21:17,081247
3,7,6,10,11,6,4,3,2021-08-07 12:21:17,081247
0,-3,1,10,6,2,1,0,2021-08-07 12:21:17,097206
3,5,5,5,3,1,2,1,2021-08-07 12:21:17,112246
-4,-2,-2,-4,-6,-5,-1,-2,2021-08-07 12:21:17,128246
-5,-6,-6,-13,-12,-6,-3,-4,2021-08-07 12:21:17,128246
-2,-3,-9,-21,-17,-8,-4,-4,2021-08-07 12:21:17,128246
4,5,11,32,32,13,6,4,2021-08-07 12:21:17,128246
-2,0,-2,3,0,0,0,0,2021-08-07 12:21:17,144259
-1,-2,-2,-1,-1,-1,-1,0,2021-08-07 12:21:17,144259
-1,1,2,-1,-2,0,-1,-1,2021-08-07 12:21:17,144259
-6,-6,-8,-14,-17,-9,-4,-3,2021-08-07 12:21:17,144259
5,8,4,3,7,6,1,2,2021-08-07 12:21:17,144259
-1,-3,0,2,0,-1,0,-3,2021-08-07 12:21:17,144259
-3,-6,-4,-3,-1,-2,-3,-1,2021-08-07 12:21:17,160246
0,1,-2,-7,-7,-3,-3,-1,2021-08-07 12:21:17,160246
-2,-5,-1,0,1,-1,-2,-2,2021-08-07 12:21:17,160246
-1,-2,-3,-6,-7,-3,-1,-2,2021-08-07 12:21:17,160246
2,4,5,10,12,6,1,2,2021-08-07 12:21:17,192209
-3,-6,-2,0,1,-1,-3,-4,2021-08-07 12:21:17,192209
1,0,-3,-4,-5,-4,-2,-2,2021-08-07 12:21:17,192209
1,0,-2,-3,-2,-2,-1,-3,2021-08-07 12:21:17,192209
-2,-2,2,9,2,1,2,1,2021-08-07 12:21:17,208246
-1,0,-2,-1,2,0,-1,-1,2021-08-07 12:21:17,224257
-4,-4,-2,-7,-10,-4,-3,1,2021-08-07 12:21:17,240246
-3,-4,-6,-5,-1,-3,-2,-2,2021-08-07 12:21:17,240246
0,1,-2,-2,2,1,0,-2,2021-08-07 12:21:17,240246
-2,0,0,-3,-3,1,-1,0,2021-08-07 12:21:17,240246
-2,-3,-5,-5,-3,-1,0,-1,2021-08-07 12:21:17,240246
1,1,4,3,1,0,0,1,2021-08-07 12:21:17,240246
-1,-1,1,0,1,0,0,0,2021-08-07 12:21:17,256210
-1,-1,1,-3,-7,-2,-2,-1,2021-08-07 12:21:17,256210
-1,-3,-2,-1,-1,-2,-2,-4,2021-08-07 12:21:17,256210
-4,-3,-6,-11,-7,-5,-4,-3,2021-08-07 12:21:17,256210
3,0,2,6,6,4,2,2,2021-08-07 12:21:17,256210
7,9,7,6,9,6,5,4,2021-08-07 12:21:17,256210
-2,-3,-3,1,0,0,0,-2,2021-08-07 12:21:17,272209
-4,-2,-3,-5,-6,-3,-3,-3,2021-08-07 12:21:17,288211
-3,-1,-4,-6,-4,-4,-1,-3,2021-08-07 12:21:17,288211
-2,-2,-1,-2,0,-2,-2,-2,2021-08-07 12:21:17,288211
1,-2,-4,-7,-4,-3,0,0,2021-08-07 12:21:17,288211
2,2,6,14,9,4,1,2,2021-08-07 12:21:17,288211
-2,-1,-1,4,5,2,-1,-1,2021-08-07 12:21:17,304247
-5,-5,-5,-7,-8,-6,-3,-3,2021-08-07 12:21:17,320210
1,6,4,10,7,5,1,1,2021-08-07 12:21:17,320210
-1,-5,-4,-7,-7,-4,-1,-2,2021-08-07 12:21:17,320210
-1,-2,-4,-9,-9,-7,-3,-2,2021-08-07 12:21:17,320210
-3,-5,-3,-5,-5,-4,-4,-1,2021-08-07 12:21:17,320210
4,3,6,7,6,5,3,1,2021-08-07 12:21:17,320210
-3,-2,1,3,2,0,1,-1,2021-08-07 12:21:17,321208
1,3,-2,-4,-6,-4,0,2,2021-08-07 12:21:17,336207
1,-1,1,5,7,4,1,1,2021-08-07 12:21:17,341211
-2,-3,-4,-6,-7,-6,-1,-2,2021-08-07 12:21:17,352248
-7,-7,-7,-16,-11,-6,-4,-4,2021-08-07 12:21:17,352248
3,5,12,24,14,6,6,4,2021-08-07 12:21:17,368248
0,0,-1,-2,-7,-2,0,-1,2021-08-07 12:21:17,368248
-2,-2,0,-2,3,0,-2,-1,2021-08-07 12:21:17,368248
-3,-4,-2,1,1,0,-2,-3,2021-08-07 12:21:17,368248
0,0,-8,-15,-8,-3,-3,-1,2021-08-07 12:21:17,384246
-1,-1,0,-2,-2,-2,-2,-1,2021-08-07 12:21:17,400210
-1,-1,3,4,3,1,0,1,2021-08-07 12:21:17,400210
1,-1,-3,-6,-6,-3,-1,1,2021-08-07 12:21:17,400210
-3,-2,1,9,5,3,-1,-2,2021-08-07 12:21:17,400210
1,1,0,2,3,3,3,1,2021-08-07 12:21:17,401210
-4,-6,-7,-16,-17,-8,-3,-4,2021-08-07 12:21:17,401210
2,2,4,9,8,4,1,2,2021-08-07 12:21:17,401210
6,2,6,10,10,7,5,2,2021-08-07 12:21:17,431248
-2,-3,-4,0,-1,0,-1,-3,2021-08-07 12:21:17,431248
6,6,6,10,6,12,18,13,2021-08-07 12:21:17,431248
2,3,2,7,10,6,0,0,2021-08-07 12:21:17,431248
-1,3,1,-7,-8,-17,-23,-10,2021-08-07 12:21:17,447247
-15,-9,-9,-11,-18,-25,-21,-14,2021-08-07 12:21:17,447247
-3,-3,-3,-5,-4,-6,-6,-2,2021-08-07 12:21:17,447247
-2,-2,-4,-7,-7,0,5,2,2021-08-07 12:21:17,447247
2,-2,-4,-8,5,12,12,8,2021-08-07 12:21:17,478247
11,11,15,23,21,16,11,7,2021-08-07 12:21:17,494246
0,-1,-1,0,-3,-1,-3,-2,2021-08-07 12:21:17,494246
2,1,1,1,-3,1,2,5,2021-08-07 12:21:17,494246
-7,-10,-15,-25,-14,-8,-7,-8,2021-08-07 12:21:17,494246
2,6,10,15,7,5,3,3,2021-08-07 12:21:17,494246
-3,-4,-3,3,2,0,-3,-4,2021-08-07 12:21:17,494246
1,4,5,10,11,2,1,-3,2021-08-07 12:21:17,494246
-7,-9,-6,-10,-14,-8,-4,-5,2021-08-07 12:21:17,510246
-2,-5,-13,-22,-16,-6,-2,-1,2021-08-07 12:21:17,510246
3,5,9,19,14,8,2,1,2021-08-07 12:21:17,510710
-2,-2,-2,-5,-7,-5,-5,-3,2021-08-07 12:21:17,510710
0,0,2,-3,3,3,1,0,2021-08-07 12:21:17,525378
0,-1,3,10,10,6,3,0,2021-08-07 12:21:17,525378
-7,-6,-10,-12,-9,-10,-7,-5,2021-08-07 12:21:17,525378
-2,0,-6,-10,-8,-7,-5,-3,2021-08-07 12:21:17,525378
1,2,3,4,2,1,2,1,2021-08-07 12:21:17,541422
-4,-6,-4,-1,1,-1,-1,-3,2021-08-07 12:21:17,557381
2,3,2,-3,1,-1,-2,-1,2021-08-07 12:21:17,557381
-3,-3,0,-2,0,-2,0,-2,2021-08-07 12:21:17,557381
-1,-1,-3,-7,-7,-3,-1,-1,2021-08-07 12:21:17,557381
-2,-2,-5,-13,-7,-2,-3,-2,2021-08-07 12:21:17,557381
-1,-2,0,5,5,1,-2,-2,2021-08-07 12:21:17,557381
-2,-3,-8,-10,-10,-4,-2,-1,2021-08-07 12:21:17,558416
1,4,4,9,9,4,2,1,2021-08-07 12:21:17,604383
-2,-2,-1,1,-1,-1,-1,-2,2021-08-07 12:21:17,604383
0,1,-1,-4,-9,-4,0,0,2021-08-07 12:21:17,604383
2,0,2,3,3,2,0,1,2021-08-07 12:21:17,604383
-6,-7,-4,1,5,0,-1,-4,2021-08-07 12:21:17,604383
-4,-6,-9,-17,-16,-8,-3,-2,2021-08-07 12:21:17,604383
3,5,4,6,6,4,1,2,2021-08-07 12:21:17,604383
1,2,8,18,10,4,1,0,2021-08-07 12:21:17,605381
-1,-1,-1,6,0,0,-2,-2,2021-08-07 12:21:17,620420
1,0,0,-2,0,2,1,-1,2021-08-07 12:21:17,636417
-3,-2,-1,-1,-3,-1,-2,-1,2021-08-07 12:21:17,684379
-1,-2,-4,-7,-6,-3,-2,-2,2021-08-07 12:21:17,700378
-1,-2,0,3,-2,0,-2,0,2021-08-07 12:21:17,700378
2,2,0,-5,-1,-1,0,0,2021-08-07 12:21:17,700378
-5,-7,-8,-11,-7,-6,-4,-4,2021-08-07 12:21:17,700378
5,8,4,3,1,4,3,3,2021-08-07 12:21:17,701427
-2,-4,-2,0,-1,1,-1,-3,2021-08-07 12:21:17,701427
1,0,-2,-2,-3,-2,0,0,2021-08-07 12:21:17,701427
-2,-1,-2,-4,0,-1,-2,-1,2021-08-07 12:21:17,701427
-1,-1,0,16,20,8,3,1,2021-08-07 12:21:17,701427
5,5,4,8,-1,0,1,1,2021-08-07 12:21:17,701427
-6,-6,-7,-16,-16,-9,-7,-5,2021-08-07 12:21:17,702378
1,0,-1,7,12,7,4,1,2021-08-07 12:21:17,702378
-2,-3,-4,-10,-4,-4,-2,-2,2021-08-07 12:21:17,702378
3,4,4,-1,-1,1,1,1,2021-08-07 12:21:17,732421
-3,-4,2,13,10,3,-1,0,2021-08-07 12:21:17,747829
1,-1,-2,-6,-4,-3,-1,1,2021-08-07 12:21:17,747829
0,-1,-2,-9,-6,-2,-1,-2,2021-08-07 12:21:17,747829
-1,0,-1,-1,-2,-1,-1,1,2021-08-07 12:21:17,747829
-4,-8,-4,-2,-5,-3,-3,-4,2021-08-07 12:21:17,747829
0,4,-3,-11,-5,-2,-1,1,2021-08-07 12:21:17,747829
1,3,8,8,6,2,2,0,2021-08-07 12:21:17,747829
-2,-3,-4,-6,-13,-5,-2,-2,2021-08-07 12:21:17,747829
4,5,6,14,18,6,3,2,2021-08-07 12:21:17,747829
-3,-3,0,3,1,-1,-4,-3,2021-08-07 12:21:17,748831
-4,-4,-3,-3,1,1,0,-3,2021-08-07 12:21:17,748831
-2,-1,-4,-4,-4,-2,-1,-2,2021-08-07 12:21:17,778827
-1,3,-2,-9,-7,-3,-1,1,2021-08-07 12:21:17,794827
-3,-3,0,1,0,-2,-2,-1,2021-08-07 12:21:17,810827
0,0,-2,-7,-6,-3,-2,0,2021-08-07 12:21:17,810827
-3,-2,1,8,2,0,-1,-3,2021-08-07 12:21:17,810827
-4,-4,-4,-8,-3,0,0,-1,2021-08-07 12:21:17,810827
-1,-1,-1,1,2,-1,-1,0,2021-08-07 12:21:17,810827
2,2,-2,-7,-11,-4,-2,-1,2021-08-07 12:21:17,810827
-8,-12,-10,-18,-17,-12,-5,-6,2021-08-07 12:21:17,810827
12,14,14,22,21,13,8,9,2021-08-07 12:21:17,810827
2,-1,-4,1,3,3,3,-1,2021-08-07 12:21:17,811828
-5,-8,-4,2,6,3,-1,-1,2021-08-07 12:21:17,811828
1,2,3,5,7,2,3,0,2021-08-07 12:21:17,826828
-11,-9,-5,-1,-11,-8,-6,-6,2021-08-07 12:21:17,826828
-4,-1,2,1,-5,-3,-3,-5,2021-08-07 12:21:17,826828
-2,3,3,-1,-1,-2,-3,-2,2021-08-07 12:21:17,826828
-2,-2,-9,-17,-9,-6,-4,-4,2021-08-07 12:21:17,841791
2,3,5,10,11,4,2,3,2021-08-07 12:21:17,857791
1,0,-2,-5,-8,-3,-2,1,2021-08-07 12:21:17,857791
-1,-2,-6,-9,-7,-4,-2,-1,2021-08-07 12:21:17,857791
-1,-5,-1,1,-1,-3,-2,-1,2021-08-07 12:21:17,857791
8,7,6,10,5,8,5,3,2021-08-07 12:21:17,857791
3,3,2,7,26,14,6,2,2021-08-07 12:21:17,889787
-2,-1,-3,-5,-18,-9,-3,-1,2021-08-07 12:21:17,889787
-3,-1,-1,-6,4,1,-1,0,2021-08-07 12:21:17,889787
-1,-2,-1,1,7,3,-1,-2,2021-08-07 12:21:17,889787
-5,-6,-4,-2,-9,-6,-4,-4,2021-08-07 12:21:17,889787
4,4,9,19,18,10,5,3,2021-08-07 12:21:17,889787
0,1,-3,-3,-8,-5,-1,0,2021-08-07 12:21:17,905827
-2,0,-5,-17,-20,-10,-4,-2,2021-08-07 12:21:17,921789
2,4,3,1,-2,-2,-1,2,2021-08-07 12:21:17,921789
-3,-4,-7,-10,-3,-3,-4,-3,2021-08-07 12:21:17,921789
-2,-3,-4,-10,-10,-3,-4,-2,2021-08-07 12:21:17,921789
-1,-4,0,11,11,5,1,0,2021-08-07 12:21:17,921789
1,5,9,16,13,9,4,2,2021-08-07 12:21:17,921789
-2,-6,-6,-1,-2,-3,-3,-3,2021-08-07 12:21:17,921789
5,9,5,6,8,5,4,4,2021-08-07 12:21:17,968790
-2,-1,-5,-9,-6,-2,-1,-1,2021-08-07 12:21:17,984827
-4,-8,-9,-13,-9,-9,-5,-5,2021-08-07 12:21:17,984827
0,-2,-2,-4,-9,-6,-2,-3,2021-08-07 12:21:17,984827
1,1,3,5,7,4,1,0,2021-08-07 12:21:17,984827
-2,-4,-6,-7,-5,-6,-3,-4,2021-08-07 12:21:17,984827
-6,-7,-9,-18,-19,-9,-5,-5,2021-08-07 12:21:17,984827
7,9,12,19,23,11,7,6,2021-08-07 12:21:17,985790
1,2,4,10,10,3,3,0,2021-08-07 12:21:17,985790
-3,-3,-3,-6,-7,-4,-1,-2,2021-08-07 12:21:17,985790
-3,-3,-1,-2,-4,-4,-3,-1,2021-08-07 12:21:17,985790
-2,-2,-4,-11,-9,-5,-1,-1,2021-08-07 12:21:17,985790
-1,-1,-3,-1,0,1,-1,1,2021-08-07 12:21:18,015827
3,5,8,18,14,6,4,4,2021-08-07 12:21:18,015827
0,0,-3,-10,-16,-7,-3,0,2021-08-07 12:21:18,015827
-3,-7,-7,-11,-13,-5,-4,-4,2021-08-07 12:21:18,015827
4,6,11,24,31,13,5,6,2021-08-07 12:21:18,015827
-6,-8,-7,-11,-12,-7,-4,-4,2021-08-07 12:21:18,015827
-2,1,1,2,1,0,0,-2,2021-08-07 12:21:18,047827
-5,-8,-10,-12,-12,-5,-4,-2,2021-08-07 12:21:18,047827
0,0,-2,-7,-13,-6,-2,-2,2021-08-07 12:21:18,047827
2,0,2,11,11,6,1,-1,2021-08-07 12:21:18,047827
4,3,2,4,5,3,4,1,2021-08-07 12:21:18,047827
-5,-3,-2,-3,-5,-2,-1,-2,2021-08-07 12:21:18,047827
-3,-3,-3,-3,-2,0,0,0,2021-08-07 12:21:18,078816
-1,-2,-5,-11,-8,-4,-4,-2,2021-08-07 12:21:18,078816
4,8,8,6,4,4,4,3,2021-08-07 12:21:18,078816
-2,-5,-1,1,-1,-3,-1,-2,2021-08-07 12:21:18,078816
0,1,-1,-3,-4,-3,-1,0,2021-08-07 12:21:18,078816
-1,-2,-3,-10,-7,-6,-1,-1,2021-08-07 12:21:18,094816
1,-1,3,10,17,10,2,1,2021-08-07 12:21:18,094816
1,4,6,16,11,5,1,0,2021-08-07 12:21:18,094816
-6,-9,-5,-5,-4,-4,-2,-4,2021-08-07 12:21:18,110829
-3,2,-4,-12,-14,-7,-3,-2,2021-08-07 12:21:18,126829
-4,-5,-10,-20,-11,-8,-2,-4,2021-08-07 12:21:18,126829
2,7,10,20,17,7,1,1,2021-08-07 12:21:18,126829
-2,-1,-2,-1,-5,-2,-2,-1,2021-08-07 12:21:18,126829
-5,-7,-6,-6,-7,-5,-4,-2,2021-08-07 12:21:18,127792
-2,-3,-6,-11,-14,-6,-4,-4,2021-08-07 12:21:18,127792
2,4,4,8,13,6,4,2,2021-08-07 12:21:18,127792
0,-1,0,-2,-2,-2,-2,-3,2021-08-07 12:21:18,142857
4,1,5,17,24,11,5,4,2021-08-07 12:21:18,142857
-2,-1,-4,2,-3,-3,-2,-2,2021-08-07 12:21:18,142857
0,-2,-2,-2,2,-1,-1,-2,2021-08-07 12:21:18,142857
-1,1,-3,-7,-13,-6,-3,0,2021-08-07 12:21:18,174790
-2,-3,-5,-11,-12,-3,-2,0,2021-08-07 12:21:18,190816
1,-1,6,18,12,5,1,1,2021-08-07 12:21:18,206829
1,-3,-3,-6,-6,0,-1,-1,2021-08-07 12:21:18,206829
-2,-1,2,3,4,0,0,-1,2021-08-07 12:21:18,206829
-2,-1,-6,-13,-15,-8,-3,-4,2021-08-07 12:21:18,206829
1,-2,-2,1,2,1,0,1,2021-08-07 12:21:18,206829
-3,-1,-2,-8,-8,-5,-2,-3,2021-08-07 12:21:18,207828
-3,-5,-2,-3,-6,-4,-4,-2,2021-08-07 12:21:18,207828
3,3,4,11,16,7,4,3,2021-08-07 12:21:18,207828
-2,0,1,2,0,1,1,1,2021-08-07 12:21:18,207828
-7,-11,-11,-20,-20,-10,-8,-5,2021-08-07 12:21:18,207828
5,3,-2,-3,0,0,2,1,2021-08-07 12:21:18,222787
5,7,11,18,17,8,5,3,2021-08-07 12:21:18,222787
2,7,7,11,12,6,3,2,2021-08-07 12:21:18,222787
-2,-3,-4,-7,-5,-3,-1,-2,2021-08-07 12:21:18,222787
-5,-5,-4,2,0,-2,-1,-3,2021-08-07 12:21:18,253828
-3,-5,-6,-12,-14,-8,-4,-5,2021-08-07 12:21:18,269790
0,0,-2,1,0,-1,-2,1,2021-08-07 12:21:18,269790
0,0,-2,-8,-7,-3,-2,0,2021-08-07 12:21:18,269790
-3,-3,-5,-6,-5,-3,-4,-3,2021-08-07 12:21:18,269790
2,4,3,4,12,6,5,3,2021-08-07 12:21:18,269790
-3,-6,-5,-7,-12,-7,-5,-5,2021-08-07 12:21:18,269790
1,-1,2,4,4,2,1,-1,2021-08-07 12:21:18,270830
0,0,1,9,12,3,0,0,2021-08-07 12:21:18,285798
-4,-2,-4,-14,-13,-7,-4,-2,2021-08-07 12:21:18,288792
-2,-3,-6,-9,-6,-4,-2,-4,2021-08-07 12:21:18,288792
2,5,4,2,-1,0,0,2,2021-08-07 12:21:18,289791
3,4,11,26,27,15,7,1,2021-08-07 12:21:18,316791
-1,-3,-2,-1,-1,-2,-2,-1,2021-08-07 12:21:18,331828
-4,-5,-4,-10,-3,-5,-4,-2,2021-08-07 12:21:18,331828
-3,-3,-4,-3,0,-3,-2,-1,2021-08-07 12:21:18,331828
1,1,0,-2,-2,-1,0,1,2021-08-07 12:21:18,331828
-4,-4,-1,-1,-7,-3,-3,-2,2021-08-07 12:21:18,331828
1,-1,-3,-6,-6,-1,-1,-1,2021-08-07 12:21:18,331828
0,-3,-3,0,-1,-3,0,0,2021-08-07 12:21:18,331828
-7,-8,-14,-27,-25,-13,-8,-5,2021-08-07 12:21:18,347787
-1,0,6,16,21,9,2,0,2021-08-07 12:21:18,347787
2,4,4,7,7,5,1,0,2021-08-07 12:21:18,347787
-1,1,0,4,3,2,0,-1,2021-08-07 12:21:18,347787
0,0,0,-2,-4,-3,-4,-1,2021-08-07 12:21:18,378828
-8,-9,-13,-19,-23,-16,-8,-6,2021-08-07 12:21:18,378828
0,-2,-3,-6,-7,-4,-1,-1,2021-08-07 12:21:18,378828
4,6,6,10,12,5,3,0,2021-08-07 12:21:18,378828
2,3,0,-9,-1,0,1,0,2021-08-07 12:21:18,394819
1,-1,1,4,9,5,0,1,2021-08-07 12:21:18,410792
0,1,3,8,4,0,1,2,2021-08-07 12:21:18,410792
-5,-8,-7,-10,-9,-6,-4,-3,2021-08-07 12:21:18,410792
0,-2,-2,-4,-5,-2,0,1,2021-08-07 12:21:18,410792
0,4,2,0,-2,0,0,-1,2021-08-07 12:21:18,410792
0,-2,-4,-2,1,1,0,0,2021-08-07 12:21:18,410792
2,5,2,-1,2,0,-1,0,2021-08-07 12:21:18,410792
4,2,1,4,5,4,3,2,2021-08-07 12:21:18,426828
-2,-3,-5,-8,-7,-4,-2,-4,2021-08-07 12:21:18,426828
0,1,8,17,13,5,1,2,2021-08-07 12:21:18,426828
-5,-6,-4,-7,-9,-4,-4,-5,2021-08-07 12:21:18,426828
-1,-4,-1,1,3,1,-1,-1,2021-08-07 12:21:18,458787
3,4,-2,-3,-7,-1,0,1,2021-08-07 12:21:18,474826
-5,-4,-6,-13,-11,-5,-3,-3,2021-08-07 12:21:18,474826
0,1,2,10,11,6,2,2,2021-08-07 12:21:18,474826
-1,1,2,3,-2,-3,-2,-3,2021-08-07 12:21:18,474826
-3,-6,-4,-4,-3,-3,-3,-3,2021-08-07 12:21:18,474826
-1,-1,0,-3,2,2,1,2,2021-08-07 12:21:18,490826
2,3,1,0,-4,-2,-1,0,2021-08-07 12:21:18,506824
-7,-8,-9,-13,-8,-6,-5,-6,2021-08-07 12:21:18,522793
-1,0,-1,-4,-2,-1,0,0,2021-08-07 12:21:18,537791
-1,3,2,4,3,2,0,-2,2021-08-07 12:21:18,537791
-2,-4,-5,-7,-8,-4,0,-1,2021-08-07 12:21:18,537791
0,1,0,0,1,2,1,2,2021-08-07 12:21:18,537791
-1,-3,0,-1,-3,0,-3,-2,2021-08-07 12:21:18,537791
-3,-4,-2,4,4,1,-2,-3,2021-08-07 12:21:18,538790
2,3,-1,-6,-6,-2,-1,-1,2021-08-07 12:21:18,538790
0,3,8,21,22,8,1,-1,2021-08-07 12:21:18,538790
2,3,1,6,2,2,1,0,2021-08-07 12:21:18,538790
-5,-5,-7,-14,-17,-9,-5,-3,2021-08-07 12:21:18,538790
-1,-3,-4,-5,-1,-2,-2,0,2021-08-07 12:21:18,538790
3,0,3,1,6,2,2,2,2021-08-07 12:21:18,538790
0,-2,-1,6,3,-1,1,1,2021-08-07 12:21:18,539792
-2,-3,-7,-17,-18,-10,-5,-3,2021-08-07 12:21:18,552791
-4,-4,-3,-5,1,0,-1,-2,2021-08-07 12:21:18,552791
3,5,9,23,25,12,4,2,2021-08-07 12:21:18,568796
1,2,3,7,3,2,0,1,2021-08-07 12:21:18,584315
-1,0,-4,-4,-3,-2,-1,-1,2021-08-07 12:21:18,584315
0,-3,-1,-5,-11,-5,-3,-1,2021-08-07 12:21:18,584315
-1,0,-4,-15,-15,-5,-2,-1,2021-08-07 12:21:18,584315
-4,-6,-4,1,2,-2,-3,-2,2021-08-07 12:21:18,584315
1,1,0,0,-3,0,0,0,2021-08-07 12:21:18,584315
5,5,4,7,4,4,4,3,2021-08-07 12:21:18,585307
-4,-3,-4,-7,-3,-4,-3,-4,2021-08-07 12:21:18,615306
-7,-8,-3,-1,3,-1,-3,-4,2021-08-07 12:21:18,615306
5,8,5,7,7,4,4,4,2021-08-07 12:21:18,615306
-1,-1,4,16,11,4,2,0,2021-08-07 12:21:18,615306
0,-1,-6,-11,-13,-4,-2,-2,2021-08-07 12:21:18,631354
2,2,-2,-10,-11,-6,-1,0,2021-08-07 12:21:18,631354
-4,-8,-6,-7,-8,-7,-3,-4,2021-08-07 12:21:18,631354
-4,-3,-6,-8,-6,-6,-3,-2,2021-08-07 12:21:18,631354
1,-2,-1,2,4,2,1,2,2021-08-07 12:21:18,647346
2,6,7,4,9,6,3,1,2021-08-07 12:21:18,647346
0,1,3,15,14,6,1,0,2021-08-07 12:21:18,647346
-2,-2,0,3,4,-2,0,-1,2021-08-07 12:21:18,647346
-5,-5,-6,-9,-14,-9,-4,-4,2021-08-07 12:21:18,678346
-6,-8,-9,-12,-13,-8,-4,-3,2021-08-07 12:21:18,694348
4,6,5,-1,1,1,0,1,2021-08-07 12:21:18,694348
2,1,1,3,3,2,3,0,2021-08-07 12:21:18,694348
0,-1,-2,3,4,3,0,0,2021-08-07 12:21:18,694348
-2,-5,-8,-15,-8,-3,-3,-3,2021-08-07 12:21:18,694348
-1,-5,1,13,5,4,2,2,2021-08-07 12:21:18,694348
1,1,2,7,6,6,2,4,2021-08-07 12:21:18,694348
-4,-1,3,5,0,-3,-1,-2,2021-08-07 12:21:18,710310
-1,4,-3,-11,-16,-6,-3,-2,2021-08-07 12:21:18,710310
-5,-3,-2,0,8,0,-2,-3,2021-08-07 12:21:18,710310
0,3,4,13,10,4,0,-1,2021-08-07 12:21:18,710310
-1,-3,-3,-2,-7,-3,-3,-1,2021-08-07 12:21:18,726348
3,2,1,4,-3,-1,-1,2,2021-08-07 12:21:18,726348
-4,-8,-11,-22,-18,-11,-7,-4,2021-08-07 12:21:18,726348
1,0,4,9,16,6,5,3,2021-08-07 12:21:18,726348
1,4,-2,-6,-5,-1,0,-1,2021-08-07 12:21:18,758348
-3,-2,-1,2,-4,-4,0,-2,2021-08-07 12:21:18,758348
-4,-3,-3,-1,0,0,-2,-1,2021-08-07 12:21:18,758348
0,2,1,0,0,2,-1,-2,2021-08-07 12:21:18,758348
-5,-6,-7,-11,-10,-5,-4,-3,2021-08-07 12:21:18,758348
1,6,4,7,8,5,1,2,2021-08-07 12:21:18,758348
-1,-1,2,6,5,1,0,-1,2021-08-07 12:21:18,774348
1,-1,-3,-7,-9,-4,1,1,2021-08-07 12:21:18,774348
1,-2,0,2,1,2,0,1,2021-08-07 12:21:18,790536
-3,-5,-4,-8,-5,-4,-4,-3,2021-08-07 12:21:18,790536
4,4,9,15,10,4,3,2,2021-08-07 12:21:18,806308
-2,-3,-4,-5,-6,1,-4,-5,2021-08-07 12:21:18,806308
1,2,1,3,7,0,0,1,2021-08-07 12:21:18,806308
-3,-4,-4,-3,-4,-2,-3,-3,2021-08-07 12:21:18,806308
-1,-2,-6,-13,-9,-4,-4,-2,2021-08-07 12:21:18,806308
-1,-4,-5,-4,-2,-3,-1,-1,2021-08-07 12:21:18,806308
-2,-1,2,7,-1,-1,1,-1,2021-08-07 12:21:18,822337
1,0,0,4,9,3,1,1,2021-08-07 12:21:18,838308
-3,0,-3,-9,-13,-5,-3,-1,2021-08-07 12:21:18,838308
-3,-2,-4,-1,5,-1,-2,-1,2021-08-07 12:21:18,838308
-4,-1,-5,-14,-20,-10,-7,-4,2021-08-07 12:21:18,838308
1,-2,2,7,14,7,4,1,2021-08-07 12:21:18,838308
9,13,11,19,17,10,5,5,2021-08-07 12:21:18,869309
-3,-6,-7,-7,-9,-5,-4,-4,2021-08-07 12:21:18,885309
-1,0,1,-1,-2,-2,0,-1,2021-08-07 12:21:18,885309
-2,-2,-4,-11,-14,-8,-4,-3,2021-08-07 12:21:18,885309
-1,-1,-6,-10,3,3,2,0,2021-08-07 12:21:18,885309
-4,-3,0,0,-3,-1,-4,-3,2021-08-07 12:21:18,885309
2,1,-2,-6,-3,-3,-1,0,2021-08-07 12:21:18,885309
3,5,7,17,13,6,3,3,2021-08-07 12:21:18,886309
-3,-3,-2,-4,-6,-3,-2,-2,2021-08-07 12:21:18,886309
0,1,1,-2,1,0,0,-1,2021-08-07 12:21:18,886309
-3,-2,-2,-2,-1,0,-1,-3,2021-08-07 12:21:18,917308
-3,-4,-5,-5,-3,-3,-1,-2,2021-08-07 12:21:18,933310
-3,-4,-1,-2,-3,-3,-3,-3,2021-08-07 12:21:18,948345
-5,-7,-6,-14,-13,-8,-3,-3,2021-08-07 12:21:18,948345
3,4,2,-5,-3,1,2,3,2021-08-07 12:21:18,948345
2,2,8,19,11,6,2,2,2021-08-07 12:21:18,948345
-1,0,-3,-3,-7,-3,-2,-3,2021-08-07 12:21:18,948345
2,3,2,2,13,8,5,2,2021-08-07 12:21:18,948345
0,-2,-2,7,4,0,0,-3,2021-08-07 12:21:18,949346
-2,0,-3,-9,-12,-5,-2,0,2021-08-07 12:21:18,949346
-2,-2,-5,-5,-5,-1,-3,-3,2021-08-07 12:21:18,949346
-3,-1,-1,-3,-9,-6,-2,-1,2021-08-07 12:21:18,949346
2,0,-1,-3,-1,-2,0,2,2021-08-07 12:21:18,964345
1,1,2,3,3,3,1,-1,2021-08-07 12:21:18,979311
-3,-3,-4,-3,0,-2,-1,-2,2021-08-07 12:21:18,995354
0,1,0,2,1,1,-1,-1,2021-08-07 12:21:18,995354
-3,-4,-1,6,6,3,-2,-1,2021-08-07 12:21:18,995354
-7,-8,-9,-14,-13,-10,-6,-5,2021-08-07 12:21:18,995354
2,1,-1,1,-3,-1,1,1,2021-08-07 12:21:18,995354
6,7,8,16,12,8,4,4,2021-08-07 12:21:18,996308
-2,-2,4,12,10,5,2,-1,2021-08-07 12:21:18,996308
-3,-3,-2,-7,-4,-3,-3,-2,2021-08-07 12:21:19,011340
0,1,2,2,-6,-3,0,0,2021-08-07 12:21:19,011340
-5,-6,-7,-11,-9,-7,-3,-4,2021-08-07 12:21:19,011340
-2,-2,2,4,7,3,0,-2,2021-08-07 12:21:19,027335
2,1,2,3,2,0,2,-1,2021-08-07 12:21:19,043310
-3,-5,-4,-5,4,-1,0,-2,2021-08-07 12:21:19,043310
-1,-3,-3,-9,-8,-5,-3,-2,2021-08-07 12:21:19,043310
-3,-2,-1,-1,-6,-3,-1,-1,2021-08-07 12:21:19,043310
-1,-1,-3,-3,1,-1,-1,-2,2021-08-07 12:21:19,043310
3,2,6,10,14,8,3,4,2021-08-07 12:21:19,043310
-1,-1,-1,-8,-9,-3,-2,1,2021-08-07 12:21:19,043310
-3,-3,-3,-4,-3,-3,-3,-2,2021-08-07 12:21:19,074345
-1,0,0,-4,-9,-4,0,-1,2021-08-07 12:21:19,090345
-5,-7,-12,-22,-20,-13,-9,-6,2021-08-07 12:21:19,106347
5,3,8,29,24,13,3,2,2021-08-07 12:21:19,106347
2,1,2,10,13,6,2,0,2021-08-07 12:21:19,106347
1,1,1,8,10,4,2,1,2021-08-07 12:21:19,106347
-3,-2,-4,-10,-10,-4,-2,-3,2021-08-07 12:21:19,122345
-2,-1,-2,-4,-7,-4,-4,-2,2021-08-07 12:21:19,122345
-4,-4,-6,-12,-12,-5,-3,-3,2021-08-07 12:21:19,122345
-2,-2,0,8,3,2,-2,-2,2021-08-07 12:21:19,122345
1,1,1,2,6,4,3,0,2021-08-07 12:21:19,122345
1,5,-1,-9,-10,-5,-1,0,2021-08-07 12:21:19,123312
2,1,3,6,-2,-2,1,2,2021-08-07 12:21:19,138310
-4,-4,-6,-11,-9,-5,-4,-3,2021-08-07 12:21:19,138310
-6,-10,-5,9,15,3,0,-3,2021-08-07 12:21:19,138310
0,2,0,-4,-4,-2,-1,2,2021-08-07 12:21:19,138310
2,2,3,8,12,4,1,2,2021-08-07 12:21:19,139311
0,-1,-2,-9,-12,-7,-2,-2,2021-08-07 12:21:19,154346
-1,-2,2,-3,-4,-2,-2,0,2021-08-07 12:21:19,170309
-4,-3,2,13,18,7,2,-2,2021-08-07 12:21:19,170309
-2,-2,-6,-22,-23,-11,-5,-2,2021-08-07 12:21:19,170309
0,0,-1,5,15,7,1,1,2021-08-07 12:21:19,170309
4,5,8,13,13,7,3,3,2021-08-07 12:21:19,170309
-3,-3,-6,-16,-16,-9,-4,-3,2021-08-07 12:21:19,170309
-6,-7,-5,-2,-4,-4,-6,-3,2021-08-07 12:21:19,202308
7,12,10,8,8,6,4,5,2021-08-07 12:21:19,218338
2,4,1,-4,-8,-2,0,1,2021-08-07 12:21:19,232346
-2,-4,-4,-2,-2,-3,-3,-3,2021-08-07 12:21:19,232346
-4,-2,-2,-10,-9,-4,-1,-2,2021-08-07 12:21:19,232346
-2,-4,-1,2,6,0,-1,-1,2021-08-07 12:21:19,232346
-4,-3,-4,-5,-4,-3,-3,-2,2021-08-07 12:21:19,233309
3,3,4,6,6,4,1,1,2021-08-07 12:21:19,233309
1,2,3,-2,-2,0,1,0,2021-08-07 12:21:19,233309
-5,-5,-5,-9,-5,-4,-3,-2,2021-08-07 12:21:19,233309
0,-2,-1,-3,-7,-1,-1,0,2021-08-07 12:21:19,233309
-2,-1,-1,5,2,0,0,-3,2021-08-07 12:21:19,233309
1,1,0,6,3,1,1,0,2021-08-07 12:21:19,250309
-3,-3,-1,-5,-7,-4,-1,-2,2021-08-07 12:21:19,265349
-2,-3,-6,-10,-17,-9,-7,-3,2021-08-07 12:21:19,281310
-4,-8,-5,0,0,-1,-2,-2,2021-08-07 12:21:19,281310
7,10,6,11,23,13,6,6,2021-08-07 12:21:19,297346
-2,-5,-4,-5,-10,-6,-4,-3,2021-08-07 12:21:19,297346
-5,-7,-6,-4,-5,-5,-3,-5,2021-08-07 12:21:19,297346
3,2,3,1,-1,-2,0,0,2021-08-07 12:21:19,297346
-4,-5,-4,-13,-15,-9,-7,-5,2021-08-07 12:21:19,297346
-3,-5,-11,-11,-10,-6,-4,-4,2021-08-07 12:21:19,297346
5,5,5,17,22,11,6,3,2021-08-07 12:21:19,297346
-2,2,1,-1,-3,-2,-2,0,2021-08-07 12:21:19,298346
-2,-2,0,0,2,1,-1,-1,2021-08-07 12:21:19,313307
-2,-3,-4,-3,-4,-3,-1,1,2021-08-07 12:21:19,313307
-4,-2,0,-3,-8,-5,-2,-2,2021-08-07 12:21:19,313307
0,-1,-4,-5,-1,0,3,2,2021-08-07 12:21:19,313307
-1,0,0,-2,-2,-1,-2,-1,2021-08-07 12:21:19,329347
-1,0,3,10,7,2,1,0,2021-08-07 12:21:19,329347
3,3,2,2,3,3,0,1,2021-08-07 12:21:19,329347
-3,-2,-3,-5,-6,-5,-3,0,2021-08-07 12:21:19,329347
-1,-4,-2,-2,-1,-3,0,-2,2021-08-07 12:21:19,360345
-2,-2,-1,-4,-1,-1,-2,-1,2021-08-07 12:21:19,360345
-3,-4,-4,-14,-21,-11,-4,-3,2021-08-07 12:21:19,360345
-3,-4,0,7,8,3,0,-3,2021-08-07 12:21:19,360345
3,6,3,10,15,10,6,4,2021-08-07 12:21:19,376307
-1,0,-2,1,9,2,-1,0,2021-08-07 12:21:19,392308
0,0,2,6,0,0,0,-1,2021-08-07 12:21:19,408333
-3,-3,-5,-13,-8,-6,-3,-2,2021-08-07 12:21:19,408333
-4,-5,-9,-9,-15,-8,-5,-4,2021-08-07 12:21:19,408333
-1,2,5,12,7,4,1,1,2021-08-07 12:21:19,408333
0,1,-2,-2,-3,-3,0,0,2021-08-07 12:21:19,408333
-3,-6,-6,-11,-14,-7,-5,-4,2021-08-07 12:21:19,409308
2,1,6,17,19,10,3,2,2021-08-07 12:21:19,409308
-3,-2,-8,-21,-19,-8,-3,-4,2021-08-07 12:21:19,409308
-2,-2,1,9,15,4,1,0,2021-08-07 12:21:19,409308
0,1,-1,-2,-5,-2,-2,-1,2021-08-07 12:21:19,409308
-7,-8,-8,-10,-10,-7,-6,-7,2021-08-07 12:21:19,440346
7,7,9,10,8,7,6,5,2021-08-07 12:21:19,440346
0,0,5,8,6,3,2,1,2021-08-07 12:21:19,440346
-2,1,-2,-2,-2,0,0,-2,2021-08-07 12:21:19,440346
-1,-1,-1,-5,-10,-7,-2,-4,2021-08-07 12:21:19,440346
-1,-3,-6,-12,-4,-1,-1,1,2021-08-07 12:21:19,440346
2,1,7,23,20,10,4,1,2021-08-07 12:21:19,456346
2,4,-2,-1,-1,-2,0,-1,2021-08-07 12:21:19,456346
-4,-7,-6,-11,-10,-8,-5,-4,2021-08-07 12:21:19,472306
-2,0,1,1,-4,-3,-2,-2,2021-08-07 12:21:19,472306
-6,-8,-10,-20,-17,-9,-5,-5,2021-08-07 12:21:19,472306
-2,-2,3,1,-3,1,-2,0,2021-08-07 12:21:19,472306
9,12,13,25,26,16,9,8,2021-08-07 12:21:19,488308
-1,-1,-2,-2,-6,-3,-3,-2,2021-08-07 12:21:19,488308
-1,0,-4,-5,-6,-2,-1,-1,2021-08-07 12:21:19,504343
-3,-6,-5,-4,-6,-3,-2,-2,2021-08-07 12:21:19,520345
-5,-7,-5,-19,-13,-7,-3,-2,2021-08-07 12:21:19,520345
2,1,7,13,5,0,0,0,2021-08-07 12:21:19,520345
5,4,7,11,15,8,5,2,2021-08-07 12:21:19,536347
-2,-2,-4,-1,1,0,-1,-1,2021-08-07 12:21:19,536347
-2,-4,-10,-11,-8,-7,-4,0,2021-08-07 12:21:19,536347
-4,-6,-6,-5,-8,-4,-3,-1,2021-08-07 12:21:19,536347
-1,-1,-2,-8,-11,-6,-1,-2,2021-08-07 12:21:19,552339
5,3,4,7,10,2,3,4,2021-08-07 12:21:19,568309
3,5,1,5,1,5,6,0,2021-08-07 12:21:19,568309
-7,-6,-6,-13,-8,-8,-5,-7,2021-08-07 12:21:19,568309
0,3,9,28,27,14,4,3,2021-08-07 12:21:19,568309
-2,1,5,7,1,1,0,-3,2021-08-07 12:21:19,568309
0,4,2,2,-1,-2,-3,0,2021-08-07 12:21:19,568309
1,5,1,-4,-6,-3,-2,0,2021-08-07 12:21:19,569307
-3,-3,-9,-20,-15,-8,-4,-2,2021-08-07 12:21:19,569307
-1,0,-2,-3,1,-2,-1,-2,2021-08-07 12:21:19,569307
2,0,3,5,0,-1,-1,0,2021-08-07 12:21:19,599348
2,-1,-1,-3,-4,-3,2,0,2021-08-07 12:21:19,615349
-1,0,-2,-7,0,0,-1,-1,2021-08-07 12:21:19,615349
-2,-6,-2,11,18,7,1,-1,2021-08-07 12:21:19,615349
-2,-4,-2,-10,-13,-6,-2,-2,2021-08-07 12:21:19,615349
5,8,5,9,17,10,3,4,2021-08-07 12:21:19,615349
-1,-1,-1,-2,-6,-5,-2,-1,2021-08-07 12:21:19,615349
-1,-4,-4,-7,-8,-2,1,0,2021-08-07 12:21:19,615349
-4,-6,-5,2,4,1,-2,-2,2021-08-07 12:21:19,631305
-3,-4,-6,-10,-12,-5,-3,-3,2021-08-07 12:21:19,631305
-2,-3,-4,-9,-10,-5,-3,-2,2021-08-07 12:21:19,631305
3,5,7,11,16,6,1,0,2021-08-07 12:21:19,631305
0,-1,4,9,11,3,1,-2,2021-08-07 12:21:19,647348
-1,-3,-1,6,6,4,1,0,2021-08-07 12:21:19,663308
-2,-5,-6,-6,-9,-5,-4,-1,2021-08-07 12:21:19,663308
-1,-3,2,-2,-7,-4,-2,0,2021-08-07 12:21:19,679312
3,7,0,-5,-4,-1,0,2,2021-08-07 12:21:19,695307
-2,-4,1,1,-1,-2,-2,-3,2021-08-07 12:21:19,710345
1,2,-2,-7,-8,-3,-3,-1,2021-08-07 12:21:19,725308
0,0,3,10,11,5,1,1,2021-08-07 12:21:19,725308
-3,-1,1,3,6,2,0,-2,2021-08-07 12:21:19,725308
0,0,2,-1,1,2,-1,-1,2021-08-07 12:21:19,726310
-2,-4,-2,0,-6,-6,-3,-3,2021-08-07 12:21:19,726310
-1,-3,-6,-13,-14,-7,-3,-2,2021-08-07 12:21:19,726310
-1,-1,-6,-8,-10,-5,-2,-1,2021-08-07 12:21:19,726310
-4,-4,-3,5,3,-1,1,-1,2021-08-07 12:21:19,726310
2,1,2,3,11,4,1,0,2021-08-07 12:21:19,727348
-3,-4,-6,-7,-11,-6,-6,-3,2021-08-07 12:21:19,727348
0,1,4,10,14,7,1,1,2021-08-07 12:21:19,727348
1,1,-1,5,0,-1,0,-1,2021-08-07 12:21:19,727348
-3,-5,-4,-5,-6,-3,-1,-1,2021-08-07 12:21:19,727348
0,5,1,2,2,0,1,1,2021-08-07 12:21:19,741305
1,-2,-5,-10,-9,-3,-2,0,2021-08-07 12:21:19,741305
3,6,9,7,6,4,3,4,2021-08-07 12:21:19,741305
0,0,2,10,11,5,2,-1,2021-08-07 12:21:19,757305
-1,-3,2,6,4,-1,-1,-1,2021-08-07 12:21:19,772308
-2,-3,-7,-7,-11,-7,-4,-2,2021-08-07 12:21:19,788309
-6,-7,-8,-11,-13,-8,-6,-4,2021-08-07 12:21:19,804344
2,6,2,3,5,2,1,1,2021-08-07 12:21:19,820323
1,2,-2,-7,-5,0,0,-1,2021-08-07 12:21:19,820323
-2,-3,0,3,-1,-1,-2,-1,2021-08-07 12:21:19,836345
-1,-2,-1,1,4,1,0,-1,2021-08-07 12:21:19,836345
-5,-7,-5,-7,-5,-3,-3,-3,2021-08-07 12:21:19,836345
-4,-3,-4,-10,-13,-7,-4,-1,2021-08-07 12:21:19,836345
0,2,4,8,8,5,2,1,2021-08-07 12:21:19,836345
-2,-1,-3,-8,-5,-4,-2,-2,2021-08-07 12:21:19,836345
1,1,0,4,6,2,1,0,2021-08-07 12:21:19,836345
0,2,1,3,9,6,2,1,2021-08-07 12:21:19,836345
-6,-10,-10,-14,-16,-10,-7,-5,2021-08-07 12:21:19,837309
-1,3,1,-1,2,2,1,0,2021-08-07 12:21:19,837309
-1,-1,2,2,10,3,0,0,2021-08-07 12:21:19,837309
3,3,7,17,6,4,2,2,2021-08-07 12:21:19,837309
-1,2,2,2,3,-1,0,0,2021-08-07 12:21:19,852346
-2,-4,-4,-6,-7,-4,-2,1,2021-08-07 12:21:19,868345
-8,-6,-10,-19,-20,-12,-6,-5,2021-08-07 12:21:19,883346
-1,-4,-1,-9,-12,-3,-1,-1,2021-08-07 12:21:19,883346
0,1,3,12,11,7,2,1,2021-08-07 12:21:19,883346
-3,-6,-6,-4,-5,-4,-3,-2,2021-08-07 12:21:19,883346
4,4,1,0,0,1,1,1,2021-08-07 12:21:19,883346
-1,-3,-4,-3,-5,-5,-2,-1,2021-08-07 12:21:19,884306
1,1,1,-4,-8,-2,0,0,2021-08-07 12:21:19,884306
-3,-2,-2,-3,-2,-2,-2,-2,2021-08-07 12:21:19,884306
3,4,9,21,23,12,6,6,2021-08-07 12:21:19,884306
-4,-9,-11,-11,-10,-6,-3,-3,2021-08-07 12:21:19,884306
3,6,12,15,13,6,3,3,2021-08-07 12:21:19,914343
1,3,1,0,-1,1,1,0,2021-08-07 12:21:19,914343
-3,-6,-5,-2,-3,-3,-3,-4,2021-08-07 12:21:19,914343
5,6,2,2,8,3,3,2,2021-08-07 12:21:19,914343
0,-1,-4,-9,-9,-6,-2,-2,2021-08-07 12:21:19,930310
-3,-2,-1,2,6,2,-2,-2,2021-08-07 12:21:19,930310
-4,-4,-3,-5,-14,-6,-4,-3,2021-08-07 12:21:19,930310
-2,0,-3,-15,-12,-5,-2,-2,2021-08-07 12:21:19,930310
-2,-5,1,17,19,7,1,-2,2021-08-07 12:21:19,961345
-1,-1,-1,-2,-1,0,-1,-2,2021-08-07 12:21:19,961345
1,0,-1,-5,-6,-3,-1,1,2021-08-07 12:21:19,961345
-7,-7,-7,-10,-13,-7,-6,-6,2021-08-07 12:21:19,961345
-1,0,-6,-19,-19,-8,-4,-1,2021-08-07 12:21:19,977332
2,0,-2,1,8,6,3,2,2021-08-07 12:21:19,993373
2,4,7,14,10,4,3,2,2021-08-07 12:21:19,993373
-2,-2,-3,2,4,1,-1,-2,2021-08-07 12:21:19,993373
-4,-4,-6,-8,-9,-7,-5,-5,2021-08-07 12:21:19,993373
3,3,5,5,-1,-1,1,1,2021-08-07 12:21:19,993373
-4,-7,-10,-13,-8,-4,-3,-3,2021-08-07 12:21:19,993373
2,7,8,14,16,4,3,2,2021-08-07 12:21:19,993373
-1,3,3,2,5,3,2,1,2021-08-07 12:21:20,009336
-3,-3,-3,-8,-15,-8,-3,0,2021-08-07 12:21:20,009336
-1,-1,1,1,6,1,0,-1,2021-08-07 12:21:20,009336
-3,-7,-4,-5,-10,-6,-4,-3,2021-08-07 12:21:20,009336
-1,-1,-3,1,4,1,-2,-1,2021-08-07 12:21:20,040372
1,1,5,11,10,4,0,1,2021-08-07 12:21:20,040372
2,4,-1,-7,-13,-5,-2,0,2021-08-07 12:21:20,040372
0,-2,-1,-7,-3,0,1,-2,2021-08-07 12:21:20,040372
-7,-8,-6,-15,-13,-8,-4,-4,2021-08-07 12:21:20,040372
0,-1,3,12,10,3,0,0,2021-08-07 12:21:20,040372
-1,0,0,1,-1,0,0,-1,2021-08-07 12:21:20,056372
4,5,4,3,4,1,0,4,2021-08-07 12:21:20,056372
0,0,-2,-4,-6,-1,0,0,2021-08-07 12:21:20,072362
-3,-4,-4,-8,-9,-5,-3,-3,2021-08-07 12:21:20,072362
-1,4,4,10,15,4,-1,1,2021-08-07 12:21:20,072362
0,1,-3,-1,-5,-3,-3,-1,2021-08-07 12:21:20,072362
-4,-8,-7,-5,5,1,-2,-3,2021-08-07 12:21:20,119374
2,1,4,13,19,6,3,1,2021-08-07 12:21:20,119374
-1,2,-2,-12,-15,-7,-1,-1,2021-08-07 12:21:20,119374
-2,-4,0,5,0,0,0,-1,2021-08-07 12:21:20,119374
-2,-3,-4,-1,-5,-5,-1,-2,2021-08-07 12:21:20,119374
-1,-2,-1,-3,-2,-1,-2,-2,2021-08-07 12:21:20,119374
-3,-5,-3,-7,-7,-3,-2,-3,2021-08-07 12:21:20,119374
-3,-1,-2,-2,-1,0,0,0,2021-08-07 12:21:20,119374
0,0,1,-2,-3,-1,-1,0,2021-08-07 12:21:20,135374
-5,-2,-4,-7,-8,-4,-3,-2,2021-08-07 12:21:20,135374
6,8,13,26,26,13,7,5,2021-08-07 12:21:20,135374
1,2,6,14,11,7,3,1,2021-08-07 12:21:20,135374
-3,-6,-5,-3,-7,-4,-5,-5,2021-08-07 12:21:20,150332
-1,0,-2,-9,-7,-4,-1,0,2021-08-07 12:21:20,166333
-1,-1,-3,-9,-14,-6,-2,-1,2021-08-07 12:21:20,166333
-3,-11,-9,-1,4,3,0,-2,2021-08-07 12:21:20,166333
7,11,12,18,14,9,4,5,2021-08-07 12:21:20,166333
-5,-8,-8,-7,-7,-5,-4,-4,2021-08-07 12:21:20,166333
-1,0,-4,-10,-8,-4,-1,-1,2021-08-07 12:21:20,166333
-3,-1,-1,-5,-8,-5,-3,-3,2021-08-07 12:21:20,167334
-3,-4,-5,-13,-12,-7,-2,-2,2021-08-07 12:21:20,197361
1,2,1,-2,0,0,0,0,2021-08-07 12:21:20,200334
-4,-6,-5,-3,-3,-3,-1,-2,2021-08-07 12:21:20,200334
5,8,9,19,19,10,5,2,2021-08-07 12:21:20,200334
-2,-4,-3,0,1,-2,-2,-3,2021-08-07 12:21:20,229333
1,3,2,4,1,2,3,3,2021-08-07 12:21:20,229333
-2,-6,-6,-6,-4,-3,-3,-2,2021-08-07 12:21:20,229333
-2,-2,-2,-3,-8,-5,-2,-1,2021-08-07 12:21:20,229333
-2,0,-3,-11,-10,-7,-4,-1,2021-08-07 12:21:20,229333
-3,-4,-4,-3,-1,1,-1,-3,2021-08-07 12:21:20,230334
0,-1,2,8,11,6,0,0,2021-08-07 12:21:20,245337
0,-1,-4,-9,-12,-6,-4,-2,2021-08-07 12:21:20,245743
0,0,-1,-3,-2,-1,1,1,2021-08-07 12:21:20,245743
1,0,0,4,11,2,0,1,2021-08-07 12:21:20,245743
-2,0,-1,-3,-7,-3,-2,-2,2021-08-07 12:21:20,245743
-1,1,-2,-9,-3,-2,-1,-1,2021-08-07 12:21:20,246333
-3,-3,-5,-3,-10,-6,-3,-2,2021-08-07 12:21:20,277361
-3,-2,-5,-16,-11,-6,-4,-2,2021-08-07 12:21:20,277361
2,4,5,8,8,3,1,1,2021-08-07 12:21:20,277361
2,3,6,18,15,8,3,1,2021-08-07 12:21:20,277361
-1,-2,1,3,-1,-2,-1,-1,2021-08-07 12:21:20,308361
-1,-3,0,3,0,0,1,1,2021-08-07 12:21:20,324398
-4,-4,-4,-13,-13,-8,-6,-4,2021-08-07 12:21:20,340363
-2,-4,-10,-19,-19,-10,-6,-3,2021-08-07 12:21:20,340363
6,5,6,14,27,13,7,4,2021-08-07 12:21:20,340363
-2,-3,-3,0,-1,-1,-2,-2,2021-08-07 12:21:20,340363
0,0,4,7,0,1,0,0,2021-08-07 12:21:20,341360
-5,-4,-3,-7,-9,-6,-4,-4,2021-08-07 12:21:20,341360
0,-1,-1,-5,-10,-3,-1,-1,2021-08-07 12:21:20,341360
6,6,13,27,28,13,5,5,2021-08-07 12:21:20,341360
-3,-4,-8,-8,-11,-6,-3,-4,2021-08-07 12:21:20,341360
0,4,0,-7,-4,-1,-1,-1,2021-08-07 12:21:20,341360
-4,-6,-5,0,-4,-4,-3,-3,2021-08-07 12:21:20,356359
-4,-5,-5,-14,-13,-7,-4,-4,2021-08-07 12:21:20,356359
3,0,1,3,8,4,2,3,2021-08-07 12:21:20,356359
1,0,2,8,4,1,1,0,2021-08-07 12:21:20,356359
1,0,1,1,-3,-3,-1,-2,2021-08-07 12:21:20,372399
0,2,0,0,-6,-3,0,1,2021-08-07 12:21:20,388363
-2,-5,-4,-2,-1,-1,-1,-1,2021-08-07 12:21:20,404360
1,1,1,-4,-4,-4,-1,-1,2021-08-07 12:21:20,419372
-4,-2,0,0,8,4,-1,0,2021-08-07 12:21:20,435400
-2,-5,-3,0,0,-2,-2,-3,2021-08-07 12:21:20,435400
3,6,2,-4,-4,-3,-1,3,2021-08-07 12:21:20,435400
4,1,5,13,16,8,3,3,2021-08-07 12:21:20,435400
1,-1,-6,-14,-13,-2,-1,2,2021-08-07 12:21:20,435400
-1,-3,-3,-5,-6,-5,-1,-2,2021-08-07 12:21:20,436403
0,-1,-1,0,-2,-1,0,1,2021-08-07 12:21:20,436403
-2,-1,2,-1,3,4,0,0,2021-08-07 12:21:20,436403
-1,1,6,16,13,5,1,-3,2021-08-07 12:21:20,451399
-4,1,0,1,3,-1,-2,-4,2021-08-07 12:21:20,451399
-5,-4,-1,-4,-1,-4,-4,-4,2021-08-07 12:21:20,451399
-1,1,0,-2,-6,-4,-3,-1,2021-08-07 12:21:20,451399
1,1,-1,-1,2,1,0,0,2021-08-07 12:21:20,451399
1,-2,-4,-6,-6,-1,-2,0,2021-08-07 12:21:20,452400
5,4,-2,-4,2,1,1,3,2021-08-07 12:21:20,452400
-4,-5,-3,-1,-6,-5,-3,-3,2021-08-07 12:21:20,452400
-2,-3,-4,-1,0,1,0,-1,2021-08-07 12:21:20,483399
3,6,8,14,13,8,4,4,2021-08-07 12:21:20,483399
-3,-2,-1,0,-2,0,-1,-2,2021-08-07 12:21:20,483399
-4,-10,-10,-16,-15,-7,-3,-2,2021-08-07 12:21:20,483399
2,4,-4,-14,-16,-9,-3,-2,2021-08-07 12:21:20,483399
0,0,0,8,15,4,0,-1,2021-08-07 12:21:20,483399
-3,-5,-4,-11,-20,-7,-3,-1,2021-08-07 12:21:20,483399
5,6,10,23,33,20,7,4,2021-08-07 12:21:20,483399
-1,2,5,7,5,4,1,-1,2021-08-07 12:21:20,515359
-3,-3,-2,2,-6,-3,-3,-1,2021-08-07 12:21:20,515359
1,3,-1,-2,5,2,1,1,2021-08-07 12:21:20,515359
-3,-3,-3,-10,-16,-8,-3,-1,2021-08-07 12:21:20,515359
-1,-3,-5,-7,-5,-3,-3,1,2021-08-07 12:21:20,531399
2,4,1,0,-4,-2,1,1,2021-08-07 12:21:20,531399
-1,-4,-4,-5,-4,-2,-4,-3,2021-08-07 12:21:20,531399
-1,-2,0,0,-1,-1,-2,-1,2021-08-07 12:21:20,531399
-3,-5,-1,-2,1,-1,-3,-2,2021-08-07 12:21:20,547363
3,7,2,-4,-6,-3,0,2,2021-08-07 12:21:20,562399
-3,-5,-3,0,-1,-1,-2,-2,2021-08-07 12:21:20,578360
-5,-3,-8,-6,-1,-4,-4,-3,2021-08-07 12:21:20,578360
0,1,1,0,0,3,2,1,2021-08-07 12:21:20,578360
-3,-6,0,4,4,1,-2,-4,2021-08-07 12:21:20,578360
2,4,2,-6,-15,-8,-2,0,2021-08-07 12:21:20,578360
-1,0,2,3,6,4,2,0,2021-08-07 12:21:20,578360
0,3,4,16,14,6,2,0,2021-08-07 12:21:20,593399
-1,-4,-7,-9,-5,-3,0,-1,2021-08-07 12:21:20,593399
0,-1,5,13,11,5,1,0,2021-08-07 12:21:20,593399
-2,-2,-5,-10,-14,-7,-4,-3,2021-08-07 12:21:20,593399
-2,-3,-1,-4,-8,-6,-2,-1,2021-08-07 12:21:20,609730
-4,-4,-7,-14,-10,-7,-4,-3,2021-08-07 12:21:20,625360
-1,0,1,7,3,0,-1,-1,2021-08-07 12:21:20,625360
0,1,0,-4,-1,-3,-1,-1,2021-08-07 12:21:20,625360
-1,1,-2,-1,0,1,0,0,2021-08-07 12:21:20,625360
-1,0,-2,0,-6,-1,0,-1,2021-08-07 12:21:20,625360
-7,-11,-7,-3,4,-1,-4,-6,2021-08-07 12:21:20,625360
6,12,14,16,9,4,3,4,2021-08-07 12:21:20,626360
0,-2,-4,-6,-5,-1,-1,1,2021-08-07 12:21:20,673397
-3,-1,0,1,1,-1,0,-1,2021-08-07 12:21:20,673397
0,-3,-2,-5,-1,1,1,-3,2021-08-07 12:21:20,673397
-4,-3,-2,1,-5,-4,-2,-4,2021-08-07 12:21:20,673397
3,6,3,6,4,2,1,0,2021-08-07 12:21:20,673397
-2,-4,-5,-10,-12,-4,-3,-3,2021-08-07 12:21:20,673397
-2,0,-3,-2,-2,-2,-2,-2,2021-08-07 12:21:20,674398
-1,-1,-2,1,4,1,1,-1,2021-08-07 12:21:20,674398
-4,-5,-4,-4,-1,-2,-2,-3,2021-08-07 12:21:20,685398
-1,0,0,-2,-6,-2,-1,0,2021-08-07 12:21:20,685398
-3,-2,2,-1,1,-1,-2,-2,2021-08-07 12:21:20,685398
-1,-5,-4,-6,-15,-9,-4,-2,2021-08-07 12:21:20,685398
