EMG 1,EMG 2,EMG 3,EMG 4,EMG 5,EMG 6,EMG 7,EMG 8,Timestamp,Milliseconds
5,2,7,10,10,7,4,4,2021-08-06 13:55:19,056988
-2,-1,5,-2,-3,-2,-3,-3,2021-08-06 13:55:19,072988
-7,-10,-16,-28,-26,-15,-10,-6,2021-08-06 13:55:19,072988
-3,-1,0,-1,-2,-4,-3,0,2021-08-06 13:55:19,072988
1,4,10,14,3,1,0,1,2021-08-06 13:55:19,072988
4,5,2,8,24,14,7,4,2021-08-06 13:55:19,072988
-1,-2,11,8,-1,-1,-1,-1,2021-08-06 13:55:19,072988
-1,-5,-34,-24,-9,-5,-3,-1,2021-08-06 13:55:19,072988
-7,-10,-9,-26,-20,-12,-9,-6,2021-08-06 13:55:19,072988
0,1,4,-5,-1,-4,-3,1,2021-08-06 13:55:19,072988
0,7,9,18,13,8,5,3,2021-08-06 13:55:19,088988
3,2,17,25,18,9,4,2,2021-08-06 13:55:19,104988
0,0,-1,3,2,3,2,1,2021-08-06 13:55:19,104988
-1,-2,-9,-20,-11,-5,-3,-3,2021-08-06 13:55:19,104988
2,6,14,14,4,-1,0,0,2021-08-06 13:55:19,104988
5,5,7,19,12,7,5,5,2021-08-06 13:55:19,104988
-1,2,19,8,1,-1,-1,-1,2021-08-06 13:55:19,104988
-3,-11,-38,-14,-24,-11,-5,-4,2021-08-06 13:55:19,104988
-6,-12,-26,-19,8,6,0,-2,2021-08-06 13:55:19,120988
-6,-2,25,-1,-5,-3,-3,-4,2021-08-06 13:55:19,120988
-6,-16,-83,-65,-30,-17,-8,-6,2021-08-06 13:55:19,120988
-4,-9,13,12,12,5,3,1,2021-08-06 13:55:19,120988
0,1,-8,-8,-5,-4,-1,-3,2021-08-06 13:55:19,136989
2,7,23,27,11,3,2,0,2021-08-06 13:55:19,152988
9,17,50,62,52,26,13,6,2021-08-06 13:55:19,152988
-2,0,-4,-31,-26,-12,-5,-5,2021-08-06 13:55:19,152988
-3,-4,-2,-5,-14,-9,-3,-2,2021-08-06 13:55:19,184989
-1,-2,-9,-2,7,3,-1,0,2021-08-06 13:55:19,184989
-2,-1,2,7,0,-2,-2,-3,2021-08-06 13:55:19,184989
4,5,7,5,3,3,1,3,2021-08-06 13:55:19,184989
2,-1,-15,-16,1,3,1,2,2021-08-06 13:55:19,184989
-4,-10,-14,-10,-10,-4,-2,-2,2021-08-06 13:55:19,184989
-9,-12,-11,-29,-16,-9,-7,-6,2021-08-06 13:55:19,200987
-6,-4,-3,3,-3,-3,-3,-2,2021-08-06 13:55:19,200987
1,5,8,16,11,1,0,0,2021-08-06 13:55:19,200987
5,6,11,9,0,3,4,3,2021-08-06 13:55:19,200987
6,9,6,20,25,14,9,5,2021-08-06 13:55:19,200987
-3,-3,0,-9,-11,-6,-4,-1,2021-08-06 13:55:19,200987
-3,-4,-3,-6,-7,-4,-2,-3,2021-08-06 13:55:19,216024
0,1,3,15,18,7,0,0,2021-08-06 13:55:19,231992
-2,-3,-2,-1,-5,-5,-2,-4,2021-08-06 13:55:19,247990
2,3,1,-2,-2,-2,0,0,2021-08-06 13:55:19,264039
-2,-4,-4,-5,-5,-4,-4,-1,2021-08-06 13:55:19,264039
-5,-5,-4,-21,-27,-15,-6,-6,2021-08-06 13:55:19,264039
2,0,-3,7,15,11,3,1,2021-08-06 13:55:19,264039
-3,-8,-8,1,8,3,1,-2,2021-08-06 13:55:19,264039
-1,1,-1,-10,-14,-4,-1,-3,2021-08-06 13:55:19,264039
5,9,23,26,21,10,6,2,2021-08-06 13:55:19,264990
-1,1,2,6,-4,-4,0,0,2021-08-06 13:55:19,264990
-2,-3,-9,2,-7,-4,-2,-2,2021-08-06 13:55:19,264990
0,1,1,-7,4,2,1,2,2021-08-06 13:55:19,264990
-8,-10,-22,-37,-44,-20,-11,-7,2021-08-06 13:55:19,264990
-3,-4,-1,0,19,7,0,-1,2021-08-06 13:55:19,293992
-3,-4,-8,-7,-4,-3,-3,-4,2021-08-06 13:55:19,309989
-2,-1,6,12,4,1,0,-2,2021-08-06 13:55:19,326038
1,4,2,4,-8,-7,-2,0,2021-08-06 13:55:19,326038
3,0,7,7,3,1,2,2,2021-08-06 13:55:19,326038
4,3,3,3,1,0,2,2,2021-08-06 13:55:19,326038
-3,-2,-6,2,-1,-1,-1,-1,2021-08-06 13:55:19,326038
-2,1,5,4,5,2,1,-2,2021-08-06 13:55:19,326989
-1,0,3,-9,-8,-3,-2,-3,2021-08-06 13:55:19,326989
-4,-3,-14,-4,-2,-2,-3,-3,2021-08-06 13:55:19,326989
2,-3,-5,-2,4,4,4,2,2021-08-06 13:55:19,326989
-1,-4,-3,-6,4,2,1,0,2021-08-06 13:55:19,326989
-3,-2,-5,-10,-24,-13,-4,-1,2021-08-06 13:55:19,357989
-2,2,11,7,5,1,-1,-3,2021-08-06 13:55:19,374035
-2,4,0,2,-2,-1,-2,-1,2021-08-06 13:55:19,374035
2,5,3,15,18,8,5,3,2021-08-06 13:55:19,374035
-3,-2,-4,-14,-25,-12,-5,-4,2021-08-06 13:55:19,374035
1,1,5,8,15,10,5,0,2021-08-06 13:55:19,374035
-3,-5,-3,7,4,3,-1,-4,2021-08-06 13:55:19,374035
-4,-6,-5,-7,-6,-5,-4,-3,2021-08-06 13:55:19,374035
-3,-1,-12,-18,-20,-12,-8,-4,2021-08-06 13:55:19,389990
-1,-2,-3,-3,1,0,1,1,2021-08-06 13:55:19,405990
0,0,6,5,7,4,1,-2,2021-08-06 13:55:19,420989
2,2,0,-1,-1,0,-1,0,2021-08-06 13:55:19,420989
0,-1,-5,1,-2,-2,0,-1,2021-08-06 13:55:19,420989
-6,-8,-10,-18,-20,-13,-8,-5,2021-08-06 13:55:19,420989
4,6,10,10,13,8,3,5,2021-08-06 13:55:19,420989
-3,-5,-5,-4,2,1,-1,-1,2021-08-06 13:55:19,420989
-1,1,1,10,9,4,2,1,2021-08-06 13:55:19,435989
-1,-3,-1,-9,-8,-5,-3,-2,2021-08-06 13:55:19,435989
-2,-2,-3,-5,-11,-10,-3,-2,2021-08-06 13:55:19,451988
-4,-5,-9,-13,-11,-6,-3,-4,2021-08-06 13:55:19,451988
4,5,7,15,28,15,7,3,2021-08-06 13:55:19,451988
5,5,8,11,16,8,6,3,2021-08-06 13:55:19,451988
1,0,-1,6,16,4,1,-2,2021-08-06 13:55:19,451988
-2,-3,-1,3,3,3,-1,1,2021-08-06 13:55:19,451988
-1,-2,-1,-2,-4,-5,-2,-1,2021-08-06 13:55:19,484023
-1,2,1,0,1,1,0,0,2021-08-06 13:55:19,484023
-2,-2,-4,-12,-15,-7,-4,-2,2021-08-06 13:55:19,484023
-2,-3,-2,2,5,2,1,-1,2021-08-06 13:55:19,484023
-1,-1,0,0,0,-1,0,-1,2021-08-06 13:55:19,498989
0,1,2,2,-4,-2,0,1,2021-08-06 13:55:19,514023
-4,-5,-4,-4,-9,-5,-3,-4,2021-08-06 13:55:19,514990
2,4,6,1,-2,-2,0,-1,2021-08-06 13:55:19,514990
-1,-3,-4,-10,-12,-7,-3,-3,2021-08-06 13:55:19,514990
2,2,2,11,14,9,5,3,2021-08-06 13:55:19,514990
-2,-7,-6,-9,-10,-6,-5,-4,2021-08-06 13:55:19,514990
4,5,2,6,9,5,3,2,2021-08-06 13:55:19,516026
1,1,1,-1,-4,-2,-1,0,2021-08-06 13:55:19,530024
-3,-2,-2,-3,-5,-4,-3,-1,2021-08-06 13:55:19,544991
-1,-1,-1,-8,-13,-5,-2,-2,2021-08-06 13:55:19,576039
-3,-5,-4,6,19,9,2,-1,2021-08-06 13:55:19,576039
-1,-1,-2,0,2,3,1,0,2021-08-06 13:55:19,576039
-2,0,-2,-3,-2,-2,-2,-2,2021-08-06 13:55:19,576039
-2,-1,0,1,0,0,-1,0,2021-08-06 13:55:19,576039
-1,-2,-1,-5,-12,-7,-3,-1,2021-08-06 13:55:19,576039
-5,-4,-7,-8,-12,-9,-6,-2,2021-08-06 13:55:19,576039
2,1,2,6,8,5,2,1,2021-08-06 13:55:19,576990
0,1,0,-5,-5,-2,0,-1,2021-08-06 13:55:19,576990
0,-2,0,3,2,0,1,0,2021-08-06 13:55:19,576990
1,-1,1,6,11,5,3,1,2021-08-06 13:55:19,592039
-4,-3,-5,-8,-12,-7,-5,-3,2021-08-06 13:55:19,607990
0,-1,-2,-5,-2,-2,-4,0,2021-08-06 13:55:19,623038
-3,-3,-4,-5,-10,-6,-1,-4,2021-08-06 13:55:19,623038
0,-1,2,0,-10,-3,-1,-1,2021-08-06 13:55:19,623038
-1,-1,0,-2,1,-1,0,0,2021-08-06 13:55:19,623038
1,0,3,-1,0,-1,-2,-2,2021-08-06 13:55:19,623038
-1,0,-8,0,5,3,-1,-1,2021-08-06 13:55:19,623038
-6,-10,-7,-1,-2,-2,-4,-5,2021-08-06 13:55:19,638988
2,5,1,-8,-14,-9,-2,0,2021-08-06 13:55:19,655015
5,6,8,17,29,17,8,5,2021-08-06 13:55:19,685028
-1,1,2,0,-4,-4,-4,-2,2021-08-06 13:55:19,685028
-1,-2,-4,-1,1,1,-2,0,2021-08-06 13:55:19,685028
-7,-10,-7,-12,-15,-10,-9,-6,2021-08-06 13:55:19,685028
0,-2,-2,-11,-14,-9,-2,-1,2021-08-06 13:55:19,685028
4,3,10,14,14,8,3,1,2021-08-06 13:55:19,685028
0,1,4,7,9,4,2,0,2021-08-06 13:55:19,685028
-1,-1,-1,0,0,2,0,-1,2021-08-06 13:55:19,686026
-2,-4,-6,-6,-11,-9,-4,-3,2021-08-06 13:55:19,686026
-2,-2,-4,-10,-7,-4,-1,-1,2021-08-06 13:55:19,686026
1,3,-1,-3,-3,-1,0,-1,2021-08-06 13:55:19,686026
0,-2,1,0,0,-2,-2,-1,2021-08-06 13:55:19,686026
-3,2,3,4,6,5,1,0,2021-08-06 13:55:19,700504
-1,-1,-2,-6,-9,-5,-3,-1,2021-08-06 13:55:19,700504
0,-1,0,-1,-2,0,0,0,2021-08-06 13:55:19,716541
-3,-4,-7,-11,-15,-9,-5,-4,2021-08-06 13:55:19,716541
4,2,5,16,23,14,6,4,2021-08-06 13:55:19,716541
-2,-1,1,4,4,3,-2,0,2021-08-06 13:55:19,716541
-3,-4,-3,-5,-7,-5,-3,-2,2021-08-06 13:55:19,732502
4,3,4,9,16,10,6,3,2021-08-06 13:55:19,748504
-6,-6,-9,-16,-26,-17,-8,-6,2021-08-06 13:55:19,748504
4,4,6,11,13,8,6,4,2021-08-06 13:55:19,748504
-1,-2,-1,1,1,1,0,-2,2021-08-06 13:55:19,748504
-5,-5,-5,-8,-6,-4,-4,-3,2021-08-06 13:55:19,748504
1,2,3,5,2,0,-1,1,2021-08-06 13:55:19,764503
0,0,-2,-14,-18,-12,-6,-1,2021-08-06 13:55:19,764503
-1,-3,-5,-9,-5,0,-2,-1,2021-08-06 13:55:19,764503
3,7,13,38,51,28,12,4,2021-08-06 13:55:19,764503
0,2,0,0,-1,0,1,-1,2021-08-06 13:55:19,779503
-3,-3,-3,-4,-6,-5,-1,-5,2021-08-06 13:55:19,794505
0,-2,-2,-12,-16,-8,-4,-1,2021-08-06 13:55:19,809503
-1,-2,-3,-11,-12,-6,-6,-2,2021-08-06 13:55:19,824553
-2,-5,-3,-2,3,3,0,-2,2021-08-06 13:55:19,856503
-2,-1,-2,1,-4,-3,-1,-3,2021-08-06 13:55:19,872540
-1,-1,-1,4,6,2,1,1,2021-08-06 13:55:19,872540
0,2,4,-1,-4,-1,1,0,2021-08-06 13:55:19,872540
-2,-2,-3,-6,-13,-7,-3,-3,2021-08-06 13:55:19,876552
0,-3,1,5,10,4,1,0,2021-08-06 13:55:19,876552
2,2,4,6,10,4,3,3,2021-08-06 13:55:19,876552
-1,-3,-4,-9,-17,-9,-5,-1,2021-08-06 13:55:19,876552
0,1,0,3,14,8,1,2,2021-08-06 13:55:19,876552
-1,-2,-3,-5,-9,-3,-2,-1,2021-08-06 13:55:19,877504
0,2,5,11,15,7,2,1,2021-08-06 13:55:19,877504
-6,-6,-7,-7,-11,-8,-3,-4,2021-08-06 13:55:19,877504
2,3,3,0,-2,-2,3,2,2021-08-06 13:55:19,877504
-2,-1,-3,-7,-5,-2,-3,-2,2021-08-06 13:55:19,877504
0,0,-1,-6,-11,-7,-4,-2,2021-08-06 13:55:19,877504
2,2,2,11,17,10,4,1,2021-08-06 13:55:19,877504
-5,-4,-4,-3,-5,-4,-3,-3,2021-08-06 13:55:19,877504
-1,-3,-3,-4,-2,-3,-3,-1,2021-08-06 13:55:19,877504
1,3,2,5,2,0,1,-1,2021-08-06 13:55:19,888552
-3,-4,-5,-10,-11,-4,-3,-3,2021-08-06 13:55:19,888552
0,-1,-1,5,6,3,1,3,2021-08-06 13:55:19,888552
-2,-1,-1,0,0,-1,-3,-4,2021-08-06 13:55:19,888552
-1,-1,1,-3,-2,-1,1,0,2021-08-06 13:55:19,920503
-2,-4,-3,-5,-5,-3,-2,-2,2021-08-06 13:55:19,920503
-1,-2,0,-2,-3,-2,-2,-2,2021-08-06 13:55:19,920503
-6,-4,-5,-16,-26,-12,-3,-5,2021-08-06 13:55:19,920503
5,6,8,24,40,18,5,4,2021-08-06 13:55:19,920503
1,2,1,4,5,3,0,0,2021-08-06 13:55:19,920503
-1,-2,-3,-3,-4,-3,0,0,2021-08-06 13:55:19,936502
-4,-3,-3,-3,-2,-2,-3,-1,2021-08-06 13:55:19,936502
-4,-4,-4,-9,-18,-8,-5,-4,2021-08-06 13:55:19,952504
0,0,-2,-1,-2,-4,-3,-2,2021-08-06 13:55:19,968804
-1,-2,-4,-7,-5,-3,-3,-1,2021-08-06 13:55:19,968804
3,2,1,6,9,2,1,1,2021-08-06 13:55:19,968804
-2,-2,-2,-8,-9,-3,-1,-1,2021-08-06 13:55:19,968804
-1,-1,2,6,8,3,0,0,2021-08-06 13:55:19,968804
0,0,-1,-2,-5,1,2,-1,2021-08-06 13:55:19,968804
2,2,4,13,18,10,5,1,2021-08-06 13:55:19,968804
-2,-4,-5,-4,-8,-4,0,0,2021-08-06 13:55:20,000053
-1,-1,0,-3,-7,-3,-2,-1,2021-08-06 13:55:20,016064
-3,-2,-2,-2,-3,-6,-3,-3,2021-08-06 13:55:20,032020
-2,-3,-5,-10,-9,-5,-4,-1,2021-08-06 13:55:20,032020
0,1,0,2,6,3,1,-1,2021-08-06 13:55:20,032020
-1,-2,-4,-6,-8,-3,-1,0,2021-08-06 13:55:20,032020
1,2,2,3,5,4,1,0,2021-08-06 13:55:20,048056
0,-1,2,2,0,1,1,0,2021-08-06 13:55:20,048056
-3,-3,-5,-6,-7,-7,-5,-1,2021-08-06 13:55:20,048056
-1,-4,-4,-9,-7,-6,-1,-1,2021-08-06 13:55:20,048056
0,2,2,1,5,3,1,0,2021-08-06 13:55:20,048056
-1,0,0,4,6,3,1,-1,2021-08-06 13:55:20,048056
-2,-4,-3,-5,-3,0,-4,-3,2021-08-06 13:55:20,064016
1,2,1,2,2,1,-1,1,2021-08-06 13:55:20,080053
-5,-4,-6,-5,-12,-11,-6,-5,2021-08-06 13:55:20,096053
1,2,0,-9,-18,-7,-1,1,2021-08-06 13:55:20,096053
3,2,6,21,32,16,8,2,2021-08-06 13:55:20,096053
-3,-1,-5,-5,-9,-6,-2,-3,2021-08-06 13:55:20,096053
-2,-4,-3,-9,-5,-2,-3,-2,2021-08-06 13:55:20,096692
-2,0,0,4,5,-2,-2,-3,2021-08-06 13:55:20,096692
1,0,-1,-3,-6,-1,-1,0,2021-08-06 13:55:20,096692
0,1,4,6,8,6,3,-1,2021-08-06 13:55:20,096692
-1,-2,-5,-5,-8,-7,-3,-2,2021-08-06 13:55:20,097019
-1,-1,-1,-4,-5,-4,-3,-2,2021-08-06 13:55:20,097019
0,-1,-3,-7,-9,-3,-3,0,2021-08-06 13:55:20,111035
-1,0,1,3,0,1,-1,0,2021-08-06 13:55:20,126066
-1,-2,1,5,5,3,1,-1,2021-08-06 13:55:20,156034
-3,-6,-4,-4,-3,-2,-2,0,2021-08-06 13:55:20,171072
0,3,0,-2,-8,-5,-1,-1,2021-08-06 13:55:20,187035
0,-3,-2,-4,-3,-2,-2,-1,2021-08-06 13:55:20,187035
0,1,0,-3,-6,-3,-1,0,2021-08-06 13:55:20,187035
3,4,5,14,19,10,4,1,2021-08-06 13:55:20,187035
-1,-3,-2,-3,-1,-2,-3,-2,2021-08-06 13:55:20,187035
-3,-4,-4,-3,-5,-1,-1,-3,2021-08-06 13:55:20,187035
0,0,2,2,1,1,-1,-1,2021-08-06 13:55:20,187035
-3,-3,-6,-10,-8,-7,-4,-3,2021-08-06 13:55:20,187035
1,2,2,6,11,7,3,3,2021-08-06 13:55:20,187035
1,0,0,-1,0,-3,-1,-2,2021-08-06 13:55:20,187035
-1,-2,-1,5,7,3,1,0,2021-08-06 13:55:20,188037
1,2,3,4,5,6,2,1,2021-08-06 13:55:20,188037
-5,-6,-7,-13,-18,-11,-7,-3,2021-08-06 13:55:20,203034
-2,-1,-2,-3,-11,-6,-2,-2,2021-08-06 13:55:20,219036
5,6,7,15,33,18,9,6,2021-08-06 13:55:20,235036
-2,-2,-4,-7,-11,-6,-1,-2,2021-08-06 13:55:20,235036
-2,-1,0,2,10,3,0,-2,2021-08-06 13:55:20,235036
-1,-2,-1,0,-1,-1,-2,0,2021-08-06 13:55:20,235036
-2,-2,-2,-1,-8,-4,-2,-2,2021-08-06 13:55:20,235036
1,1,1,-1,-2,-3,-1,0,2021-08-06 13:55:20,235036
-3,-2,-2,-1,-8,-2,0,-2,2021-08-06 13:55:20,235036
1,0,0,0,2,0,0,0,2021-08-06 13:55:20,236036
1,1,2,4,9,6,4,2,2021-08-06 13:55:20,236036
-2,-4,-4,0,3,2,0,-1,2021-08-06 13:55:20,236036
1,1,2,-2,-9,-4,-1,-2,2021-08-06 13:55:20,267086
-1,1,2,3,5,1,1,-1,2021-08-06 13:55:20,283035
-5,-4,-3,-7,-10,-8,-6,-5,2021-08-06 13:55:20,283035
-1,-1,-1,0,0,-2,-2,-1,2021-08-06 13:55:20,283035
-3,-1,-5,-11,-11,-9,-5,-4,2021-08-06 13:55:20,283035
0,0,-1,4,2,2,1,0,2021-08-06 13:55:20,283035
-1,0,1,1,-2,-3,-1,0,2021-08-06 13:55:20,283035
4,4,4,11,19,12,5,5,2021-08-06 13:55:20,283035
-1,-1,-1,1,-2,-3,0,-1,2021-08-06 13:55:20,299071
0,1,0,0,4,2,1,2,2021-08-06 13:55:20,299071
-2,-4,-4,-12,-20,-10,-4,-2,2021-08-06 13:55:20,299071
-3,-4,-1,-1,-1,-2,-1,-3,2021-08-06 13:55:20,299071
-2,-3,-6,-7,-7,-4,-2,-2,2021-08-06 13:55:20,330705
1,1,2,8,10,6,2,0,2021-08-06 13:55:20,346693
2,-1,-3,-1,0,-1,-2,0,2021-08-06 13:55:20,362693
-1,-2,-2,-8,-11,-6,-1,-2,2021-08-06 13:55:20,362693
-4,-6,-3,-7,-11,-9,-4,-3,2021-08-06 13:55:20,362693
1,2,3,6,20,11,4,2,2021-08-06 13:55:20,362693
-1,-5,-3,2,4,2,0,-3,2021-08-06 13:55:20,362693
1,2,1,4,4,2,0,-3,2021-08-06 13:55:20,362693
0,2,2,0,1,-1,0,-1,2021-08-06 13:55:20,362693
-3,-2,-2,-8,-11,-7,-4,-2,2021-08-06 13:55:20,363693
-1,0,-3,-3,-6,-3,-3,0,2021-08-06 13:55:20,363693
-5,-7,-9,-13,-13,-10,-5,-5,2021-08-06 13:55:20,363693
2,1,4,7,10,9,2,2,2021-08-06 13:55:20,378657
0,0,-2,-5,-10,-5,-4,-1,2021-08-06 13:55:20,394657
1,3,4,7,7,5,0,0,2021-08-06 13:55:20,409659
-3,-2,-3,-8,-13,-9,-4,-4,2021-08-06 13:55:20,409659
0,0,-1,0,-2,-3,-1,-2,2021-08-06 13:55:20,409659
-1,-2,1,9,15,6,3,1,2021-08-06 13:55:20,425656
2,1,0,-2,-2,-1,1,0,2021-08-06 13:55:20,441706
0,1,-1,4,3,3,0,0,2021-08-06 13:55:20,441706
1,-1,-2,-1,-2,-2,-3,-1,2021-08-06 13:55:20,441706
-3,-5,-3,-7,-10,-8,-4,-3,2021-08-06 13:55:20,441706
-2,-2,-4,-5,-7,-4,-2,-1,2021-08-06 13:55:20,441706
1,1,3,1,-2,2,0,-1,2021-08-06 13:55:20,441706
-1,-1,0,7,16,9,2,0,2021-08-06 13:55:20,441706
-2,-2,-2,-5,-7,-6,-3,-2,2021-08-06 13:55:20,442706
-1,-1,-1,0,0,-1,-1,-2,2021-08-06 13:55:20,442706
-1,-3,-4,-4,-7,-4,-4,-3,2021-08-06 13:55:20,442706
-1,0,-1,-2,-2,1,0,-1,2021-08-06 13:55:20,457700
-1,-1,1,-4,-6,-4,-2,-1,2021-08-06 13:55:20,473658
-2,-4,-5,0,5,0,-4,-3,2021-08-06 13:55:20,473658
0,-1,-1,-2,-2,0,-1,0,2021-08-06 13:55:20,489677
5,7,8,13,17,11,6,4,2021-08-06 13:55:20,489677
0,-1,-3,-3,-4,-1,-2,-1,2021-08-06 13:55:20,489677
-1,-1,-1,-3,-6,-2,0,-1,2021-08-06 13:55:20,489677
-4,-3,-2,-1,1,-2,0,-3,2021-08-06 13:55:20,489677
-3,-3,-5,-6,-6,-6,-3,-2,2021-08-06 13:55:20,505655
-3,-2,-3,-1,-5,-3,-2,-1,2021-08-06 13:55:20,521693
-1,1,2,3,1,1,-1,0,2021-08-06 13:55:20,537683
2,1,-2,1,0,0,-1,3,2021-08-06 13:55:20,537683
-1,-1,-3,-5,-4,-2,-1,-2,2021-08-06 13:55:20,537683
3,1,0,-1,1,0,0,0,2021-08-06 13:55:20,537683
-2,-4,-4,-3,-7,-5,-3,-4,2021-08-06 13:55:20,537683
1,1,3,7,5,4,2,2,2021-08-06 13:55:20,537683
0,-2,0,5,2,2,0,0,2021-08-06 13:55:20,537683
-3,0,-2,-6,-2,-3,-3,-2,2021-08-06 13:55:20,538683
-2,0,-1,0,3,1,1,-1,2021-08-06 13:55:20,538683
0,-1,-1,-2,-2,-3,-3,-1,2021-08-06 13:55:20,538683
-4,-6,-5,-11,-19,-11,-5,-4,2021-08-06 13:55:20,569660
2,2,7,7,12,7,4,1,2021-08-06 13:55:20,585657
-1,1,3,0,-2,1,0,-1,2021-08-06 13:55:20,601696
-3,-7,-10,-3,2,2,-2,-1,2021-08-06 13:55:20,601696
-4,-5,-4,-7,-7,-5,-3,-4,2021-08-06 13:55:20,601696
-2,-1,-3,-7,-14,-8,-4,-1,2021-08-06 13:55:20,601696
1,2,3,1,1,-2,-1,0,2021-08-06 13:55:20,601696
1,2,3,3,4,2,0,-2,2021-08-06 13:55:20,601696
0,1,0,1,1,0,-1,0,2021-08-06 13:55:20,601696
-1,-3,-1,-1,-3,-2,-1,-1,2021-08-06 13:55:20,602657
-1,-1,-2,-2,-2,-3,-1,-1,2021-08-06 13:55:20,602657
-1,-2,-1,-3,-6,-2,-1,-1,2021-08-06 13:55:20,602657
0,1,0,-2,-1,1,-2,-1,2021-08-06 13:55:20,617708
0,1,3,8,10,5,2,-1,2021-08-06 13:55:20,617708
2,-1,-1,1,0,2,0,1,2021-08-06 13:55:20,617708
-2,-2,-3,-3,-1,-2,-1,0,2021-08-06 13:55:20,617708
-2,-3,-5,-11,-18,-11,-6,-4,2021-08-06 13:55:20,649696
1,0,2,7,9,7,3,1,2021-08-06 13:55:20,665705
-4,-4,-4,-11,-14,-9,-6,-4,2021-08-06 13:55:20,697657
0,3,6,12,10,5,3,2,2021-08-06 13:55:20,697657
4,4,8,23,31,19,9,5,2021-08-06 13:55:20,697657
-2,-2,-6,-8,-15,-9,-4,-2,2021-08-06 13:55:20,697657
-3,-4,-5,-9,-9,-6,-2,-3,2021-08-06 13:55:20,697657
-6,-6,-5,-10,-20,-13,-9,-5,2021-08-06 13:55:20,697657
2,5,6,4,10,7,4,4,2021-08-06 13:55:20,698656
-1,-1,-1,-4,-2,2,1,0,2021-08-06 13:55:20,698656
-2,0,-4,-6,-11,-5,-2,-1,2021-08-06 13:55:20,698656
-2,-3,-1,4,15,8,3,1,2021-08-06 13:55:20,698656
3,4,6,12,13,5,2,2,2021-08-06 13:55:20,698656
0,0,0,-8,-23,-13,-5,-3,2021-08-06 13:55:20,698656
4,5,8,17,28,17,7,4,2021-08-06 13:55:20,698656
-4,-2,-2,2,6,3,1,-3,2021-08-06 13:55:20,698656
-6,-11,-16,-25,-33,-21,-9,-6,2021-08-06 13:55:20,713692
1,0,-4,-8,-15,-6,-1,0,2021-08-06 13:55:20,713692
-3,-2,0,-1,-2,-4,-5,-2,2021-08-06 13:55:20,729705
3,5,9,6,0,2,0,3,2021-08-06 13:55:20,744661
-1,-1,3,13,16,6,0,-2,2021-08-06 13:55:20,759658
-3,-5,-11,-15,-13,-6,-2,-1,2021-08-06 13:55:20,775657
6,8,6,10,11,7,5,5,2021-08-06 13:55:20,775657
0,-1,1,-1,2,1,2,0,2021-08-06 13:55:20,775657
-6,-7,-8,-12,-17,-9,-8,-6,2021-08-06 13:55:20,775657
2,-2,3,9,15,8,4,2,2021-08-06 13:55:20,775657
4,5,9,19,16,9,4,3,2021-08-06 13:55:20,775657
-3,-6,-6,-4,1,-1,-4,-4,2021-08-06 13:55:20,775657
5,8,2,-7,-8,0,5,5,2021-08-06 13:55:20,775657
-9,-8,-10,-19,-22,-15,-9,-7,2021-08-06 13:55:20,776657
0,-3,-3,-7,-3,-2,1,0,2021-08-06 13:55:20,776657
-2,-1,-4,-12,-23,-13,-6,-3,2021-08-06 13:55:20,776657
1,0,5,22,39,22,9,2,2021-08-06 13:55:20,807658
1,2,4,13,18,10,2,2,2021-08-06 13:55:20,807658
-5,-7,-7,-9,-21,-12,-5,-4,2021-08-06 13:55:20,807658
4,5,3,13,19,10,5,2,2021-08-06 13:55:20,807658
-4,-4,-6,-14,-19,-10,-6,-6,2021-08-06 13:55:20,823692
1,1,2,5,6,0,2,2,2021-08-06 13:55:20,823692
-3,-3,-3,-5,-10,-7,-7,-3,2021-08-06 13:55:20,823692
-1,-1,0,-1,-1,-2,-1,0,2021-08-06 13:55:20,823692
-2,-4,-5,-4,-6,-4,-3,-1,2021-08-06 13:55:20,855706
1,3,3,4,5,4,1,1,2021-08-06 13:55:20,855706
1,0,-2,-8,-12,-6,-1,-1,2021-08-06 13:55:20,855706
2,1,6,5,7,4,4,1,2021-08-06 13:55:20,855706
-2,0,-2,5,0,-3,-1,-1,2021-08-06 13:55:20,855706
-3,-4,-6,-2,1,-1,-1,-3,2021-08-06 13:55:20,855706
-6,-7,-12,-22,-21,-12,-6,-5,2021-08-06 13:55:20,855706
-1,0,-4,-16,-23,-11,-7,0,2021-08-06 13:55:20,855706
0,-1,5,7,12,5,1,-2,2021-08-06 13:55:20,887682
2,3,4,9,10,8,2,2,2021-08-06 13:55:20,887682
0,0,3,12,16,10,2,-1,2021-08-06 13:55:20,887682
0,-1,0,0,2,1,0,-1,2021-08-06 13:55:20,887682
-2,-4,-6,-9,-14,-8,-4,-3,2021-08-06 13:55:20,903694
-1,-1,-1,-2,1,-3,-2,-1,2021-08-06 13:55:20,903694
0,2,2,0,1,1,1,0,2021-08-06 13:55:20,903694
-2,-3,-4,-3,-7,-4,-2,-2,2021-08-06 13:55:20,903694
0,0,-1,3,2,3,0,0,2021-08-06 13:55:20,919660
-3,-2,-1,0,1,1,1,-3,2021-08-06 13:55:20,919660
-3,-4,-1,0,0,-3,-3,-3,2021-08-06 13:55:20,919660
3,2,3,8,15,8,3,3,2021-08-06 13:55:20,919660
-2,-3,-3,-9,-13,-8,-5,-2,2021-08-06 13:55:20,950706
-3,-3,-4,-8,-12,-9,-4,-4,2021-08-06 13:55:20,950706
-2,-4,-2,-3,-1,-3,-2,-4,2021-08-06 13:55:20,950706
1,0,-3,-3,-2,1,0,-1,2021-08-06 13:55:20,950706
3,4,5,7,15,9,5,3,2021-08-06 13:55:20,950706
-1,0,1,1,1,-1,-2,-1,2021-08-06 13:55:20,950706
-2,0,1,3,6,4,1,1,2021-08-06 13:55:20,975692
-3,-2,-3,-5,-6,-3,-2,-2,2021-08-06 13:55:20,975692
-1,-1,-2,-6,-12,-5,-3,-1,2021-08-06 13:55:20,975692
0,0,-2,-2,-1,-2,-3,-1,2021-08-06 13:55:20,975692
2,1,0,4,8,4,2,2,2021-08-06 13:55:20,976679
-5,-5,-5,-7,-9,-3,-3,-2,2021-08-06 13:55:20,976679
0,-1,-1,-2,-5,-3,1,0,2021-08-06 13:55:21,013683
6,9,10,13,14,9,4,4,2021-08-06 13:55:21,013683
-3,-3,-2,-5,-4,-5,0,-3,2021-08-06 13:55:21,013683
0,2,2,5,4,2,1,2,2021-08-06 13:55:21,013683
-4,-3,0,-1,-2,-4,-2,-2,2021-08-06 13:55:21,013683
-5,-5,-8,-9,-9,-4,-5,-5,2021-08-06 13:55:21,013683
-1,-1,-6,-8,-11,-6,-3,-2,2021-08-06 13:55:21,029659
-3,-3,-6,-12,-13,-11,-4,-4,2021-08-06 13:55:21,044659
1,1,4,12,15,11,5,2,2021-08-06 13:55:21,044659
1,0,3,-3,-6,-2,-1,-2,2021-08-06 13:55:21,044659
-3,-5,-5,-6,-12,-4,-4,-3,2021-08-06 13:55:21,044659
5,7,6,17,30,12,8,4,2021-08-06 13:55:21,044659
-2,-2,-3,-8,-10,-7,-5,-3,2021-08-06 13:55:21,060695
0,0,0,2,4,2,1,1,2021-08-06 13:55:21,060695
-3,-4,-4,-5,-9,-6,-5,-4,2021-08-06 13:55:21,060695
-2,-1,-2,-7,-11,-4,-4,-1,2021-08-06 13:55:21,060695
-1,1,-2,-2,1,-1,-3,-1,2021-08-06 13:55:21,076693
-2,-1,-1,2,3,0,0,0,2021-08-06 13:55:21,076693
-1,-1,0,2,5,1,1,0,2021-08-06 13:55:21,092693
-3,-1,-3,0,-1,-2,-1,0,2021-08-06 13:55:21,108706
0,1,1,2,2,1,-1,0,2021-08-06 13:55:21,108706
-2,-3,-4,-7,-10,-4,-2,-2,2021-08-06 13:55:21,108706
0,1,2,4,6,4,1,1,2021-08-06 13:55:21,108706
1,-1,0,0,-5,-1,-1,-1,2021-08-06 13:55:21,108706
-1,-4,-5,-8,-7,-4,-1,0,2021-08-06 13:55:21,124655
-2,-4,-4,-2,1,2,1,0,2021-08-06 13:55:21,139835
1,-1,1,6,9,5,1,0,2021-08-06 13:55:21,155868
-1,-1,2,0,-2,1,-1,1,2021-08-06 13:55:21,155868
-1,0,1,2,-2,-3,-3,-2,2021-08-06 13:55:21,155868
0,0,2,0,1,-1,-2,0,2021-08-06 13:55:21,155868
1,1,0,0,-1,-2,0,1,2021-08-06 13:55:21,155868
-3,-5,-5,-7,-6,-3,-3,-3,2021-08-06 13:55:21,155868
3,4,3,6,6,3,3,1,2021-08-06 13:55:21,155868
0,0,-1,0,3,1,1,1,2021-08-06 13:55:21,155868
-1,-1,-1,0,-1,-1,0,0,2021-08-06 13:55:21,155868
-4,-3,-2,-4,-6,-5,-1,0,2021-08-06 13:55:21,156833
-4,-3,-3,-5,-6,-5,-2,-3,2021-08-06 13:55:21,186830
-3,-2,-2,0,2,0,-1,-2,2021-08-06 13:55:21,186830
1,2,-2,-2,-2,1,-1,0,2021-08-06 13:55:21,186830
0,-1,0,0,1,0,-1,-1,2021-08-06 13:55:21,186830
0,0,0,-2,-1,-1,-1,0,2021-08-06 13:55:21,202831
-2,-3,-3,1,-1,-2,-2,-2,2021-08-06 13:55:21,202831
0,-1,1,-1,1,2,1,0,2021-08-06 13:55:21,202831
0,2,0,2,2,1,1,2,2021-08-06 13:55:21,202831
-5,-3,-5,-9,-10,-5,-4,-3,2021-08-06 13:55:21,218830
-1,-3,-5,-5,-6,-4,-2,-1,2021-08-06 13:55:21,218830
1,0,3,5,5,3,1,1,2021-08-06 13:55:21,218830
1,3,3,4,3,3,0,1,2021-08-06 13:55:21,218830
-3,-3,-3,-4,-7,-5,-1,0,2021-08-06 13:55:21,250831
-3,-3,-3,-10,-13,-9,-6,-2,2021-08-06 13:55:21,266868
-7,-6,-6,-5,-3,-3,-2,-3,2021-08-06 13:55:21,282832
3,6,8,7,8,6,3,1,2021-08-06 13:55:21,298831
1,0,0,3,4,3,1,0,2021-08-06 13:55:21,314830
-1,-1,1,3,5,1,2,0,2021-08-06 13:55:21,314830
-3,1,0,0,0,-3,-3,-2,2021-08-06 13:55:21,314830
-3,-4,-6,-11,-16,-9,-6,-1,2021-08-06 13:55:21,314830
1,0,-1,1,5,6,1,1,2021-08-06 13:55:21,314830
1,1,1,4,8,4,1,0,2021-08-06 13:55:21,314830
-1,-2,-3,-6,-5,-4,-3,0,2021-08-06 13:55:21,314830
-1,-3,-1,8,16,8,2,-1,2021-08-06 13:55:21,314830
2,3,3,4,4,3,2,1,2021-08-06 13:55:21,315868
2,1,1,-2,-6,-2,-1,0,2021-08-06 13:55:21,315868
0,0,1,3,4,1,1,-1,2021-08-06 13:55:21,315868
-5,-7,-8,-9,-9,-7,-5,-3,2021-08-06 13:55:21,315868
-5,-7,-5,-5,-5,-4,-5,-4,2021-08-06 13:55:21,315868
0,3,3,5,3,2,0,2,2021-08-06 13:55:21,315868
0,1,0,3,3,1,0,0,2021-08-06 13:55:21,330882
3,4,3,3,0,1,1,1,2021-08-06 13:55:21,330882
-2,-3,-2,-4,-4,-5,-1,-3,2021-08-06 13:55:21,340859
-5,-4,-3,-3,-3,-2,-2,-2,2021-08-06 13:55:21,346868
2,2,2,1,1,0,1,1,2021-08-06 13:55:21,362428
-1,-3,-3,-4,-5,-3,0,-3,2021-08-06 13:55:21,362428
-1,-1,-2,-4,-1,-4,-2,-1,2021-08-06 13:55:21,362428
-3,-2,-3,-1,1,-1,0,0,2021-08-06 13:55:21,362428
0,-2,0,1,-3,-1,1,-1,2021-08-06 13:55:21,362428
0,-1,1,5,6,4,0,-1,2021-08-06 13:55:21,362428
-2,-2,-1,-4,-4,-1,-2,0,2021-08-06 13:55:21,378465
-1,-1,-2,-7,-9,-6,-5,-1,2021-08-06 13:55:21,394427
-2,-3,-2,-2,-2,-3,-2,-1,2021-08-06 13:55:21,409430
0,0,2,1,2,2,3,1,2021-08-06 13:55:21,409430
-1,-1,3,8,6,3,0,-1,2021-08-06 13:55:21,409430
2,-1,-1,2,1,1,0,0,2021-08-06 13:55:21,409430
-3,-4,-3,-5,-5,-3,-2,-3,2021-08-06 13:55:21,409430
0,1,0,-6,-8,-6,-4,-3,2021-08-06 13:55:21,409430
1,1,0,1,-2,0,1,1,2021-08-06 13:55:21,424427
0,0,0,1,1,0,3,0,2021-08-06 13:55:21,439479
1,0,-1,-1,2,0,-1,-1,2021-08-06 13:55:21,439479
-3,-7,-5,-6,-4,-3,-3,-3,2021-08-06 13:55:21,439479
-1,-2,0,-6,-6,-5,-3,0,2021-08-06 13:55:21,439479
1,1,1,3,1,2,1,0,2021-08-06 13:55:21,439479
0,-1,0,1,4,2,0,0,2021-08-06 13:55:21,439479
0,-1,-2,4,6,3,1,1,2021-08-06 13:55:21,439479
0,-1,-1,-2,1,0,1,1,2021-08-06 13:55:21,471425
-3,-2,-3,-4,-3,-1,-1,-3,2021-08-06 13:55:21,487469
-1,-1,-2,-4,-4,-4,-2,-1,2021-08-06 13:55:21,487469
-2,-2,-1,-3,-2,-1,-3,-3,2021-08-06 13:55:21,487469
-1,0,-2,-1,-2,-1,-1,0,2021-08-06 13:55:21,487469
0,1,1,3,3,2,0,1,2021-08-06 13:55:21,487469
-1,0,-2,-2,-5,-2,0,0,2021-08-06 13:55:21,487469
-1,-2,-3,-7,-12,-8,-4,-1,2021-08-06 13:55:21,503474
-1,-1,-2,5,10,6,2,0,2021-08-06 13:55:21,519427
0,-1,0,1,4,1,-1,-1,2021-08-06 13:55:21,519427
0,-1,0,-2,-6,-3,-2,0,2021-08-06 13:55:21,519427
0,-1,1,2,2,0,1,1,2021-08-06 13:55:21,519427
-3,-1,0,-4,-7,-3,-3,-2,2021-08-06 13:55:21,519427
-1,-1,0,-1,1,0,-2,-2,2021-08-06 13:55:21,519427
-2,-1,-1,-1,-1,-1,-1,-3,2021-08-06 13:55:21,519427
-2,0,-4,-3,-6,-5,-3,-2,2021-08-06 13:55:21,520462
1,-2,-3,1,0,0,-2,-1,2021-08-06 13:55:21,549425
-2,0,0,2,4,2,0,0,2021-08-06 13:55:21,565476
-1,0,0,1,1,0,0,0,2021-08-06 13:55:21,581449
-1,-2,0,1,1,2,-1,0,2021-08-06 13:55:21,581449
-2,-3,-2,-2,-1,-2,-1,-2,2021-08-06 13:55:21,581449
-1,-2,-1,-7,-7,-4,-2,-2,2021-08-06 13:55:21,581449
1,4,3,3,4,3,1,0,2021-08-06 13:55:21,581449
-1,1,1,0,1,1,2,1,2021-08-06 13:55:21,581449
-2,0,0,3,1,-2,-1,-1,2021-08-06 13:55:21,582462
-3,-3,-6,-4,-6,-4,-4,-1,2021-08-06 13:55:21,582462
-3,-1,-2,-1,0,1,0,-1,2021-08-06 13:55:21,582462
-2,0,-1,-2,-1,-1,-1,-2,2021-08-06 13:55:21,582462
-2,0,0,-1,-1,-1,-3,-2,2021-08-06 13:55:21,612428
1,2,1,2,1,-1,1,0,2021-08-06 13:55:21,612428
1,0,1,5,4,3,0,1,2021-08-06 13:55:21,612428
-3,-4,-5,-7,-10,-9,-3,-3,2021-08-06 13:55:21,612428
0,-1,-2,1,2,0,1,0,2021-08-06 13:55:21,628428
-1,0,0,1,1,2,0,0,2021-08-06 13:55:21,628428
-3,-1,-3,-3,-3,-3,-2,0,2021-08-06 13:55:21,628428
0,0,1,2,1,2,1,1,2021-08-06 13:55:21,628428
0,0,0,-3,-7,-4,-1,0,2021-08-06 13:55:21,644428
-2,-2,-3,-4,-4,-4,0,-1,2021-08-06 13:55:21,660426
-2,-1,-1,1,2,-1,0,0,2021-08-06 13:55:21,675428
-2,-1,-2,-5,-2,0,-1,-2,2021-08-06 13:55:21,691465
-3,-3,-2,-5,-4,-3,-2,-3,2021-08-06 13:55:21,706427
0,1,0,-4,-5,-3,-1,-1,2021-08-06 13:55:21,706427
-1,-2,1,5,14,8,2,1,2021-08-06 13:55:21,707427
2,0,2,7,8,3,2,2,2021-08-06 13:55:21,707427
1,1,0,2,1,0,0,0,2021-08-06 13:55:21,707427
-1,-4,-3,-1,-1,-3,-2,-4,2021-08-06 13:55:21,707427
-1,-3,-4,-7,-9,-6,-2,-2,2021-08-06 13:55:21,707427
-2,-2,0,0,0,0,-1,-2,2021-08-06 13:55:21,707427
-2,-1,1,-2,0,1,0,0,2021-08-06 13:55:21,707427
-1,-1,-3,-3,-5,-4,-2,-2,2021-08-06 13:55:21,707427
0,1,1,1,1,-1,-1,0,2021-08-06 13:55:21,708428
0,1,1,2,3,0,1,0,2021-08-06 13:55:21,708428
-1,-3,-3,-7,-13,-7,-4,-3,2021-08-06 13:55:21,723456
1,1,4,10,14,8,2,3,2021-08-06 13:55:21,723456
1,0,0,-3,-8,-5,-1,1,2021-08-06 13:55:21,723456
0,-2,-1,0,3,1,-1,1,2021-08-06 13:55:21,723456
-3,-3,-4,-7,-7,-7,-2,-4,2021-08-06 13:55:21,755426
1,0,2,6,11,4,2,-1,2021-08-06 13:55:21,771427
0,-2,-1,2,0,0,-1,-1,2021-08-06 13:55:21,787463
1,2,3,1,-3,-2,-1,0,2021-08-06 13:55:21,803475
-1,-2,-2,-2,-3,0,-1,-2,2021-08-06 13:55:21,819427
-1,0,-1,0,-1,-1,-2,0,2021-08-06 13:55:21,819427
-2,-3,-1,-2,0,-1,1,-1,2021-08-06 13:55:21,819427
0,-3,-3,-4,-1,-1,-2,-3,2021-08-06 13:55:21,819427
1,0,-1,4,3,2,0,1,2021-08-06 13:55:21,819427
-2,-1,-1,-2,-2,-2,-1,0,2021-08-06 13:55:21,819427
-1,-1,0,-4,-2,-1,-1,-1,2021-08-06 13:55:21,819427
0,1,-2,-2,-4,-2,-1,0,2021-08-06 13:55:21,819427
-1,-3,-1,0,2,-1,0,-2,2021-08-06 13:55:21,819427
-2,-1,-2,-4,-9,-4,-3,-1,2021-08-06 13:55:21,819427
1,0,2,6,11,5,0,-1,2021-08-06 13:55:21,819427
0,0,1,3,3,1,2,-1,2021-08-06 13:55:21,820430
-1,1,-1,-2,1,-2,0,-2,2021-08-06 13:55:21,820430
-2,-3,-4,-7,-8,-3,-2,-2,2021-08-06 13:55:21,820430
0,1,1,1,-1,0,-1,0,2021-08-06 13:55:21,820430
-3,-1,-2,-2,-1,-2,-1,-2,2021-08-06 13:55:21,820430
-2,0,-1,2,2,0,1,0,2021-08-06 13:55:21,850425
1,0,-2,-4,-4,-3,-2,-2,2021-08-06 13:55:21,865427
0,-1,-3,-4,-6,-4,-2,0,2021-08-06 13:55:21,881426
-2,-4,-2,-3,-2,-2,-3,-2,2021-08-06 13:55:21,881426
2,0,1,0,-2,-1,-1,1,2021-08-06 13:55:21,881426
-2,0,-1,-1,-2,-1,-1,-2,2021-08-06 13:55:21,881426
-1,-2,-3,-2,-1,-2,-2,1,2021-08-06 13:55:21,881426
0,0,0,0,-1,-1,1,-2,2021-08-06 13:55:21,881426
-1,-2,-1,-5,-6,-5,-1,0,2021-08-06 13:55:21,882427
0,0,1,4,11,4,2,1,2021-08-06 13:55:21,882427
-2,-3,-3,-6,-9,-4,-3,-3,2021-08-06 13:55:21,882427
-1,-1,0,2,5,2,1,-1,2021-08-06 13:55:21,882427
0,-1,1,0,2,2,0,0,2021-08-06 13:55:21,913464
1,0,1,2,-1,-1,0,1,2021-08-06 13:55:21,913464
-2,-1,-2,-2,-2,-2,-4,-2,2021-08-06 13:55:21,913464
-1,-1,0,-1,0,1,-2,-1,2021-08-06 13:55:21,913464
1,0,1,1,2,0,-1,0,2021-08-06 13:55:21,929465
-2,-1,-3,-4,-3,-4,-2,-3,2021-08-06 13:55:21,945464
1,0,-1,0,3,-2,0,0,2021-08-06 13:55:21,945464
-1,-2,-2,-4,-3,-3,-1,-1,2021-08-06 13:55:21,945464
0,0,-1,-1,2,-1,-2,0,2021-08-06 13:55:21,945464
0,-1,-2,-1,-1,-1,-2,-1,2021-08-06 13:55:21,945464
-2,-2,-1,-2,-4,-2,0,-1,2021-08-06 13:55:21,945464
0,0,-2,1,2,1,1,0,2021-08-06 13:55:21,945464
-1,0,-1,2,4,1,1,0,2021-08-06 13:55:21,961483
-1,0,1,0,-1,0,-2,0,2021-08-06 13:55:21,977428
0,1,0,1,1,0,0,-1,2021-08-06 13:55:21,993478
-1,-2,-2,-3,-6,-2,-3,-2,2021-08-06 13:55:22,009426
-1,-3,-5,-1,-2,-2,-1,-3,2021-08-06 13:55:22,025473
-1,-2,-1,-1,-1,-1,-2,0,2021-08-06 13:55:22,025473
4,7,6,4,3,3,3,3,2021-08-06 13:55:22,025473
-1,-2,-1,-1,-3,-2,-2,-2,2021-08-06 13:55:22,025473
-1,0,-1,-3,-4,-2,-2,-1,2021-08-06 13:55:22,025473
0,0,-1,0,1,-1,0,0,2021-08-06 13:55:22,026428
-1,-3,-3,1,2,0,-1,-1,2021-08-06 13:55:22,026428
-2,0,-2,0,-1,-1,2,-1,2021-08-06 13:55:22,026428
-1,-2,-3,-2,-1,0,-2,-2,2021-08-06 13:55:22,026428
-2,-4,-2,-1,-3,-2,0,-1,2021-08-06 13:55:22,026428
-3,-3,-3,-2,-1,0,0,-1,2021-08-06 13:55:22,026428
-1,1,1,0,-4,-3,-4,0,2021-08-06 13:55:22,026428
-1,-1,1,6,5,3,0,1,2021-08-06 13:55:22,041425
1,2,3,2,0,0,1,1,2021-08-06 13:55:22,057427
-1,-1,-1,-3,-5,-2,-3,-2,2021-08-06 13:55:22,066448
-1,-1,-3,-3,-1,-1,-2,0,2021-08-06 13:55:22,066448
1,1,1,-4,-3,-2,-2,0,2021-08-06 13:55:22,066448
-3,-4,-4,-4,-3,0,-1,-2,2021-08-06 13:55:22,067451
-1,-1,-2,-2,-3,-2,-2,0,2021-08-06 13:55:22,067451
-3,-1,-2,2,0,0,0,-2,2021-08-06 13:55:22,067451
-2,-1,-3,-3,-1,0,0,0,2021-08-06 13:55:22,089462
1,2,4,4,5,2,3,1,2021-08-06 13:55:22,089462
0,-1,-1,0,0,1,2,-2,2021-08-06 13:55:22,089462
1,-2,-2,-1,-1,-2,-1,-1,2021-08-06 13:55:22,089462
-3,-3,-5,-9,-15,-10,-5,-2,2021-08-06 13:55:22,105473
-1,-1,2,8,10,6,2,1,2021-08-06 13:55:22,105473
-2,0,0,4,2,0,1,0,2021-08-06 13:55:22,105473
2,0,1,0,4,3,1,-2,2021-08-06 13:55:22,105473
0,0,-3,-1,-2,-1,-2,-2,2021-08-06 13:55:22,137427
-3,-2,-5,-9,-11,-7,-4,-3,2021-08-06 13:55:22,152427
-1,-1,-1,-3,-2,-1,-2,-1,2021-08-06 13:55:22,168481
0,0,0,0,1,1,0,1,2021-08-06 13:55:22,168481
1,0,0,0,-2,1,1,0,2021-08-06 13:55:22,168481
-1,-2,-3,-2,-1,-2,-2,-2,2021-08-06 13:55:22,168481
-2,-1,-1,0,3,0,-1,-1,2021-08-06 13:55:22,168481
0,0,-1,-2,-3,-3,-2,-3,2021-08-06 13:55:22,168481
1,1,2,2,3,1,0,0,2021-08-06 13:55:22,168481
-1,-2,-2,-2,-1,-3,-2,0,2021-08-06 13:55:22,168481
1,0,-2,-1,-3,-1,1,-2,2021-08-06 13:55:22,168481
-1,-3,-1,-2,-2,-1,0,1,2021-08-06 13:55:22,169429
-1,0,-1,2,2,1,1,-1,2021-08-06 13:55:22,184435
-1,-3,-2,-2,-1,-3,-1,-2,2021-08-06 13:55:22,184435
-1,-2,-1,-4,-5,-2,0,-3,2021-08-06 13:55:22,184435
0,0,0,0,-2,-1,-2,-1,2021-08-06 13:55:22,184435
0,0,0,2,4,3,1,2,2021-08-06 13:55:22,216475
0,0,-1,-3,-4,-3,-1,0,2021-08-06 13:55:22,216475
-1,-2,-1,-2,-2,0,-1,-1,2021-08-06 13:55:22,216475
-1,1,0,0,-1,-2,0,0,2021-08-06 13:55:22,216475
-2,-1,1,-1,0,-2,1,0,2021-08-06 13:55:22,216475
2,1,1,-3,-1,0,0,0,2021-08-06 13:55:22,216475
-1,-2,-2,-1,-3,-2,0,-2,2021-08-06 13:55:22,216475
1,0,0,-1,-1,-1,0,0,2021-08-06 13:55:22,217464
0,1,1,2,4,2,-1,0,2021-08-06 13:55:22,232463
-2,-1,1,-1,-1,-1,-2,-1,2021-08-06 13:55:22,232463
-2,-4,-3,-6,-7,-5,-5,-3,2021-08-06 13:55:22,248427
0,-1,1,-1,-3,-1,1,-1,2021-08-06 13:55:22,263427
2,2,4,11,18,7,5,3,2021-08-06 13:55:22,263427
0,2,0,0,-3,-1,-2,-2,2021-08-06 13:55:22,263427
-1,0,-2,-1,1,0,0,0,2021-08-06 13:55:22,263427
-4,-4,-2,-5,-7,-5,-4,-2,2021-08-06 13:55:22,263427
-2,-1,-1,-3,-5,-4,-3,-2,2021-08-06 13:55:22,294428
0,0,0,-1,0,3,1,0,2021-08-06 13:55:22,309463
-1,0,-1,2,1,-1,0,0,2021-08-06 13:55:22,325476
0,-1,-2,-1,2,1,1,-1,2021-08-06 13:55:22,341477
0,-1,-1,-2,-7,-5,-2,-2,2021-08-06 13:55:22,373427
0,2,0,2,7,3,0,1,2021-08-06 13:55:22,388474
-1,1,-1,-1,-2,0,-3,-1,2021-08-06 13:55:22,404466
-1,0,2,3,3,2,0,2,2021-08-06 13:55:22,420428
-5,-2,-4,-6,-5,-3,-2,-1,2021-08-06 13:55:22,420428
-3,-2,-2,-4,-9,-6,-1,-1,2021-08-06 13:55:22,420428
-1,-1,0,-2,1,-1,-1,-1,2021-08-06 13:55:22,420428
0,2,-1,4,7,4,3,1,2021-08-06 13:55:22,420428
-1,-2,-1,-2,-4,0,-1,0,2021-08-06 13:55:22,420428
-1,-3,-2,2,-1,0,0,0,2021-08-06 13:55:22,420428
-1,-1,1,-1,0,1,1,1,2021-08-06 13:55:22,420428
-2,-2,-3,-3,-3,-2,-3,0,2021-08-06 13:55:22,421427
0,1,-1,-2,-1,-2,1,-1,2021-08-06 13:55:22,421427
-1,-1,-2,-1,-2,1,0,-1,2021-08-06 13:55:22,421427
-2,-1,-2,-3,-5,-3,-3,-2,2021-08-06 13:55:22,421427
0,0,-1,-2,-4,-2,-1,-1,2021-08-06 13:55:22,421427
2,1,1,1,8,2,1,0,2021-08-06 13:55:22,421427
-1,-1,-3,-1,-1,-2,-1,-1,2021-08-06 13:55:22,421427
-1,-1,-1,0,1,0,-1,2,2021-08-06 13:55:22,421427
0,0,-1,1,-3,-2,-2,0,2021-08-06 13:55:22,421427
-4,-2,-1,-2,-3,-2,-2,-2,2021-08-06 13:55:22,422426
0,-1,-1,-2,0,-1,0,0,2021-08-06 13:55:22,422426
0,0,-3,0,-1,-2,-1,0,2021-08-06 13:55:22,422426
-2,-1,-3,-1,-2,-1,-2,-1,2021-08-06 13:55:22,422426
0,-2,-1,-1,-1,-1,-1,-2,2021-08-06 13:55:22,422426
-1,-2,0,-2,1,-1,-2,-1,2021-08-06 13:55:22,422426
0,-1,2,0,0,0,2,0,2021-08-06 13:55:22,422426
0,0,1,0,0,-3,-2,1,2021-08-06 13:55:22,422426
-2,-1,-3,-6,-6,-3,-3,-1,2021-08-06 13:55:22,452429
-1,0,2,2,4,3,0,-1,2021-08-06 13:55:22,452429
0,0,0,-1,1,-2,-1,0,2021-08-06 13:55:22,452429
-1,-3,-3,-6,-5,-2,-2,-1,2021-08-06 13:55:22,452429
0,1,1,4,2,2,0,1,2021-08-06 13:55:22,468464
-1,-3,-3,1,4,1,0,-1,2021-08-06 13:55:22,468464
2,2,3,1,2,1,0,-1,2021-08-06 13:55:22,468464
0,-1,2,-2,-2,-2,-2,-2,2021-08-06 13:55:22,468464
-2,-1,-2,-5,-6,-4,-1,-1,2021-08-06 13:55:22,484427
-2,-1,-3,-4,-4,0,-1,-1,2021-08-06 13:55:22,515428
1,0,0,2,2,2,1,1,2021-08-06 13:55:22,530427
-1,-1,-2,-3,-3,-3,-3,-3,2021-08-06 13:55:22,545462
1,1,1,1,2,0,0,-2,2021-08-06 13:55:22,561427
-2,-2,-2,-3,-3,-1,-2,-3,2021-08-06 13:55:22,561427
-2,-1,-1,0,-3,-3,-1,-1,2021-08-06 13:55:22,561427
-1,0,-1,0,-3,0,-1,-1,2021-08-06 13:55:22,561427
-1,-4,-3,-4,-3,-3,-2,-1,2021-08-06 13:55:22,561427
0,1,-1,0,-2,-3,-1,0,2021-08-06 13:55:22,561427
0,-1,-2,-2,-2,-1,-3,-1,2021-08-06 13:55:22,562426
-2,-1,0,1,4,1,2,0,2021-08-06 13:55:22,562426
-1,-2,-2,-4,-4,-3,-2,-2,2021-08-06 13:55:22,562426
0,-1,1,1,-2,-2,-2,-1,2021-08-06 13:55:22,562426
-2,-2,0,-1,1,1,0,0,2021-08-06 13:55:22,562426
1,1,1,0,3,2,2,1,2021-08-06 13:55:22,562426
0,-1,0,2,3,1,0,-1,2021-08-06 13:55:22,562426
-1,1,0,-2,-4,-3,-3,0,2021-08-06 13:55:22,562426
0,-1,0,2,2,0,-2,-3,2021-08-06 13:55:22,562426
-3,-3,-2,-1,-6,-3,-2,-1,2021-08-06 13:55:22,562426
-3,-1,-2,-3,-3,0,-2,0,2021-08-06 13:55:22,592478
0,-1,0,1,-1,-2,0,0,2021-08-06 13:55:22,608465
-2,-2,-1,-2,-2,0,-1,-2,2021-08-06 13:55:22,608465
-1,-1,-1,0,3,0,0,-1,2021-08-06 13:55:22,608465
1,-2,0,0,2,1,-2,0,2021-08-06 13:55:22,608465
-2,2,-1,1,0,-1,0,0,2021-08-06 13:55:22,608465
0,1,-1,0,0,-2,0,-1,2021-08-06 13:55:22,608465
-1,-2,-2,-2,-2,-2,-2,-2,2021-08-06 13:55:22,608465
-1,1,-1,-2,-2,0,1,-2,2021-08-06 13:55:22,624429
1,2,2,0,3,0,0,1,2021-08-06 13:55:22,640428
-2,-2,-2,-4,-3,-3,-2,-2,2021-08-06 13:55:22,640428
-1,0,-1,0,0,1,0,0,2021-08-06 13:55:22,640428
-2,-2,-2,1,0,-1,-1,-2,2021-08-06 13:55:22,640428
1,-2,0,-1,0,2,0,0,2021-08-06 13:55:22,640428
0,0,-1,-1,0,-1,0,1,2021-08-06 13:55:22,640428
-2,-4,-2,-1,2,-1,-1,-2,2021-08-06 13:55:22,640428
0,0,-1,-1,-1,2,0,-1,2021-08-06 13:55:22,672464
0,-1,1,-1,0,-1,0,-1,2021-08-06 13:55:22,672464
-1,-2,-3,-2,-2,0,0,-1,2021-08-06 13:55:22,672464
0,-1,0,0,0,1,-1,-2,2021-08-06 13:55:22,672464
-2,-2,-2,-1,-2,-2,-2,-2,2021-08-06 13:55:22,688425
0,-1,-1,0,-1,-1,-3,-1,2021-08-06 13:55:22,704429
0,-2,0,-1,-2,-2,-1,-4,2021-08-06 13:55:22,719429
-2,-1,-2,-2,-1,-1,-1,-1,2021-08-06 13:55:22,719429
-1,0,-1,-3,0,-2,0,-2,2021-08-06 13:55:22,719429
-1,-3,-1,-2,-2,-3,-2,-3,2021-08-06 13:55:22,719429
-1,0,0,0,3,2,-1,1,2021-08-06 13:55:22,719429
-1,0,-1,-2,-3,-2,0,-1,2021-08-06 13:55:22,719429
1,0,3,3,6,2,0,1,2021-08-06 13:55:22,719429
-1,-3,-4,-5,-5,-2,-1,-3,2021-08-06 13:55:22,719429
-1,-1,-2,0,0,-3,-1,-2,2021-08-06 13:55:22,720427
1,0,0,-1,1,2,-1,0,2021-08-06 13:55:22,720427
-1,0,-1,0,-3,-1,-1,0,2021-08-06 13:55:22,735430
-1,-1,-1,-1,-2,0,0,-2,2021-08-06 13:55:22,735430
-1,0,0,-1,0,0,-1,1,2021-08-06 13:55:22,735430
0,-1,-3,-3,-3,-1,-3,-1,2021-08-06 13:55:22,735430
-1,0,1,1,-1,-3,-1,-3,2021-08-06 13:55:22,767476
1,1,0,0,1,0,-1,0,2021-08-06 13:55:22,783462
-1,-1,-1,0,-1,0,0,-1,2021-08-06 13:55:22,783462
-2,-1,-1,0,-1,-2,-1,-1,2021-08-06 13:55:22,783462
0,-1,0,-1,-1,0,1,0,2021-08-06 13:55:22,783462
-1,-1,-1,-2,1,-1,-1,-1,2021-08-06 13:55:22,783462
0,-2,-1,1,-1,0,-1,1,2021-08-06 13:55:22,783462
0,-1,-1,0,0,0,-1,-1,2021-08-06 13:55:22,783462
-1,-1,-1,1,-1,-1,-1,-1,2021-08-06 13:55:22,799425
-2,-1,-1,0,-1,0,-1,-2,2021-08-06 13:55:22,799425
-1,-1,-1,-2,-1,-1,0,-2,2021-08-06 13:55:22,799425
-1,-2,0,1,0,0,0,0,2021-08-06 13:55:22,799425
0,0,0,-1,-2,-2,0,0,2021-08-06 13:55:22,831447
0,-1,-2,0,-1,-1,0,0,2021-08-06 13:55:22,831447
0,-1,-2,0,-2,-1,0,-1,2021-08-06 13:55:22,831447
2,-1,0,1,0,-1,0,-1,2021-08-06 13:55:22,831447
-1,-1,-2,-3,0,-1,0,0,2021-08-06 13:55:22,847427
1,-2,-1,-3,-1,-1,-1,0,2021-08-06 13:55:22,862427
-1,-1,0,-1,1,0,-1,-1,2021-08-06 13:55:22,862427
0,0,-1,-1,0,-2,-1,1,2021-08-06 13:55:22,862427
0,0,3,1,2,-2,1,-1,2021-08-06 13:55:22,862427
0,0,1,1,2,1,-1,-2,2021-08-06 13:55:22,862427
0,-5,-5,-3,-5,-3,-1,0,2021-08-06 13:55:22,862427
-2,-3,-4,-3,-7,-5,-1,-2,2021-08-06 13:55:22,862427
-1,2,-3,-2,-4,-2,-2,-1,2021-08-06 13:55:22,893425
-1,0,0,-1,1,-1,0,-1,2021-08-06 13:55:22,893425
0,3,2,1,2,1,0,0,2021-08-06 13:55:22,893425
0,0,1,0,1,0,0,0,2021-08-06 13:55:22,893425
-1,-2,-2,0,0,-1,-1,0,2021-08-06 13:55:22,909462
1,1,-1,-1,-1,-1,-1,0,2021-08-06 13:55:22,925427
-1,-1,0,0,-1,-1,-2,0,2021-08-06 13:55:22,941454
-2,0,1,-1,1,1,0,0,2021-08-06 13:55:22,941454
0,-2,-2,0,-2,1,-1,-1,2021-08-06 13:55:22,941454
0,-1,-1,-3,-2,-1,0,0,2021-08-06 13:55:22,941454
1,0,-1,-1,-1,-1,-1,1,2021-08-06 13:55:22,941454
-1,1,0,0,0,1,-1,0,2021-08-06 13:55:22,941454
-1,-3,0,-2,1,0,2,0,2021-08-06 13:55:22,941454
-1,-3,-3,0,-1,-1,0,1,2021-08-06 13:55:22,942426
-1,-2,-1,-1,0,0,0,-1,2021-08-06 13:55:22,942426
-2,-2,0,1,-1,0,-2,-3,2021-08-06 13:55:22,942426
-2,-2,-1,1,0,0,-2,-3,2021-08-06 13:55:22,971425
-1,-1,0,1,-1,-2,-2,-2,2021-08-06 13:55:22,987427
-1,0,-1,-1,-1,-3,-3,-1,2021-08-06 13:55:22,987427
0,1,-1,1,-2,-1,-2,0,2021-08-06 13:55:22,987427
0,-1,-2,-2,-1,0,-1,0,2021-08-06 13:55:22,987427
-1,-1,-2,-1,-1,-2,1,1,2021-08-06 13:55:22,987427
-1,1,-1,-1,-1,2,0,-1,2021-08-06 13:55:22,987427
0,-1,0,0,1,-1,-1,0,2021-08-06 13:55:22,987427
-1,-2,-1,-1,0,-1,-1,-1,2021-08-06 13:55:23,003465
-2,0,0,-1,-1,-1,0,-1,2021-08-06 13:55:23,019428
-1,-1,-1,0,0,-1,-2,-2,2021-08-06 13:55:23,019428
-1,0,-1,-1,0,0,0,-1,2021-08-06 13:55:23,019428
-1,0,-3,0,-2,1,-1,1,2021-08-06 13:55:23,019428
0,-2,-1,-1,-1,-1,-2,-2,2021-08-06 13:55:23,019428
-1,0,-1,-1,-2,-1,0,-1,2021-08-06 13:55:23,035426
-1,1,0,-3,-1,-1,0,-2,2021-08-06 13:55:23,035426
-1,-1,-1,0,-1,0,-2,-1,2021-08-06 13:55:23,035426
-1,2,-3,0,0,-1,-1,-2,2021-08-06 13:55:23,035426
1,-2,-2,-2,0,0,0,0,2021-08-06 13:55:23,035426
1,-2,-1,-1,1,0,-2,0,2021-08-06 13:55:23,035426
-1,-1,0,-1,0,1,-2,-1,2021-08-06 13:55:23,067476
0,-1,1,0,-1,0,-1,1,2021-08-06 13:55:23,082463
-1,1,1,0,1,-1,-3,-1,2021-08-06 13:55:23,082463
0,0,-2,-1,-2,-2,0,0,2021-08-06 13:55:23,082463
-1,-1,-1,-1,-1,1,0,1,2021-08-06 13:55:23,082463
0,0,-1,-2,-1,-1,-1,-2,2021-08-06 13:55:23,082463
0,-2,-2,-2,0,-2,-1,-2,2021-08-06 13:55:23,082463
-2,-3,-1,-1,-1,-1,-1,-1,2021-08-06 13:55:23,082463
-1,0,-2,-1,1,0,0,-1,2021-08-06 13:55:23,112428
-1,-1,-2,1,-1,0,0,-1,2021-08-06 13:55:23,112428
-1,-1,-1,-1,-2,0,0,0,2021-08-06 13:55:23,112428
-1,-1,-2,0,-1,-1,-1,-1,2021-08-06 13:55:23,112428
0,-1,-2,-1,-2,-3,-1,-1,2021-08-06 13:55:23,128477
0,0,-1,-1,-1,0,0,1,2021-08-06 13:55:23,144427
-2,1,-1,-3,-1,-2,-2,-2,2021-08-06 13:55:23,144427
0,-1,1,-1,-2,-1,-1,-1,2021-08-06 13:55:23,144427
0,-1,0,0,1,-1,-2,-1,2021-08-06 13:55:23,144427
0,0,0,0,-1,1,0,-1,2021-08-06 13:55:23,144427
-2,-2,-1,1,-2,-1,-1,2,2021-08-06 13:55:23,144427
-1,-1,-2,-1,-2,-2,1,-3,2021-08-06 13:55:23,144427
-2,0,-1,-2,0,0,-3,-1,2021-08-06 13:55:23,160426
-1,0,0,-2,0,2,-1,-1,2021-08-06 13:55:23,160426
1,-1,-1,-1,2,0,1,0,2021-08-06 13:55:23,176475
-1,-2,-3,-2,-6,-4,-3,-1,2021-08-06 13:55:23,192477
1,0,0,0,0,1,0,0,2021-08-06 13:55:23,208467
-2,-1,-1,0,2,-2,-1,-2,2021-08-06 13:55:23,208467
-1,-1,-1,-3,-1,-1,-2,-2,2021-08-06 13:55:23,208467
-1,1,0,2,2,0,0,2,2021-08-06 13:55:23,208467
-1,-1,-2,-4,-6,-3,-2,-2,2021-08-06 13:55:23,208467
-1,0,-3,-4,-4,-2,-2,0,2021-08-06 13:55:23,208467
1,-1,1,1,1,0,0,0,2021-08-06 13:55:23,208467
-1,0,-1,-3,-3,-1,-2,-2,2021-08-06 13:55:23,208467
0,0,-1,-2,-1,-1,-2,0,2021-08-06 13:55:23,224430
-1,1,1,5,8,5,1,0,2021-08-06 13:55:23,240428
-2,-1,0,-1,-3,-3,-1,-2,2021-08-06 13:55:23,255463
0,-1,-1,0,0,0,1,0,2021-08-06 13:55:23,271429
-2,1,0,-2,-4,-4,0,0,2021-08-06 13:55:23,271429
-1,-3,0,0,4,0,0,-1,2021-08-06 13:55:23,271429
-2,0,-2,0,-2,-2,-1,0,2021-08-06 13:55:23,271429
-2,0,0,1,3,2,1,-2,2021-08-06 13:55:23,271429
0,0,1,-3,-2,-1,-2,-2,2021-08-06 13:55:23,287463
-1,-1,-1,-1,-3,-3,-1,-1,2021-08-06 13:55:23,303475
-1,-3,-1,0,0,-1,-1,-1,2021-08-06 13:55:23,319429
0,0,-1,-3,-1,-1,-1,0,2021-08-06 13:55:23,335463
0,-1,-2,-1,-1,-3,-1,-1,2021-08-06 13:55:23,351476
0,0,-1,1,4,2,2,-1,2021-08-06 13:55:23,351476
-1,0,-1,0,1,-1,0,0,2021-08-06 13:55:23,351476
-1,-1,-3,-1,1,0,0,-1,2021-08-06 13:55:23,351476
-2,0,-2,-2,0,-1,1,-1,2021-08-06 13:55:23,351476
-2,-2,-1,-4,-8,-4,0,-1,2021-08-06 13:55:23,351476
-2,-1,-1,1,1,2,-1,-1,2021-08-06 13:55:23,352463
1,-2,0,-1,1,1,-3,1,2021-08-06 13:55:23,352463
-1,-1,-1,2,0,-1,-2,-2,2021-08-06 13:55:23,352463
-1,-2,-1,-1,-4,-3,-3,-2,2021-08-06 13:55:23,352463
-1,0,-1,-3,-1,-1,0,0,2021-08-06 13:55:23,352463
-3,-1,-1,-3,-4,-2,-2,-1,2021-08-06 13:55:23,352463
-2,1,1,5,8,3,1,2,2021-08-06 13:55:23,352463
-1,-1,-3,-4,-4,-3,-1,-1,2021-08-06 13:55:23,352463
-1,0,-2,-2,-5,-2,-1,-1,2021-08-06 13:55:23,353465
1,-1,1,1,0,-1,0,1,2021-08-06 13:55:23,353465
0,0,-1,-3,-1,-2,-2,0,2021-08-06 13:55:23,367476
-1,0,0,-3,-2,-1,-3,-2,2021-08-06 13:55:23,383453
-1,-2,-1,0,0,-2,0,-1,2021-08-06 13:55:23,383453
-1,1,-1,0,0,0,-1,-1,2021-08-06 13:55:23,383453
-2,-2,-1,0,-1,1,1,-1,2021-08-06 13:55:23,383453
0,-1,-3,-2,-1,-2,-1,0,2021-08-06 13:55:23,383453
-2,-1,-2,-2,0,-2,-1,-1,2021-08-06 13:55:23,383453
-1,-1,-1,0,1,-1,-1,-1,2021-08-06 13:55:23,383453
1,-1,-1,-2,-3,0,0,0,2021-08-06 13:55:23,415468
0,0,0,-1,-2,-1,-1,-1,2021-08-06 13:55:23,431432
0,-1,0,0,1,-1,1,-2,2021-08-06 13:55:23,447429
-1,0,-1,-1,-1,0,0,-1,2021-08-06 13:55:23,447429
-2,-2,-1,0,-4,-2,-1,0,2021-08-06 13:55:23,447429
0,0,0,1,-4,-2,-1,0,2021-08-06 13:55:23,447429
-1,1,1,0,1,0,-1,1,2021-08-06 13:55:23,447429
0,-4,0,0,2,0,-2,0,2021-08-06 13:55:23,447429
0,-1,-1,-2,-1,-1,-1,-1,2021-08-06 13:55:23,447429
-2,0,-1,-2,-2,-1,-1,-1,2021-08-06 13:55:23,448427
0,0,-2,-2,-2,-1,-1,-3,2021-08-06 13:55:23,448427
0,2,0,1,1,-1,-1,-1,2021-08-06 13:55:23,448427
-1,-1,0,0,0,0,-1,0,2021-08-06 13:55:23,463428
-1,-1,-2,-2,-1,-1,-3,0,2021-08-06 13:55:23,478532
-1,-1,-2,-1,-1,-1,-2,-2,2021-08-06 13:55:23,478532
-1,0,0,-2,-1,0,-1,0,2021-08-06 13:55:23,478532
-1,-1,-2,0,-1,-1,-1,-3,2021-08-06 13:55:23,494502
1,-1,0,0,-1,-1,-1,-1,2021-08-06 13:55:23,510499
1,-2,-1,-1,-1,-1,-2,-1,2021-08-06 13:55:23,510499
-1,-1,-1,0,1,-1,0,0,2021-08-06 13:55:23,510499
-1,0,1,2,1,-1,1,0,2021-08-06 13:55:23,510499
-2,-2,-1,0,-1,-1,0,-2,2021-08-06 13:55:23,510499
-1,0,-2,-1,-2,1,0,0,2021-08-06 13:55:23,510499
0,0,-1,-1,-2,-1,-1,-1,2021-08-06 13:55:23,510499
0,-1,-1,0,1,0,-3,-1,2021-08-06 13:55:23,526498
-1,0,-2,-2,-1,-1,-1,1,2021-08-06 13:55:23,526498
0,-1,-1,-2,-2,1,0,-1,2021-08-06 13:55:23,542548
0,-1,-2,-1,1,-1,-1,-2,2021-08-06 13:55:23,542548
-2,-2,-2,-2,-1,-1,0,-1,2021-08-06 13:55:23,542548
-1,0,0,0,1,0,-1,0,2021-08-06 13:55:23,542548
-1,-1,0,1,-2,-1,-3,0,2021-08-06 13:55:23,558538
-1,-2,-1,-3,-1,0,0,0,2021-08-06 13:55:23,558538
0,0,-2,-2,-1,-2,0,0,2021-08-06 13:55:23,574499
0,-1,-2,-1,-1,-1,-1,-2,2021-08-06 13:55:23,590551
-1,0,-2,-1,0,-4,0,-2,2021-08-06 13:55:23,590551
-1,-2,0,-1,-1,0,-1,0,2021-08-06 13:55:23,590551
0,-1,0,-1,-1,-2,-2,0,2021-08-06 13:55:23,590551
0,-2,1,1,-1,-3,0,0,2021-08-06 13:55:23,590551
0,-1,-1,-1,-2,-2,0,0,2021-08-06 13:55:23,590551
-1,-1,-1,-2,-1,-1,0,-1,2021-08-06 13:55:23,590551
-2,-1,0,-2,-1,-2,-1,0,2021-08-06 13:55:23,606499
0,1,-3,-3,0,-1,-1,-1,2021-08-06 13:55:23,622502
-2,-1,0,-1,0,0,-3,-2,2021-08-06 13:55:23,622502
0,-1,-1,0,0,0,-1,0,2021-08-06 13:55:23,622502
0,-2,-2,0,-1,1,-1,0,2021-08-06 13:55:23,622502
-3,-1,0,-1,-1,0,-1,0,2021-08-06 13:55:23,622502
0,-3,0,0,-1,-1,0,-2,2021-08-06 13:55:23,622502
-1,0,0,0,-1,-1,0,-1,2021-08-06 13:55:23,622502
0,0,0,-2,-1,-1,0,-3,2021-08-06 13:55:23,652499
-1,-1,-2,0,-1,-1,-1,-2,2021-08-06 13:55:23,652499
-2,0,-1,-1,-3,-2,0,0,2021-08-06 13:55:23,652499
1,-2,-1,-1,-2,-1,-1,-1,2021-08-06 13:55:23,652499
2,0,-3,0,-2,-1,1,-1,2021-08-06 13:55:23,668540
0,-2,-1,-2,-1,1,-1,0,2021-08-06 13:55:23,668540
-1,0,0,0,0,-1,0,-1,2021-08-06 13:55:23,668540
-1,-1,0,-1,-2,-1,-1,-1,2021-08-06 13:55:23,668540
-3,-1,-1,0,0,-1,-3,0,2021-08-06 13:55:23,699542
-1,-1,-2,-2,-1,-1,1,0,2021-08-06 13:55:23,699542
0,-1,-1,0,0,0,-2,0,2021-08-06 13:55:23,699542
0,-2,-1,-1,-1,0,-1,-2,2021-08-06 13:55:23,699542
-1,-1,-2,-1,-1,1,0,-1,2021-08-06 13:55:23,715497
0,-2,-2,1,-1,-1,-1,0,2021-08-06 13:55:23,731500
-1,0,-1,-1,-2,0,-1,-1,2021-08-06 13:55:23,747538
-2,1,0,1,-1,0,0,0,2021-08-06 13:55:23,747538
-1,-1,-1,-1,-1,-3,-1,-1,2021-08-06 13:55:23,747538
-2,-2,0,0,-2,-1,-1,-2,2021-08-06 13:55:23,747538
0,-2,-2,-1,0,-1,-1,-1,2021-08-06 13:55:23,747538
-1,-2,-2,0,-1,-1,-1,-1,2021-08-06 13:55:23,747538
-1,0,0,-1,-1,-2,-1,0,2021-08-06 13:55:23,747538
0,1,0,0,-1,-3,-1,-2,2021-08-06 13:55:23,747538
0,-2,-1,-2,-2,-2,-1,0,2021-08-06 13:55:23,748501
-2,0,-1,1,1,1,-3,-1,2021-08-06 13:55:23,748501
0,-2,0,-1,-2,0,-1,-3,2021-08-06 13:55:23,779548
-1,0,-1,-2,0,0,0,0,2021-08-06 13:55:23,795535
0,-1,-1,-2,-1,1,-1,-1,2021-08-06 13:55:23,811499
-1,-2,-2,-3,-1,0,1,2,2021-08-06 13:55:23,811499
-1,-3,-1,-1,-2,-1,-1,0,2021-08-06 13:55:23,811499
-3,-2,-1,-2,1,0,-1,-2,2021-08-06 13:55:23,811499
-1,-2,-1,1,1,-2,0,-4,2021-08-06 13:55:23,811499
-2,-2,1,-2,0,-1,-1,-3,2021-08-06 13:55:23,811499
-1,2,1,0,-2,-3,-2,-2,2021-08-06 13:55:23,811499
0,-1,0,-1,-1,-1,-2,-2,2021-08-06 13:55:23,811499
0,0,-1,-1,-2,-2,0,2,2021-08-06 13:55:23,812501
-1,-1,-1,-2,-1,-1,-1,0,2021-08-06 13:55:23,812501
0,-3,-1,-2,0,0,0,-1,2021-08-06 13:55:23,827499
-1,-1,0,0,-1,-2,-1,0,2021-08-06 13:55:23,827499
-2,0,-1,-2,0,-1,-1,-1,2021-08-06 13:55:23,827499
1,0,-1,-1,-1,0,-1,0,2021-08-06 13:55:23,827499
0,-1,-2,1,0,1,-1,-1,2021-08-06 13:55:23,843498
-1,-1,-1,-1,-2,-1,-2,0,2021-08-06 13:55:23,843498
-2,0,0,0,0,0,-1,-2,2021-08-06 13:55:23,843498
0,-1,-1,-1,-2,-1,-1,-1,2021-08-06 13:55:23,843498
0,-1,-1,-1,-1,-1,-1,0,2021-08-06 13:55:23,874533
-1,-1,-1,0,-1,-1,0,-2,2021-08-06 13:55:23,874533
0,0,0,0,-1,0,-1,0,2021-08-06 13:55:23,874533
-1,0,0,-1,-3,-1,-1,-1,2021-08-06 13:55:23,874533
0,-2,-1,0,1,0,0,0,2021-08-06 13:55:23,882533
0,-1,-2,-1,-1,0,-1,-1,2021-08-06 13:55:23,882533
-1,-1,-2,0,-3,-1,0,-2,2021-08-06 13:55:23,906501
0,1,-2,-1,-1,1,-1,-1,2021-08-06 13:55:23,906501
-2,0,-1,-1,0,-3,-2,-1,2021-08-06 13:55:23,906501
-2,0,-1,-1,-1,-1,0,-1,2021-08-06 13:55:23,906501
-2,-2,-1,0,0,-2,-1,1,2021-08-06 13:55:23,906501
-1,-2,-1,1,-2,-1,0,-2,2021-08-06 13:55:23,906501
-1,-1,0,-2,-3,0,-1,0,2021-08-06 13:55:23,937535
1,0,-1,-1,0,0,-1,-2,2021-08-06 13:55:23,953548
-1,-1,-1,-2,-2,-1,-3,-1,2021-08-06 13:55:23,969502
-3,-2,-1,0,-1,-2,-1,0,2021-08-06 13:55:23,969502
-2,0,-1,-1,0,-1,1,2,2021-08-06 13:55:23,969502
-2,-2,0,-2,0,-1,-2,0,2021-08-06 13:55:23,969502
0,-1,0,0,0,0,0,0,2021-08-06 13:55:23,969502
-1,-1,-1,-1,0,-3,-1,0,2021-08-06 13:55:23,969502
-1,-1,-1,-2,-3,0,-1,0,2021-08-06 13:55:23,969502
-1,1,0,2,6,2,2,0,2021-08-06 13:55:23,970536
-1,0,-1,0,-2,0,-2,-2,2021-08-06 13:55:23,970536
-1,-2,-1,-1,-1,-1,0,-2,2021-08-06 13:55:23,970536
0,0,0,2,2,1,-1,0,2021-08-06 13:55:23,985499
-2,-1,-1,-2,-3,-1,-1,0,2021-08-06 13:55:23,985499
-1,-2,-2,-1,1,-1,0,1,2021-08-06 13:55:24,000535
0,1,-1,-1,0,-1,0,-1,2021-08-06 13:55:24,000535
0,-2,-2,-1,-4,-3,-1,-1,2021-08-06 13:55:24,016498
0,0,-1,0,-5,-1,-1,0,2021-08-06 13:55:24,031500
0,1,0,2,3,0,-1,-1,2021-08-06 13:55:24,031500
-1,-2,-2,-1,-6,-4,-3,1,2021-08-06 13:55:24,031500
2,2,3,5,10,7,3,3,2021-08-06 13:55:24,031500
-1,-1,-1,-1,-1,-1,0,-2,2021-08-06 13:55:24,031500
-1,-1,-1,-1,-3,-1,-1,0,2021-08-06 13:55:24,046546
0,-1,-1,2,0,0,-1,-3,2021-08-06 13:55:24,046546
-1,-2,-2,-2,-5,-4,-3,-4,2021-08-06 13:55:24,046546
0,-2,-2,-1,-2,-1,0,0,2021-08-06 13:55:24,046546
0,-1,0,-3,-1,0,0,-1,2021-08-06 13:55:24,046546
0,-1,-2,-3,-2,-2,0,1,2021-08-06 13:55:24,046546
-1,-1,-2,-2,-3,-2,-2,0,2021-08-06 13:55:24,077499
0,-1,0,0,2,2,-1,-1,2021-08-06 13:55:24,093500
-1,-2,-2,-2,-2,-1,-3,-1,2021-08-06 13:55:24,108536
1,0,0,0,-1,1,0,0,2021-08-06 13:55:24,108536
-3,-1,-1,-1,0,-1,-1,-3,2021-08-06 13:55:24,108536
0,-3,0,-2,-2,-4,-1,0,2021-08-06 13:55:24,108536
-1,0,1,-1,2,2,0,0,2021-08-06 13:55:24,108536
-1,0,-2,0,1,1,-1,-1,2021-08-06 13:55:24,108536
-2,-2,-1,-1,-2,-2,-1,-1,2021-08-06 13:55:24,124545
-1,-1,-3,-1,-2,-2,-1,-1,2021-08-06 13:55:24,140539
-1,-2,-2,-1,0,-1,-1,-1,2021-08-06 13:55:24,140539
-1,-2,-1,-3,-2,-1,-2,0,2021-08-06 13:55:24,140539
1,0,0,-2,-2,-1,0,0,2021-08-06 13:55:24,140539
-1,0,-1,0,1,0,-1,0,2021-08-06 13:55:24,140539
-2,-1,-1,-2,-1,0,-2,-1,2021-08-06 13:55:24,140539
-2,0,-1,2,4,-1,-1,0,2021-08-06 13:55:24,140539
-2,-1,-2,-1,-1,0,-2,-2,2021-08-06 13:55:24,140539
-1,-3,-2,-1,-4,-2,-3,-2,2021-08-06 13:55:24,141527
0,-1,1,0,-4,-3,0,-1,2021-08-06 13:55:24,172500
0,-1,0,-1,2,0,0,0,2021-08-06 13:55:24,172500
-1,-1,-1,1,0,0,0,0,2021-08-06 13:55:24,172500
0,-1,1,-1,0,0,-1,-1,2021-08-06 13:55:24,172500
0,-2,-3,-1,-2,-2,1,0,2021-08-06 13:55:24,172500
0,-1,-1,-1,-3,-2,0,0,2021-08-06 13:55:24,172500
-1,1,-1,-1,0,0,-1,1,2021-08-06 13:55:24,202548
-1,0,0,-1,-2,-1,-1,-1,2021-08-06 13:55:24,218548
-2,-2,-1,0,0,-3,0,0,2021-08-06 13:55:24,218548
0,-1,-2,-1,-1,-2,-1,-2,2021-08-06 13:55:24,234535
0,-1,-1,0,-3,-1,1,-1,2021-08-06 13:55:24,234535
-1,-1,0,0,0,0,-1,-1,2021-08-06 13:55:24,234535
0,-1,-1,-1,-1,1,-1,1,2021-08-06 13:55:24,234535
0,-1,-2,-1,1,0,0,0,2021-08-06 13:55:24,234535
0,-2,-1,-2,-4,-3,-2,-2,2021-08-06 13:55:24,234535
-2,-1,-1,-4,-2,-2,-1,-2,2021-08-06 13:55:24,234535
0,-1,-1,2,0,1,-1,-1,2021-08-06 13:55:24,235499
-2,0,-3,-4,-2,-1,-1,-2,2021-08-06 13:55:24,235499
0,0,0,3,2,1,0,1,2021-08-06 13:55:24,249503
-1,0,-2,-1,-2,-1,2,-1,2021-08-06 13:55:24,264502
1,0,1,0,-1,0,-1,-2,2021-08-06 13:55:24,280535
-2,1,0,-1,-3,-2,-1,0,2021-08-06 13:55:24,280535
-1,-2,-1,-2,-1,-1,-1,-3,2021-08-06 13:55:24,280535
0,0,-3,-1,0,-1,0,1,2021-08-06 13:55:24,280535
0,1,0,-1,1,-1,0,0,2021-08-06 13:55:24,280535
1,-1,0,3,4,2,-1,0,2021-08-06 13:55:24,280535
-1,-2,0,-1,-3,-1,0,-2,2021-08-06 13:55:24,280535
-1,-2,0,-1,-1,-2,-1,-1,2021-08-06 13:55:24,280535
0,-2,-3,-1,-1,1,0,-1,2021-08-06 13:55:24,281500
-1,0,0,-1,-3,0,0,0,2021-08-06 13:55:24,281500
0,2,1,-1,2,1,1,-2,2021-08-06 13:55:24,311499
-1,-2,-1,0,-2,-1,-2,-1,2021-08-06 13:55:24,326500
-2,-1,-2,-4,-4,-4,-2,-1,2021-08-06 13:55:24,326500
-1,-1,-1,-1,0,0,-1,-2,2021-08-06 13:55:24,326500
-2,0,-1,2,6,1,2,0,2021-08-06 13:55:24,326500
-1,-1,-2,-1,-3,-1,-1,-4,2021-08-06 13:55:24,326500
-2,-2,-2,-1,-2,-2,-2,-1,2021-08-06 13:55:24,342498
0,0,0,1,-1,-2,-3,-1,2021-08-06 13:55:24,342498
-1,-1,1,-2,-3,-2,0,-2,2021-08-06 13:55:24,342498
-2,0,-1,1,1,0,-1,-1,2021-08-06 13:55:24,342498
0,0,-1,-3,-2,0,-1,0,2021-08-06 13:55:24,342498
-1,0,0,-2,0,-2,0,-1,2021-08-06 13:55:24,342498
-2,-1,-2,-3,-4,-4,-5,-1,2021-08-06 13:55:24,374500
0,1,-1,1,1,0,0,1,2021-08-06 13:55:24,390527
-1,-2,-2,0,1,2,-1,-2,2021-08-06 13:55:24,390527
-1,-1,0,-1,-3,-1,0,0,2021-08-06 13:55:24,390527
-3,-2,-1,2,5,1,0,-1,2021-08-06 13:55:24,390527
-1,-2,1,0,-2,-1,0,-2,2021-08-06 13:55:24,390527
-2,-2,0,-2,-3,-3,-3,-1,2021-08-06 13:55:24,390527
-3,-2,-2,-1,-3,0,-1,0,2021-08-06 13:55:24,390527
-1,-3,-3,-3,-4,-3,-1,1,2021-08-06 13:55:24,406500
0,-1,-1,-2,-4,-2,-1,0,2021-08-06 13:55:24,422502
1,0,-1,0,1,-1,-1,-2,2021-08-06 13:55:24,422502
-1,-2,-1,-2,0,0,-1,-1,2021-08-06 13:55:24,422502
-1,-2,1,0,-2,-2,-1,-1,2021-08-06 13:55:24,422502
0,-2,-2,0,2,0,-2,-1,2021-08-06 13:55:24,422502
-1,-1,2,-2,-2,-1,0,0,2021-08-06 13:55:24,438549
-2,1,1,4,10,5,1,0,2021-08-06 13:55:24,454554
0,-1,-1,-4,-4,-2,-2,-1,2021-08-06 13:55:24,470536
-1,1,-2,1,0,0,0,-1,2021-08-06 13:55:24,470536
0,-1,-2,-2,-3,-2,-2,-1,2021-08-06 13:55:24,470536
0,-3,-3,-4,-7,-4,-2,-1,2021-08-06 13:55:24,470536
0,1,0,5,10,6,1,1,2021-08-06 13:55:24,470536
-1,0,0,-1,-1,0,0,-1,2021-08-06 13:55:24,470536
-2,-2,-1,-1,-1,0,-1,-1,2021-08-06 13:55:24,470536
-2,-1,-1,-3,-6,-4,-2,-3,2021-08-06 13:55:24,470536
-1,-1,-1,-1,-2,-1,-2,-1,2021-08-06 13:55:24,486536
-1,-1,-1,-1,1,0,-1,-1,2021-08-06 13:55:24,486536
0,-1,-1,0,0,-2,0,0,2021-08-06 13:55:24,486536
0,-1,0,-2,-1,0,-1,0,2021-08-06 13:55:24,486536
-2,-1,-1,-3,-1,-2,-1,1,2021-08-06 13:55:24,518497
-1,-2,-1,-1,-2,-1,-1,0,2021-08-06 13:55:24,518497
-1,-1,-1,0,1,0,-2,0,2021-08-06 13:55:24,518497
-3,-1,0,2,0,1,0,-2,2021-08-06 13:55:24,518497
-3,0,-3,-2,-3,-1,-2,2,2021-08-06 13:55:24,518497
-1,-1,-1,-1,-2,-1,0,1,2021-08-06 13:55:24,518497
-1,0,-1,2,-1,-2,-2,-2,2021-08-06 13:55:24,534498
0,-2,-2,-1,1,-1,0,-2,2021-08-06 13:55:24,534498
-1,-3,-5,-9,-12,-4,-3,-4,2021-08-06 13:55:24,566547
2,3,3,8,14,6,3,-1,2021-08-06 13:55:24,582533
0,1,0,5,6,6,2,2,2021-08-06 13:55:24,582533
-2,-1,-3,-2,-2,-2,0,-2,2021-08-06 13:55:24,582533
0,-2,-1,-1,-9,-7,-3,-1,2021-08-06 13:55:24,582533
-2,-2,-3,-7,-7,-4,-3,-1,2021-08-06 13:55:24,582533
0,0,0,1,6,3,1,0,2021-08-06 13:55:24,582533
1,0,2,5,7,3,-1,-1,2021-08-06 13:55:24,582533
-1,-2,-1,0,0,0,-1,0,2021-08-06 13:55:24,583533
-3,-2,-2,-3,-6,-5,-2,-2,2021-08-06 13:55:24,583533
-1,0,-1,-2,-3,-3,-1,-2,2021-08-06 13:55:24,598500
-2,-2,-1,-2,-4,-3,-2,0,2021-08-06 13:55:24,598500
1,1,-1,0,2,1,-1,-1,2021-08-06 13:55:24,614497
0,-1,-1,0,1,1,0,0,2021-08-06 13:55:24,629551
-1,-1,-1,-2,-3,-4,1,-2,2021-08-06 13:55:24,645500
-1,-1,-2,-2,-2,-1,-1,0,2021-08-06 13:55:24,645500
-1,0,1,0,1,0,0,-2,2021-08-06 13:55:24,645500
1,-2,-2,-1,-2,0,-1,-2,2021-08-06 13:55:24,645500
-1,0,-3,-3,-3,-2,-1,-1,2021-08-06 13:55:24,645500
1,0,0,1,1,2,1,-2,2021-08-06 13:55:24,645500
0,0,0,2,2,1,-1,-2,2021-08-06 13:55:24,645500
-1,-2,-3,-4,-4,-3,-2,-2,2021-08-06 13:55:24,645500
0,-1,0,-3,-1,-1,-2,-2,2021-08-06 13:55:24,646533
0,-1,-2,0,-2,-2,-2,0,2021-08-06 13:55:24,646533
-1,0,-1,-1,0,1,1,-1,2021-08-06 13:55:24,675498
0,1,0,0,-1,-2,-1,-2,2021-08-06 13:55:24,691499
-1,0,-1,-1,-1,-2,1,-1,2021-08-06 13:55:24,691499
0,-1,0,-2,-1,0,-1,0,2021-08-06 13:55:24,691499
-2,-1,-1,1,1,1,1,-1,2021-08-06 13:55:24,691499
-1,-2,-3,-3,0,1,-2,-1,2021-08-06 13:55:24,691499
-1,-2,-4,0,0,-1,0,-1,2021-08-06 13:55:24,692500
-1,-1,0,1,-2,-1,-1,-2,2021-08-06 13:55:24,692500
-1,-1,1,0,-1,-1,-3,-5,2021-08-06 13:55:24,707499
-1,1,0,1,-1,-1,-1,0,2021-08-06 13:55:24,723500
1,-1,0,0,-2,-1,-2,0,2021-08-06 13:55:24,723500
-1,1,0,-1,-1,-1,-1,1,2021-08-06 13:55:24,723500
-1,0,-3,-1,1,-1,-2,0,2021-08-06 13:55:24,723500
0,-1,-3,-1,-2,0,0,0,2021-08-06 13:55:24,723500
0,0,-1,0,-1,0,-2,0,2021-08-06 13:55:24,723500
-1,-2,-3,-1,0,0,0,0,2021-08-06 13:55:24,723500
-1,-1,-1,0,0,-1,-1,-1,2021-08-06 13:55:24,754042
-1,0,-2,-1,-1,0,-1,-1,2021-08-06 13:55:24,754042
-1,0,-1,-1,0,1,0,0,2021-08-06 13:55:24,770042
-2,-1,-1,-2,0,-2,-1,-1,2021-08-06 13:55:24,770042
-1,0,-1,0,1,-2,-1,-1,2021-08-06 13:55:24,770042
-2,-1,-2,0,-1,-2,-1,0,2021-08-06 13:55:24,770042
1,-1,-1,0,-1,-1,0,-1,2021-08-06 13:55:24,770042
-2,0,-2,-1,-2,-1,0,-1,2021-08-06 13:55:24,770042
-1,0,1,0,3,1,1,1,2021-08-06 13:55:24,786043
-1,-1,1,1,-3,-1,-1,-2,2021-08-06 13:55:24,802042
-2,-1,0,0,2,1,0,-2,2021-08-06 13:55:24,818041
0,-1,0,0,0,-1,0,-1,2021-08-06 13:55:24,818041
-2,-3,-2,-3,-2,-2,-2,0,2021-08-06 13:55:24,818041
-1,-2,-1,-1,-1,-2,-2,0,2021-08-06 13:55:24,818041
-2,1,0,0,0,0,-1,-1,2021-08-06 13:55:24,818041
0,0,1,0,-1,-2,0,0,2021-08-06 13:55:24,818041
-1,-1,-2,-4,-4,-1,-1,-1,2021-08-06 13:55:24,818041
1,0,2,2,6,3,2,0,2021-08-06 13:55:24,819042
-1,-2,-1,-1,-2,-3,-3,-2,2021-08-06 13:55:24,834041
-1,-1,-2,0,-1,1,-1,0,2021-08-06 13:55:24,834041
-1,0,-1,-1,-2,-2,-1,0,2021-08-06 13:55:24,850042
-1,-2,0,-1,-3,-3,-2,-2,2021-08-06 13:55:24,866043
-1,0,-1,-2,0,0,-2,0,2021-08-06 13:55:24,882042
0,0,1,-1,0,-1,-1,-2,2021-08-06 13:55:24,882042
0,-2,0,0,0,0,0,-1,2021-08-06 13:55:24,882042
-3,0,-2,0,-1,-2,-1,-1,2021-08-06 13:55:24,882042
2,-1,0,0,-2,-1,0,-1,2021-08-06 13:55:24,882042
1,-1,-2,-2,-1,-3,-1,-1,2021-08-06 13:55:24,882042
-1,-1,-3,-1,-4,-3,-1,-1,2021-08-06 13:55:24,882042
1,0,-1,5,9,4,2,0,2021-08-06 13:55:24,883042
-1,0,-1,-3,0,0,1,1,2021-08-06 13:55:24,898042
-1,-1,-1,-2,-1,-1,-2,-2,2021-08-06 13:55:24,914042
0,-1,-1,1,0,-1,0,0,2021-08-06 13:55:24,930043
-1,-1,-2,-3,-6,-3,-1,-2,2021-08-06 13:55:24,930043
-1,-1,0,4,3,3,1,0,2021-08-06 13:55:24,930043
-2,-2,0,0,0,-1,-1,0,2021-08-06 13:55:24,930043
-2,-2,-2,-3,-2,-1,-3,-1,2021-08-06 13:55:24,930043
-1,-1,0,-1,-1,0,-1,-2,2021-08-06 13:55:24,930043
-1,-1,-3,-2,-4,-1,-1,-1,2021-08-06 13:55:24,930043
0,1,-1,1,4,0,0,-1,2021-08-06 13:55:24,931042
-1,0,0,0,-2,-1,-2,-1,2021-08-06 13:55:24,946080
-1,-1,-1,-2,-1,-1,-2,0,2021-08-06 13:55:24,962043
-1,-3,-1,-1,-1,-2,-2,-1,2021-08-06 13:55:24,963042
-1,-2,-2,-1,-2,0,-1,0,2021-08-06 13:55:24,963042
0,0,0,-1,0,0,0,1,2021-08-06 13:55:24,963042
0,-2,0,-3,-1,-1,0,-3,2021-08-06 13:55:24,963042
0,1,-1,0,0,-1,0,0,2021-08-06 13:55:24,977090
-1,-1,-1,-1,-2,-1,-2,-1,2021-08-06 13:55:24,977090
0,0,0,1,3,0,0,-1,2021-08-06 13:55:24,993041
-3,-1,-2,-3,-3,-2,-1,0,2021-08-06 13:55:24,993041
-2,-1,-2,-2,-3,-1,-1,-1,2021-08-06 13:55:24,993041
0,1,0,-2,1,1,1,1,2021-08-06 13:55:24,993041
0,0,-1,-2,0,1,1,-1,2021-08-06 13:55:25,009042
1,-1,-1,-1,-2,-2,0,-2,2021-08-06 13:55:25,009042
-1,-2,-1,-1,-2,-2,0,0,2021-08-06 13:55:25,009042
-1,-1,-1,-3,-2,-2,-2,-1,2021-08-06 13:55:25,009042
-1,-1,-1,-2,-1,-2,0,0,2021-08-06 13:55:25,040281
-2,-1,-1,-2,-3,-1,-1,-2,2021-08-06 13:55:25,040281
0,-1,-1,0,-2,-1,0,-2,2021-08-06 13:55:25,040281
-1,-1,0,-2,-2,0,1,0,2021-08-06 13:55:25,040281
0,0,-1,-1,0,1,-1,1,2021-08-06 13:55:25,056042
-1,2,-2,-2,-2,-3,-3,1,2021-08-06 13:55:25,056042
-1,-1,0,0,-3,0,-1,-2,2021-08-06 13:55:25,056042
-1,-2,-2,-3,-8,-5,-2,-1,2021-08-06 13:55:25,056042
0,-3,0,0,3,3,0,-2,2021-08-06 13:55:25,072041
1,-1,0,2,0,-1,0,1,2021-08-06 13:55:25,088041
-3,-1,-1,-4,0,-1,-2,-3,2021-08-06 13:55:25,120042
-2,-1,-2,-1,-4,-1,-1,-1,2021-08-06 13:55:25,120042
-3,-4,-2,-3,-6,-5,-3,-2,2021-08-06 13:55:25,120042
-1,0,-2,2,2,2,-1,-2,2021-08-06 13:55:25,120042
-1,0,0,-2,-2,-1,-1,-1,2021-08-06 13:55:25,120589
0,-1,0,3,5,2,0,-1,2021-08-06 13:55:25,120589
0,1,-1,-1,-3,-3,0,-1,2021-08-06 13:55:25,120589
0,-1,0,-1,-3,-2,-2,0,2021-08-06 13:55:25,120589
-1,0,-2,0,-3,-3,-1,0,2021-08-06 13:55:25,120589
0,-1,0,0,0,1,0,-1,2021-08-06 13:55:25,121043
0,0,-2,1,0,0,-1,-1,2021-08-06 13:55:25,121043
-1,-1,-1,-3,-1,-1,-1,-3,2021-08-06 13:55:25,121043
2,-1,-2,-2,-4,-2,0,0,2021-08-06 13:55:25,152075
-2,-1,-1,1,4,0,1,-1,2021-08-06 13:55:25,152075
2,-1,1,4,6,4,2,0,2021-08-06 13:55:25,152075
1,0,-1,-2,-4,-2,0,0,2021-08-06 13:55:25,152075
-2,-2,-1,2,0,-3,1,0,2021-08-06 13:55:25,152075
0,1,-2,-1,-6,-4,-2,0,2021-08-06 13:55:25,152075
0,0,-1,2,6,2,0,0,2021-08-06 13:55:25,183111
-2,-2,-1,-1,-1,0,-1,1,2021-08-06 13:55:25,183111
0,-1,-1,1,0,1,-1,-2,2021-08-06 13:55:25,183111
-2,-2,-2,-4,-6,-3,-3,-2,2021-08-06 13:55:25,183111
-2,-1,-1,-2,-4,-2,-1,-1,2021-08-06 13:55:25,183111
2,1,-1,0,2,1,0,-1,2021-08-06 13:55:25,183111
0,-1,-1,-2,1,0,-1,-1,2021-08-06 13:55:25,199074
-1,-1,0,-1,-1,-1,-1,-2,2021-08-06 13:55:25,199074
-1,-2,-1,-6,-6,-4,-2,-1,2021-08-06 13:55:25,215108
-1,-1,-2,-4,-1,0,0,-1,2021-08-06 13:55:25,231118
0,-1,-2,0,-1,0,0,1,2021-08-06 13:55:25,231118
-1,-3,0,-2,-3,-1,0,-2,2021-08-06 13:55:25,247077
-1,-1,1,2,-1,-2,0,-2,2021-08-06 13:55:25,262075
-1,-2,0,2,2,1,2,1,2021-08-06 13:55:25,262075
0,-1,0,0,0,0,-2,-1,2021-08-06 13:55:25,262075
-1,-1,-3,0,1,0,-2,-2,2021-08-06 13:55:25,262075
0,-2,-3,-2,-2,-2,0,0,2021-08-06 13:55:25,262075
-2,-3,-1,-4,-5,-3,-2,0,2021-08-06 13:55:25,262075
-2,-1,-2,-4,-4,-3,-2,-1,2021-08-06 13:55:25,262075
0,1,1,5,10,3,2,1,2021-08-06 13:55:25,263075
0,-1,-1,-1,-2,-2,-2,-1,2021-08-06 13:55:25,263075
-2,0,-3,-1,-2,-3,-2,-1,2021-08-06 13:55:25,263075
-1,-3,-1,-3,-3,-2,-1,-1,2021-08-06 13:55:25,277075
0,1,-1,-1,0,1,-1,-1,2021-08-06 13:55:25,293075
-2,-1,0,-1,0,-1,0,-1,2021-08-06 13:55:25,309075
0,-1,0,0,-2,-1,-1,0,2021-08-06 13:55:25,323075
0,-1,1,2,5,0,1,0,2021-08-06 13:55:25,323075
0,-1,-1,-2,-1,-1,-2,0,2021-08-06 13:55:25,324077
-1,-1,-2,0,1,-1,0,0,2021-08-06 13:55:25,324077
0,-2,0,-1,-1,-2,-1,0,2021-08-06 13:55:25,324077
0,0,-1,-3,-2,0,-1,-1,2021-08-06 13:55:25,324077
0,-1,-2,-1,-2,-3,0,1,2021-08-06 13:55:25,324077
-1,1,-1,0,-2,1,0,-1,2021-08-06 13:55:25,324077
-1,-1,-1,0,-2,-1,1,-2,2021-08-06 13:55:25,324077
-1,-1,0,0,0,1,-1,-2,2021-08-06 13:55:25,340318
0,-1,-2,-2,-2,-1,0,-1,2021-08-06 13:55:25,356115
0,-1,0,-1,-2,-2,-2,1,2021-08-06 13:55:25,388076
-1,0,0,-1,0,1,-1,0,2021-08-06 13:55:25,403124
0,0,0,-2,-2,0,-1,0,2021-08-06 13:55:25,403124
1,-1,-1,0,-1,0,0,0,2021-08-06 13:55:25,403124
-1,-1,-2,0,-2,0,-2,-1,2021-08-06 13:55:25,419075
-1,-1,-2,0,0,0,-1,-1,2021-08-06 13:55:25,419075
-2,-1,-2,1,-2,1,-1,-1,2021-08-06 13:55:25,419075
-1,-2,2,-1,0,-2,-1,-2,2021-08-06 13:55:25,419075
-1,-1,1,-1,-3,-1,2,-1,2021-08-06 13:55:25,419075
1,0,1,-1,0,-2,-1,-2,2021-08-06 13:55:25,419075
-1,0,0,-2,1,-1,-1,1,2021-08-06 13:55:25,419075
-1,-1,0,-2,0,0,0,0,2021-08-06 13:55:25,420075
-1,-2,-1,-2,0,-1,-1,-1,2021-08-06 13:55:25,420075
-3,-1,0,-2,-1,-1,-1,0,2021-08-06 13:55:25,420075
-3,0,0,-1,0,-1,-1,-2,2021-08-06 13:55:25,420075
0,-1,-2,-1,-1,0,0,-2,2021-08-06 13:55:25,420075
-1,-2,-1,-1,-2,-1,0,-1,2021-08-06 13:55:25,434078
-1,-3,-2,0,-1,1,-1,1,2021-08-06 13:55:25,450076
-1,-1,0,0,1,-2,-1,-1,2021-08-06 13:55:25,465075
-2,0,-1,0,-2,-1,-2,0,2021-08-06 13:55:25,465075
-1,0,0,-2,-1,-2,-1,1,2021-08-06 13:55:25,465075
0,-1,-1,-1,-1,-1,-1,-1,2021-08-06 13:55:25,465075
0,-1,0,-1,-1,0,0,0,2021-08-06 13:55:25,465075
-1,-2,-2,0,-1,-1,-3,-1,2021-08-06 13:55:25,465075
0,0,-1,-1,-2,-2,-1,-2,2021-08-06 13:55:25,465075
1,-1,-3,-1,1,-1,-1,-1,2021-08-06 13:55:25,465075
-2,0,-1,-2,-1,-1,-1,-1,2021-08-06 13:55:25,466076
0,-1,1,0,-2,0,-1,0,2021-08-06 13:55:25,466076
0,-3,-2,-3,-9,-5,-2,-2,2021-08-06 13:55:25,496114
0,-1,-1,0,2,3,1,0,2021-08-06 13:55:25,496114
0,-1,1,7,9,4,1,0,2021-08-06 13:55:25,496114
-2,-2,-2,-4,-4,-3,-1,0,2021-08-06 13:55:25,496114
0,0,0,0,3,3,2,1,2021-08-06 13:55:25,511075
-1,-1,-1,-1,-1,-2,-2,-1,2021-08-06 13:55:25,526077
-1,-2,-1,-2,-4,-3,-1,-1,2021-08-06 13:55:25,526077
0,-1,-2,0,1,-1,-1,0,2021-08-06 13:55:25,526077
-2,-3,-3,-3,-5,-6,-5,-2,2021-08-06 13:55:25,526077
1,-1,0,-1,2,2,1,0,2021-08-06 13:55:25,526077
-2,-1,0,-1,0,-1,0,0,2021-08-06 13:55:25,526077
-1,-2,-3,-1,-1,-1,-1,-2,2021-08-06 13:55:25,526077
-3,-2,-1,-1,-2,0,-1,1,2021-08-06 13:55:25,557078
-2,1,0,2,0,0,1,0,2021-08-06 13:55:25,573074
0,0,-2,-3,-3,-2,-2,-1,2021-08-06 13:55:25,605125
-1,-1,1,1,1,1,1,-1,2021-08-06 13:55:25,605125
-1,-2,-3,0,1,0,0,-1,2021-08-06 13:55:25,605125
-2,-3,0,-4,-7,-4,-3,-3,2021-08-06 13:55:25,605125
0,-1,-2,-1,-4,-1,-2,-1,2021-08-06 13:55:25,605125
0,-1,-1,-1,-1,0,0,-2,2021-08-06 13:55:25,605125
-1,-1,-1,-1,0,0,-1,-1,2021-08-06 13:55:25,605125
0,0,1,2,5,3,2,2,2021-08-06 13:55:25,605125
-1,-3,-3,-3,-3,-1,0,0,2021-08-06 13:55:25,621088
-2,-1,-3,-3,0,0,-1,0,2021-08-06 13:55:25,621088
-2,-3,-1,1,0,0,0,-2,2021-08-06 13:55:25,621088
-5,-1,-2,-3,-8,-5,-3,-2,2021-08-06 13:55:25,621088
-1,1,0,1,0,-1,-2,-4,2021-08-06 13:55:25,621088
-1,2,1,1,1,0,0,0,2021-08-06 13:55:25,621088
2,0,0,-1,0,-1,0,-2,2021-08-06 13:55:25,621088
1,1,-4,-3,-3,-3,-1,-1,2021-08-06 13:55:25,621088
1,0,0,2,3,2,1,1,2021-08-06 13:55:25,637074
-1,-1,0,-3,-2,-1,-1,-2,2021-08-06 13:55:25,637074
0,1,0,1,1,1,0,0,2021-08-06 13:55:25,653130
-2,-2,-2,-4,-2,-2,-1,-2,2021-08-06 13:55:25,669075
-2,-1,-2,0,-2,-2,-2,-1,2021-08-06 13:55:25,682075
0,-1,0,-1,0,1,1,0,2021-08-06 13:55:25,682075
0,-2,0,2,2,0,-1,1,2021-08-06 13:55:25,683075
0,-2,-1,-1,-2,1,-2,-1,2021-08-06 13:55:25,683075
-1,-1,-1,-3,-2,-1,-2,-2,2021-08-06 13:55:25,683075
-3,0,-1,-3,-4,-4,-1,-2,2021-08-06 13:55:25,683075
-1,1,1,-1,5,3,-1,1,2021-08-06 13:55:25,683075
0,1,-2,1,-1,0,0,0,2021-08-06 13:55:25,683075
-2,-1,-1,-2,0,-2,-2,-3,2021-08-06 13:55:25,699075
1,0,0,4,8,4,1,-1,2021-08-06 13:55:25,715076
-2,0,-1,-2,-4,-2,-3,-1,2021-08-06 13:55:25,731075
0,-1,-2,-2,-4,-2,-4,0,2021-08-06 13:55:25,731075
0,0,-1,1,3,-1,1,1,2021-08-06 13:55:25,747111
0,-2,-1,-1,-3,-2,0,-2,2021-08-06 13:55:25,763076
-2,-1,-3,-2,0,0,0,-1,2021-08-06 13:55:25,778113
-1,-1,-1,-2,-1,-4,-1,0,2021-08-06 13:55:25,794076
0,-1,0,0,-1,0,-1,0,2021-08-06 13:55:25,809077
0,-2,-1,-1,0,-1,-3,-2,2021-08-06 13:55:25,809077
-1,0,-1,0,-1,1,0,-1,2021-08-06 13:55:25,809077
-2,-1,-2,0,1,-1,0,-2,2021-08-06 13:55:25,809077
-2,-3,-1,-4,-2,-3,-1,0,2021-08-06 13:55:25,809077
0,-2,-1,-1,-1,-2,-2,-1,2021-08-06 13:55:25,809077
-2,-1,-3,-4,-5,-3,-2,0,2021-08-06 13:55:25,809077
1,0,-1,1,1,1,0,0,2021-08-06 13:55:25,810112
0,1,0,2,5,3,2,1,2021-08-06 13:55:25,810112
-2,-1,-2,-2,-2,-1,-1,-2,2021-08-06 13:55:25,810112
-1,-1,0,-1,-2,-4,-1,-1,2021-08-06 13:55:25,810112
-1,-2,0,-1,-1,-3,-3,-1,2021-08-06 13:55:25,810112
-1,-2,-4,-7,-5,-3,-2,0,2021-08-06 13:55:25,810112
1,0,2,8,9,6,1,1,2021-08-06 13:55:25,810112
-1,-2,-1,1,-1,-1,-2,-2,2021-08-06 13:55:25,810112
-2,-2,-2,-3,-6,-2,1,-2,2021-08-06 13:55:25,825123
-1,1,2,4,6,2,0,-2,2021-08-06 13:55:25,841126
-1,-2,-4,-6,-7,-3,-2,0,2021-08-06 13:55:25,841126
0,-2,-2,1,1,1,-1,2,2021-08-06 13:55:25,841126
0,-2,0,0,-1,-3,-2,-2,2021-08-06 13:55:25,841126
-2,0,-1,-4,-9,-5,-1,-1,2021-08-06 13:55:25,841126
-1,0,-2,-3,-2,-1,-1,-2,2021-08-06 13:55:25,841126
1,0,1,1,2,2,1,-1,2021-08-06 13:55:25,857078
-1,-2,0,0,1,1,-1,-1,2021-08-06 13:55:25,873075
-1,-1,-1,-1,-2,-1,-2,-2,2021-08-06 13:55:25,873075
0,-1,-2,-2,0,-1,0,2,2021-08-06 13:55:25,873075
-1,-1,-1,-3,-2,-2,-1,0,2021-08-06 13:55:25,873075
0,-1,-2,0,-2,0,-1,1,2021-08-06 13:55:25,873075
-1,-1,0,2,1,0,-1,0,2021-08-06 13:55:25,873075
-2,1,-1,-2,-5,-4,-2,-2,2021-08-06 13:55:25,873075
-1,-1,-2,-2,3,3,0,-1,2021-08-06 13:55:25,889111
0,2,1,2,6,2,2,0,2021-08-06 13:55:25,889111
0,-1,-1,0,-2,-1,-1,0,2021-08-06 13:55:25,889111
1,-1,-2,-1,-4,-3,-2,0,2021-08-06 13:55:25,889111
-1,0,-1,-3,-2,-2,1,-2,2021-08-06 13:55:25,919075
-2,0,-2,-1,1,-1,0,-1,2021-08-06 13:55:25,919075
-1,-1,-2,-2,-3,-1,1,-1,2021-08-06 13:55:25,919075
-1,-2,0,-2,-2,-2,0,-3,2021-08-06 13:55:25,919075
-1,0,-1,-2,-3,-2,-3,-2,2021-08-06 13:55:25,935111
0,0,1,3,4,4,0,-1,2021-08-06 13:55:25,951077
1,-1,-1,0,0,2,1,0,2021-08-06 13:55:25,967124
-1,-1,-1,1,-1,0,-1,1,2021-08-06 13:55:25,967124
-1,-1,-1,0,-1,-2,-2,0,2021-08-06 13:55:25,967124
-3,-1,-2,-4,-4,-3,0,-1,2021-08-06 13:55:25,967124
-3,-3,-1,-2,-1,-4,-1,-1,2021-08-06 13:55:25,967124
-2,-1,-2,-3,0,-1,-1,1,2021-08-06 13:55:25,967124
-1,1,-1,0,-1,-1,-1,0,2021-08-06 13:55:25,967124
-1,0,1,0,1,1,0,1,2021-08-06 13:55:25,968114
0,0,0,-1,0,0,-1,0,2021-08-06 13:55:25,983112
-1,-1,-1,0,1,-2,-2,-1,2021-08-06 13:55:25,983112
-2,-1,-1,-1,-4,-2,0,-1,2021-08-06 13:55:25,983112
0,-2,0,1,3,0,1,-1,2021-08-06 13:55:25,983112
-1,-1,-1,-1,-3,-3,-1,-2,2021-08-06 13:55:25,999074
0,0,-1,-1,-1,0,0,-1,2021-08-06 13:55:25,999074
-2,0,-2,-3,-5,-1,-2,1,2021-08-06 13:55:26,015073
0,1,-2,1,3,0,-2,-1,2021-08-06 13:55:26,015073
-2,-1,-3,-1,-2,-1,-1,-1,2021-08-06 13:55:26,015073
-2,-1,0,0,-1,0,-1,-2,2021-08-06 13:55:26,015073
-1,-1,-1,-2,-1,-2,1,0,2021-08-06 13:55:26,031109
0,-2,-1,-4,-6,-3,-1,2,2021-08-06 13:55:26,031109
0,0,-1,0,1,0,-1,0,2021-08-06 13:55:26,031109
-2,-1,0,0,-2,-1,-2,-2,2021-08-06 13:55:26,031109
1,1,-1,1,3,2,1,-1,2021-08-06 13:55:26,047073
-3,-2,-2,-2,-5,-3,-1,0,2021-08-06 13:55:26,047073
0,-1,-1,-2,-3,-3,-1,0,2021-08-06 13:55:26,063102
2,-1,2,4,6,4,0,1,2021-08-06 13:55:26,063102
0,-1,0,1,1,1,-1,-2,2021-08-06 13:55:26,079073
-2,-1,-1,-2,-2,-1,-1,-2,2021-08-06 13:55:26,095075
-3,-2,-1,-2,-2,-2,-1,-2,2021-08-06 13:55:26,127075
-2,-1,-1,-1,-4,-4,-2,-2,2021-08-06 13:55:26,127075
-3,-1,0,-1,-1,-1,-1,0,2021-08-06 13:55:26,127075
1,-1,0,0,0,0,0,1,2021-08-06 13:55:26,127075
-1,0,-1,-3,-3,0,-1,0,2021-08-06 13:55:26,127075
0,0,-2,0,0,-1,-1,0,2021-08-06 13:55:26,127075
0,-1,-2,1,2,0,0,1,2021-08-06 13:55:26,127075
0,-2,-1,-3,-2,-3,-3,-3,2021-08-06 13:55:26,128075
1,0,1,2,7,4,2,2,2021-08-06 13:55:26,128075
-2,-1,-2,-2,-2,1,1,-1,2021-08-06 13:55:26,128075
-3,-2,-1,-1,-3,-1,-1,-1,2021-08-06 13:55:26,128075
-2,-1,-1,-1,0,0,0,-2,2021-08-06 13:55:26,128075
-1,0,-2,-2,-2,-1,-1,-2,2021-08-06 13:55:26,128075
-2,-2,0,2,-1,-1,-2,0,2021-08-06 13:55:26,128075
-1,-1,-2,1,0,-2,-1,-1,2021-08-06 13:55:26,158108
2,0,-1,2,2,2,2,-2,2021-08-06 13:55:26,174075
0,0,-2,0,-1,0,-1,-1,2021-08-06 13:55:26,174075
0,-1,-1,-5,1,-2,2,-1,2021-08-06 13:55:26,174075
-2,-3,-1,-1,-3,-1,-1,-2,2021-08-06 13:55:26,174075
-1,-1,-1,-2,-2,0,-2,1,2021-08-06 13:55:26,174075
1,-1,1,1,0,0,0,0,2021-08-06 13:55:26,174075
0,-1,-1,-1,-2,-1,0,-1,2021-08-06 13:55:26,174075
-2,-2,-1,-1,-1,-1,-1,-1,2021-08-06 13:55:26,206112
-2,-1,-3,-1,-2,-4,-1,0,2021-08-06 13:55:26,206112
-2,-1,-3,1,0,-1,-1,-2,2021-08-06 13:55:26,206112
-2,-2,-2,-4,-7,-3,-3,-1,2021-08-06 13:55:26,206112
1,1,0,-1,2,3,1,1,2021-08-06 13:55:26,222078
-2,-1,1,4,2,1,-2,0,2021-08-06 13:55:26,222078
-2,-1,-1,-2,-2,-1,-2,-2,2021-08-06 13:55:26,222078
-2,-2,0,0,0,0,1,-2,2021-08-06 13:55:26,222078
0,0,-1,0,-3,-2,-2,-1,2021-08-06 13:55:26,222078
0,-1,-1,-4,-2,-3,-3,-2,2021-08-06 13:55:26,222078
-1,1,0,1,1,0,0,0,2021-08-06 13:55:26,238075
-2,-2,-2,-4,-6,-5,-5,-1,2021-08-06 13:55:26,238075
1,0,2,4,9,5,3,1,2021-08-06 13:55:26,254075
-2,-1,-1,-1,-2,-1,0,-1,2021-08-06 13:55:26,254075
-1,0,-1,0,-2,-2,-2,-1,2021-08-06 13:55:26,254075
-1,-1,0,-1,-3,-3,-3,-1,2021-08-06 13:55:26,254075
-1,0,-3,-5,-3,0,-1,-2,2021-08-06 13:55:26,285075
1,1,2,2,2,1,2,1,2021-08-06 13:55:26,301126
-1,0,0,3,5,2,0,0,2021-08-06 13:55:26,301126
-1,0,-1,2,1,1,1,0,2021-08-06 13:55:26,301126
-1,-1,-3,-4,-3,-3,-2,-1,2021-08-06 13:55:26,301126
-1,0,-3,-4,-6,-2,0,-1,2021-08-06 13:55:26,301126
-2,-1,0,0,0,0,0,1,2021-08-06 13:55:26,301126
1,0,0,1,2,0,1,0,2021-08-06 13:55:26,301126
0,0,0,0,0,-2,-2,0,2021-08-06 13:55:26,317126
1,0,-1,-2,-1,0,-1,-1,2021-08-06 13:55:26,333109
-1,0,-1,-2,-1,-1,-1,-1,2021-08-06 13:55:26,333109
0,-1,-2,-1,0,-1,-2,-1,2021-08-06 13:55:26,333109
0,-3,-2,1,-1,-1,-2,-1,2021-08-06 13:55:26,333109
0,-2,-1,0,0,-1,0,0,2021-08-06 13:55:26,333109
1,-2,-1,-3,-3,0,0,-1,2021-08-06 13:55:26,333109
1,0,-2,-1,0,-1,-1,0,2021-08-06 13:55:26,333109
-2,-3,-1,-4,-7,-4,-2,-3,2021-08-06 13:55:26,365074
-1,-1,-1,1,2,-1,0,-1,2021-08-06 13:55:26,365074
1,0,-2,3,3,0,-1,-1,2021-08-06 13:55:26,365074
-1,-1,0,1,4,3,1,1,2021-08-06 13:55:26,365074
-1,0,-2,1,0,-1,-1,-1,2021-08-06 13:55:26,365074
-1,-1,0,-4,1,0,-1,1,2021-08-06 13:55:26,365074
-1,-1,0,-3,-5,-4,-1,-3,2021-08-06 13:55:26,381073
-1,-2,0,-1,0,1,0,0,2021-08-06 13:55:26,381073
0,1,0,-1,-1,-2,-2,1,2021-08-06 13:55:26,397075
-4,-1,0,-3,-2,-2,0,-1,2021-08-06 13:55:26,397075
-3,-2,-5,-6,-6,-5,-2,-2,2021-08-06 13:55:26,397075
0,3,3,8,7,3,1,0,2021-08-06 13:55:26,397075
-1,0,0,0,3,2,2,0,2021-08-06 13:55:26,429122
0,-1,-1,0,0,-1,-1,0,2021-08-06 13:55:26,429122
-2,-3,-1,-5,-5,-1,-2,-1,2021-08-06 13:55:26,429122
-1,-2,-1,-6,-5,-3,-2,-1,2021-08-06 13:55:26,429122
-2,-2,-2,0,1,-2,-2,-1,2021-08-06 13:55:26,429122
-1,-2,-2,1,-1,0,-1,-3,2021-08-06 13:55:26,429122
0,1,-2,0,1,-1,1,0,2021-08-06 13:55:26,429122
-1,-1,-2,-2,-1,-1,1,-1,2021-08-06 13:55:26,429122
-1,-1,0,0,0,0,1,0,2021-08-06 13:55:26,461074
-1,0,-1,-2,-2,0,0,-1,2021-08-06 13:55:26,476075
0,-3,-2,-3,-3,-1,-1,0,2021-08-06 13:55:26,492074
-2,-2,-1,0,-1,-1,-1,-1,2021-08-06 13:55:26,492074
0,0,-1,-3,-4,-1,-3,-2,2021-08-06 13:55:26,492074
1,1,2,7,11,5,3,1,2021-08-06 13:55:26,492074
0,-1,-1,-2,2,0,1,0,2021-08-06 13:55:26,492074
-2,-1,-2,-2,-3,-2,-2,-1,2021-08-06 13:55:26,492074
-2,-2,-1,-4,-4,-4,-2,-1,2021-08-06 13:55:26,492074
-1,-2,-1,-3,-5,-4,-3,-1,2021-08-06 13:55:26,493076
-1,1,1,-1,1,1,-1,-1,2021-08-06 13:55:26,493076
-1,-1,-2,-1,0,-1,-1,0,2021-08-06 13:55:26,493076
1,-1,-3,-1,-5,-2,1,1,2021-08-06 13:55:26,524077
0,-1,-2,0,2,2,0,0,2021-08-06 13:55:26,524077
0,-1,-2,2,6,2,2,1,2021-08-06 13:55:26,524077
-1,0,0,-3,-4,-2,-2,-1,2021-08-06 13:55:26,524077
-4,-2,0,2,2,0,-2,-2,2021-08-06 13:55:26,556129
-3,-1,-1,-2,-5,-3,-2,-2,2021-08-06 13:55:26,556129
1,0,1,1,-3,-4,-2,-2,2021-08-06 13:55:26,556129
0,0,0,0,0,0,-2,0,2021-08-06 13:55:26,556129
1,0,-2,2,1,-1,2,0,2021-08-06 13:55:26,556129
0,-1,-2,-1,-4,-3,-1,0,2021-08-06 13:55:26,556129
-3,-1,-1,-2,-2,-2,-3,-1,2021-08-06 13:55:26,556129
0,1,0,-1,1,0,-1,-1,2021-08-06 13:55:26,556129
0,-1,-2,-3,-4,-3,-3,-3,2021-08-06 13:55:26,572075
-1,0,-2,-4,-5,-3,-1,0,2021-08-06 13:55:26,572075
0,-2,0,4,8,4,-1,-1,2021-08-06 13:55:26,572075
-2,-3,-2,-5,-3,-3,0,0,2021-08-06 13:55:26,572075
-1,-2,1,1,1,1,0,1,2021-08-06 13:55:26,604076
-3,-1,-3,-3,-4,-4,-3,-2,2021-08-06 13:55:26,620075
-1,0,2,1,1,0,0,0,2021-08-06 13:55:26,636078
-2,-1,0,2,3,2,0,0,2021-08-06 13:55:26,636078
0,-2,0,-1,-2,-2,-2,0,2021-08-06 13:55:26,636078
-1,-1,-1,-1,-2,-1,1,0,2021-08-06 13:55:26,636078
0,-2,-1,-1,-5,-2,-2,0,2021-08-06 13:55:26,636078
-2,0,-3,-3,-4,-2,-1,-2,2021-08-06 13:55:26,636078
-1,-1,0,1,2,1,1,-1,2021-08-06 13:55:26,637115
-2,-1,-1,-2,-1,0,-2,-2,2021-08-06 13:55:26,637115
-2,-3,-1,-4,-7,-4,-2,-1,2021-08-06 13:55:26,637115
0,-2,1,2,3,1,0,0,2021-08-06 13:55:26,637115
-1,0,-1,-2,-1,-1,-2,0,2021-08-06 13:55:26,668114
2,0,-1,2,1,0,0,0,2021-08-06 13:55:26,684079
0,-1,-1,-3,-3,-2,0,-2,2021-08-06 13:55:26,700075
0,-1,-1,-1,-1,-1,0,0,2021-08-06 13:55:26,700075
-1,0,-1,0,0,-3,-1,-2,2021-08-06 13:55:26,700075
-1,-2,0,0,2,0,-1,-1,2021-08-06 13:55:26,700075
-1,-1,-2,-3,-3,0,-1,-1,2021-08-06 13:55:26,700075
-1,-1,-2,-2,-3,-2,-4,-1,2021-08-06 13:55:26,700075
-1,2,0,0,2,2,0,0,2021-08-06 13:55:26,700075
-1,0,0,-1,-2,-2,-1,0,2021-08-06 13:55:26,700075
-1,-1,-2,-1,0,0,-1,-2,2021-08-06 13:55:26,701114
-2,-1,-2,-3,-4,-3,-1,-1,2021-08-06 13:55:26,701114
0,-1,0,1,2,1,0,0,2021-08-06 13:55:26,716076
0,-1,-2,-3,-2,-2,-3,0,2021-08-06 13:55:26,716076
-1,-2,0,0,0,-2,0,-2,2021-08-06 13:55:26,716076
-2,-2,-2,-2,-4,-1,-2,-1,2021-08-06 13:55:26,716076
0,-2,-1,-4,-3,-2,-4,-1,2021-08-06 13:55:26,732111
1,0,0,0,-2,0,1,-1,2021-08-06 13:55:26,732111
0,1,-2,-1,-2,-2,-2,-1,2021-08-06 13:55:26,732111
-1,-2,-1,2,1,0,0,-1,2021-08-06 13:55:26,732111
1,-1,0,1,1,-1,1,1,2021-08-06 13:55:26,757074
0,-1,0,-1,0,0,0,-1,2021-08-06 13:55:26,763075
-1,-1,-1,1,2,1,0,-1,2021-08-06 13:55:26,763075
-1,0,-1,3,0,0,-2,0,2021-08-06 13:55:26,763075
-1,0,-1,-2,-3,-1,-1,0,2021-08-06 13:55:26,778109
-1,-2,-2,-3,-2,-2,-2,-1,2021-08-06 13:55:26,794076
-2,-2,-2,-1,-1,-1,-1,-1,2021-08-06 13:55:26,794076
-2,-1,-3,-5,-2,-3,-3,-2,2021-08-06 13:55:26,794076
0,-2,1,3,2,3,0,-2,2021-08-06 13:55:26,794076
-2,-1,0,0,2,1,0,-1,2021-08-06 13:55:26,794076
-1,-1,0,-2,-4,-1,-1,-1,2021-08-06 13:55:26,794076
0,1,0,1,2,0,1,0,2021-08-06 13:55:26,794076
-1,0,2,4,3,2,-1,-1,2021-08-06 13:55:26,825078
-1,0,-1,-1,-1,-1,1,0,2021-08-06 13:55:26,840076
-2,0,-3,1,0,-1,-1,-2,2021-08-06 13:55:26,840076
-2,-2,-1,-4,-5,-3,-3,-1,2021-08-06 13:55:26,840076
-1,-2,-2,-4,-4,-3,-2,0,2021-08-06 13:55:26,840076
-1,-1,-1,0,1,1,-1,0,2021-08-06 13:55:26,840076
-1,-2,0,1,0,0,0,-1,2021-08-06 13:55:26,840076
-1,0,0,-2,-1,0,1,-3,2021-08-06 13:55:26,840076
-1,-1,-3,-2,-2,-1,1,-1,2021-08-06 13:55:26,855076
-1,-2,-2,-2,-3,-1,-1,-1,2021-08-06 13:55:26,871105
-1,0,-2,-2,-1,-2,-1,0,2021-08-06 13:55:26,871105
1,-1,0,1,0,-1,0,-2,2021-08-06 13:55:26,871105
0,0,-2,-2,-2,-2,1,-1,2021-08-06 13:55:26,871105
-4,-1,-1,-5,-5,-4,-2,-3,2021-08-06 13:55:26,871105
1,1,0,4,8,4,2,2,2021-08-06 13:55:26,871105
1,0,2,1,2,0,-1,1,2021-08-06 13:55:26,871105
0,-3,-2,0,-3,-2,-1,-2,2021-08-06 13:55:26,903074
-1,-1,-2,-1,-1,-1,-2,-3,2021-08-06 13:55:26,919076
-2,-2,0,-3,-5,-3,0,-1,2021-08-06 13:55:26,919076
-1,-2,-1,0,0,0,0,0,2021-08-06 13:55:26,919076
-1,-1,-2,-1,-2,-2,-1,-2,2021-08-06 13:55:26,919076
0,-1,2,-1,2,3,-1,1,2021-08-06 13:55:26,919076
-1,-1,-1,-3,-2,-1,-2,-1,2021-08-06 13:55:26,919076
-2,-1,-4,-1,-4,-1,-1,-2,2021-08-06 13:55:26,919076
-2,1,0,0,2,2,0,1,2021-08-06 13:55:26,951075
-1,0,-2,-1,-2,-1,0,-2,2021-08-06 13:55:26,966102
-2,-2,-1,-1,1,-1,-3,-1,2021-08-06 13:55:26,982077
0,0,-2,-1,-2,-1,-1,0,2021-08-06 13:55:26,982077
-1,-1,-1,-2,-4,-3,-2,-2,2021-08-06 13:55:26,982077
0,0,2,1,-2,-1,-2,-1,2021-08-06 13:55:26,982077
-1,-1,-3,-6,-3,-3,-3,-1,2021-08-06 13:55:26,997111
-1,0,0,0,-1,1,0,-2,2021-08-06 13:55:27,013110
0,-1,1,0,4,1,1,1,2021-08-06 13:55:27,013110
-1,-3,-1,0,1,0,-1,0,2021-08-06 13:55:27,013110
-2,-3,-1,-1,-1,-3,0,-3,2021-08-06 13:55:27,013110
1,-2,0,-2,-2,-1,-1,-1,2021-08-06 13:55:27,013110
-2,-1,-2,-1,-1,0,-2,-1,2021-08-06 13:55:27,013110
-2,-1,-1,-1,0,-2,0,-1,2021-08-06 13:55:27,013110
-2,-2,0,0,-1,0,-1,-1,2021-08-06 13:55:27,013110
-1,-1,-1,0,0,-1,-1,-2,2021-08-06 13:55:27,014111
-1,-2,-2,-6,-7,-5,-3,0,2021-08-06 13:55:27,029075
0,0,1,6,8,3,1,0,2021-08-06 13:55:27,029075
1,1,0,4,3,4,2,0,2021-08-06 13:55:27,029075
-1,-1,-1,1,1,0,0,-1,2021-08-06 13:55:27,029075
0,0,-1,0,-2,-1,0,-1,2021-08-06 13:55:27,045112
-1,-1,-2,-4,-5,-5,-1,-1,2021-08-06 13:55:27,060114
-2,-3,-4,-4,-6,-4,-3,-1,2021-08-06 13:55:27,060114
-1,-1,-1,-4,-2,0,0,-2,2021-08-06 13:55:27,060114
-1,1,0,0,0,1,0,-1,2021-08-06 13:55:27,060114
0,-1,-1,-1,-2,-1,-1,-1,2021-08-06 13:55:27,060114
1,0,0,3,2,1,0,-1,2021-08-06 13:55:27,060114
-2,-1,-1,-3,-4,-4,-2,0,2021-08-06 13:55:27,060114
-1,0,-1,0,0,1,-1,-1,2021-08-06 13:55:27,076074
-1,-1,-1,-1,0,-2,-1,0,2021-08-06 13:55:27,092106
1,0,-3,-3,-6,-2,-1,0,2021-08-06 13:55:27,108076
-1,-1,0,0,-1,-1,-2,-1,2021-08-06 13:55:27,114101
-1,0,-1,-1,-1,-1,-1,-2,2021-08-06 13:55:27,115075
-2,0,0,0,-1,1,0,0,2021-08-06 13:55:27,115075
-1,-3,1,0,0,-2,0,-1,2021-08-06 13:55:27,115075
1,-1,-1,-1,1,0,0,1,2021-08-06 13:55:27,115075
0,-1,0,3,2,0,0,0,2021-08-06 13:55:27,115075
0,-2,-4,-3,-1,0,-1,0,2021-08-06 13:55:27,115075
-1,-3,-3,-4,-5,-2,-1,-1,2021-08-06 13:55:27,115075
-1,-1,-2,-2,0,0,-1,0,2021-08-06 13:55:27,116101
0,-3,-1,-3,-3,-2,0,-2,2021-08-06 13:55:27,140075
0,-1,0,3,4,1,0,0,2021-08-06 13:55:27,140075
2,1,1,1,2,2,1,1,2021-08-06 13:55:27,140075
-2,-2,-2,-5,-6,-4,-3,-1,2021-08-06 13:55:27,140075
0,-1,0,-2,-2,-2,-3,-1,2021-08-06 13:55:27,171112
-1,0,0,-1,-1,-2,0,-1,2021-08-06 13:55:27,171112
-1,2,1,1,2,1,0,0,2021-08-06 13:55:27,171112
-1,-1,0,1,2,0,-1,0,2021-08-06 13:55:27,171112
-2,-1,0,-2,-1,-1,-3,-2,2021-08-06 13:55:27,171112
-3,-1,0,-2,-3,-2,0,-2,2021-08-06 13:55:27,171112
-2,-2,-2,-3,-3,-2,-1,-1,2021-08-06 13:55:27,171112
0,-1,-1,1,0,-2,0,0,2021-08-06 13:55:27,171112
1,1,1,6,10,4,1,1,2021-08-06 13:55:27,202073
0,0,0,-4,0,-1,-1,0,2021-08-06 13:55:27,218109
0,-3,-1,-2,-5,-2,-2,-1,2021-08-06 13:55:27,234077
2,-1,0,1,0,-2,0,-2,2021-08-06 13:55:27,234077
1,0,0,3,2,0,0,0,2021-08-06 13:55:27,234077
-1,-3,-3,-1,-5,-1,-1,-2,2021-08-06 13:55:27,234077
-2,-2,-5,-10,-9,-8,-3,-2,2021-08-06 13:55:27,234077
-1,-1,-2,-1,-3,0,2,0,2021-08-06 13:55:27,234077
-2,-1,-1,-3,-6,-3,-2,0,2021-08-06 13:55:27,234077
1,1,1,3,2,0,1,1,2021-08-06 13:55:27,235109
-1,1,1,4,6,3,0,-1,2021-08-06 13:55:27,235109
0,1,-1,1,3,1,0,-1,2021-08-06 13:55:27,235109
-2,0,1,0,1,-1,0,-1,2021-08-06 13:55:27,266114
-2,-2,-4,-3,-3,1,0,-1,2021-08-06 13:55:27,282111
1,0,0,0,-1,0,-1,-1,2021-08-06 13:55:27,298092
-1,-1,1,3,1,2,-1,-1,2021-08-06 13:55:27,314076
-2,-3,-5,-9,-11,-5,-2,-1,2021-08-06 13:55:27,330073
-2,-4,-5,-11,-13,-8,-4,-4,2021-08-06 13:55:27,330073
-2,-1,-3,-5,-6,-5,-2,0,2021-08-06 13:55:27,330073
0,1,3,6,10,4,0,0,2021-08-06 13:55:27,330073
0,2,4,9,10,6,0,1,2021-08-06 13:55:27,330073
5,4,4,12,20,14,9,6,2021-08-06 13:55:27,330073
-6,-6,-11,-18,-27,-17,-5,-4,2021-08-06 13:55:27,331077
-5,-5,-7,-17,-17,-10,-6,-5,2021-08-06 13:55:27,331077
3,0,1,10,21,14,5,1,2021-08-06 13:55:27,331077
-2,1,-1,1,3,1,-2,-2,2021-08-06 13:55:27,331077
1,3,6,17,18,10,5,3,2021-08-06 13:55:27,331077
-1,-1,-4,-5,-6,-4,-4,-2,2021-08-06 13:55:27,331077
-3,-4,-5,-12,-19,-13,-7,-3,2021-08-06 13:55:27,345075
-1,-1,0,0,-1,-1,-2,-1,2021-08-06 13:55:27,345075
1,2,2,1,5,2,0,0,2021-08-06 13:55:27,345075
-1,0,-2,-1,-6,-3,-1,-2,2021-08-06 13:55:27,345075
-2,1,-1,-1,-2,-2,-2,-1,2021-08-06 13:55:27,360111
-1,-2,-2,-1,0,-3,-1,2,2021-08-06 13:55:27,360111
-1,-1,-2,-4,-4,-3,-2,-2,2021-08-06 13:55:27,360111
0,-3,-2,0,0,1,0,0,2021-08-06 13:55:27,360111
1,-2,-2,-2,0,1,1,0,2021-08-06 13:55:27,376111
-3,-3,-2,-3,-3,-2,-1,-3,2021-08-06 13:55:27,376111
-3,-2,-1,0,3,3,-1,-1,2021-08-06 13:55:27,376111
-1,0,2,1,3,1,1,0,2021-08-06 13:55:27,376111
-4,-1,-2,-1,-3,-1,-1,-3,2021-08-06 13:55:27,406074
-2,-2,-3,-7,-11,-8,-4,-3,2021-08-06 13:55:27,406074
1,2,4,10,12,7,3,1,2021-08-06 13:55:27,406074
1,1,1,4,3,1,2,1,2021-08-06 13:55:27,406074
0,-1,-3,-6,-8,-4,-2,0,2021-08-06 13:55:27,406074
0,0,-1,-3,-3,-2,-1,0,2021-08-06 13:55:27,406074
1,0,1,1,2,0,0,0,2021-08-06 13:55:27,406074
-1,-2,-1,-3,-5,-2,-2,1,2021-08-06 13:55:27,407078
-1,-3,-4,-7,-6,-4,-1,-3,2021-08-06 13:55:27,438110
0,-2,1,3,6,3,-1,-1,2021-08-06 13:55:27,454122
-1,-1,2,1,1,-1,0,0,2021-08-06 13:55:27,470139
-1,-2,-1,-1,-1,-2,-1,-2,2021-08-06 13:55:27,470139
0,-1,-2,0,-3,-3,-2,-1,2021-08-06 13:55:27,470139
1,0,0,0,0,-2,-1,0,2021-08-06 13:55:27,470139
-2,-2,-2,-3,-3,-1,-3,-1,2021-08-06 13:55:27,470139
-1,0,0,2,2,0,-1,-1,2021-08-06 13:55:27,470139
0,0,-1,2,2,2,2,-1,2021-08-06 13:55:27,471110
0,-1,0,-1,-3,-1,-2,-1,2021-08-06 13:55:27,471110
0,-1,-2,-1,-3,-3,-2,-1,2021-08-06 13:55:27,471110
-1,-2,-2,1,3,0,1,-1,2021-08-06 13:55:27,471110
0,0,-1,-2,-1,-2,0,0,2021-08-06 13:55:27,501128
0,0,2,-2,1,1,0,0,2021-08-06 13:55:27,517123
1,1,0,-1,0,0,1,0,2021-08-06 13:55:27,533076
-1,2,-1,-2,0,0,-1,-2,2021-08-06 13:55:27,548099
0,-2,3,6,6,4,0,0,2021-08-06 13:55:27,548099
-1,-1,-2,-2,-2,-1,-1,0,2021-08-06 13:55:27,548099
-3,-4,-7,-14,-14,-9,-3,-2,2021-08-06 13:55:27,548099
-1,-2,-3,-6,-8,-3,-2,-1,2021-08-06 13:55:27,548099
1,2,1,3,3,2,1,0,2021-08-06 13:55:27,548099
-2,0,0,2,-1,0,-1,-2,2021-08-06 13:55:27,549114
0,-1,1,6,5,5,-1,-1,2021-08-06 13:55:27,549114
1,0,0,3,4,2,0,2,2021-08-06 13:55:27,549114
-1,-1,-2,-3,-2,-2,-3,-3,2021-08-06 13:55:27,549114
2,-3,-1,-1,0,-2,-1,0,2021-08-06 13:55:27,549114
0,0,0,1,1,0,0,-3,2021-08-06 13:55:27,549114
-1,-2,-2,-1,-1,-1,-1,-1,2021-08-06 13:55:27,549114
0,0,0,-1,-2,0,1,-1,2021-08-06 13:55:27,580077
-2,-2,-1,-1,0,1,-1,-1,2021-08-06 13:55:27,580077
-1,-2,-1,-1,-2,-2,-1,-3,2021-08-06 13:55:27,580077
1,0,-1,-2,0,0,0,0,2021-08-06 13:55:27,580077
-2,-2,-2,-5,-6,-4,-1,-1,2021-08-06 13:55:27,596111
-1,-1,-2,-4,-4,-4,-1,-3,2021-08-06 13:55:27,596111
-1,-2,1,2,3,3,0,0,2021-08-06 13:55:27,596111
1,-1,0,3,1,0,-1,0,2021-08-06 13:55:27,596111
-2,-1,-1,-2,-2,-3,-1,-1,2021-08-06 13:55:27,628074
-2,-2,-3,-4,-4,-3,-2,-1,2021-08-06 13:55:27,628074
1,-1,-1,1,-1,-1,0,1,2021-08-06 13:55:27,628074
-3,0,0,0,0,0,-2,-2,2021-08-06 13:55:27,628074
0,-2,-2,-3,-5,-4,-1,-2,2021-08-06 13:55:27,644074
-1,0,-1,0,2,1,0,0,2021-08-06 13:55:27,644074
0,0,-1,0,0,-1,-1,-1,2021-08-06 13:55:27,644074
-2,-1,-2,0,-1,0,0,-1,2021-08-06 13:55:27,644074
0,-1,-2,0,1,-1,-1,-2,2021-08-06 13:55:27,660110
-2,-1,-1,0,0,-2,-2,-1,2021-08-06 13:55:27,676121
-1,-1,-1,-5,-4,-4,0,-1,2021-08-06 13:55:27,676121
0,-2,-1,-2,0,0,-1,-2,2021-08-06 13:55:27,676121
-1,0,0,3,5,1,1,1,2021-08-06 13:55:27,676121
-1,0,-2,0,-2,-1,0,0,2021-08-06 13:55:27,676121
-1,-3,-2,-1,-2,-2,-1,-2,2021-08-06 13:55:27,676121
-2,-2,-1,-1,-2,-1,0,0,2021-08-06 13:55:27,676121
-1,-4,-1,-1,-1,1,-1,-3,2021-08-06 13:55:27,706074
-1,-1,-4,0,-1,-2,-3,-2,2021-08-06 13:55:27,721073
-1,-1,-3,-1,-4,-4,-1,2,2021-08-06 13:55:27,736073
-1,-2,0,0,2,0,1,1,2021-08-06 13:55:27,752074
-1,0,2,3,4,2,1,1,2021-08-06 13:55:27,752074
0,-1,-1,-2,-4,-1,1,-2,2021-08-06 13:55:27,752074
0,0,-3,-1,2,1,0,-1,2021-08-06 13:55:27,752074
0,-1,1,0,0,-1,-2,-3,2021-08-06 13:55:27,752074
-2,-1,0,-2,-3,-1,0,0,2021-08-06 13:55:27,752074
-2,-1,0,0,-2,-1,0,-1,2021-08-06 13:55:27,752074
-2,-3,-4,-3,-4,-1,-2,-3,2021-08-06 13:55:27,752074
2,3,2,3,4,1,3,3,2021-08-06 13:55:27,753075
0,-2,-1,-1,0,-1,-1,0,2021-08-06 13:55:27,753075
-1,0,0,0,-1,0,-3,-1,2021-08-06 13:55:27,753075
-1,0,-1,-2,-2,-1,-1,-1,2021-08-06 13:55:27,753075
-1,0,-1,0,-2,-2,-2,0,2021-08-06 13:55:27,753075
0,0,-1,0,-1,0,0,0,2021-08-06 13:55:27,768075
-1,-1,1,2,0,1,0,0,2021-08-06 13:55:27,768075
-3,-3,0,1,-1,-1,-2,0,2021-08-06 13:55:27,768075
-2,-1,-2,-2,-2,-1,-1,-1,2021-08-06 13:55:27,768075
-1,1,-2,-4,-3,-3,-2,0,2021-08-06 13:55:27,800074
-1,0,0,0,1,-1,0,1,2021-08-06 13:55:27,800074
-1,0,1,1,1,0,-2,-1,2021-08-06 13:55:27,800074
-1,-2,-1,1,0,-1,0,-2,2021-08-06 13:55:27,800074
-2,-2,-2,-1,-1,1,-2,-1,2021-08-06 13:55:27,816102
-1,-1,-2,0,0,-1,-1,-1,2021-08-06 13:55:27,816102
1,3,2,1,2,2,2,-1,2021-08-06 13:55:27,816102
-1,-1,-1,-1,-1,-1,-2,-2,2021-08-06 13:55:27,816102
-1,-2,-1,-1,-4,-2,-1,-1,2021-08-06 13:55:27,831076
-1,-2,-1,-1,0,0,-1,1,2021-08-06 13:55:27,831076
-1,1,0,1,0,0,0,0,2021-08-06 13:55:27,831076
0,0,0,-3,-2,-2,-3,-2,2021-08-06 13:55:27,831076
1,0,-1,1,1,-1,2,1,2021-08-06 13:55:27,864076
1,-1,-1,-1,-2,-2,0,-1,2021-08-06 13:55:27,880113
-3,-1,-1,-4,-7,-6,-4,-2,2021-08-06 13:55:27,880113
0,-1,0,7,10,4,-2,0,2021-08-06 13:55:27,880113
-2,-2,-3,-1,0,-1,-2,-2,2021-08-06 13:55:27,880113
1,0,1,-4,-5,-3,0,1,2021-08-06 13:55:27,880113
-3,-1,0,1,5,2,2,-1,2021-08-06 13:55:27,880113
11,39,68,70,32,14,6,5,2021-08-06 13:55:27,880113
10,3,14,62,42,19,8,8,2021-08-06 13:55:27,896073
4,-19,-51,-22,-2,12,8,6,2021-08-06 13:55:27,896073
-38,-47,-62,-100,-102,-74,-40,-29,2021-08-06 13:55:27,896073
-8,-14,-42,-24,-28,-16,-8,-5,2021-08-06 13:55:27,896073
-3,3,11,-9,-4,-2,-2,-2,2021-08-06 13:55:27,927074
3,13,30,38,25,10,2,-2,2021-08-06 13:55:27,927074
13,16,22,56,41,25,12,8,2021-08-06 13:55:27,943075
5,8,25,20,13,9,6,4,2021-08-06 13:55:27,959077
2,5,0,-8,5,5,2,1,2021-08-06 13:55:27,975076
-7,-16,-20,-33,-14,-7,-4,-6,2021-08-06 13:55:27,975076
3,-1,-13,-22,-14,-7,-1,-1,2021-08-06 13:55:27,975076
-7,-7,-6,-10,-14,-13,-4,-3,2021-08-06 13:55:27,975076
5,4,8,14,11,8,4,1,2021-08-06 13:55:27,991075
-2,6,23,21,4,-2,-2,-2,2021-08-06 13:55:27,991075
2,7,15,21,17,13,3,-1,2021-08-06 13:55:27,991075
12,9,8,13,17,15,12,8,2021-08-06 13:55:27,991075
1,10,43,58,25,1,-5,-5,2021-08-06 13:55:27,991075
0,3,-14,42,5,4,0,0,2021-08-06 13:55:27,991075
-15,-31,-81,-66,-70,-27,-13,-10,2021-08-06 13:55:27,992076
-26,-48,-86,-36,-63,-41,-24,-18,2021-08-06 13:55:27,992076
-8,-15,-48,-18,-18,-7,-4,-6,2021-08-06 13:55:27,992076
2,10,43,47,22,4,0,0,2021-08-06 13:55:27,992076
22,33,64,79,68,40,22,16,2021-08-06 13:55:28,007075
5,5,23,-8,9,11,6,3,2021-08-06 13:55:28,023075
-1,3,11,-12,-13,-6,-1,-1,2021-08-06 13:55:28,023075
2,10,8,-8,3,1,1,-1,2021-08-06 13:55:28,023075
2,2,7,-5,8,4,2,1,2021-08-06 13:55:28,023075
-3,-4,-6,-18,-3,-3,-1,-2,2021-08-06 13:55:28,023075
-5,-2,-7,-5,-9,-8,-4,-4,2021-08-06 13:55:28,039074
-2,-8,-14,-22,-6,-2,-2,-2,2021-08-06 13:55:28,039074
1,2,5,-3,6,3,3,2,2021-08-06 13:55:28,039074
-2,-1,3,10,4,-1,-3,-3,2021-08-06 13:55:28,039074
0,-3,-13,-11,-6,1,2,4,2021-08-06 13:55:28,071074
-2,-4,-8,-25,-18,-12,-4,-2,2021-08-06 13:55:28,071074
0,2,10,16,9,3,-1,1,2021-08-06 13:55:28,071074
3,4,4,10,10,5,2,2,2021-08-06 13:55:28,071074
-3,-3,-7,-17,-10,-2,-1,-1,2021-08-06 13:55:28,071074
-3,-4,-4,-10,-6,-4,-3,-2,2021-08-06 13:55:28,071074
2,2,9,19,9,-1,-2,0,2021-08-06 13:55:28,087074
-3,-4,-8,-14,-7,-2,-1,-2,2021-08-06 13:55:28,103073
-3,-4,-5,-7,-9,-4,0,-1,2021-08-06 13:55:28,119073
0,1,4,11,5,1,-1,0,2021-08-06 13:55:28,119073
2,1,1,6,7,5,2,0,2021-08-06 13:55:28,119073
1,-1,1,-10,-4,0,1,0,2021-08-06 13:55:28,119073
-4,-3,-5,-5,-6,-6,-2,-1,2021-08-06 13:55:28,119073
-3,-3,-7,-1,-2,-3,-3,-3,2021-08-06 13:55:28,119073
0,4,6,7,2,0,0,-1,2021-08-06 13:55:28,119073
1,1,1,-6,-5,-3,-1,0,2021-08-06 13:55:28,120075
-1,0,-1,1,10,7,2,1,2021-08-06 13:55:28,135074
-2,0,1,-1,-4,-2,-1,-1,2021-08-06 13:55:28,151073
-4,-3,-2,-1,1,0,-1,-4,2021-08-06 13:55:28,167073
-1,-1,-1,1,-1,-5,0,-2,2021-08-06 13:55:28,181111
0,1,1,0,-7,-6,-4,-1,2021-08-06 13:55:28,181111
-1,1,-1,5,2,0,-1,1,2021-08-06 13:55:28,181111
-1,-2,-5,-15,-6,-2,-1,-1,2021-08-06 13:55:28,181111
0,1,10,16,13,5,2,0,2021-08-06 13:55:28,181111
1,-2,-2,3,-5,-5,-2,0,2021-08-06 13:55:28,182077
-1,-4,-13,-27,-10,-3,-2,-2,2021-08-06 13:55:28,182077
-2,0,10,8,6,-2,-4,-1,2021-08-06 13:55:28,182077
1,1,-9,16,9,7,3,1,2021-08-06 13:55:28,182077
-6,-9,-17,-52,-26,-10,-6,-4,2021-08-06 13:55:28,215124
-5,-5,-2,-8,-10,-10,-4,-1,2021-08-06 13:55:28,231124
2,5,-4,11,7,4,3,2,2021-08-06 13:55:28,231124
1,1,9,8,8,5,1,0,2021-08-06 13:55:28,231124
4,6,17,31,13,6,4,2,2021-08-06 13:55:28,231124
-3,-5,-8,0,-10,-7,-4,-2,2021-08-06 13:55:28,231124
1,-1,0,-12,1,0,0,1,2021-08-06 13:55:28,231124
-5,-4,-2,-1,-9,-8,-5,-4,2021-08-06 13:55:28,231124
6,8,14,25,24,12,5,5,2021-08-06 13:55:28,232077
2,4,8,11,7,4,1,1,2021-08-06 13:55:28,232077
-1,-2,-10,-16,-2,0,-1,0,2021-08-06 13:55:28,247077
-7,-9,-19,-35,-28,-15,-8,-6,2021-08-06 13:55:28,263100
-6,-6,-6,-21,-18,-9,-6,-4,2021-08-06 13:55:28,263100
1,2,5,15,10,4,2,-1,2021-08-06 13:55:28,263100
7,7,16,45,23,12,8,7,2021-08-06 13:55:28,263100
5,2,-7,-12,2,3,3,1,2021-08-06 13:55:28,263100
-7,-10,-18,-28,-19,-12,-5,-5,2021-08-06 13:55:28,279075
-2,-4,1,-3,-6,-6,-4,-4,2021-08-06 13:55:28,295077
0,2,13,3,-1,-2,-2,0,2021-08-06 13:55:28,311076
1,3,8,21,17,9,2,2,2021-08-06 13:55:28,327115
-1,-1,-2,1,-2,0,-1,-2,2021-08-06 13:55:28,343113
-3,-1,-13,-14,-10,-5,-1,-4,2021-08-06 13:55:28,359074
-6,-11,-18,-25,-17,-11,-7,-5,2021-08-06 13:55:28,375077
1,0,6,4,5,2,1,1,2021-08-06 13:55:28,391103
2,3,4,15,11,5,2,0,2021-08-06 13:55:28,391103
0,2,8,13,7,5,4,1,2021-08-06 13:55:28,391103
-3,-4,-5,-4,-2,-3,-3,-3,2021-08-06 13:55:28,391103
0,-1,3,6,6,2,0,-1,2021-08-06 13:55:28,391103
-2,-4,-13,-12,-10,-5,-3,-3,2021-08-06 13:55:28,391103
1,0,7,-4,-5,-4,-3,0,2021-08-06 13:55:28,391103
1,1,0,5,10,3,2,0,2021-08-06 13:55:28,392102
-2,2,3,-5,-7,-4,-3,-1,2021-08-06 13:55:28,392102
-1,-1,-11,-9,-6,-1,0,0,2021-08-06 13:55:28,392102
-2,-5,-2,-1,-6,-3,-3,-1,2021-08-06 13:55:28,392102
0,3,6,14,3,2,0,2,2021-08-06 13:55:28,392102
-2,0,-2,-5,3,2,1,0,2021-08-06 13:55:28,392102
-1,-1,0,1,-5,-3,-4,-2,2021-08-06 13:55:28,392102
-2,-3,-8,-28,-9,-5,-2,-1,2021-08-06 13:55:28,392102
0,3,4,4,1,1,1,2,2021-08-06 13:55:28,392102
0,1,-2,5,-1,0,-2,0,2021-08-06 13:55:28,392102
-4,-5,0,0,2,-2,-1,-1,2021-08-06 13:55:28,406074
1,0,-5,6,4,1,-1,-1,2021-08-06 13:55:28,421078
-1,-2,1,4,-1,0,-1,-3,2021-08-06 13:55:28,421078
-1,0,2,0,-1,1,1,0,2021-08-06 13:55:28,421078
-1,0,3,3,-5,-3,0,-1,2021-08-06 13:55:28,421078
0,-1,-5,-9,1,1,-2,-1,2021-08-06 13:55:28,421078
1,-3,-5,0,2,-2,2,-1,2021-08-06 13:55:28,421078
-2,-5,-6,1,-4,-4,-4,-1,2021-08-06 13:55:28,421078
-2,-2,3,2,-1,1,0,-1,2021-08-06 13:55:28,453124
-2,0,-3,-9,0,1,0,0,2021-08-06 13:55:28,453124
-1,0,-3,-3,-5,-4,-5,-2,2021-08-06 13:55:28,453124
0,2,5,3,-3,-3,1,-2,2021-08-06 13:55:28,453124
0,-1,-5,-10,-1,-3,-1,-2,2021-08-06 13:55:28,453124
0,1,13,22,6,1,-1,0,2021-08-06 13:55:28,453124
2,1,-5,-13,-2,3,1,3,2021-08-06 13:55:28,453124
-1,-6,-18,-28,-14,-6,-2,-1,2021-08-06 13:55:28,453124
-4,-3,6,-1,-1,-3,-3,-5,2021-08-06 13:55:28,484078
-1,-1,-7,8,-1,-2,2,0,2021-08-06 13:55:28,484078
-3,-4,2,7,0,1,-2,-3,2021-08-06 13:55:28,484078
-1,3,9,6,8,2,2,0,2021-08-06 13:55:28,484078
2,4,1,6,1,1,1,1,2021-08-06 13:55:28,515075
3,2,3,1,4,1,2,2,2021-08-06 13:55:28,515075
-3,-3,-2,1,-2,-2,-1,-2,2021-08-06 13:55:28,515075
0,0,-2,-4,1,3,1,1,2021-08-06 13:55:28,515075
-1,-5,-3,2,2,1,0,-2,2021-08-06 13:55:28,515075
-4,-3,2,-1,-6,-3,-4,-3,2021-08-06 13:55:28,515075
-2,0,-4,-2,-6,-4,-1,-2,2021-08-06 13:55:28,515075
0,-2,-1,4,6,3,-1,0,2021-08-06 13:55:28,515075
1,3,2,5,2,2,1,2,2021-08-06 13:55:28,537074
0,-2,-2,-3,4,3,1,-2,2021-08-06 13:55:28,537074
-3,-3,1,-2,-7,-5,-2,-1,2021-08-06 13:55:28,538077
-3,-1,4,15,4,-2,-2,-2,2021-08-06 13:55:28,538077
0,-1,-18,-26,-4,-2,1,-1,2021-08-06 13:55:28,563079
-5,-6,-10,-30,-18,-6,-6,-4,2021-08-06 13:55:28,579075
-2,-3,-7,-10,-4,-4,-2,-4,2021-08-06 13:55:28,594075
-1,0,3,6,-2,-3,-2,-1,2021-08-06 13:55:28,594075
0,2,7,17,7,1,0,-1,2021-08-06 13:55:28,594075
4,5,5,13,8,5,3,4,2021-08-06 13:55:28,594075
0,0,1,0,-1,0,0,-1,2021-08-06 13:55:28,594075
0,1,1,0,-3,-2,-1,0,2021-08-06 13:55:28,594075
-2,-4,-2,-2,-2,-2,-1,-2,2021-08-06 13:55:28,594075
2,5,7,18,13,6,4,1,2021-08-06 13:55:28,594075
1,2,5,9,1,3,2,1,2021-08-06 13:55:28,595112
-1,-4,-12,-30,-11,-2,0,1,2021-08-06 13:55:28,595112
-7,-10,-29,-35,-21,-13,-8,-5,2021-08-06 13:55:28,625075
-5,-4,0,2,1,-3,-3,-4,2021-08-06 13:55:28,641075
0,3,6,9,1,0,-1,0,2021-08-06 13:55:28,657077
3,4,9,16,10,7,3,-2,2021-08-06 13:55:28,673075
0,1,8,5,4,4,0,2,2021-08-06 13:55:28,689121
-1,2,10,18,3,-4,-3,-3,2021-08-06 13:55:28,689121
3,3,2,13,11,5,1,1,2021-08-06 13:55:28,689121
-4,-6,-19,-45,-20,-8,-4,-3,2021-08-06 13:55:28,689121
-5,-9,-3,-24,-18,-11,-6,-4,2021-08-06 13:55:28,689121
-1,-2,-20,-1,6,1,-1,-1,2021-08-06 13:55:28,689121
2,1,6,4,8,4,2,0,2021-08-06 13:55:28,689121
1,3,5,19,6,1,0,0,2021-08-06 13:55:28,690077
3,6,10,12,7,6,3,3,2021-08-06 13:55:28,690077
-2,-3,1,-12,-16,-7,-2,-1,2021-08-06 13:55:28,690077
-2,-1,-5,-1,0,0,-2,0,2021-08-06 13:55:28,690077
-3,-2,-1,5,2,0,-1,-1,2021-08-06 13:55:28,690077
2,1,3,8,7,3,2,0,2021-08-06 13:55:28,705111
-1,-1,1,-1,-3,-1,0,1,2021-08-06 13:55:28,721111
-1,0,-2,-12,-12,-7,-3,-2,2021-08-06 13:55:28,721111
1,3,3,5,2,2,-1,-1,2021-08-06 13:55:28,721111
-3,0,-3,5,8,3,0,-1,2021-08-06 13:55:28,721111
2,1,4,11,11,7,2,1,2021-08-06 13:55:28,721111
1,0,-4,-8,-10,1,0,0,2021-08-06 13:55:28,721111
-10,-14,-22,-59,-34,-22,-8,-8,2021-08-06 13:55:28,721111
1,1,0,10,3,-1,0,1,2021-08-06 13:55:28,753124
1,0,3,2,4,4,1,0,2021-08-06 13:55:28,769077
0,1,5,15,7,3,0,-1,2021-08-06 13:55:28,785096
2,5,11,30,15,7,2,0,2021-08-06 13:55:28,785096
-1,-2,-1,0,-5,-3,0,-1,2021-08-06 13:55:28,785096
2,3,-2,-6,5,2,3,1,2021-08-06 13:55:28,785096
-5,-5,-7,-18,-14,-7,-4,-3,2021-08-06 13:55:28,785096
0,2,5,14,11,4,2,1,2021-08-06 13:55:28,785096
1,1,11,6,4,2,1,0,2021-08-06 13:55:28,785096
-4,-4,-11,-4,-9,-5,-4,-2,2021-08-06 13:55:28,785096
-2,-5,-6,-6,-7,-4,-3,-3,2021-08-06 13:55:28,786077
1,0,-4,8,9,5,2,0,2021-08-06 13:55:28,786077
0,2,3,-4,-2,-1,0,-1,2021-08-06 13:55:28,801111
-2,-2,1,-17,-14,-6,-2,-3,2021-08-06 13:55:28,801111
-1,-3,-4,-12,-4,-4,-1,-2,2021-08-06 13:55:28,801111
-4,-5,-1,5,-5,-6,-3,-1,2021-08-06 13:55:28,801111
1,3,5,13,7,2,0,1,2021-08-06 13:55:28,816115
0,-2,-8,-8,-6,-1,-2,-1,2021-08-06 13:55:28,831124
-1,-3,-5,1,3,1,0,-1,2021-08-06 13:55:28,831124
3,2,3,6,2,3,1,2,2021-08-06 13:55:28,831124
-2,-5,-16,-18,-7,-2,-3,-1,2021-08-06 13:55:28,847111
-2,-1,4,-3,-7,-5,-5,-2,2021-08-06 13:55:28,863124
0,1,6,15,17,10,1,2,2021-08-06 13:55:28,879113
3,3,7,2,1,1,1,1,2021-08-06 13:55:28,893124
-3,-3,-8,-9,-5,-2,-2,-2,2021-08-06 13:55:28,893124
-2,-3,-2,2,-1,-3,-2,-1,2021-08-06 13:55:28,894075
0,0,0,2,-1,-2,-1,-1,2021-08-06 13:55:28,894075
0,-3,-6,-8,-6,-4,-2,-3,2021-08-06 13:55:28,894075
-1,-2,1,3,-2,-1,-1,-1,2021-08-06 13:55:28,894075
0,0,-1,-4,1,1,2,1,2021-08-06 13:55:28,894075
-1,-2,2,3,2,0,1,0,2021-08-06 13:55:28,894075
-4,-4,-8,-10,-6,-4,-4,-2,2021-08-06 13:55:28,894075
0,-1,2,3,-6,-3,-4,-2,2021-08-06 13:55:28,894075
2,2,10,12,7,3,4,1,2021-08-06 13:55:28,894075
-2,-1,-3,-2,-2,-2,-1,-1,2021-08-06 13:55:28,910074
-2,-3,-7,0,-1,0,-1,0,2021-08-06 13:55:28,910074
1,3,-8,-17,-7,-2,0,0,2021-08-06 13:55:28,925112
-3,-5,-2,-6,1,-1,-4,-4,2021-08-06 13:55:28,941125
-2,0,1,1,-6,-6,-3,-2,2021-08-06 13:55:28,941125
2,3,8,10,10,6,3,3,2021-08-06 13:55:28,941125
2,2,7,11,12,7,4,0,2021-08-06 13:55:28,941125
1,0,0,7,2,2,-1,-2,2021-08-06 13:55:28,941125
0,-1,-8,-9,-1,-3,0,0,2021-08-06 13:55:28,941125
-2,-3,-2,-1,-5,-3,-4,-1,2021-08-06 13:55:28,941125
-2,-3,-2,-10,-7,-3,-4,-1,2021-08-06 13:55:28,973097
-3,-4,-10,-19,-11,-6,-2,-2,2021-08-06 13:55:28,973097
-2,-1,-6,-6,-2,0,-2,-1,2021-08-06 13:55:28,973097
0,1,1,8,1,-3,-1,-2,2021-08-06 13:55:28,973097
3,7,9,18,8,5,5,1,2021-08-06 13:55:28,989112
-3,-2,-1,-8,-9,-4,-2,-1,2021-08-06 13:55:29,005114
2,4,7,6,9,4,2,2,2021-08-06 13:55:29,021114
-1,-1,2,5,10,5,0,-2,2021-08-06 13:55:29,021114
1,0,-3,4,1,-2,-1,0,2021-08-06 13:55:29,021114
-1,-3,-10,-4,-5,-2,1,0,2021-08-06 13:55:29,021114
-5,-5,-11,-24,-14,-4,-4,-3,2021-08-06 13:55:29,021114
-7,-5,-2,-12,-12,-7,-6,-4,2021-08-06 13:55:29,021114
1,1,13,17,8,2,1,1,2021-08-06 13:55:29,021114
3,7,7,15,9,6,4,2,2021-08-06 13:55:29,021114
1,0,-6,-15,0,2,0,1,2021-08-06 13:55:29,021114
-2,-6,-7,-13,-5,-3,-3,-3,2021-08-06 13:55:29,021114
-2,-4,-1,2,-5,-4,-3,-3,2021-08-06 13:55:29,069077
-1,-1,1,7,0,-2,0,-1,2021-08-06 13:55:29,085109
0,-2,-3,1,2,0,0,-1,2021-08-06 13:55:29,101108
2,2,-1,4,2,-1,-1,2,2021-08-06 13:55:29,101108
-3,-2,-3,-1,-1,-1,-2,0,2021-08-06 13:55:29,101108
0,-1,1,-11,-5,-2,-2,-2,2021-08-06 13:55:29,101108
-3,-2,2,6,-2,-4,-2,-3,2021-08-06 13:55:29,101108
-1,0,0,-4,-3,-2,2,1,2021-08-06 13:55:29,101108
-3,-4,-3,-2,-1,-3,-1,-1,2021-08-06 13:55:29,101108
1,5,6,8,4,3,2,4,2021-08-06 13:55:29,102111
1,0,-1,1,-3,-4,-1,-2,2021-08-06 13:55:29,102111
0,2,1,3,3,1,0,-2,2021-08-06 13:55:29,102111
0,2,3,4,0,-1,0,0,2021-08-06 13:55:29,102111
-5,-10,0,-32,-12,-3,-3,-4,2021-08-06 13:55:29,102111
-3,-4,-22,-11,-9,-5,-4,-1,2021-08-06 13:55:29,102111
-1,-2,-5,1,3,0,0,-1,2021-08-06 13:55:29,102111
-2,-1,-3,0,0,-1,-2,-3,2021-08-06 13:55:29,117077
0,4,11,19,5,1,0,0,2021-08-06 13:55:29,117077
2,4,14,14,4,3,1,1,2021-08-06 13:55:29,117077
1,0,-5,-1,2,3,1,0,2021-08-06 13:55:29,117077
-2,-7,-11,-17,-14,-8,-7,-4,2021-08-06 13:55:29,149078
-1,-2,-5,-14,3,4,-1,-1,2021-08-06 13:55:29,165076
-2,-1,4,5,1,-1,0,-3,2021-08-06 13:55:29,181124
0,1,-1,2,-1,-1,0,0,2021-08-06 13:55:29,181124
3,5,10,15,8,7,3,3,2021-08-06 13:55:29,181124
0,1,-2,-2,1,0,-2,-1,2021-08-06 13:55:29,181124
-2,-5,-6,-9,-9,-5,-2,-3,2021-08-06 13:55:29,181124
-1,-3,-1,1,1,1,-1,0,2021-08-06 13:55:29,181124
-4,-6,-10,-17,-15,-10,-5,-3,2021-08-06 13:55:29,181124
-2,-2,0,8,4,-1,-2,-2,2021-08-06 13:55:29,181124
1,0,5,-9,-7,-4,-1,-1,2021-08-06 13:55:29,181124
-1,2,7,8,2,0,0,0,2021-08-06 13:55:29,181124
1,2,2,15,12,8,3,1,2021-08-06 13:55:29,197114
2,0,-7,-14,-3,-2,1,1,2021-08-06 13:55:29,212111
-2,-4,1,-3,-3,0,-2,-3,2021-08-06 13:55:29,227073
-1,-2,-8,-9,-8,-4,-2,-1,2021-08-06 13:55:29,227073
-1,0,2,6,5,2,0,1,2021-08-06 13:55:29,227073
1,-2,-2,6,2,-2,-2,-1,2021-08-06 13:55:29,227073
1,0,3,1,0,1,1,2,2021-08-06 13:55:29,227073
1,-2,0,-2,-1,1,0,-2,2021-08-06 13:55:29,227073
-2,-1,-3,-6,-2,-3,-1,-1,2021-08-06 13:55:29,242078
-3,-2,-2,0,-3,-2,-1,-1,2021-08-06 13:55:29,242078
-2,0,0,-2,-2,-1,-2,1,2021-08-06 13:55:29,242078
-2,-2,0,-6,-10,-6,-4,-3,2021-08-06 13:55:29,242078
1,1,6,1,9,3,1,0,2021-08-06 13:55:29,258077
2,-1,-1,11,12,5,2,2,2021-08-06 13:55:29,274075
-1,-1,-2,1,-1,-1,1,0,2021-08-06 13:55:29,290076
1,3,8,3,6,5,3,3,2021-08-06 13:55:29,290076
0,-1,-10,4,3,1,2,0,2021-08-06 13:55:29,290076
-5,-5,-4,-25,-19,-11,-7,-5,2021-08-06 13:55:29,290076
-5,-5,-7,-1,1,-2,-5,-6,2021-08-06 13:55:29,290076
-1,0,3,8,1,-1,-1,0,2021-08-06 13:55:29,290076
0,-1,-2,-18,-13,-4,0,0,2021-08-06 13:55:29,306125
-1,4,16,7,2,-2,-1,-2,2021-08-06 13:55:29,322111
3,2,-9,5,-2,-1,2,3,2021-08-06 13:55:29,338077
-3,-11,-19,-18,-10,-5,-3,-3,2021-08-06 13:55:29,338077
-1,-2,6,6,13,7,2,0,2021-08-06 13:55:29,338077
-3,-8,-23,-1,-9,-6,-4,-3,2021-08-06 13:55:29,338077
1,0,5,11,12,7,3,-1,2021-08-06 13:55:29,354124
1,7,14,10,-3,-2,-1,-2,2021-08-06 13:55:29,354124
-1,3,4,-1,-4,-2,-2,0,2021-08-06 13:55:29,354124
0,3,6,4,-5,-1,-1,-1,2021-08-06 13:55:29,354124
2,4,3,0,7,1,1,1,2021-08-06 13:55:29,354124
-1,-1,9,7,-3,-2,0,-1,2021-08-06 13:55:29,354124
-1,-7,-13,-4,5,-1,-1,-1,2021-08-06 13:55:29,370119
-2,-5,-14,-10,-12,-3,0,0,2021-08-06 13:55:29,386077
-4,-6,-4,-10,-6,-4,-7,-3,2021-08-06 13:55:29,386077
0,-1,-10,8,12,8,3,0,2021-08-06 13:55:29,386077
-5,-6,-9,-42,-22,-10,-3,-4,2021-08-06 13:55:29,386077
-2,4,12,3,-8,-8,-3,-2,2021-08-06 13:55:29,386077
2,1,-3,5,0,-1,1,1,2021-08-06 13:55:29,386077
2,0,1,8,8,3,2,2,2021-08-06 13:55:29,386077
-1,0,4,27,8,5,0,-2,2021-08-06 13:55:29,402111
3,7,18,33,28,16,5,3,2021-08-06 13:55:29,402111
-4,-3,-7,-37,-23,-10,-5,-4,2021-08-06 13:55:29,402111
-1,1,1,-22,-6,-4,-4,-1,2021-08-06 13:55:29,402111
-1,-6,-21,-2,-3,-2,0,-1,2021-08-06 13:55:29,434111
-7,-12,-19,-15,-18,-15,-6,-6,2021-08-06 13:55:29,434111
-3,1,19,29,8,3,0,-1,2021-08-06 13:55:29,434111
3,3,-2,3,12,7,2,3,2021-08-06 13:55:29,434111
-5,-3,-3,-23,-21,-11,-6,-5,2021-08-06 13:55:29,434111
1,2,8,6,6,2,0,0,2021-08-06 13:55:29,434111
4,3,2,13,9,9,5,5,2021-08-06 13:55:29,450112
-2,-2,-5,3,1,2,1,-1,2021-08-06 13:55:29,450112
3,6,16,15,7,4,1,0,2021-08-06 13:55:29,466125
-5,-4,-9,-19,-18,-11,-6,-4,2021-08-06 13:55:29,482077
-1,-2,-6,2,4,4,3,1,2021-08-06 13:55:29,498077
-2,-1,5,-7,2,1,-2,-2,2021-08-06 13:55:29,513111
2,2,-7,13,10,3,2,0,2021-08-06 13:55:29,513111
0,-2,-5,1,-4,-1,1,1,2021-08-06 13:55:29,513111
-6,-10,-10,-24,-14,-11,-9,-5,2021-08-06 13:55:29,513111
-3,-1,5,-10,-13,-7,-5,-2,2021-08-06 13:55:29,513111
1,3,1,1,0,1,1,1,2021-08-06 13:55:29,513111
2,0,2,2,-1,-2,0,-2,2021-08-06 13:55:29,513111
1,1,-8,11,9,4,1,0,2021-08-06 13:55:29,513111
-4,-7,-3,-3,-9,-7,-4,-4,2021-08-06 13:55:29,513111
-6,-11,-17,-27,-14,-7,-3,-4,2021-08-06 13:55:29,529074
-4,-5,-7,-16,-7,-4,-2,-2,2021-08-06 13:55:29,529074
3,4,8,7,3,-1,1,-1,2021-08-06 13:55:29,529074
5,3,1,10,6,3,3,2,2021-08-06 13:55:29,529074
2,3,14,10,-8,-4,-2,-2,2021-08-06 13:55:29,545074
5,7,9,27,35,20,8,5,2021-08-06 13:55:29,545074
-1,-3,0,8,6,1,-1,-1,2021-08-06 13:55:29,545074
1,4,2,-15,-7,3,4,3,2021-08-06 13:55:29,545074
-2,-6,-15,-4,11,2,-1,-1,2021-08-06 13:55:29,561074
-1,-3,6,10,4,0,-1,-2,2021-08-06 13:55:29,577110
-2,0,6,9,-5,-6,-3,-3,2021-08-06 13:55:29,577110
-5,-9,-26,-42,-27,-14,-7,-6,2021-08-06 13:55:29,577110
-5,-4,-4,-24,-14,-8,-4,-4,2021-08-06 13:55:29,577110
-3,-4,-14,-9,-1,0,-1,-1,2021-08-06 13:55:29,577110
2,3,12,13,7,3,2,-1,2021-08-06 13:55:29,577110
1,8,26,29,7,-1,1,0,2021-08-06 13:55:29,577110
6,10,7,20,21,14,7,5,2021-08-06 13:55:29,604074
0,-4,-15,-11,1,1,0,0,2021-08-06 13:55:29,604074
-7,-12,-15,-28,-25,-16,-8,-5,2021-08-06 13:55:29,604074
-3,-1,1,-4,-7,-5,-4,-5,2021-08-06 13:55:29,604074
0,1,11,9,-5,-6,-5,-1,2021-08-06 13:55:29,625075
7,11,14,42,31,17,9,7,2021-08-06 13:55:29,641075
0,2,-7,-28,-14,-3,-1,-1,2021-08-06 13:55:29,656073
-1,-6,-11,-17,7,5,0,-1,2021-08-06 13:55:29,656073
-3,-1,1,15,4,0,-3,-4,2021-08-06 13:55:29,656073
-2,-1,-2,-8,-11,-5,-3,-1,2021-08-06 13:55:29,656073
5,7,15,24,15,9,5,2,2021-08-06 13:55:29,656073
3,0,-7,-7,0,1,-1,2,2021-08-06 13:55:29,656073
-4,-5,-5,-16,-12,-7,-5,-5,2021-08-06 13:55:29,656073
-6,-11,-25,-32,-24,-13,-7,-6,2021-08-06 13:55:29,656073
-4,-3,1,1,4,-2,-4,-3,2021-08-06 13:55:29,671078
2,5,10,22,11,8,2,2,2021-08-06 13:55:29,671078
4,4,17,11,0,1,2,1,2021-08-06 13:55:29,671078
-3,-2,-1,-5,-9,-6,-4,-3,2021-08-06 13:55:29,671078
7,3,1,30,26,14,6,7,2021-08-06 13:55:29,703111
1,1,3,10,8,3,3,0,2021-08-06 13:55:29,703111
-7,-11,-32,-43,-20,-10,-6,-5,2021-08-06 13:55:29,703111
-2,0,10,-10,-3,-3,-1,-1,2021-08-06 13:55:29,703111
-3,0,-1,-18,-13,-6,-4,-3,2021-08-06 13:55:29,703111
3,4,13,42,18,3,-1,2,2021-08-06 13:55:29,703111
8,12,26,40,11,10,5,7,2021-08-06 13:55:29,735111
-3,-6,-18,-42,-21,-10,-5,-5,2021-08-06 13:55:29,750078
-3,-8,-3,-29,-1,-1,0,-2,2021-08-06 13:55:29,765076
-7,-14,-37,-14,-13,-12,-5,-7,2021-08-06 13:55:29,765076
-2,-2,6,0,0,-2,0,0,2021-08-06 13:55:29,765076
0,4,8,21,5,1,-1,0,2021-08-06 13:55:29,765076
3,6,10,14,8,6,2,3,2021-08-06 13:55:29,765076
0,1,7,-7,-5,-1,1,0,2021-08-06 13:55:29,765076
0,1,-4,-1,-2,-4,0,-1,2021-08-06 13:55:29,765076
4,1,1,5,0,1,0,2,2021-08-06 13:55:29,765076
-7,-5,-9,-14,-20,-13,-8,-7,2021-08-06 13:55:29,766113
0,2,-2,6,17,8,0,2,2021-08-06 13:55:29,766113
-3,-4,-10,-23,-15,-4,-3,-2,2021-08-06 13:55:29,781151
4,4,9,14,13,8,5,4,2021-08-06 13:55:29,797151
1,3,0,7,17,10,4,2,2021-08-06 13:55:29,797151
-1,0,5,4,-6,-4,-2,-2,2021-08-06 13:55:29,797151
-2,-1,0,7,8,1,-1,0,2021-08-06 13:55:29,797151
-3,-5,-12,-5,-10,-7,-5,-3,2021-08-06 13:55:29,797151
-3,-5,-7,-1,-14,-6,-3,-2,2021-08-06 13:55:29,813150
-1,-2,-7,-36,-12,-4,0,-1,2021-08-06 13:55:29,813150
-1,-2,7,10,10,3,-2,0,2021-08-06 13:55:29,829151
-2,-2,5,7,-3,-3,-2,-3,2021-08-06 13:55:29,845142
4,8,13,13,-3,-3,-1,1,2021-08-06 13:55:29,861115
1,-2,0,12,9,6,2,1,2021-08-06 13:55:29,861115
-2,-4,-13,-18,-2,1,1,0,2021-08-06 13:55:29,861115
-7,-10,-10,-5,-7,-7,-5,-4,2021-08-06 13:55:29,861115
0,-4,-11,-7,-18,-11,-2,-2,2021-08-06 13:55:29,861115
0,4,2,4,6,7,2,0,2021-08-06 13:55:29,861115
0,0,3,-15,4,2,-1,-1,2021-08-06 13:55:29,861115
0,3,4,10,6,2,1,1,2021-08-06 13:55:29,862115
-2,-3,-1,-12,-10,-8,-4,-3,2021-08-06 13:55:29,862115
0,-2,4,-1,-17,-8,-3,-2,2021-08-06 13:55:29,862115
0,2,-4,18,9,1,1,0,2021-08-06 13:55:29,893153
-2,0,6,1,5,4,-1,-1,2021-08-06 13:55:29,909119
-1,0,-2,0,8,7,2,0,2021-08-06 13:55:29,941152
-4,-5,-8,-8,-4,-5,-3,-2,2021-08-06 13:55:29,941152
-3,-6,-3,-19,-23,-13,-6,-3,2021-08-06 13:55:29,957153
5,4,6,19,29,15,5,3,2021-08-06 13:55:29,957153
-1,-1,-1,-9,-7,-1,-2,-1,2021-08-06 13:55:29,957153
-3,-5,-5,-1,-16,-13,-5,-4,2021-08-06 13:55:29,957153
-1,-3,-7,1,-5,-6,-2,-2,2021-08-06 13:55:29,957153
-3,-5,-2,-19,-13,-6,-2,-2,2021-08-06 13:55:29,957153
0,-2,-20,5,24,12,5,2,2021-08-06 13:55:29,957153
-5,-4,4,-11,-23,-14,-9,-6,2021-08-06 13:55:29,958117
3,8,18,28,29,15,5,3,2021-08-06 13:55:29,958117
0,6,8,3,4,3,3,2,2021-08-06 13:55:29,958117
0,-1,0,-1,0,1,0,1,2021-08-06 13:55:29,958117
-4,-6,-11,-18,-17,-15,-9,-5,2021-08-06 13:55:29,958117
-2,-1,-4,1,-13,-9,-5,-3,2021-08-06 13:55:29,958117
1,4,13,5,1,2,0,1,2021-08-06 13:55:29,958117
-2,-1,-5,-17,-12,-8,-4,-2,2021-08-06 13:55:29,958117
1,-2,-9,6,28,17,6,2,2021-08-06 13:55:29,959115
3,3,6,-1,24,16,6,4,2021-08-06 13:55:29,989114
-5,0,4,3,-6,-7,-3,-5,2021-08-06 13:55:29,989114
-1,-2,-1,5,-19,-12,-5,0,2021-08-06 13:55:29,989114
0,1,0,-4,-1,4,4,2,2021-08-06 13:55:29,989114
-4,-11,-24,-6,3,0,-1,-5,2021-08-06 13:55:30,005154
0,0,-3,-3,6,3,2,0,2021-08-06 13:55:30,005154
-2,0,13,5,0,-4,-3,-2,2021-08-06 13:55:30,005154
-1,1,8,5,-11,-6,-4,0,2021-08-06 13:55:30,005154
1,3,5,4,6,6,4,1,2021-08-06 13:55:30,036115
0,-3,-7,-7,-8,-6,-5,-1,2021-08-06 13:55:30,036115
0,-1,-1,10,4,3,0,-1,2021-08-06 13:55:30,036115
0,-2,0,5,-2,-3,-2,0,2021-08-06 13:55:30,036115
1,5,7,6,-2,0,-2,0,2021-08-06 13:55:30,036115
1,0,-8,-21,-11,-5,-1,1,2021-08-06 13:55:30,036115
-7,-12,-6,-11,0,-1,-2,-3,2021-08-06 13:55:30,051163
-8,-7,-20,-15,-13,-12,-10,-7,2021-08-06 13:55:30,051163
5,6,20,27,7,6,6,5,2021-08-06 13:55:30,067163
7,8,9,26,22,17,8,5,2021-08-06 13:55:30,067163
-1,-4,-14,-30,-9,-4,-4,-2,2021-08-06 13:55:30,067163
-7,-10,-7,-23,-16,-9,-6,-6,2021-08-06 13:55:30,067163
-2,-3,-11,0,-6,-8,-4,-3,2021-08-06 13:55:30,083114
2,3,12,9,0,-3,0,0,2021-08-06 13:55:30,099116
1,2,2,6,-3,0,0,0,2021-08-06 13:55:30,115115
-1,-2,-5,1,8,7,3,1,2021-08-06 13:55:30,115115
-7,-8,-4,-15,-2,-1,-3,-6,2021-08-06 13:55:30,115115
3,0,-3,14,9,5,3,3,2021-08-06 13:55:30,115115
2,6,14,8,7,3,3,0,2021-08-06 13:55:30,115115
6,8,14,16,8,1,2,1,2021-08-06 13:55:30,115115
-3,-7,-5,-22,-30,-13,-6,-1,2021-08-06 13:55:30,115115
-7,-9,-29,-44,-19,-15,-7,-7,2021-08-06 13:55:30,115115
1,1,-1,21,27,15,6,2,2021-08-06 13:55:30,115115
4,7,7,16,17,11,7,5,2021-08-06 13:55:30,115115
-2,1,4,8,-10,-7,-3,-3,2021-08-06 13:55:30,146116
0,-1,12,12,5,2,0,-1,2021-08-06 13:55:30,146116
6,10,7,7,10,5,4,3,2021-08-06 13:55:30,146116
0,-3,-3,-15,-10,3,2,0,2021-08-06 13:55:30,146116
-7,-9,-20,-39,-20,-13,-7,-6,2021-08-06 13:55:30,177139
-5,-6,-11,-12,-16,-10,-5,-5,2021-08-06 13:55:30,192154
-2,2,19,20,5,-2,-2,-3,2021-08-06 13:55:30,208154
3,5,6,39,22,9,3,2,2021-08-06 13:55:30,208154
2,3,-6,-24,-8,2,2,4,2021-08-06 13:55:30,208154
-4,-8,-10,-22,-13,-8,-4,-4,2021-08-06 13:55:30,208154
-4,-8,-15,-6,-7,-5,-4,-3,2021-08-06 13:55:30,208154
6,8,20,16,10,7,7,5,2021-08-06 13:55:30,208154
-1,2,9,22,18,8,1,-1,2021-08-06 13:55:30,209161
-2,1,-12,-18,-14,-4,-3,-4,2021-08-06 13:55:30,209161
-3,-7,2,7,9,1,-3,-3,2021-08-06 13:55:30,209161
0,-3,-11,3,6,1,-1,0,2021-08-06 13:55:30,209161
-3,-5,-5,-8,-7,-2,-3,-3,2021-08-06 13:55:30,224116
-3,-2,0,2,1,-1,-3,-1,2021-08-06 13:55:30,239114
2,3,1,-13,-8,-3,0,1,2021-08-06 13:55:30,254151
0,2,4,-7,-7,-6,-1,-1,2021-08-06 13:55:30,254151
1,0,8,10,3,0,-1,-1,2021-08-06 13:55:30,254151
0,-1,-7,1,-6,0,0,0,2021-08-06 13:55:30,254151
-5,-7,-10,-13,-17,-7,-4,-4,2021-08-06 13:55:30,254151
-2,0,1,5,7,1,0,0,2021-08-06 13:55:30,254151
5,5,9,22,7,4,4,3,2021-08-06 13:55:30,269115
-5,-4,-6,-16,-8,-4,-3,-2,2021-08-06 13:55:30,269115
1,-1,-5,-13,-7,-4,1,1,2021-08-06 13:55:30,269115
-2,-3,0,-1,-3,-1,-1,0,2021-08-06 13:55:30,269115
-1,1,-3,-4,-1,-3,-2,-2,2021-08-06 13:55:30,299151
1,1,15,14,11,4,1,2,2021-08-06 13:55:30,299151
-3,-2,-11,0,-1,-2,-2,-2,2021-08-06 13:55:30,299151
-4,-5,-14,-31,-30,-12,-3,-3,2021-08-06 13:55:30,299151
0,-1,-3,2,16,9,1,0,2021-08-06 13:55:30,299151
1,2,9,13,4,3,0,0,2021-08-06 13:55:30,299151
-3,-1,1,-2,-14,-8,-6,-3,2021-08-06 13:55:30,300116
-1,-1,1,-6,0,-2,0,0,2021-08-06 13:55:30,300116
1,0,-2,9,8,4,3,1,2021-08-06 13:55:30,326113
1,1,-1,3,1,2,1,0,2021-08-06 13:55:30,326113
-3,-4,-3,-13,-12,-7,-5,-3,2021-08-06 13:55:30,327144
-5,-3,-4,0,-11,-9,-7,-6,2021-08-06 13:55:30,327144
2,2,5,5,4,1,1,2,2021-08-06 13:55:30,361630
0,1,1,-4,2,0,-1,1,2021-08-06 13:55:30,361630
1,4,4,22,25,12,7,4,2021-08-06 13:55:30,361630
3,4,2,-2,3,3,2,2,2021-08-06 13:55:30,361630
-2,-3,-5,-16,-7,-5,-3,-3,2021-08-06 13:55:30,361630
-11,-16,-19,-24,-31,-22,-13,-10,2021-08-06 13:55:30,361630
2,4,5,-5,-8,-2,1,3,2021-08-06 13:55:30,361630
1,2,12,39,38,16,4,2,2021-08-06 13:55:30,361630
-2,-3,5,-1,-4,-4,-3,-2,2021-08-06 13:55:30,393676
2,3,-3,3,15,10,6,3,2021-08-06 13:55:30,393676
-3,-4,-4,-15,-14,-6,-4,-4,2021-08-06 13:55:30,393676
-4,-8,-19,-23,-24,-13,-6,-6,2021-08-06 13:55:30,393676
-2,-4,-6,-5,-7,-3,-2,-2,2021-08-06 13:55:30,409629
4,4,13,25,45,18,8,4,2021-08-06 13:55:30,409629
5,8,16,30,23,11,5,4,2021-08-06 13:55:30,409629
2,3,10,16,13,9,3,1,2021-08-06 13:55:30,409629
-1,-2,-11,-22,-19,-10,-6,-4,2021-08-06 13:55:30,441633
-1,-3,-6,-22,-22,-10,-4,-2,2021-08-06 13:55:30,441633
-3,-7,-10,-16,0,-2,-2,-3,2021-08-06 13:55:30,441633
4,7,9,15,16,8,5,3,2021-08-06 13:55:30,441633
-4,-5,-5,3,-12,-9,-5,-3,2021-08-06 13:55:30,441633
4,7,11,21,10,3,3,2,2021-08-06 13:55:30,441633
1,3,11,8,-6,-4,-2,0,2021-08-06 13:55:30,441633
-3,-10,-34,-37,-14,-5,-4,-1,2021-08-06 13:55:30,442630
-7,-10,-10,-7,-5,-7,-5,-5,2021-08-06 13:55:30,473630
2,8,23,15,-2,-2,0,0,2021-08-06 13:55:30,489629
-2,-3,-14,-18,-15,-5,-5,-3,2021-08-06 13:55:30,505629
-2,-4,7,-19,-5,-5,-3,0,2021-08-06 13:55:30,505629
2,2,-9,25,25,15,7,2,2021-08-06 13:55:30,505629
0,-4,0,-1,3,2,0,1,2021-08-06 13:55:30,505629
-2,-1,-5,-5,-8,-4,-1,-3,2021-08-06 13:55:30,505629
-5,1,7,-6,-13,-9,-6,-3,2021-08-06 13:55:30,505629
1,1,5,-1,-7,-4,-1,0,2021-08-06 13:55:30,505629
-1,-1,-1,6,0,0,-1,-1,2021-08-06 13:55:30,505629
1,2,4,5,4,4,1,0,2021-08-06 13:55:30,506631
-1,-3,-11,-15,-16,-6,-1,-2,2021-08-06 13:55:30,506631
-3,-5,-3,-17,-13,-6,-3,-3,2021-08-06 13:55:30,537631
-2,-5,-7,9,7,4,-1,-3,2021-08-06 13:55:30,537631
-3,-4,-5,-3,-7,-5,-2,-2,2021-08-06 13:55:30,537631
-3,-1,-3,-7,-5,-3,-4,-2,2021-08-06 13:55:30,537631
5,7,12,15,15,9,5,4,2021-08-06 13:55:30,537631
6,7,6,18,20,16,10,4,2021-08-06 13:55:30,537631
-3,-4,-4,-11,-5,-4,-3,-3,2021-08-06 13:55:30,553669
-1,0,0,11,-2,-4,-3,0,2021-08-06 13:55:30,553669
1,6,9,-2,-5,-3,-1,0,2021-08-06 13:55:30,569631
-2,-8,-21,-27,-24,-10,-4,-1,2021-08-06 13:55:30,569631
4,4,11,25,35,17,7,4,2021-08-06 13:55:30,569631
-1,-4,-4,2,2,2,1,-2,2021-08-06 13:55:30,569631
-2,-5,-15,-15,-10,-7,-4,-2,2021-08-06 13:55:30,585631
0,0,4,14,-1,-4,-3,0,2021-08-06 13:55:30,585631
-7,-6,-10,-34,-30,-15,-7,-6,2021-08-06 13:55:30,585631
-1,-2,7,-4,2,-2,0,-2,2021-08-06 13:55:30,585631
2,4,10,17,11,4,2,1,2021-08-06 13:55:30,601680
6,8,11,31,33,20,8,3,2021-08-06 13:55:30,617631
1,-3,-7,-6,2,2,0,0,2021-08-06 13:55:30,649629
-3,-6,-7,-12,-15,-12,-7,-5,2021-08-06 13:55:30,665658
-5,-3,0,-7,-3,-1,-2,-2,2021-08-06 13:55:30,681630
-1,4,10,1,-9,-6,-3,-1,2021-08-06 13:55:30,681630
-1,-2,-10,4,-4,-2,-2,-1,2021-08-06 13:55:30,681630
1,-1,-3,7,23,14,8,3,2021-08-06 13:55:30,681630
-3,-10,-16,-15,-14,-8,-4,-5,2021-08-06 13:55:30,681630
-7,-6,-14,-15,-11,-9,-5,-5,2021-08-06 13:55:30,681630
5,8,19,21,7,3,2,3,2021-08-06 13:55:30,681630
-1,0,-3,-6,-9,-3,-1,-3,2021-08-06 13:55:30,681630
-3,-3,9,-18,-8,-4,-2,-2,2021-08-06 13:55:30,681630
-4,-5,-18,-14,-12,-9,-5,-4,2021-08-06 13:55:30,681630
-1,0,-5,1,-12,-9,-4,0,2021-08-06 13:55:30,682630
5,8,18,48,47,24,11,6,2021-08-06 13:55:30,682630
1,2,-2,-7,-8,0,-1,-2,2021-08-06 13:55:30,682630
-6,-9,-14,-43,-21,-11,-8,-5,2021-08-06 13:55:30,682630
-2,-3,2,12,18,7,4,0,2021-08-06 13:55:30,682630
-1,0,3,0,-9,-2,-2,-1,2021-08-06 13:55:30,682630
0,2,4,7,-2,-2,-1,0,2021-08-06 13:55:30,713660
2,1,4,17,11,2,2,1,2021-08-06 13:55:30,713660
0,-3,-10,-16,-5,-1,-2,-1,2021-08-06 13:55:30,713660
-5,-5,-5,-12,-3,-2,-3,-3,2021-08-06 13:55:30,713660
3,5,6,21,9,2,2,1,2021-08-06 13:55:30,729678
-1,-2,-3,-12,-27,-11,-3,-3,2021-08-06 13:55:30,729678
0,-1,-3,-9,9,4,5,1,2021-08-06 13:55:30,729678
-4,-5,-6,-7,-3,-6,-4,-4,2021-08-06 13:55:30,729678
1,1,1,16,14,7,3,2,2021-08-06 13:55:30,745632
-1,1,2,17,8,1,-2,-1,2021-08-06 13:55:30,761630
3,2,-3,-10,-15,-2,1,-1,2021-08-06 13:55:30,761630
-1,1,7,-6,-2,3,0,1,2021-08-06 13:55:30,761630
1,-1,-6,-18,-23,-11,-5,0,2021-08-06 13:55:30,761630
4,3,1,7,34,18,9,6,2021-08-06 13:55:30,761630
-8,-10,-5,-12,-19,-14,-9,-8,2021-08-06 13:55:30,761630
-7,-8,-30,-11,-11,-12,-8,-5,2021-08-06 13:55:30,761630
8,12,18,23,37,23,11,6,2021-08-06 13:55:30,777629
1,3,12,15,1,2,2,0,2021-08-06 13:55:30,777629
2,3,4,-3,-4,-4,0,0,2021-08-06 13:55:30,792629
-4,-6,-3,-20,-25,-13,-7,-6,2021-08-06 13:55:30,792629
-7,-7,-10,-10,-10,-9,-5,-6,2021-08-06 13:55:30,823629
0,2,1,-11,-7,-1,-1,2,2021-08-06 13:55:30,823629
2,5,15,23,19,11,4,1,2021-08-06 13:55:30,823629
4,1,-1,6,-13,-5,-1,1,2021-08-06 13:55:30,823629
-2,-5,-8,10,1,-1,-2,-1,2021-08-06 13:55:30,823629
-5,-9,-17,-46,-34,-14,-7,-3,2021-08-06 13:55:30,823629
-4,-4,-8,-13,5,3,0,-2,2021-08-06 13:55:30,823629
2,5,8,15,7,0,-2,0,2021-08-06 13:55:30,824632
4,8,11,25,24,11,6,4,2021-08-06 13:55:30,839630
0,0,2,16,27,12,4,1,2021-08-06 13:55:30,839630
-2,-6,-13,-29,-26,-9,-2,0,2021-08-06 13:55:30,855678
-6,-7,-5,-20,-24,-14,-6,-7,2021-08-06 13:55:30,855678
-4,-2,4,-15,-16,-10,-5,-4,2021-08-06 13:55:30,871631
-3,-2,-9,-3,-24,-12,-6,-3,2021-08-06 13:55:30,871631
9,11,14,39,54,25,12,7,2021-08-06 13:55:30,871631
1,4,7,15,11,9,3,2,2021-08-06 13:55:30,871631
-3,-5,-3,-8,-8,-5,-2,-3,2021-08-06 13:55:30,887633
-7,-7,-5,-17,-23,-15,-8,-6,2021-08-06 13:55:30,887633
1,2,4,5,-5,0,-1,0,2021-08-06 13:55:30,887633
5,5,1,33,49,26,12,6,2021-08-06 13:55:30,887633
-10,-12,-14,-34,-27,-13,-9,-9,2021-08-06 13:55:30,919632
2,0,0,7,6,0,2,0,2021-08-06 13:55:30,934630
2,6,4,-4,-11,-6,-1,1,2021-08-06 13:55:30,934630
1,4,5,0,-11,-5,-1,-1,2021-08-06 13:55:30,934630
1,0,-2,-12,9,2,2,-1,2021-08-06 13:55:30,934630
-6,-9,-16,5,5,3,-1,-4,2021-08-06 13:55:30,934630
-6,-8,-5,1,-11,-10,-8,-5,2021-08-06 13:55:30,934630
3,7,7,0,1,5,2,3,2021-08-06 13:55:30,934630
0,0,6,8,11,8,2,0,2021-08-06 13:55:30,949629
-1,-4,-10,-13,-15,-11,-5,-3,2021-08-06 13:55:30,949629
-1,-5,-3,7,-3,-3,-3,-2,2021-08-06 13:55:30,949629
-7,-5,-4,-8,1,0,-3,-5,2021-08-06 13:55:30,949629
9,11,26,32,26,15,8,7,2021-08-06 13:55:30,981629
4,5,0,11,12,10,6,5,2021-08-06 13:55:30,981629
-7,-11,-27,-49,-37,-18,-9,-7,2021-08-06 13:55:30,981629
-4,-6,-2,-11,5,-1,1,-2,2021-08-06 13:55:30,981629
-1,1,2,-2,-10,-2,-1,0,2021-08-06 13:55:30,981629
4,7,18,20,12,6,4,0,2021-08-06 13:55:30,981629
-1,1,5,21,0,-1,-1,-2,2021-08-06 13:55:30,981629
0,-5,-16,-25,-5,-3,0,0,2021-08-06 13:55:30,981629
-2,-3,-11,-2,-8,-6,-2,0,2021-08-06 13:55:31,028656
0,0,5,6,4,4,1,0,2021-08-06 13:55:31,028656
-5,-3,2,0,3,-1,-3,-4,2021-08-06 13:55:31,028656
2,3,7,2,-7,-2,-2,0,2021-08-06 13:55:31,028656
-2,-4,-23,-16,-9,-6,-3,-2,2021-08-06 13:55:31,028656
-3,-4,-1,-11,-10,-7,-2,-3,2021-08-06 13:55:31,028656
2,1,5,1,9,4,1,0,2021-08-06 13:55:31,028656
-6,-8,-5,0,-19,-12,-7,-7,2021-08-06 13:55:31,028656
2,3,3,28,22,10,3,1,2021-08-06 13:55:31,044631
6,14,22,17,28,19,10,5,2021-08-06 13:55:31,044631
-2,-5,-4,-9,-5,-1,-2,-3,2021-08-06 13:55:31,044631
-2,-2,-8,-36,-14,-8,-5,-2,2021-08-06 13:55:31,044631
-7,-9,-24,-21,-28,-20,-10,-5,2021-08-06 13:55:31,076629
-4,-3,0,7,-12,-7,-4,-3,2021-08-06 13:55:31,076629
5,7,11,25,40,20,10,5,2021-08-06 13:55:31,076629
-3,-5,-6,-15,-17,-12,-7,-5,2021-08-06 13:55:31,076629
-2,-2,3,-6,-16,-8,-5,-3,2021-08-06 13:55:31,076629
-4,-4,-5,-19,-17,-11,-6,-4,2021-08-06 13:55:31,076629
6,7,12,35,31,15,7,5,2021-08-06 13:55:31,092671
5,6,8,21,12,8,5,4,2021-08-06 13:55:31,092671
-3,-3,-7,-9,-2,0,0,-3,2021-08-06 13:55:31,108664
-3,-3,-6,-13,-16,-10,-6,-3,2021-08-06 13:55:31,108664
-7,-10,-18,-34,-33,-16,-7,-6,2021-08-06 13:55:31,108664
7,6,14,35,29,10,7,4,2021-08-06 13:55:31,124668
3,3,13,37,19,8,3,2,2021-08-06 13:55:31,124668
0,2,-12,-35,1,7,3,1,2021-08-06 13:55:31,124668
-6,-11,-13,-35,-26,-14,-8,-7,2021-08-06 13:55:31,124668
-8,-8,-5,-14,-14,-9,-6,-5,2021-08-06 13:55:31,124668
1,2,2,5,-15,-11,-4,0,2021-08-06 13:55:31,156632
4,5,11,47,31,12,8,5,2021-08-06 13:55:31,156632
1,3,-9,-25,0,2,2,2,2021-08-06 13:55:31,156632
1,0,-3,-4,9,11,5,0,2021-08-06 13:55:31,156632
-5,-10,-5,-2,-4,-6,-4,-6,2021-08-06 13:55:31,156632
-3,-5,1,10,-3,-2,-2,-2,2021-08-06 13:55:31,156632
-2,3,14,9,5,-1,-5,-2,2021-08-06 13:55:31,172631
2,6,0,14,2,-3,-3,1,2021-08-06 13:55:31,172631
-1,-1,2,-17,-4,2,2,-1,2021-08-06 13:55:31,188664
-1,-3,-11,-25,-12,-5,-3,-2,2021-08-06 13:55:31,204672
-4,-4,-4,14,2,-2,-4,-4,2021-08-06 13:55:31,220633
6,6,8,4,-1,2,3,3,2021-08-06 13:55:31,220633
2,3,7,22,9,4,1,1,2021-08-06 13:55:31,220633
-3,-7,-3,-21,-12,-7,-4,-2,2021-08-06 13:55:31,220633
-2,-4,-16,-34,-11,-4,-2,-1,2021-08-06 13:55:31,220633
-1,-1,-5,2,2,-1,0,0,2021-08-06 13:55:31,220633
-1,-1,4,9,-3,-5,-2,-1,2021-08-06 13:55:31,221667
1,1,4,7,12,4,1,0,2021-08-06 13:55:31,221667
1,0,4,17,4,0,1,0,2021-08-06 13:55:31,221667
0,-1,-5,-3,0,4,2,0,2021-08-06 13:55:31,221667
-2,0,-1,-19,-2,2,1,0,2021-08-06 13:55:31,268679
-3,-3,1,8,-3,-3,-3,-3,2021-08-06 13:55:31,284633
-1,0,1,8,-13,-10,-3,0,2021-08-06 13:55:31,284633
2,3,8,29,31,15,7,3,2021-08-06 13:55:31,284633
-2,-4,-6,-19,3,3,0,-2,2021-08-06 13:55:31,284633
-5,-8,-14,-28,-25,-14,-8,-6,2021-08-06 13:55:31,284633
-2,-1,-2,-9,-19,-11,-4,-3,2021-08-06 13:55:31,284633
-1,-1,1,2,-6,0,-1,0,2021-08-06 13:55:31,284633
2,6,10,20,21,10,3,3,2021-08-06 13:55:31,284633
1,-1,6,18,13,4,2,2,2021-08-06 13:55:31,284633
-4,-7,-16,-27,-37,-18,-7,-4,2021-08-06 13:55:31,314666
-2,-3,2,-2,-2,-3,-3,-4,2021-08-06 13:55:31,314666
-1,-6,-14,-13,-7,-1,0,0,2021-08-06 13:55:31,314666
1,2,4,3,16,10,3,1,2021-08-06 13:55:31,314666
1,3,2,1,9,5,1,0,2021-08-06 13:55:31,314666
-6,-7,-15,-26,-22,-14,-7,-5,2021-08-06 13:55:31,314666
2,5,12,16,-2,-1,1,1,2021-08-06 13:55:31,330629
4,5,11,30,25,9,5,3,2021-08-06 13:55:31,346629
-1,-5,-14,-24,-5,0,0,-1,2021-08-06 13:55:31,346629
-2,-3,1,2,1,-3,-3,-3,2021-08-06 13:55:31,346629
-3,-4,-9,-11,3,-1,-4,-3,2021-08-06 13:55:31,346629
-2,1,4,-5,-6,-2,-1,-1,2021-08-06 13:55:31,346629
4,5,7,14,4,3,2,2,2021-08-06 13:55:31,346629
-1,-4,-7,-10,-9,-7,-3,-3,2021-08-06 13:55:31,346629
-4,-3,-5,-11,-23,-13,-6,-4,2021-08-06 13:55:31,377631
2,4,5,22,12,7,2,1,2021-08-06 13:55:31,392665
3,8,17,35,35,18,5,4,2021-08-06 13:55:31,408667
0,-4,0,-9,-4,1,0,-1,2021-08-06 13:55:31,408667
-2,-5,-17,-46,-12,-3,0,-1,2021-08-06 13:55:31,408667
-7,-9,-17,-28,-27,-18,-9,-7,2021-08-06 13:55:31,408667
-1,-1,-2,3,-5,-9,-3,-2,2021-08-06 13:55:31,408667
0,3,15,18,-1,-3,-2,0,2021-08-06 13:55:31,408667
4,4,11,24,13,6,3,1,2021-08-06 13:55:31,408667
-1,-1,-2,14,25,15,6,0,2021-08-06 13:55:31,409667
-2,-4,2,-5,6,3,0,1,2021-08-06 13:55:31,409667
-6,-9,-25,-34,-30,-17,-9,-5,2021-08-06 13:55:31,409667
2,1,11,6,10,8,2,2,2021-08-06 13:55:31,424632
-1,-1,-1,-9,-13,-9,-5,-2,2021-08-06 13:55:31,424632
2,2,-3,4,0,1,2,2,2021-08-06 13:55:31,424632
-1,-2,4,10,19,11,3,-1,2021-08-06 13:55:31,424632
0,0,-5,8,7,4,2,0,2021-08-06 13:55:31,455629
-3,0,3,-9,-10,-8,-4,-3,2021-08-06 13:55:31,470629
1,1,1,17,11,6,3,0,2021-08-06 13:55:31,470629
-2,-4,-6,-14,-19,-9,-4,-1,2021-08-06 13:55:31,470629
0,1,0,-3,-6,-3,-2,1,2021-08-06 13:55:31,470629
0,0,4,4,7,3,0,0,2021-08-06 13:55:31,470629
-5,-4,-14,-29,-23,-8,-3,-4,2021-08-06 13:55:31,470629
-6,-7,-10,-15,-16,-15,-9,-5,2021-08-06 13:55:31,470629
-3,0,5,14,-5,-4,-3,-1,2021-08-06 13:55:31,486665
1,-1,0,9,6,3,1,0,2021-08-06 13:55:31,502631
0,3,-2,-6,-3,1,0,0,2021-08-06 13:55:31,502631
7,8,7,14,19,17,10,6,2021-08-06 13:55:31,502631
-7,-13,-18,-43,-33,-19,-8,-7,2021-08-06 13:55:31,502631
