EMG 1,EMG 2,EMG 3,EMG 4,EMG 5,EMG 6,EMG 7,EMG 8,Timestamp,Milliseconds
-7,-9,-9,-47,-11,-3,-6,-5,2021-08-06 13:57:22,495375
-7,-12,-28,-24,-13,-9,-8,-7,2021-08-06 13:57:22,495375
-4,-2,-1,-14,-36,-25,-12,-6,2021-08-06 13:57:22,495375
10,11,23,55,59,28,11,6,2021-08-06 13:57:22,495375
0,-1,-5,-9,-8,-1,-1,1,2021-08-06 13:57:22,495375
-1,-2,2,-7,-5,1,0,-1,2021-08-06 13:57:22,495375
-8,-10,-14,-40,-27,-15,-9,-8,2021-08-06 13:57:22,495375
1,1,-2,4,5,4,1,1,2021-08-06 13:57:22,495375
4,4,4,10,-24,-12,-2,0,2021-08-06 13:57:22,495375
0,0,3,13,19,11,2,0,2021-08-06 13:57:22,495375
-1,-3,-5,3,25,13,5,0,2021-08-06 13:57:22,511372
1,2,2,-19,-21,-10,-3,-1,2021-08-06 13:57:22,511372
-1,0,4,4,3,-2,-2,-4,2021-08-06 13:57:22,527412
-2,0,-7,-4,-33,-21,-8,-2,2021-08-06 13:57:22,527412
-7,-7,-10,-18,-7,-4,-4,-4,2021-08-06 13:57:22,527412
0,-1,-8,-7,0,3,1,-1,2021-08-06 13:57:22,527412
-5,-5,-8,-16,1,-2,-1,-2,2021-08-06 13:57:22,559372
4,5,9,10,10,5,5,4,2021-08-06 13:57:22,559372
-1,3,8,18,0,-5,-3,0,2021-08-06 13:57:22,559372
1,3,3,8,8,6,2,0,2021-08-06 13:57:22,559372
2,2,3,13,2,4,2,3,2021-08-06 13:57:22,559372
-8,-8,-8,-15,-11,-4,-7,-7,2021-08-06 13:57:22,559372
-2,-3,-1,-14,-1,1,0,-1,2021-08-06 13:57:22,607373
1,6,11,18,6,-1,-3,0,2021-08-06 13:57:22,607373
-1,2,4,9,2,2,1,1,2021-08-06 13:57:22,607373
-3,-3,3,0,-16,-7,-4,-5,2021-08-06 13:57:22,607373
6,8,12,40,29,12,5,6,2021-08-06 13:57:22,607373
-2,-8,-22,-53,-14,-5,-3,-3,2021-08-06 13:57:22,607373
-2,-6,-6,-13,-7,-2,0,1,2021-08-06 13:57:22,608373
-8,-8,-18,-24,-14,-10,-8,-6,2021-08-06 13:57:22,608373
-3,-2,0,9,-9,-8,-5,-4,2021-08-06 13:57:22,620407
2,4,10,16,-8,-2,0,1,2021-08-06 13:57:22,620407
2,3,4,1,15,6,3,-1,2021-08-06 13:57:22,639371
0,-3,9,-11,11,6,0,0,2021-08-06 13:57:22,639371
1,1,-7,6,-4,-3,-1,0,2021-08-06 13:57:22,639371
-1,0,6,21,6,1,1,0,2021-08-06 13:57:22,639371
-1,1,-8,-13,-29,-14,-5,-3,2021-08-06 13:57:22,655421
1,3,0,7,17,9,3,1,2021-08-06 13:57:22,655421
-2,-1,-4,-13,5,3,-1,-2,2021-08-06 13:57:22,655421
-6,-6,-3,3,0,-4,-4,-5,2021-08-06 13:57:22,655421
5,10,20,38,32,12,7,4,2021-08-06 13:57:22,687373
1,2,0,19,-20,-12,-5,1,2021-08-06 13:57:22,687373
-5,-7,-18,-55,-21,-9,-6,-2,2021-08-06 13:57:22,687373
-5,-8,-7,-19,-2,0,-2,-4,2021-08-06 13:57:22,687373
-3,-1,8,35,14,3,-3,-2,2021-08-06 13:57:22,703372
3,5,7,1,-3,-1,2,3,2021-08-06 13:57:22,703372
2,1,2,0,-3,2,1,-1,2021-08-06 13:57:22,703372
-10,-18,-43,-91,-40,-15,-10,-8,2021-08-06 13:57:22,703372
-8,-14,-20,-34,-21,-12,-11,-8,2021-08-06 13:57:22,719372
10,9,8,46,42,23,13,9,2021-08-06 13:57:22,719372
0,4,25,36,1,0,-1,0,2021-08-06 13:57:22,719372
4,5,2,28,13,7,4,3,2021-08-06 13:57:22,719372
-7,-8,-5,-43,-32,-15,-10,-6,2021-08-06 13:57:22,751371
-8,-6,-17,-35,-19,-15,-7,-7,2021-08-06 13:57:22,751371
12,14,28,52,57,32,14,10,2021-08-06 13:57:22,751371
4,9,18,39,9,2,3,3,2021-08-06 13:57:22,751371
5,5,7,20,11,8,6,5,2021-08-06 13:57:22,751371
-7,-11,-10,-11,2,0,-3,-6,2021-08-06 13:57:22,751371
-8,-10,-17,-51,-30,-15,-9,-4,2021-08-06 13:57:22,751371
3,5,-6,-3,12,5,3,2,2021-08-06 13:57:22,751371
0,3,14,33,14,4,0,0,2021-08-06 13:57:22,783372
1,-2,-4,-7,-10,-5,-2,-2,2021-08-06 13:57:22,783372
-5,-5,-17,-29,-15,-8,-4,-4,2021-08-06 13:57:22,783372
-1,-2,9,17,3,-1,-1,-2,2021-08-06 13:57:22,783372
-5,-4,-6,-18,-25,-16,-7,-6,2021-08-06 13:57:22,798373
4,5,8,18,11,10,4,2,2021-08-06 13:57:22,798373
-2,-3,-9,-2,14,9,3,0,2021-08-06 13:57:22,798373
0,-3,4,-6,-2,0,0,0,2021-08-06 13:57:22,798373
0,-1,-3,-5,-8,-7,-4,-2,2021-08-06 13:57:22,830371
-1,1,1,-3,-6,0,1,1,2021-08-06 13:57:22,845372
-3,-6,-6,-1,-18,-9,-4,-3,2021-08-06 13:57:22,861372
6,10,17,34,42,22,10,7,2021-08-06 13:57:22,861372
9,10,10,36,28,20,12,6,2021-08-06 13:57:22,861372
-7,-7,-11,-40,-20,-15,-9,-5,2021-08-06 13:57:22,861372
-8,-11,-16,-28,-35,-21,-9,-9,2021-08-06 13:57:22,861372
-3,-1,-1,-2,0,0,-2,-3,2021-08-06 13:57:22,861372
3,2,0,0,-9,-1,2,3,2021-08-06 13:57:22,877373
5,7,5,-6,0,-1,0,2,2021-08-06 13:57:22,877373
-2,-2,5,16,0,-5,-5,-5,2021-08-06 13:57:22,877373
-4,-4,5,7,-6,-6,-2,-1,2021-08-06 13:57:22,877373
1,1,-8,3,18,12,6,2,2021-08-06 13:57:22,877373
0,2,-6,0,-6,-1,1,1,2021-08-06 13:57:22,877373
-10,-14,-20,-56,-47,-27,-15,-8,2021-08-06 13:57:22,877373
0,3,2,5,-2,1,1,-2,2021-08-06 13:57:22,877373
-2,-3,-5,-10,1,3,-1,1,2021-08-06 13:57:22,893375
-1,1,13,35,17,4,1,-1,2021-08-06 13:57:22,893375
3,2,3,13,-3,1,3,1,2021-08-06 13:57:22,893375
-7,-8,-17,-38,-45,-25,-13,-8,2021-08-06 13:57:22,893375
-2,-1,3,5,15,8,4,1,2021-08-06 13:57:22,925372
3,0,1,6,14,5,2,1,2021-08-06 13:57:22,941371
-1,3,7,10,-4,-5,-2,-1,2021-08-06 13:57:22,957372
0,2,1,0,-4,-2,-2,-1,2021-08-06 13:57:22,957372
-3,-4,-2,-4,2,-5,-5,-3,2021-08-06 13:57:22,957372
-2,-4,-10,-19,-30,-13,-5,-2,2021-08-06 13:57:22,957372
1,0,3,-27,4,4,2,1,2021-08-06 13:57:22,957372
3,2,-20,10,39,25,11,6,2021-08-06 13:57:22,957372
-6,-6,-2,-19,-20,-14,-9,-7,2021-08-06 13:57:22,957372
-10,-11,-15,-4,-22,-11,-7,-7,2021-08-06 13:57:22,957372
5,10,25,46,36,17,9,2,2021-08-06 13:57:22,958373
3,4,19,31,15,8,1,2,2021-08-06 13:57:22,958373
4,3,3,8,8,4,2,2,2021-08-06 13:57:22,982372
1,4,9,6,12,3,1,1,2021-08-06 13:57:22,982372
-2,-2,-2,21,1,-4,-2,-1,2021-08-06 13:57:22,983374
-8,-11,-16,-45,-55,-28,-12,-7,2021-08-06 13:57:22,983374
-1,-5,-13,-42,11,7,1,-1,2021-08-06 13:57:23,005371
-5,-7,-5,-9,-2,-2,0,-1,2021-08-06 13:57:23,005371
-1,0,-6,8,8,4,1,0,2021-08-06 13:57:23,005371
-4,-3,6,11,-3,-4,-3,-2,2021-08-06 13:57:23,005371
4,6,12,28,6,2,1,2,2021-08-06 13:57:23,020372
3,3,1,3,9,8,5,3,2021-08-06 13:57:23,036372
-4,-5,-11,-32,-12,-5,-4,-3,2021-08-06 13:57:23,052372
-1,-1,1,-2,-2,-1,-1,-1,2021-08-06 13:57:23,068371
-2,1,2,-2,-14,-10,-5,-4,2021-08-06 13:57:23,068371
7,7,14,42,27,13,5,3,2021-08-06 13:57:23,068371
-6,-8,-20,-39,-42,-22,-9,-5,2021-08-06 13:57:23,068371
4,1,7,6,51,28,11,4,2021-08-06 13:57:23,068371
-1,-2,-10,0,3,1,-1,-1,2021-08-06 13:57:23,068371
-4,-1,4,-3,-17,-10,-7,-5,2021-08-06 13:57:23,068371
5,5,10,24,5,2,2,2,2021-08-06 13:57:23,068371
3,2,-1,18,23,11,4,1,2021-08-06 13:57:23,068371
-4,-8,-17,-44,-19,-9,-5,-5,2021-08-06 13:57:23,083373
-1,1,4,8,16,8,2,1,2021-08-06 13:57:23,083373
-1,-3,-3,-5,-14,-5,-2,-1,2021-08-06 13:57:23,083373
-3,-1,0,-11,-32,-20,-9,-5,2021-08-06 13:57:23,083373
3,6,11,47,40,18,8,4,2021-08-06 13:57:23,114373
-2,-3,-9,-17,-20,-9,-4,-2,2021-08-06 13:57:23,130372
1,0,-3,-13,8,5,1,1,2021-08-06 13:57:23,130372
-3,-3,-1,-15,-14,-8,-3,-2,2021-08-06 13:57:23,130372
-6,-7,-12,-13,-21,-13,-7,-5,2021-08-06 13:57:23,130372
-6,-7,-4,-15,-22,-16,-8,-6,2021-08-06 13:57:23,130372
17,21,30,70,62,37,21,17,2021-08-06 13:57:23,130372
3,4,3,11,17,11,5,2,2021-08-06 13:57:23,130372
-7,-9,-20,-49,-27,-11,-8,-5,2021-08-06 13:57:23,146372
-6,-7,-6,-23,-10,-7,-7,-5,2021-08-06 13:57:23,146372
-5,-5,2,7,-9,-10,-4,-5,2021-08-06 13:57:23,146372
6,9,15,28,8,0,0,3,2021-08-06 13:57:23,146372
3,1,-3,13,-7,-1,3,3,2021-08-06 13:57:23,162373
-7,-13,-25,-82,-41,-18,-9,-7,2021-08-06 13:57:23,162373
-4,-3,-6,10,18,0,-2,-3,2021-08-06 13:57:23,162373
7,10,17,39,28,16,7,6,2021-08-06 13:57:23,162373
5,6,13,15,13,8,3,3,2021-08-06 13:57:23,178371
-3,-5,-4,9,-3,-4,-4,-4,2021-08-06 13:57:23,178371
-1,-2,2,20,3,-2,-2,0,2021-08-06 13:57:23,178371
0,1,8,5,-5,-3,-2,-1,2021-08-06 13:57:23,178371
1,-2,-18,-42,-28,-9,-2,0,2021-08-06 13:57:23,194373
-4,-10,-26,-50,-1,0,-2,-3,2021-08-06 13:57:23,194373
-9,-11,-4,-24,-22,-13,-7,-6,2021-08-06 13:57:23,194373
2,3,1,30,29,11,5,1,2021-08-06 13:57:23,194373
3,7,22,42,17,8,2,2,2021-08-06 13:57:23,226373
7,12,6,13,11,8,4,4,2021-08-06 13:57:23,226373
-3,-5,-12,-30,-18,-6,-4,0,2021-08-06 13:57:23,226373
-8,-7,-7,-19,-28,-18,-9,-6,2021-08-06 13:57:23,226373
-2,0,11,20,10,1,1,-2,2021-08-06 13:57:23,242371
8,10,19,34,23,13,9,8,2021-08-06 13:57:23,258372
-1,1,-10,-4,1,1,-2,-2,2021-08-06 13:57:23,258372
-9,-12,-16,-37,-39,-19,-9,-7,2021-08-06 13:57:23,258372
-2,-2,-2,-7,-4,-4,-3,-3,2021-08-06 13:57:23,258372
4,4,11,43,39,19,7,2,2021-08-06 13:57:23,258372
0,0,0,-13,-10,-2,-1,-2,2021-08-06 13:57:23,258372
-4,-6,-11,-23,-20,-12,-6,-5,2021-08-06 13:57:23,258372
1,-2,-3,2,7,4,2,1,2021-08-06 13:57:23,290372
-2,0,5,0,-11,-8,-3,-2,2021-08-06 13:57:23,290372
1,0,-3,3,12,4,2,0,2021-08-06 13:57:23,290372
2,3,2,20,24,13,5,2,2021-08-06 13:57:23,290372
-2,-1,3,7,-15,-9,-2,-1,2021-08-06 13:57:23,290372
-3,-4,-7,-17,-7,-1,-2,-1,2021-08-06 13:57:23,290372
-4,-7,-12,-27,-10,-4,-4,-4,2021-08-06 13:57:23,306372
-5,-5,-15,-39,-22,-12,-5,-5,2021-08-06 13:57:23,322371
0,-1,1,-7,-7,-4,-1,1,2021-08-06 13:57:23,337373
4,8,21,47,23,10,8,4,2021-08-06 13:57:23,337373
3,4,4,15,3,0,-1,0,2021-08-06 13:57:23,337373
4,0,-4,-6,3,6,2,2,2021-08-06 13:57:23,337373
3,3,8,5,25,13,6,4,2021-08-06 13:57:23,350373
-4,-3,-5,-4,-14,-9,-4,-5,2021-08-06 13:57:23,350373
2,1,1,15,14,7,4,1,2021-08-06 13:57:23,350373
-1,-1,1,8,-1,-3,-2,0,2021-08-06 13:57:23,350373
-5,-5,-13,-26,-23,-14,-9,-7,2021-08-06 13:57:23,350373
-3,-5,-4,-8,-12,-3,-2,-1,2021-08-06 13:57:23,350373
3,7,10,18,21,6,3,2,2021-08-06 13:57:23,369373
-1,-3,-4,-7,-2,1,1,-1,2021-08-06 13:57:23,385371
-4,-4,-1,4,9,4,-1,-1,2021-08-06 13:57:23,401373
-4,-4,-4,-8,-14,-11,-7,-4,2021-08-06 13:57:23,401373
2,4,3,2,-9,-3,1,3,2021-08-06 13:57:23,401373
-1,-4,-1,-11,0,-1,1,-1,2021-08-06 13:57:23,401373
-7,-9,-16,-19,-16,-10,-8,-7,2021-08-06 13:57:23,401373
1,-1,0,11,10,6,1,0,2021-08-06 13:57:23,401373
2,1,3,0,-1,2,2,1,2021-08-06 13:57:23,401373
3,3,4,-2,-3,-3,-1,3,2021-08-06 13:57:23,401373
-2,-3,0,0,-4,-2,0,-2,2021-08-06 13:57:23,417373
-2,-3,-3,1,4,-1,-2,-1,2021-08-06 13:57:23,433372
0,-1,0,-2,-2,0,0,2,2021-08-06 13:57:23,449372
-3,-3,-2,-3,0,-5,-4,-2,2021-08-06 13:57:23,465373
0,-2,-6,-15,-20,-10,-2,-1,2021-08-06 13:57:23,481372
5,7,7,20,26,15,9,5,2021-08-06 13:57:23,481372
-4,-4,-2,2,-1,-2,-3,-6,2021-08-06 13:57:23,481372
0,1,2,9,5,4,4,1,2021-08-06 13:57:23,481372
-5,-4,-14,-45,-64,-33,-12,-4,2021-08-06 13:57:23,481372
8,10,15,35,65,29,14,7,2021-08-06 13:57:23,481372
1,2,6,9,13,6,2,1,2021-08-06 13:57:23,481372
-2,-2,-2,-1,-7,-3,-3,-4,2021-08-06 13:57:23,481372
-3,-3,-8,-11,-3,-4,-2,0,2021-08-06 13:57:23,482374
-3,-6,-8,-22,-34,-17,-9,-5,2021-08-06 13:57:23,482374
1,-2,-2,0,3,2,0,-1,2021-08-06 13:57:23,482374
0,1,0,3,3,0,1,1,2021-08-06 13:57:23,482374
-1,-3,2,8,3,-1,0,-2,2021-08-06 13:57:23,496371
0,-1,-3,-12,-15,-7,-5,-3,2021-08-06 13:57:23,496371
-5,-5,-3,0,3,2,-2,-3,2021-08-06 13:57:23,496371
2,3,2,1,-2,4,5,5,2021-08-06 13:57:23,511374
-5,-5,-4,-1,2,-3,-6,-7,2021-08-06 13:57:23,526375
4,7,10,18,20,6,1,2,2021-08-06 13:57:23,526375
-3,-3,-6,-15,-25,-16,-8,-4,2021-08-06 13:57:23,526375
-1,-2,0,7,17,10,3,0,2021-08-06 13:57:23,526375
4,4,5,16,18,8,5,3,2021-08-06 13:57:23,542373
-5,-5,-7,-15,-25,-10,-4,-3,2021-08-06 13:57:23,558374
-2,-3,-3,-6,-3,-1,-2,-1,2021-08-06 13:57:23,574373
1,0,1,4,3,-1,-2,-1,2021-08-06 13:57:23,590371
-2,-2,-1,2,8,2,-1,-2,2021-08-06 13:57:23,606372
2,2,1,5,11,7,3,4,2021-08-06 13:57:23,606372
-4,-4,1,-11,-7,-3,-2,-2,2021-08-06 13:57:23,606372
-6,-8,-17,-27,-33,-18,-11,-5,2021-08-06 13:57:23,606372
3,6,12,27,28,14,6,3,2021-08-06 13:57:23,606372
-2,-3,-2,-2,-13,-8,-4,-2,2021-08-06 13:57:23,606372
2,1,1,1,10,8,4,1,2021-08-06 13:57:23,606372
-2,-2,2,2,-3,-3,-4,-2,2021-08-06 13:57:23,607373
1,1,-1,-2,-3,-1,-3,0,2021-08-06 13:57:23,607373
-8,-13,-21,-43,-32,-15,-7,-4,2021-08-06 13:57:23,607373
3,5,7,20,20,10,6,3,2021-08-06 13:57:23,607373
2,4,7,8,11,7,4,2,2021-08-06 13:57:23,607373
1,1,8,18,12,4,1,1,2021-08-06 13:57:23,638372
-4,-2,-5,-12,-29,-14,-4,-3,2021-08-06 13:57:23,638372
1,1,2,17,26,13,3,0,2021-08-06 13:57:23,638372
0,-1,-2,-1,-2,-3,0,0,2021-08-06 13:57:23,638372
-2,-2,-4,-14,-19,-11,-3,-3,2021-08-06 13:57:23,638372
-3,-4,-6,-21,-29,-10,-3,-2,2021-08-06 13:57:23,638372
1,0,2,16,33,12,3,1,2021-08-06 13:57:23,654371
-4,-3,-5,-7,-9,-6,-4,-4,2021-08-06 13:57:23,654371
1,1,3,10,16,8,2,0,2021-08-06 13:57:23,670372
-6,-4,-6,-18,-27,-18,-10,-6,2021-08-06 13:57:23,670372
1,2,0,-9,-19,-8,0,2,2021-08-06 13:57:23,670372
-1,-1,1,1,6,3,-1,-2,2021-08-06 13:57:23,670372
-4,-4,-14,-17,-16,-11,-4,-3,2021-08-06 13:57:23,686372
1,0,6,22,23,11,3,-1,2021-08-06 13:57:23,702374
1,2,-5,-12,-14,-6,-1,0,2021-08-06 13:57:23,718372
-6,-8,-12,-36,-29,-17,-9,-6,2021-08-06 13:57:23,718372
8,10,14,23,27,18,11,9,2021-08-06 13:57:23,718372
2,3,7,26,31,15,5,2,2021-08-06 13:57:23,718372
-3,-4,-2,-1,-12,-8,-4,-1,2021-08-06 13:57:23,718372
-10,-13,-18,-38,-51,-31,-16,-10,2021-08-06 13:57:23,718372
8,12,20,41,51,30,14,10,2021-08-06 13:57:23,718372
6,6,11,26,35,19,9,5,2021-08-06 13:57:23,718372
-2,-1,0,-10,-19,-9,-3,-4,2021-08-06 13:57:23,719373
-1,-1,0,4,-4,-3,0,0,2021-08-06 13:57:23,719373
-6,-7,-15,-30,-25,-16,-9,-5,2021-08-06 13:57:23,749372
1,1,2,10,14,2,0,1,2021-08-06 13:57:23,764372
-1,0,-6,-2,-4,4,2,2,2021-08-06 13:57:23,780372
-4,-5,-5,-18,-13,-9,-5,-3,2021-08-06 13:57:23,780372
-1,-2,3,15,31,16,5,-1,2021-08-06 13:57:23,780372
-2,0,-2,-9,-13,-8,-1,-1,2021-08-06 13:57:23,780372
-2,-3,-1,-1,-9,-8,-4,-1,2021-08-06 13:57:23,780372
3,4,5,23,21,12,6,3,2021-08-06 13:57:23,780372
-2,-4,-8,-14,-18,-11,-6,-2,2021-08-06 13:57:23,780372
5,7,5,6,7,7,5,2,2021-08-06 13:57:23,780372
-2,-2,-3,-8,-12,-10,-5,-4,2021-08-06 13:57:23,780372
3,6,8,22,27,18,6,3,2021-08-06 13:57:23,781374
-4,-6,-5,-10,-9,-8,-5,-6,2021-08-06 13:57:23,810375
-2,-1,0,0,-2,-2,1,0,2021-08-06 13:57:23,810375
-3,-5,-9,-19,-21,-11,-6,-4,2021-08-06 13:57:23,810375
4,2,4,10,12,7,3,2,2021-08-06 13:57:23,810375
-3,-5,-2,-3,-7,-2,-2,-4,2021-08-06 13:57:23,826375
-2,-1,-3,0,2,0,-2,-1,2021-08-06 13:57:23,826375
-5,-3,-7,-18,-19,-10,-4,-3,2021-08-06 13:57:23,826375
-4,-6,-5,-4,-2,-3,-4,-6,2021-08-06 13:57:23,826375
2,4,6,8,9,8,5,1,2021-08-06 13:57:23,858372
0,0,1,-2,3,1,-1,0,2021-08-06 13:57:23,874371
1,1,3,7,9,3,2,0,2021-08-06 13:57:23,889373
-2,-3,-4,-8,-10,-4,-3,-1,2021-08-06 13:57:23,889373
-2,-2,-4,-11,-13,-7,-2,-3,2021-08-06 13:57:23,889373
-2,-2,-3,-12,-15,-8,-6,-4,2021-08-06 13:57:23,889373
3,2,6,18,23,13,6,1,2021-08-06 13:57:23,889373
1,2,3,7,8,2,0,2,2021-08-06 13:57:23,889373
2,1,-1,-4,-7,-2,0,2,2021-08-06 13:57:23,889373
-4,-5,-10,-10,-13,-9,-5,-4,2021-08-06 13:57:23,889373
0,0,-2,-6,-1,-1,0,1,2021-08-06 13:57:23,889373
-1,-1,1,3,7,3,3,1,2021-08-06 13:57:23,890373
3,5,6,1,-2,-1,1,2,2021-08-06 13:57:23,905372
-4,-3,-1,-1,0,-1,-1,-3,2021-08-06 13:57:23,921372
-5,-4,-5,-3,-5,-1,-5,-4,2021-08-06 13:57:23,921372
-3,-2,-5,-4,-10,-5,-4,-3,2021-08-06 13:57:23,921372
-2,-3,-5,-13,-20,-11,-5,-3,2021-08-06 13:57:23,921372
5,6,13,32,46,26,10,6,2021-08-06 13:57:23,921372
1,-2,-1,-3,1,0,0,0,2021-08-06 13:57:23,921372
1,0,1,-2,-4,-3,0,-1,2021-08-06 13:57:23,922373
-10,-10,-12,-25,-36,-24,-13,-11,2021-08-06 13:57:23,967372
4,5,2,1,5,6,5,5,2021-08-06 13:57:23,967372
-2,-2,-2,-7,-7,-3,-1,-1,2021-08-06 13:57:23,967372
5,5,6,17,20,11,8,6,2021-08-06 13:57:23,967372
-3,-4,-3,2,5,1,0,-3,2021-08-06 13:57:23,967372
-5,-7,-7,-12,-18,-10,-6,-6,2021-08-06 13:57:23,967372
-3,-5,-6,-8,-8,-6,-3,-3,2021-08-06 13:57:23,967372
0,2,2,-3,-2,-1,1,0,2021-08-06 13:57:23,967372
3,3,6,18,22,13,4,3,2021-08-06 13:57:23,983373
-4,-4,-6,-10,-13,-7,-4,-3,2021-08-06 13:57:23,983373
-3,-4,-5,-8,-12,-8,-3,-1,2021-08-06 13:57:23,999373
-3,-4,-5,-5,-13,-3,-2,-2,2021-08-06 13:57:24,015372
2,2,4,14,20,11,4,4,2021-08-06 13:57:24,015372
-3,-3,-5,-18,-26,-13,-6,-4,2021-08-06 13:57:24,015372
5,7,9,28,44,21,9,5,2021-08-06 13:57:24,015372
-2,-2,-1,-9,-7,-3,-1,-1,2021-08-06 13:57:24,015372
-1,-1,0,-1,0,-1,-1,-1,2021-08-06 13:57:24,015372
0,-1,-2,3,3,-1,-3,-1,2021-08-06 13:57:24,015372
-3,-4,-4,-10,-13,-8,-4,-2,2021-08-06 13:57:24,031373
-1,-2,-2,-8,-17,-10,-4,-3,2021-08-06 13:57:24,031373
5,5,5,8,19,11,7,5,2021-08-06 13:57:24,047373
-3,-2,0,8,10,4,1,-2,2021-08-06 13:57:24,047373
-1,0,-2,-5,-7,-4,-3,-3,2021-08-06 13:57:24,047373
0,3,2,12,18,8,3,0,2021-08-06 13:57:24,047373
-4,-7,-5,-15,-20,-11,-7,-5,2021-08-06 13:57:24,079375
-10,-11,-16,-35,-59,-33,-15,-11,2021-08-06 13:57:24,084373
9,8,13,37,60,34,15,10,2021-08-06 13:57:24,084373
0,0,0,2,3,2,1,1,2021-08-06 13:57:24,084373
-3,-4,-3,-3,0,-1,-2,-1,2021-08-06 13:57:24,084373
-3,-3,-6,-9,-17,-8,-3,-2,2021-08-06 13:57:24,084373
-2,-5,-8,-21,-44,-20,-8,-4,2021-08-06 13:57:24,085373
4,8,13,31,53,27,11,6,2021-08-06 13:57:24,085373
-4,-4,-4,-6,-9,-7,-3,-4,2021-08-06 13:57:24,111372
2,3,6,8,11,4,1,4,2021-08-06 13:57:24,127374
-6,-10,-8,-9,-11,-7,-4,-3,2021-08-06 13:57:24,143372
5,12,10,2,3,4,3,6,2021-08-06 13:57:24,143372
-4,-3,0,5,1,1,-3,-2,2021-08-06 13:57:24,143372
5,7,8,10,15,11,5,4,2021-08-06 13:57:24,143372
-3,-3,-7,-9,-13,-7,-1,-2,2021-08-06 13:57:24,143372
-8,-12,-15,-30,-34,-24,-13,-9,2021-08-06 13:57:24,143372
0,1,5,8,3,2,2,-2,2021-08-06 13:57:24,143372
-1,0,2,0,0,0,-1,-2,2021-08-06 13:57:24,143372
4,6,5,20,38,25,12,6,2021-08-06 13:57:24,159372
-11,-16,-17,-33,-48,-32,-17,-12,2021-08-06 13:57:24,175372
-9,-8,-11,-40,-53,-27,-12,-6,2021-08-06 13:57:24,191371
4,0,-2,19,26,17,8,3,2021-08-06 13:57:24,207372
1,1,6,10,9,2,-1,-1,2021-08-06 13:57:24,223372
1,2,3,12,16,9,4,3,2021-08-06 13:57:24,223372
0,-2,0,-3,-6,-4,-1,0,2021-08-06 13:57:24,223372
-4,-4,-4,-21,-31,-13,-7,-4,2021-08-06 13:57:24,223372
2,6,11,14,19,11,1,0,2021-08-06 13:57:24,223372
-1,-2,1,-1,-2,0,-2,0,2021-08-06 13:57:24,223372
1,3,0,10,2,-2,0,1,2021-08-06 13:57:24,223372
-2,-2,-7,1,6,-1,0,0,2021-08-06 13:57:24,223372
-3,-5,-15,-28,-23,-10,-3,-1,2021-08-06 13:57:24,224375
-7,-12,-5,-24,-19,-14,-8,-7,2021-08-06 13:57:24,224375
0,0,-5,5,17,12,3,2,2021-08-06 13:57:24,224375
7,11,17,27,31,17,10,5,2021-08-06 13:57:24,224375
1,4,3,4,-7,-6,-3,-1,2021-08-06 13:57:24,224375
-1,-1,-5,-1,1,3,1,-1,2021-08-06 13:57:24,224375
10,10,9,14,28,19,14,9,2021-08-06 13:57:24,255371
-6,-6,-4,-1,-5,-8,-6,-5,2021-08-06 13:57:24,271373
0,0,6,7,-4,-4,-3,0,2021-08-06 13:57:24,287372
0,0,-2,-13,-23,-11,-4,-1,2021-08-06 13:57:24,287372
4,1,5,23,45,23,10,4,2021-08-06 13:57:24,287372
-5,-8,-17,-29,-33,-17,-8,-5,2021-08-06 13:57:24,287372
-1,0,1,7,26,11,3,-1,2021-08-06 13:57:24,287372
0,-1,-1,5,-4,-3,-1,-1,2021-08-06 13:57:24,287372
-8,-9,-11,-29,-51,-23,-14,-10,2021-08-06 13:57:24,288374
5,8,12,17,27,15,8,5,2021-08-06 13:57:24,288374
-2,-3,-1,-4,-9,-7,-4,-3,2021-08-06 13:57:24,288374
1,1,-1,11,13,6,3,1,2021-08-06 13:57:24,288374
-4,-4,-7,-9,-17,-10,-7,-3,2021-08-06 13:57:24,317372
-4,-5,-9,-11,-5,-5,-3,-3,2021-08-06 13:57:24,333373
-2,-2,-2,-2,-8,-5,-4,-2,2021-08-06 13:57:24,333373
4,8,11,16,24,13,6,3,2021-08-06 13:57:24,333373
0,1,2,-3,1,0,0,0,2021-08-06 13:57:24,333373
-2,-2,-1,4,8,2,-1,-2,2021-08-06 13:57:24,333373
-6,-8,-12,-22,-29,-19,-11,-7,2021-08-06 13:57:24,333373
4,1,3,12,13,10,5,3,2021-08-06 13:57:24,334373
2,1,5,8,7,4,0,1,2021-08-06 13:57:24,349372
-1,-1,-4,-9,-9,-3,-1,-1,2021-08-06 13:57:24,365372
-2,-3,-2,1,3,4,2,-1,2021-08-06 13:57:24,381372
-1,2,2,7,8,2,-1,0,2021-08-06 13:57:24,381372
0,1,2,11,8,4,-1,0,2021-08-06 13:57:24,381372
3,3,11,4,5,5,3,4,2021-08-06 13:57:24,381372
-3,-5,-7,-17,-20,-14,-5,-4,2021-08-06 13:57:24,381372
-4,-9,-23,-14,-15,-10,-5,-4,2021-08-06 13:57:24,381372
-2,0,0,0,7,2,1,-1,2021-08-06 13:57:24,381372
-2,-1,2,2,-1,0,-2,-3,2021-08-06 13:57:24,382376
3,4,9,10,11,8,4,4,2021-08-06 13:57:24,397373
0,1,6,5,9,5,2,2,2021-08-06 13:57:24,397373
-2,-1,-6,-10,-12,-7,-3,-3,2021-08-06 13:57:24,413372
-1,0,0,1,2,0,0,1,2021-08-06 13:57:24,413372
-3,1,0,0,1,2,0,0,2021-08-06 13:57:24,413372
0,0,-1,2,4,2,2,0,2021-08-06 13:57:24,413372
-1,-1,-1,-1,-4,-2,-1,-1,2021-08-06 13:57:24,429374
0,-2,-2,-1,0,0,-2,-2,2021-08-06 13:57:24,445372
0,-1,-1,2,2,0,-1,-1,2021-08-06 13:57:24,452375
1,1,2,1,1,-1,0,1,2021-08-06 13:57:24,452375
-2,-2,-3,-8,-4,-3,-2,0,2021-08-06 13:57:24,452375
-2,-6,-8,-17,-24,-17,-7,-4,2021-08-06 13:57:24,452375
-6,-6,-10,-20,-26,-11,-8,-6,2021-08-06 13:57:24,452375
2,7,13,35,51,26,10,3,2021-08-06 13:57:24,452375
1,1,1,8,11,7,3,0,2021-08-06 13:57:24,476373
1,0,1,6,6,5,0,1,2021-08-06 13:57:24,492372
-6,-8,-8,-18,-30,-18,-9,-7,2021-08-06 13:57:24,492372
1,0,-4,-17,-23,-9,-2,-2,2021-08-06 13:57:24,492372
-2,-2,-6,-19,-17,-10,-5,-2,2021-08-06 13:57:24,492372
3,4,7,22,35,17,7,3,2021-08-06 13:57:24,492372
2,3,4,8,9,4,1,3,2021-08-06 13:57:24,508373
-4,-5,-5,-7,-8,-5,-3,-4,2021-08-06 13:57:24,508373
2,2,3,10,9,2,2,1,2021-08-06 13:57:24,508373
-2,-2,-1,-7,-11,-5,-2,-1,2021-08-06 13:57:24,508373
-1,-1,1,5,9,4,3,3,2021-08-06 13:57:24,508373
0,-4,-11,-10,-20,-11,-7,-4,2021-08-06 13:57:24,508373
-1,1,0,-8,-12,-7,-2,-2,2021-08-06 13:57:24,524373
0,1,0,4,6,3,1,-2,2021-08-06 13:57:24,540372
5,5,3,11,17,11,5,3,2021-08-06 13:57:24,556372
-1,0,6,0,0,1,-1,0,2021-08-06 13:57:24,556372
-1,-5,-8,-6,-5,-2,-2,-2,2021-08-06 13:57:24,556372
-1,-3,-4,-2,2,1,-1,-1,2021-08-06 13:57:24,556372
-3,-3,-2,-9,-10,-7,-3,0,2021-08-06 13:57:24,556372
-1,-3,0,1,4,0,-1,-1,2021-08-06 13:57:24,556372
2,5,9,17,19,11,6,3,2021-08-06 13:57:24,556372
-4,-2,-2,-10,-15,-9,-2,-3,2021-08-06 13:57:24,556372
-3,-5,-14,-26,-35,-16,-6,-4,2021-08-06 13:57:24,572372
1,0,4,3,6,1,0,1,2021-08-06 13:57:24,572372
-1,-2,-1,8,10,4,2,-1,2021-08-06 13:57:24,587373
-1,-1,-3,2,1,0,-1,-1,2021-08-06 13:57:24,603372
1,0,2,0,-4,-1,-1,-1,2021-08-06 13:57:24,603372
-5,-4,-5,-16,-19,-11,-4,-3,2021-08-06 13:57:24,603372
-1,1,-1,4,10,5,2,1,2021-08-06 13:57:24,603372
-3,-2,-3,-7,-11,-4,-1,-2,2021-08-06 13:57:24,603372
1,1,5,8,13,4,1,-1,2021-08-06 13:57:24,603372
-2,-2,0,8,5,2,-1,-1,2021-08-06 13:57:24,604372
-6,-8,-12,-18,-20,-15,-9,-5,2021-08-06 13:57:24,634371
3,5,8,5,14,9,6,4,2021-08-06 13:57:24,649372
2,4,2,8,11,6,2,1,2021-08-06 13:57:24,665372
-1,1,-2,-3,-4,-2,1,0,2021-08-06 13:57:24,665372
-6,-7,-8,-14,-24,-13,-5,-4,2021-08-06 13:57:24,665372
2,3,8,22,35,18,6,3,2021-08-06 13:57:24,665372
3,4,10,8,9,4,3,1,2021-08-06 13:57:24,665372
0,0,-7,1,-1,-2,-2,0,2021-08-06 13:57:24,665372
-2,-4,-3,-7,-10,-7,-5,-3,2021-08-06 13:57:24,665372
-5,-6,-14,-20,-22,-11,-7,-5,2021-08-06 13:57:24,666373
1,2,4,11,15,10,4,4,2021-08-06 13:57:24,666373
-1,-2,3,1,-1,1,1,0,2021-08-06 13:57:24,666373
0,-1,3,7,6,4,2,-1,2021-08-06 13:57:24,681372
-2,-1,0,0,-7,-4,-3,-2,2021-08-06 13:57:24,697373
-4,-3,-3,1,-1,-2,-4,-4,2021-08-06 13:57:24,697373
-2,0,0,-7,-7,-2,-1,-3,2021-08-06 13:57:24,697373
1,2,3,3,5,2,-1,-1,2021-08-06 13:57:24,713372
-1,-1,-3,-5,-6,-5,-2,-1,2021-08-06 13:57:24,728372
0,-1,-5,-6,-6,-6,-3,-2,2021-08-06 13:57:24,744372
0,0,1,2,7,2,1,3,2021-08-06 13:57:24,744372
2,3,3,4,6,3,2,1,2021-08-06 13:57:24,744372
-2,-1,-4,-4,-6,-4,-3,-1,2021-08-06 13:57:24,744372
-1,0,-1,2,1,2,2,0,2021-08-06 13:57:24,744372
-2,-4,-3,-3,0,-2,-1,-3,2021-08-06 13:57:24,744372
1,1,0,1,3,2,0,3,2021-08-06 13:57:24,745373
-1,-3,-1,-2,-6,-3,-1,0,2021-08-06 13:57:24,745373
0,-1,0,2,2,1,0,1,2021-08-06 13:57:24,745373
2,1,2,-1,-1,-1,0,0,2021-08-06 13:57:24,745373
-3,-2,-2,0,2,-1,-2,0,2021-08-06 13:57:24,776373
-1,-1,0,0,-2,0,-1,-1,2021-08-06 13:57:24,792372
-2,-3,-5,-7,-9,-6,-3,-3,2021-08-06 13:57:24,792372
-2,-1,2,5,12,7,0,-2,2021-08-06 13:57:24,792372
-2,-1,1,1,2,0,0,0,2021-08-06 13:57:24,792372
0,-1,-2,-3,1,-2,1,-2,2021-08-06 13:57:24,792372
-2,0,-1,1,-2,-2,0,0,2021-08-06 13:57:24,792372
0,-3,-4,-8,-10,-3,-1,-1,2021-08-06 13:57:24,792372
2,3,3,3,4,3,1,-1,2021-08-06 13:57:24,808372
-1,-1,1,5,5,2,1,0,2021-08-06 13:57:24,808372
0,-3,-3,-3,-3,-4,-2,-2,2021-08-06 13:57:24,808372
-1,-1,-3,-5,-5,-2,-2,-1,2021-08-06 13:57:24,808372
-1,-3,-4,-6,-7,-3,-2,-1,2021-08-06 13:57:24,821374
-2,-2,-1,-4,-5,-4,-5,-2,2021-08-06 13:57:24,821374
-1,-2,-1,-2,1,1,1,-2,2021-08-06 13:57:24,821374
-1,-1,-2,2,-1,0,-1,-1,2021-08-06 13:57:24,821374
0,-1,1,-1,1,-1,0,0,2021-08-06 13:57:24,856374
2,2,1,-1,-2,0,-1,0,2021-08-06 13:57:24,872373
-2,0,0,3,2,1,0,0,2021-08-06 13:57:24,872373
0,-2,-2,-4,-3,0,-1,-2,2021-08-06 13:57:24,872373
-1,-2,0,1,2,2,-1,-3,2021-08-06 13:57:24,872373
0,-1,-1,-2,-1,-1,0,0,2021-08-06 13:57:24,872373
-1,-1,-2,0,-4,-1,-3,-1,2021-08-06 13:57:24,872373
-1,1,1,3,0,0,-1,1,2021-08-06 13:57:24,888371
-2,-5,-4,-3,-1,-2,-2,-2,2021-08-06 13:57:24,904372
5,4,4,1,-2,1,2,2,2021-08-06 13:57:24,919373
-1,-2,1,3,3,0,-2,-2,2021-08-06 13:57:24,919373
-3,-3,-4,1,-4,-4,-4,-3,2021-08-06 13:57:24,919373
1,2,1,-3,-5,-1,-2,1,2021-08-06 13:57:24,919853
0,0,3,8,10,5,3,0,2021-08-06 13:57:24,919853
1,0,-1,1,4,2,1,0,2021-08-06 13:57:24,919853
-2,-1,-1,-2,1,-1,-2,0,2021-08-06 13:57:24,919853
-5,-5,-5,-4,-9,-7,-4,-3,2021-08-06 13:57:24,935396
-3,-4,-5,-10,-11,-5,-2,-3,2021-08-06 13:57:24,935396
0,-2,0,1,3,0,-2,0,2021-08-06 13:57:24,935396
0,-2,0,-2,-4,-4,1,-2,2021-08-06 13:57:24,935396
1,3,4,9,11,5,3,2,2021-08-06 13:57:24,951395
-1,-1,-3,-1,1,-3,-3,-1,2021-08-06 13:57:24,967395
-2,-2,-1,-2,-1,-1,-2,-1,2021-08-06 13:57:24,982395
2,2,3,-2,-1,0,2,0,2021-08-06 13:57:24,982395
-1,-2,-1,-3,-1,-1,0,-2,2021-08-06 13:57:24,982395
1,-1,1,4,6,5,2,-1,2021-08-06 13:57:24,982395
-4,-1,-4,-3,-3,-2,-4,-4,2021-08-06 13:57:24,982395
1,3,3,3,3,0,1,2,2021-08-06 13:57:24,982395
1,0,-1,-2,-4,-2,-1,0,2021-08-06 13:57:24,998396
-3,-1,-2,-4,-5,-4,-2,-2,2021-08-06 13:57:25,014398
-1,-3,-2,-4,-5,0,-1,-1,2021-08-06 13:57:25,014398
-3,-4,-3,-7,-13,-7,-3,-2,2021-08-06 13:57:25,014398
3,1,2,4,9,4,4,1,2021-08-06 13:57:25,014398
-3,-2,-3,1,0,0,-1,-2,2021-08-06 13:57:25,014398
0,-2,1,-3,-1,-1,0,0,2021-08-06 13:57:25,014398
1,0,-1,1,0,-1,-1,-1,2021-08-06 13:57:25,014398
-2,-2,0,-3,-4,-2,-1,0,2021-08-06 13:57:25,030395
0,0,0,-1,1,-2,-2,-1,2021-08-06 13:57:25,030395
1,-1,0,0,-2,-1,0,1,2021-08-06 13:57:25,030395
-2,-2,-3,-1,4,2,1,0,2021-08-06 13:57:25,030395
-1,1,0,-1,-3,-1,-2,0,2021-08-06 13:57:25,061395
0,0,-1,-1,-4,-2,-1,-2,2021-08-06 13:57:25,077396
-1,-1,0,-1,-1,-2,-1,-1,2021-08-06 13:57:25,077396
0,0,0,1,4,2,0,0,2021-08-06 13:57:25,077396
-1,-1,-4,-4,-2,-3,-1,-2,2021-08-06 13:57:25,077396
-4,-5,-7,-16,-28,-17,-6,-3,2021-08-06 13:57:25,077396
3,5,9,22,34,20,9,4,2021-08-06 13:57:25,077396
0,0,2,7,8,4,1,0,2021-08-06 13:57:25,077396
-1,-1,-1,1,0,-2,-2,-1,2021-08-06 13:57:25,093397
-3,-2,0,1,-1,-2,-2,-2,2021-08-06 13:57:25,093397
-3,-4,-6,-14,-17,-10,-3,-1,2021-08-06 13:57:25,093397
-1,0,-3,-1,0,-1,-1,-2,2021-08-06 13:57:25,093397
-1,-2,-2,0,1,0,-1,-1,2021-08-06 13:57:25,125395
-3,-3,-4,-2,-4,-3,-2,-1,2021-08-06 13:57:25,125395
-1,0,-2,-5,-2,-3,-1,-2,2021-08-06 13:57:25,125395
0,0,1,2,1,0,0,-1,2021-08-06 13:57:25,125395
-1,-2,-1,2,3,2,-2,-2,2021-08-06 13:57:25,125395
0,0,1,1,3,3,0,-1,2021-08-06 13:57:25,125395
0,0,-2,-1,-2,-1,1,0,2021-08-06 13:57:25,125395
-1,1,-2,-2,-5,-4,-3,0,2021-08-06 13:57:25,126404
-1,-2,-2,-5,-9,-6,-2,-2,2021-08-06 13:57:25,156907
1,0,1,6,10,5,1,1,2021-08-06 13:57:25,171906
2,-1,0,1,-1,-1,-2,-2,2021-08-06 13:57:25,171906
-1,-2,-5,-3,-1,1,1,1,2021-08-06 13:57:25,171906
-1,-2,0,-4,-6,-3,-2,-3,2021-08-06 13:57:25,171906
-1,-3,-2,1,6,2,0,-1,2021-08-06 13:57:25,171906
0,-2,-1,-4,-6,-3,0,0,2021-08-06 13:57:25,171906
3,5,2,2,3,2,3,2,2021-08-06 13:57:25,171906
-2,-2,-3,-1,-1,0,-1,-2,2021-08-06 13:57:25,186907
-1,0,0,-1,-3,-2,-1,0,2021-08-06 13:57:25,186907
-4,-3,-4,-5,-4,-4,-3,-4,2021-08-06 13:57:25,186907
0,-2,-1,1,0,-1,1,0,2021-08-06 13:57:25,186907
-1,1,-1,2,2,0,-1,-1,2021-08-06 13:57:25,217907
-2,-1,-1,-2,-3,-1,-1,-2,2021-08-06 13:57:25,233906
-2,-3,-3,-1,-2,-2,-4,0,2021-08-06 13:57:25,249906
1,-1,2,0,0,0,0,-1,2021-08-06 13:57:25,249906
0,2,3,2,-2,1,1,1,2021-08-06 13:57:25,249906
-3,-2,-1,-3,-1,-2,1,-1,2021-08-06 13:57:25,249906
-5,-6,-6,-4,-3,-3,-3,-3,2021-08-06 13:57:25,249906
0,2,2,1,1,0,0,0,2021-08-06 13:57:25,249906
1,2,0,-1,0,0,-2,1,2021-08-06 13:57:25,249906
2,0,0,-1,1,1,0,3,2021-08-06 13:57:25,250907
0,0,-1,-2,0,-1,-1,-2,2021-08-06 13:57:25,265906
-6,-9,-6,-7,-5,-6,-3,-4,2021-08-06 13:57:25,280906
2,1,-1,2,1,0,0,1,2021-08-06 13:57:25,296907
-1,-1,0,-1,0,-1,-1,0,2021-08-06 13:57:25,296907
2,0,-2,-1,-1,0,0,1,2021-08-06 13:57:25,296907
-2,-3,-5,-2,-4,-2,-3,-3,2021-08-06 13:57:25,296907
-3,-3,-1,-1,-3,-3,-1,-4,2021-08-06 13:57:25,296907
1,3,3,3,2,2,2,2,2021-08-06 13:57:25,296907
1,-1,2,1,-2,0,2,0,2021-08-06 13:57:25,296907
0,1,2,0,1,0,-1,0,2021-08-06 13:57:25,297910
-2,-5,-7,-3,-3,0,-2,-3,2021-08-06 13:57:25,328907
-3,-3,-1,-2,-5,-5,-4,-3,2021-08-06 13:57:25,328907
-1,2,1,2,-2,-2,-1,1,2021-08-06 13:57:25,328907
-2,-4,-2,-4,-4,-1,-4,-3,2021-08-06 13:57:25,328907
0,-2,0,0,5,1,1,-1,2021-08-06 13:57:25,328907
-1,-2,-3,0,1,0,-1,-1,2021-08-06 13:57:25,328907
-1,1,-2,-3,-5,-3,1,1,2021-08-06 13:57:25,328907
0,0,0,3,3,0,1,0,2021-08-06 13:57:25,328907
-1,-1,0,0,-3,-4,-2,1,2021-08-06 13:57:25,360907
2,0,-1,-3,-4,0,1,-1,2021-08-06 13:57:25,360907
-2,-3,-1,-1,0,-1,-3,-2,2021-08-06 13:57:25,360907
-1,-1,0,3,7,3,2,0,2021-08-06 13:57:25,360907
0,1,0,2,5,3,0,0,2021-08-06 13:57:25,360907
-1,-1,-1,0,-1,-1,-1,-1,2021-08-06 13:57:25,360907
-1,-2,-3,-3,-3,-3,-1,-2,2021-08-06 13:57:25,392907
-2,-2,-5,-4,-7,-5,-3,-3,2021-08-06 13:57:25,392907
0,0,2,-1,1,0,0,-2,2021-08-06 13:57:25,392907
-1,-1,0,-1,0,1,1,0,2021-08-06 13:57:25,392907
-1,-1,1,2,-1,1,-2,-2,2021-08-06 13:57:25,392907
0,-2,0,-1,-1,-1,-1,-1,2021-08-06 13:57:25,392907
1,-1,-1,-1,-3,-2,-2,0,2021-08-06 13:57:25,424907
-2,-3,-2,-2,-3,-2,-3,-2,2021-08-06 13:57:25,440906
0,0,1,-1,1,0,0,-2,2021-08-06 13:57:25,472908
-5,-5,-6,-8,-8,-7,-4,-4,2021-08-06 13:57:25,472908
-1,-2,-2,2,3,2,1,-1,2021-08-06 13:57:25,472908
2,1,4,6,11,6,2,1,2021-08-06 13:57:25,472908
0,1,0,2,1,2,-1,-2,2021-08-06 13:57:25,472908
0,0,0,-2,-2,0,0,1,2021-08-06 13:57:25,472908
-3,-4,-4,-5,-8,-4,-1,-4,2021-08-06 13:57:25,472908
-2,-2,-3,-3,-2,-3,-2,0,2021-08-06 13:57:25,472908
-1,0,-1,1,3,2,0,1,2021-08-06 13:57:25,472908
0,1,0,1,0,0,0,-2,2021-08-06 13:57:25,472908
-1,1,-1,-3,-2,0,-1,0,2021-08-06 13:57:25,472908
-1,-3,-4,-2,-2,-2,-2,-2,2021-08-06 13:57:25,473909
-1,-1,-1,0,0,-1,-2,1,2021-08-06 13:57:25,473909
-2,-1,-2,0,0,0,-1,-2,2021-08-06 13:57:25,473909
0,-2,1,0,0,0,1,2,2021-08-06 13:57:25,504907
1,3,1,-1,-2,-2,-2,0,2021-08-06 13:57:25,504907
0,2,3,-1,-1,-1,0,2,2021-08-06 13:57:25,504907
2,0,1,1,2,2,1,1,2021-08-06 13:57:25,504907
-3,-3,-2,-1,-3,-2,-3,-4,2021-08-06 13:57:25,504907
-2,-6,-5,-4,-2,-1,1,-1,2021-08-06 13:57:25,504907
2,-1,-1,-1,0,4,4,3,2021-08-06 13:57:25,504907
-3,-3,-2,1,-1,-2,-1,0,2021-08-06 13:57:25,504907
-3,-3,-1,-3,-1,-2,-4,-2,2021-08-06 13:57:25,534906
-1,3,5,3,3,1,0,0,2021-08-06 13:57:25,550906
-2,-1,-2,-3,0,-2,-3,-5,2021-08-06 13:57:25,562928
0,-2,-1,0,-2,-2,-2,-2,2021-08-06 13:57:25,562928
-1,-1,-2,-2,-6,-4,-3,-2,2021-08-06 13:57:25,563929
2,1,0,0,5,2,1,1,2021-08-06 13:57:25,563929
0,-2,0,0,1,-1,0,-2,2021-08-06 13:57:25,563929
2,3,2,1,0,1,3,1,2021-08-06 13:57:25,582927
-1,-3,-5,-4,-6,-5,-2,-1,2021-08-06 13:57:25,582927
-1,-3,-3,-1,1,0,-1,-2,2021-08-06 13:57:25,582927
1,1,0,3,3,-1,-1,-1,2021-08-06 13:57:25,582927
0,0,1,0,4,4,1,1,2021-08-06 13:57:25,582927
-1,-1,1,-1,-1,-1,1,-2,2021-08-06 13:57:25,598928
-2,-2,-2,-4,-7,-5,-3,-2,2021-08-06 13:57:25,614929
-5,-3,-5,-5,-5,-3,-2,-3,2021-08-06 13:57:25,614929
1,2,2,2,3,0,0,0,2021-08-06 13:57:25,614929
-2,-2,-3,-2,-1,1,-2,1,2021-08-06 13:57:25,614929
1,2,1,1,-1,0,2,0,2021-08-06 13:57:25,614929
-1,-4,-3,-3,-2,-4,-2,-1,2021-08-06 13:57:25,630927
-1,-3,-3,-4,-4,-3,-3,0,2021-08-06 13:57:25,630927
2,4,4,4,2,3,2,1,2021-08-06 13:57:25,630927
-2,-4,-1,0,1,0,0,-1,2021-08-06 13:57:25,630927
1,1,3,2,1,1,1,0,2021-08-06 13:57:25,630927
0,-1,-1,0,-2,-2,0,-2,2021-08-06 13:57:25,630927
-2,-1,-2,-2,2,-2,-2,-1,2021-08-06 13:57:25,662925
-1,0,-3,-1,-2,-1,0,-2,2021-08-06 13:57:25,677927
-3,-4,-3,-3,-2,-3,-1,-1,2021-08-06 13:57:25,693926
0,-1,0,1,0,0,-2,1,2021-08-06 13:57:25,693926
-1,-1,0,-1,-1,0,0,1,2021-08-06 13:57:25,693926
-2,-1,1,2,4,3,1,-1,2021-08-06 13:57:25,693926
-1,-1,1,2,1,0,0,-2,2021-08-06 13:57:25,693926
-1,1,-2,-3,-1,-2,-3,-3,2021-08-06 13:57:25,693926
0,1,0,2,1,-1,0,0,2021-08-06 13:57:25,693926
-2,-2,-3,-7,-6,-4,-2,0,2021-08-06 13:57:25,694927
0,-2,-2,1,2,1,-1,0,2021-08-06 13:57:25,694927
-1,1,1,1,0,-1,-1,-2,2021-08-06 13:57:25,694927
1,-3,-1,0,-1,0,-2,-1,2021-08-06 13:57:25,709927
2,2,1,1,-1,-2,0,1,2021-08-06 13:57:25,709927
-1,-2,-3,-2,-4,-3,-2,-2,2021-08-06 13:57:25,709927
0,1,0,0,1,0,0,1,2021-08-06 13:57:25,709927
-2,-2,-3,-1,1,-1,0,-2,2021-08-06 13:57:25,725930
-1,-3,-1,-2,-3,-2,-1,-2,2021-08-06 13:57:25,741925
-1,0,0,-1,0,-1,0,0,2021-08-06 13:57:25,741925
-1,-3,-2,-1,0,0,0,-1,2021-08-06 13:57:25,757926
0,1,1,1,3,2,0,2,2021-08-06 13:57:25,757926
-1,-3,-2,-1,-3,-4,-3,-1,2021-08-06 13:57:25,757926
0,0,-1,-2,-1,2,0,-1,2021-08-06 13:57:25,757926
2,-1,0,1,-1,0,1,0,2021-08-06 13:57:25,757926
0,-1,-1,0,0,-3,-1,-1,2021-08-06 13:57:25,773927
0,-2,-1,-3,0,-2,-3,-1,2021-08-06 13:57:25,774155
-1,-4,-3,-2,-2,-1,-2,-2,2021-08-06 13:57:25,774155
-4,-3,-2,-3,-5,-5,-2,-4,2021-08-06 13:57:25,774155
1,1,0,2,4,2,3,0,2021-08-06 13:57:25,789436
-2,0,0,0,2,0,-1,-1,2021-08-06 13:57:25,789436
1,2,2,0,2,-1,1,1,2021-08-06 13:57:25,789436
0,-1,-2,1,-1,0,-1,-1,2021-08-06 13:57:25,789436
0,0,-2,-3,-4,-2,-1,-3,2021-08-06 13:57:25,819435
-1,-4,-4,-2,-4,-1,-2,-3,2021-08-06 13:57:25,835435
0,-2,-1,1,-1,0,0,0,2021-08-06 13:57:25,835435
0,-2,-2,-1,-2,-2,-1,0,2021-08-06 13:57:25,835435
-1,-1,0,1,-1,0,0,-2,2021-08-06 13:57:25,835435
0,-1,-1,0,-3,-2,-1,1,2021-08-06 13:57:25,835435
-1,0,0,-1,0,-1,-1,0,2021-08-06 13:57:25,835435
0,0,-1,-2,-1,0,0,0,2021-08-06 13:57:25,835435
0,-2,-2,1,-1,-2,-1,0,2021-08-06 13:57:25,867435
2,0,1,1,-2,-1,2,0,2021-08-06 13:57:25,883435
-1,-1,-1,-1,-2,0,-1,0,2021-08-06 13:57:25,883435
-3,0,1,-2,-2,0,-2,-2,2021-08-06 13:57:25,883435
1,-1,0,-3,0,-1,-1,-1,2021-08-06 13:57:25,883435
-1,0,-2,-1,-2,0,-1,0,2021-08-06 13:57:25,883435
-1,-1,-1,-3,-2,-3,-3,-2,2021-08-06 13:57:25,883435
0,-1,-2,0,-1,0,0,-1,2021-08-06 13:57:25,883435
-1,1,1,3,0,2,0,-2,2021-08-06 13:57:25,883435
0,1,0,1,0,0,1,-1,2021-08-06 13:57:25,883435
0,0,-2,-1,-2,-1,-1,0,2021-08-06 13:57:25,899436
-2,-4,-4,-1,2,1,-2,-3,2021-08-06 13:57:25,899436
-5,-5,-4,-5,-2,-4,-2,-2,2021-08-06 13:57:25,915437
4,5,2,3,4,3,3,4,2021-08-06 13:57:25,915437
1,2,4,2,2,2,3,0,2021-08-06 13:57:25,915437
1,1,0,0,0,-3,-1,0,2021-08-06 13:57:25,915437
-2,-3,-1,-2,-2,-1,0,-2,2021-08-06 13:57:25,931436
-3,-2,-3,-2,-3,-2,-3,-2,2021-08-06 13:57:25,931436
-3,-3,-2,-3,-4,-4,-3,-3,2021-08-06 13:57:25,931436
1,2,1,2,-1,0,0,0,2021-08-06 13:57:25,931436
-2,-1,-2,-1,-2,0,1,-1,2021-08-06 13:57:25,946436
-1,-1,-1,-1,-1,0,-1,-3,2021-08-06 13:57:25,946436
-2,-2,-1,0,-1,-2,-3,-2,2021-08-06 13:57:25,946436
-2,-2,-3,-1,-1,-2,0,0,2021-08-06 13:57:25,946436
1,1,-1,-2,-2,-2,-2,-2,2021-08-06 13:57:25,979436
-1,-1,-2,-1,0,-1,1,-1,2021-08-06 13:57:25,979436
0,0,0,0,0,0,0,0,2021-08-06 13:57:25,995435
0,-3,-1,0,-2,-2,0,-2,2021-08-06 13:57:25,995435
0,-1,-1,1,0,0,0,1,2021-08-06 13:57:25,995435
-2,-2,-3,-1,-1,-1,-1,-1,2021-08-06 13:57:25,995435
-1,-2,0,-2,-1,-1,-2,0,2021-08-06 13:57:25,995435
0,-1,1,-2,0,0,-1,-1,2021-08-06 13:57:25,995435
-1,-1,-1,0,1,0,-1,-1,2021-08-06 13:57:26,011437
0,0,0,0,-1,-1,-1,0,2021-08-06 13:57:26,011437
-3,-3,-3,-1,-2,-1,-2,-3,2021-08-06 13:57:26,011437
2,2,2,0,0,1,2,1,2021-08-06 13:57:26,011437
-2,-1,-1,-2,-2,-1,-2,1,2021-08-06 13:57:26,043437
0,0,0,2,0,0,0,-1,2021-08-06 13:57:26,043437
0,1,-1,-1,0,-1,-1,0,2021-08-06 13:57:26,043437
-2,-3,-2,-2,-2,-2,-2,-3,2021-08-06 13:57:26,043437
0,-1,0,0,0,0,-1,-2,2021-08-06 13:57:26,043437
-2,-2,0,-3,-1,-1,-1,-2,2021-08-06 13:57:26,043437
0,0,-1,-2,-1,1,0,0,2021-08-06 13:57:26,075453
-2,-2,-1,-1,1,-1,-2,-2,2021-08-06 13:57:26,091453
1,-1,0,0,-1,-1,0,1,2021-08-06 13:57:26,091453
-1,-2,0,0,-2,-2,-2,0,2021-08-06 13:57:26,091453
-1,-1,-1,-1,-2,-1,1,-2,2021-08-06 13:57:26,091453
-1,-2,0,-1,-1,-2,0,0,2021-08-06 13:57:26,091453
-1,1,-1,-1,-2,0,0,-2,2021-08-06 13:57:26,091453
-2,0,-3,-3,-2,-1,1,-1,2021-08-06 13:57:26,091453
0,-2,-1,0,-1,-2,-2,1,2021-08-06 13:57:26,122455
1,1,2,1,-1,1,0,1,2021-08-06 13:57:26,122455
-2,-4,-3,-2,-1,-2,-1,-1,2021-08-06 13:57:26,122455
-2,-3,-2,-4,-4,-3,-2,-2,2021-08-06 13:57:26,122455
0,2,2,2,0,-1,0,1,2021-08-06 13:57:26,122455
-1,-2,-2,-2,-1,-1,-1,-2,2021-08-06 13:57:26,122455
-1,-2,-1,-1,-2,-1,-2,-2,2021-08-06 13:57:26,137453
-3,-4,-4,-2,-2,-1,-2,-1,2021-08-06 13:57:26,153453
1,1,0,0,-1,0,1,1,2021-08-06 13:57:26,185454
0,-1,-1,-2,-2,-1,-2,-1,2021-08-06 13:57:26,201455
-1,1,1,0,1,-2,-1,1,2021-08-06 13:57:26,217453
1,0,1,1,1,0,1,-1,2021-08-06 13:57:26,217453
0,-1,-1,-2,-2,-1,-1,-1,2021-08-06 13:57:26,217453
-3,0,-3,-1,-1,-2,-1,1,2021-08-06 13:57:26,217453
-1,-2,-2,-1,-3,-1,-1,0,2021-08-06 13:57:26,217453
-1,0,0,-1,-1,-1,-2,0,2021-08-06 13:57:26,217453
1,0,-1,-1,-1,-1,0,-1,2021-08-06 13:57:26,218455
-2,-3,-2,0,-1,-1,-1,-2,2021-08-06 13:57:26,218455
2,0,0,2,0,1,0,-1,2021-08-06 13:57:26,218455
1,1,0,-1,-1,0,1,0,2021-08-06 13:57:26,218455
0,-1,-2,-3,-1,-2,-2,-4,2021-08-06 13:57:26,218455
-2,-2,0,-1,-1,-1,-2,-2,2021-08-06 13:57:26,218455
0,-1,0,-2,2,-1,1,0,2021-08-06 13:57:26,218455
-1,0,0,1,-1,0,-1,0,2021-08-06 13:57:26,218455
-3,-2,-3,-1,-1,-1,0,0,2021-08-06 13:57:26,219455
0,0,0,0,-1,-1,1,0,2021-08-06 13:57:26,219455
-1,0,2,0,0,0,-1,0,2021-08-06 13:57:26,233454
-1,-1,-2,-3,-1,-2,-1,-1,2021-08-06 13:57:26,233454
-2,-1,-2,-2,0,-1,-2,-1,2021-08-06 13:57:26,233454
1,2,0,0,-1,-1,-2,-1,2021-08-06 13:57:26,233454
-1,-1,-1,-2,-1,0,-1,-2,2021-08-06 13:57:26,264456
0,-2,0,-2,0,0,0,0,2021-08-06 13:57:26,280455
1,0,-2,-1,-3,-3,-1,-1,2021-08-06 13:57:26,280724
0,-4,-3,-1,-2,-3,1,0,2021-08-06 13:57:26,280724
-1,0,0,-1,-1,-1,0,-1,2021-08-06 13:57:26,280724
-2,-2,-3,0,0,-1,-3,-3,2021-08-06 13:57:26,280724
-2,-2,0,1,0,1,2,1,2021-08-06 13:57:26,280724
-1,-2,-3,0,0,2,-1,1,2021-08-06 13:57:26,280724
-1,1,-1,-1,-2,-6,-6,-3,2021-08-06 13:57:26,280724
0,0,-1,0,0,-2,-2,1,2021-08-06 13:57:26,280724
-1,0,-2,-3,-4,-3,-1,-1,2021-08-06 13:57:26,295967
1,2,0,0,0,2,2,-1,2021-08-06 13:57:26,295967
0,-2,-1,1,0,2,3,2,2021-08-06 13:57:26,311967
-2,-1,1,1,2,0,-3,-2,2021-08-06 13:57:26,311967
0,0,-1,-1,0,-3,-3,-1,2021-08-06 13:57:26,312969
-3,0,0,-4,-5,-3,-2,-1,2021-08-06 13:57:26,313968
0,0,-1,0,-3,2,1,0,2021-08-06 13:57:26,342968
-2,-1,0,-1,-2,0,1,0,2021-08-06 13:57:26,358966
-1,-2,0,1,1,3,2,-1,2021-08-06 13:57:26,374966
-2,-1,1,1,0,-3,-4,-1,2021-08-06 13:57:26,374966
-1,1,-1,-2,-1,-2,-2,-2,2021-08-06 13:57:26,374966
0,-3,-2,-1,0,-1,-1,0,2021-08-06 13:57:26,374966
-2,-2,-2,-4,-4,3,2,0,2021-08-06 13:57:26,374966
3,2,1,2,1,1,0,3,2021-08-06 13:57:26,374966
1,-2,-1,0,3,-4,-5,-3,2021-08-06 13:57:26,374966
-3,-4,-4,-3,-5,-3,-3,-3,2021-08-06 13:57:26,374966
-1,-2,-1,2,5,0,1,-1,2021-08-06 13:57:26,375968
-1,-2,-2,-2,-2,1,0,0,2021-08-06 13:57:26,375968
-2,1,0,2,-1,1,0,-1,2021-08-06 13:57:26,406966
0,-2,0,-1,-3,-3,-2,-1,2021-08-06 13:57:26,422966
2,1,2,2,-1,0,-1,0,2021-08-06 13:57:26,422966
-2,-1,-4,-3,-3,-3,-1,-2,2021-08-06 13:57:26,422966
1,-1,1,-2,-1,-1,-1,1,2021-08-06 13:57:26,422966
0,-1,-2,-2,-3,-2,-1,-2,2021-08-06 13:57:26,422966
2,0,1,1,-1,0,1,2,2021-08-06 13:57:26,422966
-1,-2,-2,-2,0,-1,-1,-2,2021-08-06 13:57:26,422966
0,-1,-1,-2,-1,-1,-1,-1,2021-08-06 13:57:26,438965
-1,0,0,-1,0,0,0,1,2021-08-06 13:57:26,454965
-2,-2,-1,-1,-1,-3,-2,-1,2021-08-06 13:57:26,470966
-1,0,0,0,0,-1,0,0,2021-08-06 13:57:26,470966
-1,0,0,3,1,1,1,0,2021-08-06 13:57:26,470966
-1,-1,-2,-1,-1,1,0,-1,2021-08-06 13:57:26,470966
-2,-1,-2,-1,-1,-1,-2,-1,2021-08-06 13:57:26,470966
-2,-1,-2,-1,-2,-2,-2,-3,2021-08-06 13:57:26,470966
-3,-2,-3,-3,-2,-1,1,0,2021-08-06 13:57:26,470966
0,0,0,0,1,1,-1,-1,2021-08-06 13:57:26,471969
-1,1,1,2,1,1,2,-1,2021-08-06 13:57:26,471969
0,1,1,1,0,0,-1,1,2021-08-06 13:57:26,471969
-1,-2,-3,-1,-2,1,-3,-1,2021-08-06 13:57:26,501966
-1,0,-1,-1,0,0,-1,0,2021-08-06 13:57:26,517966
-3,-5,-4,-3,-3,-3,-3,-5,2021-08-06 13:57:26,517966
2,2,1,2,1,2,1,0,2021-08-06 13:57:26,517966
-1,-1,-2,0,-1,-2,1,-1,2021-08-06 13:57:26,517966
-2,0,0,2,0,-1,-1,-1,2021-08-06 13:57:26,517966
-3,0,-2,-1,-2,-1,-1,-1,2021-08-06 13:57:26,517966
-2,-3,-2,-1,-2,-2,-1,0,2021-08-06 13:57:26,517966
-1,-1,1,-2,0,0,-1,0,2021-08-06 13:57:26,533965
2,1,0,0,0,-2,1,1,2021-08-06 13:57:26,548966
-2,-1,-1,-3,-1,-3,-1,0,2021-08-06 13:57:26,564967
-2,-3,-1,-1,-2,-4,-2,-2,2021-08-06 13:57:26,564967
0,-1,-2,0,-1,-1,-2,-1,2021-08-06 13:57:26,564967
0,-1,1,0,-1,1,-1,0,2021-08-06 13:57:26,564967
1,0,-1,-1,-2,-1,-2,-1,2021-08-06 13:57:26,564967
-1,-1,-2,-2,-1,-2,0,-2,2021-08-06 13:57:26,564967
0,-1,-3,-1,-1,-3,-2,1,2021-08-06 13:57:26,580966
0,1,1,-1,1,0,2,1,2021-08-06 13:57:26,580966
-2,-2,-1,-2,-3,-2,-3,0,2021-08-06 13:57:26,580966
0,-1,0,-1,-1,1,-2,0,2021-08-06 13:57:26,580966
-1,-1,-2,0,0,-1,-3,-3,2021-08-06 13:57:26,580966
0,-1,-1,0,-2,1,-1,-2,2021-08-06 13:57:26,580966
-2,-1,-2,-1,-1,-1,-1,-1,2021-08-06 13:57:26,611966
-2,-2,-3,1,-1,1,1,-1,2021-08-06 13:57:26,611966
-1,3,3,2,1,1,2,-1,2021-08-06 13:57:26,611966
-1,-2,0,-2,-1,-2,-1,0,2021-08-06 13:57:26,611966
0,0,-1,1,-3,-2,-2,0,2021-08-06 13:57:26,611966
-3,-1,-3,-2,-1,-2,-1,-2,2021-08-06 13:57:26,611966
-2,-1,-3,-1,-3,-1,1,1,2021-08-06 13:57:26,641967
-2,-3,-2,0,-1,-2,0,-1,2021-08-06 13:57:26,657966
-1,-2,-1,-2,-1,0,-1,-1,2021-08-06 13:57:26,673966
-1,0,0,-2,-2,-1,-1,-1,2021-08-06 13:57:26,673966
-1,-1,0,-1,-1,-1,-1,-2,2021-08-06 13:57:26,673966
0,0,0,-1,-1,-2,-2,0,2021-08-06 13:57:26,673966
0,-4,0,-2,0,-1,1,-1,2021-08-06 13:57:26,673966
-1,0,-2,-1,-1,-1,-2,-1,2021-08-06 13:57:26,673966
-1,-1,0,2,3,1,0,-2,2021-08-06 13:57:26,674968
-2,0,-2,-1,0,0,-1,-1,2021-08-06 13:57:26,674968
0,2,-1,2,-2,-1,0,-1,2021-08-06 13:57:26,674968
0,-1,-2,0,0,-1,1,-2,2021-08-06 13:57:26,674968
-1,-2,-1,-2,-3,-3,0,-2,2021-08-06 13:57:26,704967
-2,-1,-4,-2,-2,-1,-2,-1,2021-08-06 13:57:26,719966
-1,0,1,-3,-1,-2,-2,-1,2021-08-06 13:57:26,719966
1,1,3,1,0,1,1,-1,2021-08-06 13:57:26,719966
-2,-2,0,-2,-3,0,-1,-1,2021-08-06 13:57:26,719966
-1,-2,-2,-1,0,1,-2,-2,2021-08-06 13:57:26,719966
-3,-4,-5,-5,-5,-4,-3,-3,2021-08-06 13:57:26,719966
-2,0,1,4,4,0,-1,-1,2021-08-06 13:57:26,719966
2,1,-3,1,1,1,2,2,2021-08-06 13:57:26,735966
-3,-3,-3,-7,-7,-7,0,-2,2021-08-06 13:57:26,751967
-1,1,1,3,3,1,0,0,2021-08-06 13:57:26,751967
0,2,4,6,7,1,-2,-1,2021-08-06 13:57:26,751967
-5,-6,-6,-6,-3,0,-2,-2,2021-08-06 13:57:26,751967
-3,-4,-7,-15,-23,-14,-5,-1,2021-08-06 13:57:26,751967
3,4,3,1,-1,0,3,1,2021-08-06 13:57:26,751967
-1,-1,0,0,-2,-3,-2,-1,2021-08-06 13:57:26,751967
1,2,6,7,9,4,0,0,2021-08-06 13:57:26,767967
-1,-2,4,6,5,4,0,1,2021-08-06 13:57:26,783966
-1,-1,-1,-1,-1,-2,-1,-2,2021-08-06 13:57:26,799967
-2,-1,0,0,0,-2,-1,0,2021-08-06 13:57:26,799967
-1,-1,-3,-4,-6,-2,-1,-1,2021-08-06 13:57:26,799967
0,0,-1,1,1,2,0,0,2021-08-06 13:57:26,799967
-1,-1,-1,1,0,1,-1,-1,2021-08-06 13:57:26,815966
-1,-2,-2,-1,-3,-1,0,-1,2021-08-06 13:57:26,831966
1,0,-2,-4,-4,-3,-3,-2,2021-08-06 13:57:26,831966
-1,2,1,0,2,1,1,-1,2021-08-06 13:57:26,831966
0,-1,-1,-2,-3,-1,0,0,2021-08-06 13:57:26,831966
-1,-3,-5,-5,-6,-3,-2,-2,2021-08-06 13:57:26,831966
-2,0,-1,-1,-3,-3,-1,-1,2021-08-06 13:57:26,831966
-1,0,0,5,6,2,-1,-1,2021-08-06 13:57:26,831966
-1,0,0,2,3,1,0,0,2021-08-06 13:57:26,831966
-2,-3,-3,-5,-5,-1,1,0,2021-08-06 13:57:26,831966
1,0,0,-1,-2,-1,0,1,2021-08-06 13:57:26,862966
1,0,1,3,4,2,1,0,2021-08-06 13:57:26,877966
-3,-2,-2,-2,-2,-1,-3,0,2021-08-06 13:57:26,877966
1,-1,-2,-2,-2,-1,-2,0,2021-08-06 13:57:26,877966
0,-2,1,1,0,-2,-1,-1,2021-08-06 13:57:26,877966
0,0,-2,-1,-1,0,-1,1,2021-08-06 13:57:26,877966
-1,-3,-2,-2,-2,-3,0,0,2021-08-06 13:57:26,877966
-2,-4,-2,-1,-2,0,-1,-1,2021-08-06 13:57:26,877966
1,3,1,0,0,0,2,-1,2021-08-06 13:57:26,909966
1,2,2,1,0,0,-1,-1,2021-08-06 13:57:26,909966
-1,-1,-2,0,0,-1,-1,-1,2021-08-06 13:57:26,909966
-1,-2,-2,0,0,0,0,-3,2021-08-06 13:57:26,909966
-3,-3,-2,-2,-4,-3,-3,-1,2021-08-06 13:57:26,909966
-1,-2,-2,0,-1,0,0,1,2021-08-06 13:57:26,909966
-1,2,-1,2,2,1,1,0,2021-08-06 13:57:26,909966
-1,0,-1,-3,-4,-3,-1,-1,2021-08-06 13:57:26,909966
-1,-2,-2,0,-2,-2,-1,0,2021-08-06 13:57:26,941970
-1,-2,-1,1,0,0,-1,-2,2021-08-06 13:57:26,941970
-1,-2,-2,-1,0,-1,-1,-3,2021-08-06 13:57:26,941970
-2,1,-1,-2,-1,-1,-3,0,2021-08-06 13:57:26,941970
-1,0,0,-1,-2,-1,-2,-1,2021-08-06 13:57:26,957967
0,-1,0,-1,0,0,0,0,2021-08-06 13:57:26,957967
-1,-2,-1,-1,-2,-2,0,-1,2021-08-06 13:57:26,957967
1,0,0,-1,-1,-1,1,-2,2021-08-06 13:57:26,957967
-4,-1,-4,-3,-1,-1,0,0,2021-08-06 13:57:26,973966
0,1,0,-1,0,0,1,0,2021-08-06 13:57:26,973966
1,1,-2,-1,-1,-1,1,1,2021-08-06 13:57:26,973966
0,1,1,-2,0,1,-1,2,2021-08-06 13:57:26,973966
-1,-1,0,-1,-2,0,-1,-1,2021-08-06 13:57:27,005966
-1,-3,-3,-1,-2,-2,-2,-2,2021-08-06 13:57:27,005966
-3,-2,-2,0,-3,-1,-3,-3,2021-08-06 13:57:27,005966
2,1,2,1,0,-1,1,2,2021-08-06 13:57:27,005966
-1,-2,-1,-2,-2,0,-1,-1,2021-08-06 13:57:27,021967
0,-2,-3,-1,-1,0,-1,-1,2021-08-06 13:57:27,037966
-2,-2,-2,-3,-2,-1,-1,-2,2021-08-06 13:57:27,037966
-1,0,0,0,-1,1,-1,-2,2021-08-06 13:57:27,037966
0,1,0,-2,-1,0,0,-2,2021-08-06 13:57:27,037966
-1,1,0,-1,1,1,-1,0,2021-08-06 13:57:27,037966
-1,-2,-3,-1,-1,-2,-1,-1,2021-08-06 13:57:27,037966
-1,-4,-1,-3,-3,-1,1,0,2021-08-06 13:57:27,037966
0,0,1,4,5,1,1,-1,2021-08-06 13:57:27,047967
-3,-1,-1,1,-1,-1,0,0,2021-08-06 13:57:27,047967
-2,-1,-2,-1,-2,-2,-1,0,2021-08-06 13:57:27,068967
1,3,0,0,0,0,0,1,2021-08-06 13:57:27,068967
1,1,1,0,-2,0,-2,-2,2021-08-06 13:57:27,084967
-1,-3,-1,-2,-3,-3,-2,-2,2021-08-06 13:57:27,084967
1,-1,0,-1,0,0,-1,0,2021-08-06 13:57:27,084967
-2,-2,0,-1,-2,-1,-1,-1,2021-08-06 13:57:27,084967
-1,-3,-2,-2,-1,-1,-1,-2,2021-08-06 13:57:27,084967
0,1,1,0,0,0,0,0,2021-08-06 13:57:27,084967
0,0,1,2,-1,-1,-1,0,2021-08-06 13:57:27,100966
-2,-3,-2,0,-1,-3,-2,-4,2021-08-06 13:57:27,116966
-1,-1,0,3,-1,-2,-2,-1,2021-08-06 13:57:27,132966
-1,-3,0,-1,-1,0,-3,-2,2021-08-06 13:57:27,132966
2,-1,0,0,1,0,-1,1,2021-08-06 13:57:27,132966
-1,-1,-1,-2,-1,-2,0,-3,2021-08-06 13:57:27,132966
0,-2,0,-3,-1,0,0,1,2021-08-06 13:57:27,132966
-2,-4,-3,-4,-3,-3,0,-3,2021-08-06 13:57:27,132966
0,3,4,3,6,5,3,3,2021-08-06 13:57:27,132966
-1,0,-1,-1,-2,-1,0,1,2021-08-06 13:57:27,133968
-1,-2,-1,-2,-4,0,0,-1,2021-08-06 13:57:27,163969
0,-1,-1,-1,2,-4,-3,-1,2021-08-06 13:57:27,179968
-2,-2,-3,-2,-2,-1,-2,-2,2021-08-06 13:57:27,195966
-1,0,0,-1,0,-2,-1,-1,2021-08-06 13:57:27,195966
-1,-1,-3,-1,-1,-2,-2,-1,2021-08-06 13:57:27,195966
-1,1,-1,0,-3,0,0,0,2021-08-06 13:57:27,211967
-2,-1,-2,-2,-4,-2,-2,-4,2021-08-06 13:57:27,227966
-2,0,-2,-1,1,0,-1,0,2021-08-06 13:57:27,227966
0,-1,-2,-1,-1,-1,0,-1,2021-08-06 13:57:27,227966
0,-1,-1,0,2,2,0,0,2021-08-06 13:57:27,227966
-2,-2,-2,-2,-2,-1,-3,-3,2021-08-06 13:57:27,227966
-2,-2,-2,0,-2,-1,-3,-1,2021-08-06 13:57:27,227966
-2,-1,-1,0,0,-2,-1,-2,2021-08-06 13:57:27,227966
-2,0,-1,1,1,-1,0,0,2021-08-06 13:57:27,228967
0,2,2,-1,-2,-1,-2,-2,2021-08-06 13:57:27,228967
0,-2,-1,1,-1,0,-2,-1,2021-08-06 13:57:27,228967
-1,0,-2,-3,-1,-3,-1,-1,2021-08-06 13:57:27,228967
0,0,1,-2,-1,-2,0,-1,2021-08-06 13:57:27,228967
1,-1,-2,-2,-1,2,1,1,2021-08-06 13:57:27,243968
-1,-1,-1,-2,0,-1,-1,0,2021-08-06 13:57:27,259966
2,-2,-2,0,0,0,-2,0,2021-08-06 13:57:27,275966
0,-1,-1,-3,-2,1,0,0,2021-08-06 13:57:27,291966
-1,0,-1,-1,-1,-2,0,1,2021-08-06 13:57:27,307967
-3,-2,-3,-2,-1,-2,-2,-2,2021-08-06 13:57:27,307967
1,3,3,2,-1,1,1,0,2021-08-06 13:57:27,307967
-2,-3,-1,0,-1,-1,0,-2,2021-08-06 13:57:27,307967
-1,-1,-1,0,-1,0,-2,0,2021-08-06 13:57:27,307967
0,-3,-2,-1,-1,-1,-2,-1,2021-08-06 13:57:27,307967
-2,-1,-2,1,-1,-1,0,-2,2021-08-06 13:57:27,307967
0,2,1,1,0,1,2,2,2021-08-06 13:57:27,307967
-1,-1,-1,-2,-2,0,0,-1,2021-08-06 13:57:27,308968
0,-1,-1,-2,0,0,-2,-1,2021-08-06 13:57:27,308968
-2,-2,-2,-3,0,-2,-3,-3,2021-08-06 13:57:27,323966
-1,-4,-2,-1,-4,-1,-3,-1,2021-08-06 13:57:27,339966
-1,-3,-1,-5,-2,-1,-2,-1,2021-08-06 13:57:27,371966
2,-1,2,1,0,1,1,0,2021-08-06 13:57:27,387966
0,0,-1,1,0,-1,0,0,2021-08-06 13:57:27,387966
-2,-1,-3,-1,1,0,-1,0,2021-08-06 13:57:27,387966
-2,-2,0,-1,-3,-2,-1,-1,2021-08-06 13:57:27,387966
0,-2,-1,-1,-2,-1,2,0,2021-08-06 13:57:27,387966
-2,-1,-1,-3,-1,-1,0,-1,2021-08-06 13:57:27,387966
-2,-1,-2,-2,-4,-2,-2,-1,2021-08-06 13:57:27,387966
-2,-1,-2,0,2,0,-1,-1,2021-08-06 13:57:27,387966
-1,1,-1,0,2,-1,0,0,2021-08-06 13:57:27,388967
0,0,1,0,1,0,0,-2,2021-08-06 13:57:27,388967
-1,0,0,-2,-1,-2,-1,-2,2021-08-06 13:57:27,388967
1,-1,0,0,1,0,-1,0,2021-08-06 13:57:27,388967
0,-1,0,1,-1,-1,-2,0,2021-08-06 13:57:27,388967
-1,-2,-3,-2,-2,-2,-2,0,2021-08-06 13:57:27,388967
1,-2,-1,-2,-1,0,-1,0,2021-08-06 13:57:27,388967
-2,-1,0,0,-1,-2,-1,0,2021-08-06 13:57:27,403966
-1,0,1,0,1,0,1,0,2021-08-06 13:57:27,403966
-2,-3,-1,-1,0,-2,-1,1,2021-08-06 13:57:27,410966
-2,-1,0,-1,-1,0,1,-1,2021-08-06 13:57:27,419966
-1,-2,-2,-1,-1,-1,1,-2,2021-08-06 13:57:27,435966
-1,1,-2,-1,-2,-1,0,-2,2021-08-06 13:57:27,435966
0,0,0,0,0,-1,0,0,2021-08-06 13:57:27,435966
0,-1,0,0,1,-1,0,0,2021-08-06 13:57:27,435966
-1,-4,-1,1,-2,-1,-1,-1,2021-08-06 13:57:27,435966
0,0,0,0,-2,-2,-2,-1,2021-08-06 13:57:27,435966
-2,-3,-2,-2,-3,-2,-3,-3,2021-08-06 13:57:27,451966
0,0,-1,0,0,-1,-1,-1,2021-08-06 13:57:27,451966
1,3,3,4,2,0,-2,0,2021-08-06 13:57:27,467967
-1,-1,1,4,5,2,-1,0,2021-08-06 13:57:27,483966
-2,-3,-4,-7,-7,-4,-1,0,2021-08-06 13:57:27,483966
-2,-4,-6,-10,-9,-6,-4,-3,2021-08-06 13:57:27,483966
0,-1,-2,-4,-2,-2,1,-1,2021-08-06 13:57:27,483966
-1,2,0,2,3,0,-1,1,2021-08-06 13:57:27,483966
0,1,2,4,4,3,2,0,2021-08-06 13:57:27,514968
0,-2,0,0,0,-1,-3,-2,2021-08-06 13:57:27,514968
0,-2,0,-3,-3,-2,-2,0,2021-08-06 13:57:27,514968
0,-2,-1,-1,-1,0,-1,0,2021-08-06 13:57:27,514968
0,-1,-1,1,2,3,0,-1,2021-08-06 13:57:27,514968
1,0,0,2,-1,-2,1,1,2021-08-06 13:57:27,514968
-2,0,1,-1,-1,-2,0,-1,2021-08-06 13:57:27,514968
-3,-2,-2,-3,-1,-2,-3,-3,2021-08-06 13:57:27,514968
-3,-1,0,-1,-1,-1,-3,0,2021-08-06 13:57:27,561983
1,3,2,2,2,0,1,1,2021-08-06 13:57:27,577996
-1,-1,-1,1,0,-2,0,0,2021-08-06 13:57:27,593968
-2,-3,-3,-3,-4,-3,-1,-4,2021-08-06 13:57:27,593968
0,-1,-1,0,-2,-2,0,0,2021-08-06 13:57:27,593968
0,0,1,1,1,0,-1,-1,2021-08-06 13:57:27,593968
-1,-2,0,-2,0,-1,0,0,2021-08-06 13:57:27,593968
0,-1,-2,-3,-3,-2,-1,-1,2021-08-06 13:57:27,593968
-2,-2,-3,0,0,-1,-1,-2,2021-08-06 13:57:27,593968
0,-1,-1,1,-1,0,-2,0,2021-08-06 13:57:27,593968
0,-1,-3,-2,-2,-2,0,-1,2021-08-06 13:57:27,593968
0,-1,0,-3,-2,1,0,0,2021-08-06 13:57:27,594969
-2,0,0,-2,0,-1,0,-2,2021-08-06 13:57:27,594969
-1,-1,-1,0,0,0,-2,-2,2021-08-06 13:57:27,594969
0,1,-3,-1,0,-1,0,-3,2021-08-06 13:57:27,594969
-1,0,-2,-2,-1,-2,-2,-2,2021-08-06 13:57:27,594969
2,1,-1,1,-1,1,-1,-1,2021-08-06 13:57:27,623966
-2,-2,-1,-2,-1,1,0,-2,2021-08-06 13:57:27,639970
-2,-2,-1,0,0,-1,-4,-1,2021-08-06 13:57:27,639970
-1,-1,-2,-1,-1,-1,0,0,2021-08-06 13:57:27,639970
0,-1,-1,-1,-2,-1,0,0,2021-08-06 13:57:27,639970
-2,-1,-2,0,-1,0,-1,-1,2021-08-06 13:57:27,639970
0,0,0,-1,-1,0,0,-1,2021-08-06 13:57:27,639970
-1,-2,-2,-3,-3,-2,1,-1,2021-08-06 13:57:27,639970
0,1,1,-1,-1,-2,0,0,2021-08-06 13:57:27,655966
0,-1,-1,-1,-1,-1,-1,0,2021-08-06 13:57:27,655966
-1,0,-2,-1,-2,1,-1,-1,2021-08-06 13:57:27,655966
-1,-1,0,1,1,1,-1,1,2021-08-06 13:57:27,655966
-2,-1,-2,-3,-1,-2,1,-2,2021-08-06 13:57:27,686966
-2,0,0,0,0,-2,-1,-2,2021-08-06 13:57:27,701966
0,-1,0,1,0,-2,0,0,2021-08-06 13:57:27,701966
0,0,-1,-1,-2,-1,-1,-1,2021-08-06 13:57:27,701966
1,-2,-2,0,1,-1,-1,-1,2021-08-06 13:57:27,701966
-2,-3,-3,-3,-2,-1,-2,-2,2021-08-06 13:57:27,701966
2,2,0,-1,-1,0,0,2,2021-08-06 13:57:27,701966
-1,-1,0,1,-1,1,-1,-2,2021-08-06 13:57:27,702969
-2,-2,0,0,-1,0,-2,0,2021-08-06 13:57:27,717967
-1,0,-2,0,0,-2,-1,-1,2021-08-06 13:57:27,733966
-3,-3,-4,0,0,0,-3,-3,2021-08-06 13:57:27,733966
-1,-1,-1,-2,0,-1,0,-1,2021-08-06 13:57:27,733966
0,-1,-1,0,0,0,-2,-2,2021-08-06 13:57:27,733966
-1,-2,-1,-2,-1,-2,0,0,2021-08-06 13:57:27,733966
-2,-2,-1,-1,-2,-1,-2,0,2021-08-06 13:57:27,733966
1,0,-2,-2,0,0,-1,0,2021-08-06 13:57:27,733966
0,-1,0,-1,-1,1,-1,-1,2021-08-06 13:57:27,765966
-1,-1,-1,0,0,-1,0,0,2021-08-06 13:57:27,779967
-1,-1,-2,-1,1,0,1,-1,2021-08-06 13:57:27,779967
-2,-1,-1,0,-2,-2,0,-1,2021-08-06 13:57:27,779967
-3,-3,-1,0,-2,-2,-2,-1,2021-08-06 13:57:27,779967
0,-1,0,0,1,0,-1,0,2021-08-06 13:57:27,779967
-1,-1,0,0,-2,-1,-1,1,2021-08-06 13:57:27,779967
-2,-1,0,-1,-1,-2,-2,1,2021-08-06 13:57:27,780968
0,0,-2,-2,-1,0,-2,1,2021-08-06 13:57:27,797968
-1,0,-1,0,-1,0,-1,0,2021-08-06 13:57:27,813968
-2,-1,-2,1,0,-2,0,-1,2021-08-06 13:57:27,829967
-1,-2,0,-1,-1,-3,0,-1,2021-08-06 13:57:27,845966
-1,0,0,-1,-1,-1,-1,0,2021-08-06 13:57:27,845966
-1,0,-1,1,0,1,-2,0,2021-08-06 13:57:27,845966
-1,-1,0,0,0,0,-3,-1,2021-08-06 13:57:27,845966
0,-2,-3,0,-2,0,-1,-1,2021-08-06 13:57:27,845966
0,-1,0,-2,-1,-1,-1,-2,2021-08-06 13:57:27,845966
-1,-1,0,-1,-1,-2,-1,-2,2021-08-06 13:57:27,845966
-1,0,-1,0,0,0,-1,-2,2021-08-06 13:57:27,845966
0,-1,0,-1,-1,0,-1,-1,2021-08-06 13:57:27,846968
0,0,-1,-2,-2,-2,-1,-1,2021-08-06 13:57:27,861966
0,-1,-1,1,3,1,-1,-1,2021-08-06 13:57:27,861966
0,0,0,0,-2,0,-3,-2,2021-08-06 13:57:27,861966
-2,-2,0,-2,-3,-2,0,-2,2021-08-06 13:57:27,861966
-1,-2,-2,1,0,-1,-1,-1,2021-08-06 13:57:27,876966
-1,0,-1,-1,-1,1,0,0,2021-08-06 13:57:27,892967
-1,-1,1,-3,-1,-1,-2,0,2021-08-06 13:57:27,908966
-2,-1,-1,0,1,-1,0,-1,2021-08-06 13:57:27,908966
-2,-1,-1,-1,-2,-2,-1,0,2021-08-06 13:57:27,908966
0,0,0,-3,-2,-1,-1,0,2021-08-06 13:57:27,908966
-1,-2,-1,-2,-1,-2,0,-3,2021-08-06 13:57:27,908966
-1,-1,-2,1,0,-1,-1,-2,2021-08-06 13:57:27,908966
-1,0,0,-1,1,-3,2,1,2021-08-06 13:57:27,908966
0,-1,0,0,-2,0,0,-1,2021-08-06 13:57:27,909969
0,-1,-1,0,0,-2,-1,-1,2021-08-06 13:57:27,909969
0,-1,0,-1,-1,-1,-3,-2,2021-08-06 13:57:27,909969
-3,-3,-1,-3,-2,-2,1,-2,2021-08-06 13:57:27,940966
0,-2,-2,-2,-2,-2,-3,-1,2021-08-06 13:57:27,940966
-1,3,1,1,-1,0,-1,0,2021-08-06 13:57:27,940966
-1,-2,-2,-1,0,-1,-1,-1,2021-08-06 13:57:27,940966
-1,-2,-1,0,0,0,-1,-2,2021-08-06 13:57:27,955966
-1,0,-1,-3,-1,-1,-2,-2,2021-08-06 13:57:27,955966
0,-1,0,-3,-4,-2,-1,-2,2021-08-06 13:57:27,955966
1,1,0,2,3,3,2,1,2021-08-06 13:57:27,955966
2,0,-1,0,1,1,0,0,2021-08-06 13:57:27,986966
-2,-3,-3,-1,-2,-2,0,-1,2021-08-06 13:57:28,002967
-1,-2,-1,-1,-2,-1,0,-1,2021-08-06 13:57:28,002967
0,-1,0,-3,-4,-2,-2,-1,2021-08-06 13:57:28,002967
-1,-1,-2,-3,-2,-1,-2,-2,2021-08-06 13:57:28,002967
-1,-1,-2,0,0,0,-1,-1,2021-08-06 13:57:28,002967
0,-1,-2,-1,-1,-1,-1,0,2021-08-06 13:57:28,002967
-2,0,0,-2,-2,-2,-1,-2,2021-08-06 13:57:28,002967
-1,-1,0,0,-1,0,-1,2,2021-08-06 13:57:28,018966
-2,-1,-1,0,0,1,-1,0,2021-08-06 13:57:28,034966
-1,0,0,1,0,0,-1,0,2021-08-06 13:57:28,050966
-2,-1,0,0,-1,-3,-3,1,2021-08-06 13:57:28,050966
1,0,-2,-2,0,-1,-2,-1,2021-08-06 13:57:28,050966
-1,-1,1,-1,-2,0,0,0,2021-08-06 13:57:28,050966
0,0,-1,-2,0,-1,0,0,2021-08-06 13:57:28,050966
-1,1,0,1,-1,0,0,-1,2021-08-06 13:57:28,050966
0,-1,0,-2,-2,-2,-1,-2,2021-08-06 13:57:28,066967
0,-2,-2,-1,-2,-2,0,0,2021-08-06 13:57:28,082966
0,0,-1,0,1,1,3,1,2021-08-06 13:57:28,082966
-1,-3,-1,-2,-3,-2,0,0,2021-08-06 13:57:28,082966
1,1,0,3,2,2,2,2,2021-08-06 13:57:28,098966
-2,-1,-2,-1,0,-2,-2,-4,2021-08-06 13:57:28,098966
-3,0,0,-1,0,0,-2,-1,2021-08-06 13:57:28,098966
-2,-1,0,-2,-2,-1,-3,-2,2021-08-06 13:57:28,098966
-1,-1,-2,0,-3,-1,-2,-3,2021-08-06 13:57:28,098966
1,-1,2,-1,0,-1,-1,0,2021-08-06 13:57:28,098966
0,0,-3,-2,-2,-2,-1,-2,2021-08-06 13:57:28,098966
1,-1,0,-1,0,-2,-1,1,2021-08-06 13:57:28,099967
-1,0,0,-2,-1,-1,-2,-1,2021-08-06 13:57:28,130966
1,-1,-3,-1,-2,2,0,0,2021-08-06 13:57:28,141966
-2,-1,0,-1,-2,1,0,1,2021-08-06 13:57:28,146966
-1,-1,-2,-2,-1,0,1,-1,2021-08-06 13:57:28,146966
-1,-2,-1,1,-1,0,0,0,2021-08-06 13:57:28,146966
-1,2,0,1,0,-1,0,0,2021-08-06 13:57:28,146966
-1,-3,-1,-1,-1,-1,-2,-1,2021-08-06 13:57:28,146966
-1,1,0,0,0,0,1,-1,2021-08-06 13:57:28,146966
-1,-1,-2,-1,-2,-1,-2,-1,2021-08-06 13:57:28,162966
0,-2,-1,-3,-1,-1,-1,-2,2021-08-06 13:57:28,177966
-2,0,-1,0,0,0,-2,0,2021-08-06 13:57:28,177966
-1,0,-3,-2,-1,0,0,-1,2021-08-06 13:57:28,177966
1,0,-3,-2,-2,-1,-2,-2,2021-08-06 13:57:28,177966
-1,-1,0,-1,-1,-1,0,-2,2021-08-06 13:57:28,177966
-1,-2,0,0,0,-1,-1,-1,2021-08-06 13:57:28,177966
-3,-4,-3,-2,-2,-3,-2,-1,2021-08-06 13:57:28,177966
1,3,1,0,-1,0,-1,0,2021-08-06 13:57:28,192966
-1,2,1,3,2,0,1,1,2021-08-06 13:57:28,192966
1,-2,-1,-1,-2,-2,-2,-2,2021-08-06 13:57:28,192966
-1,2,0,1,-1,0,1,0,2021-08-06 13:57:28,192966
-1,-4,-2,0,0,-4,-1,-2,2021-08-06 13:57:28,224970
0,1,0,1,-2,-2,-3,0,2021-08-06 13:57:28,224970
0,-1,-3,-1,0,-1,0,-2,2021-08-06 13:57:28,224970
-1,-2,-1,0,-2,0,-1,0,2021-08-06 13:57:28,224970
-2,-1,-1,-2,-3,-3,-1,-1,2021-08-06 13:57:28,272966
0,-3,-1,-1,-1,-1,0,-1,2021-08-06 13:57:28,272966
0,1,1,1,0,0,2,-1,2021-08-06 13:57:28,272966
-1,0,-1,-2,0,-1,-2,1,2021-08-06 13:57:28,272966
-1,0,0,-1,1,0,0,0,2021-08-06 13:57:28,272966
-2,-2,-2,-3,-3,-2,-2,-2,2021-08-06 13:57:28,272966
0,0,-1,-1,0,0,-1,0,2021-08-06 13:57:28,272966
1,1,-1,0,0,0,0,-1,2021-08-06 13:57:28,272966
-1,-1,-1,0,-1,0,0,-1,2021-08-06 13:57:28,272966
-2,-1,-2,-1,0,-1,-1,-1,2021-08-06 13:57:28,272966
1,0,0,1,-1,-2,-2,0,2021-08-06 13:57:28,272966
-1,1,0,-2,0,0,-1,-1,2021-08-06 13:57:28,273968
-1,-2,-2,-2,-2,-2,-1,1,2021-08-06 13:57:28,305018
-1,-2,-1,-1,-1,-2,0,-3,2021-08-06 13:57:28,305018
-1,-1,-2,0,-3,0,-1,-1,2021-08-06 13:57:28,305018
1,-1,0,1,-1,-1,1,0,2021-08-06 13:57:28,305018
-2,-2,-2,0,1,-1,-1,-2,2021-08-06 13:57:28,320966
-1,0,2,0,2,0,-1,1,2021-08-06 13:57:28,337007
-2,-1,0,0,1,0,0,0,2021-08-06 13:57:28,337007
1,0,0,1,-2,2,-1,0,2021-08-06 13:57:28,337007
-1,0,-1,-2,-2,1,-1,-2,2021-08-06 13:57:28,337007
1,0,-4,-1,-1,-1,-2,-1,2021-08-06 13:57:28,337007
-1,-3,-2,-2,0,-1,-1,-2,2021-08-06 13:57:28,352966
-1,-3,1,1,-1,-1,1,-1,2021-08-06 13:57:28,368966
0,0,-1,-1,-1,-1,-1,-2,2021-08-06 13:57:28,368966
-2,0,-1,-1,0,0,0,0,2021-08-06 13:57:28,368966
1,-1,-2,-2,-2,-1,-2,-1,2021-08-06 13:57:28,368966
-1,-1,-2,-2,1,-1,-2,-1,2021-08-06 13:57:28,368966
0,0,-1,-1,-3,-1,-1,-2,2021-08-06 13:57:28,368966
-3,-3,-2,0,-1,0,1,-1,2021-08-06 13:57:28,368966
-2,-1,0,-1,-1,-3,-1,-1,2021-08-06 13:57:28,400966
0,1,-2,1,1,0,-2,-1,2021-08-06 13:57:28,415966
2,-1,-1,-1,0,-2,-1,0,2021-08-06 13:57:28,430966
1,0,-1,-1,-1,0,0,0,2021-08-06 13:57:28,430966
-1,-1,-2,-1,-1,0,-1,-1,2021-08-06 13:57:28,430966
1,-2,-2,-2,-1,-3,-1,-3,2021-08-06 13:57:28,430966
-1,0,-2,-1,-1,-1,0,-2,2021-08-06 13:57:28,430966
-1,1,-1,-1,-1,0,-1,0,2021-08-06 13:57:28,430966
-1,0,0,0,0,1,0,-2,2021-08-06 13:57:28,430966
0,-1,0,-2,-1,-2,-1,-1,2021-08-06 13:57:28,430966
-2,-1,-1,0,-1,2,0,0,2021-08-06 13:57:28,430966
0,-3,-2,-1,-1,-2,0,-2,2021-08-06 13:57:28,430966
-1,-2,-4,-1,0,0,0,0,2021-08-06 13:57:28,446967
0,2,1,0,-1,-2,1,1,2021-08-06 13:57:28,446967
0,-1,1,0,0,-2,1,2,2021-08-06 13:57:28,478969
-3,-3,0,0,0,0,1,0,2021-08-06 13:57:28,494967
-1,-2,-2,-2,-1,-3,-1,-2,2021-08-06 13:57:28,494967
-3,-3,-2,-2,-2,-1,-2,-2,2021-08-06 13:57:28,494967
-1,-1,-1,-1,0,-1,-2,-1,2021-08-06 13:57:28,494967
0,-1,-2,-1,0,-3,-1,-1,2021-08-06 13:57:28,494967
-2,-1,0,-1,-2,-1,0,-1,2021-08-06 13:57:28,494967
-4,-1,-2,-3,-2,0,-1,-1,2021-08-06 13:57:28,494967
1,-1,0,-2,-1,0,0,-1,2021-08-06 13:57:28,495967
0,0,0,0,-1,-1,-2,-1,2021-08-06 13:57:28,495967
1,0,-1,0,-1,-2,-1,-1,2021-08-06 13:57:28,495967
0,-1,-1,1,0,-1,0,0,2021-08-06 13:57:28,495967
-1,-1,-1,-1,-1,-1,-2,-1,2021-08-06 13:57:28,510967
0,-2,-3,0,-1,0,-1,-1,2021-08-06 13:57:28,511968
2,-1,-1,-1,0,0,1,1,2021-08-06 13:57:28,511968
0,0,0,0,-2,-3,-1,-1,2021-08-06 13:57:28,511968
0,-1,-1,-1,-3,-2,-1,-1,2021-08-06 13:57:28,558966
-2,0,0,-1,-2,-1,-1,-3,2021-08-06 13:57:28,574966
0,-1,0,0,-2,2,-1,-1,2021-08-06 13:57:28,590965
-1,-1,-1,0,-1,0,1,-1,2021-08-06 13:57:28,622968
-2,-1,0,1,0,0,0,0,2021-08-06 13:57:28,622968
0,1,1,0,-1,-1,-1,0,2021-08-06 13:57:28,622968
-3,-2,-1,-3,-1,-2,-2,-2,2021-08-06 13:57:28,622968
1,-1,-1,-1,-3,-2,-3,-1,2021-08-06 13:57:28,622968
2,1,0,-1,-1,-1,-1,0,2021-08-06 13:57:28,622968
-2,0,-1,-1,-1,0,-1,-1,2021-08-06 13:57:28,622968
0,-1,-1,-1,-3,-2,-1,-1,2021-08-06 13:57:28,622968
-2,-3,0,-1,0,-1,1,-1,2021-08-06 13:57:28,623966
-4,-3,-4,-2,-2,-2,-1,0,2021-08-06 13:57:28,623966
0,-1,-2,-1,-1,-1,-2,0,2021-08-06 13:57:28,623966
-1,1,0,0,1,0,-1,-1,2021-08-06 13:57:28,623966
0,-3,-3,-3,-1,-1,-2,-1,2021-08-06 13:57:28,623966
0,-1,-1,-1,0,0,-2,-1,2021-08-06 13:57:28,623966
2,0,1,-2,0,0,2,2,2021-08-06 13:57:28,623966
-1,-1,0,-1,-3,-1,-3,-1,2021-08-06 13:57:28,623966
-1,-1,-3,0,0,0,0,-2,2021-08-06 13:57:28,623966
-1,-1,1,-1,-1,-1,0,-1,2021-08-06 13:57:28,638966
-1,-2,-1,-1,0,-1,-1,0,2021-08-06 13:57:28,638966
0,-2,0,0,-3,-2,0,-1,2021-08-06 13:57:28,638966
1,1,-1,-1,-1,0,-1,1,2021-08-06 13:57:28,638966
-1,-2,-1,-1,-1,-1,-2,0,2021-08-06 13:57:28,685966
-2,-3,-2,-2,-1,0,0,-1,2021-08-06 13:57:28,701966
0,0,-1,-1,1,-1,1,0,2021-08-06 13:57:28,701966
-2,0,1,-2,-1,-3,0,0,2021-08-06 13:57:28,701966
-1,0,1,0,-1,1,-1,-1,2021-08-06 13:57:28,701966
0,0,1,-2,-1,-2,0,-1,2021-08-06 13:57:28,701966
0,-1,-3,0,0,0,0,-1,2021-08-06 13:57:28,701966
-3,-2,-2,0,-1,-1,-4,-2,2021-08-06 13:57:28,701966
-2,-1,-2,-1,0,0,-1,-1,2021-08-06 13:57:28,701966
-2,0,-2,-1,-1,-1,-1,-2,2021-08-06 13:57:28,701966
0,-3,-1,1,-1,0,1,0,2021-08-06 13:57:28,701966
1,1,-1,0,-1,-2,0,-1,2021-08-06 13:57:28,701966
0,1,0,-1,-1,0,1,-2,2021-08-06 13:57:28,717967
-2,-1,-4,0,-1,-2,-1,-2,2021-08-06 13:57:28,717967
-1,-1,-1,-2,-1,-1,-1,0,2021-08-06 13:57:28,717967
0,0,0,-1,-1,-1,-1,-1,2021-08-06 13:57:28,717967
-3,-1,-3,1,-4,-1,-2,1,2021-08-06 13:57:28,749967
1,-1,1,0,1,1,1,0,2021-08-06 13:57:28,749967
-3,1,0,-1,-1,-3,-1,-2,2021-08-06 13:57:28,749967
2,-1,1,1,1,4,5,4,2021-08-06 13:57:28,749967
1,0,-1,-3,-2,-5,-6,-3,2021-08-06 13:57:28,749967
-4,-3,0,-1,-5,-9,-11,-8,2021-08-06 13:57:28,749967
-1,-1,-2,-1,-1,-1,-3,-2,2021-08-06 13:57:28,749967
0,0,-1,-1,0,0,1,0,2021-08-06 13:57:28,749967
-1,0,-1,0,1,3,5,2,2021-08-06 13:57:28,780966
1,1,0,-1,1,2,2,0,2021-08-06 13:57:28,780966
0,0,0,0,2,0,1,0,2021-08-06 13:57:28,780966
-2,-2,-3,-1,-2,-1,0,-2,2021-08-06 13:57:28,780966
0,0,0,2,2,1,1,1,2021-08-06 13:57:28,826969
2,0,1,0,-1,1,1,1,2021-08-06 13:57:28,843016
-1,-1,0,0,-3,0,0,-1,2021-08-06 13:57:28,843016
-1,-1,-1,-2,-2,1,-1,0,2021-08-06 13:57:28,843016
-1,-1,-2,-1,0,-3,-3,-2,2021-08-06 13:57:28,843016
-2,-1,-1,-1,-1,1,1,-1,2021-08-06 13:57:28,843016
-1,-1,-2,-2,0,-2,-1,-1,2021-08-06 13:57:28,843016
-1,1,-1,0,-2,0,-3,0,2021-08-06 13:57:28,843016
0,-1,0,-2,-3,-3,-3,-2,2021-08-06 13:57:28,843968
1,-2,-1,-1,-1,0,1,1,2021-08-06 13:57:28,843968
0,1,1,-1,1,0,-1,-1,2021-08-06 13:57:28,843968
-1,0,-1,-2,-2,-1,-2,-1,2021-08-06 13:57:28,843968
-1,-1,-1,-1,-1,-1,1,1,2021-08-06 13:57:28,875967
-2,-1,-3,-1,0,-1,0,0,2021-08-06 13:57:28,875967
-2,-2,-2,-2,-4,-3,-2,-3,2021-08-06 13:57:28,875967
1,0,1,1,1,0,-2,-1,2021-08-06 13:57:28,875967
1,0,1,0,1,2,1,0,2021-08-06 13:57:28,875967
-1,-1,-1,-2,-1,-1,-2,-1,2021-08-06 13:57:28,876968
-2,-2,-2,-1,-1,-2,0,-1,2021-08-06 13:57:28,876968
-2,-3,-1,-2,-2,-2,-2,-2,2021-08-06 13:57:28,876968
-1,-1,-2,0,-1,-3,0,-2,2021-08-06 13:57:28,904965
1,1,1,2,1,1,1,0,2021-08-06 13:57:28,920966
0,1,0,1,0,1,-1,0,2021-08-06 13:57:28,936967
0,-2,0,-1,-2,0,-1,-3,2021-08-06 13:57:28,952966
-1,-2,0,1,0,-1,-1,-2,2021-08-06 13:57:28,952966
-1,0,-1,-2,-4,-2,-1,-1,2021-08-06 13:57:28,952966
-1,-3,-2,-1,-2,-1,1,0,2021-08-06 13:57:28,952966
-1,-1,-3,-1,-1,-2,0,-2,2021-08-06 13:57:28,952966
-2,-4,-1,-1,-2,-2,-2,-1,2021-08-06 13:57:28,952966
1,1,0,-1,-2,-1,0,0,2021-08-06 13:57:28,952966
0,0,-1,-1,0,-1,-2,-1,2021-08-06 13:57:28,953967
1,-2,-2,0,-2,-1,-1,-1,2021-08-06 13:57:28,953967
-1,-2,-3,-2,-2,0,1,1,2021-08-06 13:57:28,953967
-2,-2,-2,-1,-1,1,1,2,2021-08-06 13:57:28,953967
-2,-2,0,-1,0,0,-1,-1,2021-08-06 13:57:28,982966
-4,-3,0,0,0,-1,-2,-2,2021-08-06 13:57:28,982966
-1,0,0,2,0,0,-3,-2,2021-08-06 13:57:28,982966
0,-1,1,-1,1,-1,-1,-1,2021-08-06 13:57:28,982966
-2,1,0,1,-1,-1,-3,-1,2021-08-06 13:57:28,982966
2,-1,0,-2,-2,-2,-1,0,2021-08-06 13:57:28,982966
0,0,-1,-2,-1,0,0,0,2021-08-06 13:57:28,997967
-1,-3,-2,0,0,-1,0,0,2021-08-06 13:57:29,013966
-1,1,-2,-2,-1,0,0,0,2021-08-06 13:57:29,029966
-2,-1,-3,-2,-1,-3,-2,0,2021-08-06 13:57:29,045966
0,-1,1,2,0,1,0,0,2021-08-06 13:57:29,061966
-1,-3,-1,-2,-2,-2,-1,-3,2021-08-06 13:57:29,061966
-1,-2,1,0,-1,0,0,-1,2021-08-06 13:57:29,061966
-4,-1,-2,0,0,0,-3,-1,2021-08-06 13:57:29,061966
-2,-2,-2,-1,-2,-2,-3,-1,2021-08-06 13:57:29,061966
0,-1,0,0,0,-1,-1,0,2021-08-06 13:57:29,061966
-2,0,-1,0,-2,0,-1,-1,2021-08-06 13:57:29,061966
1,2,0,-1,-1,0,-1,0,2021-08-06 13:57:29,061966
-1,-2,-1,-2,-1,-1,-1,-1,2021-08-06 13:57:29,062967
-2,-2,-1,0,0,-2,-2,1,2021-08-06 13:57:29,062967
1,-2,-3,-1,-1,-1,0,0,2021-08-06 13:57:29,062967
0,-2,0,-2,-2,-1,2,1,2021-08-06 13:57:29,062967
-1,0,-1,-1,-1,1,0,-1,2021-08-06 13:57:29,077969
0,0,0,-3,-1,0,0,0,2021-08-06 13:57:29,077969
-2,0,1,-3,-3,-1,-2,0,2021-08-06 13:57:29,077969
-1,0,-2,1,1,-1,0,0,2021-08-06 13:57:29,077969
0,1,1,-2,-1,-1,-2,0,2021-08-06 13:57:29,109967
0,-1,-1,1,-1,-1,-3,-1,2021-08-06 13:57:29,125967
0,-1,-3,-1,1,-1,-2,-1,2021-08-06 13:57:29,141973
-2,-1,-1,-1,-1,-2,-3,-1,2021-08-06 13:57:29,141973
1,0,2,0,1,1,2,0,2021-08-06 13:57:29,141973
-2,-3,-2,-1,-2,0,-1,-1,2021-08-06 13:57:29,141973
-1,-1,0,-1,0,-1,-2,-1,2021-08-06 13:57:29,141973
1,-2,-1,0,-1,0,-1,-2,2021-08-06 13:57:29,141973
1,-3,-2,-1,-2,0,-1,0,2021-08-06 13:57:29,141973
0,0,-3,-2,-2,-2,-3,-1,2021-08-06 13:57:29,141973
0,-1,-1,0,-1,0,0,-3,2021-08-06 13:57:29,157967
-1,-1,-2,-2,-1,-2,0,-1,2021-08-06 13:57:29,157967
-1,-1,-1,-1,-1,-1,-2,-2,2021-08-06 13:57:29,157967
0,-2,-1,-1,-1,0,-1,-1,2021-08-06 13:57:29,157967
0,0,-1,-2,-2,-1,0,0,2021-08-06 13:57:29,205995
-1,-1,0,1,0,-1,-1,0,2021-08-06 13:57:29,222007
0,-2,-2,-1,-1,-1,0,-1,2021-08-06 13:57:29,222007
-1,-1,1,-1,-1,-3,0,-2,2021-08-06 13:57:29,233967
-1,-2,-2,0,0,0,-1,0,2021-08-06 13:57:29,233967
0,-1,-1,-1,0,0,-1,0,2021-08-06 13:57:29,253966
-1,1,-1,0,-2,-1,-1,-1,2021-08-06 13:57:29,253966
-1,-1,-1,-1,0,0,-1,0,2021-08-06 13:57:29,253966
0,-1,-1,0,1,-1,-1,0,2021-08-06 13:57:29,253966
0,0,-2,-1,-1,-2,-2,-2,2021-08-06 13:57:29,253966
-1,0,-1,0,1,-1,0,1,2021-08-06 13:57:29,253966
0,1,0,0,0,0,-1,1,2021-08-06 13:57:29,253966
0,0,0,-2,0,-2,-1,-1,2021-08-06 13:57:29,253966
-1,-1,0,-1,-1,1,0,-1,2021-08-06 13:57:29,253966
-1,0,-1,-2,-1,-3,0,0,2021-08-06 13:57:29,253966
-1,-1,1,-1,-1,-1,-2,-2,2021-08-06 13:57:29,254968
0,-1,0,-1,-1,0,-2,0,2021-08-06 13:57:29,254968
-1,0,-2,0,0,-1,-2,-1,2021-08-06 13:57:29,254968
-1,-1,-1,1,0,-1,-1,-2,2021-08-06 13:57:29,254968
-1,-1,-3,-3,-1,-2,-1,-1,2021-08-06 13:57:29,254968
0,0,1,0,-1,-1,1,-1,2021-08-06 13:57:29,254968
-2,-1,1,1,0,0,-1,-1,2021-08-06 13:57:29,254968
0,0,0,-3,-2,-3,1,0,2021-08-06 13:57:29,283966
-1,-3,-4,0,-1,0,0,-2,2021-08-06 13:57:29,283966
0,-1,-3,0,-2,-1,-1,0,2021-08-06 13:57:29,283966
0,0,-1,-2,-2,-1,-1,-1,2021-08-06 13:57:29,283966
-1,0,0,-1,-2,-1,-1,-1,2021-08-06 13:57:29,299966
-2,0,-1,0,0,-2,-1,0,2021-08-06 13:57:29,299966
-1,-1,-2,0,-1,0,-1,-2,2021-08-06 13:57:29,299966
0,-1,-1,-1,-1,0,0,-1,2021-08-06 13:57:29,299966
1,0,0,-1,-1,0,-1,0,2021-08-06 13:57:29,330966
-2,-1,0,-1,-1,-1,0,-1,2021-08-06 13:57:29,330966
-1,0,0,0,-1,-2,-1,0,2021-08-06 13:57:29,330966
0,-2,-1,-3,-1,-2,-1,0,2021-08-06 13:57:29,330966
0,-1,-3,0,-1,0,-2,-1,2021-08-06 13:57:29,345967
-1,0,1,0,-1,-1,0,0,2021-08-06 13:57:29,361967
-1,-2,-2,-1,-2,-2,-2,-1,2021-08-06 13:57:29,361967
-1,0,-2,-2,-1,-1,-1,-1,2021-08-06 13:57:29,377967
-2,-2,0,-2,-3,-3,-1,0,2021-08-06 13:57:29,377967
0,-1,-1,-2,1,2,-1,-1,2021-08-06 13:57:29,377967
-1,-2,0,1,1,1,0,-1,2021-08-06 13:57:29,377967
-2,0,0,0,-2,0,0,-3,2021-08-06 13:57:29,377967
-1,-3,-2,-1,-1,0,-2,-2,2021-08-06 13:57:29,377967
2,3,2,0,-1,0,1,0,2021-08-06 13:57:29,377967
-1,1,1,-2,-1,-1,-1,0,2021-08-06 13:57:29,377967
0,0,1,0,0,-2,0,0,2021-08-06 13:57:29,377967
-2,-2,-1,-3,-1,-1,0,-1,2021-08-06 13:57:29,407966
-3,-3,-5,-4,-3,-3,-2,-4,2021-08-06 13:57:29,423967
2,1,0,0,0,0,-2,1,2021-08-06 13:57:29,423967
-1,0,0,0,-1,0,0,-1,2021-08-06 13:57:29,423967
-1,-2,-2,0,0,1,0,-2,2021-08-06 13:57:29,423967
-2,-1,-2,1,-1,-2,-1,0,2021-08-06 13:57:29,439967
0,0,-1,1,-2,1,1,-2,2021-08-06 13:57:29,439967
-2,-2,-2,0,0,0,0,-2,2021-08-06 13:57:29,439967
-1,-2,-1,1,0,-3,-2,-2,2021-08-06 13:57:29,439967
2,4,3,1,1,1,0,0,2021-08-06 13:57:29,439967
0,0,-1,0,-1,-2,-3,-1,2021-08-06 13:57:29,439967
0,0,-1,0,-1,-2,-2,0,2021-08-06 13:57:29,439967
0,-1,-2,-1,0,1,-3,0,2021-08-06 13:57:29,470966
-3,-1,-2,-1,-1,1,0,-1,2021-08-06 13:57:29,470966
-1,-4,-3,-3,-1,-1,-2,-1,2021-08-06 13:57:29,470966
-1,0,0,-1,0,0,-1,1,2021-08-06 13:57:29,470966
-2,0,-1,-2,1,-1,-1,1,2021-08-06 13:57:29,486966
0,-1,-2,-1,-2,-1,-2,-3,2021-08-06 13:57:29,502967
-1,0,1,0,0,-1,0,-1,2021-08-06 13:57:29,518966
-2,-4,-2,-1,-2,-2,-2,-2,2021-08-06 13:57:29,518966
0,-1,-1,1,0,0,-1,-1,2021-08-06 13:57:29,518966
0,0,-1,-2,-3,0,-1,0,2021-08-06 13:57:29,518966
0,-2,-1,1,3,0,0,-1,2021-08-06 13:57:29,518966
0,-1,-1,-1,-1,-2,0,-1,2021-08-06 13:57:29,518966
-2,0,-1,-1,-4,-1,-1,-1,2021-08-06 13:57:29,518966
-1,0,-1,-1,-2,-2,-1,-2,2021-08-06 13:57:29,518966
-1,-1,-2,0,-3,-1,0,0,2021-08-06 13:57:29,519967
-1,-3,0,1,0,0,-1,-1,2021-08-06 13:57:29,519967
2,2,1,2,3,-2,0,-1,2021-08-06 13:57:29,534966
0,-2,0,-5,-6,-3,-2,-1,2021-08-06 13:57:29,534966
-3,-3,-1,-2,0,2,-1,1,2021-08-06 13:57:29,550966
3,4,3,2,2,7,6,2,2021-08-06 13:57:29,550966
3,1,0,3,-1,-4,-2,2,2021-08-06 13:57:29,566966
-5,-5,-2,-2,-5,-10,-9,-5,2021-08-06 13:57:29,566966
-2,-5,-4,-3,1,-3,-3,-4,2021-08-06 13:57:29,566966
0,-1,-4,-4,-2,0,0,-1,2021-08-06 13:57:29,566966
0,0,-2,2,2,6,4,1,2021-08-06 13:57:29,581967
3,2,-1,0,5,5,5,2,2021-08-06 13:57:29,597967
-1,0,-1,-2,-4,-1,-1,-1,2021-08-06 13:57:29,601966
-3,-2,-2,-1,-2,-2,-3,-2,2021-08-06 13:57:29,601966
1,0,0,-1,0,-2,2,-1,2021-08-06 13:57:29,601966
-4,-4,-1,-2,-2,-1,-3,-3,2021-08-06 13:57:29,601966
-2,0,-2,0,0,-2,-1,-2,2021-08-06 13:57:29,601966
1,-2,-1,0,2,2,-1,1,2021-08-06 13:57:29,601966
-3,-2,0,-1,-2,-3,-2,-2,2021-08-06 13:57:29,629966
-3,-3,-3,-1,0,-1,0,-1,2021-08-06 13:57:29,629966
0,2,-1,-1,0,-2,1,2,2021-08-06 13:57:29,629966
-1,-2,-2,-2,-5,-3,-3,-1,2021-08-06 13:57:29,629966
-1,-2,0,-2,-3,0,-2,-3,2021-08-06 13:57:29,644967
1,0,-2,2,2,3,2,0,2021-08-06 13:57:29,644967
-1,-1,-1,-2,-2,-1,0,-2,2021-08-06 13:57:29,644967
-1,-1,-2,-2,-3,-3,-3,-2,2021-08-06 13:57:29,644967
-3,-2,-2,-2,-4,-2,-3,-2,2021-08-06 13:57:29,676968
0,-1,0,0,-1,-2,0,1,2021-08-06 13:57:29,676968
0,-1,-2,-1,-3,0,-2,0,2021-08-06 13:57:29,676968
-1,0,0,-3,-1,-2,-1,-1,2021-08-06 13:57:29,676968
-2,-2,-1,1,3,0,1,-1,2021-08-06 13:57:29,676968
1,-1,-1,-2,-2,-2,0,1,2021-08-06 13:57:29,676968
-1,-1,0,1,1,-1,-2,-2,2021-08-06 13:57:29,676968
0,-1,-3,-2,-1,-2,-1,-1,2021-08-06 13:57:29,676968
-2,-2,-1,-6,-8,-5,-4,-3,2021-08-06 13:57:29,709018
2,2,1,5,8,4,2,0,2021-08-06 13:57:29,709018
0,0,-2,-2,-3,-2,0,0,2021-08-06 13:57:29,709018
-1,-1,0,4,5,3,1,0,2021-08-06 13:57:29,709018
-3,-3,-1,-2,0,-2,-1,-2,2021-08-06 13:57:29,724968
-4,-3,-3,-2,-2,-2,-1,-3,2021-08-06 13:57:29,724968
1,1,4,0,-1,0,0,1,2021-08-06 13:57:29,724968
0,0,1,0,-3,-1,-1,-2,2021-08-06 13:57:29,724968
0,0,-1,-1,-1,1,-1,0,2021-08-06 13:57:29,741000
-4,-3,-5,-5,-4,-4,-2,-1,2021-08-06 13:57:29,741000
0,-4,-3,-3,-3,-1,0,-4,2021-08-06 13:57:29,741000
-1,-2,0,-1,-3,-2,0,1,2021-08-06 13:57:29,741000
0,-2,-1,1,1,-1,-3,-3,2021-08-06 13:57:29,771966
1,1,2,1,3,3,3,1,2021-08-06 13:57:29,787967
-3,-2,-2,-4,-3,-2,-2,-1,2021-08-06 13:57:29,803967
-1,1,-3,-6,-8,-7,-2,-1,2021-08-06 13:57:29,803967
1,-3,0,4,4,4,2,0,2021-08-06 13:57:29,803967
0,0,0,3,2,1,-1,-1,2021-08-06 13:57:29,803967
-5,-6,-3,-4,-4,-5,-3,-3,2021-08-06 13:57:29,803967
0,-1,-1,0,4,2,1,-1,2021-08-06 13:57:29,803967
2,4,3,-3,-4,-1,0,2,2021-08-06 13:57:29,803967
1,-1,0,0,1,2,1,0,2021-08-06 13:57:29,804969
-1,-3,-3,-2,-4,-4,-3,-4,2021-08-06 13:57:29,804969
-1,-3,-3,-2,-1,-1,0,0,2021-08-06 13:57:29,804969
2,1,-2,-2,-1,-2,-1,1,2021-08-06 13:57:29,834966
-3,-5,-3,-8,-13,-7,-4,-4,2021-08-06 13:57:29,849966
7,8,9,23,37,19,10,6,2021-08-06 13:57:29,865966
-3,-3,-2,-1,-5,-4,-3,-3,2021-08-06 13:57:29,865966
-1,-2,-4,-2,-4,-3,0,0,2021-08-06 13:57:29,865966
-1,-1,-3,-3,-2,-2,-2,1,2021-08-06 13:57:29,865966
-3,-5,-5,-10,-13,-6,-3,-3,2021-08-06 13:57:29,865966
1,-1,0,2,3,2,0,0,2021-08-06 13:57:29,865966
-1,-2,-2,-3,-4,-2,0,-2,2021-08-06 13:57:29,865966
-1,-1,3,4,7,4,1,-1,2021-08-06 13:57:29,866970
-2,-3,-5,-5,-6,-3,-3,-4,2021-08-06 13:57:29,866970
0,4,2,0,-2,0,-1,0,2021-08-06 13:57:29,866970
-1,-1,-2,-4,-4,-4,-4,0,2021-08-06 13:57:29,881967
1,1,-1,0,0,-1,1,1,2021-08-06 13:57:29,881967
0,1,2,3,0,0,0,2,2021-08-06 13:57:29,881967
-3,-3,-3,-1,3,-1,0,-1,2021-08-06 13:57:29,881967
-1,-3,-2,-4,-2,-3,-2,-2,2021-08-06 13:57:29,913967
-1,0,-2,-2,-2,-3,-2,-1,2021-08-06 13:57:29,929966
-2,-3,-1,-3,-1,-2,-2,-2,2021-08-06 13:57:29,944966
0,3,2,2,-1,1,0,-1,2021-08-06 13:57:29,944966
-2,-2,2,3,6,3,1,0,2021-08-06 13:57:29,944966
1,-1,-2,-2,-1,-1,-1,-3,2021-08-06 13:57:29,944966
-4,-4,-3,-5,-11,-7,-6,-3,2021-08-06 13:57:29,944966
-1,0,-1,0,3,1,0,-2,2021-08-06 13:57:29,944966
2,3,-1,1,3,0,2,2,2021-08-06 13:57:29,944966
-2,-2,-1,0,-2,-2,-2,-2,2021-08-06 13:57:29,944966
0,-2,-4,-6,-6,-5,-1,1,2021-08-06 13:57:29,945969
1,0,0,-1,0,-1,-1,-1,2021-08-06 13:57:29,945969
-2,-2,0,0,-1,0,1,0,2021-08-06 13:57:29,964967
-2,-3,0,0,-2,-2,-2,-1,2021-08-06 13:57:29,964967
-2,-2,-2,2,-1,0,-1,-1,2021-08-06 13:57:29,965967
2,2,2,2,1,1,3,2,2021-08-06 13:57:29,965967
-3,-2,-2,-5,-5,-2,-2,-3,2021-08-06 13:57:29,976967
-1,2,2,1,3,0,0,0,2021-08-06 13:57:29,976967
0,0,0,-1,0,0,1,1,2021-08-06 13:57:29,992967
-4,-5,-5,-6,-7,-6,-4,-4,2021-08-06 13:57:29,992967
1,0,1,3,4,2,0,-1,2021-08-06 13:57:30,008966
2,2,3,3,0,1,1,2,2021-08-06 13:57:30,024966
-1,1,-2,0,-3,-1,-1,-2,2021-08-06 13:57:30,024966
-1,-2,-2,-1,1,0,0,-1,2021-08-06 13:57:30,024966
-2,-2,-3,-2,-4,-2,-1,-2,2021-08-06 13:57:30,024966
-1,-2,-3,-2,0,-1,-1,-1,2021-08-06 13:57:30,024966
-1,1,-1,2,0,2,0,-1,2021-08-06 13:57:30,024966
1,0,1,-1,-4,-3,-2,-1,2021-08-06 13:57:30,024966
1,-1,-2,0,2,1,0,1,2021-08-06 13:57:30,056967
1,1,2,3,3,1,-1,1,2021-08-06 13:57:30,056967
-2,-2,-2,-3,-5,-3,-2,0,2021-08-06 13:57:30,056967
-1,-2,-2,-1,0,0,-1,0,2021-08-06 13:57:30,056967
-1,0,0,-1,2,0,0,-1,2021-08-06 13:57:30,056967
-2,-4,-3,-4,-5,-4,-4,-2,2021-08-06 13:57:30,056967
2,2,1,-1,2,-1,2,2,2021-08-06 13:57:30,056967
2,0,0,-2,-1,1,1,1,2021-08-06 13:57:30,056967
-1,0,1,2,3,3,-1,0,2021-08-06 13:57:30,087967
0,0,-2,1,1,1,3,1,2021-08-06 13:57:30,087967
-2,-3,-2,-3,-2,-1,-3,-2,2021-08-06 13:57:30,087967
-3,-3,-2,-4,-4,-3,-2,-2,2021-08-06 13:57:30,087967
-3,-4,-3,-6,-10,-6,-4,-4,2021-08-06 13:57:30,103965
2,3,5,5,5,4,3,2,2021-08-06 13:57:30,103965
1,-1,0,-2,-1,0,-1,0,2021-08-06 13:57:30,103965
-2,1,-1,1,-1,-1,-1,0,2021-08-06 13:57:30,103965
-3,-2,-3,-2,-3,-2,-2,-3,2021-08-06 13:57:30,134966
-2,-4,-4,-5,-9,-7,-6,-3,2021-08-06 13:57:30,149967
1,0,1,4,4,3,1,0,2021-08-06 13:57:30,149967
-4,-3,-1,3,1,-1,-3,-4,2021-08-06 13:57:30,149967
-1,0,-2,-1,1,0,0,1,2021-08-06 13:57:30,149967
0,1,1,0,0,-1,0,0,2021-08-06 13:57:30,149967
-1,0,-3,-8,-8,-5,-1,-1,2021-08-06 13:57:30,149967
1,0,-1,1,4,3,0,2,2021-08-06 13:57:30,149967
1,1,1,2,2,1,1,2,2021-08-06 13:57:30,165967
-3,-3,-3,-6,-5,-4,-3,-2,2021-08-06 13:57:30,165967
1,1,2,2,2,1,0,1,2021-08-06 13:57:30,165967
-1,-2,-1,-3,-4,-3,0,0,2021-08-06 13:57:30,165967
-1,0,-2,0,-2,-1,-1,-2,2021-08-06 13:57:30,181967
0,-3,-4,-4,-1,1,0,-2,2021-08-06 13:57:30,197967
-2,-3,-2,0,-2,-2,-2,-2,2021-08-06 13:57:30,197967
0,-1,1,0,0,2,0,1,2021-08-06 13:57:30,197967
0,-1,-1,-2,-2,1,-1,0,2021-08-06 13:57:30,197967
-2,0,-2,1,-2,-1,-2,-2,2021-08-06 13:57:30,197967
-1,-1,0,2,1,0,0,-1,2021-08-06 13:57:30,213968
-1,0,-2,-2,-3,-3,-1,-2,2021-08-06 13:57:30,229966
0,-1,0,0,-2,-2,1,-1,2021-08-06 13:57:30,229966
-2,-2,-1,0,0,0,-2,-1,2021-08-06 13:57:30,229966
0,0,-2,1,0,0,0,0,2021-08-06 13:57:30,229966
-2,-1,0,-1,-1,-2,-1,0,2021-08-06 13:57:30,229966
0,0,0,-1,-1,-1,1,-1,2021-08-06 13:57:30,260985
-3,-2,-2,-3,-3,-2,-3,-3,2021-08-06 13:57:30,276986
2,3,3,2,6,4,2,2,2021-08-06 13:57:30,292985
-4,-4,-5,-8,-10,-6,-5,-5,2021-08-06 13:57:30,292985
2,2,4,9,11,6,4,5,2021-08-06 13:57:30,292985
0,0,-1,1,3,2,2,0,2021-08-06 13:57:30,292985
-2,-2,-2,-1,-1,0,-2,-3,2021-08-06 13:57:30,292985
-2,-1,-1,-1,-2,-3,-3,-2,2021-08-06 13:57:30,292985
-1,-1,-1,-4,-4,-3,-3,-2,2021-08-06 13:57:30,292985
-2,-1,-3,-2,-2,-1,-1,-1,2021-08-06 13:57:30,292985
-2,-3,0,0,-4,-3,0,-1,2021-08-06 13:57:30,292985
1,-1,1,3,3,1,-1,-1,2021-08-06 13:57:30,293988
-5,-4,-4,-2,-5,-3,-3,-1,2021-08-06 13:57:30,308986
-1,0,1,1,0,1,0,0,2021-08-06 13:57:30,324985
-1,-2,-2,-2,-3,-2,0,-1,2021-08-06 13:57:30,331987
0,-1,-1,1,1,1,0,-1,2021-08-06 13:57:30,332986
-3,-3,-2,-2,0,-1,-1,-1,2021-08-06 13:57:30,332986
-2,-2,-4,-1,-1,0,-2,0,2021-08-06 13:57:30,332986
1,1,-1,-4,-4,-4,0,1,2021-08-06 13:57:30,332986
2,0,0,2,4,1,2,2,2021-08-06 13:57:30,332986
-4,-5,-4,-4,-5,-4,-5,-6,2021-08-06 13:57:30,332986
1,4,4,4,3,3,1,1,2021-08-06 13:57:30,332986
-1,-2,-2,-2,-3,-1,-2,-3,2021-08-06 13:57:30,356987
0,0,1,0,1,0,0,1,2021-08-06 13:57:30,356987
-2,-3,-3,-3,-3,-2,-3,-1,2021-08-06 13:57:30,356987
0,-2,-2,-1,-3,-3,-1,1,2021-08-06 13:57:30,356987
1,0,-1,0,1,0,-2,-2,2021-08-06 13:57:30,356987
-1,0,-1,-3,-3,-2,0,-1,2021-08-06 13:57:30,356987
-1,0,0,3,2,0,-1,0,2021-08-06 13:57:30,386985
-1,-3,-3,-4,-5,-4,-2,-2,2021-08-06 13:57:30,386985
1,0,0,4,3,0,-1,0,2021-08-06 13:57:30,386985
-1,-3,-3,-3,0,-1,0,-1,2021-08-06 13:57:30,386985
-2,0,1,-2,1,0,2,0,2021-08-06 13:57:30,402987
0,-1,-1,-4,-5,-3,-1,-1,2021-08-06 13:57:30,418985
-1,-1,0,5,8,4,2,1,2021-08-06 13:57:30,418985
-1,-3,-1,-1,-2,0,-2,-3,2021-08-06 13:57:30,418985
-1,-1,-3,-3,-3,-4,-3,-2,2021-08-06 13:57:30,418985
0,-2,-1,-4,-1,0,0,-1,2021-08-06 13:57:30,418985
-3,-1,-2,0,0,-1,0,-2,2021-08-06 13:57:30,418985
-3,-1,-2,-1,-4,-2,-3,-1,2021-08-06 13:57:30,418985
3,3,2,3,1,1,1,-1,2021-08-06 13:57:30,450985
0,-1,-1,-2,-1,-1,0,0,2021-08-06 13:57:30,466493
-1,-1,-2,-2,-6,-2,-3,-1,2021-08-06 13:57:30,466493
-1,-2,-1,-4,-3,-3,0,-1,2021-08-06 13:57:30,466493
-1,-2,-1,-2,0,1,0,-1,2021-08-06 13:57:30,466493
-2,-2,-2,-1,0,-1,-2,-3,2021-08-06 13:57:30,466493
-1,-2,-2,-4,-1,-1,0,-2,2021-08-06 13:57:30,466493
-1,-2,-1,1,1,1,-1,-1,2021-08-06 13:57:30,466493
-2,1,0,-2,-5,-2,-2,1,2021-08-06 13:57:30,481495
-2,-3,-1,2,0,1,-2,-1,2021-08-06 13:57:30,496494
1,-1,0,-2,-2,-2,-1,0,2021-08-06 13:57:30,496494
-1,-2,0,0,-3,-2,-1,0,2021-08-06 13:57:30,511495
0,1,1,1,1,1,2,1,2021-08-06 13:57:30,511495
-2,-1,-3,-1,-1,-1,-1,-1,2021-08-06 13:57:30,511495
-2,-2,-4,-4,-2,-1,-1,1,2021-08-06 13:57:30,527494
0,-1,-2,0,2,0,0,1,2021-08-06 13:57:30,543493
1,0,0,-1,-2,-1,0,1,2021-08-06 13:57:30,543493
-2,-1,1,3,-1,0,0,-2,2021-08-06 13:57:30,543493
0,1,-2,-2,-2,-1,0,-4,2021-08-06 13:57:30,543493
2,1,2,2,2,1,1,2,2021-08-06 13:57:30,543493
-2,-4,-1,-1,-2,-4,-2,-2,2021-08-06 13:57:30,543493
-3,-3,-3,-2,-2,-2,-1,-2,2021-08-06 13:57:30,543493
1,2,3,-2,-4,-2,-1,-1,2021-08-06 13:57:30,543493
-1,1,0,2,3,2,1,-1,2021-08-06 13:57:30,544495
-2,-1,-2,-1,-2,-3,-2,-2,2021-08-06 13:57:30,590003
1,-1,0,-1,-1,0,0,0,2021-08-06 13:57:30,605510
-5,-5,-1,-4,-4,-2,-3,-4,2021-08-06 13:57:30,621510
-1,-1,0,-3,-2,-1,0,-1,2021-08-06 13:57:30,621510
0,0,-1,0,2,1,-1,-1,2021-08-06 13:57:30,621510
1,2,1,0,1,0,0,-1,2021-08-06 13:57:30,621510
0,1,0,1,4,2,1,2,2021-08-06 13:57:30,621510
-3,-1,0,-3,-3,-2,-3,-1,2021-08-06 13:57:30,621510
-1,-1,-3,-4,-2,0,-1,-1,2021-08-06 13:57:30,621510
-4,-3,-4,-7,-7,-6,-2,-2,2021-08-06 13:57:30,622512
1,0,1,0,0,-1,2,1,2021-08-06 13:57:30,622512
1,1,2,3,5,3,-1,1,2021-08-06 13:57:30,622512
-1,-1,-1,1,1,0,-1,-1,2021-08-06 13:57:30,622512
2,-1,0,-2,-2,-2,-1,-2,2021-08-06 13:57:30,622512
-2,-2,-1,-2,-6,-3,0,-1,2021-08-06 13:57:30,636510
-2,-3,-6,-4,-5,-4,-2,-3,2021-08-06 13:57:30,636510
1,2,4,6,7,3,0,2,2021-08-06 13:57:30,651512
1,0,2,1,1,1,1,1,2021-08-06 13:57:30,651512
-3,-2,0,-1,0,-2,-2,-3,2021-08-06 13:57:30,651512
1,-1,-3,-4,-3,-1,0,0,2021-08-06 13:57:30,651512
-1,-3,0,-2,-2,-2,0,0,2021-08-06 13:57:30,667512
1,-1,-3,-5,-1,1,-1,2,2021-08-06 13:57:30,683510
2,0,-3,2,2,1,1,2,2021-08-06 13:57:30,699510
-2,-2,-1,-3,-3,-4,0,-1,2021-08-06 13:57:30,699510
-1,-5,-3,-2,-2,-1,-2,-2,2021-08-06 13:57:30,699510
-2,2,5,6,4,1,-1,0,2021-08-06 13:57:30,699510
-3,-2,-1,-4,-6,-4,-5,-4,2021-08-06 13:57:30,699510
-3,-1,-2,1,1,0,-1,-4,2021-08-06 13:57:30,699510
1,2,3,2,-2,-2,-1,-1,2021-08-06 13:57:30,715512
0,-1,0,0,0,0,-1,0,2021-08-06 13:57:30,731512
1,1,0,0,4,2,3,2,2021-08-06 13:57:30,731512
1,-1,-1,-2,-3,-2,-1,-1,2021-08-06 13:57:30,731512
-4,-4,-4,-2,-4,-2,-2,-2,2021-08-06 13:57:30,731512
0,-2,-1,-1,-1,-1,-1,-2,2021-08-06 13:57:30,731512
-2,1,-1,-3,-2,-1,-1,0,2021-08-06 13:57:30,731512
-2,-1,-1,-1,-2,-2,-3,-2,2021-08-06 13:57:30,731512
0,-2,0,1,-1,-1,1,0,2021-08-06 13:57:30,747510
0,0,-1,-1,-2,-2,-1,0,2021-08-06 13:57:30,763511
-2,-5,-2,0,-1,-3,-1,-1,2021-08-06 13:57:30,763511
1,0,0,-2,-3,0,-1,-1,2021-08-06 13:57:30,763511
-2,0,-3,-1,-2,-2,-1,-2,2021-08-06 13:57:30,763511
1,0,-2,-1,4,3,3,1,2021-08-06 13:57:30,763511
-1,-2,-2,-1,-1,1,-3,-1,2021-08-06 13:57:30,763511
-1,0,1,1,2,-1,-1,0,2021-08-06 13:57:30,763511
-1,-3,0,-5,-9,-4,-2,-2,2021-08-06 13:57:30,779512
-1,-3,-3,-1,0,-2,-1,-1,2021-08-06 13:57:30,795512
-2,-1,-2,-2,-2,-4,-4,-3,2021-08-06 13:57:30,795749
-1,-1,0,1,3,1,-1,0,2021-08-06 13:57:30,795749
-2,0,-2,-3,-2,-4,-2,-3,2021-08-06 13:57:30,811027
-2,-3,-2,0,1,1,0,1,2021-08-06 13:57:30,811027
0,0,2,1,-1,0,1,1,2021-08-06 13:57:30,811027
-2,-1,-1,0,-4,0,0,0,2021-08-06 13:57:30,811027
-1,1,-2,1,3,3,1,0,2021-08-06 13:57:30,827026
-2,0,1,1,-1,-1,-2,-3,2021-08-06 13:57:30,827026
-2,-3,-2,-3,-4,-3,-3,-2,2021-08-06 13:57:30,827026
-2,-3,-1,-4,-6,-4,-2,-1,2021-08-06 13:57:30,827026
3,1,3,5,7,5,2,2,2021-08-06 13:57:30,843025
-2,-1,-2,-1,-4,-1,-2,-1,2021-08-06 13:57:30,859027
-1,0,-2,1,0,1,-1,0,2021-08-06 13:57:30,874025
-1,0,0,-3,-4,-2,-4,-1,2021-08-06 13:57:30,874025
1,-1,0,2,2,2,2,-1,2021-08-06 13:57:30,874025
1,2,3,4,7,5,1,0,2021-08-06 13:57:30,874025
-1,-2,0,0,-1,0,-2,0,2021-08-06 13:57:30,874025
-1,0,-2,1,0,0,0,0,2021-08-06 13:57:30,874025
-4,-3,-3,-6,-5,-7,-3,-2,2021-08-06 13:57:30,889025
-1,-1,-1,-4,-5,-2,0,1,2021-08-06 13:57:30,889025
0,1,0,1,3,1,0,1,2021-08-06 13:57:30,889025
1,0,2,4,1,3,1,0,2021-08-06 13:57:30,889025
-1,-2,-3,-3,-2,-2,-2,-3,2021-08-06 13:57:30,905027
-2,-2,-2,-1,-2,0,-1,0,2021-08-06 13:57:30,921025
0,0,0,-3,-1,-1,-2,-2,2021-08-06 13:57:30,921025
0,-1,-2,-1,0,-1,1,-2,2021-08-06 13:57:30,921025
-1,-1,2,-1,-1,-1,-1,0,2021-08-06 13:57:30,921025
0,-1,-2,-2,-4,-3,-1,-3,2021-08-06 13:57:30,921025
1,1,1,2,2,0,1,2,2021-08-06 13:57:30,937025
-3,-7,-4,-7,-7,-5,-5,-3,2021-08-06 13:57:30,937025
4,5,4,3,6,4,4,2,2021-08-06 13:57:30,953025
-3,-1,-2,-6,-7,-5,-2,-2,2021-08-06 13:57:30,969025
-2,-3,-2,-3,-3,-3,-2,-2,2021-08-06 13:57:30,969025
0,0,2,1,2,1,0,0,2021-08-06 13:57:30,969025
-1,-2,-3,-1,-1,-1,-2,0,2021-08-06 13:57:30,985027
-1,-1,0,-3,-2,-1,-1,-1,2021-08-06 13:57:30,985027
1,-1,-1,0,0,1,1,0,2021-08-06 13:57:30,985027
-2,-1,-1,-3,-2,-2,-1,-1,2021-08-06 13:57:30,985027
-2,-4,-3,-2,-4,-2,-3,-2,2021-08-06 13:57:30,985027
0,1,0,2,1,-2,-1,0,2021-08-06 13:57:30,985027
0,0,-2,-1,0,0,-1,0,2021-08-06 13:57:30,985027
0,0,0,-1,3,2,0,-1,2021-08-06 13:57:30,985027
0,-1,-2,-2,0,0,-1,-1,2021-08-06 13:57:31,017027
0,-1,1,1,3,2,2,0,2021-08-06 13:57:31,017027
-1,-1,-2,-2,-4,-2,0,0,2021-08-06 13:57:31,017027
-2,0,0,-1,1,0,-1,0,2021-08-06 13:57:31,017027
-3,-3,-1,-3,-4,-5,-5,-2,2021-08-06 13:57:31,017027
0,0,-1,-5,-7,-4,-2,0,2021-08-06 13:57:31,017027
2,0,3,7,13,7,4,3,2021-08-06 13:57:31,033026
0,0,-3,1,0,-2,0,1,2021-08-06 13:57:31,033026
-2,0,-3,-2,-4,-1,-2,0,2021-08-06 13:57:31,048027
-1,-1,-1,2,0,-2,-4,-2,2021-08-06 13:57:31,048027
-3,-1,-2,-4,-6,-5,-3,-2,2021-08-06 13:57:31,048027
-2,-2,-1,0,0,-2,0,-3,2021-08-06 13:57:31,048027
-1,0,0,-3,-4,-2,-1,1,2021-08-06 13:57:31,076025
-1,-2,-2,-1,-1,1,-1,-1,2021-08-06 13:57:31,077028
0,-1,-1,1,0,1,-2,-1,2021-08-06 13:57:31,077028
1,0,-1,-2,0,2,0,-1,2021-08-06 13:57:31,077028
0,0,0,-2,-4,-4,0,-2,2021-08-06 13:57:31,077028
-1,0,-1,0,2,0,0,-1,2021-08-06 13:57:31,077028
-4,-3,-3,-5,-6,-4,-4,-4,2021-08-06 13:57:31,095660
-1,0,-2,1,-2,0,0,0,2021-08-06 13:57:31,095660
4,1,1,2,6,2,2,1,2021-08-06 13:57:31,111662
-1,-1,0,0,-2,0,2,0,2021-08-06 13:57:31,111662
-3,-2,-2,-2,-3,-2,-3,-2,2021-08-06 13:57:31,111662
-1,-1,-3,-2,-2,-4,-3,-2,2021-08-06 13:57:31,111662
-4,-2,-2,-1,-2,-5,-1,-3,2021-08-06 13:57:31,127659
0,0,-3,-1,0,0,0,1,2021-08-06 13:57:31,127659
1,2,2,2,5,4,1,1,2021-08-06 13:57:31,127659
0,1,2,2,1,1,1,0,2021-08-06 13:57:31,127659
-1,-1,-1,0,0,1,-1,0,2021-08-06 13:57:31,143658
-2,-4,-3,-1,-1,-2,-1,-3,2021-08-06 13:57:31,143658
-2,-1,0,-3,-4,-4,-1,-2,2021-08-06 13:57:31,143658
-2,-4,-3,-1,0,-1,-2,-3,2021-08-06 13:57:31,143658
-1,-2,-2,-6,-5,-5,-1,-1,2021-08-06 13:57:31,174659
1,3,7,10,11,6,3,1,2021-08-06 13:57:31,174659
4,1,3,0,0,1,3,2,2021-08-06 13:57:31,190658
-2,-1,0,1,-1,-1,0,-2,2021-08-06 13:57:31,190658
-5,-3,-2,-6,-6,-3,-5,-3,2021-08-06 13:57:31,190658
-3,-3,0,-5,-5,-4,-5,-2,2021-08-06 13:57:31,190658
-3,-4,-8,3,-1,-2,-2,-3,2021-08-06 13:57:31,190658
0,1,1,1,4,3,1,1,2021-08-06 13:57:31,190658
-1,1,-1,3,1,2,0,1,2021-08-06 13:57:31,206659
0,1,-1,0,-3,-1,2,-1,2021-08-06 13:57:31,222658
-3,-2,1,-4,-4,-6,-4,-2,2021-08-06 13:57:31,222658
-2,-1,-4,-3,-4,-4,-2,1,2021-08-06 13:57:31,222658
-1,0,2,1,4,0,0,-1,2021-08-06 13:57:31,222658
1,1,-2,-1,1,2,-1,1,2021-08-06 13:57:31,222658
0,-1,-1,-2,-3,-3,-2,-1,2021-08-06 13:57:31,222658
-1,1,0,2,3,2,0,-2,2021-08-06 13:57:31,222658
-1,-1,-1,-2,1,1,-1,-3,2021-08-06 13:57:31,254658
-2,-2,-1,-2,-6,-5,-1,-3,2021-08-06 13:57:31,270659
-2,-2,-5,-4,-8,-2,-1,-1,2021-08-06 13:57:31,270659
-2,-4,-7,-2,1,2,-1,-1,2021-08-06 13:57:31,270659
-1,-2,2,3,6,2,-1,-1,2021-08-06 13:57:31,270659
-1,-3,-7,-6,-3,-2,-1,-1,2021-08-06 13:57:31,270659
-3,0,4,-2,-3,-1,0,-3,2021-08-06 13:57:31,270659
-2,0,3,-2,-6,-4,-1,-1,2021-08-06 13:57:31,270659
-1,-3,-1,0,-1,0,-1,-1,2021-08-06 13:57:31,302660
1,1,2,2,2,0,0,-1,2021-08-06 13:57:31,302920
1,0,-1,-6,-4,-4,-3,0,2021-08-06 13:57:31,302920
2,0,-1,6,12,7,1,-1,2021-08-06 13:57:31,302920
2,0,-2,0,-2,0,-1,1,2021-08-06 13:57:31,302920
-1,2,1,2,1,0,-2,0,2021-08-06 13:57:31,302920
-1,-2,-6,-3,-4,-5,-2,-1,2021-08-06 13:57:31,302920
0,1,-2,-7,-7,-3,0,0,2021-08-06 13:57:31,303661
2,3,5,2,5,3,1,4,2021-08-06 13:57:31,333166
-1,1,10,4,4,1,-1,-1,2021-08-06 13:57:31,333166
-1,-4,-10,-8,-5,-1,-1,0,2021-08-06 13:57:31,333166
-1,-6,-15,-9,-6,-4,-3,-1,2021-08-06 13:57:31,333166
-1,-3,0,-2,2,2,3,0,2021-08-06 13:57:31,349167
3,8,10,11,1,0,0,0,2021-08-06 13:57:31,349167
-1,-4,-2,2,1,1,-1,-1,2021-08-06 13:57:31,349167
-1,-5,-7,-1,6,3,2,0,2021-08-06 13:57:31,349167
-8,-11,-15,-26,-19,-13,-8,-7,2021-08-06 13:57:31,365168
-1,-1,-5,-3,1,2,-1,-1,2021-08-06 13:57:31,365168
1,4,14,9,6,3,0,-1,2021-08-06 13:57:31,365168
3,6,7,15,7,3,0,1,2021-08-06 13:57:31,365168
2,4,7,12,5,2,1,3,2021-08-06 13:57:31,381169
3,9,28,11,1,1,1,2,2021-08-06 13:57:31,397168
1,3,2,3,3,-1,-1,0,2021-08-06 13:57:31,397168
-5,-12,-36,-13,-13,-8,-4,-3,2021-08-06 13:57:31,397168
-4,-8,-11,-15,-1,2,-1,0,2021-08-06 13:57:31,397168
-8,-8,-5,-10,-5,-5,-4,-5,2021-08-06 13:57:31,397168
0,2,5,11,4,1,1,0,2021-08-06 13:57:31,412167
1,7,22,5,2,-2,0,-1,2021-08-06 13:57:31,412167
5,10,13,48,20,2,3,0,2021-08-06 13:57:31,427168
3,1,0,29,11,7,5,5,2021-08-06 13:57:31,427168
-3,-8,-26,-59,-24,-3,-1,-2,2021-08-06 13:57:31,427168
-18,-26,-22,-92,-50,-24,-18,-15,2021-08-06 13:57:31,427168
-5,-7,-29,-5,-6,-3,-4,-4,2021-08-06 13:57:31,443166
2,2,11,15,16,6,5,4,2021-08-06 13:57:31,452167
2,9,21,43,9,-1,2,2,2021-08-06 13:57:31,452167
11,16,26,55,41,23,10,9,2021-08-06 13:57:31,453168
4,4,11,-1,2,4,2,1,2021-08-06 13:57:31,474166
-4,-4,-8,-2,-6,-6,-6,-5,2021-08-06 13:57:31,474166
-1,-3,-11,-4,-3,0,-1,0,2021-08-06 13:57:31,474166
-1,3,5,-2,-7,-6,0,0,2021-08-06 13:57:31,474166
-3,-1,3,-4,-1,-1,0,-1,2021-08-06 13:57:31,489166
-5,-10,-21,-16,-13,-8,-5,-4,2021-08-06 13:57:31,489166
-1,-2,0,-6,1,-1,1,1,2021-08-06 13:57:31,489166
0,2,5,4,-1,-2,0,-2,2021-08-06 13:57:31,489166
2,0,-2,1,-2,-1,0,0,2021-08-06 13:57:31,505166
0,-4,-9,-13,0,0,0,-1,2021-08-06 13:57:31,521166
-4,-4,-1,-8,-10,-7,-3,-3,2021-08-06 13:57:31,537166
5,8,9,24,26,15,6,4,2021-08-06 13:57:31,537166
-2,0,-5,-5,-7,-3,-3,-1,2021-08-06 13:57:31,537166
-4,-6,-11,-23,-18,-10,-5,-4,2021-08-06 13:57:31,537166
-3,-1,2,7,5,1,-4,-4,2021-08-06 13:57:31,537166
1,0,2,9,0,1,2,2,2021-08-06 13:57:31,537166
-2,-3,-2,-14,-14,-8,-5,-3,2021-08-06 13:57:31,553167
1,2,2,10,19,12,4,3,2021-08-06 13:57:31,553167
-1,-1,0,4,3,-1,1,-2,2021-08-06 13:57:31,553167
-2,-1,-1,-5,-11,-8,-4,-1,2021-08-06 13:57:31,553167
2,3,5,3,0,-2,0,2,2021-08-06 13:57:31,584167
0,0,1,7,6,3,3,0,2021-08-06 13:57:31,599166
-1,-5,-15,-23,-10,-3,-1,0,2021-08-06 13:57:31,615167
-2,-2,15,5,-3,-2,-2,-3,2021-08-06 13:57:31,615167
-1,1,3,3,7,3,0,0,2021-08-06 13:57:31,615167
-3,-9,-32,-22,-17,-8,-5,-3,2021-08-06 13:57:31,615167
-3,-4,-6,-3,5,2,-1,-3,2021-08-06 13:57:31,615167
-6,-4,0,0,-9,-7,-6,-3,2021-08-06 13:57:31,615167
-1,0,7,3,-1,-2,-3,-2,2021-08-06 13:57:31,615167
1,4,14,10,-1,-2,-1,0,2021-08-06 13:57:31,616168
5,6,3,13,11,7,5,2,2021-08-06 13:57:31,616168
0,1,-4,-6,-7,-4,1,2,2021-08-06 13:57:31,616168
-4,-7,-8,-10,-15,-10,-5,-6,2021-08-06 13:57:31,631168
3,6,2,0,2,6,3,3,2021-08-06 13:57:31,631168
-2,-2,4,11,10,1,-1,-1,2021-08-06 13:57:31,647167
0,0,-1,-3,-1,-2,0,-1,2021-08-06 13:57:31,647167
4,7,14,18,16,6,3,2,2021-08-06 13:57:31,647167
-1,-8,-9,-8,-13,-6,-3,-2,2021-08-06 13:57:31,647167
-4,-4,-16,-26,-13,-4,-2,1,2021-08-06 13:57:31,647167
-9,-11,-18,-18,-14,-10,-6,-6,2021-08-06 13:57:31,647167
-2,-4,-6,-8,-5,-1,0,0,2021-08-06 13:57:31,678169
0,2,10,3,4,0,0,-1,2021-08-06 13:57:31,678169
1,3,15,28,3,-3,0,0,2021-08-06 13:57:31,678169
7,5,3,7,18,13,6,5,2021-08-06 13:57:31,678169
-2,-2,-7,-24,-17,-6,-3,-4,2021-08-06 13:57:31,694166
2,3,6,19,17,11,5,1,2021-08-06 13:57:31,694166
0,-2,-3,2,0,0,1,-1,2021-08-06 13:57:31,694166
-2,-3,3,-1,-5,-4,-1,-1,2021-08-06 13:57:31,694166
0,-5,-8,4,1,-2,-2,0,2021-08-06 13:57:31,710168
-2,-4,-6,-14,-11,-6,-4,-2,2021-08-06 13:57:31,710168
-4,-3,-5,-9,-4,-1,-4,-3,2021-08-06 13:57:31,710168
3,2,5,9,10,5,2,1,2021-08-06 13:57:31,710168
2,6,10,5,1,1,1,2,2021-08-06 13:57:31,726166
0,-4,-5,8,3,1,-1,0,2021-08-06 13:57:31,726166
0,-5,-5,-4,1,0,1,-1,2021-08-06 13:57:31,726166
-3,-3,-7,-9,-5,-3,-3,-1,2021-08-06 13:57:31,726166
-5,-5,-6,-5,-7,-6,-1,-3,2021-08-06 13:57:31,758168
2,12,35,33,13,3,1,1,2021-08-06 13:57:31,774171
3,6,5,27,-2,0,1,2,2021-08-06 13:57:31,790218
-7,-15,-40,-77,-39,-18,-10,-8,2021-08-06 13:57:31,790218
-4,-7,-11,-29,14,10,5,-1,2021-08-06 13:57:31,790218
-4,-1,2,-2,-8,-7,-4,-5,2021-08-06 13:57:31,790218
6,3,2,19,17,9,4,4,2021-08-06 13:57:31,790218
1,5,19,32,3,-2,0,1,2021-08-06 13:57:31,790218
-7,-10,-21,-14,-17,-11,-9,-7,2021-08-06 13:57:31,790218
2,-1,-7,-22,-13,-4,1,1,2021-08-06 13:57:31,790218
1,4,26,14,10,2,1,0,2021-08-06 13:57:31,791169
5,5,-11,12,8,6,3,2,2021-08-06 13:57:31,791169
-2,-2,5,-1,-4,-2,-3,-1,2021-08-06 13:57:31,822166
-4,-4,-1,1,0,-1,-3,-3,2021-08-06 13:57:31,822166
-3,0,0,-2,-7,-6,-3,-2,2021-08-06 13:57:31,822166
6,5,11,22,23,12,6,4,2021-08-06 13:57:31,822166
1,-1,-3,-8,-6,-1,1,0,2021-08-06 13:57:31,822166
-7,-10,-19,-25,-11,-8,-5,-6,2021-08-06 13:57:31,822166
-2,-3,-7,-11,-7,-4,-2,-3,2021-08-06 13:57:31,824166
-2,1,9,8,8,4,-1,-1,2021-08-06 13:57:31,824166
4,3,2,20,10,6,3,3,2021-08-06 13:57:31,854166
1,-2,-7,-8,1,0,1,1,2021-08-06 13:57:31,870166
-1,2,2,0,-1,-2,-3,0,2021-08-06 13:57:31,870166
-1,2,10,24,1,-3,-1,-2,2021-08-06 13:57:31,870166
1,2,-4,1,0,1,1,-1,2021-08-06 13:57:31,870166
-2,-4,-18,-40,-14,-5,-3,0,2021-08-06 13:57:31,870166
-5,-7,4,-9,0,-2,-2,-3,2021-08-06 13:57:31,870166
-4,-4,-13,-6,-9,-7,-6,-2,2021-08-06 13:57:31,870166
2,5,10,24,14,4,2,2,2021-08-06 13:57:31,886166
-1,-6,-6,12,5,3,1,1,2021-08-06 13:57:31,902166
1,3,-2,-25,-9,3,3,1,2021-08-06 13:57:31,917167
-6,-10,-11,-26,-23,-9,-6,-4,2021-08-06 13:57:31,917167
-3,-2,-4,3,6,1,-1,-2,2021-08-06 13:57:31,917167
-5,-2,6,1,-10,-9,-6,-5,2021-08-06 13:57:31,917167
7,10,10,25,11,6,5,5,2021-08-06 13:57:31,917167
6,5,15,16,12,9,5,3,2021-08-06 13:57:31,917167
3,5,13,21,21,8,3,0,2021-08-06 13:57:31,933166
0,-3,-8,11,-7,-7,-5,-4,2021-08-06 13:57:31,949167
-7,-16,-30,-69,-36,-16,-9,-7,2021-08-06 13:57:31,965166
-1,-2,-5,-23,3,2,-1,-1,2021-08-06 13:57:31,965166
-1,-5,2,4,-11,-6,-2,-3,2021-08-06 13:57:31,965166
3,6,8,15,21,13,6,2,2021-08-06 13:57:31,965166
-3,-3,2,21,5,-2,-2,-2,2021-08-06 13:57:31,965166
4,8,11,17,7,2,3,1,2021-08-06 13:57:31,965166
1,3,6,-8,-21,-12,-5,-1,2021-08-06 13:57:31,966167
3,-2,-8,2,15,11,7,2,2021-08-06 13:57:31,966167
-4,-12,-24,-23,-3,0,-4,-5,2021-08-06 13:57:31,966167
-6,-9,-8,-7,-12,-6,-3,-5,2021-08-06 13:57:31,966167
-4,-4,-5,6,2,-1,-4,-3,2021-08-06 13:57:31,997167
-1,2,-1,-10,-15,-7,-3,-1,2021-08-06 13:57:31,997167
6,10,13,21,14,6,4,5,2021-08-06 13:57:31,997167
0,0,10,-8,-2,-2,-2,-2,2021-08-06 13:57:31,997167
-2,-2,-7,-3,-10,-5,-2,-2,2021-08-06 13:57:31,997167
-1,-1,9,7,-10,-7,-5,-2,2021-08-06 13:57:31,997167
-1,3,3,21,14,6,0,-2,2021-08-06 13:57:32,013167
1,-2,-22,-11,0,4,3,1,2021-08-06 13:57:32,013167
-2,-8,-10,-63,-23,-7,-4,-3,2021-08-06 13:57:32,029169
-5,-5,0,-6,-3,-4,-4,-4,2021-08-06 13:57:32,045166
0,1,-1,22,12,5,4,0,2021-08-06 13:57:32,061167
0,2,16,32,7,-1,0,-1,2021-08-06 13:57:32,061167
0,1,-6,2,0,3,1,2,2021-08-06 13:57:32,061167
-1,-2,2,-8,-5,-2,-1,-2,2021-08-06 13:57:32,061167
0,2,11,7,-4,-5,-2,0,2021-08-06 13:57:32,061167
-1,0,-6,8,7,2,0,2,2021-08-06 13:57:32,061167
4,-1,-2,8,4,4,3,2,2021-08-06 13:57:32,061167
-5,-7,-11,-24,-14,-6,-5,-4,2021-08-06 13:57:32,061167
-4,-1,3,-25,-25,-13,-7,-2,2021-08-06 13:57:32,093167
1,4,9,10,17,8,4,2,2021-08-06 13:57:32,109166
0,-2,-9,20,10,5,-1,0,2021-08-06 13:57:32,109166
0,-2,-10,-22,-8,-4,-1,1,2021-08-06 13:57:32,109166
-2,-5,-5,-1,14,6,1,-3,2021-08-06 13:57:32,109166
-4,0,6,9,-5,-6,-6,-4,2021-08-06 13:57:32,109166
3,6,11,2,4,2,0,2,2021-08-06 13:57:32,109166
2,1,-6,0,-9,-3,-2,0,2021-08-06 13:57:32,109166
-2,-6,0,-4,4,0,-1,-3,2021-08-06 13:57:32,109166
-4,-3,-5,-7,-10,-4,-3,-3,2021-08-06 13:57:32,110168
2,5,7,27,12,4,4,3,2021-08-06 13:57:32,125167
1,2,-2,5,11,6,2,1,2021-08-06 13:57:32,125167
1,0,-4,-21,-15,-2,0,1,2021-08-06 13:57:32,125167
2,2,6,3,-2,-1,0,-1,2021-08-06 13:57:32,125167
0,5,10,12,11,4,2,1,2021-08-06 13:57:32,155166
-5,-5,-14,-12,-15,-9,-5,-2,2021-08-06 13:57:32,155166
1,-1,2,-2,-3,1,0,0,2021-08-06 13:57:32,155166
-3,-5,-15,-2,5,3,-1,0,2021-08-06 13:57:32,155166
0,-4,-14,-25,-16,-10,-4,-2,2021-08-06 13:57:32,171166
-4,-5,12,-12,3,1,0,-1,2021-08-06 13:57:32,171166
2,5,1,27,26,11,6,3,2021-08-06 13:57:32,171166
-1,0,-4,-1,-7,-6,-4,-3,2021-08-06 13:57:32,171166
4,4,18,10,4,3,3,3,2021-08-06 13:57:32,187166
2,0,-12,16,4,2,0,0,2021-08-06 13:57:32,188167
-2,-2,2,-2,-8,-5,-4,-4,2021-08-06 13:57:32,188167
3,6,12,13,13,6,3,2,2021-08-06 13:57:32,189167
-6,-6,-1,-11,-20,-13,-8,-6,2021-08-06 13:57:32,218165
2,3,-1,1,19,13,5,2,2021-08-06 13:57:32,233166
-4,-9,-23,-15,-18,-9,-4,-2,2021-08-06 13:57:32,233166
-3,-5,-3,-18,0,-1,-3,-2,2021-08-06 13:57:32,233166
-3,-1,-3,2,9,4,-1,-2,2021-08-06 13:57:32,233166
-1,3,10,10,-9,-7,-4,-1,2021-08-06 13:57:32,233166
4,5,6,27,6,-2,0,1,2021-08-06 13:57:32,233166
2,1,4,6,11,6,5,4,2021-08-06 13:57:32,233166
-3,-6,-11,-17,-12,-1,-1,-2,2021-08-06 13:57:32,249167
-8,-13,-18,-66,-31,-13,-9,-7,2021-08-06 13:57:32,249167
-3,-2,-1,-5,-4,-3,-3,-3,2021-08-06 13:57:32,249167
-1,-1,1,12,3,-3,-2,-1,2021-08-06 13:57:32,249167
5,3,9,28,14,4,3,4,2021-08-06 13:57:32,280166
3,5,4,8,2,2,1,2,2021-08-06 13:57:32,280166
-8,-9,-10,-30,-38,-18,-11,-6,2021-08-06 13:57:32,280166
2,0,1,20,26,16,6,2,2021-08-06 13:57:32,280166
-1,2,-2,-5,10,5,2,1,2021-08-06 13:57:32,295168
-3,-1,-2,-6,-27,-17,-9,-5,2021-08-06 13:57:32,311167
1,-1,0,-5,20,15,8,5,2021-08-06 13:57:32,311167
-1,0,-4,11,13,6,2,-1,2021-08-06 13:57:32,311167
-2,1,8,23,7,0,0,-2,2021-08-06 13:57:32,311167
3,2,3,14,-6,-2,-1,1,2021-08-06 13:57:32,311167
-7,-8,-18,-60,-41,-22,-11,-6,2021-08-06 13:57:32,311167
-4,-5,-10,-20,-1,2,-1,-1,2021-08-06 13:57:32,311167
1,0,-5,0,4,3,2,2,2021-08-06 13:57:32,327168
0,2,15,21,14,2,0,0,2021-08-06 13:57:32,327168
5,9,11,35,12,5,2,1,2021-08-06 13:57:32,327168
-2,-3,-3,-21,-32,-16,-9,-2,2021-08-06 13:57:32,327168
-3,-7,-6,-24,-8,-4,-4,-2,2021-08-06 13:57:32,357166
4,6,15,38,21,15,5,3,2021-08-06 13:57:32,373166
6,3,-6,-3,11,11,7,6,2021-08-06 13:57:32,373166
-9,-15,-16,-53,-29,-14,-10,-6,2021-08-06 13:57:32,373166
-12,-12,-32,-24,-28,-21,-11,-10,2021-08-06 13:57:32,373166
2,2,6,18,15,9,6,2,2021-08-06 13:57:32,373166
6,10,24,41,31,15,8,5,2021-08-06 13:57:32,373166
0,4,7,-4,-32,-18,-8,-3,2021-08-06 13:57:32,373166
4,3,8,1,14,10,5,4,2021-08-06 13:57:32,389166
-5,-9,-11,-15,-10,-6,-3,-4,2021-08-06 13:57:32,405166
1,5,10,25,22,7,4,3,2021-08-06 13:57:32,405166
2,3,3,10,-1,1,2,0,2021-08-06 13:57:32,405166
8,8,11,14,28,16,7,4,2021-08-06 13:57:32,421166
-1,-4,-6,-3,-9,-6,-2,-2,2021-08-06 13:57:32,421166
-6,-5,-7,-20,-6,-4,-6,-5,2021-08-06 13:57:32,421166
-1,-3,-3,1,-16,-10,-6,-3,2021-08-06 13:57:32,421166
-4,-4,-14,-6,-4,0,-1,-1,2021-08-06 13:57:32,421166
-4,-6,-4,-26,3,2,0,-2,2021-08-06 13:57:32,421166
-3,-2,-7,-5,-15,-8,-5,-3,2021-08-06 13:57:32,437167
2,6,15,21,11,2,-1,-1,2021-08-06 13:57:32,453167
2,4,9,22,-11,-4,-2,-1,2021-08-06 13:57:32,469166
2,3,-3,-18,6,3,1,4,2021-08-06 13:57:32,484166
-1,-8,-11,-14,11,9,3,-1,2021-08-06 13:57:32,514167
-8,-13,-23,-19,-12,-10,-8,-8,2021-08-06 13:57:32,514167
5,7,15,31,11,5,4,4,2021-08-06 13:57:32,514167
-1,0,4,3,-11,-9,-4,-2,2021-08-06 13:57:32,514167
0,-2,-3,-22,-8,-1,-1,0,2021-08-06 13:57:32,514167
0,-2,-1,-5,-5,-2,0,-2,2021-08-06 13:57:32,514167
-5,-5,10,6,1,-2,-3,-3,2021-08-06 13:57:32,514167
5,7,8,46,25,10,5,2,2021-08-06 13:57:32,514167
-1,0,5,-6,-3,0,-1,-1,2021-08-06 13:57:32,514167
-6,-9,-21,-47,-18,-9,-4,-5,2021-08-06 13:57:32,514167
-5,-6,-13,-34,-20,-13,-7,-5,2021-08-06 13:57:32,515168
2,3,3,15,14,5,2,2,2021-08-06 13:57:32,515168
2,3,3,23,8,4,1,0,2021-08-06 13:57:32,515168
7,10,20,36,15,9,6,3,2021-08-06 13:57:32,515168
0,-1,-7,-16,2,1,1,0,2021-08-06 13:57:32,530166
4,8,14,10,13,6,4,3,2021-08-06 13:57:32,530166
-1,-4,3,9,-6,-6,-3,-2,2021-08-06 13:57:32,530166
-1,-3,-25,-30,-15,-3,1,2,2021-08-06 13:57:32,530166
-9,-13,-15,-40,-18,-13,-10,-10,2021-08-06 13:57:32,550166
-4,-8,-13,-3,-16,-11,-7,-4,2021-08-06 13:57:32,550166
3,8,28,30,23,10,3,2,2021-08-06 13:57:32,550166
9,13,17,40,37,20,10,8,2021-08-06 13:57:32,550166
-1,-4,-6,8,-12,-6,-3,-1,2021-08-06 13:57:32,577168
-2,-3,-19,-13,-1,3,2,-1,2021-08-06 13:57:32,577168
-10,-13,-10,-51,-34,-18,-9,-8,2021-08-06 13:57:32,577168
-1,-1,-4,-13,2,1,-3,0,2021-08-06 13:57:32,577168
2,6,12,25,5,0,0,1,2021-08-06 13:57:32,593167
9,12,21,45,53,28,13,7,2021-08-06 13:57:32,609166
-5,-8,-22,-41,-38,-21,-10,-7,2021-08-06 13:57:32,609166
-4,-7,-4,-19,-16,-12,-5,-3,2021-08-06 13:57:32,609166
0,1,-4,3,10,11,6,3,2021-08-06 13:57:32,609166
-2,-2,9,13,-8,-9,-6,-3,2021-08-06 13:57:32,609166
4,6,1,28,22,10,6,5,2021-08-06 13:57:32,609166
0,1,1,-4,3,-1,-2,0,2021-08-06 13:57:32,609166
0,1,2,-2,-12,-5,-2,0,2021-08-06 13:57:32,625168
1,3,5,2,7,5,5,1,2021-08-06 13:57:32,641168
-3,-2,-7,-6,-12,-8,-5,-4,2021-08-06 13:57:32,657166
0,4,18,30,-4,-2,-2,-1,2021-08-06 13:57:32,657166
-4,-8,-21,-26,-2,-1,-4,-4,2021-08-06 13:57:32,657166
-8,-19,-46,-91,-48,-19,-10,-6,2021-08-06 13:57:32,657166
-8,-13,-4,-42,-14,-7,-4,-4,2021-08-06 13:57:32,657166
-2,-1,-15,29,25,7,2,-1,2021-08-06 13:57:32,657166
3,7,29,45,1,2,3,1,2021-08-06 13:57:32,673166
4,11,22,27,6,2,2,3,2021-08-06 13:57:32,673166
5,4,-5,6,16,10,4,4,2021-08-06 13:57:32,673166
-3,-6,2,-6,-15,-6,-1,-3,2021-08-06 13:57:32,673166
3,0,3,-1,15,6,5,2,2021-08-06 13:57:32,689166
-7,-5,-1,-9,-25,-18,-11,-10,2021-08-06 13:57:32,705166
3,5,4,26,10,4,3,2,2021-08-06 13:57:32,720166
-2,-2,-8,-28,-6,-2,-1,-2,2021-08-06 13:57:32,720166
-9,-13,-21,-43,-43,-22,-12,-9,2021-08-06 13:57:32,720166
3,5,9,43,38,17,8,3,2021-08-06 13:57:32,720166
1,3,0,15,5,3,1,0,2021-08-06 13:57:32,720166
-3,-8,-13,-45,-7,0,-3,-5,2021-08-06 13:57:32,720166
-2,-2,-6,-17,-17,-11,-6,-3,2021-08-06 13:57:32,736166
-1,-1,1,14,3,2,-2,-1,2021-08-06 13:57:32,736166
-2,1,3,3,-1,-2,-3,-4,2021-08-06 13:57:32,736166
4,7,10,-2,-7,-4,-1,4,2021-08-06 13:57:32,736166
7,8,15,37,36,24,11,7,2021-08-06 13:57:32,752167
-8,-14,-17,-31,0,3,-1,-4,2021-08-06 13:57:32,752167
-10,-13,-26,-16,-20,-15,-10,-9,2021-08-06 13:57:32,783166
-3,-3,-2,3,-7,-6,-2,-2,2021-08-06 13:57:32,783166
3,8,16,23,26,11,5,3,2021-08-06 13:57:32,783166
2,6,10,18,2,1,3,1,2021-08-06 13:57:32,783166
0,-1,2,-5,-9,-6,-4,-1,2021-08-06 13:57:32,783166
-3,-1,4,8,-3,-3,-2,-2,2021-08-06 13:57:32,783166
-1,-3,-8,-10,-16,-11,-6,-2,2021-08-06 13:57:32,799166
-3,-4,-13,-32,-25,-11,-5,-2,2021-08-06 13:57:32,815166
5,8,15,34,48,26,11,5,2021-08-06 13:57:32,815166
2,3,7,19,-7,-3,0,-1,2021-08-06 13:57:32,815166
0,-3,0,3,-8,-6,-1,-1,2021-08-06 13:57:32,815166
-3,-7,-24,-66,-15,-4,-4,-3,2021-08-06 13:57:32,815166
-4,-7,-16,-30,-24,-15,-8,-4,2021-08-06 13:57:32,815166
-4,-4,6,4,-2,0,0,-1,2021-08-06 13:57:32,815166
-3,-4,-8,14,19,9,2,-3,2021-08-06 13:57:32,831166
-1,3,17,31,8,0,-1,-2,2021-08-06 13:57:32,846167
6,8,14,27,3,1,2,2,2021-08-06 13:57:32,862168
5,5,2,-2,-8,-1,1,1,2021-08-06 13:57:32,862168
-7,-9,-1,-39,-15,-10,-8,-6,2021-08-06 13:57:32,862168
-1,-4,-19,0,12,5,1,2,2021-08-06 13:57:32,862168
-2,-1,-1,8,6,7,1,0,2021-08-06 13:57:32,862168
0,0,3,4,4,-3,0,0,2021-08-06 13:57:32,862168
2,9,11,15,10,3,3,0,2021-08-06 13:57:32,862168
1,0,4,2,-9,-4,-1,-1,2021-08-06 13:57:32,862168
-3,-4,-6,-19,-11,-9,-3,-2,2021-08-06 13:57:32,878169
-2,-7,-16,-21,-2,2,-1,0,2021-08-06 13:57:32,894166
-3,-2,-4,-8,-1,0,-1,-1,2021-08-06 13:57:32,894166
3,7,16,13,-3,-4,0,1,2021-08-06 13:57:32,894166
3,8,18,48,13,3,2,2,2021-08-06 13:57:32,894166
1,3,-2,4,5,4,2,2,2021-08-06 13:57:32,894166
-5,-10,-26,-73,-18,-8,-6,-6,2021-08-06 13:57:32,910166
-7,-9,-12,-15,-11,-5,-5,-5,2021-08-06 13:57:32,910166
0,-1,-4,-2,6,3,-1,0,2021-08-06 13:57:32,910166
3,10,29,54,27,13,6,2,2021-08-06 13:57:32,910166
6,12,16,36,16,7,4,6,2021-08-06 13:57:32,926167
-3,-10,-18,-34,-53,-25,-11,-4,2021-08-06 13:57:32,926167
-2,-6,-14,-20,25,15,7,0,2021-08-06 13:57:32,942166
-8,-9,-25,-19,-10,-7,-5,-5,2021-08-06 13:57:32,942166
2,3,9,10,4,5,1,2,2021-08-06 13:57:32,957166
4,7,12,10,17,9,4,2,2021-08-06 13:57:32,973166
-6,-4,4,-4,-30,-17,-9,-5,2021-08-06 13:57:32,989166
10,11,16,33,33,21,10,9,2021-08-06 13:57:32,989166
-5,-5,-15,-37,-30,-19,-10,-6,2021-08-06 13:57:32,989166
3,5,14,42,49,23,10,6,2021-08-06 13:57:32,989166
1,2,5,27,17,7,1,0,2021-08-06 13:57:32,989166
-3,-6,-16,-39,-13,-2,-2,-3,2021-08-06 13:57:32,989166
-3,-6,-11,-33,-24,-10,-5,-3,2021-08-06 13:57:32,989166
-3,-4,1,3,-1,-2,-2,-3,2021-08-06 13:57:32,989166
1,2,3,8,4,-1,1,0,2021-08-06 13:57:32,990168
-2,0,10,11,-9,-10,-5,-4,2021-08-06 13:57:32,990168
2,1,0,14,-10,-11,-2,2,2021-08-06 13:57:33,020167
-5,-8,-15,-9,0,0,-3,-4,2021-08-06 13:57:33,020167
1,-1,-13,-43,-7,5,5,3,2021-08-06 13:57:33,020167
-2,-3,2,1,1,0,-2,-2,2021-08-06 13:57:33,020167
-4,2,12,21,-17,-14,-7,-4,2021-08-06 13:57:33,036168
9,14,18,61,49,26,15,11,2021-08-06 13:57:33,036168
-2,-6,-15,-36,-22,-9,-5,-2,2021-08-06 13:57:33,036168
-9,-16,-32,-73,-20,-6,-5,-5,2021-08-06 13:57:33,036168
0,0,5,5,6,4,2,1,2021-08-06 13:57:33,052168
-7,-6,-5,-6,-43,-28,-12,-7,2021-08-06 13:57:33,068166
5,11,22,46,24,11,5,4,2021-08-06 13:57:33,068166
5,6,7,31,28,14,7,3,2021-08-06 13:57:33,068166
-3,-3,-5,-12,-1,-2,-4,-4,2021-08-06 13:57:33,068166
-2,-1,3,12,6,-1,-2,-1,2021-08-06 13:57:33,068166
-5,-9,-19,-53,-45,-20,-9,-5,2021-08-06 13:57:33,068166
-3,-7,-11,-32,-17,-8,-5,-3,2021-08-06 13:57:33,068166
-6,-6,-10,15,25,11,2,-3,2021-08-06 13:57:33,100166
6,9,15,16,16,8,5,3,2021-08-06 13:57:33,100166
1,6,9,14,-14,-12,-7,-2,2021-08-06 13:57:33,100166
2,4,0,9,1,1,4,3,2021-08-06 13:57:33,100166
4,1,2,5,4,5,3,3,2021-08-06 13:57:33,100166
0,-2,-8,-26,0,2,-1,-1,2021-08-06 13:57:33,100166
-8,-10,-5,-21,-30,-18,-7,-8,2021-08-06 13:57:33,116166
-4,-7,-14,-1,-7,-7,-4,-3,2021-08-06 13:57:33,116166
5,4,5,15,35,15,7,4,2021-08-06 13:57:33,132166
-3,-4,2,5,-19,-12,-7,-4,2021-08-06 13:57:33,132166
4,9,8,3,8,7,5,3,2021-08-06 13:57:33,132166
-3,-7,-4,5,-2,-3,-3,-1,2021-08-06 13:57:33,132166
-5,-8,-4,-20,-10,-4,-2,-1,2021-08-06 13:57:33,164168
-9,-10,-19,-35,-40,-28,-14,-10,2021-08-06 13:57:33,164168
6,7,15,43,38,22,10,6,2021-08-06 13:57:33,164168
8,14,15,29,25,12,8,4,2021-08-06 13:57:33,164168
-1,1,-1,-9,-20,-10,-6,-4,2021-08-06 13:57:33,164168
-2,-3,-2,-1,-3,2,0,-3,2021-08-06 13:57:33,164168
-10,-15,-27,-49,-29,-17,-9,-9,2021-08-06 13:57:33,180167
-7,-10,-22,-32,-13,-8,-6,-5,2021-08-06 13:57:33,180167
0,1,7,7,-2,6,3,1,2021-08-06 13:57:33,196168
3,6,7,-1,2,-1,0,1,2021-08-06 13:57:33,196168
-1,0,1,25,8,3,0,-1,2021-08-06 13:57:33,196168
3,3,12,26,-3,-4,-2,-1,2021-08-06 13:57:33,196168
-1,-1,-5,-6,0,3,1,-1,2021-08-06 13:57:33,212166
2,4,3,-3,16,13,7,4,2021-08-06 13:57:33,228170
-1,-4,-3,4,4,2,0,0,2021-08-06 13:57:33,228170
-7,-8,-11,-30,-27,-18,-10,-6,2021-08-06 13:57:33,228170
3,3,0,18,12,8,3,3,2021-08-06 13:57:33,228170
-4,-4,-5,-16,-6,-5,-3,-2,2021-08-06 13:57:33,228170
5,9,19,39,18,7,3,4,2021-08-06 13:57:33,228170
-1,1,3,-22,-31,-17,-7,-3,2021-08-06 13:57:33,228170
-2,-2,-10,4,9,9,4,1,2021-08-06 13:57:33,260166
-3,-7,-10,-14,6,4,2,-1,2021-08-06 13:57:33,260166
-6,-12,-11,-29,-20,-9,-4,-5,2021-08-06 13:57:33,260166
-2,-3,-4,9,16,4,0,-2,2021-08-06 13:57:33,260166
1,2,3,2,-5,-8,-4,-1,2021-08-06 13:57:33,276166
1,3,4,5,-4,3,1,2,2021-08-06 13:57:33,278166
0,2,10,19,8,-2,-2,-2,2021-08-06 13:57:33,292166
4,4,10,28,12,7,3,3,2021-08-06 13:57:33,308167
-3,-7,-14,-24,-16,-7,-3,-2,2021-08-06 13:57:33,308167
-1,-2,-6,-27,7,5,1,1,2021-08-06 13:57:33,308167
-5,-6,-10,-25,-23,-17,-10,-4,2021-08-06 13:57:33,308167
-2,-2,4,11,11,8,3,-1,2021-08-06 13:57:33,308167
11,16,23,42,41,24,14,11,2021-08-06 13:57:33,308167
-1,0,5,25,4,4,-1,-2,2021-08-06 13:57:33,308167
-1,1,-4,-7,8,4,1,0,2021-08-06 13:57:33,309168
-3,0,3,-12,-19,-14,-10,-4,2021-08-06 13:57:33,309168
-1,-1,-5,13,4,-2,-1,-2,2021-08-06 13:57:33,340166
3,2,1,5,3,4,3,3,2021-08-06 13:57:33,356166
1,-1,-13,-25,-10,1,2,0,2021-08-06 13:57:33,356166
-5,-6,-6,-15,-9,-2,-1,-3,2021-08-06 13:57:33,356166
-7,-9,-10,-51,-33,-21,-8,-8,2021-08-06 13:57:33,356166
0,1,9,39,12,0,0,2,2021-08-06 13:57:33,356166
4,5,8,29,7,2,3,1,2021-08-06 13:57:33,356166
0,-3,-21,-39,-9,0,2,1,2021-08-06 13:57:33,356166
-6,-11,-5,2,7,4,-1,-5,2021-08-06 13:57:33,372167
-3,-4,-9,-31,-21,-16,-7,-4,2021-08-06 13:57:33,372167
3,6,20,41,27,17,8,5,2021-08-06 13:57:33,372167
2,6,15,23,2,1,1,3,2021-08-06 13:57:33,372167
9,11,13,25,26,8,5,6,2021-08-06 13:57:33,404167
-2,-5,-4,-7,6,11,4,-2,2021-08-06 13:57:33,420166
-8,-8,-9,-23,-27,-20,-11,-7,2021-08-06 13:57:33,420166
-2,-3,-8,0,0,1,-1,2,2021-08-06 13:57:33,420166
-4,-4,-5,1,-3,-4,-2,-4,2021-08-06 13:57:33,420166
-1,0,-1,0,-20,-14,-7,-2,2021-08-06 13:57:33,420166
1,0,-4,-9,-1,0,0,1,2021-08-06 13:57:33,420166
3,3,27,35,25,14,6,3,2021-08-06 13:57:33,420166
-5,-5,-17,-27,-28,-14,-10,-5,2021-08-06 13:57:33,436166
-1,-3,-25,-22,-4,0,0,0,2021-08-06 13:57:33,436166
-9,-14,-23,-61,-23,-10,-8,-9,2021-08-06 13:57:33,436166
-3,0,1,2,-7,-10,-7,-5,2021-08-06 13:57:33,436166
6,10,29,40,30,22,11,6,2021-08-06 13:57:33,451166
6,6,15,43,20,9,6,2,2021-08-06 13:57:33,466166
3,1,-7,-11,4,4,2,2,2021-08-06 13:57:33,482167
-8,-7,-7,-14,-22,-15,-8,-7,2021-08-06 13:57:33,482167
-1,1,-1,1,-1,0,-1,0,2021-08-06 13:57:33,482167
-6,-5,-12,-30,-24,-17,-10,-5,2021-08-06 13:57:33,482167
-1,-1,12,40,24,8,3,2,2021-08-06 13:57:33,482167
7,7,6,10,5,4,6,3,2021-08-06 13:57:33,482167
-4,-5,-7,-20,-23,-14,-7,-5,2021-08-06 13:57:33,482167
-1,0,-6,-22,18,13,5,0,2021-08-06 13:57:33,482167
-2,-2,2,9,1,1,-1,-3,2021-08-06 13:57:33,482167
1,-1,2,12,6,0,-1,-1,2021-08-06 13:57:33,482167
-1,-5,-7,-9,-5,0,1,-1,2021-08-06 13:57:33,512168
1,-1,2,-3,-11,-8,-3,-3,2021-08-06 13:57:33,512168
-1,2,1,7,2,0,-2,0,2021-08-06 13:57:33,512168
-3,-5,-13,-23,-4,-3,-1,-1,2021-08-06 13:57:33,512168
-1,-2,4,-7,-1,-5,-2,0,2021-08-06 13:57:33,544168
-5,-4,-5,3,-11,-6,-4,-2,2021-08-06 13:57:33,544168
5,14,35,37,17,7,2,4,2021-08-06 13:57:33,544168
5,-1,-14,22,20,11,7,4,2021-08-06 13:57:33,544168
-1,-3,-19,-20,-4,0,-1,-2,2021-08-06 13:57:33,544168
-7,-9,-9,-25,-7,-5,-3,-3,2021-08-06 13:57:33,544168
0,-1,-3,-2,9,2,1,0,2021-08-06 13:57:33,544168
-3,1,12,-10,-16,-4,-2,-1,2021-08-06 13:57:33,544168
-7,-6,-4,-12,-38,-24,-12,-7,2021-08-06 13:57:33,576168
8,11,17,41,45,24,12,7,2021-08-06 13:57:33,576168
1,0,-5,-2,6,8,5,1,2021-08-06 13:57:33,576168
1,2,6,19,24,11,4,2,2021-08-06 13:57:33,576168
-3,-5,-2,-5,-6,-4,-3,-2,2021-08-06 13:57:33,592166
-4,-2,-4,-2,-21,-14,-9,-3,2021-08-06 13:57:33,592166
-4,-6,-16,-32,-27,-15,-7,-4,2021-08-06 13:57:33,592166
3,4,6,16,25,9,5,3,2021-08-06 13:57:33,592166
-1,2,-1,8,6,3,-1,0,2021-08-06 13:57:33,608167
-6,-6,-3,-22,-19,-9,-6,-4,2021-08-06 13:57:33,608167
-1,-3,-9,-5,2,1,2,-1,2021-08-06 13:57:33,608167
0,2,-2,-28,-16,-6,-4,-2,2021-08-06 13:57:33,608167
0,-3,5,21,10,3,0,0,2021-08-06 13:57:33,640166
4,7,11,27,5,3,3,2,2021-08-06 13:57:33,640166
2,-1,-14,-29,-1,2,1,0,2021-08-06 13:57:33,640166
1,1,13,25,28,12,3,2,2021-08-06 13:57:33,640166
-3,-1,2,9,1,-2,-5,-3,2021-08-06 13:57:33,672167
-4,-7,-11,-21,-23,-13,-8,-6,2021-08-06 13:57:33,672167
-3,-6,-2,-4,-13,-6,-3,-2,2021-08-06 13:57:33,672167
1,1,-10,-5,18,9,3,0,2021-08-06 13:57:33,672167
2,5,14,24,7,2,0,-1,2021-08-06 13:57:33,672167
4,0,2,2,-4,-1,0,2,2021-08-06 13:57:33,672167
0,0,-4,-5,8,3,1,-1,2021-08-06 13:57:33,673167
-1,-3,-1,-13,-11,-6,-2,-3,2021-08-06 13:57:33,673167
0,-2,-10,-14,1,2,2,0,2021-08-06 13:57:33,704166
-2,0,3,-10,-12,-10,-5,-4,2021-08-06 13:57:33,720166
-3,-2,7,10,-7,-8,-5,-3,2021-08-06 13:57:33,720166
-2,-1,2,12,7,0,-1,0,2021-08-06 13:57:33,720166
6,8,6,20,14,12,7,5,2021-08-06 13:57:33,736166
-4,-7,-11,-18,-5,-5,-3,-3,2021-08-06 13:57:33,752168
-2,-1,6,10,-8,-4,-4,-2,2021-08-06 13:57:33,752168
-2,0,-2,3,-6,-2,-2,-2,2021-08-06 13:57:33,752168
-2,-8,-18,-47,-18,-10,-4,-1,2021-08-06 13:57:33,752168
-2,-3,-1,6,9,8,2,0,2021-08-06 13:57:33,752168
4,1,2,12,15,6,3,0,2021-08-06 13:57:33,752168
0,1,-5,11,-10,-6,-1,-1,2021-08-06 13:57:33,752168
-5,-5,3,-7,-22,-9,-5,-4,2021-08-06 13:57:33,752168
-2,1,11,-7,6,2,-1,-1,2021-08-06 13:57:33,753168
-1,-2,-9,-12,-22,-10,-4,-1,2021-08-06 13:57:33,753168
8,3,-3,0,32,19,9,6,2021-08-06 13:57:33,753168
-6,-6,-13,-7,6,4,0,-3,2021-08-06 13:57:33,784167
-3,-5,-3,10,-2,-5,-1,-3,2021-08-06 13:57:33,784167
-3,-2,9,10,-2,-3,-3,-5,2021-08-06 13:57:33,784167
-1,3,8,-7,-12,-7,-3,-2,2021-08-06 13:57:33,784167
-2,-1,3,17,-6,-4,-1,0,2021-08-06 13:57:33,784167
6,8,8,9,26,14,7,6,2021-08-06 13:57:33,784167
-3,-1,-2,-6,-16,-12,-5,-4,2021-08-06 13:57:33,784167
0,0,0,-3,1,2,0,1,2021-08-06 13:57:33,784167
3,1,-11,-23,-4,4,5,2,2021-08-06 13:57:33,816168
-13,-15,-19,-40,-30,-15,-12,-10,2021-08-06 13:57:33,816168
-1,0,0,16,9,1,-1,0,2021-08-06 13:57:33,816168
3,6,18,26,0,-2,-1,2,2021-08-06 13:57:33,816168
3,6,13,26,7,-2,1,1,2021-08-06 13:57:33,832167
4,3,4,1,15,16,9,3,2021-08-06 13:57:33,848166
-2,-6,-16,-10,12,3,1,-1,2021-08-06 13:57:33,864167
-6,-7,-15,-26,-4,-2,-3,-6,2021-08-06 13:57:33,880166
1,3,7,25,10,0,-2,1,2021-08-06 13:57:33,896167
4,4,-4,10,8,7,5,3,2021-08-06 13:57:33,896167
-8,-10,-9,-38,-25,-17,-10,-6,2021-08-06 13:57:33,896167
-7,-8,-4,-9,-17,-8,-4,-4,2021-08-06 13:57:33,896167
1,4,4,-7,-9,-9,-4,-1,2021-08-06 13:57:33,896167
5,10,28,62,24,6,2,1,2021-08-06 13:57:33,912166
7,7,2,3,8,12,7,7,2021-08-06 13:57:33,912166
-3,-11,-29,-50,-31,-10,-4,-3,2021-08-06 13:57:33,912166
-14,-19,-24,-44,-27,-18,-13,-9,2021-08-06 13:57:33,912166
1,2,-2,14,4,-3,0,0,2021-08-06 13:57:33,912166
1,5,15,23,-3,-3,-1,0,2021-08-06 13:57:33,912166
0,1,6,10,8,4,0,0,2021-08-06 13:57:33,912166
4,6,6,12,32,19,8,2,2021-08-06 13:57:33,912166
4,3,9,12,16,9,4,5,2021-08-06 13:57:33,912166
2,2,4,13,10,8,4,2,2021-08-06 13:57:33,912166
-7,-10,-23,-32,-34,-17,-11,-7,2021-08-06 13:57:33,913168
-5,-7,-7,-16,-23,-8,-5,-5,2021-08-06 13:57:33,944167
-2,-6,-4,-21,-3,-6,-3,-1,2021-08-06 13:57:33,944167
0,0,3,5,-4,-2,-1,0,2021-08-06 13:57:33,944167
-1,2,3,8,1,-1,0,0,2021-08-06 13:57:33,944167
2,4,10,19,18,9,3,0,2021-08-06 13:57:33,960166
-1,1,-4,12,-6,-3,-2,-1,2021-08-06 13:57:33,976166
0,3,7,-8,0,3,0,1,2021-08-06 13:57:33,992166
-2,-4,-11,-10,-5,-5,-4,-3,2021-08-06 13:57:34,008167
-2,-3,-10,-18,-6,-1,0,0,2021-08-06 13:57:34,013166
-2,-2,0,-13,-10,-5,-2,-2,2021-08-06 13:57:34,014168
9,11,16,50,68,34,16,8,2021-08-06 13:57:34,014168
1,3,9,12,-7,-6,-3,0,2021-08-06 13:57:34,014168
-4,-5,-20,-42,-33,-18,-8,-5,2021-08-06 13:57:34,014168
-2,-1,-4,-13,-10,-3,-2,-1,2021-08-06 13:57:34,014168
-4,-8,-6,-1,-8,-7,-5,-3,2021-08-06 13:57:34,014168
0,1,8,-7,-10,-7,-2,-2,2021-08-06 13:57:34,014168
3,5,13,31,11,2,1,2,2021-08-06 13:57:34,015168
-1,-1,0,-3,3,1,-2,0,2021-08-06 13:57:34,015168
-2,-4,-19,-14,-5,-4,-3,0,2021-08-06 13:57:34,015168
-2,-4,-5,-10,8,5,0,-1,2021-08-06 13:57:34,015168
-4,-6,-7,-5,-12,-7,-6,-5,2021-08-06 13:57:34,040166
0,-4,-10,-20,-13,-9,-4,-2,2021-08-06 13:57:34,056166
0,0,11,15,1,0,-2,-1,2021-08-06 13:57:34,056166
0,2,2,17,15,6,1,0,2021-08-06 13:57:34,056166
1,5,15,15,2,-2,0,1,2021-08-06 13:57:34,056166
4,4,7,16,8,8,5,4,2021-08-06 13:57:34,056166
-2,-4,-13,-32,-7,-2,-1,-3,2021-08-06 13:57:34,056166
-3,-1,1,5,1,0,0,-1,2021-08-06 13:57:34,056166
3,5,3,7,15,7,4,4,2021-08-06 13:57:34,072167
-9,-8,-19,-32,-26,-16,-8,-8,2021-08-06 13:57:34,072167
-5,-6,-4,8,-6,-6,-5,-5,2021-08-06 13:57:34,072167
14,20,27,13,16,16,14,12,2021-08-06 13:57:34,072167
1,1,9,22,11,4,2,2,2021-08-06 13:57:34,088166
-3,-8,-24,-17,-21,-11,-7,-2,2021-08-06 13:57:34,104166
-10,-15,-26,-62,-27,-15,-11,-9,2021-08-06 13:57:34,104166
-7,-9,-9,25,12,-1,-4,-6,2021-08-06 13:57:34,104166
6,9,20,18,14,10,5,5,2021-08-06 13:57:34,104166
4,6,18,22,16,7,3,1,2021-08-06 13:57:34,104166
-1,3,7,18,-7,-5,0,0,2021-08-06 13:57:34,119167
5,1,10,27,23,16,9,5,2021-08-06 13:57:34,135167
0,-3,-9,-33,-15,-6,-3,-1,2021-08-06 13:57:34,135167
-10,-14,-30,-50,-13,-8,-8,-7,2021-08-06 13:57:34,135167
-4,-4,-3,-3,-8,-7,-4,-2,2021-08-06 13:57:34,135167
-2,-3,-2,-10,-9,-8,-4,-3,2021-08-06 13:57:34,135167
4,4,8,20,-5,-4,0,-1,2021-08-06 13:57:34,151166
4,10,20,42,33,15,9,4,2021-08-06 13:57:34,151166
3,2,5,11,-1,-2,-1,0,2021-08-06 13:57:34,151166
-3,-7,-9,1,-3,1,1,-1,2021-08-06 13:57:34,151166
-8,-10,-20,-39,-10,-4,-4,-5,2021-08-06 13:57:34,182166
-3,-1,7,9,4,1,0,0,2021-08-06 13:57:34,197167
-4,1,-2,-5,-16,-11,-7,-4,2021-08-06 13:57:34,212166
3,3,5,4,22,10,3,2,2021-08-06 13:57:34,227168
1,-4,-14,22,13,4,1,0,2021-08-06 13:57:34,259166
0,0,2,-12,-20,-9,-5,-2,2021-08-06 13:57:34,275166
3,5,10,18,19,9,4,1,2021-08-06 13:57:34,275166
-2,-1,3,-13,0,1,-2,1,2021-08-06 13:57:34,275166
1,1,2,4,17,9,4,3,2021-08-06 13:57:34,275166
-2,-2,-2,-1,-7,-3,-3,-2,2021-08-06 13:57:34,275166
1,4,3,-9,-9,-5,0,1,2021-08-06 13:57:34,275166
-8,-7,-6,-21,-40,-25,-12,-8,2021-08-06 13:57:34,275166
0,-3,2,27,24,12,6,3,2021-08-06 13:57:34,276169
4,7,13,17,16,10,5,3,2021-08-06 13:57:34,276169
-3,-7,-27,-35,-16,-5,-3,-5,2021-08-06 13:57:34,276169
-2,-2,-4,-20,-10,-7,-4,-3,2021-08-06 13:57:34,276169
-4,-1,-2,-4,-20,-12,-5,-3,2021-08-06 13:57:34,276169
0,0,5,20,5,2,-2,-3,2021-08-06 13:57:34,276169
4,6,16,20,7,2,3,3,2021-08-06 13:57:34,276169
3,3,2,20,18,12,6,4,2021-08-06 13:57:34,276169
-5,-6,-9,-41,-17,-7,-6,-2,2021-08-06 13:57:34,277170
-1,-2,-19,-14,6,4,4,1,2021-08-06 13:57:34,277170
-6,-10,-9,-12,-16,-9,-6,-4,2021-08-06 13:57:34,277170
-1,-1,-2,-10,-3,-1,-2,-2,2021-08-06 13:57:34,277170
3,12,23,31,3,0,2,2,2021-08-06 13:57:34,307167
2,3,2,19,13,4,2,1,2021-08-06 13:57:34,323166
-1,-3,-10,-5,-2,0,-1,1,2021-08-06 13:57:34,323166
-7,-11,-17,-33,-30,-16,-10,-7,2021-08-06 13:57:34,323166
-4,-4,-12,-38,-5,-2,-1,-2,2021-08-06 13:57:34,339185
-1,-1,2,6,-1,-4,-2,-1,2021-08-06 13:57:34,339185
5,8,17,31,15,7,4,4,2021-08-06 13:57:34,339185
4,7,18,54,11,6,3,3,2021-08-06 13:57:34,339185
0,1,-10,-38,-12,-2,-1,1,2021-08-06 13:57:34,339185
-1,0,3,0,23,12,3,3,2021-08-06 13:57:34,339185
-2,-4,-7,0,6,5,1,0,2021-08-06 13:57:34,339185
1,1,2,-9,-3,-7,-3,-2,2021-08-06 13:57:34,339185
-3,-5,-4,20,-3,-1,0,-3,2021-08-06 13:57:34,355185
-2,0,3,-9,-26,-13,-6,-1,2021-08-06 13:57:34,371185
-1,-1,-10,-29,-3,-1,-2,0,2021-08-06 13:57:34,371185
-5,-8,-16,-8,-2,-5,-4,-3,2021-08-06 13:57:34,371185
-4,-3,2,3,0,0,-3,-4,2021-08-06 13:57:34,371185
-1,1,4,-3,-17,-8,-2,-2,2021-08-06 13:57:34,371185
4,4,12,31,29,15,7,4,2021-08-06 13:57:34,371185
1,4,-7,-2,-1,-1,1,1,2021-08-06 13:57:34,371185
-3,-5,-2,4,0,0,-4,-2,2021-08-06 13:57:34,403187
-2,-3,-3,-9,-13,-9,-5,-3,2021-08-06 13:57:34,419185
-1,2,5,-5,-4,-5,0,0,2021-08-06 13:57:34,419185
-2,-2,2,-3,-4,-3,-1,-2,2021-08-06 13:57:34,419185
8,10,11,37,37,19,8,4,2021-08-06 13:57:34,419185
-4,-6,-15,-33,-19,-9,-5,-4,2021-08-06 13:57:34,419185
-3,-1,2,-12,-10,-4,-3,-3,2021-08-06 13:57:34,419185
0,-3,8,31,8,0,0,0,2021-08-06 13:57:34,420186
-3,-4,-12,-16,-8,-2,0,-2,2021-08-06 13:57:34,434185
-7,-10,-19,-34,-1,-2,-4,-6,2021-08-06 13:57:34,434185
-2,-5,-18,-13,-2,2,0,-2,2021-08-06 13:57:34,434185
1,3,12,-24,0,4,2,1,2021-08-06 13:57:34,434185
1,3,-8,26,5,-6,-3,-1,2021-08-06 13:57:34,465185
3,3,15,35,9,2,3,2,2021-08-06 13:57:34,465185
3,2,9,22,-1,2,0,1,2021-08-06 13:57:34,465185
0,3,10,-20,4,3,0,-1,2021-08-06 13:57:34,465185
0,-7,-17,-17,1,3,1,1,2021-08-06 13:57:34,465185
-4,-6,-13,-22,7,4,0,-3,2021-08-06 13:57:34,465185
1,2,12,41,18,6,2,0,2021-08-06 13:57:34,465185
1,3,1,-6,-26,-13,-5,-2,2021-08-06 13:57:34,465185
-3,-3,10,-14,-12,-7,-4,-1,2021-08-06 13:57:34,512187
4,2,-3,14,2,2,3,4,2021-08-06 13:57:34,528186
0,-2,-1,-17,-7,-5,-1,-2,2021-08-06 13:57:34,543432
-5,-7,-10,-3,-3,-5,-6,-6,2021-08-06 13:57:34,543432
-2,1,0,-7,-3,-4,-3,-3,2021-08-06 13:57:34,543432
-2,-1,7,13,-14,-8,-4,-2,2021-08-06 13:57:34,543432
5,7,13,7,-1,-1,3,2,2021-08-06 13:57:34,543432
5,5,2,45,38,23,12,8,2021-08-06 13:57:34,543432
-2,-4,-8,-37,-4,0,-1,-2,2021-08-06 13:57:34,543432
-7,-9,-20,-42,-24,-12,-6,-4,2021-08-06 13:57:34,544187
-5,-6,0,-13,-25,-18,-11,-7,2021-08-06 13:57:34,544187
3,4,-6,28,17,8,5,3,2021-08-06 13:57:34,544187
0,-2,0,-3,-14,-9,-4,-2,2021-08-06 13:57:34,558695
0,3,10,3,7,2,-1,-1,2021-08-06 13:57:34,574695
-4,-5,-12,-24,-17,-8,-3,-2,2021-08-06 13:57:34,590696
-1,-2,0,-12,-12,-5,-3,-2,2021-08-06 13:57:34,590696
-2,-4,-4,13,-5,-6,-2,-1,2021-08-06 13:57:34,590696
3,2,1,12,14,7,5,2,2021-08-06 13:57:34,590696
-2,-1,2,2,-3,-3,-5,-2,2021-08-06 13:57:34,590696
3,8,22,16,9,4,3,2,2021-08-06 13:57:34,590696
0,-2,-7,3,2,3,1,0,2021-08-06 13:57:34,590696
1,-3,-12,-17,-12,-8,-2,2,2021-08-06 13:57:34,591696
-3,-4,-3,4,-5,-1,-2,0,2021-08-06 13:57:34,591696
-9,-12,-23,-31,-13,-10,-8,-7,2021-08-06 13:57:34,591696
-3,6,26,20,6,3,1,-2,2021-08-06 13:57:34,622694
14,19,22,49,28,20,13,11,2021-08-06 13:57:34,622694
-1,-2,-10,-25,-1,2,1,1,2021-08-06 13:57:34,622694
-5,-7,-25,-27,-18,-11,-6,-3,2021-08-06 13:57:34,622694
-6,-12,-11,-27,-20,-17,-10,-5,2021-08-06 13:57:34,638695
-5,-2,-1,7,-12,-6,-4,-1,2021-08-06 13:57:34,638695
0,-3,0,-14,8,4,-1,-2,2021-08-06 13:57:34,638695
-4,-1,7,4,-10,-11,-5,-5,2021-08-06 13:57:34,638695
6,6,10,45,23,12,9,7,2021-08-06 13:57:34,654694
1,2,7,-3,11,4,1,1,2021-08-06 13:57:34,670694
-1,-4,-5,-2,-3,0,-1,-2,2021-08-06 13:57:34,670694
1,-1,-6,-15,2,3,2,1,2021-08-06 13:57:34,670694
-3,-1,-5,-1,-4,-4,-2,-2,2021-08-06 13:57:34,670694
-2,-2,1,10,-1,-3,-3,-3,2021-08-06 13:57:34,670694
-3,-3,-1,-12,-10,-5,-3,-2,2021-08-06 13:57:34,670694
2,3,11,18,12,4,1,1,2021-08-06 13:57:34,670694
10,11,-4,15,7,7,5,7,2021-08-06 13:57:34,701695
-3,-3,1,-11,-7,-3,-2,-4,2021-08-06 13:57:34,717694
0,-6,-10,6,5,1,0,-1,2021-08-06 13:57:34,733694
-6,-12,-32,-43,-20,-10,-6,-6,2021-08-06 13:57:34,748695
-3,-2,8,-14,-8,-5,-3,-3,2021-08-06 13:57:34,749697
-1,4,12,23,10,1,1,1,2021-08-06 13:57:34,749697
11,15,25,43,34,20,13,9,2021-08-06 13:57:34,749697
1,-1,7,14,5,4,1,3,2021-08-06 13:57:34,749697
-4,-4,-19,-29,-12,-5,-3,-3,2021-08-06 13:57:34,749697
-5,-10,-3,-23,-13,-9,-6,-5,2021-08-06 13:57:34,749697
-1,5,8,11,-1,-1,0,0,2021-08-06 13:57:34,750696
-4,-5,-11,-3,-10,-7,-4,-2,2021-08-06 13:57:34,750696
0,-4,-10,-18,4,3,0,1,2021-08-06 13:57:34,750696
-4,-4,-5,-4,-5,-3,-4,-4,2021-08-06 13:57:34,750696
-1,-1,-4,0,3,-4,-2,-1,2021-08-06 13:57:34,750696
3,6,16,20,7,5,3,2,2021-08-06 13:57:34,750696
-4,0,6,12,2,-2,-3,-2,2021-08-06 13:57:34,765696
0,-3,-4,-14,-5,-2,0,1,2021-08-06 13:57:34,765696
-4,-4,-20,-26,-18,-12,-7,-4,2021-08-06 13:57:34,765696
7,9,26,33,29,17,10,8,2021-08-06 13:57:34,765696
2,1,-3,25,4,0,1,-1,2021-08-06 13:57:34,797697
-6,-9,-17,-44,-18,-7,-6,-5,2021-08-06 13:57:34,797697
-3,0,-2,-6,2,2,-1,-1,2021-08-06 13:57:34,797697
-3,-8,-5,-18,-15,-9,-6,-4,2021-08-06 13:57:34,797697
-3,-2,-1,-19,-17,-10,-5,-1,2021-08-06 13:57:34,829695
6,5,-6,34,37,15,5,4,2021-08-06 13:57:34,844696
0,-1,1,0,11,8,2,0,2021-08-06 13:57:34,860696
-5,1,-4,-9,-15,-9,-5,-5,2021-08-06 13:57:34,876695
4,6,27,26,9,5,2,2,2021-08-06 13:57:34,876695
-2,-1,-6,-2,-12,-5,-3,-2,2021-08-06 13:57:34,876695
-5,-10,-15,-16,-11,-6,-5,-1,2021-08-06 13:57:34,876695
-4,-6,-10,-29,-10,-5,-3,-4,2021-08-06 13:57:34,876695
-1,-2,0,17,10,-1,-5,-3,2021-08-06 13:57:34,876695
2,8,31,47,4,0,1,1,2021-08-06 13:57:34,877698
4,3,-10,-37,0,3,4,2,2021-08-06 13:57:34,877698
-4,-7,-11,-15,-7,-4,-4,-3,2021-08-06 13:57:34,877698
-4,-5,-11,-21,-24,-12,-5,-4,2021-08-06 13:57:34,892695
3,2,4,15,31,20,8,4,2021-08-06 13:57:34,892695
0,2,11,29,8,2,0,0,2021-08-06 13:57:34,892695
0,-1,3,-5,-3,1,0,-1,2021-08-06 13:57:34,892695
