Timestamp,Milliseconds,EMG 1,EMG 2,EMG 3,EMG 4,EMG 5,EMG 6,EMG 7,EMG 8

17:37:29.953198,953198,25,86,564,60,367,12,20,201
17:37:29.954197,954197,25,86,564,60,367,12,20,201
17:37:29.955198,955198,25,86,564,60,367,12,20,201
17:37:29.956237,956237,25,86,564,60,367,12,20,201
17:37:29.957234,957234,25,86,564,60,367,12,20,201
17:37:29.958233,958233,25,86,564,60,367,12,20,201
17:37:29.959234,959234,25,86,564,60,367,12,20,201
17:37:29.960204,960204,25,86,564,60,367,12,20,201
17:37:29.961234,961234,25,86,564,60,367,12,20,201
17:37:29.962234,962234,25,86,564,60,367,12,20,201
17:37:29.963199,963199,25,86,564,60,367,12,20,201
17:37:29.964235,964235,25,86,564,60,367,12,20,201
17:37:29.965199,965199,35,140,788,112,621,31,31,268
17:37:29.966234,966234,35,140,788,112,621,31,31,268
17:37:29.967199,967199,35,140,788,112,621,31,31,268
17:37:29.968236,968236,35,140,788,112,621,31,31,268
17:37:29.969233,969233,35,140,788,112,621,31,31,268
17:37:29.970236,970236,35,140,788,112,621,31,31,268
17:37:29.971234,971234,35,140,788,112,621,31,31,268
17:37:29.972233,972233,35,140,788,112,621,31,31,268
17:37:29.973235,973235,35,140,788,112,621,31,31,268
17:37:29.974234,974234,35,140,788,112,621,31,31,268
17:37:29.975199,975199,35,140,788,112,621,31,31,268
17:37:29.976199,976199,35,140,788,112,621,31,31,268
17:37:29.977198,977198,35,140,788,112,621,31,31,268
17:37:29.978236,978236,35,140,788,112,621,31,31,268
17:37:29.979230,979230,35,140,788,112,621,31,31,268
17:37:29.980196,980196,35,140,788,112,621,31,31,268
17:37:29.981197,981197,35,140,788,112,621,31,31,268
17:37:29.982224,982224,35,140,788,112,621,31,31,268
17:37:29.983198,983198,35,140,788,112,621,31,31,268
17:37:29.984200,984200,35,140,788,112,621,31,31,268
17:37:29.985197,985197,35,140,788,112,621,31,31,268
17:37:29.985197,985197,23,119,624,97,468,35,35,146
17:37:29.986223,986223,23,119,624,97,468,35,35,146
17:37:29.987222,987222,23,119,624,97,468,35,35,146
17:37:29.988224,988224,23,119,624,97,468,35,35,146
17:37:29.989223,989223,23,119,624,97,468,35,35,146
17:37:29.990223,990223,23,119,624,97,468,35,35,146
17:37:29.991223,991223,23,119,624,97,468,35,35,146
17:37:29.992203,992203,23,119,624,97,468,35,35,146
17:37:29.993222,993222,23,119,624,97,468,35,35,146
17:37:29.994223,994223,23,119,624,97,468,35,35,146
17:37:29.995224,995224,23,119,624,97,468,35,35,146
17:37:29.996196,996196,23,119,624,97,468,35,35,146
17:37:29.997198,997198,23,119,624,97,468,35,35,146
17:37:29.998223,998223,23,119,624,97,468,35,35,146
17:37:29.999198,999198,23,119,624,97,468,35,35,146
17:37:30.000198,000198,23,119,624,97,468,35,35,146
17:37:30.001225,001225,23,120,567,93,477,40,39,120
17:37:30.002199,002199,23,120,567,93,477,40,39,120
17:37:30.003234,003234,23,120,567,93,477,40,39,120
17:37:30.004229,004229,23,120,567,93,477,40,39,120
17:37:30.005224,005224,23,120,567,93,477,40,39,120
17:37:30.006197,006197,23,120,567,93,477,40,39,120
17:37:30.007228,007228,23,120,567,93,477,40,39,120
17:37:30.008201,008201,23,120,567,93,477,40,39,120
17:37:30.009223,009223,23,120,567,93,477,40,39,120
17:37:30.010223,010223,23,120,567,93,477,40,39,120
17:37:30.011196,011196,23,120,567,93,477,40,39,120
17:37:30.012223,012223,23,120,567,93,477,40,39,120
17:37:30.013197,013197,23,120,567,93,477,40,39,120
17:37:30.014223,014223,23,120,567,93,477,40,39,120
17:37:30.015223,015223,23,120,567,93,477,40,39,120
17:37:30.016225,016225,23,120,567,93,477,40,39,120
17:37:30.017198,017198,23,120,567,93,477,40,39,120
17:37:30.017198,017198,23,131,476,87,448,53,45,59
17:37:30.018237,018237,23,131,476,87,448,53,45,59
17:37:30.019223,019223,23,131,476,87,448,53,45,59
17:37:30.020224,020224,23,131,476,87,448,53,45,59
17:37:30.021223,021223,23,131,476,87,448,53,45,59
17:37:30.022223,022223,23,131,476,87,448,53,45,59
17:37:30.023222,023222,23,131,476,87,448,53,45,59
17:37:30.024222,024222,23,131,476,87,448,53,45,59
17:37:30.025199,025199,23,131,476,87,448,53,45,59
17:37:30.026222,026222,23,131,476,87,448,53,45,59
17:37:30.027225,027225,23,131,476,87,448,53,45,59
17:37:30.028223,028223,23,131,476,87,448,53,45,59
17:37:30.029217,029217,23,131,476,87,448,53,45,59
17:37:30.030224,030224,23,131,476,87,448,53,45,59
17:37:30.031222,031222,23,131,476,87,448,53,45,59
17:37:30.032225,032225,23,131,476,87,448,53,45,59
17:37:30.033222,033222,23,131,476,87,448,53,45,59
17:37:30.033222,033222,24,115,616,88,514,52,40,126
17:37:30.033222,033222,37,123,553,93,445,65,36,116
17:37:30.034197,034197,37,123,553,93,445,65,36,116
17:37:30.035196,035196,37,123,553,93,445,65,36,116
17:37:30.036196,036196,37,123,553,93,445,65,36,116
17:37:30.037196,037196,37,123,553,93,445,65,36,116
17:37:30.038196,038196,37,123,553,93,445,65,36,116
17:37:30.039196,039196,37,123,553,93,445,65,36,116
17:37:30.040196,040196,37,123,553,93,445,65,36,116
17:37:30.041196,041196,37,123,553,93,445,65,36,116
17:37:30.042197,042197,37,123,553,93,445,65,36,116
17:37:30.043196,043196,37,123,553,93,445,65,36,116
17:37:30.044196,044196,37,123,553,93,445,65,36,116
17:37:30.045234,045234,37,123,553,93,445,65,36,116
17:37:30.046197,046197,37,123,553,93,445,65,36,116
17:37:30.047199,047199,37,123,553,93,445,65,36,116
17:37:30.048239,048239,37,123,553,93,445,65,36,116
17:37:30.049234,049234,37,123,553,93,445,65,36,116
17:37:30.049234,049234,53,149,530,82,308,76,31,197
17:37:30.050199,050199,53,149,530,82,308,76,31,197
17:37:30.051234,051234,53,149,530,82,308,76,31,197
17:37:30.052239,052239,53,149,530,82,308,76,31,197
17:37:30.053233,053233,53,149,530,82,308,76,31,197
17:37:30.054230,054230,53,149,530,82,308,76,31,197
17:37:30.055198,055198,53,149,530,82,308,76,31,197
17:37:30.056199,056199,53,149,530,82,308,76,31,197
17:37:30.057233,057233,53,149,530,82,308,76,31,197
17:37:30.058234,058234,53,149,530,82,308,76,31,197
17:37:30.059236,059236,53,149,530,82,308,76,31,197
17:37:30.060233,060233,53,149,530,82,308,76,31,197
17:37:30.061234,061234,53,149,530,82,308,76,31,197
17:37:30.062234,062234,53,149,530,82,308,76,31,197
17:37:30.063198,063198,53,149,530,82,308,76,31,197
17:37:30.064234,064234,53,149,530,82,308,76,31,197
17:37:30.065234,065234,53,149,530,82,308,76,31,197
17:37:30.065234,065234,54,98,513,51,377,90,18,207
17:37:30.066245,066245,54,98,513,51,377,90,18,207
17:37:30.067233,067233,54,98,513,51,377,90,18,207
17:37:30.068236,068236,54,98,513,51,377,90,18,207
17:37:30.069234,069234,54,98,513,51,377,90,18,207
17:37:30.070234,070234,54,98,513,51,377,90,18,207
17:37:30.071225,071225,54,98,513,51,377,90,18,207
17:37:30.072198,072198,54,98,513,51,377,90,18,207
17:37:30.073234,073234,54,98,513,51,377,90,18,207
17:37:30.074245,074245,54,98,513,51,377,90,18,207
17:37:30.075199,075199,54,98,513,51,377,90,18,207
17:37:30.076234,076234,54,98,513,51,377,90,18,207
17:37:30.077237,077237,54,98,513,51,377,90,18,207
17:37:30.078234,078234,54,98,513,51,377,90,18,207
17:37:30.079229,079229,54,98,513,51,377,90,18,207
17:37:30.080237,080237,54,98,513,51,377,90,18,207
17:37:30.081234,081234,54,98,513,51,377,90,18,207
17:37:30.081234,081234,39,96,379,44,320,237,27,167
17:37:30.082196,082196,39,96,379,44,320,237,27,167
17:37:30.083199,083199,39,96,379,44,320,237,27,167
17:37:30.084243,084243,39,96,379,44,320,237,27,167
17:37:30.085250,085250,39,96,379,44,320,237,27,167
17:37:30.086244,086244,39,96,379,44,320,237,27,167
17:37:30.087245,087245,39,96,379,44,320,237,27,167
17:37:30.088235,088235,39,96,379,44,320,237,27,167
17:37:30.089234,089234,39,96,379,44,320,237,27,167
17:37:30.090235,090235,39,96,379,44,320,237,27,167
17:37:30.091237,091237,39,96,379,44,320,237,27,167
17:37:30.092245,092245,39,96,379,44,320,237,27,167
17:37:30.093230,093230,39,96,379,44,320,237,27,167
17:37:30.094199,094199,39,96,379,44,320,237,27,167
17:37:30.095251,095251,39,96,379,44,320,237,27,167
17:37:30.096206,096206,39,96,379,44,320,237,27,167
17:37:30.097248,097248,39,96,379,44,320,237,27,167
17:37:30.097248,097248,42,76,404,51,334,288,43,129
17:37:30.098198,098198,42,76,404,51,334,288,43,129
17:37:30.099239,099239,42,76,404,51,334,288,43,129
17:37:30.100199,100199,42,76,404,51,334,288,43,129
17:37:30.101234,101234,42,76,404,51,334,288,43,129
17:37:30.102199,102199,42,76,404,51,334,288,43,129
17:37:30.103234,103234,42,76,404,51,334,288,43,129
17:37:30.104227,104227,42,76,404,51,334,288,43,129
17:37:30.105245,105245,42,76,404,51,334,288,43,129
17:37:30.106245,106245,42,76,404,51,334,288,43,129
17:37:30.107205,107205,42,76,404,51,334,288,43,129
17:37:30.108234,108234,42,76,404,51,334,288,43,129
17:37:30.109234,109234,42,76,404,51,334,288,43,129
17:37:30.110234,110234,42,76,404,51,334,288,43,129
17:37:30.111234,111234,42,76,404,51,334,288,43,129
17:37:30.112237,112237,42,76,404,51,334,288,43,129
17:37:30.113199,113199,42,76,404,51,334,288,43,129
17:37:30.113199,113199,40,106,336,48,484,444,119,129
17:37:30.113199,113199,74,133,329,51,459,475,163,128
17:37:30.113199,113199,87,148,296,55,381,484,248,128
17:37:30.114199,114199,87,148,296,55,381,484,248,128
17:37:30.115234,115234,87,148,296,55,381,484,248,128
17:37:30.116199,116199,87,148,296,55,381,484,248,128
17:37:30.117234,117234,87,148,296,55,381,484,248,128
17:37:30.118234,118234,87,148,296,55,381,484,248,128
17:37:30.119224,119224,87,148,296,55,381,484,248,128
17:37:30.120198,120198,87,148,296,55,381,484,248,128
17:37:30.121235,121235,87,148,296,55,381,484,248,128
17:37:30.122200,122200,87,148,296,55,381,484,248,128
17:37:30.123236,123236,87,148,296,55,381,484,248,128
17:37:30.124234,124234,87,148,296,55,381,484,248,128
17:37:30.125199,125199,87,148,296,55,381,484,248,128
17:37:30.126233,126233,87,148,296,55,381,484,248,128
17:37:30.127199,127199,87,148,296,55,381,484,248,128
17:37:30.128199,128199,87,148,296,55,381,484,248,128
17:37:30.128199,128199,136,210,245,60,451,617,431,186
17:37:30.129234,129234,136,210,245,60,451,617,431,186
17:37:30.130197,130197,136,210,245,60,451,617,431,186
17:37:30.131199,131199,136,210,245,60,451,617,431,186
17:37:30.132238,132238,136,210,245,60,451,617,431,186
17:37:30.133234,133234,136,210,245,60,451,617,431,186
17:37:30.134233,134233,136,210,245,60,451,617,431,186
17:37:30.135233,135233,136,210,245,60,451,617,431,186
17:37:30.136240,136240,136,210,245,60,451,617,431,186
17:37:30.137233,137233,136,210,245,60,451,617,431,186
17:37:30.138234,138234,136,210,245,60,451,617,431,186
17:37:30.139250,139250,136,210,245,60,451,617,431,186
17:37:30.140234,140234,136,210,245,60,451,617,431,186
17:37:30.141234,141234,136,210,245,60,451,617,431,186
17:37:30.142234,142234,136,210,245,60,451,617,431,186
17:37:30.143233,143233,136,210,245,60,451,617,431,186
17:37:30.144236,144236,136,210,245,60,451,617,431,186
17:37:30.144236,144236,142,231,216,62,465,592,516,266
17:37:30.145199,145199,142,231,216,62,465,592,516,266
17:37:30.146197,146197,142,231,216,62,465,592,516,266
17:37:30.147198,147198,142,231,216,62,465,592,516,266
17:37:30.148225,148225,142,231,216,62,465,592,516,266
17:37:30.149222,149222,142,231,216,62,465,592,516,266
17:37:30.150199,150199,142,231,216,62,465,592,516,266
17:37:30.151223,151223,142,231,216,62,465,592,516,266
17:37:30.152198,152198,142,231,216,62,465,592,516,266
17:37:30.153228,153228,142,231,216,62,465,592,516,266
17:37:30.154198,154198,142,231,216,62,465,592,516,266
17:37:30.155198,155198,142,231,216,62,465,592,516,266
17:37:30.156223,156223,142,231,216,62,465,592,516,266
17:37:30.157222,157222,142,231,216,62,465,592,516,266
17:37:30.158198,158198,142,231,216,62,465,592,516,266
17:37:30.159223,159223,142,231,216,62,465,592,516,266
17:37:30.160228,160228,177,282,150,51,468,451,656,343
17:37:30.160228,160228,190,307,131,42,483,548,738,341
17:37:30.160228,160228,191,322,114,42,448,515,837,361
17:37:30.160228,160228,291,299,115,57,361,456,909,401
17:37:30.161223,161223,291,299,115,57,361,456,909,401
17:37:30.162225,162225,291,299,115,57,361,456,909,401
17:37:30.163197,163197,291,299,115,57,361,456,909,401
17:37:30.164230,164230,291,299,115,57,361,456,909,401
17:37:30.165223,165223,291,299,115,57,361,456,909,401
17:37:30.166222,166222,291,299,115,57,361,456,909,401
17:37:30.167229,167229,291,299,115,57,361,456,909,401
17:37:30.168223,168223,291,299,115,57,361,456,909,401
17:37:30.169223,169223,291,299,115,57,361,456,909,401
17:37:30.170223,170223,291,299,115,57,361,456,909,401
17:37:30.171223,171223,291,299,115,57,361,456,909,401
17:37:30.172224,172224,291,299,115,57,361,456,909,401
17:37:30.173231,173231,291,299,115,57,361,456,909,401
17:37:30.174223,174223,291,299,115,57,361,456,909,401
17:37:30.175198,175198,291,299,115,57,361,456,909,401
17:37:30.176197,176197,291,299,115,57,361,456,909,401
17:37:30.176197,176197,477,280,103,82,456,617,1000,502
17:37:30.177216,177216,477,280,103,82,456,617,1000,502
17:37:30.178196,178196,477,280,103,82,456,617,1000,502
17:37:30.179217,179217,477,280,103,82,456,617,1000,502
17:37:30.180198,180198,477,280,103,82,456,617,1000,502
17:37:30.181230,181230,477,280,103,82,456,617,1000,502
17:37:30.182225,182225,477,280,103,82,456,617,1000,502
17:37:30.183197,183197,477,280,103,82,456,617,1000,502
17:37:30.184223,184223,477,280,103,82,456,617,1000,502
17:37:30.185222,185222,477,280,103,82,456,617,1000,502
17:37:30.186223,186223,477,280,103,82,456,617,1000,502
17:37:30.187224,187224,477,280,103,82,456,617,1000,502
17:37:30.188224,188224,477,280,103,82,456,617,1000,502
17:37:30.189222,189222,477,280,103,82,456,617,1000,502
17:37:30.190225,190225,477,280,103,82,456,617,1000,502
17:37:30.191198,191198,477,280,103,82,456,617,1000,502
17:37:30.192198,192198,477,280,103,82,456,617,1000,502
17:37:30.192198,192198,465,297,88,76,479,563,932,499
17:37:30.192198,192198,678,262,82,111,389,656,912,459
17:37:30.193225,193225,678,262,82,111,389,656,912,459
17:37:30.194220,194220,678,262,82,111,389,656,912,459
17:37:30.195228,195228,678,262,82,111,389,656,912,459
17:37:30.196195,196195,678,262,82,111,389,656,912,459
17:37:30.197198,197198,678,262,82,111,389,656,912,459
17:37:30.198197,198197,678,262,82,111,389,656,912,459
17:37:30.199223,199223,678,262,82,111,389,656,912,459
17:37:30.200198,200198,678,262,82,111,389,656,912,459
17:37:30.201197,201197,909,252,77,115,658,813,659,615
17:37:30.202199,202199,909,252,77,115,658,813,659,615
17:37:30.203196,203196,909,252,77,115,658,813,659,615
17:37:30.204195,204195,909,252,77,115,658,813,659,615
17:37:30.205198,205198,909,252,77,115,658,813,659,615
17:37:30.206222,206222,909,252,77,115,658,813,659,615
17:37:30.207223,207223,909,252,77,115,658,813,659,615
17:37:30.208225,208225,909,252,77,115,658,813,659,615
17:37:30.208467,208467,909,252,77,115,658,813,659,615
17:37:30.209197,209197,909,252,77,115,658,813,659,615
17:37:30.210197,210197,909,252,77,115,658,813,659,615
17:37:30.211198,211198,909,252,77,115,658,813,659,615
17:37:30.211876,211876,909,252,77,115,658,813,659,615
17:37:30.212872,212872,909,252,77,115,658,813,659,615
17:37:30.213874,213874,909,252,77,115,658,813,659,615
17:37:30.214872,214872,909,252,77,115,658,813,659,615
17:37:30.215874,215874,909,252,77,115,658,813,659,615
17:37:30.216875,216875,909,252,77,115,658,813,659,615
17:37:30.217875,217875,909,252,77,115,658,813,659,615
17:37:30.218874,218874,909,252,77,115,658,813,659,615
17:37:30.219874,219874,909,252,77,115,658,813,659,615
17:37:30.220872,220872,909,252,77,115,658,813,659,615
17:37:30.221872,221872,909,252,77,115,658,813,659,615
17:37:30.222875,222875,909,252,77,115,658,813,659,615
17:37:30.223874,223874,909,252,77,115,658,813,659,615
17:37:30.223874,223874,842,326,60,136,766,787,578,702
17:37:30.224875,224875,842,326,60,136,766,787,578,702
17:37:30.225874,225874,842,326,60,136,766,787,578,702
17:37:30.226874,226874,842,326,60,136,766,787,578,702
17:37:30.227874,227874,842,326,60,136,766,787,578,702
17:37:30.228874,228874,842,326,60,136,766,787,578,702
17:37:30.229875,229875,842,326,60,136,766,787,578,702
17:37:30.230875,230875,842,326,60,136,766,787,578,702
17:37:30.231874,231874,842,326,60,136,766,787,578,702
17:37:30.232875,232875,842,326,60,136,766,787,578,702
17:37:30.233874,233874,842,326,60,136,766,787,578,702
17:37:30.234875,234875,842,326,60,136,766,787,578,702
17:37:30.235874,235874,842,326,60,136,766,787,578,702
17:37:30.236874,236874,842,326,60,136,766,787,578,702
17:37:30.237874,237874,842,326,60,136,766,787,578,702
17:37:30.238874,238874,842,326,60,136,766,787,578,702
17:37:30.239874,239874,842,326,60,136,766,787,578,702
17:37:30.239874,239874,895,588,54,284,935,847,535,743
17:37:30.240875,240875,895,588,54,284,935,847,535,743
17:37:30.241874,241874,895,588,54,284,935,847,535,743
17:37:30.242874,242874,895,588,54,284,935,847,535,743
17:37:30.243874,243874,895,588,54,284,935,847,535,743
17:37:30.244874,244874,895,588,54,284,935,847,535,743
17:37:30.245874,245874,895,588,54,284,935,847,535,743
17:37:30.246874,246874,895,588,54,284,935,847,535,743
17:37:30.247875,247875,895,588,54,284,935,847,535,743
17:37:30.248875,248875,895,588,54,284,935,847,535,743
17:37:30.249874,249874,895,588,54,284,935,847,535,743
17:37:30.250872,250872,895,588,54,284,935,847,535,743
17:37:30.251875,251875,895,588,54,284,935,847,535,743
17:37:30.252874,252874,895,588,54,284,935,847,535,743
17:37:30.253874,253874,895,588,54,284,935,847,535,743
17:37:30.254874,254874,813,779,51,403,888,879,638,871
17:37:30.255875,255875,813,779,51,403,888,879,638,871
17:37:30.256874,256874,813,779,51,403,888,879,638,871
17:37:30.257874,257874,813,779,51,403,888,879,638,871
17:37:30.258874,258874,813,779,51,403,888,879,638,871
17:37:30.259874,259874,813,779,51,403,888,879,638,871
17:37:30.260874,260874,813,779,51,403,888,879,638,871
17:37:30.261874,261874,813,779,51,403,888,879,638,871
17:37:30.262874,262874,813,779,51,403,888,879,638,871
17:37:30.263875,263875,813,779,51,403,888,879,638,871
17:37:30.264875,264875,813,779,51,403,888,879,638,871
17:37:30.265874,265874,813,779,51,403,888,879,638,871
17:37:30.266875,266875,813,779,51,403,888,879,638,871
17:37:30.267874,267874,813,779,51,403,888,879,638,871
17:37:30.268874,268874,813,779,51,403,888,879,638,871
17:37:30.269874,269874,813,779,51,403,888,879,638,871
17:37:30.270874,270874,813,779,51,403,888,879,638,871
17:37:30.270874,270874,820,836,57,585,904,803,695,827
17:37:30.270874,270874,799,861,60,649,856,814,632,781
17:37:30.271872,271872,799,861,60,649,856,814,632,781
17:37:30.272871,272871,799,861,60,649,856,814,632,781
17:37:30.273871,273871,799,861,60,649,856,814,632,781
17:37:30.274871,274871,799,861,60,649,856,814,632,781
17:37:30.275871,275871,799,861,60,649,856,814,632,781
17:37:30.276871,276871,799,861,60,649,856,814,632,781
17:37:30.277871,277871,799,861,60,649,856,814,632,781
17:37:30.278871,278871,799,861,60,649,856,814,632,781
17:37:30.279871,279871,799,861,60,649,856,814,632,781
17:37:30.280871,280871,799,861,60,649,856,814,632,781
17:37:30.281871,281871,799,861,60,649,856,814,632,781
17:37:30.282871,282871,799,861,60,649,856,814,632,781
17:37:30.283871,283871,799,861,60,649,856,814,632,781
17:37:30.284871,284871,799,861,60,649,856,814,632,781
17:37:30.285871,285871,799,861,60,649,856,814,632,781
17:37:30.285871,285871,771,837,65,677,822,711,570,727
17:37:30.286913,286913,771,837,65,677,822,711,570,727
17:37:30.287876,287876,771,837,65,677,822,711,570,727
17:37:30.288912,288912,771,837,65,677,822,711,570,727
17:37:30.289874,289874,771,837,65,677,822,711,570,727
17:37:30.290874,290874,771,837,65,677,822,711,570,727
17:37:30.291875,291875,771,837,65,677,822,711,570,727
17:37:30.292909,292909,771,837,65,677,822,711,570,727
17:37:30.293910,293910,771,837,65,677,822,711,570,727
17:37:30.294909,294909,771,837,65,677,822,711,570,727
17:37:30.295872,295872,771,837,65,677,822,711,570,727
17:37:30.296874,296874,771,837,65,677,822,711,570,727
17:37:30.297874,297874,771,837,65,677,822,711,570,727
17:37:30.298911,298911,771,837,65,677,822,711,570,727
17:37:30.299875,299875,771,837,65,677,822,711,570,727
17:37:30.300910,300910,771,837,65,677,822,711,570,727
17:37:30.301874,301874,771,837,65,677,822,711,570,727
17:37:30.301874,301874,679,816,93,604,647,546,678,696
17:37:30.302874,302874,679,816,93,604,647,546,678,696
17:37:30.303874,303874,679,816,93,604,647,546,678,696
17:37:30.304874,304874,679,816,93,604,647,546,678,696
17:37:30.305874,305874,679,816,93,604,647,546,678,696
17:37:30.306874,306874,679,816,93,604,647,546,678,696
17:37:30.307874,307874,679,816,93,604,647,546,678,696
17:37:30.308877,308877,679,816,93,604,647,546,678,696
17:37:30.309876,309876,679,816,93,604,647,546,678,696
17:37:30.310872,310872,679,816,93,604,647,546,678,696
17:37:30.311877,311877,679,816,93,604,647,546,678,696
17:37:30.312876,312876,679,816,93,604,647,546,678,696
17:37:30.313877,313877,679,816,93,604,647,546,678,696
17:37:30.314876,314876,679,816,93,604,647,546,678,696
17:37:30.315876,315876,679,816,93,604,647,546,678,696
17:37:30.316876,316876,679,816,93,604,647,546,678,696
17:37:30.317876,317876,679,816,93,604,647,546,678,696
17:37:30.317876,317876,792,735,214,381,284,521,694,518
17:37:30.318436,318436,792,699,324,303,343,532,714,549
17:37:30.318875,318875,792,699,324,303,343,532,714,549
17:37:30.319874,319874,792,699,324,303,343,532,714,549
17:37:30.320881,320881,792,699,324,303,343,532,714,549
17:37:30.321435,321435,792,699,324,303,343,532,714,549
17:37:30.321990,321990,792,699,324,303,343,532,714,549
17:37:30.322535,322535,792,699,324,303,343,532,714,549
17:37:30.322627,322627,792,699,324,303,343,532,714,549
17:37:30.323587,323587,792,699,324,303,343,532,714,549
17:37:30.324584,324584,792,699,324,303,343,532,714,549
17:37:30.325094,325094,792,699,324,303,343,532,714,549
17:37:30.326104,326104,792,699,324,303,343,532,714,549
17:37:30.327141,327141,792,699,324,303,343,532,714,549
17:37:30.328139,328139,792,699,324,303,343,532,714,549
17:37:30.329131,329131,792,699,324,303,343,532,714,549
17:37:30.330104,330104,792,699,324,303,343,532,714,549
17:37:30.331146,331146,792,699,324,303,343,532,714,549
17:37:30.332140,332140,792,699,324,303,343,532,714,549
17:37:30.333144,333144,792,699,324,303,343,532,714,549
17:37:30.333144,333144,707,729,393,246,347,560,835,627
17:37:30.334104,334104,707,729,393,246,347,560,835,627
17:37:30.335139,335139,707,729,393,246,347,560,835,627
17:37:30.336149,336149,707,729,393,246,347,560,835,627
17:37:30.337155,337155,707,729,393,246,347,560,835,627
17:37:30.338140,338140,707,729,393,246,347,560,835,627
17:37:30.339154,339154,707,729,393,246,347,560,835,627
17:37:30.340158,340158,707,729,393,246,347,560,835,627
17:37:30.341143,341143,707,729,393,246,347,560,835,627
17:37:30.342105,342105,707,729,393,246,347,560,835,627
17:37:30.343143,343143,707,729,393,246,347,560,835,627
17:37:30.344146,344146,707,729,393,246,347,560,835,627
17:37:30.345140,345140,707,729,393,246,347,560,835,627
17:37:30.346102,346102,707,729,393,246,347,560,835,627
17:37:30.347151,347151,707,729,393,246,347,560,835,627
17:37:30.348150,348150,707,729,393,246,347,560,835,627
17:37:30.349151,349151,707,729,393,246,347,560,835,627
17:37:30.349151,349151,483,652,817,451,370,595,609,652
17:37:30.350104,350104,483,652,817,451,370,595,609,652
17:37:30.351139,351139,483,652,817,451,370,595,609,652
17:37:30.352139,352139,483,652,817,451,370,595,609,652
17:37:30.353139,353139,483,652,817,451,370,595,609,652
17:37:30.354139,354139,483,652,817,451,370,595,609,652
17:37:30.355104,355104,483,652,817,451,370,595,609,652
17:37:30.356102,356102,483,652,817,451,370,595,609,652
17:37:30.357142,357142,483,652,817,451,370,595,609,652
17:37:30.358139,358139,483,652,817,451,370,595,609,652
17:37:30.359139,359139,483,652,817,451,370,595,609,652
17:37:30.360139,360139,483,652,817,451,370,595,609,652
17:37:30.361141,361141,483,652,817,451,370,595,609,652
17:37:30.362139,362139,483,652,817,451,370,595,609,652
17:37:30.363139,363139,483,652,817,451,370,595,609,652
17:37:30.364142,364142,483,652,817,451,370,595,609,652
17:37:30.365139,365139,483,652,817,451,370,595,609,652
17:37:30.365139,365139,376,525,689,383,310,558,472,632
17:37:30.366150,366150,376,525,689,383,310,558,472,632
17:37:30.367141,367141,376,525,689,383,310,558,472,632
17:37:30.368137,368137,376,525,689,383,310,558,472,632
17:37:30.369139,369139,376,525,689,383,310,558,472,632
17:37:30.370139,370139,376,525,689,383,310,558,472,632
17:37:30.371103,371103,376,525,689,383,310,558,472,632
17:37:30.372139,372139,376,525,689,383,310,558,472,632
17:37:30.373140,373140,376,525,689,383,310,558,472,632
17:37:30.374140,374140,376,525,689,383,310,558,472,632
17:37:30.375104,375104,376,525,689,383,310,558,472,632
17:37:30.376139,376139,376,525,689,383,310,558,472,632
17:37:30.377146,377146,376,525,689,383,310,558,472,632
17:37:30.378142,378142,376,525,689,383,310,558,472,632
17:37:30.379142,379142,376,525,689,383,310,558,472,632
17:37:30.380140,380140,376,525,689,383,310,558,472,632
17:37:30.381145,381145,376,525,689,383,310,558,472,632
17:37:30.381145,381145,361,470,635,375,306,658,379,653
17:37:30.382104,382104,361,470,635,375,306,658,379,653
17:37:30.383101,383101,361,470,635,375,306,658,379,653
17:37:30.384101,384101,361,470,635,375,306,658,379,653
17:37:30.385101,385101,361,470,635,375,306,658,379,653
17:37:30.386101,386101,361,470,635,375,306,658,379,653
17:37:30.387100,387100,361,470,635,375,306,658,379,653
17:37:30.388101,388101,361,470,635,375,306,658,379,653
17:37:30.389100,389100,361,470,635,375,306,658,379,653
17:37:30.390100,390100,361,470,635,375,306,658,379,653
17:37:30.391100,391100,361,470,635,375,306,658,379,653
17:37:30.392101,392101,361,470,635,375,306,658,379,653
17:37:30.393100,393100,361,470,635,375,306,658,379,653
17:37:30.394100,394100,361,470,635,375,306,658,379,653
17:37:30.395100,395100,361,470,635,375,306,658,379,653
17:37:30.396101,396101,361,470,635,375,306,658,379,653
17:37:30.397101,397101,361,470,635,375,306,658,379,653
17:37:30.397101,397101,267,182,306,217,190,809,173,800
17:37:30.398101,398101,267,182,306,217,190,809,173,800
17:37:30.399101,399101,267,182,306,217,190,809,173,800
17:37:30.400101,400101,267,182,306,217,190,809,173,800
17:37:30.401100,401100,267,182,306,217,190,809,173,800
17:37:30.402101,402101,267,182,306,217,190,809,173,800
17:37:30.403101,403101,267,182,306,217,190,809,173,800
17:37:30.404100,404100,267,182,306,217,190,809,173,800
17:37:30.405101,405101,267,182,306,217,190,809,173,800
17:37:30.406101,406101,267,182,306,217,190,809,173,800
17:37:30.407100,407100,267,182,306,217,190,809,173,800
17:37:30.408100,408100,267,182,306,217,190,809,173,800
17:37:30.409100,409100,267,182,306,217,190,809,173,800
17:37:30.410100,410100,267,182,306,217,190,809,173,800
17:37:30.411100,411100,267,182,306,217,190,809,173,800
17:37:30.412100,412100,267,182,306,217,190,809,173,800
17:37:30.413101,413101,267,182,306,217,190,809,173,800
17:37:30.413101,413101,230,166,284,140,148,674,167,916
17:37:30.413101,413101,235,244,234,153,135,654,142,859
17:37:30.413101,413101,200,304,200,152,130,661,123,904
17:37:30.414101,414101,200,304,200,152,130,661,123,904
17:37:30.415105,415105,200,304,200,152,130,661,123,904
17:37:30.416102,416102,200,304,200,152,130,661,123,904
17:37:30.417139,417139,200,304,200,152,130,661,123,904
17:37:30.418144,418144,200,304,200,152,130,661,123,904
17:37:30.419138,419138,200,304,200,152,130,661,123,904
17:37:30.420137,420137,200,304,200,152,130,661,123,904
17:37:30.421104,421104,200,304,200,152,130,661,123,904
17:37:30.422138,422138,200,304,200,152,130,661,123,904
17:37:30.423137,423137,200,304,200,152,130,661,123,904
17:37:30.424103,424103,200,304,200,152,130,661,123,904
17:37:30.425103,425103,200,304,200,152,130,661,123,904
17:37:30.426137,426137,200,304,200,152,130,661,123,904
17:37:30.427137,427137,200,304,200,152,130,661,123,904
17:37:30.428137,428137,200,304,200,152,130,661,123,904
17:37:30.429138,429138,200,304,200,152,130,661,123,904
17:37:30.429138,429138,201,319,179,136,130,615,136,842
17:37:30.430103,430103,201,319,179,136,130,615,136,842
17:37:30.431102,431102,201,319,179,136,130,615,136,842
17:37:30.432140,432140,201,319,179,136,130,615,136,842
17:37:30.433137,433137,201,319,179,136,130,615,136,842
17:37:30.434142,434142,201,319,179,136,130,615,136,842
17:37:30.435137,435137,201,319,179,136,130,615,136,842
17:37:30.436137,436137,201,319,179,136,130,615,136,842
17:37:30.437137,437137,201,319,179,136,130,615,136,842
17:37:30.438137,438137,201,319,179,136,130,615,136,842
17:37:30.439104,439104,201,319,179,136,130,615,136,842
17:37:30.439104,439104,193,597,220,124,141,266,116,564
17:37:30.440102,440102,193,597,220,124,141,266,116,564
17:37:30.441102,441102,193,597,220,124,141,266,116,564
17:37:30.442102,442102,193,597,220,124,141,266,116,564
17:37:30.443102,443102,193,597,220,124,141,266,116,564
17:37:30.444102,444102,193,597,220,124,141,266,116,564
17:37:30.445102,445102,193,597,220,124,141,266,116,564
17:37:30.446103,446103,193,597,220,124,141,266,116,564
17:37:30.447103,447103,193,597,220,124,141,266,116,564
17:37:30.448140,448140,193,597,220,124,141,266,116,564
17:37:30.449104,449104,193,597,220,124,141,266,116,564
17:37:30.450103,450103,193,597,220,124,141,266,116,564
17:37:30.451104,451104,193,597,220,124,141,266,116,564
17:37:30.452103,452103,193,597,220,124,141,266,116,564
17:37:30.453129,453129,193,597,220,124,141,266,116,564
17:37:30.454129,454129,193,597,220,124,141,266,116,564
17:37:30.455130,455130,193,597,220,124,141,266,116,564
17:37:30.456127,456127,193,597,220,124,141,266,116,564
17:37:30.457102,457102,193,597,220,124,141,266,116,564
17:37:30.458129,458129,193,597,220,124,141,266,116,564
17:37:30.459128,459128,193,597,220,124,141,266,116,564
17:37:30.460126,460126,193,597,220,124,141,266,116,564
17:37:30.461127,461127,193,597,220,124,141,266,116,564
17:37:30.461127,461127,277,626,320,124,259,364,105,413
17:37:30.462104,462104,277,626,320,124,259,364,105,413
17:37:30.463104,463104,277,626,320,124,259,364,105,413
17:37:30.464104,464104,277,626,320,124,259,364,105,413
17:37:30.465122,465122,277,626,320,124,259,364,105,413
17:37:30.466129,466129,277,626,320,124,259,364,105,413
17:37:30.467128,467128,277,626,320,124,259,364,105,413
17:37:30.468150,468150,277,626,320,124,259,364,105,413
17:37:30.469131,469131,277,626,320,124,259,364,105,413
17:37:30.470127,470127,277,626,320,124,259,364,105,413
17:37:30.471105,471105,277,626,320,124,259,364,105,413
17:37:30.472128,472128,277,626,320,124,259,364,105,413
17:37:30.473128,473128,277,626,320,124,259,364,105,413
17:37:30.474128,474128,277,626,320,124,259,364,105,413
17:37:30.475103,475103,277,626,320,124,259,364,105,413
17:37:30.476103,476103,277,626,320,124,259,364,105,413
17:37:30.477141,477141,277,626,320,124,259,364,105,413
17:37:30.477141,477141,287,609,420,119,357,475,102,364
17:37:30.478134,478134,287,609,420,119,357,475,102,364
17:37:30.479103,479103,287,609,420,119,357,475,102,364
17:37:30.480144,480144,287,609,420,119,357,475,102,364
17:37:30.481140,481140,287,609,420,119,357,475,102,364
17:37:30.482148,482148,287,609,420,119,357,475,102,364
17:37:30.483141,483141,287,609,420,119,357,475,102,364
17:37:30.484140,484140,287,609,420,119,357,475,102,364
17:37:30.485142,485142,287,609,420,119,357,475,102,364
17:37:30.486139,486139,287,609,420,119,357,475,102,364
17:37:30.487140,487140,287,609,420,119,357,475,102,364
17:37:30.488135,488135,287,609,420,119,357,475,102,364
17:37:30.489142,489142,287,609,420,119,357,475,102,364
17:37:30.490139,490139,287,609,420,119,357,475,102,364
17:37:30.491108,491108,287,609,420,119,357,475,102,364
17:37:30.492140,492140,287,609,420,119,357,475,102,364
17:37:30.493140,493140,287,609,420,119,357,475,102,364
17:37:30.493140,493140,302,548,512,142,389,566,101,288
17:37:30.494105,494105,302,548,512,142,389,566,101,288
17:37:30.495140,495140,302,548,512,142,389,566,101,288
17:37:30.496103,496103,302,548,512,142,389,566,101,288
17:37:30.497141,497141,302,548,512,142,389,566,101,288
17:37:30.498149,498149,302,548,512,142,389,566,101,288
17:37:30.499102,499102,302,548,512,142,389,566,101,288
17:37:30.500106,500106,302,548,512,142,389,566,101,288
17:37:30.501140,501140,302,548,512,142,389,566,101,288
17:37:30.502140,502140,302,548,512,142,389,566,101,288
17:37:30.503137,503137,302,548,512,142,389,566,101,288
17:37:30.504140,504140,302,548,512,142,389,566,101,288
17:37:30.505143,505143,302,548,512,142,389,566,101,288
17:37:30.506104,506104,302,548,512,142,389,566,101,288
17:37:30.507139,507139,302,548,512,142,389,566,101,288
17:37:30.508140,508140,302,548,512,142,389,566,101,288
17:37:30.509139,509139,302,548,512,142,389,566,101,288
17:37:30.509139,509139,323,773,656,117,422,974,63,277
17:37:30.510140,510140,323,773,656,117,422,974,63,277
17:37:30.511140,511140,323,773,656,117,422,974,63,277
17:37:30.512142,512142,323,773,656,117,422,974,63,277
17:37:30.513105,513105,323,773,656,117,422,974,63,277
17:37:30.514105,514105,323,773,656,117,422,974,63,277
17:37:30.515140,515140,323,773,656,117,422,974,63,277
17:37:30.516140,516140,323,773,656,117,422,974,63,277
17:37:30.517142,517142,323,773,656,117,422,974,63,277
17:37:30.518139,518139,323,773,656,117,422,974,63,277
17:37:30.519142,519142,323,773,656,117,422,974,63,277
17:37:30.520142,520142,323,773,656,117,422,974,63,277
17:37:30.521106,521106,323,773,656,117,422,974,63,277
17:37:30.522105,522105,323,773,656,117,422,974,63,277
17:37:30.523140,523140,323,773,656,117,422,974,63,277
17:37:30.524140,524140,323,773,656,117,422,974,63,277
17:37:30.525106,525106,323,773,656,117,422,974,63,277
17:37:30.525350,525350,235,861,613,99,366,887,50,384
17:37:30.525350,525350,247,964,586,87,350,845,49,393
17:37:30.526139,526139,247,964,586,87,350,845,49,393
17:37:30.527140,527140,247,964,586,87,350,845,49,393
17:37:30.528394,528394,247,964,586,87,350,845,49,393
17:37:30.528419,528419,247,964,586,87,350,845,49,393
17:37:30.529403,529403,247,964,586,87,350,845,49,393
17:37:30.530444,530444,247,964,586,87,350,845,49,393
17:37:30.531441,531441,247,964,586,87,350,845,49,393
17:37:30.532441,532441,247,964,586,87,350,845,49,393
17:37:30.533402,533402,247,964,586,87,350,845,49,393
17:37:30.534452,534452,247,964,586,87,350,845,49,393
17:37:30.535451,535451,247,964,586,87,350,845,49,393
17:37:30.536406,536406,247,964,586,87,350,845,49,393
17:37:30.537451,537451,247,964,586,87,350,845,49,393
17:37:30.538454,538454,247,964,586,87,350,845,49,393
17:37:30.539441,539441,247,964,586,87,350,845,49,393
17:37:30.540443,540443,247,964,586,87,350,845,49,393
17:37:30.540443,540443,227,699,481,84,220,552,38,365
17:37:30.541441,541441,227,699,481,84,220,552,38,365
17:37:30.542440,542440,227,699,481,84,220,552,38,365
17:37:30.543402,543402,227,699,481,84,220,552,38,365
17:37:30.544443,544443,227,699,481,84,220,552,38,365
17:37:30.545441,545441,227,699,481,84,220,552,38,365
17:37:30.546405,546405,227,699,481,84,220,552,38,365
17:37:30.547441,547441,227,699,481,84,220,552,38,365
17:37:30.548440,548440,227,699,481,84,220,552,38,365
17:37:30.549441,549441,227,699,481,84,220,552,38,365
17:37:30.550441,550441,227,699,481,84,220,552,38,365
17:37:30.551441,551441,227,699,481,84,220,552,38,365
17:37:30.552440,552440,227,699,481,84,220,552,38,365
17:37:30.553444,553444,227,699,481,84,220,552,38,365
17:37:30.554406,554406,227,699,481,84,220,552,38,365
17:37:30.555440,555440,227,699,481,84,220,552,38,365
17:37:30.556440,556440,227,699,481,84,220,552,38,365
17:37:30.556440,556440,193,596,529,73,244,439,35,369
17:37:30.556440,556440,180,509,507,70,196,395,25,330
17:37:30.557406,557406,180,509,507,70,196,395,25,330
17:37:30.558402,558402,180,509,507,70,196,395,25,330
17:37:30.559440,559440,180,509,507,70,196,395,25,330
17:37:30.560442,560442,180,509,507,70,196,395,25,330
17:37:30.561440,561440,180,509,507,70,196,395,25,330
17:37:30.562442,562442,180,509,507,70,196,395,25,330
17:37:30.563406,563406,180,509,507,70,196,395,25,330
17:37:30.564440,564440,180,509,507,70,196,395,25,330
17:37:30.565441,565441,180,509,507,70,196,395,25,330
17:37:30.566405,566405,180,509,507,70,196,395,25,330
17:37:30.567441,567441,180,509,507,70,196,395,25,330
17:37:30.568406,568406,180,509,507,70,196,395,25,330
17:37:30.569442,569442,180,509,507,70,196,395,25,330
17:37:30.570404,570404,180,509,507,70,196,395,25,330
17:37:30.571440,571440,180,509,507,70,196,395,25,330
17:37:30.572440,572440,180,509,507,70,196,395,25,330
17:37:30.572440,572440,159,324,438,66,143,288,29,228
17:37:30.573405,573405,159,324,438,66,143,288,29,228
17:37:30.574453,574453,159,324,438,66,143,288,29,228
17:37:30.575440,575440,159,324,438,66,143,288,29,228
17:37:30.576442,576442,159,324,438,66,143,288,29,228
17:37:30.577440,577440,159,324,438,66,143,288,29,228
17:37:30.578440,578440,159,324,438,66,143,288,29,228
17:37:30.579403,579403,159,324,438,66,143,288,29,228
17:37:30.580456,580456,159,324,438,66,143,288,29,228
17:37:30.581440,581440,159,324,438,66,143,288,29,228
17:37:30.582402,582402,159,324,438,66,143,288,29,228
17:37:30.583416,583416,159,324,438,66,143,288,29,228
17:37:30.584451,584451,159,324,438,66,143,288,29,228
17:37:30.585451,585451,159,324,438,66,143,288,29,228
17:37:30.586451,586451,159,324,438,66,143,288,29,228
17:37:30.587451,587451,159,324,438,66,143,288,29,228
17:37:30.588440,588440,159,324,438,66,143,288,29,228
17:37:30.588440,588440,468,108,506,40,121,156,40,175
17:37:30.589440,589440,468,108,506,40,121,156,40,175
17:37:30.590442,590442,468,108,506,40,121,156,40,175
17:37:30.591405,591405,468,108,506,40,121,156,40,175
17:37:30.592444,592444,468,108,506,40,121,156,40,175
17:37:30.593442,593442,468,108,506,40,121,156,40,175
17:37:30.594443,594443,468,108,506,40,121,156,40,175
17:37:30.595452,595452,468,108,506,40,121,156,40,175
17:37:30.596405,596405,468,108,506,40,121,156,40,175
17:37:30.597452,597452,468,108,506,40,121,156,40,175
17:37:30.598452,598452,468,108,506,40,121,156,40,175
17:37:30.599451,599451,468,108,506,40,121,156,40,175
17:37:30.600441,600441,468,108,506,40,121,156,40,175
17:37:30.601443,601443,468,108,506,40,121,156,40,175
17:37:30.602440,602440,468,108,506,40,121,156,40,175
17:37:30.603456,603456,468,108,506,40,121,156,40,175
17:37:30.604404,604404,468,108,506,40,121,156,40,175
17:37:30.604404,604404,885,334,591,62,111,88,41,196
17:37:30.605405,605405,885,334,591,62,111,88,41,196
17:37:30.606446,606446,885,334,591,62,111,88,41,196
17:37:30.607441,607441,885,334,591,62,111,88,41,196
17:37:30.608406,608406,885,334,591,62,111,88,41,196
17:37:30.609451,609451,885,334,591,62,111,88,41,196
17:37:30.610405,610405,885,334,591,62,111,88,41,196
17:37:30.611406,611406,885,334,591,62,111,88,41,196
17:37:30.612451,612451,885,334,591,62,111,88,41,196
17:37:30.613442,613442,885,334,591,62,111,88,41,196
17:37:30.614451,614451,885,334,591,62,111,88,41,196
17:37:30.615456,615456,885,334,591,62,111,88,41,196
17:37:30.616402,616402,885,334,591,62,111,88,41,196
17:37:30.617443,617443,885,334,591,62,111,88,41,196
17:37:30.618403,618403,885,334,591,62,111,88,41,196
17:37:30.619450,619450,885,334,591,62,111,88,41,196
17:37:30.620451,620451,885,334,591,62,111,88,41,196
17:37:30.620451,620451,927,435,686,59,113,53,43,184
17:37:30.621445,621445,927,435,686,59,113,53,43,184
17:37:30.622453,622453,927,435,686,59,113,53,43,184
17:37:30.623440,623440,927,435,686,59,113,53,43,184
17:37:30.624443,624443,927,435,686,59,113,53,43,184
17:37:30.625405,625405,927,435,686,59,113,53,43,184
17:37:30.626405,626405,927,435,686,59,113,53,43,184
17:37:30.627440,627440,927,435,686,59,113,53,43,184
17:37:30.628403,628403,927,435,686,59,113,53,43,184
17:37:30.629403,629403,927,435,686,59,113,53,43,184
17:37:30.630441,630441,927,435,686,59,113,53,43,184
17:37:30.631445,631445,927,435,686,59,113,53,43,184
17:37:30.632423,632423,927,435,686,59,113,53,43,184
17:37:30.633404,633404,927,435,686,59,113,53,43,184
17:37:30.634440,634440,927,435,686,59,113,53,43,184
17:37:30.635406,635406,927,435,686,59,113,53,43,184
17:37:30.635406,635406,933,508,566,63,128,42,34,228
17:37:30.636451,636451,933,508,566,63,128,42,34,228
17:37:30.637440,637440,933,508,566,63,128,42,34,228
17:37:30.638442,638442,933,508,566,63,128,42,34,228
17:37:30.639440,639440,933,508,566,63,128,42,34,228
17:37:30.640443,640443,933,508,566,63,128,42,34,228
17:37:30.641440,641440,933,508,566,63,128,42,34,228
17:37:30.642402,642402,933,508,566,63,128,42,34,228
17:37:30.643440,643440,933,508,566,63,128,42,34,228
17:37:30.644442,644442,933,508,566,63,128,42,34,228
17:37:30.645444,645444,933,508,566,63,128,42,34,228
17:37:30.646451,646451,933,508,566,63,128,42,34,228
17:37:30.647456,647456,933,508,566,63,128,42,34,228
17:37:30.648405,648405,933,508,566,63,128,42,34,228
17:37:30.649452,649452,933,508,566,63,128,42,34,228
17:37:30.650441,650441,933,508,566,63,128,42,34,228
17:37:30.651440,651440,933,508,566,63,128,42,34,228
17:37:30.651440,651440,707,289,515,42,365,45,41,372
17:37:30.652440,652440,707,289,515,42,365,45,41,372
17:37:30.653441,653441,707,289,515,42,365,45,41,372
17:37:30.654406,654406,707,289,515,42,365,45,41,372
17:37:30.655440,655440,707,289,515,42,365,45,41,372
17:37:30.656406,656406,707,289,515,42,365,45,41,372
17:37:30.657441,657441,707,289,515,42,365,45,41,372
17:37:30.658406,658406,707,289,515,42,365,45,41,372
17:37:30.659440,659440,707,289,515,42,365,45,41,372
17:37:30.660440,660440,707,289,515,42,365,45,41,372
17:37:30.661440,661440,707,289,515,42,365,45,41,372
17:37:30.662441,662441,707,289,515,42,365,45,41,372
17:37:30.663406,663406,707,289,515,42,365,45,41,372
17:37:30.664403,664403,707,289,515,42,365,45,41,372
17:37:30.665405,665405,707,289,515,42,365,45,41,372
17:37:30.666439,666439,707,289,515,42,365,45,41,372
17:37:30.667440,667440,707,289,515,42,365,45,41,372
17:37:30.668408,668408,707,289,515,42,365,45,41,372
17:37:30.669440,669440,707,289,515,42,365,45,41,372
17:37:30.670404,670404,707,289,515,42,365,45,41,372
17:37:30.671441,671441,707,289,515,42,365,45,41,372
17:37:30.672442,672442,707,289,515,42,365,45,41,372
17:37:30.673406,673406,767,505,498,77,610,380,44,479
17:37:30.674442,674442,767,505,498,77,610,380,44,479
17:37:30.675440,675440,767,505,498,77,610,380,44,479
17:37:30.676449,676449,767,505,498,77,610,380,44,479
17:37:30.677440,677440,767,505,498,77,610,380,44,479
17:37:30.678405,678405,767,505,498,77,610,380,44,479
17:37:30.679403,679403,767,505,498,77,610,380,44,479
17:37:30.680406,680406,767,505,498,77,610,380,44,479
17:37:30.681443,681443,767,505,498,77,610,380,44,479
17:37:30.682402,682402,767,505,498,77,610,380,44,479
17:37:30.683403,683403,767,505,498,77,610,380,44,479
17:37:30.684406,684406,767,505,498,77,610,380,44,479
17:37:30.685442,685442,767,505,498,77,610,380,44,479
17:37:30.686406,686406,767,505,498,77,610,380,44,479
17:37:30.687440,687440,767,505,498,77,610,380,44,479
17:37:30.688442,688442,767,505,498,77,610,380,44,479
17:37:30.689442,689442,767,505,498,77,610,380,44,479
17:37:30.690443,690443,767,505,498,77,610,380,44,479
17:37:30.691440,691440,767,505,498,77,610,380,44,479
17:37:30.692440,692440,767,505,498,77,610,380,44,479
17:37:30.693405,693405,767,505,498,77,610,380,44,479
17:37:30.694441,694441,767,505,498,77,610,380,44,479
17:37:30.695445,695445,767,505,498,77,610,380,44,479
17:37:30.696405,696405,767,505,498,77,610,380,44,479
17:37:30.697406,697406,767,505,498,77,610,380,44,479
17:37:30.698446,698446,767,505,498,77,610,380,44,479
17:37:30.698446,698446,816,695,590,233,841,703,85,567
17:37:30.699440,699440,816,695,590,233,841,703,85,567
17:37:30.700440,700440,816,695,590,233,841,703,85,567
17:37:30.701444,701444,816,695,590,233,841,703,85,567
17:37:30.702405,702405,816,695,590,233,841,703,85,567
17:37:30.703403,703403,816,695,590,233,841,703,85,567
17:37:30.704406,704406,816,695,590,233,841,703,85,567
17:37:30.705405,705405,816,695,590,233,841,703,85,567
17:37:30.706428,706428,816,695,590,233,841,703,85,567
17:37:30.707430,707430,816,695,590,233,841,703,85,567
17:37:30.708405,708405,816,695,590,233,841,703,85,567
17:37:30.709440,709440,816,695,590,233,841,703,85,567
17:37:30.710440,710440,816,695,590,233,841,703,85,567
17:37:30.711440,711440,816,695,590,233,841,703,85,567
17:37:30.712440,712440,816,695,590,233,841,703,85,567
17:37:30.713406,713406,816,695,590,233,841,703,85,567
17:37:30.714440,714440,816,695,590,233,841,703,85,567
17:37:30.714440,714440,917,745,588,338,819,803,88,603
17:37:30.715444,715444,917,745,588,338,819,803,88,603
17:37:30.716406,716406,917,745,588,338,819,803,88,603
17:37:30.717440,717440,917,745,588,338,819,803,88,603
17:37:30.718442,718442,917,745,588,338,819,803,88,603
17:37:30.719440,719440,917,745,588,338,819,803,88,603
17:37:30.720445,720445,917,745,588,338,819,803,88,603
17:37:30.721403,721403,917,745,588,338,819,803,88,603
17:37:30.722448,722448,917,745,588,338,819,803,88,603
17:37:30.723441,723441,917,745,588,338,819,803,88,603
17:37:30.724403,724403,917,745,588,338,819,803,88,603
17:37:30.725406,725406,917,745,588,338,819,803,88,603
17:37:30.726440,726440,917,745,588,338,819,803,88,603
17:37:30.727440,727440,917,745,588,338,819,803,88,603
17:37:30.728440,728440,917,745,588,338,819,803,88,603
17:37:30.729404,729404,917,745,588,338,819,803,88,603
17:37:30.730440,730440,917,745,588,338,819,803,88,603
17:37:30.730440,730440,913,677,555,404,671,865,104,750
17:37:30.730440,730440,793,695,579,496,698,890,130,791
17:37:30.730440,730440,794,755,647,573,707,902,136,877
17:37:30.731404,731404,794,755,647,573,707,902,136,877
17:37:30.732406,732406,794,755,647,573,707,902,136,877
17:37:30.733404,733404,794,755,647,573,707,902,136,877
17:37:30.734440,734440,794,755,647,573,707,902,136,877
17:37:30.735440,735440,794,755,647,573,707,902,136,877
17:37:30.736442,736442,794,755,647,573,707,902,136,877
17:37:30.737440,737440,794,755,647,573,707,902,136,877
17:37:30.738403,738403,794,755,647,573,707,902,136,877
17:37:30.739441,739441,794,755,647,573,707,902,136,877
17:37:30.740440,740440,794,755,647,573,707,902,136,877
17:37:30.741402,741402,794,755,647,573,707,902,136,877
17:37:30.742440,742440,794,755,647,573,707,902,136,877
17:37:30.743445,743445,794,755,647,573,707,902,136,877
17:37:30.744441,744441,794,755,647,573,707,902,136,877
17:37:30.745444,745444,794,755,647,573,707,902,136,877
17:37:30.745444,745444,749,632,646,603,765,785,152,800
17:37:30.746406,746406,749,632,646,603,765,785,152,800
17:37:30.747443,747443,749,632,646,603,765,785,152,800
17:37:30.748440,748440,749,632,646,603,765,785,152,800
17:37:30.749452,749452,749,632,646,603,765,785,152,800
17:37:30.750442,750442,749,632,646,603,765,785,152,800
17:37:30.751440,751440,749,632,646,603,765,785,152,800
17:37:30.752442,752442,749,632,646,603,765,785,152,800
17:37:30.753402,753402,749,632,646,603,765,785,152,800
17:37:30.754406,754406,749,632,646,603,765,785,152,800
17:37:30.755405,755405,749,632,646,603,765,785,152,800
17:37:30.756440,756440,749,632,646,603,765,785,152,800
17:37:30.757440,757440,749,632,646,603,765,785,152,800
17:37:30.758406,758406,749,632,646,603,765,785,152,800
17:37:30.759455,759455,749,632,646,603,765,785,152,800
17:37:30.760451,760451,749,632,646,603,765,785,152,800
17:37:30.760451,760451,699,575,753,669,719,764,263,858
17:37:30.760451,760451,710,569,788,578,757,730,315,873
17:37:30.760451,760451,717,640,874,608,771,686,321,786
17:37:30.761451,761451,717,640,874,608,771,686,321,786
17:37:30.762405,762405,717,640,874,608,771,686,321,786
17:37:30.763442,763442,717,640,874,608,771,686,321,786
17:37:30.764451,764451,717,640,874,608,771,686,321,786
17:37:30.765459,765459,717,640,874,608,771,686,321,786
17:37:30.766442,766442,717,640,874,608,771,686,321,786
17:37:30.767440,767440,717,640,874,608,771,686,321,786
17:37:30.768403,768403,717,640,874,608,771,686,321,786
17:37:30.769441,769441,717,640,874,608,771,686,321,786
17:37:30.770440,770440,717,640,874,608,771,686,321,786
17:37:30.771444,771444,717,640,874,608,771,686,321,786
17:37:30.772440,772440,717,640,874,608,771,686,321,786
17:37:30.773441,773441,717,640,874,608,771,686,321,786
17:37:30.774451,774451,717,640,874,608,771,686,321,786
17:37:30.775439,775439,717,640,874,608,771,686,321,786
17:37:30.776440,776440,717,640,874,608,771,686,321,786
17:37:30.776440,776440,639,641,805,567,741,685,425,708
17:37:30.777447,777447,639,641,805,567,741,685,425,708
17:37:30.778405,778405,639,641,805,567,741,685,425,708
17:37:30.779403,779403,639,641,805,567,741,685,425,708
17:37:30.780440,780440,639,641,805,567,741,685,425,708
17:37:30.781453,781453,639,641,805,567,741,685,425,708
17:37:30.782453,782453,639,641,805,567,741,685,425,708
17:37:30.783407,783407,639,641,805,567,741,685,425,708
17:37:30.784405,784405,639,641,805,567,741,685,425,708
17:37:30.785405,785405,639,641,805,567,741,685,425,708
17:37:30.786442,786442,639,641,805,567,741,685,425,708
17:37:30.787441,787441,639,641,805,567,741,685,425,708
17:37:30.788440,788440,639,641,805,567,741,685,425,708
17:37:30.789442,789442,639,641,805,567,741,685,425,708
17:37:30.790442,790442,639,641,805,567,741,685,425,708
17:37:30.791441,791441,639,641,805,567,741,685,425,708
17:37:30.792440,792440,639,641,805,567,741,685,425,708
17:37:30.792440,792440,679,589,861,503,742,657,571,680
17:37:30.792440,792440,600,664,912,521,681,664,721,552
17:37:30.792440,792440,631,705,911,579,669,639,728,644
17:37:30.792440,792440,650,745,848,614,750,644,765,644
17:37:30.793442,793442,650,745,848,614,750,644,765,644
17:37:30.794441,794441,650,745,848,614,750,644,765,644
17:37:30.795443,795443,650,745,848,614,750,644,765,644
17:37:30.796441,796441,650,745,848,614,750,644,765,644
17:37:30.797440,797440,650,745,848,614,750,644,765,644
17:37:30.798402,798402,650,745,848,614,750,644,765,644
17:37:30.799440,799440,650,745,848,614,750,644,765,644
17:37:30.800442,800442,650,745,848,614,750,644,765,644
17:37:30.801440,801440,650,745,848,614,750,644,765,644
17:37:30.802448,802448,650,745,848,614,750,644,765,644
17:37:30.803441,803441,650,745,848,614,750,644,765,644
17:37:30.804406,804406,650,745,848,614,750,644,765,644
17:37:30.805441,805441,650,745,848,614,750,644,765,644
17:37:30.806405,806405,650,745,848,614,750,644,765,644
17:37:30.807444,807444,650,745,848,614,750,644,765,644
17:37:30.808404,808404,650,745,848,614,750,644,765,644
17:37:30.808404,808404,650,762,834,609,646,594,776,653
17:37:30.809443,809443,650,762,834,609,646,594,776,653
17:37:30.810441,810441,650,762,834,609,646,594,776,653
17:37:30.811443,811443,650,762,834,609,646,594,776,653
17:37:30.812440,812440,650,762,834,609,646,594,776,653
17:37:30.813405,813405,650,762,834,609,646,594,776,653
17:37:30.814444,814444,650,762,834,609,646,594,776,653
17:37:30.815441,815441,650,762,834,609,646,594,776,653
17:37:30.816442,816442,650,762,834,609,646,594,776,653
17:37:30.817440,817440,650,762,834,609,646,594,776,653
17:37:30.818442,818442,650,762,834,609,646,594,776,653
17:37:30.819440,819440,650,762,834,609,646,594,776,653
17:37:30.820440,820440,650,762,834,609,646,594,776,653
17:37:30.821441,821441,650,762,834,609,646,594,776,653
17:37:30.822405,822405,650,762,834,609,646,594,776,653
17:37:30.823444,823444,650,762,834,609,646,594,776,653
17:37:30.824440,824440,650,762,834,609,646,594,776,653
17:37:30.824440,824440,666,749,837,653,746,586,789,679
17:37:30.825406,825406,666,749,837,653,746,586,789,679
17:37:30.826440,826440,666,749,837,653,746,586,789,679
17:37:30.827405,827405,666,749,837,653,746,586,789,679
17:37:30.828403,828403,666,749,837,653,746,586,789,679
17:37:30.829404,829404,666,749,837,653,746,586,789,679
17:37:30.830405,830405,666,749,837,653,746,586,789,679
17:37:30.831440,831440,666,749,837,653,746,586,789,679
17:37:30.832405,832405,666,749,837,653,746,586,789,679
17:37:30.833403,833403,666,749,837,653,746,586,789,679
17:37:30.834440,834440,666,749,837,653,746,586,789,679
17:37:30.835440,835440,666,749,837,653,746,586,789,679
17:37:30.836440,836440,666,749,837,653,746,586,789,679
17:37:30.837441,837441,666,749,837,653,746,586,789,679
17:37:30.838403,838403,666,749,837,653,746,586,789,679
17:37:30.839447,839447,666,749,837,653,746,586,789,679
17:37:30.840405,840405,666,749,837,653,746,586,789,679
17:37:30.840405,840405,806,814,918,589,810,616,808,1056
17:37:30.841440,841440,806,814,918,589,810,616,808,1056
17:37:30.842440,842440,806,814,918,589,810,616,808,1056
17:37:30.843443,843443,806,814,918,589,810,616,808,1056
17:37:30.844403,844403,806,814,918,589,810,616,808,1056
17:37:30.845453,845453,806,814,918,589,810,616,808,1056
17:37:30.846405,846405,806,814,918,589,810,616,808,1056
17:37:30.847440,847440,806,814,918,589,810,616,808,1056
17:37:30.848405,848405,806,814,918,589,810,616,808,1056
17:37:30.849451,849451,806,814,918,589,810,616,808,1056
17:37:30.850442,850442,806,814,918,589,810,616,808,1056
17:37:30.851405,851405,806,814,918,589,810,616,808,1056
17:37:30.852440,852440,806,814,918,589,810,616,808,1056
17:37:30.853441,853441,806,814,918,589,810,616,808,1056
17:37:30.854406,854406,806,814,918,589,810,616,808,1056
17:37:30.855441,855441,806,814,918,589,810,616,808,1056
17:37:30.856440,856440,806,814,918,589,810,616,808,1056
17:37:30.856440,856440,800,763,919,584,773,560,785,966
17:37:30.856440,856440,770,697,872,583,884,670,799,966
17:37:30.856440,856440,794,696,879,542,821,753,817,954
17:37:30.857466,857466,794,696,879,542,821,753,817,954
17:37:30.858402,858402,794,696,879,542,821,753,817,954
17:37:30.859442,859442,794,696,879,542,821,753,817,954
17:37:30.860458,860458,794,696,879,542,821,753,817,954
17:37:30.861453,861453,794,696,879,542,821,753,817,954
17:37:30.862451,862451,794,696,879,542,821,753,817,954
17:37:30.863405,863405,794,696,879,542,821,753,817,954
17:37:30.864453,864453,794,696,879,542,821,753,817,954
17:37:30.865452,865452,794,696,879,542,821,753,817,954
17:37:30.866405,866405,794,696,879,542,821,753,817,954
17:37:30.867449,867449,794,696,879,542,821,753,817,954
17:37:30.868444,868444,794,696,879,542,821,753,817,954
17:37:30.869440,869440,794,696,879,542,821,753,817,954
17:37:30.870440,870440,794,696,879,542,821,753,817,954
17:37:30.871439,871439,794,696,879,542,821,753,817,954
17:37:30.872441,872441,794,696,879,542,821,753,817,954
17:37:30.873406,873406,794,696,879,542,821,753,817,954
17:37:30.874444,874444,794,696,879,542,821,753,817,954
17:37:30.875443,875443,794,696,879,542,821,753,817,954
17:37:30.876440,876440,794,696,879,542,821,753,817,954
17:37:30.877447,877447,794,696,879,542,821,753,817,954
17:37:30.878441,878441,794,696,879,542,821,753,817,954
17:37:30.879405,879405,794,696,879,542,821,753,817,954
17:37:30.880452,880452,794,696,879,542,821,753,817,954
17:37:30.881441,881441,794,696,879,542,821,753,817,954
17:37:30.882402,882402,794,696,879,542,821,753,817,954
17:37:30.883405,883405,794,696,879,542,821,753,817,954
17:37:30.884440,884440,794,696,879,542,821,753,817,954
17:37:30.885440,885440,794,696,879,542,821,753,817,954
17:37:30.886440,886440,794,696,879,542,821,753,817,954
17:37:30.887444,887444,794,696,879,542,821,753,817,954
17:37:30.888405,888405,794,696,879,542,821,753,817,954
17:37:30.888405,888405,993,744,996,599,835,866,684,873
17:37:30.889443,889443,993,744,996,599,835,866,684,873
17:37:30.890442,890442,993,744,996,599,835,866,684,873
17:37:30.891405,891405,993,744,996,599,835,866,684,873
17:37:30.892440,892440,993,744,996,599,835,866,684,873
17:37:30.893441,893441,993,744,996,599,835,866,684,873
17:37:30.894445,894445,993,744,996,599,835,866,684,873
17:37:30.895441,895441,993,744,996,599,835,866,684,873
17:37:30.896442,896442,993,744,996,599,835,866,684,873
17:37:30.897445,897445,993,744,996,599,835,866,684,873
17:37:30.898440,898440,993,744,996,599,835,866,684,873
17:37:30.899440,899440,993,744,996,599,835,866,684,873
17:37:30.900440,900440,993,744,996,599,835,866,684,873
17:37:30.901442,901442,993,744,996,599,835,866,684,873
17:37:30.902440,902440,993,744,996,599,835,866,684,873
17:37:30.903404,903404,762,784,972,597,942,856,650,625
17:37:30.904404,904404,762,784,972,597,942,856,650,625
17:37:30.905407,905407,762,784,972,597,942,856,650,625
17:37:30.906403,906403,762,784,972,597,942,856,650,625
17:37:30.907433,907433,762,784,972,597,942,856,650,625
17:37:30.908402,908402,762,784,972,597,942,856,650,625
17:37:30.909444,909444,762,784,972,597,942,856,650,625
17:37:30.910441,910441,762,784,972,597,942,856,650,625
17:37:30.911434,911434,762,784,972,597,942,856,650,625
17:37:30.912453,912453,762,784,972,597,942,856,650,625
17:37:30.913404,913404,762,784,972,597,942,856,650,625
17:37:30.914404,914404,762,784,972,597,942,856,650,625
17:37:30.915432,915432,762,784,972,597,942,856,650,625
17:37:30.916435,916435,762,784,972,597,942,856,650,625
17:37:30.917404,917404,762,784,972,597,942,856,650,625
17:37:30.918403,918403,762,784,972,597,942,856,650,625
17:37:30.919405,919405,762,784,972,597,942,856,650,625
17:37:30.920440,920440,762,784,972,597,942,856,650,625
17:37:30.920440,920440,612,668,922,574,802,851,651,420
17:37:30.920440,920440,549,775,777,584,717,750,581,323
17:37:30.921406,921406,549,775,777,584,717,750,581,323
17:37:30.922441,922441,549,775,777,584,717,750,581,323
17:37:30.923443,923443,549,775,777,584,717,750,581,323
17:37:30.924441,924441,549,775,777,584,717,750,581,323
17:37:30.925441,925441,549,775,777,584,717,750,581,323
17:37:30.926405,926405,549,775,777,584,717,750,581,323
17:37:30.927440,927440,549,775,777,584,717,750,581,323
17:37:30.928437,928437,549,775,777,584,717,750,581,323
17:37:30.929407,929407,549,775,777,584,717,750,581,323
17:37:30.930405,930405,549,775,777,584,717,750,581,323
17:37:30.931445,931445,549,775,777,584,717,750,581,323
17:37:30.932406,932406,549,775,777,584,717,750,581,323
17:37:30.933402,933402,549,775,777,584,717,750,581,323
17:37:30.934440,934440,549,775,777,584,717,750,581,323
17:37:30.935444,935444,549,775,777,584,717,750,581,323
17:37:30.935444,935444,615,642,726,532,635,675,528,252
17:37:30.936405,936405,615,642,726,532,635,675,528,252
17:37:30.937438,937438,615,642,726,532,635,675,528,252
17:37:30.938441,938441,615,642,726,532,635,675,528,252
17:37:30.939443,939443,615,642,726,532,635,675,528,252
17:37:30.940454,940454,615,642,726,532,635,675,528,252
17:37:30.941407,941407,615,642,726,532,635,675,528,252
17:37:30.942402,942402,615,642,726,532,635,675,528,252
17:37:30.943440,943440,615,642,726,532,635,675,528,252
17:37:30.944442,944442,615,642,726,532,635,675,528,252
17:37:30.945441,945441,615,642,726,532,635,675,528,252
17:37:30.946406,946406,615,642,726,532,635,675,528,252
17:37:30.947405,947405,615,642,726,532,635,675,528,252
17:37:30.948440,948440,615,642,726,532,635,675,528,252
17:37:30.949441,949441,615,642,726,532,635,675,528,252
17:37:30.950440,950440,615,642,726,532,635,675,528,252
17:37:30.951446,951446,615,642,726,532,635,675,528,252
17:37:30.951446,951446,634,609,671,508,528,623,408,264
17:37:30.952440,952440,634,609,671,508,528,623,408,264
17:37:30.953404,953404,634,609,671,508,528,623,408,264
17:37:30.954406,954406,634,609,671,508,528,623,408,264
17:37:30.955441,955441,634,609,671,508,528,623,408,264
17:37:30.956405,956405,634,609,671,508,528,623,408,264
17:37:30.957440,957440,634,609,671,508,528,623,408,264
17:37:30.958411,958411,634,609,671,508,528,623,408,264
17:37:30.959440,959440,634,609,671,508,528,623,408,264
17:37:30.960442,960442,634,609,671,508,528,623,408,264
17:37:30.961440,961440,634,609,671,508,528,623,408,264
17:37:30.962440,962440,634,609,671,508,528,623,408,264
17:37:30.963445,963445,634,609,671,508,528,623,408,264
17:37:30.964441,964441,634,609,671,508,528,623,408,264
17:37:30.965441,965441,634,609,671,508,528,623,408,264
17:37:30.966441,966441,634,609,671,508,528,623,408,264
17:37:30.967444,967444,590,599,641,480,615,505,351,253
17:37:30.968403,968403,590,599,641,480,615,505,351,253
17:37:30.969405,969405,590,599,641,480,615,505,351,253
17:37:30.970440,970440,590,599,641,480,615,505,351,253
17:37:30.971442,971442,590,599,641,480,615,505,351,253
17:37:30.972404,972404,590,599,641,480,615,505,351,253
17:37:30.973441,973441,590,599,641,480,615,505,351,253
17:37:30.974445,974445,590,599,641,480,615,505,351,253
17:37:30.975440,975440,590,599,641,480,615,505,351,253
17:37:30.976440,976440,590,599,641,480,615,505,351,253
17:37:30.977440,977440,590,599,641,480,615,505,351,253
17:37:30.978442,978442,590,599,641,480,615,505,351,253
17:37:30.979404,979404,590,599,641,480,615,505,351,253
17:37:30.980404,980404,590,599,641,480,615,505,351,253
17:37:30.981440,981440,590,599,641,480,615,505,351,253
17:37:30.982441,982441,590,599,641,480,615,505,351,253
17:37:30.983404,983404,590,599,641,480,615,505,351,253
17:37:30.983404,983404,328,381,593,256,534,250,228,152
17:37:30.984440,984440,328,381,593,256,534,250,228,152
17:37:30.985439,985439,328,381,593,256,534,250,228,152
17:37:30.986405,986405,328,381,593,256,534,250,228,152
17:37:30.987443,987443,328,381,593,256,534,250,228,152
17:37:30.988443,988443,328,381,593,256,534,250,228,152
17:37:30.989441,989441,328,381,593,256,534,250,228,152
17:37:30.990440,990440,328,381,593,256,534,250,228,152
17:37:30.991440,991440,328,381,593,256,534,250,228,152
17:37:30.992447,992447,328,381,593,256,534,250,228,152
17:37:30.993402,993402,328,381,593,256,534,250,228,152
17:37:30.994442,994442,328,381,593,256,534,250,228,152
17:37:30.995440,995440,328,381,593,256,534,250,228,152
17:37:30.996403,996403,328,381,593,256,534,250,228,152
17:37:30.997440,997440,328,381,593,256,534,250,228,152
17:37:30.998440,998440,328,381,593,256,534,250,228,152
17:37:30.999405,999405,328,381,593,256,534,250,228,152
17:37:30.999405,999405,254,438,502,208,486,135,214,118
17:37:31.000440,000440,254,438,502,208,486,135,214,118
17:37:31.001437,001437,254,438,502,208,486,135,214,118
17:37:31.002405,002405,254,438,502,208,486,135,214,118
17:37:31.003421,003421,254,438,502,208,486,135,214,118
17:37:31.004406,004406,254,438,502,208,486,135,214,118
17:37:31.005442,005442,254,438,502,208,486,135,214,118
17:37:31.006441,006441,254,438,502,208,486,135,214,118
17:37:31.007446,007446,254,438,502,208,486,135,214,118
17:37:31.008407,008407,254,438,502,208,486,135,214,118
17:37:31.009441,009441,254,438,502,208,486,135,214,118
17:37:31.010442,010442,254,438,502,208,486,135,214,118
17:37:31.011440,011440,254,438,502,208,486,135,214,118
17:37:31.012440,012440,254,438,502,208,486,135,214,118
17:37:31.013405,013405,254,438,502,208,486,135,214,118
17:37:31.014440,014440,254,438,502,208,486,135,214,118
17:37:31.015444,015444,254,438,502,208,486,135,214,118
17:37:31.015444,015444,236,466,405,182,361,100,165,107
17:37:31.016406,016406,236,466,405,182,361,100,165,107
17:37:31.017403,017403,236,466,405,182,361,100,165,107
17:37:31.018441,018441,236,466,405,182,361,100,165,107
17:37:31.019440,019440,236,466,405,182,361,100,165,107
17:37:31.020451,020451,236,466,405,182,361,100,165,107
17:37:31.021453,021453,236,466,405,182,361,100,165,107
17:37:31.022452,022452,236,466,405,182,361,100,165,107
17:37:31.023453,023453,236,466,405,182,361,100,165,107
17:37:31.024452,024452,236,466,405,182,361,100,165,107
17:37:31.025440,025440,236,466,405,182,361,100,165,107
17:37:31.026440,026440,236,466,405,182,361,100,165,107
17:37:31.027440,027440,236,466,405,182,361,100,165,107
17:37:31.028447,028447,236,466,405,182,361,100,165,107
17:37:31.030406,030406,236,466,405,182,361,100,165,107
17:37:31.031444,031444,236,466,405,182,361,100,165,107
17:37:31.031444,031444,159,503,343,148,291,107,145,115
17:37:31.031444,031444,105,478,311,118,266,113,154,124
17:37:31.031444,031444,87,463,320,141,249,117,182,125
17:37:31.031444,031444,95,491,270,149,176,134,170,130
17:37:31.032404,032404,95,491,270,149,176,134,170,130
17:37:31.033404,033404,95,491,270,149,176,134,170,130
17:37:31.034404,034404,95,491,270,149,176,134,170,130
17:37:31.035443,035443,95,491,270,149,176,134,170,130
17:37:31.036440,036440,95,491,270,149,176,134,170,130
17:37:31.037440,037440,95,491,270,149,176,134,170,130
17:37:31.038442,038442,95,491,270,149,176,134,170,130
17:37:31.039441,039441,95,491,270,149,176,134,170,130
17:37:31.040441,040441,95,491,270,149,176,134,170,130
17:37:31.041405,041405,95,491,270,149,176,134,170,130
17:37:31.042443,042443,95,491,270,149,176,134,170,130
17:37:31.043441,043441,95,491,270,149,176,134,170,130
17:37:31.044440,044440,95,491,270,149,176,134,170,130
17:37:31.045441,045441,95,491,270,149,176,134,170,130
17:37:31.046403,046403,95,491,270,149,176,134,170,130
17:37:31.047403,047403,95,491,270,149,176,134,170,130
17:37:31.048440,048440,95,491,270,149,176,134,170,130
17:37:31.049451,049451,95,491,270,149,176,134,170,130
17:37:31.050441,050441,95,491,270,149,176,134,170,130
17:37:31.051442,051442,95,491,270,149,176,134,170,130
17:37:31.052440,052440,95,491,270,149,176,134,170,130
17:37:31.053402,053402,95,491,270,149,176,134,170,130
17:37:31.054406,054406,95,491,270,149,176,134,170,130
17:37:31.055452,055452,95,491,270,149,176,134,170,130
17:37:31.056454,056454,95,491,270,149,176,134,170,130
17:37:31.057451,057451,95,491,270,149,176,134,170,130
17:37:31.058413,058413,95,491,270,149,176,134,170,130
17:37:31.059451,059451,95,491,270,149,176,134,170,130
17:37:31.060451,060451,95,491,270,149,176,134,170,130
17:37:31.061454,061454,95,491,270,149,176,134,170,130
17:37:31.062431,062431,95,491,270,149,176,134,170,130
17:37:31.063453,063453,95,491,270,149,176,134,170,130
17:37:31.063453,063453,114,477,241,147,145,136,163,149
17:37:31.063453,063453,139,487,241,204,157,137,143,148
17:37:31.063453,063453,160,414,251,197,204,249,125,117
17:37:31.063453,063453,183,421,267,218,224,242,127,109
17:37:31.064448,064448,183,421,267,218,224,242,127,109
17:37:31.065443,065443,183,421,267,218,224,242,127,109
17:37:31.066405,066405,183,421,267,218,224,242,127,109
17:37:31.067403,067403,183,421,267,218,224,242,127,109
17:37:31.068440,068440,183,421,267,218,224,242,127,109
17:37:31.069441,069441,183,421,267,218,224,242,127,109
17:37:31.070441,070441,183,421,267,218,224,242,127,109
17:37:31.071441,071441,183,421,267,218,224,242,127,109
17:37:31.072441,072441,183,421,267,218,224,242,127,109
17:37:31.073441,073441,183,421,267,218,224,242,127,109
17:37:31.074442,074442,183,421,267,218,224,242,127,109
17:37:31.075440,075440,183,421,267,218,224,242,127,109
17:37:31.076440,076440,183,421,267,218,224,242,127,109
17:37:31.077440,077440,183,421,267,218,224,242,127,109
17:37:31.078440,078440,183,421,267,218,224,242,127,109
17:37:31.079404,079404,183,421,267,218,224,242,127,109
17:37:31.080405,080405,183,421,267,218,224,242,127,109
17:37:31.081443,081443,183,421,267,218,224,242,127,109
17:37:31.082434,082434,183,421,267,218,224,242,127,109
17:37:31.083402,083402,183,421,267,218,224,242,127,109
17:37:31.084405,084405,183,421,267,218,224,242,127,109
17:37:31.085442,085442,183,421,267,218,224,242,127,109
17:37:31.086441,086441,183,421,267,218,224,242,127,109
17:37:31.087441,087441,183,421,267,218,224,242,127,109
17:37:31.088441,088441,183,421,267,218,224,242,127,109
17:37:31.089441,089441,183,421,267,218,224,242,127,109
17:37:31.090441,090441,183,421,267,218,224,242,127,109
17:37:31.091441,091441,183,421,267,218,224,242,127,109
17:37:31.092445,092445,183,421,267,218,224,242,127,109
17:37:31.093444,093444,183,421,267,218,224,242,127,109
17:37:31.094440,094440,183,421,267,218,224,242,127,109
17:37:31.095446,095446,183,421,267,218,224,242,127,109
17:37:31.095446,095446,226,576,215,327,311,448,262,81
17:37:31.096404,096404,226,576,215,327,311,448,262,81
17:37:31.097446,097446,226,576,215,327,311,448,262,81
17:37:31.098405,098405,226,576,215,327,311,448,262,81
17:37:31.099440,099440,226,576,215,327,311,448,262,81
17:37:31.100431,100431,226,576,215,327,311,448,262,81
17:37:31.101428,101428,226,576,215,327,311,448,262,81
17:37:31.102429,102429,226,576,215,327,311,448,262,81
17:37:31.103447,103447,226,576,215,327,311,448,262,81
17:37:31.104406,104406,226,576,215,327,311,448,262,81
17:37:31.105442,105442,226,576,215,327,311,448,262,81
17:37:31.106421,106421,226,576,215,327,311,448,262,81
17:37:31.107402,107402,226,576,215,327,311,448,262,81
17:37:31.108417,108417,226,576,215,327,311,448,262,81
17:37:31.109452,109452,226,576,215,327,311,448,262,81
17:37:31.110455,110455,226,576,215,327,311,448,262,81
17:37:31.111451,111451,226,576,215,327,311,448,262,81
17:37:31.111451,111451,320,692,197,347,396,514,311,72
17:37:31.112451,112451,320,692,197,347,396,514,311,72
17:37:31.113405,113405,320,692,197,347,396,514,311,72
17:37:31.114451,114451,320,692,197,347,396,514,311,72
17:37:31.115452,115452,320,692,197,347,396,514,311,72
17:37:31.116451,116451,320,692,197,347,396,514,311,72
17:37:31.117450,117450,320,692,197,347,396,514,311,72
17:37:31.118439,118439,320,692,197,347,396,514,311,72
17:37:31.119440,119440,320,692,197,347,396,514,311,72
17:37:31.120446,120446,320,692,197,347,396,514,311,72
17:37:31.121441,121441,320,692,197,347,396,514,311,72
17:37:31.122404,122404,320,692,197,347,396,514,311,72
17:37:31.123452,123452,320,692,197,347,396,514,311,72
17:37:31.124452,124452,320,692,197,347,396,514,311,72
17:37:31.125440,125440,320,692,197,347,396,514,311,72
17:37:31.126440,126440,320,692,197,347,396,514,311,72
17:37:31.127443,127443,320,692,197,347,396,514,311,72
17:37:31.127443,127443,494,806,255,593,432,529,491,244
17:37:31.128451,128451,494,806,255,593,432,529,491,244
17:37:31.129403,129403,494,806,255,593,432,529,491,244
17:37:31.130441,130441,494,806,255,593,432,529,491,244
17:37:31.131449,131449,494,806,255,593,432,529,491,244
17:37:31.132442,132442,494,806,255,593,432,529,491,244
17:37:31.133407,133407,494,806,255,593,432,529,491,244
17:37:31.134404,134404,494,806,255,593,432,529,491,244
17:37:31.135440,135440,494,806,255,593,432,529,491,244
17:37:31.136405,136405,494,806,255,593,432,529,491,244
17:37:31.137441,137441,494,806,255,593,432,529,491,244
17:37:31.138442,138442,494,806,255,593,432,529,491,244
17:37:31.139441,139441,494,806,255,593,432,529,491,244
17:37:31.140444,140444,494,806,255,593,432,529,491,244
17:37:31.141441,141441,494,806,255,593,432,529,491,244
17:37:31.142404,142404,494,806,255,593,432,529,491,244
17:37:31.143406,143406,494,806,255,593,432,529,491,244
17:37:31.143406,143406,540,841,373,571,398,435,467,313
17:37:31.144403,144403,540,841,373,571,398,435,467,313
17:37:31.145405,145405,540,841,373,571,398,435,467,313
17:37:31.146441,146441,540,841,373,571,398,435,467,313
17:37:31.147405,147405,540,841,373,571,398,435,467,313
17:37:31.148441,148441,540,841,373,571,398,435,467,313
17:37:31.149405,149405,540,841,373,571,398,435,467,313
17:37:31.150437,150437,540,841,373,571,398,435,467,313
17:37:31.151440,151440,540,841,373,571,398,435,467,313
17:37:31.152406,152406,540,841,373,571,398,435,467,313
17:37:31.153441,153441,540,841,373,571,398,435,467,313
17:37:31.154406,154406,540,841,373,571,398,435,467,313
17:37:31.155441,155441,540,841,373,571,398,435,467,313
17:37:31.156405,156405,540,841,373,571,398,435,467,313
17:37:31.157440,157440,540,841,373,571,398,435,467,313
17:37:31.158405,158405,540,841,373,571,398,435,467,313
17:37:31.159471,159471,540,841,373,571,398,435,467,313
17:37:31.159471,159471,598,768,412,582,490,463,526,439
17:37:31.160403,160403,598,768,412,582,490,463,526,439
17:37:31.161403,161403,598,768,412,582,490,463,526,439
17:37:31.162403,162403,598,768,412,582,490,463,526,439
17:37:31.163404,163404,598,768,412,582,490,463,526,439
17:37:31.164440,164440,598,768,412,582,490,463,526,439
17:37:31.165440,165440,598,768,412,582,490,463,526,439
17:37:31.166441,166441,598,768,412,582,490,463,526,439
17:37:31.167404,167404,598,768,412,582,490,463,526,439
17:37:31.168403,168403,598,768,412,582,490,463,526,439
17:37:31.169404,169404,598,768,412,582,490,463,526,439
17:37:31.170403,170403,598,768,412,582,490,463,526,439
17:37:31.171473,171473,598,768,412,582,490,463,526,439
17:37:31.172440,172440,598,768,412,582,490,463,526,439
17:37:31.173405,173405,598,768,412,582,490,463,526,439
17:37:31.174405,174405,598,768,412,582,490,463,526,439
17:37:31.175443,175443,598,768,412,582,490,463,526,439
17:37:31.175443,175443,649,711,455,677,559,489,584,455
17:37:31.175443,175443,680,682,579,638,560,542,596,574
17:37:31.175443,175443,656,786,592,639,682,507,610,579
17:37:31.175443,175443,752,749,581,743,694,523,726,645
17:37:31.175443,175443,780,674,733,580,796,641,828,760
17:37:31.176442,176442,780,674,733,580,796,641,828,760
17:37:31.177448,177448,780,674,733,580,796,641,828,760
17:37:31.178440,178440,780,674,733,580,796,641,828,760
17:37:31.179407,179407,780,674,733,580,796,641,828,760
17:37:31.180405,180405,780,674,733,580,796,641,828,760
17:37:31.181441,181441,780,674,733,580,796,641,828,760
17:37:31.182406,182406,780,674,733,580,796,641,828,760
17:37:31.183403,183403,780,674,733,580,796,641,828,760
17:37:31.184441,184441,780,674,733,580,796,641,828,760
17:37:31.185441,185441,780,674,733,580,796,641,828,760
17:37:31.186442,186442,780,674,733,580,796,641,828,760
17:37:31.187440,187440,780,674,733,580,796,641,828,760
17:37:31.188405,188405,780,674,733,580,796,641,828,760
17:37:31.189444,189444,780,674,733,580,796,641,828,760
17:37:31.190406,190406,780,674,733,580,796,641,828,760
17:37:31.191443,191443,780,674,733,580,796,641,828,760
17:37:31.191443,191443,711,561,579,647,792,840,794,659
17:37:31.192445,192445,711,561,579,647,792,840,794,659
17:37:31.193406,193406,711,561,579,647,792,840,794,659
17:37:31.194441,194441,711,561,579,647,792,840,794,659
17:37:31.195443,195443,711,561,579,647,792,840,794,659
17:37:31.196406,196406,711,561,579,647,792,840,794,659
17:37:31.197441,197441,711,561,579,647,792,840,794,659
17:37:31.198441,198441,711,561,579,647,792,840,794,659
17:37:31.199441,199441,711,561,579,647,792,840,794,659
17:37:31.200441,200441,711,561,579,647,792,840,794,659
17:37:31.201440,201440,711,561,579,647,792,840,794,659
17:37:31.202443,202443,711,561,579,647,792,840,794,659
17:37:31.203444,203444,711,561,579,647,792,840,794,659
17:37:31.204404,204404,711,561,579,647,792,840,794,659
17:37:31.205409,205409,711,561,579,647,792,840,794,659
17:37:31.206441,206441,711,561,579,647,792,840,794,659
17:37:31.207443,207443,711,561,579,647,792,840,794,659
17:37:31.208407,208407,711,561,579,647,792,840,794,659
17:37:31.209444,209444,711,561,579,647,792,840,794,659
17:37:31.210441,210441,711,561,579,647,792,840,794,659
17:37:31.211445,211445,711,561,579,647,792,840,794,659
17:37:31.212441,212441,711,561,579,647,792,840,794,659
17:37:31.213403,213403,711,561,579,647,792,840,794,659
17:37:31.214441,214441,711,561,579,647,792,840,794,659
17:37:31.215442,215442,711,561,579,647,792,840,794,659
17:37:31.216441,216441,711,561,579,647,792,840,794,659
17:37:31.217403,217403,711,561,579,647,792,840,794,659
17:37:31.218405,218405,711,561,579,647,792,840,794,659
17:37:31.219441,219441,711,561,579,647,792,840,794,659
17:37:31.220405,220405,711,561,579,647,792,840,794,659
17:37:31.221441,221441,711,561,579,647,792,840,794,659
17:37:31.222440,222440,711,561,579,647,792,840,794,659
17:37:31.223443,223443,711,561,579,647,792,840,794,659
17:37:31.223443,223443,717,691,443,660,862,820,773,599
17:37:31.224404,224404,717,691,443,660,862,820,773,599
17:37:31.225403,225403,717,691,443,660,862,820,773,599
17:37:31.226402,226402,717,691,443,660,862,820,773,599
17:37:31.227402,227402,717,691,443,660,862,820,773,599
17:37:31.228402,228402,717,691,443,660,862,820,773,599
17:37:31.229403,229403,717,691,443,660,862,820,773,599
17:37:31.230403,230403,717,691,443,660,862,820,773,599
17:37:31.231402,231402,717,691,443,660,862,820,773,599
17:37:31.232403,232403,717,691,443,660,862,820,773,599
17:37:31.233402,233402,717,691,443,660,862,820,773,599
17:37:31.234402,234402,717,691,443,660,862,820,773,599
17:37:31.235403,235403,717,691,443,660,862,820,773,599
17:37:31.236404,236404,717,691,443,660,862,820,773,599
17:37:31.237403,237403,717,691,443,660,862,820,773,599
17:37:31.238403,238403,717,691,443,660,862,820,773,599
17:37:31.239402,239402,717,691,443,660,862,820,773,599
17:37:31.239402,239402,638,748,236,798,750,750,775,497
17:37:31.240447,240447,638,748,236,798,750,750,775,497
17:37:31.241438,241438,638,748,236,798,750,750,775,497
17:37:31.242408,242408,638,748,236,798,750,750,775,497
17:37:31.243403,243403,638,748,236,798,750,750,775,497
17:37:31.244426,244426,638,748,236,798,750,750,775,497
17:37:31.245441,245441,638,748,236,798,750,750,775,497
17:37:31.246451,246451,638,748,236,798,750,750,775,497
17:37:31.247440,247440,638,748,236,798,750,750,775,497
17:37:31.248441,248441,638,748,236,798,750,750,775,497
17:37:31.249440,249440,638,748,236,798,750,750,775,497
17:37:31.250442,250442,638,748,236,798,750,750,775,497
17:37:31.251440,251440,638,748,236,798,750,750,775,497
17:37:31.252441,252441,638,748,236,798,750,750,775,497
17:37:31.253444,253444,638,748,236,798,750,750,775,497
17:37:31.254406,254406,638,748,236,798,750,750,775,497
17:37:31.255443,255443,682,800,227,781,701,732,848,556
17:37:31.255443,255443,630,819,175,815,813,734,800,607
17:37:31.256440,256440,630,819,175,815,813,734,800,607
17:37:31.257437,257437,630,819,175,815,813,734,800,607
17:37:31.258404,258404,630,819,175,815,813,734,800,607
17:37:31.259442,259442,630,819,175,815,813,734,800,607
17:37:31.260440,260440,630,819,175,815,813,734,800,607
17:37:31.261440,261440,630,819,175,815,813,734,800,607
17:37:31.262405,262405,630,819,175,815,813,734,800,607
17:37:31.263406,263406,630,819,175,815,813,734,800,607
17:37:31.264441,264441,630,819,175,815,813,734,800,607
17:37:31.265441,265441,630,819,175,815,813,734,800,607
17:37:31.266405,266405,630,819,175,815,813,734,800,607
17:37:31.267405,267405,630,819,175,815,813,734,800,607
17:37:31.268440,268440,630,819,175,815,813,734,800,607
17:37:31.269441,269441,630,819,175,815,813,734,800,607
17:37:31.270443,270443,630,819,175,815,813,734,800,607
17:37:31.271443,271443,630,819,175,815,813,734,800,607
17:37:31.271443,271443,670,725,102,915,660,881,593,783
17:37:31.272447,272447,670,725,102,915,660,881,593,783
17:37:31.273444,273444,670,725,102,915,660,881,593,783
17:37:31.274440,274440,670,725,102,915,660,881,593,783
17:37:31.275440,275440,670,725,102,915,660,881,593,783
17:37:31.276440,276440,670,725,102,915,660,881,593,783
17:37:31.277440,277440,670,725,102,915,660,881,593,783
17:37:31.278440,278440,670,725,102,915,660,881,593,783
17:37:31.279405,279405,670,725,102,915,660,881,593,783
17:37:31.280406,280406,670,725,102,915,660,881,593,783
17:37:31.281441,281441,670,725,102,915,660,881,593,783
17:37:31.282441,282441,670,725,102,915,660,881,593,783
17:37:31.283403,283403,670,725,102,915,660,881,593,783
17:37:31.284440,284440,670,725,102,915,660,881,593,783
17:37:31.285441,285441,670,725,102,915,660,881,593,783
17:37:31.286440,286440,670,725,102,915,660,881,593,783
17:37:31.287410,287410,670,725,102,915,660,881,593,783
17:37:31.288441,288441,670,725,102,915,660,881,593,783
17:37:31.289441,289441,670,725,102,915,660,881,593,783
17:37:31.290440,290440,670,725,102,915,660,881,593,783
17:37:31.291405,291405,670,725,102,915,660,881,593,783
17:37:31.292440,292440,670,725,102,915,660,881,593,783
17:37:31.293411,293411,670,725,102,915,660,881,593,783
17:37:31.294441,294441,670,725,102,915,660,881,593,783
17:37:31.295441,295441,670,725,102,915,660,881,593,783
17:37:31.296459,296459,670,725,102,915,660,881,593,783
17:37:31.297441,297441,670,725,102,915,660,881,593,783
17:37:31.298442,298442,670,725,102,915,660,881,593,783
17:37:31.299446,299446,670,725,102,915,660,881,593,783
17:37:31.300440,300440,670,725,102,915,660,881,593,783
17:37:31.301440,301440,670,725,102,915,660,881,593,783
17:37:31.302405,302405,670,725,102,915,660,881,593,783
17:37:31.303433,303433,670,725,102,915,660,881,593,783
17:37:31.304406,304406,670,725,102,915,660,881,593,783
17:37:31.305432,305432,670,725,102,915,660,881,593,783
17:37:31.306429,306429,670,725,102,915,660,881,593,783
17:37:31.307405,307405,670,725,102,915,660,881,593,783
17:37:31.308404,308404,670,725,102,915,660,881,593,783
17:37:31.309430,309430,670,725,102,915,660,881,593,783
17:37:31.310428,310428,670,725,102,915,660,881,593,783
17:37:31.311428,311428,670,725,102,915,660,881,593,783
17:37:31.312429,312429,670,725,102,915,660,881,593,783
17:37:31.313404,313404,670,725,102,915,660,881,593,783
17:37:31.314443,314443,670,725,102,915,660,881,593,783
17:37:31.315406,315406,670,725,102,915,660,881,593,783
17:37:31.316440,316440,670,725,102,915,660,881,593,783
17:37:31.317403,317403,670,725,102,915,660,881,593,783
17:37:31.318443,318443,670,725,102,915,660,881,593,783
17:37:31.318443,318443,644,630,113,923,575,927,628,833
17:37:31.319404,319404,644,630,113,923,575,927,628,833
17:37:31.320403,320403,644,630,113,923,575,927,628,833
17:37:31.321403,321403,644,630,113,923,575,927,628,833
17:37:31.322403,322403,644,630,113,923,575,927,628,833
17:37:31.323403,323403,644,630,113,923,575,927,628,833
17:37:31.324403,324403,644,630,113,923,575,927,628,833
17:37:31.325404,325404,644,630,113,923,575,927,628,833
17:37:31.326440,326440,644,630,113,923,575,927,628,833
17:37:31.327440,327440,644,630,113,923,575,927,628,833
17:37:31.328440,328440,644,630,113,923,575,927,628,833
17:37:31.329404,329404,644,630,113,923,575,927,628,833
17:37:31.330438,330438,644,630,113,923,575,927,628,833
17:37:31.331445,331445,644,630,113,923,575,927,628,833
17:37:31.332440,332440,644,630,113,923,575,927,628,833
17:37:31.333404,333404,644,630,113,923,575,927,628,833
17:37:31.334445,334445,689,713,100,758,669,781,787,987
17:37:31.334445,334445,586,679,86,735,742,740,858,1016
17:37:31.334445,334445,627,679,89,730,782,731,938,1040
17:37:31.335405,335405,525,767,52,687,736,661,1010,951
17:37:31.335405,335405,573,823,53,728,692,652,1031,926
17:37:31.336405,336405,573,823,53,728,692,652,1031,926
17:37:31.337443,337443,573,823,53,728,692,652,1031,926
17:37:31.338444,338444,573,823,53,728,692,652,1031,926
17:37:31.339440,339440,573,823,53,728,692,652,1031,926
17:37:31.340446,340446,573,823,53,728,692,652,1031,926
17:37:31.341441,341441,573,823,53,728,692,652,1031,926
17:37:31.342402,342402,573,823,53,728,692,652,1031,926
17:37:31.343403,343403,573,823,53,728,692,652,1031,926
17:37:31.344401,344401,573,823,53,728,692,652,1031,926
17:37:31.345401,345401,573,823,53,728,692,652,1031,926
17:37:31.346402,346402,573,823,53,728,692,652,1031,926
17:37:31.347402,347402,573,823,53,728,692,652,1031,926
17:37:31.348401,348401,573,823,53,728,692,652,1031,926
17:37:31.349401,349401,573,823,53,728,692,652,1031,926
17:37:31.350401,350401,573,823,53,728,692,652,1031,926
17:37:31.351407,351407,573,823,53,728,692,652,1031,926
17:37:31.352405,352405,573,823,53,728,692,652,1031,926
17:37:31.353405,353405,573,823,53,728,692,652,1031,926
17:37:31.354404,354404,573,823,53,728,692,652,1031,926
17:37:31.355405,355405,573,823,53,728,692,652,1031,926
17:37:31.356404,356404,573,823,53,728,692,652,1031,926
17:37:31.357405,357405,573,823,53,728,692,652,1031,926
17:37:31.358404,358404,573,823,53,728,692,652,1031,926
17:37:31.359404,359404,573,823,53,728,692,652,1031,926
17:37:31.360404,360404,573,823,53,728,692,652,1031,926
17:37:31.361404,361404,573,823,53,728,692,652,1031,926
17:37:31.362404,362404,573,823,53,728,692,652,1031,926
17:37:31.363406,363406,573,823,53,728,692,652,1031,926
17:37:31.364405,364405,573,823,53,728,692,652,1031,926
17:37:31.365404,365404,573,823,53,728,692,652,1031,926
17:37:31.366405,366405,573,823,53,728,692,652,1031,926
17:37:31.366405,366405,633,672,23,577,670,723,840,663
17:37:31.366405,366405,519,674,19,548,593,732,822,642
17:37:31.367405,367405,519,674,19,548,593,732,822,642
17:37:31.368406,368406,519,674,19,548,593,732,822,642
17:37:31.369443,369443,519,674,19,548,593,732,822,642
17:37:31.370404,370404,519,674,19,548,593,732,822,642
17:37:31.371442,371442,519,674,19,548,593,732,822,642
17:37:31.372404,372404,519,674,19,548,593,732,822,642
17:37:31.373403,373403,519,674,19,548,593,732,822,642
17:37:31.374405,374405,519,674,19,548,593,732,822,642
17:37:31.375405,375405,519,674,19,548,593,732,822,642
17:37:31.376404,376404,519,674,19,548,593,732,822,642
17:37:31.377405,377405,519,674,19,548,593,732,822,642
17:37:31.378405,378405,519,674,19,548,593,732,822,642
17:37:31.379405,379405,519,674,19,548,593,732,822,642
17:37:31.380406,380406,519,674,19,548,593,732,822,642
17:37:31.381404,381404,519,674,19,548,593,732,822,642
17:37:31.382406,382406,519,674,19,548,593,732,822,642
17:37:31.383405,383405,519,674,19,548,593,732,822,642
17:37:31.384406,384406,519,674,19,548,593,732,822,642
17:37:31.385410,385410,519,674,19,548,593,732,822,642
17:37:31.386405,386405,519,674,19,548,593,732,822,642
17:37:31.387406,387406,519,674,19,548,593,732,822,642
17:37:31.388406,388406,519,674,19,548,593,732,822,642
17:37:31.389406,389406,519,674,19,548,593,732,822,642
17:37:31.393406,393406,519,674,19,548,593,732,822,642
17:37:31.394405,394405,519,674,19,548,593,732,822,642
17:37:31.395405,395405,519,674,19,548,593,732,822,642
17:37:31.396405,396405,519,674,19,548,593,732,822,642
17:37:31.397406,397406,519,674,19,548,593,732,822,642
17:37:31.398405,398405,519,674,19,548,593,732,822,642
17:37:31.398405,398405,567,461,23,427,649,751,671,494
17:37:31.398405,398405,622,562,25,480,593,815,671,459
17:37:31.399405,399405,638,569,26,571,562,768,710,364
17:37:31.400405,400405,638,569,26,571,562,768,710,364
17:37:31.401404,401404,638,569,26,571,562,768,710,364
17:37:31.402406,402406,638,569,26,571,562,768,710,364
17:37:31.403406,403406,638,569,26,571,562,768,710,364
17:37:31.404405,404405,638,569,26,571,562,768,710,364
17:37:31.405415,405415,638,569,26,571,562,768,710,364
17:37:31.406404,406404,638,569,26,571,562,768,710,364
17:37:31.407403,407403,638,569,26,571,562,768,710,364
17:37:31.408403,408403,638,569,26,571,562,768,710,364
17:37:31.409423,409423,638,569,26,571,562,768,710,364
17:37:31.410405,410405,638,569,26,571,562,768,710,364
17:37:31.411442,411442,638,569,26,571,562,768,710,364
17:37:31.412404,412404,638,569,26,571,562,768,710,364
17:37:31.413405,413405,638,569,26,571,562,768,710,364
17:37:31.414439,414439,638,569,26,571,562,768,710,364
17:37:31.414439,414439,552,528,23,704,457,883,843,278
17:37:31.415403,415403,552,528,23,704,457,883,843,278
17:37:31.416404,416404,552,528,23,704,457,883,843,278
17:37:31.417408,417408,552,528,23,704,457,883,843,278
17:37:31.418406,418406,552,528,23,704,457,883,843,278
17:37:31.419432,419432,552,528,23,704,457,883,843,278
17:37:31.420431,420431,552,528,23,704,457,883,843,278
17:37:31.421404,421404,552,528,23,704,457,883,843,278
17:37:31.422403,422403,552,528,23,704,457,883,843,278
17:37:31.423405,423405,552,528,23,704,457,883,843,278
17:37:31.424403,424403,552,528,23,704,457,883,843,278
17:37:31.425404,425404,552,528,23,704,457,883,843,278
17:37:31.426404,426404,552,528,23,704,457,883,843,278
17:37:31.427404,427404,552,528,23,704,457,883,843,278
17:37:31.428404,428404,552,528,23,704,457,883,843,278
17:37:31.429405,429405,552,528,23,704,457,883,843,278
17:37:31.430405,430405,552,528,23,704,457,883,843,278
17:37:31.430405,430405,559,528,21,728,357,758,874,260
17:37:31.431407,431407,559,528,21,728,357,758,874,260
17:37:31.432406,432406,559,528,21,728,357,758,874,260
17:37:31.433408,433408,559,528,21,728,357,758,874,260
17:37:31.434441,434441,559,528,21,728,357,758,874,260
17:37:31.435444,435444,559,528,21,728,357,758,874,260
17:37:31.436441,436441,559,528,21,728,357,758,874,260
17:37:31.437441,437441,559,528,21,728,357,758,874,260
17:37:31.438406,438406,559,528,21,728,357,758,874,260
17:37:31.439442,439442,559,528,21,728,357,758,874,260
17:37:31.440441,440441,559,528,21,728,357,758,874,260
17:37:31.441403,441403,559,528,21,728,357,758,874,260
17:37:31.442439,442439,559,528,21,728,357,758,874,260
17:37:31.443444,443444,559,528,21,728,357,758,874,260
17:37:31.444404,444404,559,528,21,728,357,758,874,260
17:37:31.445406,445406,559,528,21,728,357,758,874,260
17:37:31.446404,446404,559,528,21,728,357,758,874,260
17:37:31.446404,446404,556,580,20,728,351,663,894,212
17:37:31.447443,447443,556,580,20,728,351,663,894,212
17:37:31.448441,448441,556,580,20,728,351,663,894,212
17:37:31.449443,449443,556,580,20,728,351,663,894,212
17:37:31.450441,450441,556,580,20,728,351,663,894,212
17:37:31.451406,451406,556,580,20,728,351,663,894,212
17:37:31.452406,452406,556,580,20,728,351,663,894,212
17:37:31.453441,453441,556,580,20,728,351,663,894,212
17:37:31.454406,454406,556,580,20,728,351,663,894,212
17:37:31.455405,455405,556,580,20,728,351,663,894,212
17:37:31.456441,456441,556,580,20,728,351,663,894,212
17:37:31.457441,457441,556,580,20,728,351,663,894,212
17:37:31.458404,458404,556,580,20,728,351,663,894,212
17:37:31.459441,459441,556,580,20,728,351,663,894,212
17:37:31.460441,460441,556,580,20,728,351,663,894,212
17:37:31.461441,461441,556,580,20,728,351,663,894,212
17:37:31.462449,462449,556,580,20,728,351,663,894,212
17:37:31.462449,462449,502,624,14,739,334,588,908,194
17:37:31.463406,463406,502,624,14,739,334,588,908,194
17:37:31.464446,464446,502,624,14,739,334,588,908,194
17:37:31.465444,465444,502,624,14,739,334,588,908,194
17:37:31.466441,466441,502,624,14,739,334,588,908,194
17:37:31.467408,467408,502,624,14,739,334,588,908,194
17:37:31.468438,468438,502,624,14,739,334,588,908,194
17:37:31.469406,469406,502,624,14,739,334,588,908,194
17:37:31.470442,470442,502,624,14,739,334,588,908,194
17:37:31.471406,471406,502,624,14,739,334,588,908,194
17:37:31.472446,472446,502,624,14,739,334,588,908,194
17:37:31.473405,473405,502,624,14,739,334,588,908,194
17:37:31.474441,474441,502,624,14,739,334,588,908,194
17:37:31.475441,475441,502,624,14,739,334,588,908,194
17:37:31.476441,476441,502,624,14,739,334,588,908,194
17:37:31.477406,477406,502,624,14,739,334,588,908,194
17:37:31.478441,478441,502,624,14,739,334,588,908,194
17:37:31.478441,478441,387,590,13,706,211,583,843,165
17:37:31.479404,479404,387,590,13,706,211,583,843,165
17:37:31.480441,480441,387,590,13,706,211,583,843,165
17:37:31.481442,481442,387,590,13,706,211,583,843,165
17:37:31.482405,482405,387,590,13,706,211,583,843,165
17:37:31.483405,483405,387,590,13,706,211,583,843,165
17:37:31.484441,484441,387,590,13,706,211,583,843,165
17:37:31.485406,485406,387,590,13,706,211,583,843,165
17:37:31.486441,486441,387,590,13,706,211,583,843,165
17:37:31.487441,487441,387,590,13,706,211,583,843,165
17:37:31.488406,488406,387,590,13,706,211,583,843,165
17:37:31.489441,489441,387,590,13,706,211,583,843,165
17:37:31.490444,490444,387,590,13,706,211,583,843,165
17:37:31.491442,491442,387,590,13,706,211,583,843,165
17:37:31.492444,492444,387,590,13,706,211,583,843,165
17:37:31.493445,493445,387,590,13,706,211,583,843,165
17:37:31.494441,494441,387,590,13,706,211,583,843,165
17:37:31.494441,494441,336,581,11,703,198,610,875,138
17:37:31.495404,495404,336,581,11,703,198,610,875,138
17:37:31.496403,496403,336,581,11,703,198,610,875,138
17:37:31.497247,497247,336,581,11,703,198,610,875,138
17:37:31.497404,497404,336,581,11,703,198,610,875,138
17:37:31.498404,498404,336,581,11,703,198,610,875,138
17:37:31.499405,499405,336,581,11,703,198,610,875,138
17:37:31.500407,500407,336,581,11,703,198,610,875,138
17:37:31.501441,501441,336,581,11,703,198,610,875,138
17:37:31.502858,502858,336,581,11,703,198,610,875,138
17:37:31.503853,503853,336,581,11,703,198,610,875,138
17:37:31.504890,504890,336,581,11,703,198,610,875,138
17:37:31.505886,505886,336,581,11,703,198,610,875,138
17:37:31.506851,506851,336,581,11,703,198,610,875,138
17:37:31.507851,507851,336,581,11,703,198,610,875,138
17:37:31.508850,508850,336,581,11,703,198,610,875,138
17:37:31.509851,509851,336,581,11,703,198,610,875,138
17:37:31.509851,509851,161,592,6,495,146,675,787,509
17:37:31.509851,509851,103,759,228,402,90,818,715,745
17:37:31.510850,510850,103,759,228,402,90,818,715,745
17:37:31.511850,511850,103,759,228,402,90,818,715,745
17:37:31.512853,512853,103,759,228,402,90,818,715,745
17:37:31.513850,513850,103,759,228,402,90,818,715,745
17:37:31.514852,514852,103,759,228,402,90,818,715,745
17:37:31.515889,515889,103,759,228,402,90,818,715,745
17:37:31.516853,516853,103,759,228,402,90,818,715,745
17:37:31.517853,517853,103,759,228,402,90,818,715,745
17:37:31.518852,518852,103,759,228,402,90,818,715,745
17:37:31.519892,519892,103,759,228,402,90,818,715,745
17:37:31.520850,520850,103,759,228,402,90,818,715,745
17:37:31.521889,521889,103,759,228,402,90,818,715,745
17:37:31.522889,522889,103,759,228,402,90,818,715,745
17:37:31.523891,523891,103,759,228,402,90,818,715,745
17:37:31.524889,524889,103,759,228,402,90,818,715,745
17:37:31.525853,525853,103,759,228,402,90,818,715,745
17:37:31.525853,525853,177,939,411,470,105,869,761,872
17:37:31.525853,525853,287,1009,482,429,205,870,759,969
17:37:31.526852,526852,287,1009,482,429,205,870,759,969
17:37:31.527850,527850,287,1009,482,429,205,870,759,969
17:37:31.528888,528888,287,1009,482,429,205,870,759,969
17:37:31.529915,529915,287,1009,482,429,205,870,759,969
17:37:31.530892,530892,287,1009,482,429,205,870,759,969
17:37:31.531888,531888,287,1009,482,429,205,870,759,969
17:37:31.532853,532853,287,1009,482,429,205,870,759,969
17:37:31.533853,533853,287,1009,482,429,205,870,759,969
17:37:31.534888,534888,287,1009,482,429,205,870,759,969
17:37:31.535888,535888,287,1009,482,429,205,870,759,969
17:37:31.536888,536888,287,1009,482,429,205,870,759,969
17:37:31.537890,537890,287,1009,482,429,205,870,759,969
17:37:31.538888,538888,287,1009,482,429,205,870,759,969
17:37:31.539891,539891,287,1009,482,429,205,870,759,969
17:37:31.540890,540890,287,1009,482,429,205,870,759,969
17:37:31.541854,541854,287,1009,482,429,205,870,759,969
17:37:31.541854,541854,853,838,1104,678,766,766,865,1047
17:37:31.542854,542854,853,838,1104,678,766,766,865,1047
17:37:31.543851,543851,853,838,1104,678,766,766,865,1047
17:37:31.544889,544889,853,838,1104,678,766,766,865,1047
17:37:31.545850,545850,853,838,1104,678,766,766,865,1047
17:37:31.546852,546852,853,838,1104,678,766,766,865,1047
17:37:31.547889,547889,853,838,1104,678,766,766,865,1047
17:37:31.548892,548892,853,838,1104,678,766,766,865,1047
17:37:31.549888,549888,853,838,1104,678,766,766,865,1047
17:37:31.550853,550853,853,838,1104,678,766,766,865,1047
17:37:31.551891,551891,853,838,1104,678,766,766,865,1047
17:37:31.552888,552888,853,838,1104,678,766,766,865,1047
17:37:31.553891,553891,853,838,1104,678,766,766,865,1047
17:37:31.554894,554894,853,838,1104,678,766,766,865,1047
17:37:31.555892,555892,853,838,1104,678,766,766,865,1047
17:37:31.556854,556854,853,838,1104,678,766,766,865,1047
17:37:31.557889,557889,853,838,1104,678,766,766,865,1047
17:37:31.557889,557889,1041,821,1051,1012,1077,716,775,1060
17:37:31.557889,557889,772,1039,680,1010,949,549,774,790
17:37:31.558888,558888,772,1039,680,1010,949,549,774,790
17:37:31.559889,559889,772,1039,680,1010,949,549,774,790
17:37:31.560889,560889,772,1039,680,1010,949,549,774,790
17:37:31.561888,561888,772,1039,680,1010,949,549,774,790
17:37:31.562891,562891,772,1039,680,1010,949,549,774,790
17:37:31.563889,563889,772,1039,680,1010,949,549,774,790
17:37:31.564868,564868,772,1039,680,1010,949,549,774,790
17:37:31.565896,565896,772,1039,680,1010,949,549,774,790
17:37:31.566854,566854,772,1039,680,1010,949,549,774,790
17:37:31.567891,567891,772,1039,680,1010,949,549,774,790
17:37:31.568889,568889,772,1039,680,1010,949,549,774,790
17:37:31.569864,569864,772,1039,680,1010,949,549,774,790
17:37:31.570853,570853,772,1039,680,1010,949,549,774,790
17:37:31.571889,571889,772,1039,680,1010,949,549,774,790
17:37:31.572888,572888,772,1039,680,1010,949,549,774,790
17:37:31.573889,573889,772,1039,680,1010,949,549,774,790
17:37:31.573889,573889,653,1070,574,944,869,451,744,691
17:37:31.573889,573889,538,1038,471,886,786,455,706,620
17:37:31.573889,573889,449,968,370,860,745,410,637,548
17:37:31.573889,573889,366,866,287,772,667,312,542,562
17:37:31.574898,574898,366,866,287,772,667,312,542,562
17:37:31.575851,575851,366,866,287,772,667,312,542,562
17:37:31.576889,576889,366,866,287,772,667,312,542,562
17:37:31.577889,577889,366,866,287,772,667,312,542,562
17:37:31.578853,578853,366,866,287,772,667,312,542,562
17:37:31.579889,579889,366,866,287,772,667,312,542,562
17:37:31.580888,580888,366,866,287,772,667,312,542,562
17:37:31.581889,581889,366,866,287,772,667,312,542,562
17:37:31.582888,582888,366,866,287,772,667,312,542,562
17:37:31.583901,583901,366,866,287,772,667,312,542,562
17:37:31.584907,584907,366,866,287,772,667,312,542,562
17:37:31.585899,585899,366,866,287,772,667,312,542,562
17:37:31.586851,586851,366,866,287,772,667,312,542,562
17:37:31.587854,587854,366,866,287,772,667,312,542,562
17:37:31.588892,588892,366,866,287,772,667,312,542,562
17:37:31.589853,589853,366,866,287,772,667,312,542,562
17:37:31.590856,590856,366,866,287,772,667,312,542,562
17:37:31.591855,591855,366,866,287,772,667,312,542,562
17:37:31.592854,592854,366,866,287,772,667,312,542,562
17:37:31.593855,593855,366,866,287,772,667,312,542,562
17:37:31.594854,594854,366,866,287,772,667,312,542,562
17:37:31.595850,595850,366,866,287,772,667,312,542,562
17:37:31.596855,596855,366,866,287,772,667,312,542,562
17:37:31.597854,597854,366,866,287,772,667,312,542,562
17:37:31.598850,598850,366,866,287,772,667,312,542,562
17:37:31.599855,599855,366,866,287,772,667,312,542,562
17:37:31.600854,600854,366,866,287,772,667,312,542,562
17:37:31.601855,601855,366,866,287,772,667,312,542,562
17:37:31.602854,602854,366,866,287,772,667,312,542,562
17:37:31.603855,603855,366,866,287,772,667,312,542,562
17:37:31.604854,604854,366,866,287,772,667,312,542,562
17:37:31.605855,605855,366,866,287,772,667,312,542,562
17:37:31.605855,605855,413,518,75,629,497,212,217,270
17:37:31.606852,606852,413,518,75,629,497,212,217,270
17:37:31.607850,607850,413,518,75,629,497,212,217,270
17:37:31.608850,608850,413,518,75,629,497,212,217,270
17:37:31.609850,609850,413,518,75,629,497,212,217,270
17:37:31.610850,610850,413,518,75,629,497,212,217,270
17:37:31.611850,611850,413,518,75,629,497,212,217,270
17:37:31.612850,612850,413,518,75,629,497,212,217,270
17:37:31.613851,613851,413,518,75,629,497,212,217,270
17:37:31.614850,614850,413,518,75,629,497,212,217,270
17:37:31.615849,615849,413,518,75,629,497,212,217,270
17:37:31.616851,616851,413,518,75,629,497,212,217,270
17:37:31.617850,617850,413,518,75,629,497,212,217,270
17:37:31.618850,618850,413,518,75,629,497,212,217,270
17:37:31.619850,619850,413,518,75,629,497,212,217,270
17:37:31.620849,620849,413,518,75,629,497,212,217,270
17:37:31.621850,621850,429,404,44,552,434,175,186,234
17:37:31.622853,622853,429,404,44,552,434,175,186,234
17:37:31.623889,623889,429,404,44,552,434,175,186,234
17:37:31.624855,624855,429,404,44,552,434,175,186,234
17:37:31.625853,625853,429,404,44,552,434,175,186,234
17:37:31.626886,626886,429,404,44,552,434,175,186,234
17:37:31.627888,627888,429,404,44,552,434,175,186,234
17:37:31.628898,628898,429,404,44,552,434,175,186,234
17:37:31.629853,629853,429,404,44,552,434,175,186,234
17:37:31.630851,630851,429,404,44,552,434,175,186,234
17:37:31.631853,631853,429,404,44,552,434,175,186,234
17:37:31.632888,632888,429,404,44,552,434,175,186,234
17:37:31.633890,633890,429,404,44,552,434,175,186,234
17:37:31.634887,634887,429,404,44,552,434,175,186,234
17:37:31.635888,635888,429,404,44,552,434,175,186,234
17:37:31.636888,636888,429,404,44,552,434,175,186,234
17:37:31.636888,636888,395,385,40,472,449,141,187,195
17:37:31.637853,637853,395,385,40,472,449,141,187,195
17:37:31.638889,638889,395,385,40,472,449,141,187,195
17:37:31.639888,639888,395,385,40,472,449,141,187,195
17:37:31.640888,640888,395,385,40,472,449,141,187,195
17:37:31.641853,641853,395,385,40,472,449,141,187,195
17:37:31.642888,642888,395,385,40,472,449,141,187,195
17:37:31.643890,643890,395,385,40,472,449,141,187,195
17:37:31.644888,644888,395,385,40,472,449,141,187,195
17:37:31.645850,645850,395,385,40,472,449,141,187,195
17:37:31.646853,646853,395,385,40,472,449,141,187,195
17:37:31.647851,647851,319,299,24,371,501,95,223,138
17:37:31.648888,648888,319,299,24,371,501,95,223,138
17:37:31.649898,649898,319,299,24,371,501,95,223,138
17:37:31.650853,650853,319,299,24,371,501,95,223,138
17:37:31.651891,651891,319,299,24,371,501,95,223,138
17:37:31.652887,652887,319,299,24,371,501,95,223,138
17:37:31.653859,653859,319,299,24,371,501,95,223,138
17:37:31.654851,654851,319,299,24,371,501,95,223,138
17:37:31.655853,655853,319,299,24,371,501,95,223,138
17:37:31.656878,656878,319,299,24,371,501,95,223,138
17:37:31.657876,657876,319,299,24,371,501,95,223,138
17:37:31.658875,658875,319,299,24,371,501,95,223,138
17:37:31.659877,659877,319,299,24,371,501,95,223,138
17:37:31.660879,660879,319,299,24,371,501,95,223,138
17:37:31.661851,661851,319,299,24,371,501,95,223,138
17:37:31.662850,662850,319,299,24,371,501,95,223,138
17:37:31.663877,663877,319,299,24,371,501,95,223,138
17:37:31.664852,664852,319,299,24,371,501,95,223,138
17:37:31.665852,665852,319,299,24,371,501,95,223,138
17:37:31.666854,666854,319,299,24,371,501,95,223,138
17:37:31.667880,667880,319,299,24,371,501,95,223,138
17:37:31.668878,668878,319,299,24,371,501,95,223,138
17:37:31.668878,668878,206,275,25,364,444,93,202,110
17:37:31.669851,669851,206,275,25,364,444,93,202,110
17:37:31.670850,670850,206,275,25,364,444,93,202,110
17:37:31.671850,671850,206,275,25,364,444,93,202,110
17:37:31.672850,672850,206,275,25,364,444,93,202,110
17:37:31.673850,673850,206,275,25,364,444,93,202,110
17:37:31.674850,674850,206,275,25,364,444,93,202,110
17:37:31.675851,675851,206,275,25,364,444,93,202,110
17:37:31.676850,676850,206,275,25,364,444,93,202,110
17:37:31.677850,677850,206,275,25,364,444,93,202,110
17:37:31.678850,678850,206,275,25,364,444,93,202,110
17:37:31.679851,679851,206,275,25,364,444,93,202,110
17:37:31.680850,680850,206,275,25,364,444,93,202,110
17:37:31.681850,681850,206,275,25,364,444,93,202,110
17:37:31.682851,682851,206,275,25,364,444,93,202,110
17:37:31.683850,683850,206,275,25,364,444,93,202,110
17:37:31.684849,684849,206,275,25,364,444,93,202,110
17:37:31.684849,684849,97,90,19,214,290,95,109,74
17:37:31.684849,684849,94,99,19,206,315,93,95,60
17:37:31.685889,685889,94,99,19,206,315,93,95,60
17:37:31.686888,686888,94,99,19,206,315,93,95,60
17:37:31.687853,687853,94,99,19,206,315,93,95,60
17:37:31.688893,688893,94,99,19,206,315,93,95,60
17:37:31.689888,689888,94,99,19,206,315,93,95,60
17:37:31.690886,690886,94,99,19,206,315,93,95,60
17:37:31.691853,691853,94,99,19,206,315,93,95,60
17:37:31.692853,692853,94,99,19,206,315,93,95,60
17:37:31.693851,693851,94,99,19,206,315,93,95,60
17:37:31.694853,694853,94,99,19,206,315,93,95,60
17:37:31.695850,695850,94,99,19,206,315,93,95,60
17:37:31.696889,696889,94,99,19,206,315,93,95,60
17:37:31.697890,697890,94,99,19,206,315,93,95,60
17:37:31.698855,698855,94,99,19,206,315,93,95,60
17:37:31.699853,699853,94,99,19,206,315,93,95,60
17:37:31.700851,700851,94,99,19,206,315,93,95,60
17:37:31.700851,700851,105,84,18,193,338,99,90,63
17:37:31.701887,701887,105,84,18,193,338,99,90,63
17:37:31.702854,702854,105,84,18,193,338,99,90,63
17:37:31.703875,703875,105,84,18,193,338,99,90,63
17:37:31.704851,704851,105,84,18,193,338,99,90,63
17:37:31.705850,705850,105,84,18,193,338,99,90,63
17:37:31.706888,706888,105,84,18,193,338,99,90,63
17:37:31.707852,707852,105,84,18,193,338,99,90,63
17:37:31.708888,708888,105,84,18,193,338,99,90,63
17:37:31.709899,709899,105,84,18,193,338,99,90,63
17:37:31.710901,710901,105,84,18,193,338,99,90,63
17:37:31.711901,711901,105,84,18,193,338,99,90,63
17:37:31.712853,712853,105,84,18,193,338,99,90,63
17:37:31.713889,713889,105,84,18,193,338,99,90,63
17:37:31.714899,714899,105,84,18,193,338,99,90,63
17:37:31.715899,715899,105,84,18,193,338,99,90,63
17:37:31.716853,716853,105,84,18,193,338,99,90,63
17:37:31.717136,717136,112,82,15,203,431,79,121,56
17:37:31.717136,717136,95,52,10,179,439,69,93,75
17:37:31.717888,717888,95,52,10,179,439,69,93,75
17:37:31.718887,718887,95,52,10,179,439,69,93,75
17:37:31.720223,720223,95,52,10,179,439,69,93,75
17:37:31.721259,721259,95,52,10,179,439,69,93,75
17:37:31.722224,722224,95,52,10,179,439,69,93,75
17:37:31.723263,723263,95,52,10,179,439,69,93,75
17:37:31.724223,724223,95,52,10,179,439,69,93,75
17:37:31.725224,725224,95,52,10,179,439,69,93,75
17:37:31.726256,726256,95,52,10,179,439,69,93,75
17:37:31.727224,727224,95,52,10,179,439,69,93,75
17:37:31.728224,728224,95,52,10,179,439,69,93,75
17:37:31.729225,729225,95,52,10,179,439,69,93,75
17:37:31.730260,730260,95,52,10,179,439,69,93,75
17:37:31.731261,731261,95,52,10,179,439,69,93,75
17:37:31.732223,732223,95,52,10,179,439,69,93,75
17:37:31.733252,733252,95,52,10,179,439,69,93,75
17:37:31.734258,734258,95,52,10,179,439,69,93,75
17:37:31.735269,735269,95,52,10,179,439,69,93,75
17:37:31.736221,736221,95,52,10,179,439,69,93,75
17:37:31.737270,737270,95,52,10,179,439,69,93,75
17:37:31.738259,738259,95,52,10,179,439,69,93,75
17:37:31.739252,739252,95,52,10,179,439,69,93,75
17:37:31.740263,740263,95,52,10,179,439,69,93,75
17:37:31.741259,741259,95,52,10,179,439,69,93,75
17:37:31.742261,742261,95,52,10,179,439,69,93,75
17:37:31.743258,743258,95,52,10,179,439,69,93,75
17:37:31.744223,744223,95,52,10,179,439,69,93,75
17:37:31.745221,745221,95,52,10,179,439,69,93,75
17:37:31.746222,746222,95,52,10,179,439,69,93,75
17:37:31.747223,747223,95,52,10,179,439,69,93,75
17:37:31.748272,748272,95,52,10,179,439,69,93,75
17:37:31.748272,748272,114,61,11,168,443,80,88,66
17:37:31.748272,748272,76,57,21,146,304,85,81,88
17:37:31.749261,749261,76,57,21,146,304,85,81,88
17:37:31.750224,750224,76,57,21,146,304,85,81,88
17:37:31.751222,751222,76,57,21,146,304,85,81,88
17:37:31.752258,752258,76,57,21,146,304,85,81,88
17:37:31.753259,753259,76,57,21,146,304,85,81,88
17:37:31.754226,754226,76,57,21,146,304,85,81,88
17:37:31.755223,755223,76,57,21,146,304,85,81,88
17:37:31.756259,756259,76,57,21,146,304,85,81,88
17:37:31.757258,757258,76,57,21,146,304,85,81,88
17:37:31.758260,758260,76,57,21,146,304,85,81,88
17:37:31.759258,759258,76,57,21,146,304,85,81,88
17:37:31.760267,760267,76,57,21,146,304,85,81,88
17:37:31.761258,761258,76,57,21,146,304,85,81,88
17:37:31.762259,762259,76,57,21,146,304,85,81,88
17:37:31.763223,763223,76,57,21,146,304,85,81,88
17:37:31.764259,764259,76,57,21,146,304,85,81,88
17:37:31.764259,764259,56,70,35,131,276,94,74,87
17:37:31.765269,765269,56,70,35,131,276,94,74,87
17:37:31.766223,766223,56,70,35,131,276,94,74,87
17:37:31.767261,767261,56,70,35,131,276,94,74,87
17:37:31.768260,768260,56,70,35,131,276,94,74,87
17:37:31.769270,769270,56,70,35,131,276,94,74,87
17:37:31.770270,770270,56,70,35,131,276,94,74,87
17:37:31.771270,771270,56,70,35,131,276,94,74,87
17:37:31.772270,772270,56,70,35,131,276,94,74,87
17:37:31.773270,773270,56,70,35,131,276,94,74,87
17:37:31.774261,774261,56,70,35,131,276,94,74,87
17:37:31.775224,775224,56,70,35,131,276,94,74,87
17:37:31.776261,776261,56,70,35,131,276,94,74,87
17:37:31.777258,777258,56,70,35,131,276,94,74,87
17:37:31.778258,778258,56,70,35,131,276,94,74,87
17:37:31.779222,779222,56,70,35,131,276,94,74,87
17:37:31.780255,780255,56,70,35,131,276,94,74,87
17:37:31.780255,780255,57,63,84,126,310,79,71,65
17:37:31.781269,781269,57,63,84,126,310,79,71,65
17:37:31.782223,782223,57,63,84,126,310,79,71,65
17:37:31.783266,783266,57,63,84,126,310,79,71,65
17:37:31.784269,784269,57,63,84,126,310,79,71,65
17:37:31.785269,785269,57,63,84,126,310,79,71,65
17:37:31.786271,786271,57,63,84,126,310,79,71,65
17:37:31.787269,787269,57,63,84,126,310,79,71,65
17:37:31.788263,788263,57,63,84,126,310,79,71,65
17:37:31.789262,789262,57,63,84,126,310,79,71,65
17:37:31.790279,790279,57,63,84,126,310,79,71,65
17:37:31.791271,791271,57,63,84,126,310,79,71,65
17:37:31.792261,792261,57,63,84,126,310,79,71,65
17:37:31.793259,793259,57,63,84,126,310,79,71,65
17:37:31.794263,794263,57,63,84,126,310,79,71,65
17:37:31.795260,795260,57,63,84,126,310,79,71,65
17:37:31.795260,795260,63,60,115,121,270,61,75,75
17:37:31.796222,796222,63,60,115,121,270,61,75,75
17:37:31.797221,797221,63,60,115,121,270,61,75,75
17:37:31.798259,798259,63,60,115,121,270,61,75,75
17:37:31.799262,799262,63,60,115,121,270,61,75,75
17:37:31.800224,800224,63,60,115,121,270,61,75,75
17:37:31.801258,801258,63,60,115,121,270,61,75,75
17:37:31.802259,802259,63,60,115,121,270,61,75,75
17:37:31.803258,803258,63,60,115,121,270,61,75,75
17:37:31.804222,804222,63,60,115,121,270,61,75,75
17:37:31.805223,805223,63,60,115,121,270,61,75,75
17:37:31.806261,806261,63,60,115,121,270,61,75,75
17:37:31.807258,807258,63,60,115,121,270,61,75,75
17:37:31.808258,808258,63,60,115,121,270,61,75,75
17:37:31.809258,809258,63,60,115,121,270,61,75,75
17:37:31.810272,810272,63,60,115,121,270,61,75,75
17:37:31.811271,811271,63,60,115,121,270,61,75,75
17:37:31.811271,811271,75,37,140,113,373,65,53,46
17:37:31.812277,812277,75,37,140,113,373,65,53,46
17:37:31.813223,813223,75,37,140,113,373,65,53,46
17:37:31.814270,814270,75,37,140,113,373,65,53,46
17:37:31.815270,815270,75,37,140,113,373,65,53,46
17:37:31.816258,816258,75,37,140,113,373,65,53,46
17:37:31.817258,817258,75,37,140,113,373,65,53,46
17:37:31.818258,818258,75,37,140,113,373,65,53,46
17:37:31.819224,819224,75,37,140,113,373,65,53,46
17:37:31.820224,820224,75,37,140,113,373,65,53,46
17:37:31.821258,821258,75,37,140,113,373,65,53,46
17:37:31.822265,822265,75,37,140,113,373,65,53,46
17:37:31.823263,823263,75,37,140,113,373,65,53,46
17:37:31.824270,824270,75,37,140,113,373,65,53,46
17:37:31.825224,825224,75,37,140,113,373,65,53,46
17:37:31.826258,826258,75,37,140,113,373,65,53,46
17:37:31.827260,827260,75,37,140,113,373,65,53,46
17:37:31.827260,827260,63,30,105,123,374,76,52,41
17:37:31.828258,828258,63,30,105,123,374,76,52,41
17:37:31.829223,829223,63,30,105,123,374,76,52,41
17:37:31.830223,830223,63,30,105,123,374,76,52,41
17:37:31.831270,831270,63,30,105,123,374,76,52,41
17:37:31.832269,832269,63,30,105,123,374,76,52,41
17:37:31.833270,833270,63,30,105,123,374,76,52,41
17:37:31.834221,834221,63,30,105,123,374,76,52,41
17:37:31.835223,835223,63,30,105,123,374,76,52,41
17:37:31.836258,836258,63,30,105,123,374,76,52,41
17:37:31.837258,837258,63,30,105,123,374,76,52,41
17:37:31.838260,838260,63,30,105,123,374,76,52,41
17:37:31.839253,839253,63,30,105,123,374,76,52,41
17:37:31.840261,840261,63,30,105,123,374,76,52,41
17:37:31.841259,841259,63,30,105,123,374,76,52,41
17:37:31.842259,842259,63,30,105,123,374,76,52,41
17:37:31.843270,843270,63,30,105,123,374,76,52,41
17:37:31.843270,843270,67,32,119,100,369,81,48,51
17:37:31.843270,843270,69,31,117,101,389,83,53,53
17:37:31.843270,843270,55,35,105,98,358,74,48,90
17:37:31.843270,843270,58,38,113,83,372,68,61,165
17:37:31.844222,844222,58,38,113,83,372,68,61,165
17:37:31.845221,845221,58,38,113,83,372,68,61,165
17:37:31.846221,846221,58,38,113,83,372,68,61,165
17:37:31.847221,847221,58,38,113,83,372,68,61,165
17:37:31.848221,848221,58,38,113,83,372,68,61,165
17:37:31.849221,849221,58,38,113,83,372,68,61,165
17:37:31.850221,850221,58,38,113,83,372,68,61,165
17:37:31.851220,851220,58,38,113,83,372,68,61,165
17:37:31.852221,852221,58,38,113,83,372,68,61,165
17:37:31.853220,853220,58,38,113,83,372,68,61,165
17:37:31.854220,854220,58,38,113,83,372,68,61,165
17:37:31.855221,855221,58,38,113,83,372,68,61,165
17:37:31.856221,856221,58,38,113,83,372,68,61,165
17:37:31.857221,857221,58,38,113,83,372,68,61,165
17:37:31.858221,858221,58,38,113,83,372,68,61,165
17:37:31.859221,859221,58,38,113,83,372,68,61,165
17:37:31.860221,860221,58,38,113,83,372,68,61,165
17:37:31.861221,861221,58,38,113,83,372,68,61,165
17:37:31.862221,862221,58,38,113,83,372,68,61,165
17:37:31.863221,863221,58,38,113,83,372,68,61,165
17:37:31.864221,864221,58,38,113,83,372,68,61,165
17:37:31.865220,865220,58,38,113,83,372,68,61,165
17:37:31.866223,866223,58,38,113,83,372,68,61,165
17:37:31.867221,867221,58,38,113,83,372,68,61,165
17:37:31.868221,868221,58,38,113,83,372,68,61,165
17:37:31.869220,869220,58,38,113,83,372,68,61,165
17:37:31.870221,870221,58,38,113,83,372,68,61,165
17:37:31.871220,871220,58,38,113,83,372,68,61,165
17:37:31.872220,872220,58,38,113,83,372,68,61,165
17:37:31.873221,873221,58,38,113,83,372,68,61,165
17:37:31.874221,874221,58,38,113,83,372,68,61,165
17:37:31.875221,875221,58,38,113,83,372,68,61,165
17:37:31.875221,875221,47,41,77,77,342,81,57,168
17:37:31.876258,876258,47,41,77,77,342,81,57,168
17:37:31.877226,877226,47,41,77,77,342,81,57,168
17:37:31.878259,878259,47,41,77,77,342,81,57,168
17:37:31.879223,879223,47,41,77,77,342,81,57,168
17:37:31.880253,880253,47,41,77,77,342,81,57,168
17:37:31.881259,881259,47,41,77,77,342,81,57,168
17:37:31.882266,882266,47,41,77,77,342,81,57,168
17:37:31.883223,883223,47,41,77,77,342,81,57,168
17:37:31.884257,884257,47,41,77,77,342,81,57,168
17:37:31.885251,885251,47,41,77,77,342,81,57,168
17:37:31.886222,886222,47,41,77,77,342,81,57,168
17:37:31.887259,887259,47,41,77,77,342,81,57,168
17:37:31.888261,888261,47,41,77,77,342,81,57,168
17:37:31.889258,889258,47,41,77,77,342,81,57,168
17:37:31.890259,890259,47,41,77,77,342,81,57,168
17:37:31.890259,890259,55,37,62,79,356,105,53,95
17:37:31.891222,891222,55,37,62,79,356,105,53,95
17:37:31.892265,892265,55,37,62,79,356,105,53,95
17:37:31.893223,893223,55,37,62,79,356,105,53,95
17:37:31.894259,894259,55,37,62,79,356,105,53,95
17:37:31.895261,895261,55,37,62,79,356,105,53,95
17:37:31.896258,896258,55,37,62,79,356,105,53,95
17:37:31.897259,897259,55,37,62,79,356,105,53,95
17:37:31.898258,898258,55,37,62,79,356,105,53,95
17:37:31.912274,912274,49,37,49,147,503,143,47,80
17:37:31.912274,912274,47,36,48,164,528,152,46,83
17:37:31.912274,912274,54,38,53,143,441,142,54,84
17:37:31.913222,913222,54,38,53,143,441,142,54,84
17:37:31.914259,914259,54,38,53,143,441,142,54,84
17:37:31.915260,915260,54,38,53,143,441,142,54,84
17:37:31.916222,916222,54,38,53,143,441,142,54,84
17:37:31.917221,917221,54,38,53,143,441,142,54,84
17:37:31.918221,918221,54,38,53,143,441,142,54,84
17:37:31.919258,919258,54,38,53,143,441,142,54,84
17:37:31.920260,920260,54,38,53,143,441,142,54,84
17:37:31.921259,921259,54,38,53,143,441,142,54,84
17:37:31.922259,922259,54,38,53,143,441,142,54,84
17:37:31.922259,922259,45,37,50,147,380,112,54,87
17:37:31.923223,923223,45,37,50,147,380,112,54,87
17:37:31.924221,924221,45,37,50,147,380,112,54,87
17:37:31.925223,925223,45,37,50,147,380,112,54,87
17:37:31.926258,926258,45,37,50,147,380,112,54,87
17:37:31.927224,927224,45,37,50,147,380,112,54,87
17:37:31.928258,928258,45,37,50,147,380,112,54,87
17:37:31.929221,929221,45,37,50,147,380,112,54,87
17:37:31.930223,930223,45,37,50,147,380,112,54,87
17:37:31.931223,931223,45,37,50,147,380,112,54,87
17:37:31.932263,932263,45,37,50,147,380,112,54,87
17:37:31.933237,933237,45,37,50,147,380,112,54,87
17:37:31.934269,934269,45,37,50,147,380,112,54,87
17:37:31.935269,935269,45,37,50,147,380,112,54,87
17:37:31.936269,936269,45,37,50,147,380,112,54,87
17:37:31.937269,937269,45,37,50,147,380,112,54,87
17:37:31.938258,938258,45,37,50,147,380,112,54,87
17:37:31.938258,938258,42,34,40,170,370,134,55,69
17:37:31.939222,939222,42,34,40,170,370,134,55,69
17:37:31.940221,940221,42,34,40,170,370,134,55,69
17:37:31.941221,941221,42,34,40,170,370,134,55,69
17:37:31.942221,942221,42,34,40,170,370,134,55,69
17:37:31.943221,943221,42,34,40,170,370,134,55,69
17:37:31.944221,944221,42,34,40,170,370,134,55,69
17:37:31.945221,945221,42,34,40,170,370,134,55,69
17:37:31.946222,946222,42,34,40,170,370,134,55,69
17:37:31.947221,947221,42,34,40,170,370,134,55,69
17:37:31.948221,948221,42,34,40,170,370,134,55,69
17:37:31.949221,949221,42,34,40,170,370,134,55,69
17:37:31.950221,950221,42,34,40,170,370,134,55,69
17:37:31.951221,951221,42,34,40,170,370,134,55,69
17:37:31.952220,952220,42,34,40,170,370,134,55,69
17:37:31.953220,953220,42,34,40,170,370,134,55,69
17:37:31.954220,954220,44,30,46,153,364,109,44,68
17:37:31.955259,955259,44,30,46,153,364,109,44,68
17:37:31.956259,956259,44,30,46,153,364,109,44,68
17:37:31.957258,957258,44,30,46,153,364,109,44,68
17:37:31.958258,958258,44,30,46,153,364,109,44,68
17:37:31.959265,959265,44,30,46,153,364,109,44,68
17:37:31.960258,960258,44,30,46,153,364,109,44,68
17:37:31.961258,961258,44,30,46,153,364,109,44,68
17:37:31.962258,962258,44,30,46,153,364,109,44,68
17:37:31.963223,963223,44,30,46,153,364,109,44,68
17:37:31.964259,964259,44,30,46,153,364,109,44,68
17:37:31.965277,965277,44,30,46,153,364,109,44,68
17:37:31.966261,966261,44,30,46,153,364,109,44,68
17:37:31.967258,967258,44,30,46,153,364,109,44,68
17:37:31.968260,968260,44,30,46,153,364,109,44,68
17:37:31.969251,969251,44,30,46,153,364,109,44,68
17:37:31.970258,970258,43,24,39,166,458,108,40,60
17:37:31.971225,971225,43,24,39,166,458,108,40,60
17:37:31.972258,972258,43,24,39,166,458,108,40,60
17:37:31.973260,973260,43,24,39,166,458,108,40,60
17:37:31.974258,974258,43,24,39,166,458,108,40,60
17:37:31.975224,975224,43,24,39,166,458,108,40,60
17:37:31.976222,976222,43,24,39,166,458,108,40,60
17:37:31.977223,977223,43,24,39,166,458,108,40,60
17:37:31.978265,978265,43,24,39,166,458,108,40,60
17:37:31.979224,979224,43,24,39,166,458,108,40,60
17:37:31.980223,980223,43,24,39,166,458,108,40,60
17:37:31.981258,981258,43,24,39,166,458,108,40,60
17:37:31.982223,982223,43,24,39,166,458,108,40,60
17:37:31.983258,983258,43,24,39,166,458,108,40,60
17:37:31.984223,984223,43,24,39,166,458,108,40,60
17:37:31.985223,985223,43,24,39,166,458,108,40,60
17:37:31.985223,985223,50,34,53,153,525,131,21,71
17:37:31.986258,986258,50,34,53,153,525,131,21,71
17:37:31.987259,987259,50,34,53,153,525,131,21,71
17:37:31.988258,988258,50,34,53,153,525,131,21,71
17:37:31.989270,989270,50,34,53,153,525,131,21,71
17:37:31.990222,990222,50,34,53,153,525,131,21,71
17:37:31.991260,991260,50,34,53,153,525,131,21,71
17:37:31.992259,992259,50,34,53,153,525,131,21,71
17:37:31.993258,993258,50,34,53,153,525,131,21,71
17:37:31.994259,994259,50,34,53,153,525,131,21,71
17:37:31.995260,995260,50,34,53,153,525,131,21,71
17:37:31.996262,996262,50,34,53,153,525,131,21,71
17:37:31.997259,997259,50,34,53,153,525,131,21,71
17:37:31.998256,998256,50,34,53,153,525,131,21,71
17:37:31.999258,999258,50,34,53,153,525,131,21,71
17:37:32.000224,000224,50,34,53,153,525,131,21,71
17:37:32.001223,001223,50,34,53,153,525,131,21,71
17:37:32.002258,002258,50,34,53,153,525,131,21,71
17:37:32.003259,003259,50,34,53,153,525,131,21,71
17:37:32.004222,004222,50,34,53,153,525,131,21,71
17:37:32.005259,005259,50,34,53,153,525,131,21,71
17:37:32.006264,006264,50,34,53,153,525,131,21,71
17:37:32.007258,007258,50,34,53,153,525,131,21,71
17:37:32.008259,008259,50,34,53,153,525,131,21,71
17:37:32.009258,009258,50,34,53,153,525,131,21,71
17:37:32.010257,010257,50,34,53,153,525,131,21,71
17:37:32.011222,011222,50,34,53,153,525,131,21,71
17:37:32.012262,012262,50,34,53,153,525,131,21,71
17:37:32.013222,013222,50,34,53,153,525,131,21,71
17:37:32.014259,014259,50,34,53,153,525,131,21,71
17:37:32.015259,015259,50,34,53,153,525,131,21,71
17:37:32.016261,016261,50,34,53,153,525,131,21,71
17:37:32.017223,017223,50,34,53,153,525,131,21,71
17:37:32.018258,018258,50,34,53,153,525,131,21,71
17:37:32.019221,019221,50,34,53,153,525,131,21,71
17:37:32.020258,020258,50,34,53,153,525,131,21,71
17:37:32.021222,021222,50,34,53,153,525,131,21,71
17:37:32.022263,022263,50,34,53,153,525,131,21,71
17:37:32.023221,023221,50,34,53,153,525,131,21,71
17:37:32.024258,024258,50,34,53,153,525,131,21,71
17:37:32.025224,025224,50,34,53,153,525,131,21,71
17:37:32.026223,026223,50,34,53,153,525,131,21,71
17:37:32.027248,027248,50,34,53,153,525,131,21,71
17:37:32.028221,028221,50,34,53,153,525,131,21,71
17:37:32.029223,029223,50,34,53,153,525,131,21,71
17:37:32.030251,030251,50,34,53,153,525,131,21,71
17:37:32.031251,031251,50,34,53,153,525,131,21,71
17:37:32.032261,032261,50,34,53,153,525,131,21,71
17:37:32.032261,032261,49,37,47,122,544,133,23,66
17:37:32.033253,033253,49,37,47,122,544,133,23,66
17:37:32.034258,034258,49,37,47,122,544,133,23,66
17:37:32.035258,035258,49,37,47,122,544,133,23,66
17:37:32.036258,036258,49,37,47,122,544,133,23,66
17:37:32.037249,037249,49,37,47,122,544,133,23,66
17:37:32.038248,038248,49,37,47,122,544,133,23,66
17:37:32.039253,039253,49,37,47,122,544,133,23,66
17:37:32.040249,040249,49,37,47,122,544,133,23,66
17:37:32.041247,041247,49,37,47,122,544,133,23,66
17:37:32.042249,042249,49,37,47,122,544,133,23,66
17:37:32.043248,043248,49,37,47,122,544,133,23,66
17:37:32.044254,044254,49,37,47,122,544,133,23,66
17:37:32.045223,045223,49,37,47,122,544,133,23,66
17:37:32.046223,046223,49,37,47,122,544,133,23,66
17:37:32.047250,047250,49,37,47,122,544,133,23,66
17:37:32.048250,048250,45,37,47,113,404,128,29,55
17:37:32.048250,048250,33,30,39,103,418,128,30,57
17:37:32.048250,048250,36,36,40,106,482,117,36,49
17:37:32.048250,048250,36,37,40,130,468,86,45,28
17:37:32.048250,048250,40,32,37,147,456,87,44,26
17:37:32.049223,049223,45,34,44,143,422,107,44,20
17:37:32.050221,050221,45,34,44,143,422,107,44,20
17:37:32.051234,051234,45,34,44,143,422,107,44,20
17:37:32.052248,052248,45,34,44,143,422,107,44,20
