EMG 1,EMG 2,EMG 3,EMG 4,EMG 5,EMG 6,EMG 7,EMG 8,Timestamp,Milliseconds
-4,-4,-6,-6,-10,-8,-4,-2,2021-08-06 13:56:10,422283
-1,0,0,-8,-8,-3,-2,0,2021-08-06 13:56:10,422283
2,4,13,25,12,4,0,2,2021-08-06 13:56:10,422283
1,3,1,10,-2,-3,-2,-1,2021-08-06 13:56:10,422283
-1,-3,-7,-30,-6,-2,-1,-1,2021-08-06 13:56:10,422283
0,-1,-5,9,5,7,5,2,2021-08-06 13:56:10,422283
0,-1,-7,-17,-9,-5,0,0,2021-08-06 13:56:10,422283
-3,-4,-3,-3,-15,-8,-3,-2,2021-08-06 13:56:10,422283
4,7,15,43,48,23,9,5,2021-08-06 13:56:10,437283
-4,-4,-1,-7,1,-1,-4,-5,2021-08-06 13:56:10,437283
0,0,-1,5,20,11,3,0,2021-08-06 13:56:10,437283
-3,-1,2,1,-9,-9,-3,-4,2021-08-06 13:56:10,437283
-3,-3,-5,-7,-23,-15,-8,-3,2021-08-06 13:56:10,452282
-1,-3,-16,-36,-48,-22,-10,-4,2021-08-06 13:56:10,452282
3,6,5,6,30,20,9,5,2021-08-06 13:56:10,468282
-1,-2,-3,-7,8,3,2,1,2021-08-06 13:56:10,468282
-6,-7,-3,1,-5,-4,-3,-5,2021-08-06 13:56:10,468282
5,8,13,30,10,0,3,4,2021-08-06 13:56:10,468282
2,5,4,6,-17,-6,0,2,2021-08-06 13:56:10,498796
3,3,-1,15,13,11,5,3,2021-08-06 13:56:10,498796
-3,-6,-15,-56,-11,-3,-3,-3,2021-08-06 13:56:10,498796
-3,-4,-5,-5,0,-3,-3,-1,2021-08-06 13:56:10,498796
-5,-8,-6,-7,-21,-13,-8,-4,2021-08-06 13:56:10,514796
-4,-3,-1,-14,-21,-13,-6,-3,2021-08-06 13:56:10,530798
2,4,11,26,-3,0,3,2,2021-08-06 13:56:10,546835
0,-1,-10,-16,-8,-6,-4,-2,2021-08-06 13:56:10,546835
-3,-8,-18,-55,-26,-14,-6,-4,2021-08-06 13:56:10,546835
0,-1,-9,0,3,4,1,1,2021-08-06 13:56:10,546835
3,4,7,15,28,11,4,2,2021-08-06 13:56:10,546835
3,6,9,20,5,1,1,2,2021-08-06 13:56:10,546835
-6,-2,3,6,-13,-10,-7,-6,2021-08-06 13:56:10,546835
-4,-4,-7,-19,-19,-12,-7,-3,2021-08-06 13:56:10,546835
-1,-4,-16,-9,1,-2,-4,-1,2021-08-06 13:56:10,562795
4,2,5,15,10,8,7,4,2021-08-06 13:56:10,562795
-2,-5,-11,-36,-10,-4,-3,-2,2021-08-06 13:56:10,562795
-2,-1,10,6,-4,-5,-2,0,2021-08-06 13:56:10,562795
-1,1,6,7,-4,-4,-2,-3,2021-08-06 13:56:10,594845
-4,-5,-4,1,0,-3,-2,-3,2021-08-06 13:56:10,594845
4,7,11,22,3,4,3,1,2021-08-06 13:56:10,594845
8,10,16,41,54,31,15,7,2021-08-06 13:56:10,594845
-2,-6,-11,-12,-6,0,0,-1,2021-08-06 13:56:10,594845
-6,-8,-15,-45,-33,-18,-9,-6,2021-08-06 13:56:10,594845
-7,-8,-9,-14,-27,-17,-8,-5,2021-08-06 13:56:10,626794
-1,0,1,6,8,4,-1,-1,2021-08-06 13:56:10,626794
1,0,3,1,7,5,1,0,2021-08-06 13:56:10,626794
0,4,12,42,23,11,5,2,2021-08-06 13:56:10,626794
1,2,2,-1,6,6,3,3,2021-08-06 13:56:10,642794
-4,-5,-2,-30,-24,-14,-7,-4,2021-08-06 13:56:10,642794
-6,-10,-26,-21,-14,-8,-5,-4,2021-08-06 13:56:10,642794
-7,-7,-7,-20,-25,-16,-9,-5,2021-08-06 13:56:10,642794
-1,0,6,25,15,3,1,-2,2021-08-06 13:56:10,658794
4,3,8,19,10,5,6,4,2021-08-06 13:56:10,658794
0,5,10,-7,-14,-8,-3,1,2021-08-06 13:56:10,658794
7,9,11,22,41,22,9,6,2021-08-06 13:56:10,658794
-2,-2,-8,-1,-3,-1,-2,-2,2021-08-06 13:56:10,690794
-10,-13,-22,-49,-46,-18,-8,-8,2021-08-06 13:56:10,690794
-2,0,6,11,21,8,1,-2,2021-08-06 13:56:10,690794
-4,-6,-3,-7,-20,-15,-6,-4,2021-08-06 13:56:10,690794
5,8,13,12,12,7,4,3,2021-08-06 13:56:10,690794
4,6,6,26,7,2,1,2,2021-08-06 13:56:10,690794
-5,-6,-4,-20,-18,-9,-3,-2,2021-08-06 13:56:10,706794
0,-2,-3,0,0,-2,-3,0,2021-08-06 13:56:10,706794
0,-3,-3,20,13,4,1,0,2021-08-06 13:56:10,722796
-3,-4,-9,-26,-7,-3,-4,-3,2021-08-06 13:56:10,722796
-1,1,3,-9,-6,-2,1,-1,2021-08-06 13:56:10,722796
-1,-1,-8,-8,-4,0,-1,-3,2021-08-06 13:56:10,722796
-2,-3,3,5,-1,-5,-3,-2,2021-08-06 13:56:10,753795
-2,0,-2,14,1,-5,-5,-3,2021-08-06 13:56:10,769795
5,6,8,3,-1,3,4,5,2021-08-06 13:56:10,801794
-1,-5,-11,-24,-8,-1,-1,-2,2021-08-06 13:56:10,801794
-5,-6,-9,-4,-3,-4,-4,-2,2021-08-06 13:56:10,801794
1,1,3,5,11,4,3,1,2021-08-06 13:56:10,801794
-2,-4,-1,-3,-14,-7,-3,-3,2021-08-06 13:56:10,801794
1,5,13,28,13,7,2,2,2021-08-06 13:56:10,801794
7,9,7,16,26,13,7,6,2021-08-06 13:56:10,801794
-2,-1,-6,-4,9,3,0,0,2021-08-06 13:56:10,801794
-2,-4,-13,-18,-25,-14,-5,-2,2021-08-06 13:56:10,801794
-9,-9,-14,-42,-32,-19,-11,-7,2021-08-06 13:56:10,802797
-4,-2,5,11,11,8,3,-2,2021-08-06 13:56:10,802797
5,6,14,25,25,11,7,4,2021-08-06 13:56:10,802797
-3,-1,-8,11,-7,-9,-4,-5,2021-08-06 13:56:10,802797
0,-1,9,-3,-3,1,0,-1,2021-08-06 13:56:10,802797
-5,-8,-19,-27,-29,-14,-7,-6,2021-08-06 13:56:10,817794
-6,-10,-19,-40,-23,-17,-7,-6,2021-08-06 13:56:10,833794
2,4,7,18,20,12,5,3,2021-08-06 13:56:10,833794
1,0,5,4,-6,-6,-1,-2,2021-08-06 13:56:10,833794
5,6,15,21,21,12,6,2,2021-08-06 13:56:10,833794
1,0,0,3,-7,-1,0,2,2021-08-06 13:56:10,833794
-4,-5,-1,-1,2,-4,-4,-4,2021-08-06 13:56:10,849796
3,5,7,22,23,12,4,4,2021-08-06 13:56:10,865795
2,1,-6,-10,-7,-1,1,2,2021-08-06 13:56:10,881795
-1,-2,-3,-11,-3,0,0,0,2021-08-06 13:56:10,897795
-9,-10,-5,-28,-30,-20,-11,-8,2021-08-06 13:56:10,907794
-3,-2,-4,16,18,9,2,0,2021-08-06 13:56:10,907794
6,11,18,51,29,13,4,2,2021-08-06 13:56:10,907794
3,4,-10,-22,-10,2,1,2,2021-08-06 13:56:10,907794
-9,-17,-31,-74,-33,-19,-12,-9,2021-08-06 13:56:10,908797
-6,-8,-6,-13,-29,-14,-6,-5,2021-08-06 13:56:10,908797
2,1,8,19,25,10,2,0,2021-08-06 13:56:10,908797
1,3,15,36,2,-2,-1,0,2021-08-06 13:56:10,908797
9,15,24,41,33,18,9,8,2021-08-06 13:56:10,908797
-2,-1,3,-8,-14,-5,-1,0,2021-08-06 13:56:10,908797
-6,-8,-30,-28,-21,-12,-5,-2,2021-08-06 13:56:10,929795
-6,-8,-1,-25,-11,-6,-4,-5,2021-08-06 13:56:10,945795
5,4,3,18,24,16,8,4,2021-08-06 13:56:10,961797
-4,-5,-5,-16,-20,-15,-8,-6,2021-08-06 13:56:10,961797
6,10,23,30,15,6,7,5,2021-08-06 13:56:10,961797
3,4,0,23,12,9,3,2,2021-08-06 13:56:10,961797
-1,-2,-16,-43,-23,-7,-3,-1,2021-08-06 13:56:10,961797
-8,-9,-10,-15,-11,-9,-8,-8,2021-08-06 13:56:10,961797
-7,-8,-12,-38,-18,-11,-8,-6,2021-08-06 13:56:10,961797
-1,0,-1,10,-1,-1,-1,-2,2021-08-06 13:56:10,961797
4,9,26,55,23,10,4,3,2021-08-06 13:56:10,962796
9,10,2,9,16,13,8,8,2021-08-06 13:56:10,962796
-7,-12,-29,-70,-40,-16,-10,-7,2021-08-06 13:56:10,993794
-12,-16,-15,-31,-33,-23,-14,-11,2021-08-06 13:56:10,993794
1,3,11,31,40,23,10,6,2021-08-06 13:56:10,993794
-1,0,4,14,7,2,1,-1,2021-08-06 13:56:10,993794
2,2,12,19,2,-3,0,-1,2021-08-06 13:56:10,993794
4,6,7,15,9,7,3,3,2021-08-06 13:56:10,993794
-5,-5,-11,-18,-29,-17,-6,-6,2021-08-06 13:56:11,009794
2,4,2,4,8,7,5,3,2021-08-06 13:56:11,009794
-3,-2,0,4,7,2,-2,-1,2021-08-06 13:56:11,025794
2,4,10,13,18,6,1,2,2021-08-06 13:56:11,040794
6,7,9,37,43,20,7,5,2021-08-06 13:56:11,040794
-2,-4,-16,-12,-13,-6,-2,-2,2021-08-06 13:56:11,040794
-2,-6,-19,-55,-39,-11,-5,-1,2021-08-06 13:56:11,040794
-8,-7,-4,-22,-7,-11,-7,-8,2021-08-06 13:56:11,040794
-1,4,7,23,1,-3,-1,-1,2021-08-06 13:56:11,040794
3,3,0,9,18,9,4,2,2021-08-06 13:56:11,040794
-1,-3,-1,-30,-24,-10,-4,-3,2021-08-06 13:56:11,055795
-6,-8,-21,-16,-12,-8,-4,-4,2021-08-06 13:56:11,055795
-2,-2,1,-1,-1,0,0,-2,2021-08-06 13:56:11,071795
1,3,11,25,14,7,3,1,2021-08-06 13:56:11,071795
3,4,11,33,14,5,4,2,2021-08-06 13:56:11,071795
4,5,12,12,11,8,5,3,2021-08-06 13:56:11,071795
-5,-8,-11,-16,-13,-8,-6,-5,2021-08-06 13:56:11,086795
-4,-5,-5,-15,-16,-11,-6,-3,2021-08-06 13:56:11,086795
8,8,14,32,54,29,14,8,2021-08-06 13:56:11,101796
2,2,5,9,2,1,2,1,2021-08-06 13:56:11,101796
-2,-5,-7,-7,-11,-5,-3,-3,2021-08-06 13:56:11,117796
-4,-6,-4,-12,-8,-6,-5,-4,2021-08-06 13:56:11,117796
2,2,2,0,-4,-3,-1,1,2021-08-06 13:56:11,117796
1,-2,-3,-16,-26,-11,-3,-1,2021-08-06 13:56:11,117796
3,4,3,11,26,11,6,3,2021-08-06 13:56:11,117796
-4,-3,-7,-16,-17,-7,-4,-2,2021-08-06 13:56:11,117796
0,3,12,47,45,17,6,0,2021-08-06 13:56:11,149796
-1,0,2,19,1,-2,-3,-2,2021-08-06 13:56:11,149796
-1,-1,-6,-28,-47,-22,-9,-2,2021-08-06 13:56:11,149796
1,-1,-8,-27,15,11,2,2,2021-08-06 13:56:11,149796
-10,-13,-16,-30,-30,-17,-9,-8,2021-08-06 13:56:11,165825
4,7,14,31,19,11,4,3,2021-08-06 13:56:11,165825
2,2,3,13,8,5,2,3,2021-08-06 13:56:11,165825
-2,-5,-11,-20,-26,-15,-6,-2,2021-08-06 13:56:11,165825
-3,-5,-12,-36,-19,-10,-2,-2,2021-08-06 13:56:11,181795
-3,-6,-7,-15,-4,-2,-1,-2,2021-08-06 13:56:11,181795
-5,-7,-4,1,-10,-7,-5,-5,2021-08-06 13:56:11,181795
1,7,16,28,8,5,2,0,2021-08-06 13:56:11,181795
0,4,9,28,17,13,2,1,2021-08-06 13:56:11,197794
-3,-2,-11,-35,-22,-9,-5,-3,2021-08-06 13:56:11,197794
1,0,-2,-2,16,8,1,1,2021-08-06 13:56:11,197794
7,11,12,33,27,11,6,6,2021-08-06 13:56:11,197794
0,1,6,5,-21,-15,-7,-3,2021-08-06 13:56:11,228796
7,6,-4,6,15,16,10,8,2021-08-06 13:56:11,228796
-18,-25,-30,-65,-50,-34,-19,-16,2021-08-06 13:56:11,228796
-2,-4,-1,-9,-10,-7,-3,-2,2021-08-06 13:56:11,228796
-2,-3,-2,14,4,0,-2,-2,2021-08-06 13:56:11,228796
3,6,8,13,-1,1,-2,1,2021-08-06 13:56:11,228796
5,6,4,0,11,12,9,6,2021-08-06 13:56:11,276796
-1,-3,0,-2,-8,-4,-3,-3,2021-08-06 13:56:11,276796
3,4,8,27,31,13,4,2,2021-08-06 13:56:11,276796
-2,-7,-7,-9,3,0,-1,-4,2021-08-06 13:56:11,276796
1,3,0,-2,2,3,1,2,2021-08-06 13:56:11,276796
-1,1,1,2,13,6,1,2,2021-08-06 13:56:11,276796
-4,-6,-6,-16,-25,-12,-6,-4,2021-08-06 13:56:11,276796
-5,-3,0,-2,-5,-10,-5,-4,2021-08-06 13:56:11,276796
3,4,12,24,5,5,6,2,2021-08-06 13:56:11,276796
7,6,10,41,32,15,6,5,2021-08-06 13:56:11,277796
-3,-7,-19,-42,-19,-7,-4,-3,2021-08-06 13:56:11,292794
-10,-12,-13,-42,-25,-14,-9,-6,2021-08-06 13:56:11,292794
-7,-8,-16,-29,-40,-24,-12,-8,2021-08-06 13:56:11,308794
0,1,-1,-1,-1,1,0,0,2021-08-06 13:56:11,308794
5,8,16,36,23,13,7,6,2021-08-06 13:56:11,324797
1,1,1,7,-2,-4,-1,-1,2021-08-06 13:56:11,324797
1,2,6,8,10,6,3,1,2021-08-06 13:56:11,324797
-4,-7,-5,-1,3,0,0,-4,2021-08-06 13:56:11,324797
1,2,1,-2,-5,-4,-1,1,2021-08-06 13:56:11,340796
1,0,-1,4,5,5,2,0,2021-08-06 13:56:11,356795
2,5,6,14,18,10,4,2,2021-08-06 13:56:11,356795
-1,-2,-6,-6,-3,-3,0,-2,2021-08-06 13:56:11,356795
-6,-5,-4,-14,-15,-10,-4,-2,2021-08-06 13:56:11,372796
-2,-2,-4,-7,-11,-5,-4,-1,2021-08-06 13:56:11,387794
6,8,9,22,29,17,7,5,2021-08-06 13:56:11,418795
-4,-3,-4,-7,-4,-2,-2,-3,2021-08-06 13:56:11,433794
-5,-3,-3,-3,-4,-2,-3,-2,2021-08-06 13:56:11,433794
0,0,0,8,2,0,1,1,2021-08-06 13:56:11,433794
0,0,-2,-3,-3,-5,-2,0,2021-08-06 13:56:11,433794
-1,-2,-3,-15,-12,-6,-2,-1,2021-08-06 13:56:11,433794
-2,-4,-8,-12,-14,-9,-5,-5,2021-08-06 13:56:11,433794
-2,3,8,29,32,15,6,1,2021-08-06 13:56:11,433794
0,1,1,-4,-8,-4,-2,1,2021-08-06 13:56:11,433794
-3,-1,0,-2,-2,1,-2,-3,2021-08-06 13:56:11,434796
1,-2,-1,1,-1,-2,1,1,2021-08-06 13:56:11,434796
-3,-6,-8,-8,-10,-8,-5,-4,2021-08-06 13:56:11,434796
1,1,1,-4,1,0,0,1,2021-08-06 13:56:11,434796
1,1,1,0,0,-1,1,1,2021-08-06 13:56:11,434796
-1,-1,-1,-2,-2,-1,-1,-2,2021-08-06 13:56:11,434796
-1,-1,0,1,1,1,0,0,2021-08-06 13:56:11,434796
-1,-1,1,4,3,1,-1,-1,2021-08-06 13:56:11,464796
-2,-3,-4,-1,-2,-2,-1,-4,2021-08-06 13:56:11,480795
0,-1,-3,-2,-5,-2,-1,-1,2021-08-06 13:56:11,496813
2,2,4,3,1,1,4,3,2021-08-06 13:56:11,512813
-2,-5,-3,-2,-4,-2,-2,-3,2021-08-06 13:56:11,512813
-2,-3,-6,-10,-10,-6,-5,-3,2021-08-06 13:56:11,512813
-1,1,0,-4,-2,-1,0,0,2021-08-06 13:56:11,512813
1,2,4,16,20,13,3,0,2021-08-06 13:56:11,512813
-3,-3,-4,-7,-6,-5,-2,-4,2021-08-06 13:56:11,512813
-1,-1,0,-4,-5,0,1,1,2021-08-06 13:56:11,512813
-3,-2,-4,-7,-8,-4,-4,-3,2021-08-06 13:56:11,512813
3,0,1,8,12,6,4,2,2021-08-06 13:56:11,513816
0,1,0,-2,-2,-2,0,0,2021-08-06 13:56:11,513816
0,0,-1,1,3,0,-1,0,2021-08-06 13:56:11,513816
-5,-6,-6,-12,-19,-12,-7,-5,2021-08-06 13:56:11,513816
0,2,1,-6,-7,-5,0,-1,2021-08-06 13:56:11,513816
1,-2,1,11,12,8,2,1,2021-08-06 13:56:11,544816
1,0,1,-4,-7,-5,-1,1,2021-08-06 13:56:11,544816
1,1,1,6,8,6,1,1,2021-08-06 13:56:11,544816
-3,-4,-6,-11,-12,-8,-5,-2,2021-08-06 13:56:11,544816
-3,-5,-4,-2,0,0,-1,-2,2021-08-06 13:56:11,544816
-1,0,-1,-1,1,-1,0,-1,2021-08-06 13:56:11,544816
0,-2,1,4,3,2,2,-1,2021-08-06 13:56:11,576813
-2,-1,-2,-1,-4,-5,-3,-3,2021-08-06 13:56:11,592814
2,1,-2,-8,-10,-5,-3,0,2021-08-06 13:56:11,592814
0,-2,-2,-7,-8,-1,-1,-1,2021-08-06 13:56:11,592814
0,2,0,7,14,6,2,2,2021-08-06 13:56:11,592814
-2,-1,-4,-3,-7,-5,-2,-3,2021-08-06 13:56:11,592814
-3,-3,0,3,-1,-2,-2,-1,2021-08-06 13:56:11,592814
-2,0,1,1,-3,-2,-1,-2,2021-08-06 13:56:11,592814
2,2,1,-3,2,1,1,-1,2021-08-06 13:56:11,623816
-2,-2,5,-9,-13,-5,-4,-2,2021-08-06 13:56:11,623816
-2,-2,-8,-1,0,0,0,-2,2021-08-06 13:56:11,623816
1,0,0,4,9,6,2,1,2021-08-06 13:56:11,623816
-4,-4,-8,-17,-33,-21,-9,-6,2021-08-06 13:56:11,623816
7,10,14,35,51,32,15,8,2021-08-06 13:56:11,623816
-1,-1,1,10,7,2,1,-1,2021-08-06 13:56:11,624815
2,4,3,-2,-1,0,0,1,2021-08-06 13:56:11,624815
-3,-2,-6,-5,-1,-1,-3,-3,2021-08-06 13:56:11,639814
-3,-3,-5,-16,-24,-15,-7,-6,2021-08-06 13:56:11,651813
0,-1,0,-4,-7,-5,-1,0,2021-08-06 13:56:11,651813
1,-1,0,6,6,4,1,0,2021-08-06 13:56:11,652816
0,0,0,0,-3,-2,-2,1,2021-08-06 13:56:11,671815
-1,-3,-3,-4,-7,-4,-4,-3,2021-08-06 13:56:11,671815
-1,-2,-1,1,3,1,0,0,2021-08-06 13:56:11,671815
-4,-5,-4,-5,-7,-5,-4,-1,2021-08-06 13:56:11,671815
2,6,7,9,10,7,5,2,2021-08-06 13:56:11,686814
-1,-2,-3,-3,-4,-2,-2,-2,2021-08-06 13:56:11,701814
2,4,2,0,-1,0,1,2,2021-08-06 13:56:11,717814
-1,-2,0,-2,-2,-4,-2,-2,2021-08-06 13:56:11,717814
-1,-2,-1,3,6,1,1,0,2021-08-06 13:56:11,717814
0,0,-3,2,0,-3,-1,0,2021-08-06 13:56:11,717814
-4,-4,-4,-8,-9,-5,-3,-4,2021-08-06 13:56:11,717814
-1,-1,-2,-2,-1,0,0,1,2021-08-06 13:56:11,717814
1,0,1,5,6,4,1,0,2021-08-06 13:56:11,717814
-2,-2,-2,-5,-6,-4,-1,-2,2021-08-06 13:56:11,718815
-1,-1,-3,-3,-3,-1,-2,-1,2021-08-06 13:56:11,718815
-1,0,0,1,1,1,0,0,2021-08-06 13:56:11,718815
-1,1,0,2,4,1,0,0,2021-08-06 13:56:11,749815
-2,-1,-1,-4,-4,-3,-1,-1,2021-08-06 13:56:11,749815
-2,-1,0,-2,-2,-2,-1,-1,2021-08-06 13:56:11,749815
0,1,0,2,2,0,0,-1,2021-08-06 13:56:11,749815
0,-1,0,-1,-1,0,-2,-1,2021-08-06 13:56:11,781816
-3,-1,-1,-1,-3,-3,-1,-2,2021-08-06 13:56:11,781816
-2,0,1,-1,0,1,0,0,2021-08-06 13:56:11,781816
0,-1,-2,-2,-2,-5,-1,-1,2021-08-06 13:56:11,781816
0,0,0,1,0,1,-1,-2,2021-08-06 13:56:11,781816
-1,-2,-2,-1,0,0,-1,0,2021-08-06 13:56:11,781816
-1,1,-2,-2,-1,-2,0,-1,2021-08-06 13:56:11,781816
-1,-1,-3,-2,-2,-2,0,-1,2021-08-06 13:56:11,781816
-3,-1,0,0,1,0,1,-1,2021-08-06 13:56:11,829852
-1,1,0,0,-1,-1,-1,-1,2021-08-06 13:56:11,844851
-2,-2,-3,-2,-3,-3,-1,-3,2021-08-06 13:56:11,844851
0,0,-1,-1,0,1,0,-1,2021-08-06 13:56:11,844851
-2,-1,0,1,0,-1,0,-1,2021-08-06 13:56:11,844851
0,-1,-3,-3,-1,-1,-1,1,2021-08-06 13:56:11,844851
0,-2,-1,-3,-3,-2,-1,-1,2021-08-06 13:56:11,844851
-1,-1,-1,1,-1,0,0,1,2021-08-06 13:56:11,844851
0,-4,-2,0,1,0,0,-1,2021-08-06 13:56:11,844851
-1,-1,0,-2,-3,-1,-1,-2,2021-08-06 13:56:11,844851
-1,-2,0,0,0,0,1,-1,2021-08-06 13:56:11,844851
-1,1,1,1,-1,2,-1,-1,2021-08-06 13:56:11,845817
0,-1,0,0,-1,-1,-1,-1,2021-08-06 13:56:11,875813
-2,-2,-1,-1,-1,-1,-1,-1,2021-08-06 13:56:11,891813
-1,0,0,-1,0,-1,-2,0,2021-08-06 13:56:11,891813
-1,-2,1,0,-2,-2,0,-1,2021-08-06 13:56:11,891813
-2,-1,0,-1,-1,-2,-1,0,2021-08-06 13:56:11,891813
-3,0,-1,-1,0,-1,-1,-1,2021-08-06 13:56:11,891813
0,-2,-4,-1,-2,-1,0,-2,2021-08-06 13:56:11,891813
1,3,2,1,2,0,0,-1,2021-08-06 13:56:11,892815
1,-2,-2,-1,0,-1,-1,1,2021-08-06 13:56:11,907815
0,-2,0,0,-1,-2,-1,-1,2021-08-06 13:56:11,923815
-1,-3,-2,-2,-4,0,-2,-1,2021-08-06 13:56:11,923815
-1,0,-1,0,0,1,-2,1,2021-08-06 13:56:11,923815
-1,-2,-2,0,-1,-2,-1,-2,2021-08-06 13:56:11,923815
3,3,2,1,1,0,0,1,2021-08-06 13:56:11,923815
-3,-1,-1,0,0,-2,-2,-1,2021-08-06 13:56:11,923815
-2,-2,-1,-3,0,-1,-3,-1,2021-08-06 13:56:11,923815
0,-1,-1,-2,-2,0,-3,-1,2021-08-06 13:56:11,955813
-2,-2,-3,0,0,0,-1,-1,2021-08-06 13:56:11,971814
0,-1,0,-1,-3,1,-1,-1,2021-08-06 13:56:11,987813
-2,-1,-3,-1,-1,-2,-1,-2,2021-08-06 13:56:11,987813
1,0,0,0,-2,-2,0,0,2021-08-06 13:56:11,987813
-1,-2,-1,-2,-3,-1,-1,0,2021-08-06 13:56:11,987813
-1,2,2,1,0,1,-1,0,2021-08-06 13:56:11,987813
-1,-1,-1,-1,-1,-1,0,-3,2021-08-06 13:56:11,987813
-1,-1,-1,-1,0,1,-1,-1,2021-08-06 13:56:11,987813
-1,0,-1,-1,-1,-2,-1,-1,2021-08-06 13:56:11,988815
-1,0,0,-1,1,-1,0,-1,2021-08-06 13:56:11,988815
-1,-1,-3,-2,-2,-1,-2,-1,2021-08-06 13:56:11,988815
0,1,-1,-2,0,0,0,-1,2021-08-06 13:56:12,019814
-2,-2,-2,0,0,-1,-1,-1,2021-08-06 13:56:12,024814
-1,-1,-3,-2,-1,-1,0,-1,2021-08-06 13:56:12,024814
-1,0,0,0,1,0,-1,-2,2021-08-06 13:56:12,024814
-1,-1,1,-1,0,0,0,1,2021-08-06 13:56:12,024814
-2,0,-3,-2,-1,-2,-2,-1,2021-08-06 13:56:12,024814
0,-2,-3,-3,-2,-2,0,0,2021-08-06 13:56:12,024814
-1,-1,-1,-1,-2,-1,-1,-1,2021-08-06 13:56:12,024814
0,-1,-2,-2,0,0,-1,0,2021-08-06 13:56:12,050814
0,-3,-2,-1,1,1,0,0,2021-08-06 13:56:12,066813
-2,-2,-1,-1,0,-2,-3,-3,2021-08-06 13:56:12,082814
-2,-2,0,1,-1,0,-2,-3,2021-08-06 13:56:12,082814
-4,-1,0,1,0,-1,-1,-2,2021-08-06 13:56:12,082814
1,4,3,0,-1,0,-2,-1,2021-08-06 13:56:12,082814
0,0,0,0,-1,-1,1,0,2021-08-06 13:56:12,082814
0,0,1,-1,-1,-2,0,0,2021-08-06 13:56:12,082814
-1,0,-2,-1,-1,0,0,0,2021-08-06 13:56:12,082814
0,-4,-3,-1,-3,0,-1,-1,2021-08-06 13:56:12,083816
-1,0,-1,-1,-1,0,-1,0,2021-08-06 13:56:12,083816
-1,-1,-2,-1,0,1,0,1,2021-08-06 13:56:12,083816
-1,-2,0,0,0,1,0,0,2021-08-06 13:56:12,114816
-2,-1,-2,-2,0,0,0,0,2021-08-06 13:56:12,114816
0,0,0,-1,0,0,0,0,2021-08-06 13:56:12,114816
0,-2,-4,-1,-3,-1,0,0,2021-08-06 13:56:12,114816
0,-1,0,-1,-1,-1,-2,-1,2021-08-06 13:56:12,130818
-1,0,-1,0,-1,-1,-1,-1,2021-08-06 13:56:12,146813
0,-1,-2,-1,-1,-1,0,-1,2021-08-06 13:56:12,162814
-1,-1,-1,-2,0,-2,-1,-2,2021-08-06 13:56:12,162814
0,0,-1,-2,-1,0,-1,0,2021-08-06 13:56:12,162814
-1,0,0,-1,-1,1,-1,0,2021-08-06 13:56:12,162814
-1,-1,0,1,-2,1,-1,-2,2021-08-06 13:56:12,162814
-2,0,0,0,2,5,2,0,2021-08-06 13:56:12,162814
-1,0,0,0,-2,-5,-1,-1,2021-08-06 13:56:12,163815
-2,-1,-3,-2,-4,-6,-6,-2,2021-08-06 13:56:12,163815
-1,-1,-1,0,-1,-1,-3,-1,2021-08-06 13:56:12,177818
-2,-1,-1,-1,-1,-2,-2,-1,2021-08-06 13:56:12,193814
-1,-1,-2,-1,-1,2,0,-3,2021-08-06 13:56:12,193814
0,-1,-1,-1,0,1,1,0,2021-08-06 13:56:12,193814
-1,-1,-1,-1,-1,-1,-1,-2,2021-08-06 13:56:12,193814
0,-1,-1,-2,-2,-3,-1,0,2021-08-06 13:56:12,193814
-2,-1,-1,-1,-1,0,0,0,2021-08-06 13:56:12,209813
-1,-2,-1,-1,-1,-2,0,-1,2021-08-06 13:56:12,225814
-2,-2,-2,-1,-2,0,-2,-1,2021-08-06 13:56:12,255814
1,-2,1,0,1,-1,0,-1,2021-08-06 13:56:12,271814
-2,-1,-1,-1,0,-2,0,0,2021-08-06 13:56:12,271814
-1,-1,0,-1,0,1,1,0,2021-08-06 13:56:12,271814
-2,-1,-1,-1,0,1,0,1,2021-08-06 13:56:12,271814
0,-1,-1,0,-1,0,-3,-1,2021-08-06 13:56:12,271814
0,-1,-1,-2,0,0,-3,-1,2021-08-06 13:56:12,271814
-3,-1,-1,0,0,-1,-1,-1,2021-08-06 13:56:12,271814
0,-1,0,-1,-1,-1,0,0,2021-08-06 13:56:12,272816
-1,-1,-1,0,-1,-2,-2,-1,2021-08-06 13:56:12,272816
-1,-2,0,0,-1,0,-2,-2,2021-08-06 13:56:12,272816
1,0,-1,-1,-1,-1,-1,0,2021-08-06 13:56:12,272816
0,-1,0,0,0,0,0,-2,2021-08-06 13:56:12,272816
-1,0,-1,-1,-3,0,1,1,2021-08-06 13:56:12,272816
-1,0,-2,0,-2,0,2,-1,2021-08-06 13:56:12,286815
-2,-1,-1,1,-1,0,-1,-1,2021-08-06 13:56:12,318814
-1,1,-2,-1,0,-3,-2,-2,2021-08-06 13:56:12,318814
-2,-1,-1,-4,-1,-2,-3,-1,2021-08-06 13:56:12,318814
0,-2,-2,-2,0,-2,-2,1,2021-08-06 13:56:12,318814
-1,-1,-1,-2,-1,-1,0,0,2021-08-06 13:56:12,318814
0,-3,-1,1,0,0,-1,1,2021-08-06 13:56:12,318814
-1,0,-1,-1,0,0,1,0,2021-08-06 13:56:12,319815
0,0,-2,-1,-2,-2,-1,-2,2021-08-06 13:56:12,319815
0,-2,-1,-2,-1,0,0,-1,2021-08-06 13:56:12,319815
0,-1,-1,0,-1,0,1,-1,2021-08-06 13:56:12,334813
0,-1,-1,0,0,-2,-1,-1,2021-08-06 13:56:12,334813
0,-2,0,-1,-1,1,-1,0,2021-08-06 13:56:12,349814
0,-2,-1,0,-1,0,-1,-2,2021-08-06 13:56:12,349814
1,-1,-2,-2,-1,0,-3,0,2021-08-06 13:56:12,349814
-1,0,-1,-1,-2,-1,-1,-2,2021-08-06 13:56:12,349814
-1,0,-1,-1,0,0,-1,-1,2021-08-06 13:56:12,381815
-1,0,-1,-2,-1,-2,-1,0,2021-08-06 13:56:12,397816
0,-1,0,0,0,0,1,0,2021-08-06 13:56:12,397816
-1,0,0,-2,0,-3,-1,-2,2021-08-06 13:56:12,397816
-1,0,0,-1,0,0,-2,-1,2021-08-06 13:56:12,397816
-1,1,-2,0,-2,-1,-1,-1,2021-08-06 13:56:12,397816
-1,-1,-1,-1,-1,-1,-1,-2,2021-08-06 13:56:12,397816
0,0,0,-1,-1,-2,0,-1,2021-08-06 13:56:12,397816
0,0,0,-1,-1,-1,2,0,2021-08-06 13:56:12,413818
-2,-2,-1,-4,1,-1,-1,-1,2021-08-06 13:56:12,429814
0,0,-1,-2,-2,-1,-2,-1,2021-08-06 13:56:12,429814
1,-2,0,-1,0,0,0,-1,2021-08-06 13:56:12,429814
-1,0,0,-1,-1,-1,0,-1,2021-08-06 13:56:12,429814
0,0,0,-1,-2,-1,-1,-2,2021-08-06 13:56:12,429814
-1,0,-1,0,0,-1,-1,-2,2021-08-06 13:56:12,445814
0,-1,0,0,-2,0,-3,-1,2021-08-06 13:56:12,461815
-3,-1,-1,0,-1,-2,0,1,2021-08-06 13:56:12,461815
0,-2,0,0,-1,-2,0,0,2021-08-06 13:56:12,461815
-1,1,-2,0,-2,-1,-1,-2,2021-08-06 13:56:12,461815
-1,-1,-2,0,-1,0,-1,1,2021-08-06 13:56:12,461815
-2,-2,-2,1,-2,-1,-1,1,2021-08-06 13:56:12,461815
0,-2,0,0,-1,0,1,0,2021-08-06 13:56:12,461815
0,-1,-1,-3,-1,-1,1,1,2021-08-06 13:56:12,462815
-2,0,-1,0,0,-1,-1,0,2021-08-06 13:56:12,462815
-1,-1,-1,-1,-1,-2,0,-1,2021-08-06 13:56:12,491815
-2,-1,-1,-2,0,-1,-2,-2,2021-08-06 13:56:12,491815
-3,-1,0,0,-4,-1,0,-1,2021-08-06 13:56:12,491815
-2,-1,-1,0,-1,0,0,0,2021-08-06 13:56:12,491815
0,-2,0,-1,-1,0,1,-2,2021-08-06 13:56:12,507814
-1,0,-2,1,-1,-1,-1,-2,2021-08-06 13:56:12,523814
0,-1,-1,-1,0,-1,-1,-1,2021-08-06 13:56:12,523814
-1,-2,-1,-1,-1,0,-1,0,2021-08-06 13:56:12,523814
0,-1,-2,-1,-2,0,-2,-1,2021-08-06 13:56:12,523814
1,0,-1,-2,0,0,1,-2,2021-08-06 13:56:12,523814
-1,-1,0,0,-1,0,-1,-1,2021-08-06 13:56:12,523814
-2,1,-1,-1,-2,-1,-1,0,2021-08-06 13:56:12,523814
0,0,-1,-1,0,-1,-2,-1,2021-08-06 13:56:12,555834
-1,-2,-2,0,0,-3,-2,0,2021-08-06 13:56:12,555834
0,-1,-3,-1,0,0,0,-1,2021-08-06 13:56:12,555834
1,-1,-2,-3,1,-1,-1,-1,2021-08-06 13:56:12,555834
-1,-1,1,-2,0,-2,-2,-1,2021-08-06 13:56:12,555834
0,0,-1,-1,-2,-1,-2,-1,2021-08-06 13:56:12,555834
-1,-1,0,-1,-1,-1,-3,-1,2021-08-06 13:56:12,571835
-2,-2,-1,1,0,0,-1,-3,2021-08-06 13:56:12,571835
-2,-1,-1,0,-1,0,1,0,2021-08-06 13:56:12,586835
-2,-1,0,0,0,-2,-2,0,2021-08-06 13:56:12,601834
0,-2,-1,0,-1,1,0,0,2021-08-06 13:56:12,601834
-2,-1,-1,0,-3,0,0,0,2021-08-06 13:56:12,601834
0,0,-1,0,0,-1,-1,0,2021-08-06 13:56:12,601834
-2,0,-2,-1,0,0,-1,-1,2021-08-06 13:56:12,601834
-2,0,-1,-1,-1,-1,0,0,2021-08-06 13:56:12,617835
0,0,-1,-1,-1,-1,-1,0,2021-08-06 13:56:12,617835
0,-2,-2,0,-2,-1,0,-1,2021-08-06 13:56:12,617835
0,-1,0,-2,-2,0,-2,1,2021-08-06 13:56:12,617835
0,0,-3,-1,-2,-2,-1,0,2021-08-06 13:56:12,633834
-1,-1,-1,-1,0,-1,-1,-2,2021-08-06 13:56:12,633834
-2,-1,-2,0,-1,-1,-1,-2,2021-08-06 13:56:12,648835
-1,-2,-1,0,-1,0,0,0,2021-08-06 13:56:12,664835
-2,0,0,0,1,-2,1,-1,2021-08-06 13:56:12,680834
0,1,-1,-2,-2,-1,0,0,2021-08-06 13:56:12,680834
-1,0,0,0,0,0,-2,-1,2021-08-06 13:56:12,680834
-3,-1,-3,-2,-1,-2,0,-1,2021-08-06 13:56:12,680834
0,-2,-1,1,-1,-2,0,1,2021-08-06 13:56:12,680834
-1,-2,-1,-1,1,-1,1,-2,2021-08-06 13:56:12,680834
-1,-2,-3,-1,1,-1,0,0,2021-08-06 13:56:12,680834
-1,-1,-1,0,-2,-1,-1,-2,2021-08-06 13:56:12,681836
-1,-1,-1,-1,-1,0,0,-1,2021-08-06 13:56:12,696834
-1,0,-2,-2,0,-3,-2,-2,2021-08-06 13:56:12,696834
-1,0,-1,2,-1,-2,0,0,2021-08-06 13:56:12,711835
-1,-1,-2,-3,-4,0,1,0,2021-08-06 13:56:12,711835
-1,-1,-1,-1,3,2,3,0,2021-08-06 13:56:12,711835
-1,-1,-3,0,-2,-5,-5,0,2021-08-06 13:56:12,711835
-1,-1,1,-1,-1,-2,-1,-2,2021-08-06 13:56:12,727837
1,1,-1,-1,-2,-2,-1,-1,2021-08-06 13:56:12,727837
-2,-3,-3,-1,-4,-1,-2,-3,2021-08-06 13:56:12,727837
0,0,0,0,-2,1,3,1,2021-08-06 13:56:12,727837
0,-3,-3,-1,-2,-1,-1,-2,2021-08-06 13:56:12,743836
-2,-1,1,-2,-2,0,0,1,2021-08-06 13:56:12,743836
-1,-1,-1,-2,-5,-4,-2,-2,2021-08-06 13:56:12,759835
1,-2,-3,-5,-4,-3,-1,-1,2021-08-06 13:56:12,759835
2,3,2,5,10,7,4,2,2021-08-06 13:56:12,760078
0,-1,-1,1,0,0,0,-3,2021-08-06 13:56:12,760078
-3,0,0,-1,0,-2,-1,-1,2021-08-06 13:56:12,771401
-2,-1,0,2,-3,0,1,0,2021-08-06 13:56:12,771401
-1,-3,-1,-2,-2,-4,-2,0,2021-08-06 13:56:12,791348
1,0,-1,1,0,0,0,0,2021-08-06 13:56:12,791348
-2,-1,1,-1,0,-2,-2,-2,2021-08-06 13:56:12,791348
-2,0,-1,-1,0,2,0,0,2021-08-06 13:56:12,791348
2,-2,-1,-2,-4,-2,-3,-3,2021-08-06 13:56:12,823348
-2,-2,-1,-3,-3,-4,-4,-1,2021-08-06 13:56:12,838348
0,0,-1,0,2,3,0,1,2021-08-06 13:56:12,853350
-1,-2,-1,-2,-1,-1,1,1,2021-08-06 13:56:12,853350
-2,0,1,0,4,1,0,0,2021-08-06 13:56:12,853350
-2,-3,-3,-5,-6,-3,-3,-2,2021-08-06 13:56:12,853350
4,3,4,4,2,4,3,3,2021-08-06 13:56:12,853350
0,-1,-1,-1,3,4,1,0,2021-08-06 13:56:12,853350
-3,-1,-1,-1,-1,-5,-3,-1,2021-08-06 13:56:12,853350
0,2,2,2,-1,-2,-2,0,2021-08-06 13:56:12,854348
-3,-3,-4,-3,-4,-1,-2,-4,2021-08-06 13:56:12,854348
-2,-2,-1,-1,-3,-3,-2,-2,2021-08-06 13:56:12,854348
0,1,-1,-4,-6,-4,-4,-2,2021-08-06 13:56:12,884348
-1,-1,-2,-1,-1,-1,-2,-1,2021-08-06 13:56:12,899349
1,0,-1,-1,-3,-3,-1,-1,2021-08-06 13:56:12,931348
-1,-1,-2,-1,1,1,0,-1,2021-08-06 13:56:12,947348
-2,-4,-3,-3,-2,3,2,3,2021-08-06 13:56:12,963348
-1,-1,-1,2,4,2,2,0,2021-08-06 13:56:12,979348
-2,-2,0,-2,0,2,1,0,2021-08-06 13:56:12,995348
-4,-3,0,0,-2,-5,-5,-5,2021-08-06 13:56:12,995348
0,2,4,1,-1,-2,-2,-2,2021-08-06 13:56:12,995348
0,0,0,-1,2,3,0,2,2021-08-06 13:56:12,995348
-1,0,-1,0,-1,-2,-3,-1,2021-08-06 13:56:12,995348
0,1,2,1,-1,-3,-1,-2,2021-08-06 13:56:12,995348
0,1,0,2,1,3,2,1,2021-08-06 13:56:12,996351
1,-1,-2,-1,-4,-3,0,-1,2021-08-06 13:56:12,996351
-1,-2,-2,-1,-3,-3,-3,-2,2021-08-06 13:56:12,996351
1,2,0,-1,2,1,1,0,2021-08-06 13:56:12,996351
-2,1,-2,-2,-4,-3,-2,-3,2021-08-06 13:56:12,996351
-2,-2,-1,-1,-3,-2,-1,-1,2021-08-06 13:56:12,996351
-1,-2,-2,-1,-1,-1,-1,-1,2021-08-06 13:56:12,996351
-1,-1,0,0,-1,-2,-1,-1,2021-08-06 13:56:12,996351
-1,-3,-2,-3,0,0,-1,-1,2021-08-06 13:56:12,996351
-1,0,-1,0,0,1,0,-1,2021-08-06 13:56:12,996351
-2,-2,-2,-2,-1,-2,-1,-4,2021-08-06 13:56:12,997350
-2,-3,-2,-2,-2,-1,-1,0,2021-08-06 13:56:12,997350
-1,0,0,-3,-4,-1,-3,0,2021-08-06 13:56:12,997350
-1,-1,2,3,6,3,0,-2,2021-08-06 13:56:12,997350
-1,-1,-1,0,-3,-2,-3,-3,2021-08-06 13:56:12,997350
-2,-4,-3,-1,-2,1,-1,-1,2021-08-06 13:56:12,997350
1,0,-1,-3,-3,-2,2,1,2021-08-06 13:56:13,011350
-1,2,0,3,5,1,0,-1,2021-08-06 13:56:13,011350
0,0,0,-1,-2,-3,3,1,2021-08-06 13:56:13,011350
-1,-1,0,1,3,0,-3,-2,2021-08-06 13:56:13,011350
-2,-3,-5,-1,-5,-2,-1,-3,2021-08-06 13:56:13,027351
-2,-4,-3,-4,-6,-3,-2,-4,2021-08-06 13:56:13,027351
-1,0,0,2,2,2,1,0,2021-08-06 13:56:13,043349
0,-1,-2,0,-2,-3,-1,-2,2021-08-06 13:56:13,043349
-1,0,0,1,4,2,0,1,2021-08-06 13:56:13,059349
-1,-2,-1,0,-2,1,-1,-1,2021-08-06 13:56:13,075348
1,-1,0,-2,-5,-1,-3,-1,2021-08-06 13:56:13,091348
1,1,-1,-1,0,0,-2,0,2021-08-06 13:56:13,091348
-1,-1,-1,-1,-4,-1,-2,-3,2021-08-06 13:56:13,091348
-2,1,-1,0,1,0,0,-1,2021-08-06 13:56:13,091348
-4,-2,0,-2,0,-2,-1,1,2021-08-06 13:56:13,091348
0,1,0,-1,-1,-1,-1,0,2021-08-06 13:56:13,091348
1,0,0,-1,0,-3,-1,0,2021-08-06 13:56:13,092349
0,-1,0,-2,0,-2,-2,1,2021-08-06 13:56:13,092349
0,0,0,0,1,-1,-1,-2,2021-08-06 13:56:13,092349
-2,-2,-3,-2,-1,0,0,-3,2021-08-06 13:56:13,092349
-2,-2,-1,-3,-2,-1,0,-2,2021-08-06 13:56:13,123348
0,-1,-2,-1,-2,-1,0,0,2021-08-06 13:56:13,138348
-1,-1,-1,-2,-2,-3,-2,-1,2021-08-06 13:56:13,138348
3,2,2,2,0,2,3,1,2021-08-06 13:56:13,138348
-1,-1,-2,-1,-1,-1,-2,0,2021-08-06 13:56:13,139351
-1,0,-1,-1,-4,-3,-2,-1,2021-08-06 13:56:13,139351
-1,0,-1,-2,2,0,0,-1,2021-08-06 13:56:13,139351
-3,-3,-2,-2,-2,-4,-3,-2,2021-08-06 13:56:13,139351
0,-1,-1,0,-3,-1,-1,-2,2021-08-06 13:56:13,155349
0,-3,-1,-1,1,-1,-1,0,2021-08-06 13:56:13,155349
-2,-2,-2,-1,1,4,2,0,2021-08-06 13:56:13,155349
-1,0,1,-1,-1,2,0,-1,2021-08-06 13:56:13,155349
-1,0,0,-1,0,-4,-1,-1,2021-08-06 13:56:13,171349
-1,1,0,1,1,-3,0,-1,2021-08-06 13:56:13,171349
-2,-2,-1,-3,-5,-3,-2,-1,2021-08-06 13:56:13,171349
0,0,0,2,1,0,1,-1,2021-08-06 13:56:13,171349
-2,-2,1,1,3,1,0,-2,2021-08-06 13:56:13,187348
-1,-3,-2,-3,-6,-2,-2,-2,2021-08-06 13:56:13,187348
1,0,0,2,0,0,0,0,2021-08-06 13:56:13,187348
2,0,0,0,-3,-1,0,-1,2021-08-06 13:56:13,187348
-4,-2,-1,-1,0,-1,-2,-3,2021-08-06 13:56:13,219349
-1,-1,0,0,0,1,0,0,2021-08-06 13:56:13,235348
3,2,2,1,3,2,2,2,2021-08-06 13:56:13,235348
0,-2,0,-2,-3,-4,-3,0,2021-08-06 13:56:13,235348
0,-3,-4,-2,-3,0,1,1,2021-08-06 13:56:13,235348
-1,-1,0,-1,-1,0,-2,-1,2021-08-06 13:56:13,235348
-2,-1,-1,-1,-4,-1,-1,0,2021-08-06 13:56:13,235348
0,-1,1,2,4,2,-1,1,2021-08-06 13:56:13,235348
0,-2,-3,-3,-4,-2,-1,-1,2021-08-06 13:56:13,251348
0,1,0,-1,2,-1,2,0,2021-08-06 13:56:13,267348
-1,-1,0,0,0,-1,-1,-1,2021-08-06 13:56:13,283349
-3,-1,-1,-4,-4,-5,-2,-2,2021-08-06 13:56:13,299348
0,-2,0,1,0,1,-1,-2,2021-08-06 13:56:13,315348
0,3,1,4,14,7,4,2,2021-08-06 13:56:13,315348
0,-1,-2,-1,-3,-3,-2,-2,2021-08-06 13:56:13,315348
-1,-1,-1,-3,-3,-1,-1,0,2021-08-06 13:56:13,315348
0,-1,1,-1,-3,-2,-1,-1,2021-08-06 13:56:13,315348
-1,-3,-2,0,-1,-2,-1,-3,2021-08-06 13:56:13,315348
-3,0,-1,-3,-2,-2,-3,-1,2021-08-06 13:56:13,315348
0,-1,-2,-3,-3,-1,0,0,2021-08-06 13:56:13,316350
-1,-1,0,-3,-5,-2,-2,0,2021-08-06 13:56:13,316350
1,0,2,1,1,4,1,1,2021-08-06 13:56:13,316350
-2,-3,-3,-3,0,0,0,-3,2021-08-06 13:56:13,316350
0,0,1,2,4,3,2,-1,2021-08-06 13:56:13,316350
-2,0,-1,1,0,-2,-2,-2,2021-08-06 13:56:13,331349
-2,-4,-3,-7,-10,-6,-4,-3,2021-08-06 13:56:13,347348
0,-2,0,-1,2,0,0,0,2021-08-06 13:56:13,347348
0,0,1,-2,-5,-5,-3,-1,2021-08-06 13:56:13,347348
1,-1,-1,0,1,2,1,1,2021-08-06 13:56:13,347348
-4,-3,-3,-1,1,-1,-2,-1,2021-08-06 13:56:13,347348
2,1,2,3,3,2,0,0,2021-08-06 13:56:13,347348
-1,-2,-2,-1,-3,0,-1,-1,2021-08-06 13:56:13,347348
-2,-2,-3,-2,-3,-4,-3,-3,2021-08-06 13:56:13,378350
1,0,2,2,3,1,1,-1,2021-08-06 13:56:13,394349
-1,1,-2,-1,-3,-2,-2,-1,2021-08-06 13:56:13,410349
-2,-1,-3,-5,-2,-2,0,0,2021-08-06 13:56:13,426349
-1,0,0,3,1,-2,-1,-2,2021-08-06 13:56:13,442348
0,0,0,-1,-5,-2,-1,-1,2021-08-06 13:56:13,442348
-1,1,2,4,8,4,1,1,2021-08-06 13:56:13,442348
-2,-2,-1,-1,-2,-2,-1,-1,2021-08-06 13:56:13,442348
-4,-4,-5,-6,-5,-3,-3,-1,2021-08-06 13:56:13,442348
0,0,-2,-2,0,1,-1,-1,2021-08-06 13:56:13,442348
1,-1,1,0,1,1,-1,0,2021-08-06 13:56:13,442348
0,-1,2,2,3,3,0,-1,2021-08-06 13:56:13,443350
-1,0,1,1,3,1,1,0,2021-08-06 13:56:13,443350
-2,-1,-1,-3,-6,-6,-2,-2,2021-08-06 13:56:13,443350
-1,-2,-4,-4,-9,-6,-3,-3,2021-08-06 13:56:13,443350
-1,-2,1,3,5,2,0,-2,2021-08-06 13:56:13,443350
1,-1,-2,-2,0,0,-1,1,2021-08-06 13:56:13,443350
-2,-1,-1,-2,-7,-6,-4,-1,2021-08-06 13:56:13,443350
-1,-3,-3,-4,-2,-1,-2,-1,2021-08-06 13:56:13,443350
1,1,-1,0,0,0,-1,2,2021-08-06 13:56:13,443350
0,0,2,5,11,7,3,1,2021-08-06 13:56:13,473350
-1,-2,-3,-3,-4,-4,-2,-3,2021-08-06 13:56:13,473350
-1,-1,-1,-1,-6,-4,-2,-1,2021-08-06 13:56:13,473350
0,-1,-2,-2,-3,-5,-3,-2,2021-08-06 13:56:13,473350
0,-1,-1,-2,-2,-3,-3,-2,2021-08-06 13:56:13,489348
-1,-2,-1,-1,0,0,-1,-1,2021-08-06 13:56:13,489348
-1,-2,-1,1,3,1,0,0,2021-08-06 13:56:13,489348
0,-1,0,-1,-1,2,0,1,2021-08-06 13:56:13,489348
-1,0,1,0,-1,-2,1,-1,2021-08-06 13:56:13,520386
-1,-2,-2,-2,-1,0,-1,-2,2021-08-06 13:56:13,520386
-2,-4,-2,-5,-9,-7,-3,-3,2021-08-06 13:56:13,520386
-1,-1,-2,0,7,1,1,-2,2021-08-06 13:56:13,520386
3,1,1,5,8,4,3,2,2021-08-06 13:56:13,536348
0,-1,-2,-1,0,-1,-1,1,2021-08-06 13:56:13,536348
1,2,1,0,0,3,0,0,2021-08-06 13:56:13,536348
-2,-3,-2,-3,-5,-5,-3,-3,2021-08-06 13:56:13,536348
-2,-3,-3,-3,-6,-4,-4,-2,2021-08-06 13:56:13,552351
-1,2,0,1,-1,0,0,0,2021-08-06 13:56:13,552351
-1,-2,-2,-2,-5,-3,-3,-1,2021-08-06 13:56:13,552351
2,2,0,2,0,0,1,2,2021-08-06 13:56:13,552351
0,-3,-3,-3,-5,-3,-3,-2,2021-08-06 13:56:13,568348
2,1,2,4,10,5,1,2,2021-08-06 13:56:13,583348
-2,-3,-3,-3,-2,-4,-4,-4,2021-08-06 13:56:13,583348
-1,2,2,2,1,2,2,0,2021-08-06 13:56:13,583348
1,0,-1,-2,-1,-1,0,0,2021-08-06 13:56:13,599349
-2,-3,-2,-4,-6,-3,-3,-3,2021-08-06 13:56:13,615350
2,0,0,1,1,0,1,-2,2021-08-06 13:56:13,631348
-2,-3,-1,-4,-5,-2,-1,-1,2021-08-06 13:56:13,647348
-1,-1,-1,-1,-2,0,0,1,2021-08-06 13:56:13,663348
1,0,2,1,0,-1,-1,0,2021-08-06 13:56:13,663348
-2,0,1,2,2,2,-1,0,2021-08-06 13:56:13,663348
-3,-5,-5,-3,-7,-5,-5,-4,2021-08-06 13:56:13,663348
0,-1,0,1,2,0,0,0,2021-08-06 13:56:13,663348
0,-1,0,1,-1,0,0,-1,2021-08-06 13:56:13,663348
1,2,1,2,3,2,1,2,2021-08-06 13:56:13,664353
0,0,0,-2,1,-2,-1,-2,2021-08-06 13:56:13,664353
-2,-2,-4,-5,-7,-4,-3,-1,2021-08-06 13:56:13,664353
0,0,-2,-7,-6,-2,-2,-1,2021-08-06 13:56:13,664353
2,-1,0,4,2,0,1,0,2021-08-06 13:56:13,664353
2,2,0,3,7,2,1,-1,2021-08-06 13:56:13,678350
-1,0,2,3,6,4,1,0,2021-08-06 13:56:13,694350
-3,-2,-2,-2,-6,-4,-3,-3,2021-08-06 13:56:13,694350
-1,-1,-1,-1,-1,-3,1,-1,2021-08-06 13:56:13,694350
0,-2,-3,-3,-5,-2,-1,0,2021-08-06 13:56:13,694350
0,3,2,-1,-2,-3,-2,-2,2021-08-06 13:56:13,694350
-1,-1,-2,-1,-2,-2,-2,1,2021-08-06 13:56:13,694350
-3,-4,-3,-3,-4,-4,-2,-2,2021-08-06 13:56:13,694350
1,-1,-2,-3,0,0,2,2,2021-08-06 13:56:13,695349
0,-3,-1,-3,-2,1,1,-2,2021-08-06 13:56:13,710348
-1,-2,0,2,3,2,-1,-1,2021-08-06 13:56:13,710348
-4,-3,-1,3,4,1,-2,-3,2021-08-06 13:56:13,726348
-2,0,0,-1,-6,-5,-3,-1,2021-08-06 13:56:13,742348
0,2,1,-2,-4,-3,-1,-1,2021-08-06 13:56:13,758349
1,1,0,2,4,1,0,1,2021-08-06 13:56:13,758349
-1,-2,-2,-4,-5,-2,-2,0,2021-08-06 13:56:13,758349
-1,0,-1,0,-1,0,-1,0,2021-08-06 13:56:13,758349
-2,0,-1,-1,1,1,0,0,2021-08-06 13:56:13,758349
0,0,0,0,-1,-2,0,-2,2021-08-06 13:56:13,758349
0,-1,-3,1,0,3,-1,0,2021-08-06 13:56:13,758349
-1,-2,-2,-1,0,0,-2,0,2021-08-06 13:56:13,758349
-1,-2,-2,-2,-6,-5,-2,-2,2021-08-06 13:56:13,774349
-1,-1,-3,-2,-3,-1,-1,-2,2021-08-06 13:56:13,790349
0,0,1,1,3,0,2,0,2021-08-06 13:56:13,806348
-1,-1,1,-4,-3,-1,0,-1,2021-08-06 13:56:13,806348
0,-2,0,1,2,-1,-2,-1,2021-08-06 13:56:13,806348
-2,-3,-3,-6,-11,-9,-3,-2,2021-08-06 13:56:13,806348
4,4,2,-1,5,4,4,3,2021-08-06 13:56:13,806348
1,-1,1,2,3,2,0,0,2021-08-06 13:56:13,806348
-1,-1,0,1,1,1,-1,-1,2021-08-06 13:56:13,806348
0,-1,1,2,-1,-2,-3,0,2021-08-06 13:56:13,807349
-3,-3,-5,-5,-7,-7,-4,-4,2021-08-06 13:56:13,807349
-1,-2,0,5,1,1,0,-1,2021-08-06 13:56:13,807349
0,0,-1,1,5,3,1,-1,2021-08-06 13:56:13,838348
-2,-1,-2,-1,2,1,-1,-2,2021-08-06 13:56:13,854349
-1,1,0,2,0,0,2,0,2021-08-06 13:56:13,870348
-1,0,0,-1,-3,-3,-3,-2,2021-08-06 13:56:13,870348
-4,-3,-2,-1,-2,-1,-1,-2,2021-08-06 13:56:13,870348
-1,-1,0,-1,0,0,0,0,2021-08-06 13:56:13,870348
-2,1,1,-3,-3,-2,-2,0,2021-08-06 13:56:13,870348
-1,-2,-2,-2,-1,-2,1,-1,2021-08-06 13:56:13,870348
0,0,1,0,0,1,1,1,2021-08-06 13:56:13,870348
-4,0,-1,-2,-1,-1,0,0,2021-08-06 13:56:13,870348
-1,-1,-2,-3,-3,-2,-2,-2,2021-08-06 13:56:13,871350
-3,0,-2,-3,-7,-4,-2,0,2021-08-06 13:56:13,871350
0,-2,-2,1,3,-1,-1,-1,2021-08-06 13:56:13,886348
1,1,0,2,5,6,4,1,2021-08-06 13:56:13,886348
-1,0,2,2,3,1,-2,1,2021-08-06 13:56:13,886348
-2,-1,-3,-1,-3,-3,-2,-4,2021-08-06 13:56:13,887350
-1,-1,-3,-5,-7,-6,-2,-1,2021-08-06 13:56:13,932348
2,-1,0,-1,-2,-3,-1,-1,2021-08-06 13:56:13,948350
-1,0,0,0,-1,0,0,2,2021-08-06 13:56:13,964351
-1,-1,-1,-3,0,-1,-1,-1,2021-08-06 13:56:13,980349
-1,-2,-1,0,1,0,0,0,2021-08-06 13:56:13,996348
-1,0,-2,0,2,1,0,0,2021-08-06 13:56:13,996348
0,1,-1,-1,-1,-1,0,-2,2021-08-06 13:56:13,996348
-1,-2,-1,-1,-1,-3,-2,0,2021-08-06 13:56:13,996348
2,0,-2,0,2,2,-1,-1,2021-08-06 13:56:13,996348
-2,0,0,-1,-1,-2,-3,-3,2021-08-06 13:56:13,996348
1,-1,-2,1,-2,0,1,1,2021-08-06 13:56:13,997350
-2,-1,-3,-4,0,0,-1,-2,2021-08-06 13:56:13,997350
-2,-3,-2,-1,-1,0,-2,-3,2021-08-06 13:56:13,997350
2,0,2,4,5,3,1,1,2021-08-06 13:56:13,997350
-1,-3,-2,-4,-2,-3,-2,-2,2021-08-06 13:56:13,997350
0,0,-2,-3,-3,-1,-1,0,2021-08-06 13:56:13,997350
-2,0,-1,1,0,0,0,1,2021-08-06 13:56:14,012349
-3,-2,-1,-1,-3,-3,-2,-3,2021-08-06 13:56:14,012349
-3,-2,-1,-1,0,-1,0,-2,2021-08-06 13:56:14,012349
0,-2,0,0,1,0,0,-1,2021-08-06 13:56:14,012349
-1,-1,-1,-5,-5,-3,-2,-2,2021-08-06 13:56:14,012349
2,1,-2,2,4,5,3,2,2021-08-06 13:56:14,012349
-1,0,-2,-2,-5,-4,-2,-2,2021-08-06 13:56:14,012349
0,1,2,4,5,4,2,1,2021-08-06 13:56:14,013350
-1,-2,0,1,0,0,-1,-2,2021-08-06 13:56:14,044349
-2,-2,0,-3,-4,-4,-3,-1,2021-08-06 13:56:14,060349
0,-1,-2,-4,-1,-1,0,-1,2021-08-06 13:56:14,060349
-1,0,1,1,4,1,-2,-1,2021-08-06 13:56:14,060349
-2,0,-1,-1,-2,-3,-1,-1,2021-08-06 13:56:14,060349
-1,-4,-3,-9,-11,-6,-3,-2,2021-08-06 13:56:14,060349
1,1,2,6,4,4,2,2,2021-08-06 13:56:14,060349
0,0,1,2,6,3,1,0,2021-08-06 13:56:14,060349
-1,-1,-1,0,0,0,1,-1,2021-08-06 13:56:14,076349
-2,-3,-3,0,-2,-1,-1,-3,2021-08-06 13:56:14,076349
-2,-1,-3,-5,-7,-6,-4,-3,2021-08-06 13:56:14,076349
-1,-1,-3,-2,-3,-3,-1,-2,2021-08-06 13:56:14,076349
1,2,3,2,4,1,1,1,2021-08-06 13:56:14,092348
-3,-2,-2,-4,-5,-5,-3,-1,2021-08-06 13:56:14,108348
-1,-1,0,-1,-2,-3,-3,-1,2021-08-06 13:56:14,123349
2,4,4,5,11,8,2,1,2021-08-06 13:56:14,139350
-1,-1,-2,-2,-4,-2,-1,-1,2021-08-06 13:56:14,139350
-1,0,-1,-1,-3,-3,-1,-3,2021-08-06 13:56:14,139350
-2,-2,0,-1,0,-2,0,0,2021-08-06 13:56:14,139350
-2,-5,-4,-9,-11,-5,-2,-2,2021-08-06 13:56:14,139350
-1,-2,-2,0,2,2,0,1,2021-08-06 13:56:14,139350
0,1,-1,3,5,2,1,0,2021-08-06 13:56:14,139350
-1,-1,-2,-2,-2,-3,-2,-2,2021-08-06 13:56:14,139350
-2,-2,-4,-2,-7,-6,-3,-3,2021-08-06 13:56:14,139350
-1,-1,-2,-4,-3,0,-1,-1,2021-08-06 13:56:14,154349
-1,-3,-2,-2,-3,-2,1,1,2021-08-06 13:56:14,169349
1,0,1,2,8,4,1,2,2021-08-06 13:56:14,185348
-1,-1,-1,-2,-5,-4,-1,0,2021-08-06 13:56:14,201348
1,2,1,1,3,0,0,-1,2021-08-06 13:56:14,217348
-2,0,0,0,2,2,1,-2,2021-08-06 13:56:14,217348
-1,0,0,-1,-4,-2,-2,-1,2021-08-06 13:56:14,217348
-3,-3,0,-3,-4,-2,-2,-1,2021-08-06 13:56:14,217348
1,0,1,0,3,1,1,0,2021-08-06 13:56:14,217348
-2,-2,-1,1,1,-1,-3,-3,2021-08-06 13:56:14,217348
-2,-2,-3,-4,-5,-2,-3,-1,2021-08-06 13:56:14,218350
-2,-3,-2,-4,-12,-8,-3,-2,2021-08-06 13:56:14,218350
2,2,2,2,8,5,4,1,2021-08-06 13:56:14,218350
1,2,2,4,9,9,4,2,2021-08-06 13:56:14,218350
1,0,1,5,5,3,0,-2,2021-08-06 13:56:14,218350
0,0,-2,1,2,-2,-1,1,2021-08-06 13:56:14,218350
-6,-3,-3,-10,-21,-13,-5,-5,2021-08-06 13:56:14,232349
-3,-1,-3,-4,-1,-2,-2,-2,2021-08-06 13:56:14,232349
0,0,2,7,15,7,4,1,2021-08-06 13:56:14,232349
0,0,-1,2,-1,1,0,0,2021-08-06 13:56:14,232349
0,-2,-1,0,-2,-2,-2,-2,2021-08-06 13:56:14,248349
0,-2,-2,-2,-5,-4,-2,1,2021-08-06 13:56:14,254348
-3,-2,-2,-4,-9,-4,-3,-4,2021-08-06 13:56:14,254348
1,1,1,2,8,6,1,0,2021-08-06 13:56:14,254348
-2,-3,0,-1,-2,-1,-1,-1,2021-08-06 13:56:14,280348
0,-1,1,1,2,1,1,2,2021-08-06 13:56:14,280348
-1,0,-2,-3,-1,-1,-1,0,2021-08-06 13:56:14,280348
-2,-1,-1,-1,-1,-2,-1,0,2021-08-06 13:56:14,280348
0,0,0,-1,-1,-2,-2,0,2021-08-06 13:56:14,281350
0,-2,-1,-4,-10,-6,-2,0,2021-08-06 13:56:14,281350
-1,-3,0,1,3,2,2,-2,2021-08-06 13:56:14,296348
-1,-1,0,0,1,0,0,0,2021-08-06 13:56:14,311350
-1,-1,0,2,4,5,2,2,2021-08-06 13:56:14,326348
-1,-1,1,4,6,2,0,0,2021-08-06 13:56:14,341349
-2,-3,-2,-5,-10,-5,-2,-3,2021-08-06 13:56:14,357349
1,2,0,2,-1,-2,-1,-1,2021-08-06 13:56:14,357349
-1,-4,-5,-5,-7,-5,-2,-2,2021-08-06 13:56:14,357349
-2,0,-1,-3,-5,-4,-3,-1,2021-08-06 13:56:14,357349
-1,0,0,1,1,2,1,1,2021-08-06 13:56:14,357349
-3,-3,-3,-2,-1,-1,-1,-2,2021-08-06 13:56:14,357349
-1,1,-1,0,-1,0,0,0,2021-08-06 13:56:14,357349
0,0,-2,-1,-2,2,-1,-2,2021-08-06 13:56:14,358349
0,0,-1,-3,-3,-3,-2,-1,2021-08-06 13:56:14,358349
0,-1,0,-1,2,1,0,-1,2021-08-06 13:56:14,358349
-1,-1,0,0,-2,-4,-2,-1,2021-08-06 13:56:14,373348
-1,-4,-3,-2,-4,-4,-3,-3,2021-08-06 13:56:14,388348
1,0,0,1,8,5,3,2,2021-08-06 13:56:14,419349
-1,0,0,1,2,3,1,0,2021-08-06 13:56:14,419349
-3,-2,-2,1,1,-1,-3,-1,2021-08-06 13:56:14,419349
0,-1,-1,0,2,4,2,0,2021-08-06 13:56:14,419349
1,2,-1,1,-1,0,2,1,2021-08-06 13:56:14,419349
-2,-2,-3,-1,-2,-1,-2,-1,2021-08-06 13:56:14,419349
-2,-3,-4,-3,-2,0,0,-1,2021-08-06 13:56:14,419349
0,2,2,-2,-4,-4,-1,0,2021-08-06 13:56:14,420351
-1,-1,-2,-3,-4,-3,-1,0,2021-08-06 13:56:14,420351
0,-2,0,0,0,-1,1,0,2021-08-06 13:56:14,420351
-1,-2,-3,-4,-5,-2,-2,0,2021-08-06 13:56:14,435348
0,-1,-1,0,3,2,1,0,2021-08-06 13:56:14,435348
-1,-2,0,0,-1,-1,-2,-1,2021-08-06 13:56:14,435348
1,-1,0,-2,0,-2,-1,-1,2021-08-06 13:56:14,435348
-2,-2,-1,1,-1,-1,-1,-1,2021-08-06 13:56:14,451350
0,-2,-2,-3,0,0,0,-1,2021-08-06 13:56:14,451350
-4,-3,-2,-5,-5,-4,-3,-2,2021-08-06 13:56:14,451350
2,0,0,7,8,5,3,0,2021-08-06 13:56:14,451350
2,0,0,1,2,1,1,-1,2021-08-06 13:56:14,467349
-1,-1,-1,0,0,-2,-1,-1,2021-08-06 13:56:14,483348
-2,-3,-2,-3,-8,-5,-3,-2,2021-08-06 13:56:14,499348
-1,-3,-1,-6,-9,-6,-4,-2,2021-08-06 13:56:14,515350
-1,0,-1,0,0,0,0,1,2021-08-06 13:56:14,531349
0,0,1,2,4,1,-2,-1,2021-08-06 13:56:14,531349
-1,-1,-1,-1,0,-1,-1,0,2021-08-06 13:56:14,531349
-2,-3,-1,-4,-8,-4,-1,-2,2021-08-06 13:56:14,531349
-1,0,-1,1,1,0,0,-1,2021-08-06 13:56:14,531349
-1,0,-1,0,0,1,1,0,2021-08-06 13:56:14,531349
1,1,-1,2,5,3,1,1,2021-08-06 13:56:14,532349
0,0,1,-2,0,-1,0,0,2021-08-06 13:56:14,532349
-3,-2,-2,-4,-7,-5,-3,-1,2021-08-06 13:56:14,532349
0,-1,-1,-1,-1,-2,-1,-1,2021-08-06 13:56:14,532349
0,0,0,1,4,0,0,-1,2021-08-06 13:56:14,532349
-2,-2,-2,-4,-6,-4,-4,-2,2021-08-06 13:56:14,532349
-1,-1,0,-4,2,2,0,-1,2021-08-06 13:56:14,563351
2,2,2,5,10,5,1,3,2021-08-06 13:56:14,579348
-1,1,-1,-1,-2,-1,0,-1,2021-08-06 13:56:14,595348
-3,-2,-2,-1,-1,-2,0,-1,2021-08-06 13:56:14,595348
0,-2,0,-2,-3,-3,-1,0,2021-08-06 13:56:14,595348
-3,-1,0,1,0,1,-1,0,2021-08-06 13:56:14,595348
1,-2,-1,-1,1,1,0,-2,2021-08-06 13:56:14,595348
-1,0,-1,-1,-2,0,-1,1,2021-08-06 13:56:14,595348
1,1,-1,0,3,0,0,0,2021-08-06 13:56:14,595348
0,-1,-2,-3,-4,0,-2,0,2021-08-06 13:56:14,596349
2,-1,-2,-1,-3,-2,-1,0,2021-08-06 13:56:14,596349
1,0,-3,0,4,2,1,-1,2021-08-06 13:56:14,596349
-4,-2,-1,2,-2,-1,-3,-4,2021-08-06 13:56:14,611350
-2,-3,0,2,7,2,-1,-2,2021-08-06 13:56:14,624348
-4,-2,0,-2,-7,-6,-4,-4,2021-08-06 13:56:14,624348
2,2,2,-2,-3,2,1,1,2021-08-06 13:56:14,624348
1,1,0,3,7,1,2,0,2021-08-06 13:56:14,641348
-1,-1,-3,-4,-5,-4,-1,0,2021-08-06 13:56:14,641348
0,0,-1,-1,0,0,-2,-1,2021-08-06 13:56:14,641348
-2,-3,-2,-2,-5,-4,-3,-2,2021-08-06 13:56:14,641348
1,-2,0,-1,-2,-1,-1,-2,2021-08-06 13:56:14,641348
-1,0,-2,-3,-4,-3,0,-1,2021-08-06 13:56:14,641348
-2,-3,-2,-3,-2,-3,0,-1,2021-08-06 13:56:14,657348
-1,0,0,3,6,4,1,0,2021-08-06 13:56:14,673348
-1,1,1,1,-2,0,0,2,2021-08-06 13:56:14,673348
-2,-3,-5,-7,-11,-6,-4,-4,2021-08-06 13:56:14,673348
0,0,-2,-1,2,3,1,-2,2021-08-06 13:56:14,673348
3,-1,-1,0,5,2,2,1,2021-08-06 13:56:14,673348
1,1,1,6,7,5,2,0,2021-08-06 13:56:14,704348
-2,-2,0,-3,-6,-5,-3,-2,2021-08-06 13:56:14,720348
-3,-2,-3,-3,-3,-6,-3,-1,2021-08-06 13:56:14,720348
-1,1,2,-1,1,0,-2,1,2021-08-06 13:56:14,720348
-1,-1,0,-2,-1,0,-1,0,2021-08-06 13:56:14,736349
-1,-2,-2,-6,-11,-6,-3,-1,2021-08-06 13:56:14,736349
0,0,1,4,8,7,4,2,2021-08-06 13:56:14,736349
-2,-1,-1,0,-1,-1,-2,-3,2021-08-06 13:56:14,736349
-1,0,-4,-4,-7,-5,-4,-1,2021-08-06 13:56:14,736349
0,1,2,4,7,3,1,0,2021-08-06 13:56:14,736349
0,-1,-1,-3,-4,-2,-1,-1,2021-08-06 13:56:14,736349
-1,-3,-2,-2,-6,-5,-3,-2,2021-08-06 13:56:14,736349
0,-1,-2,-3,0,0,1,-2,2021-08-06 13:56:14,752350
0,-1,-1,3,3,1,1,0,2021-08-06 13:56:14,768348
2,2,1,4,4,3,1,0,2021-08-06 13:56:14,783348
0,-1,1,4,5,2,2,0,2021-08-06 13:56:14,783348
-1,-2,-2,-4,-7,-5,-3,-2,2021-08-06 13:56:14,799348
-1,-1,-2,-1,0,1,-1,-2,2021-08-06 13:56:14,799348
-1,-2,-1,-2,-5,-3,-1,-1,2021-08-06 13:56:14,815351
2,1,0,5,8,5,0,0,2021-08-06 13:56:14,815351
0,-2,0,-1,-2,-1,-1,-1,2021-08-06 13:56:14,815351
-1,-2,-2,-3,-4,-4,-3,-1,2021-08-06 13:56:14,815351
-1,0,-1,-2,-3,-2,0,0,2021-08-06 13:56:14,815351
-2,-1,-3,-4,-6,-5,-2,-1,2021-08-06 13:56:14,815351
-1,0,0,2,4,2,0,1,2021-08-06 13:56:14,815351
-2,0,-1,-4,-4,-1,1,0,2021-08-06 13:56:14,816351
-1,-2,-2,2,1,0,-1,-1,2021-08-06 13:56:14,816351
-3,-3,-1,-4,-2,-2,-2,-1,2021-08-06 13:56:14,816351
0,1,0,0,-1,-2,0,1,2021-08-06 13:56:14,847348
1,1,1,1,4,0,-1,-1,2021-08-06 13:56:14,863348
-1,-2,-2,-2,-3,-2,-2,-3,2021-08-06 13:56:14,863348
-1,-2,-3,-1,2,0,-3,-2,2021-08-06 13:56:14,863348
-3,-4,-5,-6,-11,-8,-5,-4,2021-08-06 13:56:14,863348
1,0,0,0,1,2,1,2,2021-08-06 13:56:14,863348
2,0,1,5,16,10,4,1,2021-08-06 13:56:14,863348
1,2,-2,-1,-2,2,0,1,2021-08-06 13:56:14,863348
0,-1,0,1,0,1,2,-3,2021-08-06 13:56:14,879351
-4,-4,-5,-7,-15,-12,-5,-4,2021-08-06 13:56:14,879351
0,1,2,2,3,3,0,1,2021-08-06 13:56:14,879351
-3,-2,-2,-3,-5,-3,-2,-2,2021-08-06 13:56:14,879351
0,-2,-1,1,6,2,1,1,2021-08-06 13:56:14,895348
-1,-2,-1,1,-1,-1,0,-2,2021-08-06 13:56:14,911350
-1,-3,-4,-7,-13,-8,-4,-3,2021-08-06 13:56:14,926348
-2,-2,-1,-2,-2,-1,0,0,2021-08-06 13:56:14,926348
-1,1,2,5,7,3,1,1,2021-08-06 13:56:14,926348
-1,0,1,1,4,3,0,0,2021-08-06 13:56:14,926348
-1,-1,0,-2,-3,-2,-2,0,2021-08-06 13:56:14,926348
-1,-2,-1,-2,-4,-3,-1,-1,2021-08-06 13:56:14,926348
0,0,-2,-4,-3,-4,-2,-2,2021-08-06 13:56:14,941348
1,0,0,2,3,2,0,-1,2021-08-06 13:56:14,941348
-2,-1,-1,-2,-2,-3,-2,-2,2021-08-06 13:56:14,941348
-2,-1,-2,-2,-6,-5,-3,-2,2021-08-06 13:56:14,941348
-1,0,1,-1,5,6,2,1,2021-08-06 13:56:14,957350
1,-1,0,1,0,0,0,1,2021-08-06 13:56:14,957350
-3,-1,-3,-1,0,-1,-1,-1,2021-08-06 13:56:14,957350
0,2,1,-2,1,0,0,-2,2021-08-06 13:56:14,957350
0,-1,-1,1,-1,-2,-1,-1,2021-08-06 13:56:14,973350
0,0,-1,0,1,2,1,-1,2021-08-06 13:56:14,989348
-1,-1,-2,-2,-3,-4,-2,-2,2021-08-06 13:56:14,997350
0,-1,-1,-1,-1,-2,-1,0,2021-08-06 13:56:14,997350
-2,-2,-2,-2,-3,-3,-2,-2,2021-08-06 13:56:14,998350
-1,0,0,-1,-1,-2,0,2,2021-08-06 13:56:14,998350
-2,-1,-1,-2,-2,-2,-1,-1,2021-08-06 13:56:14,998350
0,-1,0,1,2,3,0,0,2021-08-06 13:56:14,998350
-2,-2,0,-2,-3,-3,-3,-2,2021-08-06 13:56:15,021348
0,1,1,0,-1,0,-2,-1,2021-08-06 13:56:15,021348
0,0,0,-1,-1,-1,-1,-1,2021-08-06 13:56:15,021348
-2,0,1,-1,0,0,-1,1,2021-08-06 13:56:15,021348
-2,-1,-2,-3,-4,-1,0,-1,2021-08-06 13:56:15,037348
-2,0,-2,0,4,0,0,-1,2021-08-06 13:56:15,037348
-2,-2,-3,0,-4,-3,-2,-2,2021-08-06 13:56:15,037348
1,0,1,-2,-1,-1,0,0,2021-08-06 13:56:15,037348
1,1,-1,1,2,2,0,-1,2021-08-06 13:56:15,053349
-2,-1,2,0,2,1,-1,-3,2021-08-06 13:56:15,069367
-2,0,-1,-3,-7,-5,-2,-3,2021-08-06 13:56:15,069367
0,-1,0,2,3,2,2,0,2021-08-06 13:56:15,069367
-1,-4,-4,-5,-8,-6,-3,-2,2021-08-06 13:56:15,069367
-2,-4,-4,-11,-17,-9,-4,-2,2021-08-06 13:56:15,069367
3,3,5,14,33,21,8,4,2021-08-06 13:56:15,085369
0,-1,1,3,3,3,1,-2,2021-08-06 13:56:15,085369
0,1,-2,1,-2,-2,-1,-1,2021-08-06 13:56:15,085369
-1,-3,-5,-2,-5,-5,-1,-3,2021-08-06 13:56:15,085369
-3,-2,-5,-10,-17,-11,-6,-2,2021-08-06 13:56:15,101369
-1,-1,-1,1,2,-1,1,-2,2021-08-06 13:56:15,101369
0,0,-1,0,0,3,1,-1,2021-08-06 13:56:15,117367
-1,0,-1,-1,-3,-2,0,-2,2021-08-06 13:56:15,133367
0,0,-1,0,0,-1,-1,0,2021-08-06 13:56:15,133367
-2,-1,-1,0,-2,-3,-3,-2,2021-08-06 13:56:15,133367
-2,-3,-2,-3,-1,0,0,-1,2021-08-06 13:56:15,133367
1,2,4,6,7,4,3,-1,2021-08-06 13:56:15,133367
-1,0,-1,-1,-1,0,-2,-1,2021-08-06 13:56:15,133367
-3,-2,-3,-3,-4,-3,-2,-1,2021-08-06 13:56:15,133367
-3,-1,-2,-1,-5,-4,-3,-3,2021-08-06 13:56:15,149367
-4,-4,-4,-6,-12,-6,-2,-3,2021-08-06 13:56:15,165368
2,1,1,2,9,7,5,2,2021-08-06 13:56:15,165368
1,0,0,3,1,-1,-1,-1,2021-08-06 13:56:15,165368
1,3,3,5,12,7,5,3,2021-08-06 13:56:15,181367
-2,1,0,2,3,2,0,0,2021-08-06 13:56:15,197367
-5,-5,-5,-10,-21,-14,-8,-4,2021-08-06 13:56:15,213367
-1,-3,-3,-4,-10,-6,-2,-1,2021-08-06 13:56:15,213367
-2,-1,-1,1,1,1,-1,-2,2021-08-06 13:56:15,213367
1,1,2,8,14,6,4,0,2021-08-06 13:56:15,213367
0,-1,-1,-3,-2,0,-1,1,2021-08-06 13:56:15,213367
0,-1,-3,-2,-1,1,-2,0,2021-08-06 13:56:15,213367
0,-2,-4,-3,-7,-5,-2,-3,2021-08-06 13:56:15,213367
-2,0,-2,-3,-3,-2,0,-2,2021-08-06 13:56:15,213367
-1,-1,-2,-1,-4,-3,-1,-1,2021-08-06 13:56:15,213367
-1,-3,0,1,1,-1,-1,-4,2021-08-06 13:56:15,214371
-2,-1,-1,0,-2,0,-3,-1,2021-08-06 13:56:15,244369
0,-1,-1,-1,1,1,-1,-1,2021-08-06 13:56:15,244369
-1,-1,-1,1,1,1,2,0,2021-08-06 13:56:15,244369
1,3,1,0,-3,0,0,1,2021-08-06 13:56:15,244369
1,1,-1,-1,0,1,0,0,2021-08-06 13:56:15,260368
0,0,-1,-2,1,0,-1,0,2021-08-06 13:56:15,260368
-2,-2,-1,2,0,-2,-1,0,2021-08-06 13:56:15,260368
-2,-3,-1,-4,0,-2,-1,-1,2021-08-06 13:56:15,260368
-2,-3,-1,-3,-2,-1,0,-1,2021-08-06 13:56:15,276608
0,0,0,-1,0,0,-2,0,2021-08-06 13:56:15,276608
-1,-1,-1,0,-3,-1,0,-1,2021-08-06 13:56:15,276608
-2,-2,-3,-1,0,1,-1,-1,2021-08-06 13:56:15,276608
-1,1,2,0,0,0,0,-1,2021-08-06 13:56:15,291907
0,-1,-1,-1,-1,-1,-1,0,2021-08-06 13:56:15,307907
-1,-1,0,0,3,0,-2,-1,2021-08-06 13:56:15,307907
-2,1,-2,0,-1,0,0,-1,2021-08-06 13:56:15,307907
-1,-1,-2,0,0,0,1,-1,2021-08-06 13:56:15,323907
0,0,1,-1,1,1,1,1,2021-08-06 13:56:15,323907
0,1,1,0,-1,0,0,-2,2021-08-06 13:56:15,323907
-4,-5,-4,-1,0,-2,-2,-2,2021-08-06 13:56:15,323907
1,2,2,-1,-4,-3,0,1,2021-08-06 13:56:15,323907
0,-1,-2,-1,1,0,0,1,2021-08-06 13:56:15,323907
-1,-2,-3,-5,-8,-4,-2,-3,2021-08-06 13:56:15,339906
2,2,4,9,16,10,2,2,2021-08-06 13:56:15,339906
-2,-3,-2,0,-3,-2,-2,-3,2021-08-06 13:56:15,355906
-2,-3,-4,-5,-7,-4,0,-1,2021-08-06 13:56:15,355906
0,0,0,-1,7,1,-3,-1,2021-08-06 13:56:15,355906
0,-2,-2,-5,-4,-3,0,1,2021-08-06 13:56:15,355906
-1,-2,-2,-2,-4,-3,-3,-3,2021-08-06 13:56:15,378910
0,-1,2,4,6,3,1,-1,2021-08-06 13:56:15,379909
0,-1,-3,-3,-7,-3,-2,-1,2021-08-06 13:56:15,379909
-1,1,0,-1,-1,-1,-1,-3,2021-08-06 13:56:15,379909
-1,-1,-2,1,4,2,2,0,2021-08-06 13:56:15,387906
-2,-2,-2,-3,-6,-2,-1,-1,2021-08-06 13:56:15,387906
-1,-3,0,0,-1,-2,0,0,2021-08-06 13:56:15,403906
-1,-1,-2,-2,-1,-1,-1,0,2021-08-06 13:56:15,403906
-1,0,-1,-4,-6,-3,-2,-1,2021-08-06 13:56:15,419906
1,-2,-3,-2,-1,-2,-1,-1,2021-08-06 13:56:15,419906
1,1,1,4,7,4,2,-1,2021-08-06 13:56:15,419906
-2,-3,-4,-7,-12,-8,-4,-4,2021-08-06 13:56:15,419906
1,1,1,5,13,9,3,2,2021-08-06 13:56:15,435906
0,1,1,7,11,4,-1,1,2021-08-06 13:56:15,451906
0,0,1,2,-4,-2,-1,1,2021-08-06 13:56:15,451906
-2,-2,-4,-8,-14,-9,-3,-2,2021-08-06 13:56:15,451906
-2,-3,-3,-4,-1,-2,-2,-2,2021-08-06 13:56:15,451906
-1,0,1,0,2,2,0,0,2021-08-06 13:56:15,451906
-2,-1,-1,-2,1,0,0,0,2021-08-06 13:56:15,451906
-1,-2,-2,-1,-3,-1,-1,-1,2021-08-06 13:56:15,451906
-1,-2,-2,-2,-5,-4,-4,-1,2021-08-06 13:56:15,483906
-1,-2,-3,-5,-9,-6,-3,-3,2021-08-06 13:56:15,483906
0,0,-1,2,10,5,1,1,2021-08-06 13:56:15,483906
2,1,0,3,7,4,2,0,2021-08-06 13:56:15,483906
0,-2,-1,0,0,0,2,1,2021-08-06 13:56:15,498908
2,-1,1,0,-2,0,1,2,2021-08-06 13:56:15,499159
-3,-4,-4,-5,-11,-5,-3,-3,2021-08-06 13:56:15,499159
-2,2,1,0,3,3,1,0,2021-08-06 13:56:15,499159
-3,-4,-1,0,-2,-4,-3,-2,2021-08-06 13:56:15,514422
-4,-3,-2,-6,-13,-9,-6,-5,2021-08-06 13:56:15,530421
0,1,0,0,3,5,0,0,2021-08-06 13:56:15,546419
4,5,7,17,28,13,5,3,2021-08-06 13:56:15,546419
0,-1,-1,-3,-5,-3,-2,0,2021-08-06 13:56:15,546419
-1,-1,-1,-3,-4,-3,0,0,2021-08-06 13:56:15,546419
-2,-3,-3,-7,-11,-8,-3,-2,2021-08-06 13:56:15,546419
-3,-4,-5,-6,-9,-5,-1,-2,2021-08-06 13:56:15,546419
-1,1,0,0,1,2,-2,0,2021-08-06 13:56:15,562420
-1,-2,-2,-4,-5,-4,-2,-1,2021-08-06 13:56:15,562420
1,2,2,4,5,1,0,-3,2021-08-06 13:56:15,562420
0,-1,0,-1,-1,-1,-2,0,2021-08-06 13:56:15,562420
-1,2,1,3,1,0,0,0,2021-08-06 13:56:15,578421
0,0,-2,3,4,3,0,0,2021-08-06 13:56:15,578421
-3,-4,-3,-3,-7,-3,-3,-2,2021-08-06 13:56:15,578421
2,0,0,-2,0,0,0,1,2021-08-06 13:56:15,578421
-3,-4,-4,-5,-7,-6,-4,-5,2021-08-06 13:56:15,594420
-2,-1,-2,-3,-3,-3,-2,-2,2021-08-06 13:56:15,594420
1,0,1,2,9,8,5,1,2021-08-06 13:56:15,594420
-3,-2,-2,-2,-5,-5,-1,-2,2021-08-06 13:56:15,594420
1,1,-1,0,4,4,1,1,2021-08-06 13:56:15,626422
-1,0,-3,0,-1,-2,-1,0,2021-08-06 13:56:15,626422
-3,-4,-1,-3,-11,-8,-5,-3,2021-08-06 13:56:15,626422
0,-1,-4,-10,-10,-4,-1,-2,2021-08-06 13:56:15,626422
2,1,4,10,15,7,4,1,2021-08-06 13:56:15,642419
-1,0,-1,1,1,0,0,1,2021-08-06 13:56:15,642419
0,0,-3,1,4,2,1,1,2021-08-06 13:56:15,642419
-3,0,-1,-5,-11,-9,-5,-3,2021-08-06 13:56:15,642419
-1,-1,-1,0,1,4,3,1,2021-08-06 13:56:15,658421
-1,0,1,-2,1,1,0,-1,2021-08-06 13:56:15,658421
-2,-1,0,-1,-2,-3,-2,-2,2021-08-06 13:56:15,658421
-2,0,2,1,4,2,-1,-1,2021-08-06 13:56:15,658421
-2,-1,-3,-7,-9,-4,-1,-1,2021-08-06 13:56:15,689419
1,-1,3,5,7,5,2,0,2021-08-06 13:56:15,689419
-1,-1,-2,-4,-6,-5,-3,-2,2021-08-06 13:56:15,689419
-2,-4,-3,-6,-9,-3,-2,-2,2021-08-06 13:56:15,689419
-2,-1,0,1,1,-1,-1,0,2021-08-06 13:56:15,704420
-2,0,-3,-3,-3,-4,-1,-3,2021-08-06 13:56:15,720420
2,2,1,4,9,4,3,3,2021-08-06 13:56:15,736421
0,1,0,1,2,0,1,0,2021-08-06 13:56:15,736421
-4,-2,-2,-5,-6,-5,-3,-1,2021-08-06 13:56:15,736421
-2,-1,-1,-4,-3,-3,-4,-2,2021-08-06 13:56:15,736421
0,0,1,1,2,2,1,-1,2021-08-06 13:56:15,736421
-1,0,-1,-2,-2,-1,0,0,2021-08-06 13:56:15,736421
2,1,-1,0,3,1,2,-1,2021-08-06 13:56:15,736421
0,0,1,2,2,2,0,1,2021-08-06 13:56:15,737421
-2,0,-2,-3,-7,-3,-4,0,2021-08-06 13:56:15,737421
0,-2,1,6,7,4,2,-1,2021-08-06 13:56:15,737421
-2,-1,-2,-5,-8,-7,-4,-2,2021-08-06 13:56:15,766419
0,-1,0,2,2,2,1,0,2021-08-06 13:56:15,782420
0,0,-2,-1,2,1,1,0,2021-08-06 13:56:15,798421
-2,0,-1,-3,-5,-5,-3,-1,2021-08-06 13:56:15,798421
-4,-5,-4,-9,-17,-10,-6,-2,2021-08-06 13:56:15,798421
0,1,2,9,15,11,3,2,2021-08-06 13:56:15,798421
0,-1,-2,0,-2,-2,-1,-2,2021-08-06 13:56:15,798421
-1,0,-1,1,5,3,1,-1,2021-08-06 13:56:15,798421
1,0,2,2,1,0,1,-1,2021-08-06 13:56:15,799422
-1,-2,-1,-2,-3,-1,0,-1,2021-08-06 13:56:15,799422
-2,-1,-1,-2,-6,-3,-2,-2,2021-08-06 13:56:15,799422
-2,-2,-1,-1,-2,-3,-3,-2,2021-08-06 13:56:15,799422
0,0,-2,-5,-5,-1,-2,-1,2021-08-06 13:56:15,830420
-2,-1,1,-1,0,-1,-1,-1,2021-08-06 13:56:15,846419
2,1,2,1,4,4,3,1,2021-08-06 13:56:15,862420
0,-2,-2,2,0,0,-1,-2,2021-08-06 13:56:15,862420
0,0,-1,0,0,-1,0,-2,2021-08-06 13:56:15,878423
1,-1,-2,-3,-3,-1,-3,-1,2021-08-06 13:56:15,878423
-1,-3,-2,-1,-2,-2,-3,-1,2021-08-06 13:56:15,878423
0,0,0,-1,2,1,-1,0,2021-08-06 13:56:15,878423
0,-1,-1,1,0,0,0,-2,2021-08-06 13:56:15,878423
1,0,0,-1,1,-1,0,0,2021-08-06 13:56:15,878423
-1,-3,-2,-3,-4,-6,-4,-2,2021-08-06 13:56:15,878423
0,-2,-1,-2,-8,-5,-1,-1,2021-08-06 13:56:15,878423
-1,-1,1,7,15,6,2,1,2021-08-06 13:56:15,878423
-1,-1,-1,-2,-3,-3,-3,-3,2021-08-06 13:56:15,879421
0,-1,0,0,3,3,1,1,2021-08-06 13:56:15,894421
-1,-1,-2,-4,-6,-4,-2,-1,2021-08-06 13:56:15,910422
-1,-1,-1,-2,-4,-4,-1,-2,2021-08-06 13:56:15,926420
-3,-3,-4,-2,-2,-6,-4,-1,2021-08-06 13:56:15,942419
-1,-2,0,2,-1,3,1,0,2021-08-06 13:56:15,958420
1,1,1,6,15,7,0,2,2021-08-06 13:56:15,974419
1,0,0,1,2,3,0,1,2021-08-06 13:56:15,990421
0,-1,0,-2,-3,-2,-1,-2,2021-08-06 13:56:16,006420
-2,-2,-1,-2,-3,-4,-2,-2,2021-08-06 13:56:16,022420
-1,-1,-1,0,-1,1,0,-2,2021-08-06 13:56:16,022420
-2,-2,-2,-2,-4,-2,-3,-1,2021-08-06 13:56:16,022420
0,0,-2,-3,-2,1,1,0,2021-08-06 13:56:16,022420
-1,-1,-2,-2,-3,-5,-3,-2,2021-08-06 13:56:16,022420
1,-1,1,0,0,1,1,1,2021-08-06 13:56:16,022420
1,1,-1,0,1,0,0,-1,2021-08-06 13:56:16,023421
-3,-4,-2,-6,-10,-5,-2,-3,2021-08-06 13:56:16,023421
1,0,0,5,11,6,1,0,2021-08-06 13:56:16,023421
-3,-3,-3,-6,-9,-6,-3,-1,2021-08-06 13:56:16,023421
-1,-1,1,2,4,0,1,1,2021-08-06 13:56:16,023421
-2,-3,-5,-5,-5,-3,-1,-2,2021-08-06 13:56:16,023421
0,1,2,1,1,3,1,0,2021-08-06 13:56:16,023421
0,-2,-2,0,0,-2,-2,-4,2021-08-06 13:56:16,023421
-3,-2,-2,-4,-8,-3,-3,-2,2021-08-06 13:56:16,023421
-2,-2,-2,-4,-9,-7,-4,-2,2021-08-06 13:56:16,024420
-3,-3,-4,-5,-13,-7,-4,-2,2021-08-06 13:56:16,024420
0,-1,1,3,11,6,3,1,2021-08-06 13:56:16,024420
0,1,0,2,3,4,1,-1,2021-08-06 13:56:16,024420
0,1,0,2,7,4,1,0,2021-08-06 13:56:16,024420
-2,-1,-4,-4,-9,-6,-3,-2,2021-08-06 13:56:16,024420
-1,-2,-1,-3,-7,-4,-2,-2,2021-08-06 13:56:16,024420
-1,-1,-2,-4,-1,-2,-1,-1,2021-08-06 13:56:16,038419
-1,-1,-1,1,-1,-1,-1,-1,2021-08-06 13:56:16,053420
-1,-4,-3,-7,-9,-3,-2,-1,2021-08-06 13:56:16,053420
0,-1,-1,0,5,3,1,1,2021-08-06 13:56:16,053420
2,2,4,12,21,12,4,1,2021-08-06 13:56:16,053420
1,0,-1,1,1,2,0,2,2021-08-06 13:56:16,053420
-2,-2,0,-1,-4,-4,0,-2,2021-08-06 13:56:16,053420
1,-1,0,-3,-5,-5,-3,-1,2021-08-06 13:56:16,053420
-2,-4,-5,-5,-10,-8,-4,-3,2021-08-06 13:56:16,085420
-1,-1,-1,-4,-6,-3,0,-1,2021-08-06 13:56:16,101421
1,0,1,3,10,6,3,0,2021-08-06 13:56:16,101421
-3,-1,-1,-2,-3,-1,0,0,2021-08-06 13:56:16,101421
-1,-2,-2,-5,-9,-4,-2,-1,2021-08-06 13:56:16,101421
-3,-2,-1,2,-3,-2,-2,-2,2021-08-06 13:56:16,101421
-2,-2,-3,-9,-8,-5,-3,-1,2021-08-06 13:56:16,101421
4,4,5,16,25,15,7,4,2021-08-06 13:56:16,101421
0,-3,-3,-5,-3,-4,-4,-1,2021-08-06 13:56:16,117419
0,-1,-1,2,6,3,0,-2,2021-08-06 13:56:16,118421
0,0,-3,-5,-7,-6,-5,-1,2021-08-06 13:56:16,119423
-4,-5,-6,-13,-23,-13,-5,-2,2021-08-06 13:56:16,119423
3,2,3,9,19,16,7,6,2021-08-06 13:56:16,133420
1,-1,-1,1,6,3,1,1,2021-08-06 13:56:16,133420
-2,1,1,2,3,1,-1,1,2021-08-06 13:56:16,149422
-3,-3,-3,-4,-16,-10,-4,-4,2021-08-06 13:56:16,149422
-1,-2,-2,-6,-7,-5,-3,-2,2021-08-06 13:56:16,149422
-4,-3,-2,-3,-2,0,0,-3,2021-08-06 13:56:16,149422
3,3,3,8,9,6,3,0,2021-08-06 13:56:16,165422
-2,-2,-3,-2,-3,-2,-3,-2,2021-08-06 13:56:16,165422
-3,-1,-1,-5,-10,-7,-4,-2,2021-08-06 13:56:16,181420
-1,-3,-5,-9,-15,-12,-8,-3,2021-08-06 13:56:16,181420
2,3,5,10,25,16,7,5,2021-08-06 13:56:16,181420
-2,-2,-3,-1,-3,-2,-2,-3,2021-08-06 13:56:16,181420
2,0,-1,1,0,0,0,0,2021-08-06 13:56:16,197420
0,2,2,5,9,4,0,0,2021-08-06 13:56:16,212420
-4,-7,-6,-13,-18,-14,-6,-5,2021-08-06 13:56:16,227421
1,3,3,5,10,8,5,2,2021-08-06 13:56:16,227421
-1,-1,2,8,12,5,2,0,2021-08-06 13:56:16,227421
-1,-3,-3,-5,-10,-5,-3,-2,2021-08-06 13:56:16,227421
-1,0,-1,-1,1,0,0,0,2021-08-06 13:56:16,227421
-1,-2,-1,-1,2,-1,-3,0,2021-08-06 13:56:16,227421
-3,-3,-2,-6,-12,-8,-5,-2,2021-08-06 13:56:16,243421
-1,2,1,2,6,3,1,1,2021-08-06 13:56:16,243421
-2,-1,1,0,-2,0,-2,-1,2021-08-06 13:56:16,243421
-2,0,-2,-3,-6,-4,-3,-1,2021-08-06 13:56:16,243421
-1,-1,-4,-5,-8,-8,-2,0,2021-08-06 13:56:16,273421
4,3,4,4,7,7,5,4,2021-08-06 13:56:16,289419
-1,-3,-3,-1,1,0,-2,-2,2021-08-06 13:56:16,289419
2,2,3,5,12,5,3,2,2021-08-06 13:56:16,289419
-3,-2,-2,-5,-10,-7,-4,-2,2021-08-06 13:56:16,289419
2,4,4,11,16,10,6,3,2021-08-06 13:56:16,289419
0,-2,-2,-1,-6,-4,-4,-2,2021-08-06 13:56:16,289419
-1,-3,-1,-3,-6,-3,-2,-2,2021-08-06 13:56:16,289419
-3,-3,-4,-4,-4,-3,-3,-2,2021-08-06 13:56:16,305419
-3,-3,-2,-6,-8,-7,-4,-2,2021-08-06 13:56:16,321420
0,-1,-1,3,11,4,3,-2,2021-08-06 13:56:16,321420
-1,0,-1,-1,-9,-4,-1,-1,2021-08-06 13:56:16,321420
0,-1,0,2,4,2,0,0,2021-08-06 13:56:16,321420
-2,-3,-4,-6,-10,-6,-2,-3,2021-08-06 13:56:16,321420
1,0,2,5,8,6,2,2,2021-08-06 13:56:16,321420
-4,-2,-4,-6,-10,-6,-4,-3,2021-08-06 13:56:16,321420
-2,0,0,-2,-1,0,-1,0,2021-08-06 13:56:16,337419
-1,0,-2,-2,-2,-1,-2,0,2021-08-06 13:56:16,352420
-1,-2,-4,-4,-13,-9,-3,-2,2021-08-06 13:56:16,368419
1,3,1,2,14,8,3,2,2021-08-06 13:56:16,368419
-1,-1,1,2,0,3,1,0,2021-08-06 13:56:16,368419
0,0,-3,-1,-2,-2,-3,-2,2021-08-06 13:56:16,368419
-4,-4,-5,-8,-17,-11,-7,-6,2021-08-06 13:56:16,368419
-2,-2,-2,-4,-3,-1,-1,-2,2021-08-06 13:56:16,368419
1,2,-1,7,13,7,5,1,2021-08-06 13:56:16,368419
-2,-1,1,2,3,0,1,-1,2021-08-06 13:56:16,368419
1,0,0,2,3,2,1,0,2021-08-06 13:56:16,384420
-2,-4,-3,-9,-14,-11,-6,-3,2021-08-06 13:56:16,384420
0,-3,-3,-6,-7,-4,-4,-2,2021-08-06 13:56:16,399420
-2,-3,-2,-2,-1,-2,-1,0,2021-08-06 13:56:16,415421
-2,-3,-3,-2,-5,-2,0,0,2021-08-06 13:56:16,430420
0,0,0,3,11,6,2,1,2021-08-06 13:56:16,430420
-3,-1,0,1,2,2,-2,-3,2021-08-06 13:56:16,430420
-2,0,1,1,-2,-3,-2,-1,2021-08-06 13:56:16,430420
-1,1,3,0,4,1,-1,0,2021-08-06 13:56:16,430420
-1,-1,-4,-5,-13,-7,-4,-2,2021-08-06 13:56:16,430420
0,0,0,2,3,1,1,-2,2021-08-06 13:56:16,430420
-1,-3,-4,-3,-3,-1,-2,-1,2021-08-06 13:56:16,430420
-1,1,-1,-2,-3,0,0,1,2021-08-06 13:56:16,445419
1,0,-1,1,2,1,-1,-1,2021-08-06 13:56:16,445419
-2,0,0,-5,-6,-6,-1,0,2021-08-06 13:56:16,461420
0,-2,-2,1,3,3,0,-3,2021-08-06 13:56:16,477420
-4,-2,-5,-4,-6,-7,-3,-4,2021-08-06 13:56:16,488420
0,-2,-1,1,0,4,2,-1,2021-08-06 13:56:16,489423
-2,-2,-2,-2,-4,-2,-1,-1,2021-08-06 13:56:16,489423
-1,0,0,3,8,2,2,-1,2021-08-06 13:56:16,489423
0,-2,0,-4,-5,-3,-1,1,2021-08-06 13:56:16,489423
-1,-2,-1,1,2,1,-1,-1,2021-08-06 13:56:16,489423
0,0,-2,-4,-3,-3,-2,-2,2021-08-06 13:56:16,489423
1,-1,1,3,2,1,-2,0,2021-08-06 13:56:16,490422
-2,-2,-4,-5,-8,-5,-4,-1,2021-08-06 13:56:16,509422
0,0,1,4,8,4,2,0,2021-08-06 13:56:16,509422
-1,-3,0,0,0,0,-1,1,2021-08-06 13:56:16,509422
-2,-3,-3,-6,-5,-5,-1,-2,2021-08-06 13:56:16,509422
1,1,1,7,11,8,2,0,2021-08-06 13:56:16,525420
-3,-2,-2,-5,-8,-4,-2,-2,2021-08-06 13:56:16,525420
1,2,1,3,3,2,1,-1,2021-08-06 13:56:16,541419
-1,1,0,0,1,1,0,-1,2021-08-06 13:56:16,541419
-2,0,1,-1,0,-2,0,-1,2021-08-06 13:56:16,541419
-1,-2,-3,-2,-1,-1,-2,-1,2021-08-06 13:56:16,541419
-3,-2,-3,-3,-8,-7,-5,-4,2021-08-06 13:56:16,573420
-3,-1,-3,-6,-4,-3,-2,-2,2021-08-06 13:56:16,589419
3,3,4,13,24,14,6,3,2021-08-06 13:56:16,589419
0,0,0,-2,-2,-3,-1,1,2021-08-06 13:56:16,589419
0,0,0,-2,-3,-1,-2,0,2021-08-06 13:56:16,589419
0,-2,-5,-4,-10,-8,-5,-3,2021-08-06 13:56:16,589419
-5,-3,-7,-17,-24,-15,-6,-5,2021-08-06 13:56:16,589419
3,3,3,15,32,18,7,3,2021-08-06 13:56:16,589419
-1,0,0,3,2,1,-1,-1,2021-08-06 13:56:16,605419
-2,-2,0,0,-3,-1,-1,-1,2021-08-06 13:56:16,621420
-3,-2,-1,-3,-5,-4,-3,-2,2021-08-06 13:56:16,637419
-3,-4,-4,-4,-10,-9,-5,-3,2021-08-06 13:56:16,637419
1,0,-1,-4,-5,-2,-1,0,2021-08-06 13:56:16,637419
0,1,3,6,9,5,2,1,2021-08-06 13:56:16,637419
1,0,1,1,-1,0,-1,0,2021-08-06 13:56:16,653421
-2,0,-2,-4,-8,-4,-3,0,2021-08-06 13:56:16,653421
0,-2,-4,0,1,0,0,-3,2021-08-06 13:56:16,653421
1,1,-1,-3,-6,-1,-1,2,2021-08-06 13:56:16,653421
-2,-3,-2,-2,0,-2,-1,-1,2021-08-06 13:56:16,653421
2,1,2,5,5,3,1,0,2021-08-06 13:56:16,653421
-2,-1,0,6,9,3,1,0,2021-08-06 13:56:16,653421
-3,-2,-3,-6,-8,-5,-2,-2,2021-08-06 13:56:16,653421
-1,-1,-2,-4,-5,0,0,0,2021-08-06 13:56:16,653421
1,-1,-3,0,-1,-2,-3,-2,2021-08-06 13:56:16,653421
-1,-1,1,2,1,1,0,0,2021-08-06 13:56:16,701420
-1,1,-1,4,6,1,0,-1,2021-08-06 13:56:16,701420
-1,-2,-1,-2,0,-2,-1,0,2021-08-06 13:56:16,701420
-1,-4,-2,-7,-14,-6,-3,-2,2021-08-06 13:56:16,701420
0,-2,-3,-4,-4,-4,-4,-3,2021-08-06 13:56:16,701420
0,0,1,4,13,8,2,0,2021-08-06 13:56:16,701420
2,2,2,5,5,4,2,-1,2021-08-06 13:56:16,701420
-3,0,-1,-3,-8,-6,-2,0,2021-08-06 13:56:16,702422
-1,-1,-1,-2,-2,-3,1,-1,2021-08-06 13:56:16,732421
-2,-3,-3,-6,-11,-7,-4,-2,2021-08-06 13:56:16,748421
1,1,1,6,8,6,1,1,2021-08-06 13:56:16,763420
-2,-1,-1,-3,-3,-3,-1,-3,2021-08-06 13:56:16,763420
-2,-2,-3,-6,-9,-6,-2,0,2021-08-06 13:56:16,763420
2,1,2,8,13,9,3,2,2021-08-06 13:56:16,763420
-1,-2,-1,-2,-4,0,0,-1,2021-08-06 13:56:16,763420
1,1,-1,3,5,2,1,1,2021-08-06 13:56:16,763420
1,0,0,0,-3,-4,-3,-1,2021-08-06 13:56:16,764421
-2,-2,-3,-7,-14,-7,-2,-2,2021-08-06 13:56:16,764421
-1,1,0,1,4,1,-1,-1,2021-08-06 13:56:16,764421
0,-2,-1,-2,-2,-2,0,-1,2021-08-06 13:56:16,764421
0,-3,-5,-2,-2,-1,1,-1,2021-08-06 13:56:16,778423
1,0,1,2,2,2,3,1,2021-08-06 13:56:16,778423
-1,-1,-2,-2,0,-1,-1,-1,2021-08-06 13:56:16,778423
-2,-2,-1,-4,-5,-4,-3,-2,2021-08-06 13:56:16,778423
1,-2,-1,1,2,2,1,-1,2021-08-06 13:56:16,808419
-1,-4,-3,-3,-3,-5,-3,-3,2021-08-06 13:56:16,808419
0,1,1,1,2,2,1,0,2021-08-06 13:56:16,808419
-1,-1,-1,-1,2,0,-1,-2,2021-08-06 13:56:16,808419
0,1,1,4,6,6,1,1,2021-08-06 13:56:16,824421
0,-1,-1,0,-4,-2,-1,-1,2021-08-06 13:56:16,839420
-1,0,-4,-6,-10,-8,-2,-2,2021-08-06 13:56:16,839420
-1,0,-3,-1,3,2,-1,0,2021-08-06 13:56:16,839420
0,-1,1,1,2,2,1,0,2021-08-06 13:56:16,839420
-2,-1,-1,-2,-5,-4,-2,-1,2021-08-06 13:56:16,839420
1,-2,-1,-2,-2,-3,-2,-2,2021-08-06 13:56:16,839420
-1,-1,-2,-4,-3,-1,-1,-1,2021-08-06 13:56:16,839420
-1,-1,-2,0,5,4,0,1,2021-08-06 13:56:16,857420
0,0,-1,-2,-1,0,-1,-2,2021-08-06 13:56:16,857420
1,1,2,4,2,1,1,0,2021-08-06 13:56:16,869421
-2,-2,0,2,0,0,-2,0,2021-08-06 13:56:16,869421
-1,0,-1,-4,-6,-3,-2,-1,2021-08-06 13:56:16,884419
-2,-2,-5,-4,-7,-5,-4,-1,2021-08-06 13:56:16,900422
-1,-2,-3,0,1,1,-1,-1,2021-08-06 13:56:16,900422
-2,-2,-1,-1,0,-1,-2,-2,2021-08-06 13:56:16,900422
0,0,-1,0,1,2,-1,1,2021-08-06 13:56:16,900422
1,1,2,3,6,5,1,1,2021-08-06 13:56:16,900422
-2,-2,-1,-4,-4,-3,-2,-4,2021-08-06 13:56:16,900422
-1,0,-1,0,-2,-1,-2,0,2021-08-06 13:56:16,900422
-3,-2,-1,-1,-3,-2,-2,-2,2021-08-06 13:56:16,931422
0,-3,-2,-2,-2,-2,-1,-1,2021-08-06 13:56:16,931422
-1,-2,1,-2,-1,-2,-2,-1,2021-08-06 13:56:16,931422
0,1,1,2,2,2,2,0,2021-08-06 13:56:16,931422
-1,0,0,0,0,0,0,0,2021-08-06 13:56:16,946420
-3,0,-3,-4,-2,-1,-2,-1,2021-08-06 13:56:16,962420
1,0,1,4,6,3,0,-1,2021-08-06 13:56:16,978420
-1,0,-2,-2,-6,-4,-2,-3,2021-08-06 13:56:16,978420
-2,-2,-4,-6,-10,-7,-3,-1,2021-08-06 13:56:16,978420
-2,-1,-1,-2,1,-1,0,-1,2021-08-06 13:56:16,978420
0,1,0,6,9,5,3,2,2021-08-06 13:56:16,978420
1,-1,1,-1,1,-1,0,0,2021-08-06 13:56:16,978420
-1,-2,1,-4,-3,-4,0,-1,2021-08-06 13:56:16,978420
-2,-4,-6,-5,-10,-6,-2,-2,2021-08-06 13:56:16,979424
-2,-2,-5,-4,-3,-1,-2,-1,2021-08-06 13:56:16,979424
0,-2,-1,2,1,-1,-1,-2,2021-08-06 13:56:16,979424
1,-1,0,-1,-3,-2,-1,-1,2021-08-06 13:56:16,994421
-3,-1,0,0,-1,-2,-2,-1,2021-08-06 13:56:17,010420
-2,-2,-3,-5,-3,-2,-1,-1,2021-08-06 13:56:17,026420
-1,3,-1,3,3,1,1,-1,2021-08-06 13:56:17,026420
-1,-1,0,1,2,2,1,-1,2021-08-06 13:56:17,026420
0,-1,0,4,9,4,3,0,2021-08-06 13:56:17,026420
0,-1,-1,-4,-4,-1,0,0,2021-08-06 13:56:17,026420
-3,-5,-4,-10,-16,-10,-7,-4,2021-08-06 13:56:17,026420
0,2,0,3,9,7,2,2,2021-08-06 13:56:17,041421
-1,0,0,2,0,-1,-2,-1,2021-08-06 13:56:17,041421
-2,-5,-4,-2,-7,-7,-4,-3,2021-08-06 13:56:17,041421
1,-3,0,-2,-1,2,1,2,2021-08-06 13:56:17,041421
2,3,1,5,14,6,4,1,2021-08-06 13:56:17,057421
2,0,1,1,6,4,1,-1,2021-08-06 13:56:17,057421
-1,1,-3,-5,-8,-7,-3,-2,2021-08-06 13:56:17,057421
-4,-2,-4,-11,-13,-7,-3,-2,2021-08-06 13:56:17,057421
-3,-3,-3,0,-4,-6,-6,-2,2021-08-06 13:56:17,088419
1,1,5,5,8,4,1,1,2021-08-06 13:56:17,103419
2,4,0,1,2,1,1,-1,2021-08-06 13:56:17,103419
-1,-1,-3,0,4,3,2,0,2021-08-06 13:56:17,103419
-2,-3,-1,-3,-10,-6,-3,-4,2021-08-06 13:56:17,103419
0,-3,-1,-3,-5,-4,-2,-2,2021-08-06 13:56:17,103419
-3,-4,-1,-2,-2,-2,-1,-1,2021-08-06 13:56:17,103419
-1,0,-2,1,1,0,0,-1,2021-08-06 13:56:17,103419
-3,-1,-4,-8,-3,-4,-3,-2,2021-08-06 13:56:17,119420
-1,0,-2,-1,-5,-2,-1,1,2021-08-06 13:56:17,119420
1,2,2,2,6,4,2,1,2021-08-06 13:56:17,119420
0,0,3,6,9,5,0,0,2021-08-06 13:56:17,119420
-3,-5,-5,-7,-15,-10,-6,-6,2021-08-06 13:56:17,151421
0,1,-1,-2,0,2,0,1,2021-08-06 13:56:17,167422
-2,-1,-2,-2,0,1,1,0,2021-08-06 13:56:17,167422
0,-1,0,1,1,1,-2,-1,2021-08-06 13:56:17,167422
0,-1,1,-2,-5,-2,0,-1,2021-08-06 13:56:17,167422
-1,0,-2,-2,-3,-3,-3,-2,2021-08-06 13:56:17,167422
1,0,4,6,7,5,3,1,2021-08-06 13:56:17,183420
-1,-3,-2,-3,-2,-3,-4,-1,2021-08-06 13:56:17,199421
-4,-3,-1,-5,-14,-7,-5,-1,2021-08-06 13:56:17,199421
-3,-2,-3,-2,4,1,0,-1,2021-08-06 13:56:17,199421
0,0,-1,-1,-3,0,-2,0,2021-08-06 13:56:17,199421
-1,-2,-2,-1,-3,-3,0,-1,2021-08-06 13:56:17,199421
0,2,2,5,3,2,1,0,2021-08-06 13:56:17,199421
-1,-2,-2,-1,1,-1,0,-1,2021-08-06 13:56:17,199421
-3,-3,-8,-8,-6,-5,-3,-2,2021-08-06 13:56:17,199421
0,-1,0,-5,-4,-3,-2,0,2021-08-06 13:56:17,199421
1,1,-1,-1,1,1,1,1,2021-08-06 13:56:17,229445
1,2,4,6,2,1,0,0,2021-08-06 13:56:17,229445
1,-1,-1,2,5,3,0,1,2021-08-06 13:56:17,229445
1,0,-3,-1,-3,-1,1,0,2021-08-06 13:56:17,229445
-2,-2,-1,0,3,2,-1,-2,2021-08-06 13:56:17,229445
-4,-2,-1,-3,-3,-1,-2,-4,2021-08-06 13:56:17,229445
1,0,4,4,3,3,-1,2,2021-08-06 13:56:17,246443
-3,-1,0,-1,-6,-4,-4,-3,2021-08-06 13:56:17,246443
1,-1,-1,2,7,3,1,0,2021-08-06 13:56:17,261443
1,0,0,-1,-3,-2,-1,0,2021-08-06 13:56:17,277444
-2,-2,-3,-3,-5,-1,-2,-2,2021-08-06 13:56:17,293444
-3,-1,-1,-1,0,-1,0,-1,2021-08-06 13:56:17,293444
0,0,-2,-3,-7,-3,-2,0,2021-08-06 13:56:17,293444
-1,-2,0,-1,0,-1,-1,0,2021-08-06 13:56:17,293444
-1,-1,1,3,4,2,1,0,2021-08-06 13:56:17,293444
-5,-3,-4,-5,-3,-2,-2,-3,2021-08-06 13:56:17,293444
0,-1,0,-2,-2,-2,0,-1,2021-08-06 13:56:17,293444
2,1,0,1,-1,0,-1,1,2021-08-06 13:56:17,294446
0,1,2,0,-1,-1,-2,-1,2021-08-06 13:56:17,341444
-1,-2,-1,1,4,2,-1,-1,2021-08-06 13:56:17,357444
1,-2,-5,0,0,0,0,-2,2021-08-06 13:56:17,372443
-3,-4,-4,-4,-5,-3,-1,-1,2021-08-06 13:56:17,372443
-3,-3,-1,-2,-2,-3,-2,-2,2021-08-06 13:56:17,372443
3,2,1,0,1,1,-1,1,2021-08-06 13:56:17,372443
-2,-2,2,2,1,-1,-2,0,2021-08-06 13:56:17,372443
-2,-2,-5,-1,-5,-3,-3,-3,2021-08-06 13:56:17,372443
0,0,0,-1,0,-1,1,1,2021-08-06 13:56:17,372443
-1,0,0,-2,3,1,1,0,2021-08-06 13:56:17,373445
2,0,1,0,4,3,1,2,2021-08-06 13:56:17,373445
-3,-2,-2,-1,-1,-1,-1,-1,2021-08-06 13:56:17,373445
0,-1,-1,-6,-7,-3,-3,0,2021-08-06 13:56:17,373445
-2,-3,-2,-3,-10,-8,-4,-3,2021-08-06 13:56:17,373445
-1,1,2,5,5,4,0,0,2021-08-06 13:56:17,387443
1,1,1,-3,6,4,3,1,2021-08-06 13:56:17,387443
-3,-1,-4,-4,-3,-1,-2,-3,2021-08-06 13:56:17,403443
-1,0,0,1,-3,-2,0,-2,2021-08-06 13:56:17,419443
-1,0,2,2,3,1,0,1,2021-08-06 13:56:17,419443
1,0,-3,6,3,1,2,1,2021-08-06 13:56:17,419705
-1,-3,-3,-2,1,1,1,0,2021-08-06 13:56:17,419705
-2,-5,-4,-8,-10,-7,-6,-3,2021-08-06 13:56:17,419705
-1,0,-1,-2,-5,-3,-1,-1,2021-08-06 13:56:17,419705
0,-2,0,-2,-4,-3,-2,-1,2021-08-06 13:56:17,419705
2,2,3,6,10,4,1,0,2021-08-06 13:56:17,419705
0,-1,1,4,2,2,0,-1,2021-08-06 13:56:17,419705
-1,-1,-1,-4,-1,1,0,0,2021-08-06 13:56:17,449958
-3,-4,-5,-7,-8,-5,-3,-5,2021-08-06 13:56:17,449958
0,1,-2,3,2,1,2,-1,2021-08-06 13:56:17,449958
1,1,0,0,0,1,0,0,2021-08-06 13:56:17,449958
-2,-1,0,1,3,0,-2,-1,2021-08-06 13:56:17,465959
0,0,1,0,0,-2,-1,-1,2021-08-06 13:56:17,481958
-2,-2,-4,-8,-9,-7,-4,-3,2021-08-06 13:56:17,497959
1,3,3,10,6,4,1,1,2021-08-06 13:56:17,497959
-1,-2,-1,1,1,1,1,0,2021-08-06 13:56:17,497959
-1,-1,-5,-8,-3,-1,-2,0,2021-08-06 13:56:17,497959
-3,-2,-3,-6,-12,-10,-3,-2,2021-08-06 13:56:17,497959
0,-1,-3,-7,-5,-4,-1,-1,2021-08-06 13:56:17,497959
-2,-2,-1,3,0,-1,-1,-1,2021-08-06 13:56:17,513958
-2,-2,1,6,4,2,0,-1,2021-08-06 13:56:17,529960
1,2,1,3,6,5,3,1,2021-08-06 13:56:17,561957
-2,0,0,0,0,0,1,1,2021-08-06 13:56:17,577958
0,-2,-4,-6,-7,-7,-3,-4,2021-08-06 13:56:17,593958
2,-1,0,1,1,1,0,0,2021-08-06 13:56:17,593958
0,0,1,2,-1,0,-1,-2,2021-08-06 13:56:17,593958
-2,0,-1,3,5,3,1,0,2021-08-06 13:56:17,593958
-1,-1,-2,-6,-4,-1,-2,-1,2021-08-06 13:56:17,593958
-3,-2,-2,-6,-10,-7,-4,-1,2021-08-06 13:56:17,593958
-2,-4,-1,-2,-3,-1,-2,-1,2021-08-06 13:56:17,593958
0,0,3,3,6,2,0,0,2021-08-06 13:56:17,593958
0,0,-1,4,3,1,0,-1,2021-08-06 13:56:17,593958
0,4,-1,-3,-5,-2,0,0,2021-08-06 13:56:17,594959
1,-1,-2,2,4,2,-1,-1,2021-08-06 13:56:17,594959
-2,-2,-1,0,4,1,1,-1,2021-08-06 13:56:17,594959
-1,-1,-3,-1,-1,0,0,1,2021-08-06 13:56:17,594959
-1,0,4,-1,-8,-3,0,-1,2021-08-06 13:56:17,594959
-1,0,0,1,1,0,-2,0,2021-08-06 13:56:17,594959
0,-1,-2,-2,0,0,-1,1,2021-08-06 13:56:17,594959
-3,-3,-4,-3,-3,-4,-2,-3,2021-08-06 13:56:17,603957
-3,-2,-1,4,2,1,-1,-2,2021-08-06 13:56:17,604959
-1,1,0,3,1,-1,0,0,2021-08-06 13:56:17,604959
0,-1,-4,-6,-7,-3,-3,-3,2021-08-06 13:56:17,604959
-1,0,-5,-11,-7,-5,-2,-2,2021-08-06 13:56:17,625960
0,0,-1,3,5,0,0,1,2021-08-06 13:56:17,625960
-2,-4,-3,-4,-5,-4,-2,-2,2021-08-06 13:56:17,625960
-1,-1,1,4,4,1,0,1,2021-08-06 13:56:17,625960
0,-1,1,2,0,1,-1,-1,2021-08-06 13:56:17,641957
-1,-1,1,-1,-2,-1,1,0,2021-08-06 13:56:17,641957
-3,-2,-2,1,0,0,-2,-2,2021-08-06 13:56:17,641957
0,2,2,7,8,5,1,1,2021-08-06 13:56:17,641957
-1,0,-1,-4,0,2,2,0,2021-08-06 13:56:17,673958
-5,-4,-7,-9,-11,-9,-6,-4,2021-08-06 13:56:17,673958
0,-2,-2,-4,-8,-6,-1,-2,2021-08-06 13:56:17,673958
0,0,0,-3,-1,-1,1,0,2021-08-06 13:56:17,673958
0,0,0,4,5,4,2,2,2021-08-06 13:56:17,673958
-1,-2,1,1,4,1,-1,-1,2021-08-06 13:56:17,673958
-1,0,1,1,0,0,1,0,2021-08-06 13:56:17,689959
-2,-2,-3,-3,0,-1,-3,-2,2021-08-06 13:56:17,705957
-4,-3,-3,-3,-4,-5,-4,-3,2021-08-06 13:56:17,705957
-1,-1,-1,0,-1,-2,-2,-1,2021-08-06 13:56:17,705957
3,2,0,-1,-1,1,1,1,2021-08-06 13:56:17,705957
-1,1,0,0,0,-1,2,-1,2021-08-06 13:56:17,705957
-2,-1,-2,-2,-4,-3,0,-1,2021-08-06 13:56:17,721959
-2,-4,-5,-1,-2,1,-1,0,2021-08-06 13:56:17,737973
-1,1,3,-1,0,-1,-1,-1,2021-08-06 13:56:17,737973
0,0,1,6,2,1,1,0,2021-08-06 13:56:17,737973
3,1,2,0,7,3,2,-1,2021-08-06 13:56:17,737973
1,0,-1,-3,-2,-3,-2,-1,2021-08-06 13:56:17,737973
-2,-3,-7,-13,-9,-8,-6,-4,2021-08-06 13:56:17,737973
-2,-3,-3,-4,-5,-2,-3,-1,2021-08-06 13:56:17,737973
-3,-1,0,2,-3,-3,-4,-2,2021-08-06 13:56:17,769974
2,1,2,5,4,4,2,0,2021-08-06 13:56:17,785973
-2,-2,1,3,3,3,1,-1,2021-08-06 13:56:17,785973
-2,-1,-1,0,0,-2,-2,-1,2021-08-06 13:56:17,785973
-2,0,-1,1,1,1,-2,1,2021-08-06 13:56:17,785973
0,1,-1,-5,-3,0,0,-1,2021-08-06 13:56:17,785973
-3,-2,-4,-2,-4,-2,-1,-1,2021-08-06 13:56:17,785973
-1,-4,-3,-3,-3,-2,0,-2,2021-08-06 13:56:17,785973
3,4,4,6,5,3,4,2,2021-08-06 13:56:17,801973
-1,0,2,-1,-1,-1,1,0,2021-08-06 13:56:17,801973
-3,-3,-6,-3,-3,-2,-3,-1,2021-08-06 13:56:17,816974
0,-2,-3,-4,-4,-1,-1,-2,2021-08-06 13:56:17,831974
-3,-1,1,-1,-4,-1,-2,-2,2021-08-06 13:56:17,846974
-2,-1,-1,-3,-4,-3,-2,0,2021-08-06 13:56:17,862973
3,1,2,4,8,4,1,1,2021-08-06 13:56:17,862973
0,-1,-2,2,4,2,-1,1,2021-08-06 13:56:17,862973
-3,-5,-5,-6,-9,-5,-2,-2,2021-08-06 13:56:17,862973
2,3,3,5,3,2,0,0,2021-08-06 13:56:17,862973
-2,-4,0,-4,-6,-3,-2,-1,2021-08-06 13:56:17,862973
-1,-1,-2,-6,-3,-2,-1,-1,2021-08-06 13:56:17,862973
-1,-1,-2,-2,-2,0,0,-1,2021-08-06 13:56:17,862973
-3,-1,-2,-1,-1,-3,-2,-1,2021-08-06 13:56:17,862973
-2,-1,-1,-1,-2,-2,-1,-2,2021-08-06 13:56:17,862973
0,-1,0,0,1,-1,0,0,2021-08-06 13:56:17,863977
-1,-1,-2,0,-2,0,-1,0,2021-08-06 13:56:17,894975
1,0,0,-2,-1,0,-1,1,2021-08-06 13:56:17,910973
0,2,1,0,4,1,2,2,2021-08-06 13:56:17,910973
-2,1,-1,1,2,1,0,-1,2021-08-06 13:56:17,910973
1,-4,-3,-3,0,-2,-3,-2,2021-08-06 13:56:17,910973
-2,-3,-3,-1,-6,-5,-5,-3,2021-08-06 13:56:17,910973
-2,-1,-2,-2,0,1,-1,-2,2021-08-06 13:56:17,910973
0,0,0,-1,-3,-1,-3,0,2021-08-06 13:56:17,911974
0,-1,0,1,-1,-3,-1,0,2021-08-06 13:56:17,911974
-1,-2,-1,1,3,1,0,-2,2021-08-06 13:56:17,911974
0,-1,-4,-5,-5,-1,-3,-1,2021-08-06 13:56:17,926974
0,0,0,-1,0,1,-1,-3,2021-08-06 13:56:17,926974
1,0,0,0,1,1,1,-2,2021-08-06 13:56:17,942976
0,0,-3,-2,-5,-2,-1,-2,2021-08-06 13:56:17,958482
-2,-2,-1,0,-3,-2,0,-1,2021-08-06 13:56:17,958482
-2,0,-1,-3,-3,-2,-1,-1,2021-08-06 13:56:17,958482
-3,-3,-2,-1,-4,-3,-4,0,2021-08-06 13:56:17,973483
1,0,-1,-1,5,2,2,2,2021-08-06 13:56:17,974483
-1,0,-1,0,-1,-1,-1,-1,2021-08-06 13:56:17,974483
-1,-1,-1,1,5,3,1,-1,2021-08-06 13:56:17,974483
-3,-2,-1,-2,-3,-1,-3,-1,2021-08-06 13:56:17,974483
0,0,0,-1,0,1,-1,0,2021-08-06 13:56:17,974483
0,1,2,3,8,1,1,0,2021-08-06 13:56:17,990481
-1,1,0,-4,-7,-3,-2,1,2021-08-06 13:56:17,990481
-1,-1,-2,-1,2,-1,0,-1,2021-08-06 13:56:18,021482
-1,-1,-3,-2,-1,-1,-2,-1,2021-08-06 13:56:18,021482
-2,-2,-1,0,-2,-2,-2,-2,2021-08-06 13:56:18,021482
1,0,0,-5,-7,-5,-1,0,2021-08-06 13:56:18,021482
0,0,1,3,4,2,1,1,2021-08-06 13:56:18,021482
-2,-1,0,-2,1,3,0,-1,2021-08-06 13:56:18,021482
0,-1,0,1,0,-1,-2,-1,2021-08-06 13:56:18,021482
-2,-3,-2,1,-2,-1,-1,-2,2021-08-06 13:56:18,021482
-1,-1,-3,-3,-3,-2,-3,-2,2021-08-06 13:56:18,036483
0,1,-1,0,2,-2,0,0,2021-08-06 13:56:18,036483
-1,-1,-1,-4,-4,-2,-1,-1,2021-08-06 13:56:18,052483
-1,0,0,0,-2,-1,1,-1,2021-08-06 13:56:18,052483
-1,-1,-1,0,1,2,0,0,2021-08-06 13:56:18,084482
-2,-3,-1,-1,2,-1,-1,0,2021-08-06 13:56:18,100482
1,0,1,0,0,0,0,0,2021-08-06 13:56:18,100482
-1,-1,0,-1,0,-1,-1,-1,2021-08-06 13:56:18,100482
1,0,1,2,2,-1,0,0,2021-08-06 13:56:18,100482
-4,-3,-5,-5,-5,-2,-2,-3,2021-08-06 13:56:18,100482
1,3,2,1,1,1,2,1,2021-08-06 13:56:18,100482
2,2,0,-1,2,0,0,1,2021-08-06 13:56:18,100482
-1,-1,-2,-1,-2,-3,0,1,2021-08-06 13:56:18,100482
0,1,0,1,2,0,0,1,2021-08-06 13:56:18,101483
-2,-3,-5,-5,-2,0,-1,-1,2021-08-06 13:56:18,115483
-2,-4,-2,-1,-2,-2,-1,-1,2021-08-06 13:56:18,115483
-2,-1,0,-2,-2,-2,0,-3,2021-08-06 13:56:18,115483
-3,-2,-1,1,-3,-2,-1,-1,2021-08-06 13:56:18,115483
-3,-2,1,3,5,1,-1,-3,2021-08-06 13:56:18,131482
-1,-1,-1,-2,-3,-2,-2,-2,2021-08-06 13:56:18,131482
1,1,2,1,0,2,-1,1,2021-08-06 13:56:18,147483
0,-2,0,-3,-4,-2,-1,0,2021-08-06 13:56:18,147483
0,0,-1,0,-3,-1,-1,-1,2021-08-06 13:56:18,147483
1,0,-2,-1,1,0,0,-1,2021-08-06 13:56:18,147483
-2,-3,-3,-2,-3,-2,-2,-1,2021-08-06 13:56:18,163483
0,-2,1,-1,0,1,2,-1,2021-08-06 13:56:18,179482
-1,-2,-4,0,-2,1,0,-1,2021-08-06 13:56:18,195482
-1,-2,-1,-1,0,0,-1,-1,2021-08-06 13:56:18,195482
-1,-1,-2,-2,-4,-2,-1,0,2021-08-06 13:56:18,195482
1,0,1,1,7,5,3,1,2021-08-06 13:56:18,195482
-1,-3,0,0,-1,-3,-2,-2,2021-08-06 13:56:18,195482
0,0,-2,1,-1,-2,0,0,2021-08-06 13:56:18,195482
0,0,1,-3,1,0,-1,-1,2021-08-06 13:56:18,211483
-2,-2,-3,-2,-2,-2,-1,-2,2021-08-06 13:56:18,211483
-1,3,3,1,0,0,1,1,2021-08-06 13:56:18,211483
-1,0,0,0,-2,2,0,-3,2021-08-06 13:56:18,211483
0,-1,0,-2,-2,-2,-1,-2,2021-08-06 13:56:18,211483
-1,0,0,-1,-2,-3,-2,-1,2021-08-06 13:56:18,211483
0,0,0,-2,-2,-1,-1,0,2021-08-06 13:56:18,227484
-1,-2,-1,-3,0,-2,-1,0,2021-08-06 13:56:18,227484
-2,0,0,1,1,1,1,-2,2021-08-06 13:56:18,243484
1,-2,-1,0,-3,-2,-1,-1,2021-08-06 13:56:18,259483
-1,0,0,1,1,0,0,-1,2021-08-06 13:56:18,275483
-1,-2,0,0,0,-1,-2,-1,2021-08-06 13:56:18,275483
-1,-1,0,-1,1,-1,-1,0,2021-08-06 13:56:18,275483
-1,-2,-1,-1,-2,0,-3,-2,2021-08-06 13:56:18,275483
0,-1,1,0,-3,-2,-2,-1,2021-08-06 13:56:18,275483
2,-1,-2,-1,0,0,0,0,2021-08-06 13:56:18,275483
-2,-1,-2,-4,-1,-1,0,-2,2021-08-06 13:56:18,275483
-1,-1,-1,-1,-3,-2,-1,-4,2021-08-06 13:56:18,275483
-1,-1,-3,-3,-4,-3,-1,-3,2021-08-06 13:56:18,291481
-1,0,-1,1,-1,-2,1,-1,2021-08-06 13:56:18,291481
1,1,-1,2,-1,-2,0,1,2021-08-06 13:56:18,307483
0,-1,0,0,-2,0,0,1,2021-08-06 13:56:18,323483
-1,-1,-2,1,-1,2,-1,-1,2021-08-06 13:56:18,323483
-1,-2,0,-2,-2,-2,-2,-2,2021-08-06 13:56:18,323483
-1,0,2,1,0,0,0,0,2021-08-06 13:56:18,323483
-1,-1,-1,-2,-3,-3,-2,-2,2021-08-06 13:56:18,323483
-3,-3,-5,-3,-6,-6,-2,0,2021-08-06 13:56:18,323483
-1,0,2,-1,3,1,-1,0,2021-08-06 13:56:18,323483
1,0,-4,-2,0,2,1,0,2021-08-06 13:56:18,339483
-1,0,-2,1,2,1,1,-2,2021-08-06 13:56:18,339483
-1,-2,0,-2,-2,-1,-1,-2,2021-08-06 13:56:18,355483
-3,1,2,-1,-5,-2,-2,0,2021-08-06 13:56:18,371482
-2,-2,-2,0,-2,-2,-1,-2,2021-08-06 13:56:18,386482
-1,-4,-3,-3,-1,0,0,-1,2021-08-06 13:56:18,386482
-2,-4,-2,-3,-1,0,-2,-1,2021-08-06 13:56:18,386482
1,6,5,2,1,1,0,2,2021-08-06 13:56:18,386482
0,1,3,-1,2,-1,-2,-1,2021-08-06 13:56:18,386482
1,4,1,0,1,1,2,1,2021-08-06 13:56:18,386482
-1,-4,-3,-2,-1,-4,0,-2,2021-08-06 13:56:18,417483
-2,-5,-6,-4,-4,-2,-4,-3,2021-08-06 13:56:18,432482
0,0,2,4,2,2,2,0,2021-08-06 13:56:18,448482
-2,-2,-1,1,1,-1,-1,-2,2021-08-06 13:56:18,464483
0,0,0,0,2,0,-1,-1,2021-08-06 13:56:18,464483
-1,-3,-4,-2,-3,-2,0,-1,2021-08-06 13:56:18,464483
-1,-3,-2,-3,-3,-3,-1,-2,2021-08-06 13:56:18,464483
0,-2,1,0,0,-1,-1,1,2021-08-06 13:56:18,464483
0,1,-1,-1,1,0,-1,-1,2021-08-06 13:56:18,464483
-3,-4,-1,-1,-3,-1,-1,-1,2021-08-06 13:56:18,464483
-2,-1,-1,-2,-3,-1,-2,-1,2021-08-06 13:56:18,464483
-1,-2,1,-2,1,-2,-1,0,2021-08-06 13:56:18,464483
2,0,0,3,9,4,1,2,2021-08-06 13:56:18,465484
1,-1,-2,-1,-2,-1,0,0,2021-08-06 13:56:18,465484
-1,-1,-2,-2,-1,-3,-1,0,2021-08-06 13:56:18,480483
0,2,2,1,0,1,0,-1,2021-08-06 13:56:18,480483
-1,0,-1,-1,-4,-3,1,0,2021-08-06 13:56:18,480483
0,-1,-1,2,3,3,1,-2,2021-08-06 13:56:18,480483
-2,-1,0,-1,-3,-3,-2,-1,2021-08-06 13:56:18,480483
-1,-1,-1,-1,-4,-3,-1,-2,2021-08-06 13:56:18,480483
-1,-2,-1,-1,-1,0,-1,-3,2021-08-06 13:56:18,480483
-2,-3,-4,-2,-2,-2,0,-2,2021-08-06 13:56:18,480483
-4,-2,-2,-1,-4,-2,-1,-2,2021-08-06 13:56:18,510484
-1,2,1,0,-1,-1,0,1,2021-08-06 13:56:18,510484
0,1,0,2,3,4,1,1,2021-08-06 13:56:18,510484
-1,-1,-1,0,-1,-3,-2,-1,2021-08-06 13:56:18,510484
1,-1,-1,-3,-1,-1,-1,-1,2021-08-06 13:56:18,542482
-1,-1,0,2,3,2,-1,0,2021-08-06 13:56:18,558482
0,-1,-2,-1,-3,-1,-2,-1,2021-08-06 13:56:18,574482
-1,1,-1,-1,-1,-2,-2,-1,2021-08-06 13:56:18,574482
0,-1,-1,-1,-2,-1,0,-1,2021-08-06 13:56:18,574482
1,0,0,0,5,3,1,-1,2021-08-06 13:56:18,574482
0,-2,-2,-1,-2,0,-1,0,2021-08-06 13:56:18,574482
-1,-1,0,1,1,0,1,-1,2021-08-06 13:56:18,574482
-1,-2,0,-2,-1,-3,-1,0,2021-08-06 13:56:18,575482
0,-1,-2,-3,-5,-4,-1,-1,2021-08-06 13:56:18,575482
-2,0,0,0,-2,-1,0,-2,2021-08-06 13:56:18,575482
-3,-3,-1,-2,0,-1,-1,-3,2021-08-06 13:56:18,575482
-2,1,-1,1,0,3,0,-1,2021-08-06 13:56:18,590483
-2,-1,-3,-2,-2,0,-2,0,2021-08-06 13:56:18,606482
0,-2,-1,-2,-2,-3,-2,0,2021-08-06 13:56:18,622483
0,-1,1,1,-1,-2,1,1,2021-08-06 13:56:18,622483
0,-1,-2,-1,1,-2,-1,-2,2021-08-06 13:56:18,622483
-2,-3,-4,-2,-3,-2,-1,-2,2021-08-06 13:56:18,622483
-2,-1,-1,-3,-5,-3,-2,-3,2021-08-06 13:56:18,622483
-1,0,0,2,2,1,-1,1,2021-08-06 13:56:18,622483
1,-1,-1,1,0,1,1,1,2021-08-06 13:56:18,622483
-1,0,-1,-1,-2,0,-1,-1,2021-08-06 13:56:18,622483
-3,-3,-2,-1,-3,-2,-1,0,2021-08-06 13:56:18,622483
-1,-1,-1,-5,-3,-2,0,-1,2021-08-06 13:56:18,622483
0,0,-1,1,1,-1,-1,-1,2021-08-06 13:56:18,653483
-2,-1,-1,-1,1,1,0,-1,2021-08-06 13:56:18,653483
0,1,-1,0,0,-1,0,-2,2021-08-06 13:56:18,653483
0,-1,-2,-1,-1,-1,-3,1,2021-08-06 13:56:18,653483
1,-2,-1,-2,-2,0,0,-1,2021-08-06 13:56:18,653483
-2,-2,-1,-2,-4,-3,-1,1,2021-08-06 13:56:18,653483
-1,-1,-1,-2,0,-1,-3,-1,2021-08-06 13:56:18,685483
1,0,0,0,0,1,1,0,2021-08-06 13:56:18,701482
-2,-1,-3,-1,-2,-1,0,-1,2021-08-06 13:56:18,716482
-1,-1,-1,1,-2,-1,-2,-1,2021-08-06 13:56:18,716482
-1,0,0,0,2,1,1,-1,2021-08-06 13:56:18,716482
-2,-2,-3,-2,-3,-4,-1,-1,2021-08-06 13:56:18,716482
-2,-2,1,-1,0,0,-1,-2,2021-08-06 13:56:18,716482
0,1,1,1,6,3,1,1,2021-08-06 13:56:18,716482
-2,-3,-4,-2,-2,-1,-2,-1,2021-08-06 13:56:18,716482
0,2,-3,0,1,1,-1,1,2021-08-06 13:56:18,716482
1,0,0,-2,-2,-1,-1,-2,2021-08-06 13:56:18,717484
0,-3,-2,2,-2,-2,-2,-2,2021-08-06 13:56:18,717484
-1,0,-1,-2,-3,-2,1,-1,2021-08-06 13:56:18,731482
-1,-2,-2,-2,-1,-1,-1,-1,2021-08-06 13:56:18,747483
-2,0,-1,0,-1,-1,-3,1,2021-08-06 13:56:18,747483
0,0,-2,-1,-3,-3,-1,-2,2021-08-06 13:56:18,747483
0,0,2,0,1,0,0,0,2021-08-06 13:56:18,747483
-1,-3,-2,-4,-7,-4,-1,-1,2021-08-06 13:56:18,747483
-1,-1,0,-2,1,2,0,-1,2021-08-06 13:56:18,763483
-1,-1,0,1,-1,1,-2,0,2021-08-06 13:56:18,763483
0,-1,-1,0,2,3,-2,-2,2021-08-06 13:56:18,763483
1,0,1,2,4,1,0,0,2021-08-06 13:56:18,763483
-2,-3,-3,-3,-3,-3,-3,-2,2021-08-06 13:56:18,779483
-2,-1,-2,-3,-2,-2,-2,0,2021-08-06 13:56:18,779483
-1,-1,-1,0,-2,-2,-1,-1,2021-08-06 13:56:18,795482
-1,0,-1,0,-2,0,-2,-2,2021-08-06 13:56:18,795482
-2,-2,-2,-1,-4,-3,-1,0,2021-08-06 13:56:18,811483
1,-1,2,3,5,3,2,0,2021-08-06 13:56:18,827482
0,-1,1,2,0,-1,-2,-1,2021-08-06 13:56:18,842482
-1,-2,-1,-1,-1,2,-1,-1,2021-08-06 13:56:18,842482
-1,-1,-2,1,0,0,-1,-1,2021-08-06 13:56:18,842482
1,-1,-2,-3,0,-3,-1,-1,2021-08-06 13:56:18,842482
-1,-1,-2,-2,0,1,-1,-1,2021-08-06 13:56:18,842482
-1,0,-1,-2,0,-2,0,0,2021-08-06 13:56:18,842482
0,1,0,-1,-2,-2,-1,-2,2021-08-06 13:56:18,842482
-1,1,0,1,0,1,0,-1,2021-08-06 13:56:18,843484
0,0,-2,-2,-3,-3,-2,-1,2021-08-06 13:56:18,843484
-3,-3,-1,1,1,0,0,-3,2021-08-06 13:56:18,843484
-1,-1,-2,-2,-4,-4,-1,-2,2021-08-06 13:56:18,873483
-1,-2,-4,-6,-4,0,1,0,2021-08-06 13:56:18,889482
2,1,3,4,11,4,1,3,2021-08-06 13:56:18,889482
-2,1,0,1,-1,0,0,-2,2021-08-06 13:56:18,889482
1,0,0,0,0,-1,1,0,2021-08-06 13:56:18,889482
-1,0,-3,-3,-4,-4,-2,-4,2021-08-06 13:56:18,889482
-2,-2,-3,-4,-5,-3,-1,0,2021-08-06 13:56:18,889482
-1,-1,0,-3,0,-3,-1,0,2021-08-06 13:56:18,889482
-1,0,1,0,1,1,1,-2,2021-08-06 13:56:18,905481
0,-3,-1,-2,-2,-2,-2,0,2021-08-06 13:56:18,921483
-2,-1,1,1,-3,-1,0,0,2021-08-06 13:56:18,937483
0,0,-2,-2,-2,0,-1,-1,2021-08-06 13:56:18,937483
1,-2,-1,2,4,2,0,-1,2021-08-06 13:56:18,937483
-1,-1,-1,-1,-1,-1,0,-2,2021-08-06 13:56:18,937483
1,1,1,-1,1,0,0,-2,2021-08-06 13:56:18,937483
-2,0,-2,1,-1,1,-1,-1,2021-08-06 13:56:18,937483
-1,-1,-1,-2,-2,1,0,-1,2021-08-06 13:56:18,953483
0,0,0,0,0,-1,0,0,2021-08-06 13:56:18,969482
-1,0,-1,-2,-3,-1,-1,0,2021-08-06 13:56:18,969482
0,0,0,-1,-1,-2,0,-1,2021-08-06 13:56:18,969482
-1,-1,-3,0,0,0,1,-2,2021-08-06 13:56:18,969482
-1,-1,-1,-1,-3,-1,-2,-1,2021-08-06 13:56:18,969482
-1,-1,-1,2,2,1,-1,-1,2021-08-06 13:56:18,969482
-1,-1,0,-1,1,-1,-1,-1,2021-08-06 13:56:18,969482
-2,-1,-1,0,0,-1,-1,-1,2021-08-06 13:56:18,985482
-2,-1,-1,-1,-3,-2,-3,-3,2021-08-06 13:56:19,001482
1,0,1,-1,-3,0,1,1,2021-08-06 13:56:19,001482
-1,-1,-2,0,-2,-3,-2,-1,2021-08-06 13:56:19,001482
-1,0,-1,0,1,0,-1,-1,2021-08-06 13:56:19,001482
-1,0,-1,-1,-3,-1,-1,-1,2021-08-06 13:56:19,001482
-2,-1,-2,-3,-2,-2,-2,-1,2021-08-06 13:56:19,001482
0,-2,0,-1,-1,-1,0,0,2021-08-06 13:56:19,001482
1,-1,0,-2,0,-2,-1,0,2021-08-06 13:56:19,031484
1,-1,-1,-1,1,-1,0,0,2021-08-06 13:56:19,031484
-2,-2,-2,0,0,1,0,-2,2021-08-06 13:56:19,031484
-2,-4,0,1,0,-1,1,-1,2021-08-06 13:56:19,031484
-2,-3,-1,0,-1,1,0,-3,2021-08-06 13:56:19,047482
-2,-2,1,1,1,-1,-2,-2,2021-08-06 13:56:19,047482
0,-1,0,0,-4,-3,-1,-1,2021-08-06 13:56:19,047482
0,0,1,-1,-1,-1,-2,0,2021-08-06 13:56:19,047482
1,1,-1,0,-1,-1,-1,0,2021-08-06 13:56:19,063483
0,0,-1,-1,-1,-2,0,1,2021-08-06 13:56:19,079482
-2,0,-1,-2,-2,-2,-1,-2,2021-08-06 13:56:19,082482
-1,0,-2,-2,-1,-1,-1,0,2021-08-06 13:56:19,082482
-1,0,-1,0,0,0,-2,0,2021-08-06 13:56:19,083483
0,-1,-1,-2,0,-1,1,-1,2021-08-06 13:56:19,083483
-1,-2,-2,-1,0,-1,-2,-1,2021-08-06 13:56:19,111484
0,-1,-1,0,1,1,-1,0,2021-08-06 13:56:19,127482
-1,1,0,-1,-2,1,-1,1,2021-08-06 13:56:19,143482
-1,-3,-1,4,-1,0,0,-2,2021-08-06 13:56:19,143482
0,-2,-3,-3,-2,-1,0,-2,2021-08-06 13:56:19,143482
-1,-1,14,28,5,2,0,1,2021-08-06 13:56:19,143482
5,4,6,38,14,5,3,3,2021-08-06 13:56:19,143482
0,2,-12,-55,-7,1,-2,0,2021-08-06 13:56:19,143482
-9,-10,-22,-51,-24,-14,-9,-7,2021-08-06 13:56:19,143482
-5,-5,-7,-25,-14,-9,-7,-5,2021-08-06 13:56:19,143482
-1,-3,4,9,2,-1,0,-1,2021-08-06 13:56:19,143482
3,3,12,38,13,5,4,3,2021-08-06 13:56:19,144484
1,2,3,6,0,1,0,1,2021-08-06 13:56:19,144484
0,0,-3,-2,-4,-1,0,-2,2021-08-06 13:56:19,144484
-1,-2,-1,1,1,0,-1,-2,2021-08-06 13:56:19,175482
1,0,-1,7,2,2,-1,-1,2021-08-06 13:56:19,191482
1,2,3,5,4,3,0,2,2021-08-06 13:56:19,191482
1,-1,-3,-1,1,-1,1,-1,2021-08-06 13:56:19,191482
-2,-1,-1,-12,-5,-2,-1,-1,2021-08-06 13:56:19,191482
-2,-3,-3,-5,-4,-2,-1,-1,2021-08-06 13:56:19,191482
-1,-1,2,5,1,-1,-1,-1,2021-08-06 13:56:19,191482
2,2,3,3,4,0,1,0,2021-08-06 13:56:19,191482
-1,-1,-3,-13,-5,-2,-1,0,2021-08-06 13:56:19,207482
-3,-3,-1,-1,-5,-3,-3,-1,2021-08-06 13:56:19,207482
-1,1,0,10,3,2,0,-2,2021-08-06 13:56:19,207482
-1,0,-3,-3,1,1,1,-2,2021-08-06 13:56:19,207482
-1,-2,-2,-13,-5,-2,-2,-3,2021-08-06 13:56:19,223483
-1,-1,-2,2,-2,-3,-3,-2,2021-08-06 13:56:19,223483
1,0,3,7,2,2,2,0,2021-08-06 13:56:19,223483
0,-1,-4,-3,-2,1,0,1,2021-08-06 13:56:19,223483
-1,-3,-1,-4,-4,-3,-1,-2,2021-08-06 13:56:19,255482
-2,-2,-1,3,-3,-3,-1,-2,2021-08-06 13:56:19,255482
0,1,2,3,3,1,0,0,2021-08-06 13:56:19,255482
-1,0,-1,-4,-1,1,-1,0,2021-08-06 13:56:19,255482
0,-1,-2,-2,-1,-1,0,-1,2021-08-06 13:56:19,271482
2,0,-3,0,-1,0,-2,-1,2021-08-06 13:56:19,303483
0,-1,-2,0,2,-1,-1,0,2021-08-06 13:56:19,319483
-1,-2,-1,0,-1,-1,-1,-1,2021-08-06 13:56:19,319483
-1,-2,0,0,-1,0,-3,-2,2021-08-06 13:56:19,319483
-2,-2,-2,-1,-1,-3,-1,0,2021-08-06 13:56:19,319483
-1,-2,-1,-2,-2,-1,0,-1,2021-08-06 13:56:19,319483
-1,0,-1,-1,0,1,-2,0,2021-08-06 13:56:19,319483
-1,-2,-1,-5,-1,-2,-1,2,2021-08-06 13:56:19,319483
-2,0,-2,0,-2,-1,0,-2,2021-08-06 13:56:19,319483
0,0,-1,3,1,1,1,0,2021-08-06 13:56:19,320484
-1,-1,0,-3,-1,-1,-1,1,2021-08-06 13:56:19,320484
-3,-3,-3,-4,-3,-2,0,-1,2021-08-06 13:56:19,335482
0,2,1,1,0,0,0,-1,2021-08-06 13:56:19,351482
1,1,1,1,1,-2,0,1,2021-08-06 13:56:19,351482
-1,0,-2,-2,-2,-1,-2,-1,2021-08-06 13:56:19,351482
0,-1,-3,-1,-2,-1,-1,0,2021-08-06 13:56:19,351482
-2,-1,1,-2,-3,-2,-3,0,2021-08-06 13:56:19,351482
-1,1,1,3,5,3,1,0,2021-08-06 13:56:19,351482
1,-2,-1,1,-1,-2,0,1,2021-08-06 13:56:19,351482
-2,0,-2,-2,-1,-1,-1,0,2021-08-06 13:56:19,367483
-3,-1,-2,0,-2,0,0,0,2021-08-06 13:56:19,383483
-1,-2,0,-2,-2,-1,-1,0,2021-08-06 13:56:19,398482
-1,-2,-2,-2,-1,0,0,-1,2021-08-06 13:56:19,398482
-1,0,-1,-2,-1,-2,-1,-1,2021-08-06 13:56:19,398482
0,-1,0,-1,0,-2,0,0,2021-08-06 13:56:19,398482
-1,0,-1,0,0,0,-2,-1,2021-08-06 13:56:19,398482
-1,-1,-2,-1,0,1,1,-1,2021-08-06 13:56:19,398482
-1,0,0,-2,0,-2,-2,-1,2021-08-06 13:56:19,398482
0,-2,-2,-2,-1,0,-1,-2,2021-08-06 13:56:19,398482
-2,-1,-2,0,-2,-2,-2,-2,2021-08-06 13:56:19,398482
0,0,0,-1,-1,-1,-1,-1,2021-08-06 13:56:19,398482
0,-2,0,2,-1,1,-1,-3,2021-08-06 13:56:19,429484
2,1,0,0,1,-1,-2,-2,2021-08-06 13:56:19,429484
0,0,0,0,-2,0,1,-2,2021-08-06 13:56:19,429484
-1,-1,0,-4,-1,-3,-1,-2,2021-08-06 13:56:19,429484
-1,1,-1,3,0,1,-1,-1,2021-08-06 13:56:19,461483
-1,-3,-2,-3,-1,1,0,0,2021-08-06 13:56:19,461483
-1,-1,0,-1,-3,-3,-1,-1,2021-08-06 13:56:19,461483
0,-1,-3,0,0,-1,1,-1,2021-08-06 13:56:19,461483
1,1,-1,-1,1,1,0,0,2021-08-06 13:56:19,461483
-3,-1,3,2,0,-1,-1,-2,2021-08-06 13:56:19,461483
0,-1,-1,-1,-1,0,-1,-1,2021-08-06 13:56:19,461483
-1,-1,1,1,0,-2,-1,-2,2021-08-06 13:56:19,461483
-1,-1,-1,-2,-2,-2,-1,-1,2021-08-06 13:56:19,492485
-1,-2,0,-1,-1,0,0,-1,2021-08-06 13:56:19,492485
1,1,2,-1,1,-1,0,0,2021-08-06 13:56:19,492485
-1,-1,-1,1,-1,0,-2,-3,2021-08-06 13:56:19,492485
0,0,0,-2,-1,-3,-1,0,2021-08-06 13:56:19,508482
-2,-2,-1,1,1,-1,-1,-1,2021-08-06 13:56:19,508482
-1,-2,-2,-1,-3,-1,-2,0,2021-08-06 13:56:19,508482
-1,0,-1,0,1,0,-1,0,2021-08-06 13:56:19,508482
-3,-1,-1,-2,-1,-1,-2,1,2021-08-06 13:56:19,524483
-1,-1,-2,-1,-4,-3,0,1,2021-08-06 13:56:19,524483
-1,0,0,2,6,2,0,0,2021-08-06 13:56:19,524483
-1,-1,-1,-1,-3,-1,-2,-1,2021-08-06 13:56:19,524483
-1,-1,0,-1,-3,-2,0,0,2021-08-06 13:56:19,556482
1,0,1,3,2,1,0,2,2021-08-06 13:56:19,572482
0,-2,-2,-1,0,0,-1,0,2021-08-06 13:56:19,588483
0,-2,1,0,-2,-2,-1,-2,2021-08-06 13:56:19,604482
0,-1,-1,0,-1,-1,0,-1,2021-08-06 13:56:19,620482
0,-1,-3,-1,-1,-1,-1,-2,2021-08-06 13:56:19,620482
-1,-1,-1,-2,-4,-2,0,0,2021-08-06 13:56:19,620482
-3,0,-1,1,1,-1,-3,0,2021-08-06 13:56:19,620482
-1,-2,0,-1,-4,0,-3,-1,2021-08-06 13:56:19,620482
0,0,0,-2,-1,0,-1,-1,2021-08-06 13:56:19,620482
-3,-2,-2,-1,-2,0,-2,-1,2021-08-06 13:56:19,620482
-2,-1,-3,-4,-4,-4,-1,0,2021-08-06 13:56:19,620482
1,0,0,-2,3,2,1,2,2021-08-06 13:56:19,620482
1,0,-3,0,3,2,2,2,2021-08-06 13:56:19,620482
0,-1,-1,0,-1,-2,-1,-1,2021-08-06 13:56:19,620482
0,-1,-1,-3,-2,0,-1,-1,2021-08-06 13:56:19,621484
0,-3,-3,-1,-2,1,1,-1,2021-08-06 13:56:19,636483
-1,-1,0,-2,-2,-3,-4,-1,2021-08-06 13:56:19,636483
-1,-2,-2,-2,-5,-3,0,-1,2021-08-06 13:56:19,636483
-1,-1,2,0,2,0,1,-1,2021-08-06 13:56:19,636483
0,1,-1,-1,-1,-2,-2,-2,2021-08-06 13:56:19,636483
0,0,0,0,0,0,-1,-1,2021-08-06 13:56:19,636483
-1,-1,-2,0,-1,-1,0,-2,2021-08-06 13:56:19,636483
-2,-1,-2,-1,-1,0,-1,-2,2021-08-06 13:56:19,636483
0,1,1,0,-1,0,-1,1,2021-08-06 13:56:19,668481
0,1,1,-2,-1,-1,-1,-1,2021-08-06 13:56:19,668481
-1,0,-2,-1,0,-1,-1,1,2021-08-06 13:56:19,668481
0,-1,0,-1,-1,1,1,0,2021-08-06 13:56:19,668481
-2,-3,-2,0,-1,0,-1,-2,2021-08-06 13:56:19,683482
0,-1,-1,0,-1,-2,-1,-1,2021-08-06 13:56:19,683482
0,0,2,-1,0,1,-2,0,2021-08-06 13:56:19,683482
0,-1,-1,-1,0,-1,1,-1,2021-08-06 13:56:19,683482
-2,1,-1,-1,-1,-2,0,-1,2021-08-06 13:56:19,715482
-3,-1,-1,-1,-3,-1,-1,-1,2021-08-06 13:56:19,731482
0,-2,-2,-1,-1,0,-1,-1,2021-08-06 13:56:19,731482
-2,-1,0,1,-1,-2,-2,-1,2021-08-06 13:56:19,731482
-1,-2,0,-2,1,-1,-1,-2,2021-08-06 13:56:19,763483
-2,-1,-3,-2,0,-1,1,-3,2021-08-06 13:56:19,778486
0,0,-1,-1,-2,-2,-1,-2,2021-08-06 13:56:19,778486
-2,0,-1,0,-2,-1,-1,-2,2021-08-06 13:56:19,778486
0,-1,0,0,-1,0,-1,2,2021-08-06 13:56:19,778486
-2,-3,-1,1,1,0,0,0,2021-08-06 13:56:19,778486
-2,0,-1,-1,-1,-1,0,0,2021-08-06 13:56:19,778486
0,0,-3,0,-4,-1,-2,-1,2021-08-06 13:56:19,778486
-2,-1,-2,0,7,2,0,-1,2021-08-06 13:56:19,778486
0,0,1,-2,-1,-1,-2,0,2021-08-06 13:56:19,779483
0,0,2,0,-1,-1,0,0,2021-08-06 13:56:19,779483
0,1,-1,0,0,-1,-2,0,2021-08-06 13:56:19,779483
-1,-1,-1,-2,-4,-2,1,-1,2021-08-06 13:56:19,779483
-1,-1,-1,0,-1,-2,0,-1,2021-08-06 13:56:19,779483
-2,-2,-2,-2,-1,0,-2,0,2021-08-06 13:56:19,779483
1,-2,1,0,-1,-1,0,1,2021-08-06 13:56:19,779483
1,-1,0,1,-2,0,0,-1,2021-08-06 13:56:19,810482
0,-2,0,-1,0,0,-3,2,2021-08-06 13:56:19,826484
-1,-2,-1,-2,-2,-2,0,-2,2021-08-06 13:56:19,828482
0,0,-2,-1,-1,1,-1,0,2021-08-06 13:56:19,829483
-1,1,-1,0,2,-2,-1,0,2021-08-06 13:56:19,829483
-1,1,-2,1,0,1,1,0,2021-08-06 13:56:19,829483
-1,-2,-3,0,1,-2,0,-2,2021-08-06 13:56:19,829483
-1,-2,-1,0,-1,-1,0,-2,2021-08-06 13:56:19,829483
-1,-1,-1,-1,0,-1,0,0,2021-08-06 13:56:19,858482
-1,-2,0,-1,-1,0,-2,-2,2021-08-06 13:56:19,874482
-1,-2,-2,-1,0,0,-1,0,2021-08-06 13:56:19,890482
-1,-2,-2,-1,0,-1,-1,-1,2021-08-06 13:56:19,906482
-2,0,-1,-2,-3,-2,0,-2,2021-08-06 13:56:19,906482
0,1,-1,-1,-1,-2,1,-1,2021-08-06 13:56:19,906482
0,-2,-2,-2,-1,-2,0,-2,2021-08-06 13:56:19,906482
-2,-3,0,-1,-1,-1,-1,0,2021-08-06 13:56:19,906482
1,1,1,1,-1,0,0,-1,2021-08-06 13:56:19,906482
0,-1,-3,-2,-2,0,-1,0,2021-08-06 13:56:19,906482
-1,0,0,-1,0,-2,-1,-1,2021-08-06 13:56:19,906482
0,0,-1,0,0,0,0,0,2021-08-06 13:56:19,907484
0,-2,1,-1,0,-1,-1,0,2021-08-06 13:56:19,907484
0,-1,-1,-1,0,-1,0,-2,2021-08-06 13:56:19,907484
0,-3,-3,0,-1,0,0,-2,2021-08-06 13:56:19,907484
1,0,-1,-2,1,-1,0,-1,2021-08-06 13:56:19,907484
-1,0,-1,-1,0,-1,-1,-1,2021-08-06 13:56:19,937482
0,-2,-2,-1,-2,0,1,-1,2021-08-06 13:56:19,953483
-4,0,0,-1,-1,-3,0,-1,2021-08-06 13:56:19,969482
1,4,3,3,1,0,1,0,2021-08-06 13:56:19,985482
-2,0,1,0,0,-1,-2,-1,2021-08-06 13:56:20,001482
-1,-1,0,-1,0,-1,-2,-2,2021-08-06 13:56:20,001482
-1,-2,-2,-3,-1,-1,-2,-1,2021-08-06 13:56:20,001482
-1,-2,-1,-1,-1,-1,-3,-1,2021-08-06 13:56:20,001482
0,-2,-2,-2,0,-2,0,0,2021-08-06 13:56:20,001482
-1,-2,-1,-1,0,0,0,0,2021-08-06 13:56:20,001482
-1,-2,-1,-1,-1,-1,0,0,2021-08-06 13:56:20,001482
-2,-3,-3,-1,0,1,0,-2,2021-08-06 13:56:20,001482
-2,-1,-2,1,0,1,-2,-2,2021-08-06 13:56:20,002484
-4,-2,-2,1,0,-2,-3,-3,2021-08-06 13:56:20,002484
-2,1,1,0,0,-1,-2,-2,2021-08-06 13:56:20,002484
0,1,-1,-2,-1,-1,-1,-2,2021-08-06 13:56:20,002484
0,-2,-1,-3,-1,-1,-1,1,2021-08-06 13:56:20,002484
-1,-1,-1,-1,-1,-2,0,-1,2021-08-06 13:56:20,002484
1,0,0,-1,0,1,0,1,2021-08-06 13:56:20,002484
-1,1,-1,-3,-1,-1,0,0,2021-08-06 13:56:20,002484
-1,0,-1,1,0,2,1,-1,2021-08-06 13:56:20,032482
-1,0,-1,-1,-1,-2,0,0,2021-08-06 13:56:20,048482
0,-2,0,-1,-2,0,-2,-2,2021-08-06 13:56:20,048482
-1,-2,-2,-1,-2,-1,-2,-1,2021-08-06 13:56:20,048482
0,0,0,-2,-2,-3,-1,-2,2021-08-06 13:56:20,064507
-2,-2,-2,-7,-14,-9,-5,-2,2021-08-06 13:56:20,064507
-2,-1,-2,-6,-14,-10,-6,-3,2021-08-06 13:56:20,064507
0,-1,1,0,8,6,2,-1,2021-08-06 13:56:20,064507
0,1,1,8,18,9,4,2,2021-08-06 13:56:20,064507
-2,-1,-4,-10,-10,-1,1,-3,2021-08-06 13:56:20,064507
7,10,13,39,72,37,15,6,2021-08-06 13:56:20,064507
-2,-1,-2,-2,-14,-12,-5,-3,2021-08-06 13:56:20,065508
-3,-2,-2,-4,-11,-6,-2,-2,2021-08-06 13:56:20,096507
-2,-4,-2,-3,-10,-11,-6,-2,2021-08-06 13:56:20,111507
-2,-3,-7,-15,-23,-14,-8,-2,2021-08-06 13:56:20,127507
-1,0,0,-2,3,2,0,0,2021-08-06 13:56:20,143507
0,-2,-1,-2,-4,-3,-2,-1,2021-08-06 13:56:20,143507
0,-1,1,0,3,1,-1,0,2021-08-06 13:56:20,143507
-3,-3,-2,-7,-10,-4,-2,-3,2021-08-06 13:56:20,143507
0,0,0,1,5,3,1,0,2021-08-06 13:56:20,143507
-1,-3,-2,-4,-9,-5,-3,-3,2021-08-06 13:56:20,143507
1,1,1,5,5,3,1,-1,2021-08-06 13:56:20,143507
-1,-3,-2,-5,-1,2,0,-1,2021-08-06 13:56:20,143507
0,-2,-1,-2,-5,-4,0,-3,2021-08-06 13:56:20,143507
0,-1,-1,0,-2,1,-2,-2,2021-08-06 13:56:20,143507
1,0,0,5,9,5,1,2,2021-08-06 13:56:20,144509
-2,-1,-1,0,-6,-5,-2,-1,2021-08-06 13:56:20,144509
-1,-1,-1,-3,-2,-1,0,0,2021-08-06 13:56:20,144509
0,-1,-1,0,0,-1,0,-1,2021-08-06 13:56:20,175508
1,0,-1,-1,2,2,0,0,2021-08-06 13:56:20,175508
-3,-1,-4,-7,-10,-7,-2,-1,2021-08-06 13:56:20,175508
-1,-2,-2,-1,-2,-2,0,1,2021-08-06 13:56:20,175508
0,-1,0,1,5,2,1,0,2021-08-06 13:56:20,175508
0,0,-1,-1,-2,0,-1,-1,2021-08-06 13:56:20,175508
-1,0,1,1,-2,-1,-1,-1,2021-08-06 13:56:20,191506
-1,-1,0,-2,1,0,0,-1,2021-08-06 13:56:20,200507
-2,0,1,-3,-6,-2,-2,-2,2021-08-06 13:56:20,200507
-2,-2,-1,0,0,-1,0,-1,2021-08-06 13:56:20,200507
0,1,-1,3,3,3,0,1,2021-08-06 13:56:20,201510
-2,-2,0,-1,-4,-3,-1,-2,2021-08-06 13:56:20,201510
1,2,0,3,9,6,2,1,2021-08-06 13:56:20,223508
0,-1,-1,-1,-2,-2,-1,-2,2021-08-06 13:56:20,223508
-1,-1,-1,-3,-5,-2,-1,-1,2021-08-06 13:56:20,223508
0,-1,-3,-1,-3,-2,-1,-2,2021-08-06 13:56:20,223508
-1,0,-1,-2,-4,-2,-1,0,2021-08-06 13:56:20,255506
0,0,0,0,2,1,0,0,2021-08-06 13:56:20,271508
0,-2,-1,-2,-2,-1,-1,-1,2021-08-06 13:56:20,287506
-2,-4,-2,-2,0,0,-1,0,2021-08-06 13:56:20,303775
-1,0,0,-1,-3,-2,-1,0,2021-08-06 13:56:20,319047
-1,1,0,2,4,1,0,0,2021-08-06 13:56:20,319047
-3,-2,-2,-4,-5,-4,-2,-1,2021-08-06 13:56:20,319047
-1,-1,-1,-1,-2,-2,-1,0,2021-08-06 13:56:20,319047
-1,-2,-3,-2,-3,1,-2,0,2021-08-06 13:56:20,319047
-1,-2,0,2,4,2,-1,-1,2021-08-06 13:56:20,319047
0,-2,-1,-3,-4,-2,0,-2,2021-08-06 13:56:20,320047
-1,1,0,3,6,3,1,0,2021-08-06 13:56:20,320047
-2,-2,-4,-4,-7,-6,-3,-2,2021-08-06 13:56:20,320047
0,0,-1,-5,-7,-2,-2,0,2021-08-06 13:56:20,320047
1,0,0,3,10,3,2,0,2021-08-06 13:56:20,320047
0,0,2,3,4,2,1,-2,2021-08-06 13:56:20,320047
0,0,1,0,0,-1,0,-1,2021-08-06 13:56:20,320047
-1,-1,1,5,3,1,0,2,2021-08-06 13:56:20,320047
-1,-3,-5,-9,-10,-7,-3,-1,2021-08-06 13:56:20,321046
0,-2,-2,-2,0,0,-2,-2,2021-08-06 13:56:20,321046
-2,1,-2,-3,-2,-2,-3,0,2021-08-06 13:56:20,350045
-2,-2,-1,-1,-2,0,0,0,2021-08-06 13:56:20,365046
0,-1,-1,-2,-2,-2,0,1,2021-08-06 13:56:20,381046
0,0,0,0,-1,0,-1,1,2021-08-06 13:56:20,381046
1,-1,0,-3,-2,-1,1,-1,2021-08-06 13:56:20,381046
-2,-1,-3,-4,-2,-1,-2,-2,2021-08-06 13:56:20,381046
2,1,2,2,2,3,-1,1,2021-08-06 13:56:20,381046
-1,-1,-3,-3,-2,-3,0,-1,2021-08-06 13:56:20,381046
-2,0,-1,1,0,-2,0,-2,2021-08-06 13:56:20,381046
-1,0,0,1,0,-2,0,0,2021-08-06 13:56:20,381046
-2,-3,0,-1,-1,-2,-2,-2,2021-08-06 13:56:20,381046
0,1,0,-2,-4,-1,-2,-1,2021-08-06 13:56:20,381046
-1,-3,-1,2,1,1,0,-2,2021-08-06 13:56:20,411046
-1,-2,-3,-3,-2,-4,-1,-1,2021-08-06 13:56:20,411046
0,0,1,1,2,3,0,0,2021-08-06 13:56:20,411046
0,-1,0,-1,1,0,-1,0,2021-08-06 13:56:20,411046
0,1,-1,-1,0,-1,-1,-1,2021-08-06 13:56:20,443048
-1,-1,1,1,3,1,1,0,2021-08-06 13:56:20,459046
-1,-3,-1,1,-1,-3,0,-1,2021-08-06 13:56:20,475045
-1,-1,-1,-1,-4,-2,0,-2,2021-08-06 13:56:20,491046
-2,-1,-2,-1,0,-2,-1,-2,2021-08-06 13:56:20,507045
0,0,-1,-5,-4,-2,-2,-1,2021-08-06 13:56:20,507045
1,1,-1,-1,-1,0,-1,-1,2021-08-06 13:56:20,507045
-3,-2,-2,0,1,-1,-2,0,2021-08-06 13:56:20,507045
-1,-3,-1,-3,-4,-3,-3,-1,2021-08-06 13:56:20,507045
0,1,1,-2,-2,0,-2,-1,2021-08-06 13:56:20,507045
-2,-1,0,3,4,1,0,1,2021-08-06 13:56:20,507045
1,-1,-1,0,-2,-2,-1,-2,2021-08-06 13:56:20,508047
0,-1,-1,0,-4,-1,-2,0,2021-08-06 13:56:20,508047
-1,-2,-2,-3,-3,-2,-2,-1,2021-08-06 13:56:20,508047
-2,-3,-2,1,-3,-2,-3,-3,2021-08-06 13:56:20,508047
0,2,0,-1,1,2,3,0,2021-08-06 13:56:20,508047
0,0,-3,-5,-6,-2,0,1,2021-08-06 13:56:20,508047
1,1,1,4,6,2,-2,1,2021-08-06 13:56:20,508047
-10,-7,-8,-7,-6,-14,-15,-14,2021-08-06 13:56:20,508047
-2,-1,-4,1,0,-2,-4,-2,2021-08-06 13:56:20,508047
-2,-2,-1,-1,-1,-2,-1,-2,2021-08-06 13:56:20,539045
-1,-1,1,-1,-3,2,6,0,2021-08-06 13:56:20,555045
0,-2,-1,-3,-5,1,2,2,2021-08-06 13:56:20,569045
-1,0,-1,-1,-2,-1,0,-1,2021-08-06 13:56:20,569045
0,0,0,-1,3,2,-1,-1,2021-08-06 13:56:20,569045
-1,-3,-2,-2,-1,-1,0,-2,2021-08-06 13:56:20,569045
1,2,0,-1,0,1,1,0,2021-08-06 13:56:20,570047
0,-1,2,-2,0,1,0,-1,2021-08-06 13:56:20,570047
0,-3,0,2,1,0,1,1,2021-08-06 13:56:20,570047
-2,-1,-1,-1,-2,-2,-4,-1,2021-08-06 13:56:20,570047
0,1,1,0,-3,-1,1,0,2021-08-06 13:56:20,570047
0,-1,-1,0,-1,0,-1,1,2021-08-06 13:56:20,570047
0,-1,-3,-2,-2,-1,-1,-1,2021-08-06 13:56:20,602045
-2,-1,-1,0,0,2,-1,-1,2021-08-06 13:56:20,618045
-1,0,-1,-2,1,1,2,-1,2021-08-06 13:56:20,618045
-2,-2,0,-2,-3,-3,-2,-1,2021-08-06 13:56:20,618045
-2,0,2,2,2,-1,0,0,2021-08-06 13:56:20,618045
-1,0,0,0,-2,-2,-1,-2,2021-08-06 13:56:20,618045
0,2,4,10,10,6,3,2,2021-08-06 13:56:20,618045
4,9,13,27,31,18,3,3,2021-08-06 13:56:20,618045
1,-5,-11,-15,-10,-3,5,2,2021-08-06 13:56:20,618045
-9,-14,-24,-49,-59,-42,-17,-10,2021-08-06 13:56:20,618045
-1,-5,-7,-13,-13,-7,-2,-2,2021-08-06 13:56:20,666046
0,-2,0,-4,-5,-2,-2,-1,2021-08-06 13:56:20,682046
3,6,12,23,26,18,5,1,2021-08-06 13:56:20,682046
3,2,5,15,18,11,5,3,2021-08-06 13:56:20,682046
-1,0,-1,0,-4,1,0,-1,2021-08-06 13:56:20,682046
-1,-1,-1,1,1,3,-1,-2,2021-08-06 13:56:20,682046
-2,-1,-2,-2,-3,-4,-3,-3,2021-08-06 13:56:20,682046
0,-1,2,4,3,1,1,-1,2021-08-06 13:56:20,683047
-1,-1,2,-1,-2,-3,-2,1,2021-08-06 13:56:20,683047
0,-2,-3,-3,-1,-1,2,-1,2021-08-06 13:56:20,683047
-4,-3,-4,-8,-10,-8,-5,-1,2021-08-06 13:56:20,683047
-2,-1,1,3,4,2,1,-1,2021-08-06 13:56:20,683047
1,1,4,6,8,4,1,0,2021-08-06 13:56:20,698046
-2,-3,-5,-9,-11,-6,-2,-1,2021-08-06 13:56:20,698046
0,-3,-1,-3,-6,-2,-6,-3,2021-08-06 13:56:20,714046
1,4,6,9,11,8,3,1,2021-08-06 13:56:20,730046
1,-2,-2,-3,-3,1,1,0,2021-08-06 13:56:20,745045
-1,-4,-4,-7,-8,-7,-1,-1,2021-08-06 13:56:20,745045
-2,0,0,-1,-3,-4,-3,-2,2021-08-06 13:56:20,745045
-1,1,2,4,3,3,-1,-1,2021-08-06 13:56:20,745045
-1,-2,-1,0,6,4,1,1,2021-08-06 13:56:20,745045
-1,-2,-4,-4,-7,-4,-1,-1,2021-08-06 13:56:20,745045
2,3,4,2,3,2,1,0,2021-08-06 13:56:20,746047
2,-1,-1,1,3,1,1,-1,2021-08-06 13:56:20,746047
-3,-1,-3,-4,-8,-5,-1,-2,2021-08-06 13:56:20,746047
-2,-2,0,1,0,0,0,-1,2021-08-06 13:56:20,746047
0,-2,-2,2,2,1,-1,-1,2021-08-06 13:56:20,776047
-1,-2,-1,-1,-2,1,-1,1,2021-08-06 13:56:20,792045
0,-1,-1,-3,-3,-1,-4,0,2021-08-06 13:56:20,792045
-3,1,-1,-3,-1,-1,-1,0,2021-08-06 13:56:20,792045
-3,-1,-2,-4,-4,-3,0,-2,2021-08-06 13:56:20,792045
-2,-1,0,-1,1,0,1,-2,2021-08-06 13:56:20,792045
0,0,-1,1,0,0,-2,-2,2021-08-06 13:56:20,808047
0,-1,-2,-2,-4,-3,-2,-1,2021-08-06 13:56:20,808047
-1,0,-1,2,1,-2,0,0,2021-08-06 13:56:20,808047
-1,-1,0,2,2,0,-1,0,2021-08-06 13:56:20,808047
-2,-1,-1,-1,-3,-2,0,0,2021-08-06 13:56:20,808047
-1,-1,-2,-3,-2,-3,-1,-1,2021-08-06 13:56:20,808047
-1,-2,-1,1,0,1,-1,-2,2021-08-06 13:56:20,839045
1,0,0,1,2,2,1,0,2021-08-06 13:56:20,854045
-1,-1,-4,-2,-2,-1,-1,0,2021-08-06 13:56:20,870045
-1,-2,-1,0,-2,-2,-2,-1,2021-08-06 13:56:20,870045
-2,1,-2,-1,1,-1,0,-1,2021-08-06 13:56:20,870045
-3,1,0,0,0,0,-2,-2,2021-08-06 13:56:20,870045
-1,-1,0,0,-2,-2,-1,-2,2021-08-06 13:56:20,870045
1,0,0,-3,-2,0,-2,-2,2021-08-06 13:56:20,870045
-1,-1,-1,-1,-2,-1,-2,-1,2021-08-06 13:56:20,870045
1,1,-3,-2,-2,-1,-1,0,2021-08-06 13:56:20,871047
-1,-1,-2,0,0,-1,-2,-2,2021-08-06 13:56:20,871047
-1,-1,-2,-2,2,-1,2,-1,2021-08-06 13:56:20,871047
-2,-1,1,-2,-2,0,0,1,2021-08-06 13:56:20,901045
0,0,-2,1,1,1,1,-1,2021-08-06 13:56:20,901045
-2,-2,-2,0,0,0,-1,0,2021-08-06 13:56:20,901045
-1,0,-2,-1,-2,-3,-3,0,2021-08-06 13:56:20,901045
-3,-2,-1,-1,-2,-2,-1,-2,2021-08-06 13:56:20,916045
-1,-1,0,1,-1,-1,0,0,2021-08-06 13:56:20,916045
-1,-2,0,-3,-5,-3,0,-2,2021-08-06 13:56:20,916045
1,0,-1,2,5,1,1,2,2021-08-06 13:56:20,916045
-1,1,-3,-2,-2,-1,0,-2,2021-08-06 13:56:20,932046
0,-2,0,-3,-2,-3,-2,-1,2021-08-06 13:56:20,943046
0,0,1,2,4,2,1,-1,2021-08-06 13:56:20,944047
-1,-2,-1,-3,-4,-4,-2,-1,2021-08-06 13:56:20,944047
0,-3,-2,-2,-2,-1,-2,-2,2021-08-06 13:56:20,944047
0,-1,1,-1,-1,-1,0,1,2021-08-06 13:56:20,944047
0,-1,-2,-1,-2,0,-2,-2,2021-08-06 13:56:20,944047
0,-2,-1,0,-2,-1,-2,-1,2021-08-06 13:56:20,944047
-1,-1,1,-1,0,0,0,0,2021-08-06 13:56:20,979045
0,0,-1,-1,0,-3,0,-2,2021-08-06 13:56:20,979045
-2,1,0,-1,-1,0,0,1,2021-08-06 13:56:20,979045
-1,-1,-2,-1,0,1,0,-2,2021-08-06 13:56:20,979045
0,-3,0,-1,-1,-3,-1,-1,2021-08-06 13:56:20,979045
-2,-2,-1,-2,-1,-1,0,0,2021-08-06 13:56:20,979045
0,1,-2,-1,-1,0,-1,1,2021-08-06 13:56:20,994047
-1,-1,-1,-1,0,0,-1,0,2021-08-06 13:56:20,994047
-1,0,0,-1,-2,-2,1,-1,2021-08-06 13:56:21,010045
-1,-2,-3,-2,-2,-1,0,-1,2021-08-06 13:56:21,026046
0,0,0,0,3,1,2,0,2021-08-06 13:56:21,041046
1,0,0,-1,-1,0,0,-1,2021-08-06 13:56:21,041046
0,-2,-2,0,0,0,0,1,2021-08-06 13:56:21,041046
-1,-1,-1,-2,0,0,-2,0,2021-08-06 13:56:21,041046
-1,1,0,-1,-1,-2,-2,-1,2021-08-06 13:56:21,041046
-2,0,1,1,-1,0,0,-2,2021-08-06 13:56:21,041046
-2,-1,-1,0,-1,-1,-1,-2,2021-08-06 13:56:21,041046
-1,-1,-2,1,-1,1,0,-1,2021-08-06 13:56:21,042046
-3,-1,-2,-2,-2,-2,-1,-1,2021-08-06 13:56:21,056045
0,0,-2,-1,-1,0,-2,-1,2021-08-06 13:56:21,056045
1,-1,-2,-3,0,-2,-2,-1,2021-08-06 13:56:21,072046
-1,-2,0,2,-1,-1,0,1,2021-08-06 13:56:21,088045
1,-1,-1,-1,-1,-1,-1,0,2021-08-06 13:56:21,104045
-1,-2,0,0,1,0,2,0,2021-08-06 13:56:21,104045
-1,-1,-2,0,-1,0,-2,-1,2021-08-06 13:56:21,104045
-2,0,1,0,0,-1,-1,0,2021-08-06 13:56:21,104045
-3,-3,-1,0,0,-4,-2,-8,2021-08-06 13:56:21,104045
-5,-3,-2,-4,-5,-7,-9,-8,2021-08-06 13:56:21,104045
0,-1,-2,-2,-2,-2,1,8,2021-08-06 13:56:21,104045
9,5,1,0,4,6,12,16,2021-08-06 13:56:21,105046
7,4,-1,0,0,4,8,11,2021-08-06 13:56:21,120045
-1,0,-3,-2,-2,-1,0,-4,2021-08-06 13:56:21,120045
-5,-3,0,-1,-3,-3,-4,-8,2021-08-06 13:56:21,136045
-4,-2,-2,4,3,-2,-6,-8,2021-08-06 13:56:21,168047
-5,-2,-1,1,-1,-2,-4,-4,2021-08-06 13:56:21,184045
0,-1,2,-1,1,0,-1,1,2021-08-06 13:56:21,184045
-2,-2,-1,-1,-4,-5,-2,-4,2021-08-06 13:56:21,184045
-2,-2,-3,-4,-3,-3,-2,-3,2021-08-06 13:56:21,184045
0,-2,-1,-2,-5,-4,-3,-2,2021-08-06 13:56:21,184045
0,0,1,2,4,2,1,2,2021-08-06 13:56:21,184045
2,-2,0,3,2,2,2,2,2021-08-06 13:56:21,184045
-2,-3,-2,-3,-4,-1,-2,-4,2021-08-06 13:56:21,184045
0,-3,-1,0,-1,-2,-1,-1,2021-08-06 13:56:21,184045
1,-2,0,-2,-2,-3,1,2,2021-08-06 13:56:21,199046
-1,1,-3,-2,-2,0,0,0,2021-08-06 13:56:21,199046
-1,-1,0,-1,0,0,-4,-3,2021-08-06 13:56:21,199046
-2,0,0,-1,-2,0,0,-2,2021-08-06 13:56:21,199046
2,1,0,1,0,4,3,3,2021-08-06 13:56:21,199046
0,-1,0,2,3,2,0,2,2021-08-06 13:56:21,215047
-7,-5,-5,-6,-7,-8,-7,-8,2021-08-06 13:56:21,215047
-1,-2,-1,-1,0,-2,-3,-1,2021-08-06 13:56:21,215047
-1,-1,-2,-1,-1,0,-2,-1,2021-08-06 13:56:21,215047
1,3,1,-1,2,2,1,1,2021-08-06 13:56:21,247046
0,0,0,1,-1,0,-1,2,2021-08-06 13:56:21,247046
-1,-3,-1,-1,1,-1,-1,-1,2021-08-06 13:56:21,247046
0,-1,2,2,1,0,0,0,2021-08-06 13:56:21,247046
-1,-2,-2,-2,-3,-1,-3,-2,2021-08-06 13:56:21,247046
0,0,0,-1,1,-1,1,1,2021-08-06 13:56:21,247046
-1,0,0,-1,-1,0,-1,-2,2021-08-06 13:56:21,247046
-2,-1,-3,-4,-2,-2,-1,-1,2021-08-06 13:56:21,247046
-1,0,0,1,-2,-3,-2,-1,2021-08-06 13:56:21,279048
-1,0,-1,0,-1,-1,-2,-2,2021-08-06 13:56:21,311047
-2,0,0,0,3,1,2,-2,2021-08-06 13:56:21,319045
-1,-3,0,-4,-1,0,-1,0,2021-08-06 13:56:21,319045
-2,-1,-2,-3,-1,-5,-1,-2,2021-08-06 13:56:21,320047
-2,-2,-1,-2,0,2,-1,-1,2021-08-06 13:56:21,320047
0,0,-2,-2,-6,-4,-1,0,2021-08-06 13:56:21,320047
-3,-1,-2,0,-2,-2,-1,-1,2021-08-06 13:56:21,320047
-1,-3,-1,-3,-4,-3,0,-1,2021-08-06 13:56:21,320047
0,-2,0,0,5,0,0,1,2021-08-06 13:56:21,320047
-1,0,-1,4,6,3,0,1,2021-08-06 13:56:21,320047
0,-1,0,3,3,0,1,-1,2021-08-06 13:56:21,320047
0,0,-1,1,-1,1,0,-1,2021-08-06 13:56:21,341045
0,-1,-1,-1,-4,-1,0,0,2021-08-06 13:56:21,357045
-1,-1,-2,-3,-4,-2,-3,-1,2021-08-06 13:56:21,373047
0,0,-1,0,-2,-2,-1,-2,2021-08-06 13:56:21,373047
-2,-3,-1,-2,-1,0,-1,-2,2021-08-06 13:56:21,373047
0,-1,-2,1,-1,-1,0,0,2021-08-06 13:56:21,373047
-1,-2,-1,-1,0,-1,-1,0,2021-08-06 13:56:21,373047
0,1,0,1,-1,-2,-1,-1,2021-08-06 13:56:21,373047
-1,-1,-1,0,-1,-1,1,0,2021-08-06 13:56:21,373047
-1,0,-1,-1,-2,-2,-1,1,2021-08-06 13:56:21,374046
-1,-2,-1,0,-1,-1,-1,-1,2021-08-06 13:56:21,374046
-2,-1,-2,-1,1,0,-1,-1,2021-08-06 13:56:21,374046
0,0,0,-3,-1,-1,0,-2,2021-08-06 13:56:21,404045
-2,0,-2,-1,0,0,1,-1,2021-08-06 13:56:21,404045
-1,-2,-1,-1,0,-1,-1,0,2021-08-06 13:56:21,404045
-1,-1,0,-1,-2,-1,-1,-1,2021-08-06 13:56:21,404045
-3,-1,-1,0,1,0,2,1,2021-08-06 13:56:21,434046
-1,0,-1,2,-2,-1,-2,0,2021-08-06 13:56:21,434046
-1,-2,-1,-3,-3,0,-2,0,2021-08-06 13:56:21,434046
-3,-1,-1,-3,-3,-1,-1,0,2021-08-06 13:56:21,434046
1,0,0,-1,1,0,0,-1,2021-08-06 13:56:21,434046
-1,-1,-1,-2,0,-1,0,-3,2021-08-06 13:56:21,434046
-1,0,-1,0,-1,0,-2,-1,2021-08-06 13:56:21,434046
1,0,-2,0,-1,-1,0,-1,2021-08-06 13:56:21,434046
-1,0,-2,1,-1,-2,-2,0,2021-08-06 13:56:21,450045
0,-1,0,0,-2,-3,0,-2,2021-08-06 13:56:21,466046
1,-2,-1,-1,-2,-1,0,0,2021-08-06 13:56:21,482046
-2,-1,0,0,-1,-2,0,-1,2021-08-06 13:56:21,498045
0,0,-2,-2,-1,-1,-2,-1,2021-08-06 13:56:21,514046
0,1,0,1,-1,-1,-1,-1,2021-08-06 13:56:21,514046
-1,0,1,-1,1,-1,1,0,2021-08-06 13:56:21,514046
-1,-1,-1,0,-2,0,0,1,2021-08-06 13:56:21,514046
-1,-1,-2,-2,-1,-1,-1,-1,2021-08-06 13:56:21,514046
-2,-3,1,-1,1,-1,-2,0,2021-08-06 13:56:21,514046
0,0,1,-1,-2,-1,1,-1,2021-08-06 13:56:21,514046
-1,0,0,0,0,-1,0,0,2021-08-06 13:56:21,514046
1,-2,-1,0,0,-2,-1,-2,2021-08-06 13:56:21,514046
0,0,0,0,-2,1,0,0,2021-08-06 13:56:21,515048
-2,-1,-1,-1,0,-2,-1,-1,2021-08-06 13:56:21,515048
-1,-1,-1,-2,-1,-2,-2,-1,2021-08-06 13:56:21,515048
0,-1,-1,-1,-1,-1,-1,-1,2021-08-06 13:56:21,545045
-1,0,-1,-2,1,-2,0,1,2021-08-06 13:56:21,560045
0,-2,-1,0,-1,-3,-2,0,2021-08-06 13:56:21,560045
-2,-2,-2,0,-1,0,-1,-1,2021-08-06 13:56:21,560045
-2,0,0,-2,-3,-2,-2,-2,2021-08-06 13:56:21,560045
1,-1,0,0,1,1,1,-1,2021-08-06 13:56:21,560045
-1,0,-3,-2,0,1,0,-2,2021-08-06 13:56:21,560045
0,-1,-1,-1,1,-1,-2,0,2021-08-06 13:56:21,560045
-2,-3,-1,-1,-2,1,-2,0,2021-08-06 13:56:21,576045
-2,-1,-3,-1,-1,-2,0,-1,2021-08-06 13:56:21,592046
-1,-1,-1,-1,-1,-1,-3,-1,2021-08-06 13:56:21,592046
-1,-1,0,0,0,-1,0,0,2021-08-06 13:56:21,592046
-2,0,-1,0,1,0,-1,0,2021-08-06 13:56:21,592046
-1,0,0,-3,-2,0,-1,0,2021-08-06 13:56:21,592046
1,-2,0,-1,-2,0,0,0,2021-08-06 13:56:21,592046
1,0,0,0,-2,0,0,-1,2021-08-06 13:56:21,592046
0,-1,-1,-1,-2,-2,-1,0,2021-08-06 13:56:21,608045
-1,-1,-1,-1,0,-1,-2,-1,2021-08-06 13:56:21,608045
-2,0,-1,2,0,-1,0,-2,2021-08-06 13:56:21,608045
-2,-3,-1,-1,-1,-1,-1,-1,2021-08-06 13:56:21,608045
0,-2,0,0,-2,0,-1,-1,2021-08-06 13:56:21,639045
-2,-2,-1,0,0,0,0,0,2021-08-06 13:56:21,655045
-1,-1,-1,-1,-1,-2,-1,-2,2021-08-06 13:56:21,671045
-2,-1,0,-1,-1,-2,-1,-2,2021-08-06 13:56:21,671045
-1,-1,-1,0,0,0,-1,1,2021-08-06 13:56:21,671045
-1,-1,0,1,0,-2,-1,-1,2021-08-06 13:56:21,671045
0,0,-1,1,-1,-1,-1,1,2021-08-06 13:56:21,671045
1,-1,-1,-1,-1,0,-1,-1,2021-08-06 13:56:21,671045
-1,-1,0,0,-1,-1,-1,-2,2021-08-06 13:56:21,671045
1,0,-2,1,-1,0,-2,-2,2021-08-06 13:56:21,671045
-1,0,0,-2,0,-1,-2,-2,2021-08-06 13:56:21,672047
0,-1,-3,-2,-2,-2,-1,-1,2021-08-06 13:56:21,672047
-1,0,0,-1,-1,-2,0,-1,2021-08-06 13:56:21,685046
-1,0,0,-1,-1,-1,-3,0,2021-08-06 13:56:21,685046
0,-2,-2,0,-1,-1,0,-1,2021-08-06 13:56:21,701045
-2,0,-2,-1,-1,-1,-1,-1,2021-08-06 13:56:21,701045
-2,0,-1,0,0,-2,-1,0,2021-08-06 13:56:21,716045
-1,-2,-1,0,-2,0,0,-2,2021-08-06 13:56:21,731046
1,-1,0,-1,0,-1,-1,0,2021-08-06 13:56:21,731046
-1,-1,0,-1,0,1,0,-1,2021-08-06 13:56:21,731046
0,-2,-1,-1,1,-1,-2,0,2021-08-06 13:56:21,731046
-1,0,-1,-2,-1,-1,-1,0,2021-08-06 13:56:21,731046
0,0,-2,0,1,0,-1,-1,2021-08-06 13:56:21,731046
0,-1,0,0,-1,0,-3,0,2021-08-06 13:56:21,731046
1,-3,-1,-1,0,-1,-1,0,2021-08-06 13:56:21,762046
1,0,-1,-2,-2,-1,0,-2,2021-08-06 13:56:21,778045
0,1,-1,-1,-2,-1,-1,-1,2021-08-06 13:56:21,778045
0,0,-3,-1,-1,-3,-2,0,2021-08-06 13:56:21,778045
-2,-2,0,0,-1,1,0,-2,2021-08-06 13:56:21,778045
-1,-1,-2,-2,0,-1,0,1,2021-08-06 13:56:21,778045
-1,-1,-1,-2,0,0,1,0,2021-08-06 13:56:21,778045
-2,-3,-1,-1,0,-1,0,-1,2021-08-06 13:56:21,778045
-1,-2,1,-1,-1,0,0,-3,2021-08-06 13:56:21,794047
-1,-2,1,-1,-1,0,-1,-2,2021-08-06 13:56:21,794047
-3,0,2,0,-1,-1,-3,-2,2021-08-06 13:56:21,794047
0,2,0,-1,-2,-5,-2,0,2021-08-06 13:56:21,794047
-2,0,0,-1,-1,0,-1,-2,2021-08-06 13:56:21,810045
0,-1,-2,-1,-1,-2,0,-1,2021-08-06 13:56:21,810045
-1,-2,-2,-1,0,0,-1,0,2021-08-06 13:56:21,810045
1,1,-1,0,-1,0,1,0,2021-08-06 13:56:21,810045
-2,-1,-3,-1,0,-1,0,0,2021-08-06 13:56:21,841046
0,0,-1,1,-1,-2,-1,0,2021-08-06 13:56:21,857045
-1,-2,-1,-1,-1,1,-1,-3,2021-08-06 13:56:21,872045
-3,-1,-2,-1,-2,-2,-2,0,2021-08-06 13:56:21,872045
0,0,-1,-2,-2,-1,0,0,2021-08-06 13:56:21,872045
-3,-1,-1,-1,0,0,0,-1,2021-08-06 13:56:21,872045
1,-1,-1,-3,-1,-1,-3,0,2021-08-06 13:56:21,872045
-1,-1,0,-1,1,0,-1,-2,2021-08-06 13:56:21,872045
1,-2,1,-1,0,-2,-2,0,2021-08-06 13:56:21,872045
0,-2,-1,0,0,-1,-2,-2,2021-08-06 13:56:21,872045
0,-1,-1,0,1,0,-1,0,2021-08-06 13:56:21,873047
-1,-2,0,1,-1,-1,-1,-1,2021-08-06 13:56:21,873047
-1,0,-3,1,0,-1,-1,-1,2021-08-06 13:56:21,902045
-2,0,-1,-2,-2,0,-1,0,2021-08-06 13:56:21,918045
0,1,-1,-1,-1,0,1,-2,2021-08-06 13:56:21,949046
0,-2,-1,-3,0,0,-1,-1,2021-08-06 13:56:21,965045
0,0,-3,0,0,-3,-2,0,2021-08-06 13:56:21,981045
1,1,0,-1,-2,-2,-2,0,2021-08-06 13:56:21,981045
-1,-1,-2,-3,-1,-2,-1,0,2021-08-06 13:56:21,981045
-1,-1,0,0,-2,-2,0,0,2021-08-06 13:56:21,981045
-2,-1,-1,-2,-2,-1,-2,-1,2021-08-06 13:56:21,981045
-2,-1,-1,-1,0,-2,-1,0,2021-08-06 13:56:21,981045
-2,-1,0,-1,-1,-1,0,1,2021-08-06 13:56:21,981045
-1,0,-2,-2,0,0,-1,-1,2021-08-06 13:56:21,981045
-1,-1,-1,0,-1,-2,-4,0,2021-08-06 13:56:21,981045
-2,-1,-2,-2,-3,-1,-1,0,2021-08-06 13:56:21,982047
2,0,2,2,2,0,0,-1,2021-08-06 13:56:21,982047
-2,0,-3,0,0,0,0,0,2021-08-06 13:56:21,982047
-1,0,-1,-1,0,0,1,0,2021-08-06 13:56:21,982047
0,-3,-1,0,-2,1,-1,-3,2021-08-06 13:56:21,982047
0,-2,-3,-1,-1,-1,-1,-2,2021-08-06 13:56:21,982047
-1,1,0,-1,-2,0,-1,-1,2021-08-06 13:56:21,982047
-1,-1,0,-1,-2,-1,-1,0,2021-08-06 13:56:21,997046
0,0,-2,-1,-1,0,-1,-1,2021-08-06 13:56:22,013046
-1,0,0,0,-2,-1,-2,0,2021-08-06 13:56:22,045047
-2,-1,-1,0,-1,0,-2,-2,2021-08-06 13:56:22,045047
0,0,-2,-2,-1,-1,1,-1,2021-08-06 13:56:22,045047
1,0,-1,0,1,-2,0,0,2021-08-06 13:56:22,045047
-2,-2,-1,2,-1,-1,0,0,2021-08-06 13:56:22,045047
-1,-2,0,1,0,-2,-2,-1,2021-08-06 13:56:22,045047
-2,-2,-1,0,-1,0,0,0,2021-08-06 13:56:22,045047
0,-1,1,-2,0,0,-1,0,2021-08-06 13:56:22,045047
0,-2,-2,0,-1,-1,-1,-1,2021-08-06 13:56:22,045047
-1,-1,-1,-3,-3,2,0,-1,2021-08-06 13:56:22,045047
-2,-1,-1,-1,-3,-1,-2,-1,2021-08-06 13:56:22,045047
0,-1,0,1,-1,-1,-2,0,2021-08-06 13:56:22,045047
0,1,1,-1,-2,-1,0,0,2021-08-06 13:56:22,056045
-1,-3,-1,-1,-1,-2,-2,-3,2021-08-06 13:56:22,056045
-1,-2,-2,-3,-2,-1,-1,-3,2021-08-06 13:56:22,077046
-1,-2,-3,-1,0,1,0,0,2021-08-06 13:56:22,093045
-4,-2,0,-2,-2,-2,0,-2,2021-08-06 13:56:22,109046
1,-1,-2,-1,-2,-1,-1,1,2021-08-06 13:56:22,109046
-1,-2,-1,2,1,-2,-1,1,2021-08-06 13:56:22,109046
0,-2,-3,-3,-3,-3,-1,-1,2021-08-06 13:56:22,109046
-2,-2,-3,0,1,-1,-2,-3,2021-08-06 13:56:22,125046
0,0,1,0,-1,1,1,1,2021-08-06 13:56:22,125046
1,0,-1,0,-1,0,1,1,2021-08-06 13:56:22,125046
-1,1,2,1,-1,-2,-3,-3,2021-08-06 13:56:22,125046
-1,0,-1,-2,-1,0,0,-1,2021-08-06 13:56:22,125046
1,1,-1,-1,1,-1,0,0,2021-08-06 13:56:22,125046
-6,-4,-3,-2,-3,-3,-4,-6,2021-08-06 13:56:22,141045
-1,-1,1,1,2,4,4,1,2021-08-06 13:56:22,141045
5,4,0,-2,-1,-1,-2,4,2021-08-06 13:56:22,141045
-6,-5,-4,-2,-3,-7,-10,-10,2021-08-06 13:56:22,141045
2,2,0,-1,0,1,6,4,2021-08-06 13:56:22,141045
4,0,-3,-1,-1,1,5,7,2021-08-06 13:56:22,141045
-7,-6,-5,-4,-4,-4,-3,-5,2021-08-06 13:56:22,173047
3,2,1,1,1,1,2,6,2021-08-06 13:56:22,173047
1,2,1,2,5,7,-1,-5,2021-08-06 13:56:22,173047
2,0,1,1,2,1,-1,-3,2021-08-06 13:56:22,173047
1,-6,-5,-5,-9,-8,-6,-3,2021-08-06 13:56:22,173047
-9,0,4,5,6,14,0,-31,2021-08-06 13:56:22,173047
7,1,-1,-1,0,3,-1,5,2021-08-06 13:56:22,205046
-36,2,3,-1,-10,-30,-19,9,2021-08-06 13:56:22,205046
17,1,-9,-14,-12,-8,16,38,2021-08-06 13:56:22,205046
24,7,-2,-3,4,5,16,28,2021-08-06 13:56:22,205046
9,0,0,-1,2,3,1,-10,2021-08-06 13:56:22,205046
21,6,7,9,14,23,8,-9,2021-08-06 13:56:22,205046
-17,-4,3,4,1,-3,-15,-20,2021-08-06 13:56:22,237045
-10,-6,-2,-1,-4,-6,-10,-9,2021-08-06 13:56:22,252045
2,2,3,2,5,10,10,7,2021-08-06 13:56:22,252045
0,-3,-3,-5,-7,-5,2,7,2021-08-06 13:56:22,252045
-6,-1,-2,0,-1,-4,-11,-17,2021-08-06 13:56:22,252045
-5,-5,-5,-4,-5,-2,1,1,2021-08-06 13:56:22,252045
-8,-1,-1,1,-1,-5,-3,3,2021-08-06 13:56:22,252045
5,2,-4,-4,-1,1,4,5,2021-08-06 13:56:22,253047
3,3,2,2,4,6,5,0,2021-08-06 13:56:22,253047
4,2,2,1,0,0,-1,-1,2021-08-06 13:56:22,253047
-6,-3,1,-1,-6,-12,-10,-5,2021-08-06 13:56:22,284045
0,-5,-3,-2,-4,0,-2,-5,2021-08-06 13:56:22,300045
4,1,2,3,6,9,6,1,2021-08-06 13:56:22,316045
-4,-3,-4,-4,-5,-7,-5,0,2021-08-06 13:56:22,316045
-4,-3,-1,-4,-4,-4,-2,-2,2021-08-06 13:56:22,316045
1,-1,0,0,0,2,1,-2,2021-08-06 13:56:22,316045
5,22,57,81,42,18,4,0,2021-08-06 13:56:22,316045
1,0,-7,27,13,7,4,5,2021-08-06 13:56:22,316045
-1,-17,-57,-74,-27,-8,-1,3,2021-08-06 13:56:22,316045
-18,-28,-41,-95,-79,-43,-24,-18,2021-08-06 13:56:22,316045
-7,-11,-29,-24,-15,-6,-4,-3,2021-08-06 13:56:22,317046
-7,3,23,16,-1,-8,-5,-4,2021-08-06 13:56:22,317046
15,23,51,85,59,33,18,14,2021-08-06 13:56:22,348045
10,12,32,64,46,22,10,4,2021-08-06 13:56:22,348045
-1,-1,-7,-22,-16,-5,1,0,2021-08-06 13:56:22,348045
-6,-12,-45,-57,-22,-11,-7,-5,2021-08-06 13:56:22,348045
-12,-14,-18,-35,-28,-19,-12,-10,2021-08-06 13:56:22,348045
-5,-2,6,5,3,-2,-4,-4,2021-08-06 13:56:22,348045
0,2,14,21,9,4,1,2,2021-08-06 13:56:22,364045
3,2,9,16,10,8,1,1,2021-08-06 13:56:22,364045
-2,2,4,0,-6,-5,-4,-3,2021-08-06 13:56:22,380047
4,3,5,15,10,6,5,3,2021-08-06 13:56:22,396046
2,0,-4,-3,-2,0,1,0,2021-08-06 13:56:22,412047
-3,-4,-4,-15,-8,-5,-4,-3,2021-08-06 13:56:22,412047
-4,-1,5,4,0,0,-2,-3,2021-08-06 13:56:22,412047
0,-1,1,12,8,5,1,0,2021-08-06 13:56:22,412047
-2,-8,-18,-22,-12,-3,0,-4,2021-08-06 13:56:22,412047
-1,1,4,-3,-1,-2,0,2,2021-08-06 13:56:22,412047
-2,-1,5,10,-1,-3,-3,-3,2021-08-06 13:56:22,412047
2,0,-7,-4,1,1,-1,-1,2021-08-06 13:56:22,413047
-4,-4,-8,-13,-6,-6,-5,-3,2021-08-06 13:56:22,413047
-2,-1,2,-1,-6,-4,-3,-1,2021-08-06 13:56:22,413047
1,1,2,7,4,4,2,1,2021-08-06 13:56:22,444046
-2,-4,-7,-7,-5,-1,-1,-2,2021-08-06 13:56:22,444046
-2,-2,-4,-5,-3,-3,-2,-3,2021-08-06 13:56:22,444046
5,3,8,12,6,6,5,5,2021-08-06 13:56:22,444046
-3,-2,-4,-6,-5,-4,-1,-1,2021-08-06 13:56:22,460046
-4,-3,-4,-4,-4,-3,-2,-3,2021-08-06 13:56:22,460046
1,0,1,2,1,1,0,0,2021-08-06 13:56:22,460046
-2,-2,-2,-1,0,-1,-1,-2,2021-08-06 13:56:22,460046
0,-1,-3,-5,-6,-3,-4,-3,2021-08-06 13:56:22,476047
-1,-1,0,1,3,2,0,-2,2021-08-06 13:56:22,492047
4,2,0,0,4,4,4,7,2021-08-06 13:56:22,524045
0,-1,-2,-5,-5,-4,-1,-3,2021-08-06 13:56:22,524045
-1,-1,-1,-1,-4,-4,-1,-1,2021-08-06 13:56:22,524045
3,5,4,6,6,3,2,3,2021-08-06 13:56:22,524045
-1,-3,-4,-4,-1,-1,-3,-3,2021-08-06 13:56:22,524045
-2,-1,1,-1,-1,-2,-2,-1,2021-08-06 13:56:22,524045
-2,-1,-2,0,-1,-3,-3,-1,2021-08-06 13:56:22,525046
0,1,0,1,2,3,1,1,2021-08-06 13:56:22,525046
-1,0,-3,-8,-2,-2,-1,-1,2021-08-06 13:56:22,540045
-1,0,1,1,2,-1,1,0,2021-08-06 13:56:22,555045
-1,-1,1,2,-1,-1,-2,0,2021-08-06 13:56:22,570045
-2,-3,-2,-4,-4,-3,-2,-2,2021-08-06 13:56:22,570045
1,1,-2,-3,-1,2,2,1,2021-08-06 13:56:22,570045
0,1,2,4,2,1,0,-1,2021-08-06 13:56:22,570045
2,-1,-2,-3,-1,1,2,1,2021-08-06 13:56:22,570045
0,-1,-2,-1,-1,-3,-1,-1,2021-08-06 13:56:22,570045
-2,-2,-1,3,-3,-2,-2,-2,2021-08-06 13:56:22,570045
-2,0,-1,1,-1,-1,1,0,2021-08-06 13:56:22,570045
-1,-1,-1,-2,-2,0,0,-2,2021-08-06 13:56:22,570045
-1,-2,-4,-4,-2,0,0,2,2021-08-06 13:56:22,571047
-4,-4,-5,-10,-6,-3,-3,-3,2021-08-06 13:56:22,585046
0,-1,2,3,1,-1,-2,-1,2021-08-06 13:56:22,585046
-1,-1,0,5,-2,-3,-3,-2,2021-08-06 13:56:22,585046
-1,-1,1,-4,3,0,1,-1,2021-08-06 13:56:22,585046
-4,-3,-2,0,-6,-5,-3,-4,2021-08-06 13:56:22,601048
0,1,-1,-1,3,3,3,1,2021-08-06 13:56:22,601048
2,3,3,5,5,2,1,1,2021-08-06 13:56:22,617045
1,-1,-3,0,2,2,0,0,2021-08-06 13:56:22,633045
-3,-4,-3,-7,-3,-3,-2,-1,2021-08-06 13:56:22,633045
-2,-4,0,-3,-7,-3,-3,-4,2021-08-06 13:56:22,633045
-1,-1,1,8,1,-2,-1,-1,2021-08-06 13:56:22,633045
-1,2,6,13,2,-1,0,-2,2021-08-06 13:56:22,633045
4,2,10,4,3,3,1,2,2021-08-06 13:56:22,648047
-2,-5,-21,-36,-9,-6,-3,-2,2021-08-06 13:56:22,648047
-3,-7,-18,-16,-9,-4,-1,-1,2021-08-06 13:56:22,648047
-2,-2,-5,-1,-2,-2,-3,-1,2021-08-06 13:56:22,648047
-2,0,5,14,4,1,2,-2,2021-08-06 13:56:22,664045
2,3,13,15,6,2,1,1,2021-08-06 13:56:22,680045
-3,1,4,0,-2,-2,-2,-2,2021-08-06 13:56:22,695045
0,1,-4,-6,-2,1,-1,2,2021-08-06 13:56:22,695045
0,-1,0,-3,-1,-5,-2,-1,2021-08-06 13:56:22,695045
1,1,1,3,0,2,1,0,2021-08-06 13:56:22,695045
-2,-3,-1,0,-1,-2,-3,-2,2021-08-06 13:56:22,695045
-1,-1,2,1,-2,-1,-2,0,2021-08-06 13:56:22,695045
-3,0,-6,-5,-2,1,-1,-1,2021-08-06 13:56:22,696049
-4,-3,-2,-1,-3,-3,-2,-3,2021-08-06 13:56:22,696049
-1,-2,0,-1,-3,-4,-2,-1,2021-08-06 13:56:22,711047
3,2,2,-1,0,1,2,0,2021-08-06 13:56:22,743046
0,-3,-5,-3,1,0,1,0,2021-08-06 13:56:22,759046
-2,-2,-2,5,1,1,-1,-1,2021-08-06 13:56:22,759046
-4,-2,3,2,2,-1,0,-3,2021-08-06 13:56:22,759046
-2,0,-1,-3,-4,-3,-3,-4,2021-08-06 13:56:22,759046
-4,-1,-5,-9,-6,-4,-4,-3,2021-08-06 13:56:22,759046
0,-2,-2,-2,-2,-1,-2,-1,2021-08-06 13:56:22,759046
2,-1,-2,-3,-2,1,-1,0,2021-08-06 13:56:22,759046
-1,-2,-2,3,2,0,-1,0,2021-08-06 13:56:22,760047
0,0,1,4,1,0,-2,-1,2021-08-06 13:56:22,760047
-2,-2,-2,-3,-7,-3,-2,-2,2021-08-06 13:56:22,760047
4,3,2,0,4,2,2,3,2021-08-06 13:56:22,775049
1,0,-1,2,3,1,1,0,2021-08-06 13:56:22,775049
-2,-1,-3,0,0,-1,0,-1,2021-08-06 13:56:22,775049
1,0,4,5,2,1,-1,0,2021-08-06 13:56:22,775049
-1,-1,-1,0,-2,-3,-3,-2,2021-08-06 13:56:22,807045
-3,-3,-4,-1,-4,-2,-3,-2,2021-08-06 13:56:22,823045
-1,-3,-4,-14,-4,0,0,-2,2021-08-06 13:56:22,823045
-2,0,-4,-8,-3,-2,0,-3,2021-08-06 13:56:22,823045
1,0,-1,-1,1,0,0,-1,2021-08-06 13:56:22,823045
0,-2,2,1,0,-1,0,0,2021-08-06 13:56:22,823045
0,-3,-2,4,0,-1,-1,-2,2021-08-06 13:56:22,823045
-1,-2,1,3,1,-1,-2,-1,2021-08-06 13:56:22,823045
0,2,-1,-7,-5,-1,0,2,2021-08-06 13:56:22,824047
-2,1,-1,1,4,2,0,0,2021-08-06 13:56:22,824047
1,1,1,1,1,0,-1,1,2021-08-06 13:56:22,839045
-1,-3,-2,3,-1,-2,-2,-2,2021-08-06 13:56:22,839045
-3,-3,-2,-5,-1,-2,-2,-2,2021-08-06 13:56:22,855045
-2,-4,-4,-8,-7,-4,-3,-2,2021-08-06 13:56:22,855045
-1,-1,0,2,2,1,0,0,2021-08-06 13:56:22,855045
1,2,2,2,0,-1,1,2,2021-08-06 13:56:22,855045
-2,1,1,1,3,1,0,0,2021-08-06 13:56:22,885045
-1,-2,-3,-4,-2,-2,-1,-2,2021-08-06 13:56:22,885045
-1,-2,-1,1,0,-1,-1,-1,2021-08-06 13:56:22,885045
-2,-3,-3,-4,-6,-4,-3,-1,2021-08-06 13:56:22,885045
-1,0,0,1,2,4,1,-2,2021-08-06 13:56:22,901045
-1,-2,0,-4,-4,-2,-1,-2,2021-08-06 13:56:22,901045
0,0,-1,-1,-1,-1,-1,-2,2021-08-06 13:56:22,901045
-1,-1,1,3,2,2,0,0,2021-08-06 13:56:22,901045
-3,-3,0,1,-3,-2,-3,-3,2021-08-06 13:56:22,917045
-2,-3,-2,-3,-2,-1,0,-1,2021-08-06 13:56:22,933045
1,0,-3,-5,-4,-2,-1,0,2021-08-06 13:56:22,933045
-2,1,-1,-7,-3,0,-1,1,2021-08-06 13:56:22,933045
