EMG 1,EMG 2,EMG 3,EMG 4,EMG 5,EMG 6,EMG 7,EMG 8,Timestamp,Milliseconds
0,0,-1,5,-8,-6,-3,-1,2021-08-06 13:57:48,151298
0,-2,-8,-20,-11,-4,0,-1,2021-08-06 13:57:48,151298
-4,-6,-9,-20,-10,-6,-5,-4,2021-08-06 13:57:48,151298
1,1,-2,-11,-7,-3,-1,0,2021-08-06 13:57:48,151298
-2,-3,1,0,-9,-7,-3,-2,2021-08-06 13:57:48,151298
7,10,22,63,31,17,10,8,2021-08-06 13:57:48,151298
-1,0,-6,-6,-6,1,0,-1,2021-08-06 13:57:48,152296
-4,-6,-21,-52,-6,-1,-3,-2,2021-08-06 13:57:48,152296
-12,-13,-12,-22,-29,-17,-13,-11,2021-08-06 13:57:48,152296
3,5,7,8,9,3,2,3,2021-08-06 13:57:48,152296
-2,-1,1,-2,10,4,1,-1,2021-08-06 13:57:48,152296
-1,0,2,31,1,-6,-4,-2,2021-08-06 13:57:48,152296
2,0,0,4,5,5,2,2,2021-08-06 13:57:48,166296
-4,-5,-9,-38,-35,-19,-9,-4,2021-08-06 13:57:48,166296
3,2,15,29,25,12,5,3,2021-08-06 13:57:48,197540
1,-1,-15,-4,6,3,3,-1,2021-08-06 13:57:48,197540
-5,-4,-4,1,-12,-11,-6,-6,2021-08-06 13:57:48,197540
2,4,6,2,1,3,1,0,2021-08-06 13:57:48,197540
9,14,22,28,44,24,15,10,2021-08-06 13:57:48,197540
0,1,16,28,3,0,-2,-1,2021-08-06 13:57:48,197540
-1,-4,-12,-15,-7,-3,-2,0,2021-08-06 13:57:48,212804
-7,-11,-21,-32,-15,-6,-3,-4,2021-08-06 13:57:48,212804
-8,-9,-19,-52,-41,-24,-14,-8,2021-08-06 13:57:48,228804
2,3,12,29,16,11,5,2,2021-08-06 13:57:48,244807
5,7,18,44,22,6,4,4,2021-08-06 13:57:48,244807
0,1,0,1,-13,-7,-5,-1,2021-08-06 13:57:48,244807
-1,-7,-17,-49,-32,-12,-5,0,2021-08-06 13:57:48,260806
-4,-8,-10,0,16,5,2,-1,2021-08-06 13:57:48,269804
3,4,9,25,40,24,10,3,2021-08-06 13:57:48,291805
3,2,1,10,8,6,3,2,2021-08-06 13:57:48,291805
6,7,4,2,3,4,5,4,2021-08-06 13:57:48,291805
-5,-2,7,13,-7,-11,-8,-6,2021-08-06 13:57:48,291805
-1,1,0,0,-18,-10,-2,-1,2021-08-06 13:57:48,291805
1,1,-5,-18,-1,1,0,0,2021-08-06 13:57:48,291805
-7,-9,-13,-37,-14,-8,-7,-5,2021-08-06 13:57:48,291805
-1,2,-4,18,7,3,2,0,2021-08-06 13:57:48,292806
7,9,13,30,23,12,6,6,2021-08-06 13:57:48,292806
1,3,1,10,0,-1,2,1,2021-08-06 13:57:48,292806
2,2,-4,-15,6,8,2,1,2021-08-06 13:57:48,307805
-5,-8,-8,-38,-24,-11,-7,-6,2021-08-06 13:57:48,307805
-7,-7,5,11,-5,-7,-7,-5,2021-08-06 13:57:48,323805
-2,-1,-3,15,1,-4,-4,1,2021-08-06 13:57:48,339806
7,9,0,2,10,8,6,5,2021-08-06 13:57:48,355805
-7,-12,-29,-64,-41,-17,-9,-7,2021-08-06 13:57:48,355805
6,7,10,30,45,27,11,5,2021-08-06 13:57:48,355805
-2,3,20,29,13,4,2,0,2021-08-06 13:57:48,355805
-5,-3,6,32,-4,-6,-4,-4,2021-08-06 13:57:48,355805
5,4,-3,-10,4,4,5,5,2021-08-06 13:57:48,355805
-11,-16,-27,-60,-52,-29,-15,-12,2021-08-06 13:57:48,355805
0,0,0,8,13,5,-1,-3,2021-08-06 13:57:48,355805
1,1,10,29,9,1,0,-1,2021-08-06 13:57:48,387806
5,9,13,23,28,16,8,6,2021-08-06 13:57:48,387806
0,-1,-2,-8,-7,0,3,0,2021-08-06 13:57:48,387806
-2,-6,-16,-34,-5,-3,-2,-4,2021-08-06 13:57:48,387806
-6,-6,-11,-8,-3,-6,-6,-4,2021-08-06 13:57:48,403808
-3,-3,3,4,-11,-6,-5,-1,2021-08-06 13:57:48,403808
-1,2,0,2,-2,-4,-2,0,2021-08-06 13:57:48,403808
-1,0,3,-1,0,3,2,-1,2021-08-06 13:57:48,403808
-4,-3,-1,-3,-9,-7,-4,-3,2021-08-06 13:57:48,418804
6,5,10,27,18,9,8,7,2021-08-06 13:57:48,433804
-2,0,1,10,0,-1,-2,-1,2021-08-06 13:57:48,433804
0,-3,-9,-29,-1,4,2,0,2021-08-06 13:57:48,433804
-3,-3,-9,-5,21,10,1,-2,2021-08-06 13:57:48,448806
1,1,9,25,10,3,1,-1,2021-08-06 13:57:48,464804
-1,-2,-6,-11,-18,-10,-5,-3,2021-08-06 13:57:48,480804
7,7,3,-3,6,5,6,5,2021-08-06 13:57:48,480804
-5,-6,-1,-7,-9,-5,-4,-3,2021-08-06 13:57:48,480804
-4,-3,-9,-17,-4,-4,-3,-4,2021-08-06 13:57:48,480804
-2,-2,-2,-13,0,-2,-2,0,2021-08-06 13:57:48,480804
-5,-5,-2,3,-13,-11,-7,-5,2021-08-06 13:57:48,480804
3,5,10,11,1,-1,3,3,2021-08-06 13:57:48,480804
6,9,18,47,31,16,8,5,2021-08-06 13:57:48,480804
-6,-7,-17,-13,-5,-4,-5,-6,2021-08-06 13:57:48,480804
1,0,-10,-37,-12,1,3,4,2021-08-06 13:57:48,481807
-2,-5,-2,-11,-13,-9,-5,-2,2021-08-06 13:57:48,496804
-8,-8,-6,-11,-20,-14,-10,-7,2021-08-06 13:57:48,512804
2,4,12,21,-6,-7,-3,-1,2021-08-06 13:57:48,528804
3,3,9,28,35,17,7,4,2021-08-06 13:57:48,543804
1,1,5,10,12,6,2,-2,2021-08-06 13:57:48,543804
1,-2,-5,-16,0,1,0,1,2021-08-06 13:57:48,558804
-7,-10,-32,-39,-16,-9,-7,-5,2021-08-06 13:57:48,574806
-14,-17,-18,-34,-40,-22,-16,-13,2021-08-06 13:57:48,574806
2,5,9,16,9,6,6,6,2021-08-06 13:57:48,574806
2,5,7,10,9,4,3,1,2021-08-06 13:57:48,574806
0,2,13,8,10,6,3,2,2021-08-06 13:57:48,574806
3,2,-5,15,0,-3,-1,0,2021-08-06 13:57:48,574806
-5,-8,-10,-19,-17,-12,-7,-5,2021-08-06 13:57:48,574806
5,6,15,35,26,13,6,4,2021-08-06 13:57:48,574806
5,5,4,4,0,1,4,4,2021-08-06 13:57:48,574806
-1,-1,-1,-1,3,2,-2,0,2021-08-06 13:57:48,574806
-10,-11,-19,-43,-43,-26,-14,-11,2021-08-06 13:57:48,574806
7,8,12,35,47,26,12,8,2021-08-06 13:57:48,575807
-2,1,-4,-21,-9,-4,-3,-2,2021-08-06 13:57:48,575807
-2,0,5,18,23,14,7,2,2021-08-06 13:57:48,575807
-1,-4,-8,-3,-5,-2,-3,-1,2021-08-06 13:57:48,590805
-7,-9,-13,-21,-29,-19,-8,-8,2021-08-06 13:57:48,590805
3,5,10,18,6,1,4,2,2021-08-06 13:57:48,606806
-1,1,9,14,-2,-5,-4,-2,2021-08-06 13:57:48,621804
5,6,7,19,2,3,5,5,2021-08-06 13:57:48,621804
-4,-3,-14,-42,-17,-6,-4,-4,2021-08-06 13:57:48,621804
-4,-8,-15,-32,-1,1,-2,-2,2021-08-06 13:57:48,621804
-2,-4,-3,-2,-15,-11,-5,-3,2021-08-06 13:57:48,621804
1,2,8,13,3,-4,-2,-1,2021-08-06 13:57:48,670806
4,6,10,38,41,26,11,3,2021-08-06 13:57:48,686808
-4,-4,-4,1,-9,-7,-4,-4,2021-08-06 13:57:48,686808
-6,-8,-14,-48,-35,-20,-11,-7,2021-08-06 13:57:48,702806
7,9,14,23,36,23,12,10,2021-08-06 13:57:48,702806
-6,-4,-10,-1,-22,-14,-9,-5,2021-08-06 13:57:48,702806
-2,-4,-7,-13,-2,1,-1,-1,2021-08-06 13:57:48,702806
-3,-6,-6,-9,-15,-14,-5,-5,2021-08-06 13:57:48,702806
4,5,9,15,20,11,7,3,2021-08-06 13:57:48,702806
-1,2,8,9,-2,-4,-2,-2,2021-08-06 13:57:48,703805
7,7,9,37,34,20,8,4,2021-08-06 13:57:48,703805
-2,-4,-14,-32,-18,-8,-3,0,2021-08-06 13:57:48,703805
-13,-13,-7,-31,-38,-27,-17,-12,2021-08-06 13:57:48,703805
7,9,7,22,14,11,10,9,2021-08-06 13:57:48,703805
3,7,19,38,20,6,1,0,2021-08-06 13:57:48,703805
-2,-3,-2,-3,4,3,0,0,2021-08-06 13:57:48,703805
1,-2,-19,-48,-14,-1,-2,-4,2021-08-06 13:57:48,718806
-12,-16,-21,-25,-19,-15,-12,-9,2021-08-06 13:57:48,718806
-2,-2,5,18,-3,-5,-3,-1,2021-08-06 13:57:48,718806
4,7,16,38,15,11,5,3,2021-08-06 13:57:48,718806
1,3,0,3,7,4,5,2,2021-08-06 13:57:48,734807
-6,-11,-12,-47,-33,-18,-10,-6,2021-08-06 13:57:48,750804
-5,-6,-13,-17,-7,-7,-4,-3,2021-08-06 13:57:48,750804
-2,1,16,24,-14,-14,-7,-3,2021-08-06 13:57:48,750804
15,19,25,77,66,39,22,17,2021-08-06 13:57:48,766805
-1,-5,-20,-54,-14,-3,-3,-3,2021-08-06 13:57:48,766805
-3,-5,-8,-27,-9,-2,-1,-1,2021-08-06 13:57:48,766805
-3,-2,-2,-7,-9,-8,-5,-3,2021-08-06 13:57:48,766805
-12,-14,-7,-19,-52,-32,-17,-10,2021-08-06 13:57:48,766805
12,15,17,52,57,32,19,12,2021-08-06 13:57:48,766805
-1,-2,0,-5,2,4,1,-1,2021-08-06 13:57:48,782805
-1,-4,-11,-14,-1,-1,0,-2,2021-08-06 13:57:48,782805
-2,-1,6,12,3,0,0,0,2021-08-06 13:57:48,798806
-4,-6,-7,-17,-23,-13,-10,-5,2021-08-06 13:57:48,814804
-3,-4,-12,-35,-21,-9,-5,-3,2021-08-06 13:57:48,830804
2,5,6,19,10,6,3,3,2021-08-06 13:57:48,830804
-2,0,-2,-3,-10,-2,-1,-2,2021-08-06 13:57:48,830804
-6,-5,10,18,12,2,-1,-3,2021-08-06 13:57:48,830804
4,5,1,14,3,2,1,2,2021-08-06 13:57:48,830804
-7,-11,-29,-43,-26,-17,-9,-5,2021-08-06 13:57:48,830804
-2,-5,-5,-13,-13,-4,-1,-2,2021-08-06 13:57:48,830804
9,13,15,27,30,17,10,6,2021-08-06 13:57:48,831806
-1,1,8,17,2,0,-1,0,2021-08-06 13:57:48,845804
-2,0,4,-2,-13,-9,-6,-3,2021-08-06 13:57:48,861804
-2,-5,-8,4,5,3,0,-2,2021-08-06 13:57:48,876804
-6,-8,-13,-44,-26,-12,-5,-2,2021-08-06 13:57:48,876804
-1,-3,-2,-6,4,-1,-1,-1,2021-08-06 13:57:48,876804
1,3,3,-11,1,1,1,1,2021-08-06 13:57:48,876804
-1,-2,-5,10,13,5,1,-1,2021-08-06 13:57:48,876804
1,2,4,22,4,-2,-1,1,2021-08-06 13:57:48,876804
3,3,3,11,-3,-2,0,1,2021-08-06 13:57:48,876804
2,1,1,-19,-1,2,1,1,2021-08-06 13:57:48,877807
-5,-4,-2,-15,-19,-12,-8,-6,2021-08-06 13:57:48,908804
5,9,27,48,45,24,11,6,2021-08-06 13:57:48,924805
6,1,-18,-5,-5,1,4,4,2021-08-06 13:57:48,940805
2,-2,-14,-5,22,16,6,1,2021-08-06 13:57:48,940805
-6,-4,-4,-25,-24,-16,-10,-5,2021-08-06 13:57:48,940805
-9,-8,-18,-9,-29,-22,-11,-6,2021-08-06 13:57:48,940805
2,5,22,0,14,13,7,3,2021-08-06 13:57:48,940805
-2,-1,4,30,7,3,-1,-1,2021-08-06 13:57:48,940805
3,3,-2,0,21,9,5,4,2021-08-06 13:57:48,940805
-10,-11,-11,-26,-30,-17,-11,-8,2021-08-06 13:57:48,940805
3,4,7,16,2,2,0,2,2021-08-06 13:57:48,941806
-3,-1,2,-9,-9,-7,-3,-2,2021-08-06 13:57:48,941806
2,0,4,13,6,4,1,6,2021-08-06 13:57:48,972805
-3,-3,-3,16,0,-2,-3,-3,2021-08-06 13:57:48,972805
5,4,1,-22,11,12,8,6,2021-08-06 13:57:48,972805
-2,-1,5,15,4,0,-1,-3,2021-08-06 13:57:48,972805
1,1,7,21,9,0,-2,-3,2021-08-06 13:57:48,972805
1,-2,-16,-37,-26,-11,-4,-2,2021-08-06 13:57:48,972805
-11,-18,-26,-60,-46,-24,-13,-8,2021-08-06 13:57:48,972805
6,5,17,51,68,31,13,8,2021-08-06 13:57:48,973808
3,4,5,19,18,9,8,4,2021-08-06 13:57:49,004804
-4,0,-1,-11,-20,-7,-3,-3,2021-08-06 13:57:49,004804
-7,-6,-2,-22,-18,-13,-11,-8,2021-08-06 13:57:49,004804
0,-1,1,3,5,4,0,-2,2021-08-06 13:57:49,004804
3,1,-9,18,32,17,6,1,2021-08-06 13:57:49,020806
3,3,12,15,10,1,0,0,2021-08-06 13:57:49,020806
1,5,11,29,-1,-3,0,1,2021-08-06 13:57:49,020806
3,5,2,5,-2,3,5,4,2021-08-06 13:57:49,020806
-6,-7,-5,-37,-14,-9,-6,-5,2021-08-06 13:57:49,036805
-3,-6,-6,-21,-11,-5,-4,-2,2021-08-06 13:57:49,036805
5,6,2,31,19,8,4,3,2021-08-06 13:57:49,036805
-6,-7,-17,-46,-27,-11,-5,-4,2021-08-06 13:57:49,036805
-4,-5,-10,-21,-23,-12,-6,-5,2021-08-06 13:57:49,066804
3,0,0,-9,-12,-4,1,0,2021-08-06 13:57:49,066804
-2,0,12,30,8,-4,-3,-1,2021-08-06 13:57:49,066804
3,5,16,45,12,4,1,2,2021-08-06 13:57:49,066804
0,-1,-9,-6,-3,2,1,-2,2021-08-06 13:57:49,082806
1,-2,-11,-45,-1,4,1,1,2021-08-06 13:57:49,082806
-5,-2,-1,11,5,-1,-2,-2,2021-08-06 13:57:49,082806
1,3,7,8,-2,0,-1,0,2021-08-06 13:57:49,082806
-3,-3,-11,-16,-10,-8,-3,-3,2021-08-06 13:57:49,098806
-4,-4,2,19,-4,-4,-4,-4,2021-08-06 13:57:49,114804
-1,-1,-7,-20,-3,0,1,0,2021-08-06 13:57:49,114804
-1,-1,4,-2,-7,0,1,0,2021-08-06 13:57:49,114804
10,14,28,61,59,32,17,9,2021-08-06 13:57:49,129804
0,1,-8,0,-1,-1,-2,-2,2021-08-06 13:57:49,144805
-4,-7,-11,-24,-20,-13,-7,-5,2021-08-06 13:57:49,159806
-10,-14,-13,-32,-42,-23,-14,-14,2021-08-06 13:57:49,175804
2,0,-2,-12,-2,1,1,2,2021-08-06 13:57:49,191804
2,2,3,18,10,5,4,0,2021-08-06 13:57:49,191804
-2,-1,-7,-21,-11,-2,-2,-4,2021-08-06 13:57:49,191804
-1,0,-4,5,3,0,-1,-2,2021-08-06 13:57:49,191804
-3,-2,-2,-11,-18,-10,-5,-5,2021-08-06 13:57:49,191804
0,1,6,11,15,4,0,-3,2021-08-06 13:57:49,191804
-1,-1,3,18,10,3,1,0,2021-08-06 13:57:49,191804
1,2,4,15,13,6,3,-2,2021-08-06 13:57:49,192806
4,6,6,1,-1,0,1,4,2021-08-06 13:57:49,192806
-6,-9,-15,-32,-41,-25,-11,-5,2021-08-06 13:57:49,192806
3,3,5,14,27,15,9,4,2021-08-06 13:57:49,192806
-1,1,0,17,19,9,1,2,2021-08-06 13:57:49,192806
-3,-4,-7,-18,-17,-10,-6,-2,2021-08-06 13:57:49,207805
-10,-11,-4,-41,-36,-17,-10,-6,2021-08-06 13:57:49,223805
0,-2,-14,0,6,2,3,2,2021-08-06 13:57:49,239807
9,12,21,53,53,25,14,13,2021-08-06 13:57:49,239807
-2,-1,2,4,-13,-7,-4,-3,2021-08-06 13:57:49,239807
-2,-2,-13,-28,-9,-4,-2,1,2021-08-06 13:57:49,239807
-10,-14,-10,-30,-24,-16,-12,-8,2021-08-06 13:57:49,239807
1,1,10,6,-1,0,1,2,2021-08-06 13:57:49,239807
1,3,-4,17,9,4,2,1,2021-08-06 13:57:49,239807
1,3,18,31,2,-4,-1,0,2021-08-06 13:57:49,239807
2,3,-1,-3,-7,-2,0,1,2021-08-06 13:57:49,239807
-1,-5,-22,-35,-12,-3,-1,0,2021-08-06 13:57:49,239807
-8,-8,-10,-33,-18,-13,-6,-5,2021-08-06 13:57:49,271806
0,0,1,14,13,5,1,2,2021-08-06 13:57:49,287805
5,9,21,41,16,6,4,3,2021-08-06 13:57:49,287805
2,2,3,7,-3,-1,1,0,2021-08-06 13:57:49,287805
-6,-10,-11,-35,-20,-12,-8,-6,2021-08-06 13:57:49,287805
-5,-7,-12,-7,0,2,-1,-5,2021-08-06 13:57:49,287805
6,6,10,20,25,12,6,4,2021-08-06 13:57:49,287805
-4,-4,-3,-5,-10,-5,-4,-4,2021-08-06 13:57:49,287805
2,3,5,12,15,7,3,1,2021-08-06 13:57:49,303805
-1,-1,-5,1,-2,-2,-1,0,2021-08-06 13:57:49,318804
-6,-6,-4,-5,-11,-6,-4,-4,2021-08-06 13:57:49,318804
-4,-4,-4,-15,-18,-12,-6,-4,2021-08-06 13:57:49,318804
5,3,4,17,13,7,4,5,2021-08-06 13:57:49,318804
0,-1,-6,-15,-13,-6,-3,-1,2021-08-06 13:57:49,318804
-1,-2,-5,-15,0,2,0,-2,2021-08-06 13:57:49,318804
-2,-3,-2,-11,-2,-1,-1,-3,2021-08-06 13:57:49,318804
-1,1,6,12,7,4,0,0,2021-08-06 13:57:49,344806
6,6,2,13,10,7,4,4,2021-08-06 13:57:49,344806
-1,-2,-1,-9,-11,-6,-4,-2,2021-08-06 13:57:49,363804
-2,-1,0,-1,-8,-6,-2,-3,2021-08-06 13:57:49,378804
5,5,6,15,22,13,6,3,2021-08-06 13:57:49,378804
1,1,7,19,15,6,3,-2,2021-08-06 13:57:49,378804
2,1,0,-14,-8,-1,1,2,2021-08-06 13:57:49,378804
-9,-14,-29,-52,-38,-22,-13,-8,2021-08-06 13:57:49,378804
-7,-9,-9,-21,-27,-11,-6,-5,2021-08-06 13:57:49,378804
2,3,9,31,34,17,7,5,2021-08-06 13:57:49,378804
0,0,6,19,14,8,2,-1,2021-08-06 13:57:49,379806
4,7,13,18,11,8,3,3,2021-08-06 13:57:49,379806
-6,-8,-8,-19,-24,-16,-10,-6,2021-08-06 13:57:49,409804
0,-1,-4,-8,1,1,2,2,2021-08-06 13:57:49,425805
-2,-1,0,-1,-5,-5,-1,0,2021-08-06 13:57:49,425805
-2,-2,-4,-3,-5,-3,-2,0,2021-08-06 13:57:49,425805
0,1,-2,0,-1,-2,-3,-3,2021-08-06 13:57:49,425805
0,1,5,9,17,8,3,2,2021-08-06 13:57:49,425805
-3,-3,-5,-4,-7,-4,-3,-2,2021-08-06 13:57:49,425805
3,3,1,5,8,5,2,0,2021-08-06 13:57:49,425805
-1,0,5,3,-2,0,1,0,2021-08-06 13:57:49,441804
-4,-3,-7,-12,-13,-7,-2,-3,2021-08-06 13:57:49,457805
-2,-3,-2,2,1,0,-1,-1,2021-08-06 13:57:49,473807
2,2,3,9,14,4,1,2,2021-08-06 13:57:49,473807
5,10,9,21,32,24,13,5,2021-08-06 13:57:49,473807
0,-2,-2,1,-3,-3,-1,-1,2021-08-06 13:57:49,473807
-2,-3,-5,-7,-12,-9,-6,-5,2021-08-06 13:57:49,473807
-4,-2,0,-8,-11,-6,-5,-2,2021-08-06 13:57:49,474807
-4,-6,-7,-11,-15,-11,-3,-1,2021-08-06 13:57:49,489806
-1,-3,-4,-3,-8,-3,-2,-2,2021-08-06 13:57:49,505804
7,8,5,12,23,13,6,4,2021-08-06 13:57:49,505804
0,0,4,10,6,2,3,-1,2021-08-06 13:57:49,505804
0,-3,-3,-3,-2,-1,1,0,2021-08-06 13:57:49,505804
-7,-7,-8,-9,-17,-12,-6,-5,2021-08-06 13:57:49,505804
-1,-2,-2,0,-13,-7,-4,0,2021-08-06 13:57:49,505804
0,-1,-7,-26,-14,-6,-4,-2,2021-08-06 13:57:49,505804
-4,-4,2,5,3,0,-5,-4,2021-08-06 13:57:49,521806
2,2,1,6,1,2,1,1,2021-08-06 13:57:49,537805
1,0,-2,-1,21,11,4,2,2021-08-06 13:57:49,553806
2,1,3,6,4,5,3,2,2021-08-06 13:57:49,553806
1,-3,0,-1,2,-3,-2,-1,2021-08-06 13:57:49,553806
3,4,9,15,21,10,2,2,2021-08-06 13:57:49,553806
-5,-4,-2,-2,-18,-9,-5,-4,2021-08-06 13:57:49,585805
-5,-5,-14,-17,-17,-9,-5,-4,2021-08-06 13:57:49,585805
-2,-3,-6,-19,-9,-4,-2,-2,2021-08-06 13:57:49,585805
2,1,4,10,9,7,4,2,2021-08-06 13:57:49,585805
-1,-3,-4,-5,-14,-9,-4,-3,2021-08-06 13:57:49,585805
-1,0,4,8,4,2,1,1,2021-08-06 13:57:49,585805
-3,-1,-4,1,-7,-1,0,-1,2021-08-06 13:57:49,586806
-1,-1,-6,-11,-8,-6,-4,-3,2021-08-06 13:57:49,586806
5,7,7,11,21,14,7,5,2021-08-06 13:57:49,586806
-2,-2,0,3,-3,-3,-4,-3,2021-08-06 13:57:49,586806
0,-1,0,-3,-9,-4,-2,1,2021-08-06 13:57:49,617804
3,2,5,4,11,6,5,5,2021-08-06 13:57:49,633804
-6,-7,-7,-3,-13,-11,-7,-6,2021-08-06 13:57:49,633804
6,7,6,7,15,10,6,6,2021-08-06 13:57:49,633804
0,1,2,-3,3,-1,-1,-2,2021-08-06 13:57:49,649804
-5,-4,-5,-9,-15,-9,-6,-4,2021-08-06 13:57:49,665804
0,-2,-3,14,6,1,2,2,2021-08-06 13:57:49,665804
1,-1,-3,5,5,2,2,2,2021-08-06 13:57:49,665804
-3,-4,-6,-20,-9,-5,-3,-2,2021-08-06 13:57:49,665804
-3,-6,-9,-30,-24,-12,-6,-6,2021-08-06 13:57:49,665804
-1,2,6,12,13,9,3,2,2021-08-06 13:57:49,665804
3,2,4,16,8,3,1,0,2021-08-06 13:57:49,665804
3,2,5,14,6,3,1,1,2021-08-06 13:57:49,665804
-4,-3,0,-2,-22,-17,-8,-6,2021-08-06 13:57:49,666805
7,8,8,10,19,13,9,5,2021-08-06 13:57:49,666805
-2,-3,-9,-18,-2,2,0,-1,2021-08-06 13:57:49,666805
-5,-6,-7,-9,-17,-7,-7,-5,2021-08-06 13:57:49,681805
-1,1,5,11,15,5,1,2,2021-08-06 13:57:49,696804
-5,-5,-7,-6,-10,-7,-6,-5,2021-08-06 13:57:49,701804
4,3,5,12,15,7,4,4,2021-08-06 13:57:49,701804
0,1,-1,6,-1,0,1,-3,2021-08-06 13:57:49,701804
-1,2,-1,3,7,2,1,1,2021-08-06 13:57:49,701804
-4,-5,0,-14,-17,-11,-7,-4,2021-08-06 13:57:49,711804
-3,-4,-8,-8,-16,-9,-3,-3,2021-08-06 13:57:49,711804
-2,-4,-8,-8,-8,-7,-5,-4,2021-08-06 13:57:49,727805
1,-3,-8,-12,1,4,2,1,2021-08-06 13:57:49,743805
-6,-5,-4,-10,-12,-9,-6,-3,2021-08-06 13:57:49,759804
-1,2,8,12,6,3,-1,0,2021-08-06 13:57:49,759804
1,2,5,28,16,7,4,1,2021-08-06 13:57:49,759804
-3,-2,-10,-28,-20,-7,-4,-3,2021-08-06 13:57:49,759804
-3,-6,-2,-21,-10,-6,-5,-3,2021-08-06 13:57:49,759804
-5,-5,-10,-20,-25,-13,-6,-5,2021-08-06 13:57:49,774831
10,8,8,29,34,19,11,9,2021-08-06 13:57:49,774831
1,2,8,27,17,7,1,1,2021-08-06 13:57:49,774831
-3,-3,-11,-21,-26,-11,-4,-3,2021-08-06 13:57:49,774831
-9,-10,-7,-19,-15,-11,-9,-7,2021-08-06 13:57:49,774831
0,2,3,7,19,12,5,3,2021-08-06 13:57:49,790828
5,3,1,13,18,10,5,2,2021-08-06 13:57:49,806829
2,2,4,7,2,0,2,2,2021-08-06 13:57:49,806829
-1,1,2,2,-2,-3,-3,-1,2021-08-06 13:57:49,806829
-4,-3,-4,-14,-16,-9,-5,-4,2021-08-06 13:57:49,806829
-4,-5,-2,-10,-17,-10,-7,-4,2021-08-06 13:57:49,806829
2,3,0,5,10,8,2,1,2021-08-06 13:57:49,806829
-1,-1,-1,5,4,0,1,-1,2021-08-06 13:57:49,806829
1,-1,6,-3,-2,-1,0,-1,2021-08-06 13:57:49,822828
-3,-3,-1,5,-12,-7,-4,-2,2021-08-06 13:57:49,838828
0,0,-9,-4,1,0,0,0,2021-08-06 13:57:49,854828
0,0,-3,-9,-1,0,0,1,2021-08-06 13:57:49,854828
3,2,-3,-7,0,1,0,1,2021-08-06 13:57:49,854828
-4,-5,-5,-17,-9,-7,-2,-3,2021-08-06 13:57:49,854828
-3,-4,-3,1,-11,-5,-2,-2,2021-08-06 13:57:49,854828
-2,-3,1,6,0,-2,1,-1,2021-08-06 13:57:49,854828
-3,-1,0,1,-2,-4,-2,-2,2021-08-06 13:57:49,870829
0,3,2,6,7,3,0,0,2021-08-06 13:57:49,870829
0,0,3,6,8,5,1,-1,2021-08-06 13:57:49,870829
0,0,1,-1,-4,-2,-2,-3,2021-08-06 13:57:49,870829
-1,-2,-5,-15,-18,-9,-5,-3,2021-08-06 13:57:49,886829
0,-1,-4,3,5,2,2,1,2021-08-06 13:57:49,902828
0,2,0,-4,-6,-4,-2,-1,2021-08-06 13:57:49,902828
3,2,6,18,32,16,7,4,2021-08-06 13:57:49,902828
0,-2,-3,-6,-6,-3,-1,0,2021-08-06 13:57:49,902828
-1,-1,-5,-4,-4,-4,-2,-4,2021-08-06 13:57:49,902828
-1,0,2,3,4,0,-1,2,2021-08-06 13:57:49,902828
1,0,0,-2,-1,2,3,0,2021-08-06 13:57:49,903830
0,-1,-2,10,20,8,2,2,2021-08-06 13:57:49,933829
3,4,6,10,14,10,4,1,2021-08-06 13:57:49,949828
-3,-4,-5,-5,-11,-8,-4,-3,2021-08-06 13:57:49,949828
-2,-1,-1,-7,-18,-11,-5,-2,2021-08-06 13:57:49,949828
-4,-4,-2,-5,-10,-5,-3,-3,2021-08-06 13:57:49,949828
-1,-1,0,0,-6,-3,-3,-1,2021-08-06 13:57:49,949828
0,-2,-2,-8,-2,-4,-1,-2,2021-08-06 13:57:49,949828
-1,-1,0,4,7,5,4,1,2021-08-06 13:57:49,949828
-1,-1,0,5,1,-1,-1,-1,2021-08-06 13:57:49,979830
1,1,1,2,4,4,0,2,2021-08-06 13:57:49,979830
-3,-6,-5,-15,-18,-9,-5,-4,2021-08-06 13:57:49,980050
-2,-5,-14,-20,-21,-10,-6,-3,2021-08-06 13:57:49,980050
4,8,11,21,36,19,9,4,2021-08-06 13:57:49,980050
-3,-1,2,6,-2,-1,-1,-2,2021-08-06 13:57:49,980050
3,3,4,5,10,6,1,0,2021-08-06 13:57:49,995349
0,2,2,3,-2,-3,-2,-1,2021-08-06 13:57:49,995349
-2,-2,-7,-13,-26,-15,-6,-2,2021-08-06 13:57:50,011350
1,-1,-2,-8,-6,0,2,1,2021-08-06 13:57:50,011350
1,1,2,5,13,9,3,0,2021-08-06 13:57:50,011350
-3,-4,-3,1,7,-1,-1,-1,2021-08-06 13:57:50,011350
0,0,2,7,-2,-2,-1,-2,2021-08-06 13:57:50,042349
0,-1,-1,1,-3,-3,-1,-1,2021-08-06 13:57:50,058349
-4,-5,-11,-17,-16,-10,-6,-4,2021-08-06 13:57:50,058349
-4,-2,0,-4,1,2,-2,-2,2021-08-06 13:57:50,058349
1,1,0,-5,-6,-2,-1,0,2021-08-06 13:57:50,058349
0,-1,0,-1,-2,-3,1,-1,2021-08-06 13:57:50,058349
-1,-3,-1,2,0,-2,0,-2,2021-08-06 13:57:50,058349
1,1,2,4,-5,-2,0,1,2021-08-06 13:57:50,059349
-5,-7,-3,1,13,5,1,-2,2021-08-06 13:57:50,059349
2,3,4,5,8,3,3,3,2021-08-06 13:57:50,059349
1,2,2,7,4,2,0,-1,2021-08-06 13:57:50,059349
0,-2,-1,-8,-10,-7,-1,1,2021-08-06 13:57:50,059349
-4,-3,-3,-13,-10,-4,-3,-1,2021-08-06 13:57:50,088348
2,0,1,5,6,3,1,0,2021-08-06 13:57:50,088348
-2,-3,-2,0,-9,-6,-3,-2,2021-08-06 13:57:50,089349
2,2,-2,2,21,11,4,2,2021-08-06 13:57:50,089349
-1,-2,3,-5,-12,-5,-2,-2,2021-08-06 13:57:50,105349
-2,-3,-9,-8,0,0,-3,-1,2021-08-06 13:57:50,121348
-3,-2,-3,-5,-12,-9,-4,-2,2021-08-06 13:57:50,121348
2,1,4,12,9,5,2,1,2021-08-06 13:57:50,121348
-1,0,-3,0,4,2,0,0,2021-08-06 13:57:50,121348
-3,-2,0,-6,-8,-5,-2,-2,2021-08-06 13:57:50,121348
1,2,4,6,7,6,4,1,2021-08-06 13:57:50,121348
-4,-4,-6,-7,-11,-6,-5,-4,2021-08-06 13:57:50,121348
-3,-4,-6,-14,-19,-11,-5,-4,2021-08-06 13:57:50,153352
2,2,8,19,32,13,4,2,2021-08-06 13:57:50,153352
-5,-8,-7,-3,1,1,-1,-3,2021-08-06 13:57:50,153352
5,10,10,11,8,6,4,3,2021-08-06 13:57:50,153352
2,0,0,-4,-8,-4,-1,-1,2021-08-06 13:57:50,169348
-2,-5,-7,-11,-10,-7,-4,-4,2021-08-06 13:57:50,169348
-4,-3,0,-1,-1,-2,-1,-1,2021-08-06 13:57:50,169348
-3,-5,-4,-8,-7,-5,-5,-3,2021-08-06 13:57:50,169348
0,0,2,16,14,7,2,-1,2021-08-06 13:57:50,185349
-1,-1,-3,-5,-6,-3,-3,-2,2021-08-06 13:57:50,185349
0,-2,-3,-10,-6,-1,-1,1,2021-08-06 13:57:50,185349
0,-1,0,-1,-6,-3,-1,0,2021-08-06 13:57:50,185349
-5,-6,-8,-16,-21,-12,-8,-4,2021-08-06 13:57:50,217350
2,3,6,14,21,13,6,3,2021-08-06 13:57:50,233349
0,2,2,5,1,-2,-1,-1,2021-08-06 13:57:50,249349
-1,-2,-5,-6,-8,-3,0,0,2021-08-06 13:57:50,249349
0,-2,-1,6,13,5,1,0,2021-08-06 13:57:50,249349
-4,-5,-4,-10,-14,-7,-5,-4,2021-08-06 13:57:50,249349
3,4,5,11,24,13,4,5,2021-08-06 13:57:50,249349
-1,-1,2,0,-4,-5,-4,-2,2021-08-06 13:57:50,250350
-6,-5,-8,-18,-25,-13,-6,-5,2021-08-06 13:57:50,250350
2,3,8,18,20,10,5,0,2021-08-06 13:57:50,250350
0,-1,-4,0,-2,-1,-1,-3,2021-08-06 13:57:50,250350
1,-2,-1,6,6,3,1,0,2021-08-06 13:57:50,250350
-3,-3,-9,-25,-30,-18,-9,-4,2021-08-06 13:57:50,265349
1,-3,-9,-19,-24,-8,-3,0,2021-08-06 13:57:50,281350
3,2,11,32,48,21,8,4,2021-08-06 13:57:50,313350
0,3,6,12,0,-2,-1,-1,2021-08-06 13:57:50,313350
-7,-6,-8,-32,-27,-11,-6,-6,2021-08-06 13:57:50,313350
1,-1,-10,-10,6,2,0,1,2021-08-06 13:57:50,313350
-3,-2,-3,-10,-21,-11,-4,-3,2021-08-06 13:57:50,313350
0,-1,1,10,20,8,2,1,2021-08-06 13:57:50,313350
-2,1,3,14,8,3,0,0,2021-08-06 13:57:50,314350
0,-1,-2,-6,-12,-4,-1,0,2021-08-06 13:57:50,314350
0,0,0,7,5,1,-1,-1,2021-08-06 13:57:50,314350
-2,-2,-1,-6,-11,-6,-4,-2,2021-08-06 13:57:50,314350
3,4,5,14,23,12,6,4,2021-08-06 13:57:50,329349
0,0,1,4,8,3,2,-1,2021-08-06 13:57:50,345348
0,-1,-3,-1,-4,-3,-1,-2,2021-08-06 13:57:50,361348
-2,-3,-3,-16,-22,-11,-5,-1,2021-08-06 13:57:50,361348
-1,-2,-5,-12,-15,-8,-3,-3,2021-08-06 13:57:50,361348
3,4,10,27,36,20,9,4,2021-08-06 13:57:50,361348
-1,-2,-2,-6,-9,-5,-2,0,2021-08-06 13:57:50,361348
1,1,2,3,7,5,4,0,2021-08-06 13:57:50,361348
1,1,0,2,-2,-3,-2,0,2021-08-06 13:57:50,362350
-6,-7,-8,-24,-44,-25,-12,-8,2021-08-06 13:57:50,362350
4,3,2,7,17,11,6,4,2021-08-06 13:57:50,362350
-4,-6,-3,-1,4,2,-1,-2,2021-08-06 13:57:50,362350
0,0,1,4,5,3,1,0,2021-08-06 13:57:50,393347
-5,-2,-4,-10,-19,-11,-5,-5,2021-08-06 13:57:50,409348
-1,0,-2,-5,0,1,0,0,2021-08-06 13:57:50,425348
-1,-1,-5,-6,-7,-4,0,-2,2021-08-06 13:57:50,425348
3,4,4,12,15,7,2,0,2021-08-06 13:57:50,425348
0,-2,-1,2,2,1,-2,0,2021-08-06 13:57:50,425348
-4,-5,-5,-14,-17,-10,-5,-4,2021-08-06 13:57:50,425348
2,3,4,10,17,10,5,2,2021-08-06 13:57:50,425348
0,-1,1,5,2,2,1,-1,2021-08-06 13:57:50,426351
-3,-5,-3,-7,-12,-9,-4,-3,2021-08-06 13:57:50,426351
0,-3,-7,-27,-40,-18,-6,-4,2021-08-06 13:57:50,426351
5,4,7,23,31,14,6,4,2021-08-06 13:57:50,426351
1,0,1,10,19,11,5,1,2021-08-06 13:57:50,457349
-2,-2,1,5,5,1,-1,-1,2021-08-06 13:57:50,473348
-7,-4,-8,-18,-29,-17,-9,-4,2021-08-06 13:57:50,489348
-7,-7,-9,-15,-17,-11,-8,-6,2021-08-06 13:57:50,489348
3,4,5,8,10,5,4,4,2021-08-06 13:57:50,489348
-1,-1,-2,-5,-8,-6,-3,-1,2021-08-06 13:57:50,489348
-1,-2,0,2,4,1,-1,0,2021-08-06 13:57:50,489348
-1,0,-4,-9,-7,-2,-2,-1,2021-08-06 13:57:50,489348
0,-1,2,8,14,6,1,1,2021-08-06 13:57:50,489348
0,1,2,1,-1,1,1,0,2021-08-06 13:57:50,490350
1,1,3,5,9,4,2,-1,2021-08-06 13:57:50,490350
-3,-4,-6,-3,-5,-2,-4,-3,2021-08-06 13:57:50,490350
-3,-2,-5,-3,-9,-5,-2,-3,2021-08-06 13:57:50,505347
3,4,8,13,11,5,3,2,2021-08-06 13:57:50,505347
1,0,2,-2,4,2,0,-1,2021-08-06 13:57:50,505347
-6,-6,-5,-19,-25,-17,-9,-5,2021-08-06 13:57:50,505347
-1,-4,-6,0,2,1,1,2,2021-08-06 13:57:50,537353
0,1,1,7,11,4,2,2,2021-08-06 13:57:50,553354
-1,1,4,12,6,2,-1,-1,2021-08-06 13:57:50,569353
4,4,-2,2,15,11,6,3,2021-08-06 13:57:50,569353
-8,-8,-11,-24,-24,-15,-8,-6,2021-08-06 13:57:50,569353
1,7,17,11,-2,-4,0,0,2021-08-06 13:57:50,569353
5,5,5,21,26,16,9,5,2021-08-06 13:57:50,569353
-1,-6,-10,-30,-14,-4,0,0,2021-08-06 13:57:50,585350
-7,-11,-21,-14,-8,-11,-7,-7,2021-08-06 13:57:50,585350
-3,-6,-9,-6,-1,1,-2,-3,2021-08-06 13:57:50,585350
1,5,15,16,6,0,1,1,2021-08-06 13:57:50,585350
5,6,14,23,16,12,7,3,2021-08-06 13:57:50,585350
-3,-1,1,-8,-16,-10,-5,-2,2021-08-06 13:57:50,585350
-4,-3,-5,-17,-21,-15,-10,-3,2021-08-06 13:57:50,585350
1,0,-5,4,6,3,3,3,2021-08-06 13:57:50,601350
-2,1,-1,6,4,3,0,-2,2021-08-06 13:57:50,601350
4,6,18,17,13,9,3,2,2021-08-06 13:57:50,601350
-3,-6,-7,-5,2,0,-1,-3,2021-08-06 13:57:50,601350
-1,-3,-12,-24,-24,-10,-4,0,2021-08-06 13:57:50,616349
0,-2,-4,10,22,9,2,0,2021-08-06 13:57:50,616349
1,3,2,3,-1,1,-1,1,2021-08-06 13:57:50,632349
-1,-1,-2,-3,0,1,1,-2,2021-08-06 13:57:50,648350
-2,-1,1,-3,0,-2,-2,-3,2021-08-06 13:57:50,664348
3,3,12,18,5,3,1,2,2021-08-06 13:57:50,664348
-1,0,-5,-18,-31,-17,-6,-3,2021-08-06 13:57:50,664348
1,-2,1,10,28,15,7,4,2021-08-06 13:57:50,664348
-6,-13,-22,-14,-16,-11,-5,-4,2021-08-06 13:57:50,664348
-1,-1,3,-7,-9,-3,0,0,2021-08-06 13:57:50,665349
1,4,7,11,24,13,6,3,2021-08-06 13:57:50,665349
-3,-3,-7,-10,-13,-8,-5,-4,2021-08-06 13:57:50,665349
-4,1,1,7,3,0,-2,-4,2021-08-06 13:57:50,665349
2,5,15,25,17,9,2,1,2021-08-06 13:57:50,665349
4,1,-2,-4,3,5,5,1,2021-08-06 13:57:50,696375
-9,-10,-23,-50,-39,-23,-9,-6,2021-08-06 13:57:50,712379
-1,0,-1,-3,-6,-8,-3,-1,2021-08-06 13:57:50,728375
-3,-3,-7,-9,-18,-13,-8,-3,2021-08-06 13:57:50,728375
-1,0,4,14,10,5,1,1,2021-08-06 13:57:50,728375
8,10,13,25,22,18,10,5,2021-08-06 13:57:50,728375
-1,-1,1,1,2,4,3,0,2021-08-06 13:57:50,728375
-3,-3,-6,-9,-6,-5,-2,-3,2021-08-06 13:57:50,728375
0,0,0,-1,1,-1,-1,-1,2021-08-06 13:57:50,729378
-3,-6,-4,-1,-13,-13,-6,-4,2021-08-06 13:57:50,729378
3,5,9,13,28,18,9,4,2021-08-06 13:57:50,729378
-1,0,-3,-9,-7,-6,-2,-2,2021-08-06 13:57:50,729378
-6,-10,-10,-21,-31,-21,-12,-7,2021-08-06 13:57:50,758375
6,8,13,28,32,20,8,5,2021-08-06 13:57:50,758375
0,0,-1,2,8,3,-1,-1,2021-08-06 13:57:50,758375
-4,-6,-8,-8,-10,-5,-3,-2,2021-08-06 13:57:50,758375
-1,-2,-7,-6,3,2,2,-1,2021-08-06 13:57:50,774377
-5,-5,-6,-14,-24,-16,-8,-6,2021-08-06 13:57:50,790375
0,0,2,-4,-5,-2,-1,0,2021-08-06 13:57:50,790375
-3,-2,0,5,3,-3,-4,-3,2021-08-06 13:57:50,790375
-1,2,5,14,12,8,2,2,2021-08-06 13:57:50,790375
3,2,4,8,8,7,2,2,2021-08-06 13:57:50,790375
1,-2,-4,-11,-3,-2,0,-2,2021-08-06 13:57:50,791377
-4,-6,-16,-24,-21,-12,-6,-5,2021-08-06 13:57:50,806377
-1,0,3,7,3,1,0,0,2021-08-06 13:57:50,822376
-1,-2,-1,1,7,5,2,-1,2021-08-06 13:57:50,822376
0,1,4,8,8,3,0,0,2021-08-06 13:57:50,838375
-1,-2,5,-7,-18,-11,-4,-1,2021-08-06 13:57:50,838375
0,-1,-4,3,2,2,0,2,2021-08-06 13:57:50,854375
-1,-1,-6,0,8,4,1,-1,2021-08-06 13:57:50,870376
-3,-1,-2,-5,-5,-4,-1,-3,2021-08-06 13:57:50,886376
0,-1,0,3,1,2,0,0,2021-08-06 13:57:50,886376
-3,-1,0,-3,-6,-4,-3,-1,2021-08-06 13:57:50,886376
0,4,8,12,8,6,2,0,2021-08-06 13:57:50,902376
-3,-4,-3,3,1,1,-1,-1,2021-08-06 13:57:50,902376
3,4,-2,1,1,2,3,2,2021-08-06 13:57:50,902376
2,-1,-5,-18,-10,-8,-3,-2,2021-08-06 13:57:50,902376
-5,-5,-9,-21,-22,-13,-6,-2,2021-08-06 13:57:50,902376
-4,-2,3,-6,-10,-9,-5,-2,2021-08-06 13:57:50,902376
-1,0,6,22,16,9,3,0,2021-08-06 13:57:50,902376
3,2,3,13,11,9,6,3,2021-08-06 13:57:50,902376
-1,-1,-5,-15,-12,-6,-1,-2,2021-08-06 13:57:50,902376
-1,-3,4,-1,2,1,-1,-1,2021-08-06 13:57:50,902376
-5,-8,-12,-7,-9,-6,-4,-4,2021-08-06 13:57:50,902376
2,3,0,-2,1,2,2,2,2021-08-06 13:57:50,903379
1,1,4,8,12,6,2,2,2021-08-06 13:57:50,903379
-2,-3,-10,-6,-9,-4,-4,0,2021-08-06 13:57:50,918375
-2,0,3,-2,1,0,-3,-1,2021-08-06 13:57:50,918649
-1,-1,2,6,3,1,-1,-1,2021-08-06 13:57:50,933905
-1,-3,0,0,-7,-5,-3,-3,2021-08-06 13:57:50,949909
0,-2,-2,-6,-7,-4,-1,-2,2021-08-06 13:57:50,950907
-1,-4,-5,-8,-9,-6,-5,-4,2021-08-06 13:57:50,950907
-1,-1,10,15,9,5,2,-1,2021-08-06 13:57:50,951908
-1,0,-1,15,15,7,0,1,2021-08-06 13:57:50,951908
2,2,-9,-16,2,1,2,1,2021-08-06 13:57:50,951908
-2,-2,1,-7,-4,-2,0,1,2021-08-06 13:57:50,951908
-3,-4,-6,-15,-16,-12,-7,-3,2021-08-06 13:57:50,965909
-4,-6,-6,-14,-30,-19,-9,-4,2021-08-06 13:57:50,965909
4,2,7,21,21,13,4,3,2021-08-06 13:57:50,965909
-1,0,-2,2,8,3,2,0,2021-08-06 13:57:50,980910
0,0,0,-2,0,1,0,1,2021-08-06 13:57:50,980910
-1,0,4,9,12,6,3,-1,2021-08-06 13:57:50,980910
-3,-3,-4,-6,-14,-12,-5,-3,2021-08-06 13:57:50,996901
0,1,2,1,3,1,1,2,2021-08-06 13:57:50,996901
-3,-5,-4,-7,-17,-10,-5,-5,2021-08-06 13:57:51,012901
3,1,2,7,14,8,5,4,2021-08-06 13:57:51,012901
-5,-5,-7,-19,-29,-13,-9,-6,2021-08-06 13:57:51,012901
3,5,9,20,32,16,5,2,2021-08-06 13:57:51,012901
-1,-1,-3,0,2,-1,0,-2,2021-08-06 13:57:51,028901
-2,-2,-1,-3,-3,-2,-2,0,2021-08-06 13:57:51,028901
-2,-3,-3,-12,-19,-10,-4,-3,2021-08-06 13:57:51,028901
-1,-2,-2,-1,-9,-6,-1,-2,2021-08-06 13:57:51,028901
1,0,2,6,19,12,4,2,2021-08-06 13:57:51,059901
-1,-1,-2,-4,-2,-2,-1,0,2021-08-06 13:57:51,075902
-2,-1,1,5,-3,0,-1,-1,2021-08-06 13:57:51,075902
-3,-2,-2,-4,-1,-1,-2,-1,2021-08-06 13:57:51,091900
-2,-2,-3,4,3,2,-1,-2,2021-08-06 13:57:51,107900
3,2,1,4,3,2,1,1,2021-08-06 13:57:51,123901
0,1,1,-1,1,1,-1,1,2021-08-06 13:57:51,155901
2,3,5,0,0,1,1,-1,2021-08-06 13:57:51,155901
1,4,1,0,-1,-2,0,0,2021-08-06 13:57:51,155901
-4,-9,-9,-8,-6,-4,-2,-2,2021-08-06 13:57:51,155901
-2,-5,-6,-4,-3,-5,-1,-2,2021-08-06 13:57:51,156471
-1,-3,-3,-4,-6,-1,-2,-3,2021-08-06 13:57:51,156471
1,0,3,-1,1,2,-1,2,2021-08-06 13:57:51,156471
1,4,5,8,8,4,2,0,2021-08-06 13:57:51,156902
0,-3,-3,3,5,0,1,0,2021-08-06 13:57:51,156902
1,0,0,-1,0,1,1,0,2021-08-06 13:57:51,156902
-1,-2,-1,2,1,1,0,-1,2021-08-06 13:57:51,156902
-2,0,-1,1,2,1,-1,-1,2021-08-06 13:57:51,156902
-2,-1,-3,-6,-13,-10,-6,-3,2021-08-06 13:57:51,156902
-3,-3,-5,-7,-13,-10,-4,-4,2021-08-06 13:57:51,156902
4,3,8,28,36,20,7,4,2021-08-06 13:57:51,157902
1,-1,1,-6,-3,0,1,0,2021-08-06 13:57:51,157902
-7,-9,-17,-25,-20,-14,-7,-5,2021-08-06 13:57:51,171921
0,1,-3,-9,-15,-9,-2,0,2021-08-06 13:57:51,171921
0,0,0,-9,-12,-8,-2,-1,2021-08-06 13:57:51,171921
2,5,10,17,13,8,2,0,2021-08-06 13:57:51,171921
2,4,13,16,18,12,5,2,2021-08-06 13:57:51,172923
-4,-8,-12,-11,-10,-7,-5,-2,2021-08-06 13:57:51,172923
-3,-5,-6,-8,-7,-4,-3,-2,2021-08-06 13:57:51,187923
-1,-1,4,4,-4,-5,-3,0,2021-08-06 13:57:51,187923
0,2,3,11,8,2,1,1,2021-08-06 13:57:51,203923
-1,0,-2,-14,-1,2,1,-1,2021-08-06 13:57:51,203923
-1,0,0,-3,4,2,0,0,2021-08-06 13:57:51,219922
-4,-2,-5,-8,-13,-6,-4,-3,2021-08-06 13:57:51,219922
3,5,9,20,29,19,8,4,2021-08-06 13:57:51,219922
-4,-5,-5,-10,-26,-18,-9,-5,2021-08-06 13:57:51,219922
-2,-2,-2,0,3,1,0,-1,2021-08-06 13:57:51,219922
1,0,-2,2,1,-1,0,0,2021-08-06 13:57:51,219922
0,0,0,2,6,3,1,-1,2021-08-06 13:57:51,235924
1,3,4,8,10,5,2,3,2021-08-06 13:57:51,235924
-3,-4,-4,-11,-15,-10,-4,-5,2021-08-06 13:57:51,251921
-2,-3,-5,-7,-5,-1,-2,-2,2021-08-06 13:57:51,251921
-1,0,3,2,0,0,-1,-1,2021-08-06 13:57:51,251921
1,0,-2,-3,-7,-3,-1,0,2021-08-06 13:57:51,251921
-3,-2,0,1,3,0,0,-2,2021-08-06 13:57:51,267970
1,1,4,7,7,5,1,0,2021-08-06 13:57:51,267970
2,3,-4,-4,-3,0,0,0,2021-08-06 13:57:51,267970
-7,-9,-18,-15,-14,-9,-7,-4,2021-08-06 13:57:51,267970
0,-2,0,-5,-2,0,0,1,2021-08-06 13:57:51,299964
0,0,3,6,7,4,1,0,2021-08-06 13:57:51,299964
-1,1,1,-5,-1,0,-1,-1,2021-08-06 13:57:51,299964
0,-2,4,3,10,5,2,0,2021-08-06 13:57:51,299964
-1,1,-2,-6,-11,-5,-3,-3,2021-08-06 13:57:51,315921
0,-2,-4,-6,-6,-4,-1,-2,2021-08-06 13:57:51,331924
1,-2,0,4,3,2,0,0,2021-08-06 13:57:51,331924
-2,-1,2,2,1,0,-1,-2,2021-08-06 13:57:51,331924
-1,-3,-3,-3,-8,-5,-4,-2,2021-08-06 13:57:51,331924
0,0,1,-1,-1,-2,0,-2,2021-08-06 13:57:51,331924
-1,-3,-3,7,6,3,-1,0,2021-08-06 13:57:51,331924
-1,1,2,4,7,4,1,-1,2021-08-06 13:57:51,331924
1,0,0,-3,-5,-5,-2,-2,2021-08-06 13:57:51,347921
-2,-1,-4,-3,-5,-3,0,0,2021-08-06 13:57:51,347921
-1,-2,-3,-3,-3,-3,-2,0,2021-08-06 13:57:51,347921
1,0,5,6,8,5,2,1,2021-08-06 13:57:51,347921
-4,-4,-5,-7,-11,-7,-3,-3,2021-08-06 13:57:51,377921
0,-1,1,6,19,10,4,3,2021-08-06 13:57:51,379179
-3,-2,-1,1,1,-1,-1,-2,2021-08-06 13:57:51,379179
2,3,5,9,2,3,1,3,2021-08-06 13:57:51,379179
0,-2,-6,-7,-8,-5,-3,-1,2021-08-06 13:57:51,394438
-5,-7,-12,-19,-21,-13,-8,-6,2021-08-06 13:57:51,410438
1,1,2,5,5,3,3,0,2021-08-06 13:57:51,426437
4,5,3,7,7,3,4,1,2021-08-06 13:57:51,426437
-2,-2,1,0,-1,-1,-1,0,2021-08-06 13:57:51,426437
-3,-2,-6,-9,-12,-7,-5,-3,2021-08-06 13:57:51,426437
-4,-3,-2,-4,-6,-2,-4,-3,2021-08-06 13:57:51,442439
0,-2,-2,-4,-6,-4,0,-3,2021-08-06 13:57:51,442439
0,-1,1,8,10,6,4,3,2021-08-06 13:57:51,442439
-2,-2,-2,-6,-11,-6,-3,0,2021-08-06 13:57:51,442439
0,0,4,8,7,1,1,-1,2021-08-06 13:57:51,442439
-2,0,1,1,13,6,0,-1,2021-08-06 13:57:51,442439
-2,-1,-1,-2,0,-1,-2,-1,2021-08-06 13:57:51,472442
-1,0,0,-2,-4,-4,-1,1,2021-08-06 13:57:51,472442
-1,-2,-2,-10,-18,-11,-5,-3,2021-08-06 13:57:51,488441
1,2,1,3,1,1,2,1,2021-08-06 13:57:51,488441
1,2,1,6,9,6,1,-1,2021-08-06 13:57:51,488441
0,-3,-2,-3,-1,1,-2,0,2021-08-06 13:57:51,488441
-3,-4,-6,-12,-13,-10,-4,-2,2021-08-06 13:57:51,488441
1,2,3,8,10,6,4,2,2021-08-06 13:57:51,488441
0,-1,1,2,0,1,1,-1,2021-08-06 13:57:51,488441
-4,-5,-4,-5,-8,-6,-2,-3,2021-08-06 13:57:51,488441
3,4,3,3,4,4,2,2,2021-08-06 13:57:51,489444
-2,-3,-2,-6,-5,-4,-3,0,2021-08-06 13:57:51,489444
0,2,0,1,1,1,0,1,2021-08-06 13:57:51,520445
-1,3,-1,0,-3,-2,-2,-1,2021-08-06 13:57:51,520445
-2,-1,-2,-3,3,0,-2,-2,2021-08-06 13:57:51,520445
0,0,0,1,2,0,-2,-2,2021-08-06 13:57:51,520445
-1,-1,-2,-1,-2,-2,-1,1,2021-08-06 13:57:51,520445
-3,-4,-1,-7,-10,-9,-4,-3,2021-08-06 13:57:51,520445
-4,-3,-3,-7,-4,-3,-2,-2,2021-08-06 13:57:51,536445
1,-1,-2,11,12,10,3,0,2021-08-06 13:57:51,552446
0,0,-2,2,7,1,1,-1,2021-08-06 13:57:51,552446
2,0,1,2,2,0,-1,0,2021-08-06 13:57:51,552446
-1,0,1,-1,-3,-2,0,0,2021-08-06 13:57:51,552446
-5,-5,-3,-10,-16,-12,-6,-4,2021-08-06 13:57:51,552446
3,3,0,0,-1,0,1,2,2021-08-06 13:57:51,584440
0,0,0,-2,-1,2,0,-1,2021-08-06 13:57:51,584440
2,0,1,5,2,1,1,2,2021-08-06 13:57:51,584440
-3,-2,-5,-5,-4,-3,-2,-2,2021-08-06 13:57:51,584440
-2,-2,-3,-2,-3,-2,-2,-3,2021-08-06 13:57:51,584440
-1,-1,0,-1,-3,-1,1,0,2021-08-06 13:57:51,584440
-1,0,-2,0,-1,1,-1,-2,2021-08-06 13:57:51,600474
0,0,1,6,7,3,2,1,2021-08-06 13:57:51,600474
-1,-1,-2,-5,-6,-4,-3,-2,2021-08-06 13:57:51,616437
-2,-1,-3,-2,-1,-1,1,-1,2021-08-06 13:57:51,616437
-2,-1,-2,2,2,3,2,-1,2021-08-06 13:57:51,616437
-2,-3,-4,-7,-10,-6,-5,-1,2021-08-06 13:57:51,616437
1,1,1,4,6,4,-1,-1,2021-08-06 13:57:51,632438
-2,-1,-2,1,2,-1,0,0,2021-08-06 13:57:51,632438
0,0,-2,-2,1,1,-2,1,2021-08-06 13:57:51,632438
-1,-1,0,-1,-4,-2,-1,1,2021-08-06 13:57:51,632438
0,0,1,-3,-3,-3,-1,-1,2021-08-06 13:57:51,647437
-1,0,2,2,4,2,0,0,2021-08-06 13:57:51,647437
-2,-2,-1,-2,-5,-4,-1,-2,2021-08-06 13:57:51,647437
-4,-3,-5,-8,-13,-8,-4,-4,2021-08-06 13:57:51,647437
-2,-2,-2,0,6,3,2,0,2021-08-06 13:57:51,678437
3,0,3,3,7,4,2,2,2021-08-06 13:57:51,678437
-3,-3,-3,-5,-5,-5,-3,-3,2021-08-06 13:57:51,678437
0,2,3,1,0,0,-1,1,2021-08-06 13:57:51,678437
-4,-1,-3,-1,-7,-4,-2,-2,2021-08-06 13:57:51,693439
-1,-3,-3,-6,-3,-4,-2,-1,2021-08-06 13:57:51,693439
0,0,-1,1,1,0,2,0,2021-08-06 13:57:51,693439
-1,-3,-4,-4,-6,-2,-4,-2,2021-08-06 13:57:51,693439
1,-2,0,-3,-2,-1,-1,-1,2021-08-06 13:57:51,709437
0,2,2,3,2,2,0,0,2021-08-06 13:57:51,724439
-2,-3,-3,-4,-5,-4,-2,-2,2021-08-06 13:57:51,754437
-1,-2,0,1,2,1,1,0,2021-08-06 13:57:51,754437
-3,-2,-3,-6,-6,-3,-2,0,2021-08-06 13:57:51,754437
3,5,4,10,13,9,3,3,2021-08-06 13:57:51,754437
1,-1,-2,-3,-4,0,-2,0,2021-08-06 13:57:51,754437
0,0,-1,2,1,-1,-2,-1,2021-08-06 13:57:51,754437
0,-2,-2,-10,-14,-9,-3,-1,2021-08-06 13:57:51,754437
-1,-3,-2,-5,-2,-1,-1,-2,2021-08-06 13:57:51,754437
0,1,1,6,8,7,3,-2,2021-08-06 13:57:51,754437
0,0,-2,-2,-3,-3,0,-2,2021-08-06 13:57:51,754437
0,2,5,8,9,7,3,1,2021-08-06 13:57:51,769438
-2,-3,-4,-7,-12,-9,-5,-3,2021-08-06 13:57:51,769438
0,0,-1,-5,-3,-1,-2,1,2021-08-06 13:57:51,769438
2,1,4,9,14,8,4,3,2021-08-06 13:57:51,769438
-2,-4,-2,-4,-7,-3,0,-2,2021-08-06 13:57:51,795440
-2,1,0,0,1,-2,-4,-4,2021-08-06 13:57:51,796439
-1,0,-1,0,-2,-2,-1,-2,2021-08-06 13:57:51,796439
-2,-2,-4,-6,-7,-5,-3,-2,2021-08-06 13:57:51,796439
0,-1,0,0,5,2,-1,1,2021-08-06 13:57:51,817439
0,1,1,1,-1,1,1,0,2021-08-06 13:57:51,833438
0,0,-1,-1,0,0,-2,0,2021-08-06 13:57:51,833438
-1,0,-3,-5,-1,-1,0,0,2021-08-06 13:57:51,833438
-2,-1,-1,4,2,0,0,-2,2021-08-06 13:57:51,833438
-3,-4,-5,-5,-7,-4,-3,-4,2021-08-06 13:57:51,833438
0,-1,3,3,2,0,0,0,2021-08-06 13:57:51,833438
0,0,1,1,4,5,0,0,2021-08-06 13:57:51,833438
-1,-1,-2,0,3,0,-1,-1,2021-08-06 13:57:51,849437
-2,-1,0,1,2,1,0,2,2021-08-06 13:57:51,849437
-1,-2,1,0,-2,-2,-1,-1,2021-08-06 13:57:51,849437
-1,0,0,-3,-3,-2,-1,-2,2021-08-06 13:57:51,849437
-2,-2,0,1,1,-1,-3,-3,2021-08-06 13:57:51,880437
1,0,-3,-3,-2,-1,-1,-2,2021-08-06 13:57:51,895438
2,1,-1,-1,-2,-1,0,0,2021-08-06 13:57:51,911438
0,0,0,1,5,1,3,0,2021-08-06 13:57:51,911438
-1,-1,-3,-4,-7,-4,-3,-1,2021-08-06 13:57:51,911438
1,0,0,3,4,2,1,1,2021-08-06 13:57:51,911438
-3,-2,-2,0,-1,0,-2,0,2021-08-06 13:57:51,911438
-2,-1,-3,-6,-5,-3,-3,-3,2021-08-06 13:57:51,911438
-1,0,0,-2,-3,-2,-2,1,2021-08-06 13:57:51,912441
-1,-1,-1,1,2,1,0,0,2021-08-06 13:57:51,912441
-3,-4,-1,0,-2,-3,-3,-1,2021-08-06 13:57:51,927439
-1,-1,-1,-3,-7,-3,-3,-1,2021-08-06 13:57:51,927439
1,5,5,5,6,4,3,2,2021-08-06 13:57:51,927439
-1,-1,-1,0,-2,0,1,1,2021-08-06 13:57:51,927439
-2,-3,-4,-5,-1,-1,-3,-4,2021-08-06 13:57:51,943437
-2,-2,-2,-3,-3,-4,-3,-2,2021-08-06 13:57:51,943437
2,1,0,0,0,1,2,0,2021-08-06 13:57:51,943437
2,2,3,4,7,4,4,2,2021-08-06 13:57:51,943437
0,2,3,3,2,2,0,2,2021-08-06 13:57:51,958439
-4,-3,-2,-2,-4,-3,-2,-1,2021-08-06 13:57:51,958439
-1,-3,-4,-5,-8,-4,-3,-2,2021-08-06 13:57:51,974438
-2,-2,-4,-5,-6,-4,-2,-2,2021-08-06 13:57:51,974438
-1,1,0,1,2,0,0,-2,2021-08-06 13:57:51,974438
1,0,2,-1,-4,-1,0,0,2021-08-06 13:57:51,974438
-2,-1,-1,-1,0,-2,-2,-1,2021-08-06 13:57:52,005438
-1,1,1,4,3,3,0,-1,2021-08-06 13:57:52,005438
-1,-1,-2,-6,-6,-3,-1,0,2021-08-06 13:57:52,005438
0,2,3,6,4,2,1,-1,2021-08-06 13:57:52,005438
-2,-1,-3,-2,-4,-3,0,0,2021-08-06 13:57:52,005438
-1,-1,-2,-6,-9,-6,-3,-1,2021-08-06 13:57:52,005438
0,0,0,2,0,2,1,-1,2021-08-06 13:57:52,021442
-1,0,-2,0,3,0,-1,-1,2021-08-06 13:57:52,021442
0,0,-2,-2,-1,0,0,1,2021-08-06 13:57:52,037443
0,-1,-3,-5,-2,0,-2,0,2021-08-06 13:57:52,037443
-1,0,-1,1,2,2,0,0,2021-08-06 13:57:52,037443
0,0,-1,-2,-3,-2,-1,-1,2021-08-06 13:57:52,037443
-2,-1,0,3,2,2,-1,-1,2021-08-06 13:57:52,069441
-2,-2,-3,-2,-7,-5,-2,-2,2021-08-06 13:57:52,069441
-4,-4,-7,-9,-11,-7,-5,-2,2021-08-06 13:57:52,069441
4,4,8,14,19,13,6,1,2021-08-06 13:57:52,069441
0,-3,-3,-8,-13,-9,-4,-2,2021-08-06 13:57:52,069441
1,1,1,9,15,8,3,2,2021-08-06 13:57:52,069441
-3,-1,-1,-1,1,-2,-3,-2,2021-08-06 13:57:52,085439
-1,-3,-4,-5,-8,-5,-2,-2,2021-08-06 13:57:52,085439
0,0,-1,5,11,6,4,-1,2021-08-06 13:57:52,085439
-1,-2,-1,-2,-3,-4,-4,-1,2021-08-06 13:57:52,085439
-3,-3,-1,-1,-1,-1,0,-2,2021-08-06 13:57:52,085439
-2,-2,-2,-4,-6,-3,-3,0,2021-08-06 13:57:52,085439
-1,-1,0,-2,-5,-4,-3,-2,2021-08-06 13:57:52,116443
-2,-3,-4,-4,-3,-3,1,-2,2021-08-06 13:57:52,116443
2,2,1,0,1,1,1,1,2021-08-06 13:57:52,116443
-2,-1,-3,-2,-2,-2,-2,-3,2021-08-06 13:57:52,116443
-2,-2,-1,-3,-7,-2,-3,-1,2021-08-06 13:57:52,132443
0,0,1,-1,4,2,1,0,2021-08-06 13:57:52,148441
1,-1,2,4,1,1,0,0,2021-08-06 13:57:52,164440
0,-2,-1,0,-4,0,-1,1,2021-08-06 13:57:52,164440
-1,1,1,0,3,2,-1,0,2021-08-06 13:57:52,164440
-2,-1,-3,-5,-8,-4,-3,-3,2021-08-06 13:57:52,164440
-1,0,-2,0,-2,-2,-1,-1,2021-08-06 13:57:52,164440
-2,-2,-3,-1,-2,-1,-2,-1,2021-08-06 13:57:52,164440
1,-2,-4,-4,-4,-3,-2,-1,2021-08-06 13:57:52,180439
0,-1,3,5,6,3,0,0,2021-08-06 13:57:52,195439
0,-1,-2,-6,-6,-3,0,-2,2021-08-06 13:57:52,202441
0,2,1,4,5,1,0,-1,2021-08-06 13:57:52,203439
-2,-1,-1,-2,0,-1,-2,0,2021-08-06 13:57:52,203439
-1,-1,-2,-2,-4,-1,-2,0,2021-08-06 13:57:52,203439
0,-1,-1,1,0,-1,1,0,2021-08-06 13:57:52,203439
-1,-1,-2,-4,-4,-3,-1,0,2021-08-06 13:57:52,203439
-1,-1,-1,0,0,0,0,-3,2021-08-06 13:57:52,203439
-2,1,2,1,0,0,0,-1,2021-08-06 13:57:52,204440
-2,-3,-3,0,-2,-2,-2,-1,2021-08-06 13:57:52,227439
-1,-5,-5,-5,-2,-1,0,-1,2021-08-06 13:57:52,227439
-1,-1,2,6,3,2,1,0,2021-08-06 13:57:52,227439
0,0,10,23,5,2,0,0,2021-08-06 13:57:52,243439
6,9,21,48,21,10,4,3,2021-08-06 13:57:52,243439
0,9,-10,-57,-12,-1,-1,-1,2021-08-06 13:57:52,243439
-11,-19,-40,-51,-32,-17,-8,-9,2021-08-06 13:57:52,274439
-2,-8,2,6,5,0,0,-4,2021-08-06 13:57:52,274439
-1,-1,2,12,8,5,0,1,2021-08-06 13:57:52,274439
0,-1,2,-5,-2,0,1,0,2021-08-06 13:57:52,274439
-5,2,4,-5,-18,-12,-8,-5,2021-08-06 13:57:52,274439
-1,3,-2,-6,-7,-4,-1,-1,2021-08-06 13:57:52,274439
1,-1,3,10,0,-2,0,-2,2021-08-06 13:57:52,290476
5,5,10,34,27,16,8,3,2021-08-06 13:57:52,290476
4,4,0,6,11,7,3,2,2021-08-06 13:57:52,290476
-3,-4,-4,-5,-5,-3,-2,0,2021-08-06 13:57:52,290476
0,1,-1,-5,6,2,1,0,2021-08-06 13:57:52,290476
-2,-1,-5,-7,-10,-6,-3,0,2021-08-06 13:57:52,290476
0,-2,5,10,9,3,0,1,2021-08-06 13:57:52,322438
-2,1,1,2,-1,-1,-1,0,2021-08-06 13:57:52,322438
-5,-5,-6,-21,-10,-5,-4,-3,2021-08-06 13:57:52,322438
-2,-5,-4,-1,-11,-10,-4,-4,2021-08-06 13:57:52,322438
3,0,7,9,4,3,1,1,2021-08-06 13:57:52,322438
1,3,-2,-8,-1,0,-1,-1,2021-08-06 13:57:52,322438
-2,-1,-9,-20,-9,-5,-3,-3,2021-08-06 13:57:52,338438
-2,-5,0,13,2,-2,-2,-2,2021-08-06 13:57:52,338438
2,6,8,10,6,5,3,2,2021-08-06 13:57:52,354437
-1,-1,-7,-13,-7,-3,-3,-2,2021-08-06 13:57:52,370440
-2,-2,-5,-10,-8,-4,-2,-1,2021-08-06 13:57:52,386439
-2,-3,2,9,1,-3,-2,-2,2021-08-06 13:57:52,386439
-1,2,4,4,4,3,-1,1,2021-08-06 13:57:52,386439
-1,-3,-6,-9,-8,-5,-2,-2,2021-08-06 13:57:52,386439
-2,-1,1,2,7,3,1,0,2021-08-06 13:57:52,386439
-2,0,2,2,-1,-2,-2,-2,2021-08-06 13:57:52,386439
-1,-2,0,2,5,1,3,-1,2021-08-06 13:57:52,386439
-1,-1,-3,-1,-3,-3,-1,0,2021-08-06 13:57:52,386439
-1,0,-4,-5,-7,-4,-3,-1,2021-08-06 13:57:52,418437
-2,-1,-2,-4,1,-1,-1,-1,2021-08-06 13:57:52,418437
0,3,5,11,12,4,2,-1,2021-08-06 13:57:52,418437
0,0,-4,2,1,2,-2,0,2021-08-06 13:57:52,418437
-3,-2,-3,-8,-7,-3,-1,-2,2021-08-06 13:57:52,418437
-3,-3,-2,-5,-11,-7,-1,-2,2021-08-06 13:57:52,418437
1,-1,2,4,7,3,0,1,2021-08-06 13:57:52,433437
0,-1,1,2,4,2,1,-1,2021-08-06 13:57:52,433437
-1,0,-2,-6,-6,-4,-2,-1,2021-08-06 13:57:52,433437
-3,-1,-1,1,-2,0,-2,-3,2021-08-06 13:57:52,433437
1,0,1,1,1,1,1,0,2021-08-06 13:57:52,449438
-1,0,0,-1,-2,-1,-1,0,2021-08-06 13:57:52,449438
-1,-3,-3,-3,0,-2,0,-2,2021-08-06 13:57:52,449438
0,-1,1,4,0,0,-1,1,2021-08-06 13:57:52,449438
-2,-2,-5,-3,-4,-3,-1,-1,2021-08-06 13:57:52,481438
-2,-3,-3,-5,-3,-2,-3,-2,2021-08-06 13:57:52,497438
2,1,1,0,-1,-1,0,1,2021-08-06 13:57:52,513437
-3,1,0,3,3,2,-1,0,2021-08-06 13:57:52,529437
-2,-1,-2,-3,-5,-3,-2,-1,2021-08-06 13:57:52,529437
-1,-2,-1,-2,-2,-2,-2,-2,2021-08-06 13:57:52,529437
-3,-2,-1,-3,-3,-1,-2,-1,2021-08-06 13:57:52,529437
0,-1,-1,-2,-3,-3,-1,-3,2021-08-06 13:57:52,529437
-1,0,1,1,4,3,-1,1,2021-08-06 13:57:52,529437
-2,0,0,-1,-2,-1,-1,-1,2021-08-06 13:57:52,529437
-2,-3,-2,-3,-4,-2,-1,-2,2021-08-06 13:57:52,530439
1,0,-1,1,3,0,0,-2,2021-08-06 13:57:52,530439
-1,-3,-5,-9,-13,-7,-3,-3,2021-08-06 13:57:52,530439
0,1,3,7,14,7,2,0,2021-08-06 13:57:52,530439
1,-1,0,0,0,1,0,-2,2021-08-06 13:57:52,530439
0,-2,-1,-1,-2,0,-1,0,2021-08-06 13:57:52,530439
0,-1,-2,-2,-3,-2,-2,-1,2021-08-06 13:57:52,561438
-1,-1,0,-3,-7,-4,-2,-2,2021-08-06 13:57:52,561438
-1,0,-1,-1,-2,-1,-1,0,2021-08-06 13:57:52,561438
0,-2,1,1,2,0,0,0,2021-08-06 13:57:52,561438
0,-1,-1,-2,-3,-3,-1,-1,2021-08-06 13:57:52,561438
0,-2,-2,-1,0,0,0,-2,2021-08-06 13:57:52,561438
1,0,0,2,1,1,0,2,2021-08-06 13:57:52,577439
-2,0,0,-1,-2,-1,0,-2,2021-08-06 13:57:52,586439
0,1,-1,-2,-3,-2,1,0,2021-08-06 13:57:52,586439
-3,-1,-1,-2,-3,-3,-2,0,2021-08-06 13:57:52,587438
1,0,1,6,8,2,0,-1,2021-08-06 13:57:52,587438
0,0,-3,-3,-1,1,0,0,2021-08-06 13:57:52,587438
-2,-2,-4,-2,-8,-6,-4,-2,2021-08-06 13:57:52,607439
2,1,-1,1,3,3,1,1,2021-08-06 13:57:52,623439
-1,-2,0,1,7,4,0,-1,2021-08-06 13:57:52,623439
-1,-2,1,3,2,-2,-1,0,2021-08-06 13:57:52,623439
1,0,2,1,1,0,0,-2,2021-08-06 13:57:52,655438
-1,-1,-2,-8,-9,-5,-3,0,2021-08-06 13:57:52,655438
-2,-3,-4,-7,-8,-5,-3,-2,2021-08-06 13:57:52,655438
-1,-1,-3,-1,-4,-3,-2,-1,2021-08-06 13:57:52,655438
0,2,4,9,17,8,1,1,2021-08-06 13:57:52,655438
1,0,1,-1,1,1,-2,2,2021-08-06 13:57:52,655438
-1,-1,1,-1,0,-2,0,-1,2021-08-06 13:57:52,655438
-1,-2,-2,-4,-8,-5,-3,-1,2021-08-06 13:57:52,655438
-2,0,-2,-4,-7,-5,-2,0,2021-08-06 13:57:52,686440
0,-2,-1,-2,1,0,0,-2,2021-08-06 13:57:52,702446
0,0,-3,-4,-8,-1,5,1,2021-08-06 13:57:52,718445
2,-1,-2,3,13,13,6,3,2021-08-06 13:57:52,734444
-3,-2,0,-1,-3,-9,-9,-6,2021-08-06 13:57:52,749444
-3,0,0,1,1,2,3,-1,2021-08-06 13:57:52,749444
0,-2,-1,-3,-5,2,1,1,2021-08-06 13:57:52,749444
5,3,1,-2,-1,7,9,4,2021-08-06 13:57:52,749444
0,0,-1,-2,-5,-6,-10,-4,2021-08-06 13:57:52,749444
-23,-17,-13,-15,-20,-44,-40,-28,2021-08-06 13:57:52,749444
-3,-2,-2,1,2,-2,-6,-4,2021-08-06 13:57:52,750447
-1,1,-2,3,2,8,7,2,2021-08-06 13:57:52,750447
9,2,4,3,7,18,16,10,2021-08-06 13:57:52,750447
6,2,3,3,1,6,9,6,2021-08-06 13:57:52,750447
0,2,-2,-3,-5,0,0,-2,2021-08-06 13:57:52,750447
-2,0,-1,1,3,-2,-3,-1,2021-08-06 13:57:52,750447
0,0,1,0,2,4,3,1,2021-08-06 13:57:52,750447
-1,-2,-2,-3,-7,0,3,-1,2021-08-06 13:57:52,751446
2,3,2,1,8,3,1,1,2021-08-06 13:57:52,751446
-2,-2,-2,-7,-12,-10,-7,-4,2021-08-06 13:57:52,751446
-4,-3,-2,3,5,-1,-3,-4,2021-08-06 13:57:52,781446
3,2,2,4,6,7,5,4,2021-08-06 13:57:52,781446
0,-1,1,7,10,5,2,0,2021-08-06 13:57:52,781446
-2,0,-3,-3,-4,-8,-7,-4,2021-08-06 13:57:52,781446
-3,-2,0,-1,-1,-3,-2,-2,2021-08-06 13:57:52,812439
2,2,1,0,-3,0,-1,0,2021-08-06 13:57:52,812439
-1,-1,-1,-1,-6,-3,-5,-3,2021-08-06 13:57:52,812439
-3,-2,-1,-1,-2,-4,-2,-2,2021-08-06 13:57:52,812439
-2,-3,-2,-4,-7,-6,0,-1,2021-08-06 13:57:52,812439
0,3,0,4,9,10,7,2,2021-08-06 13:57:52,812439
-2,-1,0,-1,-3,-5,-3,-2,2021-08-06 13:57:52,812439
-1,-2,2,-4,-9,-6,-2,-2,2021-08-06 13:57:52,812439
-1,-1,-2,-3,-3,-1,-1,-1,2021-08-06 13:57:52,843437
2,0,0,3,9,5,1,-1,2021-08-06 13:57:52,843437
-3,-3,-2,-4,-4,-3,-3,-1,2021-08-06 13:57:52,843437
-1,-1,-1,2,3,0,-2,-1,2021-08-06 13:57:52,843437
0,-1,-2,-5,-5,-4,0,-3,2021-08-06 13:57:52,859476
0,-1,-2,-6,-10,-4,-1,-2,2021-08-06 13:57:52,859476
0,-1,0,2,10,3,3,2,2021-08-06 13:57:52,859476
0,-1,0,1,1,0,-1,-1,2021-08-06 13:57:52,859476
-1,0,-1,-2,-8,-3,-2,-1,2021-08-06 13:57:52,875438
1,2,1,4,6,5,3,1,2021-08-06 13:57:52,875438
-2,-2,-2,-2,-5,-4,-1,-2,2021-08-06 13:57:52,875438
-3,-3,-2,-6,-8,-5,-4,-2,2021-08-06 13:57:52,875438
0,0,-1,6,10,2,1,-2,2021-08-06 13:57:52,891438
0,2,-2,4,0,0,1,2,2021-08-06 13:57:52,891438
1,-1,0,-3,-4,-1,-2,-2,2021-08-06 13:57:52,891438
-2,0,-2,-1,-3,-2,-2,-1,2021-08-06 13:57:52,891438
-2,-3,-5,-3,-1,-1,-2,-2,2021-08-06 13:57:52,922438
-2,0,-1,-5,-8,-2,1,1,2021-08-06 13:57:52,922438
1,1,1,5,6,2,0,0,2021-08-06 13:57:52,922438
0,-1,0,4,5,2,0,0,2021-08-06 13:57:52,922438
-1,-2,1,-3,-2,-3,1,0,2021-08-06 13:57:52,922438
-1,-2,-2,-1,-2,-3,0,0,2021-08-06 13:57:52,922438
-1,-3,-3,-4,-7,-7,-2,-3,2021-08-06 13:57:52,938437
0,0,2,4,3,2,1,-2,2021-08-06 13:57:52,938437
-5,-2,-3,-2,-1,-2,-3,-3,2021-08-06 13:57:52,954439
1,2,1,1,5,4,2,3,2021-08-06 13:57:52,954439
-1,2,1,2,2,2,0,0,2021-08-06 13:57:52,954439
-2,-1,-1,-1,-1,0,0,-1,2021-08-06 13:57:52,954439
-2,-1,-1,-4,-4,-4,-3,-1,2021-08-06 13:57:52,984438
0,-3,-1,0,0,0,-1,0,2021-08-06 13:57:52,994438
0,-1,-2,-2,-3,-2,1,-1,2021-08-06 13:57:52,994438
0,-2,0,0,2,0,-2,-1,2021-08-06 13:57:52,995439
-2,1,0,1,-2,-1,0,1,2021-08-06 13:57:52,995439
-3,-1,-2,-2,-3,-2,-1,-1,2021-08-06 13:57:52,995439
0,0,-1,0,-3,2,-1,-2,2021-08-06 13:57:52,995439
0,-1,-2,-1,0,-1,-1,0,2021-08-06 13:57:52,995439
-2,-2,0,-1,-3,-2,-2,0,2021-08-06 13:57:53,016437
3,0,2,4,3,2,1,-1,2021-08-06 13:57:53,016437
-2,-4,-3,-5,-4,-3,-2,-2,2021-08-06 13:57:53,016437
0,0,-1,-2,-2,-3,0,-1,2021-08-06 13:57:53,016437
2,0,-2,1,-1,1,-1,-2,2021-08-06 13:57:53,032438
-1,-1,-3,-2,-2,-2,-1,-3,2021-08-06 13:57:53,032438
-2,-3,-1,-6,-11,-6,-4,-2,2021-08-06 13:57:53,032438
1,0,-1,4,8,6,2,1,2021-08-06 13:57:53,032438
0,0,1,2,4,3,1,0,2021-08-06 13:57:53,063437
-2,0,-2,-6,-9,-5,-3,-2,2021-08-06 13:57:53,063437
-1,2,1,3,2,2,2,1,2021-08-06 13:57:53,063437
-3,-2,-1,-4,-6,-5,-3,-3,2021-08-06 13:57:53,063437
-2,-1,-2,-5,-8,-4,-2,-1,2021-08-06 13:57:53,078437
2,0,1,5,10,5,1,2,2021-08-06 13:57:53,078437
-2,-2,-3,-9,-9,-6,-2,-2,2021-08-06 13:57:53,078437
-1,-2,-1,-1,1,1,0,0,2021-08-06 13:57:53,078437
0,-2,-3,-2,5,2,0,0,2021-08-06 13:57:53,093437
-1,-1,0,0,-3,-1,-1,0,2021-08-06 13:57:53,093437
-5,-1,-2,1,2,2,1,0,2021-08-06 13:57:53,093437
-1,-1,-1,-1,-4,-4,-4,-3,2021-08-06 13:57:53,093437
0,0,-2,-2,-1,-2,-3,0,2021-08-06 13:57:53,125439
-2,-1,-3,-5,-7,-4,-2,-2,2021-08-06 13:57:53,141437
1,0,0,0,-2,-4,-2,-1,2021-08-06 13:57:53,157437
0,2,0,4,4,4,2,2,2021-08-06 13:57:53,157437
-1,-2,-3,-6,-9,-5,-2,-1,2021-08-06 13:57:53,157437
0,0,0,-1,0,0,0,0,2021-08-06 13:57:53,157437
0,-2,-1,1,1,0,0,-1,2021-08-06 13:57:53,157437
-1,0,2,5,10,5,1,0,2021-08-06 13:57:53,157437
0,1,0,2,-1,1,1,-1,2021-08-06 13:57:53,157437
-1,-1,-2,2,3,-2,-1,0,2021-08-06 13:57:53,157437
0,-1,-1,-2,-2,-1,-3,-1,2021-08-06 13:57:53,157437
-3,-1,-2,-4,-8,-6,-3,-1,2021-08-06 13:57:53,157437
0,-1,1,-1,-4,-3,-2,0,2021-08-06 13:57:53,189440
-1,0,0,2,4,1,0,-1,2021-08-06 13:57:53,189440
-2,-2,0,-3,0,0,-1,-1,2021-08-06 13:57:53,189440
-1,0,-2,1,1,0,0,-2,2021-08-06 13:57:53,189440
-1,-1,-1,3,3,-1,0,0,2021-08-06 13:57:53,189440
-2,-2,-2,-4,-5,-2,-1,-1,2021-08-06 13:57:53,190439
0,0,0,0,1,-1,-1,0,2021-08-06 13:57:53,190439
-1,-2,-1,-6,-6,-6,-2,-1,2021-08-06 13:57:53,190439
0,0,-1,3,4,2,1,1,2021-08-06 13:57:53,221439
0,-3,-1,-2,-3,-4,-1,-1,2021-08-06 13:57:53,221439
-1,0,0,3,2,2,1,0,2021-08-06 13:57:53,221439
0,-1,0,-5,-5,-3,-1,-3,2021-08-06 13:57:53,221439
-1,0,-2,0,-2,-1,-1,-1,2021-08-06 13:57:53,237438
-1,0,-2,0,-1,-2,-2,0,2021-08-06 13:57:53,253438
1,0,1,-1,-1,1,1,0,2021-08-06 13:57:53,269439
0,-1,-2,-3,-2,-3,-2,-1,2021-08-06 13:57:53,269439
1,1,0,3,3,3,3,-1,2021-08-06 13:57:53,269439
-1,-1,1,3,8,2,0,-1,2021-08-06 13:57:53,269439
-2,-3,-4,-8,-9,-5,-3,0,2021-08-06 13:57:53,269439
-1,-2,-1,-1,-6,-4,-4,-3,2021-08-06 13:57:53,269439
0,-1,0,2,5,4,0,-1,2021-08-06 13:57:53,269439
0,0,-2,0,-2,-1,0,-1,2021-08-06 13:57:53,269439
1,0,-1,3,0,-1,0,-2,2021-08-06 13:57:53,270439
-1,0,0,-1,0,0,-1,2,2021-08-06 13:57:53,270439
-1,-3,-2,-3,-6,-4,-4,-2,2021-08-06 13:57:53,301438
0,-2,-2,-3,-3,-2,0,1,2021-08-06 13:57:53,301438
2,1,1,4,6,4,2,1,2021-08-06 13:57:53,301438
0,-1,-2,-1,-3,-1,-1,0,2021-08-06 13:57:53,301438
-1,-1,-1,-3,-4,-2,0,-1,2021-08-06 13:57:53,317439
-2,-4,0,-2,-2,1,0,-2,2021-08-06 13:57:53,317439
-2,-3,-2,-4,-4,-4,-2,-1,2021-08-06 13:57:53,317439
2,1,-1,1,4,1,1,2,2021-08-06 13:57:53,317439
2,2,0,3,5,1,2,1,2021-08-06 13:57:53,333438
-1,-1,-2,-5,-8,-4,-2,-1,2021-08-06 13:57:53,333438
0,-1,0,1,6,2,0,0,2021-08-06 13:57:53,349437
-1,-2,0,-1,-5,-2,-1,-2,2021-08-06 13:57:53,365437
0,0,2,9,19,11,4,2,2021-08-06 13:57:53,370437
-1,0,0,-1,-2,-1,0,-1,2021-08-06 13:57:53,370437
-2,-1,-2,-2,-4,-3,-1,-2,2021-08-06 13:57:53,370437
-4,-2,-3,-5,-6,-5,-1,-1,2021-08-06 13:57:53,371439
-2,-2,-2,-4,-6,-4,-2,-2,2021-08-06 13:57:53,381438
1,-2,-1,-3,-4,-2,-1,1,2021-08-06 13:57:53,381438
-2,0,3,8,12,7,2,1,2021-08-06 13:57:53,381438
0,0,2,3,2,2,1,-2,2021-08-06 13:57:53,381438
-2,-1,-4,-8,-10,-8,-5,-2,2021-08-06 13:57:53,397439
1,0,0,4,4,1,1,0,2021-08-06 13:57:53,412439
-2,-1,-3,-4,-6,-5,-2,-2,2021-08-06 13:57:53,412439
0,0,0,2,3,3,1,0,2021-08-06 13:57:53,412439
-2,-2,0,0,-1,-3,-1,-1,2021-08-06 13:57:53,412439
-2,-3,-3,-3,-3,-3,-2,-3,2021-08-06 13:57:53,412439
2,1,1,0,2,3,1,1,2021-08-06 13:57:53,412439
0,1,-2,2,3,1,0,-1,2021-08-06 13:57:53,412439
-2,-3,-1,-4,-7,-3,-1,-1,2021-08-06 13:57:53,443441
0,0,0,-2,-1,-2,-2,-2,2021-08-06 13:57:53,443441
3,-1,-1,0,-2,-1,0,-2,2021-08-06 13:57:53,443441
0,-2,-4,-5,-4,-3,-3,-1,2021-08-06 13:57:53,443441
0,0,0,1,2,2,0,1,2021-08-06 13:57:53,459441
-1,0,-1,1,-4,-1,0,-1,2021-08-06 13:57:53,459441
-2,-1,0,-1,-1,-2,0,-1,2021-08-06 13:57:53,459441
-1,0,-2,-7,-5,-2,-1,-1,2021-08-06 13:57:53,459441
0,-1,1,4,3,2,0,-1,2021-08-06 13:57:53,475441
-1,0,-1,2,5,3,1,-1,2021-08-06 13:57:53,475441
0,-1,-1,-1,-5,-4,-2,-1,2021-08-06 13:57:53,475441
-1,-1,1,3,1,1,1,1,2021-08-06 13:57:53,475441
-3,-1,-4,-8,-10,-4,-2,-2,2021-08-06 13:57:53,491443
0,1,1,2,6,2,0,-2,2021-08-06 13:57:53,491443
-3,0,-3,0,0,3,6,1,2021-08-06 13:57:53,491443
3,0,1,-1,1,8,6,3,2021-08-06 13:57:53,491443
0,1,0,-4,-6,-6,-9,-4,2021-08-06 13:57:53,522441
-9,-9,-5,-2,-1,-12,-14,-11,2021-08-06 13:57:53,538439
2,1,0,0,2,8,8,6,2021-08-06 13:57:53,554439
2,2,-2,0,2,3,4,2,2021-08-06 13:57:53,570438
-13,-10,-8,-5,-13,-16,-14,-11,2021-08-06 13:57:53,570438
-4,-1,-1,0,4,0,-5,-2,2021-08-06 13:57:53,570438
-2,0,0,-3,-4,-6,-4,-4,2021-08-06 13:57:53,570438
1,0,1,1,3,5,4,4,2021-08-06 13:57:53,570438
8,4,4,7,5,11,11,8,2021-08-06 13:57:53,570438
1,-1,-3,-6,-7,-2,1,1,2021-08-06 13:57:53,571440
-2,-3,-3,-6,-2,-2,-3,-2,2021-08-06 13:57:53,571440
6,5,5,10,12,10,9,5,2021-08-06 13:57:53,571440
1,-1,-3,-5,-3,1,2,2,2021-08-06 13:57:53,571440
-4,-2,-2,-2,-9,-10,-8,-5,2021-08-06 13:57:53,571440
-7,-5,-6,-2,-1,-14,-15,-8,2021-08-06 13:57:53,571440
-6,-4,-4,-6,-7,-12,-12,-6,2021-08-06 13:57:53,571440
-1,1,0,-2,0,0,0,0,2021-08-06 13:57:53,601439
4,1,2,4,3,13,15,7,2021-08-06 13:57:53,601439
4,3,4,5,2,6,6,3,2021-08-06 13:57:53,601439
-4,-2,-3,-1,-5,-7,-6,-4,2021-08-06 13:57:53,601439
0,-2,-3,-7,-8,-7,-2,0,2021-08-06 13:57:53,632475
-3,-3,1,3,11,1,-5,-3,2021-08-06 13:57:53,632475
-5,-3,-2,-2,-6,-5,-7,-4,2021-08-06 13:57:53,632475
-3,-3,-1,0,0,-3,-1,-3,2021-08-06 13:57:53,632475
4,3,2,3,1,7,8,5,2021-08-06 13:57:53,632475
0,-1,-3,-7,-12,-6,0,1,2021-08-06 13:57:53,632475
0,0,-1,1,1,-4,-4,-4,2021-08-06 13:57:53,632475
-1,-2,-2,-2,0,1,-1,-2,2021-08-06 13:57:53,632475
-2,0,0,0,1,-2,0,-1,2021-08-06 13:57:53,664441
1,2,1,2,0,-1,0,0,2021-08-06 13:57:53,664441
0,-1,0,3,3,3,2,2,2021-08-06 13:57:53,664441
0,-2,-1,-1,-2,-1,-1,-1,2021-08-06 13:57:53,664441
0,-1,-1,-2,0,-5,-4,-1,2021-08-06 13:57:53,664441
-1,1,0,0,0,4,1,2,2021-08-06 13:57:53,664441
1,0,-2,-1,0,0,2,2,2021-08-06 13:57:53,679439
-2,-2,-4,-5,-9,-7,-4,-3,2021-08-06 13:57:53,679439
-3,-1,0,0,3,0,-1,-2,2021-08-06 13:57:53,694442
2,3,2,4,5,5,5,2,2021-08-06 13:57:53,710476
1,0,2,4,6,4,0,1,2021-08-06 13:57:53,726437
-2,-3,-2,-5,-7,-6,-4,-2,2021-08-06 13:57:53,726437
-1,-3,-1,0,3,1,0,-3,2021-08-06 13:57:53,726437
0,-1,-2,-4,-8,-4,-1,0,2021-08-06 13:57:53,726437
0,-1,-2,-3,-2,0,0,-2,2021-08-06 13:57:53,726437
-2,0,1,0,0,-1,-1,-1,2021-08-06 13:57:53,726437
1,0,-2,-1,-2,0,0,0,2021-08-06 13:57:53,726437
-1,0,-2,-4,-4,-3,-3,-1,2021-08-06 13:57:53,726437
-2,-2,-2,-3,-3,-1,-1,-1,2021-08-06 13:57:53,726437
-1,-1,1,6,8,1,0,-1,2021-08-06 13:57:53,727439
-2,-3,-1,-2,-4,-1,-2,-2,2021-08-06 13:57:53,758437
-1,-1,-1,-2,-1,-1,-2,0,2021-08-06 13:57:53,758437
-1,-1,0,-3,-5,-1,-1,-1,2021-08-06 13:57:53,758437
0,0,0,-3,-3,-1,-1,0,2021-08-06 13:57:53,758437
-3,-3,-2,0,1,-2,-1,0,2021-08-06 13:57:53,772438
0,-1,-1,-1,-1,-1,0,0,2021-08-06 13:57:53,772438
-1,-2,-3,-3,0,0,0,0,2021-08-06 13:57:53,772438
-2,0,1,4,5,2,0,-1,2021-08-06 13:57:53,772438
1,-1,-1,1,1,-1,-2,0,2021-08-06 13:57:53,790438
0,0,-1,-1,1,-1,-1,0,2021-08-06 13:57:53,790438
-2,-2,-3,-2,-6,-5,-2,-2,2021-08-06 13:57:53,806438
-1,-1,-2,-2,-2,-1,-2,-1,2021-08-06 13:57:53,806438
-1,-1,-2,-2,-1,-1,1,-1,2021-08-06 13:57:53,806438
2,-1,1,1,2,0,0,0,2021-08-06 13:57:53,806438
-1,-2,2,0,0,-1,-1,-2,2021-08-06 13:57:53,822438
0,-2,-2,-2,-2,-1,0,0,2021-08-06 13:57:53,822438
-3,-2,-2,-6,-8,-4,-3,-1,2021-08-06 13:57:53,838441
0,0,0,-3,-4,-1,2,1,2021-08-06 13:57:53,854439
3,3,3,16,26,12,5,2,2021-08-06 13:57:53,854439
-1,-1,1,1,-2,-3,-3,-1,2021-08-06 13:57:53,854439
-1,-2,-1,-3,-2,-1,-2,-2,2021-08-06 13:57:53,854439
-1,-1,-2,-2,-4,-4,-1,-1,2021-08-06 13:57:53,854439
-2,-1,-3,-2,-5,-2,-2,0,2021-08-06 13:57:53,854439
-3,-2,-4,-5,-1,-2,-2,-1,2021-08-06 13:57:53,854439
0,1,0,3,4,1,1,0,2021-08-06 13:57:53,885440
0,-1,-2,-2,-2,-2,-1,-2,2021-08-06 13:57:53,885440
2,-1,0,-3,-4,-2,0,0,2021-08-06 13:57:53,885440
1,-1,-2,-1,-1,-1,-1,-2,2021-08-06 13:57:53,885440
-4,-3,-3,-2,-2,-3,-1,-1,2021-08-06 13:57:53,901437
-2,1,3,0,1,-2,-1,-2,2021-08-06 13:57:53,901437
-2,-3,-5,-5,-5,-2,-1,-2,2021-08-06 13:57:53,901437
-2,-5,-2,0,-2,-2,-2,-1,2021-08-06 13:57:53,901437
1,2,1,4,4,2,3,1,2021-08-06 13:57:53,917466
-1,-1,-1,0,1,0,-1,-1,2021-08-06 13:57:53,917466
-1,3,0,-2,-4,-2,-1,0,2021-08-06 13:57:53,917466
1,2,-1,-2,-1,-1,1,-1,2021-08-06 13:57:53,917466
-1,-3,0,-1,0,-1,-1,-2,2021-08-06 13:57:53,933437
-1,-1,-3,-1,-1,0,0,-1,2021-08-06 13:57:53,949437
-1,-2,-2,-2,-5,-1,0,1,2021-08-06 13:57:53,965437
0,-2,0,1,3,3,1,1,2021-08-06 13:57:53,981438
-2,-1,-3,0,0,-1,-1,-1,2021-08-06 13:57:53,981438
-3,-2,-1,-4,-8,-4,-3,-3,2021-08-06 13:57:53,981438
-1,-2,-1,2,6,3,0,0,2021-08-06 13:57:53,981438
-1,0,0,0,0,-1,-2,-2,2021-08-06 13:57:53,981438
-2,0,-3,-5,-5,-4,-2,-2,2021-08-06 13:57:53,981438
2,1,1,6,6,5,2,2,2021-08-06 13:57:53,981438
0,-2,-3,-4,-9,-6,-4,0,2021-08-06 13:57:53,981438
-1,-1,-2,0,-1,-2,-1,1,2021-08-06 13:57:53,981438
-2,0,-2,-4,-3,-2,-2,-2,2021-08-06 13:57:53,997439
-1,-2,-1,2,3,1,-1,0,2021-08-06 13:57:53,997439
-1,1,0,0,-1,-2,-2,-1,2021-08-06 13:57:53,997439
-2,-1,-1,-1,-3,-3,-2,-1,2021-08-06 13:57:53,997439
-1,-2,-1,1,0,1,1,0,2021-08-06 13:57:54,027437
1,-1,-2,0,3,1,0,1,2021-08-06 13:57:54,027437
-2,-1,-1,1,3,0,0,-2,2021-08-06 13:57:54,027437
-1,1,0,-1,-2,-1,-1,0,2021-08-06 13:57:54,027437
-1,0,-2,-1,-2,-1,0,-1,2021-08-06 13:57:54,027437
0,-2,-2,-3,-5,-3,-3,-1,2021-08-06 13:57:54,027437
-2,-1,-2,-3,-2,-3,0,-1,2021-08-06 13:57:54,043439
-1,-2,-1,-2,0,0,-1,-3,2021-08-06 13:57:54,043439
-1,-1,0,2,2,1,-1,0,2021-08-06 13:57:54,059439
0,1,-1,1,0,0,1,0,2021-08-06 13:57:54,091439
-2,-1,-1,-3,-5,-4,-2,-2,2021-08-06 13:57:54,091439
1,-1,-1,-7,-7,-4,-3,-1,2021-08-06 13:57:54,091439
1,-1,0,0,-1,2,-1,0,2021-08-06 13:57:54,091439
0,1,-1,-4,-1,-1,-3,1,2021-08-06 13:57:54,091439
0,-1,1,2,-1,-1,-2,-1,2021-08-06 13:57:54,091439
-1,0,0,-3,0,-1,1,0,2021-08-06 13:57:54,091439
-1,-1,-2,-1,0,-2,-2,-1,2021-08-06 13:57:54,123439
-1,-3,-3,-4,-6,-4,0,-3,2021-08-06 13:57:54,123439
0,-1,-2,-1,-1,1,1,0,2021-08-06 13:57:54,123439
0,-2,-2,-3,-3,0,-1,0,2021-08-06 13:57:54,123439
-1,-1,0,2,4,0,-2,-2,2021-08-06 13:57:54,123439
-3,-3,-2,0,1,1,-1,-1,2021-08-06 13:57:54,123439
-2,1,-1,0,1,0,0,-1,2021-08-06 13:57:54,123439
-1,0,0,0,-4,-2,-2,-1,2021-08-06 13:57:54,123439
1,0,1,0,3,2,1,0,2021-08-06 13:57:54,138438
0,0,0,0,-1,0,1,-3,2021-08-06 13:57:54,144437
-2,-2,0,-3,-9,-4,-2,-4,2021-08-06 13:57:54,145441
0,0,0,3,6,4,-1,1,2021-08-06 13:57:54,145441
-2,0,-1,0,-2,-1,-2,0,2021-08-06 13:57:54,169438
-1,1,-1,-2,-1,-1,1,-1,2021-08-06 13:57:54,184437
0,-1,-1,-4,-5,1,2,2,2021-08-06 13:57:54,199437
0,0,-2,-2,1,-4,-6,-4,2021-08-06 13:57:54,199437
-2,-2,0,0,0,-4,-5,-3,2021-08-06 13:57:54,199437
0,-2,-2,-1,0,-2,-1,-1,2021-08-06 13:57:54,199437
-2,0,0,-1,-2,-2,-1,-1,2021-08-06 13:57:54,199437
-1,-1,0,1,0,4,4,1,2021-08-06 13:57:54,199437
-1,-2,-2,-2,-2,1,0,1,2021-08-06 13:57:54,199437
-3,-3,-2,-5,-8,-6,-2,-1,2021-08-06 13:57:54,199437
1,-1,4,6,9,6,3,2,2021-08-06 13:57:54,199437
-2,-3,-2,-1,0,-3,-2,-1,2021-08-06 13:57:54,200439
1,1,0,0,1,-2,0,1,2021-08-06 13:57:54,231438
-1,-1,0,-2,-3,-1,-1,-2,2021-08-06 13:57:54,246438
-2,-3,-3,-3,-5,-4,-2,-2,2021-08-06 13:57:54,261438
-1,0,0,-2,-1,-2,0,-3,2021-08-06 13:57:54,261438
0,-2,-2,0,0,8,12,1,2021-08-06 13:57:54,261438
0,0,-1,1,0,7,2,2,2021-08-06 13:57:54,261438
-2,-3,-1,-2,-4,-20,-21,-10,2021-08-06 13:57:54,261438
-7,-5,-5,-8,-13,-15,-15,-11,2021-08-06 13:57:54,261438
0,1,2,0,5,0,-1,0,2021-08-06 13:57:54,262441
2,1,3,10,16,12,8,3,2021-08-06 13:57:54,262441
1,-1,1,1,2,8,7,1,2021-08-06 13:57:54,262441
1,2,0,1,0,7,10,4,2021-08-06 13:57:54,262441
1,0,-2,-5,-6,2,3,2,2021-08-06 13:57:54,277440
-6,-1,0,0,-3,-14,-13,-7,2021-08-06 13:57:54,293440
-8,-7,-5,-9,-9,-15,-14,-10,2021-08-06 13:57:54,309439
0,-2,0,3,0,-1,-2,1,2021-08-06 13:57:54,309439
1,-1,0,1,3,4,3,2,2021-08-06 13:57:54,309439
2,1,0,-3,-1,3,4,3,2021-08-06 13:57:54,325439
-1,2,-1,-2,1,2,3,0,2021-08-06 13:57:54,325439
0,1,1,1,3,3,3,1,2021-08-06 13:57:54,341439
0,0,-1,-1,-3,-1,-3,-3,2021-08-06 13:57:54,341439
0,0,1,1,1,1,1,1,2021-08-06 13:57:54,341439
2,1,-1,5,9,7,4,3,2021-08-06 13:57:54,341439
1,0,0,-2,-2,-2,0,2,2021-08-06 13:57:54,341439
-2,-1,-1,2,2,-6,-7,-3,2021-08-06 13:57:54,341439
-6,-5,-6,-7,-12,-14,-12,-6,2021-08-06 13:57:54,342439
-1,-1,2,2,2,3,4,2,2021-08-06 13:57:54,342439
-1,-2,-3,-4,1,2,0,-1,2021-08-06 13:57:54,342439
-3,-1,-1,2,-4,-11,-9,-5,2021-08-06 13:57:54,357439
0,-1,-1,-1,1,5,3,3,2021-08-06 13:57:54,373439
2,1,0,-1,-2,2,4,2,2021-08-06 13:57:54,404437
0,-2,-2,0,-2,0,-2,0,2021-08-06 13:57:54,420438
-3,-2,-2,-4,-7,-4,-3,-2,2021-08-06 13:57:54,420438
-1,-2,-1,-1,4,3,1,0,2021-08-06 13:57:54,420438
0,0,1,5,6,3,1,1,2021-08-06 13:57:54,420438
0,0,1,3,10,2,1,-3,2021-08-06 13:57:54,420438
-1,-2,-1,-2,-3,-1,-1,-2,2021-08-06 13:57:54,420438
2,-2,0,0,-4,-1,0,-1,2021-08-06 13:57:54,421440
-1,-1,-1,-4,-7,-4,-2,-2,2021-08-06 13:57:54,421440
-2,-2,-2,1,2,0,-1,-1,2021-08-06 13:57:54,421440
0,-2,-3,-5,-6,-5,-1,0,2021-08-06 13:57:54,421440
0,1,1,6,12,2,1,-1,2021-08-06 13:57:54,421440
0,-1,0,1,1,1,0,0,2021-08-06 13:57:54,421440
0,0,-1,2,0,0,1,-2,2021-08-06 13:57:54,421440
-1,-2,-2,-2,-2,-1,-2,-1,2021-08-06 13:57:54,436441
-1,0,0,-2,-7,-3,-2,-2,2021-08-06 13:57:54,451437
-1,-1,-2,-3,-2,0,0,-1,2021-08-06 13:57:54,451437
-1,-2,-3,-2,-4,-3,-2,-1,2021-08-06 13:57:54,451437
0,1,-1,3,6,2,0,-1,2021-08-06 13:57:54,466437
-1,0,-2,-4,-4,-2,-2,0,2021-08-06 13:57:54,482439
0,0,0,3,4,2,0,-1,2021-08-06 13:57:54,514440
-1,-1,-2,-5,-5,-2,-2,-1,2021-08-06 13:57:54,530439
-2,-1,-1,-2,-1,-1,-1,-1,2021-08-06 13:57:54,530439
-1,-2,-2,-2,-4,-2,-1,-1,2021-08-06 13:57:54,530439
0,0,-1,-1,0,0,0,-1,2021-08-06 13:57:54,530439
0,0,1,-3,-3,-1,-1,-1,2021-08-06 13:57:54,530439
1,0,0,-1,1,2,0,0,2021-08-06 13:57:54,530439
-1,-1,0,-2,-4,-2,-1,-1,2021-08-06 13:57:54,530439
-1,-3,-2,-3,-1,-1,-3,-2,2021-08-06 13:57:54,530439
-1,1,-1,0,-1,-1,-2,0,2021-08-06 13:57:54,531442
0,-1,2,2,6,3,2,0,2021-08-06 13:57:54,531442
0,1,-1,-1,-6,-2,-1,-1,2021-08-06 13:57:54,531442
-2,-2,-3,-2,-3,-1,-2,-1,2021-08-06 13:57:54,531442
-1,-1,-1,0,0,0,0,-2,2021-08-06 13:57:54,531442
-4,0,-3,-4,-6,-3,-2,-2,2021-08-06 13:57:54,531442
0,1,0,2,3,0,0,2,2021-08-06 13:57:54,531442
0,-1,-2,-2,-4,-2,-1,0,2021-08-06 13:57:54,545439
-1,-2,-1,1,4,2,0,0,2021-08-06 13:57:54,545439
-1,-1,-2,-2,-6,-1,-2,0,2021-08-06 13:57:54,561439
-3,-1,-3,-2,-3,-1,-2,-2,2021-08-06 13:57:54,561439
1,1,-1,-2,-3,0,0,1,2021-08-06 13:57:54,561439
-2,-2,0,-1,1,-1,0,-2,2021-08-06 13:57:54,561439
1,0,-2,1,-1,-2,0,1,2021-08-06 13:57:54,592441
-1,-3,-1,-1,-2,-1,-1,-2,2021-08-06 13:57:54,592441
-1,0,-1,-2,-4,-2,-1,-1,2021-08-06 13:57:54,592441
-2,0,-1,0,-2,-2,0,0,2021-08-06 13:57:54,592441
1,-1,2,1,2,2,1,-1,2021-08-06 13:57:54,592441
-1,0,0,0,1,2,0,-1,2021-08-06 13:57:54,592441
-1,-2,0,-3,-3,-2,-1,-1,2021-08-06 13:57:54,608439
-1,-1,-2,-2,-2,-1,-2,-1,2021-08-06 13:57:54,624440
-2,-1,-1,-2,-3,-4,-2,0,2021-08-06 13:57:54,640439
-1,-1,-2,-1,-4,-2,-3,-2,2021-08-06 13:57:54,656440
1,2,3,6,10,2,1,0,2021-08-06 13:57:54,672439
-1,-1,-2,-5,-6,-3,-2,-1,2021-08-06 13:57:54,672439
0,-2,-1,3,0,-1,0,0,2021-08-06 13:57:54,672439
0,-1,-3,-3,-1,0,-1,-1,2021-08-06 13:57:54,672439
-2,-2,1,-1,-1,-2,-1,0,2021-08-06 13:57:54,672439
0,1,0,0,-2,-2,-1,-1,2021-08-06 13:57:54,672439
-1,-3,-2,0,1,1,-1,-2,2021-08-06 13:57:54,672439
0,0,-1,-2,-1,-2,0,-1,2021-08-06 13:57:54,672439
-1,-2,-2,1,-3,-4,0,0,2021-08-06 13:57:54,673441
-1,-2,-2,-5,-7,-3,-1,1,2021-08-06 13:57:54,673441
0,0,3,8,14,7,1,1,2021-08-06 13:57:54,688438
0,-3,1,2,3,2,-2,-1,2021-08-06 13:57:54,704439
-1,0,0,0,-3,-2,0,0,2021-08-06 13:57:54,720438
-1,0,-4,-5,-6,-5,-2,-3,2021-08-06 13:57:54,720438
-1,-2,-3,-4,-4,-4,-1,-1,2021-08-06 13:57:54,720438
0,1,-2,2,3,0,-2,-1,2021-08-06 13:57:54,720438
-1,-1,-4,-5,-8,-5,-1,-1,2021-08-06 13:57:54,720438
1,0,-1,4,6,2,0,-1,2021-08-06 13:57:54,720438
0,0,-2,-4,-4,-2,-1,-1,2021-08-06 13:57:54,721439
-1,-1,-1,0,2,1,0,0,2021-08-06 13:57:54,721439
0,-1,0,-1,-1,0,-1,-1,2021-08-06 13:57:54,721439
-1,-1,-1,0,1,0,-1,1,2021-08-06 13:57:54,721439
-2,-2,-1,-3,-5,-2,-1,-1,2021-08-06 13:57:54,736439
-1,-1,-1,-1,4,0,0,1,2021-08-06 13:57:54,752440
-1,-1,0,-1,0,-1,0,-1,2021-08-06 13:57:54,768441
0,0,1,2,1,1,2,0,2021-08-06 13:57:54,768441
-1,0,-1,-3,0,-1,-3,-1,2021-08-06 13:57:54,768441
-2,-3,0,-2,-4,-1,-1,-2,2021-08-06 13:57:54,768441
0,-3,-2,3,1,4,0,-1,2021-08-06 13:57:54,768441
-1,-1,-2,-1,-1,-2,0,-2,2021-08-06 13:57:54,768441
-1,-1,-2,-2,-4,-3,-1,-2,2021-08-06 13:57:54,769441
-1,-1,-1,-2,-2,-3,0,1,2021-08-06 13:57:54,769441
0,-1,-2,0,3,1,0,0,2021-08-06 13:57:54,784437
-2,-1,-1,0,-2,-1,-1,-1,2021-08-06 13:57:54,784437
0,-1,0,-1,-2,-1,-1,-1,2021-08-06 13:57:54,800437
-2,-1,-2,1,-2,-1,-2,-2,2021-08-06 13:57:54,816437
-3,-2,0,-3,-4,-3,-2,-2,2021-08-06 13:57:54,832439
-1,0,-2,-1,-3,-4,-5,-3,2021-08-06 13:57:54,832439
1,2,1,2,1,3,1,1,2021-08-06 13:57:54,832439
1,0,-1,1,1,-1,1,-1,2021-08-06 13:57:54,832439
0,1,-2,-3,-4,-2,-2,-3,2021-08-06 13:57:54,832439
0,-2,1,-3,-2,-2,0,-1,2021-08-06 13:57:54,832439
-2,-2,0,-2,1,1,-2,-1,2021-08-06 13:57:54,832439
0,0,-3,-3,-7,-4,-2,-2,2021-08-06 13:57:54,832439
-1,-2,-2,-4,-4,-1,0,-1,2021-08-06 13:57:54,848439
0,-1,-1,3,8,6,1,1,2021-08-06 13:57:54,848439
0,-1,-4,-1,-5,-3,-2,-1,2021-08-06 13:57:54,864439
0,-1,1,1,4,3,1,0,2021-08-06 13:57:54,880439
1,-1,-3,-2,-5,-5,-2,-1,2021-08-06 13:57:54,880439
-3,-5,-3,-9,-13,-6,-2,-3,2021-08-06 13:57:54,880439
1,1,1,10,15,8,3,0,2021-08-06 13:57:54,880439
0,0,-2,-1,-2,-3,-3,-2,2021-08-06 13:57:54,880439
0,0,0,0,0,0,0,0,2021-08-06 13:57:54,880439
2,0,0,3,1,0,1,-1,2021-08-06 13:57:54,880439
-4,-3,-3,-3,-6,-5,-2,-2,2021-08-06 13:57:54,896439
0,0,0,1,4,3,2,0,2021-08-06 13:57:54,927439
0,-1,0,0,2,1,0,-1,2021-08-06 13:57:54,942439
0,-1,-1,-1,-2,-1,-1,0,2021-08-06 13:57:54,942439
-1,-1,-2,-4,-5,-3,-1,-1,2021-08-06 13:57:54,942439
-1,-1,-1,-3,-1,-1,-1,0,2021-08-06 13:57:54,942439
-2,1,-1,-2,-2,-2,-1,-1,2021-08-06 13:57:54,942439
-1,-1,0,-2,-4,-1,-2,-1,2021-08-06 13:57:54,942439
1,-1,-1,0,2,0,-2,0,2021-08-06 13:57:54,942439
-2,-2,-1,-2,-5,-1,-1,-1,2021-08-06 13:57:54,943439
1,-1,0,2,5,2,1,1,2021-08-06 13:57:54,943439
1,0,0,3,1,2,0,-1,2021-08-06 13:57:54,943439
0,-3,-3,-3,-5,-4,-1,-2,2021-08-06 13:57:54,958439
-2,-2,0,-2,-3,-3,-2,-2,2021-08-06 13:57:54,974439
-2,0,-1,1,1,-1,-3,-1,2021-08-06 13:57:54,974439
-2,2,-1,2,1,3,1,1,2021-08-06 13:57:54,974439
-2,-2,-1,-1,1,-1,1,1,2021-08-06 13:57:54,982439
0,0,0,-1,-2,-3,-1,-1,2021-08-06 13:57:54,982439
-2,-2,-3,-3,-4,-4,-5,-3,2021-08-06 13:57:54,982439
-1,0,-1,-1,3,0,-1,-1,2021-08-06 13:57:54,983441
0,-2,0,2,-3,0,-2,-2,2021-08-06 13:57:55,006440
-2,0,-2,-1,-4,-3,-1,-2,2021-08-06 13:57:55,006440
1,0,1,5,7,3,2,-1,2021-08-06 13:57:55,006440
-2,0,-2,-7,-7,-6,0,-1,2021-08-06 13:57:55,006440
1,1,2,1,4,6,7,4,2021-08-06 13:57:55,006440
1,-2,-1,1,3,0,-2,-2,2021-08-06 13:57:55,006440
-1,-1,-2,-3,-5,-5,-6,-4,2021-08-06 13:57:55,022439
0,-1,-1,-2,-1,0,1,-1,2021-08-06 13:57:55,022439
-1,2,-2,-3,-2,-1,-1,0,2021-08-06 13:57:55,038441
-2,-1,-3,-4,-6,-6,-4,-2,2021-08-06 13:57:55,038441
0,-1,1,2,6,5,0,0,2021-08-06 13:57:55,038441
-1,-2,0,1,1,-2,-3,-2,2021-08-06 13:57:55,038441
1,1,0,-2,0,-2,2,0,2021-08-06 13:57:55,069490
0,-2,-2,-1,-1,4,1,2,2021-08-06 13:57:55,069490
-2,-1,-1,-4,-5,-4,-1,-2,2021-08-06 13:57:55,069490
-1,-1,-1,-3,-2,0,0,-1,2021-08-06 13:57:55,069490
-3,0,-1,-2,-2,-4,-4,-2,2021-08-06 13:57:55,085440
1,-1,0,3,6,0,-1,-2,2021-08-06 13:57:55,085440
-1,-1,-2,-3,-2,-1,0,-1,2021-08-06 13:57:55,085440
1,1,0,2,2,1,1,0,2021-08-06 13:57:55,085440
-1,-2,-3,-3,-5,-3,-2,0,2021-08-06 13:57:55,101441
1,1,-1,0,1,1,0,-1,2021-08-06 13:57:55,101441
-2,0,-2,-1,-2,-1,0,-1,2021-08-06 13:57:55,117481
-2,-1,-3,-2,0,0,-1,0,2021-08-06 13:57:55,117481
-1,-2,-1,0,-2,-3,-3,-2,2021-08-06 13:57:55,117481
-1,-1,0,-1,0,1,0,0,2021-08-06 13:57:55,117481
0,-1,-1,-1,0,-1,0,1,2021-08-06 13:57:55,117481
-1,-1,-1,-3,-1,0,0,-2,2021-08-06 13:57:55,117481
-2,-2,-1,-2,-5,-4,-4,-2,2021-08-06 13:57:55,149437
2,0,1,3,6,3,1,0,2021-08-06 13:57:55,165437
0,-1,0,-2,-2,-2,-1,-1,2021-08-06 13:57:55,181438
-1,0,0,1,0,-1,-2,0,2021-08-06 13:57:55,181438
0,-1,1,1,0,-2,0,0,2021-08-06 13:57:55,181438
-1,0,-3,-2,-6,-1,0,-1,2021-08-06 13:57:55,181438
-1,-2,-4,-3,-2,0,-2,1,2021-08-06 13:57:55,181438
-1,-1,0,-1,-3,-3,-3,-2,2021-08-06 13:57:55,181438
-2,-1,-1,2,5,4,1,-1,2021-08-06 13:57:55,182441
-2,-2,-1,-2,-3,-5,-2,-2,2021-08-06 13:57:55,182441
-2,-2,-2,-6,-13,-6,-3,-2,2021-08-06 13:57:55,182441
0,0,3,9,18,9,2,1,2021-08-06 13:57:55,182441
1,1,3,8,8,5,2,-1,2021-08-06 13:57:55,213438
0,-1,-2,1,2,2,1,2,2021-08-06 13:57:55,213438
-3,-1,1,1,-3,-3,-1,-1,2021-08-06 13:57:55,213438
-4,-2,-4,-8,-13,-7,-3,-4,2021-08-06 13:57:55,213438
-1,-2,-2,-5,-5,-5,-3,-1,2021-08-06 13:57:55,213438
0,0,0,3,3,3,-1,1,2021-08-06 13:57:55,213438
-2,-2,-1,-3,0,0,0,0,2021-08-06 13:57:55,214439
-1,-1,-1,-2,-3,-2,-2,0,2021-08-06 13:57:55,214439
0,-1,-2,-3,-1,-1,0,-1,2021-08-06 13:57:55,243437
-1,0,1,-3,-6,-2,0,0,2021-08-06 13:57:55,275437
-1,1,-2,-1,1,1,-1,0,2021-08-06 13:57:55,291437
-2,0,0,3,1,0,1,-1,2021-08-06 13:57:55,291437
-2,-3,-3,-4,-5,-5,-4,-3,2021-08-06 13:57:55,291437
-1,-1,0,-2,-3,-3,-2,0,2021-08-06 13:57:55,291437
2,-1,1,2,4,3,-2,0,2021-08-06 13:57:55,291437
0,0,0,-1,-1,-1,-1,0,2021-08-06 13:57:55,291437
-3,-1,-3,-8,-11,-5,-2,-1,2021-08-06 13:57:55,292439
-1,0,0,3,3,2,-1,-2,2021-08-06 13:57:55,292439
1,0,0,0,3,0,1,-2,2021-08-06 13:57:55,292439
-1,-3,-1,0,-3,-2,-3,-2,2021-08-06 13:57:55,292439
0,-1,-1,0,2,0,-2,-2,2021-08-06 13:57:55,292439
0,-3,-2,-2,-1,-2,1,-2,2021-08-06 13:57:55,292439
0,-1,-1,-1,-3,0,0,0,2021-08-06 13:57:55,307437
0,-1,0,1,2,0,0,1,2021-08-06 13:57:55,307437
-1,-2,-3,-4,-4,-1,-1,-2,2021-08-06 13:57:55,323439
-2,-1,0,-1,1,-2,1,-2,2021-08-06 13:57:55,323439
-1,1,-1,-2,-2,0,0,1,2021-08-06 13:57:55,323439
0,-2,-1,-4,-3,-4,-2,-1,2021-08-06 13:57:55,323439
-1,-1,-3,0,1,1,0,1,2021-08-06 13:57:55,339439
0,-3,-1,-3,-4,-3,-2,-1,2021-08-06 13:57:55,339439
-1,0,0,-1,-1,-1,-1,0,2021-08-06 13:57:55,339439
-1,-2,-4,-3,-2,-2,0,-2,2021-08-06 13:57:55,339439
1,0,0,2,4,2,-1,-1,2021-08-06 13:57:55,364438
-2,0,-3,-8,-9,-6,-4,-3,2021-08-06 13:57:55,364438
1,1,2,7,8,3,1,0,2021-08-06 13:57:55,365439
-1,0,0,3,2,3,2,-1,2021-08-06 13:57:55,365439
-3,-2,-2,-3,-3,-2,-3,-1,2021-08-06 13:57:55,385438
-1,0,-1,-2,-3,-1,-1,-1,2021-08-06 13:57:55,401438
-3,-1,-1,-1,-2,-3,-3,-1,2021-08-06 13:57:55,417439
1,-1,-2,-3,-3,-2,-2,0,2021-08-06 13:57:55,417439
2,0,2,4,6,2,1,2,2021-08-06 13:57:55,417439
0,-1,0,-1,-1,-3,1,-1,2021-08-06 13:57:55,417439
-1,-2,-2,-3,-4,-3,0,-2,2021-08-06 13:57:55,417439
0,-1,-1,1,3,0,0,2,2021-08-06 13:57:55,417439
-2,-1,1,-2,-3,-2,-1,-3,2021-08-06 13:57:55,417439
-1,0,0,1,2,1,-1,0,2021-08-06 13:57:55,418440
-2,-1,-1,-2,-3,-1,-1,-2,2021-08-06 13:57:55,418440
-2,-3,-2,-2,-2,-1,-1,-3,2021-08-06 13:57:55,418440
-1,-1,-1,-2,0,0,-1,0,2021-08-06 13:57:55,449438
0,-2,-1,1,1,0,-1,0,2021-08-06 13:57:55,465437
0,-2,-2,-1,-1,-3,0,-2,2021-08-06 13:57:55,481438
0,-1,-1,-1,-2,-2,-1,0,2021-08-06 13:57:55,481438
1,-1,-2,-1,-3,-2,-1,-1,2021-08-06 13:57:55,481438
-1,-2,-2,1,1,0,-1,0,2021-08-06 13:57:55,481438
-1,-2,-2,0,-2,0,0,-1,2021-08-06 13:57:55,481438
-1,-1,0,-2,-1,0,1,-2,2021-08-06 13:57:55,481438
-1,0,-2,1,-1,-2,0,0,2021-08-06 13:57:55,481438
-3,-1,-1,0,-1,0,0,0,2021-08-06 13:57:55,481438
-1,-1,-1,-2,-1,0,-1,0,2021-08-06 13:57:55,482439
-1,0,0,0,0,-1,-1,-1,2021-08-06 13:57:55,482439
-1,-1,0,-1,-2,-1,-1,-2,2021-08-06 13:57:55,512437
-1,-2,0,-1,1,0,-1,1,2021-08-06 13:57:55,527438
-2,0,-1,-1,-1,-1,0,-1,2021-08-06 13:57:55,543437
0,-1,-1,0,0,0,-2,-1,2021-08-06 13:57:55,543437
-1,-1,0,-1,-2,-1,-1,-1,2021-08-06 13:57:55,543437
0,0,-1,-2,-1,0,-1,-1,2021-08-06 13:57:55,543437
-1,-1,-1,-1,-3,-3,-2,-2,2021-08-06 13:57:55,543437
-2,0,-1,-2,-1,0,0,-1,2021-08-06 13:57:55,543437
-2,-2,-2,-5,-2,-2,-1,0,2021-08-06 13:57:55,543437
0,-3,-3,-1,-6,-4,-3,-1,2021-08-06 13:57:55,543437
1,1,2,5,9,5,2,2,2021-08-06 13:57:55,543437
0,-2,-1,0,-1,0,-1,0,2021-08-06 13:57:55,543437
-2,-1,0,0,-2,0,-2,0,2021-08-06 13:57:55,574439
-1,-1,0,-1,0,-1,0,-1,2021-08-06 13:57:55,574439
-1,-1,-2,-5,-5,-4,-2,-1,2021-08-06 13:57:55,574439
-1,-2,1,-2,-3,-1,-2,-1,2021-08-06 13:57:55,574439
0,-1,0,-1,1,-1,1,-1,2021-08-06 13:57:55,574439
0,0,-1,-3,-3,-1,-1,-1,2021-08-06 13:57:55,574439
1,-2,0,1,0,-1,-1,-1,2021-08-06 13:57:55,606438
-1,0,0,1,1,-1,-1,-1,2021-08-06 13:57:55,622438
-2,-2,-3,-3,-3,-1,-1,-2,2021-08-06 13:57:55,638439
0,1,-1,1,4,0,1,0,2021-08-06 13:57:55,638439
-1,-1,-3,-3,-3,-1,-1,1,2021-08-06 13:57:55,638439
-2,-3,-3,-8,-9,-7,-4,-4,2021-08-06 13:57:55,638439
2,2,5,10,14,9,4,2,2021-08-06 13:57:55,638439
-2,1,0,1,0,1,0,-2,2021-08-06 13:57:55,638439
1,0,-3,-2,0,1,-1,0,2021-08-06 13:57:55,638439
0,0,1,1,1,0,0,1,2021-08-06 13:57:55,639440
-1,-2,-2,-5,-8,-4,-3,-3,2021-08-06 13:57:55,639440
-1,-1,-1,1,3,3,0,-1,2021-08-06 13:57:55,639440
-2,0,0,0,-1,-1,0,-1,2021-08-06 13:57:55,654440
-1,-1,-1,-1,0,-3,-1,-1,2021-08-06 13:57:55,654440
-1,-1,-1,-3,-2,-5,-1,-1,2021-08-06 13:57:55,654440
0,0,-1,1,-1,-2,-1,-1,2021-08-06 13:57:55,654440
-1,-1,-1,-2,-2,-1,0,-1,2021-08-06 13:57:55,654440
0,-2,-2,-2,-2,-2,-1,0,2021-08-06 13:57:55,654440
-1,-1,-1,1,2,2,2,0,2021-08-06 13:57:55,684439
1,-2,-2,1,6,4,1,0,2021-08-06 13:57:55,684439
-1,-2,-3,-1,-2,0,-2,0,2021-08-06 13:57:55,684439
-1,-3,-1,1,2,3,2,-1,2021-08-06 13:57:55,684439
-1,0,0,1,-1,-1,-1,-1,2021-08-06 13:57:55,700437
-3,0,-1,-3,-8,-4,-2,-2,2021-08-06 13:57:55,700437
-1,2,-1,0,-1,0,-2,-3,2021-08-06 13:57:55,700437
0,-1,0,0,1,-2,-3,-2,2021-08-06 13:57:55,700437
-2,-1,-1,-3,-3,-3,-1,-1,2021-08-06 13:57:55,727439
0,-2,-1,0,1,-1,-1,-1,2021-08-06 13:57:55,727439
1,0,0,-3,-3,-1,1,1,2021-08-06 13:57:55,727439
1,0,0,1,0,1,2,2,2021-08-06 13:57:55,727439
0,1,1,2,5,3,1,1,2021-08-06 13:57:55,745438
-2,-1,-1,-1,-2,-1,-2,1,2021-08-06 13:57:55,745438
-1,-3,-2,-3,-5,-4,-2,-2,2021-08-06 13:57:55,745438
-1,-1,-2,-1,-3,-2,-3,-1,2021-08-06 13:57:55,745969
1,-2,0,1,-1,-3,-2,-3,2021-08-06 13:57:55,760984
-1,-1,1,1,3,3,1,0,2021-08-06 13:57:55,760984
-1,-2,0,2,0,-1,-1,-1,2021-08-06 13:57:55,760984
0,0,0,-3,-3,0,0,0,2021-08-06 13:57:55,760984
-3,-3,-4,-7,-11,-5,-3,-1,2021-08-06 13:57:55,791949
0,0,0,0,0,-2,-1,0,2021-08-06 13:57:55,807949
-1,-1,-1,0,0,-2,-2,-1,2021-08-06 13:57:55,823950
0,1,-2,1,5,2,2,2,2021-08-06 13:57:55,823950
-2,-2,-2,-3,-4,-3,-3,-2,2021-08-06 13:57:55,823950
1,0,-2,-4,-6,-2,-1,-1,2021-08-06 13:57:55,823950
-1,-2,0,-1,0,0,-1,-2,2021-08-06 13:57:55,823950
0,0,-1,0,0,0,-1,-1,2021-08-06 13:57:55,823950
0,-1,-1,-2,-1,-1,0,-1,2021-08-06 13:57:55,823950
-4,0,-2,-2,-4,-3,-2,-1,2021-08-06 13:57:55,824951
0,0,1,0,3,0,0,-1,2021-08-06 13:57:55,839950
-1,0,-1,-2,-1,-3,-1,-1,2021-08-06 13:57:55,855949
-2,-1,-1,-2,0,0,-1,-1,2021-08-06 13:57:55,855949
-1,-3,-1,0,-2,-2,-2,-1,2021-08-06 13:57:55,855949
-3,-2,-2,-1,-4,-2,-2,-1,2021-08-06 13:57:55,855949
-1,-1,-3,-3,-2,0,-1,-2,2021-08-06 13:57:55,855949
1,0,2,5,7,5,1,-1,2021-08-06 13:57:55,855949
1,-1,0,-1,0,-2,-1,-3,2021-08-06 13:57:55,855949
-2,-3,-4,-8,-10,-6,-2,-1,2021-08-06 13:57:55,856951
1,1,3,6,8,3,2,0,2021-08-06 13:57:55,856951
1,0,-1,1,2,0,1,-1,2021-08-06 13:57:55,887949
-1,-1,-1,2,-1,-2,-2,-1,2021-08-06 13:57:55,887949
-1,-1,-1,1,2,1,0,-1,2021-08-06 13:57:55,887949
-1,0,-2,-3,-6,-3,-1,0,2021-08-06 13:57:55,887949
0,0,-1,-1,-1,-1,0,0,2021-08-06 13:57:55,903950
-2,-1,0,-2,-5,-1,-1,0,2021-08-06 13:57:55,903950
2,-1,1,-1,1,0,0,-2,2021-08-06 13:57:55,903950
0,-1,-1,0,-1,-1,0,0,2021-08-06 13:57:55,903950
-2,-1,-1,0,-4,-1,-2,0,2021-08-06 13:57:55,934953
-1,-2,-2,-3,-4,-2,-1,-1,2021-08-06 13:57:55,950949
0,0,1,0,0,1,0,2,2021-08-06 13:57:55,966178
-1,-1,1,2,2,3,1,1,2021-08-06 13:57:55,966178
-1,-2,-3,-5,-6,-3,-4,-2,2021-08-06 13:57:55,966178
-1,1,0,1,4,2,1,0,2021-08-06 13:57:55,966178
0,2,2,6,7,2,0,0,2021-08-06 13:57:55,966178
-2,-3,-2,-2,-2,0,1,0,2021-08-06 13:57:55,966178
-1,0,-1,-2,0,-3,0,0,2021-08-06 13:57:55,966950
0,-3,-3,-6,-6,-4,-1,-4,2021-08-06 13:57:55,966950
1,0,0,1,2,3,3,-1,2021-08-06 13:57:55,966950
-3,-1,0,0,-2,-1,-1,-1,2021-08-06 13:57:55,966950
0,-3,-1,-1,-2,0,0,-1,2021-08-06 13:57:55,981459
-1,0,-4,-4,-4,-5,-1,-3,2021-08-06 13:57:55,981459
0,0,-1,4,9,3,0,-1,2021-08-06 13:57:55,981459
0,-1,1,-2,-2,-2,-3,-2,2021-08-06 13:57:55,981459
-2,1,0,-1,-2,-1,-3,0,2021-08-06 13:57:55,997460
-1,-1,-2,-3,-1,-3,-1,0,2021-08-06 13:57:55,997460
2,1,0,1,3,2,0,0,2021-08-06 13:57:56,013459
-1,-3,-1,-2,-4,-4,-1,-1,2021-08-06 13:57:56,029459
1,1,0,4,4,1,1,0,2021-08-06 13:57:56,045459
1,0,-1,-1,-2,-2,-1,2,2021-08-06 13:57:56,061460
-4,-2,-1,-2,-2,-3,-1,-1,2021-08-06 13:57:56,061460
-1,-3,-2,-1,1,-1,-1,-1,2021-08-06 13:57:56,061460
-2,-1,0,-2,-4,-3,0,-1,2021-08-06 13:57:56,061460
0,-1,-1,1,2,2,1,0,2021-08-06 13:57:56,061460
-2,0,-1,-3,-5,-5,0,-1,2021-08-06 13:57:56,061460
-2,-1,-4,0,2,1,-2,-1,2021-08-06 13:57:56,061460
-1,-2,-3,-3,-3,0,-1,0,2021-08-06 13:57:56,061460
-2,0,2,1,3,2,1,-1,2021-08-06 13:57:56,061460
-1,-2,-3,-3,-5,-3,-3,-1,2021-08-06 13:57:56,062460
-1,0,-1,-2,-3,-2,-2,-1,2021-08-06 13:57:56,062460
0,2,-2,-4,-4,-1,1,0,2021-08-06 13:57:56,092460
-1,-2,1,5,6,2,-2,1,2021-08-06 13:57:56,092460
-2,-2,-1,-3,-7,-3,-2,-2,2021-08-06 13:57:56,092460
-1,-1,-2,-6,-7,-4,-1,0,2021-08-06 13:57:56,092460
0,0,1,3,5,3,0,0,2021-08-06 13:57:56,096459
1,0,0,7,12,6,3,0,2021-08-06 13:57:56,096459
-1,-1,-1,-2,-3,-2,-1,-1,2021-08-06 13:57:56,097461
-1,-1,0,-1,-5,-1,-3,-2,2021-08-06 13:57:56,097461
-2,-2,-1,-8,-7,-6,-2,-1,2021-08-06 13:57:56,123461
-1,-1,-1,-3,-5,-2,0,-1,2021-08-06 13:57:56,139460
-1,-2,0,2,3,0,-1,0,2021-08-06 13:57:56,155459
0,0,0,-2,1,0,1,0,2021-08-06 13:57:56,155459
-1,-1,-2,2,-1,-1,-1,0,2021-08-06 13:57:56,155459
0,0,0,-1,0,1,-1,-2,2021-08-06 13:57:56,155459
-1,1,-2,-1,-3,-1,-1,-1,2021-08-06 13:57:56,155459
-1,-1,0,0,-1,-1,-1,-1,2021-08-06 13:57:56,155459
0,-1,0,6,6,1,0,-1,2021-08-06 13:57:56,155459
-1,-3,-1,0,-2,-2,-1,-1,2021-08-06 13:57:56,155459
0,0,-3,-1,-3,-2,1,-1,2021-08-06 13:57:56,171459
0,-1,-1,-1,-1,-1,0,1,2021-08-06 13:57:56,171459
-1,-2,-1,-3,-2,-4,-2,-1,2021-08-06 13:57:56,187487
-1,1,0,4,6,3,0,0,2021-08-06 13:57:56,203486
-1,-1,-2,-1,0,-2,0,0,2021-08-06 13:57:56,219488
-1,0,0,1,2,2,-1,-2,2021-08-06 13:57:56,219488
0,-1,-2,-2,-2,-3,0,0,2021-08-06 13:57:56,219488
0,-2,-2,-5,-7,-5,-4,-2,2021-08-06 13:57:56,219488
0,-1,-1,-1,-2,1,-1,0,2021-08-06 13:57:56,219488
-2,-1,-1,2,4,1,-1,-3,2021-08-06 13:57:56,219488
0,2,3,3,3,2,1,1,2021-08-06 13:57:56,220487
-2,-1,-2,-4,-5,-2,-1,-1,2021-08-06 13:57:56,220487
-1,-1,-2,0,-1,0,-1,-2,2021-08-06 13:57:56,220487
1,-1,0,-1,-4,-2,-2,1,2021-08-06 13:57:56,220487
-2,-2,-1,-1,-3,0,-2,-1,2021-08-06 13:57:56,251486
-1,-3,-2,-2,0,-1,-2,1,2021-08-06 13:57:56,251486
-1,-1,-1,-4,-4,-3,-3,-1,2021-08-06 13:57:56,251486
-1,-2,-1,-2,-2,-1,-2,0,2021-08-06 13:57:56,267486
1,1,0,1,6,4,1,1,2021-08-06 13:57:56,283486
-1,-1,0,-3,-5,-4,-1,1,2021-08-06 13:57:56,283486
0,-2,-2,-1,-2,-2,-2,-3,2021-08-06 13:57:56,283486
-2,-1,0,3,2,-1,-1,-2,2021-08-06 13:57:56,283486
0,-2,-1,-2,-3,-3,-1,-2,2021-08-06 13:57:56,283486
-1,0,-2,-5,-6,-2,-1,-2,2021-08-06 13:57:56,283486
0,1,0,3,4,3,1,1,2021-08-06 13:57:56,299486
-1,1,-2,-2,-3,-2,-1,-1,2021-08-06 13:57:56,314488
-4,-3,-5,-3,-9,-7,-5,-4,2021-08-06 13:57:56,330486
2,-1,0,1,6,6,2,0,2021-08-06 13:57:56,345487
-1,-2,0,-1,-1,-2,-1,-2,2021-08-06 13:57:56,345487
-1,0,0,0,1,1,1,0,2021-08-06 13:57:56,345487
-3,-3,0,0,0,0,0,-2,2021-08-06 13:57:56,345487
-3,1,-2,-2,-4,-4,-2,-3,2021-08-06 13:57:56,345487
0,0,-1,-1,1,-1,-1,-1,2021-08-06 13:57:56,345487
-1,-2,0,-4,-2,-2,-2,-1,2021-08-06 13:57:56,345487
0,-1,-1,-3,-2,0,0,1,2021-08-06 13:57:56,345487
-2,-1,-3,-3,-5,-4,1,-1,2021-08-06 13:57:56,345487
0,1,5,7,10,7,4,1,2021-08-06 13:57:56,345487
-1,-3,-4,0,-2,-3,0,-3,2021-08-06 13:57:56,346489
0,-2,-2,-2,-1,-3,-2,-1,2021-08-06 13:57:56,376486
1,0,0,1,1,-2,-1,-1,2021-08-06 13:57:56,391741
-2,-1,-3,-7,-9,-5,-2,-1,2021-08-06 13:57:56,406995
2,0,-1,1,5,2,3,1,2021-08-06 13:57:56,406995
-3,-1,0,0,0,0,-1,-2,2021-08-06 13:57:56,406995
1,-1,0,0,-1,-1,-1,-1,2021-08-06 13:57:56,406995
-2,-2,-1,-1,-5,-1,2,1,2021-08-06 13:57:56,406995
0,0,0,-1,-3,2,0,0,2021-08-06 13:57:56,406995
-1,-3,-2,0,-2,-6,-7,-4,2021-08-06 13:57:56,406995
-5,-4,-1,-3,-2,-5,-8,-6,2021-08-06 13:57:56,407996
-1,-1,0,-3,-2,-1,-1,-1,2021-08-06 13:57:56,407996
2,0,0,2,2,8,9,2,2021-08-06 13:57:56,407996
-1,-1,-3,-2,-4,-2,-4,-2,2021-08-06 13:57:56,422995
-1,-1,1,1,0,-6,-6,-3,2021-08-06 13:57:56,422995
-2,-2,-2,0,-2,-3,0,0,2021-08-06 13:57:56,422995
-2,0,0,0,-4,-5,-6,-3,2021-08-06 13:57:56,422995
0,1,0,-1,2,3,6,2,2021-08-06 13:57:56,438999
1,-2,-1,0,2,4,3,2,2021-08-06 13:57:56,453994
-1,-2,-2,-1,0,-1,-1,-2,2021-08-06 13:57:56,463996
-2,-1,-2,-1,-2,0,1,0,2021-08-06 13:57:56,464996
-1,-2,-1,-1,0,0,-1,-2,2021-08-06 13:57:56,464996
2,2,2,1,-2,1,2,0,2021-08-06 13:57:56,464996
-1,-2,-3,-1,-2,-4,-6,-2,2021-08-06 13:57:56,464996
0,0,-1,-1,-1,-2,-3,-2,2021-08-06 13:57:56,464996
-3,-2,0,-1,1,-2,0,-2,2021-08-06 13:57:56,484995
-2,-5,-4,-7,-9,-5,-3,-2,2021-08-06 13:57:56,484995
2,1,4,6,9,7,3,1,2021-08-06 13:57:56,484995
-3,-3,-2,-5,-6,-7,-5,-5,2021-08-06 13:57:56,484995
0,-2,-2,0,0,1,3,1,2021-08-06 13:57:56,500994
1,1,1,3,6,6,4,2,2021-08-06 13:57:56,500994
-1,0,-2,-3,-6,-3,-3,-2,2021-08-06 13:57:56,500994
-1,-3,0,-3,-3,-5,-3,-1,2021-08-06 13:57:56,500994
0,-2,-2,0,0,0,-2,0,2021-08-06 13:57:56,530996
-2,1,-2,-5,-4,0,0,0,2021-08-06 13:57:56,530996
-1,-2,-3,-2,-3,-4,-3,-3,2021-08-06 13:57:56,530996
-1,0,-1,-2,1,1,0,0,2021-08-06 13:57:56,530996
-1,-2,1,-2,-8,-5,-2,-2,2021-08-06 13:57:56,545994
0,2,1,3,7,2,1,0,2021-08-06 13:57:56,545994
3,1,0,0,6,0,2,2,2021-08-06 13:57:56,545994
0,-2,-1,-1,-4,-2,-1,-1,2021-08-06 13:57:56,545994
-1,-1,-2,-3,-2,-1,-3,0,2021-08-06 13:57:56,560994
-2,-3,0,2,1,0,0,-1,2021-08-06 13:57:56,560994
-4,-4,-2,-4,-6,-2,-2,-2,2021-08-06 13:57:56,560994
-4,-3,-6,-8,-6,-2,-1,-1,2021-08-06 13:57:56,560994
4,5,5,9,15,7,5,2,2021-08-06 13:57:56,591994
0,-1,-2,-3,-6,-6,-3,-3,2021-08-06 13:57:56,591994
-1,0,0,4,1,1,0,0,2021-08-06 13:57:56,591994
-1,0,1,-3,-5,-4,-2,-1,2021-08-06 13:57:56,591994
-1,-1,0,1,2,1,-1,2,2021-08-06 13:57:56,606995
-1,-3,-4,-9,-5,-1,-1,-1,2021-08-06 13:57:56,606995
-1,-2,-1,2,2,0,-1,-2,2021-08-06 13:57:56,606995
0,1,1,3,2,3,0,2,2021-08-06 13:57:56,606995
-1,-1,-1,-1,-4,0,3,0,2021-08-06 13:57:56,622995
-1,-1,1,-1,-4,-3,-4,-3,2021-08-06 13:57:56,622995
-1,-1,2,4,8,3,0,-1,2021-08-06 13:57:56,622995
0,3,3,6,6,4,5,0,2021-08-06 13:57:56,622995
0,0,-2,-3,-4,-3,-6,-2,2021-08-06 13:57:56,652996
-1,-2,-3,-2,-4,-5,-4,-2,2021-08-06 13:57:56,652996
-1,-3,-2,-4,-1,-2,-2,0,2021-08-06 13:57:56,652996
2,0,0,-1,2,-1,-1,0,2021-08-06 13:57:56,652996
0,-2,-2,0,0,1,0,-1,2021-08-06 13:57:56,667994
-1,-2,-1,2,1,0,-2,-1,2021-08-06 13:57:56,667994
-1,-3,-3,-7,-11,-4,-1,0,2021-08-06 13:57:56,667994
-1,-2,1,3,4,1,0,-1,2021-08-06 13:57:56,667994
-2,-2,-2,-5,-6,-4,-3,-2,2021-08-06 13:57:56,683996
1,3,3,7,7,7,4,1,2021-08-06 13:57:56,699996
-1,1,0,3,3,0,-1,0,2021-08-06 13:57:56,715994
-3,-4,-4,-4,-8,-5,-2,-4,2021-08-06 13:57:56,715994
-2,-5,-3,-1,-6,-4,-1,-1,2021-08-06 13:57:56,715994
-1,-3,0,0,-3,0,-1,0,2021-08-06 13:57:56,715994
0,0,-2,-6,-2,-1,-2,-1,2021-08-06 13:57:56,715994
2,4,5,8,10,7,2,4,2021-08-06 13:57:56,715994
-1,0,-1,0,-1,-1,-3,-1,2021-08-06 13:57:56,731995
-2,-1,-2,-6,0,-1,-1,-2,2021-08-06 13:57:56,747995
-4,-4,-4,-9,-16,-8,-5,-3,2021-08-06 13:57:56,763994
1,1,1,4,8,3,-2,2,2021-08-06 13:57:56,763994
-1,1,-2,-3,-7,-2,-1,-1,2021-08-06 13:57:56,763994
-1,-5,-4,-3,-4,-4,-2,-1,2021-08-06 13:57:56,763994
0,4,2,6,15,7,5,3,2021-08-06 13:57:56,763994
-1,-3,-2,-4,-3,-3,-1,-3,2021-08-06 13:57:56,763994
-2,-2,-1,-5,-3,-2,-1,-1,2021-08-06 13:57:56,763994
0,4,4,8,7,2,0,-1,2021-08-06 13:57:56,763994
-3,-3,-1,-5,-7,-4,-3,-2,2021-08-06 13:57:56,763994
3,3,0,11,14,8,6,3,2021-08-06 13:57:56,764996
-7,-7,-13,-20,-20,-15,-8,-4,2021-08-06 13:57:56,795996
-2,-5,-8,-14,-22,-11,-4,-2,2021-08-06 13:57:56,810994
3,3,11,32,30,12,3,3,2021-08-06 13:57:56,810994
7,8,3,7,6,6,2,3,2021-08-06 13:57:56,810994
-2,-3,-5,-30,-1,0,-1,-3,2021-08-06 13:57:56,810994
-2,4,2,-10,-9,-8,-3,0,2021-08-06 13:57:56,810994
-5,-7,-9,1,1,0,-4,-5,2021-08-06 13:57:56,810994
2,-3,2,13,10,2,1,0,2021-08-06 13:57:56,810994
1,3,5,17,4,1,-1,-2,2021-08-06 13:57:56,825994
-5,-3,-1,-4,-2,-3,-3,-3,2021-08-06 13:57:56,827994
4,8,12,7,-1,1,2,1,2021-08-06 13:57:56,827994
-3,-4,-1,5,-5,-4,-3,-4,2021-08-06 13:57:56,828996
-4,-7,-18,-28,-22,-9,-3,-4,2021-08-06 13:57:56,855995
2,1,2,5,24,19,5,3,2021-08-06 13:57:56,871994
-4,-5,-10,-19,-22,-12,-5,-4,2021-08-06 13:57:56,871994
-1,4,18,23,9,2,0,-1,2021-08-06 13:57:56,871994
6,9,14,39,27,13,6,6,2021-08-06 13:57:56,871994
0,-5,-18,-15,-16,-5,-1,0,2021-08-06 13:57:56,871994
-15,-22,-29,-70,-41,-23,-12,-11,2021-08-06 13:57:56,871994
-7,-10,-18,-33,-31,-21,-11,-6,2021-08-06 13:57:56,871994
7,8,16,25,23,15,9,5,2021-08-06 13:57:56,887995
0,4,8,14,0,-4,-2,0,2021-08-06 13:57:56,887995
5,7,11,26,19,14,7,4,2021-08-06 13:57:56,887995
-1,0,6,10,3,2,-1,-1,2021-08-06 13:57:56,887995
-2,-2,-1,-2,-10,-8,-4,-2,2021-08-06 13:57:56,903998
-2,-1,-3,-1,0,0,1,-1,2021-08-06 13:57:56,919994
-3,-5,-12,-22,-14,-9,-5,-4,2021-08-06 13:57:56,935997
-4,-6,-14,-21,-15,-8,-3,-1,2021-08-06 13:57:56,935997
-1,1,1,4,4,4,2,2,2021-08-06 13:57:56,935997
-1,1,4,6,-3,-3,-1,-2,2021-08-06 13:57:56,935997
1,2,5,3,-6,-2,-1,0,2021-08-06 13:57:56,935997
2,0,4,12,11,6,1,0,2021-08-06 13:57:56,935997
0,0,2,8,18,9,4,0,2021-08-06 13:57:56,935997
-1,-2,0,2,7,2,0,1,2021-08-06 13:57:56,935997
3,2,-2,-4,-11,-4,1,4,2021-08-06 13:57:56,951996
4,5,6,8,17,8,3,2,2021-08-06 13:57:56,951996
-3,-4,-3,-5,-8,-5,-5,-3,2021-08-06 13:57:56,967994
-5,-6,-5,-6,-9,-7,-5,-5,2021-08-06 13:57:56,967994
2,3,3,11,4,3,0,0,2021-08-06 13:57:56,967994
-2,-1,-3,-13,-7,-4,-1,0,2021-08-06 13:57:56,967994
-1,-2,-2,-8,-10,-5,-1,-3,2021-08-06 13:57:56,999994
0,0,2,8,10,4,1,0,2021-08-06 13:57:57,015994
-2,-1,0,-2,-2,-2,-1,-1,2021-08-06 13:57:57,031994
-1,0,-2,-11,-9,-1,-1,-1,2021-08-06 13:57:57,031994
-2,-2,-2,2,0,1,-1,-2,2021-08-06 13:57:57,031994
-2,-2,-1,-5,-9,-5,-3,-3,2021-08-06 13:57:57,031994
5,5,6,11,18,9,6,4,2021-08-06 13:57:57,031994
-5,-4,-2,-5,-5,-4,-3,-3,2021-08-06 13:57:57,031994
-5,-6,-7,-9,-9,-5,-4,-4,2021-08-06 13:57:57,031994
1,0,1,1,1,-1,2,0,2021-08-06 13:57:57,032998
3,2,4,4,1,1,2,1,2021-08-06 13:57:57,032998
-2,-2,-5,-7,-9,-4,-3,-2,2021-08-06 13:57:57,032998
-2,-1,0,6,6,2,-1,-1,2021-08-06 13:57:57,047996
-4,-3,-1,3,4,0,-2,-3,2021-08-06 13:57:57,047996
6,7,8,17,22,15,8,5,2021-08-06 13:57:57,047996
-2,-4,-7,-11,-6,-5,-3,-1,2021-08-06 13:57:57,047996
0,0,1,-5,-11,-6,-2,-1,2021-08-06 13:57:57,063994
-1,-3,-2,-1,1,-3,-1,-1,2021-08-06 13:57:57,063994
-3,-4,-5,-9,-20,-11,-6,-4,2021-08-06 13:57:57,079994
0,-2,-1,-2,1,0,0,-1,2021-08-06 13:57:57,094994
-2,-3,-3,-9,-8,-5,-3,-2,2021-08-06 13:57:57,125995
2,0,0,7,10,6,2,2,2021-08-06 13:57:57,141996
0,2,2,5,2,1,1,0,2021-08-06 13:57:57,141996
0,0,1,2,1,1,3,-1,2021-08-06 13:57:57,141996
1,-2,-2,1,5,2,0,0,2021-08-06 13:57:57,141996
0,-2,-6,-17,-12,-5,-2,-2,2021-08-06 13:57:57,141996
-7,-8,-5,-8,-13,-8,-6,-6,2021-08-06 13:57:57,141996
3,4,5,12,13,6,3,0,2021-08-06 13:57:57,141996
1,2,0,-4,-1,-1,2,0,2021-08-06 13:57:57,141996
0,2,3,-3,-6,-1,0,1,2021-08-06 13:57:57,141996
-4,-4,-6,-10,-9,-7,-4,-3,2021-08-06 13:57:57,141996
-3,-2,-4,-7,-12,-3,-1,1,2021-08-06 13:57:57,141996
-2,-3,-2,-3,-1,0,-2,0,2021-08-06 13:57:57,142996
2,2,1,6,7,3,2,1,2021-08-06 13:57:57,142996
1,1,1,7,8,3,-2,-1,2021-08-06 13:57:57,157994
-1,-3,-2,-3,-1,-3,-3,-2,2021-08-06 13:57:57,173996
-2,-3,-6,-13,-18,-9,-4,-1,2021-08-06 13:57:57,189996
1,1,2,6,8,2,1,-2,2021-08-06 13:57:57,198994
-3,-4,-5,-3,0,-3,-3,-5,2021-08-06 13:57:57,198994
0,2,1,-6,-9,-3,0,0,2021-08-06 13:57:57,198994
1,1,3,10,11,5,2,1,2021-08-06 13:57:57,198994
1,0,0,0,0,2,0,2,2021-08-06 13:57:57,198994
-3,-4,-6,-12,-11,-6,-5,-2,2021-08-06 13:57:57,199997
-4,-4,-5,-3,-5,-1,-4,-2,2021-08-06 13:57:57,199997
-2,-2,2,8,6,1,-1,-1,2021-08-06 13:57:57,199997
1,1,-4,-8,-10,-5,-2,1,2021-08-06 13:57:57,199997
0,0,-1,-6,7,3,-1,0,2021-08-06 13:57:57,199997
0,0,1,6,9,6,3,0,2021-08-06 13:57:57,199997
0,-1,1,3,5,2,2,2,2021-08-06 13:57:57,237995
-3,-1,-1,0,-6,-5,-3,-4,2021-08-06 13:57:57,253995
2,0,-1,-3,-2,-1,-1,1,2021-08-06 13:57:57,269994
-1,-1,0,1,0,-3,-2,-2,2021-08-06 13:57:57,269994
-1,1,0,6,8,2,-1,-1,2021-08-06 13:57:57,269994
-2,-2,-4,-6,-8,-3,-3,-2,2021-08-06 13:57:57,269994
2,2,5,4,3,4,3,4,2021-08-06 13:57:57,269994
-3,-3,-2,-4,-9,-6,-3,-3,2021-08-06 13:57:57,269994
0,2,4,0,-1,-1,0,-1,2021-08-06 13:57:57,269994
0,-2,1,15,15,5,3,2,2021-08-06 13:57:57,270996
0,2,2,13,10,7,2,-1,2021-08-06 13:57:57,270996
1,-3,-7,-2,8,6,1,2,2021-08-06 13:57:57,270996
-5,-7,-6,-34,-20,-8,-6,-3,2021-08-06 13:57:57,285996
-4,-4,-5,-5,4,1,-2,-3,2021-08-06 13:57:57,285996
-2,-2,-3,1,-7,-6,-3,-1,2021-08-06 13:57:57,285996
-2,0,1,3,-5,-6,-3,-2,2021-08-06 13:57:57,285996
4,4,3,11,6,3,3,2,2021-08-06 13:57:57,301997
2,0,9,12,11,4,0,0,2021-08-06 13:57:57,316994
2,2,8,14,3,0,0,1,2021-08-06 13:57:57,363994
-4,-3,-9,-12,-14,-7,-4,-4,2021-08-06 13:57:57,363994
-1,-2,-10,-19,3,2,0,0,2021-08-06 13:57:57,363994
-2,0,-1,-4,-5,-4,-3,1,2021-08-06 13:57:57,363994
0,0,-2,4,6,6,3,-1,2021-08-06 13:57:57,363994
-1,-2,1,1,3,-2,-3,-3,2021-08-06 13:57:57,363994
-1,0,0,8,0,0,-2,-2,2021-08-06 13:57:57,363994
2,2,4,9,6,5,3,2,2021-08-06 13:57:57,364996
-2,-2,-1,-13,-15,-8,-3,-2,2021-08-06 13:57:57,364996
-2,-3,-2,-9,-3,-2,-2,0,2021-08-06 13:57:57,364996
-2,-3,-8,8,-2,-3,-2,-4,2021-08-06 13:57:57,364996
-1,-3,-6,-14,-7,-2,-1,0,2021-08-06 13:57:57,364996
-1,-3,0,-6,-6,-4,-2,-2,2021-08-06 13:57:57,364996
1,4,8,15,17,8,4,1,2021-08-06 13:57:57,364996
0,1,0,5,4,1,1,0,2021-08-06 13:57:57,394994
-4,-2,5,-3,-9,-4,-3,-4,2021-08-06 13:57:57,410994
-2,-3,-8,-8,0,0,-1,-1,2021-08-06 13:57:57,426994
-2,-2,-4,5,2,2,0,-1,2021-08-06 13:57:57,426994
0,-1,-4,-7,0,1,1,-1,2021-08-06 13:57:57,426994
-1,0,1,-6,2,2,1,-1,2021-08-06 13:57:57,426994
-5,-4,-11,-3,-3,-4,-5,-4,2021-08-06 13:57:57,426994
1,2,9,7,4,2,1,1,2021-08-06 13:57:57,426994
1,-1,5,15,-3,-2,-2,0,2021-08-06 13:57:57,426994
0,-4,-13,-15,-7,-2,0,-1,2021-08-06 13:57:57,426994
-2,-3,3,-4,4,2,0,-2,2021-08-06 13:57:57,426994
-2,0,-3,-6,-11,-5,-4,0,2021-08-06 13:57:57,427997
-2,-2,1,-4,-2,-3,0,-1,2021-08-06 13:57:57,442994
0,-2,-2,-4,-7,-6,0,-1,2021-08-06 13:57:57,457995
3,4,6,17,22,11,7,4,2021-08-06 13:57:57,472997
-1,-4,-6,-13,-15,-8,-3,-3,2021-08-06 13:57:57,472997
1,3,10,15,14,6,1,1,2021-08-06 13:57:57,472997
-2,-1,-5,-3,-4,-3,-1,-2,2021-08-06 13:57:57,472997
4,5,6,22,25,12,5,4,2021-08-06 13:57:57,472997
-3,-4,-7,-25,-20,-10,-4,-4,2021-08-06 13:57:57,472997
-4,-3,-5,-10,-14,-10,-6,-3,2021-08-06 13:57:57,488997
-1,-1,1,10,8,5,2,1,2021-08-06 13:57:57,488997
0,1,1,8,4,4,2,1,2021-08-06 13:57:57,488997
3,3,3,-2,12,8,4,2,2021-08-06 13:57:57,488997
-4,-6,-5,-16,-17,-10,-6,-6,2021-08-06 13:57:57,504996
-4,-2,-8,6,-4,-3,-4,-2,2021-08-06 13:57:57,520995
-1,-2,2,-7,-12,-8,-5,-5,2021-08-06 13:57:57,520995
3,3,3,16,9,3,2,1,2021-08-06 13:57:57,520995
2,1,-1,-2,0,3,2,2,2021-08-06 13:57:57,520995
-3,-4,-2,-28,-12,-5,-4,-2,2021-08-06 13:57:57,520995
-2,-6,-10,-3,-9,-5,-3,-2,2021-08-06 13:57:57,535996
-2,-3,-5,-2,-3,-2,-2,-2,2021-08-06 13:57:57,535996
-2,0,3,8,-2,0,0,-2,2021-08-06 13:57:57,535996
4,5,10,24,16,6,3,2,2021-08-06 13:57:57,535996
3,2,-2,-6,-9,-1,2,1,2021-08-06 13:57:57,551998
-1,-5,-14,-19,-5,-2,-2,-1,2021-08-06 13:57:57,551998
-1,0,0,5,10,5,3,1,2021-08-06 13:57:57,564994
0,1,2,-1,-6,-5,-3,-1,2021-08-06 13:57:57,564994
1,-1,4,2,-4,-4,-3,-2,2021-08-06 13:57:57,564994
0,1,4,8,3,0,1,1,2021-08-06 13:57:57,564994
-2,-2,-8,-12,-15,-6,-4,-2,2021-08-06 13:57:57,599994
-1,-1,-3,-2,14,7,1,-1,2021-08-06 13:57:57,615994
-1,-3,-5,-15,-16,-5,-3,-2,2021-08-06 13:57:57,631996
0,1,8,18,20,7,3,0,2021-08-06 13:57:57,631996
1,2,5,9,1,-2,-1,-1,2021-08-06 13:57:57,631996
0,-1,-2,1,-15,-7,-2,-1,2021-08-06 13:57:57,631996
-1,1,-2,-10,5,-1,-2,-1,2021-08-06 13:57:57,631996
-6,-9,-13,-30,-19,-8,-5,-5,2021-08-06 13:57:57,631996
1,-1,-7,-4,5,2,1,0,2021-08-06 13:57:57,631996
-1,-1,-2,7,2,-1,-2,-4,2021-08-06 13:57:57,632996
0,1,3,7,4,1,0,0,2021-08-06 13:57:57,632996
1,1,4,6,-5,-2,-1,0,2021-08-06 13:57:57,632996
0,0,-1,3,-1,-2,-1,0,2021-08-06 13:57:57,647996
0,0,3,0,5,3,0,0,2021-08-06 13:57:57,663994
-1,0,0,-4,-13,-6,-4,-1,2021-08-06 13:57:57,663994
-4,-2,-4,-1,10,5,-1,-2,2021-08-06 13:57:57,663994
-2,-6,-8,-19,-11,-5,-4,-4,2021-08-06 13:57:57,663994
0,-2,5,6,1,0,-1,-1,2021-08-06 13:57:57,663994
3,3,6,32,23,7,4,3,2021-08-06 13:57:57,663994
4,5,12,31,-5,-4,0,1,2021-08-06 13:57:57,663994
-1,-3,-18,-44,-11,-1,-1,-3,2021-08-06 13:57:57,694996
-11,-16,-23,-72,-33,-14,-9,-7,2021-08-06 13:57:57,694996
-3,0,3,9,7,-1,-2,-1,2021-08-06 13:57:57,694996
3,6,12,40,18,7,3,3,2021-08-06 13:57:57,694996
6,6,10,39,14,7,6,5,2021-08-06 13:57:57,710994
-3,-8,-31,-68,-28,-10,-6,-3,2021-08-06 13:57:57,710994
-5,-2,15,11,0,-8,-7,-6,2021-08-06 13:57:57,710994
3,5,21,48,22,11,5,3,2021-08-06 13:57:57,710994
-2,-2,-11,11,-1,0,0,-3,2021-08-06 13:57:57,726996
-9,-18,-32,-76,-33,-15,-6,-5,2021-08-06 13:57:57,726996
3,5,-5,18,12,6,5,3,2021-08-06 13:57:57,726996
0,3,5,8,6,0,-2,-1,2021-08-06 13:57:57,726996
5,7,20,10,3,2,4,5,2021-08-06 13:57:57,742994
-11,-10,-12,-8,-47,-29,-15,-11,2021-08-06 13:57:57,758994
7,5,12,21,47,29,13,8,2021-08-06 13:57:57,774995
3,3,11,22,14,7,2,0,2021-08-06 13:57:57,774995
1,2,-3,-5,4,2,2,1,2021-08-06 13:57:57,774995
-5,-4,-4,-4,-8,-10,-7,-4,2021-08-06 13:57:57,774995
0,-3,-4,-7,1,5,3,1,2021-08-06 13:57:57,774995
0,-1,-6,-14,-12,-1,-1,0,2021-08-06 13:57:57,774995
-2,-2,7,8,7,1,-4,-2,2021-08-06 13:57:57,774995
8,14,25,52,26,13,7,8,2021-08-06 13:57:57,775995
-7,-9,-12,-19,-25,-17,-9,-7,2021-08-06 13:57:57,790994
-6,-8,-22,-48,-22,-8,-5,-4,2021-08-06 13:57:57,790994
-5,-9,-11,-21,-13,-9,-5,-5,2021-08-06 13:57:57,806995
8,12,23,53,29,14,5,5,2021-08-06 13:57:57,822996
-1,-3,-10,-15,-17,-6,-4,-1,2021-08-06 13:57:57,822996
-4,-8,-15,-43,-21,-9,-4,-4,2021-08-06 13:57:57,822996
-6,-6,-1,-16,-15,-14,-7,-5,2021-08-06 13:57:57,822996
5,6,8,43,29,16,9,4,2021-08-06 13:57:57,822996
-3,-2,-8,-19,-5,0,-1,-2,2021-08-06 13:57:57,822996
-6,-6,-9,-23,-21,-11,-6,-6,2021-08-06 13:57:57,822996
1,2,10,18,16,9,3,6,2021-08-06 13:57:57,838995
6,5,7,31,20,11,6,6,2021-08-06 13:57:57,854994
-6,-7,-15,-39,-31,-17,-10,-5,2021-08-06 13:57:57,870994
4,3,8,9,25,13,6,3,2021-08-06 13:57:57,870994
-2,-2,-5,-2,-9,-2,-2,-3,2021-08-06 13:57:57,870994
2,4,4,14,11,2,-1,-1,2021-08-06 13:57:57,870994
1,1,-1,-2,-11,-7,-3,0,2021-08-06 13:57:57,870994
-4,-2,0,-1,-8,-8,-2,-2,2021-08-06 13:57:57,870994
0,0,4,8,9,5,1,1,2021-08-06 13:57:57,902994
0,-1,-6,-14,-12,-5,-1,-1,2021-08-06 13:57:57,918995
-3,-7,-11,-22,-12,-3,-2,-5,2021-08-06 13:57:57,919996
-3,-3,-3,-8,-3,-5,-5,-3,2021-08-06 13:57:57,919996
2,1,3,3,-14,-7,-1,1,2021-08-06 13:57:57,919996
7,9,11,27,35,19,9,5,2021-08-06 13:57:57,919996
4,5,9,15,19,8,4,3,2021-08-06 13:57:57,920996
-5,-7,-7,-14,-24,-13,-7,-5,2021-08-06 13:57:57,920996
-6,-6,-12,-13,-6,-2,-1,-5,2021-08-06 13:57:57,920996
-1,0,-2,-3,8,5,1,1,2021-08-06 13:57:57,920996
0,-1,3,3,-2,-2,0,0,2021-08-06 13:57:57,920996
1,3,6,23,12,5,2,1,2021-08-06 13:57:57,920996
4,4,9,17,10,5,4,1,2021-08-06 13:57:57,950994
-6,-7,-9,-28,-20,-10,-5,-5,2021-08-06 13:57:57,966994
-6,-8,-7,-23,-16,-7,-5,-3,2021-08-06 13:57:57,966994
2,-1,-8,-1,2,1,1,1,2021-08-06 13:57:57,966994
-3,-3,-7,-8,-2,-3,-4,-4,2021-08-06 13:57:57,966994
3,4,10,18,9,6,5,4,2021-08-06 13:57:57,966994
2,4,10,16,-4,-3,-1,-2,2021-08-06 13:57:57,982996
-2,-3,1,-5,-9,-5,-1,-2,2021-08-06 13:57:57,982996
0,1,-4,3,22,10,4,2,2021-08-06 13:57:57,982996
1,-2,-3,1,13,5,2,1,2021-08-06 13:57:57,982996
-1,1,-2,-13,1,1,1,1,2021-08-06 13:57:57,982996
0,1,3,12,-2,-3,-2,-1,2021-08-06 13:57:57,982996
-4,-4,-3,-1,-7,-5,-4,-3,2021-08-06 13:57:58,014996
2,6,12,11,1,0,0,2,2021-08-06 13:57:58,014996
1,-3,0,1,1,1,-3,-2,2021-08-06 13:57:58,014996
-1,1,-4,-7,1,-2,-1,1,2021-08-06 13:57:58,014996
-6,-8,-16,-23,-20,-12,-8,-5,2021-08-06 13:57:58,030996
-4,-5,-9,-13,-5,-4,-4,-4,2021-08-06 13:57:58,030996
2,1,5,9,9,4,4,0,2021-08-06 13:57:58,030996
0,1,5,12,1,1,1,-1,2021-08-06 13:57:58,030996
0,1,-1,-16,-2,2,1,0,2021-08-06 13:57:58,047032
-10,-10,-10,-20,-24,-13,-10,-9,2021-08-06 13:57:58,047032
3,7,6,15,12,9,6,4,2021-08-06 13:57:58,047032
1,-1,4,7,7,1,0,-2,2021-08-06 13:57:58,047032
-1,-1,4,9,-6,-5,-3,-1,2021-08-06 13:57:58,076994
2,2,-2,-2,8,7,4,1,2021-08-06 13:57:58,091994
-7,-8,-14,-18,-9,-7,-7,-5,2021-08-06 13:57:58,091994
4,5,11,22,18,9,6,4,2021-08-06 13:57:58,091994
0,1,0,6,5,3,0,0,2021-08-06 13:57:58,091994
-5,-6,-7,-17,-17,-10,-6,-4,2021-08-06 13:57:58,091994
-6,-6,-8,-17,-17,-8,-6,-4,2021-08-06 13:57:58,091994
-1,-1,-11,-18,-2,1,-2,0,2021-08-06 13:57:58,091994
-5,-5,-1,-7,-22,-12,-6,-4,2021-08-06 13:57:58,106995
8,12,17,45,48,23,12,9,2021-08-06 13:57:58,122996
0,0,0,3,-3,-5,0,-1,2021-08-06 13:57:58,138995
1,1,8,17,20,12,4,3,2021-08-06 13:57:58,138995
0,0,-9,-6,-2,-3,-2,0,2021-08-06 13:57:58,138995
-5,-9,-13,-32,-37,-16,-9,-6,2021-08-06 13:57:58,138995
-5,-5,4,1,0,-2,-3,-3,2021-08-06 13:57:58,138995
-2,-2,-6,1,-2,-2,-2,-2,2021-08-06 13:57:58,138995
4,6,18,34,20,9,3,3,2021-08-06 13:57:58,155032
0,-2,-12,-27,-28,-16,-7,-3,2021-08-06 13:57:58,155032
4,2,-6,-17,0,6,5,4,2021-08-06 13:57:58,155032
-4,-5,-7,-20,-3,-1,-2,-4,2021-08-06 13:57:58,155032
0,0,7,16,15,7,3,0,2021-08-06 13:57:58,171031
-3,1,10,25,-2,-5,-4,-2,2021-08-06 13:57:58,171031
1,0,-8,-16,-22,-10,-3,-1,2021-08-06 13:57:58,171031
-3,-4,-8,-14,-2,-1,-1,0,2021-08-06 13:57:58,171031
2,2,6,13,20,9,5,1,2021-08-06 13:57:58,187031
-3,-1,0,5,0,-6,-4,-3,2021-08-06 13:57:58,203031
1,3,6,32,28,15,5,4,2021-08-06 13:57:58,203031
2,1,1,8,2,-1,2,0,2021-08-06 13:57:58,203031
-2,0,-6,-19,-11,-5,-3,-1,2021-08-06 13:57:58,203031
0,-2,-5,-10,-4,0,1,1,2021-08-06 13:57:58,219032
-8,-8,-10,-26,-34,-23,-14,-10,2021-08-06 13:57:58,219032
6,4,10,18,25,13,7,4,2021-08-06 13:57:58,219032
1,1,-7,-18,-5,-2,1,-1,2021-08-06 13:57:58,219032
-3,-5,-4,7,6,4,0,-1,2021-08-06 13:57:58,219032
-6,-8,-12,-25,-22,-13,-6,-4,2021-08-06 13:57:58,219032
-6,-7,-7,-12,-12,-7,-6,-4,2021-08-06 13:57:58,219032
7,8,13,29,26,15,9,7,2021-08-06 13:57:58,251033
6,11,19,26,12,7,5,4,2021-08-06 13:57:58,267029
0,-2,2,-14,-8,-4,-2,-2,2021-08-06 13:57:58,283030
-9,-13,-24,-18,-9,-6,-8,-8,2021-08-06 13:57:58,299032
-2,-5,-7,-2,-1,-1,-1,0,2021-08-06 13:57:58,303034
4,7,13,19,19,9,5,4,2021-08-06 13:57:58,304036
1,3,9,22,-8,-6,0,0,2021-08-06 13:57:58,304036
-5,-5,-12,-45,-36,-16,-8,-5,2021-08-06 13:57:58,304036
0,-1,-1,8,39,22,7,2,2021-08-06 13:57:58,315031
-3,-5,-1,11,1,-2,-3,-3,2021-08-06 13:57:58,331033
-3,-1,6,15,1,-3,-6,-6,2021-08-06 13:57:58,331033
9,11,10,11,6,4,4,6,2021-08-06 13:57:58,331033
-1,-3,-12,-20,-32,-14,-7,-4,2021-08-06 13:57:58,331033
-9,-12,-21,-50,-18,-4,-5,-7,2021-08-06 13:57:58,331033
-7,-8,-14,-25,-11,-9,-6,-5,2021-08-06 13:57:58,332032
-4,-4,-4,-17,-37,-21,-8,-3,2021-08-06 13:57:58,332032
9,15,32,62,59,32,15,10,2021-08-06 13:57:58,332032
6,10,21,43,33,16,9,4,2021-08-06 13:57:58,347031
-1,-2,-3,14,5,4,1,-1,2021-08-06 13:57:58,347031
2,2,-6,-14,0,1,0,1,2021-08-06 13:57:58,347031
-10,-12,-12,-51,-51,-28,-15,-8,2021-08-06 13:57:58,347031
-1,0,4,8,9,2,1,1,2021-08-06 13:57:58,347031
5,7,0,18,14,8,4,5,2021-08-06 13:57:58,347031
-1,-2,4,12,8,7,2,1,2021-08-06 13:57:58,347031
-9,-12,-19,-45,-28,-14,-10,-8,2021-08-06 13:57:58,363286
-5,-9,-10,-29,-29,-16,-8,-4,2021-08-06 13:57:58,363286
10,15,19,52,46,27,14,10,2021-08-06 13:57:58,363286
2,6,9,15,11,5,2,0,2021-08-06 13:57:58,363286
2,-1,-6,-5,-6,-2,0,2,2021-08-06 13:57:58,394546
-9,-12,-13,-27,-25,-15,-10,-8,2021-08-06 13:57:58,410545
-2,-1,-7,-24,-19,-10,-4,-2,2021-08-06 13:57:58,426544
0,1,5,11,4,0,2,0,2021-08-06 13:57:58,426544
-5,-3,7,19,0,-5,-5,-5,2021-08-06 13:57:58,426544
9,10,18,22,28,16,9,8,2021-08-06 13:57:58,426544
0,-4,-25,-31,-9,-4,-1,-1,2021-08-06 13:57:58,426544
-8,-7,-8,-10,2,-1,-3,-4,2021-08-06 13:57:58,426544
-7,-6,-5,-11,-22,-19,-9,-8,2021-08-06 13:57:58,427546
3,3,8,24,7,6,5,4,2021-08-06 13:57:58,427546
3,3,10,4,3,5,3,5,2021-08-06 13:57:58,427546
6,6,1,-2,20,10,6,5,2021-08-06 13:57:58,427546
-6,-9,-11,-25,-35,-20,-11,-7,2021-08-06 13:57:58,456545
3,4,8,29,46,23,9,3,2021-08-06 13:57:58,472546
-5,-2,5,12,10,3,-1,-6,2021-08-06 13:57:58,488547
-6,-5,-3,-4,-24,-17,-10,-8,2021-08-06 13:57:58,488547
5,6,8,15,10,4,2,4,2021-08-06 13:57:58,488547
3,3,-5,-7,-4,-1,2,2,2021-08-06 13:57:58,488547
-5,-9,-10,-32,-23,-11,-10,-5,2021-08-06 13:57:58,488547
-1,-7,-7,-15,2,-1,-1,-1,2021-08-06 13:57:58,488547
-2,2,3,5,4,3,2,0,2021-08-06 13:57:58,488547
-3,-3,1,8,-12,-11,-5,-3,2021-08-06 13:57:58,488547
3,4,6,23,6,3,2,1,2021-08-06 13:57:58,488547
2,-2,-7,-17,-6,3,4,2,2021-08-06 13:57:58,504549
1,-2,0,-14,5,4,0,0,2021-08-06 13:57:58,504549
-6,-9,-15,-18,-21,-13,-9,-7,2021-08-06 13:57:58,504549
4,6,16,29,12,4,5,4,2021-08-06 13:57:58,504549
0,0,16,29,0,1,0,0,2021-08-06 13:57:58,504549
6,5,-12,-10,6,6,2,5,2021-08-06 13:57:58,520544
-7,-12,-24,-46,-26,-13,-6,-6,2021-08-06 13:57:58,520544
-6,-4,-4,-8,9,1,-4,-4,2021-08-06 13:57:58,536546
-5,-6,-5,-10,-23,-16,-10,-6,2021-08-06 13:57:58,552545
6,9,28,66,60,28,15,7,2021-08-06 13:57:58,568545
5,10,13,12,-12,-7,-2,3,2021-08-06 13:57:58,568545
3,5,-2,-2,1,2,3,3,2021-08-06 13:57:58,568545
-2,-5,-11,-29,-11,-5,-3,-2,2021-08-06 13:57:58,568545
-11,-12,-15,-29,-33,-19,-13,-10,2021-08-06 13:57:58,568545
-2,-2,-9,-2,4,1,-2,-2,2021-08-06 13:57:58,568545
4,4,14,31,23,11,7,4,2021-08-06 13:57:58,569546
5,7,10,20,11,5,2,3,2021-08-06 13:57:58,569546
-4,-3,-4,-12,-13,-7,-4,-4,2021-08-06 13:57:58,584545
5,3,10,10,-1,2,2,3,2021-08-06 13:57:58,600545
-6,-11,-20,-27,-15,-7,-5,-7,2021-08-06 13:57:58,616544
-4,-9,-23,-42,-13,-5,-6,-4,2021-08-06 13:57:58,616544
-2,-1,2,6,-8,-4,-3,-4,2021-08-06 13:57:58,616544
-3,-2,-2,-11,-26,-15,-9,-5,2021-08-06 13:57:58,616544
5,3,7,15,21,11,6,5,2021-08-06 13:57:58,616544
-1,-3,-3,5,10,2,1,-1,2021-08-06 13:57:58,616544
-2,-4,-7,-12,-14,-7,-2,-2,2021-08-06 13:57:58,632544
-1,1,9,23,20,7,-1,-1,2021-08-06 13:57:58,632544
4,4,11,8,-12,-4,-2,2,2021-08-06 13:57:58,632544
-2,-2,-5,9,12,7,0,-3,2021-08-06 13:57:58,632544
7,7,8,-7,2,4,3,3,2021-08-06 13:57:58,664546
-8,-7,-15,-15,-14,-9,-7,-7,2021-08-06 13:57:58,664546
-5,-3,-4,-12,-10,-8,-6,-5,2021-08-06 13:57:58,664546
10,12,25,46,30,18,9,10,2021-08-06 13:57:58,664546
-2,1,0,8,-4,-6,-4,-3,2021-08-06 13:57:58,664546
-8,-9,-23,-66,-44,-18,-8,-5,2021-08-06 13:57:58,664546
-6,-9,-12,-23,0,-1,-2,-4,2021-08-06 13:57:58,664546
-8,-13,-18,1,-7,-9,-7,-7,2021-08-06 13:57:58,664546
13,16,19,38,38,25,12,10,2021-08-06 13:57:58,696545
0,0,6,-5,-6,-4,-3,-2,2021-08-06 13:57:58,708544
-7,-11,-31,-20,-24,-12,-6,-4,2021-08-06 13:57:58,709545
-4,-3,11,10,10,3,1,-4,2021-08-06 13:57:58,709545
-2,-3,-3,-4,-1,-1,-2,1,2021-08-06 13:57:58,709545
4,7,10,13,10,5,5,1,2021-08-06 13:57:58,709545
-2,3,11,1,0,0,0,-2,2021-08-06 13:57:58,709545
2,2,1,2,-6,-3,0,2,2021-08-06 13:57:58,709545
-3,-6,-11,-20,-16,-9,-3,-2,2021-08-06 13:57:58,728544
1,-2,4,14,15,11,3,0,2021-08-06 13:57:58,743544
5,4,7,16,6,1,1,3,2021-08-06 13:57:58,758544
-2,-1,-11,-23,-14,-5,-3,-2,2021-08-06 13:57:58,774544
-7,-6,-4,-16,-13,-7,-7,-6,2021-08-06 13:57:58,790544
5,5,22,39,29,8,4,4,2021-08-06 13:57:58,790544
-2,-3,-14,8,-8,-5,-3,-3,2021-08-06 13:57:58,790544
-1,1,-7,-52,-26,-8,-3,-1,2021-08-06 13:57:58,790544
-6,-12,-20,-44,-27,-15,-8,-6,2021-08-06 13:57:58,790544
-10,-15,-30,-19,-9,-4,-4,-6,2021-08-06 13:57:58,790544
-1,1,18,29,12,2,0,-1,2021-08-06 13:57:58,790544
5,10,18,45,26,12,5,4,2021-08-06 13:57:58,791546
5,9,19,33,18,7,6,1,2021-08-06 13:57:58,791546
1,2,-3,-7,0,0,1,0,2021-08-06 13:57:58,791546
1,0,-6,-29,-21,-10,-3,-2,2021-08-06 13:57:58,791546
-2,-7,-12,-30,-28,-10,-7,-3,2021-08-06 13:57:58,791546
-1,0,4,26,36,15,3,0,2021-08-06 13:57:58,821545
6,8,14,37,29,12,6,5,2021-08-06 13:57:58,836545
-3,-3,-10,-23,-18,-9,-4,-3,2021-08-06 13:57:58,836545
-2,-2,0,4,11,3,1,-1,2021-08-06 13:57:58,836545
-7,-9,-11,-4,-14,-8,-4,-3,2021-08-06 13:57:58,836545
-3,-2,-5,-20,-22,-13,-5,-2,2021-08-06 13:57:58,836545
5,6,17,33,42,21,7,5,2021-08-06 13:57:58,836545
5,5,4,16,-12,-3,1,2,2021-08-06 13:57:58,836545
-1,-2,-13,-30,-2,1,0,2,2021-08-06 13:57:58,852545
-9,-14,-17,-40,-23,-13,-7,-7,2021-08-06 13:57:58,868545
0,0,4,-2,-6,-5,-2,1,2021-08-06 13:57:58,868545
3,8,12,21,-1,-6,-2,1,2021-08-06 13:57:58,868545
8,10,5,36,25,14,8,5,2021-08-06 13:57:58,868545
0,-4,-8,-34,-18,0,-1,1,2021-08-06 13:57:58,868545
-14,-18,-23,-40,-26,-21,-14,-13,2021-08-06 13:57:58,868545
0,3,6,29,40,19,9,4,2021-08-06 13:57:58,868545
0,0,7,13,-11,-8,-3,-1,2021-08-06 13:57:58,900544
2,4,2,11,12,7,4,3,2021-08-06 13:57:58,900544
-2,-4,-1,-11,-21,-9,-5,-3,2021-08-06 13:57:58,900544
2,1,1,1,10,7,3,2,2021-08-06 13:57:58,900544
4,5,8,12,28,20,9,4,2021-08-06 13:57:58,916544
6,13,26,47,26,9,3,2,2021-08-06 13:57:58,916544
5,6,7,31,17,11,8,4,2021-08-06 13:57:58,916544
-13,-20,-39,-90,-63,-33,-17,-12,2021-08-06 13:57:58,916544
-7,-7,-18,-42,-37,-26,-12,-6,2021-08-06 13:57:58,932544
2,-2,-6,1,1,2,2,2,2021-08-06 13:57:58,932544
5,8,18,30,27,16,6,5,2021-08-06 13:57:58,932544
0,3,15,41,15,3,0,-1,2021-08-06 13:57:58,932544
1,2,8,12,10,7,3,1,2021-08-06 13:57:58,964546
-2,-1,-11,-29,-19,-5,-2,-1,2021-08-06 13:57:58,964546
-8,-12,-26,-42,-24,-15,-9,-7,2021-08-06 13:57:58,964546
-7,-5,-3,-17,-28,-17,-9,-5,2021-08-06 13:57:58,964546
-1,1,6,42,41,21,6,2,2021-08-06 13:57:58,964546
4,8,12,34,8,4,3,0,2021-08-06 13:57:58,964546
6,7,5,-6,15,13,8,6,2021-08-06 13:57:58,964546
2,-1,0,-7,2,-1,-1,0,2021-08-06 13:57:58,964546
-9,-11,-10,-34,-50,-31,-17,-9,2021-08-06 13:57:58,996544
4,5,6,43,46,22,8,6,2021-08-06 13:57:59,012544
-3,-6,-11,-22,-13,-6,-2,-4,2021-08-06 13:57:59,012544
-4,-5,-3,-12,-10,-5,-5,-5,2021-08-06 13:57:59,012544
4,4,4,15,17,9,4,3,2021-08-06 13:57:59,012544
0,1,7,24,3,1,-2,-1,2021-08-06 13:57:59,012544
1,4,4,-4,-4,-2,-2,1,2021-08-06 13:57:59,012544
-7,-9,-17,-36,-24,-12,-7,-7,2021-08-06 13:57:59,012544
-4,-11,-14,-55,-38,-19,-7,-4,2021-08-06 13:57:59,028544
-11,-14,-21,-18,-4,-7,-6,-10,2021-08-06 13:57:59,044544
9,13,21,43,17,10,6,7,2021-08-06 13:57:59,044544
2,7,12,16,-5,-1,-1,-1,2021-08-06 13:57:59,044544
2,1,4,25,36,16,7,3,2021-08-06 13:57:59,044544
4,3,1,-7,-8,-2,1,2,2021-08-06 13:57:59,044544
-13,-16,-20,-41,-39,-25,-15,-12,2021-08-06 13:57:59,044544
10,14,24,75,106,53,23,14,2021-08-06 13:57:59,044544
-4,-6,-12,7,-15,-8,-4,-5,2021-08-06 13:57:59,075544
2,3,-2,-55,-49,-19,-6,0,2021-08-06 13:57:59,079544
-2,-1,4,18,15,6,-2,-4,2021-08-06 13:57:59,079544
0,0,2,-4,-4,-1,-1,2,2021-08-06 13:57:59,079544
-6,-5,-11,-20,-27,-12,-8,-6,2021-08-06 13:57:59,079544
-6,-7,-7,-11,0,-6,-7,-5,2021-08-06 13:57:59,079544
-3,-4,-14,-16,-15,-10,-4,-3,2021-08-06 13:57:59,079544
0,1,3,7,-12,-10,-4,-2,2021-08-06 13:57:59,079544
0,4,5,8,18,12,6,1,2021-08-06 13:57:59,122545
-2,-4,2,8,18,11,6,3,2021-08-06 13:57:59,138546
1,3,13,12,6,2,1,0,2021-08-06 13:57:59,154545
-2,-5,-11,-31,-37,-15,-3,0,2021-08-06 13:57:59,170544
14,16,20,29,33,16,9,8,2021-08-06 13:57:59,170544
-6,-6,-17,-30,-23,-15,-11,-7,2021-08-06 13:57:59,170544
-3,-1,-6,14,26,13,6,3,2021-08-06 13:57:59,170544
-4,0,12,39,23,8,0,-1,2021-08-06 13:57:59,170544
3,4,1,-11,-30,-13,-2,0,2021-08-06 13:57:59,170544
1,-4,-7,-11,1,3,1,0,2021-08-06 13:57:59,170544
-5,-11,-25,-61,-31,-17,-11,-5,2021-08-06 13:57:59,171546
-10,-17,-26,-35,-39,-23,-10,-11,2021-08-06 13:57:59,171546
4,7,22,44,60,30,12,6,2021-08-06 13:57:59,171546
3,7,19,40,4,-2,-1,1,2021-08-06 13:57:59,171546
3,5,12,23,2,1,3,2,2021-08-06 13:57:59,171546
-4,-2,-7,-18,-8,-9,-6,-5,2021-08-06 13:57:59,171546
-2,-4,-7,-2,-2,0,1,1,2021-08-06 13:57:59,202546
-3,-7,-9,-9,-9,-7,-1,-3,2021-08-06 13:57:59,202546
-3,1,1,-2,-12,-8,-5,-3,2021-08-06 13:57:59,202546
7,7,13,19,36,22,8,8,2021-08-06 13:57:59,202546
5,3,-2,-6,-23,-11,-1,2,2021-08-06 13:57:59,202546
0,-1,-9,-13,8,3,-1,-2,2021-08-06 13:57:59,202546
-3,-1,7,10,9,4,1,0,2021-08-06 13:57:59,202546
-3,-1,-6,-10,-16,-9,-7,-4,2021-08-06 13:57:59,202546
-4,-4,2,2,-9,-10,-7,-7,2021-08-06 13:57:59,234547
2,4,1,9,8,4,3,4,2021-08-06 13:57:59,234547
3,-2,-15,-16,-9,-1,0,-1,2021-08-06 13:57:59,234547
-7,-11,-3,-12,-15,-8,-5,-5,2021-08-06 13:57:59,234547
-8,-7,-10,-38,-35,-19,-10,-7,2021-08-06 13:57:59,250583
2,3,13,37,34,17,8,4,2021-08-06 13:57:59,250583
1,3,10,16,7,4,3,1,2021-08-06 13:57:59,250583
5,6,3,9,8,7,5,5,2021-08-06 13:57:59,250583
-3,-7,-6,-7,-17,-10,-4,-4,2021-08-06 13:57:59,266586
-7,-5,-4,-13,-25,-14,-8,-7,2021-08-06 13:57:59,266586
3,1,-1,8,16,6,2,1,2021-08-06 13:57:59,266586
-4,-3,-8,-21,-21,-11,-7,-4,2021-08-06 13:57:59,266586
-6,-6,-11,-14,4,3,-2,-3,2021-08-06 13:57:59,296544
3,-1,4,-1,6,7,5,5,2021-08-06 13:57:59,312544
7,5,11,28,19,13,7,7,2021-08-06 13:57:59,328544
-3,0,-4,-9,-32,-20,-9,-7,2021-08-06 13:57:59,344545
-3,-2,-4,-7,15,6,-1,-1,2021-08-06 13:57:59,359544
-1,5,15,14,11,0,-2,-2,2021-08-06 13:57:59,359544
-1,1,11,19,3,4,0,0,2021-08-06 13:57:59,359544
2,-3,-23,-25,-5,0,0,-1,2021-08-06 13:57:59,359544
-12,-18,-25,-37,-32,-19,-12,-9,2021-08-06 13:57:59,359544
-1,1,-7,3,19,8,2,0,2021-08-06 13:57:59,359544
3,5,14,28,17,7,3,0,2021-08-06 13:57:59,360547
5,8,19,34,16,8,5,4,2021-08-06 13:57:59,360547
5,4,3,-4,10,10,5,3,2021-08-06 13:57:59,360547
-9,-10,-14,-33,-50,-31,-17,-10,2021-08-06 13:57:59,360547
9,14,18,27,46,21,11,8,2021-08-06 13:57:59,360547
1,-2,0,-4,12,12,7,4,2021-08-06 13:57:59,360547
-2,-2,-3,-6,-13,-8,-6,-3,2021-08-06 13:57:59,374544
-5,-4,-8,-6,-15,-11,-6,-5,2021-08-06 13:57:59,374544
-6,-6,-9,-11,-21,-12,-6,-4,2021-08-06 13:57:59,390544
3,4,13,27,23,6,2,1,2021-08-06 13:57:59,390544
1,1,1,18,0,0,0,2,2021-08-06 13:57:59,390544
2,1,-5,-28,-4,3,2,4,2021-08-06 13:57:59,390544
-7,-10,-27,-63,-62,-25,-11,-4,2021-08-06 13:57:59,390544
1,0,3,4,42,17,6,3,2021-08-06 13:57:59,390544
-5,-3,6,6,-16,-11,-6,-5,2021-08-06 13:57:59,422546
-3,-1,8,38,20,9,2,-3,2021-08-06 13:57:59,422546
-2,1,6,1,-13,-10,-6,-3,2021-08-06 13:57:59,422546
8,10,5,15,30,19,9,9,2021-08-06 13:57:59,422546
-3,-9,-23,-31,-14,-6,-5,-3,2021-08-06 13:57:59,438545
-1,0,-2,-2,1,-4,-1,-1,2021-08-06 13:57:59,438545
-3,-3,3,12,10,5,2,-1,2021-08-06 13:57:59,439546
3,3,13,26,2,1,2,4,2021-08-06 13:57:59,439546
4,7,9,-9,-1,3,4,2,2021-08-06 13:57:59,439546
-3,-2,-2,-9,-1,-1,-2,-3,2021-08-06 13:57:59,439546
-2,-6,-3,0,-2,-4,-2,-2,2021-08-06 13:57:59,454545
-6,-9,-5,-8,-14,-6,-4,-4,2021-08-06 13:57:59,454545
1,7,6,19,11,3,-2,0,2021-08-06 13:57:59,470544
1,2,2,9,-15,-6,-3,-1,2021-08-06 13:57:59,470544
8,6,1,8,36,23,13,7,2021-08-06 13:57:59,470544
-7,-11,-22,-60,-40,-19,-10,-9,2021-08-06 13:57:59,470544
0,1,8,-2,-6,-5,0,0,2021-08-06 13:57:59,502546
4,6,7,18,13,5,3,3,2021-08-06 13:57:59,518545
-6,-9,-14,-25,-13,-3,-5,-5,2021-08-06 13:57:59,533544
-1,0,-2,3,-1,-3,0,-2,2021-08-06 13:57:59,533544
-3,-5,-8,0,-1,1,-3,-2,2021-08-06 13:57:59,533544
6,5,8,14,18,12,6,6,2021-08-06 13:57:59,533544
-3,-1,0,10,4,-2,-4,-4,2021-08-06 13:57:59,533544
-1,1,5,3,-6,-3,-3,-2,2021-08-06 13:57:59,533544
-1,-1,5,3,-11,-9,-4,-3,2021-08-06 13:57:59,533544
1,1,-2,-6,1,3,2,2,2021-08-06 13:57:59,534546
-8,-13,-20,-36,-19,-9,-6,-5,2021-08-06 13:57:59,534546
-2,-2,-10,8,8,6,3,2,2021-08-06 13:57:59,534546
2,1,8,18,8,0,0,0,2021-08-06 13:57:59,564545
-2,-2,0,-20,-22,-9,-7,-2,2021-08-06 13:57:59,580544
5,8,8,28,35,17,8,5,2021-08-06 13:57:59,596544
-1,-2,10,14,-9,-9,-4,-3,2021-08-06 13:57:59,611545
6,5,4,23,23,10,5,3,2021-08-06 13:57:59,611545
-5,-12,-20,-36,-17,-7,-3,-5,2021-08-06 13:57:59,611545
-8,-8,-14,-43,-43,-23,-12,-8,2021-08-06 13:57:59,611545
3,5,3,-14,14,6,3,2,2021-08-06 13:57:59,611545
0,-2,-4,17,24,13,5,-1,2021-08-06 13:57:59,611545
-4,-6,2,18,14,4,-1,-2,2021-08-06 13:57:59,611545
2,4,10,30,4,-1,1,1,2021-08-06 13:57:59,611545
-8,-9,-12,-19,-40,-20,-13,-9,2021-08-06 13:57:59,611545
12,12,7,-14,23,15,12,12,2021-08-06 13:57:59,612546
-6,-7,-14,-10,-11,-7,-6,-7,2021-08-06 13:57:59,612546
-2,-7,-7,-12,-16,-10,-6,-5,2021-08-06 13:57:59,612546
1,2,11,34,21,9,4,1,2021-08-06 13:57:59,612546
2,2,8,18,4,2,1,0,2021-08-06 13:57:59,626544
6,7,13,26,8,7,5,5,2021-08-06 13:57:59,626544
1,-2,-12,-35,-4,-1,0,1,2021-08-06 13:57:59,626544
-6,-11,-14,-24,-14,-10,-6,-5,2021-08-06 13:57:59,626544
-8,-8,-19,-16,-32,-17,-10,-8,2021-08-06 13:57:59,642545
4,6,15,17,19,9,6,4,2021-08-06 13:57:59,658544
6,10,15,20,4,6,3,4,2021-08-06 13:57:59,674544
-6,-9,-9,-26,-18,-11,-7,-6,2021-08-06 13:57:59,690544
-5,-3,-5,4,21,8,1,-2,2021-08-06 13:57:59,690544
4,7,9,12,4,2,2,2,2021-08-06 13:57:59,690544
0,0,1,10,5,-1,-1,0,2021-08-06 13:57:59,690544
1,-1,-2,-10,-27,-14,-5,-1,2021-08-06 13:57:59,690544
-5,-6,-6,-14,1,-1,-5,-7,2021-08-06 13:57:59,690544
3,4,-1,2,18,14,4,2,2021-08-06 13:57:59,690544
0,-1,2,3,4,1,1,-1,2021-08-06 13:57:59,706546
3,7,8,14,7,3,2,1,2021-08-06 13:57:59,706546
-1,3,14,25,-23,-16,-6,-2,2021-08-06 13:57:59,706546
-1,-3,-4,24,19,7,2,-1,2021-08-06 13:57:59,706546
-3,-4,-18,-55,-23,-5,-3,-3,2021-08-06 13:57:59,722546
-2,-2,-8,-20,-2,0,2,1,2021-08-06 13:57:59,722546
-2,-5,-16,-25,-9,-3,-3,-2,2021-08-06 13:57:59,737545
-7,-9,-1,-30,-19,-11,-7,-7,2021-08-06 13:57:59,752544
3,7,10,58,25,7,3,3,2021-08-06 13:57:59,752544
-3,-1,3,8,-2,-2,-3,-1,2021-08-06 13:57:59,752544
3,5,6,-6,-11,-8,-1,4,2021-08-06 13:57:59,752544
2,3,1,32,45,28,12,4,2021-08-06 13:57:59,752544
-8,-6,1,-18,0,1,-2,-4,2021-08-06 13:57:59,752544
1,7,2,4,0,0,2,4,2021-08-06 13:57:59,752544
-4,-9,-8,-4,-10,-3,-3,-3,2021-08-06 13:57:59,768545
-10,-13,-20,-33,-50,-33,-17,-10,2021-08-06 13:57:59,784546
-4,-4,2,1,-5,-7,-6,-3,2021-08-06 13:57:59,784546
14,24,32,51,37,21,11,10,2021-08-06 13:57:59,784546
9,12,17,28,21,15,9,7,2021-08-06 13:57:59,784546
-1,-6,-24,-52,-7,3,1,-1,2021-08-06 13:57:59,784546
-13,-19,-17,-39,-26,-14,-11,-13,2021-08-06 13:57:59,800547
-10,-15,-27,-14,-16,-15,-9,-8,2021-08-06 13:57:59,800547
5,11,17,22,12,8,4,4,2021-08-06 13:57:59,816545
1,3,8,13,-7,-5,-2,2,2021-08-06 13:57:59,816545
6,14,18,13,7,2,1,3,2021-08-06 13:57:59,816545
-1,-7,-9,-28,-25,-6,-1,-1,2021-08-06 13:57:59,816545
-13,-18,-24,-37,-13,-8,-7,-8,2021-08-06 13:57:59,832546
-7,-7,-19,-8,-25,-14,-8,-5,2021-08-06 13:57:59,832546
-3,-1,0,21,12,3,1,-1,2021-08-06 13:57:59,832546
3,5,12,11,24,16,7,3,2021-08-06 13:57:59,832546
8,12,22,29,24,12,6,5,2021-08-06 13:57:59,864546
0,3,11,12,-1,-2,-3,-1,2021-08-06 13:57:59,864546
-3,-4,-20,-53,-42,-17,-7,-2,2021-08-06 13:57:59,864546
1,-3,-1,20,28,15,5,0,2021-08-06 13:57:59,864546
-6,-6,-6,-14,-8,-5,-2,-3,2021-08-06 13:57:59,880544
-5,-3,3,2,-7,-10,-8,-6,2021-08-06 13:57:59,880544
11,13,27,62,40,18,10,10,2021-08-06 13:57:59,880544
0,-4,-17,-24,-16,-2,0,0,2021-08-06 13:57:59,880544
-13,-20,-34,-73,-33,-15,-10,-9,2021-08-06 13:57:59,896583
1,-2,-8,-9,-19,-11,-3,-1,2021-08-06 13:57:59,896583
-5,-4,1,13,12,3,-1,-4,2021-08-06 13:57:59,896583
2,8,18,23,9,1,-2,0,2021-08-06 13:57:59,896583
8,12,20,39,17,7,6,4,2021-08-06 13:57:59,911544
3,2,0,-5,10,6,2,1,2021-08-06 13:57:59,926545
2,-3,-13,-23,-2,4,3,4,2021-08-06 13:57:59,942545
-6,-9,-11,1,12,1,-4,-4,2021-08-06 13:57:59,942545
-5,-2,0,1,2,0,-4,-3,2021-08-06 13:57:59,942545
-3,-2,3,-9,0,0,-1,-2,2021-08-06 13:57:59,942545
9,11,5,28,14,10,7,6,2021-08-06 13:57:59,942545
-7,-9,-19,-40,-33,-18,-10,-8,2021-08-06 13:57:59,942545
-1,-3,-6,-10,-4,-2,0,-1,2021-08-06 13:57:59,942545
0,0,12,15,3,1,0,-2,2021-08-06 13:57:59,942545
8,10,16,25,22,13,9,7,2021-08-06 13:57:59,958544
0,2,-1,-1,-3,-2,-1,-1,2021-08-06 13:57:59,974544
-5,-1,-3,-4,-14,-7,-4,-5,2021-08-06 13:57:59,990544
-4,-9,-15,-20,-13,-7,-4,-3,2021-08-06 13:57:59,990544
-1,-1,0,0,-20,-11,-4,-1,2021-08-06 13:57:59,990544
6,6,8,5,14,9,6,5,2021-08-06 13:57:59,990544
3,-1,-2,7,26,14,6,2,2021-08-06 13:57:59,990544
1,0,6,5,-5,-4,-1,-1,2021-08-06 13:57:59,991546
-9,-11,-21,-38,-26,-12,-9,-8,2021-08-06 13:57:59,991546
-3,-4,-1,2,14,1,0,-2,2021-08-06 13:57:59,991546
6,8,12,20,14,10,6,7,2021-08-06 13:58:00,021546
1,2,5,16,6,4,3,1,2021-08-06 13:58:00,036545
-5,-3,0,-4,0,-5,-2,-1,2021-08-06 13:58:00,036545
-5,-8,-10,-18,-25,-12,-8,-4,2021-08-06 13:58:00,036545
-2,-2,-5,-7,-5,-4,-3,0,2021-08-06 13:58:00,036545
-4,-2,-3,-7,-4,-7,-4,-2,2021-08-06 13:58:00,036545
2,2,8,19,22,15,6,2,2021-08-06 13:58:00,036545
6,13,14,12,4,5,5,6,2021-08-06 13:58:00,036545
-4,-5,-5,-2,-13,-7,-4,-2,2021-08-06 13:58:00,052546
-3,-2,-7,-40,-34,-19,-9,-6,2021-08-06 13:58:00,068545
5,-2,-5,20,25,16,7,5,2021-08-06 13:58:00,068545
-8,-8,-3,9,3,1,-4,-4,2021-08-06 13:58:00,068545
-4,-6,-2,-1,-1,-2,-4,-1,2021-08-06 13:58:00,068545
-4,-2,-11,-24,-25,-11,-4,-2,2021-08-06 13:58:00,068545
0,5,10,2,11,0,0,0,2021-08-06 13:58:00,069546
5,8,23,36,25,12,6,3,2021-08-06 13:58:00,069546
-2,-2,-7,-4,-26,-14,-4,-4,2021-08-06 13:58:00,098544
-3,-6,-7,-7,-6,-3,-2,-1,2021-08-06 13:58:00,113544
-9,-12,-28,-49,-28,-14,-7,-8,2021-08-06 13:58:00,113544
-2,-3,-7,-2,7,5,2,0,2021-08-06 13:58:00,113544
3,7,12,8,-2,-1,0,-4,2021-08-06 13:58:00,113544
7,11,21,34,16,9,5,6,2021-08-06 13:58:00,113544
-6,-6,-2,5,-24,-20,-12,-6,2021-08-06 13:58:00,113544
1,2,-2,6,18,16,6,4,2021-08-06 13:58:00,113544
-3,-6,-14,-49,-34,-14,-7,-3,2021-08-06 13:58:00,128544
6,5,17,28,52,28,13,7,2021-08-06 13:58:00,128544
-4,-3,-10,4,1,-3,-4,-4,2021-08-06 13:58:00,128544
-5,-4,1,2,-16,-14,-9,-5,2021-08-06 13:58:00,128544
3,7,-3,12,6,4,2,2,2021-08-06 13:58:00,158544
2,-1,-3,-12,8,11,7,1,2021-08-06 13:58:00,158544
-3,-4,5,-9,-4,-2,-3,-3,2021-08-06 13:58:00,158544
-3,-3,-6,-8,-12,-10,-6,-5,2021-08-06 13:58:00,158544
0,-1,2,13,6,1,0,-3,2021-08-06 13:58:00,167548
5,10,14,22,-2,-2,2,3,2021-08-06 13:58:00,167548
6,8,4,5,11,7,4,3,2021-08-06 13:58:00,174544
3,-1,-4,2,17,13,5,4,2021-08-06 13:58:00,174544
-8,-11,-12,-43,-27,-13,-7,-6,2021-08-06 13:58:00,190544
-5,-9,-16,-1,1,-5,-4,-5,2021-08-06 13:58:00,206546
1,2,10,12,-17,-10,-3,-2,2021-08-06 13:58:00,206546
9,12,18,27,21,12,8,6,2021-08-06 13:58:00,206546
1,-1,-4,-15,0,1,1,0,2021-08-06 13:58:00,206546
-10,-12,-24,-37,-32,-17,-10,-7,2021-08-06 13:58:00,206546
-4,-3,-5,-13,-8,-4,-2,-3,2021-08-06 13:58:00,206546
2,1,4,13,11,2,3,1,2021-08-06 13:58:00,206546
3,4,7,29,19,8,4,4,2021-08-06 13:58:00,236546
-6,-4,-4,-25,-21,-9,-6,-5,2021-08-06 13:58:00,252545
2,-1,-2,-4,6,4,2,1,2021-08-06 13:58:00,252545
-3,-1,1,0,-8,-7,-4,-3,2021-08-06 13:58:00,252545
0,2,7,8,10,5,1,1,2021-08-06 13:58:00,252545
-1,-2,-7,12,-1,-4,-5,-3,2021-08-06 13:58:00,252545
3,4,7,-5,-3,1,2,2,2021-08-06 13:58:00,252545
-4,-10,-17,-49,-45,-24,-9,-5,2021-08-06 13:58:00,252545
0,-3,-2,19,21,6,1,2,2021-08-06 13:58:00,284546
0,4,13,26,23,12,4,1,2021-08-06 13:58:00,300544
0,-1,3,14,5,3,2,0,2021-08-06 13:58:00,316544
-7,-6,-9,-24,-31,-17,-9,-5,2021-08-06 13:58:00,316544
2,1,-5,-22,-8,-2,-1,0,2021-08-06 13:58:00,316544
2,0,1,5,12,7,3,3,2021-08-06 13:58:00,316544
0,-1,-4,7,8,3,0,-2,2021-08-06 13:58:00,316544
-3,-4,-6,-7,-2,-3,-4,-2,2021-08-06 13:58:00,316544
-4,-4,-1,-7,-21,-12,-8,-4,2021-08-06 13:58:00,316544
-1,-3,-2,4,-2,-5,-5,-2,2021-08-06 13:58:00,316544
8,10,12,17,28,18,11,9,2021-08-06 13:58:00,317549
1,-1,6,9,11,8,2,0,2021-08-06 13:58:00,317549
-1,-2,0,5,-5,-4,-2,-1,2021-08-06 13:58:00,331544
3,3,-6,-12,14,6,4,4,2021-08-06 13:58:00,347545
-8,-10,-14,-33,-37,-22,-12,-7,2021-08-06 13:58:00,363545
2,2,5,15,18,11,5,5,2021-08-06 13:58:00,378544
-1,2,4,11,8,3,-1,-3,2021-08-06 13:58:00,378544
1,3,12,26,13,6,3,0,2021-08-06 13:58:00,378544
-12,-13,-16,-13,-37,-22,-13,-9,2021-08-06 13:58:00,378544
6,8,3,-10,33,20,10,7,2021-08-06 13:58:00,378544
-5,-6,-3,-8,-15,-11,-5,-4,2021-08-06 13:58:00,378544
-2,-3,-2,-19,-3,-1,0,-1,2021-08-06 13:58:00,379546
2,2,-3,11,5,3,0,1,2021-08-06 13:58:00,379546
-7,-11,-19,-8,-30,-18,-11,-9,2021-08-06 13:58:00,379546
7,9,7,-1,26,16,9,6,2021-08-06 13:58:00,393544
-6,-8,-7,-20,-19,-13,-7,-6,2021-08-06 13:58:00,409545
-2,0,9,15,2,0,-1,1,2021-08-06 13:58:00,409545
3,3,13,30,4,-1,2,2,2021-08-06 13:58:00,409545
0,2,5,-8,2,5,1,0,2021-08-06 13:58:00,409545
-1,-6,-16,-22,-10,-1,0,0,2021-08-06 13:58:00,409545
1,-2,-5,-4,21,12,3,0,2021-08-06 13:58:00,409545
-6,-5,-9,-10,-23,-16,-8,-6,2021-08-06 13:58:00,409545
-6,-6,-7,5,4,0,-1,-1,2021-08-06 13:58:00,425544
8,14,26,32,10,5,4,5,2021-08-06 13:58:00,425544
3,6,13,27,24,10,2,0,2021-08-06 13:58:00,441546
-2,-9,-24,-55,-21,-6,-4,-3,2021-08-06 13:58:00,441546
-8,-10,-8,-37,-36,-20,-9,-4,2021-08-06 13:58:00,456545
-11,-14,-29,-18,-26,-14,-9,-6,2021-08-06 13:58:00,471544
6,7,12,20,26,12,7,6,2021-08-06 13:58:00,519544
1,7,18,28,9,2,2,-1,2021-08-06 13:58:00,535545
4,7,9,40,46,24,10,4,2021-08-06 13:58:00,551545
4,3,0,-8,-2,-1,0,2,2021-08-06 13:58:00,553545
-4,-5,-6,-11,-12,-6,-4,-4,2021-08-06 13:58:00,553545
0,1,1,-7,3,4,2,2,2021-08-06 13:58:00,553545
0,2,7,-3,-7,-6,-2,0,2021-08-06 13:58:00,553545
