EMG 1,EMG 2,EMG 3,EMG 4,EMG 5,EMG 6,EMG 7,EMG 8,Timestamp,Milliseconds
-2,0,0,-1,2,-2,0,-1,2021-08-06 13:43:57,924528
4,5,3,1,0,4,3,3,2021-08-06 13:43:57,924528
-1,-1,2,9,20,10,2,0,2021-08-06 13:43:57,924528
-2,-1,-2,-3,-2,-3,-2,-1,2021-08-06 13:43:57,924528
-2,-3,0,-3,-8,-3,-4,-1,2021-08-06 13:43:57,924528
-4,-5,-6,-9,-12,-8,-6,-5,2021-08-06 13:43:57,924528
-2,-1,-2,-6,-8,-5,-3,-2,2021-08-06 13:43:57,924528
4,2,5,9,14,9,4,3,2021-08-06 13:43:57,924528
0,-1,-1,0,0,-2,-1,-1,2021-08-06 13:43:57,924528
-2,-3,-1,-6,-7,-6,-2,-3,2021-08-06 13:43:57,925531
-1,0,-2,-6,-9,-7,-2,-2,2021-08-06 13:43:57,940566
-4,-5,-4,-8,-5,-5,-4,-4,2021-08-06 13:43:57,940566
1,1,1,-1,-5,4,3,2,2021-08-06 13:43:57,956034
-1,-3,-3,7,15,8,2,-2,2021-08-06 13:43:57,972034
4,5,4,8,8,6,4,2,2021-08-06 13:43:57,972034
0,-2,0,-1,-6,-3,0,-2,2021-08-06 13:43:57,972034
-2,-3,-4,-5,-7,-6,-4,-2,2021-08-06 13:43:57,972034
-5,-4,-4,-9,-17,-9,-5,-2,2021-08-06 13:43:57,972034
-1,-3,0,7,18,9,2,1,2021-08-06 13:43:57,988036
-4,-2,-4,-4,-5,-4,-4,-3,2021-08-06 13:43:57,988036
3,3,3,5,6,3,1,2,2021-08-06 13:43:57,988036
1,2,3,4,8,3,3,2,2021-08-06 13:43:57,988036
-5,-5,-5,-13,-26,-17,-8,-4,2021-08-06 13:43:58,004034
3,3,6,7,14,9,5,2,2021-08-06 13:43:58,004034
1,1,0,4,13,6,3,1,2021-08-06 13:43:58,004034
-2,-3,-4,-8,-13,-9,-6,-2,2021-08-06 13:43:58,004034
1,-1,0,0,8,2,-1,-2,2021-08-06 13:43:58,042037
1,2,1,5,5,3,1,1,2021-08-06 13:43:58,042037
-1,-4,-2,-4,-4,-3,-3,-3,2021-08-06 13:43:58,042037
0,0,-1,1,7,2,1,0,2021-08-06 13:43:58,042037
1,3,4,14,17,10,4,1,2021-08-06 13:43:58,042037
2,2,3,1,2,6,4,1,2021-08-06 13:43:58,042037
-6,-8,-15,-23,-28,-23,-8,-5,2021-08-06 13:43:58,067034
-3,-5,-7,-16,-24,-15,-6,-4,2021-08-06 13:43:58,067034
-5,-5,-9,-16,-13,-8,-5,-4,2021-08-06 13:43:58,067034
5,7,13,34,44,19,5,3,2021-08-06 13:43:58,067034
3,4,7,15,17,12,5,3,2021-08-06 13:43:58,067034
-5,-8,-15,-19,-7,-8,-4,-3,2021-08-06 13:43:58,067034
-3,-2,-3,-3,-9,-13,-6,-3,2021-08-06 13:43:58,097035
-1,-2,-5,-9,-2,2,1,0,2021-08-06 13:43:58,113036
-2,-1,0,-5,-17,-2,-1,-1,2021-08-06 13:43:58,129034
8,11,23,63,93,54,19,9,2021-08-06 13:43:58,129034
1,-2,-2,-4,-4,-3,-1,-1,2021-08-06 13:43:58,129034
-5,-8,-10,-20,-33,-17,-9,-4,2021-08-06 13:43:58,129034
-3,-4,-7,-16,-22,-18,-8,-6,2021-08-06 13:43:58,129034
0,-1,0,-8,-22,-9,-3,-1,2021-08-06 13:43:58,129034
0,-2,-1,0,-6,0,-2,1,2021-08-06 13:43:58,129034
2,1,2,2,7,0,0,0,2021-08-06 13:43:58,129034
0,-1,1,7,12,8,2,-2,2021-08-06 13:43:58,145036
3,4,4,4,-3,1,1,1,2021-08-06 13:43:58,161035
-3,-4,-3,2,2,1,-2,-3,2021-08-06 13:43:58,161035
-2,-2,-4,-17,-35,-19,-3,-2,2021-08-06 13:43:58,177034
2,3,5,10,25,12,5,1,2021-08-06 13:43:58,177034
-5,-3,-6,-20,-35,-20,-8,-4,2021-08-06 13:43:58,177034
6,6,12,29,40,23,10,6,2021-08-06 13:43:58,177034
-8,-7,-8,-7,-11,-6,-6,-5,2021-08-06 13:43:58,177034
4,7,5,4,5,4,3,3,2021-08-06 13:43:58,177034
-3,-5,-4,-7,-12,-9,-5,-5,2021-08-06 13:43:58,178036
-1,2,-2,-12,-17,-10,-4,-2,2021-08-06 13:43:58,178036
0,-1,-2,-3,2,0,0,-2,2021-08-06 13:43:58,178036
2,2,2,6,10,6,3,2,2021-08-06 13:43:58,193035
-7,-8,-12,-25,-41,-26,-14,-10,2021-08-06 13:43:58,193035
5,5,9,22,39,24,11,6,2021-08-06 13:43:58,193035
0,-1,3,17,30,14,2,0,2021-08-06 13:43:58,193035
-2,-1,-4,-6,-8,-6,-2,0,2021-08-06 13:43:58,225035
1,3,1,2,3,6,1,0,2021-08-06 13:43:58,241034
-7,-9,-8,-13,-27,-18,-11,-6,2021-08-06 13:43:58,241034
3,2,-2,-6,-6,-6,-1,0,2021-08-06 13:43:58,241034
2,1,2,7,9,6,0,0,2021-08-06 13:43:58,241034
-1,-2,-4,-2,-5,-4,0,-1,2021-08-06 13:43:58,241034
0,-2,-5,-15,-25,-13,-6,-2,2021-08-06 13:43:58,241034
0,-2,0,9,11,11,3,2,2021-08-06 13:43:58,257034
-4,-5,-7,-4,1,-2,-3,-3,2021-08-06 13:43:58,273036
3,5,7,11,12,7,3,4,2021-08-06 13:43:58,273036
-3,-5,-6,-9,-7,-4,-3,-4,2021-08-06 13:43:58,273036
-1,2,2,0,-10,-6,-1,-2,2021-08-06 13:43:58,273036
-2,-2,-2,-4,-4,-3,-2,-2,2021-08-06 13:43:58,273036
-2,-1,-1,3,7,1,-1,0,2021-08-06 13:43:58,273036
-1,-1,-3,-8,-11,-7,-3,-1,2021-08-06 13:43:58,274037
-1,-4,-7,-14,-18,-11,-7,-4,2021-08-06 13:43:58,274037
3,2,4,14,20,13,6,2,2021-08-06 13:43:58,321035
-1,-3,-3,-3,2,1,0,-1,2021-08-06 13:43:58,321035
0,2,0,-3,-8,-2,1,1,2021-08-06 13:43:58,321035
0,-1,0,-2,2,0,-2,-1,2021-08-06 13:43:58,321035
-3,-4,-6,-3,-7,-5,-4,-2,2021-08-06 13:43:58,321035
-1,-5,-6,-10,-15,-8,-3,-4,2021-08-06 13:43:58,321035
0,-2,-1,5,8,4,-1,1,2021-08-06 13:43:58,322036
-2,0,2,2,0,3,2,1,2021-08-06 13:43:58,322036
-5,-7,-8,-16,-26,-15,-7,-6,2021-08-06 13:43:58,337036
3,6,9,23,41,19,7,4,2021-08-06 13:43:58,337036
-2,-2,-3,-2,-8,-3,-2,-3,2021-08-06 13:43:58,337036
-1,-3,-6,-9,-14,-8,-3,-3,2021-08-06 13:43:58,337036
-3,-1,-1,-10,-16,-10,-6,-1,2021-08-06 13:43:58,369034
1,0,0,4,8,5,2,1,2021-08-06 13:43:58,385034
0,1,-1,-2,1,0,0,-1,2021-08-06 13:43:58,392036
-1,-2,0,2,3,0,0,-1,2021-08-06 13:43:58,392036
0,0,-1,-1,0,0,1,-1,2021-08-06 13:43:58,392036
-3,-3,-2,-2,-5,-2,-2,0,2021-08-06 13:43:58,392036
2,3,3,7,7,4,4,2,2021-08-06 13:43:58,392036
1,1,-3,-3,-5,-2,-1,-1,2021-08-06 13:43:58,392036
0,1,2,4,3,2,1,-1,2021-08-06 13:43:58,393036
-1,-3,-4,-6,-9,-3,-3,-3,2021-08-06 13:43:58,393036
-1,-1,-1,-2,-8,-3,1,-1,2021-08-06 13:43:58,401034
0,0,2,6,9,5,0,1,2021-08-06 13:43:58,417035
-2,0,-2,-5,-7,-5,-1,-1,2021-08-06 13:43:58,417035
-1,-5,-3,-2,-5,-2,-1,0,2021-08-06 13:43:58,417035
3,2,3,3,6,5,1,2,2021-08-06 13:43:58,417035
-2,-1,0,1,7,1,0,-1,2021-08-06 13:43:58,417035
0,-1,0,2,1,0,-1,-1,2021-08-06 13:43:58,433034
-1,3,0,-5,-7,-4,-2,-2,2021-08-06 13:43:58,433034
-4,-4,-4,-3,-11,-5,-3,-3,2021-08-06 13:43:58,449034
0,1,-1,-4,-2,1,1,2,2021-08-06 13:43:58,465034
0,-1,0,2,4,2,0,-2,2021-08-06 13:43:58,481035
-1,1,1,2,6,2,1,1,2021-08-06 13:43:58,481035
0,-4,-4,-3,0,-1,-2,-2,2021-08-06 13:43:58,481035
-2,-2,1,0,-3,-2,-2,-2,2021-08-06 13:43:58,481035
-1,-1,-2,-3,-3,-3,-2,0,2021-08-06 13:43:58,481035
-2,-2,-2,-3,-4,-2,-2,0,2021-08-06 13:43:58,481035
-2,-1,-3,-6,-4,-4,-3,-3,2021-08-06 13:43:58,481035
1,2,3,10,15,4,0,1,2021-08-06 13:43:58,482037
2,1,2,3,5,8,5,2,2021-08-06 13:43:58,497036
1,0,0,4,12,4,2,-1,2021-08-06 13:43:58,513039
-3,-2,0,-4,-6,-5,-4,-3,2021-08-06 13:43:58,513039
-4,-3,-7,-15,-27,-16,-7,-4,2021-08-06 13:43:58,513039
1,-1,1,6,18,10,2,4,2021-08-06 13:43:58,513039
1,-1,-1,4,2,2,-1,0,2021-08-06 13:43:58,513039
-3,-3,-1,-2,-2,-2,0,-1,2021-08-06 13:43:58,513039
3,0,0,-4,-4,-3,-2,-1,2021-08-06 13:43:58,513039
0,-1,-1,-1,-5,-5,-2,-1,2021-08-06 13:43:58,545036
-1,1,-2,-8,-11,-7,-2,-2,2021-08-06 13:43:58,545036
0,-1,-1,0,2,-1,-1,0,2021-08-06 13:43:58,545036
0,1,2,8,11,8,3,0,2021-08-06 13:43:58,545036
-4,-2,-5,-7,-15,-9,-4,-3,2021-08-06 13:43:58,561035
0,0,3,12,25,13,3,2,2021-08-06 13:43:58,561035
-2,1,0,-3,-3,-2,-2,-1,2021-08-06 13:43:58,576036
-3,-2,-4,-8,-11,-5,-3,-2,2021-08-06 13:43:58,592035
-2,-3,-1,0,1,0,-2,-1,2021-08-06 13:43:58,608034
3,5,4,0,-5,0,2,1,2021-08-06 13:43:58,608034
-1,0,0,1,1,-1,-1,0,2021-08-06 13:43:58,608034
-1,-3,-4,-6,-10,-7,-2,-3,2021-08-06 13:43:58,608034
0,-1,1,4,19,10,4,1,2021-08-06 13:43:58,608034
-3,-3,-3,-6,-11,-6,-3,-2,2021-08-06 13:43:58,608034
1,-1,-2,-4,-3,-1,-1,0,2021-08-06 13:43:58,608034
3,2,4,10,16,10,4,3,2021-08-06 13:43:58,608034
-2,0,0,1,-3,-1,-1,-3,2021-08-06 13:43:58,624036
-3,-4,-4,-2,-3,-4,-3,-3,2021-08-06 13:43:58,640034
-3,-1,-1,-2,-3,-1,-3,0,2021-08-06 13:43:58,640034
-6,-6,-9,-19,-26,-19,-9,-5,2021-08-06 13:43:58,640034
4,6,6,19,26,17,10,4,2021-08-06 13:43:58,640034
-1,-2,-1,-3,-6,-2,-1,0,2021-08-06 13:43:58,640034
-1,-1,-1,1,0,-1,-1,1,2021-08-06 13:43:58,640034
-2,0,0,0,-1,-1,-2,-1,2021-08-06 13:43:58,640034
-1,-3,-5,-11,-18,-9,-5,-4,2021-08-06 13:43:58,671034
0,0,-1,-3,-4,-4,-2,-1,2021-08-06 13:43:58,686035
2,0,2,7,19,10,5,0,2021-08-06 13:43:58,702035
1,3,2,4,9,7,3,2,2021-08-06 13:43:58,702035
-1,2,0,-5,-10,-8,-4,0,2021-08-06 13:43:58,702035
-4,-5,-4,-6,-12,-8,-5,-4,2021-08-06 13:43:58,702035
-1,-2,0,-1,-4,-3,-2,-3,2021-08-06 13:43:58,702035
0,-4,-2,-2,3,0,-1,-1,2021-08-06 13:43:58,702035
2,0,1,4,9,3,-1,0,2021-08-06 13:43:58,702035
1,1,0,1,2,0,0,0,2021-08-06 13:43:58,702035
-1,1,2,4,1,1,3,0,2021-08-06 13:43:58,702035
-3,0,-3,-5,-8,-6,-2,-2,2021-08-06 13:43:58,703036
-2,-4,-4,-12,-12,-7,-2,0,2021-08-06 13:43:58,734034
0,1,3,9,12,5,1,1,2021-08-06 13:43:58,749034
-1,1,-1,0,3,1,0,-1,2021-08-06 13:43:58,753035
0,-1,1,7,8,5,1,-1,2021-08-06 13:43:58,753035
-3,-3,-4,-4,-9,-5,-4,-2,2021-08-06 13:43:58,753035
0,1,1,-1,-1,2,1,0,2021-08-06 13:43:58,753035
0,-2,-3,1,3,0,-1,-1,2021-08-06 13:43:58,753035
-4,-7,-11,-19,-25,-17,-7,-3,2021-08-06 13:43:58,753035
1,0,2,5,6,2,1,0,2021-08-06 13:43:58,753035
-4,-6,-9,-14,-18,-14,-8,-5,2021-08-06 13:43:58,754036
2,3,5,15,17,12,4,1,2021-08-06 13:43:58,754036
-1,1,3,3,2,3,2,-1,2021-08-06 13:43:58,754036
-3,-5,-4,-2,-9,-7,-6,-4,2021-08-06 13:43:58,780036
2,2,3,13,18,9,3,2,2021-08-06 13:43:58,780036
-2,-4,-5,-15,-22,-14,-4,-1,2021-08-06 13:43:58,780036
1,1,3,9,12,7,3,2,2021-08-06 13:43:58,780036
-5,-4,-5,-13,-20,-12,-6,-5,2021-08-06 13:43:58,811034
3,5,5,14,25,13,7,4,2021-08-06 13:43:58,811034
-1,0,0,-3,-3,-2,-3,-2,2021-08-06 13:43:58,811034
4,3,3,6,7,5,4,2,2021-08-06 13:43:58,811034
-2,-3,-5,-11,-15,-11,-6,-4,2021-08-06 13:43:58,826036
-4,-5,-7,-16,-21,-9,-6,-4,2021-08-06 13:43:58,842036
1,1,2,7,19,11,3,2,2021-08-06 13:43:58,857034
1,3,5,8,7,2,1,1,2021-08-06 13:43:58,872035
0,1,3,8,10,6,2,1,2021-08-06 13:43:58,888034
-2,-4,-6,-11,-16,-10,-4,-3,2021-08-06 13:43:58,888034
-5,-5,-7,-10,-11,-9,-4,-1,2021-08-06 13:43:58,888034
-3,-3,-3,-2,1,1,-1,-1,2021-08-06 13:43:58,888034
0,2,1,4,7,3,2,0,2021-08-06 13:43:58,888034
-2,-2,-4,-5,-9,-5,-1,-2,2021-08-06 13:43:58,888034
0,0,0,-2,-5,-2,-1,0,2021-08-06 13:43:58,888034
1,1,2,7,10,5,1,2,2021-08-06 13:43:58,888034
-1,0,-1,1,0,2,0,-1,2021-08-06 13:43:58,889036
-3,-3,-1,1,2,-1,-2,-2,2021-08-06 13:43:58,889036
-2,-4,-4,-6,-7,-6,-2,-3,2021-08-06 13:43:58,889036
-2,-1,-2,1,-6,-3,-1,-3,2021-08-06 13:43:58,889036
0,0,-1,-1,-1,1,1,0,2021-08-06 13:43:58,903036
0,1,0,-3,-4,-4,-2,0,2021-08-06 13:43:58,919034
1,1,2,3,3,5,1,1,2021-08-06 13:43:58,935034
1,0,1,5,9,5,2,1,2021-08-06 13:43:58,950034
-1,-2,-4,-3,-3,-4,-1,-1,2021-08-06 13:43:58,950034
2,1,4,7,13,9,3,2,2021-08-06 13:43:58,950034
0,1,1,3,3,-1,-1,2,2021-08-06 13:43:58,950034
-3,-2,-3,-4,-6,-2,-3,-3,2021-08-06 13:43:58,950034
1,-1,-2,1,0,1,-1,1,2021-08-06 13:43:58,950034
-2,0,1,-1,-3,-3,-2,-1,2021-08-06 13:43:58,950034
-3,-1,-1,-2,-5,-3,-4,-3,2021-08-06 13:43:58,950034
-1,-2,-1,-5,-5,-1,0,0,2021-08-06 13:43:58,950034
1,0,-3,-3,2,0,0,0,2021-08-06 13:43:58,966036
0,0,-1,-1,-3,2,0,-1,2021-08-06 13:43:58,982035
0,-1,-4,1,0,-1,1,0,2021-08-06 13:43:58,982035
-2,-1,-2,-2,-3,-4,-1,-1,2021-08-06 13:43:58,982035
2,2,5,10,16,8,4,1,2021-08-06 13:43:58,982035
-1,-3,-6,-9,-9,-5,0,0,2021-08-06 13:43:58,982035
-1,1,0,2,2,2,-1,-2,2021-08-06 13:43:58,982035
1,1,-1,0,0,0,0,-1,2021-08-06 13:43:58,982035
-4,-4,0,-4,-6,-5,-4,-3,2021-08-06 13:43:58,998035
3,3,1,4,4,3,0,1,2021-08-06 13:43:58,998035
-1,-2,-2,-3,-2,-2,-2,-3,2021-08-06 13:43:58,998035
-5,-6,-9,-14,-18,-15,-9,-5,2021-08-06 13:43:58,998035
-2,0,-1,0,0,5,2,1,2021-08-06 13:43:59,030036
-3,-4,-2,-2,-2,-3,-1,-2,2021-08-06 13:43:59,046035
2,4,1,0,1,-1,-2,2,2021-08-06 13:43:59,046035
-1,1,1,4,9,3,2,-1,2021-08-06 13:43:59,046035
-2,-2,-2,-2,-2,-2,-2,-2,2021-08-06 13:43:59,046035
-3,-3,-1,-3,-6,-3,-2,-2,2021-08-06 13:43:59,046035
-3,-1,-4,-3,-5,-4,-1,0,2021-08-06 13:43:59,046035
5,3,7,12,15,12,6,3,2021-08-06 13:43:59,046035
2,2,2,2,3,1,2,2,2021-08-06 13:43:59,078036
1,0,-3,-3,-7,-3,-2,-1,2021-08-06 13:43:59,094034
-1,-4,-2,-3,-1,-1,-1,-2,2021-08-06 13:43:59,109036
-3,-5,-5,-1,-2,-1,-4,-1,2021-08-06 13:43:59,109036
-4,-2,-1,-3,-1,0,-1,-1,2021-08-06 13:43:59,109036
-6,-4,-1,4,2,-2,-2,-3,2021-08-06 13:43:59,109036
-1,2,1,0,-1,-1,-1,-2,2021-08-06 13:43:59,109036
-1,1,2,-1,0,0,-1,0,2021-08-06 13:43:59,109036
2,3,1,-1,1,-1,0,0,2021-08-06 13:43:59,109036
-3,-4,-4,-8,-9,-6,-4,-2,2021-08-06 13:43:59,109036
-2,-4,-4,-4,-11,-6,-3,-3,2021-08-06 13:43:59,109036
1,-1,-1,-1,0,0,1,0,2021-08-06 13:43:59,109036
-1,-2,1,2,2,-1,-1,-1,2021-08-06 13:43:59,125038
0,0,1,0,1,1,1,1,2021-08-06 13:43:59,141035
-1,-3,-1,2,2,1,3,-1,2021-08-06 13:43:59,157034
0,-1,-1,0,2,2,-1,-1,2021-08-06 13:43:59,173035
2,1,0,-1,-3,-3,-1,0,2021-08-06 13:43:59,173035
0,-1,-1,2,1,2,0,-2,2021-08-06 13:43:59,173035
1,2,3,2,4,3,1,2,2021-08-06 13:43:59,173035
-3,-2,-5,-6,-6,-3,-4,-4,2021-08-06 13:43:59,173035
-3,-1,-1,3,8,3,-3,-1,2021-08-06 13:43:59,173035
-1,-1,-1,-4,-8,-4,0,-2,2021-08-06 13:43:59,173035
-1,-2,-2,-5,-2,-8,-5,-3,2021-08-06 13:43:59,174036
1,1,3,11,12,6,5,1,2021-08-06 13:43:59,174036
0,1,1,-2,0,3,0,1,2021-08-06 13:43:59,205035
3,3,3,9,11,6,2,1,2021-08-06 13:43:59,221034
1,1,2,7,10,7,1,1,2021-08-06 13:43:59,236034
-4,-4,-4,-9,-15,-9,-4,-5,2021-08-06 13:43:59,251034
-4,-6,-11,-19,-24,-20,-8,-3,2021-08-06 13:43:59,251034
-3,-4,-5,-11,-13,-7,-5,-3,2021-08-06 13:43:59,251034
2,2,4,7,5,4,4,0,2021-08-06 13:43:59,251034
0,0,1,4,6,2,0,-1,2021-08-06 13:43:59,251034
-2,-2,-3,-6,-4,2,1,-1,2021-08-06 13:43:59,251034
-2,-2,-5,-12,-15,-12,-4,-4,2021-08-06 13:43:59,251034
3,3,8,13,16,15,7,2,2021-08-06 13:43:59,251034
1,1,2,11,23,12,6,4,2021-08-06 13:43:59,252036
-6,-10,-14,-24,-36,-30,-11,-6,2021-08-06 13:43:59,252036
0,0,2,8,15,7,2,1,2021-08-06 13:43:59,252036
-4,-5,-4,-4,-8,-5,-6,-2,2021-08-06 13:43:59,252036
1,4,7,8,1,1,-2,-1,2021-08-06 13:43:59,252036
-1,-1,1,6,9,8,1,-1,2021-08-06 13:43:59,267034
1,1,-1,-8,-5,-2,0,0,2021-08-06 13:43:59,267034
-2,-2,-1,1,5,4,2,1,2021-08-06 13:43:59,267034
-4,-5,-8,-11,-14,-8,-3,-4,2021-08-06 13:43:59,267034
-1,-1,2,5,2,-2,0,-1,2021-08-06 13:43:59,283034
3,3,5,8,10,6,3,4,2021-08-06 13:43:59,299034
-1,0,-4,-11,-10,-4,0,-2,2021-08-06 13:43:59,315034
-2,1,0,0,-2,-2,-2,0,2021-08-06 13:43:59,315034
-2,-2,0,-1,-2,-1,0,-2,2021-08-06 13:43:59,315034
-2,-4,-4,-4,-4,-1,-2,-1,2021-08-06 13:43:59,315034
-1,-2,-5,-9,-10,-5,-4,-2,2021-08-06 13:43:59,315034
0,-2,-2,-7,-10,-6,-2,-1,2021-08-06 13:43:59,315034
-1,0,4,10,15,7,4,0,2021-08-06 13:43:59,330035
-1,-3,-3,-7,-9,-2,0,-1,2021-08-06 13:43:59,330035
2,4,4,11,17,7,3,3,2021-08-06 13:43:59,330035
0,-1,-3,-3,-3,-1,-1,-2,2021-08-06 13:43:59,330035
2,2,3,2,-3,-2,-2,-2,2021-08-06 13:43:59,361035
-2,-2,-3,-4,-9,-5,-4,-3,2021-08-06 13:43:59,361035
-2,-4,-3,-6,-5,-7,-2,-2,2021-08-06 13:43:59,361035
-3,-4,-2,-5,-3,-4,-2,-3,2021-08-06 13:43:59,361035
0,1,0,1,-6,4,3,2,2021-08-06 13:43:59,361035
2,3,4,4,3,1,0,1,2021-08-06 13:43:59,361035
-1,-1,2,6,1,1,-1,-1,2021-08-06 13:43:59,376037
-2,0,-3,-4,0,-2,-1,0,2021-08-06 13:43:59,376037
-2,-4,-11,-23,-23,-13,-7,-4,2021-08-06 13:43:59,408036
-1,-2,1,4,12,4,0,1,2021-08-06 13:43:59,424034
-1,-2,-4,-5,-13,-7,-3,-3,2021-08-06 13:43:59,439034
1,0,-1,1,1,-1,-1,0,2021-08-06 13:43:59,439034
-1,3,4,15,19,12,4,3,2021-08-06 13:43:59,439034
1,0,2,7,8,5,4,2,2021-08-06 13:43:59,439034
0,0,-1,-1,5,4,2,0,2021-08-06 13:43:59,454034
-3,-4,-5,-6,-15,-10,-3,-3,2021-08-06 13:43:59,454034
2,2,3,8,10,4,2,0,2021-08-06 13:43:59,454034
-2,-3,-2,-3,-2,-2,-3,-1,2021-08-06 13:43:59,454034
-5,-4,-6,-15,-24,-15,-8,-3,2021-08-06 13:43:59,454034
2,1,2,5,5,6,1,2,2021-08-06 13:43:59,454034
-1,-2,-2,-1,3,1,-3,-4,2021-08-06 13:43:59,455035
0,-1,-2,-3,-7,-3,0,0,2021-08-06 13:43:59,455035
0,0,1,-1,-1,-2,-3,0,2021-08-06 13:43:59,469034
-2,1,0,0,3,4,1,0,2021-08-06 13:43:59,476036
-2,0,1,0,-1,-1,-1,-1,2021-08-06 13:43:59,484034
-2,-2,-2,2,1,2,1,-2,2021-08-06 13:43:59,484034
3,3,1,1,8,4,1,1,2021-08-06 13:43:59,484034
-1,-1,-2,-5,-10,-8,-4,-2,2021-08-06 13:43:59,484034
2,1,4,11,16,8,2,2,2021-08-06 13:43:59,484034
-6,-7,-8,-8,-10,-8,-6,-4,2021-08-06 13:43:59,484034
7,10,8,11,14,11,8,6,2021-08-06 13:43:59,499034
-2,-1,-3,-4,-7,-3,-1,-2,2021-08-06 13:43:59,499034
-3,-2,-2,-9,-13,-6,-1,-2,2021-08-06 13:43:59,514034
-3,0,-2,-5,-6,-7,-4,-4,2021-08-06 13:43:59,514034
-4,-5,-3,0,2,2,0,-3,2021-08-06 13:43:59,514034
4,4,8,10,17,8,4,3,2021-08-06 13:43:59,514034
1,0,-3,-8,-7,-4,-3,-1,2021-08-06 13:43:59,530036
3,3,6,8,9,5,2,1,2021-08-06 13:43:59,546035
-7,-7,-8,-7,-8,-10,-5,-5,2021-08-06 13:43:59,546035
1,-1,-4,-10,-15,-5,-1,0,2021-08-06 13:43:59,546035
-4,-3,-3,-1,-7,-5,-3,-1,2021-08-06 13:43:59,562039
1,2,0,1,-3,0,2,0,2021-08-06 13:43:59,562039
2,1,3,8,16,8,3,2,2021-08-06 13:43:59,562039
-2,-4,-2,0,0,-1,-2,-2,2021-08-06 13:43:59,562039
3,1,2,2,5,3,0,0,2021-08-06 13:43:59,577034
-2,-2,-3,-5,-10,-6,-3,-2,2021-08-06 13:43:59,592035
-2,-1,-1,-8,-14,-7,-4,-3,2021-08-06 13:43:59,607034
-1,-2,-1,0,4,1,-2,0,2021-08-06 13:43:59,607034
-1,-1,-3,2,-1,1,0,1,2021-08-06 13:43:59,607034
-1,2,3,6,11,4,1,-1,2021-08-06 13:43:59,607034
-2,-5,-5,-7,-7,-3,-1,-1,2021-08-06 13:43:59,622034
-3,0,-1,-3,-6,-5,-2,-2,2021-08-06 13:43:59,638035
-1,-2,0,-1,-6,-6,-2,-2,2021-08-06 13:43:59,638035
-2,-5,-6,-5,-4,0,-1,0,2021-08-06 13:43:59,638035
4,7,8,15,19,10,5,4,2021-08-06 13:43:59,638035
1,0,1,-2,-3,0,1,-2,2021-08-06 13:43:59,638035
-2,-4,-3,-1,-1,-4,-3,-2,2021-08-06 13:43:59,638035
-4,-4,-4,-9,-15,-11,-7,-4,2021-08-06 13:43:59,638035
-2,-4,-2,-4,-7,-1,-2,0,2021-08-06 13:43:59,638035
1,1,-1,6,11,6,0,0,2021-08-06 13:43:59,639036
0,1,-1,0,0,2,2,0,2021-08-06 13:43:59,639036
-1,0,1,1,4,0,0,0,2021-08-06 13:43:59,639036
-2,-2,-5,-8,-14,-9,-5,-5,2021-08-06 13:43:59,654034
-1,0,4,10,6,2,0,-1,2021-08-06 13:43:59,654034
0,0,-1,-5,4,1,2,0,2021-08-06 13:43:59,685034
-1,-1,-4,-8,-6,-3,0,-1,2021-08-06 13:43:59,685034
-2,-1,-2,-2,-2,-2,-2,0,2021-08-06 13:43:59,685034
1,2,0,4,5,1,0,0,2021-08-06 13:43:59,685034
0,1,3,9,7,4,1,-1,2021-08-06 13:43:59,685034
-2,-2,-7,-9,-11,-6,-2,-1,2021-08-06 13:43:59,685034
-1,-2,-5,-5,-6,-4,-3,-3,2021-08-06 13:43:59,685034
-1,-1,2,8,8,4,2,-1,2021-08-06 13:43:59,685034
5,5,5,13,20,16,6,3,2021-08-06 13:43:59,717034
-4,-6,-7,-16,-21,-18,-8,-3,2021-08-06 13:43:59,733034
-1,-3,-5,-7,-5,-3,-3,-3,2021-08-06 13:43:59,733034
-1,0,0,-3,-9,-9,-3,-1,2021-08-06 13:43:59,733034
-7,-5,-6,-12,-18,-12,-5,-4,2021-08-06 13:43:59,733034
8,8,9,22,41,26,13,8,2021-08-06 13:43:59,733034
-3,-1,-1,1,0,0,-1,-2,2021-08-06 13:43:59,733034
1,5,12,25,34,25,6,4,2021-08-06 13:43:59,734036
1,0,-3,-9,-10,-8,-2,-1,2021-08-06 13:43:59,748036
-5,-9,-14,-37,-52,-34,-12,-6,2021-08-06 13:43:59,764035
-5,-5,-7,-12,-24,-15,-7,-4,2021-08-06 13:43:59,780035
-1,-2,-3,-4,2,-1,1,-2,2021-08-06 13:43:59,780035
5,4,9,18,19,14,4,2,2021-08-06 13:43:59,780035
0,2,5,5,3,4,-2,-2,2021-08-06 13:43:59,780035
2,1,2,9,19,9,7,2,2021-08-06 13:43:59,780035
-2,-2,-2,-4,-8,-3,-2,-2,2021-08-06 13:43:59,780035
-2,-4,-4,-2,-1,-4,-3,0,2021-08-06 13:43:59,796034
-2,-2,0,1,0,0,-2,-1,2021-08-06 13:43:59,796034
0,0,0,0,0,-1,-1,-1,2021-08-06 13:43:59,796034
0,-1,-2,-8,-4,-2,-2,0,2021-08-06 13:43:59,796034
0,0,-1,0,1,0,-1,1,2021-08-06 13:43:59,812037
1,1,4,12,12,6,0,-1,2021-08-06 13:43:59,812037
-1,-2,-3,-4,-4,1,0,0,2021-08-06 13:43:59,812037
-3,-4,-10,-19,-22,-12,-3,-1,2021-08-06 13:43:59,812037
-3,-3,-2,-3,-2,-1,-2,-2,2021-08-06 13:43:59,828036
4,5,9,20,24,18,7,4,2021-08-06 13:43:59,828036
-7,-7,-10,-19,-30,-27,-11,-7,2021-08-06 13:43:59,828036
-4,-6,-8,-15,-18,-11,-6,-2,2021-08-06 13:43:59,828036
1,0,2,-5,-7,-3,-1,1,2021-08-06 13:43:59,860034
1,2,5,9,12,9,2,0,2021-08-06 13:43:59,876035
4,4,9,26,44,25,10,6,2021-08-06 13:43:59,876035
0,0,-1,1,-3,-1,2,1,2021-08-06 13:43:59,876035
-3,-2,-2,-5,-12,-7,-3,-2,2021-08-06 13:43:59,876035
1,0,-3,-3,-3,-1,1,0,2021-08-06 13:43:59,876035
0,-1,0,-5,-10,-8,-3,0,2021-08-06 13:43:59,876035
-4,-3,-4,-5,-4,-4,-4,-4,2021-08-06 13:43:59,876035
1,-1,-1,5,9,6,2,1,2021-08-06 13:43:59,892035
-1,0,-2,-4,-6,-4,-2,-1,2021-08-06 13:43:59,908034
0,-1,-3,-4,-8,-5,-1,-2,2021-08-06 13:43:59,924036
-1,-2,-4,-2,-7,-3,-4,-3,2021-08-06 13:43:59,924036
0,-2,-2,-3,-1,-2,-1,-2,2021-08-06 13:43:59,924036
1,1,3,8,21,11,4,2,2021-08-06 13:43:59,924036
-1,-1,2,1,-4,-2,-2,-2,2021-08-06 13:43:59,924036
-2,-5,-8,-10,-9,-4,0,-1,2021-08-06 13:43:59,924036
3,3,-1,0,4,3,1,2,2021-08-06 13:43:59,924036
-2,-2,-1,2,-3,0,-1,-1,2021-08-06 13:43:59,924036
1,2,7,1,2,0,0,0,2021-08-06 13:43:59,925039
0,-1,1,-8,-14,-9,-5,-1,2021-08-06 13:43:59,925039
-4,-3,-3,-7,-6,-4,-4,-3,2021-08-06 13:43:59,956034
0,0,0,9,15,8,4,0,2021-08-06 13:43:59,972034
2,-3,-6,-3,-1,1,0,0,2021-08-06 13:44:00,004034
0,-3,-3,-4,-6,-5,-2,-1,2021-08-06 13:44:00,004034
-3,-1,0,0,1,0,-1,-2,2021-08-06 13:44:00,004034
-3,-1,0,4,7,4,1,-1,2021-08-06 13:44:00,004034
-4,-2,-3,-5,-8,-5,-3,-3,2021-08-06 13:44:00,004034
3,1,3,4,9,4,1,-1,2021-08-06 13:44:00,020034
-2,-4,-4,-6,-7,-5,-6,-4,2021-08-06 13:44:00,036034
1,1,1,-1,-4,-3,-1,1,2021-08-06 13:44:00,036034
1,2,1,3,4,5,2,2,2021-08-06 13:44:00,036034
-2,-3,-3,-4,-5,-3,-3,-2,2021-08-06 13:44:00,036034
0,-1,-1,1,-5,-1,0,0,2021-08-06 13:44:00,036034
2,-2,1,0,2,0,1,0,2021-08-06 13:44:00,036034
-2,-4,-2,-1,2,1,1,0,2021-08-06 13:44:00,036034
0,0,-1,-3,-3,-3,-2,0,2021-08-06 13:44:00,036034
-2,-2,-4,0,-1,-3,0,-2,2021-08-06 13:44:00,037036
-3,0,-4,-5,-7,-6,-2,-2,2021-08-06 13:44:00,037036
1,0,1,3,12,7,3,2,2021-08-06 13:44:00,037036
0,2,2,5,5,2,2,0,2021-08-06 13:44:00,037036
1,1,3,0,-1,-1,-1,1,2021-08-06 13:44:00,052034
-1,-1,1,-3,-4,-2,-2,-2,2021-08-06 13:44:00,068034
-3,-2,-2,-4,-7,-6,-5,-3,2021-08-06 13:44:00,084034
-2,-1,-1,-1,0,-3,-1,-1,2021-08-06 13:44:00,084034
-1,-2,-1,1,2,2,-1,0,2021-08-06 13:44:00,084034
-2,-3,-3,-4,-7,-4,-2,-2,2021-08-06 13:44:00,084034
1,-2,-3,-5,-4,0,-2,0,2021-08-06 13:44:00,084034
4,5,5,3,4,3,3,1,2021-08-06 13:44:00,084034
-1,-2,-1,0,1,-1,0,0,2021-08-06 13:44:00,084034
-1,-2,-1,0,-2,-2,-1,-3,2021-08-06 13:44:00,085036
-2,-5,-3,-5,-3,-3,-2,-3,2021-08-06 13:44:00,085036
-3,-5,-4,-4,-8,-2,-3,-3,2021-08-06 13:44:00,085036
-2,-2,-2,-1,-2,-1,-1,-1,2021-08-06 13:44:00,115034
2,2,3,8,11,8,4,1,2021-08-06 13:44:00,131034
-2,-2,-3,0,-2,-2,-2,-2,2021-08-06 13:44:00,147038
1,2,2,1,-1,0,2,2,2021-08-06 13:44:00,147038
1,3,4,-1,-2,-1,0,0,2021-08-06 13:44:00,147038
-2,-4,-2,-5,-9,-5,-4,-2,2021-08-06 13:44:00,147038
1,3,0,1,-3,-2,-1,1,2021-08-06 13:44:00,147038
-1,-1,-2,-2,0,-1,-3,-1,2021-08-06 13:44:00,148036
-3,-3,-3,-3,-3,-2,-2,-3,2021-08-06 13:44:00,148036
-1,-2,-3,-2,0,-1,-2,-1,2021-08-06 13:44:00,148036
-2,-4,-2,0,-1,-1,1,0,2021-08-06 13:44:00,148036
-1,0,1,-1,-3,-2,0,-1,2021-08-06 13:44:00,148036
-1,0,-1,-1,4,2,0,0,2021-08-06 13:44:00,179035
-2,1,-2,-5,-6,-4,-2,-1,2021-08-06 13:44:00,179035
-4,-3,-4,-7,-14,-9,-6,-5,2021-08-06 13:44:00,187073
1,-1,-1,6,14,7,3,0,2021-08-06 13:44:00,187073
2,0,1,8,10,6,2,2,2021-08-06 13:44:00,187073
2,2,2,1,2,2,0,1,2021-08-06 13:44:00,187073
0,2,0,1,3,3,2,0,2021-08-06 13:44:00,187073
-3,-2,-5,-6,-12,-8,-5,-3,2021-08-06 13:44:00,188036
0,-3,-4,-6,-9,-6,-1,-4,2021-08-06 13:44:00,210089
0,-1,0,1,5,2,0,0,2021-08-06 13:44:00,210089
1,-1,-1,-4,-4,-2,-3,-3,2021-08-06 13:44:00,210089
-2,0,-2,-3,-8,-4,-3,0,2021-08-06 13:44:00,210089
-1,-2,-2,3,8,1,1,-3,2021-08-06 13:44:00,242036
-1,-2,0,2,-1,1,-2,-2,2021-08-06 13:44:00,242036
0,-1,1,3,6,2,1,-2,2021-08-06 13:44:00,258034
0,-2,-4,-6,-9,-6,-3,-4,2021-08-06 13:44:00,258034
0,3,1,-2,-7,-3,-1,-1,2021-08-06 13:44:00,258034
-1,-4,-3,-9,-12,-6,-1,-1,2021-08-06 13:44:00,258034
-4,-4,-4,-2,-1,-2,-2,-2,2021-08-06 13:44:00,258034
0,2,4,11,14,6,3,0,2021-08-06 13:44:00,258034
-2,-1,-1,-2,-4,-2,-2,0,2021-08-06 13:44:00,274072
0,0,-1,-3,-2,-2,-1,-1,2021-08-06 13:44:00,274072
-2,-2,1,-1,-3,0,0,-1,2021-08-06 13:44:00,274072
-3,-4,-4,-4,1,-1,-2,-2,2021-08-06 13:44:00,274072
0,-1,1,4,4,1,1,0,2021-08-06 13:44:00,290035
-2,-3,-4,-3,-6,-4,-3,-2,2021-08-06 13:44:00,290035
3,2,2,-3,-5,-2,0,1,2021-08-06 13:44:00,290035
1,-1,-1,0,0,5,1,2,2021-08-06 13:44:00,290035
-2,-1,0,1,3,2,1,-1,2021-08-06 13:44:00,322034
-3,-3,-4,-2,-5,-5,-2,-1,2021-08-06 13:44:00,338035
-1,1,0,-1,2,-1,-1,-2,2021-08-06 13:44:00,338035
-4,-4,-5,-10,-16,-9,-5,-2,2021-08-06 13:44:00,338035
2,4,4,9,12,6,-1,1,2021-08-06 13:44:00,338035
0,1,-1,-2,-2,-2,-1,0,2021-08-06 13:44:00,338035
-4,-2,-2,-2,-4,0,-1,-2,2021-08-06 13:44:00,338035
2,2,1,1,2,1,3,0,2021-08-06 13:44:00,338035
-3,-4,-3,-6,-6,-5,-3,-3,2021-08-06 13:44:00,354034
-4,-4,-6,-4,-6,-6,-3,-4,2021-08-06 13:44:00,370034
6,7,6,9,11,7,4,4,2021-08-06 13:44:00,386034
-2,-3,-1,-1,5,1,-2,-3,2021-08-06 13:44:00,386034
2,0,1,-1,-1,0,1,0,2021-08-06 13:44:00,386034
-2,-2,-1,-2,-2,-1,-2,0,2021-08-06 13:44:00,386034
-3,-3,-3,-2,-4,-2,-1,-1,2021-08-06 13:44:00,386034
-1,0,1,2,5,2,-1,-1,2021-08-06 13:44:00,386034
-3,-2,-2,-3,-5,-4,-3,-2,2021-08-06 13:44:00,386034
-1,-1,0,-1,-2,-1,-1,-1,2021-08-06 13:44:00,387036
-1,-2,-1,1,-2,-2,-4,-2,2021-08-06 13:44:00,387036
3,1,1,4,10,7,3,0,2021-08-06 13:44:00,387036
-2,-1,-4,-6,-6,-5,-3,-1,2021-08-06 13:44:00,418036
0,-1,2,0,1,2,2,0,2021-08-06 13:44:00,434034
-1,0,-1,-1,-4,-2,-1,-1,2021-08-06 13:44:00,434034
0,-1,-1,-3,-9,-4,-2,-2,2021-08-06 13:44:00,434034
-1,-1,-2,-2,0,0,0,-1,2021-08-06 13:44:00,434034
1,0,2,4,5,3,1,-1,2021-08-06 13:44:00,434034
-1,1,-1,0,2,0,0,1,2021-08-06 13:44:00,434034
-5,-6,-3,-7,-8,-5,-4,-2,2021-08-06 13:44:00,434034
-3,-1,-1,-5,-10,-5,-2,-2,2021-08-06 13:44:00,450034
5,5,2,4,13,9,5,4,2021-08-06 13:44:00,450034
-1,-1,1,0,-1,0,0,-1,2021-08-06 13:44:00,450034
-2,-3,-3,1,2,-1,-1,-2,2021-08-06 13:44:00,450034
-4,-3,-6,-6,-7,-5,-3,-2,2021-08-06 13:44:00,481036
2,5,3,1,-3,-1,1,1,2021-08-06 13:44:00,481036
2,0,0,0,2,0,-1,1,2021-08-06 13:44:00,481036
-1,-1,-2,-2,0,-2,-2,-2,2021-08-06 13:44:00,481036
-4,-4,-5,-6,-8,-5,-5,-2,2021-08-06 13:44:00,497036
1,2,1,3,2,1,1,2,2021-08-06 13:44:00,497036
-2,-2,-1,0,6,3,1,1,2021-08-06 13:44:00,497036
-2,1,0,0,-3,-3,-1,0,2021-08-06 13:44:00,497036
2,-1,1,4,7,5,3,-1,2021-08-06 13:44:00,512035
-3,-2,-3,-1,-2,-1,-3,-1,2021-08-06 13:44:00,512035
0,-2,-2,-2,-1,-1,0,-1,2021-08-06 13:44:00,512035
0,-2,-2,0,-2,-2,0,0,2021-08-06 13:44:00,512035
-1,0,0,1,0,-2,0,0,2021-08-06 13:44:00,542037
-4,-4,-4,-6,-9,-4,-2,-3,2021-08-06 13:44:00,548034
0,1,-1,4,4,1,0,-2,2021-08-06 13:44:00,548034
1,2,2,2,8,6,3,3,2021-08-06 13:44:00,548034
1,1,1,2,2,0,2,0,2021-08-06 13:44:00,548034
-1,-2,-3,-7,-13,-7,-7,-4,2021-08-06 13:44:00,549036
0,1,1,5,11,5,3,0,2021-08-06 13:44:00,549036
0,0,1,6,10,4,1,1,2021-08-06 13:44:00,549036
0,0,-1,-1,1,0,-1,0,2021-08-06 13:44:00,574034
-2,-2,-2,-2,-4,-4,-1,-1,2021-08-06 13:44:00,590034
-3,-4,-4,-8,-10,-8,-4,-3,2021-08-06 13:44:00,606035
0,1,1,-3,-2,-1,0,1,2021-08-06 13:44:00,606035
1,-1,1,-2,-3,-2,0,-1,2021-08-06 13:44:00,606035
-2,-2,-3,2,6,2,-1,-1,2021-08-06 13:44:00,606035
-2,-3,-4,-3,-6,-2,-2,-1,2021-08-06 13:44:00,606035
-1,0,-2,0,-5,-1,-3,-3,2021-08-06 13:44:00,606035
-1,-1,1,3,1,1,-3,-1,2021-08-06 13:44:00,606035
-3,-3,-3,-3,-2,-1,-1,-4,2021-08-06 13:44:00,606035
1,1,-2,-2,-4,-3,-1,0,2021-08-06 13:44:00,622035
1,1,0,-2,-3,-1,-1,0,2021-08-06 13:44:00,638034
0,1,2,6,7,1,-1,-1,2021-08-06 13:44:00,638034
0,-3,-2,-1,1,-1,1,1,2021-08-06 13:44:00,638034
0,-1,0,4,7,6,1,0,2021-08-06 13:44:00,654036
-3,-4,-2,-2,-5,-6,-3,-2,2021-08-06 13:44:00,654036
-3,-4,-3,-8,-9,-4,0,-2,2021-08-06 13:44:00,654036
0,-1,2,5,6,2,-2,0,2021-08-06 13:44:00,654036
-1,0,-2,-5,-10,-7,-3,-1,2021-08-06 13:44:00,654036
-2,-2,-4,-7,-4,-2,-2,-1,2021-08-06 13:44:00,654036
-2,-1,-2,-3,-3,-2,-1,-2,2021-08-06 13:44:00,685035
-3,-1,-2,-3,-7,-4,-2,-2,2021-08-06 13:44:00,701034
0,-2,1,1,8,3,1,0,2021-08-06 13:44:00,731034
-1,-2,-1,-1,-3,-4,-2,-2,2021-08-06 13:44:00,747035
0,-2,-2,-2,-2,1,0,0,2021-08-06 13:44:00,763034
-3,-2,0,0,2,-1,-2,-1,2021-08-06 13:44:00,779035
-1,-2,-2,-1,-1,-1,-1,-1,2021-08-06 13:44:00,779035
0,-1,-1,-1,-3,-3,-1,-2,2021-08-06 13:44:00,779035
0,0,-3,-4,-5,-3,-2,-1,2021-08-06 13:44:00,779035
3,3,1,5,8,4,4,3,2021-08-06 13:44:00,779035
-6,-6,-5,-8,-9,-7,-5,-4,2021-08-06 13:44:00,779035
1,2,1,-4,-3,0,1,0,2021-08-06 13:44:00,779035
4,3,4,8,14,8,2,3,2021-08-06 13:44:00,779035
1,-2,-3,-3,-3,0,-2,-1,2021-08-06 13:44:00,779035
-4,-4,-5,-5,-8,-4,-2,-4,2021-08-06 13:44:00,779035
-3,-2,-4,-10,-17,-11,-4,-2,2021-08-06 13:44:00,779035
4,6,10,22,39,19,7,5,2021-08-06 13:44:00,780037
1,0,0,-3,-4,-2,0,0,2021-08-06 13:44:00,780037
-2,-1,-1,3,1,-1,-2,-3,2021-08-06 13:44:00,780037
-3,-5,-6,-6,-5,-5,-4,-2,2021-08-06 13:44:00,780037
-3,-4,-5,-10,-20,-8,-2,-2,2021-08-06 13:44:00,780037
-1,-1,0,5,11,2,0,2,2021-08-06 13:44:00,780037
1,0,1,-1,-2,-2,-2,-1,2021-08-06 13:44:00,780037
-3,0,-3,-1,-5,-2,-1,-1,2021-08-06 13:44:00,780037
-1,-1,-2,-3,-4,0,0,0,2021-08-06 13:44:00,794629
-1,0,2,1,2,1,-1,-1,2021-08-06 13:44:00,810057
-1,-2,-2,-3,-10,-6,-3,-2,2021-08-06 13:44:00,826060
4,2,6,13,17,8,4,4,2021-08-06 13:44:00,826060
-3,-3,-3,-7,-9,-7,-4,-3,2021-08-06 13:44:00,826060
-2,-2,-4,-13,-20,-10,-4,-3,2021-08-06 13:44:00,826060
2,2,5,8,16,10,4,2,2021-08-06 13:44:00,826060
2,2,2,5,5,4,2,0,2021-08-06 13:44:00,826060
-1,-3,-3,-3,-8,-6,-2,-2,2021-08-06 13:44:00,827059
0,0,2,-1,-2,-1,0,0,2021-08-06 13:44:00,827059
1,0,-4,-3,0,0,1,2,2021-08-06 13:44:00,827059
1,0,1,3,4,5,4,3,2021-08-06 13:44:00,827059
-4,-3,-2,0,-3,-1,-2,-1,2021-08-06 13:44:00,874058
-2,-3,-2,-3,-3,-2,-3,-3,2021-08-06 13:44:00,874058
-4,-2,-2,-4,-8,-4,-4,-1,2021-08-06 13:44:00,874058
-1,-1,0,-1,-3,-4,-4,-3,2021-08-06 13:44:00,874058
2,-1,0,8,14,6,0,1,2021-08-06 13:44:00,874058
-4,-4,-6,-9,-11,-7,-5,-3,2021-08-06 13:44:00,874058
5,5,4,5,6,5,5,5,2021-08-06 13:44:00,874058
0,0,-1,0,0,-2,0,0,2021-08-06 13:44:00,874058
0,-1,-2,-7,-13,-9,-3,-2,2021-08-06 13:44:00,890084
-3,-2,-1,2,4,1,2,0,2021-08-06 13:44:00,890084
-2,-2,-4,-6,-7,-3,-2,-3,2021-08-06 13:44:00,890084
-5,-4,-2,-2,0,0,-1,-1,2021-08-06 13:44:00,890084
1,3,3,-2,-2,0,0,2,2021-08-06 13:44:00,919057
0,-1,-2,3,0,-1,1,-1,2021-08-06 13:44:00,920062
0,-2,-2,-10,-16,-12,-5,-3,2021-08-06 13:44:00,920062
-4,-4,-3,0,0,-1,-1,-2,2021-08-06 13:44:00,920062
-1,-2,-1,-2,2,-1,0,0,2021-08-06 13:44:00,920062
0,-1,-2,-2,-2,0,1,1,2021-08-06 13:44:00,920062
-2,-2,0,3,6,2,0,-2,2021-08-06 13:44:00,954058
1,0,-3,2,4,1,-3,-1,2021-08-06 13:44:00,954058
-5,-3,-3,-3,-6,-3,-5,-2,2021-08-06 13:44:00,954058
1,1,2,2,9,5,4,1,2021-08-06 13:44:00,954058
1,2,2,3,3,2,1,1,2021-08-06 13:44:00,954058
-3,-5,-7,-13,-15,-10,-5,-5,2021-08-06 13:44:00,954058
0,0,0,0,-3,-3,-2,-2,2021-08-06 13:44:00,984057
0,-1,1,6,10,3,0,1,2021-08-06 13:44:00,984057
-4,-1,-2,-10,-17,-10,-4,-2,2021-08-06 13:44:00,984057
0,0,0,-4,4,3,1,0,2021-08-06 13:44:00,984057
0,3,3,14,19,8,1,1,2021-08-06 13:44:00,984057
-1,0,0,2,-1,0,-2,-1,2021-08-06 13:44:00,984057
1,-1,-1,6,10,4,1,1,2021-08-06 13:44:01,000057
-4,-6,-8,-19,-30,-18,-10,-5,2021-08-06 13:44:01,000057
1,2,4,10,11,9,7,3,2021-08-06 13:44:01,016057
-1,0,-1,-1,-3,-3,-3,0,2021-08-06 13:44:01,016057
-2,-3,-3,-5,-5,-2,-2,-2,2021-08-06 13:44:01,016057
-1,-1,1,5,6,1,-1,-1,2021-08-06 13:44:01,016057
-3,-5,-7,-12,-14,-8,-2,-4,2021-08-06 13:44:01,031057
3,5,7,9,9,5,1,1,2021-08-06 13:44:01,031057
-1,-2,-2,-3,-3,0,-1,-1,2021-08-06 13:44:01,031057
1,-1,1,3,2,1,1,1,2021-08-06 13:44:01,031057
-4,-5,-5,-6,-4,-4,-4,-3,2021-08-06 13:44:01,046058
-1,-1,-2,-6,-12,-6,-1,-1,2021-08-06 13:44:01,062058
3,1,2,6,17,8,4,3,2021-08-06 13:44:01,062058
2,4,3,9,11,8,6,2,2021-08-06 13:44:01,062058
-3,-4,-4,-9,-14,-8,-6,-3,2021-08-06 13:44:01,078058
-1,-1,-3,-2,1,0,1,0,2021-08-06 13:44:01,093058
-4,-2,-1,-2,-3,-4,-3,-4,2021-08-06 13:44:01,108058
-1,-1,-4,-3,-6,-2,-2,-2,2021-08-06 13:44:01,108058
3,2,3,4,8,3,3,3,2021-08-06 13:44:01,108058
-3,-5,-4,-8,-11,-6,-5,-1,2021-08-06 13:44:01,108058
-3,-3,-3,-3,-5,-5,-2,-2,2021-08-06 13:44:01,108058
0,2,3,9,19,11,4,3,2021-08-06 13:44:01,108058
-3,0,-2,-2,-1,-1,-3,-3,2021-08-06 13:44:01,108058
3,4,6,7,10,9,4,4,2021-08-06 13:44:01,109059
1,-2,0,0,1,0,-1,-1,2021-08-06 13:44:01,109059
-1,-1,1,-1,1,0,-2,-1,2021-08-06 13:44:01,109059
0,-2,-3,-4,-6,-4,-2,-2,2021-08-06 13:44:01,140057
-1,-3,-1,2,1,0,-2,-2,2021-08-06 13:44:01,156057
-1,-1,-2,-5,-8,-3,-2,-1,2021-08-06 13:44:01,172057
-3,-4,-4,-5,-6,-6,-4,-5,2021-08-06 13:44:01,172057
-3,-4,-1,-1,1,3,2,-3,2021-08-06 13:44:01,172057
7,9,8,7,3,2,4,3,2021-08-06 13:44:01,172057
1,1,-1,2,-3,-2,-1,0,2021-08-06 13:44:01,172057
-3,-2,-2,-4,-11,-7,-3,-1,2021-08-06 13:44:01,172057
-1,-2,0,1,6,3,-1,0,2021-08-06 13:44:01,172057
-6,-6,-7,-10,-14,-10,-6,-4,2021-08-06 13:44:01,173061
2,3,3,5,14,9,5,2,2021-08-06 13:44:01,173061
-1,-1,0,2,-5,-2,-2,-2,2021-08-06 13:44:01,173061
1,1,-1,1,3,3,0,2,2021-08-06 13:44:01,202565
-3,-3,-1,-2,-1,-2,-3,-1,2021-08-06 13:44:01,218564
-1,0,0,-4,-6,-4,-1,0,2021-08-06 13:44:01,234565
0,-1,-2,-1,2,2,-1,-2,2021-08-06 13:44:01,234565
-2,0,-1,-6,-13,-6,-2,-1,2021-08-06 13:44:01,234565
-2,-2,-4,-4,-2,-2,-1,-3,2021-08-06 13:44:01,234565
-3,-2,-1,3,5,1,-1,-1,2021-08-06 13:44:01,234565
-1,1,4,1,7,3,2,2,2021-08-06 13:44:01,234565
1,0,-1,-2,-4,-3,1,-2,2021-08-06 13:44:01,250565
0,-1,2,7,9,7,3,1,2021-08-06 13:44:01,250565
-1,0,0,0,1,1,-1,1,2021-08-06 13:44:01,250565
-2,0,-1,-9,-15,-10,-4,-2,2021-08-06 13:44:01,250565
1,2,4,13,16,11,5,4,2021-08-06 13:44:01,250565
-2,-2,-5,-6,-8,-5,-1,-3,2021-08-06 13:44:01,250565
-2,-2,-2,-4,-6,-6,-4,-4,2021-08-06 13:44:01,250565
0,0,0,0,1,1,-2,-2,2021-08-06 13:44:01,251566
-3,-4,-6,-7,-10,-6,-3,-4,2021-08-06 13:44:01,282566
0,2,-1,-5,-6,-4,-2,-3,2021-08-06 13:44:01,282566
-2,-2,0,5,5,5,2,0,2021-08-06 13:44:01,282566
-2,-2,-1,0,-3,2,0,-1,2021-08-06 13:44:01,282566
-2,-1,-3,-6,-12,-9,-5,-3,2021-08-06 13:44:01,298565
-1,-3,-3,-2,3,3,1,0,2021-08-06 13:44:01,314565
2,2,4,12,21,9,2,0,2021-08-06 13:44:01,314565
0,0,-2,0,-2,-2,0,-1,2021-08-06 13:44:01,329566
1,-1,-3,-5,-9,-6,-4,0,2021-08-06 13:44:01,329566
-6,-8,-5,-9,-3,-6,-6,-5,2021-08-06 13:44:01,329566
6,7,6,0,0,4,4,5,2021-08-06 13:44:01,329566
1,2,5,15,17,9,5,0,2021-08-06 13:44:01,329566
0,3,1,0,3,2,1,0,2021-08-06 13:44:01,345564
-5,-4,-4,-7,-13,-8,-3,-4,2021-08-06 13:44:01,361565
-3,-4,-5,-5,-3,-2,-1,-2,2021-08-06 13:44:01,361565
-4,-2,-4,-5,-6,-5,-2,-2,2021-08-06 13:44:01,361565
1,2,3,3,4,2,0,1,2021-08-06 13:44:01,361565
0,0,3,7,10,6,2,2,2021-08-06 13:44:01,361565
-1,-3,-2,-4,-5,-4,-2,-2,2021-08-06 13:44:01,361565
-3,-3,-3,-8,-9,-5,-4,-2,2021-08-06 13:44:01,361565
-2,-2,-2,0,4,1,1,-2,2021-08-06 13:44:01,393565
1,2,2,9,10,6,2,1,2021-08-06 13:44:01,393565
-1,-1,-1,0,-4,-5,-4,-1,2021-08-06 13:44:01,393565
0,1,1,1,-1,1,1,1,2021-08-06 13:44:01,393565
-1,-3,-4,-1,-1,-2,-1,0,2021-08-06 13:44:01,393565
4,4,4,1,3,4,2,0,2021-08-06 13:44:01,393565
-1,-3,-3,-6,-10,-7,-4,-3,2021-08-06 13:44:01,393565
-1,-1,-1,1,4,2,-1,-1,2021-08-06 13:44:01,394569
-1,-1,0,3,0,-1,-2,-2,2021-08-06 13:44:01,425566
-3,-3,-4,-4,4,1,0,0,2021-08-06 13:44:01,425566
0,0,-4,-9,-17,-8,-4,-2,2021-08-06 13:44:01,425566
1,0,0,2,3,2,2,2,2021-08-06 13:44:01,425566
-1,-1,0,-3,-5,-2,0,-2,2021-08-06 13:44:01,425566
-3,-2,-3,0,-3,-3,-2,-2,2021-08-06 13:44:01,425566
-3,-3,-1,2,6,0,-2,-1,2021-08-06 13:44:01,441566
0,0,-2,-5,-6,-4,-2,-2,2021-08-06 13:44:01,441566
0,0,1,5,14,6,3,0,2021-08-06 13:44:01,457567
-1,-1,-1,2,-3,-3,0,0,2021-08-06 13:44:01,457567
-1,0,-1,-1,-2,0,1,1,2021-08-06 13:44:01,457567
-1,-3,-2,-2,-5,-4,-4,-2,2021-08-06 13:44:01,457567
1,1,1,5,9,2,1,1,2021-08-06 13:44:01,473566
0,-1,-1,-5,-7,-4,-2,-1,2021-08-06 13:44:01,473566
-1,0,0,3,9,2,1,1,2021-08-06 13:44:01,489565
0,-1,0,0,1,-1,2,1,2021-08-06 13:44:01,504565
-1,-1,-3,-7,-12,-5,-4,-3,2021-08-06 13:44:01,520564
-1,-2,-1,0,1,-2,-1,-1,2021-08-06 13:44:01,536565
-3,-2,-4,-5,-5,-2,-1,-3,2021-08-06 13:44:01,568565
2,4,4,6,12,8,3,2,2021-08-06 13:44:01,583565
-6,-4,-2,-3,-8,-4,-3,-3,2021-08-06 13:44:01,599565
1,0,-1,0,-2,0,-1,1,2021-08-06 13:44:01,615565
-1,-1,-2,-5,-9,-5,-5,-1,2021-08-06 13:44:01,615565
-1,-2,-3,-1,-3,-3,-1,-1,2021-08-06 13:44:01,615565
0,2,0,0,6,5,1,1,2021-08-06 13:44:01,615565
-3,-1,0,-4,-6,-6,-3,-3,2021-08-06 13:44:01,615565
-3,-2,-2,3,2,0,-1,-1,2021-08-06 13:44:01,615565
-1,2,0,2,-1,0,-1,-1,2021-08-06 13:44:01,615565
-3,-5,-5,-9,-8,-9,-5,-3,2021-08-06 13:44:01,615565
-1,-2,-3,-4,-10,-1,0,-2,2021-08-06 13:44:01,616566
2,0,4,7,13,8,4,3,2021-08-06 13:44:01,616566
-1,1,0,-1,3,2,1,1,2021-08-06 13:44:01,616566
1,-2,-4,-4,-10,-5,-2,-2,2021-08-06 13:44:01,616566
-1,-2,-2,5,8,1,-1,-2,2021-08-06 13:44:01,616566
0,0,0,-1,2,1,-1,-1,2021-08-06 13:44:01,616566
-2,-3,-4,-7,-10,-5,-1,-1,2021-08-06 13:44:01,616566
-1,0,0,0,-2,-1,-1,0,2021-08-06 13:44:01,616566
1,3,3,7,8,5,3,2,2021-08-06 13:44:01,616566
1,-1,2,3,-1,1,-1,-1,2021-08-06 13:44:01,616566
-2,-4,-3,-2,1,-1,-2,-4,2021-08-06 13:44:01,617568
-3,-4,-8,-15,-20,-13,-7,-3,2021-08-06 13:44:01,617568
-4,-2,-5,-11,-15,-6,-4,-2,2021-08-06 13:44:01,617568
1,3,4,8,11,5,0,2,2021-08-06 13:44:01,617568
-1,-1,-1,-1,-2,0,-1,-1,2021-08-06 13:44:01,617568
1,0,3,7,8,5,1,0,2021-08-06 13:44:01,631565
0,-2,-3,-3,-4,-4,-1,-2,2021-08-06 13:44:01,646566
-4,-3,-5,-7,-9,-7,-3,-5,2021-08-06 13:44:01,646566
1,1,1,3,3,4,3,2,2021-08-06 13:44:01,646566
-1,0,0,2,5,4,1,1,2021-08-06 13:44:01,651565
-1,-1,0,5,8,3,-1,2,2021-08-06 13:44:01,651565
0,-1,-4,-5,-7,-2,-1,0,2021-08-06 13:44:01,651565
-3,-2,-1,-6,-2,-3,-4,-3,2021-08-06 13:44:01,651565
-1,-1,-1,0,-5,-2,-2,0,2021-08-06 13:44:01,678567
-1,-1,-1,-3,-2,-1,-2,-1,2021-08-06 13:44:01,694565
-3,-4,-3,2,-4,-5,-2,0,2021-08-06 13:44:01,710566
3,2,3,5,19,13,4,3,2021-08-06 13:44:01,710566
1,2,5,7,9,5,3,0,2021-08-06 13:44:01,710566
-1,-2,-1,-2,-6,-2,-2,0,2021-08-06 13:44:01,710566
0,-1,1,-3,-4,-2,-2,-1,2021-08-06 13:44:01,710566
-3,-1,-5,-4,-12,-10,-5,-2,2021-08-06 13:44:01,711567
0,-2,-1,-2,-2,-1,-2,0,2021-08-06 13:44:01,726566
2,0,-2,-2,2,1,1,2,2021-08-06 13:44:01,742565
-3,-2,-4,-4,-5,-1,-1,0,2021-08-06 13:44:01,758566
-2,-2,-1,-1,-3,-4,-2,1,2021-08-06 13:44:01,758566
-1,-2,-2,-1,-1,0,0,-2,2021-08-06 13:44:01,758566
-2,0,1,8,5,2,-1,-4,2021-08-06 13:44:01,758566
-3,-2,0,2,0,-1,-2,-3,2021-08-06 13:44:01,758566
-1,5,5,8,6,2,0,0,2021-08-06 13:44:01,758566
-2,1,-1,-5,3,1,1,2,2021-08-06 13:44:01,759567
-4,-11,-12,-29,-35,-22,-10,-5,2021-08-06 13:44:01,759567
1,0,2,13,8,3,1,1,2021-08-06 13:44:01,759567
2,4,3,20,15,10,4,2,2021-08-06 13:44:01,759567
-1,0,-4,-16,0,-1,-2,0,2021-08-06 13:44:01,774565
-6,-7,-9,-14,-11,-9,-4,-4,2021-08-06 13:44:01,790565
3,3,-4,-17,-18,-7,-2,1,2021-08-06 13:44:01,790565
-3,-4,-2,-9,-18,-12,-5,-5,2021-08-06 13:44:01,790565
2,4,9,21,12,7,3,1,2021-08-06 13:44:01,790565
1,3,4,9,16,10,4,1,2021-08-06 13:44:01,790565
-2,-4,-2,0,-1,-2,-2,-1,2021-08-06 13:44:01,790565
-1,-5,-3,3,1,1,-2,0,2021-08-06 13:44:01,790565
2,0,1,6,6,2,4,1,2021-08-06 13:44:01,822566
-1,1,1,4,4,2,0,-1,2021-08-06 13:44:01,822566
1,0,0,3,6,3,0,0,2021-08-06 13:44:01,822566
-2,-2,-5,-12,-12,-10,-4,-2,2021-08-06 13:44:01,822566
-4,-3,-4,-7,-9,-6,-5,-3,2021-08-06 13:44:01,838566
0,1,-1,-1,-9,-5,-3,-1,2021-08-06 13:44:01,854565
-2,1,1,2,1,2,0,0,2021-08-06 13:44:01,870565
0,-2,-2,-2,6,1,0,-1,2021-08-06 13:44:01,870565
-4,-4,-4,-6,-12,-6,-4,-1,2021-08-06 13:44:01,870565
0,3,2,6,6,2,2,1,2021-08-06 13:44:01,870565
-2,-2,-3,-7,-9,-4,-2,-2,2021-08-06 13:44:01,870565
1,-1,1,5,11,7,1,0,2021-08-06 13:44:01,870565
-1,0,0,4,3,0,-2,-1,2021-08-06 13:44:01,870565
2,2,2,0,2,5,0,0,2021-08-06 13:44:01,870565
-2,-3,-4,-8,-9,-5,-4,-2,2021-08-06 13:44:01,886564
-3,-2,-3,-6,-8,-5,-1,0,2021-08-06 13:44:01,902565
-2,-3,-1,-1,-3,-2,-1,0,2021-08-06 13:44:01,902565
2,0,-1,0,3,2,-2,0,2021-08-06 13:44:01,902565
-3,0,1,-2,-5,-4,-2,-3,2021-08-06 13:44:01,902565
0,-1,0,3,7,4,0,1,2021-08-06 13:44:01,902565
1,1,2,0,-3,1,1,0,2021-08-06 13:44:01,902565
-2,0,6,-1,-3,-2,0,-2,2021-08-06 13:44:01,902565
-3,-3,-7,-5,-5,-6,-3,-3,2021-08-06 13:44:01,918565
0,-2,-10,-8,-8,-2,-1,0,2021-08-06 13:44:01,918565
1,-4,-1,-2,-1,0,-1,-2,2021-08-06 13:44:01,934565
-2,0,0,2,2,2,-2,-1,2021-08-06 13:44:01,950565
1,3,3,3,3,3,2,2,2021-08-06 13:44:01,965565
-4,-4,-2,-6,-9,-6,-3,-2,2021-08-06 13:44:01,965565
-2,0,-3,1,0,-1,-2,1,2021-08-06 13:44:01,965565
0,-2,0,3,3,2,1,0,2021-08-06 13:44:01,965565
0,0,-1,1,5,2,2,-1,2021-08-06 13:44:01,965565
-3,-1,-2,-4,-7,-4,-4,-2,2021-08-06 13:44:01,965565
-1,-2,0,2,1,0,-1,-1,2021-08-06 13:44:01,965565
1,3,2,5,7,4,1,0,2021-08-06 13:44:01,966566
-4,-4,-7,-16,-16,-8,-5,-3,2021-08-06 13:44:01,980565
2,2,4,10,12,6,2,1,2021-08-06 13:44:01,980565
-1,0,0,-4,-4,-2,0,-2,2021-08-06 13:44:01,996565
-2,-4,-6,-4,-3,-2,-1,-2,2021-08-06 13:44:02,012566
1,1,2,5,4,3,1,0,2021-08-06 13:44:02,012566
-2,-2,-2,-3,-9,-7,-4,-4,2021-08-06 13:44:02,015566
1,2,2,-2,-4,-2,-1,0,2021-08-06 13:44:02,015566
0,-2,-1,5,16,8,5,2,2021-08-06 13:44:02,016565
2,6,6,7,7,6,3,1,2021-08-06 13:44:02,028567
-1,-1,1,-2,2,2,1,-1,2021-08-06 13:44:02,028567
-4,-5,-6,-4,-5,-8,-5,-4,2021-08-06 13:44:02,044566
-2,-3,-6,-10,-15,-7,-4,-3,2021-08-06 13:44:02,060565
-1,0,-1,1,5,1,1,0,2021-08-06 13:44:02,060565
-1,0,-1,-2,-2,1,2,-1,2021-08-06 13:44:02,060565
-1,-4,-2,-3,-3,-2,-2,-1,2021-08-06 13:44:02,060565
1,1,0,0,-2,-2,0,1,2021-08-06 13:44:02,060565
0,-1,-1,3,3,1,-3,0,2021-08-06 13:44:02,060565
0,-1,-5,-8,-10,-5,-3,-3,2021-08-06 13:44:02,060565
-1,-2,-1,-3,-1,1,-2,-2,2021-08-06 13:44:02,076565
-1,-1,0,0,-1,-1,-1,0,2021-08-06 13:44:02,076565
0,-1,-2,3,5,2,1,1,2021-08-06 13:44:02,076565
1,0,0,1,-4,-2,0,0,2021-08-06 13:44:02,076565
-3,-4,-3,-5,-12,-9,-4,-3,2021-08-06 13:44:02,092565
-1,-1,-2,-2,1,-1,-1,-1,2021-08-06 13:44:02,092565
1,1,2,-1,2,2,3,2,2021-08-06 13:44:02,092565
-5,-2,0,-3,-2,-2,-1,0,2021-08-06 13:44:02,092565
-2,1,-3,0,1,-1,-1,-2,2021-08-06 13:44:02,124566
3,-1,2,7,7,4,2,1,2021-08-06 13:44:02,140565
1,-1,1,3,1,1,-1,-1,2021-08-06 13:44:02,140565
1,0,0,0,2,-1,-1,-1,2021-08-06 13:44:02,140565
0,0,0,3,5,3,1,0,2021-08-06 13:44:02,140565
-2,-2,-3,-5,-5,-3,-3,-2,2021-08-06 13:44:02,140565
-2,-2,-2,-1,0,-2,-2,-3,2021-08-06 13:44:02,140565
-2,-1,-1,-1,-2,-2,-1,-1,2021-08-06 13:44:02,140565
-1,-1,-1,1,0,0,1,-1,2021-08-06 13:44:02,156565
-3,-2,-3,-4,-8,-6,-2,-1,2021-08-06 13:44:02,172565
2,1,2,3,8,4,1,1,2021-08-06 13:44:02,188565
-1,-4,-3,-6,-11,-4,-3,-2,2021-08-06 13:44:02,188565
1,-1,-1,-1,1,0,2,0,2021-08-06 13:44:02,188565
-2,-2,0,3,3,2,1,0,2021-08-06 13:44:02,188565
-5,-4,-6,-9,-11,-7,-5,-7,2021-08-06 13:44:02,188565
2,2,3,4,2,0,2,1,2021-08-06 13:44:02,188565
1,4,-2,-2,-3,2,1,1,2021-08-06 13:44:02,189566
-1,1,1,2,1,1,0,1,2021-08-06 13:44:02,189566
-4,-3,-3,0,-1,-2,-3,-2,2021-08-06 13:44:02,203564
-3,-2,-2,-1,0,-2,-2,-1,2021-08-06 13:44:02,203564
-2,-3,-3,-4,-3,-3,-3,-3,2021-08-06 13:44:02,218564
-1,-1,-3,-7,-10,-6,-3,-1,2021-08-06 13:44:02,218564
1,2,3,2,6,4,2,1,2021-08-06 13:44:02,218564
2,1,1,3,3,4,0,0,2021-08-06 13:44:02,218564
0,1,2,6,7,3,1,0,2021-08-06 13:44:02,234565
-2,-1,-2,0,-2,-1,-2,-2,2021-08-06 13:44:02,250565
-4,-3,-3,-1,-5,-5,-1,-4,2021-08-06 13:44:02,265565
-2,-2,-3,-5,-3,-3,-2,-1,2021-08-06 13:44:02,265565
0,1,0,1,1,2,1,0,2021-08-06 13:44:02,265565
-2,-2,0,0,1,-2,0,0,2021-08-06 13:44:02,265565
0,1,0,-4,-7,-2,-2,0,2021-08-06 13:44:02,265565
-1,-3,-3,-5,-7,-5,-4,-3,2021-08-06 13:44:02,265565
-1,-4,-2,-2,-9,-3,-4,-1,2021-08-06 13:44:02,280566
2,2,4,9,15,9,3,1,2021-08-06 13:44:02,280566
0,0,-3,0,-2,-3,-2,1,2021-08-06 13:44:02,280566
-1,-2,-3,-3,-1,-1,0,-1,2021-08-06 13:44:02,280566
0,-5,-3,-7,-10,-9,-6,-3,2021-08-06 13:44:02,296567
0,-1,-2,-4,-7,-4,-2,-1,2021-08-06 13:44:02,296567
1,1,0,-3,-1,1,2,0,2021-08-06 13:44:02,296567
1,1,1,10,16,10,3,1,2021-08-06 13:44:02,296567
-1,1,1,0,-1,-1,-1,0,2021-08-06 13:44:02,326565
-2,-2,-1,-2,2,0,-1,-1,2021-08-06 13:44:02,326565
-3,-2,-1,-2,-5,-4,-5,-2,2021-08-06 13:44:02,326565
-2,-3,-2,-5,-7,-5,-2,-1,2021-08-06 13:44:02,326565
-1,0,1,3,3,3,-1,-2,2021-08-06 13:44:02,342565
-1,-3,-1,-1,-1,-3,-1,-2,2021-08-06 13:44:02,358566
0,0,0,-4,-6,-3,-2,-3,2021-08-06 13:44:02,358566
2,1,2,6,9,4,3,1,2021-08-06 13:44:02,358566
-1,-3,0,-1,-1,-4,0,0,2021-08-06 13:44:02,358566
-3,-3,-5,-7,-9,-6,-3,-4,2021-08-06 13:44:02,358566
1,1,2,5,7,4,1,1,2021-08-06 13:44:02,359566
-1,0,2,4,4,1,0,1,2021-08-06 13:44:02,374569
0,1,-1,-2,-2,0,-1,0,2021-08-06 13:44:02,376565
0,0,-1,1,-2,0,-2,0,2021-08-06 13:44:02,376565
0,-2,-1,1,1,2,0,-1,2021-08-06 13:44:02,376565
-2,-3,-2,-5,-11,-6,-5,-4,2021-08-06 13:44:02,376565
0,0,3,3,8,4,0,0,2021-08-06 13:44:02,405564
0,1,1,1,3,3,2,1,2021-08-06 13:44:02,405564
0,0,-2,-2,0,0,0,0,2021-08-06 13:44:02,405564
-1,-1,-3,0,-1,-1,-2,0,2021-08-06 13:44:02,405564
0,-2,-2,1,1,-3,-1,-1,2021-08-06 13:44:02,405564
-2,0,-2,-2,-3,-2,-3,-2,2021-08-06 13:44:02,405564
0,-1,1,0,0,-1,-1,-1,2021-08-06 13:44:02,420564
-1,-1,-2,-7,-11,-3,-1,-2,2021-08-06 13:44:02,436565
-1,-1,-3,-1,3,-1,1,-2,2021-08-06 13:44:02,436565
2,0,-3,-4,0,0,-1,0,2021-08-06 13:44:02,436565
-1,1,1,7,13,5,1,1,2021-08-06 13:44:02,436565
-2,-1,-2,-3,0,-2,-1,-2,2021-08-06 13:44:02,436565
0,-1,2,1,1,1,0,-1,2021-08-06 13:44:02,468564
-1,1,-1,1,1,-1,0,-2,2021-08-06 13:44:02,484565
-2,-4,-4,-10,-12,-5,-2,-2,2021-08-06 13:44:02,500565
-2,-1,1,5,8,5,0,0,2021-08-06 13:44:02,500565
-3,-4,-6,-7,-10,-6,-3,-2,2021-08-06 13:44:02,500565
0,3,3,3,1,0,0,2,2021-08-06 13:44:02,500565
-2,-2,-4,-2,-4,-3,-1,-2,2021-08-06 13:44:02,500565
-1,0,-2,-1,-3,-3,-1,1,2021-08-06 13:44:02,500565
0,1,1,2,4,2,0,0,2021-08-06 13:44:02,500565
-1,-2,-1,-2,-3,-3,-4,-2,2021-08-06 13:44:02,501567
-1,-2,-1,-4,-6,-6,-3,-1,2021-08-06 13:44:02,501567
-1,-2,0,-5,-16,-3,0,-1,2021-08-06 13:44:02,501567
2,1,2,7,19,10,5,2,2021-08-06 13:44:02,530565
0,-2,1,1,0,-2,-1,-2,2021-08-06 13:44:02,562566
-2,-3,-3,-2,-4,-4,-1,0,2021-08-06 13:44:02,578565
-2,-4,-6,-10,-9,-6,-3,-3,2021-08-06 13:44:02,578565
-1,0,-1,-4,-6,-3,-3,0,2021-08-06 13:44:02,578565
-1,-1,-2,2,3,5,1,-2,2021-08-06 13:44:02,578565
-3,-2,0,3,0,-2,-3,-4,2021-08-06 13:44:02,578565
2,1,3,8,9,4,0,0,2021-08-06 13:44:02,578565
-3,2,-2,-5,-5,-3,-1,0,2021-08-06 13:44:02,578565
1,3,5,10,21,8,3,2,2021-08-06 13:44:02,578565
-2,-4,-3,-3,-5,-3,-2,-1,2021-08-06 13:44:02,579566
-1,0,0,2,2,1,0,-1,2021-08-06 13:44:02,579566
3,2,1,-2,-4,-4,-1,0,2021-08-06 13:44:02,579566
0,-1,-3,-8,-11,-4,-3,-1,2021-08-06 13:44:02,579566
1,2,-1,-1,0,1,0,2,2021-08-06 13:44:02,579566
-2,-1,-2,1,5,1,0,0,2021-08-06 13:44:02,579566
-4,-4,-4,-6,-14,-7,-4,-2,2021-08-06 13:44:02,594564
-2,-2,0,0,0,1,0,-2,2021-08-06 13:44:02,594564
0,-1,0,2,9,5,1,0,2021-08-06 13:44:02,594564
0,0,0,-1,-3,-3,-2,-2,2021-08-06 13:44:02,594564
-2,-2,-3,-2,-2,-3,-1,-3,2021-08-06 13:44:02,625567
-1,-2,-4,-5,-6,-6,-2,-1,2021-08-06 13:44:02,641566
2,0,4,-2,-7,-3,1,1,2021-08-06 13:44:02,641566
1,2,2,7,10,4,4,2,2021-08-06 13:44:02,641566
-3,-2,0,-1,-8,-5,-2,-3,2021-08-06 13:44:02,641566
-2,-1,-1,2,10,4,0,-1,2021-08-06 13:44:02,641566
-1,-1,-2,-3,-3,-1,-3,-1,2021-08-06 13:44:02,641566
0,-2,-2,-4,-5,-3,-2,-2,2021-08-06 13:44:02,641566
0,0,0,2,4,5,2,0,2021-08-06 13:44:02,657565
2,0,0,-2,-7,-2,1,2,2021-08-06 13:44:02,673565
-1,-1,-1,-1,-5,-3,-1,-1,2021-08-06 13:44:02,673565
2,1,1,-1,1,0,0,2,2021-08-06 13:44:02,673565
-12,-10,-7,-4,-4,-8,-11,-11,2021-08-06 13:44:02,673565
-1,0,1,-3,-5,-3,-1,0,2021-08-06 13:44:02,673565
0,0,-1,-2,1,0,-1,1,2021-08-06 13:44:02,673565
-4,-3,-2,-5,-5,-1,-3,-2,2021-08-06 13:44:02,673565
5,3,3,7,8,5,4,4,2021-08-06 13:44:02,705565
1,0,-3,0,-1,1,1,1,2021-08-06 13:44:02,721565
-3,-2,-4,-1,-5,-3,-2,-1,2021-08-06 13:44:02,721565
-1,-1,1,0,6,1,-1,-2,2021-08-06 13:44:02,721565
3,3,1,2,7,8,6,5,2021-08-06 13:44:02,721565
-4,-7,-3,-2,-4,-3,-5,-4,2021-08-06 13:44:02,721565
0,0,2,5,8,2,1,0,2021-08-06 13:44:02,721565
0,2,0,2,0,-1,-2,-2,2021-08-06 13:44:02,721565
1,0,-1,-2,-7,-2,0,2,2021-08-06 13:44:02,737566
1,2,1,2,3,1,0,-2,2021-08-06 13:44:02,737566
-4,-5,-4,-9,-12,-7,-4,-4,2021-08-06 13:44:02,737566
0,-1,2,6,15,7,3,1,2021-08-06 13:44:02,737566
0,0,0,1,0,-1,0,1,2021-08-06 13:44:02,769564
-3,-3,-2,-3,-5,-4,-1,-2,2021-08-06 13:44:02,769564
-2,-2,-1,-1,0,-1,-2,-2,2021-08-06 13:44:02,769564
-2,-3,-3,-5,-6,-5,-2,-1,2021-08-06 13:44:02,769564
0,1,0,-3,-6,-2,-1,-1,2021-08-06 13:44:02,769564
-2,-1,-2,-3,-3,1,-1,-2,2021-08-06 13:44:02,769564
1,2,3,8,19,10,4,1,2021-08-06 13:44:02,785565
0,1,1,1,-3,-2,0,1,2021-08-06 13:44:02,785565
-4,-4,-4,-9,-14,-7,-5,-3,2021-08-06 13:44:02,801567
2,0,0,3,7,4,2,1,2021-08-06 13:44:02,801567
2,2,2,9,15,10,3,-1,2021-08-06 13:44:02,801567
-2,-3,-3,-4,-11,-5,-4,-2,2021-08-06 13:44:02,801567
2,3,2,6,11,6,4,1,2021-08-06 13:44:02,817566
-1,-2,-3,-7,-11,-6,-3,-2,2021-08-06 13:44:02,833565
-1,-3,-3,-3,-5,-4,-2,-1,2021-08-06 13:44:02,849565
-3,-2,-2,-1,-2,-1,-2,0,2021-08-06 13:44:02,849565
1,-1,0,-2,-4,-3,-2,-3,2021-08-06 13:44:02,849565
-1,-3,-3,-3,-6,-3,-2,-1,2021-08-06 13:44:02,849565
1,0,1,-2,-9,-4,-1,2,2021-08-06 13:44:02,849565
-1,0,4,10,21,10,3,1,2021-08-06 13:44:02,849565
-2,-3,-1,0,0,-2,-3,-1,2021-08-06 13:44:02,849565
-2,1,0,-1,-2,-2,0,-2,2021-08-06 13:44:02,849565
-4,-4,-3,-5,-6,-4,-2,-2,2021-08-06 13:44:02,880565
1,1,-1,-3,-5,-2,0,0,2021-08-06 13:44:02,896566
-1,2,0,-1,3,2,1,0,2021-08-06 13:44:02,912566
-3,-3,-1,-3,0,-2,-2,-1,2021-08-06 13:44:02,912566
-1,-1,-2,-5,-10,-5,-3,-1,2021-08-06 13:44:02,912566
1,0,-2,-3,-3,0,2,0,2021-08-06 13:44:02,912566
0,-2,1,7,11,4,0,-1,2021-08-06 13:44:02,912566
0,1,-1,1,-3,0,-1,0,2021-08-06 13:44:02,912566
-3,-2,-2,-1,4,0,-1,-2,2021-08-06 13:44:02,913566
-5,-3,-6,-9,-16,-8,-3,-3,2021-08-06 13:44:02,913566
-2,-2,0,4,7,0,-1,-2,2021-08-06 13:44:02,913566
-1,-1,0,0,-3,-2,0,-1,2021-08-06 13:44:02,913566
0,-1,-4,-3,-6,-2,-2,-2,2021-08-06 13:44:02,913566
0,-2,-1,-2,-1,-2,-1,-1,2021-08-06 13:44:02,913566
0,-1,-3,-1,-5,-4,-2,-1,2021-08-06 13:44:02,944565
0,1,-1,-1,-2,-3,-1,0,2021-08-06 13:44:02,960566
-2,0,-2,0,0,-1,0,-1,2021-08-06 13:44:02,960566
-1,-1,-2,-5,-9,-4,-2,-1,2021-08-06 13:44:02,960566
-2,-1,-1,-4,-2,1,0,0,2021-08-06 13:44:02,960566
-1,-1,0,2,-1,0,0,1,2021-08-06 13:44:02,960566
-1,-2,-2,-2,-3,-1,-2,-2,2021-08-06 13:44:02,960566
-3,-1,-2,-1,1,-1,-3,-3,2021-08-06 13:44:02,960566
0,-1,-1,-1,-1,1,0,-2,2021-08-06 13:44:02,991567
1,1,0,4,3,0,-1,1,2021-08-06 13:44:03,007565
1,1,2,-4,-2,-1,1,0,2021-08-06 13:44:03,023565
0,-2,-1,-4,-3,0,-1,1,2021-08-06 13:44:03,039565
-6,-5,-6,-10,-18,-12,-6,-4,2021-08-06 13:44:03,055565
1,0,1,-2,1,1,0,1,2021-08-06 13:44:03,055565
3,3,3,12,18,8,3,3,2021-08-06 13:44:03,055565
-2,-3,-3,-3,-7,-6,-3,-3,2021-08-06 13:44:03,055565
1,1,1,7,12,7,1,1,2021-08-06 13:44:03,055565
-3,-3,-2,-5,-9,-6,-4,-4,2021-08-06 13:44:03,055565
-2,-3,-2,-5,-6,-5,-4,-2,2021-08-06 13:44:03,055565
-1,-1,0,4,2,-1,-1,1,2021-08-06 13:44:03,056565
0,0,-1,0,-2,-1,1,0,2021-08-06 13:44:03,056565
-1,0,0,-3,1,1,0,1,2021-08-06 13:44:03,056565
-1,-1,-2,-2,-2,-1,-1,-1,2021-08-06 13:44:03,056565
-1,-2,-1,0,-2,-1,-2,-3,2021-08-06 13:44:03,056565
-2,-1,-1,-2,-2,-2,-1,0,2021-08-06 13:44:03,056565
-1,-2,-1,2,4,2,0,-1,2021-08-06 13:44:03,056565
1,0,1,2,-2,0,0,1,2021-08-06 13:44:03,056565
0,-2,-4,-5,-7,-5,-1,-1,2021-08-06 13:44:03,056565
1,1,0,-1,-1,-1,-2,-2,2021-08-06 13:44:03,087565
0,1,-1,-3,-3,-2,0,-2,2021-08-06 13:44:03,087565
-4,-2,-1,0,4,-1,-1,-2,2021-08-06 13:44:03,087565
-1,2,2,1,3,2,1,-1,2021-08-06 13:44:03,087565
2,2,2,5,3,4,2,2,2021-08-06 13:44:03,087565
-1,-2,0,2,2,1,-1,-1,2021-08-06 13:44:03,087565
-3,-4,-2,2,3,2,-1,-3,2021-08-06 13:44:03,099566
5,2,5,10,19,15,6,4,2021-08-06 13:44:03,099566
-2,-5,-5,-9,-15,-11,-5,-3,2021-08-06 13:44:03,118565
0,-2,-2,-4,-8,-5,-4,-1,2021-08-06 13:44:03,150565
2,1,-2,-6,-5,-3,1,-1,2021-08-06 13:44:03,166565
-5,-6,-9,-12,-9,-7,-4,-4,2021-08-06 13:44:03,166565
1,1,-1,-7,-14,-5,-1,1,2021-08-06 13:44:03,166565
-2,-2,-1,3,7,5,1,0,2021-08-06 13:44:03,166565
0,0,2,6,1,-1,1,1,2021-08-06 13:44:03,166565
-2,-1,1,6,2,0,-3,-3,2021-08-06 13:44:03,166565
1,1,-1,-9,1,3,2,0,2021-08-06 13:44:03,166565
1,2,-2,0,1,0,-1,-1,2021-08-06 13:44:03,166565
0,0,0,5,9,5,1,-1,2021-08-06 13:44:03,167566
0,0,-1,-1,-4,-1,0,1,2021-08-06 13:44:03,167566
-4,-3,-2,-2,-4,-3,-5,-3,2021-08-06 13:44:03,182564
-3,-4,-1,-2,-2,-3,0,-1,2021-08-06 13:44:03,198564
-1,-3,-5,-11,-20,-9,-6,-2,2021-08-06 13:44:03,198564
2,3,7,16,30,14,7,2,2021-08-06 13:44:03,198564
-1,-1,-1,3,4,-1,-1,-2,2021-08-06 13:44:03,198564
0,0,-2,-3,-7,-2,-3,-1,2021-08-06 13:44:03,198564
-2,-3,-5,-14,-20,-13,-7,-4,2021-08-06 13:44:03,198564
-2,0,0,3,5,2,-1,-1,2021-08-06 13:44:03,198564
0,-1,1,1,6,4,3,0,2021-08-06 13:44:03,214565
-1,-3,-1,3,4,3,1,0,2021-08-06 13:44:03,214565
-5,-3,-4,-8,-15,-6,-4,-3,2021-08-06 13:44:03,214565
4,6,3,-2,-4,-2,-1,3,2021-08-06 13:44:03,214565
0,0,-1,8,9,5,0,0,2021-08-06 13:44:03,245565
-1,-1,-3,-5,-6,-4,-4,-1,2021-08-06 13:44:03,261565
-3,-3,-4,-1,1,0,-1,-2,2021-08-06 13:44:03,277565
-3,-4,-5,-7,-12,-7,-4,-2,2021-08-06 13:44:03,293565
-3,1,1,5,10,3,1,1,2021-08-06 13:44:03,324569
2,4,2,-1,-2,0,2,2,2021-08-06 13:44:03,340565
-1,0,1,-1,6,3,1,-1,2021-08-06 13:44:03,356565
-3,-4,-2,-4,-8,-7,-3,-3,2021-08-06 13:44:03,356565
5,3,6,13,20,11,6,3,2021-08-06 13:44:03,356565
-4,-1,-2,-1,-1,-2,-1,-1,2021-08-06 13:44:03,356565
1,2,-1,4,8,4,1,1,2021-08-06 13:44:03,356565
-1,-2,-2,-6,-12,-6,-4,-3,2021-08-06 13:44:03,356565
-4,-5,-5,-8,-11,-6,-3,-4,2021-08-06 13:44:03,356565
2,2,2,3,2,0,2,0,2021-08-06 13:44:03,356565
1,1,1,1,0,-1,1,1,2021-08-06 13:44:03,356565
-2,-3,-3,-1,-1,-2,-1,-2,2021-08-06 13:44:03,357569
-2,-3,-4,-6,-8,-5,-5,-2,2021-08-06 13:44:03,357569
0,-1,-2,0,4,0,-1,0,2021-08-06 13:44:03,372566
1,4,4,2,-4,0,1,3,2021-08-06 13:44:03,372566
-1,0,2,-1,-3,-1,-2,0,2021-08-06 13:44:03,372566
-3,-1,-2,-4,-2,-2,-2,-1,2021-08-06 13:44:03,372566
-1,0,0,-4,-5,-3,0,0,2021-08-06 13:44:03,372566
0,1,-1,0,4,1,1,0,2021-08-06 13:44:03,373566
1,-1,-2,-2,1,3,1,1,2021-08-06 13:44:03,373566
0,-2,-2,-1,-3,-2,-1,-1,2021-08-06 13:44:03,404565
-6,-6,-6,-4,-5,-3,-3,-4,2021-08-06 13:44:03,404565
-1,-1,0,2,6,2,0,0,2021-08-06 13:44:03,404565
-1,-1,2,4,2,1,1,0,2021-08-06 13:44:03,404565
-2,-1,0,-4,-8,-5,-2,-2,2021-08-06 13:44:03,404565
0,0,-1,-1,-1,-3,-2,-2,2021-08-06 13:44:03,404565
0,-1,2,1,3,2,0,-1,2021-08-06 13:44:03,404565
-1,-2,-3,-5,-8,-5,-2,-1,2021-08-06 13:44:03,404565
0,0,1,0,0,-1,1,1,2021-08-06 13:44:03,404565
0,-2,-1,2,0,0,-2,0,2021-08-06 13:44:03,404565
-2,-2,-5,-2,-1,-1,-1,-1,2021-08-06 13:44:03,404565
-2,-1,-2,-4,-5,-2,-2,-1,2021-08-06 13:44:03,404565
0,1,1,1,-3,0,-1,0,2021-08-06 13:44:03,419566
0,2,2,-6,-6,-1,-1,2,2021-08-06 13:44:03,435565
1,-1,0,8,16,8,2,1,2021-08-06 13:44:03,451565
-1,-1,-2,0,-1,0,-1,-3,2021-08-06 13:44:03,462566
-1,0,-2,-2,-1,-1,0,-1,2021-08-06 13:44:03,482565
-3,-1,-1,-4,-10,-6,-3,-4,2021-08-06 13:44:03,482565
-2,-2,-3,-3,-5,-5,-1,-1,2021-08-06 13:44:03,482565
0,0,-1,0,-3,1,-1,0,2021-08-06 13:44:03,482565
-2,-3,-5,-5,-5,-4,-2,-3,2021-08-06 13:44:03,482565
-1,-1,-4,-14,-24,-12,-4,-3,2021-08-06 13:44:03,482565
8,7,15,35,62,32,15,8,2021-08-06 13:44:03,483568
-1,-1,-1,-1,1,-3,0,0,2021-08-06 13:44:03,483568
-3,-3,-1,-3,-2,-3,0,-1,2021-08-06 13:44:03,483568
-2,-2,-1,-2,-3,-4,-2,-2,2021-08-06 13:44:03,483568
-3,-5,-6,-12,-22,-12,-8,-4,2021-08-06 13:44:03,483568
0,0,-4,-5,0,0,0,-1,2021-08-06 13:44:03,483568
1,-1,0,0,0,-2,-4,-1,2021-08-06 13:44:03,498564
1,-1,-2,0,2,1,-1,0,2021-08-06 13:44:03,514566
-2,-3,-1,-4,-7,-3,-2,-3,2021-08-06 13:44:03,514566
4,3,5,8,9,6,4,2,2021-08-06 13:44:03,514566
-2,-3,-2,-5,-12,-4,-4,-2,2021-08-06 13:44:03,514566
0,0,1,3,7,4,1,-1,2021-08-06 13:44:03,514566
-3,-4,-2,-2,-3,-3,-3,-4,2021-08-06 13:44:03,514566
-4,-3,-5,-9,-14,-8,-3,-3,2021-08-06 13:44:03,514566
-2,-2,-1,1,7,3,1,0,2021-08-06 13:44:03,530565
0,-1,1,5,5,4,1,2,2021-08-06 13:44:03,530565
4,5,3,-2,-4,0,0,3,2021-08-06 13:44:03,530565
-2,0,0,-1,-4,-2,-2,0,2021-08-06 13:44:03,530565
1,1,-1,1,-3,-3,0,-1,2021-08-06 13:44:03,561565
-3,-5,-3,-1,1,0,-3,-4,2021-08-06 13:44:03,577566
-7,-8,-9,-13,-18,-11,-5,-5,2021-08-06 13:44:03,577566
2,4,4,4,7,2,2,1,2021-08-06 13:44:03,577566
-1,1,0,-1,0,-1,0,0,2021-08-06 13:44:03,577566
-1,0,0,-1,2,0,1,0,2021-08-06 13:44:03,577566
-4,-3,-5,-11,-19,-13,-6,-4,2021-08-06 13:44:03,577566
0,-1,0,8,17,10,1,0,2021-08-06 13:44:03,577566
0,-1,0,2,1,0,1,0,2021-08-06 13:44:03,593565
-2,0,-1,-4,-10,-2,-2,0,2021-08-06 13:44:03,593565
-2,-2,-2,-4,-1,-3,-3,-1,2021-08-06 13:44:03,593565
0,0,1,3,2,-2,0,1,2021-08-06 13:44:03,593565
0,-2,1,-1,2,3,-1,-2,2021-08-06 13:44:03,624567
0,0,1,4,1,1,1,0,2021-08-06 13:44:03,640565
1,0,-1,-2,-7,-2,-1,0,2021-08-06 13:44:03,656565
-4,-6,-5,-8,-14,-9,-4,-4,2021-08-06 13:44:03,656565
0,0,-1,-1,0,0,-1,1,2021-08-06 13:44:03,656565
1,1,3,9,15,8,1,1,2021-08-06 13:44:03,656565
0,-1,-1,-6,-2,-3,-1,-2,2021-08-06 13:44:03,656565
-3,-1,-3,-3,-1,0,-1,-1,2021-08-06 13:44:03,656565
-1,-2,-2,-3,-6,-4,0,-1,2021-08-06 13:44:03,656565
-1,-1,0,0,7,5,2,0,2021-08-06 13:44:03,656565
1,2,3,5,1,2,3,1,2021-08-06 13:44:03,657569
-2,-3,-5,-12,-17,-11,-6,-3,2021-08-06 13:44:03,657569
2,3,4,9,14,10,4,2,2021-08-06 13:44:03,688566
2,0,1,7,7,4,1,-1,2021-08-06 13:44:03,688566
-3,0,-1,-4,-5,-4,-2,-2,2021-08-06 13:44:03,688566
-2,-1,-2,-2,0,0,0,-1,2021-08-06 13:44:03,688566
-2,-2,-2,-3,-8,-6,-3,0,2021-08-06 13:44:03,688566
-1,-1,-1,-4,-2,-1,-2,0,2021-08-06 13:44:03,688566
0,0,0,6,13,4,0,0,2021-08-06 13:44:03,688566
-1,-3,0,-2,-9,-3,-2,0,2021-08-06 13:44:03,689566
0,2,1,0,2,3,2,0,2021-08-06 13:44:03,720564
-2,-2,-2,0,0,-1,-2,-4,2021-08-06 13:44:03,736564
-2,-2,-4,-9,-15,-7,-3,-2,2021-08-06 13:44:03,736564
3,4,4,4,6,5,3,2,2021-08-06 13:44:03,736564
0,-2,0,0,-1,0,-1,-1,2021-08-06 13:44:03,736564
1,3,3,2,3,-1,1,2,2021-08-06 13:44:03,736564
-4,-5,-5,-4,-4,-5,-4,-2,2021-08-06 13:44:03,736564
2,1,3,6,8,5,2,2,2021-08-06 13:44:03,736564
-1,-2,-2,-2,2,2,1,-1,2021-08-06 13:44:03,752565
-1,-1,-3,-4,-7,-5,-3,-2,2021-08-06 13:44:03,768564
3,4,5,3,2,4,4,1,2021-08-06 13:44:03,784565
-2,-2,-2,1,0,0,-1,0,2021-08-06 13:44:03,784565
-5,-3,-4,-10,-18,-14,-6,-4,2021-08-06 13:44:03,784565
-1,-3,-2,-1,6,6,3,0,2021-08-06 13:44:03,784565
1,1,3,6,13,6,3,4,2021-08-06 13:44:03,784565
1,0,1,4,8,3,0,-1,2021-08-06 13:44:03,784565
-1,-2,-1,1,0,-2,-1,-1,2021-08-06 13:44:03,800567
-3,-2,-4,-5,-10,-7,-4,-2,2021-08-06 13:44:03,800567
-6,-7,-7,-12,-15,-10,-6,-4,2021-08-06 13:44:03,800567
0,-1,0,2,1,0,0,-1,2021-08-06 13:44:03,800567
3,3,3,2,12,7,1,3,2021-08-06 13:44:03,815565
0,-1,-2,-4,-4,-6,-3,-2,2021-08-06 13:44:03,815565
-3,-4,-4,-3,-12,-4,-1,-2,2021-08-06 13:44:03,815565
-4,-5,-5,-3,4,-1,-2,-2,2021-08-06 13:44:03,815565
0,2,1,1,1,1,0,-2,2021-08-06 13:44:03,846566
-2,-1,-1,1,2,0,0,0,2021-08-06 13:44:03,846566
-1,-2,1,0,-2,-2,-2,-1,2021-08-06 13:44:03,846566
-1,0,-1,-5,-7,-4,-1,-2,2021-08-06 13:44:03,846566
-1,-2,1,1,-3,-1,0,0,2021-08-06 13:44:03,862567
0,2,2,5,9,5,2,1,2021-08-06 13:44:03,862567
-1,-2,-2,-3,-3,-2,-3,-2,2021-08-06 13:44:03,862567
-1,-2,-4,-2,-1,-2,-1,-1,2021-08-06 13:44:03,862567
-1,0,-1,1,4,1,1,0,2021-08-06 13:44:03,878565
-1,0,1,-2,-5,-3,-3,-1,2021-08-06 13:44:03,894565
-1,2,-1,2,5,3,1,1,2021-08-06 13:44:03,909565
-2,-2,-1,1,-1,-1,-1,0,2021-08-06 13:44:03,909565
0,-1,-3,0,-4,-6,-4,-3,2021-08-06 13:44:03,909565
1,-1,0,-1,-1,0,-1,1,2021-08-06 13:44:03,909565
2,1,0,3,4,1,0,0,2021-08-06 13:44:03,909565
-3,-1,-3,-4,-5,-4,-1,-1,2021-08-06 13:44:03,909565
-2,-2,-1,0,0,0,-1,-2,2021-08-06 13:44:03,925567
2,2,0,3,6,2,1,1,2021-08-06 13:44:03,925567
1,2,6,13,14,9,4,2,2021-08-06 13:44:03,925567
-1,-3,-2,-8,-8,-6,-3,-2,2021-08-06 13:44:03,925567
1,1,1,6,15,8,4,2,2021-08-06 13:44:03,941566
-1,0,0,-2,-7,-3,-1,-2,2021-08-06 13:44:03,957569
-2,-1,-2,-3,-4,-4,-4,-2,2021-08-06 13:44:03,972565
-2,1,-1,-2,-2,-1,0,-2,2021-08-06 13:44:03,987565
-6,-6,-6,-9,-16,-9,-5,-5,2021-08-06 13:44:03,987565
2,0,-2,-5,0,0,0,0,2021-08-06 13:44:03,987565
1,2,1,0,1,0,0,0,2021-08-06 13:44:03,987565
0,-1,0,-2,-6,-3,-1,-1,2021-08-06 13:44:03,987565
1,-1,1,2,6,5,3,2,2021-08-06 13:44:03,987565
-3,-3,-4,-4,-7,-5,-2,-5,2021-08-06 13:44:03,987565
-1,-1,-1,-1,-6,-2,-1,-1,2021-08-06 13:44:03,987565
-2,0,0,1,3,1,1,-2,2021-08-06 13:44:03,988566
-1,0,-1,-3,-7,-3,-1,0,2021-08-06 13:44:03,988566
0,-3,-2,-4,-4,-3,-1,-1,2021-08-06 13:44:03,988566
0,-1,-2,-3,-5,-2,0,-2,2021-08-06 13:44:04,003565
0,-3,-5,-10,-12,-6,-4,-2,2021-08-06 13:44:04,019564
4,6,6,18,26,11,5,1,2021-08-06 13:44:04,035565
0,1,2,4,3,1,2,2,2021-08-06 13:44:04,035565
-2,-3,-2,-4,-3,-3,-2,-1,2021-08-06 13:44:04,035565
-2,-3,-2,-4,-7,-5,-3,-3,2021-08-06 13:44:04,035565
-4,-5,-5,-9,-17,-11,-5,-3,2021-08-06 13:44:04,035565
2,0,0,5,9,5,2,2,2021-08-06 13:44:04,035565
-1,-2,-2,1,6,3,0,0,2021-08-06 13:44:04,035565
2,1,3,5,7,4,1,2,2021-08-06 13:44:04,035565
-3,-3,-3,-6,-9,-5,-3,-1,2021-08-06 13:44:04,051567
-3,-3,0,0,-3,-4,-2,-2,2021-08-06 13:44:04,051567
-3,0,-3,-6,-8,-4,-3,-3,2021-08-06 13:44:04,067565
-3,-2,-2,1,1,1,0,-1,2021-08-06 13:44:04,083565
4,2,3,4,8,4,2,3,2021-08-06 13:44:04,099565
-3,-3,-2,-2,-6,-4,-1,-2,2021-08-06 13:44:04,099565
0,-1,-1,1,6,0,1,-2,2021-08-06 13:44:04,099565
1,0,2,1,0,1,1,2,2021-08-06 13:44:04,099565
-3,-3,-1,-3,-4,-4,-4,-3,2021-08-06 13:44:04,099565
-2,-3,-4,-3,-5,-2,-2,-3,2021-08-06 13:44:04,099565
1,1,1,1,1,1,0,1,2021-08-06 13:44:04,099565
-3,-1,-1,-1,-7,-4,-3,-3,2021-08-06 13:44:04,099565
-1,-2,-3,-5,-5,-1,1,1,2021-08-06 13:44:04,130566
1,3,5,8,10,7,2,1,2021-08-06 13:44:04,146565
0,-3,-1,-2,-3,-2,-1,0,2021-08-06 13:44:04,162565
0,0,-1,3,3,2,0,0,2021-08-06 13:44:04,162565
-1,-3,-5,-6,-8,-3,-2,-2,2021-08-06 13:44:04,162565
-1,-1,-4,-3,-5,-4,-1,-2,2021-08-06 13:44:04,162565
-1,-1,1,3,5,3,2,1,2021-08-06 13:44:04,162565
-1,-2,-2,-3,0,-1,-2,-2,2021-08-06 13:44:04,162565
-1,-1,0,0,-5,-3,-2,-1,2021-08-06 13:44:04,162565
-2,-3,-3,-2,-2,-1,-5,-2,2021-08-06 13:44:04,162565
0,-1,-3,-5,-6,-3,-1,-1,2021-08-06 13:44:04,163565
2,3,1,1,0,1,-1,1,2021-08-06 13:44:04,163565
-1,0,0,1,1,-1,0,0,2021-08-06 13:44:04,184565
2,1,0,4,8,2,4,3,2021-08-06 13:44:04,184565
-6,-5,-4,-6,-8,-6,-5,-2,2021-08-06 13:44:04,184565
0,1,3,3,6,2,0,0,2021-08-06 13:44:04,185568
0,2,-1,-4,-3,-1,0,0,2021-08-06 13:44:04,209565
-1,-2,-2,1,-1,-3,-3,-2,2021-08-06 13:44:04,209565
1,-2,-1,-3,-4,-3,-1,-1,2021-08-06 13:44:04,209565
0,-3,-4,-6,-2,-2,0,-1,2021-08-06 13:44:04,209565
1,1,1,6,11,7,1,1,2021-08-06 13:44:04,225566
-3,-4,-1,-3,-4,0,-3,-4,2021-08-06 13:44:04,241566
0,0,-1,3,-2,-1,-2,-4,2021-08-06 13:44:04,257566
-2,-2,-2,0,-5,-3,-2,-3,2021-08-06 13:44:04,272565
-1,0,2,-1,-5,-4,-3,0,2021-08-06 13:44:04,287565
-1,0,0,-6,-6,-3,-2,0,2021-08-06 13:44:04,287565
0,-1,-1,3,3,4,0,2,2021-08-06 13:44:04,287565
2,1,1,3,7,2,2,0,2021-08-06 13:44:04,287565
-1,1,-1,2,2,2,2,1,2021-08-06 13:44:04,287565
-1,-1,0,-2,-1,-3,-2,-1,2021-08-06 13:44:04,287565
-1,-3,0,0,3,1,0,0,2021-08-06 13:44:04,287565
0,-2,-1,-1,-2,-3,-2,0,2021-08-06 13:44:04,288567
0,-2,-4,-5,-7,-4,-1,-2,2021-08-06 13:44:04,288567
1,1,-1,-4,-5,-4,1,0,2021-08-06 13:44:04,288567
-2,-2,-2,-3,-5,-4,-2,-3,2021-08-06 13:44:04,288567
1,0,-1,0,0,1,2,3,2021-08-06 13:44:04,288567
1,-1,1,3,3,1,-1,0,2021-08-06 13:44:04,302565
-2,-2,-3,-4,-2,1,0,-1,2021-08-06 13:44:04,302565
-2,-1,0,-1,-1,0,-3,-2,2021-08-06 13:44:04,302565
-3,-3,-2,0,-1,-1,-2,-3,2021-08-06 13:44:04,302565
2,4,3,0,-4,-2,-1,0,2021-08-06 13:44:04,317565
-2,-2,-4,-1,-2,-2,0,0,2021-08-06 13:44:04,332565
0,1,1,-2,-4,-2,0,0,2021-08-06 13:44:04,332565
-3,-3,-2,-2,-1,-2,-2,-3,2021-08-06 13:44:04,332565
-3,-2,-3,1,4,-2,-2,-2,2021-08-06 13:44:04,347565
-2,-1,-2,-1,-3,-2,-3,0,2021-08-06 13:44:04,363566
0,-2,-4,-5,-7,-5,-1,1,2021-08-06 13:44:04,379565
0,1,3,4,7,6,3,1,2021-08-06 13:44:04,395566
0,1,1,3,4,2,1,0,2021-08-06 13:44:04,410567
0,-2,-1,-2,-2,-3,-1,-2,2021-08-06 13:44:04,410567
-2,-4,-4,-10,-12,-8,-4,-4,2021-08-06 13:44:04,410567
-1,-1,-2,3,4,1,0,0,2021-08-06 13:44:04,410567
-2,-1,-2,-1,-1,-1,0,-1,2021-08-06 13:44:04,410567
-2,-1,-1,-1,-3,-1,-3,-1,2021-08-06 13:44:04,410567
1,0,-1,1,0,0,0,0,2021-08-06 13:44:04,410567
-3,-3,-4,-7,-13,-7,-5,-1,2021-08-06 13:44:04,410567
-3,-5,-5,-4,-5,-1,-1,-3,2021-08-06 13:44:04,410567
0,-1,0,-2,-2,-2,1,1,2021-08-06 13:44:04,411566
2,3,2,1,2,3,1,-1,2021-08-06 13:44:04,411566
1,1,1,-2,-1,0,0,-1,2021-08-06 13:44:04,411566
-3,-3,-1,-2,-3,-2,-2,-1,2021-08-06 13:44:04,426568
-3,-1,-1,2,-1,1,-2,-3,2021-08-06 13:44:04,426568
-1,-2,0,4,7,2,-2,0,2021-08-06 13:44:04,426568
1,0,-1,0,-1,-2,0,2,2021-08-06 13:44:04,426568
-1,-1,-3,-1,3,3,1,-1,2021-08-06 13:44:04,442566
1,0,3,11,13,7,3,2,2021-08-06 13:44:04,458566
-2,-2,-1,-4,-10,-7,-3,-2,2021-08-06 13:44:04,474566
2,0,-4,0,15,11,6,3,2021-08-06 13:44:04,490566
-4,-5,-8,-15,-28,-18,-7,-6,2021-08-06 13:44:04,490566
1,-1,1,1,1,2,1,-1,2021-08-06 13:44:04,506564
2,4,10,17,23,11,3,1,2021-08-06 13:44:04,521565
-4,-3,-8,-20,-26,-18,-8,-5,2021-08-06 13:44:04,537565
-5,-5,-5,-12,-18,-13,-4,-3,2021-08-06 13:44:04,537565
-1,1,2,0,9,5,1,0,2021-08-06 13:44:04,537565
0,2,3,15,12,8,3,3,2021-08-06 13:44:04,537565
3,5,9,20,24,15,6,2,2021-08-06 13:44:04,537565
0,0,-2,-3,-3,-3,-1,0,2021-08-06 13:44:04,537565
-1,0,-4,-6,-17,-7,-3,1,2021-08-06 13:44:04,537565
-1,0,-3,-3,5,2,1,-1,2021-08-06 13:44:04,537565
-1,-1,-1,-4,-9,-6,-3,-2,2021-08-06 13:44:04,537565
0,1,2,7,12,7,3,1,2021-08-06 13:44:04,537565
-2,-3,-5,-6,-6,-5,-3,0,2021-08-06 13:44:04,538567
-2,-3,-4,-5,-6,-3,-2,-2,2021-08-06 13:44:04,538567
-2,-2,0,-1,-3,-2,-2,-3,2021-08-06 13:44:04,538567
2,0,2,2,3,2,0,1,2021-08-06 13:44:04,538567
1,1,-2,-1,1,-1,0,0,2021-08-06 13:44:04,538567
1,1,-2,-2,2,2,0,0,2021-08-06 13:44:04,538567
-3,-4,-4,-5,-7,-5,-4,-2,2021-08-06 13:44:04,538567
1,1,1,-2,-3,0,-1,1,2021-08-06 13:44:04,549564
-2,-1,-2,0,0,0,-1,-1,2021-08-06 13:44:04,549564
-1,-3,-3,-2,-6,-5,-3,-2,2021-08-06 13:44:04,568564
2,2,1,3,5,4,1,1,2021-08-06 13:44:04,584565
-2,-3,-2,-1,0,1,-1,-1,2021-08-06 13:44:04,600565
1,1,0,-2,-3,-4,-1,-2,2021-08-06 13:44:04,600565
-1,0,0,0,-1,1,-1,0,2021-08-06 13:44:04,600565
-3,0,-1,-4,-5,-2,-1,-1,2021-08-06 13:44:04,600565
0,-1,3,7,12,5,2,1,2021-08-06 13:44:04,600565
-2,-2,-1,-4,-10,-6,-4,0,2021-08-06 13:44:04,600565
-4,-4,-4,-10,-14,-9,-4,-3,2021-08-06 13:44:04,600565
1,0,-1,3,11,2,1,0,2021-08-06 13:44:04,600565
-1,-1,-1,-1,-10,-3,-1,-2,2021-08-06 13:44:04,616564
2,2,4,9,15,9,5,2,2021-08-06 13:44:04,616564
-1,-2,0,-4,-9,-5,-1,0,2021-08-06 13:44:04,616564
-6,-8,-11,-15,-18,-11,-8,-4,2021-08-06 13:44:04,616564
1,2,-1,1,1,1,-2,1,2021-08-06 13:44:04,648565
1,3,1,2,3,0,1,0,2021-08-06 13:44:04,664565
0,0,-1,0,4,3,3,1,2021-08-06 13:44:04,680565
1,-1,-2,-5,-9,-4,-3,0,2021-08-06 13:44:04,680565
-3,-4,-3,-4,4,0,-2,-2,2021-08-06 13:44:04,680565
-2,-1,3,0,-4,-1,-2,0,2021-08-06 13:44:04,680565
3,0,-1,6,7,4,1,1,2021-08-06 13:44:04,680565
1,1,1,6,8,2,1,0,2021-08-06 13:44:04,680565
-3,-2,-2,-5,-5,-1,-2,-1,2021-08-06 13:44:04,680565
-1,-1,-1,0,3,0,0,0,2021-08-06 13:44:04,680565
-3,-3,-2,-4,-5,-4,-3,-3,2021-08-06 13:44:04,681566
1,1,1,4,3,1,-1,1,2021-08-06 13:44:04,681566
1,-1,1,2,4,1,1,0,2021-08-06 13:44:04,711565
0,-1,1,-1,3,3,0,-1,2021-08-06 13:44:04,711565
-2,-3,-6,-12,-18,-9,-4,-2,2021-08-06 13:44:04,711565
-2,-1,-2,3,3,1,-2,-3,2021-08-06 13:44:04,711565
0,-2,-1,-8,-17,-8,-2,0,2021-08-06 13:44:04,726569
0,0,-2,7,12,8,4,1,2021-08-06 13:44:04,726569
1,0,0,5,10,5,3,0,2021-08-06 13:44:04,726569
0,-2,0,-1,-6,-1,1,-1,2021-08-06 13:44:04,726569
1,2,-2,-3,0,-1,-1,2,2021-08-06 13:44:04,742566
-4,-5,-7,-15,-30,-18,-8,-5,2021-08-06 13:44:04,758565
2,1,5,14,22,9,2,3,2021-08-06 13:44:04,774565
-1,0,-1,-1,0,-2,1,0,2021-08-06 13:44:04,774565
-2,0,-1,2,4,3,0,-2,2021-08-06 13:44:04,774565
0,-1,1,4,4,1,-2,-1,2021-08-06 13:44:04,774565
-1,-2,-3,-8,-8,-6,-2,-1,2021-08-06 13:44:04,774565
-2,-2,-1,-4,-5,-3,-1,0,2021-08-06 13:44:04,774565
0,-2,0,5,6,2,-1,-1,2021-08-06 13:44:04,790568
-2,1,-3,-4,-2,-2,0,-1,2021-08-06 13:44:04,790568
-1,2,3,4,4,4,0,-1,2021-08-06 13:44:04,790568
-1,-1,0,2,-1,-1,-1,-1,2021-08-06 13:44:04,790568
2,0,1,4,3,2,-1,0,2021-08-06 13:44:04,790568
-1,1,3,6,7,3,-1,0,2021-08-06 13:44:04,790568
-3,-3,-6,-8,-9,-6,-2,-1,2021-08-06 13:44:04,806565
-6,-6,-12,-31,-44,-26,-9,-4,2021-08-06 13:44:04,806565
5,7,12,34,59,32,17,8,2021-08-06 13:44:04,822566
-1,0,-2,-2,-6,-3,-3,-1,2021-08-06 13:44:04,822566
-1,-1,-1,-1,-5,-2,0,-1,2021-08-06 13:44:04,822566
2,1,3,8,7,6,2,2,2021-08-06 13:44:04,822566
-2,-3,-5,-8,-16,-9,-3,-1,2021-08-06 13:44:04,854567
0,-1,-1,-1,3,2,2,-1,2021-08-06 13:44:04,854567
0,-2,0,-1,-4,-4,-2,-1,2021-08-06 13:44:04,854567
-2,-2,-1,-4,-7,-4,-3,-1,2021-08-06 13:44:04,854567
-2,-2,-2,-2,-8,-5,-2,-1,2021-08-06 13:44:04,854567
1,2,5,11,20,9,3,2,2021-08-06 13:44:04,854567
-2,-3,-8,-17,-16,-8,-4,-1,2021-08-06 13:44:04,870564
1,-1,-1,-3,-5,-3,-1,-2,2021-08-06 13:44:04,870564
-1,-2,-3,-5,-2,-3,-2,-2,2021-08-06 13:44:04,886565
-2,-4,-3,-2,-6,-3,-2,-1,2021-08-06 13:44:04,902565
0,0,3,3,5,1,1,-1,2021-08-06 13:44:04,907565
1,2,4,10,16,8,3,2,2021-08-06 13:44:04,907565
-1,0,-2,-4,-9,-6,-4,-3,2021-08-06 13:44:04,907565
-1,-4,-4,-10,-8,-4,0,-1,2021-08-06 13:44:04,907565
1,1,4,7,8,3,0,0,2021-08-06 13:44:04,907565
0,0,1,6,8,2,0,-1,2021-08-06 13:44:04,907565
0,1,3,5,8,4,1,-1,2021-08-06 13:44:04,918566
-2,-4,-7,-8,-11,-7,-2,-2,2021-08-06 13:44:04,934565
0,-2,-2,-5,-8,-4,-2,-2,2021-08-06 13:44:04,934565
1,2,3,8,16,8,4,1,2021-08-06 13:44:04,934565
-2,-3,-6,-14,-16,-10,-4,-2,2021-08-06 13:44:04,934565
-2,-1,-2,-6,-7,-5,-4,-2,2021-08-06 13:44:04,934565
0,1,1,1,0,1,-1,0,2021-08-06 13:44:04,934565
1,0,1,4,8,5,1,0,2021-08-06 13:44:04,934565
-1,-2,0,-2,-2,-2,0,-1,2021-08-06 13:44:04,966564
-2,-3,-2,-1,0,-2,1,0,2021-08-06 13:44:04,982565
-2,-2,-1,2,-1,-2,-1,-1,2021-08-06 13:44:04,982565
-2,-1,-1,-4,-8,-5,-4,-1,2021-08-06 13:44:04,982565
-2,-1,-4,-6,-12,-5,-1,-1,2021-08-06 13:44:04,982565
3,3,3,12,25,12,3,1,2021-08-06 13:44:04,982565
0,-1,-2,-2,-3,-1,-2,0,2021-08-06 13:44:04,982565
3,2,2,6,6,4,3,2,2021-08-06 13:44:04,982565
-1,-3,-3,-5,-9,-5,-6,-3,2021-08-06 13:44:04,998564
-2,-1,-1,-5,-13,-7,-3,-1,2021-08-06 13:44:05,013565
-1,-1,0,2,9,6,3,0,2021-08-06 13:44:05,029565
-1,-4,-2,-3,-4,-1,-2,-2,2021-08-06 13:44:05,029565
-3,-2,-2,-2,-2,-3,-1,0,2021-08-06 13:44:05,029565
0,-1,-2,-5,-7,-6,-2,-1,2021-08-06 13:44:05,029565
-4,-3,-4,-5,-9,-4,-3,-2,2021-08-06 13:44:05,029565
1,0,0,-1,3,1,1,-1,2021-08-06 13:44:05,029565
-1,-1,1,8,7,2,0,-1,2021-08-06 13:44:05,044565
1,1,2,3,11,6,2,0,2021-08-06 13:44:05,060569
1,-1,-3,-3,-4,-2,-1,-2,2021-08-06 13:44:05,060569
-3,0,-5,-6,-10,-5,-2,-2,2021-08-06 13:44:05,060569
0,1,0,-2,-2,-2,0,-1,2021-08-06 13:44:05,060569
-3,-1,-3,-5,-12,-5,-4,-2,2021-08-06 13:44:05,060569
0,2,-1,-2,0,-2,-2,0,2021-08-06 13:44:05,060569
-1,-1,0,2,2,2,-1,0,2021-08-06 13:44:05,060569
-1,-1,-2,-3,-3,0,-1,0,2021-08-06 13:44:05,092566
0,0,-1,-1,4,1,0,1,2021-08-06 13:44:05,107565
-2,-3,-3,-2,1,-1,0,0,2021-08-06 13:44:05,122565
-2,-3,0,0,2,2,-1,-1,2021-08-06 13:44:05,122565
-3,-2,-1,-3,-5,-1,-3,-3,2021-08-06 13:44:05,122565
-3,-4,1,1,-3,-2,-3,-3,2021-08-06 13:44:05,122565
-1,-1,3,9,14,5,0,-1,2021-08-06 13:44:05,122565
1,0,1,1,4,1,1,1,2021-08-06 13:44:05,122565
0,0,-1,-5,-7,-6,-2,0,2021-08-06 13:44:05,122565
0,0,-1,-4,-6,-3,0,0,2021-08-06 13:44:05,122565
-2,-3,-3,-5,-8,-6,-2,-2,2021-08-06 13:44:05,123567
0,-2,-4,-5,-8,-4,-3,-1,2021-08-06 13:44:05,123567
0,-2,-2,-1,-3,1,1,-1,2021-08-06 13:44:05,153566
1,1,0,3,8,2,0,-1,2021-08-06 13:44:05,153566
-1,0,1,0,-3,-1,1,1,2021-08-06 13:44:05,153566
-3,-2,-3,-6,-6,-5,-3,-2,2021-08-06 13:44:05,153566
-1,-2,1,1,0,1,-1,1,2021-08-06 13:44:05,168564
-2,-2,-1,-1,1,1,0,-1,2021-08-06 13:44:05,184565
1,-2,-1,-1,-2,2,-1,0,2021-08-06 13:44:05,184565
-2,-1,-3,0,0,-1,-1,-2,2021-08-06 13:44:05,184565
2,0,-1,-2,-3,-2,-1,-1,2021-08-06 13:44:05,184565
0,-1,-1,-3,-7,-4,-1,-1,2021-08-06 13:44:05,184565
0,0,-2,0,0,-2,-2,-2,2021-08-06 13:44:05,184565
-2,-2,-1,1,1,2,-1,-1,2021-08-06 13:44:05,184565
-1,0,-3,-3,3,1,1,2,2021-08-06 13:44:05,215565
-2,-1,0,0,-3,0,-2,0,2021-08-06 13:44:05,231564
-1,0,0,-3,-5,-2,-2,0,2021-08-06 13:44:05,231564
1,1,2,6,10,5,1,2,2021-08-06 13:44:05,231564
-3,-3,-3,-4,-1,-3,-2,-4,2021-08-06 13:44:05,231564
1,2,0,0,-2,1,1,2,2021-08-06 13:44:05,231564
-1,-2,-1,0,-3,-3,-3,-2,2021-08-06 13:44:05,231564
-1,-2,-2,-1,1,1,0,-1,2021-08-06 13:44:05,231564
0,-1,2,8,16,5,3,0,2021-08-06 13:44:05,246566
0,-1,-1,-3,-5,-2,-1,0,2021-08-06 13:44:05,246566
-2,-3,-3,-8,-9,-5,-3,-2,2021-08-06 13:44:05,246566
0,0,2,-1,-3,-3,-1,1,2021-08-06 13:44:05,246566
0,-1,-2,-4,-5,-2,0,0,2021-08-06 13:44:05,262566
-1,-2,0,-1,1,-1,-1,-3,2021-08-06 13:44:05,262566
1,0,0,3,9,4,1,2,2021-08-06 13:44:05,262566
0,0,2,6,3,2,1,-2,2021-08-06 13:44:05,262566
1,0,0,1,5,1,-1,-2,2021-08-06 13:44:05,294568
-1,-2,0,-1,-4,-4,-3,-2,2021-08-06 13:44:05,294568
-4,-2,-3,-2,-3,-2,-2,-1,2021-08-06 13:44:05,294568
0,1,-1,-3,-1,-2,-1,-2,2021-08-06 13:44:05,294568
0,0,-2,-1,-3,-1,-2,1,2021-08-06 13:44:05,294568
-1,-2,-2,-1,-4,-3,-1,-1,2021-08-06 13:44:05,294568
1,1,0,3,8,4,2,1,2021-08-06 13:44:05,310566
-3,-2,-2,-5,-9,-5,-1,-2,2021-08-06 13:44:05,310566
-2,0,0,-1,0,0,-1,-2,2021-08-06 13:44:05,342565
1,0,-1,3,7,2,0,0,2021-08-06 13:44:05,358565
1,1,3,3,1,2,1,1,2021-08-06 13:44:05,374565
0,-2,-2,-1,-1,-3,-4,-1,2021-08-06 13:44:05,374565
-2,-2,-3,-4,-6,-4,-3,-1,2021-08-06 13:44:05,374565
-2,-3,-2,1,1,-1,-1,-1,2021-08-06 13:44:05,374565
2,-1,1,1,5,2,1,0,2021-08-06 13:44:05,374565
0,0,0,0,1,0,0,0,2021-08-06 13:44:05,374565
-4,-2,-1,-3,-7,-2,-1,-1,2021-08-06 13:44:05,374565
-2,-1,-2,-5,-6,-3,-1,-1,2021-08-06 13:44:05,374565
-1,-1,-2,1,-2,0,0,0,2021-08-06 13:44:05,374565
-4,0,0,-4,-1,0,0,-2,2021-08-06 13:44:05,374565
1,-2,0,2,1,2,0,-2,2021-08-06 13:44:05,390569
2,1,-2,-1,0,1,0,0,2021-08-06 13:44:05,406564
-4,-2,-2,-5,-4,-5,-3,-3,2021-08-06 13:44:05,406564
-2,-3,-2,-5,-6,-6,-2,0,2021-08-06 13:44:05,406564
2,3,3,10,15,11,5,3,2021-08-06 13:44:05,422566
0,0,0,1,0,0,0,-1,2021-08-06 13:44:05,422566
-3,-2,-2,-5,-9,-5,-2,-4,2021-08-06 13:44:05,422566
-1,0,1,2,2,0,0,1,2021-08-06 13:44:05,422566
-2,-2,-3,-6,-12,-8,-5,-3,2021-08-06 13:44:05,422566
-2,-2,-4,-9,-13,-4,-4,-4,2021-08-06 13:44:05,422566
0,2,4,12,25,12,5,3,2021-08-06 13:44:05,422566
0,0,-3,-3,-8,-4,-1,-1,2021-08-06 13:44:05,422566
-1,-1,0,4,6,2,0,1,2021-08-06 13:44:05,454567
-2,-3,-2,-6,-7,-5,-4,-4,2021-08-06 13:44:05,454567
1,-1,-1,-3,-9,-6,-2,-1,2021-08-06 13:44:05,454567
-2,-1,-1,2,2,1,0,-1,2021-08-06 13:44:05,454567
-1,-1,-3,-12,-15,-10,-4,-1,2021-08-06 13:44:05,470564
3,4,5,17,27,13,6,4,2021-08-06 13:44:05,485565
-1,-2,-1,-3,-3,-1,-2,-1,2021-08-06 13:44:05,501565
2,3,4,5,6,4,2,0,2021-08-06 13:44:05,501565
-3,-4,-2,-3,-8,-6,-3,-1,2021-08-06 13:44:05,501565
-3,-4,-3,-10,-16,-9,-4,-5,2021-08-06 13:44:05,501565
0,0,-2,4,6,2,1,0,2021-08-06 13:44:05,501565
1,0,0,-1,0,1,0,1,2021-08-06 13:44:05,501565
-3,-3,-2,-2,-2,-3,-1,-1,2021-08-06 13:44:05,501565
-2,0,-1,-3,-2,-1,0,0,2021-08-06 13:44:05,502568
-3,-3,-5,-7,-12,-6,-3,-2,2021-08-06 13:44:05,502568
-1,0,-2,-1,4,3,0,-1,2021-08-06 13:44:05,502568
0,1,1,2,3,2,1,2,2021-08-06 13:44:05,533565
-2,-1,-2,1,4,3,1,1,2021-08-06 13:44:05,549565
0,1,1,4,3,-1,0,0,2021-08-06 13:44:05,565565
-3,-3,-4,-4,-7,-6,-3,-1,2021-08-06 13:44:05,565565
1,1,-1,-1,-4,1,-2,-3,2021-08-06 13:44:05,565565
0,-2,-1,0,-2,-2,-2,0,2021-08-06 13:44:05,565565
-2,-3,-3,-5,-10,-7,-5,-3,2021-08-06 13:44:05,565565
1,0,1,2,5,3,1,1,2021-08-06 13:44:05,565565
0,-1,1,0,2,2,0,0,2021-08-06 13:44:05,565565
-2,-3,-1,-3,-6,-3,-2,-1,2021-08-06 13:44:05,566566
2,3,4,3,4,4,3,1,2021-08-06 13:44:05,566566
-2,-3,-4,-5,-10,-6,-4,-2,2021-08-06 13:44:05,566566
-2,-3,-3,-5,-2,-2,-2,-2,2021-08-06 13:44:05,596565
3,4,1,6,13,6,2,1,2021-08-06 13:44:05,596565
-3,-1,1,4,11,5,2,-2,2021-08-06 13:44:05,596565
-1,-1,-1,-2,-1,1,-1,-1,2021-08-06 13:44:05,596565
-2,0,-2,-6,-5,-2,0,-1,2021-08-06 13:44:05,596565
-4,-5,-4,-6,-8,-7,-5,-2,2021-08-06 13:44:05,596565
-1,-3,-2,-5,-10,-8,-4,-3,2021-08-06 13:44:05,612566
1,3,4,9,9,4,2,1,2021-08-06 13:44:05,612566
3,3,3,9,14,8,3,0,2021-08-06 13:44:05,628565
-2,-2,-1,-3,-6,-6,-4,-1,2021-08-06 13:44:05,634565
0,-2,-1,-1,1,2,0,0,2021-08-06 13:44:05,635567
-2,-1,0,0,2,1,-1,-2,2021-08-06 13:44:05,635567
-1,-1,0,-2,2,0,0,-1,2021-08-06 13:44:05,644565
0,1,-1,1,0,3,2,-1,2021-08-06 13:44:05,660566
1,0,-1,-3,-6,-1,0,1,2021-08-06 13:44:05,676565
-1,-2,-1,-1,1,-2,-1,-1,2021-08-06 13:44:05,676565
-4,-1,-3,-5,-9,-6,-3,-2,2021-08-06 13:44:05,676565
1,-1,-1,5,9,6,2,1,2021-08-06 13:44:05,676565
-2,-2,-3,-4,-8,-5,-2,-3,2021-08-06 13:44:05,692566
1,0,-1,0,1,1,2,1,2021-08-06 13:44:05,692566
-1,-2,-1,-1,-2,-3,-2,-2,2021-08-06 13:44:05,692566
-1,1,1,0,4,3,0,1,2021-08-06 13:44:05,692566
-4,-2,-3,-3,-6,-3,-3,-1,2021-08-06 13:44:05,692566
-1,-1,-3,-5,-1,-2,-2,-2,2021-08-06 13:44:05,692566
-1,1,1,5,2,1,0,-2,2021-08-06 13:44:05,708567
-1,-1,-2,-2,-5,-3,1,-1,2021-08-06 13:44:05,708567
0,-2,-2,-1,2,0,0,-2,2021-08-06 13:44:05,708567
-2,0,-1,-2,-3,-2,-3,0,2021-08-06 13:44:05,708567
0,0,-2,-1,-1,0,-1,0,2021-08-06 13:44:05,724565
-1,0,0,-2,-5,-2,0,-1,2021-08-06 13:44:05,740566
0,1,-1,2,4,3,0,-2,2021-08-06 13:44:05,756565
-2,-3,-1,-3,-7,-5,-2,-3,2021-08-06 13:44:05,756565
-2,-2,-3,-5,-11,-5,-2,0,2021-08-06 13:44:05,756565
0,1,2,6,9,6,3,2,2021-08-06 13:44:05,756565
-1,-1,-4,-7,-9,-6,-3,0,2021-08-06 13:44:05,756565
-2,-2,-3,-3,-8,-1,0,-3,2021-08-06 13:44:05,756565
1,-2,-1,2,8,3,0,0,2021-08-06 13:44:05,772565
2,-1,0,1,2,1,-2,-2,2021-08-06 13:44:05,772565
1,1,2,7,6,2,2,0,2021-08-06 13:44:05,772565
-1,-3,-3,-3,-6,-4,-2,-2,2021-08-06 13:44:05,772565
-3,-4,-4,-8,-9,-4,-4,-2,2021-08-06 13:44:05,772565
0,-1,-2,0,-2,-1,0,0,2021-08-06 13:44:05,772565
-1,-1,-1,1,3,0,2,0,2021-08-06 13:44:05,788566
-1,-1,-1,-1,-2,-1,-1,0,2021-08-06 13:44:05,788566
-1,0,0,1,-4,-3,0,-1,2021-08-06 13:44:05,804565
-1,0,-2,0,1,0,1,-2,2021-08-06 13:44:05,820072
-2,-1,-1,0,-1,-1,-2,-2,2021-08-06 13:44:05,820072
-1,-1,-4,-2,3,-1,1,0,2021-08-06 13:44:05,820072
0,-2,-1,3,3,1,0,-1,2021-08-06 13:44:05,820072
0,0,-2,-1,-4,-4,-2,0,2021-08-06 13:44:05,820072
-1,-1,-2,-3,-1,0,-1,-1,2021-08-06 13:44:05,820072
1,0,1,3,6,3,0,0,2021-08-06 13:44:05,835588
0,-1,-1,1,4,1,0,-2,2021-08-06 13:44:05,851586
-3,-3,-3,-4,-7,-3,-4,-2,2021-08-06 13:44:05,867586
2,1,-1,-2,-3,-3,-1,0,2021-08-06 13:44:05,883586
0,-1,-1,-2,-3,-3,-1,-1,2021-08-06 13:44:05,883586
1,0,1,8,7,3,1,1,2021-08-06 13:44:05,883586
-2,-1,-2,-4,-4,-2,-3,-3,2021-08-06 13:44:05,883586
-3,-2,1,-1,-1,0,0,-2,2021-08-06 13:44:05,883586
0,0,1,0,0,1,0,1,2021-08-06 13:44:05,883586
2,1,-1,-3,-3,-1,-3,-3,2021-08-06 13:44:05,883586
-1,-2,-2,-4,-6,-4,-3,-1,2021-08-06 13:44:05,884588
-2,-1,-2,-1,-4,-3,-1,-1,2021-08-06 13:44:05,884588
-1,0,-2,-3,-4,-2,-2,-2,2021-08-06 13:44:05,884588
-1,1,0,5,9,4,1,1,2021-08-06 13:44:05,899586
-2,-2,-2,-4,-5,-4,-1,-2,2021-08-06 13:44:05,914586
0,-1,-1,1,-4,-1,-1,-2,2021-08-06 13:44:05,930586
-1,1,0,1,2,2,1,1,2021-08-06 13:44:05,930586
-2,-2,-1,-6,-5,-4,-2,-2,2021-08-06 13:44:05,930586
-2,-1,-1,-1,-6,-3,-1,-2,2021-08-06 13:44:05,930586
0,-2,-1,-1,1,-1,0,0,2021-08-06 13:44:05,930586
2,3,3,7,11,6,2,2,2021-08-06 13:44:05,930586
-1,-2,-1,0,-3,-3,-3,-1,2021-08-06 13:44:05,946590
-1,0,-2,-1,-1,-2,-1,-1,2021-08-06 13:44:05,946590
-1,-1,-2,-4,-3,-1,0,0,2021-08-06 13:44:05,946590
-1,-4,-5,-4,-3,-2,0,-1,2021-08-06 13:44:05,946590
0,1,-1,0,3,3,3,2,2021-08-06 13:44:05,978586
-3,-4,-3,-4,-6,-5,-4,-4,2021-08-06 13:44:05,978586
-3,-2,-1,-1,-1,-1,-3,-3,2021-08-06 13:44:05,978586
-4,-3,1,0,0,-2,-3,-3,2021-08-06 13:44:05,978586
-1,0,1,2,6,3,1,-1,2021-08-06 13:44:05,978586
0,0,1,-1,-1,-1,1,1,2021-08-06 13:44:05,978586
0,1,2,1,3,0,0,0,2021-08-06 13:44:05,978586
-2,-3,-2,-6,-10,-5,-2,-1,2021-08-06 13:44:05,993586
-1,-2,-3,-5,-4,-3,-1,-2,2021-08-06 13:44:06,008586
0,1,-1,1,5,2,2,2,2021-08-06 13:44:06,009588
0,-2,-3,-4,-4,-3,-1,0,2021-08-06 13:44:06,009588
-1,0,-1,1,1,-1,-1,0,2021-08-06 13:44:06,010588
-1,-1,-2,-3,-5,-4,-2,-2,2021-08-06 13:44:06,040588
1,0,1,1,2,1,1,-2,2021-08-06 13:44:06,040588
-2,0,-1,0,-2,-1,-2,1,2021-08-06 13:44:06,040588
-1,-2,-3,-4,-6,-4,-2,-1,2021-08-06 13:44:06,040588
-2,-2,-1,-4,-8,-4,-2,-1,2021-08-06 13:44:06,040588
1,2,4,11,12,9,5,1,2021-08-06 13:44:06,040588
-1,0,0,3,4,2,-1,1,2021-08-06 13:44:06,040588
-1,-2,-4,-8,-11,-6,-3,-3,2021-08-06 13:44:06,040588
-2,-1,0,1,10,4,1,0,2021-08-06 13:44:06,086587
0,0,2,5,6,2,1,0,2021-08-06 13:44:06,102586
1,-2,-2,1,0,0,-1,-2,2021-08-06 13:44:06,102586
0,0,-1,5,3,1,1,-1,2021-08-06 13:44:06,102586
1,-2,-4,-5,-9,-6,-3,0,2021-08-06 13:44:06,102586
-1,-1,-3,-7,-8,-2,-2,-2,2021-08-06 13:44:06,102586
-2,-1,-1,-1,3,2,1,1,2021-08-06 13:44:06,102586
0,-1,0,1,0,1,-2,-1,2021-08-06 13:44:06,102586
-2,-1,-2,-2,-6,-4,0,-1,2021-08-06 13:44:06,103587
-2,-1,-2,-4,-1,-2,-1,-1,2021-08-06 13:44:06,103587
-1,-1,1,2,2,1,0,-1,2021-08-06 13:44:06,103587
-2,-1,0,-3,-2,0,-2,-1,2021-08-06 13:44:06,103587
1,0,-1,1,0,0,0,0,2021-08-06 13:44:06,134587
-1,-1,-2,-1,-2,-2,-2,-1,2021-08-06 13:44:06,150586
-4,-2,-3,-10,-15,-9,-4,-5,2021-08-06 13:44:06,150586
3,3,4,12,17,10,6,2,2021-08-06 13:44:06,150586
1,2,1,5,9,5,1,0,2021-08-06 13:44:06,150586
-1,-2,-1,-4,-6,-5,-3,-2,2021-08-06 13:44:06,150586
1,-2,-4,-2,-3,-4,-1,-1,2021-08-06 13:44:06,150586
1,0,0,-2,-5,-3,-2,-1,2021-08-06 13:44:06,150586
0,-2,-1,1,5,1,0,0,2021-08-06 13:44:06,166586
0,-2,0,-2,-2,-2,-3,0,2021-08-06 13:44:06,166586
-1,-2,-1,0,1,0,1,-2,2021-08-06 13:44:06,166586
-1,-2,-2,-3,-2,-3,-1,-2,2021-08-06 13:44:06,166586
-1,0,0,1,0,2,-1,0,2021-08-06 13:44:06,198094
-1,-3,-3,-5,-3,-3,-2,-1,2021-08-06 13:44:06,214096
0,-1,-1,1,3,1,0,2,2021-08-06 13:44:06,214096
-2,-1,-2,-2,-2,-3,-1,-1,2021-08-06 13:44:06,214096
-1,-2,-1,-1,-4,-2,-1,-1,2021-08-06 13:44:06,214096
-2,-1,-2,-1,-3,-2,-1,-2,2021-08-06 13:44:06,214096
-1,-1,-1,-2,0,0,-1,0,2021-08-06 13:44:06,214096
0,0,-2,-1,-1,-1,0,-1,2021-08-06 13:44:06,214096
-2,-1,-1,-2,0,0,-2,-3,2021-08-06 13:44:06,230096
-1,-1,-3,-2,-1,-2,-2,-1,2021-08-06 13:44:06,230096
-2,-2,-2,0,-2,-1,0,-3,2021-08-06 13:44:06,246095
0,-1,-1,0,1,2,-1,0,2021-08-06 13:44:06,246095
-1,1,1,3,1,0,2,1,2021-08-06 13:44:06,246095
-1,0,-1,-3,-6,-2,-1,0,2021-08-06 13:44:06,246095
3,2,3,7,15,7,3,3,2021-08-06 13:44:06,246095
-2,-2,-3,-4,-9,-6,-5,-3,2021-08-06 13:44:06,246095
-2,-3,-4,-6,-8,-5,-2,-4,2021-08-06 13:44:06,278093
0,-1,-2,3,6,2,1,0,2021-08-06 13:44:06,294094
-1,-2,0,1,-1,-2,-2,-1,2021-08-06 13:44:06,309095
-1,0,-1,-1,-1,0,-2,1,2021-08-06 13:44:06,309095
-1,-2,0,-5,-7,-3,-3,-1,2021-08-06 13:44:06,309095
-2,0,-1,-3,-6,-3,-3,-2,2021-08-06 13:44:06,309095
0,0,-2,-3,-2,0,-2,0,2021-08-06 13:44:06,309095
-1,0,1,1,6,1,0,0,2021-08-06 13:44:06,309095
-1,0,0,-2,0,-2,-1,0,2021-08-06 13:44:06,309095
-1,-1,-1,0,-1,-1,1,-1,2021-08-06 13:44:06,309095
-1,-1,0,-1,-2,0,0,0,2021-08-06 13:44:06,309095
-1,-1,-3,-2,-1,-1,0,1,2021-08-06 13:44:06,309095
-4,-3,-3,-5,-4,-1,-2,-2,2021-08-06 13:44:06,325095
2,0,0,1,1,0,0,-2,2021-08-06 13:44:06,325095
-2,-2,-2,-8,-9,-6,-4,-2,2021-08-06 13:44:06,325095
0,1,3,6,9,6,1,1,2021-08-06 13:44:06,341096
-1,-1,-4,-3,-4,-3,-2,-1,2021-08-06 13:44:06,341096
-3,-3,-3,-7,-10,-7,-6,-2,2021-08-06 13:44:06,341096
0,0,2,6,2,0,0,2,2021-08-06 13:44:06,357094
1,2,2,7,15,11,5,1,2021-08-06 13:44:06,373094
1,0,1,5,12,2,1,-1,2021-08-06 13:44:06,376094
-2,0,0,-3,-5,0,-2,0,2021-08-06 13:44:06,376094
-1,-1,0,0,5,1,-3,-3,2021-08-06 13:44:06,376094
-3,-3,-4,-11,-19,-12,-5,-3,2021-08-06 13:44:06,376094
1,-3,-2,-2,-5,-1,-2,1,2021-08-06 13:44:06,389095
-1,-2,-2,-11,-15,-10,-5,-3,2021-08-06 13:44:06,404094
1,3,0,8,14,14,9,5,2021-08-06 13:44:06,419095
0,0,1,6,11,4,0,-1,2021-08-06 13:44:06,419095
0,1,2,2,-4,0,1,0,2021-08-06 13:44:06,435093
-1,-2,-3,-4,-2,-4,-1,-3,2021-08-06 13:44:06,451096
-1,-2,0,-1,2,-1,-2,-2,2021-08-06 13:44:06,451096
1,0,-1,2,5,4,3,1,2021-08-06 13:44:06,451096
-1,0,-1,1,-3,-1,0,0,2021-08-06 13:44:06,451096
-4,-2,-4,-7,-12,-7,-4,-2,2021-08-06 13:44:06,451096
-2,-1,0,-2,-5,-5,-2,-3,2021-08-06 13:44:06,451096
-2,-2,-1,-2,-2,-1,0,-2,2021-08-06 13:44:06,451096
0,0,0,1,2,0,0,-3,2021-08-06 13:44:06,452095
1,1,1,8,10,7,4,1,2021-08-06 13:44:06,452095
-1,-2,-2,-5,-4,-3,-3,-1,2021-08-06 13:44:06,467094
-2,-2,-1,-3,-4,-4,-3,-2,2021-08-06 13:44:06,483093
-2,-2,0,-3,-5,-2,-1,-1,2021-08-06 13:44:06,483093
1,-1,0,-5,-2,-1,0,0,2021-08-06 13:44:06,483093
1,2,1,9,11,5,2,0,2021-08-06 13:44:06,483093
-2,-1,-3,-7,-11,-7,-3,-3,2021-08-06 13:44:06,483093
-3,-3,-3,-6,-9,-6,-3,-1,2021-08-06 13:44:06,483093
1,0,2,11,20,11,5,4,2021-08-06 13:44:06,483093
1,-1,-1,-6,-8,-3,-1,0,2021-08-06 13:44:06,483093
-1,-3,-2,-4,-4,-3,-2,-1,2021-08-06 13:44:06,483093
-1,0,0,5,7,2,1,-2,2021-08-06 13:44:06,514094
-1,0,-2,-2,-6,-3,-2,-2,2021-08-06 13:44:06,530095
-2,-3,-2,-6,-6,-4,-4,-3,2021-08-06 13:44:06,530095
-1,-1,-2,-3,-4,-2,-2,0,2021-08-06 13:44:06,530095
-1,0,-4,-4,-4,-2,-4,-1,2021-08-06 13:44:06,530095
2,-1,1,5,5,4,2,0,2021-08-06 13:44:06,530095
-2,-1,-2,-1,-3,-1,-2,-2,2021-08-06 13:44:06,530095
0,-1,0,1,-2,-2,0,-2,2021-08-06 13:44:06,530095
-1,-1,-2,-5,-4,-2,-2,-2,2021-08-06 13:44:06,546096
-1,-1,0,-1,0,0,0,-2,2021-08-06 13:44:06,546096
-2,-2,-1,-8,-8,-6,-1,-1,2021-08-06 13:44:06,546096
-2,0,1,4,3,2,0,-1,2021-08-06 13:44:06,546096
1,0,0,1,10,9,3,1,2021-08-06 13:44:06,594094
0,0,1,6,9,3,0,0,2021-08-06 13:44:06,609094
-2,-4,-5,-5,-8,-5,-2,-2,2021-08-06 13:44:06,609094
-2,-2,-3,-5,-8,-7,-4,-3,2021-08-06 13:44:06,609094
-3,-4,-3,-8,-16,-9,-6,-3,2021-08-06 13:44:06,609094
1,0,-1,0,10,5,1,1,2021-08-06 13:44:06,609094
1,-1,1,2,1,2,-1,-1,2021-08-06 13:44:06,609094
-3,0,-1,-3,-7,-3,-3,0,2021-08-06 13:44:06,609094
1,0,2,4,5,2,1,2,2021-08-06 13:44:06,610096
-4,-4,-6,-12,-17,-11,-7,-4,2021-08-06 13:44:06,610096
-3,0,-2,-4,-4,-1,0,0,2021-08-06 13:44:06,610096
2,2,4,14,27,12,6,2,2021-08-06 13:44:06,610096
0,-2,-1,4,2,2,0,-2,2021-08-06 13:44:06,625094
1,2,2,7,11,7,2,0,2021-08-06 13:44:06,625094
-4,-5,-7,-16,-27,-15,-8,-5,2021-08-06 13:44:06,625094
-1,-2,-1,-5,0,-1,-3,-1,2021-08-06 13:44:06,625094
2,2,6,13,24,11,5,3,2021-08-06 13:44:06,641096
-3,-2,-1,-1,-6,-6,-4,-2,2021-08-06 13:44:06,657099
-1,-1,-1,-5,-7,-2,0,-1,2021-08-06 13:44:06,657099
-2,-4,-3,-4,-2,-3,-3,-2,2021-08-06 13:44:06,657099
-1,-1,-2,-8,-10,-7,-4,-3,2021-08-06 13:44:06,673094
-1,0,0,3,3,2,0,-1,2021-08-06 13:44:06,689094
1,0,-1,-3,-5,-2,-1,0,2021-08-06 13:44:06,705095
-2,-2,-2,-4,-8,-3,-2,-1,2021-08-06 13:44:06,705095
0,-1,-1,0,3,0,1,2,2021-08-06 13:44:06,705095
-2,-3,-5,-6,-13,-4,-3,-1,2021-08-06 13:44:06,705095
1,2,3,8,18,8,1,2,2021-08-06 13:44:06,705095
-1,1,2,6,7,8,3,1,2021-08-06 13:44:06,705095
-2,1,-1,4,4,2,2,0,2021-08-06 13:44:06,705095
-2,-2,-2,-8,-15,-9,-5,-3,2021-08-06 13:44:06,706095
0,-3,0,-2,2,0,-1,-1,2021-08-06 13:44:06,706095
3,1,2,6,9,6,3,1,2021-08-06 13:44:06,706095
-2,0,-2,-3,-10,-5,-4,-3,2021-08-06 13:44:06,735094
0,-2,0,-1,3,2,0,0,2021-08-06 13:44:06,739094
1,0,1,3,9,4,1,0,2021-08-06 13:44:06,739094
-2,-3,-1,-5,-6,-4,-1,-2,2021-08-06 13:44:06,739094
-1,-2,-3,-4,0,0,-1,0,2021-08-06 13:44:06,750094
0,-1,0,-4,-5,-3,0,-1,2021-08-06 13:44:06,750094
-1,1,3,7,11,4,0,-1,2021-08-06 13:44:06,750094
-1,-2,-4,-8,-11,-7,-4,-2,2021-08-06 13:44:06,750094
-3,-1,-1,-2,-4,-3,-2,-1,2021-08-06 13:44:06,766120
-3,0,-2,1,2,0,0,-1,2021-08-06 13:44:06,766120
0,0,1,5,3,4,1,-1,2021-08-06 13:44:06,766120
0,0,-2,-2,-8,-4,0,-1,2021-08-06 13:44:06,766120
-1,-1,0,1,-1,-2,-2,-1,2021-08-06 13:44:06,798094
1,1,1,5,5,2,1,0,2021-08-06 13:44:06,798094
-4,-5,-5,-13,-19,-15,-8,-2,2021-08-06 13:44:06,798094
3,1,5,12,17,12,7,3,2021-08-06 13:44:06,798094
0,-1,-1,2,3,3,2,0,2021-08-06 13:44:06,814094
0,-1,-1,1,4,3,2,1,2021-08-06 13:44:06,814094
-1,-2,0,0,-1,2,2,-2,2021-08-06 13:44:06,814094
-4,-2,-2,-11,-16,-10,-5,-4,2021-08-06 13:44:06,814094
-3,-3,-4,-11,-14,-10,-4,-2,2021-08-06 13:44:06,814094
3,4,7,10,16,11,3,3,2021-08-06 13:44:06,814094
0,1,1,10,17,8,2,1,2021-08-06 13:44:06,829094
-1,-1,-3,-5,-7,-5,-3,-2,2021-08-06 13:44:06,829094
0,-1,0,-3,-4,-3,0,-2,2021-08-06 13:44:06,844094
-3,-3,-4,-12,-21,-13,-6,-2,2021-08-06 13:44:06,844094
-1,0,-2,-1,-2,-1,0,0,2021-08-06 13:44:06,844094
-1,-2,-1,-2,-1,-2,-2,1,2021-08-06 13:44:06,844094
-3,-1,-2,-2,-1,-2,-2,-1,2021-08-06 13:44:06,876095
-1,-1,-1,1,2,1,1,0,2021-08-06 13:44:06,876095
-1,0,-1,1,-1,1,-1,0,2021-08-06 13:44:06,876095
-2,-2,0,2,2,-1,-1,1,2021-08-06 13:44:06,876095
-1,-1,0,-2,-3,-1,-1,-2,2021-08-06 13:44:06,876095
-1,0,1,2,4,0,1,-1,2021-08-06 13:44:06,876095
-1,-3,-2,-3,-9,-4,-2,-1,2021-08-06 13:44:06,892094
-2,0,-3,-5,-3,-2,-2,0,2021-08-06 13:44:06,892094
1,2,2,7,10,6,2,1,2021-08-06 13:44:06,908095
-1,0,-2,1,4,2,1,1,2021-08-06 13:44:06,908095
1,1,-1,-3,-4,-4,-2,-1,2021-08-06 13:44:06,908095
-1,0,-3,-4,-7,-4,-2,-2,2021-08-06 13:44:06,908095
-1,-1,-1,-3,-2,-3,-2,-1,2021-08-06 13:44:06,939094
1,2,2,3,7,4,4,1,2021-08-06 13:44:06,939094
-3,-2,-4,-4,-10,-7,-3,-4,2021-08-06 13:44:06,939094
1,1,0,1,2,2,1,1,2021-08-06 13:44:06,939094
0,0,0,2,2,0,-1,-1,2021-08-06 13:44:06,954095
-2,-2,-1,-3,-2,-3,-3,-4,2021-08-06 13:44:06,954095
-1,0,2,3,5,0,-1,1,2021-08-06 13:44:06,954095
0,-1,-1,3,4,0,0,1,2021-08-06 13:44:06,954095
-1,-3,-3,-3,-3,-2,-3,0,2021-08-06 13:44:06,970093
-2,-3,-2,-4,-8,-4,-3,-2,2021-08-06 13:44:06,970093
-1,-1,-2,-3,-1,-1,0,0,2021-08-06 13:44:06,970093
-2,-3,0,-4,-6,-3,-4,-2,2021-08-06 13:44:06,970093
0,-1,1,3,4,0,0,-1,2021-08-06 13:44:06,986093
0,0,-2,-1,-2,-1,0,-1,2021-08-06 13:44:07,002095
1,1,-1,1,2,1,0,0,2021-08-06 13:44:07,002095
-1,-3,-1,-2,-3,-3,-1,0,2021-08-06 13:44:07,002095
-2,-1,-3,-2,-3,-1,1,0,2021-08-06 13:44:07,018094
-1,-1,-2,-3,-7,-4,-2,-1,2021-08-06 13:44:07,034094
-3,-2,-2,-1,-2,1,1,-1,2021-08-06 13:44:07,050093
-2,0,-1,2,3,2,2,-1,2021-08-06 13:44:07,050093
1,-2,-2,-5,-5,-2,-1,0,2021-08-06 13:44:07,050093
1,-1,2,5,7,4,1,1,2021-08-06 13:44:07,050093
-1,-1,-1,2,6,1,0,0,2021-08-06 13:44:07,050093
-1,-1,-2,-2,-3,-2,-1,-3,2021-08-06 13:44:07,050093
1,0,0,-2,-3,-1,0,0,2021-08-06 13:44:07,050093
-1,-3,-3,-5,-8,-7,-4,-2,2021-08-06 13:44:07,050093
-1,-1,0,-2,1,-1,-1,0,2021-08-06 13:44:07,066094
-1,-3,-2,-4,-4,-2,-1,-2,2021-08-06 13:44:07,066094
-2,-1,-2,-1,-3,-2,-1,0,2021-08-06 13:44:07,066094
0,1,-1,2,6,2,0,-1,2021-08-06 13:44:07,066094
0,0,-1,1,-3,-1,1,1,2021-08-06 13:44:07,066094
-1,1,0,1,3,-1,-1,-2,2021-08-06 13:44:07,066094
0,0,0,2,0,0,0,0,2021-08-06 13:44:07,097095
-4,-4,-6,-11,-19,-10,-7,-3,2021-08-06 13:44:07,103095
5,4,10,20,37,22,9,5,2021-08-06 13:44:07,104096
-1,-1,-3,-7,-10,-4,-3,-4,2021-08-06 13:44:07,104096
-1,-2,1,4,6,2,0,-1,2021-08-06 13:44:07,104096
-2,-2,-1,-3,-4,-3,-1,-2,2021-08-06 13:44:07,104096
-3,-4,-5,-11,-16,-8,-4,-4,2021-08-06 13:44:07,104096
0,0,0,-1,0,-2,0,0,2021-08-06 13:44:07,104096
0,-2,-2,-2,-2,-3,-2,0,2021-08-06 13:44:07,129094
0,-1,0,1,0,0,0,0,2021-08-06 13:44:07,129094
0,-1,-2,-3,0,0,-1,0,2021-08-06 13:44:07,129094
1,1,1,8,8,4,1,2,2021-08-06 13:44:07,129094
1,-1,-2,-3,-3,-1,0,-2,2021-08-06 13:44:07,145096
-1,-2,-1,-3,-2,-2,-3,0,2021-08-06 13:44:07,160095
-2,-1,-2,-5,-8,-4,-3,-2,2021-08-06 13:44:07,160095
-1,-1,-2,-2,0,-3,-2,1,2021-08-06 13:44:07,160095
-4,-2,-2,-5,-13,-6,-3,-1,2021-08-06 13:44:07,175095
-2,-3,-3,-4,-2,-1,-2,-2,2021-08-06 13:44:07,191094
3,2,5,10,14,5,4,1,2021-08-06 13:44:07,207094
1,0,-1,1,2,3,1,0,2021-08-06 13:44:07,207094
-1,-1,0,1,4,2,2,-1,2021-08-06 13:44:07,207094
0,1,-2,-2,-5,-3,-1,-1,2021-08-06 13:44:07,207094
-4,-4,-3,-6,-12,-8,-5,-4,2021-08-06 13:44:07,207094
-2,-4,-4,-4,-6,-2,-1,-2,2021-08-06 13:44:07,207094
1,1,1,0,3,1,2,0,2021-08-06 13:44:07,207094
-1,1,2,2,5,2,0,0,2021-08-06 13:44:07,208097
-3,-1,-3,-6,-10,-5,-4,-2,2021-08-06 13:44:07,208097
0,1,1,2,6,5,2,1,2021-08-06 13:44:07,208097
-2,-2,-1,-3,-2,-2,-2,-1,2021-08-06 13:44:07,238094
1,-2,1,4,7,4,1,-1,2021-08-06 13:44:07,238094
-1,-3,-2,-3,-6,-4,-2,-1,2021-08-06 13:44:07,238094
-1,-1,-2,-4,-3,-3,-2,-1,2021-08-06 13:44:07,238094
-2,-1,-4,-3,-5,-3,-2,-2,2021-08-06 13:44:07,253093
1,1,0,5,10,6,3,1,2021-08-06 13:44:07,253093
0,-1,-2,-3,-7,-3,-2,-2,2021-08-06 13:44:07,253093
-2,-2,-2,0,0,-1,-2,-1,2021-08-06 13:44:07,253093
-1,-1,-2,-3,-5,-3,-2,-2,2021-08-06 13:44:07,269094
-1,-2,0,-2,0,-1,-1,0,2021-08-06 13:44:07,285094
-5,-4,-6,-10,-12,-8,-4,-4,2021-08-06 13:44:07,301097
4,4,4,6,7,7,5,3,2021-08-06 13:44:07,301097
1,2,1,7,11,4,1,0,2021-08-06 13:44:07,301097
-1,0,-1,-1,-5,-3,-3,0,2021-08-06 13:44:07,301097
-1,-1,-1,0,2,1,-1,1,2021-08-06 13:44:07,301097
-4,-3,-3,-7,-12,-8,-5,-3,2021-08-06 13:44:07,301097
-2,-1,-2,0,-3,-2,-1,-2,2021-08-06 13:44:07,317094
1,0,1,3,7,5,3,1,2021-08-06 13:44:07,333093
0,-1,-3,-4,-5,-5,-2,-3,2021-08-06 13:44:07,333093
-4,-1,-3,-7,-8,-4,-4,-2,2021-08-06 13:44:07,333093
3,2,4,9,16,9,3,2,2021-08-06 13:44:07,333093
-4,-3,-2,-1,-3,-3,-2,-3,2021-08-06 13:44:07,333093
1,1,0,1,2,1,2,-1,2021-08-06 13:44:07,333093
-2,-1,0,-1,0,-1,-1,-1,2021-08-06 13:44:07,333093
-2,-1,0,-3,-3,-1,0,-1,2021-08-06 13:44:07,349095
-1,0,-1,-4,-5,-2,-3,-1,2021-08-06 13:44:07,349095
-3,2,1,2,3,0,2,1,2021-08-06 13:44:07,349095
-2,-3,-3,-2,-3,-3,-3,-2,2021-08-06 13:44:07,349095
-2,-3,-5,-10,-13,-7,-5,-4,2021-08-06 13:44:07,381096
0,2,3,8,15,6,2,0,2021-08-06 13:44:07,381096
-1,-1,-1,0,-1,2,-1,0,2021-08-06 13:44:07,381096
3,-1,0,3,4,1,1,1,2021-08-06 13:44:07,381096
-1,0,-1,-2,-3,-3,-2,2,2021-08-06 13:44:07,381096
-2,-2,-5,-9,-13,-6,-4,-3,2021-08-06 13:44:07,381096
0,-2,-1,2,2,0,-1,-2,2021-08-06 13:44:07,413094
-1,1,1,5,7,3,2,1,2021-08-06 13:44:07,429094
-1,-2,-1,-2,-7,-2,-2,-1,2021-08-06 13:44:07,445095
0,0,-1,-1,-2,0,1,-1,2021-08-06 13:44:07,445095
0,0,-1,2,0,1,-2,-1,2021-08-06 13:44:07,445095
-1,-2,-2,-3,-6,-4,-2,-2,2021-08-06 13:44:07,445095
-1,-1,1,4,7,2,0,0,2021-08-06 13:44:07,445095
-1,-1,-1,-1,-1,1,-1,-2,2021-08-06 13:44:07,445095
0,0,-2,-3,-3,-2,0,0,2021-08-06 13:44:07,445095
-1,-2,-1,0,3,1,-1,-1,2021-08-06 13:44:07,445095
0,-1,-1,-2,-2,-1,-1,1,2021-08-06 13:44:07,445095
0,-2,-2,1,2,-1,-1,-1,2021-08-06 13:44:07,446096
-2,-1,0,-2,-3,-3,-2,0,2021-08-06 13:44:07,446096
-1,1,1,1,5,2,-1,1,2021-08-06 13:44:07,446096
-2,-2,-1,4,2,-1,-2,-2,2021-08-06 13:44:07,473095
0,-2,-1,-5,-10,-4,-1,0,2021-08-06 13:44:07,473095
2,-1,2,9,18,10,5,1,2021-08-06 13:44:07,473095
-2,-2,-3,-5,-9,-7,-3,-2,2021-08-06 13:44:07,473095
-1,-1,2,0,5,3,0,-1,2021-08-06 13:44:07,493095
-1,1,-1,0,-3,-3,-1,-1,2021-08-06 13:44:07,509094
-1,0,-4,-7,-11,-8,-3,-3,2021-08-06 13:44:07,509094
-3,-2,-4,-3,-7,-3,-2,-1,2021-08-06 13:44:07,509094
0,0,0,2,11,3,1,0,2021-08-06 13:44:07,525094
0,1,0,4,11,5,0,1,2021-08-06 13:44:07,525094
-1,0,0,0,-1,4,0,1,2021-08-06 13:44:07,525094
-1,-1,-2,-4,-4,-4,-3,-1,2021-08-06 13:44:07,525094
-1,-1,-3,-5,-10,-4,-2,-3,2021-08-06 13:44:07,525094
-3,-2,-1,-2,-6,-5,0,-3,2021-08-06 13:44:07,525094
1,0,2,4,8,5,3,2,2021-08-06 13:44:07,525094
0,0,1,-1,0,0,0,0,2021-08-06 13:44:07,526095
-2,-1,-3,-4,-4,-1,-2,0,2021-08-06 13:44:07,557096
0,-1,2,7,12,3,0,0,2021-08-06 13:44:07,573094
-1,-2,-2,-2,-6,-1,-1,-1,2021-08-06 13:44:07,573094
-2,-1,0,-2,-4,-5,-1,-2,2021-08-06 13:44:07,573094
-2,0,0,-2,-8,-3,-4,0,2021-08-06 13:44:07,573094
-1,-2,-2,-7,-5,-4,-2,-1,2021-08-06 13:44:07,573094
-2,-3,-1,-1,-3,-2,-2,-1,2021-08-06 13:44:07,573094
2,2,3,6,11,5,1,2,2021-08-06 13:44:07,573094
1,-1,-1,0,-2,1,0,-2,2021-08-06 13:44:07,605094
0,-2,-3,-2,-5,-3,-3,-1,2021-08-06 13:44:07,621093
-1,-3,-2,-4,-1,-2,-2,-2,2021-08-06 13:44:07,653095
0,-1,-3,-3,-1,0,-2,-1,2021-08-06 13:44:07,669093
0,0,-1,1,1,0,0,-2,2021-08-06 13:44:07,685094
0,0,0,-1,-2,-2,0,0,2021-08-06 13:44:07,701096
-2,1,0,-2,-5,-4,-3,-2,2021-08-06 13:44:07,717094
-1,-1,0,-1,0,1,-1,-1,2021-08-06 13:44:07,717094
0,-3,-1,-4,-3,-2,-2,-2,2021-08-06 13:44:07,717094
-2,-1,-1,1,4,2,-2,-1,2021-08-06 13:44:07,717094
0,-2,-1,-2,1,0,0,0,2021-08-06 13:44:07,717094
2,-1,0,8,8,4,3,1,2021-08-06 13:44:07,717094
-2,-2,-3,-3,-5,-3,-1,-1,2021-08-06 13:44:07,717094
0,1,2,3,6,5,3,1,2021-08-06 13:44:07,718094
0,-1,-2,0,-2,-3,-3,-1,2021-08-06 13:44:07,718094
0,-2,-3,-5,-3,-3,-1,-2,2021-08-06 13:44:07,718094
-2,-2,-1,-5,-2,-3,-2,-1,2021-08-06 13:44:07,718094
-1,-3,-4,-4,-5,-3,-2,0,2021-08-06 13:44:07,718094
0,1,3,6,8,5,2,1,2021-08-06 13:44:07,718094
-1,-1,0,3,6,4,1,0,2021-08-06 13:44:07,718094
-2,-1,-2,0,-1,1,-2,-1,2021-08-06 13:44:07,718094
-2,-2,-3,1,-5,-3,-1,-1,2021-08-06 13:44:07,719096
-1,-2,-2,-7,-8,-4,-2,-1,2021-08-06 13:44:07,719096
-1,-1,0,-3,-5,-2,-1,-2,2021-08-06 13:44:07,719096
-1,-2,-5,-6,-5,-7,-3,-1,2021-08-06 13:44:07,719096
2,3,3,5,6,5,1,1,2021-08-06 13:44:07,719096
-2,-2,-4,-5,-4,-3,-3,-3,2021-08-06 13:44:07,719096
0,0,1,3,5,1,1,0,2021-08-06 13:44:07,719096
-2,-3,-3,-2,-2,-1,1,0,2021-08-06 13:44:07,733094
-2,-2,-4,-5,-7,-6,-2,-2,2021-08-06 13:44:07,733094
0,-2,-1,-2,-2,-2,0,-1,2021-08-06 13:44:07,733094
-3,-2,1,-3,-4,-2,-1,-2,2021-08-06 13:44:07,733094
-2,-2,1,1,-2,-3,-3,-1,2021-08-06 13:44:07,765093
-1,1,-1,-1,-2,-2,-1,-2,2021-08-06 13:44:07,780094
0,1,0,3,-1,-1,0,-1,2021-08-06 13:44:07,780094
-1,-1,-4,-5,-10,-7,-3,-4,2021-08-06 13:44:07,780094
0,2,-1,0,2,1,0,0,2021-08-06 13:44:07,780094
-2,-1,0,-2,-5,-3,0,0,2021-08-06 13:44:07,780094
1,2,3,5,9,5,2,3,2021-08-06 13:44:07,780094
-2,-1,-4,-5,-6,-3,-4,-1,2021-08-06 13:44:07,780094
0,-1,-2,-4,-4,-4,-2,0,2021-08-06 13:44:07,796096
0,-1,0,5,14,9,2,1,2021-08-06 13:44:07,796096
-1,-1,-3,-4,-7,-5,-1,-2,2021-08-06 13:44:07,796096
-3,0,-2,4,9,4,0,0,2021-08-06 13:44:07,796096
-1,-1,1,0,-2,-1,-3,-1,2021-08-06 13:44:07,812094
-4,-3,-3,-9,-15,-8,-4,-4,2021-08-06 13:44:07,812094
0,-2,0,5,13,6,-1,1,2021-08-06 13:44:07,812094
0,-1,1,1,2,1,0,1,2021-08-06 13:44:07,812094
0,1,-1,-2,-2,0,2,-1,2021-08-06 13:44:07,828096
-1,0,0,1,1,2,1,0,2021-08-06 13:44:07,828096
-1,-2,0,-3,-5,-2,-1,-1,2021-08-06 13:44:07,828096
-2,0,-2,-5,-7,-5,-2,-1,2021-08-06 13:44:07,828096
-1,-1,0,2,4,1,0,-1,2021-08-06 13:44:07,860095
-2,-3,-4,-2,-5,-3,-2,-1,2021-08-06 13:44:07,876094
-1,-1,-3,-10,-12,-6,-3,-2,2021-08-06 13:44:07,892095
0,1,2,6,9,7,3,1,2021-08-06 13:44:07,892095
1,0,2,2,2,0,0,1,2021-08-06 13:44:07,892095
1,-1,0,2,2,0,-2,0,2021-08-06 13:44:07,892095
0,-4,0,1,0,-1,-1,-3,2021-08-06 13:44:07,892095
0,0,-2,-7,-8,-4,-1,0,2021-08-06 13:44:07,892095
2,2,3,4,8,5,1,0,2021-08-06 13:44:07,893095
-2,-1,-2,-5,-6,-3,-3,-2,2021-08-06 13:44:07,893095
-3,-1,-2,-3,-7,-3,-1,-1,2021-08-06 13:44:07,893095
-3,-4,-4,-6,-11,-9,-3,-4,2021-08-06 13:44:07,893095
-1,-1,1,1,5,5,3,2,2021-08-06 13:44:07,922094
1,1,4,11,19,10,4,0,2021-08-06 13:44:07,937095
0,-2,-2,-2,-2,-2,-1,-1,2021-08-06 13:44:07,953093
-1,0,1,0,-3,-3,-3,-1,2021-08-06 13:44:07,953093
-2,-1,-3,-3,-5,-4,-2,-2,2021-08-06 13:44:07,953093
-1,-2,0,-7,-8,-4,-2,-1,2021-08-06 13:44:07,953093
-2,0,-2,-1,1,-1,-1,0,2021-08-06 13:44:07,953093
0,-2,-2,-1,-5,-2,-1,-2,2021-08-06 13:44:07,953093
-1,0,0,2,3,4,1,1,2021-08-06 13:44:07,953093
-1,0,-2,1,0,-2,-1,-1,2021-08-06 13:44:07,954095
0,2,0,3,6,3,2,1,2021-08-06 13:44:07,954095
-3,-3,-4,-10,-10,-6,-4,-2,2021-08-06 13:44:07,954095
0,0,0,4,8,3,1,-2,2021-08-06 13:44:07,969093
-1,-2,-2,-7,-12,-9,-5,-2,2021-08-06 13:44:07,985094
1,-1,1,1,2,2,1,1,2021-08-06 13:44:08,001096
1,1,-1,1,-1,1,0,0,2021-08-06 13:44:08,001096
-1,-1,0,1,-1,0,-1,0,2021-08-06 13:44:08,001096
0,-1,1,2,6,0,-1,-2,2021-08-06 13:44:08,001096
-2,-2,-1,-3,-6,-4,-3,-3,2021-08-06 13:44:08,001096
0,0,0,1,4,4,1,1,2021-08-06 13:44:08,001096
1,0,-3,-1,-3,-3,-2,0,2021-08-06 13:44:08,001096
-3,-3,-4,-8,-15,-6,-4,-1,2021-08-06 13:44:08,002096
-1,1,1,4,12,5,3,1,2021-08-06 13:44:08,017094
-3,-1,0,1,0,-1,0,0,2021-08-06 13:44:08,049094
-2,-3,-1,1,1,0,-1,-2,2021-08-06 13:44:08,049094
-1,0,-2,0,-3,-2,-2,0,2021-08-06 13:44:08,049094
-2,1,-1,-3,0,0,-2,-3,2021-08-06 13:44:08,049094
1,0,0,-1,-1,-2,0,-1,2021-08-06 13:44:08,049094
-3,-3,1,-1,0,-2,-1,0,2021-08-06 13:44:08,049094
-2,-2,-2,-3,-9,-1,-1,-1,2021-08-06 13:44:08,049094
2,1,0,-1,1,2,1,0,2021-08-06 13:44:08,050096
1,0,0,-1,0,2,1,0,2021-08-06 13:44:08,065093
0,1,-3,-7,-11,-6,-4,-1,2021-08-06 13:44:08,081093
1,0,0,-4,-5,-3,0,-1,2021-08-06 13:44:08,097094
-2,-1,-4,-1,-4,-3,-2,-2,2021-08-06 13:44:08,097094
0,0,0,5,4,3,2,2,2021-08-06 13:44:08,097094
0,1,0,4,7,4,2,-1,2021-08-06 13:44:08,097094
-1,-1,-3,-5,-3,-2,-1,-2,2021-08-06 13:44:08,097094
-1,-3,-3,-3,-9,-6,-4,-2,2021-08-06 13:44:08,097094
-1,-1,-1,-2,1,-2,-2,-1,2021-08-06 13:44:08,097094
-1,-1,-1,0,-4,-2,0,0,2021-08-06 13:44:08,112094
1,-1,-4,-2,3,-1,0,-1,2021-08-06 13:44:08,127094
-2,1,0,0,-8,-4,-2,-2,2021-08-06 13:44:08,142094
-1,-1,1,4,14,4,0,-1,2021-08-06 13:44:08,157095
0,-2,-2,-6,-10,-5,-3,-2,2021-08-06 13:44:08,173120
-1,-1,1,2,5,3,0,-1,2021-08-06 13:44:08,189119
-1,-1,0,0,-2,-1,-1,1,2021-08-06 13:44:08,204119
-1,0,-2,-3,-5,-4,-3,-2,2021-08-06 13:44:08,204119
-2,0,-1,-3,-1,0,0,-2,2021-08-06 13:44:08,205120
-3,-2,-1,-3,-6,-3,-1,0,2021-08-06 13:44:08,205120
0,-2,1,1,3,0,-1,-2,2021-08-06 13:44:08,205120
3,3,2,8,6,6,2,2,2021-08-06 13:44:08,205120
-2,-3,-2,1,0,-1,-1,-1,2021-08-06 13:44:08,205120
1,0,1,5,11,5,2,0,2021-08-06 13:44:08,205120
-2,-2,-4,-6,-7,-5,-3,0,2021-08-06 13:44:08,205120
-2,-3,-2,0,-2,0,-2,-3,2021-08-06 13:44:08,206122
-1,-3,-2,-8,-12,-7,-1,0,2021-08-06 13:44:08,206122
1,2,3,10,16,10,3,0,2021-08-06 13:44:08,206122
0,-2,-3,-2,-1,0,-2,-2,2021-08-06 13:44:08,206122
-3,-3,-3,-2,-4,-2,-1,-3,2021-08-06 13:44:08,206122
0,2,3,-1,-5,-2,-2,0,2021-08-06 13:44:08,206122
-1,-2,-1,-3,-9,-4,-2,-3,2021-08-06 13:44:08,206122
-1,0,1,0,6,2,3,0,2021-08-06 13:44:08,220119
-1,-1,0,-3,0,-2,0,0,2021-08-06 13:44:08,235119
-2,-1,-3,-3,-3,-1,-3,-2,2021-08-06 13:44:08,235119
-2,-3,-3,-9,-11,-7,-4,-2,2021-08-06 13:44:08,235119
2,3,4,11,24,13,4,1,2021-08-06 13:44:08,235119
-2,-2,-1,-1,0,-1,1,-1,2021-08-06 13:44:08,235119
-3,-2,-2,1,4,2,-1,-1,2021-08-06 13:44:08,251119
-2,0,-1,-3,-6,-4,-2,-3,2021-08-06 13:44:08,267119
-4,-4,-4,-7,-15,-10,-5,-4,2021-08-06 13:44:08,313119
1,0,1,1,6,5,2,2,2021-08-06 13:44:08,313119
2,-1,1,4,7,2,2,-2,2021-08-06 13:44:08,313119
-2,-2,-4,-8,-14,-8,-4,-2,2021-08-06 13:44:08,313119
0,0,1,10,12,3,1,0,2021-08-06 13:44:08,313119
-1,-1,0,0,1,0,-1,0,2021-08-06 13:44:08,313119
-1,-1,-1,-2,-3,-2,-2,-1,2021-08-06 13:44:08,313119
-2,-3,-3,-3,-6,-2,0,-1,2021-08-06 13:44:08,313119
-1,-2,-1,-2,-2,0,1,0,2021-08-06 13:44:08,313119
-1,-3,-3,-6,-9,-7,-3,-3,2021-08-06 13:44:08,313119
-1,-1,-2,-1,-5,0,0,-1,2021-08-06 13:44:08,314121
0,1,2,8,12,5,1,0,2021-08-06 13:44:08,314121
-1,-2,-1,-6,-7,-3,-2,0,2021-08-06 13:44:08,314121
-1,-1,-1,3,1,2,0,0,2021-08-06 13:44:08,314121
-1,-1,-2,-5,-6,-5,-2,-3,2021-08-06 13:44:08,329119
0,0,2,2,4,1,0,1,2021-08-06 13:44:08,329119
0,0,-2,-5,-6,-1,-1,-2,2021-08-06 13:44:08,329119
0,0,-1,-4,-6,-4,-2,-2,2021-08-06 13:44:08,329119
-3,-2,-1,1,3,0,0,-1,2021-08-06 13:44:08,360123
0,-1,-1,-3,-3,-2,-1,-1,2021-08-06 13:44:08,360123
1,-1,0,7,11,6,1,-2,2021-08-06 13:44:08,360123
0,-2,-1,-2,-4,-2,-1,-3,2021-08-06 13:44:08,360123
0,1,0,1,1,3,2,2,2021-08-06 13:44:08,360123
-2,-2,-3,-2,-3,0,0,0,2021-08-06 13:44:08,360123
0,0,2,6,9,2,0,0,2021-08-06 13:44:08,376120
-2,-2,-1,-3,-6,-3,-2,-3,2021-08-06 13:44:08,391692
-2,-1,-1,-2,-3,-3,-2,-1,2021-08-06 13:44:08,391692
0,0,-1,0,1,1,1,0,2021-08-06 13:44:08,391692
-3,-1,-2,-9,-12,-6,-5,-2,2021-08-06 13:44:08,391692
0,-1,0,2,1,2,0,1,2021-08-06 13:44:08,391692
1,1,1,2,6,2,-1,0,2021-08-06 13:44:08,423632
0,0,0,0,1,-3,-1,-2,2021-08-06 13:44:08,423632
-1,-2,-3,-4,-9,-4,-1,1,2021-08-06 13:44:08,423632
-3,-1,0,-3,-4,-1,-2,-1,2021-08-06 13:44:08,423632
0,0,0,0,2,1,0,1,2021-08-06 13:44:08,439632
-1,-1,-1,0,2,1,-1,0,2021-08-06 13:44:08,454631
1,0,1,-1,-5,-1,0,-1,2021-08-06 13:44:08,469632
-2,0,-2,-1,1,0,1,-1,2021-08-06 13:44:08,469632
-2,1,0,-1,-1,-1,-1,-3,2021-08-06 13:44:08,469632
1,-1,1,3,5,4,0,-1,2021-08-06 13:44:08,469632
-1,-2,2,0,0,0,-1,0,2021-08-06 13:44:08,469632
-1,-2,1,-1,1,0,0,0,2021-08-06 13:44:08,469632
0,0,0,-2,0,0,-1,-2,2021-08-06 13:44:08,469632
-1,0,-1,-5,-6,-3,-2,-2,2021-08-06 13:44:08,470632
-4,-2,-1,-3,-7,-4,-3,-3,2021-08-06 13:44:08,485633
1,0,-1,-3,-2,-2,-1,-1,2021-08-06 13:44:08,485633
-1,-1,-1,-1,-5,-4,0,1,2021-08-06 13:44:08,501632
-1,0,1,4,12,5,2,0,2021-08-06 13:44:08,517631
-1,-1,-2,-3,-5,0,-1,0,2021-08-06 13:44:08,533631
-3,-3,-2,-3,-3,-2,-1,-3,2021-08-06 13:44:08,533631
-3,-3,-1,2,1,0,-3,-2,2021-08-06 13:44:08,533631
0,0,0,0,-4,-4,-2,-1,2021-08-06 13:44:08,533631
-3,-2,0,3,1,1,0,-2,2021-08-06 13:44:08,533631
-1,0,-3,-3,-9,-5,-2,0,2021-08-06 13:44:08,533631
-1,-1,-1,-2,1,0,2,0,2021-08-06 13:44:08,533631
0,1,0,5,9,4,2,1,2021-08-06 13:44:08,534633
-1,-2,-3,-4,-2,-5,-1,-4,2021-08-06 13:44:08,534633
0,0,-2,-3,-5,-4,-3,0,2021-08-06 13:44:08,534633
1,1,0,-1,1,0,-1,0,2021-08-06 13:44:08,565631
0,0,-1,1,6,5,2,1,2021-08-06 13:44:08,568631
0,1,-1,0,-1,-1,1,-1,2021-08-06 13:44:08,568631
-1,-1,-1,-1,1,-2,0,-2,2021-08-06 13:44:08,569632
-2,-2,-2,-7,-7,-6,-3,-2,2021-08-06 13:44:08,581632
0,1,0,4,3,2,0,-1,2021-08-06 13:44:08,581632
-2,-3,-1,-1,-1,-1,1,0,2021-08-06 13:44:08,581632
2,0,1,1,0,2,0,1,2021-08-06 13:44:08,581632
1,1,3,4,10,4,1,0,2021-08-06 13:44:08,597631
-3,-1,-2,-5,-9,-8,-4,-3,2021-08-06 13:44:08,597631
-1,-2,-1,-1,0,1,0,-3,2021-08-06 13:44:08,597631
0,0,0,4,6,3,2,1,2021-08-06 13:44:08,597631
-3,-2,-3,-6,-10,-6,-3,-2,2021-08-06 13:44:08,613633
1,-1,-2,-3,-3,-3,-1,0,2021-08-06 13:44:08,613633
1,1,2,3,4,1,-1,1,2021-08-06 13:44:08,613633
-3,-3,-4,-5,0,0,-1,-1,2021-08-06 13:44:08,613633
2,3,5,14,23,14,5,1,2021-08-06 13:44:08,629633
-1,-3,-4,-6,-12,-8,-5,-2,2021-08-06 13:44:08,629633
0,0,-1,-3,-2,-2,-1,1,2021-08-06 13:44:08,629633
0,-2,-3,-5,-9,-7,-2,-3,2021-08-06 13:44:08,629633
-2,-2,-1,-2,-5,-2,0,-2,2021-08-06 13:44:08,659633
0,1,-2,-3,-5,-2,-1,0,2021-08-06 13:44:08,659633
-2,-1,-2,-3,-3,-3,-4,-1,2021-08-06 13:44:08,659633
-3,0,-3,-7,-11,-8,-5,-2,2021-08-06 13:44:08,659633
4,3,4,10,16,12,7,4,2021-08-06 13:44:08,659633
1,-1,1,3,2,3,0,0,2021-08-06 13:44:08,659633
-1,-1,-1,-3,-4,0,-1,1,2021-08-06 13:44:08,675632
0,-2,0,0,5,0,0,0,2021-08-06 13:44:08,690633
-4,-5,-8,-18,-29,-18,-7,-6,2021-08-06 13:44:08,706632
-5,-3,2,10,17,7,0,-3,2021-08-06 13:44:08,706632
-1,0,-1,4,3,1,-1,-3,2021-08-06 13:44:08,706632
-3,-1,1,3,2,3,0,-1,2021-08-06 13:44:08,706632
-2,-1,-1,-5,-11,-8,-5,-4,2021-08-06 13:44:08,706632
-3,-1,-3,-12,-19,-9,-4,-3,2021-08-06 13:44:08,706632
2,4,4,10,24,9,3,2,2021-08-06 13:44:08,706632
1,1,0,-1,-8,-2,0,0,2021-08-06 13:44:08,707632
-1,-2,-2,3,8,3,-1,-1,2021-08-06 13:44:08,721631
-3,-6,-4,-5,-8,-3,-2,-3,2021-08-06 13:44:08,721631
0,3,1,2,1,2,2,0,2021-08-06 13:44:08,736631
1,1,2,4,12,5,2,0,2021-08-06 13:44:08,736631
0,0,2,1,-3,-2,-1,0,2021-08-06 13:44:08,752631
-1,-1,-2,-2,-3,-3,-2,-1,2021-08-06 13:44:08,752631
-3,-3,-4,-10,-13,-8,-4,-2,2021-08-06 13:44:08,752631
0,1,2,4,8,5,2,2,2021-08-06 13:44:08,752631
-1,-1,-3,-4,-6,-2,-1,-1,2021-08-06 13:44:08,784631
1,1,3,4,9,3,1,0,2021-08-06 13:44:08,800631
0,-4,-3,-5,-7,-3,-3,-1,2021-08-06 13:44:08,800631
-1,1,0,-1,-3,-2,0,-1,2021-08-06 13:44:08,800631
0,1,0,2,6,5,2,1,2021-08-06 13:44:08,816631
1,-1,0,-5,-7,-3,-1,1,2021-08-06 13:44:08,832631
-1,0,-1,-2,-8,-4,-2,-3,2021-08-06 13:44:08,847631
-2,-2,-2,-2,0,0,0,-2,2021-08-06 13:44:08,863632
-3,-2,-2,-3,-5,-1,-2,-1,2021-08-06 13:44:08,879633
-2,-1,-1,-2,-4,-3,-2,-1,2021-08-06 13:44:08,879633
-3,-2,-5,-9,-9,-4,-3,-1,2021-08-06 13:44:08,879633
-1,-1,-2,3,-3,2,-2,-1,2021-08-06 13:44:08,879633
0,0,-1,4,5,0,-1,-1,2021-08-06 13:44:08,879633
1,2,2,4,9,5,2,1,2021-08-06 13:44:08,879633
0,0,0,1,0,-1,0,0,2021-08-06 13:44:08,879633
-3,-5,-7,-12,-9,-7,-5,-4,2021-08-06 13:44:08,879633
-1,-2,-3,-2,0,-1,-2,-1,2021-08-06 13:44:08,880632
-1,-3,-1,-1,1,2,0,1,2021-08-06 13:44:08,880632
0,-1,1,3,4,0,0,0,2021-08-06 13:44:08,880632
0,0,1,1,1,-2,0,-1,2021-08-06 13:44:08,880632
-1,1,-2,-5,-12,-7,-2,-2,2021-08-06 13:44:08,880632
0,0,0,4,13,6,3,2,2021-08-06 13:44:08,880632
-1,1,1,0,-4,-2,-1,-1,2021-08-06 13:44:08,880632
-1,-2,-1,4,3,0,0,-1,2021-08-06 13:44:08,880632
2,1,3,1,5,3,2,1,2021-08-06 13:44:08,895630
-1,0,0,-8,-13,-7,-3,-2,2021-08-06 13:44:08,911631
1,0,-1,0,2,0,0,0,2021-08-06 13:44:08,926635
-1,-7,-6,-1,5,1,-1,-1,2021-08-06 13:44:08,927635
-3,-5,-4,-6,-10,-6,-2,-3,2021-08-06 13:44:08,927635
1,1,1,10,11,8,2,0,2021-08-06 13:44:08,927635
2,5,6,6,5,3,1,-1,2021-08-06 13:44:08,927635
4,3,2,3,1,4,2,2,2021-08-06 13:44:08,927635
-5,-10,-16,-25,-30,-19,-8,-6,2021-08-06 13:44:08,927635
-2,-3,-6,-8,-5,-5,-1,1,2021-08-06 13:44:08,927635
-4,-4,-2,-9,-11,-8,-5,-4,2021-08-06 13:44:08,943632
1,5,9,12,15,10,5,1,2021-08-06 13:44:08,959650
2,2,2,16,23,13,6,2,2021-08-06 13:44:08,959650
-1,-3,-6,-7,-9,-5,-3,-3,2021-08-06 13:44:08,959650
0,-2,-1,-2,0,2,0,0,2021-08-06 13:44:08,959650
-2,0,0,-2,-5,-4,-3,0,2021-08-06 13:44:08,959650
-2,1,3,0,2,-1,-1,0,2021-08-06 13:44:08,975649
-1,-1,1,0,-8,-6,-4,-2,2021-08-06 13:44:08,991648
3,1,2,14,19,11,5,4,2021-08-06 13:44:08,991648
-3,-5,-3,-4,-9,-7,-4,-3,2021-08-06 13:44:08,991648
0,0,2,-1,1,3,0,0,2021-08-06 13:44:08,991648
0,0,1,-2,-2,-2,-2,-1,2021-08-06 13:44:08,991648
-1,-2,-2,2,4,2,1,-1,2021-08-06 13:44:08,991648
-2,-2,-4,-8,-12,-8,-3,-4,2021-08-06 13:44:08,991648
-2,-2,-3,-7,-12,-7,-2,-3,2021-08-06 13:44:09,023649
4,6,10,24,41,24,9,3,2021-08-06 13:44:09,023649
-2,-2,-2,-6,-10,-6,-2,-2,2021-08-06 13:44:09,023649
1,0,-1,-1,-1,-2,0,1,2021-08-06 13:44:09,023649
-5,-7,-3,-6,-12,-9,-6,-3,2021-08-06 13:44:09,039649
1,0,-1,-5,-8,-5,-1,1,2021-08-06 13:44:09,055650
-3,-2,-2,-4,-6,-4,-2,-2,2021-08-06 13:44:09,071650
1,2,5,6,9,4,0,0,2021-08-06 13:44:09,071650
2,-2,-5,1,3,3,1,-1,2021-08-06 13:44:09,071650
-5,-8,-10,-15,-20,-10,-8,-4,2021-08-06 13:44:09,087648
0,-2,-3,4,14,7,2,-1,2021-08-06 13:44:09,087648
-3,-4,-4,-15,-19,-11,-5,-2,2021-08-06 13:44:09,087648
2,6,12,16,24,12,3,1,2021-08-06 13:44:09,087648
1,2,2,5,2,0,0,-1,2021-08-06 13:44:09,087648
-1,-2,-3,-4,-2,-1,-1,-2,2021-08-06 13:44:09,087648
-1,-2,-2,-3,-3,-3,-4,-2,2021-08-06 13:44:09,087648
3,5,11,20,20,14,7,3,2021-08-06 13:44:09,088650
-1,0,-3,-3,-1,-3,-2,-1,2021-08-06 13:44:09,088650
-2,-4,-8,-1,-1,-2,-4,-1,2021-08-06 13:44:09,103648
-1,0,-5,-5,-6,-3,0,0,2021-08-06 13:44:09,103648
-2,-2,-4,-10,-9,-4,-3,-2,2021-08-06 13:44:09,119648
-3,-1,2,-7,-8,-6,-4,-2,2021-08-06 13:44:09,135649
1,1,4,5,5,3,0,2,2021-08-06 13:44:09,151648
1,1,-1,5,10,6,0,1,2021-08-06 13:44:09,151648
1,-2,-1,0,-4,-5,-2,0,2021-08-06 13:44:09,151648
-1,-2,-2,-6,-11,-9,-4,-3,2021-08-06 13:44:09,151648
-4,-6,-6,-11,-16,-10,-4,-4,2021-08-06 13:44:09,151648
1,3,3,7,15,7,5,2,2021-08-06 13:44:09,151648
0,0,-2,-5,-5,-1,0,0,2021-08-06 13:44:09,152650
0,1,2,8,11,7,3,0,2021-08-06 13:44:09,152650
-3,-3,-5,-12,-26,-14,-7,-4,2021-08-06 13:44:09,152650
-2,-1,0,2,8,5,1,0,2021-08-06 13:44:09,152650
0,-1,-1,-2,4,3,0,0,2021-08-06 13:44:09,183156
-1,-1,-1,3,5,4,3,0,2021-08-06 13:44:09,199157
0,-1,-1,0,-4,-3,-2,-1,2021-08-06 13:44:09,199157
-2,-2,-1,-5,-11,-7,-4,-2,2021-08-06 13:44:09,199157
-2,-2,-4,-8,-11,-6,-5,-2,2021-08-06 13:44:09,199157
-1,-2,-2,0,1,0,0,0,2021-08-06 13:44:09,200158
2,2,2,2,3,4,1,1,2021-08-06 13:44:09,200158
-2,-1,-3,-1,-4,-3,-2,-2,2021-08-06 13:44:09,200158
-2,0,-2,-2,-3,-3,-2,-1,2021-08-06 13:44:09,215157
-1,-2,0,-4,-3,-3,-1,-2,2021-08-06 13:44:09,215157
-1,-1,-2,1,2,3,1,0,2021-08-06 13:44:09,215157
-2,0,-2,-1,-4,-3,-1,-2,2021-08-06 13:44:09,215157
1,1,-1,-1,0,1,1,0,2021-08-06 13:44:09,231159
0,-1,0,-1,-1,0,2,0,2021-08-06 13:44:09,231159
-2,0,0,-2,-7,-5,-1,-3,2021-08-06 13:44:09,231159
0,-1,2,7,9,5,-1,-1,2021-08-06 13:44:09,231159
-1,0,0,5,4,1,-1,-1,2021-08-06 13:44:09,263158
-3,-2,-4,-8,-10,-6,-3,-4,2021-08-06 13:44:09,263158
-1,-1,-1,-3,-3,-1,-1,1,2021-08-06 13:44:09,263158
2,1,2,6,6,3,0,2,2021-08-06 13:44:09,263158
-4,-4,-1,-3,-4,-4,-2,-2,2021-08-06 13:44:09,288160
-2,0,-4,-2,-1,0,-2,-1,2021-08-06 13:44:09,288160
1,1,1,2,2,4,0,0,2021-08-06 13:44:09,288160
-2,-2,-3,-7,-4,-3,-1,0,2021-08-06 13:44:09,289158
0,-1,0,0,-2,1,2,1,2021-08-06 13:44:09,289158
-2,-2,-1,0,-7,-4,-3,-1,2021-08-06 13:44:09,289158
-3,-2,-3,3,2,1,0,-2,2021-08-06 13:44:09,310157
-4,-4,-3,-1,-1,-2,-2,-2,2021-08-06 13:44:09,326157
3,3,3,0,2,0,1,3,2021-08-06 13:44:09,326157
1,0,1,0,-3,-1,0,1,2021-08-06 13:44:09,326157
0,0,3,1,0,0,1,0,2021-08-06 13:44:09,326157
-1,0,2,7,12,8,1,0,2021-08-06 13:44:09,326157
-2,-5,-6,-7,-6,-4,-3,-1,2021-08-06 13:44:09,341158
-4,-4,-3,-2,0,-2,-2,-2,2021-08-06 13:44:09,373159
-1,0,2,-9,-8,-7,-5,-1,2021-08-06 13:44:09,373159
0,1,-2,0,1,4,3,1,2021-08-06 13:44:09,373159
-2,-2,0,8,5,0,-1,-1,2021-08-06 13:44:09,373159
0,-2,-1,-4,0,-3,0,-1,2021-08-06 13:44:09,373159
-1,-2,0,3,0,1,-1,-3,2021-08-06 13:44:09,373159
1,-2,-1,-4,-3,-3,-2,-2,2021-08-06 13:44:09,373159
0,0,1,-1,-2,1,0,-1,2021-08-06 13:44:09,373159
1,2,6,10,13,5,2,1,2021-08-06 13:44:09,373159
-2,-1,-3,-5,3,0,-1,-2,2021-08-06 13:44:09,373159
-1,-2,-7,-10,-11,-5,-2,-1,2021-08-06 13:44:09,373159
-3,-5,-5,-9,-11,-7,-5,-4,2021-08-06 13:44:09,405158
0,2,2,2,-2,1,0,3,2021-08-06 13:44:09,421156
-2,0,2,3,0,1,1,0,2021-08-06 13:44:09,421156
1,-1,0,-3,-7,-6,-6,0,2021-08-06 13:44:09,421156
1,2,2,10,12,7,4,0,2021-08-06 13:44:09,421156
-3,-4,-4,-11,-15,-9,-5,-5,2021-08-06 13:44:09,421156
3,1,0,0,9,3,3,1,2021-08-06 13:44:09,421156
-2,-1,-1,1,1,-1,-1,-2,2021-08-06 13:44:09,421156
-1,1,0,-1,0,0,0,0,2021-08-06 13:44:09,437158
-1,0,-1,3,3,3,-1,1,2021-08-06 13:44:09,453157
-6,-6,-10,-10,-12,-10,-6,-5,2021-08-06 13:44:09,468156
-6,-4,-4,-10,-13,-10,-6,-6,2021-08-06 13:44:09,483156
0,1,1,1,1,0,2,1,2021-08-06 13:44:09,499156
0,0,-2,-2,0,1,2,-1,2021-08-06 13:44:09,499156
0,1,1,11,13,8,2,2,2021-08-06 13:44:09,499156
-1,1,1,-2,-4,-2,1,0,2021-08-06 13:44:09,499156
0,0,1,5,12,4,-1,0,2021-08-06 13:44:09,499156
-1,-1,-1,-1,-1,1,0,-1,2021-08-06 13:44:09,499156
-1,-2,-1,-2,-1,-2,-1,-3,2021-08-06 13:44:09,499156
-2,-5,-4,-5,-10,-6,-4,-3,2021-08-06 13:44:09,499156
-1,0,1,1,1,-1,0,-1,2021-08-06 13:44:09,500159
-1,-2,-5,-12,-12,-6,-1,-1,2021-08-06 13:44:09,500159
1,0,-2,-5,-2,0,-1,-2,2021-08-06 13:44:09,500159
1,3,4,14,19,10,5,3,2021-08-06 13:44:09,500159
-2,-4,-3,-9,-12,-8,-4,-4,2021-08-06 13:44:09,515158
0,0,4,7,8,4,2,-1,2021-08-06 13:44:09,515158
-1,0,1,0,-5,-2,-1,0,2021-08-06 13:44:09,515158
4,4,5,4,10,10,7,4,2021-08-06 13:44:09,515158
0,-2,-2,-4,-10,-5,-4,-2,2021-08-06 13:44:09,531157
-4,-5,-4,-3,-5,-4,-4,-4,2021-08-06 13:44:09,546157
4,5,4,6,11,9,6,5,2021-08-06 13:44:09,561157
-3,-3,0,-1,-7,-6,-3,-4,2021-08-06 13:44:09,576157
-1,0,1,-10,-12,-9,-4,-3,2021-08-06 13:44:09,608156
0,-3,-6,4,0,3,0,1,2021-08-06 13:44:09,608156
2,-2,-4,4,9,3,1,0,2021-08-06 13:44:09,608156
-3,-1,-6,-11,-17,-5,-2,0,2021-08-06 13:44:09,608156
-4,-4,-8,-11,-3,-5,-4,-5,2021-08-06 13:44:09,608156
-1,0,1,-8,-8,-4,-4,-3,2021-08-06 13:44:09,608156
-2,-1,1,0,1,-3,-3,-3,2021-08-06 13:44:09,608156
1,1,2,8,5,1,1,0,2021-08-06 13:44:09,608156
-1,0,1,4,5,3,1,1,2021-08-06 13:44:09,608156
-1,-1,-2,1,2,-2,-3,-2,2021-08-06 13:44:09,608156
-1,-1,2,1,-5,-3,-1,1,2021-08-06 13:44:09,609158
2,2,4,7,9,2,1,1,2021-08-06 13:44:09,609158
0,-1,-6,-8,-12,-4,-1,0,2021-08-06 13:44:09,624156
-1,-3,-7,-4,6,0,0,1,2021-08-06 13:44:09,640157
-4,-5,-7,-16,-10,-1,-2,-4,2021-08-06 13:44:09,646157
-4,-3,-1,-1,0,-2,-3,-4,2021-08-06 13:44:09,646157
-2,0,5,16,16,5,1,-2,2021-08-06 13:44:09,646157
1,6,5,7,0,0,-2,0,2021-08-06 13:44:09,646157
-3,-3,-7,-7,-7,-8,-5,-4,2021-08-06 13:44:09,646157
-3,-5,-9,-17,-17,-13,-7,-4,2021-08-06 13:44:09,646157
5,2,3,7,15,13,9,6,2021-08-06 13:44:09,647159
0,0,1,2,4,0,0,0,2021-08-06 13:44:09,647159
-2,-1,0,-1,-5,-5,-3,-1,2021-08-06 13:44:09,672156
0,-3,-2,1,1,2,-2,-2,2021-08-06 13:44:09,672156
1,1,-2,2,8,0,0,-2,2021-08-06 13:44:09,672156
-1,1,1,2,3,2,2,1,2021-08-06 13:44:09,672156
0,-2,4,9,9,5,2,0,2021-08-06 13:44:09,672156
-1,-2,-2,0,1,-2,-1,-2,2021-08-06 13:44:09,672156
1,0,-1,-3,-4,-1,-1,0,2021-08-06 13:44:09,703157
0,-4,-1,-11,-4,-2,0,-1,2021-08-06 13:44:09,703157
-2,-1,-2,-2,-8,-5,-3,-1,2021-08-06 13:44:09,703157
-1,2,0,-3,2,2,0,0,2021-08-06 13:44:09,703157
-5,-5,-4,-4,-10,-6,-4,-3,2021-08-06 13:44:09,703157
0,1,2,11,5,4,1,0,2021-08-06 13:44:09,703157
0,-2,0,-1,0,-1,1,0,2021-08-06 13:44:09,719156
3,4,3,3,4,4,3,4,2021-08-06 13:44:09,735156
-1,0,-2,-2,-4,-3,-2,-1,2021-08-06 13:44:09,751156
-1,-2,-1,-2,-2,0,-2,-1,2021-08-06 13:44:09,751156
-1,-2,-3,-2,-3,-4,-3,-1,2021-08-06 13:44:09,751156
2,1,1,1,1,2,0,1,2021-08-06 13:44:09,751156
-1,-2,-2,-5,-3,-4,-3,-1,2021-08-06 13:44:09,751156
-2,-1,0,-4,-4,-2,-3,-2,2021-08-06 13:44:09,751156
-4,-4,-2,-4,-5,-5,-3,-4,2021-08-06 13:44:09,751156
1,0,2,6,7,4,1,-2,2021-08-06 13:44:09,752158
0,1,2,4,5,2,1,2,2021-08-06 13:44:09,783158
-1,0,-2,3,7,2,1,-1,2021-08-06 13:44:09,783158
-2,0,-4,-8,-10,-6,-2,-3,2021-08-06 13:44:09,783158
1,1,0,-1,6,3,2,2,2021-08-06 13:44:09,783158
2,-1,0,3,-1,-1,-1,0,2021-08-06 13:44:09,799158
-4,-2,0,4,-1,-2,-3,-4,2021-08-06 13:44:09,799158
3,3,2,3,8,7,5,5,2021-08-06 13:44:09,799158
-2,-1,0,2,5,-2,-2,-2,2021-08-06 13:44:09,799158
-2,-3,-2,-3,0,1,-1,0,2021-08-06 13:44:09,815186
0,0,0,1,1,1,0,0,2021-08-06 13:44:09,815186
-1,-1,-3,-1,-5,-5,-1,-2,2021-08-06 13:44:09,815186
-3,-4,-3,-3,-8,-5,-3,-2,2021-08-06 13:44:09,815186
-1,-3,0,-4,0,0,0,-1,2021-08-06 13:44:09,847157
-1,-3,-5,-9,-13,-10,-2,-1,2021-08-06 13:44:09,847157
0,-1,1,1,2,1,-1,-1,2021-08-06 13:44:09,847157
2,3,2,7,14,7,4,2,2021-08-06 13:44:09,847157
0,1,0,3,1,2,0,1,2021-08-06 13:44:09,879156
-3,-7,-9,-18,-22,-13,-5,-3,2021-08-06 13:44:09,879156
1,2,0,5,12,8,4,2,2021-08-06 13:44:09,879156
-2,-3,-3,-6,-7,-4,-4,-3,2021-08-06 13:44:09,879156
0,1,2,6,7,3,1,0,2021-08-06 13:44:09,879156
1,2,5,6,6,2,2,3,2021-08-06 13:44:09,879156
-3,-4,-4,-6,-13,-8,-4,-3,2021-08-06 13:44:09,879156
-1,-1,-2,-1,4,2,0,-1,2021-08-06 13:44:09,879156
-2,-2,-1,-4,-1,-1,0,1,2021-08-06 13:44:09,910158
-2,-1,-2,-2,-3,-2,-2,0,2021-08-06 13:44:09,910158
-2,-1,-1,-1,-7,-4,-4,-3,2021-08-06 13:44:09,910158
-2,-2,-1,-2,-2,-2,0,-3,2021-08-06 13:44:09,910158
0,-1,-2,0,0,0,-2,-1,2021-08-06 13:44:09,910158
1,1,1,5,5,4,1,1,2021-08-06 13:44:09,910158
-2,-1,-5,-9,-3,-2,-2,-1,2021-08-06 13:44:09,926158
2,1,1,6,4,2,2,1,2021-08-06 13:44:09,926158
-2,-1,-2,-4,-6,-4,-3,-1,2021-08-06 13:44:09,942158
-3,-3,0,3,5,1,-2,-2,2021-08-06 13:44:09,958156
3,1,4,9,3,4,2,3,2021-08-06 13:44:09,974156
0,1,1,-6,-9,-4,-1,0,2021-08-06 13:44:09,990158
-2,-1,-6,-8,-10,-5,-2,-1,2021-08-06 13:44:10,005156
-1,-2,-5,-7,-2,-1,-1,-3,2021-08-06 13:44:10,005156
-2,-4,-6,-8,-8,-6,-4,-4,2021-08-06 13:44:10,005156
-2,-1,0,4,4,1,-1,0,2021-08-06 13:44:10,005156
0,3,7,9,2,1,2,-1,2021-08-06 13:44:10,005156
4,5,6,12,17,12,6,3,2021-08-06 13:44:10,005156
-2,-1,-5,-8,-4,-2,-2,0,2021-08-06 13:44:10,005156
-4,-2,-3,-4,-2,-2,-2,-2,2021-08-06 13:44:10,006158
-3,-3,-2,-3,-5,-5,-4,-4,2021-08-06 13:44:10,006158
-1,-1,0,-4,-5,-4,-2,0,2021-08-06 13:44:10,006158
0,2,3,6,5,3,1,0,2021-08-06 13:44:10,006158
-4,-5,-6,-9,-9,-6,-6,-3,2021-08-06 13:44:10,006158
-2,-2,-4,-5,-6,0,-2,-2,2021-08-06 13:44:10,020156
3,2,2,8,3,2,2,1,2021-08-06 13:44:10,036156
1,0,1,1,4,1,0,-1,2021-08-06 13:44:10,052157
-2,-1,-4,-6,-11,-7,-2,0,2021-08-06 13:44:10,068156
0,-1,-1,-1,2,0,-1,-1,2021-08-06 13:44:10,084156
-2,-3,-4,-8,-13,-7,-3,-4,2021-08-06 13:44:10,084156
-2,0,0,2,0,-1,0,-1,2021-08-06 13:44:10,084156
-6,-5,-4,-7,-11,-10,-4,-4,2021-08-06 13:44:10,084156
3,3,3,4,8,6,6,2,2021-08-06 13:44:10,100156
-2,1,0,-2,-2,-2,-4,-2,2021-08-06 13:44:10,100156
1,0,0,-1,-2,-2,0,1,2021-08-06 13:44:10,100156
-2,-1,-2,-1,-3,-1,-2,0,2021-08-06 13:44:10,100156
-2,-3,-4,-8,-6,-3,-2,-2,2021-08-06 13:44:10,100156
2,2,5,9,18,12,2,1,2021-08-06 13:44:10,100156
-2,-2,-1,-3,-9,-5,-3,-3,2021-08-06 13:44:10,100156
3,3,3,3,5,5,1,1,2021-08-06 13:44:10,100156
-2,-3,-4,-2,-7,-6,-4,-2,2021-08-06 13:44:10,100156
-3,-4,-5,-10,-12,-8,-3,-2,2021-08-06 13:44:10,100156
-2,-4,-4,3,6,3,0,-2,2021-08-06 13:44:10,100156
0,2,4,9,7,5,4,1,2021-08-06 13:44:10,101158
-1,1,-1,-4,2,1,0,0,2021-08-06 13:44:10,116156
1,1,3,5,5,2,1,1,2021-08-06 13:44:10,116156
0,0,-1,-4,2,1,0,1,2021-08-06 13:44:10,116156
-1,-4,-5,-4,-6,-7,-3,-2,2021-08-06 13:44:10,116156
0,2,4,5,2,0,0,1,2021-08-06 13:44:10,147157
-4,-4,-6,-11,-12,-5,-7,-3,2021-08-06 13:44:10,163158
2,1,4,13,17,9,4,2,2021-08-06 13:44:10,163158
4,5,6,13,16,9,5,3,2021-08-06 13:44:10,163158
-1,0,-2,-2,-2,-1,-2,-1,2021-08-06 13:44:10,163158
-3,-4,-8,-14,-13,-7,-5,-3,2021-08-06 13:44:10,163158
-1,-2,-2,-2,-5,-4,-2,-1,2021-08-06 13:44:10,163158
-2,-4,-4,-7,-6,-3,-2,-1,2021-08-06 13:44:10,163158
2,1,5,12,11,4,2,2,2021-08-06 13:44:10,179156
-1,-2,0,-2,-5,-3,1,0,2021-08-06 13:44:10,179156
-1,0,3,6,10,7,1,2,2021-08-06 13:44:10,179156
-5,-7,-7,-18,-14,-11,-8,-6,2021-08-06 13:44:10,179156
2,2,5,16,8,8,6,3,2021-08-06 13:44:10,210157
-1,-1,0,5,9,3,2,0,2021-08-06 13:44:10,210157
0,0,1,-1,-6,-3,-3,0,2021-08-06 13:44:10,210157
1,2,0,1,4,3,0,1,2021-08-06 13:44:10,210157
-5,-6,-7,-12,-13,-10,-6,-4,2021-08-06 13:44:10,226158
-1,-2,-2,-1,-1,-3,-2,-1,2021-08-06 13:44:10,242157
2,2,2,4,5,3,3,1,2021-08-06 13:44:10,242157
-2,-2,-2,-7,-13,-8,-4,-1,2021-08-06 13:44:10,242157
1,-2,1,0,1,3,-1,-2,2021-08-06 13:44:10,242157
0,-1,-1,-1,-3,-1,-1,-1,2021-08-06 13:44:10,242157
-2,-3,-4,-4,-5,-4,-3,-4,2021-08-06 13:44:10,242157
1,0,0,-1,-2,-3,-1,0,2021-08-06 13:44:10,242157
-4,-4,-6,-10,-10,-2,-5,-4,2021-08-06 13:44:10,274158
2,3,4,13,27,15,6,3,2021-08-06 13:44:10,274158
-4,-4,-3,-5,-14,-10,-5,-4,2021-08-06 13:44:10,274158
2,4,3,4,7,5,2,2,2021-08-06 13:44:10,274158
1,3,3,-1,3,-1,1,1,2021-08-06 13:44:10,274158
-3,-4,-5,-10,-15,-9,-5,-4,2021-08-06 13:44:10,274158
1,1,0,2,-4,1,2,2,2021-08-06 13:44:10,274158
-3,-4,-3,0,5,0,-2,-1,2021-08-06 13:44:10,274158
-1,-1,-3,-6,-6,-4,-4,-1,2021-08-06 13:44:10,305158
2,0,0,5,13,5,4,3,2021-08-06 13:44:10,320156
0,1,1,-6,7,3,1,0,2021-08-06 13:44:10,336156
-4,-4,1,-1,-12,-7,-3,-4,2021-08-06 13:44:10,336156
0,1,4,12,16,6,2,1,2021-08-06 13:44:10,336156
-3,-3,-5,-7,-14,-9,-3,-2,2021-08-06 13:44:10,336156
-5,-9,-20,-27,-36,-21,-9,-5,2021-08-06 13:44:10,336156
5,4,5,15,34,20,8,5,2021-08-06 13:44:10,336156
-5,-2,-1,-3,-5,-3,-2,-2,2021-08-06 13:44:10,352156
-2,-1,5,2,-5,-3,-2,-3,2021-08-06 13:44:10,367156
-1,0,2,9,11,6,0,-1,2021-08-06 13:44:10,367156
3,4,1,-7,-13,-5,1,-1,2021-08-06 13:44:10,367156
4,4,5,13,16,10,4,3,2021-08-06 13:44:10,367156
-1,1,0,-4,-5,-4,-1,-1,2021-08-06 13:44:10,367156
-2,-2,-2,-2,2,-2,-1,-1,2021-08-06 13:44:10,368158
-5,-6,-6,-8,-16,-9,-4,-5,2021-08-06 13:44:10,368158
-3,0,1,9,12,5,0,-2,2021-08-06 13:44:10,384157
0,0,-2,-5,-8,-3,-1,-1,2021-08-06 13:44:10,384157
1,-1,1,3,6,0,1,-2,2021-08-06 13:44:10,384157
2,1,0,0,8,7,4,3,2021-08-06 13:44:10,384157
0,0,-1,0,-1,-2,0,-1,2021-08-06 13:44:10,400157
-1,-2,-1,-3,-5,-2,-2,0,2021-08-06 13:44:10,400157
-4,-1,1,-6,-9,-10,-6,-4,2021-08-06 13:44:10,400157
-1,-1,-1,-1,3,3,3,1,2021-08-06 13:44:10,400157
-2,-2,-6,-6,-3,0,0,-2,2021-08-06 13:44:10,430157
0,1,1,4,0,0,-1,0,2021-08-06 13:44:10,430157
-2,-1,2,4,-3,-1,-2,-1,2021-08-06 13:44:10,430157
-1,-3,-4,-8,-12,-7,-4,-1,2021-08-06 13:44:10,430157
