EMG 1,EMG 2,EMG 3,EMG 4,EMG 5,EMG 6,EMG 7,EMG 8,Timestamp,Milliseconds
0,0,-1,-3,-6,-5,-3,-2,2021-08-06 13:41:26,828717
0,-1,-3,-4,-4,-6,-4,-2,2021-08-06 13:41:26,828717
2,0,1,3,3,8,4,3,2021-08-06 13:41:26,828717
2,2,2,4,9,6,2,2,2021-08-06 13:41:26,828717
-1,-1,-1,-1,-1,-1,0,-1,2021-08-06 13:41:26,828717
-3,-2,-2,-3,-4,-6,-4,-3,2021-08-06 13:41:26,828717
-2,-3,-5,-10,-9,-8,-4,-3,2021-08-06 13:41:26,828717
-2,0,1,0,-6,-4,0,-1,2021-08-06 13:41:26,828717
3,4,6,15,21,13,6,3,2021-08-06 13:41:26,844718
2,2,4,3,9,6,3,1,2021-08-06 13:41:26,844718
-2,-2,-4,-7,-1,-1,-1,-1,2021-08-06 13:41:26,860716
-4,-5,-6,-9,-15,-9,-4,-3,2021-08-06 13:41:26,876755
-3,-4,-4,-4,-7,-7,-5,-4,2021-08-06 13:41:26,892715
-1,-3,-3,-3,-4,0,1,-1,2021-08-06 13:41:26,892715
0,4,5,8,3,3,1,0,2021-08-06 13:41:26,892715
2,2,1,10,16,8,3,2,2021-08-06 13:41:26,892715
-2,-1,1,-1,-9,-8,-3,-1,2021-08-06 13:41:26,892715
-4,-3,-5,-14,-11,-7,-5,-4,2021-08-06 13:41:26,892715
1,1,-2,-5,1,1,1,3,2021-08-06 13:41:26,892715
0,-2,-2,-6,-3,0,-1,-1,2021-08-06 13:41:26,893716
1,-1,0,3,1,3,2,1,2021-08-06 13:41:26,908715
-1,0,3,6,-2,-5,-3,0,2021-08-06 13:41:26,908715
-1,0,2,6,7,3,1,-1,2021-08-06 13:41:26,908715
-1,-1,-3,-5,-3,-3,-2,-2,2021-08-06 13:41:26,908715
0,-2,1,0,-3,-1,-2,-1,2021-08-06 13:41:26,955715
1,1,-1,2,4,4,2,1,2021-08-06 13:41:26,955715
-1,-2,-1,-3,-5,-4,-2,-2,2021-08-06 13:41:26,955715
-2,0,0,4,-1,-4,-3,-2,2021-08-06 13:41:26,955715
1,2,5,6,8,3,0,1,2021-08-06 13:41:26,955715
2,2,1,0,7,6,3,2,2021-08-06 13:41:26,955715
-3,-4,-14,-19,-13,-7,-4,-3,2021-08-06 13:41:26,955715
-5,-6,-8,-15,-20,-13,-5,-3,2021-08-06 13:41:26,956716
-4,-3,-2,-1,-7,-6,-3,-2,2021-08-06 13:41:26,970714
-3,-2,2,4,-4,-4,-2,-2,2021-08-06 13:41:26,985715
1,4,11,19,20,9,4,3,2021-08-06 13:41:27,001716
0,0,-1,3,-1,0,0,-1,2021-08-06 13:41:27,001716
3,2,2,9,15,11,5,4,2021-08-06 13:41:27,001716
-1,-3,-5,-9,-9,-6,-3,-2,2021-08-06 13:41:27,001716
-7,-6,-10,-19,-14,-9,-8,-5,2021-08-06 13:41:27,001716
-2,-4,-2,-5,-8,-4,-3,-1,2021-08-06 13:41:27,001716
1,3,4,7,5,0,1,-1,2021-08-06 13:41:27,001716
3,1,0,6,9,4,3,2,2021-08-06 13:41:27,001716
1,1,0,8,16,9,4,3,2021-08-06 13:41:27,017717
-1,-1,0,-3,0,-1,-2,-1,2021-08-06 13:41:27,017717
-3,-3,-4,-8,-8,-4,-3,-1,2021-08-06 13:41:27,033717
-2,-3,-1,-4,-8,-7,-5,-4,2021-08-06 13:41:27,033971
-3,-4,-2,-5,-8,-4,-3,-3,2021-08-06 13:41:27,033971
1,1,2,4,6,4,0,-1,2021-08-06 13:41:27,033971
2,1,4,5,5,1,1,1,2021-08-06 13:41:27,033971
-3,-4,-4,-2,-9,-4,-4,-4,2021-08-06 13:41:27,033971
2,0,-3,-7,-8,-2,0,-2,2021-08-06 13:41:27,049225
-1,0,1,1,1,0,1,0,2021-08-06 13:41:27,049225
-1,0,-1,-2,1,1,0,-3,2021-08-06 13:41:27,065224
0,2,1,6,6,4,3,1,2021-08-06 13:41:27,081224
2,1,1,4,1,-3,1,0,2021-08-06 13:41:27,097224
-2,-3,-4,-10,-7,-4,-3,-2,2021-08-06 13:41:27,097224
-5,-5,-5,-9,-12,-11,-6,-5,2021-08-06 13:41:27,097224
0,1,3,5,9,4,3,1,2021-08-06 13:41:27,097224
0,2,3,4,-1,1,1,0,2021-08-06 13:41:27,098225
-1,0,3,5,-3,-4,-3,-3,2021-08-06 13:41:27,098225
1,-1,2,4,1,1,-1,0,2021-08-06 13:41:27,098225
2,2,-5,-4,7,7,4,2,2021-08-06 13:41:27,098225
-3,-5,-7,-17,-7,-4,-4,-2,2021-08-06 13:41:27,113227
-3,-4,-8,-9,-4,-5,-3,0,2021-08-06 13:41:27,113227
-5,-4,-4,-8,-15,-12,-6,-5,2021-08-06 13:41:27,129226
-2,-2,1,0,-12,-7,-4,-2,2021-08-06 13:41:27,129226
7,9,12,27,35,24,12,5,2021-08-06 13:41:27,129226
-2,0,0,6,7,3,1,-1,2021-08-06 13:41:27,129226
2,2,1,4,1,3,3,3,2021-08-06 13:41:27,145223
-3,-2,-2,-5,-7,-7,-5,-2,2021-08-06 13:41:27,145223
-1,-3,-6,-7,-7,-7,-4,-2,2021-08-06 13:41:27,161225
0,-1,1,0,1,0,-1,-2,2021-08-06 13:41:27,177225
2,2,2,5,3,7,4,3,2021-08-06 13:41:27,193224
1,0,-3,-5,-3,-3,0,-1,2021-08-06 13:41:27,193224
-5,-7,-4,-18,-18,-13,-7,-4,2021-08-06 13:41:27,193224
-1,-2,-8,6,-1,-1,-1,-2,2021-08-06 13:41:27,193224
-4,-7,-14,-23,-18,-10,-8,-3,2021-08-06 13:41:27,193224
0,2,5,6,9,7,4,0,2021-08-06 13:41:27,193224
2,3,7,13,14,9,5,2,2021-08-06 13:41:27,193224
-2,-1,0,-4,-9,-7,-3,-2,2021-08-06 13:41:27,194225
0,0,3,13,19,11,4,0,2021-08-06 13:41:27,209223
-1,-2,0,-1,-2,0,-1,-1,2021-08-06 13:41:27,225223
-1,0,0,1,-8,-7,-4,-1,2021-08-06 13:41:27,241224
2,1,3,1,13,7,4,1,2021-08-06 13:41:27,241224
-4,-4,-6,-9,-13,-9,-3,-4,2021-08-06 13:41:27,241224
2,0,5,6,15,7,3,2,2021-08-06 13:41:27,241224
0,0,-2,-2,-7,-6,-2,-1,2021-08-06 13:41:27,241224
0,0,-1,1,1,3,1,2,2021-08-06 13:41:27,241224
-1,0,0,-3,-2,-1,-1,-2,2021-08-06 13:41:27,242225
-4,-3,-3,-8,-7,-7,-6,-4,2021-08-06 13:41:27,242225
-4,-4,-1,-1,-10,-8,-5,-4,2021-08-06 13:41:27,257225
3,3,-1,-3,3,8,3,3,2021-08-06 13:41:27,273224
5,2,1,2,9,6,2,3,2021-08-06 13:41:27,273224
-2,-4,-3,-2,-8,-6,-4,-1,2021-08-06 13:41:27,273224
-1,-2,-4,-1,-4,-2,-1,0,2021-08-06 13:41:27,273224
-4,-4,-4,-12,-19,-14,-7,-2,2021-08-06 13:41:27,273224
1,2,3,13,17,13,8,3,2021-08-06 13:41:27,273224
-1,0,-4,-3,5,7,2,-1,2021-08-06 13:41:27,273224
-4,-4,-5,-10,-6,-2,-3,-3,2021-08-06 13:41:27,319224
-2,-3,1,1,0,-3,-2,-3,2021-08-06 13:41:27,319224
-3,-3,-1,-6,-14,-13,-8,-4,2021-08-06 13:41:27,319224
0,1,4,6,0,-3,-2,-1,2021-08-06 13:41:27,319224
5,4,6,9,12,8,5,4,2021-08-06 13:41:27,335225
2,1,-4,-5,2,1,1,-1,2021-08-06 13:41:27,351224
-2,-3,-3,-7,-7,-6,-4,-2,2021-08-06 13:41:27,367225
-2,-5,-6,-8,-12,-6,-5,-2,2021-08-06 13:41:27,367225
-3,-2,-2,2,2,-2,-3,-1,2021-08-06 13:41:27,367225
0,2,4,7,2,2,1,0,2021-08-06 13:41:27,367225
-2,-2,-2,-2,-4,-7,-3,0,2021-08-06 13:41:27,367225
1,-3,-8,-8,-1,1,1,-1,2021-08-06 13:41:27,367225
1,-2,-1,-5,-7,0,1,-2,2021-08-06 13:41:27,368225
1,0,2,5,11,7,3,2,2021-08-06 13:41:27,368225
-2,-2,-3,-3,-6,-6,-2,-3,2021-08-06 13:41:27,383224
-1,0,5,6,1,-3,-2,0,2021-08-06 13:41:27,383224
-2,0,3,12,1,1,1,0,2021-08-06 13:41:27,383224
1,1,-4,-5,-1,1,2,1,2021-08-06 13:41:27,383224
-3,-4,-8,-21,-14,-6,-3,-3,2021-08-06 13:41:27,383224
-5,-3,-5,-2,-4,-5,-7,-3,2021-08-06 13:41:27,383224
-1,2,3,4,1,-1,-1,0,2021-08-06 13:41:27,413226
-3,0,4,9,-1,-1,-3,-1,2021-08-06 13:41:27,413226
3,2,1,12,19,12,7,4,2021-08-06 13:41:27,414226
1,0,-3,-14,-4,-1,0,0,2021-08-06 13:41:27,414226
-4,-2,-3,-4,-3,-5,-2,-4,2021-08-06 13:41:27,414226
0,0,0,0,-2,-2,-1,1,2021-08-06 13:41:27,414226
-1,0,1,2,-2,-4,-3,-1,2021-08-06 13:41:27,431224
-3,-3,-3,0,-13,-10,-4,-3,2021-08-06 13:41:27,431224
4,2,5,10,21,17,9,4,2021-08-06 13:41:27,431224
1,0,0,4,6,3,0,0,2021-08-06 13:41:27,431224
-1,-1,-4,-4,-4,-1,-3,-1,2021-08-06 13:41:27,463226
-3,-1,1,-2,-3,-2,-1,-2,2021-08-06 13:41:27,463226
-3,-5,-6,-13,-14,-10,-4,-3,2021-08-06 13:41:27,463226
1,0,0,-1,0,2,2,1,2021-08-06 13:41:27,463226
0,3,5,7,7,4,1,1,2021-08-06 13:41:27,463226
2,2,5,11,1,1,1,0,2021-08-06 13:41:27,463226
0,1,-3,-6,3,2,1,1,2021-08-06 13:41:27,479226
-3,-6,-12,-17,-12,-7,-6,-3,2021-08-06 13:41:27,479226
-4,-5,-4,-7,-11,-10,-5,-3,2021-08-06 13:41:27,479226
2,2,3,7,11,8,4,2,2021-08-06 13:41:27,479226
0,0,4,6,0,-1,-2,-1,2021-08-06 13:41:27,509226
-1,-1,2,5,5,2,0,-1,2021-08-06 13:41:27,525262
1,2,3,4,5,4,3,1,2021-08-06 13:41:27,525262
-2,-3,-3,-6,-8,-3,-1,-2,2021-08-06 13:41:27,525262
2,2,-2,1,17,11,4,2,2021-08-06 13:41:27,525262
-3,-3,-3,-6,-10,-7,-5,-3,2021-08-06 13:41:27,525262
0,-1,0,5,0,0,-2,-2,2021-08-06 13:41:27,541227
1,2,1,6,5,4,3,3,2021-08-06 13:41:27,541227
0,-1,-3,-6,-7,-5,-2,0,2021-08-06 13:41:27,541227
-3,-5,-4,-9,-9,-7,-5,-3,2021-08-06 13:41:27,541227
-1,0,-1,1,0,-1,-1,-1,2021-08-06 13:41:27,541227
2,2,4,4,6,6,2,1,2021-08-06 13:41:27,557225
-1,-2,-4,1,-8,-4,-4,0,2021-08-06 13:41:27,557225
1,0,3,-4,3,3,1,1,2021-08-06 13:41:27,557225
0,-1,1,0,-4,-3,0,0,2021-08-06 13:41:27,573225
-4,-4,-9,-10,-3,-6,-4,-4,2021-08-06 13:41:27,573225
1,3,4,5,9,7,3,1,2021-08-06 13:41:27,573225
-2,2,5,7,-1,-3,0,-3,2021-08-06 13:41:27,573225
0,-1,-1,-4,1,2,0,0,2021-08-06 13:41:27,605228
-5,-3,-7,-11,-14,-8,-7,-3,2021-08-06 13:41:27,605228
-2,-3,-2,-3,-6,-6,-4,-1,2021-08-06 13:41:27,605228
-1,-1,0,5,2,0,-2,0,2021-08-06 13:41:27,605228
4,5,5,5,9,9,6,3,2021-08-06 13:41:27,605228
1,0,1,2,3,-1,0,-1,2021-08-06 13:41:27,605228
-2,-3,-4,-4,-7,-5,-2,-2,2021-08-06 13:41:27,636226
0,0,0,-7,-3,-1,1,1,2021-08-06 13:41:27,636226
-4,-4,-3,-2,4,-1,-2,-3,2021-08-06 13:41:27,636226
0,-1,-2,3,5,-1,0,1,2021-08-06 13:41:27,636226
-3,-2,-2,-6,-8,-6,-3,-3,2021-08-06 13:41:27,636226
-1,-2,-2,-5,-4,-3,0,0,2021-08-06 13:41:27,636226
3,2,2,7,9,6,1,2,2021-08-06 13:41:27,652225
0,0,3,4,-4,-2,-2,-1,2021-08-06 13:41:27,652225
1,-1,2,5,0,-2,-2,-2,2021-08-06 13:41:27,652225
-3,-2,-3,-7,-5,-3,-2,-2,2021-08-06 13:41:27,652225
0,-4,-6,-12,-4,-1,-1,-3,2021-08-06 13:41:27,668229
-3,-3,-2,-5,-9,-5,-4,-4,2021-08-06 13:41:27,668229
0,-1,2,5,7,3,2,-1,2021-08-06 13:41:27,684228
1,1,3,12,9,5,1,0,2021-08-06 13:41:27,700231
1,0,2,0,-5,-3,0,-1,2021-08-06 13:41:27,700231
-2,-3,-6,-8,-5,-5,-2,-3,2021-08-06 13:41:27,700231
-4,-3,-2,-8,-10,-6,-3,-3,2021-08-06 13:41:27,700231
0,-1,-2,0,6,1,1,-1,2021-08-06 13:41:27,700231
-2,-1,0,3,3,0,-3,-1,2021-08-06 13:41:27,716231
1,-1,2,0,-7,-2,0,0,2021-08-06 13:41:27,716231
0,2,4,14,13,9,2,1,2021-08-06 13:41:27,716231
2,3,2,7,5,5,2,1,2021-08-06 13:41:27,716231
-4,-2,-9,-12,-11,-6,-5,-2,2021-08-06 13:41:27,732273
-3,-3,-7,-23,-20,-10,-6,-3,2021-08-06 13:41:27,732273
0,-1,1,1,5,3,0,0,2021-08-06 13:41:27,732273
-1,-2,1,5,0,-1,-1,-1,2021-08-06 13:41:27,732273
0,0,0,4,0,-1,1,0,2021-08-06 13:41:27,748224
1,1,2,10,11,5,3,1,2021-08-06 13:41:27,748224
-1,0,-5,-16,-12,-8,-2,-2,2021-08-06 13:41:27,748224
1,3,4,7,7,7,3,0,2021-08-06 13:41:27,748224
-2,0,0,-1,-3,1,1,1,2021-08-06 13:41:27,796230
-2,-4,-1,2,2,-2,-2,-3,2021-08-06 13:41:27,812225
0,0,1,1,-5,0,0,-1,2021-08-06 13:41:27,828227
-1,-1,-1,3,0,-1,0,-2,2021-08-06 13:41:27,829226
0,0,-8,-13,-4,-2,-1,-1,2021-08-06 13:41:27,830231
0,0,4,-1,3,1,1,1,2021-08-06 13:41:27,830231
0,0,4,10,3,-1,0,0,2021-08-06 13:41:27,830231
-1,-1,-6,-3,-4,0,1,0,2021-08-06 13:41:27,830231
-3,-3,-8,-7,1,5,1,-2,2021-08-06 13:41:27,830231
-5,-5,-4,-4,-2,-4,-1,-1,2021-08-06 13:41:27,830231
-1,-1,0,-3,-9,-9,-3,-1,2021-08-06 13:41:27,830231
1,0,3,2,1,-3,-1,-1,2021-08-06 13:41:27,830231
1,2,5,8,6,4,1,1,2021-08-06 13:41:27,844225
2,3,3,5,7,7,3,1,2021-08-06 13:41:27,844225
-2,0,-2,1,-5,-1,-3,0,2021-08-06 13:41:27,844225
-1,-1,-5,-10,-1,-1,-1,-2,2021-08-06 13:41:27,844225
-1,-4,-2,-7,-13,-9,-4,-3,2021-08-06 13:41:27,844225
-2,-3,-3,-6,-6,-7,-2,-3,2021-08-06 13:41:27,844225
0,0,0,6,2,-1,0,-1,2021-08-06 13:41:27,860227
0,2,5,7,3,1,0,2,2021-08-06 13:41:27,860227
-1,-1,-1,-1,5,2,0,0,2021-08-06 13:41:27,860227
-1,1,0,0,3,4,0,2,2021-08-06 13:41:27,860227
-3,-6,-14,-15,-11,-7,-5,-4,2021-08-06 13:41:27,876225
-2,-5,-5,-9,-5,-3,-3,-4,2021-08-06 13:41:27,876225
-1,0,9,6,-2,-2,0,0,2021-08-06 13:41:27,892227
3,4,5,14,11,8,5,4,2021-08-06 13:41:27,908225
0,3,1,4,13,5,3,1,2021-08-06 13:41:27,908225
-3,-2,0,-6,-11,-6,-3,-2,2021-08-06 13:41:27,908225
0,0,-3,-6,-3,-3,-2,0,2021-08-06 13:41:27,908225
0,-4,-8,-7,-3,-3,-1,0,2021-08-06 13:41:27,908225
-1,-2,1,9,2,-1,-1,-1,2021-08-06 13:41:27,924225
-2,0,-4,-5,0,-1,-2,-2,2021-08-06 13:41:27,924225
-3,-3,-4,-22,-13,-6,-2,-3,2021-08-06 13:41:27,924225
-2,-1,-4,-9,-7,-2,-1,-1,2021-08-06 13:41:27,924225
2,0,0,3,5,4,2,0,2021-08-06 13:41:27,939225
0,-1,6,14,5,-1,-1,-2,2021-08-06 13:41:27,954226
1,3,4,13,5,7,2,1,2021-08-06 13:41:27,970224
1,0,4,2,6,3,0,-1,2021-08-06 13:41:27,970224
-4,-5,-8,-13,-16,-11,-6,-4,2021-08-06 13:41:27,970224
-1,-1,-3,-9,-9,0,0,1,2021-08-06 13:41:27,970224
-2,0,0,2,-2,-2,0,-1,2021-08-06 13:41:27,970224
0,0,2,9,5,2,1,-2,2021-08-06 13:41:27,970224
-1,-2,-5,-6,-5,-1,-1,-2,2021-08-06 13:41:27,970224
-2,-4,-7,-11,-6,-7,-2,-3,2021-08-06 13:41:27,971226
2,2,1,5,8,5,5,2,2021-08-06 13:41:27,985225
0,1,4,8,6,2,1,-1,2021-08-06 13:41:27,985225
0,0,1,-3,2,0,0,2,2021-08-06 13:41:28,001225
-2,-2,-2,-3,-5,-4,-4,-2,2021-08-06 13:41:28,016735
-2,-3,-2,-3,-6,-4,-3,0,2021-08-06 13:41:28,032736
-2,-1,0,0,-3,-6,-3,-1,2021-08-06 13:41:28,032736
1,1,3,1,6,7,3,2,2021-08-06 13:41:28,032736
-1,-1,1,4,6,0,2,-1,2021-08-06 13:41:28,032736
-3,-2,-1,4,2,-1,-2,-2,2021-08-06 13:41:28,032736
0,-1,1,-1,-9,-5,-4,0,2021-08-06 13:41:28,033737
-1,-2,-3,-7,-18,-8,-3,-2,2021-08-06 13:41:28,033737
2,4,1,7,13,11,7,4,2021-08-06 13:41:28,033737
-6,-5,-8,-16,-12,-9,-6,-5,2021-08-06 13:41:28,048734
1,0,2,5,7,7,1,1,2021-08-06 13:41:28,048734
-2,-2,-3,-4,-4,-3,0,-2,2021-08-06 13:41:28,064736
-1,-3,-4,-9,-9,-6,-5,-3,2021-08-06 13:41:28,064736
-4,-4,-2,-2,-10,-6,-4,-4,2021-08-06 13:41:28,064736
-2,-1,-3,-4,-1,0,-1,-3,2021-08-06 13:41:28,064736
-1,1,3,6,5,1,0,-1,2021-08-06 13:41:28,096737
1,2,5,13,9,5,3,2,2021-08-06 13:41:28,096737
2,0,-3,-3,0,0,0,1,2021-08-06 13:41:28,096737
-3,-2,-2,-6,-6,-5,-2,-3,2021-08-06 13:41:28,096737
1,0,2,5,6,5,2,2,2021-08-06 13:41:28,096737
-2,-3,-5,-7,-4,-3,-3,-2,2021-08-06 13:41:28,097735
4,2,3,10,6,3,4,2,2021-08-06 13:41:28,112735
-1,1,-1,4,2,1,1,1,2021-08-06 13:41:28,128736
1,0,1,-1,-2,-1,1,0,2021-08-06 13:41:28,128736
0,1,4,13,9,8,3,1,2021-08-06 13:41:28,128736
0,-2,-6,-7,5,5,1,0,2021-08-06 13:41:28,128736
-7,-10,-12,-27,-16,-8,-5,-5,2021-08-06 13:41:28,128736
-4,-3,-1,-2,-6,-7,-6,-4,2021-08-06 13:41:28,144735
-1,-2,2,4,-5,-5,-4,-3,2021-08-06 13:41:28,160735
5,5,11,20,9,6,5,3,2021-08-06 13:41:28,160735
5,5,9,11,3,3,1,0,2021-08-06 13:41:28,160735
-1,-2,2,-9,-4,-1,-1,-1,2021-08-06 13:41:28,160735
-2,-8,-22,-21,-9,-7,-3,-4,2021-08-06 13:41:28,160735
-6,-9,-16,-10,-5,-5,-3,-3,2021-08-06 13:41:28,160735
2,0,3,2,3,1,1,2,2021-08-06 13:41:28,160735
4,4,7,10,6,3,2,2,2021-08-06 13:41:28,192736
4,6,11,11,13,13,6,2,2021-08-06 13:41:28,208734
-3,-2,1,-2,-6,-5,-4,-3,2021-08-06 13:41:28,224736
-1,-1,-1,1,-1,-3,-3,0,2021-08-06 13:41:28,240734
-1,0,-2,-4,-1,0,-2,-1,2021-08-06 13:41:28,240734
1,1,-1,-3,2,0,0,3,2021-08-06 13:41:28,240734
-3,0,1,4,-3,-4,-4,-2,2021-08-06 13:41:28,240734
-1,1,-2,-6,2,2,2,1,2021-08-06 13:41:28,241735
-3,-5,-6,-9,-9,-8,-5,-3,2021-08-06 13:41:28,241735
-3,-1,-1,-6,-6,-2,-3,-1,2021-08-06 13:41:28,241735
3,4,6,13,19,11,5,4,2021-08-06 13:41:28,241735
0,2,1,8,6,5,2,2,2021-08-06 13:41:28,241735
-2,-4,-6,-6,-5,-2,0,-1,2021-08-06 13:41:28,241735
-6,-8,-7,-23,-19,-15,-7,-7,2021-08-06 13:41:28,241735
-2,-4,3,-2,-11,-7,-4,-3,2021-08-06 13:41:28,242736
0,-2,-6,0,2,0,-1,0,2021-08-06 13:41:28,256734
1,2,0,10,8,5,2,0,2021-08-06 13:41:28,272734
2,3,10,17,10,7,5,2,2021-08-06 13:41:28,272734
2,0,2,-3,0,1,-1,-1,2021-08-06 13:41:28,287734
-2,-3,-8,-12,-12,-7,-2,-3,2021-08-06 13:41:28,287734
-2,-2,-1,3,1,-1,-2,-3,2021-08-06 13:41:28,287734
-2,-2,-5,-5,-3,-2,-2,-1,2021-08-06 13:41:28,287734
2,2,2,-3,4,2,1,0,2021-08-06 13:41:28,287734
-2,-3,0,2,-2,-3,-2,-1,2021-08-06 13:41:28,287734
0,0,-1,-3,2,0,-1,-2,2021-08-06 13:41:28,302736
-4,-3,0,5,-4,-5,-5,-2,2021-08-06 13:41:28,318734
-3,-3,-4,-7,-6,-3,-2,-2,2021-08-06 13:41:28,334736
1,2,1,5,16,13,5,1,2021-08-06 13:41:28,334736
-1,-3,-8,-5,-6,-4,-2,-2,2021-08-06 13:41:28,334736
3,2,3,3,3,1,1,0,2021-08-06 13:41:28,334736
-3,-3,-1,1,-9,-7,-4,-3,2021-08-06 13:41:28,334736
-4,-4,-2,-10,-9,-6,-5,-3,2021-08-06 13:41:28,334736
-1,0,-2,-6,-1,0,2,0,2021-08-06 13:41:28,334736
2,1,-4,1,7,4,0,2,2021-08-06 13:41:28,335735
1,2,-1,0,2,3,5,1,2021-08-06 13:41:28,366736
0,0,0,2,-5,-5,-3,-2,2021-08-06 13:41:28,366736
0,-1,3,6,0,-1,0,-1,2021-08-06 13:41:28,366736
0,0,3,5,0,-1,1,2,2021-08-06 13:41:28,366736
-5,-4,-6,-11,-14,-11,-5,-5,2021-08-06 13:41:28,366736
-2,0,-2,-2,1,2,0,1,2021-08-06 13:41:28,366736
0,-1,-6,-8,6,5,0,0,2021-08-06 13:41:28,382735
0,1,-2,-1,-4,-2,-1,-1,2021-08-06 13:41:28,382735
-1,-1,2,2,-1,0,-1,-1,2021-08-06 13:41:28,382735
-1,-1,1,4,1,0,-1,-1,2021-08-06 13:41:28,382735
-3,-1,2,6,-1,-2,-2,-2,2021-08-06 13:41:28,398735
0,0,3,3,2,3,0,1,2021-08-06 13:41:28,398735
5,3,1,-2,7,9,5,4,2021-08-06 13:41:28,430735
0,0,-4,-8,-3,-1,1,3,2021-08-06 13:41:28,430735
-1,0,-1,-2,-6,-5,-4,-2,2021-08-06 13:41:28,430735
0,-4,-5,-3,0,-1,0,-1,2021-08-06 13:41:28,430735
-5,-6,-10,-8,-7,-8,-6,-3,2021-08-06 13:41:28,446735
-2,-3,3,-1,-7,-3,-1,-2,2021-08-06 13:41:28,461735
1,2,3,6,12,8,4,2,2021-08-06 13:41:28,461735
-1,0,4,-1,-7,-2,-1,-2,2021-08-06 13:41:28,461735
3,3,5,14,17,7,4,2,2021-08-06 13:41:28,461735
-1,0,-2,0,-4,-4,-2,-1,2021-08-06 13:41:28,461735
-2,-3,0,0,-5,-4,-4,-4,2021-08-06 13:41:28,461735
-1,-2,-6,-10,-5,-2,-1,0,2021-08-06 13:41:28,461735
0,-1,-6,-8,-5,0,-1,1,2021-08-06 13:41:28,461735
0,0,-2,0,4,-2,-3,-3,2021-08-06 13:41:28,462738
-5,-5,-2,-8,-17,-12,-6,-3,2021-08-06 13:41:28,493734
4,5,6,5,16,11,6,5,2021-08-06 13:41:28,493734
1,1,3,9,2,3,3,1,2021-08-06 13:41:28,493734
0,-2,-2,-1,-2,-2,0,-3,2021-08-06 13:41:28,493734
-1,1,-2,-10,0,1,0,-1,2021-08-06 13:41:28,509734
-1,-1,-2,3,4,0,-2,-2,2021-08-06 13:41:28,525734
-3,-1,2,-1,-5,-2,-3,-2,2021-08-06 13:41:28,541735
-1,-1,-1,-2,-5,-5,-1,-1,2021-08-06 13:41:28,541735
-2,-3,-5,-1,-4,0,0,0,2021-08-06 13:41:28,541735
-1,0,2,3,-4,-3,-3,-2,2021-08-06 13:41:28,541735
-2,0,6,9,10,4,1,0,2021-08-06 13:41:28,541735
0,-2,-8,-9,-1,1,0,-1,2021-08-06 13:41:28,541735
-2,-4,-9,-10,-6,-2,-2,0,2021-08-06 13:41:28,541735
-4,-4,-1,-3,-7,-9,-5,-4,2021-08-06 13:41:28,541735
1,1,7,12,9,5,2,0,2021-08-06 13:41:28,541735
0,2,9,7,2,1,0,1,2021-08-06 13:41:28,542736
0,-2,-9,-7,4,2,0,2,2021-08-06 13:41:28,573736
-4,-5,-8,-7,-13,-9,-7,-5,2021-08-06 13:41:28,589734
-2,0,-3,-6,-10,-6,-2,0,2021-08-06 13:41:28,589734
-2,0,-2,-10,2,1,0,0,2021-08-06 13:41:28,589734
1,3,5,8,9,4,1,0,2021-08-06 13:41:28,589734
-1,-1,-1,-2,-10,-6,-3,-1,2021-08-06 13:41:28,589734
-1,-2,-2,2,12,5,1,-1,2021-08-06 13:41:28,589734
1,0,1,5,-2,1,1,1,2021-08-06 13:41:28,589734
-1,-2,3,4,-2,-3,0,-1,2021-08-06 13:41:28,605736
-1,-2,0,-1,-3,-5,-3,-2,2021-08-06 13:41:28,614734
-1,-3,-5,-11,-15,-7,-5,-2,2021-08-06 13:41:28,614734
1,2,-1,3,19,14,5,3,2021-08-06 13:41:28,614734
-3,-3,-3,-9,-12,-6,-5,-2,2021-08-06 13:41:28,636734
-1,1,2,4,8,4,2,1,2021-08-06 13:41:28,651735
0,-2,-1,2,-1,-1,-2,-2,2021-08-06 13:41:28,651735
-1,-2,1,3,-3,-4,-1,-1,2021-08-06 13:41:28,651735
-1,-2,-4,-6,-1,0,0,-1,2021-08-06 13:41:28,651735
0,-3,-5,-12,-4,-2,-1,-2,2021-08-06 13:41:28,651735
-3,-2,-1,2,-5,-5,-3,-2,2021-08-06 13:41:28,651735
-1,0,1,6,-2,-4,-3,0,2021-08-06 13:41:28,651735
0,3,4,6,1,2,0,1,2021-08-06 13:41:28,667734
-1,0,-5,-8,2,2,1,0,2021-08-06 13:41:28,683737
-1,0,1,-4,3,2,0,0,2021-08-06 13:41:28,683737
-1,-1,0,3,2,1,-1,-2,2021-08-06 13:41:28,683737
-1,-3,-3,-9,-12,-8,-4,-2,2021-08-06 13:41:28,683737
0,0,0,4,15,10,5,1,2021-08-06 13:41:28,683737
-4,-2,-6,-5,-11,-8,-5,-5,2021-08-06 13:41:28,683737
-4,-2,2,2,-8,-6,-6,-4,2021-08-06 13:41:28,684735
3,3,4,10,13,7,5,3,2021-08-06 13:41:28,713736
-2,-4,-9,-10,-14,-9,-6,-1,2021-08-06 13:41:28,729735
-3,-4,-7,-13,-8,-7,-3,-2,2021-08-06 13:41:28,745737
0,0,1,3,6,4,0,-2,2021-08-06 13:41:28,745737
-2,-2,3,2,-2,-4,-4,-2,2021-08-06 13:41:28,745737
1,0,2,1,5,5,3,1,2021-08-06 13:41:28,745737
3,3,3,15,16,9,4,2,2021-08-06 13:41:28,745737
1,-2,-4,-4,-10,-6,-2,0,2021-08-06 13:41:28,745737
-1,-2,-4,-11,-4,-3,-3,-2,2021-08-06 13:41:28,746735
0,-1,0,-1,-7,-3,-2,-2,2021-08-06 13:41:28,746735
-2,-2,-4,-5,0,-2,-4,-1,2021-08-06 13:41:28,746735
-4,-2,-2,-4,-4,-3,-1,-2,2021-08-06 13:41:28,746735
1,2,4,13,5,4,0,1,2021-08-06 13:41:28,777735
1,1,3,5,4,3,1,1,2021-08-06 13:41:28,793736
0,-2,-1,1,-6,-3,1,-1,2021-08-06 13:41:28,808734
0,-2,-3,-5,3,0,0,-1,2021-08-06 13:41:28,808734
-5,-6,-9,-14,-13,-10,-6,-5,2021-08-06 13:41:28,808734
0,0,1,-1,0,1,0,0,2021-08-06 13:41:28,808734
2,0,3,4,1,3,0,-1,2021-08-06 13:41:28,808734
-2,1,-1,0,0,-1,-2,-2,2021-08-06 13:41:28,808734
-2,0,-2,-1,1,0,1,0,2021-08-06 13:41:28,809737
-2,-2,0,2,-9,-8,-3,1,2021-08-06 13:41:28,809737
2,0,-1,-1,3,2,1,1,2021-08-06 13:41:28,823734
-2,-3,-7,-19,-5,-2,-1,-1,2021-08-06 13:41:28,823734
0,0,0,1,-1,1,0,-1,2021-08-06 13:41:28,823734
-4,-2,-2,-1,-6,-5,-4,-6,2021-08-06 13:41:28,823734
-3,-2,2,4,-6,-7,-4,-1,2021-08-06 13:41:28,823734
4,3,6,12,3,5,4,3,2021-08-06 13:41:28,823734
4,4,0,4,19,12,7,4,2021-08-06 13:41:28,839734
-2,-5,-10,-14,-9,-8,-3,-3,2021-08-06 13:41:28,855734
-4,-4,-4,-8,-12,-6,-6,-2,2021-08-06 13:41:28,870734
-1,-2,-1,-4,-6,-3,-2,-3,2021-08-06 13:41:28,870734
-3,-2,3,7,0,-1,-2,-1,2021-08-06 13:41:28,870734
4,5,7,8,11,6,2,3,2021-08-06 13:41:28,870734
-1,1,-7,-6,-1,1,-1,0,2021-08-06 13:41:28,870734
-1,-2,-5,-1,-7,-7,-2,0,2021-08-06 13:41:28,870734
1,-3,0,-6,-7,-2,1,1,2021-08-06 13:41:28,885734
-4,-4,-4,-3,-2,-5,-2,-3,2021-08-06 13:41:28,901735
-2,-2,2,-4,0,1,-2,0,2021-08-06 13:41:28,917736
-5,-1,7,16,4,-3,-4,-4,2021-08-06 13:41:28,917736
2,4,-2,2,8,12,8,3,2021-08-06 13:41:28,917736
-3,-4,-8,-17,-6,-3,-3,-3,2021-08-06 13:41:28,917736
-1,-1,-1,-1,-3,-3,-2,-2,2021-08-06 13:41:28,917736
-2,-2,0,0,-3,-3,-2,-1,2021-08-06 13:41:28,917736
0,0,2,1,-2,0,0,1,2021-08-06 13:41:28,918736
4,4,6,14,12,9,5,4,2021-08-06 13:41:28,918736
2,0,-1,-1,3,1,1,0,2021-08-06 13:41:28,933734
-1,-2,-4,-4,-3,-3,-3,1,2021-08-06 13:41:28,949735
-3,-4,-1,-2,-8,-10,-5,-4,2021-08-06 13:41:28,965735
-2,-3,-2,-5,-9,-6,-3,-2,2021-08-06 13:41:28,975734
3,2,3,2,8,6,3,2,2021-08-06 13:41:28,996736
0,0,3,4,0,3,0,1,2021-08-06 13:41:28,996736
0,0,1,9,6,1,0,0,2021-08-06 13:41:28,996736
0,0,-7,-11,1,2,2,1,2021-08-06 13:41:28,996736
-7,-9,-8,-19,-22,-15,-8,-4,2021-08-06 13:41:28,996736
0,0,-5,-1,-2,-2,0,-1,2021-08-06 13:41:28,996736
1,2,5,5,11,7,2,2,2021-08-06 13:41:28,996736
0,2,6,8,-1,2,1,0,2021-08-06 13:41:28,997735
-1,0,4,6,9,3,1,0,2021-08-06 13:41:28,997735
-2,-4,-10,-12,-7,-5,-4,-3,2021-08-06 13:41:28,997735
-3,-3,-5,3,-5,-4,-3,-4,2021-08-06 13:41:29,012735
-2,-1,3,5,4,4,1,0,2021-08-06 13:41:29,012735
0,0,-1,-7,-1,3,1,0,2021-08-06 13:41:29,012735
-3,-2,2,2,-2,-2,-2,-3,2021-08-06 13:41:29,012735
-2,-2,-1,-3,-5,-5,-5,-3,2021-08-06 13:41:29,028737
0,0,-3,-1,-1,0,0,0,2021-08-06 13:41:29,028737
1,1,1,6,1,-1,1,-1,2021-08-06 13:41:29,028737
2,2,3,7,9,4,4,2,2021-08-06 13:41:29,028737
0,0,-2,-1,1,-1,-1,-2,2021-08-06 13:41:29,044735
-3,-4,-4,-6,-4,-4,-5,-4,2021-08-06 13:41:29,059734
1,-1,-4,0,-4,-2,0,1,2021-08-06 13:41:29,074734
-4,-4,-8,-18,-10,-8,-2,-5,2021-08-06 13:41:29,074734
-3,-1,3,2,-2,-2,-2,-2,2021-08-06 13:41:29,074734
1,3,3,8,6,3,2,2,2021-08-06 13:41:29,074734
3,5,5,17,21,13,5,3,2021-08-06 13:41:29,074734
-1,0,-6,-7,3,3,0,0,2021-08-06 13:41:29,074734
-6,-6,-8,-17,-15,-10,-6,-3,2021-08-06 13:41:29,075735
-4,-7,-2,-1,-13,-14,-7,-4,2021-08-06 13:41:29,075735
-2,-3,-1,-5,-9,-3,-1,-2,2021-08-06 13:41:29,090734
4,5,3,7,14,12,6,4,2021-08-06 13:41:29,106734
0,-2,-5,-2,-1,-3,-1,-1,2021-08-06 13:41:29,122735
0,0,3,11,8,4,1,0,2021-08-06 13:41:29,122735
-1,0,0,7,0,-4,-2,-3,2021-08-06 13:41:29,122735
0,0,0,-7,0,0,0,-1,2021-08-06 13:41:29,122735
-2,-4,-6,-13,-12,-8,-4,-3,2021-08-06 13:41:29,122735
-1,-2,-4,-5,-7,-3,-3,-2,2021-08-06 13:41:29,122735
2,3,6,10,9,7,4,0,2021-08-06 13:41:29,122735
1,-2,1,9,8,3,0,1,2021-08-06 13:41:29,122735
-1,-2,-8,-8,0,1,0,0,2021-08-06 13:41:29,153734
-2,-1,3,4,2,-1,-2,-2,2021-08-06 13:41:29,168734
-1,-1,1,-4,-7,-5,-2,-1,2021-08-06 13:41:29,184735
2,0,0,-3,5,5,1,3,2021-08-06 13:41:29,184735
-1,0,0,4,3,-2,-1,0,2021-08-06 13:41:29,184735
-2,-3,-5,-9,-9,-3,-1,0,2021-08-06 13:41:29,184735
-1,-1,-3,3,3,-4,-1,-3,2021-08-06 13:41:29,184735
-2,-2,0,4,-5,-6,-5,-3,2021-08-06 13:41:29,184735
2,3,6,3,-3,5,2,3,2021-08-06 13:41:29,185736
3,5,6,10,11,6,3,2,2021-08-06 13:41:29,185736
-4,-5,-8,-27,-17,-9,-6,-2,2021-08-06 13:41:29,185736
-3,-6,-11,-8,-12,-8,-2,-3,2021-08-06 13:41:29,185736
0,1,6,10,4,0,-1,-2,2021-08-06 13:41:29,200735
1,2,2,2,6,3,2,1,2021-08-06 13:41:29,200735
0,-1,-11,-8,-2,2,1,1,2021-08-06 13:41:29,216734
-3,-6,-3,-7,-15,-11,-6,-5,2021-08-06 13:41:29,216734
-1,-2,-1,3,6,1,-1,-2,2021-08-06 13:41:29,216734
-2,0,2,1,-3,-1,0,-2,2021-08-06 13:41:29,216734
0,0,2,4,2,0,-1,-1,2021-08-06 13:41:29,232737
0,0,-1,-4,3,5,0,1,2021-08-06 13:41:29,232737
-1,-1,0,3,-1,-2,-2,-1,2021-08-06 13:41:29,248735
-1,-2,-3,-1,-1,-2,-2,-1,2021-08-06 13:41:29,248735
1,1,4,3,2,1,-1,1,2021-08-06 13:41:29,248735
0,3,4,11,3,0,2,0,2021-08-06 13:41:29,248735
1,-2,-8,-22,-11,-4,-1,0,2021-08-06 13:41:29,263735
-2,-4,-5,-14,-2,-3,-3,-3,2021-08-06 13:41:29,263735
-1,-3,-3,2,-2,-2,-1,0,2021-08-06 13:41:29,263735
0,2,3,15,13,7,3,2,2021-08-06 13:41:29,263735
2,3,8,9,3,3,2,1,2021-08-06 13:41:29,311735
-1,-2,-4,-2,-5,-3,-3,-2,2021-08-06 13:41:29,311735
-5,-4,-4,-5,-10,-10,-6,-4,2021-08-06 13:41:29,311735
0,1,-1,-7,-5,1,1,0,2021-08-06 13:41:29,311735
0,-1,-2,-5,-5,-3,-1,-1,2021-08-06 13:41:29,311735
2,2,4,4,4,5,3,2,2021-08-06 13:41:29,311735
-2,0,8,9,10,5,2,0,2021-08-06 13:41:29,311735
-2,-1,-6,-3,-1,-2,-3,0,2021-08-06 13:41:29,311735
-2,-2,-3,-4,-1,-2,-1,-1,2021-08-06 13:41:29,327735
0,2,0,-2,-3,-1,3,0,2021-08-06 13:41:29,343734
2,0,4,6,8,4,3,1,2021-08-06 13:41:29,343734
0,-1,-1,3,-4,0,-1,-1,2021-08-06 13:41:29,343734
-2,-1,-1,-5,0,0,1,1,2021-08-06 13:41:29,343734
-2,-3,-4,-4,0,-1,-1,-1,2021-08-06 13:41:29,343734
0,0,-2,-1,-6,-4,-1,-1,2021-08-06 13:41:29,343734
-2,-1,1,-7,-6,-3,-2,-1,2021-08-06 13:41:29,343734
0,0,0,3,6,4,0,-1,2021-08-06 13:41:29,373734
-1,-4,-1,-2,-11,-7,-5,-4,2021-08-06 13:41:29,373734
0,-1,1,1,-9,-6,-2,-1,2021-08-06 13:41:29,373734
4,4,-2,6,19,11,7,3,2021-08-06 13:41:29,373734
-2,-2,0,-3,-3,-3,-2,-1,2021-08-06 13:41:29,373734
-4,-4,-6,-10,-8,-4,-3,0,2021-08-06 13:41:29,373734
-3,-1,-3,-1,-6,-5,-2,-4,2021-08-06 13:41:29,389734
-4,-2,2,-2,-12,-9,-4,-4,2021-08-06 13:41:29,389734
2,5,7,17,18,9,4,3,2021-08-06 13:41:29,405734
1,1,-3,-7,-8,-3,0,-1,2021-08-06 13:41:29,421734
-3,-6,-9,-21,-7,-1,0,-1,2021-08-06 13:41:29,437735
-1,-7,-9,-1,-4,-4,-4,-3,2021-08-06 13:41:29,437735
0,2,1,-2,2,2,1,2,2021-08-06 13:41:29,437735
0,-1,4,14,6,2,1,0,2021-08-06 13:41:29,437735
0,1,2,4,1,2,0,-1,2021-08-06 13:41:29,437735
-1,-1,2,-9,-4,-2,0,-2,2021-08-06 13:41:29,437735
-3,-4,-8,-9,-8,-6,-5,-4,2021-08-06 13:41:29,437735
2,1,3,5,3,2,1,0,2021-08-06 13:41:29,437735
-1,0,-2,-2,2,1,-1,-1,2021-08-06 13:41:29,453736
-1,0,4,3,2,0,0,0,2021-08-06 13:41:29,453736
-1,0,2,7,0,1,-2,0,2021-08-06 13:41:29,469735
0,1,-6,-8,4,2,0,2,2021-08-06 13:41:29,484735
-1,-2,-3,5,7,5,1,0,2021-08-06 13:41:29,500735
-1,-1,5,0,-8,-5,-3,-2,2021-08-06 13:41:29,516735
-1,-3,-4,-4,-5,-3,-2,-2,2021-08-06 13:41:29,532735
-3,-5,-6,-10,-12,-10,-4,-3,2021-08-06 13:41:29,532735
1,1,1,9,8,5,1,2,2021-08-06 13:41:29,532735
3,2,0,-8,12,10,6,1,2021-08-06 13:41:29,532735
-5,-5,-2,-9,-12,-6,-2,-4,2021-08-06 13:41:29,532735
-2,-1,1,10,6,0,-2,-3,2021-08-06 13:41:29,532735
-2,-2,3,-3,-14,-12,-6,-1,2021-08-06 13:41:29,532735
-1,-1,1,3,-1,2,-1,-1,2021-08-06 13:41:29,533735
6,3,2,9,10,9,7,5,2021-08-06 13:41:29,533735
0,-1,-4,-11,-6,-3,-2,0,2021-08-06 13:41:29,533735
-3,-2,0,-5,-7,-7,-4,-1,2021-08-06 13:41:29,533735
-2,-2,-4,6,0,-2,-2,-1,2021-08-06 13:41:29,533735
-2,-4,-6,-5,-4,-6,-4,-2,2021-08-06 13:41:29,548735
-1,1,5,7,3,4,1,0,2021-08-06 13:41:29,564736
-2,-3,0,2,2,1,1,-1,2021-08-06 13:41:29,580735
0,-1,-1,-10,-3,1,0,1,2021-08-06 13:41:29,596736
0,-1,1,-3,1,-2,-1,-1,2021-08-06 13:41:29,596736
-1,-2,-2,2,-2,-2,-2,-1,2021-08-06 13:41:29,596736
-1,1,-3,-6,1,1,-1,-1,2021-08-06 13:41:29,596736
-1,1,0,9,5,3,-1,1,2021-08-06 13:41:29,596736
0,0,2,1,1,-1,0,-2,2021-08-06 13:41:29,596736
-1,0,0,-4,-3,-1,0,0,2021-08-06 13:41:29,596736
2,2,-3,2,5,3,2,2,2021-08-06 13:41:29,596736
-5,-4,-3,-3,-8,-10,-4,-3,2021-08-06 13:41:29,596736
-1,-1,1,-2,-1,-1,1,-1,2021-08-06 13:41:29,612735
-1,-1,-3,1,2,0,-1,-1,2021-08-06 13:41:29,628735
0,0,-1,2,2,2,0,0,2021-08-06 13:41:29,628735
-1,-1,1,-3,-10,-6,-2,-1,2021-08-06 13:41:29,628735
-3,-4,-8,-7,-6,-6,-6,-4,2021-08-06 13:41:29,628735
1,1,1,-1,10,10,4,1,2021-08-06 13:41:29,628735
-1,-2,-3,-3,-7,-3,-1,-1,2021-08-06 13:41:29,644735
-2,-2,0,-1,-1,-2,-2,0,2021-08-06 13:41:29,660734
-2,0,-2,-5,-1,-1,-1,-1,2021-08-06 13:41:29,660734
0,-1,-1,1,1,1,0,0,2021-08-06 13:41:29,660734
0,-1,2,-1,-1,0,0,-1,2021-08-06 13:41:29,660734
-1,-1,1,3,-2,-4,-2,-4,2021-08-06 13:41:29,660734
-1,0,0,5,-1,-1,-2,0,2021-08-06 13:41:29,660734
5,3,2,0,12,7,3,3,2021-08-06 13:41:29,660734
-3,-2,-7,-13,-8,-3,-2,-3,2021-08-06 13:41:29,675734
-2,-2,-3,-6,-6,-4,-2,-2,2021-08-06 13:41:29,690734
-1,0,1,2,2,2,-1,0,2021-08-06 13:41:29,705734
-2,0,1,7,6,2,1,0,2021-08-06 13:41:29,721734
0,0,2,6,2,-1,-2,-1,2021-08-06 13:41:29,722736
0,2,0,0,4,4,0,-1,2021-08-06 13:41:29,722736
-1,-2,1,-1,-1,0,1,-1,2021-08-06 13:41:29,722736
-4,-2,-2,-3,-4,-4,-1,-3,2021-08-06 13:41:29,722736
-1,-4,1,-3,-6,-6,-2,-2,2021-08-06 13:41:29,723735
3,-1,-5,-2,-1,1,3,2,2021-08-06 13:41:29,723735
1,-1,1,0,1,0,0,2,2021-08-06 13:41:29,723735
-3,-3,-3,-6,-8,-6,-4,-2,2021-08-06 13:41:29,723735
-1,-1,-1,3,3,3,0,-2,2021-08-06 13:41:29,753735
-4,-3,3,-1,-6,-5,-5,-3,2021-08-06 13:41:29,753735
-1,1,3,5,-1,4,0,0,2021-08-06 13:41:29,753735
4,4,4,9,26,17,9,4,2021-08-06 13:41:29,753735
-3,-1,-1,0,-5,-5,-3,-2,2021-08-06 13:41:29,753735
1,-1,-3,-5,-7,-6,-2,-3,2021-08-06 13:41:29,753735
0,-3,-12,-11,-9,-8,-4,-3,2021-08-06 13:41:29,769734
-3,-5,-3,-11,-19,-12,-6,-5,2021-08-06 13:41:29,769734
3,2,2,3,8,8,3,3,2021-08-06 13:41:29,769734
0,2,4,6,7,6,3,1,2021-08-06 13:41:29,769734
1,0,4,7,4,2,1,0,2021-08-06 13:41:29,785734
-1,-3,-3,-6,-9,-7,-4,-2,2021-08-06 13:41:29,785734
-3,-2,-4,-11,-7,-6,-4,-2,2021-08-06 13:41:29,801734
-3,-3,-6,-4,-5,-5,-2,-2,2021-08-06 13:41:29,817734
-1,-1,-1,2,2,0,1,-3,2021-08-06 13:41:29,817734
-1,-1,4,1,1,1,1,0,2021-08-06 13:41:29,817734
3,2,-2,4,8,7,4,2,2021-08-06 13:41:29,817734
4,3,6,8,15,9,4,3,2021-08-06 13:41:29,817734
0,0,1,9,5,4,1,1,2021-08-06 13:41:29,817734
-2,-2,-3,-9,-10,-10,-5,-3,2021-08-06 13:41:29,817734
-3,-4,0,-1,-5,-4,-3,-1,2021-08-06 13:41:29,832735
-2,-2,-10,-11,-1,1,0,-1,2021-08-06 13:41:29,832735
-3,-4,-8,-19,-8,-6,-4,-3,2021-08-06 13:41:29,848734
-3,-1,-1,7,-2,-4,-5,-2,2021-08-06 13:41:29,864736
2,1,1,8,4,1,1,2,2021-08-06 13:41:29,864736
0,1,6,8,-1,0,-2,1,2021-08-06 13:41:29,864736
-1,0,1,1,-1,0,-1,-1,2021-08-06 13:41:29,864736
-2,-3,-7,-10,-9,-5,-2,-2,2021-08-06 13:41:29,864736
-3,-1,-4,0,-1,-1,0,-1,2021-08-06 13:41:29,864736
-3,-1,0,1,1,-1,-3,-2,2021-08-06 13:41:29,864736
-2,-1,0,4,3,1,1,0,2021-08-06 13:41:29,896735
0,1,6,6,-2,-3,-1,-2,2021-08-06 13:41:29,896735
1,1,-5,-3,-2,1,0,0,2021-08-06 13:41:29,896735
3,0,-2,-16,-1,2,2,1,2021-08-06 13:41:29,896735
-2,-3,2,-2,-5,-5,-5,-4,2021-08-06 13:41:29,912737
0,-1,-9,-5,0,0,0,-1,2021-08-06 13:41:29,928734
-3,-3,3,4,-3,-5,-2,-3,2021-08-06 13:41:29,944735
-2,-3,-3,0,-5,-4,-2,-3,2021-08-06 13:41:29,944735
2,1,4,8,3,2,2,2,2021-08-06 13:41:29,945259
-1,1,4,11,12,7,2,0,2021-08-06 13:41:29,945259
1,1,-1,-1,2,2,0,0,2021-08-06 13:41:29,960769
-5,-4,-5,-4,-3,-3,-4,-3,2021-08-06 13:41:29,960769
-1,0,-2,-8,-4,0,0,-1,2021-08-06 13:41:29,960769
-3,-4,-2,-3,-11,-7,-5,-3,2021-08-06 13:41:29,960769
1,1,-2,3,4,4,2,2,2021-08-06 13:41:29,960769
3,4,7,13,21,12,5,3,2021-08-06 13:41:29,960769
1,2,4,1,-2,1,1,2,2021-08-06 13:41:29,960769
-1,-1,1,-3,-4,-2,-1,0,2021-08-06 13:41:29,961769
-6,-10,-12,-20,-15,-12,-9,-6,2021-08-06 13:41:29,976770
-5,-7,-11,-8,-14,-11,-7,-5,2021-08-06 13:41:29,992768
-1,2,0,1,4,2,2,2,2021-08-06 13:41:30,008768
4,5,3,10,12,8,4,1,2021-08-06 13:41:30,008768
-1,-1,5,2,-3,-2,-1,-2,2021-08-06 13:41:30,008768
1,2,5,6,9,5,1,1,2021-08-06 13:41:30,008768
-1,-2,-4,-3,-1,-2,-2,-1,2021-08-06 13:41:30,008768
-1,-2,-1,-1,-2,-2,-1,-1,2021-08-06 13:41:30,008768
0,0,0,1,1,0,0,0,2021-08-06 13:41:30,023768
-1,0,-3,-11,-12,-4,-1,-2,2021-08-06 13:41:30,039768
3,2,0,1,13,9,5,4,2021-08-06 13:41:30,039768
-1,0,1,6,5,1,0,-1,2021-08-06 13:41:30,039768
-3,-2,-1,0,-5,-4,-6,-2,2021-08-06 13:41:30,039768
1,2,8,14,16,8,4,1,2021-08-06 13:41:30,039768
-3,-3,-6,-1,-11,-7,-4,-2,2021-08-06 13:41:30,055770
-2,-1,-6,-15,-6,-3,-3,-1,2021-08-06 13:41:30,071768
-2,-2,1,-6,-3,-3,-2,-2,2021-08-06 13:41:30,087769
-2,-3,-7,-8,-8,-4,-2,0,2021-08-06 13:41:30,097768
-3,0,-1,8,2,2,1,-2,2021-08-06 13:41:30,097768
0,-1,1,5,1,1,0,0,2021-08-06 13:41:30,097768
-1,-1,-4,-6,-10,-6,-4,0,2021-08-06 13:41:30,097768
0,0,2,2,-3,-4,-2,-1,2021-08-06 13:41:30,098769
-2,0,2,3,0,-2,-1,-2,2021-08-06 13:41:30,098769
1,3,4,2,3,5,2,1,2021-08-06 13:41:30,098769
1,0,1,-5,6,2,4,2,2021-08-06 13:41:30,098769
-4,-7,-13,-10,-11,-8,-6,-5,2021-08-06 13:41:30,098769
-1,-3,-3,0,0,-3,-3,-2,2021-08-06 13:41:30,118770
1,1,1,7,3,1,0,-1,2021-08-06 13:41:30,118770
1,0,2,4,0,1,1,-2,2021-08-06 13:41:30,118770
0,2,7,3,0,0,0,1,2021-08-06 13:41:30,118770
-2,-4,-9,-2,-4,-1,-1,-1,2021-08-06 13:41:30,118770
-4,-6,-11,-27,-18,-12,-6,-4,2021-08-06 13:41:30,118770
3,3,1,1,14,10,6,3,2021-08-06 13:41:30,134770
-1,-2,1,5,0,-2,-2,0,2021-08-06 13:41:30,150769
2,1,3,7,1,3,0,1,2021-08-06 13:41:30,166277
-2,-1,-2,4,-4,0,-1,-1,2021-08-06 13:41:30,166277
-5,-7,-8,-6,-14,-8,-7,-5,2021-08-06 13:41:30,166277
4,5,7,6,13,9,5,4,2021-08-06 13:41:30,166277
0,2,0,-1,3,0,-1,1,2021-08-06 13:41:30,166277
-2,-3,-7,-7,-5,-6,-4,-2,2021-08-06 13:41:30,166277
-1,-1,-1,1,-3,-1,-1,-2,2021-08-06 13:41:30,166277
0,-1,2,6,2,-2,-1,-2,2021-08-06 13:41:30,167279
-2,-3,-7,-15,-12,-5,-3,-3,2021-08-06 13:41:30,182278
-1,0,1,7,7,3,1,0,2021-08-06 13:41:30,182278
-1,0,1,9,5,4,0,0,2021-08-06 13:41:30,198277
0,-1,-5,-12,4,2,0,0,2021-08-06 13:41:30,198277
-4,-3,-5,-11,-10,-7,-4,-5,2021-08-06 13:41:30,214279
1,1,0,-7,-8,-4,0,-1,2021-08-06 13:41:30,214279
2,4,5,13,14,7,3,1,2021-08-06 13:41:30,214279
-1,-3,-1,4,-8,-3,-3,-2,2021-08-06 13:41:30,214279
0,0,8,3,2,0,-1,1,2021-08-06 13:41:30,230278
-4,-4,-10,-8,-4,-1,-2,0,2021-08-06 13:41:30,246277
0,2,-1,-3,1,0,0,0,2021-08-06 13:41:30,246277
-1,0,-2,1,-4,-5,-1,-1,2021-08-06 13:41:30,246277
-1,1,0,-1,0,0,-1,0,2021-08-06 13:41:30,246277
2,1,8,11,0,1,0,0,2021-08-06 13:41:30,246277
0,1,-2,5,11,6,2,2,2021-08-06 13:41:30,246277
-6,-4,-5,-9,-14,-10,-9,-4,2021-08-06 13:41:30,246277
-2,-3,-2,0,1,1,0,1,2021-08-06 13:41:30,262278
-2,-5,-11,-14,-4,0,-1,-1,2021-08-06 13:41:30,262278
0,-3,-4,-6,-5,-4,-4,-4,2021-08-06 13:41:30,294277
0,1,5,8,4,3,3,0,2021-08-06 13:41:30,310277
2,2,6,9,1,1,0,-2,2021-08-06 13:41:30,326278
1,3,6,7,11,7,2,0,2021-08-06 13:41:30,326278
0,-1,0,-3,-3,-3,-1,0,2021-08-06 13:41:30,326278
-4,-3,-4,-9,-7,-5,-2,-2,2021-08-06 13:41:30,326278
-2,-3,-4,-6,-8,-8,-4,-3,2021-08-06 13:41:30,326278
-2,0,-3,0,-1,-2,-2,-1,2021-08-06 13:41:30,326278
-4,-2,-2,-3,-8,-5,-3,-3,2021-08-06 13:41:30,326278
4,4,-2,3,8,5,5,2,2021-08-06 13:41:30,326278
0,2,3,5,12,7,4,0,2021-08-06 13:41:30,326278
1,1,5,4,-1,0,-2,1,2021-08-06 13:41:30,327279
-1,-1,-4,-4,-5,-6,-3,-2,2021-08-06 13:41:30,327279
-2,-5,-8,-11,-9,-5,-4,-4,2021-08-06 13:41:30,327279
-4,-5,-5,-5,-11,-11,-5,-2,2021-08-06 13:41:30,342277
3,3,3,-6,9,7,4,2,2021-08-06 13:41:30,342277
0,-1,2,3,-1,4,2,-1,2021-08-06 13:41:30,342277
1,1,1,-1,2,2,0,1,2021-08-06 13:41:30,342277
-1,0,0,-1,-5,-2,-3,-1,2021-08-06 13:41:30,374277
-4,-1,3,11,0,-5,-2,-2,2021-08-06 13:41:30,374277
-2,-2,-5,-9,-10,-7,-3,-2,2021-08-06 13:41:30,374277
0,-2,0,-3,-3,-2,-1,1,2021-08-06 13:41:30,374277
-1,-1,-1,1,4,2,1,1,2021-08-06 13:41:30,390277
-3,-3,-2,-2,-10,-8,-3,-3,2021-08-06 13:41:30,390277
-1,-2,-2,-6,-6,-4,-2,-2,2021-08-06 13:41:30,406276
1,3,7,7,7,6,1,1,2021-08-06 13:41:30,406276
3,0,-3,1,5,2,2,-1,2021-08-06 13:41:30,406276
0,-3,-9,-6,2,2,1,-2,2021-08-06 13:41:30,406276
-4,-2,-3,-3,-4,-6,-2,-2,2021-08-06 13:41:30,422278
-2,-1,2,5,-5,-6,-4,-2,2021-08-06 13:41:30,438277
-1,2,5,5,3,2,1,0,2021-08-06 13:41:30,453280
1,1,0,-8,-1,1,0,0,2021-08-06 13:41:30,453280
1,2,-2,-1,4,2,2,2,2021-08-06 13:41:30,453280
-2,-4,-9,-10,1,2,-1,-1,2021-08-06 13:41:30,453280
-2,-3,-3,-5,-9,-5,-4,-2,2021-08-06 13:41:30,453280
-1,-1,3,15,10,2,1,-1,2021-08-06 13:41:30,453280
2,2,5,1,0,1,2,1,2021-08-06 13:41:30,453280
0,-1,0,-1,2,0,1,0,2021-08-06 13:41:30,453280
-3,-2,-3,-4,-2,-3,-2,-2,2021-08-06 13:41:30,465283
-1,-1,2,1,-4,-2,-1,-2,2021-08-06 13:41:30,465283
-1,-3,-4,-1,-3,-2,-3,-2,2021-08-06 13:41:30,484279
1,1,0,2,0,0,0,1,2021-08-06 13:41:30,484279
0,-1,-1,0,2,2,1,-1,2021-08-06 13:41:30,484279
-1,0,-6,-16,-3,2,0,1,2021-08-06 13:41:30,484279
-2,0,-1,3,2,0,-2,-1,2021-08-06 13:41:30,484279
-2,-2,-1,-4,-2,-4,-4,-3,2021-08-06 13:41:30,484279
-1,0,-1,0,-1,-3,-3,0,2021-08-06 13:41:30,500278
2,0,3,8,0,2,2,2,2021-08-06 13:41:30,516303
0,0,-2,-6,-1,2,-1,1,2021-08-06 13:41:30,532304
-4,-3,-2,-6,-8,-7,-3,-4,2021-08-06 13:41:30,548304
0,0,-5,-2,1,-1,-1,0,2021-08-06 13:41:30,548304
-2,-2,-3,-4,-7,-5,-4,-3,2021-08-06 13:41:30,548304
-1,-1,1,5,2,0,1,1,2021-08-06 13:41:30,548304
1,2,5,9,8,5,3,2,2021-08-06 13:41:30,548304
-1,-3,-2,-9,-8,-2,1,-2,2021-08-06 13:41:30,548304
-2,0,-5,-2,3,0,-2,-1,2021-08-06 13:41:30,548304
-2,-1,0,0,-1,-1,-3,-2,2021-08-06 13:41:30,548304
-2,1,-3,1,-1,0,0,1,2021-08-06 13:41:30,549306
2,1,5,7,-1,-4,-1,-1,2021-08-06 13:41:30,564306
1,1,3,5,7,4,1,2,2021-08-06 13:41:30,564306
-1,-4,-2,-4,-11,-7,-3,-2,2021-08-06 13:41:30,580306
2,1,2,-4,9,9,3,3,2021-08-06 13:41:30,596303
-1,-1,-6,-8,-3,-1,-2,1,2021-08-06 13:41:30,612306
-4,-4,-6,3,-2,-3,-1,-1,2021-08-06 13:41:30,612306
-2,0,4,0,3,2,-3,-3,2021-08-06 13:41:30,612306
-4,-3,-3,4,-4,-3,-4,-4,2021-08-06 13:41:30,612306
0,3,3,3,8,6,3,1,2021-08-06 13:41:30,612306
-2,-2,0,2,-4,-6,-3,-3,2021-08-06 13:41:30,612306
-2,-4,-8,-9,-14,-10,-6,-4,2021-08-06 13:41:30,613312
-1,-2,-5,-13,-7,-4,-3,-1,2021-08-06 13:41:30,613312
-2,-1,2,0,-1,-2,-1,-3,2021-08-06 13:41:30,628303
3,5,8,12,10,7,3,3,2021-08-06 13:41:30,628303
4,4,-1,9,19,9,6,3,2021-08-06 13:41:30,628303
-3,-2,-6,-8,-7,-3,-1,-1,2021-08-06 13:41:30,628303
-1,-3,-3,-2,0,0,-2,-1,2021-08-06 13:41:30,644303
-2,-2,-3,-7,-11,-7,-2,-3,2021-08-06 13:41:30,644303
-2,-2,3,-4,0,0,0,-1,2021-08-06 13:41:30,660303
1,-2,1,4,1,-1,-1,-2,2021-08-06 13:41:30,676304
1,1,-4,-1,7,3,2,0,2021-08-06 13:41:30,692305
0,0,0,-2,-4,-2,-1,0,2021-08-06 13:41:30,692305
-1,-1,-1,-4,-5,-2,-1,-2,2021-08-06 13:41:30,692305
-2,-2,-3,3,2,2,0,0,2021-08-06 13:41:30,692305
-1,-2,-1,-2,-5,-3,-4,-3,2021-08-06 13:41:30,692305
0,-3,-1,-4,-2,-3,-3,-3,2021-08-06 13:41:30,692305
1,1,2,2,4,3,2,3,2021-08-06 13:41:30,692305
0,2,-2,-1,0,3,0,0,2021-08-06 13:41:30,693304
0,1,1,-4,-2,0,0,0,2021-08-06 13:41:30,708302
-4,-4,-5,-7,-11,-10,-6,-3,2021-08-06 13:41:30,708302
-2,-2,1,1,-8,-6,-3,-1,2021-08-06 13:41:30,708302
0,-1,-5,-3,-4,-3,0,-1,2021-08-06 13:41:30,708302
0,-1,-1,3,9,8,1,-1,2021-08-06 13:41:30,724304
-3,-3,-3,-11,-6,-4,-3,-1,2021-08-06 13:41:30,724529
0,-1,-2,-9,-3,-1,-2,-2,2021-08-06 13:41:30,739811
0,0,1,-1,0,-2,-1,-1,2021-08-06 13:41:30,739811
-3,-1,-3,-2,-3,-4,-2,-2,2021-08-06 13:41:30,739811
-1,0,3,7,2,-1,2,0,2021-08-06 13:41:30,739811
-1,-2,-2,6,9,4,1,-2,2021-08-06 13:41:30,755811
3,3,5,7,9,6,4,2,2021-08-06 13:41:30,771811
-1,-1,-1,1,-4,-4,-1,-2,2021-08-06 13:41:30,787813
0,-2,-2,-5,-2,1,-2,-1,2021-08-06 13:41:30,787813
-1,0,-2,-1,-2,-2,-1,0,2021-08-06 13:41:30,787813
-2,-3,-3,-2,-8,-5,-3,-3,2021-08-06 13:41:30,787813
1,2,9,8,9,6,3,1,2021-08-06 13:41:30,787813
-1,0,-2,2,-2,-3,-2,-3,2021-08-06 13:41:30,787813
3,1,-10,-9,0,3,1,3,2021-08-06 13:41:30,787813
-3,-6,-12,-23,-12,-8,-5,-3,2021-08-06 13:41:30,788813
-5,-3,-3,-7,-11,-9,-5,-2,2021-08-06 13:41:30,818812
-1,-2,4,5,-2,-4,-1,-3,2021-08-06 13:41:30,818812
1,3,8,16,10,7,6,2,2021-08-06 13:41:30,818812
1,1,1,2,9,7,2,0,2021-08-06 13:41:30,818812
-1,-3,-6,-8,-2,-1,0,0,2021-08-06 13:41:30,829812
-1,-1,-2,0,-1,1,0,-1,2021-08-06 13:41:30,830815
-4,-4,-2,-2,-12,-11,-6,-4,2021-08-06 13:41:30,830815
-1,-2,4,7,-3,-3,-3,-1,2021-08-06 13:41:30,830815
1,0,0,6,11,7,1,1,2021-08-06 13:41:30,850812
-1,-1,-2,-3,-4,-2,-1,0,2021-08-06 13:41:30,850812
-1,-1,0,3,-1,-4,-3,-1,2021-08-06 13:41:30,850812
-3,-2,-5,-3,-7,-6,-4,-3,2021-08-06 13:41:30,850812
-3,-5,-4,-6,-10,-7,-5,-3,2021-08-06 13:41:30,866812
-4,-4,-2,2,2,-2,-1,-2,2021-08-06 13:41:30,882812
3,5,-1,0,15,11,6,4,2021-08-06 13:41:30,882812
0,1,1,-8,-2,0,0,0,2021-08-06 13:41:30,882812
2,0,2,8,3,0,-1,-2,2021-08-06 13:41:30,882812
1,2,-2,5,0,2,-1,1,2021-08-06 13:41:30,882812
-3,-3,-3,-9,-10,-5,-3,-3,2021-08-06 13:41:30,898812
-1,0,-1,0,-1,0,0,-1,2021-08-06 13:41:30,914813
-1,-1,-1,0,1,1,1,0,2021-08-06 13:41:30,929812
1,2,2,2,1,1,0,1,2021-08-06 13:41:30,929812
-3,-1,3,6,-3,-3,-3,-2,2021-08-06 13:41:30,929812
0,1,3,5,1,0,0,1,2021-08-06 13:41:30,929812
-1,-1,-2,-10,-9,-5,-4,-1,2021-08-06 13:41:30,929812
0,0,0,3,5,5,2,2,2021-08-06 13:41:30,929812
-1,-2,-8,-12,-7,-2,-2,-1,2021-08-06 13:41:30,929812
-3,-4,-2,-1,-5,-5,-3,-3,2021-08-06 13:41:30,930814
-1,0,-1,2,-1,-4,-1,-1,2021-08-06 13:41:30,944811
-2,-2,-5,-15,-5,0,-1,-2,2021-08-06 13:41:30,944811
-1,-1,5,4,1,0,-1,0,2021-08-06 13:41:30,960812
-1,0,0,6,1,-1,-2,0,2021-08-06 13:41:30,976812
-2,0,-2,2,-1,-1,-1,1,2021-08-06 13:41:30,991812
0,0,-1,-5,-4,-1,0,0,2021-08-06 13:41:30,991812
-3,-3,-3,-8,-6,-4,-3,-2,2021-08-06 13:41:30,991812
-1,1,-1,4,0,-3,-2,0,2021-08-06 13:41:30,991812
-3,-1,4,1,-2,1,-2,0,2021-08-06 13:41:30,991812
0,-1,-5,2,14,8,3,2,2021-08-06 13:41:30,991812
0,0,-3,-5,-1,-2,-1,-1,2021-08-06 13:41:30,991812
-1,0,0,1,0,1,-1,-1,2021-08-06 13:41:30,991812
-1,-1,-2,-4,-6,-5,-1,-2,2021-08-06 13:41:31,007813
3,2,7,10,3,2,0,0,2021-08-06 13:41:31,007813
-1,-2,3,9,3,-1,0,-1,2021-08-06 13:41:31,023811
-3,-4,-8,-7,-6,-3,-3,-2,2021-08-06 13:41:31,039812
-1,-2,-7,-26,-12,-4,-3,-2,2021-08-06 13:41:31,039812
0,-2,-2,-6,-6,-3,-2,-1,2021-08-06 13:41:31,039812
0,1,1,6,7,4,2,-1,2021-08-06 13:41:31,039812
-2,-1,2,6,-1,-2,-2,-2,2021-08-06 13:41:31,039812
1,3,7,17,17,9,5,1,2021-08-06 13:41:31,039812
0,0,-3,1,7,3,2,0,2021-08-06 13:41:31,039812
0,1,3,3,1,0,0,0,2021-08-06 13:41:31,055812
0,-2,-2,1,4,3,2,2,2021-08-06 13:41:31,071811
-4,-6,-11,-17,-14,-10,-6,-5,2021-08-06 13:41:31,103813
-1,-1,1,-5,-5,-2,-3,0,2021-08-06 13:41:31,103813
-1,-3,-1,-3,-3,-1,-2,-2,2021-08-06 13:41:31,103813
0,2,2,9,8,3,0,0,2021-08-06 13:41:31,103813
3,4,6,14,9,5,4,2,2021-08-06 13:41:31,103813
0,-2,-1,-7,-3,-2,-2,-2,2021-08-06 13:41:31,103813
-2,-5,-10,-11,-11,-6,-4,-3,2021-08-06 13:41:31,103813
-1,-2,3,-2,-2,-3,-1,-1,2021-08-06 13:41:31,104812
-1,-1,-1,3,0,-1,-2,-1,2021-08-06 13:41:31,119812
-3,-2,-4,-1,-4,-2,-2,-2,2021-08-06 13:41:31,135812
4,6,3,-3,13,12,5,4,2021-08-06 13:41:31,135812
1,1,1,-6,-6,-2,0,-2,2021-08-06 13:41:31,135812
1,1,-3,7,10,5,3,-1,2021-08-06 13:41:31,135812
-6,-8,-5,-9,-17,-13,-7,-6,2021-08-06 13:41:31,135812
-1,-1,-6,-8,-12,-6,-3,-1,2021-08-06 13:41:31,135812
0,1,3,9,12,4,2,-2,2021-08-06 13:41:31,135812
0,2,5,5,-2,-1,-2,1,2021-08-06 13:41:31,150812
0,2,4,8,8,3,4,1,2021-08-06 13:41:31,150812
-2,-1,-1,3,-2,-2,-1,-1,2021-08-06 13:41:31,150812
2,1,-3,-10,-2,0,-1,0,2021-08-06 13:41:31,150812
-5,-8,-9,-19,-18,-6,-4,-4,2021-08-06 13:41:31,166812
-3,-3,-7,-5,-4,-6,-3,-3,2021-08-06 13:41:31,166812
-3,-2,1,-1,-3,-5,-3,-3,2021-08-06 13:41:31,166812
0,2,0,8,8,7,4,1,2021-08-06 13:41:31,166812
1,0,2,10,11,5,3,1,2021-08-06 13:41:31,198813
2,4,5,9,7,4,2,1,2021-08-06 13:41:31,198813
-2,-2,-1,-5,-6,-4,-2,-2,2021-08-06 13:41:31,198813
-3,-5,-8,-21,-17,-12,-6,-4,2021-08-06 13:41:31,198813
-3,-3,-10,-9,-5,-5,-4,-3,2021-08-06 13:41:31,214812
-2,-2,0,0,5,4,1,-1,2021-08-06 13:41:31,230812
1,1,4,10,2,0,-1,-1,2021-08-06 13:41:31,230812
-1,-3,1,4,-3,-4,-4,0,2021-08-06 13:41:31,230812
2,-1,3,-1,-8,-2,1,0,2021-08-06 13:41:31,230812
3,3,6,15,23,13,5,1,2021-08-06 13:41:31,230812
-1,-4,-11,-17,-2,-1,0,-2,2021-08-06 13:41:31,230812
-5,-7,-10,-14,-10,-5,-6,-5,2021-08-06 13:41:31,230812
0,2,1,3,5,0,0,0,2021-08-06 13:41:31,246812
0,0,2,1,-10,-7,-3,0,2021-08-06 13:41:31,246812
0,2,6,6,1,3,3,1,2021-08-06 13:41:31,262812
-2,-3,-1,0,-2,-3,-3,-4,2021-08-06 13:41:31,278814
1,-1,-1,0,7,6,2,0,2021-08-06 13:41:31,293811
-2,-5,-3,-12,-10,-6,-2,-3,2021-08-06 13:41:31,293811
-2,-2,-6,3,4,1,-2,-1,2021-08-06 13:41:31,293811
0,1,-1,1,-4,-2,-1,0,2021-08-06 13:41:31,293811
0,1,3,-4,2,1,0,1,2021-08-06 13:41:31,293811
0,1,1,-2,-3,0,-2,0,2021-08-06 13:41:31,293811
1,-1,1,1,1,-1,0,1,2021-08-06 13:41:31,293811
0,-1,-4,10,11,5,2,0,2021-08-06 13:41:31,293811
-2,-1,-1,-9,-5,-1,-2,-2,2021-08-06 13:41:31,308813
-2,-3,-10,-10,-10,-4,-3,-3,2021-08-06 13:41:31,308813
-1,-2,-1,-3,-10,-6,-4,-3,2021-08-06 13:41:31,308813
2,2,6,8,11,5,3,1,2021-08-06 13:41:31,308813
4,3,4,8,7,6,4,2,2021-08-06 13:41:31,324812
-1,-1,1,4,1,-1,-1,-1,2021-08-06 13:41:31,324812
0,-2,-4,-5,-2,1,-2,-1,2021-08-06 13:41:31,324812
-2,-3,-3,-12,-11,-5,-4,-3,2021-08-06 13:41:31,324812
0,-2,-2,-1,-4,-2,-2,0,2021-08-06 13:41:31,340814
0,1,2,5,1,-1,0,0,2021-08-06 13:41:31,340814
1,1,0,6,9,7,2,2,2021-08-06 13:41:31,356811
-2,-4,-5,-13,-14,-8,-5,-3,2021-08-06 13:41:31,372811
-2,0,2,8,10,4,1,-1,2021-08-06 13:41:31,388812
0,-1,0,3,0,-1,-1,-1,2021-08-06 13:41:31,404811
0,1,-1,1,-4,-4,-3,-1,2021-08-06 13:41:31,404811
-1,0,1,-6,2,1,-1,0,2021-08-06 13:41:31,404811
-2,-1,-5,-8,-8,-5,-3,-1,2021-08-06 13:41:31,420811
-2,-1,-3,1,1,1,1,-2,2021-08-06 13:41:31,420811
1,1,1,4,2,2,0,0,2021-08-06 13:41:31,420811
1,2,3,1,0,-1,1,3,2021-08-06 13:41:31,420811
2,-1,-3,-2,4,4,2,3,2021-08-06 13:41:31,420811
-2,-5,-4,-10,-5,-4,-1,-2,2021-08-06 13:41:31,420811
-3,-4,1,-2,-7,-5,-4,-3,2021-08-06 13:41:31,420811
-2,-1,-1,5,2,1,0,-2,2021-08-06 13:41:31,420811
-2,-2,0,2,-3,-2,-3,-3,2021-08-06 13:41:31,420811
-1,0,0,-5,-7,-7,-5,-2,2021-08-06 13:41:31,420811
2,3,2,4,12,5,3,2,2021-08-06 13:41:31,436813
3,2,4,12,8,5,3,2,2021-08-06 13:41:31,436813
0,-3,-5,-7,-5,-3,-2,-1,2021-08-06 13:41:31,452811
-1,-2,-4,-11,-3,0,0,0,2021-08-06 13:41:31,452811
-3,-3,-2,-1,-5,-5,-4,-3,2021-08-06 13:41:31,452811
1,1,5,3,0,-1,1,1,2021-08-06 13:41:31,452811
1,1,3,8,1,-1,0,1,2021-08-06 13:41:31,468812
0,0,-11,-10,-2,2,0,0,2021-08-06 13:41:31,468812
-4,-4,-7,-16,-10,-6,-4,-3,2021-08-06 13:41:31,484812
-1,0,-3,5,5,1,2,0,2021-08-06 13:41:31,500812
-1,-1,6,9,2,0,-2,-1,2021-08-06 13:41:31,516812
-3,-1,6,6,-4,-4,-2,-1,2021-08-06 13:41:31,516812
3,3,-1,4,16,13,6,2,2021-08-06 13:41:31,516812
-2,-2,-4,-8,-8,-4,-3,-2,2021-08-06 13:41:31,516812
-2,-2,-9,-13,-10,-6,-2,-2,2021-08-06 13:41:31,516812
-2,0,4,5,5,2,-1,1,2021-08-06 13:41:31,516812
-3,-3,0,1,-8,-6,-3,-2,2021-08-06 13:41:31,517813
-1,-2,-1,2,2,1,-1,1,2021-08-06 13:41:31,517813
2,2,3,13,7,3,2,-1,2021-08-06 13:41:31,532812
0,0,-5,-11,-4,-2,-2,-3,2021-08-06 13:41:31,547813
-1,-4,-5,-12,-11,-7,-2,-1,2021-08-06 13:41:31,559812
-3,-5,-3,-5,-12,-6,-4,-3,2021-08-06 13:41:31,559812
-1,1,1,6,8,2,1,0,2021-08-06 13:41:31,559812
2,0,4,8,8,4,3,1,2021-08-06 13:41:31,560812
-2,0,0,0,1,-2,-1,0,2021-08-06 13:41:31,560812
-2,-2,-5,-6,-5,-2,-2,-2,2021-08-06 13:41:31,560812
1,0,0,0,11,6,2,1,2021-08-06 13:41:31,579814
0,-1,1,0,-6,-2,-1,0,2021-08-06 13:41:31,579814
0,-1,-2,-4,0,-2,-2,0,2021-08-06 13:41:31,579814
-1,-2,-1,6,9,4,1,1,2021-08-06 13:41:31,579814
-5,-2,-2,-5,-12,-7,-4,-4,2021-08-06 13:41:31,595814
-2,0,3,6,2,3,0,1,2021-08-06 13:41:31,611812
2,2,7,10,11,8,3,0,2021-08-06 13:41:31,627811
-2,-2,-2,-15,-7,-2,-2,-3,2021-08-06 13:41:31,627811
0,-3,-8,-11,-10,-4,0,-1,2021-08-06 13:41:31,627811
-2,-2,-1,1,0,-1,-1,-2,2021-08-06 13:41:31,627811
-3,-3,-2,1,-11,-8,-5,-3,2021-08-06 13:41:31,627811
2,3,1,6,8,5,2,1,2021-08-06 13:41:31,627811
-1,0,4,4,7,4,2,0,2021-08-06 13:41:31,627811
0,0,1,0,4,2,2,0,2021-08-06 13:41:31,627811
-1,1,2,2,-4,-2,0,0,2021-08-06 13:41:31,643813
-1,-1,-1,-6,-6,-4,-2,-1,2021-08-06 13:41:31,643813
-2,-3,-11,-12,-12,-7,-4,-3,2021-08-06 13:41:31,659811
-1,0,-1,-1,-3,-2,-1,-1,2021-08-06 13:41:31,674811
-1,-1,-2,0,5,1,-1,0,2021-08-06 13:41:31,689811
-3,0,4,9,2,0,2,-1,2021-08-06 13:41:31,705811
0,0,2,8,3,1,0,2,2021-08-06 13:41:31,721812
0,-3,-7,-19,-8,-2,-2,0,2021-08-06 13:41:31,721812
0,-5,-8,-15,-4,-3,-3,-1,2021-08-06 13:41:31,721812
-3,-3,-5,-3,-8,-7,-5,-2,2021-08-06 13:41:31,721812
-4,0,6,7,-2,-1,-3,0,2021-08-06 13:41:31,721812
1,1,6,13,9,2,1,1,2021-08-06 13:41:31,721812
-1,0,-4,0,-4,-2,1,1,2021-08-06 13:41:31,721812
-1,-1,0,-7,-1,-1,0,-1,2021-08-06 13:41:31,722813
-4,-5,-7,-12,-11,-10,-5,-6,2021-08-06 13:41:31,722813
1,0,2,0,4,4,1,-1,2021-08-06 13:41:31,722813
3,1,6,10,12,8,4,1,2021-08-06 13:41:31,722813
0,-1,1,4,-1,-1,0,0,2021-08-06 13:41:31,722813
0,-1,-2,-3,1,0,-2,0,2021-08-06 13:41:31,722813
-2,-5,-9,-10,-8,-7,-5,-3,2021-08-06 13:41:31,722813
-1,0,1,-2,-2,-1,0,0,2021-08-06 13:41:31,737811
1,-1,0,4,-1,-1,-1,0,2021-08-06 13:41:31,737811
3,4,7,2,6,7,4,3,2021-08-06 13:41:31,753811
0,0,-3,4,7,2,1,1,2021-08-06 13:41:31,769813
-1,-1,1,1,-2,-3,-1,0,2021-08-06 13:41:31,769813
-1,-2,-2,0,-4,-3,-2,-2,2021-08-06 13:41:31,769813
-1,-3,-3,-10,-8,-4,-1,-2,2021-08-06 13:41:31,769813
3,5,3,6,4,5,3,2,2021-08-06 13:41:31,769813
0,-1,-2,-5,1,2,0,0,2021-08-06 13:41:31,769813
-5,-5,-7,-12,-14,-8,-6,-2,2021-08-06 13:41:31,769813
-1,-5,-5,-4,-6,-4,-2,-2,2021-08-06 13:41:31,801812
-2,-2,-4,-1,-1,0,-1,-1,2021-08-06 13:41:31,801812
-1,1,4,4,2,2,0,-1,2021-08-06 13:41:31,801812
3,3,6,9,14,9,4,2,2021-08-06 13:41:31,801812
-1,2,5,6,0,-3,-3,-1,2021-08-06 13:41:31,817812
2,0,1,-4,-1,-1,0,1,2021-08-06 13:41:31,817812
-1,-1,-11,-11,-6,-5,-2,-1,2021-08-06 13:41:31,817812
-1,2,2,-1,-1,-2,-3,0,2021-08-06 13:41:31,817812
-1,-3,0,-2,-3,0,-2,0,2021-08-06 13:41:31,833813
0,2,2,14,11,4,1,0,2021-08-06 13:41:31,833813
-3,-3,0,1,-5,-4,-3,-3,2021-08-06 13:41:31,833813
3,2,-2,-9,3,5,4,4,2021-08-06 13:41:31,833813
-1,-1,1,5,-1,-2,-1,-2,2021-08-06 13:41:31,849812
-1,-2,0,0,-8,-6,-4,-1,2021-08-06 13:41:31,849812
0,-1,-2,-6,2,-1,-2,0,2021-08-06 13:41:31,849812
-3,-5,-7,-9,-14,-11,-5,-4,2021-08-06 13:41:31,849812
3,4,0,3,15,10,5,5,2021-08-06 13:41:31,865812
0,0,-3,-1,0,0,1,-1,2021-08-06 13:41:31,865812
-2,-3,-5,-1,-8,-6,-2,-4,2021-08-06 13:41:31,881829
1,0,4,5,6,2,1,1,2021-08-06 13:41:31,881829
0,-1,-4,-3,-2,-2,-1,-2,2021-08-06 13:41:31,897829
-3,-4,-5,-12,-7,-3,-1,-1,2021-08-06 13:41:31,897829
0,1,5,5,6,2,0,0,2021-08-06 13:41:31,897829
0,1,-3,0,1,0,1,-1,2021-08-06 13:41:31,897829
-4,-1,3,2,-8,-4,-3,-2,2021-08-06 13:41:31,913830
3,1,3,7,16,7,2,3,2021-08-06 13:41:31,913830
-1,-1,-5,0,0,1,0,0,2021-08-06 13:41:31,913830
-2,-3,-3,-3,-7,-6,-5,-1,2021-08-06 13:41:31,913830
-1,-2,-5,-15,-11,-6,-4,-3,2021-08-06 13:41:31,926829
-3,0,-2,-8,-10,-5,-3,-2,2021-08-06 13:41:31,927832
3,1,2,8,3,2,1,1,2021-08-06 13:41:31,945831
-2,0,1,15,8,4,1,-3,2021-08-06 13:41:31,945831
-1,-2,-6,-10,-8,-5,-2,-2,2021-08-06 13:41:31,961830
-3,-5,-6,-17,-15,-9,-4,-3,2021-08-06 13:41:31,977829
-1,0,0,2,2,3,2,1,2021-08-06 13:41:31,977829
1,4,9,7,6,5,2,1,2021-08-06 13:41:31,977829
0,-2,-1,3,1,-1,-2,0,2021-08-06 13:41:31,977829
-4,-4,-11,-6,-9,-7,-4,-3,2021-08-06 13:41:31,977829
-2,-1,-1,-3,-5,-5,-3,-2,2021-08-06 13:41:31,977829
0,0,0,-2,-6,-2,0,-1,2021-08-06 13:41:31,977829
1,3,7,10,13,9,4,3,2021-08-06 13:41:31,993830
-1,-1,-1,-6,-5,-1,0,-2,2021-08-06 13:41:32,008828
0,-2,-1,0,-2,-2,-1,-2,2021-08-06 13:41:32,008828
0,0,0,0,0,-2,0,-1,2021-08-06 13:41:32,008828
-2,-2,-5,-2,-2,-4,-1,-2,2021-08-06 13:41:32,008828
0,0,1,3,-2,-4,-2,-3,2021-08-06 13:41:32,008828
0,1,3,-1,0,4,2,1,2021-08-06 13:41:32,008828
-1,-4,-6,-9,-5,-2,-2,-2,2021-08-06 13:41:32,008828
-1,-3,-2,-4,-1,-3,-2,-2,2021-08-06 13:41:32,023829
-1,-1,-2,1,-5,-4,-2,-2,2021-08-06 13:41:32,023829
-2,-1,2,1,-2,0,-2,-1,2021-08-06 13:41:32,039828
1,1,3,8,5,0,-1,0,2021-08-06 13:41:32,054829
0,-1,-3,-7,-5,-4,-3,-1,2021-08-06 13:41:32,054829
-1,-1,-3,-1,0,2,1,1,2021-08-06 13:41:32,054829
-3,-3,-2,-4,-2,-2,-3,-3,2021-08-06 13:41:32,054829
-2,-1,-8,-4,-6,-2,0,0,2021-08-06 13:41:32,054829
0,0,5,13,7,0,1,-2,2021-08-06 13:41:32,086828
-1,-2,1,-7,-11,-5,-2,-1,2021-08-06 13:41:32,087069
3,3,0,0,19,10,4,3,2021-08-06 13:41:32,087069
-2,-1,-1,2,2,0,0,0,2021-08-06 13:41:32,087069
-3,-4,-4,-10,-13,-7,-3,-1,2021-08-06 13:41:32,087069
1,-2,3,7,4,1,-3,-1,2021-08-06 13:41:32,087069
0,0,0,-1,-1,0,1,1,2021-08-06 13:41:32,102346
-1,-3,-9,-7,-3,-2,0,-1,2021-08-06 13:41:32,102346
-1,2,2,7,10,6,3,2,2021-08-06 13:41:32,117346
1,0,2,5,2,-2,-1,0,2021-08-06 13:41:32,117346
-1,-3,-3,-4,-9,-7,-3,-1,2021-08-06 13:41:32,117346
2,-1,0,-8,-4,-3,-1,1,2021-08-06 13:41:32,117346
-1,-1,2,2,0,2,-1,0,2021-08-06 13:41:32,133385
-2,-1,-3,-2,1,0,1,1,2021-08-06 13:41:32,133385
-2,-2,-4,0,-2,-3,-3,-2,2021-08-06 13:41:32,133385
0,-1,2,1,0,1,-1,1,2021-08-06 13:41:32,133385
1,-1,-3,-6,1,1,1,1,2021-08-06 13:41:32,149344
0,0,4,3,5,1,0,1,2021-08-06 13:41:32,149344
-2,-1,-3,-1,-10,-6,-2,-2,2021-08-06 13:41:32,149344
-2,-2,-3,-8,-4,-2,-3,-2,2021-08-06 13:41:32,149344
-1,-1,2,1,5,4,1,0,2021-08-06 13:41:32,165395
0,2,-2,5,7,5,2,0,2021-08-06 13:41:32,165395
-2,-1,-3,-2,0,-1,0,-1,2021-08-06 13:41:32,181344
-1,0,0,2,-3,-4,-1,-1,2021-08-06 13:41:32,197345
0,-1,-5,-8,-10,-7,-1,0,2021-08-06 13:41:32,213345
3,2,3,4,9,6,5,3,2021-08-06 13:41:32,213345
1,-1,-3,2,0,1,0,0,2021-08-06 13:41:32,213345
-4,-5,-1,-4,-3,-3,-3,-2,2021-08-06 13:41:32,213345
-6,-6,-4,-5,-9,-7,-5,-5,2021-08-06 13:41:32,229344
-4,1,-2,3,3,1,1,0,2021-08-06 13:41:32,245345
-3,0,9,7,3,0,-3,-1,2021-08-06 13:41:32,261345
0,1,-3,0,1,-1,-1,-1,2021-08-06 13:41:32,277344
2,-1,-5,-5,1,3,3,2,2021-08-06 13:41:32,290344
-1,-2,0,-7,-4,-2,-1,-1,2021-08-06 13:41:32,290344
-1,0,-2,0,-2,-1,1,0,2021-08-06 13:41:32,290344
-1,1,-1,1,-3,-1,0,-1,2021-08-06 13:41:32,291345
0,1,4,8,12,7,2,0,2021-08-06 13:41:32,291345
-1,-3,-1,3,-2,-3,-1,-1,2021-08-06 13:41:32,291345
-1,-1,-1,-7,-4,-1,-1,0,2021-08-06 13:41:32,291345
0,-2,-4,-5,-9,-5,-1,-2,2021-08-06 13:41:32,291345
0,2,4,9,15,9,3,3,2021-08-06 13:41:32,291345
-1,-2,-2,-5,1,1,1,1,2021-08-06 13:41:32,291345
1,0,-5,-2,-1,0,-1,-1,2021-08-06 13:41:32,291345
-3,-4,-3,-2,-2,-4,-3,-2,2021-08-06 13:41:32,291345
1,-1,0,-4,-9,-6,-3,-3,2021-08-06 13:41:32,292346
-2,0,1,-2,-3,-3,-2,-3,2021-08-06 13:41:32,292346
-2,-1,-2,-2,-1,-2,0,-1,2021-08-06 13:41:32,292346
2,3,2,4,7,4,3,1,2021-08-06 13:41:32,292346
0,-2,-1,3,-5,-1,0,-1,2021-08-06 13:41:32,323345
-4,-3,0,-1,-10,-8,-7,-3,2021-08-06 13:41:32,339345
-3,-1,-11,-16,-9,-5,-2,0,2021-08-06 13:41:32,339345
0,-2,1,5,6,3,2,1,2021-08-06 13:41:32,339345
-1,0,0,-5,-1,-1,-2,-2,2021-08-06 13:41:32,339345
0,-2,0,-3,-5,-2,1,-1,2021-08-06 13:41:32,339345
2,1,5,9,6,2,1,-1,2021-08-06 13:41:32,339345
-1,-1,1,3,0,0,-1,1,2021-08-06 13:41:32,340348
0,1,3,14,8,3,1,1,2021-08-06 13:41:32,355348
-1,0,-1,-1,1,2,0,-1,2021-08-06 13:41:32,355348
-1,-2,-10,-19,-11,-8,-5,-4,2021-08-06 13:41:32,355348
-1,-4,-3,-6,-5,1,-1,-1,2021-08-06 13:41:32,355348
1,2,2,3,7,5,3,1,2021-08-06 13:41:32,386383
-1,-3,-2,1,-2,-2,-4,-3,2021-08-06 13:41:32,402346
-2,-1,5,7,-1,-2,1,0,2021-08-06 13:41:32,402346
-2,-2,-3,-4,-6,-4,-3,-3,2021-08-06 13:41:32,402346
-1,1,-3,-6,-8,-5,-1,-2,2021-08-06 13:41:32,402346
1,-1,2,1,-1,1,2,1,2021-08-06 13:41:32,402346
1,0,1,4,7,2,0,0,2021-08-06 13:41:32,402346
2,0,-3,-3,5,4,1,0,2021-08-06 13:41:32,417367
1,1,0,-4,1,0,-2,-2,2021-08-06 13:41:32,433394
-1,1,-1,3,-1,-3,-2,-1,2021-08-06 13:41:32,433394
3,3,7,11,6,5,2,2,2021-08-06 13:41:32,433394
1,0,0,-6,-2,-1,1,-1,2021-08-06 13:41:32,433394
-6,-4,-8,-6,-11,-10,-5,-3,2021-08-06 13:41:32,433394
-4,-3,-4,-5,-2,-1,-3,-1,2021-08-06 13:41:32,433394
2,1,0,3,8,8,3,1,2021-08-06 13:41:32,449348
-2,-3,-1,1,-1,-4,-3,-1,2021-08-06 13:41:32,449348
-2,-2,-4,-5,-9,-6,-3,-3,2021-08-06 13:41:32,449348
-2,0,0,0,-1,-2,-2,-1,2021-08-06 13:41:32,449348
-1,0,1,-1,0,2,-1,-1,2021-08-06 13:41:32,449348
1,3,1,0,4,3,1,1,2021-08-06 13:41:32,449348
-1,-4,-3,-2,-2,-1,0,-2,2021-08-06 13:41:32,481344
-1,-1,-2,2,-4,-2,-2,-3,2021-08-06 13:41:32,481344
0,-3,1,1,-1,0,0,-1,2021-08-06 13:41:32,481344
0,1,4,0,0,1,1,-1,2021-08-06 13:41:32,481344
-1,0,-8,-11,-7,-4,-2,-1,2021-08-06 13:41:32,497345
0,0,1,6,12,7,1,1,2021-08-06 13:41:32,497345
-4,-3,-2,-1,-9,-8,-4,-3,2021-08-06 13:41:32,497345
-2,-1,-1,2,-1,0,-1,-3,2021-08-06 13:41:32,497345
-1,1,4,-6,-1,1,0,0,2021-08-06 13:41:32,529344
-1,-1,-3,-7,-5,-3,-2,-2,2021-08-06 13:41:32,529344
-3,0,1,-1,1,0,-2,-1,2021-08-06 13:41:32,529344
-3,-2,-4,2,-4,-6,-4,-3,2021-08-06 13:41:32,529344
2,3,7,14,10,5,2,0,2021-08-06 13:41:32,529344
1,1,-2,-4,3,1,2,0,2021-08-06 13:41:32,529344
0,-3,-6,-11,-8,-2,0,0,2021-08-06 13:41:32,544344
-3,-4,-3,-7,-9,-7,-5,-3,2021-08-06 13:41:32,544344
2,2,2,13,18,9,4,2,2021-08-06 13:41:32,559345
1,0,1,3,1,0,-1,0,2021-08-06 13:41:32,575345
0,1,4,4,3,2,0,-1,2021-08-06 13:41:32,575345
-2,-1,-6,-10,-7,-4,-1,1,2021-08-06 13:41:32,575345
-3,-5,-2,-6,-10,-7,-4,-3,2021-08-06 13:41:32,590344
0,0,5,10,3,1,1,0,2021-08-06 13:41:32,590344
-1,-2,-2,-1,-3,-3,-2,-1,2021-08-06 13:41:32,590344
1,-1,-3,-7,7,9,4,3,2021-08-06 13:41:32,590344
-1,0,2,7,1,0,-1,1,2021-08-06 13:41:32,590344
-1,-1,-2,1,0,-1,1,-2,2021-08-06 13:41:32,590344
-3,-2,-1,-5,-11,-6,-4,-3,2021-08-06 13:41:32,605344
-3,-1,-4,-3,-5,-4,-1,-2,2021-08-06 13:41:32,605344
-2,-4,-6,-10,-7,-3,-3,-2,2021-08-06 13:41:32,621344
0,0,-1,-4,-3,0,-1,0,2021-08-06 13:41:32,621344
-2,0,2,7,10,4,0,1,2021-08-06 13:41:32,621344
0,1,2,9,4,0,-2,-2,2021-08-06 13:41:32,621344
-1,-1,1,7,0,0,0,1,2021-08-06 13:41:32,652345
2,2,-3,-5,0,1,0,4,2021-08-06 13:41:32,652345
-4,-5,-5,-19,-17,-8,-2,-4,2021-08-06 13:41:32,667345
1,-1,-1,3,7,7,3,0,2021-08-06 13:41:32,669344
2,-1,0,0,-1,-2,-2,0,2021-08-06 13:41:32,670347
-1,0,3,3,2,1,1,-1,2021-08-06 13:41:32,670347
0,0,4,7,1,-4,-1,0,2021-08-06 13:41:32,670347
0,1,-1,-4,3,1,0,-1,2021-08-06 13:41:32,670347
-2,-1,-7,-6,-6,-4,-1,-1,2021-08-06 13:41:32,670347
1,-2,0,1,3,2,0,0,2021-08-06 13:41:32,670347
-2,-2,-4,-1,4,-1,-1,-2,2021-08-06 13:41:32,682344
-1,-1,9,10,3,2,0,1,2021-08-06 13:41:32,697347
-1,0,2,6,0,1,-1,0,2021-08-06 13:41:32,697347
-3,-4,-10,-24,-16,-9,-5,-3,2021-08-06 13:41:32,697347
-1,-1,-2,-4,1,0,0,-1,2021-08-06 13:41:32,697347
-1,0,2,8,6,2,1,-1,2021-08-06 13:41:32,697347
1,-1,-3,-3,-4,-1,0,0,2021-08-06 13:41:32,713346
-5,-6,-4,-2,-11,-10,-5,-6,2021-08-06 13:41:32,729345
3,3,-1,-1,3,4,1,3,2021-08-06 13:41:32,745345
-3,-2,5,0,-3,-3,-2,-2,2021-08-06 13:41:32,745345
-2,-2,3,3,4,2,-1,0,2021-08-06 13:41:32,745345
-1,-3,-11,-8,-5,-3,-3,-2,2021-08-06 13:41:32,745345
1,0,1,-1,6,4,2,0,2021-08-06 13:41:32,745345
0,0,1,2,-2,-3,-2,0,2021-08-06 13:41:32,745345
-1,0,2,-1,-6,-3,-2,-1,2021-08-06 13:41:32,761345
0,-2,3,6,3,3,1,1,2021-08-06 13:41:32,777344
0,-1,-2,-1,-2,-2,-1,0,2021-08-06 13:41:32,809345
-1,-1,-4,-1,2,2,0,-3,2021-08-06 13:41:32,825344
-3,-3,-3,-3,-7,-6,-4,-4,2021-08-06 13:41:32,841346
0,-2,-3,-13,-2,2,1,0,2021-08-06 13:41:32,841346
-2,-2,0,2,-7,-5,-3,-3,2021-08-06 13:41:32,841346
0,0,-3,-4,-2,-3,0,1,2021-08-06 13:41:32,841346
1,0,2,1,4,5,3,0,2021-08-06 13:41:32,841346
0,2,5,11,7,3,1,0,2021-08-06 13:41:32,842345
-1,0,-2,0,-1,1,0,1,2021-08-06 13:41:32,842345
1,-2,-3,0,-2,-1,-2,0,2021-08-06 13:41:32,842345
-4,-3,-3,-4,-7,-6,-3,-3,2021-08-06 13:41:32,842345
0,1,0,2,2,3,0,-2,2021-08-06 13:41:32,842345
-1,0,8,6,1,1,-1,-1,2021-08-06 13:41:32,842345
-1,-2,-6,-9,-5,-3,0,-1,2021-08-06 13:41:32,842345
1,-4,-13,-15,-4,0,-2,-3,2021-08-06 13:41:32,842345
-2,-3,3,5,2,-1,0,-2,2021-08-06 13:41:32,842345
0,-2,0,4,5,0,0,-1,2021-08-06 13:41:32,843346
1,1,3,2,-6,-2,1,1,2021-08-06 13:41:32,843346
0,-1,6,5,5,3,1,1,2021-08-06 13:41:32,857344
-3,0,-6,-2,-3,-3,-1,-1,2021-08-06 13:41:32,873344
-3,-2,-9,-13,-7,-6,-3,-2,2021-08-06 13:41:32,873344
-1,-1,3,-1,-3,-1,-1,-2,2021-08-06 13:41:32,873344
0,1,2,3,3,0,1,-1,2021-08-06 13:41:32,873344
-1,-1,1,4,2,1,-1,1,2021-08-06 13:41:32,873344
2,0,0,9,14,9,5,2,2021-08-06 13:41:32,889344
-1,-1,-4,0,-4,-3,-2,-2,2021-08-06 13:41:32,905344
-3,-2,-2,-10,-11,-8,-4,-3,2021-08-06 13:41:32,921344
-1,-2,-2,-6,-7,-2,-1,-2,2021-08-06 13:41:32,937344
-2,-3,-7,-7,-1,-2,-2,-2,2021-08-06 13:41:32,937344
-1,-1,1,-2,3,0,0,-1,2021-08-06 13:41:32,937344
-1,1,5,11,1,-1,-1,0,2021-08-06 13:41:32,937344
-1,0,-5,-4,-6,-3,-2,0,2021-08-06 13:41:32,937344
2,0,-3,-8,1,1,-1,1,2021-08-06 13:41:32,937344
-2,-1,-5,-2,-3,0,-3,-2,2021-08-06 13:41:32,937344
-2,1,1,2,5,2,0,1,2021-08-06 13:41:32,937344
0,1,5,3,-4,-2,-2,-1,2021-08-06 13:41:32,938346
2,1,3,7,9,5,4,1,2021-08-06 13:41:32,952344
-4,-4,-3,-2,-8,-6,-5,-3,2021-08-06 13:41:32,967345
-2,-2,-3,-9,-1,-2,-2,-1,2021-08-06 13:41:32,983344
4,2,-1,0,8,5,5,5,2021-08-06 13:41:32,983344
-1,0,0,-4,-9,-5,-3,-3,2021-08-06 13:41:32,983344
-4,-4,-4,-6,-6,-6,-4,-3,2021-08-06 13:41:32,983344
0,-2,-3,-4,-6,-2,-1,-2,2021-08-06 13:41:32,983344
-5,-4,-1,-4,-9,-7,-4,-4,2021-08-06 13:41:32,983344
1,1,2,13,7,4,3,1,2021-08-06 13:41:32,983344
2,3,2,3,11,9,4,2,2021-08-06 13:41:32,983344
1,1,4,9,5,4,1,2,2021-08-06 13:41:32,999348
-1,2,4,8,8,3,1,0,2021-08-06 13:41:32,999348
-3,-5,-4,-19,-18,-11,-8,-3,2021-08-06 13:41:32,999348
1,-4,-18,-14,-4,-3,-1,0,2021-08-06 13:41:32,999348
-3,-3,-4,-9,-8,-5,-3,-2,2021-08-06 13:41:33,015347
-2,-3,4,1,-5,-3,-3,-3,2021-08-06 13:41:33,031345
2,3,11,26,15,7,0,1,2021-08-06 13:41:33,034346
2,4,8,4,9,7,2,2,2021-08-06 13:41:33,035346
1,3,-3,-6,1,4,3,1,2021-08-06 13:41:33,035346
-2,-4,-6,-6,-5,-8,-4,-4,2021-08-06 13:41:33,035346
-3,-3,-6,-6,-12,-10,-5,-4,2021-08-06 13:41:33,035346
-1,-2,2,7,-3,-2,-4,0,2021-08-06 13:41:33,035346
1,1,-4,-5,-1,1,-1,2,2021-08-06 13:41:33,063346
1,0,-3,-4,1,2,3,2,2021-08-06 13:41:33,063346
1,-2,-3,-1,0,2,3,2,2021-08-06 13:41:33,079345
-2,-2,3,4,-2,-2,-1,-1,2021-08-06 13:41:33,079345
-3,-5,-3,-4,-7,-4,-3,-4,2021-08-06 13:41:33,079345
-3,-3,-4,-3,4,2,-2,-2,2021-08-06 13:41:33,079345
-3,0,-2,1,-3,-2,-3,-3,2021-08-06 13:41:33,079345
2,0,6,5,4,1,1,-2,2021-08-06 13:41:33,079345
3,2,3,2,5,3,3,2,2021-08-06 13:41:33,095345
1,-1,-3,-3,-5,-2,0,-1,2021-08-06 13:41:33,095345
-2,-2,-1,-2,-5,-3,-1,-1,2021-08-06 13:41:33,095345
-1,1,-3,6,3,1,2,0,2021-08-06 13:41:33,095345
-1,-3,-4,1,-7,-6,-4,-1,2021-08-06 13:41:33,127345
-3,-2,-6,-17,-6,-4,-3,-1,2021-08-06 13:41:33,127345
-2,-4,-3,-9,-5,-4,-4,-2,2021-08-06 13:41:33,127345
0,0,3,-3,-5,-3,0,0,2021-08-06 13:41:33,127345
1,1,2,6,2,1,-1,0,2021-08-06 13:41:33,127345
0,1,-1,8,3,2,1,1,2021-08-06 13:41:33,127345
-3,-5,-2,-4,-6,-4,-2,-1,2021-08-06 13:41:33,142345
-3,-3,-3,-3,-2,-3,-3,-3,2021-08-06 13:41:33,142345
3,2,2,8,13,8,6,2,2021-08-06 13:41:33,158344
2,3,8,14,11,6,1,1,2021-08-06 13:41:33,173344
-1,2,-2,-7,-7,-2,0,0,2021-08-06 13:41:33,173344
-5,-4,-9,-15,-6,-6,-3,-2,2021-08-06 13:41:33,173344
-2,-1,-1,-3,-3,-2,1,0,2021-08-06 13:41:33,173344
0,0,2,2,2,1,2,0,2021-08-06 13:41:33,173344
1,1,3,10,2,0,-1,1,2021-08-06 13:41:33,173344
-2,0,2,4,-2,-2,-3,-3,2021-08-06 13:41:33,173344
2,1,0,-2,4,7,3,0,2021-08-06 13:41:33,189344
-1,-3,-2,-2,-1,-1,-2,-1,2021-08-06 13:41:33,205344
-2,-2,-8,-8,-3,0,-1,-1,2021-08-06 13:41:33,221344
-4,-4,-7,-17,-19,-12,-6,-4,2021-08-06 13:41:33,221344
-3,-3,1,5,2,-5,-3,-2,2021-08-06 13:41:33,221344
0,3,3,13,12,8,3,0,2021-08-06 13:41:33,221344
3,4,5,6,6,4,4,1,2021-08-06 13:41:33,237371
1,0,2,4,3,4,1,2,2021-08-06 13:41:33,237371
-4,-4,-6,-7,-10,-6,-3,-4,2021-08-06 13:41:33,237371
-1,-4,-4,-8,-8,-6,-2,-1,2021-08-06 13:41:33,237371
-2,-3,0,0,-3,-2,-3,-1,2021-08-06 13:41:33,237371
3,2,0,1,6,3,2,3,2021-08-06 13:41:33,237371
-2,-1,-3,2,-1,0,0,-1,2021-08-06 13:41:33,252372
-2,-1,-1,1,-1,-3,-2,-1,2021-08-06 13:41:33,267371
0,0,0,-9,-7,-4,-2,-1,2021-08-06 13:41:33,267371
0,0,2,-1,0,1,0,-1,2021-08-06 13:41:33,267371
-1,-1,-4,-4,1,0,-3,0,2021-08-06 13:41:33,267371
-4,-3,-6,-7,-9,-4,-3,-4,2021-08-06 13:41:33,267371
-1,-1,2,4,5,2,1,-3,2021-08-06 13:41:33,282373
-1,0,2,7,-1,0,0,1,2021-08-06 13:41:33,282373
0,-1,1,1,-4,-5,-3,0,2021-08-06 13:41:33,298371
0,0,-1,0,-5,-2,-2,1,2021-08-06 13:41:33,314371
-1,-1,-4,-23,-9,-3,-2,-1,2021-08-06 13:41:33,330371
-3,-6,-10,-7,-5,-4,-3,-2,2021-08-06 13:41:33,330371
0,-4,-5,1,-1,-1,-2,-1,2021-08-06 13:41:33,330371
2,2,6,12,5,1,2,0,2021-08-06 13:41:33,330371
0,-1,4,17,9,4,3,0,2021-08-06 13:41:33,330371
-3,-2,-6,-13,-12,-6,-1,-1,2021-08-06 13:41:33,330371
-3,-2,1,-5,-2,-4,-2,-2,2021-08-06 13:41:33,330371
0,1,1,6,7,6,2,2,2021-08-06 13:41:33,330371
2,3,6,12,15,8,4,3,2021-08-06 13:41:33,362373
3,2,-1,-2,1,3,0,0,2021-08-06 13:41:33,362373
-3,-7,-7,-14,-17,-11,-5,-3,2021-08-06 13:41:33,362373
-5,-5,-5,-12,-15,-11,-6,-5,2021-08-06 13:41:33,362373
-1,0,0,4,6,2,0,1,2021-08-06 13:41:33,362373
2,2,7,17,9,7,4,2,2021-08-06 13:41:33,362373
-1,2,1,-10,1,3,2,-1,2021-08-06 13:41:33,378371
0,1,-4,-11,-4,-1,-1,0,2021-08-06 13:41:33,394371
0,-1,-2,2,0,1,-2,-2,2021-08-06 13:41:33,402371
-3,-5,-3,-6,-7,-7,-3,-1,2021-08-06 13:41:33,402371
-1,0,-4,6,6,2,1,1,2021-08-06 13:41:33,402371
-2,-3,0,-6,-6,-5,-2,-1,2021-08-06 13:41:33,402371
0,-2,-1,2,1,1,-1,-1,2021-08-06 13:41:33,403373
1,2,0,3,8,4,3,0,2021-08-06 13:41:33,403373
-1,2,12,-2,-8,-3,-1,-2,2021-08-06 13:41:33,426372
-2,-3,-13,-10,0,-1,-1,-2,2021-08-06 13:41:33,426372
-4,-7,-15,-9,-10,-5,-1,0,2021-08-06 13:41:33,426372
-4,-1,4,6,7,2,-2,-3,2021-08-06 13:41:33,426372
0,1,1,8,5,3,0,0,2021-08-06 13:41:33,426372
0,3,8,4,-2,-1,0,0,2021-08-06 13:41:33,426372
0,3,4,5,3,1,-1,0,2021-08-06 13:41:33,442599
2,-2,-4,-9,-4,-2,0,1,2021-08-06 13:41:33,442599
-2,-1,2,-2,0,1,-1,-1,2021-08-06 13:41:33,457878
0,1,7,4,2,2,1,-2,2021-08-06 13:41:33,473879
-1,-2,-14,-2,-1,-3,-3,1,2021-08-06 13:41:33,489879
-4,-5,-5,-7,-7,-6,-3,-2,2021-08-06 13:41:33,489879
-1,-3,-7,-18,-15,-8,-5,-2,2021-08-06 13:41:33,489879
-1,-1,5,6,7,2,2,1,2021-08-06 13:41:33,489879
-2,0,-1,8,0,-2,0,-1,2021-08-06 13:41:33,489879
2,1,-1,-4,5,4,2,2,2021-08-06 13:41:33,489879
-3,-3,-7,-9,-9,-4,-3,-2,2021-08-06 13:41:33,505880
-2,-1,0,-3,-4,-3,-3,-2,2021-08-06 13:41:33,521879
3,3,6,2,9,8,5,3,2021-08-06 13:41:33,537878
-1,2,9,20,11,3,1,-2,2021-08-06 13:41:33,537878
0,-1,3,12,4,3,0,1,2021-08-06 13:41:33,537878
-2,-2,-5,-11,-5,-4,-3,-1,2021-08-06 13:41:33,537878
-2,-2,-4,-10,-13,-8,-5,-4,2021-08-06 13:41:33,537878
-1,0,1,-1,-4,1,-1,0,2021-08-06 13:41:33,537878
4,5,9,29,31,17,9,4,2021-08-06 13:41:33,537878
-1,-3,2,7,-4,-5,-2,-1,2021-08-06 13:41:33,538880
-7,-6,-7,-24,-17,-14,-8,-4,2021-08-06 13:41:33,538880
-2,-3,-17,-26,-13,-7,-2,-1,2021-08-06 13:41:33,538880
-1,-1,-1,22,1,-5,-3,-2,2021-08-06 13:41:33,568880
1,0,-2,5,8,6,1,2,2021-08-06 13:41:33,568880
-1,-1,0,-25,-6,3,1,-1,2021-08-06 13:41:33,568880
-3,-1,7,-5,-3,-2,-3,-1,2021-08-06 13:41:33,568880
0,1,2,6,2,0,0,2,2021-08-06 13:41:33,568880
2,1,3,24,8,2,3,1,2021-08-06 13:41:33,568880
2,0,-6,-13,-1,1,0,0,2021-08-06 13:41:33,583880
-6,-5,-8,-14,-14,-9,-5,-5,2021-08-06 13:41:33,583880
0,0,-3,-10,0,3,2,0,2021-08-06 13:41:33,598879
0,1,5,8,4,4,-1,1,2021-08-06 13:41:33,598879
2,5,11,29,23,14,8,2,2021-08-06 13:41:33,598879
2,3,5,9,2,-2,0,1,2021-08-06 13:41:33,598879
-3,-5,-10,-21,-19,-14,-7,-4,2021-08-06 13:41:33,630880
-5,-6,-10,-12,-14,-11,-7,-3,2021-08-06 13:41:33,646879
-3,-2,3,14,2,0,-1,0,2021-08-06 13:41:33,646879
4,6,1,0,18,13,6,4,2021-08-06 13:41:33,646879
-3,-4,-8,-13,-7,-3,-3,-2,2021-08-06 13:41:33,646879
-1,0,-2,-8,-3,0,-1,0,2021-08-06 13:41:33,646879
-3,-3,7,4,-3,-7,-5,-2,2021-08-06 13:41:33,646879
-1,-2,-1,10,3,0,-1,0,2021-08-06 13:41:33,646879
-1,-2,-8,-8,-9,-4,-3,-2,2021-08-06 13:41:33,678881
3,2,1,1,9,9,5,2,2021-08-06 13:41:33,694880
2,1,6,10,5,2,0,2,2021-08-06 13:41:33,710879
-2,0,12,21,5,-2,-4,-3,2021-08-06 13:41:33,710879
3,2,-4,-18,-4,2,1,1,2021-08-06 13:41:33,710879
-2,-3,-11,-17,1,0,0,-1,2021-08-06 13:41:33,710879
-7,-10,-12,-19,-26,-19,-10,-5,2021-08-06 13:41:33,710879
1,1,1,4,0,0,1,0,2021-08-06 13:41:33,710879
1,2,10,22,12,5,1,1,2021-08-06 13:41:33,710879
3,4,3,5,4,4,2,1,2021-08-06 13:41:33,711880
0,1,0,-5,-2,0,-1,1,2021-08-06 13:41:33,711880
-4,-3,-4,-10,-8,-7,-5,-5,2021-08-06 13:41:33,711880
0,0,-1,-1,2,2,2,0,2021-08-06 13:41:33,711880
0,-2,-6,-7,-5,-2,0,1,2021-08-06 13:41:33,711880
-1,-1,-5,3,0,-1,0,-2,2021-08-06 13:41:33,726879
-2,-5,-4,-2,-3,-3,-4,-1,2021-08-06 13:41:33,726879
-3,-3,3,0,-2,-2,-1,-1,2021-08-06 13:41:33,741878
1,2,4,6,13,6,3,1,2021-08-06 13:41:33,741878
-3,-2,-4,-2,-3,-3,-2,-5,2021-08-06 13:41:33,741878
0,0,2,6,1,-1,-1,0,2021-08-06 13:41:33,741878
1,1,3,6,6,4,0,0,2021-08-06 13:41:33,756878
-2,-2,-4,-15,-10,-7,-4,-2,2021-08-06 13:41:33,765879
0,1,-5,-8,-1,0,0,-1,2021-08-06 13:41:33,765879
-3,-4,-5,-5,-5,-3,-1,-3,2021-08-06 13:41:33,766880
-3,-1,-4,-9,-6,-7,-3,0,2021-08-06 13:41:33,788879
2,2,13,17,7,6,3,1,2021-08-06 13:41:33,804879
2,3,8,10,7,4,1,1,2021-08-06 13:41:33,820878
0,-4,-26,-29,-6,-3,0,-1,2021-08-06 13:41:33,820878
-5,-5,-7,-8,-13,-8,-6,-5,2021-08-06 13:41:33,820878
-3,-3,-2,-2,-8,-6,-4,-3,2021-08-06 13:41:33,820878
3,3,8,13,17,12,6,4,2021-08-06 13:41:33,820878
1,3,12,14,8,5,3,3,2021-08-06 13:41:33,820878
2,2,6,8,5,3,0,-1,2021-08-06 13:41:33,820878
-3,-2,-10,-7,-5,-5,-4,-2,2021-08-06 13:41:33,820878
-3,-4,-6,-10,-11,-7,-5,-3,2021-08-06 13:41:33,820878
-1,0,3,3,-2,-3,-1,-1,2021-08-06 13:41:33,821881
1,0,-1,-4,-1,0,2,2,2021-08-06 13:41:33,836880
-2,0,1,-3,-4,-2,-2,-3,2021-08-06 13:41:33,836880
0,1,-2,1,6,3,1,1,2021-08-06 13:41:33,836880
1,-2,0,-1,0,1,-1,-2,2021-08-06 13:41:33,836880
-4,-3,-6,-10,-15,-10,-5,-6,2021-08-06 13:41:33,866879
1,0,3,1,9,8,6,2,2021-08-06 13:41:33,882878
-4,-7,-13,-12,-13,-10,-4,-3,2021-08-06 13:41:33,898879
1,-1,-1,4,3,2,2,1,2021-08-06 13:41:33,898879
4,4,11,11,11,9,5,4,2021-08-06 13:41:33,898879
-3,-5,-6,-11,-17,-11,-8,-3,2021-08-06 13:41:33,898879
0,2,8,5,7,4,2,-1,2021-08-06 13:41:33,898879
0,1,8,8,4,1,-1,0,2021-08-06 13:41:33,898879
-1,-1,-12,-4,1,2,1,0,2021-08-06 13:41:33,898879
-3,-6,-11,-15,-19,-13,-6,-3,2021-08-06 13:41:33,898879
-1,-3,-3,-10,-4,-3,-2,-2,2021-08-06 13:41:33,899880
1,1,6,9,4,2,-1,0,2021-08-06 13:41:33,899880
0,1,12,17,15,6,3,1,2021-08-06 13:41:33,930880
0,0,-7,-8,3,2,2,-1,2021-08-06 13:41:33,930880
-3,-3,-2,-12,-15,-10,-4,-2,2021-08-06 13:41:33,930880
1,0,-5,-5,-7,-1,-1,-1,2021-08-06 13:41:33,930880
-1,0,-1,-4,0,-1,-2,0,2021-08-06 13:41:33,930880
2,2,3,12,9,4,2,1,2021-08-06 13:41:33,930880
0,1,1,10,4,3,2,1,2021-08-06 13:41:33,962879
-1,-1,3,2,3,5,2,1,2021-08-06 13:41:33,962879
-3,-4,-9,-4,6,2,-1,-3,2021-08-06 13:41:33,962879
-5,-4,-3,-2,-6,-5,-5,-3,2021-08-06 13:41:33,962879
-1,1,5,0,-3,-3,-4,-2,2021-08-06 13:41:33,962879
-1,0,1,2,1,-2,-2,-1,2021-08-06 13:41:33,962879
0,0,5,-1,-5,-4,-1,-3,2021-08-06 13:41:33,978879
2,2,4,10,-2,-2,0,1,2021-08-06 13:41:33,978879
1,-2,-12,-12,-7,-3,-1,-2,2021-08-06 13:41:33,978879
-1,-5,-9,-19,0,3,2,-2,2021-08-06 13:41:33,978879
-3,-6,-13,-14,-16,-12,-5,-3,2021-08-06 13:41:33,994881
0,-1,4,6,10,7,4,0,2021-08-06 13:41:34,010879
1,4,7,14,4,2,1,2,2021-08-06 13:41:34,010879
1,0,5,10,-3,0,0,1,2021-08-06 13:41:34,010879
5,6,6,5,13,7,4,3,2021-08-06 13:41:34,010879
-2,-2,-6,-4,-10,-8,-5,-4,2021-08-06 13:41:34,010879
-2,-3,-2,-9,-4,-1,0,1,2021-08-06 13:41:34,025878
-3,-4,-10,-10,-13,-10,-6,-5,2021-08-06 13:41:34,040879
-1,-3,2,5,-3,-4,0,0,2021-08-06 13:41:34,040879
-1,0,2,-4,-10,-6,-1,-2,2021-08-06 13:41:34,040879
2,2,3,19,28,15,5,1,2021-08-06 13:41:34,040879
2,1,3,1,6,5,2,1,2021-08-06 13:41:34,040879
-1,-3,1,2,-4,-3,-2,-3,2021-08-06 13:41:34,056878
-1,0,-1,0,-4,-5,-3,-1,2021-08-06 13:41:34,072879
1,-1,-1,-8,-2,3,3,3,2021-08-06 13:41:34,088879
-3,-4,-11,-4,2,0,-2,-3,2021-08-06 13:41:34,088879
0,-1,1,-4,1,1,-2,0,2021-08-06 13:41:34,088879
2,2,2,-4,5,4,5,2,2021-08-06 13:41:34,088879
-5,-5,0,-3,-17,-13,-7,-3,2021-08-06 13:41:34,088879
0,1,4,0,-2,-2,-1,0,2021-08-06 13:41:34,088879
-4,-5,-8,-5,-7,-5,-3,-4,2021-08-06 13:41:34,104880
3,2,-1,-2,4,4,1,2,2021-08-06 13:41:34,104880
0,0,-3,-1,0,1,0,-1,2021-08-06 13:41:34,104880
-4,-3,-4,-10,-11,-8,-3,-2,2021-08-06 13:41:34,104880
-1,-1,0,-1,-1,0,0,-1,2021-08-06 13:41:34,120878
-2,0,1,5,4,3,3,1,2021-08-06 13:41:34,131879
-1,1,1,5,2,-1,0,-1,2021-08-06 13:41:34,151879
0,0,4,3,-9,-7,-3,-1,2021-08-06 13:41:34,151879
1,3,3,7,14,9,4,2,2021-08-06 13:41:34,151879
-3,-3,-10,-1,0,0,-1,0,2021-08-06 13:41:34,151879
-1,-3,-3,0,-8,-4,-1,-1,2021-08-06 13:41:34,151879
-1,-3,3,-8,-6,-3,-2,-1,2021-08-06 13:41:34,151879
-1,-3,-3,-8,-14,-10,-5,-2,2021-08-06 13:41:34,151879
1,0,-5,-11,0,0,0,0,2021-08-06 13:41:34,151879
-3,-1,0,0,2,0,-3,-2,2021-08-06 13:41:34,167879
-3,-1,-1,4,6,3,0,-1,2021-08-06 13:41:34,167879
2,1,-2,5,5,3,2,2,2021-08-06 13:41:34,167879
0,-1,5,10,6,3,-2,1,2021-08-06 13:41:34,167879
1,0,-4,-5,2,-1,0,0,2021-08-06 13:41:34,183880
0,1,-1,-7,2,3,0,0,2021-08-06 13:41:34,183880
-1,-2,1,1,-4,-3,-2,0,2021-08-06 13:41:34,199880
-4,-2,1,1,1,-3,-3,-4,2021-08-06 13:41:34,215878
0,0,1,2,-5,-2,-1,-1,2021-08-06 13:41:34,231880
-1,0,3,6,1,1,0,0,2021-08-06 13:41:34,231880
-5,-2,-9,-5,-10,-7,-3,-4,2021-08-06 13:41:34,231880
1,1,4,-3,3,3,2,1,2021-08-06 13:41:34,231880
-1,-2,1,-1,2,1,-1,-2,2021-08-06 13:41:34,231880
-1,-3,-9,1,-2,-2,0,-1,2021-08-06 13:41:34,231880
1,1,-2,-5,-3,1,1,0,2021-08-06 13:41:34,231880
-2,-2,3,-4,-11,-8,-3,-2,2021-08-06 13:41:34,232880
-3,-4,-5,-13,-9,-6,-4,-4,2021-08-06 13:41:34,247880
0,-1,-2,10,15,7,0,0,2021-08-06 13:41:34,263880
-1,1,14,15,-1,-4,-3,-2,2021-08-06 13:41:34,263880
5,4,3,-3,4,4,2,1,2021-08-06 13:41:34,263880
2,-4,-15,-12,1,2,2,1,2021-08-06 13:41:34,279879
-1,-3,-5,0,-4,-4,1,-3,2021-08-06 13:41:34,295880
-2,-3,-2,-6,-1,-2,0,-1,2021-08-06 13:41:34,311880
-4,-1,3,6,-2,-2,-3,-2,2021-08-06 13:41:34,311880
-2,2,6,7,0,-1,-1,0,2021-08-06 13:41:34,311880
1,2,8,14,3,4,2,1,2021-08-06 13:41:34,311880
3,1,-4,-9,4,7,2,2,2021-08-06 13:41:34,311880
0,-3,-3,-10,-5,-4,0,-1,2021-08-06 13:41:34,311880
-2,-3,-13,-14,-9,-7,-5,-3,2021-08-06 13:41:34,311880
-4,-3,-1,-12,-19,-8,-4,0,2021-08-06 13:41:34,312880
-4,-3,0,6,3,-3,-3,-3,2021-08-06 13:41:34,312880
-2,-1,-1,10,1,2,0,-2,2021-08-06 13:41:34,312880
3,5,7,9,15,11,5,2,2021-08-06 13:41:34,327883
1,0,1,-10,-9,-6,-3,-1,2021-08-06 13:41:34,327883
0,0,2,-2,4,5,0,0,2021-08-06 13:41:34,343878
-1,-4,-14,-7,-6,-4,-1,1,2021-08-06 13:41:34,343878
-3,-2,5,7,5,1,1,-3,2021-08-06 13:41:34,343878
-1,0,1,2,0,-1,1,0,2021-08-06 13:41:34,343878
1,1,-3,-14,-6,-1,0,0,2021-08-06 13:41:34,359880
-4,-4,-4,1,-4,-6,-3,-3,2021-08-06 13:41:34,389879
-1,-3,-8,-5,-1,0,-3,-2,2021-08-06 13:41:34,405878
-1,2,2,-5,0,-1,0,0,2021-08-06 13:41:34,405878
-1,-1,-6,-2,-12,-5,0,-2,2021-08-06 13:41:34,405878
3,3,6,9,22,10,3,0,2021-08-06 13:41:34,405878
-3,0,11,7,-13,-10,-5,-2,2021-08-06 13:41:34,405878
-2,-3,-8,3,3,0,-3,-2,2021-08-06 13:41:34,405878
0,0,-9,-13,-6,-2,-1,0,2021-08-06 13:41:34,406881
-2,-3,-1,-1,-2,-1,-1,-2,2021-08-06 13:41:34,406881
3,1,2,5,9,7,5,4,2021-08-06 13:41:34,406881
0,-4,-2,2,-6,-7,-2,-3,2021-08-06 13:41:34,406881
-3,-3,4,2,-8,-9,-4,-3,2021-08-06 13:41:34,421879
2,2,0,-1,10,9,3,2,2021-08-06 13:41:34,421879
-1,-1,1,-10,-7,-4,-3,-2,2021-08-06 13:41:34,421879
0,0,-6,6,0,0,0,0,2021-08-06 13:41:34,421879
0,-2,-2,-1,2,2,2,0,2021-08-06 13:41:34,437880
-3,-1,-1,-10,-10,-6,-4,-3,2021-08-06 13:41:34,437880
0,1,4,6,1,0,0,-1,2021-08-06 13:41:34,453880
5,6,9,9,14,11,6,4,2021-08-06 13:41:34,485917
-2,-1,-2,-1,2,0,-2,2,2021-08-06 13:41:34,497881
-5,-5,-14,-14,-13,-11,-7,-4,2021-08-06 13:41:34,517881
-3,-3,-5,-6,-4,-3,-1,-2,2021-08-06 13:41:34,517881
-3,-5,-4,-15,-8,-9,-6,-4,2021-08-06 13:41:34,517881
-1,0,3,10,1,1,0,0,2021-08-06 13:41:34,517881
3,5,8,15,14,9,6,2,2021-08-06 13:41:34,517881
-2,0,-6,-2,1,0,-2,-1,2021-08-06 13:41:34,517881
-2,-2,-2,-8,-2,-2,-1,-1,2021-08-06 13:41:34,517881
-3,-3,3,2,-4,-2,-4,-2,2021-08-06 13:41:34,517881
-1,1,-1,0,-1,0,0,-1,2021-08-06 13:41:34,518882
-5,-5,-7,-4,-14,-9,-4,-5,2021-08-06 13:41:34,518882
3,3,4,5,21,13,6,5,2021-08-06 13:41:34,518882
3,3,0,0,8,4,1,1,2021-08-06 13:41:34,518882
-3,-1,3,3,-5,-4,-3,-2,2021-08-06 13:41:34,518882
1,-1,-6,-9,-7,-5,-4,-2,2021-08-06 13:41:34,518882
-4,-2,-1,0,-3,-3,-1,-1,2021-08-06 13:41:34,518882
-2,0,1,8,5,3,1,-2,2021-08-06 13:41:34,549879
1,0,-11,-10,2,3,4,2,2021-08-06 13:41:34,549879
-3,-2,2,-2,-15,-8,-3,-4,2021-08-06 13:41:34,549879
0,2,4,5,6,5,0,-1,2021-08-06 13:41:34,549879
-4,-7,-2,-6,-11,-11,-6,-4,2021-08-06 13:41:34,549879
0,-3,-3,4,1,3,-1,1,2021-08-06 13:41:34,549879
2,3,1,4,12,7,3,4,2021-08-06 13:41:34,565881
0,-1,-5,-6,-7,-4,-4,-2,2021-08-06 13:41:34,581880
0,1,4,10,10,6,4,0,2021-08-06 13:41:34,581880
-2,-1,6,3,-7,-7,-3,-2,2021-08-06 13:41:34,581880
1,1,-4,-11,2,4,1,0,2021-08-06 13:41:34,581880
-3,-2,1,-8,-7,-3,-2,-2,2021-08-06 13:41:34,581880
-2,-2,-7,-10,-8,-4,-2,0,2021-08-06 13:41:34,613900
-4,-6,-3,-5,-16,-11,-6,-3,2021-08-06 13:41:34,613900
-1,-2,-1,9,3,0,-1,-2,2021-08-06 13:41:34,613900
5,5,7,16,21,14,6,4,2021-08-06 13:41:34,613900
1,2,-4,-4,-2,-2,-1,-2,2021-08-06 13:41:34,613900
1,1,8,-4,-2,-1,1,1,2021-08-06 13:41:34,613900
-1,-2,-3,6,4,1,-1,-1,2021-08-06 13:41:34,629901
-4,-4,-4,-11,-13,-9,-5,-3,2021-08-06 13:41:34,645900
1,0,-8,1,5,5,3,2,2021-08-06 13:41:34,661901
0,1,5,4,-1,0,0,2,2021-08-06 13:41:34,677901
-1,-2,-5,-11,-6,-5,-3,-2,2021-08-06 13:41:34,693899
-6,-4,-3,-3,-10,-7,-4,-3,2021-08-06 13:41:34,693899
2,3,2,4,4,4,2,0,2021-08-06 13:41:34,693899
-2,-2,-2,3,0,-2,-1,-4,2021-08-06 13:41:34,693899
0,0,3,2,12,4,1,1,2021-08-06 13:41:34,693899
1,-2,-4,-8,-7,-3,1,-1,2021-08-06 13:41:34,693899
-1,0,4,-2,1,-1,0,1,2021-08-06 13:41:34,693899
-2,0,1,1,3,3,-2,-3,2021-08-06 13:41:34,694901
1,1,3,13,9,5,1,3,2021-08-06 13:41:34,694901
-2,-3,-8,-6,-13,-8,-4,-2,2021-08-06 13:41:34,694901
0,-2,-6,-6,-3,-1,-1,0,2021-08-06 13:41:34,694901
1,-1,-7,-5,1,2,2,2,2021-08-06 13:41:34,694901
-1,-1,7,7,1,1,2,1,2021-08-06 13:41:34,723900
0,1,3,9,7,5,2,0,2021-08-06 13:41:34,723900
-5,-4,-3,-12,-6,-1,-4,-5,2021-08-06 13:41:34,723900
-3,-1,4,7,3,2,-1,-3,2021-08-06 13:41:34,723900
-1,-1,-3,0,-4,-2,-2,-2,2021-08-06 13:41:34,723900
3,3,-2,-1,6,2,1,1,2021-08-06 13:41:34,723900
-1,-1,3,8,-2,-3,-2,-1,2021-08-06 13:41:34,739899
0,-2,-4,-21,-11,-6,-2,-1,2021-08-06 13:41:34,755899
-2,-4,-6,-7,-11,-9,-5,-3,2021-08-06 13:41:34,771900
-1,0,1,5,-1,0,-1,1,2021-08-06 13:41:34,771900
1,3,1,9,11,7,2,1,2021-08-06 13:41:34,771900
-1,-1,2,1,2,1,-1,-1,2021-08-06 13:41:34,771900
-4,-4,-6,-8,-10,-7,-2,-2,2021-08-06 13:41:34,771900
-2,-2,-3,-3,-3,-5,-4,-4,2021-08-06 13:41:34,771900
-1,-1,2,-1,-9,-3,-2,1,2021-08-06 13:41:34,787900
4,4,2,8,16,12,4,5,2021-08-06 13:41:34,787900
0,0,1,4,3,2,0,0,2021-08-06 13:41:34,787900
-3,-4,-6,-1,-2,-2,-3,-1,2021-08-06 13:41:34,787900
1,1,10,6,6,2,1,-2,2021-08-06 13:41:34,803900
-3,-2,-10,-11,-14,-7,-4,-3,2021-08-06 13:41:34,819899
1,0,-2,-8,-6,-1,0,2,2021-08-06 13:41:34,835430
0,1,2,-5,-2,1,-1,-1,2021-08-06 13:41:34,835430
-1,0,-1,9,3,2,0,0,2021-08-06 13:41:34,835430
-2,-2,1,-8,-12,-6,-3,0,2021-08-06 13:41:34,835430
0,1,-1,-4,5,5,2,1,2021-08-06 13:41:34,835430
-2,-3,-3,-8,-13,-8,-3,-3,2021-08-06 13:41:34,835430
-2,-2,-3,-2,-1,-2,-2,-1,2021-08-06 13:41:34,835430
2,1,-1,12,9,4,3,1,2021-08-06 13:41:34,835430
-3,-1,1,-7,-13,-8,-5,-2,2021-08-06 13:41:34,851430
-1,-1,5,6,7,4,1,1,2021-08-06 13:41:34,851430
-1,-1,-7,-6,0,-1,-1,-1,2021-08-06 13:41:34,851430
-2,-1,-4,-4,-1,-3,-1,-3,2021-08-06 13:41:34,851430
0,-2,-2,3,1,1,0,-1,2021-08-06 13:41:34,867429
-1,-1,-2,-2,-2,0,-1,-1,2021-08-06 13:41:34,867429
0,-1,2,-4,-7,-7,-3,0,2021-08-06 13:41:34,883430
0,1,3,10,3,2,-1,0,2021-08-06 13:41:34,899429
0,1,1,-7,-2,0,0,0,2021-08-06 13:41:34,915430
-1,-2,-1,5,2,-2,0,-2,2021-08-06 13:41:34,915430
-3,-4,-5,-2,-5,-3,-2,-3,2021-08-06 13:41:34,915430
-3,-1,-6,-22,-6,-4,-2,-3,2021-08-06 13:41:34,915430
2,-1,7,11,14,7,2,0,2021-08-06 13:41:34,915430
-1,-4,-6,-3,-7,-5,0,-1,2021-08-06 13:41:34,915430
0,-1,-2,1,-4,-4,-2,-2,2021-08-06 13:41:34,915430
-3,-4,3,10,-7,-8,-6,-3,2021-08-06 13:41:34,915430
1,1,1,2,11,5,2,0,2021-08-06 13:41:34,931432
0,0,1,-2,6,4,2,-1,2021-08-06 13:41:34,931432
0,-2,-3,-7,-5,-2,0,0,2021-08-06 13:41:34,947430
-2,-2,-9,-9,-13,-6,-5,-1,2021-08-06 13:41:34,963430
-3,1,-2,3,0,-3,-3,-1,2021-08-06 13:41:34,979432
2,1,4,5,4,2,-2,3,2021-08-06 13:41:34,979432
-3,-2,7,-2,0,-1,-2,-2,2021-08-06 13:41:34,979432
1,-1,-7,-2,-1,2,2,0,2021-08-06 13:41:34,979432
-4,-5,-7,-8,-7,-5,-3,-2,2021-08-06 13:41:34,979432
0,-1,-4,-6,-6,-4,-2,-1,2021-08-06 13:41:34,980431
-3,-1,-1,4,2,-3,-2,-2,2021-08-06 13:41:34,980431
2,1,10,12,10,7,5,2,2021-08-06 13:41:34,980431
1,1,0,-3,5,3,3,2,2021-08-06 13:41:34,980431
-2,0,-3,-8,-3,-1,0,-1,2021-08-06 13:41:34,980431
-4,-6,-8,-10,-15,-10,-6,-4,2021-08-06 13:41:35,011430
2,0,2,8,5,2,1,0,2021-08-06 13:41:35,011430
0,1,3,2,-6,-3,-2,-2,2021-08-06 13:41:35,011430
-2,-1,1,1,-1,-1,0,-1,2021-08-06 13:41:35,011430
2,-1,2,-3,-5,-2,0,0,2021-08-06 13:41:35,027433
0,0,-10,-1,8,5,2,1,2021-08-06 13:41:35,027433
-1,-1,1,1,0,-1,-2,-1,2021-08-06 13:41:35,027433
0,0,-1,3,0,0,-4,-1,2021-08-06 13:41:35,027433
-1,-1,1,0,0,-1,-2,-1,2021-08-06 13:41:35,058429
-2,-2,3,-5,-6,-5,-2,-1,2021-08-06 13:41:35,058429
4,3,4,6,3,2,3,2,2021-08-06 13:41:35,058429
-1,1,-6,0,6,2,1,1,2021-08-06 13:41:35,058429
1,0,3,5,6,3,3,0,2021-08-06 13:41:35,058429
-2,-3,-10,-9,-11,-9,-6,-3,2021-08-06 13:41:35,058429
-4,-5,-5,-21,-16,-10,-5,-4,2021-08-06 13:41:35,058429
-1,0,2,0,4,2,1,0,2021-08-06 13:41:35,058429
1,2,1,8,9,6,2,1,2021-08-06 13:41:35,089430
0,0,7,8,4,1,-2,0,2021-08-06 13:41:35,105429
-1,-2,-10,-7,-8,0,0,-1,2021-08-06 13:41:35,121429
-3,-4,-2,-8,-16,-11,-4,-3,2021-08-06 13:41:35,121429
1,2,-1,-2,6,5,1,0,2021-08-06 13:41:35,121429
0,1,10,9,-1,-1,0,0,2021-08-06 13:41:35,121429
0,-1,-4,13,14,6,1,0,2021-08-06 13:41:35,121429
0,-2,-6,-15,-1,0,0,-1,2021-08-06 13:41:35,121429
1,1,-1,-3,1,2,1,2,2021-08-06 13:41:35,121429
-3,-4,-2,-8,-7,-6,-5,-3,2021-08-06 13:41:35,121429
-3,-1,8,5,-6,-5,-2,-2,2021-08-06 13:41:35,122430
-1,-2,-6,3,-2,-3,-2,-1,2021-08-06 13:41:35,122430
-1,-1,-4,2,14,7,2,-1,2021-08-06 13:41:35,153430
3,3,0,-2,8,8,5,3,2021-08-06 13:41:35,168429
-1,0,2,6,0,-5,-3,-2,2021-08-06 13:41:35,168429
-3,-2,2,4,-7,-5,-3,-5,2021-08-06 13:41:35,168429
0,-2,-10,-22,-9,-3,-1,2,2021-08-06 13:41:35,168429
-3,-5,-4,-4,-7,-5,-2,-2,2021-08-06 13:41:35,168429
1,0,-3,1,1,3,2,0,2021-08-06 13:41:35,168429
0,0,2,5,3,0,-1,1,2021-08-06 13:41:35,168429
-4,-1,4,5,-5,-7,-3,-4,2021-08-06 13:41:35,183429
3,5,6,4,11,10,6,2,2021-08-06 13:41:35,183690
1,0,-8,-5,3,2,0,-1,2021-08-06 13:41:35,183690
-2,-2,4,-2,-2,-1,-2,-1,2021-08-06 13:41:35,183690
1,1,-6,0,1,-2,1,-1,2021-08-06 13:41:35,214942
-5,-6,-7,-8,-10,-6,-6,-5,2021-08-06 13:41:35,230939
-3,-3,2,-1,-11,-8,-4,-2,2021-08-06 13:41:35,230939
1,3,2,5,9,6,2,3,2021-08-06 13:41:35,230939
-1,0,-4,0,-4,-4,-3,-1,2021-08-06 13:41:35,230939
-1,2,3,-2,2,2,3,1,2021-08-06 13:41:35,230939
2,0,-4,-3,3,2,0,1,2021-08-06 13:41:35,231943
0,-2,-4,-10,-3,-1,-1,-4,2021-08-06 13:41:35,231943
-2,-3,2,3,-4,3,0,0,2021-08-06 13:41:35,231943
2,1,-3,5,1,-2,-3,-2,2021-08-06 13:41:35,231943
0,2,6,11,14,10,5,2,2021-08-06 13:41:35,241938
-1,-3,-5,-4,-8,-7,-3,-2,2021-08-06 13:41:35,241938
-4,-2,-2,-3,-12,-10,-5,-5,2021-08-06 13:41:35,262940
-1,0,-6,-12,-5,-3,-1,1,2021-08-06 13:41:35,278940
0,-1,9,9,11,6,2,-1,2021-08-06 13:41:35,294940
2,3,-7,10,8,5,3,2,2021-08-06 13:41:35,294940
-2,-1,2,-5,-1,-2,-2,-1,2021-08-06 13:41:35,294940
-3,-6,-8,-8,-13,-8,-4,-4,2021-08-06 13:41:35,294940
-1,-2,-6,-8,-7,-8,-4,-2,2021-08-06 13:41:35,294940
-1,1,8,5,5,3,0,-3,2021-08-06 13:41:35,294940
0,1,3,2,3,4,0,1,2021-08-06 13:41:35,294940
2,1,4,10,13,9,6,3,2021-08-06 13:41:35,295940
-3,-1,-3,2,-10,-9,-5,-4,2021-08-06 13:41:35,310939
-1,-1,-2,-11,-4,-5,-2,-1,2021-08-06 13:41:35,326939
-2,-3,-3,-9,1,1,-2,-3,2021-08-06 13:41:35,326939
2,3,1,5,15,8,3,4,2021-08-06 13:41:35,326939
-2,-3,-1,-2,-1,0,0,0,2021-08-06 13:41:35,326939
-1,-1,0,6,-4,-4,-1,0,2021-08-06 13:41:35,326939
-1,0,2,1,-1,-3,1,0,2021-08-06 13:41:35,357938
-2,-2,-2,-5,-7,-6,-3,-3,2021-08-06 13:41:35,357938
0,0,1,0,2,3,2,0,2021-08-06 13:41:35,357938
1,1,3,5,4,1,1,1,2021-08-06 13:41:35,357938
0,-1,-7,1,3,1,1,2,2021-08-06 13:41:35,357938
-5,-3,-1,-2,-19,-12,-7,-5,2021-08-06 13:41:35,357938
-1,-1,-3,-13,-12,-9,-4,0,2021-08-06 13:41:35,357938
2,-2,-2,4,14,8,5,3,2021-08-06 13:41:35,358941
2,-2,-5,-1,8,7,4,1,2021-08-06 13:41:35,389940
-4,-1,7,10,0,-3,-4,-2,2021-08-06 13:41:35,389940
-3,0,-5,0,-4,-3,-2,-3,2021-08-06 13:41:35,389940
-2,-2,-2,-23,-9,-4,-2,-2,2021-08-06 13:41:35,389940
1,1,2,4,4,3,0,2,2021-08-06 13:41:35,405940
-2,-4,-3,-4,0,-1,-2,-3,2021-08-06 13:41:35,421938
-2,0,0,2,0,0,0,0,2021-08-06 13:41:35,437938
-1,-1,3,12,9,4,1,0,2021-08-06 13:41:35,437938
0,1,0,-1,-1,0,-1,-2,2021-08-06 13:41:35,437938
0,0,3,-2,-7,-5,-3,-1,2021-08-06 13:41:35,452940
0,-2,0,3,5,2,0,0,2021-08-06 13:41:35,452940
-2,2,-2,2,7,4,0,2,2021-08-06 13:41:35,452940
1,-1,9,-3,-3,-3,-1,-1,2021-08-06 13:41:35,452940
-3,-4,-15,-4,-7,-4,-1,-3,2021-08-06 13:41:35,452940
-2,-5,-11,-14,-5,-5,-4,-2,2021-08-06 13:41:35,452940
0,1,4,6,4,5,1,-1,2021-08-06 13:41:35,452940
1,1,3,4,1,-1,1,0,2021-08-06 13:41:35,468938
0,1,3,-3,-2,-1,2,0,2021-08-06 13:41:35,468938
0,-2,-4,-9,-14,-9,-5,-2,2021-08-06 13:41:35,468938
-2,-5,-2,-2,-6,-5,-3,-2,2021-08-06 13:41:35,468938
3,4,4,7,8,6,2,2,2021-08-06 13:41:35,483939
1,-2,-3,2,8,4,1,1,2021-08-06 13:41:35,483939
-1,-2,4,-2,-5,-3,-2,-1,2021-08-06 13:41:35,483939
-1,-2,-8,-17,-12,-6,-3,-3,2021-08-06 13:41:35,483939
-3,-4,-8,-10,-6,-4,-3,-2,2021-08-06 13:41:35,498938
1,2,5,15,13,10,2,2,2021-08-06 13:41:35,498938
0,1,5,3,4,3,1,1,2021-08-06 13:41:35,513941
-5,-4,-4,-10,-26,-16,-8,-5,2021-08-06 13:41:35,529939
0,-3,-4,-3,-6,-6,-1,-1,2021-08-06 13:41:35,545939
0,2,7,2,3,5,1,1,2021-08-06 13:41:35,545939
1,3,-3,9,11,6,2,-1,2021-08-06 13:41:35,545939
-1,-2,-2,2,2,1,0,-1,2021-08-06 13:41:35,545939
-1,0,1,4,6,2,-2,-1,2021-08-06 13:41:35,545939
-2,-2,-4,-13,-14,-8,-2,0,2021-08-06 13:41:35,545939
-3,-5,-1,-8,-9,-8,-4,-2,2021-08-06 13:41:35,545939
0,0,-2,-1,-2,0,1,1,2021-08-06 13:41:35,546943
-5,-3,2,2,-7,-3,-3,-4,2021-08-06 13:41:35,561940
-1,1,-2,7,13,6,0,-2,2021-08-06 13:41:35,561940
-3,-2,3,2,7,4,-1,-4,2021-08-06 13:41:35,561940
0,3,-1,8,1,1,0,1,2021-08-06 13:41:35,561940
0,-1,-3,-19,-11,-7,-2,0,2021-08-06 13:41:35,577941
-2,-4,-14,-17,-18,-13,-5,-3,2021-08-06 13:41:35,577941
2,-1,2,2,8,6,2,2,2021-08-06 13:41:35,577941
1,1,7,11,9,5,2,-1,2021-08-06 13:41:35,577941
1,4,7,19,11,6,2,2,2021-08-06 13:41:35,606939
0,0,1,-6,-2,-1,-2,0,2021-08-06 13:41:35,607941
-3,-3,-7,-9,-9,-7,-4,-2,2021-08-06 13:41:35,607941
-3,-6,6,3,1,-2,-4,-3,2021-08-06 13:41:35,607941
-1,-2,-16,-8,-2,0,1,-1,2021-08-06 13:41:35,625939
-3,-4,-3,-4,-3,-2,0,-2,2021-08-06 13:41:35,641939
-1,0,2,6,-1,-1,0,-1,2021-08-06 13:41:35,641939
-1,0,-1,-3,-2,-1,0,-1,2021-08-06 13:41:35,641939
-3,-4,-3,-9,-11,-7,-5,-3,2021-08-06 13:41:35,641939
2,3,4,10,14,7,2,0,2021-08-06 13:41:35,641939
-1,0,1,-1,-4,-2,0,-1,2021-08-06 13:41:35,641939
-3,-3,-3,-11,-13,-8,-5,-3,2021-08-06 13:41:35,641939
-2,-3,-8,-2,-6,-2,-2,0,2021-08-06 13:41:35,657938
2,-2,5,11,10,3,2,1,2021-08-06 13:41:35,657938
4,5,10,22,26,14,6,5,2021-08-06 13:41:35,673939
0,-2,-13,-21,-4,-3,-4,-4,2021-08-06 13:41:35,689939
-2,-3,-8,-10,-9,-5,-2,-1,2021-08-06 13:41:35,705938
-5,-6,-2,-8,-18,-15,-6,-3,2021-08-06 13:41:35,705938
-3,-1,-5,-5,-7,-5,-3,-3,2021-08-06 13:41:35,705938
0,0,6,6,5,6,3,1,2021-08-06 13:41:35,705938
1,2,6,15,17,8,2,-1,2021-08-06 13:41:35,705938
1,-1,-10,-7,-2,0,-1,-1,2021-08-06 13:41:35,705938
-2,-3,1,0,-5,-4,-3,-3,2021-08-06 13:41:35,705938
0,0,-1,0,-4,-5,-3,0,2021-08-06 13:41:35,706940
-2,-3,1,-5,-12,-4,-3,-1,2021-08-06 13:41:35,737940
0,1,2,1,3,3,1,1,2021-08-06 13:41:35,737940
0,-1,-5,-11,-9,-6,-1,-1,2021-08-06 13:41:35,737940
1,-1,1,3,7,4,2,1,2021-08-06 13:41:35,737940
-3,-2,-2,1,-2,-3,-4,-1,2021-08-06 13:41:35,737940
-1,1,4,11,3,2,0,-1,2021-08-06 13:41:35,737940
3,2,0,-3,7,5,3,2,2021-08-06 13:41:35,753939
-3,-3,-5,-10,-19,-12,-6,-4,2021-08-06 13:41:35,769939
3,3,5,4,21,12,6,1,2021-08-06 13:41:35,769939
-3,0,0,-5,-3,-2,-1,-2,2021-08-06 13:41:35,769939
0,0,-2,5,3,1,-1,1,2021-08-06 13:41:35,769939
-3,-2,1,2,-3,-4,-2,-1,2021-08-06 13:41:35,769939
-2,-4,-11,-14,-18,-10,-5,-2,2021-08-06 13:41:35,785938
-2,-4,-4,-12,-2,0,-2,-2,2021-08-06 13:41:35,785938
2,1,5,4,8,6,4,1,2021-08-06 13:41:35,785938
1,1,1,15,10,5,3,2,2021-08-06 13:41:35,785938
-2,0,-4,0,0,-2,-1,0,2021-08-06 13:41:35,801940
-1,-2,-1,1,-3,-2,-3,-2,2021-08-06 13:41:35,801940
-3,-4,-3,-7,-13,-8,-7,-6,2021-08-06 13:41:35,801940
-1,-2,1,1,4,2,-1,-1,2021-08-06 13:41:35,801940
4,4,7,9,14,10,5,2,2021-08-06 13:41:35,831941
0,1,-2,-8,-8,-5,-2,0,2021-08-06 13:41:35,831941
-3,-5,-4,-1,-7,-5,-4,-2,2021-08-06 13:41:35,831941
-2,-4,-7,-7,-3,-3,-1,-1,2021-08-06 13:41:35,831941
-3,-5,-5,-13,-17,-10,-5,-4,2021-08-06 13:41:35,847940
2,2,4,10,19,11,5,2,2021-08-06 13:41:35,847940
0,1,3,2,-3,-4,-2,-3,2021-08-06 13:41:35,847940
1,4,6,14,6,3,2,1,2021-08-06 13:41:35,847940
-3,-2,0,0,-5,-4,-1,-3,2021-08-06 13:41:35,863940
2,0,-4,-11,0,4,0,0,2021-08-06 13:41:35,863940
-1,-2,-9,-6,0,0,-1,-1,2021-08-06 13:41:35,863940
-2,-2,-6,-8,-6,-5,-4,-3,2021-08-06 13:41:35,863940
-1,-1,4,4,-4,-6,-5,-3,2021-08-06 13:41:35,879939
0,1,10,8,3,0,-1,-2,2021-08-06 13:41:35,879939
0,-1,-11,-7,3,6,3,3,2021-08-06 13:41:35,879939
0,-1,2,4,3,2,1,1,2021-08-06 13:41:35,879939
1,2,3,8,9,4,1,-1,2021-08-06 13:41:35,911939
-3,-1,-2,-10,-12,-8,-5,-3,2021-08-06 13:41:35,911939
-4,-5,-2,-9,-12,-11,-6,-4,2021-08-06 13:41:35,911939
1,1,-4,-5,0,3,4,3,2021-08-06 13:41:35,911939
1,-1,4,13,11,5,1,2,2021-08-06 13:41:35,927940
-1,-2,-2,-2,-6,-4,-2,-2,2021-08-06 13:41:35,927940
-2,0,-1,-6,-2,-2,2,0,2021-08-06 13:41:35,927940
-2,-1,-2,-6,-6,-6,-2,-3,2021-08-06 13:41:35,927940
0,-1,-2,0,2,1,0,0,2021-08-06 13:41:35,959940
3,3,1,12,13,9,4,2,2021-08-06 13:41:35,959940
3,1,6,4,6,5,0,2,2021-08-06 13:41:35,959940
-3,-2,-4,-4,-3,-3,-4,-4,2021-08-06 13:41:35,959940
-2,-1,-5,-7,-5,-3,-1,1,2021-08-06 13:41:35,959940
-5,-5,-2,-3,-13,-9,-5,-3,2021-08-06 13:41:35,960620
2,4,6,2,3,4,1,2,2021-08-06 13:41:35,960620
0,0,-6,-3,1,0,-1,-1,2021-08-06 13:41:35,960620
2,2,7,8,14,7,3,1,2021-08-06 13:41:35,975967
-5,-5,-11,-14,-12,-8,-5,-5,2021-08-06 13:41:35,975967
0,0,2,3,1,0,2,1,2021-08-06 13:41:35,986965
0,0,0,0,-4,-2,-3,0,2021-08-06 13:41:35,986965
-2,0,1,1,-4,-4,-3,-1,2021-08-06 13:41:36,006966
3,1,4,12,9,5,3,3,2021-08-06 13:41:36,006966
-1,-1,-5,5,3,0,0,-2,2021-08-06 13:41:36,006966
-4,-3,-5,-24,-10,-4,-4,0,2021-08-06 13:41:36,006966
-4,-1,-4,-10,-5,-2,-2,-2,2021-08-06 13:41:36,021965
2,3,7,14,19,9,4,2,2021-08-06 13:41:36,021965
-1,1,5,3,0,0,1,0,2021-08-06 13:41:36,021965
-1,-4,-9,4,-4,-4,-3,-2,2021-08-06 13:41:36,021965
-2,-4,-4,-9,-13,-7,-4,-4,2021-08-06 13:41:36,052966
1,-1,2,2,8,6,2,2,2021-08-06 13:41:36,052966
0,2,12,11,-1,-2,1,1,2021-08-06 13:41:36,052966
1,3,-7,9,12,8,4,1,2021-08-06 13:41:36,052966
-1,-1,-4,-11,-6,-4,-1,-1,2021-08-06 13:41:36,067966
-2,-4,-7,-9,-11,-10,-5,-4,2021-08-06 13:41:36,083965
-1,-2,-5,-8,-6,-4,-1,-1,2021-08-06 13:41:36,099965
2,3,12,7,11,7,4,3,2021-08-06 13:41:36,115965
0,2,3,10,4,5,1,-1,2021-08-06 13:41:36,146969
-2,-3,-6,-2,-6,-5,-2,-1,2021-08-06 13:41:36,146969
-2,-3,-3,-4,-4,-4,-3,-3,2021-08-06 13:41:36,146969
-1,-3,-2,-5,-5,-5,-1,-4,2021-08-06 13:41:36,146969
-2,-2,1,6,0,0,0,-1,2021-08-06 13:41:36,146969
0,-1,0,-4,-5,-2,0,0,2021-08-06 13:41:36,146969
-3,-2,-8,-17,-3,2,-3,-3,2021-08-06 13:41:36,146969
1,2,4,5,8,6,5,1,2021-08-06 13:41:36,147967
-2,-6,-3,-3,-14,-11,-4,-3,2021-08-06 13:41:36,147967
-1,-1,-1,2,0,0,2,-1,2021-08-06 13:41:36,147967
-3,-4,-2,0,-9,-7,-4,-3,2021-08-06 13:41:36,147967
2,4,8,14,15,10,2,1,2021-08-06 13:41:36,147967
2,1,-11,-16,-3,1,-1,0,2021-08-06 13:41:36,147967
-1,-3,-2,-3,-6,-6,-4,-1,2021-08-06 13:41:36,147967
-3,-5,-10,-10,-12,-6,-4,-2,2021-08-06 13:41:36,148966
-2,-3,3,-7,-6,-1,-3,-2,2021-08-06 13:41:36,148966
0,2,6,14,12,8,5,2,2021-08-06 13:41:36,162965
0,1,-1,-1,1,2,0,0,2021-08-06 13:41:36,162965
2,0,-2,2,3,0,-1,1,2021-08-06 13:41:36,162965
-3,-4,-2,1,-12,-11,-7,-4,2021-08-06 13:41:36,162965
-2,-2,-1,3,6,4,1,2,2021-08-06 13:41:36,179203
-2,0,-4,-19,-9,-4,-3,0,2021-08-06 13:41:36,179203
0,-3,0,1,-3,-2,0,-1,2021-08-06 13:41:36,194472
0,-1,-6,-5,-1,-1,-1,0,2021-08-06 13:41:36,210473
-2,-2,0,1,0,-3,-3,-3,2021-08-06 13:41:36,210473
2,2,4,10,8,5,1,1,2021-08-06 13:41:36,226472
3,5,1,1,12,12,5,4,2021-08-06 13:41:36,241473
-1,-1,9,1,-7,-7,-2,-1,2021-08-06 13:41:36,241473
0,0,-12,-8,-4,-3,1,2,2021-08-06 13:41:36,241473
-6,-8,-11,-11,-16,-10,-5,-6,2021-08-06 13:41:36,241473
-2,-2,-4,0,1,-3,-2,-2,2021-08-06 13:41:36,241473
3,2,8,15,9,9,4,1,2021-08-06 13:41:36,241473
3,3,8,-6,4,4,2,1,2021-08-06 13:41:36,241473
2,0,1,5,5,3,2,2,2021-08-06 13:41:36,241473
-3,-4,-7,-6,-8,-8,-5,-1,2021-08-06 13:41:36,257471
-4,-3,-5,-8,-10,-5,-4,-5,2021-08-06 13:41:36,273471
-2,-1,-1,2,-4,-7,-4,-3,2021-08-06 13:41:36,289472
-1,0,-4,-2,5,6,1,1,2021-08-06 13:41:36,289472
0,0,4,8,2,0,0,1,2021-08-06 13:41:36,289472
-2,-1,-1,-4,-7,-5,-4,-2,2021-08-06 13:41:36,289472
0,0,-7,-14,-4,0,0,-1,2021-08-06 13:41:36,289472
-1,-1,0,3,4,3,2,-1,2021-08-06 13:41:36,289472
-1,-1,8,5,-1,0,-2,-2,2021-08-06 13:41:36,289472
0,0,-8,-1,2,0,0,1,2021-08-06 13:41:36,289472
0,-2,1,-2,0,0,0,-1,2021-08-06 13:41:36,305473
-2,-1,2,2,-7,-4,-3,-1,2021-08-06 13:41:36,321474
-2,-1,-4,3,1,-1,0,-2,2021-08-06 13:41:36,337472
-1,-1,-1,0,-1,-1,0,0,2021-08-06 13:41:36,337472
1,2,7,4,2,1,1,1,2021-08-06 13:41:36,337472
-3,-1,-1,-4,-3,-3,0,-1,2021-08-06 13:41:36,337472
1,0,-8,-7,2,2,0,0,2021-08-06 13:41:36,337472
-3,-4,-5,-5,-4,-5,-4,-2,2021-08-06 13:41:36,337472
-3,-2,0,2,-6,-4,-4,-2,2021-08-06 13:41:36,337472
2,2,3,-4,0,2,2,2,2021-08-06 13:41:36,337472
-2,1,-1,-6,-2,-2,0,-1,2021-08-06 13:41:36,353473
0,-2,0,-1,2,0,-1,-1,2021-08-06 13:41:36,356472
-5,-3,-1,6,-12,-10,-5,-4,2021-08-06 13:41:36,356472
0,2,-2,-3,5,4,1,1,2021-08-06 13:41:36,356472
-2,-3,1,-5,-2,-2,-1,-1,2021-08-06 13:41:36,369472
2,3,-3,5,10,5,4,2,2021-08-06 13:41:36,369472
0,-2,-4,-3,-1,1,0,0,2021-08-06 13:41:36,384473
-1,-3,0,2,-9,-9,-5,-3,2021-08-06 13:41:36,384473
2,1,1,1,1,0,3,0,2021-08-06 13:41:36,384473
0,-1,3,-3,-9,-3,-3,-2,2021-08-06 13:41:36,384473
-2,-3,-2,6,10,4,-1,-2,2021-08-06 13:41:36,416473
0,-1,-4,-5,-5,-2,-1,-1,2021-08-06 13:41:36,416473
2,2,3,7,6,4,1,1,2021-08-06 13:41:36,416473
1,1,-3,-2,-4,-2,1,-1,2021-08-06 13:41:36,416473
-2,-2,-3,-9,-5,-2,-3,-1,2021-08-06 13:41:36,416473
-2,-2,-5,-4,-5,-2,-1,-2,2021-08-06 13:41:36,416473
-6,-3,-1,-2,1,-4,-5,-4,2021-08-06 13:41:36,447473
0,1,3,8,17,11,4,2,2021-08-06 13:41:36,447473
-2,-1,-2,-6,-7,-2,-2,-2,2021-08-06 13:41:36,447473
1,1,9,9,0,0,-2,-1,2021-08-06 13:41:36,447473
0,0,-5,4,-7,-4,-2,-2,2021-08-06 13:41:36,447473
-1,-2,-5,-1,4,4,0,-3,2021-08-06 13:41:36,447473
-1,0,8,-8,4,3,0,-2,2021-08-06 13:41:36,463472
1,-1,-11,-5,-7,-4,-3,-2,2021-08-06 13:41:36,463472
-1,-2,0,-8,-8,-5,-1,-1,2021-08-06 13:41:36,463472
-2,0,-1,2,-9,-7,-3,-3,2021-08-06 13:41:36,463472
1,2,6,13,9,5,5,3,2021-08-06 13:41:36,479472
3,3,6,0,8,8,5,4,2021-08-06 13:41:36,479472
0,-2,-6,-3,-3,-4,-3,-3,2021-08-06 13:41:36,495472
-1,-2,0,-5,-2,1,1,0,2021-08-06 13:41:36,511472
-2,-3,-4,-4,-14,-13,-5,-3,2021-08-06 13:41:36,511472
2,3,3,7,15,11,7,3,2021-08-06 13:41:36,511472
-1,-1,2,4,6,4,0,0,2021-08-06 13:41:36,511472
-4,-3,3,1,-2,0,-3,-1,2021-08-06 13:41:36,511472
3,1,-2,4,8,6,3,2,2021-08-06 13:41:36,527479
-5,-4,-5,-9,-15,-10,-8,-4,2021-08-06 13:41:36,543472
-3,-4,-4,-13,-13,-6,-4,-4,2021-08-06 13:41:36,543472
-2,-3,-5,-4,1,-1,0,-1,2021-08-06 13:41:36,543472
-3,1,6,9,-3,-5,-3,-3,2021-08-06 13:41:36,543472
2,2,-5,-5,6,6,4,2,2021-08-06 13:41:36,543472
-1,-1,5,-4,-5,-1,-1,-1,2021-08-06 13:41:36,543472
0,1,-7,2,9,5,3,2,2021-08-06 13:41:36,543472
-2,-4,-11,-6,-7,-5,-1,0,2021-08-06 13:41:36,559472
-3,-3,0,-5,-14,-13,-8,-5,2021-08-06 13:41:36,559472
3,3,2,4,9,7,2,2,2021-08-06 13:41:36,575472
1,1,8,6,10,5,2,0,2021-08-06 13:41:36,575472
-2,-4,-3,6,2,0,-3,-3,2021-08-06 13:41:36,575472
-2,-4,-2,1,-3,-3,-1,-2,2021-08-06 13:41:36,575472
1,0,-3,-7,-1,1,2,1,2021-08-06 13:41:36,591472
-2,-2,-1,-3,-10,-10,-7,-4,2021-08-06 13:41:36,606471
2,3,4,2,6,4,2,2,2021-08-06 13:41:36,621471
2,1,6,6,6,3,1,1,2021-08-06 13:41:36,621471
-1,0,-1,2,-3,-4,-2,-1,2021-08-06 13:41:36,621471
-2,-4,-4,-8,-11,-6,-2,-2,2021-08-06 13:41:36,621471
0,-3,-8,-9,-6,-3,-1,0,2021-08-06 13:41:36,621471
-3,-3,-2,-2,-5,-5,-1,-3,2021-08-06 13:41:36,621471
-4,-4,-5,-1,-15,-10,-5,-6,2021-08-06 13:41:36,621471
6,6,5,-1,19,16,9,7,2021-08-06 13:41:36,622474
0,0,8,3,3,4,0,-1,2021-08-06 13:41:36,637473
-1,0,-1,7,8,4,1,-1,2021-08-06 13:41:36,637473
-3,-2,-12,-14,-14,-10,-5,-1,2021-08-06 13:41:36,653473
-5,-6,0,-9,-28,-19,-9,-6,2021-08-06 13:41:36,653473
3,4,4,4,11,9,4,3,2021-08-06 13:41:36,669472
-2,-2,-5,-2,2,-2,-1,-1,2021-08-06 13:41:36,684472
0,-1,6,5,5,3,0,-1,2021-08-06 13:41:36,700472
1,-2,-11,-15,-10,-6,-2,-2,2021-08-06 13:41:36,715474
-4,-3,-2,-7,-11,-7,-5,-4,2021-08-06 13:41:36,722472
2,5,10,17,19,11,3,1,2021-08-06 13:41:36,722472
-3,-2,-5,0,-1,-1,1,0,2021-08-06 13:41:36,722472
2,2,4,9,10,3,3,1,2021-08-06 13:41:36,723474
-1,1,3,8,6,2,0,-1,2021-08-06 13:41:36,731473
-4,-4,-5,-8,-12,-5,-2,-4,2021-08-06 13:41:36,731473
-1,-4,0,-6,-1,-1,-2,0,2021-08-06 13:41:36,731473
0,1,-1,-2,-4,-3,-2,0,2021-08-06 13:41:36,731473
-2,-2,-1,1,-3,-3,-3,-2,2021-08-06 13:41:36,731473
3,3,-4,2,11,5,1,2,2021-08-06 13:41:36,731473
2,1,-4,-5,8,5,2,0,2021-08-06 13:41:36,731473
-2,-2,3,4,4,2,-2,-2,2021-08-06 13:41:36,731473
-2,-3,-3,-8,-13,-7,-3,-1,2021-08-06 13:41:36,747475
-3,-4,4,5,-2,-3,-5,-1,2021-08-06 13:41:36,763473
2,3,4,15,18,10,4,2,2021-08-06 13:41:36,779472
-2,-2,-7,-8,-6,-2,-2,0,2021-08-06 13:41:36,779472
-2,-4,-8,-14,-17,-12,-3,-3,2021-08-06 13:41:36,779472
-4,-8,-12,-22,-27,-20,-8,-6,2021-08-06 13:41:36,779472
1,2,5,7,10,7,3,1,2021-08-06 13:41:36,779472
-2,-1,4,13,0,2,-1,-1,2021-08-06 13:41:36,779472
4,5,6,12,22,15,7,6,2021-08-06 13:41:36,779472
-2,-3,-7,-11,-9,-2,-2,-2,2021-08-06 13:41:36,780476
0,-1,-2,-1,8,3,0,0,2021-08-06 13:41:36,795473
3,3,9,9,10,6,4,1,2021-08-06 13:41:36,811472
-2,-1,-6,-8,-2,-2,-2,-2,2021-08-06 13:41:36,827473
-1,-4,-2,-7,-17,-13,-3,-4,2021-08-06 13:41:36,827473
-3,-3,-2,2,0,0,0,-1,2021-08-06 13:41:36,827473
-2,-2,-6,-2,-4,-5,-2,-2,2021-08-06 13:41:36,827473
0,-1,2,7,0,0,-1,-3,2021-08-06 13:41:36,827473
2,2,2,-6,12,11,6,3,2021-08-06 13:41:36,827473
4,3,5,2,2,4,2,2,2021-08-06 13:41:36,827473
-5,-6,-8,-12,-16,-13,-8,-5,2021-08-06 13:41:36,828472
-2,-3,-5,-4,-6,-7,-6,-2,2021-08-06 13:41:36,843472
-5,-2,1,2,-3,-3,-3,-1,2021-08-06 13:41:36,843472
2,2,5,8,16,10,5,2,2021-08-06 13:41:36,843472
0,0,1,4,2,1,1,1,2021-08-06 13:41:36,843472
3,2,1,3,11,6,4,3,2021-08-06 13:41:36,875473
-2,0,2,3,-4,-1,-2,-1,2021-08-06 13:41:36,875473
-3,-3,-1,-1,-5,-7,-6,-4,2021-08-06 13:41:36,875473
4,6,-1,-1,15,11,6,5,2021-08-06 13:41:36,875473
-5,-9,-9,-12,-22,-17,-7,-5,2021-08-06 13:41:36,875473
-5,-7,-6,-7,-14,-15,-6,-3,2021-08-06 13:41:36,875473
-2,-1,0,-11,-13,-5,-1,-2,2021-08-06 13:41:36,891473
-1,2,3,9,11,9,0,-1,2021-08-06 13:41:36,891473
5,5,-4,5,20,18,10,4,2021-08-06 13:41:36,907471
4,3,7,14,22,15,7,1,2021-08-06 13:41:36,923473
-3,-3,-7,-18,-20,-14,-3,-3,2021-08-06 13:41:36,923473
-7,-9,0,-16,-30,-24,-13,-9,2021-08-06 13:41:36,923473
2,1,-1,2,2,5,4,3,2021-08-06 13:41:36,923473
-4,-4,-7,-2,-13,-13,-7,-3,2021-08-06 13:41:36,923473
4,3,4,8,10,6,1,1,2021-08-06 13:41:36,923473
3,0,1,4,10,8,7,2,2021-08-06 13:41:36,923473
0,2,6,7,7,4,-1,-3,2021-08-06 13:41:36,939472
0,1,2,11,12,8,-1,0,2021-08-06 13:41:36,955472
-1,-4,-9,-21,-21,-4,-1,1,2021-08-06 13:41:36,955472
-4,-6,-8,-7,-8,-10,-6,-4,2021-08-06 13:41:36,955472
-1,-1,-3,-5,-3,-5,-1,0,2021-08-06 13:41:36,971473
4,6,10,12,17,13,7,4,2021-08-06 13:41:36,971473
-3,-2,6,7,-9,-8,-6,-4,2021-08-06 13:41:36,971473
1,1,-6,4,13,9,2,0,2021-08-06 13:41:36,971473
-2,-1,6,1,2,3,0,-2,2021-08-06 13:41:36,987473
-3,-6,-11,-13,-17,-12,-7,-2,2021-08-06 13:41:36,987473
-4,-3,-8,-16,-15,-10,-5,-3,2021-08-06 13:41:36,987473
-3,-4,-6,-7,-12,-7,-2,-2,2021-08-06 13:41:36,987473
-2,-4,1,13,9,5,0,-2,2021-08-06 13:41:37,003472
3,5,3,-3,15,13,7,3,2021-08-06 13:41:37,003472
-1,-1,1,2,0,0,-1,-2,2021-08-06 13:41:37,003472
-5,-3,-2,-11,-24,-17,-7,-5,2021-08-06 13:41:37,003472
2,4,-1,0,7,6,3,4,2021-08-06 13:41:37,019471
4,3,11,25,27,16,6,4,2021-08-06 13:41:37,019471
1,4,2,15,21,12,5,2,2021-08-06 13:41:37,035472
-4,-6,-7,-25,-29,-23,-11,-5,2021-08-06 13:41:37,035472
-4,-3,-6,-11,-13,-8,-3,-1,2021-08-06 13:41:37,051473
-1,-3,-3,-4,-4,-4,-2,-3,2021-08-06 13:41:37,067472
2,5,16,18,20,12,5,3,2021-08-06 13:41:37,078472
2,4,-1,15,21,16,8,3,2021-08-06 13:41:37,078472
-5,-9,-13,-23,-28,-20,-10,-5,2021-08-06 13:41:37,079474
-2,-2,-6,-12,-13,-7,-2,-3,2021-08-06 13:41:37,079474
-4,-5,-5,4,-4,-7,-5,-3,2021-08-06 13:41:37,079474
3,1,5,4,6,4,2,1,2021-08-06 13:41:37,079474
-2,-1,-2,-11,-12,-6,-1,-2,2021-08-06 13:41:37,079474
2,1,1,6,6,3,3,1,2021-08-06 13:41:37,079474
-1,-1,4,10,0,-4,-4,-2,2021-08-06 13:41:37,099472
2,3,4,11,23,20,9,4,2021-08-06 13:41:37,115473
1,2,-9,-10,0,-2,1,1,2021-08-06 13:41:37,115473
-5,-6,-4,-5,-18,-14,-9,-5,2021-08-06 13:41:37,115473
-2,-2,-10,-18,-12,-7,-2,-2,2021-08-06 13:41:37,115473
3,2,4,5,10,8,5,2,2021-08-06 13:41:37,115473
0,0,7,9,8,5,0,-2,2021-08-06 13:41:37,115473
0,0,0,1,-5,-2,0,-2,2021-08-06 13:41:37,115473
0,2,-1,8,7,4,3,1,2021-08-06 13:41:37,131472
-3,-2,0,-3,-5,-2,-3,-1,2021-08-06 13:41:37,147473
-1,-3,-6,-8,-16,-10,-3,-2,2021-08-06 13:41:37,163473
-6,-5,-6,-12,-18,-14,-8,-4,2021-08-06 13:41:37,163473
-1,-2,-2,0,2,0,-1,-1,2021-08-06 13:41:37,163473
1,1,2,3,7,7,1,0,2021-08-06 13:41:37,163473
-2,0,4,8,9,5,1,1,2021-08-06 13:41:37,163473
0,0,1,2,6,3,0,1,2021-08-06 13:41:37,163473
-4,-4,-4,-5,-8,-5,-3,-3,2021-08-06 13:41:37,179474
2,3,9,10,10,3,5,4,2021-08-06 13:41:37,179474
2,0,-1,7,11,8,2,1,2021-08-06 13:41:37,195473
-3,-2,-4,-7,-8,-5,-3,0,2021-08-06 13:41:37,211473
-7,-9,-18,-32,-36,-24,-11,-6,2021-08-06 13:41:37,211473
2,2,4,6,12,8,4,2,2021-08-06 13:41:37,211473
-1,-2,5,1,0,-2,-1,0,2021-08-06 13:41:37,211473
2,2,5,11,15,11,5,0,2021-08-06 13:41:37,211473
0,0,2,6,6,5,2,0,2021-08-06 13:41:37,211473
-4,-4,-8,-16,-23,-16,-10,-5,2021-08-06 13:41:37,211473
-2,-2,-2,-4,-3,-3,-2,-2,2021-08-06 13:41:37,243475
0,-2,-2,-1,3,1,1,2,2021-08-06 13:41:37,243475
-1,1,5,8,6,3,1,0,2021-08-06 13:41:37,243475
-4,-2,-4,3,0,0,0,-3,2021-08-06 13:41:37,243475
-1,0,-2,-10,-6,-4,-2,0,2021-08-06 13:41:37,243475
0,1,-3,-11,-7,-4,0,-1,2021-08-06 13:41:37,243475
2,2,-2,-1,4,5,2,2,2021-08-06 13:41:37,243475
-1,-3,-1,2,-6,-4,-3,-2,2021-08-06 13:41:37,243475
-3,-2,4,1,-5,-5,-5,-3,2021-08-06 13:41:37,259472
4,2,-1,-1,10,12,7,5,2021-08-06 13:41:37,259472
-1,-2,-5,0,3,1,-1,-1,2021-08-06 13:41:37,275473
-4,-1,-3,2,2,0,0,-2,2021-08-06 13:41:37,291472
-3,-2,-3,1,4,0,-2,-4,2021-08-06 13:41:37,307471
-6,-4,2,-6,-12,-10,-6,-4,2021-08-06 13:41:37,307471
2,1,1,0,-1,1,0,2,2021-08-06 13:41:37,307471
1,0,2,0,1,1,-2,-1,2021-08-06 13:41:37,307471
1,2,0,-1,-3,0,4,3,2021-08-06 13:41:37,307471
-2,-3,-4,-7,-12,-7,-1,-4,2021-08-06 13:41:37,307471
-1,-1,-2,0,-1,-2,-2,0,2021-08-06 13:41:37,308473
1,1,1,5,1,0,0,0,2021-08-06 13:41:37,308473
1,1,3,4,11,10,3,0,2021-08-06 13:41:37,323472
1,1,-2,-1,6,4,-1,1,2021-08-06 13:41:37,323472
-3,-3,-3,-3,-6,-3,1,-1,2021-08-06 13:41:37,323472
-3,-4,-9,-17,-20,-13,-5,-4,2021-08-06 13:41:37,323472
-2,-2,0,9,-1,-3,-2,-2,2021-08-06 13:41:37,339474
3,4,6,11,17,11,4,2,2021-08-06 13:41:37,339474
1,-1,-1,-7,1,4,0,-1,2021-08-06 13:41:37,355473
-4,-4,-7,-7,-5,-5,-4,-1,2021-08-06 13:41:37,371472
-2,-4,-2,-4,-10,-6,-5,-3,2021-08-06 13:41:37,371472
-1,-1,0,9,8,1,0,-2,2021-08-06 13:41:37,371472
2,4,8,9,10,7,4,0,2021-08-06 13:41:37,371472
-2,1,-4,-8,-7,-6,-3,0,2021-08-06 13:41:37,371472
-1,-2,-2,-8,-9,-5,-1,-1,2021-08-06 13:41:37,403472
-2,-1,1,3,0,-3,1,1,2021-08-06 13:41:37,419471
0,0,-3,1,1,-2,-1,1,2021-08-06 13:41:37,435472
-1,-1,-10,-10,-6,-2,0,-1,2021-08-06 13:41:37,437472
-3,-4,2,-4,-3,-3,-3,-4,2021-08-06 13:41:37,437472
1,-2,0,2,-3,-2,-2,-2,2021-08-06 13:41:37,437472
-1,-1,3,7,4,1,-1,-1,2021-08-06 13:41:37,437472
4,1,4,8,6,7,4,2,2021-08-06 13:41:37,437472
1,0,-8,-11,-3,-1,0,2,2021-08-06 13:41:37,437472
-1,-3,-2,-4,-7,-4,-4,0,2021-08-06 13:41:37,437472
-3,-3,-3,-1,-9,-7,-4,-2,2021-08-06 13:41:37,438473
2,0,1,-9,2,2,0,1,2021-08-06 13:41:37,438473
0,-1,0,3,3,3,0,0,2021-08-06 13:41:37,438473
-2,-1,-1,-2,-2,-1,-2,-2,2021-08-06 13:41:37,438473
-1,0,2,2,2,2,-2,-1,2021-08-06 13:41:37,466474
-1,2,4,12,7,2,2,-1,2021-08-06 13:41:37,482472
1,0,1,0,0,1,2,1,2021-08-06 13:41:37,498472
-1,-3,-9,-9,-10,-8,-3,-1,2021-08-06 13:41:37,498472
-1,-1,-12,-7,1,0,0,-2,2021-08-06 13:41:37,498472
-2,-1,9,6,6,2,-1,-2,2021-08-06 13:41:37,498472
0,6,8,14,8,5,1,0,2021-08-06 13:41:37,498472
-1,1,-5,-8,-7,-4,-1,0,2021-08-06 13:41:37,499474
-3,-5,-5,-15,-18,-11,-4,-4,2021-08-06 13:41:37,499474
-3,-3,-8,-10,-10,-8,-3,-2,2021-08-06 13:41:37,499474
2,0,6,12,10,5,1,-1,2021-08-06 13:41:37,499474
2,4,4,11,9,8,3,2,2021-08-06 13:41:37,499474
-1,-3,-5,-15,-10,-7,-2,-2,2021-08-06 13:41:37,514473
-2,-3,-2,-6,-8,-8,-5,-2,2021-08-06 13:41:37,530473
0,0,1,3,2,1,-1,-1,2021-08-06 13:41:37,545472
-2,0,3,3,3,2,0,-2,2021-08-06 13:41:37,545472
-1,2,2,9,9,7,3,0,2021-08-06 13:41:37,545472
0,0,1,0,0,0,0,0,2021-08-06 13:41:37,545472
-2,-2,-4,-4,-3,-4,0,-1,2021-08-06 13:41:37,545472
-1,-3,-3,-3,-3,-4,-1,-3,2021-08-06 13:41:37,545472
-2,-2,0,3,2,4,-1,2,2021-08-06 13:41:37,545472
-1,0,9,10,4,1,-1,0,2021-08-06 13:41:37,546476
0,1,-3,5,5,-1,-1,0,2021-08-06 13:41:37,560476
-1,-1,-12,-20,-6,-1,0,1,2021-08-06 13:41:37,560476
-4,-5,-5,-8,-14,-10,-7,-4,2021-08-06 13:41:37,576472
-2,-2,1,0,-4,-4,-2,-2,2021-08-06 13:41:37,576472
0,-1,0,-3,-5,-2,-2,1,2021-08-06 13:41:37,592474
-2,-3,-3,-1,-1,-1,-1,0,2021-08-06 13:41:37,592474
2,5,8,10,13,8,2,0,2021-08-06 13:41:37,592474
3,1,-2,-3,0,2,3,1,2021-08-06 13:41:37,592474
-5,-6,-6,-10,-20,-16,-9,-5,2021-08-06 13:41:37,608471
0,-1,0,1,-1,-2,-1,-1,2021-08-06 13:41:37,608471
0,1,0,5,8,4,3,0,2021-08-06 13:41:37,608471
0,3,2,5,3,4,2,1,2021-08-06 13:41:37,608471
2,2,0,0,6,6,3,1,2021-08-06 13:41:37,624473
-2,-1,-1,-4,-8,-3,-4,-3,2021-08-06 13:41:37,639472
0,-1,2,4,4,0,0,0,2021-08-06 13:41:37,639472
-3,-1,-1,2,1,-1,-2,-2,2021-08-06 13:41:37,639472
-1,-2,-4,-6,-4,-4,0,-1,2021-08-06 13:41:37,639472
-1,2,7,11,4,2,2,1,2021-08-06 13:41:37,639472
3,2,-2,4,6,3,1,2,2021-08-06 13:41:37,654473
-3,-6,-9,-14,-12,-6,-5,-3,2021-08-06 13:41:37,654473
-4,-6,-9,-16,-15,-9,-5,-4,2021-08-06 13:41:37,686471
-3,-2,6,7,-6,-6,-2,-3,2021-08-06 13:41:37,702472
-1,2,0,2,3,-1,0,1,2021-08-06 13:41:37,702472
2,1,-6,-17,-4,1,1,1,2021-08-06 13:41:37,702472
-6,-8,-6,-6,-13,-11,-7,-5,2021-08-06 13:41:37,718471
-3,-1,-1,-1,2,1,-2,0,2021-08-06 13:41:37,734472
-1,-2,2,4,3,4,1,-1,2021-08-06 13:41:37,734472
1,1,0,12,9,6,3,0,2021-08-06 13:41:37,734472
2,4,7,5,8,6,3,2,2021-08-06 13:41:37,750472
-1,1,1,1,0,-1,1,-2,2021-08-06 13:41:37,766473
0,-1,-4,-1,-2,-4,-2,1,2021-08-06 13:41:37,766473
-2,0,2,5,3,-1,-1,-1,2021-08-06 13:41:37,766473
2,3,9,13,9,5,2,1,2021-08-06 13:41:37,766473
-1,-4,-9,-4,-1,0,-1,0,2021-08-06 13:41:37,766473
-3,-6,-11,-22,-16,-9,-3,-1,2021-08-06 13:41:37,766473
-4,-4,-6,-10,-9,-5,-4,-1,2021-08-06 13:41:37,766473
-2,-2,-1,-2,-3,-3,-3,-2,2021-08-06 13:41:37,766473
2,4,10,15,15,7,0,-1,2021-08-06 13:41:37,767475
2,3,10,14,14,10,4,0,2021-08-06 13:41:37,767475
-2,-2,-4,-7,-9,-7,0,-1,2021-08-06 13:41:37,767475
-4,-5,-12,-19,-20,-14,-5,-3,2021-08-06 13:41:37,767475
0,-2,-6,-8,-5,-6,-3,-3,2021-08-06 13:41:37,767475
-1,0,-1,2,3,2,-2,-1,2021-08-06 13:41:37,767475
2,5,14,21,17,11,3,3,2021-08-06 13:41:37,767475
3,6,12,21,18,10,7,2,2021-08-06 13:41:37,798473
-1,-3,-9,-24,-9,-1,1,2,2021-08-06 13:41:37,798473
-7,-11,-19,-27,-22,-14,-8,-7,2021-08-06 13:41:37,798473
-2,-5,-6,-1,-1,-2,-4,-2,2021-08-06 13:41:37,798473
-1,1,2,2,2,0,0,0,2021-08-06 13:41:37,798473
4,7,18,27,13,5,2,1,2021-08-06 13:41:37,798473
5,8,12,19,19,12,6,3,2021-08-06 13:41:37,808471
0,0,-9,-17,-5,1,1,0,2021-08-06 13:41:37,808471
-9,-13,-22,-34,-29,-20,-11,-7,2021-08-06 13:41:37,830473
-3,-7,-7,-9,-18,-11,-5,-3,2021-08-06 13:41:37,846472
0,2,6,6,4,1,1,1,2021-08-06 13:41:37,862472
2,4,6,17,12,6,1,1,2021-08-06 13:41:37,862472
5,6,7,14,19,15,7,4,2021-08-06 13:41:37,862472
-4,-2,-4,-4,0,-1,-2,-1,2021-08-06 13:41:37,862472
-1,1,6,7,-1,-2,-3,0,2021-08-06 13:41:37,862472
0,1,-1,2,2,3,3,-1,2021-08-06 13:41:37,862472
-2,-2,-8,-8,-2,-2,-1,1,2021-08-06 13:41:37,862472
-7,-7,-9,-11,-16,-12,-6,-5,2021-08-06 13:41:37,862472
-1,-2,-1,-6,-3,-3,-2,1,2021-08-06 13:41:37,878472
-1,1,3,0,1,-2,-2,-2,2021-08-06 13:41:37,894474
3,-1,1,4,7,5,1,0,2021-08-06 13:41:37,910478
1,1,0,2,4,4,2,0,2021-08-06 13:41:37,910478
-1,-1,-1,-1,-4,-1,-2,-2,2021-08-06 13:41:37,910478
-2,-3,1,1,-4,-3,-2,-1,2021-08-06 13:41:37,910478
0,-2,2,5,3,0,1,0,2021-08-06 13:41:37,910478
1,-1,-5,-4,2,0,-1,0,2021-08-06 13:41:37,910478
-1,-2,-6,-9,-6,-6,0,-2,2021-08-06 13:41:37,910478
-2,-3,-1,-4,-5,-3,-4,-2,2021-08-06 13:41:37,910478
0,2,-1,4,1,2,1,0,2021-08-06 13:41:37,926472
0,0,5,5,4,2,1,-1,2021-08-06 13:41:37,926472
0,-2,-2,-2,-3,-1,0,0,2021-08-06 13:41:37,926472
-1,-1,1,1,0,-3,-2,-1,2021-08-06 13:41:37,926472
2,4,7,11,11,7,4,2,2021-08-06 13:41:37,972473
0,-2,-5,-13,-6,-1,0,0,2021-08-06 13:41:37,972473
-7,-9,-15,-28,-30,-20,-10,-8,2021-08-06 13:41:37,972473
-3,-3,-5,-2,-3,-4,-3,-3,2021-08-06 13:41:37,972473
0,-2,3,1,2,2,-1,-1,2021-08-06 13:41:37,972473
2,3,6,14,15,7,2,1,2021-08-06 13:41:37,972473
-3,0,4,4,5,1,-8,-5,2021-08-06 13:41:37,972473
3,0,-2,-5,-13,-14,-5,2,2021-08-06 13:41:37,973475
8,7,2,10,18,29,23,11,2021-08-06 13:41:37,988473
3,0,-1,-2,0,3,3,4,2021-08-06 13:41:37,988473
2,1,2,2,3,3,5,0,2021-08-06 13:41:37,988473
-6,-7,-6,-4,-2,-5,-6,-8,2021-08-06 13:41:37,988473
-7,-5,-4,-6,-7,-10,-10,-7,2021-08-06 13:41:38,004473
-3,-2,0,-2,-4,-3,-3,-3,2021-08-06 13:41:38,004473
-3,0,0,2,2,0,-3,-3,2021-08-06 13:41:38,020471
-1,0,2,1,0,1,-1,1,2021-08-06 13:41:38,020471
-1,-1,-3,-3,-6,-7,-3,-1,2021-08-06 13:41:38,036472
0,-1,-1,-1,-2,0,1,-3,2021-08-06 13:41:38,036472
2,2,0,3,1,-1,1,1,2021-08-06 13:41:38,052473
0,1,0,1,3,4,6,0,2021-08-06 13:41:38,052473
-1,-3,-3,-5,-4,-4,-1,-3,2021-08-06 13:41:38,052473
-2,-2,-2,-2,-4,-4,-5,-2,2021-08-06 13:41:38,052473
2,0,0,3,2,3,4,2,2021-08-06 13:41:38,052473
0,-2,-3,-3,-1,1,0,-1,2021-08-06 13:41:38,052473
-2,-1,-2,-2,-3,-3,-5,-3,2021-08-06 13:41:38,068472
0,2,4,6,7,2,-1,0,2021-08-06 13:41:38,084472
1,1,4,7,6,7,3,4,2021-08-06 13:41:38,084472
-2,-5,-6,-6,-7,-3,-1,1,2021-08-06 13:41:38,084472
-7,-8,-11,-18,-22,-17,-11,-7,2021-08-06 13:41:38,084472
-1,-2,-1,-1,-2,-1,-1,0,2021-08-06 13:41:38,084472
1,5,6,10,11,7,3,2,2021-08-06 13:41:38,100472
1,4,5,8,9,8,1,1,2021-08-06 13:41:38,100472
0,-2,-2,-3,-6,-4,-2,0,2021-08-06 13:41:38,100472
-4,-4,-3,-8,-9,-5,-3,-1,2021-08-06 13:41:38,100472
-3,-4,-4,-4,-6,-6,-4,-3,2021-08-06 13:41:38,115473
1,-1,-1,-4,-9,0,0,-2,2021-08-06 13:41:38,115473
4,6,7,15,25,17,8,4,2021-08-06 13:41:38,130473
-1,2,1,2,1,3,1,0,2021-08-06 13:41:38,130473
1,0,2,2,0,0,1,2,2021-08-06 13:41:38,130473
-3,-1,1,-2,-2,-3,-2,-3,2021-08-06 13:41:38,130473
-4,-7,-12,-7,-14,-11,-5,-4,2021-08-06 13:41:38,145472
-1,-1,-4,-1,2,-2,-3,-2,2021-08-06 13:41:38,161472
0,0,0,-1,-2,0,-1,-1,2021-08-06 13:41:38,174471
-1,-3,-4,-11,-12,-8,-4,-3,2021-08-06 13:41:38,175472
-2,0,1,-1,0,-1,1,0,2021-08-06 13:41:38,175472
0,-2,-1,3,3,2,-2,-1,2021-08-06 13:41:38,175472
0,-1,-2,2,2,3,-1,-1,2021-08-06 13:41:38,175472
0,3,4,10,11,7,2,1,2021-08-06 13:41:38,175472
0,3,4,2,4,1,-2,0,2021-08-06 13:41:38,193472
-3,-5,-5,-8,-10,-8,-2,-1,2021-08-06 13:41:38,209472
-2,-8,-14,-13,-14,-9,-3,-1,2021-08-06 13:41:38,209472
-4,-3,-5,-7,-7,-6,-4,-2,2021-08-06 13:41:38,209472
0,1,3,1,3,2,-1,0,2021-08-06 13:41:38,209472
3,3,7,5,5,3,2,0,2021-08-06 13:41:38,209472
0,0,6,4,7,6,3,2,2021-08-06 13:41:38,225473
0,-1,-2,1,1,0,-1,-1,2021-08-06 13:41:38,225473
1,-1,-1,0,-2,-3,0,-2,2021-08-06 13:41:38,225473
0,1,1,0,0,0,0,-2,2021-08-06 13:41:38,225473
-1,-3,-3,-3,-3,-3,-1,-2,2021-08-06 13:41:38,241473
0,-2,-1,0,0,-1,0,-2,2021-08-06 13:41:38,257473
-2,-1,1,1,1,-2,-3,-1,2021-08-06 13:41:38,272472
-2,-2,-2,-1,0,0,-1,0,2021-08-06 13:41:38,287473
-2,0,-3,-3,-7,-4,-1,-1,2021-08-06 13:41:38,287473
-1,0,11,0,2,0,-1,-1,2021-08-06 13:41:38,287473
0,4,-5,5,0,1,0,3,2021-08-06 13:41:38,287473
0,1,-16,-5,2,4,2,2,2021-08-06 13:41:38,287473
-2,-10,-23,-10,-7,-3,-1,1,2021-08-06 13:41:38,287473
-3,-11,-30,-9,-3,-3,0,-2,2021-08-06 13:41:38,287473
-4,-4,15,-2,-4,-8,-6,-3,2021-08-06 13:41:38,288473
0,3,16,6,1,0,-2,-1,2021-08-06 13:41:38,288473
2,8,12,3,2,1,0,1,2021-08-06 13:41:38,288473
1,2,8,-1,1,1,0,0,2021-08-06 13:41:38,288473
-2,-2,-9,-4,-4,0,1,-2,2021-08-06 13:41:38,317473
-2,-1,1,1,-1,-3,-2,-1,2021-08-06 13:41:38,333473
-1,1,4,3,2,1,0,-1,2021-08-06 13:41:38,349474
0,-1,0,5,3,0,-1,0,2021-08-06 13:41:38,349474
0,0,-2,0,1,0,-2,0,2021-08-06 13:41:38,349474
2,0,-1,3,2,2,0,0,2021-08-06 13:41:38,349474
0,-2,2,0,-1,-2,0,-1,2021-08-06 13:41:38,349474
-4,-5,-8,-12,-12,-9,-5,-5,2021-08-06 13:41:38,349474
-2,-2,-5,-8,-7,-2,-1,-1,2021-08-06 13:41:38,350473
-1,2,5,4,5,3,0,-1,2021-08-06 13:41:38,350473
1,4,5,9,9,6,3,0,2021-08-06 13:41:38,350473
-2,-2,3,-2,-3,0,2,2,2021-08-06 13:41:38,350473
-3,-8,-15,-10,-9,-6,-3,-2,2021-08-06 13:41:38,365474
-3,-6,-4,-7,-8,-6,-1,-2,2021-08-06 13:41:38,381472
-1,2,4,3,3,1,0,-1,2021-08-06 13:41:38,381472
3,6,8,10,12,9,3,2,2021-08-06 13:41:38,381472
2,1,9,3,5,4,2,-2,2021-08-06 13:41:38,381472
-2,-5,-10,-6,-7,-6,0,-1,2021-08-06 13:41:38,381472
-1,-3,-4,-5,-7,-5,-2,-3,2021-08-06 13:41:38,397473
-1,0,-2,-2,-2,-3,-2,-2,2021-08-06 13:41:38,397473
0,1,2,2,2,1,-1,-2,2021-08-06 13:41:38,413472
-2,-1,0,2,2,-2,-1,-4,2021-08-06 13:41:38,429472
0,2,6,7,10,5,1,2,2021-08-06 13:41:38,445471
2,4,3,6,7,7,3,2,2021-08-06 13:41:38,445471
-3,-5,-8,-8,-11,-6,-1,1,2021-08-06 13:41:38,445471
-6,-8,-13,-20,-25,-17,-7,-5,2021-08-06 13:41:38,445471
-2,-5,-5,-7,-6,-7,-3,-3,2021-08-06 13:41:38,445471
0,1,2,5,5,3,0,-1,2021-08-06 13:41:38,445471
3,4,6,10,12,9,4,1,2021-08-06 13:41:38,445471
1,0,2,2,2,3,3,1,2021-08-06 13:41:38,446474
-2,-2,2,-2,-3,-3,-5,-2,2021-08-06 13:41:38,461473
1,1,-6,1,3,1,0,1,2021-08-06 13:41:38,461473
1,0,-2,1,-1,0,0,0,2021-08-06 13:41:38,477472
-2,-3,-4,-4,-4,-4,-3,-3,2021-08-06 13:41:38,493474
-1,-2,-3,-3,-4,-3,-1,-1,2021-08-06 13:41:38,493474
-1,-1,4,1,0,1,-1,-3,2021-08-06 13:41:38,493474
-2,-1,1,-1,-3,-2,-4,-1,2021-08-06 13:41:38,493474
1,1,1,3,2,2,0,1,2021-08-06 13:41:38,493474
-1,-1,-1,-1,0,1,2,2,2021-08-06 13:41:38,509472
-1,-1,-2,-4,-5,-4,-1,1,2021-08-06 13:41:38,509472
-1,-4,-1,-1,0,-3,-2,-2,2021-08-06 13:41:38,509472
0,1,3,2,3,2,-1,1,2021-08-06 13:41:38,509472
-2,-1,-2,-3,-3,-4,-2,-3,2021-08-06 13:41:38,525473
-3,-2,-2,-3,-4,-1,-2,-2,2021-08-06 13:41:38,525473
-1,0,0,0,-1,0,1,-1,2021-08-06 13:41:38,525473
0,1,0,2,2,2,1,1,2021-08-06 13:41:38,525473
-2,-3,-2,-2,-2,-3,-3,-1,2021-08-06 13:41:38,538474
-2,0,-2,-1,-1,-3,-2,-1,2021-08-06 13:41:38,538474
0,0,1,0,1,0,-1,1,2021-08-06 13:41:38,538474
0,-2,0,0,0,1,0,0,2021-08-06 13:41:38,539473
0,-1,-2,-1,-2,-2,-1,-2,2021-08-06 13:41:38,557471
0,0,0,-2,-1,-1,-1,0,2021-08-06 13:41:38,557471
-2,-2,-1,-1,-1,-1,-1,-2,2021-08-06 13:41:38,573472
-2,1,-1,0,1,1,1,-2,2021-08-06 13:41:38,573472
-1,-2,-2,-2,-1,0,0,-2,2021-08-06 13:41:38,573472
0,-2,1,0,-1,-3,0,1,2021-08-06 13:41:38,573472
-1,-1,-1,-3,-1,-2,0,-2,2021-08-06 13:41:38,621472
-2,0,0,0,1,-1,-1,-1,2021-08-06 13:41:38,637472
-1,-1,0,-1,-1,0,1,-1,2021-08-06 13:41:38,652471
0,-3,-5,-2,-1,0,2,2,2021-08-06 13:41:38,652471
0,-2,-2,-1,-2,-2,0,2,2021-08-06 13:41:38,652471
-1,-2,1,-1,0,-1,-1,-1,2021-08-06 13:41:38,652471
-1,-1,-1,-1,-2,-1,-2,-2,2021-08-06 13:41:38,652471
-1,0,-2,-1,-1,-2,-4,-3,2021-08-06 13:41:38,652471
-1,-1,-1,0,-1,0,-1,-1,2021-08-06 13:41:38,652471
1,0,-1,0,-2,1,0,-1,2021-08-06 13:41:38,667473
-2,0,-2,-1,-1,-1,-1,0,2021-08-06 13:41:38,683473
-1,-1,-1,1,-1,-2,-1,-3,2021-08-06 13:41:38,683473
0,-1,-1,0,-1,0,-1,0,2021-08-06 13:41:38,683473
0,-1,-2,-2,0,0,-1,0,2021-08-06 13:41:38,683473
-1,0,-1,0,-2,0,-2,0,2021-08-06 13:41:38,683473
-3,0,0,0,-1,0,-2,-1,2021-08-06 13:41:38,683473
-2,-1,1,-1,0,1,-1,-1,2021-08-06 13:41:38,683473
0,0,-1,0,-1,-2,0,1,2021-08-06 13:41:38,683473
0,-1,-1,0,-1,-1,-1,-1,2021-08-06 13:41:38,683473
0,-2,-1,-2,-3,-1,-2,-1,2021-08-06 13:41:38,683473
0,0,-1,-2,-2,-1,-1,-1,2021-08-06 13:41:38,683473
1,0,-3,-3,-1,-1,0,2,2021-08-06 13:41:38,684473
0,-1,-3,-3,-1,-1,1,1,2021-08-06 13:41:38,699474
-2,-3,-3,0,-1,0,-1,-2,2021-08-06 13:41:38,699474
-3,-1,0,2,0,-1,-1,-3,2021-08-06 13:41:38,715473
-3,-2,0,1,0,-2,-1,-5,2021-08-06 13:41:38,715473
-2,0,-1,0,0,-3,-3,-1,2021-08-06 13:41:38,715473
-1,0,0,0,-1,0,0,-1,2021-08-06 13:41:38,715473
-2,1,-1,-1,-2,-1,-1,-2,2021-08-06 13:41:38,731472
0,1,3,3,3,1,1,0,2021-08-06 13:41:38,747474
1,1,0,2,1,0,0,0,2021-08-06 13:41:38,763472
-1,0,-2,-2,-1,-2,1,0,2021-08-06 13:41:38,763472
-3,-4,-6,-9,-9,-6,-4,-1,2021-08-06 13:41:38,763472
-2,-2,-2,-5,-7,-3,-2,0,2021-08-06 13:41:38,763472
-2,0,-2,0,0,1,-1,-1,2021-08-06 13:41:38,763472
2,3,5,8,6,4,2,2,2021-08-06 13:41:38,763472
1,3,3,9,11,8,3,2,2021-08-06 13:41:38,763472
0,0,2,5,6,3,2,1,2021-08-06 13:41:38,764476
-2,-3,-4,-7,-8,-5,-3,-1,2021-08-06 13:41:38,779473
-5,-8,-10,-16,-18,-13,-8,-5,2021-08-06 13:41:38,779473
-5,-10,-11,-18,-24,-16,-9,-5,2021-08-06 13:41:38,779473
1,4,4,4,10,6,1,0,2021-08-06 13:41:38,779473
2,4,5,11,12,9,4,3,2021-08-06 13:41:38,794473
3,3,4,6,7,6,4,1,2021-08-06 13:41:38,794473
0,0,1,0,1,-1,-3,-1,2021-08-06 13:41:38,810473
-2,-3,-4,-7,-8,-5,-1,0,2021-08-06 13:41:38,826473
-3,-2,-2,-4,-6,-5,-5,-3,2021-08-06 13:41:38,826473
1,5,6,10,15,10,3,1,2021-08-06 13:41:38,826473
3,2,5,9,12,9,4,2,2021-08-06 13:41:38,826473
-3,-4,-8,-9,-8,-8,-3,-4,2021-08-06 13:41:38,826473
-5,-5,-5,-10,-11,-7,-3,-5,2021-08-06 13:41:38,826473
-1,-3,-5,-8,-12,-7,-4,-2,2021-08-06 13:41:38,827476
1,4,5,5,7,2,-1,0,2021-08-06 13:41:38,858471
3,2,2,2,3,3,1,1,2021-08-06 13:41:38,874471
-2,-4,-5,-6,-7,-5,-2,-1,2021-08-06 13:41:38,890472
-2,-2,-2,-2,1,2,0,-2,2021-08-06 13:41:38,890472
0,2,2,3,6,8,5,1,2021-08-06 13:41:38,890472
-3,-4,-6,-7,-15,-10,-5,-3,2021-08-06 13:41:38,890472
-1,1,2,4,4,2,-2,-1,2021-08-06 13:41:38,890472
1,1,2,2,2,0,0,-2,2021-08-06 13:41:38,891473
0,1,0,3,1,0,-2,-2,2021-08-06 13:41:38,891473
1,0,2,2,6,1,0,0,2021-08-06 13:41:38,891473
0,-1,-2,-3,-2,-1,-1,1,2021-08-06 13:41:38,891473
0,-1,-1,0,0,-1,-2,-1,2021-08-06 13:41:38,891473
-1,-2,-1,0,2,0,0,-1,2021-08-06 13:41:38,906471
-2,1,1,0,2,1,-1,0,2021-08-06 13:41:38,906471
1,0,2,-2,-2,-3,1,-2,2021-08-06 13:41:38,914476
-3,-3,-5,-7,-9,-7,-3,-2,2021-08-06 13:41:38,914476
-2,-2,-6,-8,-10,-5,-1,-2,2021-08-06 13:41:38,938474
-2,-2,-1,1,2,1,-2,-5,2021-08-06 13:41:38,938474
3,4,4,9,11,6,3,1,2021-08-06 13:41:38,938474
0,0,-2,-2,-2,0,3,2,2021-08-06 13:41:38,938474
1,-4,-4,-5,-7,-8,-5,-1,2021-08-06 13:41:38,954473
-2,0,1,1,2,0,-2,-1,2021-08-06 13:41:38,970471
0,1,-3,-2,-6,-1,-1,0,2021-08-06 13:41:38,986472
-2,-5,-5,-9,-11,-8,-3,-2,2021-08-06 13:41:38,986472
-4,-4,-5,-6,-9,-6,-3,-2,2021-08-06 13:41:38,986472
-1,0,-1,1,2,3,0,-1,2021-08-06 13:41:38,986472
1,0,1,6,8,6,1,1,2021-08-06 13:41:38,986472
1,3,3,7,9,6,2,0,2021-08-06 13:41:38,986472
0,-2,-1,1,0,-2,0,0,2021-08-06 13:41:38,987474
-1,-2,-1,-1,-2,0,-2,-2,2021-08-06 13:41:38,987474
-1,1,0,-2,1,1,-2,-1,2021-08-06 13:41:39,002474
1,-1,2,4,3,3,0,2,2021-08-06 13:41:39,002474
-2,-1,0,-4,-4,-6,-3,-3,2021-08-06 13:41:39,018473
-2,-5,-10,-11,-16,-10,-2,-3,2021-08-06 13:41:39,018473
-2,-4,-10,-6,-8,-5,-4,-3,2021-08-06 13:41:39,018473
1,1,2,3,5,1,0,-1,2021-08-06 13:41:39,018473
3,5,10,13,18,11,4,3,2021-08-06 13:41:39,018473
2,2,4,6,7,6,6,4,2021-08-06 13:41:39,018473
-5,-8,-8,-13,-22,-14,-5,-3,2021-08-06 13:41:39,034472
-5,-4,-7,-9,-10,-8,-5,-4,2021-08-06 13:41:39,034472
-1,1,-1,1,2,2,0,-1,2021-08-06 13:41:39,050473
1,1,2,2,6,2,0,1,2021-08-06 13:41:39,050473
1,2,7,9,10,7,1,0,2021-08-06 13:41:39,050473
0,0,0,-2,0,-1,-2,-1,2021-08-06 13:41:39,050473
-1,-1,-5,-6,-7,-2,-1,-1,2021-08-06 13:41:39,082471
0,1,-2,1,1,-1,-2,0,2021-08-06 13:41:39,098472
0,-1,0,-1,0,-3,0,-2,2021-08-06 13:41:39,114473
-3,-3,-1,0,0,-1,-1,-1,2021-08-06 13:41:39,130472
-2,0,-2,0,-2,-1,-1,-3,2021-08-06 13:41:39,145472
0,-2,-3,-2,-2,-2,-1,-2,2021-08-06 13:41:39,160473
-2,-1,-1,0,1,0,-1,-1,2021-08-06 13:41:39,160473
0,-1,-1,1,1,0,1,1,2021-08-06 13:41:39,160841
-1,-2,-3,0,-1,0,0,1,2021-08-06 13:41:39,160841
-4,-3,-3,-2,-3,-3,-2,-2,2021-08-06 13:41:39,160841
-1,1,-1,-1,0,0,-1,-2,2021-08-06 13:41:39,160841
1,1,-1,-1,-1,0,1,0,2021-08-06 13:41:39,160841
-2,-2,-1,1,-1,-1,-1,0,2021-08-06 13:41:39,160841
-1,-1,0,-1,-4,-2,-1,-2,2021-08-06 13:41:39,161473
-1,-1,1,-2,1,-1,-2,1,2021-08-06 13:41:39,161473
0,0,-2,-3,-1,-1,0,0,2021-08-06 13:41:39,161473
0,0,-1,-4,-1,-2,1,0,2021-08-06 13:41:39,161473
0,-2,0,0,0,-2,-1,-2,2021-08-06 13:41:39,161473
-1,-1,0,1,-1,0,0,-1,2021-08-06 13:41:39,161473
-2,-2,0,-1,-3,-3,-3,-3,2021-08-06 13:41:39,161473
-1,-1,0,-1,0,0,-3,0,2021-08-06 13:41:39,161473
-1,0,0,-2,0,0,-1,0,2021-08-06 13:41:39,161473
1,0,-2,-1,1,0,0,-2,2021-08-06 13:41:39,176503
-1,-5,-2,-1,-3,0,-1,-1,2021-08-06 13:41:39,176503
-3,2,0,-1,-1,-2,-1,-1,2021-08-06 13:41:39,192501
2,3,0,0,-1,-1,2,3,2021-08-06 13:41:39,192501
0,-1,2,0,-1,0,0,0,2021-08-06 13:41:39,192501
-1,0,0,-1,-1,-1,-2,-1,2021-08-06 13:41:39,192501
-5,-5,-4,-1,-1,-1,-1,-4,2021-08-06 13:41:39,224500
-3,-2,0,-3,-1,-1,-3,-1,2021-08-06 13:41:39,224500
6,3,1,-1,-1,0,0,3,2021-08-06 13:41:39,224500
0,0,-1,0,0,1,1,0,2021-08-06 13:41:39,224500
1,0,-1,0,-2,-3,-1,0,2021-08-06 13:41:39,224500
-2,-4,-2,-1,-3,-1,0,-2,2021-08-06 13:41:39,224500
-4,-1,-1,-2,1,-2,0,-2,2021-08-06 13:41:39,240499
-7,-4,-2,-1,-2,-3,-6,-11,2021-08-06 13:41:39,240499
-4,-1,0,1,0,0,-2,-2,2021-08-06 13:41:39,255499
11,6,0,-1,-1,1,4,15,2021-08-06 13:41:39,255499
0,0,0,1,-1,0,-1,0,2021-08-06 13:41:39,255499
3,2,-1,-1,1,-1,0,3,2021-08-06 13:41:39,255499
-4,-3,-2,-1,0,-1,-1,-2,2021-08-06 13:41:39,282500
-5,-2,-2,-2,-1,-2,-3,-7,2021-08-06 13:41:39,282500
-1,-2,0,0,0,0,-1,1,2021-08-06 13:41:39,282500
-1,0,0,0,0,1,-1,-1,2021-08-06 13:41:39,282500
0,-3,-2,0,-1,-1,-1,-1,2021-08-06 13:41:39,282500
-1,-2,1,-1,0,0,-1,-1,2021-08-06 13:41:39,282500
-3,-1,-3,0,1,-1,-1,0,2021-08-06 13:41:39,302499
0,1,0,0,-2,-2,-1,-1,2021-08-06 13:41:39,302499
1,1,0,-2,-2,0,-1,-1,2021-08-06 13:41:39,318499
-3,-2,-1,-2,-3,-2,-3,-4,2021-08-06 13:41:39,333499
-1,-3,0,-2,-2,0,1,-2,2021-08-06 13:41:39,333499
-1,0,-1,0,-2,-1,2,5,2021-08-06 13:41:39,333499
-4,-4,-2,-1,-1,-1,-1,-6,2021-08-06 13:41:39,333499
-12,-5,-1,0,-1,-3,-5,-11,2021-08-06 13:41:39,333499
13,8,0,-2,-4,0,2,14,2021-08-06 13:41:39,333499
8,2,2,0,0,0,3,7,2021-08-06 13:41:39,334501
1,0,-2,-2,-2,0,-1,2,2021-08-06 13:41:39,348500
-5,-6,-2,-1,-1,-1,-3,-9,2021-08-06 13:41:39,363499
-4,-1,-2,0,-1,-2,0,-3,2021-08-06 13:41:39,378500
