EMG 1,EMG 2,EMG 3,EMG 4,EMG 5,EMG 6,EMG 7,EMG 8,Timestamp,Milliseconds
-3,-1,9,24,-6,-9,-4,-3,2021-08-06 13:48:47,337560
1,1,0,11,4,5,3,2,2021-08-06 13:48:47,337560
-3,-3,-10,-25,-20,-10,-3,-2,2021-08-06 13:48:47,337560
-2,-4,1,-10,-4,-4,-2,-3,2021-08-06 13:48:47,337560
0,2,1,12,4,1,0,-1,2021-08-06 13:48:47,353558
1,-2,5,21,13,6,1,2,2021-08-06 13:48:47,353558
-2,-5,-12,-32,-11,-3,-1,-1,2021-08-06 13:48:47,369608
-10,-17,-28,-52,-31,-13,-9,-7,2021-08-06 13:48:47,385593
4,4,7,19,31,15,8,4,2021-08-06 13:48:47,385593
-1,5,23,37,13,2,0,-1,2021-08-06 13:48:47,385593
4,7,13,38,19,9,4,3,2021-08-06 13:48:47,385593
4,3,-7,-9,-10,-7,0,3,2021-08-06 13:48:47,385593
-12,-18,-23,-51,-47,-22,-13,-10,2021-08-06 13:48:47,385593
2,6,4,14,21,14,6,4,2021-08-06 13:48:47,385593
1,1,6,10,5,1,0,-1,2021-08-06 13:48:47,385593
2,4,11,38,18,7,4,2,2021-08-06 13:48:47,385593
1,-1,-7,-21,-9,-2,-1,-1,2021-08-06 13:48:47,385593
-2,-6,-6,-25,-17,-9,-4,-5,2021-08-06 13:48:47,386557
-5,-3,0,13,-13,-11,-8,-5,2021-08-06 13:48:47,401584
6,9,2,-7,16,13,7,5,2021-08-06 13:48:47,401584
-4,-7,-6,-20,-2,1,-1,-1,2021-08-06 13:48:47,417592
-3,-4,-14,-27,-18,-12,-3,-4,2021-08-06 13:48:47,417592
-1,-1,2,13,11,2,0,-2,2021-08-06 13:48:47,433556
-1,2,12,31,1,-3,-2,-1,2021-08-06 13:48:47,433556
1,1,4,4,4,2,2,1,2021-08-06 13:48:47,465556
-3,-1,-4,-2,-4,-2,0,0,2021-08-06 13:48:47,465556
0,0,-5,-4,-2,-2,-1,-1,2021-08-06 13:48:47,465556
1,-1,0,5,11,5,2,0,2021-08-06 13:48:47,465556
-2,-2,-3,-9,-11,-6,-3,-2,2021-08-06 13:48:47,465556
2,-1,2,6,13,4,1,1,2021-08-06 13:48:47,465556
-1,-2,-4,-8,-5,-4,-1,0,2021-08-06 13:48:47,465556
-1,1,0,-1,-4,-1,-1,-2,2021-08-06 13:48:47,465556
0,2,2,6,8,4,1,1,2021-08-06 13:48:47,481556
1,2,3,3,-1,0,1,-1,2021-08-06 13:48:47,481556
-3,-6,-6,-7,-12,-10,-6,-4,2021-08-06 13:48:47,481556
3,4,4,6,11,9,5,4,2021-08-06 13:48:47,481556
-3,-5,-6,-14,-19,-12,-6,-4,2021-08-06 13:48:47,497556
-2,-1,1,0,-1,2,1,1,2021-08-06 13:48:47,497556
-4,-3,-4,-4,0,-2,-4,-4,2021-08-06 13:48:47,513557
-2,-5,-2,-5,-15,-5,-3,-3,2021-08-06 13:48:47,513557
4,4,6,10,12,7,4,4,2021-08-06 13:48:47,513557
0,1,1,3,4,1,0,0,2021-08-06 13:48:47,513557
-3,-4,-5,-6,-10,-4,-1,0,2021-08-06 13:48:47,543678
4,4,4,5,11,7,5,5,2021-08-06 13:48:47,543678
-2,-3,-3,-6,-7,-4,-3,-1,2021-08-06 13:48:47,559643
-2,-2,-2,3,-3,-7,-6,-3,2021-08-06 13:48:47,559643
2,2,3,5,6,6,3,3,2021-08-06 13:48:47,559643
3,4,5,18,23,11,5,1,2021-08-06 13:48:47,559643
-1,-2,-5,-23,-12,-3,0,-2,2021-08-06 13:48:47,559643
-10,-13,-23,-45,-45,-28,-15,-11,2021-08-06 13:48:47,559643
1,1,6,7,8,8,4,1,2021-08-06 13:48:47,591644
-1,-2,-1,11,10,0,-2,-2,2021-08-06 13:48:47,607644
4,6,16,32,17,5,5,3,2021-08-06 13:48:47,639643
5,7,15,32,17,9,4,4,2021-08-06 13:48:47,655643
0,-4,-17,-25,-20,-10,-3,-3,2021-08-06 13:48:47,655643
-8,-12,-17,-55,-31,-15,-8,-6,2021-08-06 13:48:47,655643
-7,-8,-12,-14,-15,-9,-7,-7,2021-08-06 13:48:47,655643
0,-1,0,0,8,7,4,0,2021-08-06 13:48:47,655643
7,12,25,47,33,16,7,5,2021-08-06 13:48:47,655643
0,4,7,23,10,4,1,-1,2021-08-06 13:48:47,655643
-2,-2,-3,-9,-15,-10,-7,-4,2021-08-06 13:48:47,656645
4,6,10,25,25,14,4,3,2021-08-06 13:48:47,656645
-2,-4,-8,-32,-7,-1,-2,0,2021-08-06 13:48:47,656645
-4,-7,-20,-30,-16,-10,-6,-3,2021-08-06 13:48:47,656645
-4,-8,-10,-27,-39,-20,-7,-5,2021-08-06 13:48:47,656645
1,1,2,7,20,8,5,1,2021-08-06 13:48:47,656645
-1,2,12,21,11,3,-1,-1,2021-08-06 13:48:47,656645
-3,-2,-5,8,-12,-8,-5,-3,2021-08-06 13:48:47,656645
4,5,12,33,31,14,6,4,2021-08-06 13:48:47,656645
3,3,-2,-3,-4,3,2,2,2021-08-06 13:48:47,657644
-7,-11,-13,-37,-29,-16,-8,-8,2021-08-06 13:48:47,687645
-8,-10,-14,-36,-24,-15,-8,-7,2021-08-06 13:48:47,703643
2,2,1,12,14,6,0,2,2021-08-06 13:48:47,703643
-2,-3,-2,-4,-14,-9,-4,-4,2021-08-06 13:48:47,703643
2,3,6,11,10,4,0,-1,2021-08-06 13:48:47,703643
2,3,10,15,7,2,0,1,2021-08-06 13:48:47,703643
0,-1,-2,-1,-1,2,2,1,2021-08-06 13:48:47,703643
2,1,1,6,17,8,2,1,2021-08-06 13:48:47,704646
-1,-2,-6,-5,-8,-6,-4,-2,2021-08-06 13:48:47,734643
3,4,5,10,12,8,3,2,2021-08-06 13:48:47,750643
-4,-2,5,7,2,-4,-3,-3,2021-08-06 13:48:47,766643
-2,-4,-13,-9,-17,-9,-3,-3,2021-08-06 13:48:47,766643
-2,-4,-7,-26,-15,-4,-1,1,2021-08-06 13:48:47,766643
-5,-5,-4,0,-8,-7,-5,-6,2021-08-06 13:48:47,766643
-1,-1,-3,0,0,-1,-2,-2,2021-08-06 13:48:47,766643
-1,2,13,-5,-1,-1,0,-1,2021-08-06 13:48:47,766643
5,5,-4,17,12,7,3,1,2021-08-06 13:48:47,766643
-3,-9,-18,-30,-18,-9,-5,-3,2021-08-06 13:48:47,767644
-3,-4,-6,-8,-3,-4,-1,-4,2021-08-06 13:48:47,767644
-1,-2,-1,1,-3,1,2,2,2021-08-06 13:48:47,767644
3,2,18,27,22,11,4,2,2021-08-06 13:48:47,782643
2,5,13,19,8,5,3,1,2021-08-06 13:48:47,782906
-1,0,-6,-2,-5,-2,-2,-3,2021-08-06 13:48:47,798151
-2,-1,-3,-14,-3,-4,-3,-1,2021-08-06 13:48:47,798151
-3,-4,-5,-2,-10,-10,-4,-3,2021-08-06 13:48:47,798151
3,3,5,10,9,5,5,4,2021-08-06 13:48:47,798151
0,1,-4,-5,4,7,2,3,2021-08-06 13:48:47,798151
-3,-5,-3,-15,-16,-10,-5,-5,2021-08-06 13:48:47,798151
-2,-2,-4,6,-3,-3,-1,-1,2021-08-06 13:48:47,829151
-1,-2,-1,-3,1,-1,-2,-2,2021-08-06 13:48:47,844151
3,5,3,16,26,12,5,1,2021-08-06 13:48:47,856151
0,1,9,8,4,1,0,0,2021-08-06 13:48:47,856151
-3,-7,-29,-38,-14,-6,-2,-4,2021-08-06 13:48:47,857153
-6,-8,-2,-25,-35,-19,-9,-6,2021-08-06 13:48:47,857153
-4,-8,-12,-12,-15,-9,-5,-4,2021-08-06 13:48:47,857153
7,10,13,31,34,18,9,6,2021-08-06 13:48:47,857153
2,4,25,42,17,3,1,1,2021-08-06 13:48:47,857153
3,5,3,19,11,9,5,3,2021-08-06 13:48:47,857153
-2,-3,-18,-47,-8,-1,-2,-2,2021-08-06 13:48:47,892154
-10,-14,-24,-43,-31,-19,-11,-7,2021-08-06 13:48:47,892154
-6,-4,3,-8,-16,-11,-6,-4,2021-08-06 13:48:47,892154
8,8,15,36,35,19,10,8,2021-08-06 13:48:47,892154
1,-1,8,20,0,0,0,-1,2021-08-06 13:48:47,892154
-2,0,-1,6,-5,-3,-1,-3,2021-08-06 13:48:47,892154
-2,-1,-3,-6,-10,-6,-3,-2,2021-08-06 13:48:47,908152
-1,-2,-6,-8,-4,-2,-2,0,2021-08-06 13:48:47,924153
2,0,-5,-20,2,3,2,2,2021-08-06 13:48:47,940152
-5,-5,-13,-25,-23,-9,-4,-5,2021-08-06 13:48:47,940152
-5,-6,-3,-6,-1,-2,-4,-4,2021-08-06 13:48:47,940152
-5,-1,8,9,-9,-7,-4,-6,2021-08-06 13:48:47,940152
6,10,10,32,27,13,7,6,2021-08-06 13:48:47,940152
0,1,4,0,-5,-2,-1,-1,2021-08-06 13:48:47,940152
4,4,-4,10,16,9,6,4,2021-08-06 13:48:47,940152
-5,-4,-3,1,-7,-10,-7,-7,2021-08-06 13:48:47,941153
-2,-2,0,-11,-7,0,-2,-1,2021-08-06 13:48:47,941153
-6,-8,-10,-33,-24,-14,-7,-4,2021-08-06 13:48:47,941153
-5,-7,-8,-27,-19,-9,-5,-3,2021-08-06 13:48:47,972153
1,1,-9,1,12,8,3,1,2021-08-06 13:48:47,988152
-2,-1,8,17,-4,-5,-2,-4,2021-08-06 13:48:47,988152
5,6,10,33,35,18,6,3,2021-08-06 13:48:47,988152
1,3,4,-3,-4,0,0,-1,2021-08-06 13:48:47,988152
1,1,0,3,7,4,2,1,2021-08-06 13:48:47,988152
-1,0,7,15,2,-2,-2,-2,2021-08-06 13:48:47,988152
-3,-4,-12,-21,-17,-7,-3,-2,2021-08-06 13:48:47,988152
-2,-3,-15,-36,-4,-1,-1,0,2021-08-06 13:48:48,004153
-7,-6,-6,-13,-23,-15,-10,-6,2021-08-06 13:48:48,020151
2,1,-7,-1,-4,3,4,3,2021-08-06 13:48:48,020151
3,3,9,29,35,18,5,3,2021-08-06 13:48:48,020151
1,4,10,22,6,1,0,0,2021-08-06 13:48:48,020151
2,5,6,1,6,3,1,1,2021-08-06 13:48:48,020151
-5,-7,-4,-9,-24,-16,-9,-6,2021-08-06 13:48:48,020151
0,-2,3,-3,-4,-3,0,0,2021-08-06 13:48:48,020151
-1,-1,-12,-5,2,3,0,0,2021-08-06 13:48:48,036152
-3,-4,-8,-15,-17,-12,-7,-2,2021-08-06 13:48:48,036152
-4,-5,-2,-8,-11,-7,-4,-3,2021-08-06 13:48:48,052152
3,6,10,35,36,18,8,5,2021-08-06 13:48:48,052152
2,1,10,23,18,9,4,2,2021-08-06 13:48:48,052152
-1,-3,-2,-20,-17,-8,-4,-2,2021-08-06 13:48:48,052152
2,2,-2,-11,-6,-3,0,2,2021-08-06 13:48:48,068151
-1,-3,-4,-11,-3,-2,-3,0,2021-08-06 13:48:48,068151
0,0,0,6,-1,-2,-1,-1,2021-08-06 13:48:48,084151
2,2,4,28,17,8,3,2,2021-08-06 13:48:48,084151
2,2,6,10,1,0,0,1,2021-08-06 13:48:48,084151
-4,-6,-15,-39,-25,-13,-5,-6,2021-08-06 13:48:48,084151
0,3,8,8,6,1,1,-1,2021-08-06 13:48:48,100152
1,0,2,-1,0,3,3,-1,2021-08-06 13:48:48,116151
-4,-4,-8,-3,10,2,-3,-4,2021-08-06 13:48:48,132151
2,-1,1,-4,-8,-4,0,0,2021-08-06 13:48:48,132151
-2,-1,0,-3,-13,-6,-3,-3,2021-08-06 13:48:48,132151
-1,-3,-8,-19,-8,-7,-4,-2,2021-08-06 13:48:48,132151
-3,-5,-8,7,4,1,1,-1,2021-08-06 13:48:48,132151
1,3,7,15,13,7,2,0,2021-08-06 13:48:48,132151
-1,-1,-6,-6,-9,-3,-1,-1,2021-08-06 13:48:48,148151
2,6,13,25,27,15,7,1,2021-08-06 13:48:48,164151
-2,-4,-5,-10,-10,-8,-6,-5,2021-08-06 13:48:48,164151
-2,-3,-5,-3,2,-1,-2,-3,2021-08-06 13:48:48,164151
0,-2,0,-8,-7,-3,-2,-2,2021-08-06 13:48:48,164151
1,0,-1,2,-1,-3,0,0,2021-08-06 13:48:48,164151
0,3,2,8,8,4,2,2,2021-08-06 13:48:48,164151
-1,-2,1,-7,-20,-11,-6,-2,2021-08-06 13:48:48,164151
0,-2,-3,-3,9,7,2,0,2021-08-06 13:48:48,180151
-4,-9,-21,-27,-19,-10,-6,-2,2021-08-06 13:48:48,196151
2,1,0,5,10,6,3,2,2021-08-06 13:48:48,196151
2,3,6,28,14,6,2,2,2021-08-06 13:48:48,196151
-2,-2,4,-2,1,0,-1,-1,2021-08-06 13:48:48,196151
-1,-1,4,2,2,1,0,0,2021-08-06 13:48:48,196151
-2,-3,0,-7,-18,-13,-6,-3,2021-08-06 13:48:48,196151
3,6,6,11,17,12,8,6,2021-08-06 13:48:48,196151
-4,-3,-11,-11,-6,-4,-3,-2,2021-08-06 13:48:48,222151
-2,-2,-2,-4,-3,0,1,-3,2021-08-06 13:48:48,222151
-5,-5,1,-11,-10,-8,-6,-3,2021-08-06 13:48:48,243153
2,2,-1,16,4,0,1,-1,2021-08-06 13:48:48,243153
3,1,6,13,12,8,4,2,2021-08-06 13:48:48,243153
2,0,-3,-12,-2,0,0,2,2021-08-06 13:48:48,243153
-1,-3,0,-1,1,0,-1,-2,2021-08-06 13:48:48,243153
-4,-5,-10,-21,-18,-12,-6,-4,2021-08-06 13:48:48,243153
-3,-3,-1,-1,-10,-8,-6,-3,2021-08-06 13:48:48,274152
2,2,4,14,11,7,1,1,2021-08-06 13:48:48,290151
3,1,7,10,11,7,4,1,2021-08-06 13:48:48,306152
0,-1,-1,-5,4,3,2,-1,2021-08-06 13:48:48,306152
-3,-3,-4,-7,-12,-6,-3,-3,2021-08-06 13:48:48,306152
-2,1,2,-4,-1,-3,-1,-1,2021-08-06 13:48:48,306152
1,1,-1,2,11,7,3,0,2021-08-06 13:48:48,306152
-4,-5,-5,-1,-13,-10,-5,-4,2021-08-06 13:48:48,306152
5,9,16,35,20,8,4,3,2021-08-06 13:48:48,306152
-4,-2,-2,-12,-6,-6,-3,-3,2021-08-06 13:48:48,306152
-4,-7,-15,-34,-28,-16,-8,-5,2021-08-06 13:48:48,306152
-4,-5,-16,-26,-14,-4,-4,-4,2021-08-06 13:48:48,307153
5,4,6,24,33,18,7,6,2021-08-06 13:48:48,322153
1,2,9,9,-4,-3,-1,0,2021-08-06 13:48:48,322153
-2,-2,-2,5,5,1,-2,-1,2021-08-06 13:48:48,322153
-7,-8,-8,-26,-32,-17,-9,-7,2021-08-06 13:48:48,322153
0,-2,-2,0,4,0,0,0,2021-08-06 13:48:48,354154
2,3,10,24,20,11,5,3,2021-08-06 13:48:48,369151
3,3,1,1,1,2,3,2,2021-08-06 13:48:48,384151
-4,-3,-5,-9,-6,-3,-3,0,2021-08-06 13:48:48,384151
-5,-4,-9,-20,-16,-9,-5,-4,2021-08-06 13:48:48,400153
-2,-1,-3,-9,-9,-5,-2,-2,2021-08-06 13:48:48,416151
0,2,7,10,12,8,4,2,2021-08-06 13:48:48,416151
1,5,11,29,11,3,1,2,2021-08-06 13:48:48,432152
-2,-3,-3,-1,-4,-2,0,-1,2021-08-06 13:48:48,448151
-6,-9,-21,-44,-27,-13,-6,-4,2021-08-06 13:48:48,464151
2,3,6,13,20,11,5,2,2021-08-06 13:48:48,480152
2,2,2,1,5,1,1,1,2021-08-06 13:48:48,480152
2,3,8,7,-1,-2,-1,0,2021-08-06 13:48:48,480152
-6,-6,-1,8,-21,-14,-6,-7,2021-08-06 13:48:48,480152
2,0,-1,-13,12,10,4,2,2021-08-06 13:48:48,480152
2,-1,-3,6,20,10,2,1,2021-08-06 13:48:48,480152
-4,-2,-4,-2,-4,-3,-1,-2,2021-08-06 13:48:48,480152
-1,-1,-3,3,-4,-3,-2,0,2021-08-06 13:48:48,480152
-4,-3,3,-11,-26,-17,-9,-5,2021-08-06 13:48:48,481153
0,2,1,11,7,7,4,2,2021-08-06 13:48:48,481153
1,-1,-3,-1,7,4,2,2,2021-08-06 13:48:48,481153
1,-1,-4,-5,4,1,0,0,2021-08-06 13:48:48,481153
-1,-1,2,7,-3,-3,-1,-3,2021-08-06 13:48:48,481153
-1,-5,-4,-14,-18,-11,-6,-5,2021-08-06 13:48:48,481153
-2,-3,-6,-10,-7,-2,-2,-2,2021-08-06 13:48:48,481153
-3,-1,-3,-4,-6,-2,-2,-4,2021-08-06 13:48:48,481153
0,2,4,9,9,6,3,2,2021-08-06 13:48:48,482153
3,3,5,10,11,7,2,2,2021-08-06 13:48:48,482153
1,2,2,11,4,0,1,1,2021-08-06 13:48:48,482153
2,2,6,8,9,6,2,1,2021-08-06 13:48:48,482153
-6,-4,-5,-20,-24,-16,-10,-6,2021-08-06 13:48:48,482153
-4,-2,-8,1,2,-1,-2,-3,2021-08-06 13:48:48,482153
0,0,1,2,4,3,1,-1,2021-08-06 13:48:48,512154
-1,-1,-3,-9,-3,-1,1,1,2021-08-06 13:48:48,512154
0,-1,-3,1,5,1,2,0,2021-08-06 13:48:48,512154
-1,-1,5,3,-6,-3,-2,-1,2021-08-06 13:48:48,528151
-2,-3,-9,-16,-12,-5,-4,-4,2021-08-06 13:48:48,528151
0,-2,0,7,3,0,1,-1,2021-08-06 13:48:48,528151
-2,-2,-2,4,8,5,0,-1,2021-08-06 13:48:48,528151
-1,1,2,-5,-4,-2,-1,-1,2021-08-06 13:48:48,528151
-2,-1,1,6,-5,-3,-5,-2,2021-08-06 13:48:48,559156
1,0,2,2,6,2,1,-1,2021-08-06 13:48:48,559156
2,3,-2,-3,0,0,1,0,2021-08-06 13:48:48,559156
-5,-7,-11,-16,-26,-18,-10,-5,2021-08-06 13:48:48,559156
-1,-2,-1,-13,-2,-1,1,-1,2021-08-06 13:48:48,559156
2,2,5,20,36,19,6,3,2021-08-06 13:48:48,559156
0,-4,2,8,2,-2,-3,1,2021-08-06 13:48:48,575152
4,4,8,16,17,9,6,5,2021-08-06 13:48:48,575152
-5,-6,-11,-25,-25,-15,-6,-6,2021-08-06 13:48:48,591152
-3,-5,-4,-14,-18,-11,-6,-3,2021-08-06 13:48:48,591152
0,1,1,7,8,3,2,0,2021-08-06 13:48:48,591152
-2,-1,-2,-2,-3,-2,-1,-2,2021-08-06 13:48:48,591152
-1,-1,-1,5,8,4,-1,0,2021-08-06 13:48:48,607152
0,1,-2,-4,-8,-4,-2,0,2021-08-06 13:48:48,623151
0,1,2,12,1,2,-1,-2,2021-08-06 13:48:48,623151
1,1,-3,0,0,1,1,1,2021-08-06 13:48:48,623151
-2,0,2,-16,-5,-1,-1,-1,2021-08-06 13:48:48,623151
0,3,-1,0,-3,-2,0,0,2021-08-06 13:48:48,623151
-1,-2,-2,-10,-9,-7,-3,-1,2021-08-06 13:48:48,623151
-1,-3,4,0,3,1,-2,-1,2021-08-06 13:48:48,623151
0,-1,-10,4,1,-2,-1,-1,2021-08-06 13:48:48,654156
-1,-2,-2,1,1,2,1,-2,2021-08-06 13:48:48,654156
-2,-1,-2,-4,-7,-6,-4,-1,2021-08-06 13:48:48,670153
-1,-2,1,2,-1,0,0,-3,2021-08-06 13:48:48,670153
2,3,12,11,14,8,2,1,2021-08-06 13:48:48,670153
-2,-2,-3,-7,-2,-2,-1,-2,2021-08-06 13:48:48,670153
-1,-2,-4,0,1,0,0,-1,2021-08-06 13:48:48,670153
-3,-2,1,-13,-18,-13,-6,-1,2021-08-06 13:48:48,670153
-1,-3,-6,6,-3,-3,-1,0,2021-08-06 13:48:48,686151
-1,-1,5,12,7,4,0,1,2021-08-06 13:48:48,702151
-4,-2,-12,-19,-6,-3,-3,-2,2021-08-06 13:48:48,718151
-3,0,-4,-10,-8,-7,-3,-2,2021-08-06 13:48:48,718151
4,4,9,10,14,10,7,4,2021-08-06 13:48:48,718151
1,2,1,8,4,2,1,-1,2021-08-06 13:48:48,718151
-4,-5,-4,-3,-8,-6,-2,-4,2021-08-06 13:48:48,718151
3,2,1,4,4,5,2,2,2021-08-06 13:48:48,718151
-2,-2,-2,-3,-8,-7,-4,-3,2021-08-06 13:48:48,733151
-2,-1,-2,1,3,1,0,-2,2021-08-06 13:48:48,749151
-1,-1,0,2,3,2,0,2,2021-08-06 13:48:48,749151
1,-1,-3,-3,-2,-1,-1,-2,2021-08-06 13:48:48,749151
-1,0,0,0,-7,-4,-2,-1,2021-08-06 13:48:48,749151
0,-1,-4,-5,-4,-3,-3,-1,2021-08-06 13:48:48,749151
1,0,1,3,3,1,-1,0,2021-08-06 13:48:48,749151
-1,-3,-3,-1,-2,-3,-3,0,2021-08-06 13:48:48,749151
-5,-5,-5,-12,-12,-8,-5,-4,2021-08-06 13:48:48,780151
0,4,2,-1,2,0,1,1,2021-08-06 13:48:48,795151
3,4,7,11,18,10,6,2,2021-08-06 13:48:48,810151
-2,-2,-2,-1,-4,-2,-1,-2,2021-08-06 13:48:48,810151
0,0,-2,0,0,0,-1,0,2021-08-06 13:48:48,810151
-5,-4,-3,-8,-9,-7,-2,-4,2021-08-06 13:48:48,810151
0,-1,-3,-3,-6,-4,-1,-1,2021-08-06 13:48:48,810151
-2,0,-2,-2,-1,-2,0,0,2021-08-06 13:48:48,810151
-1,-1,1,4,7,2,0,2,2021-08-06 13:48:48,810151
-1,0,-1,-1,-1,1,2,1,2021-08-06 13:48:48,810151
-3,0,0,1,2,1,0,0,2021-08-06 13:48:48,810151
0,-1,0,-1,2,1,-1,0,2021-08-06 13:48:48,810151
-2,-3,-4,-4,-8,-4,-4,-5,2021-08-06 13:48:48,826152
0,-1,-2,2,0,-1,-2,2,2021-08-06 13:48:48,842151
-1,-3,-1,-1,0,0,0,0,2021-08-06 13:48:48,857151
-2,-3,-1,1,6,3,1,1,2021-08-06 13:48:48,857151
-1,-1,-1,-1,2,2,0,0,2021-08-06 13:48:48,857151
1,1,-2,-1,-6,-4,0,0,2021-08-06 13:48:48,857151
3,2,3,6,14,8,3,1,2021-08-06 13:48:48,857151
-1,-2,-4,-2,-1,0,1,0,2021-08-06 13:48:48,857151
2,4,5,3,0,0,1,0,2021-08-06 13:48:48,889151
-1,-1,2,1,5,1,1,0,2021-08-06 13:48:48,905151
-1,-3,-4,-12,-18,-14,-6,-2,2021-08-06 13:48:48,920151
2,0,3,10,22,14,7,1,2021-08-06 13:48:48,920151
-3,-2,-1,-1,-1,-3,-3,-2,2021-08-06 13:48:48,936152
-2,-2,-3,-3,-5,-2,-2,-2,2021-08-06 13:48:48,936152
-1,1,0,-2,-5,-3,-1,-1,2021-08-06 13:48:48,936152
-3,-2,-3,-7,-17,-11,-5,-4,2021-08-06 13:48:48,936152
1,-2,-1,2,5,3,1,1,2021-08-06 13:48:48,936152
1,1,1,4,3,4,0,0,2021-08-06 13:48:48,937152
-2,-1,0,4,2,1,0,-2,2021-08-06 13:48:48,937152
1,2,1,-2,-5,-2,-2,-1,2021-08-06 13:48:48,937152
-4,-1,-3,-10,-7,-6,-3,-1,2021-08-06 13:48:48,937152
-1,-4,-1,-3,-1,1,-3,-1,2021-08-06 13:48:48,937152
1,0,0,0,-1,0,0,0,2021-08-06 13:48:48,937152
-2,-2,-1,-3,-3,-2,-3,-1,2021-08-06 13:48:48,937152
-2,-1,0,-3,-7,-4,-2,-1,2021-08-06 13:48:48,937152
-1,1,2,10,14,6,3,0,2021-08-06 13:48:48,938155
-4,-4,-4,-4,-9,-5,-4,-5,2021-08-06 13:48:48,952151
3,0,0,3,3,4,2,1,2021-08-06 13:48:48,967151
1,0,0,2,4,4,2,2,2021-08-06 13:48:48,967151
0,-2,-3,-2,-5,-3,-1,0,2021-08-06 13:48:48,967151
-2,-4,-3,-2,-1,0,-1,-4,2021-08-06 13:48:48,967151
-3,-1,0,-3,-4,-3,-2,-3,2021-08-06 13:48:48,967151
0,-1,-4,-7,-13,-8,-4,-1,2021-08-06 13:48:48,999151
0,3,2,0,0,2,0,0,2021-08-06 13:48:48,999151
1,0,4,5,12,4,1,0,2021-08-06 13:48:48,999151
-4,-5,-9,-4,-1,-2,-1,-3,2021-08-06 13:48:48,999151
0,-1,0,1,-1,-3,0,-1,2021-08-06 13:48:48,999151
0,0,0,-1,4,0,-3,0,2021-08-06 13:48:48,999151
-1,-1,-2,-2,-9,-4,-3,-1,2021-08-06 13:48:49,029151
0,1,2,-1,2,-1,0,1,2021-08-06 13:48:49,045151
-1,-1,7,-1,0,-1,1,-1,2021-08-06 13:48:49,061151
1,-2,-4,6,3,0,-1,0,2021-08-06 13:48:49,061151
-2,-3,-6,3,-4,-3,-3,-1,2021-08-06 13:48:49,061151
2,1,-4,-4,4,4,0,1,2021-08-06 13:48:49,061151
-2,-2,-4,-17,-10,-4,-3,-1,2021-08-06 13:48:49,061151
-3,-4,-3,-9,-11,-6,-4,-4,2021-08-06 13:48:49,061151
0,0,5,5,5,4,3,1,2021-08-06 13:48:49,061151
-2,-1,3,10,-2,-5,-2,-2,2021-08-06 13:48:49,061151
-3,-4,-3,5,2,0,-2,-3,2021-08-06 13:48:49,061151
0,-2,-8,-17,-10,-5,-1,-2,2021-08-06 13:48:49,061151
4,5,4,8,15,11,5,2,2021-08-06 13:48:49,076152
1,0,-1,1,1,-1,1,-1,2021-08-06 13:48:49,076152
1,-1,2,2,-5,-4,-3,-2,2021-08-06 13:48:49,092153
-3,-6,-8,-1,-9,-7,-4,-3,2021-08-06 13:48:49,092153
-2,-1,-5,-10,-2,0,-1,1,2021-08-06 13:48:49,092153
0,1,3,1,3,3,1,1,2021-08-06 13:48:49,092153
-2,-3,-2,3,0,-4,-4,-4,2021-08-06 13:48:49,108153
-1,0,1,2,1,-1,-2,-1,2021-08-06 13:48:49,108153
-2,-1,-3,-7,-4,-3,-2,-1,2021-08-06 13:48:49,108153
-1,0,-1,-4,-9,-4,-3,-2,2021-08-06 13:48:49,108153
-1,0,-3,3,4,2,1,-1,2021-08-06 13:48:49,124152
1,1,5,9,17,8,2,2,2021-08-06 13:48:49,156151
-2,-2,0,-3,-9,-6,-2,-2,2021-08-06 13:48:49,172151
-4,-4,-7,-8,-11,-7,-4,-4,2021-08-06 13:48:49,172151
0,3,1,8,17,9,3,1,2021-08-06 13:48:49,172151
1,1,1,-3,-5,-1,1,0,2021-08-06 13:48:49,172151
-1,-2,-3,0,1,-2,-2,-1,2021-08-06 13:48:49,172151
0,-1,-1,-1,-3,-5,-2,-2,2021-08-06 13:48:49,172151
-2,-2,-3,-1,-2,0,-3,0,2021-08-06 13:48:49,172151
0,1,3,-3,-4,-2,0,0,2021-08-06 13:48:49,173153
-1,-3,-1,0,-2,-1,-2,0,2021-08-06 13:48:49,173153
-2,-2,-3,-1,0,0,-1,-2,2021-08-06 13:48:49,173153
2,1,-1,-2,-3,-2,-1,1,2021-08-06 13:48:49,204152
-1,-1,0,4,9,3,0,-2,2021-08-06 13:48:49,220151
1,0,1,0,-4,-2,-2,0,2021-08-06 13:48:49,236151
-3,-1,-1,0,3,2,1,0,2021-08-06 13:48:49,236151
-3,-1,-1,-4,-3,0,0,-1,2021-08-06 13:48:49,236151
-3,-3,-7,-9,-16,-9,-5,-4,2021-08-06 13:48:49,236151
0,0,-2,0,2,1,2,0,2021-08-06 13:48:49,236151
3,2,3,7,6,3,2,2,2021-08-06 13:48:49,236151
0,1,-1,-2,-3,-3,-2,-1,2021-08-06 13:48:49,236151
-2,-1,-2,-2,-5,-2,-1,0,2021-08-06 13:48:49,236151
-4,-1,0,-3,-6,-5,-4,-3,2021-08-06 13:48:49,237155
1,-2,-3,-6,3,3,2,1,2021-08-06 13:48:49,237155
1,-1,-2,1,-3,0,3,1,2021-08-06 13:48:49,237155
-1,-1,2,-3,-2,1,1,2,2021-08-06 13:48:49,237155
-1,-1,-3,2,2,2,-2,-1,2021-08-06 13:48:49,252152
0,-1,1,2,-1,-1,-1,-1,2021-08-06 13:48:49,268151
-2,-3,-2,-3,-4,-5,-3,-1,2021-08-06 13:48:49,268151
-1,0,-1,1,1,0,0,-2,2021-08-06 13:48:49,268151
-1,-1,-1,-4,-6,-4,-1,-1,2021-08-06 13:48:49,268151
-2,-1,2,0,-4,-4,-2,-3,2021-08-06 13:48:49,268151
-2,-2,-2,0,-1,0,-2,-2,2021-08-06 13:48:49,300152
0,0,0,1,5,2,0,2,2021-08-06 13:48:49,315151
3,0,1,-2,-2,1,2,1,2021-08-06 13:48:49,330151
-1,-3,-3,-8,-7,-7,-4,-3,2021-08-06 13:48:49,330151
2,3,2,12,27,19,10,3,2021-08-06 13:48:49,330151
-2,0,0,3,0,-1,0,-3,2021-08-06 13:48:49,330151
-1,-3,-1,1,3,0,-2,-1,2021-08-06 13:48:49,330151
-4,-2,0,3,0,-1,-3,-2,2021-08-06 13:48:49,330151
-2,-2,-1,-7,-15,-11,-5,-4,2021-08-06 13:48:49,330151
-4,-2,-4,-11,-17,-11,-6,-3,2021-08-06 13:48:49,330151
3,5,5,17,26,13,5,2,2021-08-06 13:48:49,330151
0,-1,-2,-3,-6,-4,-2,-3,2021-08-06 13:48:49,331153
0,-1,0,-1,-4,-3,-2,0,2021-08-06 13:48:49,361152
1,1,0,2,3,-1,1,-1,2021-08-06 13:48:49,377151
-2,-2,-4,-7,-14,-8,-2,-3,2021-08-06 13:48:49,393151
0,-1,-2,-6,1,1,1,0,2021-08-06 13:48:49,393151
0,1,-1,3,6,1,1,1,2021-08-06 13:48:49,393151
0,-2,0,-2,-5,-2,-1,-2,2021-08-06 13:48:49,393151
-2,-3,-4,-8,-8,-5,-3,-2,2021-08-06 13:48:49,393151
-2,-2,-3,7,9,4,-2,-2,2021-08-06 13:48:49,393151
1,-2,1,-1,-4,0,1,1,2021-08-06 13:48:49,393151
5,7,8,9,5,6,2,4,2021-08-06 13:48:49,393151
-2,-1,3,-5,-7,-4,-4,-2,2021-08-06 13:48:49,394152
-2,-2,-6,-6,2,1,1,0,2021-08-06 13:48:49,394152
-2,-3,-6,-3,-5,-4,-3,-3,2021-08-06 13:48:49,409152
-3,-4,-4,-2,3,0,1,-1,2021-08-06 13:48:49,425154
-1,0,-1,0,-3,-4,-1,-1,2021-08-06 13:48:49,441155
1,3,4,1,-2,0,0,2,2021-08-06 13:48:49,441155
-1,-1,-1,-5,-9,-9,-5,-3,2021-08-06 13:48:49,441155
2,3,1,3,8,6,3,3,2021-08-06 13:48:49,441155
0,0,0,2,9,4,1,0,2021-08-06 13:48:49,441155
0,0,0,7,9,3,0,0,2021-08-06 13:48:49,441155
-1,0,0,2,3,1,2,1,2021-08-06 13:48:49,441155
-3,-2,-4,-3,-5,-4,-3,-3,2021-08-06 13:48:49,441155
-6,-5,-6,-15,-22,-14,-7,-5,2021-08-06 13:48:49,441155
1,1,4,5,5,6,4,1,2021-08-06 13:48:49,442153
0,-1,-6,4,21,10,1,-1,2021-08-06 13:48:49,471189
-3,-5,-1,-3,-2,-5,-4,-1,2021-08-06 13:48:49,487156
2,1,1,3,2,3,2,1,2021-08-06 13:48:49,487156
-3,-1,2,-3,-9,-4,-2,-1,2021-08-06 13:48:49,487156
-2,-2,0,-4,-10,-3,-2,-2,2021-08-06 13:48:49,487156
-2,-4,-6,-6,-2,-1,-2,-3,2021-08-06 13:48:49,487156
0,-2,-1,0,-1,-2,-1,-3,2021-08-06 13:48:49,487156
2,2,0,0,-2,-3,1,-1,2021-08-06 13:48:49,487156
-2,-2,-2,-3,-5,-3,-1,-1,2021-08-06 13:48:49,518151
-1,1,2,1,1,-1,1,0,2021-08-06 13:48:49,533151
1,-1,0,-1,-6,-3,0,2,2021-08-06 13:48:49,533151
-2,-4,-3,-2,3,1,-2,0,2021-08-06 13:48:49,533151
-1,-1,-2,-1,-1,0,-1,1,2021-08-06 13:48:49,533151
-3,-3,0,-3,-4,-5,-1,-3,2021-08-06 13:48:49,533151
0,3,-1,4,0,0,1,2,2021-08-06 13:48:49,533151
-2,-3,-5,-3,-1,-1,-1,-2,2021-08-06 13:48:49,533151
-2,-2,-1,-6,-3,-2,-1,-2,2021-08-06 13:48:49,549151
0,-1,-2,0,-4,-1,-2,-1,2021-08-06 13:48:49,549151
-1,-3,-1,0,1,-3,-2,-1,2021-08-06 13:48:49,549151
-3,-2,-4,-3,-7,-4,-4,-2,2021-08-06 13:48:49,549151
2,4,6,12,16,9,4,2,2021-08-06 13:48:49,565153
-2,-2,-4,-7,-8,-6,-4,-2,2021-08-06 13:48:49,565153
-1,0,-2,-3,-1,0,0,0,2021-08-06 13:48:49,565153
-1,0,0,6,7,1,-1,1,2021-08-06 13:48:49,565153
-1,0,0,-6,-8,-1,-2,0,2021-08-06 13:48:49,595151
1,0,0,5,8,4,2,0,2021-08-06 13:48:49,610151
-1,-1,-2,-4,-6,-2,-2,1,2021-08-06 13:48:49,610151
-1,-1,-2,-4,-2,-3,-2,-2,2021-08-06 13:48:49,610151
-1,-1,-1,-2,-6,-4,0,-2,2021-08-06 13:48:49,610151
1,2,1,4,6,4,2,0,2021-08-06 13:48:49,610151
-1,-2,-1,-3,-3,0,-1,-1,2021-08-06 13:48:49,610151
0,0,0,-1,-3,-1,-1,-1,2021-08-06 13:48:49,610151
-3,0,0,5,8,3,0,0,2021-08-06 13:48:49,626153
1,0,0,-5,-8,-3,-3,0,2021-08-06 13:48:49,626153
-1,0,-1,1,5,1,-2,-1,2021-08-06 13:48:49,626153
0,-1,-1,-3,-1,-3,-1,-1,2021-08-06 13:48:49,626153
1,-1,0,1,-1,1,0,-1,2021-08-06 13:48:49,657151
1,2,3,1,0,0,0,0,2021-08-06 13:48:49,673151
-1,1,1,7,10,4,1,-1,2021-08-06 13:48:49,689151
-2,1,-1,-4,-7,-6,-2,-2,2021-08-06 13:48:49,689151
0,-1,1,-3,-2,-3,-2,1,2021-08-06 13:48:49,689151
-4,-5,-6,-4,-5,-3,-1,-3,2021-08-06 13:48:49,689151
-2,-2,0,-3,-1,0,-1,-1,2021-08-06 13:48:49,689151
3,6,6,6,4,5,2,3,2021-08-06 13:48:49,689151
-3,-2,0,-3,-6,-6,-3,-2,2021-08-06 13:48:49,689151
-1,0,-4,2,2,0,0,-1,2021-08-06 13:48:49,689151
-2,-3,-5,-9,-10,-7,-4,-3,2021-08-06 13:48:49,690155
-4,-6,-3,-4,-5,-2,-3,-2,2021-08-06 13:48:49,690155
0,1,0,-2,-4,-3,-3,-1,2021-08-06 13:48:49,710151
1,2,5,7,12,8,3,1,2021-08-06 13:48:49,710151
0,-2,-3,-1,3,4,1,1,2021-08-06 13:48:49,710151
0,-1,-2,-1,0,0,0,-1,2021-08-06 13:48:49,710151
1,-1,1,-2,-7,-3,-3,-1,2021-08-06 13:48:49,736151
-4,-4,-5,-7,-11,-9,-5,-3,2021-08-06 13:48:49,736151
2,2,2,4,10,7,4,2,2021-08-06 13:48:49,736151
-1,-1,-2,-2,-3,-2,-2,-2,2021-08-06 13:48:49,736151
-1,-1,-2,-1,-1,-2,-1,-1,2021-08-06 13:48:49,751153
-2,-2,-1,-1,0,-3,0,-1,2021-08-06 13:48:49,767151
-2,-1,-2,0,-1,0,1,0,2021-08-06 13:48:49,767151
0,-2,-2,-2,-2,-1,0,0,2021-08-06 13:48:49,767151
-3,-3,-5,-1,-1,-1,-2,-3,2021-08-06 13:48:49,767151
1,1,3,-4,-4,-1,-4,0,2021-08-06 13:48:49,767151
0,0,-1,-3,-4,-3,-1,-1,2021-08-06 13:48:49,767151
-2,-1,0,4,5,2,1,1,2021-08-06 13:48:49,767151
-1,-3,-3,-3,-3,-1,-1,-2,2021-08-06 13:48:49,799151
1,1,1,1,-1,-1,-1,0,2021-08-06 13:48:49,799151
-1,0,-1,-6,-14,-6,-2,0,2021-08-06 13:48:49,799151
0,-2,0,2,7,4,1,-2,2021-08-06 13:48:49,799151
0,-3,-2,3,3,2,-1,0,2021-08-06 13:48:49,799151
-2,-3,-2,-3,0,-2,-1,-1,2021-08-06 13:48:49,799151
-2,-4,-3,-8,-14,-10,-4,-3,2021-08-06 13:48:49,815151
0,3,2,5,-1,0,0,0,2021-08-06 13:48:49,830151
1,3,1,3,3,4,3,0,2021-08-06 13:48:49,845151
0,-1,-2,-3,0,-1,0,0,2021-08-06 13:48:49,845151
-2,-2,0,-3,-3,-3,-2,-3,2021-08-06 13:48:49,845151
-2,-5,0,-4,-8,-7,-4,-4,2021-08-06 13:48:49,845151
2,1,-2,5,12,6,3,3,2021-08-06 13:48:49,845151
0,-1,-2,-1,1,2,2,0,2021-08-06 13:48:49,845151
-3,-1,-1,-2,-3,-1,-2,-2,2021-08-06 13:48:49,845151
0,0,0,7,15,7,3,2,2021-08-06 13:48:49,846152
-3,-2,-2,-9,-17,-10,-5,-2,2021-08-06 13:48:49,861151
-1,-1,1,4,7,4,0,1,2021-08-06 13:48:49,861151
2,-1,-1,5,11,5,1,0,2021-08-06 13:48:49,861151
-2,-2,-2,-4,-9,-6,-3,-3,2021-08-06 13:48:49,861151
-3,-2,-3,-3,-6,-6,-3,-1,2021-08-06 13:48:49,893151
-1,-1,1,6,8,4,0,-1,2021-08-06 13:48:49,893151
1,1,3,3,3,0,0,1,2021-08-06 13:48:49,908153
-1,-3,-5,-9,-6,-1,0,-1,2021-08-06 13:48:49,924152
0,-1,-2,-9,-9,-9,-3,-3,2021-08-06 13:48:49,940154
-2,-3,-4,-3,-6,0,-1,-2,2021-08-06 13:48:49,940154
1,0,0,4,9,3,1,0,2021-08-06 13:48:49,940154
-2,-1,-2,-2,-6,-2,-4,-3,2021-08-06 13:48:49,940154
1,0,0,0,-4,-3,-2,-1,2021-08-06 13:48:49,940154
5,5,10,9,15,9,4,5,2021-08-06 13:48:49,940154
0,0,-1,3,2,1,-2,-1,2021-08-06 13:48:49,940154
-5,-5,-12,-11,-24,-13,-6,-2,2021-08-06 13:48:49,940154
0,0,1,4,16,11,4,2,2021-08-06 13:48:49,956151
-1,0,8,6,3,0,-2,-1,2021-08-06 13:48:49,956151
0,-1,-7,-8,-9,-6,-3,-3,2021-08-06 13:48:49,956151
-1,-3,-8,3,6,-2,-3,-3,2021-08-06 13:48:49,956151
1,0,4,-10,-15,-9,-3,-1,2021-08-06 13:48:49,972151
-2,2,6,16,-1,-3,0,0,2021-08-06 13:48:49,988151
-3,-3,-3,-6,3,2,0,-1,2021-08-06 13:48:50,004152
-3,-2,-4,-25,-15,-5,-2,-3,2021-08-06 13:48:50,020152
0,-1,-9,-6,3,3,1,-1,2021-08-06 13:48:50,036151
0,0,3,-9,-12,-5,0,0,2021-08-06 13:48:50,036151
-1,1,1,12,1,-2,0,-2,2021-08-06 13:48:50,052151
2,3,5,13,9,4,2,1,2021-08-06 13:48:50,068151
-2,-1,4,3,0,-1,0,-1,2021-08-06 13:48:50,068151
0,-1,-13,4,11,6,1,0,2021-08-06 13:48:50,068151
-3,-4,-4,-5,-10,-5,-3,-3,2021-08-06 13:48:50,068151
2,-2,1,0,1,2,0,2,2021-08-06 13:48:50,068151
0,1,6,8,9,4,1,0,2021-08-06 13:48:50,068151
-5,-4,-5,-13,-26,-17,-10,-6,2021-08-06 13:48:50,068151
-2,-1,-4,-15,-7,-5,-3,-3,2021-08-06 13:48:50,069153
2,2,4,9,26,16,5,3,2021-08-06 13:48:50,069153
-1,1,3,2,-4,-3,-3,-2,2021-08-06 13:48:50,069153
-1,-4,-10,-7,-1,0,0,-1,2021-08-06 13:48:50,069153
-2,-3,-1,-2,-7,-5,-3,-2,2021-08-06 13:48:50,069153
0,2,8,9,7,3,0,-1,2021-08-06 13:48:50,069153
0,-1,-2,4,16,8,4,0,2021-08-06 13:48:50,069153
-3,-7,-9,-16,-17,-14,-5,-2,2021-08-06 13:48:50,069153
-3,0,0,-4,-4,-2,-3,0,2021-08-06 13:48:50,069153
-1,0,-2,-8,-11,-6,-2,-2,2021-08-06 13:48:50,069153
3,4,2,11,11,8,4,2,2021-08-06 13:48:50,100153
0,0,4,0,0,2,-1,0,2021-08-06 13:48:50,116151
-2,-1,-3,-1,0,2,1,0,2021-08-06 13:48:50,116151
-3,-2,-4,-5,-10,-5,-3,-1,2021-08-06 13:48:50,116151
-2,-6,-1,-4,-7,-5,-5,-3,2021-08-06 13:48:50,116151
1,3,10,5,8,7,4,1,2021-08-06 13:48:50,116151
0,0,-9,9,6,4,2,1,2021-08-06 13:48:50,116151
1,-3,-1,0,0,0,-2,-1,2021-08-06 13:48:50,116151
-4,-3,-7,-19,-16,-7,-4,-5,2021-08-06 13:48:50,132151
-4,-4,-4,-5,-8,-4,-6,-4,2021-08-06 13:48:50,148151
1,-1,4,-3,-7,-5,-3,-1,2021-08-06 13:48:50,163152
5,7,7,20,31,17,8,5,2021-08-06 13:48:50,163152
-1,-4,-7,1,-7,-6,-3,0,2021-08-06 13:48:50,163152
1,-2,-7,-6,-4,1,0,0,2021-08-06 13:48:50,163152
2,3,7,5,15,8,2,1,2021-08-06 13:48:50,163152
-3,-3,-4,-11,-18,-12,-4,-3,2021-08-06 13:48:50,163152
-3,0,3,4,4,1,-2,-1,2021-08-06 13:48:50,163152
-3,-1,0,2,-1,-3,-2,-3,2021-08-06 13:48:50,163152
0,-2,-4,-1,-5,-3,-1,-2,2021-08-06 13:48:50,164154
0,-3,-6,-6,-4,-4,-3,-1,2021-08-06 13:48:50,164154
1,1,1,-2,1,0,2,-1,2021-08-06 13:48:50,195151
-1,-1,-2,-5,-5,-4,0,-1,2021-08-06 13:48:50,210151
0,-2,4,10,5,2,1,0,2021-08-06 13:48:50,210151
-1,-1,-2,-11,-2,-2,-1,-3,2021-08-06 13:48:50,210151
1,0,-4,-7,-11,-6,-3,-2,2021-08-06 13:48:50,210151
-3,-4,-6,-6,-7,-3,-4,-2,2021-08-06 13:48:50,210151
6,9,16,20,33,20,10,5,2021-08-06 13:48:50,226153
-2,0,1,7,-2,-2,-2,0,2021-08-06 13:48:50,226153
-5,-4,-6,-4,-8,-4,-3,-2,2021-08-06 13:48:50,226153
-1,-1,-2,-5,-2,-1,-1,0,2021-08-06 13:48:50,226153
-1,3,8,3,0,-3,-2,-3,2021-08-06 13:48:50,226153
-1,-1,-4,-2,-4,-3,0,-2,2021-08-06 13:48:50,226153
0,-3,-7,-4,-1,-1,-3,-1,2021-08-06 13:48:50,256151
0,-1,-1,0,-8,-4,-3,-2,2021-08-06 13:48:50,256151
-1,-1,-4,-7,-3,-2,-1,0,2021-08-06 13:48:50,256151
-2,0,5,2,-1,-3,0,-3,2021-08-06 13:48:50,256151
1,1,0,-2,-9,-2,-1,-3,2021-08-06 13:48:50,272151
0,0,-4,2,10,4,2,0,2021-08-06 13:48:50,272151
-1,-2,2,1,2,1,-1,-1,2021-08-06 13:48:50,272151
-3,-4,-2,-9,-14,-10,-6,-3,2021-08-06 13:48:50,272151
0,1,2,9,9,7,3,0,2021-08-06 13:48:50,288151
0,0,-1,-3,-6,-4,-1,-2,2021-08-06 13:48:50,304152
0,-1,3,2,2,3,1,0,2021-08-06 13:48:50,320152
-1,0,-1,-4,-5,-2,-2,-1,2021-08-06 13:48:50,336151
0,0,-11,1,4,1,-1,1,2021-08-06 13:48:50,336151
0,1,2,1,5,1,-1,-2,2021-08-06 13:48:50,336151
-4,-5,-8,-9,-7,-6,-2,-3,2021-08-06 13:48:50,336151
0,0,1,-1,-5,-6,-1,0,2021-08-06 13:48:50,336151
2,3,8,0,-5,-2,0,1,2021-08-06 13:48:50,336151
0,1,4,13,20,8,3,0,2021-08-06 13:48:50,337153
-2,-2,-4,-6,-10,-5,-2,-1,2021-08-06 13:48:50,337153
1,1,-1,3,2,3,2,3,2021-08-06 13:48:50,337153
0,1,1,-3,-2,-2,-1,-1,2021-08-06 13:48:50,352151
-1,-1,-3,-3,-4,-3,-1,0,2021-08-06 13:48:50,352151
-3,-5,-5,-2,-13,-7,-4,-5,2021-08-06 13:48:50,352151
1,2,-5,-2,11,4,2,0,2021-08-06 13:48:50,352151
-1,2,6,2,6,0,-1,0,2021-08-06 13:48:50,368151
-2,-4,-1,-4,-5,-1,-3,-4,2021-08-06 13:48:50,384151
-1,-1,-1,-1,-3,-1,-2,0,2021-08-06 13:48:50,400154
-4,-5,-6,-6,-12,-7,-2,-4,2021-08-06 13:48:50,400154
1,-1,1,8,6,3,2,1,2021-08-06 13:48:50,400154
2,2,2,5,3,1,1,1,2021-08-06 13:48:50,400154
-1,0,0,-2,1,0,-2,-2,2021-08-06 13:48:50,400154
-1,-1,1,-2,-7,-3,-4,-1,2021-08-06 13:48:50,400154
-4,-3,-6,-9,-14,-12,-5,-4,2021-08-06 13:48:50,400154
3,2,0,7,11,12,7,4,2021-08-06 13:48:50,400154
-2,-3,-6,-4,-2,-1,1,-2,2021-08-06 13:48:50,416153
0,0,0,1,-3,-2,0,0,2021-08-06 13:48:50,416153
0,0,1,0,1,1,0,0,2021-08-06 13:48:50,432152
-2,-3,-4,-9,-17,-10,-5,-4,2021-08-06 13:48:50,448152
-1,-1,-3,0,2,0,-1,-1,2021-08-06 13:48:50,448152
0,2,5,3,8,3,1,-1,2021-08-06 13:48:50,448152
-2,-4,-3,-6,-9,-5,-3,-1,2021-08-06 13:48:50,448152
2,1,-2,-2,-3,-3,-2,-1,2021-08-06 13:48:50,448152
0,2,5,-2,-2,0,1,1,2021-08-06 13:48:50,448152
0,0,-1,3,8,3,1,-2,2021-08-06 13:48:50,448152
0,2,2,4,9,4,2,1,2021-08-06 13:48:50,464152
-3,-2,2,1,0,0,0,-1,2021-08-06 13:48:50,480151
0,-1,-12,0,-1,-1,0,-1,2021-08-06 13:48:50,496151
-1,-3,3,0,-3,-3,-1,-2,2021-08-06 13:48:50,512151
-1,0,0,-6,-10,-3,-2,-2,2021-08-06 13:48:50,528151
1,2,9,21,27,11,6,4,2021-08-06 13:48:50,528151
-3,-6,-7,-28,-25,-13,-5,-4,2021-08-06 13:48:50,528151
1,3,1,13,17,10,7,3,2021-08-06 13:48:50,528151
0,0,-1,2,9,4,4,1,2021-08-06 13:48:50,528151
-1,-1,-3,-1,-5,-1,-3,-1,2021-08-06 13:48:50,528151
0,-2,3,6,0,-1,-3,0,2021-08-06 13:48:50,528151
-1,-1,-1,-3,-5,-3,-4,-3,2021-08-06 13:48:50,529152
-1,-4,-4,-3,-5,-3,-3,-2,2021-08-06 13:48:50,529152
-1,-1,-2,-1,-2,-1,-1,-1,2021-08-06 13:48:50,529152
-1,1,-4,0,3,2,-2,0,2021-08-06 13:48:50,529152
-2,-2,2,-8,-13,-6,-5,-2,2021-08-06 13:48:50,529152
-1,1,1,7,10,6,3,-1,2021-08-06 13:48:50,559152
-2,-2,-3,-7,-3,-3,-3,-2,2021-08-06 13:48:50,559152
-2,1,3,3,3,1,0,-1,2021-08-06 13:48:50,559152
-1,-1,-4,-2,-4,-3,-3,-1,2021-08-06 13:48:50,559152
-4,-6,-8,-12,-18,-13,-6,-3,2021-08-06 13:48:50,575152
4,6,7,11,28,15,7,6,2021-08-06 13:48:50,575152
-1,1,1,6,1,2,1,-1,2021-08-06 13:48:50,575152
0,2,0,2,2,0,0,2,2021-08-06 13:48:50,575152
-2,-2,-5,-4,-5,-4,-2,-2,2021-08-06 13:48:50,591153
-2,-4,-4,-10,-14,-9,-5,-4,2021-08-06 13:48:50,591153
2,2,2,5,0,0,1,1,2021-08-06 13:48:50,591153
-2,-2,0,-5,0,-1,0,-1,2021-08-06 13:48:50,591153
1,-1,0,7,9,6,2,1,2021-08-06 13:48:50,607152
-3,-6,-11,-9,-13,-7,-4,-3,2021-08-06 13:48:50,623151
-2,-1,1,-5,-6,-5,-3,-2,2021-08-06 13:48:50,623151
-1,-2,-4,-5,-13,-7,-3,-1,2021-08-06 13:48:50,623151
3,4,11,20,38,21,9,4,2021-08-06 13:48:50,639151
-3,-3,-1,-4,-11,-5,-1,-1,2021-08-06 13:48:50,655151
1,0,-2,2,7,5,2,1,2021-08-06 13:48:50,671152
-1,-2,-1,-3,-4,-4,-2,-1,2021-08-06 13:48:50,687153
-1,-1,-5,-6,-9,-6,-3,-2,2021-08-06 13:48:50,687153
-2,-1,-2,-3,-7,-4,-4,-2,2021-08-06 13:48:50,687153
-1,-2,-1,-4,0,-1,-2,-2,2021-08-06 13:48:50,687153
1,3,-1,2,3,3,1,0,2021-08-06 13:48:50,687153
-1,-2,-2,-3,-9,-5,-1,-2,2021-08-06 13:48:50,687153
-1,-4,-1,-3,-3,-3,-1,-1,2021-08-06 13:48:50,687153
-3,-2,-4,-8,-8,-5,-3,-2,2021-08-06 13:48:50,687153
1,-1,-3,6,7,6,2,0,2021-08-06 13:48:50,687153
0,-1,1,1,1,0,0,0,2021-08-06 13:48:50,688156
0,0,0,-2,-3,-3,-1,-3,2021-08-06 13:48:50,688156
0,-2,2,2,1,-1,-1,-1,2021-08-06 13:48:50,688156
-1,-2,-4,-2,3,1,0,-1,2021-08-06 13:48:50,688156
-1,-2,-3,-3,-6,-4,-1,0,2021-08-06 13:48:50,717153
-2,0,-1,-4,-5,-3,-3,-1,2021-08-06 13:48:50,733151
-2,1,2,3,-1,-1,-1,-1,2021-08-06 13:48:50,733151
1,-3,-3,-3,-4,-3,-1,-1,2021-08-06 13:48:50,733151
0,0,-1,-2,-3,-2,-1,0,2021-08-06 13:48:50,733151
-1,-1,0,3,7,4,1,-1,2021-08-06 13:48:50,733151
1,0,1,4,12,5,2,0,2021-08-06 13:48:50,733151
-2,-1,-1,-2,-4,-1,-1,0,2021-08-06 13:48:50,733151
-3,-3,-4,-6,-10,-4,-2,-1,2021-08-06 13:48:50,763153
2,1,-1,-2,-1,-1,1,0,2021-08-06 13:48:50,763153
1,0,0,1,-1,0,-1,0,2021-08-06 13:48:50,763153
-3,-3,-1,-2,-5,-4,-1,-3,2021-08-06 13:48:50,763153
-1,-3,-6,-8,-9,-10,-5,-4,2021-08-06 13:48:50,779153
-3,-4,-7,-8,-12,-3,-1,-3,2021-08-06 13:48:50,795151
4,5,6,13,21,11,7,4,2021-08-06 13:48:50,795151
0,2,0,2,2,1,2,-1,2021-08-06 13:48:50,795151
-1,0,-1,-1,-2,-2,-1,-2,2021-08-06 13:48:50,795151
-5,-3,-4,-10,-17,-12,-6,-4,2021-08-06 13:48:50,795151
-3,-4,-5,-4,-6,-5,-3,-1,2021-08-06 13:48:50,795151
0,-1,0,1,3,0,-1,1,2021-08-06 13:48:50,795151
1,0,0,-1,-1,3,1,0,2021-08-06 13:48:50,810151
3,3,2,4,9,5,3,3,2021-08-06 13:48:50,826151
-2,-2,-4,-3,-5,-4,-2,-1,2021-08-06 13:48:50,826151
1,-1,1,2,1,0,0,0,2021-08-06 13:48:50,826151
-2,-2,0,-6,-3,-3,-4,0,2021-08-06 13:48:50,828153
-1,0,1,-1,2,0,1,0,2021-08-06 13:48:50,828153
-3,-3,-2,-7,-9,-6,-1,-3,2021-08-06 13:48:50,828153
-2,-3,-3,-3,-4,-2,-2,-3,2021-08-06 13:48:50,828153
0,1,6,10,11,7,2,0,2021-08-06 13:48:50,858172
3,3,1,6,7,5,2,1,2021-08-06 13:48:50,874171
-1,-2,-4,-3,-5,-4,-2,-2,2021-08-06 13:48:50,890172
-3,-2,-2,-7,-11,-8,-4,-2,2021-08-06 13:48:50,890172
0,0,-1,-1,3,1,1,0,2021-08-06 13:48:50,890172
0,0,4,3,6,3,1,0,2021-08-06 13:48:50,890172
-3,-3,-5,-3,-5,-3,-3,-2,2021-08-06 13:48:50,890172
-2,-3,-2,-4,-4,-2,-1,1,2021-08-06 13:48:50,890172
1,2,3,5,10,4,2,2,2021-08-06 13:48:50,890172
-2,-2,-2,-2,-3,-2,-2,0,2021-08-06 13:48:50,890172
-1,0,0,0,0,0,0,1,2021-08-06 13:48:50,891173
-2,-3,-1,-2,-3,0,-1,-2,2021-08-06 13:48:50,891173
-1,-1,-2,-2,-4,-4,-2,0,2021-08-06 13:48:50,921175
0,0,1,-1,-1,-2,0,0,2021-08-06 13:48:50,921175
-3,-4,-2,-5,-9,-4,-4,-3,2021-08-06 13:48:50,921175
-2,0,-1,2,5,4,-1,1,2021-08-06 13:48:50,921175
0,-2,-1,1,1,0,-2,-1,2021-08-06 13:48:50,937174
0,3,2,4,3,2,0,0,2021-08-06 13:48:50,953171
-2,-2,-3,-8,-13,-9,-5,-2,2021-08-06 13:48:50,953171
2,0,2,6,13,8,2,2,2021-08-06 13:48:50,953171
-5,-7,-5,-3,-5,-4,-4,-7,2021-08-06 13:48:50,953171
2,3,2,1,0,0,0,2,2021-08-06 13:48:50,953171
4,4,4,-2,-4,-1,1,1,2021-08-06 13:48:50,953171
-1,-1,-5,-6,-7,-5,-2,-3,2021-08-06 13:48:50,953171
-5,-4,-4,-2,0,-2,-1,-1,2021-08-06 13:48:50,969171
-4,-5,-5,0,1,3,0,-2,2021-08-06 13:48:50,969171
-2,0,-1,-7,-12,-6,-4,-3,2021-08-06 13:48:50,969171
3,4,3,5,7,7,3,2,2021-08-06 13:48:50,969171
0,3,3,6,9,4,1,1,2021-08-06 13:48:51,000172
-5,-5,-5,-8,-13,-11,-5,-5,2021-08-06 13:48:51,016171
-1,-3,-4,1,4,1,0,0,2021-08-06 13:48:51,016171
-2,-3,-3,-11,-18,-12,-5,-3,2021-08-06 13:48:51,016171
-1,-3,-3,-12,-17,-9,-3,0,2021-08-06 13:48:51,016171
3,0,4,12,24,13,4,3,2021-08-06 13:48:51,016171
0,-2,-1,1,1,1,2,-1,2021-08-06 13:48:51,016171
-2,-2,-3,3,7,2,-1,-1,2021-08-06 13:48:51,016171
-3,-1,-2,0,-6,-4,-2,-2,2021-08-06 13:48:51,032171
1,2,4,-1,-5,-5,-2,0,2021-08-06 13:48:51,032171
-1,1,1,5,9,3,1,0,2021-08-06 13:48:51,032171
0,1,1,-1,-3,-4,0,-1,2021-08-06 13:48:51,032171
0,-1,-3,0,1,0,0,-1,2021-08-06 13:48:51,062173
2,0,-1,-2,-1,-1,0,0,2021-08-06 13:48:51,062173
-1,-2,-1,0,1,1,-1,-2,2021-08-06 13:48:51,062173
-1,-1,-1,1,1,1,-1,-2,2021-08-06 13:48:51,062173
3,3,-1,-2,-3,-1,0,2,2021-08-06 13:48:51,078171
-1,1,-1,1,-3,-1,-1,-2,2021-08-06 13:48:51,093679
-1,-2,-1,-2,3,1,-1,-2,2021-08-06 13:48:51,109680
-2,-2,-1,3,3,0,-2,-2,2021-08-06 13:48:51,141681
1,-3,0,-1,-4,-2,-2,0,2021-08-06 13:48:51,157683
1,0,-2,-2,6,3,1,1,2021-08-06 13:48:51,157683
-2,0,1,-1,0,-3,-2,-1,2021-08-06 13:48:51,157683
-2,0,-1,-4,-3,-1,-2,0,2021-08-06 13:48:51,157683
-1,-1,0,1,4,3,-1,-1,2021-08-06 13:48:51,157683
-3,-1,-2,-4,-4,-2,-3,-2,2021-08-06 13:48:51,157683
1,0,2,6,7,6,3,1,2021-08-06 13:48:51,157683
0,2,3,2,1,0,0,0,2021-08-06 13:48:51,157683
-2,-2,-3,-6,-9,-6,-2,-3,2021-08-06 13:48:51,158680
-5,-4,-6,-5,-7,-5,-4,-2,2021-08-06 13:48:51,158680
-3,-4,-3,0,1,-2,-3,-1,2021-08-06 13:48:51,158680
-1,-1,-1,-7,-15,-6,-2,-3,2021-08-06 13:48:51,158680
5,7,8,10,19,8,3,2,2021-08-06 13:48:51,158680
-1,-3,-1,-2,-10,-7,-3,-2,2021-08-06 13:48:51,158680
3,3,2,0,4,3,1,1,2021-08-06 13:48:51,158680
-2,-4,-1,0,-3,-3,-3,-3,2021-08-06 13:48:51,158680
-3,-3,-2,-3,-5,-3,-1,-2,2021-08-06 13:48:51,173681
-1,0,-1,0,2,1,0,0,2021-08-06 13:48:51,189679
-2,-4,-5,-8,-9,-6,-4,-4,2021-08-06 13:48:51,204681
1,2,4,7,15,8,1,3,2021-08-06 13:48:51,204681
-1,1,-1,-1,1,0,0,0,2021-08-06 13:48:51,205681
-4,-3,-4,-9,-14,-9,-6,-3,2021-08-06 13:48:51,205681
0,1,2,3,-3,2,2,0,2021-08-06 13:48:51,205681
4,4,3,13,30,17,8,3,2021-08-06 13:48:51,205681
-1,-1,0,-1,-2,-1,0,0,2021-08-06 13:48:51,205681
-2,-3,-5,-5,-10,-5,-2,-1,2021-08-06 13:48:51,205681
-2,-3,-4,-6,-12,-8,-4,-2,2021-08-06 13:48:51,205681
0,0,-1,-1,-4,-1,-1,-1,2021-08-06 13:48:51,205681
-2,-2,-3,1,0,2,0,0,2021-08-06 13:48:51,237682
-1,1,-2,-4,-4,-3,-2,-1,2021-08-06 13:48:51,237682
0,1,0,3,4,1,-1,-1,2021-08-06 13:48:51,237682
-2,-1,-2,-3,-6,-4,-1,1,2021-08-06 13:48:51,237682
-1,-2,-5,-10,-7,-2,-2,-2,2021-08-06 13:48:51,253680
2,2,4,4,4,4,1,-1,2021-08-06 13:48:51,253680
1,2,0,4,9,5,2,-1,2021-08-06 13:48:51,253680
-2,-3,-4,-6,-10,-7,-2,-2,2021-08-06 13:48:51,253680
-2,-1,-1,-1,-3,-4,-3,0,2021-08-06 13:48:51,269680
-2,-1,-1,0,1,0,0,0,2021-08-06 13:48:51,285680
-3,-3,-2,1,3,0,-2,-1,2021-08-06 13:48:51,301680
-1,-1,-1,-4,-7,-3,-2,-2,2021-08-06 13:48:51,301680
2,5,4,7,7,6,4,2,2021-08-06 13:48:51,317681
0,1,-1,0,6,3,1,0,2021-08-06 13:48:51,333680
-1,-1,-1,-4,-6,-3,-2,-2,2021-08-06 13:48:51,349680
-5,-5,-5,-5,-11,-8,-5,-4,2021-08-06 13:48:51,349680
-2,-4,-2,-4,-2,-3,-1,-2,2021-08-06 13:48:51,349680
1,0,0,1,6,5,2,0,2021-08-06 13:48:51,349680
-1,-2,-1,0,1,0,0,-1,2021-08-06 13:48:51,349680
-1,-1,-3,-4,-5,-2,-3,-2,2021-08-06 13:48:51,349680
1,1,2,10,13,6,4,2,2021-08-06 13:48:51,365679
-1,-3,-2,-5,-6,-4,-3,-2,2021-08-06 13:48:51,365679
-3,-4,0,-5,-5,-3,-2,0,2021-08-06 13:48:51,365679
-2,0,0,-5,-1,-4,-2,-1,2021-08-06 13:48:51,365679
-1,-2,0,2,-2,-1,-1,-1,2021-08-06 13:48:51,365679
-3,-5,-3,0,0,1,-1,1,2021-08-06 13:48:51,365679
2,5,1,2,-2,1,1,0,2021-08-06 13:48:51,365679
0,2,1,5,10,4,2,-1,2021-08-06 13:48:51,366681
-3,-4,-3,-6,-11,-7,-5,-4,2021-08-06 13:48:51,381681
-1,-1,-2,2,3,1,-1,-2,2021-08-06 13:48:51,397679
0,1,3,2,3,1,1,3,2021-08-06 13:48:51,397679
0,-3,-1,-2,-5,-2,-1,0,2021-08-06 13:48:51,397679
-1,3,1,0,-3,-2,-1,-1,2021-08-06 13:48:51,397679
-2,-1,-2,-3,-1,-1,-1,-2,2021-08-06 13:48:51,397679
-2,0,0,1,2,0,-1,0,2021-08-06 13:48:51,397679
-1,-2,0,5,11,8,2,-1,2021-08-06 13:48:51,397679
-1,-2,-2,-3,-3,-1,-1,1,2021-08-06 13:48:51,413681
-1,0,-1,-1,-5,-5,-4,0,2021-08-06 13:48:51,429681
-1,-2,-2,-5,-8,-4,-1,-2,2021-08-06 13:48:51,444679
1,1,1,2,7,3,1,0,2021-08-06 13:48:51,444679
-2,-3,-3,-1,1,-1,-1,-1,2021-08-06 13:48:51,444679
-2,-2,-2,-1,-3,-3,-1,-3,2021-08-06 13:48:51,444679
-3,-1,-2,1,-2,-1,-1,-3,2021-08-06 13:48:51,444679
0,0,1,-3,-8,-5,-3,0,2021-08-06 13:48:51,444679
-2,-3,0,-1,-1,0,-1,-1,2021-08-06 13:48:51,444679
-1,0,0,-5,-4,-2,-1,-2,2021-08-06 13:48:51,459680
2,0,2,4,5,3,1,1,2021-08-06 13:48:51,459680
1,-1,1,4,8,4,0,-1,2021-08-06 13:48:51,459680
-2,-2,-3,-4,-3,-2,-2,-3,2021-08-06 13:48:51,475680
-1,-1,-2,-4,-3,-2,-1,-3,2021-08-06 13:48:51,475680
-1,-3,-2,-1,-1,0,0,0,2021-08-06 13:48:51,491682
-1,-1,-3,-5,-11,-7,-2,0,2021-08-06 13:48:51,491682
1,2,3,3,0,1,2,1,2021-08-06 13:48:51,491682
-1,0,1,3,10,6,2,1,2021-08-06 13:48:51,491682
-3,-5,-4,-2,-1,-1,-3,-4,2021-08-06 13:48:51,491682
1,1,0,-4,-2,1,0,1,2021-08-06 13:48:51,491682
1,3,0,-4,-7,-4,-2,0,2021-08-06 13:48:51,507684
0,1,1,1,0,-2,-2,-1,2021-08-06 13:48:51,523681
-3,-1,-3,-1,-3,-2,-2,-1,2021-08-06 13:48:51,555679
-5,-4,-4,-3,-6,-2,-2,-2,2021-08-06 13:48:51,555679
-3,-4,-1,-2,3,0,-4,-2,2021-08-06 13:48:51,555679
0,0,1,1,0,-1,0,0,2021-08-06 13:48:51,555679
1,-2,0,-3,0,0,0,0,2021-08-06 13:48:51,555679
1,1,-1,-3,-9,-4,-1,-1,2021-08-06 13:48:51,555679
0,0,0,0,4,3,3,0,2021-08-06 13:48:51,555679
-1,-3,-2,-7,-17,-10,-4,-2,2021-08-06 13:48:51,556682
-3,-4,-5,-6,-4,-4,-4,-3,2021-08-06 13:48:51,556682
2,3,8,13,15,9,4,2,2021-08-06 13:48:51,556682
1,1,2,1,10,8,3,3,2021-08-06 13:48:51,571680
-1,-3,-6,-2,-9,-6,-3,-2,2021-08-06 13:48:51,571680
-2,-1,-2,-11,-19,-11,-4,-3,2021-08-06 13:48:51,571680
-1,0,-2,2,10,4,2,1,2021-08-06 13:48:51,571680
-5,-5,-9,-22,-34,-24,-11,-6,2021-08-06 13:48:51,602683
5,4,6,17,36,26,11,6,2021-08-06 13:48:51,602683
0,1,3,8,11,5,1,1,2021-08-06 13:48:51,602683
-2,-1,5,1,-22,-13,-4,-2,2021-08-06 13:48:51,602683
5,4,-2,19,38,22,9,5,2021-08-06 13:48:51,618679
-5,-2,-11,-26,-21,-12,-7,-6,2021-08-06 13:48:51,634679
-1,-2,0,2,6,1,-2,-2,2021-08-06 13:48:51,666681
-2,-3,-1,3,-9,-3,-1,-3,2021-08-06 13:48:51,666681
-4,-5,-2,-10,-17,-13,-7,-4,2021-08-06 13:48:51,666681
1,1,0,1,-2,0,1,0,2021-08-06 13:48:51,666681
0,0,-5,-1,9,4,1,0,2021-08-06 13:48:51,666681
-5,-5,-4,-9,-16,-12,-4,-4,2021-08-06 13:48:51,666681
1,0,2,4,-2,0,1,1,2021-08-06 13:48:51,666681
0,-1,6,9,16,9,2,-1,2021-08-06 13:48:51,666681
6,6,9,16,28,17,10,6,2021-08-06 13:48:51,667681
-1,-1,-1,5,13,3,2,1,2021-08-06 13:48:51,667681
-2,-3,-6,-8,-12,-4,-2,-3,2021-08-06 13:48:51,682679
-1,0,2,5,7,0,-2,1,2021-08-06 13:48:51,682679
-1,-2,-2,-13,-23,-13,-5,-2,2021-08-06 13:48:51,682679
-1,0,-5,-9,-11,-4,-1,-2,2021-08-06 13:48:51,682679
0,-1,1,6,16,6,2,0,2021-08-06 13:48:51,698680
-3,-2,-1,-1,-5,-6,-2,-3,2021-08-06 13:48:51,714681
-3,-6,-2,-3,-3,-2,-3,-1,2021-08-06 13:48:51,730679
2,4,0,-5,3,2,1,1,2021-08-06 13:48:51,730679
1,2,2,-6,-12,-7,-1,0,2021-08-06 13:48:51,730679
-1,-1,6,-1,-6,-5,-2,-2,2021-08-06 13:48:51,730679
-1,-1,-7,3,7,5,-1,1,2021-08-06 13:48:51,730679
-4,-8,-9,-11,-6,-6,-5,-4,2021-08-06 13:48:51,730679
-2,-2,1,4,5,4,1,-1,2021-08-06 13:48:51,730679
-1,-1,-3,3,6,1,0,1,2021-08-06 13:48:51,731681
0,1,6,5,6,4,1,2,2021-08-06 13:48:51,731681
-1,-1,1,-2,-4,-2,-1,-3,2021-08-06 13:48:51,731681
-2,-2,-5,-2,-6,-5,-3,-2,2021-08-06 13:48:51,762680
1,2,3,11,13,7,5,1,2021-08-06 13:48:51,762680
-4,-2,-3,-7,-13,-7,-4,-3,2021-08-06 13:48:51,762680
-1,0,-2,0,3,3,-1,1,2021-08-06 13:48:51,762680
-2,0,1,2,0,-1,-1,-1,2021-08-06 13:48:51,778679
-6,-5,-7,-12,-15,-8,-5,-4,2021-08-06 13:48:51,794679
0,-4,-4,-6,-12,-7,-2,-4,2021-08-06 13:48:51,794679
6,4,9,19,25,13,6,5,2021-08-06 13:48:51,794679
1,2,0,-6,-6,-2,-1,-1,2021-08-06 13:48:51,794679
-2,0,-2,-1,-4,-3,-3,-2,2021-08-06 13:48:51,794679
0,0,-1,5,12,8,3,0,2021-08-06 13:48:51,794679
-2,-3,-4,-9,-10,-7,-3,-3,2021-08-06 13:48:51,794679
-2,-3,-3,-2,-7,-5,-4,-2,2021-08-06 13:48:51,825681
-1,-2,-1,1,-4,-3,-2,0,2021-08-06 13:48:51,841680
0,2,3,-5,8,4,1,0,2021-08-06 13:48:51,841680
-2,-2,-5,2,6,3,-1,0,2021-08-06 13:48:51,841680
-2,-2,-4,2,4,2,1,0,2021-08-06 13:48:51,841680
0,-1,2,-1,-5,-1,-1,-2,2021-08-06 13:48:51,841680
0,-1,-2,-8,-17,-10,-4,-3,2021-08-06 13:48:51,841680
1,-1,0,0,3,0,1,1,2021-08-06 13:48:51,841680
3,3,4,6,12,6,4,3,2021-08-06 13:48:51,857681
-2,-2,-3,-8,-12,-7,-4,-2,2021-08-06 13:48:51,873682
-1,-1,2,1,1,1,1,-1,2021-08-06 13:48:51,873682
0,2,1,-2,-3,-1,-4,-2,2021-08-06 13:48:51,873682
-3,-3,-1,0,-4,-1,-3,-3,2021-08-06 13:48:51,873682
-2,-4,-7,-10,-15,-10,-3,-3,2021-08-06 13:48:51,873682
5,3,5,9,19,13,6,4,2021-08-06 13:48:51,873682
-3,-4,-5,-7,-9,-5,-3,-4,2021-08-06 13:48:51,873682
2,0,1,7,18,8,5,2,2021-08-06 13:48:51,889679
-3,-3,-6,-6,-7,-5,-2,-2,2021-08-06 13:48:51,905679
-4,-2,-1,-5,-17,-9,-6,-3,2021-08-06 13:48:51,921681
-1,0,0,3,13,8,0,-1,2021-08-06 13:48:51,921681
5,7,13,33,50,29,12,4,2021-08-06 13:48:51,921681
-2,0,2,7,8,4,1,-1,2021-08-06 13:48:51,921681
-7,-8,-14,-28,-41,-25,-11,-6,2021-08-06 13:48:51,921681
-5,-5,-7,-26,-42,-23,-9,-3,2021-08-06 13:48:51,921681
1,3,5,10,23,8,1,1,2021-08-06 13:48:51,937681
2,3,3,9,7,5,1,2,2021-08-06 13:48:51,953681
0,2,1,3,3,-1,0,0,2021-08-06 13:48:51,953681
-2,-3,-6,-13,-20,-9,-4,-2,2021-08-06 13:48:51,953681
-5,-5,-7,-15,-30,-11,-6,-5,2021-08-06 13:48:51,953681
4,2,7,16,35,19,8,5,2021-08-06 13:48:51,953681
1,1,3,10,13,6,2,1,2021-08-06 13:48:51,953681
0,-1,1,4,8,1,0,-1,2021-08-06 13:48:51,953681
-3,-3,-7,-18,-28,-18,-8,-4,2021-08-06 13:48:51,985680
-1,1,-1,-8,-12,-5,-2,-1,2021-08-06 13:48:51,985680
1,3,1,14,22,10,5,2,2021-08-06 13:48:51,985680
2,1,3,13,22,11,6,1,2021-08-06 13:48:51,985680
-5,-4,-4,-12,-20,-11,-6,-4,2021-08-06 13:48:52,001681
1,-3,-4,-10,-15,-9,-4,-3,2021-08-06 13:48:52,017679
-1,-1,-2,-6,-6,-3,-2,-2,2021-08-06 13:48:52,033680
-2,-2,-1,7,9,4,0,-2,2021-08-06 13:48:52,033680
-2,-3,-4,-7,-13,-7,-3,-2,2021-08-06 13:48:52,033680
0,-3,-4,-13,-26,-13,-6,-1,2021-08-06 13:48:52,049680
3,3,5,17,32,19,8,3,2021-08-06 13:48:52,064679
3,3,5,16,25,11,6,3,2021-08-06 13:48:52,064679
-5,-5,-6,-8,-11,-8,-5,-2,2021-08-06 13:48:52,064679
-1,-3,-4,2,4,1,0,-2,2021-08-06 13:48:52,079681
-2,-2,-3,-12,-25,-15,-7,-4,2021-08-06 13:48:52,095680
3,6,2,-7,-8,0,1,3,2021-08-06 13:48:52,095680
1,0,2,4,5,1,1,0,2021-08-06 13:48:52,095680
-3,-1,-2,2,12,7,2,0,2021-08-06 13:48:52,095680
-4,-4,-5,-4,-1,-6,-4,-4,2021-08-06 13:48:52,095680
1,-2,1,4,3,5,2,2,2021-08-06 13:48:52,095680
-2,-1,-3,-3,-7,-5,-2,-3,2021-08-06 13:48:52,095680
0,1,0,3,8,5,2,0,2021-08-06 13:48:52,096681
-4,-3,-3,-4,-9,-5,-3,-2,2021-08-06 13:48:52,096681
0,1,3,1,2,0,0,1,2021-08-06 13:48:52,096681
0,-1,6,-2,-8,-5,-2,0,2021-08-06 13:48:52,096681
0,0,-11,1,0,0,0,0,2021-08-06 13:48:52,096681
0,-1,-2,-3,-2,-1,0,-1,2021-08-06 13:48:52,096681
-2,-3,-1,1,-6,-6,-2,-3,2021-08-06 13:48:52,096681
-2,-2,-4,-13,-7,-1,-2,-1,2021-08-06 13:48:52,127681
-1,-1,2,-5,-6,-3,-2,0,2021-08-06 13:48:52,143679
-1,-1,-1,-8,-12,-7,-5,-2,2021-08-06 13:48:52,143679
4,2,5,18,26,18,9,4,2021-08-06 13:48:52,143679
-1,-3,-1,9,5,2,-2,-4,2021-08-06 13:48:52,143679
1,0,3,2,2,2,0,2,2021-08-06 13:48:52,143679
-1,-2,-4,-7,-18,-9,-3,-2,2021-08-06 13:48:52,143679
-4,-4,-2,-1,-3,-5,-4,-2,2021-08-06 13:48:52,143679
0,0,-1,-3,1,1,-1,2,2021-08-06 13:48:52,159680
-2,0,1,6,12,7,3,1,2021-08-06 13:48:52,175679
-1,-1,-2,-3,-10,-5,-1,-1,2021-08-06 13:48:52,191681
-3,-1,-3,-8,-7,-6,-3,-2,2021-08-06 13:48:52,191681
0,-1,0,6,6,2,-2,-1,2021-08-06 13:48:52,191681
-3,-5,-4,-11,-18,-10,-6,-3,2021-08-06 13:48:52,191681
1,0,3,0,1,3,0,0,2021-08-06 13:48:52,191681
-3,-4,-4,-3,1,-1,-2,-4,2021-08-06 13:48:52,191681
2,3,-1,3,3,2,2,2,2021-08-06 13:48:52,191681
0,0,3,3,-2,-2,0,-1,2021-08-06 13:48:52,192682
-3,0,1,5,7,4,1,0,2021-08-06 13:48:52,192682
-1,0,0,-9,-9,-6,-3,-4,2021-08-06 13:48:52,192682
-3,-4,-2,-1,-7,-3,-4,-4,2021-08-06 13:48:52,223680
-2,-3,-11,-2,3,-1,-1,-2,2021-08-06 13:48:52,239681
1,2,4,8,10,4,3,1,2021-08-06 13:48:52,255680
-2,-2,-4,-1,-9,-6,-3,-2,2021-08-06 13:48:52,255680
-3,-2,-4,-15,-13,-8,-1,-2,2021-08-06 13:48:52,255680
-2,-1,1,-11,-18,-8,-4,0,2021-08-06 13:48:52,255680
4,1,2,19,43,22,5,2,2021-08-06 13:48:52,255680
3,3,2,6,9,6,4,3,2021-08-06 13:48:52,255680
0,0,1,8,8,2,0,-1,2021-08-06 13:48:52,255680
-3,-3,-4,-6,-8,-6,-3,-3,2021-08-06 13:48:52,256681
-2,-2,-3,-9,-18,-9,-5,-2,2021-08-06 13:48:52,287681
-3,-1,-2,-2,-3,-1,-2,-1,2021-08-06 13:48:52,287681
-4,-1,-5,-10,-3,-3,-2,0,2021-08-06 13:48:52,303681
-1,0,4,8,10,4,2,1,2021-08-06 13:48:52,303681
2,2,3,1,2,1,1,1,2021-08-06 13:48:52,319683
-1,-2,-3,-3,-2,-2,-4,-1,2021-08-06 13:48:52,319683
-3,-5,-5,-4,-6,-4,-2,-1,2021-08-06 13:48:52,319683
0,1,3,-2,-3,-3,-2,0,2021-08-06 13:48:52,319683
0,0,0,-1,-3,-2,-1,-1,2021-08-06 13:48:52,319683
-1,0,-3,-6,-14,-5,-3,-2,2021-08-06 13:48:52,319683
0,1,3,8,13,6,3,1,2021-08-06 13:48:52,319683
-1,-1,1,3,4,1,0,-1,2021-08-06 13:48:52,319683
0,0,-3,-1,-1,-1,2,1,2021-08-06 13:48:52,320682
-2,-2,-2,-9,-11,-8,-3,-2,2021-08-06 13:48:52,320682
1,1,2,1,-1,-2,-1,0,2021-08-06 13:48:52,351680
-2,0,0,0,-1,-2,-1,-1,2021-08-06 13:48:52,351680
-2,-1,-4,-13,-15,-5,-2,-1,2021-08-06 13:48:52,351680
-1,0,1,5,12,1,-1,-1,2021-08-06 13:48:52,351680
-3,-1,-5,-11,-13,-5,-4,-3,2021-08-06 13:48:52,351680
4,5,8,21,35,19,7,2,2021-08-06 13:48:52,351680
-3,-4,-1,1,5,-1,0,-1,2021-08-06 13:48:52,383679
1,0,3,1,1,0,1,-1,2021-08-06 13:48:52,399680
-2,-1,2,-4,-18,-11,-5,-2,2021-08-06 13:48:52,414680
-2,-5,-12,-16,-14,-7,-3,-2,2021-08-06 13:48:52,429679
-4,-5,-7,-7,-10,-6,-3,-4,2021-08-06 13:48:52,445680
0,-1,-2,-3,-5,-2,-1,-1,2021-08-06 13:48:52,445680
0,2,-1,5,10,4,1,-2,2021-08-06 13:48:52,445680
-1,-7,2,-2,-6,-2,-2,0,2021-08-06 13:48:52,445680
-1,-4,-1,-1,1,2,1,0,2021-08-06 13:48:52,445680
-4,0,0,-5,-6,-4,-2,-2,2021-08-06 13:48:52,445680
4,13,16,4,4,3,1,1,2021-08-06 13:48:52,445680
1,7,1,-2,-1,-2,-1,-2,2021-08-06 13:48:52,446681
1,2,-1,0,-1,0,-1,0,2021-08-06 13:48:52,446681
-1,-5,-7,-4,-5,-4,-2,-1,2021-08-06 13:48:52,446681
0,-3,-5,3,6,6,4,4,2021-08-06 13:48:52,446681
-3,-4,-2,2,-1,-2,-1,-2,2021-08-06 13:48:52,446681
-3,-5,-2,-6,-13,-9,-6,-3,2021-08-06 13:48:52,446681
2,1,1,12,27,14,5,3,2021-08-06 13:48:52,446681
0,-2,1,8,12,6,2,2,2021-08-06 13:48:52,461681
-2,-1,0,-3,-7,-5,-1,1,2021-08-06 13:48:52,461681
-1,1,-1,0,2,4,1,1,2021-08-06 13:48:52,461681
-1,1,3,7,18,7,3,1,2021-08-06 13:48:52,461681
-1,-4,-4,-4,-2,-2,-2,-2,2021-08-06 13:48:52,477681
0,0,1,-4,-6,-3,-3,-2,2021-08-06 13:48:52,493680
-2,-2,-3,-10,-14,-12,-5,-3,2021-08-06 13:48:52,493680
-4,-2,-3,-6,-12,-9,-6,-2,2021-08-06 13:48:52,493680
0,-1,0,3,6,5,4,0,2021-08-06 13:48:52,493680
1,1,2,11,18,9,2,0,2021-08-06 13:48:52,493680
-1,-1,-1,1,-3,-1,-1,-2,2021-08-06 13:48:52,493680
-1,-2,-3,-7,-11,-5,-1,-4,2021-08-06 13:48:52,493680
-3,-5,-7,-9,-14,-8,-5,-3,2021-08-06 13:48:52,524680
-4,-2,0,0,3,0,0,-1,2021-08-06 13:48:52,540680
8,9,8,12,18,11,7,6,2021-08-06 13:48:52,540680
-3,-7,-5,-8,-20,-11,-6,-4,2021-08-06 13:48:52,540680
4,2,0,5,15,3,2,1,2021-08-06 13:48:52,540680
-4,-4,-4,-12,-18,-10,-4,-5,2021-08-06 13:48:52,540680
1,3,5,17,31,18,5,2,2021-08-06 13:48:52,540680
-2,-1,-3,-9,-14,-7,-4,-2,2021-08-06 13:48:52,540680
0,-1,-1,0,5,2,1,0,2021-08-06 13:48:52,556679
-4,-5,-8,-13,-16,-12,-8,-4,2021-08-06 13:48:52,572243
0,0,-2,-3,-12,-5,-2,1,2021-08-06 13:48:52,587707
2,3,4,9,17,10,5,3,2021-08-06 13:48:52,587707
-5,-6,-5,-2,-5,-2,-2,-4,2021-08-06 13:48:52,587707
3,3,-1,5,5,5,4,2,2021-08-06 13:48:52,587707
-1,2,1,-10,-16,-11,-4,-2,2021-08-06 13:48:52,587707
0,-1,-3,-8,-5,-3,-3,-2,2021-08-06 13:48:52,587707
-1,-1,-2,-2,-2,-2,-1,-1,2021-08-06 13:48:52,603708
-3,-4,-3,-5,-7,-2,-3,-1,2021-08-06 13:48:52,603708
0,-2,-3,-5,-4,-1,-2,-1,2021-08-06 13:48:52,603708
2,4,3,10,11,6,2,2,2021-08-06 13:48:52,603708
-2,-4,-3,-4,-1,-2,-4,-1,2021-08-06 13:48:52,619707
2,2,1,2,-9,-4,-1,-1,2021-08-06 13:48:52,635706
-2,-2,-2,-2,4,2,-1,-3,2021-08-06 13:48:52,651706
-1,-1,1,3,10,4,2,0,2021-08-06 13:48:52,651706
-2,0,-2,-3,-7,-5,-3,-1,2021-08-06 13:48:52,651706
-1,0,0,7,7,4,1,-1,2021-08-06 13:48:52,651706
-2,-2,-4,-7,-13,-6,-3,-2,2021-08-06 13:48:52,651706
-4,-4,-4,-7,-14,-8,-6,-4,2021-08-06 13:48:52,651706
-3,0,-1,-2,-5,0,0,-1,2021-08-06 13:48:52,651706
1,0,1,6,11,7,5,3,2021-08-06 13:48:52,652707
0,0,1,5,12,3,1,0,2021-08-06 13:48:52,667706
-1,1,-3,-6,-13,-7,-1,-1,2021-08-06 13:48:52,683706
-1,0,-1,-3,-7,-6,-2,-2,2021-08-06 13:48:52,683706
-2,-1,-3,-10,-8,-6,-4,-2,2021-08-06 13:48:52,683706
-1,-2,-1,3,5,0,0,0,2021-08-06 13:48:52,683706
-1,-3,-1,-1,-3,-2,-3,-3,2021-08-06 13:48:52,683706
4,2,3,4,6,4,1,2,2021-08-06 13:48:52,699707
1,-1,-2,-4,-1,-1,0,-1,2021-08-06 13:48:52,699707
-1,-3,-1,-3,-7,-4,-2,0,2021-08-06 13:48:52,699707
-2,-2,-3,0,2,0,1,0,2021-08-06 13:48:52,699707
-2,-3,0,1,2,-1,-2,-2,2021-08-06 13:48:52,731705
-2,2,4,8,12,6,-1,-1,2021-08-06 13:48:52,731705
-3,1,3,8,6,4,-1,-2,2021-08-06 13:48:52,731705
-2,-3,-6,-10,-9,-9,-3,-2,2021-08-06 13:48:52,731705
-3,-3,-8,-15,-16,-10,-4,-2,2021-08-06 13:48:52,747706
0,2,5,5,2,-1,0,-1,2021-08-06 13:48:52,747706
1,1,-1,-2,5,3,3,1,2021-08-06 13:48:52,747706
-1,-3,-4,-9,-8,-3,-3,0,2021-08-06 13:48:52,747706
1,-1,0,-3,-6,-3,-1,-2,2021-08-06 13:48:52,747706
-2,-4,-5,-10,-14,-9,-5,-3,2021-08-06 13:48:52,747706
0,2,3,8,10,8,3,0,2021-08-06 13:48:52,763708
3,3,4,14,15,6,2,0,2021-08-06 13:48:52,763708
-2,-5,-6,-13,-23,-13,-5,-4,2021-08-06 13:48:52,779707
3,3,0,7,15,10,5,2,2021-08-06 13:48:52,795706
0,-2,-1,10,21,8,0,0,2021-08-06 13:48:52,795929
0,-1,1,-3,-5,1,-1,1,2021-08-06 13:48:52,795929
1,-1,0,2,2,1,0,-2,2021-08-06 13:48:52,795929
-2,-2,-4,-9,-18,-10,-4,-3,2021-08-06 13:48:52,795929
-3,-4,-6,-12,-15,-10,-5,-3,2021-08-06 13:48:52,795929
0,-3,-3,-2,-3,-1,-1,-2,2021-08-06 13:48:52,795929
0,1,2,6,12,5,0,1,2021-08-06 13:48:52,827214
1,-1,-2,-6,0,1,2,1,2021-08-06 13:48:52,843215
-1,-2,-2,-5,-8,-6,-1,-4,2021-08-06 13:48:52,843215
-1,-2,0,1,-1,-1,-2,-2,2021-08-06 13:48:52,843215
0,3,2,-3,-6,-2,-3,-1,2021-08-06 13:48:52,843215
1,-2,4,10,15,8,5,2,2021-08-06 13:48:52,843215
-2,-3,-2,-2,-5,-3,-4,0,2021-08-06 13:48:52,843215
1,1,-1,-2,-2,0,1,2,2021-08-06 13:48:52,843215
-4,-3,-2,-5,-6,-1,-2,-2,2021-08-06 13:48:52,858215
-3,0,-2,-4,-5,-5,-3,-2,2021-08-06 13:48:52,858215
-1,-2,2,3,6,3,1,-2,2021-08-06 13:48:52,858215
-4,-1,1,2,-3,-1,1,0,2021-08-06 13:48:52,858215
2,1,2,11,21,9,3,3,2021-08-06 13:48:52,874215
-1,-1,1,1,-3,-2,-1,-2,2021-08-06 13:48:52,874215
-4,-6,-7,-22,-36,-21,-10,-4,2021-08-06 13:48:52,874215
4,4,4,11,20,12,7,3,2021-08-06 13:48:52,874215
1,3,4,12,20,11,5,0,2021-08-06 13:48:52,905214
-1,-3,-3,-1,1,-2,-3,-1,2021-08-06 13:48:52,921214
0,-1,-1,-3,-2,-1,-1,0,2021-08-06 13:48:52,937215
-1,1,2,-2,-4,-3,0,0,2021-08-06 13:48:52,937215
-4,-3,-5,-11,-18,-13,-4,-2,2021-08-06 13:48:52,937215
0,-2,-3,-2,2,0,0,-1,2021-08-06 13:48:52,937215
-1,-1,-1,3,-1,-2,-1,-3,2021-08-06 13:48:52,937215
-2,0,3,8,8,2,-1,-2,2021-08-06 13:48:52,937215
-3,-4,-8,-17,-17,-10,-3,-2,2021-08-06 13:48:52,937215
0,1,1,-4,-7,-1,-2,-1,2021-08-06 13:48:52,937215
-2,0,-2,-3,1,0,-1,-1,2021-08-06 13:48:52,938215
1,4,6,16,16,9,1,-1,2021-08-06 13:48:52,938215
0,-3,-2,5,4,-1,0,-2,2021-08-06 13:48:52,969214
-3,-6,-11,-21,-28,-15,-6,-3,2021-08-06 13:48:52,985214
1,2,3,-1,2,4,2,2,2021-08-06 13:48:53,017214
-2,-3,-3,-4,-5,-3,-2,-2,2021-08-06 13:48:53,033215
-1,2,2,2,2,1,-3,0,2021-08-06 13:48:53,033215
0,1,1,7,12,5,0,2,2021-08-06 13:48:53,033215
0,1,0,8,7,3,2,1,2021-08-06 13:48:53,033215
-3,-4,-7,-16,-19,-11,-4,-3,2021-08-06 13:48:53,049214
0,0,2,3,5,4,1,1,2021-08-06 13:48:53,064214
0,0,0,3,7,4,2,0,2021-08-06 13:48:53,071215
-1,0,-1,0,-1,-1,-1,-1,2021-08-06 13:48:53,072217
-2,-4,-5,-12,-13,-8,-3,-1,2021-08-06 13:48:53,072217
0,-2,-2,-4,-9,-6,-3,-1,2021-08-06 13:48:53,072217
0,0,1,5,8,3,1,0,2021-08-06 13:48:53,072217
0,-1,-3,-3,-4,-1,-1,-1,2021-08-06 13:48:53,072217
-2,-3,-5,-3,2,-2,-1,-2,2021-08-06 13:48:53,072217
-2,-3,-3,-8,-19,-11,-4,-2,2021-08-06 13:48:53,072217
3,1,4,10,14,10,3,2,2021-08-06 13:48:53,073216
-2,-1,1,-1,-4,-1,-2,0,2021-08-06 13:48:53,073216
-1,-2,-6,-5,-6,-2,-1,-2,2021-08-06 13:48:53,073216
-4,-4,-4,-6,-8,-7,-4,-2,2021-08-06 13:48:53,073216
-1,1,0,-6,-14,-6,-2,0,2021-08-06 13:48:53,073216
0,0,-1,0,10,5,1,1,2021-08-06 13:48:53,073216
1,0,2,5,5,3,-1,0,2021-08-06 13:48:53,073216
1,2,0,-2,-4,-1,0,-1,2021-08-06 13:48:53,073216
-2,1,3,12,20,9,4,-1,2021-08-06 13:48:53,074216
-2,-1,-3,-4,-9,-5,-1,-2,2021-08-06 13:48:53,074216
-1,-2,-2,-2,-5,-2,-2,-2,2021-08-06 13:48:53,074216
-1,-1,-1,1,4,0,1,-1,2021-08-06 13:48:53,111214
0,-2,-4,-6,-9,-6,-1,-1,2021-08-06 13:48:53,111214
0,1,-1,0,2,-1,0,-1,2021-08-06 13:48:53,111214
-2,-1,-1,-4,-1,-3,-2,-2,2021-08-06 13:48:53,111214
0,0,-1,4,5,6,1,-2,2021-08-06 13:48:53,111214
-4,-5,-6,-9,-14,-12,-5,-3,2021-08-06 13:48:53,111214
4,3,4,3,-3,2,3,3,2021-08-06 13:48:53,127215
1,0,-1,-4,-4,-3,-1,0,2021-08-06 13:48:53,127215
1,0,3,5,5,3,1,1,2021-08-06 13:48:53,142214
0,-1,-2,2,6,2,0,-1,2021-08-06 13:48:53,157215
-1,-4,-5,-5,-7,-7,-3,-2,2021-08-06 13:48:53,173214
0,-1,0,-1,0,1,0,0,2021-08-06 13:48:53,189214
2,2,3,9,14,7,3,1,2021-08-06 13:48:53,205214
-3,-1,-2,-4,-9,-5,-3,-1,2021-08-06 13:48:53,221215
-1,-3,-4,-7,-2,-3,-4,-1,2021-08-06 13:48:53,221215
0,-1,0,-1,-1,-1,0,0,2021-08-06 13:48:53,221215
-1,0,2,6,14,5,0,1,2021-08-06 13:48:53,221215
0,-3,0,3,2,2,-1,-2,2021-08-06 13:48:53,221215
-2,1,0,7,10,4,1,0,2021-08-06 13:48:53,221215
-2,-2,-2,-4,-7,-2,-2,-1,2021-08-06 13:48:53,221215
-1,0,1,-4,-3,0,-1,-1,2021-08-06 13:48:53,221215
2,2,1,0,0,-1,-2,-1,2021-08-06 13:48:53,221215
-1,-1,-4,-1,-3,-1,-3,-3,2021-08-06 13:48:53,222218
1,-1,-1,-1,2,1,-1,0,2021-08-06 13:48:53,222218
0,0,0,1,0,1,0,0,2021-08-06 13:48:53,222218
0,-1,2,-1,0,1,0,-2,2021-08-06 13:48:53,222218
-1,0,-1,-1,-4,-2,-2,0,2021-08-06 13:48:53,222218
-1,1,0,1,-1,-1,1,-2,2021-08-06 13:48:53,222218
-2,-1,0,0,1,0,-1,-2,2021-08-06 13:48:53,237215
-1,-1,-4,-4,-4,-3,-1,0,2021-08-06 13:48:53,253216
-3,-4,-3,-4,-6,-6,-2,-3,2021-08-06 13:48:53,253216
0,1,0,2,1,-1,-1,0,2021-08-06 13:48:53,253216
1,1,1,0,1,2,1,2,2021-08-06 13:48:53,253216
-1,0,-1,0,-2,-2,-3,-1,2021-08-06 13:48:53,253216
-2,0,1,2,0,1,2,1,2021-08-06 13:48:53,253216
-2,-2,-2,0,4,2,0,-1,2021-08-06 13:48:53,253216
0,0,-1,0,-3,-3,0,-1,2021-08-06 13:48:53,285214
-2,-2,-2,-1,0,-1,0,-1,2021-08-06 13:48:53,301214
0,0,0,-5,-8,-6,-2,-1,2021-08-06 13:48:53,317214
1,1,3,11,20,10,2,0,2021-08-06 13:48:53,317214
-1,-1,-2,3,4,2,1,0,2021-08-06 13:48:53,317214
-4,-5,-5,-10,-17,-10,-5,-5,2021-08-06 13:48:53,317214
-1,-1,-3,-5,-4,-2,-2,0,2021-08-06 13:48:53,317214
-3,-3,-4,-8,-12,-8,-3,-1,2021-08-06 13:48:53,317214
2,2,3,6,9,7,2,0,2021-08-06 13:48:53,317214
-3,-1,-1,-1,1,1,-2,0,2021-08-06 13:48:53,318216
0,-1,0,-3,-6,-3,-1,-1,2021-08-06 13:48:53,318216
0,-2,-2,-7,-11,-6,-2,-2,2021-08-06 13:48:53,318216
-1,-2,-1,0,-1,-1,-2,0,2021-08-06 13:48:53,349214
-1,1,2,2,0,0,0,-1,2021-08-06 13:48:53,349214
-2,-4,-3,1,3,1,-1,-1,2021-08-06 13:48:53,349214
-3,-3,-6,-3,-3,-3,-4,-2,2021-08-06 13:48:53,349214
-1,-3,-4,-11,-15,-10,-4,-2,2021-08-06 13:48:53,349214
3,3,4,8,19,11,6,4,2021-08-06 13:48:53,349214
-2,-2,-2,-1,-2,-4,-3,-2,2021-08-06 13:48:53,381215
0,1,-1,-3,-12,-4,-2,0,2021-08-06 13:48:53,397214
-1,-2,-3,-3,-3,-1,-1,-1,2021-08-06 13:48:53,397214
1,1,0,8,9,4,0,-1,2021-08-06 13:48:53,397214
1,0,3,5,9,7,3,2,2021-08-06 13:48:53,397214
-1,0,-1,-1,-2,-2,-1,-1,2021-08-06 13:48:53,397214
-4,-5,-7,-12,-14,-9,-6,-4,2021-08-06 13:48:53,397214
-2,-1,-2,-5,-10,-5,-3,-1,2021-08-06 13:48:53,397214
0,2,0,5,11,6,2,0,2021-08-06 13:48:53,397214
0,2,1,-3,-10,-6,-2,-1,2021-08-06 13:48:53,397214
2,1,0,4,5,2,3,1,2021-08-06 13:48:53,412216
0,0,-1,2,4,1,1,0,2021-08-06 13:48:53,427214
-3,-3,-2,-2,-8,-3,-2,-1,2021-08-06 13:48:53,439214
-2,-1,3,4,8,4,1,0,2021-08-06 13:48:53,439214
1,-1,0,-4,1,0,-1,-2,2021-08-06 13:48:53,439214
-4,-5,-6,-10,-17,-11,-4,-2,2021-08-06 13:48:53,439214
0,0,-4,-9,-16,-5,-3,-1,2021-08-06 13:48:53,439214
0,2,2,8,15,6,1,1,2021-08-06 13:48:53,440216
-3,0,2,4,2,-2,-1,0,2021-08-06 13:48:53,457215
-2,-2,-5,-8,-14,-7,-4,-3,2021-08-06 13:48:53,473215
2,3,6,16,31,15,6,3,2021-08-06 13:48:53,473215
3,2,2,4,5,6,1,2,2021-08-06 13:48:53,473215
-5,-7,-11,-15,-16,-13,-7,-4,2021-08-06 13:48:53,473215
0,-2,0,-2,-6,-6,-2,0,2021-08-06 13:48:53,473215
-3,-3,-3,-13,-19,-16,-5,-3,2021-08-06 13:48:53,489216
-1,0,-1,2,-1,1,1,-1,2021-08-06 13:48:53,489216
0,4,6,14,23,13,3,1,2021-08-06 13:48:53,505214
1,1,-2,2,8,7,4,1,2021-08-06 13:48:53,521215
-1,-4,-6,-9,-20,-14,-4,-3,2021-08-06 13:48:53,521215
-3,-3,-2,-3,-5,-5,-2,-3,2021-08-06 13:48:53,521215
-2,-2,1,2,-2,1,-1,-2,2021-08-06 13:48:53,521215
0,2,7,13,17,8,-1,-2,2021-08-06 13:48:53,521215
-1,0,-1,-2,1,3,0,-2,2021-08-06 13:48:53,521215
0,-2,-3,-8,-14,-6,-2,1,2021-08-06 13:48:53,521215
-1,-1,-3,0,-2,-3,-1,-2,2021-08-06 13:48:53,553215
0,-1,-2,-8,-7,-3,-4,-3,2021-08-06 13:48:53,553215
2,0,4,8,13,6,3,1,2021-08-06 13:48:53,553215
-1,-2,-1,-4,-4,-3,1,0,2021-08-06 13:48:53,553215
2,2,3,8,16,9,5,2,2021-08-06 13:48:53,553215
-1,-2,-2,2,-1,-2,0,0,2021-08-06 13:48:53,553215
-3,-2,-3,-6,-12,-7,-3,-2,2021-08-06 13:48:53,569215
-2,-2,-3,0,1,-1,-3,-2,2021-08-06 13:48:53,569215
-2,0,-3,-3,2,0,-2,0,2021-08-06 13:48:53,585214
1,1,1,4,5,5,3,3,2021-08-06 13:48:53,585214
0,1,1,3,3,2,0,-2,2021-08-06 13:48:53,585214
-1,-2,-1,2,4,2,-1,-1,2021-08-06 13:48:53,585214
-1,-4,-1,-8,-10,-3,0,-2,2021-08-06 13:48:53,601215
-4,-4,-2,-7,-8,-8,-5,-1,2021-08-06 13:48:53,601215
1,0,-1,1,1,0,-1,1,2021-08-06 13:48:53,601215
0,1,1,5,5,1,-1,0,2021-08-06 13:48:53,601215
-2,0,2,1,-7,-3,-2,-2,2021-08-06 13:48:53,617214
-1,-1,-7,-8,-9,-4,-1,-1,2021-08-06 13:48:53,633215
-1,1,0,3,9,5,2,-1,2021-08-06 13:48:53,633215
1,-1,-1,1,0,0,-1,-1,2021-08-06 13:48:53,633215
0,0,1,4,6,2,-2,0,2021-08-06 13:48:53,633215
-1,-2,-1,-3,-2,-2,-2,-2,2021-08-06 13:48:53,633215
0,1,-2,-6,-4,-1,2,1,2021-08-06 13:48:53,633215
0,-2,-4,-7,-7,-4,-2,0,2021-08-06 13:48:53,634215
0,0,0,1,2,0,-2,-1,2021-08-06 13:48:53,680214
-3,-2,-3,-2,-8,-6,-5,-3,2021-08-06 13:48:53,696214
2,2,5,14,23,14,5,3,2021-08-06 13:48:53,712214
-1,-1,-2,-3,5,4,1,-1,2021-08-06 13:48:53,712214
-2,-2,-3,-8,-14,-8,-4,-1,2021-08-06 13:48:53,712214
0,1,1,2,2,2,2,0,2021-08-06 13:48:53,712214
-1,-2,-2,-1,-6,-4,-3,-2,2021-08-06 13:48:53,712214
-2,-2,1,0,1,-3,-3,-4,2021-08-06 13:48:53,712214
-2,-3,-5,-9,-12,-5,-3,-2,2021-08-06 13:48:53,712214
1,-2,-2,-5,-4,-2,0,0,2021-08-06 13:48:53,713215
-2,-2,-1,-3,-8,-5,-2,-3,2021-08-06 13:48:53,713215
1,2,3,12,17,9,4,2,2021-08-06 13:48:53,713215
-1,0,-1,-1,-4,-2,-2,-1,2021-08-06 13:48:53,727215
-1,0,-2,2,-1,-1,-2,-1,2021-08-06 13:48:53,743214
-2,0,-2,-2,-2,-2,-2,0,2021-08-06 13:48:53,759217
-2,-1,-2,-6,-8,-4,-3,-1,2021-08-06 13:48:53,759217
-1,1,0,0,3,-1,1,-2,2021-08-06 13:48:53,759217
-2,0,0,-1,1,1,0,0,2021-08-06 13:48:53,759217
-2,-3,-2,-4,-7,-4,-2,-3,2021-08-06 13:48:53,759217
-2,-1,-2,-6,-5,-6,-1,-3,2021-08-06 13:48:53,759217
-1,0,-1,0,0,2,1,0,2021-08-06 13:48:53,759217
1,1,1,5,8,4,3,1,2021-08-06 13:48:53,759217
-1,-2,-1,-1,-2,-3,-2,-1,2021-08-06 13:48:53,759217
-1,0,0,-2,-3,0,-1,-1,2021-08-06 13:48:53,759217
-1,-2,-2,0,-1,1,0,-1,2021-08-06 13:48:53,791216
-1,-1,-1,3,3,1,-1,-2,2021-08-06 13:48:53,791216
-1,-2,-5,-5,-7,-5,-2,-1,2021-08-06 13:48:53,791216
-2,-1,0,-3,-1,-1,0,0,2021-08-06 13:48:53,791216
-1,0,0,-2,-2,-2,0,-2,2021-08-06 13:48:53,791216
0,1,0,3,4,1,0,-1,2021-08-06 13:48:53,791216
-3,-2,-6,-4,-2,-3,-2,-3,2021-08-06 13:48:53,807215
1,0,1,0,-4,-2,-2,0,2021-08-06 13:48:53,809217
0,-1,0,5,9,4,0,2,2021-08-06 13:48:53,823215
2,1,0,-4,-1,0,0,0,2021-08-06 13:48:53,839214
-3,-2,0,-9,-17,-9,-5,-4,2021-08-06 13:48:53,871215
3,1,3,14,19,11,7,4,2021-08-06 13:48:53,871215
-1,-1,-1,-3,-3,-2,-2,-2,2021-08-06 13:48:53,871215
-1,-3,-2,-2,-2,-1,-2,-2,2021-08-06 13:48:53,871215
0,1,0,0,1,-2,-2,0,2021-08-06 13:48:53,871215
-3,-4,-6,-9,-15,-8,-4,-3,2021-08-06 13:48:53,871215
0,-2,-3,-4,-7,-7,-3,-2,2021-08-06 13:48:53,871215
0,0,0,1,-1,0,-1,-1,2021-08-06 13:48:53,871215
0,-1,0,0,5,1,0,0,2021-08-06 13:48:53,872216
-1,-2,-1,-3,-2,-3,-3,-1,2021-08-06 13:48:53,872216
3,3,4,9,22,12,7,3,2021-08-06 13:48:53,872216
-2,-2,-1,-5,-10,-6,-3,-1,2021-08-06 13:48:53,872216
0,0,2,4,4,3,1,0,2021-08-06 13:48:53,887217
-3,-3,-6,-7,-7,-5,-4,-3,2021-08-06 13:48:53,887217
-1,-1,-1,1,-2,-1,-1,0,2021-08-06 13:48:53,903215
2,2,4,1,6,4,4,1,2021-08-06 13:48:53,919214
1,0,1,4,4,2,1,0,2021-08-06 13:48:53,935214
-2,-2,0,-1,-4,-3,-2,-2,2021-08-06 13:48:53,935214
-4,-2,-4,-5,-8,-4,-2,0,2021-08-06 13:48:53,935214
-4,-3,-3,-2,-6,-4,-2,-3,2021-08-06 13:48:53,935214
-1,-3,-2,-5,-4,-3,-3,-2,2021-08-06 13:48:53,935214
1,3,2,4,4,7,3,1,2021-08-06 13:48:53,935214
2,-1,0,0,4,2,1,-1,2021-08-06 13:48:53,935214
1,0,0,3,5,3,1,1,2021-08-06 13:48:53,936216
-2,-1,-2,-4,-5,-4,-4,-2,2021-08-06 13:48:53,936216
-4,-3,-2,-5,-4,-5,-4,-2,2021-08-06 13:48:53,936216
0,-3,-1,-1,-2,-2,-2,-2,2021-08-06 13:48:53,967215
-1,-1,-2,1,2,0,-1,-2,2021-08-06 13:48:53,983214
0,-1,-1,-2,-2,-1,1,0,2021-08-06 13:48:53,983214
-1,-3,-2,-5,-10,-5,-3,-2,2021-08-06 13:48:53,983214
0,1,1,1,6,4,2,2,2021-08-06 13:48:53,983214
0,0,2,3,5,3,0,0,2021-08-06 13:48:53,983214
0,0,2,3,8,3,0,0,2021-08-06 13:48:53,999214
1,0,0,1,0,0,0,0,2021-08-06 13:48:54,014215
-1,-1,0,-1,-3,-3,-2,-1,2021-08-06 13:48:54,030214
-3,-4,-6,-13,-19,-12,-6,-3,2021-08-06 13:48:54,045214
1,3,5,13,21,14,6,3,2021-08-06 13:48:54,045214
-2,-2,-2,0,-3,-1,0,-1,2021-08-06 13:48:54,045214
-2,-2,-2,-4,-7,-5,-2,-1,2021-08-06 13:48:54,045214
-3,-2,-2,-1,-2,-2,0,1,2021-08-06 13:48:54,045214
-1,-3,-2,-2,-5,-3,-3,-1,2021-08-06 13:48:54,045214
1,2,3,1,1,-1,2,-1,2021-08-06 13:48:54,045214
-3,-3,-5,-6,-13,-7,-3,-3,2021-08-06 13:48:54,045214
0,-1,-2,2,12,5,3,0,2021-08-06 13:48:54,046215
-2,0,2,3,4,5,2,1,2021-08-06 13:48:54,046215
-3,-3,-2,-3,-5,-5,-5,-4,2021-08-06 13:48:54,046215
-1,-1,0,-4,-5,-2,1,0,2021-08-06 13:48:54,061214
2,2,4,7,8,2,2,0,2021-08-06 13:48:54,061214
-2,-1,-5,-9,-10,-4,-1,-3,2021-08-06 13:48:54,061214
0,-1,1,2,7,3,0,-1,2021-08-06 13:48:54,061214
-1,-3,-2,-2,-4,-4,-3,-3,2021-08-06 13:48:54,092214
-3,-3,-3,-5,-8,-5,-2,-1,2021-08-06 13:48:54,108215
1,1,2,1,5,1,0,0,2021-08-06 13:48:54,140216
-1,-1,-3,-4,-9,-5,-2,-2,2021-08-06 13:48:54,156214
2,1,0,4,8,4,1,2,2021-08-06 13:48:54,156214
0,1,-1,1,0,3,1,-1,2021-08-06 13:48:54,156214
-1,-2,-1,-4,-10,-6,-3,0,2021-08-06 13:48:54,156214
-1,-2,-2,0,3,1,0,0,2021-08-06 13:48:54,156214
0,0,2,1,3,1,1,-2,2021-08-06 13:48:54,156214
1,1,-1,-1,-5,-1,-1,0,2021-08-06 13:48:54,156214
-3,-2,-3,-7,-14,-8,-5,-3,2021-08-06 13:48:54,156214
2,2,1,6,17,10,4,3,2021-08-06 13:48:54,157219
1,2,4,6,11,7,2,1,2021-08-06 13:48:54,157219
-1,-2,-2,-3,-5,-3,-3,-3,2021-08-06 13:48:54,157219
0,-2,0,-6,-7,-4,-2,-2,2021-08-06 13:48:54,172215
-3,-3,-4,-3,-6,-7,-5,-4,2021-08-06 13:48:54,172215
0,1,4,2,3,5,2,2,2021-08-06 13:48:54,172215
-1,0,-1,-3,0,-1,0,-1,2021-08-06 13:48:54,172215
-2,-3,-3,-2,-8,-3,-2,-2,2021-08-06 13:48:54,172215
-1,1,1,0,0,1,2,-1,2021-08-06 13:48:54,172215
-2,-2,-3,-3,-3,-2,-1,-1,2021-08-06 13:48:54,172215
-1,-2,-1,-3,-4,-1,-3,-1,2021-08-06 13:48:54,173217
-1,-1,-1,2,0,-1,-1,-2,2021-08-06 13:48:54,180214
-1,-1,-1,0,1,0,0,-1,2021-08-06 13:48:54,180214
-2,-2,-2,-2,-7,-3,-3,-2,2021-08-06 13:48:54,204214
2,4,1,1,0,-1,2,1,2021-08-06 13:48:54,220215
1,-1,-3,4,5,2,-1,0,2021-08-06 13:48:54,236215
-2,-2,-2,-2,-4,-3,-1,0,2021-08-06 13:48:54,236215
-5,-3,-4,-3,-6,-6,-3,-4,2021-08-06 13:48:54,236215
0,-2,2,6,6,3,1,1,2021-08-06 13:48:54,236215
-1,-1,1,0,4,1,0,-1,2021-08-06 13:48:54,236215
0,0,1,-2,-3,-2,0,0,2021-08-06 13:48:54,236215
-3,-2,-5,-7,-10,-6,-4,-2,2021-08-06 13:48:54,236215
1,0,2,1,3,1,0,2,2021-08-06 13:48:54,236215
1,2,1,2,10,5,2,2,2021-08-06 13:48:54,236215
0,1,1,6,2,2,-1,0,2021-08-06 13:48:54,237216
-3,-4,-5,-11,-17,-11,-8,-4,2021-08-06 13:48:54,268214
0,0,2,3,8,6,4,1,2021-08-06 13:48:54,284214
1,1,-1,0,-3,-1,0,0,2021-08-06 13:48:54,284214
-2,-3,-3,-4,-8,-2,-4,-3,2021-08-06 13:48:54,284214
2,3,3,4,5,3,2,0,2021-08-06 13:48:54,284214
-2,-2,-1,-3,-9,-7,-2,-3,2021-08-06 13:48:54,284214
-4,-5,-2,-4,-7,-9,-5,-2,2021-08-06 13:48:54,284214
-1,-1,-1,-4,-4,-2,-3,-2,2021-08-06 13:48:54,285217
-3,-4,-7,-13,-12,-6,-4,-2,2021-08-06 13:48:54,300215
-1,-3,-2,0,3,2,-1,0,2021-08-06 13:48:54,300215
2,1,3,6,9,6,2,0,2021-08-06 13:48:54,300215
0,2,0,1,0,-2,0,-1,2021-08-06 13:48:54,300215
0,1,4,8,7,2,1,-1,2021-08-06 13:48:54,332214
-2,-1,-2,-1,1,2,0,-2,2021-08-06 13:48:54,332214
-2,-3,-2,-5,-5,-3,-1,-1,2021-08-06 13:48:54,332214
-2,-1,-2,0,1,1,0,-1,2021-08-06 13:48:54,332214
1,1,1,5,5,3,1,4,2021-08-06 13:48:54,332214
-3,-3,-3,-1,-8,-6,-3,-3,2021-08-06 13:48:54,332214
-2,-1,-3,-6,-6,-3,1,0,2021-08-06 13:48:54,347214
-1,-4,-1,0,0,-1,-1,-2,2021-08-06 13:48:54,347214
1,1,1,3,5,2,3,-1,2021-08-06 13:48:54,362216
2,0,0,3,6,2,0,1,2021-08-06 13:48:54,378213
0,1,0,2,4,3,-1,0,2021-08-06 13:48:54,378213
-1,1,-1,-6,-11,-7,-3,-1,2021-08-06 13:48:54,378213
1,-1,-1,-2,4,3,1,0,2021-08-06 13:48:54,394215
1,-2,-3,-2,0,-1,0,0,2021-08-06 13:48:54,410214
-1,0,-4,-4,-4,-3,0,0,2021-08-06 13:48:54,425214
-4,-5,-4,-2,-1,-2,-1,-2,2021-08-06 13:48:54,425214
-2,-1,-2,-2,-5,-3,-4,-2,2021-08-06 13:48:54,425214
-5,-1,-1,-4,-7,-4,-4,-3,2021-08-06 13:48:54,425214
-1,1,2,5,5,2,-1,-2,2021-08-06 13:48:54,425214
-1,-1,-2,-2,-2,-3,-3,-1,2021-08-06 13:48:54,425214
0,-1,0,-1,-3,-2,0,0,2021-08-06 13:48:54,425214
-1,-1,-2,-3,-6,-2,-1,-1,2021-08-06 13:48:54,426215
0,0,2,9,9,5,1,1,2021-08-06 13:48:54,426215
1,0,-1,0,1,1,1,0,2021-08-06 13:48:54,426215
0,2,0,1,4,4,1,1,2021-08-06 13:48:54,441215
-1,-2,-3,-5,-7,-5,-3,-3,2021-08-06 13:48:54,471216
0,-3,-4,-5,-8,-4,-2,-1,2021-08-06 13:48:54,471216
0,-1,0,0,3,0,1,-2,2021-08-06 13:48:54,471216
-1,-2,0,1,2,0,0,-1,2021-08-06 13:48:54,471216
-2,-1,-1,-4,-5,-3,-2,0,2021-08-06 13:48:54,471216
-2,-1,-1,-1,-2,-2,1,1,2021-08-06 13:48:54,471216
-1,-1,-2,-3,-5,-1,-2,-2,2021-08-06 13:48:54,487216
1,-2,2,4,9,2,1,0,2021-08-06 13:48:54,487216
1,1,3,0,4,1,-1,0,2021-08-06 13:48:54,487216
0,-2,-1,0,0,0,-2,-2,2021-08-06 13:48:54,503215
2,3,4,8,16,6,3,3,2021-08-06 13:48:54,503215
-1,-1,-3,-4,-7,-4,0,-1,2021-08-06 13:48:54,503215
-3,-3,-5,-5,-4,-3,-1,-2,2021-08-06 13:48:54,503215
-1,-1,0,-1,-5,-3,-3,0,2021-08-06 13:48:54,503215
0,-2,-1,-2,-2,-2,-1,0,2021-08-06 13:48:54,503215
-4,-2,-1,-3,-3,-2,-2,-1,2021-08-06 13:48:54,535214
1,1,3,5,8,4,3,1,2021-08-06 13:48:54,549216
-2,-2,-4,-6,-5,-3,-3,-2,2021-08-06 13:48:54,549216
1,-1,-1,-3,-3,-2,-2,-1,2021-08-06 13:48:54,549216
0,-1,1,3,2,0,-1,-1,2021-08-06 13:48:54,549216
-3,-2,-3,-2,-3,-1,0,-1,2021-08-06 13:48:54,549216
-1,-3,1,0,0,-1,-1,-1,2021-08-06 13:48:54,549216
-1,0,0,-1,0,0,-1,-2,2021-08-06 13:48:54,549216
0,-3,-1,2,-2,-2,1,-2,2021-08-06 13:48:54,565214
-1,-1,-1,3,3,-1,-2,-1,2021-08-06 13:48:54,565214
0,1,0,-5,-1,0,0,0,2021-08-06 13:48:54,565214
-1,2,0,0,-1,2,1,0,2021-08-06 13:48:54,565214
-1,-1,-1,-2,-3,-3,-3,-1,2021-08-06 13:48:54,596214
0,0,-1,-1,-5,-3,-3,0,2021-08-06 13:48:54,612214
-2,-1,-1,2,-1,0,-2,-1,2021-08-06 13:48:54,628214
-2,-2,-3,-6,-4,-2,-1,-2,2021-08-06 13:48:54,628214
0,-1,1,-2,-1,-1,0,-2,2021-08-06 13:48:54,628214
1,-1,-1,-2,-4,-3,0,-1,2021-08-06 13:48:54,628214
2,1,3,8,16,8,4,2,2021-08-06 13:48:54,628214
0,-1,-3,0,-2,-2,-1,0,2021-08-06 13:48:54,628214
-2,0,-2,-1,-2,1,-2,0,2021-08-06 13:48:54,629218
-3,-1,-1,-4,-3,-4,-1,-1,2021-08-06 13:48:54,629218
-1,-2,-3,-5,-8,-4,-2,-2,2021-08-06 13:48:54,629218
-1,-2,-1,-3,-2,0,0,0,2021-08-06 13:48:54,629218
-1,1,0,-1,2,0,0,1,2021-08-06 13:48:54,643214
-1,-1,-1,-3,-4,-1,-2,0,2021-08-06 13:48:54,643214
0,-1,-2,0,-3,-2,0,-2,2021-08-06 13:48:54,643214
-2,-1,-1,0,1,1,0,0,2021-08-06 13:48:54,643214
1,0,-1,0,1,-1,0,-2,2021-08-06 13:48:54,658216
-1,-2,0,0,1,0,-2,-2,2021-08-06 13:48:54,674214
-1,1,1,1,-1,0,-1,-2,2021-08-06 13:48:54,690214
-2,0,0,0,-1,-1,-1,0,2021-08-06 13:48:54,706215
-1,0,-1,-4,-4,-3,0,-1,2021-08-06 13:48:54,722215
0,0,-1,-3,-5,-3,-1,-2,2021-08-06 13:48:54,738215
-1,-2,-3,-4,-6,-5,-2,-2,2021-08-06 13:48:54,754214
-3,-3,-3,-1,-2,-2,-1,-2,2021-08-06 13:48:54,754214
-1,0,0,0,3,2,0,-3,2021-08-06 13:48:54,754214
2,0,-1,0,0,-1,1,0,2021-08-06 13:48:54,754214
0,-1,4,6,11,5,1,1,2021-08-06 13:48:54,754214
-1,-1,-1,-2,-2,0,1,-1,2021-08-06 13:48:54,754214
-3,-3,-2,-6,-14,-9,-5,-2,2021-08-06 13:48:54,754214
0,0,0,0,9,8,4,2,2021-08-06 13:48:54,755215
1,2,2,3,5,2,0,0,2021-08-06 13:48:54,755215
0,0,-1,1,1,0,0,-1,2021-08-06 13:48:54,755215
-2,-1,-1,0,-4,-3,0,-1,2021-08-06 13:48:54,755215
-3,-4,-4,-7,-12,-8,-4,-3,2021-08-06 13:48:54,755215
0,0,2,2,1,2,1,0,2021-08-06 13:48:54,755215
0,-2,-1,1,3,0,0,-1,2021-08-06 13:48:54,755215
-2,-1,-4,-7,-10,-6,-3,0,2021-08-06 13:48:54,770215
-1,0,2,2,3,0,-1,2,2021-08-06 13:48:54,770215
-1,-1,-2,-2,-3,-2,0,0,2021-08-06 13:48:54,770215
-1,-2,-2,-2,-6,-4,-2,-1,2021-08-06 13:48:54,770215
1,-2,-2,-3,-1,0,0,-2,2021-08-06 13:48:54,786215
-1,-1,3,6,9,2,0,-2,2021-08-06 13:48:54,786215
-1,-1,0,2,1,0,0,0,2021-08-06 13:48:54,786215
1,2,2,1,3,1,0,0,2021-08-06 13:48:54,786215
2,0,-1,2,1,1,2,1,2021-08-06 13:48:54,802215
-2,-1,-3,-6,-6,-4,-3,-2,2021-08-06 13:48:54,818214
-4,-2,-2,-1,0,0,-1,-1,2021-08-06 13:48:54,818214
-2,0,0,0,-2,-2,-1,0,2021-08-06 13:48:54,833215
0,-1,-1,2,4,2,0,1,2021-08-06 13:48:54,849214
2,-1,0,-2,-5,-1,0,1,2021-08-06 13:48:54,864214
-1,-2,-3,-5,-6,-4,-2,-2,2021-08-06 13:48:54,879214
-1,-3,-1,1,6,1,-1,1,2021-08-06 13:48:54,879214
-2,0,0,0,3,2,-1,-2,2021-08-06 13:48:54,879214
-2,3,-1,-2,-3,0,-1,0,2021-08-06 13:48:54,879214
-1,-1,-3,-9,-13,-7,-3,-2,2021-08-06 13:48:54,879214
-3,-6,-7,-14,-27,-15,-5,-3,2021-08-06 13:48:54,879214
4,6,9,22,38,23,12,4,2021-08-06 13:48:54,879214
-1,-2,-2,4,0,-2,-1,-1,2021-08-06 13:48:54,880215
1,0,-2,1,2,1,0,-1,2021-08-06 13:48:54,880215
-3,-2,-3,-4,-7,-5,-3,-4,2021-08-06 13:48:54,880215
-2,-4,-5,-10,-16,-9,-6,-4,2021-08-06 13:48:54,880215
-1,-2,-3,-7,-5,-2,0,-2,2021-08-06 13:48:54,880215
0,0,1,5,3,2,-1,0,2021-08-06 13:48:54,880215
1,2,3,2,0,1,0,2,2021-08-06 13:48:54,880215
-1,-1,-2,-7,-6,-3,-3,-2,2021-08-06 13:48:54,911214
0,-2,-3,4,7,5,1,0,2021-08-06 13:48:54,911214
-4,-4,-5,-10,-14,-10,-5,-4,2021-08-06 13:48:54,911214
0,0,1,5,10,6,2,1,2021-08-06 13:48:54,911214
-2,0,0,-1,-1,0,-2,0,2021-08-06 13:48:54,917215
0,1,2,3,-1,0,1,1,2021-08-06 13:48:54,917215
-2,-1,-3,-5,-11,-7,-4,-2,2021-08-06 13:48:54,927214
-1,0,1,2,5,4,0,0,2021-08-06 13:48:54,943214
-2,-4,-1,1,4,1,1,0,2021-08-06 13:48:54,958214
3,2,5,4,5,4,1,2,2021-08-06 13:48:54,974216
-1,-1,-2,0,2,0,1,0,2021-08-06 13:48:54,974216
-1,0,-1,-3,-5,-3,-2,-3,2021-08-06 13:48:54,974216
-3,-2,-5,-6,-10,-6,-6,-4,2021-08-06 13:48:54,974216
-2,-3,-2,-1,-1,-1,-2,0,2021-08-06 13:48:54,974216
-2,-3,-2,-4,-8,-4,-3,-1,2021-08-06 13:48:54,974216
2,0,1,4,12,7,2,1,2021-08-06 13:48:54,975215
-2,-1,0,-2,-6,-3,-1,-2,2021-08-06 13:48:54,975215
-1,-1,0,0,-2,-3,-2,-3,2021-08-06 13:48:54,975215
-3,-1,-1,-3,-4,-4,-2,-1,2021-08-06 13:48:54,990215
-2,-4,-4,-8,-8,-7,-3,-2,2021-08-06 13:48:54,990215
4,6,4,2,3,6,5,4,2021-08-06 13:48:55,022215
0,1,1,2,5,4,2,0,2021-08-06 13:48:55,038215
-1,-2,1,5,7,3,-3,-2,2021-08-06 13:48:55,038215
-3,-1,0,5,6,-4,-5,-3,2021-08-06 13:48:55,038215
-4,-5,-7,-11,-16,-13,-3,-3,2021-08-06 13:48:55,038215
1,1,1,1,-2,1,2,2,2021-08-06 13:48:55,038215
2,-1,-1,1,4,1,1,-1,2021-08-06 13:48:55,038215
0,-1,0,-3,-2,-1,-3,-2,2021-08-06 13:48:55,038215
-4,-3,-5,-6,-11,-7,-4,-3,2021-08-06 13:48:55,038215
-1,0,1,-1,0,-1,0,-2,2021-08-06 13:48:55,039216
-2,0,0,0,3,4,3,1,2021-08-06 13:48:55,039216
1,2,1,1,2,2,1,0,2021-08-06 13:48:55,039216
-1,-2,-2,-7,-11,-8,-5,-1,2021-08-06 13:48:55,070214
-2,-3,-5,-4,-5,-3,-1,-2,2021-08-06 13:48:55,070214
-1,-1,-1,-1,-2,-2,0,-2,2021-08-06 13:48:55,070214
2,4,2,7,10,6,5,3,2021-08-06 13:48:55,070214
0,0,1,6,10,6,-2,2,2021-08-06 13:48:55,070214
-2,-3,-4,-2,-2,-5,-4,-3,2021-08-06 13:48:55,086215
2,1,1,5,6,6,5,3,2021-08-06 13:48:55,118215
-2,-2,-5,-10,-18,-7,-2,-1,2021-08-06 13:48:55,118215
1,3,6,12,14,4,1,0,2021-08-06 13:48:55,118215
-6,-4,-3,-5,-5,-7,-7,-5,2021-08-06 13:48:55,118215
-3,-4,-3,-6,-11,-9,-4,-2,2021-08-06 13:48:55,118215
0,-2,-1,2,3,3,1,1,2021-08-06 13:48:55,118215
-1,-1,-2,-5,-4,-1,0,1,2021-08-06 13:48:55,118215
2,1,1,5,13,4,0,-1,2021-08-06 13:48:55,118215
0,2,0,-1,-4,0,1,0,2021-08-06 13:48:55,118215
0,-2,-2,1,-2,1,-1,1,2021-08-06 13:48:55,118215
-4,-2,-3,-6,-7,-5,-4,-4,2021-08-06 13:48:55,150216
-3,-3,-3,-7,-10,-5,-3,-1,2021-08-06 13:48:55,166214
-1,-1,-2,2,7,5,0,0,2021-08-06 13:48:55,182213
-1,-2,0,2,4,-2,-1,-1,2021-08-06 13:48:55,182213
0,-3,-1,2,-1,1,0,-1,2021-08-06 13:48:55,182213
2,2,2,-1,-3,0,0,1,2021-08-06 13:48:55,182213
-1,-2,0,-3,-5,-4,-3,-2,2021-08-06 13:48:55,182213
-2,-1,-2,-4,-9,-6,-2,-3,2021-08-06 13:48:55,182213
-2,-3,-4,0,4,1,-2,-3,2021-08-06 13:48:55,182213
1,0,3,2,7,5,4,0,2021-08-06 13:48:55,182213
-2,-2,0,-3,-10,-8,-6,-2,2021-08-06 13:48:55,182213
-2,-1,-1,3,11,9,3,1,2021-08-06 13:48:55,182213
2,1,2,5,6,2,3,2,2021-08-06 13:48:55,214217
0,0,-2,-1,-1,1,-1,0,2021-08-06 13:48:55,230213
0,-1,-2,0,10,2,2,-2,2021-08-06 13:48:55,246214
-1,-3,-1,-2,-11,-7,-4,-1,2021-08-06 13:48:55,262214
0,-1,1,3,8,3,0,1,2021-08-06 13:48:55,278214
-2,-2,-3,-9,-13,-6,-4,-2,2021-08-06 13:48:55,278214
1,-2,0,-1,-1,1,-2,-1,2021-08-06 13:48:55,278214
1,1,0,0,3,3,3,1,2021-08-06 13:48:55,278214
-4,-3,-4,-3,-7,-5,-4,-3,2021-08-06 13:48:55,278214
0,-1,2,2,2,-1,0,0,2021-08-06 13:48:55,278214
1,1,-1,-1,2,2,-1,1,2021-08-06 13:48:55,278214
0,0,-2,-2,-1,0,-1,0,2021-08-06 13:48:55,278214
-1,1,0,0,-4,-2,-1,0,2021-08-06 13:48:55,278214
-2,0,-1,-2,-2,-3,-2,-2,2021-08-06 13:48:55,279216
-2,-3,-3,-4,-7,-4,-3,-3,2021-08-06 13:48:55,279216
0,2,2,9,15,7,3,1,2021-08-06 13:48:55,279216
-1,-1,-4,-4,-4,-1,-1,1,2021-08-06 13:48:55,279216
0,-3,-3,1,0,0,-1,-1,2021-08-06 13:48:55,279216
2,3,1,2,2,2,1,2,2021-08-06 13:48:55,279216
0,-2,-2,-1,2,2,0,-1,2021-08-06 13:48:55,279216
-2,-1,2,1,3,-1,0,-3,2021-08-06 13:48:55,310216
-6,-5,-3,-10,-15,-13,-7,-5,2021-08-06 13:48:55,310216
2,4,6,14,30,17,7,3,2021-08-06 13:48:55,310216
-1,0,0,-3,-10,-6,-4,-2,2021-08-06 13:48:55,310216
0,0,-3,-3,-6,-4,-1,-1,2021-08-06 13:48:55,326214
4,3,3,9,12,10,4,2,2021-08-06 13:48:55,326214
-3,-2,-4,-7,-15,-10,-3,-2,2021-08-06 13:48:55,326214
-1,-2,-2,-1,2,-1,-1,-2,2021-08-06 13:48:55,326214
1,-2,-1,-7,-11,-4,-1,-2,2021-08-06 13:48:55,341216
-1,-1,-1,1,-1,1,-1,1,2021-08-06 13:48:55,341216
1,-1,0,3,3,1,1,1,2021-08-06 13:48:55,341216
0,-1,-3,-4,-6,-2,-2,-1,2021-08-06 13:48:55,341216
0,-3,-3,-3,-7,-4,-4,-1,2021-08-06 13:48:55,372221
-2,-3,-2,-5,-7,-5,0,-2,2021-08-06 13:48:55,372221
0,1,1,2,6,4,1,-1,2021-08-06 13:48:55,372221
-2,0,0,-1,-3,-3,-1,-3,2021-08-06 13:48:55,372221
-2,-1,-2,-3,-1,0,-2,-2,2021-08-06 13:48:55,388220
2,2,4,1,5,2,1,3,2021-08-06 13:48:55,388220
-2,-1,-2,-6,-13,-8,-3,-3,2021-08-06 13:48:55,388220
1,0,0,0,4,0,1,1,2021-08-06 13:48:55,388220
-3,-1,-1,5,6,2,1,-1,2021-08-06 13:48:55,404214
0,-2,-2,-1,-1,-2,-1,-2,2021-08-06 13:48:55,404214
-2,-1,-2,-1,-6,-5,-3,-3,2021-08-06 13:48:55,404214
-2,-3,-5,-10,-15,-9,-5,-4,2021-08-06 13:48:55,404214
3,2,3,3,5,5,3,0,2021-08-06 13:48:55,435215
-2,-1,-2,0,-3,-1,-2,-1,2021-08-06 13:48:55,451214
0,-1,-2,-3,-6,-2,0,-2,2021-08-06 13:48:55,467214
-3,-3,-5,-7,-6,-4,-4,-2,2021-08-06 13:48:55,467214
1,1,2,7,15,6,4,0,2021-08-06 13:48:55,467214
-1,-2,-3,-5,-7,-3,1,-2,2021-08-06 13:48:55,467214
0,-1,-2,-4,0,-1,-2,0,2021-08-06 13:48:55,467214
-1,0,0,-1,-4,-5,-3,-1,2021-08-06 13:48:55,467214
-2,-2,-1,-2,2,-1,-1,-1,2021-08-06 13:48:55,467214
1,3,1,5,5,3,1,1,2021-08-06 13:48:55,468216
-2,-2,-2,-4,-2,-2,-4,-2,2021-08-06 13:48:55,468216
1,1,1,0,0,1,1,2,2021-08-06 13:48:55,468216
-3,-1,0,-3,-5,-4,-4,-3,2021-08-06 13:48:55,483215
-1,-2,-4,0,2,1,0,0,2021-08-06 13:48:55,483215
0,-3,-2,-1,-8,-3,-1,-1,2021-08-06 13:48:55,483215
2,1,0,-1,5,4,2,0,2021-08-06 13:48:55,483215
-2,-2,0,1,2,-1,-1,-3,2021-08-06 13:48:55,514216
-1,-2,0,-1,0,-1,-3,-2,2021-08-06 13:48:55,530214
-4,0,0,1,2,-1,-3,-2,2021-08-06 13:48:55,546214
-1,1,1,2,-2,1,1,-1,2021-08-06 13:48:55,546214
2,2,2,0,7,2,2,1,2021-08-06 13:48:55,546214
-2,-3,-6,-6,-11,-9,-5,-2,2021-08-06 13:48:55,546214
1,0,-4,0,4,4,3,3,2021-08-06 13:48:55,546214
-2,-3,0,1,4,-1,0,-1,2021-08-06 13:48:55,546214
-2,-3,-4,-4,-5,-2,-3,-2,2021-08-06 13:48:55,546214
-1,1,2,-2,-5,-3,-1,-1,2021-08-06 13:48:55,547215
-2,0,1,-1,-3,-2,-1,-1,2021-08-06 13:48:55,547215
-1,-2,-2,1,-5,-3,-3,-4,2021-08-06 13:48:55,547215
2,0,-1,3,0,1,0,2,2021-08-06 13:48:55,577215
1,2,4,6,6,2,3,3,2021-08-06 13:48:55,577215
0,0,1,-1,-2,-1,0,0,2021-08-06 13:48:55,577215
-3,-1,4,1,-4,-5,-2,-1,2021-08-06 13:48:55,577215
-2,-4,-5,-7,-10,-8,-6,-3,2021-08-06 13:48:55,577215
-3,-5,-11,-15,-12,-7,-5,-4,2021-08-06 13:48:55,577215
0,0,3,10,14,6,1,0,2021-08-06 13:48:55,577215
1,1,4,5,3,0,-2,-2,2021-08-06 13:48:55,577215
-1,-1,0,2,-2,-3,-1,-2,2021-08-06 13:48:55,608215
-1,-2,-4,0,4,6,2,-1,2021-08-06 13:48:55,624214
-6,-6,-8,-14,-7,-5,-5,-6,2021-08-06 13:48:55,640214
3,3,0,-2,4,4,4,2,2021-08-06 13:48:55,656215
5,7,8,8,1,0,4,4,2021-08-06 13:48:55,666216
-2,-1,3,-4,-10,-7,-2,-1,2021-08-06 13:48:55,666216
-2,-3,-5,-6,-12,-7,-3,-2,2021-08-06 13:48:55,666216
1,1,5,20,20,14,5,2,2021-08-06 13:48:55,666216
-3,-4,-5,-1,-3,-2,-3,-2,2021-08-06 13:48:55,666216
3,4,7,5,4,1,0,1,2021-08-06 13:48:55,666216
1,3,8,20,8,3,1,-2,2021-08-06 13:48:55,666216
-5,-7,-10,-26,-21,-11,-6,-3,2021-08-06 13:48:55,666216
-4,-8,-21,-37,-14,-6,-3,-2,2021-08-06 13:48:55,666216
-3,-4,-4,-2,3,1,-1,-2,2021-08-06 13:48:55,666216
0,0,3,5,-2,-2,-3,-1,2021-08-06 13:48:55,667215
1,1,3,12,2,0,0,0,2021-08-06 13:48:55,667215
0,1,3,15,16,8,3,2,2021-08-06 13:48:55,688217
-2,-3,0,-3,-1,-4,-2,-1,2021-08-06 13:48:55,688217
1,0,1,0,-1,-1,-1,0,2021-08-06 13:48:55,688217
-3,-2,-2,-6,-11,-9,-5,-4,2021-08-06 13:48:55,688217
0,0,0,0,2,0,-1,-1,2021-08-06 13:48:55,704216
0,0,2,4,8,3,1,-2,2021-08-06 13:48:55,720214
2,3,9,16,10,7,3,1,2021-08-06 13:48:55,720214
3,2,7,10,8,4,2,4,2021-08-06 13:48:55,720214
-1,-4,-11,-16,-9,-3,-1,1,2021-08-06 13:48:55,720214
-8,-10,-10,-20,-21,-12,-8,-7,2021-08-06 13:48:55,720214
-2,-4,-6,-6,5,-1,-1,-2,2021-08-06 13:48:55,720214
0,-1,-7,3,4,2,-1,0,2021-08-06 13:48:55,721216
-1,2,9,0,-10,-5,-2,-3,2021-08-06 13:48:55,752216
3,2,1,7,8,6,4,2,2021-08-06 13:48:55,768214
-4,-3,-6,-10,-7,-4,-3,-1,2021-08-06 13:48:55,768214
-1,0,0,-1,-5,-3,-1,0,2021-08-06 13:48:55,768214
0,0,2,5,-1,-3,-2,1,2021-08-06 13:48:55,768214
-1,-1,0,3,4,3,-1,-1,2021-08-06 13:48:55,768214
-2,-2,0,0,-7,-2,-1,-2,2021-08-06 13:48:55,768214
4,5,3,14,23,13,6,3,2021-08-06 13:48:55,768214
-2,-1,-5,-1,-4,-2,-1,-2,2021-08-06 13:48:55,784214
-6,-6,-9,-24,-23,-14,-8,-7,2021-08-06 13:48:55,799215
1,2,1,10,16,11,3,3,2021-08-06 13:48:55,814214
-2,-1,-2,-8,-10,-4,-1,-1,2021-08-06 13:48:55,829214
-3,-2,2,3,-2,-3,-4,-2,2021-08-06 13:48:55,829214
3,4,9,27,20,8,3,1,2021-08-06 13:48:55,829214
2,0,-2,-2,-6,0,0,2,2021-08-06 13:48:55,829214
2,-1,3,-19,2,3,3,2,2021-08-06 13:48:55,829214
-2,-1,-7,6,3,-1,-1,-2,2021-08-06 13:48:55,829214
1,3,-1,10,14,8,1,3,2021-08-06 13:48:55,829214
-7,-9,-11,-35,-20,-12,-8,-7,2021-08-06 13:48:55,829214
-1,-3,-2,-4,0,2,1,-1,2021-08-06 13:48:55,830215
-4,-6,-5,-3,-2,-3,-2,-4,2021-08-06 13:48:55,845216
3,3,6,6,0,0,3,4,2021-08-06 13:48:55,845216
2,6,8,13,3,-2,2,3,2021-08-06 13:48:55,845216
-2,2,0,-4,-10,-7,-6,-1,2021-08-06 13:48:55,845216
1,2,2,0,7,5,1,0,2021-08-06 13:48:55,876214
1,-1,1,5,7,5,3,1,2021-08-06 13:48:55,891216
1,1,-1,2,8,3,1,1,2021-08-06 13:48:55,907216
-3,-4,-5,-2,-6,-3,-2,-1,2021-08-06 13:48:55,923214
-2,-2,0,1,-7,-6,-4,-3,2021-08-06 13:48:55,939215
0,-1,-2,-6,-8,-4,-2,0,2021-08-06 13:48:55,939215
-1,-2,-3,-3,-2,-2,-3,-2,2021-08-06 13:48:55,939215
0,-1,2,7,2,0,0,-2,2021-08-06 13:48:55,939215
1,-1,7,9,7,3,-1,-1,2021-08-06 13:48:55,955214
0,0,-3,6,6,3,2,-1,2021-08-06 13:48:55,971216
-3,-3,-11,-32,-20,-10,-4,-2,2021-08-06 13:48:55,987215
-5,-7,-14,-8,-7,-6,-5,-4,2021-08-06 13:48:55,987215
-4,-4,0,-20,-18,-11,-6,-5,2021-08-06 13:48:55,987215
3,2,8,-4,6,5,4,3,2021-08-06 13:48:55,987215
3,4,0,17,7,9,5,3,2021-08-06 13:48:55,987215
-2,-1,-1,3,-3,-3,-2,-3,2021-08-06 13:48:55,987215
2,1,4,10,12,7,4,2,2021-08-06 13:48:55,987215
-7,-6,-3,-6,-27,-15,-9,-6,2021-08-06 13:48:55,987215
-1,-3,4,6,13,3,1,-1,2021-08-06 13:48:55,988215
1,3,4,6,0,3,0,2,2021-08-06 13:48:55,988215
3,3,-3,-5,-2,0,4,2,2021-08-06 13:48:55,988215
-3,-4,-6,-10,-6,-3,-3,-2,2021-08-06 13:48:55,988215
-3,-4,-3,-4,-3,-3,-2,-4,2021-08-06 13:48:55,988215
-4,-5,-4,-6,-7,-9,-6,-6,2021-08-06 13:48:55,988215
1,4,6,15,16,8,5,4,2021-08-06 13:48:55,988215
1,1,-1,-2,2,3,1,1,2021-08-06 13:48:55,988215
-2,-5,-8,-10,-18,-11,-5,-4,2021-08-06 13:48:55,989216
1,2,1,6,13,5,4,2,2021-08-06 13:48:55,989216
0,2,5,6,6,6,-1,1,2021-08-06 13:48:56,002215
-3,-2,-4,-5,-3,-1,-3,-2,2021-08-06 13:48:56,002215
2,2,2,2,2,1,1,2,2021-08-06 13:48:56,002215
-2,-4,-8,-16,-17,-8,-4,-2,2021-08-06 13:48:56,002215
1,1,0,0,6,2,1,0,2021-08-06 13:48:56,034214
-1,0,0,2,2,1,1,-2,2021-08-06 13:48:56,034214
0,0,1,4,-5,-2,-1,-1,2021-08-06 13:48:56,034214
-2,-2,2,1,-3,-4,-2,-2,2021-08-06 13:48:56,035215
1,-1,-6,0,0,-2,1,-1,2021-08-06 13:48:56,066214
0,0,-3,-3,-3,-4,-2,-4,2021-08-06 13:48:56,066214
1,-1,-3,-19,-10,0,-1,2,2021-08-06 13:48:56,066214
-3,-6,-7,-10,-6,-5,-3,-4,2021-08-06 13:48:56,066214
-4,-4,-6,-7,-17,-11,-7,-5,2021-08-06 13:48:56,066214
0,1,5,12,11,3,3,0,2021-08-06 13:48:56,066214
5,10,12,23,20,11,6,4,2021-08-06 13:48:56,067215
-1,2,4,5,5,2,0,0,2021-08-06 13:48:56,067215
-1,-3,-8,-16,-10,-3,-1,1,2021-08-06 13:48:56,082214
-6,-9,-18,-31,-23,-15,-7,-5,2021-08-06 13:48:56,082214
-6,-6,-5,-9,-12,-9,-5,-4,2021-08-06 13:48:56,082214
3,5,9,24,26,13,6,1,2021-08-06 13:48:56,082214
6,7,15,37,31,16,10,5,2021-08-06 13:48:56,114215
3,4,5,0,2,2,2,2,2021-08-06 13:48:56,130214
-5,-7,-12,-30,-22,-14,-7,-5,2021-08-06 13:48:56,146214
-2,-5,-12,-16,-15,-9,-4,-2,2021-08-06 13:48:56,162214
-1,0,2,0,0,-1,-2,1,2021-08-06 13:48:56,162214
-1,-1,7,17,9,5,1,2,2021-08-06 13:48:56,162214
1,-1,4,13,11,4,2,-1,2021-08-06 13:48:56,162214
-1,-1,-3,-10,-19,-8,-3,-2,2021-08-06 13:48:56,162214
1,1,7,9,7,2,-1,0,2021-08-06 13:48:56,162214
-1,1,-1,1,-2,1,1,-1,2021-08-06 13:48:56,162214
-4,-7,-18,-29,-15,-8,-2,-2,2021-08-06 13:48:56,162214
-10,-13,-17,-22,-16,-12,-8,-8,2021-08-06 13:48:56,163215
2,4,5,14,19,10,3,2,2021-08-06 13:48:56,163215
-1,1,10,11,5,2,0,-1,2021-08-06 13:48:56,163215
0,1,4,6,7,1,2,0,2021-08-06 13:48:56,163215
4,6,-2,5,3,4,3,3,2021-08-06 13:48:56,163215
-6,-7,-6,-14,-10,-7,-6,-4,2021-08-06 13:48:56,178215
1,2,3,12,7,3,1,2,2021-08-06 13:48:56,178215
-4,-3,0,2,7,3,-2,-3,2021-08-06 13:48:56,194215
-4,-4,-2,-16,-14,-7,-3,-1,2021-08-06 13:48:56,210214
2,2,-1,-8,3,1,3,1,2021-08-06 13:48:56,226214
-1,-2,-2,0,-4,-4,-2,-1,2021-08-06 13:48:56,226214
2,4,11,27,10,3,1,1,2021-08-06 13:48:56,226214
3,4,4,13,10,5,3,2,2021-08-06 13:48:56,226214
0,0,-5,-25,-13,-2,0,1,2021-08-06 13:48:56,226214
-4,-7,-18,-16,-10,-4,-1,-2,2021-08-06 13:48:56,226214
-5,-7,-6,-18,-15,-7,-4,-4,2021-08-06 13:48:56,226214
-3,-3,6,14,9,7,0,-2,2021-08-06 13:48:56,227214
-3,2,12,28,5,-3,-1,-3,2021-08-06 13:48:56,242214
5,7,14,22,20,11,5,2,2021-08-06 13:48:56,258215
0,-1,-7,-13,-8,-4,-2,0,2021-08-06 13:48:56,274214
-6,-7,-18,-36,-27,-15,-7,-5,2021-08-06 13:48:56,290214
-7,-12,-22,-49,-27,-11,-7,-6,2021-08-06 13:48:56,306214
0,1,-1,3,5,0,1,1,2021-08-06 13:48:56,306214
6,9,14,29,18,9,6,3,2021-08-06 13:48:56,306214
2,3,10,14,-2,0,1,0,2021-08-06 13:48:56,306214
1,4,11,30,18,8,5,1,2021-08-06 13:48:56,306214
1,0,6,19,12,6,1,1,2021-08-06 13:48:56,306214
1,2,-9,-9,-2,2,0,2,2021-08-06 13:48:56,307217
-3,-2,1,-9,-5,-5,-3,-3,2021-08-06 13:48:56,307217
-4,-2,2,23,-2,-5,-3,-3,2021-08-06 13:48:56,307217
1,-3,-25,-57,-16,-2,-1,-1,2021-08-06 13:48:56,307217
-11,-18,-23,-73,-34,-15,-11,-8,2021-08-06 13:48:56,307217
-3,-2,-6,7,9,2,-2,-1,2021-08-06 13:48:56,307217
0,3,15,29,4,-3,0,-2,2021-08-06 13:48:56,322215
4,10,29,58,17,8,4,2,2021-08-06 13:48:56,322215
4,6,-14,-18,8,7,6,4,2021-08-06 13:48:56,322215
-2,-5,-12,-24,-3,-2,0,-2,2021-08-06 13:48:56,322215
0,-3,-7,6,-1,-1,-1,1,2021-08-06 13:48:56,354253
0,1,6,3,2,-1,-2,1,2021-08-06 13:48:56,354253
-1,1,8,22,1,-2,-3,-3,2021-08-06 13:48:56,354253
1,5,11,7,5,5,3,2,2021-08-06 13:48:56,354253
0,-2,2,5,17,9,2,-1,2021-08-06 13:48:56,370250
-4,-6,-5,-14,-16,-9,-5,-4,2021-08-06 13:48:56,370250
-1,1,5,11,-2,-1,-2,-2,2021-08-06 13:48:56,370250
1,1,-2,4,12,5,3,2,2021-08-06 13:48:56,370250
0,0,-2,-8,-9,-3,-1,0,2021-08-06 13:48:56,386251
-3,-2,-6,-7,-2,-3,-2,-1,2021-08-06 13:48:56,386251
1,1,4,13,1,-3,1,1,2021-08-06 13:48:56,386251
2,-1,-2,7,-3,-2,1,1,2021-08-06 13:48:56,386251
-2,-3,-11,-26,-13,-3,-1,0,2021-08-06 13:48:56,413251
-8,-10,-2,-29,-18,-11,-7,-8,2021-08-06 13:48:56,413251
0,2,-4,15,4,0,1,4,2021-08-06 13:48:56,413251
-2,1,-3,-10,-5,-3,-3,-2,2021-08-06 13:48:56,413251
-4,-9,-12,-31,-21,-10,-6,-4,2021-08-06 13:48:56,432252
4,5,10,34,28,12,6,3,2021-08-06 13:48:56,448249
-2,-1,1,9,-5,-3,-3,-3,2021-08-06 13:48:56,463250
3,0,-6,-19,5,1,2,2,2021-08-06 13:48:56,479249
-3,-3,-2,6,-2,-1,-2,-4,2021-08-06 13:48:56,495250
-3,-1,-7,-4,3,0,-1,-3,2021-08-06 13:48:56,495250
-1,-2,8,7,0,-1,-4,-3,2021-08-06 13:48:56,495250
2,5,9,25,4,1,2,2,2021-08-06 13:48:56,495250
3,1,-3,-21,-1,0,2,2,2021-08-06 13:48:56,495250
-6,-9,-11,-21,-20,-14,-10,-7,2021-08-06 13:48:56,496251
2,2,15,35,29,15,8,5,2021-08-06 13:48:56,496251
0,2,6,11,-2,-1,-3,-2,2021-08-06 13:48:56,496251
2,2,-10,-13,-7,-1,0,2,2021-08-06 13:48:56,496251
0,-2,0,0,0,-2,-2,-3,2021-08-06 13:48:56,496251
2,1,-3,4,-3,-3,-1,0,2021-08-06 13:48:56,496251
-3,-5,-4,-39,-11,-2,-3,-3,2021-08-06 13:48:56,496251
-5,-6,-13,-13,-2,-4,-2,-4,2021-08-06 13:48:56,496251
-2,0,-1,9,-4,-2,-3,0,2021-08-06 13:48:56,497251
-4,-2,2,-5,-5,-3,-2,-4,2021-08-06 13:48:56,497251
-5,-5,1,3,0,3,-1,-3,2021-08-06 13:48:56,497251
1,-1,-11,-1,5,2,3,2,2021-08-06 13:48:56,525249
1,0,-8,-5,1,2,2,2,2021-08-06 13:48:56,541251
0,2,9,13,4,0,0,-2,2021-08-06 13:48:56,541251
1,5,7,16,4,1,-1,1,2021-08-06 13:48:56,541251
-4,-4,9,0,-4,-4,-4,-5,2021-08-06 13:48:56,541251
-1,-3,-2,0,-3,2,0,-1,2021-08-06 13:48:56,541251
5,3,-1,-5,8,5,3,5,2021-08-06 13:48:56,557249
2,1,4,9,1,0,1,-1,2021-08-06 13:48:56,572765
-3,-3,-4,0,-7,-7,-5,-2,2021-08-06 13:48:56,587767
-1,-1,-8,-25,-12,-4,1,1,2021-08-06 13:48:56,587767
-3,-1,1,-1,2,-1,-2,-1,2021-08-06 13:48:56,587767
-3,-2,-3,7,5,-1,-2,-1,2021-08-06 13:48:56,587767
2,2,1,3,-4,-2,1,2,2021-08-06 13:48:56,603763
-3,-3,-5,-28,-17,-8,-5,-5,2021-08-06 13:48:56,603763
-8,-12,-19,-24,-17,-9,-6,-6,2021-08-06 13:48:56,603763
5,11,15,25,29,15,8,5,2021-08-06 13:48:56,603763
-1,3,4,12,-3,-3,-1,-1,2021-08-06 13:48:56,603763
0,-1,0,-2,-3,-2,0,1,2021-08-06 13:48:56,603763
-1,-2,-2,1,6,4,0,-3,2021-08-06 13:48:56,604764
-4,-6,-7,-3,-9,-6,-4,-1,2021-08-06 13:48:56,604764
0,2,7,16,19,10,3,0,2021-08-06 13:48:56,635764
-1,0,2,8,5,2,0,-2,2021-08-06 13:48:56,651763
-1,1,1,-6,-6,-3,2,1,2021-08-06 13:48:56,667762
-1,-3,-14,-14,-7,-5,-4,-1,2021-08-06 13:48:56,683762
-3,-3,2,-5,-2,-5,-2,-4,2021-08-06 13:48:56,683762
0,1,8,26,7,1,2,1,2021-08-06 13:48:56,683762
0,1,-3,4,-2,1,0,0,2021-08-06 13:48:56,683762
-7,-9,-17,-60,-28,-13,-8,-5,2021-08-06 13:48:56,683762
-6,-7,-13,-24,-8,-4,-5,-4,2021-08-06 13:48:56,683762
2,2,8,25,16,4,1,1,2021-08-06 13:48:56,683762
1,3,11,21,3,-1,1,1,2021-08-06 13:48:56,683762
3,5,6,11,7,4,3,2,2021-08-06 13:48:56,684765
-1,-3,-9,-14,-16,-5,-3,-3,2021-08-06 13:48:56,684765
-3,-3,-4,-11,-5,-2,-1,-2,2021-08-06 13:48:56,684765
1,3,6,20,16,8,2,0,2021-08-06 13:48:56,684765
0,2,3,18,5,2,1,-1,2021-08-06 13:48:56,684765
0,0,-3,-24,-9,-4,-1,-1,2021-08-06 13:48:56,713764
-4,-6,-9,-23,-24,-14,-10,-5,2021-08-06 13:48:56,729762
-2,-4,-9,-11,-9,-3,-3,-2,2021-08-06 13:48:56,745762
-1,-3,1,4,17,7,4,1,2021-08-06 13:48:56,761763
4,8,14,37,22,13,8,6,2021-08-06 13:48:56,761763
1,3,-4,-7,-10,-5,-1,1,2021-08-06 13:48:56,761763
-2,-5,-4,-23,-12,-8,-5,-4,2021-08-06 13:48:56,761763
1,2,19,49,21,7,1,0,2021-08-06 13:48:56,761763
1,-1,-17,-26,-12,-2,-2,0,2021-08-06 13:48:56,761763
-7,-10,-25,-50,-9,-4,-4,-5,2021-08-06 13:48:56,761763
-5,-4,-11,-10,-13,-8,-6,-4,2021-08-06 13:48:56,761763
-1,2,11,18,-9,-7,-3,0,2021-08-06 13:48:56,761763
2,4,14,29,14,6,2,0,2021-08-06 13:48:56,761763
2,5,4,1,5,3,1,2,2021-08-06 13:48:56,761763
-7,-8,-13,-27,-15,-9,-5,-4,2021-08-06 13:48:56,777764
0,1,5,14,-1,4,1,0,2021-08-06 13:48:56,793763
-1,1,6,19,4,-3,1,1,2021-08-06 13:48:56,824767
-1,-2,-8,-17,-8,1,1,0,2021-08-06 13:48:56,824767
-2,-4,-2,-9,0,1,-1,-2,2021-08-06 13:48:56,824767
-4,-4,-8,-13,-14,-9,-5,-4,2021-08-06 13:48:56,824767
1,2,5,15,5,1,-1,1,2021-08-06 13:48:56,824767
1,3,12,26,17,9,4,2,2021-08-06 13:48:56,824767
0,-1,-4,-3,-6,-5,-2,-2,2021-08-06 13:48:56,824767
-1,0,4,-3,-16,-11,-7,-4,2021-08-06 13:48:56,824767
4,4,4,22,34,19,8,5,2021-08-06 13:48:56,824767
-2,-5,-11,-32,-4,0,-2,-3,2021-08-06 13:48:56,824767
-5,-10,0,-27,-8,-1,-1,-1,2021-08-06 13:48:56,825767
-4,-5,-22,-3,-6,-5,-3,-4,2021-08-06 13:48:56,825767
1,8,25,41,4,-2,1,1,2021-08-06 13:48:56,855762
8,9,9,33,16,8,7,5,2021-08-06 13:48:56,871764
-5,-8,-26,-53,-14,-6,-3,-3,2021-08-06 13:48:56,887766
-10,-16,-14,-50,-35,-17,-10,-9,2021-08-06 13:48:56,887766
-7,-8,-17,-17,-13,-7,-5,-6,2021-08-06 13:48:56,887766
4,6,27,61,48,22,8,4,2021-08-06 13:48:56,887766
5,7,14,26,4,1,2,3,2021-08-06 13:48:56,887766
5,7,8,14,30,16,8,6,2021-08-06 13:48:56,887766
-2,-4,-3,-10,-6,-4,-3,0,2021-08-06 13:48:56,887766
-2,-2,-2,-8,-14,-8,-3,-3,2021-08-06 13:48:56,887766
0,2,6,22,4,-2,-1,0,2021-08-06 13:48:56,888764
2,3,-3,-2,-7,-1,-1,1,2021-08-06 13:48:56,888764
-5,-7,-17,-46,-28,-14,-8,-7,2021-08-06 13:48:56,919762
-4,-6,-14,-33,-9,-7,-4,-4,2021-08-06 13:48:56,934763
4,3,15,30,15,8,4,2,2021-08-06 13:48:56,950762
3,3,13,38,24,10,5,3,2021-08-06 13:48:56,950762
7,4,-1,-7,-4,0,2,3,2021-08-06 13:48:56,950762
-10,-13,-15,-35,-35,-19,-10,-9,2021-08-06 13:48:56,950762
-3,-1,-10,-14,5,0,-1,-1,2021-08-06 13:48:56,950762
1,2,-6,-4,11,10,7,3,2021-08-06 13:48:56,950762
-4,-7,-5,-3,-1,-1,-1,-3,2021-08-06 13:48:56,950762
4,7,9,17,7,1,1,3,2021-08-06 13:48:56,951766
3,8,26,53,21,9,4,3,2021-08-06 13:48:56,951766
3,2,3,4,-2,0,0,1,2021-08-06 13:48:56,951766
-4,-5,-19,-45,-15,-5,-2,-3,2021-08-06 13:48:56,981762
-8,-10,-15,-25,-23,-15,-9,-5,2021-08-06 13:48:56,981762
2,1,-3,7,11,6,2,1,2021-08-06 13:48:56,981762
1,2,8,15,15,6,4,1,2021-08-06 13:48:56,981762
0,0,10,29,12,4,1,0,2021-08-06 13:48:56,981762
1,0,-1,-16,-12,-3,-2,1,2021-08-06 13:48:56,981762
-4,-3,-6,-15,-20,-12,-4,-1,2021-08-06 13:48:57,012763
-3,-7,-4,-3,-7,-5,-4,-4,2021-08-06 13:48:57,028763
2,3,12,19,11,4,3,2,2021-08-06 13:48:57,044763
3,6,7,35,20,9,4,2,2021-08-06 13:48:57,059763
-2,-4,-15,-51,-24,-10,-5,-4,2021-08-06 13:48:57,059763
-9,-11,-17,-35,-11,-5,-6,-7,2021-08-06 13:48:57,059763
-3,-5,-6,-4,-6,-2,-3,-1,2021-08-06 13:48:57,059763
4,6,15,28,14,5,3,3,2021-08-06 13:48:57,059763
-4,0,8,21,-2,-2,-1,-2,2021-08-06 13:48:57,059763
-2,-3,-11,-37,-22,-12,-4,-2,2021-08-06 13:48:57,059763
-3,-4,-8,-8,7,3,1,-1,2021-08-06 13:48:57,059763
0,4,7,25,8,4,1,2,2021-08-06 13:48:57,059763
3,6,7,29,12,7,2,3,2021-08-06 13:48:57,059763
0,-2,-8,-29,-8,-2,-1,1,2021-08-06 13:48:57,060765
-3,-4,-8,-9,-12,-6,-5,-3,2021-08-06 13:48:57,060765
-9,-11,-13,-36,-30,-18,-10,-8,2021-08-06 13:48:57,060765
2,2,8,15,9,5,2,0,2021-08-06 13:48:57,074765
7,10,24,54,50,24,10,6,2021-08-06 13:48:57,074765
3,5,2,13,-6,-2,1,-1,2021-08-06 13:48:57,090763
-8,-14,-29,-83,-41,-18,-11,-7,2021-08-06 13:48:57,090763
-2,-4,-10,-8,15,9,1,-1,2021-08-06 13:48:57,090763
-3,-3,-8,-2,-7,-7,-3,-4,2021-08-06 13:48:57,090763
1,4,14,28,11,5,2,2,2021-08-06 13:48:57,106765
4,6,16,42,18,9,3,4,2021-08-06 13:48:57,122763
0,2,2,2,-3,-3,-1,-1,2021-08-06 13:48:57,137763
-4,-5,-8,-16,-17,-8,-6,-3,2021-08-06 13:48:57,137763
-6,-2,6,-2,-7,-8,-5,-6,2021-08-06 13:48:57,137763
-3,-6,-3,-2,-7,-5,-2,-2,2021-08-06 13:48:57,137763
4,5,-7,-15,3,4,3,3,2021-08-06 13:48:57,137763
-1,-4,2,6,0,1,0,-2,2021-08-06 13:48:57,137763
-4,-6,-16,-40,-19,-9,-5,-3,2021-08-06 13:48:57,169762
0,-2,-7,15,9,4,2,1,2021-08-06 13:48:57,169762
-2,-1,8,13,9,3,-1,-2,2021-08-06 13:48:57,169762
-1,1,4,10,-14,-11,-6,-1,2021-08-06 13:48:57,169762
3,5,5,-17,-2,3,3,4,2021-08-06 13:48:57,169762
-5,-2,13,-4,14,6,-2,-5,2021-08-06 13:48:57,169762
13,16,24,33,27,19,13,13,2021-08-06 13:48:57,169762
1,-6,-44,-13,-7,1,2,-1,2021-08-06 13:48:57,169762
-7,-10,-9,-5,-3,-5,-5,-4,2021-08-06 13:48:57,185763
-7,-10,-16,0,-13,-9,-5,-2,2021-08-06 13:48:57,201763
-4,-2,4,-3,8,4,-1,-1,2021-08-06 13:48:57,201763
-1,3,21,0,-11,-9,-5,-3,2021-08-06 13:48:57,201763
7,10,18,42,16,7,5,3,2021-08-06 13:48:57,212763
7,11,12,25,19,11,6,3,2021-08-06 13:48:57,212763
-5,-9,-16,-48,-33,-18,-8,-7,2021-08-06 13:48:57,212763
-4,-8,-18,-54,-12,0,-1,-1,2021-08-06 13:48:57,212763
-10,-15,-31,-27,-14,-10,-9,-8,2021-08-06 13:48:57,233764
5,9,21,29,18,8,6,6,2021-08-06 13:48:57,233764
2,4,14,53,16,3,3,3,2021-08-06 13:48:57,233764
3,4,6,11,8,6,2,3,2021-08-06 13:48:57,233764
-4,-7,-7,-32,-12,-3,-4,-3,2021-08-06 13:48:57,249763
-1,-1,-4,-10,-8,-5,-2,-2,2021-08-06 13:48:57,265762
4,4,4,32,41,19,5,3,2021-08-06 13:48:57,281762
1,3,8,14,7,1,1,1,2021-08-06 13:48:57,281762
-3,-3,-3,-15,-14,-8,-3,-1,2021-08-06 13:48:57,281762
-8,-11,-17,-20,-16,-10,-6,-6,2021-08-06 13:48:57,281762
-1,-2,-1,-4,-6,-3,-1,-1,2021-08-06 13:48:57,297762
4,7,15,22,14,6,3,2,2021-08-06 13:48:57,313762
2,-2,-9,-4,-2,1,0,-2,2021-08-06 13:48:57,329764
-3,-4,-1,-12,-6,-4,-4,-4,2021-08-06 13:48:57,329764
4,4,10,17,7,5,4,4,2021-08-06 13:48:57,329764
-1,-3,-13,-19,-11,-7,-3,-2,2021-08-06 13:48:57,329764
-1,-1,-2,-13,-10,-2,1,0,2021-08-06 13:48:57,329764
-4,-5,2,-8,-3,-2,-2,-3,2021-08-06 13:48:57,329764
-9,-15,-36,-29,-25,-16,-11,-10,2021-08-06 13:48:57,329764
4,7,20,30,27,15,8,3,2021-08-06 13:48:57,330764
-2,0,1,4,-1,-4,-3,-1,2021-08-06 13:48:57,330764
-3,-2,-2,2,-10,-6,-1,-2,2021-08-06 13:48:57,330764
0,1,2,-9,-6,-2,-1,-1,2021-08-06 13:48:57,330764
-3,-3,-1,6,-4,-4,-4,-1,2021-08-06 13:48:57,330764
2,3,8,11,5,2,-1,0,2021-08-06 13:48:57,361764
7,7,10,20,27,15,8,5,2021-08-06 13:48:57,361764
-7,-8,-9,-18,-17,-10,-6,-5,2021-08-06 13:48:57,361764
-1,0,-1,2,-4,-4,-1,-3,2021-08-06 13:48:57,361764
-1,2,9,30,3,-2,-1,0,2021-08-06 13:48:57,361764
2,0,-13,-38,-10,-1,1,0,2021-08-06 13:48:57,361764
-4,-7,-10,-21,-22,-16,-9,-5,2021-08-06 13:48:57,361764
2,1,8,12,3,3,2,4,2021-08-06 13:48:57,362763
-1,2,-8,-10,0,-1,-1,-2,2021-08-06 13:48:57,391764
-8,-13,-17,-43,-20,-9,-8,-7,2021-08-06 13:48:57,391764
-2,-3,-14,-10,0,3,2,1,2021-08-06 13:48:57,391764
-5,-5,1,-5,-7,-6,-3,-5,2021-08-06 13:48:57,391764
4,6,14,39,20,4,4,3,2021-08-06 13:48:57,423765
7,10,16,27,1,3,3,4,2021-08-06 13:48:57,439762
-4,-3,8,-5,7,5,0,-2,2021-08-06 13:48:57,439762
-3,-7,-17,-23,-18,-9,-4,-4,2021-08-06 13:48:57,439762
4,2,-5,9,17,11,6,6,2021-08-06 13:48:57,439762
2,3,2,-4,-8,-4,-2,0,2021-08-06 13:48:57,439762
-2,-1,6,11,-8,-6,-3,-3,2021-08-06 13:48:57,439762
-3,0,-2,19,-3,-3,-3,-3,2021-08-06 13:48:57,439762
-2,-5,-13,-46,-3,0,-1,-3,2021-08-06 13:48:57,455763
2,2,3,9,0,-3,2,0,2021-08-06 13:48:57,455763
8,15,24,51,26,13,8,6,2021-08-06 13:48:57,455763
-2,1,6,-1,2,0,-1,-3,2021-08-06 13:48:57,455763
-2,-7,-23,-47,-18,-5,-3,-2,2021-08-06 13:48:57,471765
-8,-10,-9,-5,-10,-8,-5,-3,2021-08-06 13:48:57,471765
-5,-8,-16,-15,-14,-7,-3,-2,2021-08-06 13:48:57,503764
-2,-2,-6,-13,2,0,-2,-2,2021-08-06 13:48:57,503764
4,14,31,25,8,3,2,4,2021-08-06 13:48:57,503764
3,3,-4,15,11,7,2,1,2021-08-06 13:48:57,503764
-1,-5,-9,-13,-11,-5,-1,-1,2021-08-06 13:48:57,503764
-1,0,7,2,0,3,2,1,2021-08-06 13:48:57,503764
-3,-3,-5,19,2,-3,-1,-1,2021-08-06 13:48:57,503764
0,1,-4,-23,2,4,2,2,2021-08-06 13:48:57,503764
-5,-3,3,-3,-12,-9,-8,-7,2021-08-06 13:48:57,504766
3,0,8,3,4,3,1,2,2021-08-06 13:48:57,504766
1,2,10,17,-7,-8,-4,-2,2021-08-06 13:48:57,535763
2,3,6,42,12,4,2,2,2021-08-06 13:48:57,551764
2,0,-19,-32,5,10,4,2,2021-08-06 13:48:57,551764
-6,-12,-16,-77,-16,-3,-2,-4,2021-08-06 13:48:57,551764
-9,-13,-25,-2,3,1,-3,-7,2021-08-06 13:48:57,551764
0,5,19,37,10,-3,-2,0,2021-08-06 13:48:57,551764
3,5,13,17,7,0,2,1,2021-08-06 13:48:57,551764
-1,1,-2,-3,-18,-10,-5,-1,2021-08-06 13:48:57,551764
-2,-3,1,-16,-2,-1,0,-1,2021-08-06 13:48:57,567762
-2,-5,-16,-7,-7,-4,-5,-3,2021-08-06 13:48:57,567762
-1,0,8,21,7,6,0,1,2021-08-06 13:48:57,567762
6,12,19,42,16,3,4,5,2021-08-06 13:48:57,567762
0,3,0,-16,-11,-1,0,0,2021-08-06 13:48:57,589763
-5,-10,-27,-63,-30,-11,-6,-3,2021-08-06 13:48:57,589763
-12,-15,-20,-29,-23,-15,-10,-9,2021-08-06 13:48:57,589763
-3,-5,-11,-6,3,0,-2,-2,2021-08-06 13:48:57,590764
7,10,21,44,21,7,4,4,2021-08-06 13:48:57,615798
6,12,29,50,38,19,10,5,2021-08-06 13:48:57,631799
1,-3,-11,-23,-21,-12,-6,-4,2021-08-06 13:48:57,647798
-2,-6,-15,-18,-3,0,0,0,2021-08-06 13:48:57,647798
-7,-6,-2,-3,-7,-7,-6,-6,2021-08-06 13:48:57,647798
-1,0,-1,-13,-16,-8,-4,-2,2021-08-06 13:48:57,647798
0,2,7,8,24,10,3,0,2021-08-06 13:48:57,647798
0,4,0,26,6,3,1,0,2021-08-06 13:48:57,647798
-4,-5,0,-12,-15,-8,-6,-4,2021-08-06 13:48:57,648799
3,2,1,22,11,5,3,4,2021-08-06 13:48:57,648799
-3,-3,-12,-37,-28,-13,-6,-2,2021-08-06 13:48:57,648799
-4,-6,-3,-16,-8,-4,-2,-3,2021-08-06 13:48:57,648799
-3,-2,-4,2,0,-3,-3,-2,2021-08-06 13:48:57,678800
-1,2,10,28,13,4,1,0,2021-08-06 13:48:57,678800
5,6,10,18,2,3,1,3,2021-08-06 13:48:57,678800
4,1,0,-13,-5,1,0,1,2021-08-06 13:48:57,678800
-8,-14,-23,-33,-14,-8,-7,-7,2021-08-06 13:48:57,694798
-2,-5,-13,-14,-4,-5,-3,-3,2021-08-06 13:48:57,710797
-3,-4,0,19,6,1,-1,-3,2021-08-06 13:48:57,725798
3,4,8,5,6,3,2,2,2021-08-06 13:48:57,725798
3,8,5,10,0,1,2,2,2021-08-06 13:48:57,725798
-3,-5,-1,-2,1,1,-1,-2,2021-08-06 13:48:57,725798
0,0,4,-1,9,3,2,0,2021-08-06 13:48:57,725798
-2,-4,-8,17,12,3,0,-2,2021-08-06 13:48:57,725798
4,5,8,0,5,3,3,3,2021-08-06 13:48:57,726799
-1,1,5,3,0,0,1,0,2021-08-06 13:48:57,726799
-2,-3,-10,-11,-11,-7,-2,-1,2021-08-06 13:48:57,726799
-4,-3,0,14,-1,1,-1,0,2021-08-06 13:48:57,726799
1,1,0,-5,8,3,1,2,2021-08-06 13:48:57,756798
1,2,1,3,0,2,0,0,2021-08-06 13:48:57,772798
-2,-3,-3,-28,-11,-5,0,-1,2021-08-06 13:48:57,788799
-7,-10,-23,-22,-21,-15,-9,-7,2021-08-06 13:48:57,788799
-4,-3,2,8,-3,-2,0,-1,2021-08-06 13:48:57,788799
1,4,11,13,7,2,1,1,2021-08-06 13:48:57,788799
4,6,11,33,22,15,6,3,2021-08-06 13:48:57,788799
4,9,12,17,15,9,5,2,2021-08-06 13:48:57,788799
-3,-2,-7,-9,-6,-1,-1,-4,2021-08-06 13:48:57,788799
-6,-7,-10,-40,-19,-10,-6,-5,2021-08-06 13:48:57,788799
-5,-4,-17,-19,-13,-8,-5,-1,2021-08-06 13:48:57,789798
0,0,3,4,-2,-4,-3,-1,2021-08-06 13:48:57,789798
1,0,7,14,7,3,0,2,2021-08-06 13:48:57,819797
-3,-3,-6,-3,-3,-2,-2,-3,2021-08-06 13:48:57,835313
-4,-5,-3,-5,-4,-4,-4,-4,2021-08-06 13:48:57,851311
11,16,23,36,22,12,9,10,2021-08-06 13:48:57,851311
2,4,5,10,-2,0,0,1,2021-08-06 13:48:57,851311
-1,-3,-10,-20,-8,-3,-4,-3,2021-08-06 13:48:57,851311
0,0,-10,-25,0,1,1,1,2021-08-06 13:48:57,851311
-11,-15,-17,-34,-22,-13,-10,-9,2021-08-06 13:48:57,851311
0,-3,3,5,-1,-1,-1,-1,2021-08-06 13:48:57,851311
6,8,10,33,17,10,8,4,2021-08-06 13:48:57,851311
-3,-1,7,17,-11,-8,-5,-3,2021-08-06 13:48:57,851311
5,6,5,3,18,11,7,4,2021-08-06 13:48:57,852313
-1,-2,-4,-22,-5,1,-1,0,2021-08-06 13:48:57,867312
-6,-8,-4,-12,-18,-13,-8,-5,2021-08-06 13:48:57,867312
4,1,-10,18,26,13,7,3,2021-08-06 13:48:57,867312
-2,-2,8,14,-4,-8,-5,-4,2021-08-06 13:48:57,867312
-5,-5,-8,-15,-37,-16,-6,-5,2021-08-06 13:48:57,899313
7,6,4,-13,42,31,12,9,2021-08-06 13:48:57,899313
-6,-8,-8,-17,-20,-11,-6,-5,2021-08-06 13:48:57,899313
-5,-5,-3,4,-4,-6,-4,-3,2021-08-06 13:48:57,899313
-1,2,4,29,8,-2,-2,-1,2021-08-06 13:48:57,915311
-1,0,0,-7,-12,-10,-1,0,2021-08-06 13:48:57,931312
6,8,25,20,6,5,4,3,2021-08-06 13:48:57,946311
-2,-4,-18,-16,-18,-10,-3,-3,2021-08-06 13:48:57,946311
2,0,-9,-42,-7,2,1,0,2021-08-06 13:48:57,946311
-3,-4,-5,4,5,3,0,-1,2021-08-06 13:48:57,946311
-4,-2,2,5,9,3,-2,-1,2021-08-06 13:48:57,946311
-2,0,11,12,-2,-4,-4,-2,2021-08-06 13:48:57,946311
8,6,9,29,16,5,6,4,2021-08-06 13:48:57,946311
1,2,-7,-18,-5,2,-1,-1,2021-08-06 13:48:57,946311
-4,-7,-16,-33,-14,-9,-4,-4,2021-08-06 13:48:57,947313
-9,-13,-12,-29,-22,-11,-7,-6,2021-08-06 13:48:57,947313
-3,-3,2,8,9,3,0,1,2021-08-06 13:48:57,968315
-2,-1,-4,25,2,-3,-2,-3,2021-08-06 13:48:57,968315
6,10,23,27,13,9,5,5,2021-08-06 13:48:57,969312
1,0,-8,-18,-12,-4,0,-1,2021-08-06 13:48:57,969312
-3,-1,6,7,13,3,2,-1,2021-08-06 13:48:57,993311
1,2,9,26,-5,-8,-3,-1,2021-08-06 13:48:57,993311
-1,-4,-14,-23,-6,0,-3,-2,2021-08-06 13:48:57,993311
-5,-6,-13,-43,-18,-9,-5,-4,2021-08-06 13:48:57,993311
0,-1,-1,5,7,4,1,0,2021-08-06 13:48:58,024311
0,1,7,17,0,-2,-2,1,2021-08-06 13:48:58,024311
-2,-2,-4,-3,-7,-4,-3,-2,2021-08-06 13:48:58,024311
8,8,7,3,8,8,3,7,2021-08-06 13:48:58,024311
2,3,8,21,16,7,3,2,2021-08-06 13:48:58,024311
-2,-4,-17,-14,-8,1,0,-3,2021-08-06 13:48:58,024311
-9,-10,-5,-20,-12,-6,-4,-6,2021-08-06 13:48:58,056311
-4,-3,-2,17,9,1,-2,-4,2021-08-06 13:48:58,072313
-2,-1,0,-12,-21,-10,-6,-3,2021-08-06 13:48:58,088313
1,4,8,10,8,1,-2,-1,2021-08-06 13:48:58,088313
0,0,-4,-15,-33,-15,-5,-1,2021-08-06 13:48:58,088313
6,6,4,15,42,26,14,6,2021-08-06 13:48:58,088313
1,-4,-4,4,8,3,0,-3,2021-08-06 13:48:58,088313
0,-1,2,2,-3,-1,2,1,2021-08-06 13:48:58,088313
-3,-3,-3,-2,-17,-12,-8,-5,2021-08-06 13:48:58,088313
-3,0,2,-7,-21,-11,-4,-2,2021-08-06 13:48:58,089313
4,2,3,22,27,13,5,3,2021-08-06 13:48:58,089313
-7,-8,-11,-34,-18,-10,-6,-6,2021-08-06 13:48:58,089313
-2,-1,-4,-6,3,-1,-2,-2,2021-08-06 13:48:58,089313
-5,-6,-7,-16,-4,2,2,0,2021-08-06 13:48:58,089313
2,5,4,23,29,15,5,2,2021-08-06 13:48:58,120312
2,4,12,10,0,-4,1,-1,2021-08-06 13:48:58,120312
2,1,-1,12,-3,2,2,2,2021-08-06 13:48:58,120312
-8,-10,-18,-48,-35,-21,-12,-9,2021-08-06 13:48:58,120312
-8,-8,-10,-18,-22,-13,-7,-5,2021-08-06 13:48:58,136311
1,1,0,3,6,3,1,1,2021-08-06 13:48:58,152311
8,13,21,40,26,12,7,5,2021-08-06 13:48:58,168312
3,7,10,32,23,10,4,3,2021-08-06 13:48:58,168312
-5,-7,-17,-43,-25,-8,-6,-3,2021-08-06 13:48:58,168312
-10,-15,-10,-10,-15,-11,-7,-8,2021-08-06 13:48:58,168312
1,1,5,9,5,2,3,1,2021-08-06 13:48:58,168312
1,2,-5,7,25,13,2,1,2021-08-06 13:48:58,168312
1,0,5,-14,-10,-6,1,2,2021-08-06 13:48:58,169314
-3,-3,-6,-2,-9,-7,-4,-4,2021-08-06 13:48:58,169314
-4,-5,-4,-5,-7,-7,-2,-3,2021-08-06 13:48:58,169314
3,4,14,34,8,4,2,1,2021-08-06 13:48:58,169314
4,3,0,3,12,5,2,2,2021-08-06 13:48:58,200311
-4,-4,-4,-23,-14,-6,-5,-3,2021-08-06 13:48:58,216311
2,1,6,9,17,8,4,1,2021-08-06 13:48:58,216311
-1,-1,-6,10,-10,-9,-5,-2,2021-08-06 13:48:58,216311
-1,-3,-2,-14,-19,-8,-3,-1,2021-08-06 13:48:58,216311
2,-1,0,0,2,1,0,0,2021-08-06 13:48:58,216311
2,3,4,13,22,8,4,2,2021-08-06 13:48:58,216311
-7,-10,-22,-40,-14,-6,-4,-7,2021-08-06 13:48:58,216311
-2,-5,-2,8,9,5,0,-2,2021-08-06 13:48:58,232311
3,5,8,17,5,2,1,1,2021-08-06 13:48:58,232311
-4,-2,-1,-8,-10,-5,-4,-4,2021-08-06 13:48:58,232311
3,2,7,11,-3,-1,1,1,2021-08-06 13:48:58,232311
-3,-3,-5,-13,-15,-8,-5,-5,2021-08-06 13:48:58,263312
-1,2,2,10,18,8,4,3,2021-08-06 13:48:58,279311
-2,0,-2,15,9,4,1,0,2021-08-06 13:48:58,295311
2,5,10,1,1,2,2,2,2021-08-06 13:48:58,295311
-3,-1,-7,-13,-11,-8,-5,-2,2021-08-06 13:48:58,295311
-3,-4,-7,-4,-9,-5,-1,-1,2021-08-06 13:48:58,295311
8,7,9,10,12,8,4,4,2021-08-06 13:48:58,295311
-1,2,4,5,-1,0,0,-1,2021-08-06 13:48:58,295311
1,-2,1,-13,2,2,0,1,2021-08-06 13:48:58,295311
1,2,-5,-5,2,0,0,-1,2021-08-06 13:48:58,296311
-6,-8,-17,-14,-13,-8,-5,-5,2021-08-06 13:48:58,296311
-1,-2,-1,-1,-14,-9,-5,-3,2021-08-06 13:48:58,296311
4,7,13,28,20,10,2,2,2021-08-06 13:48:58,310312
1,2,2,3,3,5,2,3,2021-08-06 13:48:58,326311
-2,-5,-8,-13,-5,-2,-4,-2,2021-08-06 13:48:58,326311
-3,-2,3,-2,-10,-4,-3,-3,2021-08-06 13:48:58,326311
-1,-1,-3,5,-2,-1,0,1,2021-08-06 13:48:58,339313
3,3,0,-4,16,8,4,1,2021-08-06 13:48:58,339313
-6,-4,-1,0,-1,-4,-4,-3,2021-08-06 13:48:58,339313
4,5,10,14,9,2,3,4,2021-08-06 13:48:58,339313
0,2,10,27,-3,-6,-2,-2,2021-08-06 13:48:58,357311
0,1,-10,-19,-22,-9,-4,-2,2021-08-06 13:48:58,357311
-4,-11,-24,-58,-15,-5,-4,-2,2021-08-06 13:48:58,357311
-5,-4,-3,14,5,-1,-4,-5,2021-08-06 13:48:58,357311
-2,-3,-7,-34,-18,-3,0,-1,2021-08-06 13:48:58,372313
-9,-7,1,-15,-21,-16,-8,-6,2021-08-06 13:48:58,388313
3,4,12,37,17,8,5,1,2021-08-06 13:48:58,388313
0,-2,2,12,16,9,3,0,2021-08-06 13:48:58,388313
0,3,5,21,10,4,2,-1,2021-08-06 13:48:58,388313
3,1,0,3,-4,-2,-1,0,2021-08-06 13:48:58,388313
1,1,-2,-5,-3,-1,1,2,2021-08-06 13:48:58,404313
-1,-2,-4,-2,-5,-1,-1,-3,2021-08-06 13:48:58,404313
-4,-7,-18,-35,-7,-8,-6,-5,2021-08-06 13:48:58,404313
2,2,-3,-2,3,1,1,2,2021-08-06 13:48:58,404313
4,4,16,37,44,24,10,5,2021-08-06 13:48:58,404313
2,4,3,4,-5,-1,-1,0,2021-08-06 13:48:58,404313
-3,-6,-2,3,-4,-5,-3,-3,2021-08-06 13:48:58,434313
-5,-5,-4,-18,-20,-12,-6,-5,2021-08-06 13:48:58,434313
1,3,-8,-28,-26,-13,-6,-1,2021-08-06 13:48:58,434313
-2,-7,-9,-13,8,4,0,0,2021-08-06 13:48:58,434313
-6,-5,1,2,-9,-9,-5,-5,2021-08-06 13:48:58,466313
0,0,3,21,13,14,4,2,2021-08-06 13:48:58,466313
3,6,12,16,3,2,2,0,2021-08-06 13:48:58,466313
-4,-2,2,-9,-10,-7,-3,-1,2021-08-06 13:48:58,466313
-1,2,-5,19,10,1,0,-1,2021-08-06 13:48:58,466313
0,0,-2,11,2,2,0,2,2021-08-06 13:48:58,466313
1,-1,2,-26,5,7,3,1,2021-08-06 13:48:58,481311
-1,-3,-11,-24,-20,-11,-5,-2,2021-08-06 13:48:58,481311
2,5,0,2,5,6,4,3,2021-08-06 13:48:58,496311
-2,0,5,13,17,4,1,-2,2021-08-06 13:48:58,512311
-6,-7,-5,-2,-19,-12,-7,-4,2021-08-06 13:48:58,512311
5,8,19,27,16,5,3,2,2021-08-06 13:48:58,512311
2,2,2,18,-3,-2,-3,0,2021-08-06 13:48:58,512311
-1,-5,-14,-56,-13,-2,-1,-1,2021-08-06 13:48:58,512311
-7,-9,-12,-20,-21,-10,-7,-4,2021-08-06 13:48:58,512311
-1,0,-7,-5,-2,-4,-1,-1,2021-08-06 13:48:58,512311
0,0,3,19,6,6,1,1,2021-08-06 13:48:58,527311
-1,-5,-7,-8,1,3,1,-2,2021-08-06 13:48:58,542311
-6,-6,1,-4,-7,-6,-5,-6,2021-08-06 13:48:58,574311
1,4,7,18,25,9,4,2,2021-08-06 13:48:58,574311
7,7,10,7,3,6,7,9,2021-08-06 13:48:58,574311
3,4,9,24,7,2,1,1,2021-08-06 13:48:58,574311
0,1,-6,-14,-7,-3,-1,0,2021-08-06 13:48:58,574311
-5,-8,-9,-24,-17,-6,-4,-4,2021-08-06 13:48:58,574311
-7,-10,-17,-37,-20,-14,-8,-6,2021-08-06 13:48:58,574311
-1,0,8,24,4,-1,-1,-1,2021-08-06 13:48:58,574311
4,5,9,26,17,6,4,2,2021-08-06 13:48:58,574311
1,4,0,-1,7,7,1,2,2021-08-06 13:48:58,574311
-3,-4,0,-18,-3,-3,-2,-3,2021-08-06 13:48:58,590311
-7,-10,-21,-3,-10,-9,-5,-5,2021-08-06 13:48:58,590311
5,6,3,-2,-1,4,3,2,2021-08-06 13:48:58,590311
0,-1,2,-10,-4,0,1,1,2021-08-06 13:48:58,590311
3,3,10,10,3,0,1,0,2021-08-06 13:48:58,622312
-3,-2,2,2,-4,-5,-3,-1,2021-08-06 13:48:58,637313
-4,-5,-1,23,-4,-7,-3,-3,2021-08-06 13:48:58,637313
-6,-7,-8,-26,-22,-14,-8,-3,2021-08-06 13:48:58,637313
2,2,-9,-3,23,20,9,3,2021-08-06 13:48:58,637313
-4,-4,8,1,5,6,0,-3,2021-08-06 13:48:58,637313
3,6,1,10,-4,-2,0,0,2021-08-06 13:48:58,637313
-3,-3,-2,8,5,-1,-2,-2,2021-08-06 13:48:58,637313
-5,-7,-11,-24,-23,-14,-7,-4,2021-08-06 13:48:58,653312
-8,-11,-15,-34,-30,-18,-11,-8,2021-08-06 13:48:58,653312
0,3,1,-5,4,0,2,1,2021-08-06 13:48:58,653312
8,9,24,67,43,22,9,5,2021-08-06 13:48:58,653312
3,4,-2,17,15,10,6,3,2021-08-06 13:48:58,669311
-7,-10,-18,-70,-24,-11,-4,-5,2021-08-06 13:48:58,685311
-5,-6,2,-1,-12,-9,-8,-3,2021-08-06 13:48:58,701312
3,2,12,22,-2,-5,-2,-1,2021-08-06 13:48:58,701312
3,5,3,34,50,24,8,5,2021-08-06 13:48:58,701312
1,3,-3,-13,2,9,4,2,2021-08-06 13:48:58,701312
-6,-6,-10,2,-7,-7,-5,-4,2021-08-06 13:48:58,701312
0,-5,-13,-17,-15,-8,0,-3,2021-08-06 13:48:58,701312
-5,-6,-1,-26,-23,-13,-5,-4,2021-08-06 13:48:58,701312
1,7,6,17,3,-1,0,2,2021-08-06 13:48:58,701312
-5,-6,-11,-22,-10,-9,-8,-6,2021-08-06 13:48:58,709313
4,3,11,22,18,16,9,5,2021-08-06 13:48:58,709313
-7,-10,-14,-22,-33,-22,-13,-8,2021-08-06 13:48:58,733312
3,3,6,26,17,9,3,2,2021-08-06 13:48:58,749311
5,9,14,28,20,9,6,3,2021-08-06 13:48:58,765311
-2,1,-9,-20,-14,-4,-3,-2,2021-08-06 13:48:58,781311
0,-3,-1,-29,-16,-3,-2,0,2021-08-06 13:48:58,797311
-5,-6,2,2,-1,-5,-4,-3,2021-08-06 13:48:58,813312
2,2,-4,27,25,13,5,3,2021-08-06 13:48:58,829311
-3,-2,-10,-25,-4,-1,-3,0,2021-08-06 13:48:58,829311
-3,-4,-7,-10,-13,-9,-6,-4,2021-08-06 13:48:58,829311
-2,-1,5,-6,-21,-15,-6,-4,2021-08-06 13:48:58,829311
3,1,10,15,9,4,4,3,2021-08-06 13:48:58,829311
0,-2,-9,7,14,5,1,-2,2021-08-06 13:48:58,829311
2,0,2,-14,-5,-2,-2,-2,2021-08-06 13:48:58,829311
6,9,-1,12,18,9,7,5,2021-08-06 13:48:58,830313
-3,-6,0,4,-2,-3,-3,-3,2021-08-06 13:48:58,830313
-1,-6,2,-6,-11,-4,-2,0,2021-08-06 13:48:58,830313
-4,-2,-9,-23,-16,-6,-1,-3,2021-08-06 13:48:58,830313
-6,-7,-1,-10,-18,-15,-8,-7,2021-08-06 13:48:58,830313
2,2,-3,-3,13,10,5,3,2021-08-06 13:48:58,830313
-3,-1,10,26,13,1,-2,-2,2021-08-06 13:48:58,830313
8,12,25,48,11,4,5,5,2021-08-06 13:48:58,830313
3,4,-3,-11,1,1,0,1,2021-08-06 13:48:58,830313
-5,-6,-15,-55,-16,-1,-1,-2,2021-08-06 13:48:58,831312
-7,-7,-11,-15,-10,-6,-3,-5,2021-08-06 13:48:58,831312
-2,-3,-2,8,4,-1,0,0,2021-08-06 13:48:58,859311
3,3,8,32,8,-1,0,0,2021-08-06 13:48:58,875312
1,0,-7,-11,-14,-7,-3,0,2021-08-06 13:48:58,891312
-5,-7,-10,-23,-10,-7,-4,-6,2021-08-06 13:48:58,891312
-2,1,8,22,7,2,0,-1,2021-08-06 13:48:58,891312
7,8,11,35,20,12,7,6,2021-08-06 13:48:58,891312
-1,-2,-6,-38,-27,-11,-3,-2,2021-08-06 13:48:58,891312
0,2,2,-14,1,3,2,2,2021-08-06 13:48:58,891312
-5,-4,-4,23,17,6,-2,-2,2021-08-06 13:48:58,892312
4,4,4,-9,5,7,2,3,2021-08-06 13:48:58,907312
-5,-5,6,10,4,-3,-3,-4,2021-08-06 13:48:58,907312
-1,-2,-9,27,15,5,2,1,2021-08-06 13:48:58,907312
3,3,0,-28,-3,0,0,2,2021-08-06 13:48:58,907312
-3,-5,-5,-17,-10,-4,-2,-2,2021-08-06 13:48:58,907312
-5,-8,-8,-15,-21,-11,-7,-6,2021-08-06 13:48:58,907312
-1,1,0,4,-6,-7,-3,-2,2021-08-06 13:48:58,907312
0,-2,4,19,7,0,0,-1,2021-08-06 13:48:58,939311
3,3,-2,-1,9,9,5,3,2021-08-06 13:48:58,939311
1,-1,2,-6,-14,-7,-3,-1,2021-08-06 13:48:58,939311
4,5,18,28,19,9,5,6,2021-08-06 13:48:58,939311
-1,2,3,20,4,4,1,0,2021-08-06 13:48:58,955314
-6,-8,-18,-41,-34,-17,-6,-7,2021-08-06 13:48:58,955314
-5,-7,-9,-15,2,-5,-7,-5,2021-08-06 13:48:58,955314
-3,-6,-7,-23,-10,-4,-4,-5,2021-08-06 13:48:58,955314
-4,-4,-5,-18,-15,-11,-8,-3,2021-08-06 13:48:58,971313
1,2,5,24,-1,-4,-1,0,2021-08-06 13:48:58,971313
10,14,16,29,49,28,13,8,2021-08-06 13:48:58,971313
-1,-2,-3,4,-7,-2,-1,-3,2021-08-06 13:48:58,971313
-2,-5,-5,-8,-8,-5,-1,-2,2021-08-06 13:48:59,003312
-5,-7,-7,-11,-10,-8,-6,-4,2021-08-06 13:48:59,019311
-2,-4,-7,1,-3,-1,2,-1,2021-08-06 13:48:59,051313
0,1,7,-15,-11,-7,-5,0,2021-08-06 13:48:59,051313
-2,0,-3,5,2,-1,0,-2,2021-08-06 13:48:59,051313
-1,-2,-9,-2,-6,-6,-4,-3,2021-08-06 13:48:59,051313
4,4,7,8,18,16,10,5,2021-08-06 13:48:59,051313
1,1,7,11,20,13,3,0,2021-08-06 13:48:59,051313
-1,-3,4,10,-6,-4,-1,-2,2021-08-06 13:48:59,051313
0,2,4,6,16,3,1,2,2021-08-06 13:48:59,052313
-2,0,-8,-11,-42,-22,-9,-4,2021-08-06 13:48:59,052313
-1,-4,-3,-5,14,8,3,1,2021-08-06 13:48:59,052313
-2,-1,-8,-24,-7,0,-1,-1,2021-08-06 13:48:59,052843
-3,-5,-10,-7,9,8,2,-2,2021-08-06 13:48:59,052843
-3,-4,1,6,-3,-7,-4,-4,2021-08-06 13:48:59,052843
-3,2,-4,2,-19,-13,-4,1,2021-08-06 13:48:59,052843
2,1,4,3,1,2,1,1,2021-08-06 13:48:59,067334
1,1,12,14,6,3,0,0,2021-08-06 13:48:59,067334
0,2,5,9,-1,-1,0,-2,2021-08-06 13:48:59,083336
-1,-2,-7,-10,-7,-2,-2,-3,2021-08-06 13:48:59,083336
