EMG 1,EMG 2,EMG 3,EMG 4,EMG 5,EMG 6,EMG 7,EMG 8,Timestamp,Milliseconds
-6,-8,-4,-3,-9,-12,-8,-4,2021-08-06 14:03:53,124484
1,2,7,26,24,8,2,2,2021-08-06 14:03:53,124484
4,5,4,-3,-7,1,4,4,2021-08-06 14:03:53,124484
-1,-1,5,2,13,7,3,-1,2021-08-06 14:03:53,124484
0,-1,-8,-2,-8,-3,0,1,2021-08-06 14:03:53,124484
-5,-5,-11,-16,-33,-20,-9,-6,2021-08-06 14:03:53,124484
1,2,7,28,32,16,4,2,2021-08-06 14:03:53,124484
3,3,1,4,0,2,1,1,2021-08-06 14:03:53,125485
4,6,13,14,17,9,6,3,2021-08-06 14:03:53,125485
-3,-4,-4,-9,-11,-5,-4,-2,2021-08-06 14:03:53,125485
-2,-2,-2,1,4,-3,-3,-3,2021-08-06 14:03:53,140484
-6,-7,-8,-15,-19,-15,-9,-6,2021-08-06 14:03:53,140717
-1,-1,5,7,7,2,-2,-1,2021-08-06 14:03:53,140717
-1,-4,-5,2,-2,0,1,2,2021-08-06 14:03:53,140717
5,7,5,-9,-13,0,3,3,2021-08-06 14:03:53,155993
1,1,-3,-7,8,3,1,0,2021-08-06 14:03:53,155993
-2,0,-1,4,-3,0,-3,-3,2021-08-06 14:03:53,171994
-2,-1,0,-2,11,6,0,-2,2021-08-06 14:03:53,171994
-6,-10,-11,-24,-14,-8,-7,-7,2021-08-06 14:03:53,171994
3,6,15,34,24,9,3,4,2021-08-06 14:03:53,171994
1,-1,-8,-19,-22,-11,-4,-1,2021-08-06 14:03:53,187994
-1,-2,-5,-15,-9,-1,0,-3,2021-08-06 14:03:53,203993
-6,-7,-9,-3,-4,-7,-3,-3,2021-08-06 14:03:53,219994
4,4,8,21,21,11,7,3,2021-08-06 14:03:53,219994
-3,-2,-6,-9,-16,-11,-6,-4,2021-08-06 14:03:53,247995
4,4,10,10,31,17,9,4,2021-08-06 14:03:53,247995
-1,-1,6,16,18,13,6,0,2021-08-06 14:03:53,247995
-2,-4,-16,-20,-18,-8,-3,-2,2021-08-06 14:03:53,247995
-2,-3,-4,7,-4,-4,-3,-1,2021-08-06 14:03:53,248995
7,14,17,19,26,14,8,5,2021-08-06 14:03:53,248995
-4,-7,-4,-25,-20,-10,-6,-5,2021-08-06 14:03:53,248995
-7,-10,-24,-56,-17,-4,-4,-6,2021-08-06 14:03:53,248995
-6,-11,-17,-24,-8,-6,-4,-3,2021-08-06 14:03:53,248995
-7,-10,-16,0,-20,-17,-8,-5,2021-08-06 14:03:53,248995
5,6,12,29,7,5,3,3,2021-08-06 14:03:53,266993
12,19,35,56,43,22,12,11,2021-08-06 14:03:53,266993
6,7,10,2,-5,0,1,3,2021-08-06 14:03:53,266993
-7,-7,-7,-15,-23,-8,-5,-5,2021-08-06 14:03:53,266993
2,0,-2,8,17,8,3,1,2021-08-06 14:03:53,299043
-5,-8,-6,4,7,1,-1,-3,2021-08-06 14:03:53,299043
-2,-2,-1,-5,-6,-4,-3,-1,2021-08-06 14:03:53,299043
-5,-6,-7,-19,-26,-16,-11,-6,2021-08-06 14:03:53,299043
-4,-1,-7,-14,-19,-12,-7,-5,2021-08-06 14:03:53,314994
7,8,14,29,32,19,9,6,2021-08-06 14:03:53,314994
0,-1,4,6,10,3,1,-1,2021-08-06 14:03:53,314994
-4,-8,-10,-6,-7,-7,-5,-5,2021-08-06 14:03:53,314994
4,3,-1,-16,-21,-7,1,2,2021-08-06 14:03:53,329994
-3,-5,-4,-6,-6,-7,-6,-4,2021-08-06 14:03:53,329994
1,-2,-2,1,-7,-4,-1,-2,2021-08-06 14:03:53,329994
4,6,4,-7,-5,-1,2,3,2021-08-06 14:03:53,329994
-4,-7,-9,-5,8,3,0,-1,2021-08-06 14:03:53,360995
1,3,9,9,-1,0,0,2,2021-08-06 14:03:53,360995
-2,-2,-3,-3,1,0,0,-1,2021-08-06 14:03:53,360995
-1,-2,-7,-18,-22,-12,-6,-3,2021-08-06 14:03:53,360995
0,-2,-1,-3,-1,1,-1,0,2021-08-06 14:03:53,376993
-1,-4,-2,0,-1,2,0,-2,2021-08-06 14:03:53,376993
-1,1,2,9,14,8,3,1,2021-08-06 14:03:53,376993
3,7,8,15,24,13,6,3,2021-08-06 14:03:53,376993
-4,-2,-3,-2,-4,-9,-5,-2,2021-08-06 14:03:53,392994
-7,-9,-14,-27,-44,-26,-10,-6,2021-08-06 14:03:53,408993
5,4,9,17,27,20,10,6,2021-08-06 14:03:53,423994
3,2,4,23,19,11,5,1,2021-08-06 14:03:53,423994
-4,-4,-5,-12,-10,-5,-4,-3,2021-08-06 14:03:53,423994
-9,-10,-11,-27,-29,-22,-12,-8,2021-08-06 14:03:53,423994
6,5,5,-2,-6,3,3,3,2021-08-06 14:03:53,423994
1,1,3,7,26,13,6,2,2021-08-06 14:03:53,423994
-4,-5,-5,6,9,3,0,-3,2021-08-06 14:03:53,439993
1,3,3,-3,-11,-7,-4,0,2021-08-06 14:03:53,455994
-6,-6,-9,-26,-42,-28,-11,-6,2021-08-06 14:03:53,471993
4,5,7,18,23,16,7,5,2021-08-06 14:03:53,471993
4,4,3,5,3,2,3,2,2021-08-06 14:03:53,471993
-2,-5,-2,4,5,3,-1,-4,2021-08-06 14:03:53,471993
-2,-3,-2,1,1,-1,-2,-3,2021-08-06 14:03:53,471993
-8,-10,-10,-26,-38,-23,-13,-7,2021-08-06 14:03:53,471993
-6,-10,-10,-12,-15,-11,-7,-4,2021-08-06 14:03:53,471993
4,8,6,7,11,8,5,4,2021-08-06 14:03:53,472995
-2,-1,-2,-10,-3,0,-1,-3,2021-08-06 14:03:53,472995
-2,-2,-2,4,3,0,1,-1,2021-08-06 14:03:53,472995
-3,-1,-2,-6,-18,-9,-4,-4,2021-08-06 14:03:53,502994
-1,-1,-2,6,4,0,0,-2,2021-08-06 14:03:53,518995
0,-1,0,13,17,8,4,0,2021-08-06 14:03:53,518995
0,-1,1,-4,-6,-3,-1,0,2021-08-06 14:03:53,518995
0,0,2,2,7,2,-1,1,2021-08-06 14:03:53,518995
-4,-4,-3,-7,-11,-7,-4,-5,2021-08-06 14:03:53,518995
-10,-10,-13,-24,-29,-21,-14,-10,2021-08-06 14:03:53,518995
4,4,9,22,35,20,12,6,2021-08-06 14:03:53,518995
6,9,7,1,-2,0,1,3,2021-08-06 14:03:53,534994
-1,-1,-4,-9,-20,-6,-5,-3,2021-08-06 14:03:53,550995
-2,-3,-3,-8,-1,-3,-2,-1,2021-08-06 14:03:53,566993
-3,-4,-3,4,1,-2,-4,-2,2021-08-06 14:03:53,566993
-2,-2,-1,18,19,11,2,-1,2021-08-06 14:03:53,566993
2,3,2,-1,7,7,4,3,2021-08-06 14:03:53,566993
-3,-4,-7,-13,-19,-8,-4,-3,2021-08-06 14:03:53,566993
-4,-6,-6,-20,-25,-16,-9,-3,2021-08-06 14:03:53,566993
6,6,11,25,37,19,8,5,2021-08-06 14:03:53,582997
1,2,7,22,12,5,2,2,2021-08-06 14:03:53,582997
3,1,0,5,6,5,2,3,2021-08-06 14:03:53,582997
-4,-4,-15,-31,-21,-9,-5,-4,2021-08-06 14:03:53,582997
-9,-12,-13,-28,-31,-20,-11,-8,2021-08-06 14:03:53,594994
1,-1,-1,-2,-1,0,-1,0,2021-08-06 14:03:53,595995
7,10,15,20,20,9,7,5,2021-08-06 14:03:53,595995
-2,0,2,3,-4,-6,-3,-2,2021-08-06 14:03:53,595995
-1,2,1,-2,-5,-1,0,1,2021-08-06 14:03:53,614995
-4,-7,-10,-16,-16,-11,-3,-3,2021-08-06 14:03:53,630995
5,6,9,27,43,23,9,5,2021-08-06 14:03:53,646998
1,1,-2,-8,-12,-5,-3,0,2021-08-06 14:03:53,646998
2,3,5,19,30,18,6,3,2021-08-06 14:03:53,646998
-1,-1,-1,2,6,2,-1,-1,2021-08-06 14:03:53,646998
-8,-10,-14,-26,-34,-22,-12,-8,2021-08-06 14:03:53,646998
5,7,6,18,22,17,8,5,2021-08-06 14:03:53,646998
-2,-4,-4,-12,-20,-12,-4,-4,2021-08-06 14:03:53,646998
3,4,4,4,7,5,3,2,2021-08-06 14:03:53,647995
0,1,3,8,19,10,4,3,2021-08-06 14:03:53,647995
-6,-6,-2,-4,-16,-10,-6,-5,2021-08-06 14:03:53,647995
0,2,-1,-8,-4,-3,-2,-1,2021-08-06 14:03:53,678993
-1,-2,-5,-9,-3,1,0,0,2021-08-06 14:03:53,694994
-4,-3,-2,-3,-16,-11,-5,-4,2021-08-06 14:03:53,710994
-4,-6,-7,-10,-16,-10,-5,-3,2021-08-06 14:03:53,710994
6,5,1,4,27,16,8,5,2021-08-06 14:03:53,710994
-7,-10,-10,-28,-25,-11,-6,-5,2021-08-06 14:03:53,710994
-2,-2,-3,-8,-6,-8,-2,-3,2021-08-06 14:03:53,710994
3,3,8,31,28,17,6,2,2021-08-06 14:03:53,710994
2,3,3,11,-4,-7,-2,0,2021-08-06 14:03:53,710994
3,5,6,17,3,2,2,0,2021-08-06 14:03:53,711996
0,-2,-3,-6,-5,-1,-3,-2,2021-08-06 14:03:53,711996
-5,-7,-9,-21,-18,-14,-8,-7,2021-08-06 14:03:53,711996
-1,-2,-4,-7,-5,0,-1,-2,2021-08-06 14:03:53,742995
0,3,2,8,15,4,2,0,2021-08-06 14:03:53,742995
-1,1,1,1,-2,1,0,1,2021-08-06 14:03:53,742995
-5,-7,-7,-9,-9,-8,-4,-5,2021-08-06 14:03:53,742995
0,1,3,-1,1,1,1,-1,2021-08-06 14:03:53,758993
-2,-4,-5,-2,-7,-5,-3,-1,2021-08-06 14:03:53,774994
0,2,2,10,19,12,1,0,2021-08-06 14:03:53,789993
1,-1,-3,-9,-13,-3,-3,-2,2021-08-06 14:03:53,804993
-6,-8,-9,-13,-9,-9,-5,-3,2021-08-06 14:03:53,819993
7,7,16,36,33,18,9,7,2021-08-06 14:03:53,819993
5,5,16,37,25,12,5,2,2021-08-06 14:03:53,819993
0,-1,-12,-27,-32,-14,-5,-1,2021-08-06 14:03:53,819993
-7,-8,-7,-31,14,3,-1,-3,2021-08-06 14:03:53,819993
-9,-11,-15,-30,-28,-18,-10,-6,2021-08-06 14:03:53,819993
-5,-9,-19,1,3,1,-1,-2,2021-08-06 14:03:53,819993
5,11,23,32,20,9,7,4,2021-08-06 14:03:53,820994
7,7,7,24,13,8,6,3,2021-08-06 14:03:53,820994
1,2,6,0,4,3,0,-1,2021-08-06 14:03:53,820994
-3,-4,-1,-11,-13,-11,-8,-3,2021-08-06 14:03:53,820994
-1,-1,-5,-3,-5,-3,-1,1,2021-08-06 14:03:53,820994
0,-2,-1,-5,-13,-3,-3,-3,2021-08-06 14:03:53,835995
2,1,2,15,31,14,6,3,2021-08-06 14:03:53,835995
2,3,2,-6,-14,-4,-1,0,2021-08-06 14:03:53,851995
-3,-6,-7,-8,-2,-2,-3,-2,2021-08-06 14:03:53,867995
-1,-1,4,4,-6,-4,-3,-2,2021-08-06 14:03:53,882997
-1,-2,-2,7,8,2,1,0,2021-08-06 14:03:53,882997
-3,-4,-9,-21,-10,-7,-3,-4,2021-08-06 14:03:53,882997
-11,-15,-16,-37,-30,-22,-12,-9,2021-08-06 14:03:53,882997
7,12,14,23,14,9,7,5,2021-08-06 14:03:53,898995
2,0,1,11,15,9,3,0,2021-08-06 14:03:53,914993
6,8,8,9,13,9,8,7,2021-08-06 14:03:53,930995
-8,-8,-8,-9,-17,-13,-11,-9,2021-08-06 14:03:53,946995
-5,-7,-8,-17,-20,-5,-3,-2,2021-08-06 14:03:53,946995
6,9,10,23,32,13,4,2,2021-08-06 14:03:53,946995
-1,-2,1,0,-1,0,1,-1,2021-08-06 14:03:53,946995
5,5,5,13,17,9,4,4,2021-08-06 14:03:53,946995
-10,-10,-16,-26,-38,-24,-12,-8,2021-08-06 14:03:53,946995
-2,-3,-5,-18,-24,-9,-5,-3,2021-08-06 14:03:53,946995
1,1,2,6,16,7,3,1,2021-08-06 14:03:53,947996
0,1,-1,-2,-2,-2,-1,-1,2021-08-06 14:03:53,947996
2,1,2,9,6,4,1,2,2021-08-06 14:03:53,947996
-3,-3,-3,-5,-3,-3,-1,-1,2021-08-06 14:03:53,947996
-4,-6,-5,-7,-11,-6,-4,-3,2021-08-06 14:03:53,947996
5,5,8,11,10,8,5,6,2021-08-06 14:03:53,947996
-3,-2,-5,-13,-21,-13,-5,-3,2021-08-06 14:03:53,949993
-1,0,2,12,17,8,3,-1,2021-08-06 14:03:53,949993
-4,-5,-6,-10,-10,-5,-3,-4,2021-08-06 14:03:53,949993
4,7,7,8,7,7,3,4,2021-08-06 14:03:53,949993
6,8,6,8,16,11,7,5,2021-08-06 14:03:53,978993
-4,-7,-8,-15,-22,-12,-8,-5,2021-08-06 14:03:53,994994
-3,-3,-1,-1,-2,-2,-2,-2,2021-08-06 14:03:54,010993
-3,-3,-4,-3,-6,-7,-3,-2,2021-08-06 14:03:54,026994
0,1,2,12,20,12,4,1,2021-08-06 14:03:54,042993
-1,-1,-4,-6,-8,-3,-2,-1,2021-08-06 14:03:54,042993
0,1,2,5,7,5,2,1,2021-08-06 14:03:54,042993
0,0,-1,0,4,1,2,1,2021-08-06 14:03:54,042993
-2,-4,-6,-11,-17,-11,-6,-3,2021-08-06 14:03:54,042993
-1,-1,-2,-3,-1,0,-1,1,2021-08-06 14:03:54,042993
-4,-3,-4,-7,-15,-10,-6,-3,2021-08-06 14:03:54,042993
1,-1,-4,-9,-9,-7,-3,-3,2021-08-06 14:03:54,043995
4,7,10,27,36,20,8,6,2021-08-06 14:03:54,043995
2,2,2,4,7,2,1,2,2021-08-06 14:03:54,043995
-8,-7,-7,-18,-26,-15,-9,-8,2021-08-06 14:03:54,043995
3,3,6,10,8,9,6,6,2021-08-06 14:03:54,043995
-1,-2,-4,-6,-14,-10,-7,-3,2021-08-06 14:03:54,058994
1,1,2,7,9,6,4,3,2021-08-06 14:03:54,058994
2,2,2,1,3,1,0,1,2021-08-06 14:03:54,058994
-5,-7,-8,-9,-6,-5,-3,-5,2021-08-06 14:03:54,058994
-7,-8,-6,-8,-9,-7,-6,-5,2021-08-06 14:03:54,074995
-3,-4,-5,-17,-26,-15,-6,-3,2021-08-06 14:03:54,090993
2,3,1,-1,1,0,1,1,2021-08-06 14:03:54,090993
1,6,8,17,21,15,6,3,2021-08-06 14:03:54,090993
0,-1,-2,-1,-3,-3,-2,0,2021-08-06 14:03:54,090993
-2,-3,-6,-6,-8,-4,-1,-2,2021-08-06 14:03:54,090993
0,-3,-2,3,0,0,0,2,2021-08-06 14:03:54,090993
6,5,6,6,13,9,4,4,2021-08-06 14:03:54,091995
-2,1,-1,-5,-12,-7,-3,-1,2021-08-06 14:03:54,122994
0,-1,-1,-3,2,2,2,-1,2021-08-06 14:03:54,138995
2,3,0,-1,-4,-4,0,-1,2021-08-06 14:03:54,154993
-1,0,0,4,9,7,0,-1,2021-08-06 14:03:54,170993
-4,-8,-6,-6,-3,-3,-3,-5,2021-08-06 14:03:54,186993
-1,-2,-2,-9,-19,-11,-4,-2,2021-08-06 14:03:54,186993
2,2,0,-1,7,3,1,3,2021-08-06 14:03:54,186993
3,2,5,20,43,23,12,6,2021-08-06 14:03:54,186993
-2,-3,-6,-3,2,-1,0,-2,2021-08-06 14:03:54,186993
-3,-4,1,-9,-15,-9,-4,-4,2021-08-06 14:03:54,186993
-4,-2,0,3,-2,2,-2,-2,2021-08-06 14:03:54,186993
-4,-3,-4,-8,-12,-8,-6,-4,2021-08-06 14:03:54,186993
0,0,4,14,23,10,4,0,2021-08-06 14:03:54,202995
4,1,2,2,5,2,-1,0,2021-08-06 14:03:54,202995
0,0,-1,-6,-15,-8,-2,-2,2021-08-06 14:03:54,202995
-1,-2,-4,-5,-5,-3,-2,-3,2021-08-06 14:03:54,202995
-2,-4,-3,-4,-8,-5,-2,-2,2021-08-06 14:03:54,218994
-2,-3,-7,-11,-15,-9,-4,0,2021-08-06 14:03:54,234994
1,1,0,3,10,2,2,0,2021-08-06 14:03:54,234994
-1,-2,-1,1,-2,-1,0,-1,2021-08-06 14:03:54,234994
0,0,1,-3,-1,-1,-2,-3,2021-08-06 14:03:54,234994
-1,1,1,7,8,7,1,1,2021-08-06 14:03:54,234994
1,4,2,8,10,6,2,1,2021-08-06 14:03:54,234994
-5,-3,-7,-9,-12,-9,-4,-4,2021-08-06 14:03:54,234994
-2,-3,-1,-6,-11,-6,-2,-1,2021-08-06 14:03:54,234994
-2,-1,0,2,8,1,0,-2,2021-08-06 14:03:54,234994
-5,-7,-1,-3,1,-2,-3,-3,2021-08-06 14:03:54,234994
-1,-1,-5,-10,-17,-9,-3,-1,2021-08-06 14:03:54,234994
5,6,7,10,15,8,2,3,2021-08-06 14:03:54,266993
-4,-2,-2,-2,-1,-1,-1,-2,2021-08-06 14:03:54,266993
-2,-2,-4,-7,-6,-6,-2,0,2021-08-06 14:03:54,266993
-6,-9,-7,-1,-8,-7,-4,-6,2021-08-06 14:03:54,266993
3,4,2,0,2,4,2,3,2021-08-06 14:03:54,266993
1,0,0,4,9,5,3,2,2021-08-06 14:03:54,266993
-2,-2,-1,-3,-9,-4,-3,-3,2021-08-06 14:03:54,282997
2,4,5,4,10,6,3,2,2021-08-06 14:03:54,282997
-6,-5,-5,-5,-10,-7,-4,-4,2021-08-06 14:03:54,298997
1,0,1,3,6,5,0,0,2021-08-06 14:03:54,298997
-3,-3,-6,-6,-12,-6,-2,-2,2021-08-06 14:03:54,298997
-2,-1,0,-5,-8,-6,-3,-1,2021-08-06 14:03:54,298997
2,1,0,5,12,6,2,1,2021-08-06 14:03:54,316994
1,1,0,1,-1,-2,0,-1,2021-08-06 14:03:54,316994
0,2,0,4,4,2,-1,1,2021-08-06 14:03:54,317999
1,0,1,-1,0,-1,-2,1,2021-08-06 14:03:54,317999
-2,-4,-2,-8,-11,-7,-4,-3,2021-08-06 14:03:54,330995
-2,0,1,0,0,0,0,-1,2021-08-06 14:03:54,330995
4,6,6,19,23,12,5,3,2021-08-06 14:03:54,346994
-2,0,1,-1,0,2,0,0,2021-08-06 14:03:54,346994
-6,-10,-19,-23,-29,-18,-7,-4,2021-08-06 14:03:54,362994
-9,-10,-12,-18,-18,-13,-7,-5,2021-08-06 14:03:54,362994
1,2,6,10,9,5,3,0,2021-08-06 14:03:54,362994
1,4,10,13,14,9,2,2,2021-08-06 14:03:54,362994
-1,-1,0,0,0,2,2,-1,2021-08-06 14:03:54,378993
-6,-8,-15,-18,-28,-17,-9,-7,2021-08-06 14:03:54,378993
4,3,3,7,19,13,7,4,2021-08-06 14:03:54,378993
-3,-4,-4,4,17,6,-1,-3,2021-08-06 14:03:54,378993
5,9,15,16,-1,-3,-1,2,2021-08-06 14:03:54,394997
9,13,19,36,34,19,12,7,2021-08-06 14:03:54,394997
-4,-5,-12,-19,-21,-11,-6,-3,2021-08-06 14:03:54,394997
0,-3,-12,-35,-24,-11,-3,0,2021-08-06 14:03:54,394997
-11,-11,-10,-26,-28,-18,-10,-9,2021-08-06 14:03:54,426994
-1,-6,-12,-10,-5,-3,-3,1,2021-08-06 14:03:54,442993
2,1,9,21,17,9,3,1,2021-08-06 14:03:54,458994
8,19,42,41,27,16,6,4,2021-08-06 14:03:54,458994
3,-2,-10,10,19,12,5,3,2021-08-06 14:03:54,458994
-7,-20,-43,-32,-32,-17,-6,-7,2021-08-06 14:03:54,458994
-7,-11,-13,-31,-31,-21,-9,-5,2021-08-06 14:03:54,458994
-5,-8,-13,-12,-15,-11,-7,-5,2021-08-06 14:03:54,458994
0,7,17,8,4,1,-2,0,2021-08-06 14:03:54,458994
6,12,25,23,25,16,5,3,2021-08-06 14:03:54,459996
4,3,4,10,16,7,4,3,2021-08-06 14:03:54,459996
-1,-3,-5,-6,-12,-7,-2,-3,2021-08-06 14:03:54,459996
-2,1,2,-1,-11,-6,0,1,2021-08-06 14:03:54,474994
1,0,-2,5,5,2,1,3,2021-08-06 14:03:54,474994
-3,-2,-3,-6,2,0,-1,-4,2021-08-06 14:03:54,474994
-2,2,5,-6,-11,-8,-5,-1,2021-08-06 14:03:54,474994
1,0,2,1,-2,0,0,1,2021-08-06 14:03:54,505993
-6,-10,-26,-32,-26,-15,-8,-5,2021-08-06 14:03:54,521995
-1,0,6,19,26,9,2,0,2021-08-06 14:03:54,521995
-1,-5,-12,-5,-12,-5,-4,-3,2021-08-06 14:03:54,521995
2,3,5,19,28,17,7,3,2021-08-06 14:03:54,521995
4,12,25,13,5,-1,1,1,2021-08-06 14:03:54,521995
-2,-4,-13,-12,-16,-9,-6,-4,2021-08-06 14:03:54,521995
-5,-6,-14,-15,-5,-5,-2,-2,2021-08-06 14:03:54,521995
1,1,0,-8,-9,-4,-2,-1,2021-08-06 14:03:54,537995
2,4,12,14,13,8,2,2,2021-08-06 14:03:54,552995
-2,-4,-6,-9,-9,-6,-3,-2,2021-08-06 14:03:54,568996
-4,-1,6,5,-6,-4,-3,-2,2021-08-06 14:03:54,568996
1,1,-1,8,10,6,1,-1,2021-08-06 14:03:54,568996
-6,-6,-3,4,10,4,-1,-5,2021-08-06 14:03:54,568996
12,13,17,19,17,14,10,11,2021-08-06 14:03:54,568996
-2,-8,-13,-8,-8,-7,-2,-3,2021-08-06 14:03:54,568996
-3,-1,2,-7,-2,-1,1,-1,2021-08-06 14:03:54,584995
-4,-1,-9,-21,-25,-17,-9,-3,2021-08-06 14:03:54,600995
-4,-4,-5,-14,-9,-4,-2,-3,2021-08-06 14:03:54,616993
2,-2,0,2,5,2,1,1,2021-08-06 14:03:54,616993
1,-2,-18,11,11,4,0,-1,2021-08-06 14:03:54,616993
1,1,19,23,12,8,1,-2,2021-08-06 14:03:54,616993
-2,-1,1,-16,-12,-4,-2,-2,2021-08-06 14:03:54,616993
2,-2,-7,7,26,15,4,2,2021-08-06 14:03:54,617995
-3,-2,4,2,5,-1,-2,-3,2021-08-06 14:03:54,617995
-2,2,0,2,4,-2,-1,-4,2021-08-06 14:03:54,617995
-1,-1,3,5,-8,-5,-2,0,2021-08-06 14:03:54,617995
-6,-6,-8,-17,-29,-20,-8,-7,2021-08-06 14:03:54,617995
0,-1,-3,-9,-6,-4,-1,0,2021-08-06 14:03:54,648995
0,2,6,9,11,7,2,1,2021-08-06 14:03:54,664993
3,4,3,7,17,11,5,1,2021-08-06 14:03:54,679994
-4,-7,-13,-20,-28,-16,-6,-5,2021-08-06 14:03:54,679994
-6,-6,-7,-18,-32,-18,-9,-4,2021-08-06 14:03:54,680996
3,2,5,2,4,3,2,1,2021-08-06 14:03:54,680996
-3,0,-1,6,4,2,-3,-1,2021-08-06 14:03:54,680996
2,5,8,19,29,17,6,3,2021-08-06 14:03:54,680996
2,1,4,9,15,11,4,1,2021-08-06 14:03:54,681995
0,-1,-4,-6,-3,-2,0,0,2021-08-06 14:03:54,681995
-2,-2,-5,-10,-15,-9,-3,-1,2021-08-06 14:03:54,681995
-3,-4,-2,-4,-12,-10,-7,-3,2021-08-06 14:03:54,681995
1,-1,1,7,6,1,0,0,2021-08-06 14:03:54,711995
-1,-1,-4,-4,3,5,-1,1,2021-08-06 14:03:54,727993
-4,-7,-12,-25,-20,-11,-6,-5,2021-08-06 14:03:54,743994
1,4,9,4,0,-1,1,1,2021-08-06 14:03:54,743994
-4,-6,-8,3,5,1,2,-1,2021-08-06 14:03:54,743994
5,11,12,19,7,2,2,3,2021-08-06 14:03:54,743994
0,1,8,22,9,4,1,-2,2021-08-06 14:03:54,743994
2,-2,-13,-18,7,8,1,1,2021-08-06 14:03:54,743994
-4,-6,-8,-23,-10,-6,-4,-4,2021-08-06 14:03:54,743994
-3,-4,-4,-6,-9,-8,-3,-2,2021-08-06 14:03:54,743994
1,3,4,6,-5,-4,-2,-1,2021-08-06 14:03:54,743994
2,4,9,23,17,8,5,2,2021-08-06 14:03:54,743994
-3,-1,-2,-7,-12,-11,-8,-2,2021-08-06 14:03:54,759995
-5,-10,-12,-31,-45,-27,-12,-6,2021-08-06 14:03:54,759995
5,7,11,33,49,31,12,7,2021-08-06 14:03:54,759995
1,3,5,21,30,17,8,1,2021-08-06 14:03:54,759995
0,0,-4,-10,-4,3,2,1,2021-08-06 14:03:54,775995
-3,-2,0,-4,-4,-4,-2,-1,2021-08-06 14:03:54,791994
-3,-5,-7,-9,-13,-9,-6,-3,2021-08-06 14:03:54,807993
0,-2,-5,-7,-9,-2,0,1,2021-08-06 14:03:54,823993
-4,-4,-5,-17,-19,-18,-7,-6,2021-08-06 14:03:54,823993
-2,-1,-6,-8,-7,-3,-1,-2,2021-08-06 14:03:54,823993
-5,-5,-7,-8,-8,-5,-4,-4,2021-08-06 14:03:54,823993
3,5,12,24,25,14,6,3,2021-08-06 14:03:54,823993
4,4,8,14,10,7,3,2,2021-08-06 14:03:54,823993
-1,-2,-6,-9,-5,-3,-1,-2,2021-08-06 14:03:54,823993
-3,-5,-10,-14,-19,-12,-5,-2,2021-08-06 14:03:54,824996
-2,-3,-1,-1,-7,-6,-4,-1,2021-08-06 14:03:54,824996
2,2,3,9,4,3,1,0,2021-08-06 14:03:54,839993
1,1,5,3,14,9,2,1,2021-08-06 14:03:54,839993
0,1,1,-2,4,2,1,-1,2021-08-06 14:03:54,839993
-4,-3,-7,-13,-16,-12,-6,-3,2021-08-06 14:03:54,839993
4,3,1,3,3,3,2,3,2021-08-06 14:03:54,870993
-2,-1,-1,6,7,4,1,0,2021-08-06 14:03:54,870993
-2,-4,-1,-3,-3,-4,-2,-2,2021-08-06 14:03:54,870993
-3,-2,-3,-7,-10,-5,-4,-3,2021-08-06 14:03:54,870993
-2,0,0,-2,0,1,-1,-3,2021-08-06 14:03:54,885994
-1,-3,-3,1,3,-1,0,-1,2021-08-06 14:03:54,901994
-2,-2,-2,-6,-8,-5,-2,-1,2021-08-06 14:03:54,901994
-1,-1,0,2,-1,-1,0,-1,2021-08-06 14:03:54,901994
0,1,0,1,4,1,0,0,2021-08-06 14:03:54,917994
-2,-4,-5,-9,-11,-5,-4,-1,2021-08-06 14:03:54,917994
1,1,3,10,14,7,2,0,2021-08-06 14:03:54,917994
-1,-1,1,-3,-1,-1,-2,-1,2021-08-06 14:03:54,917994
-2,-1,-2,-1,-6,-4,-2,-1,2021-08-06 14:03:54,932994
-2,-4,-3,-2,0,-2,-3,-3,2021-08-06 14:03:54,932994
3,2,1,-3,-8,-2,2,1,2021-08-06 14:03:54,932994
-3,-3,-5,-12,-13,-11,-7,-4,2021-08-06 14:03:54,932994
3,4,7,12,13,10,5,4,2021-08-06 14:03:54,932994
2,4,4,14,22,14,4,0,2021-08-06 14:03:54,933996
-3,-2,-4,-7,-10,-6,-4,-3,2021-08-06 14:03:54,948995
-1,-2,-4,-3,-7,-4,-1,-2,2021-08-06 14:03:54,948995
-5,-7,-6,-10,-15,-9,-6,-4,2021-08-06 14:03:54,948995
2,0,2,1,-2,-1,-2,0,2021-08-06 14:03:54,948995
2,2,1,0,2,1,-1,0,2021-08-06 14:03:54,948995
-1,-1,-1,-3,-6,-4,-2,-1,2021-08-06 14:03:54,948995
-3,-2,-2,-3,1,0,-2,-3,2021-08-06 14:03:54,979995
0,-1,-1,2,4,3,1,1,2021-08-06 14:03:54,979995
-1,-2,-4,-4,-5,-3,-2,-1,2021-08-06 14:03:54,995994
-1,-1,1,1,1,0,1,-1,2021-08-06 14:03:54,995994
-1,-1,-1,0,0,0,-1,-1,2021-08-06 14:03:54,995994
1,2,0,1,0,-1,1,-1,2021-08-06 14:03:54,995994
-4,-3,-3,-5,-9,-6,-5,-1,2021-08-06 14:03:54,995994
2,2,2,2,3,2,1,0,2021-08-06 14:03:54,995994
1,0,-2,0,4,3,4,2,2021-08-06 14:03:55,027994
-1,-1,-2,-4,-3,0,-1,0,2021-08-06 14:03:55,043994
-1,-1,-1,-1,1,-1,0,-1,2021-08-06 14:03:55,043994
-1,0,0,1,-2,1,-1,-1,2021-08-06 14:03:55,043994
-3,-3,-1,-1,-1,-2,-2,-1,2021-08-06 14:03:55,043994
-3,-2,0,-3,-4,-5,-3,-3,2021-08-06 14:03:55,043994
0,1,0,2,4,1,0,0,2021-08-06 14:03:55,043994
-1,-3,-3,-8,-11,-8,-4,-2,2021-08-06 14:03:55,043994
3,5,3,4,5,4,2,1,2021-08-06 14:03:55,060022
-4,-3,-4,-7,-12,-8,-5,-3,2021-08-06 14:03:55,060022
2,0,1,2,1,5,4,1,2021-08-06 14:03:55,060022
3,3,6,17,28,14,5,3,2021-08-06 14:03:55,060022
-1,-2,-3,-2,-7,-5,-4,-2,2021-08-06 14:03:55,076022
-1,-1,0,-3,-2,0,-1,-1,2021-08-06 14:03:55,076022
-4,-4,-3,-10,-17,-13,-7,-5,2021-08-06 14:03:55,076022
-3,-4,-4,-9,-12,-8,-5,-1,2021-08-06 14:03:55,076022
2,3,6,7,12,7,3,0,2021-08-06 14:03:55,105994
-2,0,2,3,3,3,0,0,2021-08-06 14:03:55,121993
-2,-2,-5,-1,1,0,-1,-2,2021-08-06 14:03:55,121993
-1,0,-1,0,-1,1,2,1,2021-08-06 14:03:55,121993
-5,-4,-5,-7,-10,-7,-4,-3,2021-08-06 14:03:55,121993
0,2,2,4,2,3,1,-1,2021-08-06 14:03:55,121993
0,-2,2,2,4,2,-1,2,2021-08-06 14:03:55,121993
-1,1,-3,-3,-4,-1,-1,0,2021-08-06 14:03:55,121993
3,2,1,1,1,-1,0,0,2021-08-06 14:03:55,137995
1,0,0,0,0,-2,0,-1,2021-08-06 14:03:55,137995
-1,0,1,1,2,1,0,-2,2021-08-06 14:03:55,137995
0,0,-1,-2,-3,-2,-1,-1,2021-08-06 14:03:55,137995
-4,-4,-4,-4,-6,-4,-3,-3,2021-08-06 14:03:55,168993
0,-1,-2,0,2,0,0,0,2021-08-06 14:03:55,184994
2,1,-2,-1,-1,0,0,-1,2021-08-06 14:03:55,200994
0,0,1,4,4,2,3,-1,2021-08-06 14:03:55,200994
-1,-1,-1,0,-2,-2,1,-1,2021-08-06 14:03:55,200994
-1,-2,-3,-1,-1,-2,-1,-2,2021-08-06 14:03:55,200994
-2,-3,-1,0,-4,-3,-3,-4,2021-08-06 14:03:55,200994
-1,-2,-2,-4,-5,-2,-4,0,2021-08-06 14:03:55,200994
2,1,2,2,7,5,3,1,2021-08-06 14:03:55,201995
-1,-2,-3,0,2,0,0,0,2021-08-06 14:03:55,201995
-2,0,-1,-3,-2,-2,1,0,2021-08-06 14:03:55,201995
0,-2,0,1,3,0,0,-2,2021-08-06 14:03:55,201995
-1,-1,-1,0,1,-1,-2,0,2021-08-06 14:03:55,231994
1,-1,-1,-2,-3,-1,1,0,2021-08-06 14:03:55,231994
3,1,1,3,2,0,0,1,2021-08-06 14:03:55,231994
-1,-2,-3,-4,-3,-3,-1,-2,2021-08-06 14:03:55,231994
-2,-3,-6,-6,-7,-5,-2,-1,2021-08-06 14:03:55,247995
-1,0,0,0,-1,0,-1,-1,2021-08-06 14:03:55,247995
-5,-3,-2,-3,-5,-2,-3,-1,2021-08-06 14:03:55,247995
1,0,1,0,-3,0,1,0,2021-08-06 14:03:55,247995
-2,-1,-1,2,3,1,0,-1,2021-08-06 14:03:55,247995
-1,0,-1,0,-3,1,0,2,2021-08-06 14:03:55,247995
0,0,2,0,4,4,1,-1,2021-08-06 14:03:55,263995
-3,-1,-4,-5,-8,-4,-4,-4,2021-08-06 14:03:55,263995
-3,-2,-4,-3,-3,-2,-2,-2,2021-08-06 14:03:55,279995
2,1,1,2,1,0,0,0,2021-08-06 14:03:55,279995
-1,-2,-2,-1,-3,-2,-2,-1,2021-08-06 14:03:55,279995
-2,1,0,1,0,1,1,0,2021-08-06 14:03:55,279995
-3,-5,-3,-2,-4,-2,-3,-2,2021-08-06 14:03:55,311995
-1,0,-1,1,-2,-3,-1,-2,2021-08-06 14:03:55,327993
1,2,1,-3,0,-1,2,0,2021-08-06 14:03:55,343994
1,2,3,5,9,4,1,0,2021-08-06 14:03:55,359994
0,-1,-4,-2,-1,-1,0,1,2021-08-06 14:03:55,374994
-3,-5,-3,-4,-4,-1,-2,-3,2021-08-06 14:03:55,374994
-1,-1,-1,3,1,-1,-1,-1,2021-08-06 14:03:55,374994
-2,0,-2,-1,3,2,0,1,2021-08-06 14:03:55,374994
1,1,2,-1,0,-1,1,-1,2021-08-06 14:03:55,374994
0,-1,-3,-5,-5,-4,-2,-1,2021-08-06 14:03:55,374994
-3,1,1,-1,-3,-2,-1,-1,2021-08-06 14:03:55,375996
0,0,-1,-5,-12,-9,-4,-2,2021-08-06 14:03:55,375996
0,1,0,-4,-4,0,2,2,2021-08-06 14:03:55,375996
-1,-1,0,6,10,6,1,0,2021-08-06 14:03:55,375996
-3,-3,-5,-1,-3,-3,-5,-2,2021-08-06 14:03:55,375996
0,0,1,2,3,1,0,0,2021-08-06 14:03:55,375996
-1,-2,-2,-7,-6,-1,0,-2,2021-08-06 14:03:55,375996
-2,-1,1,-1,-6,-1,-1,-1,2021-08-06 14:03:55,375996
1,-1,0,-1,3,0,-1,-2,2021-08-06 14:03:55,376995
0,0,0,0,1,3,2,1,2021-08-06 14:03:55,376995
3,0,-1,0,-6,-5,-2,-1,2021-08-06 14:03:55,406993
-2,-1,-3,-2,-4,-3,-2,-1,2021-08-06 14:03:55,408994
-2,-6,-5,-7,-7,-4,-4,-3,2021-08-06 14:03:55,408994
4,3,2,-2,-5,-1,-1,1,2021-08-06 14:03:55,408994
1,2,3,2,-1,-2,0,-1,2021-08-06 14:03:55,422993
1,1,2,1,5,3,2,2,2021-08-06 14:03:55,438993
1,0,0,-1,5,4,1,-1,2021-08-06 14:03:55,454995
-2,-4,-3,2,3,0,1,-1,2021-08-06 14:03:55,454995
-2,-2,0,2,1,-1,-2,0,2021-08-06 14:03:55,454995
-1,-1,0,-2,-6,-4,-4,0,2021-08-06 14:03:55,454995
0,0,-1,2,2,1,1,0,2021-08-06 14:03:55,454995
-1,-3,-4,-4,-2,0,-1,-1,2021-08-06 14:03:55,454995
2,1,3,6,8,7,3,3,2021-08-06 14:03:55,454995
-1,0,-3,-2,-3,-4,-1,-2,2021-08-06 14:03:55,454995
0,0,-1,0,-3,-3,-1,-1,2021-08-06 14:03:55,454995
-1,-3,-4,-8,-14,-8,-4,-4,2021-08-06 14:03:55,455995
-1,0,0,6,10,6,-1,1,2021-08-06 14:03:55,486993
0,-2,-1,-2,4,3,0,0,2021-08-06 14:03:55,502993
0,0,-1,3,5,3,2,0,2021-08-06 14:03:55,518995
0,1,2,1,-1,-1,-1,-1,2021-08-06 14:03:55,518995
-2,-2,-4,-6,-8,-6,-4,-2,2021-08-06 14:03:55,518995
0,-1,-1,0,0,-1,-1,-1,2021-08-06 14:03:55,518995
-2,1,-1,-2,-2,-3,-1,-2,2021-08-06 14:03:55,518995
-5,-5,-3,-2,-2,-3,-2,-2,2021-08-06 14:03:55,518995
-2,-1,-2,-1,-1,-1,-1,-3,2021-08-06 14:03:55,518995
0,-1,0,-1,1,1,0,0,2021-08-06 14:03:55,519995
-1,0,-1,-2,-3,-2,0,0,2021-08-06 14:03:55,519995
1,-1,1,3,3,2,-3,-1,2021-08-06 14:03:55,519995
-3,-1,-2,-3,-2,-2,-1,0,2021-08-06 14:03:55,550996
-2,0,0,0,0,-1,-1,0,2021-08-06 14:03:55,550996
1,-2,0,0,0,-1,0,0,2021-08-06 14:03:55,550996
-2,-1,-1,2,3,1,0,0,2021-08-06 14:03:55,550996
0,-3,0,-4,-2,-2,-2,-3,2021-08-06 14:03:55,566993
-2,-2,-5,-6,-8,-4,-4,-3,2021-08-06 14:03:55,566993
-1,1,3,3,5,3,1,1,2021-08-06 14:03:55,566993
0,1,1,2,-1,-1,0,0,2021-08-06 14:03:55,566993
0,0,0,3,4,1,1,0,2021-08-06 14:03:55,582995
0,-2,-1,0,-1,0,1,0,2021-08-06 14:03:55,582995
1,-1,0,-2,-1,-1,1,0,2021-08-06 14:03:55,598994
-2,-3,-5,-4,-2,-3,0,0,2021-08-06 14:03:55,598994
-1,1,0,-1,-1,-1,-1,-1,2021-08-06 14:03:55,598994
-2,-2,0,-1,-2,-2,-3,-3,2021-08-06 14:03:55,598994
1,0,0,0,0,0,0,1,2021-08-06 14:03:55,598994
-2,-1,0,0,0,1,-1,-2,2021-08-06 14:03:55,598994
-1,0,-3,-2,-4,-3,-2,0,2021-08-06 14:03:55,630994
-1,0,2,-1,-1,-1,0,0,2021-08-06 14:03:55,646995
-3,-3,-6,-6,-10,-6,-4,-5,2021-08-06 14:03:55,662997
1,-2,0,2,6,2,1,0,2021-08-06 14:03:55,678993
4,6,7,10,14,9,4,3,2021-08-06 14:03:55,678993
-1,-1,-3,0,-2,-1,-1,-1,2021-08-06 14:03:55,678993
-1,-2,-2,0,-2,-2,0,0,2021-08-06 14:03:55,678993
-1,-2,0,-3,-8,-5,-1,-3,2021-08-06 14:03:55,678993
-3,-6,-4,-4,-3,-2,0,-3,2021-08-06 14:03:55,678993
2,2,0,3,3,1,2,1,2021-08-06 14:03:55,678993
-3,-1,0,-1,-1,-1,-3,1,2021-08-06 14:03:55,678993
0,1,1,3,4,2,0,1,2021-08-06 14:03:55,678993
-4,-4,-6,-6,-11,-6,-4,-4,2021-08-06 14:03:55,678993
1,0,2,8,9,3,2,0,2021-08-06 14:03:55,679996
-2,-3,-1,0,-2,0,-2,1,2021-08-06 14:03:55,679996
-2,-3,-4,-5,-10,-7,-4,-2,2021-08-06 14:03:55,679996
-5,-4,-6,-13,-18,-10,-3,-2,2021-08-06 14:03:55,694995
1,2,3,11,20,13,4,1,2021-08-06 14:03:55,710994
3,4,3,3,5,3,1,2,2021-08-06 14:03:55,710994
0,-2,-2,0,1,1,-1,-1,2021-08-06 14:03:55,710994
1,-1,-1,-4,-9,-7,-5,-1,2021-08-06 14:03:55,726995
-6,-7,-8,-14,-23,-14,-9,-4,2021-08-06 14:03:55,742994
1,2,2,3,7,6,2,2,2021-08-06 14:03:55,757993
1,1,3,4,9,5,2,0,2021-08-06 14:03:55,757993
-3,0,-1,-1,0,0,0,-1,2021-08-06 14:03:55,757993
-1,-1,-2,-1,0,0,0,-1,2021-08-06 14:03:55,757993
-1,-3,-2,-2,-4,-3,-1,-2,2021-08-06 14:03:55,757993
-2,-2,-3,-1,-6,-2,-1,-1,2021-08-06 14:03:55,757993
-1,0,1,1,6,2,0,0,2021-08-06 14:03:55,757993
1,2,1,1,2,0,1,1,2021-08-06 14:03:55,757993
-6,-4,-6,-11,-18,-13,-6,-5,2021-08-06 14:03:55,758995
2,3,2,3,4,4,3,2,2021-08-06 14:03:55,758995
1,1,2,8,14,9,3,2,2021-08-06 14:03:55,789025
-1,-3,-4,-8,-11,-5,-2,-2,2021-08-06 14:03:55,805024
0,-1,-3,-2,1,-1,0,0,2021-08-06 14:03:55,821024
0,0,-1,1,-5,-3,0,1,2021-08-06 14:03:55,821024
1,-2,-2,2,4,2,-1,0,2021-08-06 14:03:55,837024
-4,-3,-2,-5,-4,-2,-4,-3,2021-08-06 14:03:55,837024
-1,-5,1,-1,-2,-3,-3,-3,2021-08-06 14:03:55,837024
-3,-1,-1,-7,-9,-6,-4,-2,2021-08-06 14:03:55,837024
2,3,2,8,14,7,5,2,2021-08-06 14:03:55,837024
0,0,-2,-4,-4,-2,0,1,2021-08-06 14:03:55,837024
1,-1,-1,0,-1,-2,1,0,2021-08-06 14:03:55,838025
-3,-3,-1,-9,-7,-5,-4,-2,2021-08-06 14:03:55,838025
-2,-4,-6,-5,-5,-4,-2,-4,2021-08-06 14:03:55,838025
0,1,2,3,1,0,0,1,2021-08-06 14:03:55,838025
0,1,1,2,2,3,1,2,2021-08-06 14:03:55,838025
-1,1,1,1,3,1,0,0,2021-08-06 14:03:55,838025
-4,-5,-5,-7,-13,-8,-5,-2,2021-08-06 14:03:55,868025
2,3,4,8,15,8,4,2,2021-08-06 14:03:55,884024
1,2,1,4,3,3,-1,0,2021-08-06 14:03:55,916023
-2,-4,-4,-3,-1,-3,-1,-3,2021-08-06 14:03:55,932026
-3,-4,-6,-16,-23,-13,-5,-3,2021-08-06 14:03:55,932026
1,0,1,8,17,10,4,0,2021-08-06 14:03:55,932026
3,2,0,4,5,2,0,0,2021-08-06 14:03:55,932026
1,1,1,4,6,4,0,1,2021-08-06 14:03:55,932026
-1,-1,0,0,-5,-6,-2,-1,2021-08-06 14:03:55,932026
-3,-2,-3,-9,-10,-6,-3,-1,2021-08-06 14:03:55,933025
-2,-3,-2,-4,-2,1,-1,-2,2021-08-06 14:03:55,933025
-1,-2,-3,-4,-7,-4,-2,-2,2021-08-06 14:03:55,933025
-1,0,1,1,1,1,1,0,2021-08-06 14:03:55,933025
-2,-2,-1,-2,-2,-3,-2,-2,2021-08-06 14:03:55,933025
-2,-2,-2,-5,-6,-4,-1,-3,2021-08-06 14:03:55,933025
1,0,2,9,17,7,4,1,2021-08-06 14:03:55,933025
1,1,3,7,7,5,2,0,2021-08-06 14:03:55,933025
-1,-1,0,2,1,-1,-1,-2,2021-08-06 14:03:55,934026
0,0,-3,-6,-3,-1,-1,0,2021-08-06 14:03:55,963028
-2,-2,-6,-9,-14,-8,-4,-2,2021-08-06 14:03:55,963028
0,2,3,7,9,6,0,1,2021-08-06 14:03:55,963028
0,-1,-4,-5,-4,-3,-1,-1,2021-08-06 14:03:55,963028
-2,-3,-4,-10,-14,-9,-3,-5,2021-08-06 14:03:55,963028
2,0,0,3,4,2,3,3,2021-08-06 14:03:55,963028
1,1,4,10,12,7,2,1,2021-08-06 14:03:55,995274
-3,-3,-5,-4,-3,-3,-1,0,2021-08-06 14:03:55,995274
-5,-4,-8,-17,-20,-12,-4,-3,2021-08-06 14:03:55,995274
1,2,0,0,4,2,2,1,2021-08-06 14:03:55,995274
2,3,7,9,13,6,1,-2,2021-08-06 14:03:55,995274
5,5,9,19,21,15,4,1,2021-08-06 14:03:55,996025
-4,-7,-10,-19,-21,-16,-5,-4,2021-08-06 14:03:56,010533
-6,-7,-12,-22,-28,-19,-10,-6,2021-08-06 14:03:56,010533
-2,-2,-4,-7,-7,-6,-1,-1,2021-08-06 14:03:56,026534
0,0,-1,-3,-5,-4,-2,-1,2021-08-06 14:03:56,026534
2,4,5,17,23,15,4,3,2021-08-06 14:03:56,026534
1,3,4,10,11,7,5,3,2021-08-06 14:03:56,026534
-1,-1,-2,-4,-4,-3,-1,-2,2021-08-06 14:03:56,042533
-6,-4,-5,-9,-14,-10,-5,-5,2021-08-06 14:03:56,058532
3,1,3,8,8,5,4,3,2021-08-06 14:03:56,058532
1,3,4,3,2,3,2,1,2021-08-06 14:03:56,058532
-4,-4,-5,-8,-11,-7,-4,-3,2021-08-06 14:03:56,074534
-3,-3,-3,-17,-23,-13,-5,-1,2021-08-06 14:03:56,090532
-1,0,-1,13,23,11,4,1,2021-08-06 14:03:56,106532
-3,0,2,3,5,3,-2,-3,2021-08-06 14:03:56,106532
0,-4,-5,2,4,2,0,0,2021-08-06 14:03:56,106532
-2,-5,-4,-7,-10,-7,-3,-2,2021-08-06 14:03:56,106532
-1,2,2,-1,-4,-4,-2,-1,2021-08-06 14:03:56,106532
-1,-2,-2,-2,-1,-2,-1,-1,2021-08-06 14:03:56,106532
-1,0,1,-1,-5,-2,-1,0,2021-08-06 14:03:56,106532
0,0,-2,0,0,0,0,-1,2021-08-06 14:03:56,106532
0,2,5,9,11,7,2,2,2021-08-06 14:03:56,106532
0,-1,-2,-1,4,3,0,-1,2021-08-06 14:03:56,106532
-3,-5,-9,-19,-23,-14,-5,-4,2021-08-06 14:03:56,122533
1,-2,0,2,1,3,0,0,2021-08-06 14:03:56,135532
1,1,0,0,1,1,-1,-1,2021-08-06 14:03:56,135532
1,-1,-1,2,0,-1,-1,-1,2021-08-06 14:03:56,136534
-1,0,2,1,5,2,1,1,2021-08-06 14:03:56,136534
-1,-2,-1,-2,-2,-1,-2,-1,2021-08-06 14:03:56,136534
-3,-3,-2,-3,-7,-3,-4,-3,2021-08-06 14:03:56,136534
-2,-4,-2,-3,0,0,0,-2,2021-08-06 14:03:56,136534
0,-1,-1,2,1,1,1,0,2021-08-06 14:03:56,170532
-2,-1,-4,-3,-6,-6,-2,-1,2021-08-06 14:03:56,170532
2,-1,0,3,10,5,1,1,2021-08-06 14:03:56,185533
-1,0,-2,1,1,1,1,1,2021-08-06 14:03:56,185533
0,1,1,2,1,0,-1,0,2021-08-06 14:03:56,185533
-1,1,3,9,7,2,0,0,2021-08-06 14:03:56,185533
-1,-1,-3,-6,-4,-2,-2,1,2021-08-06 14:03:56,185533
-2,-4,-7,-15,-20,-12,-5,-2,2021-08-06 14:03:56,185533
-1,1,1,4,11,6,2,-1,2021-08-06 14:03:56,201534
-1,1,1,1,-2,-1,1,0,2021-08-06 14:03:56,201534
0,1,-1,0,-1,-2,-1,-3,2021-08-06 14:03:56,201534
0,0,2,7,8,3,2,-2,2021-08-06 14:03:56,201534
-1,-2,-3,-6,-10,-5,-3,-2,2021-08-06 14:03:56,233534
-2,-1,0,0,0,-1,-1,-1,2021-08-06 14:03:56,233534
0,-1,0,2,0,0,0,-1,2021-08-06 14:03:56,233534
-3,-1,0,0,-3,-3,-2,1,2021-08-06 14:03:56,233534
-1,-2,-1,-1,-1,-2,-1,-1,2021-08-06 14:03:56,233534
-2,-1,-3,-2,3,0,0,-1,2021-08-06 14:03:56,233534
0,1,2,1,-1,-2,0,1,2021-08-06 14:03:56,249533
0,1,1,1,1,1,0,1,2021-08-06 14:03:56,249533
0,-1,0,0,-2,-3,-1,1,2021-08-06 14:03:56,265532
-1,-4,-4,-6,-7,-2,-2,-1,2021-08-06 14:03:56,281534
-2,0,0,2,7,0,0,0,2021-08-06 14:03:56,297533
-2,-1,-1,-2,1,0,0,-1,2021-08-06 14:03:56,297533
2,3,1,2,5,3,2,0,2021-08-06 14:03:56,297533
-1,0,-1,-4,-4,-3,0,-1,2021-08-06 14:03:56,297533
-2,-2,-2,-4,-8,-4,-2,-1,2021-08-06 14:03:56,297533
0,-1,0,1,4,2,-2,-1,2021-08-06 14:03:56,297533
-2,-3,-4,-4,-7,-4,-2,-2,2021-08-06 14:03:56,298534
0,-1,-1,1,5,1,0,-1,2021-08-06 14:03:56,298534
0,0,0,-2,-2,-1,-1,-3,2021-08-06 14:03:56,313535
-2,-2,-1,-2,-1,-2,-2,-1,2021-08-06 14:03:56,313535
-1,-1,0,-2,-4,-4,-1,-1,2021-08-06 14:03:56,329533
1,0,0,0,-2,-1,-1,0,2021-08-06 14:03:56,329533
-1,-1,0,1,6,3,1,0,2021-08-06 14:03:56,329533
-3,-4,-5,-4,-8,-5,-5,-3,2021-08-06 14:03:56,329533
1,0,0,3,9,5,3,2,2021-08-06 14:03:56,361534
-1,-1,0,-1,0,1,-1,-1,2021-08-06 14:03:56,377532
-1,-4,-5,-4,-6,-3,-3,-2,2021-08-06 14:03:56,408532
0,1,1,0,-1,0,-1,0,2021-08-06 14:03:56,424534
0,0,1,-1,-1,-1,-1,0,2021-08-06 14:03:56,424534
-2,0,0,0,0,-1,1,-1,2021-08-06 14:03:56,424534
-3,-2,0,-3,-4,-3,-2,-2,2021-08-06 14:03:56,424534
-2,-2,-2,-2,-1,-1,0,0,2021-08-06 14:03:56,424534
-2,-1,-1,-1,0,-2,1,-1,2021-08-06 14:03:56,424534
0,0,-1,-1,1,-1,-1,0,2021-08-06 14:03:56,424534
-1,-1,-1,-1,-4,-2,-1,1,2021-08-06 14:03:56,424534
1,1,-1,1,1,0,-1,-2,2021-08-06 14:03:56,424534
-1,-1,-1,-2,-1,0,-2,-1,2021-08-06 14:03:56,424534
0,-3,-1,-4,-2,-2,-2,-2,2021-08-06 14:03:56,425534
0,0,-1,0,4,2,2,0,2021-08-06 14:03:56,425534
1,-2,1,-2,1,-1,-1,0,2021-08-06 14:03:56,425534
-1,-1,-1,-1,-2,-1,-1,0,2021-08-06 14:03:56,425534
-4,-3,-4,-2,-3,-3,-2,-2,2021-08-06 14:03:56,425534
-2,-3,-2,-1,-2,-1,-2,-1,2021-08-06 14:03:56,425534
2,2,1,-1,-2,-2,0,0,2021-08-06 14:03:56,425534
5,3,3,3,5,3,1,2,2021-08-06 14:03:56,440532
0,2,0,0,-3,-1,0,1,2021-08-06 14:03:56,456533
-1,-1,-2,-2,-3,-3,0,-1,2021-08-06 14:03:56,471532
-5,-5,-4,-1,0,-1,-2,-3,2021-08-06 14:03:56,471532
-2,-2,-5,-4,-2,-1,-3,-1,2021-08-06 14:03:56,471532
-1,-1,-1,-1,-1,1,1,0,2021-08-06 14:03:56,471532
-1,-4,-3,-5,-5,-4,-2,-3,2021-08-06 14:03:56,471532
0,-1,0,2,1,1,1,-1,2021-08-06 14:03:56,471532
-3,-1,-2,-1,-3,-3,-1,-1,2021-08-06 14:03:56,486532
-2,0,0,-1,-2,-2,-2,-2,2021-08-06 14:03:56,494532
-1,-3,0,-3,-4,-2,-2,-1,2021-08-06 14:03:56,494532
1,1,2,4,9,6,2,2,2021-08-06 14:03:56,494532
-2,-3,-2,-3,-5,-3,0,-3,2021-08-06 14:03:56,495534
1,-1,-2,-1,1,0,0,2,2021-08-06 14:03:56,495534
1,1,0,1,2,2,0,0,2021-08-06 14:03:56,501534
0,0,-1,0,-2,-3,-1,-1,2021-08-06 14:03:56,517536
-1,-2,-3,-2,-2,-1,-2,-3,2021-08-06 14:03:56,517536
-2,-1,0,-3,-5,-1,-3,-2,2021-08-06 14:03:56,517536
-1,0,-2,0,-4,-3,-2,-1,2021-08-06 14:03:56,533534
0,0,-1,1,2,3,1,0,2021-08-06 14:03:56,549532
-1,0,2,6,11,4,2,0,2021-08-06 14:03:56,565533
-1,-2,-4,-12,-18,-12,-6,-2,2021-08-06 14:03:56,581532
2,2,2,-1,0,4,3,2,2021-08-06 14:03:56,581532
1,4,5,15,24,10,3,2,2021-08-06 14:03:56,581532
5,2,3,-2,0,9,12,5,2021-08-06 14:03:56,581532
1,1,4,9,19,10,3,0,2021-08-06 14:03:56,581532
-7,-7,-9,-17,-28,-23,-14,-8,2021-08-06 14:03:56,581532
-4,-4,-1,0,1,0,-7,-3,2021-08-06 14:03:56,581532
-4,-3,-2,-2,0,-9,-12,-6,2021-08-06 14:03:56,581532
-3,-3,-5,-4,-6,-4,-2,-1,2021-08-06 14:03:56,581532
0,-2,1,2,4,3,3,4,2021-08-06 14:03:56,581532
0,-2,-4,-7,-11,-5,0,0,2021-08-06 14:03:56,581532
0,0,-1,-2,-4,0,0,0,2021-08-06 14:03:56,613534
2,1,1,2,3,3,2,0,2021-08-06 14:03:56,613534
0,0,-2,3,3,2,-1,0,2021-08-06 14:03:56,613534
0,1,-1,-3,-4,-1,2,0,2021-08-06 14:03:56,613534
-1,-2,-2,-4,-6,-4,-3,-3,2021-08-06 14:03:56,613534
0,-1,0,2,4,2,0,2,2021-08-06 14:03:56,613534
1,0,0,0,4,4,1,1,2021-08-06 14:03:56,629534
-1,-2,-3,-7,-10,-6,-1,-3,2021-08-06 14:03:56,629534
-1,-3,-3,-1,2,1,0,0,2021-08-06 14:03:56,645532
-1,0,2,4,4,3,1,-2,2021-08-06 14:03:56,645532
-2,1,3,5,4,3,2,0,2021-08-06 14:03:56,645532
-2,-2,-1,-5,-6,-3,-3,-3,2021-08-06 14:03:56,645532
-1,-1,-1,-4,-8,-8,-6,-2,2021-08-06 14:03:56,677534
0,-1,-2,-1,-3,-3,0,0,2021-08-06 14:03:56,693533
1,1,1,2,6,2,3,1,2021-08-06 14:03:56,709532
-1,0,-4,-4,-7,-3,-2,-1,2021-08-06 14:03:56,709532
-2,-3,-3,-1,-1,-2,-2,-1,2021-08-06 14:03:56,709532
-1,-2,0,0,-1,0,0,0,2021-08-06 14:03:56,709532
0,0,-2,0,-2,-3,-2,-2,2021-08-06 14:03:56,709532
-1,-2,-1,-1,-1,-3,-2,-2,2021-08-06 14:03:56,709532
0,0,-2,-2,-1,1,-1,0,2021-08-06 14:03:56,709532
0,3,0,1,2,2,0,1,2021-08-06 14:03:56,710534
-1,-1,-2,-1,-2,0,0,-4,2021-08-06 14:03:56,710534
-1,0,-1,-1,-3,1,1,1,2021-08-06 14:03:56,710534
-1,0,1,-1,0,0,-1,-1,2021-08-06 14:03:56,724534
-1,-3,0,-2,-2,-3,0,-1,2021-08-06 14:03:56,740532
-2,-2,0,-3,-1,1,-2,0,2021-08-06 14:03:56,756532
1,-2,-2,-2,-2,-4,-2,-1,2021-08-06 14:03:56,756532
-2,0,-2,-1,-1,-2,-2,-2,2021-08-06 14:03:56,756532
-1,-3,-1,-3,-2,-2,-1,0,2021-08-06 14:03:56,756532
0,0,-1,1,3,-1,0,-2,2021-08-06 14:03:56,756532
-1,-2,-2,-2,-5,-2,-2,-1,2021-08-06 14:03:56,756532
-1,-3,0,4,5,3,1,0,2021-08-06 14:03:56,756532
-2,-1,-4,-4,-2,-2,0,-3,2021-08-06 14:03:56,756532
0,0,1,4,3,1,2,1,2021-08-06 14:03:56,772534
0,0,0,0,0,0,-1,0,2021-08-06 14:03:56,772534
-2,0,0,-1,-3,-2,-1,-1,2021-08-06 14:03:56,788532
-3,-2,-2,-4,-1,0,-1,-1,2021-08-06 14:03:56,788532
-3,-1,-1,-3,-3,-2,-2,-1,2021-08-06 14:03:56,788532
0,-1,-2,0,-2,-1,-1,-1,2021-08-06 14:03:56,788532
0,-2,-1,-1,-1,1,0,-1,2021-08-06 14:03:56,804532
1,1,0,2,5,1,0,0,2021-08-06 14:03:56,820532
-1,-1,-2,-5,-12,-8,-4,-4,2021-08-06 14:03:56,835533
0,1,-1,3,5,4,2,0,2021-08-06 14:03:56,835533
0,0,1,4,5,3,0,1,2021-08-06 14:03:56,835533
-1,-1,0,1,5,2,-1,-2,2021-08-06 14:03:56,835533
-1,0,-3,1,2,0,-2,-1,2021-08-06 14:03:56,835533
-4,-3,-4,-12,-16,-10,-6,-5,2021-08-06 14:03:56,835533
-1,-2,-4,-8,-5,-2,-2,0,2021-08-06 14:03:56,850533
1,2,1,7,10,5,1,1,2021-08-06 14:03:56,850533
-1,-2,-2,-7,-12,-6,-3,-2,2021-08-06 14:03:56,850533
-2,-3,-3,-7,-8,-4,-3,-2,2021-08-06 14:03:56,850533
1,2,5,17,27,13,3,1,2021-08-06 14:03:56,856532
-3,-6,-6,-12,-20,-11,-4,-4,2021-08-06 14:03:56,856532
5,6,13,22,32,23,10,4,2021-08-06 14:03:56,865533
0,1,1,4,0,-4,-2,-2,2021-08-06 14:03:56,881532
-9,-9,-17,-33,-38,-22,-7,-7,2021-08-06 14:03:56,897533
3,3,6,17,31,17,7,3,2021-08-06 14:03:56,897533
-3,-4,-5,-5,-5,-4,-2,-2,2021-08-06 14:03:56,897533
0,0,3,2,4,4,0,-1,2021-08-06 14:03:56,897533
1,1,6,11,7,2,-1,-2,2021-08-06 14:03:56,913534
-5,-3,-8,-27,-43,-26,-9,-4,2021-08-06 14:03:56,929535
-1,-5,-6,-5,-12,0,1,-1,2021-08-06 14:03:56,929535
-1,-2,-1,1,6,3,1,2,2021-08-06 14:03:56,929535
-5,-7,-12,-24,-32,-17,-7,-4,2021-08-06 14:03:56,929535
0,1,4,7,21,12,1,1,2021-08-06 14:03:56,929535
1,7,12,25,14,8,3,2,2021-08-06 14:03:56,929535
1,2,7,18,28,14,6,2,2021-08-06 14:03:56,929535
-3,-5,-13,-33,-46,-27,-10,-5,2021-08-06 14:03:56,945532
0,-1,2,13,11,7,3,0,2021-08-06 14:03:56,945532
-2,-1,-3,-10,-13,-6,-1,-1,2021-08-06 14:03:56,945532
-5,-4,-3,-2,-2,-2,0,-3,2021-08-06 14:03:56,945532
-1,1,2,8,7,3,2,0,2021-08-06 14:03:56,977534
3,2,0,-5,-14,-6,-3,0,2021-08-06 14:03:56,992532
0,-1,-2,-5,-3,-3,-2,-1,2021-08-06 14:03:56,992532
-1,-2,-3,-3,-3,-1,-3,-2,2021-08-06 14:03:56,992532
1,3,4,6,9,6,2,0,2021-08-06 14:03:56,992532
-5,-4,-4,-4,-10,-5,-3,-2,2021-08-06 14:03:56,992532
0,-1,-3,-1,6,1,0,-1,2021-08-06 14:03:56,992532
0,-1,0,-5,-4,-2,-1,-1,2021-08-06 14:03:56,992532
1,1,5,10,15,8,4,2,2021-08-06 14:03:57,007532
1,-1,-2,-6,-10,-7,-4,0,2021-08-06 14:03:57,023532
-3,-2,-4,-13,-9,-9,-5,-2,2021-08-06 14:03:57,023532
0,1,-1,2,11,6,2,1,2021-08-06 14:03:57,023532
0,0,4,15,18,10,6,1,2021-08-06 14:03:57,023532
-1,-3,-2,-4,-4,-1,-2,-2,2021-08-06 14:03:57,023532
0,-1,1,3,8,3,1,1,2021-08-06 14:03:57,023532
-2,-1,-4,-10,-16,-9,-3,-1,2021-08-06 14:03:57,023532
-1,-3,-4,-6,-9,-4,-4,-3,2021-08-06 14:03:57,039534
0,2,1,7,11,7,2,0,2021-08-06 14:03:57,055533
0,-1,0,-1,0,-2,0,-1,2021-08-06 14:03:57,055533
0,0,1,3,7,6,2,0,2021-08-06 14:03:57,055533
0,2,3,1,5,-1,-2,-1,2021-08-06 14:03:57,071533
-3,-3,-4,-7,-11,-5,-3,-1,2021-08-06 14:03:57,071533
-1,-4,-4,-5,0,-1,-1,-2,2021-08-06 14:03:57,071533
-1,-1,1,2,-1,-2,0,0,2021-08-06 14:03:57,071533
0,-1,-1,-2,-1,-1,1,1,2021-08-06 14:03:57,086534
-2,-3,-2,-7,-8,-6,-2,-1,2021-08-06 14:03:57,086534
0,-1,0,1,2,1,-2,-2,2021-08-06 14:03:57,102534
0,0,-1,2,0,0,0,0,2021-08-06 14:03:57,118533
0,-1,-2,1,0,-1,-1,0,2021-08-06 14:03:57,133534
0,-1,0,1,1,0,1,1,2021-08-06 14:03:57,149551
-2,-1,0,-1,-5,-3,-1,-2,2021-08-06 14:03:57,149551
-2,-2,-3,-6,-11,-6,-4,-1,2021-08-06 14:03:57,149551
-1,1,1,4,4,4,1,-1,2021-08-06 14:03:57,149551
0,2,2,7,14,5,2,-1,2021-08-06 14:03:57,149551
-1,-1,-4,-5,-6,-5,-2,-1,2021-08-06 14:03:57,165551
-2,-2,-3,-7,-7,-4,0,-2,2021-08-06 14:03:57,181551
-1,1,-2,-3,-1,-2,-2,0,2021-08-06 14:03:57,197551
-4,-2,-3,-6,-7,-5,-3,-2,2021-08-06 14:03:57,197551
1,1,3,12,15,7,4,0,2021-08-06 14:03:57,197551
1,0,1,6,6,4,-1,-1,2021-08-06 14:03:57,197551
1,0,1,-1,-3,1,2,0,2021-08-06 14:03:57,197551
0,-3,-2,-2,-4,-3,-3,-2,2021-08-06 14:03:57,197551
-2,-3,-6,-8,-13,-8,-6,-3,2021-08-06 14:03:57,197551
-1,0,0,2,2,1,1,0,2021-08-06 14:03:57,198553
-1,0,1,5,5,2,1,0,2021-08-06 14:03:57,198553
-3,-3,-4,-14,-21,-12,-7,-3,2021-08-06 14:03:57,198553
-2,-4,-3,-5,-2,-1,-1,-2,2021-08-06 14:03:57,198553
5,5,9,22,35,18,8,4,2021-08-06 14:03:57,198553
0,-1,-2,-1,-1,-2,0,-2,2021-08-06 14:03:57,213552
-1,1,-1,2,3,1,0,-1,2021-08-06 14:03:57,215551
-2,-2,-8,-17,-25,-15,-5,-3,2021-08-06 14:03:57,215551
0,-1,-3,-2,-4,-3,-2,0,2021-08-06 14:03:57,215551
0,-1,0,2,4,2,-2,-2,2021-08-06 14:03:57,215551
-1,-2,-1,1,2,1,0,1,2021-08-06 14:03:57,215551
-2,-2,-2,-3,-2,-1,-2,1,2021-08-06 14:03:57,229551
-2,-4,-3,-5,-2,-2,-1,-1,2021-08-06 14:03:57,229551
-1,-1,-3,2,4,1,-1,0,2021-08-06 14:03:57,245553
0,1,0,-1,0,1,1,0,2021-08-06 14:03:57,245553
0,1,2,2,6,2,0,1,2021-08-06 14:03:57,245553
-2,-3,-2,-12,-16,-9,-4,-4,2021-08-06 14:03:57,245553
2,-1,1,2,0,3,2,1,2021-08-06 14:03:57,277552
1,0,-1,4,9,3,2,-1,2021-08-06 14:03:57,293552
0,2,1,5,10,4,0,0,2021-08-06 14:03:57,293552
-2,-1,-2,-5,-13,-9,-3,-2,2021-08-06 14:03:57,293552
0,0,2,5,5,5,1,-1,2021-08-06 14:03:57,293552
-1,-1,-2,0,0,-1,1,0,2021-08-06 14:03:57,293552
-1,0,-1,-2,-7,-4,-1,0,2021-08-06 14:03:57,293552
-1,1,1,3,6,5,0,1,2021-08-06 14:03:57,293552
-4,-3,-2,-6,-9,-6,-4,-2,2021-08-06 14:03:57,309551
1,1,0,4,4,2,0,1,2021-08-06 14:03:57,325551
-4,-4,-5,-9,-19,-9,-4,-3,2021-08-06 14:03:57,325551
-2,-3,-5,-4,-4,-1,-1,-3,2021-08-06 14:03:57,325551
3,3,3,2,4,4,2,1,2021-08-06 14:03:57,325551
-2,-2,-1,1,3,0,0,-1,2021-08-06 14:03:57,325551
0,0,1,-4,-7,-4,-1,-1,2021-08-06 14:03:57,325551
-3,-2,-2,-5,-11,-5,-4,-3,2021-08-06 14:03:57,325551
-4,-4,-3,-6,-12,-12,-5,-4,2021-08-06 14:03:57,356059
2,-1,1,2,10,8,2,1,2021-08-06 14:03:57,372060
0,-1,1,11,13,7,3,1,2021-08-06 14:03:57,372060
-1,-2,-1,1,4,2,1,0,2021-08-06 14:03:57,372060
0,0,1,2,4,2,0,0,2021-08-06 14:03:57,372060
-2,0,-2,-7,-11,-6,-2,-1,2021-08-06 14:03:57,372060
-2,-2,-3,-5,-2,-1,-2,-2,2021-08-06 14:03:57,372060
1,0,1,7,13,4,1,1,2021-08-06 14:03:57,372060
-2,-3,-2,-5,-9,-7,-2,-1,2021-08-06 14:03:57,388059
1,1,0,3,2,2,-1,-2,2021-08-06 14:03:57,388059
1,0,-1,0,4,3,0,0,2021-08-06 14:03:57,388059
-1,-2,-4,-5,-8,-5,-3,-3,2021-08-06 14:03:57,388059
-2,-1,-1,1,2,2,-2,-2,2021-08-06 14:03:57,420059
1,0,1,4,3,3,0,0,2021-08-06 14:03:57,436059
-3,-2,-4,-2,-4,-5,-2,-1,2021-08-06 14:03:57,452061
-1,-3,-3,-9,-9,-6,-3,-2,2021-08-06 14:03:57,452061
2,2,1,3,5,4,0,2,2021-08-06 14:03:57,452061
0,0,1,1,1,-2,0,-2,2021-08-06 14:03:57,452061
-1,0,-1,-3,-1,0,-1,-1,2021-08-06 14:03:57,452061
-3,-2,0,-4,-7,-4,-3,0,2021-08-06 14:03:57,452061
-2,-3,-3,-4,-2,-1,-2,-4,2021-08-06 14:03:57,453061
0,1,1,1,-1,0,0,-1,2021-08-06 14:03:57,453061
0,-3,-2,-1,2,1,0,-2,2021-08-06 14:03:57,453061
-1,1,1,2,-2,-1,-1,-1,2021-08-06 14:03:57,453061
-2,-2,-4,-7,-5,-5,-2,-1,2021-08-06 14:03:57,482061
0,-1,-1,0,-5,1,1,-1,2021-08-06 14:03:57,482061
1,0,1,6,14,7,2,2,2021-08-06 14:03:57,482061
-1,-1,-5,-13,-18,-9,-3,-2,2021-08-06 14:03:57,482061
-3,-2,-2,-3,1,0,0,-2,2021-08-06 14:03:57,482061
0,2,7,21,31,16,5,2,2021-08-06 14:03:57,482061
-2,-1,1,2,-1,0,-2,-2,2021-08-06 14:03:57,498064
-3,-2,-2,-1,-2,-1,-3,-2,2021-08-06 14:03:57,498064
-1,0,-1,-4,-10,-6,-4,-2,2021-08-06 14:03:57,514061
-3,-2,-4,-10,-9,-7,-3,-2,2021-08-06 14:03:57,530061
3,2,1,1,1,-2,1,0,2021-08-06 14:03:57,530061
1,0,-1,0,1,0,0,0,2021-08-06 14:03:57,530061
1,-2,-3,-3,-5,1,2,0,2021-08-06 14:03:57,530061
-2,-2,-1,-1,2,1,-2,-1,2021-08-06 14:03:57,530061
-2,-2,-5,1,-1,0,-2,-2,2021-08-06 14:03:57,530061
2,1,0,1,1,1,2,-1,2021-08-06 14:03:57,531061
1,0,2,3,3,0,0,0,2021-08-06 14:03:57,546060
0,0,-2,-4,-5,-5,-2,-1,2021-08-06 14:03:57,562060
-2,-2,-2,-3,-4,-3,-2,-3,2021-08-06 14:03:57,562060
-1,-1,1,-1,1,-1,-1,0,2021-08-06 14:03:57,562060
-3,-3,-1,-2,-2,-1,-1,-1,2021-08-06 14:03:57,562060
-1,-2,-4,-2,-3,-3,-1,-2,2021-08-06 14:03:57,562060
2,4,2,2,5,2,1,0,2021-08-06 14:03:57,562060
-3,-2,-1,3,3,1,-2,-1,2021-08-06 14:03:57,562060
-1,-2,0,-1,0,0,0,-1,2021-08-06 14:03:57,593061
-2,-3,-3,-4,-6,-5,-2,-1,2021-08-06 14:03:57,609060
-1,-2,0,-1,0,0,-2,-2,2021-08-06 14:03:57,641059
0,-4,-4,-5,-11,-6,-4,-1,2021-08-06 14:03:57,641059
2,2,1,7,9,4,1,0,2021-08-06 14:03:57,657061
-1,-2,-1,-1,1,2,-1,-1,2021-08-06 14:03:57,657061
-1,-2,1,0,2,0,0,-1,2021-08-06 14:03:57,657061
0,0,-2,-1,0,-1,-1,0,2021-08-06 14:03:57,657061
-3,-3,-4,-8,-7,-4,-5,-2,2021-08-06 14:03:57,657061
-2,0,-2,-4,-8,-5,-2,-3,2021-08-06 14:03:57,657061
1,3,3,8,10,5,3,0,2021-08-06 14:03:57,657061
-1,-1,0,-3,-1,1,0,0,2021-08-06 14:03:57,657061
-1,-1,-1,0,1,-1,0,1,2021-08-06 14:03:57,658061
-2,-3,-2,-5,-5,-4,-2,-2,2021-08-06 14:03:57,658061
-3,-4,-4,-9,-9,-5,-2,0,2021-08-06 14:03:57,673059
-1,-1,1,7,10,6,1,-1,2021-08-06 14:03:57,689059
1,0,-1,2,3,3,3,0,2021-08-06 14:03:57,705060
1,2,1,2,0,-2,-3,1,2021-08-06 14:03:57,705060
-1,-3,1,-3,-6,-3,0,-1,2021-08-06 14:03:57,705060
-1,1,-1,-2,0,-2,0,0,2021-08-06 14:03:57,705060
-3,-2,-5,1,1,-1,1,-3,2021-08-06 14:03:57,705060
0,0,-1,-3,-4,-2,-1,0,2021-08-06 14:03:57,705060
-1,0,-1,-2,-2,-2,-2,0,2021-08-06 14:03:57,705060
-1,0,-2,-1,-1,-2,-1,-1,2021-08-06 14:03:57,705060
1,1,4,-2,-1,0,-2,-1,2021-08-06 14:03:57,705060
0,-1,-3,-2,-1,-1,0,-1,2021-08-06 14:03:57,705060
-1,-7,-6,2,2,0,-1,-2,2021-08-06 14:03:57,721059
-2,-4,0,-1,-1,-1,0,-2,2021-08-06 14:03:57,737060
2,6,5,1,-2,-2,0,-1,2021-08-06 14:03:57,752060
-2,0,1,-1,0,-2,-1,0,2021-08-06 14:03:57,752060
0,-1,-1,-1,0,0,-1,0,2021-08-06 14:03:57,752060
-4,-6,-6,-3,-2,-2,-3,-3,2021-08-06 14:03:57,752060
-1,1,0,1,2,0,-1,-1,2021-08-06 14:03:57,752060
-1,-3,-3,0,-3,-1,-2,-2,2021-08-06 14:03:57,752060
0,0,-1,-1,-3,-1,-1,-2,2021-08-06 14:03:57,753061
1,-1,-1,-2,-1,-1,0,-1,2021-08-06 14:03:57,753061
-2,-3,-2,1,2,0,1,-1,2021-08-06 14:03:57,767060
-3,-1,-2,-3,-2,0,-3,-1,2021-08-06 14:03:57,783060
-1,1,2,3,1,0,0,-1,2021-08-06 14:03:57,783060
-1,-1,-1,-1,-5,-1,-1,-2,2021-08-06 14:03:57,783060
0,-2,-1,2,6,2,-2,0,2021-08-06 14:03:57,783060
-3,-4,-3,-4,-3,-3,-1,-2,2021-08-06 14:03:57,783060
-2,-1,-3,-3,-6,-5,-2,-1,2021-08-06 14:03:57,783060
2,4,5,7,17,11,5,2,2021-08-06 14:03:57,783060
-1,-4,-2,-4,-6,-2,-2,0,2021-08-06 14:03:57,813609
0,-2,-1,4,5,3,1,-2,2021-08-06 14:03:57,829099
-3,1,-1,-1,-1,-2,-2,-2,2021-08-06 14:03:57,845095
2,0,-2,-3,-6,-3,0,0,2021-08-06 14:03:57,845095
-2,-2,-4,-6,-5,-4,-2,-2,2021-08-06 14:03:57,845095
-2,-1,0,-2,-1,0,-1,0,2021-08-06 14:03:57,845095
1,1,0,1,-1,1,-1,0,2021-08-06 14:03:57,845095
-3,-2,-2,-3,-2,-2,-2,-1,2021-08-06 14:03:57,845095
1,0,0,-1,0,1,0,1,2021-08-06 14:03:57,846097
1,1,1,1,-2,-1,-2,0,2021-08-06 14:03:57,846097
0,1,1,2,1,1,2,0,2021-08-06 14:03:57,846097
-2,-4,-2,-1,-3,-2,-2,-3,2021-08-06 14:03:57,846097
-1,-2,-4,-1,-1,-1,0,-1,2021-08-06 14:03:57,876097
1,1,1,4,3,2,3,1,2021-08-06 14:03:57,892094
-3,-3,-3,-3,-3,-1,-2,-1,2021-08-06 14:03:57,892094
-2,0,0,1,3,-1,-1,-2,2021-08-06 14:03:57,892094
-4,-3,-4,-8,-12,-8,-4,-2,2021-08-06 14:03:57,892094
3,0,1,5,8,6,3,1,2021-08-06 14:03:57,892094
-2,0,-2,-1,-2,-4,-2,-1,2021-08-06 14:03:57,892094
0,-2,-1,-6,-8,-3,-3,-1,2021-08-06 14:03:57,892094
2,-2,1,9,11,4,0,-1,2021-08-06 14:03:57,924096
-4,-2,-2,-4,-7,-4,-3,0,2021-08-06 14:03:57,939094
0,0,-1,-3,-1,-1,1,0,2021-08-06 14:03:57,939094
-2,0,-2,-7,-9,-7,-3,-1,2021-08-06 14:03:57,939094
1,1,0,3,9,3,2,1,2021-08-06 14:03:57,939094
0,-3,-3,-2,-2,-1,-2,-1,2021-08-06 14:03:57,940096
1,-1,-1,1,0,0,0,-1,2021-08-06 14:03:57,940096
-2,-1,-2,-1,-2,-2,-2,-3,2021-08-06 14:03:57,940096
0,0,-3,-2,-4,-1,-2,0,2021-08-06 14:03:57,956095
1,0,0,0,0,0,1,-1,2021-08-06 14:03:57,971095
0,0,-2,-3,-1,-1,0,0,2021-08-06 14:03:57,986095
1,0,-1,0,-2,-1,-2,0,2021-08-06 14:03:57,986095
-3,-3,-1,0,0,0,-2,-2,2021-08-06 14:03:57,986095
-2,-1,-2,-4,-3,-3,-3,-1,2021-08-06 14:03:57,986095
-1,-1,-3,-4,-5,-2,-1,-1,2021-08-06 14:03:57,986095
-2,-2,-1,-3,-5,-3,-2,-1,2021-08-06 14:03:57,986095
0,-1,-2,-6,-5,-2,1,0,2021-08-06 14:03:57,986095
1,3,6,11,18,11,5,2,2021-08-06 14:03:57,987096
-2,-3,0,-2,0,0,0,1,2021-08-06 14:03:57,987096
-2,0,0,6,5,4,1,-1,2021-08-06 14:03:57,987096
0,1,-2,-2,-8,-6,-3,-1,2021-08-06 14:03:58,017096
-3,-3,-4,-8,-11,-7,-4,-2,2021-08-06 14:03:58,017096
-3,-2,-4,-4,-4,-3,-4,-2,2021-08-06 14:03:58,017096
2,3,2,5,7,3,2,2,2021-08-06 14:03:58,017096
-1,-2,-2,-3,-1,0,-2,-1,2021-08-06 14:03:58,017096
-2,-2,-1,-2,-4,-2,-1,-1,2021-08-06 14:03:58,017096
0,1,1,4,4,2,0,-1,2021-08-06 14:03:58,033097
-3,-3,-2,-6,-9,-5,-3,-2,2021-08-06 14:03:58,033097
1,1,2,4,6,3,1,-1,2021-08-06 14:03:58,049095
-3,-2,-3,-3,-4,-6,-2,-1,2021-08-06 14:03:58,065095
0,0,1,-5,-6,-1,-1,0,2021-08-06 14:03:58,080097
3,2,1,6,13,6,2,3,2021-08-06 14:03:58,080097
-2,-3,-1,2,3,1,-2,0,2021-08-06 14:03:58,080097
-2,-2,-1,-3,-5,-3,-3,-2,2021-08-06 14:03:58,080097
0,0,-1,1,1,0,-1,-1,2021-08-06 14:03:58,080097
0,-2,-1,-2,-3,-3,-1,-1,2021-08-06 14:03:58,080097
-1,-2,0,-1,-1,0,-1,-1,2021-08-06 14:03:58,080097
-3,-3,-3,-6,-7,-5,-4,-3,2021-08-06 14:03:58,080097
1,2,3,5,3,3,0,0,2021-08-06 14:03:58,096097
1,0,1,-1,-2,0,-2,-1,2021-08-06 14:03:58,096097
-1,-2,-1,0,-2,0,0,-1,2021-08-06 14:03:58,112095
-2,-2,-2,-5,-5,-5,-1,-1,2021-08-06 14:03:58,128094
-1,-1,2,3,4,1,1,-1,2021-08-06 14:03:58,144095
-2,-2,-4,-4,-3,-3,-1,-2,2021-08-06 14:03:58,144095
-1,-1,0,-2,-2,-2,1,0,2021-08-06 14:03:58,144095
-1,1,-1,-2,-3,0,-1,0,2021-08-06 14:03:58,144095
-3,-4,-4,-2,-2,-2,-2,-1,2021-08-06 14:03:58,144095
1,1,4,5,8,2,1,0,2021-08-06 14:03:58,144095
0,-1,-1,-2,-3,-2,-2,1,2021-08-06 14:03:58,144095
1,1,2,4,5,1,1,-2,2021-08-06 14:03:58,145096
0,0,-1,-1,0,-1,0,0,2021-08-06 14:03:58,159097
-1,-1,-1,-3,-2,-1,0,-1,2021-08-06 14:03:58,159097
-3,-1,-2,0,-3,-2,-2,-3,2021-08-06 14:03:58,174611
-2,-1,-1,-1,1,-1,0,0,2021-08-06 14:03:58,190609
-2,-2,-3,-4,-4,-3,-2,-1,2021-08-06 14:03:58,206610
0,0,1,1,3,1,-1,0,2021-08-06 14:03:58,206610
-1,0,1,-1,-1,-1,-1,-1,2021-08-06 14:03:58,206610
-1,-1,-1,-2,0,-1,0,0,2021-08-06 14:03:58,206610
1,-2,-1,-1,2,1,0,0,2021-08-06 14:03:58,206610
-3,-1,-1,0,-2,-1,-1,0,2021-08-06 14:03:58,206610
1,0,1,-2,-2,-1,-1,-1,2021-08-06 14:03:58,206610
0,0,-3,-3,-1,0,-1,-1,2021-08-06 14:03:58,206610
-1,0,0,0,2,1,-1,0,2021-08-06 14:03:58,222611
2,1,3,-1,-1,-1,1,0,2021-08-06 14:03:58,222611
-1,-3,-2,-3,-1,-2,-1,-1,2021-08-06 14:03:58,238610
0,0,2,1,-1,0,-1,0,2021-08-06 14:03:58,254610
-1,-1,-2,0,-1,-2,-2,-1,2021-08-06 14:03:58,254610
-3,-2,-4,-3,-4,-2,-1,-3,2021-08-06 14:03:58,254610
-3,-3,-2,-1,-2,-2,-3,-2,2021-08-06 14:03:58,254610
1,0,-1,-1,0,2,0,-1,2021-08-06 14:03:58,254610
-1,-1,1,-1,-5,-4,1,0,2021-08-06 14:03:58,254610
0,-1,-1,0,4,0,-2,1,2021-08-06 14:03:58,254610
-1,1,0,0,2,1,1,-1,2021-08-06 14:03:58,270610
-1,-1,0,2,0,0,0,-1,2021-08-06 14:03:58,286610
-3,-1,0,1,0,0,-1,-2,2021-08-06 14:03:58,302611
0,-2,-1,-3,-5,-3,-1,-1,2021-08-06 14:03:58,302611
0,0,-2,0,-2,-2,0,1,2021-08-06 14:03:58,302611
-1,0,-3,-1,-2,-1,0,-1,2021-08-06 14:03:58,302611
0,-1,-2,-2,1,0,1,-1,2021-08-06 14:03:58,304610
-2,-2,-2,-3,-4,0,0,0,2021-08-06 14:03:58,305613
-3,-2,0,1,0,1,0,0,2021-08-06 14:03:58,305613
-3,-3,0,-2,-3,-2,-2,-1,2021-08-06 14:03:58,305613
1,-1,1,3,8,4,1,-1,2021-08-06 14:03:58,305613
-2,-3,-1,-2,-3,0,-3,-1,2021-08-06 14:03:58,305613
0,0,1,-2,-3,-1,-1,-1,2021-08-06 14:03:58,334611
2,0,0,1,0,0,-1,0,2021-08-06 14:03:58,334611
-1,-1,1,-1,-4,-3,0,0,2021-08-06 14:03:58,334611
0,0,-1,0,1,0,1,-2,2021-08-06 14:03:58,334611
4,7,13,24,26,11,1,-1,2021-08-06 14:03:58,350610
-1,-1,-2,1,9,10,7,2,2021-08-06 14:03:58,350610
-9,-16,-29,-54,-61,-35,-14,-7,2021-08-06 14:03:58,350610
-4,-4,-6,-8,-14,-9,-3,-4,2021-08-06 14:03:58,350610
-1,-1,-4,-7,-4,-2,0,-1,2021-08-06 14:03:58,366611
1,3,6,10,9,2,0,0,2021-08-06 14:03:58,382611
2,6,8,19,22,13,2,2,2021-08-06 14:03:58,382611
-1,-2,-1,1,-2,-1,-1,-1,2021-08-06 14:03:58,382611
-2,-2,-2,-2,-3,-1,-2,0,2021-08-06 14:03:58,398614
1,-1,1,5,5,5,1,0,2021-08-06 14:03:58,414610
1,1,2,6,6,4,1,0,2021-08-06 14:03:58,446611
1,1,-1,-3,-3,-3,-2,-1,2021-08-06 14:03:58,446611
2,-1,-2,0,-1,0,0,0,2021-08-06 14:03:58,446611
-3,-3,-6,-9,-10,-7,-3,-1,2021-08-06 14:03:58,446611
-1,-1,1,2,1,-2,-1,-1,2021-08-06 14:03:58,446611
0,0,0,5,5,2,0,0,2021-08-06 14:03:58,446611
-3,-4,-6,-6,-6,-4,-2,-2,2021-08-06 14:03:58,447610
0,-1,-4,-9,-10,-6,-2,-1,2021-08-06 14:03:58,447610
1,2,4,6,4,4,1,0,2021-08-06 14:03:58,447610
0,1,4,6,9,4,2,0,2021-08-06 14:03:58,447610
-1,-3,-5,-7,-7,-3,0,-2,2021-08-06 14:03:58,447610
-2,-1,0,-1,-5,-4,-2,-1,2021-08-06 14:03:58,447610
0,2,1,4,6,4,0,0,2021-08-06 14:03:58,447610
-2,0,0,-3,-3,-2,0,-1,2021-08-06 14:03:58,447610
-5,-3,-5,-4,-9,-4,-1,0,2021-08-06 14:03:58,478610
-1,-2,-3,-4,-5,-5,-1,-2,2021-08-06 14:03:58,478610
2,3,4,9,13,8,4,2,2021-08-06 14:03:58,478610
1,-1,-2,-3,-3,-1,-1,-2,2021-08-06 14:03:58,478610
-2,1,0,-2,0,0,-2,-2,2021-08-06 14:03:58,494611
-2,-1,-2,-2,-2,-1,-1,-4,2021-08-06 14:03:58,510610
-2,-3,-1,-2,-5,-3,-1,-1,2021-08-06 14:03:58,510610
0,0,0,0,1,0,-1,-1,2021-08-06 14:03:58,510610
1,-1,0,2,1,2,-1,1,2021-08-06 14:03:58,510610
-3,-1,-3,-5,-4,-4,-3,-1,2021-08-06 14:03:58,510610
-3,-4,-1,-2,-3,-4,-2,-4,2021-08-06 14:03:58,510610
1,0,-1,0,3,1,2,0,2021-08-06 14:03:58,510610
0,0,0,-1,-1,-2,-1,-1,2021-08-06 14:03:58,526653
0,-1,-1,0,1,-1,0,0,2021-08-06 14:03:58,526653
-2,-2,-3,-1,0,1,-1,-1,2021-08-06 14:03:58,526653
-2,-1,-1,0,-3,-1,-2,-1,2021-08-06 14:03:58,526653
0,-1,-4,-3,-2,-2,1,0,2021-08-06 14:03:58,558610
1,0,-1,-1,1,0,-2,-1,2021-08-06 14:03:58,558610
-1,2,1,0,-2,-1,1,-1,2021-08-06 14:03:58,558610
-3,-4,-5,-5,-5,-3,-1,-2,2021-08-06 14:03:58,558610
-2,-2,0,0,-3,-1,-2,-1,2021-08-06 14:03:58,573611
-1,-1,2,4,9,5,3,2,2021-08-06 14:03:58,573611
-1,-1,-2,-1,-1,0,-2,-1,2021-08-06 14:03:58,573611
-2,-2,-4,-5,-10,-5,-3,0,2021-08-06 14:03:58,573611
1,0,-1,1,5,4,1,-2,2021-08-06 14:03:58,589611
-1,-2,-1,2,-3,-2,-2,-1,2021-08-06 14:03:58,605610
-1,0,1,5,4,3,1,-1,2021-08-06 14:03:58,605610
1,2,4,10,10,6,2,1,2021-08-06 14:03:58,605610
-5,-6,-9,-16,-19,-14,-6,-3,2021-08-06 14:03:58,605610
-1,1,-2,-8,-9,-3,-2,0,2021-08-06 14:03:58,605610
0,-3,-3,-4,-3,-1,-1,-2,2021-08-06 14:03:58,605610
-1,-1,1,-1,-1,0,-1,-1,2021-08-06 14:03:58,606612
0,1,3,5,9,4,1,1,2021-08-06 14:03:58,653611
-1,-1,0,1,0,1,-1,-1,2021-08-06 14:03:58,653611
0,1,0,-1,-3,-2,0,0,2021-08-06 14:03:58,653611
-1,0,0,1,0,1,-1,-1,2021-08-06 14:03:58,653611
-1,-2,0,1,2,1,0,0,2021-08-06 14:03:58,653611
1,-1,1,-1,0,-1,-1,0,2021-08-06 14:03:58,653611
2,0,1,1,2,0,-1,2,2021-08-06 14:03:58,653611
-1,-2,-3,-4,-3,-2,-2,-2,2021-08-06 14:03:58,653611
-2,-1,-2,-2,-2,-4,-1,-2,2021-08-06 14:03:58,669610
-4,-4,-5,-3,-5,-4,-2,-1,2021-08-06 14:03:58,685610
1,1,1,2,6,4,1,-2,2021-08-06 14:03:58,700611
-2,-3,-1,-4,-4,-2,-3,1,2021-08-06 14:03:58,700611
0,0,2,0,-2,-1,0,0,2021-08-06 14:03:58,700611
-2,-3,-1,2,2,0,-1,-1,2021-08-06 14:03:58,700611
-1,0,1,-3,-5,-3,-3,-2,2021-08-06 14:03:58,700611
0,-3,-1,1,1,0,1,-1,2021-08-06 14:03:58,700611
-2,2,-1,1,1,2,0,-1,2021-08-06 14:03:58,700611
1,0,0,-1,-2,-1,-3,-3,2021-08-06 14:03:58,701612
-3,-3,-4,-5,-5,-3,0,0,2021-08-06 14:03:58,716611
1,1,1,1,4,2,0,-3,2021-08-06 14:03:58,732611
-1,-2,-4,-4,-5,-5,-2,-2,2021-08-06 14:03:58,748613
1,3,1,3,4,4,3,1,2021-08-06 14:03:58,764610
-2,-2,-2,-1,0,-1,-1,0,2021-08-06 14:03:58,779610
-1,-1,-1,0,-2,-2,0,-2,2021-08-06 14:03:58,779610
-1,-2,-2,-3,-5,-2,-3,2,2021-08-06 14:03:58,779610
-1,-1,-1,3,3,2,0,-1,2021-08-06 14:03:58,779610
-3,-1,-2,-4,-3,-3,-3,-2,2021-08-06 14:03:58,779610
-1,0,0,-1,-1,-1,0,-1,2021-08-06 14:03:58,779610
2,1,1,1,0,0,-1,-1,2021-08-06 14:03:58,779610
-1,-1,-2,-4,-4,-5,-2,-1,2021-08-06 14:03:58,779610
-1,-4,-2,2,0,-1,-1,-1,2021-08-06 14:03:58,779610
-2,-1,0,-4,-6,-4,-2,-1,2021-08-06 14:03:58,780612
1,-2,1,0,6,1,1,1,2021-08-06 14:03:58,795611
-2,-2,-1,2,4,2,1,1,2021-08-06 14:03:58,795611
1,1,2,3,2,3,2,2,2021-08-06 14:03:58,795611
-1,-3,-4,-3,-2,-1,-1,0,2021-08-06 14:03:58,795611
0,-1,-1,-1,-3,-2,-1,-1,2021-08-06 14:03:58,811610
0,0,1,1,-3,-1,0,0,2021-08-06 14:03:58,811610
-3,-2,-3,-4,-4,-4,-2,-2,2021-08-06 14:03:58,811610
1,0,0,0,0,-1,0,0,2021-08-06 14:03:58,811610
-1,-1,-1,0,0,0,0,-2,2021-08-06 14:03:58,826610
0,-1,-2,-1,2,-1,-2,-3,2021-08-06 14:03:58,826610
0,-1,0,0,-1,-2,-1,0,2021-08-06 14:03:58,826610
-2,-1,-3,-3,-2,0,-2,-1,2021-08-06 14:03:58,826610
0,-1,0,3,2,2,1,-1,2021-08-06 14:03:58,873612
-1,-1,-1,-3,-2,-1,-3,0,2021-08-06 14:03:58,873612
-1,-1,-1,-2,-2,-2,-2,0,2021-08-06 14:03:58,873612
1,1,1,2,0,0,0,2,2021-08-06 14:03:58,873612
-3,-2,-1,-1,-2,0,-2,-1,2021-08-06 14:03:58,873612
-1,1,-1,-3,-5,-1,-1,-1,2021-08-06 14:03:58,873612
-1,-1,0,1,3,2,2,0,2021-08-06 14:03:58,873612
-2,-1,-2,-2,0,0,-1,-2,2021-08-06 14:03:58,874611
-3,-1,-2,0,-1,-2,0,-3,2021-08-06 14:03:58,889611
1,-1,0,-1,-4,-3,1,-1,2021-08-06 14:03:58,905610
-2,-3,-2,-5,-4,-2,-2,-2,2021-08-06 14:03:58,905610
-1,-2,-2,1,3,-1,0,-2,2021-08-06 14:03:58,905610
0,2,4,2,1,-1,0,1,2021-08-06 14:03:58,937612
-1,-2,-3,-2,-2,-2,-1,1,2021-08-06 14:03:58,953610
0,3,1,2,0,-1,0,0,2021-08-06 14:03:58,953610
-2,-1,0,-2,-4,-2,-2,-3,2021-08-06 14:03:58,953610
-1,0,-1,-2,0,0,-1,-1,2021-08-06 14:03:58,953610
0,-1,0,2,0,1,1,-1,2021-08-06 14:03:58,953610
-1,1,-2,-1,0,1,-1,-1,2021-08-06 14:03:58,953610
-1,-3,-2,0,2,0,0,-2,2021-08-06 14:03:58,953610
-2,-2,0,-2,0,-1,-2,-2,2021-08-06 14:03:58,953610
-4,-2,-2,-3,-4,-2,-2,-2,2021-08-06 14:03:58,953610
-1,-2,-2,-3,-4,-2,-2,-1,2021-08-06 14:03:58,954611
-2,-1,-2,2,4,0,0,-1,2021-08-06 14:03:58,954611
0,0,1,2,-1,1,0,0,2021-08-06 14:03:58,968611
0,1,1,3,5,2,-1,0,2021-08-06 14:03:58,968611
-3,-4,-5,-5,-5,-3,-3,-1,2021-08-06 14:03:58,968611
2,1,0,-5,-9,-4,-2,0,2021-08-06 14:03:58,968611
1,1,-2,-2,2,1,-1,0,2021-08-06 14:03:59,000610
-2,-3,-2,-2,-2,-1,-1,-4,2021-08-06 14:03:59,016611
0,2,2,3,3,3,1,0,2021-08-06 14:03:59,016611
1,0,-1,0,-2,-1,1,2,2021-08-06 14:03:59,016611
-3,-1,0,4,5,2,1,-2,2021-08-06 14:03:59,016611
3,1,2,1,-1,0,-1,1,2021-08-06 14:03:59,016611
-2,-1,1,-3,-2,-1,-1,-2,2021-08-06 14:03:59,016611
-3,-2,-2,-4,-5,-4,-3,0,2021-08-06 14:03:59,017612
-1,-1,-3,-3,-5,-4,-1,-1,2021-08-06 14:03:59,032611
-2,-3,-3,-2,0,-1,-1,0,2021-08-06 14:03:59,048611
-1,1,-1,-1,-2,-1,0,1,2021-08-06 14:03:59,048611
1,1,2,1,2,2,2,1,2021-08-06 14:03:59,048611
0,-3,-4,-1,-1,0,1,1,2021-08-06 14:03:59,048611
-2,-2,-2,-1,-1,-1,-1,-2,2021-08-06 14:03:59,048611
-3,-1,-1,-2,-3,-4,-3,-3,2021-08-06 14:03:59,048611
-2,-3,0,-1,-2,-2,-3,-4,2021-08-06 14:03:59,048611
-3,-2,-1,2,3,2,1,0,2021-08-06 14:03:59,064610
-1,0,0,-2,-5,-2,-1,0,2021-08-06 14:03:59,079611
1,1,1,-2,-3,0,1,1,2021-08-06 14:03:59,079611
-2,-1,0,-1,0,0,0,-1,2021-08-06 14:03:59,079611
-2,-4,-3,-5,-6,-4,-3,-1,2021-08-06 14:03:59,095610
-1,-2,-1,-1,2,1,0,1,2021-08-06 14:03:59,111611
0,0,1,3,1,1,0,2,2021-08-06 14:03:59,127610
1,1,0,-2,-2,-1,-1,-2,2021-08-06 14:03:59,127610
-1,-2,0,-4,-4,-3,-3,-2,2021-08-06 14:03:59,127610
-3,-2,-3,-1,-2,-2,-3,-3,2021-08-06 14:03:59,127610
-1,-4,-3,-2,-6,-5,-3,0,2021-08-06 14:03:59,127610
1,2,1,3,4,3,2,3,2021-08-06 14:03:59,127610
0,0,0,1,3,1,0,1,2021-08-06 14:03:59,127610
-2,-2,-1,-3,-2,-4,-2,-1,2021-08-06 14:03:59,127610
-2,-2,-2,-1,3,-1,-1,-2,2021-08-06 14:03:59,127610
-3,-3,-3,-1,-5,-5,-2,-1,2021-08-06 14:03:59,128614
1,1,-3,-2,-2,-1,0,1,2021-08-06 14:03:59,158610
-1,0,-2,-1,-1,0,0,1,2021-08-06 14:03:59,158610
1,2,-1,3,1,-1,0,0,2021-08-06 14:03:59,158610
-2,-1,-1,0,0,0,1,-1,2021-08-06 14:03:59,158610
0,0,3,0,-3,-2,-1,0,2021-08-06 14:03:59,173611
0,-2,-2,0,-1,0,-2,-1,2021-08-06 14:03:59,173611
0,0,-1,-4,-4,-2,-1,-2,2021-08-06 14:03:59,173611
1,1,-1,1,5,2,-1,0,2021-08-06 14:03:59,173611
1,0,0,1,1,0,0,0,2021-08-06 14:03:59,189652
-2,-2,-1,-5,-9,-6,-2,-1,2021-08-06 14:03:59,189652
-1,-2,0,5,6,4,0,0,2021-08-06 14:03:59,189652
-2,-1,0,2,5,2,1,-1,2021-08-06 14:03:59,189652
-3,-1,-4,-1,1,0,-1,-1,2021-08-06 14:03:59,221610
2,3,3,4,3,2,2,2,2021-08-06 14:03:59,221610
-1,-2,-2,-4,-5,-4,-2,-2,2021-08-06 14:03:59,237610
-2,-2,-2,-4,-5,-5,-2,-1,2021-08-06 14:03:59,237610
0,-1,1,-1,-1,-1,-1,1,2021-08-06 14:03:59,237610
-3,-3,-2,-4,-3,-3,-3,-2,2021-08-06 14:03:59,237610
0,-1,0,-2,-1,0,0,-1,2021-08-06 14:03:59,237610
-1,-1,-1,0,-2,0,-1,-1,2021-08-06 14:03:59,237610
0,1,-1,0,-1,-3,-1,-2,2021-08-06 14:03:59,238612
0,1,0,0,1,0,-1,-1,2021-08-06 14:03:59,238612
-1,-2,-3,0,0,1,-1,0,2021-08-06 14:03:59,253610
-1,0,1,-1,-2,-1,0,-1,2021-08-06 14:03:59,253610
-3,-1,-1,-2,-3,-1,-1,-1,2021-08-06 14:03:59,269610
2,1,2,2,2,2,0,0,2021-08-06 14:03:59,285611
0,-2,-2,0,2,0,0,0,2021-08-06 14:03:59,285611
-2,-4,-3,-3,-6,-2,-4,-2,2021-08-06 14:03:59,285611
-2,1,0,-3,-8,-5,-1,-1,2021-08-06 14:03:59,285611
1,-1,-1,-2,3,3,1,0,2021-08-06 14:03:59,285611
-2,-1,1,0,2,0,-1,0,2021-08-06 14:03:59,285611
-4,-5,-6,-7,-8,-3,-3,-4,2021-08-06 14:03:59,285611
3,2,5,3,-1,1,1,0,2021-08-06 14:03:59,317611
0,-1,0,4,8,3,1,0,2021-08-06 14:03:59,317611
2,2,1,0,-1,-1,0,1,2021-08-06 14:03:59,317611
-2,-4,-2,-3,-3,-2,-3,-2,2021-08-06 14:03:59,317611
-2,-2,-2,0,0,2,1,-2,2021-08-06 14:03:59,333611
-3,-1,-2,-3,-7,-4,-1,-3,2021-08-06 14:03:59,333611
-2,-1,-3,0,1,-1,-2,-3,2021-08-06 14:03:59,333611
3,3,2,4,1,0,2,1,2021-08-06 14:03:59,333611
0,0,-2,-2,-4,-4,-2,-1,2021-08-06 14:03:59,349616
0,0,0,1,0,0,1,-1,2021-08-06 14:03:59,349616
-3,-3,-4,-3,-3,-2,-2,-3,2021-08-06 14:03:59,349616
-2,0,-1,0,0,-2,1,1,2021-08-06 14:03:59,349616
0,-3,0,1,1,1,0,-2,2021-08-06 14:03:59,376201
-1,1,-1,0,2,-1,-1,1,2021-08-06 14:03:59,376201
-2,0,-2,-2,-2,-3,0,0,2021-08-06 14:03:59,376201
-1,-2,-2,-4,-4,-4,0,-1,2021-08-06 14:03:59,377137
1,-1,-4,-2,1,-1,-2,-1,2021-08-06 14:03:59,397139
1,1,0,-1,-1,-1,-1,-1,2021-08-06 14:03:59,413140
1,1,-2,-1,-1,-1,0,-1,2021-08-06 14:03:59,413140
-1,1,0,-1,-2,-1,-2,-1,2021-08-06 14:03:59,413140
-3,-2,-2,-2,1,-1,-2,-1,2021-08-06 14:03:59,413140
-1,-4,-1,0,-3,-2,0,0,2021-08-06 14:03:59,413140
-2,-1,1,0,-1,-1,-1,-1,2021-08-06 14:03:59,413140
0,0,-3,-4,-1,0,0,-1,2021-08-06 14:03:59,414138
-1,-2,-1,-1,-2,0,-1,-3,2021-08-06 14:03:59,445136
-2,-1,-3,0,-1,0,-2,0,2021-08-06 14:03:59,461137
0,-1,0,-2,0,0,-1,0,2021-08-06 14:03:59,461137
-2,-2,-2,1,-2,-2,-1,-1,2021-08-06 14:03:59,461137
1,3,1,0,-2,-2,0,0,2021-08-06 14:03:59,461137
-1,-2,-1,-1,-1,0,-1,0,2021-08-06 14:03:59,461137
1,0,1,-1,-4,-2,0,-1,2021-08-06 14:03:59,461137
-1,1,1,3,7,3,0,-1,2021-08-06 14:03:59,461137
0,0,0,1,4,1,1,1,2021-08-06 14:03:59,477138
-1,-1,-3,-2,0,-2,-2,-3,2021-08-06 14:03:59,493139
0,0,-1,1,4,1,0,-1,2021-08-06 14:03:59,509138
0,-2,-1,-2,-2,0,-2,-1,2021-08-06 14:03:59,525178
1,0,0,1,-1,0,0,0,2021-08-06 14:03:59,525178
-4,-2,-2,-4,0,-2,-2,-3,2021-08-06 14:03:59,525178
-1,1,2,1,-1,1,-1,-1,2021-08-06 14:03:59,525178
1,0,-1,-2,-2,1,-2,0,2021-08-06 14:03:59,525178
-3,-3,-3,-1,0,-3,-1,-1,2021-08-06 14:03:59,525178
-2,-2,-3,-2,-5,0,-2,-1,2021-08-06 14:03:59,525178
2,0,2,5,7,5,2,1,2021-08-06 14:03:59,525178
0,-1,-1,3,1,1,-1,-1,2021-08-06 14:03:59,526138
-2,-2,-3,-2,-1,-2,-2,1,2021-08-06 14:03:59,526138
-2,-2,-2,-3,-5,-3,-2,0,2021-08-06 14:03:59,526138
-1,-1,0,1,1,-2,-1,1,2021-08-06 14:03:59,526138
0,0,0,2,2,-1,1,0,2021-08-06 14:03:59,526138
-1,-3,-2,-5,-5,-2,-1,-2,2021-08-06 14:03:59,557139
1,2,1,-2,-4,-2,-2,-1,2021-08-06 14:03:59,587138
1,0,1,2,4,3,-1,0,2021-08-06 14:03:59,602653
1,0,1,-1,-1,1,0,-1,2021-08-06 14:03:59,602653
-1,1,0,0,-1,-3,0,-1,2021-08-06 14:03:59,602653
-2,-3,-3,-4,-4,-1,-2,-3,2021-08-06 14:03:59,602653
-2,-2,-2,-4,-7,-5,-2,-1,2021-08-06 14:03:59,602653
2,3,2,1,-1,0,1,1,2021-08-06 14:03:59,602653
-1,1,0,2,1,1,0,0,2021-08-06 14:03:59,602653
1,0,1,0,-2,0,0,-2,2021-08-06 14:03:59,602653
-3,-3,-3,-6,-6,-5,-1,-2,2021-08-06 14:03:59,602653
-2,-2,-1,0,2,0,0,-1,2021-08-06 14:03:59,602653
1,0,-2,0,1,1,-1,0,2021-08-06 14:03:59,617653
1,2,1,3,1,0,1,-1,2021-08-06 14:03:59,617653
1,-2,-2,-4,-4,-3,-3,-3,2021-08-06 14:03:59,617653
-1,-2,0,0,1,1,-2,-1,2021-08-06 14:03:59,617653
-1,-2,-2,0,-1,-1,-3,0,2021-08-06 14:03:59,633653
0,1,-1,-1,-1,-3,-1,0,2021-08-06 14:03:59,649651
-3,-2,-2,-1,-4,-3,-2,-1,2021-08-06 14:03:59,665651
-1,-2,-4,-4,-4,-4,-3,-2,2021-08-06 14:03:59,681652
2,0,-1,-3,-3,0,-3,0,2021-08-06 14:03:59,681652
-1,0,0,2,8,3,3,0,2021-08-06 14:03:59,681652
0,-1,-1,0,2,2,1,0,2021-08-06 14:03:59,681652
-1,0,1,0,-1,0,-1,-2,2021-08-06 14:03:59,681652
-2,-2,1,1,-3,0,-2,-1,2021-08-06 14:03:59,681652
-1,-2,-4,-7,-11,-7,-5,-1,2021-08-06 14:03:59,681652
1,1,0,1,1,0,1,1,2021-08-06 14:03:59,682653
-1,-1,-1,-3,-4,-3,-2,0,2021-08-06 14:03:59,682653
-1,-2,2,4,6,3,1,0,2021-08-06 14:03:59,682653
1,0,1,5,10,7,2,2,2021-08-06 14:03:59,682653
-1,-1,-2,-4,-5,-3,-2,-1,2021-08-06 14:03:59,682653
-2,-3,-2,-4,-10,-7,-3,-2,2021-08-06 14:03:59,682653
-2,-1,-3,-10,-11,-8,-3,-1,2021-08-06 14:03:59,712654
-1,1,0,4,7,4,0,0,2021-08-06 14:03:59,712654
-2,-3,0,0,2,-1,-2,-3,2021-08-06 14:03:59,712654
1,0,0,-1,2,0,0,-1,2021-08-06 14:03:59,712654
2,3,2,2,1,2,2,-1,2021-08-06 14:03:59,744653
-1,-2,-1,-1,-1,-2,0,1,2021-08-06 14:03:59,744653
-2,0,-2,-1,-3,-2,-3,-1,2021-08-06 14:03:59,744653
-2,-2,-4,-2,0,-2,-2,-1,2021-08-06 14:03:59,744653
-4,-4,-3,-5,-5,-3,-2,-3,2021-08-06 14:03:59,744653
3,3,3,5,4,2,1,-1,2021-08-06 14:03:59,744653
-3,-2,-1,-2,-1,-1,1,-2,2021-08-06 14:03:59,745654
1,3,1,0,0,1,2,1,2021-08-06 14:03:59,745654
-2,-1,-3,-1,-1,-1,-2,0,2021-08-06 14:03:59,775692
-4,-4,-3,-4,-5,-3,-3,-1,2021-08-06 14:03:59,775692
-3,-1,-3,-2,-3,-3,-3,-3,2021-08-06 14:03:59,775692
2,2,3,3,6,4,3,2,2021-08-06 14:03:59,775692
0,-2,-1,-2,-4,0,-1,-1,2021-08-06 14:03:59,791651
-1,-2,-2,-2,-2,-2,0,-2,2021-08-06 14:03:59,791651
-1,0,0,0,-1,1,0,0,2021-08-06 14:03:59,791651
-3,-3,-2,-1,-1,-1,-1,0,2021-08-06 14:03:59,791651
0,-2,-2,0,0,0,0,-2,2021-08-06 14:03:59,807651
1,-1,-1,-2,-4,-2,-1,0,2021-08-06 14:03:59,807651
-1,1,2,1,1,0,0,1,2021-08-06 14:03:59,807651
-2,-1,-1,-3,2,0,0,-2,2021-08-06 14:03:59,807651
-2,-1,-2,1,-1,-2,0,-1,2021-08-06 14:03:59,839651
0,1,0,2,1,1,1,0,2021-08-06 14:03:59,855651
-1,-2,-2,-4,-2,-1,-2,-1,2021-08-06 14:03:59,855651
0,-2,-3,-3,-8,-4,-3,-2,2021-08-06 14:03:59,855651
0,2,4,5,8,4,1,0,2021-08-06 14:03:59,871653
-3,-3,-3,-6,-4,-5,-2,-2,2021-08-06 14:03:59,871653
3,4,2,3,2,1,2,2,2021-08-06 14:03:59,871653
-3,-4,-4,-3,-3,-1,-2,-3,2021-08-06 14:03:59,871653
2,1,-4,-3,-2,-3,0,2,2021-08-06 14:03:59,871653
1,-1,-2,-3,-2,-1,-2,-1,2021-08-06 14:03:59,871653
-2,-4,-4,0,-1,0,-1,-2,2021-08-06 14:03:59,871653
-3,-1,0,2,0,-2,-4,-2,2021-08-06 14:03:59,871653
-1,-1,1,2,0,1,-1,-2,2021-08-06 14:03:59,903653
-3,0,2,0,-2,-2,-2,-2,2021-08-06 14:03:59,919651
0,2,0,1,1,-1,1,0,2021-08-06 14:03:59,919651
-2,-3,-4,-2,0,0,-2,-1,2021-08-06 14:03:59,919651
0,-1,-2,-6,-6,-2,-1,1,2021-08-06 14:03:59,919651
1,1,0,2,3,0,1,2,2021-08-06 14:03:59,919651
0,-2,-2,-5,-6,-2,-1,-1,2021-08-06 14:03:59,919651
1,-2,-2,3,6,3,1,1,2021-08-06 14:03:59,920653
-1,-2,-1,0,-3,-2,-2,-2,2021-08-06 14:03:59,920653
-2,-5,-2,-4,-5,0,-2,-1,2021-08-06 14:03:59,920653
0,0,1,1,2,1,-1,1,2021-08-06 14:03:59,935651
0,0,0,-2,-3,-2,-1,-1,2021-08-06 14:03:59,935651
-3,-2,-3,0,-1,-1,-1,-2,2021-08-06 14:03:59,951652
-1,-1,0,-1,-2,-2,-3,-1,2021-08-06 14:03:59,951652
-1,1,0,-1,-2,-1,0,0,2021-08-06 14:03:59,951652
2,2,2,1,0,0,2,0,2021-08-06 14:03:59,951652
0,-2,-2,-2,0,-2,-2,-1,2021-08-06 14:03:59,982652
-1,-3,0,0,-2,-3,-2,0,2021-08-06 14:03:59,982652
-3,-2,-2,0,3,1,1,-1,2021-08-06 14:03:59,982652
0,0,0,-1,-3,-1,-1,0,2021-08-06 14:03:59,982652
-3,-1,1,0,1,0,1,0,2021-08-06 14:03:59,982652
0,-1,0,0,-1,-2,-1,-1,2021-08-06 14:03:59,982652
-2,-2,-4,-3,-2,-4,-2,-1,2021-08-06 14:03:59,997694
1,2,-1,-1,-1,-1,-1,2,2021-08-06 14:03:59,997694
0,0,0,0,1,-1,-2,-1,2021-08-06 14:04:00,013651
-1,-3,-3,-2,0,1,0,-2,2021-08-06 14:04:00,029702
1,-2,-1,0,3,3,-1,-2,2021-08-06 14:04:00,045652
-2,0,0,-2,-3,-2,-1,-2,2021-08-06 14:04:00,060689
-2,-2,-2,-2,-2,-4,-2,-1,2021-08-06 14:04:00,076682
1,0,-1,2,4,2,0,1,2021-08-06 14:04:00,076682
1,-1,-1,-5,-8,-4,-2,-3,2021-08-06 14:04:00,076682
-1,-2,0,1,2,-2,0,1,2021-08-06 14:04:00,076682
0,0,-2,-2,-2,-1,-1,0,2021-08-06 14:04:00,076682
-1,-1,-1,1,-1,0,-1,1,2021-08-06 14:04:00,076682
-1,0,0,0,-1,-2,0,-1,2021-08-06 14:04:00,076682
0,-1,-1,-1,-1,-2,-1,-1,2021-08-06 14:04:00,076682
1,-2,1,0,-1,-1,1,-2,2021-08-06 14:04:00,076682
-3,0,-1,-2,2,-1,-1,0,2021-08-06 14:04:00,077653
0,-1,-2,1,1,-1,-1,0,2021-08-06 14:04:00,077653
-2,-2,-2,0,-1,-1,0,-2,2021-08-06 14:04:00,077653
-1,-3,-2,-2,-1,-1,-1,0,2021-08-06 14:04:00,107651
1,1,0,0,-1,0,1,0,2021-08-06 14:04:00,107651
-2,0,-1,-2,-1,-1,-1,0,2021-08-06 14:04:00,107651
0,0,0,0,-1,1,1,1,2021-08-06 14:04:00,107651
1,0,-1,0,1,0,1,1,2021-08-06 14:04:00,107651
-1,-1,-1,-1,-1,-2,1,-2,2021-08-06 14:04:00,107651
-1,0,-2,-1,-2,0,-1,-1,2021-08-06 14:04:00,123652
-2,-2,-3,-3,-4,-1,-2,-2,2021-08-06 14:04:00,139653
-3,1,-1,-1,-3,2,-2,-2,2021-08-06 14:04:00,155651
-3,0,-2,0,1,0,0,0,2021-08-06 14:04:00,155651
0,-1,-1,0,-1,-3,0,-2,2021-08-06 14:04:00,155651
-1,0,-1,-2,0,-1,0,-2,2021-08-06 14:04:00,155651
-1,-2,-3,-1,-3,-2,-3,-2,2021-08-06 14:04:00,155651
1,2,1,-1,-1,1,0,0,2021-08-06 14:04:00,155651
-1,0,-1,0,1,0,-1,-2,2021-08-06 14:04:00,156652
-3,-3,-1,-2,-2,-2,-2,-3,2021-08-06 14:04:00,156652
-1,1,0,1,2,2,-1,0,2021-08-06 14:04:00,186651
0,-1,1,-1,-1,0,-1,-1,2021-08-06 14:04:00,186651
-3,-1,-1,-2,-2,-1,-2,-1,2021-08-06 14:04:00,186651
-2,-4,-2,-2,-1,-2,-1,0,2021-08-06 14:04:00,186651
1,2,2,2,1,1,1,-1,2021-08-06 14:04:00,201652
1,-1,-1,1,1,0,1,1,2021-08-06 14:04:00,201652
2,1,1,0,0,0,0,1,2021-08-06 14:04:00,201652
-3,-4,-3,-4,-3,-3,-3,-4,2021-08-06 14:04:00,201652
2,1,2,2,1,0,2,2,2021-08-06 14:04:00,217652
-3,-2,-2,-1,-1,0,-2,-3,2021-08-06 14:04:00,233651
-1,0,-1,-3,-2,0,1,-1,2021-08-06 14:04:00,249650
0,1,1,0,0,1,1,-2,2021-08-06 14:04:00,265651
-2,-2,-4,-3,-1,-3,-1,-2,2021-08-06 14:04:00,265651
-1,-4,-2,0,1,-2,-2,-2,2021-08-06 14:04:00,265651
0,2,0,0,0,0,1,1,2021-08-06 14:04:00,265651
-1,0,0,0,-4,0,1,1,2021-08-06 14:04:00,265651
-1,-1,-1,-3,1,-1,-1,-1,2021-08-06 14:04:00,265651
-1,-2,-2,-2,-4,-3,-4,-1,2021-08-06 14:04:00,265651
0,-2,0,-1,2,0,-1,-2,2021-08-06 14:04:00,266653
2,1,0,1,2,-1,0,1,2021-08-06 14:04:00,266653
-3,-1,-2,-4,-6,-3,-1,0,2021-08-06 14:04:00,281652
-2,-3,-1,-2,-1,-1,0,-2,2021-08-06 14:04:00,281652
0,0,-3,0,0,-2,-2,-2,2021-08-06 14:04:00,281652
0,0,0,0,-1,0,-2,-1,2021-08-06 14:04:00,281652
0,-2,-1,0,-2,0,-2,-1,2021-08-06 14:04:00,297653
-2,-1,-1,-1,-2,-1,-1,-2,2021-08-06 14:04:00,297653
-2,-1,0,-2,-3,1,0,0,2021-08-06 14:04:00,297653
1,0,0,0,-1,0,0,0,2021-08-06 14:04:00,297653
-1,0,2,0,2,0,1,-1,2021-08-06 14:04:00,313653
1,2,-1,-2,-2,-1,-2,0,2021-08-06 14:04:00,313653
-1,-2,0,-2,-1,-2,-1,-1,2021-08-06 14:04:00,313653
0,-1,0,0,0,0,-2,-1,2021-08-06 14:04:00,313653
-1,-1,-1,0,2,-1,0,-1,2021-08-06 14:04:00,329651
-1,0,-1,-2,-1,0,0,-1,2021-08-06 14:04:00,329651
-1,-1,0,0,0,-1,-2,-1,2021-08-06 14:04:00,329651
0,1,-1,0,-3,-1,-1,0,2021-08-06 14:04:00,329651
2,-1,0,2,0,0,-1,0,2021-08-06 14:04:00,360651
-2,-2,-3,-3,-3,-2,-2,-1,2021-08-06 14:04:00,360651
1,1,1,0,0,0,0,-1,2021-08-06 14:04:00,360651
-2,0,-1,1,1,0,0,0,2021-08-06 14:04:00,360651
-1,1,0,1,0,0,-2,0,2021-08-06 14:04:00,376652
-1,1,-1,0,-2,0,-1,0,2021-08-06 14:04:00,392651
-1,-2,-4,-1,-2,1,0,-2,2021-08-06 14:04:00,392651
0,-1,0,-1,-1,-1,-1,-1,2021-08-06 14:04:00,392651
-2,-2,-2,-1,1,-2,0,-3,2021-08-06 14:04:00,392651
1,0,-1,-2,1,-2,-1,0,2021-08-06 14:04:00,392651
0,-1,-2,-2,0,-1,-2,1,2021-08-06 14:04:00,392651
-1,0,-1,-1,0,1,-2,-1,2021-08-06 14:04:00,392651
-1,-1,-2,-1,-2,2,0,-1,2021-08-06 14:04:00,423652
-1,-1,-1,-1,-1,-1,0,-1,2021-08-06 14:04:00,423652
-2,-3,-1,0,-1,-1,-1,-1,2021-08-06 14:04:00,423652
-2,-1,-3,0,0,-1,-2,0,2021-08-06 14:04:00,423652
0,1,-1,-1,-1,-2,0,1,2021-08-06 14:04:00,423652
-1,0,1,2,-2,-1,-2,-2,2021-08-06 14:04:00,423652
-1,1,0,-1,0,2,-1,-1,2021-08-06 14:04:00,438653
1,-1,0,1,2,0,0,-1,2021-08-06 14:04:00,454651
-1,-2,-2,-1,-1,-2,-2,-2,2021-08-06 14:04:00,454651
-1,-2,0,-1,-1,-2,1,-1,2021-08-06 14:04:00,454651
-2,-3,-3,0,-2,-1,-2,0,2021-08-06 14:04:00,454651
-1,-3,-3,-2,-4,-1,-2,-1,2021-08-06 14:04:00,454651
0,1,1,0,0,0,-1,-1,2021-08-06 14:04:00,486652
-1,-1,-1,0,0,-2,-1,0,2021-08-06 14:04:00,501651
-2,-2,0,-2,0,-2,0,-2,2021-08-06 14:04:00,516652
-1,-2,-2,-1,-2,-1,0,-1,2021-08-06 14:04:00,521651
0,-1,0,-2,-3,-3,-2,-2,2021-08-06 14:04:00,521651
-1,-1,0,-1,4,4,1,0,2021-08-06 14:04:00,521651
-1,0,0,1,-1,-1,0,-1,2021-08-06 14:04:00,521651
0,0,-1,-1,-1,0,0,0,2021-08-06 14:04:00,521651
-1,-2,-2,-2,-4,-3,-2,-1,2021-08-06 14:04:00,521651
-1,1,-1,-1,-1,-1,-3,-2,2021-08-06 14:04:00,522652
-2,-2,-1,-1,-1,-1,-2,1,2021-08-06 14:04:00,522652
1,1,2,1,0,1,1,0,2021-08-06 14:04:00,522652
-1,-2,-1,0,0,1,1,0,2021-08-06 14:04:00,548651
0,-1,-2,-1,-4,-2,-1,-1,2021-08-06 14:04:00,564651
-2,-2,-2,-2,-3,-1,-3,-1,2021-08-06 14:04:00,564651
-2,0,0,-1,-1,0,-1,-1,2021-08-06 14:04:00,564651
-3,-4,-4,-5,-5,-3,0,-2,2021-08-06 14:04:00,564651
4,4,4,3,1,2,2,1,2021-08-06 14:04:00,564651
2,-1,1,0,4,3,-1,-1,2021-08-06 14:04:00,564651
0,0,1,1,0,1,0,0,2021-08-06 14:04:00,564651
0,-2,-1,-1,0,0,1,0,2021-08-06 14:04:00,579651
-3,-3,-3,-3,-5,-5,-3,-2,2021-08-06 14:04:00,594652
0,-2,0,1,0,-1,1,0,2021-08-06 14:04:00,594652
-1,-2,-1,-5,-2,-2,-3,-2,2021-08-06 14:04:00,594652
1,-1,-1,5,10,4,2,0,2021-08-06 14:04:00,610653
-2,-2,-1,-2,-3,-2,0,-3,2021-08-06 14:04:00,610653
-2,-1,-2,-3,-5,-4,-2,-2,2021-08-06 14:04:00,610653
1,2,1,0,2,1,0,1,2021-08-06 14:04:00,610653
2,0,0,0,-1,0,-1,0,2021-08-06 14:04:00,610653
-1,-3,-2,-2,-1,0,0,0,2021-08-06 14:04:00,610653
0,-1,-1,-1,-2,-1,0,-1,2021-08-06 14:04:00,610653
-3,-2,-1,-2,-3,-5,-2,-5,2021-08-06 14:04:00,610653
-4,-1,-1,-3,-2,-1,-3,-1,2021-08-06 14:04:00,656651
-1,0,-1,-1,0,0,0,0,2021-08-06 14:04:00,656651
-1,-1,-1,-1,-1,-2,0,-1,2021-08-06 14:04:00,656651
0,-2,-1,0,-1,0,2,0,2021-08-06 14:04:00,656651
-1,-1,-1,-2,-3,-1,-2,1,2021-08-06 14:04:00,656651
-3,-3,-1,2,4,2,1,-2,2021-08-06 14:04:00,657652
1,0,0,2,1,1,1,2,2021-08-06 14:04:00,672651
-1,-1,-2,-3,-1,-1,-1,-1,2021-08-06 14:04:00,672651
-2,-1,0,2,3,2,0,0,2021-08-06 14:04:00,672651
-1,-2,0,1,2,0,-1,0,2021-08-06 14:04:00,672651
-3,-1,-1,-3,-2,-2,-1,-1,2021-08-06 14:04:00,672651
-2,0,0,0,-2,-3,-1,-1,2021-08-06 14:04:00,672651
-3,-3,-2,-7,-10,-5,-5,-2,2021-08-06 14:04:00,703652
1,0,-2,-1,0,0,1,0,2021-08-06 14:04:00,719651
2,2,2,0,-1,-1,-1,0,2021-08-06 14:04:00,735651
2,2,2,0,-1,1,1,2,2021-08-06 14:04:00,750651
0,-2,-2,0,0,0,1,1,2021-08-06 14:04:00,766651
0,-3,-2,-2,-3,0,0,1,2021-08-06 14:04:00,766651
-2,-4,-1,0,-1,0,-3,-3,2021-08-06 14:04:00,766651
-3,1,0,1,-2,1,1,-3,2021-08-06 14:04:00,766651
9,11,9,13,14,18,15,8,2021-08-06 14:04:00,766651
10,8,5,5,3,5,5,6,2021-08-06 14:04:00,766651
-16,-12,-10,-9,-15,-21,-22,-17,2021-08-06 14:04:00,766651
-14,-12,-11,-12,-12,-13,-14,-8,2021-08-06 14:04:00,767652
-2,-1,-1,-5,-4,-10,-11,-3,2021-08-06 14:04:00,767652
-2,1,2,2,8,21,36,-8,2021-08-06 14:04:00,767652
20,10,7,8,12,19,4,20,2021-08-06 14:04:00,767652
-2,5,1,0,-15,-45,-49,-12,2021-08-06 14:04:00,767652
-17,-19,-14,-14,-13,3,14,3,2021-08-06 14:04:00,782651
33,14,6,5,17,41,44,40,2021-08-06 14:04:00,798652
22,20,11,8,7,-3,-5,7,2021-08-06 14:04:00,814651
-26,-29,-23,-23,-35,-49,-66,-84,2021-08-06 14:04:00,830653
20,6,1,3,0,-4,-30,-15,2021-08-06 14:04:00,830653
-81,-4,7,5,-3,-8,6,11,2021-08-06 14:04:00,830653
-5,-17,-5,1,20,74,119,74,2021-08-06 14:04:00,830653
42,19,7,11,25,40,35,40,2021-08-06 14:04:00,830653
-8,-4,-6,-10,-25,-66,-64,-34,2021-08-06 14:04:00,830653
33,-20,-17,-13,-17,-18,-31,-36,2021-08-06 14:04:00,831653
-17,12,7,6,4,-14,-26,-5,2021-08-06 14:04:00,831653
-25,0,2,1,1,5,20,28,2021-08-06 14:04:00,831653
46,11,3,5,17,42,53,31,2021-08-06 14:04:00,831653
15,12,6,4,4,-3,-13,1,2021-08-06 14:04:00,831653
-18,-12,-7,-6,-15,-24,-31,-33,2021-08-06 14:04:00,831653
21,2,3,8,12,13,2,-22,2021-08-06 14:04:00,831653
-22,0,4,8,11,16,5,-3,2021-08-06 14:04:00,846652
-23,-11,-7,-9,-19,-28,-16,2,2021-08-06 14:04:00,846652
-2,-4,-5,-4,-6,-6,-10,-17,2021-08-06 14:04:00,862652
7,4,4,3,11,32,42,27,2021-08-06 14:04:00,873651
-21,-9,-6,-11,-21,-26,-5,3,2021-08-06 14:04:00,873651
-17,-20,-19,-20,-26,-40,-47,-40,2021-08-06 14:04:00,873651
13,4,0,-5,1,3,0,0,2021-08-06 14:04:00,873651
10,8,4,6,6,7,6,13,2021-08-06 14:04:00,874652
3,4,0,-1,1,14,11,-1,2021-08-06 14:04:00,894652
12,6,5,9,6,9,7,9,2021-08-06 14:04:00,894652
-4,3,3,9,16,2,-13,-12,2021-08-06 14:04:00,894652
-9,-7,-3,-2,-5,-5,-1,-3,2021-08-06 14:04:00,894652
-5,-4,-5,-9,-17,-5,6,2,2021-08-06 14:04:00,910651
-1,-2,-2,6,16,8,0,3,2021-08-06 14:04:00,910651
0,-2,-2,-3,-14,-12,-9,-5,2021-08-06 14:04:00,926652
-5,-3,-4,-10,-16,-4,-1,-8,2021-08-06 14:04:00,942653
1,7,12,30,55,44,26,10,2021-08-06 14:04:00,942653
-20,-13,-13,-25,-51,-67,-47,-23,2021-08-06 14:04:00,942653
-1,-6,-3,0,6,0,-2,-5,2021-08-06 14:04:00,942653
10,5,7,13,12,11,10,14,2021-08-06 14:04:00,942653
-6,-8,-14,-18,-25,-10,-7,0,2021-08-06 14:04:00,958652
17,20,17,32,51,45,24,13,2021-08-06 14:04:00,974695
1,-1,-4,-19,-35,-26,-17,-10,2021-08-06 14:04:00,974695
-12,-7,-8,-1,14,8,7,-1,2021-08-06 14:04:00,974695
-3,-1,9,17,18,4,-5,-5,2021-08-06 14:04:00,974695
1,-10,-14,-18,-22,-11,4,5,2021-08-06 14:04:00,974695
-4,-3,-2,0,-9,-13,-9,-9,2021-08-06 14:04:00,974695
4,9,5,1,2,1,-3,2,2021-08-06 14:04:00,974695
1,-6,-3,4,11,13,-3,-1,2021-08-06 14:04:01,021652
29,31,17,17,25,45,65,42,2021-08-06 14:04:01,021652
-42,-34,-26,-29,-48,-64,-46,-38,2021-08-06 14:04:01,021652
-1,-3,0,-2,-5,-5,0,3,2021-08-06 14:04:01,021652
-5,-3,-2,-6,-10,-15,-9,-2,2021-08-06 14:04:01,021652
1,-1,3,0,2,9,-18,-15,2021-08-06 14:04:01,021652
32,19,9,12,27,44,39,29,2021-08-06 14:04:01,021652
-13,-14,-10,-5,-11,-11,10,7,2021-08-06 14:04:01,022652
-14,-2,-1,-7,-7,-16,-21,-18,2021-08-06 14:04:01,037651
1,-1,-1,1,3,6,-4,-7,2021-08-06 14:04:01,052651
11,6,6,5,8,18,25,21,2021-08-06 14:04:01,052651
4,-2,-1,3,4,-5,-13,-5,2021-08-06 14:04:01,052651
0,3,2,4,8,10,10,4,2021-08-06 14:04:01,052651
-5,-4,-5,-6,-9,-13,-10,-8,2021-08-06 14:04:01,052651
-2,1,5,8,8,9,2,-2,2021-08-06 14:04:01,067653
9,11,5,2,0,8,4,7,2021-08-06 14:04:01,067653
-17,-15,-10,-9,-11,-12,-8,-13,2021-08-06 14:04:01,082652
3,4,2,-4,-8,-9,-6,-2,2021-08-06 14:04:01,098654
-5,-3,-5,-13,-16,-11,-10,-6,2021-08-06 14:04:01,114652
4,6,7,22,31,16,9,5,2021-08-06 14:04:01,114652
3,3,3,4,5,2,1,-1,2021-08-06 14:04:01,114652
2,1,4,4,4,0,-7,-2,2021-08-06 14:04:01,114652
5,7,4,2,3,6,5,4,2021-08-06 14:04:01,114652
-12,-7,-5,-12,-19,-19,-15,-11,2021-08-06 14:04:01,114652
9,5,2,1,-1,4,8,9,2021-08-06 14:04:01,114652
-11,-12,-10,-8,-12,-13,-5,-2,2021-08-06 14:04:01,114652
-2,-3,-3,-4,-3,-6,-8,-5,2021-08-06 14:04:01,115653
-1,0,4,2,2,4,1,1,2021-08-06 14:04:01,115653
-4,-6,-5,-8,-11,-12,-8,-3,2021-08-06 14:04:01,146652
4,6,6,4,1,4,0,3,2021-08-06 14:04:01,161654
-3,-3,-1,4,8,2,0,-1,2021-08-06 14:04:01,177651
-3,-3,-3,-3,-3,0,-4,-9,2021-08-06 14:04:01,177651
6,1,2,-1,-5,-4,5,11,2021-08-06 14:04:01,177651
-7,-6,-3,-4,-3,-4,-1,-4,2021-08-06 14:04:01,177651
-4,-2,-3,0,0,-1,-3,-2,2021-08-06 14:04:01,177651
3,1,-4,-10,-8,-5,-2,0,2021-08-06 14:04:01,177651
-5,-1,-2,-7,-11,-7,-6,-6,2021-08-06 14:04:01,178652
-2,-3,2,10,18,12,3,-1,2021-08-06 14:04:01,178652
2,3,2,5,5,4,3,1,2021-08-06 14:04:01,178652
-8,-7,-5,-5,-7,-9,-9,-8,2021-08-06 14:04:01,178652
3,1,-1,-4,-7,-4,-2,0,2021-08-06 14:04:01,193652
-10,-9,-8,-11,-16,-15,-10,-8,2021-08-06 14:04:01,209651
-2,-2,-2,-5,-9,-3,-2,-3,2021-08-06 14:04:01,225651
4,4,3,5,12,8,8,8,2021-08-06 14:04:01,225651
0,-3,-4,0,0,2,-1,-2,2021-08-06 14:04:01,225651
4,0,2,5,8,3,4,2,2021-08-06 14:04:01,225651
-2,5,1,1,-1,-6,-3,-2,2021-08-06 14:04:01,225651
-7,-7,-7,-11,-14,-10,-3,-4,2021-08-06 14:04:01,225651
3,1,1,-2,-3,1,2,-1,2021-08-06 14:04:01,235651
-1,-2,-1,2,6,2,-1,-2,2021-08-06 14:04:01,235651
1,0,-1,-1,-2,0,2,0,2021-08-06 14:04:01,235651
-4,-4,-4,-2,-2,-5,-6,-4,2021-08-06 14:04:01,235651
0,1,1,-4,-1,0,0,0,2021-08-06 14:04:01,257650
0,-1,-1,-1,-3,-2,-3,-1,2021-08-06 14:04:01,273651
-2,-4,-2,-3,-5,-4,-3,-2,2021-08-06 14:04:01,289651
-1,1,8,2,8,7,5,2,2021-08-06 14:04:01,289651
1,3,-2,14,14,2,2,1,2021-08-06 14:04:01,289651
-2,-3,-6,-3,-6,-2,-1,-1,2021-08-06 14:04:01,289651
0,0,2,4,4,0,-3,1,2021-08-06 14:04:01,289651
-4,-5,-7,-13,-18,-8,-4,-4,2021-08-06 14:04:01,289651
0,-3,-4,-21,-20,-9,-2,2,2021-08-06 14:04:01,289651
-3,-1,4,10,18,6,2,0,2021-08-06 14:04:01,290653
-3,-4,-2,1,-3,0,-3,-1,2021-08-06 14:04:01,305652
2,2,-1,-4,-13,-1,2,2,2021-08-06 14:04:01,321651
2,6,7,12,30,11,3,2,2021-08-06 14:04:01,321651
-2,-3,-5,-10,-15,-9,-3,-3,2021-08-06 14:04:01,321651
0,-1,0,-3,3,2,2,0,2021-08-06 14:04:01,321651
3,4,7,17,17,8,5,4,2021-08-06 14:04:01,321651
-1,-2,-4,-8,-19,-10,-4,-3,2021-08-06 14:04:01,337652
-1,1,0,0,2,1,1,1,2021-08-06 14:04:01,353651
-3,-5,-2,-1,5,0,-1,-4,2021-08-06 14:04:01,368651
-3,-4,-5,-7,-11,-7,-5,-4,2021-08-06 14:04:01,368651
-1,-1,-3,-2,-4,-3,-3,-2,2021-08-06 14:04:01,368651
-2,-1,-4,-4,-2,-1,0,-1,2021-08-06 14:04:01,368651
-1,1,-2,-5,-5,-2,-3,-2,2021-08-06 14:04:01,368651
0,-3,-3,0,8,3,1,1,2021-08-06 14:04:01,368651
0,-1,0,4,4,5,4,2,2021-08-06 14:04:01,368651
-2,-1,-1,-6,-9,-5,-4,-1,2021-08-06 14:04:01,369655
-3,-4,-8,-17,-24,-16,-8,-4,2021-08-06 14:04:01,384651
7,7,12,27,37,22,11,9,2021-08-06 14:04:01,384651
-4,-3,-1,0,1,-2,-3,-5,2021-08-06 14:04:01,400651
3,-1,-2,-4,-6,4,4,2,2021-08-06 14:04:01,400651
-3,-1,-2,-2,-6,-4,-3,-3,2021-08-06 14:04:01,400651
-5,-5,-7,-13,-21,-14,-9,-6,2021-08-06 14:04:01,400651
4,6,7,14,21,14,9,7,2021-08-06 14:04:01,416654
2,1,0,3,1,-1,-2,1,2021-08-06 14:04:01,432651
1,-1,-2,-5,-6,-3,-2,-3,2021-08-06 14:04:01,448651
-4,-3,-5,-11,-12,-8,-4,-4,2021-08-06 14:04:01,448651
-4,-5,-5,-3,-8,-6,-3,-4,2021-08-06 14:04:01,448651
-4,-6,-6,-7,-8,-6,-3,-5,2021-08-06 14:04:01,448651
3,3,4,4,3,3,2,4,2021-08-06 14:04:01,448651
2,2,2,5,8,5,3,2,2021-08-06 14:04:01,448651
2,2,0,3,5,3,1,0,2021-08-06 14:04:01,464652
-1,-1,-1,0,2,-1,-1,-1,2021-08-06 14:04:01,480653
-1,-2,1,7,12,7,0,-2,2021-08-06 14:04:01,496651
-1,-3,-4,-6,-10,-5,-2,-2,2021-08-06 14:04:01,496651
1,2,4,9,11,8,5,3,2021-08-06 14:04:01,496651
-6,-6,-4,-5,-14,-11,-8,-5,2021-08-06 14:04:01,496651
4,2,0,4,6,6,5,4,2021-08-06 14:04:01,496651
0,0,1,2,4,1,-1,0,2021-08-06 14:04:01,496651
-2,-1,-3,-8,-11,-6,-3,-4,2021-08-06 14:04:01,496651
-2,-1,-2,-6,-5,-2,-3,-1,2021-08-06 14:04:01,496651
-2,0,-1,2,-1,-2,-2,-1,2021-08-06 14:04:01,496651
-2,-4,-5,-7,-10,-7,-2,-2,2021-08-06 14:04:01,497652
-4,-3,-3,-7,-6,-4,-4,-2,2021-08-06 14:04:01,527652
4,6,5,5,10,6,2,1,2021-08-06 14:04:01,527652
-2,-3,-2,-4,-4,0,-1,-2,2021-08-06 14:04:01,527652
0,-2,1,6,3,-2,-3,-2,2021-08-06 14:04:01,527652
1,-2,-3,-2,-4,-3,0,0,2021-08-06 14:04:01,527652
2,0,-1,-2,-4,0,0,1,2021-08-06 14:04:01,527652
0,0,-1,10,12,5,1,1,2021-08-06 14:04:01,543652
-2,0,-3,-7,-7,-3,-1,0,2021-08-06 14:04:01,543652
3,2,0,-2,0,-1,1,2,2021-08-06 14:04:01,559652
-3,-3,-5,-4,-9,0,-1,0,2021-08-06 14:04:01,559652
0,-1,1,4,8,3,1,0,2021-08-06 14:04:01,559652
-7,-8,-7,-13,-17,-13,-7,-7,2021-08-06 14:04:01,559652
2,5,4,3,9,5,3,1,2021-08-06 14:04:01,591651
-2,-4,-1,2,0,0,-1,-3,2021-08-06 14:04:01,593652
-1,0,1,2,1,0,-1,-2,2021-08-06 14:04:01,593652
-2,-2,-6,-7,-9,-4,-1,-2,2021-08-06 14:04:01,593652
-6,-4,-3,-10,-17,-11,-6,-4,2021-08-06 14:04:01,593652
0,-1,0,1,-3,-3,-2,0,2021-08-06 14:04:01,593652
-1,-3,-5,2,6,4,0,0,2021-08-06 14:04:01,593652
0,1,-1,-6,3,2,-1,1,2021-08-06 14:04:01,593652
-1,0,8,11,2,-3,-4,-3,2021-08-06 14:04:01,622652
5,5,8,11,7,5,6,5,2021-08-06 14:04:01,638651
0,-4,-16,-5,-4,1,1,1,2021-08-06 14:04:01,654651
1,-3,-9,-24,2,4,1,2,2021-08-06 14:04:01,654651
-6,-8,-9,-17,-18,-12,-9,-5,2021-08-06 14:04:01,654651
-2,0,1,6,9,2,-2,-1,2021-08-06 14:04:01,654651
-1,1,9,13,-2,-2,0,0,2021-08-06 14:04:01,654651
5,5,8,18,11,7,4,5,2021-08-06 14:04:01,654651
-2,-3,-2,-3,-3,-1,-2,-2,2021-08-06 14:04:01,654651
-2,-1,-1,-6,-7,-3,-3,-3,2021-08-06 14:04:01,654651
0,0,1,-5,-2,-2,-1,0,2021-08-06 14:04:01,654651
-2,-4,-3,0,-4,-1,-2,0,2021-08-06 14:04:01,670651
1,2,2,7,9,4,4,2,2021-08-06 14:04:01,686651
-2,-2,-5,-9,-11,-10,-4,-2,2021-08-06 14:04:01,686651
0,1,-1,0,10,6,4,0,2021-08-06 14:04:01,686651
2,4,5,8,0,3,0,1,2021-08-06 14:04:01,686651
1,0,-2,0,1,2,-1,1,2021-08-06 14:04:01,702652
0,-3,-5,-5,-3,-3,-2,-3,2021-08-06 14:04:01,717652
0,0,1,-5,-5,-3,-1,-2,2021-08-06 14:04:01,732652
-1,-2,-3,-5,-11,-13,-5,-3,2021-08-06 14:04:01,732652
6,7,5,11,23,17,8,6,2021-08-06 14:04:01,732652
-6,-7,-7,-10,-11,-7,-5,-4,2021-08-06 14:04:01,732652
-1,3,8,-1,0,-1,0,1,2021-08-06 14:04:01,732652
-3,-2,-9,-1,-1,-2,-3,-3,2021-08-06 14:04:01,732652
-3,-7,-6,-5,-5,-4,-3,-3,2021-08-06 14:04:01,733653
0,0,1,0,1,1,2,1,2021-08-06 14:04:01,733653
-2,-2,0,2,3,0,-1,-1,2021-08-06 14:04:01,733653
0,2,7,8,2,1,1,0,2021-08-06 14:04:01,733653
-3,-3,-6,-7,-12,-9,-5,-2,2021-08-06 14:04:01,764652
-1,-2,-4,-3,-5,-1,-3,-2,2021-08-06 14:04:01,780652
-2,-4,-6,-8,-1,-4,-2,-2,2021-08-06 14:04:01,796651
3,4,9,18,21,12,6,3,2021-08-06 14:04:01,796651
0,-1,-3,1,-5,-2,0,-1,2021-08-06 14:04:01,796651
0,0,0,-2,4,3,0,2,2021-08-06 14:04:01,796651
-1,0,-3,-8,-13,-6,-3,-1,2021-08-06 14:04:01,796651
-2,-3,-2,-7,-7,-7,-4,-3,2021-08-06 14:04:01,796651
-2,-2,-1,2,0,-3,-4,-3,2021-08-06 14:04:01,796651
-1,-2,-6,-3,-2,1,0,-1,2021-08-06 14:04:01,796651
0,1,3,2,5,3,-1,0,2021-08-06 14:04:01,797653
-1,-4,-3,-1,-5,0,1,0,2021-08-06 14:04:01,797653
-7,-6,-6,-4,-6,-7,-6,-6,2021-08-06 14:04:01,828653
5,7,7,7,11,7,5,5,2021-08-06 14:04:01,844651
-1,-4,-4,-4,-8,-5,-2,-3,2021-08-06 14:04:01,844651
0,-2,2,3,7,4,-1,0,2021-08-06 14:04:01,844651
-2,-5,-4,-4,-10,-7,-2,-2,2021-08-06 14:04:01,844651
-2,-2,-1,1,3,0,-1,-2,2021-08-06 14:04:01,844651
-3,-2,-1,1,-2,-1,-3,-4,2021-08-06 14:04:01,844651
-3,-2,-2,-2,-2,-2,-1,-2,2021-08-06 14:04:01,844651
3,2,3,0,5,6,4,2,2021-08-06 14:04:01,860651
4,3,6,19,24,9,5,3,2021-08-06 14:04:01,876651
-1,-4,-3,-1,-16,-8,-4,-3,2021-08-06 14:04:01,876651
-1,-2,-7,-19,-5,-1,-1,-2,2021-08-06 14:04:01,876651
-5,-4,-7,-21,-24,-13,-8,-5,2021-08-06 14:04:01,907651
3,4,6,22,38,20,9,5,2021-08-06 14:04:01,907651
-2,-1,-1,-1,1,-1,-2,-1,2021-08-06 14:04:01,907651
-1,-1,0,7,0,0,0,0,2021-08-06 14:04:01,907651
-2,-3,-1,4,3,0,-1,-2,2021-08-06 14:04:01,907651
6,8,7,-6,-12,-5,0,3,2021-08-06 14:04:01,907651
4,1,-2,0,-1,1,2,1,2021-08-06 14:04:01,907651
-1,-1,0,-1,-2,-3,-2,-2,2021-08-06 14:04:01,907651
0,1,-1,-5,-8,-4,-1,1,2021-08-06 14:04:01,922651
-4,-6,-6,-3,-7,-5,-3,-3,2021-08-06 14:04:01,922651
-1,-1,0,-1,2,1,-1,0,2021-08-06 14:04:01,922651
-2,0,-3,-4,-5,-3,-2,-2,2021-08-06 14:04:01,922651
0,0,0,3,3,-1,-1,-1,2021-08-06 14:04:01,938651
-7,-7,-8,-14,-28,-16,-9,-5,2021-08-06 14:04:01,948652
6,7,9,20,34,19,9,6,2021-08-06 14:04:01,948652
-1,-2,-4,-3,-2,-2,-1,-2,2021-08-06 14:04:01,949653
0,0,-1,0,0,3,4,2,2021-08-06 14:04:01,969651
-7,-9,-13,-15,-21,-13,-9,-8,2021-08-06 14:04:01,969651
4,5,12,21,27,14,8,4,2021-08-06 14:04:01,969651
-3,-1,0,2,-10,-6,-4,-2,2021-08-06 14:04:01,969651
2,2,0,-3,0,1,1,0,2021-08-06 14:04:01,969651
-5,-5,-8,-28,-20,-7,-4,-6,2021-08-06 14:04:01,969651
-4,-5,-6,-6,-7,-6,-4,-2,2021-08-06 14:04:01,984651
2,1,6,11,7,2,1,0,2021-08-06 14:04:01,999652
2,1,5,16,13,6,4,1,2021-08-06 14:04:01,999652
-1,-3,-6,-7,-9,-6,-3,-1,2021-08-06 14:04:01,999652
-2,1,-8,-22,-15,-6,-4,-3,2021-08-06 14:04:01,999652
-4,-3,-2,-2,-2,-1,-5,-3,2021-08-06 14:04:01,999652
0,2,-2,-2,-3,-4,-4,-1,2021-08-06 14:04:02,015651
3,5,9,21,23,11,7,4,2021-08-06 14:04:02,031654
2,1,3,-1,-5,-3,-1,-1,2021-08-06 14:04:02,046651
-1,-2,-1,-4,-4,-2,0,-2,2021-08-06 14:04:02,061652
0,-4,-3,-1,4,2,2,-1,2021-08-06 14:04:02,077651
-3,-4,-1,4,4,0,-3,-2,2021-08-06 14:04:02,093651
-5,-6,-9,-14,-21,-11,-5,-4,2021-08-06 14:04:02,109651
0,1,0,6,6,1,0,2,2021-08-06 14:04:02,109651
1,3,4,9,11,8,3,3,2021-08-06 14:04:02,109651
-1,1,0,0,4,1,1,-1,2021-08-06 14:04:02,109651
0,-1,-4,-9,-14,-5,-1,0,2021-08-06 14:04:02,109651
-2,-1,-2,-7,-3,-6,-3,-3,2021-08-06 14:04:02,109651
-1,2,1,3,9,4,2,3,2021-08-06 14:04:02,109651
2,1,4,16,7,5,3,2,2021-08-06 14:04:02,109651
-4,-3,-4,-8,-17,-9,-7,-4,2021-08-06 14:04:02,109651
-1,0,1,-12,-3,6,2,0,2021-08-06 14:04:02,109651
-1,-2,-9,-2,5,-1,1,-3,2021-08-06 14:04:02,109651
-1,-2,-1,4,5,3,0,-1,2021-08-06 14:04:02,110653
-2,-2,6,10,2,-3,-4,-3,2021-08-06 14:04:02,110653
2,3,3,5,-3,-3,-1,1,2021-08-06 14:04:02,110653
-1,-1,-3,-5,-12,-5,-3,-4,2021-08-06 14:04:02,124653
-2,-4,-10,-10,-1,-1,-2,-2,2021-08-06 14:04:02,140651
-3,-3,-11,-12,-7,-3,-1,-1,2021-08-06 14:04:02,140651
-5,-3,-4,-14,-7,-4,-5,-3,2021-08-06 14:04:02,140651
-4,-2,5,-5,-12,-9,-5,-2,2021-08-06 14:04:02,140651
-4,-5,-6,-1,-5,-2,-3,-4,2021-08-06 14:04:02,140651
7,8,15,21,20,12,8,6,2021-08-06 14:04:02,140651
-1,-3,-7,-4,-8,-6,-2,-2,2021-08-06 14:04:02,140651
0,1,-3,-4,2,2,-1,-1,2021-08-06 14:04:02,172651
-1,-1,2,-5,-7,-3,-2,-3,2021-08-06 14:04:02,188651
-1,1,0,-2,-3,-4,-3,-1,2021-08-06 14:04:02,203650
0,3,6,11,7,5,2,3,2021-08-06 14:04:02,203650
-6,-2,1,-5,-17,-11,-7,-3,2021-08-06 14:04:02,203650
-1,-3,-7,0,7,3,0,1,2021-08-06 14:04:02,203650
-3,-6,-13,2,15,7,2,-2,2021-08-06 14:04:02,203650
-3,-4,-10,-13,-12,-6,-3,-2,2021-08-06 14:04:02,203650
-5,-4,0,-14,-26,-14,-8,-6,2021-08-06 14:04:02,203650
5,8,18,16,23,10,4,3,2021-08-06 14:04:02,203650
-2,-2,-6,1,9,5,0,-1,2021-08-06 14:04:02,203650
1,-3,-8,-2,0,1,2,1,2021-08-06 14:04:02,204653
-3,-6,-6,-11,-13,-9,-2,-3,2021-08-06 14:04:02,218652
1,4,12,7,-3,-2,-2,0,2021-08-06 14:04:02,234651
1,6,18,8,-8,-4,-2,-1,2021-08-06 14:04:02,249652
2,-1,-10,1,2,1,1,0,2021-08-06 14:04:02,249652
3,-1,-12,4,23,17,8,7,2021-08-06 14:04:02,249652
1,17,40,-4,-4,-2,-1,-1,2021-08-06 14:04:02,249652
6,32,66,39,15,4,0,3,2021-08-06 14:04:02,249652
6,3,11,45,16,7,5,5,2021-08-06 14:04:02,249652
-9,-65,-99,-48,-15,-6,-4,-4,2021-08-06 14:04:02,265652
-20,-46,-76,-58,-23,-14,-9,-8,2021-08-06 14:04:02,281652
-5,22,57,24,8,-4,-6,-4,2021-08-06 14:04:02,297651
3,15,0,20,-5,-3,-2,-2,2021-08-06 14:04:02,297651
1,-10,-50,-70,-19,-1,-1,-1,2021-08-06 14:04:02,297651
-16,-33,-35,-61,-41,-19,-12,-11,2021-08-06 14:04:02,297651
-7,-16,-39,-22,-15,-8,-4,-5,2021-08-06 14:04:02,297651
13,31,74,71,48,22,14,8,2021-08-06 14:04:02,297651
15,41,84,89,49,25,14,9,2021-08-06 14:04:02,297651
10,17,24,28,9,4,6,5,2021-08-06 14:04:02,297651
-4,-11,-8,-17,-24,-12,-5,-2,2021-08-06 14:04:02,297651
1,-2,-3,5,29,13,3,3,2021-08-06 14:04:02,298654
-2,1,-1,-1,-7,-5,-2,-2,2021-08-06 14:04:02,328652
-1,5,12,7,2,0,-1,-3,2021-08-06 14:04:02,328652
-9,-15,-30,-15,-15,-12,-8,-6,2021-08-06 14:04:02,328652
-1,-9,-24,-26,-6,0,0,2,2021-08-06 14:04:02,328652
-1,10,21,0,-1,0,-2,0,2021-08-06 14:04:02,328652
1,8,8,17,1,-1,-1,1,2021-08-06 14:04:02,328652
-1,-12,-23,-12,-3,1,0,0,2021-08-06 14:04:02,344652
-10,-16,-19,-38,-21,-11,-7,-8,2021-08-06 14:04:02,344652
-1,8,22,14,5,-2,-3,-4,2021-08-06 14:04:02,374651
3,8,4,16,-1,1,1,0,2021-08-06 14:04:02,390652
0,-8,-16,0,8,5,4,4,2021-08-06 14:04:02,406651
-6,-5,0,-11,-17,-11,-4,-5,2021-08-06 14:04:02,406651
1,5,4,-7,4,3,1,0,2021-08-06 14:04:02,406651
1,-1,-7,-8,-5,-2,0,-1,2021-08-06 14:04:02,406651
-2,-7,-8,-16,-14,-6,-3,-2,2021-08-06 14:04:02,406651
1,3,15,7,0,0,-1,0,2021-08-06 14:04:02,406651
7,13,26,53,38,19,10,7,2021-08-06 14:04:02,406651
4,-1,-20,0,7,8,6,3,2021-08-06 14:04:02,406651
-3,-6,-3,-25,9,5,-1,-2,2021-08-06 14:04:02,406651
-10,-11,-22,-22,-28,-17,-14,-11,2021-08-06 14:04:02,407652
-1,6,10,5,-8,-6,-4,-1,2021-08-06 14:04:02,422653
4,6,12,24,3,0,-1,2,2021-08-06 14:04:02,422653
4,-1,3,-12,-1,1,5,4,2021-08-06 14:04:02,422653
-5,-8,-25,-16,-9,-5,-6,-4,2021-08-06 14:04:02,422653
-1,0,9,3,-3,-2,-1,-2,2021-08-06 14:04:02,454652
0,4,8,18,9,2,1,-1,2021-08-06 14:04:02,470651
4,2,5,12,-2,0,0,1,2021-08-06 14:04:02,502651
0,-2,-3,-26,-3,3,3,1,2021-08-06 14:04:02,502651
-6,-7,-18,-22,-15,-9,-7,-5,2021-08-06 14:04:02,502651
-4,-7,-4,-12,-13,-10,-7,-2,2021-08-06 14:04:02,502651
4,5,4,33,27,17,8,4,2021-08-06 14:04:02,502651
0,3,13,15,4,0,2,1,2021-08-06 14:04:02,502651
7,7,-2,0,1,4,3,3,2021-08-06 14:04:02,502651
0,-1,11,-2,10,5,2,-1,2021-08-06 14:04:02,502651
-7,-8,-19,-15,-17,-11,-8,-8,2021-08-06 14:04:02,503652
-1,-3,-3,17,18,4,2,0,2021-08-06 14:04:02,503652
-5,-3,-5,-9,-22,-11,-5,-3,2021-08-06 14:04:02,503652
4,6,5,1,24,12,5,2,2021-08-06 14:04:02,503652
-4,-5,-2,-11,-17,-11,-7,-4,2021-08-06 14:04:02,503652
5,5,9,6,7,5,3,3,2021-08-06 14:04:02,503652
-7,-6,-7,-8,-8,-9,-7,-5,2021-08-06 14:04:02,518651
1,2,-1,1,3,5,2,3,2021-08-06 14:04:02,518651
0,3,17,24,14,4,2,1,2021-08-06 14:04:02,518651
-4,-4,-14,-13,-20,-11,-5,-4,2021-08-06 14:04:02,518651
-3,-6,-25,-26,-1,0,-1,-2,2021-08-06 14:04:02,550651
-4,-5,22,-6,-11,-8,-7,-4,2021-08-06 14:04:02,566651
1,0,-24,7,6,2,1,-1,2021-08-06 14:04:02,566651
2,3,13,10,-2,0,0,1,2021-08-06 14:04:02,566651
-1,0,21,-6,-11,-6,-3,-3,2021-08-06 14:04:02,566651
1,0,-28,-9,3,5,3,1,2021-08-06 14:04:02,566651
-2,-4,-5,-23,-16,-7,-6,-4,2021-08-06 14:04:02,566651
1,0,12,18,30,15,3,0,2021-08-06 14:04:02,566651
3,4,1,20,8,6,3,4,2021-08-06 14:04:02,582652
-5,-7,-5,-20,-25,-15,-8,-4,2021-08-06 14:04:02,582652
-2,-3,-8,-10,-4,-4,-3,-2,2021-08-06 14:04:02,582652
-6,-7,-13,-16,-17,-10,-7,-6,2021-08-06 14:04:02,582652
-4,-3,5,-3,-13,-9,-3,-5,2021-08-06 14:04:02,598652
4,8,16,28,26,11,6,3,2021-08-06 14:04:02,598652
5,5,9,16,11,6,6,4,2021-08-06 14:04:02,598652
-1,-5,-7,6,-4,0,0,0,2021-08-06 14:04:02,598652
-1,-3,-10,-25,-8,-6,-2,-3,2021-08-06 14:04:02,630657
-3,-2,-5,-7,-7,2,1,-1,2021-08-06 14:04:02,630657
-4,-5,-7,-14,-12,-7,-3,-1,2021-08-06 14:04:02,630657
0,-2,-6,1,5,2,0,-1,2021-08-06 14:04:02,630657
0,-1,0,0,1,1,-2,-1,2021-08-06 14:04:02,646652
1,1,10,1,7,3,1,0,2021-08-06 14:04:02,646652
-3,-1,-7,2,-6,-5,-4,-2,2021-08-06 14:04:02,646652
4,6,18,7,1,3,4,4,2021-08-06 14:04:02,646652
3,6,-2,25,9,2,1,1,2021-08-06 14:04:02,660691
-1,-7,2,-6,2,4,-1,-1,2021-08-06 14:04:02,660691
-5,-10,-28,-11,-3,-1,-2,-3,2021-08-06 14:04:02,660691
-8,-12,-19,-44,-34,-20,-10,-9,2021-08-06 14:04:02,660691
-3,1,11,9,12,1,-1,-1,2021-08-06 14:04:02,694657
2,6,9,9,-2,-4,-2,-1,2021-08-06 14:04:02,694657
4,6,18,15,11,6,3,2,2021-08-06 14:04:02,694657
4,3,-2,3,6,6,4,5,2021-08-06 14:04:02,694657
-1,-4,-1,-2,10,6,3,2,2021-08-06 14:04:02,694657
-3,-1,-4,3,-6,-6,-3,-2,2021-08-06 14:04:02,694657
-2,-2,-5,-7,-7,-4,-3,-1,2021-08-06 14:04:02,710651
-1,1,-5,-20,-9,-6,-2,-1,2021-08-06 14:04:02,710651
0,0,6,12,8,4,2,1,2021-08-06 14:04:02,726688
-4,-3,-6,8,-5,-5,-3,-4,2021-08-06 14:04:02,726688
0,-1,-3,-12,-17,-7,-3,0,2021-08-06 14:04:02,726688
3,6,8,12,27,14,7,5,2021-08-06 14:04:02,726688
2,1,1,3,2,2,0,0,2021-08-06 14:04:02,742651
-2,-4,-7,-11,-15,-9,-4,-3,2021-08-06 14:04:02,742651
-1,-3,1,-5,-5,-3,-1,-1,2021-08-06 14:04:02,742651
-3,-4,-5,0,2,-1,0,-1,2021-08-06 14:04:02,742651
-5,-5,-9,-6,-9,-7,-5,-3,2021-08-06 14:04:02,758651
-2,-1,-6,-6,-12,-8,-3,-2,2021-08-06 14:04:02,758651
0,2,16,11,16,7,4,0,2021-08-06 14:04:02,758651
5,5,5,12,10,2,1,2,2021-08-06 14:04:02,758651
-5,-7,-9,-10,-20,-11,-5,-5,2021-08-06 14:04:02,788653
4,3,0,10,16,10,3,2,2021-08-06 14:04:02,788653
-2,2,3,-3,5,2,0,0,2021-08-06 14:04:02,788653
1,1,-6,15,19,12,5,1,2021-08-06 14:04:02,788653
-3,-6,-5,-17,-15,-9,-5,-5,2021-08-06 14:04:02,804650
-3,-1,1,1,0,-1,-1,0,2021-08-06 14:04:02,804650
0,1,5,5,1,-1,0,0,2021-08-06 14:04:02,804650
0,-4,-3,8,-4,-5,-1,0,2021-08-06 14:04:02,804650
-3,-1,1,-10,-11,-5,-2,-2,2021-08-06 14:04:02,819703
-3,-6,-9,-10,-12,-8,-4,-5,2021-08-06 14:04:02,819703
1,1,-10,-28,-7,0,0,1,2021-08-06 14:04:02,835651
-9,-7,6,-22,-17,-11,-9,-9,2021-08-06 14:04:02,835651
3,5,-12,28,20,9,4,3,2021-08-06 14:04:02,835651
1,3,10,14,7,4,4,1,2021-08-06 14:04:02,835651
2,3,10,6,11,7,2,1,2021-08-06 14:04:02,835651
-1,-2,-7,-8,-12,-6,-3,-2,2021-08-06 14:04:02,835651
-2,-3,-12,-17,-4,-2,-2,-1,2021-08-06 14:04:02,866676
-3,-3,-2,-3,-5,-5,-3,-2,2021-08-06 14:04:02,866676
1,0,2,21,17,8,3,1,2021-08-06 14:04:02,866676
-3,-1,3,-3,-9,-6,-3,-2,2021-08-06 14:04:02,866676
1,1,13,8,-2,-1,-1,0,2021-08-06 14:04:02,882676
6,7,-2,0,15,10,5,5,2021-08-06 14:04:02,898676
-7,-8,-6,-14,-15,-7,-5,-6,2021-08-06 14:04:02,930678
-4,-3,13,8,-3,-7,-6,-4,2021-08-06 14:04:02,930678
8,11,16,42,28,17,8,6,2021-08-06 14:04:02,930678
-5,-12,-35,-49,-26,-12,-7,-4,2021-08-06 14:04:02,930678
-8,-14,-17,-37,-23,-13,-7,-5,2021-08-06 14:04:02,930678
-6,-7,-21,-25,-22,-14,-8,-5,2021-08-06 14:04:02,930678
4,4,15,22,20,8,5,2,2021-08-06 14:04:02,931676
2,5,17,20,6,4,2,1,2021-08-06 14:04:02,931676
3,3,6,16,14,7,3,0,2021-08-06 14:04:02,931676
-4,-5,-11,-10,-9,-5,-2,-1,2021-08-06 14:04:02,931676
-4,-4,0,-8,-10,-8,-5,-3,2021-08-06 14:04:02,931676
3,5,6,21,18,9,4,1,2021-08-06 14:04:02,931676
3,5,4,14,7,3,3,2,2021-08-06 14:04:02,946675
-2,-1,4,-13,-14,-3,-1,-2,2021-08-06 14:04:02,946675
-3,-7,-7,-17,-12,-7,-3,-2,2021-08-06 14:04:02,962676
-3,-5,-4,0,-1,-3,-4,-2,2021-08-06 14:04:02,962676
-4,-2,-1,-1,-12,-7,-4,-2,2021-08-06 14:04:02,962676
3,1,3,9,10,6,1,2,2021-08-06 14:04:02,962676
1,1,5,11,6,3,1,1,2021-08-06 14:04:02,994676
0,-4,-15,-21,-13,-4,-1,0,2021-08-06 14:04:03,010675
-9,-13,-20,-36,-16,-11,-7,-8,2021-08-06 14:04:03,010675
3,5,0,4,-2,2,2,2,2021-08-06 14:04:03,010675
-2,-2,1,-10,-3,-2,0,-2,2021-08-06 14:04:03,010675
0,4,15,19,-2,-2,-1,2,2021-08-06 14:04:03,010675
1,2,9,10,-2,-2,-1,0,2021-08-06 14:04:03,011676
2,1,-4,6,14,7,4,1,2021-08-06 14:04:03,011676
-4,-1,2,-4,-7,-4,-4,-4,2021-08-06 14:04:03,030676
-5,-4,-10,-10,-4,-6,-5,-5,2021-08-06 14:04:03,030676
2,-5,-16,2,6,8,6,5,2021-08-06 14:04:03,030676
-2,-4,8,3,13,6,1,-1,2021-08-06 14:04:03,030676
-2,-5,-18,-1,-6,-3,-1,-3,2021-08-06 14:04:03,042675
1,2,2,-15,-1,-3,-2,-2,2021-08-06 14:04:03,042675
3,7,16,8,-4,-3,-2,0,2021-08-06 14:04:03,042675
2,6,16,33,18,8,4,1,2021-08-06 14:04:03,042675
-1,-1,-1,8,-5,-3,-2,-2,2021-08-06 14:04:03,058675
-5,-9,-23,-37,-16,-4,-1,-4,2021-08-06 14:04:03,074674
-2,-4,-6,-24,-6,-2,-2,-3,2021-08-06 14:04:03,089674
-3,0,0,0,-6,-4,-2,-1,2021-08-06 14:04:03,089674
-1,1,8,5,9,2,-1,0,2021-08-06 14:04:03,089674
3,5,12,39,15,5,1,3,2021-08-06 14:04:03,089674
1,2,-2,5,0,-1,1,1,2021-08-06 14:04:03,089674
4,2,-4,-7,11,11,5,3,2021-08-06 14:04:03,089674
0,-2,-3,-13,-13,-7,-3,-2,2021-08-06 14:04:03,105675
-3,-5,-1,-1,-8,-6,-3,-2,2021-08-06 14:04:03,121675
1,4,6,17,9,2,-1,0,2021-08-06 14:04:03,121675
-8,-6,-6,-6,-27,-24,-13,-10,2021-08-06 14:04:03,121675
11,12,9,23,33,27,16,15,2021-08-06 14:04:03,121675
-1,-5,-9,-37,-6,3,1,-1,2021-08-06 14:04:03,121675
-4,-4,8,3,2,-3,-1,-4,2021-08-06 14:04:03,121675
-4,-5,-30,-5,-10,-8,-5,-6,2021-08-06 14:04:03,121675
-6,-8,-2,-11,-16,-12,-7,-6,2021-08-06 14:04:03,137676
2,7,17,24,10,3,2,1,2021-08-06 14:04:03,153676
1,-1,-8,-13,-1,-1,-1,-2,2021-08-06 14:04:03,169184
0,-2,-11,-17,-18,-3,0,-1,2021-08-06 14:04:03,169184
-4,-6,-8,-19,-6,-5,-4,-4,2021-08-06 14:04:03,169184
-2,1,7,16,5,-1,-1,-1,2021-08-06 14:04:03,169184
-1,1,-4,10,-5,-4,0,-1,2021-08-06 14:04:03,169184
2,2,13,13,11,7,2,1,2021-08-06 14:04:03,169184
4,5,-3,-7,2,1,3,1,2021-08-06 14:04:03,184183
-3,-4,-3,-6,-2,0,-1,-3,2021-08-06 14:04:03,199186
1,-3,4,19,18,12,1,1,2021-08-06 14:04:03,215184
0,3,4,4,-3,-3,0,1,2021-08-06 14:04:03,215184
-1,2,10,12,2,-1,-1,-1,2021-08-06 14:04:03,215184
-4,-7,-9,-20,-21,-12,-7,-3,2021-08-06 14:04:03,215184
-5,-6,-19,-33,-29,-15,-8,-3,2021-08-06 14:04:03,215184
-3,-5,-1,-16,7,1,0,-2,2021-08-06 14:04:03,215184
-5,-3,-4,-11,-13,-10,-6,-4,2021-08-06 14:04:03,215184
4,8,12,37,27,10,7,3,2021-08-06 14:04:03,216185
3,1,-8,8,2,2,5,2,2021-08-06 14:04:03,216185
-3,-4,10,-21,-8,-1,-2,-3,2021-08-06 14:04:03,216185
-3,-1,-14,-6,-1,1,-1,-1,2021-08-06 14:04:03,246185
-4,-3,-5,-5,-10,-6,-4,-1,2021-08-06 14:04:03,246185
9,13,17,31,30,17,10,7,2021-08-06 14:04:03,246185
0,3,5,7,-5,-6,-2,1,2021-08-06 14:04:03,246185
-2,-1,1,-1,4,2,0,-3,2021-08-06 14:04:03,262185
-5,-8,-9,-14,-17,-12,-6,-6,2021-08-06 14:04:03,278184
2,0,1,8,20,8,2,2,2021-08-06 14:04:03,294184
5,5,4,12,15,7,3,3,2021-08-06 14:04:03,294184
-4,-7,-6,-10,-8,-4,-4,-2,2021-08-06 14:04:03,294184
1,1,0,-1,3,2,3,2,2021-08-06 14:04:03,294184
-6,-5,-1,-8,-21,-11,-6,-5,2021-08-06 14:04:03,294184
2,3,-3,5,13,9,5,3,2021-08-06 14:04:03,294184
-4,-2,0,0,0,-1,-2,-2,2021-08-06 14:04:03,310183
-5,-3,-3,-8,-16,-8,-7,-4,2021-08-06 14:04:03,310183
-2,-1,1,-1,-1,-4,-2,-3,2021-08-06 14:04:03,310183
0,-3,-2,-6,-7,-4,-2,-3,2021-08-06 14:04:03,310183
2,6,13,17,16,8,4,4,2021-08-06 14:04:03,326185
2,3,5,7,1,-1,1,2,2021-08-06 14:04:03,341183
-1,-5,-16,-5,-11,-4,-1,1,2021-08-06 14:04:03,341183
1,2,4,-6,8,4,3,0,2021-08-06 14:04:03,341183
-2,-3,1,-8,-8,-2,-1,-2,2021-08-06 14:04:03,341183
-2,-3,-19,-13,5,2,-2,-3,2021-08-06 14:04:03,341183
-5,-3,7,8,-11,-7,-6,-4,2021-08-06 14:04:03,341183
4,0,-3,-5,6,5,6,5,2021-08-06 14:04:03,342185
-2,-2,2,-6,2,4,1,-1,2021-08-06 14:04:03,372185
1,1,6,9,3,0,0,-1,2021-08-06 14:04:03,372185
1,4,9,6,10,4,0,0,2021-08-06 14:04:03,388183
-2,-1,6,11,-11,-7,-4,-5,2021-08-06 14:04:03,388183
1,2,-1,8,0,-5,-1,-2,2021-08-06 14:04:03,388183
3,-2,-11,5,14,11,4,3,2021-08-06 14:04:03,388183
-2,-3,-3,-22,-7,-3,-2,-1,2021-08-06 14:04:03,388183
-4,-6,-6,7,-8,-3,-4,-5,2021-08-06 14:04:03,388183
0,-1,-9,1,-4,1,1,1,2021-08-06 14:04:03,403184
-3,-7,-11,-48,-18,-10,-5,-5,2021-08-06 14:04:03,403184
-2,0,5,9,3,-1,-1,1,2021-08-06 14:04:03,403184
-4,-2,-3,4,-4,-3,0,-2,2021-08-06 14:04:03,403184
0,1,8,8,-9,-6,-5,-1,2021-08-06 14:04:03,435184
1,1,6,10,1,2,0,1,2021-08-06 14:04:03,451184
-2,-3,-10,-20,-6,-1,-3,-2,2021-08-06 14:04:03,467185
-4,-8,-10,-12,-10,-6,-5,-4,2021-08-06 14:04:03,467185
0,-1,2,4,-1,-3,-3,-1,2021-08-06 14:04:03,467185
2,4,11,15,13,6,5,3,2021-08-06 14:04:03,467185
1,1,1,7,6,2,2,0,2021-08-06 14:04:03,467185
-3,-1,-1,-1,-7,-5,-5,-2,2021-08-06 14:04:03,467185
-1,-4,-7,-18,-8,-3,-1,0,2021-08-06 14:04:03,468186
0,5,11,16,6,2,-2,1,2021-08-06 14:04:03,468186
2,1,6,15,8,3,2,1,2021-08-06 14:04:03,468186
-2,-3,-20,-26,-9,-4,-2,-1,2021-08-06 14:04:03,468186
-7,-11,-10,-34,-15,-10,-7,-5,2021-08-06 14:04:03,483184
-3,1,0,2,-7,-4,-1,0,2021-08-06 14:04:03,499184
3,6,11,27,24,12,6,3,2021-08-06 14:04:03,529183
5,2,7,16,13,7,3,3,2021-08-06 14:04:03,545185
3,4,6,3,8,7,5,3,2021-08-06 14:04:03,561184
-3,-5,-6,-7,-7,-5,-4,-3,2021-08-06 14:04:03,577183
-3,-1,2,-3,-6,-3,-4,-3,2021-08-06 14:04:03,592185
-2,-1,0,4,5,0,-3,-1,2021-08-06 14:04:03,592185
-2,-3,-6,12,2,-1,-2,-3,2021-08-06 14:04:03,592185
-1,0,-2,-23,-19,-9,-5,-2,2021-08-06 14:04:03,592185
-1,0,1,-4,6,3,3,0,2021-08-06 14:04:03,592185
-5,-5,-3,-8,-11,-6,-1,-3,2021-08-06 14:04:03,608183
-2,-4,-9,-5,10,4,-1,-3,2021-08-06 14:04:03,623185
-3,-6,-2,13,4,0,-2,-3,2021-08-06 14:04:03,639183
4,9,15,6,-9,-4,-1,2,2021-08-06 14:04:03,655183
1,6,4,10,12,7,5,2,2021-08-06 14:04:03,655183
-6,-7,-16,-32,-22,-12,-8,-5,2021-08-06 14:04:03,655183
-3,-5,-9,-8,-3,-2,-1,-2,2021-08-06 14:04:03,655183
-3,-7,-7,-14,-13,-9,-2,-1,2021-08-06 14:04:03,655183
-1,-1,0,10,10,4,2,1,2021-08-06 14:04:03,655183
0,1,10,12,-1,1,2,0,2021-08-06 14:04:03,655183
3,4,11,18,18,7,3,3,2021-08-06 14:04:03,656185
-1,0,1,0,-5,-3,-2,-3,2021-08-06 14:04:03,671185
1,1,3,2,-2,1,0,-2,2021-08-06 14:04:03,671185
-2,-7,-14,-16,-14,-5,-2,-2,2021-08-06 14:04:03,671185
-4,-5,-12,-27,-7,-1,-2,-3,2021-08-06 14:04:03,671185
-1,-5,-6,4,-1,-2,1,0,2021-08-06 14:04:03,671185
-3,-2,4,-10,-13,-9,-6,-3,2021-08-06 14:04:03,671185
-2,2,7,10,-3,-4,-2,-1,2021-08-06 14:04:03,671185
5,4,9,25,17,10,5,3,2021-08-06 14:04:03,671185
4,4,1,15,9,7,2,3,2021-08-06 14:04:03,672185
2,-2,-5,-9,4,4,2,1,2021-08-06 14:04:03,687185
-6,-8,-7,-18,-17,-11,-9,-6,2021-08-06 14:04:03,703184
-3,-5,0,-5,-8,-6,-5,-4,2021-08-06 14:04:03,719184
-1,0,-14,-17,0,1,0,0,2021-08-06 14:04:03,735184
-4,-3,6,-3,-13,-6,-4,-3,2021-08-06 14:04:03,735184
6,6,6,20,23,11,9,4,2021-08-06 14:04:03,735184
-1,0,-5,6,5,1,0,0,2021-08-06 14:04:03,735184
1,8,22,15,3,2,0,2,2021-08-06 14:04:03,735184
2,2,-1,12,0,-3,-1,1,2021-08-06 14:04:03,735184
-2,-8,-25,-17,0,5,1,-3,2021-08-06 14:04:03,735184
-10,-14,-19,-57,-30,-14,-9,-7,2021-08-06 14:04:03,736187
-7,-10,-17,-16,-14,-8,-7,-6,2021-08-06 14:04:03,736187
-1,2,7,0,-6,-6,-3,0,2021-08-06 14:04:03,736187
2,7,19,19,5,3,3,3,2021-08-06 14:04:03,736187
7,10,14,40,28,14,9,5,2021-08-06 14:04:03,736187
2,0,3,3,10,8,3,-1,2021-08-06 14:04:03,736187
-2,0,-1,-2,0,-2,-3,-3,2021-08-06 14:04:03,736187
-3,-3,-6,-8,-12,-10,-5,-5,2021-08-06 14:04:03,736187
-5,-4,-7,-10,-24,-11,-5,-4,2021-08-06 14:04:03,737186
4,4,6,10,28,14,7,6,2021-08-06 14:04:03,737186
-2,-3,-6,-2,-2,-3,-2,-2,2021-08-06 14:04:03,737186
3,4,3,4,11,6,5,3,2021-08-06 14:04:03,737186
-6,-7,-1,-1,-3,3,2,-4,2021-08-06 14:04:03,737186
3,2,-1,-6,-15,-13,-9,-3,2021-08-06 14:04:03,749185
1,1,-6,-4,3,-1,-2,-1,2021-08-06 14:04:03,749185
-6,-6,-3,-11,-10,-8,-6,-5,2021-08-06 14:04:03,767183
5,8,16,6,-1,-3,-2,1,2021-08-06 14:04:03,783183
-1,-4,-7,2,1,3,3,1,2021-08-06 14:04:03,799184
2,-2,-5,-1,5,6,4,4,2021-08-06 14:04:03,799184
-4,-2,7,3,0,-1,-3,-3,2021-08-06 14:04:03,799184
0,-2,-11,1,-1,-1,1,0,2021-08-06 14:04:03,799184
-3,-1,7,-6,-10,-6,-4,-3,2021-08-06 14:04:03,799184
4,6,8,16,13,7,3,3,2021-08-06 14:04:03,799184
0,-3,-9,-2,5,6,2,1,2021-08-06 14:04:03,799184
-3,-6,-4,-41,-21,-10,-6,-4,2021-08-06 14:04:03,799184
-3,-1,1,5,-8,-6,-5,-3,2021-08-06 14:04:03,800185
2,5,12,18,10,4,4,4,2021-08-06 14:04:03,800185
7,1,-7,18,22,15,7,7,2021-08-06 14:04:03,831185
-6,-8,-18,-29,-16,-10,-7,-6,2021-08-06 14:04:03,847185
-5,-7,-11,-11,-7,-6,-4,-5,2021-08-06 14:04:03,847185
-3,0,8,5,-6,-2,0,-1,2021-08-06 14:04:03,847185
2,6,8,20,3,-1,0,1,2021-08-06 14:04:03,847185
5,7,9,12,25,15,7,6,2021-08-06 14:04:03,847185
-1,-2,0,-7,-12,-7,-3,0,2021-08-06 14:04:03,847185
0,-1,0,13,7,4,2,0,2021-08-06 14:04:03,847185
-1,-1,-2,-12,-12,-8,-4,-2,2021-08-06 14:04:03,863184
-5,-5,-12,-19,-17,-8,-7,-3,2021-08-06 14:04:03,863184
-7,-7,-11,-12,-14,-10,-6,-4,2021-08-06 14:04:03,879183
1,0,0,3,23,12,6,0,2021-08-06 14:04:03,879183
3,7,14,27,18,8,4,4,2021-08-06 14:04:03,879183
0,1,11,20,2,-1,1,1,2021-08-06 14:04:03,879183
1,0,-14,-22,-6,1,1,2,2021-08-06 14:04:03,879183
-11,-15,-16,-47,-44,-27,-15,-10,2021-08-06 14:04:03,879183
1,1,1,1,8,5,3,1,2021-08-06 14:04:03,911186
0,4,6,26,7,4,0,1,2021-08-06 14:04:03,911186
4,6,20,27,27,9,4,1,2021-08-06 14:04:03,911186
4,2,2,10,0,1,-1,1,2021-08-06 14:04:03,911186
-4,-7,-22,-24,-22,-11,-4,-5,2021-08-06 14:04:03,911186
-5,-10,-17,-51,-20,-10,-7,-7,2021-08-06 14:04:03,911186
-5,-8,-15,-10,-9,-3,-4,-3,2021-08-06 14:04:03,943184
-2,1,7,2,7,3,-1,-1,2021-08-06 14:04:03,943184
0,5,19,22,11,2,1,0,2021-08-06 14:04:03,943184
4,5,8,34,5,3,3,2,2021-08-06 14:04:03,943184
3,2,4,-2,18,12,7,2,2021-08-06 14:04:03,943184
-3,-7,-10,-23,-13,-6,-5,-5,2021-08-06 14:04:03,943184
-3,-5,-10,-12,-17,-10,-6,-3,2021-08-06 14:04:03,975183
1,3,5,16,16,5,1,2,2021-08-06 14:04:03,975183
-1,1,2,4,-7,-4,-1,-2,2021-08-06 14:04:03,975183
1,2,-2,11,-3,-3,-1,1,2021-08-06 14:04:03,975183
-3,-5,-5,-15,-4,-1,-2,-2,2021-08-06 14:04:03,975183
-2,2,18,2,-9,-8,-3,-3,2021-08-06 14:04:03,975183
3,4,-4,8,11,8,4,2,2021-08-06 14:04:04,006183
-1,-6,-20,-11,14,11,3,1,2021-08-06 14:04:04,006183
-7,-10,-26,-45,-28,-15,-10,-8,2021-08-06 14:04:04,006183
0,-1,0,12,5,-1,0,-1,2021-08-06 14:04:04,006183
-2,1,9,8,-7,-7,-4,-2,2021-08-06 14:04:04,006183
-2,-2,7,0,-12,-9,-3,-3,2021-08-06 14:04:04,006183
4,8,11,9,8,5,3,4,2021-08-06 14:04:04,022183
5,6,6,21,15,11,6,5,2021-08-06 14:04:04,022183
-3,-4,2,-11,-8,-4,-2,-2,2021-08-06 14:04:04,022183
-1,-1,-10,1,0,-1,-3,-2,2021-08-06 14:04:04,022183
0,2,9,11,13,4,0,0,2021-08-06 14:04:04,054185
0,3,-5,1,0,1,0,1,2021-08-06 14:04:04,070183
-1,-5,-6,-19,-6,-2,-2,-2,2021-08-06 14:04:04,086183
-3,-1,-4,-4,-2,-3,0,-1,2021-08-06 14:04:04,086183
-1,-2,3,3,-5,-4,-3,-3,2021-08-06 14:04:04,086183
4,3,7,21,5,3,1,2,2021-08-06 14:04:04,086183
-1,-2,-3,1,1,2,-1,0,2021-08-06 14:04:04,086183
-3,-6,0,-27,-11,-6,-5,-2,2021-08-06 14:04:04,086183
-7,-9,-19,-29,-29,-15,-8,-6,2021-08-06 14:04:04,087185
3,2,-2,20,34,16,7,3,2021-08-06 14:04:04,087185
0,1,6,19,6,5,2,1,2021-08-06 14:04:04,087185
5,9,12,11,6,5,5,4,2021-08-06 14:04:04,087185
-1,-3,3,2,-4,-3,-1,-2,2021-08-06 14:04:04,102184
-8,-9,-16,-22,-21,-16,-8,-6,2021-08-06 14:04:04,102184
-3,0,-1,-10,-9,-8,-4,-4,2021-08-06 14:04:04,102184
0,5,12,13,4,4,1,2,2021-08-06 14:04:04,103185
1,1,-1,1,6,5,2,3,2021-08-06 14:04:04,132183
-3,-7,-8,-16,-10,-3,0,-1,2021-08-06 14:04:04,132183
-3,-6,-18,-7,-4,-5,-3,-2,2021-08-06 14:04:04,132183
0,1,3,-8,-11,-6,-2,-2,2021-08-06 14:04:04,132183
1,4,10,17,9,4,0,1,2021-08-06 14:04:04,147185
2,2,6,19,30,16,6,2,2021-08-06 14:04:04,163183
3,5,4,0,3,4,1,2,2021-08-06 14:04:04,179183
-3,-6,-8,-7,-5,-6,-4,-4,2021-08-06 14:04:04,179183
0,1,1,-2,-16,-10,-2,-1,2021-08-06 14:04:04,179183
2,0,2,4,5,4,2,1,2021-08-06 14:04:04,179183
1,0,1,-4,3,5,2,1,2021-08-06 14:04:04,179183
-3,-8,-18,-19,-11,-4,-2,-3,2021-08-06 14:04:04,179183
1,6,10,14,13,5,2,3,2021-08-06 14:04:04,179183
-4,-6,2,-20,-21,-12,-7,-3,2021-08-06 14:04:04,179183
-5,-4,-10,10,9,3,-3,-2,2021-08-06 14:04:04,179183
2,5,13,19,8,5,3,2,2021-08-06 14:04:04,180186
1,3,-3,-5,5,5,1,0,2021-08-06 14:04:04,211185
0,-1,-2,6,-3,-3,-3,-2,2021-08-06 14:04:04,227184
1,-1,-1,-12,-11,-5,-1,1,2021-08-06 14:04:04,227184
-8,-7,-11,-15,-9,-7,-7,-5,2021-08-06 14:04:04,227184
0,-3,1,15,12,5,1,0,2021-08-06 14:04:04,227184
5,7,4,5,-1,3,2,4,2021-08-06 14:04:04,227184
-2,-4,-1,-6,-3,-2,-2,-3,2021-08-06 14:04:04,227184
1,1,1,-2,1,2,1,1,2021-08-06 14:04:04,228185
-5,-3,-1,-2,-4,-4,-4,-5,2021-08-06 14:04:04,243184
-1,-2,-3,9,0,-1,0,-1,2021-08-06 14:04:04,243184
0,-1,3,14,5,3,1,1,2021-08-06 14:04:04,243184
1,1,-5,-17,0,5,1,3,2021-08-06 14:04:04,243184
-4,-7,-4,-24,-9,-5,-2,-3,2021-08-06 14:04:04,273185
-4,-2,-12,-3,-10,-9,-6,-4,2021-08-06 14:04:04,273185
-3,-4,-2,4,-11,-9,-4,-3,2021-08-06 14:04:04,273185
4,4,7,13,7,5,3,3,2021-08-06 14:04:04,273185
-2,-1,-3,-9,3,2,0,-2,2021-08-06 14:04:04,288184
-2,0,8,-10,-11,-8,-3,-3,2021-08-06 14:04:04,288184
1,-3,-7,2,-1,-2,-1,0,2021-08-06 14:04:04,288184
-1,-2,-3,27,12,4,2,-2,2021-08-06 14:04:04,288184
1,2,2,0,3,2,2,1,2021-08-06 14:04:04,303185
2,3,0,-12,9,11,6,4,2021-08-06 14:04:04,303185
-6,-9,-19,-37,-20,-10,-7,-8,2021-08-06 14:04:04,303185
-5,-6,1,-6,-16,-10,-6,-6,2021-08-06 14:04:04,303185
1,4,9,22,9,4,0,1,2021-08-06 14:04:04,334186
-4,-3,1,12,-2,-6,-4,-3,2021-08-06 14:04:04,334186
7,11,13,12,7,7,5,5,2021-08-06 14:04:04,334186
-2,-3,-7,-24,-11,-4,-3,-3,2021-08-06 14:04:04,334186
-5,-9,-10,-21,-20,-13,-6,-4,2021-08-06 14:04:04,349186
-2,-3,-5,8,21,12,2,0,2021-08-06 14:04:04,349186
1,2,6,17,11,6,2,1,2021-08-06 14:04:04,349186
4,6,9,16,5,0,-1,2,2021-08-06 14:04:04,349186
1,4,5,16,12,7,1,0,2021-08-06 14:04:04,365185
-1,-5,-9,-25,-21,-7,-3,-1,2021-08-06 14:04:04,365185
-5,-6,-12,-34,-17,-9,-6,-5,2021-08-06 14:04:04,365185
-6,-6,-7,2,4,-2,-3,-5,2021-08-06 14:04:04,365185
1,5,7,9,7,4,2,4,2021-08-06 14:04:04,381185
1,3,8,23,15,5,3,2,2021-08-06 14:04:04,381185
4,7,13,25,14,9,4,3,2021-08-06 14:04:04,381185
4,3,13,8,5,3,1,2,2021-08-06 14:04:04,381185
-1,-4,-18,-9,-13,-7,-3,-2,2021-08-06 14:04:04,413183
-6,-6,-15,-47,-14,-5,-4,-6,2021-08-06 14:04:04,413183
-7,-8,-9,-9,-9,-7,-5,-3,2021-08-06 14:04:04,413183
-2,-6,-15,3,-3,-2,-2,-2,2021-08-06 14:04:04,413183
-1,0,8,1,0,0,-2,-1,2021-08-06 14:04:04,429183
7,10,12,31,13,8,7,8,2021-08-06 14:04:04,429183
2,5,8,0,6,5,2,2,2021-08-06 14:04:04,429183
-3,0,0,-5,-3,-1,-2,-1,2021-08-06 14:04:04,429183
-6,-6,-2,3,-10,-7,-6,-7,2021-08-06 14:04:04,445184
-2,-4,-4,-23,-27,-17,-8,-4,2021-08-06 14:04:04,445184
-2,-1,-3,-1,-7,-3,0,-1,2021-08-06 14:04:04,445184
-1,-2,-8,-6,7,1,0,0,2021-08-06 14:04:04,445184
3,1,4,5,8,8,4,2,2021-08-06 14:04:04,477184
-1,-1,0,4,-3,-4,-4,-2,2021-08-06 14:04:04,492185
2,-3,3,15,3,2,-1,0,2021-08-06 14:04:04,492185
0,2,1,-12,-10,-5,-2,-1,2021-08-06 14:04:04,492185
-3,-7,-16,-18,-14,-10,-4,-5,2021-08-06 14:04:04,492185
0,0,0,3,11,8,0,0,2021-08-06 14:04:04,492185
2,2,1,3,6,3,0,-1,2021-08-06 14:04:04,492185
-2,-5,-4,-18,-14,-7,-4,-3,2021-08-06 14:04:04,492185
-2,-3,0,-3,-4,-3,-1,-1,2021-08-06 14:04:04,508183
-4,-1,-1,5,-2,-5,-4,-2,2021-08-06 14:04:04,523183
-1,1,1,-14,-16,-8,-3,0,2021-08-06 14:04:04,538183
7,8,14,38,31,19,10,6,2021-08-06 14:04:04,538183
1,-1,-7,-5,-4,-2,0,2,2021-08-06 14:04:04,538183
-7,-8,-13,-15,-8,-6,-5,-7,2021-08-06 14:04:04,538183
-4,-3,0,-2,-1,0,-1,-2,2021-08-06 14:04:04,554184
-3,-2,4,3,-5,-5,-5,-3,2021-08-06 14:04:04,570184
2,1,-1,-3,-7,-2,0,1,2021-08-06 14:04:04,586183
3,-1,2,6,8,6,3,2,2021-08-06 14:04:04,586183
0,0,-4,-11,3,0,0,-1,2021-08-06 14:04:04,586183
0,4,2,15,5,1,0,1,2021-08-06 14:04:04,586183
-2,-2,2,3,-2,-1,0,-1,2021-08-06 14:04:04,586183
-2,-1,-5,-24,-22,-12,-4,-3,2021-08-06 14:04:04,586183
-4,-4,-6,-15,-6,-5,-4,-4,2021-08-06 14:04:04,586183
0,-1,-6,-4,-5,-1,0,-1,2021-08-06 14:04:04,586183
1,3,8,14,6,2,-1,0,2021-08-06 14:04:04,586183
2,4,7,5,1,1,1,0,2021-08-06 14:04:04,586183
-1,-5,-6,18,14,7,3,1,2021-08-06 14:04:04,586183
2,-2,-9,-17,7,5,2,1,2021-08-06 14:04:04,587186
-5,-7,-10,-9,-11,-7,-4,-4,2021-08-06 14:04:04,602185
-2,-3,-4,-9,-14,-6,-4,-2,2021-08-06 14:04:04,602185
0,2,8,12,4,-1,-1,0,2021-08-06 14:04:04,602185
3,4,8,16,25,10,6,3,2021-08-06 14:04:04,602185
1,5,9,2,8,5,5,2,2021-08-06 14:04:04,633184
-1,-1,-10,-14,-9,-3,-4,-2,2021-08-06 14:04:04,649184
-6,-7,-7,-1,-10,-8,-6,-4,2021-08-06 14:04:04,665184
-4,-5,-6,-17,-31,-16,-9,-6,2021-08-06 14:04:04,665184
7,8,11,23,54,31,15,8,2021-08-06 14:04:04,665184
-3,-2,2,9,6,0,0,-5,2021-08-06 14:04:04,665184
1,3,0,-20,-6,-4,-1,0,2021-08-06 14:04:04,681185
-8,-10,-15,-13,-23,-14,-8,-7,2021-08-06 14:04:04,681185
-2,-3,5,-4,-8,-7,-4,-1,2021-08-06 14:04:04,681185
-1,-4,-20,-16,-9,-5,-3,-3,2021-08-06 14:04:04,681185
-2,-2,1,9,1,2,0,-1,2021-08-06 14:04:04,681185
-2,-1,1,-2,-3,-3,-3,-2,2021-08-06 14:04:04,681185
0,1,-3,-2,-8,-5,-2,-1,2021-08-06 14:04:04,681185
-1,1,13,28,28,12,4,2,2021-08-06 14:04:04,681185
0,0,1,4,-4,-3,0,-1,2021-08-06 14:04:04,682186
5,7,4,15,17,12,7,6,2021-08-06 14:04:04,682186
0,-3,-3,-4,3,3,1,1,2021-08-06 14:04:04,713183
-3,-3,-7,-8,-14,-9,-4,-4,2021-08-06 14:04:04,729184
-4,-8,-9,-37,-28,-18,-10,-7,2021-08-06 14:04:04,744185
-4,-5,-9,-1,-8,-2,-2,-3,2021-08-06 14:04:04,744185
2,4,9,17,19,10,2,2,2021-08-06 14:04:04,744185
2,5,4,8,0,2,3,3,2021-08-06 14:04:04,744185
-3,-4,-3,-12,1,0,-2,-2,2021-08-06 14:04:04,744185
-6,-8,-6,-12,-19,-10,-4,-6,2021-08-06 14:04:04,744185
-1,-4,-9,-10,-4,-3,-4,-4,2021-08-06 14:04:04,760186
-2,-2,-2,15,6,1,0,-2,2021-08-06 14:04:04,760186
2,2,-2,2,-2,1,2,1,2021-08-06 14:04:04,760186
0,-3,0,-3,-2,0,-1,-1,2021-08-06 14:04:04,760186
-3,-2,-1,-7,-14,-7,-3,-2,2021-08-06 14:04:04,760186
-1,0,9,1,-2,-3,-3,-1,2021-08-06 14:04:04,760186
1,1,-1,10,5,2,1,-1,2021-08-06 14:04:04,760186
1,4,5,13,11,2,2,1,2021-08-06 14:04:04,760186
6,7,13,21,21,13,8,5,2021-08-06 14:04:04,792185
-2,-6,-11,-18,-12,-5,-3,-1,2021-08-06 14:04:04,792185
-10,-9,-14,-39,-24,-11,-7,-5,2021-08-06 14:04:04,808183
-9,-11,-10,-11,-3,-3,-4,-5,2021-08-06 14:04:04,817183
-2,-2,-12,-10,-7,-5,-2,-1,2021-08-06 14:04:04,817183
3,5,15,11,5,3,2,2,2021-08-06 14:04:04,817183
6,11,17,43,30,15,7,2,2021-08-06 14:04:04,817183
2,4,5,3,10,5,3,1,2021-08-06 14:04:04,818187
-6,-9,-15,-35,-20,-11,-8,-4,2021-08-06 14:04:04,824183
-5,-6,-3,-5,-8,-2,-3,-4,2021-08-06 14:04:04,824183
0,-1,-10,-1,-1,-3,-3,-2,2021-08-06 14:04:04,824183
4,5,11,10,8,4,4,2,2021-08-06 14:04:04,824183
-4,-1,0,-4,-19,-13,-6,-6,2021-08-06 14:04:04,856184
1,0,8,26,24,11,5,4,2021-08-06 14:04:04,856184
10,16,24,24,13,10,9,8,2021-08-06 14:04:04,856184
2,1,-5,1,9,6,1,0,2021-08-06 14:04:04,856184
-10,-15,-29,-53,-34,-19,-12,-8,2021-08-06 14:04:04,856184
-10,-12,-14,-37,-32,-15,-9,-8,2021-08-06 14:04:04,856184
-4,-6,-5,18,18,6,-1,-3,2021-08-06 14:04:04,872186
7,10,15,23,29,15,9,6,2021-08-06 14:04:04,872186
2,4,13,26,0,-1,-1,-1,2021-08-06 14:04:04,888186
4,8,13,13,4,2,3,2,2021-08-06 14:04:04,888186
2,-3,-16,-19,-2,1,-1,1,2021-08-06 14:04:04,888186
-9,-14,-10,-35,-37,-22,-12,-7,2021-08-06 14:04:04,888186
1,-2,-13,3,17,8,2,1,2021-08-06 14:04:04,919185
-1,2,4,4,-1,0,-2,-1,2021-08-06 14:04:04,934187
1,1,11,18,7,1,0,0,2021-08-06 14:04:04,934187
0,4,1,-7,-4,-3,-2,-1,2021-08-06 14:04:04,934187
3,8,16,16,-1,-1,4,2,2021-08-06 14:04:04,934187
5,6,7,24,34,17,8,5,2021-08-06 14:04:04,934187
-3,-7,-22,-27,-6,-2,-2,-2,2021-08-06 14:04:04,935185
-12,-17,-26,-40,-35,-20,-15,-9,2021-08-06 14:04:04,935185
1,2,5,-7,-7,-8,-4,-1,2021-08-06 14:04:04,966184
6,7,8,19,18,13,7,4,2021-08-06 14:04:04,966184
-1,2,17,22,3,1,1,0,2021-08-06 14:04:04,966184
0,-2,-7,6,1,-1,-1,-2,2021-08-06 14:04:04,966184
-6,-5,0,-1,0,2,0,-2,2021-08-06 14:04:04,966184
3,5,-3,-11,-2,0,2,2,2021-08-06 14:04:04,966184
-7,-9,-20,-29,-28,-17,-8,-5,2021-08-06 14:04:04,967185
1,2,4,9,11,8,4,0,2021-08-06 14:04:04,967185
-3,-5,-5,-3,-11,-7,-3,-4,2021-08-06 14:04:04,982185
-1,0,5,12,10,1,-3,-2,2021-08-06 14:04:04,982185
4,5,12,27,10,9,5,3,2021-08-06 14:04:04,982185
-1,-3,-11,-36,-30,-17,-8,-3,2021-08-06 14:04:04,982185
3,2,3,10,18,15,5,2,2021-08-06 14:04:05,013184
-2,-3,-6,-15,0,-3,-2,-4,2021-08-06 14:04:05,028184
-1,0,2,7,5,4,0,0,2021-08-06 14:04:05,044185
1,2,7,11,1,1,1,0,2021-08-06 14:04:05,060185
1,0,-4,-5,2,0,0,2,2021-08-06 14:04:05,076185
-6,-9,-6,-2,-19,-12,-7,-4,2021-08-06 14:04:05,076185
-2,0,2,-1,0,-3,-2,0,2021-08-06 14:04:05,076185
-5,-5,-9,-16,-7,-2,-3,-4,2021-08-06 14:04:05,076185
6,11,13,5,30,15,8,7,2021-08-06 14:04:05,076185
-4,-8,-13,-10,-8,-7,-5,-3,2021-08-06 14:04:05,076185
1,4,9,0,-4,-1,0,2,2021-08-06 14:04:05,076185
3,4,6,36,21,9,7,4,2021-08-06 14:04:05,076185
-1,-4,-8,-14,-8,-4,-3,0,2021-08-06 14:04:05,077185
-2,-5,-10,-21,-11,-5,-1,0,2021-08-06 14:04:05,077185
-2,-3,1,-4,-1,3,1,-2,2021-08-06 14:04:05,077185
2,3,11,16,14,7,4,4,2021-08-06 14:04:05,077185
-5,-5,-1,6,-6,-3,-3,-5,2021-08-06 14:04:05,092184
2,3,3,-1,-6,-3,0,0,2021-08-06 14:04:05,108184
-2,0,7,-1,-10,-10,-4,-2,2021-08-06 14:04:05,108184
1,5,4,22,3,1,-1,1,2021-08-06 14:04:05,108184
-3,-9,-14,-17,-9,-3,-2,-3,2021-08-06 14:04:05,108184
-6,-13,-35,-55,-10,-1,-2,-2,2021-08-06 14:04:05,108184
-3,-3,2,-3,10,5,0,-4,2021-08-06 14:04:05,108184
2,3,-3,19,7,3,1,0,2021-08-06 14:04:05,109187
2,7,17,16,10,4,2,0,2021-08-06 14:04:05,124185
-1,0,10,10,-9,-2,1,0,2021-08-06 14:04:05,140184
-2,-6,-21,-31,-18,-10,-4,-4,2021-08-06 14:04:05,156183
-3,-2,13,2,-8,-6,-4,-4,2021-08-06 14:04:05,156183
1,3,-1,23,12,4,2,2,2021-08-06 14:04:05,156183
2,-1,-1,7,4,4,1,0,2021-08-06 14:04:05,156183
-1,-2,-2,-10,16,10,2,-1,2021-08-06 14:04:05,156183
-1,-4,-10,-14,-18,-10,-5,-2,2021-08-06 14:04:05,156183
0,2,9,13,2,1,0,-1,2021-08-06 14:04:05,172183
5,9,17,20,18,8,4,4,2021-08-06 14:04:05,172183
-7,-8,-15,-17,-25,-16,-9,-6,2021-08-06 14:04:05,172183
1,1,5,-8,5,2,1,0,2021-08-06 14:04:05,172183
-2,-5,-5,-1,-9,-7,-7,-3,2021-08-06 14:04:05,188183
0,-2,-19,-4,8,6,3,2,2021-08-06 14:04:05,190183
0,1,4,-16,-12,-7,-4,-3,2021-08-06 14:04:05,190183
-4,-4,-4,-9,-12,-8,-6,-2,2021-08-06 14:04:05,191186
