EMG 1,EMG 2,EMG 3,EMG 4,EMG 5,EMG 6,EMG 7,EMG 8,Timestamp,Milliseconds
-4,-5,-4,-10,-14,-8,-5,-5,2021-08-06 14:04:18,943687
-1,0,2,4,1,0,1,0,2021-08-06 14:04:18,943687
0,0,-3,-1,0,0,-1,2,2021-08-06 14:04:18,943687
-4,-4,-2,3,2,1,-2,-4,2021-08-06 14:04:18,943687
1,-1,-3,0,0,-1,0,1,2021-08-06 14:04:18,943687
-2,1,-2,-6,-6,-2,-3,-3,2021-08-06 14:04:18,943687
0,0,-1,-6,-10,-6,-3,-2,2021-08-06 14:04:18,943687
0,-1,0,1,1,1,0,2,2021-08-06 14:04:18,943687
-1,-1,0,7,10,5,3,-1,2021-08-06 14:04:18,943687
-1,-3,-4,-12,-17,-10,-5,0,2021-08-06 14:04:18,943687
2,3,4,13,25,10,5,0,2021-08-06 14:04:18,959686
-3,-2,-1,-1,-3,-1,-3,-2,2021-08-06 14:04:18,959686
0,1,1,-4,-9,-4,-2,-1,2021-08-06 14:04:18,959686
2,0,2,7,17,6,4,1,2021-08-06 14:04:18,959686
0,0,0,-5,-9,-2,-1,-1,2021-08-06 14:04:18,991687
0,-2,1,4,4,3,3,2,2021-08-06 14:04:18,991687
0,2,1,2,4,1,-1,2,2021-08-06 14:04:19,007687
-3,-4,-5,-11,-18,-7,-5,-4,2021-08-06 14:04:19,007687
-2,-2,-2,-5,-5,-4,-3,-3,2021-08-06 14:04:19,007687
0,-1,-1,-4,-1,-4,-2,-2,2021-08-06 14:04:19,007687
0,1,4,7,5,5,2,2,2021-08-06 14:04:19,007687
-5,-4,-7,-14,-20,-13,-7,-5,2021-08-06 14:04:19,007687
1,0,1,13,24,10,3,1,2021-08-06 14:04:19,023686
-1,0,-2,-3,-5,-2,0,-2,2021-08-06 14:04:19,023686
4,5,3,1,-1,1,1,2,2021-08-06 14:04:19,062688
-2,-1,-3,-4,-6,-1,-3,0,2021-08-06 14:04:19,062688
-5,-7,-8,-14,-18,-11,-7,-5,2021-08-06 14:04:19,062688
7,9,15,26,26,17,8,6,2021-08-06 14:04:19,062688
-3,-4,-4,-4,-8,-3,0,-3,2021-08-06 14:04:19,062688
2,4,4,13,16,6,4,3,2021-08-06 14:04:19,062688
-1,-2,-3,-1,0,-2,-2,0,2021-08-06 14:04:19,086687
-4,-6,-11,-16,-17,-10,-5,-3,2021-08-06 14:04:19,086687
-2,-1,-1,3,6,4,-1,-1,2021-08-06 14:04:19,086687
1,-1,0,2,5,5,3,2,2021-08-06 14:04:19,086687
-1,-4,-5,-4,-5,-4,-3,-2,2021-08-06 14:04:19,086687
-3,-1,-3,-15,-22,-12,-6,-3,2021-08-06 14:04:19,086687
5,6,6,14,28,14,7,5,2021-08-06 14:04:19,086687
-2,-1,-3,-2,2,-1,-1,-4,2021-08-06 14:04:19,086687
-6,-8,-8,-15,-23,-14,-8,-7,2021-08-06 14:04:19,102686
9,9,15,26,37,24,14,9,2021-08-06 14:04:19,102686
-1,-2,-2,2,3,2,0,-2,2021-08-06 14:04:19,117686
1,2,1,6,10,5,3,1,2021-08-06 14:04:19,117686
0,3,4,10,11,6,2,2,2021-08-06 14:04:19,148687
-6,-8,-12,-21,-25,-18,-10,-7,2021-08-06 14:04:19,164686
-6,-6,-5,-9,-8,-6,-4,-2,2021-08-06 14:04:19,179686
5,5,9,7,0,3,2,4,2021-08-06 14:04:19,194686
-1,-1,-1,-5,-2,-2,0,-1,2021-08-06 14:04:19,225686
-4,-4,-5,-8,-8,-4,-3,-2,2021-08-06 14:04:19,225686
2,2,3,2,-2,-1,0,1,2021-08-06 14:04:19,241688
-7,-6,-8,-10,-10,-7,-7,-7,2021-08-06 14:04:19,241688
1,2,4,4,4,3,2,0,2021-08-06 14:04:19,241688
-1,-1,-2,0,1,0,0,0,2021-08-06 14:04:19,241688
1,2,0,-4,-6,-5,-3,-1,2021-08-06 14:04:19,241688
0,-3,-3,-8,-9,-6,-3,-3,2021-08-06 14:04:19,241688
-4,-3,-4,-4,-5,-3,-3,-3,2021-08-06 14:04:19,241688
-3,-1,-2,1,1,-3,-1,-2,2021-08-06 14:04:19,241688
1,2,3,6,9,9,5,2,2021-08-06 14:04:19,241688
-1,-2,0,-4,-10,-5,-2,-1,2021-08-06 14:04:19,241688
2,3,1,2,8,2,1,0,2021-08-06 14:04:19,242688
-12,-12,-15,-36,-51,-25,-14,-9,2021-08-06 14:04:19,242688
6,6,11,38,59,28,12,6,2021-08-06 14:04:19,242688
-3,-3,-5,-9,-15,-9,-4,-4,2021-08-06 14:04:19,242688
1,2,3,12,22,12,5,3,2021-08-06 14:04:19,242688
-1,-1,-2,-6,-9,-4,-3,-1,2021-08-06 14:04:19,242688
-7,-6,-10,-24,-37,-23,-10,-6,2021-08-06 14:04:19,242688
1,-1,0,0,3,3,2,2,2021-08-06 14:04:19,242688
-1,-1,-1,5,7,5,2,-3,2021-08-06 14:04:19,257687
5,2,3,7,9,3,2,1,2021-08-06 14:04:19,273688
1,1,-1,3,4,5,0,0,2021-08-06 14:04:19,288686
-1,0,0,-1,-3,-2,0,0,2021-08-06 14:04:19,303686
0,-1,-2,-8,-16,-7,-3,-2,2021-08-06 14:04:19,335687
0,1,2,13,20,10,2,0,2021-08-06 14:04:19,335687
-2,-4,-5,-13,-17,-9,-6,-4,2021-08-06 14:04:19,335687
-5,-4,-5,-10,-11,-8,-4,-2,2021-08-06 14:04:19,335687
2,3,4,8,13,8,4,3,2021-08-06 14:04:19,335687
-2,1,1,3,4,1,-1,-2,2021-08-06 14:04:19,335687
-2,-5,-4,-8,-13,-6,-5,-2,2021-08-06 14:04:19,335687
-2,-1,0,3,5,4,-2,-2,2021-08-06 14:04:19,336687
-1,-2,-1,-3,-6,-3,0,2,2021-08-06 14:04:19,336687
1,3,5,11,16,8,4,1,2021-08-06 14:04:19,336687
-5,-5,-8,-13,-21,-13,-6,-4,2021-08-06 14:04:19,336687
-1,0,-3,-12,-13,-12,-4,-1,2021-08-06 14:04:19,336687
3,4,3,11,15,13,9,5,2021-08-06 14:04:19,336687
-5,-6,-7,-9,-7,-5,-5,-5,2021-08-06 14:04:19,336687
-3,-3,0,3,-2,-1,0,-1,2021-08-06 14:04:19,337688
0,-2,1,4,8,1,0,-1,2021-08-06 14:04:19,337688
-2,-3,-4,-10,-18,-12,-5,-3,2021-08-06 14:04:19,351687
-1,-2,0,-4,-5,-4,-2,-1,2021-08-06 14:04:19,367686
-6,-8,-7,-12,-17,-10,-6,-3,2021-08-06 14:04:19,367686
-1,0,1,7,13,9,1,0,2021-08-06 14:04:19,367686
1,3,1,-1,2,0,-1,1,2021-08-06 14:04:19,382688
-1,-1,0,2,2,3,2,1,2021-08-06 14:04:19,382688
-1,-1,-1,-6,-10,-8,-4,-1,2021-08-06 14:04:19,382688
3,4,2,5,2,3,4,2,2021-08-06 14:04:19,382688
-5,-5,-3,4,8,0,-4,-4,2021-08-06 14:04:19,398687
-1,-4,-4,1,3,0,-1,-2,2021-08-06 14:04:19,414686
1,6,2,-8,-12,-8,-3,-1,2021-08-06 14:04:19,415687
3,4,6,12,19,12,4,2,2021-08-06 14:04:19,415687
0,1,-1,2,5,5,1,0,2021-08-06 14:04:19,415687
-2,-5,-4,-3,-5,-2,-4,-3,2021-08-06 14:04:19,416688
-1,-3,-1,1,3,1,0,0,2021-08-06 14:04:19,416688
-2,-4,-7,-11,-15,-10,-4,-4,2021-08-06 14:04:19,416688
0,-2,-1,-3,-4,-3,-2,0,2021-08-06 14:04:19,430687
0,-2,-3,-3,-4,-2,1,0,2021-08-06 14:04:19,430687
2,4,4,11,12,7,3,2,2021-08-06 14:04:19,430687
-1,-2,-1,1,2,0,-2,-1,2021-08-06 14:04:19,430687
-2,-5,-5,-12,-15,-7,0,-1,2021-08-06 14:04:19,446689
2,4,7,19,29,16,8,5,2021-08-06 14:04:19,462687
-2,-2,0,1,2,2,0,-3,2021-08-06 14:04:19,462687
-1,0,1,2,5,0,1,0,2021-08-06 14:04:19,462687
0,2,2,-1,-5,-2,-2,-1,2021-08-06 14:04:19,494688
-1,0,-2,-9,-14,-8,-6,-2,2021-08-06 14:04:19,510687
-3,-3,-3,-8,-12,-5,-3,-3,2021-08-06 14:04:19,510687
-5,-5,-5,-6,-5,-7,-6,-4,2021-08-06 14:04:19,510687
1,2,3,3,1,2,1,2,2021-08-06 14:04:19,510687
1,-1,-3,-2,4,4,3,1,2021-08-06 14:04:19,510687
5,5,6,8,12,6,4,3,2021-08-06 14:04:19,511688
-4,-2,-6,-7,-19,-7,-4,-2,2021-08-06 14:04:19,511688
-2,-3,-1,2,2,1,-1,-3,2021-08-06 14:04:19,511688
-5,-6,-5,-10,-16,-10,-6,-4,2021-08-06 14:04:19,511688
2,2,2,4,8,3,2,1,2021-08-06 14:04:19,511688
-2,-2,-3,-6,-11,-4,0,-2,2021-08-06 14:04:19,511688
-1,-1,-3,-2,0,-2,-2,-1,2021-08-06 14:04:19,542687
1,2,3,3,4,-1,0,-1,2021-08-06 14:04:19,542687
-2,-6,-6,-5,-8,-4,-2,-3,2021-08-06 14:04:19,542687
-2,-2,-1,4,7,2,0,-1,2021-08-06 14:04:19,542687
5,7,7,6,5,5,4,4,2021-08-06 14:04:19,558686
1,1,-1,-5,-9,-5,-3,-1,2021-08-06 14:04:19,558686
0,-2,-2,-5,-3,-2,-1,-1,2021-08-06 14:04:19,558686
2,0,2,7,10,7,2,1,2021-08-06 14:04:19,558686
-6,-5,-5,-8,-9,-7,-4,-4,2021-08-06 14:04:19,574687
0,3,3,1,-2,-2,-1,2,2021-08-06 14:04:19,590687
0,0,1,5,9,3,1,-1,2021-08-06 14:04:19,606686
-2,-4,-3,-6,-6,0,0,-1,2021-08-06 14:04:19,606686
3,4,6,12,13,5,3,1,2021-08-06 14:04:19,606686
-2,-2,-1,-5,-9,-5,-3,-2,2021-08-06 14:04:19,606686
-3,-5,-4,-3,2,0,-3,0,2021-08-06 14:04:19,606686
-2,-3,-3,-4,-8,-6,-2,-2,2021-08-06 14:04:19,606686
-2,-1,-2,-3,-2,-2,-2,-2,2021-08-06 14:04:19,622688
0,0,-1,1,2,1,0,-1,2021-08-06 14:04:19,638686
0,-2,0,-2,-1,-2,-1,-1,2021-08-06 14:04:19,654686
0,-1,0,0,0,-2,-1,0,2021-08-06 14:04:19,654686
-3,-5,-6,-7,-8,-4,-4,-3,2021-08-06 14:04:19,654686
-1,0,1,2,2,0,1,0,2021-08-06 14:04:19,654686
0,0,0,-3,-5,-2,-1,-1,2021-08-06 14:04:19,654686
2,3,2,11,17,11,3,0,2021-08-06 14:04:19,654686
-2,-4,-4,-6,-7,-4,-3,-2,2021-08-06 14:04:19,654686
0,-1,-3,-3,1,0,0,0,2021-08-06 14:04:19,654686
-1,-2,-1,6,3,7,4,2,2021-08-06 14:04:19,654686
-2,-2,0,-1,-4,-3,-3,-2,2021-08-06 14:04:19,655687
-1,0,1,1,-1,-1,-2,-2,2021-08-06 14:04:19,686686
-2,-1,0,-2,-4,-4,-3,-3,2021-08-06 14:04:19,686686
-2,0,-1,-4,-6,-4,-4,-3,2021-08-06 14:04:19,686686
0,-1,-1,-3,-2,-3,-1,-3,2021-08-06 14:04:19,686686
-2,-4,-4,-2,-3,-1,0,2,2021-08-06 14:04:19,686686
1,0,-2,-3,-5,-4,-1,0,2021-08-06 14:04:19,686686
2,3,3,-1,-1,-1,0,1,2021-08-06 14:04:19,702688
-2,-1,-4,-9,-12,-5,-2,0,2021-08-06 14:04:19,718687
3,0,1,5,11,4,2,-1,2021-08-06 14:04:19,733686
-2,-3,-3,-3,-3,1,0,0,2021-08-06 14:04:19,733686
0,0,0,9,11,3,1,-1,2021-08-06 14:04:19,733686
-2,-1,2,-1,-5,-5,-2,-1,2021-08-06 14:04:19,733686
1,1,1,0,2,3,3,2,2021-08-06 14:04:19,733686
0,0,0,4,6,4,1,-1,2021-08-06 14:04:19,733686
-2,-2,-3,-4,-4,-6,-2,-2,2021-08-06 14:04:19,733686
-1,-3,-4,-5,-7,-5,-3,-1,2021-08-06 14:04:19,734688
-3,-3,-3,-7,-8,-6,-4,-4,2021-08-06 14:04:19,764686
4,6,6,9,7,5,4,4,2021-08-06 14:04:19,764686
-1,-1,-2,-2,0,1,-1,-1,2021-08-06 14:04:19,764686
0,0,0,5,7,2,1,0,2021-08-06 14:04:19,764686
-3,-3,-6,-8,-9,-6,-3,-2,2021-08-06 14:04:19,772715
1,1,2,10,16,8,1,0,2021-08-06 14:04:19,772715
-4,-3,-6,-12,-17,-9,-6,-5,2021-08-06 14:04:19,772715
0,1,1,-1,-1,-2,0,-1,2021-08-06 14:04:19,772715
0,0,2,1,1,1,0,2,2021-08-06 14:04:19,795716
-3,-2,-3,-5,-6,-5,-3,-2,2021-08-06 14:04:19,795716
1,-2,-2,1,3,2,1,0,2021-08-06 14:04:19,811716
-1,-1,0,-5,-3,-3,-3,-1,2021-08-06 14:04:19,811716
-1,0,1,-1,-1,0,-1,0,2021-08-06 14:04:19,811716
-3,-4,-2,-2,1,1,-1,-5,2021-08-06 14:04:19,811716
2,-2,2,4,8,10,8,8,2021-08-06 14:04:19,811716
-3,-3,-4,-6,-10,-13,-7,-7,2021-08-06 14:04:19,811716
-3,-1,-2,-3,-4,-5,-3,-2,2021-08-06 14:04:19,843716
2,0,0,1,1,0,0,0,2021-08-06 14:04:19,859715
-7,-7,-7,-7,-12,-8,-7,-6,2021-08-06 14:04:19,859715
2,2,5,7,14,10,4,3,2021-08-06 14:04:19,859715
3,2,2,0,0,2,3,2,2021-08-06 14:04:19,859715
-5,-7,-6,-5,-7,-4,-4,-5,2021-08-06 14:04:19,859715
3,4,1,-1,0,-1,0,0,2021-08-06 14:04:19,859715
3,4,3,1,-1,1,0,1,2021-08-06 14:04:19,859715
-1,-2,-3,-2,-2,-2,-3,-1,2021-08-06 14:04:19,875716
-3,-3,-5,-11,-16,-11,-5,-2,2021-08-06 14:04:19,891716
3,1,3,13,27,13,6,2,2021-08-06 14:04:19,907717
-1,0,-1,5,5,3,0,-2,2021-08-06 14:04:19,923716
0,1,1,1,2,2,2,1,2021-08-06 14:04:19,923716
-2,-2,-2,-9,-9,-7,-2,-2,2021-08-06 14:04:19,923716
-3,-2,-2,-7,-15,-12,-7,-4,2021-08-06 14:04:19,923716
5,3,5,11,16,15,8,5,2021-08-06 14:04:19,923716
0,-3,-2,3,3,0,-2,-1,2021-08-06 14:04:19,923716
-3,-3,-2,-4,-6,-4,-3,-3,2021-08-06 14:04:19,923716
3,7,4,-2,-9,-5,-1,0,2021-08-06 14:04:19,924717
-3,-3,-5,-13,-13,-8,-1,-2,2021-08-06 14:04:19,924717
-4,-4,-2,8,8,2,1,-2,2021-08-06 14:04:19,939714
6,7,6,4,3,3,3,2,2021-08-06 14:04:19,939714
-2,0,0,1,5,5,0,-1,2021-08-06 14:04:19,939714
-4,-3,-2,-2,-4,-5,-3,-1,2021-08-06 14:04:19,939714
-1,0,-5,-6,-9,-4,-2,-2,2021-08-06 14:04:19,955714
-3,-8,-6,-3,0,-2,-4,-4,2021-08-06 14:04:19,955714
4,4,2,0,-1,2,1,2,2021-08-06 14:04:19,955714
-3,-3,-3,0,2,0,-2,-1,2021-08-06 14:04:19,955714
-3,-3,-2,-8,-11,-7,-2,-2,2021-08-06 14:04:19,987714
2,3,6,17,27,15,6,4,2021-08-06 14:04:19,987714
-4,-3,-4,-8,-13,-9,-5,-3,2021-08-06 14:04:19,987997
-1,-2,-5,-6,-7,-3,-1,0,2021-08-06 14:04:19,987997
0,1,1,-5,-5,-2,-1,-1,2021-08-06 14:04:20,003221
-1,-1,-1,-3,-4,-5,-3,-1,2021-08-06 14:04:20,003221
-2,-4,-2,0,0,1,1,-1,2021-08-06 14:04:20,003221
-2,-3,-3,-2,6,2,0,-2,2021-08-06 14:04:20,003221
2,2,4,-2,-2,-2,0,1,2021-08-06 14:04:20,019222
2,1,2,2,3,3,3,2,2021-08-06 14:04:20,019222
-5,-6,-5,-2,-5,-4,-4,-5,2021-08-06 14:04:20,019222
0,2,0,-4,-9,-5,-3,-2,2021-08-06 14:04:20,019222
0,2,1,2,0,2,0,0,2021-08-06 14:04:20,035222
-1,1,-1,-3,-8,-5,-2,-1,2021-08-06 14:04:20,051221
0,-2,1,2,6,2,2,2,2021-08-06 14:04:20,067221
-4,-6,-5,-4,-4,-2,-2,-3,2021-08-06 14:04:20,067221
-2,0,-1,0,0,-1,0,-2,2021-08-06 14:04:20,067221
-2,-3,-2,0,2,2,-1,-1,2021-08-06 14:04:20,067221
-9,-8,-7,-10,-8,-10,-8,-6,2021-08-06 14:04:20,067221
6,6,3,-4,-8,0,2,2,2021-08-06 14:04:20,067221
3,4,6,14,25,12,6,3,2021-08-06 14:04:20,083222
-1,1,-2,-2,-2,-2,-2,-2,2021-08-06 14:04:20,099221
1,0,0,6,7,4,2,0,2021-08-06 14:04:20,115221
-3,-6,-9,-15,-19,-13,-8,-5,2021-08-06 14:04:20,115221
2,2,3,7,13,7,2,2,2021-08-06 14:04:20,115221
-1,0,-1,3,5,6,5,0,2021-08-06 14:04:20,115221
-2,-2,-3,-4,-5,-4,-5,-4,2021-08-06 14:04:20,115221
-2,-2,0,2,0,-2,-2,-2,2021-08-06 14:04:20,115221
-6,-8,-10,-13,-20,-12,-9,-5,2021-08-06 14:04:20,115221
0,-1,1,4,9,4,2,0,2021-08-06 14:04:20,115221
2,3,2,1,2,0,2,3,2021-08-06 14:04:20,116222
1,0,-2,4,0,4,1,2,2021-08-06 14:04:20,116222
1,3,1,-2,-3,-2,0,0,2021-08-06 14:04:20,146221
-4,-5,-6,-7,-1,-2,-3,-3,2021-08-06 14:04:20,162221
2,2,0,-4,-9,-3,-2,1,2021-08-06 14:04:20,178222
2,2,5,15,20,9,4,1,2021-08-06 14:04:20,178222
-5,-4,-4,-7,-12,-8,-4,-4,2021-08-06 14:04:20,178222
-1,-1,-2,-1,-2,-3,-4,-2,2021-08-06 14:04:20,178222
0,-1,-1,-4,-2,-2,1,-2,2021-08-06 14:04:20,178222
-3,-3,-2,-6,-7,-4,-3,0,2021-08-06 14:04:20,178222
0,2,1,1,0,1,0,1,2021-08-06 14:04:20,194221
-1,-2,0,-3,-5,-3,-1,0,2021-08-06 14:04:20,194221
-6,-3,-6,-7,-11,-6,-5,-3,2021-08-06 14:04:20,194221
2,1,3,10,12,6,3,-1,2021-08-06 14:04:20,194221
-1,-4,-3,-6,-5,-4,-3,-3,2021-08-06 14:04:20,210224
1,2,3,8,7,5,4,3,2021-08-06 14:04:20,210224
-2,-3,-4,-5,-7,-6,-4,-3,2021-08-06 14:04:20,210224
-3,-4,-5,-8,-10,-6,-4,-3,2021-08-06 14:04:20,210224
1,3,6,11,17,11,5,2,2021-08-06 14:04:20,210224
-2,-3,1,-1,-6,-2,-3,-3,2021-08-06 14:04:20,210224
3,4,5,4,10,5,1,2,2021-08-06 14:04:20,226222
-2,-2,-2,0,0,-4,-3,-3,2021-08-06 14:04:20,226222
-4,-2,-5,-5,-7,-5,-4,-1,2021-08-06 14:04:20,242221
2,0,-3,-5,-9,-5,-1,0,2021-08-06 14:04:20,242221
2,1,3,7,8,4,2,0,2021-08-06 14:04:20,242221
-4,-4,-2,-6,-6,-4,-4,-6,2021-08-06 14:04:20,242221
1,2,2,5,7,5,1,0,2021-08-06 14:04:20,274222
3,5,4,4,4,2,2,3,2021-08-06 14:04:20,290221
0,-1,-1,1,5,3,1,-2,2021-08-06 14:04:20,306221
3,4,1,-1,0,2,1,2,2021-08-06 14:04:20,306221
-1,-3,-3,-1,-2,-2,-1,-2,2021-08-06 14:04:20,306221
-5,-3,-5,-5,-8,-5,-3,-4,2021-08-06 14:04:20,306221
0,-1,-1,-4,-7,-4,-1,0,2021-08-06 14:04:20,306221
2,3,2,3,3,2,1,1,2021-08-06 14:04:20,306221
-2,-3,-4,-4,-5,-3,-1,0,2021-08-06 14:04:20,306221
-4,-2,-3,-1,1,-1,-2,-2,2021-08-06 14:04:20,306221
1,1,4,11,11,8,5,2,2021-08-06 14:04:20,306221
-2,-1,0,-4,-4,-3,0,-1,2021-08-06 14:04:20,307222
0,-2,0,-1,-3,-2,-2,-2,2021-08-06 14:04:20,322221
-3,-5,-4,-9,-11,-7,-5,-4,2021-08-06 14:04:20,322221
-5,-6,-4,-8,-9,-5,-4,-4,2021-08-06 14:04:20,322221
2,0,-1,4,5,2,1,1,2021-08-06 14:04:20,322221
-1,1,-1,-1,-2,-1,0,0,2021-08-06 14:04:20,338223
1,1,1,7,5,2,3,0,2021-08-06 14:04:20,338223
-2,-1,-2,-5,-6,-3,-2,-2,2021-08-06 14:04:20,338223
-3,-3,-2,-2,0,-2,0,-1,2021-08-06 14:04:20,338223
0,-3,0,-1,2,0,1,0,2021-08-06 14:04:20,369221
0,0,0,2,-2,1,0,1,2021-08-06 14:04:20,384221
0,-1,-1,0,0,-1,0,1,2021-08-06 14:04:20,400221
-2,-4,-2,-8,-9,-7,-4,-2,2021-08-06 14:04:20,400221
-3,-5,-5,-9,-20,-9,-4,-2,2021-08-06 14:04:20,400221
5,4,7,12,24,16,6,6,2021-08-06 14:04:20,400221
1,0,1,6,16,5,1,1,2021-08-06 14:04:20,400221
-5,-3,-4,-6,-10,-8,-4,-4,2021-08-06 14:04:20,400221
-1,1,2,0,3,0,0,-1,2021-08-06 14:04:20,400221
-2,-3,-2,-10,-14,-7,-5,-4,2021-08-06 14:04:20,400221
-2,-2,-3,-9,-15,-7,-2,-2,2021-08-06 14:04:20,416221
2,2,3,1,8,6,3,2,2021-08-06 14:04:20,416221
-3,-1,2,10,14,6,1,0,2021-08-06 14:04:20,416221
-1,-1,-1,-1,-5,-3,1,-2,2021-08-06 14:04:20,416221
1,1,4,5,6,5,3,2,2021-08-06 14:04:20,416221
0,0,-1,6,8,7,1,0,2021-08-06 14:04:20,416221
0,-2,-3,-7,-9,-4,0,-2,2021-08-06 14:04:20,448221
-2,0,-2,-1,-1,-2,-2,-2,2021-08-06 14:04:20,480223
-3,-3,-4,-10,-11,-8,-5,-3,2021-08-06 14:04:20,486220
1,3,6,9,10,5,1,3,2021-08-06 14:04:20,487221
0,-2,-1,0,1,2,1,0,2021-08-06 14:04:20,487221
0,-3,-1,-1,0,-2,-2,-1,2021-08-06 14:04:20,487221
-5,-6,-6,-6,-7,-5,-3,-5,2021-08-06 14:04:20,487221
4,5,2,-7,-15,-7,-1,3,2021-08-06 14:04:20,487221
1,2,4,9,7,9,3,3,2021-08-06 14:04:20,487221
-1,1,0,5,11,4,1,1,2021-08-06 14:04:20,487221
1,3,5,9,14,8,4,3,2021-08-06 14:04:20,487221
-4,-5,-5,1,0,1,1,-2,2021-08-06 14:04:20,488223
-3,-1,-4,-10,-15,-12,-6,-4,2021-08-06 14:04:20,511222
0,-2,-3,-9,-12,-6,-1,0,2021-08-06 14:04:20,526224
-1,-4,-3,-4,-6,-4,-2,-3,2021-08-06 14:04:20,526224
1,2,2,4,10,6,4,3,2021-08-06 14:04:20,526224
0,-1,-2,-3,-4,-3,-1,0,2021-08-06 14:04:20,526224
-1,-3,-3,0,3,1,1,-1,2021-08-06 14:04:20,526224
1,1,-1,1,5,3,3,0,2021-08-06 14:04:20,526224
-4,-2,-3,-11,-18,-10,-8,-5,2021-08-06 14:04:20,526224
-2,-1,6,3,10,5,0,-2,2021-08-06 14:04:20,542221
0,5,10,1,1,-2,-1,-1,2021-08-06 14:04:20,542221
-1,-6,-12,-5,-9,-4,-1,1,2021-08-06 14:04:20,542221
-1,-10,-22,0,3,-1,0,-2,2021-08-06 14:04:20,542221
-1,-2,-3,-5,-2,-2,-1,0,2021-08-06 14:04:20,574223
-2,0,-1,-8,-12,-8,-3,0,2021-08-06 14:04:20,590221
0,4,7,-1,-3,-4,-1,-1,2021-08-06 14:04:20,606221
2,6,8,0,1,1,1,1,2021-08-06 14:04:20,606221
2,2,3,20,25,14,5,1,2021-08-06 14:04:20,606221
0,0,0,2,2,0,-1,-1,2021-08-06 14:04:20,606221
-5,-3,-3,-2,-4,-4,-6,-4,2021-08-06 14:04:20,606221
-1,-3,-3,-6,-6,-4,-3,-2,2021-08-06 14:04:20,606221
-2,-2,-2,-8,-8,-6,-4,-2,2021-08-06 14:04:20,606221
0,1,8,5,-1,1,-2,-3,2021-08-06 14:04:20,606221
-1,-2,-7,6,8,5,2,1,2021-08-06 14:04:20,606221
-2,-7,-9,-6,-4,-3,-2,-3,2021-08-06 14:04:20,607224
-5,-3,2,-15,-25,-14,-8,-6,2021-08-06 14:04:20,622222
1,3,3,4,10,3,1,3,2021-08-06 14:04:20,622222
0,0,-1,1,1,3,-2,-1,2021-08-06 14:04:20,622222
1,-4,-8,1,2,4,1,1,2021-08-06 14:04:20,622222
-4,-7,0,-4,-6,-5,-4,-2,2021-08-06 14:04:20,654222
-5,-8,-13,-8,-9,-6,-4,-2,2021-08-06 14:04:20,670220
2,2,-1,-1,1,0,0,1,2021-08-06 14:04:20,670220
2,8,10,13,12,8,2,1,2021-08-06 14:04:20,670220
4,13,18,9,11,6,2,1,2021-08-06 14:04:20,670220
-3,-12,-16,-9,-5,-3,0,0,2021-08-06 14:04:20,670220
-2,-12,-20,-11,-9,-4,-1,0,2021-08-06 14:04:20,671222
-8,-10,-18,-22,-24,-19,-10,-8,2021-08-06 14:04:20,671222
0,3,6,4,4,2,1,0,2021-08-06 14:04:20,686221
2,10,18,12,14,7,4,2,2021-08-06 14:04:20,702221
5,14,21,15,12,9,7,4,2021-08-06 14:04:20,718221
2,9,22,10,11,4,2,1,2021-08-06 14:04:20,718221
-1,-6,-7,0,-7,-6,-4,0,2021-08-06 14:04:20,718221
-4,-14,-24,-14,-7,-3,-2,-2,2021-08-06 14:04:20,718221
-4,-10,-18,-13,-10,-7,-4,-3,2021-08-06 14:04:20,718221
-7,-9,-14,-10,-8,-4,-5,-5,2021-08-06 14:04:20,733221
3,5,2,2,5,3,3,2,2021-08-06 14:04:20,748220
4,4,1,-3,-5,-3,1,1,2021-08-06 14:04:20,764221
2,5,15,8,9,6,3,0,2021-08-06 14:04:20,764221
-1,2,15,3,-6,-4,-2,-2,2021-08-06 14:04:20,764221
-4,-9,-22,-26,-23,-13,-5,-3,2021-08-06 14:04:20,764221
5,5,25,38,44,22,7,4,2021-08-06 14:04:20,764221
-4,-1,-11,-3,-11,-10,-6,-4,2021-08-06 14:04:20,764221
-2,-3,-11,-4,-13,-3,-1,0,2021-08-06 14:04:20,764221
-1,-3,-9,1,19,14,5,2,2021-08-06 14:04:20,764221
-2,-2,-3,-22,-18,-13,-5,-4,2021-08-06 14:04:20,764221
0,6,20,26,8,-2,-1,0,2021-08-06 14:04:20,764221
4,4,9,30,11,3,1,1,2021-08-06 14:04:20,765224
2,0,-9,-20,-10,-2,-1,1,2021-08-06 14:04:20,779222
-11,-12,-14,-59,-35,-16,-10,-9,2021-08-06 14:04:20,779222
-5,-9,-14,-40,-12,-4,-5,-4,2021-08-06 14:04:20,779222
-3,-4,-10,-5,-2,-5,-1,-1,2021-08-06 14:04:20,779222
1,4,12,38,18,5,4,1,2021-08-06 14:04:20,811222
3,5,5,34,15,9,4,0,2021-08-06 14:04:20,827225
0,0,5,3,-9,-6,-3,1,2021-08-06 14:04:20,843221
3,4,8,9,8,5,0,2,2021-08-06 14:04:20,843221
1,1,2,6,4,1,-1,2,2021-08-06 14:04:20,843221
2,1,1,9,2,1,2,0,2021-08-06 14:04:20,843221
-7,-8,-11,-18,-18,-13,-7,-5,2021-08-06 14:04:20,844222
-2,-3,-4,-11,-3,-1,-2,-2,2021-08-06 14:04:20,844222
2,6,8,9,11,6,3,1,2021-08-06 14:04:20,844222
-4,-2,-8,-1,-13,-9,-5,-4,2021-08-06 14:04:20,844222
5,6,3,4,11,11,5,5,2021-08-06 14:04:20,844222
-7,-7,-6,-17,-5,-8,-6,-5,2021-08-06 14:04:20,845223
-6,-9,-11,-18,-23,-15,-7,-5,2021-08-06 14:04:20,859221
3,4,0,17,11,4,3,3,2021-08-06 14:04:20,874221
1,0,3,16,7,2,1,-1,2021-08-06 14:04:20,890222
-2,-3,-5,-21,-23,-12,-5,-3,2021-08-06 14:04:20,890222
-3,-6,-10,-14,-3,1,-1,-3,2021-08-06 14:04:20,890222
0,5,8,3,6,6,1,2,2021-08-06 14:04:20,890222
0,1,7,7,9,4,0,-1,2021-08-06 14:04:20,890222
2,2,4,9,13,8,3,3,2021-08-06 14:04:20,890222
-3,-3,-11,-10,-16,-13,-4,-2,2021-08-06 14:04:20,906222
-3,-5,-6,-8,-17,-10,-7,-3,2021-08-06 14:04:20,906222
0,0,0,-4,-1,-2,-1,-2,2021-08-06 14:04:20,906222
-3,-6,-4,-8,-9,-4,-3,-2,2021-08-06 14:04:20,906222
11,15,24,25,20,12,8,8,2021-08-06 14:04:20,922222
2,6,8,16,13,7,4,0,2021-08-06 14:04:20,938221
-1,-3,-8,-19,-4,1,0,0,2021-08-06 14:04:20,954220
-4,-9,-12,-19,-18,-10,-4,-2,2021-08-06 14:04:20,954220
-12,-17,-14,-10,-6,-7,-8,-9,2021-08-06 14:04:20,954220
-1,1,-1,2,-3,-3,-1,0,2021-08-06 14:04:20,954220
5,9,15,23,12,7,3,1,2021-08-06 14:04:20,954220
8,16,25,19,17,13,7,5,2021-08-06 14:04:20,954220
-3,-7,-13,-2,4,4,-2,-4,2021-08-06 14:04:20,954220
-4,-7,-15,-20,-14,-9,-5,-1,2021-08-06 14:04:20,955223
-7,-10,-11,-14,-17,-12,-7,-6,2021-08-06 14:04:20,970221
-1,0,1,16,18,8,2,0,2021-08-06 14:04:20,970221
-1,4,9,3,-3,-1,-1,-1,2021-08-06 14:04:20,986221
2,3,7,7,2,3,4,2,2021-08-06 14:04:21,002221
-1,-1,-2,-14,-20,-14,-5,-2,2021-08-06 14:04:21,018221
0,-2,-9,-14,-3,-3,0,0,2021-08-06 14:04:21,018221
-2,-2,1,3,-5,-1,-1,0,2021-08-06 14:04:21,018221
-2,-5,-6,-5,2,1,-2,-2,2021-08-06 14:04:21,018221
-1,1,3,10,4,-1,0,-1,2021-08-06 14:04:21,018221
3,7,11,24,23,11,5,2,2021-08-06 14:04:21,018221
2,1,-6,-5,0,2,2,1,2021-08-06 14:04:21,018221
-6,-9,-11,-31,-28,-18,-10,-6,2021-08-06 14:04:21,019222
-1,0,3,8,4,0,-1,0,2021-08-06 14:04:21,034221
-2,-2,0,8,2,1,-1,-1,2021-08-06 14:04:21,050221
2,6,5,8,7,3,1,1,2021-08-06 14:04:21,066220
2,4,0,-12,-6,-2,-2,1,2021-08-06 14:04:21,082222
3,4,4,-5,3,3,2,2,2021-08-06 14:04:21,082222
-4,-13,-16,-9,-8,-5,-2,-4,2021-08-06 14:04:21,082222
-2,-4,-9,-5,-2,-1,0,-2,2021-08-06 14:04:21,082222
-3,-5,1,17,8,1,-3,-2,2021-08-06 14:04:21,082222
2,5,7,15,14,8,2,0,2021-08-06 14:04:21,082222
4,9,12,4,6,4,4,2,2021-08-06 14:04:21,082222
0,-3,-7,-19,-16,-7,-1,0,2021-08-06 14:04:21,082222
-2,-3,-7,-12,-17,-9,-5,-3,2021-08-06 14:04:21,082222
-5,-3,-4,3,4,1,-2,-2,2021-08-06 14:04:21,082222
-2,-2,2,5,-12,-7,-4,-2,2021-08-06 14:04:21,082222
0,1,3,0,9,6,1,-1,2021-08-06 14:04:21,113222
0,1,3,8,10,5,2,1,2021-08-06 14:04:21,129220
1,-2,-4,-4,0,3,2,1,2021-08-06 14:04:21,145221
-5,-6,-12,-22,-24,-14,-8,-5,2021-08-06 14:04:21,145221
-3,0,0,-7,-13,-10,-5,-3,2021-08-06 14:04:21,145221
2,3,12,22,13,7,0,0,2021-08-06 14:04:21,145221
-3,-4,-7,2,5,3,2,-2,2021-08-06 14:04:21,145221
1,4,-8,-19,-5,-1,0,0,2021-08-06 14:04:21,145221
-2,-2,-3,-2,2,-1,-2,-2,2021-08-06 14:04:21,145221
-3,-4,-2,-8,0,1,-1,-2,2021-08-06 14:04:21,146223
1,2,5,8,0,-2,-1,0,2021-08-06 14:04:21,146223
-3,-2,0,-2,-8,-5,-3,-1,2021-08-06 14:04:21,146223
-1,2,4,15,7,2,1,0,2021-08-06 14:04:21,161223
-1,-2,-3,-7,-10,-3,-2,-2,2021-08-06 14:04:21,161223
1,-2,-5,-14,-1,2,0,1,2021-08-06 14:04:21,161223
-1,1,1,5,13,7,2,1,2021-08-06 14:04:21,161223
-1,-2,2,8,2,-3,-1,-2,2021-08-06 14:04:21,193222
0,0,0,8,-1,-1,1,2,2021-08-06 14:04:21,193222
-4,-6,-12,-30,-28,-15,-7,-4,2021-08-06 14:04:21,193222
-1,-4,-9,-7,1,0,-2,0,2021-08-06 14:04:21,193222
6,5,10,15,18,11,6,4,2021-08-06 14:04:21,193222
-2,-2,-3,-5,-4,-4,-1,-1,2021-08-06 14:04:21,193222
-2,0,6,8,-1,-1,0,-2,2021-08-06 14:04:21,200223
-3,-2,0,5,-4,-1,-3,-2,2021-08-06 14:04:21,200223
-1,-2,-4,-7,2,1,-1,0,2021-08-06 14:04:21,225256
-4,-3,-3,-9,-8,-4,-2,-3,2021-08-06 14:04:21,225256
0,-1,-3,-1,-7,-4,-2,-1,2021-08-06 14:04:21,225256
2,2,8,16,13,7,3,2,2021-08-06 14:04:21,225256
0,0,2,7,7,4,-1,0,2021-08-06 14:04:21,257221
3,2,-1,3,15,11,6,1,2021-08-06 14:04:21,272221
-5,-8,-11,-23,-22,-15,-5,-2,2021-08-06 14:04:21,287221
-4,-5,-6,-20,-26,-17,-5,-6,2021-08-06 14:04:21,287221
-2,-6,-3,-7,-12,-4,-2,-1,2021-08-06 14:04:21,287221
2,2,4,16,22,9,2,-1,2021-08-06 14:04:21,287221
1,2,5,17,15,10,3,0,2021-08-06 14:04:21,303221
2,4,3,6,10,8,2,1,2021-08-06 14:04:21,303221
-2,0,0,0,-5,-3,-4,-2,2021-08-06 14:04:21,303221
-1,-2,-1,0,-2,-2,0,0,2021-08-06 14:04:21,303221
0,2,6,6,5,1,-1,2,2021-08-06 14:04:21,303221
-3,-3,-1,-16,-17,-11,-6,-1,2021-08-06 14:04:21,303221
-2,-3,-10,-2,9,4,1,-3,2021-08-06 14:04:21,303221
1,0,-4,-4,4,2,1,2,2021-08-06 14:04:21,303221
0,-2,0,5,5,5,-1,-1,2021-08-06 14:04:21,304222
1,0,4,6,3,1,0,-1,2021-08-06 14:04:21,304222
-2,-4,-2,-7,-13,-7,-6,-2,2021-08-06 14:04:21,318220
-2,1,-1,-4,-10,-6,-3,-1,2021-08-06 14:04:21,318220
-3,-6,-5,-1,-1,-3,-1,-3,2021-08-06 14:04:21,333221
7,8,7,17,12,10,5,5,2021-08-06 14:04:21,333221
-2,-3,-8,-27,-15,-6,-4,-3,2021-08-06 14:04:21,349221
-1,-2,0,-2,-6,-3,-2,-3,2021-08-06 14:04:21,365220
-1,-2,-1,-4,-4,-2,-4,-2,2021-08-06 14:04:21,396221
-1,-2,2,7,10,6,3,0,2021-08-06 14:04:21,396221
-2,-2,-2,2,-6,-6,-2,-1,2021-08-06 14:04:21,396221
0,1,1,0,-4,1,1,-1,2021-08-06 14:04:21,396221
0,0,-2,-3,1,-2,-2,-2,2021-08-06 14:04:21,396221
-3,-2,-5,-14,-26,-12,-6,-3,2021-08-06 14:04:21,396221
1,2,4,7,5,4,2,0,2021-08-06 14:04:21,396221
0,-2,-1,-1,3,-1,0,0,2021-08-06 14:04:21,397223
1,1,4,5,-1,1,1,2,2021-08-06 14:04:21,397223
-1,-3,-11,0,11,5,0,1,2021-08-06 14:04:21,397223
-1,1,11,11,6,1,0,-1,2021-08-06 14:04:21,397223
-3,-4,-8,-5,-12,-9,-6,-4,2021-08-06 14:04:21,397223
-5,-3,-13,-20,-7,-5,-4,-3,2021-08-06 14:04:21,397223
1,1,7,4,-3,-2,0,-1,2021-08-06 14:04:21,397223
-1,0,-8,-4,-3,-2,-1,0,2021-08-06 14:04:21,442221
0,2,5,3,9,5,-1,1,2021-08-06 14:04:21,442221
0,0,4,-6,-2,0,1,1,2021-08-06 14:04:21,442221
-3,-1,1,-11,2,0,-2,-2,2021-08-06 14:04:21,442221
-1,-1,-3,5,-3,-2,-1,0,2021-08-06 14:04:21,442221
1,0,2,3,-2,-1,0,-1,2021-08-06 14:04:21,442221
-2,-2,-9,1,0,1,0,-2,2021-08-06 14:04:21,442221
-1,0,5,2,6,3,-1,1,2021-08-06 14:04:21,443224
1,3,4,7,3,2,1,1,2021-08-06 14:04:21,458221
-3,-4,-9,-9,-10,-8,-5,-4,2021-08-06 14:04:21,458221
4,3,3,9,10,7,4,2,2021-08-06 14:04:21,474221
-1,1,1,4,3,1,1,-1,2021-08-06 14:04:21,474221
-1,-2,3,-5,-6,-4,-2,-1,2021-08-06 14:04:21,490221
-2,-3,-12,-13,-13,-6,-1,0,2021-08-06 14:04:21,490221
-3,-2,5,7,12,3,-2,-3,2021-08-06 14:04:21,506222
3,4,2,3,3,1,3,0,2021-08-06 14:04:21,506222
-3,-1,-1,-10,-12,-7,-4,-4,2021-08-06 14:04:21,522221
0,-1,4,0,3,3,3,0,2021-08-06 14:04:21,522221
-4,-5,-4,-5,-22,-13,-6,-4,2021-08-06 14:04:21,522221
3,3,4,23,43,22,9,5,2021-08-06 14:04:21,522221
-1,-2,-4,-3,0,1,1,-1,2021-08-06 14:04:21,522221
-2,-3,-2,-10,-10,-5,-4,-2,2021-08-06 14:04:21,522221
2,3,2,4,2,0,-1,1,2021-08-06 14:04:21,522221
-2,-4,-5,-6,-10,-6,-4,-3,2021-08-06 14:04:21,522221
3,0,2,3,8,2,1,1,2021-08-06 14:04:21,554222
0,1,1,7,11,5,2,2,2021-08-06 14:04:21,559221
-2,-4,-2,-7,-16,-8,-5,-1,2021-08-06 14:04:21,560222
-3,-3,-4,-4,-10,-7,-1,-3,2021-08-06 14:04:21,560222
0,0,1,5,11,5,1,1,2021-08-06 14:04:21,560222
-2,0,0,-5,-8,-5,-3,-2,2021-08-06 14:04:21,560222
0,1,-5,3,5,2,2,0,2021-08-06 14:04:21,570220
-1,-3,-2,-5,-6,-4,-2,-1,2021-08-06 14:04:21,570220
-1,-4,-6,-3,-2,-2,-3,-1,2021-08-06 14:04:21,586221
1,1,4,5,2,2,0,0,2021-08-06 14:04:21,602221
-1,-1,-1,-3,-1,-1,-2,-3,2021-08-06 14:04:21,618221
1,3,-1,-6,-10,-5,-1,0,2021-08-06 14:04:21,618221
2,2,2,6,12,5,3,0,2021-08-06 14:04:21,618221
0,-1,2,3,6,1,1,0,2021-08-06 14:04:21,618221
0,-2,1,3,5,3,2,0,2021-08-06 14:04:21,618221
-5,-4,-6,-9,-16,-10,-5,-3,2021-08-06 14:04:21,618221
0,0,3,1,1,1,2,0,2021-08-06 14:04:21,634223
1,1,-1,2,3,4,1,1,2021-08-06 14:04:21,634223
0,0,-1,-5,-3,-1,-2,-2,2021-08-06 14:04:21,634223
0,-1,0,2,3,2,-1,0,2021-08-06 14:04:21,634223
-1,-3,-4,-7,-14,-6,-3,-1,2021-08-06 14:04:21,634223
-4,-2,-4,-3,-6,-4,-3,-3,2021-08-06 14:04:21,634223
1,2,4,7,17,9,5,2,2021-08-06 14:04:21,650221
-1,-2,-2,-4,-6,-3,-2,-1,2021-08-06 14:04:21,666220
-1,-1,-3,-2,-3,-2,-1,-3,2021-08-06 14:04:21,682221
-1,-2,-2,-3,-3,-3,0,-3,2021-08-06 14:04:21,682221
-1,0,-3,-3,-9,-5,-3,-1,2021-08-06 14:04:21,682221
-1,-1,-3,-1,1,1,0,-1,2021-08-06 14:04:21,682221
-2,0,-1,0,5,0,-1,0,2021-08-06 14:04:21,682221
-2,-2,-2,-4,-8,-4,-3,-2,2021-08-06 14:04:21,682221
-1,2,2,6,8,5,2,1,2021-08-06 14:04:21,682221
0,-2,-2,-2,0,0,0,-1,2021-08-06 14:04:21,682221
-2,1,0,-2,-7,-3,-2,-1,2021-08-06 14:04:21,729221
0,0,1,-2,-1,0,-2,-1,2021-08-06 14:04:21,745221
2,4,3,1,3,2,3,2,2021-08-06 14:04:21,761224
-2,-2,-1,0,-1,0,-2,0,2021-08-06 14:04:21,761224
-1,-4,-5,-8,-9,-5,-2,-2,2021-08-06 14:04:21,761224
0,-2,-1,1,1,0,-1,-2,2021-08-06 14:04:21,761224
-4,-5,-3,-7,-9,-7,-4,-3,2021-08-06 14:04:21,761224
3,5,5,7,10,8,4,2,2021-08-06 14:04:21,761224
-1,0,-2,-3,-3,-1,0,0,2021-08-06 14:04:21,761224
0,-1,-1,1,2,-1,0,0,2021-08-06 14:04:21,761224
-2,-3,-2,1,0,-2,0,-3,2021-08-06 14:04:21,761224
-3,-3,-4,-7,-8,-5,-3,-2,2021-08-06 14:04:21,761224
-1,-2,-4,-7,-6,-1,-2,-2,2021-08-06 14:04:21,761224
-1,1,1,5,6,1,-1,0,2021-08-06 14:04:21,761224
-1,-1,-1,-5,-6,-4,-3,0,2021-08-06 14:04:21,762225
1,-1,-1,-1,-1,-2,-2,-2,2021-08-06 14:04:21,762225
-2,-1,-1,-4,-6,-4,-2,-2,2021-08-06 14:04:21,791222
-1,-1,-2,-3,0,-1,1,2,2021-08-06 14:04:21,807223
-3,-1,-2,-3,-7,-1,-1,-1,2021-08-06 14:04:21,823222
1,2,1,12,24,12,5,2,2021-08-06 14:04:21,823222
-3,-2,-1,-4,-4,-4,-3,-2,2021-08-06 14:04:21,823222
0,-2,-3,-3,-3,-2,-3,-3,2021-08-06 14:04:21,823222
3,4,2,-1,-3,1,-1,2,2021-08-06 14:04:21,823222
0,-2,0,2,2,-1,0,-2,2021-08-06 14:04:21,824221
-1,-1,-1,-2,-4,-2,-2,-2,2021-08-06 14:04:21,824221
-1,-2,-2,-1,0,-1,-1,-1,2021-08-06 14:04:21,824221
-3,-2,-2,-5,-4,-3,-1,-3,2021-08-06 14:04:21,839220
-1,-2,-1,-1,-4,-3,-1,0,2021-08-06 14:04:21,854220
0,-2,1,7,9,5,0,-1,2021-08-06 14:04:21,869221
-3,-4,-3,0,-2,-4,-2,-1,2021-08-06 14:04:21,885221
6,4,5,5,6,4,2,3,2021-08-06 14:04:21,885221
1,1,-1,-2,-6,-5,-2,-1,2021-08-06 14:04:21,885221
-2,0,-3,-10,-13,-9,-2,-1,2021-08-06 14:04:21,885221
3,2,4,8,12,7,2,1,2021-08-06 14:04:21,885221
-3,-3,-4,1,3,1,0,-3,2021-08-06 14:04:21,885221
-1,-1,2,1,1,1,1,-1,2021-08-06 14:04:21,886224
-1,-1,-1,-3,-6,-4,-3,-1,2021-08-06 14:04:21,886224
-2,-3,-3,-4,-5,-3,-2,-2,2021-08-06 14:04:21,886224
-1,-1,1,1,5,0,-1,0,2021-08-06 14:04:21,886224
-2,-1,-2,-4,-5,-4,-2,-1,2021-08-06 14:04:21,886224
-1,0,-1,3,4,4,1,-1,2021-08-06 14:04:21,913221
0,0,0,-4,-3,-1,1,1,2021-08-06 14:04:21,913221
1,0,-1,-1,-2,-1,-1,1,2021-08-06 14:04:21,913221
-1,-1,-2,-6,-10,-4,-4,-1,2021-08-06 14:04:21,913221
0,0,0,3,9,3,1,1,2021-08-06 14:04:21,932221
-1,0,1,1,3,2,1,-1,2021-08-06 14:04:21,947221
-1,-4,-1,-2,-2,-1,-2,-1,2021-08-06 14:04:21,963221
-3,-4,-2,-3,-6,-4,-1,-3,2021-08-06 14:04:21,979220
1,1,0,1,-1,0,1,0,2021-08-06 14:04:21,979220
0,-1,-3,0,-1,-1,0,-1,2021-08-06 14:04:21,979220
-4,-1,-3,-2,0,-4,-2,-3,2021-08-06 14:04:21,979220
1,2,-1,-2,-3,-1,0,1,2021-08-06 14:04:21,979220
-1,1,0,0,-2,-1,0,-1,2021-08-06 14:04:21,979220
0,1,0,-1,-3,-1,-1,-1,2021-08-06 14:04:21,979220
-2,-2,-5,-3,-3,-2,-2,-4,2021-08-06 14:04:21,979220
0,-1,-1,3,6,2,0,1,2021-08-06 14:04:21,979220
-3,-4,-2,-3,-3,-3,-2,-2,2021-08-06 14:04:21,979220
5,5,6,7,6,3,1,1,2021-08-06 14:04:21,980223
1,0,2,-2,-2,0,1,1,2021-08-06 14:04:21,995221
-3,-4,-2,-5,-7,-4,-4,-1,2021-08-06 14:04:21,995221
-3,-1,-2,-2,-4,-3,0,0,2021-08-06 14:04:21,995221
-3,-2,-1,3,9,2,1,-2,2021-08-06 14:04:21,995221
0,-1,-1,2,0,1,-1,1,2021-08-06 14:04:22,011221
0,0,-1,-6,-11,-7,-3,-2,2021-08-06 14:04:22,011221
-2,-3,-1,0,-3,-1,-1,-1,2021-08-06 14:04:22,027222
2,3,2,6,13,10,5,4,2021-08-06 14:04:22,043221
1,1,0,2,2,0,1,-1,2021-08-06 14:04:22,043221
-2,-1,-2,-2,-1,-1,-2,-2,2021-08-06 14:04:22,043221
1,-4,-3,-4,-7,-5,-2,-2,2021-08-06 14:04:22,043221
-1,1,-1,-6,-11,-5,-3,0,2021-08-06 14:04:22,043221
-1,-3,-2,2,3,3,-1,-1,2021-08-06 14:04:22,043221
-1,0,-2,0,-1,-1,1,0,2021-08-06 14:04:22,043221
0,0,-1,0,2,-1,-1,1,2021-08-06 14:04:22,059223
-3,-3,-4,-6,-4,-3,-2,-1,2021-08-06 14:04:22,059223
-3,-2,-2,-1,-3,-3,-3,-3,2021-08-06 14:04:22,075221
1,4,7,6,5,3,0,0,2021-08-06 14:04:22,075221
-1,-5,-4,1,4,2,1,-1,2021-08-06 14:04:22,091222
1,-4,-5,9,2,0,1,1,2021-08-06 14:04:22,107221
0,1,12,4,-7,-4,-1,0,2021-08-06 14:04:22,123223
0,6,9,-1,7,2,-2,-2,2021-08-06 14:04:22,123223
-2,-1,-20,-13,-4,-2,-2,-1,2021-08-06 14:04:22,123223
-4,-5,-18,-39,-27,-15,-8,-3,2021-08-06 14:04:22,123223
0,-1,1,8,8,2,1,-1,2021-08-06 14:04:22,123223
3,-5,-6,-8,5,5,4,1,2021-08-06 14:04:22,123223
0,3,13,3,-1,-2,1,1,2021-08-06 14:04:22,123223
-5,-4,2,2,-15,-10,-5,-4,2021-08-06 14:04:22,123223
-2,0,-3,5,0,-3,-1,0,2021-08-06 14:04:22,123223
-4,-1,4,8,-4,-5,-2,-3,2021-08-06 14:04:22,124224
2,0,0,5,7,6,2,2,2021-08-06 14:04:22,155223
3,3,5,17,27,13,6,4,2021-08-06 14:04:22,155223
0,0,0,-3,-2,0,0,-1,2021-08-06 14:04:22,155223
-1,-3,-8,-1,-2,-2,-2,-1,2021-08-06 14:04:22,155223
-3,-4,-4,-9,-11,-5,-2,-4,2021-08-06 14:04:22,187221
-2,1,2,0,-4,-1,-1,-2,2021-08-06 14:04:22,203220
-1,0,-3,-6,0,-1,0,-1,2021-08-06 14:04:22,203220
0,-6,-9,-8,-6,-4,-2,-2,2021-08-06 14:04:22,203220
0,-2,1,-3,-3,-1,-2,0,2021-08-06 14:04:22,203220
1,2,6,3,-2,-1,-1,-1,2021-08-06 14:04:22,203220
1,2,-1,0,4,4,1,1,2021-08-06 14:04:22,203220
-3,-4,-7,-3,-5,-4,-3,-1,2021-08-06 14:04:22,203220
-1,3,5,4,3,-2,-1,1,2021-08-06 14:04:22,204222
1,0,-3,-1,-1,-1,-1,0,2021-08-06 14:04:22,204222
0,-3,-6,-10,-7,-3,-2,-1,2021-08-06 14:04:22,204222
-2,-3,1,9,2,0,-3,-2,2021-08-06 14:04:22,204222
0,-1,1,2,3,4,0,2,2021-08-06 14:04:22,235223
2,1,-4,-11,-1,3,4,1,2021-08-06 14:04:22,251223
-4,-3,-4,-5,-7,-4,-4,-4,2021-08-06 14:04:22,251223
-3,0,2,-1,0,0,-2,-2,2021-08-06 14:04:22,251223
-3,-2,1,4,1,-2,-2,-4,2021-08-06 14:04:22,251223
-2,0,1,3,-2,-3,-3,-3,2021-08-06 14:04:22,251223
-1,2,0,-2,-1,-1,-1,1,2021-08-06 14:04:22,251223
1,0,-1,-1,-1,0,1,0,2021-08-06 14:04:22,251223
1,1,2,1,1,3,1,1,2021-08-06 14:04:22,267220
-2,-2,-2,-4,-6,-3,-2,-4,2021-08-06 14:04:22,267220
-2,-2,-3,-3,-5,-3,-1,-1,2021-08-06 14:04:22,267220
0,-2,1,1,0,0,0,1,2021-08-06 14:04:22,268223
-1,2,1,3,6,2,0,0,2021-08-06 14:04:22,299221
-3,-2,1,1,-3,-1,-2,-2,2021-08-06 14:04:22,315221
-1,-3,-4,-3,0,0,-1,-1,2021-08-06 14:04:22,331222
-2,-2,-5,-6,-6,-3,-1,1,2021-08-06 14:04:22,331222
0,0,0,-2,-2,-1,-1,-1,2021-08-06 14:04:22,331222
-4,-3,-2,0,-4,-3,-1,-2,2021-08-06 14:04:22,331222
0,2,1,2,-1,0,1,1,2021-08-06 14:04:22,331222
1,0,1,0,2,2,0,-1,2021-08-06 14:04:22,331222
-3,-4,-3,-2,-2,-2,-3,-4,2021-08-06 14:04:22,331222
-1,-1,2,3,2,1,-2,0,2021-08-06 14:04:22,332222
1,0,0,-3,-2,-1,-1,0,2021-08-06 14:04:22,332222
-2,-1,-2,0,-2,-1,1,-1,2021-08-06 14:04:22,332222
1,1,0,4,4,1,0,3,2021-08-06 14:04:22,347221
-2,-4,-4,-5,-4,-5,-3,-3,2021-08-06 14:04:22,347221
-1,0,-2,0,2,-1,1,-1,2021-08-06 14:04:22,347221
-1,0,-1,-3,-1,-2,1,-1,2021-08-06 14:04:22,347221
-3,-1,-1,0,-4,-1,0,-3,2021-08-06 14:04:22,379222
0,-1,-1,0,5,3,1,-1,2021-08-06 14:04:22,394222
-1,-3,-2,0,0,-1,-1,-1,2021-08-06 14:04:22,409221
-2,-1,0,-2,0,0,-3,-2,2021-08-06 14:04:22,409221
1,-1,-2,-5,-9,-6,-1,0,2021-08-06 14:04:22,409221
-2,-3,-1,-1,1,1,1,0,2021-08-06 14:04:22,409221
-2,-1,-2,1,3,1,-1,0,2021-08-06 14:04:22,409221
0,2,1,0,-1,0,-1,-1,2021-08-06 14:04:22,409221
0,1,1,2,2,1,-1,1,2021-08-06 14:04:22,409221
-1,-1,0,-1,-2,-1,-3,0,2021-08-06 14:04:22,410223
-2,-5,-4,-7,-6,-3,-2,-3,2021-08-06 14:04:22,410223
-1,-2,-2,1,0,-3,-3,-2,2021-08-06 14:04:22,410223
-1,-1,-1,-2,-2,-1,-1,-2,2021-08-06 14:04:22,441222
-1,-1,0,-2,-4,-3,-3,-1,2021-08-06 14:04:22,457222
4,5,3,0,-3,2,3,1,2021-08-06 14:04:22,473227
-1,-3,-2,1,4,0,-1,0,2021-08-06 14:04:22,473227
1,1,2,2,4,3,1,0,2021-08-06 14:04:22,473227
-4,-4,-5,-2,-5,-5,-2,-3,2021-08-06 14:04:22,473227
2,2,1,7,9,4,3,0,2021-08-06 14:04:22,473227
0,-2,-1,-2,-2,-1,1,-1,2021-08-06 14:04:22,473227
-3,-5,-4,-4,-8,-5,-4,-5,2021-08-06 14:04:22,473227
0,-1,-1,-4,0,0,1,0,2021-08-06 14:04:22,474222
-3,-1,1,2,2,-1,-1,-2,2021-08-06 14:04:22,474222
1,2,-2,2,3,3,2,2,2021-08-06 14:04:22,474222
-3,-1,-2,-2,-2,-2,-3,0,2021-08-06 14:04:22,489220
-1,2,1,0,-2,0,0,1,2021-08-06 14:04:22,505221
-3,-3,-3,-2,-5,-4,-4,-3,2021-08-06 14:04:22,521221
0,0,1,0,0,1,1,-1,2021-08-06 14:04:22,536221
0,-1,-2,-1,-1,-1,0,-3,2021-08-06 14:04:22,536221
-1,-1,0,-2,-4,-1,-1,0,2021-08-06 14:04:22,536221
-1,0,0,1,3,2,-2,0,2021-08-06 14:04:22,536221
-4,-1,-2,-3,-5,-1,-2,-4,2021-08-06 14:04:22,536221
-3,-4,-3,-2,0,-1,-2,-1,2021-08-06 14:04:22,536221
4,5,2,5,2,2,2,4,2021-08-06 14:04:22,536221
2,1,-1,0,1,0,-1,1,2021-08-06 14:04:22,536221
0,2,-2,-2,-3,-3,0,2,2021-08-06 14:04:22,537222
-3,-3,-1,-6,-4,-3,0,-1,2021-08-06 14:04:22,552221
-5,-5,-4,-5,-7,-4,-4,-5,2021-08-06 14:04:22,568221
1,3,3,9,22,10,4,5,2021-08-06 14:04:22,584221
0,0,0,1,-1,-1,0,-1,2021-08-06 14:04:22,584221
-1,2,1,-1,-1,-2,0,0,2021-08-06 14:04:22,584221
-1,-2,-2,-2,1,1,0,-1,2021-08-06 14:04:22,584221
-2,-4,-2,-9,-16,-8,-4,-4,2021-08-06 14:04:22,584221
0,-2,-1,2,9,4,1,-2,2021-08-06 14:04:22,584221
-2,-4,-5,-3,-4,-5,-2,-3,2021-08-06 14:04:22,584221
4,4,4,8,8,6,4,4,2021-08-06 14:04:22,585222
-4,-3,-4,-5,-7,-4,-5,-1,2021-08-06 14:04:22,585222
-1,-2,-1,-2,-5,-3,-1,0,2021-08-06 14:04:22,585222
-1,-1,-1,-1,-3,0,-2,-2,2021-08-06 14:04:22,615220
0,-1,-1,0,1,0,-2,-1,2021-08-06 14:04:22,615220
-2,-2,-2,-3,-4,-3,-1,-3,2021-08-06 14:04:22,615220
-1,-2,-1,-4,-3,-2,-2,0,2021-08-06 14:04:22,615220
-1,-2,-2,-2,0,-1,0,0,2021-08-06 14:04:22,624221
-1,0,0,4,8,2,0,-4,2021-08-06 14:04:22,624221
-2,-1,-2,-2,-3,0,-1,0,2021-08-06 14:04:22,624221
-1,-3,-3,-2,-3,-1,-3,-3,2021-08-06 14:04:22,625224
2,7,7,4,1,1,-1,1,2021-08-06 14:04:22,646220
0,-2,-5,-1,-3,-2,0,0,2021-08-06 14:04:22,646220
-4,-5,-2,-2,-3,-2,0,-2,2021-08-06 14:04:22,646220
-1,2,-1,0,-3,-2,-1,0,2021-08-06 14:04:22,646220
1,1,2,6,5,5,1,1,2021-08-06 14:04:22,677224
-3,-1,-1,-3,-3,-4,-3,-3,2021-08-06 14:04:22,677224
-1,-1,0,0,0,-1,-2,0,2021-08-06 14:04:22,677224
-1,-4,-1,-5,-4,0,-2,-1,2021-08-06 14:04:22,677224
-2,-4,-4,-2,-1,-3,-3,-2,2021-08-06 14:04:22,677224
0,1,0,-1,0,1,0,0,2021-08-06 14:04:22,677224
3,1,2,0,0,-1,1,0,2021-08-06 14:04:22,693222
-1,1,2,1,-1,0,-1,-1,2021-08-06 14:04:22,709221
-1,-1,0,3,3,2,1,-1,2021-08-06 14:04:22,709221
-2,-3,-6,2,1,1,-3,-1,2021-08-06 14:04:22,709221
2,-1,-3,-7,-5,-3,2,3,2021-08-06 14:04:22,709221
-1,-3,-4,-6,-9,-10,-4,-1,2021-08-06 14:04:22,709221
2,0,-1,0,0,2,1,0,2021-08-06 14:04:22,741222
-3,-3,-1,-2,-3,-4,-2,-3,2021-08-06 14:04:22,741222
-1,3,0,3,6,3,-1,1,2021-08-06 14:04:22,741222
1,1,1,-1,-2,-1,2,0,2021-08-06 14:04:22,741222
-2,-3,-1,-1,-1,0,-2,-2,2021-08-06 14:04:22,741222
-1,-1,1,6,10,4,1,0,2021-08-06 14:04:22,741222
-3,-4,-2,-1,-3,-1,-2,-3,2021-08-06 14:04:22,757222
-1,-4,-3,-2,-2,-3,-2,-1,2021-08-06 14:04:22,757222
0,3,-2,-1,-3,0,0,1,2021-08-06 14:04:22,772221
-1,-1,-1,-7,-6,-2,-1,-1,2021-08-06 14:04:22,787220
0,-2,0,0,-1,0,-2,-1,2021-08-06 14:04:22,787220
-2,-4,-3,-2,0,0,-2,-3,2021-08-06 14:04:22,787220
1,1,2,-1,1,-2,-1,0,2021-08-06 14:04:22,787220
-1,1,0,-3,-2,-1,0,-2,2021-08-06 14:04:22,787220
2,3,1,1,-3,0,-2,0,2021-08-06 14:04:22,787220
-2,-3,-3,2,3,2,1,0,2021-08-06 14:04:22,787220
-1,-5,-2,-1,0,-1,-1,-1,2021-08-06 14:04:22,803222
-3,-2,-3,-3,-6,-5,-4,-3,2021-08-06 14:04:22,803222
-1,-3,-1,-4,-3,-1,-1,0,2021-08-06 14:04:22,819221
-1,5,4,4,10,4,0,-1,2021-08-06 14:04:22,819221
-1,2,1,-1,-2,-3,-2,-1,2021-08-06 14:04:22,835221
-2,-4,-1,1,-3,-2,-1,-1,2021-08-06 14:04:22,851221
-3,1,-2,0,-1,-2,-2,-3,2021-08-06 14:04:22,867222
1,1,0,0,0,1,1,2,2021-08-06 14:04:22,867222
-1,-4,-2,-2,0,0,0,1,2021-08-06 14:04:22,867222
0,0,1,0,-1,-1,-2,2,2021-08-06 14:04:22,867222
-2,-3,-1,1,-1,-2,-1,-2,2021-08-06 14:04:22,867222
-1,-2,-2,-2,-3,0,0,0,2021-08-06 14:04:22,867222
1,4,2,3,3,3,0,1,2021-08-06 14:04:22,867222
0,-2,-1,-3,-2,-2,-1,-2,2021-08-06 14:04:22,867222
-1,-3,-3,0,-2,-2,-1,-1,2021-08-06 14:04:22,883222
-3,-2,-3,-2,-2,-2,-2,-2,2021-08-06 14:04:22,883222
-3,-6,-4,-1,-4,-5,-3,-3,2021-08-06 14:04:22,883222
1,0,-1,-3,-3,-1,1,2,2021-08-06 14:04:22,883222
0,0,3,-3,-1,-2,0,0,2021-08-06 14:04:22,883222
1,1,1,0,0,-1,-1,1,2021-08-06 14:04:22,883222
0,-1,-1,-1,-3,1,0,0,2021-08-06 14:04:22,914221
-1,-3,-2,-2,-2,-2,-3,-3,2021-08-06 14:04:22,929220
-3,-2,-4,0,0,0,-2,-2,2021-08-06 14:04:22,944223
-1,-1,1,2,-1,0,-1,1,2021-08-06 14:04:22,944223
-1,0,-1,-2,-1,-2,0,-1,2021-08-06 14:04:22,960222
-1,-1,-3,-3,-2,-1,-1,-2,2021-08-06 14:04:22,960222
-1,1,-1,-2,0,0,0,0,2021-08-06 14:04:22,960222
-1,0,-1,-3,-2,-1,-1,-1,2021-08-06 14:04:22,960222
-2,-3,-3,-1,0,-2,0,-2,2021-08-06 14:04:22,960222
1,3,3,3,2,0,2,1,2021-08-06 14:04:22,960222
-1,-2,-2,-2,-2,-3,-2,-1,2021-08-06 14:04:22,961223
-2,-1,-2,-1,-5,-3,-3,-2,2021-08-06 14:04:22,961223
0,-2,-2,-3,1,2,0,0,2021-08-06 14:04:22,976242
-2,-1,-1,1,-3,0,1,-1,2021-08-06 14:04:22,976242
-1,-1,0,0,1,-2,-1,-2,2021-08-06 14:04:22,976242
-1,-1,0,0,0,0,-1,-2,2021-08-06 14:04:22,976242
-2,-2,-4,-6,-8,-6,-3,-3,2021-08-06 14:04:22,985242
-1,-1,-2,-1,-1,-1,-2,-1,2021-08-06 14:04:22,986241
0,0,1,2,1,-1,0,1,2021-08-06 14:04:22,986241
0,-1,-1,-1,-2,-2,-2,-3,2021-08-06 14:04:22,986241
0,-1,0,-1,0,-3,-2,-2,2021-08-06 14:04:23,008240
-2,-1,-1,-4,-2,-1,-3,-1,2021-08-06 14:04:23,024241
-2,-2,-1,0,2,1,0,-1,2021-08-06 14:04:23,040241
-3,-5,-4,-1,-3,-2,-1,-2,2021-08-06 14:04:23,040241
2,4,1,4,3,3,4,3,2021-08-06 14:04:23,040241
1,2,1,0,0,-2,0,0,2021-08-06 14:04:23,040241
-1,1,-1,-1,-5,-3,-1,-2,2021-08-06 14:04:23,040241
-3,-3,-3,-3,-3,-3,-2,-1,2021-08-06 14:04:23,040241
-1,-2,-1,1,-1,0,0,-1,2021-08-06 14:04:23,056241
-2,-3,0,0,4,0,-2,-1,2021-08-06 14:04:23,056241
-2,-4,-1,2,2,3,0,0,2021-08-06 14:04:23,056241
1,2,1,-1,-1,0,0,0,2021-08-06 14:04:23,056241
-1,0,2,2,3,3,-2,-1,2021-08-06 14:04:23,072240
-1,-2,-1,0,-2,-3,-2,-1,2021-08-06 14:04:23,088241
-2,-1,-2,-4,-5,-4,-2,-3,2021-08-06 14:04:23,088241
1,-1,-2,0,-2,-1,-2,1,2021-08-06 14:04:23,088241
-2,0,-1,-3,-5,-2,-2,0,2021-08-06 14:04:23,088241
0,-1,-3,-1,2,3,1,0,2021-08-06 14:04:23,088241
-1,-3,-2,2,4,2,0,1,2021-08-06 14:04:23,088241
-1,-1,0,1,2,0,1,-2,2021-08-06 14:04:23,088241
-4,-1,-1,-1,-3,-2,-2,-3,2021-08-06 14:04:23,104242
-3,-3,-1,-3,-6,-4,-4,-3,2021-08-06 14:04:23,120241
0,-2,0,-4,-6,-5,-4,-2,2021-08-06 14:04:23,120241
2,3,0,4,6,6,2,2,2021-08-06 14:04:23,120241
2,-1,0,0,0,0,-1,0,2021-08-06 14:04:23,120241
3,5,3,3,4,3,3,2,2021-08-06 14:04:23,120241
0,0,-1,-2,-1,-3,0,1,2021-08-06 14:04:23,120241
-2,-3,-2,-3,-4,-4,-1,-2,2021-08-06 14:04:23,120241
-3,-2,-2,-1,-1,-2,-1,-2,2021-08-06 14:04:23,152244
-2,-2,-4,-4,-3,-2,-2,-3,2021-08-06 14:04:23,152244
1,2,0,1,-1,1,1,0,2021-08-06 14:04:23,152244
-2,-1,-1,0,0,-1,-1,-1,2021-08-06 14:04:23,152244
-2,-2,-1,-3,-5,-4,-3,-3,2021-08-06 14:04:23,197472
-2,-3,-3,-1,-1,-2,-1,-3,2021-08-06 14:04:23,197472
-1,-2,-3,-5,-5,-2,-1,-2,2021-08-06 14:04:23,197472
2,1,3,6,6,4,1,1,2021-08-06 14:04:23,197472
1,2,1,0,1,1,-1,-1,2021-08-06 14:04:23,197472
-1,-1,1,-2,-4,-4,-2,-3,2021-08-06 14:04:23,197472
-3,-4,-5,-6,-8,-5,-3,-3,2021-08-06 14:04:23,198241
1,2,1,4,9,5,0,0,2021-08-06 14:04:23,198241
1,-2,-2,-2,-4,-4,-3,-1,2021-08-06 14:04:23,212749
-1,0,1,1,0,0,-1,-1,2021-08-06 14:04:23,228749
0,3,1,1,1,1,3,1,2021-08-06 14:04:23,228749
-2,-3,-3,-6,-7,-6,-3,-1,2021-08-06 14:04:23,228749
-3,-4,-5,-1,-2,-2,-1,-2,2021-08-06 14:04:23,228749
1,3,5,5,4,3,1,3,2021-08-06 14:04:23,228749
1,3,2,1,1,0,-1,-1,2021-08-06 14:04:23,228749
-1,0,1,-3,-3,-2,-1,-2,2021-08-06 14:04:23,228749
-1,-5,-2,-4,-1,-2,-4,-3,2021-08-06 14:04:23,244751
-3,-4,-3,-1,0,0,0,-1,2021-08-06 14:04:23,244751
-1,-2,-1,-2,-1,1,-2,0,2021-08-06 14:04:23,244751
1,2,-2,-2,-3,-2,-4,-1,2021-08-06 14:04:23,244751
0,3,-1,0,-1,-1,-1,-1,2021-08-06 14:04:23,276751
-1,0,-1,-1,-3,-1,0,-1,2021-08-06 14:04:23,276751
-1,0,1,1,0,-1,0,0,2021-08-06 14:04:23,276751
-1,-2,-1,-2,-1,0,1,-2,2021-08-06 14:04:23,276751
-2,0,0,-2,0,0,1,1,2021-08-06 14:04:23,292752
1,1,-1,-1,-3,-2,-2,0,2021-08-06 14:04:23,292752
-2,1,-1,2,-3,-2,-1,-2,2021-08-06 14:04:23,292752
-2,-2,-2,-2,-4,-3,-1,-1,2021-08-06 14:04:23,292752
0,1,1,2,5,2,1,-1,2021-08-06 14:04:23,308749
1,1,0,-1,0,0,1,0,2021-08-06 14:04:23,308749
-3,-2,-2,-3,0,-1,-3,-3,2021-08-06 14:04:23,308749
-1,-2,-1,1,-1,-2,-2,0,2021-08-06 14:04:23,308749
5,6,7,4,2,4,3,4,2021-08-06 14:04:23,340749
-4,-6,-4,-2,-3,-3,-4,-2,2021-08-06 14:04:23,351749
1,1,1,-2,0,-1,0,0,2021-08-06 14:04:23,351749
-1,-2,-3,-5,-2,-1,-1,-1,2021-08-06 14:04:23,351749
-2,-1,0,-1,0,0,0,0,2021-08-06 14:04:23,351749
-3,-2,-3,-1,-1,-1,-1,-1,2021-08-06 14:04:23,352752
-2,-2,-2,-1,-2,-1,-2,-1,2021-08-06 14:04:23,352752
-2,-3,-3,-4,-5,-3,-3,-2,2021-08-06 14:04:23,352752
1,1,0,0,0,1,1,0,2021-08-06 14:04:23,372750
1,0,-2,-2,0,1,0,-1,2021-08-06 14:04:23,372750
-1,-2,0,1,3,1,0,-2,2021-08-06 14:04:23,372750
-1,-1,-1,3,3,1,-1,-1,2021-08-06 14:04:23,372750
-1,-3,-2,-1,-4,-2,-2,1,2021-08-06 14:04:23,388749
0,2,0,-1,-1,0,-1,1,2021-08-06 14:04:23,388749
-4,-2,-2,0,-2,-2,-2,-1,2021-08-06 14:04:23,388749
0,-1,0,0,-1,0,1,0,2021-08-06 14:04:23,388749
-2,-1,-2,-2,-2,-2,-1,-1,2021-08-06 14:04:23,419750
-2,-3,-3,-2,-2,-2,-1,-3,2021-08-06 14:04:23,419750
1,-1,0,1,0,-2,-2,1,2021-08-06 14:04:23,419750
-1,0,0,-1,-2,-2,-1,-1,2021-08-06 14:04:23,419750
-1,-3,-2,-2,-1,0,-2,-1,2021-08-06 14:04:23,419750
1,-2,-1,0,1,0,-1,1,2021-08-06 14:04:23,419750
0,-1,-3,-2,0,0,2,-1,2021-08-06 14:04:23,419750
-4,-4,-2,-3,-3,0,-2,-3,2021-08-06 14:04:23,419750
2,4,4,2,1,1,1,2,2021-08-06 14:04:23,450751
-1,0,0,0,-2,-1,-2,0,2021-08-06 14:04:23,450751
1,1,1,1,0,2,0,-1,2021-08-06 14:04:23,450751
0,0,-2,-1,-3,-2,-2,0,2021-08-06 14:04:23,450751
-3,-4,-4,-4,-1,-2,1,-2,2021-08-06 14:04:23,482749
-1,-3,-1,4,6,4,-1,-1,2021-08-06 14:04:23,482749
0,1,-1,0,0,0,0,1,2021-08-06 14:04:23,482749
-1,0,3,0,-1,0,0,1,2021-08-06 14:04:23,482749
-3,-3,-2,-3,-4,-3,-1,-1,2021-08-06 14:04:23,482749
0,0,-1,-3,-6,-6,-1,-2,2021-08-06 14:04:23,482749
-3,-3,-2,0,1,0,-1,0,2021-08-06 14:04:23,482749
1,1,1,1,1,2,1,0,2021-08-06 14:04:23,483751
0,0,2,5,4,2,-2,0,2021-08-06 14:04:23,514749
1,1,6,9,9,5,-1,1,2021-08-06 14:04:23,530749
1,-2,-3,-2,-1,-1,0,0,2021-08-06 14:04:23,530749
-4,-8,-11,-23,-27,-20,-8,-4,2021-08-06 14:04:23,530749
-2,-3,-4,-4,-5,-2,-1,-1,2021-08-06 14:04:23,530749
-2,-1,-1,-3,-2,-3,-1,0,2021-08-06 14:04:23,530749
0,0,3,6,8,4,-1,-1,2021-08-06 14:04:23,530749
1,2,4,9,13,6,3,2,2021-08-06 14:04:23,531752
-1,-4,-4,-3,-4,-3,-3,-4,2021-08-06 14:04:23,546750
1,-1,-1,-4,-4,-3,-3,-2,2021-08-06 14:04:23,546750
2,4,2,1,0,1,0,2,2021-08-06 14:04:23,546750
0,1,2,8,8,2,2,1,2021-08-06 14:04:23,546750
-2,2,3,6,4,2,1,0,2021-08-06 14:04:23,578749
3,2,1,1,13,10,5,1,2021-08-06 14:04:23,594750
-4,-8,-13,-27,-30,-17,-5,-4,2021-08-06 14:04:23,610749
-1,-4,-7,-15,-16,-8,-5,-3,2021-08-06 14:04:23,610749
0,-1,3,1,-2,-3,-1,0,2021-08-06 14:04:23,610749
-1,0,3,4,2,0,0,-1,2021-08-06 14:04:23,610749
-1,1,2,4,6,3,1,0,2021-08-06 14:04:23,610749
1,1,2,7,7,3,1,-1,2021-08-06 14:04:23,610749
-1,-2,-2,-1,1,0,-1,-1,2021-08-06 14:04:23,610749
0,0,-1,-3,-4,-2,1,-1,2021-08-06 14:04:23,611749
0,-1,-1,0,-1,-3,-1,-1,2021-08-06 14:04:23,611749
-1,1,3,5,7,4,1,0,2021-08-06 14:04:23,611749
-2,-1,-3,-3,1,1,0,-1,2021-08-06 14:04:23,626749
-4,-2,-7,-7,-9,-4,-2,-3,2021-08-06 14:04:23,626749
-1,-1,1,0,-4,-2,-2,-3,2021-08-06 14:04:23,626749
0,1,1,9,13,7,2,1,2021-08-06 14:04:23,626749
2,2,1,0,0,0,2,2,2021-08-06 14:04:23,658749
-3,-3,-2,-2,-5,-5,-4,0,2021-08-06 14:04:23,658749
0,0,-3,-3,-2,0,-2,0,2021-08-06 14:04:23,658749
1,2,0,1,2,2,1,2,2021-08-06 14:04:23,658749
-1,-2,-3,0,0,1,0,-1,2021-08-06 14:04:23,674750
-1,-2,-3,-1,-5,-3,0,0,2021-08-06 14:04:23,674750
2,2,4,3,2,1,1,1,2021-08-06 14:04:23,674750
-1,-2,0,0,-4,-1,-2,-1,2021-08-06 14:04:23,674750
-3,-2,-3,-4,-3,-2,-3,-2,2021-08-06 14:04:23,690750
-1,0,0,0,-2,-2,-1,0,2021-08-06 14:04:23,706750
-3,-2,-3,1,0,1,-1,-3,2021-08-06 14:04:23,708751
-2,-2,-2,-2,-1,-1,0,-3,2021-08-06 14:04:23,709750
-1,-2,-2,-4,-5,-4,-1,-2,2021-08-06 14:04:23,709750
0,-2,-2,0,2,1,0,-1,2021-08-06 14:04:23,709750
-1,0,-2,-1,3,0,-1,-1,2021-08-06 14:04:23,709750
0,0,2,1,0,0,0,-2,2021-08-06 14:04:23,709750
-1,1,-2,-3,-4,-2,-1,1,2021-08-06 14:04:23,738751
-4,-5,-4,-5,-6,-4,-3,-3,2021-08-06 14:04:23,754749
1,1,2,3,3,1,1,1,2021-08-06 14:04:23,754749
-2,-5,-3,-5,-4,-4,-2,-1,2021-08-06 14:04:23,754749
-3,-6,-6,-1,-1,-2,-3,-2,2021-08-06 14:04:23,754749
3,4,2,-1,-3,-1,1,2,2021-08-06 14:04:23,754749
3,4,3,4,5,4,1,3,2021-08-06 14:04:23,754749
0,0,-1,-1,-2,-2,-2,0,2021-08-06 14:04:23,754749
-3,-4,-3,-1,0,-2,-2,-3,2021-08-06 14:04:23,770749
-3,-3,-4,-4,-4,-1,-1,-2,2021-08-06 14:04:23,786749
-3,-3,1,1,0,-2,-2,-2,2021-08-06 14:04:23,802749
0,0,0,-2,-6,-2,-1,0,2021-08-06 14:04:23,817749
-2,0,1,3,3,1,0,-1,2021-08-06 14:04:23,817749
-1,0,-2,0,-1,-2,0,-1,2021-08-06 14:04:23,817749
-2,-3,-3,-4,-3,-1,-2,-1,2021-08-06 14:04:23,817749
1,0,-1,0,-5,-2,0,-2,2021-08-06 14:04:23,817749
0,-1,3,3,8,5,0,1,2021-08-06 14:04:23,817749
0,2,1,5,11,3,1,-1,2021-08-06 14:04:23,817749
-1,-3,-1,-2,-2,-2,-2,-1,2021-08-06 14:04:23,818751
-2,-2,-4,-6,-7,-3,-4,-2,2021-08-06 14:04:23,818751
-1,-1,-3,-6,-7,-5,-2,0,2021-08-06 14:04:23,832749
-1,0,-1,0,2,0,-1,0,2021-08-06 14:04:23,848749
-1,-2,-3,-3,-2,-1,-1,-2,2021-08-06 14:04:23,848749
0,-1,0,-2,2,0,-1,-1,2021-08-06 14:04:23,848749
-1,1,2,0,-4,0,0,0,2021-08-06 14:04:23,848749
-2,-3,-1,-5,-7,-5,-3,-1,2021-08-06 14:04:23,848749
-1,-1,-2,3,3,0,0,-1,2021-08-06 14:04:23,848749
-1,1,1,1,0,-1,2,1,2021-08-06 14:04:23,848749
4,2,4,8,16,7,2,1,2021-08-06 14:04:23,879749
-1,-2,0,1,-4,-2,-2,-2,2021-08-06 14:04:23,879749
-3,-2,-1,-2,-4,-2,-2,-2,2021-08-06 14:04:23,879749
1,-1,-1,-1,0,0,-1,-1,2021-08-06 14:04:23,879749
-1,-2,-2,-5,-7,-4,-2,-2,2021-08-06 14:04:23,894752
-1,-3,-1,-2,-1,0,0,-1,2021-08-06 14:04:23,910750
0,-2,0,-1,-2,-1,-1,-1,2021-08-06 14:04:23,926750
-1,-1,-1,1,1,0,0,-1,2021-08-06 14:04:23,942750
-1,-1,1,0,-3,-2,-1,-1,2021-08-06 14:04:23,942750
0,-3,-3,0,0,-2,-2,0,2021-08-06 14:04:23,942750
-1,1,0,-1,-2,-2,-2,1,2021-08-06 14:04:23,942750
-2,-1,0,-1,-1,-3,-1,0,2021-08-06 14:04:23,942750
0,2,-2,-3,-3,-2,-1,-1,2021-08-06 14:04:23,942750
0,-2,-2,3,4,1,0,2,2021-08-06 14:04:23,942750
1,0,0,0,0,1,-1,0,2021-08-06 14:04:23,942750
-2,-2,-3,-4,-2,-2,-2,0,2021-08-06 14:04:23,942750
-1,1,0,-3,-5,-3,-1,-1,2021-08-06 14:04:23,957751
0,2,-1,-2,-1,0,0,-1,2021-08-06 14:04:23,973750
0,-3,-4,-1,1,-2,0,-1,2021-08-06 14:04:24,005752
1,0,-2,-1,0,1,0,1,2021-08-06 14:04:24,005752
-2,-3,-4,-3,-5,-3,-2,0,2021-08-06 14:04:24,005752
-2,-2,0,1,3,0,-2,-1,2021-08-06 14:04:24,005752
-5,-2,0,0,0,-1,-2,-3,2021-08-06 14:04:24,005752
0,4,3,3,2,0,-1,-2,2021-08-06 14:04:24,005752
-2,-1,-1,1,-1,-2,-2,-2,2021-08-06 14:04:24,005752
0,1,0,-4,-7,-5,-3,0,2021-08-06 14:04:24,005752
0,-3,-4,-7,-10,-7,-5,-2,2021-08-06 14:04:24,005752
1,-1,2,9,14,5,3,3,2021-08-06 14:04:24,006751
0,-1,-2,-1,0,1,0,0,2021-08-06 14:04:24,006751
-2,-2,-1,-4,-2,-2,1,-2,2021-08-06 14:04:24,006751
-1,-2,-2,-1,-2,-1,1,1,2021-08-06 14:04:24,006751
-2,-3,-1,-3,-7,-2,-3,-1,2021-08-06 14:04:24,006751
-1,-2,0,0,0,0,-1,0,2021-08-06 14:04:24,037751
-3,-3,-1,-2,-5,-3,-2,0,2021-08-06 14:04:24,037751
-1,0,-1,-2,2,-2,0,-1,2021-08-06 14:04:24,037751
-3,-3,-2,-4,-1,-2,-2,-3,2021-08-06 14:04:24,037751
3,4,3,2,2,0,1,1,2021-08-06 14:04:24,053751
0,-2,-1,-1,-2,0,1,0,2021-08-06 14:04:24,068749
1,1,3,2,3,2,0,2,2021-08-06 14:04:24,069751
0,-2,-2,0,-1,0,-1,0,2021-08-06 14:04:24,069751
-2,-2,-2,-4,-3,-4,0,-3,2021-08-06 14:04:24,069751
-1,-3,-6,-4,-3,-1,-2,-2,2021-08-06 14:04:24,069751
0,1,0,3,1,-1,-1,1,2021-08-06 14:04:24,069751
-2,-1,-1,-1,-4,-1,-1,1,2021-08-06 14:04:24,069751
-1,-2,0,2,5,1,-1,-1,2021-08-06 14:04:24,101751
1,2,2,3,1,1,0,0,2021-08-06 14:04:24,117749
-1,-3,-3,-4,-2,0,0,-3,2021-08-06 14:04:24,133749
-1,-2,-1,-5,-7,-5,-3,-1,2021-08-06 14:04:24,133749
2,4,7,14,13,7,1,0,2021-08-06 14:04:24,133749
2,2,6,11,17,9,3,2,2021-08-06 14:04:24,133749
-3,-7,-15,-24,-27,-15,-3,-3,2021-08-06 14:04:24,133749
-4,-7,-9,-20,-23,-17,-7,-5,2021-08-06 14:04:24,133749
-2,-3,-2,0,0,-2,0,-2,2021-08-06 14:04:24,133749
0,3,4,11,12,4,0,-2,2021-08-06 14:04:24,133749
1,2,4,10,12,9,3,3,2021-08-06 14:04:24,133749
-2,-2,-5,-8,-9,-5,0,-1,2021-08-06 14:04:24,133749
-3,-3,-3,-9,-12,-5,-5,-2,2021-08-06 14:04:24,149749
1,1,6,12,14,8,2,1,2021-08-06 14:04:24,165749
-2,-1,0,3,7,4,3,1,2021-08-06 14:04:24,181749
0,1,1,0,-3,0,0,0,2021-08-06 14:04:24,181749
-1,-1,-1,-3,-6,-2,0,-2,2021-08-06 14:04:24,181749
0,1,-1,2,10,4,0,0,2021-08-06 14:04:24,181749
0,-1,2,8,7,4,1,0,2021-08-06 14:04:24,181749
-2,-2,-4,-4,-8,-8,-2,-1,2021-08-06 14:04:24,181749
-1,-3,-3,-6,-5,-3,-2,0,2021-08-06 14:04:24,197750
-2,-3,-6,-12,-15,-9,-3,-4,2021-08-06 14:04:24,213751
0,-1,0,-1,1,0,0,-3,2021-08-06 14:04:24,229749
1,1,5,11,15,11,1,0,2021-08-06 14:04:24,229749
1,-2,-2,-2,-2,0,0,-1,2021-08-06 14:04:24,229749
0,-1,-1,-11,-12,-7,0,-1,2021-08-06 14:04:24,229749
2,3,3,5,4,4,-1,1,2021-08-06 14:04:24,229749
0,1,1,5,5,3,0,0,2021-08-06 14:04:24,229749
-2,-2,-5,-2,-3,-3,0,0,2021-08-06 14:04:24,230752
-2,-4,-5,-8,-11,-7,-5,-1,2021-08-06 14:04:24,230752
-2,0,1,-2,-4,-2,-3,-2,2021-08-06 14:04:24,230752
-2,0,-1,-1,-2,1,0,0,2021-08-06 14:04:24,230752
0,-2,-3,-3,0,-1,-1,-1,2021-08-06 14:04:24,261751
-2,-1,-2,1,-1,0,0,0,2021-08-06 14:04:24,261751
-2,-2,-2,-3,-3,-3,-2,0,2021-08-06 14:04:24,261751
0,1,1,3,4,2,-1,-1,2021-08-06 14:04:24,261751
-2,-2,-2,-8,-9,-4,-3,-1,2021-08-06 14:04:24,277751
0,-1,-1,-2,-6,-1,1,1,2021-08-06 14:04:24,277751
-2,-2,-2,-4,-2,-2,-2,0,2021-08-06 14:04:24,293752
0,1,1,3,8,4,1,-1,2021-08-06 14:04:24,293752
-1,0,0,0,1,0,1,0,2021-08-06 14:04:24,325753
-3,-3,-1,-4,-8,-5,-2,-2,2021-08-06 14:04:24,325753
-1,-1,-3,-1,-4,-2,-1,-1,2021-08-06 14:04:24,325753
0,1,1,0,2,2,1,1,2021-08-06 14:04:24,325753
0,1,-2,3,3,1,-1,0,2021-08-06 14:04:24,325753
-2,0,-3,-4,-4,-1,-1,-1,2021-08-06 14:04:24,325753
0,-2,-1,-1,-1,-1,-1,1,2021-08-06 14:04:24,325753
-1,-2,1,-1,-1,-2,-1,-1,2021-08-06 14:04:24,325753
-1,-1,-1,-3,-1,0,-2,-2,2021-08-06 14:04:24,341754
-1,1,-1,-3,-5,-3,-2,0,2021-08-06 14:04:24,341754
0,0,4,3,5,1,0,1,2021-08-06 14:04:24,341754
-1,-1,-3,0,-1,0,0,0,2021-08-06 14:04:24,341754
0,1,0,0,1,-1,1,0,2021-08-06 14:04:24,341754
-1,0,-2,0,0,-1,-3,0,2021-08-06 14:04:24,341754
0,0,-1,0,-1,-1,0,-1,2021-08-06 14:04:24,342755
0,-1,-1,-1,-1,0,1,-2,2021-08-06 14:04:24,342755
-1,-2,-1,1,-2,-2,-1,-2,2021-08-06 14:04:24,373751
1,-1,-2,-1,0,0,0,-2,2021-08-06 14:04:24,373751
0,-1,-1,-1,-2,-3,-1,-1,2021-08-06 14:04:24,373751
-2,-1,0,-1,3,1,0,0,2021-08-06 14:04:24,373751
-4,-2,-3,-2,-4,-1,-1,-1,2021-08-06 14:04:24,405756
1,0,0,3,8,3,2,2,2021-08-06 14:04:24,405756
0,1,0,1,-1,-2,0,0,2021-08-06 14:04:24,405756
-2,0,-2,-3,-5,-3,-2,-1,2021-08-06 14:04:24,405756
0,0,2,1,2,1,0,0,2021-08-06 14:04:24,405756
-2,-2,-3,-7,-10,-6,-3,-2,2021-08-06 14:04:24,405756
-1,0,0,4,9,4,1,-1,2021-08-06 14:04:24,405756
3,0,0,0,-1,0,1,-1,2021-08-06 14:04:24,405756
1,0,-1,-2,1,-1,-1,0,2021-08-06 14:04:24,437750
-1,-2,-1,-3,-5,-2,-2,-2,2021-08-06 14:04:24,453749
-3,-2,-1,-4,-6,-3,-2,-3,2021-08-06 14:04:24,453749
-2,-1,1,2,5,3,1,1,2021-08-06 14:04:24,453749
0,-1,-2,0,-1,-1,-1,-1,2021-08-06 14:04:24,453749
1,0,0,2,2,-1,2,0,2021-08-06 14:04:24,453749
0,-1,-1,-5,-5,-2,-2,-2,2021-08-06 14:04:24,453749
-2,1,-2,0,1,0,-1,-1,2021-08-06 14:04:24,454751
-1,-2,1,0,0,-1,0,0,2021-08-06 14:04:24,485751
-2,-2,-1,0,1,-1,0,-1,2021-08-06 14:04:24,501751
0,-2,-2,0,-3,0,1,-1,2021-08-06 14:04:24,517751
1,-1,0,-3,-5,-2,-3,-1,2021-08-06 14:04:24,517751
0,0,0,4,5,3,-1,1,2021-08-06 14:04:24,517751
-3,-1,-2,-2,-3,-1,0,0,2021-08-06 14:04:24,517751
1,-1,-2,0,1,-1,-2,0,2021-08-06 14:04:24,517751
-1,-3,-3,-1,0,-1,-1,-2,2021-08-06 14:04:24,517751
-1,0,1,-2,-1,0,-1,-1,2021-08-06 14:04:24,518751
-1,-1,-2,-3,-5,-3,-3,-1,2021-08-06 14:04:24,518751
1,0,-1,0,-1,1,-1,1,2021-08-06 14:04:24,518751
-3,-2,-2,-1,-2,-3,0,-2,2021-08-06 14:04:24,518751
-1,-2,0,-2,-6,-1,-1,0,2021-08-06 14:04:24,533751
-2,-2,-1,2,6,2,0,-1,2021-08-06 14:04:24,549752
-3,-2,-1,0,-4,-3,-2,-3,2021-08-06 14:04:24,549752
0,2,1,0,-3,-3,-1,1,2021-08-06 14:04:24,549752
-1,0,-4,-5,-6,-4,-1,-1,2021-08-06 14:04:24,565750
1,1,2,2,1,0,1,-1,2021-08-06 14:04:24,565750
-1,-1,1,0,2,-2,-1,-1,2021-08-06 14:04:24,565750
-1,-2,-2,0,-1,-2,-1,-1,2021-08-06 14:04:24,565750
-2,-1,-2,-2,-3,-3,-1,-1,2021-08-06 14:04:24,581754
0,0,0,0,1,2,-1,0,2021-08-06 14:04:24,581754
-1,-3,-2,0,1,2,0,-2,2021-08-06 14:04:24,581754
2,1,3,4,3,1,2,0,2021-08-06 14:04:24,581754
-1,-1,-2,-1,-3,0,-1,-3,2021-08-06 14:04:24,581754
-2,-3,-3,-2,-3,-2,-2,-2,2021-08-06 14:04:24,581754
-1,1,2,1,2,1,1,2,2021-08-06 14:04:24,581754
-2,-1,-3,-1,2,1,0,-1,2021-08-06 14:04:24,582752
1,0,1,2,3,1,2,1,2021-08-06 14:04:24,628750
-3,-3,-4,-6,-9,-6,-3,-3,2021-08-06 14:04:24,628750
2,2,-2,-5,-3,0,1,0,2021-08-06 14:04:24,628750
0,-2,1,2,0,0,-1,-1,2021-08-06 14:04:24,628750
-2,-2,-4,-1,-2,-3,-1,-1,2021-08-06 14:04:24,644751
-2,-1,-1,-3,-5,-1,-1,-1,2021-08-06 14:04:24,644751
-1,0,1,1,3,0,-1,1,2021-08-06 14:04:24,644751
-3,-2,-1,-4,-4,-4,-1,0,2021-08-06 14:04:24,644751
-2,-1,-1,1,2,1,-1,-1,2021-08-06 14:04:24,644751
0,1,-2,-5,-9,-3,-2,0,2021-08-06 14:04:24,644751
0,0,2,4,6,2,-2,-1,2021-08-06 14:04:24,660750
0,0,0,0,1,0,0,0,2021-08-06 14:04:24,660750
-1,-2,2,1,-1,-1,-1,0,2021-08-06 14:04:24,676750
1,-1,-3,0,0,-4,0,-1,2021-08-06 14:04:24,676750
1,0,-1,1,0,1,1,0,2021-08-06 14:04:24,676750
1,0,-4,-3,-3,-2,-1,-2,2021-08-06 14:04:24,692749
1,2,2,3,6,4,3,1,2021-08-06 14:04:24,692749
-2,-1,0,1,1,-1,0,1,2021-08-06 14:04:24,692749
-4,-1,-2,-2,-6,-3,-2,0,2021-08-06 14:04:24,692749
-2,-1,-3,-7,-10,-5,-4,-1,2021-08-06 14:04:24,692749
0,-1,-3,-1,3,1,-1,0,2021-08-06 14:04:24,708751
1,-1,1,3,5,3,1,-1,2021-08-06 14:04:24,708751
-1,0,0,2,3,0,2,0,2021-08-06 14:04:24,724751
-2,-2,-2,0,-1,1,-2,-1,2021-08-06 14:04:24,740750
-1,0,0,-1,-2,-1,-3,-1,2021-08-06 14:04:24,740750
-2,-2,-2,-3,-5,-3,-3,-2,2021-08-06 14:04:24,740750
1,-3,-2,-2,-1,-1,0,0,2021-08-06 14:04:24,740750
-1,0,2,1,3,1,0,0,2021-08-06 14:04:24,756751
2,0,1,0,-1,-1,1,1,2021-08-06 14:04:24,772751
0,-2,-2,0,1,1,-1,-1,2021-08-06 14:04:24,788750
-3,-2,-4,-6,-10,-5,-3,-3,2021-08-06 14:04:24,804750
-5,-2,-2,0,-2,0,-2,-4,2021-08-06 14:04:24,804750
-2,1,2,5,6,4,0,-1,2021-08-06 14:04:24,804750
-2,0,-2,-4,-3,-3,1,-2,2021-08-06 14:04:24,804750
-1,0,-1,-2,-4,-2,-2,-2,2021-08-06 14:04:24,804750
-1,-3,-2,1,1,1,0,-1,2021-08-06 14:04:24,805753
1,3,1,0,-1,-2,-1,-3,2021-08-06 14:04:24,805753
2,1,2,6,5,4,1,0,2021-08-06 14:04:24,805753
-3,-3,-6,-9,-9,-6,-3,-3,2021-08-06 14:04:24,805753
0,-1,-2,-4,-3,-2,0,0,2021-08-06 14:04:24,805753
-2,-3,-4,-3,-4,-1,0,-1,2021-08-06 14:04:24,805753
1,1,0,3,3,1,0,-1,2021-08-06 14:04:24,805753
-1,0,1,2,3,1,0,0,2021-08-06 14:04:24,820751
1,2,-1,3,0,0,-1,0,2021-08-06 14:04:24,836750
-1,-2,-4,-2,-2,-3,-1,-2,2021-08-06 14:04:24,852750
-3,-2,1,1,1,0,-1,-1,2021-08-06 14:04:24,868751
-4,-3,-4,-3,-4,-3,-2,-2,2021-08-06 14:04:24,883751
-1,0,0,-2,0,-1,0,0,2021-08-06 14:04:24,883751
0,0,1,0,-1,0,-2,0,2021-08-06 14:04:24,883751
-2,-2,-2,-2,-2,-2,0,-1,2021-08-06 14:04:24,883751
1,1,2,1,1,0,0,0,2021-08-06 14:04:24,883751
-2,0,-1,-1,-1,0,0,0,2021-08-06 14:04:24,883751
-3,-8,-6,-2,-3,-2,-3,-4,2021-08-06 14:04:24,883751
1,2,3,1,0,1,0,2,2021-08-06 14:04:24,884751
-1,-1,-2,0,2,-1,0,-2,2021-08-06 14:04:24,884751
7,8,8,5,5,5,5,5,2021-08-06 14:04:24,884751
-2,0,-3,-5,-6,-2,-3,-2,2021-08-06 14:04:24,884751
-3,-2,-4,-3,-3,-2,-2,-1,2021-08-06 14:04:24,884751
0,-2,0,1,-1,0,-2,-2,2021-08-06 14:04:24,896751
-5,-5,-4,-4,-3,-3,-3,-4,2021-08-06 14:04:24,896751
0,0,0,-1,0,-2,-2,0,2021-08-06 14:04:24,914749
-4,-2,-2,-2,-2,-1,-1,-2,2021-08-06 14:04:24,930750
1,1,-1,0,0,0,1,1,2021-08-06 14:04:24,930750
-1,-3,-3,-1,-3,-2,-1,-1,2021-08-06 14:04:24,930750
-1,-1,0,-1,1,0,1,1,2021-08-06 14:04:24,930750
-1,-2,-1,-1,-1,0,-2,-2,2021-08-06 14:04:24,930750
-2,-1,0,-2,-3,-2,-2,-2,2021-08-06 14:04:24,930750
0,0,1,-3,-3,-1,-2,-1,2021-08-06 14:04:24,931750
0,0,-1,-2,-1,-2,2,-1,2021-08-06 14:04:24,946765
-3,-2,-2,0,-1,-1,-3,0,2021-08-06 14:04:24,946765
-1,0,-1,1,-1,-1,0,-1,2021-08-06 14:04:24,962751
3,3,1,1,0,0,0,1,2021-08-06 14:04:24,962751
-1,-2,-1,-2,-1,1,-2,-2,2021-08-06 14:04:24,978749
1,0,-2,-2,0,-1,0,1,2021-08-06 14:04:24,978749
-2,1,-3,-2,-1,-2,-1,-2,2021-08-06 14:04:24,978749
-3,-3,-2,-2,-3,-2,-2,-3,2021-08-06 14:04:24,978749
-1,0,-1,0,-2,-1,-1,0,2021-08-06 14:04:24,994751
0,-2,1,4,3,1,-1,-1,2021-08-06 14:04:24,994751
-1,-3,-2,-3,-6,-2,-2,-2,2021-08-06 14:04:24,994751
-1,-1,-1,2,3,1,2,1,2021-08-06 14:04:24,994751
-1,-1,-1,-1,0,-1,-2,-1,2021-08-06 14:04:25,010751
-1,-1,-2,-3,-2,-1,-2,-2,2021-08-06 14:04:25,010751
-1,-2,-2,-2,1,-1,0,0,2021-08-06 14:04:25,010751
-2,-2,-1,-1,1,-1,-1,-1,2021-08-06 14:04:25,010751
-2,-2,-2,-1,-5,-4,-3,-2,2021-08-06 14:04:25,041752
-1,-1,-1,-1,3,1,1,1,2021-08-06 14:04:25,057749
0,2,2,5,3,1,-1,-1,2021-08-06 14:04:25,088752
-2,0,0,0,-2,-1,-1,1,2021-08-06 14:04:25,088752
0,0,-1,1,2,1,0,0,2021-08-06 14:04:25,088752
-1,2,-2,-4,-6,-5,-3,-4,2021-08-06 14:04:25,088752
1,-2,-2,-2,-1,-1,-1,1,2021-08-06 14:04:25,088752
-2,-2,-1,-2,-3,-5,-1,-4,2021-08-06 14:04:25,088752
1,-1,-1,2,7,3,1,0,2021-08-06 14:04:25,088752
2,3,2,2,-1,1,0,2,2021-08-06 14:04:25,104750
-1,-1,-1,1,1,0,0,0,2021-08-06 14:04:25,136750
-2,-6,-4,-1,-2,-2,-3,-3,2021-08-06 14:04:25,136750
0,1,2,-4,-4,-4,0,0,2021-08-06 14:04:25,136750
0,0,-2,0,-1,-1,-1,-1,2021-08-06 14:04:25,136750
1,2,2,7,8,5,1,0,2021-08-06 14:04:25,136750
0,-3,-3,-1,-3,-1,-2,1,2021-08-06 14:04:25,136750
-3,-2,-5,-4,-5,-3,-3,-1,2021-08-06 14:04:25,136750
-1,-1,0,1,3,0,0,1,2021-08-06 14:04:25,137750
-1,-1,-2,-4,-6,-2,-1,0,2021-08-06 14:04:25,137750
-2,-2,-2,-4,-3,-3,-2,-3,2021-08-06 14:04:25,137750
-2,-2,-2,3,3,1,-1,-2,2021-08-06 14:04:25,137750
0,0,0,-1,-2,-2,1,1,2021-08-06 14:04:25,137750
-1,-2,-1,-3,-4,-1,0,0,2021-08-06 14:04:25,137750
1,1,0,0,0,1,-1,-1,2021-08-06 14:04:25,137750
0,-2,0,3,5,3,0,0,2021-08-06 14:04:25,152751
1,-3,-1,-3,-2,-1,-1,0,2021-08-06 14:04:25,152751
-1,-2,-2,-2,-2,-2,-1,0,2021-08-06 14:04:25,152751
-2,0,-2,-1,-2,-1,0,-1,2021-08-06 14:04:25,152751
0,-3,-2,-4,-5,-4,-3,-2,2021-08-06 14:04:25,183750
0,0,0,0,0,-1,0,0,2021-08-06 14:04:25,183750
0,-1,-2,-3,-2,-1,-1,-1,2021-08-06 14:04:25,199750
-1,-1,-2,-2,-1,-2,-1,-1,2021-08-06 14:04:25,215751
1,3,2,1,0,-1,1,1,2021-08-06 14:04:25,215751
0,-2,0,1,2,0,0,-2,2021-08-06 14:04:25,215751
-3,-2,-3,-5,-7,-7,-4,-3,2021-08-06 14:04:25,215751
1,3,1,0,4,3,2,2,2021-08-06 14:04:25,215751
-1,-1,-1,4,3,1,0,-1,2021-08-06 14:04:25,215751
0,0,-1,-1,-1,0,0,-1,2021-08-06 14:04:25,216751
-2,-2,-2,0,0,-1,-1,-1,2021-08-06 14:04:25,216751
-1,-3,-2,-3,-6,-2,-3,-1,2021-08-06 14:04:25,216751
-3,-2,1,-3,-2,-1,-2,-1,2021-08-06 14:04:25,246752
-1,1,-2,-1,0,0,0,-1,2021-08-06 14:04:25,246752
-3,-2,-2,-4,-6,-4,-3,-1,2021-08-06 14:04:25,246752
2,1,2,7,13,6,0,1,2021-08-06 14:04:25,246752
-2,-5,-6,-3,-5,1,-2,-1,2021-08-06 14:04:25,262751
1,1,3,3,-1,-2,-1,0,2021-08-06 14:04:25,262751
1,1,1,0,-4,-2,-1,-1,2021-08-06 14:04:25,262751
-2,-3,-5,-2,1,-2,0,-3,2021-08-06 14:04:25,262751
3,3,2,0,1,2,2,2,2021-08-06 14:04:25,278749
-1,-1,0,-1,0,2,1,-1,2021-08-06 14:04:25,278749
-2,-4,-2,-1,-1,0,-2,-2,2021-08-06 14:04:25,278749
-2,-3,-2,-3,-5,-1,-2,-1,2021-08-06 14:04:25,278749
2,5,1,-1,-1,-1,0,0,2021-08-06 14:04:25,294749
-2,-2,-3,-2,-5,-3,-3,-2,2021-08-06 14:04:25,310750
1,2,-1,0,-1,-1,1,0,2021-08-06 14:04:25,310750
-3,-3,-3,2,5,5,2,1,2021-08-06 14:04:25,310750
-6,-7,-6,-5,-6,-6,-6,-5,2021-08-06 14:04:25,310750
-1,-3,-2,-2,-3,-2,-1,0,2021-08-06 14:04:25,310750
1,2,0,2,2,2,-1,0,2021-08-06 14:04:25,310750
-1,-3,-2,-3,-2,-3,-2,-3,2021-08-06 14:04:25,310750
1,1,1,-1,-3,-3,0,-1,2021-08-06 14:04:25,342751
-2,-2,-2,-3,-5,-2,-1,-2,2021-08-06 14:04:25,342751
-4,-6,-4,2,5,2,-1,-4,2021-08-06 14:04:25,342751
1,2,1,-1,-3,0,3,1,2021-08-06 14:04:25,342751
0,0,2,5,6,3,1,0,2021-08-06 14:04:25,358754
-4,-4,-2,-2,-4,-5,-6,-5,2021-08-06 14:04:25,374750
0,-1,-2,-2,-4,-1,-1,1,2021-08-06 14:04:25,390750
-1,-2,0,-4,-4,-4,-3,-2,2021-08-06 14:04:25,390750
0,0,0,1,5,2,2,2,2021-08-06 14:04:25,390750
2,1,-1,1,-1,1,0,1,2021-08-06 14:04:25,390750
-1,-1,-1,-1,-3,-1,-2,0,2021-08-06 14:04:25,390750
-3,-1,-3,-3,-3,-1,-1,-2,2021-08-06 14:04:25,390750
0,0,2,0,-4,-2,1,-1,2021-08-06 14:04:25,391751
0,-1,0,2,3,0,0,0,2021-08-06 14:04:25,391751
2,2,1,1,-1,-2,0,1,2021-08-06 14:04:25,391751
-1,0,1,2,3,0,-1,0,2021-08-06 14:04:25,391751
-2,-5,-3,-2,-3,-2,-3,-3,2021-08-06 14:04:25,421751
1,2,2,-2,-1,1,-1,0,2021-08-06 14:04:25,436749
0,0,0,-1,2,2,1,1,2021-08-06 14:04:25,436749
2,3,1,2,0,-1,0,0,2021-08-06 14:04:25,436749
-2,-3,-3,-2,-4,-2,0,-1,2021-08-06 14:04:25,436749
-2,-3,-4,-1,0,0,-1,-1,2021-08-06 14:04:25,436749
-3,-5,-2,-3,-4,-4,-2,-3,2021-08-06 14:04:25,451749
-1,-2,0,0,-1,-1,-1,-1,2021-08-06 14:04:25,451749
1,0,0,0,-1,0,0,0,2021-08-06 14:04:25,451749
0,0,-4,-3,-2,0,2,0,2021-08-06 14:04:25,451749
1,2,2,0,3,2,2,-1,2021-08-06 14:04:25,451749
-2,-2,-3,-2,-3,-2,-2,0,2021-08-06 14:04:25,451749
-3,-3,-3,-4,-3,-3,-4,-3,2021-08-06 14:04:25,481749
-3,-3,-4,-1,0,0,-1,0,2021-08-06 14:04:25,481749
-1,-1,0,-1,1,0,-2,-2,2021-08-06 14:04:25,481749
2,2,3,1,-1,-1,1,0,2021-08-06 14:04:25,481749
-2,0,-1,-1,-2,-1,0,-1,2021-08-06 14:04:25,496749
-1,-2,-1,-2,-1,-2,-2,-3,2021-08-06 14:04:25,496749
-2,-2,-2,0,-1,1,-1,-2,2021-08-06 14:04:25,496749
-2,-3,-4,-3,-2,-2,-3,-2,2021-08-06 14:04:25,496749
-1,3,1,-1,1,0,-1,2,2021-08-06 14:04:25,511750
-1,-2,0,-1,-1,-2,-1,0,2021-08-06 14:04:25,511750
0,0,0,0,0,0,0,-1,2021-08-06 14:04:25,511750
-2,-1,-1,-3,-4,-1,-1,0,2021-08-06 14:04:25,511750
-1,-2,-2,-1,0,-2,-1,-1,2021-08-06 14:04:25,542751
-1,-1,-1,-1,0,1,0,0,2021-08-06 14:04:25,558751
-1,-1,-1,1,1,-2,0,-1,2021-08-06 14:04:25,574751
-1,-1,-1,0,-2,1,-1,-1,2021-08-06 14:04:25,574751
0,-3,-2,-2,-1,1,-2,-2,2021-08-06 14:04:25,574751
0,-1,1,-2,-1,-1,-2,-1,2021-08-06 14:04:25,574751
1,-2,-2,-1,-1,0,0,0,2021-08-06 14:04:25,574751
-1,-1,0,-1,0,-2,1,1,2021-08-06 14:04:25,574751
0,0,1,-1,-2,-1,0,0,2021-08-06 14:04:25,574751
-1,-2,-3,-1,-1,-3,-1,-2,2021-08-06 14:04:25,575751
-2,0,0,-2,-2,-1,-1,-1,2021-08-06 14:04:25,575751
1,1,0,3,5,1,0,0,2021-08-06 14:04:25,575751
-1,-1,0,-1,-3,-1,0,-1,2021-08-06 14:04:25,606751
-1,-3,-3,-3,-2,1,0,-1,2021-08-06 14:04:25,606751
1,0,0,0,-4,-1,0,1,2021-08-06 14:04:25,622751
1,0,2,1,3,4,1,-2,2021-08-06 14:04:25,622751
0,0,-1,1,0,-2,-1,-1,2021-08-06 14:04:25,622751
-3,-1,-1,-1,0,-1,-2,-3,2021-08-06 14:04:25,622751
-3,-3,-3,-4,-2,-4,-4,-3,2021-08-06 14:04:25,638752
0,1,0,-2,-3,-2,-1,0,2021-08-06 14:04:25,654750
0,0,-1,1,1,-1,0,-1,2021-08-06 14:04:25,654750
0,-2,-2,-2,-3,-2,-2,-1,2021-08-06 14:04:25,654750
1,2,0,0,-4,-1,0,0,2021-08-06 14:04:25,654750
0,-1,-1,0,-3,-1,1,0,2021-08-06 14:04:25,654750
-1,-2,0,1,4,3,0,-1,2021-08-06 14:04:25,654750
0,0,0,2,1,1,1,1,2021-08-06 14:04:25,654750
-2,-4,-3,-3,-1,-3,-4,-2,2021-08-06 14:04:25,655753
-1,-1,-2,0,-1,-2,-1,-2,2021-08-06 14:04:25,655753
0,2,-1,-1,-4,-1,-1,1,2021-08-06 14:04:25,686749
0,0,-1,1,0,1,0,0,2021-08-06 14:04:25,686749
-2,-2,-3,-1,1,3,0,-2,2021-08-06 14:04:25,686749
-4,-3,-4,-2,-5,-4,-4,-3,2021-08-06 14:04:25,686749
-2,-1,-1,0,-1,-2,-1,-1,2021-08-06 14:04:25,686749
1,3,4,0,1,-1,-1,1,2021-08-06 14:04:25,686749
1,4,5,3,-1,1,0,0,2021-08-06 14:04:25,702749
0,-2,-1,-3,-2,-1,-2,-2,2021-08-06 14:04:25,702749
-3,-2,-3,-2,-3,-1,-2,-2,2021-08-06 14:04:25,718749
3,5,5,4,5,3,3,4,2021-08-06 14:04:25,722752
-1,-3,-5,0,0,-2,-3,-2,2021-08-06 14:04:25,722752
-2,-6,-4,0,-1,-1,0,-2,2021-08-06 14:04:25,722752
-2,-4,-2,-3,-4,-3,-1,-1,2021-08-06 14:04:25,748749
-5,-3,-3,0,-5,-4,-4,-4,2021-08-06 14:04:25,763749
1,2,3,6,12,7,2,1,2021-08-06 14:04:25,779749
-1,-2,-5,-13,-14,-6,-2,-2,2021-08-06 14:04:25,779749
-2,-3,-7,-11,-16,-10,-4,-3,2021-08-06 14:04:25,779749
-2,-3,-3,-4,-5,-2,-1,-2,2021-08-06 14:04:25,779749
0,2,4,4,3,1,0,1,2021-08-06 14:04:25,795751
0,2,5,12,13,7,1,0,2021-08-06 14:04:25,795751
0,1,-2,-1,0,1,0,-1,2021-08-06 14:04:25,795751
1,0,1,1,2,0,0,-1,2021-08-06 14:04:25,795751
1,1,1,7,12,7,3,2,2021-08-06 14:04:25,795751
-3,-3,-3,-3,-2,-3,-2,0,2021-08-06 14:04:25,795751
-2,0,0,-2,-1,-1,-1,0,2021-08-06 14:04:25,795751
1,0,0,-3,-4,-1,-1,2,2021-08-06 14:04:25,795751
-1,-2,-2,-1,-5,-2,-1,-2,2021-08-06 14:04:25,795751
-2,-4,-2,-5,-5,-3,-4,-1,2021-08-06 14:04:25,795751
1,3,2,4,4,2,0,1,2021-08-06 14:04:25,811750
-1,-3,-2,-2,-1,0,-1,0,2021-08-06 14:04:25,811750
-1,-3,-2,-6,-6,-3,0,-1,2021-08-06 14:04:25,827751
-1,-1,-3,-2,-4,-5,-4,1,2021-08-06 14:04:25,827751
1,-1,1,2,1,-1,0,0,2021-08-06 14:04:25,827751
0,-1,0,0,4,3,0,0,2021-08-06 14:04:25,827751
0,-2,-2,-2,-4,-2,0,0,2021-08-06 14:04:25,843751
-2,-1,-2,1,3,2,-1,-1,2021-08-06 14:04:25,859750
1,1,-1,2,3,2,0,1,2021-08-06 14:04:25,859750
-2,-1,-3,-1,-3,-3,0,-1,2021-08-06 14:04:25,859750
-2,0,-2,-4,-5,-5,-3,-1,2021-08-06 14:04:25,859750
0,-1,1,0,-1,-2,0,-1,2021-08-06 14:04:25,859750
-3,-3,-2,-3,-1,-2,0,-2,2021-08-06 14:04:25,875751
-4,-3,-3,-5,-2,-3,-3,-1,2021-08-06 14:04:25,875751
0,2,2,-1,-1,-1,0,0,2021-08-06 14:04:25,875751
-1,0,-3,-2,-2,-2,-1,-1,2021-08-06 14:04:25,875751
0,-1,0,1,-1,0,-1,0,2021-08-06 14:04:25,905751
-3,-2,-3,-1,-1,0,0,-2,2021-08-06 14:04:25,921750
-1,-2,-4,-2,-2,-2,-2,-1,2021-08-06 14:04:25,921750
0,1,1,0,0,1,0,-1,2021-08-06 14:04:25,921750
-1,-3,0,-1,-1,-1,-2,-2,2021-08-06 14:04:25,921750
-1,-2,-4,-2,-3,-2,0,-2,2021-08-06 14:04:25,921750
0,-4,-4,-2,-4,-3,-1,-1,2021-08-06 14:04:25,921750
1,0,-1,1,3,1,1,1,2021-08-06 14:04:25,922751
3,4,4,3,3,3,1,3,2021-08-06 14:04:25,936749
-1,-1,0,1,0,-1,-1,1,2021-08-06 14:04:25,936749
-2,-3,-2,-4,-5,-3,-2,-1,2021-08-06 14:04:25,936749
0,2,0,2,-1,0,0,1,2021-08-06 14:04:25,936749
-2,-3,-2,-1,0,-1,-1,-3,2021-08-06 14:04:25,966749
1,1,0,0,0,0,-1,-2,2021-08-06 14:04:25,966749
-1,0,-2,-2,-2,-1,-1,-1,2021-08-06 14:04:25,966749
-2,-3,-1,-2,-2,-2,0,-1,2021-08-06 14:04:25,966749
-2,-5,-3,-2,-2,-4,-1,0,2021-08-06 14:04:25,981749
1,2,1,1,1,1,1,0,2021-08-06 14:04:25,996750
-1,0,0,2,2,1,-2,-1,2021-08-06 14:04:26,012751
0,1,-2,-2,-3,-3,0,1,2021-08-06 14:04:26,012751
-2,-1,1,-1,-2,-3,-2,-1,2021-08-06 14:04:26,012751
-1,-1,0,2,-1,-1,-1,-1,2021-08-06 14:04:26,012751
-1,-2,-3,-1,-1,1,-1,-1,2021-08-06 14:04:26,012751
0,-1,-2,0,1,1,-1,-1,2021-08-06 14:04:26,012751
-3,-1,-4,-4,-4,-3,-1,-2,2021-08-06 14:04:26,012751
-2,0,0,-1,-1,-1,-2,0,2021-08-06 14:04:26,012751
2,1,0,-1,1,0,2,0,2021-08-06 14:04:26,028751
-1,-1,-1,0,1,0,0,0,2021-08-06 14:04:26,044750
-1,-2,-5,-5,-5,-3,-2,-2,2021-08-06 14:04:26,060750
0,-2,-2,-4,-4,0,-1,0,2021-08-06 14:04:26,076751
1,1,0,2,1,2,0,0,2021-08-06 14:04:26,092750
0,0,0,1,-1,0,1,0,2021-08-06 14:04:26,092750
-4,-2,-4,-1,-1,0,-3,-2,2021-08-06 14:04:26,092750
1,3,4,3,-1,-5,-3,-1,2021-08-06 14:04:26,092750
-3,-5,-6,-5,-2,-2,-3,0,2021-08-06 14:04:26,092750
-4,-4,-6,-14,-9,-5,-4,-2,2021-08-06 14:04:26,092750
5,6,6,6,6,6,4,5,2021-08-06 14:04:26,093755
-1,-3,-1,-1,-1,-1,-1,0,2021-08-06 14:04:26,093755
-2,-1,2,6,4,0,-2,-3,2021-08-06 14:04:26,107750
1,1,1,4,1,2,0,0,2021-08-06 14:04:26,123750
-4,-6,-10,-10,-10,-7,-2,-4,2021-08-06 14:04:26,128751
-3,-2,-1,-2,0,-1,0,-3,2021-08-06 14:04:26,128751
6,10,10,11,9,7,4,4,2021-08-06 14:04:26,128751
0,4,5,11,8,5,1,0,2021-08-06 14:04:26,128751
-3,-6,-9,-15,-16,-11,-4,-3,2021-08-06 14:04:26,129753
-6,-7,-8,-12,-17,-10,-6,-2,2021-08-06 14:04:26,129753
-1,-3,-4,-2,7,3,1,-1,2021-08-06 14:04:26,129753
2,3,3,4,5,4,2,1,2021-08-06 14:04:26,129753
2,3,8,11,14,10,1,1,2021-08-06 14:04:26,129753
-2,-2,-3,1,0,1,0,0,2021-08-06 14:04:26,129753
-2,-2,-4,-7,-11,-8,-5,-2,2021-08-06 14:04:26,129753
1,0,0,1,0,1,-1,-1,2021-08-06 14:04:26,139751
-1,-1,0,1,1,1,-2,-1,2021-08-06 14:04:26,155753
-2,-1,-3,-2,0,1,2,1,2021-08-06 14:04:26,155753
-2,-2,-1,-1,-5,-3,-2,-1,2021-08-06 14:04:26,155753
0,-1,-1,0,-2,-3,-1,-1,2021-08-06 14:04:26,155753
-2,-2,-2,-3,-4,-5,-1,-2,2021-08-06 14:04:26,186750
2,1,2,1,4,0,1,0,2021-08-06 14:04:26,186750
-1,-1,-3,-3,-5,-1,0,-2,2021-08-06 14:04:26,186750
-1,-2,0,-4,-2,-2,0,-1,2021-08-06 14:04:26,186750
11,9,8,8,10,25,30,17,2021-08-06 14:04:26,202749
9,8,4,7,9,9,1,4,2021-08-06 14:04:26,202749
-26,-20,-15,-15,-25,-49,-51,-35,2021-08-06 14:04:26,202749
-11,-11,-11,-12,-13,-16,-17,-8,2021-08-06 14:04:26,202749
-6,-5,-6,-4,-2,-7,-8,-6,2021-08-06 14:04:26,234750
1,0,1,-2,4,7,10,3,2021-08-06 14:04:26,234750
22,20,16,14,23,51,62,29,2021-08-06 14:04:26,234750
14,8,7,9,12,22,21,13,2021-08-06 14:04:26,234750
14,13,5,6,1,-22,-29,-2,2021-08-06 14:04:26,234750
-45,-34,-27,-26,-36,-56,-56,-43,2021-08-06 14:04:26,234750
-6,-6,-6,-9,-6,-9,-12,-4,2021-08-06 14:04:26,235751
-4,-3,-3,-2,0,3,6,0,2021-08-06 14:04:26,235751
18,15,13,14,18,33,35,24,2021-08-06 14:04:26,266749
12,8,6,6,6,11,12,8,2021-08-06 14:04:26,297749
2,0,1,3,1,7,10,6,2021-08-06 14:04:26,312749
-6,-3,-4,-5,-7,-6,-7,-8,2021-08-06 14:04:26,312749
-17,-13,-6,-5,-3,-9,-14,-16,2021-08-06 14:04:26,312749
5,3,1,-1,-2,0,2,4,2021-08-06 14:04:26,312749
7,3,4,5,9,0,-2,4,2021-08-06 14:04:26,312749
18,15,12,12,21,51,59,27,2021-08-06 14:04:26,312749
4,1,1,0,2,4,-2,4,2021-08-06 14:04:26,312749
-22,-11,-10,-13,-28,-69,-69,-40,2021-08-06 14:04:26,313751
-6,-11,-10,-12,-9,-6,-5,1,2021-08-06 14:04:26,327750
-7,-6,-5,-5,-9,-19,-25,-12,2021-08-06 14:04:26,327750
5,1,2,3,8,17,21,5,2021-08-06 14:04:26,327750
26,19,16,23,39,70,68,35,2021-08-06 14:04:26,327750
1,2,-1,-1,-3,-7,-11,-5,2021-08-06 14:04:26,327750
-17,-6,-7,-12,-21,-46,-40,-19,2021-08-06 14:04:26,327750
-14,-17,-14,-10,-5,6,5,-21,2021-08-06 14:04:26,343751
33,18,13,14,16,28,20,23,2021-08-06 14:04:26,343751
-36,4,1,-8,-30,-55,-48,-16,2021-08-06 14:04:26,343751
-7,-11,-8,3,20,17,14,17,2021-08-06 14:04:26,343751
-1,-4,-4,-3,0,-1,1,7,2021-08-06 14:04:26,359751
19,9,7,7,10,17,17,7,2021-08-06 14:04:26,375749
30,10,7,12,20,44,36,13,2021-08-06 14:04:26,390750
1,2,4,0,-11,-29,-30,-11,2021-08-06 14:04:26,390750
-23,-11,-9,-8,-15,-28,-29,-19,2021-08-06 14:04:26,390750
6,-5,-5,-4,-5,0,-4,-4,2021-08-06 14:04:26,390750
-21,-9,-8,-8,-8,-2,-2,-5,2021-08-06 14:04:26,390750
-1,7,9,5,0,3,9,6,2021-08-06 14:04:26,390750
1,0,4,11,21,32,20,-2,2021-08-06 14:04:26,390750
6,2,-1,-1,0,4,11,15,2021-08-06 14:04:26,391751
-17,-13,-17,-22,-39,-64,-54,-32,2021-08-06 14:04:26,406749
-7,-12,-11,-19,-17,-13,-12,-7,2021-08-06 14:04:26,406749
15,16,15,16,19,7,3,10,2021-08-06 14:04:26,422751
-10,-2,0,2,2,12,8,-1,2021-08-06 14:04:26,438750
6,-1,2,7,17,27,21,1,2021-08-06 14:04:26,454749
5,0,-3,0,1,1,1,-2,2021-08-06 14:04:26,454749
-17,-10,-10,-11,-22,-23,-20,-13,2021-08-06 14:04:26,454749
-10,-5,-4,-5,-1,2,5,-8,2021-08-06 14:04:26,454749
14,0,3,6,5,6,11,22,2021-08-06 14:04:26,454749
-18,-11,-10,-15,-21,-26,-28,-26,2021-08-06 14:04:26,454749
-6,-3,-3,-5,-7,-8,-7,1,2021-08-06 14:04:26,454749
-10,-6,-10,-19,-28,-27,-19,-8,2021-08-06 14:04:26,454749
15,8,8,22,44,41,29,13,2021-08-06 14:04:26,454749
11,4,6,10,12,22,20,9,2021-08-06 14:04:26,455751
0,0,-1,-1,0,-5,-1,3,2021-08-06 14:04:26,486750
-19,-15,-11,-12,-23,-24,-17,-16,2021-08-06 14:04:26,502750
1,-1,-2,-5,-6,1,4,1,2021-08-06 14:04:26,502750
10,7,8,10,16,14,7,7,2021-08-06 14:04:26,502750
-10,-4,2,8,9,-2,-11,-11,2021-08-06 14:04:26,502750
-9,-6,-6,-8,-11,-14,-12,-7,2021-08-06 14:04:26,502750
-1,-1,-7,-20,-34,-19,-3,2,2021-08-06 14:04:26,502750
3,1,-1,3,4,5,10,9,2021-08-06 14:04:26,502750
4,0,-3,-4,-2,-2,3,3,2021-08-06 14:04:26,518751
-7,-5,1,0,2,-2,-12,-9,2021-08-06 14:04:26,518751
7,5,5,18,34,29,21,3,2021-08-06 14:04:26,519752
1,-2,-3,-3,-1,10,14,5,2021-08-06 14:04:26,519752
-12,-4,-3,-6,-16,-27,-15,-7,2021-08-06 14:04:26,550749
-1,2,1,14,18,6,-2,2,2021-08-06 14:04:26,566749
-6,-6,-2,-7,-12,-3,-12,-8,2021-08-06 14:04:26,582749
-9,-6,-6,-5,-9,-16,-15,-12,2021-08-06 14:04:26,582749
4,5,2,1,-2,6,8,4,2021-08-06 14:04:26,597750
3,4,2,-1,0,-3,-4,-2,2021-08-06 14:04:26,597750
-1,-1,1,1,2,8,11,4,2021-08-06 14:04:26,597750
-3,-2,-3,-2,-2,-2,-4,-5,2021-08-06 14:04:26,597750
3,-2,-4,-4,-4,-3,-2,3,2021-08-06 14:04:26,597750
-5,-4,-2,1,0,-4,-9,-8,2021-08-06 14:04:26,597750
9,9,7,4,8,11,13,10,2021-08-06 14:04:26,598751
-6,-7,-5,-4,-1,-5,-5,-4,2021-08-06 14:04:26,598751
5,4,-2,-8,-15,-16,-11,-8,2021-08-06 14:04:26,598751
6,6,4,4,13,20,18,8,2021-08-06 14:04:26,598751
-8,-6,-3,-2,-1,-8,-4,-2,2021-08-06 14:04:26,598751
1,0,0,2,0,1,-2,-4,2021-08-06 14:04:26,598751
8,5,4,1,1,8,6,10,2021-08-06 14:04:26,612750
-3,-2,-5,-5,-1,-4,-6,-5,2021-08-06 14:04:26,612750
-1,-1,0,-1,-6,-9,-14,-9,2021-08-06 14:04:26,627751
4,2,0,-6,-7,0,7,9,2021-08-06 14:04:26,627751
2,0,1,5,16,8,-1,-4,2021-08-06 14:04:26,643753
3,3,4,8,11,6,9,9,2021-08-06 14:04:26,643753
-3,-1,-4,-1,-3,-6,-6,-4,2021-08-06 14:04:26,643753
-3,0,1,-1,-3,0,-4,-4,2021-08-06 14:04:26,643753
3,3,2,0,-1,5,4,2,2021-08-06 14:04:26,675751
-6,-7,-5,-8,-10,-9,-4,-2,2021-08-06 14:04:26,691751
5,2,-1,0,3,0,0,4,2021-08-06 14:04:26,691751
-7,-5,-5,-6,-1,0,-4,-9,2021-08-06 14:04:26,691751
-3,-7,-4,-5,-4,-1,-7,-5,2021-08-06 14:04:26,691751
9,17,12,10,0,-8,-7,-4,2021-08-06 14:04:26,691751
-2,-6,-10,-14,-15,-7,3,6,2021-08-06 14:04:26,692752
6,5,4,4,2,-2,-4,2,2021-08-06 14:04:26,692752
-4,-4,-4,-5,-7,-3,1,0,2021-08-06 14:04:26,692752
2,0,1,3,10,7,3,4,2021-08-06 14:04:26,692752
-8,-8,-7,-13,-21,-13,-13,-12,2021-08-06 14:04:26,692752
4,5,2,4,8,3,7,6,2021-08-06 14:04:26,692752
1,1,5,10,12,6,3,1,2021-08-06 14:04:26,722752
1,0,1,5,9,10,9,7,2021-08-06 14:04:26,738753
-3,0,1,5,4,-3,-5,-7,2021-08-06 14:04:26,754749
-3,-4,-5,-6,-10,-7,-1,-3,2021-08-06 14:04:26,754749
-5,-2,-2,-8,-13,-9,-5,-1,2021-08-06 14:04:26,754749
-3,-4,-3,-4,-4,-3,0,-1,2021-08-06 14:04:26,754749
-2,-2,-1,-1,-1,-2,-1,-1,2021-08-06 14:04:26,754749
1,3,1,2,2,1,0,-2,2021-08-06 14:04:26,770750
-3,-5,-6,-7,-6,-7,-1,-3,2021-08-06 14:04:26,770750
-4,-6,-5,-6,-14,-7,0,-1,2021-08-06 14:04:26,770750
-4,-3,-2,-1,0,-3,-3,-4,2021-08-06 14:04:26,770750
6,6,7,12,20,12,8,5,2021-08-06 14:04:26,770750
-7,-5,-6,-7,-9,-7,-7,-8,2021-08-06 14:04:26,786751
-1,-4,-3,1,5,3,7,8,2021-08-06 14:04:26,786751
6,7,6,6,1,1,-1,0,2021-08-06 14:04:26,786751
-2,-1,-2,-1,-2,-3,-1,0,2021-08-06 14:04:26,786751
-4,-7,-10,-12,-18,-15,-6,-5,2021-08-06 14:04:26,786751
3,4,6,15,22,15,6,4,2021-08-06 14:04:26,786751
-2,-3,-1,3,4,1,-2,0,2021-08-06 14:04:26,802749
-3,-2,-1,1,-1,0,-2,-2,2021-08-06 14:04:26,802749
6,7,4,-4,-6,-3,-1,4,2021-08-06 14:04:26,818750
-4,-3,-4,-6,-5,-4,-4,-5,2021-08-06 14:04:26,818750
-2,0,-3,-5,-12,-6,-2,-2,2021-08-06 14:04:26,818750
4,3,4,16,31,15,4,1,2021-08-06 14:04:26,818750
-2,-3,0,3,1,1,0,1,2021-08-06 14:04:26,848749
0,0,-3,-7,-9,-5,-2,-2,2021-08-06 14:04:26,864749
-6,-8,-7,-8,-8,-8,-6,-5,2021-08-06 14:04:26,864749
-2,-6,-7,-12,-18,-9,-5,-3,2021-08-06 14:04:26,864749
7,11,14,17,27,17,13,8,2021-08-06 14:04:26,864749
-1,0,-1,-1,-5,-4,-3,-2,2021-08-06 14:04:26,864749
0,2,0,3,8,2,0,-2,2021-08-06 14:04:26,864749
-7,-7,-5,-6,-13,-10,-8,-5,2021-08-06 14:04:26,865751
3,2,-3,2,6,5,5,4,2021-08-06 14:04:26,880749
-1,1,4,-2,-5,-3,0,0,2021-08-06 14:04:26,896749
-1,0,1,-2,-2,-2,-1,-1,2021-08-06 14:04:26,896749
-2,-2,-9,-2,-6,-4,-1,0,2021-08-06 14:04:26,896749
-2,0,0,-1,2,1,-1,0,2021-08-06 14:04:26,896749
-5,-5,-2,-3,-9,-4,-3,-5,2021-08-06 14:04:26,896749
3,-1,-3,-2,0,2,2,7,2021-08-06 14:04:26,896749
-2,-2,-3,-6,-9,-6,-1,1,2021-08-06 14:04:26,896749
1,3,2,5,6,4,3,2,2021-08-06 14:04:26,912751
-5,-3,-2,-6,-14,-8,-5,-5,2021-08-06 14:04:26,912751
-1,-3,1,5,14,7,2,-1,2021-08-06 14:04:26,928749
7,11,20,5,-10,-4,0,2,2021-08-06 14:04:26,928749
-5,-4,-1,-12,-18,-10,-6,-4,2021-08-06 14:04:26,931749
4,3,1,10,16,8,4,3,2021-08-06 14:04:26,931749
0,0,-16,2,7,9,4,2,2021-08-06 14:04:26,931749
-10,-17,-14,-2,-7,-10,-8,-7,2021-08-06 14:04:26,931749
-1,-1,3,4,-3,-3,-1,-2,2021-08-06 14:04:26,960750
-4,-4,-7,2,-14,-8,-6,-3,2021-08-06 14:04:26,960750
-5,-9,-16,-22,-7,-6,-7,-2,2021-08-06 14:04:26,960750
-2,-1,8,-18,-10,-5,-1,-2,2021-08-06 14:04:26,960750
-2,-6,-23,-34,-17,-6,-5,-5,2021-08-06 14:04:26,976750
-7,-5,1,-35,-12,-4,-2,-6,2021-08-06 14:04:26,992750
6,10,4,44,43,21,12,6,2021-08-06 14:04:26,992750
6,7,6,24,9,8,6,3,2021-08-06 14:04:26,992750
2,4,18,30,10,3,3,2,2021-08-06 14:04:26,992750
2,4,0,-1,7,2,1,2,2021-08-06 14:04:26,992750
-1,2,13,-13,-15,-6,-5,-3,2021-08-06 14:04:27,024750
-1,-3,-6,1,0,0,-2,-1,2021-08-06 14:04:27,040749
-7,-5,-5,-1,-10,-8,-8,-5,2021-08-06 14:04:27,056751
6,6,5,13,8,6,5,6,2021-08-06 14:04:27,072751
-1,1,6,-2,-8,-5,-4,-2,2021-08-06 14:04:27,072751
-4,-4,-7,-9,-5,-5,-2,-1,2021-08-06 14:04:27,072751
-2,-3,-5,-5,-4,-3,-3,-3,2021-08-06 14:04:27,072751
-1,-4,-4,2,7,6,2,2,2021-08-06 14:04:27,072751
-3,-5,0,-5,-12,-7,-5,-4,2021-08-06 14:04:27,072751
4,7,4,2,3,4,2,4,2021-08-06 14:04:27,073751
-4,-5,-7,-10,-9,-3,-2,-4,2021-08-06 14:04:27,073751
2,3,1,6,12,7,1,3,2021-08-06 14:04:27,073751
-1,1,-1,-3,-10,-6,-5,-4,2021-08-06 14:04:27,073751
-8,-8,-13,-22,-23,-12,-10,-7,2021-08-06 14:04:27,073751
4,4,9,23,40,22,10,8,2021-08-06 14:04:27,073751
0,2,3,7,0,-2,-2,-1,2021-08-06 14:04:27,073751
0,-1,-1,0,0,-2,4,5,2021-08-06 14:04:27,073751
-3,-3,-3,-7,-10,-5,-3,-2,2021-08-06 14:04:27,073751
-5,-5,-6,-11,-15,-9,-6,-7,2021-08-06 14:04:27,104752
3,3,9,19,11,5,3,2,2021-08-06 14:04:27,104752
1,1,-2,4,-2,0,-1,1,2021-08-06 14:04:27,104752
0,0,-10,-18,-5,0,1,0,2021-08-06 14:04:27,104752
-7,-11,-9,-28,-23,-15,-7,-6,2021-08-06 14:04:27,120749
-6,-5,-18,-4,2,-2,-4,-4,2021-08-06 14:04:27,136749
0,1,7,3,-6,-2,-1,-1,2021-08-06 14:04:27,152749
1,3,4,14,11,1,-1,0,2021-08-06 14:04:27,152749
8,6,7,17,19,15,9,8,2021-08-06 14:04:27,152749
2,2,6,-3,-4,-4,-1,-2,2021-08-06 14:04:27,152749
-2,-1,1,9,7,3,1,-2,2021-08-06 14:04:27,152749
2,2,2,-1,1,1,0,0,2021-08-06 14:04:27,152749
-5,-8,-7,-5,-1,-3,-4,-4,2021-08-06 14:04:27,168749
-3,-2,0,-3,-8,-6,-2,1,2021-08-06 14:04:27,184749
3,6,1,-4,1,2,3,1,2021-08-06 14:04:27,200749
-3,-5,-5,-8,-8,-5,-5,-5,2021-08-06 14:04:27,200749
2,3,4,3,1,0,-1,0,2021-08-06 14:04:27,200749
-7,-12,-17,-13,-23,-11,-7,-6,2021-08-06 14:04:27,200749
-1,-3,1,3,6,5,0,-2,2021-08-06 14:04:27,200749
6,6,11,14,19,12,8,6,2021-08-06 14:04:27,200749
0,2,-2,1,-1,-1,-1,-1,2021-08-06 14:04:27,201752
-3,-2,-1,-6,-6,-5,-3,-5,2021-08-06 14:04:27,201752
-7,-11,-11,-28,-32,-20,-10,-7,2021-08-06 14:04:27,201752
3,4,3,25,34,18,7,6,2021-08-06 14:04:27,201752
0,-1,-2,-1,-1,1,2,-1,2021-08-06 14:04:27,230749
5,4,3,3,6,3,3,3,2021-08-06 14:04:27,246749
-7,-6,-1,-2,-6,-6,-5,-5,2021-08-06 14:04:27,262751
-3,-4,-4,-5,-8,-5,-3,-3,2021-08-06 14:04:27,262751
-1,0,-3,-10,-19,-10,-4,-1,2021-08-06 14:04:27,262751
1,1,2,4,14,7,3,2,2021-08-06 14:04:27,262751
-4,-5,-6,-4,-2,-1,-2,-2,2021-08-06 14:04:27,262751
-2,-2,1,-2,2,1,0,-1,2021-08-06 14:04:27,263753
4,6,6,12,14,8,6,3,2021-08-06 14:04:27,263753
-2,-4,-2,-8,-14,-10,-6,-4,2021-08-06 14:04:27,263753
-1,-1,-1,3,7,2,0,-1,2021-08-06 14:04:27,263753
-3,-4,-7,-13,-13,-9,-5,-5,2021-08-06 14:04:27,263753
2,0,4,4,-4,-3,-1,0,2021-08-06 14:04:27,293751
1,1,1,3,2,0,0,2,2021-08-06 14:04:27,307751
3,4,3,11,17,10,4,3,2021-08-06 14:04:27,308752
-2,-3,-10,-11,-5,-1,0,-3,2021-08-06 14:04:27,308752
-5,-6,-9,-10,-10,-10,-7,-5,2021-08-06 14:04:27,308752
-4,-4,-6,-19,-25,-12,-6,-6,2021-08-06 14:04:27,308752
0,0,6,17,23,11,3,2,2021-08-06 14:04:27,308752
5,8,12,15,11,4,5,1,2021-08-06 14:04:27,308752
1,2,-4,-1,-2,-2,0,1,2021-08-06 14:04:27,325751
-3,-3,-5,-2,1,1,-2,-1,2021-08-06 14:04:27,325751
-3,1,-3,-8,-10,-4,-4,-1,2021-08-06 14:04:27,356750
-3,-3,3,3,6,5,-1,-2,2021-08-06 14:04:27,356750
-1,2,2,5,3,-2,-2,-3,2021-08-06 14:04:27,356750
-1,-1,1,0,-3,-4,-3,-3,2021-08-06 14:04:27,356750
-1,-1,-1,-5,-5,-6,-2,-1,2021-08-06 14:04:27,356750
-3,-6,-6,-8,-20,-10,-5,-3,2021-08-06 14:04:27,356750
0,-2,1,-1,-3,-1,-1,-1,2021-08-06 14:04:27,356750
6,4,1,9,13,7,4,3,2021-08-06 14:04:27,357751
4,5,5,-1,3,4,4,3,2021-08-06 14:04:27,387751
-1,-3,-5,-4,2,1,0,-3,2021-08-06 14:04:27,403751
-5,-8,-11,-15,-16,-9,-6,-5,2021-08-06 14:04:27,403751
-4,0,1,4,5,1,0,-2,2021-08-06 14:04:27,403751
-12,-15,-14,-11,-29,-20,-13,-11,2021-08-06 14:04:27,403751
15,19,18,7,13,12,9,11,2021-08-06 14:04:27,403751
-2,1,-3,-4,3,3,1,-1,2021-08-06 14:04:27,403751
-5,-4,-4,-1,2,-1,-3,-2,2021-08-06 14:04:27,404752
-1,0,1,-6,-11,-4,-2,-2,2021-08-06 14:04:27,404752
-4,-5,-4,-2,-7,-5,-5,-3,2021-08-06 14:04:27,404752
-1,-1,-1,5,1,1,1,-1,2021-08-06 14:04:27,419751
-7,-7,-5,-2,-2,-3,-4,-6,2021-08-06 14:04:27,435749
11,13,17,6,0,3,6,6,2021-08-06 14:04:27,451749
0,-2,-11,-5,-1,-4,-2,-2,2021-08-06 14:04:27,451749
1,-1,-10,-12,1,2,1,2,2021-08-06 14:04:27,451749
-11,-10,-7,-13,-13,-10,-7,-7,2021-08-06 14:04:27,451749
-5,-4,-1,1,1,0,1,-1,2021-08-06 14:04:27,451749
-2,-3,3,2,-3,-5,-4,-2,2021-08-06 14:04:27,451749
2,2,5,5,3,3,-1,0,2021-08-06 14:04:27,466749
10,12,10,13,16,13,8,8,2021-08-06 14:04:27,466749
-1,-1,1,2,7,3,-1,-2,2021-08-06 14:04:27,466749
-3,-3,-6,8,1,2,0,-1,2021-08-06 14:04:27,466749
-4,-3,-1,-5,-8,-6,-3,-1,2021-08-06 14:04:27,481749
2,0,1,3,9,4,3,1,2021-08-06 14:04:27,497751
-3,-4,-11,-19,-14,-10,-5,-3,2021-08-06 14:04:27,513749
-2,-1,5,8,7,3,2,0,2021-08-06 14:04:27,513749
0,-1,0,-3,-6,-3,-2,-2,2021-08-06 14:04:27,513749
1,1,1,-4,-6,-3,-1,0,2021-08-06 14:04:27,513749
2,2,1,5,6,1,1,1,2021-08-06 14:04:27,513749
-6,-5,-5,-8,-4,-5,-4,-4,2021-08-06 14:04:27,513749
1,5,1,-5,-14,-6,-2,0,2021-08-06 14:04:27,529752
2,1,4,18,25,13,4,3,2021-08-06 14:04:27,529752
-4,-4,-8,-4,-2,-2,-3,-4,2021-08-06 14:04:27,529752
0,0,2,-1,-4,-1,-1,0,2021-08-06 14:04:27,529752
0,1,-2,1,13,6,2,0,2021-08-06 14:04:27,529752
-2,-4,-4,-25,-25,-13,-6,-4,2021-08-06 14:04:27,529752
-5,-6,-5,-1,-2,-1,-3,-4,2021-08-06 14:04:27,545749
3,3,6,7,3,3,2,2,2021-08-06 14:04:27,545749
-1,-1,-1,3,4,-1,0,-1,2021-08-06 14:04:27,561749
-4,-4,-9,-5,-5,-2,0,-1,2021-08-06 14:04:27,577750
-2,-2,0,-6,-2,-3,-2,0,2021-08-06 14:04:27,577750
4,4,6,0,-3,-2,2,1,2021-08-06 14:04:27,577750
-6,-5,-1,10,10,5,-2,-3,2021-08-06 14:04:27,577750
3,3,3,3,-4,-1,2,3,2021-08-06 14:04:27,577750
4,8,8,14,19,10,5,3,2021-08-06 14:04:27,577750
-5,-5,-6,-9,-10,-8,-7,-6,2021-08-06 14:04:27,577750
-6,-10,-13,-16,-27,-14,-8,-4,2021-08-06 14:04:27,608751
7,7,6,1,11,11,6,5,2021-08-06 14:04:27,608751
-1,-1,-3,-6,-12,-6,-2,-2,2021-08-06 14:04:27,608751
1,2,2,5,7,4,2,0,2021-08-06 14:04:27,608751
-1,-1,3,9,13,5,1,-2,2021-08-06 14:04:27,624751
-7,-7,-11,-6,-11,-10,-7,-7,2021-08-06 14:04:27,624751
-1,-1,-4,-7,-9,-4,-3,-1,2021-08-06 14:04:27,624751
1,1,2,-4,0,0,-1,0,2021-08-06 14:04:27,624751
1,-3,-4,-2,-1,-1,-1,0,2021-08-06 14:04:27,640749
-5,-6,-3,-1,1,-3,-5,-5,2021-08-06 14:04:27,656750
9,10,13,18,13,9,8,8,2021-08-06 14:04:27,672751
-3,-4,-3,2,5,2,0,-3,2021-08-06 14:04:27,672751
3,3,4,1,6,3,2,1,2021-08-06 14:04:27,672751
-1,-4,-5,0,-9,-7,-5,-3,2021-08-06 14:04:27,672751
-3,-2,-7,-6,-3,-4,-3,-1,2021-08-06 14:04:27,672751
-4,-3,-2,-23,-19,-11,-7,-4,2021-08-06 14:04:27,672751
2,4,2,10,8,5,4,2,2021-08-06 14:04:27,672751
-2,-4,0,13,20,10,2,0,2021-08-06 14:04:27,673751
6,4,2,5,-4,4,3,4,2021-08-06 14:04:27,688750
-2,-5,-7,-6,-1,2,0,-2,2021-08-06 14:04:27,704749
-1,-3,2,-9,-7,-6,-4,-2,2021-08-06 14:04:27,704749
-1,0,2,-1,-6,-5,-2,-1,2021-08-06 14:04:27,704749
0,0,-2,-2,-2,-2,-2,-1,2021-08-06 14:04:27,704749
-4,-3,-6,-6,-17,-8,-5,-2,2021-08-06 14:04:27,704749
4,5,6,12,24,15,6,4,2021-08-06 14:04:27,708752
2,2,1,-12,1,1,1,3,2021-08-06 14:04:27,708752
1,-1,1,13,19,9,3,1,2021-08-06 14:04:27,720750
-2,2,2,9,6,-1,-2,-1,2021-08-06 14:04:27,720750
-7,-6,-5,-8,-16,-11,-5,-4,2021-08-06 14:04:27,752749
0,2,-3,-6,-7,-2,0,0,2021-08-06 14:04:27,767749
-4,-4,-1,-10,-6,-6,-4,-5,2021-08-06 14:04:27,767749
-7,-7,-8,0,-2,-2,-3,-4,2021-08-06 14:04:27,783749
7,9,9,19,23,14,10,9,2021-08-06 14:04:27,798749
-1,2,1,-2,-2,0,0,0,2021-08-06 14:04:27,814749
-6,-8,-8,-16,-11,-7,-6,-4,2021-08-06 14:04:27,814749
6,8,5,6,14,7,5,4,2021-08-06 14:04:27,814749
-5,-6,-3,-2,-10,-7,-7,-6,2021-08-06 14:04:27,814749
2,4,4,2,-5,-3,0,2,2021-08-06 14:04:27,814749
3,3,3,9,16,9,3,1,2021-08-06 14:04:27,814749
-4,-6,-9,-9,-11,-7,-2,-3,2021-08-06 14:04:27,814749
2,1,3,-4,9,6,2,2,2021-08-06 14:04:27,815751
-4,-6,-13,-8,-12,-10,-4,-5,2021-08-06 14:04:27,815751
1,1,4,7,1,4,3,2,2021-08-06 14:04:27,815751
2,1,3,6,4,-1,-1,-1,2021-08-06 14:04:27,815751
0,1,-1,-9,-19,-9,-4,-2,2021-08-06 14:04:27,815751
-1,0,4,7,21,9,2,-2,2021-08-06 14:04:27,815751
-1,1,3,5,6,1,0,0,2021-08-06 14:04:27,815751
2,2,1,2,8,6,5,2,2021-08-06 14:04:27,816750
-1,-2,-5,-1,-3,0,0,-1,2021-08-06 14:04:27,862750
-1,-1,-2,1,-11,-6,-4,-3,2021-08-06 14:04:27,878751
-6,-7,-9,-15,-17,-11,-6,-5,2021-08-06 14:04:27,893750
2,-1,-4,-8,-1,0,0,2,2021-08-06 14:04:27,893750
-6,-5,0,1,4,-2,-4,-4,2021-08-06 14:04:27,893750
1,0,1,3,-5,0,0,1,2021-08-06 14:04:27,893750
7,6,8,21,26,16,10,6,2021-08-06 14:04:27,893750
1,1,-3,-4,-6,-3,-2,0,2021-08-06 14:04:27,893750
-3,-5,-8,-12,-9,-6,-4,-3,2021-08-06 14:04:27,893750
-3,-2,-1,-2,-2,-3,0,-1,2021-08-06 14:04:27,893750
-5,-5,-6,-12,-15,-11,-6,-6,2021-08-06 14:04:27,894751
-1,0,2,5,4,2,0,0,2021-08-06 14:04:27,894751
1,-2,-6,-5,-5,-4,-1,0,2021-08-06 14:04:27,908750
2,6,9,13,13,7,2,1,2021-08-06 14:04:27,908750
-3,-5,-4,-7,-9,-5,-5,-4,2021-08-06 14:04:27,908750
-4,-7,-6,-7,-10,-7,-6,-2,2021-08-06 14:04:27,908750
0,1,4,19,25,12,4,0,2021-08-06 14:04:27,924753
6,6,7,6,-6,1,2,2,2021-08-06 14:04:27,924753
-3,-5,-5,-20,-12,-6,-5,-3,2021-08-06 14:04:27,924753
1,3,-4,-1,6,0,0,0,2021-08-06 14:04:27,924753
-5,-5,-6,-8,-18,-12,-8,-2,2021-08-06 14:04:27,940751
-5,-7,-11,-13,-1,-1,-1,-4,2021-08-06 14:04:27,940751
-1,-1,-4,-6,-3,-4,-1,-1,2021-08-06 14:04:27,940751
-1,1,6,5,-1,2,-2,-1,2021-08-06 14:04:27,940751
-1,3,5,10,1,1,0,-2,2021-08-06 14:04:27,956752
2,0,2,9,12,6,2,2,2021-08-06 14:04:27,972752
0,-1,-6,-3,-6,-2,-2,0,2021-08-06 14:04:27,988753
-7,-8,-6,-20,-17,-11,-7,-6,2021-08-06 14:04:27,988753
0,1,6,7,9,5,1,1,2021-08-06 14:04:27,988753
5,6,12,8,5,3,4,4,2021-08-06 14:04:27,988753
-1,-2,-9,4,-1,-1,-1,-1,2021-08-06 14:04:27,988753
-2,-5,-14,-6,-4,-3,-2,-1,2021-08-06 14:04:27,989752
-3,-3,-6,-23,-7,-5,-3,-3,2021-08-06 14:04:28,004750
-8,-13,-12,-14,-19,-10,-7,-6,2021-08-06 14:04:28,020792
1,4,14,16,18,7,1,1,2021-08-06 14:04:28,036790
3,5,7,11,4,5,4,2,2021-08-06 14:04:28,052790
0,3,7,6,6,1,0,0,2021-08-06 14:04:28,067789
-3,-3,-4,-6,-13,-10,-6,-2,2021-08-06 14:04:28,083788
1,1,2,9,4,3,2,2,2021-08-06 14:04:28,083788
-3,-2,-1,2,-4,-5,-4,-3,2021-08-06 14:04:28,083788
2,2,3,0,6,5,1,1,2021-08-06 14:04:28,083788
-1,2,2,6,3,1,0,-1,2021-08-06 14:04:28,083788
-3,-7,-13,-13,-7,-4,-3,-1,2021-08-06 14:04:28,083788
-7,-8,-8,-19,-13,-9,-6,-5,2021-08-06 14:04:28,084791
2,1,1,-7,-13,-8,-2,0,2021-08-06 14:04:28,084791
1,3,0,7,10,6,1,1,2021-08-06 14:04:28,084791
-6,-7,0,6,9,3,-2,-4,2021-08-06 14:04:28,084791
0,2,-2,1,1,0,2,1,2021-08-06 14:04:28,084791
-4,-6,-13,-15,-25,-17,-8,-5,2021-08-06 14:04:28,084791
-1,0,1,-2,6,2,0,-2,2021-08-06 14:04:28,084791
1,3,4,-4,-6,-2,0,-1,2021-08-06 14:04:28,085791
3,2,9,24,27,18,6,5,2021-08-06 14:04:28,085791
-3,-3,-2,0,-4,-4,-4,-4,2021-08-06 14:04:28,099789
-3,-6,-10,-15,-23,-10,-3,-2,2021-08-06 14:04:28,099789
-3,-4,-8,-12,-8,-10,-5,-3,2021-08-06 14:04:28,099789
-4,-2,-6,-12,-14,-13,-6,-6,2021-08-06 14:04:28,099789
-1,-1,0,10,9,4,1,-2,2021-08-06 14:04:28,123790
5,8,14,20,19,15,7,6,2021-08-06 14:04:28,123790
4,3,3,5,-2,5,3,3,2021-08-06 14:04:28,123790
-1,-2,-9,-15,-10,-3,1,1,2021-08-06 14:04:28,124790
-8,-7,-9,-24,-22,-17,-9,-6,2021-08-06 14:04:28,146790
-7,-8,-14,-14,-11,-8,-7,-4,2021-08-06 14:04:28,146790
-1,2,6,13,10,7,5,1,2021-08-06 14:04:28,146790
8,11,20,29,29,17,5,3,2021-08-06 14:04:28,146790
2,5,1,6,8,9,4,3,2021-08-06 14:04:28,162788
-8,-10,-15,-31,-28,-18,-10,-8,2021-08-06 14:04:28,177788
-4,-5,-5,-23,-30,-21,-11,-6,2021-08-06 14:04:28,192791
3,4,7,15,10,4,3,3,2021-08-06 14:04:28,192791
5,2,2,17,23,13,8,3,2021-08-06 14:04:28,192791
-1,-4,-6,-10,-2,0,-1,-1,2021-08-06 14:04:28,192791
3,3,1,3,2,2,1,0,2021-08-06 14:04:28,208791
-4,-5,-3,-8,-12,-8,-7,-4,2021-08-06 14:04:28,224788
3,8,18,17,5,2,2,4,2021-08-06 14:04:28,240300
1,1,-5,10,9,3,1,-1,2021-08-06 14:04:28,256300
2,-2,-16,-22,-8,0,3,3,2021-08-06 14:04:28,287301
-7,-9,-3,2,7,1,-6,-5,2021-08-06 14:04:28,302299
5,6,8,13,17,12,5,3,2021-08-06 14:04:28,318300
0,0,-3,2,3,2,0,1,2021-08-06 14:04:28,334300
-7,-5,-5,-14,-30,-21,-11,-8,2021-08-06 14:04:28,334300
0,-1,-3,-13,-19,-9,-2,-1,2021-08-06 14:04:28,334300
3,1,0,-9,22,13,7,5,2021-08-06 14:04:28,334300
0,1,3,5,6,5,1,0,2021-08-06 14:04:28,334300
0,0,-1,7,8,3,-1,0,2021-08-06 14:04:28,334300
6,4,13,27,22,11,6,2,2021-08-06 14:04:28,334300
-4,-3,-6,2,-12,-7,-5,-3,2021-08-06 14:04:28,335302
2,1,0,-8,2,2,2,0,2021-08-06 14:04:28,335302
-6,-7,-5,-4,-3,-5,-4,-4,2021-08-06 14:04:28,335302
-2,-3,-1,-7,-8,-6,-3,-1,2021-08-06 14:04:28,335302
-2,-1,-1,-4,-12,-7,-3,-2,2021-08-06 14:04:28,335302
-1,-3,0,6,2,0,-1,-1,2021-08-06 14:04:28,335302
1,1,3,1,3,2,-1,1,2021-08-06 14:04:28,335302
6,8,6,7,10,7,7,6,2021-08-06 14:04:28,335302
-5,-7,-16,-18,-19,-10,-5,-5,2021-08-06 14:04:28,336301
-3,-5,-10,-37,-23,-14,-5,-3,2021-08-06 14:04:28,336301
-5,-4,5,16,21,10,1,-2,2021-08-06 14:04:28,336301
1,4,7,12,7,2,0,-1,2021-08-06 14:04:28,336301
2,2,0,4,5,5,3,5,2021-08-06 14:04:28,336301
0,2,1,-2,-11,-6,0,-1,2021-08-06 14:04:28,336301
-3,-5,-7,-11,-13,-8,-3,-1,2021-08-06 14:04:28,350300
-4,-4,-6,-9,-10,-8,-7,-5,2021-08-06 14:04:28,350300
1,1,5,11,6,2,0,-1,2021-08-06 14:04:28,350300
-1,1,4,6,7,-1,-2,-1,2021-08-06 14:04:28,350300
1,1,3,1,7,5,4,1,2021-08-06 14:04:28,350300
-5,-7,-4,-5,-6,-6,-5,-3,2021-08-06 14:04:28,350300
-2,-4,-5,-2,-6,-4,-3,-1,2021-08-06 14:04:28,366299
2,-2,-3,5,10,6,2,1,2021-08-06 14:04:28,382300
-1,-2,-3,-5,-4,-3,-4,-2,2021-08-06 14:04:28,382300
-7,-10,-14,-29,-31,-18,-11,-7,2021-08-06 14:04:28,382300
1,-2,0,9,16,9,7,3,2021-08-06 14:04:28,382300
0,5,11,1,4,-1,-1,-1,2021-08-06 14:04:28,382300
-1,-1,-3,-10,-15,-8,-2,-1,2021-08-06 14:04:28,382300
3,6,8,17,20,14,6,4,2021-08-06 14:04:28,382300
2,1,4,5,6,3,1,1,2021-08-06 14:04:28,414300
-4,-6,-5,-3,-15,-9,-5,-3,2021-08-06 14:04:28,414300
-1,-5,-5,4,17,6,-1,-3,2021-08-06 14:04:28,414300
2,3,2,-2,-14,-8,-1,1,2021-08-06 14:04:28,414300
-2,0,1,10,3,0,-1,-2,2021-08-06 14:04:28,414300
6,11,17,19,22,13,5,2,2021-08-06 14:04:28,414300
-4,-3,-3,-12,-18,-8,-6,-4,2021-08-06 14:04:28,414300
1,-4,-12,-8,23,16,6,3,2021-08-06 14:04:28,414300
-10,-14,-12,-34,-35,-22,-13,-10,2021-08-06 14:04:28,446300
-6,-8,-18,-5,-10,-9,-6,-2,2021-08-06 14:04:28,446300
2,5,11,11,4,1,0,1,2021-08-06 14:04:28,446300
3,5,12,23,15,7,2,0,2021-08-06 14:04:28,446300
3,4,2,7,-7,2,0,-1,2021-08-06 14:04:28,462300
0,0,5,-4,-1,1,-1,-1,2021-08-06 14:04:28,478302
0,1,-2,-4,-9,-4,-2,-1,2021-08-06 14:04:28,494300
-2,-5,-3,3,16,4,0,-3,2021-08-06 14:04:28,494300
7,11,12,19,34,21,10,7,2021-08-06 14:04:28,494300
-3,-5,-5,-2,-7,-3,-1,-2,2021-08-06 14:04:28,494720
11,22,42,58,37,17,9,9,2021-08-06 14:04:28,494720
-6,-5,-1,-3,-45,-27,-11,-7,2021-08-06 14:04:28,494720
-2,-11,-57,-62,-15,-3,0,0,2021-08-06 14:04:28,498808
-19,-36,-31,-81,-43,-28,-16,-14,2021-08-06 14:04:28,498808
-11,-9,-13,-7,-1,-3,-6,-6,2021-08-06 14:04:28,510317
3,6,-1,22,11,7,3,2,2021-08-06 14:04:28,510317
2,10,27,47,15,5,1,1,2021-08-06 14:04:28,526318
3,6,-2,4,-3,0,4,0,2021-08-06 14:04:28,542317
-1,-5,3,-16,-8,-5,-3,-4,2021-08-06 14:04:28,558319
2,4,8,0,-1,-1,-2,0,2021-08-06 14:04:28,574316
1,3,-1,3,5,0,-1,-1,2021-08-06 14:04:28,574316
4,6,11,16,6,1,0,1,2021-08-06 14:04:28,574316
-3,-6,-6,-9,-24,-8,-2,-3,2021-08-06 14:04:28,574316
2,2,-5,5,22,13,4,3,2021-08-06 14:04:28,574316
-4,-9,-7,-25,-28,-19,-8,-5,2021-08-06 14:04:28,574316
5,6,22,42,34,19,6,3,2021-08-06 14:04:28,574316
1,7,4,11,12,7,3,2,2021-08-06 14:04:28,575320
-1,-10,-39,-49,-29,-11,-3,-2,2021-08-06 14:04:28,575320
-17,-19,-12,-52,-40,-28,-16,-12,2021-08-06 14:04:28,575320
-13,-11,-8,-6,-34,-23,-14,-10,2021-08-06 14:04:28,575320
6,5,-3,20,23,13,7,6,2021-08-06 14:04:28,590317
4,3,17,-5,13,11,8,4,2021-08-06 14:04:28,606317
0,6,6,16,9,6,1,-3,2021-08-06 14:04:28,606317
3,9,8,23,23,11,5,4,2021-08-06 14:04:28,606317
-3,-7,-13,0,-4,-2,-1,-2,2021-08-06 14:04:28,606317
-8,-9,-10,-25,-21,-14,-7,-5,2021-08-06 14:04:28,606317
-4,-7,0,-16,-20,-12,-7,-4,2021-08-06 14:04:28,622319
4,6,6,21,26,11,3,1,2021-08-06 14:04:28,638318
3,5,10,13,18,11,4,1,2021-08-06 14:04:28,654318
0,-1,-1,10,3,-3,-1,-2,2021-08-06 14:04:28,670318
2,-1,-11,-6,-8,-2,0,1,2021-08-06 14:04:28,686320
-3,-4,-1,-6,-4,-5,-2,-2,2021-08-06 14:04:28,686320
6,11,11,1,6,4,3,3,2021-08-06 14:04:28,686320
-1,1,5,3,12,8,-1,-1,2021-08-06 14:04:28,686320
1,-1,-3,-10,-17,-6,0,1,2021-08-06 14:04:28,686320
-4,-7,11,-4,-4,-3,-3,-2,2021-08-06 14:04:28,686320
-3,-11,-45,-25,-8,-5,-2,-2,2021-08-06 14:04:28,686320
-2,2,7,15,17,6,2,-1,2021-08-06 14:04:28,686320
3,5,5,23,10,2,2,2,2021-08-06 14:04:28,686320
-3,-7,-14,-32,-35,-16,-6,-3,2021-08-06 14:04:28,687318
-3,-5,13,1,0,-2,-2,-2,2021-08-06 14:04:28,687318
4,6,9,19,10,7,4,2,2021-08-06 14:04:28,687318
-1,2,6,19,3,3,1,1,2021-08-06 14:04:28,702548
8,14,15,48,49,27,12,6,2021-08-06 14:04:28,717832
-4,-6,-17,-40,-26,-11,-4,-1,2021-08-06 14:04:28,717832
-9,-12,-17,-50,-31,-16,-7,-5,2021-08-06 14:04:28,717832
-4,-3,11,29,16,0,-4,-4,2021-08-06 14:04:28,717832
7,13,18,31,-2,2,2,5,2021-08-06 14:04:28,717832
3,5,-2,-13,3,5,3,3,2021-08-06 14:04:28,717832
-7,-18,-21,-23,-26,-15,-7,-7,2021-08-06 14:04:28,717832
-14,-20,-50,-83,-22,-8,-7,-9,2021-08-06 14:04:28,748833
-7,-9,-4,-18,-9,-9,-8,-6,2021-08-06 14:04:28,764831
6,7,-3,30,16,9,4,3,2021-08-06 14:04:28,764831
4,9,28,36,6,2,3,4,2021-08-06 14:04:28,764831
6,11,28,67,44,17,7,3,2021-08-06 14:04:28,764831
6,7,7,24,15,9,6,5,2021-08-06 14:04:28,764831
-3,-5,-1,-28,-20,-11,-5,-2,2021-08-06 14:04:28,764831
-4,-3,-13,-32,-22,-13,-6,-6,2021-08-06 14:04:28,765831
5,4,4,3,1,4,2,2,2021-08-06 14:04:28,779835
-2,-4,-11,-15,1,4,2,0,2021-08-06 14:04:28,779835
1,2,13,22,10,3,1,-1,2021-08-06 14:04:28,779835
-3,-3,-8,5,-3,-4,-3,-2,2021-08-06 14:04:28,779835
2,4,12,6,6,4,1,1,2021-08-06 14:04:28,811832
-7,-7,-12,-12,-26,-16,-8,-6,2021-08-06 14:04:28,827833
1,-1,-4,-1,12,8,3,2,2021-08-06 14:04:28,843832
1,1,-1,-7,21,15,4,3,2021-08-06 14:04:28,843832
-2,3,2,-12,-14,-5,-1,-3,2021-08-06 14:04:28,843832
-3,-3,-10,-11,-9,-4,-1,-3,2021-08-06 14:04:28,843832
-7,-8,-1,10,1,-5,-7,-7,2021-08-06 14:04:28,843832
5,8,11,24,18,8,6,5,2021-08-06 14:04:28,843832
7,7,11,12,7,4,2,5,2021-08-06 14:04:28,844832
-3,-3,-12,-12,-2,-1,-4,-3,2021-08-06 14:04:28,844832
-4,-6,-4,-26,-28,-14,-7,-3,2021-08-06 14:04:28,844832
-8,-8,1,-7,-17,-10,-10,-7,2021-08-06 14:04:28,844832
1,-1,-12,4,21,11,6,3,2021-08-06 14:04:28,875832
2,2,2,-6,1,1,2,1,2021-08-06 14:04:28,889832
0,1,9,10,9,5,1,1,2021-08-06 14:04:28,889832
-1,0,-4,4,-5,-3,-3,-1,2021-08-06 14:04:28,889832
-1,-2,7,16,-3,-3,-1,0,2021-08-06 14:04:28,907832
5,8,7,15,14,3,1,4,2021-08-06 14:04:28,923830
-2,0,-1,-5,-9,-6,-4,-3,2021-08-06 14:04:28,938832
1,-4,-19,-35,-1,3,1,0,2021-08-06 14:04:28,954834
-8,-9,-14,-38,-20,-14,-10,-7,2021-08-06 14:04:28,954834
-4,-7,-7,-4,-5,0,-1,-2,2021-08-06 14:04:28,954834
3,6,18,29,17,6,2,2,2021-08-06 14:04:28,954834
4,6,12,31,5,-1,-2,-1,2021-08-06 14:04:28,954834
5,4,3,10,18,12,7,4,2021-08-06 14:04:28,954834
-3,-7,-13,-25,-23,-10,-5,-4,2021-08-06 14:04:28,954834
-5,-4,1,9,0,-3,-4,-4,2021-08-06 14:04:28,955832
-2,-4,-3,2,1,1,0,-2,2021-08-06 14:04:28,955832
6,6,5,-23,-16,-4,3,3,2021-08-06 14:04:28,955832
-6,-5,-2,-15,-14,-12,-8,-7,2021-08-06 14:04:28,955832
-2,-3,-10,2,1,1,1,0,2021-08-06 14:04:28,955832
-3,-4,-5,-17,-7,-6,-4,-5,2021-08-06 14:04:28,955832
4,5,19,42,25,15,7,6,2021-08-06 14:04:28,955832
0,-1,-18,-25,-8,1,1,0,2021-08-06 14:04:28,956832
-3,-3,6,3,-8,-6,-4,-3,2021-08-06 14:04:28,956832
-6,-8,-5,-12,-2,-1,-4,-3,2021-08-06 14:04:28,956832
-1,-2,-9,-10,-7,-6,-3,-1,2021-08-06 14:04:28,986830
-4,-3,2,-7,-24,-12,-7,-4,2021-08-06 14:04:28,986830
7,8,9,29,37,18,9,5,2021-08-06 14:04:28,986830
3,6,14,29,7,4,1,3,2021-08-06 14:04:28,986830
0,2,2,-5,-9,-5,-5,-2,2021-08-06 14:04:29,018830
1,-2,-7,0,17,10,2,1,2021-08-06 14:04:29,033830
0,-4,-16,-23,-23,-8,-4,-1,2021-08-06 14:04:29,033830
-10,-13,-17,-24,-20,-15,-11,-11,2021-08-06 14:04:29,033830
-1,-4,2,3,-5,-3,1,-1,2021-08-06 14:04:29,049830
8,10,19,43,40,18,10,8,2021-08-06 14:04:29,065830
-6,-6,-12,-33,-22,-10,-5,-6,2021-08-06 14:04:29,081831
-4,-4,5,-31,-17,-8,-6,-4,2021-08-06 14:04:29,081831
-10,-10,-27,-10,-14,-12,-10,-8,2021-08-06 14:04:29,081831
0,3,7,12,0,-3,-3,-1,2021-08-06 14:04:29,081831
9,7,9,27,19,12,8,7,2021-08-06 14:04:29,081831
7,8,7,27,22,10,8,5,2021-08-06 14:04:29,081831
3,4,8,-15,3,3,-1,0,2021-08-06 14:04:29,081831
-2,-5,-2,2,4,3,4,2,2021-08-06 14:04:29,097832
-12,-11,-9,-10,-13,-17,-11,-8,2021-08-06 14:04:29,112830
0,1,0,9,-12,-5,-2,2,2021-08-06 14:04:29,127832
-2,-3,-11,-32,-22,-7,-4,-4,2021-08-06 14:04:29,127832
2,4,13,22,30,15,6,3,2021-08-06 14:04:29,127832
-1,-3,-9,-9,-3,1,-1,-3,2021-08-06 14:04:29,127832
-1,-2,-9,-18,-4,0,2,0,2021-08-06 14:04:29,127832
-6,-7,-5,-3,-11,-8,-6,-3,2021-08-06 14:04:29,127832
4,4,7,-9,-8,-3,1,5,2021-08-06 14:04:29,127832
-2,-3,6,9,-4,-7,-6,-3,2021-08-06 14:04:29,127832
3,7,7,28,3,4,4,2,2021-08-06 14:04:29,127832
1,4,3,12,47,25,9,3,2021-08-06 14:04:29,127832
-4,-6,-2,-5,-5,-5,-2,-3,2021-08-06 14:04:29,128832
2,7,0,5,2,1,2,3,2021-08-06 14:04:29,128832
3,5,12,18,-1,-1,-1,1,2021-08-06 14:04:29,128832
-5,-5,4,0,-10,-7,-4,-4,2021-08-06 14:04:29,143832
-4,-9,-33,-55,-21,-6,-1,-3,2021-08-06 14:04:29,143832
-15,-22,-25,-47,-43,-30,-16,-14,2021-08-06 14:04:29,143832
-1,-1,-8,-4,-3,-5,-2,-3,2021-08-06 14:04:29,143832
-1,1,12,23,3,2,1,-1,2021-08-06 14:04:29,175832
9,11,19,42,29,15,6,5,2021-08-06 14:04:29,175832
6,8,7,7,5,9,4,4,2021-08-06 14:04:29,175832
-2,-3,-3,-11,-7,-6,-3,-2,2021-08-06 14:04:29,175832
-1,0,1,14,7,4,1,1,2021-08-06 14:04:29,191879
-4,-7,-13,-27,-15,-8,-4,-3,2021-08-06 14:04:29,191879
3,5,7,6,21,12,5,4,2021-08-06 14:04:29,191879
4,7,10,20,14,6,3,5,2021-08-06 14:04:29,191879
-2,0,-5,-3,-7,-6,-2,-2,2021-08-06 14:04:29,207835
-5,-4,-7,-16,-19,-12,-8,-7,2021-08-06 14:04:29,207835
-5,-4,9,13,-4,-7,-4,-3,2021-08-06 14:04:29,207835
4,2,2,-9,29,17,7,5,2021-08-06 14:04:29,207835
-7,-15,-42,-56,-38,-16,-10,-8,2021-08-06 14:04:29,223831
-5,-7,4,-4,7,-1,-3,-5,2021-08-06 14:04:29,223831
6,9,9,20,24,12,6,6,2021-08-06 14:04:29,223831
1,2,3,23,-4,-1,0,-3,2021-08-06 14:04:29,223831
3,4,20,10,2,-1,1,2,2021-08-06 14:04:29,255832
0,0,-13,12,-2,-1,0,2,2021-08-06 14:04:29,260833
-3,-4,-3,-16,6,8,4,-1,2021-08-06 14:04:29,260833
-1,-2,-1,2,-3,-2,0,1,2021-08-06 14:04:29,260833
3,7,22,45,22,6,1,2,2021-08-06 14:04:29,260833
-2,1,2,6,-9,-5,-3,-2,2021-08-06 14:04:29,271835
-1,0,-18,-56,-28,-9,-2,1,2021-08-06 14:04:29,271835
-18,-25,-35,-88,-51,-29,-18,-13,2021-08-06 14:04:29,271835
-2,-1,-5,5,12,3,0,-1,2021-08-06 14:04:29,287830
8,13,22,47,19,9,6,5,2021-08-06 14:04:29,303858
2,4,9,30,3,0,0,-1,2021-08-06 14:04:29,303858
5,6,3,5,14,14,10,3,2021-08-06 14:04:29,319832
-7,-10,-7,-9,-10,-9,-8,-7,2021-08-06 14:04:29,319832
-1,0,-6,2,1,1,1,-1,2021-08-06 14:04:29,319832
-3,-3,-2,-6,-7,-5,-4,-3,2021-08-06 14:04:29,319832
1,3,4,6,-5,-2,-1,0,2021-08-06 14:04:29,319832
-6,-6,-5,-14,-15,-10,-5,-4,2021-08-06 14:04:29,319832
1,2,1,-10,-2,-2,0,2,2021-08-06 14:04:29,319832
0,0,5,15,6,3,0,-2,2021-08-06 14:04:29,319832
4,4,2,13,18,12,5,5,2021-08-06 14:04:29,319832
-5,-9,-25,-42,-24,-11,-4,-3,2021-08-06 14:04:29,351830
-13,-14,-14,-56,-28,-15,-10,-10,2021-08-06 14:04:29,351830
3,1,7,37,39,18,8,4,2021-08-06 14:04:29,351830
3,7,13,40,14,4,2,0,2021-08-06 14:04:29,351830
5,9,12,18,-4,1,6,5,2021-08-06 14:04:29,367830
0,2,3,21,11,4,0,0,2021-08-06 14:04:29,367830
-2,-5,-3,-29,-3,-3,-2,-2,2021-08-06 14:04:29,367830
-4,-6,-8,3,14,6,0,-2,2021-08-06 14:04:29,367830
-2,-4,-5,-15,-15,-9,-4,-2,2021-08-06 14:04:29,382830
-2,1,9,19,11,1,-1,-3,2021-08-06 14:04:29,382830
-1,2,0,12,-11,-6,-3,1,2021-08-06 14:04:29,382830
4,4,11,31,29,14,5,2,2021-08-06 14:04:29,382830
0,-3,-15,-43,-18,-4,-2,-2,2021-08-06 14:04:29,413830
-6,-7,-16,-40,-23,-13,-10,-6,2021-08-06 14:04:29,429830
2,0,-1,4,3,2,1,1,2021-08-06 14:04:29,444830
1,3,3,-19,-21,-12,-3,0,2021-08-06 14:04:29,460831
3,6,18,50,25,14,7,4,2021-08-06 14:04:29,476830
3,2,2,12,7,5,2,2,2021-08-06 14:04:29,476830
-4,-4,-8,-28,-18,-11,-5,-5,2021-08-06 14:04:29,476830
1,-1,0,5,-10,-5,-2,0,2021-08-06 14:04:29,476830
-5,-6,-2,-15,2,-1,-2,-3,2021-08-06 14:04:29,476830
-8,-12,-18,-27,-13,-7,-5,-5,2021-08-06 14:04:29,476830
-8,-8,-14,-6,-18,-15,-11,-6,2021-08-06 14:04:29,476830
7,12,15,30,25,13,8,4,2021-08-06 14:04:29,476830
3,6,5,7,1,2,1,2,2021-08-06 14:04:29,476830
4,4,10,1,-5,-2,2,2,2021-08-06 14:04:29,476830
-2,-2,4,18,21,11,3,-1,2021-08-06 14:04:29,477832
-3,-2,-7,-5,4,1,-1,-2,2021-08-06 14:04:29,477832
1,-3,-7,-15,-11,-5,-3,0,2021-08-06 14:04:29,492833
-4,-6,-7,-20,-14,-10,-6,-3,2021-08-06 14:04:29,492833
8,6,6,12,13,10,6,5,2021-08-06 14:04:29,492833
-10,-12,-14,-22,-19,-14,-7,-7,2021-08-06 14:04:29,492833
5,11,15,32,20,6,5,2,2021-08-06 14:04:29,507834
2,4,5,17,-1,0,1,1,2021-08-06 14:04:29,507834
-7,-8,-14,-52,-33,-12,-8,-6,2021-08-06 14:04:29,507834
1,-2,2,-3,6,3,-1,1,2021-08-06 14:04:29,507834
-3,-5,-3,-10,-6,-2,-3,-2,2021-08-06 14:04:29,523830
-4,-7,-19,-3,-7,-9,-5,-6,2021-08-06 14:04:29,538831
3,6,14,24,5,4,2,1,2021-08-06 14:04:29,553830
2,4,2,0,-3,0,0,1,2021-08-06 14:04:29,553830
-4,-5,-11,-15,-9,-5,-5,-2,2021-08-06 14:04:29,553830
3,5,9,11,13,7,3,4,2021-08-06 14:04:29,553830
1,1,0,3,2,2,0,1,2021-08-06 14:04:29,553830
-3,-2,2,-7,-11,-6,-4,-3,2021-08-06 14:04:29,553830
2,4,20,35,17,7,2,0,2021-08-06 14:04:29,553830
2,-2,-17,-41,-19,-1,2,1,2021-08-06 14:04:29,553830
-10,-13,-24,-27,-8,-10,-7,-6,2021-08-06 14:04:29,569830
3,4,10,18,-1,1,2,4,2021-08-06 14:04:29,585830
2,0,-4,8,6,0,-1,0,2021-08-06 14:04:29,600832
6,8,14,25,20,16,8,4,2021-08-06 14:04:29,600832
-3,-2,3,-16,-19,-11,-6,-4,2021-08-06 14:04:29,600832
-4,-4,-3,-10,-9,-7,-4,-3,2021-08-06 14:04:29,600832
-3,0,6,7,-1,-2,-2,-2,2021-08-06 14:04:29,600832
2,0,-9,-8,-5,0,0,1,2021-08-06 14:04:29,600832
-5,-7,-15,-8,-7,-7,-4,-3,2021-08-06 14:04:29,600832
0,-3,-8,-10,3,1,2,0,2021-08-06 14:04:29,601832
1,3,11,-10,-5,-2,0,2,2021-08-06 14:04:29,622830
-4,-4,-5,10,-4,-8,-4,-3,2021-08-06 14:04:29,622830
6,8,18,25,22,14,9,6,2021-08-06 14:04:29,623833
-1,-1,0,13,10,8,1,-1,2021-08-06 14:04:29,623833
-3,-5,-7,-4,-11,-6,-3,-4,2021-08-06 14:04:29,647832
-2,-1,1,-26,-21,-12,-6,0,2021-08-06 14:04:29,647832
-3,-3,-2,2,11,5,-2,0,2021-08-06 14:04:29,647832
-3,-2,-9,-23,-16,-10,-6,-3,2021-08-06 14:04:29,647832
1,0,-2,18,20,9,3,2,2021-08-06 14:04:29,662832
-4,-1,6,17,-5,-5,-4,-3,2021-08-06 14:04:29,662832
6,3,3,7,21,13,6,6,2021-08-06 14:04:29,662832
2,0,-8,-29,-10,1,2,0,2021-08-06 14:04:29,662832
-9,-12,-12,-29,-31,-19,-11,-8,2021-08-06 14:04:29,677830
-4,-3,-5,11,3,-5,-3,-4,2021-08-06 14:04:29,693831
5,6,12,18,11,9,8,4,2021-08-06 14:04:29,709831
-3,-1,4,16,12,5,1,0,2021-08-06 14:04:29,725831
1,-1,-2,9,9,3,0,1,2021-08-06 14:04:29,741832
5,8,11,-4,8,9,5,5,2021-08-06 14:04:29,741832
-7,-10,-14,-26,-28,-16,-9,-9,2021-08-06 14:04:29,741832
-2,-1,-3,4,-4,-4,-5,-2,2021-08-06 14:04:29,741832
-1,-1,3,-17,-9,-1,-1,-1,2021-08-06 14:04:29,757831
5,7,7,26,30,16,8,4,2021-08-06 14:04:29,773830
-2,-1,-3,-8,-13,-7,-5,-4,2021-08-06 14:04:29,789830
-5,-7,-10,-10,-23,-17,-8,-5,2021-08-06 14:04:29,789830
8,9,5,34,58,30,14,7,2021-08-06 14:04:29,789830
-1,-4,2,-6,1,1,0,-1,2021-08-06 14:04:29,789830
-4,-2,-4,-21,-20,-10,-5,-3,2021-08-06 14:04:29,789830
-6,-2,12,1,-13,-11,-6,-5,2021-08-06 14:04:29,789830
0,0,-12,18,14,5,3,1,2021-08-06 14:04:29,789830
2,1,-6,-9,14,14,6,3,2021-08-06 14:04:29,790831
-6,-5,-10,-16,-19,-10,-4,-6,2021-08-06 14:04:29,790831
-4,-3,0,-6,-7,-7,-4,-5,2021-08-06 14:04:29,790831
-2,0,3,-1,-12,-8,-5,-3,2021-08-06 14:04:29,790831
4,8,16,45,28,11,5,3,2021-08-06 14:04:29,790831
0,-3,-5,-14,-14,-4,-2,-1,2021-08-06 14:04:29,790831
-5,-8,-20,-24,-9,-2,-2,-1,2021-08-06 14:04:29,790831
-5,-3,-2,-12,-4,-5,-3,-4,2021-08-06 14:04:29,821832
-5,-8,-9,-15,-26,-16,-7,-5,2021-08-06 14:04:29,821832
1,2,2,3,7,2,2,1,2021-08-06 14:04:29,821832
7,7,15,36,35,18,11,7,2021-08-06 14:04:29,821832
4,6,10,23,8,6,4,3,2021-08-06 14:04:29,821832
-4,-6,-3,-10,-16,-9,-7,-3,2021-08-06 14:04:29,821832
-1,-1,7,-16,-1,-2,-2,0,2021-08-06 14:04:29,821832
-6,-11,-34,-16,-25,-15,-8,-7,2021-08-06 14:04:29,822834
6,6,3,3,22,14,8,6,2021-08-06 14:04:29,853832
-6,-7,-5,-4,-10,-8,-4,-5,2021-08-06 14:04:29,853832
1,3,4,5,1,1,1,-1,2021-08-06 14:04:29,853832
0,3,8,8,-2,-4,-2,-1,2021-08-06 14:04:29,853832
0,0,4,10,-1,-1,-1,0,2021-08-06 14:04:29,853832
2,7,6,24,29,17,6,4,2021-08-06 14:04:29,853832
2,-1,-9,-30,5,4,3,1,2021-08-06 14:04:29,869830
-1,-2,5,3,-6,-4,-1,-1,2021-08-06 14:04:29,885831
-3,-4,-5,-10,-14,-9,-5,-3,2021-08-06 14:04:29,901830
0,-2,2,-4,-13,-7,-1,-2,2021-08-06 14:04:29,901830
-2,-2,-10,8,0,-3,-1,-1,2021-08-06 14:04:29,901830
-5,-6,-3,3,14,3,-2,-3,2021-08-06 14:04:29,901830
10,11,11,4,6,7,6,8,2021-08-06 14:04:29,901830
2,-5,0,4,7,2,0,0,2021-08-06 14:04:29,901830
2,4,17,12,9,5,3,2,2021-08-06 14:04:29,901830
-6,-12,-28,-43,-23,-9,-5,-7,2021-08-06 14:04:29,902832
-11,-12,-11,1,-7,-8,-8,-9,2021-08-06 14:04:29,931830
3,10,23,29,15,5,1,2,2021-08-06 14:04:29,931830
8,9,5,31,3,2,2,6,2021-08-06 14:04:29,931830
8,6,4,-19,18,16,9,6,2021-08-06 14:04:29,931830
-11,-18,-25,-48,-39,-22,-13,-9,2021-08-06 14:04:29,947832
-6,-8,-11,-20,-18,-9,-3,-5,2021-08-06 14:04:29,963831
-2,-1,3,20,1,-4,-3,-2,2021-08-06 14:04:29,973830
2,7,16,28,9,2,0,1,2021-08-06 14:04:29,973830
0,4,5,6,4,2,2,0,2021-08-06 14:04:29,973830
2,0,0,7,8,5,2,2,2021-08-06 14:04:29,973830
1,1,-10,-14,-2,5,2,2,2021-08-06 14:04:29,973830
-4,-4,-9,-28,-13,-7,-6,-4,2021-08-06 14:04:29,974832
-5,-6,-7,-16,-16,-10,-5,-4,2021-08-06 14:04:30,010830
-8,-6,-2,-11,-22,-17,-10,-6,2021-08-06 14:04:30,026831
0,1,6,22,13,4,3,-1,2021-08-06 14:04:30,026831
6,7,3,0,-8,-1,0,3,2021-08-06 14:04:30,026831
-1,0,4,14,24,12,3,1,2021-08-06 14:04:30,026831
0,-4,-4,0,5,4,1,0,2021-08-06 14:04:30,026831
8,12,5,1,-5,-2,5,4,2021-08-06 14:04:30,026831
-6,-10,-11,-13,-18,-11,-7,-5,2021-08-06 14:04:30,026831
2,3,3,-6,-11,-5,-3,2,2021-08-06 14:04:30,027832
-2,-4,-6,-2,13,6,3,-1,2021-08-06 14:04:30,027832
-6,-4,-4,0,0,-1,-4,-3,2021-08-06 14:04:30,027832
1,4,8,12,3,3,3,0,2021-08-06 14:04:30,027832
-3,-6,-10,-16,-21,-12,-6,-3,2021-08-06 14:04:30,058831
6,7,5,12,33,20,12,5,2021-08-06 14:04:30,074835
-4,-1,-1,-9,-19,-13,-7,-4,2021-08-06 14:04:30,074835
0,1,6,21,15,5,3,1,2021-08-06 14:04:30,074835
2,3,-4,-11,6,5,2,0,2021-08-06 14:04:30,090830
-12,-21,-24,-45,-51,-29,-13,-9,2021-08-06 14:04:30,106831
4,4,7,14,16,7,3,1,2021-08-06 14:04:30,106831
3,6,13,24,7,3,0,0,2021-08-06 14:04:30,106831
1,2,-2,-8,0,2,4,3,2021-08-06 14:04:30,106831
-3,-3,-11,-34,-22,-13,-4,-1,2021-08-06 14:04:30,106831
-9,-9,-8,-11,-23,-18,-11,-7,2021-08-06 14:04:30,106831
-2,-4,-4,2,-3,-1,-1,1,2021-08-06 14:04:30,106831
3,5,6,4,16,9,3,0,2021-08-06 14:04:30,106831
1,1,6,7,2,2,-3,1,2021-08-06 14:04:30,106831
-3,-6,-13,2,5,3,2,-1,2021-08-06 14:04:30,107833
-3,-2,0,-8,-23,-13,-6,-4,2021-08-06 14:04:30,107833
1,3,18,42,30,13,6,4,2021-08-06 14:04:30,122832
6,10,5,21,9,6,3,3,2021-08-06 14:04:30,138831
-2,-5,-10,-38,3,3,-1,-1,2021-08-06 14:04:30,138831
-7,-8,-8,-15,1,-2,-4,-4,2021-08-06 14:04:30,138831
-2,-6,-13,-21,-18,-10,-5,-2,2021-08-06 14:04:30,154831
1,6,11,22,16,4,0,1,2021-08-06 14:04:30,170831
9,12,20,44,27,15,9,7,2021-08-06 14:04:30,170831
-2,-2,-8,-23,-7,-1,0,0,2021-08-06 14:04:30,170831
-8,-11,-9,-28,-38,-25,-11,-8,2021-08-06 14:04:30,170831
2,5,-4,-6,-5,-1,0,1,2021-08-06 14:04:30,170831
2,3,8,21,12,8,3,1,2021-08-06 14:04:30,170831
-1,0,2,10,-1,-1,-2,-3,2021-08-06 14:04:30,170831
-1,-2,-4,-4,12,14,5,1,2021-08-06 14:04:30,202832
-4,-2,-7,-12,-12,-9,-7,-4,2021-08-06 14:04:30,218830
-2,1,7,18,22,13,5,2,2021-08-06 14:04:30,234831
5,3,2,10,5,6,7,5,2021-08-06 14:04:30,234831
-5,-3,-3,-11,-14,-10,-9,-5,2021-08-06 14:04:30,234831
-4,-7,2,-19,-11,-7,-4,-4,2021-08-06 14:04:30,234831
2,3,-12,-8,4,3,1,2,2021-08-06 14:04:30,234831
-2,-3,-3,-12,-19,-12,-4,-2,2021-08-06 14:04:30,234831
1,-2,1,22,28,17,7,4,2021-08-06 14:04:30,234831
3,10,16,9,-5,-5,-1,0,2021-08-06 14:04:30,234831
-2,-1,8,10,-5,-6,-2,-1,2021-08-06 14:04:30,235832
1,-1,-12,0,7,3,1,0,2021-08-06 14:04:30,235832
-7,-8,-10,-27,-25,-13,-6,-6,2021-08-06 14:04:30,250831
-2,1,11,22,12,5,-1,-1,2021-08-06 14:04:30,250831
0,0,-3,0,-3,0,0,0,2021-08-06 14:04:30,250831
4,3,-12,-38,-2,3,3,2,2021-08-06 14:04:30,250831
-4,-3,1,16,-6,-5,-4,-3,2021-08-06 14:04:30,266830
-2,-3,-5,6,17,6,0,-1,2021-08-06 14:04:30,266830
0,-2,7,18,4,0,-1,-1,2021-08-06 14:04:30,266830
4,6,16,20,21,12,2,4,2021-08-06 14:04:30,266830
2,1,0,4,-13,-9,-2,-2,2021-08-06 14:04:30,312830
-3,-6,-4,-18,-6,-4,-3,-3,2021-08-06 14:04:30,312830
-7,-12,-28,-46,-20,-10,-7,-8,2021-08-06 14:04:30,312830
-7,-5,-11,-3,-4,-6,-3,0,2021-08-06 14:04:30,312830
6,8,16,42,37,15,7,5,2021-08-06 14:04:30,312830
3,7,4,20,3,3,2,4,2021-08-06 14:04:30,312830
-7,-6,-10,-40,-41,-22,-11,-8,2021-08-06 14:04:30,312830
-4,-5,5,8,25,10,2,-4,2021-08-06 14:04:30,313832
0,0,-10,-20,-20,-9,-4,-1,2021-08-06 14:04:30,327830
-5,-8,-13,-16,-10,-4,-4,-4,2021-08-06 14:04:30,339831
2,2,4,13,11,7,3,2,2021-08-06 14:04:30,339831
-5,-5,-1,-14,-26,-18,-8,-7,2021-08-06 14:04:30,339831
5,5,9,26,18,9,6,3,2021-08-06 14:04:30,359831
-3,-4,-6,5,-2,-2,-2,-2,2021-08-06 14:04:30,374831
2,3,2,-18,-5,0,0,-2,2021-08-06 14:04:30,374831
-2,-3,6,-8,-20,-13,-7,-5,2021-08-06 14:04:30,374831
1,-1,-12,-5,4,3,1,0,2021-08-06 14:04:30,374831
-2,-4,-9,-15,-9,-4,0,-1,2021-08-06 14:04:30,374831
-5,-6,0,16,0,-5,-4,-4,2021-08-06 14:04:30,374831
0,0,0,-7,-19,-8,-3,-1,2021-08-06 14:04:30,374831
1,4,8,22,30,14,5,3,2021-08-06 14:04:30,389830
5,5,-2,-11,-17,-8,-1,0,2021-08-06 14:04:30,389830
-1,-1,0,1,3,0,0,0,2021-08-06 14:04:30,389830
-3,-3,-4,-5,-7,-7,-5,-4,2021-08-06 14:04:30,389830
-2,-1,-4,-8,-6,-1,-3,-1,2021-08-06 14:04:30,421832
0,0,10,17,5,-3,-1,-1,2021-08-06 14:04:30,437831
5,1,-1,6,0,5,5,5,2021-08-06 14:04:30,437831
3,0,-2,-16,5,6,2,2,2021-08-06 14:04:30,437831
-3,-4,-3,-8,-4,-4,-6,-5,2021-08-06 14:04:30,437831
-3,-3,-7,1,1,-1,-1,-4,2021-08-06 14:04:30,437831
-4,-6,-5,-13,-20,-12,-5,-4,2021-08-06 14:04:30,437831
4,6,9,7,15,7,6,3,2021-08-06 14:04:30,437831
-3,-3,-3,-11,-14,-8,-6,-2,2021-08-06 14:04:30,452832
6,5,12,24,39,22,10,5,2021-08-06 14:04:30,468830
-1,-2,-3,6,-3,-5,-2,-2,2021-08-06 14:04:30,484831
1,-1,-6,8,1,1,0,-1,2021-08-06 14:04:30,484831
-1,2,4,-8,-10,-7,-4,-2,2021-08-06 14:04:30,484831
7,7,11,32,31,18,8,8,2021-08-06 14:04:30,484831
6,7,9,10,7,4,4,5,2021-08-06 14:04:30,484831
-4,-6,-20,-20,1,1,0,-3,2021-08-06 14:04:30,484831
-10,-16,-18,-60,-50,-28,-13,-11,2021-08-06 14:04:30,484831
-6,-7,-6,-10,-8,-4,-6,-5,2021-08-06 14:04:30,485832
2,5,8,21,17,8,3,4,2021-08-06 14:04:30,485832
1,5,12,31,3,-1,0,1,2021-08-06 14:04:30,485832
5,4,-4,7,6,3,5,3,2021-08-06 14:04:30,516831
-6,-7,-10,-28,-19,-10,-5,-5,2021-08-06 14:04:30,532830
-7,-8,-10,-28,-16,-9,-7,-6,2021-08-06 14:04:30,548830
0,-1,3,9,9,3,1,0,2021-08-06 14:04:30,548830
7,13,18,29,24,15,9,7,2021-08-06 14:04:30,548830
-2,1,8,12,-5,-7,-6,-3,2021-08-06 14:04:30,548830
0,0,-10,3,5,6,1,1,2021-08-06 14:04:30,548830
-2,-5,-7,-44,-20,-6,-1,-1,2021-08-06 14:04:30,548830
1,3,0,25,31,12,4,2,2021-08-06 14:04:30,548830
0,-1,0,7,-5,-4,-2,-1,2021-08-06 14:04:30,549832
1,2,3,6,4,-1,-4,-3,2021-08-06 14:04:30,549832
-8,-7,2,-12,-21,-12,-9,-5,2021-08-06 14:04:30,549832
-1,1,-1,3,-5,-4,0,-1,2021-08-06 14:04:30,564830
-4,-5,-25,-31,-12,-5,-3,-1,2021-08-06 14:04:30,564830
-6,-9,-12,-29,-17,-8,-5,-4,2021-08-06 14:04:30,564830
7,9,10,40,34,16,8,5,2021-08-06 14:04:30,564830
-2,-3,5,-11,-16,-9,-4,-3,2021-08-06 14:04:30,594830
1,-1,3,6,-2,-3,-1,-3,2021-08-06 14:04:30,610830
-2,-4,1,-1,2,-1,-1,-3,2021-08-06 14:04:30,610830
9,12,12,30,35,21,10,8,2021-08-06 14:04:30,610830
-6,-9,-18,-36,-37,-17,-9,-6,2021-08-06 14:04:30,610830
-7,-11,-14,-28,-20,-13,-8,-6,2021-08-06 14:04:30,610830
-5,-2,8,9,2,-4,-5,-4,2021-08-06 14:04:30,610830
11,15,21,55,44,28,15,10,2021-08-06 14:04:30,610830
1,0,-9,-7,11,6,2,0,2021-08-06 14:04:30,626830
-1,-8,-12,-42,-19,-6,-2,-3,2021-08-06 14:04:30,626830
-3,-1,7,3,-16,-11,-5,-4,2021-08-06 14:04:30,626830
-1,-2,5,29,5,-3,-1,-3,2021-08-06 14:04:30,626830
-1,1,1,0,-5,-4,-3,-2,2021-08-06 14:04:30,658831
5,8,9,6,20,16,9,6,2021-08-06 14:04:30,690831
-4,-9,-24,-31,-22,-10,-2,-1,2021-08-06 14:04:30,690831
-8,-10,-8,-19,-22,-14,-8,-4,2021-08-06 14:04:30,690831
-3,-8,-15,-19,-8,-6,-4,-4,2021-08-06 14:04:30,690831
-2,0,10,17,-3,-5,-3,-4,2021-08-06 14:04:30,690831
4,7,11,12,7,4,1,0,2021-08-06 14:04:30,690831
5,6,12,20,28,17,7,3,2021-08-06 14:04:30,690831
2,1,4,12,-2,-3,0,-2,2021-08-06 14:04:30,690831
1,1,-5,-17,-2,-1,1,0,2021-08-06 14:04:30,690831
-4,-8,-5,-2,-1,-2,-1,-3,2021-08-06 14:04:30,691832
-4,-7,-18,-43,-42,-25,-11,-5,2021-08-06 14:04:30,691832
-3,-2,7,16,15,5,-1,-1,2021-08-06 14:04:30,704832
4,3,2,27,16,11,6,3,2021-08-06 14:04:30,704832
3,3,6,8,21,13,5,3,2021-08-06 14:04:30,704832
-2,-1,1,-2,-11,-9,-3,-3,2021-08-06 14:04:30,704832
2,0,-1,-13,-9,1,2,3,2021-08-06 14:04:30,722830
-5,-7,-20,-26,-24,-15,-7,-4,2021-08-06 14:04:30,722830
-8,-10,-13,-21,-11,-5,-3,-4,2021-08-06 14:04:30,754831
-1,-1,-6,-5,-12,-5,-2,-1,2021-08-06 14:04:30,770831
-3,0,6,16,18,6,2,-2,2021-08-06 14:04:30,770831
3,6,12,25,18,9,4,2,2021-08-06 14:04:30,770831
-1,1,11,23,6,2,-2,-4,2021-08-06 14:04:30,770831
0,2,4,4,-5,-3,-3,-2,2021-08-06 14:04:30,770831
-1,-4,-5,-17,-18,-7,-2,-1,2021-08-06 14:04:30,770831
-9,-11,-21,-31,-20,-16,-9,-7,2021-08-06 14:04:30,770831
1,3,2,-2,-8,-5,-2,1,2021-08-06 14:04:30,770831
-2,-3,-10,-11,8,5,1,-1,2021-08-06 14:04:30,770831
-4,-5,-7,-16,-4,-2,-3,-2,2021-08-06 14:04:30,786830
5,5,8,17,6,2,0,1,2021-08-06 14:04:30,786830
6,6,10,23,29,16,9,6,2021-08-06 14:04:30,786830
-2,-1,-1,7,7,3,1,-2,2021-08-06 14:04:30,786830
0,-1,-4,-4,-13,-7,-2,-1,2021-08-06 14:04:30,818830
-3,-4,-3,-10,-9,-6,-3,-1,2021-08-06 14:04:30,834831
-3,-3,-7,-7,-5,-5,-4,-4,2021-08-06 14:04:30,834831
-1,-4,1,0,3,1,0,1,2021-08-06 14:04:30,834831
5,6,10,16,9,4,2,2,2021-08-06 14:04:30,834831
4,7,11,20,15,12,9,5,2021-08-06 14:04:30,834831
2,0,-2,-3,7,5,4,2,2021-08-06 14:04:30,834831
-12,-16,-24,-44,-28,-18,-11,-11,2021-08-06 14:04:30,834831
-1,-1,3,1,-5,-4,-2,-1,2021-08-06 14:04:30,850847
3,3,10,19,9,3,1,1,2021-08-06 14:04:30,850847
2,-1,-4,9,3,4,1,-1,2021-08-06 14:04:30,850847
-4,-2,-11,-26,-17,-8,-4,-2,2021-08-06 14:04:30,850847
-4,-4,-8,-25,-19,-17,-10,-7,2021-08-06 14:04:30,865847
3,4,12,26,19,12,5,3,2021-08-06 14:04:30,881846
4,8,9,27,29,16,7,3,2021-08-06 14:04:30,913847
-4,-8,-14,-15,-15,-6,-4,-7,2021-08-06 14:04:30,913847
-6,-8,-4,-32,-21,-9,-6,-5,2021-08-06 14:04:30,913847
-9,-10,-24,-24,-24,-16,-11,-6,2021-08-06 14:04:30,913847
2,2,10,10,-16,-11,-1,0,2021-08-06 14:04:30,913847
11,12,19,52,57,30,16,10,2021-08-06 14:04:30,913847
-2,-4,-1,-18,-8,0,2,0,2021-08-06 14:04:30,913847
-1,0,-6,-7,-4,-4,-2,-2,2021-08-06 14:04:30,913847
-4,-4,-7,-2,-5,-6,-4,-2,2021-08-06 14:04:30,914849
0,2,6,7,-17,-9,-4,-2,2021-08-06 14:04:30,914849
3,4,-4,-2,16,9,3,2,2021-08-06 14:04:30,929846
-4,-5,1,-10,-12,-5,-3,-4,2021-08-06 14:04:30,929846
-2,-3,-4,-4,-4,-3,-3,-1,2021-08-06 14:04:30,929846
-1,1,-3,-6,-15,-10,-5,-1,2021-08-06 14:04:30,929846
-1,-2,8,20,10,3,0,1,2021-08-06 14:04:30,959848
2,2,-2,12,14,8,2,1,2021-08-06 14:04:30,975848
-2,-2,-13,-30,0,2,0,1,2021-08-06 14:04:30,991847
-6,-6,-4,-24,-9,-6,-4,-2,2021-08-06 14:04:30,991847
2,6,9,30,24,10,4,3,2021-08-06 14:04:30,991847
-5,-5,2,5,-5,-9,-7,-5,2021-08-06 14:04:30,991847
6,5,3,19,6,5,4,5,2021-08-06 14:04:30,991847
-2,-3,-3,-2,4,5,2,0,2021-08-06 14:04:30,991847
3,3,0,8,6,2,2,1,2021-08-06 14:04:30,991847
-1,-3,3,-10,-8,-4,-1,-1,2021-08-06 14:04:30,991847
-3,-4,-21,-32,-23,-12,-5,-3,2021-08-06 14:04:30,991847
-5,-6,-4,-21,-13,-8,-6,-5,2021-08-06 14:04:30,991847
2,3,6,34,19,12,5,0,2021-08-06 14:04:31,007849
2,2,6,15,4,2,1,1,2021-08-06 14:04:31,023847
6,9,10,-4,4,5,6,6,2021-08-06 14:04:31,039847
-6,-5,-10,-17,-16,-11,-9,-6,2021-08-06 14:04:31,039847
-6,-6,-5,-4,-13,-7,-5,-4,2021-08-06 14:04:31,039847
7,9,16,20,30,16,9,5,2021-08-06 14:04:31,039847
-3,-2,2,12,-7,-6,-4,-3,2021-08-06 14:04:31,039847
2,0,-9,-13,-10,-2,2,2,2021-08-06 14:04:31,039847
-9,-12,-16,-24,-11,-9,-6,-7,2021-08-06 14:04:31,039847
-5,-3,-4,-18,-22,-14,-7,-5,2021-08-06 14:04:31,039847
3,6,12,24,20,12,5,3,2021-08-06 14:04:31,055849
3,4,7,28,9,4,3,2,2021-08-06 14:04:31,056090
-6,-9,-19,-34,-22,-12,-8,-6,2021-08-06 14:04:31,063357
6,10,16,13,20,13,9,4,2021-08-06 14:04:31,063357
-3,-5,-6,-18,-9,-6,-5,-3,2021-08-06 14:04:31,064358
-1,-4,-14,3,-8,-6,-1,-1,2021-08-06 14:04:31,064358
3,6,6,24,22,13,5,4,2021-08-06 14:04:31,103356
-6,-9,-13,-12,-28,-16,-10,-4,2021-08-06 14:04:31,103356
0,0,8,-10,10,6,0,-1,2021-08-06 14:04:31,103356
-1,-2,0,-1,-2,-2,-1,-1,2021-08-06 14:04:31,103356
-1,0,2,8,-1,-2,-1,0,2021-08-06 14:04:31,103356
2,2,5,13,9,4,3,2,2021-08-06 14:04:31,103356
-5,-5,-2,7,12,0,-1,-3,2021-08-06 14:04:31,119356
1,3,6,-1,11,8,2,-1,2021-08-06 14:04:31,135356
2,2,-1,3,6,6,6,3,2021-08-06 14:04:31,151357
-7,-9,-22,-52,-25,-17,-9,-6,2021-08-06 14:04:31,151357
-5,-6,-3,2,-21,-13,-6,-3,2021-08-06 14:04:31,151357
3,3,11,25,27,12,4,2,2021-08-06 14:04:31,151357
1,0,6,-3,7,4,1,-1,2021-08-06 14:04:31,151357
4,4,-8,4,10,9,4,2,2021-08-06 14:04:31,151357
-6,-8,-13,-16,-9,-9,-7,-6,2021-08-06 14:04:31,151357
2,0,7,13,3,1,3,2,2021-08-06 14:04:31,152357
7,10,13,2,-13,-3,2,5,2021-08-06 14:04:31,167358
-8,-10,-17,-22,-17,-10,-6,-5,2021-08-06 14:04:31,167358
-1,0,2,-4,1,1,-2,-1,2021-08-06 14:04:31,182357
1,4,11,27,28,11,4,2,2021-08-06 14:04:31,182357
6,7,19,55,28,16,8,5,2021-08-06 14:04:31,182357
4,6,3,4,15,10,4,3,2021-08-06 14:04:31,182357
-4,-8,-18,-55,-47,-20,-8,-4,2021-08-06 14:04:31,197357
-15,-20,-19,-65,-53,-33,-17,-12,2021-08-06 14:04:31,213356
0,-2,-20,-2,22,12,5,2,2021-08-06 14:04:31,213356
0,4,18,35,14,5,1,1,2021-08-06 14:04:31,213356
7,11,20,55,21,12,7,4,2021-08-06 14:04:31,229356
7,8,4,5,16,14,7,5,2021-08-06 14:04:31,245356
-3,-1,-5,-43,-29,-13,-6,-5,2021-08-06 14:04:31,260357
-10,-17,-24,-32,-28,-22,-10,-9,2021-08-06 14:04:31,260357
-6,-4,-15,-20,-19,-13,-7,-5,2021-08-06 14:04:31,260357
-1,2,7,14,1,0,-1,0,2021-08-06 14:04:31,260357
-1,0,9,32,23,10,2,-1,2021-08-06 14:04:31,260357
9,12,21,36,27,21,10,6,2021-08-06 14:04:31,260357
2,4,5,12,5,6,2,0,2021-08-06 14:04:31,260357
-2,-2,-15,-37,-12,-6,-4,-2,2021-08-06 14:04:31,260357
-6,-9,-11,-23,-23,-15,-9,-5,2021-08-06 14:04:31,276357
-6,-8,-17,-27,-19,-13,-5,-5,2021-08-06 14:04:31,292357
-2,-4,-1,-1,6,0,-1,-3,2021-08-06 14:04:31,307359
0,2,4,19,6,3,-1,-1,2021-08-06 14:04:31,307359
-2,-3,-3,-5,-9,-4,-3,-1,2021-08-06 14:04:31,307359
3,2,6,5,4,5,3,2,2021-08-06 14:04:31,307359
-1,-2,-4,4,-2,-3,-1,-1,2021-08-06 14:04:31,307359
-1,1,0,3,1,-3,0,0,2021-08-06 14:04:31,307359
-2,-2,1,0,-6,-4,-3,-2,2021-08-06 14:04:31,307359
0,0,5,13,10,6,3,1,2021-08-06 14:04:31,307359
-1,0,0,-9,4,1,0,-1,2021-08-06 14:04:31,307359
-4,-6,-1,-2,-19,-9,-7,-3,2021-08-06 14:04:31,307359
6,4,-4,2,4,5,4,4,2021-08-06 14:04:31,339358
8,8,3,-4,13,11,8,7,2021-08-06 14:04:31,355357
