EMG 1,EMG 2,EMG 3,EMG 4,EMG 5,EMG 6,EMG 7,EMG 8,Timestamp,Milliseconds
-4,-3,-7,-8,-8,-8,-4,-3,2021-08-06 14:06:21,528238
-4,-6,-6,-15,-19,-7,-5,-4,2021-08-06 14:06:21,528238
4,5,8,31,33,17,8,4,2021-08-06 14:06:21,528238
1,4,14,23,6,3,2,-1,2021-08-06 14:06:21,528238
6,10,14,21,34,23,11,7,2021-08-06 14:06:21,528238
-15,-19,-35,-84,-81,-50,-25,-17,2021-08-06 14:06:21,528238
-3,-4,-4,-2,19,10,2,2,2021-08-06 14:06:21,528238
-2,-3,-11,-1,9,6,1,-1,2021-08-06 14:06:21,528238
-2,-1,3,6,-3,-6,-2,-2,2021-08-06 14:06:21,560187
6,8,14,34,27,17,10,5,2021-08-06 14:06:21,576237
-1,0,0,-9,-15,-4,-2,-1,2021-08-06 14:06:21,576237
-3,-4,0,-10,-18,-11,-8,-3,2021-08-06 14:06:21,576237
10,10,17,41,47,27,12,9,2021-08-06 14:06:21,576237
2,2,1,5,5,4,1,2,2021-08-06 14:06:21,576237
-7,-8,-15,-38,-31,-17,-8,-8,2021-08-06 14:06:21,576237
-5,-7,-7,-13,-7,-4,-5,-2,2021-08-06 14:06:21,576237
-8,-9,-13,-26,-31,-18,-11,-7,2021-08-06 14:06:21,576237
6,10,14,30,31,17,9,8,2021-08-06 14:06:21,576237
1,2,6,13,4,3,2,1,2021-08-06 14:06:21,608186
-2,-2,-8,-15,-10,-6,-2,-1,2021-08-06 14:06:21,608186
-4,-6,-5,-5,-8,-6,-3,-4,2021-08-06 14:06:21,608186
3,3,6,20,23,13,7,4,2021-08-06 14:06:21,608186
1,-1,0,-2,-7,-4,-3,-2,2021-08-06 14:06:21,624237
1,0,1,-1,2,2,1,3,2021-08-06 14:06:21,640221
8,8,7,11,16,9,5,6,2021-08-06 14:06:21,656211
0,-1,-1,-3,1,1,0,0,2021-08-06 14:06:21,656211
1,1,4,14,15,9,2,1,2021-08-06 14:06:21,656211
-5,-6,-6,-11,-19,-11,-6,-3,2021-08-06 14:06:21,656211
-2,1,-1,0,6,2,0,-1,2021-08-06 14:06:21,668222
0,-1,-5,-7,10,5,2,1,2021-08-06 14:06:21,668222
3,3,7,18,25,17,6,3,2021-08-06 14:06:21,668222
3,2,6,12,8,3,0,0,2021-08-06 14:06:21,668222
-3,-4,-2,-9,-14,-10,-5,-4,2021-08-06 14:06:21,668222
-5,-8,-19,-32,-42,-25,-12,-6,2021-08-06 14:06:21,668222
-2,-6,-17,-17,-1,1,0,-1,2021-08-06 14:06:21,688187
2,2,6,12,18,9,4,1,2021-08-06 14:06:21,688187
-2,-1,1,-1,-8,-3,-2,-3,2021-08-06 14:06:21,688187
2,6,16,31,20,9,2,2,2021-08-06 14:06:21,688187
-2,-1,1,5,-15,-10,-3,-2,2021-08-06 14:06:21,704235
-10,-14,-26,-59,-55,-28,-12,-9,2021-08-06 14:06:21,704235
9,7,8,9,45,26,14,10,2021-08-06 14:06:21,704235
-1,0,3,8,5,1,-1,-2,2021-08-06 14:06:21,704235
1,4,8,21,10,2,1,2,2021-08-06 14:06:21,736237
0,2,4,12,5,3,0,1,2021-08-06 14:06:21,752223
-9,-13,-14,-31,-28,-16,-8,-6,2021-08-06 14:06:21,752223
-3,-5,-8,-14,-14,-6,-4,-3,2021-08-06 14:06:21,752223
-2,-1,3,5,12,4,1,-1,2021-08-06 14:06:21,752223
8,8,9,22,21,12,10,9,2021-08-06 14:06:21,752223
-2,-2,-3,-1,-11,-6,-2,-2,2021-08-06 14:06:21,752223
-1,0,-1,-6,-13,-5,-2,-1,2021-08-06 14:06:21,752223
-3,-2,1,1,4,0,-2,-3,2021-08-06 14:06:21,784187
-2,-2,1,11,15,6,-1,-1,2021-08-06 14:06:21,799186
3,3,4,9,-4,-2,1,2,2021-08-06 14:06:21,799186
1,3,-1,-11,-7,-2,0,1,2021-08-06 14:06:21,799186
-2,-4,-7,-17,-19,-13,-6,-2,2021-08-06 14:06:21,799186
-1,-2,-3,-6,4,1,-1,-3,2021-08-06 14:06:21,799186
-7,-5,-5,0,-9,-8,-6,-5,2021-08-06 14:06:21,799186
-4,-7,-5,-12,-24,-14,-8,-7,2021-08-06 14:06:21,799186
6,7,6,15,34,19,11,7,2021-08-06 14:06:21,800186
0,1,2,8,12,6,2,-1,2021-08-06 14:06:21,800186
-3,-4,-2,-2,-9,-5,-3,-5,2021-08-06 14:06:21,800186
-2,-3,-5,-5,-2,-5,-1,-2,2021-08-06 14:06:21,800186
-1,1,2,-14,-19,-11,-5,-1,2021-08-06 14:06:21,830187
-2,-1,-1,-7,-13,-7,-3,-3,2021-08-06 14:06:21,830187
4,4,4,14,23,11,4,2,2021-08-06 14:06:21,830187
-3,-4,-3,1,9,7,0,-1,2021-08-06 14:06:21,830187
0,0,3,10,6,4,-1,-2,2021-08-06 14:06:21,862235
1,3,3,2,-1,0,0,1,2021-08-06 14:06:21,877695
-2,-3,-6,-12,-16,-7,-2,-3,2021-08-06 14:06:21,877695
-1,0,3,3,16,6,1,1,2021-08-06 14:06:21,877695
-3,-4,-5,-6,-8,-6,-5,-3,2021-08-06 14:06:21,877695
-2,-6,-4,-5,-14,-9,-5,-4,2021-08-06 14:06:21,877695
1,1,4,9,9,3,0,0,2021-08-06 14:06:21,877695
4,5,13,26,20,11,7,3,2021-08-06 14:06:21,877695
-4,-4,-12,-9,-18,-10,-4,-4,2021-08-06 14:06:21,893730
0,2,0,-12,9,7,2,2,2021-08-06 14:06:21,893730
-1,-2,-10,-9,-9,-5,-4,-1,2021-08-06 14:06:21,893730
-3,-3,-1,1,-4,-5,-2,-2,2021-08-06 14:06:21,893730
0,2,4,1,-2,0,1,-1,2021-08-06 14:06:21,909694
-4,-7,-4,2,-2,-2,-1,-2,2021-08-06 14:06:21,909694
-2,-3,3,-1,0,-1,-2,-1,2021-08-06 14:06:21,909694
3,5,5,11,6,5,3,3,2021-08-06 14:06:21,909694
-1,-5,-5,-18,-18,-10,-6,-3,2021-08-06 14:06:21,925694
1,2,6,16,14,10,5,1,2021-08-06 14:06:21,925694
-4,-3,-8,-13,-9,-3,-3,-3,2021-08-06 14:06:21,925694
-2,-5,-10,-14,-13,-7,-4,-3,2021-08-06 14:06:21,925694
2,1,2,12,23,9,3,1,2021-08-06 14:06:21,957732
0,0,3,1,-7,-5,-3,0,2021-08-06 14:06:21,957732
-1,0,2,0,-3,0,1,0,2021-08-06 14:06:21,957732
0,-2,-2,-2,0,0,-2,-2,2021-08-06 14:06:21,957732
-1,-2,-3,-15,-15,-8,-5,-3,2021-08-06 14:06:21,973695
0,2,0,1,4,2,-2,2,2021-08-06 14:06:21,973695
-1,-1,-4,-4,-5,-3,1,0,2021-08-06 14:06:21,973695
-3,-3,-1,-7,-9,-7,-5,-4,2021-08-06 14:06:21,973695
0,2,4,3,0,0,0,0,2021-08-06 14:06:21,989730
3,2,1,3,9,6,3,2,2021-08-06 14:06:22,005725
-2,-6,-11,-11,-4,-6,-4,-4,2021-08-06 14:06:22,019735
-2,-4,-10,-14,-17,-8,-2,-1,2021-08-06 14:06:22,019735
-1,-1,2,5,5,4,3,0,2021-08-06 14:06:22,019735
2,3,4,5,5,2,0,2,2021-08-06 14:06:22,020743
1,2,9,9,9,7,1,0,2021-08-06 14:06:22,020743
0,2,2,8,13,7,1,1,2021-08-06 14:06:22,020743
-7,-6,-8,-19,-24,-15,-9,-6,2021-08-06 14:06:22,037736
5,5,6,8,16,10,5,4,2021-08-06 14:06:22,037736
1,1,0,8,7,2,1,0,2021-08-06 14:06:22,037736
-3,-3,-5,-8,1,1,-2,-5,2021-08-06 14:06:22,037736
0,-2,-1,-2,-4,-2,-1,0,2021-08-06 14:06:22,053731
-2,-2,-7,-11,-15,-10,-3,-3,2021-08-06 14:06:22,053731
0,-1,3,-1,-4,-4,-1,0,2021-08-06 14:06:22,053731
-1,-2,-3,0,-8,-4,-2,0,2021-08-06 14:06:22,053731
1,2,4,10,12,8,2,1,2021-08-06 14:06:22,069696
1,0,1,4,3,0,0,0,2021-08-06 14:06:22,085731
1,-2,-6,-3,2,2,0,1,2021-08-06 14:06:22,085731
-6,-4,-9,-19,-30,-18,-9,-4,2021-08-06 14:06:22,085731
-3,-2,-7,-20,-24,-9,-3,-2,2021-08-06 14:06:22,085731
2,4,10,23,27,13,3,1,2021-08-06 14:06:22,085731
1,4,12,14,10,6,1,0,2021-08-06 14:06:22,085731
0,0,-11,0,7,5,0,2,2021-08-06 14:06:22,085731
-3,-3,-4,-14,-8,-4,-3,-2,2021-08-06 14:06:22,117694
-4,-7,-11,-11,-13,-9,-5,-5,2021-08-06 14:06:22,133696
1,1,-1,-6,-6,-2,0,1,2021-08-06 14:06:22,149723
1,-1,10,7,9,2,-1,-2,2021-08-06 14:06:22,165746
2,2,-2,5,2,0,2,1,2021-08-06 14:06:22,181695
-2,-2,0,-2,-1,-1,-2,-3,2021-08-06 14:06:22,181695
2,4,11,17,11,4,1,1,2021-08-06 14:06:22,181695
5,4,10,11,7,7,6,4,2021-08-06 14:06:22,181695
-8,-16,-33,-39,-29,-19,-11,-8,2021-08-06 14:06:22,181695
-4,-9,-12,-17,-21,-12,-6,-5,2021-08-06 14:06:22,181695
-6,-5,-8,-9,-10,-5,-5,-5,2021-08-06 14:06:22,182697
5,10,15,22,25,15,8,5,2021-08-06 14:06:22,182697
5,8,18,25,22,12,6,4,2021-08-06 14:06:22,182697
-4,-4,-8,-14,-16,-11,-6,-6,2021-08-06 14:06:22,182697
2,1,1,8,6,3,2,3,2021-08-06 14:06:22,182697
1,0,4,10,11,5,2,2,2021-08-06 14:06:22,182697
0,1,3,3,3,-1,1,0,2021-08-06 14:06:22,182697
-3,-1,-5,-8,-12,-7,-3,-2,2021-08-06 14:06:22,182697
-1,-2,-2,-4,-4,-4,-3,-1,2021-08-06 14:06:22,182697
0,-2,2,-3,0,-2,-1,-1,2021-08-06 14:06:22,183698
-1,-2,3,1,-3,-1,-2,1,2021-08-06 14:06:22,212735
-2,-3,-16,-6,-7,-3,-4,0,2021-08-06 14:06:22,228737
-2,-4,-3,-2,2,1,0,0,2021-08-06 14:06:22,244696
-3,-4,-1,-2,2,3,-2,-1,2021-08-06 14:06:22,244696
1,3,10,5,1,-1,0,-1,2021-08-06 14:06:22,244696
0,0,5,3,1,1,2,0,2021-08-06 14:06:22,244696
-2,-4,-9,-9,-8,-5,-3,-3,2021-08-06 14:06:22,244696
0,3,2,-4,-4,-3,-1,0,2021-08-06 14:06:22,244696
2,0,-6,7,10,6,2,2,2021-08-06 14:06:22,244696
-3,-3,-2,-3,0,0,-1,-2,2021-08-06 14:06:22,244696
-2,2,8,-1,-5,-4,-4,-1,2021-08-06 14:06:22,245697
1,1,4,2,3,1,-1,0,2021-08-06 14:06:22,245697
-2,-4,-14,-3,-3,0,-2,-2,2021-08-06 14:06:22,276731
0,-2,-2,-4,-2,0,-1,0,2021-08-06 14:06:22,276731
-2,-2,-4,-2,-1,-2,-2,-1,2021-08-06 14:06:22,276731
-1,3,6,1,3,1,1,-2,2021-08-06 14:06:22,276731
-4,-1,4,-3,-3,-1,-2,-3,2021-08-06 14:06:22,308696
4,1,1,5,3,2,3,4,2021-08-06 14:06:22,323745
1,2,-2,-3,-6,-3,-2,0,2021-08-06 14:06:22,323745
-1,-2,-4,-6,-3,-2,-1,-2,2021-08-06 14:06:22,323745
0,-2,-6,0,-2,1,-1,-2,2021-08-06 14:06:22,323745
0,2,6,3,5,2,-1,-2,2021-08-06 14:06:22,323745
-3,-2,0,-1,-3,-3,-2,-3,2021-08-06 14:06:22,323745
0,-1,-5,2,1,-1,0,-1,2021-08-06 14:06:22,323745
0,-1,2,-1,-1,-1,-1,0,2021-08-06 14:06:22,339697
-1,0,4,-3,-5,-3,-1,-1,2021-08-06 14:06:22,354696
-3,-5,-6,-13,-18,-12,-5,-2,2021-08-06 14:06:22,354696
0,-2,-5,2,1,2,1,0,2021-08-06 14:06:22,354696
2,2,7,10,21,15,6,2,2021-08-06 14:06:22,354696
-1,0,3,2,2,2,0,0,2021-08-06 14:06:22,354696
-2,-1,-3,6,8,4,0,-4,2021-08-06 14:06:22,354696
-6,-4,-5,-5,-13,-9,-6,-5,2021-08-06 14:06:22,354696
-1,0,0,-6,-11,-10,-5,-1,2021-08-06 14:06:22,378693
2,4,2,0,-2,-3,-1,0,2021-08-06 14:06:22,379695
0,-1,-3,-1,0,3,2,1,2021-08-06 14:06:22,379695
2,1,4,0,2,-1,3,3,2021-08-06 14:06:22,384697
0,-2,2,-2,0,-1,0,-1,2021-08-06 14:06:22,400694
-3,-4,-13,-6,-5,-3,-3,-4,2021-08-06 14:06:22,400694
0,-1,1,0,5,2,0,0,2021-08-06 14:06:22,400694
1,-1,-4,-2,-7,-6,-3,-2,2021-08-06 14:06:22,400694
-1,1,0,-6,-8,-4,0,2,2021-08-06 14:06:22,416694
-3,-1,3,3,8,3,1,-2,2021-08-06 14:06:22,416694
-1,0,0,3,3,1,0,-3,2021-08-06 14:06:22,416694
-1,-2,-2,0,0,0,0,0,2021-08-06 14:06:22,416694
-2,-1,-2,-5,-11,-8,-2,1,2021-08-06 14:06:22,432695
1,2,5,-1,0,2,0,0,2021-08-06 14:06:22,432695
2,1,-1,5,8,5,2,2,2021-08-06 14:06:22,432695
-4,-3,-1,0,-2,0,-3,-3,2021-08-06 14:06:22,432695
-3,-3,-1,-1,0,-2,-2,-5,2021-08-06 14:06:22,447696
-2,-2,-5,-4,-5,-3,-2,-1,2021-08-06 14:06:22,447696
0,2,0,0,4,4,2,1,2021-08-06 14:06:22,447696
-2,-2,-3,-5,-6,-4,-1,-1,2021-08-06 14:06:22,447696
-1,-1,-2,2,6,1,1,0,2021-08-06 14:06:22,479695
0,1,4,3,1,3,0,1,2021-08-06 14:06:22,479695
-1,-1,0,-3,-6,-5,-1,-2,2021-08-06 14:06:22,479695
-1,-1,-2,0,2,0,1,-2,2021-08-06 14:06:22,479695
-1,1,-1,2,4,2,1,-1,2021-08-06 14:06:22,495723
-3,-4,-4,-4,-7,-6,-3,-3,2021-08-06 14:06:22,495723
-4,-4,-5,-9,-14,-12,-7,-4,2021-08-06 14:06:22,495723
5,5,7,14,23,19,9,7,2021-08-06 14:06:22,495723
2,0,-1,4,2,2,-1,0,2021-08-06 14:06:22,511696
-1,-1,-1,-2,-2,-2,-1,-3,2021-08-06 14:06:22,511696
-5,-3,-4,-5,-5,-5,-3,-4,2021-08-06 14:06:22,511696
-1,-2,-4,-6,-8,-7,-3,-3,2021-08-06 14:06:22,511696
1,0,-1,-10,-8,-4,-1,1,2021-08-06 14:06:22,543732
0,1,6,14,13,8,3,2,2021-08-06 14:06:22,543732
0,-1,0,4,3,2,-1,1,2021-08-06 14:06:22,543732
-2,-2,-3,-2,3,3,1,1,2021-08-06 14:06:22,543732
-1,2,2,2,-2,0,-1,-2,2021-08-06 14:06:22,543732
-2,-3,-5,-6,-8,-6,-2,-2,2021-08-06 14:06:22,543732
0,1,1,0,3,0,0,0,2021-08-06 14:06:22,543732
-5,-2,-3,-3,-5,-6,-2,-1,2021-08-06 14:06:22,544697
-2,-3,-2,-3,-4,-3,-5,-3,2021-08-06 14:06:22,575731
3,3,0,1,4,4,2,2,2021-08-06 14:06:22,591731
0,2,2,1,2,2,1,1,2021-08-06 14:06:22,591731
-3,-5,-5,-7,-6,-4,-4,-3,2021-08-06 14:06:22,591731
2,3,5,8,10,7,6,2,2021-08-06 14:06:22,591731
-2,-2,-2,-4,-6,-4,-3,-1,2021-08-06 14:06:22,591731
-1,-2,-1,-2,-3,-1,-1,-1,2021-08-06 14:06:22,591731
0,-1,-1,-1,-2,-1,0,-1,2021-08-06 14:06:22,591731
-4,-3,-3,0,0,0,-3,-1,2021-08-06 14:06:22,607693
-4,-5,-4,-9,-9,-6,-4,-3,2021-08-06 14:06:22,607693
2,3,0,3,3,3,1,1,2021-08-06 14:06:22,607693
1,1,1,3,5,3,0,-1,2021-08-06 14:06:22,607693
-2,-2,-1,2,0,-1,0,-2,2021-08-06 14:06:22,639693
2,1,1,1,0,0,1,1,2021-08-06 14:06:22,655722
-1,-3,-2,-3,-6,-4,-2,0,2021-08-06 14:06:22,671695
0,0,1,-1,2,0,1,0,2021-08-06 14:06:22,671695
0,-1,-1,-1,-3,-2,-2,-1,2021-08-06 14:06:22,671695
-2,-2,-1,-1,-2,0,-3,-2,2021-08-06 14:06:22,671695
0,-2,0,1,1,0,-2,-3,2021-08-06 14:06:22,671695
-1,-1,-3,-4,-9,-6,-1,0,2021-08-06 14:06:22,671695
2,1,4,9,16,7,3,2,2021-08-06 14:06:22,671695
0,-2,-1,0,-1,-1,0,0,2021-08-06 14:06:22,672696
-1,0,0,2,1,1,1,-1,2021-08-06 14:06:22,687696
-5,-4,-5,-5,-5,-4,-3,-3,2021-08-06 14:06:22,687696
1,2,0,-2,-4,-3,0,-1,2021-08-06 14:06:22,687696
-3,-2,-2,0,2,1,-1,-2,2021-08-06 14:06:22,687696
2,1,0,0,1,1,1,0,2021-08-06 14:06:22,703741
0,1,0,2,0,-2,-2,-1,2021-08-06 14:06:22,703741
-1,-2,-3,-3,-3,-2,-1,0,2021-08-06 14:06:22,719695
-2,-1,0,1,2,1,-1,-1,2021-08-06 14:06:22,735695
-2,-3,-2,-3,-5,-5,-2,-2,2021-08-06 14:06:22,736696
-4,-4,-5,-8,-10,-6,-6,-5,2021-08-06 14:06:22,736696
4,4,6,10,17,11,7,4,2021-08-06 14:06:22,736696
-1,1,0,1,0,-2,0,-1,2021-08-06 14:06:22,751744
-2,-2,-2,-3,-3,-2,0,-3,2021-08-06 14:06:22,751744
-1,-3,-1,-2,-2,-4,-4,-2,2021-08-06 14:06:22,751744
-2,-2,-4,-10,-13,-7,-4,-2,2021-08-06 14:06:22,751744
1,0,0,2,3,2,0,0,2021-08-06 14:06:22,751744
1,2,3,2,0,1,0,0,2021-08-06 14:06:22,767699
0,-1,2,2,5,1,0,-1,2021-08-06 14:06:22,767699
-3,-3,-4,-6,-10,-6,-2,-3,2021-08-06 14:06:22,767699
-1,-3,-5,-6,-6,-5,-2,-1,2021-08-06 14:06:22,767699
-1,-2,-1,-2,0,1,0,0,2021-08-06 14:06:22,783694
1,0,2,4,4,8,0,-2,2021-08-06 14:06:22,783694
4,2,-1,-1,-2,-1,4,4,2021-08-06 14:06:22,799694
-8,-5,-8,-12,-16,-17,-11,-10,2021-08-06 14:06:22,799694
-1,0,1,5,15,5,-1,0,2021-08-06 14:06:22,799694
-1,1,-1,-3,-9,-5,-3,-1,2021-08-06 14:06:22,799694
-4,-3,-2,2,6,5,-3,-7,2021-08-06 14:06:22,815729
-2,-3,1,8,12,10,7,3,2021-08-06 14:06:22,831729
-1,-1,-2,-5,-9,-6,0,0,2021-08-06 14:06:22,831729
-8,-11,-5,4,8,2,-2,-5,2021-08-06 14:06:22,831729
-2,-2,-2,-4,-11,-9,-8,-1,2021-08-06 14:06:22,831729
0,1,0,-1,-6,-4,-2,-1,2021-08-06 14:06:22,831729
-2,-3,-4,-6,-4,-4,-4,-3,2021-08-06 14:06:22,831729
4,4,3,5,3,4,4,3,2021-08-06 14:06:22,831729
-2,-1,-2,1,-2,-3,-1,-3,2021-08-06 14:06:22,847698
2,2,1,2,1,1,0,0,2021-08-06 14:06:22,863733
-1,-1,-2,-3,-4,-2,-1,-1,2021-08-06 14:06:22,879696
0,1,-2,-9,-11,-6,-2,0,2021-08-06 14:06:22,895695
1,2,1,0,4,4,2,1,2021-08-06 14:06:22,895695
0,1,1,4,11,4,1,-1,2021-08-06 14:06:22,895695
1,0,-1,0,-3,0,1,0,2021-08-06 14:06:22,895695
2,1,2,2,4,2,0,2,2021-08-06 14:06:22,895695
-1,-2,-4,-3,-6,-4,-3,-4,2021-08-06 14:06:22,895695
1,-2,-3,-5,-8,-6,-3,-2,2021-08-06 14:06:22,895695
-1,-2,-2,-1,-4,-2,-2,-2,2021-08-06 14:06:22,895695
0,2,2,-1,3,2,1,0,2021-08-06 14:06:22,895695
-3,-4,-3,-2,0,0,-2,-3,2021-08-06 14:06:22,911694
0,0,0,0,0,-1,-1,0,2021-08-06 14:06:22,911694
1,1,2,-1,-3,-2,-1,0,2021-08-06 14:06:22,911694
-1,0,-1,-2,0,-2,-1,-2,2021-08-06 14:06:22,911694
-2,-3,-2,-2,-3,-1,-2,0,2021-08-06 14:06:22,927734
0,-2,-5,-7,-10,-5,-1,1,2021-08-06 14:06:22,943695
-2,-2,-1,1,8,3,1,0,2021-08-06 14:06:22,943695
0,0,2,5,2,1,1,0,2021-08-06 14:06:22,943695
-1,-1,-3,-3,-4,-5,-3,-2,2021-08-06 14:06:22,943695
0,0,2,3,1,4,2,0,2021-08-06 14:06:22,943695
0,-1,-1,0,-3,-1,-2,0,2021-08-06 14:06:22,959694
-3,-3,-1,-2,-3,-1,-1,0,2021-08-06 14:06:22,959694
-5,-3,-2,-1,2,-3,-2,-3,2021-08-06 14:06:22,975696
-3,-4,-4,-8,-6,-4,-4,-4,2021-08-06 14:06:22,991736
2,3,4,1,2,0,1,-2,2021-08-06 14:06:23,007696
-2,-2,-3,-2,-4,-3,0,0,2021-08-06 14:06:23,007696
-3,-4,-3,-5,-12,-8,-4,-5,2021-08-06 14:06:23,007696
2,4,2,5,10,8,5,4,2021-08-06 14:06:23,007696
-3,-2,-3,-3,0,0,-1,0,2021-08-06 14:06:23,007696
0,-1,-2,0,3,3,1,0,2021-08-06 14:06:23,007696
-2,-2,-2,-4,-7,-3,-3,-1,2021-08-06 14:06:23,039731
2,-1,2,-2,-3,-1,2,2,2021-08-06 14:06:23,055720
-1,0,-1,5,5,3,0,-3,2021-08-06 14:06:23,071697
-3,-3,-2,0,-1,-4,-3,-3,2021-08-06 14:06:23,071697
2,-1,1,1,3,3,4,3,2021-08-06 14:06:23,071697
-1,-2,-3,-2,-3,-3,-1,-4,2021-08-06 14:06:23,071697
-3,-3,-5,-5,-6,-4,-3,-2,2021-08-06 14:06:23,071697
3,3,4,5,5,5,2,3,2021-08-06 14:06:23,071697
2,0,2,1,3,2,1,1,2021-08-06 14:06:23,071697
-3,-2,0,1,-2,-1,-4,-3,2021-08-06 14:06:23,071697
-3,-6,-4,-4,-8,-4,-3,-5,2021-08-06 14:06:23,071697
-2,0,-2,-3,0,0,1,-1,2021-08-06 14:06:23,071697
1,0,1,4,6,5,2,0,2021-08-06 14:06:23,072696
0,0,0,3,1,-1,1,0,2021-08-06 14:06:23,072696
0,1,-2,-2,0,-3,-1,0,2021-08-06 14:06:23,072696
0,-1,-3,-2,0,0,1,-1,2021-08-06 14:06:23,072696
-2,1,-1,-1,-2,-1,-3,0,2021-08-06 14:06:23,086693
2,0,1,-1,1,2,0,0,2021-08-06 14:06:23,096697
-2,-2,0,0,-3,-1,-2,-1,2021-08-06 14:06:23,096697
-1,0,0,-1,-2,-4,-3,-1,2021-08-06 14:06:23,097697
0,-2,-2,-1,1,1,1,-1,2021-08-06 14:06:23,116742
-1,-1,-2,-2,-2,-2,-2,-2,2021-08-06 14:06:23,116742
1,-3,-1,0,-3,0,-1,-1,2021-08-06 14:06:23,116742
0,-2,-3,-3,-3,1,0,-1,2021-08-06 14:06:23,116742
-1,-1,-1,0,-3,-1,-3,-2,2021-08-06 14:06:23,131694
0,1,0,0,1,2,1,2,2021-08-06 14:06:23,131694
0,-2,-1,4,5,3,6,4,2021-08-06 14:06:23,131694
-1,-2,-3,-5,-3,-2,-1,-2,2021-08-06 14:06:23,131694
-1,2,1,2,1,-1,-3,-2,2021-08-06 14:06:23,146694
-1,0,-1,-1,1,0,1,0,2021-08-06 14:06:23,146694
-1,0,0,-1,-2,-1,1,-1,2021-08-06 14:06:23,162697
0,-1,-1,-1,-1,-1,-1,0,2021-08-06 14:06:23,178694
-1,-3,-2,-3,-4,-3,-1,0,2021-08-06 14:06:23,194697
-3,-5,-1,-1,-4,-3,-4,-3,2021-08-06 14:06:23,194697
0,1,1,-2,-2,-1,-2,0,2021-08-06 14:06:23,194697
0,0,0,-1,0,0,0,0,2021-08-06 14:06:23,194697
1,-2,-3,-2,0,0,2,0,2021-08-06 14:06:23,194697
-3,-2,-5,-3,-3,-1,-1,-1,2021-08-06 14:06:23,194697
0,-1,1,2,3,4,1,1,2021-08-06 14:06:23,194697
-1,1,3,3,-2,-1,-2,-2,2021-08-06 14:06:23,194697
-4,-2,-5,0,-2,-2,-1,-3,2021-08-06 14:06:23,210695
-4,-4,-2,1,0,-1,-2,-2,2021-08-06 14:06:23,226727
-3,-1,-1,-4,-3,-3,-3,-5,2021-08-06 14:06:23,242697
0,-3,-6,-1,-3,-1,-2,-1,2021-08-06 14:06:23,242697
5,3,5,2,4,3,1,3,2021-08-06 14:06:23,242697
1,0,-3,-4,-4,-2,2,1,2021-08-06 14:06:23,242697
1,3,1,1,1,1,0,-1,2021-08-06 14:06:23,242697
-2,-2,0,1,0,-2,-2,-1,2021-08-06 14:06:23,242697
-3,-4,0,-8,-10,-6,-3,-2,2021-08-06 14:06:23,242697
-1,-3,-11,-4,3,2,0,-1,2021-08-06 14:06:23,242697
0,0,1,-3,-1,-1,0,1,2021-08-06 14:06:23,258694
0,3,5,4,1,2,0,-1,2021-08-06 14:06:23,258694
-2,-4,-9,-2,-1,-1,-1,-2,2021-08-06 14:06:23,274743
-1,-1,0,-4,-4,-3,-2,-2,2021-08-06 14:06:23,290741
2,-2,-4,0,0,1,0,0,2021-08-06 14:06:23,290741
-3,-3,-1,-2,0,-1,-2,-4,2021-08-06 14:06:23,290741
2,3,12,6,3,2,3,0,2021-08-06 14:06:23,290741
-2,0,0,-1,-5,-4,-4,-3,2021-08-06 14:06:23,290741
-1,-3,-9,-3,-5,-1,0,0,2021-08-06 14:06:23,290741
-2,0,-2,-14,-13,-10,-4,-1,2021-08-06 14:06:23,290741
0,2,0,5,11,6,1,1,2021-08-06 14:06:23,306729
0,1,6,5,11,6,3,2,2021-08-06 14:06:23,306729
-4,-4,-3,-7,-9,-9,-5,-3,2021-08-06 14:06:23,322695
1,-2,-8,-3,-3,-3,0,-1,2021-08-06 14:06:23,338735
-1,1,1,3,4,3,-1,-1,2021-08-06 14:06:23,338735
2,4,11,10,5,3,1,0,2021-08-06 14:06:23,338735
3,8,15,11,12,7,4,1,2021-08-06 14:06:23,338735
-2,-11,-16,-6,0,0,-1,-2,2021-08-06 14:06:23,338735
-7,-10,-18,-25,-29,-17,-8,-6,2021-08-06 14:06:23,354696
-3,-6,-17,-12,-10,-6,-3,0,2021-08-06 14:06:23,369732
-2,-3,0,-1,-1,-1,-1,-1,2021-08-06 14:06:23,385695
3,8,12,10,8,5,2,1,2021-08-06 14:06:23,385695
2,4,8,12,14,7,4,0,2021-08-06 14:06:23,385695
0,2,6,3,3,1,1,-1,2021-08-06 14:06:23,385695
1,2,-1,-2,-4,0,1,2,2021-08-06 14:06:23,385695
-2,-3,-6,-4,-6,-5,-3,-2,2021-08-06 14:06:23,385695
-2,-4,-3,-5,-8,-5,-6,-2,2021-08-06 14:06:23,385695
1,-1,-3,-2,-2,-2,-4,-1,2021-08-06 14:06:23,385695
-1,0,-1,3,6,4,2,0,2021-08-06 14:06:23,400695
0,-1,1,5,5,2,3,3,2021-08-06 14:06:23,415733
-1,1,0,-2,-2,-3,-1,0,2021-08-06 14:06:23,431721
-3,-2,-2,-3,-8,-7,-4,-3,2021-08-06 14:06:23,431721
-2,-3,-2,-1,3,0,-1,-1,2021-08-06 14:06:23,431721
-4,-3,-2,-3,-3,0,-2,-3,2021-08-06 14:06:23,431721
4,3,0,3,2,1,3,4,2021-08-06 14:06:23,431721
1,2,3,2,3,2,2,0,2021-08-06 14:06:23,431721
-1,-4,-1,-4,-7,-2,-2,-2,2021-08-06 14:06:23,431721
0,1,1,-1,-2,-3,-1,-2,2021-08-06 14:06:23,431721
-3,-3,-4,-2,0,-3,-2,-2,2021-08-06 14:06:23,446694
-1,0,2,0,-1,-1,0,1,2021-08-06 14:06:23,460731
2,0,-2,2,0,1,0,2,2021-08-06 14:06:23,461742
1,0,-1,0,1,0,0,0,2021-08-06 14:06:23,461742
-4,-3,-2,-1,-1,0,-1,-1,2021-08-06 14:06:23,477734
0,2,2,0,-3,-3,0,-1,2021-08-06 14:06:23,493730
-4,-2,-3,-6,-5,-3,-3,-1,2021-08-06 14:06:23,493730
0,2,1,2,5,3,0,1,2021-08-06 14:06:23,493730
1,1,1,-2,1,3,2,0,2021-08-06 14:06:23,493730
-3,-2,-1,-1,0,-1,-1,-2,2021-08-06 14:06:23,493730
-1,-2,-3,-1,-4,-4,-2,-2,2021-08-06 14:06:23,493730
-1,-1,-1,-2,-7,-5,-2,-3,2021-08-06 14:06:23,493730
1,1,0,0,-4,-2,-2,-1,2021-08-06 14:06:23,509698
-1,-1,-1,0,0,0,-3,-2,2021-08-06 14:06:23,525696
-1,-1,-1,2,1,1,-1,-1,2021-08-06 14:06:23,541733
0,-1,2,0,3,2,4,1,2021-08-06 14:06:23,541733
0,-1,0,-3,-2,-3,-1,1,2021-08-06 14:06:23,541733
0,-6,-6,-3,-7,-3,-1,-2,2021-08-06 14:06:23,541733
0,-1,2,1,-1,-1,0,0,2021-08-06 14:06:23,541733
-2,-1,-2,1,0,1,0,-3,2021-08-06 14:06:23,541733
-1,0,-1,1,3,1,-1,-2,2021-08-06 14:06:23,541733
0,1,3,-1,1,0,1,1,2021-08-06 14:06:23,541733
-3,0,-2,-5,-5,-3,-3,-2,2021-08-06 14:06:23,557698
-1,0,2,5,7,3,1,0,2021-08-06 14:06:23,573699
1,-2,-1,0,0,1,0,-1,2021-08-06 14:06:23,605737
0,-1,-2,-2,-3,-4,-2,-2,2021-08-06 14:06:23,605737
0,-2,-2,1,-1,-1,0,-2,2021-08-06 14:06:23,605737
-1,0,-2,-3,0,-3,-1,0,2021-08-06 14:06:23,605737
-1,1,0,2,2,0,2,0,2021-08-06 14:06:23,605737
-3,-2,0,2,5,3,1,1,2021-08-06 14:06:23,605737
0,1,-1,-2,-2,-1,-1,-2,2021-08-06 14:06:23,605737
1,-1,-3,-2,-6,-4,-3,0,2021-08-06 14:06:23,605737
-4,-3,-1,-3,-3,-2,-3,-4,2021-08-06 14:06:23,606739
0,0,1,0,-3,-2,-1,0,2021-08-06 14:06:23,606739
3,2,0,2,5,4,3,1,2021-08-06 14:06:23,606739
0,-1,-2,-3,-3,-1,0,0,2021-08-06 14:06:23,606739
0,-2,-1,-1,-2,-3,-2,-1,2021-08-06 14:06:23,621694
-3,-3,-3,-2,0,0,-1,0,2021-08-06 14:06:23,621694
-2,-3,-2,0,-2,-1,-2,-1,2021-08-06 14:06:23,637693
0,1,1,1,-2,0,-1,0,2021-08-06 14:06:23,637693
0,-1,1,4,3,3,0,0,2021-08-06 14:06:23,653693
0,1,-2,-1,-1,0,0,0,2021-08-06 14:06:23,653693
-2,-1,-2,-3,0,-3,-2,0,2021-08-06 14:06:23,653693
-3,-2,-3,-5,-5,-4,-2,-1,2021-08-06 14:06:23,653693
-2,-2,-4,-4,-5,-3,-2,-1,2021-08-06 14:06:23,669732
2,2,2,6,11,5,2,1,2021-08-06 14:06:23,669732
-1,-2,-1,1,-2,-3,-2,0,2021-08-06 14:06:23,669732
-1,0,0,-1,-4,-2,-2,0,2021-08-06 14:06:23,669732
-1,-1,-2,-2,-3,-3,-3,0,2021-08-06 14:06:23,701694
0,-3,-3,-2,-3,-2,-1,0,2021-08-06 14:06:23,717695
1,-1,0,0,-1,-3,-1,-2,2021-08-06 14:06:23,733695
-2,-2,-1,-2,-2,1,0,0,2021-08-06 14:06:23,733695
0,-1,-1,-1,0,0,0,-1,2021-08-06 14:06:23,733695
-1,-1,-2,-3,-2,-1,0,-2,2021-08-06 14:06:23,733695
-1,-2,1,2,3,1,0,-2,2021-08-06 14:06:23,733695
1,2,7,14,11,7,2,1,2021-08-06 14:06:23,749720
0,-1,-2,-7,-2,-1,2,-1,2021-08-06 14:06:23,764723
-6,-7,-13,-18,-21,-14,-7,-5,2021-08-06 14:06:23,779758
-3,-7,-6,-12,-13,-10,-4,-3,2021-08-06 14:06:23,795722
0,1,3,6,5,2,1,-2,2021-08-06 14:06:23,795722
1,4,7,17,12,7,3,2,2021-08-06 14:06:23,795722
3,3,2,3,8,7,3,2,2021-08-06 14:06:23,795722
-1,-1,0,-10,-6,-2,-2,-1,2021-08-06 14:06:23,795722
-2,-2,-6,-13,-7,-5,-3,-2,2021-08-06 14:06:23,795722
-3,-1,-1,4,0,0,-1,0,2021-08-06 14:06:23,795722
-2,-1,-1,4,0,-1,-1,-1,2021-08-06 14:06:23,795722
0,-2,-4,-1,1,0,-1,0,2021-08-06 14:06:23,795722
2,1,3,1,1,1,1,2,2021-08-06 14:06:23,795722
-1,-2,-1,-4,-5,-4,-2,-2,2021-08-06 14:06:23,796721
0,0,0,4,0,-2,-1,1,2021-08-06 14:06:23,796721
-2,0,1,2,3,3,0,-2,2021-08-06 14:06:23,796721
-1,-3,-5,-4,-4,-4,-3,-2,2021-08-06 14:06:23,796721
0,-1,-3,-4,-3,-3,-3,0,2021-08-06 14:06:23,826758
-2,-1,3,0,-1,1,-1,-1,2021-08-06 14:06:23,829722
-2,1,-1,0,1,1,1,0,2021-08-06 14:06:23,830757
2,-1,0,0,1,-1,-1,0,2021-08-06 14:06:23,830757
-2,-1,-2,-2,-3,-1,0,-1,2021-08-06 14:06:23,841775
-2,0,-1,-3,-3,-3,-2,0,2021-08-06 14:06:23,841775
1,-1,0,0,1,0,0,-1,2021-08-06 14:06:23,841775
-2,-2,-2,2,-4,0,0,-2,2021-08-06 14:06:23,841775
-3,0,0,-1,0,-2,0,1,2021-08-06 14:06:23,873749
0,1,0,-6,1,3,0,0,2021-08-06 14:06:23,889757
-2,-1,0,-3,-4,-4,-2,-1,2021-08-06 14:06:23,889757
-1,-2,-6,-3,-4,-1,-2,-2,2021-08-06 14:06:23,889757
0,-2,-5,-5,-2,0,-1,-2,2021-08-06 14:06:23,889757
-1,-1,1,3,1,-2,-1,-1,2021-08-06 14:06:23,889757
1,0,1,4,3,3,1,1,2021-08-06 14:06:23,889757
-1,-1,1,-2,-1,-1,1,1,2021-08-06 14:06:23,889757
0,-1,-2,-4,-2,0,-1,-2,2021-08-06 14:06:23,905761
-2,-2,0,-1,-2,-4,-1,-2,2021-08-06 14:06:23,921758
0,2,3,1,-1,-1,-1,1,2021-08-06 14:06:23,921758
-1,-1,1,0,0,-1,-1,1,2021-08-06 14:06:23,921758
0,-3,-1,0,0,-1,-1,-1,2021-08-06 14:06:23,921758
-1,-3,-2,1,1,0,-1,-1,2021-08-06 14:06:23,921758
-3,-2,-2,5,2,-1,0,-2,2021-08-06 14:06:23,921758
1,2,0,-2,-1,-1,1,1,2021-08-06 14:06:23,921758
-2,0,-2,-11,-5,-2,-1,-1,2021-08-06 14:06:23,937748
-1,-3,-1,-3,-3,-2,-1,-2,2021-08-06 14:06:23,953769
-2,0,-2,-1,1,0,0,1,2021-08-06 14:06:23,985314
-2,-2,0,2,-1,-1,-1,-2,2021-08-06 14:06:24,001313
0,-1,0,1,1,0,-1,-1,2021-08-06 14:06:24,017315
0,0,0,-1,0,-1,1,-1,2021-08-06 14:06:24,033316
-1,-2,-3,0,0,0,0,0,2021-08-06 14:06:24,033316
-1,-1,-1,1,1,-1,0,0,2021-08-06 14:06:24,033316
-1,-1,1,1,-3,-1,-1,0,2021-08-06 14:06:24,033316
0,-1,-1,1,3,1,1,-1,2021-08-06 14:06:24,033316
-1,0,0,0,1,0,0,0,2021-08-06 14:06:24,033316
1,-2,-2,-2,-1,-1,-1,-2,2021-08-06 14:06:24,033316
-1,-1,0,-1,-1,-1,-2,-1,2021-08-06 14:06:24,033316
-1,0,-1,-3,-2,0,-1,0,2021-08-06 14:06:24,033316
1,0,-1,-1,-2,0,0,-1,2021-08-06 14:06:24,033316
0,0,-1,-7,1,1,1,1,2021-08-06 14:06:24,034315
-1,-2,-2,-1,-2,0,-1,0,2021-08-06 14:06:24,034315
-2,-1,-1,1,1,1,0,-1,2021-08-06 14:06:24,034315
-1,-4,0,-1,0,1,-1,0,2021-08-06 14:06:24,034315
-2,-1,0,3,-1,-1,-2,-5,2021-08-06 14:06:24,034315
-1,0,0,0,1,0,0,0,2021-08-06 14:06:24,049313
-1,0,2,1,-2,-2,-2,0,2021-08-06 14:06:24,065363
0,0,0,0,0,-3,-2,-1,2021-08-06 14:06:24,081351
-2,1,-2,-1,-3,-2,-3,0,2021-08-06 14:06:24,081351
0,0,0,-2,0,1,1,0,2021-08-06 14:06:24,081351
0,-1,-3,0,0,1,0,0,2021-08-06 14:06:24,081351
0,-1,-2,-2,-2,1,0,-2,2021-08-06 14:06:24,081351
-3,-1,-2,-3,0,-1,0,-2,2021-08-06 14:06:24,081351
1,-1,0,1,0,-1,-1,1,2021-08-06 14:06:24,081351
1,-1,-1,-1,-2,-2,-3,-1,2021-08-06 14:06:24,081351
1,0,-2,-3,-1,-2,0,-1,2021-08-06 14:06:24,082350
-2,-3,0,0,-2,-2,0,-2,2021-08-06 14:06:24,082350
-1,-2,0,1,-1,-1,-1,-2,2021-08-06 14:06:24,113316
-3,-3,-1,-1,0,0,-2,-3,2021-08-06 14:06:24,113316
-1,1,1,0,0,-3,-1,0,2021-08-06 14:06:24,113316
-1,-1,-1,0,0,0,-1,-2,2021-08-06 14:06:24,113316
0,2,0,-1,-1,-2,-1,-1,2021-08-06 14:06:24,113316
0,-2,-1,-1,-1,-1,-1,-1,2021-08-06 14:06:24,114314
0,-1,0,-2,-1,0,-2,-1,2021-08-06 14:06:24,129315
-1,0,-3,-2,-1,0,-1,-1,2021-08-06 14:06:24,129315
-1,-2,0,0,0,-1,-1,-2,2021-08-06 14:06:24,145364
-1,-1,-2,-2,-1,-1,0,-1,2021-08-06 14:06:24,161316
-2,0,-2,-1,-1,-1,-1,0,2021-08-06 14:06:24,161316
0,-1,-2,-2,-2,0,-1,0,2021-08-06 14:06:24,161316
0,-1,-1,0,-1,-2,-2,-1,2021-08-06 14:06:24,161316
-1,0,0,-1,-1,-1,0,-1,2021-08-06 14:06:24,161316
-1,-2,-1,-1,-1,-2,0,-2,2021-08-06 14:06:24,161316
0,-1,-2,-2,-1,0,0,-1,2021-08-06 14:06:24,161316
-1,0,-1,0,-3,-1,-1,0,2021-08-06 14:06:24,177350
-1,0,-1,0,-1,-3,-1,-1,2021-08-06 14:06:24,190350
0,-1,-1,-1,-1,2,-2,1,2021-08-06 14:06:24,191351
-1,-1,-1,-1,-1,0,-1,0,2021-08-06 14:06:24,191351
-1,-2,-2,-1,0,-1,1,-3,2021-08-06 14:06:24,209318
-2,-2,0,-1,0,0,0,-1,2021-08-06 14:06:24,225315
-2,-1,-2,0,-1,-1,-1,-1,2021-08-06 14:06:24,240339
1,-1,-1,0,-2,-1,0,-1,2021-08-06 14:06:24,240339
-1,-2,-2,-1,-1,-1,-2,0,2021-08-06 14:06:24,240339
0,0,-1,-1,-2,-2,-1,0,2021-08-06 14:06:24,240339
-2,-1,0,-1,0,-1,-1,-1,2021-08-06 14:06:24,240339
0,-1,0,-1,0,-2,0,0,2021-08-06 14:06:24,240339
-2,0,-1,-2,0,0,-1,0,2021-08-06 14:06:24,240339
0,0,-2,0,0,0,-2,0,2021-08-06 14:06:24,241350
0,-2,-3,-1,-1,-1,0,-1,2021-08-06 14:06:24,241350
-1,0,-1,0,0,-3,0,0,2021-08-06 14:06:24,241350
0,0,-1,-1,-2,1,1,-2,2021-08-06 14:06:24,271315
-1,0,-2,-1,1,-1,-1,0,2021-08-06 14:06:24,271315
1,0,0,-1,-2,-1,-3,0,2021-08-06 14:06:24,271315
-1,-1,-1,1,1,0,-1,0,2021-08-06 14:06:24,271315
0,0,-2,0,-1,0,1,-1,2021-08-06 14:06:24,287312
0,0,0,-1,0,0,0,-1,2021-08-06 14:06:24,303341
0,-1,-1,-1,1,-1,0,-1,2021-08-06 14:06:24,319355
0,-2,-1,-3,-2,-2,0,-1,2021-08-06 14:06:24,319355
-1,-1,0,0,-1,-2,0,0,2021-08-06 14:06:24,319355
0,-3,-2,0,1,0,-1,-2,2021-08-06 14:06:24,319355
-3,-3,-1,0,0,-1,0,-2,2021-08-06 14:06:24,319355
-1,-1,-2,0,-2,0,-1,-2,2021-08-06 14:06:24,319355
0,0,-1,0,0,0,-1,-1,2021-08-06 14:06:24,319355
0,-1,1,-3,0,-1,0,-2,2021-08-06 14:06:24,320353
-1,0,-1,-1,-1,-1,-1,-1,2021-08-06 14:06:24,320353
-1,-2,-1,-1,0,0,-2,-1,2021-08-06 14:06:24,320353
-3,1,-1,-2,-1,-1,-1,-1,2021-08-06 14:06:24,351314
-2,0,-1,0,-3,-2,-1,0,2021-08-06 14:06:24,367313
1,0,0,-1,-1,-1,0,0,2021-08-06 14:06:24,367313
-1,-1,1,0,-2,-1,0,-2,2021-08-06 14:06:24,367313
0,0,0,-1,1,-1,-1,0,2021-08-06 14:06:24,367313
-1,0,-1,-1,-1,0,-1,0,2021-08-06 14:06:24,367313
0,-1,-2,0,-1,-1,-1,-1,2021-08-06 14:06:24,367313
0,0,0,-1,0,-1,-2,-1,2021-08-06 14:06:24,367313
1,-1,1,0,1,1,-2,0,2021-08-06 14:06:24,383313
-2,0,-2,-2,-1,-1,0,-1,2021-08-06 14:06:24,398314
-1,0,-1,-3,0,-1,-1,-1,2021-08-06 14:06:24,398314
-1,-1,-3,-2,-1,0,-1,-1,2021-08-06 14:06:24,398314
1,-3,-1,-1,-1,-1,0,-1,2021-08-06 14:06:24,398314
-1,-2,-2,0,-1,-1,-2,-2,2021-08-06 14:06:24,398314
0,-1,-1,0,-1,0,0,0,2021-08-06 14:06:24,398314
0,-1,1,-1,-2,-2,1,0,2021-08-06 14:06:24,398314
-1,0,-1,0,-1,-3,0,-1,2021-08-06 14:06:24,428314
0,-3,-2,-2,0,0,0,-1,2021-08-06 14:06:24,443314
-2,-2,0,0,-2,-1,-1,-3,2021-08-06 14:06:24,459314
1,-1,0,-2,1,-1,-2,-1,2021-08-06 14:06:24,459314
-3,0,-1,-1,-1,0,-2,-1,2021-08-06 14:06:24,459314
0,-1,0,0,-1,1,-2,0,2021-08-06 14:06:24,459314
-1,0,0,0,-1,0,0,-1,2021-08-06 14:06:24,459314
-1,-2,0,-3,0,0,-2,-1,2021-08-06 14:06:24,459314
-2,-2,-2,-1,-1,-2,-1,-2,2021-08-06 14:06:24,459314
0,-1,-2,-3,-3,0,-1,-1,2021-08-06 14:06:24,460315
-3,-2,-1,0,-1,-1,-1,0,2021-08-06 14:06:24,460315
-2,0,0,-1,-2,-1,-1,-1,2021-08-06 14:06:24,460315
-2,0,0,0,-1,-1,0,-1,2021-08-06 14:06:24,475316
-1,-2,-1,0,-3,-1,-2,-1,2021-08-06 14:06:24,475316
-2,-1,-1,-2,-2,-2,1,-1,2021-08-06 14:06:24,507317
-2,-2,-3,1,0,-1,-2,-1,2021-08-06 14:06:24,507317
1,0,-2,-2,-1,-1,0,0,2021-08-06 14:06:24,507317
-1,-1,0,1,1,-2,-1,0,2021-08-06 14:06:24,507317
-2,-2,-2,-2,-3,0,-1,0,2021-08-06 14:06:24,507317
-1,0,-1,1,0,1,0,-1,2021-08-06 14:06:24,507317
-1,-3,-1,-1,-1,-1,-1,0,2021-08-06 14:06:24,537313
-1,0,-1,1,-1,-2,-1,0,2021-08-06 14:06:24,537313
0,-1,0,-2,0,-1,0,-1,2021-08-06 14:06:24,537313
-2,0,-3,1,-2,-2,1,0,2021-08-06 14:06:24,537313
-1,-1,1,-3,0,0,-3,-1,2021-08-06 14:06:24,537313
0,-2,-1,-1,-2,-2,-1,1,2021-08-06 14:06:24,537313
-1,1,0,1,0,-1,-2,0,2021-08-06 14:06:24,537313
-1,-1,-1,-2,0,-2,-2,-2,2021-08-06 14:06:24,537313
-1,-2,-3,1,-2,-1,-2,-2,2021-08-06 14:06:24,553352
-2,-2,0,-1,-2,-3,-2,-2,2021-08-06 14:06:24,553352
2,1,0,0,0,0,1,1,2021-08-06 14:06:24,569355
0,-1,1,-1,-1,-1,0,-2,2021-08-06 14:06:24,585339
-1,0,-1,0,0,0,1,-1,2021-08-06 14:06:24,601351
0,-2,-1,-1,-1,-1,-1,-2,2021-08-06 14:06:24,601351
-1,-2,-2,-1,-1,-1,-4,-2,2021-08-06 14:06:24,601351
-1,0,0,-1,-1,-1,-2,0,2021-08-06 14:06:24,601351
-1,0,-1,-1,-1,-1,-1,-1,2021-08-06 14:06:24,601351
0,0,-1,-2,-2,-1,0,1,2021-08-06 14:06:24,601351
-1,-2,-2,0,-1,-1,-1,-1,2021-08-06 14:06:24,601351
-1,-1,-2,0,0,1,0,-1,2021-08-06 14:06:24,601351
1,-1,-1,0,-1,0,0,-2,2021-08-06 14:06:24,632313
-1,-1,-1,0,0,0,0,0,2021-08-06 14:06:24,647314
-1,0,-1,-1,1,-1,-1,0,2021-08-06 14:06:24,663315
-2,-2,0,-1,0,-1,-1,-1,2021-08-06 14:06:24,663315
-2,-2,-2,1,0,-1,-1,-1,2021-08-06 14:06:24,663315
-1,-1,0,-1,-1,-1,0,0,2021-08-06 14:06:24,663315
-1,0,-1,-2,-1,0,0,0,2021-08-06 14:06:24,663315
-2,0,-1,-1,0,-2,-1,-1,2021-08-06 14:06:24,663315
-1,-1,0,-2,0,-3,-3,-2,2021-08-06 14:06:24,663315
-1,0,0,-2,1,0,0,-3,2021-08-06 14:06:24,663315
-1,-1,-2,-2,-1,0,-1,-2,2021-08-06 14:06:24,664352
0,-1,-2,-1,-2,1,-1,-1,2021-08-06 14:06:24,664352
-1,-1,-1,-2,0,-1,-2,1,2021-08-06 14:06:24,679315
-2,-1,0,0,-1,0,-2,-1,2021-08-06 14:06:24,679315
-1,-1,0,0,-1,0,0,-1,2021-08-06 14:06:24,679315
0,-1,1,0,-2,-1,-3,0,2021-08-06 14:06:24,679315
-3,-1,0,-2,-1,0,0,1,2021-08-06 14:06:24,710314
-1,-2,-1,0,-1,-1,0,-2,2021-08-06 14:06:24,726352
-1,-1,-1,-3,-1,-2,1,-2,2021-08-06 14:06:24,757341
1,0,-1,-1,-1,-2,0,-2,2021-08-06 14:06:24,773313
-1,-2,-1,-1,-3,-1,-1,-1,2021-08-06 14:06:24,789351
-2,-1,-3,-2,-1,1,-2,0,2021-08-06 14:06:24,805351
0,-1,1,0,0,0,-1,0,2021-08-06 14:06:24,805351
-1,0,-1,-1,0,-1,-1,-2,2021-08-06 14:06:24,805351
0,0,-1,1,-1,-1,1,0,2021-08-06 14:06:24,805351
-1,-1,0,-1,1,0,1,0,2021-08-06 14:06:24,805351
-1,-1,-1,-1,-3,0,-1,-1,2021-08-06 14:06:24,805351
-1,-1,-1,0,0,-1,-1,-1,2021-08-06 14:06:24,805351
1,0,0,-1,-1,-2,-1,0,2021-08-06 14:06:24,806350
0,0,-1,0,0,-1,-1,-1,2021-08-06 14:06:24,806350
-2,-1,-1,-1,-1,0,-2,-2,2021-08-06 14:06:24,806350
-2,0,-1,-2,-2,0,0,0,2021-08-06 14:06:24,806350
-3,0,-1,0,-2,0,-3,-2,2021-08-06 14:06:24,806350
-1,0,0,-1,-2,-1,-2,-1,2021-08-06 14:06:24,806350
0,-2,-1,1,0,0,-1,-1,2021-08-06 14:06:24,806350
-1,-3,0,-1,-1,-1,-1,-1,2021-08-06 14:06:24,806350
1,0,0,0,0,0,0,-1,2021-08-06 14:06:24,806350
-1,-1,-1,-3,-1,0,0,-1,2021-08-06 14:06:24,806350
-1,1,-1,0,-2,-2,-2,-2,2021-08-06 14:06:24,807318
-1,-2,-2,-1,-1,-3,0,-1,2021-08-06 14:06:24,807318
-2,-1,-1,-1,-1,-1,-1,-3,2021-08-06 14:06:24,821313
-1,-1,-1,-1,-2,-1,-1,-1,2021-08-06 14:06:24,821313
-1,-1,-2,0,0,0,0,-1,2021-08-06 14:06:24,821313
2,0,0,0,-1,-1,0,0,2021-08-06 14:06:24,821313
-2,0,1,-1,0,-1,-1,-2,2021-08-06 14:06:24,852363
-2,-1,-1,-1,-1,-3,-2,-1,2021-08-06 14:06:24,868351
-1,-2,1,0,-1,-3,0,-2,2021-08-06 14:06:24,884316
-2,-1,-2,-1,-1,0,0,-1,2021-08-06 14:06:24,884316
0,0,-2,-3,-2,-1,0,1,2021-08-06 14:06:24,884316
0,-2,-2,0,-1,-1,0,-1,2021-08-06 14:06:24,884316
-1,-2,-3,-1,-2,-2,-1,1,2021-08-06 14:06:24,884316
-4,-2,0,-1,0,0,-1,-1,2021-08-06 14:06:24,884316
-3,-1,-1,0,1,0,0,-1,2021-08-06 14:06:24,885313
-4,-2,0,1,0,-1,-4,-1,2021-08-06 14:06:24,885313
0,1,-1,-1,-1,-1,-3,-4,2021-08-06 14:06:24,885313
2,3,0,-1,0,1,-1,-1,2021-08-06 14:06:24,885313
-1,-2,-3,-1,-2,-1,-1,-1,2021-08-06 14:06:24,916316
1,0,-1,-2,-2,-1,1,-1,2021-08-06 14:06:24,916316
-1,-1,0,-1,0,-2,-1,-1,2021-08-06 14:06:24,916316
-2,-1,-3,-1,-1,-1,0,-2,2021-08-06 14:06:24,916316
0,-1,1,0,-1,-1,0,1,2021-08-06 14:06:24,916316
-2,-2,-2,0,-1,-2,-1,-1,2021-08-06 14:06:24,916316
0,-1,0,1,0,-1,-1,-2,2021-08-06 14:06:24,916316
-1,-2,-2,-1,-1,-1,0,-2,2021-08-06 14:06:24,916316
-1,0,0,1,1,-1,-1,-1,2021-08-06 14:06:24,947315
0,0,0,1,1,0,0,-1,2021-08-06 14:06:24,947315
-1,-1,-2,-1,0,0,0,-1,2021-08-06 14:06:24,947315
-2,-1,-1,0,-1,-1,-1,-1,2021-08-06 14:06:24,947315
0,-2,-1,-2,-3,-1,-1,-1,2021-08-06 14:06:24,978364
0,-1,0,-2,-1,1,0,1,2021-08-06 14:06:24,978364
-1,-2,-1,-3,-1,-2,0,-1,2021-08-06 14:06:24,978364
1,1,-1,-2,-2,0,0,0,2021-08-06 14:06:24,978364
-1,-1,-3,-2,-1,-2,-1,-1,2021-08-06 14:06:24,978364
0,-2,-1,-1,0,-1,-2,-2,2021-08-06 14:06:24,978364
-3,0,1,0,0,0,0,1,2021-08-06 14:06:24,978364
-1,-3,-1,-1,-2,-1,-1,0,2021-08-06 14:06:24,979316
1,1,0,0,0,-1,0,0,2021-08-06 14:06:25,010313
0,-1,-2,-2,-1,0,0,2,2021-08-06 14:06:25,026355
1,0,-1,0,-1,-2,0,-1,2021-08-06 14:06:25,026355
-1,0,1,-1,1,-1,-2,-2,2021-08-06 14:06:25,026355
-1,0,0,2,1,0,-1,-2,2021-08-06 14:06:25,026355
-2,0,3,8,7,5,-1,-2,2021-08-06 14:06:25,026355
0,1,2,1,-1,0,1,2,2021-08-06 14:06:25,026355
-4,-5,-9,-14,-12,-8,-4,-3,2021-08-06 14:06:25,026355
2,0,-1,-6,-6,0,2,2,2021-08-06 14:06:25,042315
-5,-4,-3,-2,-5,-4,-5,-3,2021-08-06 14:06:25,042315
3,0,-4,-8,-3,1,0,1,2021-08-06 14:06:25,042315
1,3,5,7,7,2,-1,0,2021-08-06 14:06:25,042315
-2,-4,-2,0,1,0,-2,0,2021-08-06 14:06:25,058351
1,1,2,4,5,1,0,1,2021-08-06 14:06:25,058351
-1,-2,1,5,3,0,0,-1,2021-08-06 14:06:25,058351
-2,-1,-2,-3,-1,-2,0,0,2021-08-06 14:06:25,058351
-1,-2,-2,-1,0,0,0,-2,2021-08-06 14:06:25,105313
0,0,0,-2,-2,-3,-2,-1,2021-08-06 14:06:25,121314
-1,-4,-1,-2,-2,-2,-3,-2,2021-08-06 14:06:25,153313
1,0,-1,2,-2,2,-1,0,2021-08-06 14:06:25,168354
-2,-2,-2,-1,-1,0,0,0,2021-08-06 14:06:25,168354
-1,0,-3,-3,-5,-3,0,0,2021-08-06 14:06:25,168354
-2,0,-3,-2,-4,1,-1,-2,2021-08-06 14:06:25,168354
-2,-1,-1,1,1,-1,-1,-2,2021-08-06 14:06:25,168354
-1,0,-1,-1,-3,0,-1,3,2021-08-06 14:06:25,168354
0,-1,-3,-2,-1,-2,0,0,2021-08-06 14:06:25,169316
-2,-2,-1,-2,1,-1,-3,0,2021-08-06 14:06:25,169316
3,1,-1,-1,-1,-2,2,2,2021-08-06 14:06:25,169316
-1,-1,-1,-1,-1,-4,-3,-2,2021-08-06 14:06:25,169316
1,2,1,1,1,1,1,-1,2021-08-06 14:06:25,169316
0,-1,-3,-4,-2,0,-1,0,2021-08-06 14:06:25,169316
-1,-3,-2,-4,-5,-1,-2,1,2021-08-06 14:06:25,169316
-2,-2,-1,-1,0,1,-1,-2,2021-08-06 14:06:25,169316
1,2,4,7,7,4,1,0,2021-08-06 14:06:25,169316
-1,-3,-3,0,1,1,0,1,2021-08-06 14:06:25,169316
-2,-5,-5,-11,-15,-10,-7,-4,2021-08-06 14:06:25,169316
0,-1,-2,-4,-2,-3,-1,-1,2021-08-06 14:06:25,184313
-3,-2,-2,-3,-2,0,-1,-1,2021-08-06 14:06:25,184313
0,2,4,6,7,4,2,1,2021-08-06 14:06:25,184313
0,2,2,6,6,4,1,0,2021-08-06 14:06:25,184313
-2,0,-2,1,-1,0,0,-3,2021-08-06 14:06:25,215312
-2,-2,-2,-3,-2,-4,-1,-2,2021-08-06 14:06:25,230314
0,-1,-3,-4,-4,-3,-1,0,2021-08-06 14:06:25,246314
0,-1,-1,5,1,1,-1,-1,2021-08-06 14:06:25,246314
0,0,-1,0,1,-1,-1,0,2021-08-06 14:06:25,246314
1,-1,-3,-7,-2,-1,0,2,2021-08-06 14:06:25,246314
-1,0,-1,-2,-3,-2,0,-2,2021-08-06 14:06:25,246314
0,0,0,1,0,0,0,-1,2021-08-06 14:06:25,246314
-1,0,1,4,1,1,-2,1,2021-08-06 14:06:25,247314
-2,-2,-2,-2,-6,-3,-2,-3,2021-08-06 14:06:25,247314
0,-2,0,-4,-3,-1,0,0,2021-08-06 14:06:25,247314
0,0,2,3,3,1,-1,-1,2021-08-06 14:06:25,247314
-1,-1,-2,-1,0,-3,0,-1,2021-08-06 14:06:25,262315
-3,1,-1,-2,-3,-1,-1,0,2021-08-06 14:06:25,276316
-3,0,0,1,-2,-1,-2,-4,2021-08-06 14:06:25,277316
-2,-2,-3,1,2,0,1,0,2021-08-06 14:06:25,277316
-1,-4,-1,-1,-3,-3,-2,-1,2021-08-06 14:06:25,277316
1,0,-1,1,0,-1,-1,2,2021-08-06 14:06:25,277316
-1,0,0,2,1,-1,0,-1,2021-08-06 14:06:25,293314
0,0,0,-1,1,0,-1,0,2021-08-06 14:06:25,309352
-1,0,0,-2,-4,-1,-2,-1,2021-08-06 14:06:25,325315
-2,-1,-2,0,0,-2,0,-1,2021-08-06 14:06:25,325315
-2,-1,-2,-1,-2,-1,-1,1,2021-08-06 14:06:25,325315
-1,-1,1,0,-2,-1,-2,-1,2021-08-06 14:06:25,325315
-2,-4,-1,-3,-1,-1,1,0,2021-08-06 14:06:25,325315
1,-1,0,-2,-3,1,0,-1,2021-08-06 14:06:25,325315
0,1,1,2,3,1,2,0,2021-08-06 14:06:25,326316
-3,-2,-1,0,-1,-1,-1,-2,2021-08-06 14:06:25,326316
0,-1,-1,0,0,0,0,-3,2021-08-06 14:06:25,341363
0,0,-4,-2,-3,-2,-2,0,2021-08-06 14:06:25,341363
1,0,-1,-1,0,-1,-1,-2,2021-08-06 14:06:25,357315
1,1,1,-1,1,1,0,1,2021-08-06 14:06:25,357315
2,0,0,-1,-1,-1,0,0,2021-08-06 14:06:25,357315
-1,-2,0,-1,0,-2,0,-3,2021-08-06 14:06:25,357315
0,0,-3,-2,-3,-2,-3,-2,2021-08-06 14:06:25,357315
-1,0,-1,-1,0,1,1,0,2021-08-06 14:06:25,357315
0,-1,-1,-2,-1,0,-1,-1,2021-08-06 14:06:25,388316
-1,-4,-1,0,0,-1,-1,-1,2021-08-06 14:06:25,404354
0,0,0,1,0,-1,0,0,2021-08-06 14:06:25,404354
0,-1,0,0,-1,-3,0,-2,2021-08-06 14:06:25,404354
-1,1,-1,-1,0,0,-2,-1,2021-08-06 14:06:25,404354
-2,-1,-1,0,0,-1,0,-2,2021-08-06 14:06:25,404354
-2,-2,-3,-1,-2,0,-1,-1,2021-08-06 14:06:25,435313
0,1,-2,1,1,1,0,0,2021-08-06 14:06:25,435313
-1,-2,-1,1,-2,-3,-2,-1,2021-08-06 14:06:25,435313
-2,-2,-3,-2,-3,-2,-3,-1,2021-08-06 14:06:25,435313
0,2,0,-4,0,-2,-3,-1,2021-08-06 14:06:25,435313
1,2,1,2,1,0,2,0,2021-08-06 14:06:25,435313
0,0,2,-1,-1,-2,0,-2,2021-08-06 14:06:25,450313
-1,-1,-3,-1,-2,-1,0,-1,2021-08-06 14:06:25,450313
-2,-3,-3,-2,-2,-3,-3,-3,2021-08-06 14:06:25,450313
-1,-3,-3,0,-2,-1,-2,-3,2021-08-06 14:06:25,450313
0,0,0,-1,1,0,1,1,2021-08-06 14:06:25,466312
1,1,-1,-1,0,0,0,0,2021-08-06 14:06:25,482315
-1,-2,-1,-1,-3,-1,-1,1,2021-08-06 14:06:25,482315
-2,-2,-1,-2,-2,-3,-3,-2,2021-08-06 14:06:25,482315
-2,-1,-3,1,0,-2,-2,-1,2021-08-06 14:06:25,482315
-2,0,0,-1,-1,1,0,0,2021-08-06 14:06:25,482315
-1,-1,0,1,1,-3,-2,0,2021-08-06 14:06:25,482315
-4,-2,-3,-2,-1,-1,-1,0,2021-08-06 14:06:25,482315
-1,-1,0,0,0,0,-3,-3,2021-08-06 14:06:25,514312
0,1,0,-2,-1,-2,-1,0,2021-08-06 14:06:25,530314
0,1,0,-2,0,0,0,0,2021-08-06 14:06:25,546314
1,-1,0,-2,-1,-1,-2,2,2021-08-06 14:06:25,546314
-1,-2,-2,-2,-1,1,0,-3,2021-08-06 14:06:25,546314
0,-1,-1,-2,0,0,-1,0,2021-08-06 14:06:25,546314
-2,-2,0,0,-2,0,0,-2,2021-08-06 14:06:25,546314
-1,0,-1,0,0,-1,-2,0,2021-08-06 14:06:25,546314
-1,-1,-2,-1,-1,-2,-2,-1,2021-08-06 14:06:25,546314
-1,-1,0,-1,-2,-2,-1,-2,2021-08-06 14:06:25,546314
0,0,0,0,3,4,2,-1,2021-08-06 14:06:25,546314
1,2,-1,-1,-2,-2,0,-2,2021-08-06 14:06:25,546314
1,1,-1,1,3,1,1,-1,2021-08-06 14:06:25,562314
-2,-3,-1,-3,-4,-2,-5,-1,2021-08-06 14:06:25,578312
0,-2,-1,0,-1,-3,-1,-1,2021-08-06 14:06:25,594313
0,0,0,0,2,4,1,-2,2021-08-06 14:06:25,594313
0,-1,0,-3,-1,-1,-2,0,2021-08-06 14:06:25,594313
1,0,0,0,-1,0,0,0,2021-08-06 14:06:25,594313
-3,-3,-1,-3,-3,-3,-3,-2,2021-08-06 14:06:25,594313
-3,-2,0,-2,-3,-3,1,-1,2021-08-06 14:06:25,594313
-2,-1,0,-1,-2,-1,0,1,2021-08-06 14:06:25,610313
-1,-2,-1,-1,0,1,-1,-2,2021-08-06 14:06:25,610313
-1,1,-1,0,-3,-1,-1,0,2021-08-06 14:06:25,610313
-1,-4,-1,0,-1,0,-2,-1,2021-08-06 14:06:25,610313
0,-1,0,-3,-1,-2,-2,0,2021-08-06 14:06:25,626314
1,1,-1,1,0,-1,2,-2,2021-08-06 14:06:25,636314
0,0,1,1,2,-1,-1,-1,2021-08-06 14:06:25,636314
0,0,0,-3,-1,-1,0,-1,2021-08-06 14:06:25,637314
0,-2,-2,-1,-1,-1,-2,0,2021-08-06 14:06:25,637314
-3,-2,-2,-1,0,-1,0,-1,2021-08-06 14:06:25,637314
-2,-2,-3,-2,-2,-1,-2,-3,2021-08-06 14:06:25,657315
-1,-1,-1,0,-2,-1,0,-1,2021-08-06 14:06:25,657315
-2,-1,-2,-3,-3,-3,0,-2,2021-08-06 14:06:25,657315
-1,2,0,0,0,1,2,1,2021-08-06 14:06:25,657315
-1,-2,0,-2,-1,-1,-2,0,2021-08-06 14:06:25,657315
0,0,0,0,-1,-3,-2,-1,2021-08-06 14:06:25,657315
-3,-1,-1,0,-1,-1,-1,-1,2021-08-06 14:06:25,688314
0,0,0,-2,-3,-2,-2,0,2021-08-06 14:06:25,704314
-1,-1,0,-1,-1,1,-1,3,2021-08-06 14:06:25,720350
0,0,-1,-1,-3,-1,-2,-1,2021-08-06 14:06:25,720350
1,-1,-1,1,-1,-2,-1,-1,2021-08-06 14:06:25,720350
-2,-2,0,-2,-1,-1,-1,-3,2021-08-06 14:06:25,720350
0,1,0,-1,-2,-1,1,0,2021-08-06 14:06:25,720350
0,-1,0,-1,-2,-1,-1,-1,2021-08-06 14:06:25,720350
0,0,0,-1,-2,1,0,0,2021-08-06 14:06:25,720350
-3,-5,-1,-2,-3,-3,-3,-1,2021-08-06 14:06:25,720350
0,1,-1,0,-1,-2,-3,-2,2021-08-06 14:06:25,720350
0,1,0,-1,-1,-2,-1,1,2021-08-06 14:06:25,721314
-1,0,0,1,3,0,2,0,2021-08-06 14:06:25,750315
0,0,1,-1,0,-1,0,0,2021-08-06 14:06:25,750315
-2,-3,-2,-4,-1,-1,0,2,2021-08-06 14:06:25,750315
-3,-3,-2,-3,-2,-1,0,-2,2021-08-06 14:06:25,750315
-2,-2,1,1,0,-2,-4,-1,2021-08-06 14:06:25,766370
-1,0,0,-1,0,-2,-2,-2,2021-08-06 14:06:25,766370
0,-1,-1,0,1,-1,-1,-2,2021-08-06 14:06:25,766370
-1,-1,-2,-1,-1,-1,-2,-1,2021-08-06 14:06:25,766370
-1,1,-3,-2,-3,1,1,0,2021-08-06 14:06:25,782312
0,0,-1,-2,0,0,-1,0,2021-08-06 14:06:25,798314
1,0,-1,0,-2,1,0,-2,2021-08-06 14:06:25,798314
-1,-2,-1,1,0,-1,-1,0,2021-08-06 14:06:25,798314
-2,-2,0,-2,-2,-1,-1,0,2021-08-06 14:06:25,798314
0,-1,-4,-1,0,-1,0,-3,2021-08-06 14:06:25,798314
-1,-1,-3,-1,0,0,0,-1,2021-08-06 14:06:25,813313
-1,1,-1,3,1,-1,-3,1,2021-08-06 14:06:25,828312
0,1,-1,-3,-1,0,-2,-1,2021-08-06 14:06:25,844314
-1,-1,-1,-1,-2,-1,-2,-1,2021-08-06 14:06:25,844314
0,-1,1,0,-1,-2,0,-1,2021-08-06 14:06:25,844314
-2,-2,-1,0,-1,-1,-1,-1,2021-08-06 14:06:25,844314
-1,0,1,-1,-3,-2,-1,0,2021-08-06 14:06:25,844314
0,-1,-1,-1,0,-1,0,-1,2021-08-06 14:06:25,844314
-2,0,-1,-2,-1,0,-1,-1,2021-08-06 14:06:25,844314
1,-1,1,0,1,0,-1,-2,2021-08-06 14:06:25,845314
-1,-2,-2,0,0,0,0,0,2021-08-06 14:06:25,875314
-1,-1,0,-1,-2,0,-2,0,2021-08-06 14:06:25,875314
-2,0,-2,0,-2,-1,-1,1,2021-08-06 14:06:25,890312
-1,0,-2,0,0,0,-2,-2,2021-08-06 14:06:25,890312
-1,-2,-1,-2,-1,0,-3,-3,2021-08-06 14:06:25,906314
-1,-1,-1,1,0,-1,0,0,2021-08-06 14:06:25,922313
0,-1,-3,-1,1,-1,0,0,2021-08-06 14:06:25,922313
-1,0,-3,-4,0,-1,1,1,2021-08-06 14:06:25,922313
0,-2,-1,-1,-2,-1,-2,-1,2021-08-06 14:06:25,922313
-2,-2,-1,0,0,-1,-1,-1,2021-08-06 14:06:25,922313
-1,-3,1,-1,-3,0,-3,-2,2021-08-06 14:06:25,922313
-1,-1,0,-1,-1,-1,0,-2,2021-08-06 14:06:25,922313
-1,-1,-1,0,0,-2,0,0,2021-08-06 14:06:25,922313
0,0,0,-1,0,-1,0,0,2021-08-06 14:06:25,923314
-1,-1,1,0,0,-1,-2,-1,2021-08-06 14:06:25,923314
0,-2,-2,-1,-1,-1,-3,-1,2021-08-06 14:06:25,923314
-1,-1,0,1,2,0,0,-1,2021-08-06 14:06:25,953314
-1,-1,-2,0,-1,-2,0,0,2021-08-06 14:06:25,969312
-2,-1,0,-1,-1,0,-1,0,2021-08-06 14:06:25,985314
-2,-1,1,0,-1,-1,0,0,2021-08-06 14:06:25,985314
1,-2,-1,0,-2,-1,2,-1,2021-08-06 14:06:25,985314
1,-1,0,0,0,-1,0,0,2021-08-06 14:06:25,985314
-2,-1,-1,-1,0,-1,0,-2,2021-08-06 14:06:25,985314
0,0,-1,-2,-1,-1,0,1,2021-08-06 14:06:25,985314
-1,-1,-1,-1,0,0,-3,-2,2021-08-06 14:06:25,985314
-1,-1,-1,-1,0,0,-2,-1,2021-08-06 14:06:25,986352
-1,-2,-1,-1,-3,-1,0,-1,2021-08-06 14:06:25,986352
-1,-1,-1,-2,-3,0,0,-1,2021-08-06 14:06:25,986352
-2,-1,0,-1,-1,-2,-1,-1,2021-08-06 14:06:26,017313
0,-1,0,-2,0,0,0,0,2021-08-06 14:06:26,017313
1,-1,-1,-3,1,0,-1,0,2021-08-06 14:06:26,017313
-2,-3,0,0,-2,0,-3,1,2021-08-06 14:06:26,017313
1,-2,1,0,0,-1,-1,-1,2021-08-06 14:06:26,017313
-2,-2,-1,0,-1,2,0,-1,2021-08-06 14:06:26,017313
-1,-1,-2,-2,-1,-1,-2,-1,2021-08-06 14:06:26,033313
-1,-1,-2,0,-1,-1,1,0,2021-08-06 14:06:26,033313
-2,-1,0,-2,-1,-1,-1,-2,2021-08-06 14:06:26,049312
-3,0,-1,-1,-1,1,-3,-3,2021-08-06 14:06:26,049312
0,0,0,1,0,-2,0,-2,2021-08-06 14:06:26,049312
-1,0,1,-1,1,2,0,-1,2021-08-06 14:06:26,049312
-1,-2,-2,0,-2,1,0,-1,2021-08-06 14:06:26,080314
-1,-1,-3,-1,0,-1,-2,0,2021-08-06 14:06:26,080314
-1,-2,-2,-3,-1,-2,-1,-1,2021-08-06 14:06:26,080314
0,-3,-2,-1,-1,-1,-1,-1,2021-08-06 14:06:26,080314
0,-1,-2,0,-2,1,2,-1,2021-08-06 14:06:26,080314
3,3,2,0,0,1,1,1,2021-08-06 14:06:26,080314
-3,-3,-1,0,-2,-3,-5,-4,2021-08-06 14:06:26,096314
-1,-2,0,-2,-3,-4,-4,-3,2021-08-06 14:06:26,096314
-3,-2,-1,-3,0,-2,-3,-3,2021-08-06 14:06:26,112314
-2,-2,-1,-1,0,1,2,-2,2021-08-06 14:06:26,112314
1,3,0,0,1,2,0,2,2021-08-06 14:06:26,112314
-1,0,-1,0,0,-2,1,0,2021-08-06 14:06:26,112314
-2,-2,-2,-1,-1,-2,-3,-1,2021-08-06 14:06:26,128314
0,-1,-1,0,-1,-2,0,-1,2021-08-06 14:06:26,128314
0,1,-2,0,-1,1,4,1,2021-08-06 14:06:26,128314
0,-1,-1,-1,-1,2,1,-1,2021-08-06 14:06:26,128314
0,0,1,0,1,-6,-5,-3,2021-08-06 14:06:26,144338
-2,-2,-1,-1,-2,-2,-4,0,2021-08-06 14:06:26,144338
-1,-2,0,0,0,-2,1,-1,2021-08-06 14:06:26,144338
0,-1,-1,-1,0,1,0,1,2021-08-06 14:06:26,144338
1,1,0,0,-1,1,2,2,2021-08-06 14:06:26,175315
-2,-2,-1,0,-1,-1,-1,-2,2021-08-06 14:06:26,175315
-2,-2,-2,0,-1,-1,0,1,2021-08-06 14:06:26,175315
-1,-1,-2,-1,-2,0,0,-2,2021-08-06 14:06:26,175315
-2,-1,-2,0,-1,1,0,-2,2021-08-06 14:06:26,191314
-1,1,-1,0,-1,0,0,1,2021-08-06 14:06:26,191314
-1,0,1,0,1,-1,-1,0,2021-08-06 14:06:26,191314
-1,-1,0,0,-2,-2,-3,-1,2021-08-06 14:06:26,191314
-2,-1,-1,-3,-1,-1,0,1,2021-08-06 14:06:26,207316
-3,-1,1,-1,0,-2,-1,-2,2021-08-06 14:06:26,207316
-1,-1,0,-2,-1,0,-1,-2,2021-08-06 14:06:26,207316
-2,0,0,-2,-2,-1,-1,-2,2021-08-06 14:06:26,207316
0,0,-1,-1,0,-1,0,0,2021-08-06 14:06:26,223366
0,-1,-1,-1,-2,0,-1,0,2021-08-06 14:06:26,223366
0,-2,-3,-3,-1,0,0,-2,2021-08-06 14:06:26,223366
-1,-1,-1,-1,-1,-2,0,-1,2021-08-06 14:06:26,223366
-1,-2,0,-1,-2,0,-1,-1,2021-08-06 14:06:26,255313
0,-1,0,-1,0,-1,-1,0,2021-08-06 14:06:26,270312
0,-2,0,-1,-2,-1,-1,0,2021-08-06 14:06:26,270312
-1,1,-3,0,0,1,0,0,2021-08-06 14:06:26,270312
-1,0,0,0,-1,-1,0,1,2021-08-06 14:06:26,270312
-1,0,0,1,0,-2,-1,-2,2021-08-06 14:06:26,270312
0,-1,-1,-1,-3,-2,-1,-1,2021-08-06 14:06:26,270312
-2,-1,0,-1,-1,-2,-1,-1,2021-08-06 14:06:26,270312
1,-2,-2,0,0,0,-1,0,2021-08-06 14:06:26,285314
-1,0,-1,-2,0,0,-1,1,2021-08-06 14:06:26,301314
0,0,-2,0,-1,0,0,-1,2021-08-06 14:06:26,317315
1,-1,1,-1,-2,-2,-1,-2,2021-08-06 14:06:26,317315
-1,-1,-3,-1,0,-1,-1,0,2021-08-06 14:06:26,317315
2,0,-1,-2,-2,1,-1,-1,2021-08-06 14:06:26,317315
0,1,0,-1,-1,0,-1,-1,2021-08-06 14:06:26,317315
-1,0,-1,-1,0,-1,0,-3,2021-08-06 14:06:26,317315
0,0,0,1,-1,0,1,-2,2021-08-06 14:06:26,317315
-3,-3,-2,0,0,-1,0,-1,2021-08-06 14:06:26,318314
-1,-1,-1,0,-2,-1,-2,-2,2021-08-06 14:06:26,333314
0,0,-1,-2,-2,-1,0,1,2021-08-06 14:06:26,333314
-1,1,-1,0,-2,-2,-1,1,2021-08-06 14:06:26,349313
-3,-2,-1,0,0,-2,-1,-1,2021-08-06 14:06:26,358313
-3,-2,-1,1,-1,0,-2,0,2021-08-06 14:06:26,365314
-2,-1,-2,-1,0,-1,-1,0,2021-08-06 14:06:26,365314
0,-1,0,1,-1,0,0,-1,2021-08-06 14:06:26,365314
1,0,-1,0,-2,0,-1,-2,2021-08-06 14:06:26,365314
-1,-1,1,-1,-1,-1,0,-1,2021-08-06 14:06:26,365314
-1,0,1,0,0,0,-1,-2,2021-08-06 14:06:26,365314
0,-2,-1,-1,-2,-2,-1,0,2021-08-06 14:06:26,380314
-1,-1,-2,-1,-2,-1,-1,0,2021-08-06 14:06:26,396315
-1,-1,-1,-1,0,-1,0,0,2021-08-06 14:06:26,396315
0,-3,-2,-2,-1,0,0,-1,2021-08-06 14:06:26,396315
0,0,0,-1,-2,-1,-1,-2,2021-08-06 14:06:26,412314
1,1,0,2,1,0,1,-1,2021-08-06 14:06:26,412314
0,0,-1,-1,0,-1,0,-1,2021-08-06 14:06:26,412314
-2,-1,0,-1,0,2,-2,0,2021-08-06 14:06:26,412314
-1,-1,-2,-1,-1,1,0,0,2021-08-06 14:06:26,428314
-2,0,-2,-1,-2,-1,-1,-2,2021-08-06 14:06:26,444313
0,0,0,0,-1,-3,-2,0,2021-08-06 14:06:26,444313
0,0,-3,0,0,-1,0,-1,2021-08-06 14:06:26,444313
0,1,-1,-1,0,0,-1,1,2021-08-06 14:06:26,444313
0,-1,0,-2,-1,-2,-2,-1,2021-08-06 14:06:26,444313
-1,0,-2,0,0,0,-1,-1,2021-08-06 14:06:26,444313
-2,-2,-1,0,0,-1,-2,0,2021-08-06 14:06:26,444313
-2,0,-2,0,-2,1,-1,-1,2021-08-06 14:06:26,476314
0,-1,-1,-1,-1,-3,-1,-2,2021-08-06 14:06:26,492314
0,-1,0,0,-2,0,0,-2,2021-08-06 14:06:26,492314
-1,0,-2,-2,-1,-2,0,-1,2021-08-06 14:06:26,492314
0,0,0,-1,0,0,0,0,2021-08-06 14:06:26,492314
-2,-1,0,-1,-1,0,0,-1,2021-08-06 14:06:26,492314
-1,-1,-1,-1,0,-1,0,-1,2021-08-06 14:06:26,492314
-1,-1,-1,-1,-1,-1,0,-1,2021-08-06 14:06:26,492314
-2,-1,1,-1,-1,0,-1,-1,2021-08-06 14:06:26,508314
-1,-1,0,-3,-2,0,0,-1,2021-08-06 14:06:26,524313
-1,0,-2,0,0,0,-1,0,2021-08-06 14:06:26,540314
-1,-1,-2,-1,0,-1,-1,0,2021-08-06 14:06:26,556313
-1,-1,1,-1,-2,-2,-2,-1,2021-08-06 14:06:26,572314
0,-2,-3,0,0,0,0,0,2021-08-06 14:06:26,572314
-2,-1,0,0,0,0,-3,-1,2021-08-06 14:06:26,572314
-1,0,1,4,3,1,1,-1,2021-08-06 14:06:26,572314
-2,-3,-5,-6,-3,-2,1,1,2021-08-06 14:06:26,572314
-1,-2,-4,-9,-10,-5,-4,-3,2021-08-06 14:06:26,572314
-1,1,1,1,2,1,-2,-1,2021-08-06 14:06:26,572314
2,4,10,19,17,9,2,1,2021-08-06 14:06:26,572314
1,0,0,1,5,3,1,0,2021-08-06 14:06:26,573314
-8,-11,-17,-34,-36,-23,-9,-5,2021-08-06 14:06:26,588314
-4,-2,-4,-10,-13,-7,-3,-1,2021-08-06 14:06:26,604314
-2,0,-2,-4,-4,0,-2,-3,2021-08-06 14:06:26,604314
0,2,6,15,13,6,1,0,2021-08-06 14:06:26,604314
1,1,5,11,14,8,1,1,2021-08-06 14:06:26,604314
0,-2,-3,-6,-5,-2,-1,-2,2021-08-06 14:06:26,604314
0,-1,-1,-4,-3,-2,-1,-1,2021-08-06 14:06:26,604314
0,2,-1,1,1,-2,-1,-2,2021-08-06 14:06:26,604314
-1,2,1,8,3,2,1,2,2021-08-06 14:06:26,604314
-1,-2,-1,0,0,-1,0,-2,2021-08-06 14:06:26,605314
-1,1,-1,-2,-3,-1,0,1,2021-08-06 14:06:26,605314
-3,-2,-3,-8,-8,-5,-4,-3,2021-08-06 14:06:26,636312
-1,2,2,3,4,2,-2,0,2021-08-06 14:06:26,651314
0,1,1,2,4,2,2,0,2021-08-06 14:06:26,667314
0,-2,-4,-5,-7,-5,-1,1,2021-08-06 14:06:26,667314
0,-2,-3,-5,-5,-2,-1,-2,2021-08-06 14:06:26,683313
0,-1,-1,4,5,2,2,0,2021-08-06 14:06:26,683313
-2,0,0,3,4,1,-1,0,2021-08-06 14:06:26,683313
-2,-2,-3,-4,-5,-2,-3,-4,2021-08-06 14:06:26,683313
-3,-3,0,-2,-4,-2,-2,-2,2021-08-06 14:06:26,683313
1,2,2,4,4,2,1,0,2021-08-06 14:06:26,683313
0,0,-1,-1,0,-3,-1,-1,2021-08-06 14:06:26,683313
-1,-1,-1,-4,-4,-4,-1,-1,2021-08-06 14:06:26,683313
1,0,-1,-2,-3,-1,0,-1,2021-08-06 14:06:26,684314
1,0,0,0,2,0,1,0,2021-08-06 14:06:26,684314
-2,-2,-1,-1,-2,0,-1,0,2021-08-06 14:06:26,684314
-2,-2,-3,-3,-1,-3,-1,-2,2021-08-06 14:06:26,684314
0,0,-1,0,1,-1,0,-1,2021-08-06 14:06:26,699314
-1,0,1,-1,0,0,0,-2,2021-08-06 14:06:26,699314
1,0,-1,1,-1,0,0,0,2021-08-06 14:06:26,699314
-1,-1,-1,-2,-1,0,-1,-1,2021-08-06 14:06:26,699314
-1,-2,-1,-2,-2,-3,-1,-2,2021-08-06 14:06:26,731313
0,-2,0,2,-1,0,-1,-2,2021-08-06 14:06:26,731313
-2,0,-2,0,0,0,-1,0,2021-08-06 14:06:26,731313
-2,0,-1,-2,-2,-2,-3,-2,2021-08-06 14:06:26,731313
0,-1,0,-2,-1,-1,-1,0,2021-08-06 14:06:26,747314
1,-1,-1,1,1,1,-1,0,2021-08-06 14:06:26,747314
-1,-3,-1,0,-1,0,0,-2,2021-08-06 14:06:26,747314
-2,-2,-1,0,-2,-1,0,-1,2021-08-06 14:06:26,747314
-1,0,-2,-2,-2,-1,-2,-1,2021-08-06 14:06:26,763314
1,-1,-1,0,-1,0,-1,-1,2021-08-06 14:06:26,779313
0,-1,-1,-1,-1,0,-1,-1,2021-08-06 14:06:26,795312
-1,-1,-3,-1,-1,-1,-2,-2,2021-08-06 14:06:26,811314
-1,0,-1,-1,-3,-2,-1,0,2021-08-06 14:06:26,811314
-3,-1,-1,0,0,0,0,1,2021-08-06 14:06:26,811314
-1,1,0,-2,0,-1,-2,-1,2021-08-06 14:06:26,811314
-1,-3,-2,-1,-2,-1,-1,-2,2021-08-06 14:06:26,811314
-2,-1,1,0,-1,0,0,-1,2021-08-06 14:06:26,811314
-1,-1,0,1,0,-2,-2,-2,2021-08-06 14:06:26,811314
-1,0,0,-1,-1,-2,-2,0,2021-08-06 14:06:26,811314
1,-1,0,-1,-1,-2,0,-1,2021-08-06 14:06:26,811314
-1,-1,-1,0,0,0,-1,0,2021-08-06 14:06:26,827314
0,-3,0,-2,1,-1,0,-1,2021-08-06 14:06:26,827314
-1,-2,-1,-2,0,-1,-1,-2,2021-08-06 14:06:26,827314
0,0,-1,0,-1,-1,-1,-2,2021-08-06 14:06:26,827314
0,-1,-2,0,0,-1,1,-1,2021-08-06 14:06:26,859358
-2,-2,-1,-1,-1,1,0,0,2021-08-06 14:06:26,875318
2,-2,-1,0,-2,-2,-1,0,2021-08-06 14:06:26,891350
-2,-2,0,-1,-1,0,0,-2,2021-08-06 14:06:26,907316
-1,-1,0,-1,0,-2,-2,-1,2021-08-06 14:06:26,923350
-2,0,-1,-1,0,0,-1,-1,2021-08-06 14:06:26,923350
-1,-2,-1,0,-1,1,-1,-1,2021-08-06 14:06:26,923350
0,-1,0,-1,-1,-1,0,0,2021-08-06 14:06:26,923350
-1,0,0,0,1,0,-1,-2,2021-08-06 14:06:26,923350
-2,-1,0,-1,-1,-1,0,-1,2021-08-06 14:06:26,923350
0,0,0,0,-1,2,3,0,2021-08-06 14:06:26,923350
0,0,-1,-2,-1,4,4,3,2021-08-06 14:06:26,923350
-1,-1,0,1,0,-4,-9,-5,2021-08-06 14:06:26,923350
-2,-1,-2,-2,-1,-5,-4,-2,2021-08-06 14:06:26,924314
-1,-2,-2,-2,0,1,4,2,2021-08-06 14:06:26,924314
2,0,-1,-2,1,10,13,5,2021-08-06 14:06:26,924314
0,-2,-3,0,-1,-4,-9,-3,2021-08-06 14:06:26,924314
-6,-2,-2,0,-2,-17,-18,-12,2021-08-06 14:06:26,924314
-2,0,0,-1,0,-4,-6,-2,2021-08-06 14:06:26,924314
0,0,0,1,-1,-1,3,-1,2021-08-06 14:06:26,924314
-1,0,-1,-2,0,8,11,2,2021-08-06 14:06:26,939364
1,-1,1,1,1,6,5,2,2021-08-06 14:06:26,939364
-1,-2,-1,-1,-2,-4,-3,-1,2021-08-06 14:06:26,939364
-1,-1,0,-1,1,-4,-3,-2,2021-08-06 14:06:26,939364
0,1,0,-2,-2,0,2,1,2021-08-06 14:06:26,970350
2,0,-1,-1,1,7,7,2,2021-08-06 14:06:26,985350
1,0,-1,0,-2,1,-1,-4,2021-08-06 14:06:27,001314
0,-1,-3,-2,-4,-7,-9,-4,2021-08-06 14:06:27,001314
-2,-1,0,0,1,-2,-2,-1,2021-08-06 14:06:27,001314
0,0,-1,-1,-1,0,1,2,2021-08-06 14:06:27,001314
0,1,0,0,1,3,3,0,2021-08-06 14:06:27,001314
-2,-1,-1,-1,-2,-1,-3,-2,2021-08-06 14:06:27,001314
0,1,0,-1,0,-1,-2,0,2021-08-06 14:06:27,017315
-2,-1,-2,-1,-3,-2,-1,0,2021-08-06 14:06:27,033317
-1,-2,-1,-1,1,-2,-3,-1,2021-08-06 14:06:27,033317
-2,-1,-1,-1,-1,-4,-4,-1,2021-08-06 14:06:27,033317
1,-2,-1,-1,-2,1,2,0,2021-08-06 14:06:27,033317
0,0,-1,-2,0,3,1,0,2021-08-06 14:06:27,033317
-1,0,0,0,-1,-3,-2,-1,2021-08-06 14:06:27,034345
-2,-2,-2,0,-2,-2,-3,-1,2021-08-06 14:06:27,034345
-1,-1,-2,-1,1,2,1,0,2021-08-06 14:06:27,048314
1,-1,0,0,-1,-1,-3,-1,2021-08-06 14:06:27,048314
0,-2,0,-2,-2,-1,-1,-1,2021-08-06 14:06:27,048314
-1,1,-1,-1,-1,0,0,0,2021-08-06 14:06:27,048314
-1,-2,-3,-1,-2,-3,-2,-1,2021-08-06 14:06:27,063318
-2,-2,0,-2,1,1,1,0,2021-08-06 14:06:27,072314
-2,0,-2,0,-1,-1,1,0,2021-08-06 14:06:27,072314
0,-2,0,0,0,0,-2,0,2021-08-06 14:06:27,072314
-1,-2,-1,-1,-2,-3,-1,-1,2021-08-06 14:06:27,095356
-1,-2,-1,0,-1,0,0,-2,2021-08-06 14:06:27,095356
-1,-1,-1,-1,-1,0,0,0,2021-08-06 14:06:27,095356
-1,0,0,0,-1,-4,-3,-2,2021-08-06 14:06:27,095356
-1,-1,-1,-1,0,0,-2,0,2021-08-06 14:06:27,111313
-1,0,0,0,0,0,-1,1,2021-08-06 14:06:27,111313
-1,-2,-2,0,-1,-1,-1,-2,2021-08-06 14:06:27,111313
-2,0,-2,-1,-2,-2,-1,-2,2021-08-06 14:06:27,111313
0,-1,-1,0,0,1,1,-1,2021-08-06 14:06:27,126340
-2,-1,-2,-2,-2,0,1,-3,2021-08-06 14:06:27,142326
1,-1,0,0,0,-2,0,0,2021-08-06 14:06:27,158341
-1,-1,1,0,-1,0,2,-2,2021-08-06 14:06:27,158341
0,0,-3,0,-1,0,0,-1,2021-08-06 14:06:27,174313
-1,-2,-2,-1,0,-2,-1,0,2021-08-06 14:06:27,190355
-1,-1,-1,-1,-1,-2,0,-1,2021-08-06 14:06:27,190355
0,-1,-1,0,-1,-1,-2,-2,2021-08-06 14:06:27,190355
-3,0,0,0,-2,-2,-2,-2,2021-08-06 14:06:27,206350
-1,0,-2,1,-1,-1,-2,-2,2021-08-06 14:06:27,221315
-2,-1,-3,-1,-2,0,-1,-2,2021-08-06 14:06:27,236313
-1,-1,-2,-1,0,1,-2,1,2021-08-06 14:06:27,252364
-1,0,0,-2,-1,0,-1,-1,2021-08-06 14:06:27,268350
0,-2,-2,-1,0,-1,-1,0,2021-08-06 14:06:27,268350
-2,-1,-2,-2,-1,-1,-1,-1,2021-08-06 14:06:27,268350
-2,0,-2,0,-1,-1,-1,0,2021-08-06 14:06:27,268350
-2,-1,-2,2,-1,-1,-1,-1,2021-08-06 14:06:27,268350
0,1,1,-3,-3,2,-2,1,2021-08-06 14:06:27,268350
0,-1,1,-1,1,-1,-2,0,2021-08-06 14:06:27,268350
-1,-1,-1,-1,0,0,-2,-1,2021-08-06 14:06:27,269314
0,-3,-1,-1,-1,-2,0,0,2021-08-06 14:06:27,269314
0,-1,1,-1,-1,0,0,0,2021-08-06 14:06:27,269314
-2,0,-1,-1,-1,-2,-1,-1,2021-08-06 14:06:27,269314
-1,0,0,-1,-1,-1,-1,-2,2021-08-06 14:06:27,269314
0,0,-2,-2,-2,-1,-1,0,2021-08-06 14:06:27,269314
0,-2,-2,-2,-2,-1,0,0,2021-08-06 14:06:27,269314
1,-1,-1,0,0,1,-1,1,2021-08-06 14:06:27,269314
1,-2,-2,0,-3,1,0,-1,2021-08-06 14:06:27,270314
0,-1,0,-3,0,0,1,-2,2021-08-06 14:06:27,270314
-1,-2,-1,0,-2,0,0,-1,2021-08-06 14:06:27,270314
0,0,-1,1,-1,-1,0,-2,2021-08-06 14:06:27,270314
0,-1,-1,-1,0,0,-2,-2,2021-08-06 14:06:27,270314
-1,1,-2,-1,0,-1,-1,0,2021-08-06 14:06:27,300314
-1,1,-1,-1,-1,0,-1,-2,2021-08-06 14:06:27,316350
-2,-2,-1,-1,0,-2,-1,-2,2021-08-06 14:06:27,332315
1,0,-1,0,0,0,-1,0,2021-08-06 14:06:27,332315
-1,-1,0,1,-2,-1,0,-1,2021-08-06 14:06:27,332315
-1,1,-1,0,0,-2,0,1,2021-08-06 14:06:27,332315
-1,-1,-1,0,0,-2,0,-1,2021-08-06 14:06:27,332315
0,0,0,-1,-2,-2,0,-1,2021-08-06 14:06:27,332315
0,-2,1,-1,-1,1,-1,0,2021-08-06 14:06:27,332315
-2,0,0,0,-1,0,0,-1,2021-08-06 14:06:27,333342
-2,-1,-1,-3,-2,0,-1,-1,2021-08-06 14:06:27,333342
-1,-2,-1,-1,-1,0,-1,1,2021-08-06 14:06:27,333342
-1,0,1,-2,0,-2,0,-1,2021-08-06 14:06:27,362314
-2,-1,-1,-1,0,-2,0,-1,2021-08-06 14:06:27,378313
1,0,0,0,-1,0,0,-1,2021-08-06 14:06:27,378313
-2,-1,-2,-3,-1,-2,0,-1,2021-08-06 14:06:27,378313
-1,-2,0,-2,-1,-1,0,-1,2021-08-06 14:06:27,378313
1,-1,-1,0,-1,-1,-1,-1,2021-08-06 14:06:27,378313
0,0,0,1,-1,-1,-1,-1,2021-08-06 14:06:27,378313
-3,-2,-2,-1,0,-1,-1,0,2021-08-06 14:06:27,379314
-2,-1,-1,1,-1,0,-2,0,2021-08-06 14:06:27,394342
0,-1,-1,0,0,0,-1,-1,2021-08-06 14:06:27,410342
-2,0,-1,0,-1,0,0,1,2021-08-06 14:06:27,410342
0,-1,-1,0,-1,-3,0,-1,2021-08-06 14:06:27,410342
-2,0,-2,-1,-1,-2,-1,-1,2021-08-06 14:06:27,410342
1,-1,-2,-1,-1,-1,-1,-1,2021-08-06 14:06:27,410342
0,-2,-2,-1,-2,-1,0,-1,2021-08-06 14:06:27,410342
-1,-1,0,-1,-1,0,-1,-1,2021-08-06 14:06:27,410342
0,-1,-2,-2,0,-1,1,-1,2021-08-06 14:06:27,432313
-1,-1,-2,-1,0,-2,-1,-1,2021-08-06 14:06:27,432313
-1,-1,-2,0,-1,-1,0,0,2021-08-06 14:06:27,432313
-1,0,0,-1,0,0,-2,0,2021-08-06 14:06:27,432313
-1,-1,-1,1,-1,2,1,0,2021-08-06 14:06:27,458314
-1,1,-1,0,-2,-1,-1,-2,2021-08-06 14:06:27,458314
-1,-2,1,-2,-1,-1,0,0,2021-08-06 14:06:27,458314
-1,-2,-2,-1,0,-2,-2,-2,2021-08-06 14:06:27,458314
1,-2,-1,-3,-1,-1,-3,0,2021-08-06 14:06:27,474364
-1,-2,-1,-2,-2,-1,-1,0,2021-08-06 14:06:27,490363
0,-1,-1,0,0,-1,0,-1,2021-08-06 14:06:27,490363
-1,-1,-1,-1,-1,-3,-1,-2,2021-08-06 14:06:27,490363
-3,0,-1,0,0,-2,-2,0,2021-08-06 14:06:27,490363
-1,0,-1,0,0,0,-1,1,2021-08-06 14:06:27,490363
0,-2,-1,-1,-1,-1,-1,-2,2021-08-06 14:06:27,506335
-2,-2,-1,1,0,0,0,0,2021-08-06 14:06:27,506335
0,2,-2,1,-1,-2,-2,0,2021-08-06 14:06:27,536352
0,-1,1,0,0,-2,0,-1,2021-08-06 14:06:27,536352
-1,0,-1,-1,-2,-1,-1,-1,2021-08-06 14:06:27,536352
0,0,-1,0,-1,0,0,-2,2021-08-06 14:06:27,536352
1,-2,-2,-2,-2,0,1,-2,2021-08-06 14:06:27,536352
0,-1,0,-3,0,1,-1,0,2021-08-06 14:06:27,536352
-1,-2,-1,-2,-1,0,-1,0,2021-08-06 14:06:27,536352
-2,-2,-1,0,1,1,0,-1,2021-08-06 14:06:27,536352
-1,-1,-1,0,2,-1,-2,-2,2021-08-06 14:06:27,537350
-1,-2,0,1,-1,-2,-2,-2,2021-08-06 14:06:27,537350
-1,-1,-1,-1,-1,0,-2,-1,2021-08-06 14:06:27,551341
-1,0,1,-2,-2,-2,0,0,2021-08-06 14:06:27,551341
2,-1,0,-1,-2,-2,-1,0,2021-08-06 14:06:27,566313
-1,-1,0,-1,-1,-2,0,0,2021-08-06 14:06:27,581350
-1,0,-1,-1,0,-1,-2,1,2021-08-06 14:06:27,597353
0,-2,-3,-2,-2,-1,0,-1,2021-08-06 14:06:27,613315
0,-2,-1,-1,-1,0,-1,1,2021-08-06 14:06:27,613315
-2,-4,-1,-1,-1,-2,0,0,2021-08-06 14:06:27,613315
0,0,-1,-2,-1,1,0,0,2021-08-06 14:06:27,613315
1,-1,-1,0,-1,0,0,1,2021-08-06 14:06:27,613315
-1,0,-1,-1,-1,1,0,-1,2021-08-06 14:06:27,613315
-1,0,-1,0,0,-1,-2,-1,2021-08-06 14:06:27,613315
0,-2,0,-1,-1,-1,-2,-1,2021-08-06 14:06:27,613315
-1,0,-2,1,-1,-2,-1,-1,2021-08-06 14:06:27,614347
-3,-2,-1,-1,-1,-1,-2,0,2021-08-06 14:06:27,629354
-1,-1,-2,-1,-3,0,0,-2,2021-08-06 14:06:27,629354
-2,-2,0,-1,-2,0,0,-1,2021-08-06 14:06:27,629354
-2,1,0,-3,-1,0,0,1,2021-08-06 14:06:27,629354
-1,1,0,0,-2,-4,-1,0,2021-08-06 14:06:27,660313
-1,-2,-3,-2,-2,0,1,-1,2021-08-06 14:06:27,676359
-1,-2,-1,0,-1,-2,1,-2,2021-08-06 14:06:27,692314
-1,-2,-1,-1,-1,0,0,0,2021-08-06 14:06:27,692314
0,-3,-3,-1,-1,0,0,-1,2021-08-06 14:06:27,692314
-2,-1,-2,-1,-1,-1,-2,-1,2021-08-06 14:06:27,692314
-1,0,-2,-1,-1,-1,0,0,2021-08-06 14:06:27,692314
0,-1,-1,0,1,2,-1,-1,2021-08-06 14:06:27,692314
-1,0,0,-2,0,0,1,-1,2021-08-06 14:06:27,692314
0,-1,0,-1,-1,-1,-1,-1,2021-08-06 14:06:27,692314
-3,-3,-1,1,-1,-2,-2,-3,2021-08-06 14:06:27,693316
0,-1,1,-1,0,-2,-1,0,2021-08-06 14:06:27,693316
-1,-1,-1,-1,-1,1,-2,0,2021-08-06 14:06:27,708317
-2,-1,-2,0,0,1,-3,-3,2021-08-06 14:06:27,708317
0,1,-1,-1,-1,-1,0,1,2021-08-06 14:06:27,708317
-2,-1,-1,-1,-1,-1,-1,-1,2021-08-06 14:06:27,708317
-2,-1,-1,-1,-1,0,1,0,2021-08-06 14:06:27,739365
-2,-1,0,-1,0,-2,-2,0,2021-08-06 14:06:27,739365
-1,1,-2,-1,-4,-1,-2,-2,2021-08-06 14:06:27,739365
-3,-1,-2,-1,0,-2,-2,-3,2021-08-06 14:06:27,739365
0,-1,-1,-1,0,0,0,-1,2021-08-06 14:06:27,739365
-2,-1,0,-1,-2,2,0,-1,2021-08-06 14:06:27,739365
1,-1,-2,0,-2,-1,0,-2,2021-08-06 14:06:27,755353
0,-2,-1,-1,-2,-2,-2,0,2021-08-06 14:06:27,771314
-1,-1,0,0,0,0,-1,-1,2021-08-06 14:06:27,771314
-1,-1,-1,-2,-1,-2,-1,1,2021-08-06 14:06:27,771314
-2,-1,-2,0,1,-1,0,0,2021-08-06 14:06:27,771314
-2,0,-1,1,0,0,0,-2,2021-08-06 14:06:27,771314
-2,-1,-2,-1,-3,0,-1,-1,2021-08-06 14:06:27,790339
3,0,-2,-2,-3,-2,1,1,2021-08-06 14:06:27,790339
-1,-2,-1,-2,1,1,0,-1,2021-08-06 14:06:27,790339
-1,-1,-2,-1,0,0,0,-2,2021-08-06 14:06:27,790339
0,-2,0,0,-1,-3,-3,0,2021-08-06 14:06:27,819354
-1,-1,-2,-1,0,0,-1,0,2021-08-06 14:06:27,819354
-1,-1,-1,-1,-2,1,-1,1,2021-08-06 14:06:27,819354
0,-2,-2,-1,1,-1,-2,-1,2021-08-06 14:06:27,819354
-2,-2,-1,0,0,1,1,-2,2021-08-06 14:06:27,835313
-1,-1,-1,0,0,-2,-1,-2,2021-08-06 14:06:27,835313
-1,1,-1,1,1,0,0,-1,2021-08-06 14:06:27,835313
0,-1,1,-2,-3,-1,-1,-1,2021-08-06 14:06:27,835313
0,-1,-3,-1,0,-2,-1,0,2021-08-06 14:06:27,866314
0,-1,0,-2,0,-1,0,1,2021-08-06 14:06:27,881348
-1,-1,-2,-2,-1,-1,-2,0,2021-08-06 14:06:27,881348
-2,-2,-2,0,-1,-1,1,-1,2021-08-06 14:06:27,881348
-1,0,-1,0,-2,0,-2,-2,2021-08-06 14:06:27,881348
-2,-2,-2,-1,-1,-1,-1,-1,2021-08-06 14:06:27,881348
0,-2,-1,0,-2,-3,-3,-1,2021-08-06 14:06:27,881348
0,0,-1,0,-2,-1,-1,0,2021-08-06 14:06:27,881348
1,-1,0,-1,-1,-2,0,-2,2021-08-06 14:06:27,897314
-1,-1,-2,-1,0,0,-1,-1,2021-08-06 14:06:27,913368
-1,-1,0,-2,0,0,0,-1,2021-08-06 14:06:27,929352
-1,-1,1,0,-1,-1,-1,0,2021-08-06 14:06:27,929352
-3,-3,-3,0,0,0,-1,-3,2021-08-06 14:06:27,929352
0,0,0,-1,-2,-1,0,-2,2021-08-06 14:06:27,929352
0,-1,-1,0,0,0,0,2,2021-08-06 14:06:27,929352
0,1,-1,0,-2,-1,0,0,2021-08-06 14:06:27,929352
-1,-1,-1,-1,-2,-5,-2,0,2021-08-06 14:06:27,929352
0,-1,-3,-1,1,1,0,-1,2021-08-06 14:06:27,929352
-1,-4,-1,0,-1,-1,-1,-3,2021-08-06 14:06:27,929352
-1,-2,-1,-2,-1,-1,-1,-1,2021-08-06 14:06:27,929352
0,-1,0,0,2,0,1,0,2021-08-06 14:06:27,959314
-1,1,0,-2,-2,-2,0,-1,2021-08-06 14:06:27,974313
1,0,1,-1,-1,-1,-1,-1,2021-08-06 14:06:27,989312
0,0,-1,0,0,0,-1,-3,2021-08-06 14:06:28,004314
-2,0,-1,-1,0,0,0,1,2021-08-06 14:06:28,020353
0,0,-2,1,0,0,-2,0,2021-08-06 14:06:28,020353
-1,0,-1,0,-2,-1,-1,-1,2021-08-06 14:06:28,020353
0,-2,1,-2,0,-1,0,0,2021-08-06 14:06:28,020353
0,1,0,-2,-1,-1,-1,-2,2021-08-06 14:06:28,020353
-1,0,-2,0,-1,0,-3,-1,2021-08-06 14:06:28,020353
-2,0,-1,1,0,0,0,1,2021-08-06 14:06:28,020353
-1,-1,-1,-3,0,-1,0,0,2021-08-06 14:06:28,020353
0,0,0,-1,-1,-1,-1,0,2021-08-06 14:06:28,020353
0,-1,-1,1,-3,-2,-2,-3,2021-08-06 14:06:28,020353
-1,0,-2,-2,-2,-1,-2,-1,2021-08-06 14:06:28,021315
0,-2,-1,-2,0,0,1,-1,2021-08-06 14:06:28,021315
-1,-2,-1,0,-1,-1,-1,2,2021-08-06 14:06:28,036312
0,-2,0,0,1,-3,-3,-1,2021-08-06 14:06:28,036312
-1,-1,-1,-1,0,-1,-1,-2,2021-08-06 14:06:28,036312
1,1,0,-1,-2,-1,-2,-1,2021-08-06 14:06:28,036312
-1,0,-1,-3,0,0,0,-1,2021-08-06 14:06:28,052364
0,-3,0,-1,-1,-2,-1,0,2021-08-06 14:06:28,068353
0,-2,1,0,0,-1,-2,-1,2021-08-06 14:06:28,083317
-2,2,-2,-2,0,0,-2,0,2021-08-06 14:06:28,083317
0,-3,-1,2,-1,0,-1,-1,2021-08-06 14:06:28,083317
-2,-2,-1,0,-2,-1,-1,0,2021-08-06 14:06:28,083317
1,0,0,-1,-1,-1,-1,-1,2021-08-06 14:06:28,083317
-1,-1,0,-2,-2,-1,-2,-2,2021-08-06 14:06:28,083317
0,-2,0,0,1,-1,1,0,2021-08-06 14:06:28,098314
-1,0,-2,-2,0,0,-1,0,2021-08-06 14:06:28,113314
0,-1,-1,0,0,-3,-1,-2,2021-08-06 14:06:28,113314
0,-1,-1,-1,0,-1,-1,-2,2021-08-06 14:06:28,113314
1,1,1,-1,-1,-2,-1,-3,2021-08-06 14:06:28,113314
-1,-2,-1,-2,-1,0,0,-1,2021-08-06 14:06:28,113314
0,0,-2,1,-2,1,0,-1,2021-08-06 14:06:28,113314
0,-2,-1,0,-1,0,0,0,2021-08-06 14:06:28,113314
-3,-1,-3,-3,-2,0,-1,-2,2021-08-06 14:06:28,129315
0,0,-1,0,0,-1,-1,0,2021-08-06 14:06:28,129315
0,-2,0,-2,-2,-1,-2,0,2021-08-06 14:06:28,129315
-1,-1,-1,-1,-1,0,-1,-1,2021-08-06 14:06:28,129315
0,-2,-2,0,-1,-1,-2,-2,2021-08-06 14:06:28,152364
-1,-1,-2,-1,-2,-1,0,-1,2021-08-06 14:06:28,152364
-1,-1,-2,-1,-1,-1,-2,-2,2021-08-06 14:06:28,152364
0,-1,-3,1,0,-2,0,0,2021-08-06 14:06:28,152364
0,0,-1,-2,-3,-2,-1,0,2021-08-06 14:06:28,177313
0,-1,0,-2,-1,1,0,-1,2021-08-06 14:06:28,192314
-1,0,0,0,0,2,-1,-1,2021-08-06 14:06:28,208314
-1,-1,-1,0,-2,-1,-1,-1,2021-08-06 14:06:28,208314
-1,-1,-1,0,0,1,-3,-1,2021-08-06 14:06:28,208314
0,-1,0,-1,-1,-1,-1,0,2021-08-06 14:06:28,208314
-1,-1,-2,0,-1,0,1,0,2021-08-06 14:06:28,208314
-2,0,-1,-1,1,0,1,-2,2021-08-06 14:06:28,208314
-1,-2,0,-1,-2,-2,-2,0,2021-08-06 14:06:28,208314
-1,-1,0,-1,-1,-2,-1,-1,2021-08-06 14:06:28,208314
0,-1,-2,-1,-2,-1,-1,-2,2021-08-06 14:06:28,209315
0,0,1,-1,-2,-1,-2,-1,2021-08-06 14:06:28,209315
-1,0,-3,0,-2,-3,-1,1,2021-08-06 14:06:28,224314
-2,-1,-1,-1,0,0,-2,-1,2021-08-06 14:06:28,240349
-2,-2,0,-1,-3,-1,-1,1,2021-08-06 14:06:28,256354
0,-3,-1,-1,0,-2,-1,-1,2021-08-06 14:06:28,256354
0,-1,1,-1,0,-1,-1,-1,2021-08-06 14:06:28,256354
0,-1,0,0,0,0,1,-1,2021-08-06 14:06:28,256354
-1,-1,-1,0,0,-2,-1,1,2021-08-06 14:06:28,256354
-1,0,-2,1,-3,0,-2,0,2021-08-06 14:06:28,256354
-1,0,0,-3,0,-2,-1,-1,2021-08-06 14:06:28,272318
1,-2,-1,1,-1,0,-1,-1,2021-08-06 14:06:28,288316
-1,-1,-2,-1,-2,0,0,-1,2021-08-06 14:06:28,303339
-2,-1,-1,0,-1,0,-1,-1,2021-08-06 14:06:28,303339
-1,0,-1,1,0,1,0,0,2021-08-06 14:06:28,303339
-1,-1,-1,-2,-1,0,0,0,2021-08-06 14:06:28,303339
0,-1,0,-1,-1,-1,0,-1,2021-08-06 14:06:28,303339
-1,-2,-1,0,-1,-1,-1,-1,2021-08-06 14:06:28,303339
1,-2,-1,0,0,-2,-1,0,2021-08-06 14:06:28,303339
0,-1,-1,-2,0,-1,-1,-1,2021-08-06 14:06:28,303339
-2,-1,-2,0,0,0,-1,0,2021-08-06 14:06:28,319315
-1,0,-1,0,-1,0,0,1,2021-08-06 14:06:28,319315
1,-2,-2,-1,-3,0,-2,0,2021-08-06 14:06:28,335314
-1,0,0,0,0,-2,0,1,2021-08-06 14:06:28,350313
0,0,-1,-1,-1,-1,-1,-1,2021-08-06 14:06:28,350313
-1,-2,0,-1,-2,-1,0,1,2021-08-06 14:06:28,350313
-1,0,-2,-3,-1,1,0,-1,2021-08-06 14:06:28,350313
-2,-2,0,-2,-2,1,-1,-1,2021-08-06 14:06:28,350313
-2,-1,-1,-3,-2,-2,0,-1,2021-08-06 14:06:28,350313
-1,-1,-2,1,1,-1,-1,-3,2021-08-06 14:06:28,350313
-2,-1,0,-1,0,0,0,-1,2021-08-06 14:06:28,380314
-1,-1,0,0,-1,-1,-1,-1,2021-08-06 14:06:28,380314
-2,-1,-1,0,-1,-1,-2,0,2021-08-06 14:06:28,380314
-1,0,-1,-2,0,-1,-2,0,2021-08-06 14:06:28,380314
-2,0,-1,-2,-1,0,1,0,2021-08-06 14:06:28,396315
-1,-1,-2,-1,-1,-1,-1,-2,2021-08-06 14:06:28,411351
-1,-1,-1,-1,-1,-2,-1,-2,2021-08-06 14:06:28,411351
0,0,1,-2,-1,-1,-1,0,2021-08-06 14:06:28,411351
1,-1,-1,1,-2,0,0,-1,2021-08-06 14:06:28,411351
-1,-1,0,0,-1,0,-3,0,2021-08-06 14:06:28,411351
-1,-1,-1,-2,-3,-1,-1,0,2021-08-06 14:06:28,411351
1,-2,-1,-1,-1,-2,-1,-1,2021-08-06 14:06:28,411351
-2,-1,-2,0,-1,0,0,-2,2021-08-06 14:06:28,427313
1,-2,-2,-3,-1,0,0,-2,2021-08-06 14:06:28,427313
1,1,-1,0,0,0,-2,-1,2021-08-06 14:06:28,427313
-2,0,0,0,-1,-2,0,-2,2021-08-06 14:06:28,427313
-1,-1,0,-1,-2,0,-1,-1,2021-08-06 14:06:28,457312
0,-1,0,0,0,-2,0,-1,2021-08-06 14:06:28,457312
-1,-1,-2,-2,0,0,1,0,2021-08-06 14:06:28,457312
-1,-1,-3,-2,0,-1,0,0,2021-08-06 14:06:28,457312
-1,-3,-2,0,1,1,-4,-1,2021-08-06 14:06:28,472314
-3,0,0,1,0,-2,-1,-2,2021-08-06 14:06:28,472314
-1,0,1,-1,-1,-2,-3,-2,2021-08-06 14:06:28,472314
-2,-1,2,-1,-1,0,0,-2,2021-08-06 14:06:28,472314
-1,-1,-1,-1,-2,-3,-1,-1,2021-08-06 14:06:28,488313
1,-1,-2,-2,-1,-2,-1,1,2021-08-06 14:06:28,488313
0,0,-1,-2,0,-1,0,-1,2021-08-06 14:06:28,488313
-1,0,-1,-2,-1,-2,-1,-2,2021-08-06 14:06:28,488313
-2,0,-2,-2,-1,0,-1,0,2021-08-06 14:06:28,506314
-2,0,0,0,-1,-1,0,0,2021-08-06 14:06:28,506314
0,-2,-2,1,-1,-1,-1,0,2021-08-06 14:06:28,507315
1,-1,-2,1,-1,0,0,-1,2021-08-06 14:06:28,507315
-2,0,-1,-1,0,0,-1,-1,2021-08-06 14:06:28,535316
0,-1,0,-1,-1,0,-1,-1,2021-08-06 14:06:28,535316
0,0,-2,-2,-1,0,-2,0,2021-08-06 14:06:28,535316
-1,0,0,-1,0,1,-2,-1,2021-08-06 14:06:28,535316
1,-1,0,-2,0,-1,-1,-2,2021-08-06 14:06:28,566342
-3,-1,-2,0,0,0,-2,-1,2021-08-06 14:06:28,582316
-1,0,-1,1,0,0,1,0,2021-08-06 14:06:28,582316
0,0,0,-1,-1,-1,-1,0,2021-08-06 14:06:28,582316
-1,-1,-1,-1,0,-3,-1,-1,2021-08-06 14:06:28,582316
0,-1,-1,-2,-2,0,-2,0,2021-08-06 14:06:28,582316
-1,-1,0,-1,-1,0,-1,-3,2021-08-06 14:06:28,582316
-2,-1,-2,-1,-1,-3,-2,-1,2021-08-06 14:06:28,582316
-2,0,1,-3,-1,0,-1,1,2021-08-06 14:06:28,583314
0,-1,0,-2,0,-1,0,-2,2021-08-06 14:06:28,583314
-1,-2,-3,-3,-2,-1,-2,-1,2021-08-06 14:06:28,598351
-1,-3,-2,0,-2,1,-2,-1,2021-08-06 14:06:28,598351
-1,-1,-1,-1,-1,-2,1,-1,2021-08-06 14:06:28,613340
-1,-2,-2,-1,0,0,0,1,2021-08-06 14:06:28,628315
-1,-1,-1,0,0,0,-2,-2,2021-08-06 14:06:28,643313
0,0,0,-1,-1,1,-1,-1,2021-08-06 14:06:28,643313
-1,-1,-1,0,1,-1,-1,-1,2021-08-06 14:06:28,643313
0,-1,0,-1,-1,-2,-1,-3,2021-08-06 14:06:28,643313
-1,-2,0,-2,1,-2,0,-1,2021-08-06 14:06:28,643313
0,-3,0,-2,-1,-2,-2,-1,2021-08-06 14:06:28,643313
0,-1,-2,0,-1,0,-1,0,2021-08-06 14:06:28,658315
-1,-2,0,-1,-2,-1,-1,0,2021-08-06 14:06:28,658315
0,0,-1,-1,-2,-1,-1,0,2021-08-06 14:06:28,674313
-1,0,-1,-1,0,-1,0,1,2021-08-06 14:06:28,690337
1,-1,-1,-1,-2,-1,0,-1,2021-08-06 14:06:28,706339
-2,0,-1,-1,-1,-1,-2,-1,2021-08-06 14:06:28,722318
-1,-1,-1,-1,-1,-2,0,-2,2021-08-06 14:06:28,738313
0,-1,-3,-1,-1,0,1,-1,2021-08-06 14:06:28,738313
-1,0,0,-2,0,-1,-1,-1,2021-08-06 14:06:28,738313
-1,-1,-1,-1,1,0,1,-1,2021-08-06 14:06:28,738313
-1,-1,1,1,-2,-1,-1,0,2021-08-06 14:06:28,738313
-1,-1,0,0,1,-2,0,-1,2021-08-06 14:06:28,738313
-1,-2,-3,0,0,-1,0,1,2021-08-06 14:06:28,738313
-1,0,-1,-1,-1,-1,-1,0,2021-08-06 14:06:28,739351
1,-2,-1,-1,-1,0,0,0,2021-08-06 14:06:28,739351
-1,-2,-1,-1,-3,0,-1,0,2021-08-06 14:06:28,739351
-2,-1,-3,-1,-1,0,-1,0,2021-08-06 14:06:28,739351
-1,2,-1,-1,-2,0,-2,-2,2021-08-06 14:06:28,739351
-1,0,-1,0,0,0,0,0,2021-08-06 14:06:28,739351
1,-1,-3,-2,-1,-1,0,-1,2021-08-06 14:06:28,739351
-1,-1,-1,-1,1,-1,0,0,2021-08-06 14:06:28,754348
0,-1,-2,0,-1,-1,-1,-2,2021-08-06 14:06:28,754348
-1,-2,0,0,-2,0,-1,0,2021-08-06 14:06:28,754348
0,0,0,0,-1,0,-1,-1,2021-08-06 14:06:28,754348
-2,-1,1,0,-2,-1,-1,0,2021-08-06 14:06:28,785945
0,-2,-1,-1,-1,-1,0,0,2021-08-06 14:06:28,785945
-1,-1,-2,-2,0,-1,0,1,2021-08-06 14:06:28,785945
0,0,0,0,-1,-1,-2,0,2021-08-06 14:06:28,785945
-1,-1,-2,-1,-2,-1,-3,-3,2021-08-06 14:06:28,785945
-2,-2,0,-2,-2,0,0,-2,2021-08-06 14:06:28,785945
-2,0,-1,-1,-2,-2,0,-1,2021-08-06 14:06:28,801260
0,0,-1,-1,-1,-2,-2,-1,2021-08-06 14:06:28,801260
1,0,0,-1,0,0,0,-2,2021-08-06 14:06:28,816261
-2,-1,-2,0,-2,-1,0,1,2021-08-06 14:06:28,832262
-1,0,-1,-3,-1,-1,-1,-2,2021-08-06 14:06:28,832262
0,-2,0,-2,-1,-1,0,-2,2021-08-06 14:06:28,832262
-1,-1,-1,-1,0,0,0,-2,2021-08-06 14:06:28,832262
-1,-1,-1,-1,0,-2,-2,0,2021-08-06 14:06:28,832262
-3,-1,-1,-1,-2,-1,0,0,2021-08-06 14:06:28,832262
0,0,0,0,0,0,0,0,2021-08-06 14:06:28,832262
0,-1,-2,-2,-1,-1,-2,-3,2021-08-06 14:06:28,847260
0,-2,0,1,0,-2,0,-1,2021-08-06 14:06:28,847260
1,-1,-1,-1,1,0,0,-1,2021-08-06 14:06:28,862313
-1,-1,-1,-1,-1,-1,1,-2,2021-08-06 14:06:28,866309
-1,0,0,-2,-1,-1,0,0,2021-08-06 14:06:28,866309
-1,-1,-2,-1,-1,-1,-2,0,2021-08-06 14:06:28,867260
1,-1,-2,-1,-3,1,-1,-1,2021-08-06 14:06:28,867260
0,1,0,0,0,0,-1,-1,2021-08-06 14:06:28,867260
0,-2,0,-2,-2,-1,-1,-1,2021-08-06 14:06:28,894285
0,1,-2,-2,-1,-2,-1,-2,2021-08-06 14:06:28,894285
-1,0,0,1,0,-2,0,-1,2021-08-06 14:06:28,894285
-4,-1,-1,-1,0,0,-1,-2,2021-08-06 14:06:28,894285
-2,0,0,-1,-2,-2,0,-1,2021-08-06 14:06:28,910286
0,-1,0,-2,-2,1,0,0,2021-08-06 14:06:28,910286
1,-1,0,-2,-2,-2,-2,-1,2021-08-06 14:06:28,926285
-2,-1,-2,-2,-2,-1,-2,-1,2021-08-06 14:06:28,926285
-2,-1,-1,2,-1,0,-2,0,2021-08-06 14:06:28,926285
0,-1,0,-1,-2,0,-1,-2,2021-08-06 14:06:28,926285
-2,0,-1,0,-1,0,-2,-1,2021-08-06 14:06:28,942261
-2,-1,0,-1,-1,-1,0,0,2021-08-06 14:06:28,942261
0,0,-2,-2,-1,0,-2,1,2021-08-06 14:06:28,957261
-1,-1,-3,-1,-1,-3,-1,-2,2021-08-06 14:06:28,972261
0,-2,-2,-1,-1,-1,0,-2,2021-08-06 14:06:28,987264
-1,-2,0,-1,0,0,-1,-1,2021-08-06 14:06:28,987264
-1,-2,-1,-1,-1,-1,-1,-2,2021-08-06 14:06:28,987264
0,-2,0,-1,-2,-1,-2,0,2021-08-06 14:06:28,987264
0,-1,-1,-1,0,-2,-1,-1,2021-08-06 14:06:28,987264
-1,-1,-1,0,-1,-1,-1,1,2021-08-06 14:06:28,987264
2,-1,-1,-1,-2,1,1,-1,2021-08-06 14:06:28,987264
-2,-2,-1,0,-2,0,-2,-1,2021-08-06 14:06:28,988263
0,-2,-1,0,-1,0,-2,-2,2021-08-06 14:06:28,988263
-1,-3,-2,-2,0,0,-1,0,2021-08-06 14:06:28,988263
-1,-1,0,0,-1,-1,-2,-1,2021-08-06 14:06:29,034261
-1,-1,-1,-3,0,-1,0,-1,2021-08-06 14:06:29,050261
-1,0,0,-2,-1,-1,0,-1,2021-08-06 14:06:29,050261
0,0,-1,0,-1,0,-1,0,2021-08-06 14:06:29,050261
-1,-1,0,-1,-2,0,0,0,2021-08-06 14:06:29,050261
-2,0,-2,0,0,0,0,0,2021-08-06 14:06:29,050261
0,-2,-1,-1,0,-1,-1,-2,2021-08-06 14:06:29,050261
0,0,-2,0,-1,-2,-1,-2,2021-08-06 14:06:29,050261
-1,-2,0,-2,0,-1,-1,0,2021-08-06 14:06:29,050261
-1,-1,-2,-1,0,-1,-1,-2,2021-08-06 14:06:29,050261
-2,-1,0,0,0,0,-2,0,2021-08-06 14:06:29,051261
-1,0,-2,-1,-1,-1,-2,0,2021-08-06 14:06:29,051261
-2,0,-1,-1,0,-1,0,-3,2021-08-06 14:06:29,082261
1,-2,-1,0,0,-1,-2,0,2021-08-06 14:06:29,098297
-1,-1,0,-1,-2,-1,-1,-1,2021-08-06 14:06:29,113261
0,0,-1,0,0,-1,-1,0,2021-08-06 14:06:29,113261
-1,-1,-2,0,-1,-1,-1,0,2021-08-06 14:06:29,113261
0,0,0,-2,-1,-1,2,1,2021-08-06 14:06:29,113261
-1,-1,-1,0,-1,0,0,-1,2021-08-06 14:06:29,113261
-1,-2,1,0,-2,-1,0,-1,2021-08-06 14:06:29,113261
-1,-2,1,0,-2,-1,-3,-1,2021-08-06 14:06:29,113261
-1,0,-1,0,0,0,0,-2,2021-08-06 14:06:29,113261
-1,0,-2,0,0,-1,-1,2,2021-08-06 14:06:29,113261
-1,-1,-1,0,-2,0,0,0,2021-08-06 14:06:29,114287
0,-1,0,0,1,-1,1,-1,2021-08-06 14:06:29,143262
-2,-2,0,-1,1,-3,1,0,2021-08-06 14:06:29,159287
-2,-1,-1,-1,0,0,-2,-1,2021-08-06 14:06:29,175261
-2,-2,-3,-1,-1,-1,-1,0,2021-08-06 14:06:29,175261
1,-1,0,-1,-2,0,-1,-1,2021-08-06 14:06:29,175261
-1,-1,-2,-1,-1,0,-2,0,2021-08-06 14:06:29,175261
-1,-2,-1,-2,-3,-2,-1,-1,2021-08-06 14:06:29,175261
-1,-1,0,-2,-1,-3,-1,-1,2021-08-06 14:06:29,175261
-1,-1,-1,0,-1,-1,0,0,2021-08-06 14:06:29,175261
-1,0,0,1,-1,-1,0,-1,2021-08-06 14:06:29,175261
0,-1,0,-1,0,-2,0,-1,2021-08-06 14:06:29,176263
0,-1,-1,-3,0,2,-1,-2,2021-08-06 14:06:29,176263
-1,0,-2,-3,0,-2,-1,-1,2021-08-06 14:06:29,207289
-1,-1,0,-1,-2,0,0,0,2021-08-06 14:06:29,223289
-1,-1,-1,-1,-1,-4,-1,-1,2021-08-06 14:06:29,225267
-1,-1,-1,-1,-2,-1,-1,-3,2021-08-06 14:06:29,225267
0,-2,-1,-1,-2,-1,0,-1,2021-08-06 14:06:29,226262
-2,0,-2,-2,-1,-2,-2,-1,2021-08-06 14:06:29,226262
0,0,-1,0,0,0,0,-3,2021-08-06 14:06:29,226262
-1,0,-1,1,-1,-2,1,-2,2021-08-06 14:06:29,226262
-2,-2,-1,0,-2,-1,-1,0,2021-08-06 14:06:29,226262
-1,-1,-1,0,-2,0,0,0,2021-08-06 14:06:29,226262
1,0,-1,-2,-1,1,-1,0,2021-08-06 14:06:29,226262
0,-1,-1,0,0,0,-2,-1,2021-08-06 14:06:29,226262
-3,-1,-4,-7,-11,-8,-4,-2,2021-08-06 14:06:29,255259
-2,-3,-3,-6,-8,-4,-2,-1,2021-08-06 14:06:29,271263
1,2,3,14,25,14,5,3,2021-08-06 14:06:29,286261
0,0,-1,2,3,1,-1,-1,2021-08-06 14:06:29,286261
-1,-1,-3,-9,-14,-9,-5,-2,2021-08-06 14:06:29,286261
1,0,3,3,3,5,2,1,2021-08-06 14:06:29,286261
0,-1,-2,0,-5,-5,-2,-1,2021-08-06 14:06:29,286261
-1,1,-1,1,4,3,3,1,2021-08-06 14:06:29,286261
-1,-2,0,3,0,-3,-1,-2,2021-08-06 14:06:29,286261
-2,-1,-3,-9,-11,-7,-5,-2,2021-08-06 14:06:29,287262
-4,-2,-2,-6,-6,-1,-3,-2,2021-08-06 14:06:29,301295
-2,0,0,1,0,-1,-1,-1,2021-08-06 14:06:29,317259
-1,-1,-3,-4,-4,-2,-2,0,2021-08-06 14:06:29,333299
0,-2,-2,-4,-4,-2,-2,-2,2021-08-06 14:06:29,349260
0,-2,-3,-6,-10,-6,-2,-2,2021-08-06 14:06:29,365260
1,2,5,3,9,9,4,1,2021-08-06 14:06:29,365260
2,2,6,14,23,11,6,2,2021-08-06 14:06:29,365260
-1,-1,-2,-2,0,-2,-3,-1,2021-08-06 14:06:29,365260
1,1,3,5,4,2,-1,1,2021-08-06 14:06:29,365260
-2,-1,-4,-4,-10,-6,-3,-1,2021-08-06 14:06:29,365260
-1,-2,-2,1,0,1,0,0,2021-08-06 14:06:29,366295
-2,-1,1,1,2,1,-1,-2,2021-08-06 14:06:29,366295
-4,-3,-6,-11,-16,-12,-5,-3,2021-08-06 14:06:29,366295
-1,-3,-2,-1,1,-2,-3,-2,2021-08-06 14:06:29,366295
3,4,5,9,13,11,6,2,2021-08-06 14:06:29,380295
1,0,-2,0,-4,-5,-1,-3,2021-08-06 14:06:29,395261
-3,-4,-6,-10,-13,-7,-3,-3,2021-08-06 14:06:29,410261
2,2,6,16,27,13,5,4,2021-08-06 14:06:29,410261
-4,-3,-7,-7,-7,-3,-3,-2,2021-08-06 14:06:29,410261
-1,0,2,4,7,8,9,3,2021-08-06 14:06:29,410261
0,0,1,2,6,2,0,1,2021-08-06 14:06:29,410261
-2,-3,-7,-10,-18,-18,-14,-7,2021-08-06 14:06:29,410261
-2,0,1,0,-2,2,1,0,2021-08-06 14:06:29,410261
2,5,3,8,10,15,11,5,2021-08-06 14:06:29,411261
-4,-1,-2,-3,-7,-7,-4,-3,2021-08-06 14:06:29,411261
-23,-22,-13,-16,-26,-34,-32,-24,2021-08-06 14:06:29,411261
1,-2,-1,-3,1,5,0,3,2021-08-06 14:06:29,442297
2,1,-2,-4,-5,-8,-9,-2,2021-08-06 14:06:29,458305
2,1,1,4,7,11,9,4,2021-08-06 14:06:29,458305
11,8,5,3,4,8,11,12,2021-08-06 14:06:29,458305
-11,-6,-5,-4,-5,-7,-8,-12,2021-08-06 14:06:29,458305
3,0,3,3,9,10,10,6,2021-08-06 14:06:29,458305
-2,-2,-1,-1,-6,-7,-7,-4,2021-08-06 14:06:29,459263
3,1,0,1,1,4,3,1,2021-08-06 14:06:29,459263
7,6,2,1,-1,-1,4,4,2021-08-06 14:06:29,490309
-17,-12,-9,-8,-9,-12,-13,-12,2021-08-06 14:06:29,490309
-3,-4,-2,1,4,0,0,-1,2021-08-06 14:06:29,490309
2,3,-1,-1,-1,5,5,3,2021-08-06 14:06:29,490309
1,-2,-3,-1,-3,-2,1,0,2021-08-06 14:06:29,490309
1,0,0,0,-5,-8,-6,-4,2021-08-06 14:06:29,491264
-1,1,3,4,3,4,2,-1,2021-08-06 14:06:29,491264
0,0,-1,0,5,9,9,3,2021-08-06 14:06:29,491264
-1,4,0,-3,-6,-11,-10,-8,2021-08-06 14:06:29,521259
1,3,0,2,0,2,-2,0,2021-08-06 14:06:29,521259
-7,-8,-6,-3,-6,-4,0,0,2021-08-06 14:06:29,521259
2,1,0,0,-1,3,1,1,2021-08-06 14:06:29,521259
-4,-7,-3,-1,0,1,-2,-1,2021-08-06 14:06:29,537295
8,8,4,0,0,4,4,4,2021-08-06 14:06:29,553260
1,2,2,1,1,-2,-1,-1,2021-08-06 14:06:29,569296
-2,0,1,0,0,-4,-5,-3,2021-08-06 14:06:29,569296
-1,-2,-2,-4,-5,-6,-3,-2,2021-08-06 14:06:29,569296
-14,-10,-6,-3,-1,1,0,-6,2021-08-06 14:06:29,569296
-1,-1,1,4,10,11,4,1,2021-08-06 14:06:29,569296
2,-3,-3,-3,-6,-1,9,9,2021-08-06 14:06:29,569296
-18,-13,-9,-14,-24,-23,-27,-21,2021-08-06 14:06:29,585262
7,3,5,12,18,18,8,6,2021-08-06 14:06:29,585262
5,8,7,12,19,4,4,3,2021-08-06 14:06:29,585262
-5,-4,-6,-4,-8,-9,-6,-6,2021-08-06 14:06:29,585262
4,4,2,0,3,5,7,8,2021-08-06 14:06:29,585262
-3,-3,-1,2,-4,-7,-8,-5,2021-08-06 14:06:29,585262
3,2,0,-6,-9,-3,0,0,2021-08-06 14:06:29,601262
10,8,5,6,6,9,5,4,2021-08-06 14:06:29,601262
1,-2,0,2,3,8,14,8,2021-08-06 14:06:29,617261
-6,-7,-7,-10,-12,-15,-11,-6,2021-08-06 14:06:29,633262
-5,-7,-6,-4,-1,-2,-6,-7,2021-08-06 14:06:29,633262
4,3,4,3,5,4,3,2,2021-08-06 14:06:29,633262
1,3,0,-2,-7,-4,-4,-4,2021-08-06 14:06:29,633262
-2,1,2,2,3,4,2,2,2021-08-06 14:06:29,633262
2,1,-1,-5,-6,-1,5,5,2021-08-06 14:06:29,633262
-4,-4,-6,-12,-10,-6,-11,-10,2021-08-06 14:06:29,633262
-6,-4,-3,-3,3,4,7,2,2021-08-06 14:06:29,649259
7,4,6,8,9,6,5,4,2021-08-06 14:06:29,665285
-2,-4,-4,-1,-3,-2,-3,-3,2021-08-06 14:06:29,681287
1,1,1,-2,-3,-3,-3,-1,2021-08-06 14:06:29,681287
-1,0,-1,-1,-1,-2,-4,-6,2021-08-06 14:06:29,681287
-6,-6,-6,-11,-14,-13,-11,-10,2021-08-06 14:06:29,681287
-1,-1,0,-2,-5,2,7,5,2021-08-06 14:06:29,681287
-5,-4,-2,-1,1,-2,-2,-2,2021-08-06 14:06:29,681287
1,0,3,7,12,7,1,1,2021-08-06 14:06:29,697297
-2,-1,-3,1,-1,-2,0,0,2021-08-06 14:06:29,713261
1,-1,1,-1,1,3,-1,0,2021-08-06 14:06:29,728261
5,3,3,3,-1,0,-1,0,2021-08-06 14:06:29,728261
3,4,1,1,-2,1,5,6,2021-08-06 14:06:29,728261
-4,-3,-4,-5,-6,-7,-5,-3,2021-08-06 14:06:29,728261
0,-1,-3,-4,-7,-6,-6,-4,2021-08-06 14:06:29,728261
-6,-5,-3,-2,-5,-4,1,1,2021-08-06 14:06:29,728261
4,3,1,-2,1,3,2,1,2021-08-06 14:06:29,728261
2,-1,0,1,1,3,2,-1,2021-08-06 14:06:29,729001
-2,-1,-1,-3,-6,-6,-3,0,2021-08-06 14:06:29,744278
-3,-2,-1,-2,-1,-1,0,0,2021-08-06 14:06:29,760316
-1,-2,1,5,7,3,0,1,2021-08-06 14:06:29,760316
0,1,-1,-3,-1,-1,-1,3,2021-08-06 14:06:29,760316
0,0,1,-1,-1,-3,-5,-2,2021-08-06 14:06:29,760316
-4,-4,-3,-2,-1,2,2,-2,2021-08-06 14:06:29,760316
5,3,1,4,3,1,0,2,2021-08-06 14:06:29,792280
-3,-2,-1,-3,-4,-3,0,-1,2021-08-06 14:06:29,807282
1,1,1,0,2,3,-2,-3,2021-08-06 14:06:29,807282
1,1,-1,-2,-1,-2,-1,-1,2021-08-06 14:06:29,807282
1,0,1,1,-3,-1,-1,-1,2021-08-06 14:06:29,807282
3,1,0,0,2,2,3,1,2021-08-06 14:06:29,807282
-3,-6,-5,-2,-6,-7,-5,0,2021-08-06 14:06:29,807282
-3,-2,-1,-1,-2,0,-3,-3,2021-08-06 14:06:29,807282
-1,-3,-2,-3,-3,-2,0,0,2021-08-06 14:06:29,823278
-1,-1,0,-1,-1,-2,-2,-2,2021-08-06 14:06:29,823278
-1,-1,-2,-4,-5,-2,0,-2,2021-08-06 14:06:29,823278
0,1,1,2,5,2,1,1,2021-08-06 14:06:29,823278
0,0,0,3,6,2,0,1,2021-08-06 14:06:29,839330
-1,-2,-3,-5,-11,-7,-3,-1,2021-08-06 14:06:29,839330
-5,-1,-2,-1,1,1,-2,-3,2021-08-06 14:06:29,871281
0,-1,-1,2,5,0,3,3,2021-08-06 14:06:29,871281
-4,0,0,-1,-4,-4,-4,-3,2021-08-06 14:06:29,871281
-2,-4,-3,0,-3,-2,-4,-1,2021-08-06 14:06:29,871281
0,0,-1,-4,-5,-2,-1,-2,2021-08-06 14:06:29,871281
2,2,2,4,9,5,3,2,2021-08-06 14:06:29,871281
-2,-2,-1,1,3,2,0,-2,2021-08-06 14:06:29,871281
3,1,2,-3,-3,-2,0,2,2021-08-06 14:06:29,871281
0,1,0,0,-2,-1,-2,0,2021-08-06 14:06:29,887328
-2,-1,0,-3,-6,-3,-3,-2,2021-08-06 14:06:29,903328
0,-3,-3,0,0,-3,-1,1,2021-08-06 14:06:29,919302
0,1,-2,-3,-2,-1,2,-1,2021-08-06 14:06:29,919302
-1,-1,-1,0,4,-1,1,-2,2021-08-06 14:06:29,935279
0,-1,1,4,4,1,-2,-1,2021-08-06 14:06:29,946280
-2,-2,-4,-5,-6,-4,-4,-3,2021-08-06 14:06:29,946280
-1,-1,1,4,8,6,0,0,2021-08-06 14:06:29,947305
0,-1,-3,-7,-14,-10,-3,-1,2021-08-06 14:06:29,947305
-7,-6,-4,-10,-14,-8,-6,-7,2021-08-06 14:06:29,947305
3,4,5,14,26,15,7,4,2021-08-06 14:06:29,947305
2,0,1,9,11,6,2,-2,2021-08-06 14:06:29,947305
0,0,-1,4,6,7,3,-1,2021-08-06 14:06:29,947305
-4,-4,-6,-12,-19,-15,-8,-4,2021-08-06 14:06:29,947305
3,2,3,3,5,4,2,1,2021-08-06 14:06:29,948306
-1,-1,0,-2,-2,-1,1,2,2021-08-06 14:06:29,948306
1,-1,0,0,4,2,2,0,2021-08-06 14:06:29,966315
-2,-2,-3,-1,-4,-3,-2,-1,2021-08-06 14:06:29,966315
1,0,0,-5,-4,-2,-2,1,2021-08-06 14:06:29,982281
-2,-1,-4,-4,-1,-1,-2,-2,2021-08-06 14:06:29,982281
0,1,0,1,-2,0,-1,1,2021-08-06 14:06:29,982281
-2,-2,1,3,3,1,0,-1,2021-08-06 14:06:29,982281
-3,-1,-1,-3,-6,-3,-2,-2,2021-08-06 14:06:29,998315
-2,-2,-2,-5,-9,-6,-3,-1,2021-08-06 14:06:30,013308
-6,-7,-6,-4,-2,-3,-4,-5,2021-08-06 14:06:30,013308
3,4,5,7,15,11,7,5,2021-08-06 14:06:30,013308
-1,-1,0,-5,-15,-10,-4,-3,2021-08-06 14:06:30,013308
1,-2,-1,7,11,5,2,-1,2021-08-06 14:06:30,013308
1,-1,-5,1,0,-1,-1,1,2021-08-06 14:06:30,013308
-5,-6,-5,-11,-18,-12,-5,-5,2021-08-06 14:06:30,013308
0,-1,-1,-3,-7,2,3,1,2021-08-06 14:06:30,044314
4,7,7,6,13,7,7,3,2021-08-06 14:06:30,044314
5,5,4,7,8,6,2,2,2021-08-06 14:06:30,044314
-1,-1,-3,4,5,1,-2,-3,2021-08-06 14:06:30,044314
-4,-5,-5,-16,-21,-16,-8,-5,2021-08-06 14:06:30,060318
-3,-2,-5,-7,-10,-7,-4,-3,2021-08-06 14:06:30,060318
-1,-1,2,4,7,5,1,0,2021-08-06 14:06:30,060318
2,1,3,1,1,2,1,1,2021-08-06 14:06:30,060318
-2,-2,-2,-1,0,-2,-2,-1,2021-08-06 14:06:30,076278
-3,0,-2,-4,-6,-4,-1,-1,2021-08-06 14:06:30,092281
1,1,0,-1,2,-2,-1,0,2021-08-06 14:06:30,092281
0,0,1,0,0,2,0,0,2021-08-06 14:06:30,092281
-1,-3,-1,-1,8,4,2,-1,2021-08-06 14:06:30,092281
0,-1,2,4,0,0,-4,-1,2021-08-06 14:06:30,092281
-3,-1,-1,-5,-10,-6,-4,-2,2021-08-06 14:06:30,092281
-1,-4,-7,-11,-14,-8,0,1,2021-08-06 14:06:30,092281
0,-1,-1,1,4,3,1,0,2021-08-06 14:06:30,124280
1,3,3,4,10,4,3,2,2021-08-06 14:06:30,124280
1,2,4,-1,0,1,0,-1,2021-08-06 14:06:30,124280
1,0,1,7,13,8,1,-1,2021-08-06 14:06:30,124280
-4,-4,-4,-11,-15,-10,-4,-4,2021-08-06 14:06:30,124280
0,-1,-2,-4,-7,-3,-3,0,2021-08-06 14:06:30,124280
1,-1,0,4,4,1,2,-1,2021-08-06 14:06:30,140278
-1,-1,0,1,0,-3,-2,-2,2021-08-06 14:06:30,140278
-2,-2,-2,-2,-7,-3,-2,-2,2021-08-06 14:06:30,156316
0,-1,-1,-1,-2,1,2,0,2021-08-06 14:06:30,156316
-2,-2,0,0,0,-2,1,0,2021-08-06 14:06:30,156316
1,-1,-3,-3,1,1,0,-1,2021-08-06 14:06:30,156316
-1,0,1,-1,-3,-3,-4,-1,2021-08-06 14:06:30,187278
-4,-4,1,-5,-7,-5,-4,-4,2021-08-06 14:06:30,202327
0,0,-4,5,1,2,1,1,2021-08-06 14:06:30,218282
-1,-2,-2,1,3,2,0,1,2021-08-06 14:06:30,233280
1,3,1,6,10,5,2,1,2021-08-06 14:06:30,248328
-1,-1,-3,-2,-4,-4,-2,-3,2021-08-06 14:06:30,248328
0,0,6,2,4,2,0,-1,2021-08-06 14:06:30,264329
-3,0,0,-2,-5,-3,-3,-2,2021-08-06 14:06:30,264329
-1,0,-2,4,6,4,2,1,2021-08-06 14:06:30,264329
-2,-4,-2,-6,-8,-5,-3,0,2021-08-06 14:06:30,264329
-1,-1,-2,-6,-7,-4,-3,-2,2021-08-06 14:06:30,264329
0,2,1,7,16,9,2,1,2021-08-06 14:06:30,264329
2,4,5,12,9,5,2,0,2021-08-06 14:06:30,265318
-4,-1,-4,-8,-6,-3,0,-1,2021-08-06 14:06:30,265318
-3,-3,-5,-5,-6,-7,-3,-3,2021-08-06 14:06:30,265318
1,3,0,-5,-7,-3,0,0,2021-08-06 14:06:30,265318
-1,-1,0,-2,1,0,0,-1,2021-08-06 14:06:30,265318
0,-1,-4,-2,-4,-4,-3,-3,2021-08-06 14:06:30,265318
-1,0,2,3,4,2,1,1,2021-08-06 14:06:30,265318
-3,-3,1,-1,-3,-5,-3,-3,2021-08-06 14:06:30,265318
-1,-1,-5,-7,-12,-6,-1,0,2021-08-06 14:06:30,280322
6,4,5,14,21,13,7,6,2021-08-06 14:06:30,296280
-1,-3,-5,-9,-6,-4,-1,-1,2021-08-06 14:06:30,296280
-3,-2,0,1,0,0,-2,-2,2021-08-06 14:06:30,296280
-3,-5,-1,-2,-7,-5,-4,-5,2021-08-06 14:06:30,296280
-4,-3,-3,-5,-7,-5,-4,-3,2021-08-06 14:06:30,296280
-1,0,3,9,8,2,-1,-2,2021-08-06 14:06:30,296280
1,2,3,4,4,3,2,0,2021-08-06 14:06:30,296280
-2,-4,-1,-2,-5,-6,-5,-1,2021-08-06 14:06:30,307278
1,0,1,9,14,8,3,1,2021-08-06 14:06:30,307278
0,-2,-2,-2,-6,-5,-2,1,2021-08-06 14:06:30,327286
1,-1,-1,-1,-5,-4,-2,-2,2021-08-06 14:06:30,327286
-1,0,-1,-2,1,-1,-2,-1,2021-08-06 14:06:30,327286
-2,-3,-4,-5,-7,-5,-3,-2,2021-08-06 14:06:30,327286
-2,-2,-6,-18,-7,-3,-2,-1,2021-08-06 14:06:30,343330
-3,-5,-5,-7,-7,-2,-3,-2,2021-08-06 14:06:30,343330
1,-1,-1,6,5,2,3,1,2021-08-06 14:06:30,359329
-1,0,5,11,1,-1,-2,-1,2021-08-06 14:06:30,375280
3,3,3,6,5,6,3,2,2021-08-06 14:06:30,375280
-4,-5,-9,-11,-9,-6,-4,-2,2021-08-06 14:06:30,375280
0,-1,-3,-9,-3,-2,-1,0,2021-08-06 14:06:30,375280
-1,-2,-2,-4,-5,-2,-1,-1,2021-08-06 14:06:30,375280
-2,-2,1,0,-4,-3,-3,-2,2021-08-06 14:06:30,375280
4,6,7,16,20,14,8,4,2021-08-06 14:06:30,375280
0,-1,0,5,6,2,0,-2,2021-08-06 14:06:30,407278
-2,-1,-6,-10,-12,-8,-4,-4,2021-08-06 14:06:30,407278
0,0,0,4,2,0,0,1,2021-08-06 14:06:30,407278
0,-1,-2,-5,-4,-3,-1,-1,2021-08-06 14:06:30,407278
0,0,-2,-5,-3,-1,-2,1,2021-08-06 14:06:30,423279
-2,-1,-2,-4,-7,-4,-3,-3,2021-08-06 14:06:30,439328
0,-1,-1,-2,-5,-3,-3,-2,2021-08-06 14:06:30,455314
-1,-1,1,2,0,-2,-1,0,2021-08-06 14:06:30,455314
-1,-2,-1,1,-3,-2,-1,-2,2021-08-06 14:06:30,455314
-1,-2,-3,-2,-6,-2,-1,-1,2021-08-06 14:06:30,455314
-2,-2,-7,-19,-4,0,-1,-2,2021-08-06 14:06:30,455314
-3,-5,-2,-6,-13,-10,-6,-3,2021-08-06 14:06:30,455314
3,6,9,20,25,15,6,2,2021-08-06 14:06:30,455314
5,5,6,5,12,8,6,3,2021-08-06 14:06:30,455314
-1,0,-1,1,3,1,0,0,2021-08-06 14:06:30,456316
-2,-5,-10,-6,-11,-7,-5,-1,2021-08-06 14:06:30,456316
-6,-6,-5,-10,-17,-11,-8,-6,2021-08-06 14:06:30,487280
-2,-4,-5,-1,-2,-3,-2,-1,2021-08-06 14:06:30,503279
3,4,8,15,16,12,7,5,2021-08-06 14:06:30,535280
3,3,3,4,6,3,1,0,2021-08-06 14:06:30,551306
-3,-2,-3,-3,-9,-5,-3,0,2021-08-06 14:06:30,551306
-1,-2,2,1,0,2,-1,-2,2021-08-06 14:06:30,551306
-4,-4,-3,-6,-12,-9,-5,-4,2021-08-06 14:06:30,551306
1,1,-2,-7,-4,0,1,0,2021-08-06 14:06:30,551306
4,2,2,4,6,3,2,1,2021-08-06 14:06:30,551306
-2,-3,-3,-10,-10,-5,-2,0,2021-08-06 14:06:30,551306
-1,-1,0,7,6,5,1,-1,2021-08-06 14:06:30,551306
-3,-3,-1,-1,-6,-5,-4,-4,2021-08-06 14:06:30,552309
1,-1,-3,-11,-5,-2,-1,-1,2021-08-06 14:06:30,552309
-1,0,0,-1,1,1,1,-2,2021-08-06 14:06:30,552309
-1,0,-1,6,8,4,1,0,2021-08-06 14:06:30,552309
0,1,3,4,6,1,1,0,2021-08-06 14:06:30,552309
-3,-4,-3,-4,-4,-3,-2,-3,2021-08-06 14:06:30,552309
-1,-1,-2,-6,-7,-6,-3,-3,2021-08-06 14:06:30,552309
0,-1,0,0,-1,-1,0,0,2021-08-06 14:06:30,567280
-1,-2,0,-4,-4,-3,0,-3,2021-08-06 14:06:30,567280
-2,-2,-2,-2,-3,-1,-1,0,2021-08-06 14:06:30,583278
1,0,0,5,9,5,1,0,2021-08-06 14:06:30,583278
1,-3,-1,-6,-9,-5,-3,-1,2021-08-06 14:06:30,583278
-1,-1,2,7,13,6,2,-1,2021-08-06 14:06:30,583278
0,0,-1,-3,-7,-3,-1,-1,2021-08-06 14:06:30,599278
0,1,1,5,5,2,-1,-2,2021-08-06 14:06:30,599278
-2,-1,-4,-6,-12,-8,-2,-2,2021-08-06 14:06:30,599278
-2,-2,-1,-2,-5,-5,-2,-2,2021-08-06 14:06:30,599278
-1,-1,-1,-1,-1,-1,0,0,2021-08-06 14:06:30,631278
-1,-1,-2,-2,0,0,1,0,2021-08-06 14:06:30,631278
-1,0,0,1,6,4,1,-1,2021-08-06 14:06:30,631278
-2,0,0,0,-5,-1,-2,-1,2021-08-06 14:06:30,631278
-3,-1,-2,-1,-1,0,-3,-2,2021-08-06 14:06:30,631278
-4,-4,-5,-9,-13,-8,-4,-2,2021-08-06 14:06:30,631278
-5,-4,-4,-4,-6,-7,-5,-5,2021-08-06 14:06:30,631278
3,4,2,2,6,7,4,2,2021-08-06 14:06:30,631278
1,1,0,0,1,1,-1,0,2021-08-06 14:06:30,663279
-2,-3,-1,0,-2,-2,-1,-1,2021-08-06 14:06:30,663279
-2,-3,-2,-3,-8,-7,-5,-5,2021-08-06 14:06:30,667280
0,-1,-5,-3,-4,-1,-2,0,2021-08-06 14:06:30,667280
1,2,1,8,15,6,3,0,2021-08-06 14:06:30,679317
-1,-1,-1,-1,-3,-1,0,0,2021-08-06 14:06:30,679317
-1,-1,-2,-3,-4,-3,-1,-2,2021-08-06 14:06:30,679317
-3,-4,-2,-8,-8,-7,-4,-1,2021-08-06 14:06:30,679317
-2,-2,-3,-3,-7,-4,-3,-2,2021-08-06 14:06:30,695278
1,-1,1,5,5,0,1,1,2021-08-06 14:06:30,695278
2,0,-1,1,-2,-1,2,0,2021-08-06 14:06:30,695278
-1,-1,2,-1,2,1,1,1,2021-08-06 14:06:30,695278
0,2,8,7,9,6,2,1,2021-08-06 14:06:30,727281
-1,-3,-11,-2,-5,-3,-3,-1,2021-08-06 14:06:30,727281
-1,-3,-3,-11,0,2,-1,-2,2021-08-06 14:06:30,727281
0,-1,1,7,4,1,-2,-2,2021-08-06 14:06:30,727281
-4,-3,-3,-9,-10,-7,-3,-3,2021-08-06 14:06:30,743280
0,4,4,3,-4,-3,-1,-1,2021-08-06 14:06:30,743280
3,3,3,11,16,9,6,4,2021-08-06 14:06:30,743280
1,2,0,6,8,4,1,-1,2021-08-06 14:06:30,743280
-1,-1,-1,-2,-2,0,-3,-1,2021-08-06 14:06:30,775280
0,-1,-4,-6,-2,0,-2,-1,2021-08-06 14:06:30,775280
-4,-3,-5,-3,-6,-6,-4,-2,2021-08-06 14:06:30,791278
-2,-1,0,-3,-4,-3,-2,-2,2021-08-06 14:06:30,791278
-1,-2,0,2,-2,-5,-2,-3,2021-08-06 14:06:30,791278
-4,-2,-4,-7,-6,-1,0,-2,2021-08-06 14:06:30,791278
4,6,6,10,15,10,4,3,2021-08-06 14:06:30,791278
-2,1,-1,6,3,0,-1,0,2021-08-06 14:06:30,791278
1,-1,-3,-6,0,3,0,2,2021-08-06 14:06:30,807278
0,-2,-1,1,1,-1,-2,-1,2021-08-06 14:06:30,823278
-3,-3,-2,-7,-16,-9,-6,-4,2021-08-06 14:06:30,839278
1,1,0,5,8,4,1,0,2021-08-06 14:06:30,839278
-1,-2,-7,1,-2,-3,-2,-1,2021-08-06 14:06:30,839278
0,1,0,-4,1,2,-1,1,2021-08-06 14:06:30,839278
-2,-1,0,-4,-2,-2,-1,-2,2021-08-06 14:06:30,839278
-3,-3,-4,-8,-15,-10,-4,-1,2021-08-06 14:06:30,839961
-3,-3,0,0,3,1,0,-1,2021-08-06 14:06:30,839961
2,3,4,8,12,6,4,3,2021-08-06 14:06:30,840279
-3,0,-1,2,-5,-4,-4,-3,2021-08-06 14:06:30,840279
-2,-2,-4,-6,-8,-6,-3,-3,2021-08-06 14:06:30,840279
3,4,2,7,12,8,2,2,2021-08-06 14:06:30,871308
0,-2,-3,-2,-5,-2,-1,0,2021-08-06 14:06:30,887307
-1,-2,-3,-5,-5,-4,-1,-2,2021-08-06 14:06:30,903307
-2,-3,-3,-4,2,1,-2,-2,2021-08-06 14:06:30,903307
-2,-3,-2,-2,-7,-6,-4,-1,2021-08-06 14:06:30,903307
-3,-2,-1,-7,-14,-8,-5,-2,2021-08-06 14:06:30,903307
1,2,-1,-2,-1,0,1,1,2021-08-06 14:06:30,903307
0,-4,-2,1,5,4,2,-1,2021-08-06 14:06:30,903307
4,3,1,5,13,8,5,2,2021-08-06 14:06:30,903307
0,-1,1,-3,-4,-3,-4,-2,2021-08-06 14:06:30,904307
-3,-1,-2,-1,-4,-4,-3,-2,2021-08-06 14:06:30,904307
-2,-1,-1,-2,-6,-5,-3,-2,2021-08-06 14:06:30,904307
1,1,0,0,4,2,1,2,2021-08-06 14:06:30,919307
-1,-1,1,1,5,3,0,0,2021-08-06 14:06:30,935308
1,-1,-1,5,1,0,-1,-1,2021-08-06 14:06:30,951307
-1,0,1,4,0,-1,1,0,2021-08-06 14:06:30,967307
-3,-2,-2,-8,-7,-4,-3,-2,2021-08-06 14:06:30,999308
-3,-1,-1,-2,-4,-3,-2,-5,2021-08-06 14:06:31,015306
-2,-4,-2,-3,-3,0,-1,-1,2021-08-06 14:06:31,015306
0,0,-3,-6,-4,-1,1,-1,2021-08-06 14:06:31,015306
-2,-2,0,1,-8,-5,-3,-4,2021-08-06 14:06:31,015306
-1,0,2,8,11,8,4,2,2021-08-06 14:06:31,015306
0,0,0,5,2,2,0,-2,2021-08-06 14:06:31,017308
1,-1,1,5,1,1,-1,0,2021-08-06 14:06:31,018308
-2,-1,-8,-15,-13,-9,-6,-4,2021-08-06 14:06:31,018308
-1,-1,3,0,3,2,1,-1,2021-08-06 14:06:31,018308
-1,-1,0,-4,-2,-2,-1,1,2021-08-06 14:06:31,018308
-2,-4,-10,-8,-6,-6,-5,-1,2021-08-06 14:06:31,018308
-2,-3,-1,1,-4,-4,1,-2,2021-08-06 14:06:31,018308
4,3,2,9,14,7,3,2,2021-08-06 14:06:31,019306
1,2,4,-1,1,1,0,2,2021-08-06 14:06:31,019306
2,2,7,6,6,3,0,0,2021-08-06 14:06:31,019306
-3,-6,-10,-3,-8,-4,-3,-4,2021-08-06 14:06:31,019306
-2,-2,-4,-13,-10,-8,-3,-2,2021-08-06 14:06:31,019306
2,1,0,3,10,8,3,3,2021-08-06 14:06:31,019306
-3,-3,-1,-10,-12,-7,-4,-2,2021-08-06 14:06:31,019306
-2,1,3,3,-1,0,-1,0,2021-08-06 14:06:31,046308
-1,-4,1,7,2,0,0,-1,2021-08-06 14:06:31,046308
0,0,-3,-4,-4,-3,-2,-1,2021-08-06 14:06:31,046308
0,1,1,4,4,4,2,0,2021-08-06 14:06:31,046308
0,-1,4,3,3,3,0,1,2021-08-06 14:06:31,046308
-2,-4,-4,-4,-6,-4,-4,-1,2021-08-06 14:06:31,046308
-4,-4,-3,-6,-11,-8,-5,-1,2021-08-06 14:06:31,062308
0,1,-1,-2,1,1,1,0,2021-08-06 14:06:31,062605
0,2,2,4,4,4,3,1,2021-08-06 14:06:31,093816
-1,-2,-2,1,2,1,-2,0,2021-08-06 14:06:31,093816
1,-1,-1,0,-2,-2,0,-1,2021-08-06 14:06:31,093816
-1,-2,0,-2,-1,-1,0,0,2021-08-06 14:06:31,093816
-1,0,-1,-2,-1,-1,0,-1,2021-08-06 14:06:31,093816
-4,-2,-2,-5,-10,-4,-4,-2,2021-08-06 14:06:31,093816
-3,-4,-2,-1,-3,-3,-3,-4,2021-08-06 14:06:31,093816
-2,0,1,-2,-1,-1,-1,0,2021-08-06 14:06:31,094816
-2,-3,-2,0,-3,-3,-3,-2,2021-08-06 14:06:31,125816
1,-1,2,7,12,4,2,0,2021-08-06 14:06:31,141816
4,2,1,0,5,5,3,2,2021-08-06 14:06:31,157852
1,3,9,7,1,3,2,1,2021-08-06 14:06:31,157852
-1,-1,2,6,5,1,1,0,2021-08-06 14:06:31,157852
-3,-1,-12,-25,-15,-6,-4,-2,2021-08-06 14:06:31,157852
-3,-4,-2,-3,0,-3,-2,-2,2021-08-06 14:06:31,157852
-1,-1,-5,11,16,6,1,0,2021-08-06 14:06:31,157852
2,0,-6,2,3,2,1,1,2021-08-06 14:06:31,157852
-1,-3,-3,-6,-8,-3,-1,-1,2021-08-06 14:06:31,157852
-4,-2,3,-5,-8,-6,-3,-3,2021-08-06 14:06:31,157852
-2,-2,4,-9,-13,-8,-5,-1,2021-08-06 14:06:31,158816
2,2,0,12,11,6,2,1,2021-08-06 14:06:31,173865
2,1,-7,-5,5,4,5,3,2021-08-06 14:06:31,173865
-6,-6,-3,-3,-3,-6,-6,-4,2021-08-06 14:06:31,189866
-2,0,4,1,-5,-5,-3,-4,2021-08-06 14:06:31,189866
-3,2,2,-2,0,-1,-1,0,2021-08-06 14:06:31,205851
2,1,5,7,1,-1,0,0,2021-08-06 14:06:31,205851
-1,-1,-8,-5,-10,-5,-1,-2,2021-08-06 14:06:31,205851
4,5,1,11,18,18,10,7,2021-08-06 14:06:31,205851
-2,-2,4,-3,-6,-5,-4,-3,2021-08-06 14:06:31,237814
0,1,-2,-2,2,3,0,0,2021-08-06 14:06:31,237814
0,0,2,4,1,3,2,1,2021-08-06 14:06:31,237814
-4,-5,-7,-10,-12,-9,-5,-4,2021-08-06 14:06:31,237814
-2,-1,-4,-11,-14,-7,-3,-2,2021-08-06 14:06:31,237814
-3,0,4,-2,-8,-7,-3,0,2021-08-06 14:06:31,237814
-2,-2,-1,4,2,1,0,0,2021-08-06 14:06:31,237814
2,1,-1,1,3,2,1,3,2021-08-06 14:06:31,237814
-3,-6,-1,-7,-7,-4,-2,-5,2021-08-06 14:06:31,268814
2,1,-1,10,9,3,0,1,2021-08-06 14:06:31,283816
2,0,-1,2,1,3,0,-1,2021-08-06 14:06:31,283816
-3,-3,-5,-10,-9,-6,-4,-1,2021-08-06 14:06:31,283816
-5,-4,-2,-8,-9,-8,-5,-4,2021-08-06 14:06:31,283816
0,1,1,2,-1,2,3,-2,2021-08-06 14:06:31,283816
1,3,2,4,12,7,3,2,2021-08-06 14:06:31,283816
1,-1,-1,3,1,1,1,1,2021-08-06 14:06:31,283816
-3,-4,-3,-5,-8,-6,-3,-3,2021-08-06 14:06:31,299815
0,-2,2,0,-5,-3,-3,-1,2021-08-06 14:06:31,299815
-3,-2,1,1,-2,-3,-2,-1,2021-08-06 14:06:31,299815
2,1,1,5,16,10,5,2,2021-08-06 14:06:31,299815
-2,-3,-4,-7,-2,0,-3,0,2021-08-06 14:06:31,315814
-3,-2,-2,2,2,-3,-3,-2,2021-08-06 14:06:31,330815
3,0,4,4,-3,4,2,1,2021-08-06 14:06:31,346816
-2,-4,-3,-4,-2,-3,-2,-3,2021-08-06 14:06:31,346816
2,3,0,1,1,2,1,2,2021-08-06 14:06:31,346816
0,2,6,11,12,6,2,0,2021-08-06 14:06:31,346816
-1,-1,-3,-8,-7,-6,-2,-1,2021-08-06 14:06:31,346816
-4,-6,-14,-25,-20,-12,-6,-6,2021-08-06 14:06:31,346816
1,0,3,2,5,4,2,1,2021-08-06 14:06:31,346816
0,-1,-1,-2,-2,-2,0,0,2021-08-06 14:06:31,347815
-2,-3,-7,-3,-2,-3,-3,-1,2021-08-06 14:06:31,362818
-1,0,6,10,4,5,3,0,2021-08-06 14:06:31,362818
0,0,-1,3,3,2,-1,-1,2021-08-06 14:06:31,378856
-3,-5,-7,-12,-15,-9,-5,-3,2021-08-06 14:06:31,378856
1,0,1,4,6,1,1,1,2021-08-06 14:06:31,410814
3,7,15,5,5,3,1,3,2021-08-06 14:06:31,410814
1,-2,-2,9,14,6,1,0,2021-08-06 14:06:31,410814
-1,-5,-14,-11,-9,-3,-3,-2,2021-08-06 14:06:31,410814
-2,-4,-6,-15,-7,-4,-3,-2,2021-08-06 14:06:31,410814
-8,-8,-16,-12,-24,-19,-12,-9,2021-08-06 14:06:31,410814
5,5,11,3,-4,4,4,3,2021-08-06 14:06:31,410814
1,5,14,24,28,14,6,3,2021-08-06 14:06:31,410814
1,3,0,7,4,1,0,1,2021-08-06 14:06:31,425815
-1,-1,1,-2,-9,-6,-3,-2,2021-08-06 14:06:31,425815
2,1,-1,-1,0,-1,2,1,2021-08-06 14:06:31,440815
-3,-2,-5,-9,-5,-2,0,-1,2021-08-06 14:06:31,456814
-4,-3,-1,-10,-12,-10,-2,-4,2021-08-06 14:06:31,488866
3,4,6,9,13,9,6,4,2021-08-06 14:06:31,488866
0,2,7,22,10,0,0,-1,2021-08-06 14:06:31,488866
2,3,2,4,8,4,1,2,2021-08-06 14:06:31,488866
-1,-3,-18,-9,-3,0,1,0,2021-08-06 14:06:31,488866
-4,-10,-20,-40,-9,-5,-3,-3,2021-08-06 14:06:31,488866
-6,-6,-7,-19,-18,-15,-8,-5,2021-08-06 14:06:31,488866
1,3,15,7,-4,-3,1,0,2021-08-06 14:06:31,489856
-2,1,1,13,6,3,1,0,2021-08-06 14:06:31,489856
1,-1,-4,13,12,7,3,0,2021-08-06 14:06:31,489856
3,4,5,10,9,7,3,3,2021-08-06 14:06:31,504816
-3,0,-1,-6,-14,-11,-5,-4,2021-08-06 14:06:31,504816
-1,0,3,-1,-11,-6,-3,-2,2021-08-06 14:06:31,504816
4,3,7,16,22,12,6,4,2021-08-06 14:06:31,504816
-2,-4,-6,-9,0,-2,-1,-1,2021-08-06 14:06:31,519852
-1,0,6,17,3,-2,-2,-1,2021-08-06 14:06:31,535816
6,9,21,44,25,10,6,5,2021-08-06 14:06:31,535816
0,2,2,12,-3,-2,-1,1,2021-08-06 14:06:31,535816
-6,-10,-30,-63,-32,-13,-6,-5,2021-08-06 14:06:31,535816
-12,-19,-28,-79,-41,-21,-13,-9,2021-08-06 14:06:31,535816
0,0,-5,2,11,6,0,1,2021-08-06 14:06:31,551849
-2,3,21,33,8,0,-2,-2,2021-08-06 14:06:31,566852
3,5,6,39,16,5,2,2,2021-08-06 14:06:31,566852
-2,-4,-20,-47,-26,-9,-4,-2,2021-08-06 14:06:31,566852
-1,-3,4,-3,17,10,2,0,2021-08-06 14:06:31,566852
-1,0,-1,1,-3,-2,-2,-2,2021-08-06 14:06:31,566852
-2,0,7,18,4,1,-1,-2,2021-08-06 14:06:31,582853
5,6,21,45,20,4,3,3,2021-08-06 14:06:31,582853
3,4,9,14,0,-1,-1,1,2021-08-06 14:06:31,582853
3,-1,-7,2,-3,-1,0,4,2021-08-06 14:06:31,582853
-6,-7,-17,-51,-17,-6,-6,-4,2021-08-06 14:06:31,613814
-7,-6,-2,-6,-5,-4,-5,-4,2021-08-06 14:06:31,629815
-2,-5,-13,-19,-6,-3,0,0,2021-08-06 14:06:31,645816
-7,-8,-16,-22,-17,-13,-7,-7,2021-08-06 14:06:31,645816
1,2,3,13,-1,-1,0,2,2021-08-06 14:06:31,645816
6,8,18,40,41,22,10,5,2021-08-06 14:06:31,645816
-2,-1,-3,-8,-12,-4,-4,-2,2021-08-06 14:06:31,645816
0,0,3,1,3,2,0,-1,2021-08-06 14:06:31,645816
-5,-7,-2,-19,-23,-15,-9,-5,2021-08-06 14:06:31,645816
1,1,-2,8,10,9,3,0,2021-08-06 14:06:31,645816
2,2,-1,9,6,4,2,0,2021-08-06 14:06:31,645816
-1,0,-3,-7,-6,-3,-2,-1,2021-08-06 14:06:31,646815
0,1,7,13,6,3,1,-1,2021-08-06 14:06:31,661815
-4,-5,-6,-24,-24,-10,-6,-2,2021-08-06 14:06:31,661815
-5,-7,-10,-32,-18,-9,-8,-5,2021-08-06 14:06:31,661815
-1,-3,-5,0,-1,-1,-1,0,2021-08-06 14:06:31,661815
-2,-5,-9,-4,0,-1,-2,-4,2021-08-06 14:06:31,676815
5,8,22,36,13,3,3,4,2021-08-06 14:06:31,691815
2,0,-5,1,1,1,3,1,2021-08-06 14:06:31,721816
1,-1,-3,-13,-3,0,2,1,2021-08-06 14:06:31,732815
-4,-6,5,-4,-1,2,-1,-1,2021-08-06 14:06:31,732815
-5,-7,-23,-12,-15,-10,-4,-1,2021-08-06 14:06:31,733816
1,3,15,21,21,11,3,1,2021-08-06 14:06:31,733816
2,6,15,28,8,4,1,0,2021-08-06 14:06:31,733816
2,3,-2,-7,4,4,2,2,2021-08-06 14:06:31,733816
-4,-6,-10,-18,-11,-7,-4,-4,2021-08-06 14:06:31,733816
-3,-4,-3,-1,-18,-15,-7,-4,2021-08-06 14:06:31,733816
2,1,-4,-12,6,10,4,4,2021-08-06 14:06:31,733816
-1,-1,2,-14,-5,-5,-5,-3,2021-08-06 14:06:31,734815
1,4,6,32,11,1,-2,0,2021-08-06 14:06:31,734815
2,2,9,22,-2,-4,-2,-1,2021-08-06 14:06:31,752817
1,1,-12,-11,-4,-2,0,0,2021-08-06 14:06:31,752817
1,-6,-13,-42,-3,7,4,1,2021-08-06 14:06:31,752817
-1,-4,-4,-10,4,3,0,-3,2021-08-06 14:06:31,752817
-3,-2,0,-1,-3,-4,-1,0,2021-08-06 14:06:31,768852
-1,0,12,33,6,-4,-2,-1,2021-08-06 14:06:31,768852
6,10,14,46,11,5,3,4,2021-08-06 14:06:31,784855
4,5,14,6,13,8,3,1,2021-08-06 14:06:31,784855
-2,-5,-13,-6,5,4,0,0,2021-08-06 14:06:31,784855
-8,-9,-11,-35,-19,-12,-9,-5,2021-08-06 14:06:31,784855
-4,-5,-11,-14,-10,-6,-3,-3,2021-08-06 14:06:31,800817
-4,-9,-25,-27,-20,-9,-3,-3,2021-08-06 14:06:31,816867
-2,-2,5,-13,-13,-10,-4,0,2021-08-06 14:06:31,816867
2,3,9,9,15,6,4,2,2021-08-06 14:06:31,816867
5,7,19,36,19,9,5,3,2021-08-06 14:06:31,816867
0,1,6,19,4,-1,2,-2,2021-08-06 14:06:31,816867
2,0,-2,1,5,8,3,2,2021-08-06 14:06:31,816867
-1,-3,-4,-9,-8,-5,-3,-3,2021-08-06 14:06:31,816867
-2,-2,-7,-14,-6,-4,-3,0,2021-08-06 14:06:31,846815
1,3,0,5,1,-1,-1,1,2021-08-06 14:06:31,878864
-3,-2,0,4,7,1,-1,-2,2021-08-06 14:06:31,894815
-1,0,9,26,2,-1,-2,-2,2021-08-06 14:06:31,894815
-4,-2,-1,-12,-7,-4,-3,-4,2021-08-06 14:06:31,894815
1,-1,-13,-9,-6,1,0,1,2021-08-06 14:06:31,894815
-8,-15,-28,-67,-42,-19,-12,-9,2021-08-06 14:06:31,894815
-3,-5,-11,-34,5,4,-1,-1,2021-08-06 14:06:31,894815
-11,-12,-16,3,-12,-15,-10,-6,2021-08-06 14:06:31,895816
3,5,18,28,15,10,6,3,2021-08-06 14:06:31,895816
13,17,24,40,31,17,11,9,2021-08-06 14:06:31,895816
0,1,1,6,-4,-3,-2,-1,2021-08-06 14:06:31,895816
3,5,6,6,0,-1,0,1,2021-08-06 14:06:31,895816
-6,-6,-4,-6,-7,-6,-5,-6,2021-08-06 14:06:31,895816
-4,-2,-4,-1,-6,-4,-3,-3,2021-08-06 14:06:31,909852
3,2,0,-6,2,6,5,2,2021-08-06 14:06:31,925818
2,-1,1,10,4,0,1,1,2021-08-06 14:06:31,941860
-2,-2,-4,-10,-11,-7,-5,-1,2021-08-06 14:06:31,957817
-4,-1,1,-3,16,9,0,-3,2021-08-06 14:06:31,973815
-7,-10,-14,-25,-41,-25,-11,-8,2021-08-06 14:06:31,973815
1,1,1,21,40,26,10,5,2021-08-06 14:06:31,973815
10,14,22,30,22,11,7,7,2021-08-06 14:06:31,973815
3,4,2,2,-13,-6,1,1,2021-08-06 14:06:31,973815
-4,-8,-14,-10,15,9,3,0,2021-08-06 14:06:31,974817
0,-7,-7,-20,-27,-16,-4,0,2021-08-06 14:06:31,974817
-9,-7,-13,-31,-18,-13,-10,-7,2021-08-06 14:06:31,974817
8,17,19,14,12,4,3,4,2021-08-06 14:06:31,974817
-1,0,5,15,2,0,-2,-3,2021-08-06 14:06:31,974817
0,2,10,31,14,5,2,2,2021-08-06 14:06:31,974817
-3,-4,-1,14,2,-2,-4,-3,2021-08-06 14:06:31,974817
-4,-4,-15,-34,-16,-4,-3,-1,2021-08-06 14:06:31,989814
-11,-13,-23,-59,-42,-20,-10,-8,2021-08-06 14:06:32,005850
-6,-9,-17,-22,3,0,-2,-5,2021-08-06 14:06:32,021818
1,0,4,9,1,-2,-1,0,2021-08-06 14:06:32,021818
3,4,10,38,27,12,6,3,2021-08-06 14:06:32,021818
7,9,13,24,-3,1,3,4,2021-08-06 14:06:32,021818
-2,0,-1,-21,-25,-16,-6,-3,2021-08-06 14:06:32,037816
5,5,12,28,49,26,11,6,2021-08-06 14:06:32,037816
-4,-4,4,18,1,-4,-3,-2,2021-08-06 14:06:32,037816
2,1,-6,-1,0,0,-2,1,2021-08-06 14:06:32,037816
-2,-7,-16,-49,-32,-12,-5,-3,2021-08-06 14:06:32,037816
-8,-8,-16,-36,-26,-16,-9,-7,2021-08-06 14:06:32,037816
-4,-6,-7,-8,-6,-1,-3,-3,2021-08-06 14:06:32,037816
-1,-3,3,11,10,2,-1,-3,2021-08-06 14:06:32,038850
3,6,11,39,17,6,3,3,2021-08-06 14:06:32,069852
-1,0,-2,-13,-24,-12,-5,-3,2021-08-06 14:06:32,069852
0,-1,3,0,10,8,4,0,2021-08-06 14:06:32,069852
-1,3,16,16,14,8,2,1,2021-08-06 14:06:32,069852
7,7,-9,5,15,12,7,6,2021-08-06 14:06:32,084814
-10,-14,-20,-34,-24,-12,-7,-6,2021-08-06 14:06:32,089849
0,0,1,6,-6,-4,-3,0,2021-08-06 14:06:32,089849
1,0,1,5,5,3,2,1,2021-08-06 14:06:32,089849
1,5,15,13,9,3,0,-1,2021-08-06 14:06:32,089849
-5,-6,-1,1,-20,-14,-7,-4,2021-08-06 14:06:32,089849
0,1,-4,4,9,2,1,0,2021-08-06 14:06:32,115864
6,9,12,27,48,26,11,5,2021-08-06 14:06:32,131856
-3,-6,-9,-25,-8,-5,-4,-3,2021-08-06 14:06:32,147841
-3,-3,-10,-15,-19,-9,-4,-2,2021-08-06 14:06:32,147841
-5,-12,-13,-43,-37,-22,-8,-5,2021-08-06 14:06:32,147841
-2,0,2,7,5,-2,0,1,2021-08-06 14:06:32,147841
-2,2,1,16,-5,-4,-2,-2,2021-08-06 14:06:32,147841
6,4,8,1,26,20,11,5,2021-08-06 14:06:32,147841
-7,-7,-12,-21,-15,-10,-7,-5,2021-08-06 14:06:32,147841
-4,-4,-9,-6,-13,-10,-5,-3,2021-08-06 14:06:32,147841
1,6,13,20,6,3,1,-1,2021-08-06 14:06:32,163814
2,3,5,21,7,1,2,2,2021-08-06 14:06:32,163814
-3,1,3,7,9,3,0,-3,2021-08-06 14:06:32,163814
3,3,-2,-11,-6,0,3,2,2021-08-06 14:06:32,163814
-6,-6,-12,-20,-12,-3,-5,-5,2021-08-06 14:06:32,179816
0,1,7,6,12,5,0,-1,2021-08-06 14:06:32,179816
-1,-1,-8,-3,-7,-2,0,-2,2021-08-06 14:06:32,179816
-1,1,3,-2,-12,-12,-7,-5,2021-08-06 14:06:32,179816
0,1,10,34,28,9,2,2,2021-08-06 14:06:32,211815
6,6,2,6,21,18,11,8,2021-08-06 14:06:32,211815
-7,-11,-16,-33,-18,-10,-6,-7,2021-08-06 14:06:32,211815
-5,-6,-8,-9,-18,-12,-7,-3,2021-08-06 14:06:32,211815
3,4,2,-6,2,3,2,1,2021-08-06 14:06:32,227816
0,-4,1,10,0,-3,-2,-2,2021-08-06 14:06:32,227816
8,13,21,36,15,8,5,5,2021-08-06 14:06:32,227816
-1,-2,-1,4,11,8,1,1,2021-08-06 14:06:32,227816
-6,-5,-12,-27,-14,-10,-7,-5,2021-08-06 14:06:32,243865
-8,-13,-18,-40,-23,-12,-8,-5,2021-08-06 14:06:32,243865
-4,-3,-11,-15,-21,-11,-6,-4,2021-08-06 14:06:32,243865
3,3,10,23,19,9,3,3,2021-08-06 14:06:32,243865
-2,-1,1,10,1,-2,0,-2,2021-08-06 14:06:32,259814
0,2,1,-4,-9,-6,-2,1,2021-08-06 14:06:32,259814
1,-1,5,17,29,18,7,3,2021-08-06 14:06:32,259814
6,7,13,12,3,3,3,4,2021-08-06 14:06:32,259814
1,1,-2,10,1,2,-1,1,2021-08-06 14:06:32,275843
-3,-5,-11,-26,-29,-15,-6,-5,2021-08-06 14:06:32,291821
-9,-13,-15,-33,-33,-16,-10,-8,2021-08-06 14:06:32,307849
3,3,-1,2,14,14,7,3,2021-08-06 14:06:32,323818
0,-5,4,-11,6,3,2,1,2021-08-06 14:06:32,323818
3,5,9,35,14,4,1,4,2021-08-06 14:06:32,323818
2,4,-2,-1,3,-1,1,3,2021-08-06 14:06:32,323818
-8,-9,-17,-33,-26,-14,-8,-5,2021-08-06 14:06:32,323818
-3,-6,-6,-13,-11,-7,-3,-2,2021-08-06 14:06:32,323818
-3,-3,-3,-5,-8,-5,-3,-2,2021-08-06 14:06:32,323818
1,0,3,16,17,8,3,1,2021-08-06 14:06:32,324816
1,2,9,16,6,-2,1,0,2021-08-06 14:06:32,324816
4,9,10,21,12,4,3,2,2021-08-06 14:06:32,339864
-2,1,1,1,-2,-1,-3,-1,2021-08-06 14:06:32,355852
5,3,9,14,17,11,7,4,2021-08-06 14:06:32,371815
-3,-6,-18,-23,-13,-8,-3,-5,2021-08-06 14:06:32,387816
-7,-11,-18,-43,-29,-14,-7,-6,2021-08-06 14:06:32,387816
-3,-1,3,8,-2,-2,-2,-4,2021-08-06 14:06:32,387816
-1,0,6,-10,-10,-5,-1,0,2021-08-06 14:06:32,387816
-2,1,-7,14,6,0,-1,-1,2021-08-06 14:06:32,387816
5,7,9,23,13,12,6,4,2021-08-06 14:06:32,387816
-2,-4,-10,-10,10,6,3,-1,2021-08-06 14:06:32,387816
-1,-3,6,8,8,2,-1,0,2021-08-06 14:06:32,387816
-1,-2,3,-6,-4,-2,-3,-1,2021-08-06 14:06:32,388845
-4,-1,1,-4,-23,-16,-9,-4,2021-08-06 14:06:32,388845
7,9,8,22,20,12,7,8,2021-08-06 14:06:32,388845
-4,-6,-9,-10,-12,-7,-6,-6,2021-08-06 14:06:32,403854
-2,-7,-11,-25,-24,-11,-2,0,2021-08-06 14:06:32,419817
-2,-4,-4,11,22,9,2,0,2021-08-06 14:06:32,419817
4,8,16,14,4,1,1,0,2021-08-06 14:06:32,419817
1,0,-6,1,2,1,1,1,2021-08-06 14:06:32,419817
2,3,4,-8,-5,-2,0,0,2021-08-06 14:06:32,419817
-3,-4,-2,1,-4,-3,0,-2,2021-08-06 14:06:32,447851
-1,0,-3,-7,1,-1,-1,-1,2021-08-06 14:06:32,447851
-1,-1,-4,9,-9,-7,-4,-1,2021-08-06 14:06:32,448855
0,1,-1,3,13,11,4,1,2021-08-06 14:06:32,448855
-3,-3,-7,-44,-24,-11,-4,-3,2021-08-06 14:06:32,465872
-1,-2,-3,11,15,6,2,0,2021-08-06 14:06:32,465872
-1,3,2,10,8,0,-1,-2,2021-08-06 14:06:32,465872
-6,-8,-14,-26,-47,-27,-14,-5,2021-08-06 14:06:32,465872
9,11,18,48,55,34,15,9,2021-08-06 14:06:32,481852
-1,-1,2,3,2,0,2,1,2021-08-06 14:06:32,481852
-2,0,1,7,4,2,0,-2,2021-08-06 14:06:32,481852
3,8,17,24,22,8,3,2,2021-08-06 14:06:32,481852
0,-2,-9,-2,-17,-8,-3,1,2021-08-06 14:06:32,513867
-4,-8,-15,-44,-19,-3,-2,-2,2021-08-06 14:06:32,513867
-11,-15,-21,-42,-31,-22,-12,-9,2021-08-06 14:06:32,513867
-3,-4,3,4,3,-2,-1,-3,2021-08-06 14:06:32,513867
-4,-1,3,21,5,-3,-4,-3,2021-08-06 14:06:32,529816
7,11,10,7,6,7,4,5,2021-08-06 14:06:32,545853
2,4,2,2,7,5,4,2,2021-08-06 14:06:32,545853
-3,-2,-1,-7,8,3,-1,-3,2021-08-06 14:06:32,545853
0,-3,7,24,3,-1,-2,-2,2021-08-06 14:06:32,545853
5,4,3,8,2,1,2,4,2021-08-06 14:06:32,545853
-5,-6,-13,-25,-19,-8,-5,-3,2021-08-06 14:06:32,545853
-2,-3,-4,-20,-1,1,-1,-1,2021-08-06 14:06:32,545853
-3,-2,-12,-11,-10,-4,-4,-4,2021-08-06 14:06:32,561815
-3,-4,1,8,-3,-3,-3,-4,2021-08-06 14:06:32,561815
3,3,8,20,15,3,2,1,2021-08-06 14:06:32,561815
10,14,20,42,37,20,10,9,2021-08-06 14:06:32,561815
2,3,1,5,-5,0,2,2,2021-08-06 14:06:32,592817
-4,-4,-12,-28,-19,-9,-6,-4,2021-08-06 14:06:32,592817
-6,-7,-3,-26,-9,-5,-5,-3,2021-08-06 14:06:32,592817
-4,-7,-14,-8,-16,-8,-4,-3,2021-08-06 14:06:32,592817
3,3,7,3,6,3,1,0,2021-08-06 14:06:32,592817
0,-1,1,19,18,7,2,0,2021-08-06 14:06:32,592817
8,8,12,27,25,16,10,6,2021-08-06 14:06:32,593852
-3,-3,-4,-10,-16,-9,-5,-3,2021-08-06 14:06:32,593852
-5,-10,-17,-47,-37,-21,-10,-5,2021-08-06 14:06:32,624852
-6,-5,-9,-12,-20,-14,-5,-2,2021-08-06 14:06:32,624852
-5,-2,4,6,-6,-4,-4,-5,2021-08-06 14:06:32,624852
1,-1,-1,7,15,9,4,3,2021-08-06 14:06:32,624852
0,0,5,18,13,5,2,0,2021-08-06 14:06:32,656814
4,4,8,20,26,14,5,4,2021-08-06 14:06:32,656814
7,11,11,22,15,8,5,7,2021-08-06 14:06:32,656814
-6,-6,-12,-30,-46,-26,-13,-7,2021-08-06 14:06:32,656814
-10,-14,-22,-43,-23,-11,-8,-7,2021-08-06 14:06:32,656814
-4,-5,-10,-16,-5,-4,-4,-5,2021-08-06 14:06:32,657816
0,1,2,0,4,3,0,1,2021-08-06 14:06:32,672816
3,7,16,40,29,12,7,4,2021-08-06 14:06:32,672816
4,9,23,38,22,9,5,4,2021-08-06 14:06:32,688815
-3,-5,-6,-6,-14,-5,-4,-6,2021-08-06 14:06:32,688815
-5,-10,-20,-59,-28,-10,-6,-3,2021-08-06 14:06:32,688815
-16,-23,-33,-63,-56,-37,-19,-15,2021-08-06 14:06:32,688815
2,4,0,3,-1,0,2,4,2021-08-06 14:06:32,703840
7,10,24,59,58,29,11,6,2021-08-06 14:06:32,703840
4,6,6,21,2,2,0,1,2021-08-06 14:06:32,703840
2,3,9,7,13,11,7,2,2021-08-06 14:06:32,703840
4,4,4,5,12,8,5,2,2021-08-06 14:06:32,719814
-1,-2,-3,7,2,0,0,0,2021-08-06 14:06:32,719814
-1,-2,-7,-18,-5,-4,-3,0,2021-08-06 14:06:32,719814
1,1,4,15,24,13,5,-1,2021-08-06 14:06:32,719814
-1,0,-3,-6,-12,-5,-2,-2,2021-08-06 14:06:32,750816
-4,-2,-4,-24,-14,-12,-5,-4,2021-08-06 14:06:32,750816
1,2,6,37,8,0,0,-1,2021-08-06 14:06:32,750816
0,0,-3,-13,-6,0,0,1,2021-08-06 14:06:32,750816
-7,-10,-17,-49,-26,-10,-7,-5,2021-08-06 14:06:32,766816
-8,-10,-9,-21,-25,-18,-12,-8,2021-08-06 14:06:32,766816
-5,-5,-5,-7,-17,-12,-5,-5,2021-08-06 14:06:32,766816
10,12,17,46,48,27,12,7,2021-08-06 14:06:32,766816
2,3,13,19,15,7,3,0,2021-08-06 14:06:32,782815
-6,-6,-12,-9,-24,-13,-7,-5,2021-08-06 14:06:32,782815
0,-1,-4,-25,-6,2,2,3,2021-08-06 14:06:32,782815
-5,-8,-13,-10,4,-1,-5,-5,2021-08-06 14:06:32,782815
-3,-1,-2,10,4,-2,-1,1,2021-08-06 14:06:32,808814
6,7,14,26,21,10,7,4,2021-08-06 14:06:32,808814
4,7,11,26,5,-1,0,2,2021-08-06 14:06:32,808814
