EMG 1,EMG 2,EMG 3,EMG 4,EMG 5,EMG 6,EMG 7,EMG 8,Timestamp,Milliseconds
-7,0,1,-7,-3,-1,-1,-2,2021-08-05 17:23:47,324499
-3,4,6,-6,-3,-3,-2,-3,2021-08-05 17:23:47,324640
-1,-5,-2,-6,-5,-4,-5,-5,2021-08-05 17:23:47,340481
9,17,34,13,6,3,2,4,2021-08-05 17:23:47,356529
3,14,-24,1,4,3,2,1,2021-08-05 17:23:47,356529
-9,-101,-18,-4,-2,-1,-1,-2,2021-08-05 17:23:47,356529
1,20,-6,-6,-3,-1,-1,-1,2021-08-05 17:23:47,356529
-1,21,28,3,-5,-2,-4,-5,2021-08-05 17:23:47,356529
0,-19,-5,8,4,-1,0,0,2021-08-05 17:23:47,356529
0,22,-19,-18,-3,-1,-3,-8,2021-08-05 17:23:47,356529
0,-9,-8,-4,-3,0,0,3,2021-08-05 17:23:47,356529
-2,19,-2,-5,0,-2,-2,-1,2021-08-05 17:23:47,372419
1,-8,19,3,-1,-2,0,2,2021-08-05 17:23:47,372587
12,24,-8,11,7,5,3,5,2021-08-05 17:23:47,388608
6,-21,6,5,4,2,2,2,2021-08-05 17:23:47,388608
-24,-41,-16,-3,-3,1,0,-1,2021-08-05 17:23:47,388796
0,3,-5,-8,-8,-7,-6,-6,2021-08-05 17:23:47,388878
-2,-5,1,1,-4,-1,-3,-2,2021-08-05 17:23:47,389019
5,47,18,2,3,3,3,2,2021-08-05 17:23:47,404600
6,-17,-9,3,3,1,3,4,2021-08-05 17:23:47,404600
-3,-29,-10,-4,-3,-1,-2,0,2021-08-05 17:23:47,404600
-3,8,-7,-7,7,0,0,-3,2021-08-05 17:23:47,404600
-1,26,29,5,-1,-2,-3,-1,2021-08-05 17:23:47,451598
0,5,-19,2,3,2,1,3,2021-08-05 17:23:47,451756
-4,-52,-15,-3,0,3,3,1,2021-08-05 17:23:47,451756
-1,-5,-10,-3,-5,-3,-5,-5,2021-08-05 17:23:47,451756
-3,-10,-7,-3,-2,-2,-1,-1,2021-08-05 17:23:47,452145
0,29,11,0,1,0,0,0,2021-08-05 17:23:47,452145
3,31,5,-3,-2,-3,-3,-1,2021-08-05 17:23:47,466596
-4,-50,0,8,6,7,3,2,2021-08-05 17:23:47,466768
0,5,-1,-9,-8,-5,-1,-1,2021-08-05 17:23:47,466869
2,8,13,2,0,-1,-1,-1,2021-08-05 17:23:47,481519
1,6,-6,2,1,2,0,0,2021-08-05 17:23:47,497519
-1,10,5,0,-1,0,0,0,2021-08-05 17:23:47,512657
-2,-10,-4,3,0,-1,-2,-1,2021-08-05 17:23:47,528054
-1,-22,-19,-5,-1,-1,-1,-3,2021-08-05 17:23:47,544061
0,-5,-1,-1,-1,-1,0,1,2021-08-05 17:23:47,559974
1,43,19,3,0,-1,0,1,2021-08-05 17:23:47,576138
-1,-35,-17,0,4,3,2,1,2021-08-05 17:23:47,592062
4,36,3,3,3,1,2,3,2021-08-05 17:23:47,592332
-6,-46,-6,-2,-5,-5,-4,-5,2021-08-05 17:23:47,592332
-1,11,1,-6,0,0,0,0,2021-08-05 17:23:47,592547
5,74,-3,-2,-4,-2,-2,0,2021-08-05 17:23:47,607099
-6,-78,-1,-5,-4,-2,-2,-4,2021-08-05 17:23:47,607099
-1,20,-2,-1,-1,-2,-1,-1,2021-08-05 17:23:47,607340
1,1,-4,-1,-3,-3,-2,-3,2021-08-05 17:23:47,607437
-2,-11,-4,-1,2,2,0,-3,2021-08-05 17:23:47,607437
0,11,0,-2,-3,-1,-1,0,2021-08-05 17:23:47,607437
-2,4,4,1,0,-1,-3,-2,2021-08-05 17:23:47,607437
2,-3,6,-1,-7,-7,-1,-1,2021-08-05 17:23:47,607437
1,34,-1,2,1,3,0,2,2021-08-05 17:23:47,607437
-2,-58,-9,-1,0,-1,0,0,2021-08-05 17:23:47,607977
-3,3,0,-5,-4,-2,-3,-3,2021-08-05 17:23:47,608106
0,10,-5,-1,-1,-1,-1,-2,2021-08-05 17:23:47,608245
2,-9,9,3,3,2,2,0,2021-08-05 17:23:47,608346
3,-34,-3,5,0,-1,1,3,2021-08-05 17:23:47,608426
0,6,-10,-5,0,-1,-1,-3,2021-08-05 17:23:47,608531
-10,31,11,-9,-3,-2,-4,-4,2021-08-05 17:23:47,608671
-2,-92,-51,-5,-3,-3,-2,-2,2021-08-05 17:23:47,608854
-3,38,17,-7,-8,-6,-6,-5,2021-08-05 17:23:47,609000
3,-1,2,9,5,1,2,4,2021-08-05 17:23:47,609000
0,30,9,5,-1,-4,-4,-6,2021-08-05 17:23:47,609000
-4,-27,-5,-6,-3,-1,-1,0,2021-08-05 17:23:47,623114
-1,6,-6,-1,0,3,1,2,2021-08-05 17:23:47,623136
0,27,9,-4,-4,-1,0,-3,2021-08-05 17:23:47,637975
4,-6,-8,-4,-1,-1,2,3,2021-08-05 17:23:47,638281
1,-20,-2,3,5,5,6,4,2021-08-05 17:23:47,638281
-3,-6,-11,-3,2,0,0,-3,2021-08-05 17:23:47,638281
-5,14,6,-2,1,0,-1,-3,2021-08-05 17:23:47,652975
-3,-10,2,3,0,-1,-3,-5,2021-08-05 17:23:47,667975
4,4,10,2,-5,-6,-2,-1,2021-08-05 17:23:47,668144
2,27,9,5,-3,-2,-1,1,2021-08-05 17:23:47,668144
1,20,2,2,4,2,1,3,2021-08-05 17:23:47,684040
2,-72,-20,-2,0,-1,-1,0,2021-08-05 17:23:47,684288
-6,11,-3,-7,-5,-2,-4,-4,2021-08-05 17:23:47,684392
-2,28,6,-2,-2,-2,-2,-2,2021-08-05 17:23:47,684483
0,-1,7,0,0,0,-1,2,2021-08-05 17:23:47,699551
-2,-16,-18,1,1,2,2,5,2021-08-05 17:23:47,699629
0,15,9,1,0,0,0,-3,2021-08-05 17:23:47,699629
-1,-8,-1,-4,-1,1,2,-1,2021-08-05 17:23:47,700009
-2,-8,-4,-1,-3,-3,-3,-2,2021-08-05 17:23:47,715490
0,1,1,-2,1,1,0,3,2021-08-05 17:23:47,715490
0,16,15,3,0,-1,1,0,2021-08-05 17:23:47,731661
-4,28,-12,-5,-4,-3,-5,-5,2021-08-05 17:23:47,762750
0,-56,-9,2,6,3,2,3,2021-08-05 17:23:47,777491
-1,15,7,-1,-2,-2,-2,-1,2021-08-05 17:23:47,793561
-1,12,9,3,1,-1,0,-4,2021-08-05 17:23:47,808626
2,-1,-1,0,0,-1,1,0,2021-08-05 17:23:47,808787
-2,-8,-10,-3,-7,-3,-2,-3,2021-08-05 17:23:47,809044
-1,-1,-3,-3,-2,-2,-1,-2,2021-08-05 17:23:47,809044
0,8,9,3,4,2,-3,-1,2021-08-05 17:23:47,809202
-1,-3,1,1,-1,-3,-3,-2,2021-08-05 17:23:47,823579
-1,-9,-20,-7,-1,0,0,0,2021-08-05 17:23:47,839581
-1,19,8,1,-3,-2,-1,-2,2021-08-05 17:23:47,854489
-1,-27,-2,-4,-2,-2,0,1,2021-08-05 17:23:47,854489
-2,11,6,1,1,0,-1,-2,2021-08-05 17:23:47,854489
4,18,11,4,4,3,1,3,2021-08-05 17:23:47,854489
2,-26,-17,-1,-3,-4,-3,-2,2021-08-05 17:23:47,854489
4,55,19,4,3,3,1,2,2021-08-05 17:23:47,854489
-2,-55,-14,5,1,0,0,1,2021-08-05 17:23:47,854489
-3,10,-6,-7,-6,-7,-6,-7,2021-08-05 17:23:47,854489
-2,-15,-8,-5,1,1,-1,0,2021-08-05 17:23:47,854489
-3,2,2,-2,-1,-3,-2,-1,2021-08-05 17:23:47,855491
0,6,2,2,3,2,1,2,2021-08-05 17:23:47,855491
-2,5,13,1,-6,-5,-3,-2,2021-08-05 17:23:47,855491
0,11,3,5,3,3,2,2,2021-08-05 17:23:47,855491
1,-6,0,-1,-3,-2,-4,-4,2021-08-05 17:23:47,855491
4,15,-1,1,2,1,3,0,2021-08-05 17:23:47,855491
-12,-36,-4,-2,-3,-3,-1,-4,2021-08-05 17:23:47,855491
0,10,8,1,0,-1,1,-1,2021-08-05 17:23:47,855491
3,71,2,-4,-1,-2,-2,0,2021-08-05 17:23:47,855491
-2,-83,-14,-4,-2,-2,-3,-2,2021-08-05 17:23:47,855491
-1,-7,-10,-8,-4,-2,-1,-2,2021-08-05 17:23:47,885565
-3,-14,-13,-7,-4,-2,-4,-2,2021-08-05 17:23:47,900614
-2,1,3,2,-2,-2,-2,-1,2021-08-05 17:23:47,916133
6,43,17,5,1,3,3,4,2021-08-05 17:23:47,931501
3,30,16,6,3,2,1,2,2021-08-05 17:23:47,931699
-6,-44,-12,1,1,3,2,2,2021-08-05 17:23:47,931803
0,-23,-20,-2,0,-4,-1,-1,2021-08-05 17:23:47,931949
-4,13,9,-7,-8,-6,-6,-7,2021-08-05 17:23:47,932002
0,-18,-3,1,3,2,1,0,2021-08-05 17:23:47,932002
-1,3,1,-4,-2,-1,0,-2,2021-08-05 17:23:47,932177
-3,-26,-8,0,1,1,-1,-2,2021-08-05 17:23:47,932244
-5,6,-12,-8,-4,-3,-2,-2,2021-08-05 17:23:47,947140
2,19,7,4,0,-1,-1,-1,2021-08-05 17:23:47,962001
2,8,1,1,-2,-1,0,1,2021-08-05 17:23:47,962001
-4,-22,0,-1,3,2,0,1,2021-08-05 17:23:47,962001
-1,-7,-4,-3,-1,-2,-2,-4,2021-08-05 17:23:47,962001
2,21,-1,-2,-2,-3,0,2,2021-08-05 17:23:47,962001
-1,-19,8,3,3,1,1,0,2021-08-05 17:23:47,962001
-4,-40,-16,1,-3,-2,-1,-2,2021-08-05 17:23:47,962001
3,32,9,0,-1,1,-3,-2,2021-08-05 17:23:47,962001
-2,0,10,1,0,-2,-2,-3,2021-08-05 17:23:47,979001
4,14,-12,-1,4,2,4,5,2021-08-05 17:23:47,995154
-2,-17,-9,-8,-7,-3,-1,-2,2021-08-05 17:23:47,995154
-4,-13,-1,-1,-2,-3,-3,-1,2021-08-05 17:23:47,995154
0,30,-4,-1,-3,-2,-2,-1,2021-08-05 17:23:47,995154
-3,-13,19,-1,-4,-4,-4,-3,2021-08-05 17:23:47,995154
3,-3,-3,3,2,2,2,3,2021-08-05 17:23:47,995154
-2,-13,-6,0,0,-1,1,0,2021-08-05 17:23:47,995154
2,2,6,4,2,1,2,1,2021-08-05 17:23:48,025117
-2,16,1,-6,-4,-5,-6,-3,2021-08-05 17:23:48,025331
-2,-1,-1,2,2,1,0,-1,2021-08-05 17:23:48,025412
0,11,3,1,0,0,0,1,2021-08-05 17:23:48,025412
-2,-10,-3,-2,-2,0,0,-1,2021-08-05 17:23:48,041201
-1,4,0,1,0,1,-1,0,2021-08-05 17:23:48,041201
4,-13,12,5,-2,-2,1,0,2021-08-05 17:23:48,041201
0,-16,-9,-1,0,0,-1,-1,2021-08-05 17:23:48,041201
-17,-9,-25,-20,-10,-9,-6,-8,2021-08-05 17:23:48,057144
-6,2,-12,-9,-3,-1,-2,-1,2021-08-05 17:23:48,057144
4,29,20,7,5,1,1,2,2021-08-05 17:23:48,072000
7,-3,13,9,4,0,2,3,2021-08-05 17:23:48,072336
9,29,3,4,4,5,3,0,2021-08-05 17:23:48,072336
-8,-57,-25,-9,-7,-6,-5,-7,2021-08-05 17:23:48,072336
-4,17,-10,-10,-1,0,-1,-4,2021-08-05 17:23:48,087001
0,-39,-6,-2,-3,-2,-1,2,2021-08-05 17:23:48,103130
2,1,-2,6,4,3,0,3,2021-08-05 17:23:48,118782
5,20,25,7,3,2,2,4,2021-08-05 17:23:48,119006
-1,13,3,-1,-1,-1,0,-1,2021-08-05 17:23:48,119006
-5,12,0,-3,-1,-4,-1,-4,2021-08-05 17:23:48,119006
0,-8,4,0,-2,-1,1,0,2021-08-05 17:23:48,119006
-1,9,-5,0,0,-1,1,0,2021-08-05 17:23:48,119765
0,-17,-2,-1,-1,-3,-2,-1,2021-08-05 17:23:48,119765
-2,21,-2,-3,-4,-1,-2,-2,2021-08-05 17:23:48,120052
-2,-22,6,0,-2,-3,-2,-2,2021-08-05 17:23:48,134626
4,5,-2,7,4,3,3,0,2021-08-05 17:23:48,134851
-2,-6,-15,-7,-2,-2,-3,-2,2021-08-05 17:23:48,134956
-5,6,6,-3,-3,-2,-1,-3,2021-08-05 17:23:48,135029
2,-11,-3,3,-1,1,-2,1,2021-08-05 17:23:48,165601
0,18,7,-2,-1,-1,0,-1,2021-08-05 17:23:48,181512
-2,-4,-1,-2,-3,0,-1,-2,2021-08-05 17:23:48,196512
0,13,-13,-4,-2,-1,-1,-1,2021-08-05 17:23:48,196933
-1,-24,6,4,4,3,1,2,2021-08-05 17:23:48,197045
1,4,10,7,-2,-4,-3,-2,2021-08-05 17:23:48,197045
1,-5,12,4,0,-2,-1,2,2021-08-05 17:23:48,197214
-9,-1,-28,-18,-3,0,-2,-5,2021-08-05 17:23:48,197309
-2,3,-11,-11,-8,-6,-5,-4,2021-08-05 17:23:48,197413
1,3,-4,-1,2,1,1,1,2021-08-05 17:23:48,211512
2,31,16,9,2,2,2,2,2021-08-05 17:23:48,227597
4,-8,25,17,5,2,3,6,2021-08-05 17:23:48,227597
-4,-38,-28,-5,0,-1,-2,0,2021-08-05 17:23:48,227597
-7,-1,-17,-20,-12,-7,-5,-8,2021-08-05 17:23:48,227597
-3,-9,-3,-5,-5,-6,-3,-3,2021-08-05 17:23:48,227597
1,19,1,4,3,2,0,1,2021-08-05 17:23:48,227597
1,2,15,11,4,4,3,3,2021-08-05 17:23:48,240512
1,-1,5,3,0,0,0,0,2021-08-05 17:23:48,240512
-3,-2,-10,2,1,2,1,-2,2021-08-05 17:23:48,240512
-2,-6,2,-3,-4,-2,0,1,2021-08-05 17:23:48,240512
-2,-2,0,-6,-4,-4,-3,-3,2021-08-05 17:23:48,274512
2,6,-1,6,5,2,2,3,2021-08-05 17:23:48,290512
-1,-4,-1,-5,-4,-3,-3,-1,2021-08-05 17:23:48,306742
-3,-10,-1,-5,-1,-2,-1,-3,2021-08-05 17:23:48,306742
1,4,-1,-5,-2,-1,-1,-1,2021-08-05 17:23:48,306742
-1,8,4,3,1,2,0,1,2021-08-05 17:23:48,306742
-4,-14,-10,-10,-6,-4,-5,-2,2021-08-05 17:23:48,306742
2,-2,-3,3,1,-3,0,0,2021-08-05 17:23:48,306742
-1,12,4,1,0,-1,2,0,2021-08-05 17:23:48,306742
-2,-1,1,-3,-5,-2,-2,-2,2021-08-05 17:23:48,306742
2,-4,-6,1,1,-2,1,0,2021-08-05 17:23:48,307513
0,33,2,2,0,2,-2,1,2021-08-05 17:23:48,307513
2,-18,14,6,1,2,0,-1,2021-08-05 17:23:48,321568
-3,-21,-17,-6,-2,0,-1,-1,2021-08-05 17:23:48,336495
-1,1,0,-6,-5,-2,-3,-3,2021-08-05 17:23:48,336495
-3,0,5,-2,-4,-1,-3,-3,2021-08-05 17:23:48,336495
-2,5,-21,-10,-2,-1,-1,-3,2021-08-05 17:23:48,336495
1,7,12,6,3,1,2,2,2021-08-05 17:23:48,336495
-3,-3,4,2,2,1,-1,-2,2021-08-05 17:23:48,336495
-1,-5,9,-1,-4,-3,-3,-3,2021-08-05 17:23:48,336495
3,4,-4,4,4,1,0,2,2021-08-05 17:23:48,367558
2,0,-4,1,1,-2,0,-1,2021-08-05 17:23:48,367641
-2,7,-4,-4,0,-1,0,0,2021-08-05 17:23:48,367713
2,-7,5,1,-2,-3,-2,1,2021-08-05 17:23:48,367792
-1,-18,-7,1,-1,-2,0,-1,2021-08-05 17:23:48,383524
-2,43,6,-1,-5,-5,-3,-3,2021-08-05 17:23:48,383648
-4,-68,-8,-11,-3,1,-3,-4,2021-08-05 17:23:48,383742
-13,-21,-26,-10,1,2,0,-3,2021-08-05 17:23:48,383742
4,28,-6,-12,-9,-5,-4,-3,2021-08-05 17:23:48,399391
13,-5,-1,0,3,0,-3,-2,2021-08-05 17:23:48,399702
-11,28,11,4,-1,-1,-2,-1,2021-08-05 17:23:48,399702
7,14,14,12,5,4,0,1,2021-08-05 17:23:48,399702
-4,-11,13,5,2,2,1,2,2021-08-05 17:23:48,414490
-2,0,-4,4,2,0,2,1,2021-08-05 17:23:48,430663
5,3,-6,-6,-4,-2,-1,-3,2021-08-05 17:23:48,430663
-5,-15,-9,-7,-2,-2,-1,-5,2021-08-05 17:23:48,430880
-3,8,6,3,-2,-4,-2,0,2021-08-05 17:23:48,446491
2,-8,5,1,-1,-1,-1,0,2021-08-05 17:23:48,446491
1,5,-5,-1,-1,0,0,0,2021-08-05 17:23:48,446491
-4,-10,-12,-2,1,-2,1,0,2021-08-05 17:23:48,446491
3,4,4,-1,1,0,0,1,2021-08-05 17:23:48,462517
-6,-6,-6,-4,0,0,-1,0,2021-08-05 17:23:48,462517
0,-4,-3,4,3,4,2,1,2021-08-05 17:23:48,462517
0,11,9,3,-2,-1,-2,-4,2021-08-05 17:23:48,462517
0,-3,9,3,2,1,0,-1,2021-08-05 17:23:48,494502
-1,-9,-12,-3,-2,-3,-3,-3,2021-08-05 17:23:48,494502
0,10,3,-2,-5,-6,-5,-2,2021-08-05 17:23:48,494753
4,12,1,-2,-4,-3,-1,1,2021-08-05 17:23:48,494826
-3,22,19,4,1,0,1,0,2021-08-05 17:23:48,494826
-5,-12,-22,-8,0,2,0,0,2021-08-05 17:23:48,494908
8,15,37,13,2,3,3,6,2021-08-05 17:23:48,495004
7,-57,-32,8,5,4,3,1,2021-08-05 17:23:48,495004
-28,-22,-55,-45,-10,-3,-7,-15,2021-08-05 17:23:48,519391
-8,1,-9,-16,-10,-6,-5,-4,2021-08-05 17:23:48,519791
4,19,10,4,2,0,-1,1,2021-08-05 17:23:48,519791
6,25,25,6,2,-1,1,4,2021-08-05 17:23:48,519791
14,21,16,20,7,3,3,5,2021-08-05 17:23:48,557546
-2,-30,6,7,5,3,4,0,2021-08-05 17:23:48,557669
-4,-4,-13,-4,-2,-2,0,-2,2021-08-05 17:23:48,557780
1,2,2,-3,-4,-2,-2,0,2021-08-05 17:23:48,557839
-1,-7,-1,1,-1,-2,-4,-1,2021-08-05 17:23:48,557839
-2,11,7,-2,-3,-1,-2,-3,2021-08-05 17:23:48,557839
0,-7,-9,2,1,-2,1,1,2021-08-05 17:23:48,557839
-6,-7,-2,-4,-1,-3,-3,-1,2021-08-05 17:23:48,557839
1,0,-2,-2,-3,-4,-2,-1,2021-08-05 17:23:48,589516
1,5,11,1,0,2,0,1,2021-08-05 17:23:48,604528
-2,-14,-8,-2,-2,-1,-2,-2,2021-08-05 17:23:48,619646
-2,7,-6,-5,1,1,0,-1,2021-08-05 17:23:48,619646
-1,7,7,1,-3,-4,0,-2,2021-08-05 17:23:48,619646
5,56,26,11,3,2,3,4,2021-08-05 17:23:48,619646
-1,-43,-5,10,3,0,0,1,2021-08-05 17:23:48,619646
-10,-38,-42,-20,-6,-2,-3,-6,2021-08-05 17:23:48,619646
-2,1,-6,-13,-8,-6,-5,-6,2021-08-05 17:23:48,619646
2,33,22,0,0,0,-1,3,2021-08-05 17:23:48,620393
5,13,7,9,2,1,-1,0,2021-08-05 17:23:48,620393
4,-4,3,9,1,3,2,4,2021-08-05 17:23:48,620393
-18,-29,-19,-8,-5,-2,-3,-2,2021-08-05 17:23:48,651472
0,-6,-8,-13,-7,-4,-5,-6,2021-08-05 17:23:48,666697
-1,25,20,-2,1,0,0,1,2021-08-05 17:23:48,697342
8,-4,13,11,5,-1,2,3,2021-08-05 17:23:48,697473
6,-4,-4,10,5,3,1,-1,2021-08-05 17:23:48,697560
-8,-3,-23,-21,-10,-6,-6,-6,2021-08-05 17:23:48,697560
1,20,4,2,1,0,1,0,2021-08-05 17:23:48,697560
1,-34,9,8,-2,-2,-3,-1,2021-08-05 17:23:48,697797
1,6,10,0,-2,0,1,3,2021-08-05 17:23:48,697817
-4,-22,-16,-8,0,0,-2,-4,2021-08-05 17:23:48,697896
4,7,27,11,-4,-2,-4,-1,2021-08-05 17:23:48,697917
-7,11,-22,5,6,0,-1,-5,2021-08-05 17:23:48,697999
-14,-35,-51,-48,-16,-7,-5,-8,2021-08-05 17:23:48,697999
6,-18,10,15,6,3,3,8,2021-08-05 17:23:48,698064
-2,12,-9,-5,-5,-4,-3,-4,2021-08-05 17:23:48,698142
4,33,38,18,4,2,2,3,2021-08-05 17:23:48,698203
3,-13,16,31,7,4,0,-2,2021-08-05 17:23:48,728473
-6,7,-49,-50,-9,-4,-5,-7,2021-08-05 17:23:48,728473
1,-20,2,5,-2,1,2,1,2021-08-05 17:23:48,759472
8,38,30,8,5,3,4,5,2021-08-05 17:23:48,774473
12,-1,9,23,2,0,3,4,2021-08-05 17:23:48,774794
-34,-91,-59,-29,-4,-2,-4,-10,2021-08-05 17:23:48,774896
-5,7,-25,-24,-13,-8,-8,-7,2021-08-05 17:23:48,775065
2,1,16,-1,-6,-2,-4,2,2021-08-05 17:23:48,775141
11,59,52,21,9,3,2,3,2021-08-05 17:23:48,775231
14,29,18,29,5,4,5,7,2021-08-05 17:23:48,775318
-13,-75,-22,-17,4,1,1,-4,2021-08-05 17:23:48,775422
-12,3,-64,-37,-12,-4,-5,-9,2021-08-05 17:23:48,775502
3,30,3,-10,-10,-8,-4,-1,2021-08-05 17:23:48,799472
10,18,54,43,9,4,3,6,2021-08-05 17:23:48,800013
1,-2,19,23,7,3,4,2,2021-08-05 17:23:48,800013
-3,-9,-25,-15,-1,1,1,-1,2021-08-05 17:23:48,800013
-8,-12,-23,-23,-1,1,-3,-3,2021-08-05 17:23:48,800013
-1,-5,-8,-7,-7,-3,-3,-6,2021-08-05 17:23:48,800473
12,55,50,25,1,-1,0,7,2021-08-05 17:23:48,820677
0,-10,52,49,11,1,2,1,2021-08-05 17:23:48,820677
-17,-46,-104,-69,-11,-2,-5,-13,2021-08-05 17:23:48,820677
3,14,18,-2,-2,0,0,0,2021-08-05 17:23:48,820677
-2,10,-10,2,4,2,-1,-1,2021-08-05 17:23:48,820677
3,10,39,7,0,-2,-1,4,2021-08-05 17:23:48,820677
-3,-27,7,17,7,3,1,3,2021-08-05 17:23:48,851864
4,0,-16,8,-2,-2,-1,-2,2021-08-05 17:23:48,867799
-5,41,-27,-30,-7,-3,-5,-7,2021-08-05 17:23:48,867953
-2,-65,-7,-10,-6,-4,-3,-3,2021-08-05 17:23:48,868198
5,30,51,21,5,2,3,5,2021-08-05 17:23:48,868198
0,-5,-27,1,7,2,2,1,2021-08-05 17:23:48,868198
-6,-17,-19,-8,-8,-4,-2,-3,2021-08-05 17:23:48,868198
-5,22,7,-7,-3,-3,-4,-5,2021-08-05 17:23:48,868198
6,-13,-10,0,-1,0,0,3,2021-08-05 17:23:48,883798
1,11,34,20,2,-3,-1,1,2021-08-05 17:23:48,898886
0,-17,-6,6,4,2,4,1,2021-08-05 17:23:48,914041
-8,-7,-34,-21,-4,0,-2,-4,2021-08-05 17:23:48,914041
5,4,9,-3,-3,-1,0,3,2021-08-05 17:23:48,914525
0,-4,-9,-14,-4,-4,-4,-1,2021-08-05 17:23:48,914609
-2,-5,6,-3,-1,-2,-3,-3,2021-08-05 17:23:48,930083
3,42,33,29,0,-1,0,0,2021-08-05 17:23:48,944999
1,-22,-15,5,7,1,1,0,2021-08-05 17:23:48,945224
-9,-23,-35,-49,-9,-1,-1,-4,2021-08-05 17:23:48,945317
1,-6,-1,-3,0,0,0,0,2021-08-05 17:23:48,945444
4,23,30,22,2,0,-1,1,2021-08-05 17:23:48,945556
1,13,32,41,9,1,0,2,2021-08-05 17:23:48,945700
-8,-23,-58,-55,-10,-3,-3,-6,2021-08-05 17:23:48,945802
-3,-14,-16,-11,-4,-2,-3,-2,2021-08-05 17:23:48,945956
-2,10,-10,-9,-3,-3,-3,-3,2021-08-05 17:23:48,946062
11,33,81,51,8,1,5,8,2021-08-05 17:23:48,975954
3,-6,13,26,8,4,5,2,2021-08-05 17:23:48,991047
-10,-27,-83,-54,-15,-4,-3,-6,2021-08-05 17:23:49,007049
-4,-8,-16,-19,-5,-2,-4,-4,2021-08-05 17:23:49,007173
4,14,23,18,5,2,2,3,2021-08-05 17:23:49,007333
3,11,71,56,8,-1,-1,4,2021-08-05 17:23:49,007492
-5,-8,-50,-51,-8,-3,-5,-6,2021-08-05 17:23:49,007666
-1,-5,-20,-17,-7,-3,0,0,2021-08-05 17:23:49,007815
-5,-11,-12,-15,-5,-2,-1,-3,2021-08-05 17:23:49,007955
2,11,33,24,5,0,-1,3,2021-08-05 17:23:49,007955
-3,4,32,34,4,0,-2,-3,2021-08-05 17:23:49,007955
3,-7,-40,-30,-2,2,1,0,2021-08-05 17:23:49,007955
-2,-6,-27,-29,-10,-5,-3,-2,2021-08-05 17:23:49,022955
2,5,21,23,6,1,2,1,2021-08-05 17:23:49,022955
3,9,27,11,4,1,0,1,2021-08-05 17:23:49,038998
-1,-6,-9,4,0,-1,0,1,2021-08-05 17:23:49,039105
3,4,14,15,2,2,-1,-1,2021-08-05 17:23:49,039214
-10,-12,-56,-57,-19,-5,-5,-9,2021-08-05 17:23:49,039214
1,-1,23,24,6,3,2,3,2021-08-05 17:23:49,055033
-4,-5,-34,-42,-6,-5,-3,-3,2021-08-05 17:23:49,055290
0,-11,-7,-8,-3,-2,0,2,2021-08-05 17:23:49,070094
3,13,46,32,6,-1,0,4,2021-08-05 17:23:49,070200
5,11,33,39,10,4,2,2,2021-08-05 17:23:49,085025
-6,-15,-53,-43,-7,0,0,-4,2021-08-05 17:23:49,096955
-6,-10,-29,-26,-7,-2,-4,-5,2021-08-05 17:23:49,096955
-2,-1,2,-1,-1,1,-1,-2,2021-08-05 17:23:49,096955
3,-1,16,15,1,-1,1,2,2021-08-05 17:23:49,096955
0,6,69,51,7,0,1,1,2021-08-05 17:23:49,096955
-5,-6,-65,-37,-8,-3,-1,-5,2021-08-05 17:23:49,096955
-2,-7,-20,-23,-11,-5,-5,-4,2021-08-05 17:23:49,096955
-2,2,-10,-10,-3,-2,-2,-3,2021-08-05 17:23:49,116455
7,11,56,45,15,5,4,8,2021-08-05 17:23:49,116455
-10,-4,-2,-7,-6,-4,-3,-10,2021-08-05 17:23:49,116734
-1,-8,-66,-51,-7,-2,-2,-1,2021-08-05 17:23:49,116856
-1,-6,-11,-11,-4,-2,-1,-1,2021-08-05 17:23:49,132218
-2,-2,1,2,-2,-2,-1,-2,2021-08-05 17:23:49,132300
3,12,63,48,8,1,2,4,2021-08-05 17:23:49,148112
-1,5,10,23,2,-2,-1,-6,2021-08-05 17:23:49,164173
-7,-12,-50,-51,-14,-2,-2,-6,2021-08-05 17:23:49,164406
0,-2,-18,-12,-4,-1,-1,2,2021-08-05 17:23:49,164406
-1,0,3,2,1,2,-1,2,2021-08-05 17:23:49,164406
2,6,47,41,6,2,-1,2,2021-08-05 17:23:49,164406
-3,2,4,-11,1,-3,-3,-2,2021-08-05 17:23:49,164739
0,-11,-50,-28,-5,0,0,-1,2021-08-05 17:23:49,164739
4,3,-7,-7,0,2,1,2,2021-08-05 17:23:49,196228
1,-4,3,-1,1,1,2,2,2021-08-05 17:23:49,212038
5,11,36,33,10,3,4,6,2021-08-05 17:23:49,212038
-4,7,44,30,1,-4,-5,-5,2021-08-05 17:23:49,212038
-5,-19,-79,-57,-11,-4,-1,-4,2021-08-05 17:23:49,212038
1,1,12,13,4,1,2,1,2021-08-05 17:23:49,212038
2,4,29,33,4,2,-2,-1,2021-08-05 17:23:49,212038
-4,-2,-33,-33,-6,-1,0,-1,2021-08-05 17:23:49,212038
2,-2,-1,-3,-2,-1,-1,1,2021-08-05 17:23:49,212038
3,8,27,26,4,0,1,2,2021-08-05 17:23:49,213038
-5,2,29,14,-4,-6,-4,-3,2021-08-05 17:23:49,227122
-3,-10,-66,-47,-8,-2,-3,-4,2021-08-05 17:23:49,227122
-2,-4,10,1,-1,0,-1,0,2021-08-05 17:23:49,243039
-2,-10,-28,-20,-3,-1,-1,-1,2021-08-05 17:23:49,243298
8,16,64,48,9,1,3,5,2021-08-05 17:23:49,243385
1,13,48,54,7,0,-2,0,2021-08-05 17:23:49,243444
-4,-13,-44,-32,-3,-2,-3,-4,2021-08-05 17:23:49,275074
-3,-13,-51,-42,-11,0,-1,3,2021-08-05 17:23:49,275074
-2,-2,-8,-5,-1,-2,-2,0,2021-08-05 17:23:49,275074
-1,1,18,14,-1,-2,-2,-2,2021-08-05 17:23:49,275074
3,14,53,40,7,-1,0,0,2021-08-05 17:23:49,275074
-3,6,35,35,3,0,1,-4,2021-08-05 17:23:49,275074
0,-5,-54,-21,-3,2,3,0,2021-08-05 17:23:49,291125
-7,-22,-75,-70,-12,0,0,-2,2021-08-05 17:23:49,291125
1,2,19,10,2,-2,0,0,2021-08-05 17:23:49,307100
-3,-3,6,-1,-1,-1,-1,-1,2021-08-05 17:23:49,307189
6,11,64,57,13,3,3,9,2021-08-05 17:23:49,307330
-12,-23,-71,-75,-11,0,-3,-11,2021-08-05 17:23:49,307421
-5,2,15,11,-1,-2,-3,-2,2021-08-05 17:23:49,337100
-1,3,2,-1,-4,-4,-4,-6,2021-08-05 17:23:49,337248
-1,-2,-32,-22,-7,-4,-3,-1,2021-08-05 17:23:49,353177
13,23,98,78,10,-3,-1,5,2021-08-05 17:23:49,353308
-1,-1,-2,-4,-1,-2,-1,-1,2021-08-05 17:23:49,353308
-3,-5,-62,-26,-4,2,1,0,2021-08-05 17:23:49,353491
-6,-13,-53,-62,-13,-2,-5,-5,2021-08-05 17:23:49,353491
5,5,9,19,6,3,3,5,2021-08-05 17:23:49,353658
4,16,82,54,7,-1,0,3,2021-08-05 17:23:49,368501
-7,-14,-24,-15,0,-3,-2,-4,2021-08-05 17:23:49,384037
-7,-14,-43,-28,-5,-2,0,-4,2021-08-05 17:23:49,399115
0,4,15,13,2,-1,-1,-2,2021-08-05 17:23:49,399115
2,1,24,22,2,0,-1,0,2021-08-05 17:23:49,399115
2,9,29,22,2,1,0,-1,2021-08-05 17:23:49,399115
-1,-18,-72,-59,-11,-1,0,-1,2021-08-05 17:23:49,399417
2,3,19,6,1,-1,0,3,2021-08-05 17:23:49,399499
-3,-1,13,32,4,1,-1,-1,2021-08-05 17:23:49,399499
-6,-17,-49,-70,-9,-1,-1,-7,2021-08-05 17:23:49,414774
4,13,54,42,10,2,3,5,2021-08-05 17:23:49,414897
-7,-11,-18,-11,-7,-4,-5,-8,2021-08-05 17:23:49,414917
1,5,-20,-17,-2,2,2,1,2021-08-05 17:23:49,415044
4,4,12,12,1,-1,1,4,2021-08-05 17:23:49,415064
-1,-5,8,10,0,-4,-3,-4,2021-08-05 17:23:49,430241
-1,5,11,10,0,0,1,-1,2021-08-05 17:23:49,430341
-4,5,3,1,-2,-4,-4,-4,2021-08-05 17:23:49,445202
2,-10,-30,-31,-7,0,2,3,2021-08-05 17:23:49,460189
-6,0,4,9,-1,-1,-4,-4,2021-08-05 17:23:49,460334
1,9,31,23,-1,-2,-1,1,2021-08-05 17:23:49,460334
1,-13,-53,-48,-5,1,-1,0,2021-08-05 17:23:49,460472
5,5,24,35,8,2,2,6,2021-08-05 17:23:49,460472
0,1,18,5,3,0,1,-1,2021-08-05 17:23:49,476064
-8,-13,-45,-32,-7,-3,-2,-3,2021-08-05 17:23:49,491062
1,0,7,-1,2,-1,1,2,2021-08-05 17:23:49,506172
3,11,47,38,4,-4,-2,2,2021-08-05 17:23:49,522062
-3,2,-5,3,5,5,4,-2,2021-08-05 17:23:49,522062
-4,-7,-26,-15,-4,-3,-1,-2,2021-08-05 17:23:49,522062
-4,-11,-34,-26,-6,-1,-2,-4,2021-08-05 17:23:49,522062
-1,1,14,9,0,-2,-2,-2,2021-08-05 17:23:49,522062
2,6,21,19,3,-1,-1,0,2021-08-05 17:23:49,522062
1,11,25,30,5,-1,0,-4,2021-08-05 17:23:49,522062
-1,-13,-29,-25,-7,0,0,1,2021-08-05 17:23:49,522062
-1,5,-2,2,0,-2,-2,-3,2021-08-05 17:23:49,523063
-1,-4,-13,-26,-6,-4,-2,-3,2021-08-05 17:23:49,523309
7,13,55,33,8,2,4,9,2021-08-05 17:23:49,523309
-1,-3,-55,-16,-4,1,1,-3,2021-08-05 17:23:49,552335
-1,-6,6,-6,0,0,-1,2,2021-08-05 17:23:49,552335
0,5,27,28,-1,-2,-3,-2,2021-08-05 17:23:49,552335
-6,-15,-43,-24,-6,1,0,-4,2021-08-05 17:23:49,552335
-3,1,32,17,0,-1,-1,-4,2021-08-05 17:23:49,568327
0,1,-10,-31,-5,-3,-3,-3,2021-08-05 17:23:49,568459
2,-3,-21,-19,-3,0,2,4,2021-08-05 17:23:49,568734
2,5,33,32,5,-2,-3,0,2021-08-05 17:23:49,568734
-2,15,37,27,7,-1,-1,-3,2021-08-05 17:23:49,584252
2,-14,-61,-34,-6,2,3,3,2021-08-05 17:23:49,599344
-3,-3,6,3,-2,-2,-1,-1,2021-08-05 17:23:49,615357
-1,-2,3,-7,-3,-2,-5,-3,2021-08-05 17:23:49,615357
-1,4,1,5,-3,0,-2,-1,2021-08-05 17:23:49,615518
2,13,54,39,6,1,0,3,2021-08-05 17:23:49,615590
-7,-22,-83,-48,-8,1,0,-4,2021-08-05 17:23:49,615686
6,0,0,-2,4,2,4,6,2021-08-05 17:23:49,615791
-1,-2,4,-4,-1,-4,-3,-2,2021-08-05 17:23:49,631366
-1,6,40,38,4,-2,-3,-2,2021-08-05 17:23:49,646252
-4,-2,-16,-9,-2,-3,-1,-3,2021-08-05 17:23:49,661303
-6,-10,-19,-14,-1,-1,0,-2,2021-08-05 17:23:49,661303
-3,-7,1,-2,-1,-1,0,-2,2021-08-05 17:23:49,661303
-2,3,5,9,0,-1,-3,-2,2021-08-05 17:23:49,661303
10,24,73,60,12,3,2,6,2021-08-05 17:23:49,661303
-10,-25,-89,-80,-15,-5,-5,-8,2021-08-05 17:23:49,661303
-1,-7,-1,-6,2,0,1,2,2021-08-05 17:23:49,661303
-4,0,-6,-1,-1,-2,-1,-5,2021-08-05 17:23:49,661303
0,0,12,4,-2,-2,-4,-1,2021-08-05 17:23:49,662252
5,15,45,42,8,4,2,4,2021-08-05 17:23:49,662252
-4,-6,-46,-38,-6,-1,-2,-4,2021-08-05 17:23:49,693393
-4,-4,-6,-5,-4,-2,-2,-4,2021-08-05 17:23:49,709342
-3,0,6,-4,0,0,-2,-2,2021-08-05 17:23:49,709342
-1,1,14,7,-3,-3,-2,-4,2021-08-05 17:23:49,709598
2,-3,10,19,5,-1,0,3,2021-08-05 17:23:49,709677
5,4,-2,-13,-2,2,1,1,2021-08-05 17:23:49,709747
-7,-10,-19,-17,-3,-3,-4,-6,2021-08-05 17:23:49,709813
3,6,22,15,3,2,2,4,2021-08-05 17:23:49,709813
4,-2,-22,-5,2,2,5,6,2021-08-05 17:23:49,724354
0,5,20,14,4,-1,-1,1,2021-08-05 17:23:49,724354
-2,2,16,10,-2,-3,-2,-2,2021-08-05 17:23:49,724354
0,5,-15,10,3,3,2,-3,2021-08-05 17:23:49,724354
-2,-1,11,0,-2,0,0,0,2021-08-05 17:23:49,740252
-4,-23,-67,-89,-13,-2,-1,-2,2021-08-05 17:23:49,740252
0,0,-13,-9,-1,-1,-1,1,2021-08-05 17:23:49,740252
1,3,31,21,3,-3,0,1,2021-08-05 17:23:49,740252
-4,6,29,13,-5,-2,-4,-5,2021-08-05 17:23:49,771406
-1,0,-16,15,1,-2,-2,-2,2021-08-05 17:23:49,786407
-4,-3,10,-2,-2,0,-1,-3,2021-08-05 17:23:49,786502
3,3,-1,0,4,2,2,6,2021-08-05 17:23:49,786502
-2,-1,-6,-8,-5,0,-3,-2,2021-08-05 17:23:49,786502
-5,-7,10,9,-1,-3,-3,-3,2021-08-05 17:23:49,786781
4,0,-8,-6,2,2,1,2,2021-08-05 17:23:49,786885
-1,-4,-7,-5,-4,-3,-1,-1,2021-08-05 17:23:49,786885
0,3,7,5,-2,-4,-4,-5,2021-08-05 17:23:49,817378
-3,-2,7,-3,1,2,3,0,2021-08-05 17:23:49,832333
-3,-8,-24,-14,-6,-2,0,-3,2021-08-05 17:23:49,832616
-2,-3,-1,1,0,-2,-1,-1,2021-08-05 17:23:49,832735
-1,0,2,-14,-3,-4,-1,-1,2021-08-05 17:23:49,832898
-1,4,-6,4,-2,-1,-2,1,2021-08-05 17:23:49,832983
1,-2,-6,-1,1,1,0,0,2021-08-05 17:23:49,833087
-5,-6,-4,-11,-6,-2,-4,-6,2021-08-05 17:23:49,847402
-2,-3,8,14,2,-1,-1,-1,2021-08-05 17:23:49,863377
4,13,24,25,9,4,4,4,2021-08-05 17:23:49,863377
-1,4,-2,-3,-3,-3,-1,-1,2021-08-05 17:23:49,863377
-6,-15,-32,-32,-6,-1,-2,-5,2021-08-05 17:23:49,863377
3,0,-4,1,1,1,1,3,2021-08-05 17:23:49,863377
-1,0,11,14,2,0,-2,-1,2021-08-05 17:23:49,863377
1,2,9,7,1,0,-2,-1,2021-08-05 17:23:49,864254
-3,7,26,10,-1,-4,-4,-3,2021-08-05 17:23:49,864369
2,-9,-34,-5,2,3,4,3,2021-08-05 17:23:49,895253
3,-2,2,-5,0,0,0,0,2021-08-05 17:23:49,895436
-3,-2,-11,-9,-5,-2,-3,-4,2021-08-05 17:23:49,895669
-3,-6,-1,-4,-5,-3,-3,-2,2021-08-05 17:23:49,895832
0,3,6,1,-1,1,0,2,2021-08-05 17:23:49,895993
-1,-1,3,3,-3,-3,-1,-3,2021-08-05 17:23:49,896084
-3,0,18,13,3,-3,0,0,2021-08-05 17:23:49,896253
0,-2,-29,-31,-7,2,-1,0,2021-08-05 17:23:49,896368
-3,-3,-9,-7,-3,-2,-2,-4,2021-08-05 17:23:49,926317
5,5,2,4,0,2,1,2,2021-08-05 17:23:49,926317
-3,-2,13,7,0,-2,-2,-1,2021-08-05 17:23:49,926317
2,-1,-6,7,1,0,1,3,2021-08-05 17:23:49,926317
-2,2,4,0,-2,0,-2,-2,2021-08-05 17:23:49,958330
-1,-6,-5,6,-1,0,0,-3,2021-08-05 17:23:49,974252
-3,-5,-6,-27,-4,-1,-2,-2,2021-08-05 17:23:49,974477
2,5,11,12,1,0,-1,-2,2021-08-05 17:23:49,974546
0,2,7,2,1,0,0,-1,2021-08-05 17:23:49,974546
-9,-7,-10,-9,-5,-5,-4,-4,2021-08-05 17:23:49,974704
4,0,-4,6,2,2,1,3,2021-08-05 17:23:49,974704
-3,-3,-2,-3,-1,-2,-2,-2,2021-08-05 17:23:49,974704
2,-1,6,0,1,-2,-2,1,2021-08-05 17:23:49,990395
-4,0,5,0,-3,-1,-3,-3,2021-08-05 17:23:50,006252
-5,-6,-4,-7,-6,-4,-5,-8,2021-08-05 17:23:50,006540
9,4,-12,-8,4,4,5,9,2021-08-05 17:23:50,022252
2,3,10,6,-1,0,0,0,2021-08-05 17:23:50,022252
-3,1,8,7,2,-3,-3,-2,2021-08-05 17:23:50,022252
4,-1,-9,11,1,5,4,5,2021-08-05 17:23:50,022252
-3,1,-2,-23,-5,-3,-2,-5,2021-08-05 17:23:50,022252
-8,-8,-17,-23,-7,-3,-3,-7,2021-08-05 17:23:50,022252
3,2,3,-3,2,0,0,1,2021-08-05 17:23:50,022252
1,4,6,7,5,-1,0,1,2021-08-05 17:23:50,022252
-2,-3,10,12,0,-4,-3,-3,2021-08-05 17:23:50,022252
1,0,-1,4,0,-2,0,1,2021-08-05 17:23:50,053330
-3,-1,-4,-5,-4,-4,-4,-4,2021-08-05 17:23:50,053412
0,-3,-7,-7,-2,-1,-1,2,2021-08-05 17:23:50,053412
2,-1,11,15,3,3,2,4,2021-08-05 17:23:50,053412
-1,3,-4,-12,-2,-3,-4,-4,2021-08-05 17:23:50,061252
-1,-3,-5,2,0,2,1,0,2021-08-05 17:23:50,061252
1,1,-8,-1,-1,-1,0,-1,2021-08-05 17:23:50,062254
-3,-3,-1,0,-2,-2,-3,-2,2021-08-05 17:23:50,062406
0,-2,9,11,2,0,2,2,2021-08-05 17:23:50,083360
0,4,1,4,1,1,2,3,2021-08-05 17:23:50,083360
-1,-5,-12,-17,-4,-3,-2,-3,2021-08-05 17:23:50,083360
-1,-5,-2,-1,-3,-2,-3,-2,2021-08-05 17:23:50,083360
-2,-4,-1,2,-2,-3,-4,-4,2021-08-05 17:23:50,115377
-2,1,1,2,0,-1,-2,-2,2021-08-05 17:23:50,131252
-3,-2,3,0,-3,-2,1,-1,2021-08-05 17:23:50,131252
-2,-2,-2,5,0,-1,-1,-1,2021-08-05 17:23:50,147252
-2,-2,-2,-7,-2,-2,0,0,2021-08-05 17:23:50,147252
1,0,-5,-5,-3,-3,-2,0,2021-08-05 17:23:50,147252
3,5,-1,-2,0,0,-1,-1,2021-08-05 17:23:50,147630
-3,3,3,0,-1,-3,-2,-3,2021-08-05 17:23:50,147630
2,-1,1,4,2,0,0,4,2021-08-05 17:23:50,147726
-4,-7,-7,-10,-6,0,-2,-1,2021-08-05 17:23:50,147726
2,2,1,-3,0,1,1,3,2021-08-05 17:23:50,147851
-5,-3,-1,-1,0,0,-2,-4,2021-08-05 17:23:50,147851
2,12,5,9,6,3,3,5,2021-08-05 17:23:50,177467
-4,-7,-10,-5,2,2,0,-4,2021-08-05 17:23:50,177467
1,3,10,7,-1,-2,-5,-2,2021-08-05 17:23:50,193315
2,2,-1,-6,-6,-3,-3,-1,2021-08-05 17:23:50,208352
3,1,-1,-2,-5,-4,-4,-1,2021-08-05 17:23:50,208352
4,1,6,4,-3,-2,-1,1,2021-08-05 17:23:50,208352
-1,0,-4,-3,-1,1,0,2,2021-08-05 17:23:50,208352
-4,-4,-6,-8,-4,-2,-3,-4,2021-08-05 17:23:50,208352
2,-1,-3,2,3,4,5,2,2021-08-05 17:23:50,208352
-3,-5,-1,-1,0,-3,-2,-1,2021-08-05 17:23:50,208352
-5,-4,-4,-3,1,-2,-1,-3,2021-08-05 17:23:50,208352
1,2,3,6,1,-2,1,2,2021-08-05 17:23:50,209253
0,-1,-6,-6,-2,0,-2,-4,2021-08-05 17:23:50,239328
0,-3,0,0,-1,-2,-2,-3,2021-08-05 17:23:50,239461
4,3,0,0,2,3,4,6,2021-08-05 17:23:50,239627
0,-1,-3,2,1,2,1,1,2021-08-05 17:23:50,239627
-4,-6,-2,1,-1,0,-2,-2,2021-08-05 17:23:50,255423
3,2,5,1,2,0,-1,2,2021-08-05 17:23:50,270425
-5,-9,-6,-6,-5,-4,-4,-6,2021-08-05 17:23:50,285327
1,7,-1,3,1,1,2,3,2021-08-05 17:23:50,301252
3,8,3,-3,-1,-1,1,-1,2021-08-05 17:23:50,316410
-5,-14,0,0,-4,-3,-3,-5,2021-08-05 17:23:50,316410
-5,12,-5,0,0,0,1,-1,2021-08-05 17:23:50,316732
6,15,6,1,2,0,3,0,2021-08-05 17:23:50,316841
-4,-5,-1,-4,-3,-4,-5,-4,2021-08-05 17:23:50,316912
0,8,-1,-4,-2,1,-1,-1,2021-08-05 17:23:50,317025
-4,-14,-2,-1,-3,-3,-4,-3,2021-08-05 17:23:50,317094
5,-4,4,8,5,6,3,9,2021-08-05 17:23:50,317094
-3,5,0,-1,-3,0,-1,-4,2021-08-05 17:23:50,317094
-1,-7,-1,-5,-1,-1,0,-1,2021-08-05 17:23:50,317253
-2,-7,-3,-1,-1,1,-1,1,2021-08-05 17:23:50,317253
-2,-2,-4,-2,-4,-3,-2,-4,2021-08-05 17:23:50,317253
3,-2,-1,2,0,0,2,3,2021-08-05 17:23:50,317253
-1,3,1,1,0,0,1,3,2021-08-05 17:23:50,317253
0,0,-3,-3,-1,-1,-1,-2,2021-08-05 17:23:50,331461
-5,1,2,-2,-1,-2,-3,-5,2021-08-05 17:23:50,331570
-1,-11,-5,-3,-3,1,0,0,2021-08-05 17:23:50,347417
-4,-1,1,0,-3,-1,-3,-7,2021-08-05 17:23:50,347417
3,-1,-1,-3,-3,-1,-1,-2,2021-08-05 17:23:50,347417
0,4,0,0,3,2,3,5,2021-08-05 17:23:50,347417
-8,-11,-3,-3,-4,-5,-4,-7,2021-08-05 17:23:50,377588
6,10,2,6,3,4,5,7,2021-08-05 17:23:50,379301
0,-1,-5,-5,-3,-3,-1,-4,2021-08-05 17:23:50,379301
1,-7,-4,-2,-1,-1,0,2,2021-08-05 17:23:50,379301
-2,1,3,-1,-2,-2,-2,-4,2021-08-05 17:23:50,380302
-1,0,-3,1,1,0,0,2,2021-08-05 17:23:50,380302
-1,-5,0,1,1,0,-1,-1,2021-08-05 17:23:50,393386
-5,-7,-1,-3,-4,-1,-4,-6,2021-08-05 17:23:50,393446
4,7,-2,0,5,4,3,6,2021-08-05 17:23:50,409301
1,-1,-1,-4,-2,-2,-2,-3,2021-08-05 17:23:50,425304
-1,1,3,2,0,0,-1,0,2021-08-05 17:23:50,441390
-5,-2,-2,-3,-5,-3,-4,-3,2021-08-05 17:23:50,441656
0,-4,-4,-1,-1,-2,1,2,2021-08-05 17:23:50,441776
-1,-3,0,2,1,-1,-1,0,2021-08-05 17:23:50,441929
3,3,-3,3,1,1,2,2,2021-08-05 17:23:50,442089
-5,-6,-1,-3,-4,-3,-2,-5,2021-08-05 17:23:50,442196
-3,0,-4,-3,-3,-3,-3,-3,2021-08-05 17:23:50,442303
2,4,-2,-3,-1,-3,-2,0,2021-08-05 17:23:50,442329
-2,-1,3,-1,-2,-2,-3,-4,2021-08-05 17:23:50,457395
3,1,4,1,2,1,1,2,2021-08-05 17:23:50,457537
-7,-38,-7,-2,-1,0,1,-2,2021-08-05 17:23:50,473304
-4,26,-6,-5,-4,-3,-1,-3,2021-08-05 17:23:50,473304
2,5,5,0,0,0,0,1,2021-08-05 17:23:50,473304
0,2,-1,-2,-1,-3,-4,-3,2021-08-05 17:23:50,473304
-2,-2,4,2,-1,-2,-3,-1,2021-08-05 17:23:50,489435
0,-7,2,5,2,3,2,4,2021-08-05 17:23:50,489435
-3,-5,-10,-14,-2,-2,-2,-3,2021-08-05 17:23:50,489435
-1,0,-4,-4,-2,-1,-1,-1,2021-08-05 17:23:50,489435
2,9,2,2,-1,-2,-1,-3,2021-08-05 17:23:50,505501
-2,-6,2,-2,-3,-3,-3,-1,2021-08-05 17:23:50,505501
-3,3,2,3,0,1,-2,0,2021-08-05 17:23:50,521300
3,-6,-2,0,2,2,5,7,2021-08-05 17:23:50,521300
0,7,-1,-3,0,1,0,0,2021-08-05 17:23:50,521300
0,-1,-2,-2,0,0,-1,-2,2021-08-05 17:23:50,521300
-2,-6,0,2,2,0,0,-2,2021-08-05 17:23:50,521300
-1,-1,-1,-2,-2,-1,0,1,2021-08-05 17:23:50,521300
2,5,-1,-3,-4,-2,-3,-1,2021-08-05 17:23:50,552386
3,-1,2,-1,-1,0,1,1,2021-08-05 17:23:50,552496
-3,-3,-2,-1,-4,-1,0,-3,2021-08-05 17:23:50,552620
-3,-2,2,1,-3,-1,-3,-3,2021-08-05 17:23:50,552620
-2,2,-4,-3,-3,-2,-3,-5,2021-08-05 17:23:50,568368
5,-3,4,3,3,1,3,5,2021-08-05 17:23:50,568368
0,-2,-2,1,1,0,0,-1,2021-08-05 17:23:50,568565
3,6,0,-2,0,-1,-1,-1,2021-08-05 17:23:50,568727
-1,-11,-1,1,-2,-2,-1,0,2021-08-05 17:23:50,583301
-6,6,-11,-5,-4,-3,-4,-4,2021-08-05 17:23:50,583301
5,4,4,5,4,3,3,5,2021-08-05 17:23:50,583301
-2,0,1,1,-3,-3,-4,-2,2021-08-05 17:23:50,583301
0,7,-1,-3,1,-1,-1,0,2021-08-05 17:23:50,613302
-2,-8,4,1,1,1,-1,-2,2021-08-05 17:23:50,613473
-4,-5,-5,-4,-2,-3,-3,0,2021-08-05 17:23:50,613589
-2,-20,-8,0,4,1,0,1,2021-08-05 17:23:50,613589
3,18,7,3,-2,-1,0,-2,2021-08-05 17:23:50,629417
-1,-5,-1,-8,-4,-2,-1,0,2021-08-05 17:23:50,644301
-4,4,-1,-2,-3,-1,-4,-2,2021-08-05 17:23:50,660495
-2,-9,-1,-2,-2,-1,0,0,2021-08-05 17:23:50,660691
-3,-4,-1,4,2,0,1,1,2021-08-05 17:23:50,660803
-5,0,-4,-2,-2,-3,-2,-4,2021-08-05 17:23:50,660949
4,0,4,3,2,4,2,0,2021-08-05 17:23:50,661055
-7,-2,1,-3,-5,-4,-4,-6,2021-08-05 17:23:50,661212
-11,-60,26,7,7,3,7,8,2021-08-05 17:23:50,661327
10,40,-34,0,2,1,0,-1,2021-08-05 17:23:50,661419
12,2,1,-5,-4,-4,0,1,2021-08-05 17:23:50,661419
-2,11,12,-4,-3,-3,-6,-7,2021-08-05 17:23:50,661419
-1,20,-14,-3,0,3,-1,4,2021-08-05 17:23:50,691382
2,-32,10,1,-6,-1,-2,-2,2021-08-05 17:23:50,699301
-20,-16,-16,-4,-1,1,0,-3,2021-08-05 17:23:50,699301
12,11,-2,0,3,-1,2,3,2021-08-05 17:23:50,699301
3,7,5,-4,-8,-3,-3,-5,2021-08-05 17:23:50,722425
-5,-6,4,1,5,-1,0,-1,2021-08-05 17:23:50,738301
1,7,-7,-1,-2,-3,-3,0,2021-08-05 17:23:50,738301
-3,0,5,3,2,0,1,-1,2021-08-05 17:23:50,738301
1,7,-9,-1,5,5,-1,-1,2021-08-05 17:23:50,738301
3,2,3,0,-3,0,-2,2,2021-08-05 17:23:50,738301
-7,-11,4,-4,-10,-6,-8,-11,2021-08-05 17:23:50,738301
-1,-5,-6,1,6,4,3,5,2021-08-05 17:23:50,738301
5,26,2,-1,0,1,0,1,2021-08-05 17:23:50,770302
-5,-32,-8,-3,-3,-3,0,-1,2021-08-05 17:23:50,786358
2,-4,1,2,2,-1,1,1,2021-08-05 17:23:50,786462
-2,7,-5,-5,-5,-4,-4,-6,2021-08-05 17:23:50,786462
-4,26,6,-3,-6,-6,-6,-8,2021-08-05 17:23:50,786462
4,-26,-5,5,11,7,6,9,2021-08-05 17:23:50,786871
-2,9,0,-3,-4,-5,-5,-8,2021-08-05 17:23:50,786949
3,-8,-13,-4,-3,2,0,0,2021-08-05 17:23:50,787030
3,13,16,1,-4,-3,-3,1,2021-08-05 17:23:50,787101
-11,38,51,5,-1,-1,-3,-4,2021-08-05 17:23:50,787196
2,-53,-48,2,5,4,5,5,2021-08-05 17:23:50,787302
8,12,-14,-11,-7,-1,-1,-3,2021-08-05 17:23:50,787302
-1,-4,1,-6,-7,-5,-5,-5,2021-08-05 17:23:50,817402
-3,19,5,-3,0,0,0,1,2021-08-05 17:23:50,817664
-3,12,21,4,-2,-3,-4,-3,2021-08-05 17:23:50,817664
7,5,8,11,10,10,6,13,2021-08-05 17:23:50,817664
-4,-7,-15,-2,-2,-4,-2,-4,2021-08-05 17:23:50,818040
0,-8,0,-1,-4,-3,-1,1,2021-08-05 17:23:50,818064
0,5,1,1,4,3,2,3,2021-08-05 17:23:50,833302
-6,-8,-7,-3,-3,-4,-2,-3,2021-08-05 17:23:50,848302
-2,-6,-1,-2,1,0,2,-2,2021-08-05 17:23:50,863947
-3,-5,4,0,-3,-4,-3,-3,2021-08-05 17:23:50,864223
1,-3,-8,-2,1,1,-1,-1,2021-08-05 17:23:50,864302
-3,-1,1,-2,-4,-3,-3,0,2021-08-05 17:23:50,864302
1,-5,-3,1,1,2,1,3,2021-08-05 17:23:50,864563
-2,11,-10,-4,-3,-1,-1,-6,2021-08-05 17:23:50,864563
-1,-34,7,-1,-1,1,0,2,2021-08-05 17:23:50,864563
-5,-11,-2,-2,-2,-3,-2,-3,2021-08-05 17:23:50,864563
2,6,-3,1,0,1,0,-1,2021-08-05 17:23:50,895301
-1,-12,-8,-2,-3,-3,-1,-1,2021-08-05 17:23:50,911301
4,28,8,3,3,1,2,4,2021-08-05 17:23:50,926341
-4,-4,-1,-2,0,0,1,-1,2021-08-05 17:23:50,941624
-1,-22,-8,-2,0,1,1,0,2021-08-05 17:23:50,957729
-3,12,0,-1,-6,-6,-5,-9,2021-08-05 17:23:50,957729
-2,6,4,0,0,-1,0,-1,2021-08-05 17:23:50,957729
-2,-5,3,1,-1,-2,-1,-3,2021-08-05 17:23:50,957729
2,6,0,2,4,3,3,4,2021-08-05 17:23:50,958398
3,8,-5,-2,1,2,3,3,2021-08-05 17:23:50,958508
-4,-8,-9,-6,-4,-5,-6,-5,2021-08-05 17:23:50,958625
0,-2,2,-2,-1,-2,-1,-2,2021-08-05 17:23:50,958727
-3,-2,6,-3,-4,-6,-4,-3,2021-08-05 17:23:50,958727
-2,-13,-18,-2,-1,-1,0,-1,2021-08-05 17:23:50,958727
-2,3,8,0,-1,-2,-1,-3,2021-08-05 17:23:50,958727
0,27,8,2,-1,-2,-1,-1,2021-08-05 17:23:50,958727
0,-30,-15,-3,0,-1,0,1,2021-08-05 17:23:50,972624
-4,-22,14,1,-1,-3,-3,-4,2021-08-05 17:23:50,988624
0,3,-14,-5,-4,-2,-2,-1,2021-08-05 17:23:51,004792
5,73,23,7,4,3,3,3,2021-08-05 17:23:51,004861
-6,-61,1,-4,-7,-3,-4,-4,2021-08-05 17:23:51,004978
5,-10,-38,-2,3,3,3,6,2021-08-05 17:23:51,005059
-3,14,12,-9,-12,-7,-6,-5,2021-08-05 17:23:51,005131
-3,-12,-6,-4,-4,-4,-4,-2,2021-08-05 17:23:51,005131
1,36,8,3,2,0,-1,-1,2021-08-05 17:23:51,019794
-1,2,10,-3,-3,-2,-1,0,2021-08-05 17:23:51,019794
9,27,4,6,11,9,8,8,2021-08-05 17:23:51,019794
-5,-50,-6,-2,0,-1,2,-2,2021-08-05 17:23:51,019794
3,16,-4,-2,2,0,0,2,2021-08-05 17:23:51,034730
-2,-12,-2,-4,-1,-1,0,0,2021-08-05 17:23:51,050724
-2,20,7,1,1,0,0,-4,2021-08-05 17:23:51,050840
-6,-21,-4,0,-3,0,-3,-4,2021-08-05 17:23:51,050917
-4,-9,-14,-1,-1,-2,-4,-5,2021-08-05 17:23:51,050917
4,19,13,3,-5,-4,-4,-2,2021-08-05 17:23:51,050917
2,1,0,1,-4,-5,-1,1,2021-08-05 17:23:51,050917
2,-9,3,2,2,1,0,3,2021-08-05 17:23:51,050917
-7,-3,-11,-8,-7,-5,-7,-6,2021-08-05 17:23:51,066736
-1,3,-6,-5,-2,2,1,0,2021-08-05 17:23:51,082666
-2,-6,1,0,-1,2,2,1,2021-08-05 17:23:51,098734
-5,-12,-3,-2,-4,-2,0,-3,2021-08-05 17:23:51,098734
3,10,1,6,4,4,4,4,2021-08-05 17:23:51,098734
0,31,7,-1,-1,-1,-1,-2,2021-08-05 17:23:51,098734
-2,-43,-3,0,-2,-1,-2,-1,2021-08-05 17:23:51,098734
-1,-3,-15,-4,-1,-2,-3,-4,2021-08-05 17:23:51,098734
4,17,5,-1,1,-1,1,0,2021-08-05 17:23:51,114625
-3,1,6,2,2,0,1,1,2021-08-05 17:23:51,114625
-3,-8,-10,-1,0,-2,0,-3,2021-08-05 17:23:51,114625
-2,12,-1,-5,-6,-5,-4,-1,2021-08-05 17:23:51,114625
-1,-20,-3,0,-1,0,0,-2,2021-08-05 17:23:51,130753
0,0,7,5,4,2,3,3,2021-08-05 17:23:51,145710
-4,-5,11,-2,-6,-4,-4,-4,2021-08-05 17:23:51,160796
1,6,-2,3,5,5,3,3,2021-08-05 17:23:51,160983
3,-25,-24,-2,0,2,3,5,2021-08-05 17:23:51,161052
-9,-8,1,-9,-9,-7,-9,-10,2021-08-05 17:23:51,161052
-3,11,-4,-2,-4,-6,-4,-4,2021-08-05 17:23:51,161052
1,7,9,1,-1,2,0,0,2021-08-05 17:23:51,161052
0,13,7,4,1,0,1,1,2021-08-05 17:23:51,176587
3,28,-2,1,0,1,0,1,2021-08-05 17:23:51,191710
-1,-34,6,-1,1,0,0,5,2021-08-05 17:23:51,191710
-4,-11,-19,-1,-1,-1,-2,-2,2021-08-05 17:23:51,192125
-3,10,1,-7,-8,-7,-6,-3,2021-08-05 17:23:51,192125
2,-14,-8,3,4,3,2,3,2021-08-05 17:23:51,192125
1,27,11,1,0,0,-1,-1,2021-08-05 17:23:51,192125
-4,-10,-5,-3,-4,-4,-3,-3,2021-08-05 17:23:51,192562
5,31,6,2,2,3,4,8,2021-08-05 17:23:51,207776
-4,-38,0,-1,0,-2,-2,-1,2021-08-05 17:23:51,207776
-2,21,-1,-2,-1,0,0,2,2021-08-05 17:23:51,207776
7,-15,5,7,7,6,5,3,2021-08-05 17:23:51,207776
-4,-1,-12,-4,-4,-1,-2,-5,2021-08-05 17:23:51,238056
1,-1,-2,-3,-2,-3,-3,-2,2021-08-05 17:23:51,253303
0,29,-3,-1,-1,-2,-1,-2,2021-08-05 17:23:51,253573
-5,-26,3,-2,-4,-2,-3,0,2021-08-05 17:23:51,253661
-5,-3,1,3,0,-2,-1,-3,2021-08-05 17:23:51,253770
1,-3,-5,0,3,3,3,0,2021-08-05 17:23:51,253880
-1,17,5,-2,-4,-5,-4,-4,2021-08-05 17:23:51,253995
-1,-17,-9,1,2,3,2,0,2021-08-05 17:23:51,254105
0,-10,-1,0,1,1,0,1,2021-08-05 17:23:51,269061
-8,-10,-2,-7,-9,-8,-7,-7,2021-08-05 17:23:51,284979
-1,5,-5,-2,-3,-1,-3,-2,2021-08-05 17:23:51,284979
3,15,8,1,1,0,1,5,2021-08-05 17:23:51,285192
0,-4,3,0,0,0,-1,-1,2021-08-05 17:23:51,285266
-1,-2,-6,0,-2,-2,-1,0,2021-08-05 17:23:51,285327
1,-12,-2,2,2,4,4,0,2021-08-05 17:23:51,285327
-4,6,8,-4,-5,-6,-4,-4,2021-08-05 17:23:51,285400
0,-6,-7,0,3,3,2,2,2021-08-05 17:23:51,317056
4,12,-2,-2,-1,0,1,1,2021-08-05 17:23:51,317261
-1,-2,4,0,-1,1,-1,0,2021-08-05 17:23:51,317370
-2,-18,-6,0,0,1,-1,-2,2021-08-05 17:23:51,317454
-6,-6,2,-2,-2,-3,-3,-4,2021-08-05 17:23:51,332871
2,15,3,4,3,3,2,2,2021-08-05 17:23:51,336871
-4,-35,-10,-3,0,-2,-1,-1,2021-08-05 17:23:51,336871
2,14,-13,-1,0,1,2,-1,2021-08-05 17:23:51,337873
2,4,9,-2,-6,-5,-4,-4,2021-08-05 17:23:51,348946
0,-4,-5,-1,-2,-1,-1,-1,2021-08-05 17:23:51,365072
-1,1,1,2,2,3,1,2,2021-08-05 17:23:51,380872
0,12,8,-2,-2,-2,-4,-3,2021-08-05 17:23:51,396025
0,0,0,-2,0,0,-1,1,2021-08-05 17:23:51,411078
-1,27,5,1,-1,0,-2,-1,2021-08-05 17:23:51,411078
-1,-51,-11,1,0,0,1,1,2021-08-05 17:23:51,411078
-4,3,-12,-6,-6,-4,-3,-4,2021-08-05 17:23:51,411078
1,-1,-1,-2,-3,-2,0,-3,2021-08-05 17:23:51,411078
-2,5,-1,0,0,0,0,-2,2021-08-05 17:23:51,411078
1,16,13,3,2,0,1,3,2021-08-05 17:23:51,411874
1,-1,3,3,3,1,3,3,2021-08-05 17:23:51,411874
2,1,3,3,4,4,4,2,2021-08-05 17:23:51,411874
-4,-24,-12,-2,-3,-3,-4,-6,2021-08-05 17:23:51,411874
2,22,-10,-6,-5,-3,-1,-3,2021-08-05 17:23:51,411874
-3,-33,4,-5,-7,-5,-3,-3,2021-08-05 17:23:51,411874
-3,49,5,-4,-4,-5,-4,-4,2021-08-05 17:23:51,426745
2,-30,8,7,3,2,1,3,2021-08-05 17:23:51,426873
-2,-2,-5,-1,4,3,1,2,2021-08-05 17:23:51,426873
1,25,2,-2,-1,-2,-2,0,2021-08-05 17:23:51,427172
-3,-9,-1,-4,-3,-2,-1,-3,2021-08-05 17:23:51,457976
-2,-5,-5,-2,0,-2,-2,2,2021-08-05 17:23:51,458167
0,1,-5,-1,0,0,0,0,2021-08-05 17:23:51,458281
-3,10,6,-1,-3,-5,-3,-4,2021-08-05 17:23:51,458371
-2,-20,-3,0,4,3,1,4,2021-08-05 17:23:51,473068
2,-15,-8,2,5,5,4,4,2021-08-05 17:23:51,489025
-4,4,-4,-6,-8,-7,-4,-6,2021-08-05 17:23:51,489163
4,2,10,3,4,4,1,2,2021-08-05 17:23:51,489456
2,4,5,6,4,4,2,1,2021-08-05 17:23:51,489631
-1,-3,-11,-3,0,-2,1,1,2021-08-05 17:23:51,489631
-2,-8,-6,-4,-2,-1,-1,-1,2021-08-05 17:23:51,504871
-3,0,-20,-8,-8,-7,-6,-6,2021-08-05 17:23:51,519932
0,0,8,2,2,0,-3,-1,2021-08-05 17:23:51,535968
0,9,17,2,0,0,0,0,2021-08-05 17:23:51,551872
5,20,8,4,0,1,0,1,2021-08-05 17:23:51,567021
-3,-52,-12,4,4,2,1,1,2021-08-05 17:23:51,567210
-11,-7,-11,-6,-3,-2,-2,-4,2021-08-05 17:23:51,567328
1,-4,-12,-12,-4,-3,-4,-5,2021-08-05 17:23:51,567460
0,27,13,0,-1,-1,-2,0,2021-08-05 17:23:51,567549
0,12,7,1,-1,0,0,2,2021-08-05 17:23:51,567609
-1,-43,-22,2,1,-2,0,-4,2021-08-05 17:23:51,567743
1,9,-2,-5,-6,-5,-2,-1,2021-08-05 17:23:51,567872
4,10,8,4,5,3,2,3,2021-08-05 17:23:51,567872
1,16,8,1,2,2,1,2,2021-08-05 17:23:51,567872
-4,0,5,-3,-5,-6,-4,-5,2021-08-05 17:23:51,567872
-1,9,-1,2,0,0,1,2,2021-08-05 17:23:51,568218
-2,-20,-4,-3,0,0,-1,1,2021-08-05 17:23:51,568218
-2,10,-10,-2,-1,-1,-1,-2,2021-08-05 17:23:51,568218
-1,-20,-8,-3,-3,-4,-2,-2,2021-08-05 17:23:51,597944
-1,12,20,3,-1,0,-2,-3,2021-08-05 17:23:51,613992
1,-37,-31,1,-1,-1,-1,0,2021-08-05 17:23:51,629872
-5,7,-2,-6,-1,2,-2,-2,2021-08-05 17:23:51,630030
-7,11,7,-4,-2,0,0,-1,2021-08-05 17:23:51,630253
-1,-7,-9,-6,-4,-2,-1,-2,2021-08-05 17:23:51,630365
-4,21,3,-3,-1,1,0,-1,2021-08-05 17:23:51,630523
2,-32,-2,2,-1,-5,-3,-4,2021-08-05 17:23:51,630609
8,16,6,10,9,7,6,5,2021-08-05 17:23:51,630686
-1,4,7,4,0,0,1,1,2021-08-05 17:23:51,630783
0,-7,2,1,0,-1,2,-1,2021-08-05 17:23:51,630909
1,19,1,-6,-7,-5,-2,-1,2021-08-05 17:23:51,630909
-4,-29,-10,-8,-5,-3,-6,-5,2021-08-05 17:23:51,660937
-7,-12,-4,1,1,0,0,-1,2021-08-05 17:23:51,660937
4,7,-1,0,-4,-4,-1,-1,2021-08-05 17:23:51,661901
0,16,22,4,1,1,-1,-2,2021-08-05 17:23:51,661901
-1,-2,-1,-2,-4,-4,-5,-3,2021-08-05 17:23:51,676001
3,8,-36,-5,1,1,2,2,2021-08-05 17:23:51,676163
-8,-35,11,-1,-5,-1,-3,-3,2021-08-05 17:23:51,676163
2,14,-4,2,1,3,2,3,2021-08-05 17:23:51,676163
6,7,-8,-1,-2,0,1,0,2021-08-05 17:23:51,691955
4,-32,-2,-4,-3,-2,-2,-3,2021-08-05 17:23:51,707968
-18,27,-6,-7,-3,-4,-5,-7,2021-08-05 17:23:51,738129
-3,-1,12,-1,-4,-2,-4,-4,2021-08-05 17:23:51,738234
2,-11,-3,1,1,2,0,4,2021-08-05 17:23:51,738234
2,16,4,1,-2,-1,-1,-2,2021-08-05 17:23:51,738234
7,4,6,4,3,3,2,3,2021-08-05 17:23:51,738234
0,14,5,1,2,1,2,1,2021-08-05 17:23:51,738234
-1,-15,-9,-2,-3,-1,1,0,2021-08-05 17:23:51,738234
-6,3,11,-2,-4,-3,-4,-3,2021-08-05 17:23:51,738234
2,16,-11,0,1,2,0,-1,2021-08-05 17:23:51,753037
-3,-41,-11,-2,-1,-1,0,0,2021-08-05 17:23:51,753367
-1,36,13,2,-3,-5,-5,-6,2021-08-05 17:23:51,753521
2,-17,23,6,2,2,2,3,2021-08-05 17:23:51,753693
-2,-13,-23,-2,-1,-3,1,-1,2021-08-05 17:23:51,753811
6,5,-26,-14,-3,-2,-2,0,2021-08-05 17:23:51,753904
-1,10,13,-6,-9,-4,-4,-5,2021-08-05 17:23:51,782982
-14,-4,-10,0,0,-3,-2,-1,2021-08-05 17:23:51,782982
9,14,29,13,8,7,4,5,2021-08-05 17:23:51,782982
-1,-7,8,9,4,1,2,3,2021-08-05 17:23:51,782982
4,-25,-27,-3,1,1,2,3,2021-08-05 17:23:51,798020
-6,1,-10,-17,-11,-9,-8,-12,2021-08-05 17:23:51,814092
-14,4,-1,-6,-6,-6,-5,-6,2021-08-05 17:23:51,814206
6,2,4,2,2,1,-1,2,2021-08-05 17:23:51,814206
-1,14,21,5,0,0,0,1,2021-08-05 17:23:51,829902
6,24,-3,10,4,3,3,6,2021-08-05 17:23:51,829902
1,-49,-15,-6,0,0,-1,-2,2021-08-05 17:23:51,829902
-6,6,-5,-7,-6,-3,-4,-5,2021-08-05 17:23:51,829902
4,28,18,3,2,0,0,4,2021-08-05 17:23:51,829902
2,-11,-10,-3,-1,-2,-1,-1,2021-08-05 17:23:51,829902
2,2,-8,0,0,-2,-1,0,2021-08-05 17:23:51,829902
-8,2,12,-1,-5,-5,-3,-6,2021-08-05 17:23:51,829902
3,-16,-21,0,1,4,4,4,2021-08-05 17:23:51,859951
0,16,19,3,2,0,0,0,2021-08-05 17:23:51,875980
-2,22,13,-3,-3,0,0,-1,2021-08-05 17:23:51,875980
-2,-52,-30,-2,1,0,2,-1,2021-08-05 17:23:51,876145
-6,45,9,-1,0,0,0,-3,2021-08-05 17:23:51,876145
1,-35,3,6,6,5,3,1,2021-08-05 17:23:51,876145
3,-2,-11,-5,-3,-4,-5,-4,2021-08-05 17:23:51,876145
-5,33,6,-9,-10,-8,-8,-5,2021-08-05 17:23:51,876145
2,-32,1,2,-1,-2,-1,1,2021-08-05 17:23:51,905939
3,17,-3,-1,-2,0,0,1,2021-08-05 17:23:51,905939
0,-10,3,-5,-2,1,-1,1,2021-08-05 17:23:51,905939
3,10,-7,5,4,2,4,3,2021-08-05 17:23:51,905939
3,-6,-7,-9,-5,0,-2,-2,2021-08-05 17:23:51,905939
-15,-4,0,-1,0,-2,-1,-2,2021-08-05 17:23:51,905939
1,-7,2,3,-2,-2,1,-1,2021-08-05 17:23:51,921900
-3,12,5,0,2,0,1,-2,2021-08-05 17:23:51,921900
3,-19,18,7,3,3,3,3,2021-08-05 17:23:51,921900
2,-35,-34,-5,0,-1,-1,-4,2021-08-05 17:23:51,922433
-3,8,-10,-11,-5,-4,-2,-2,2021-08-05 17:23:51,936967
-4,-14,-4,-4,-5,0,-2,-2,2021-08-05 17:23:51,936967
-2,24,1,-4,-6,-6,-4,-5,2021-08-05 17:23:51,953009
3,14,17,4,0,0,1,2,2021-08-05 17:23:51,953009
-3,-16,4,4,3,-1,-2,-2,2021-08-05 17:23:51,953009
3,51,-14,0,1,1,-1,-2,2021-08-05 17:23:51,953009
-4,-74,-1,1,2,2,2,1,2021-08-05 17:23:51,984900
-4,4,-14,-6,-2,-2,-2,-3,2021-08-05 17:23:51,988221
0,-6,-2,-7,-7,-4,-2,-3,2021-08-05 17:23:51,988931
1,-4,13,4,1,1,-1,1,2021-08-05 17:23:51,988931
-6,21,-15,-10,-1,-2,-3,-6,2021-08-05 17:23:51,988931
3,-1,9,7,2,2,2,6,2021-08-05 17:23:51,988931
6,19,6,11,5,2,1,3,2021-08-05 17:23:51,988931
1,-24,-21,-14,-5,-4,-1,-4,2021-08-05 17:23:51,988931
-15,-12,-7,-4,-4,-2,-3,-3,2021-08-05 17:23:52,033020
1,10,7,-3,-6,-3,-4,-7,2021-08-05 17:23:52,033130
1,10,4,2,2,3,3,3,2021-08-05 17:23:52,033130
1,-3,19,9,-3,-1,0,3,2021-08-05 17:23:52,033130
-2,9,-7,0,-1,-3,-3,-4,2021-08-05 17:23:52,033130
2,-1,-6,0,-1,1,1,3,2021-08-05 17:23:52,033130
-1,-7,-14,-6,-2,1,-1,1,2021-08-05 17:23:52,033130
-2,-14,0,-1,1,0,0,0,2021-08-05 17:23:52,033130
-1,10,3,-4,-4,-3,-4,-5,2021-08-05 17:23:52,049040
0,29,28,3,-1,-1,-1,-1,2021-08-05 17:23:52,049176
-1,-41,-15,5,3,1,2,2,2021-08-05 17:23:52,049309
0,-12,-14,-2,3,2,3,2,2021-08-05 17:23:52,049406
3,75,9,-6,-4,-3,-2,-2,2021-08-05 17:23:52,079002
6,-72,11,13,3,1,3,3,2021-08-05 17:23:52,094901
-3,-13,-32,-14,2,1,-1,-3,2021-08-05 17:23:52,110901
-20,-6,-20,-24,-15,-9,-7,-9,2021-08-05 17:23:52,111109
7,12,17,10,2,3,0,2,2021-08-05 17:23:52,111109
-1,9,-12,-8,-2,-1,-3,-1,2021-08-05 17:23:52,111109
4,13,24,3,-1,-1,-3,-1,2021-08-05 17:23:52,111109
4,-11,4,9,4,4,3,3,2021-08-05 17:23:52,111109
3,4,6,7,2,-2,2,1,2021-08-05 17:23:52,111109
-1,12,15,14,4,0,2,2,2021-08-05 17:23:52,111109
-5,-4,-27,-26,-7,-3,-4,-9,2021-08-05 17:23:52,126997
9,14,17,6,2,4,2,6,2021-08-05 17:23:52,126997
-7,11,26,16,4,3,4,4,2021-08-05 17:23:52,142901
5,-48,-44,-3,1,-2,-1,-2,2021-08-05 17:23:52,159006
-12,5,-2,2,-7,-5,-4,-5,2021-08-05 17:23:52,159006
-3,-5,-13,-24,-6,-4,-8,-8,2021-08-05 17:23:52,159395
3,-9,-19,-20,-4,-2,-2,1,2021-08-05 17:23:52,159515
4,45,26,6,2,1,1,1,2021-08-05 17:23:52,159676
2,-37,23,20,3,0,3,4,2021-08-05 17:23:52,174945
4,42,3,8,4,1,0,1,2021-08-05 17:23:52,190967
-7,-86,-16,-7,-8,-4,-4,-5,2021-08-05 17:23:52,191188
-2,-6,-30,-20,-4,-2,-3,-6,2021-08-05 17:23:52,191295
-12,40,11,-13,-5,-5,-4,-3,2021-08-05 17:23:52,191469
16,-1,25,27,11,5,6,12,2021-08-05 17:23:52,191555
-1,24,43,30,9,3,3,3,2021-08-05 17:23:52,191555
-3,-5,-33,-27,-8,-3,-1,-4,2021-08-05 17:23:52,191555
-5,-32,-52,-29,-12,-4,-6,-10,2021-08-05 17:23:52,191901
-6,2,-8,-17,-6,-6,-5,-5,2021-08-05 17:23:52,191901
5,14,5,7,4,1,1,5,2021-08-05 17:23:52,221900
2,18,52,29,3,-1,-2,2,2021-08-05 17:23:52,236983
-1,5,10,28,14,7,5,3,2021-08-05 17:23:52,237172
-8,-25,-46,-53,-18,-9,-5,-6,2021-08-05 17:23:52,237345
3,11,8,-5,1,1,0,-1,2021-08-05 17:23:52,237426
-6,-13,-22,-1,-5,-2,-2,-1,2021-08-05 17:23:52,237515
7,13,25,19,4,3,4,8,2021-08-05 17:23:52,237609
-4,-9,2,11,4,3,2,-2,2021-08-05 17:23:52,237609
-1,9,-4,-10,-5,-3,-3,-4,2021-08-05 17:23:52,252051
-3,-8,0,-4,-1,-1,-1,0,2021-08-05 17:23:52,267938
1,17,3,-1,-3,-4,-2,0,2021-08-05 17:23:52,268139
5,2,39,32,6,2,4,4,2021-08-05 17:23:52,268139
-4,5,-26,0,0,-2,1,-2,2021-08-05 17:23:52,268139
-2,-25,-58,-65,-14,-4,-6,-11,2021-08-05 17:23:52,268139
-2,-22,14,2,0,1,-2,0,2021-08-05 17:23:52,268139
-14,73,12,7,1,-1,-2,-4,2021-08-05 17:23:52,268139
3,-36,1,10,1,-2,-1,-1,2021-08-05 17:23:52,297981
3,14,22,19,5,3,1,6,2021-08-05 17:23:52,311901
8,10,-4,-17,-8,-4,-3,0,2021-08-05 17:23:52,312309
-2,-16,-9,-4,3,4,0,-2,2021-08-05 17:23:52,312309
0,3,-12,-2,-4,1,0,2,2021-08-05 17:23:52,312422
0,11,21,20,7,0,1,-1,2021-08-05 17:23:52,312622
2,5,12,-13,-2,-3,0,1,2021-08-05 17:23:52,312765
-2,-13,-4,7,3,0,2,0,2021-08-05 17:23:52,312850
1,-24,-31,-2,2,5,6,4,2021-08-05 17:23:52,344984
-6,7,-2,-19,-6,-4,-5,-6,2021-08-05 17:23:52,360862
-1,1,-18,-22,-3,-1,-2,-2,2021-08-05 17:23:52,376931
3,-9,23,15,1,-2,-2,-1,2021-08-05 17:23:52,377128
1,8,19,19,4,-2,-1,0,2021-08-05 17:23:52,377239
-3,8,11,16,3,2,1,1,2021-08-05 17:23:52,377342
-11,-17,-47,-27,-6,-2,-3,-7,2021-08-05 17:23:52,377342
4,-14,-10,-10,-7,-1,0,0,2021-08-05 17:23:52,377342
4,9,17,14,5,2,1,2,2021-08-05 17:23:52,377342
-5,7,18,17,-1,-4,-4,-3,2021-08-05 17:23:52,377342
5,1,-4,4,1,0,4,1,2021-08-05 17:23:52,377342
-3,-17,-21,-6,1,-1,-3,-3,2021-08-05 17:23:52,377342
-7,-5,-27,-48,-11,-3,-4,-4,2021-08-05 17:23:52,392973
-2,0,15,13,-3,-4,-3,-3,2021-08-05 17:23:52,408863
11,16,39,28,6,6,4,9,2021-08-05 17:23:52,408863
-3,-7,18,21,2,0,0,-1,2021-08-05 17:23:52,408863
-7,-3,-44,-32,-10,-4,-4,-5,2021-08-05 17:23:52,408863
-2,5,-6,-16,-5,-3,-4,-4,2021-08-05 17:23:52,408863
-6,-20,-11,3,-3,-4,-3,-3,2021-08-05 17:23:52,423863
2,7,45,38,6,1,1,0,2021-08-05 17:23:52,424111
-3,-3,2,-3,0,-2,-2,-4,2021-08-05 17:23:52,424184
-2,-12,-42,-26,-8,-1,1,1,2021-08-05 17:23:52,424184
0,11,12,11,0,-1,-3,-2,2021-08-05 17:23:52,439175
4,1,9,2,1,1,1,3,2021-08-05 17:23:52,455116
-2,-9,2,0,-1,-2,-2,-3,2021-08-05 17:23:52,470261
-3,-3,-19,-22,-2,-1,-2,-3,2021-08-05 17:23:52,486116
-2,7,15,12,2,-1,-1,0,2021-08-05 17:23:52,502225
3,-3,-22,-19,-1,0,-1,1,2021-08-05 17:23:52,502302
-2,-7,10,14,0,-2,0,-2,2021-08-05 17:23:52,502302
1,5,7,7,-3,-1,1,2,2021-08-05 17:23:52,502302
-3,0,4,3,3,-2,-1,-3,2021-08-05 17:23:52,502302
0,-6,-5,-8,-6,-4,-3,-1,2021-08-05 17:23:52,502302
-3,1,-15,-6,-2,-2,-3,-5,2021-08-05 17:23:52,502302
1,1,10,8,0,0,2,2,2021-08-05 17:23:52,502302
4,7,59,35,8,2,1,5,2021-08-05 17:23:52,502302
-8,-13,-59,-17,-9,-3,-4,-8,2021-08-05 17:23:52,502302
-5,-15,-63,-72,-16,-5,-4,-6,2021-08-05 17:23:52,533170
1,5,19,14,6,1,3,4,2021-08-05 17:23:52,548251
0,8,25,18,2,-1,0,0,2021-08-05 17:23:52,564158
-2,1,21,12,2,-1,-3,0,2021-08-05 17:23:52,564158
-1,-7,-30,-36,-2,3,-1,1,2021-08-05 17:23:52,564158
-1,2,-5,-3,-1,-2,-1,-3,2021-08-05 17:23:52,564158
3,3,-8,-8,-2,1,2,1,2021-08-05 17:23:52,564158
-1,2,20,19,4,-2,-2,0,2021-08-05 17:23:52,564158
1,9,28,27,4,1,2,1,2021-08-05 17:23:52,564158
-3,-7,-3,-7,-4,0,-1,-1,2021-08-05 17:23:52,564158
-3,-3,-21,-26,-7,-2,-4,-3,2021-08-05 17:23:52,564158
-6,-11,-41,-20,-2,1,-1,-4,2021-08-05 17:23:52,565118
-2,-1,9,13,-1,-2,-2,2,2021-08-05 17:23:52,580292
6,9,27,20,8,1,2,5,2021-08-05 17:23:52,595116
-2,-7,-9,-3,-4,-2,-2,-2,2021-08-05 17:23:52,610179
3,7,21,7,2,1,2,2,2021-08-05 17:23:52,610179
-2,1,8,14,-1,-2,-1,-1,2021-08-05 17:23:52,610179
1,1,-4,5,0,1,0,3,2021-08-05 17:23:52,610179
-1,-5,-12,-22,0,0,0,-2,2021-08-05 17:23:52,610835
-1,-5,-25,-28,-7,-3,-1,-3,2021-08-05 17:23:52,611003
1,5,8,19,4,1,1,1,2021-08-05 17:23:52,611126
-1,2,16,14,1,-1,-2,-2,2021-08-05 17:23:52,611126
-7,-17,-56,-41,-11,-3,-4,-7,2021-08-05 17:23:52,611126
1,11,52,31,5,2,1,3,2021-08-05 17:23:52,611126
-6,-9,-22,-8,-3,-3,-1,-5,2021-08-05 17:23:52,636117
5,6,3,8,7,2,2,3,2021-08-05 17:23:52,637118
1,3,4,5,-1,-1,-1,3,2021-08-05 17:23:52,637118
2,0,12,0,0,-1,0,2,2021-08-05 17:23:52,637118
1,1,8,9,-1,0,-1,0,2021-08-05 17:23:52,658116
-7,-11,-22,-12,-4,-2,-5,-6,2021-08-05 17:23:52,658353
4,1,3,6,3,4,3,3,2021-08-05 17:23:52,658400
-5,-9,-13,-12,-8,-7,-7,-7,2021-08-05 17:23:52,658400
12,16,59,51,16,9,8,12,2021-08-05 17:23:52,674180
-6,-6,-29,-35,-6,-2,0,-5,2021-08-05 17:23:52,690218
-9,-17,-44,-23,-4,-2,-3,-7,2021-08-05 17:23:52,706217
1,0,-5,-3,-1,-2,-2,-2,2021-08-05 17:23:52,706548
2,8,16,2,-3,-5,-4,-1,2021-08-05 17:23:52,706548
2,8,28,18,-2,-5,-5,-1,2021-08-05 17:23:52,706548
1,6,27,34,5,-1,-1,2,2021-08-05 17:23:52,706548
-4,-18,-69,-66,-17,-1,-1,-5,2021-08-05 17:23:52,707118
-1,3,29,21,5,0,-3,2,2021-08-05 17:23:52,720906
-2,-1,-3,-10,-3,0,0,-4,2021-08-05 17:23:52,736422
-2,-8,-32,-15,-1,1,-1,0,2021-08-05 17:23:52,752502
0,3,15,16,1,1,0,0,2021-08-05 17:23:52,752705
2,1,-9,-9,-1,1,1,-1,2021-08-05 17:23:52,752822
-1,7,45,24,1,-3,-3,0,2021-08-05 17:23:52,752981
-3,-11,-45,-21,-3,0,1,-2,2021-08-05 17:23:52,753152
-1,2,6,9,1,-1,1,0,2021-08-05 17:23:52,753294
-2,-4,0,1,-4,-4,-2,-1,2021-08-05 17:23:52,753339
-1,-8,-20,-14,-2,-1,1,0,2021-08-05 17:23:52,753339
3,11,49,32,5,-2,1,-1,2021-08-05 17:23:52,753339
0,-5,-51,-45,-7,0,0,1,2021-08-05 17:23:52,753339
0,0,-4,1,0,0,-3,-2,2021-08-05 17:23:52,782436
-1,-7,-5,-6,-4,-1,-3,-2,2021-08-05 17:23:52,782697
-1,5,26,20,1,-2,-3,-1,2021-08-05 17:23:52,798404
3,9,28,35,11,1,0,3,2021-08-05 17:23:52,798404
-7,-15,-49,-62,-12,-2,-1,-7,2021-08-05 17:23:52,798404
-1,-1,5,6,1,0,-1,2,2021-08-05 17:23:52,798404
0,-1,-2,-8,1,-1,0,-1,2021-08-05 17:23:52,798404
-3,-3,3,0,0,-3,-4,-3,2021-08-05 17:23:52,798404
6,6,22,33,7,0,3,7,2021-08-05 17:23:52,813338
-7,-7,-21,-12,-8,-1,-2,-5,2021-08-05 17:23:52,828409
0,-1,-13,-52,-7,-1,-1,0,2021-08-05 17:23:52,828409
-1,3,9,7,-2,-1,-3,-4,2021-08-05 17:23:52,828409
1,1,10,6,2,1,4,4,2021-08-05 17:23:52,828845
-3,-7,-29,-18,-6,-3,-3,-6,2021-08-05 17:23:52,828931
1,6,34,36,7,0,2,3,2021-08-05 17:23:52,844338
2,0,0,12,5,3,1,1,2021-08-05 17:23:52,844539
-6,-11,-34,-66,-15,-7,-7,-8,2021-08-05 17:23:52,844695
13,14,39,38,17,10,10,15,2021-08-05 17:23:52,844816
-4,-3,-5,-7,-7,-3,-2,-3,2021-08-05 17:23:52,860503
6,21,85,76,15,1,2,6,2021-08-05 17:23:52,860636
-13,-24,-74,-60,-19,-5,-6,-11,2021-08-05 17:23:52,876338
-2,-7,-5,-12,-2,-1,-2,-2,2021-08-05 17:23:52,891444
1,1,12,14,0,-1,-4,-2,2021-08-05 17:23:52,891444
1,2,39,12,2,-2,0,4,2021-08-05 17:23:52,906473
-3,1,0,27,4,1,-1,-4,2021-08-05 17:23:52,906473
-7,-16,-50,-45,-11,-3,-2,-5,2021-08-05 17:23:52,906473
-2,-4,2,7,-2,-3,-3,-2,2021-08-05 17:23:52,906473
0,4,25,17,1,1,0,1,2021-08-05 17:23:52,906473
10,21,41,44,10,2,3,6,2021-08-05 17:23:52,906473
-7,-12,-33,-16,-4,0,-2,-3,2021-08-05 17:23:52,906473
1,3,-10,-5,-1,2,0,0,2021-08-05 17:23:52,922456
-3,-9,-24,-23,-6,-3,-3,-3,2021-08-05 17:23:52,922638
2,3,32,20,4,-1,-1,1,2021-08-05 17:23:52,937917
-4,1,-3,3,0,-1,-4,-6,2021-08-05 17:23:52,954015
1,-2,-9,16,4,1,3,4,2021-08-05 17:23:52,958852
-2,-10,-40,-50,-6,-1,0,-3,2021-08-05 17:23:52,959563
-4,6,22,24,3,-5,-3,-2,2021-08-05 17:23:52,959563
9,0,4,-16,2,3,6,10,2021-08-05 17:23:52,959853
-1,7,18,16,0,0,-3,1,2021-08-05 17:23:52,959853
-2,-8,-3,0,0,2,0,-3,2021-08-05 17:23:52,959853
0,3,-19,-12,-3,-4,-5,-4,2021-08-05 17:23:52,969932
2,4,5,13,4,0,1,1,2021-08-05 17:23:52,984913
-2,-7,-23,-30,-5,-3,-4,-5,2021-08-05 17:23:52,984962
7,2,11,14,4,4,4,7,2021-08-05 17:23:52,984962
-3,6,36,15,2,-1,-2,-2,2021-08-05 17:23:52,999943
-2,2,-8,7,-4,-5,-5,-4,2021-08-05 17:23:52,999943
2,-11,-42,-37,-7,1,2,2,2021-08-05 17:23:52,999943
-4,1,6,6,-5,-4,-6,-3,2021-08-05 17:23:52,999943
9,15,70,59,9,2,4,7,2021-08-05 17:23:53,015852
-13,-19,-74,-66,-10,0,0,-10,2021-08-05 17:23:53,031851
-3,-3,19,14,0,-1,-2,-3,2021-08-05 17:23:53,047444
-3,-3,-26,-19,-4,-1,-3,-2,2021-08-05 17:23:53,047550
-3,-10,-8,-12,-5,-3,-3,0,2021-08-05 17:23:53,047695
10,25,72,66,13,1,2,9,2021-08-05 17:23:53,047890
-2,-11,-36,-50,-6,-1,1,-1,2021-08-05 17:23:53,048055
-3,-11,-42,-33,-7,-3,-3,-3,2021-08-05 17:23:53,048170
0,-4,-18,-14,-1,1,0,-3,2021-08-05 17:23:53,048312
1,8,70,60,9,-3,-1,0,2021-08-05 17:23:53,048383
-2,6,-19,-2,-3,-1,-2,-4,2021-08-05 17:23:53,048480
0,-11,-27,-21,-7,0,1,0,2021-08-05 17:23:53,048645
0,-3,-6,-7,1,1,-1,2,2021-08-05 17:23:53,079076
1,4,34,11,-1,-3,-2,1,2021-08-05 17:23:53,093934
-5,8,-3,21,0,-3,-4,-9,2021-08-05 17:23:53,109851
1,-7,-15,-19,-2,3,4,4,2021-08-05 17:23:53,109851
-4,-6,-25,-19,-5,-2,-1,-2,2021-08-05 17:23:53,109851
1,-1,15,18,2,0,0,2,2021-08-05 17:23:53,109851
-2,7,37,36,-2,-8,-5,-6,2021-08-05 17:23:53,109851
-4,-9,-49,-74,-9,1,0,-4,2021-08-05 17:23:53,109851
-5,-11,-26,-17,-2,1,-1,-3,2021-08-05 17:23:53,110854
-3,-2,-5,-12,-3,-1,-3,-4,2021-08-05 17:23:53,110854
3,6,59,46,7,0,0,6,2021-08-05 17:23:53,110854
-3,10,5,26,2,-3,-3,-5,2021-08-05 17:23:53,110854
-2,-13,-32,-28,-6,-2,1,-1,2021-08-05 17:23:53,139937
-1,-3,-7,-7,-2,0,2,0,2021-08-05 17:23:53,140120
0,-2,1,-8,-3,0,0,1,2021-08-05 17:23:53,155852
0,6,20,33,4,0,-1,-2,2021-08-05 17:23:53,155852
1,11,28,22,4,2,0,4,2021-08-05 17:23:53,155852
-5,-5,-42,-17,-2,0,-3,-5,2021-08-05 17:23:53,155852
3,-5,-16,-19,-1,2,2,5,2021-08-05 17:23:53,171963
-2,2,17,11,-1,-3,-2,-3,2021-08-05 17:23:53,172116
-1,-3,3,1,-5,-5,-3,-2,2021-08-05 17:23:53,172247
4,13,26,13,4,1,2,4,2021-08-05 17:23:53,172247
-2,-10,-27,-14,-1,1,0,-1,2021-08-05 17:23:53,172247
-5,-3,3,-20,-5,-4,-4,-6,2021-08-05 17:23:53,172614
1,0,-7,13,8,4,4,4,2021-08-05 17:23:53,202980
-1,-2,32,25,-1,-5,-3,-3,2021-08-05 17:23:53,203165
-1,13,-15,-16,-3,-1,-1,-2,2021-08-05 17:23:53,203271
-8,-27,-34,-16,-6,-3,-2,-6,2021-08-05 17:23:53,203416
1,4,12,11,1,0,1,1,2021-08-05 17:23:53,203526
-2,-5,-9,-11,-4,-1,-3,-2,2021-08-05 17:23:53,203677
2,12,49,43,10,-1,-1,-2,2021-08-05 17:23:53,217851
1,-3,-3,19,1,0,2,1,2021-08-05 17:23:53,217851
-1,-10,-49,-61,-9,1,-2,-2,2021-08-05 17:23:53,233431
-2,-2,-6,-3,-1,-4,-1,0,2021-08-05 17:23:53,233558
-4,-4,17,5,-1,0,-1,-3,2021-08-05 17:23:53,233558
6,17,43,49,11,1,1,3,2021-08-05 17:23:53,233558
-7,-15,-44,-36,-13,-3,-4,-5,2021-08-05 17:23:53,264364
-2,-2,-6,-5,-3,-1,-2,-4,2021-08-05 17:23:53,264578
-2,-9,-8,-4,1,1,0,1,2021-08-05 17:23:53,264578
2,5,11,-6,1,0,1,2,2021-08-05 17:23:53,264578
2,3,26,26,2,-1,-2,-2,2021-08-05 17:23:53,264578
0,5,5,-6,-2,-2,-1,-3,2021-08-05 17:23:53,264578
0,-14,-36,-25,-3,3,2,2,2021-08-05 17:23:53,278367
5,8,6,19,6,3,2,7,2021-08-05 17:23:53,279319
-6,1,3,-9,-6,-3,-2,-6,2021-08-05 17:23:53,295504
-3,-10,-15,-11,-3,-2,-3,-1,2021-08-05 17:23:53,295504
2,8,48,36,6,-1,-1,2,2021-08-05 17:23:53,295504
-2,-8,-36,-39,-15,-4,-1,-1,2021-08-05 17:23:53,295504
4,2,-1,8,5,1,2,2,2021-08-05 17:23:53,327431
-5,-14,-39,-31,-8,-1,-3,-5,2021-08-05 17:23:53,327638
2,2,9,6,1,0,0,1,2021-08-05 17:23:53,327759
0,2,16,13,3,-1,-2,0,2021-08-05 17:23:53,327834
-3,4,32,33,6,-1,1,-1,2021-08-05 17:23:53,343470
2,-2,-28,-25,-7,-1,0,0,2021-08-05 17:23:53,358404
-2,-8,-24,-18,-1,-1,1,-3,2021-08-05 17:23:53,374589
-1,2,10,1,-1,-2,-1,-4,2021-08-05 17:23:53,374589
-4,-4,0,-1,1,0,0,-1,2021-08-05 17:23:53,374589
0,2,14,16,2,0,-1,0,2021-08-05 17:23:53,374589
4,11,16,16,-1,0,0,1,2021-08-05 17:23:53,374589
-10,-17,-44,-48,-8,-3,-4,-10,2021-08-05 17:23:53,374589
5,4,10,9,2,1,-1,5,2021-08-05 17:23:53,374589
-2,-1,-6,-1,0,-1,0,0,2021-08-05 17:23:53,374589
1,4,12,-1,-2,0,0,1,2021-08-05 17:23:53,374589
0,4,12,16,1,0,1,0,2021-08-05 17:23:53,374589
-8,-10,-27,-21,-6,-4,-5,-7,2021-08-05 17:23:53,406455
3,0,4,-3,1,1,1,5,2021-08-05 17:23:53,422527
-2,0,-2,-4,-4,-2,-2,-3,2021-08-05 17:23:53,422527
3,7,8,14,4,1,2,3,2021-08-05 17:23:53,422714
1,-3,0,-1,-2,0,-1,0,2021-08-05 17:23:53,422801
-1,3,22,17,2,-2,0,-2,2021-08-05 17:23:53,422868
0,2,-15,-12,-2,-1,-5,-1,2021-08-05 17:23:53,422868
-4,-6,-14,-13,-5,0,0,0,2021-08-05 17:23:53,422868
1,-2,-3,0,2,1,2,2,2021-08-05 17:23:53,437401
2,3,-1,0,1,-1,-2,-3,2021-08-05 17:23:53,452531
-3,-4,-2,1,-1,-2,-2,-1,2021-08-05 17:23:53,452646
-1,6,25,17,-1,-5,-5,-4,2021-08-05 17:23:53,452725
2,-1,-10,-8,-3,1,1,1,2021-08-05 17:23:53,452813
-4,-6,-4,-5,-2,-1,-2,-2,2021-08-05 17:23:53,452813
-5,-11,-29,-25,-3,-1,-1,-2,2021-08-05 17:23:53,452813
-2,1,6,9,2,-1,-2,-2,2021-08-05 17:23:53,452813
-2,-1,11,8,0,-1,-1,1,2021-08-05 17:23:53,483363
-1,3,5,2,-2,-2,-3,-2,2021-08-05 17:23:53,499555
-2,-5,-4,-3,-2,-1,2,0,2021-08-05 17:23:53,499555
3,-3,6,2,3,1,2,4,2021-08-05 17:23:53,499555
0,4,-4,0,-1,-1,0,-4,2021-08-05 17:23:53,499911
-4,-9,-15,-10,-2,0,1,-2,2021-08-05 17:23:53,500056
-5,-1,2,2,-1,0,0,-4,2021-08-05 17:23:53,500120
-3,-1,0,0,-1,-1,-3,-5,2021-08-05 17:23:53,500227
0,7,17,11,1,-4,-4,-2,2021-08-05 17:23:53,530363
2,2,-8,-4,-5,-2,-1,-2,2021-08-05 17:23:53,546438
2,-6,-3,0,-2,-4,-2,0,2021-08-05 17:23:53,562513
3,9,13,3,3,3,4,8,2021-08-05 17:23:53,562769
-1,-4,-11,-7,-3,-1,-1,-3,2021-08-05 17:23:53,562797
2,0,2,0,1,1,0,1,2021-08-05 17:23:53,562951
2,-2,1,0,1,0,1,3,2021-08-05 17:23:53,563131
-4,-4,-4,2,0,-1,-1,-3,2021-08-05 17:23:53,563239
1,2,5,6,2,1,2,3,2021-08-05 17:23:53,563399
-2,-1,-4,0,1,-1,0,-1,2021-08-05 17:23:53,563399
-3,-2,1,2,-4,-3,-1,-5,2021-08-05 17:23:53,563399
0,1,-10,-9,-5,0,-1,0,2021-08-05 17:23:53,563399
0,-4,-6,-3,-1,-2,0,-1,2021-08-05 17:23:53,578430
0,1,1,1,1,0,-1,1,2021-08-05 17:23:53,593365
-5,-6,-5,-4,-1,-4,-5,-7,2021-08-05 17:23:53,599363
2,4,8,5,-1,-1,-1,0,2021-08-05 17:23:53,599363
0,-1,2,2,-1,1,2,2,2021-08-05 17:23:53,599363
3,0,-6,-1,5,3,2,4,2021-08-05 17:23:53,599363
-2,0,3,2,1,0,-2,0,2021-08-05 17:23:53,599363
2,-3,-5,-3,-1,-1,-1,-1,2021-08-05 17:23:53,608466
-2,0,4,1,0,-3,-2,-2,2021-08-05 17:23:53,608585
-4,-5,1,2,-5,-4,-3,-6,2021-08-05 17:23:53,608585
5,7,0,-6,0,2,1,6,2021-08-05 17:23:53,624498
-2,-4,-7,-2,-1,-1,-1,-3,2021-08-05 17:23:53,624498
-2,1,1,-1,-1,-2,-2,-3,2021-08-05 17:23:53,640421
-3,-3,-7,-6,-5,-1,-2,-2,2021-08-05 17:23:53,655455
0,1,2,1,0,1,0,0,2021-08-05 17:23:53,655455
-1,0,4,3,0,-2,-1,-2,2021-08-05 17:23:53,655455
0,0,-7,-8,3,3,2,2,2021-08-05 17:23:53,655455
-1,-2,-1,-3,-2,-2,-2,-4,2021-08-05 17:23:53,655455
-2,-1,-4,-1,-2,-1,-2,0,2021-08-05 17:23:53,655455
-1,-1,-3,-2,-4,0,-2,-3,2021-08-05 17:23:53,655455
1,-1,0,4,-1,0,-1,1,2021-08-05 17:23:53,685464
-1,1,5,1,1,1,-1,0,2021-08-05 17:23:53,701425
2,3,-5,-4,1,1,1,1,2021-08-05 17:23:53,717320
-5,-5,-2,-2,-2,-3,-1,-3,2021-08-05 17:23:53,717320
-6,-6,-4,-6,-6,-3,-3,-5,2021-08-05 17:23:53,717320
5,5,1,2,4,4,4,5,2021-08-05 17:23:53,717320
0,-1,-1,2,-1,-2,-1,-1,2021-08-05 17:23:53,717320
-1,-1,0,0,1,0,-1,-4,2021-08-05 17:23:53,717320
-3,-2,2,3,0,0,-2,0,2021-08-05 17:23:53,717320
-5,-5,-8,-10,-5,-3,-2,-7,2021-08-05 17:23:53,717320
-1,-3,1,3,2,-1,1,1,2021-08-05 17:23:53,718128
3,2,0,0,-1,1,2,4,2021-08-05 17:23:53,718128
-1,-2,1,3,-3,-2,-3,-1,2021-08-05 17:23:53,748399
-4,-4,0,0,-3,-3,-2,-3,2021-08-05 17:23:53,763320
-5,-4,-4,-5,-4,-3,-2,-4,2021-08-05 17:23:53,763539
5,6,3,3,5,2,2,5,2021-08-05 17:23:53,763539
1,0,2,0,1,1,1,0,2021-08-05 17:23:53,763539
0,0,0,-2,-2,-2,-2,0,2021-08-05 17:23:53,763539
0,-2,0,-1,0,0,-1,0,2021-08-05 17:23:53,763935
-2,-6,-1,-3,-4,-2,-4,-3,2021-08-05 17:23:53,763935
1,0,-8,-3,0,0,-3,-2,2021-08-05 17:23:53,778419
3,3,5,4,3,1,1,2,2021-08-05 17:23:53,794419
-3,-3,-1,0,-1,-2,-2,-2,2021-08-05 17:23:53,810358
-4,-5,-4,-3,-5,-5,-3,-4,2021-08-05 17:23:53,810358
2,0,-2,-2,1,-2,2,2,2021-08-05 17:23:53,810358
0,-3,-2,0,0,-2,-2,-1,2021-08-05 17:23:53,810358
-2,-3,0,-2,-2,-3,-2,-4,2021-08-05 17:23:53,810358
6,4,-1,0,3,4,5,7,2021-08-05 17:23:53,810358
-1,2,2,-1,-2,-1,-3,-1,2021-08-05 17:23:53,825833
-4,-2,-2,-1,-3,-4,-2,-3,2021-08-05 17:23:53,825947
3,3,3,2,3,1,2,0,2021-08-05 17:23:53,826040
-2,-4,-1,0,-4,-3,-2,-3,2021-08-05 17:23:53,826135
-1,-3,-2,-3,-1,-2,0,-1,2021-08-05 17:23:53,826183
2,2,0,1,3,4,2,3,2021-08-05 17:23:53,826183
0,1,-1,-5,-5,-1,-2,-2,2021-08-05 17:23:53,841687
-5,-2,-2,-3,-4,-2,-3,-5,2021-08-05 17:23:53,841687
3,2,0,3,4,2,3,5,2021-08-05 17:23:53,857686
-5,-5,-3,-4,-6,-5,-4,-4,2021-08-05 17:23:53,873687
-1,-6,-3,-2,-2,0,-1,-1,2021-08-05 17:23:53,873987
2,2,3,3,2,1,1,1,2021-08-05 17:23:53,873987
-3,1,-1,-1,-3,1,0,-1,2021-08-05 17:23:53,873987
1,0,-3,-1,1,1,1,2,2021-08-05 17:23:53,873987
0,3,-1,1,1,-2,-1,0,2021-08-05 17:23:53,873987
-2,-1,-2,-3,-2,-2,-1,-2,2021-08-05 17:23:53,873987
2,1,1,-3,-3,-2,-1,0,2021-08-05 17:23:53,904816
-1,-2,-5,0,-1,-1,-1,1,2021-08-05 17:23:53,919740
4,6,7,2,0,0,1,0,2021-08-05 17:23:53,919923
-3,-5,-4,0,2,-1,-2,-3,2021-08-05 17:23:53,920093
-3,-3,3,3,-2,-1,-3,-4,2021-08-05 17:23:53,920250
-11,-21,-8,-6,-4,-5,-1,-5,2021-08-05 17:23:53,920404
1,17,6,-1,0,1,1,2,2021-08-05 17:23:53,920523
-3,-2,-8,-6,-6,-4,-4,-5,2021-08-05 17:23:53,920614
3,8,1,2,3,3,2,1,2021-08-05 17:23:53,951757
-1,-7,4,3,-1,-1,-1,-1,2021-08-05 17:23:53,966723
-6,-15,-10,-5,-4,-3,-3,-4,2021-08-05 17:23:53,981784
6,11,2,0,2,0,1,3,2021-08-05 17:23:53,981784
-2,-8,-1,-2,-2,-2,-1,-1,2021-08-05 17:23:53,981784
-2,0,-3,0,1,0,-1,-2,2021-08-05 17:23:53,981784
0,-1,4,4,2,1,1,1,2021-08-05 17:23:53,981784
-3,-3,1,-1,-4,-1,-1,-2,2021-08-05 17:23:53,981784
-5,-7,-10,-3,-2,-1,-2,-2,2021-08-05 17:23:53,981784
6,9,4,2,0,0,-1,0,2021-08-05 17:23:53,981784
2,-1,-1,4,3,1,2,3,2021-08-05 17:23:53,982689
-3,-4,0,0,0,-1,-2,-2,2021-08-05 17:23:53,982689
1,1,-7,-8,-2,-1,1,-2,2021-08-05 17:23:53,997848
-8,0,0,-3,-2,-2,-2,-5,2021-08-05 17:23:54,028709
-1,-5,-2,2,-1,-1,0,-1,2021-08-05 17:23:54,044818
-2,-7,-15,-10,-3,0,-1,-1,2021-08-05 17:23:54,060773
0,0,5,3,0,1,1,1,2021-08-05 17:23:54,060773
1,7,-3,-1,0,0,0,0,2021-08-05 17:23:54,076688
0,0,3,2,0,0,-2,0,2021-08-05 17:23:54,091687
-9,-4,6,5,0,0,-2,-3,2021-08-05 17:23:54,091687
-3,1,-7,-9,-2,0,-1,-2,2021-08-05 17:23:54,091687
2,-9,-5,-5,-2,-1,2,2,2021-08-05 17:23:54,092091
-4,7,3,-2,-2,-2,-2,-3,2021-08-05 17:23:54,092091
-2,-16,-3,-2,-3,-4,-2,-3,2021-08-05 17:23:54,092091
0,8,5,5,2,-1,-1,1,2021-08-05 17:23:54,092091
1,13,3,2,-1,-1,-2,-1,2021-08-05 17:23:54,092091
-1,-7,-10,-3,-2,-1,-2,0,2021-08-05 17:23:54,092689
2,-2,-3,1,1,5,3,7,2021-08-05 17:23:54,092689
-7,-11,9,1,-3,-2,-2,-3,2021-08-05 17:23:54,092863
4,10,-8,3,2,0,-1,-1,2021-08-05 17:23:54,092960
3,2,-4,-6,-1,0,-1,-2,2021-08-05 17:23:54,093035
0,9,1,-1,0,-3,-4,-3,2021-08-05 17:23:54,093035
0,-11,-8,-3,-2,-3,2,1,2021-08-05 17:23:54,093035
1,6,11,4,-1,-1,-2,1,2021-08-05 17:23:54,093035
-5,-15,1,3,-1,-4,-2,-1,2021-08-05 17:23:54,093035
-1,3,-6,2,0,1,4,-1,2021-08-05 17:23:54,093035
-2,4,-1,-6,-1,0,5,-4,2021-08-05 17:23:54,122870
2,1,-2,-6,-4,-1,-10,0,2021-08-05 17:23:54,123063
-5,-6,-4,-5,-4,-4,-5,-4,2021-08-05 17:23:54,123158
-1,0,13,6,0,-1,-1,2,2021-08-05 17:23:54,123158
-2,3,-10,1,-4,-3,-4,-6,2021-08-05 17:23:54,138834
7,2,-6,0,1,3,8,7,2021-08-05 17:23:54,138834
-1,-1,3,0,-5,-3,-5,-3,2021-08-05 17:23:54,138834
2,18,11,1,2,3,2,6,2021-08-05 17:23:54,138834
-3,-28,-15,2,2,1,0,-2,2021-08-05 17:23:54,154686
-4,-10,-17,2,4,1,3,-4,2021-08-05 17:23:54,154686
3,24,7,-1,-5,-4,-2,-2,2021-08-05 17:23:54,154686
1,-7,6,0,2,-1,1,-3,2021-08-05 17:23:54,154686
-4,-7,9,3,-4,-3,-6,-1,2021-08-05 17:23:54,185770
-3,22,4,-2,1,2,-1,0,2021-08-05 17:23:54,185770
4,-36,-18,2,4,4,3,4,2021-08-05 17:23:54,185770
-5,-2,-4,-7,-7,-6,-5,-7,2021-08-05 17:23:54,185770
8,17,7,1,0,-1,-1,3,2021-08-05 17:23:54,201798
-6,-18,-2,-4,-2,-2,-4,-4,2021-08-05 17:23:54,201877
-4,24,7,-4,-3,-2,-2,-2,2021-08-05 17:23:54,201877
1,-5,-4,3,2,0,-2,0,2021-08-05 17:23:54,201877
-3,-16,-7,-1,-2,1,-2,-2,2021-08-05 17:23:54,231687
-2,11,6,-6,-8,-7,-3,-3,2021-08-05 17:23:54,231768
-1,-7,-8,0,2,3,3,2,2021-08-05 17:23:54,231768
-2,-1,-8,-4,-2,-4,-2,-1,2021-08-05 17:23:54,231768
5,-1,6,5,8,3,4,1,2021-08-05 17:23:54,231768
-1,-5,4,0,-1,-2,0,-1,2021-08-05 17:23:54,231768
4,0,3,-2,0,0,0,3,2021-08-05 17:23:54,246687
-2,-10,-8,1,-1,-1,-1,0,2021-08-05 17:23:54,247688
-4,16,-3,-2,-5,-5,-7,-6,2021-08-05 17:23:54,247688
3,-10,0,-1,4,4,4,5,2021-08-05 17:23:54,248568
1,-6,-4,2,0,2,0,-1,2021-08-05 17:23:54,262729
-2,4,2,-3,-3,-1,-1,-3,2021-08-05 17:23:54,262729
-3,4,16,-1,-3,-3,-3,-2,2021-08-05 17:23:54,278688
-4,-10,-13,-1,-2,-1,-3,-4,2021-08-05 17:23:54,278688
-7,-5,-1,-4,-3,-4,-5,-8,2021-08-05 17:23:54,278688
5,9,1,2,2,2,3,5,2021-08-05 17:23:54,278688
6,0,8,6,5,5,3,5,2021-08-05 17:23:54,309758
2,4,3,-2,-4,-2,0,1,2021-08-05 17:23:54,309758
-9,-21,6,-1,-2,-2,-2,-5,2021-08-05 17:23:54,309973
-7,-15,-29,-4,-3,-4,-3,-2,2021-08-05 17:23:54,309973
6,56,21,3,1,0,2,1,2021-08-05 17:23:54,309973
5,-35,-8,2,2,3,1,1,2021-08-05 17:23:54,309973
6,41,3,-2,0,2,2,9,2021-08-05 17:23:54,340887
-7,-49,-4,-1,-2,-1,-3,-6,2021-08-05 17:23:54,341070
-5,-10,-22,-10,-4,-3,-4,-6,2021-08-05 17:23:54,341070
0,19,12,-1,-1,-1,-3,-5,2021-08-05 17:23:54,341351
-2,4,4,-1,-3,-3,-1,-3,2021-08-05 17:23:54,341510
7,20,11,8,6,4,4,5,2021-08-05 17:23:54,341510
-6,-2,-6,1,-11,-7,-6,-8,2021-08-05 17:23:54,357025
-7,-12,-5,-7,0,-2,-1,-4,2021-08-05 17:23:54,357025
0,-10,-1,-1,-8,-1,-1,1,2021-08-05 17:23:54,357025
4,12,-2,-2,5,2,0,4,2021-08-05 17:23:54,357025
-6,27,-4,-10,-8,-5,-3,-4,2021-08-05 17:23:54,372699
-3,-51,-2,7,5,3,2,0,2021-08-05 17:23:54,372833
-9,25,13,7,10,3,-1,-6,2021-08-05 17:23:54,387832
12,-11,20,7,3,5,3,7,2021-08-05 17:23:54,387832
-1,-26,-48,1,4,1,-1,1,2021-08-05 17:23:54,388231
2,29,15,-7,-11,-8,-7,-2,2021-08-05 17:23:54,388469
-4,-27,-35,-7,-3,-6,-4,-5,2021-08-05 17:23:54,419135
-1,-12,7,-9,-9,-4,-4,-2,2021-08-05 17:23:54,419135
2,0,13,2,1,1,1,5,2021-08-05 17:23:54,419135
-3,22,0,-2,-3,-3,-3,-4,2021-08-05 17:23:54,419529
10,-6,26,7,7,9,9,13,2021-08-05 17:23:54,419653
-4,10,-20,0,0,-2,-1,-1,2021-08-05 17:23:54,419832
-2,-22,-6,-4,-2,-1,0,-2,2021-08-05 17:23:54,450867
2,3,1,3,3,3,3,1,2021-08-05 17:23:54,451100
3,22,12,2,-1,-2,1,-1,2021-08-05 17:23:54,451100
-5,30,14,-2,-4,-5,-3,-5,2021-08-05 17:23:54,451100
1,-34,-19,0,3,3,2,1,2021-08-05 17:23:54,451100
-6,-26,-10,-1,-2,-2,-2,-3,2021-08-05 17:23:54,451100
-2,-3,-10,-2,-2,-2,-4,-2,2021-08-05 17:23:54,465924
-1,-3,-4,-5,-4,-4,-4,-8,2021-08-05 17:23:54,465924
7,45,23,1,-2,0,2,6,2021-08-05 17:23:54,480956
-8,-18,4,-2,-8,-9,-7,-7,2021-08-05 17:23:54,480956
-1,-19,-17,-1,5,2,3,4,2021-08-05 17:23:54,480956
-5,8,-8,-2,-2,0,-3,-6,2021-08-05 17:23:54,480956
2,4,13,1,3,2,3,3,2021-08-05 17:23:54,511831
1,11,2,2,1,2,1,2,2021-08-05 17:23:54,527831
-1,15,6,-4,-5,-2,-2,1,2021-08-05 17:23:54,527831
-3,-13,-3,-2,-2,-1,-3,-4,2021-08-05 17:23:54,527831
-2,26,30,5,2,1,0,0,2021-08-05 17:23:54,527831
-5,-78,-67,-7,-3,-2,-1,0,2021-08-05 17:23:54,527831
-5,9,-10,-10,-8,-6,-6,-7,2021-08-05 17:23:54,527831
-1,-3,3,-2,-5,-6,-6,-7,2021-08-05 17:23:54,527831
0,-7,-1,-1,1,0,1,0,2021-08-05 17:23:54,543886
11,106,60,11,4,4,4,7,2021-08-05 17:23:54,543886
-4,-86,-15,1,1,1,2,-2,2021-08-05 17:23:54,544236
5,10,-21,-2,3,5,5,6,2021-08-05 17:23:54,544353
-7,-15,3,-9,-11,-11,-9,-12,2021-08-05 17:23:54,559893
4,14,-8,0,5,4,4,7,2021-08-05 17:23:54,559893
1,26,9,-2,-5,-5,-3,-5,2021-08-05 17:23:54,559893
0,6,35,5,3,-1,2,4,2021-08-05 17:23:54,559893
-2,-15,-39,-3,1,0,-1,1,2021-08-05 17:23:54,575833
-4,-50,-1,-2,-2,-2,-3,-3,2021-08-05 17:23:54,576068
-1,19,-10,0,4,3,-1,-2,2021-08-05 17:23:54,576236
2,14,3,-3,-3,-1,0,3,2021-08-05 17:23:54,576344
2,-8,4,3,2,1,0,1,2021-08-05 17:23:54,606879
-4,11,1,-3,-4,-3,-4,-4,2021-08-05 17:23:54,622874
3,-3,4,1,-3,1,0,1,2021-08-05 17:23:54,623120
-6,7,-8,-6,-3,-3,-4,-4,2021-08-05 17:23:54,623216
-4,-13,-4,0,-2,-4,-3,-5,2021-08-05 17:23:54,623316
9,8,-7,1,6,6,6,8,2021-08-05 17:23:54,623401
-3,-4,5,0,-3,-4,-2,-3,2021-08-05 17:23:54,623401
0,5,-4,-3,-2,-1,-1,0,2021-08-05 17:23:54,623401
3,16,20,1,0,-1,0,0,2021-08-05 17:23:54,637832
-5,-41,-21,0,4,1,0,-4,2021-08-05 17:23:54,637832
-3,17,-1,-5,-7,-5,-5,-5,2021-08-05 17:23:54,637832
0,-6,4,3,1,1,1,-1,2021-08-05 17:23:54,637832
-3,-15,-5,0,-1,0,-1,1,2021-08-05 17:23:54,668935
-3,19,1,-1,-3,-1,-5,-8,2021-08-05 17:23:54,684909
4,-1,-2,3,4,4,4,6,2021-08-05 17:23:54,684909
2,30,16,3,-4,-3,-1,-2,2021-08-05 17:23:54,684909
-4,-21,21,3,1,0,-1,-3,2021-08-05 17:23:54,684909
-1,-29,-36,-3,-2,-2,-1,1,2021-08-05 17:23:54,700950
-6,-28,-30,-9,-3,-4,-4,-7,2021-08-05 17:23:54,700950
-2,-5,0,-4,-2,-1,-2,-5,2021-08-05 17:23:54,701251
5,17,7,-2,-1,-1,-1,1,2021-08-05 17:23:54,701368
-3,25,26,0,-4,-4,-4,-4,2021-08-05 17:23:54,701547
2,8,8,6,4,2,3,3,2021-08-05 17:23:54,701547
4,0,5,4,4,4,4,5,2021-08-05 17:23:54,701834
-1,-34,-28,-4,0,1,0,-1,2021-08-05 17:23:54,716831
-2,15,3,-2,-2,0,-2,-3,2021-08-05 17:23:54,716831
-1,8,5,-3,-4,-2,-2,0,2021-08-05 17:23:54,716831
3,-5,2,2,1,1,0,0,2021-08-05 17:23:54,717432
-3,1,-3,-2,-4,-3,-3,-1,2021-08-05 17:23:54,748908
2,31,9,-2,0,0,2,2,2021-08-05 17:23:54,749118
-6,-33,-9,3,2,-1,-2,-4,2021-08-05 17:23:54,749268
2,2,2,2,2,1,1,3,2021-08-05 17:23:54,749338
-1,0,-3,-2,-3,-1,-2,-6,2021-08-05 17:23:54,763878
-2,-14,-21,-9,-6,-4,-1,-1,2021-08-05 17:23:54,763878
0,40,31,-1,-4,-5,-6,-4,2021-08-05 17:23:54,763878
0,-15,-15,1,3,3,2,2,2021-08-05 17:23:54,763878
-1,-59,-25,4,3,3,2,1,2021-08-05 17:23:54,794913
-1,19,13,-2,-5,-3,-2,0,2021-08-05 17:23:54,795026
-2,-9,-6,-3,0,0,-2,0,2021-08-05 17:23:54,795026
1,18,13,1,-3,-3,-1,-3,2021-08-05 17:23:54,795243
-2,84,46,1,-7,-6,-3,1,2021-08-05 17:23:54,795349
4,-99,-70,3,10,10,7,6,2021-08-05 17:23:54,795514
-1,14,-14,-8,-6,-3,-2,-4,2021-08-05 17:23:54,795632
-3,-12,0,-4,-5,-4,-6,-5,2021-08-05 17:23:54,795726
1,25,2,0,1,2,3,6,2021-08-05 17:23:54,826947
-2,22,43,6,-2,-3,-1,-4,2021-08-05 17:23:54,827025
-3,-14,-3,1,-2,-2,0,0,2021-08-05 17:23:54,827153
1,0,-24,4,8,8,5,4,2021-08-05 17:23:54,827153
-1,-26,-4,-4,-2,-2,-4,-4,2021-08-05 17:23:54,841831
4,22,23,4,1,1,1,1,2021-08-05 17:23:54,856830
6,33,2,3,2,1,1,1,2021-08-05 17:23:54,872894
-8,-67,-5,-3,-4,-3,0,0,2021-08-05 17:23:54,873049
-7,4,-18,-5,-1,-1,-1,-3,2021-08-05 17:23:54,873148
1,-1,-12,-4,-2,-1,-2,0,2021-08-05 17:23:54,873243
-3,35,17,1,-4,-3,-3,-4,2021-08-05 17:23:54,873345
3,-4,7,3,3,1,2,1,2021-08-05 17:23:54,873419
1,-24,-15,-1,0,1,2,3,2021-08-05 17:23:54,873490
-4,15,10,-3,-6,-5,-5,-5,2021-08-05 17:23:54,873560
5,-10,1,4,4,4,5,4,2021-08-05 17:23:54,886830
-5,3,-1,-3,-2,-2,-3,-4,2021-08-05 17:23:54,886830
3,40,17,3,3,1,1,1,2021-08-05 17:23:54,903988
-4,-37,-28,-3,1,-1,0,-2,2021-08-05 17:23:54,919930
-5,-23,-14,-4,-3,-1,0,-2,2021-08-05 17:23:54,935364
-2,33,10,-4,-6,-6,-5,-4,2021-08-05 17:23:54,935364
-2,-36,-5,0,-3,-3,-4,-4,2021-08-05 17:23:54,935364
0,35,18,-2,-4,-4,-4,-2,2021-08-05 17:23:54,935364
-5,-17,-15,-3,1,0,-1,-3,2021-08-05 17:23:54,935364
8,1,-5,-1,1,4,4,9,2021-08-05 17:23:54,935364
-1,40,12,-1,0,-1,-2,-3,2021-08-05 17:23:54,935364
0,-32,7,3,4,2,1,1,2021-08-05 17:23:54,936275
-1,-33,-13,-1,1,2,1,0,2021-08-05 17:23:54,951374
-7,24,-3,-5,-7,-4,-5,-8,2021-08-05 17:23:54,951374
6,-39,2,0,1,1,2,2,2021-08-05 17:23:54,951374
0,18,-4,0,1,1,0,-2,2021-08-05 17:23:54,951374
-1,11,14,2,2,1,2,3,2021-08-05 17:23:54,967276
-2,7,-3,0,-2,-3,-1,-2,2021-08-05 17:23:54,967276
-3,-5,-6,0,2,0,0,1,2021-08-05 17:23:54,983346
-3,-3,-12,-6,-7,-5,-4,-6,2021-08-05 17:23:54,999370
1,-26,-16,-6,-3,0,-1,0,2021-08-05 17:23:54,999482
-4,14,-3,-1,-4,-3,-4,-6,2021-08-05 17:23:54,999535
1,4,10,2,-1,1,-1,-2,2021-08-05 17:23:54,999754
1,8,18,2,3,5,5,5,2021-08-05 17:23:54,999809
7,38,20,7,4,2,2,4,2021-08-05 17:23:54,999809
-4,-39,-13,0,1,2,2,0,2021-08-05 17:23:54,999809
6,80,7,0,0,-1,0,2,2021-08-05 17:23:55,030482
-5,-101,-28,-2,-4,-2,-2,-5,2021-08-05 17:23:55,030671
-7,50,-5,-2,0,-1,0,-1,2021-08-05 17:23:55,046346
-2,9,-18,-7,-6,-5,-4,-4,2021-08-05 17:23:55,046346
-8,3,-2,-5,-5,-3,-3,-3,2021-08-05 17:23:55,046346
5,58,22,4,2,0,-2,-2,2021-08-05 17:23:55,046346
3,-32,9,3,1,0,0,1,2021-08-05 17:23:55,046346
2,1,4,0,0,-1,1,1,2021-08-05 17:23:55,046346
-4,-28,-5,0,-1,2,1,1,2021-08-05 17:23:55,078356
-5,16,-9,0,-3,-4,-5,-6,2021-08-05 17:23:55,093296
10,-16,22,4,6,6,7,11,2021-08-05 17:23:55,108273
0,-6,-30,-4,1,0,0,0,2021-08-05 17:23:55,124441
0,-15,-12,-8,-6,-4,-5,-3,2021-08-05 17:23:55,124563
-4,3,20,-2,-3,-2,-2,-1,2021-08-05 17:23:55,124616
1,-12,-19,4,3,3,-1,-1,2021-08-05 17:23:55,124616
-3,5,14,-2,-6,-4,-4,-3,2021-08-05 17:23:55,124616
2,-25,-8,4,5,3,2,4,2021-08-05 17:23:55,124616
-4,0,-7,-2,0,-2,0,-3,2021-08-05 17:23:55,125026
-5,24,-1,-9,-7,-9,-6,-6,2021-08-05 17:23:55,125098
-1,-43,-1,-6,-2,-4,-1,-3,2021-08-05 17:23:55,125168
-5,11,-1,6,2,-3,-4,-7,2021-08-05 17:23:55,125274
7,49,30,7,5,4,4,10,2021-08-05 17:23:55,125441
3,16,-15,2,3,3,3,6,2021-08-05 17:23:55,125537
0,-54,-7,-3,-2,1,0,1,2021-08-05 17:23:55,125658
-6,-10,-22,-6,-3,-4,-3,-6,2021-08-05 17:23:55,155333
-3,24,28,-2,-5,-4,-4,-4,2021-08-05 17:23:55,155333
0,25,5,-1,-2,-3,-4,-5,2021-08-05 17:23:55,155333
-2,-30,-22,3,5,4,3,4,2021-08-05 17:23:55,155333
2,14,32,1,-4,-2,0,-2,2021-08-05 17:23:55,155333
1,3,-16,-2,1,2,2,2,2021-08-05 17:23:55,155333
3,8,-6,-3,-4,-3,-2,-2,2021-08-05 17:23:55,155333
-12,-10,4,-6,-8,-6,-6,-5,2021-08-05 17:23:55,155333
4,-47,-18,-1,5,4,2,3,2021-08-05 17:23:55,187334
10,7,5,-1,0,0,1,4,2021-08-05 17:23:55,187334
-13,22,18,4,-1,0,-2,-3,2021-08-05 17:23:55,187599
7,36,9,1,1,1,0,0,2021-08-05 17:23:55,187599
2,-22,0,2,5,3,4,7,2021-08-05 17:23:55,202419
-3,0,-14,-3,-2,-1,-3,-3,2021-08-05 17:23:55,208334
6,-18,-9,-3,-5,-4,-3,-3,2021-08-05 17:23:55,208334
-7,11,10,4,2,2,2,2,2021-08-05 17:23:55,208334
-2,26,1,-2,-4,-3,-1,-3,2021-08-05 17:23:55,233568
-1,16,24,2,1,-1,1,-1,2021-08-05 17:23:55,249523
0,-82,-49,-7,-2,0,2,4,2021-08-05 17:23:55,249648
-1,24,-7,-6,-5,-3,-2,-2,2021-08-05 17:23:55,265333
-1,-11,-2,-2,1,0,0,-3,2021-08-05 17:23:55,265457
-7,-7,-5,2,1,1,-1,-4,2021-08-05 17:23:55,265457
-3,9,24,7,0,0,-5,-9,2021-08-05 17:23:55,265457
2,19,3,3,2,-2,-3,-4,2021-08-05 17:23:55,265457
4,55,9,-1,-4,-3,-3,3,2021-08-05 17:23:55,265457
-2,-63,-12,-5,-5,-4,-3,-3,2021-08-05 17:23:55,265457
-5,-7,7,-2,1,1,3,3,2021-08-05 17:23:55,265457
1,-4,-5,-5,-3,-2,-1,0,2021-08-05 17:23:55,265457
-4,27,6,-1,-3,-3,-2,-5,2021-08-05 17:23:55,280658
2,-11,-14,-1,-1,1,2,4,2021-08-05 17:23:55,280900
3,3,9,1,1,-1,0,-1,2021-08-05 17:23:55,280906
10,11,-21,-2,1,1,1,1,2021-08-05 17:23:55,280906
-20,-78,-19,-9,-4,-3,-4,-6,2021-08-05 17:23:55,311438
-4,82,42,1,-2,-2,-4,-4,2021-08-05 17:23:55,311438
-2,-57,-23,-4,-5,-5,-3,-4,2021-08-05 17:23:55,311438
3,16,-6,2,4,3,4,7,2021-08-05 17:23:55,311438
6,10,8,3,-2,-4,-3,-6,2021-08-05 17:23:55,311438
3,49,-4,-1,0,-2,1,1,2021-08-05 17:23:55,311438
-8,-69,8,1,3,2,6,3,2021-08-05 17:23:55,311438
-4,-12,10,2,0,0,-2,-5,2021-08-05 17:23:55,311438
0,5,-32,-4,0,-1,-1,-4,2021-08-05 17:23:55,343418
-4,-15,-6,-5,-4,-5,-5,-3,2021-08-05 17:23:55,359473
3,75,47,5,1,-3,-1,2,2021-08-05 17:23:55,359541
-3,-67,-31,0,1,0,2,2,2021-08-05 17:23:55,359675
4,50,11,-1,-1,2,-1,3,2021-08-05 17:23:55,375336
-3,-66,-10,1,-1,1,-1,-2,2021-08-05 17:23:55,375336
-1,-19,-32,-5,-3,-2,-3,-5,2021-08-05 17:23:55,375336
-7,10,48,5,2,0,-2,-2,2021-08-05 17:23:55,375336
-10,-12,-53,-2,-3,0,-1,0,2021-08-05 17:23:55,375336
7,68,-15,-13,-9,-7,-4,-4,2021-08-05 17:23:55,375336
-3,-70,37,2,0,1,1,0,2021-08-05 17:23:55,375336
2,20,-28,0,2,1,-1,-2,2021-08-05 17:23:55,375336
3,50,37,-2,-5,-4,-4,-1,2021-08-05 17:23:55,407427
-2,-37,2,4,4,2,4,3,2021-08-05 17:23:55,407705
-4,-7,-34,-9,-11,-6,-7,-5,2021-08-05 17:23:55,407869
4,36,16,0,3,1,0,3,2021-08-05 17:23:55,407987
1,6,15,2,1,0,-1,-3,2021-08-05 17:23:55,423425
-5,-49,-24,-3,-3,-1,0,0,2021-08-05 17:23:55,423587
2,101,33,6,2,-1,-2,1,2021-08-05 17:23:55,423640
-3,-11,24,3,-2,-2,1,1,2021-08-05 17:23:55,423764
-3,-101,-53,-4,0,1,2,1,2021-08-05 17:23:55,439032
3,54,17,0,2,1,1,-2,2021-08-05 17:23:55,439335
1,-28,-29,-5,-2,-3,-2,-2,2021-08-05 17:23:55,439335
10,44,-3,-4,-3,-3,-4,-5,2021-08-05 17:23:55,439627
-21,-19,48,-2,-7,-6,-6,-9,2021-08-05 17:23:55,470334
2,-5,-20,4,5,5,4,3,2021-08-05 17:23:55,470334
-5,-7,-14,-6,-5,-3,-5,-5,2021-08-05 17:23:55,470334
7,4,-4,7,5,3,3,3,2021-08-05 17:23:55,470334
17,15,7,2,2,1,3,7,2021-08-05 17:23:55,486372
-6,-35,-11,0,0,0,0,-4,2021-08-05 17:23:55,486372
-4,48,25,-3,-6,-4,-4,-5,2021-08-05 17:23:55,486372
3,54,27,6,-1,0,0,1,2021-08-05 17:23:55,486372
-7,-84,-27,-2,2,1,1,-1,2021-08-05 17:23:55,502430
-1,-7,-19,-1,3,1,2,2,2021-08-05 17:23:55,502430
1,20,-11,-6,-6,-4,-3,-4,2021-08-05 17:23:55,502618
-7,2,2,-8,-6,-5,-6,-5,2021-08-05 17:23:55,502710
5,42,39,11,6,5,2,1,2021-08-05 17:23:55,524335
0,-13,-20,-2,-2,0,0,-2,2021-08-05 17:23:55,524335
1,4,-16,-1,3,2,2,0,2021-08-05 17:23:55,524335
-6,-27,14,-3,-5,-4,-2,-2,2021-08-05 17:23:55,524335
-6,-26,-15,-5,-3,-4,-3,-2,2021-08-05 17:23:55,548471
2,-6,-9,-1,0,1,-1,1,2021-08-05 17:23:55,548596
0,82,31,0,-3,-2,-3,-6,2021-08-05 17:23:55,548596
10,-70,-20,0,5,6,6,8,2021-08-05 17:23:55,548693
-3,10,-11,-3,-2,-3,-2,-1,2021-08-05 17:23:55,563369
-12,10,16,3,-2,-2,-2,-3,2021-08-05 17:23:55,563369
-5,-44,-21,-4,-1,-3,-3,-2,2021-08-05 17:23:55,563369
-2,30,11,0,-3,-3,-4,-6,2021-08-05 17:23:55,563369
10,-16,12,0,0,1,2,2,2021-08-05 17:23:55,578415
0,-10,-20,-3,1,1,-1,0,2021-08-05 17:23:55,578415
2,30,14,2,1,0,-1,2,2021-08-05 17:23:55,578568
2,73,47,4,-1,-3,-3,-2,2021-08-05 17:23:55,578568
1,-84,-38,3,6,7,7,7,2021-08-05 17:23:55,609461
-2,-3,-50,-10,-5,-3,-3,-3,2021-08-05 17:23:55,625334
-5,-21,6,-10,-10,-8,-6,-6,2021-08-05 17:23:55,641334
-2,16,-16,-5,-4,-3,-3,-2,2021-08-05 17:23:55,641334
-2,35,35,2,-4,-3,-4,-4,2021-08-05 17:23:55,641334
4,30,34,8,6,3,3,4,2021-08-05 17:23:55,641334
3,-72,-38,5,9,7,8,9,2021-08-05 17:23:55,641334
-8,29,-5,-6,-4,-3,-2,-4,2021-08-05 17:23:55,641943
5,-3,-7,-6,-5,-5,-4,-1,2021-08-05 17:23:55,641943
6,53,38,1,-1,-2,-2,1,2021-08-05 17:23:55,641943
-5,-55,-27,2,5,4,2,0,2021-08-05 17:23:55,642303
-15,-41,-23,-6,-1,1,-2,-2,2021-08-05 17:23:55,642434
4,52,10,2,2,1,1,2,2021-08-05 17:23:55,671489
1,-39,12,0,-3,-3,-3,-3,2021-08-05 17:23:55,687441
2,57,-6,0,0,0,-1,1,2021-08-05 17:23:55,687562
3,-54,-12,2,2,2,2,2,2021-08-05 17:23:55,703434
-4,0,-9,-5,-4,-3,-3,-4,2021-08-05 17:23:55,718102
-4,-1,-1,-4,-6,-2,-5,-2,2021-08-05 17:23:55,718335
4,12,14,7,5,3,2,2,2021-08-05 17:23:55,718335
0,16,0,3,0,0,0,0,2021-08-05 17:23:55,718335
-4,-19,-8,-5,-4,-2,-2,-3,2021-08-05 17:23:55,718335
-4,5,9,-1,-4,-4,-5,-3,2021-08-05 17:23:55,718335
-7,-30,-8,-6,-5,-5,-3,-2,2021-08-05 17:23:55,718335
3,6,-3,5,3,2,4,2,2021-08-05 17:23:55,718335
0,45,21,2,-1,-1,0,1,2021-08-05 17:23:55,718335
0,-22,-12,-1,0,-1,2,-1,2021-08-05 17:23:55,718335
0,-35,-13,-3,-4,-4,-3,-5,2021-08-05 17:23:55,718335
0,-45,9,5,6,5,5,9,2021-08-05 17:23:55,719334
1,50,-4,-4,0,-1,-2,-2,2021-08-05 17:23:55,749557
-6,-45,-22,-7,-5,-4,-2,-3,2021-08-05 17:23:55,749755
2,34,-6,-1,-1,-1,0,0,2021-08-05 17:23:55,749858
4,27,20,0,-5,-4,-4,-4,2021-08-05 17:23:55,749954
1,-26,-5,3,3,0,1,1,2021-08-05 17:23:55,765552
-3,-9,3,2,1,2,2,3,2021-08-05 17:23:55,780552
1,14,13,-3,-3,-3,-1,-2,2021-08-05 17:23:55,780777
0,3,1,0,1,2,1,-1,2021-08-05 17:23:55,780900
-3,-3,-34,-5,-4,-4,-4,-2,2021-08-05 17:23:55,781067
4,7,10,1,1,1,1,2,2021-08-05 17:23:55,781188
-2,-9,4,0,-2,0,2,2,2021-08-05 17:23:55,781353
-5,-52,-39,-4,-1,0,-1,-2,2021-08-05 17:23:55,781513
1,23,13,-2,-3,-1,-1,-1,2021-08-05 17:23:55,795587
-3,2,18,1,-6,-4,-4,-7,2021-08-05 17:23:55,811478
8,43,20,6,4,3,2,6,2021-08-05 17:23:55,811478
-1,-1,2,-2,-5,-5,-5,-4,2021-08-05 17:23:55,811478
7,17,-31,-1,5,3,4,4,2021-08-05 17:23:55,827552
-18,-86,-22,-7,-3,-3,-3,-4,2021-08-05 17:23:55,843682
-1,21,8,-6,-7,-3,-3,-4,2021-08-05 17:23:55,843779
0,58,10,-2,-4,-5,-9,-6,2021-08-05 17:23:55,843779
4,9,25,4,-1,0,1,0,2021-08-05 17:23:55,843779
10,2,17,7,5,3,5,6,2021-08-05 17:23:55,843779
2,11,-14,2,4,4,2,-1,2021-08-05 17:23:55,843779
-7,-41,-13,-7,-4,-1,-1,-1,2021-08-05 17:23:55,843779
-6,21,14,0,-4,-2,-4,-4,2021-08-05 17:23:55,874702
1,11,-26,-6,0,-1,-1,-1,2021-08-05 17:23:55,889704
-6,-61,6,-4,-6,-4,-3,-2,2021-08-05 17:23:55,905699
-6,2,6,-1,-2,-4,-2,-5,2021-08-05 17:23:55,905800
6,-4,7,6,7,7,5,6,2021-08-05 17:23:55,905955
0,9,-25,-7,-6,-5,-6,-4,2021-08-05 17:23:55,906108
1,25,15,-3,-2,-1,-2,2,2021-08-05 17:23:55,906257
2,5,-8,0,0,-1,-2,-1,2021-08-05 17:23:55,906364
-9,-65,7,-1,-2,0,0,-1,2021-08-05 17:23:55,906553
5,24,-1,2,-2,-1,1,-1,2021-08-05 17:23:55,906695
-7,-10,-9,0,1,2,0,-1,2021-08-05 17:23:55,906695
-4,3,-1,-5,-3,-2,-2,-2,2021-08-05 17:23:55,906695
2,28,6,2,1,0,0,1,2021-08-05 17:23:55,921552
4,6,9,5,3,2,1,5,2021-08-05 17:23:55,936685
0,-9,11,4,3,2,2,-2,2021-08-05 17:23:55,936798
1,4,1,3,3,1,3,3,2021-08-05 17:23:55,936975
-4,-70,-62,-11,-4,-1,0,0,2021-08-05 17:23:55,937143
-11,15,7,-8,-8,-7,-6,-8,2021-08-05 17:23:55,937230
0,11,18,-2,-5,-2,-7,-4,2021-08-05 17:23:55,937284
6,35,21,9,8,6,3,6,2021-08-05 17:23:55,937361
3,-15,-9,-3,-2,-3,-2,-2,2021-08-05 17:23:55,982653
0,-7,-2,0,1,2,3,0,2021-08-05 17:23:55,982774
-5,26,1,-1,-4,-6,-4,-4,2021-08-05 17:23:55,982968
3,-24,-4,-3,-1,-1,-1,2,2021-08-05 17:23:55,983064
-2,-12,0,5,4,1,0,1,2021-08-05 17:23:55,983233
-12,-10,-7,-6,-6,-5,-4,-6,2021-08-05 17:23:55,983320
5,19,3,2,3,4,4,2,2021-08-05 17:23:55,983445
-2,-24,-11,-7,-8,-6,-3,-5,2021-08-05 17:23:55,983553
2,70,11,-7,-4,-4,-3,0,2021-08-05 17:23:55,998669
-3,-39,16,6,4,4,4,4,2021-08-05 17:23:56,013598
-11,-26,-34,0,3,2,3,-1,2021-08-05 17:23:56,013598
2,65,45,11,4,4,2,0,2021-08-05 17:23:56,013598
-9,-70,-24,-2,-3,-4,-5,-6,2021-08-05 17:23:56,028731
16,43,-9,-1,1,1,-2,3,2021-08-05 17:23:56,028731
-1,5,2,-7,-9,-8,-5,-4,2021-08-05 17:23:56,028731
4,38,14,1,-1,0,2,6,2021-08-05 17:23:56,028731
-2,-55,-10,1,-1,-1,0,-1,2021-08-05 17:23:56,044729
-4,1,1,1,1,0,2,0,2021-08-05 17:23:56,044729
-1,-6,-14,-5,-1,1,-1,2,2021-08-05 17:23:56,044729
-8,-5,6,-1,0,-1,-2,-4,2021-08-05 17:23:56,044729
3,32,4,1,-2,-1,-3,-2,2021-08-05 17:23:56,059836
3,3,21,0,-1,0,0,2,2021-08-05 17:23:56,059998
3,27,-29,4,5,4,3,4,2021-08-05 17:23:56,060107
-4,-81,-11,-3,-4,-2,1,-2,2021-08-05 17:23:56,060107
-3,20,8,-4,-4,-4,-3,-3,2021-08-05 17:23:56,089750
4,66,13,0,-1,-2,-3,-4,2021-08-05 17:23:56,105785
0,-70,8,-2,-1,-3,-2,-4,2021-08-05 17:23:56,105999
-10,-32,-42,-8,-1,-1,-1,-1,2021-08-05 17:23:56,105999
3,27,10,1,-1,-1,0,0,2021-08-05 17:23:56,105999
0,-10,-11,-1,-1,0,-1,1,2021-08-05 17:23:56,105999
8,-3,18,2,0,1,2,4,2021-08-05 17:23:56,105999
-8,7,-18,-1,2,0,0,-3,2021-08-05 17:23:56,105999
-2,21,35,0,0,-2,-3,-3,2021-08-05 17:23:56,121729
-1,-13,-34,-3,0,-2,0,-4,2021-08-05 17:23:56,137771
-3,-26,-2,-7,-5,-4,-2,-1,2021-08-05 17:23:56,137906
5,3,11,1,0,2,-1,2,2021-08-05 17:23:56,138030
-2,41,-6,0,-1,2,0,1,2021-08-05 17:23:56,138184
-4,-14,-19,-4,-4,-2,-3,-3,2021-08-05 17:23:56,138184
-7,-6,-1,0,-1,-3,1,0,2021-08-05 17:23:56,138184
-2,-4,4,-1,-4,-3,-2,-2,2021-08-05 17:23:56,138184
-1,26,31,3,-1,0,-1,-1,2021-08-05 17:23:56,173731
6,-13,-1,4,7,6,3,6,2021-08-05 17:23:56,173731
-5,36,0,-1,-5,-2,-3,-5,2021-08-05 17:23:56,173731
2,-47,3,0,-1,-1,-1,0,2021-08-05 17:23:56,173731
-4,-39,-25,-4,-3,-2,0,-2,2021-08-05 17:23:56,173731
-10,-6,-7,-11,-12,-11,-9,-9,2021-08-05 17:23:56,174732
13,94,27,7,6,10,5,6,2021-08-05 17:23:56,174732
0,-71,-23,-1,2,0,0,0,2021-08-05 17:23:56,174732
-4,0,-11,-1,1,0,1,0,2021-08-05 17:23:56,198745
-1,30,24,0,-3,-2,-2,-4,2021-08-05 17:23:56,198745
-3,-40,-6,2,3,-1,-1,0,2021-08-05 17:23:56,198745
0,35,-15,-3,-5,-1,0,-3,2021-08-05 17:23:56,198745
0,-12,2,-4,-2,-1,-2,-2,2021-08-05 17:23:56,228731
0,47,31,5,3,1,2,3,2021-08-05 17:23:56,243913
-4,-49,-19,0,1,-3,-3,-2,2021-08-05 17:23:56,243913
1,-16,-10,-1,0,1,1,-1,2021-08-05 17:23:56,243913
0,13,-18,-5,-3,-1,-3,-2,2021-08-05 17:23:56,243913
-1,10,24,1,-3,-1,-2,0,2021-08-05 17:23:56,243913
-4,-9,-1,4,2,4,1,-1,2021-08-05 17:23:56,243913
1,-15,-15,-2,1,-1,-1,2,2021-08-05 17:23:56,243913
2,15,13,-2,-1,-1,-2,-5,2021-08-05 17:23:56,274730
0,-2,3,1,2,0,1,1,2021-08-05 17:23:56,289780
0,-16,-10,-2,3,0,3,0,2021-08-05 17:23:56,290001
-10,60,13,-9,-11,-10,-9,-10,2021-08-05 17:23:56,290189
-2,-68,-18,4,7,7,3,4,2021-08-05 17:23:56,290189
3,-7,-3,-2,-1,0,-1,1,2021-08-05 17:23:56,290189
0,43,6,-4,-4,-3,-3,-4,2021-08-05 17:23:56,290189
5,-41,5,1,0,1,2,4,2021-08-05 17:23:56,290189
1,23,-18,-7,-5,-6,-2,-3,2021-08-05 17:23:56,305792
-16,-45,-10,-2,-1,-1,-1,-6,2021-08-05 17:23:56,320829
7,12,11,6,4,4,1,4,2021-08-05 17:23:56,320829
3,35,4,2,1,-1,-2,-1,2021-08-05 17:23:56,320829
-3,-4,9,-1,-3,-2,-1,-1,2021-08-05 17:23:56,320829
4,-20,-8,-2,1,1,1,3,2021-08-05 17:23:56,320829
2,32,7,1,0,0,2,3,2021-08-05 17:23:56,320829
-5,-21,7,-1,-3,-1,-2,-5,2021-08-05 17:23:56,320829
1,51,18,4,3,2,1,5,2021-08-05 17:23:56,351774
-5,-70,-45,-5,-2,-2,-2,-4,2021-08-05 17:23:56,367729
1,-24,-30,-5,0,3,2,7,2021-08-05 17:23:56,367996
-2,24,11,-2,-2,-2,-4,-6,2021-08-05 17:23:56,368055
-5,-10,5,-4,-5,-5,-4,-4,2021-08-05 17:23:56,368103
4,52,33,5,1,1,1,3,2021-08-05 17:23:56,368205
-2,-26,-12,1,-1,-1,1,-1,2021-08-05 17:23:56,368205
4,-27,-26,-1,0,-3,0,0,2021-08-05 17:23:56,368205
2,23,20,-1,-1,-2,1,3,2021-08-05 17:23:56,383729
4,-31,-15,1,1,2,2,4,2021-08-05 17:23:56,383729
-6,8,7,-3,-7,-6,-4,-6,2021-08-05 17:23:56,383729
-1,29,-2,-2,1,0,0,1,2021-08-05 17:23:56,383729
-3,-47,1,0,-2,-3,-1,-3,2021-08-05 17:23:56,415854
2,17,-6,3,0,0,0,-2,2021-08-05 17:23:56,415854
1,-8,1,-4,-4,-1,-2,-2,2021-08-05 17:23:56,415854
-1,59,13,2,0,-1,-1,-1,2021-08-05 17:23:56,415854
7,-26,-1,5,6,6,5,9,2021-08-05 17:23:56,415854
1,-5,-4,-1,2,3,0,0,2021-08-05 17:23:56,415854
-1,14,3,-3,-3,-5,-4,-4,2021-08-05 17:23:56,415854
-4,18,-8,-3,-2,-3,-1,-2,2021-08-05 17:23:56,415854
-3,-65,-21,-3,-2,1,-2,-1,2021-08-05 17:23:56,447815
1,41,28,0,-5,-3,-2,-2,2021-08-05 17:23:56,447815
4,24,-3,3,3,1,0,-1,2021-08-05 17:23:56,448057
3,6,41,3,-1,-1,-1,-3,2021-08-05 17:23:56,448057
-13,-48,-57,-6,0,1,1,0,2021-08-05 17:23:56,463729
-7,-23,-32,-7,-6,-2,-1,-2,2021-08-05 17:23:56,478731
-5,24,29,-3,-9,-10,-8,-9,2021-08-05 17:23:56,497473
1,-5,-9,0,-1,-3,-3,-1,2021-08-05 17:23:56,497626
10,87,42,8,2,2,0,1,2021-08-05 17:23:56,497770
-3,-32,4,3,2,0,0,2,2021-08-05 17:23:56,497770
3,70,8,5,6,5,7,6,2021-08-05 17:23:56,497770
1,-125,-10,-2,-1,2,3,5,2021-08-05 17:23:56,497770
-5,4,-36,-3,1,-2,-1,-3,2021-08-05 17:23:56,497770
-2,33,-2,-8,-7,-9,-6,-6,2021-08-05 17:23:56,497770
-1,-3,11,0,0,-1,-3,-1,2021-08-05 17:23:56,497770
-4,-24,-13,-3,-4,0,-3,-4,2021-08-05 17:23:56,497770
0,29,11,-2,-4,-3,-4,-3,2021-08-05 17:23:56,525730
0,-23,-7,0,2,0,0,1,2021-08-05 17:23:56,541825
-1,-17,-2,-3,-5,-3,0,1,2021-08-05 17:23:56,541825
1,28,2,4,6,4,2,4,2021-08-05 17:23:56,541825
-4,7,5,1,-5,-6,-2,-4,2021-08-05 17:23:56,541825
2,51,29,5,2,0,0,-3,2021-08-05 17:23:56,542222
-3,-73,-21,0,0,2,3,5,2021-08-05 17:23:56,542222
-11,-57,-48,-8,-2,-2,-4,-8,2021-08-05 17:23:56,542483
3,13,-4,-6,-4,-2,-4,-3,2021-08-05 17:23:56,572730
-2,32,22,-3,-7,-5,-8,-3,2021-08-05 17:23:56,588893
1,1,14,4,3,3,0,0,2021-08-05 17:23:56,604868
3,2,-18,1,2,3,4,4,2021-08-05 17:23:56,619894
-8,6,6,-4,-6,-3,-4,-5,2021-08-05 17:23:56,619894
4,8,6,4,1,3,3,0,2021-08-05 17:23:56,619894
-1,-43,-9,-3,0,-1,0,-1,2021-08-05 17:23:56,620252
6,35,21,3,2,2,2,4,2021-08-05 17:23:56,620374
1,-3,-13,1,0,-1,0,0,2021-08-05 17:23:56,620502
-7,-57,-9,-6,-6,-7,-4,-5,2021-08-05 17:23:56,634729
-3,2,-14,-3,-1,-2,-3,-5,2021-08-05 17:23:56,634729
1,51,16,-3,-4,-5,-3,-3,2021-08-05 17:23:56,635071
3,-3,13,0,0,0,-1,0,2021-08-05 17:23:56,635071
7,-23,-11,5,6,5,5,10,2021-08-05 17:23:56,635071
-3,5,-4,-3,-7,-5,-5,-6,2021-08-05 17:23:56,635071
4,32,6,4,4,5,3,6,2021-08-05 17:23:56,635071
-1,-15,22,1,2,2,4,1,2021-08-05 17:23:56,650730
-6,-49,-47,-10,-5,-5,-4,-5,2021-08-05 17:23:56,650730
-5,-19,-13,-7,-1,0,-3,-4,2021-08-05 17:23:56,650730
2,-2,-7,-2,-6,-5,-4,-5,2021-08-05 17:23:56,650730
4,34,19,5,4,3,1,4,2021-08-05 17:23:56,682729
3,28,22,5,2,3,2,3,2021-08-05 17:23:56,683004
-4,-17,12,3,1,-2,-1,-1,2021-08-05 17:23:56,683125
-3,34,-4,-1,-1,-2,-1,-3,2021-08-05 17:23:56,683217
-1,-75,-35,-3,0,2,1,2,2021-08-05 17:23:56,683334
-5,-1,-11,-6,-2,-2,-2,-3,2021-08-05 17:23:56,683464
-2,-3,1,-4,-4,-1,-3,-2,2021-08-05 17:23:56,698188
2,12,13,3,1,-2,-1,0,2021-08-05 17:23:56,713798
8,110,73,11,3,1,2,2,2021-08-05 17:23:56,713798
-4,-104,-52,1,1,-1,3,1,2021-08-05 17:23:56,713798
-2,83,-24,-6,0,3,3,2,2021-08-05 17:23:56,713798
-14,-128,-4,-14,-15,-10,-10,-11,2021-08-05 17:23:56,714168
5,22,-39,-2,2,-1,0,0,2021-08-05 17:23:56,714238
-3,42,14,-4,-7,-5,-7,-4,2021-08-05 17:23:56,714303
3,29,22,5,1,-1,0,-1,2021-08-05 17:23:56,714376
4,-2,0,6,4,5,3,7,2021-08-05 17:23:56,714395
-3,-12,10,-1,-1,-2,-2,-1,2021-08-05 17:23:56,745942
8,16,16,6,6,7,5,4,2021-08-05 17:23:56,760730
-2,-20,-11,0,0,-2,-1,0,2021-08-05 17:23:56,776851
-4,15,1,-2,1,-1,-1,0,2021-08-05 17:23:56,776851
-2,-31,-7,-2,-4,-3,-3,-4,2021-08-05 17:23:56,777107
1,25,-2,1,2,1,2,1,2021-08-05 17:23:56,777242
-3,-27,-4,-3,-1,-1,-2,-1,2021-08-05 17:23:56,777242
1,14,3,0,-4,-2,0,-2,2021-08-05 17:23:56,777433
-3,-14,-16,-4,-4,-2,-1,-1,2021-08-05 17:23:56,777603
-1,12,10,0,3,2,1,-2,2021-08-05 17:23:56,777737
-1,-16,5,0,-2,-1,-2,-3,2021-08-05 17:23:56,777737
-4,-5,-13,-1,3,3,3,2,2021-08-05 17:23:56,777737
-6,-4,-5,0,2,1,-1,-1,2021-08-05 17:23:56,808836
-3,16,13,-1,-5,-6,-7,-8,2021-08-05 17:23:56,808836
6,-17,4,3,0,-1,-2,-3,2021-08-05 17:23:56,808836
1,12,-9,-5,-5,-5,-3,0,2021-08-05 17:23:56,809202
-1,-5,0,-3,-4,-4,-5,-3,2021-08-05 17:23:56,817729
-3,4,6,-2,-3,0,0,2,2021-08-05 17:23:56,817729
0,-10,-11,-2,2,1,2,2,2021-08-05 17:23:56,824730
-2,4,-2,-2,0,-1,-1,-2,2021-08-05 17:23:56,839730
-3,-1,0,0,1,1,0,-2,2021-08-05 17:23:56,854729
-1,2,2,0,1,-2,0,-2,2021-08-05 17:23:56,854729
-1,-8,-2,1,0,0,2,2,2021-08-05 17:23:56,854729
1,4,4,1,1,1,2,0,2021-08-05 17:23:56,854729
-4,-9,-5,-5,-3,-5,-3,-1,2021-08-05 17:23:56,870729
-2,4,0,0,-1,-3,-2,-3,2021-08-05 17:23:56,870729
2,-2,3,0,-1,2,2,4,2021-08-05 17:23:56,870729
2,4,0,2,3,3,2,0,2021-08-05 17:23:56,870729
1,-3,0,1,-2,0,0,0,2021-08-05 17:23:56,886844
2,6,2,-1,-1,1,0,-1,2021-08-05 17:23:56,886844
-2,-5,-1,-3,-5,-3,-4,-4,2021-08-05 17:23:56,886844
2,-1,-2,4,0,-3,0,1,2021-08-05 17:23:56,886844
0,3,0,-1,1,1,-1,-1,2021-08-05 17:23:56,901477
-7,-3,-2,-5,5,9,-4,-8,2021-08-05 17:23:56,901734
-4,-8,-3,-4,-4,-8,-8,-4,2021-08-05 17:23:56,901734
1,1,-2,1,-13,-15,5,5,2021-08-05 17:23:56,901734
-2,-4,2,-2,10,0,-1,-1,2021-08-05 17:23:56,931857
5,6,6,4,4,17,4,10,2021-08-05 17:23:56,947729
-8,-9,-8,-4,-5,-9,-10,-8,2021-08-05 17:23:56,963729
-5,-3,-5,-2,0,-3,-8,-10,2021-08-05 17:23:56,963925
4,-3,-1,0,-2,-6,4,6,2021-08-05 17:23:56,963925
3,0,2,2,-7,-11,4,3,2021-08-05 17:23:56,963925
0,0,2,1,4,14,4,1,2021-08-05 17:23:56,963925
-2,-1,-3,-3,3,-2,-2,0,2021-08-05 17:23:56,963925
-2,-3,1,0,-7,-3,-2,-4,2021-08-05 17:23:56,964732
-1,0,-4,-2,4,0,-1,-2,2021-08-05 17:23:56,964732
2,-2,0,1,-4,-4,0,2,2021-08-05 17:23:56,964732
-1,2,-1,0,-1,0,1,-2,2021-08-05 17:23:56,964732
-1,-1,-3,-4,-2,6,0,0,2021-08-05 17:23:56,994861
-4,-1,-3,-2,0,-1,-7,-8,2021-08-05 17:23:56,994861
1,2,2,-2,-4,-8,4,0,2021-08-05 17:23:57,009809
-3,0,-1,3,9,22,-8,-4,2021-08-05 17:23:57,025875
-2,-3,-6,-9,-8,-15,-1,2,2021-08-05 17:23:57,025875
4,1,2,0,-2,4,6,10,2021-08-05 17:23:57,025875
-3,-3,-2,2,-6,1,-4,-7,2021-08-05 17:23:57,025875
1,3,2,1,2,3,-5,-3,2021-08-05 17:23:57,025875
-3,-2,-2,-1,3,-7,0,-6,2021-08-05 17:23:57,025875
1,1,0,-2,-3,-6,0,1,2021-08-05 17:23:57,026486
-2,-3,-4,-3,-1,2,-3,2,2021-08-05 17:23:57,026486
-1,-1,-1,-1,0,2,1,2,2021-08-05 17:23:57,026630
-3,-3,-3,-2,-4,-5,-6,-3,2021-08-05 17:23:57,041636
0,0,2,1,-4,-12,3,-1,2021-08-05 17:23:57,041636
-1,-1,-3,0,12,23,-3,-2,2021-08-05 17:23:57,041636
1,-1,0,-1,-4,-8,-2,1,2021-08-05 17:23:57,057693
-2,2,0,1,1,11,-4,-4,2021-08-05 17:23:57,072727
2,1,0,2,-2,1,3,3,2021-08-05 17:23:57,072727
-6,-2,-2,-3,-11,-16,-5,-9,2021-08-05 17:23:57,072727
-1,1,3,0,10,-5,-4,-4,2021-08-05 17:23:57,073102
-4,-3,-5,-1,6,9,1,-2,2021-08-05 17:23:57,073186
-3,-2,-5,-4,-3,-4,-3,-2,2021-08-05 17:23:57,073215
2,0,3,2,1,1,2,2,2021-08-05 17:23:57,087636
0,-3,-2,-4,-7,0,2,2,2021-08-05 17:23:57,087636
0,0,0,2,-3,-1,1,0,2021-08-05 17:23:57,102777
-3,-4,-3,-2,4,-4,-6,-9,2021-08-05 17:23:57,102984
0,-2,-4,-4,-6,-10,5,9,2021-08-05 17:23:57,103050
0,-1,-1,-1,2,-6,2,3,2021-08-05 17:23:57,103162
1,-3,0,3,-1,16,8,0,2021-08-05 17:23:57,134412
-1,-1,0,6,-28,1,-8,-2,2021-08-05 17:23:57,134563
-2,1,2,-3,32,-13,-3,-9,2021-08-05 17:23:57,134682
-1,0,0,6,-9,-3,-4,-2,2021-08-05 17:23:57,134778
-1,2,2,-17,-17,3,-3,2,2021-08-05 17:23:57,134858
0,-1,-2,2,33,3,4,3,2021-08-05 17:23:57,134858
2,1,2,4,-37,-13,0,3,2021-08-05 17:23:57,150275
-2,-3,-9,-14,22,13,6,4,2021-08-05 17:23:57,151330
0,1,0,5,15,-3,-6,-2,2021-08-05 17:23:57,164364
-1,-1,0,2,-8,-3,9,-1,2021-08-05 17:23:57,179581
-1,-2,-4,-6,-9,2,-1,2,2021-08-05 17:23:57,195431
0,-1,-2,7,-4,-1,-1,0,2021-08-05 17:23:57,195431
0,-1,1,-4,-8,-4,3,2,2021-08-05 17:23:57,195431
0,0,-1,-3,9,2,-2,1,2021-08-05 17:23:57,195431
0,2,1,3,8,3,2,0,2021-08-05 17:23:57,195431
-1,1,2,3,-16,-9,-2,1,2021-08-05 17:23:57,195431
-2,-1,-1,2,-14,-6,-7,-9,2021-08-05 17:23:57,195431
-4,-2,-1,-5,24,10,-8,-7,2021-08-05 17:23:57,195431
1,-1,3,1,1,8,1,0,2021-08-05 17:23:57,211319
-1,-1,-1,-6,-6,-10,2,1,2021-08-05 17:23:57,211319
1,-3,-1,3,6,-3,2,8,2021-08-05 17:23:57,227276
-3,-4,0,-2,-10,0,-1,0,2021-08-05 17:23:57,243307
1,0,0,0,-7,-3,2,2,2021-08-05 17:23:57,259498
1,3,3,8,-7,-5,7,5,2021-08-05 17:23:57,259616
-7,-5,-8,-13,12,-1,-9,-10,2021-08-05 17:23:57,259713
0,2,0,2,-5,8,1,2,2021-08-05 17:23:57,259789
1,0,0,3,12,-6,2,3,2021-08-05 17:23:57,259789
-5,-1,-2,-3,-11,9,-8,-12,2021-08-05 17:23:57,259789
0,1,1,4,-8,1,0,4,2021-08-05 17:23:57,259789
-2,-2,0,-5,-27,-13,-1,-3,2021-08-05 17:23:57,259789
-1,-2,-4,-2,24,10,-1,-1,2021-08-05 17:23:57,274308
1,0,2,16,-18,-4,-1,1,2021-08-05 17:23:57,274308
0,-1,-3,-12,10,-3,3,2,2021-08-05 17:23:57,306400
0,-2,-5,-1,-7,-5,-5,-3,2021-08-05 17:23:57,322405
0,0,-1,-1,-4,6,2,-1,2021-08-05 17:23:57,322405
-2,-3,-1,-6,-6,-1,-1,-2,2021-08-05 17:23:57,322405
1,3,2,2,-10,-21,-4,1,2021-08-05 17:23:57,322405
-4,1,-2,-1,9,11,-4,-8,2021-08-05 17:23:57,322405
2,1,1,5,-19,-1,0,2,2021-08-05 17:23:57,322405
-8,-4,-9,-23,29,1,3,-13,2021-08-05 17:23:57,322405
1,0,1,4,-20,-15,-10,-2,2021-08-05 17:23:57,322405
1,0,0,-3,-5,-5,1,2,2021-08-05 17:23:57,323277
-3,-2,0,0,-17,-7,-5,-6,2021-08-05 17:23:57,337547
1,-4,-3,-4,40,17,1,1,2021-08-05 17:23:57,337662
1,-1,4,9,-6,-2,6,3,2021-08-05 17:23:57,337799
-3,-3,-4,-9,12,-2,-4,-6,2021-08-05 17:23:57,337827
0,-2,-1,-4,-18,-3,-1,3,2021-08-05 17:23:57,337827
2,3,3,4,-20,4,4,8,2021-08-05 17:23:57,337827
-1,-1,-3,1,30,13,-1,-5,2021-08-05 17:23:57,367386
-1,0,-2,2,-9,-1,-6,-3,2021-08-05 17:23:57,382454
1,0,0,-8,-3,-9,0,3,2021-08-05 17:23:57,398487
-3,-3,-3,1,-4,-13,-4,-3,2021-08-05 17:23:57,398631
-2,-4,1,5,-7,10,0,-4,2021-08-05 17:23:57,398797
-1,-1,2,-1,0,-16,-2,0,2021-08-05 17:23:57,398904
-2,-1,-1,5,19,27,5,4,2021-08-05 17:23:57,399037
-1,-1,0,-1,-10,-4,-5,-5,2021-08-05 17:23:57,399101
2,1,1,-3,-9,-2,5,7,2021-08-05 17:23:57,399195
2,-1,1,9,5,6,0,-2,2021-08-05 17:23:57,399261
1,-1,-1,1,-8,-9,1,-1,2021-08-05 17:23:57,399313
-3,-3,-5,-13,1,-5,-4,-4,2021-08-05 17:23:57,399360
3,0,2,14,-14,-8,12,10,2021-08-05 17:23:57,430527
0,-1,-3,-16,2,-11,3,-2,2021-08-05 17:23:57,445192
-2,-1,0,2,8,3,-4,-5,2021-08-05 17:23:57,445362
3,3,3,-2,-4,5,7,6,2021-08-05 17:23:57,445400
-5,-1,-3,0,1,-6,-9,-11,2021-08-05 17:23:57,445400
-2,-1,-1,2,-26,-8,-3,0,2021-08-05 17:23:57,445400
0,-2,-2,0,25,6,0,-1,2021-08-05 17:23:57,445400
3,-2,0,2,-8,-4,-1,-1,2021-08-05 17:23:57,445928
-1,-1,-1,-2,3,1,-4,-4,2021-08-05 17:23:57,460360
-1,-1,-1,0,4,6,4,8,2021-08-05 17:23:57,475527
-3,-1,-2,-16,-13,-3,-1,0,2021-08-05 17:23:57,484359
-1,-1,-3,8,9,3,-1,1,2021-08-05 17:23:57,484359
-1,-2,-3,-7,-12,0,0,-1,2021-08-05 17:23:57,485361
-2,-1,-1,-9,26,6,3,3,2021-08-05 17:23:57,485361
