EMG 1,EMG 2,EMG 3,EMG 4,EMG 5,EMG 6,EMG 7,EMG 8,Timestamp,Milliseconds
-5,-104,-47,-6,-4,-1,0,-4,2021-08-05 17:24:05,444276
0,33,3,-9,-1,-5,-6,-5,2021-08-05 17:24:05,444276
-3,8,-5,-5,-9,-8,-4,-1,2021-08-05 17:24:05,460287
5,119,51,2,9,2,-2,-1,2021-08-05 17:24:05,460287
-4,-82,-10,-3,-3,-7,-4,-2,2021-08-05 17:24:05,460287
11,-17,-39,2,7,8,7,8,2021-08-05 17:24:05,460287
-7,15,26,-2,-9,-6,-7,-4,2021-08-05 17:24:05,460287
0,-19,-33,-1,0,2,0,1,2021-08-05 17:24:05,460287
-3,24,15,7,-2,-6,-4,-2,2021-08-05 17:24:05,460287
-9,23,11,-13,-4,-1,-3,-4,2021-08-05 17:24:05,460287
7,-62,-26,-8,-6,4,3,3,2021-08-05 17:24:05,460287
2,19,23,16,13,2,1,0,2021-08-05 17:24:05,460905
4,-12,-4,0,1,2,-1,0,2021-08-05 17:24:05,491223
-2,-11,-1,5,0,-1,-1,-1,2021-08-05 17:24:05,491223
-3,40,9,-8,-10,-3,-5,-5,2021-08-05 17:24:05,491588
-6,-49,-9,-12,-10,-6,-3,-3,2021-08-05 17:24:05,491605
2,39,13,3,8,3,4,3,2021-08-05 17:24:05,491673
-6,-37,-24,-4,-9,-4,-2,-4,2021-08-05 17:24:05,491790
5,-12,-3,8,13,8,10,13,2021-08-05 17:24:05,522474
0,-26,-4,-3,-10,-5,2,-1,2021-08-05 17:24:05,522474
-5,-19,-15,2,3,-6,-3,-4,2021-08-05 17:24:05,555354
1,6,-2,-6,-6,-9,-8,-6,2021-08-05 17:24:05,555354
2,4,-3,-4,-7,-5,-5,-4,2021-08-05 17:24:05,555354
3,27,6,-2,-6,-3,-4,0,2021-08-05 17:24:05,556357
1,-3,9,5,4,6,2,5,2021-08-05 17:24:05,556357
-3,-22,-8,0,2,2,3,1,2021-08-05 17:24:05,556357
2,-23,-1,-3,3,0,2,3,2021-08-05 17:24:05,556616
4,45,4,5,5,2,1,0,2021-08-05 17:24:05,556759
-7,-42,-17,-5,-5,-2,-1,-1,2021-08-05 17:24:05,568438
0,25,2,2,-3,-3,-3,-3,2021-08-05 17:24:05,568438
-3,-30,-4,-10,-11,-6,-7,-10,2021-08-05 17:24:05,583408
-22,-7,-4,3,6,3,1,1,2021-08-05 17:24:05,583408
9,55,30,0,-1,-3,-2,-1,2021-08-05 17:24:05,583408
0,-21,-6,2,4,3,2,3,2021-08-05 17:24:05,583408
6,38,-17,2,1,-1,1,2,2021-08-05 17:24:05,599356
-2,-58,9,-7,-11,-9,-5,-9,2021-08-05 17:24:05,599356
-3,-2,-26,0,-1,1,0,2,2021-08-05 17:24:05,599573
-2,12,11,-6,-4,0,-3,-3,2021-08-05 17:24:05,599648
2,22,17,4,3,4,4,5,2021-08-05 17:24:05,630408
2,-1,-1,5,3,4,0,-1,2021-08-05 17:24:05,646412
-1,-13,-5,-6,-5,0,0,-3,2021-08-05 17:24:05,646578
0,-14,-8,0,1,-5,-3,-3,2021-08-05 17:24:05,646578
-5,18,14,-3,-6,-1,-4,-4,2021-08-05 17:24:05,646578
-5,-13,-20,-11,-8,-7,-6,-3,2021-08-05 17:24:05,646578
7,32,23,7,7,6,5,2,2021-08-05 17:24:05,646578
-2,-24,-10,-4,-5,-2,0,2,2021-08-05 17:24:05,646578
-6,-20,-15,1,4,2,3,1,2021-08-05 17:24:05,678546
5,77,11,-1,-3,-2,-1,-2,2021-08-05 17:24:05,678680
-6,-70,1,1,-3,-3,-2,-3,2021-08-05 17:24:05,678680
1,-28,-20,-2,1,3,4,3,2021-08-05 17:24:05,678680
-5,13,1,-6,-3,-6,-3,-5,2021-08-05 17:24:05,694407
3,-9,-11,-5,-3,-2,-3,-2,2021-08-05 17:24:05,710467
0,51,5,-3,-1,-2,1,1,2021-08-05 17:24:05,725802
3,56,26,3,-1,-1,-1,-3,2021-08-05 17:24:05,741765
-4,-90,-24,10,11,7,5,4,2021-08-05 17:24:05,773844
-3,6,-13,-4,-3,-2,-1,-2,2021-08-05 17:24:05,773844
-1,25,14,0,-4,-3,-4,-4,2021-08-05 17:24:05,773844
-6,-32,1,-2,-5,-6,-5,-7,2021-08-05 17:24:05,773844
26,48,16,6,8,8,6,12,2021-08-05 17:24:05,773844
-13,-21,12,5,1,0,1,0,2021-08-05 17:24:05,773844
-2,-26,-28,1,3,3,2,0,2021-08-05 17:24:05,774769
-6,-17,-16,-11,-8,-5,-4,-5,2021-08-05 17:24:05,774769
-2,57,24,1,0,-3,-3,-5,2021-08-05 17:24:05,789815
6,-28,-4,-1,-2,-4,-2,0,2021-08-05 17:24:05,789815
-1,-25,6,1,0,0,-1,-2,2021-08-05 17:24:05,789815
0,2,5,5,7,5,3,6,2021-08-05 17:24:05,789815
-7,0,-4,-8,-10,-7,-7,-8,2021-08-05 17:24:05,789815
3,-19,-21,-5,0,1,0,3,2021-08-05 17:24:05,789815
-1,41,5,-5,-4,-5,-5,-2,2021-08-05 17:24:05,789815
0,-10,6,6,0,1,-1,-1,2021-08-05 17:24:05,790690
-2,4,11,5,7,1,0,2,2021-08-05 17:24:05,790768
0,-20,-8,-4,-3,-5,-2,-5,2021-08-05 17:24:05,790768
-1,9,1,-5,-4,-2,-1,0,2021-08-05 17:24:05,790768
6,-16,-17,7,10,8,7,5,2021-08-05 17:24:05,790768
-11,-19,13,-6,-12,-5,-7,-6,2021-08-05 17:24:05,820939
4,26,-15,2,6,5,3,2,2021-08-05 17:24:05,836836
0,-38,-16,-3,-7,-6,-5,-3,2021-08-05 17:24:05,851852
0,32,21,-4,-6,-4,-5,-2,2021-08-05 17:24:05,851998
-1,-6,-8,1,-1,-3,-2,-4,2021-08-05 17:24:05,851998
-3,-20,7,-3,-5,-3,-3,-1,2021-08-05 17:24:05,851998
1,35,11,-1,0,0,1,-1,2021-08-05 17:24:05,851998
9,-14,-26,4,8,6,4,4,2021-08-05 17:24:05,851998
-3,-4,-1,-6,-9,-7,-4,-8,2021-08-05 17:24:05,851998
-11,4,12,0,-3,-3,-2,-4,2021-08-05 17:24:05,851998
2,-18,-15,6,8,5,4,4,2021-08-05 17:24:05,851998
-7,-8,-8,-8,-4,-5,-3,-6,2021-08-05 17:24:05,851998
3,4,-13,-9,-7,-5,-3,-2,2021-08-05 17:24:05,866766
5,37,36,2,-1,1,0,-2,2021-08-05 17:24:05,867806
-4,-24,-2,1,0,2,1,-1,2021-08-05 17:24:05,867806
-3,-31,-32,-6,-2,-2,-1,-4,2021-08-05 17:24:05,868955
-10,-13,-7,-4,2,1,0,3,2021-08-05 17:24:05,882977
-2,-1,12,5,2,-1,0,-2,2021-08-05 17:24:05,883098
-1,57,26,0,-1,-3,-2,-3,2021-08-05 17:24:05,883228
0,-37,1,2,3,3,2,2,2021-08-05 17:24:05,883228
0,33,-13,-1,-3,-4,0,-3,2021-08-05 17:24:05,914935
5,-50,3,3,4,3,2,4,2021-08-05 17:24:05,930906
-1,-8,-8,-4,-1,-1,-1,-2,2021-08-05 17:24:05,945907
-2,17,-4,-8,-11,-8,-7,-5,2021-08-05 17:24:05,945907
-7,-15,2,1,2,2,0,-2,2021-08-05 17:24:05,945907
2,41,3,-2,-2,0,0,3,2021-08-05 17:24:05,945907
-2,-22,-9,-4,-4,-1,-3,-1,2021-08-05 17:24:05,945907
1,54,30,5,1,0,1,1,2021-08-05 17:24:05,945907
3,-38,-12,-1,1,1,0,2,2021-08-05 17:24:05,945907
2,19,2,0,-3,-3,0,0,2021-08-05 17:24:05,945907
-4,-45,-6,-1,-1,-1,0,0,2021-08-05 17:24:05,945907
1,9,-5,4,3,2,3,3,2021-08-05 17:24:05,946907
3,19,-16,-4,-5,-4,-3,-5,2021-08-05 17:24:05,976854
0,-21,9,-2,0,1,1,2,2021-08-05 17:24:05,991921
-10,36,-12,-6,-4,-4,-6,-4,2021-08-05 17:24:05,991921
1,-27,14,-2,0,-1,-2,-1,2021-08-05 17:24:05,991921
-1,-5,0,3,3,2,1,2,2021-08-05 17:24:06,007100
4,21,8,-1,-4,-4,-4,-3,2021-08-05 17:24:06,022995
10,7,2,12,8,6,7,8,2021-08-05 17:24:06,038081
-6,-13,-10,-4,-1,0,0,-3,2021-08-05 17:24:06,053127
-3,-21,-23,-11,-5,-3,-3,-2,2021-08-05 17:24:06,069091
-2,33,-1,3,4,0,-2,-3,2021-08-05 17:24:06,069091
3,-22,9,-3,-2,-1,-2,1,2021-08-05 17:24:06,069091
2,103,22,4,0,0,2,0,2021-08-05 17:24:06,069091
-4,-97,17,4,-2,-3,-1,-1,2021-08-05 17:24:06,069091
-2,-17,-51,-2,6,4,5,1,2021-08-05 17:24:06,069091
-1,37,9,-9,-9,-8,-6,-9,2021-08-05 17:24:06,069091
-4,-23,-10,-6,-7,-6,-6,-6,2021-08-05 17:24:06,070033
4,16,8,7,4,4,2,3,2021-08-05 17:24:06,070033
-7,-5,-3,0,1,3,1,3,2021-08-05 17:24:06,070033
4,6,5,5,3,2,3,1,2021-08-05 17:24:06,070033
-14,-59,-17,-9,-8,-5,-4,-6,2021-08-05 17:24:06,070033
-4,80,4,-7,-8,-7,-6,-8,2021-08-05 17:24:06,070033
7,-54,0,4,2,3,0,3,2021-08-05 17:24:06,070033
1,30,-5,-3,3,1,0,-1,2021-08-05 17:24:06,070033
7,40,21,3,0,2,0,3,2021-08-05 17:24:06,070033
-1,-47,-7,3,1,1,1,2,2021-08-05 17:24:06,100098
-10,29,-16,-5,-3,-5,-1,-3,2021-08-05 17:24:06,100180
3,-30,14,0,-2,0,1,0,2021-08-05 17:24:06,100180
-4,0,0,-2,-2,-3,-2,-1,2021-08-05 17:24:06,100180
8,11,-7,9,9,7,6,6,2021-08-05 17:24:06,116116
-1,-4,2,-10,-11,-9,-7,-8,2021-08-05 17:24:06,132047
-3,-15,-12,-1,3,1,1,2,2021-08-05 17:24:06,132047
4,-13,-7,5,2,1,2,1,2021-08-05 17:24:06,132047
-2,46,14,-6,-5,-4,-3,-3,2021-08-05 17:24:06,132047
2,-38,-2,1,1,1,1,2,2021-08-05 17:24:06,132047
-4,22,12,0,0,-1,-1,-2,2021-08-05 17:24:06,132047
3,12,-12,-2,-1,-1,-3,-1,2021-08-05 17:24:06,132047
-5,-9,-8,-4,-1,-1,-1,-2,2021-08-05 17:24:06,147100
-6,-18,-2,-5,-4,-4,-4,-6,2021-08-05 17:24:06,147100
-2,-24,-1,-6,-5,-5,-4,-1,2021-08-05 17:24:06,147100
1,34,21,6,2,2,2,2,2021-08-05 17:24:06,147100
3,-24,-24,4,7,6,6,8,2021-08-05 17:24:06,177202
5,7,12,0,-2,-2,1,-1,2021-08-05 17:24:06,177369
1,88,22,4,-1,-3,-5,-3,2021-08-05 17:24:06,177500
-8,-78,-16,-5,-2,0,0,-1,2021-08-05 17:24:06,177500
6,-16,-24,-7,-1,0,0,-2,2021-08-05 17:24:06,177631
-16,3,12,1,0,1,-1,0,2021-08-05 17:24:06,177631
3,19,-3,-2,-4,-1,0,-3,2021-08-05 17:24:06,193140
1,-1,11,7,5,4,4,3,2021-08-05 17:24:06,193306
-3,-16,-3,0,-1,0,1,-5,2021-08-05 17:24:06,225095
1,-2,-18,-11,-6,-2,-4,-8,2021-08-05 17:24:06,225095
5,36,8,3,3,0,0,0,2021-08-05 17:24:06,225095
1,-49,5,-5,-5,-8,-6,-5,2021-08-05 17:24:06,225095
7,8,-16,5,1,1,0,5,2021-08-05 17:24:06,225095
-2,0,2,-1,-3,-3,-3,0,2021-08-05 17:24:06,225095
-6,-10,1,-1,-4,-2,-1,-2,2021-08-05 17:24:06,256137
1,32,6,-2,-3,-1,-1,-2,2021-08-05 17:24:06,271061
-4,-14,3,2,2,2,2,2,2021-08-05 17:24:06,287070
2,-4,-2,3,3,1,1,1,2021-08-05 17:24:06,287070
-1,-44,-29,-7,1,0,0,0,2021-08-05 17:24:06,301995
2,23,15,5,4,4,1,1,2021-08-05 17:24:06,317050
-5,25,17,-3,-6,-6,-5,-4,2021-08-05 17:24:06,317190
5,14,-13,-2,0,1,-1,-1,2021-08-05 17:24:06,317190
1,-31,1,4,1,2,1,3,2021-08-05 17:24:06,317190
-3,6,-8,-1,1,-2,-2,-4,2021-08-05 17:24:06,317190
-13,37,19,-1,0,-2,-1,-2,2021-08-05 17:24:06,317190
0,-93,-6,1,-1,-2,-1,-1,2021-08-05 17:24:06,317190
-2,12,-29,-12,-6,-3,-2,-3,2021-08-05 17:24:06,317190
1,23,10,-5,-2,-2,-2,-2,2021-08-05 17:24:06,317190
-1,21,18,2,0,-1,-4,-4,2021-08-05 17:24:06,317997
8,41,20,8,8,3,4,5,2021-08-05 17:24:06,317997
-5,-52,-40,-3,-4,-3,-2,-3,2021-08-05 17:24:06,317997
-13,-37,1,-4,-5,-3,-5,-7,2021-08-05 17:24:06,317997
1,15,0,-2,-3,0,-1,-1,2021-08-05 17:24:06,332993
0,12,-6,-2,0,2,0,-1,2021-08-05 17:24:06,349112
0,-9,4,3,2,0,-1,-1,2021-08-05 17:24:06,364997
0,15,-3,-1,-2,-1,-1,1,2021-08-05 17:24:06,364997
1,-28,-6,4,6,4,2,3,2021-08-05 17:24:06,364997
2,49,27,2,-1,0,0,-1,2021-08-05 17:24:06,364997
-7,-54,-8,-2,0,0,0,0,2021-08-05 17:24:06,364997
-2,-2,-19,-3,-1,0,-1,-3,2021-08-05 17:24:06,365715
-2,6,-1,-8,-7,-7,-7,-7,2021-08-05 17:24:06,365715
5,-6,-2,1,-1,-2,0,1,2021-08-05 17:24:06,365715
1,11,-10,-3,-1,-2,-2,-2,2021-08-05 17:24:06,366021
3,22,21,-1,2,3,2,4,2021-08-05 17:24:06,366021
11,4,-9,3,6,1,2,1,2021-08-05 17:24:06,396020
-20,8,2,-4,-4,-3,-1,-2,2021-08-05 17:24:06,412134
-8,-46,-5,4,-2,-3,0,-5,2021-08-05 17:24:06,427097
4,26,-2,-2,2,0,0,3,2021-08-05 17:24:06,427097
0,-17,-1,-4,-5,-4,-2,-2,2021-08-05 17:24:06,427097
4,36,16,1,-1,-4,-4,-3,2021-08-05 17:24:06,427097
-1,-2,10,5,1,2,1,1,2021-08-05 17:24:06,427097
-1,14,-9,3,1,0,0,-1,2021-08-05 17:24:06,427097
-1,-19,-13,-2,0,1,1,2,2021-08-05 17:24:06,427097
0,-33,-14,-1,-2,-3,0,-2,2021-08-05 17:24:06,427097
-7,-20,-8,-6,-2,-6,-5,-3,2021-08-05 17:24:06,427097
-1,47,26,-4,-8,-8,-7,-6,2021-08-05 17:24:06,427097
-1,-6,11,6,6,6,3,3,2021-08-05 17:24:06,458123
5,-14,-39,-1,1,2,0,1,2021-08-05 17:24:06,474031
3,38,20,-1,0,1,-3,3,2021-08-05 17:24:06,490183
-1,-27,-9,-5,-3,-5,-2,-3,2021-08-05 17:24:06,503997
-5,19,18,1,-2,-2,-1,-1,2021-08-05 17:24:06,503997
-1,-22,-4,1,3,2,0,1,2021-08-05 17:24:06,503997
1,32,1,-1,0,-1,-1,-2,2021-08-05 17:24:06,503997
-3,-43,4,2,-2,-1,1,0,2021-08-05 17:24:06,503997
-4,-1,1,0,-1,2,1,-2,2021-08-05 17:24:06,505021
0,17,-21,-3,-4,-3,-2,-3,2021-08-05 17:24:06,505021
1,-18,10,-3,-1,-2,-2,-2,2021-08-05 17:24:06,505021
4,-17,1,3,-1,-1,-4,0,2021-08-05 17:24:06,505021
-7,4,-16,-3,1,0,0,0,2021-08-05 17:24:06,505021
-12,-23,0,0,0,2,-1,-1,2021-08-05 17:24:06,505021
-3,12,6,-4,-5,-3,-2,-3,2021-08-05 17:24:06,505021
5,47,-16,4,9,7,5,6,2021-08-05 17:24:06,505021
0,-62,1,-3,-7,-6,-4,-5,2021-08-05 17:24:06,537084
4,31,6,1,2,0,1,1,2021-08-05 17:24:06,537341
-1,25,3,-3,-2,0,0,0,2021-08-05 17:24:06,537341
0,-47,-2,2,1,0,1,0,2021-08-05 17:24:06,537341
0,8,-3,-4,-2,-1,0,1,2021-08-05 17:24:06,551995
-5,-1,9,-1,-4,-4,-2,-3,2021-08-05 17:24:06,567102
2,-8,-4,2,1,-1,0,0,2021-08-05 17:24:06,583135
5,47,5,5,4,5,3,5,2021-08-05 17:24:06,583331
0,-49,-6,-4,-1,-1,-2,1,2021-08-05 17:24:06,583522
-1,34,20,0,-1,-2,-2,-2,2021-08-05 17:24:06,583522
-6,-89,-35,-2,-3,-3,-2,-5,2021-08-05 17:24:06,583522
-4,14,-27,-7,-3,-1,-3,-3,2021-08-05 17:24:06,583522
-2,34,25,1,-4,-5,-5,-5,2021-08-05 17:24:06,583963
4,9,3,-1,0,1,-2,0,2021-08-05 17:24:06,583997
0,23,4,1,-1,2,0,-2,2021-08-05 17:24:06,583997
-3,-20,16,5,1,1,0,-1,2021-08-05 17:24:06,583997
4,-3,-18,-2,-1,1,1,3,2021-08-05 17:24:06,628270
0,-8,-31,-6,0,1,0,-1,2021-08-05 17:24:06,644068
-1,18,25,1,-2,-1,-4,-3,2021-08-05 17:24:06,644068
-10,-58,-14,-4,-1,-1,-4,-7,2021-08-05 17:24:06,644068
1,25,14,3,1,1,-1,2,2021-08-05 17:24:06,644428
4,26,14,4,2,1,1,2,2021-08-05 17:24:06,644428
-3,-12,-12,1,1,2,3,1,2021-08-05 17:24:06,644428
3,26,6,-5,-7,-4,-1,-1,2021-08-05 17:24:06,644428
-4,-55,-14,1,1,-1,2,-1,2021-08-05 17:24:06,644428
-4,62,11,-4,-7,-4,-2,-3,2021-08-05 17:24:06,644808
-1,-56,-14,-5,-4,-3,-2,-2,2021-08-05 17:24:06,676150
1,12,-7,3,5,3,2,2,2021-08-05 17:24:06,692002
7,84,31,7,2,1,0,-1,2021-08-05 17:24:06,707039
-2,-122,-34,-3,-3,-3,-3,-4,2021-08-05 17:24:06,723021
-6,40,0,-6,-2,-2,1,1,2021-08-05 17:24:06,755037
-5,-5,11,-5,-2,-1,-1,0,2021-08-05 17:24:06,771111
-1,18,-23,-2,-1,1,-3,-3,2021-08-05 17:24:06,785883
5,10,21,3,1,3,1,3,2021-08-05 17:24:06,801095
-1,-12,-1,0,-5,-2,-3,-3,2021-08-05 17:24:06,801240
3,3,5,6,4,2,3,3,2021-08-05 17:24:06,801240
-6,-6,-7,-3,-2,-1,0,-1,2021-08-05 17:24:06,801240
-5,1,9,-1,-4,-4,-2,-4,2021-08-05 17:24:06,801240
-1,7,-14,1,1,-1,-2,0,2021-08-05 17:24:06,801240
-6,-32,-8,-9,-7,-5,-5,-5,2021-08-05 17:24:06,801240
0,-2,-2,-2,-2,0,-1,0,2021-08-05 17:24:06,801240
1,12,-3,-3,-1,0,-1,0,2021-08-05 17:24:06,801240
-1,3,10,-1,-1,-2,-1,-2,2021-08-05 17:24:06,801995
7,32,12,9,5,2,3,6,2021-08-05 17:24:06,801995
1,17,5,-1,-1,-4,-3,-4,2021-08-05 17:24:06,801995
-4,-19,5,1,2,2,0,1,2021-08-05 17:24:06,801995
3,-43,-11,5,3,4,5,3,2021-08-05 17:24:06,801995
-6,-13,-28,-12,-13,-9,-10,-10,2021-08-05 17:24:06,801995
-4,5,-6,-3,-4,-4,-4,-3,2021-08-05 17:24:06,801995
4,19,18,1,3,2,0,2,2021-08-05 17:24:06,801995
4,53,14,5,4,3,2,1,2021-08-05 17:24:06,801995
-7,-61,-29,-2,1,-1,-1,-2,2021-08-05 17:24:06,802996
-3,1,11,-4,-4,-3,-2,-4,2021-08-05 17:24:06,802996
0,40,9,1,-1,-2,-3,-1,2021-08-05 17:24:06,802996
0,-10,-5,2,2,2,0,-2,2021-08-05 17:24:06,802996
6,4,26,8,4,6,6,9,2021-08-05 17:24:06,802996
0,-16,-13,-1,-1,1,2,2,2021-08-05 17:24:06,815994
1,-40,-33,2,5,1,2,1,2021-08-05 17:24:06,820027
-4,21,1,-12,-11,-9,-8,-7,2021-08-05 17:24:06,820027
1,22,8,-4,-4,-4,-2,-3,2021-08-05 17:24:06,820997
0,14,10,4,4,4,4,2,2021-08-05 17:24:06,831095
0,-35,-3,4,3,3,4,3,2021-08-05 17:24:06,831095
0,2,-1,-1,0,0,-1,1,2021-08-05 17:24:06,847077
-4,9,-2,-4,-3,-4,-3,-4,2021-08-05 17:24:06,847217
-2,0,11,-4,-5,-4,-4,-3,2021-08-05 17:24:06,847262
-3,-11,-21,0,3,1,1,-1,2021-08-05 17:24:06,847262
-1,17,8,-3,-4,-2,-3,-1,2021-08-05 17:24:06,847262
-7,-31,-5,-5,-5,-4,-3,-7,2021-08-05 17:24:06,847262
1,1,-1,3,2,1,1,1,2021-08-05 17:24:06,879161
3,29,5,1,-1,1,0,0,2021-08-05 17:24:06,895079
-5,-50,-9,-1,0,-1,-1,-1,2021-08-05 17:24:06,911181
0,31,-6,-2,-2,-2,-3,-2,2021-08-05 17:24:06,911236
-4,-21,0,-5,-7,-7,-4,-4,2021-08-05 17:24:06,911309
-1,14,-3,-4,-2,1,-1,-1,2021-08-05 17:24:06,911309
0,-3,11,5,0,1,2,2,2021-08-05 17:24:06,911309
1,2,1,6,7,7,5,4,2021-08-05 17:24:06,911309
-6,-5,-7,-5,-3,-3,-6,-9,2021-08-05 17:24:06,911309
1,5,12,-2,-3,-3,-2,0,2021-08-05 17:24:06,911309
4,22,13,5,3,0,-3,0,2021-08-05 17:24:06,912021
2,-21,-16,-5,-5,-5,-2,0,2021-08-05 17:24:06,912021
4,-27,-24,-2,-1,-2,0,3,2021-08-05 17:24:06,942131
0,20,18,-1,-1,-2,-3,-3,2021-08-05 17:24:06,957047
-4,-17,5,-1,2,3,2,3,2021-08-05 17:24:06,957047
-2,-25,-25,5,5,7,4,3,2021-08-05 17:24:06,957047
-1,35,21,-6,-8,-6,-7,-5,2021-08-05 17:24:06,957047
-1,-27,-19,-5,-5,-3,-3,-3,2021-08-05 17:24:06,957047
1,22,7,2,3,1,2,0,2021-08-05 17:24:06,957047
2,48,20,-3,-2,-1,-2,0,2021-08-05 17:24:06,957047
-2,-56,-14,1,3,2,4,4,2021-08-05 17:24:06,973093
-6,-36,-8,0,0,-1,0,-3,2021-08-05 17:24:06,988146
-1,6,-6,-6,-5,-5,-5,-6,2021-08-05 17:24:07,003133
3,-2,-7,-1,-3,-1,0,1,2021-08-05 17:24:07,003133
3,13,-1,4,6,5,2,3,2021-08-05 17:24:07,003133
0,7,18,-1,0,-2,-3,0,2021-08-05 17:24:07,003133
0,20,-3,3,2,2,4,2,2021-08-05 17:24:07,003133
1,-23,3,-1,0,1,-2,0,2021-08-05 17:24:07,003133
4,18,1,-4,-3,-1,0,0,2021-08-05 17:24:07,003133
-9,-54,-24,-3,-2,0,2,0,2021-08-05 17:24:07,003133
3,49,10,-3,-5,-3,-5,-4,2021-08-05 17:24:07,019208
-1,-29,0,3,5,3,0,-1,2021-08-05 17:24:07,019208
1,0,-14,-2,-1,-1,-1,-1,2021-08-05 17:24:07,035158
0,3,2,-4,-3,-2,-2,-2,2021-08-05 17:24:07,035158
-1,-18,-7,-1,-1,-1,0,-2,2021-08-05 17:24:07,035158
-2,48,14,-2,-5,-7,-4,-4,2021-08-05 17:24:07,035158
0,-22,16,4,5,5,3,1,2021-08-05 17:24:07,066287
1,-26,-29,1,0,1,2,4,2021-08-05 17:24:07,082267
3,30,8,-5,1,-1,-2,-1,2021-08-05 17:24:07,082421
-4,-17,12,3,-4,-5,-4,-6,2021-08-05 17:24:07,082499
2,-35,-22,0,6,6,6,10,2021-08-05 17:24:07,082594
3,70,18,-2,-4,-5,-5,-6,2021-08-05 17:24:07,082713
-3,-72,-25,-3,-1,-1,1,0,2021-08-05 17:24:07,082831
-3,29,-5,-7,-3,-2,-2,-2,2021-08-05 17:24:07,082831
-6,43,19,-1,-6,-5,-5,-8,2021-08-05 17:24:07,098171
5,-11,18,9,8,6,5,5,2021-08-05 17:24:07,114188
3,-11,-12,2,3,4,3,1,2021-08-05 17:24:07,114188
-1,-14,-20,-8,-4,-3,-3,-3,2021-08-05 17:24:07,114188
-7,13,13,-3,-6,-7,-7,-7,2021-08-05 17:24:07,114188
6,5,-7,1,4,3,2,5,2021-08-05 17:24:07,114188
-1,17,13,-3,-6,-4,-5,-3,2021-08-05 17:24:07,114640
-1,-17,2,6,6,4,3,1,2021-08-05 17:24:07,114716
3,5,3,1,-1,0,1,3,2021-08-05 17:24:07,139134
-5,-27,-23,-3,-4,-3,-5,-4,2021-08-05 17:24:07,139134
-7,25,-1,-4,-4,-4,-2,-1,2021-08-05 17:24:07,139617
2,-43,-9,-4,0,-1,1,1,2021-08-05 17:24:07,139742
-10,53,5,-4,-6,-7,-8,-8,2021-08-05 17:24:07,161228
2,-44,12,5,7,3,2,2,2021-08-05 17:24:07,161228
1,-24,-8,6,8,7,5,6,2021-08-05 17:24:07,161228
2,34,-3,-6,-8,-4,-4,-5,2021-08-05 17:24:07,161228
-3,-23,-10,-6,-6,-6,-5,-4,2021-08-05 17:24:07,177261
0,23,6,-2,-4,0,-1,-1,2021-08-05 17:24:07,177455
0,14,13,3,1,-1,-1,-2,2021-08-05 17:24:07,177546
2,-14,-4,4,2,3,3,4,2021-08-05 17:24:07,177546
3,-21,-9,2,4,1,1,0,2021-08-05 17:24:07,208367
-4,41,25,-4,-6,-6,-3,-3,2021-08-05 17:24:07,208367
-1,-40,-31,0,1,2,2,2,2021-08-05 17:24:07,208552
-4,53,0,-6,-6,-4,-5,-4,2021-08-05 17:24:07,208552
-2,-75,-5,2,1,0,1,3,2021-08-05 17:24:07,208552
4,11,-2,3,3,4,3,3,2021-08-05 17:24:07,208552
-1,28,23,6,-1,-1,-2,-4,2021-08-05 17:24:07,224169
-4,-13,-9,-1,0,0,0,0,2021-08-05 17:24:07,224169
0,3,-18,-6,-2,0,-1,-2,2021-08-05 17:24:07,240186
-4,4,20,-6,-7,-6,-6,-5,2021-08-05 17:24:07,256155
1,2,-6,0,-2,-1,-1,1,2021-08-05 17:24:07,256341
-1,44,-2,5,5,2,1,0,2021-08-05 17:24:07,256341
-3,-73,16,3,0,-1,0,-1,2021-08-05 17:24:07,256341
-4,14,-32,-6,-1,1,0,-2,2021-08-05 17:24:07,256341
-5,13,0,-9,-8,-6,-7,-8,2021-08-05 17:24:07,256341
-4,-29,-11,-4,-3,-3,-2,-1,2021-08-05 17:24:07,256341
3,45,17,1,-2,-3,-3,-2,2021-08-05 17:24:07,271187
-1,14,-2,-1,-3,-4,-4,-5,2021-08-05 17:24:07,271330
1,-32,5,1,3,2,2,3,2021-08-05 17:24:07,287307
2,71,41,5,-1,2,1,1,2021-08-05 17:24:07,287307
3,-48,-43,2,3,2,4,3,2021-08-05 17:24:07,303232
-3,-35,-17,-9,-6,-4,-1,-2,2021-08-05 17:24:07,303232
-12,21,7,1,2,-1,-1,-1,2021-08-05 17:24:07,303505
3,-12,11,-1,-3,-4,-4,-3,2021-08-05 17:24:07,303602
-2,42,28,4,2,1,1,1,2021-08-05 17:24:07,319214
6,-31,-25,5,3,2,1,3,2021-08-05 17:24:07,319214
3,-13,-15,-8,-7,-5,-4,-2,2021-08-05 17:24:07,319214
-2,-3,7,-1,0,-2,-3,-1,2021-08-05 17:24:07,319214
-1,-10,-24,-6,-3,0,-2,-2,2021-08-05 17:24:07,335134
-4,33,14,-8,-7,-4,-5,-6,2021-08-05 17:24:07,335134
0,-72,2,1,-1,-1,0,2,2021-08-05 17:24:07,335134
-5,4,-8,-1,-1,0,-1,-3,2021-08-05 17:24:07,335134
4,50,11,2,0,0,-2,0,2021-08-05 17:24:07,366274
-6,-30,-4,0,-2,-2,-2,-1,2021-08-05 17:24:07,382245
2,13,-10,-1,1,2,0,1,2021-08-05 17:24:07,398248
-4,-17,6,-8,-11,-9,-8,-7,2021-08-05 17:24:07,398402
-1,3,6,5,5,3,0,0,2021-08-05 17:24:07,398402
8,39,14,8,8,6,6,9,2021-08-05 17:24:07,398402
-3,-19,-17,-3,-3,-4,1,-4,2021-08-05 17:24:07,398402
-5,-14,-2,0,2,-2,-2,-2,2021-08-05 17:24:07,398402
-2,17,4,-5,-1,-1,-1,-1,2021-08-05 17:24:07,398402
-2,-15,-2,-1,-3,-1,-2,-2,2021-08-05 17:24:07,398402
4,26,7,5,3,2,1,1,2021-08-05 17:24:07,399170
-2,-37,-18,-3,0,1,1,0,2021-08-05 17:24:07,399364
0,20,13,4,3,0,1,-1,2021-08-05 17:24:07,428192
-3,-7,0,-2,-4,-5,-4,-5,2021-08-05 17:24:07,428192
2,6,8,-7,-4,-3,-3,-1,2021-08-05 17:24:07,428192
2,43,-6,4,2,2,3,1,2021-08-05 17:24:07,428429
-2,-39,9,1,0,1,-1,0,2021-08-05 17:24:07,444214
-5,-22,-24,-5,0,-1,0,-1,2021-08-05 17:24:07,459750
8,33,-1,-5,-2,-2,0,0,2021-08-05 17:24:07,470873
1,-15,15,-1,-1,-3,-3,-2,2021-08-05 17:24:07,471886
0,28,-4,-2,0,2,1,2,2021-08-05 17:24:07,472078
-5,-79,-31,0,1,0,0,-2,2021-08-05 17:24:07,472192
0,24,9,1,-1,0,-1,0,2021-08-05 17:24:07,472263
0,12,10,0,-1,-3,-2,-1,2021-08-05 17:24:07,472263
1,11,-7,0,1,2,-1,1,2021-08-05 17:24:07,472263
4,14,1,1,-1,0,-1,2,2021-08-05 17:24:07,472263
-11,1,6,0,-2,-2,-2,-2,2021-08-05 17:24:07,472263
-1,-36,-10,0,2,3,1,2,2021-08-05 17:24:07,472263
0,22,1,-5,-7,-5,-5,-5,2021-08-05 17:24:07,506275
-1,19,29,4,1,1,0,0,2021-08-05 17:24:07,521017
0,-41,-41,-1,1,3,1,1,2021-08-05 17:24:07,521017
-3,-11,-8,-11,-5,-3,0,-1,2021-08-05 17:24:07,521017
0,15,-4,-6,-3,-2,1,-1,2021-08-05 17:24:07,521017
0,-4,4,1,2,0,0,-2,2021-08-05 17:24:07,521017
-6,3,9,2,1,-2,-1,-1,2021-08-05 17:24:07,521017
-2,8,11,3,1,-1,-1,-2,2021-08-05 17:24:07,521017
3,-9,-16,3,4,2,3,5,2021-08-05 17:24:07,535994
0,2,1,-3,-3,-1,-1,-1,2021-08-05 17:24:07,536177
-2,-9,-7,-5,-4,-4,-4,-5,2021-08-05 17:24:07,536416
2,15,6,0,-1,-1,1,-1,2021-08-05 17:24:07,536416
-7,-35,-10,-4,-2,-4,-2,-3,2021-08-05 17:24:07,566873
2,-4,-6,3,4,5,3,4,2021-08-05 17:24:07,566873
1,36,18,4,-2,0,0,0,2021-08-05 17:24:07,566873
0,-27,3,3,1,1,0,0,2021-08-05 17:24:07,566873
0,13,4,-1,-3,-2,-2,-1,2021-08-05 17:24:07,566873
-3,20,15,-5,-2,-3,-2,-4,2021-08-05 17:24:07,566873
-3,-36,-23,-5,0,-2,-1,-2,2021-08-05 17:24:07,581923
8,75,0,-1,-1,0,0,3,2021-08-05 17:24:07,581923
-3,-86,11,4,-1,1,0,1,2021-08-05 17:24:07,598014
-5,-9,-21,-7,-8,-7,-6,-5,2021-08-05 17:24:07,598014
3,69,28,0,-2,0,-2,-1,2021-08-05 17:24:07,598200
-2,-47,-10,3,3,3,1,3,2021-08-05 17:24:07,598283
2,65,-7,-1,1,3,1,2,2021-08-05 17:24:07,645966
-5,-64,-7,-9,-10,-8,-6,-6,2021-08-05 17:24:07,645966
3,-3,-2,1,0,1,1,1,2021-08-05 17:24:07,646257
1,4,-5,-1,-2,-2,-1,-2,2021-08-05 17:24:07,646349
-4,8,0,-5,-7,-5,-4,-4,2021-08-05 17:24:07,646423
-1,38,12,5,4,2,4,5,2021-08-05 17:24:07,646506
-1,-21,9,-1,0,-1,-1,-2,2021-08-05 17:24:07,646506
-5,26,-16,0,3,2,2,3,2021-08-05 17:24:07,646606
-2,-54,-2,-3,-1,0,0,-2,2021-08-05 17:24:07,661973
1,17,-14,-1,-2,-2,0,-2,2021-08-05 17:24:07,678026
-3,-5,10,1,4,1,1,-1,2021-08-05 17:24:07,678166
2,-4,-2,4,1,0,-2,-4,2021-08-05 17:24:07,678166
-2,-2,-1,-4,-5,-7,-8,-4,2021-08-05 17:24:07,678451
4,12,9,6,3,-1,-3,3,2021-08-05 17:24:07,678451
2,7,3,0,-1,-2,0,1,2021-08-05 17:24:07,678451
1,-15,-3,-4,-4,-2,0,3,2021-08-05 17:24:07,678451
0,13,-6,1,-1,0,1,0,2021-08-05 17:24:07,693270
-4,-2,-2,-6,-4,-2,-4,-5,2021-08-05 17:24:07,709065
0,42,7,0,-3,-1,-1,-2,2021-08-05 17:24:07,724351
-3,-61,-6,3,4,3,2,2,2021-08-05 17:24:07,724351
1,-3,-12,-4,-2,-1,-1,2,2021-08-05 17:24:07,724351
-1,0,13,3,-2,-1,0,-1,2021-08-05 17:24:07,724351
-1,-5,-18,-3,-2,0,-1,-3,2021-08-05 17:24:07,724351
-4,3,11,-3,-4,-5,-3,-5,2021-08-05 17:24:07,724932
-1,22,-1,4,3,2,1,2,2021-08-05 17:24:07,755334
2,37,7,3,4,3,3,-2,2021-08-05 17:24:07,755334
-6,-71,-22,-5,-5,-3,-2,-1,2021-08-05 17:24:07,755334
-2,-14,-17,-6,-3,-2,-1,-1,2021-08-05 17:24:07,755694
1,4,16,3,1,0,-2,-1,2021-08-05 17:24:07,755694
1,57,25,4,0,0,0,3,2021-08-05 17:24:07,755694
-2,-56,-25,-2,-4,-2,-1,1,2021-08-05 17:24:07,755694
3,10,1,4,2,2,1,0,2021-08-05 17:24:07,755694
-7,-6,-8,-8,-4,-3,-3,-4,2021-08-05 17:24:07,786337
3,2,-3,0,5,2,0,2,2021-08-05 17:24:07,786585
5,38,21,4,5,1,1,4,2021-08-05 17:24:07,786585
0,-20,-9,-3,-3,-4,-2,-1,2021-08-05 17:24:07,786585
-5,31,5,0,1,-1,1,1,2021-08-05 17:24:07,799273
-4,-40,-24,-4,-1,-1,-1,-2,2021-08-05 17:24:07,799273
0,-31,1,-1,-3,0,-1,-1,2021-08-05 17:24:07,799273
-4,21,2,-3,-5,-3,-4,-6,2021-08-05 17:24:07,799273
9,20,23,6,2,0,0,2,2021-08-05 17:24:07,817326
-2,-5,-10,0,-1,1,3,2,2021-08-05 17:24:07,833317
-3,-29,-28,-8,-2,-1,-3,-3,2021-08-05 17:24:07,833317
-7,19,11,-8,-11,-7,-7,-7,2021-08-05 17:24:07,833317
4,-20,-8,4,4,2,3,3,2021-08-05 17:24:07,833317
-4,0,4,-2,-1,-2,-2,-3,2021-08-05 17:24:07,833317
0,54,22,2,1,-1,-1,-3,2021-08-05 17:24:07,833317
0,-57,-21,1,0,0,-1,-2,2021-08-05 17:24:07,833317
-5,6,4,-5,-9,-6,-4,-7,2021-08-05 17:24:07,863312
7,40,12,4,0,0,0,2,2021-08-05 17:24:07,863582
-2,-33,-7,4,4,4,0,-1,2021-08-05 17:24:07,863582
-5,15,2,-8,-3,-3,-2,0,2021-08-05 17:24:07,863582
-2,20,-1,3,2,-2,0,-3,2021-08-05 17:24:07,879302
0,-48,-7,0,1,0,1,1,2021-08-05 17:24:07,879591
1,12,-7,-5,-4,-5,-2,-3,2021-08-05 17:24:07,879748
1,25,6,1,0,1,-1,-2,2021-08-05 17:24:07,879855
-2,-44,-20,-5,-1,0,-1,-2,2021-08-05 17:24:07,894368
3,18,12,-3,-4,-1,-1,1,2021-08-05 17:24:07,909403
-2,46,17,-2,-2,-2,-2,-1,2021-08-05 17:24:07,925275
3,-25,-9,6,8,4,4,5,2021-08-05 17:24:07,925527
-4,-1,2,-1,-4,-4,-2,-4,2021-08-05 17:24:07,925527
-3,-27,-21,-5,-1,-1,-3,-2,2021-08-05 17:24:07,925527
-4,-14,0,-5,-7,-6,-6,-2,2021-08-05 17:24:07,925527
5,44,17,4,5,2,1,2,2021-08-05 17:24:07,925527
1,20,2,-1,0,1,0,3,2021-08-05 17:24:07,925527
-3,-53,-16,-2,0,-1,0,-1,2021-08-05 17:24:07,925527
-6,-8,-13,-1,-3,-3,-2,-5,2021-08-05 17:24:07,940318
-1,20,14,-3,-5,-2,-1,-3,2021-08-05 17:24:07,940702
2,-10,-3,0,2,2,1,1,2021-08-05 17:24:07,971315
-1,19,15,-2,-4,-2,-3,-3,2021-08-05 17:24:07,987044
3,-16,-32,-1,1,-1,1,2,2021-08-05 17:24:07,987044
2,28,2,-4,-1,0,0,0,2021-08-05 17:24:07,987044
7,-7,26,9,4,5,4,6,2021-08-05 17:24:07,987044
-7,-46,-27,-7,-5,-4,-4,-5,2021-08-05 17:24:07,987473
-14,20,-3,-1,0,-2,1,-2,2021-08-05 17:24:07,987473
-7,-10,25,0,-3,-4,-4,-5,2021-08-05 17:24:07,987737
8,5,-17,1,3,1,0,-1,2021-08-05 17:24:08,002990
4,23,-5,-5,-1,-2,-2,0,2021-08-05 17:24:08,003250
7,-38,3,1,-1,-1,-1,-1,2021-08-05 17:24:08,003360
-6,-11,-12,1,3,2,0,1,2021-08-05 17:24:08,003360
-1,23,10,-1,-3,0,0,0,2021-08-05 17:24:08,018044
8,45,32,8,2,2,4,6,2021-08-05 17:24:08,018191
-1,-25,11,12,8,6,5,2,2021-08-05 17:24:08,018191
-7,-40,-47,-8,-4,-5,-4,-8,2021-08-05 17:24:08,018191
-10,-21,-24,-28,-16,-13,-13,-16,2021-08-05 17:24:08,049900
1,14,8,6,6,7,5,8,2021-08-05 17:24:08,049900
9,46,33,-2,-2,0,-1,3,2021-08-05 17:24:08,049900
6,-5,-16,11,9,7,5,9,2021-08-05 17:24:08,049900
-6,-4,-1,2,-3,-2,-2,-5,2021-08-05 17:24:08,064949
-6,-52,-4,-2,-3,-1,-1,-4,2021-08-05 17:24:08,080866
1,107,48,3,-4,-5,-3,-2,2021-08-05 17:24:08,096916
4,-105,-17,4,5,5,4,4,2021-08-05 17:24:08,096916
14,6,-44,-5,-1,0,2,2,2021-08-05 17:24:08,096916
-22,10,7,-8,-8,-7,-7,-10,2021-08-05 17:24:08,096916
-9,-18,-11,-10,-3,-2,-3,-5,2021-08-05 17:24:08,096916
1,30,4,-1,-2,-3,-3,-3,2021-08-05 17:24:08,096916
-1,-7,21,6,6,5,6,6,2021-08-05 17:24:08,096916
9,-13,-17,5,2,-1,1,-1,2021-08-05 17:24:08,096916
-1,-20,-16,-1,-5,-2,-4,-4,2021-08-05 17:24:08,096916
-1,30,21,-1,-5,-3,-2,0,2021-08-05 17:24:08,096916
1,12,5,0,2,0,0,0,2021-08-05 17:24:08,127864
-4,-29,-4,2,0,-2,-2,-4,2021-08-05 17:24:08,127864
0,-12,-5,-1,-2,0,1,4,2021-08-05 17:24:08,127864
-1,11,-18,-1,1,-1,0,-3,2021-08-05 17:24:08,127864
-13,3,-13,-29,-15,-7,-7,-8,2021-08-05 17:24:08,127864
4,24,11,-3,0,2,0,2,2021-08-05 17:24:08,128575
7,-21,8,13,8,6,4,4,2021-08-05 17:24:08,143922
-4,-75,-2,14,0,-2,1,2,2021-08-05 17:24:08,160004
-15,11,-12,-8,-4,-7,-10,-13,2021-08-05 17:24:08,160004
6,22,-9,-9,-3,0,0,2,2021-08-05 17:24:08,160195
4,24,12,2,3,-1,0,2,2021-08-05 17:24:08,160278
3,33,8,0,1,3,1,2,2021-08-05 17:24:08,160348
-3,-38,-7,14,5,0,1,1,2021-08-05 17:24:08,192004
-2,15,-4,-3,-4,-3,-3,-5,2021-08-05 17:24:08,192172
-3,-12,-10,-13,-6,-3,-3,-4,2021-08-05 17:24:08,192172
-4,-7,-4,-11,-7,-4,-2,-7,2021-08-05 17:24:08,192172
-2,15,16,-7,-3,-2,-2,-1,2021-08-05 17:24:08,192172
12,-1,22,25,5,3,5,6,2021-08-05 17:24:08,192172
2,-53,-32,4,7,4,3,0,2021-08-05 17:24:08,207892
-27,10,-25,-44,-22,-14,-11,-19,2021-08-05 17:24:08,223977
-3,-24,-3,3,4,6,3,6,2021-08-05 17:24:08,240083
5,40,-5,4,2,0,-1,1,2021-08-05 17:24:08,255066
5,-2,27,15,0,-1,-1,1,2021-08-05 17:24:08,270006
9,-18,10,21,10,6,2,6,2021-08-05 17:24:08,270006
1,33,8,-9,-4,-2,0,-2,2021-08-05 17:24:08,270006
-6,27,9,-7,-4,-3,-3,-4,2021-08-05 17:24:08,270006
0,-5,-22,2,1,1,2,3,2021-08-05 17:24:08,270006
1,-20,7,11,1,-1,-1,1,2021-08-05 17:24:08,270006
-6,-9,-7,-11,-2,-3,-5,-7,2021-08-05 17:24:08,270869
-1,-8,-26,-13,-2,1,0,-2,2021-08-05 17:24:08,270869
1,-7,28,-6,-6,-5,-4,-4,2021-08-05 17:24:08,270869
1,72,21,15,2,1,3,4,2021-08-05 17:24:08,270869
-2,-75,-37,11,6,3,2,0,2021-08-05 17:24:08,270869
-3,14,-10,-22,-5,-3,0,-1,2021-08-05 17:24:08,270869
-2,28,4,2,2,-1,-1,1,2021-08-05 17:24:08,286117
3,-7,22,8,5,4,3,4,2021-08-05 17:24:08,286117
13,5,24,22,2,2,3,6,2021-08-05 17:24:08,300904
-7,-22,-22,4,0,-2,-2,-5,2021-08-05 17:24:08,300904
-15,-16,-62,-54,-8,0,-4,-10,2021-08-05 17:24:08,300904
-11,49,15,-8,-5,-1,0,3,2021-08-05 17:24:08,301236
5,-70,0,12,6,4,1,7,2021-08-05 17:24:08,332058
6,36,31,14,-5,-8,-5,-3,2021-08-05 17:24:08,347894
11,-11,37,34,11,4,4,7,2021-08-05 17:24:08,362945
-4,-21,-57,-33,-6,-2,-5,-7,2021-08-05 17:24:08,362945
0,47,17,-3,-4,-3,-1,0,2021-08-05 17:24:08,362945
3,-9,21,21,8,5,4,6,2021-08-05 17:24:08,363292
-6,-21,-36,-11,-2,-2,-1,-4,2021-08-05 17:24:08,363352
6,14,-1,-5,0,-1,-2,0,2021-08-05 17:24:08,363421
-1,50,12,-1,-3,2,0,-1,2021-08-05 17:24:08,363489
-6,-51,-2,-6,-4,-5,-4,-4,2021-08-05 17:24:08,363550
-5,80,31,15,4,2,2,2,2021-08-05 17:24:08,363611
1,-59,8,8,-1,-3,0,-4,2021-08-05 17:24:08,363674
1,-13,-24,-14,3,4,3,2,2021-08-05 17:24:08,377958
-3,-9,-29,-20,-6,-4,-5,-6,2021-08-05 17:24:08,377958
3,1,0,8,1,0,0,0,2021-08-05 17:24:08,377958
6,37,13,9,1,-2,0,2,2021-08-05 17:24:08,377958
-3,-57,17,12,-1,-3,-2,-3,2021-08-05 17:24:08,407992
-5,-7,-12,-15,0,3,2,-1,2021-08-05 17:24:08,407992
-2,7,-28,-24,-12,-5,-2,-2,2021-08-05 17:24:08,407992
1,-11,-7,-3,3,2,0,0,2021-08-05 17:24:08,408404
-3,66,26,12,3,-2,0,0,2021-08-05 17:24:08,424042
11,16,20,30,9,2,2,3,2021-08-05 17:24:08,424042
-20,-70,-12,-7,-1,-3,-6,-8,2021-08-05 17:24:08,424212
0,7,-11,-19,-7,-4,-6,-5,2021-08-05 17:24:08,424294
5,18,6,-4,-3,-3,-3,1,2021-08-05 17:24:08,439932
0,5,9,7,-2,-4,-3,-1,2021-08-05 17:24:08,445906
18,18,4,19,6,5,6,6,2021-08-05 17:24:08,446865
-13,-18,-20,-14,-5,-2,-1,-2,2021-08-05 17:24:08,446865
-8,-1,-11,-13,-5,-2,-4,-4,2021-08-05 17:24:08,455707
0,-28,1,4,-1,0,-1,-1,2021-08-05 17:24:08,471041
4,-9,-1,4,-2,1,-2,1,2021-08-05 17:24:08,501908
2,9,8,6,-1,-3,-2,-2,2021-08-05 17:24:08,501908
19,27,1,8,12,10,9,13,2021-08-05 17:24:08,502290
-13,-21,-5,-5,-1,-2,0,-2,2021-08-05 17:24:08,502290
-6,-10,-6,-2,-3,-4,-1,-3,2021-08-05 17:24:08,516997
5,3,-4,-3,0,0,-2,1,2021-08-05 17:24:08,532908
-3,-14,5,-1,-3,-2,-2,-2,2021-08-05 17:24:08,533165
16,38,24,14,0,-1,-2,0,2021-08-05 17:24:08,533288
-20,-17,-23,-8,0,0,-2,-2,2021-08-05 17:24:08,533288
1,0,-4,-21,-8,-2,-4,-3,2021-08-05 17:24:08,533288
-3,-15,-9,2,1,-2,-4,-4,2021-08-05 17:24:08,533288
-7,-12,-11,-15,-7,-2,-2,-3,2021-08-05 17:24:08,533288
12,23,31,23,5,2,3,4,2021-08-05 17:24:08,533865
0,10,18,19,3,1,1,0,2021-08-05 17:24:08,533865
-6,-15,-45,-31,-6,0,1,0,2021-08-05 17:24:08,534072
-7,8,10,-9,-3,-2,0,-2,2021-08-05 17:24:08,534072
2,-13,-2,1,-3,-5,-2,-2,2021-08-05 17:24:08,548921
3,12,30,7,1,-1,0,1,2021-08-05 17:24:08,563949
-2,9,-20,-7,-8,-6,-8,-9,2021-08-05 17:24:08,579090
-4,-11,-22,-13,1,2,0,1,2021-08-05 17:24:08,579153
4,3,7,-8,-1,1,-1,3,2021-08-05 17:24:08,579261
-3,-3,3,11,-1,-2,0,-1,2021-08-05 17:24:08,579353
-2,-8,11,12,4,1,3,2,2021-08-05 17:24:08,579353
-3,-17,-15,-7,-2,-2,-1,-4,2021-08-05 17:24:08,579353
-3,18,10,-6,-3,-1,0,-3,2021-08-05 17:24:08,579353
20,7,7,24,7,2,3,3,2021-08-05 17:24:08,594065
-1,17,-3,-14,-2,-1,0,-2,2021-08-05 17:24:08,609866
-26,-11,-25,-21,-4,-1,-4,-4,2021-08-05 17:24:08,624963
7,7,3,0,0,-2,0,0,2021-08-05 17:24:08,639935
-7,-7,16,13,4,2,0,2,2021-08-05 17:24:08,640134
6,-8,-1,6,-1,0,0,-3,2021-08-05 17:24:08,640134
9,9,-4,-2,-2,-2,0,1,2021-08-05 17:24:08,640134
-5,-1,-6,-12,-4,-3,-3,-2,2021-08-05 17:24:08,655629
-3,-15,15,8,-1,-2,-1,-2,2021-08-05 17:24:08,670903
-6,-10,-7,-1,-2,-2,-3,-3,2021-08-05 17:24:08,686904
2,2,-11,-6,-1,1,3,3,2021-08-05 17:24:08,686904
-2,0,-4,0,-2,-1,-4,-5,2021-08-05 17:24:08,686904
-7,-49,1,-4,0,1,2,1,2021-08-05 17:24:08,686904
-5,75,12,22,4,-1,0,0,2021-08-05 17:24:08,687391
4,-4,-4,-9,-6,-5,-6,-6,2021-08-05 17:24:08,687466
-2,-38,1,-9,-5,-3,-4,-3,2021-08-05 17:24:08,687494
4,63,-12,3,6,5,2,2,2021-08-05 17:24:08,687494
1,-21,3,-11,-8,-2,-2,-2,2021-08-05 17:24:08,687494
-3,-5,3,3,3,-2,1,-2,2021-08-05 17:24:08,687748
-17,-45,-2,5,1,-1,0,-1,2021-08-05 17:24:08,687810
14,18,6,7,2,-1,-1,0,2021-08-05 17:24:08,687867
10,26,-6,-9,-3,0,0,5,2021-08-05 17:24:08,703068
18,15,-6,-7,-3,0,-1,-2,2021-08-05 17:24:08,717989
-13,-15,-8,-7,-2,0,0,-1,2021-08-05 17:24:08,733916
-18,-29,-21,-3,-2,-1,-2,-6,2021-08-05 17:24:08,733916
-1,-19,22,9,1,-3,-1,-1,2021-08-05 17:24:08,733916
19,-21,16,8,3,0,-1,1,2021-08-05 17:24:08,734282
-12,41,-3,-10,-4,-1,-2,-2,2021-08-05 17:24:08,734448
-11,-19,-24,-9,-1,-2,-1,-2,2021-08-05 17:24:08,734448
18,-5,41,38,14,5,9,13,2021-08-05 17:24:08,734448
-13,-5,-25,-25,-11,-3,-3,-6,2021-08-05 17:24:08,734733
10,5,-3,-3,-4,-5,-3,-3,2021-08-05 17:24:08,749988
3,11,-21,-24,-3,2,0,4,2021-08-05 17:24:08,749988
-13,-36,-7,-2,-2,-1,-3,-4,2021-08-05 17:24:08,765014
-13,-84,29,22,7,0,-1,0,2021-08-05 17:24:08,765014
11,123,10,8,1,1,2,2,2021-08-05 17:24:08,765014
11,-5,-22,-33,-10,-3,-4,-3,2021-08-05 17:24:08,765014
-3,-20,-7,-2,2,1,-1,1,2021-08-05 17:24:08,779944
-11,6,6,13,-1,0,0,0,2021-08-05 17:24:08,780140
4,-34,6,3,-1,1,-1,0,2021-08-05 17:24:08,796014
-6,-14,18,14,1,-1,-2,-2,2021-08-05 17:24:08,796014
5,33,-15,-10,-4,-2,-2,-4,2021-08-05 17:24:08,796014
-5,6,-12,-17,-8,-5,-7,-5,2021-08-05 17:24:08,796014
1,-31,-9,3,6,3,3,5,2021-08-05 17:24:08,810887
1,11,21,20,5,3,3,5,2021-08-05 17:24:08,826014
-5,-15,18,7,-1,-5,-3,-3,2021-08-05 17:24:08,841919
-7,23,-31,-38,-4,0,2,-1,2021-08-05 17:24:08,857938
10,13,8,0,-2,-2,-4,-2,2021-08-05 17:24:08,873953
-4,-21,19,13,3,0,-1,1,2021-08-05 17:24:08,873953
-8,6,-4,-5,-2,2,-3,-4,2021-08-05 17:24:08,874192
6,12,-11,2,-1,-2,1,2,2021-08-05 17:24:08,874192
3,-6,-5,-6,-1,0,1,1,2021-08-05 17:24:08,874343
0,9,19,26,1,-2,-1,0,2021-08-05 17:24:08,874417
-17,-14,-7,-22,-11,-6,-7,-14,2021-08-05 17:24:08,874514
5,-13,-18,-17,-1,-1,0,4,2021-08-05 17:24:08,874514
2,20,-6,-8,0,3,2,3,2021-08-05 17:24:08,874610
-1,2,6,8,-2,-4,-2,-3,2021-08-05 17:24:08,874706
-3,2,22,22,0,-4,-5,-7,2021-08-05 17:24:08,874866
2,1,-26,-21,1,6,4,4,2021-08-05 17:24:08,874866
2,-5,-4,7,2,0,2,2,2021-08-05 17:24:08,888970
-8,-2,-13,-21,-7,-5,-5,-6,2021-08-05 17:24:08,888970
4,-3,1,18,8,5,6,13,2021-08-05 17:24:08,919866
-1,18,17,3,-3,-1,-3,-7,2021-08-05 17:24:08,934866
-1,-21,30,25,2,-3,-2,-2,2021-08-05 17:24:08,934866
-3,-4,-39,-11,-2,1,1,-4,2021-08-05 17:24:08,934866
6,11,-32,-27,-7,0,0,3,2021-08-05 17:24:08,934866
-5,3,20,26,3,0,-1,-2,2021-08-05 17:24:08,934866
-3,-7,8,7,1,-1,0,-2,2021-08-05 17:24:08,934866
-3,-9,14,22,-1,-1,-2,-3,2021-08-05 17:24:08,934866
-5,-8,-27,-46,-9,-2,-2,-4,2021-08-05 17:24:08,934866
-4,-1,3,-4,-3,-2,-4,-2,2021-08-05 17:24:08,935867
1,-5,11,12,2,1,-1,-2,2021-08-05 17:24:08,949942
5,27,7,1,3,2,2,2,2021-08-05 17:24:08,950066
2,-9,-23,-1,-2,-1,-1,-4,2021-08-05 17:24:08,965864
-1,6,17,12,3,0,1,5,2021-08-05 17:24:08,965864
0,-14,31,21,3,-2,0,1,2021-08-05 17:24:08,965864
-4,11,-61,-51,-8,-2,-4,-9,2021-08-05 17:24:08,965864
-1,0,-3,-5,-2,-1,2,0,2021-08-05 17:24:08,980866
-1,3,4,6,-2,-2,-4,-2,2021-08-05 17:24:08,980866
-7,-22,-2,1,-3,-2,-2,-3,2021-08-05 17:24:08,980866
-3,-32,18,12,-1,-1,-2,0,2021-08-05 17:24:08,980866
4,22,7,12,4,0,0,2,2021-08-05 17:24:08,997028
2,4,3,6,-1,2,3,2,2021-08-05 17:24:09,012966
-3,-6,-31,-31,-5,-1,-1,-3,2021-08-05 17:24:09,027925
0,3,2,-18,-5,-4,-2,-1,2021-08-05 17:24:09,028193
-10,-29,-3,7,-3,-3,-7,-7,2021-08-05 17:24:09,028288
6,3,55,49,13,4,6,10,2021-08-05 17:24:09,028288
-3,24,-62,-52,-14,-4,-5,-9,2021-08-05 17:24:09,028523
-4,2,-9,-15,-1,0,-2,-2,2021-08-05 17:24:09,028680
-4,-11,14,15,2,-2,-2,-2,2021-08-05 17:24:09,042908
-3,0,-2,6,0,-1,0,-1,2021-08-05 17:24:09,042908
-3,0,1,4,1,0,1,1,2021-08-05 17:24:09,042908
4,3,3,0,-1,0,0,5,2021-08-05 17:24:09,042908
-3,-3,-4,-7,-5,-3,-3,-3,2021-08-05 17:24:09,059075
-10,-28,0,-5,-3,-1,0,-5,2021-08-05 17:24:09,059075
6,29,9,3,4,1,0,1,2021-08-05 17:24:09,059358
1,-2,-8,0,-4,-2,0,-2,2021-08-05 17:24:09,059473
3,-4,16,17,5,0,0,2,2021-08-05 17:24:09,090901
0,6,5,4,-3,-4,-3,-2,2021-08-05 17:24:09,091004
-4,-7,-39,-12,2,2,2,-3,2021-08-05 17:24:09,091004
2,16,17,-7,-6,-4,-3,-1,2021-08-05 17:24:09,091004
-4,-11,-10,9,0,-1,0,-2,2021-08-05 17:24:09,105952
1,6,1,6,5,4,5,9,2021-08-05 17:24:09,120981
-2,2,3,-7,-4,-4,-6,-6,2021-08-05 17:24:09,136914
5,8,3,11,2,2,2,4,2021-08-05 17:24:09,136914
-4,5,-6,-24,-4,-1,-3,-7,2021-08-05 17:24:09,136914
2,5,26,18,1,-2,-2,-2,2021-08-05 17:24:09,136914
-2,-28,-16,-6,-1,-2,0,3,2021-08-05 17:24:09,136914
-4,5,-18,-8,-2,0,0,-4,2021-08-05 17:24:09,136914
-1,-19,9,-7,-2,-1,-1,1,2021-08-05 17:24:09,136914
2,16,-18,-11,-3,0,0,-1,2021-08-05 17:24:09,136914
1,-5,29,19,2,-1,0,4,2021-08-05 17:24:09,136914
-6,-8,-8,-5,-3,-1,-2,-6,2021-08-05 17:24:09,136914
-9,-15,-16,-17,-4,-2,0,0,2021-08-05 17:24:09,168021
-1,4,3,-2,0,-3,-4,-4,2021-08-05 17:24:09,168130
7,14,9,1,-5,-1,-3,-2,2021-08-05 17:24:09,168130
0,-13,-3,-5,-3,-4,-2,-5,2021-08-05 17:24:09,168130
9,24,7,16,10,10,9,14,2021-08-05 17:24:09,197864
-3,6,-14,-7,-3,1,-2,-6,2021-08-05 17:24:09,214004
2,5,5,-3,1,1,2,-2,2021-08-05 17:24:09,214004
-2,-1,9,9,3,1,-1,-3,2021-08-05 17:24:09,214296
-5,-10,-11,-9,-7,-6,-8,-10,2021-08-05 17:24:09,214397
8,13,7,8,-2,-4,-2,4,2021-08-05 17:24:09,214397
-1,7,16,13,1,-3,-4,1,2021-08-05 17:24:09,214397
1,-9,-12,-6,-4,1,0,3,2021-08-05 17:24:09,214397
-8,-27,-21,-5,-3,-1,-2,-6,2021-08-05 17:24:09,229863
-4,3,9,4,2,0,1,2,2021-08-05 17:24:09,229863
-9,-6,-4,-7,-5,-4,-4,-9,2021-08-05 17:24:09,229863
-2,-6,6,3,2,-2,-2,0,2021-08-05 17:24:09,229863
6,28,13,15,5,2,2,2,2021-08-05 17:24:09,229863
9,13,-2,-4,-1,1,1,1,2021-08-05 17:24:09,229863
-5,-2,-22,-10,-4,-2,-2,-2,2021-08-05 17:24:09,245970
-5,2,10,2,0,-1,0,0,2021-08-05 17:24:09,245970
3,0,4,-5,-5,-3,-3,-2,2021-08-05 17:24:09,260910
-11,-23,-7,1,2,1,-1,-3,2021-08-05 17:24:09,260910
0,-2,13,3,-1,1,1,1,2021-08-05 17:24:09,260910
2,-11,-28,-15,-6,-3,-1,2,2021-08-05 17:24:09,260910
-2,3,8,4,3,0,0,4,2021-08-05 17:24:09,291864
-4,-8,-14,-11,-5,-4,-4,-5,2021-08-05 17:24:09,291864
0,-9,7,10,1,0,1,0,2021-08-05 17:24:09,291864
-7,-19,13,10,3,0,2,-2,2021-08-05 17:24:09,291864
7,31,-3,-5,-4,-2,0,2,2021-08-05 17:24:09,291864
-5,-3,-10,-10,-5,-4,-2,-5,2021-08-05 17:24:09,291864
3,-4,-12,-8,0,1,1,1,2021-08-05 17:24:09,308088
2,9,16,8,4,1,0,1,2021-08-05 17:24:09,323865
-5,-15,-8,-6,-4,-4,-3,-2,2021-08-05 17:24:09,338917
0,1,-1,-1,-1,-1,0,-1,2021-08-05 17:24:09,354865
-4,-8,-9,-6,-4,-2,-2,-4,2021-08-05 17:24:09,371058
0,0,-9,0,2,1,2,4,2021-08-05 17:24:09,371058
5,3,16,14,7,5,4,5,2021-08-05 17:24:09,371058
3,7,-8,-4,-2,0,0,0,2021-08-05 17:24:09,371058
-8,-4,10,1,-4,-4,-4,-8,2021-08-05 17:24:09,371447
1,9,1,-8,-1,0,-2,1,2021-08-05 17:24:09,371533
0,3,-1,-1,0,-1,1,-3,2021-08-05 17:24:09,371533
-4,-8,-7,-3,-1,-1,0,-2,2021-08-05 17:24:09,371674
-4,-9,2,1,-2,-1,0,1,2021-08-05 17:24:09,371747
4,5,15,22,4,2,1,0,2021-08-05 17:24:09,371865
-1,28,-19,-36,-9,-3,-4,-7,2021-08-05 17:24:09,386966
3,2,-4,-2,-2,-2,-1,1,2021-08-05 17:24:09,402948
-2,-10,-4,3,3,0,2,4,2021-08-05 17:24:09,403255
-4,8,5,5,0,-5,-3,-4,2021-08-05 17:24:09,403450
1,-23,5,4,-1,-2,1,2,2021-08-05 17:24:09,403566
2,3,18,11,5,3,3,3,2021-08-05 17:24:09,403669
-4,-3,-38,-25,-10,-4,-3,-4,2021-08-05 17:24:09,403771
-1,-9,1,0,-3,-1,-1,-2,2021-08-05 17:24:09,403866
6,16,-1,3,0,0,0,3,2021-08-05 17:24:09,418957
-5,-6,6,5,-1,-1,-2,-5,2021-08-05 17:24:09,433900
5,7,1,1,0,0,-2,1,2021-08-05 17:24:09,433900
-3,-1,-7,-6,-3,-2,-1,-6,2021-08-05 17:24:09,433900
-4,-6,6,3,-1,2,0,0,2021-08-05 17:24:09,433900
-2,-31,-13,-5,-1,-1,-3,0,2021-08-05 17:24:09,433900
2,19,12,9,2,-1,-2,2,2021-08-05 17:24:09,449900
2,5,-13,-12,-3,-2,-1,-1,2021-08-05 17:24:09,450138
-3,-13,4,12,5,0,-1,-2,2021-08-05 17:24:09,464864
-4,1,8,1,0,-1,-2,-1,2021-08-05 17:24:09,464864
1,-4,-9,-10,-3,1,1,1,2021-08-05 17:24:09,464864
-2,3,0,-3,-1,0,0,3,2021-08-05 17:24:09,464864
-5,-8,-2,-13,-2,-2,-3,-4,2021-08-05 17:24:09,480027
-5,-8,-10,-7,-4,-2,-3,-4,2021-08-05 17:24:09,495090
5,19,23,14,2,1,1,2,2021-08-05 17:24:09,495090
1,0,-11,-6,0,1,1,-1,2021-08-05 17:24:09,495090
-5,-10,-3,0,-2,-1,-1,-3,2021-08-05 17:24:09,495090
4,2,-10,-6,-1,0,1,4,2021-08-05 17:24:09,495090
-3,-11,6,4,0,-3,-4,-3,2021-08-05 17:24:09,495090
-2,-1,11,5,-1,-2,-1,0,2021-08-05 17:24:09,495090
-1,6,-13,-6,-2,0,-2,-3,2021-08-05 17:24:09,524951
-4,-7,-18,-12,-4,-5,-4,-7,2021-08-05 17:24:09,539630
-2,-6,-1,5,1,3,1,1,2021-08-05 17:24:09,539910
2,5,5,6,3,3,3,6,2021-08-05 17:24:09,539910
0,-11,11,12,0,0,0,1,2021-08-05 17:24:09,540202
-4,5,0,-14,-4,0,-1,-1,2021-08-05 17:24:09,540311
-3,-7,-15,-9,-5,-3,-2,-1,2021-08-05 17:24:09,540435
2,1,3,0,3,2,3,4,2021-08-05 17:24:09,540435
-1,1,9,4,-2,-4,-2,-3,2021-08-05 17:24:09,569931
-1,-1,3,5,2,1,-1,0,2021-08-05 17:24:09,585904
-1,3,-10,-6,-1,-1,-3,-2,2021-08-05 17:24:09,600864
-5,-5,-5,-7,-6,-5,-6,-8,2021-08-05 17:24:09,600864
-2,-2,-3,-9,-3,-2,0,0,2021-08-05 17:24:09,600864
-1,-2,-5,2,-2,-1,0,0,2021-08-05 17:24:09,600864
1,0,-1,-7,-3,-2,0,-2,2021-08-05 17:24:09,600864
-2,-7,-4,0,-3,-1,-1,0,2021-08-05 17:24:09,601466
0,9,1,4,2,2,1,1,2021-08-05 17:24:09,601466
-1,4,0,-2,-4,-3,-5,-6,2021-08-05 17:24:09,601466
1,-4,5,6,7,5,4,5,2021-08-05 17:24:09,601466
1,0,1,-2,-3,-1,-3,-1,2021-08-05 17:24:09,601466
-2,-3,0,0,-1,0,-1,-2,2021-08-05 17:24:09,631955
-3,-14,-4,-3,-2,-1,-2,-1,2021-08-05 17:24:09,647901
1,20,4,2,-1,-3,2,0,2021-08-05 17:24:09,648069
-1,-6,0,6,0,-3,-1,-3,2021-08-05 17:24:09,648179
1,3,2,0,-3,-2,0,1,2021-08-05 17:24:09,648290
-1,-27,-11,-14,-2,-1,1,2,2021-08-05 17:24:09,648391
3,14,2,1,-1,0,-1,-1,2021-08-05 17:24:09,648499
-1,7,3,-3,-3,-2,-3,-3,2021-08-05 17:24:09,648609
0,-6,3,9,1,0,-2,-2,2021-08-05 17:24:09,663115
-2,3,2,7,-1,-1,-3,-4,2021-08-05 17:24:09,663115
3,-4,-11,-13,-1,1,0,3,2021-08-05 17:24:09,663352
-3,-3,0,-6,-3,-1,-1,-3,2021-08-05 17:24:09,663448
0,-3,-3,3,1,0,2,3,2021-08-05 17:24:09,678866
0,3,4,2,0,-2,-2,2,2021-08-05 17:24:09,679172
-3,-3,5,8,2,0,-1,-1,2021-08-05 17:24:09,693974
0,3,-2,-3,-2,-1,-1,-3,2021-08-05 17:24:09,693974
4,-2,-4,-4,-1,-1,0,3,2021-08-05 17:24:09,709075
-2,9,3,2,-1,-4,-4,-6,2021-08-05 17:24:09,709259
2,-14,6,7,3,3,3,6,2021-08-05 17:24:09,709391
-2,12,-6,-4,2,1,0,-1,2021-08-05 17:24:09,709509
5,-2,3,0,-1,0,1,0,2021-08-05 17:24:09,709616
-7,-4,-19,-8,-4,-3,-3,-4,2021-08-05 17:24:09,709616
-2,-5,-3,-1,1,-1,-3,-3,2021-08-05 17:24:09,724955
-3,-22,-1,4,-1,-1,0,1,2021-08-05 17:24:09,724955
0,16,9,0,2,0,1,1,2021-08-05 17:24:09,740917
5,13,10,6,-1,2,3,2,2021-08-05 17:24:09,757028
-5,-7,-6,-5,-7,-2,-3,-5,2021-08-05 17:24:09,757091
-3,-7,-2,0,-1,0,0,1,2021-08-05 17:24:09,757208
-5,-11,-12,2,0,-3,-2,-4,2021-08-05 17:24:09,757208
3,11,13,2,2,0,2,3,2021-08-05 17:24:09,757208
5,4,4,-2,-3,0,-1,0,2021-08-05 17:24:09,757208
-3,2,-2,-7,-1,-2,0,0,2021-08-05 17:24:09,757208
-6,-9,-8,-10,-7,-5,-4,-5,2021-08-05 17:24:09,786958
3,0,-2,0,2,1,0,2,2021-08-05 17:24:09,787058
-5,-9,-3,-1,-2,-4,-4,-6,2021-08-05 17:24:09,787058
1,-15,-1,1,3,3,2,2,2021-08-05 17:24:09,787058
0,8,-3,0,-2,-1,-3,-2,2021-08-05 17:24:09,802938
-2,7,1,0,0,1,1,1,2021-08-05 17:24:09,817926
-3,2,3,0,-3,-4,-5,-5,2021-08-05 17:24:09,818042
-4,-41,-13,-3,-1,1,-2,-4,2021-08-05 17:24:09,818042
-4,5,2,2,3,3,2,4,2021-08-05 17:24:09,818042
17,43,10,-2,-5,-4,-4,-3,2021-08-05 17:24:09,818042
8,12,9,0,1,2,5,6,2021-08-05 17:24:09,818042
-1,5,-3,-2,-3,-2,-2,-4,2021-08-05 17:24:09,818042
-12,-39,-11,-3,-4,-1,-3,-6,2021-08-05 17:24:09,848959
-5,-6,-3,4,3,0,2,-1,2021-08-05 17:24:09,863924
10,15,5,1,0,-2,1,3,2021-08-05 17:24:09,879107
-3,10,2,-3,-5,-4,-2,-2,2021-08-05 17:24:09,879229
1,11,0,-4,-1,-1,-2,-3,2021-08-05 17:24:09,879315
-2,-29,4,7,2,1,1,5,2021-08-05 17:24:09,879315
-10,3,-12,-10,-4,-3,-1,-6,2021-08-05 17:24:09,879498
4,4,-7,0,2,0,0,2,2021-08-05 17:24:09,879498
-2,-4,2,-2,-1,-2,-3,-2,2021-08-05 17:24:09,879498
-4,-12,-4,-4,0,-2,0,-6,2021-08-05 17:24:09,879498
-1,-3,4,5,1,2,-1,1,2021-08-05 17:24:09,879901
-1,7,4,3,-2,-2,-2,-3,2021-08-05 17:24:09,879901
-2,1,-5,-5,-4,-2,-2,-3,2021-08-05 17:24:09,911001
3,3,-1,3,1,2,2,6,2021-08-05 17:24:09,911128
-6,-11,-3,1,-2,-3,-1,-1,2021-08-05 17:24:09,911196
2,5,-2,-1,1,2,0,0,2021-08-05 17:24:09,911281
1,5,4,2,0,-1,-1,-1,2021-08-05 17:24:09,926910
-6,-7,-3,-4,-4,-1,-1,-4,2021-08-05 17:24:09,926910
-2,-5,-3,-1,-1,-2,-2,-4,2021-08-05 17:24:09,926910
-1,-4,0,-3,-4,-3,-3,-1,2021-08-05 17:24:09,927304
7,15,5,3,3,2,3,5,2021-08-05 17:24:09,942906
-1,-10,-10,-5,-3,-3,-2,-3,2021-08-05 17:24:09,958999
-3,-1,-6,0,0,1,0,1,2021-08-05 17:24:09,974103
-5,7,4,4,0,0,-2,-6,2021-08-05 17:24:09,974103
-7,-9,-1,1,2,0,0,-4,2021-08-05 17:24:09,974440
2,1,4,-2,-1,-3,-4,-4,2021-08-05 17:24:09,974519
3,3,2,-2,-5,-5,-8,-5,2021-08-05 17:24:09,974587
10,4,3,2,2,-1,2,11,2021-08-05 17:24:09,974658
2,-2,0,-4,-2,-2,1,2,2021-08-05 17:24:09,974689
0,4,-3,-5,-2,0,1,-2,2021-08-05 17:24:09,974787
1,-1,-5,0,3,5,5,6,2021-08-05 17:24:09,989952
-1,-14,1,3,0,1,-1,0,2021-08-05 17:24:10,005992
-2,17,-5,-1,-3,-1,-1,-3,2021-08-05 17:24:10,020917
-1,4,-4,0,-1,1,0,-1,2021-08-05 17:24:10,035965
-2,-13,-2,0,-2,-1,1,-2,2021-08-05 17:24:10,035965
-5,5,4,-2,-4,-3,-2,-7,2021-08-05 17:24:10,035965
1,-7,3,2,2,0,0,2,2021-08-05 17:24:10,035965
-1,-10,-5,1,1,2,0,0,2021-08-05 17:24:10,035965
-4,-2,0,0,-3,-2,-2,-2,2021-08-05 17:24:10,035965
-2,0,-1,-2,-1,-1,-1,-1,2021-08-05 17:24:10,035965
-6,-9,-3,-8,-9,-6,-7,-8,2021-08-05 17:24:10,035965
2,7,0,1,1,0,2,5,2021-08-05 17:24:10,035965
-2,-8,-4,1,3,0,1,-2,2021-08-05 17:24:10,050982
4,5,-4,2,0,2,2,3,2021-08-05 17:24:10,050982
-1,0,4,2,0,-2,-1,-3,2021-08-05 17:24:10,066043
-1,-3,3,-5,-3,-2,0,-1,2021-08-05 17:24:10,081916
2,4,-1,-1,-4,-3,-3,-1,2021-08-05 17:24:10,097891
-1,2,0,-2,-2,0,-2,0,2021-08-05 17:24:10,098140
1,1,-4,1,2,3,1,2,2021-08-05 17:24:10,098140
-5,-5,-4,-1,-2,-1,-1,-2,2021-08-05 17:24:10,098140
-4,-2,0,-2,-3,-4,-2,-4,2021-08-05 17:24:10,098140
-1,3,-2,-3,0,1,0,0,2021-08-05 17:24:10,098140
-1,-11,1,1,1,0,1,2,2021-08-05 17:24:10,098140
-2,13,0,0,0,0,0,-1,2021-08-05 17:24:10,098891
-1,0,-7,-3,-1,-1,-2,-1,2021-08-05 17:24:10,113596
-3,-10,-2,-1,0,-2,-4,-3,2021-08-05 17:24:10,113596
1,14,-1,1,-2,0,0,0,2021-08-05 17:24:10,129476
0,-10,-3,-3,-3,-3,-1,-1,2021-08-05 17:24:10,144486
-5,-3,4,4,0,1,1,-1,2021-08-05 17:24:10,144486
3,10,-4,-2,-3,-2,-1,0,2021-08-05 17:24:10,144486
-2,-8,-2,-1,-1,-3,-4,-3,2021-08-05 17:24:10,144812
0,-1,1,3,0,0,1,1,2021-08-05 17:24:10,144926
0,4,0,0,0,-1,-2,-1,2021-08-05 17:24:10,144926
1,1,2,2,-1,-1,0,0,2021-08-05 17:24:10,144926
-2,-7,-3,-4,-3,0,-2,-1,2021-08-05 17:24:10,160547
-1,0,-1,-1,-2,-2,-2,-2,2021-08-05 17:24:10,160547
-1,-5,-2,-3,-1,0,-2,0,2021-08-05 17:24:10,176455
-3,-3,0,1,-2,2,0,0,2021-08-05 17:24:10,176455
4,10,7,0,-2,0,-2,-1,2021-08-05 17:24:10,176455
-3,-1,1,-1,1,2,-3,1,2021-08-05 17:24:10,176455
0,-5,0,-4,0,0,0,0,2021-08-05 17:24:10,191432
-3,-3,-7,-6,-3,-3,-4,-4,2021-08-05 17:24:10,206707
1,-3,-5,3,3,3,4,3,2021-08-05 17:24:10,222540
-3,-6,-4,-3,-3,-3,-3,-5,2021-08-05 17:24:10,222540
-1,-2,2,0,1,0,-1,0,2021-08-05 17:24:10,222540
0,-3,-2,4,3,0,1,3,2021-08-05 17:24:10,222540
0,-2,4,2,-2,-5,-3,-2,2021-08-05 17:24:10,222540
4,16,2,5,2,5,5,6,2021-08-05 17:24:10,222540
-2,-22,-8,-6,-5,-3,-3,-4,2021-08-05 17:24:10,222540
2,26,-1,-4,-2,-2,-1,-3,2021-08-05 17:24:10,223475
4,2,8,2,1,1,2,6,2021-08-05 17:24:10,253692
-1,-5,2,0,-2,-4,-5,0,2021-08-05 17:24:10,269662
-6,-22,0,3,1,0,-1,-2,2021-08-05 17:24:10,269662
2,11,1,1,-1,-1,0,1,2021-08-05 17:24:10,269662
-3,-9,-6,-2,-2,0,-1,-3,2021-08-05 17:24:10,269662
-6,2,-2,-4,-4,-6,-6,-6,2021-08-05 17:24:10,269662
5,6,0,1,3,3,4,10,2021-08-05 17:24:10,269662
-1,-11,-2,-1,-2,-1,0,-1,2021-08-05 17:24:10,269662
-3,1,7,-2,-1,-1,-1,-3,2021-08-05 17:24:10,285718
1,-4,-11,2,3,1,1,2,2021-08-05 17:24:10,285718
-1,4,0,-1,-1,-2,-2,-4,2021-08-05 17:24:10,285718
-8,-9,-3,-4,-5,-6,-6,-8,2021-08-05 17:24:10,285718
6,2,3,4,4,3,4,9,2021-08-05 17:24:10,317653
-3,-5,0,-3,-3,-3,-3,-4,2021-08-05 17:24:10,317653
0,7,-3,-3,-4,0,0,-3,2021-08-05 17:24:10,317653
-4,-2,-1,-3,-2,-3,-3,-5,2021-08-05 17:24:10,318022
-8,-12,-4,-4,-6,-5,-4,-6,2021-08-05 17:24:10,318127
2,1,-5,1,3,0,0,4,2021-08-05 17:24:10,318127
0,13,6,5,-1,0,-1,-1,2021-08-05 17:24:10,318127
4,-4,0,3,4,4,5,6,2021-08-05 17:24:10,318127
-4,-5,-5,-6,-3,-4,-3,-6,2021-08-05 17:24:10,347745
-1,-2,3,1,0,2,1,0,2021-08-05 17:24:10,363695
-2,4,-2,-4,-3,-3,-4,-2,2021-08-05 17:24:10,363793
-5,-1,2,-2,-3,-4,-4,-5,2021-08-05 17:24:10,363793
-5,-16,-6,1,-1,-1,-1,-1,2021-08-05 17:24:10,363990
1,15,-1,-1,-3,-2,2,0,2021-08-05 17:24:10,364102
-3,-6,-14,-10,-3,1,-2,-5,2021-08-05 17:24:10,364234
4,6,5,-3,-2,0,0,2,2021-08-05 17:24:10,364415
-3,3,-8,-9,-4,-4,-3,-2,2021-08-05 17:24:10,393633
0,-10,9,6,4,2,3,2,2021-08-05 17:24:10,393633
-4,-6,3,9,1,-2,1,-1,2021-08-05 17:24:10,393633
2,6,-5,0,-1,-1,0,1,2021-08-05 17:24:10,393633
1,10,-1,-9,-9,-6,-4,-4,2021-08-05 17:24:10,409481
-1,-8,-5,0,2,-2,-1,2,2021-08-05 17:24:10,409481
-3,-3,2,-2,-2,-1,-2,-2,2021-08-05 17:24:10,425461
0,-3,15,4,3,3,1,0,2021-08-05 17:24:10,425461
-2,-10,-17,2,1,1,1,2,2021-08-05 17:24:10,425461
-2,-2,-6,-6,-4,-1,-1,-2,2021-08-05 17:24:10,425461
4,5,5,4,3,1,3,2,2021-08-05 17:24:10,425461
-3,-2,6,-4,-2,-1,0,-2,2021-08-05 17:24:10,425461
5,7,-2,7,6,7,5,4,2021-08-05 17:24:10,455427
0,-1,-5,-5,-4,-2,-2,-1,2021-08-05 17:24:10,470454
-1,-2,5,-4,-3,-5,-4,-2,2021-08-05 17:24:10,486530
2,-8,-10,-3,-1,-2,-2,-2,2021-08-05 17:24:10,486680
-1,4,14,7,2,0,-1,-1,2021-08-05 17:24:10,486796
-6,-11,-12,-2,-3,-4,-1,-4,2021-08-05 17:24:10,486796
-1,3,-13,-6,-2,-1,-1,-4,2021-08-05 17:24:10,486955
3,-3,4,-1,0,3,2,4,2021-08-05 17:24:10,487038
-1,-1,-3,-8,-4,-3,-4,-4,2021-08-05 17:24:10,487128
-6,9,13,5,-1,-1,-2,-5,2021-08-05 17:24:10,487128
1,-1,14,5,4,1,1,5,2021-08-05 17:24:10,487427
-3,-12,-26,-5,-3,-2,-2,-2,2021-08-05 17:24:10,487427
0,-1,-2,0,4,1,2,0,2021-08-05 17:24:10,517535
1,2,5,-2,-2,0,-1,-1,2021-08-05 17:24:10,517535
-2,1,8,1,1,0,2,1,2021-08-05 17:24:10,517535
-4,1,-7,1,0,-1,-3,-3,2021-08-05 17:24:10,517535
0,7,5,-2,-3,-3,-3,-3,2021-08-05 17:24:10,532585
1,32,18,-1,0,0,0,0,2021-08-05 17:24:10,548555
1,-31,-27,-2,-1,3,1,4,2021-08-05 17:24:10,563527
0,3,3,0,0,-1,0,0,2021-08-05 17:24:10,594426
-4,-8,2,-1,-4,-4,-4,-4,2021-08-05 17:24:10,641480
0,21,14,1,-1,-1,-2,-4,2021-08-05 17:24:10,657480
0,16,-5,2,2,0,1,3,2021-08-05 17:24:10,657691
-1,-23,-12,-1,-3,-2,-1,-1,2021-08-05 17:24:10,657691
0,0,-6,-4,-1,-1,0,3,2021-08-05 17:24:10,657966
3,-2,1,1,2,1,-1,0,2021-08-05 17:24:10,657966
4,11,5,0,3,2,1,3,2021-08-05 17:24:10,658253
-4,-17,8,1,2,0,1,-2,2021-08-05 17:24:10,658338
4,45,-1,2,2,2,0,1,2021-08-05 17:24:10,658434
-4,-55,-14,-4,-5,-2,-2,-4,2021-08-05 17:24:10,658569
-2,7,2,-3,-2,-3,-4,-1,2021-08-05 17:24:10,658669
2,15,2,0,-1,-1,0,1,2021-08-05 17:24:10,658669
4,4,4,3,3,2,1,6,2021-08-05 17:24:10,658669
-4,-8,-10,-4,-4,-4,-4,-2,2021-08-05 17:24:10,658669
-1,2,-4,-2,0,1,-2,-3,2021-08-05 17:24:10,658669
-2,-2,3,0,-1,-1,-2,-3,2021-08-05 17:24:10,658669
1,-5,1,0,0,2,1,-1,2021-08-05 17:24:10,658669
-4,-4,-12,-2,-3,-4,-1,-4,2021-08-05 17:24:10,658669
-2,-33,1,0,0,1,0,1,2021-08-05 17:24:10,659455
-1,12,2,-1,-2,-2,-2,-2,2021-08-05 17:24:10,673468
-1,-3,14,-2,-5,-4,-2,-1,2021-08-05 17:24:10,693428
-4,-8,-24,-6,-4,-2,-4,-3,2021-08-05 17:24:10,693428
2,13,4,-1,-3,-2,-1,-3,2021-08-05 17:24:10,693428
1,-6,14,4,2,2,2,3,2021-08-05 17:24:10,693428
0,16,5,6,3,2,2,2,2021-08-05 17:24:10,693428
0,-32,-15,-6,-4,-1,0,-1,2021-08-05 17:24:10,694430
0,-4,-26,-5,-1,0,0,-1,2021-08-05 17:24:10,694430
-1,13,-2,-8,-7,-3,-4,-4,2021-08-05 17:24:10,694430
-2,-33,7,0,-2,-1,-3,-2,2021-08-05 17:24:10,694430
0,41,21,6,5,2,1,5,2021-08-05 17:24:10,694430
-4,-12,2,2,-1,-3,-3,-4,2021-08-05 17:24:10,694430
-3,-11,-5,-3,-2,-2,-2,-1,2021-08-05 17:24:10,694430
-2,2,-6,-2,1,2,0,-2,2021-08-05 17:24:10,694430
4,5,3,1,2,1,3,5,2021-08-05 17:24:10,694430
-3,-8,1,-3,-4,-2,-2,-4,2021-08-05 17:24:10,719457
-3,8,2,1,-3,-4,-3,-4,2021-08-05 17:24:10,719457
-2,-2,-5,-2,-1,-2,-2,-1,2021-08-05 17:24:10,719823
1,-8,-3,1,2,3,2,0,2021-08-05 17:24:10,719939
-3,8,1,-4,-6,-4,-3,-5,2021-08-05 17:24:10,720044
5,24,9,6,5,4,5,6,2021-08-05 17:24:10,720044
-3,-25,-10,-3,-4,-4,-2,-3,2021-08-05 17:24:10,750457
0,-15,-6,-4,-3,-2,0,-1,2021-08-05 17:24:10,750632
12,47,9,5,8,4,5,11,2021-08-05 17:24:10,750632
-3,-29,-7,-5,-6,-3,-4,-2,2021-08-05 17:24:10,750632
-3,-5,-8,0,1,1,2,-1,2021-08-05 17:24:10,765458
-1,8,8,0,1,2,0,-1,2021-08-05 17:24:10,781481
-4,6,4,0,-2,-2,-3,-2,2021-08-05 17:24:10,797531
1,-1,-5,1,-1,-4,-6,-7,2021-08-05 17:24:10,797531
1,3,3,-2,-5,-4,-4,-1,2021-08-05 17:24:10,797531
0,-6,-2,-4,-4,-5,-4,-1,2021-08-05 17:24:10,797531
-2,7,2,-3,-4,-5,-4,-4,2021-08-05 17:24:10,797531
-2,-18,-10,-2,2,2,3,3,2021-08-05 17:24:10,797531
2,-3,-12,-5,-1,1,1,2,2021-08-05 17:24:10,798278
0,2,0,0,2,0,2,0,2021-08-05 17:24:10,798386
-6,-6,-2,-2,-2,-1,-3,-3,2021-08-05 17:24:10,798528
7,9,7,4,6,4,4,6,2021-08-05 17:24:10,798528
1,3,1,3,3,2,1,3,2021-08-05 17:24:10,844459
0,5,-2,-1,-2,1,-1,2,2021-08-05 17:24:10,860459
-5,-12,10,-1,-2,-4,-3,-2,2021-08-05 17:24:10,876540
2,-6,-14,-3,0,1,2,2,2021-08-05 17:24:10,876540
-1,-1,-4,-3,-3,-3,-2,-5,2021-08-05 17:24:10,876540
-1,-1,5,0,-1,-3,-1,1,2021-08-05 17:24:10,876540
-3,1,5,1,-2,0,-1,-4,2021-08-05 17:24:10,876540
-4,19,-12,-2,-4,-4,-3,-8,2021-08-05 17:24:10,876540
-3,-26,1,-2,0,0,2,2,2021-08-05 17:24:10,876540
-3,24,-10,-2,-2,-1,-1,-2,2021-08-05 17:24:10,876540
-2,-34,-3,-5,-6,-3,-4,-1,2021-08-05 17:24:10,877497
2,12,8,4,2,0,0,2,2021-08-05 17:24:10,877497
1,15,2,-1,-2,-1,-2,-1,2021-08-05 17:24:10,891591
-5,-1,0,-2,-2,-2,-2,-3,2021-08-05 17:24:10,906687
4,0,-5,2,2,2,3,3,2021-08-05 17:24:10,906687
-5,15,11,-3,-3,-4,-2,-2,2021-08-05 17:24:10,906879
-7,-22,-13,-4,-1,-3,-2,-3,2021-08-05 17:24:10,906879
2,18,12,3,1,2,-2,1,2021-08-05 17:24:10,907097
-3,-36,-4,-3,-3,-2,-3,-3,2021-08-05 17:24:10,907199
-3,-9,-17,-4,-4,-1,-2,0,2021-08-05 17:24:10,907370
-8,13,3,-6,-9,-5,-6,-8,2021-08-05 17:24:10,922523
2,-9,-1,2,3,1,0,-2,2021-08-05 17:24:10,922523
3,20,0,0,2,3,4,6,2021-08-05 17:24:10,922523
-3,-4,5,0,0,-1,0,-3,2021-08-05 17:24:10,938522
-2,-9,-6,-1,1,-1,0,-1,2021-08-05 17:24:10,954459
3,-4,0,0,0,0,0,1,2021-08-05 17:24:10,954459
-3,4,-3,-2,-3,-3,-3,-2,2021-08-05 17:24:10,954459
-1,-11,3,-1,0,-2,0,1,2021-08-05 17:24:10,954894
0,6,-10,-2,-1,-1,0,-1,2021-08-05 17:24:10,955101
0,-7,2,-1,1,-1,0,1,2021-08-05 17:24:10,955101
0,10,1,1,-1,0,-1,-2,2021-08-05 17:24:10,969494
-2,-6,-2,-2,-2,-2,-3,-3,2021-08-05 17:24:10,985615
0,9,2,-1,-3,-2,-3,-1,2021-08-05 17:24:11,001510
3,-23,5,6,5,6,3,5,2021-08-05 17:24:11,001510
-5,-2,-4,-2,1,-1,2,2,2021-08-05 17:24:11,001510
-1,-4,-8,0,1,1,0,1,2021-08-05 17:24:11,001510
-5,1,9,-2,-4,-5,-5,-5,2021-08-05 17:24:11,013559
3,6,-4,0,3,2,1,3,2021-08-05 17:24:11,013559
1,24,7,-1,-2,-1,-1,-3,2021-08-05 17:24:11,014518
2,-39,0,0,1,1,0,3,2021-08-05 17:24:11,014518
-1,-8,-7,3,3,0,1,0,2021-08-05 17:24:11,032563
-6,-4,-9,-7,-7,-5,-4,-5,2021-08-05 17:24:11,047625
-2,1,-2,0,-1,-2,-2,-4,2021-08-05 17:24:11,047825
-1,23,14,-3,-5,-5,-4,-4,2021-08-05 17:24:11,047825
3,3,-2,2,3,3,2,2,2021-08-05 17:24:11,047825
-1,-14,-15,-2,1,-2,-1,-1,2021-08-05 17:24:11,047825
-3,-10,-11,-3,-3,-1,1,-1,2021-08-05 17:24:11,047825
0,6,3,-2,-2,0,-2,0,2021-08-05 17:24:11,047825
2,-1,5,1,0,0,1,1,2021-08-05 17:24:11,078560
-3,5,2,-5,-6,-5,-3,-3,2021-08-05 17:24:11,094570
0,22,2,-1,1,-1,0,0,2021-08-05 17:24:11,110556
-4,-38,-8,0,0,-1,0,-3,2021-08-05 17:24:11,126645
4,46,19,6,4,3,3,6,2021-08-05 17:24:11,126645
-3,-37,-17,-3,-2,-5,-2,-1,2021-08-05 17:24:11,126645
-1,-13,-10,0,-1,-2,-2,-2,2021-08-05 17:24:11,126980
-2,16,1,-5,-7,-5,-3,-4,2021-08-05 17:24:11,126980
-2,3,7,-2,-5,-4,-3,-4,2021-08-05 17:24:11,126980
3,8,10,4,4,3,1,2,2021-08-05 17:24:11,126980
-3,0,5,0,-1,-3,-2,-1,2021-08-05 17:24:11,126980
2,5,-10,2,3,1,2,2,2021-08-05 17:24:11,126980
-4,-16,-6,-4,-5,-4,-3,-5,2021-08-05 17:24:11,127529
1,7,5,2,-1,-2,-1,0,2021-08-05 17:24:11,127529
0,-9,1,-1,0,1,-1,1,2021-08-05 17:24:11,127872
1,18,-6,-1,0,-1,-2,-1,2021-08-05 17:24:11,128013
-1,-36,-9,-2,0,2,-1,0,2021-08-05 17:24:11,142561
-4,20,18,0,-4,-1,-3,-5,2021-08-05 17:24:11,158564
-1,-20,-16,1,3,4,1,1,2021-08-05 17:24:11,174667
-2,-15,-10,-3,-5,-2,-3,-3,2021-08-05 17:24:11,174667
1,11,3,-5,-4,-3,-2,-2,2021-08-05 17:24:11,174667
-1,-5,-18,-2,-2,-2,-1,1,2021-08-05 17:24:11,174667
2,3,12,1,1,1,0,1,2021-08-05 17:24:11,174667
1,69,21,3,3,0,1,0,2021-08-05 17:24:11,174667
-3,-73,-26,1,4,0,2,2,2021-08-05 17:24:11,190669
-4,6,1,-5,-7,-4,-3,-5,2021-08-05 17:24:11,206571
0,14,6,-1,-2,-4,-3,-3,2021-08-05 17:24:11,221520
-3,-12,-9,-5,-2,-2,-1,-1,2021-08-05 17:24:11,236672
3,29,9,4,1,1,0,5,2021-08-05 17:24:11,236820
-4,-8,1,-4,-5,-5,-4,-6,2021-08-05 17:24:11,236820
5,3,-7,2,4,5,1,3,2021-08-05 17:24:11,236820
2,-1,7,1,1,4,4,5,2021-08-05 17:24:11,236820
-2,8,9,0,0,0,-2,-4,2021-08-05 17:24:11,236820
-2,-17,-2,-4,-3,-3,-1,0,2021-08-05 17:24:11,236820
-6,-5,-20,-5,-4,-4,-4,-6,2021-08-05 17:24:11,252681
2,-6,4,2,2,1,-1,2,2021-08-05 17:24:11,252681
0,-1,1,1,0,2,3,3,2021-08-05 17:24:11,268600
7,22,0,4,4,3,3,5,2021-08-05 17:24:11,268753
-5,-17,6,-2,-4,-5,-3,-4,2021-08-05 17:24:11,268753
-3,-25,-11,0,0,-2,0,1,2021-08-05 17:24:11,268753
-2,6,-14,-3,-4,-2,-3,-6,2021-08-05 17:24:11,284557
4,8,12,2,2,2,0,0,2021-08-05 17:24:11,284557
-1,2,-3,0,-2,-1,-1,-2,2021-08-05 17:24:11,300639
-2,-15,10,0,-2,-1,-3,-2,2021-08-05 17:24:11,316622
2,-14,-23,-1,2,3,2,5,2021-08-05 17:24:11,332736
-3,1,-4,-5,-3,-3,-3,-4,2021-08-05 17:24:11,332736
2,18,6,-1,0,1,-1,0,2021-08-05 17:24:11,332736
-1,-20,6,1,-1,-2,-2,-4,2021-08-05 17:24:11,332736
-5,9,0,-6,-7,-7,-6,-5,2021-08-05 17:24:11,332736
2,-2,-15,1,6,3,5,3,2021-08-05 17:24:11,332736
-1,-3,3,3,3,1,0,3,2021-08-05 17:24:11,333624
-1,8,1,0,0,1,1,0,2021-08-05 17:24:11,333624
2,23,3,1,0,0,-1,0,2021-08-05 17:24:11,333624
-5,-31,-3,-3,-2,-1,-2,0,2021-08-05 17:24:11,333624
-1,4,1,-5,-7,-5,-4,-4,2021-08-05 17:24:11,333624
0,-3,-5,0,-1,-1,-2,-4,2021-08-05 17:24:11,333624
4,3,2,0,0,3,2,5,2021-08-05 17:24:11,348656
-2,10,0,-2,-4,-4,-2,-4,2021-08-05 17:24:11,348656
1,-5,1,3,2,2,3,2,2021-08-05 17:24:11,348970
-2,2,-5,-2,-2,-1,-3,-2,2021-08-05 17:24:11,348970
-2,8,17,-2,-3,-1,0,-1,2021-08-05 17:24:11,378659
1,-4,-13,2,1,3,1,0,2021-08-05 17:24:11,394804
-2,15,2,-3,-2,-2,0,2,2021-08-05 17:24:11,394953
0,-40,-18,-3,-1,-2,0,1,2021-08-05 17:24:11,394953
0,-7,3,-1,0,-2,-3,-3,2021-08-05 17:24:11,394953
-4,3,5,-2,-2,-3,-3,-2,2021-08-05 17:24:11,394953
6,22,4,4,4,3,3,1,2021-08-05 17:24:11,394953
2,4,2,0,1,2,3,3,2021-08-05 17:24:11,394953
-3,-11,-3,-2,-1,1,-2,0,2021-08-05 17:24:11,410719
-1,30,1,-3,-6,-3,-3,-4,2021-08-05 17:24:11,426670
-2,-38,-2,0,0,-2,-1,1,2021-08-05 17:24:11,441675
-2,19,0,-3,-2,-3,-2,-1,2021-08-05 17:24:11,457761
0,-2,-6,-3,-3,-3,-3,-1,2021-08-05 17:24:11,472911
1,-1,4,2,2,1,1,0,2021-08-05 17:24:11,472911
0,-3,-3,4,6,3,3,3,2021-08-05 17:24:11,473228
-1,-3,-2,-4,-1,-1,-3,-3,2021-08-05 17:24:11,473380
-1,-1,-1,-1,0,-1,0,-2,2021-08-05 17:24:11,473534
-4,2,2,-2,-5,-3,-4,-3,2021-08-05 17:24:11,473622
-4,-4,5,-2,-4,-3,-2,-4,2021-08-05 17:24:11,473622
-5,-5,-11,-3,-4,-4,-2,-3,2021-08-05 17:24:11,473622
1,-3,-5,1,3,3,4,0,2021-08-05 17:24:11,488679
0,-7,-1,0,0,-1,0,-2,2021-08-05 17:24:11,504510
0,7,6,0,0,-1,-2,-1,2021-08-05 17:24:11,504610
-5,1,-2,-3,-5,-2,-2,-4,2021-08-05 17:24:11,504610
-3,12,8,-3,-3,-3,-3,-2,2021-08-05 17:24:11,504610
2,-14,0,6,6,2,4,4,2021-08-05 17:24:11,504610
1,-5,-16,-3,-1,0,0,1,2021-08-05 17:24:11,504610
-1,16,11,0,-3,-1,-1,-1,2021-08-05 17:24:11,504610
-1,-6,-6,-1,1,-1,-1,-1,2021-08-05 17:24:11,504610
1,45,1,5,4,2,3,3,2021-08-05 17:24:11,505411
-1,-23,9,1,-1,-1,-1,-4,2021-08-05 17:24:11,505421
-2,-32,-17,1,2,1,1,1,2021-08-05 17:24:11,505421
-2,-2,-1,-6,-7,-7,-5,-5,2021-08-05 17:24:11,535411
-2,1,3,-6,-3,-4,-1,1,2021-08-05 17:24:11,551410
6,17,-14,-4,1,2,1,4,2021-08-05 17:24:11,551410
0,6,13,2,1,1,0,0,2021-08-05 17:24:11,551410
-1,4,11,5,2,3,1,1,2021-08-05 17:24:11,551410
-2,-19,-19,3,5,3,1,1,2021-08-05 17:24:11,551410
-7,-5,0,-7,-8,-5,-7,-10,2021-08-05 17:24:11,551410
3,23,7,2,1,-1,-2,0,2021-08-05 17:24:11,551410
6,-16,-3,1,2,-3,-1,0,2021-08-05 17:24:11,566558
2,-5,3,-1,-1,0,1,1,2021-08-05 17:24:11,582514
0,-9,-3,0,-3,-2,-1,1,2021-08-05 17:24:11,582660
-5,9,-6,-4,-1,-1,-2,-4,2021-08-05 17:24:11,582869
-6,26,6,-2,-1,-1,1,-2,2021-08-05 17:24:11,582869
4,-46,7,1,3,4,3,3,2021-08-05 17:24:11,583026
-3,-7,-18,-3,-2,-2,0,-3,2021-08-05 17:24:11,583026
1,17,5,-2,-1,-3,-1,-2,2021-08-05 17:24:11,583026
0,-16,-16,0,2,3,0,0,2021-08-05 17:24:11,612445
0,6,14,-2,-5,-3,-3,-4,2021-08-05 17:24:11,628511
-2,-1,-11,-3,1,-1,0,1,2021-08-05 17:24:11,628511
4,-1,2,2,1,0,1,2,2021-08-05 17:24:11,628511
-3,12,5,-1,1,-1,0,0,2021-08-05 17:24:11,628511
-4,-36,5,-2,-4,-3,-2,-2,2021-08-05 17:24:11,628511
-4,-7,-11,-2,-3,-2,-2,-3,2021-08-05 17:24:11,644450
6,7,0,3,0,1,1,2,2021-08-05 17:24:11,654411
-2,7,12,1,-1,-2,-2,-1,2021-08-05 17:24:11,654411
0,5,-24,-2,0,1,1,1,2021-08-05 17:24:11,654411
-1,0,11,1,-4,-1,-1,-3,2021-08-05 17:24:11,654411
-5,-18,-3,-3,-3,-2,-1,-4,2021-08-05 17:24:11,654411
3,5,-17,-4,-3,-1,-1,1,2021-08-05 17:24:11,675600
1,13,14,2,-2,-3,-2,0,2021-08-05 17:24:11,691452
0,-8,-3,-1,1,1,-1,0,2021-08-05 17:24:11,707447
3,11,10,4,5,2,4,7,2021-08-05 17:24:11,707447
-1,13,10,0,-3,-2,-2,-2,2021-08-05 17:24:11,707447
-8,-28,-28,-2,-1,0,-1,-2,2021-08-05 17:24:11,707447
-2,-1,5,-2,-4,-2,0,-2,2021-08-05 17:24:11,707447
-2,1,4,-3,-5,-4,-5,-2,2021-08-05 17:24:11,707447
0,3,-2,3,2,1,0,-2,2021-08-05 17:24:11,707447
1,-15,1,-1,1,0,0,0,2021-08-05 17:24:11,707447
-5,-20,-11,-5,-2,-4,-4,-6,2021-08-05 17:24:11,707447
4,8,-2,-3,1,-1,3,3,2021-08-05 17:24:11,708447
-3,-21,-7,-7,-6,-6,-4,-5,2021-08-05 17:24:11,737522
-3,33,0,-3,-5,-6,-6,-5,2021-08-05 17:24:11,753446
5,10,11,9,6,6,6,6,2021-08-05 17:24:11,768453
-3,-17,-2,-1,-4,-2,0,-2,2021-08-05 17:24:11,783463
2,9,14,2,2,1,0,1,2021-08-05 17:24:11,799593
-1,37,-11,0,-1,0,0,-3,2021-08-05 17:24:11,799727
-2,-37,-1,-2,0,-2,0,1,2021-08-05 17:24:11,799837
-5,-2,-9,-1,-1,0,-3,-5,2021-08-05 17:24:11,799837
3,-2,-5,-3,-3,-1,0,0,2021-08-05 17:24:11,799837
-2,13,19,-3,-4,-3,-4,-4,2021-08-05 17:24:11,799837
4,62,15,4,2,1,1,2,2021-08-05 17:24:11,799837
-5,-56,-32,-5,-2,-1,-1,-1,2021-08-05 17:24:11,799837
-1,-9,-7,-1,0,1,-1,-3,2021-08-05 17:24:11,799837
2,-6,7,1,0,0,0,1,2021-08-05 17:24:11,799837
-2,17,3,-2,-2,-3,-4,-1,2021-08-05 17:24:11,800412
0,9,11,0,-1,1,-1,-1,2021-08-05 17:24:11,800412
0,-3,-6,1,2,2,3,4,2021-08-05 17:24:11,830614
-1,4,-10,-3,-3,-1,1,3,2021-08-05 17:24:11,830705
-3,-10,9,-1,-3,-3,-2,-3,2021-08-05 17:24:11,830895
0,5,3,-1,-2,-3,-4,-4,2021-08-05 17:24:11,831006
-5,-33,-23,-5,0,-2,-1,0,2021-08-05 17:24:11,831177
1,18,7,2,2,1,-1,-2,2021-08-05 17:24:11,831177
1,-3,0,-1,-1,0,-1,1,2021-08-05 17:24:11,831294
-1,3,5,0,1,1,2,-1,2021-08-05 17:24:11,831404
0,5,0,0,-1,0,1,1,2021-08-05 17:24:11,845666
-1,-24,5,3,3,0,3,0,2021-08-05 17:24:11,861685
-5,-13,-27,-7,-8,-6,-4,-6,2021-08-05 17:24:11,877644
4,16,5,-3,-2,-1,0,3,2021-08-05 17:24:11,877644
-2,54,6,-2,-5,-3,-3,-4,2021-08-05 17:24:11,877983
-4,-48,6,-1,1,-1,-1,-1,2021-08-05 17:24:11,878083
1,-12,-1,6,3,3,3,3,2021-08-05 17:24:11,878083
1,10,-17,0,-2,0,-1,0,2021-08-05 17:24:11,878310
-5,-11,3,-4,-5,-3,-4,-3,2021-08-05 17:24:11,892614
-2,17,5,-4,-7,-5,-5,-4,2021-08-05 17:24:11,907653
-2,9,-1,-2,0,1,-1,-1,2021-08-05 17:24:11,907904
1,-11,7,2,1,1,1,1,2021-08-05 17:24:11,907986
5,-6,-5,2,3,3,2,1,2021-08-05 17:24:11,923717
-2,-2,-4,-1,-1,-1,-1,-4,2021-08-05 17:24:11,923717
-2,-4,2,-2,-2,-2,-4,-3,2021-08-05 17:24:11,923717
-3,-3,7,-1,-1,-1,-2,-2,2021-08-05 17:24:11,923717
-1,-15,-11,-5,-3,-3,-1,-2,2021-08-05 17:24:11,924178
1,15,1,-1,-2,0,-1,-3,2021-08-05 17:24:11,924178
0,-1,0,-1,-1,0,0,0,2021-08-05 17:24:11,924178
-1,-35,-15,-2,-2,0,0,-1,2021-08-05 17:24:11,924426
-2,44,18,3,-2,-1,-1,-2,2021-08-05 17:24:11,939780
-1,-66,-12,-5,-2,-3,-3,-1,2021-08-05 17:24:11,939887
-2,5,2,-1,-1,2,1,2,2021-08-05 17:24:11,939887
4,19,-2,5,7,5,4,4,2021-08-05 17:24:11,939887
-2,-23,-7,-3,-2,-3,-1,-1,2021-08-05 17:24:11,971828
1,18,-3,0,-2,-1,-2,-3,2021-08-05 17:24:11,971828
-2,15,11,-1,0,-4,-3,-4,2021-08-05 17:24:11,972026
-1,-4,3,-1,-2,0,-1,0,2021-08-05 17:24:11,972053
1,-15,-5,4,5,3,3,3,2021-08-05 17:24:12,003749
-2,33,-2,-6,-5,-2,-2,0,2021-08-05 17:24:12,019771
1,-17,1,3,1,2,2,1,2021-08-05 17:24:12,019940
-2,1,6,0,-1,-1,-3,-4,2021-08-05 17:24:12,019940
1,-9,-18,-2,0,-1,0,-2,2021-08-05 17:24:12,019940
-3,4,7,-2,-3,-2,-2,-2,2021-08-05 17:24:12,019940
-2,4,-2,-3,-2,-3,-3,-3,2021-08-05 17:24:12,020531
-2,9,6,-2,-2,-3,0,-1,2021-08-05 17:24:12,020613
-2,-19,8,6,4,4,1,4,2021-08-05 17:24:12,020802
-4,-13,-20,-4,-3,-4,-1,-6,2021-08-05 17:24:12,020913
3,-16,-18,-5,-4,-2,-1,2,2021-08-05 17:24:12,035640
-4,33,10,-6,-8,-6,-4,-7,2021-08-05 17:24:12,050687
0,-24,2,-3,-3,-2,-1,1,2021-08-05 17:24:12,065769
1,-2,4,7,6,6,2,3,2021-08-05 17:24:12,065769
2,38,13,2,0,-1,0,-3,2021-08-05 17:24:12,065769
-4,-24,-6,0,-1,-1,-2,-1,2021-08-05 17:24:12,065769
-3,-13,-6,-1,-2,-1,-2,-2,2021-08-05 17:24:12,065769
-3,6,-2,-7,-4,-2,0,-1,2021-08-05 17:24:12,065769
0,-1,-1,1,0,0,-2,-2,2021-08-05 17:24:12,065769
2,9,-2,-1,1,-2,-1,-1,2021-08-05 17:24:12,065769
3,20,11,1,1,2,1,3,2021-08-05 17:24:12,081615
-1,-27,15,3,0,0,-1,0,2021-08-05 17:24:12,081615
-1,-14,-44,-5,1,0,1,1,2021-08-05 17:24:12,096612
-3,-12,0,-6,-5,-4,-5,-4,2021-08-05 17:24:12,096612
-2,-1,10,0,-3,-1,-4,-8,2021-08-05 17:24:12,111732
3,21,-4,2,1,0,-1,3,2021-08-05 17:24:12,111806
0,-1,8,5,1,1,-1,1,2021-08-05 17:24:12,111806
-6,0,-8,-2,-1,-1,-4,-3,2021-08-05 17:24:12,112145
1,-4,4,1,3,2,4,2,2021-08-05 17:24:12,126364
1,17,21,4,2,1,2,0,2021-08-05 17:24:12,141882
0,-16,-17,-4,-1,1,0,-2,2021-08-05 17:24:12,141882
1,20,-10,-3,-2,-1,1,1,2021-08-05 17:24:12,141882
-10,-45,4,-6,-7,-8,-8,-10,2021-08-05 17:24:12,157666
6,10,-4,4,5,3,3,6,2021-08-05 17:24:12,173711
-1,13,3,-3,-1,-3,-2,-3,2021-08-05 17:24:12,173792
2,-21,2,3,3,4,0,1,2021-08-05 17:24:12,173792
0,51,11,1,-2,0,-1,-1,2021-08-05 17:24:12,173792
1,-34,-18,-4,-4,-2,-1,0,2021-08-05 17:24:12,173792
-3,-8,-1,1,-1,0,0,-1,2021-08-05 17:24:12,173792
-1,3,2,2,-2,1,1,-1,2021-08-05 17:24:12,173792
3,10,0,1,1,2,3,1,2021-08-05 17:24:12,203795
-1,1,-4,-2,-1,-2,-1,-3,2021-08-05 17:24:12,204046
-4,0,10,-6,-7,-5,-5,-4,2021-08-05 17:24:12,204136
5,7,-1,9,8,5,1,3,2021-08-05 17:24:12,204216
-2,-7,-2,-2,-3,-3,-2,-2,2021-08-05 17:24:12,204287
-4,16,5,-2,-4,-3,-3,-3,2021-08-05 17:24:12,204287
-3,-9,-5,-4,-3,-4,0,0,2021-08-05 17:24:12,204287
-4,-8,1,-3,-2,-2,1,-1,2021-08-05 17:24:12,204602
-2,-3,-7,-1,0,-3,-3,-2,2021-08-05 17:24:12,234796
-2,6,-1,-5,-4,-6,-5,-5,2021-08-05 17:24:12,234980
3,17,2,0,0,0,-1,1,2021-08-05 17:24:12,235082
-4,-44,-11,-2,1,-1,1,-2,2021-08-05 17:24:12,235159
1,1,-8,-1,1,2,-1,1,2021-08-05 17:24:12,250829
-4,7,-2,-5,-4,-5,-4,-4,2021-08-05 17:24:12,250829
1,-9,12,5,1,0,0,-1,2021-08-05 17:24:12,251105
1,25,7,-1,-3,-3,-2,-2,2021-08-05 17:24:12,251105
1,-5,-1,1,3,-1,2,0,2021-08-05 17:24:12,280887
-1,15,-19,0,3,1,1,1,2021-08-05 17:24:12,291846
1,-20,5,0,0,2,1,1,2021-08-05 17:24:12,291846
-1,6,-1,0,-3,-3,-1,0,2021-08-05 17:24:12,291846
-1,-2,-7,-5,-4,-3,-1,-2,2021-08-05 17:24:12,291846
0,3,5,0,-2,-1,-2,-3,2021-08-05 17:24:12,292829
-1,7,4,-1,-2,-3,-1,0,2021-08-05 17:24:12,311830
-1,-6,-9,-1,1,1,0,0,2021-08-05 17:24:12,311830
-1,-8,-4,-2,-3,0,-1,-1,2021-08-05 17:24:12,312110
0,-8,-1,-2,-1,2,0,2,2021-08-05 17:24:12,312266
-2,1,3,-1,1,1,2,3,2021-08-05 17:24:12,312409
-4,-4,7,1,2,1,0,-5,2021-08-05 17:24:12,312608
1,54,7,5,4,1,0,-2,2021-08-05 17:24:12,327914
-4,-56,-7,0,-2,-4,-4,-5,2021-08-05 17:24:12,343888
3,12,-4,0,-1,-2,-3,2,2021-08-05 17:24:12,359795
3,22,16,-4,-6,-6,-5,0,2021-08-05 17:24:12,359795
2,-28,-30,-4,1,-1,0,2,2021-08-05 17:24:12,359795
-1,24,6,-5,-4,-4,-4,-4,2021-08-05 17:24:12,359795
-3,-31,0,2,2,1,2,-2,2021-08-05 17:24:12,359795
0,13,0,-1,1,1,-1,0,2021-08-05 17:24:12,359795
1,-3,1,0,-2,1,3,3,2021-08-05 17:24:12,359795
-2,-7,-9,-4,-3,-1,2,2,2021-08-05 17:24:12,359795
-2,17,12,0,-1,-2,-2,-3,2021-08-05 17:24:12,375827
1,0,-12,1,1,0,0,1,2021-08-05 17:24:12,375827
-4,-16,12,1,0,-1,-1,-1,2021-08-05 17:24:12,390926
0,-8,-9,1,1,1,0,0,2021-08-05 17:24:12,405543
-1,8,-4,-8,-5,-3,-4,-3,2021-08-05 17:24:12,405790
1,32,23,7,3,3,3,3,2021-08-05 17:24:12,405790
3,10,-13,3,2,1,1,3,2021-08-05 17:24:12,405950
-2,-40,-7,1,4,2,3,3,2021-08-05 17:24:12,405995
-2,0,-3,0,-1,-2,-4,-4,2021-08-05 17:24:12,406066
-3,-3,-9,-15,-12,-9,-8,-6,2021-08-05 17:24:12,406141
-1,8,7,2,-2,0,0,1,2021-08-05 17:24:12,453006
0,16,3,2,5,5,1,0,2021-08-05 17:24:12,468975
-1,17,4,-3,0,0,0,0,2021-08-05 17:24:12,485018
-3,-68,-11,1,1,1,1,2,2021-08-05 17:24:12,485018
-5,-11,-2,0,-4,-5,-4,-6,2021-08-05 17:24:12,485018
0,7,-4,-7,-6,-5,-5,-1,2021-08-05 17:24:12,485018
-2,-9,1,-2,-3,-3,-2,-4,2021-08-05 17:24:12,485018
3,27,3,4,10,8,6,5,2021-08-05 17:24:12,485018
0,-4,10,2,0,-1,-2,0,2021-08-05 17:24:12,485018
-3,-11,4,7,1,0,0,-2,2021-08-05 17:24:12,485018
3,45,1,5,0,1,1,1,2021-08-05 17:24:12,501030
-3,-34,-11,-6,-5,-3,-3,-5,2021-08-05 17:24:12,501030
-4,-12,-6,-2,0,-1,1,1,2021-08-05 17:24:12,501030
1,20,13,2,-1,-3,-1,0,2021-08-05 17:24:12,501030
-9,-13,-15,-13,-4,-5,-6,-7,2021-08-05 17:24:12,501030
-1,-12,-15,-1,2,3,3,4,2021-08-05 17:24:12,501030
4,13,18,7,-1,0,-2,-1,2021-08-05 17:24:12,501030
6,11,10,4,0,-1,0,2,2021-08-05 17:24:12,501030
-1,-13,-20,-7,0,3,0,-3,2021-08-05 17:24:12,516556
-17,-23,-13,-19,-7,-4,-6,-8,2021-08-05 17:24:12,532465
0,14,-4,-5,-2,-3,-3,-1,2021-08-05 17:24:12,548443
4,-19,1,7,3,1,2,3,2021-08-05 17:24:12,564431
5,-15,11,14,5,3,0,4,2021-08-05 17:24:12,564669
3,23,14,8,-2,-2,-1,1,2021-08-05 17:24:12,564669
1,1,-8,3,2,2,2,4,2021-08-05 17:24:12,564669
-7,19,-24,-28,-9,-2,-4,-6,2021-08-05 17:24:12,564899
-1,-30,10,3,-1,-2,-3,-1,2021-08-05 17:24:12,565008
3,8,0,7,3,-1,-1,2,2021-08-05 17:24:12,565008
-3,7,21,13,0,-3,-3,-3,2021-08-05 17:24:12,565322
-2,6,-9,-10,2,0,0,-1,2021-08-05 17:24:12,565322
-6,-22,-17,-1,2,-1,0,0,2021-08-05 17:24:12,565322
4,26,27,10,-4,-5,-4,-1,2021-08-05 17:24:12,565322
0,-29,1,8,3,1,1,0,2021-08-05 17:24:12,596374
-7,4,-41,-25,-5,0,-1,-4,2021-08-05 17:24:12,596374
2,10,16,3,0,-1,2,2,2021-08-05 17:24:12,596374
2,-7,4,13,8,2,1,1,2021-08-05 17:24:12,596374
-9,-9,-45,-46,-18,-8,-7,-9,2021-08-05 17:24:12,611410
-2,-6,13,3,-7,-3,-3,-4,2021-08-05 17:24:12,611673
6,13,25,19,5,0,2,4,2021-08-05 17:24:12,611781
3,-10,8,24,6,1,2,2,2021-08-05 17:24:12,617321
-3,15,-16,-18,-2,3,-1,-2,2021-08-05 17:24:12,626438
-3,-34,-20,-5,-3,0,-1,0,2021-08-05 17:24:12,641474
-2,0,1,-4,-5,-2,0,-1,2021-08-05 17:24:12,657116
4,28,31,16,0,-1,0,0,2021-08-05 17:24:12,657322
-2,-16,-6,9,3,0,-1,-1,2021-08-05 17:24:12,657322
1,11,15,-16,0,2,1,3,2021-08-05 17:24:12,657322
2,-5,-39,-2,2,3,0,-1,2021-08-05 17:24:12,657322
-8,-13,-1,-22,-11,-3,-5,-5,2021-08-05 17:24:12,657322
1,15,23,21,5,3,1,0,2021-08-05 17:24:12,657322
3,5,2,7,2,1,2,6,2021-08-05 17:24:12,657322
-6,-26,-21,-18,-3,-3,0,-4,2021-08-05 17:24:12,672451
0,6,-12,-9,-3,-1,0,0,2021-08-05 17:24:12,672451
3,1,20,4,0,-3,1,1,2021-08-05 17:24:12,688441
-2,5,5,8,-2,-5,-3,-5,2021-08-05 17:24:12,704384
-3,5,9,1,-3,-1,-4,1,2021-08-05 17:24:12,704384
-1,-23,-27,-11,0,5,1,1,2021-08-05 17:24:12,704384
3,10,6,2,0,0,0,3,2021-08-05 17:24:12,704384
1,-1,6,1,0,-1,-3,-4,2021-08-05 17:24:12,704384
1,20,1,0,-3,-3,-1,1,2021-08-05 17:24:12,704384
-2,-7,-2,-7,-1,-1,0,-2,2021-08-05 17:24:12,704384
0,-13,3,2,1,3,1,1,2021-08-05 17:24:12,734468
-3,11,-1,7,-5,-1,-1,0,2021-08-05 17:24:12,750323
5,-3,2,3,4,4,4,6,2021-08-05 17:24:12,750459
-2,17,0,-4,-3,-5,-5,-2,2021-08-05 17:24:12,750459
-2,-13,-7,-7,1,-1,0,-1,2021-08-05 17:24:12,750459
1,7,12,11,2,0,-1,-2,2021-08-05 17:24:12,750459
-5,-6,4,0,0,0,0,-3,2021-08-05 17:24:12,750459
2,1,5,-1,2,1,2,1,2021-08-05 17:24:12,750459
-3,-9,-8,7,-1,-1,0,-2,2021-08-05 17:24:12,780450
-1,4,-12,0,4,0,0,-3,2021-08-05 17:24:12,795337
-4,2,-2,-16,-12,-6,-6,-4,2021-08-05 17:24:12,811460
-2,-5,-13,-10,-5,-2,-3,-4,2021-08-05 17:24:12,811460
-4,-5,9,-2,-3,-2,-3,-3,2021-08-05 17:24:12,811460
5,5,37,32,6,2,1,6,2021-08-05 17:24:12,811460
3,2,-22,-14,2,1,3,0,2021-08-05 17:24:12,811460
-4,-15,-23,-14,-2,1,1,-1,2021-08-05 17:24:12,811460
-3,4,3,-3,-6,-7,-5,-4,2021-08-05 17:24:12,811460
-1,-16,7,13,4,4,5,5,2021-08-05 17:24:12,811460
-1,13,21,8,-1,-4,-3,-6,2021-08-05 17:24:12,812375
-1,0,-29,-16,-5,-5,-4,-5,2021-08-05 17:24:12,812530
4,3,-2,-4,3,3,4,6,2021-08-05 17:24:12,842391
-4,-7,-8,-6,-2,-3,-5,-3,2021-08-05 17:24:12,858415
-9,-3,20,12,-2,-6,-4,-5,2021-08-05 17:24:12,874440
10,16,14,17,12,6,8,10,2021-08-05 17:24:12,874440
-4,-14,-34,-27,-11,-4,-6,-7,2021-08-05 17:24:12,874440
-1,1,-1,-7,-3,-2,-3,-2,2021-08-05 17:24:12,874440
2,0,3,5,5,3,2,3,2021-08-05 17:24:12,874440
2,10,20,20,2,0,-1,0,2021-08-05 17:24:12,874440
-2,-16,-21,-10,0,-2,-2,-4,2021-08-05 17:24:12,874440
0,-2,-7,-11,-3,-2,2,1,2021-08-05 17:24:12,874440
0,6,3,2,0,-2,-4,-4,2021-08-05 17:24:12,875337
-2,2,16,9,-2,-3,-1,0,2021-08-05 17:24:12,875486
7,10,9,11,5,4,6,6,2021-08-05 17:24:12,890492
-3,-2,-35,-26,-8,-3,-2,-5,2021-08-05 17:24:12,890492
0,-9,-16,-5,-1,-1,-1,0,2021-08-05 17:24:12,890700
-6,-14,0,-3,-3,-5,-5,-4,2021-08-05 17:24:12,890700
1,13,38,23,4,0,2,1,2021-08-05 17:24:12,922472
8,7,7,12,5,2,1,1,2021-08-05 17:24:12,937438
-1,-4,-24,-15,-5,-2,-1,2,2021-08-05 17:24:12,938450
-1,-17,-28,-25,-8,-2,-1,-3,2021-08-05 17:24:12,938678
-7,3,8,-2,-6,-7,-7,-8,2021-08-05 17:24:12,938904
6,-1,17,11,5,0,-1,3,2021-08-05 17:24:12,938904
-4,-1,-10,-15,-4,-2,-2,-5,2021-08-05 17:24:12,938904
0,-7,12,16,4,3,1,3,2021-08-05 17:24:12,938904
-4,-12,6,4,0,-2,-1,-2,2021-08-05 17:24:12,954617
-1,8,-24,-16,-5,-2,-2,-3,2021-08-05 17:24:12,969548
0,-7,-5,-1,-3,-1,0,1,2021-08-05 17:24:12,969674
-1,0,0,-13,-2,-2,0,0,2021-08-05 17:24:12,969830
4,16,18,19,4,3,4,4,2021-08-05 17:24:12,969917
-5,-11,32,14,2,2,0,-2,2021-08-05 17:24:12,970049
-5,-9,-51,-37,-5,-1,-2,-6,2021-08-05 17:24:12,985540
1,2,-8,-7,-5,-3,-4,-3,2021-08-05 17:24:13,001035
-1,5,10,11,2,1,-2,1,2021-08-05 17:24:13,016634
2,0,5,7,0,-1,0,3,2021-08-05 17:24:13,032477
3,3,21,22,4,1,0,3,2021-08-05 17:24:13,032477
-6,-20,-11,-2,-2,-1,-2,-3,2021-08-05 17:24:13,032477
5,26,12,2,2,1,2,2,2021-08-05 17:24:13,032477
-5,-15,-52,-23,-7,-3,-3,-7,2021-08-05 17:24:13,032907
4,3,41,27,6,2,1,6,2021-08-05 17:24:13,032907
1,8,4,14,5,3,2,0,2021-08-05 17:24:13,032907
-2,-20,-59,-51,-8,-2,-3,-3,2021-08-05 17:24:13,032907
-7,-5,20,11,-3,-5,-4,-4,2021-08-05 17:24:13,032907
2,5,4,-3,-1,2,2,0,2021-08-05 17:24:13,032907
-2,-2,18,10,3,1,0,2,2021-08-05 17:24:13,032907
0,11,0,9,0,1,-2,-2,2021-08-05 17:24:13,048480
-1,0,-29,-32,-5,1,1,-1,2021-08-05 17:24:13,048558
-3,2,-1,-6,-3,-4,-1,-2,2021-08-05 17:24:13,063480
0,6,20,9,0,-1,-1,-1,2021-08-05 17:24:13,063480
-2,-12,41,37,6,0,0,1,2021-08-05 17:24:13,063480
-11,-7,-57,-36,-7,0,-3,-11,2021-08-05 17:24:13,063480
7,2,10,6,6,5,5,7,2021-08-05 17:24:13,079616
-1,4,-14,-8,-4,-3,-2,-3,2021-08-05 17:24:13,079835
-3,-13,-10,1,-4,-2,-3,-1,2021-08-05 17:24:13,095532
4,6,60,30,7,1,1,6,2021-08-05 17:24:13,111607
-6,-10,-58,-36,-10,-1,-4,-6,2021-08-05 17:24:13,111607
-1,0,-16,-18,-4,0,2,2,2021-08-05 17:24:13,111607
-4,-3,13,11,4,-1,-1,-4,2021-08-05 17:24:13,111971
-2,1,22,35,6,-2,-1,-1,2021-08-05 17:24:13,111971
2,-14,26,3,3,-2,-2,-2,2021-08-05 17:24:13,112149
7,39,-6,3,-2,-5,-4,-2,2021-08-05 17:24:13,112149
-2,-16,-44,-51,-13,-4,-3,-2,2021-08-05 17:24:13,143478
3,4,13,22,3,-1,2,5,2021-08-05 17:24:13,158694
-6,-10,-17,-12,-5,-4,-2,-6,2021-08-05 17:24:13,174695
5,-5,10,15,8,3,2,5,2021-08-05 17:24:13,174695
-1,0,4,5,2,2,2,1,2021-08-05 17:24:13,174695
0,-9,-8,-14,-5,-1,-1,0,2021-08-05 17:24:13,174695
-3,14,4,6,-1,-2,-3,-2,2021-08-05 17:24:13,174695
-7,-7,-6,-9,-4,-2,-3,-6,2021-08-05 17:24:13,174695
4,13,1,6,-1,-2,-2,0,2021-08-05 17:24:13,174695
0,-9,-24,-27,-2,-2,0,0,2021-08-05 17:24:13,175514
-2,2,17,15,3,-1,-2,-4,2021-08-05 17:24:13,175514
-1,-8,-7,0,-1,-1,0,0,2021-08-05 17:24:13,175514
-3,-4,-5,-2,0,-1,2,1,2021-08-05 17:24:13,189541
-3,2,19,16,0,-1,-3,-4,2021-08-05 17:24:13,204351
1,-3,-6,3,-1,3,3,3,2021-08-05 17:24:13,204351
-7,-9,-26,-39,-10,-4,-6,-9,2021-08-05 17:24:13,204351
1,-5,1,6,1,-1,-2,0,2021-08-05 17:24:13,219462
5,7,34,22,3,-2,1,3,2021-08-05 17:24:13,234401
-2,5,0,7,-1,-3,2,-1,2021-08-05 17:24:13,249598
-4,-12,-25,-19,-3,-1,2,-2,2021-08-05 17:24:13,249598
-7,-3,19,11,3,-1,-1,-3,2021-08-05 17:24:13,249598
7,2,-28,-15,-1,1,0,2,2021-08-05 17:24:13,249598
2,1,6,5,-6,-1,-1,1,2021-08-05 17:24:13,249598
-3,-3,27,25,1,-1,-1,-1,2021-08-05 17:24:13,249598
3,13,25,11,1,0,1,1,2021-08-05 17:24:13,249598
-3,-12,-56,-37,-5,-1,1,-1,2021-08-05 17:24:13,249598
0,-2,5,4,1,0,0,-1,2021-08-05 17:24:13,249598
7,3,-1,-1,2,4,3,7,2021-08-05 17:24:13,250349
2,5,15,10,1,-2,0,0,2021-08-05 17:24:13,280468
0,7,25,12,0,-1,-1,2,2021-08-05 17:24:13,280468
-2,-4,-24,-9,0,-2,-3,-4,2021-08-05 17:24:13,280468
-8,-5,-1,-15,-5,-2,-4,-2,2021-08-05 17:24:13,280468
1,-1,-4,1,-1,2,0,2,2021-08-05 17:24:13,296347
-3,4,11,15,0,-1,0,-1,2021-08-05 17:24:13,296718
-3,-1,1,-17,-4,-3,-3,-3,2021-08-05 17:24:13,296841
-5,-7,-13,-9,-5,-3,-4,-6,2021-08-05 17:24:13,296841
1,-6,22,18,2,-3,-2,2,2021-08-05 17:24:13,311151
-4,-1,-45,-21,-8,-2,-3,-6,2021-08-05 17:24:13,311433
-2,0,3,-5,-2,0,-1,-3,2021-08-05 17:24:13,311433
5,10,21,19,3,0,2,2,2021-08-05 17:24:13,311433
1,-4,-21,-14,0,1,1,2,2021-08-05 17:24:13,342209
-1,-6,6,-2,-1,-1,0,-1,2021-08-05 17:24:13,342209
-6,1,14,11,-2,-4,-4,-4,2021-08-05 17:24:13,342209
5,4,13,19,5,3,5,8,2021-08-05 17:24:13,342209
-3,-10,-49,-44,-10,-2,-5,-8,2021-08-05 17:24:13,342209
0,-1,27,16,2,-2,-1,0,2021-08-05 17:24:13,342209
0,-1,-4,2,-1,0,-2,-1,2021-08-05 17:24:13,358312
4,14,38,26,8,0,2,0,2021-08-05 17:24:13,358312
-3,-16,-56,-35,-6,0,0,-2,2021-08-05 17:24:13,389293
-2,0,7,-2,-1,0,-3,-1,2021-08-05 17:24:13,405151
-3,-1,9,-1,-5,-5,-6,-6,2021-08-05 17:24:13,405151
-5,0,4,12,0,-1,-2,-2,2021-08-05 17:24:13,405151
4,13,7,1,3,1,-1,1,2021-08-05 17:24:13,405151
-3,-6,-16,-14,-2,0,1,-1,2021-08-05 17:24:13,405151
2,-2,1,9,1,1,1,3,2021-08-05 17:24:13,405151
-5,-3,-5,-10,-4,-4,-5,-7,2021-08-05 17:24:13,405151
2,2,-2,-2,0,0,1,0,2021-08-05 17:24:13,405151
1,1,7,6,0,2,1,2,2021-08-05 17:24:13,405151
-2,3,10,5,3,1,2,1,2021-08-05 17:24:13,436298
0,-6,-33,-33,-6,0,-1,-2,2021-08-05 17:24:13,436298
-3,-2,13,4,0,-1,-2,-3,2021-08-05 17:24:13,436298
-3,6,41,38,4,-4,-5,-7,2021-08-05 17:24:13,436298
5,-11,-57,-41,-2,4,7,9,2021-08-05 17:24:13,436779
3,-1,-9,-4,0,0,0,-1,2021-08-05 17:24:13,436779
-3,-2,23,15,-2,-3,-3,-3,2021-08-05 17:24:13,451189
1,6,-2,0,0,1,0,3,2021-08-05 17:24:13,451189
-2,1,11,9,0,-1,-3,-2,2021-08-05 17:24:13,451189
-5,-8,-13,-9,-6,-4,-4,-4,2021-08-05 17:24:13,451189
-1,2,3,-4,0,1,-2,1,2021-08-05 17:24:13,467211
0,-3,11,9,4,1,-1,1,2021-08-05 17:24:13,467211
2,4,-12,-12,-3,1,1,0,2021-08-05 17:24:13,483255
-1,-6,-2,-11,-2,-2,-1,-3,2021-08-05 17:24:13,483255
2,8,8,17,1,-1,1,1,2021-08-05 17:24:13,483255
-4,-7,-10,-20,-7,-1,-2,-5,2021-08-05 17:24:13,483255
-5,-5,-13,-12,-3,-3,-3,-2,2021-08-05 17:24:13,499423
1,3,10,11,1,1,1,0,2021-08-05 17:24:13,530153
-2,-3,-7,-4,0,3,0,2,2021-08-05 17:24:13,530245
-1,-3,-2,-3,-4,-2,-2,-3,2021-08-05 17:24:13,530245
-2,11,54,39,3,-3,-3,-3,2021-08-05 17:24:13,530546
-2,-8,-55,-34,-5,3,2,-3,2021-08-05 17:24:13,530546
0,-5,-13,-7,-3,-2,0,1,2021-08-05 17:24:13,530546
1,1,1,0,0,-1,-3,1,2021-08-05 17:24:13,530546
2,4,21,18,1,-3,-3,-1,2021-08-05 17:24:13,530546
-4,1,13,12,-1,-2,-1,0,2021-08-05 17:24:13,530546
-1,-1,-20,-13,0,1,2,2,2021-08-05 17:24:13,561283
-6,-19,-6,-7,-5,-3,-4,-5,2021-08-05 17:24:13,576184
9,20,0,5,8,7,7,9,2021-08-05 17:24:13,576419
2,4,16,10,1,-1,-1,2,2021-08-05 17:24:13,576419
-1,0,-1,3,-1,-2,-3,-3,2021-08-05 17:24:13,576419
-3,2,3,0,-1,-4,-2,-2,2021-08-05 17:24:13,576419
-9,-16,-20,-19,-7,-3,-4,-6,2021-08-05 17:24:13,576419
2,2,18,21,6,2,0,4,2021-08-05 17:24:13,576419
-3,1,2,-5,-3,-3,-2,-5,2021-08-05 17:24:13,622177
-1,3,-12,-13,-4,-2,1,1,2021-08-05 17:24:13,622234
1,-1,-5,2,-2,-2,-2,-4,2021-08-05 17:24:13,622234
-1,-2,-8,-15,0,1,2,0,2021-08-05 17:24:13,622234
-4,-6,10,8,-5,-5,-3,-4,2021-08-05 17:24:13,622234
-6,-3,-4,-20,-4,-5,-4,-7,2021-08-05 17:24:13,638043
3,1,4,9,5,4,4,6,2021-08-05 17:24:13,638296
0,0,-8,-6,-3,-2,-3,-1,2021-08-05 17:24:13,638408
-3,-6,-8,-5,-2,-2,-1,-2,2021-08-05 17:24:13,638559
-1,1,7,12,1,1,1,1,2021-08-05 17:24:13,638559
-3,4,13,13,-2,-1,-4,-4,2021-08-05 17:24:13,638804
5,1,-3,-3,1,1,1,4,2021-08-05 17:24:13,638846
0,0,-1,-7,-1,-1,-1,-1,2021-08-05 17:24:13,654115
-1,0,-14,-2,-1,-2,-1,-3,2021-08-05 17:24:13,654325
1,-8,-9,-2,0,2,3,4,2021-08-05 17:24:13,654514
-1,4,18,15,3,0,0,-2,2021-08-05 17:24:13,654514
-3,-3,-11,-10,-3,-3,-1,-2,2021-08-05 17:24:13,670122
5,3,11,11,6,3,3,7,2021-08-05 17:24:13,670122
0,2,4,1,0,-1,-1,-2,2021-08-05 17:24:13,685105
-4,-3,-7,-7,-3,-2,-2,-2,2021-08-05 17:24:13,700081
-2,0,3,9,0,-2,0,-2,2021-08-05 17:24:13,716224
-1,-6,-10,-24,-2,0,0,-1,2021-08-05 17:24:13,732098
-3,-1,-5,2,0,-3,-2,-1,2021-08-05 17:24:13,747413
0,-3,3,-3,-3,-2,-2,-1,2021-08-05 17:24:13,747413
-3,-3,-6,-1,-2,0,-3,-4,2021-08-05 17:24:13,747413
3,6,5,11,1,3,4,6,2021-08-05 17:24:13,747413
-3,-5,-9,-15,1,-2,-1,-2,2021-08-05 17:24:13,748045
0,-1,5,5,0,0,-1,-1,2021-08-05 17:24:13,748045
0,4,7,3,2,0,1,3,2021-08-05 17:24:13,748045
0,-3,-14,-1,-3,-1,-3,-2,2021-08-05 17:24:13,748045
-2,-1,1,0,-3,-1,-3,-4,2021-08-05 17:24:13,748045
1,4,1,6,1,-1,0,2,2021-08-05 17:24:13,748045
-3,-9,-13,-8,0,-1,0,-3,2021-08-05 17:24:13,748045
2,5,5,2,3,1,0,1,2021-08-05 17:24:13,748045
-2,3,10,15,1,0,-1,-1,2021-08-05 17:24:13,748045
-6,-12,-25,-32,-10,-5,-4,-5,2021-08-05 17:24:13,748045
3,-6,8,8,1,1,3,3,2021-08-05 17:24:13,779042
-1,9,7,7,0,0,-2,-2,2021-08-05 17:24:13,795097
-4,-5,4,-2,-1,-2,-5,-5,2021-08-05 17:24:13,825180
-1,2,-11,7,1,1,-1,1,2021-08-05 17:24:13,825275
0,-1,-10,-12,0,0,1,0,2021-08-05 17:24:13,825275
-1,-1,0,1,0,-1,1,0,2021-08-05 17:24:13,825275
1,2,7,4,0,-1,-1,-1,2021-08-05 17:24:13,825275
1,2,15,14,1,-2,-3,0,2021-08-05 17:24:13,825275
-5,-5,-21,-20,-6,-1,-1,-4,2021-08-05 17:24:13,825275
-2,-6,0,2,-1,-1,0,-1,2021-08-05 17:24:13,825275
2,3,-4,-3,3,2,1,2,2021-08-05 17:24:13,826079
1,3,18,14,0,-1,-3,-2,2021-08-05 17:24:13,826079
-3,2,-3,-10,-5,-4,-2,-2,2021-08-05 17:24:13,841045
1,-5,-9,-7,0,1,1,3,2021-08-05 17:24:13,856262
-3,-6,-4,-3,-3,-4,-2,1,2021-08-05 17:24:13,871087
-4,-5,-9,-8,-2,-1,-1,-2,2021-08-05 17:24:13,871357
-1,5,13,13,-1,-3,-3,-1,2021-08-05 17:24:13,871510
0,-1,-2,-1,-1,-4,-1,-3,2021-08-05 17:24:13,871510
-1,0,3,2,0,2,2,0,2021-08-05 17:24:13,871510
-3,-4,-10,-21,-3,-2,-1,-2,2021-08-05 17:24:13,871510
7,5,10,8,0,1,-1,2,2021-08-05 17:24:13,871510
-2,-1,-11,-11,-2,0,0,2,2021-08-05 17:24:13,871510
-1,1,5,0,-2,-2,-1,-2,2021-08-05 17:24:13,872072
0,0,9,12,2,0,0,0,2021-08-05 17:24:13,872072
-1,7,6,0,3,-1,1,2,2021-08-05 17:24:13,902046
-4,-13,-21,-14,-4,0,-2,-3,2021-08-05 17:24:13,902345
4,6,14,10,3,1,-1,2,2021-08-05 17:24:13,902563
-4,-8,-21,-13,-5,-2,-1,-4,2021-08-05 17:24:13,902581
4,-1,5,11,2,1,1,2,2021-08-05 17:24:13,902649
-2,5,15,6,-2,-3,-3,-4,2021-08-05 17:24:13,903046
-6,-14,-21,-17,-4,0,0,-2,2021-08-05 17:24:13,916981
-1,1,2,1,-3,-3,-2,-1,2021-08-05 17:24:13,917219
2,0,6,6,6,5,3,0,2021-08-05 17:24:13,931971
-8,-5,-3,6,4,1,0,-5,2021-08-05 17:24:13,947964
-2,2,-1,-5,-2,-3,-2,-4,2021-08-05 17:24:13,963085
-5,0,5,1,-4,-5,-7,-9,2021-08-05 17:24:13,963343
4,5,-2,-4,-5,-5,-6,0,2021-08-05 17:24:13,963343
4,5,5,3,1,0,-1,4,2021-08-05 17:24:13,963465
1,-1,-7,-5,-4,0,0,1,2021-08-05 17:24:13,963623
-1,-4,1,3,1,1,2,0,2021-08-05 17:24:13,963768
-4,-2,-4,-7,-4,1,0,-4,2021-08-05 17:24:13,963854
1,2,2,4,2,2,2,1,2021-08-05 17:24:13,963928
-1,-3,-7,-8,-1,0,-3,0,2021-08-05 17:24:13,978062
0,5,20,22,2,-2,-1,-1,2021-08-05 17:24:13,994032
-1,-5,-27,-36,-1,1,2,3,2021-08-05 17:24:14,009956
1,-6,-14,-10,-4,-3,-1,0,2021-08-05 17:24:14,024967
1,3,-1,2,2,2,1,3,2021-08-05 17:24:14,025205
3,-1,-4,-2,-1,0,1,1,2021-08-05 17:24:14,025205
-5,1,19,18,0,-4,-3,-5,2021-08-05 17:24:14,025205
2,8,6,6,0,1,2,1,2021-08-05 17:24:14,025205
-3,-7,-5,-11,-4,-4,-2,-3,2021-08-05 17:24:14,025205
-1,9,-5,-2,0,0,0,-1,2021-08-05 17:24:14,025205
0,2,-8,1,1,2,0,1,2021-08-05 17:24:14,025205
0,-3,-1,-2,-3,-1,-3,0,2021-08-05 17:24:14,025964
-2,3,3,5,-4,-4,-3,-4,2021-08-05 17:24:14,040962
2,0,6,2,3,4,3,3,2021-08-05 17:24:14,056972
-4,-8,-5,0,-4,-3,-1,-5,2021-08-05 17:24:14,057165
2,1,2,1,0,-1,-1,0,2021-08-05 17:24:14,057165
-1,-3,1,-2,-1,-1,1,0,2021-08-05 17:24:14,057165
-1,-5,-8,-5,0,1,-1,0,2021-08-05 17:24:14,057165
-4,-4,-2,-2,-2,-2,-4,-2,2021-08-05 17:24:14,087964
-7,-2,6,-1,-5,-5,-5,-4,2021-08-05 17:24:14,088169
2,2,-4,0,2,1,-1,1,2021-08-05 17:24:14,088169
-5,-7,-11,-12,-3,-1,-1,-3,2021-08-05 17:24:14,088169
0,1,5,6,2,1,0,-1,2021-08-05 17:24:14,088169
-2,-1,4,0,-2,-1,-3,-4,2021-08-05 17:24:14,088169
-4,-3,-5,0,-1,-1,-1,-3,2021-08-05 17:24:14,103115
-1,-2,-4,-3,-3,-3,-1,-1,2021-08-05 17:24:14,118944
0,0,4,0,-1,-3,-2,-1,2021-08-05 17:24:14,134921
3,1,-1,-1,0,3,1,2,2021-08-05 17:24:14,150898
-1,2,2,0,-1,0,1,0,2021-08-05 17:24:14,150898
0,0,-4,0,-3,-2,-1,-2,2021-08-05 17:24:14,150898
-2,0,3,0,-2,-3,0,1,2021-08-05 17:24:14,150898
-3,-1,2,3,0,-2,-3,-4,2021-08-05 17:24:14,150898
-2,-1,-4,0,-1,-2,-1,-3,2021-08-05 17:24:14,150898
0,-17,-5,-7,0,2,0,2,2021-08-05 17:24:14,150898
2,14,5,2,-1,1,-1,0,2021-08-05 17:24:14,150898
-2,-2,-1,-4,-3,-3,-4,-5,2021-08-05 17:24:14,151896
1,0,4,4,2,-1,1,1,2021-08-05 17:24:14,151896
-3,4,2,4,0,0,-2,-2,2021-08-05 17:24:14,151896
-1,-7,-3,-5,-1,-3,0,-2,2021-08-05 17:24:14,180861
-2,-3,-6,0,0,1,0,-1,2021-08-05 17:24:14,180861
1,-2,-6,-6,-3,-2,0,1,2021-08-05 17:24:14,197004
2,5,0,0,-1,-1,-1,2,2021-08-05 17:24:14,197004
-3,-8,-2,0,-1,1,-1,-2,2021-08-05 17:24:14,212848
-3,1,7,4,0,-1,-2,-2,2021-08-05 17:24:14,212848
0,-1,-3,-11,-2,1,0,0,2021-08-05 17:24:14,212848
0,1,-12,2,3,1,2,1,2021-08-05 17:24:14,212848
0,-1,-2,-1,-3,-2,0,-2,2021-08-05 17:24:14,212848
-1,-1,-4,-1,2,-1,-1,-1,2021-08-05 17:24:14,212848
-3,0,5,1,-3,-1,-1,-2,2021-08-05 17:24:14,212848
-1,-3,1,-2,-1,0,-1,0,2021-08-05 17:24:14,212848
4,0,-6,0,2,1,2,3,2021-08-05 17:24:14,244728
-3,-2,1,-2,-5,-4,-2,-5,2021-08-05 17:24:14,244728
3,2,0,3,1,1,3,2,2021-08-05 17:24:14,244728
-1,1,1,0,-2,-1,1,0,2021-08-05 17:24:14,244728
-5,-7,-8,-4,1,-2,-1,-3,2021-08-05 17:24:14,260812
1,3,7,1,1,0,1,4,2021-08-05 17:24:14,260812
-2,-5,-5,0,-1,0,-2,-1,2021-08-05 17:24:14,260812
0,1,3,0,0,-2,-2,0,2021-08-05 17:24:14,260812
2,4,2,2,1,2,0,4,2021-08-05 17:24:14,276769
2,-2,-7,-1,0,1,2,2,2021-08-05 17:24:14,276971
-4,-2,4,6,-3,-5,-4,-3,2021-08-05 17:24:14,276971
1,1,-3,-6,-2,0,0,0,2021-08-05 17:24:14,276971
0,1,5,5,1,0,0,-1,2021-08-05 17:24:14,292865
-2,-5,-18,-13,-4,-1,-2,-1,2021-08-05 17:24:14,292865
0,-1,-2,1,2,3,0,0,2021-08-05 17:24:14,293023
-2,3,9,5,-2,-2,-3,-3,2021-08-05 17:24:14,293023
2,-2,-6,1,0,-1,0,2,2021-08-05 17:24:14,324729
1,5,5,2,2,-1,1,-2,2021-08-05 17:24:14,324729
-1,-4,-4,-3,-3,-4,-1,-2,2021-08-05 17:24:14,324729
-2,0,1,-2,-1,-3,-4,-3,2021-08-05 17:24:14,324729
-4,-5,-3,-2,-1,-2,-3,-2,2021-08-05 17:24:14,324729
-1,1,2,1,2,-1,-1,-1,2021-08-05 17:24:14,324729
2,1,-3,-1,2,2,3,3,2021-08-05 17:24:14,340763
-6,-6,-1,-2,-5,-3,-4,-8,2021-08-05 17:24:14,340763
1,0,3,0,-2,-1,1,0,2021-08-05 17:24:14,356812
0,-1,-2,-3,1,2,3,4,2021-08-05 17:24:14,356950
-2,-3,0,-5,-5,-3,-4,-3,2021-08-05 17:24:14,356950
4,6,3,6,6,3,3,3,2021-08-05 17:24:14,356950
-2,0,1,-1,-1,-3,-1,-2,2021-08-05 17:24:14,387784
2,1,2,1,-2,0,-3,-2,2021-08-05 17:24:14,402756
-5,-2,-5,-6,-4,-3,-4,-4,2021-08-05 17:24:14,418974
4,1,2,2,4,2,3,3,2021-08-05 17:24:14,419069
0,-3,-2,-1,-1,-1,-3,-3,2021-08-05 17:24:14,419069
0,4,7,5,1,-2,1,1,2021-08-05 17:24:14,419170
-3,-5,-13,-15,-3,-2,-3,-5,2021-08-05 17:24:14,419170
-1,-1,-5,-1,-3,-2,-2,1,2021-08-05 17:24:14,419384
-1,-4,-2,-2,-3,-1,-3,-1,2021-08-05 17:24:14,419384
1,-3,2,2,-1,-1,0,1,2021-08-05 17:24:14,419384
1,3,4,6,1,-1,0,-1,2021-08-05 17:24:14,419702
0,1,-2,-4,-2,-1,1,-2,2021-08-05 17:24:14,419787
-8,-8,-5,-6,-7,-7,-5,-9,2021-08-05 17:24:14,434815
7,6,6,6,6,5,6,9,2021-08-05 17:24:14,434815
0,1,2,4,-1,-3,-2,-2,2021-08-05 17:24:14,434815
-3,-1,-3,0,-1,-1,0,-1,2021-08-05 17:24:14,434815
-1,-2,-3,-3,-3,0,-1,0,2021-08-05 17:24:14,450893
-6,-5,-6,-4,-3,-4,-2,-5,2021-08-05 17:24:14,451016
3,4,7,5,4,2,4,2,2021-08-05 17:24:14,451177
-5,-4,-2,-3,-6,-3,-4,-5,2021-08-05 17:24:14,451275
-1,-5,-7,-2,3,3,3,1,2021-08-05 17:24:14,480834
-1,0,2,1,-5,-2,-1,0,2021-08-05 17:24:14,496899
-1,0,3,4,0,-1,1,1,2021-08-05 17:24:14,496899
-5,-6,-11,-8,-4,-4,-4,-6,2021-08-05 17:24:14,496899
0,0,-3,0,0,0,-1,-1,2021-08-05 17:24:14,496899
2,-1,-3,-1,2,1,-3,0,2021-08-05 17:24:14,496899
-3,-2,3,3,0,-1,-2,-5,2021-08-05 17:24:14,496899
1,1,7,4,2,1,-1,0,2021-08-05 17:24:14,496899
-2,3,0,0,1,-3,0,1,2021-08-05 17:24:14,512861
-4,-9,-9,-4,-2,-2,-1,-4,2021-08-05 17:24:14,512861
1,3,5,3,2,1,0,0,2021-08-05 17:24:14,512861
-4,-4,0,-3,-2,-2,-2,-2,2021-08-05 17:24:14,513315
0,3,-3,-3,-3,0,-1,-1,2021-08-05 17:24:14,533832
-1,6,2,0,1,0,-1,-2,2021-08-05 17:24:14,534637
-5,-6,-6,-7,-6,-4,-3,-5,2021-08-05 17:24:14,534780
5,2,1,1,1,1,4,5,2021-08-05 17:24:14,534780
-3,-3,4,1,-5,-4,-4,-6,2021-08-05 17:24:14,560909
4,3,-6,-6,-2,0,1,2,2021-08-05 17:24:14,576850
1,-2,-4,0,1,2,1,2,2021-08-05 17:24:14,591799
-2,-6,-1,1,-1,-3,0,-1,2021-08-05 17:24:14,591799
2,5,8,5,0,2,0,1,2021-08-05 17:24:14,591799
-4,-6,-1,-3,-5,-3,-4,-4,2021-08-05 17:24:14,591799
-1,-4,-5,-6,-3,-4,-5,-4,2021-08-05 17:24:14,591799
5,5,4,2,2,4,4,8,2021-08-05 17:24:14,591799
-5,-12,-4,-3,-4,-1,-2,-2,2021-08-05 17:24:14,591799
-2,-4,-1,2,0,-1,0,0,2021-08-05 17:24:14,591799
8,9,1,3,5,2,3,4,2021-08-05 17:24:14,606859
0,6,1,-3,-4,-3,-4,-6,2021-08-05 17:24:14,606859
-1,1,-2,-2,1,0,-1,0,2021-08-05 17:24:14,621977
0,0,5,3,3,3,2,4,2021-08-05 17:24:14,621977
0,2,10,7,-3,-2,-1,2,2021-08-05 17:24:14,622185
-4,-2,0,6,4,-1,-1,-1,2021-08-05 17:24:14,637839
-5,-13,-28,-35,-4,-2,-2,-3,2021-08-05 17:24:14,637839
-3,-2,-4,-3,-2,-3,-2,-4,2021-08-05 17:24:14,638011
-1,-2,-2,1,0,0,-2,-1,2021-08-05 17:24:14,638096
3,3,8,4,-4,-1,-2,0,2021-08-05 17:24:14,638096
4,9,20,19,3,-2,0,2,2021-08-05 17:24:14,652878
-5,-8,-4,-4,-1,-3,-3,-3,2021-08-05 17:24:14,652878
-1,-9,-18,-13,-2,4,2,2,2021-08-05 17:24:14,653153
-7,-7,-3,-6,-6,-3,-4,-6,2021-08-05 17:24:14,653153
-4,1,2,-6,-8,-5,-2,-4,2021-08-05 17:24:14,683824
8,12,19,19,10,5,4,6,2021-08-05 17:24:14,699864
4,10,12,10,2,0,-2,-2,2021-08-05 17:24:14,699864
-5,-10,-21,-12,-4,-1,0,-2,2021-08-05 17:24:14,699864
4,3,-2,0,0,2,3,4,2021-08-05 17:24:14,699864
-7,24,6,-9,-9,-7,-5,-7,2021-08-05 17:24:14,699864
-6,-47,-6,-2,0,-3,-2,-2,2021-08-05 17:24:14,700426
-1,1,-3,-3,2,-1,0,1,2021-08-05 17:24:14,700426
-1,10,6,1,-2,-2,-3,-1,2021-08-05 17:24:14,714632
0,-7,-5,0,-2,1,0,-1,2021-08-05 17:24:14,714782
1,10,-8,-2,1,0,3,2,2021-08-05 17:24:14,714782
-1,-9,-3,-3,-5,-2,-3,-4,2021-08-05 17:24:14,714975
4,-3,16,11,6,3,2,9,2021-08-05 17:24:14,744997
-2,0,-13,-5,-5,-3,-3,-3,2021-08-05 17:24:14,760873
-6,-17,-5,-3,-3,-1,-1,-5,2021-08-05 17:24:14,776856
0,4,4,-2,3,3,1,3,2021-08-05 17:24:14,792980
-2,1,-5,1,0,-1,-2,-4,2021-08-05 17:24:14,807922
2,-2,2,-2,-1,3,2,4,2021-08-05 17:24:14,823991
-2,12,2,-5,-6,-7,-5,-6,2021-08-05 17:24:14,853893
0,-3,-4,-5,-2,-2,0,-1,2021-08-05 17:24:14,853893
0,3,0,0,2,0,-1,-5,2021-08-05 17:24:14,853893
-1,-9,-2,-2,-6,-1,-3,-2,2021-08-05 17:24:14,853893
3,6,-5,-1,4,6,7,6,2021-08-05 17:24:14,853893
-4,1,2,-1,-3,-2,-1,-3,2021-08-05 17:24:14,853893
-11,-12,-7,-3,-3,-3,-3,-8,2021-08-05 17:24:14,853893
2,0,3,3,4,3,4,-2,2021-08-05 17:24:14,854884
-1,4,0,-2,-2,-3,-6,-4,2021-08-05 17:24:14,854884
5,6,4,3,-1,-2,-2,4,2021-08-05 17:24:14,854884
2,5,-4,-3,-6,-5,-4,2,2021-08-05 17:24:14,854884
-1,-8,-9,0,1,0,1,1,2021-08-05 17:24:14,854884
2,8,4,0,0,2,2,4,2021-08-05 17:24:14,854884
-2,0,1,1,1,2,3,-1,2021-08-05 17:24:14,854884
0,-6,-1,2,5,5,4,1,2021-08-05 17:24:14,854884
-3,-11,-7,-9,-4,-2,-2,-2,2021-08-05 17:24:14,854884
-2,0,3,4,3,0,0,0,2021-08-05 17:24:14,855848
-1,-3,-3,-1,-2,0,-1,-2,2021-08-05 17:24:14,855848
1,4,0,1,-1,-3,-2,-1,2021-08-05 17:24:14,855848
-2,-2,-2,-1,-1,-6,-3,-2,2021-08-05 17:24:14,855848
-5,-4,-1,-6,-6,-4,-2,-3,2021-08-05 17:24:14,855848
-2,0,-1,0,2,-2,-2,-2,2021-08-05 17:24:14,855848
6,3,2,5,2,4,5,8,2021-08-05 17:24:14,884849
-2,-2,-1,-6,-4,-4,-1,-3,2021-08-05 17:24:14,885028
-5,0,0,-2,-6,-6,-3,-4,2021-08-05 17:24:14,885028
4,5,1,4,1,2,5,6,2021-08-05 17:24:14,885028
0,0,-1,-3,0,-1,0,-2,2021-08-05 17:24:14,885028
-3,-4,-3,-4,-3,-2,-4,-3,2021-08-05 17:24:14,885028
2,1,2,2,1,3,1,1,2021-08-05 17:24:14,899996
-3,-3,-3,-1,1,0,-1,-5,2021-08-05 17:24:14,899996
-2,-5,-1,-2,-3,0,0,-1,2021-08-05 17:24:14,914889
-1,2,2,-2,-4,-1,-2,-2,2021-08-05 17:24:14,930956
2,3,0,-1,1,0,1,0,2021-08-05 17:24:14,930956
-2,-5,0,-3,-1,-2,-3,1,2021-08-05 17:24:14,931148
-3,-2,0,-1,0,-4,-3,-5,2021-08-05 17:24:14,931148
5,2,4,1,1,2,0,1,2021-08-05 17:24:14,931148
-3,-4,-2,-3,-3,-2,-2,-2,2021-08-05 17:24:14,945900
5,4,1,5,5,5,5,4,2021-08-05 17:24:14,945900
2,4,2,3,-1,0,0,1,2021-08-05 17:24:14,945900
-5,-3,-3,-5,-5,-4,-4,-3,2021-08-05 17:24:14,946257
-1,0,3,0,-1,-2,0,2,2021-08-05 17:24:14,962057
0,-2,-2,-2,-1,-1,-1,0,2021-08-05 17:24:14,977938
-6,-4,-3,-2,-3,-4,-4,-5,2021-08-05 17:24:14,977938
3,0,2,6,5,4,3,3,2021-08-05 17:24:14,978147
-1,2,-3,-2,-1,-1,-3,-3,2021-08-05 17:24:14,992905
-4,-1,-2,-6,-4,-3,-4,-2,2021-08-05 17:24:15,007917
-2,-2,-4,-5,-5,-3,-2,-4,2021-08-05 17:24:15,008119
0,-4,-3,2,4,2,2,1,2021-08-05 17:24:15,008119
2,3,0,2,1,1,0,0,2021-08-05 17:24:15,008119
2,1,0,1,1,1,0,0,2021-08-05 17:24:15,008119
-4,3,1,-5,-3,-6,-3,-5,2021-08-05 17:24:15,008119
-2,-25,-8,-2,0,-1,1,2,2021-08-05 17:24:15,008119
-2,2,-4,-3,-3,-1,-1,1,2021-08-05 17:24:15,023063
-1,-3,-2,0,-2,-4,-3,-5,2021-08-05 17:24:15,038927
4,12,0,1,2,4,4,4,2021-08-05 17:24:15,039071
-3,6,2,-2,-3,-5,-2,0,2021-08-05 17:24:15,039071
-1,-7,1,0,-1,-2,-1,-2,2021-08-05 17:24:15,039071
2,7,2,1,-1,-1,-3,2,2021-08-05 17:24:15,039071
-4,-6,-5,-1,0,-1,-1,0,2021-08-05 17:24:15,068916
0,3,-1,-2,-3,-2,-1,-2,2021-08-05 17:24:15,068916
-2,-2,-2,-2,0,0,0,-4,2021-08-05 17:24:15,068916
-1,4,0,-3,-2,-1,-2,-2,2021-08-05 17:24:15,068916
0,-5,-3,0,1,0,1,1,2021-08-05 17:24:15,069304
1,-6,-2,3,5,4,2,3,2021-08-05 17:24:15,069416
0,5,1,0,1,-1,-1,0,2021-08-05 17:24:15,084970
-3,-5,-3,-1,-1,-1,0,-1,2021-08-05 17:24:15,100972
0,-3,1,-1,-3,0,-2,0,2021-08-05 17:24:15,116874
-3,6,0,-2,-3,-1,-2,-3,2021-08-05 17:24:15,132884
-2,-7,-1,-3,-6,-3,-3,-3,2021-08-05 17:24:15,147868
-1,-4,-1,0,2,-2,2,2,2021-08-05 17:24:15,147986
2,1,-3,2,3,1,2,1,2021-08-05 17:24:15,148071
-3,8,1,-6,-6,-7,-6,-5,2021-08-05 17:24:15,148156
6,2,1,6,9,5,5,12,2021-08-05 17:24:15,148248
-2,-9,-6,-3,-2,-1,-2,-5,2021-08-05 17:24:15,148348
-1,3,1,-3,-3,-3,-6,-3,2021-08-05 17:24:15,148348
1,0,0,-1,2,2,3,1,2021-08-05 17:24:15,148348
-2,0,0,0,-2,-1,-2,-3,2021-08-05 17:24:15,148348
-2,-3,1,-1,-1,0,0,3,2021-08-05 17:24:15,148746
0,-5,1,6,7,2,2,1,2021-08-05 17:24:15,148746
-5,1,0,-1,-7,-5,-6,-7,2021-08-05 17:24:15,148746
2,-3,-3,0,-2,0,0,-1,2021-08-05 17:24:15,178869
-2,2,0,-2,-3,0,-2,-2,2021-08-05 17:24:15,181791
1,-1,-2,-2,-3,0,-2,0,2021-08-05 17:24:15,181791
0,-1,1,-3,-5,-3,-3,-4,2021-08-05 17:24:15,182107
-1,1,0,1,0,0,0,0,2021-08-05 17:24:15,182107
1,2,2,2,0,-1,1,0,2021-08-05 17:24:15,182258
-2,-7,-7,-2,-4,-4,-3,-1,2021-08-05 17:24:15,194797
3,2,-4,-1,0,3,0,3,2021-08-05 17:24:15,194797
-1,27,-1,-2,-3,-4,-3,-7,2021-08-05 17:24:15,195068
-5,-36,-3,-2,0,-1,-3,-3,2021-08-05 17:24:15,195068
-2,1,2,-1,-1,0,1,2,2021-08-05 17:24:15,225779
-3,2,7,-4,-3,-3,-4,-3,2021-08-05 17:24:15,240842
1,3,-10,-1,2,2,1,2,2021-08-05 17:24:15,256847
-2,-4,-2,-1,-2,-1,0,-4,2021-08-05 17:24:15,257070
0,-9,-1,1,-2,-2,-1,-3,2021-08-05 17:24:15,257070
-2,-1,-3,-2,0,0,0,0,2021-08-05 17:24:15,257070
-3,-8,6,-2,-5,-5,-2,-2,2021-08-05 17:24:15,257418
-2,17,-6,0,-1,-1,-1,-2,2021-08-05 17:24:15,257418
1,-11,6,0,-1,0,-1,0,2021-08-05 17:24:15,257524
-1,-13,-10,2,3,3,1,2,2021-08-05 17:24:15,257677
-4,-2,0,-4,-1,0,-4,-3,2021-08-05 17:24:15,257815
-6,-5,-4,-7,-6,-6,-6,-5,2021-08-05 17:24:15,257921
5,10,-1,3,5,5,5,6,2021-08-05 17:24:15,288881
-2,1,-1,-1,-4,-3,-3,-4,2021-08-05 17:24:15,288881
0,-6,-1,-2,2,4,1,-1,2021-08-05 17:24:15,289149
2,6,4,1,-1,1,1,3,2021-08-05 17:24:15,289258
-5,-2,0,-2,-3,-3,-2,-5,2021-08-05 17:24:15,303817
5,3,2,3,4,3,4,5,2021-08-05 17:24:15,318891
-3,-6,-1,-3,-6,-6,-6,-3,2021-08-05 17:24:15,318891
1,1,1,1,2,1,1,1,2021-08-05 17:24:15,318891
-2,3,-2,-3,-3,-2,-1,0,2021-08-05 17:24:15,318891
0,-5,-4,1,3,2,2,2,2021-08-05 17:24:15,318891
3,3,6,4,4,3,1,0,2021-08-05 17:24:15,318891
0,2,2,2,1,1,0,2,2021-08-05 17:24:15,318891
-2,0,-3,-2,-1,1,-1,-2,2021-08-05 17:24:15,334832
-6,-2,-4,-9,-6,-5,-6,-4,2021-08-05 17:24:15,334832
-1,-8,-5,0,0,1,0,1,2021-08-05 17:24:15,334832
3,3,0,3,2,1,2,2,2021-08-05 17:24:15,335136
2,9,2,-1,-2,-3,-3,0,2021-08-05 17:24:15,364872
-2,-9,2,2,0,0,0,-3,2021-08-05 17:24:15,364872
0,-12,-6,1,-1,-1,1,3,2021-08-05 17:24:15,364872
-2,1,-6,-5,-5,-2,-1,-3,2021-08-05 17:24:15,364872
0,-6,-3,0,1,-1,-1,-2,2021-08-05 17:24:15,364872
-3,9,2,-3,-4,-4,-3,-3,2021-08-05 17:24:15,364872
-2,-4,-3,-2,0,0,-2,-1,2021-08-05 17:24:15,380783
-1,-4,0,-1,-3,-1,-3,-2,2021-08-05 17:24:15,381089
-1,7,-1,-2,0,0,1,2,2021-08-05 17:24:15,395795
1,5,8,3,2,1,2,0,2021-08-05 17:24:15,395795
-2,1,1,1,-1,-3,-2,-1,2021-08-05 17:24:15,395795
-6,-17,-16,-7,-5,-5,-3,-5,2021-08-05 17:24:15,395795
0,-1,-3,-4,-1,2,1,0,2021-08-05 17:24:15,427876
-5,-3,-4,-1,-3,-5,-5,-3,2021-08-05 17:24:15,427876
6,12,8,2,2,3,2,3,2021-08-05 17:24:15,427876
-1,7,8,0,-1,-2,0,-1,2021-08-05 17:24:15,427876
-1,-7,-4,1,0,2,-1,1,2021-08-05 17:24:15,427876
-1,-4,-4,-4,-4,-3,-1,-2,2021-08-05 17:24:15,427876
-2,8,2,-2,-1,-3,0,-2,2021-08-05 17:24:15,459743
-1,-12,4,5,2,2,1,1,2021-08-05 17:24:15,474780
-2,-9,-2,-2,-1,-2,-2,-2,2021-08-05 17:24:15,474996
2,7,-1,-3,0,0,-2,1,2021-08-05 17:24:15,474996
-4,-7,-2,-3,-2,-1,-2,-4,2021-08-05 17:24:15,474996
0,12,3,-2,-1,-1,-1,-1,2021-08-05 17:24:15,475164
1,14,-2,0,1,-2,-3,-2,2021-08-05 17:24:15,475242
-2,-32,-9,-1,1,1,0,1,2021-08-05 17:24:15,475367
-2,-4,-2,-1,-3,-3,-2,-2,2021-08-05 17:24:15,475367
-1,2,-4,0,2,0,2,-1,2021-08-05 17:24:15,475602
-2,1,1,0,-3,-2,-2,-2,2021-08-05 17:24:15,490915
1,14,-2,1,-2,-1,-1,-3,2021-08-05 17:24:15,501744
-1,11,12,3,2,1,0,0,2021-08-05 17:24:15,501744
4,-20,-7,1,3,3,2,5,2021-08-05 17:24:15,501744
-5,1,-3,-5,-6,-5,-4,-7,2021-08-05 17:24:15,522857
5,4,-4,0,2,1,1,1,2021-08-05 17:24:15,522857
-5,-1,-4,-5,-7,-4,-4,-5,2021-08-05 17:24:15,523057
1,3,1,1,0,1,1,0,2021-08-05 17:24:15,523057
1,0,4,2,0,0,1,0,2021-08-05 17:24:15,538744
-3,-1,-3,2,-1,1,1,3,2021-08-05 17:24:15,554745
-4,-12,-7,-6,-7,-6,-5,-5,2021-08-05 17:24:15,570924
0,9,0,-3,-5,-3,-2,-2,2021-08-05 17:24:15,570924
0,-6,-1,0,4,1,1,0,2021-08-05 17:24:15,570924
-2,3,3,0,1,0,0,0,2021-08-05 17:24:15,570924
0,-2,-3,-1,-3,-3,-1,0,2021-08-05 17:24:15,570924
-3,0,2,-2,-4,-1,-1,0,2021-08-05 17:24:15,570924
-2,-8,-10,-5,0,1,1,-1,2021-08-05 17:24:15,570924
-7,-1,2,2,1,-3,-2,-7,2021-08-05 17:24:15,571786
2,1,1,5,5,3,3,3,2021-08-05 17:24:15,571786
2,7,6,2,-1,-3,-5,-3,2021-08-05 17:24:15,572190
-1,0,1,-5,-10,-8,-6,-2,2021-08-05 17:24:15,601743
4,-1,-6,0,1,1,0,2,2021-08-05 17:24:15,617484
3,-2,-4,-4,-1,1,1,3,2021-08-05 17:24:15,617484
-2,-1,1,-3,0,0,-1,0,2021-08-05 17:24:15,617484
-4,-7,-3,1,4,2,-1,-2,2021-08-05 17:24:15,633499
1,1,3,0,0,0,2,2,2021-08-05 17:24:15,633499
-5,22,-2,1,2,0,1,-3,2021-08-05 17:24:15,633740
-2,-20,7,0,0,-2,0,-3,2021-08-05 17:24:15,633740
1,-13,-9,2,1,1,2,3,2021-08-05 17:24:15,633740
-2,-10,-5,-5,-4,-5,-3,-5,2021-08-05 17:24:15,634020
1,-1,-3,-5,-5,-4,-4,-2,2021-08-05 17:24:15,634235
0,9,2,4,3,0,-2,-2,2021-08-05 17:24:15,634342
3,16,6,1,1,1,1,1,2021-08-05 17:24:15,663499
-2,-3,-1,2,-2,0,-1,-2,2021-08-05 17:24:15,663634
-3,-10,4,-5,-3,-1,0,-2,2021-08-05 17:24:15,663706
0,8,-7,1,-1,0,1,1,2021-08-05 17:24:15,663706
0,-4,0,3,2,2,1,-3,2021-08-05 17:24:15,679394
0,5,1,-1,-1,-3,1,0,2021-08-05 17:24:15,679394
1,-6,-6,-2,-2,0,-1,0,2021-08-05 17:24:15,679831
-1,5,3,-3,-2,-4,-3,-6,2021-08-05 17:24:15,679831
1,1,1,3,4,3,4,7,2021-08-05 17:24:15,695378
2,14,2,-2,-2,1,0,1,2021-08-05 17:24:15,695601
-1,-24,-4,1,1,1,0,-1,2021-08-05 17:24:15,710910
-2,-9,-4,-2,0,-2,-1,-2,2021-08-05 17:24:15,726752
-3,-2,-2,-6,-8,-5,-5,-6,2021-08-05 17:24:15,726752
2,-1,3,1,3,2,1,1,2021-08-05 17:24:15,727063
1,10,1,1,2,1,1,0,2021-08-05 17:24:15,727063
0,3,-2,0,2,1,1,0,2021-08-05 17:24:15,727178
0,-3,2,1,1,0,0,0,2021-08-05 17:24:15,742744
-1,5,9,0,-2,-3,-3,1,2021-08-05 17:24:15,742744
-7,-10,-14,-6,-8,-8,-8,-9,2021-08-05 17:24:15,742744
4,-5,-4,3,4,4,2,2,2021-08-05 17:24:15,743040
-2,-1,-3,-3,-3,-1,1,0,2021-08-05 17:24:15,758692
0,-4,-4,-2,-4,-2,-2,-2,2021-08-05 17:24:15,758894
-1,0,5,-2,-4,-3,-2,0,2021-08-05 17:24:15,758894
-7,4,-1,-6,-5,-4,-6,-3,2021-08-05 17:24:15,758894
4,2,5,5,3,3,2,3,2021-08-05 17:24:15,789842
-1,-7,-4,2,1,0,-2,-2,2021-08-05 17:24:15,805694
2,0,-7,-5,1,1,1,2,2021-08-05 17:24:15,820828
-6,-1,-6,-7,-6,-7,-5,-5,2021-08-05 17:24:15,820828
2,3,2,0,-1,-1,0,1,2021-08-05 17:24:15,820828
3,43,6,2,0,1,-2,2,2021-08-05 17:24:15,820828
-3,-53,0,4,0,0,0,-1,2021-08-05 17:24:15,820828
3,11,-2,2,4,3,3,5,2021-08-05 17:24:15,820828
-5,-4,-4,-6,-5,-4,-5,-5,2021-08-05 17:24:15,820828
-3,4,2,0,1,-1,-1,-2,2021-08-05 17:24:15,827028
5,19,5,5,6,4,3,4,2021-08-05 17:24:15,827028
0,-8,-2,-3,0,1,1,0,2021-08-05 17:24:15,827028
0,1,2,-1,-1,0,-1,1,2021-08-05 17:24:15,835778
-12,-1,0,-7,-10,-9,-6,-11,2021-08-05 17:24:15,835892
8,-14,-5,5,6,6,4,5,2021-08-05 17:24:15,836023
-1,-10,-4,-4,-3,-1,-1,-2,2021-08-05 17:24:15,836023
1,10,1,0,0,-1,0,-1,2021-08-05 17:24:15,866762
-1,-5,-3,-2,2,1,0,1,2021-08-05 17:24:15,866930
2,42,15,3,-1,-1,-2,0,2021-08-05 17:24:15,882780
-1,-29,-11,-1,-1,0,-2,-1,2021-08-05 17:24:15,882780
-2,3,-3,-2,-3,-3,-3,-5,2021-08-05 17:24:15,882780
-6,-18,-4,-5,-3,-3,-2,-4,2021-08-05 17:24:15,882780
3,16,11,4,3,2,2,2,2021-08-05 17:24:15,882780
2,9,-3,2,0,1,0,1,2021-08-05 17:24:15,882780
-2,-8,-2,-3,-1,-4,-2,-4,2021-08-05 17:24:15,898695
1,-13,-7,-2,4,3,1,2,2021-08-05 17:24:15,913650
-1,5,5,1,-5,-4,-2,-2,2021-08-05 17:24:15,913695
-2,10,3,-1,-3,-3,-3,-3,2021-08-05 17:24:15,913695
-2,-23,-20,-10,1,4,2,1,2021-08-05 17:24:15,913695
5,2,7,5,2,2,3,2,2021-08-05 17:24:15,913695
-2,0,4,-1,-3,-1,-2,-2,2021-08-05 17:24:15,913695
2,65,6,1,-2,-1,0,3,2021-08-05 17:24:15,913695
-5,-86,4,4,0,-1,-2,-4,2021-08-05 17:24:15,928692
0,-7,-23,-7,-2,1,0,-1,2021-08-05 17:24:15,928912
-1,18,5,-5,-8,-5,-5,-6,2021-08-05 17:24:15,960859
-1,-3,8,3,3,2,0,1,2021-08-05 17:24:15,961003
-3,3,-25,-3,-3,-5,-6,-3,2021-08-05 17:24:15,961003
10,18,26,5,0,3,5,7,2021-08-05 17:24:15,961003
1,-28,-4,8,10,6,6,5,2021-08-05 17:24:15,961003
-18,-7,-21,-16,-1,-1,-4,-9,2021-08-05 17:24:15,961003
3,20,-4,-14,-10,-7,-5,-3,2021-08-05 17:24:15,991918
4,-10,-2,3,4,3,1,2,2021-08-05 17:24:16,007842
0,10,0,-1,-3,-4,-2,-3,2021-08-05 17:24:16,007842
5,-16,16,15,5,2,2,5,2021-08-05 17:24:16,007842
-2,10,13,8,2,-2,1,0,2021-08-05 17:24:16,007842
-7,-3,2,-4,-12,-11,-7,-6,2021-08-05 17:24:16,007842
-5,-7,-31,-15,3,4,2,1,2021-08-05 17:24:16,007842
3,1,8,3,3,-1,1,-1,2021-08-05 17:24:16,007842
-1,3,3,0,1,1,0,0,2021-08-05 17:24:16,022908
3,41,18,3,0,0,-1,0,2021-08-05 17:24:16,037729
3,-42,-7,2,0,-1,1,4,2021-08-05 17:24:16,053753
-3,-20,-11,-2,-1,2,-1,-1,2021-08-05 17:24:16,069776
-4,21,29,-3,-1,-1,1,1,2021-08-05 17:24:16,069776
6,-32,-39,10,8,4,4,2,2021-08-05 17:24:16,069776
-7,3,-14,-11,-6,-4,-6,-7,2021-08-05 17:24:16,069776
-13,-25,2,-9,-12,-10,-7,-7,2021-08-05 17:24:16,069776
4,17,11,1,4,4,1,3,2021-08-05 17:24:16,069776
-7,8,1,-8,-2,-2,-3,-7,2021-08-05 17:24:16,070694
3,-12,-13,-8,-4,-2,-3,-1,2021-08-05 17:24:16,070694
6,31,16,5,1,-1,0,-1,2021-08-05 17:24:16,070694
0,12,6,11,5,2,2,4,2021-08-05 17:24:16,070694
0,-24,3,5,-2,-4,-1,1,2021-08-05 17:24:16,070694
1,14,0,1,4,4,3,2,2021-08-05 17:24:16,070694
-6,-8,-13,-16,-7,0,0,-2,2021-08-05 17:24:16,070694
-6,-6,-7,-1,-3,-2,-1,-2,2021-08-05 17:24:16,100693
4,-15,-9,-1,0,1,1,3,2021-08-05 17:24:16,100922
2,34,27,9,0,-1,0,1,2021-08-05 17:24:16,100922
4,20,3,0,-5,-4,-4,-1,2021-08-05 17:24:16,100922
5,-23,-15,1,2,5,2,5,2021-08-05 17:24:16,116116
-6,1,-4,-4,-1,-2,-1,-3,2021-08-05 17:24:16,132121
0,26,4,0,-3,-5,-2,-4,2021-08-05 17:24:16,132121
0,-77,-18,0,1,0,2,3,2021-08-05 17:24:16,132333
-4,70,27,-1,-4,-6,-5,-7,2021-08-05 17:24:16,132333
4,9,-17,-3,3,3,5,7,2021-08-05 17:24:16,132333
-5,-43,-13,-8,-2,-2,-1,-3,2021-08-05 17:24:16,132333
-1,20,7,1,-2,-3,-3,-4,2021-08-05 17:24:16,132333
3,-1,-5,1,1,0,-2,1,2021-08-05 17:24:16,162053
-5,10,12,-5,-8,-5,-5,-7,2021-08-05 17:24:16,162161
0,4,19,14,5,2,3,6,2021-08-05 17:24:16,162384
9,-2,-12,6,6,6,5,6,2021-08-05 17:24:16,162530
-2,-13,-11,-8,-6,-5,-4,-3,2021-08-05 17:24:16,178237
0,5,6,-1,2,1,0,-1,2021-08-05 17:24:16,194018
-1,-2,1,0,-3,-2,-1,-2,2021-08-05 17:24:16,209068
-4,-11,-12,-5,1,0,-1,-2,2021-08-05 17:24:16,225187
1,0,-5,-2,2,1,0,-1,2021-08-05 17:24:16,241163
-4,-10,0,-5,-6,-6,-5,-5,2021-08-05 17:24:16,241372
-1,40,18,2,-2,-3,-1,-2,2021-08-05 17:24:16,241503
0,-51,-13,4,0,0,1,4,2021-08-05 17:24:16,241612
11,7,-6,3,7,7,4,3,2021-08-05 17:24:16,241612
-4,-10,-1,-2,1,-1,-1,-2,2021-08-05 17:24:16,241612
-14,-27,-10,-8,-7,-7,-7,-10,2021-08-05 17:24:16,242018
6,26,2,-5,-3,-5,-1,-2,2021-08-05 17:24:16,242025
-4,-10,1,-2,-3,-2,0,-2,2021-08-05 17:24:16,242025
4,-7,5,6,4,3,2,4,2021-08-05 17:24:16,242025
-3,8,-9,-1,1,0,-1,1,2021-08-05 17:24:16,242025
1,7,7,-3,-3,-2,-4,-3,2021-08-05 17:24:16,242025
-4,-21,-19,-6,-7,-6,-7,-6,2021-08-05 17:24:16,272245
-12,22,13,-1,0,-2,0,-1,2021-08-05 17:24:16,272245
1,-17,-15,-5,1,2,1,0,2021-08-05 17:24:16,272245
0,12,6,3,0,0,2,0,2021-08-05 17:24:16,272245
3,-1,4,2,-3,-3,-3,-1,2021-08-05 17:24:16,288109
-4,6,4,-8,-5,-4,-4,-5,2021-08-05 17:24:16,304068
-3,-12,-5,4,-2,0,0,-2,2021-08-05 17:24:16,320105
2,-7,-1,7,4,3,2,2,2021-08-05 17:24:16,320105
-5,7,2,-5,-1,2,2,-3,2021-08-05 17:24:16,320105
-2,-22,-21,-6,-5,-5,-5,-1,2021-08-05 17:24:16,320105
0,17,18,-2,-4,-3,-4,-2,2021-08-05 17:24:16,320105
-1,2,4,1,3,1,3,1,2021-08-05 17:24:16,320105
-3,-14,-5,10,7,4,4,4,2021-08-05 17:24:16,320105
-1,9,4,0,-2,-1,-2,-4,2021-08-05 17:24:16,320105
3,-20,-2,-5,-4,-4,-2,-2,2021-08-05 17:24:16,321053
-6,-7,-7,-2,0,0,-1,-4,2021-08-05 17:24:16,321053
-3,51,1,-14,-8,-6,-2,0,2021-08-05 17:24:16,352018
4,-76,-14,4,7,8,7,7,2021-08-05 17:24:16,352018
-1,22,-4,-3,-2,-3,-1,-3,2021-08-05 17:24:16,352331
-3,15,6,0,-1,-1,-4,-5,2021-08-05 17:24:16,352331
1,-6,7,6,0,-2,-1,-3,2021-08-05 17:24:16,352631
9,69,28,6,0,-4,-5,-2,2021-08-05 17:24:16,352631
-8,-45,-11,1,-3,-3,-2,-2,2021-08-05 17:24:16,367068
5,7,-5,-3,0,-1,1,5,2021-08-05 17:24:16,367326
2,-43,-32,-13,-4,0,-1,-1,2021-08-05 17:24:16,383209
-6,8,-2,-6,-3,-1,-2,-2,2021-08-05 17:24:16,383273
12,5,0,-4,-3,1,0,2,2021-08-05 17:24:16,383273
-13,31,17,4,-2,-1,-2,-5,2021-08-05 17:24:16,383273
-3,-19,-5,3,-2,-2,0,-2,2021-08-05 17:24:16,398193
0,13,8,1,3,1,3,0,2021-08-05 17:24:16,398389
-6,-12,-9,4,0,-2,-1,1,2021-08-05 17:24:16,398389
2,7,2,-1,-3,-1,-3,-3,2021-08-05 17:24:16,398389
2,6,9,-3,1,1,1,0,2021-08-05 17:24:16,414240
-10,-28,-27,-8,-6,-4,-4,-4,2021-08-05 17:24:16,414240
6,23,11,3,6,6,3,5,2021-08-05 17:24:16,429154
4,3,4,1,0,-2,-1,1,2021-08-05 17:24:16,444304
1,42,12,5,1,-1,-3,0,2021-08-05 17:24:16,460157
-1,-60,17,1,1,0,2,0,2021-08-05 17:24:16,460265
-7,-10,-24,-6,-4,-2,-2,-1,2021-08-05 17:24:16,460265
3,-15,-25,-3,2,3,3,2,2021-08-05 17:24:16,464157
-4,0,4,-4,-3,-4,-2,-4,2021-08-05 17:24:16,465251
2,42,14,-2,-1,0,-2,-3,2021-08-05 17:24:16,465251
0,22,7,0,-1,-2,-2,-2,2021-08-05 17:24:16,465251
-5,-64,-24,-1,1,-1,-1,-1,2021-08-05 17:24:16,465251
4,69,43,10,0,-3,-1,-1,2021-08-05 17:24:16,491248
4,-22,-28,5,-4,-1,-3,0,2021-08-05 17:24:16,491248
-4,-10,-25,-18,2,4,2,-2,2021-08-05 17:24:16,491493
-8,-28,2,-16,-16,-13,-11,-12,2021-08-05 17:24:16,491493
2,1,8,12,13,11,9,13,2021-08-05 17:24:16,491782
3,16,-3,0,-3,-3,-1,-1,2021-08-05 17:24:16,491782
5,13,24,9,1,0,-2,1,2021-08-05 17:24:16,491904
1,36,2,-1,-3,0,-2,-2,2021-08-05 17:24:16,492157
-2,-52,-9,-1,-5,-4,-4,-3,2021-08-05 17:24:16,523256
-3,-6,-5,-1,1,-1,0,1,2021-08-05 17:24:16,538313
-3,3,-13,-9,-1,-1,-1,0,2021-08-05 17:24:16,538313
7,25,8,0,1,1,2,0,2021-08-05 17:24:16,538313
-13,-40,-17,-9,-11,-9,-5,-7,2021-08-05 17:24:16,538313
-1,7,-6,-2,1,-1,0,-3,2021-08-05 17:24:16,538313
2,22,24,4,-3,-6,-5,-2,2021-08-05 17:24:16,538313
3,-5,6,14,11,7,5,4,2021-08-05 17:24:16,538313
1,-1,-22,-7,2,1,1,0,2021-08-05 17:24:16,569478
4,-8,-4,-8,0,3,4,8,2021-08-05 17:24:16,569478
-1,45,13,4,2,1,-1,-2,2021-08-05 17:24:16,569478
-4,-35,21,3,-1,-2,-1,0,2021-08-05 17:24:16,569478
3,52,-11,7,2,2,0,3,2021-08-05 17:24:16,585217
2,-27,-15,-6,-2,-3,-3,-6,2021-08-05 17:24:16,585217
-8,-34,7,-7,-7,-5,-3,-4,2021-08-05 17:24:16,585523
-12,20,-4,0,-4,-4,-5,-2,2021-08-05 17:24:16,585673
4,-2,-14,-4,2,-1,-1,-4,2021-08-05 17:24:16,615036
-1,-1,21,2,2,1,2,0,2021-08-05 17:24:16,615036
7,-2,-7,4,1,0,3,-1,2021-08-05 17:24:16,615036
0,19,-5,2,4,4,2,2,2021-08-05 17:24:16,615479
-6,-27,15,-1,-2,-3,-2,-3,2021-08-05 17:24:16,615597
-1,9,-24,-9,-6,-4,-5,-5,2021-08-05 17:24:16,615706
-4,-17,-16,-3,-1,-1,-2,-4,2021-08-05 17:24:16,615808
5,22,35,9,3,1,1,5,2021-08-05 17:24:16,615909
-4,-47,-14,5,1,2,0,-1,2021-08-05 17:24:16,645908
-10,7,-13,-13,0,2,-1,-4,2021-08-05 17:24:16,661944
3,-24,-11,-5,-5,0,-1,0,2021-08-05 17:24:16,676990
-3,27,-1,-5,-3,0,-1,-1,2021-08-05 17:24:16,691944
3,13,13,4,0,1,-2,1,2021-08-05 17:24:16,707960
-6,-26,16,9,0,-2,-2,-3,2021-08-05 17:24:16,707960
-4,4,-24,-2,-1,-2,0,0,2021-08-05 17:24:16,707960
9,19,25,-2,-2,-2,0,0,2021-08-05 17:24:16,708283
1,-30,-29,2,3,1,1,-1,2021-08-05 17:24:16,708504
3,6,-11,-3,-3,-1,-1,-1,2021-08-05 17:24:16,708607
-13,62,17,-2,-1,-2,-5,-4,2021-08-05 17:24:16,708708
-3,-78,2,-6,-10,-6,-4,-6,2021-08-05 17:24:16,708809
-2,41,-5,-3,0,0,0,0,2021-08-05 17:24:16,708909
11,-12,17,6,7,6,6,10,2021-08-05 17:24:16,708909
-4,-23,-20,1,1,3,3,-2,2021-08-05 17:24:16,709124
-9,1,-13,-7,-5,-3,-5,-6,2021-08-05 17:24:16,709124
0,16,9,-5,-6,-3,-5,-4,2021-08-05 17:24:16,723309
6,50,15,6,2,0,0,4,2021-08-05 17:24:16,738950
6,-65,9,3,1,0,3,4,2021-08-05 17:24:16,738950
-8,1,-33,-11,0,-1,0,-1,2021-08-05 17:24:16,738950
1,-21,0,-5,-4,-3,-3,-3,2021-08-05 17:24:16,738950
-3,17,13,2,-1,-3,-3,-3,2021-08-05 17:24:16,738950
-2,4,2,4,3,2,1,-1,2021-08-05 17:24:16,738950
2,-6,-4,-1,0,-1,-1,0,2021-08-05 17:24:16,738950
1,12,-3,-1,2,1,0,0,2021-08-05 17:24:16,769907
-10,-17,-5,-4,-6,-3,-4,-9,2021-08-05 17:24:16,769907
5,-1,7,-1,-1,0,1,5,2021-08-05 17:24:16,769907
10,33,-3,6,3,4,4,0,2021-08-05 17:24:16,769907
-7,-10,11,1,3,5,4,4,2021-08-05 17:24:16,780907
-5,-10,-11,1,-3,-3,-2,-2,2021-08-05 17:24:16,800946
-5,-49,-14,-9,-10,-8,-8,-10,2021-08-05 17:24:16,816908
2,10,-17,-2,2,0,0,1,2021-08-05 17:24:16,832944
-3,7,13,-6,-6,-6,-4,-5,2021-08-05 17:24:16,880070
0,9,4,0,1,0,-3,-1,2021-08-05 17:24:16,880106
7,45,18,6,3,3,2,1,2021-08-05 17:24:16,880106
-1,-30,-7,-1,-3,-3,-1,-3,2021-08-05 17:24:16,880106
-5,14,-4,-6,-7,-5,-3,-4,2021-08-05 17:24:16,880106
-2,-37,-13,-4,1,2,1,0,2021-08-05 17:24:16,880531
1,22,8,2,-2,-1,-2,0,2021-08-05 17:24:16,880579
0,77,23,5,1,0,0,2,2021-08-05 17:24:16,880579
-2,-116,-44,-5,3,1,2,2,2021-08-05 17:24:16,880579
-3,34,2,-2,-4,-2,0,-2,2021-08-05 17:24:16,880909
-2,12,0,-5,-4,-7,-5,-5,2021-08-05 17:24:16,880909
-1,1,2,-1,-1,-1,-3,0,2021-08-05 17:24:16,880909
-1,54,24,1,-4,-2,-5,-2,2021-08-05 17:24:16,880909
0,-32,-4,4,2,1,0,3,2021-08-05 17:24:16,880909
-1,-24,-16,0,4,4,2,2,2021-08-05 17:24:16,880909
-5,3,8,-4,-6,-5,-4,-6,2021-08-05 17:24:16,880909
6,7,8,4,1,1,3,2,2021-08-05 17:24:16,880909
0,-15,-8,-1,0,-1,1,1,2021-08-05 17:24:16,880909
-3,8,3,0,-2,-1,0,-2,2021-08-05 17:24:16,880909
0,-11,-2,-2,-4,0,-1,-2,2021-08-05 17:24:16,881944
-2,-3,7,-1,-3,-2,-4,-4,2021-08-05 17:24:16,909909
0,-4,-23,-3,-1,-1,-1,-3,2021-08-05 17:24:16,910116
3,4,4,-2,0,0,2,2,2021-08-05 17:24:16,910278
-3,-17,-9,-6,-3,-4,-3,0,2021-08-05 17:24:16,910278
-3,35,17,-1,-3,-3,-4,-1,2021-08-05 17:24:16,910563
2,25,11,0,0,-2,0,0,2021-08-05 17:24:16,910563
-2,-83,-17,4,2,0,1,3,2021-08-05 17:24:16,926001
6,-9,-44,-4,2,1,1,-4,2021-08-05 17:24:16,926090
-22,-15,-4,-17,-14,-9,-9,-10,2021-08-05 17:24:16,941961
-3,40,11,5,4,0,-2,0,2021-08-05 17:24:16,941961
4,-3,17,4,3,3,2,3,2021-08-05 17:24:16,941961
2,2,14,7,2,0,3,3,2021-08-05 17:24:16,941961
8,-13,-16,-3,-3,-4,-2,-3,2021-08-05 17:24:16,972954
1,14,8,-3,-2,1,0,0,2021-08-05 17:24:16,973056
-12,-9,-12,-3,-1,-4,-3,-5,2021-08-05 17:24:16,973307
-2,16,7,-3,-2,-1,-1,-1,2021-08-05 17:24:16,973307
7,-12,-22,4,5,3,3,1,2021-08-05 17:24:16,973450
-8,-24,19,-7,-9,-7,-7,-10,2021-08-05 17:24:16,973561
4,27,-21,-3,0,2,2,2,2021-08-05 17:24:16,973561
3,-12,21,8,6,4,3,2,2021-08-05 17:24:16,973910
1,5,7,2,0,0,0,2,2021-08-05 17:24:17,004097
3,16,-2,2,2,1,1,2,2021-08-05 17:24:17,004097
0,-24,-4,4,1,1,-1,-2,2021-08-05 17:24:17,004330
-6,-30,-27,-6,-2,-3,-2,2,2021-08-05 17:24:17,004330
2,34,15,0,4,1,1,0,2021-08-05 17:24:17,034983
1,-41,-3,-3,-3,-6,-5,-4,2021-08-05 17:24:17,034983
6,-12,-4,-2,-1,1,-1,0,2021-08-05 17:24:17,034983
-20,38,7,-7,-6,-6,-5,-6,2021-08-05 17:24:17,034983
6,-3,0,3,-1,-1,0,0,2021-08-05 17:24:17,034983
2,20,7,1,1,2,0,1,2021-08-05 17:24:17,034983
5,13,9,5,3,1,1,2,2021-08-05 17:24:17,034983
-4,-59,-24,-2,-2,0,-1,-3,2021-08-05 17:24:17,034983
-12,-17,-4,-4,-5,-4,-3,-4,2021-08-05 17:24:17,066035
-2,26,2,-8,-7,-5,-6,-6,2021-08-05 17:24:17,082068
2,25,13,2,-1,-3,-4,-1,2021-08-05 17:24:17,096886
10,5,20,6,5,5,4,6,2021-08-05 17:24:17,096886
-4,5,-19,-3,-3,1,2,2,2021-08-05 17:24:17,096886
2,-39,-6,4,0,-1,2,1,2021-08-05 17:24:17,096886
2,1,-2,0,-3,-1,2,1,2021-08-05 17:24:17,096886
5,-13,-17,-8,-6,-4,-3,-5,2021-08-05 17:24:17,096886
-16,24,13,-1,-3,-4,-6,-6,2021-08-05 17:24:17,096886
5,-6,0,1,0,1,0,1,2021-08-05 17:24:17,096886
-6,34,14,-2,-5,-4,-2,-5,2021-08-05 17:24:17,096886
4,29,10,4,5,3,3,7,2021-08-05 17:24:17,097925
8,-56,-2,7,8,6,6,5,2021-08-05 17:24:17,127914
-8,-20,-24,1,1,0,0,-5,2021-08-05 17:24:17,143048
-8,10,-3,-9,-9,-8,-10,-10,2021-08-05 17:24:17,159056
10,51,36,1,-5,-8,-7,-4,2021-08-05 17:24:17,174884
0,4,0,0,-1,-3,-1,2,2021-08-05 17:24:17,191073
-3,-50,-44,-5,1,1,5,7,2021-08-05 17:24:17,191185
-5,27,6,-4,-3,-1,-2,-4,2021-08-05 17:24:17,191185
-1,-36,-9,-8,-4,-4,-2,-2,2021-08-05 17:24:17,191394
5,67,31,4,1,1,-1,2,2021-08-05 17:24:17,191394
12,-25,12,8,4,6,8,12,2021-08-05 17:24:17,191394
2,-17,-32,-1,3,4,2,2,2021-08-05 17:24:17,191394
-27,3,-2,-8,-9,-7,-7,-13,2021-08-05 17:24:17,191394
3,-18,3,1,-1,-3,-3,-4,2021-08-05 17:24:17,191888
-2,4,-8,-3,-2,-1,0,-1,2021-08-05 17:24:17,191888
10,41,18,5,4,5,4,5,2021-08-05 17:24:17,192166
7,45,19,5,2,4,3,4,2021-08-05 17:24:17,192271
-7,-93,-36,-10,-7,-3,-3,-8,2021-08-05 17:24:17,207050
-10,32,-10,-3,1,-1,-4,-5,2021-08-05 17:24:17,207166
-8,-10,6,-11,-13,-13,-9,-9,2021-08-05 17:24:17,207166
9,25,10,9,8,7,7,8,2021-08-05 17:24:17,207166
5,8,15,5,3,1,2,6,2021-08-05 17:24:17,222967
1,-12,-23,0,2,0,-1,-2,2021-08-05 17:24:17,238025
-10,-20,-2,-7,-4,-4,-4,-6,2021-08-05 17:24:17,238025
1,-10,-9,-1,-4,-1,-1,-1,2021-08-05 17:24:17,238312
1,-6,0,-4,-1,0,0,-1,2021-08-05 17:24:17,238460
7,57,37,8,3,1,2,4,2021-08-05 17:24:17,238571
0,-46,-6,4,1,-1,1,0,2021-08-05 17:24:17,238675
-12,-35,-33,-8,-4,-2,-1,-3,2021-08-05 17:24:17,238778
-1,29,12,0,1,2,0,-2,2021-08-05 17:24:17,269172
-8,-6,-3,-3,-3,-1,-3,-1,2021-08-05 17:24:17,269172
9,31,7,2,2,2,2,9,2021-08-05 17:24:17,269172
0,-45,-5,4,1,0,1,-5,2021-08-05 17:24:17,269172
0,-3,-28,-9,-1,0,0,-2,2021-08-05 17:24:17,269172
0,45,21,-1,-1,-2,-3,-2,2021-08-05 17:24:17,269172
-3,-31,-13,-1,1,1,-2,-1,2021-08-05 17:24:17,285065
1,-20,-11,-5,-4,-4,-4,-2,2021-08-05 17:24:17,300914
2,91,17,0,-2,-2,0,0,2021-08-05 17:24:17,316641
1,-44,18,4,-3,0,1,-2,2021-08-05 17:24:17,316885
-6,-18,-23,-7,-3,-1,0,1,2021-08-05 17:24:17,316885
0,24,19,4,5,1,-1,2,2021-08-05 17:24:17,317254
0,-20,-25,-1,-1,0,-1,-3,2021-08-05 17:24:17,317420
1,21,8,-5,0,-3,-3,-1,2021-08-05 17:24:17,317641
-4,-8,12,2,-1,-2,-2,1,2021-08-05 17:24:17,317641
5,13,-29,-1,4,2,0,-2,2021-08-05 17:24:17,317885
-1,-51,12,3,-4,-1,-1,1,2021-08-05 17:24:17,348010
-15,2,1,-4,-7,-4,-3,-4,2021-08-05 17:24:17,348131
-9,27,4,-2,-2,-1,-1,0,2021-08-05 17:24:17,348201
-3,-26,-24,-1,-2,-3,0,-4,2021-08-05 17:24:17,348201
17,18,2,5,3,0,1,4,2021-08-05 17:24:17,362987
-6,-12,7,-2,-4,-3,-5,-5,2021-08-05 17:24:17,362987
3,34,11,1,1,2,2,2,2021-08-05 17:24:17,363417
4,12,17,1,-1,-1,0,4,2021-08-05 17:24:17,363417
-1,-18,-21,-5,-3,-3,-3,-1,2021-08-05 17:24:17,394919
-2,2,0,-4,-2,-1,0,-3,2021-08-05 17:24:17,395169
2,1,13,7,4,2,4,2,2021-08-05 17:24:17,395169
-4,-27,-10,-6,-5,-4,-3,-4,2021-08-05 17:24:17,395257
-3,-9,-1,1,-1,0,-1,-3,2021-08-05 17:24:17,395257
6,23,-11,0,-1,1,4,6,2021-08-05 17:24:17,395257
0,33,5,-2,0,1,0,-3,2021-08-05 17:24:17,409978
1,-33,-9,-1,-1,0,-1,0,2021-08-05 17:24:17,421884
-4,-2,13,-1,-6,-6,-5,-5,2021-08-05 17:24:17,421884
-12,-22,-9,3,3,1,1,-1,2021-08-05 17:24:17,421884
7,-19,-14,-2,0,1,-1,-2,2021-08-05 17:24:17,421884
-6,34,13,2,-3,-2,-1,0,2021-08-05 17:24:17,421884
2,32,10,1,2,-1,-1,2,2021-08-05 17:24:17,440883
8,-39,-7,3,3,4,0,0,2021-08-05 17:24:17,457027
-3,-19,-9,0,-2,-1,-1,-2,2021-08-05 17:24:17,457136
-9,9,17,-6,-7,-5,-4,-5,2021-08-05 17:24:17,457201
4,42,8,3,2,2,4,3,2021-08-05 17:24:17,457201
0,-44,-18,-3,-3,-3,-4,-2,2021-08-05 17:24:17,457201
-7,1,-15,-8,-3,-2,-2,-4,2021-08-05 17:24:17,472934
9,-13,11,8,7,7,5,10,2021-08-05 17:24:17,487977
-2,17,7,2,2,0,0,-1,2021-08-05 17:24:17,488042
9,83,12,0,2,1,0,2,2021-08-05 17:24:17,488042
-8,-63,-9,-2,-4,-3,-3,-4,2021-08-05 17:24:17,488042
-3,-15,-6,-2,-2,-1,-1,-1,2021-08-05 17:24:17,488042
-1,6,-1,0,0,0,0,-1,2021-08-05 17:24:17,502932
1,-11,-15,-2,1,1,1,0,2021-08-05 17:24:17,533884
1,-9,4,1,2,1,1,1,2021-08-05 17:24:17,550062
2,34,3,0,-2,-1,-1,-1,2021-08-05 17:24:17,550062
0,14,8,2,0,1,-1,0,2021-08-05 17:24:17,550062
0,-83,-20,-4,-4,-2,-2,-3,2021-08-05 17:24:17,550062
-12,28,-7,-6,-4,-4,-4,-1,2021-08-05 17:24:17,550062
2,-8,4,-2,-2,-2,-2,-3,2021-08-05 17:24:17,550062
-3,3,-3,1,0,-1,1,-1,2021-08-05 17:24:17,550062
4,86,30,4,3,4,3,7,2021-08-05 17:24:17,550062
-1,-70,-24,-4,-5,-4,-3,-9,2021-08-05 17:24:17,550968
-1,-28,-25,-7,-1,-1,-2,0,2021-08-05 17:24:17,550968
-10,-12,-1,-3,-3,-3,-3,-4,2021-08-05 17:24:17,566051
1,98,45,3,0,0,1,1,2021-08-05 17:24:17,566151
5,-75,-27,1,1,-1,0,1,2021-08-05 17:24:17,566231
-7,7,-20,-6,1,-1,-4,-2,2021-08-05 17:24:17,566231
3,-15,-5,-4,1,0,-2,-3,2021-08-05 17:24:17,598073
-10,-15,-5,-3,-4,-5,-4,-6,2021-08-05 17:24:17,613120
3,67,34,6,0,0,1,1,2021-08-05 17:24:17,613162
2,21,8,1,1,0,1,0,2021-08-05 17:24:17,613424
3,-69,-2,5,8,5,6,6,2021-08-05 17:24:17,613424
2,41,-19,-4,-5,-4,-3,-4,2021-08-05 17:24:17,613424
-8,-70,-7,-7,-4,-2,-2,-2,2021-08-05 17:24:17,613424
-4,-9,-11,0,1,2,1,0,2021-08-05 17:24:17,613424
-6,26,-2,-11,-11,-7,-7,-6,2021-08-05 17:24:17,628067
-6,-18,3,-3,-4,-5,-5,-6,2021-08-05 17:24:17,628067
21,127,26,13,10,9,6,9,2021-08-05 17:24:17,628319
-3,-101,1,2,4,1,0,-1,2021-08-05 17:24:17,628365
-5,-22,-29,-1,0,1,1,-1,2021-08-05 17:24:17,644034
0,-27,-12,-9,-7,-3,-1,0,2021-08-05 17:24:17,644034
-3,25,10,-5,-3,-3,-5,-7,2021-08-05 17:24:17,644034
-1,33,16,2,-4,-2,-2,1,2021-08-05 17:24:17,644034
6,-1,-9,4,3,4,3,6,2021-08-05 17:24:17,660052
-2,-27,0,-4,-5,-4,-3,-6,2021-08-05 17:24:17,660108
-4,10,-4,3,5,2,2,1,2021-08-05 17:24:17,676085
4,16,12,1,2,1,3,3,2021-08-05 17:24:17,676208
-5,-30,-12,-8,-7,-7,-5,-6,2021-08-05 17:24:17,676367
-1,-8,18,7,5,7,6,9,2021-08-05 17:24:17,691010
0,15,-19,-1,-2,-2,-1,0,2021-08-05 17:24:17,691083
-1,-50,-12,-7,-4,-4,-4,-7,2021-08-05 17:24:17,691083
-5,26,-2,-3,-2,-1,-4,-1,2021-08-05 17:24:17,706112
0,7,20,2,-2,-2,-3,-4,2021-08-05 17:24:17,721971
2,14,11,-3,-4,-2,-2,2,2021-08-05 17:24:17,722183
-15,-50,-33,1,-1,-2,-1,-3,2021-08-05 17:24:17,722183
2,33,-6,-2,3,2,1,-1,2021-08-05 17:24:17,722183
-4,-23,15,-1,-2,-4,-5,-8,2021-08-05 17:24:17,722183
7,-8,-12,-1,2,1,1,4,2021-08-05 17:24:17,722183
4,49,14,1,-1,-1,-2,-1,2021-08-05 17:24:17,722183
-5,-1,33,2,-2,-1,0,-1,2021-08-05 17:24:17,752229
9,-10,-47,1,7,6,5,6,2021-08-05 17:24:17,752229
7,-13,27,2,0,-1,0,-1,2021-08-05 17:24:17,752229
-15,73,1,-3,-3,-3,-1,-3,2021-08-05 17:24:17,752229
0,-93,-13,1,3,3,2,1,2021-08-05 17:24:17,760359
-6,33,-5,-3,-5,-5,-5,-6,2021-08-05 17:24:17,760359
3,0,5,-1,0,-1,-3,0,2021-08-05 17:24:17,760359
3,1,2,0,-2,0,0,1,2021-08-05 17:24:17,760359
