EMG 1,EMG 2,EMG 3,EMG 4,EMG 5,EMG 6,EMG 7,EMG 8,Timestamp,Milliseconds
3,4,-3,3,5,5,3,6,2021-08-05 17:21:33,538778
5,-76,-21,-4,-1,-1,0,-2,2021-08-05 17:21:33,538986
0,5,4,-4,-3,-3,-4,-3,2021-08-05 17:21:33,539246
-11,10,-3,-1,0,-1,-2,-5,2021-08-05 17:21:33,539246
-4,6,6,-3,-3,-2,-1,-4,2021-08-05 17:21:33,539246
7,80,24,5,3,3,1,2,2021-08-05 17:21:33,539246
-1,-26,-4,3,2,2,3,3,2021-08-05 17:21:33,539246
7,-72,-29,-6,-3,-5,-3,-2,2021-08-05 17:21:33,539778
-4,21,4,-5,-7,-3,-3,-5,2021-08-05 17:21:33,539778
-16,-11,-6,-5,-2,-3,-4,-4,2021-08-05 17:21:33,539778
11,61,11,14,10,6,5,4,2021-08-05 17:21:33,555052
5,-18,17,5,2,3,3,3,2021-08-05 17:21:33,555052
2,-43,-18,-1,-4,-2,0,-3,2021-08-05 17:21:33,555052
-15,-12,-12,-10,-10,-7,-6,-7,2021-08-05 17:21:33,555052
0,20,22,-1,-3,-2,-2,-1,2021-08-05 17:21:33,586929
-1,-13,-16,-4,-2,-2,-2,-3,2021-08-05 17:21:33,586929
6,43,1,-6,-5,-4,-5,-1,2021-08-05 17:21:33,587204
0,-62,7,4,0,2,0,1,2021-08-05 17:21:33,587204
-8,-32,-29,-5,0,1,3,2,2021-08-05 17:21:33,602887
3,40,22,3,-1,-3,-1,1,2021-08-05 17:21:33,618779
2,-2,7,2,3,3,1,3,2021-08-05 17:21:33,618779
3,80,13,5,4,3,5,4,2021-08-05 17:21:33,618779
-3,-73,-20,-2,-1,-1,0,-1,2021-08-05 17:21:33,618779
2,2,-15,-4,-2,-1,-2,-2,2021-08-05 17:21:33,618779
-5,-54,-11,0,0,0,-1,-3,2021-08-05 17:21:33,695106
-6,4,-11,-5,-1,-2,-5,-4,2021-08-05 17:21:33,695106
4,8,3,-6,-4,-4,-5,-2,2021-08-05 17:21:33,695106
5,14,4,2,0,0,-1,0,2021-08-05 17:21:33,695106
4,15,10,2,5,1,2,6,2021-08-05 17:21:33,695106
0,-2,7,4,2,1,2,-1,2021-08-05 17:21:33,695106
-4,-5,-3,1,-1,-2,1,-1,2021-08-05 17:21:33,695106
-1,-1,-2,-1,1,0,0,0,2021-08-05 17:21:33,695106
-2,2,-1,1,-4,-1,-2,-3,2021-08-05 17:21:33,695106
1,-1,4,-3,-2,-3,-2,-1,2021-08-05 17:21:33,695106
1,0,-9,-1,-1,-2,1,0,2021-08-05 17:21:33,695106
-2,-9,-5,-4,-4,-2,-2,-3,2021-08-05 17:21:33,695106
-1,6,3,-2,-2,-2,0,0,2021-08-05 17:21:33,695106
3,55,-3,-3,-1,0,-1,-1,2021-08-05 17:21:33,695106
-5,-51,7,4,5,2,-1,-1,2021-08-05 17:21:33,696022
-1,-4,-6,-2,-2,0,1,2,2021-08-05 17:21:33,696022
0,1,-6,-2,3,0,0,0,2021-08-05 17:21:33,711140
1,19,23,0,-5,-3,-2,-2,2021-08-05 17:21:33,711140
-1,-8,-23,-2,-2,0,-1,0,2021-08-05 17:21:33,742011
-4,-14,-2,-4,-3,-3,-4,-4,2021-08-05 17:21:33,758033
0,10,12,2,3,4,0,2,2021-08-05 17:21:33,758033
0,-21,-22,0,1,0,0,0,2021-08-05 17:21:33,758033
2,63,28,0,-1,0,-1,1,2021-08-05 17:21:33,758033
-7,-109,-48,-2,1,0,1,0,2021-08-05 17:21:33,758033
-4,57,-1,-9,-9,-5,-5,-6,2021-08-05 17:21:33,758033
0,33,11,0,-2,-4,-2,-4,2021-08-05 17:21:33,758033
-7,-8,3,-1,-2,-1,-1,-2,2021-08-05 17:21:33,773397
0,28,14,2,-1,0,2,2,2021-08-05 17:21:33,788986
3,-30,-16,-1,-1,0,0,0,2021-08-05 17:21:33,789239
1,-13,-2,3,0,2,1,0,2021-08-05 17:21:33,789492
2,3,-2,0,-2,-2,0,0,2021-08-05 17:21:33,789492
-1,19,17,0,-1,-1,-1,-1,2021-08-05 17:21:33,789492
0,-7,-4,2,3,0,0,1,2021-08-05 17:21:33,789492
0,-22,0,-3,-3,-1,-1,1,2021-08-05 17:21:33,789492
2,-3,1,-1,-1,0,-2,0,2021-08-05 17:21:33,805137
-4,3,-2,-1,0,-1,0,-1,2021-08-05 17:21:33,805137
7,58,13,-2,-3,-2,-1,-2,2021-08-05 17:21:33,820056
-2,-66,-16,3,1,0,0,1,2021-08-05 17:21:33,820056
-16,-28,-18,-6,-2,-1,-2,-2,2021-08-05 17:21:33,835139
5,21,10,0,0,-2,-3,-2,2021-08-05 17:21:33,851025
8,26,10,-3,-4,-4,-6,-5,2021-08-05 17:21:33,851184
-16,-27,4,7,6,5,5,4,2021-08-05 17:21:33,851184
4,-1,-6,-2,-3,-2,-1,-1,2021-08-05 17:21:33,851184
3,62,0,-1,-1,1,-1,0,2021-08-05 17:21:33,851184
-2,-85,-2,-1,-2,-2,0,1,2021-08-05 17:21:33,851184
8,50,-1,-3,0,-1,-2,-1,2021-08-05 17:21:33,851184
-7,-38,-5,0,1,-1,0,0,2021-08-05 17:21:33,866770
-3,9,2,-1,-3,-1,-3,-2,2021-08-05 17:21:33,866902
-1,-13,-17,1,2,1,0,-1,2021-08-05 17:21:33,882132
-2,8,5,-5,-3,-3,-1,-2,2021-08-05 17:21:33,882132
1,46,23,1,-2,-2,-1,-2,2021-08-05 17:21:33,898053
4,-25,-17,4,2,1,0,1,2021-08-05 17:21:33,900987
-2,35,1,0,0,1,0,2,2021-08-05 17:21:33,900987
-3,-99,-7,-4,-1,-3,-3,-1,2021-08-05 17:21:33,901986
-2,13,-10,-2,-1,0,0,-1,2021-08-05 17:21:33,914145
-2,12,13,-3,-3,-3,-4,-3,2021-08-05 17:21:33,914145
-5,-3,-7,2,0,0,1,0,2021-08-05 17:21:33,914145
6,27,-1,1,0,2,0,0,2021-08-05 17:21:33,914145
4,1,7,-1,-1,-1,-1,-2,2021-08-05 17:21:33,930044
-2,-20,-5,1,2,-1,-1,0,2021-08-05 17:21:33,946128
-6,-1,7,0,-1,-2,-1,-1,2021-08-05 17:21:33,961145
2,5,-12,-7,-3,-2,-1,0,2021-08-05 17:21:33,961145
0,-21,-10,-3,-1,0,-1,0,2021-08-05 17:21:33,961145
-3,24,5,-5,-3,-2,-3,-4,2021-08-05 17:21:33,961145
7,-1,10,1,-1,0,-1,-1,2021-08-05 17:21:33,961145
-4,-57,9,3,1,1,0,0,2021-08-05 17:21:33,961145
-19,1,-19,0,1,1,0,-2,2021-08-05 17:21:33,976252
11,36,-2,-2,-5,-5,-3,-2,2021-08-05 17:21:33,976252
-5,-46,-10,-3,0,-2,0,-1,2021-08-05 17:21:33,976252
5,36,8,1,-2,-2,0,-1,2021-08-05 17:21:33,976252
6,2,2,-4,-3,-3,-1,0,2021-08-05 17:21:33,992353
-4,-10,12,1,0,1,2,1,2021-08-05 17:21:34,008274
2,14,-4,2,2,4,2,2,2021-08-05 17:21:34,040405
1,67,-12,-2,-1,-1,-1,-2,2021-08-05 17:21:34,056330
1,-93,1,-2,-3,-1,-3,-1,2021-08-05 17:21:34,056330
-7,28,6,2,4,3,1,-2,2021-08-05 17:21:34,056330
-1,-25,-9,4,3,-1,-1,-2,2021-08-05 17:21:34,056330
-2,5,1,0,-4,-7,-5,-4,2021-08-05 17:21:34,056330
8,53,19,-2,-4,-5,-3,-1,2021-08-05 17:21:34,056330
3,-7,-7,3,1,1,1,3,2021-08-05 17:21:34,056330
-8,-38,-18,-9,-6,-4,-1,-3,2021-08-05 17:21:34,056330
-3,-14,-15,0,5,4,3,4,2021-08-05 17:21:34,056330
8,67,19,3,0,-1,0,-2,2021-08-05 17:21:34,057252
9,-75,-17,-1,0,1,2,3,2021-08-05 17:21:34,057252
-18,13,14,-5,-5,-2,-4,-7,2021-08-05 17:21:34,057252
-16,-6,-13,-3,-3,-2,-3,-2,2021-08-05 17:21:34,057252
4,1,-1,-4,-3,-1,-1,-2,2021-08-05 17:21:34,072319
2,10,9,3,3,2,-1,-1,2021-08-05 17:21:34,072610
12,23,13,4,2,0,1,3,2021-08-05 17:21:34,072610
3,-41,-4,-1,0,-1,1,-1,2021-08-05 17:21:34,072610
-9,16,5,-1,-1,-1,-1,-2,2021-08-05 17:21:34,103278
4,-54,-10,-1,0,-1,2,2,2021-08-05 17:21:34,119274
-12,-26,-24,0,-1,0,-1,1,2021-08-05 17:21:34,135216
3,107,29,-4,-7,-6,-8,-7,2021-08-05 17:21:34,135391
0,-56,-12,3,3,2,1,1,2021-08-05 17:21:34,135391
-3,24,-5,-6,-6,-3,-3,-2,2021-08-05 17:21:34,135391
4,51,7,0,-1,0,-1,0,2021-08-05 17:21:34,135391
-2,-42,-6,3,4,4,2,3,2021-08-05 17:21:34,135391
0,43,6,0,1,0,1,0,2021-08-05 17:21:34,135391
-6,-23,0,-1,-2,-3,-2,-5,2021-08-05 17:21:34,135391
7,1,-2,-2,1,0,0,-1,2021-08-05 17:21:34,151320
-5,-3,-5,-2,-2,-1,-2,-3,2021-08-05 17:21:34,151320
-5,2,-1,3,2,1,0,-1,2021-08-05 17:21:34,151320
-5,6,-8,-4,-6,-2,-4,-2,2021-08-05 17:21:34,151320
-2,-23,-5,-4,-1,-2,0,2,2021-08-05 17:21:34,151320
12,-13,23,2,-1,-1,-3,-1,2021-08-05 17:21:34,151798
-10,46,10,3,3,1,2,-2,2021-08-05 17:21:34,166748
-7,-20,-26,-1,-2,-1,-1,0,2021-08-05 17:21:34,166956
-3,-26,-8,-5,-4,-3,-4,-3,2021-08-05 17:21:34,174787
9,11,5,-3,-3,-3,-1,0,2021-08-05 17:21:34,175793
-2,-5,-5,-2,-1,-1,-1,0,2021-08-05 17:21:34,198906
-2,33,16,1,-2,-2,-2,-3,2021-08-05 17:21:34,214753
5,27,2,4,5,5,3,4,2021-08-05 17:21:34,230814
-6,-39,-10,-1,-1,-1,1,0,2021-08-05 17:21:34,230814
2,35,0,1,-1,0,-1,-2,2021-08-05 17:21:34,230814
-3,-33,6,2,3,0,-1,1,2021-08-05 17:21:34,230814
5,23,5,-4,-4,-3,-1,-2,2021-08-05 17:21:34,230814
-15,-47,-22,-5,-2,-2,-2,-2,2021-08-05 17:21:34,230814
3,4,-19,-8,-6,-4,-3,-3,2021-08-05 17:21:34,230814
2,-2,1,-6,-3,-3,0,-2,2021-08-05 17:21:34,231817
-5,15,9,2,-2,-2,-1,-2,2021-08-05 17:21:34,231817
4,37,12,3,3,2,1,2,2021-08-05 17:21:34,231817
0,-54,-15,0,0,0,1,-1,2021-08-05 17:21:34,260834
-3,-2,5,1,1,0,0,1,2021-08-05 17:21:34,292296
2,1,-3,0,0,1,-1,0,2021-08-05 17:21:34,308344
5,29,6,1,-3,-3,-3,-3,2021-08-05 17:21:34,308344
-7,-52,-5,-1,-1,-2,-1,-1,2021-08-05 17:21:34,308344
-7,75,-3,-4,-1,-1,-1,0,2021-08-05 17:21:34,308344
3,-67,0,1,0,-1,2,0,2021-08-05 17:21:34,308344
8,41,14,-1,-1,-1,0,2,2021-08-05 17:21:34,308344
11,-35,-15,2,1,2,1,3,2021-08-05 17:21:34,308344
-18,32,-5,-5,-5,-4,-5,-7,2021-08-05 17:21:34,308344
-6,61,6,-1,-6,-4,-3,-3,2021-08-05 17:21:34,308344
3,3,-1,-3,-3,-1,-1,0,2021-08-05 17:21:34,309298
6,-30,12,2,3,2,2,3,2021-08-05 17:21:34,309392
7,-9,-8,8,5,4,4,4,2021-08-05 17:21:34,309392
-9,-14,-1,-2,-3,-4,-3,-4,2021-08-05 17:21:34,309392
-5,-9,-18,-5,-2,-2,-3,-4,2021-08-05 17:21:34,309392
-1,39,10,-2,-2,-2,-3,-2,2021-08-05 17:21:34,338351
2,-17,5,1,1,-2,0,-1,2021-08-05 17:21:34,354432
-2,-22,-2,2,2,0,-1,1,2021-08-05 17:21:34,370358
1,-3,6,1,-1,1,3,2,2021-08-05 17:21:34,370358
-11,-2,-8,-1,-1,-2,-1,-3,2021-08-05 17:21:34,370358
3,5,1,-5,-6,-2,-4,-4,2021-08-05 17:21:34,370358
4,38,11,4,6,5,2,3,2021-08-05 17:21:34,370358
-1,-63,-12,0,0,0,0,1,2021-08-05 17:21:34,370358
6,-1,-29,-6,-3,-2,-4,-2,2021-08-05 17:21:34,370358
-13,-14,14,1,3,-1,1,0,2021-08-05 17:21:34,370358
2,9,1,-1,0,-3,-1,-2,2021-08-05 17:21:34,371261
-2,3,-4,0,-1,-1,0,-1,2021-08-05 17:21:34,371261
0,13,2,0,1,-1,0,0,2021-08-05 17:21:34,402261
6,-15,5,-1,-3,-2,-1,-1,2021-08-05 17:21:34,402473
-3,-7,-2,-1,-2,-2,-2,-1,2021-08-05 17:21:34,402473
-3,52,-2,3,4,1,1,1,2021-08-05 17:21:34,402473
-1,-58,-8,-3,-4,-2,-4,0,2021-08-05 17:21:34,418260
1,-6,-7,-6,-6,-5,-6,-3,2021-08-05 17:21:34,418488
-3,-16,3,-2,-3,-2,-3,-4,2021-08-05 17:21:34,418488
2,19,5,4,4,2,2,1,2021-08-05 17:21:34,418488
-1,21,4,-1,-2,-1,0,-1,2021-08-05 17:21:34,434316
2,5,4,3,4,3,4,2,2021-08-05 17:21:34,450392
-1,-19,-9,-2,-1,1,-2,0,2021-08-05 17:21:34,450392
-3,23,14,-2,0,-2,-2,-3,2021-08-05 17:21:34,450392
5,-43,-20,1,3,-1,1,2,2021-08-05 17:21:34,450392
-10,-14,-3,-3,-4,-1,0,-2,2021-08-05 17:21:34,450392
-1,-5,2,-6,-9,-6,-3,-4,2021-08-05 17:21:34,450392
-3,31,4,-2,0,-1,-3,-2,2021-08-05 17:21:34,450392
3,-2,-3,0,0,1,-1,0,2021-08-05 17:21:34,481853
3,-6,4,3,1,3,2,2,2021-08-05 17:21:34,481952
0,8,-4,-3,-1,-2,-2,-2,2021-08-05 17:21:34,482025
-3,-21,9,0,-2,0,-1,1,2021-08-05 17:21:34,482062
-2,25,4,0,1,2,0,2,2021-08-05 17:21:34,482062
10,28,1,-1,-3,-2,-1,-1,2021-08-05 17:21:34,482062
-12,11,-26,-3,-2,-1,2,3,2021-08-05 17:21:34,497140
-8,-89,-3,-5,-7,-3,-4,-4,2021-08-05 17:21:34,497140
-4,-8,0,-1,-2,0,-1,-2,2021-08-05 17:21:34,513150
4,19,1,0,4,0,-1,1,2021-08-05 17:21:34,528227
3,10,11,0,-3,-2,-3,-3,2021-08-05 17:21:34,543628
2,1,-13,-2,-1,-2,-2,-2,2021-08-05 17:21:34,543919
-2,64,14,1,-1,-1,0,-2,2021-08-05 17:21:34,543989
-1,-58,9,0,1,0,-1,1,2021-08-05 17:21:34,543989
-2,-22,-10,-1,3,2,1,-1,2021-08-05 17:21:34,543989
-4,-7,-13,-3,-1,-1,-2,-1,2021-08-05 17:21:34,543989
-3,2,8,0,-2,-1,-3,-3,2021-08-05 17:21:34,543989
-1,22,3,0,1,-3,-1,-1,2021-08-05 17:21:34,543989
2,6,10,0,0,-2,0,-1,2021-08-05 17:21:34,559108
-2,-20,-14,1,1,2,-1,0,2021-08-05 17:21:34,575118
-1,13,3,-2,-2,-1,1,-1,2021-08-05 17:21:34,591026
-2,-21,2,2,1,0,0,0,2021-08-05 17:21:34,607151
-1,-3,0,2,2,0,0,1,2021-08-05 17:21:34,623091
5,-16,-13,-1,-3,-1,0,-1,2021-08-05 17:21:34,623091
-16,12,-1,-5,-6,-5,-5,-4,2021-08-05 17:21:34,623091
2,-10,3,4,3,3,4,2,2021-08-05 17:21:34,623091
2,8,-9,-4,-2,-2,-2,-2,2021-08-05 17:21:34,623091
0,8,5,-3,-4,-1,-2,-2,2021-08-05 17:21:34,623988
7,21,10,4,5,1,-1,1,2021-08-05 17:21:34,624045
2,-10,-15,-4,-2,0,-2,1,2021-08-05 17:21:34,624126
-7,23,17,3,1,-2,0,-1,2021-08-05 17:21:34,624126
-4,-42,-20,-1,1,-1,-1,-1,2021-08-05 17:21:34,624126
0,-18,-10,-7,-3,-4,-3,-3,2021-08-05 17:21:34,624126
1,48,24,1,-1,-2,-3,-3,2021-08-05 17:21:34,624126
3,-43,-20,1,1,2,0,1,2021-08-05 17:21:34,638987
-4,18,8,-2,-1,-1,-1,-2,2021-08-05 17:21:34,638987
-1,-8,8,4,0,2,1,1,2021-08-05 17:21:34,655151
1,17,-10,-2,-1,-1,-1,-1,2021-08-05 17:21:34,671135
-1,-65,5,-1,-1,1,0,0,2021-08-05 17:21:34,687017
-5,1,-5,0,0,1,-1,-1,2021-08-05 17:21:34,687461
6,23,6,-2,1,0,-2,-2,2021-08-05 17:21:34,702600
-4,-16,-10,-2,-3,-4,-3,-3,2021-08-05 17:21:34,718715
-1,58,11,-2,-2,-1,0,0,2021-08-05 17:21:34,731476
13,25,30,14,10,7,9,9,2021-08-05 17:21:34,731476
3,-101,-59,0,2,4,4,5,2021-08-05 17:21:34,731476
-31,28,1,-18,-17,-14,-13,-14,2021-08-05 17:21:34,732510
1,-1,-4,-4,-5,-6,-7,-7,2021-08-05 17:21:34,732510
6,31,16,-2,0,-1,-2,0,2021-08-05 17:21:34,732510
7,40,20,9,4,3,3,4,2021-08-05 17:21:34,732510
7,-48,-14,7,4,3,5,6,2021-08-05 17:21:34,732510
-4,-1,-14,-4,1,3,1,2,2021-08-05 17:21:34,732510
-3,9,1,-5,-7,-5,-5,-5,2021-08-05 17:21:34,732510
0,-14,1,-4,-1,-2,-1,0,2021-08-05 17:21:34,732510
-2,-3,-1,0,2,2,1,1,2021-08-05 17:21:34,732510
-1,23,6,0,-2,0,-1,-1,2021-08-05 17:21:34,732510
-6,-24,-11,1,3,0,-1,-1,2021-08-05 17:21:34,732510
-4,15,28,1,-2,-4,-5,-6,2021-08-05 17:21:34,766712
9,-9,-21,0,2,-2,-1,1,2021-08-05 17:21:34,782366
1,35,7,-5,-4,-2,-3,1,2021-08-05 17:21:34,798251
-3,-43,-15,-5,-4,-5,-2,-1,2021-08-05 17:21:34,798422
-4,20,6,0,-1,0,1,1,2021-08-05 17:21:34,798422
3,-49,-4,2,2,3,2,3,2021-08-05 17:21:34,798422
3,14,-22,-2,-1,0,-1,-3,2021-08-05 17:21:34,798422
-8,-19,6,-9,-10,-6,-6,-7,2021-08-05 17:21:34,798422
-3,29,10,-1,0,-2,0,-1,2021-08-05 17:21:34,798422
4,1,13,4,3,4,1,1,2021-08-05 17:21:34,798422
6,-6,-6,5,2,0,3,1,2021-08-05 17:21:34,798422
-3,-8,3,2,-1,-2,-1,0,2021-08-05 17:21:34,798422
-17,-31,-22,-6,-3,-3,-1,-4,2021-08-05 17:21:34,830279
-9,36,1,-5,-5,-4,-3,-6,2021-08-05 17:21:34,846379
6,-10,23,6,3,1,1,1,2021-08-05 17:21:34,862280
-1,-1,-19,0,1,1,0,0,2021-08-05 17:21:34,877507
10,-3,-3,-2,-3,0,-1,2,2021-08-05 17:21:34,893222
-4,26,12,-2,-2,-2,-3,-3,2021-08-05 17:21:34,909220
-2,-43,4,3,3,1,0,0,2021-08-05 17:21:34,925520
4,4,-22,0,4,3,2,2,2021-08-05 17:21:34,925665
-13,-98,-10,-5,-5,-5,-3,-4,2021-08-05 17:21:34,925825
-1,-2,-21,-4,-3,-2,-2,-1,2021-08-05 17:21:34,925933
-5,35,16,-5,-6,-4,-6,-3,2021-08-05 17:21:34,925933
5,9,22,5,2,1,0,-2,2021-08-05 17:21:34,925933
2,-1,-16,-1,-2,1,0,1,2021-08-05 17:21:34,926223
3,-11,2,-2,-1,-1,1,-1,2021-08-05 17:21:34,926223
-2,-7,-4,0,-2,-2,-1,-1,2021-08-05 17:21:34,926223
-11,4,10,1,1,1,1,-2,2021-08-05 17:21:34,926223
5,43,7,-1,-1,-4,-2,-3,2021-08-05 17:21:34,926223
4,-19,-4,4,1,1,1,3,2021-08-05 17:21:34,926223
-9,2,-15,-4,-2,1,1,2,2021-08-05 17:21:34,941380
-1,17,8,0,-1,-1,-2,-3,2021-08-05 17:21:34,941380
4,32,26,4,0,0,-1,1,2021-08-05 17:21:34,941562
2,-49,-31,1,2,1,0,0,2021-08-05 17:21:34,941562
2,-14,-11,-5,-2,-2,-2,-1,2021-08-05 17:21:34,941562
-5,43,-11,1,-2,0,-2,-2,2021-08-05 17:21:34,941562
-1,-8,12,0,-1,0,-2,1,2021-08-05 17:21:34,941562
0,39,7,-2,-1,-1,-1,-1,2021-08-05 17:21:34,941562
-6,-31,-9,0,0,-1,0,-2,2021-08-05 17:21:34,957337
-7,-1,-6,-4,2,0,0,-3,2021-08-05 17:21:34,973223
6,4,-11,0,1,-2,-2,-3,2021-08-05 17:21:34,988330
0,21,3,-6,-5,-4,-5,-2,2021-08-05 17:21:34,988470
2,-13,6,0,-1,1,-1,0,2021-08-05 17:21:34,988577
3,-7,10,2,-3,0,1,1,2021-08-05 17:21:34,988667
-4,2,-8,1,-1,1,1,-2,2021-08-05 17:21:34,988667
1,-15,3,-1,-1,-1,-2,-2,2021-08-05 17:21:34,988667
0,14,-11,-2,1,-1,1,-1,2021-08-05 17:21:34,988667
-1,-27,2,-1,1,0,-1,3,2021-08-05 17:21:34,988667
-1,-9,4,1,2,1,0,2,2021-08-05 17:21:35,003269
3,5,2,2,-1,-1,-1,-3,2021-08-05 17:21:35,004256
-11,26,4,-3,-4,-3,-2,-3,2021-08-05 17:21:35,004256
3,-14,-3,4,3,1,1,0,2021-08-05 17:21:35,004256
6,36,-10,-6,-4,-2,-1,-3,2021-08-05 17:21:35,018283
-11,16,14,-6,-5,-1,-3,-4,2021-08-05 17:21:35,034279
2,-58,-23,1,2,1,2,1,2021-08-05 17:21:35,050322
4,27,9,-2,-4,-3,-4,-1,2021-08-05 17:21:35,050582
-4,-18,6,6,2,0,1,3,2021-08-05 17:21:35,050582
-5,-48,-8,1,3,0,2,1,2021-08-05 17:21:35,050582
0,13,13,-2,-3,-3,-5,-6,2021-08-05 17:21:35,050582
2,-1,-11,-3,-2,-4,-2,1,2021-08-05 17:21:35,050582
1,17,0,-2,0,1,1,-2,2021-08-05 17:21:35,065296
-4,23,17,6,5,4,1,1,2021-08-05 17:21:35,080458
-3,-30,-14,0,1,1,1,0,2021-08-05 17:21:35,096337
2,6,-9,-5,-4,-3,-1,-4,2021-08-05 17:21:35,096337
-4,-3,-1,-4,-4,-6,-3,-3,2021-08-05 17:21:35,096337
-1,29,18,-1,0,-1,1,1,2021-08-05 17:21:35,096337
0,-68,-7,4,1,2,1,1,2021-08-05 17:21:35,096337
-3,3,-7,-1,-1,-1,1,-1,2021-08-05 17:21:35,096337
-1,-6,-9,-7,-4,-2,-2,-3,2021-08-05 17:21:35,096337
-1,12,18,0,0,-1,1,-2,2021-08-05 17:21:35,096337
5,22,-3,7,3,2,3,5,2021-08-05 17:21:35,096337
-1,10,3,-1,-3,0,-2,-2,2021-08-05 17:21:35,097341
-3,-32,-11,-6,-4,-1,-2,-4,2021-08-05 17:21:35,127649
2,4,-10,-3,-3,1,0,-1,2021-08-05 17:21:35,143283
-2,12,2,-3,-3,-2,-4,-4,2021-08-05 17:21:35,159482
5,26,20,6,1,0,1,5,2021-08-05 17:21:35,159569
11,-8,1,7,3,1,2,2,2021-08-05 17:21:35,159569
-33,-47,-18,-4,-1,-3,-3,-5,2021-08-05 17:21:35,159569
4,-4,-8,-9,-6,-5,-3,-2,2021-08-05 17:21:35,175370
-1,2,-2,-4,-4,-2,-4,-4,2021-08-05 17:21:35,175370
10,22,13,-1,1,0,-3,-1,2021-08-05 17:21:35,175370
15,-9,-8,4,2,3,2,4,2021-08-05 17:21:35,175370
-10,19,8,-1,0,0,-1,0,2021-08-05 17:21:35,175370
-11,-14,1,-2,-2,-1,-1,-3,2021-08-05 17:21:35,175370
-4,4,0,3,2,1,1,1,2021-08-05 17:21:35,175370
4,-1,-17,-2,-3,-4,-1,-3,2021-08-05 17:21:35,175370
8,22,14,1,1,1,1,1,2021-08-05 17:21:35,175370
-7,-59,-22,-5,-2,-3,-2,-3,2021-08-05 17:21:35,175370
-13,7,1,-5,-4,-5,-4,-5,2021-08-05 17:21:35,191280
5,-1,-5,-2,-1,-2,0,0,2021-08-05 17:21:35,206282
4,20,11,1,1,1,3,1,2021-08-05 17:21:35,222336
0,-1,3,-1,0,-1,-1,-1,2021-08-05 17:21:35,222336
-2,-9,-6,1,2,2,1,2,2021-08-05 17:21:35,222660
1,4,-5,0,-3,-2,-4,-3,2021-08-05 17:21:35,222660
1,31,15,-1,-1,-1,-4,-4,2021-08-05 17:21:35,222660
-3,-7,-8,-7,-1,-1,0,-2,2021-08-05 17:21:35,222660
-5,-14,-8,0,1,1,0,1,2021-08-05 17:21:35,238321
7,7,4,0,1,-1,-1,2,2021-08-05 17:21:35,238321
-5,15,10,1,-3,-3,-2,-2,2021-08-05 17:21:35,238321
2,-18,-7,7,3,3,2,3,2021-08-05 17:21:35,253280
-7,1,2,-1,-1,0,-2,-1,2021-08-05 17:21:35,253280
0,-5,-10,-8,-4,-1,-1,-3,2021-08-05 17:21:35,253280
-4,-7,-3,-3,-6,-3,-2,-2,2021-08-05 17:21:35,268403
4,16,2,6,5,1,2,1,2021-08-05 17:21:35,268403
0,26,1,1,-2,-3,1,-1,2021-08-05 17:21:35,284390
10,-50,4,8,4,1,1,3,2021-08-05 17:21:35,294282
-16,10,-7,-2,-1,-2,-4,-4,2021-08-05 17:21:35,294282
-9,28,9,-2,0,0,0,1,2021-08-05 17:21:35,294282
3,-10,-15,-10,-7,-3,-5,-6,2021-08-05 17:21:35,294282
0,24,7,0,-1,1,-2,-1,2021-08-05 17:21:35,294282
14,-5,2,4,5,4,5,5,2021-08-05 17:21:35,294282
4,-10,6,1,-2,0,-1,1,2021-08-05 17:21:35,295282
-7,8,8,4,3,1,1,-1,2021-08-05 17:21:35,316328
-2,-7,-5,-1,-2,0,-1,-2,2021-08-05 17:21:35,316495
-3,-19,-20,-4,-3,-2,-3,-3,2021-08-05 17:21:35,316495
-2,19,9,-4,-5,-3,-4,-2,2021-08-05 17:21:35,316594
2,-2,0,0,2,0,1,3,2021-08-05 17:21:35,347280
-1,11,5,-1,-3,-3,-1,-2,2021-08-05 17:21:35,362280
-3,-11,0,7,2,0,0,-2,2021-08-05 17:21:35,377627
1,15,-15,-14,-5,-1,-3,-3,2021-08-05 17:21:35,377749
2,-17,-10,-4,-2,0,0,0,2021-08-05 17:21:35,392413
-3,2,2,3,2,1,-1,0,2021-08-05 17:21:35,392562
-2,-14,-6,-1,0,-1,-2,-1,2021-08-05 17:21:35,392562
3,3,16,8,2,-1,2,0,2021-08-05 17:21:35,392562
-4,-1,0,1,0,-1,-1,-2,2021-08-05 17:21:35,392562
-2,12,-10,-11,-4,-1,-1,-2,2021-08-05 17:21:35,392562
-1,-6,3,-1,0,1,-1,0,2021-08-05 17:21:35,392562
-2,14,5,3,1,2,0,-1,2021-08-05 17:21:35,393415
5,-16,-2,3,-1,-1,-1,1,2021-08-05 17:21:35,393432
-6,4,-2,1,0,0,0,0,2021-08-05 17:21:35,393432
0,2,-5,-10,-4,-5,-5,-4,2021-08-05 17:21:35,393432
0,-8,-6,0,0,-1,-1,1,2021-08-05 17:21:35,393432
-4,-2,14,8,3,1,1,0,2021-08-05 17:21:35,423479
1,9,2,1,-1,-3,-3,-4,2021-08-05 17:21:35,423550
0,-2,-11,-9,-5,-2,-3,-1,2021-08-05 17:21:35,423696
-7,-6,-2,-2,-1,0,0,-2,2021-08-05 17:21:35,423696
-2,2,-4,-1,-2,-1,-1,1,2021-08-05 17:21:35,439627
2,0,10,6,0,-1,2,3,2021-08-05 17:21:35,455519
1,5,2,-3,-4,-1,0,-1,2021-08-05 17:21:35,471414
0,-12,-20,-6,-1,-2,2,-1,2021-08-05 17:21:35,471626
-2,0,1,0,0,-2,0,-1,2021-08-05 17:21:35,471626
-3,1,0,-3,-2,-1,-4,-2,2021-08-05 17:21:35,471626
-2,-1,1,1,2,-1,0,-1,2021-08-05 17:21:35,471626
5,-6,0,4,2,1,0,1,2021-08-05 17:21:35,471626
2,0,-13,-9,-4,-1,-1,-2,2021-08-05 17:21:35,487462
-5,-2,-3,-1,0,-1,1,2,2021-08-05 17:21:35,487462
-3,4,11,4,0,-3,-3,-1,2021-08-05 17:21:35,487786
-4,-15,-5,1,-1,-1,-1,0,2021-08-05 17:21:35,487786
-1,-4,-9,1,1,1,-1,-2,2021-08-05 17:21:35,487786
5,3,1,-3,-1,-1,-2,-2,2021-08-05 17:21:35,487786
2,19,9,-3,-4,-2,-2,-1,2021-08-05 17:21:35,503491
-3,4,-16,-1,1,0,0,-3,2021-08-05 17:21:35,503491
2,-10,4,4,3,2,-1,4,2021-08-05 17:21:35,519468
-11,3,1,-7,-4,-1,-1,-4,2021-08-05 17:21:35,535553
5,-10,-6,0,4,1,2,4,2021-08-05 17:21:35,535670
-1,-8,1,-2,-4,-3,-4,-5,2021-08-05 17:21:35,535670
-5,-11,2,-1,-2,1,1,0,2021-08-05 17:21:35,535819
12,-4,2,11,3,1,4,2,2021-08-05 17:21:35,535819
-12,3,-9,-10,-4,-1,1,-2,2021-08-05 17:21:35,535819
-6,-3,-4,-2,-1,0,-1,-3,2021-08-05 17:21:35,535819
-4,1,1,-4,-3,-3,-4,-5,2021-08-05 17:21:35,565475
2,6,9,4,-2,-2,-2,-1,2021-08-05 17:21:35,581627
2,-4,4,9,0,-3,-4,-6,2021-08-05 17:21:35,581627
8,0,-12,-10,0,0,0,5,2021-08-05 17:21:35,581627
-2,5,-3,-3,0,-2,1,1,2021-08-05 17:21:35,581627
-5,-3,-3,-1,-3,-1,-3,-2,2021-08-05 17:21:35,581627
0,-4,-7,-6,-1,2,0,1,2021-08-05 17:21:35,597625
2,3,13,9,3,1,2,3,2021-08-05 17:21:35,597731
2,12,7,1,1,1,-1,-1,2021-08-05 17:21:35,597731
-5,-9,-16,-12,-3,-2,0,-1,2021-08-05 17:21:35,597731
-1,-3,3,2,0,-2,0,-1,2021-08-05 17:21:35,597731
-2,1,3,-4,-5,-2,-2,-5,2021-08-05 17:21:35,597731
-2,16,8,5,0,0,0,0,2021-08-05 17:21:35,613622
-6,3,-7,-1,-2,-1,-2,-7,2021-08-05 17:21:35,614458
10,-7,-2,3,6,6,7,11,2021-08-05 17:21:35,629613
3,14,8,-2,-1,-4,-1,0,2021-08-05 17:21:35,629613
0,5,-2,-1,-1,-1,-1,-2,2021-08-05 17:21:35,629613
-6,-12,-4,2,0,1,1,1,2021-08-05 17:21:35,629965
-6,-26,-14,-9,-2,-1,-2,-2,2021-08-05 17:21:35,645521
0,7,8,3,-2,-3,-3,-4,2021-08-05 17:21:35,645521
1,-1,-4,-8,-2,-2,-1,0,2021-08-05 17:21:35,661613
-1,-3,-3,-1,0,-2,-2,-1,2021-08-05 17:21:35,661613
-1,2,20,9,0,-1,0,1,2021-08-05 17:21:35,661613
-3,-6,-1,8,0,-2,0,-3,2021-08-05 17:21:35,661613
1,-13,-36,-25,-2,0,0,0,2021-08-05 17:21:35,691622
1,5,-1,-2,1,0,1,0,2021-08-05 17:21:35,706522
-1,6,4,4,-1,-1,-2,-3,2021-08-05 17:21:35,706522
-6,-2,0,-1,-4,-3,-4,-3,2021-08-05 17:21:35,706522
1,4,10,9,-1,-1,-1,2,2021-08-05 17:21:35,706522
1,-4,-4,-2,0,0,0,1,2021-08-05 17:21:35,706522
1,3,2,-1,-1,-1,-2,-2,2021-08-05 17:21:35,706522
1,-3,2,1,1,0,0,1,2021-08-05 17:21:35,706522
-2,-6,1,-3,-1,-1,0,-1,2021-08-05 17:21:35,738524
-6,-3,-13,-9,-4,-3,-5,-5,2021-08-05 17:21:35,738524
2,5,4,7,0,0,3,6,2021-08-05 17:21:35,738524
0,-3,4,2,0,1,2,0,2021-08-05 17:21:35,738524
-4,-3,-15,-13,-6,-3,-3,-4,2021-08-05 17:21:35,738524
4,4,5,4,2,3,1,4,2021-08-05 17:21:35,738524
-3,2,-6,-2,-4,-2,-5,-6,2021-08-05 17:21:35,739400
0,-4,16,12,3,0,1,3,2021-08-05 17:21:35,739522
-4,8,12,5,-1,-2,-3,-6,2021-08-05 17:21:35,769650
-2,-4,-25,-10,-3,0,-1,-1,2021-08-05 17:21:35,785643
-3,-6,1,3,0,1,0,0,2021-08-05 17:21:35,785643
2,2,-10,-10,-3,0,-2,-1,2021-08-05 17:21:35,785643
-1,-9,19,22,6,2,2,4,2021-08-05 17:21:35,785643
-3,1,7,0,-2,-4,-1,0,2021-08-05 17:21:35,785643
-1,6,-15,-15,-4,-4,-3,-5,2021-08-05 17:21:35,785643
-1,-3,-4,-3,-2,-3,0,-2,2021-08-05 17:21:35,785643
-3,-4,6,3,-2,0,-2,-1,2021-08-05 17:21:35,801610
2,-2,4,9,5,2,1,1,2021-08-05 17:21:35,801610
-3,-3,-13,-12,-5,-5,-2,-4,2021-08-05 17:21:35,817626
0,-1,-10,-3,0,-1,-2,-2,2021-08-05 17:21:35,817626
1,2,3,4,0,0,0,1,2021-08-05 17:21:35,817907
3,-3,-1,0,0,2,2,4,2021-08-05 17:21:35,817907
0,2,24,20,3,-1,1,0,2021-08-05 17:21:35,818393
-2,-2,-12,-27,-3,0,1,-3,2021-08-05 17:21:35,818522
-3,-11,-40,-17,-8,-1,-4,-6,2021-08-05 17:21:35,848573
-1,2,8,-2,-4,-2,-2,-3,2021-08-05 17:21:35,848573
0,0,-10,-5,0,1,-2,0,2021-08-05 17:21:35,848856
4,3,20,14,1,-1,1,5,2021-08-05 17:21:35,848856
-2,-2,20,15,3,-2,0,-2,2021-08-05 17:21:35,864598
0,1,-16,-12,-1,-1,-1,-1,2021-08-05 17:21:35,864598
1,-1,-4,-4,-2,-2,-2,0,2021-08-05 17:21:35,864598
-5,-4,-6,0,1,0,-2,-2,2021-08-05 17:21:35,864872
-7,-31,9,7,3,2,2,1,2021-08-05 17:21:35,880520
1,39,-5,-2,1,-3,-2,-4,2021-08-05 17:21:35,880520
4,16,11,-4,-2,-3,-3,-6,2021-08-05 17:21:35,912625
-1,6,-5,-5,-4,-3,-5,-5,2021-08-05 17:21:35,912625
3,4,-1,-2,-3,-2,-1,6,2021-08-05 17:21:35,912625
-2,-12,29,24,5,4,6,3,2021-08-05 17:21:35,912625
1,-13,-31,-22,-4,2,-1,-5,2021-08-05 17:21:35,912625
-10,-3,-16,-5,1,0,-1,-3,2021-08-05 17:21:35,913521
0,-3,-10,-10,-3,-1,-2,-3,2021-08-05 17:21:35,927676
-1,-6,16,7,-2,-4,-2,-1,2021-08-05 17:21:35,927676
3,15,60,42,8,0,1,1,2021-08-05 17:21:35,940521
-7,-19,-60,-22,-6,-2,-3,-8,2021-08-05 17:21:35,940521
3,0,-23,-25,-3,1,1,0,2021-08-05 17:21:35,940521
1,3,-4,-5,-1,0,-3,-1,2021-08-05 17:21:35,940521
-4,-7,2,4,-2,-1,-3,-1,2021-08-05 17:21:35,940521
-3,0,29,19,0,-3,-2,-1,2021-08-05 17:21:35,941522
2,12,0,1,-1,-2,-2,-2,2021-08-05 17:21:35,959600
-3,-9,-12,-12,-3,-3,-2,-3,2021-08-05 17:21:35,959600
-4,-10,-3,3,1,0,1,-1,2021-08-05 17:21:35,959600
4,8,21,22,8,1,2,4,2021-08-05 17:21:35,959600
-3,-2,-40,-46,-10,-4,-5,-6,2021-08-05 17:21:35,991579
-1,-5,12,5,-1,-3,-2,-2,2021-08-05 17:21:36,007520
-2,1,13,8,2,0,0,3,2021-08-05 17:21:36,039522
3,-5,-34,-18,-2,3,0,0,2021-08-05 17:21:36,039750
4,6,14,12,1,-1,1,2,2021-08-05 17:21:36,039750
0,-5,6,3,-1,-1,-1,0,2021-08-05 17:21:36,039750
0,1,3,7,2,-1,0,3,2021-08-05 17:21:36,039750
5,1,-2,-2,1,3,1,3,2021-08-05 17:21:36,039750
1,-1,17,19,2,-2,-1,-2,2021-08-05 17:21:36,039750
-1,-5,-24,-15,-4,1,0,-1,2021-08-05 17:21:36,039750
0,0,1,2,0,-2,0,3,2021-08-05 17:21:36,040522
-5,-7,-6,-30,-10,-5,-5,-6,2021-08-05 17:21:36,040522
1,-3,-4,5,3,1,1,0,2021-08-05 17:21:36,040522
1,17,5,6,1,0,0,1,2021-08-05 17:21:36,040522
-1,0,-11,-3,-2,-4,-1,-3,2021-08-05 17:21:36,040522
0,-1,15,11,1,-1,1,1,2021-08-05 17:21:36,040522
-3,5,22,16,1,-3,-1,1,2021-08-05 17:21:36,055677
-6,-15,-22,-17,-5,-2,-2,-8,2021-08-05 17:21:36,055899
-1,-5,-18,-14,-1,1,0,-2,2021-08-05 17:21:36,071662
1,9,15,6,0,-2,-1,1,2021-08-05 17:21:36,071752
0,-2,2,0,-4,-2,-2,-3,2021-08-05 17:21:36,087558
1,-2,4,12,4,2,2,3,2021-08-05 17:21:36,087731
-10,-10,-27,-24,-7,-1,-3,-7,2021-08-05 17:21:36,087731
3,4,25,14,3,0,1,3,2021-08-05 17:21:36,087731
-1,7,6,2,1,1,-1,-2,2021-08-05 17:21:36,102888
3,-4,-10,-6,0,-1,1,0,2021-08-05 17:21:36,102888
-3,-2,-5,1,0,-1,-1,-3,2021-08-05 17:21:36,102888
3,1,30,21,3,-3,0,2,2021-08-05 17:21:36,102888
-6,-4,-29,-19,-1,-1,-5,-7,2021-08-05 17:21:36,118620
-3,-6,-11,-17,-5,0,0,1,2021-08-05 17:21:36,134631
4,-2,-6,-1,-1,1,1,3,2021-08-05 17:21:36,134706
-2,0,4,8,0,1,0,-1,2021-08-05 17:21:36,134706
1,6,20,21,2,-1,-1,1,2021-08-05 17:21:36,134706
-7,-8,-8,-21,-6,-4,-4,-7,2021-08-05 17:21:36,135078
4,-1,-8,0,1,1,1,0,2021-08-05 17:21:36,135078
-2,-3,-13,-9,-5,-2,-3,-2,2021-08-05 17:21:36,135078
4,4,7,7,2,1,3,4,2021-08-05 17:21:36,164613
-1,0,6,7,-2,-2,-1,-1,2021-08-05 17:21:36,164613
-5,-3,8,-2,-3,-4,-2,-2,2021-08-05 17:21:36,164613
0,-1,-5,-1,3,4,1,3,2021-08-05 17:21:36,164613
0,2,33,21,0,0,1,3,2021-08-05 17:21:36,180604
-6,-5,-51,-32,-10,-4,-5,-11,2021-08-05 17:21:36,196747
0,-7,-10,-5,2,1,0,2,2021-08-05 17:21:36,196747
-4,-2,-8,-6,-1,-2,-2,-4,2021-08-05 17:21:36,196747
-2,-1,1,1,0,-1,0,2,2021-08-05 17:21:36,196747
3,6,29,21,2,0,-3,1,2021-08-05 17:21:36,196747
-1,0,1,2,-2,0,-1,-2,2021-08-05 17:21:36,196747
0,-2,-9,-7,-4,-2,-2,-2,2021-08-05 17:21:36,196747
2,-4,-13,-14,-2,-1,0,1,2021-08-05 17:21:36,227738
3,2,18,16,5,2,2,2,2021-08-05 17:21:36,243699
-1,-5,-17,-12,-4,-2,-3,-2,2021-08-05 17:21:36,243699
-2,-4,6,2,1,-1,-1,-3,2021-08-05 17:21:36,243699
-3,-2,-18,-5,-1,0,-2,-1,2021-08-05 17:21:36,243699
3,3,11,8,4,-1,1,5,2021-08-05 17:21:36,243699
-4,2,20,10,1,-2,-2,-6,2021-08-05 17:21:36,243699
0,-2,-32,-24,-6,0,-1,0,2021-08-05 17:21:36,243699
-3,-3,0,0,-1,-1,0,-2,2021-08-05 17:21:36,256524
-1,-2,-5,-3,-1,-1,-2,1,2021-08-05 17:21:36,256524
4,7,12,6,1,-1,0,5,2021-08-05 17:21:36,256524
-1,1,8,9,-1,-2,-2,-1,2021-08-05 17:21:36,256524
2,1,-4,-2,1,2,1,0,2021-08-05 17:21:36,290579
0,-4,6,4,1,0,2,1,2021-08-05 17:21:36,290709
-1,2,-3,1,-1,0,0,0,2021-08-05 17:21:36,290709
-5,-9,-13,-11,-4,-4,-2,-3,2021-08-05 17:21:36,290709
-3,-3,-1,-2,-5,-3,-3,-4,2021-08-05 17:21:36,290709
1,5,14,11,1,0,0,0,2021-08-05 17:21:36,290709
0,1,1,0,0,-1,-1,-1,2021-08-05 17:21:36,306662
-1,-4,-14,-7,-4,-1,-2,-1,2021-08-05 17:21:36,306858
-4,-2,2,-4,0,1,-1,0,2021-08-05 17:21:36,322574
-1,-4,-3,-1,-1,0,-1,0,2021-08-05 17:21:36,322801
0,-1,-3,-3,-1,-1,1,-1,2021-08-05 17:21:36,322870
2,4,17,13,4,2,3,0,2021-08-05 17:21:36,322870
-4,-4,-12,-8,-3,-1,-1,-6,2021-08-05 17:21:36,352593
-6,-11,-16,-14,-3,-2,-3,-7,2021-08-05 17:21:36,367836
0,0,0,1,1,1,-1,-1,2021-08-05 17:21:36,367836
1,4,7,3,-2,-3,-5,-5,2021-08-05 17:21:36,368062
3,2,4,3,-1,-5,-5,-2,2021-08-05 17:21:36,368062
2,5,6,5,-2,-3,-2,2,2021-08-05 17:21:36,368062
-2,-3,-7,-5,-2,1,0,0,2021-08-05 17:21:36,368304
1,0,11,7,2,0,1,1,2021-08-05 17:21:36,368426
-2,-4,-14,-17,-7,0,-2,-2,2021-08-05 17:21:36,383866
-1,-4,-6,-2,-3,-1,1,0,2021-08-05 17:21:36,383866
-2,-1,-5,-2,-2,-1,0,-1,2021-08-05 17:21:36,399805
1,1,1,3,2,2,0,1,2021-08-05 17:21:36,415742
-2,2,7,5,1,-1,-1,-2,2021-08-05 17:21:36,431860
0,3,8,5,-1,0,0,2,2021-08-05 17:21:36,431955
-2,-3,-8,-7,-2,-2,-1,-3,2021-08-05 17:21:36,431955
-2,-2,-6,-4,0,-2,-1,1,2021-08-05 17:21:36,431955
1,-1,4,5,3,3,1,1,2021-08-05 17:21:36,431955
3,4,13,2,0,-2,0,3,2021-08-05 17:21:36,432404
-4,-2,-16,-8,-3,-1,-4,-8,2021-08-05 17:21:36,432404
-1,-9,-17,-15,-7,-1,-2,-3,2021-08-05 17:21:36,432404
1,0,3,4,0,0,2,3,2021-08-05 17:21:36,432404
0,3,8,5,1,-1,-1,-3,2021-08-05 17:21:36,432743
0,0,14,4,-1,-1,0,2,2021-08-05 17:21:36,432743
-1,0,3,0,-1,0,-1,-2,2021-08-05 17:21:36,432743
2,-4,-6,-3,-2,-2,-1,1,2021-08-05 17:21:36,478908
-4,-2,1,5,2,-1,-3,-2,2021-08-05 17:21:36,479012
2,1,-3,-3,-1,-1,-1,2,2021-08-05 17:21:36,479012
-3,-3,-6,-4,0,1,-1,0,2021-08-05 17:21:36,479012
-4,-1,-1,-1,-1,-2,-2,-4,2021-08-05 17:21:36,479012
1,1,0,2,-1,-1,-1,-2,2021-08-05 17:21:36,479012
0,-1,-9,-5,-2,0,0,1,2021-08-05 17:21:36,479012
2,1,1,4,-1,0,0,2,2021-08-05 17:21:36,479012
2,5,13,10,0,-1,0,1,2021-08-05 17:21:36,510256
-6,-10,-16,-14,-4,-3,0,-7,2021-08-05 17:21:36,510256
1,-1,-1,2,2,1,-1,-1,2021-08-05 17:21:36,510256
3,1,4,1,1,1,2,4,2021-08-05 17:21:36,510256
-2,0,0,1,1,-2,1,-1,2021-08-05 17:21:36,525781
-2,0,0,-3,-2,-3,-1,-1,2021-08-05 17:21:36,525781
-3,1,8,8,1,-1,0,-1,2021-08-05 17:21:36,525781
-4,-4,-9,-15,-2,-2,-1,-5,2021-08-05 17:21:36,525781
1,1,-1,-1,2,2,-1,1,2021-08-05 17:21:36,541741
-1,-1,-3,2,-1,0,0,-1,2021-08-05 17:21:36,541741
-3,0,6,3,-2,-2,-2,-3,2021-08-05 17:21:36,541741
1,4,-7,-5,-2,1,1,-1,2021-08-05 17:21:36,541741
-3,-6,-6,-5,-4,-1,-1,-3,2021-08-05 17:21:36,573279
3,7,5,3,2,2,1,2,2021-08-05 17:21:36,573352
-1,-8,-5,-6,-2,-3,-1,-2,2021-08-05 17:21:36,573352
-5,-4,7,7,-1,-3,-2,-3,2021-08-05 17:21:36,573352
-1,-3,-15,-9,-3,-1,-3,-3,2021-08-05 17:21:36,577208
-1,-1,5,6,-2,-2,-1,0,2021-08-05 17:21:36,577208
-2,-4,-7,-11,-3,0,-2,-3,2021-08-05 17:21:36,577208
0,0,6,4,1,1,2,4,2021-08-05 17:21:36,577208
-2,-2,-6,-2,-1,-1,-2,-1,2021-08-05 17:21:36,605264
-2,-3,-5,-2,-3,-2,-3,-2,2021-08-05 17:21:36,605264
1,2,1,3,-1,1,1,2,2021-08-05 17:21:36,605264
0,-2,-1,-1,0,-2,-2,-2,2021-08-05 17:21:36,605264
1,4,10,4,0,1,1,0,2021-08-05 17:21:36,620342
-5,-2,-5,-9,-4,-4,-4,-9,2021-08-05 17:21:36,620342
4,1,-8,1,2,1,1,4,2021-08-05 17:21:36,620342
-4,0,6,4,-2,-2,-4,-4,2021-08-05 17:21:36,620342
2,0,-6,-1,2,0,1,2,2021-08-05 17:21:36,652282
3,-1,-1,-6,-1,2,-1,0,2021-08-05 17:21:36,668269
-1,1,5,2,-2,0,0,-1,2021-08-05 17:21:36,668410
-3,-4,-7,-8,-3,-1,-5,-4,2021-08-05 17:21:36,668489
1,3,6,4,2,-1,1,2,2021-08-05 17:21:36,668489
0,-1,-7,-3,2,0,1,0,2021-08-05 17:21:36,668489
-3,-2,-3,-2,0,-3,0,0,2021-08-05 17:21:36,668489
0,1,3,5,1,-1,0,1,2021-08-05 17:21:36,668489
-1,-2,-2,-2,-4,-2,0,-1,2021-08-05 17:21:36,684274
0,-1,1,2,0,2,2,2,2021-08-05 17:21:36,684441
-2,2,3,4,-1,1,-1,-2,2021-08-05 17:21:36,684441
-3,-3,-6,-8,-7,-3,-4,-6,2021-08-05 17:21:36,684441
-2,-6,-6,-4,1,0,0,-2,2021-08-05 17:21:36,700359
3,1,5,6,2,1,1,3,2021-08-05 17:21:36,716276
-2,0,-4,-5,-3,0,-3,-2,2021-08-05 17:21:36,716493
-3,-2,-3,-3,-1,-3,-3,-4,2021-08-05 17:21:36,731661
-3,-4,-1,-4,-3,-3,-1,0,2021-08-05 17:21:36,731934
0,-1,-3,4,3,3,2,4,2021-08-05 17:21:36,732068
-2,-14,3,0,-1,-1,-1,-1,2021-08-05 17:21:36,732068
1,13,5,3,-1,0,-1,-1,2021-08-05 17:21:36,732330
0,0,-5,-6,-1,0,0,-1,2021-08-05 17:21:36,732330
0,0,-2,1,-1,0,-2,1,2021-08-05 17:21:36,732330
0,-1,-2,-3,-2,-1,-1,0,2021-08-05 17:21:36,747208
-2,-5,-6,-2,0,0,0,0,2021-08-05 17:21:36,763215
-1,2,6,5,0,-1,-1,-4,2021-08-05 17:21:36,763215
-2,0,-4,-3,-3,-3,-2,-2,2021-08-05 17:21:36,763215
1,-1,-5,-3,-1,-1,-1,-1,2021-08-05 17:21:36,763215
0,-3,0,0,1,-2,0,0,2021-08-05 17:21:36,763215
2,2,2,2,1,1,-1,3,2021-08-05 17:21:36,795183
-4,-6,-2,-4,-2,-2,-3,-4,2021-08-05 17:21:36,811344
1,-10,3,-1,1,1,1,5,2021-08-05 17:21:36,827210
-2,14,-8,-3,1,-1,-1,2,2021-08-05 17:21:36,827210
3,2,-1,-6,-3,0,-3,-1,2021-08-05 17:21:36,827210
1,-2,2,3,2,0,1,2,2021-08-05 17:21:36,827210
-2,4,10,6,2,-2,-2,-3,2021-08-05 17:21:36,827210
-2,-8,-10,-7,0,-1,-1,-4,2021-08-05 17:21:36,827210
-2,-5,-9,-6,-3,-2,-3,-2,2021-08-05 17:21:36,827210
0,5,-1,0,-1,0,1,0,2021-08-05 17:21:36,827210
-2,2,-1,0,-3,-3,-1,-4,2021-08-05 17:21:36,828194
3,0,7,3,2,0,3,1,2021-08-05 17:21:36,828299
-5,-2,-2,-2,-3,-4,-2,-7,2021-08-05 17:21:36,843157
3,0,-1,-3,0,-2,0,3,2021-08-05 17:21:36,843157
-2,-1,-3,-2,-1,-1,-2,-3,2021-08-05 17:21:36,843157
-1,-2,2,2,0,-1,-1,-2,2021-08-05 17:21:36,843635
-1,-1,0,-1,0,1,1,2,2021-08-05 17:21:36,859157
-2,-6,-1,-1,-1,-1,-1,-1,2021-08-05 17:21:36,859157
2,4,0,-1,1,0,1,0,2021-08-05 17:21:36,859157
2,1,0,2,-1,0,1,1,2021-08-05 17:21:36,859157
-2,-1,3,1,-3,-2,-2,-4,2021-08-05 17:21:36,889218
-1,0,-10,-8,-1,-3,-4,-4,2021-08-05 17:21:36,889218
0,1,-2,0,-1,-1,-4,-4,2021-08-05 17:21:36,889515
1,-3,3,1,0,0,1,1,2021-08-05 17:21:36,889515
-2,-3,-5,1,1,-2,0,-2,2021-08-05 17:21:36,905156
-1,2,1,2,0,-2,0,-1,2021-08-05 17:21:36,905156
-2,-1,-5,-4,-2,-2,-1,0,2021-08-05 17:21:36,905156
2,-1,14,11,2,0,1,1,2021-08-05 17:21:36,905156
-2,-2,-15,-7,-1,0,-2,-3,2021-08-05 17:21:36,921181
-2,-1,1,2,1,-1,-1,-3,2021-08-05 17:21:36,921181
0,2,-3,-5,-2,-2,1,1,2021-08-05 17:21:36,921181
-4,-5,-3,-8,-5,-3,-5,-5,2021-08-05 17:21:36,921181
3,2,14,13,5,1,1,6,2021-08-05 17:21:36,953358
-1,1,-7,-9,-3,0,-1,-3,2021-08-05 17:21:36,968272
3,8,11,11,3,2,2,5,2021-08-05 17:21:36,983518
-1,-8,-26,-20,-7,-3,-4,-1,2021-08-05 17:21:36,999404
-3,0,-1,-4,-5,-4,-5,-4,2021-08-05 17:21:36,999584
-2,-5,0,-1,-2,-2,-2,-3,2021-08-05 17:21:36,999680
1,-2,-1,5,-1,-1,1,1,2021-08-05 17:21:36,999832
1,5,4,6,2,1,2,2,2021-08-05 17:21:36,999832
-1,-2,-1,-1,-1,-2,-2,0,2021-08-05 17:21:36,999832
-1,-4,3,1,-2,0,-1,-2,2021-08-05 17:21:37,000273
-1,-1,1,-6,-1,-1,-3,-3,2021-08-05 17:21:37,000273
-1,-4,0,0,1,0,-1,-1,2021-08-05 17:21:37,000273
2,0,1,1,-2,0,0,0,2021-08-05 17:21:37,000273
3,1,-9,-7,-2,1,0,0,2021-08-05 17:21:37,000273
-1,-2,-9,-4,-3,-1,-1,-3,2021-08-05 17:21:37,000273
1,-1,-1,3,-1,0,0,1,2021-08-05 17:21:37,000273
1,1,8,3,0,-1,0,-1,2021-08-05 17:21:37,031272
-1,0,4,5,2,-3,-2,1,2021-08-05 17:21:37,047335
2,3,-5,-7,3,0,1,1,2021-08-05 17:21:37,047335
0,-1,3,0,-2,0,0,1,2021-08-05 17:21:37,047335
-2,-3,-3,-4,-5,-2,-2,-1,2021-08-05 17:21:37,047335
0,0,0,2,-1,-1,-1,1,2021-08-05 17:21:37,047335
-1,-6,-4,-3,-1,-1,-1,0,2021-08-05 17:21:37,047335
1,2,2,8,3,1,2,2,2021-08-05 17:21:37,047335
-4,-3,-6,-9,-2,1,1,-1,2021-08-05 17:21:37,063351
-6,-5,1,1,1,0,-3,-5,2021-08-05 17:21:37,078483
-3,-3,0,1,-2,-2,-3,-3,2021-08-05 17:21:37,094651
-1,2,3,0,-3,-4,-4,-6,2021-08-05 17:21:37,110617
3,-15,0,-2,-3,-3,-1,2,2021-08-05 17:21:37,110617
5,22,5,2,-2,0,-2,3,2021-08-05 17:21:37,110617
-1,1,-5,-7,-4,-2,0,-2,2021-08-05 17:21:37,110617
1,-2,-1,-1,0,0,1,0,2021-08-05 17:21:37,110617
-2,0,-5,-3,1,0,1,-1,2021-08-05 17:21:37,126518
-3,-11,-2,-5,-3,-1,0,-1,2021-08-05 17:21:37,126683
-2,3,-1,1,2,0,1,0,2021-08-05 17:21:37,126845
-2,3,8,7,2,-1,-1,-1,2021-08-05 17:21:37,126845
-2,-2,-13,-9,-4,-3,-3,-4,2021-08-05 17:21:37,126845
0,-5,-2,-2,-2,-1,-2,-1,2021-08-05 17:21:37,126845
-5,-3,-2,-3,-4,-2,-3,-4,2021-08-05 17:21:37,126845
0,-1,2,1,3,2,1,2,2021-08-05 17:21:37,126845
1,2,6,7,4,0,0,2,2021-08-05 17:21:37,142482
-2,-2,2,0,0,0,0,-2,2021-08-05 17:21:37,158639
-1,1,6,5,0,-1,-1,0,2021-08-05 17:21:37,174484
-4,-9,-24,-13,-5,-2,-3,-4,2021-08-05 17:21:37,174484
-2,-1,0,-2,-2,-2,-2,-3,2021-08-05 17:21:37,174746
1,3,-2,-1,-1,0,1,1,2021-08-05 17:21:37,174864
2,-2,7,3,-2,0,-2,-1,2021-08-05 17:21:37,175022
1,0,2,1,2,2,1,4,2021-08-05 17:21:37,175076
0,3,-3,-2,-2,-3,0,-2,2021-08-05 17:21:37,175076
-1,-2,2,0,-2,-3,-1,-3,2021-08-05 17:21:37,175076
1,2,0,1,0,-2,0,-2,2021-08-05 17:21:37,175482
2,1,-1,0,-2,-1,-1,1,2021-08-05 17:21:37,175482
0,-1,-3,-3,-2,1,0,1,2021-08-05 17:21:37,204534
-3,-2,4,0,1,0,-1,1,2021-08-05 17:21:37,204534
0,-2,0,2,0,0,-1,0,2021-08-05 17:21:37,205484
-5,-4,-10,-10,-4,-2,-3,-7,2021-08-05 17:21:37,205484
5,8,7,0,4,4,5,7,2021-08-05 17:21:37,222534
-2,-2,-5,-5,-3,0,-2,-2,2021-08-05 17:21:37,222718
0,-4,-8,-5,-1,0,0,0,2021-08-05 17:21:37,222718
-2,-3,4,5,-1,-1,-2,0,2021-08-05 17:21:37,222718
-3,1,5,7,0,0,-1,-1,2021-08-05 17:21:37,253534
0,1,-1,-7,-3,-3,-2,-4,2021-08-05 17:21:37,253534
1,-1,-6,-3,1,1,3,5,2021-08-05 17:21:37,253534
-1,-1,4,1,-2,-1,-2,-2,2021-08-05 17:21:37,253534
-3,0,-2,-1,-2,-1,-2,-3,2021-08-05 17:21:37,269534
0,1,0,2,2,0,0,-1,2021-08-05 17:21:37,285483
-1,-1,0,-1,0,-2,-3,-4,2021-08-05 17:21:37,301582
0,-2,-2,-2,-3,-2,2,1,2021-08-05 17:21:37,316541
0,-1,1,3,2,1,0,1,2021-08-05 17:21:37,316740
0,0,15,11,1,-1,0,1,2021-08-05 17:21:37,317039
0,1,-3,-9,-3,-1,0,-1,2021-08-05 17:21:37,317179
-2,-10,-37,-26,-8,-1,-1,-3,2021-08-05 17:21:37,317235
-2,-3,-3,-1,-3,-2,-1,-2,2021-08-05 17:21:37,317337
-2,-1,-5,-2,-1,-4,-1,-1,2021-08-05 17:21:37,317337
1,2,12,10,3,1,2,1,2021-08-05 17:21:37,317546
0,4,13,9,1,-3,-1,-1,2021-08-05 17:21:37,317703
-1,-3,-3,-2,-3,-3,-4,-5,2021-08-05 17:21:37,317800
6,3,1,2,6,5,6,10,2021-08-05 17:21:37,317800
-2,1,0,1,-1,0,0,2,2021-08-05 17:21:37,331593
-2,-24,-1,0,2,0,1,1,2021-08-05 17:21:37,347534
-2,15,-3,-2,0,0,0,0,2021-08-05 17:21:37,363610
1,3,2,-1,-4,-1,-1,-2,2021-08-05 17:21:37,363690
-3,-5,-4,-6,-1,-3,-2,-2,2021-08-05 17:21:37,363690
-1,0,4,2,-2,0,-2,-2,2021-08-05 17:21:37,363690
-1,-7,-1,2,-3,0,-1,-3,2021-08-05 17:21:37,363690
-2,-12,-7,-3,-3,0,-2,-2,2021-08-05 17:21:37,363690
-4,7,-5,-3,-3,-1,0,-2,2021-08-05 17:21:37,363690
1,4,6,2,0,-1,-1,-1,2021-08-05 17:21:37,363690
-1,-1,-2,-1,-2,-2,-1,-2,2021-08-05 17:21:37,394555
1,1,-4,-1,1,2,0,1,2021-08-05 17:21:37,410259
2,0,1,2,-1,-1,-1,-1,2021-08-05 17:21:37,425517
0,2,-2,-4,-3,-1,0,-1,2021-08-05 17:21:37,441709
0,2,-2,-4,0,-2,0,2,2021-08-05 17:21:37,473541
-4,-8,-5,-1,0,-3,-2,-3,2021-08-05 17:21:37,473541
-5,-10,-3,-3,-4,-2,-2,-6,2021-08-05 17:21:37,473541
5,11,7,7,3,4,2,6,2021-08-05 17:21:37,473541
-1,-3,0,-5,-2,0,-1,0,2021-08-05 17:21:37,473541
-4,-1,-5,0,-2,-1,-1,-4,2021-08-05 17:21:37,473541
-4,-4,-3,-3,-2,-3,-2,-3,2021-08-05 17:21:37,474208
-1,1,0,2,1,0,-1,-1,2021-08-05 17:21:37,474208
0,-1,5,5,4,0,0,-2,2021-08-05 17:21:37,474389
-1,3,1,0,1,-1,-2,-1,2021-08-05 17:21:37,474484
0,-3,-3,-3,-1,0,-2,0,2021-08-05 17:21:37,474484
0,0,1,-2,-3,-3,-3,-2,2021-08-05 17:21:37,474484
-1,-3,0,-3,-2,-2,-2,2,2021-08-05 17:21:37,474484
0,0,-2,-2,-2,0,-1,-2,2021-08-05 17:21:37,474484
1,-1,1,2,-1,-1,-1,-1,2021-08-05 17:21:37,474992
-4,-2,0,-3,0,-1,-1,-4,2021-08-05 17:21:37,475076
-4,-1,5,4,-3,-3,-2,-3,2021-08-05 17:21:37,475202
0,-4,-17,-13,-2,-1,0,1,2021-08-05 17:21:37,475322
5,1,-7,-6,-3,0,1,2,2021-08-05 17:21:37,475344
-1,0,0,0,1,-1,-1,-1,2021-08-05 17:21:37,475484
-2,-1,4,0,-4,-2,-2,-3,2021-08-05 17:21:37,505534
-1,-2,3,4,0,-1,1,0,2021-08-05 17:21:37,505719
-3,-2,-1,1,1,0,-1,-1,2021-08-05 17:21:37,505719
3,4,3,3,3,0,3,6,2021-08-05 17:21:37,505974
-5,-24,-3,-3,-4,-3,-3,-4,2021-08-05 17:21:37,537620
1,12,-4,-2,0,0,0,2,2021-08-05 17:21:37,537651
-2,-1,-1,-2,-1,-1,-3,-3,2021-08-05 17:21:37,537777
-3,1,-4,-1,-2,-1,-2,-3,2021-08-05 17:21:37,537952
2,5,-1,2,1,0,0,0,2021-08-05 17:21:37,537952
-1,-5,6,3,0,-2,0,0,2021-08-05 17:21:37,537952
-1,-1,3,4,3,-1,1,0,2021-08-05 17:21:37,537952
-5,-14,-6,-8,-3,-2,-4,-4,2021-08-05 17:21:37,537952
-3,6,-9,-4,-3,-2,-1,-3,2021-08-05 17:21:37,569562
3,2,5,4,1,1,-1,0,2021-08-05 17:21:37,569562
0,0,1,2,-2,0,1,1,2021-08-05 17:21:37,569562
-2,-4,-1,1,-3,-2,-2,-3,2021-08-05 17:21:37,569562
1,1,1,2,-2,1,-1,2,2021-08-05 17:21:37,585506
-3,0,-1,-2,-3,-2,-4,-5,2021-08-05 17:21:37,585506
-1,-1,-3,-3,-2,-1,0,1,2021-08-05 17:21:37,600543
0,0,-3,1,0,-1,-2,-2,2021-08-05 17:21:37,616548
-3,-3,-2,-3,0,-1,-1,0,2021-08-05 17:21:37,632593
-2,-2,6,4,-1,0,0,2,2021-08-05 17:21:37,632593
4,4,1,0,0,0,0,3,2021-08-05 17:21:37,632593
-1,8,-3,-2,-1,-1,-1,-4,2021-08-05 17:21:37,632593
1,4,0,0,-1,-2,1,-1,2021-08-05 17:21:37,632593
-6,-7,-4,-7,-4,-3,-2,-3,2021-08-05 17:21:37,632593
-3,-4,-1,-1,-1,-1,0,-3,2021-08-05 17:21:37,633155
-2,0,0,0,-3,-1,-1,0,2021-08-05 17:21:37,633268
1,-3,-7,-2,1,0,1,2,2021-08-05 17:21:37,663535
-4,-5,-2,1,-1,-2,0,-4,2021-08-05 17:21:37,663799
-1,1,-1,0,-1,-1,0,-1,2021-08-05 17:21:37,663931
4,-2,3,5,2,3,3,3,2021-08-05 17:21:37,664020
0,4,-3,-5,0,-1,0,0,2021-08-05 17:21:37,664130
-3,-9,4,-1,-3,-2,-2,-2,2021-08-05 17:21:37,664222
2,2,-12,-3,1,0,-1,-1,2021-08-05 17:21:37,664222
1,6,1,-5,-4,-2,-3,-2,2021-08-05 17:21:37,664483
-1,0,1,-1,-2,-1,-2,0,2021-08-05 17:21:37,695614
2,2,-2,2,4,2,2,2,2021-08-05 17:21:37,711622
-5,0,8,5,2,-1,-2,-2,2021-08-05 17:21:37,726867
-4,-4,-1,0,-3,-2,-2,-1,2021-08-05 17:21:37,742527
-1,-3,-1,1,-1,-2,-1,-1,2021-08-05 17:21:37,758688
-1,6,-3,-6,-4,-2,-3,-5,2021-08-05 17:21:37,758854
-2,-6,-6,-4,-1,-2,-1,-3,2021-08-05 17:21:37,758854
1,5,4,2,1,1,0,2,2021-08-05 17:21:37,759003
-3,-5,0,-2,0,-1,-2,-3,2021-08-05 17:21:37,759003
1,0,3,0,-2,-2,-1,-1,2021-08-05 17:21:37,759003
2,0,-4,0,1,2,-1,1,2021-08-05 17:21:37,759003
-5,-2,-4,-4,-3,-1,-2,-3,2021-08-05 17:21:37,774482
1,0,-1,5,2,0,0,1,2021-08-05 17:21:37,790609
0,-2,-1,-1,1,-2,-2,0,2021-08-05 17:21:37,806481
1,4,6,0,-2,-4,0,0,2021-08-05 17:21:37,821533
-4,-7,-1,-6,-4,-4,-3,-4,2021-08-05 17:21:37,834533
3,3,-5,2,4,4,2,1,2021-08-05 17:21:37,834533
-2,2,-2,-6,-3,-2,-3,-2,2021-08-05 17:21:37,834533
0,-6,-3,0,-2,0,-2,1,2021-08-05 17:21:37,834533
-2,2,-3,0,3,0,1,-1,2021-08-05 17:21:37,834533
-7,-21,0,-9,-3,-2,-3,-5,2021-08-05 17:21:37,834533
5,19,0,3,3,2,2,1,2021-08-05 17:21:37,835483
4,3,0,-4,-5,-2,-1,0,2021-08-05 17:21:37,835483
2,2,4,0,-4,-2,0,0,2021-08-05 17:21:37,835483
2,4,-2,1,1,2,2,2,2021-08-05 17:21:37,835483
-2,-4,-1,-3,-5,-1,0,-2,2021-08-05 17:21:37,835483
-4,-7,-2,0,0,0,-1,-4,2021-08-05 17:21:37,835483
-1,-4,-6,0,3,3,1,2,2021-08-05 17:21:37,835483
-5,4,6,1,-1,-2,-1,-4,2021-08-05 17:21:37,835483
-3,-10,10,7,1,0,-1,-4,2021-08-05 17:21:37,835483
-5,-2,-17,-4,-3,-3,-5,-5,2021-08-05 17:21:37,835483
4,1,-3,-3,-4,-4,-3,0,2021-08-05 17:21:37,836517
1,4,2,-1,0,-1,-1,-1,2021-08-05 17:21:37,836517
1,-4,-8,-5,-2,0,0,-1,2021-08-05 17:21:37,836517
-1,9,16,-3,-2,0,-1,1,2021-08-05 17:21:37,836517
-4,-6,-4,2,1,1,0,0,2021-08-05 17:21:37,836517
-2,3,22,7,2,2,2,4,2021-08-05 17:21:37,869604
3,-37,-37,-4,2,0,2,1,2021-08-05 17:21:37,885483
1,17,-9,-13,-5,-5,-3,-3,2021-08-05 17:21:37,901484
-1,-12,4,-3,-6,-4,-3,-4,2021-08-05 17:21:37,901484
4,37,11,7,5,2,0,3,2021-08-05 17:21:37,901484
-5,-6,11,1,-4,-3,-2,-1,2021-08-05 17:21:37,901484
-1,22,-8,6,4,3,3,2,2021-08-05 17:21:37,901484
-2,-16,5,3,2,2,2,2,2021-08-05 17:21:37,901484
-5,-11,-11,-9,-6,-3,-2,-5,2021-08-05 17:21:37,901484
0,10,2,0,-4,-4,-2,-3,2021-08-05 17:21:37,901484
1,-3,-4,-1,0,2,1,3,2021-08-05 17:21:37,901484
2,10,6,5,4,2,3,3,2021-08-05 17:21:37,901484
-1,-10,-11,-2,-4,-2,-3,-3,2021-08-05 17:21:37,932581
-2,-6,-2,-6,-2,-1,-2,-1,2021-08-05 17:21:37,932581
2,-4,11,6,2,2,1,2,2021-08-05 17:21:37,932581
-2,7,0,0,-2,-2,-2,-3,2021-08-05 17:21:37,932581
0,-17,-8,0,0,-2,0,-2,2021-08-05 17:21:37,948546
-1,18,3,-1,0,1,0,0,2021-08-05 17:21:37,948546
-1,-15,6,0,-1,0,1,0,2021-08-05 17:21:37,948546
0,-1,-7,-2,-2,-3,0,-2,2021-08-05 17:21:37,948546
-1,3,-6,-7,-8,-4,-4,-3,2021-08-05 17:21:37,964600
-1,11,7,2,-1,-1,0,-1,2021-08-05 17:21:37,964600
7,36,19,10,5,3,3,5,2021-08-05 17:21:37,964600
-1,-40,-18,-1,2,0,1,-1,2021-08-05 17:21:37,964600
2,-4,-18,-8,-4,-2,1,1,2021-08-05 17:21:37,996585
-1,67,22,-1,-2,-1,-4,-1,2021-08-05 17:21:37,996751
-6,-79,-17,-6,-4,-5,-3,-5,2021-08-05 17:21:37,996751
2,28,0,-1,1,-1,0,-1,2021-08-05 17:21:37,996751
-1,1,7,0,-1,-3,-3,-4,2021-08-05 17:21:38,012540
1,-3,-5,0,1,1,2,1,2021-08-05 17:21:38,012727
-3,43,34,8,1,-1,-2,-5,2021-08-05 17:21:38,012774
-1,-56,-32,-3,0,1,2,4,2021-08-05 17:21:38,012853
1,-14,-24,-6,-3,0,0,0,2021-08-05 17:21:38,027842
-1,-13,4,-1,-4,-3,-1,-2,2021-08-05 17:21:38,027842
-4,11,-3,-4,-3,-1,-4,-8,2021-08-05 17:21:38,027842
2,15,17,2,3,2,2,2,2021-08-05 17:21:38,027842
2,7,15,-1,-3,-2,-1,-1,2021-08-05 17:21:38,043481
1,-21,-21,1,5,5,5,5,2021-08-05 17:21:38,043693
-7,-14,2,-1,-2,-3,-1,-4,2021-08-05 17:21:38,043769
-3,10,-4,-5,-3,-4,-5,-6,2021-08-05 17:21:38,043822
-1,11,12,3,1,-2,-1,0,2021-08-05 17:21:38,074972
2,-4,1,-3,-2,-2,-2,0,2021-08-05 17:21:38,074972
2,-12,-7,0,3,1,3,3,2021-08-05 17:21:38,074972
-2,1,4,0,-2,1,1,-1,2021-08-05 17:21:38,074972
-3,1,-4,-3,-2,0,0,0,2021-08-05 17:21:38,075483
-3,-11,0,-4,-3,-4,-3,-5,2021-08-05 17:21:38,075483
-1,-7,-13,-4,-4,0,-1,3,2021-08-05 17:21:38,075483
0,24,7,-1,-4,-2,0,-2,2021-08-05 17:21:38,075483
3,-4,2,4,3,0,0,1,2021-08-05 17:21:38,106574
-2,-10,-10,-4,0,0,1,-2,2021-08-05 17:21:38,106574
0,3,9,-3,-1,-2,0,0,2021-08-05 17:21:38,106574
-1,24,4,5,4,0,0,-1,2021-08-05 17:21:38,106574
3,-34,-4,5,7,3,3,3,2021-08-05 17:21:38,137481
-1,17,-20,-5,-2,-2,-2,-2,2021-08-05 17:21:38,137481
2,-33,16,-3,-3,-1,-4,-4,2021-08-05 17:21:38,137481
-5,-58,-33,-4,-3,-1,-3,-2,2021-08-05 17:21:38,137481
-5,12,-6,-8,-8,-5,-6,-7,2021-08-05 17:21:38,137481
-5,2,7,-1,-3,-3,-3,-2,2021-08-05 17:21:38,137481
-5,47,11,-4,-7,-7,-4,-7,2021-08-05 17:21:38,153639
6,25,13,8,6,6,5,7,2021-08-05 17:21:38,153639
1,-20,-4,3,0,3,1,2,2021-08-05 17:21:38,169577
3,3,8,2,-2,1,0,0,2021-08-05 17:21:38,185483
-5,-14,-18,-5,-3,-2,-2,-1,2021-08-05 17:21:38,201516
4,9,19,9,2,0,0,1,2021-08-05 17:21:38,201516
-4,3,-3,-5,-4,-5,-3,-3,2021-08-05 17:21:38,216635
-1,-2,4,-1,-1,-1,-1,-1,2021-08-05 17:21:38,216843
3,-7,-13,5,5,3,3,4,2021-08-05 17:21:38,216943
-4,-9,-1,-5,-5,-3,-2,-4,2021-08-05 17:21:38,217036
-1,12,2,1,0,0,0,1,2021-08-05 17:21:38,232606
-1,-13,1,-6,-5,-4,-3,-5,2021-08-05 17:21:38,248587
1,-13,-15,-1,0,-1,-1,1,2021-08-05 17:21:38,248587
-1,13,2,-2,-3,-1,-1,-5,2021-08-05 17:21:38,248587
1,5,4,0,0,0,0,1,2021-08-05 17:21:38,248587
-3,-8,3,2,1,-2,-1,-1,2021-08-05 17:21:38,248587
0,-1,-9,-1,0,0,0,0,2021-08-05 17:21:38,248587
3,9,-2,-1,2,2,1,4,2021-08-05 17:21:38,248587
-4,28,13,2,-1,0,-3,-5,2021-08-05 17:21:38,248587
0,-14,9,4,2,1,2,4,2021-08-05 17:21:38,248587
-2,-25,-24,-1,2,1,2,3,2021-08-05 17:21:38,248587
-3,-7,-10,-9,-8,-5,-5,-6,2021-08-05 17:21:38,248587
-4,2,1,-7,-9,-6,-6,-4,2021-08-05 17:21:38,264482
1,8,-3,-1,2,0,-2,1,2021-08-05 17:21:38,280558
0,17,19,5,0,0,0,-1,2021-08-05 17:21:38,296594
-1,-4,5,4,5,2,2,3,2021-08-05 17:21:38,296594
0,-3,-7,0,-2,0,0,0,2021-08-05 17:21:38,296594
-2,-1,1,-2,-3,-3,-2,-3,2021-08-05 17:21:38,296594
3,-3,-5,3,5,3,4,4,2021-08-05 17:21:38,296594
-5,-17,-5,-5,-6,-7,-4,-5,2021-08-05 17:21:38,296594
-1,12,24,5,3,1,2,-1,2021-08-05 17:21:38,312545
1,-14,3,1,-2,0,1,0,2021-08-05 17:21:38,327750
-3,-31,-48,-9,-3,-2,0,-2,2021-08-05 17:21:38,327750
-5,19,9,-11,-11,-6,-8,-10,2021-08-05 17:21:38,327750
2,-9,-4,1,3,1,2,2,2021-08-05 17:21:38,327750
-3,10,8,2,-1,0,-1,-1,2021-08-05 17:21:38,327750
-1,13,14,-1,-1,-2,-2,-5,2021-08-05 17:21:38,343549
2,-4,-10,2,5,2,2,3,2021-08-05 17:21:38,343549
-1,22,0,0,0,-2,0,-1,2021-08-05 17:21:38,343549
-3,-30,-2,3,1,0,-1,-1,2021-08-05 17:21:38,343549
3,8,-1,1,1,1,1,3,2021-08-05 17:21:38,343549
-2,-15,-6,1,0,1,1,1,2021-08-05 17:21:38,343549
-1,-8,1,2,0,-2,-1,-2,2021-08-05 17:21:38,375570
1,11,-6,-1,0,1,1,3,2021-08-05 17:21:38,375570
-3,2,5,-5,-6,-5,-4,-5,2021-08-05 17:21:38,391542
2,8,4,-2,0,1,1,2,2021-08-05 17:21:38,391542
-1,-15,-15,-3,2,0,0,-2,2021-08-05 17:21:38,391542
1,3,-4,-3,-4,-2,0,0,2021-08-05 17:21:38,391962
-3,6,9,-3,-4,-2,-4,-2,2021-08-05 17:21:38,391962
-7,3,2,0,0,-3,-1,-6,2021-08-05 17:21:38,391962
5,-4,-3,2,5,3,4,9,2021-08-05 17:21:38,406596
2,0,-5,6,6,2,3,3,2021-08-05 17:21:38,406596
-1,6,9,-1,-2,-2,-2,-1,2021-08-05 17:21:38,406596
-1,35,10,-1,-3,-2,-1,-3,2021-08-05 17:21:38,406596
-4,-38,-1,-1,-2,-2,-4,-4,2021-08-05 17:21:38,437634
-1,-24,-12,-2,3,2,2,0,2021-08-05 17:21:38,452550
-3,5,-12,-3,-3,-2,-2,-4,2021-08-05 17:21:38,452550
0,0,3,-4,-4,-3,-3,-2,2021-08-05 17:21:38,452550
-3,15,1,-3,-1,-1,-1,-2,2021-08-05 17:21:38,452915
1,15,6,-1,-1,-2,-1,0,2021-08-05 17:21:38,453005
1,-27,4,4,2,2,4,3,2021-08-05 17:21:38,453098
-2,-17,-14,-1,-2,-1,-1,-1,2021-08-05 17:21:38,453098
-1,7,-1,-7,-7,-4,-4,-4,2021-08-05 17:21:38,469471
-2,-11,-6,-3,-3,-2,-6,-4,2021-08-05 17:21:38,469471
2,18,6,-2,-2,-1,0,1,2021-08-05 17:21:38,469471
-1,5,7,0,0,-1,0,2,2021-08-05 17:21:38,483507
-1,-4,7,3,3,1,2,0,2021-08-05 17:21:38,499657
1,6,-17,-1,-1,-1,-2,1,2021-08-05 17:21:38,515545
-1,4,7,0,-1,-2,-1,-2,2021-08-05 17:21:38,531524
-2,14,9,2,-2,0,-1,-1,2021-08-05 17:21:38,531524
-3,-18,-15,-2,-3,-3,-1,0,2021-08-05 17:21:38,531524
-4,-13,-1,-4,-3,-2,-2,-2,2021-08-05 17:21:38,531524
1,-3,-13,-3,1,1,-3,0,2021-08-05 17:21:38,531524
-2,-1,5,-2,-1,-3,-4,-3,2021-08-05 17:21:38,531524
-3,19,8,0,-2,-2,-2,-2,2021-08-05 17:21:38,531524
0,11,5,1,-3,0,0,-1,2021-08-05 17:21:38,531524
1,-10,0,1,0,1,1,0,2021-08-05 17:21:38,532547
3,-1,2,2,5,2,3,5,2021-08-05 17:21:38,532547
0,-4,-4,-2,-1,-1,-1,-1,2021-08-05 17:21:38,547515
2,50,24,1,-2,-2,-3,-1,2021-08-05 17:21:38,547515
0,-60,-35,0,4,3,2,4,2021-08-05 17:21:38,547515
-2,-3,-14,-8,-4,-2,-1,-3,2021-08-05 17:21:38,547515
0,7,1,2,3,2,2,0,2021-08-05 17:21:38,578242
-5,-23,-2,0,-2,-1,0,-2,2021-08-05 17:21:38,593608
-5,29,25,5,1,-1,-2,-5,2021-08-05 17:21:38,609552
3,-4,-9,2,-2,-1,-2,-2,2021-08-05 17:21:38,609552
3,-12,-9,0,-2,-3,-2,0,2021-08-05 17:21:38,609552
-1,6,-1,-6,-5,-3,-1,-3,2021-08-05 17:21:38,609552
1,15,6,-1,-1,0,0,2,2021-08-05 17:21:38,610121
-3,-18,1,-2,-1,0,0,1,2021-08-05 17:21:38,610121
0,-2,-4,0,2,2,1,1,2021-08-05 17:21:38,610121
-4,-23,-22,-1,-2,-1,-1,-4,2021-08-05 17:21:38,610472
-2,0,5,-5,-6,-4,-3,-1,2021-08-05 17:21:38,610472
1,4,5,2,2,0,1,1,2021-08-05 17:21:38,610472
-1,29,17,-2,-3,-2,-2,-2,2021-08-05 17:21:38,641572
1,-31,-10,3,3,1,2,2,2021-08-05 17:21:38,641572
-1,-14,-15,-2,0,0,-3,-2,2021-08-05 17:21:38,641572
-3,11,4,-7,-6,-6,-4,-6,2021-08-05 17:21:38,641572
3,-3,-1,3,6,3,3,4,2021-08-05 17:21:38,641572
-1,33,6,0,-1,0,0,-1,2021-08-05 17:21:38,641572
1,-12,7,1,0,-1,1,1,2021-08-05 17:21:38,657561
-2,-29,-4,-1,-2,-1,-3,1,2021-08-05 17:21:38,657690
-1,10,7,1,-1,-1,-1,1,2021-08-05 17:21:38,673545
0,-6,-22,-2,-2,-1,-1,-1,2021-08-05 17:21:38,689578
-2,12,7,-5,-4,-4,-3,-3,2021-08-05 17:21:38,705497
-4,-4,-5,-3,-2,0,0,1,2021-08-05 17:21:38,705746
-5,-19,-6,0,2,1,1,-3,2021-08-05 17:21:38,705746
1,16,11,1,-2,-2,-1,-1,2021-08-05 17:21:38,705924
-3,10,1,0,-1,1,-2,-2,2021-08-05 17:21:38,706010
-1,-1,-1,-1,-1,-1,0,-1,2021-08-05 17:21:38,706010
-5,-11,5,-2,-4,-3,-4,-4,2021-08-05 17:21:38,706010
4,15,-4,1,2,3,3,3,2021-08-05 17:21:38,706010
-3,-38,-13,-2,-5,-4,-3,-5,2021-08-05 17:21:38,706010
2,3,1,-1,-2,1,1,4,2021-08-05 17:21:38,706473
-2,13,-1,-2,-1,-1,-2,-3,2021-08-05 17:21:38,736470
0,-2,9,0,2,0,-1,0,2021-08-05 17:21:38,751561
-1,31,23,3,-1,-1,-1,-1,2021-08-05 17:21:38,751726
5,-20,-15,2,4,4,2,1,2021-08-05 17:21:38,751726
-2,-40,-45,-7,-2,0,-1,-1,2021-08-05 17:21:38,751726
-9,-5,9,-5,-5,-4,-6,-6,2021-08-05 17:21:38,751726
2,11,1,1,3,1,-1,0,2021-08-05 17:21:38,751726
1,39,18,6,4,0,2,1,2021-08-05 17:21:38,751726
1,-30,3,3,-2,0,1,0,2021-08-05 17:21:38,766552
-1,-9,-5,-1,-2,-1,0,0,2021-08-05 17:21:38,766552
-2,1,-12,-3,-2,-2,0,0,2021-08-05 17:21:38,781470
-1,15,6,2,-1,1,-1,-1,2021-08-05 17:21:38,781470
-1,-4,-5,0,-3,-1,-1,-2,2021-08-05 17:21:38,781686
0,4,4,-2,-2,-2,-3,0,2021-08-05 17:21:38,781686
0,-6,4,0,-1,-1,-1,-3,2021-08-05 17:21:38,781686
0,-13,-13,-2,1,1,-1,-1,2021-08-05 17:21:38,781686
0,12,3,-5,-4,-3,-2,-3,2021-08-05 17:21:38,812632
-2,-6,3,2,0,-2,-2,-3,2021-08-05 17:21:38,812656
2,15,-1,-1,-1,1,0,3,2021-08-05 17:21:38,812656
0,-4,-4,0,1,0,-2,-1,2021-08-05 17:21:38,812656
-1,-8,0,-2,-3,0,-3,0,2021-08-05 17:21:38,842596
0,1,-7,-2,-1,-1,-2,-3,2021-08-05 17:21:38,842686
-2,-5,-5,-3,-3,-1,-2,-3,2021-08-05 17:21:38,842686
-1,-6,7,4,2,-2,1,1,2021-08-05 17:21:38,842686
-1,11,-12,-3,-2,-3,-2,0,2021-08-05 17:21:38,842686
-3,-35,-4,-4,-1,-1,-1,-2,2021-08-05 17:21:38,842686
-4,16,-9,-4,-4,-3,-3,-4,2021-08-05 17:21:38,842686
-1,-17,11,-3,-1,-1,-3,0,2021-08-05 17:21:38,842686
1,16,-6,-2,-1,-1,-1,-1,2021-08-05 17:21:38,874570
3,24,9,1,2,1,3,4,2021-08-05 17:21:38,874739
-2,-27,-2,1,0,-2,-1,-1,2021-08-05 17:21:38,874739
-3,11,-2,-4,-4,-4,-3,-4,2021-08-05 17:21:38,874739
-3,-21,-16,-1,-1,0,-1,-2,2021-08-05 17:21:38,890571
2,3,-4,1,1,2,1,5,2021-08-05 17:21:38,890571
2,6,8,-3,-3,-2,-3,-3,2021-08-05 17:21:38,890571
-5,-2,0,3,2,1,2,-1,2021-08-05 17:21:38,890571
-1,3,5,-5,-7,-3,-2,-1,2021-08-05 17:21:38,905525
-1,0,1,4,1,2,0,-2,2021-08-05 17:21:38,905525
2,10,1,-1,0,-3,-1,0,2021-08-05 17:21:38,905945
1,-21,-11,-1,-1,0,0,-1,2021-08-05 17:21:38,905945
-2,10,8,-3,-2,-1,-4,-2,2021-08-05 17:21:38,936540
-2,-9,-4,-2,-1,-2,-1,-1,2021-08-05 17:21:38,936540
-2,6,3,0,0,0,-1,-1,2021-08-05 17:21:38,936540
1,6,-2,0,0,0,0,1,2021-08-05 17:21:38,936540
-3,2,4,1,2,-2,0,0,2021-08-05 17:21:38,968580
0,-19,-2,-3,-3,-2,-1,1,2021-08-05 17:21:38,968580
4,-7,0,1,-1,-1,0,0,2021-08-05 17:21:38,968580
-4,2,-6,0,-2,2,0,-2,2021-08-05 17:21:38,968580
3,8,12,4,1,2,0,1,2021-08-05 17:21:38,968580
-1,1,-19,2,1,0,-1,-1,2021-08-05 17:21:38,968580
-1,53,24,2,0,0,-1,-2,2021-08-05 17:21:38,968580
0,-70,-28,-2,0,-1,-1,3,2021-08-05 17:21:38,968580
2,1,18,1,-1,-1,2,-2,2021-08-05 17:21:39,000546
3,-16,-22,-6,-4,-3,-4,-4,2021-08-05 17:21:39,016545
-11,-1,-2,-1,-1,0,1,0,2021-08-05 17:21:39,016545
-1,34,21,-1,-3,-2,-1,-1,2021-08-05 17:21:39,016545
-2,14,1,0,-1,-2,-1,-1,2021-08-05 17:21:39,016902
3,5,3,3,3,1,1,1,2021-08-05 17:21:39,017101
5,-39,-20,-1,-2,0,-1,-1,2021-08-05 17:21:39,017262
-5,10,5,-2,-2,-2,-1,2,2021-08-05 17:21:39,017262
0,-2,-2,-2,0,0,-2,-2,2021-08-05 17:21:39,031547
-1,14,12,-1,-1,-1,0,-2,2021-08-05 17:21:39,031547
2,1,0,5,2,1,0,0,2021-08-05 17:21:39,031547
-1,5,0,2,0,-3,-2,-4,2021-08-05 17:21:39,031547
4,-3,-5,-3,0,0,0,3,2021-08-05 17:21:39,062681
-2,-15,-5,0,-1,-1,-1,0,2021-08-05 17:21:39,062848
-8,-7,-12,-9,-6,-3,-4,0,2021-08-05 17:21:39,062848
-2,0,-5,-7,-1,-2,-1,-4,2021-08-05 17:21:39,063034
-3,9,6,3,-1,-3,-3,-1,2021-08-05 17:21:39,077749
0,1,6,1,0,1,0,0,2021-08-05 17:21:39,077923
1,-15,-4,2,1,0,1,1,2021-08-05 17:21:39,078020
1,15,-2,-1,-2,-3,-2,-3,2021-08-05 17:21:39,078020
-4,-6,-1,-3,-6,-5,-3,-4,2021-08-05 17:21:39,093734
-1,1,7,4,3,2,2,1,2021-08-05 17:21:39,093734
-1,4,7,-1,-2,0,-1,-1,2021-08-05 17:21:39,093734
-2,4,-7,-7,-7,-3,-3,-4,2021-08-05 17:21:39,093734
-1,-10,-3,1,2,-1,1,-1,2021-08-05 17:21:39,102652
0,-10,4,0,-2,-2,-2,-1,2021-08-05 17:21:39,102652
0,-7,-4,2,4,1,2,1,2021-08-05 17:21:39,109827
1,10,6,1,-1,-3,-2,-2,2021-08-05 17:21:39,109927
-1,-9,-9,-3,-4,0,-1,0,2021-08-05 17:21:39,124885
-2,42,26,2,2,0,1,1,2021-08-05 17:21:39,124885
-1,-56,-34,-2,0,-3,-1,-2,2021-08-05 17:21:39,139948
3,-12,-13,-5,-3,-3,-2,-3,2021-08-05 17:21:39,155762
-15,20,6,-4,-2,0,-2,-2,2021-08-05 17:21:39,171760
-1,2,-2,-6,-5,-4,-4,-4,2021-08-05 17:21:39,187794
2,30,20,4,2,0,0,2,2021-08-05 17:21:39,203894
4,-18,5,9,5,4,2,5,2021-08-05 17:21:39,203964
-3,-6,-15,-5,0,-1,-2,-4,2021-08-05 17:21:39,204066
3,11,9,3,3,1,2,3,2021-08-05 17:21:39,204174
4,13,21,9,0,-1,0,1,2021-08-05 17:21:39,204343
0,-27,-37,-1,3,4,0,1,2021-08-05 17:21:39,204343
-8,-3,-13,-22,-9,-6,-5,-8,2021-08-05 17:21:39,204343
-5,-22,-14,-6,-6,-3,-2,-4,2021-08-05 17:21:39,204343
3,22,10,-2,1,0,-1,0,2021-08-05 17:21:39,204343
4,22,23,7,-1,1,0,3,2021-08-05 17:21:39,204343
5,-13,3,12,8,4,4,5,2021-08-05 17:21:39,204343
-3,29,7,-5,-7,-5,-3,-4,2021-08-05 17:21:39,204343
3,-34,-15,3,6,4,4,4,2021-08-05 17:21:39,205135
-4,37,6,-2,-2,0,-1,-2,2021-08-05 17:21:39,205135
2,-50,-8,-2,-2,-1,0,0,2021-08-05 17:21:39,251208
-1,-6,3,-2,0,0,0,-1,2021-08-05 17:21:39,266210
-4,2,-6,-5,-3,-3,-4,-4,2021-08-05 17:21:39,266210
-7,-5,-5,-4,0,-2,-4,-3,2021-08-05 17:21:39,266210
9,27,3,4,0,1,0,0,2021-08-05 17:21:39,266210
1,14,17,5,2,0,3,6,2021-08-05 17:21:39,266210
-2,-17,-15,0,0,1,1,-1,2021-08-05 17:21:39,266210
-3,-28,-33,-21,-9,-4,-5,-7,2021-08-05 17:21:39,266210
-12,19,5,-7,-8,-5,-5,-2,2021-08-05 17:21:39,266210
4,-15,-3,8,6,4,1,1,2021-08-05 17:21:39,266210
3,19,11,2,0,1,0,2,2021-08-05 17:21:39,281271
-1,-6,5,4,1,-1,-1,1,2021-08-05 17:21:39,281369
-1,-5,-1,-2,-2,-3,-3,-2,2021-08-05 17:21:39,297268
-3,-8,4,-3,-4,-2,-4,-2,2021-08-05 17:21:39,313270
2,48,11,5,2,0,0,2,2021-08-05 17:21:39,329244
5,-27,-8,8,2,1,3,3,2021-08-05 17:21:39,329397
0,-18,-14,-6,-1,1,3,-1,2021-08-05 17:21:39,329627
-8,-10,-22,-15,-3,-3,-4,-5,2021-08-05 17:21:39,329721
-6,24,8,-5,-5,-4,-3,-5,2021-08-05 17:21:39,329776
5,17,32,10,7,5,4,6,2021-08-05 17:21:39,329776
1,-28,-10,17,10,7,4,2,2021-08-05 17:21:39,329776
-1,0,-14,-8,-5,-3,-5,-7,2021-08-05 17:21:39,330141
-2,-8,-1,-6,-6,-5,-7,-7,2021-08-05 17:21:39,330141
-1,46,12,-3,-7,-6,-5,-2,2021-08-05 17:21:39,330141
4,-23,7,2,3,1,1,1,2021-08-05 17:21:39,361390
3,-5,-14,4,4,4,4,5,2021-08-05 17:21:39,377225
-1,-11,-8,-5,-2,1,0,-1,2021-08-05 17:21:39,377225
-5,-1,7,-4,-4,-2,-4,-2,2021-08-05 17:21:39,377225
4,28,9,5,1,-2,1,4,2021-08-05 17:21:39,377225
-1,-18,-7,-5,-3,-2,-3,-5,2021-08-05 17:21:39,377225
-12,-16,-12,-6,-3,-1,0,-3,2021-08-05 17:21:39,377225
-5,3,0,0,-3,-2,-4,-3,2021-08-05 17:21:39,377225
2,7,1,3,1,-1,0,0,2021-08-05 17:21:39,393314
-2,-2,1,-3,0,-1,-2,0,2021-08-05 17:21:39,393314
10,-9,15,5,3,-1,1,4,2021-08-05 17:21:39,393483
2,-13,-26,-1,2,1,2,1,2021-08-05 17:21:39,393483
-10,0,-4,-11,-6,-4,-4,-3,2021-08-05 17:21:39,408285
5,-11,1,9,6,5,4,4,2021-08-05 17:21:39,408285
-1,37,13,0,-3,-3,-3,-4,2021-08-05 17:21:39,408285
5,-14,17,2,-1,0,3,4,2021-08-05 17:21:39,408285
4,-36,-31,-1,3,3,1,1,2021-08-05 17:21:39,440213
-11,17,8,-5,-6,-6,-3,-7,2021-08-05 17:21:39,440213
-4,-26,-18,-6,-4,-1,-1,-1,2021-08-05 17:21:39,456141
-1,14,-4,3,3,2,2,-1,2021-08-05 17:21:39,472295
4,42,32,5,-2,-4,-3,-1,2021-08-05 17:21:39,488213
-1,-34,-11,-3,-1,-1,-2,0,2021-08-05 17:21:39,504236
-2,6,-4,-1,0,-1,-2,-2,2021-08-05 17:21:39,504397
0,0,5,2,-1,0,-3,-4,2021-08-05 17:21:39,504397
0,3,-11,-9,-1,0,0,0,2021-08-05 17:21:39,504397
1,18,12,7,1,-1,0,2,2021-08-05 17:21:39,504650
6,14,14,13,6,3,4,5,2021-08-05 17:21:39,504650
-1,-42,-34,-12,-6,-3,-3,-8,2021-08-05 17:21:39,504650
-14,-2,-10,-16,-4,-4,-4,-3,2021-08-05 17:21:39,504650
5,41,16,3,1,-1,-1,3,2021-08-05 17:21:39,504650
2,-50,-15,0,1,2,1,2,2021-08-05 17:21:39,504650
4,10,18,10,0,0,0,0,2021-08-05 17:21:39,505143
0,10,2,6,1,0,-4,-3,2021-08-05 17:21:39,505143
-6,-11,-25,-18,-10,-4,-3,-6,2021-08-05 17:21:39,505143
3,39,22,4,1,0,-1,1,2021-08-05 17:21:39,505143
-4,2,5,-5,-1,-3,-3,-2,2021-08-05 17:21:39,505143
-6,-37,-26,2,0,0,1,1,2021-08-05 17:21:39,551141
-5,4,-3,-11,-4,-3,-2,-4,2021-08-05 17:21:39,551141
-1,-9,-6,-3,-2,-1,0,-3,2021-08-05 17:21:39,551141
-1,15,11,0,0,0,0,1,2021-08-05 17:21:39,551141
8,27,30,13,3,0,0,0,2021-08-05 17:21:39,551141
1,8,-2,10,3,1,0,2,2021-08-05 17:21:39,551141
-5,-30,-21,-14,-5,-2,-4,-4,2021-08-05 17:21:39,551781
-7,-21,-13,-15,-3,-1,-3,-2,2021-08-05 17:21:39,551781
0,11,3,1,-3,-2,0,-1,2021-08-05 17:21:39,567194
4,3,4,9,2,1,1,2,2021-08-05 17:21:39,567194
0,-30,8,5,0,1,0,2,2021-08-05 17:21:39,567194
-2,5,-15,-5,0,0,-1,-4,2021-08-05 17:21:39,567194
-12,-1,-1,-11,-5,-3,-4,-2,2021-08-05 17:21:39,598441
5,18,10,1,1,-1,1,-1,2021-08-05 17:21:39,598537
1,-1,-4,0,-3,-2,0,1,2021-08-05 17:21:39,598630
4,-25,-1,5,1,1,1,-1,2021-08-05 17:21:39,598759
4,-7,-10,-5,1,0,1,0,2021-08-05 17:21:39,614140
-4,6,0,-3,-4,0,-3,-3,2021-08-05 17:21:39,614140
-1,4,1,3,2,-1,0,1,2021-08-05 17:21:39,614371
-1,29,22,5,0,-1,0,-1,2021-08-05 17:21:39,614465
4,-13,-9,0,-2,-2,-1,0,2021-08-05 17:21:39,646281
-1,-16,-4,2,4,2,2,1,2021-08-05 17:21:39,646281
-9,-10,-18,-15,-9,-5,-6,-8,2021-08-05 17:21:39,646281
-4,5,-7,-5,-1,-1,0,1,2021-08-05 17:21:39,646281
7,25,35,14,3,3,5,7,2021-08-05 17:21:39,646281
2,21,-8,6,2,1,3,2,2021-08-05 17:21:39,646281
-7,-33,-24,-14,-5,-3,-3,-9,2021-08-05 17:21:39,646281
0,10,0,-8,-5,-5,-4,0,2021-08-05 17:21:39,646281
2,-4,7,6,4,0,1,-1,2021-08-05 17:21:39,677669
6,48,29,13,3,0,0,2,2021-08-05 17:21:39,693597
1,-11,-17,1,1,0,-1,2,2021-08-05 17:21:39,693693
-19,-35,-19,-16,-6,-1,-3,-4,2021-08-05 17:21:39,693693
5,11,5,-3,-3,-2,-1,-2,2021-08-05 17:21:39,693693
-4,-19,-13,-5,-1,-1,-3,-1,2021-08-05 17:21:39,693693
8,41,37,14,5,0,1,5,2021-08-05 17:21:39,693693
3,-8,-19,7,3,1,2,1,2021-08-05 17:21:39,693693
-6,-3,-6,-7,0,0,0,-4,2021-08-05 17:21:39,709811
-9,-16,13,-1,-5,-6,-4,-7,2021-08-05 17:21:39,709811
6,-1,-10,1,4,4,5,6,2021-08-05 17:21:39,709811
13,65,21,6,0,-3,-1,1,2021-08-05 17:21:39,710090
-12,-68,-14,1,0,-3,-2,-4,2021-08-05 17:21:39,733645
-11,-20,-26,-17,-6,-1,-4,-4,2021-08-05 17:21:39,733645
-6,1,-6,-9,-7,-5,-5,-7,2021-08-05 17:21:39,734630
1,1,2,5,2,0,1,1,2021-08-05 17:21:39,734630
11,25,14,7,2,0,-1,0,2021-08-05 17:21:39,757830
3,-29,-4,-4,-2,0,0,1,2021-08-05 17:21:39,773634
-5,24,24,1,-4,-2,-2,-1,2021-08-05 17:21:39,789382
2,-19,-16,4,4,2,1,3,2021-08-05 17:21:39,789510
-3,6,-7,-10,0,2,-1,-1,2021-08-05 17:21:39,789596
-4,-31,-24,-12,-5,-2,-1,-2,2021-08-05 17:21:39,789596
-5,16,3,-3,-3,-3,-3,-4,2021-08-05 17:21:39,789596
1,3,20,7,0,1,0,-1,2021-08-05 17:21:39,789596
-4,-11,13,6,-2,-3,-1,-1,2021-08-05 17:21:39,789596
4,12,-8,2,2,3,3,1,2021-08-05 17:21:39,789596
1,-6,-7,-4,3,-1,2,0,2021-08-05 17:21:39,804594
-4,-16,16,3,-2,-3,-3,-2,2021-08-05 17:21:39,804594
3,20,1,5,5,2,0,4,2021-08-05 17:21:39,804594
4,-2,-15,-6,-1,-1,-1,1,2021-08-05 17:21:39,804594
-6,-30,-10,-6,-3,-3,-2,-6,2021-08-05 17:21:39,820677
-3,-1,-6,1,0,-2,0,1,2021-08-05 17:21:39,836669
-4,9,7,-9,-6,-3,-2,-4,2021-08-05 17:21:39,852683
-2,-6,-3,-3,-2,-1,0,0,2021-08-05 17:21:39,852902
0,0,4,9,3,2,0,0,2021-08-05 17:21:39,852986
-2,21,15,1,1,-1,0,0,2021-08-05 17:21:39,852986
6,-1,-28,-9,-6,-2,0,2,2021-08-05 17:21:39,853171
-6,-33,-3,-2,-2,-2,-4,-7,2021-08-05 17:21:39,853171
-6,8,2,-6,-6,-2,-4,-3,2021-08-05 17:21:39,853334
2,9,11,7,3,3,2,2,2021-08-05 17:21:39,853334
2,8,7,8,1,1,1,2,2021-08-05 17:21:39,868710
1,-54,-1,-4,-1,0,0,0,2021-08-05 17:21:39,884647
4,6,-12,-3,-1,1,0,1,2021-08-05 17:21:39,884840
-1,3,0,-7,-7,-6,-4,-7,2021-08-05 17:21:39,884840
1,5,-3,2,2,1,-1,0,2021-08-05 17:21:39,884840
4,22,12,11,2,0,1,4,2021-08-05 17:21:39,885118
0,-14,-16,-9,1,3,1,0,2021-08-05 17:21:39,885118
-1,-19,-5,-5,-2,-1,-1,0,2021-08-05 17:21:39,885118
0,14,19,9,4,2,3,2,2021-08-05 17:21:39,914692
-3,9,-1,3,-1,-4,-4,-3,2021-08-05 17:21:39,930763
-4,-9,-20,-19,-6,-3,-2,-3,2021-08-05 17:21:39,930916
-6,-2,-7,-8,-7,-4,-4,-3,2021-08-05 17:21:39,930916
-3,-10,-9,-3,1,1,0,1,2021-08-05 17:21:39,930916
3,20,32,20,3,1,1,2,2021-08-05 17:21:39,930916
-2,0,18,14,6,3,0,2,2021-08-05 17:21:39,930916
-4,2,-34,-22,-7,-3,-1,-4,2021-08-05 17:21:39,930916
-3,-23,-27,-15,-9,-4,-5,-5,2021-08-05 17:21:39,962644
-1,9,4,-4,1,-1,1,1,2021-08-05 17:21:39,978628
1,6,9,10,-2,-3,-1,0,2021-08-05 17:21:39,978793
-1,0,28,17,1,0,-1,-1,2021-08-05 17:21:39,978793
0,4,-23,-15,-4,0,-2,-2,2021-08-05 17:21:39,978793
1,-1,-13,-10,-2,0,0,0,2021-08-05 17:21:39,978793
2,6,13,1,1,-2,-2,-1,2021-08-05 17:21:39,978793
0,-3,7,5,1,0,0,2,2021-08-05 17:21:39,978793
-1,-3,8,14,4,0,3,3,2021-08-05 17:21:39,978793
12,9,-1,2,4,3,0,2,2021-08-05 17:21:39,978793
2,3,-18,-13,-4,-3,-3,-4,2021-08-05 17:21:39,994704
-18,-11,-13,-5,-1,0,-2,0,2021-08-05 17:21:39,994704
1,-2,3,-4,-2,-1,-4,-3,2021-08-05 17:21:40,010668
-1,-3,4,2,1,2,2,3,2021-08-05 17:21:40,010668
5,4,8,7,1,-2,2,1,2021-08-05 17:21:40,010668
10,-9,7,13,4,1,2,2,2021-08-05 17:21:40,010668
-8,-2,0,-9,-4,-3,-2,-6,2021-08-05 17:21:40,041760
-9,-1,-22,-17,-10,-6,-5,-8,2021-08-05 17:21:40,041888
-1,-14,-10,-9,0,2,1,2,2021-08-05 17:21:40,042002
3,6,-7,-4,-5,-3,-3,-3,2021-08-05 17:21:40,042121
-3,7,13,1,-2,-4,-4,-4,2021-08-05 17:21:40,042302
4,-5,20,17,8,0,1,1,2021-08-05 17:21:40,042302
-5,6,-14,-9,-1,0,0,-1,2021-08-05 17:21:40,051596
7,3,-14,-17,-6,-3,-3,-4,2021-08-05 17:21:40,051596
-3,-6,4,15,9,4,2,1,2021-08-05 17:21:40,073670
-8,-6,1,-7,-6,-6,-5,-4,2021-08-05 17:21:40,089679
2,-3,14,16,5,3,2,8,2021-08-05 17:21:40,105651
-3,-14,-16,-13,1,-1,-1,-4,2021-08-05 17:21:40,121782
6,6,-1,-5,-3,-1,-1,3,2021-08-05 17:21:40,137714
-1,0,-2,-2,-2,0,2,3,2021-08-05 17:21:40,153685
0,6,31,24,5,0,1,3,2021-08-05 17:21:40,169771
-3,-2,0,3,-2,-2,-2,-1,2021-08-05 17:21:40,169771
-6,-6,-51,-39,-9,-3,-1,-7,2021-08-05 17:21:40,169771
-6,1,9,5,4,3,0,-2,2021-08-05 17:21:40,169771
-2,1,-1,1,-5,-6,-8,-9,2021-08-05 17:21:40,169771
12,10,21,14,7,3,3,10,2021-08-05 17:21:40,169771
-1,5,23,14,-4,-4,-4,-4,2021-08-05 17:21:40,170596
2,-10,-8,-1,0,-1,0,3,2021-08-05 17:21:40,170596
1,11,-22,-21,-4,-2,-1,-2,2021-08-05 17:21:40,170596
-3,-1,-8,2,3,1,1,0,2021-08-05 17:21:40,170596
0,-4,7,9,1,1,-1,0,2021-08-05 17:21:40,170596
4,5,17,15,1,-1,3,1,2021-08-05 17:21:40,170596
-11,-13,-4,-10,-4,-3,-4,-10,2021-08-05 17:21:40,170596
4,-1,-30,-25,-4,1,1,4,2021-08-05 17:21:40,170596
2,-1,-6,-2,-1,2,0,3,2021-08-05 17:21:40,170596
0,1,2,1,-2,-4,-3,-3,2021-08-05 17:21:40,171650
8,5,12,14,4,1,1,7,2021-08-05 17:21:40,171650
-4,0,11,5,2,0,0,-1,2021-08-05 17:21:40,171650
-8,-8,-11,-9,-4,-2,-4,-7,2021-08-05 17:21:40,199718
-1,-2,-10,-7,-1,1,-2,-1,2021-08-05 17:21:40,215632
1,0,3,5,0,0,-1,-1,2021-08-05 17:21:40,231686
0,1,21,14,2,0,0,0,2021-08-05 17:21:40,231833
-1,0,4,2,-4,-4,-2,-2,2021-08-05 17:21:40,231833
-4,-9,-44,-29,-4,-2,-1,-3,2021-08-05 17:21:40,231833
-5,-6,-4,-6,-5,-4,-4,-7,2021-08-05 17:21:40,231833
4,2,12,6,-1,1,1,5,2021-08-05 17:21:40,231833
3,6,20,18,8,3,5,5,2021-08-05 17:21:40,231833
-3,-3,-4,-3,-5,-2,-3,-3,2021-08-05 17:21:40,231833
-3,-4,-13,-10,-4,-3,-2,-3,2021-08-05 17:21:40,231833
-4,2,27,20,0,-4,-5,-5,2021-08-05 17:21:40,231833
2,-3,-28,-23,0,2,2,1,2021-08-05 17:21:40,247685
2,-5,-18,-16,-8,-2,-2,0,2021-08-05 17:21:40,247750
2,-2,-1,3,3,1,0,5,2021-08-05 17:21:40,247750
-3,-1,-2,-2,-2,-2,-4,-4,2021-08-05 17:21:40,247750
2,6,23,20,4,0,-2,1,2021-08-05 17:21:40,279645
-2,7,22,12,3,-1,-1,-2,2021-08-05 17:21:40,279645
-5,-5,-22,-20,-8,-2,-2,-4,2021-08-05 17:21:40,279896
0,-6,-2,0,2,0,1,1,2021-08-05 17:21:40,280044
-1,-1,2,0,-2,-3,0,-1,2021-08-05 17:21:40,280044
-3,-13,-19,-15,-7,-4,-1,-3,2021-08-05 17:21:40,280231
5,12,28,21,4,0,3,4,2021-08-05 17:21:40,295703
-6,-5,-20,-18,-4,-2,-2,-6,2021-08-05 17:21:40,295703
-3,-2,0,-6,-2,-1,0,-2,2021-08-05 17:21:40,311684
-3,-1,3,8,0,-1,-2,-2,2021-08-05 17:21:40,311684
4,5,11,7,2,2,2,4,2021-08-05 17:21:40,311684
2,8,31,25,6,0,0,3,2021-08-05 17:21:40,311684
-8,-12,-57,-44,-14,-4,-6,-8,2021-08-05 17:21:40,342699
2,4,-3,0,1,0,-1,-1,2021-08-05 17:21:40,342699
-4,-7,-10,-4,-1,-2,-2,-3,2021-08-05 17:21:40,358639
-4,-2,4,-1,-4,-3,-1,-3,2021-08-05 17:21:40,358639
7,12,24,20,4,2,0,4,2021-08-05 17:21:40,358639
-3,0,-3,-5,0,-1,0,0,2021-08-05 17:21:40,358639
2,-2,-10,-7,2,2,1,2,2021-08-05 17:21:40,358639
-4,-6,-6,-4,-4,-5,-2,-3,2021-08-05 17:21:40,358639
1,-1,11,8,2,1,1,1,2021-08-05 17:21:40,367629
-2,3,26,19,5,0,0,-1,2021-08-05 17:21:40,367629
-2,0,-2,-3,-3,-3,-3,-4,2021-08-05 17:21:40,367629
-1,-11,-59,-40,-9,0,0,-2,2021-08-05 17:21:40,367629
2,0,6,5,1,0,2,4,2021-08-05 17:21:40,390595
1,7,7,6,4,2,1,0,2021-08-05 17:21:40,390595
-2,0,21,16,0,-2,-2,-1,2021-08-05 17:21:40,390595
0,3,5,7,2,2,1,1,2021-08-05 17:21:40,390595
-3,-4,-8,-9,-1,-2,-1,-3,2021-08-05 17:21:40,421754
0,1,9,10,1,-2,-1,0,2021-08-05 17:21:40,421754
-2,-5,-8,-16,-2,-1,-2,0,2021-08-05 17:21:40,437658
1,1,-8,-7,-2,1,-1,-2,2021-08-05 17:21:40,452692
0,0,15,12,3,1,1,0,2021-08-05 17:21:40,467701
0,2,-2,-3,0,-2,-1,2,2021-08-05 17:21:40,483717
-3,-7,-16,-12,-5,-2,-2,-5,2021-08-05 17:21:40,483855
-2,-3,-2,-2,0,0,-1,-3,2021-08-05 17:21:40,484007
-1,0,13,6,-3,-5,-4,0,2021-08-05 17:21:40,484007
2,4,-2,0,3,4,1,2,2021-08-05 17:21:40,484007
-2,-1,-8,-3,-2,-1,-2,-1,2021-08-05 17:21:40,484007
8,6,4,11,10,4,4,8,2021-08-05 17:21:40,484007
-3,-5,-8,-7,-3,-2,-1,-3,2021-08-05 17:21:40,484007
-2,1,-1,-5,-3,-2,-2,-2,2021-08-05 17:21:40,484633
1,-1,2,-3,-1,-1,-1,-1,2021-08-05 17:21:40,484633
-5,-8,-12,-7,-4,-1,-2,-5,2021-08-05 17:21:40,484633
-5,-1,-2,-1,-1,-2,-2,-3,2021-08-05 17:21:40,484633
4,2,5,2,3,1,3,3,2021-08-05 17:21:40,484633
-1,5,20,21,7,0,0,-1,2021-08-05 17:21:40,484633
-2,-6,-17,-19,-5,-4,-4,-5,2021-08-05 17:21:40,484633
0,-4,-7,-3,-2,-1,-3,-1,2021-08-05 17:21:40,515594
-7,-4,4,5,-3,-3,-4,-6,2021-08-05 17:21:40,531695
6,5,12,8,4,4,3,9,2021-08-05 17:21:40,547748
-5,0,-3,-4,-5,-4,-3,-6,2021-08-05 17:21:40,547864
1,-3,-7,-6,-1,-1,1,2,2021-08-05 17:21:40,547864
-1,0,2,-2,-3,-3,-3,-3,2021-08-05 17:21:40,547972
2,-4,-9,3,5,1,1,0,2021-08-05 17:21:40,548073
-5,-2,9,6,-3,-4,-4,-5,2021-08-05 17:21:40,548133
5,3,-5,-2,2,3,2,5,2021-08-05 17:21:40,548206
-2,-3,3,-2,-4,-4,-1,-3,2021-08-05 17:21:40,548350
-2,0,2,-4,-3,0,-1,0,2021-08-05 17:21:40,563701
-3,-4,-7,-3,-3,-1,-1,-2,2021-08-05 17:21:40,579762
1,2,-3,-1,1,0,0,-1,2021-08-05 17:21:40,595594
-4,-4,-6,0,-1,0,-2,-3,2021-08-05 17:21:40,610707
-1,-1,-6,-5,-3,-1,0,0,2021-08-05 17:21:40,625777
2,4,18,10,5,0,1,2,2021-08-05 17:21:40,625777
-6,-3,-4,-5,-6,-5,-5,-7,2021-08-05 17:21:40,625777
2,-1,-10,-6,1,3,2,4,2021-08-05 17:21:40,625777
-3,-5,3,2,-2,-2,-2,-5,2021-08-05 17:21:40,625777
1,0,-3,1,-2,-1,-1,0,2021-08-05 17:21:40,626443
0,-2,-3,-4,-1,0,-2,-1,2021-08-05 17:21:40,626443
-1,-1,0,-2,-4,-3,-3,-3,2021-08-05 17:21:40,626595
1,4,-7,-6,0,0,-1,1,2021-08-05 17:21:40,626736
-1,-1,4,6,0,-1,1,1,2021-08-05 17:21:40,626736
2,4,9,9,2,0,1,0,2021-08-05 17:21:40,626736
-2,-2,-2,-9,-3,-3,-2,-4,2021-08-05 17:21:40,626736
1,2,17,16,3,1,2,5,2021-08-05 17:21:40,626736
-2,-2,-21,-16,-6,-2,-3,-1,2021-08-05 17:21:40,626736
-4,-8,-16,-13,-2,0,-1,-5,2021-08-05 17:21:40,657785
0,1,3,-1,2,1,0,1,2021-08-05 17:21:40,657914
-3,-6,-14,-9,-5,-2,-2,-4,2021-08-05 17:21:40,657914
6,7,18,11,6,3,3,5,2021-08-05 17:21:40,657914
-2,-1,5,6,-1,-2,-2,0,2021-08-05 17:21:40,673661
-1,-3,-1,-2,-4,-1,-1,-1,2021-08-05 17:21:40,680596
-3,-3,-6,-6,-3,-2,-2,-3,2021-08-05 17:21:40,680596
-4,-5,-3,-4,-3,-4,-3,-3,2021-08-05 17:21:40,680596
2,3,7,9,1,0,-1,0,2021-08-05 17:21:40,704647
-1,0,-2,1,1,2,0,0,2021-08-05 17:21:40,720632
0,2,-4,-1,-3,0,0,4,2021-08-05 17:21:40,720703
-2,0,6,2,-3,-2,0,0,2021-08-05 17:21:40,720703
-4,-1,-3,-8,-3,-4,-3,-3,2021-08-05 17:21:40,720703
0,-2,-5,1,-1,-3,-2,-4,2021-08-05 17:21:40,720703
-2,-2,-16,-9,-4,-3,-2,-3,2021-08-05 17:21:40,720703
-2,-2,0,4,3,3,-1,0,2021-08-05 17:21:40,720703
0,-1,14,6,3,1,1,2,2021-08-05 17:21:40,736594
-1,-2,-5,-6,-2,-1,-2,-2,2021-08-05 17:21:40,752643
-4,-4,-8,-8,-6,-1,-4,-6,2021-08-05 17:21:40,752751
2,0,3,7,2,-2,0,2,2021-08-05 17:21:40,752751
4,8,10,10,0,0,-1,3,2021-08-05 17:21:40,753002
-8,-10,-28,-29,-7,-3,-5,-9,2021-08-05 17:21:40,753002
1,-1,2,1,0,-1,-1,-4,2021-08-05 17:21:40,753261
-1,1,-2,-4,0,-1,-2,-2,2021-08-05 17:21:40,753261
-2,-4,4,3,-2,-1,-2,0,2021-08-05 17:21:40,782595
1,2,6,11,2,-1,1,1,2021-08-05 17:21:40,782595
0,-2,-1,-3,0,0,1,2,2021-08-05 17:21:40,782595
1,0,-4,-4,-1,-3,-1,-1,2021-08-05 17:21:40,782595
-1,2,2,-1,-1,-2,-2,-3,2021-08-05 17:21:40,782595
2,2,3,3,1,0,-1,1,2021-08-05 17:21:40,782595
-4,-5,-5,-3,-4,-4,-3,-5,2021-08-05 17:21:40,798715
2,-1,3,4,1,1,1,4,2021-08-05 17:21:40,798715
-2,-1,-7,-7,-2,-1,-1,-2,2021-08-05 17:21:40,814682
1,0,-4,3,1,1,4,2,2021-08-05 17:21:40,814811
-5,-4,0,-7,-8,-6,-4,-2,2021-08-05 17:21:40,814912
2,1,0,-3,-1,2,-1,1,2021-08-05 17:21:40,815003
-2,-3,-4,2,1,0,1,-1,2021-08-05 17:21:40,846594
1,4,8,4,0,1,-1,1,2021-08-05 17:21:40,846594
-4,-3,-3,-3,-2,-4,-4,-6,2021-08-05 17:21:40,846594
-1,0,-3,-4,-1,0,-1,-1,2021-08-05 17:21:40,846594
1,-1,1,-1,0,-1,0,-1,2021-08-05 17:21:40,846594
0,0,0,-2,0,-1,-2,0,2021-08-05 17:21:40,846594
3,2,2,3,3,2,2,3,2021-08-05 17:21:40,862686
-2,-3,-3,-5,-4,-3,-3,-4,2021-08-05 17:21:40,862686
-3,0,0,2,-1,-1,-2,-1,2021-08-05 17:21:40,878594
3,3,2,0,1,2,3,4,2021-08-05 17:21:40,893595
-3,-2,0,0,-1,-1,-3,-2,2021-08-05 17:21:40,909696
-3,-4,-2,-2,-3,-2,0,-1,2021-08-05 17:21:40,909696
0,-2,-4,0,0,-2,-2,-4,2021-08-05 17:21:40,909925
4,2,8,8,1,0,4,3,2021-08-05 17:21:40,909925
0,1,-6,-8,0,0,0,0,2021-08-05 17:21:40,910138
-3,-3,-3,-3,0,-2,0,-2,2021-08-05 17:21:40,910138
-2,-5,-7,-4,-2,-1,1,1,2021-08-05 17:21:40,910138
-3,-3,-2,-2,-3,-3,-2,-1,2021-08-05 17:21:40,910138
-1,0,3,4,0,0,-2,-3,2021-08-05 17:21:40,925712
-2,1,3,2,2,4,1,1,2021-08-05 17:21:40,925876
-3,-2,-2,-1,0,-2,-3,-6,2021-08-05 17:21:40,925876
1,2,6,7,1,-2,-3,-2,2021-08-05 17:21:40,926024
3,5,9,1,-2,-4,-3,-3,2021-08-05 17:21:40,941596
0,-7,-23,-14,-7,-3,-4,-5,2021-08-05 17:21:40,957691
5,3,6,5,4,3,3,7,2021-08-05 17:21:40,972972
-1,-2,-2,-5,-3,2,1,1,2021-08-05 17:21:40,988811
-1,-2,0,2,1,0,2,1,2021-08-05 17:21:40,992867
-2,-2,4,1,-3,-2,-3,-3,2021-08-05 17:21:40,992867
-1,0,-3,-2,-3,-1,1,-1,2021-08-05 17:21:40,993812
-6,-6,-3,-1,-1,0,0,-3,2021-08-05 17:21:40,993812
2,0,0,0,1,1,1,2,2021-08-05 17:21:41,004922
1,5,5,3,3,1,0,1,2021-08-05 17:21:41,019933
-2,-3,1,1,-2,-2,-2,-2,2021-08-05 17:21:41,035879
-1,-4,-3,-5,-3,-4,-2,-1,2021-08-05 17:21:41,051872
-2,-1,-2,-6,-5,-1,0,-2,2021-08-05 17:21:41,051872
-2,-3,-3,0,-1,-1,-3,-3,2021-08-05 17:21:41,052109
3,3,3,1,1,2,0,3,2021-08-05 17:21:41,052109
-3,-2,-3,-1,-3,-3,-3,-3,2021-08-05 17:21:41,052109
2,-3,-6,1,2,0,0,0,2021-08-05 17:21:41,052109
-2,-1,0,-1,0,-1,0,-1,2021-08-05 17:21:41,052109
-1,1,-1,-1,-1,-1,-2,-1,2021-08-05 17:21:41,052109
-1,-6,-7,-3,0,1,2,-2,2021-08-05 17:21:41,052109
0,0,3,1,1,-1,-1,1,2021-08-05 17:21:41,052109
0,-1,3,2,0,0,-1,0,2021-08-05 17:21:41,052846
-2,-2,2,3,0,-2,1,-2,2021-08-05 17:21:41,052846
-1,1,0,-1,-1,-1,-2,-2,2021-08-05 17:21:41,053027
-1,-1,-1,0,-1,0,-1,-2,2021-08-05 17:21:41,053130
-3,-2,-3,-4,-1,-3,0,1,2021-08-05 17:21:41,053130
2,1,6,5,1,-1,2,2,2021-08-05 17:21:41,083095
-2,-1,-3,-6,-3,-2,-2,-2,2021-08-05 17:21:41,083384
0,-1,-7,-4,0,0,-1,0,2021-08-05 17:21:41,083384
1,1,-4,-4,-3,2,1,1,2021-08-05 17:21:41,083384
2,-1,-3,-2,-1,0,-2,1,2021-08-05 17:21:41,083384
-6,-3,-1,-1,-2,-4,-3,-4,2021-08-05 17:21:41,083384
3,-1,4,6,3,1,2,3,2021-08-05 17:21:41,098324
-4,-1,0,0,-3,-3,-1,-3,2021-08-05 17:21:41,098588
0,1,-4,-3,-3,-1,-1,-1,2021-08-05 17:21:41,114244
-1,-1,1,0,0,0,-1,-1,2021-08-05 17:21:41,130178
-3,-1,-4,-1,0,-1,-1,-2,2021-08-05 17:21:41,130178
0,0,2,1,-1,-1,-1,-1,2021-08-05 17:21:41,130178
-8,-9,-7,-11,-8,-3,-5,-7,2021-08-05 17:21:41,130178
5,4,0,5,6,3,3,4,2021-08-05 17:21:41,130178
-2,-1,-2,0,-2,-1,-2,-1,2021-08-05 17:21:41,130178
3,4,3,3,2,2,1,3,2021-08-05 17:21:41,130178
-1,-3,0,-1,-3,-3,-2,-4,2021-08-05 17:21:41,161114
-1,-2,-1,-5,-3,-2,-2,-2,2021-08-05 17:21:41,161346
-5,-3,-3,0,-2,-1,-2,-4,2021-08-05 17:21:41,161346
0,0,2,2,1,0,0,-1,2021-08-05 17:21:41,161346
1,-1,-7,-6,-4,-1,-2,-1,2021-08-05 17:21:41,177119
1,2,-1,-2,0,0,-1,0,2021-08-05 17:21:41,193106
-3,-4,-2,-5,-4,-4,-2,-3,2021-08-05 17:21:41,209132
-2,0,-1,-2,-1,-2,-1,-2,2021-08-05 17:21:41,209132
2,2,4,3,3,2,0,1,2021-08-05 17:21:41,209132
-2,-4,-1,-1,-1,-2,-1,-1,2021-08-05 17:21:41,209132
0,0,-1,0,0,-1,-1,0,2021-08-05 17:21:41,209132
-2,-3,-2,-4,-4,-2,-1,-3,2021-08-05 17:21:41,209132
0,-1,0,-2,1,-2,2,1,2021-08-05 17:21:41,209132
-1,-2,3,4,1,0,-1,2,2021-08-05 17:21:41,209132
1,1,-6,-11,-4,-2,-1,-1,2021-08-05 17:21:41,225054
3,1,4,4,3,1,0,-1,2021-08-05 17:21:41,225362
-3,-3,-3,-3,-2,-1,-1,-1,2021-08-05 17:21:41,225362
1,-1,-1,2,0,-1,1,-1,2021-08-05 17:21:41,225362
-3,0,4,1,-2,-2,-1,-3,2021-08-05 17:21:41,240148
1,0,-5,-1,-1,1,-1,1,2021-08-05 17:21:41,240148
-5,-3,1,-2,-2,-3,-3,-4,2021-08-05 17:21:41,255150
0,-1,-3,-3,-1,-2,-2,-1,2021-08-05 17:21:41,271158
-1,-2,0,0,-2,-2,-1,-2,2021-08-05 17:21:41,286375
2,-1,-2,0,1,1,0,2,2021-08-05 17:21:41,286375
0,-3,-4,0,0,-1,0,2,2021-08-05 17:21:41,286375
-2,1,-1,-2,0,-1,-1,-1,2021-08-05 17:21:41,286375
-1,-2,0,0,0,-2,-1,0,2021-08-05 17:21:41,286375
-1,-2,0,-2,-2,-2,0,-3,2021-08-05 17:21:41,286375
-4,-2,-1,-3,-1,-1,-2,-5,2021-08-05 17:21:41,287091
1,2,-1,-3,-1,2,2,2,2021-08-05 17:21:41,287201
0,0,-1,4,3,1,0,2,2021-08-05 17:21:41,287306
-5,-3,-2,-4,-4,-1,-4,-3,2021-08-05 17:21:41,287306
1,1,1,0,-1,0,-2,1,2021-08-05 17:21:41,311056
-3,-3,-4,-4,-5,-4,-3,-6,2021-08-05 17:21:41,311056
3,4,3,2,1,2,3,3,2021-08-05 17:21:41,311056
-1,-5,-5,-1,-2,-1,-2,0,2021-08-05 17:21:41,312054
1,1,-3,1,1,1,1,2,2021-08-05 17:21:41,348139
-1,-1,1,1,-2,0,-1,-1,2021-08-05 17:21:41,348169
-2,-3,-3,-3,-2,-1,-1,-1,2021-08-05 17:21:41,348302
-2,-1,0,4,4,-2,1,0,2021-08-05 17:21:41,348302
-1,-1,-6,-10,-5,-1,-2,-2,2021-08-05 17:21:41,348302
1,0,0,1,0,-2,-1,-2,2021-08-05 17:21:41,348455
-1,-3,-2,-1,0,-2,-1,-1,2021-08-05 17:21:41,348455
3,3,2,-1,1,2,1,3,2021-08-05 17:21:41,348591
-3,-1,2,1,1,2,2,-1,2021-08-05 17:21:41,380053
1,0,-2,4,6,4,3,4,2021-08-05 17:21:41,380053
-2,-4,-4,-4,-4,-2,-4,-4,2021-08-05 17:21:41,380053
0,1,-1,-1,-3,-1,-2,-2,2021-08-05 17:21:41,380053
3,2,3,2,1,0,1,4,2021-08-05 17:21:41,396165
-2,-2,-3,-6,-4,-1,-3,-1,2021-08-05 17:21:41,411805
-1,-1,-3,0,0,-2,0,1,2021-08-05 17:21:41,411805
-5,-4,-1,-2,-2,-5,-4,-6,2021-08-05 17:21:41,411805
4,4,2,4,1,-1,-1,5,2021-08-05 17:21:41,411805
-1,-1,2,-2,-3,2,-1,-1,2021-08-05 17:21:41,411805
2,0,-5,1,3,1,1,1,2021-08-05 17:21:41,427799
-3,-3,0,-2,-4,-2,-1,-1,2021-08-05 17:21:41,427799
-4,-3,-1,-2,-3,-2,-2,-5,2021-08-05 17:21:41,427799
-1,-2,3,2,0,-2,-2,-1,2021-08-05 17:21:41,427799
-1,2,0,0,0,0,-2,-2,2021-08-05 17:21:41,443753
1,1,0,1,2,1,0,0,2021-08-05 17:21:41,443753
-1,-2,-5,-5,0,-1,-1,2,2021-08-05 17:21:41,459883
3,1,-1,2,0,2,1,3,2021-08-05 17:21:41,475839
-1,-1,3,0,-1,0,-3,-3,2021-08-05 17:21:41,475839
-1,-2,-4,-2,-5,-3,-2,-1,2021-08-05 17:21:41,475839
-1,0,0,1,-1,-2,-1,-1,2021-08-05 17:21:41,475839
-3,-1,-2,-5,-5,-3,-3,-4,2021-08-05 17:21:41,475839
-2,-1,-2,-3,-2,0,1,-2,2021-08-05 17:21:41,475839
0,3,2,1,1,-1,0,1,2021-08-05 17:21:41,475839
-1,-5,-6,-2,0,-1,0,-3,2021-08-05 17:21:41,523752
-1,0,-1,0,-1,-2,-2,-1,2021-08-05 17:21:41,539754
-3,-2,-2,0,-1,0,-1,-1,2021-08-05 17:21:41,539848
2,1,2,-1,2,1,0,0,2021-08-05 17:21:41,539848
-2,-1,-2,-3,-3,0,-2,-2,2021-08-05 17:21:41,539848
-2,-2,-2,0,0,-1,0,-1,2021-08-05 17:21:41,539848
-1,0,4,0,-1,0,0,1,2021-08-05 17:21:41,539848
-3,-2,-3,-1,-2,-1,-1,-1,2021-08-05 17:21:41,539848
0,2,1,2,3,-1,-2,2,2021-08-05 17:21:41,539848
-1,-1,1,-1,-1,-2,-3,-3,2021-08-05 17:21:41,539848
-1,-1,0,-2,0,-2,-2,-2,2021-08-05 17:21:41,539848
1,-1,-3,-2,-4,-1,1,3,2021-08-05 17:21:41,540752
2,2,-1,6,2,2,1,0,2021-08-05 17:21:41,555799
-1,-3,-1,-2,-5,-3,-1,-2,2021-08-05 17:21:41,555910
-3,-2,-3,-1,-2,-1,-1,-2,2021-08-05 17:21:41,555910
0,-1,2,1,1,-1,-2,-1,2021-08-05 17:21:41,555910
-3,-2,-1,-1,-3,-3,-1,-2,2021-08-05 17:21:41,586850
1,1,-1,2,3,1,1,3,2021-08-05 17:21:41,602831
-2,-2,-3,-1,-2,-1,-2,-4,2021-08-05 17:21:41,618812
-2,-3,-2,-2,-1,0,-1,2,2021-08-05 17:21:41,618908
1,-1,0,0,0,0,-1,-2,2021-08-05 17:21:41,619053
3,0,1,-1,1,0,-2,-2,2021-08-05 17:21:41,619053
2,-1,1,0,-1,-1,-1,2,2021-08-05 17:21:41,619053
-3,-3,-2,-1,-2,-2,-2,-3,2021-08-05 17:21:41,619053
0,-2,1,-1,-2,0,-1,-2,2021-08-05 17:21:41,619053
1,2,1,0,-1,1,1,1,2021-08-05 17:21:41,619053
-1,-1,-1,0,-2,0,1,0,2021-08-05 17:21:41,619053
-3,-1,-2,0,0,1,-1,-3,2021-08-05 17:21:41,619781
-2,0,0,-2,-2,-4,-2,-2,2021-08-05 17:21:41,631778
-4,-5,-5,-4,-3,-3,-3,-4,2021-08-05 17:21:41,632773
2,3,-1,0,2,2,0,2,2021-08-05 17:21:41,632773
-1,-3,-3,-2,-2,-2,-2,-4,2021-08-05 17:21:41,632773
3,2,5,4,2,0,1,2,2021-08-05 17:21:41,650887
-1,-2,-3,-2,0,-1,-1,-2,2021-08-05 17:21:41,651129
1,0,0,1,-3,0,-1,1,2021-08-05 17:21:41,651255
-2,-1,-4,-8,-3,-2,-3,-4,2021-08-05 17:21:41,651364
-1,-3,-3,-1,0,0,1,-1,2021-08-05 17:21:41,681899
0,1,0,-1,-3,0,0,0,2021-08-05 17:21:41,697860
0,-2,-3,1,1,0,0,1,2021-08-05 17:21:41,697860
0,-2,0,2,0,0,0,-1,2021-08-05 17:21:41,698023
-4,-1,-3,0,-1,0,-1,0,2021-08-05 17:21:41,698023
1,0,1,1,-2,-2,-2,2,2021-08-05 17:21:41,698023
-1,1,-1,-2,1,-1,0,-1,2021-08-05 17:21:41,698023
1,-1,-4,-3,-2,-2,1,2,2021-08-05 17:21:41,698023
-2,-3,-1,-4,-3,-3,-1,-2,2021-08-05 17:21:41,713755
-2,1,-2,-1,-1,1,0,-1,2021-08-05 17:21:41,728861
-6,-7,-4,1,0,1,-3,-8,2021-08-05 17:21:41,728954
-1,-1,0,3,-1,-2,-2,-5,2021-08-05 17:21:41,728954
-1,2,6,4,1,-2,-4,-6,2021-08-05 17:21:41,728954
4,2,1,0,0,-3,-2,-1,2021-08-05 17:21:41,728954
3,1,3,-2,-3,-3,-2,3,2021-08-05 17:21:41,728954
-3,-2,-3,-6,-2,-1,-3,-2,2021-08-05 17:21:41,728954
0,1,-5,0,1,1,3,3,2021-08-05 17:21:41,759892
-3,-4,-4,0,-1,0,1,-1,2021-08-05 17:21:41,760038
1,1,-3,0,1,0,3,4,2021-08-05 17:21:41,760038
1,0,0,3,0,-1,1,0,2021-08-05 17:21:41,760038
-1,-2,-1,0,-3,0,-1,0,2021-08-05 17:21:41,775058
-2,1,0,-6,-4,-2,-2,-4,2021-08-05 17:21:41,775058
-1,0,1,-1,-2,-2,-1,-3,2021-08-05 17:21:41,775058
2,1,-5,-6,-2,0,0,2,2021-08-05 17:21:41,775058
-3,-4,-3,-1,0,-2,-1,-3,2021-08-05 17:21:41,807076
-5,-5,-1,0,-4,-2,-3,-5,2021-08-05 17:21:41,807076
3,-1,2,1,2,0,2,3,2021-08-05 17:21:41,807076
-2,-3,4,1,-3,-2,-3,-4,2021-08-05 17:21:41,807486
2,9,-3,-2,1,1,3,2,2021-08-05 17:21:41,823098
2,8,7,6,3,1,1,3,2021-08-05 17:21:41,839136
-4,-5,-6,-5,-5,-2,-4,-2,2021-08-05 17:21:41,839136
2,4,4,3,0,0,0,2,2021-08-05 17:21:41,839136
-5,-9,-2,-5,-5,-1,-3,-5,2021-08-05 17:21:41,839136
-1,-4,-1,-2,-3,-1,-1,-1,2021-08-05 17:21:41,839136
1,2,-2,0,1,1,-1,0,2021-08-05 17:21:41,839136
2,-1,-4,1,2,1,1,2,2021-08-05 17:21:41,839136
-3,-1,1,-3,-5,-4,-4,-3,2021-08-05 17:21:41,871215
0,-1,-2,0,0,0,3,2,2021-08-05 17:21:41,887256
-1,-1,2,-4,-3,0,0,-1,2021-08-05 17:21:41,903106
-4,-6,-4,-3,-3,-3,-3,-4,2021-08-05 17:21:41,903106
4,-1,-2,1,3,1,1,3,2021-08-05 17:21:41,903106
3,0,-1,4,2,1,1,2,2021-08-05 17:21:41,903106
1,11,4,5,-1,-2,1,2,2021-08-05 17:21:41,903106
-3,1,-6,-10,-2,-1,-2,-3,2021-08-05 17:21:41,903106
2,0,-1,1,0,-1,-1,-1,2021-08-05 17:21:41,903106
-5,-2,-3,-4,-3,-4,-4,-5,2021-08-05 17:21:41,903106
-1,-7,-1,0,1,-2,-2,-1,2021-08-05 17:21:41,903106
0,2,3,8,2,2,0,-1,2021-08-05 17:21:41,903106
-4,1,-2,-4,-2,-2,-3,-3,2021-08-05 17:21:41,919026
1,-6,-3,1,1,1,-1,-1,2021-08-05 17:21:41,935081
-2,-3,2,0,-1,-1,-1,-1,2021-08-05 17:21:41,951025
-2,1,1,2,3,0,1,1,2021-08-05 17:21:41,951025
-3,-4,-2,-6,-4,-5,-4,-3,2021-08-05 17:21:41,951025
0,-1,-3,0,1,1,3,2,2021-08-05 17:21:41,951025
2,1,-3,-1,0,1,-1,-2,2021-08-05 17:21:41,951025
1,3,-1,-3,-2,-2,0,-1,2021-08-05 17:21:41,951025
-4,-4,-2,-7,-6,-3,-2,-4,2021-08-05 17:21:41,952579
-1,-8,5,2,1,0,0,1,2021-08-05 17:21:41,953026
0,9,0,-2,-2,0,-2,-2,2021-08-05 17:21:41,967310
0,-4,-2,0,1,-1,1,2,2021-08-05 17:21:41,982703
-3,5,2,1,1,-1,-1,-2,2021-08-05 17:21:41,998651
-2,-8,-8,-6,-2,-2,0,-1,2021-08-05 17:21:41,998651
0,-3,0,0,1,-1,-1,1,2021-08-05 17:21:41,998651
-2,-1,2,-1,-5,-2,-1,-3,2021-08-05 17:21:41,998651
1,-1,-2,1,-1,-2,1,0,2021-08-05 17:21:41,998651
-2,3,0,0,-2,-2,-2,-2,2021-08-05 17:21:41,998651
-3,-6,-7,-3,0,0,-1,-1,2021-08-05 17:21:41,998651
1,5,8,3,1,2,2,0,2021-08-05 17:21:41,998651
-1,-6,-9,-3,0,0,0,1,2021-08-05 17:21:42,030584
-2,1,1,-5,-4,-3,-3,-2,2021-08-05 17:21:42,030584
2,-2,-1,-4,-1,1,3,1,2021-08-05 17:21:42,030584
-1,-2,2,1,-1,-1,-4,-3,2021-08-05 17:21:42,030981
-1,-8,-4,-1,-1,1,0,-1,2021-08-05 17:21:42,030981
1,0,3,4,2,1,0,1,2021-08-05 17:21:42,030981
-2,3,-3,-1,-2,-3,-1,-4,2021-08-05 17:21:42,030981
0,-2,2,1,-1,-3,-1,0,2021-08-05 17:21:42,030981
-1,0,-1,1,-1,1,0,2,2021-08-05 17:21:42,060643
-5,-5,-6,-3,-4,-3,-5,-4,2021-08-05 17:21:42,076814
-4,-10,3,0,-2,0,-2,-1,2021-08-05 17:21:42,092634
2,5,-2,2,0,1,-1,1,2021-08-05 17:21:42,108832
3,1,5,1,-1,1,-2,-1,2021-08-05 17:21:42,108832
1,3,-6,1,2,3,3,2,2021-08-05 17:21:42,108832
-1,0,-1,-4,-2,-3,-2,-2,2021-08-05 17:21:42,109068
-4,-3,-2,-2,-2,-3,-1,-3,2021-08-05 17:21:42,109116
-5,-3,-1,-4,-2,-2,-3,-3,2021-08-05 17:21:42,109229
4,6,6,2,-1,1,1,3,2021-08-05 17:21:42,109229
-2,-3,-5,-3,-2,0,-2,-1,2021-08-05 17:21:42,109229
-2,-7,-5,-6,-2,1,-2,-1,2021-08-05 17:21:42,109229
-1,4,1,-1,-1,0,-3,-2,2021-08-05 17:21:42,109617
-1,-2,-1,-1,-1,-1,1,-1,2021-08-05 17:21:42,109617
2,1,3,4,2,1,1,2,2021-08-05 17:21:42,124649
-1,1,2,1,1,-2,-2,-1,2021-08-05 17:21:42,140582
1,1,14,-2,2,0,1,2,2021-08-05 17:21:42,140582
-2,-2,-18,-3,-4,-3,-3,-3,2021-08-05 17:21:42,140582
-2,-3,-4,-4,-2,-2,-1,-2,2021-08-05 17:21:42,140582
-3,-5,-5,0,-3,0,0,-2,2021-08-05 17:21:42,140582
-2,3,6,7,0,-2,-1,-1,2021-08-05 17:21:42,156642
5,-15,-5,8,4,1,0,-2,2021-08-05 17:21:42,156642
7,8,-9,-13,-4,-2,-1,-1,2021-08-05 17:21:42,156642
-2,2,-5,-7,-3,-4,-3,-1,2021-08-05 17:21:42,156642
-1,4,1,4,3,2,1,1,2021-08-05 17:21:42,188618
-4,5,10,-2,-1,-1,-2,-1,2021-08-05 17:21:42,188618
-5,-9,-2,8,5,1,-1,-2,2021-08-05 17:21:42,188618
2,2,2,-3,-2,-1,0,0,2021-08-05 17:21:42,188618
0,-5,-4,-1,1,0,1,3,2021-08-05 17:21:42,188618
-4,2,-1,-3,-3,0,-4,0,2021-08-05 17:21:42,188618
-1,-2,4,0,-3,0,0,0,2021-08-05 17:21:42,204649
-3,-3,-6,-3,2,-1,0,-3,2021-08-05 17:21:42,204780
-4,-7,-7,-4,-5,-4,-3,-6,2021-08-05 17:21:42,220659
3,7,5,2,1,0,1,2,2021-08-05 17:21:42,236618
-2,-3,-4,-4,-3,-2,-1,-1,2021-08-05 17:21:42,236767
2,-1,0,2,-1,1,2,1,2021-08-05 17:21:42,236767
3,-4,-8,1,4,1,1,1,2021-08-05 17:21:42,236767
-6,-1,-2,-5,-3,-3,-4,-5,2021-08-05 17:21:42,236767
-1,-4,-1,-1,-1,-2,-1,-2,2021-08-05 17:21:42,236767
-1,0,0,-1,1,-1,0,-1,2021-08-05 17:21:42,236767
5,12,2,-2,0,0,1,3,2021-08-05 17:21:42,266658
-5,-12,-8,-6,-3,-4,-3,-3,2021-08-05 17:21:42,269615
2,-3,5,4,4,0,0,2,2021-08-05 17:21:42,269615
1,49,9,6,2,2,0,2,2021-08-05 17:21:42,269615
0,-42,-15,-2,-2,0,-1,0,2021-08-05 17:21:42,269615
-1,8,7,-6,-4,-3,-3,-4,2021-08-05 17:21:42,269615
5,10,-2,-1,-1,1,1,4,2021-08-05 17:21:42,270619
-2,8,8,-2,-3,-1,-3,-3,2021-08-05 17:21:42,270619
0,-1,-2,2,-2,1,-1,-1,2021-08-05 17:21:42,298582
-2,-8,-5,-1,1,2,2,2,2021-08-05 17:21:42,298582
-2,7,14,1,1,0,-1,-2,2021-08-05 17:21:42,298582
0,-21,-25,0,1,2,-1,1,2021-08-05 17:21:42,298582
-5,6,6,-2,-2,-3,-3,-7,2021-08-05 17:21:42,330799
5,-10,-4,1,3,0,1,4,2021-08-05 17:21:42,346719
-1,12,6,-2,-2,-3,-2,-2,2021-08-05 17:21:42,362582
-4,-14,2,-3,-4,-5,-4,-5,2021-08-05 17:21:42,362582
-4,19,15,2,-1,1,1,0,2021-08-05 17:21:42,362844
-1,-4,-6,6,2,1,0,2,2021-08-05 17:21:42,363032
-3,-5,-14,-4,-2,-2,-2,-5,2021-08-05 17:21:42,363132
-2,-11,-7,-8,-7,-3,-4,-3,2021-08-05 17:21:42,363220
2,3,-9,-2,1,1,-1,0,2021-08-05 17:21:42,363220
-1,6,16,0,-4,-2,-4,-2,2021-08-05 17:21:42,363220
-5,-8,-7,1,-1,-1,-2,-2,2021-08-05 17:21:42,363220
6,-10,-1,9,8,4,6,9,2021-08-05 17:21:42,363220
0,3,1,-1,-3,-3,-2,-1,2021-08-05 17:21:42,378646
-2,1,0,-2,-1,-1,0,-2,2021-08-05 17:21:42,394633
-3,-7,-3,1,-2,-2,-4,-3,2021-08-05 17:21:42,409699
-2,3,0,-4,-2,0,-2,-1,2021-08-05 17:21:42,424576
1,0,-1,0,0,0,1,0,2021-08-05 17:21:42,424576
0,3,-3,1,1,0,1,0,2021-08-05 17:21:42,424576
-5,-3,0,-6,-6,-5,-5,-6,2021-08-05 17:21:42,424576
-3,-8,-3,-3,-2,-3,-1,-4,2021-08-05 17:21:42,424576
0,0,-2,0,-1,-2,-3,-2,2021-08-05 17:21:42,440658
1,2,-2,-2,-4,-3,-1,0,2021-08-05 17:21:42,440854
-2,-4,-2,-2,-3,1,0,1,2021-08-05 17:21:42,440931
1,-2,2,2,0,1,0,1,2021-08-05 17:21:42,440982
-3,-4,-5,-4,-7,-3,-4,-4,2021-08-05 17:21:42,441018
3,20,3,6,7,4,2,3,2021-08-05 17:21:42,441018
-2,-14,4,2,2,-1,-1,-1,2021-08-05 17:21:42,441018
-5,-3,-2,-2,-3,-2,-4,-8,2021-08-05 17:21:42,441018
-1,-4,-3,-6,-4,-3,-2,0,2021-08-05 17:21:42,456578
-3,0,3,-6,-4,-6,-3,-7,2021-08-05 17:21:42,456578
0,-5,-5,2,0,0,2,2,2021-08-05 17:21:42,456578
-2,-2,2,-4,-2,-3,-3,-6,2021-08-05 17:21:42,456578
-3,6,-7,-4,-3,-4,-4,-3,2021-08-05 17:21:42,488665
1,-28,15,3,2,3,2,3,2021-08-05 17:21:42,504742
-2,-15,-18,0,0,1,1,1,2021-08-05 17:21:42,504742
-2,-5,-8,-6,-4,-4,-3,-5,2021-08-05 17:21:42,504900
2,6,9,1,-1,-1,0,1,2021-08-05 17:21:42,504900
-3,10,-4,-6,-6,-4,-2,-2,2021-08-05 17:21:42,504900
3,6,2,1,4,2,2,3,2021-08-05 17:21:42,504900
-1,-13,-3,-1,0,0,1,3,2021-08-05 17:21:42,504900
-2,8,-2,0,0,0,1,-2,2021-08-05 17:21:42,536688
-5,1,-2,-1,0,0,0,-2,2021-08-05 17:21:42,551575
-4,5,4,-2,-1,-2,0,-7,2021-08-05 17:21:42,551659
0,2,0,7,4,1,0,0,2021-08-05 17:21:42,551659
4,2,4,0,0,-1,-1,1,2021-08-05 17:21:42,551659
1,-8,-9,0,0,0,-1,1,2021-08-05 17:21:42,551659
-6,-6,-2,-6,-9,-6,-6,-7,2021-08-05 17:21:42,551659
12,16,5,3,5,5,8,10,2021-08-05 17:21:42,551659
0,88,38,7,5,4,4,2,2021-08-05 17:21:42,566671
-4,-94,-37,-5,-5,-3,-2,-5,2021-08-05 17:21:42,582753
1,-18,-30,4,9,8,8,7,2021-08-05 17:21:42,582829
-14,6,5,-15,-16,-11,-9,-11,2021-08-05 17:21:42,582897
1,-11,-8,-2,4,2,0,-2,2021-08-05 17:21:42,582897
0,52,26,2,-2,-1,-2,-3,2021-08-05 17:21:42,582897
3,5,8,4,1,0,0,0,2021-08-05 17:21:42,582897
1,-20,-8,2,1,0,1,2,2021-08-05 17:21:42,582897
-3,-12,-2,-3,-3,-2,-1,-1,2021-08-05 17:21:42,598611
-2,6,2,-1,1,-1,-1,0,2021-08-05 17:21:42,629702
0,10,7,-2,-3,-1,-2,-2,2021-08-05 17:21:42,644575
-3,8,9,0,-2,-2,-2,-2,2021-08-05 17:21:42,660637
0,-57,-25,-4,-1,-2,0,1,2021-08-05 17:21:42,660637
-1,6,-29,-2,-2,0,-2,-2,2021-08-05 17:21:42,660637
-2,-10,12,-5,-5,-3,-2,-2,2021-08-05 17:21:42,660637
0,7,7,3,1,1,0,1,2021-08-05 17:21:42,660637
5,-12,1,4,6,4,5,3,2021-08-05 17:21:42,660637
-4,-3,-1,-4,-2,-2,-4,-4,2021-08-05 17:21:42,660637
-4,12,-3,-9,-7,-8,-7,-7,2021-08-05 17:21:42,660637
7,21,12,5,4,3,5,4,2021-08-05 17:21:42,660637
-5,-26,-9,-2,-4,-4,-3,-4,2021-08-05 17:21:42,660637
0,14,2,1,3,0,0,4,2021-08-05 17:21:42,660637
-3,15,1,-2,-3,-2,-3,-3,2021-08-05 17:21:42,661578
-1,-15,-5,0,0,1,0,-1,2021-08-05 17:21:42,661578
-3,2,-7,-2,1,-2,-1,0,2021-08-05 17:21:42,692578
4,12,1,-1,0,1,1,2,2021-08-05 17:21:42,692899
0,2,8,3,2,1,1,1,2021-08-05 17:21:42,692899
-1,-16,-12,-3,-2,-2,-3,-3,2021-08-05 17:21:42,692899
0,3,-1,0,-1,0,0,3,2021-08-05 17:21:42,692899
-2,34,5,-1,-2,-3,-1,-3,2021-08-05 17:21:42,692899
2,-40,-6,2,3,1,1,4,2021-08-05 17:21:42,693575
1,8,-5,-2,0,3,0,-2,2021-08-05 17:21:42,693575
-4,8,6,-1,-3,-3,-2,-5,2021-08-05 17:21:42,724623
-8,-10,-4,-5,-6,-4,-3,-5,2021-08-05 17:21:42,724623
7,16,8,3,4,4,4,8,2021-08-05 17:21:42,724623
-2,-14,-9,-1,-1,-2,-1,-4,2021-08-05 17:21:42,724623
-2,9,11,2,-2,-3,-2,1,2021-08-05 17:21:42,740774
-3,-23,-26,1,2,1,0,0,2021-08-05 17:21:42,740868
2,-2,-1,-2,0,-2,-1,-2,2021-08-05 17:21:42,740868
-1,-3,-1,-4,-3,-2,-4,-5,2021-08-05 17:21:42,740868
4,38,13,2,1,3,2,2,2021-08-05 17:21:42,756717
0,-29,24,2,-1,-1,1,1,2021-08-05 17:21:42,756717
-1,-8,-43,-2,0,0,0,1,2021-08-05 17:21:42,756717
-1,4,2,-6,-3,-4,-2,-1,2021-08-05 17:21:42,756717
-3,-16,-9,-5,-4,-3,-2,-2,2021-08-05 17:21:42,787683
2,24,10,2,3,1,-1,2,2021-08-05 17:21:42,787683
-3,6,9,1,-1,-3,-4,-3,2021-08-05 17:21:42,787683
-3,-9,1,1,0,-2,0,-1,2021-08-05 17:21:42,787683
2,22,-4,3,2,2,2,1,2021-08-05 17:21:42,803652
-1,-34,-13,-1,-2,0,-1,0,2021-08-05 17:21:42,803652
-3,11,1,-9,-7,-7,-4,-4,2021-08-05 17:21:42,803652
-2,-9,0,-1,-2,-2,-2,3,2021-08-05 17:21:42,803652
6,81,49,12,3,0,1,3,2021-08-05 17:21:42,819830
1,-86,-31,-2,-1,-1,1,3,2021-08-05 17:21:42,835630
-10,-13,-30,-4,0,3,0,-5,2021-08-05 17:21:42,851614
-9,13,11,-11,-11,-8,-7,-11,2021-08-05 17:21:42,851614
0,-18,-16,-5,-4,-2,-3,1,2021-08-05 17:21:42,851944
-4,41,23,-1,-4,-6,-3,-6,2021-08-05 17:21:42,852031
7,11,20,9,3,2,1,4,2021-08-05 17:21:42,852031
0,-16,-15,4,3,3,3,3,2021-08-05 17:21:42,852031
-2,-28,-5,-2,-3,-1,-3,-2,2021-08-05 17:21:42,867665
1,27,5,-1,2,1,1,0,2021-08-05 17:21:42,883711
0,-13,5,-3,0,-2,0,-1,2021-08-05 17:21:42,899679
1,9,0,3,2,0,1,3,2021-08-05 17:21:42,909631
-6,-24,-14,-5,-4,-3,-4,-7,2021-08-05 17:21:42,909631
2,6,-5,-4,-3,-1,0,0,2021-08-05 17:21:42,909631
-2,9,6,0,-2,-2,-2,-3,2021-08-05 17:21:42,909631
3,10,6,4,3,2,2,3,2021-08-05 17:21:42,909631
-3,-34,-15,-2,0,0,-1,-3,2021-08-05 17:21:42,909631
-1,1,-13,-3,-1,-2,-1,2,2021-08-05 17:21:42,909631
-2,6,10,-4,-2,0,-2,-1,2021-08-05 17:21:42,909631
-3,23,-3,-1,-1,-2,-1,-3,2021-08-05 17:21:42,910577
-4,-18,1,-1,-1,-1,-1,0,2021-08-05 17:21:42,930784
-1,-34,6,1,-1,1,-2,-1,2021-08-05 17:21:42,930885
-2,-11,-22,-6,-5,-4,-2,-1,2021-08-05 17:21:42,930916
3,11,3,-3,-1,0,1,0,2021-08-05 17:21:42,930916
-6,-4,-2,-3,-5,-1,-4,-5,2021-08-05 17:21:42,931145
1,45,21,2,0,-1,0,0,2021-08-05 17:21:42,931145
1,-13,-5,1,0,0,3,3,2021-08-05 17:21:42,946677
-2,-28,-8,0,-1,-1,-2,-1,2021-08-05 17:21:42,962675
0,10,-3,-5,-2,-2,-2,-3,2021-08-05 17:21:42,962675
0,3,0,-2,1,1,0,0,2021-08-05 17:21:42,962675
-1,13,17,4,-4,-3,-2,-2,2021-08-05 17:21:42,962675
2,-6,-13,1,3,1,2,3,2021-08-05 17:21:42,962675
-1,-13,-2,2,2,2,1,2,2021-08-05 17:21:42,978576
-2,9,-6,-2,-2,-1,0,-4,2021-08-05 17:21:42,993306
-2,4,6,1,0,-1,-1,0,2021-08-05 17:21:42,993433
-1,-3,-1,-6,-3,-3,-3,0,2021-08-05 17:21:42,993580
1,-11,-9,1,-1,0,-1,-1,2021-08-05 17:21:43,008644
0,5,0,-1,-2,-1,-2,-4,2021-08-05 17:21:43,023611
1,9,4,0,-2,0,0,-2,2021-08-05 17:21:43,038765
2,-5,1,5,0,1,-1,4,2021-08-05 17:21:43,038868
-3,-6,-5,-2,1,1,1,-2,2021-08-05 17:21:43,038868
0,8,2,-2,-3,0,-1,1,2021-08-05 17:21:43,038868
4,52,16,-3,1,1,-1,0,2021-08-05 17:21:43,039055
0,-79,5,8,6,2,3,1,2021-08-05 17:21:43,039191
-3,-15,-37,-7,-1,-2,-1,-1,2021-08-05 17:21:43,039191
-1,16,-11,-7,-5,-4,-1,-1,2021-08-05 17:21:43,039191
-4,-9,5,0,-1,-2,-3,-5,2021-08-05 17:21:43,039580
0,29,8,-2,0,-2,-1,0,2021-08-05 17:21:43,039622
2,4,12,1,0,1,0,2,2021-08-05 17:21:43,054629
-1,-5,0,5,2,2,2,0,2021-08-05 17:21:43,070673
1,-22,6,2,1,1,3,4,2021-08-05 17:21:43,086751
-3,2,-14,-1,-1,-2,-1,-2,2021-08-05 17:21:43,086751
0,-4,1,-2,-2,-1,1,-2,2021-08-05 17:21:43,087029
-1,1,-5,-4,-3,-4,-4,-2,2021-08-05 17:21:43,087133
0,0,6,2,-2,-1,-2,-1,2021-08-05 17:21:43,087133
-1,17,19,2,0,0,-1,-1,2021-08-05 17:21:43,087294
-3,-14,-17,-4,-1,-1,0,-1,2021-08-05 17:21:43,101576
4,8,6,0,1,1,2,4,2021-08-05 17:21:43,116630
-3,-10,-11,-2,1,-1,-2,-4,2021-08-05 17:21:43,132686
0,-7,-12,-2,-1,-2,0,0,2021-08-05 17:21:43,132844
-1,24,19,2,-3,-3,-3,1,2021-08-05 17:21:43,132963
-6,-12,-5,-3,-3,-3,-5,-7,2021-08-05 17:21:43,132963
2,-14,1,5,5,3,4,6,2021-08-05 17:21:43,132963
-1,8,-18,-5,-4,-2,-2,-6,2021-08-05 17:21:43,132963
5,1,4,3,1,0,4,6,2021-08-05 17:21:43,132963
-1,1,10,-3,-3,-2,-3,-5,2021-08-05 17:21:43,132963
-6,-34,-18,-4,-2,-2,-3,-2,2021-08-05 17:21:43,132963
0,14,-2,-3,-3,-2,-1,-2,2021-08-05 17:21:43,133611
2,-3,4,1,0,-1,-1,1,2021-08-05 17:21:43,163665
0,17,17,4,0,-1,-1,0,2021-08-05 17:21:43,163665
2,4,-13,-4,-3,-2,0,-2,2021-08-05 17:21:43,163665
2,-17,-9,3,4,3,5,6,2021-08-05 17:21:43,163665
-10,-27,-4,0,-3,-1,-2,-5,2021-08-05 17:21:43,179574
-2,4,-1,-5,-6,-5,-2,-5,2021-08-05 17:21:43,179574
4,33,9,-2,-2,-3,-2,1,2021-08-05 17:21:43,179574
0,7,4,1,0,1,0,-1,2021-08-05 17:21:43,179574
3,-2,2,0,2,2,-1,2,2021-08-05 17:21:43,195574
-2,3,-5,-1,-1,-1,-2,-1,2021-08-05 17:21:43,210907
-5,-10,-4,-2,-4,-4,-3,-5,2021-08-05 17:21:43,210907
2,8,10,3,2,0,2,3,2021-08-05 17:21:43,210907
0,10,4,-3,-2,-3,-1,-3,2021-08-05 17:21:43,226717
-1,-15,-16,-1,0,-3,-2,-4,2021-08-05 17:21:43,232626
5,-2,-6,4,7,8,7,11,2021-08-05 17:21:43,232626
-2,16,22,-1,-5,-3,-1,-4,2021-08-05 17:21:43,232931
-1,17,-2,-2,-3,-3,-2,-3,2021-08-05 17:21:43,242655
2,-48,-22,1,6,5,3,4,2021-08-05 17:21:43,258712
-4,-1,-12,-5,-5,-4,-4,-7,2021-08-05 17:21:43,258844
-5,6,1,-10,-10,-7,-10,-8,2021-08-05 17:21:43,258844
1,18,18,4,3,1,2,1,2021-08-05 17:21:43,258844
-4,3,-9,0,0,1,1,1,2021-08-05 17:21:43,258844
0,-4,2,0,-1,1,0,-1,2021-08-05 17:21:43,258844
-5,-3,-2,-3,-2,0,-1,-3,2021-08-05 17:21:43,258844
-1,-2,-5,-2,-6,-3,-5,-6,2021-08-05 17:21:43,289635
5,4,10,3,3,3,2,6,2021-08-05 17:21:43,305694
-2,-3,0,3,1,1,-1,1,2021-08-05 17:21:43,305884
7,19,9,3,3,2,5,6,2021-08-05 17:21:43,305884
-4,-42,-29,-9,-6,-3,-1,-2,2021-08-05 17:21:43,305884
1,7,-2,1,4,5,5,4,2021-08-05 17:21:43,305884
1,-11,9,6,3,1,1,-2,2021-08-05 17:21:43,305884
-4,26,2,-2,-1,-3,-3,-4,2021-08-05 17:21:43,305884
4,-12,9,6,2,0,1,-1,2021-08-05 17:21:43,321761
-9,-29,-8,-5,-6,-9,-8,-7,2021-08-05 17:21:43,337614
3,9,-20,-11,-7,-5,-5,1,2021-08-05 17:21:43,353576
1,-3,0,-1,-2,-2,-3,-1,2021-08-05 17:21:43,369180
1,18,5,1,1,2,0,0,2021-08-05 17:21:43,369180
2,9,5,0,-2,-1,0,-2,2021-08-05 17:21:43,369421
2,-2,11,2,0,1,2,4,2021-08-05 17:21:43,369577
-2,-10,-8,0,1,-1,0,-1,2021-08-05 17:21:43,369577
0,2,-5,-2,1,-2,-1,0,2021-08-05 17:21:43,369577
-3,-5,1,-1,0,-1,-2,-1,2021-08-05 17:21:43,369905
-6,7,3,-4,-5,-4,-4,-6,2021-08-05 17:21:43,370075
3,5,22,3,4,4,3,4,2021-08-05 17:21:43,370075
1,-30,-30,4,5,3,3,2,2021-08-05 17:21:43,370075
-3,-1,-10,-6,-5,-1,-1,-1,2021-08-05 17:21:43,370075
-3,30,16,-4,-3,-5,-6,-6,2021-08-05 17:21:43,370075
-2,-40,-30,-5,-1,-1,-2,-2,2021-08-05 17:21:43,370075
-1,14,17,-3,-3,-1,-3,-3,2021-08-05 17:21:43,400577
-1,6,-2,-1,0,0,0,-1,2021-08-05 17:21:43,400577
3,2,4,2,-1,0,3,-2,2021-08-05 17:21:43,400577
-2,26,17,0,-4,-4,-4,-3,2021-08-05 17:21:43,400577
-2,-24,-11,1,2,2,3,5,2021-08-05 17:21:43,432574
0,-22,-16,-5,-1,-3,-2,-2,2021-08-05 17:21:43,448683
-4,4,2,-5,-2,-1,-2,-2,2021-08-05 17:21:43,464733
-3,-16,-8,-1,-2,-1,-3,-5,2021-08-05 17:21:43,464733
1,23,7,-2,-4,-3,-3,1,2021-08-05 17:21:43,464733
1,12,15,4,1,2,0,1,2021-08-05 17:21:43,464733
1,-19,-5,2,1,0,2,3,2021-08-05 17:21:43,464733
-1,-2,-13,-5,-3,-1,-2,-1,2021-08-05 17:21:43,464733
-3,6,0,-3,-2,-3,-1,-4,2021-08-05 17:21:43,464733
-2,1,8,2,0,-1,-2,-1,2021-08-05 17:21:43,464733
3,-4,-4,3,2,1,-1,3,2021-08-05 17:21:43,464733
-2,-5,-3,-1,-2,1,-1,-4,2021-08-05 17:21:43,465612
-2,1,4,-2,-4,-3,-3,-2,2021-08-05 17:21:43,480576
1,6,-7,2,1,1,3,2,2021-08-05 17:21:43,496721
1,-12,2,-1,-3,-1,-1,0,2021-08-05 17:21:43,496721
0,-20,-24,-4,-1,-4,-1,-2,2021-08-05 17:21:43,496721
-2,1,8,0,-1,-1,-2,-3,2021-08-05 17:21:43,496721
2,12,8,2,-1,-3,-1,-2,2021-08-05 17:21:43,496721
-7,0,1,-5,-4,-4,-4,-2,2021-08-05 17:21:43,496721
5,-1,3,8,5,4,4,5,2021-08-05 17:21:43,496721
1,-3,-10,-2,0,-1,-1,0,2021-08-05 17:21:43,526751
-8,7,6,-7,-6,-5,-4,-3,2021-08-05 17:21:43,526751
2,1,-1,2,3,3,2,-1,2021-08-05 17:21:43,526751
-1,-10,0,2,2,3,2,3,2021-08-05 17:21:43,526751
0,3,-4,-2,-1,-2,-1,-1,2021-08-05 17:21:43,542631
1,43,12,-2,-1,-2,-2,-1,2021-08-05 17:21:43,547611
2,-61,-11,5,6,1,2,5,2021-08-05 17:21:43,547611
-4,-6,-6,-6,-5,-5,-5,-2,2021-08-05 17:21:43,547611
1,19,10,-7,-4,-2,-3,-2,2021-08-05 17:21:43,558670
2,-7,-8,4,5,2,1,1,2021-08-05 17:21:43,588756
-2,32,-8,-7,-5,-3,-1,-2,2021-08-05 17:21:43,604740
0,-31,11,2,1,1,0,-1,2021-08-05 17:21:43,604740
-6,-8,-13,-2,-3,-2,-3,-3,2021-08-05 17:21:43,604740
3,9,9,1,-1,-1,1,2,2021-08-05 17:21:43,604740
2,52,16,0,0,0,0,-1,2021-08-05 17:21:43,604740
3,-51,-18,0,3,4,0,2,2021-08-05 17:21:43,604740
-11,-23,-25,-5,-4,-3,-1,-3,2021-08-05 17:21:43,604740
-1,6,12,-5,-4,-3,-4,-6,2021-08-05 17:21:43,604740
-1,-9,3,6,5,2,1,2,2021-08-05 17:21:43,605614
0,24,4,-4,-3,-2,-1,0,2021-08-05 17:21:43,605614
4,5,6,2,0,1,1,0,2021-08-05 17:21:43,620657
1,-22,-16,-4,-1,-1,2,2,2021-08-05 17:21:43,635637
-2,5,2,-3,-2,-3,-3,-3,2021-08-05 17:21:43,635637
1,46,15,2,-3,-3,-1,-3,2021-08-05 17:21:43,635637
2,-26,13,3,3,2,2,4,2021-08-05 17:21:43,635637
-5,-30,-20,3,1,0,1,-1,2021-08-05 17:21:43,635637
0,-18,-21,-2,-1,1,0,-3,2021-08-05 17:21:43,635637
-5,16,2,-6,-5,-5,-4,-6,2021-08-05 17:21:43,635637
0,11,-5,-1,-2,-1,0,-2,2021-08-05 17:21:43,666708
-1,15,25,-1,-3,-1,-2,-1,2021-08-05 17:21:43,682691
-1,-12,-6,2,0,0,-1,-1,2021-08-05 17:21:43,682691
-4,-10,-12,-2,0,-2,-2,0,2021-08-05 17:21:43,682691
4,49,14,1,-2,0,-1,-2,2021-08-05 17:21:43,682691
1,17,31,4,1,0,1,1,2021-08-05 17:21:43,682691
2,40,14,4,2,1,0,2,2021-08-05 17:21:43,682691
12,-94,-65,-7,-1,2,4,5,2021-08-05 17:21:43,682691
-11,22,-14,-10,-2,-4,-2,-6,2021-08-05 17:21:43,698611
-18,19,-12,-13,-11,-9,-10,-12,2021-08-05 17:21:43,714576
3,25,20,2,-1,0,0,0,2021-08-05 17:21:43,714879
6,69,50,15,7,5,3,4,2021-08-05 17:21:43,730578
7,-45,1,9,5,3,4,6,2021-08-05 17:21:43,730578
6,-32,-1,5,0,0,2,3,2021-08-05 17:21:43,730578
-6,-43,-35,-4,-3,-2,-1,-4,2021-08-05 17:21:43,730948
-11,7,-9,-19,-7,-6,-6,-10,2021-08-05 17:21:43,730948
-5,-29,-18,-10,-9,-7,-6,-5,2021-08-05 17:21:43,730948
5,41,5,2,5,6,3,4,2021-08-05 17:21:43,730948
-1,4,32,6,-2,-1,-5,-2,2021-08-05 17:21:43,746743
3,-18,-15,7,4,5,6,9,2021-08-05 17:21:43,746743
-5,35,28,4,-2,-4,-5,-6,2021-08-05 17:21:43,761675
7,-12,-43,-4,2,4,5,6,2021-08-05 17:21:43,761826
-4,-76,-31,-9,-1,1,3,0,2021-08-05 17:21:43,761826
-10,32,12,-7,-9,-7,-6,-9,2021-08-05 17:21:43,761826
-2,-1,20,2,0,-2,-2,-3,2021-08-05 17:21:43,792628
9,17,3,6,2,1,2,4,2021-08-05 17:21:43,792628
1,-3,-16,-1,0,-1,2,-2,2021-08-05 17:21:43,792628
7,10,22,3,2,1,0,2,2021-08-05 17:21:43,792628
-7,29,-3,-4,-3,-4,-1,-1,2021-08-05 17:21:43,808716
-10,-59,-12,-6,-1,-3,-3,-6,2021-08-05 17:21:43,808716
9,79,28,2,-2,0,1,1,2021-08-05 17:21:43,808716
-13,-54,-13,3,4,3,2,2,2021-08-05 17:21:43,808716
15,-37,-39,5,5,3,4,3,2021-08-05 17:21:43,824578
-17,11,-2,-10,-7,-5,-5,-10,2021-08-05 17:21:43,824578
-5,0,4,-12,-10,-9,-7,-8,2021-08-05 17:21:43,824912
7,39,25,0,-4,-2,-3,-1,2021-08-05 17:21:43,824912
6,1,4,9,8,8,6,9,2021-08-05 17:21:43,839752
3,44,16,5,2,2,4,6,2021-08-05 17:21:43,839752
-6,-92,-21,-2,-2,-1,-3,-2,2021-08-05 17:21:43,839752
-2,9,-8,1,2,-1,1,0,2021-08-05 17:21:43,839752
-4,12,-2,-10,-10,-6,-7,-5,2021-08-05 17:21:43,854574
-2,-21,12,0,-2,-3,-4,-4,2021-08-05 17:21:43,854574
-3,44,-9,5,6,2,4,3,2021-08-05 17:21:43,861575
6,-10,12,4,4,4,3,5,2021-08-05 17:21:43,861575
1,-47,4,6,5,6,4,2,2021-08-05 17:21:43,885576
2,11,-15,-4,-10,-7,-6,-6,2021-08-05 17:21:43,900576
-14,10,-3,-9,0,1,0,-2,2021-08-05 17:21:43,900697
-7,-55,-27,-18,-7,-6,-5,-6,2021-08-05 17:21:43,900697
-1,53,16,-3,-4,-3,-4,-5,2021-08-05 17:21:43,916574
5,-47,-5,1,2,-1,0,-1,2021-08-05 17:21:43,916574
10,7,0,8,5,5,5,10,2021-08-05 17:21:43,916574
-4,20,0,-1,-7,-5,-5,-6,2021-08-05 17:21:43,916574
3,12,11,-2,-3,-1,0,2,2021-08-05 17:21:43,916574
-2,15,23,8,9,4,4,2,2021-08-05 17:21:43,916574
-3,-41,-26,0,-3,-2,-1,-2,2021-08-05 17:21:43,932577
-2,19,-5,-2,0,0,-1,-2,2021-08-05 17:21:43,948701
0,-17,-8,-6,-1,-1,-1,-3,2021-08-05 17:21:43,948701
-3,18,-7,-2,-5,-3,-3,-5,2021-08-05 17:21:43,948701
3,-3,11,0,1,2,0,3,2021-08-05 17:21:43,948701
3,27,23,8,3,1,1,2,2021-08-05 17:21:43,948701
-4,-47,-12,3,2,-2,0,-2,2021-08-05 17:21:43,964577
2,-1,-35,-2,1,2,2,3,2021-08-05 17:21:43,979576
3,-10,8,-8,-7,-6,-7,-5,2021-08-05 17:21:43,979576
-10,36,8,1,1,-2,-2,2,2021-08-05 17:21:43,979576
11,17,13,3,0,0,0,1,2021-08-05 17:21:43,980127
2,-50,-8,-6,-1,1,1,-1,2021-08-05 17:21:43,994682
-12,27,3,5,1,1,1,0,2021-08-05 17:21:43,994682
-8,-42,-14,-1,-3,-2,-3,-5,2021-08-05 17:21:43,994682
1,-3,4,-4,-2,-3,-2,1,2021-08-05 17:21:43,994682
4,51,24,6,3,1,0,0,2021-08-05 17:21:43,994682
10,11,4,-2,-2,0,0,2,2021-08-05 17:21:43,994682
1,-26,-24,3,3,1,4,3,2021-08-05 17:21:43,994682
-14,-9,-15,-4,0,-2,-1,-1,2021-08-05 17:21:44,025711
-1,-44,-2,-4,-4,-3,-3,-2,2021-08-05 17:21:44,041723
-1,58,8,-3,-4,-4,-4,-2,2021-08-05 17:21:44,041810
-1,9,11,-2,-5,-4,-3,-5,2021-08-05 17:21:44,041810
3,-13,-8,-1,-1,2,1,4,2021-08-05 17:21:44,041810
-4,29,13,3,-1,-1,-3,-2,2021-08-05 17:21:44,041810
-2,-18,-1,2,0,-1,0,-2,2021-08-05 17:21:44,041810
5,-2,-3,5,2,2,1,2,2021-08-05 17:21:44,041810
-6,-2,-6,-6,-7,-5,-4,-5,2021-08-05 17:21:44,072630
2,-1,1,2,1,0,2,4,2021-08-05 17:21:44,088640
-3,-2,4,-2,-1,-1,-1,-4,2021-08-05 17:21:44,088807
3,-18,-4,-4,-2,-1,0,0,2021-08-05 17:21:44,088807
1,31,10,-1,1,0,2,1,2021-08-05 17:21:44,088807
1,13,11,5,1,2,2,3,2021-08-05 17:21:44,088807
3,-34,-15,3,6,6,5,4,2021-08-05 17:21:44,088807
-17,-29,-31,-6,-1,0,-2,-7,2021-08-05 17:21:44,088807
-8,1,2,-3,-4,-6,-6,-11,2021-08-05 17:21:44,088807
-2,-22,-3,-7,-8,-8,-10,-10,2021-08-05 17:21:44,088807
7,27,15,-2,-5,-6,-5,0,2021-08-05 17:21:44,104696
9,14,23,8,6,2,2,7,2021-08-05 17:21:44,104793
1,15,-5,2,3,4,3,6,2021-08-05 17:21:44,120708
-5,-26,-23,-5,1,0,1,0,2021-08-05 17:21:44,135617
4,0,21,1,1,-1,0,0,2021-08-05 17:21:44,150645
-11,-15,-4,-3,-4,-5,-1,-6,2021-08-05 17:21:44,150645
6,-16,-20,-2,0,1,0,0,2021-08-05 17:21:44,150645
-18,1,-5,-2,-3,1,0,-2,2021-08-05 17:21:44,150645
-3,-19,-17,-8,-3,-1,-4,-5,2021-08-05 17:21:44,150645
8,51,20,0,-3,0,0,2,2021-08-05 17:21:44,150645
3,16,26,2,-3,-4,-4,-3,2021-08-05 17:21:44,166701
1,-43,-32,1,6,3,3,1,2021-08-05 17:21:44,166839
1,9,-9,2,3,3,4,3,2021-08-05 17:21:44,166839
1,0,8,-5,-6,-6,-5,-4,2021-08-05 17:21:44,166839
-3,8,12,3,0,1,-1,1,2021-08-05 17:21:44,182679
5,10,-4,-1,-2,-2,-2,0,2021-08-05 17:21:44,184610
-10,-33,-11,-7,-4,-5,-4,-6,2021-08-05 17:21:44,185577
-7,1,-15,0,0,0,1,2,2021-08-05 17:21:44,185577
7,87,9,-3,-2,0,2,-1,2021-08-05 17:21:44,213713
-6,-72,17,10,6,2,0,-1,2021-08-05 17:21:44,228576
4,-31,-17,-2,-3,-3,-2,-2,2021-08-05 17:21:44,244709
2,16,-6,-7,-3,-2,-3,-1,2021-08-05 17:21:44,244842
-6,11,12,-1,-2,-1,-2,-2,2021-08-05 17:21:44,244842
9,35,9,2,1,0,1,2,2021-08-05 17:21:44,244842
-1,-4,-18,2,1,2,0,0,2021-08-05 17:21:44,244842
-2,-6,14,4,-1,0,-1,-2,2021-08-05 17:21:44,244842
-5,-28,-14,-1,0,2,1,1,2021-08-05 17:21:44,245576
0,7,0,-4,-5,-4,-3,-3,2021-08-05 17:21:44,245576
-6,8,27,2,-3,-2,-3,-3,2021-08-05 17:21:44,245576
9,78,-13,1,4,0,1,2,2021-08-05 17:21:44,245576
-1,-116,-17,2,1,1,0,1,2021-08-05 17:21:44,260577
0,26,1,-4,-6,-2,-3,-3,2021-08-05 17:21:44,260765
-13,16,-9,-9,-7,-7,-5,-5,2021-08-05 17:21:44,260765
7,49,17,-2,-3,-3,-4,-5,2021-08-05 17:21:44,260765
-4,-51,-7,4,7,4,3,5,2021-08-05 17:21:44,305628
2,-26,1,-2,-2,0,0,-3,2021-08-05 17:21:44,320654
3,32,-9,-3,1,1,0,3,2021-08-05 17:21:44,335691
3,-27,-8,-3,-1,-1,-3,-4,2021-08-05 17:21:44,335691
-19,24,5,-2,-3,-4,-4,-5,2021-08-05 17:21:44,335814
6,42,1,-3,-3,-1,0,2,2021-08-05 17:21:44,335814
0,-63,4,4,4,2,1,-1,2021-08-05 17:21:44,335814
5,0,4,0,0,-1,1,-1,2021-08-05 17:21:44,335814
-3,16,-5,-1,-3,-1,-1,-3,2021-08-05 17:21:44,335814
-6,3,-4,-6,-5,-5,-4,-5,2021-08-05 17:21:44,335814
1,73,22,0,-2,-2,1,2,2021-08-05 17:21:44,335814
-9,-95,-10,1,1,2,1,1,2021-08-05 17:21:44,335814
13,-10,-29,1,4,1,2,4,2021-08-05 17:21:44,350610
-2,13,8,-5,-8,-6,-5,-5,2021-08-05 17:21:44,350610
-7,7,9,0,-1,1,-1,0,2021-08-05 17:21:44,350610
0,4,6,-1,-1,0,1,1,2021-08-05 17:21:44,350610
2,46,-7,1,1,1,2,3,2021-08-05 17:21:44,366735
5,-31,-7,1,4,2,2,5,2021-08-05 17:21:44,366735
-7,10,-1,-5,-4,-6,-5,-7,2021-08-05 17:21:44,366735
-3,-47,-1,-1,-1,2,-1,7,2021-08-05 17:21:44,366735
5,18,-5,-2,3,3,-1,-2,2021-08-05 17:21:44,381959
6,10,15,4,2,4,0,4,2021-08-05 17:21:44,382083
-4,-20,-19,-2,-6,-7,-6,-7,2021-08-05 17:21:44,397676
-7,13,12,2,1,2,2,1,2021-08-05 17:21:44,397676
4,-8,-15,-4,-1,-1,-2,1,2021-08-05 17:21:44,397676
-4,-36,6,1,-1,-1,-1,-1,2021-08-05 17:21:44,397676
-3,-2,-1,-5,-3,-1,-2,-5,2021-08-05 17:21:44,413576
2,19,7,2,-1,0,0,0,2021-08-05 17:21:44,429781
-2,2,-1,4,5,2,1,1,2021-08-05 17:21:44,445628
-1,8,-7,-1,3,3,4,6,2021-08-05 17:21:44,461611
4,-14,0,-2,-2,0,1,-1,2021-08-05 17:21:44,461895
-3,20,2,-4,-5,-6,-5,-5,2021-08-05 17:21:44,461895
-6,2,11,-3,-5,-4,-5,-5,2021-08-05 17:21:44,461895
-8,-19,-31,-2,0,-1,2,-1,2021-08-05 17:21:44,461895
7,3,9,2,2,2,1,4,2021-08-05 17:21:44,461895
-4,1,-2,-5,-3,-3,-3,-3,2021-08-05 17:21:44,461895
4,3,32,6,1,-1,0,1,2021-08-05 17:21:44,462575
-2,9,-5,-1,0,-2,-2,-2,2021-08-05 17:21:44,462670
10,56,-8,1,4,4,3,5,2021-08-05 17:21:44,477763
-9,-45,-6,2,1,1,0,-3,2021-08-05 17:21:44,477763
-9,-34,-9,-6,-6,-4,-4,-5,2021-08-05 17:21:44,477763
0,15,-2,-4,-4,-2,-3,-4,2021-08-05 17:21:44,477763
-4,33,22,-3,-6,-6,-4,-3,2021-08-05 17:21:44,493575
7,-21,-23,-2,0,1,1,2,2021-08-05 17:21:44,502705
-1,18,-3,-4,-3,0,1,0,2021-08-05 17:21:44,502705
-2,-22,8,3,5,3,3,2,2021-08-05 17:21:44,502705
-2,-14,1,2,1,-1,-1,0,2021-08-05 17:21:44,503577
0,-21,-16,-6,-4,-4,-4,-3,2021-08-05 17:21:44,503577
-5,7,-2,-4,-3,-3,-1,-2,2021-08-05 17:21:44,524578
0,20,9,-2,-3,-3,-2,-2,2021-08-05 17:21:44,524578
-1,-18,-9,2,2,2,3,2,2021-08-05 17:21:44,524578
-1,14,6,-2,-3,-3,-3,-4,2021-08-05 17:21:44,524578
-1,-11,-2,-2,-2,-2,-1,-1,2021-08-05 17:21:44,539576
-2,18,1,-6,-3,-2,0,0,2021-08-05 17:21:44,539739
1,-23,-5,2,-1,0,0,0,2021-08-05 17:21:44,539739
0,20,8,10,7,3,4,3,2021-08-05 17:21:44,539739
1,37,16,-2,-10,-6,-6,-4,2021-08-05 17:21:44,570698
-1,-53,-23,1,8,8,6,4,2021-08-05 17:21:44,585670
-9,-47,-17,-3,0,-3,-1,-1,2021-08-05 17:21:44,585670
2,16,-3,-4,-2,-5,-4,-3,2021-08-05 17:21:44,585670
0,1,24,-1,-4,-6,-6,-7,2021-08-05 17:21:44,585670
8,5,-18,3,3,4,3,2,2021-08-05 17:21:44,585670
-6,-12,-11,-4,-2,-1,-1,-1,2021-08-05 17:21:44,585670
-3,15,12,1,-2,-2,-2,-1,2021-08-05 17:21:44,585670
4,34,15,2,0,0,1,2,2021-08-05 17:21:44,600574
-2,-13,-8,2,-1,0,1,4,2021-08-05 17:21:44,600574
4,-20,-12,-4,-2,-3,-2,-3,2021-08-05 17:21:44,600574
0,-9,-3,4,4,5,2,2,2021-08-05 17:21:44,600574
-9,-26,-1,-5,-2,-3,-2,-2,2021-08-05 17:21:44,631677
0,9,16,0,-4,-4,-4,-5,2021-08-05 17:21:44,631677
9,27,-3,6,6,4,5,6,2021-08-05 17:21:44,631677
2,-19,-17,-8,-5,-4,-3,-2,2021-08-05 17:21:44,631677
-16,7,-12,-5,0,1,-1,-4,2021-08-05 17:21:44,647688
-5,-2,-7,-2,-1,-2,-4,-2,2021-08-05 17:21:44,647688
5,-11,15,-1,-3,-2,-4,-4,2021-08-05 17:21:44,647688
5,61,34,8,1,3,2,0,2021-08-05 17:21:44,647688
2,-115,-51,2,3,3,5,4,2021-08-05 17:21:44,663789
-10,46,2,-6,-5,-4,-5,-5,2021-08-05 17:21:44,663789
-2,-24,20,-2,-5,-4,-6,-5,2021-08-05 17:21:44,663789
0,23,-10,-3,-1,-4,-2,0,2021-08-05 17:21:44,663789
8,4,6,2,4,3,2,3,2021-08-05 17:21:44,695684
-3,-15,-12,-1,-3,-4,-4,-3,2021-08-05 17:21:44,711171
-3,17,-8,-4,-4,-1,-1,-4,2021-08-05 17:21:44,711171
-2,32,24,2,2,1,-1,1,2021-08-05 17:21:44,711171
0,-38,-5,1,4,3,0,0,2021-08-05 17:21:44,711171
-1,-1,-3,-3,-2,-3,-2,-1,2021-08-05 17:21:44,726610
4,13,-4,1,3,4,2,4,2021-08-05 17:21:44,757757
-3,-34,-5,-5,-6,-4,-3,-3,2021-08-05 17:21:44,757757
3,111,29,5,2,-1,4,3,2021-08-05 17:21:44,773611
8,-78,-7,3,4,4,4,0,2021-08-05 17:21:44,773767
-6,-12,-25,-9,-4,-2,-1,-1,2021-08-05 17:21:44,773767
-11,-25,-14,-7,-6,-5,-5,-6,2021-08-05 17:21:44,773767
3,30,6,0,-1,-1,-4,-5,2021-08-05 17:21:44,773767
3,9,20,2,4,1,3,1,2021-08-05 17:21:44,773767
4,45,34,7,5,1,2,4,2021-08-05 17:21:44,773767
-1,-52,-31,-2,-1,-1,2,1,2021-08-05 17:21:44,773767
6,-9,3,-1,0,0,1,3,2021-08-05 17:21:44,773767
7,10,1,1,-1,-1,-2,-1,2021-08-05 17:21:44,773767
-27,-31,-25,-5,-4,-3,-3,-5,2021-08-05 17:21:44,774612
1,13,9,-1,-2,1,-2,-2,2021-08-05 17:21:44,774612
-4,6,-4,-2,-1,-2,-3,-2,2021-08-05 17:21:44,774612
0,35,15,-2,-3,-1,-1,-1,2021-08-05 17:21:44,774612
9,-53,5,5,5,3,3,5,2021-08-05 17:21:44,789576
-1,4,-25,-4,-1,-3,-1,1,2021-08-05 17:21:44,789576
-2,-21,-5,-6,-5,-5,-3,-2,2021-08-05 17:21:44,805692
0,59,11,-3,-3,-3,-3,-4,2021-08-05 17:21:44,820650
-1,-14,12,4,5,2,2,1,2021-08-05 17:21:44,827735
2,-13,-15,-1,3,2,3,3,2021-08-05 17:21:44,827735
-9,7,-15,-6,-5,-5,-4,-7,2021-08-05 17:21:44,828576
-5,-36,1,-5,-5,-3,-3,0,2021-08-05 17:21:44,828576
4,18,22,4,0,0,0,0,2021-08-05 17:21:44,828576
0,0,-9,-1,0,0,-1,-4,2021-08-05 17:21:44,828576
-1,-46,-24,-6,-3,-3,-2,-2,2021-08-05 17:21:44,835577
-7,17,-1,-7,-5,-6,-4,-3,2021-08-05 17:21:44,835735
1,16,6,1,1,-1,-2,-2,2021-08-05 17:21:44,850651
1,25,15,5,1,2,2,4,2021-08-05 17:21:44,850765
0,-8,6,4,4,8,3,1,2021-08-05 17:21:44,865717
-5,5,-2,1,0,0,0,-4,2021-08-05 17:21:44,880667
6,52,-13,-3,-3,-4,-4,-3,2021-08-05 17:21:44,880667
7,-21,25,3,-3,-2,-3,-2,2021-08-05 17:21:44,880667
-6,-44,2,5,4,1,3,6,2021-08-05 17:21:44,880890
-7,-12,-17,-1,-1,0,-1,-2,2021-08-05 17:21:44,880890
-1,0,-16,-8,-6,-5,-3,-2,2021-08-05 17:21:44,880890
5,49,9,-4,-2,-1,-2,-1,2021-08-05 17:21:44,880890
4,-15,9,-1,0,0,0,1,2021-08-05 17:21:44,911648
19,1,-21,2,2,1,2,1,2021-08-05 17:21:44,927576
-50,-45,-4,-10,-8,-6,-4,-8,2021-08-05 17:21:44,942630
10,30,10,6,6,2,0,1,2021-08-05 17:21:44,942630
4,-5,5,-1,-3,-4,-2,0,2021-08-05 17:21:44,942630
4,-27,-17,4,6,7,2,6,2021-08-05 17:21:44,942630
9,31,9,-1,-5,-3,-3,-3,2021-08-05 17:21:44,942630
-7,-16,11,-2,-2,-1,-1,-2,2021-08-05 17:21:44,942630
4,31,-10,3,0,1,1,1,2021-08-05 17:21:44,943430
-5,-1,-2,-4,-4,-3,-1,-4,2021-08-05 17:21:44,943430
3,-22,-5,-1,-1,0,-1,-1,2021-08-05 17:21:44,943576
-6,20,10,3,1,0,0,-1,2021-08-05 17:21:44,943576
4,-34,-7,-2,0,0,-1,0,2021-08-05 17:21:44,958691
-10,-12,-5,-4,-2,-4,0,0,2021-08-05 17:21:44,974575
5,25,12,3,-3,0,-1,-1,2021-08-05 17:21:44,974575
-1,-5,6,0,1,-1,-1,0,2021-08-05 17:21:44,974575
-1,13,-5,-2,0,-1,-1,-3,2021-08-05 17:21:44,990639
-2,-16,-9,-3,2,1,0,1,2021-08-05 17:21:45,006577
0,-33,-5,-3,-2,-3,-3,-2,2021-08-05 17:21:45,022613
-5,0,5,1,-1,-1,-2,-2,2021-08-05 17:21:45,022613
5,105,8,3,-1,0,1,1,2021-08-05 17:21:45,022613
-1,-84,10,-4,-4,-3,-4,-2,2021-08-05 17:21:45,022613
5,-8,-40,4,4,2,2,1,2021-08-05 17:21:45,022613
-14,11,-4,-4,-3,-3,-3,-3,2021-08-05 17:21:45,022613
-2,-16,11,-3,-5,-3,-6,-5,2021-08-05 17:21:45,022613
3,94,43,8,0,-1,0,0,2021-08-05 17:21:45,023609
7,-60,-16,-1,1,1,1,2,2021-08-05 17:21:45,023609
-3,-29,-30,-4,-1,0,2,0,2021-08-05 17:21:45,023609
-6,-8,-1,-2,-1,-2,-2,0,2021-08-05 17:21:45,052627
-2,45,1,-3,-5,-3,-5,-4,2021-08-05 17:21:45,052627
5,11,35,5,3,2,0,3,2021-08-05 17:21:45,052816
7,-59,-35,-1,0,0,-1,-2,2021-08-05 17:21:45,052911
-29,-18,-21,-8,-3,-3,-1,-1,2021-08-05 17:21:45,083627
4,32,22,3,0,-2,-2,-1,2021-08-05 17:21:45,099612
2,39,14,1,0,-1,0,0,2021-08-05 17:21:45,099612
10,-7,-9,3,3,2,2,4,2021-08-05 17:21:45,099857
8,16,-8,-4,-4,-3,0,-2,2021-08-05 17:21:45,099857
-1,-21,-4,-2,-2,1,-1,1,2021-08-05 17:21:45,099857
-16,-6,18,-2,-4,-3,-1,-2,2021-08-05 17:21:45,099857
-5,-56,-28,-1,2,1,-1,-2,2021-08-05 17:21:45,099857
5,23,-7,-4,-3,-2,-4,-4,2021-08-05 17:21:45,099857
-10,-16,-4,-4,-5,-5,-3,-4,2021-08-05 17:21:45,099857
12,55,11,6,5,5,3,3,2021-08-05 17:21:45,115620
-5,-13,0,-5,-8,-6,-6,-4,2021-08-05 17:21:45,131578
-1,-28,-6,-1,0,0,0,0,2021-08-05 17:21:45,142728
5,63,7,-1,0,2,1,4,2021-08-05 17:21:45,142728
-2,-45,-3,2,-1,0,-2,-1,2021-08-05 17:21:45,142728
-8,13,7,0,0,-1,0,0,2021-08-05 17:21:45,142728
9,43,19,11,8,6,5,4,2021-08-05 17:21:45,142728
-5,-97,-13,-1,-1,-1,0,-1,2021-08-05 17:21:45,142728
-4,7,-22,-2,-1,-2,0,-1,2021-08-05 17:21:45,143577
1,13,-3,-10,-10,-8,-6,-6,2021-08-05 17:21:45,143577
2,-5,34,0,-8,-7,-7,-3,2021-08-05 17:21:45,163690
8,89,2,0,0,1,2,4,2021-08-05 17:21:45,178777
3,-90,-56,-7,-1,1,1,1,2021-08-05 17:21:45,178777
-24,21,-6,-3,2,2,2,-2,2021-08-05 17:21:45,179032
3,-6,18,2,0,-2,-1,-2,2021-08-05 17:21:45,179032
-2,32,18,4,3,0,-1,0,2021-08-05 17:21:45,179032
9,25,32,4,1,-1,0,2,2021-08-05 17:21:45,179032
5,17,-8,3,3,1,4,4,2021-08-05 17:21:45,179032
-2,-55,-26,0,2,3,2,1,2021-08-05 17:21:45,208662
-10,-56,-21,-6,-2,-2,-3,-3,2021-08-05 17:21:45,223930
8,105,74,2,-5,-4,-2,-1,2021-08-05 17:21:45,239324
7,-121,-55,2,-2,-1,-1,-1,2021-08-05 17:21:45,239534
-29,-11,-59,-17,-3,0,-1,-6,2021-08-05 17:21:45,239590
-18,18,19,-11,-12,-9,-11,-12,2021-08-05 17:21:45,239590
5,-10,-14,0,3,0,0,1,2021-08-05 17:21:45,239751
11,127,72,11,2,2,1,6,2021-08-05 17:21:45,239751
20,-82,-2,9,6,5,5,6,2021-08-05 17:21:45,239751
-10,-38,-37,2,5,5,4,1,2021-08-05 17:21:45,239751
-14,42,0,-12,-11,-8,-9,-8,2021-08-05 17:21:45,239751
8,6,14,3,1,1,1,2,2021-08-05 17:21:45,239751
3,25,14,-1,-6,-4,-3,-2,2021-08-05 17:21:45,270646
-5,-22,10,5,3,2,3,3,2021-08-05 17:21:45,270803
-5,-53,-57,-4,1,1,-1,-2,2021-08-05 17:21:45,270803
-1,8,-1,-11,-10,-8,-5,-6,2021-08-05 17:21:45,270803
-1,5,6,0,0,0,1,0,2021-08-05 17:21:45,286604
2,55,17,-1,-3,-6,-3,-2,2021-08-05 17:21:45,286604
-3,-16,20,7,6,1,1,-1,2021-08-05 17:21:45,286604
4,-29,13,6,6,4,5,5,2021-08-05 17:21:45,286604
-10,-28,-50,-7,-5,-4,-4,-3,2021-08-05 17:21:45,302558
15,23,-10,-5,-1,1,0,0,2021-08-05 17:21:45,302558
-21,-5,2,-2,-2,-3,-3,-4,2021-08-05 17:21:45,302558
0,35,20,-2,-3,0,-3,-3,2021-08-05 17:21:45,302765
1,0,23,1,-3,-3,-4,0,2021-08-05 17:21:45,332549
19,1,-18,4,4,4,4,5,2021-08-05 17:21:45,347838
-11,-51,-27,-5,-4,-3,-2,-3,2021-08-05 17:21:45,363483
-2,20,18,-1,0,-1,-4,-4,2021-08-05 17:21:45,363677
2,43,11,0,-1,-3,0,-2,2021-08-05 17:21:45,363770
-4,-75,-20,-1,3,-1,2,2,2021-08-05 17:21:45,363827
8,27,2,1,1,3,3,0,2021-08-05 17:21:45,363827
-6,2,3,-6,-7,-5,-6,-5,2021-08-05 17:21:45,363827
1,-22,-21,-8,-1,-1,-1,-3,2021-08-05 17:21:45,363827
-14,24,26,5,-3,-3,-4,-5,2021-08-05 17:21:45,363827
6,13,-3,0,3,1,4,5,2021-08-05 17:21:45,378484
8,6,-8,2,2,2,3,5,2021-08-05 17:21:45,394483
-5,-23,20,5,1,2,1,0,2021-08-05 17:21:45,394483
-2,10,-10,1,-1,1,1,-2,2021-08-05 17:21:45,394483
-2,-31,-25,-5,-4,-4,-4,-2,2021-08-05 17:21:45,394483
-2,-14,-7,-7,-6,-5,-4,-3,2021-08-05 17:21:45,394483
1,66,18,-3,-2,-3,-5,-5,2021-08-05 17:21:45,394483
2,-29,-19,-3,1,0,0,1,2021-08-05 17:21:45,394483
5,-7,30,6,2,1,1,3,2021-08-05 17:21:45,410578
-1,-41,-37,-7,-2,-1,0,-2,2021-08-05 17:21:45,426574
-18,19,11,-5,-6,-4,-4,-4,2021-08-05 17:21:45,426574
3,-20,-3,0,0,-1,-4,-2,2021-08-05 17:21:45,426744
5,61,5,-4,-3,-1,-2,-1,2021-08-05 17:21:45,426744
3,6,31,7,5,3,2,3,2021-08-05 17:21:45,426744
10,18,-27,0,0,0,3,4,2021-08-05 17:21:45,456484
-20,-53,4,-7,-7,-6,-4,-4,2021-08-05 17:21:45,468483
1,-3,-13,-5,-6,-5,-4,-4,2021-08-05 17:21:45,469485
8,57,7,1,2,2,4,5,2021-08-05 17:21:45,469485
-2,-35,5,0,-2,0,-2,-1,2021-08-05 17:21:45,469485
12,29,1,5,4,1,3,3,2021-08-05 17:21:45,469485
-1,-5,-5,1,2,1,2,1,2021-08-05 17:21:45,469485
-17,-27,-18,-7,-7,-6,-6,-7,2021-08-05 17:21:45,469485
11,15,-7,5,7,6,4,5,2021-08-05 17:21:45,487719
1,6,19,-2,-5,-5,-6,-5,2021-08-05 17:21:45,503605
1,18,10,0,2,1,1,1,2021-08-05 17:21:45,519626
-2,4,-13,2,1,-1,2,1,2021-08-05 17:21:45,519626
1,14,-3,-2,-4,-3,-3,-3,2021-08-05 17:21:45,519626
-17,-77,3,2,1,2,1,-2,2021-08-05 17:21:45,519626
3,2,-30,-6,-4,-4,-1,-4,2021-08-05 17:21:45,519626
-1,21,19,-1,-4,-3,-4,-2,2021-08-05 17:21:45,519626
7,26,7,2,3,1,3,2,2021-08-05 17:21:45,519626
1,12,3,1,-1,-1,-1,0,2021-08-05 17:21:45,520527
0,-8,12,4,3,4,2,4,2021-08-05 17:21:45,535485
-8,-52,-13,-4,-3,-3,-1,-4,2021-08-05 17:21:45,535696
0,27,-11,-2,1,1,-1,0,2021-08-05 17:21:45,550484
0,-15,0,-5,-6,-3,-3,0,2021-08-05 17:21:45,565484
-5,2,1,-3,-4,-2,-4,-6,2021-08-05 17:21:45,565484
16,17,6,0,2,2,2,4,2021-08-05 17:21:45,565484
-11,-17,-7,-1,-1,-1,1,2,2021-08-05 17:21:45,565484
-9,6,-1,-3,1,1,1,-3,2021-08-05 17:21:45,565484
-4,-51,-16,1,2,3,2,-1,2021-08-05 17:21:45,565484
-11,-19,3,-6,-7,-6,-5,-6,2021-08-05 17:21:45,565484
1,7,0,1,-3,-3,-4,-7,2021-08-05 17:21:45,581538
28,48,34,8,7,7,9,9,2021-08-05 17:21:45,581824
-6,-20,-46,0,1,-2,-1,-2,2021-08-05 17:21:45,597542
-27,-10,7,-9,-10,-7,-9,-13,2021-08-05 17:21:45,597762
9,3,5,1,0,-1,-1,2,2021-08-05 17:21:45,597762
3,47,-13,-4,-7,-5,-3,-2,2021-08-05 17:21:45,597762
7,-12,17,1,-1,3,1,1,2021-08-05 17:21:45,613515
-3,-44,-18,3,3,3,2,1,2021-08-05 17:21:45,613728
2,17,22,4,5,6,5,7,2021-08-05 17:21:45,629587
2,-4,-17,-1,1,-1,2,0,2021-08-05 17:21:45,645541
-2,8,11,-1,-1,-1,1,1,2021-08-05 17:21:45,645541
0,2,-4,-3,-4,-2,-2,-2,2021-08-05 17:21:45,645541
-15,-41,-25,-10,-7,-6,-6,-10,2021-08-05 17:21:45,645541
5,19,11,0,-1,-2,-2,0,2021-08-05 17:21:45,645541
1,10,1,-3,-2,-2,-1,1,2021-08-05 17:21:45,645541
3,67,22,11,11,8,7,6,2021-08-05 17:21:45,645541
1,-76,-12,2,-1,1,1,0,2021-08-05 17:21:45,676537
-9,3,-18,-4,-3,-2,-1,-4,2021-08-05 17:21:45,676537
-8,7,8,-4,-4,-6,-3,-5,2021-08-05 17:21:45,676537
10,45,6,3,4,3,4,5,2021-08-05 17:21:45,676537
3,-31,17,3,0,0,2,0,2021-08-05 17:21:45,691992
-5,-27,-48,-6,-1,0,1,-1,2021-08-05 17:21:45,707415
-4,18,23,2,-2,-5,-4,-1,2021-08-05 17:21:45,722829
2,-5,-10,-7,-7,-8,-7,-7,2021-08-05 17:21:45,723044
-2,27,6,2,-1,0,0,-1,2021-08-05 17:21:45,723044
6,-5,34,5,3,3,1,5,2021-08-05 17:21:45,723044
0,-31,-35,-1,0,0,-2,0,2021-08-05 17:21:45,723044
11,-8,6,-4,-2,0,1,2,2021-08-05 17:21:45,723044
-8,-16,-36,-7,-5,-2,-4,-5,2021-08-05 17:21:45,723044
-25,26,22,-5,-8,-5,-8,-9,2021-08-05 17:21:45,723044
3,15,21,5,2,1,2,0,2021-08-05 17:21:45,723044
3,-45,-21,0,2,-1,-1,2,2021-08-05 17:21:45,723044
1,14,7,-3,-3,-2,-2,-2,2021-08-05 17:21:45,754044
9,45,0,0,-3,-6,-5,-2,2021-08-05 17:21:45,770092
-2,-30,-2,-1,2,3,1,2,2021-08-05 17:21:45,786043
-4,-10,-6,2,4,2,2,2,2021-08-05 17:21:45,786043
6,13,9,0,1,-1,0,0,2021-08-05 17:21:45,786043
-8,1,-7,-4,-2,-4,-4,-4,2021-08-05 17:21:45,786043
3,47,18,0,-3,0,1,1,2021-08-05 17:21:45,786043
-2,-85,-1,2,-1,0,-1,-1,2021-08-05 17:21:45,786043
-5,-12,-38,-4,1,2,2,3,2021-08-05 17:21:45,786043
-2,20,9,-2,-5,-5,-6,-6,2021-08-05 17:21:45,786043
3,17,8,-4,-3,-1,-4,0,2021-08-05 17:21:45,787092
-5,31,-1,2,0,2,1,1,2021-08-05 17:21:45,787230
4,75,27,3,-1,-2,0,-1,2021-08-05 17:21:45,802042
-3,-115,-10,3,-1,1,2,-1,2021-08-05 17:21:45,802042
7,49,-9,-3,-2,-1,0,0,2021-08-05 17:21:45,802042
-19,-43,-22,-6,-3,-2,-3,-3,2021-08-05 17:21:45,802042
