EMG 1,EMG 2,EMG 3,EMG 4,EMG 5,EMG 6,EMG 7,EMG 8,Timestamp,Milliseconds
2,6,-3,-5,-6,-4,-2,-4,2021-08-05 17:21:56,310056
0,10,3,-1,3,2,1,1,2021-08-05 17:21:56,310056
1,6,4,4,4,2,0,1,2021-08-05 17:21:56,310056
1,42,7,3,0,0,0,-1,2021-08-05 17:21:56,310056
-3,-45,-3,-1,2,1,-1,2,2021-08-05 17:21:56,310056
-1,6,-2,-2,-4,-2,-2,-2,2021-08-05 17:21:56,310056
-2,-9,-3,-6,-4,-5,-5,-1,2021-08-05 17:21:56,310056
0,3,-3,1,5,3,2,1,2021-08-05 17:21:56,326175
0,10,5,2,0,-2,-1,-2,2021-08-05 17:21:56,326265
-3,-13,-2,-3,-5,-3,-1,-1,2021-08-05 17:21:56,326265
2,8,4,-1,3,0,1,3,2021-08-05 17:21:56,326377
1,-13,-7,-2,-4,-3,-3,-2,2021-08-05 17:21:56,326377
0,2,-4,-5,-2,-2,-1,-1,2021-08-05 17:21:56,326377
-1,-11,-4,1,1,-1,-1,-2,2021-08-05 17:21:56,326377
0,20,5,3,-2,0,0,-1,2021-08-05 17:21:56,342146
-4,-21,3,-1,-2,-4,-1,-1,2021-08-05 17:21:56,342146
-1,7,7,2,2,1,-1,-1,2021-08-05 17:21:56,342146
2,47,-9,-1,-2,-2,-2,-1,2021-08-05 17:21:56,342146
-3,-70,-6,1,-2,0,2,-1,2021-08-05 17:21:56,358055
-4,-18,3,1,-1,1,-2,-1,2021-08-05 17:21:56,358302
-1,14,-7,-1,0,2,0,-1,2021-08-05 17:21:56,374023
0,5,10,-2,-2,-1,-1,0,2021-08-05 17:21:56,385059
2,36,5,-3,-4,-3,-1,-2,2021-08-05 17:21:56,385059
-2,-39,-19,1,0,0,0,0,2021-08-05 17:21:56,385059
-2,-2,-5,-2,1,1,0,0,2021-08-05 17:21:56,421023
0,-2,2,3,1,-1,0,0,2021-08-05 17:21:56,421023
-3,2,1,-6,-4,-4,-2,-3,2021-08-05 17:21:56,421023
2,-1,0,4,2,0,2,2,2021-08-05 17:21:56,421023
-3,8,14,-3,-3,-4,-2,-3,2021-08-05 17:21:56,421023
3,94,29,5,3,2,0,1,2021-08-05 17:21:56,421023
1,-69,-36,-2,1,0,0,1,2021-08-05 17:21:56,421471
-13,-83,-10,-5,-5,-4,-2,-4,2021-08-05 17:21:56,421471
3,9,-13,-3,-3,-3,-3,-3,2021-08-05 17:21:56,437116
-1,58,30,0,-4,-3,-3,-4,2021-08-05 17:21:56,437116
-5,-17,-1,0,0,-1,-2,1,2021-08-05 17:21:56,437116
7,45,-6,-2,0,1,0,1,2021-08-05 17:21:56,437116
2,-6,-3,5,5,4,3,5,2021-08-05 17:21:56,453153
-1,-52,-6,0,1,-1,2,-1,2021-08-05 17:21:56,453153
1,22,8,0,1,1,-1,0,2021-08-05 17:21:56,469138
-1,3,-8,-5,-3,-2,-4,-3,2021-08-05 17:21:56,469138
1,3,2,-2,-3,-4,-4,-4,2021-08-05 17:21:56,469138
-1,-7,-10,-2,-3,-3,-1,-2,2021-08-05 17:21:56,469138
-2,0,-1,-1,-1,-1,0,0,2021-08-05 17:21:56,500561
0,7,10,7,7,4,3,3,2021-08-05 17:21:56,500561
-1,17,6,1,1,1,-1,-1,2021-08-05 17:21:56,500561
-1,-43,-33,-3,1,1,0,0,2021-08-05 17:21:56,500561
-4,5,10,-8,-11,-7,-6,-7,2021-08-05 17:21:56,516337
-3,-12,-8,-4,-2,0,-2,-2,2021-08-05 17:21:56,516337
-1,21,8,-1,0,1,0,1,2021-08-05 17:21:56,516337
-3,-67,-6,-1,-3,-1,-2,-2,2021-08-05 17:21:56,516337
1,50,17,5,4,3,2,1,2021-08-05 17:21:56,532337
5,4,-3,-1,-2,-4,-2,-4,2021-08-05 17:21:56,532337
-4,-48,-26,-2,1,-1,2,-1,2021-08-05 17:21:56,532337
-13,42,18,-6,-6,-5,-5,-2,2021-08-05 17:21:56,532337
8,40,0,4,5,3,1,-1,2021-08-05 17:21:56,564537
0,-62,1,-1,-5,-3,-3,0,2021-08-05 17:21:56,564537
1,-12,-1,-2,-3,-3,-2,-3,2021-08-05 17:21:56,564537
-5,2,-14,-1,1,1,2,0,2021-08-05 17:21:56,564537
-4,-3,18,0,1,-1,0,0,2021-08-05 17:21:56,564537
-1,17,2,0,2,1,2,0,2021-08-05 17:21:56,564537
4,4,-2,0,-2,-1,-1,-2,2021-08-05 17:21:56,580619
3,-8,2,-3,-1,-2,-1,0,2021-08-05 17:21:56,580619
1,-2,-4,5,0,1,0,1,2021-08-05 17:21:56,596449
-1,33,-4,-5,-3,-3,-2,-3,2021-08-05 17:21:56,596449
-2,-41,3,3,2,2,-1,0,2021-08-05 17:21:56,596449
6,8,3,-4,-4,-5,-2,-2,2021-08-05 17:21:56,596449
-10,-15,-21,-3,3,1,3,1,2021-08-05 17:21:56,627303
0,11,13,3,0,0,0,2,2021-08-05 17:21:56,627303
2,73,39,4,0,0,3,0,2021-08-05 17:21:56,627303
-1,-89,-60,0,1,5,2,1,2021-08-05 17:21:56,627303
0,-1,-5,-13,-13,-8,-7,-6,2021-08-05 17:21:56,627303
-5,-8,5,-5,-5,-3,-7,-4,2021-08-05 17:21:56,627303
-4,25,1,-4,-2,-1,-2,1,2021-08-05 17:21:56,642358
9,29,25,11,8,5,2,3,2021-08-05 17:21:56,642358
1,-19,2,3,4,0,1,0,2021-08-05 17:21:56,658359
-2,5,-17,-1,0,1,2,1,2021-08-05 17:21:56,658479
2,-6,1,-5,-7,-6,-2,-4,2021-08-05 17:21:56,658479
-3,-1,-5,-5,-4,-3,-3,-1,2021-08-05 17:21:56,658479
-10,38,-1,1,0,1,-1,-1,2021-08-05 17:21:56,674338
4,-12,42,6,1,-2,1,-2,2021-08-05 17:21:56,674581
-3,-76,-46,0,4,5,4,2,2021-08-05 17:21:56,674830
0,-5,-11,-9,-8,-4,-4,-5,2021-08-05 17:21:56,674830
2,9,12,-1,-3,-1,-4,-3,2021-08-05 17:21:56,690000
-1,31,8,2,4,1,1,0,2021-08-05 17:21:56,690302
3,4,-11,-4,-4,-1,-1,0,2021-08-05 17:21:56,690302
2,11,4,2,1,-1,-1,0,2021-08-05 17:21:56,690640
-4,-26,0,0,-3,0,-1,0,2021-08-05 17:21:56,721298
0,40,2,-1,-2,0,0,0,2021-08-05 17:21:56,721298
-12,-69,-27,-3,-1,-1,-1,-2,2021-08-05 17:21:56,721298
4,53,26,-3,-3,-4,-1,-3,2021-08-05 17:21:56,721298
6,-30,-14,1,-1,1,-1,1,2021-08-05 17:21:56,737132
1,-6,-12,-2,0,-1,0,-2,2021-08-05 17:21:56,737132
-3,26,15,1,-2,-2,-2,-1,2021-08-05 17:21:56,737132
-4,-12,-1,-3,-3,-4,-3,-2,2021-08-05 17:21:56,737132
5,53,19,1,0,-1,0,3,2021-08-05 17:21:56,753481
-2,-52,-19,-4,-2,0,0,2,2021-08-05 17:21:56,769335
1,9,-2,-3,-4,-2,-1,-1,2021-08-05 17:21:56,769335
6,-11,-9,1,3,1,2,-1,2021-08-05 17:21:56,769335
-15,-10,3,-5,0,-1,-2,-3,2021-08-05 17:21:56,769335
-3,8,-5,-1,1,1,-2,-2,2021-08-05 17:21:56,769335
4,67,19,4,4,1,1,1,2021-08-05 17:21:56,769335
4,-62,-4,9,4,4,2,1,2021-08-05 17:21:56,769335
-14,-9,-16,-3,-5,-6,-5,-7,2021-08-05 17:21:56,800459
-1,5,2,-5,-7,-7,-6,-4,2021-08-05 17:21:56,816426
4,10,2,-2,-2,-5,-3,0,2021-08-05 17:21:56,816426
3,30,7,-2,-3,0,0,2,2021-08-05 17:21:56,816426
7,-11,-6,2,5,3,4,4,2021-08-05 17:21:56,816426
-8,-38,-6,-3,-5,-3,-4,-3,2021-08-05 17:21:56,816426
0,2,18,1,-2,0,0,-1,2021-08-05 17:21:56,832467
-5,-9,-16,-1,1,1,0,0,2021-08-05 17:21:56,848355
1,-14,-17,-2,-4,-3,-1,-2,2021-08-05 17:21:56,848660
1,26,13,0,0,0,-1,-1,2021-08-05 17:21:56,848660
0,-14,1,0,2,1,-2,0,2021-08-05 17:21:56,848660
1,-3,-11,-4,1,-1,-1,0,2021-08-05 17:21:56,848954
-5,15,19,3,1,-2,-1,-2,2021-08-05 17:21:56,848954
-4,12,-23,-4,-1,0,0,-2,2021-08-05 17:21:56,848954
-4,-54,3,2,3,1,0,-1,2021-08-05 17:21:56,849376
-5,20,-1,-4,-4,-3,-4,-3,2021-08-05 17:21:56,849376
11,-2,-3,-2,-4,-2,-1,-3,2021-08-05 17:21:56,879384
1,-1,7,5,4,4,2,1,2021-08-05 17:21:56,879384
1,100,20,4,2,2,0,1,2021-08-05 17:21:56,879384
-3,-82,-28,-1,-2,-3,-2,0,2021-08-05 17:21:56,879384
3,-7,-10,-5,-3,-4,-3,-2,2021-08-05 17:21:56,895385
-13,2,0,-11,-6,-6,-5,-6,2021-08-05 17:21:56,911363
5,62,-10,-3,-2,0,0,-1,2021-08-05 17:21:56,933386
-4,-18,15,7,4,3,2,3,2021-08-05 17:21:56,934369
3,-21,-16,-1,0,1,1,2,2021-08-05 17:21:56,934369
0,4,1,1,-1,-1,0,-2,2021-08-05 17:21:56,934369
-3,-20,-2,0,0,-1,-2,-3,2021-08-05 17:21:56,934369
0,32,26,0,0,2,1,1,2021-08-05 17:21:56,934369
-3,-13,-8,4,1,1,0,2,2021-08-05 17:21:56,934369
3,35,-2,-4,-3,-1,-2,-1,2021-08-05 17:21:56,934369
-3,-96,-11,-4,-3,-3,-3,-3,2021-08-05 17:21:56,934369
-3,21,0,-2,-1,-1,-1,-1,2021-08-05 17:21:56,934369
3,2,0,-4,-3,-1,-3,-1,2021-08-05 17:21:56,959499
5,30,11,0,-1,-1,-1,1,2021-08-05 17:21:56,959499
-2,-30,-13,-4,-2,-2,-2,-1,2021-08-05 17:21:56,959499
-4,42,5,-4,0,-1,-2,-3,2021-08-05 17:21:56,959499
3,-33,-4,6,3,1,1,-1,2021-08-05 17:21:56,975492
7,8,1,0,0,1,1,2,2021-08-05 17:21:56,975492
-3,-26,-12,3,2,1,1,1,2021-08-05 17:21:56,975492
-16,-29,-16,-7,-4,-4,-2,-6,2021-08-05 17:21:56,975492
-3,36,20,1,-2,-1,-3,-4,2021-08-05 17:21:56,991568
8,17,-6,-1,-1,-2,-3,0,2021-08-05 17:21:57,006691
1,-35,3,1,-1,-2,0,0,2021-08-05 17:21:57,022362
5,17,-2,-1,2,2,2,3,2021-08-05 17:21:57,022362
7,-10,6,-3,-3,-3,-2,-3,2021-08-05 17:21:57,022965
-17,-10,4,2,1,2,1,-1,2021-08-05 17:21:57,023047
4,16,5,0,0,-1,-1,0,2021-08-05 17:21:57,023047
-1,-6,-19,-4,-4,-3,-4,-4,2021-08-05 17:21:57,023231
-3,-12,-2,-8,-2,-3,-3,1,2021-08-05 17:21:57,038452
9,-7,1,1,2,0,1,2,2021-08-05 17:21:57,054364
-2,35,14,2,2,1,1,1,2021-08-05 17:21:57,070362
1,4,1,5,1,2,2,1,2021-08-05 17:21:57,070362
-3,-24,2,-3,-2,-1,-1,-3,2021-08-05 17:21:57,070362
-4,-27,-8,1,-1,-1,-2,-2,2021-08-05 17:21:57,070362
-5,-9,3,-7,-4,-1,-2,-4,2021-08-05 17:21:57,070362
-2,-25,-17,2,-2,0,-1,-2,2021-08-05 17:21:57,070362
0,26,5,-2,-2,1,-2,-2,2021-08-05 17:21:57,070362
6,-9,-2,-1,0,-1,1,0,2021-08-05 17:21:57,070362
-5,33,9,3,0,-3,-2,-1,2021-08-05 17:21:57,071328
1,-52,-8,-3,-2,-2,-1,-1,2021-08-05 17:21:57,071328
-4,9,-4,2,3,2,1,1,2021-08-05 17:21:57,102424
-3,24,-9,-2,-3,-3,-1,-2,2021-08-05 17:21:57,102424
2,2,-9,-3,-1,-1,-3,0,2021-08-05 17:21:57,102424
-4,14,28,2,-1,0,1,0,2021-08-05 17:21:57,102424
3,-5,15,5,3,1,3,3,2021-08-05 17:21:57,102424
-4,-67,-51,-2,2,2,0,-2,2021-08-05 17:21:57,102424
7,24,-2,-5,-5,-6,-5,-7,2021-08-05 17:21:57,118519
-14,35,-1,-4,-2,-3,-2,-1,2021-08-05 17:21:57,134385
4,-31,16,-1,-3,-3,1,-2,2021-08-05 17:21:57,150363
-12,0,4,6,3,3,3,1,2021-08-05 17:21:57,150363
3,-20,-11,-3,-4,-1,0,0,2021-08-05 17:21:57,150563
5,19,3,1,0,0,-1,-1,2021-08-05 17:21:57,150563
2,44,1,-7,-5,-6,-3,-1,2021-08-05 17:21:57,150563
1,-52,13,2,2,0,2,2,2021-08-05 17:21:57,150563
-7,-22,-17,-2,0,1,-2,-1,2021-08-05 17:21:57,150563
3,1,18,1,-4,-2,-2,-2,2021-08-05 17:21:57,150563
-6,4,-16,-1,-2,0,-1,-2,2021-08-05 17:21:57,166367
5,10,-4,-4,-2,0,0,-2,2021-08-05 17:21:57,166367
-5,-3,-2,-1,0,0,-2,-2,2021-08-05 17:21:57,182386
0,-13,8,-2,-2,-3,-3,-3,2021-08-05 17:21:57,182386
-2,26,0,5,3,2,1,2,2021-08-05 17:21:57,198363
5,-28,10,-2,-4,-4,-3,-2,2021-08-05 17:21:57,207439
-5,-23,-33,-2,1,4,2,1,2021-08-05 17:21:57,207439
-4,20,9,-13,-10,-8,-6,-6,2021-08-05 17:21:57,208328
0,14,-3,7,6,5,1,2,2021-08-05 17:21:57,208328
1,29,30,5,0,0,1,1,2021-08-05 17:21:57,208328
-1,-34,-16,2,1,1,2,2,2021-08-05 17:21:57,214455
2,19,-7,-1,-2,-4,-3,-4,2021-08-05 17:21:57,214592
-3,-41,6,-6,-2,-3,-2,-3,2021-08-05 17:21:57,246386
2,33,-3,-4,-3,-2,-4,-1,2021-08-05 17:21:57,246386
10,14,4,1,-1,-3,-2,-1,2021-08-05 17:21:57,246386
-16,-7,-3,-2,2,2,0,0,2021-08-05 17:21:57,246386
1,12,0,-3,-2,-2,-1,-3,2021-08-05 17:21:57,246386
2,1,1,3,3,2,1,3,2021-08-05 17:21:57,246386
-4,-4,3,-3,-1,-4,-1,-2,2021-08-05 17:21:57,246386
10,12,7,5,4,5,4,3,2021-08-05 17:21:57,247363
-3,-7,-10,2,2,0,2,0,2021-08-05 17:21:57,278390
-4,-21,-10,-4,0,-3,-1,-2,2021-08-05 17:21:57,294542
0,25,19,0,-2,-2,-1,-1,2021-08-05 17:21:57,294542
6,43,6,4,1,2,-2,-2,2021-08-05 17:21:57,294542
-4,-92,-15,-1,0,0,-1,-1,2021-08-05 17:21:57,294542
-2,-2,-16,-4,-5,-1,-3,-2,2021-08-05 17:21:57,294542
-1,11,-2,-3,-4,-3,-2,-3,2021-08-05 17:21:57,294542
-1,-1,7,-2,1,0,-1,0,2021-08-05 17:21:57,294542
2,31,0,4,1,1,1,1,2021-08-05 17:21:57,326554
-2,41,7,3,0,-2,0,-1,2021-08-05 17:21:57,326554
-4,-58,-9,-4,-2,0,0,-2,2021-08-05 17:21:57,326865
0,-21,-15,-8,-6,-3,-2,-1,2021-08-05 17:21:57,326967
6,33,2,-3,-3,-2,-2,-1,2021-08-05 17:21:57,342474
-5,-10,7,1,-1,-1,-3,0,2021-08-05 17:21:57,358521
-4,34,27,9,4,4,3,3,2021-08-05 17:21:57,374445
5,-36,-22,3,5,2,3,3,2021-08-05 17:21:57,374445
-7,8,-12,-13,-11,-8,-5,-7,2021-08-05 17:21:57,374445
2,-8,-6,-4,-4,-2,-4,-5,2021-08-05 17:21:57,374445
-1,23,3,-1,-1,-1,-1,-2,2021-08-05 17:21:57,375228
2,-16,1,0,3,2,1,3,2021-08-05 17:21:57,375329
0,0,3,4,4,5,3,3,2021-08-05 17:21:57,375329
-1,5,-3,-1,0,-1,1,1,2021-08-05 17:21:57,375453
-2,-2,6,0,0,-3,-2,-2,2021-08-05 17:21:57,375453
-3,-5,-11,-1,-1,-2,0,0,2021-08-05 17:21:57,375453
-3,3,8,-4,-4,-5,-2,-3,2021-08-05 17:21:57,390481
-2,-8,-14,-5,1,0,-1,-1,2021-08-05 17:21:57,406441
0,18,8,-4,-1,0,-2,-1,2021-08-05 17:21:57,422490
3,25,8,6,3,1,1,1,2021-08-05 17:21:57,422490
-2,-32,-7,1,-1,1,0,-1,2021-08-05 17:21:57,422490
-2,-10,1,0,-1,-1,-1,-2,2021-08-05 17:21:57,422490
1,4,-3,-3,-5,-2,-3,-1,2021-08-05 17:21:57,422490
2,16,6,1,-1,-1,0,-1,2021-08-05 17:21:57,423286
0,-6,-12,-1,1,1,-1,0,2021-08-05 17:21:57,438382
2,74,37,4,2,-1,-1,0,2021-08-05 17:21:57,453592
-4,-100,-35,-1,2,-1,1,-1,2021-08-05 17:21:57,469385
14,2,-12,-2,-1,0,-1,-1,2021-08-05 17:21:57,469385
-27,-22,-9,-7,-6,-6,-6,-6,2021-08-05 17:21:57,469686
-3,-1,-7,-9,-5,-1,-3,-5,2021-08-05 17:21:57,469686
3,37,19,3,0,1,0,2,2021-08-05 17:21:57,485363
5,37,23,5,0,3,1,1,2021-08-05 17:21:57,486330
9,-22,-6,5,3,3,0,3,2021-08-05 17:21:57,486866
-6,-17,-16,0,1,0,-1,1,2021-08-05 17:21:57,486976
-4,22,-1,-4,-4,-2,-3,-3,2021-08-05 17:21:57,487101
-5,-66,-1,-2,-3,-3,-1,-2,2021-08-05 17:21:57,487101
6,46,4,-1,0,-2,0,-1,2021-08-05 17:21:57,501366
-2,-20,2,-2,-3,-3,-1,-1,2021-08-05 17:21:57,501366
1,-4,-3,2,3,0,2,1,2021-08-05 17:21:57,501702
-6,1,-11,-5,-4,-3,-3,-1,2021-08-05 17:21:57,501702
-3,2,11,0,-2,0,1,-1,2021-08-05 17:21:57,532385
4,5,4,4,1,1,3,4,2021-08-05 17:21:57,547578
0,-14,-3,4,2,3,3,1,2021-08-05 17:21:57,547803
-7,7,-6,-9,-4,-6,-3,-6,2021-08-05 17:21:57,547803
-1,-1,-12,-10,-6,-6,-6,-6,2021-08-05 17:21:57,547803
3,63,21,0,-1,2,0,0,2021-08-05 17:21:57,547803
0,-28,-7,2,-1,-1,1,2,2021-08-05 17:21:57,547803
-9,-38,-21,0,3,2,2,-1,2021-08-05 17:21:57,548364
-1,5,4,1,0,0,0,-3,2021-08-05 17:21:57,562363
5,33,4,3,2,1,-1,-3,2021-08-05 17:21:57,562363
3,20,15,-1,-4,-7,-6,-6,2021-08-05 17:21:57,562363
-6,38,27,3,1,-2,-1,0,2021-08-05 17:21:57,562363
8,-60,-33,-2,-1,-1,-1,3,2021-08-05 17:21:57,578509
-18,-41,-15,-5,-5,-4,-1,-1,2021-08-05 17:21:57,578509
3,6,-9,-5,2,4,1,1,2021-08-05 17:21:57,578509
2,5,1,-1,1,1,0,0,2021-08-05 17:21:57,578509
1,74,22,4,3,1,2,1,2021-08-05 17:21:57,610401
2,-74,-17,-1,1,-1,0,-1,2021-08-05 17:21:57,626443
-1,-5,-4,-4,-4,-3,0,-2,2021-08-05 17:21:57,626645
-5,-42,-8,-2,-3,-2,-4,-3,2021-08-05 17:21:57,626645
2,21,6,-1,-3,0,-2,-1,2021-08-05 17:21:57,626645
3,11,12,8,6,3,0,3,2021-08-05 17:21:57,626645
-8,11,-7,-2,-1,-3,-3,-1,2021-08-05 17:21:57,626645
2,34,15,0,-1,0,0,0,2021-08-05 17:21:57,627357
2,-55,-19,6,4,1,3,2,2021-08-05 17:21:57,627357
1,3,-1,-1,-1,-2,-1,-1,2021-08-05 17:21:57,627552
-3,23,6,-5,-3,-2,-4,-3,2021-08-05 17:21:57,642390
0,0,-1,-7,1,0,0,3,2021-08-05 17:21:57,642390
-4,18,5,0,-1,-1,-1,-2,2021-08-05 17:21:57,657386
2,-51,-18,-3,0,-1,-1,0,2021-08-05 17:21:57,657386
5,21,3,7,2,0,1,1,2021-08-05 17:21:57,657386
-1,15,26,6,-2,-2,-1,0,2021-08-05 17:21:57,657386
6,-11,-31,-9,0,0,-1,-2,2021-08-05 17:21:57,688331
-20,-9,-4,-11,-6,-4,-4,-4,2021-08-05 17:21:57,719495
1,-12,6,2,0,-1,-1,-1,2021-08-05 17:21:57,735365
4,7,-16,-1,-2,-1,-3,-2,2021-08-05 17:21:57,735365
-4,22,34,7,0,0,1,2,2021-08-05 17:21:57,735365
4,3,-1,2,0,0,1,-1,2021-08-05 17:21:57,735365
-10,-3,-14,-8,-4,-2,-3,-5,2021-08-05 17:21:57,735365
3,8,-3,0,0,0,0,1,2021-08-05 17:21:57,735365
1,-17,-2,0,2,-1,0,1,2021-08-05 17:21:57,735365
1,-5,0,3,1,0,0,-1,2021-08-05 17:21:57,735365
-1,19,12,4,1,-1,0,0,2021-08-05 17:21:57,735365
1,40,-2,-4,0,0,0,-3,2021-08-05 17:21:57,735365
-5,-52,-14,-5,-3,-1,-3,0,2021-08-05 17:21:57,736366
1,19,8,1,1,2,2,2,2021-08-05 17:21:57,736366
-1,-18,-10,2,-1,0,1,0,2021-08-05 17:21:57,736366
-5,-7,-10,-1,-6,-4,-5,-6,2021-08-05 17:21:57,736366
-2,-15,-4,-6,-2,0,-3,-2,2021-08-05 17:21:57,766386
-1,5,-9,-8,-4,-4,0,-3,2021-08-05 17:21:57,767385
1,13,7,-3,-1,-2,-1,1,2021-08-05 17:21:57,767497
-2,-12,7,5,3,2,2,2,2021-08-05 17:21:57,767497
-2,6,10,5,0,0,1,-1,2021-08-05 17:21:57,781485
0,-8,-5,-6,-3,-2,-5,-4,2021-08-05 17:21:57,797480
-1,-8,7,5,1,0,0,-1,2021-08-05 17:21:57,812363
-7,-12,-11,-3,-1,-1,-2,-3,2021-08-05 17:21:57,827461
4,20,3,4,0,-2,1,0,2021-08-05 17:21:57,827549
3,3,-3,-4,0,-1,-2,0,2021-08-05 17:21:57,827666
15,23,16,-4,-4,-3,-4,-1,2021-08-05 17:21:57,827666
-21,-6,-37,-11,2,2,-2,-4,2021-08-05 17:21:57,827666
0,-41,2,-1,2,2,1,1,2021-08-05 17:21:57,827666
1,-19,4,6,1,1,2,2,2021-08-05 17:21:57,827666
0,-13,-2,-2,-2,-4,-2,-2,2021-08-05 17:21:57,827666
12,29,18,1,-1,-3,-1,0,2021-08-05 17:21:57,827666
-13,-10,-15,0,-2,-1,-1,-2,2021-08-05 17:21:57,843457
0,5,-10,0,1,1,-1,-2,2021-08-05 17:21:57,843457
0,10,14,-1,-2,1,-1,1,2021-08-05 17:21:57,843643
3,-20,5,3,0,-1,0,1,2021-08-05 17:21:57,843643
-5,15,-6,-3,-2,-1,-2,-3,2021-08-05 17:21:57,858485
4,-34,2,6,-2,0,0,1,2021-08-05 17:21:57,873438
0,11,-33,-11,-2,0,0,-2,2021-08-05 17:21:57,873438
-19,-34,-2,-13,-8,-6,-5,-3,2021-08-05 17:21:57,873438
6,30,15,3,0,-2,-2,-1,2021-08-05 17:21:57,889473
1,9,0,6,3,0,1,2,2021-08-05 17:21:57,905387
1,-6,5,3,1,1,0,-1,2021-08-05 17:21:57,921466
7,-27,-11,2,1,0,1,1,2021-08-05 17:21:57,937469
7,23,9,-4,-1,-1,-2,-1,2021-08-05 17:21:57,937793
-5,8,-3,-4,-2,-1,-2,-3,2021-08-05 17:21:57,937793
-7,-18,-13,-6,-2,0,-1,-1,2021-08-05 17:21:57,937793
2,12,9,8,1,1,0,0,2021-08-05 17:21:57,937793
-2,-31,-7,-5,0,0,1,0,2021-08-05 17:21:57,937793
2,8,2,1,-1,-1,0,0,2021-08-05 17:21:57,937793
-8,-5,1,3,2,-2,0,-1,2021-08-05 17:21:57,937793
1,-8,1,3,0,1,1,0,2021-08-05 17:21:57,937793
-2,33,12,-3,-1,0,-2,-3,2021-08-05 17:21:57,937793
0,-14,-18,-3,-1,-1,0,0,2021-08-05 17:21:57,937793
-4,-11,-9,-9,-3,-2,-1,-3,2021-08-05 17:21:57,938365
5,2,6,4,0,1,0,3,2021-08-05 17:21:57,938365
2,19,18,10,3,-1,0,0,2021-08-05 17:21:57,969412
-3,-12,-10,-12,0,-1,1,0,2021-08-05 17:21:57,969660
6,-11,-14,4,0,-1,-1,0,2021-08-05 17:21:57,969660
-10,-4,4,-2,-2,-3,-4,-7,2021-08-05 17:21:57,969849
-5,1,-8,-2,-1,1,2,2,2021-08-05 17:21:57,985362
0,12,16,9,-2,-3,-2,-4,2021-08-05 17:21:57,985362
2,-5,8,7,1,-1,-3,-2,2021-08-05 17:21:57,985362
6,-12,-27,-22,-6,-2,-3,0,2021-08-05 17:21:57,985780
-1,5,4,2,-1,-1,-2,1,2021-08-05 17:21:58,017386
-6,-7,6,2,3,1,-1,-2,2021-08-05 17:21:58,033386
-2,7,15,8,-1,1,0,-1,2021-08-05 17:21:58,041387
2,26,18,12,3,0,3,3,2021-08-05 17:21:58,042365
-1,-17,-34,-18,-6,-3,-1,-3,2021-08-05 17:21:58,042365
-5,0,-4,-9,-6,-3,-2,-2,2021-08-05 17:21:58,042365
-11,-15,2,-2,-2,-2,-2,-4,2021-08-05 17:21:58,042365
1,-6,-1,-2,2,1,1,0,2021-08-05 17:21:58,042365
2,14,12,11,0,-3,-2,-3,2021-08-05 17:21:58,042365
5,8,-5,-4,1,0,1,1,2021-08-05 17:21:58,042365
-1,3,-12,-8,-1,0,-1,0,2021-08-05 17:21:58,042365
0,-14,-14,0,0,-3,0,-1,2021-08-05 17:21:58,042365
1,-10,2,3,5,4,5,8,2021-08-05 17:21:58,081364
-1,11,13,5,1,0,-2,-3,2021-08-05 17:21:58,081364
-3,7,4,2,-1,-3,-1,0,2021-08-05 17:21:58,081364
3,-1,-2,-3,0,0,-1,0,2021-08-05 17:21:58,081364
-5,-6,-9,-7,-5,-3,-4,-6,2021-08-05 17:21:58,081364
-3,-6,3,3,0,-1,-2,1,2021-08-05 17:21:58,081364
0,1,4,1,-1,0,1,1,2021-08-05 17:21:58,081364
1,3,6,4,1,1,0,1,2021-08-05 17:21:58,081364
-2,0,8,7,0,0,-1,-3,2021-08-05 17:21:58,097616
-1,20,-15,-14,-5,-1,-2,-4,2021-08-05 17:21:58,097616
1,-14,1,-3,-1,-1,0,1,2021-08-05 17:21:58,097616
-2,-13,-4,-3,1,1,1,0,2021-08-05 17:21:58,097616
-6,13,10,5,0,-2,-3,-2,2021-08-05 17:21:58,128550
-1,-6,-20,-6,0,-1,-3,-5,2021-08-05 17:21:58,144653
0,-1,-3,-1,-1,-1,-1,-2,2021-08-05 17:21:58,159670
-3,-2,3,0,-2,-2,-1,1,2021-08-05 17:21:58,159670
2,-5,0,1,2,2,1,4,2021-08-05 17:21:58,159670
0,0,18,12,2,-1,0,0,2021-08-05 17:21:58,160034
-4,0,-3,-3,2,1,0,-1,2021-08-05 17:21:58,160213
-2,-3,-14,-11,-10,-6,-5,-8,2021-08-05 17:21:58,160304
8,16,6,5,2,1,3,0,2021-08-05 17:21:58,160405
-2,-6,8,0,0,0,0,0,2021-08-05 17:21:58,160498
-1,0,-20,-10,-1,1,-1,-2,2021-08-05 17:21:58,160591
-3,-27,-3,0,-1,-1,-2,-3,2021-08-05 17:21:58,160591
1,26,2,-5,-3,-3,-4,-3,2021-08-05 17:21:58,175513
2,-6,-2,0,-1,-2,1,1,2021-08-05 17:21:58,175670
-6,-5,9,6,-1,-2,-1,-4,2021-08-05 17:21:58,191554
4,0,8,4,3,2,2,3,2021-08-05 17:21:58,206636
0,-11,-15,-10,-3,-2,0,1,2021-08-05 17:21:58,237589
0,4,0,4,0,1,1,-1,2021-08-05 17:21:58,253684
-1,9,20,6,0,-3,-1,0,2021-08-05 17:21:58,253815
-4,-4,-26,-15,-4,1,0,0,2021-08-05 17:21:58,253815
-3,-59,-2,4,-2,-1,-2,-3,2021-08-05 17:21:58,253815
7,57,-8,-16,-3,-1,-1,3,2021-08-05 17:21:58,253815
8,0,8,12,3,2,1,3,2021-08-05 17:21:58,253815
-4,-2,12,1,0,-1,-3,-6,2021-08-05 17:21:58,253815
3,20,0,2,0,0,2,3,2021-08-05 17:21:58,254273
-7,-28,-3,2,-1,-3,-4,-4,2021-08-05 17:21:58,254273
1,1,-8,-6,0,1,0,3,2021-08-05 17:21:58,254273
-2,6,-2,4,-1,-1,-1,0,2021-08-05 17:21:58,254529
-3,-4,2,0,0,1,0,-1,2021-08-05 17:21:58,254529
0,-11,1,-2,-3,-2,-3,-2,2021-08-05 17:21:58,254529
-2,11,-1,3,0,-1,0,-1,2021-08-05 17:21:58,254529
-4,-8,-15,-9,-4,-3,-2,-5,2021-08-05 17:21:58,254529
1,9,-1,-3,-3,-3,-1,-1,2021-08-05 17:21:58,285590
0,-13,26,20,3,2,3,2,2021-08-05 17:21:58,285721
-5,-8,-20,-12,0,-3,-2,-3,2021-08-05 17:21:58,285721
6,11,-5,-2,-2,0,2,2,2021-08-05 17:21:58,285721
-4,-7,-2,-5,-4,-4,-3,-4,2021-08-05 17:21:58,317653
1,0,12,9,-2,-3,-2,2,2021-08-05 17:21:58,321548
2,1,-8,-4,2,3,1,1,2021-08-05 17:21:58,321548
-3,8,0,-4,1,1,-1,0,2021-08-05 17:21:58,321548
2,7,-5,-5,2,1,0,2,2021-08-05 17:21:58,321548
-1,-7,-5,1,-2,-2,-1,0,2021-08-05 17:21:58,321548
-4,-4,6,5,-2,-1,-2,-4,2021-08-05 17:21:58,333574
-2,1,6,7,4,3,2,0,2021-08-05 17:21:58,333662
-7,-1,-3,-4,-1,-2,-4,-8,2021-08-05 17:21:58,333662
-3,-5,-2,-2,-4,-6,-5,-5,2021-08-05 17:21:58,333662
10,9,3,-1,3,3,4,4,2021-08-05 17:21:58,333662
1,1,2,2,-2,-3,-3,2,2021-08-05 17:21:58,333662
1,1,16,18,1,0,-1,0,2021-08-05 17:21:58,381625
-10,-9,-25,-18,-7,-3,-2,-6,2021-08-05 17:21:58,381790
-3,-2,-4,-9,-3,-2,-3,-2,2021-08-05 17:21:58,381899
10,7,20,24,10,6,7,11,2021-08-05 17:21:58,381899
1,-2,-17,-17,-1,2,1,2,2021-08-05 17:21:58,381899
1,0,0,1,-1,-1,0,2,2021-08-05 17:21:58,381899
-8,-9,-2,-4,-3,-4,-3,-6,2021-08-05 17:21:58,381899
0,-2,-6,-3,-1,-1,-2,-3,2021-08-05 17:21:58,382492
-3,3,2,3,-3,-4,-4,-3,2021-08-05 17:21:58,397546
4,7,5,1,5,2,2,1,2021-08-05 17:21:58,397546
-4,-8,-3,0,-5,-5,-4,-4,2021-08-05 17:21:58,413612
-6,-4,0,-8,-5,-3,-2,-5,2021-08-05 17:21:58,429527
6,8,4,0,2,5,3,4,2021-08-05 17:21:58,429776
-4,-8,0,-3,0,-1,0,-3,2021-08-05 17:21:58,429776
-3,-7,-8,5,-3,0,-1,-3,2021-08-05 17:21:58,429776
1,3,-6,-12,-3,-2,-2,-4,2021-08-05 17:21:58,429776
0,-5,-8,-6,-1,-1,1,1,2021-08-05 17:21:58,429776
2,1,2,0,1,2,2,1,2021-08-05 17:21:58,429776
-1,-5,20,9,-2,-3,-1,0,2021-08-05 17:21:58,445530
-7,-6,-40,-18,-4,-1,-3,-7,2021-08-05 17:21:58,461529
-4,0,6,0,-4,-4,-4,-5,2021-08-05 17:21:58,477607
5,9,9,6,5,3,3,3,2021-08-05 17:21:58,493661
-2,-21,21,13,0,0,0,2,2021-08-05 17:21:58,509547
0,13,-5,3,0,0,-1,-2,2021-08-05 17:21:58,525539
-1,2,-30,-23,-3,-1,-1,-4,2021-08-05 17:21:58,541492
0,-5,-7,-4,-1,-2,-4,-1,2021-08-05 17:21:58,541492
3,11,5,1,1,0,1,1,2021-08-05 17:21:58,541492
1,-3,40,28,2,-2,2,2,2021-08-05 17:21:58,541492
-8,-12,-25,-14,-5,-2,-4,-8,2021-08-05 17:21:58,541492
1,0,-11,-12,-4,0,-1,-3,2021-08-05 17:21:58,541492
0,0,-3,-3,-1,0,-1,0,2021-08-05 17:21:58,541492
1,5,29,20,4,0,-1,1,2021-08-05 17:21:58,541492
2,-1,-11,-4,0,2,3,5,2021-08-05 17:21:58,541492
-13,-12,-18,-12,-6,-3,-8,-14,2021-08-05 17:21:58,542545
10,8,-7,-8,3,4,4,7,2021-08-05 17:21:58,542545
-7,-9,-15,-9,-8,-6,-4,-6,2021-08-05 17:21:58,542545
1,10,22,17,6,1,1,4,2021-08-05 17:21:58,556615
3,5,17,19,3,2,2,5,2021-08-05 17:21:58,571536
0,11,1,-2,2,-1,-3,-2,2021-08-05 17:21:58,571836
-2,-10,-44,-39,-9,-2,-1,-4,2021-08-05 17:21:58,571836
-4,-10,11,5,-3,-6,-3,-2,2021-08-05 17:21:58,571836
7,5,3,3,4,3,5,8,2021-08-05 17:21:58,571836
-5,4,29,26,1,-3,-1,-1,2021-08-05 17:21:58,572494
-3,-5,-4,-3,1,1,0,-1,2021-08-05 17:21:58,572616
-2,-5,-30,-22,-5,1,-2,-1,2021-08-05 17:21:58,572787
-1,-3,8,4,-2,-2,-2,-3,2021-08-05 17:21:58,572787
-1,-7,4,2,-1,-4,-2,-2,2021-08-05 17:21:58,572915
2,10,5,7,2,1,-1,-1,2021-08-05 17:21:58,573025
-3,-6,-6,-3,-2,-1,-1,-1,2021-08-05 17:21:58,602592
-4,0,-9,-7,-1,-3,-3,-6,2021-08-05 17:21:58,602592
0,3,23,10,-2,-1,1,5,2021-08-05 17:21:58,602592
5,4,-13,7,7,2,2,3,2021-08-05 17:21:58,602592
-1,-7,0,-11,-8,-3,-3,-4,2021-08-05 17:21:58,634495
3,3,3,-3,-1,0,-1,4,2021-08-05 17:21:58,634495
-9,-8,-20,-13,-7,-4,-5,-10,2021-08-05 17:21:58,634745
0,3,31,17,1,-2,-2,2,2021-08-05 17:21:58,634745
6,9,-3,-1,4,4,4,3,2021-08-05 17:21:58,634745
-1,-2,-7,2,0,-2,0,2,2021-08-05 17:21:58,635175
-7,-24,-24,-20,-7,-3,-3,-5,2021-08-05 17:21:58,635175
3,14,9,4,2,3,0,4,2021-08-05 17:21:58,635175
4,7,23,15,2,0,2,3,2021-08-05 17:21:58,666545
1,7,17,21,-1,-2,0,1,2021-08-05 17:21:58,666545
-3,-13,-78,-69,-5,2,-1,-6,2021-08-05 17:21:58,666545
-3,-8,3,-2,-6,-5,-3,-5,2021-08-05 17:21:58,666545
-4,-4,2,2,0,0,-2,-2,2021-08-05 17:21:58,682545
-4,-1,26,17,-1,-3,0,-2,2021-08-05 17:21:58,682734
6,12,12,18,7,4,4,8,2021-08-05 17:21:58,682734
6,-13,12,5,3,4,6,8,2021-08-05 17:21:58,682734
-6,13,-6,-9,-5,-3,-5,-7,2021-08-05 17:21:58,698551
6,0,-10,-6,1,-1,2,3,2021-08-05 17:21:58,698551
3,8,7,8,1,0,-1,2,2021-08-05 17:21:58,698551
-5,-4,2,0,-3,-4,-2,-2,2021-08-05 17:21:58,698551
0,-3,26,16,5,2,3,3,2021-08-05 17:21:58,730652
-9,-17,-62,-39,-9,-2,-4,-10,2021-08-05 17:21:58,762494
-5,-6,-19,-15,-5,-2,-3,-4,2021-08-05 17:21:58,778530
-2,4,21,14,0,-2,-2,1,2021-08-05 17:21:58,778530
0,-4,16,18,0,-2,-3,0,2021-08-05 17:21:58,778530
0,5,-13,-18,3,2,0,1,2021-08-05 17:21:58,778530
-4,-1,12,12,-3,-3,-1,-2,2021-08-05 17:21:58,778530
2,6,-4,-7,-1,0,0,-2,2021-08-05 17:21:58,778530
-1,-5,-11,-5,1,1,1,-1,2021-08-05 17:21:58,778530
1,-2,13,6,-2,-1,0,1,2021-08-05 17:21:58,778530
-2,2,-11,-2,-2,-2,-1,-3,2021-08-05 17:21:58,778530
1,-4,6,5,1,-1,-1,-2,2021-08-05 17:21:58,779527
-2,-20,-17,-8,-3,-3,-1,-1,2021-08-05 17:21:58,779527
0,11,11,5,1,-1,-1,-2,2021-08-05 17:21:58,779527
5,13,27,15,2,1,4,8,2021-08-05 17:21:58,779527
-11,-17,-31,-6,-2,-3,-3,-10,2021-08-05 17:21:58,779527
5,15,0,-4,-1,-2,1,1,2021-08-05 17:21:58,810528
-3,-7,9,2,-3,-2,-5,-3,2021-08-05 17:21:58,810528
3,-5,12,10,2,0,1,4,2021-08-05 17:21:58,810528
-8,9,-19,-32,-9,-3,-5,-8,2021-08-05 17:21:58,810528
5,9,33,34,8,2,3,6,2021-08-05 17:21:58,826615
-6,-8,-61,-48,-8,-4,-3,-8,2021-08-05 17:21:58,842688
1,-4,2,2,0,-2,-2,-1,2021-08-05 17:21:58,858494
-2,-6,9,10,1,1,0,1,2021-08-05 17:21:58,858494
-2,2,2,-6,-4,-1,-1,-3,2021-08-05 17:21:58,858494
-1,4,14,11,-1,-2,0,1,2021-08-05 17:21:58,858494
-2,-19,-7,0,1,0,0,-2,2021-08-05 17:21:58,858494
-1,10,-10,-9,-3,-1,0,-1,2021-08-05 17:21:58,858494
0,1,-1,0,-2,-3,-3,-4,2021-08-05 17:21:58,858494
1,-4,15,13,3,2,2,2,2021-08-05 17:21:58,858494
0,10,-1,-5,0,2,0,0,2021-08-05 17:21:58,859527
4,4,19,13,0,0,0,3,2021-08-05 17:21:58,859527
-3,-7,-29,-16,-5,-3,-3,-2,2021-08-05 17:21:58,890600
-3,-10,-21,-24,-3,-1,0,-5,2021-08-05 17:21:58,906698
-3,-4,-13,-9,-4,-5,-4,-7,2021-08-05 17:21:58,906698
3,7,18,14,4,2,4,6,2021-08-05 17:21:58,906929
0,3,14,10,1,-1,0,2,2021-08-05 17:21:58,906929
-3,-10,-9,0,-3,-1,-2,-3,2021-08-05 17:21:58,906929
2,14,25,16,1,-1,1,2,2021-08-05 17:21:58,906929
-2,-12,-39,-29,-5,-1,-2,-6,2021-08-05 17:21:58,906929
4,1,-7,-14,-2,1,0,1,2021-08-05 17:21:58,938553
3,0,7,7,-1,0,-1,2,2021-08-05 17:21:58,938553
-6,-7,5,4,-5,-3,-4,-7,2021-08-05 17:21:58,938553
0,3,-4,-6,-2,-2,0,3,2021-08-05 17:21:58,938553
-6,-2,1,2,-1,-3,-3,-2,2021-08-05 17:21:58,938553
1,-5,8,6,0,-1,-1,0,2021-08-05 17:21:58,938553
2,16,16,15,5,1,3,3,2021-08-05 17:21:58,938553
-2,-11,-15,-23,-4,-1,-1,-4,2021-08-05 17:21:58,938553
0,2,-18,-7,-2,-1,-2,-3,2021-08-05 17:21:58,956492
-3,0,10,7,2,-1,1,1,2021-08-05 17:21:58,956794
0,-1,-6,-3,-2,-1,0,-1,2021-08-05 17:21:58,956794
3,2,22,20,4,1,1,3,2021-08-05 17:21:58,956794
-5,-9,-11,-12,-5,-4,-3,-4,2021-08-05 17:21:58,986613
-1,-9,-10,-1,2,2,1,-1,2021-08-05 17:21:58,986791
0,-6,-12,-12,-2,1,-1,0,2021-08-05 17:21:58,986932
0,0,-11,0,-1,-1,0,0,2021-08-05 17:21:58,987082
-1,-5,10,3,0,-1,0,-1,2021-08-05 17:21:59,002528
-2,10,10,9,0,-1,-1,0,2021-08-05 17:21:59,002688
-5,-18,0,2,-1,-1,-3,-2,2021-08-05 17:21:59,002688
4,17,19,24,6,3,3,6,2021-08-05 17:21:59,002934
-1,-4,-42,-62,-11,-3,-2,-4,2021-08-05 17:21:59,034544
-1,6,10,6,2,-2,-1,0,2021-08-05 17:21:59,034544
-2,-2,-17,-17,-4,-4,-4,-5,2021-08-05 17:21:59,034544
-3,-9,18,16,1,-2,-2,0,2021-08-05 17:21:59,034544
-2,-2,12,22,3,0,1,0,2021-08-05 17:21:59,050528
4,6,3,-1,0,2,0,1,2021-08-05 17:21:59,050528
-1,-1,-12,-10,-2,-1,0,-2,2021-08-05 17:21:59,050528
-6,-6,-13,-9,-4,-2,-3,-4,2021-08-05 17:21:59,050528
2,-17,18,15,3,3,1,5,2021-08-05 17:21:59,066546
0,5,-16,-14,-4,-1,-1,-1,2021-08-05 17:21:59,066546
-2,8,5,5,-1,-1,-1,0,2021-08-05 17:21:59,066546
2,-3,-11,-11,-2,-1,-3,-3,2021-08-05 17:21:59,066546
-1,3,17,13,-3,-3,-2,-1,2021-08-05 17:21:59,082545
3,-3,0,7,-2,-3,-4,0,2021-08-05 17:21:59,082545
0,1,-4,-6,1,2,4,3,2021-08-05 17:21:59,082934
-2,0,4,-2,-1,0,0,-2,2021-08-05 17:21:59,082934
-7,-18,0,8,3,2,0,-3,2021-08-05 17:21:59,113722
-2,16,8,7,3,1,0,-3,2021-08-05 17:21:59,129680
5,5,-10,-10,-3,-2,-3,-3,2021-08-05 17:21:59,145544
-2,-12,-12,-11,-8,-4,-5,-7,2021-08-05 17:21:59,161712
4,9,17,16,0,-1,-1,2,2021-08-05 17:21:59,161839
-4,-15,-8,-1,-3,0,0,2,2021-08-05 17:21:59,161965
2,3,-8,-7,0,1,1,2,2021-08-05 17:21:59,162103
-4,7,8,3,-4,-3,-3,-3,2021-08-05 17:21:59,162103
1,3,-9,-1,0,0,-2,-2,2021-08-05 17:21:59,162103
2,-5,7,3,5,3,3,7,2021-08-05 17:21:59,162414
-3,0,3,0,-2,-1,-1,-2,2021-08-05 17:21:59,162492
-1,-3,-12,-5,-3,-2,-3,0,2021-08-05 17:21:59,162492
1,8,9,4,0,0,0,1,2021-08-05 17:21:59,162492
-5,-2,-15,-9,-7,-4,-5,-6,2021-08-05 17:21:59,162492
2,-2,2,5,-1,1,-1,0,2021-08-05 17:21:59,162492
0,-1,1,-3,1,-1,0,-1,2021-08-05 17:21:59,162492
-3,-15,-13,-12,-2,0,1,0,2021-08-05 17:21:59,177646
-4,13,11,8,-1,-2,-2,-2,2021-08-05 17:21:59,192528
-2,4,-1,-2,0,-1,-2,-1,2021-08-05 17:21:59,192528
5,0,4,5,1,1,2,4,2021-08-05 17:21:59,192528
-2,6,7,2,0,-1,0,0,2021-08-05 17:21:59,208683
0,-15,-2,-3,-3,-2,-1,-2,2021-08-05 17:21:59,224528
-4,4,-2,5,0,-1,0,-4,2021-08-05 17:21:59,240690
6,1,-20,-19,0,0,2,3,2021-08-05 17:21:59,256561
3,7,9,10,2,0,0,1,2021-08-05 17:21:59,256561
-6,-4,4,1,-2,-1,-1,-2,2021-08-05 17:21:59,256561
-4,-6,-6,-1,0,-2,-2,-1,2021-08-05 17:21:59,256992
-2,-7,-4,4,-1,-1,-1,-2,2021-08-05 17:21:59,257145
-3,-4,-13,-9,-3,-2,-2,-2,2021-08-05 17:21:59,257236
4,5,7,5,2,1,2,1,2021-08-05 17:21:59,257236
0,-1,6,-4,-3,-2,0,-3,2021-08-05 17:21:59,257422
-5,-4,3,5,0,0,-1,-5,2021-08-05 17:21:59,257540
4,5,-1,0,3,2,2,5,2021-08-05 17:21:59,257643
1,1,3,-4,-2,-1,-1,-2,2021-08-05 17:21:59,257643
1,-15,4,6,0,1,-2,-2,2021-08-05 17:21:59,257643
0,8,-13,-4,2,2,2,3,2021-08-05 17:21:59,257643
4,6,24,9,-1,-2,0,-2,2021-08-05 17:21:59,278493
-1,-6,-24,-10,2,0,0,0,2021-08-05 17:21:59,278493
2,6,14,13,2,-1,2,2,2021-08-05 17:21:59,278943
-2,-12,-26,-30,-5,-2,-2,-3,2021-08-05 17:21:59,279120
-4,-1,1,-1,-2,-3,-3,-3,2021-08-05 17:21:59,304531
3,5,15,8,2,1,2,5,2021-08-05 17:21:59,304531
-3,-9,-9,-1,-2,0,-1,-2,2021-08-05 17:21:59,304751
0,11,18,15,3,2,1,0,2021-08-05 17:21:59,304751
-4,1,-11,-2,-3,-2,-1,-2,2021-08-05 17:21:59,320548
-3,-7,-6,-14,-4,-4,-3,-2,2021-08-05 17:21:59,336528
1,6,-5,3,2,0,1,3,2021-08-05 17:21:59,352492
1,-4,12,5,-1,-3,-2,-1,2021-08-05 17:21:59,368773
2,-2,-7,1,2,2,3,2,2021-08-05 17:21:59,384642
-2,-4,7,-2,-3,-2,-4,-4,2021-08-05 17:21:59,384642
0,-4,-18,-13,0,1,0,-2,2021-08-05 17:21:59,385038
3,-13,0,3,-3,-2,-1,0,2021-08-05 17:21:59,385265
-3,-3,-3,-1,0,0,0,-3,2021-08-05 17:21:59,385422
2,13,13,12,0,0,0,0,2021-08-05 17:21:59,385539
7,19,-4,-9,-1,1,0,4,2021-08-05 17:21:59,385539
-3,-13,-15,-5,-1,-1,-3,-2,2021-08-05 17:21:59,385539
-4,-6,-7,-4,-2,-2,-3,-2,2021-08-05 17:21:59,385973
1,-2,8,7,1,1,3,1,2021-08-05 17:21:59,385973
-4,-4,8,5,0,0,2,2,2021-08-05 17:21:59,385973
-5,-2,-8,-1,-4,-1,-2,-2,2021-08-05 17:21:59,385973
-2,5,-5,-4,1,-2,-1,-1,2021-08-05 17:21:59,416544
4,1,-5,2,-2,-1,0,0,2021-08-05 17:21:59,432693
0,10,12,-1,-4,-4,-4,-4,2021-08-05 17:21:59,432693
0,1,7,5,-2,0,1,0,2021-08-05 17:21:59,432693
-2,-8,-14,-12,-5,1,-3,-1,2021-08-05 17:21:59,432693
-3,-7,-4,-1,-1,-2,-1,0,2021-08-05 17:21:59,432693
-1,-4,0,1,-1,-3,-1,-1,2021-08-05 17:21:59,432693
-3,-3,2,0,0,-1,-1,-2,2021-08-05 17:21:59,432693
-2,1,2,-2,-2,-3,-2,-2,2021-08-05 17:21:59,448596
1,-5,-15,-11,-1,0,0,-1,2021-08-05 17:21:59,464527
0,-4,1,0,1,1,-1,1,2021-08-05 17:21:59,479494
-1,7,18,7,-1,-2,-1,1,2021-08-05 17:21:59,494669
-1,2,2,10,-2,-2,-3,-1,2021-08-05 17:21:59,494786
-3,-6,-24,-23,-5,0,-1,-3,2021-08-05 17:21:59,494925
2,-5,-1,1,-1,1,1,1,2021-08-05 17:21:59,495023
-1,1,4,-1,0,-1,-2,0,2021-08-05 17:21:59,495023
-2,-1,15,4,0,-1,-2,0,2021-08-05 17:21:59,495112
-2,0,11,7,-1,-1,-2,-3,2021-08-05 17:21:59,495112
1,4,-25,-9,-4,0,1,1,2021-08-05 17:21:59,495112
2,9,9,2,2,1,3,5,2021-08-05 17:21:59,495112
3,-1,-3,-1,0,-1,0,1,2021-08-05 17:21:59,495530
-4,-3,-7,-6,-2,-1,-2,-4,2021-08-05 17:21:59,495644
-1,-3,8,3,2,0,-1,-3,2021-08-05 17:21:59,509680
2,1,-1,2,1,0,-1,-3,2021-08-05 17:21:59,525580
1,12,-6,-8,-2,-1,-1,-2,2021-08-05 17:21:59,541597
-2,1,1,6,1,0,-1,1,2021-08-05 17:21:59,541597
-5,-12,-5,0,-2,-1,-1,-2,2021-08-05 17:21:59,541597
-2,10,1,-7,0,0,-1,-2,2021-08-05 17:21:59,541597
-1,-7,2,1,0,0,-2,-3,2021-08-05 17:21:59,541597
-3,2,5,2,-1,-3,-2,-2,2021-08-05 17:21:59,541597
-1,-13,-6,-3,-1,0,-1,2,2021-08-05 17:21:59,541597
-2,-3,-2,1,-1,0,2,-2,2021-08-05 17:21:59,541597
-1,1,3,3,0,-1,3,-1,2021-08-05 17:21:59,571598
-3,-1,-1,-2,-2,-4,-4,-3,2021-08-05 17:21:59,586683
0,1,-2,2,1,0,0,0,2021-08-05 17:21:59,586683
-4,-6,-6,-2,-3,-2,-2,-3,2021-08-05 17:21:59,586683
0,0,-8,-4,-2,2,-1,-1,2021-08-05 17:21:59,586683
-2,-2,2,1,0,0,-1,-1,2021-08-05 17:21:59,586683
-2,1,2,0,0,-2,-2,-4,2021-08-05 17:21:59,586683
1,1,4,-1,0,0,1,2,2021-08-05 17:21:59,586683
-4,-9,-3,-3,-4,-2,-1,-4,2021-08-05 17:21:59,598580
0,-2,-11,-6,-1,-2,0,0,2021-08-05 17:21:59,598580
1,2,1,1,1,0,1,0,2021-08-05 17:21:59,617727
-1,-4,-4,-2,-3,-1,-2,2,2021-08-05 17:21:59,617751
-1,-1,3,2,-1,-2,-2,-4,2021-08-05 17:21:59,617837
3,3,5,7,1,1,3,5,2021-08-05 17:21:59,617944
-3,2,-4,-7,-3,0,-2,-2,2021-08-05 17:21:59,617944
-5,-8,-5,0,-4,-3,-4,-4,2021-08-05 17:21:59,618181
2,2,2,1,2,2,2,3,2021-08-05 17:21:59,648644
-1,0,-1,-1,-2,-2,-2,-1,2021-08-05 17:21:59,648644
-5,-5,-10,-11,-5,-3,-2,-5,2021-08-05 17:21:59,648644
1,5,5,1,2,1,-1,-2,2021-08-05 17:21:59,648644
-1,-24,-7,2,1,-1,-1,-1,2021-08-05 17:21:59,664701
1,22,1,1,2,2,2,2,2021-08-05 17:21:59,679665
3,-7,-1,-1,-4,-2,0,1,2021-08-05 17:21:59,679742
-5,-5,-6,-3,-3,-2,-2,-3,2021-08-05 17:21:59,679742
-1,12,4,0,-1,-2,-4,-1,2021-08-05 17:21:59,679742
-1,-32,1,7,3,2,2,2,2021-08-05 17:21:59,679742
-1,20,1,0,-1,-2,-1,-4,2021-08-05 17:21:59,694723
3,5,8,6,0,-2,4,4,2021-08-05 17:21:59,694723
-4,-2,-11,-14,-5,-3,-2,-4,2021-08-05 17:21:59,710613
-3,-9,-1,-3,-1,0,-1,-3,2021-08-05 17:21:59,710613
-2,2,0,1,1,-1,-1,0,2021-08-05 17:21:59,710613
0,-7,-1,0,0,1,-1,-1,2021-08-05 17:21:59,710613
0,1,7,7,2,-2,1,2,2021-08-05 17:21:59,726546
-1,2,-4,-4,-1,-2,0,-1,2021-08-05 17:21:59,726546
-1,-5,-3,-6,-2,-3,-3,0,2021-08-05 17:21:59,726546
-3,3,-3,0,0,0,-2,-4,2021-08-05 17:21:59,726546
-2,-4,-2,-3,0,2,-1,2,2021-08-05 17:21:59,742703
2,3,3,3,-2,0,-1,-1,2021-08-05 17:21:59,758767
0,0,10,9,1,-1,1,2,2021-08-05 17:21:59,774803
-4,-5,-12,-10,-3,-3,-4,-5,2021-08-05 17:21:59,774803
-1,-2,-4,-3,-1,-1,1,0,2021-08-05 17:21:59,774803
2,1,2,2,-2,-1,0,0,2021-08-05 17:21:59,774803
0,-5,0,-2,-2,0,-2,-1,2021-08-05 17:21:59,774803
2,-1,4,0,-1,0,-1,1,2021-08-05 17:21:59,774803
0,3,6,2,1,0,0,-3,2021-08-05 17:21:59,790597
0,1,2,4,2,1,0,1,2021-08-05 17:21:59,790597
-3,-5,-10,-11,-4,-2,-3,-4,2021-08-05 17:21:59,790817
1,-4,-5,-5,-1,1,3,1,2021-08-05 17:21:59,790817
0,1,-2,-1,0,0,1,4,2021-08-05 17:21:59,806586
1,2,0,-1,1,-1,0,0,2021-08-05 17:21:59,821597
-5,-5,3,5,3,2,-1,-4,2021-08-05 17:21:59,821597
0,-7,-2,3,1,1,1,-1,2021-08-05 17:21:59,821597
1,15,4,1,2,0,-1,-3,2021-08-05 17:21:59,821597
4,5,4,1,-4,-5,-4,-3,2021-08-05 17:21:59,821597
0,14,-3,-4,-4,-3,-2,-1,2021-08-05 17:21:59,822077
-2,0,-5,-6,-5,-4,-2,0,2021-08-05 17:21:59,822077
-1,-7,-4,1,-1,1,1,3,2021-08-05 17:21:59,853670
-2,-4,0,0,0,0,2,1,2021-08-05 17:21:59,853778
-4,-13,1,1,1,0,1,0,2021-08-05 17:21:59,853883
-1,11,-9,-5,0,0,0,-2,2021-08-05 17:21:59,853883
2,3,1,-1,-2,0,-3,-2,2021-08-05 17:21:59,869720
-5,-5,-4,-5,-3,1,-1,0,2021-08-05 17:21:59,869720
1,-2,2,3,-1,0,0,2,2021-08-05 17:21:59,869720
0,-4,7,7,2,-2,0,1,2021-08-05 17:21:59,869720
-3,-3,-5,-5,-2,-2,-3,-5,2021-08-05 17:21:59,885583
1,0,-9,-4,1,0,-2,1,2021-08-05 17:21:59,885583
0,-4,-2,1,1,0,-1,-1,2021-08-05 17:21:59,885583
1,-1,8,1,-2,1,-1,1,2021-08-05 17:21:59,885951
-3,1,-2,-1,-4,-2,-2,-5,2021-08-05 17:21:59,917773
-1,-4,2,1,-5,-2,-1,-1,2021-08-05 17:21:59,917773
-2,0,-2,-3,-3,-1,-3,-4,2021-08-05 17:21:59,917914
1,0,1,0,4,1,1,0,2021-08-05 17:21:59,918083
5,-1,-1,-1,-1,-1,1,3,2021-08-05 17:21:59,918083
-2,-1,0,0,-1,-2,-1,-4,2021-08-05 17:21:59,918083
-2,-2,4,2,-1,-1,0,1,2021-08-05 17:21:59,922731
0,-2,-5,-4,-1,-1,-1,0,2021-08-05 17:21:59,922731
-1,-5,-7,-4,-1,0,-2,-2,2021-08-05 17:21:59,949649
-2,2,-2,-5,-1,-2,-3,-2,2021-08-05 17:21:59,949649
0,-2,0,-2,0,-1,1,0,2021-08-05 17:21:59,949649
0,-1,5,5,2,1,-1,0,2021-08-05 17:21:59,949649
-2,4,2,3,0,-1,1,-1,2021-08-05 17:21:59,965543
4,6,-3,-3,0,0,0,2,2021-08-05 17:21:59,965543
-2,-2,2,-1,-1,-1,-2,-3,2021-08-05 17:21:59,965543
-1,-1,0,-1,-2,-2,-2,-1,2021-08-05 17:21:59,965543
-4,-11,-6,-7,-2,-1,-1,0,2021-08-05 17:21:59,981715
4,4,2,3,2,2,1,1,2021-08-05 17:21:59,981715
-2,-3,0,3,0,1,-1,-1,2021-08-05 17:21:59,981715
-2,1,-5,-6,-4,-2,-1,-2,2021-08-05 17:21:59,981715
-4,-3,-2,-2,-3,-3,-2,-4,2021-08-05 17:22:00,011684
-3,-5,0,-2,0,-1,-2,0,2021-08-05 17:22:00,011684
1,7,4,0,0,-2,-1,2,2021-08-05 17:22:00,011684
0,3,-6,-1,1,-1,-1,0,2021-08-05 17:22:00,011684
-2,-2,0,-2,-2,-2,-1,-1,2021-08-05 17:22:00,027583
0,-1,0,0,0,-1,1,0,2021-08-05 17:22:00,043636
0,-7,0,0,0,-1,1,2,2021-08-05 17:22:00,059596
-5,-2,2,-2,-3,-3,-2,-3,2021-08-05 17:22:00,059596
2,3,0,0,1,1,0,2,2021-08-05 17:22:00,059596
1,-3,7,8,1,0,-1,-1,2021-08-05 17:22:00,059596
-1,0,-9,-6,0,-1,-1,-1,2021-08-05 17:22:00,059596
0,1,0,-1,-2,-2,-1,-2,2021-08-05 17:22:00,059596
-1,-6,-2,-3,-1,-1,-1,0,2021-08-05 17:22:00,059596
-1,3,-2,-2,-1,-1,0,0,2021-08-05 17:22:00,060545
0,-3,2,1,-1,-1,-1,-3,2021-08-05 17:22:00,060545
-1,-5,-3,-1,-1,1,-2,-1,2021-08-05 17:22:00,060545
2,1,3,4,2,-1,0,1,2021-08-05 17:22:00,105598
-9,-6,-8,-10,-7,-4,-7,-11,2021-08-05 17:22:00,105598
3,2,-2,-1,0,0,1,3,2021-08-05 17:22:00,105598
2,0,-1,3,4,1,4,3,2021-08-05 17:22:00,105598
-5,-33,5,7,-2,-1,1,-1,2021-08-05 17:22:00,105598
-2,28,0,-8,-3,-2,-2,-4,2021-08-05 17:22:00,105598
0,6,-2,-4,-1,-3,-1,-1,2021-08-05 17:22:00,105598
1,-2,-2,-3,-4,-2,-2,-2,2021-08-05 17:22:00,105598
0,4,-2,2,1,1,0,0,2021-08-05 17:22:00,137706
0,-13,3,0,-3,0,0,-2,2021-08-05 17:22:00,153592
-3,-5,-4,-1,-2,1,0,-5,2021-08-05 17:22:00,153808
-3,0,-1,-1,-1,-1,1,-2,2021-08-05 17:22:00,153808
-1,3,-3,-3,-3,-2,-2,-2,2021-08-05 17:22:00,154018
-1,-8,-2,1,2,0,1,1,2021-08-05 17:22:00,154184
0,7,-1,-2,-2,-2,-2,-2,2021-08-05 17:22:00,154184
-1,-4,-1,0,0,1,0,2,2021-08-05 17:22:00,154305
0,4,1,0,0,-1,-1,-2,2021-08-05 17:22:00,169597
-3,-3,-3,-4,-3,-3,-1,-2,2021-08-05 17:22:00,169597
5,1,-3,1,2,1,2,3,2021-08-05 17:22:00,169597
-1,-3,-1,-1,0,-1,-1,-1,2021-08-05 17:22:00,170187
0,7,3,1,-1,-3,-1,2,2021-08-05 17:22:00,185675
-1,-1,2,9,-1,-1,-1,-2,2021-08-05 17:22:00,185846
-3,-8,-6,-12,-3,-3,-1,-1,2021-08-05 17:22:00,185846
-1,-2,-7,-5,-3,-2,-2,-3,2021-08-05 17:22:00,185846
2,6,0,1,2,0,1,1,2021-08-05 17:22:00,216597
-6,-10,-2,-1,-5,-3,-3,-4,2021-08-05 17:22:00,231579
0,1,0,4,1,1,1,1,2021-08-05 17:22:00,231579
-1,1,1,1,-1,-2,-1,-1,2021-08-05 17:22:00,231579
-5,-5,-2,-3,-5,0,-1,-3,2021-08-05 17:22:00,231579
0,1,-10,-3,0,1,1,2,2021-08-05 17:22:00,231579
-2,-9,8,2,-1,-1,-2,-1,2021-08-05 17:22:00,231579
0,13,0,-3,-3,-2,0,0,2021-08-05 17:22:00,231579
1,0,-3,-5,-1,-2,-1,0,2021-08-05 17:22:00,246665
-4,-32,0,-4,-1,-2,-2,-5,2021-08-05 17:22:00,249579
2,14,2,1,1,0,0,2,2021-08-05 17:22:00,249579
-1,-1,1,-2,0,-1,-1,-1,2021-08-05 17:22:00,249579
-4,-13,1,-1,-2,1,0,-1,2021-08-05 17:22:00,278701
2,15,-3,1,2,2,3,4,2021-08-05 17:22:00,278701
-1,-6,3,0,-4,-3,-2,-3,2021-08-05 17:22:00,278701
1,-4,1,3,2,2,0,-2,2021-08-05 17:22:00,278701
-2,1,-4,-3,-1,-2,-2,-3,2021-08-05 17:22:00,294596
0,-3,5,4,2,2,1,4,2021-08-05 17:22:00,310583
2,1,-3,-6,-2,-2,-2,-3,2021-08-05 17:22:00,310583
0,-6,-13,-5,-2,0,1,1,2021-08-05 17:22:00,310583
2,5,6,3,1,0,1,0,2021-08-05 17:22:00,310583
-2,1,-6,-3,-2,-2,-4,-5,2021-08-05 17:22:00,310583
2,5,6,7,4,1,1,4,2021-08-05 17:22:00,310583
0,-6,8,5,-2,-2,-2,-2,2021-08-05 17:22:00,310583
-5,1,-10,-12,-2,1,-2,0,2021-08-05 17:22:00,326632
4,7,-2,-3,0,0,0,2,2021-08-05 17:22:00,342544
-3,-2,-4,-1,-1,-1,0,0,2021-08-05 17:22:00,342544
-2,-8,0,-1,-3,-2,-2,-2,2021-08-05 17:22:00,342544
-3,3,2,-3,-2,-2,-3,-3,2021-08-05 17:22:00,342544
-1,-7,2,0,-1,0,0,0,2021-08-05 17:22:00,342544
-2,2,-2,2,4,2,1,1,2021-08-05 17:22:00,342544
-2,1,-4,-3,0,2,-2,-3,2021-08-05 17:22:00,342544
5,11,5,2,-4,-4,-2,0,2021-08-05 17:22:00,372623
-3,-25,-11,-5,-3,0,-3,-4,2021-08-05 17:22:00,372623
-7,-20,-3,2,0,0,0,-2,2021-08-05 17:22:00,372623
3,35,3,2,0,1,2,1,2021-08-05 17:22:00,372623
10,16,0,-3,-1,-1,-1,2,2021-08-05 17:22:00,388662
-3,6,1,-1,-1,-1,-2,-1,2021-08-05 17:22:00,403805
-4,-11,-5,-3,-4,-1,-1,-2,2021-08-05 17:22:00,419690
-5,-15,-1,1,1,-1,-2,-3,2021-08-05 17:22:00,419967
-2,-3,-4,0,1,3,2,1,2021-08-05 17:22:00,419967
-1,5,3,-1,-1,-3,0,-2,2021-08-05 17:22:00,420326
-1,-6,-7,-3,-1,0,-1,-1,2021-08-05 17:22:00,420326
0,-2,1,0,-1,-1,-1,1,2021-08-05 17:22:00,420546
-1,-2,-2,1,1,1,2,-1,2021-08-05 17:22:00,420546
1,5,17,3,-1,0,-1,0,2021-08-05 17:22:00,420795
-1,7,-5,3,-5,-3,-3,-4,2021-08-05 17:22:00,420986
-5,-18,-14,-13,-3,-2,-3,-4,2021-08-05 17:22:00,420986
3,-5,-1,5,5,2,3,5,2021-08-05 17:22:00,449648
-3,2,-3,-3,-2,0,-2,-3,2021-08-05 17:22:00,464575
0,2,6,1,-2,-3,-3,-2,2021-08-05 17:22:00,495629
2,10,11,8,2,-2,0,2,2021-08-05 17:22:00,495629
-6,-9,-9,-4,-3,-3,-2,-5,2021-08-05 17:22:00,495629
1,2,-9,-8,-1,1,-1,0,2021-08-05 17:22:00,495629
1,4,4,0,-2,-1,-1,1,2021-08-05 17:22:00,495629
-3,-13,0,0,-1,0,1,-1,2021-08-05 17:22:00,495629
-4,-13,1,3,2,0,-2,-1,2021-08-05 17:22:00,495629
8,22,3,6,1,0,2,4,2021-08-05 17:22:00,495629
0,-3,-9,-7,-4,-3,-3,-3,2021-08-05 17:22:00,495629
-1,-6,-1,-3,-3,-1,-5,-1,2021-08-05 17:22:00,495629
0,5,4,0,0,0,2,3,2021-08-05 17:22:00,510545
-2,-11,-4,-2,0,-2,-1,-3,2021-08-05 17:22:00,510746
-1,8,0,-2,0,1,2,3,2021-08-05 17:22:00,510846
-1,1,-1,-4,-4,-3,0,-2,2021-08-05 17:22:00,510846
0,-1,0,-1,-5,-1,-3,-1,2021-08-05 17:22:00,525599
-1,-4,-2,-3,1,0,0,1,2021-08-05 17:22:00,540599
-1,-1,4,-2,-3,0,1,-2,2021-08-05 17:22:00,540745
2,3,0,1,1,1,0,2,2021-08-05 17:22:00,540745
-7,-3,-9,1,4,3,2,-2,2021-08-05 17:22:00,540745
-3,2,5,2,-3,-2,-3,-6,2021-08-05 17:22:00,540745
-1,-4,1,2,0,-3,-6,-5,2021-08-05 17:22:00,556546
-1,-2,8,1,-3,-4,-3,-1,2021-08-05 17:22:00,556546
1,8,-2,0,-2,-3,-1,1,2021-08-05 17:22:00,571605
1,-3,-11,-10,-3,0,1,-2,2021-08-05 17:22:00,571605
8,9,1,-1,0,2,3,6,2021-08-05 17:22:00,571605
-1,4,7,-2,-1,0,2,2,2021-08-05 17:22:00,571605
-5,3,3,2,0,-3,-3,-2,2021-08-05 17:22:00,601619
-5,-14,-18,4,2,-1,-1,0,2021-08-05 17:22:00,601825
-3,-13,-5,0,2,1,2,2,2021-08-05 17:22:00,601825
-4,-12,-5,-5,-5,-4,-3,-7,2021-08-05 17:22:00,601825
3,18,5,-1,0,-1,2,0,2021-08-05 17:22:00,601825
1,-1,4,2,-1,0,-2,-1,2021-08-05 17:22:00,602532
-3,5,6,-1,-2,-3,-4,-5,2021-08-05 17:22:00,616531
-3,-31,-2,5,0,-1,-1,0,2021-08-05 17:22:00,622532
1,6,-12,0,0,1,1,0,2021-08-05 17:22:00,622532
2,-7,-9,-9,-6,-3,-2,-3,2021-08-05 17:22:00,623534
1,-1,1,-1,-2,-1,-2,-1,2021-08-05 17:22:00,631979
1,14,5,3,3,1,2,0,2021-08-05 17:22:00,631979
-3,-3,10,-3,-3,-5,-5,-4,2021-08-05 17:22:00,663416
1,-2,-2,7,4,3,5,8,2021-08-05 17:22:00,663416
-6,-3,0,-3,-5,-4,-3,-5,2021-08-05 17:22:00,663416
-1,7,-9,-5,-1,0,1,0,2021-08-05 17:22:00,663416
4,-7,4,0,-1,2,2,0,2021-08-05 17:22:00,663416
-4,4,-4,-3,-6,-6,-4,-4,2021-08-05 17:22:00,663416
-1,5,-3,2,4,1,2,1,2021-08-05 17:22:00,664313
2,-1,-5,2,2,1,1,3,2021-08-05 17:22:00,664313
-3,29,-1,-2,-2,-4,-2,-1,2021-08-05 17:22:00,695377
2,-24,9,3,2,4,2,-1,2021-08-05 17:22:00,710547
-2,-16,1,1,-1,2,1,1,2021-08-05 17:22:00,726552
-3,-9,-10,-1,-1,-1,0,-3,2021-08-05 17:22:00,742547
4,3,-9,-4,-1,-2,-1,0,2021-08-05 17:22:00,757547
-1,35,10,-2,-6,-6,-5,-6,2021-08-05 17:22:00,773549
0,-37,1,3,3,2,2,3,2021-08-05 17:22:00,788954
0,3,-5,-1,1,-1,0,0,2021-08-05 17:22:00,788954
-3,-17,-4,-4,-2,0,-2,-2,2021-08-05 17:22:00,789548
-2,8,-1,1,-2,-4,-4,-2,2021-08-05 17:22:00,789548
1,11,6,1,-1,-2,-3,-3,2021-08-05 17:22:00,789548
-2,5,5,1,-2,0,-1,-1,2021-08-05 17:22:00,789548
0,-16,-11,-2,-1,0,0,0,2021-08-05 17:22:00,789548
-1,-6,-8,-2,-2,-2,-2,-2,2021-08-05 17:22:00,789548
-2,12,-1,-4,-4,-1,-2,-4,2021-08-05 17:22:00,789548
-1,3,-4,2,1,-1,0,0,2021-08-05 17:22:00,790546
-1,51,57,6,-1,-1,-3,-2,2021-08-05 17:22:00,790546
2,-59,-49,-1,3,1,2,0,2021-08-05 17:22:00,790847
-9,4,-26,-9,-1,-1,1,-3,2021-08-05 17:22:00,790847
1,-29,13,-1,-3,-1,-4,-2,2021-08-05 17:22:00,790847
1,-1,1,-1,0,-2,-1,0,2021-08-05 17:22:00,790847
2,73,21,5,0,2,1,3,2021-08-05 17:22:00,790847
3,-47,-8,1,1,0,-1,1,2021-08-05 17:22:00,820275
-2,14,-17,-6,-4,-2,-1,-1,2021-08-05 17:22:00,835691
-2,-4,4,-1,-2,-2,0,-1,2021-08-05 17:22:00,851587
0,3,15,0,0,0,-1,1,2021-08-05 17:22:00,867724
-1,-1,-7,1,-1,-3,-1,0,2021-08-05 17:22:00,867969
-2,-20,11,-2,0,1,-2,-1,2021-08-05 17:22:00,867969
-3,-13,-24,-2,-2,-5,-4,-3,2021-08-05 17:22:00,867969
6,5,14,5,6,6,6,5,2021-08-05 17:22:00,867969
-2,16,2,-3,-4,-3,-3,-4,2021-08-05 17:22:00,868581
2,0,-11,-3,1,-1,1,1,2021-08-05 17:22:00,868581
1,-21,-3,-1,2,4,2,-1,2021-08-05 17:22:00,868581
-5,-1,-2,0,-1,-3,0,0,2021-08-05 17:22:00,868581
0,11,10,0,-3,-3,-2,-2,2021-08-05 17:22:00,868581
3,10,5,2,0,-1,1,1,2021-08-05 17:22:00,868581
-3,-21,-15,-3,-2,0,2,-1,2021-08-05 17:22:00,868581
-4,2,16,0,-1,-2,-2,-1,2021-08-05 17:22:00,869582
2,5,6,4,2,2,1,2,2021-08-05 17:22:00,883665
-4,-10,-21,-8,-4,-4,-4,-6,2021-08-05 17:22:00,883665
-1,4,11,-1,0,1,0,0,2021-08-05 17:22:00,883665
-1,27,-4,-3,-1,-1,-2,-3,2021-08-05 17:22:00,884302
3,37,43,7,3,1,1,3,2021-08-05 17:22:00,899141
-3,-64,-60,-7,-3,-1,0,-1,2021-08-05 17:22:00,899141
1,-12,-17,-3,-2,-1,-2,-3,2021-08-05 17:22:00,899141
-5,-7,13,-3,-8,-6,-7,-5,2021-08-05 17:22:00,899141
0,33,-4,-4,-1,-1,-2,-1,2021-08-05 17:22:00,929153
1,35,37,5,-2,-2,-1,0,2021-08-05 17:22:00,945153
-3,-14,-7,1,2,3,2,1,2021-08-05 17:22:00,960142
1,-10,-10,1,3,1,4,4,2021-08-05 17:22:00,960490
-1,-14,-3,0,-1,0,-1,-2,2021-08-05 17:22:00,960650
1,17,13,3,1,0,0,-1,2021-08-05 17:22:00,960838
-4,-15,-16,-5,-5,-3,-2,0,2021-08-05 17:22:00,960866
0,-1,1,0,-2,3,1,-1,2021-08-05 17:22:00,961028
4,-7,-7,-1,2,2,2,2,2021-08-05 17:22:00,961105
-4,0,-2,-4,-5,-4,-4,-4,2021-08-05 17:22:00,961105
4,15,3,0,0,1,1,2,2021-08-05 17:22:00,961105
-1,-14,2,0,2,1,0,0,2021-08-05 17:22:00,961105
-3,-12,-12,-3,-3,-1,-1,-1,2021-08-05 17:22:00,991294
0,16,5,0,-1,-2,-2,-2,2021-08-05 17:22:00,991294
1,17,20,2,1,-1,-3,0,2021-08-05 17:22:00,991294
-5,-29,-25,-5,-3,-4,-3,-2,2021-08-05 17:22:00,991294
-3,-16,-17,-7,-4,-5,-4,-2,2021-08-05 17:22:00,991294
0,40,14,3,1,2,1,-2,2021-08-05 17:22:00,991294
0,-21,-2,0,0,1,0,1,2021-08-05 17:22:01,007238
3,-1,0,3,1,1,2,3,2021-08-05 17:22:01,023140
-6,-2,-10,-6,-5,-4,-5,-7,2021-08-05 17:22:01,023140
-1,10,9,2,1,1,1,1,2021-08-05 17:22:01,023602
3,2,-3,2,4,2,2,1,2021-08-05 17:22:01,023602
-1,-1,0,-3,-3,-1,-1,-3,2021-08-05 17:22:01,023766
0,-1,2,-1,0,1,2,1,2021-08-05 17:22:01,023766
-1,-4,-3,-3,-4,-2,-3,-2,2021-08-05 17:22:01,023766
-3,-6,-11,-2,-2,-4,-2,-2,2021-08-05 17:22:01,051147
-2,-3,4,0,-2,-2,-3,-1,2021-08-05 17:22:01,051147
3,6,2,2,-1,1,2,0,2021-08-05 17:22:01,051147
-1,-9,3,1,1,3,1,2,2021-08-05 17:22:01,051147
-3,4,0,2,-3,-2,-2,-3,2021-08-05 17:22:01,070145
-3,-7,-5,-6,-5,-3,-2,-3,2021-08-05 17:22:01,086171
-4,-6,-4,-2,-3,-3,-2,-5,2021-08-05 17:22:01,101650
9,5,4,4,8,6,8,12,2021-08-05 17:22:01,117318
-3,-2,-2,0,1,0,-2,-1,2021-08-05 17:22:01,133157
-2,2,2,-1,0,-2,-2,-1,2021-08-05 17:22:01,148196
0,6,4,2,0,0,0,-1,2021-08-05 17:22:01,148326
-6,-14,-3,-1,-3,-3,-3,-4,2021-08-05 17:22:01,148477
0,22,32,2,-1,-1,1,2,2021-08-05 17:22:01,148591
0,-30,-51,-1,4,5,1,3,2021-08-05 17:22:01,148785
3,-1,0,-2,-1,0,1,3,2021-08-05 17:22:01,148785
-4,-43,-4,-7,-5,-5,-7,-7,2021-08-05 17:22:01,148785
1,10,-17,-5,-4,-3,-2,-4,2021-08-05 17:22:01,149103
-1,36,43,-1,-4,-4,-4,-5,2021-08-05 17:22:01,149103
1,-12,-19,3,4,2,2,2,2021-08-05 17:22:01,149103
2,23,0,0,0,-2,1,1,2021-08-05 17:22:01,149103
-5,-5,16,-2,-6,-6,-6,-6,2021-08-05 17:22:01,149103
0,-19,-26,-3,0,0,1,4,2021-08-05 17:22:01,149103
-2,2,2,-2,-2,0,-4,0,2021-08-05 17:22:01,149103
-1,14,7,1,0,1,-1,-1,2021-08-05 17:22:01,149103
-4,-22,-8,3,2,2,2,1,2021-08-05 17:22:01,178252
-1,7,7,3,-3,-3,-2,-3,2021-08-05 17:22:01,194153
-1,3,0,-3,-1,-2,-1,-2,2021-08-05 17:22:01,210139
4,2,2,4,1,2,0,4,2021-08-05 17:22:01,210384
0,-6,-9,-4,-3,-3,-2,-3,2021-08-05 17:22:01,210626
0,9,9,-2,0,-1,1,-1,2021-08-05 17:22:01,210626
0,-2,1,0,-2,-1,-2,-1,2021-08-05 17:22:01,210626
3,32,7,2,2,0,1,1,2021-08-05 17:22:01,210626
-1,-32,-9,0,0,-2,-1,-1,2021-08-05 17:22:01,210626
2,-2,-11,-3,1,0,0,2,2021-08-05 17:22:01,210626
-3,6,11,-1,-2,-3,-2,-3,2021-08-05 17:22:01,211105
-7,-11,-18,-5,-5,-4,-5,-8,2021-08-05 17:22:01,211105
3,36,17,4,3,2,2,4,2021-08-05 17:22:01,240242
-1,-34,-6,-1,-2,-1,0,-2,2021-08-05 17:22:01,256293
2,59,-6,-3,-2,-1,-2,-1,2021-08-05 17:22:01,272297
-4,-69,1,-5,-5,-3,-5,-7,2021-08-05 17:22:01,272297
-2,8,-15,-2,0,-1,0,0,2021-08-05 17:22:01,272572
-1,13,10,-1,-1,-2,-2,-3,2021-08-05 17:22:01,272572
-6,-4,2,-2,-3,-5,-4,-3,2021-08-05 17:22:01,272572
7,23,8,6,5,4,4,7,2021-08-05 17:22:01,272572
-3,-7,-3,-1,1,-1,0,0,2021-08-05 17:22:01,272572
1,0,-3,-1,0,3,2,3,2021-08-05 17:22:01,273138
-5,-26,-9,-4,1,-2,-1,-4,2021-08-05 17:22:01,273138
-1,8,4,-3,-2,0,-1,0,2021-08-05 17:22:01,273138
2,-9,-4,0,-1,1,2,-2,2021-08-05 17:22:01,288136
-3,10,7,4,4,3,2,0,2021-08-05 17:22:01,288136
-2,-11,4,2,-1,-1,-2,-6,2021-08-05 17:22:01,288136
2,1,-8,-1,-2,-3,-5,-4,2021-08-05 17:22:01,288136
3,6,2,-2,-4,-4,-5,-2,2021-08-05 17:22:01,319589
0,4,1,-2,-3,-5,-2,0,2021-08-05 17:22:01,335532
0,-9,-5,-2,-1,-2,0,2,2021-08-05 17:22:01,335557
1,-3,-1,0,0,1,2,5,2021-08-05 17:22:01,335557
2,13,-5,-2,-2,1,0,1,2021-08-05 17:22:01,335986
-1,-17,0,-1,-3,-1,-1,-4,2021-08-05 17:22:01,335986
0,-12,-7,-1,2,1,1,2,2021-08-05 17:22:01,336107
-4,33,18,1,-3,-6,-1,-3,2021-08-05 17:22:01,336224
2,-14,4,2,3,4,2,2,2021-08-05 17:22:01,350744
1,2,-33,-3,2,0,-1,0,2021-08-05 17:22:01,366767
-1,-19,6,-2,-2,-3,-2,-3,2021-08-05 17:22:01,382833
-5,3,-7,-1,-3,-2,-3,-5,2021-08-05 17:22:01,382913
-2,0,7,-5,-5,-4,-4,-5,2021-08-05 17:22:01,383105
0,39,36,5,2,-2,-2,-2,2021-08-05 17:22:01,383105
3,-53,-32,1,4,1,2,5,2021-08-05 17:22:01,383105
2,-2,-10,-3,0,1,1,2,2021-08-05 17:22:01,383105
-6,-4,1,-1,-4,-2,-4,-3,2021-08-05 17:22:01,383105
-3,2,3,0,-2,-2,-4,-1,2021-08-05 17:22:01,383711
-3,20,10,1,-3,-2,-1,-5,2021-08-05 17:22:01,398715
-3,-20,-3,-1,0,-4,0,-1,2021-08-05 17:22:01,398857
1,7,-10,2,4,2,2,2,2021-08-05 17:22:01,402712
-1,-8,-1,-4,-6,-4,-3,-2,2021-08-05 17:22:01,402712
1,28,29,4,0,1,-1,-1,2021-08-05 17:22:01,402712
-4,-31,-23,-2,-1,0,0,-3,2021-08-05 17:22:01,403713
1,-6,-20,-4,0,2,0,-2,2021-08-05 17:22:01,429959
-3,-28,13,1,-3,-1,-2,-3,2021-08-05 17:22:01,429959
2,-3,-19,-3,0,-1,0,1,2021-08-05 17:22:01,429959
-1,11,9,-2,-3,-2,-2,-3,2021-08-05 17:22:01,429959
-8,-2,20,1,-1,-3,-3,-2,2021-08-05 17:22:01,445109
6,2,-11,4,6,4,5,6,2021-08-05 17:22:01,460677
-1,5,-6,-2,0,0,1,1,2021-08-05 17:22:01,476677
-1,0,8,-3,-3,-3,-3,-3,2021-08-05 17:22:01,476677
3,-6,-17,-4,-2,-3,-3,-3,2021-08-05 17:22:01,476677
-4,1,7,-1,-3,0,-1,-2,2021-08-05 17:22:01,476677
4,5,11,3,1,1,0,1,2021-08-05 17:22:01,476677
1,23,-3,2,1,2,3,3,2021-08-05 17:22:01,476677
-6,-27,0,0,-2,-1,-2,-4,2021-08-05 17:22:01,492797
-3,5,-1,-3,-3,-4,-4,-6,2021-08-05 17:22:01,492797
1,-8,-4,-1,-1,-1,-3,-2,2021-08-05 17:22:01,508828
-2,3,-2,-1,0,1,0,2,2021-08-05 17:22:01,508828
1,10,5,1,0,0,0,-2,2021-08-05 17:22:01,508828
1,32,13,0,-1,-3,-1,1,2021-08-05 17:22:01,509201
-1,-45,-19,-1,1,1,1,0,2021-08-05 17:22:01,509201
-1,-17,3,-2,-1,0,1,0,2021-08-05 17:22:01,509201
-4,21,7,-5,-4,-6,-4,-6,2021-08-05 17:22:01,539916
-1,-30,-26,-2,1,2,3,1,2021-08-05 17:22:01,555802
2,36,9,0,0,0,1,0,2021-08-05 17:22:01,555802
-1,-15,-1,-1,0,-1,-2,-2,2021-08-05 17:22:01,555979
2,-2,-5,1,1,1,0,4,2021-08-05 17:22:01,555979
-4,-11,6,-3,-3,-2,-1,-2,2021-08-05 17:22:01,555979
-5,3,0,-2,-3,-2,-4,-4,2021-08-05 17:22:01,555979
6,8,-4,4,2,1,1,1,2021-08-05 17:22:01,555979
-1,9,2,0,-1,-1,-1,-1,2021-08-05 17:22:01,571714
5,-2,4,2,2,3,2,4,2021-08-05 17:22:01,572001
-2,-1,2,-1,-1,-1,0,-1,2021-08-05 17:22:01,572001
-4,0,7,-2,-2,-2,-1,-3,2021-08-05 17:22:01,572001
-1,6,-19,-1,0,0,2,1,2021-08-05 17:22:01,603136
-4,-26,-8,-4,-4,-4,-5,-7,2021-08-05 17:22:01,603136
2,-3,-9,-3,-2,0,-1,1,2021-08-05 17:22:01,603136
-5,15,7,-4,-5,-4,-4,-4,2021-08-05 17:22:01,603502
1,-15,3,3,4,3,3,4,2021-08-05 17:22:01,603675
0,4,-2,0,1,-2,0,-1,2021-08-05 17:22:01,603675
0,28,27,0,-3,-3,-3,-3,2021-08-05 17:22:01,618754
6,-3,-25,1,2,0,2,1,2021-08-05 17:22:01,634711
-13,-56,-20,-7,-3,-2,-1,-4,2021-08-05 17:22:01,634919
-5,1,-1,-4,-2,-2,-1,0,2021-08-05 17:22:01,634919
0,3,7,1,-2,-2,-4,-2,2021-08-05 17:22:01,634919
4,29,15,2,3,2,-1,5,2021-08-05 17:22:01,634919
4,-5,-7,0,1,-2,-1,-2,2021-08-05 17:22:01,650804
5,3,2,5,5,5,5,5,2021-08-05 17:22:01,650804
-4,3,2,-4,-4,0,0,-1,2021-08-05 17:22:01,650804
-3,-11,-6,-3,-4,-1,-2,-3,2021-08-05 17:22:01,650804
-1,9,8,-1,-2,-2,-1,-3,2021-08-05 17:22:01,666712
1,0,2,-3,-2,-1,0,0,2021-08-05 17:22:01,682773
0,20,-4,2,-1,-1,1,-1,2021-08-05 17:22:01,682773
-3,-37,1,-2,0,0,0,-1,2021-08-05 17:22:01,682773
-2,-5,0,-3,-1,-1,-2,-1,2021-08-05 17:22:01,698780
-2,16,-5,-1,-1,-3,-2,-1,2021-08-05 17:22:01,714893
1,-12,-6,-1,2,0,0,-1,2021-08-05 17:22:01,714893
-2,9,8,2,-1,0,-1,-1,2021-08-05 17:22:01,714893
1,9,-9,0,-1,-3,-1,0,2021-08-05 17:22:01,714893
-2,-13,2,-1,-3,-2,-3,-3,2021-08-05 17:22:01,714893
-2,0,9,3,3,0,1,3,2021-08-05 17:22:01,714893
0,-8,-19,-3,-4,-3,-2,-1,2021-08-05 17:22:01,715597
3,2,5,0,-1,1,0,0,2021-08-05 17:22:01,729782
-1,13,-4,-3,-2,0,-3,-4,2021-08-05 17:22:01,736716
-2,-40,-13,-1,-1,-1,1,0,2021-08-05 17:22:01,736716
-5,12,2,-4,-3,-4,-5,-3,2021-08-05 17:22:01,736716
4,9,12,3,0,3,2,4,2021-08-05 17:22:01,760346
-1,28,-2,-3,-2,-1,-1,-1,2021-08-05 17:22:01,776331
-3,-33,-3,0,-1,0,-3,-4,2021-08-05 17:22:01,776331
4,1,-4,2,3,2,2,1,2021-08-05 17:22:01,776331
-3,6,2,-5,-3,-3,0,1,2021-08-05 17:22:01,776331
0,-1,5,2,1,0,1,3,2021-08-05 17:22:01,776331
2,63,-1,-1,2,4,0,1,2021-08-05 17:22:01,776331
-2,-34,5,3,-2,-1,-2,-1,2021-08-05 17:22:01,776331
-1,-31,-12,-4,-3,-3,-3,-4,2021-08-05 17:22:01,792348
-2,-15,-6,-1,-1,1,-1,-1,2021-08-05 17:22:01,792486
-7,13,-5,-6,-6,-6,-6,-5,2021-08-05 17:22:01,792486
2,25,25,1,-1,0,0,-2,2021-08-05 17:22:01,792820
0,10,-21,0,0,-2,-1,0,2021-08-05 17:22:01,824295
-1,-16,-5,-6,-2,-3,-1,-3,2021-08-05 17:22:01,824295
3,-16,-4,0,2,0,2,1,2021-08-05 17:22:01,824580
-5,66,21,-2,-5,-4,-3,-5,2021-08-05 17:22:01,824580
6,-57,11,9,9,7,4,7,2021-08-05 17:22:01,824580
9,-1,-15,-1,-2,-2,-2,-2,2021-08-05 17:22:01,824580
-12,-8,-9,-6,-7,-4,-4,-5,2021-08-05 17:22:01,840330
-8,-7,-8,-8,-6,-4,-3,-4,2021-08-05 17:22:01,840455
0,26,7,-5,-6,-4,-4,-6,2021-08-05 17:22:01,856408
0,-3,2,1,4,3,2,3,2021-08-05 17:22:01,872413
10,-3,13,9,4,3,3,4,2021-08-05 17:22:01,872413
1,-12,-11,3,3,1,2,2,2021-08-05 17:22:01,872413
-6,16,5,-1,-3,-3,-2,-2,2021-08-05 17:22:01,872413
-4,-15,0,-2,-5,-4,-3,-6,2021-08-05 17:22:01,872413
2,0,-3,-2,0,0,1,2,2021-08-05 17:22:01,872413
-3,-19,-19,-3,-1,-1,-1,0,2021-08-05 17:22:01,872413
1,16,7,-1,-2,-2,-1,-3,2021-08-05 17:22:01,903296
-4,10,11,1,-1,-1,-2,-1,2021-08-05 17:22:01,903296
-1,27,7,-1,1,1,-1,2,2021-08-05 17:22:01,903480
2,-46,-21,0,3,2,1,4,2021-08-05 17:22:01,903480
-2,-4,-6,-6,-3,-3,-5,-4,2021-08-05 17:22:01,903480
5,15,8,1,-1,2,0,1,2021-08-05 17:22:01,903480
-3,-8,-1,-2,-2,-2,-1,-1,2021-08-05 17:22:01,918444
2,32,13,-1,-2,-1,0,-2,2021-08-05 17:22:01,918444
1,-8,9,2,1,0,0,1,2021-08-05 17:22:01,934348
-3,-19,-24,-3,-1,0,-1,1,2021-08-05 17:22:01,934478
3,18,8,-2,-2,-1,-1,-2,2021-08-05 17:22:01,934478
2,-5,9,0,-1,-3,-3,-1,2021-08-05 17:22:01,934478
-8,-25,-22,0,0,2,0,-1,2021-08-05 17:22:01,950450
-5,-6,14,1,-3,-2,-3,-3,2021-08-05 17:22:01,950450
9,-19,-18,2,1,2,2,1,2021-08-05 17:22:01,950450
-4,6,-3,-9,-4,-4,-5,-6,2021-08-05 17:22:01,950450
1,46,16,6,5,6,2,5,2021-08-05 17:22:01,981347
2,-26,-7,0,2,1,1,1,2021-08-05 17:22:01,996471
-3,5,6,-1,-3,-4,-2,-3,2021-08-05 17:22:02,012429
0,-21,-3,1,-2,-2,-2,-3,2021-08-05 17:22:02,012603
3,12,3,1,2,0,2,2,2021-08-05 17:22:02,012673
-4,9,2,-3,-3,-4,-2,-3,2021-08-05 17:22:02,012673
1,-13,3,1,1,-1,1,2,2021-08-05 17:22:02,012814
-3,-6,-10,-2,-3,-2,-1,-4,2021-08-05 17:22:02,013002
1,2,-1,-4,-3,-1,-2,-1,2021-08-05 17:22:02,013002
1,9,2,0,-1,1,1,0,2021-08-05 17:22:02,028581
-5,-20,-3,-3,-5,-4,-3,-2,2021-08-05 17:22:02,044420
-1,4,0,0,1,1,0,2,2021-08-05 17:22:02,044420
-1,3,0,-2,-4,-4,-3,-4,2021-08-05 17:22:02,044420
2,25,-2,-1,0,1,1,1,2021-08-05 17:22:02,044420
-2,-30,2,-1,0,0,2,4,2021-08-05 17:22:02,044990
-3,7,-13,0,0,2,1,2,2021-08-05 17:22:02,044990
3,-14,0,-2,-2,-1,-1,-1,2021-08-05 17:22:02,056332
-7,7,5,5,3,2,-2,-7,2021-08-05 17:22:02,056332
-3,20,16,4,1,0,-1,-4,2021-08-05 17:22:02,056332
1,-36,-24,-1,1,-1,-2,0,2021-08-05 17:22:02,056332
4,34,16,-2,-5,-4,-3,-1,2021-08-05 17:22:02,076377
0,-13,-3,-6,-5,-7,-2,0,2021-08-05 17:22:02,076377
-4,-48,-38,-4,-1,2,1,3,2021-08-05 17:22:02,092329
-2,9,6,-3,-5,-3,-3,-3,2021-08-05 17:22:02,092329
-2,6,-9,-6,-1,-2,-2,-2,2021-08-05 17:22:02,092329
0,4,17,-1,-2,-2,-2,-2,2021-08-05 17:22:02,092329
-1,18,2,0,-1,0,2,-1,2021-08-05 17:22:02,092329
6,26,4,5,4,4,4,6,2021-08-05 17:22:02,092329
-7,-49,-6,0,1,1,0,-1,2021-08-05 17:22:02,124343
2,9,-2,3,2,3,-1,2,2021-08-05 17:22:02,124343
-2,23,0,-6,-4,-5,-6,-6,2021-08-05 17:22:02,124343
-3,-38,-1,2,0,-1,-2,-3,2021-08-05 17:22:02,124343
-1,13,5,-1,-2,-3,-3,-2,2021-08-05 17:22:02,124343
-5,4,-8,1,0,-1,2,0,2021-08-05 17:22:02,124343
-1,-22,-13,-1,-3,0,-2,-5,2021-08-05 17:22:02,140431
1,15,13,1,1,0,0,-2,2021-08-05 17:22:02,140431
0,5,-4,-5,-2,-2,-1,-1,2021-08-05 17:22:02,156446
4,-1,5,0,1,0,4,3,2021-08-05 17:22:02,156446
6,-22,-18,0,-1,0,-1,-1,2021-08-05 17:22:02,156446
-19,-4,5,-5,-5,-3,-1,-2,2021-08-05 17:22:02,156446
5,2,-3,5,3,5,3,1,2021-08-05 17:22:02,172329
1,-1,4,-2,-1,-3,-1,1,2021-08-05 17:22:02,188344
3,-21,9,1,1,0,0,0,2021-08-05 17:22:02,188344
1,-7,-6,2,1,0,-2,-4,2021-08-05 17:22:02,188344
-5,-14,-17,-3,-1,-3,0,-2,2021-08-05 17:22:02,203480
-5,-4,-9,-6,-6,-2,-3,-2,2021-08-05 17:22:02,203701
5,23,13,-2,-3,-2,-2,-1,2021-08-05 17:22:02,203701
5,0,2,-1,1,1,3,5,2021-08-05 17:22:02,204021
-2,7,6,3,2,1,0,-1,2021-08-05 17:22:02,204021
4,-2,-6,2,2,3,1,1,2021-08-05 17:22:02,204294
-7,1,-4,-1,-3,-3,-3,-1,2021-08-05 17:22:02,204439
-3,0,-2,0,-2,0,0,-3,2021-08-05 17:22:02,204547
-2,7,6,-2,-2,-2,-4,-2,2021-08-05 17:22:02,235329
0,-5,1,-1,0,-1,-1,-2,2021-08-05 17:22:02,235329
-2,4,0,-1,2,1,0,2,2021-08-05 17:22:02,235329
3,27,1,2,1,-1,-1,-2,2021-08-05 17:22:02,235329
0,-23,-5,-4,-3,-3,-3,-3,2021-08-05 17:22:02,251330
-2,-35,2,0,0,-2,-1,-2,2021-08-05 17:22:02,251487
-1,40,7,1,0,1,2,1,2021-08-05 17:22:02,251487
3,-7,-7,0,1,1,-1,1,2021-08-05 17:22:02,251487
1,6,11,0,-3,0,-2,-1,2021-08-05 17:22:02,282295
-2,-16,-5,0,-2,-1,-2,-3,2021-08-05 17:22:02,282295
0,-36,-14,2,3,4,3,2,2021-08-05 17:22:02,282295
-11,15,5,-8,-9,-7,-5,-5,2021-08-05 17:22:02,282295
7,11,6,3,1,1,2,1,2021-08-05 17:22:02,298332
-2,8,-2,1,0,-1,1,0,2021-08-05 17:22:02,298467
-1,-3,-8,-12,-6,-5,-6,-9,2021-08-05 17:22:02,298467
-15,-19,-17,-3,-1,0,-1,-2,2021-08-05 17:22:02,298622
-1,-1,-3,-4,-5,-3,-2,-2,2021-08-05 17:22:02,314378
7,48,13,6,5,2,0,3,2021-08-05 17:22:02,314378
2,-25,3,6,0,-2,-1,3,2021-08-05 17:22:02,314378
4,8,6,2,4,2,2,1,2021-08-05 17:22:02,314378
-4,1,-4,-1,-2,-1,0,-2,2021-08-05 17:22:02,329486
-4,-4,-12,-7,-6,-4,-3,-6,2021-08-05 17:22:02,329486
-4,5,2,-1,-2,-1,0,-1,2021-08-05 17:22:02,329486
3,-5,6,-1,-2,-1,-2,1,2021-08-05 17:22:02,329486
-2,2,4,2,2,-1,1,2,2021-08-05 17:22:02,361339
-1,-16,-9,-3,-3,0,0,-1,2021-08-05 17:22:02,361560
-4,13,4,0,1,1,-1,-1,2021-08-05 17:22:02,361560
3,-4,1,0,-2,-4,-2,-2,2021-08-05 17:22:02,361560
-2,-1,-4,-1,-2,-1,-1,-1,2021-08-05 17:22:02,361560
1,2,-5,-3,1,0,0,4,2021-08-05 17:22:02,361560
-4,16,10,0,-1,1,1,-2,2021-08-05 17:22:02,377484
0,-19,-7,-3,-3,-1,-2,-3,2021-08-05 17:22:02,377484
4,45,9,5,6,4,3,5,2021-08-05 17:22:02,393437
0,11,-13,-1,-2,-1,-1,-1,2021-08-05 17:22:02,409338
-3,-56,-13,-4,-4,-1,-3,-1,2021-08-05 17:22:02,425420
6,17,9,1,0,-1,-1,2,2021-08-05 17:22:02,425535
-14,-30,-9,-8,-4,-3,-3,-4,2021-08-05 17:22:02,425535
-3,13,6,-4,-2,-1,-3,-4,2021-08-05 17:22:02,425535
0,30,5,0,-1,-2,-3,-3,2021-08-05 17:22:02,425535
6,1,0,6,5,4,5,4,2021-08-05 17:22:02,425535
5,-15,2,5,1,0,1,2,2021-08-05 17:22:02,425535
-3,-7,-13,-9,-4,-4,-3,-8,2021-08-05 17:22:02,425535
-11,-11,-9,-5,0,-1,-3,-2,2021-08-05 17:22:02,441488
1,-4,5,1,0,-2,-3,-2,2021-08-05 17:22:02,441488
0,23,7,5,0,1,1,2,2021-08-05 17:22:02,457464
0,-29,5,8,6,3,3,2,2021-08-05 17:22:02,473304
1,12,-7,-7,-2,-1,-2,-3,2021-08-05 17:22:02,504369
-1,4,-7,-10,-3,-1,-2,0,2021-08-05 17:22:02,504369
0,-9,-5,-1,-1,-2,-1,0,2021-08-05 17:22:02,504369
-3,-2,6,2,-6,-2,-3,-1,2021-08-05 17:22:02,504369
3,7,8,7,4,2,4,3,2021-08-05 17:22:02,504369
-2,3,-1,0,-1,0,0,-2,2021-08-05 17:22:02,504369
-6,-18,-11,-6,-7,-5,-4,-5,2021-08-05 17:22:02,504369
-1,2,6,-1,2,1,3,3,2021-08-05 17:22:02,504369
1,12,8,4,2,1,1,1,2021-08-05 17:22:02,504369
-1,3,4,1,0,0,0,-1,2021-08-05 17:22:02,504369
-4,-16,-26,-4,-3,-3,-3,-6,2021-08-05 17:22:02,504369
3,-14,-8,-1,0,2,2,6,2021-08-05 17:22:02,504369
-1,58,22,1,-4,-6,-4,-5,2021-08-05 17:22:02,504369
-1,-49,-12,-2,0,0,1,1,2021-08-05 17:22:02,505352
1,47,7,-5,-1,1,-1,1,2021-08-05 17:22:02,535382
-1,-30,-3,1,-1,-2,-2,-4,2021-08-05 17:22:02,551338
-7,-15,-16,-3,-2,-2,-2,-1,2021-08-05 17:22:02,551468
6,-12,12,9,-1,-1,-1,2,2021-08-05 17:22:02,551683
-3,4,8,-1,1,0,-2,-5,2021-08-05 17:22:02,551683
-11,10,-15,-12,-6,-4,-3,-3,2021-08-05 17:22:02,551683
5,-4,4,1,0,3,1,2,2021-08-05 17:22:02,551683
-4,-8,-9,-2,-1,-1,-1,-2,2021-08-05 17:22:02,551683
5,-21,-4,0,2,2,1,1,2021-08-05 17:22:02,567355
-2,54,26,1,-3,-4,-5,-6,2021-08-05 17:22:02,567355
8,-74,-10,6,7,6,6,8,2021-08-05 17:22:02,567355
-5,6,-7,3,1,1,1,0,2021-08-05 17:22:02,567355
-7,-1,-6,-4,-7,-6,-5,-6,2021-08-05 17:22:02,598304
1,-14,-11,-6,1,-1,0,-3,2021-08-05 17:22:02,613431
-1,36,12,-5,-3,-4,-3,-3,2021-08-05 17:22:02,613431
7,65,14,6,3,2,2,3,2021-08-05 17:22:02,613431
-1,-73,-2,3,3,2,2,0,2021-08-05 17:22:02,613431
-5,17,-8,-5,-5,-2,-4,0,2021-08-05 17:22:02,613431
-1,-8,-15,-5,-8,-5,-2,-4,2021-08-05 17:22:02,613431
2,53,27,4,0,-1,1,1,2021-08-05 17:22:02,614302
-2,-26,-6,10,4,4,2,5,2021-08-05 17:22:02,628338
0,-16,-11,-4,-2,-1,-1,-2,2021-08-05 17:22:02,628338
-3,0,-20,-18,-6,-6,-4,-4,2021-08-05 17:22:02,643429
-2,-8,-3,-6,-3,-5,-4,-4,2021-08-05 17:22:02,643429
1,34,22,5,0,0,0,2,2021-08-05 17:22:02,659444
4,-12,17,18,10,6,4,6,2021-08-05 17:22:02,674390
-4,24,2,1,-2,-1,0,-3,2021-08-05 17:22:02,674390
-6,-30,-31,-10,-5,-3,-2,-5,2021-08-05 17:22:02,674390
-2,-31,-11,-14,-3,-4,-3,-3,2021-08-05 17:22:02,674390
2,2,0,1,-1,-2,0,0,2021-08-05 17:22:02,674390
5,28,12,10,3,1,2,3,2021-08-05 17:22:02,674390
-9,-30,0,-1,-1,2,0,1,2021-08-05 17:22:02,674390
-1,15,-8,-4,-5,-3,-3,-3,2021-08-05 17:22:02,689410
-12,2,12,2,-2,-2,-1,-1,2021-08-05 17:22:02,689573
3,-3,0,6,2,2,1,-1,2021-08-05 17:22:02,689573
5,72,11,4,1,-1,2,2,2021-08-05 17:22:02,689573
0,-94,-21,-1,0,0,1,0,2021-08-05 17:22:02,720355
-3,35,-9,-10,-5,-6,-6,-8,2021-08-05 17:22:02,720355
5,-11,13,4,1,1,2,8,2021-08-05 17:22:02,720355
-6,-4,-13,0,0,0,-2,-2,2021-08-05 17:22:02,720355
-2,37,7,-4,-3,-2,-3,-4,2021-08-05 17:22:02,736397
1,-19,13,2,0,2,1,0,2021-08-05 17:22:02,751607
-3,-20,-14,3,-1,0,-3,-3,2021-08-05 17:22:02,751607
2,-15,-12,-14,-4,-2,-2,-2,2021-08-05 17:22:02,751607
0,27,5,0,-2,-2,0,0,2021-08-05 17:22:02,751607
-1,-14,2,5,-1,-2,-2,-1,2021-08-05 17:22:02,751607
-1,12,7,4,4,0,0,4,2021-08-05 17:22:02,751607
-3,-46,-16,-4,-1,4,1,0,2021-08-05 17:22:02,751607
-2,29,5,3,-3,-1,-2,-4,2021-08-05 17:22:02,782460
0,-4,-17,-10,-4,-3,0,0,2021-08-05 17:22:02,798340
-4,13,18,4,0,-2,-1,-2,2021-08-05 17:22:02,798340
5,-19,4,11,3,-2,-1,2,2021-08-05 17:22:02,798602
-1,5,-17,-10,3,1,0,1,2021-08-05 17:22:02,798671
0,-19,-2,-4,-4,0,0,-1,2021-08-05 17:22:02,798671
-4,7,8,0,1,-1,-2,-4,2021-08-05 17:22:02,798671
-1,-18,-4,0,-1,-4,-3,-2,2021-08-05 17:22:02,798671
-1,-2,-4,-1,-2,0,0,0,2021-08-05 17:22:02,813313
0,3,5,0,0,-1,-2,-1,2021-08-05 17:22:02,813313
-4,6,-6,-5,-3,-1,0,1,2021-08-05 17:22:02,813313
9,-11,1,8,-1,0,0,-3,2021-08-05 17:22:02,813313
-17,17,-2,-15,-8,-3,-3,-3,2021-08-05 17:22:02,844210
7,34,7,3,2,1,3,4,2021-08-05 17:22:02,844210
4,-40,-18,-7,-2,0,0,-4,2021-08-05 17:22:02,844210
-10,6,10,4,0,-1,-2,-2,2021-08-05 17:22:02,844569
3,2,-1,13,5,1,0,2,2021-08-05 17:22:02,860209
-4,-10,-9,-6,1,1,-1,-5,2021-08-05 17:22:02,876376
-2,10,5,-4,-6,-6,-6,-4,2021-08-05 17:22:02,892273
4,6,4,1,-2,-2,-2,0,2021-08-05 17:22:02,892273
2,-8,-6,-4,0,-1,-1,-1,2021-08-05 17:22:02,892574
-5,35,8,1,-4,-2,-2,0,2021-08-05 17:22:02,892574
1,-36,-20,7,5,5,3,3,2021-08-05 17:22:02,892840
0,2,-8,-8,-1,1,-1,-1,2021-08-05 17:22:02,893058
-6,10,16,-3,-3,-2,-2,-1,2021-08-05 17:22:02,893210
-3,-11,-9,-1,-2,-3,-3,-3,2021-08-05 17:22:02,893368
-9,2,-4,-9,-5,-2,-2,-6,2021-08-05 17:22:02,893368
1,13,19,4,0,0,-1,1,2021-08-05 17:22:02,893543
8,-10,-9,8,5,2,3,4,2021-08-05 17:22:02,924260
-3,-13,-8,5,0,-4,-3,-4,2021-08-05 17:22:02,924260
-3,2,-9,-16,-5,-2,-2,-4,2021-08-05 17:22:02,924260
-4,-4,-11,-11,-6,-5,-3,-4,2021-08-05 17:22:02,924260
4,8,8,3,3,2,2,0,2021-08-05 17:22:02,924260
1,-4,1,3,-1,0,0,2,2021-08-05 17:22:02,924260
0,1,22,15,0,0,0,4,2021-08-05 17:22:02,940294
0,-2,-16,-6,-1,0,-1,0,2021-08-05 17:22:02,956345
0,3,1,-9,-2,-3,-2,-1,2021-08-05 17:22:02,972261
0,7,10,5,1,-2,-1,1,2021-08-05 17:22:02,972261
-3,-32,-22,-6,-1,-2,-4,-3,2021-08-05 17:22:02,972261
-5,-1,-1,-4,-5,-1,-2,-2,2021-08-05 17:22:02,972261
0,5,11,3,-2,-2,0,0,2021-08-05 17:22:02,972261
1,-8,-4,-1,0,1,0,-1,2021-08-05 17:22:02,972261
0,6,1,-1,-1,-1,0,-2,2021-08-05 17:22:02,972261
-3,-3,1,1,0,1,0,3,2021-08-05 17:22:02,973210
0,-1,-4,3,1,0,-2,-1,2021-08-05 17:22:02,988315
0,-1,-3,-5,-2,-2,-2,-3,2021-08-05 17:22:03,004365
0,4,-2,-3,-3,-3,0,-1,2021-08-05 17:22:03,020408
2,-6,4,2,2,1,2,0,2021-08-05 17:22:03,020408
-2,6,-3,-3,-5,-2,-3,-4,2021-08-05 17:22:03,020408
-3,-14,-21,-18,0,2,0,1,2021-08-05 17:22:03,020408
-2,3,4,2,0,-1,-1,-2,2021-08-05 17:22:03,020408
1,4,12,7,0,-3,-2,0,2021-08-05 17:22:03,020408
3,6,23,11,1,0,0,2,2021-08-05 17:22:03,036391
0,-18,-40,-16,-4,-1,-3,-3,2021-08-05 17:22:03,036391
-5,3,-5,-5,-4,0,-1,-1,2021-08-05 17:22:03,036391
-4,-3,-5,-4,-2,-1,-4,-2,2021-08-05 17:22:03,036391
2,1,7,6,2,0,-2,1,2021-08-05 17:22:03,068280
2,-10,28,20,7,2,3,3,2021-08-05 17:22:03,084318
0,17,-15,-4,1,0,0,-3,2021-08-05 17:22:03,100284
0,4,-4,-8,-3,0,0,-4,2021-08-05 17:22:03,100284
-3,-10,6,-1,-5,-3,-4,-4,2021-08-05 17:22:03,100284
-1,6,-6,0,0,0,1,-2,2021-08-05 17:22:03,100284
-1,-6,16,5,-2,-2,-1,-1,2021-08-05 17:22:03,100284
-4,2,-9,-4,0,-3,0,-1,2021-08-05 17:22:03,100284
1,-5,-26,-13,-3,2,1,0,2021-08-05 17:22:03,100284
-6,-9,-2,-7,-6,-3,-4,-6,2021-08-05 17:22:03,100284
4,8,15,9,1,1,2,3,2021-08-05 17:22:03,101013
2,1,1,1,1,-1,0,-1,2021-08-05 17:22:03,101282
-4,-7,-9,-3,0,0,0,-1,2021-08-05 17:22:03,101282
4,4,9,2,1,-1,0,1,2021-08-05 17:22:03,101422
-1,-5,-9,-4,1,0,-1,-3,2021-08-05 17:22:03,116318
-1,-4,6,8,1,1,-2,-1,2021-08-05 17:22:03,116318
-1,-9,-6,-6,-1,-2,-2,-3,2021-08-05 17:22:03,132387
3,11,8,4,-1,2,0,4,2021-08-05 17:22:03,132387
-2,-4,-4,-3,1,-1,-1,-3,2021-08-05 17:22:03,132387
0,12,6,1,1,1,0,1,2021-08-05 17:22:03,132387
-3,-10,-17,-4,-2,-3,-2,-2,2021-08-05 17:22:03,164356
-4,-18,6,5,0,1,-2,0,2021-08-05 17:22:03,180480
3,13,-3,-6,-3,-1,-1,-2,2021-08-05 17:22:03,196318
-1,5,11,4,-2,-4,-2,0,2021-08-05 17:22:03,196318
3,10,7,7,2,2,1,4,2021-08-05 17:22:03,196318
-1,-7,-11,-3,0,0,0,-3,2021-08-05 17:22:03,196318
-2,-2,-5,-2,-2,-3,0,0,2021-08-05 17:22:03,196318
0,-12,2,2,2,1,1,-1,2021-08-05 17:22:03,196318
-1,29,33,14,0,-2,0,-1,2021-08-05 17:22:03,196318
2,6,-14,-2,0,-2,0,-1,2021-08-05 17:22:03,196318
-6,-16,-31,-27,-7,-1,-4,-4,2021-08-05 17:22:03,197317
0,-1,-11,-6,-5,-2,-2,0,2021-08-05 17:22:03,197317
0,0,5,5,0,0,-3,-2,2021-08-05 17:22:03,212283
0,2,17,11,2,0,-1,-1,2021-08-05 17:22:03,212452
-3,0,-1,2,-1,-4,-2,-1,2021-08-05 17:22:03,228460
-2,-9,-15,-10,-2,0,-1,-3,2021-08-05 17:22:03,228460
1,-5,2,1,0,2,-1,3,2021-08-05 17:22:03,244379
-3,3,11,4,-2,-2,-3,-2,2021-08-05 17:22:03,244554
1,-1,6,-4,-1,0,1,3,2021-08-05 17:22:03,244554
-3,-8,-8,0,0,-2,-1,-3,2021-08-05 17:22:03,259443
2,-5,-30,-26,-6,-2,1,-1,2021-08-05 17:22:03,275414
1,5,15,9,0,-2,-1,0,2021-08-05 17:22:03,275414
-2,0,6,4,1,0,-3,-2,2021-08-05 17:22:03,275414
-5,-3,-9,-3,-2,-2,-1,-2,2021-08-05 17:22:03,275414
0,0,6,10,2,0,2,1,2021-08-05 17:22:03,275414
-1,-3,-14,-10,0,-2,1,-2,2021-08-05 17:22:03,275414
-3,-7,-5,-5,-2,-1,-1,-2,2021-08-05 17:22:03,275414
-2,3,8,4,0,0,-1,-1,2021-08-05 17:22:03,275414
-1,-1,1,3,-2,-3,-2,-3,2021-08-05 17:22:03,307334
2,5,12,4,1,2,1,3,2021-08-05 17:22:03,323284
-2,0,7,8,1,-1,-2,-4,2021-08-05 17:22:03,323407
-3,-8,-35,-36,-8,-2,-2,-3,2021-08-05 17:22:03,323505
2,-1,2,0,3,1,2,3,2021-08-05 17:22:03,323580
0,-4,1,6,0,-1,0,0,2021-08-05 17:22:03,323580
0,-6,15,12,0,0,1,1,2021-08-05 17:22:03,323580
-7,12,-3,-3,-8,-7,-5,-7,2021-08-05 17:22:03,323580
9,12,0,4,6,5,6,10,2021-08-05 17:22:03,339386
-2,-5,-10,-10,-3,-1,-3,-3,2021-08-05 17:22:03,355334
4,5,7,7,5,2,1,4,2021-08-05 17:22:03,366320
-1,0,33,21,3,-1,0,0,2021-08-05 17:22:03,366320
-8,-12,-14,-4,-2,-4,-4,-7,2021-08-05 17:22:03,367321
1,-3,-43,-32,-4,-2,0,1,2021-08-05 17:22:03,367321
3,1,5,3,3,2,2,4,2021-08-05 17:22:03,367321
4,-2,7,6,6,1,1,1,2021-08-05 17:22:03,367321
-2,8,35,19,2,0,-2,0,2021-08-05 17:22:03,367903
-5,-4,-1,5,-1,-2,-2,-6,2021-08-05 17:22:03,367903
-9,-14,-50,-40,-12,-5,-4,-10,2021-08-05 17:22:03,368215
5,4,7,3,4,5,4,8,2021-08-05 17:22:03,368283
-2,-3,-8,-1,-1,-2,-2,-3,2021-08-05 17:22:03,401528
1,3,23,11,0,-2,-1,-1,2021-08-05 17:22:03,401614
5,12,34,25,5,1,2,5,2021-08-05 17:22:03,401614
-7,-12,-45,-35,-9,-2,-4,-8,2021-08-05 17:22:03,401614
0,-3,-12,-6,-1,2,1,1,2021-08-05 17:22:03,416373
0,2,4,2,-1,1,0,0,2021-08-05 17:22:03,416526
-2,3,18,12,-1,-3,-2,-4,2021-08-05 17:22:03,416526
2,3,2,2,1,0,2,3,2021-08-05 17:22:03,416526
0,-8,-14,-9,-4,-3,-1,-3,2021-08-05 17:22:03,431282
-1,-3,-11,-11,-1,-2,0,-1,2021-08-05 17:22:03,447334
2,2,13,13,8,4,2,1,2021-08-05 17:22:03,447528
1,3,23,17,5,-1,0,-1,2021-08-05 17:22:03,447603
-10,-10,-34,-25,-10,-5,-6,-9,2021-08-05 17:22:03,447695
2,-2,1,5,2,0,2,2,2021-08-05 17:22:03,447695
0,2,11,3,-3,-2,-3,-1,2021-08-05 17:22:03,447695
-3,-4,2,5,-3,-2,0,-2,2021-08-05 17:22:03,447695
2,7,2,0,2,0,-1,1,2021-08-05 17:22:03,478353
-3,-13,-29,-22,-5,0,-2,-3,2021-08-05 17:22:03,478353
-1,0,-9,-11,-3,0,-2,-1,2021-08-05 17:22:03,478353
1,1,12,9,-1,-1,-2,-3,2021-08-05 17:22:03,478353
3,11,48,29,3,1,1,5,2021-08-05 17:22:03,493368
-10,-11,-43,-22,-8,-4,-6,-12,2021-08-05 17:22:03,508409
0,-1,-13,-10,-2,1,1,1,2021-08-05 17:22:03,508622
-1,-4,-16,-10,-2,1,-2,-1,2021-08-05 17:22:03,508622
0,-10,-2,0,0,-2,0,0,2021-08-05 17:22:03,508622
5,19,50,32,4,1,2,5,2021-08-05 17:22:03,508622
-4,-6,-22,-6,-4,-2,-3,-4,2021-08-05 17:22:03,508859
-1,-8,-23,-23,-4,-2,-3,-3,2021-08-05 17:22:03,508859
-3,-6,3,5,3,2,1,2,2021-08-05 17:22:03,538318
-2,8,7,1,-3,-1,-1,1,2021-08-05 17:22:03,554413
2,5,14,7,1,0,-1,-1,2021-08-05 17:22:03,554603
5,17,27,17,2,-1,0,2,2021-08-05 17:22:03,554802
-5,-13,-30,-21,-7,-3,-4,-7,2021-08-05 17:22:03,554877
-3,-11,2,0,2,1,1,0,2021-08-05 17:22:03,554985
-3,-3,-17,-11,-2,1,-1,0,2021-08-05 17:22:03,554985
-2,-9,-3,3,0,1,-1,0,2021-08-05 17:22:03,554985
3,9,23,9,0,-3,0,4,2021-08-05 17:22:03,586365
-7,0,10,5,-1,-2,-4,-7,2021-08-05 17:22:03,602318
-4,-5,-23,-11,-2,-1,-3,-3,2021-08-05 17:22:03,602318
1,-6,-6,-1,1,-1,0,-1,2021-08-05 17:22:03,602318
-2,2,0,-2,-2,-2,-2,-3,2021-08-05 17:22:03,602318
7,10,30,26,5,2,1,4,2021-08-05 17:22:03,602318
-4,-10,-16,-17,-7,-4,-4,-5,2021-08-05 17:22:03,602883
-2,-7,-18,-21,-4,0,0,1,2021-08-05 17:22:03,603024
-2,-1,0,-1,-1,-4,-3,-5,2021-08-05 17:22:03,633411
2,2,17,6,1,-3,1,3,2021-08-05 17:22:03,649423
3,2,9,17,2,2,3,2,2021-08-05 17:22:03,649423
-1,-1,0,-5,1,1,-2,-2,2021-08-05 17:22:03,649423
-4,-4,-28,-14,-3,0,-1,-4,2021-08-05 17:22:03,649423
-3,-9,-12,-6,-1,-3,-4,-6,2021-08-05 17:22:03,649423
3,8,14,8,2,-1,3,4,2021-08-05 17:22:03,649423
3,8,19,15,4,-1,2,1,2021-08-05 17:22:03,650285
-1,-7,-23,-12,-3,1,0,-2,2021-08-05 17:22:03,650285
-2,-3,-8,-9,-2,0,-1,0,2021-08-05 17:22:03,650285
0,3,6,2,1,-2,0,-1,2021-08-05 17:22:03,665284
-2,-5,-4,-3,-4,-1,-3,-1,2021-08-05 17:22:03,681335
-3,0,15,14,4,0,-2,-3,2021-08-05 17:22:03,686282
-3,-3,-3,7,2,0,-2,-4,2021-08-05 17:22:03,686282
0,-7,-18,-29,-6,-3,-4,-3,2021-08-05 17:22:03,686282
0,3,7,9,-3,-3,-3,-1,2021-08-05 17:22:03,686282
2,5,8,3,-3,-5,-1,0,2021-08-05 17:22:03,697334
5,4,3,-1,-1,-1,3,7,2021-08-05 17:22:03,697334
-4,-10,-11,-3,-1,-1,-2,-3,2021-08-05 17:22:03,697334
0,3,-8,6,0,1,2,1,2021-08-05 17:22:03,697334
-1,-2,-13,-36,-5,1,-1,-2,2021-08-05 17:22:03,729457
3,2,9,2,2,3,5,4,2021-08-05 17:22:03,745334
1,7,28,19,5,0,-1,1,2021-08-05 17:22:03,761441
-4,-1,-10,-3,-2,-3,-4,-6,2021-08-05 17:22:03,761505
2,0,-1,3,-1,0,1,3,2021-08-05 17:22:03,777362
-8,-5,-23,-15,-6,-2,-3,-6,2021-08-05 17:22:03,777362
-1,-6,-4,-3,-2,-1,0,-4,2021-08-05 17:22:03,777555
3,8,29,21,5,1,0,5,2021-08-05 17:22:03,777653
1,4,10,20,4,0,-3,2,2021-08-05 17:22:03,777653
-3,-9,-36,-33,-7,-1,-4,-7,2021-08-05 17:22:03,777845
-1,1,7,0,-2,-1,-1,0,2021-08-05 17:22:03,777845
-2,-4,-8,-10,-1,0,0,0,2021-08-05 17:22:03,778075
-2,-1,17,11,-2,-4,-2,-3,2021-08-05 17:22:03,778178
3,3,0,8,1,1,1,6,2021-08-05 17:22:03,778282
-2,1,-6,-5,-1,-1,1,0,2021-08-05 17:22:03,778282
-3,-3,-8,-1,-1,-1,0,0,2021-08-05 17:22:03,778282
-1,-6,-10,-12,-1,1,-2,-1,2021-08-05 17:22:03,793317
1,3,19,16,2,-2,-2,4,2021-08-05 17:22:03,793552
-1,0,-3,2,2,-1,0,-3,2021-08-05 17:22:03,793588
-2,-5,-1,0,3,-1,0,-2,2021-08-05 17:22:03,793588
-3,-5,-9,0,0,0,0,-4,2021-08-05 17:22:03,825296
2,2,22,14,0,1,1,3,2021-08-05 17:22:03,825296
-1,1,-15,-11,-2,-3,-4,-4,2021-08-05 17:22:03,825296
-2,-10,-13,-15,-5,-1,1,1,2021-08-05 17:22:03,825296
0,3,11,8,0,-2,-2,-5,2021-08-05 17:22:03,841450
-1,-1,-10,-13,-2,0,0,-1,2021-08-05 17:22:03,857334
2,4,19,14,3,2,2,3,2021-08-05 17:22:03,857565
-1,5,25,24,2,-2,-2,-2,2021-08-05 17:22:03,857565
-3,-9,-45,-38,-5,-1,0,-3,2021-08-05 17:22:03,857850
1,5,6,3,0,-1,-2,-1,2021-08-05 17:22:03,857895
1,-1,2,4,1,2,1,5,2021-08-05 17:22:03,858059
-2,-14,6,-2,-1,-3,-1,1,2021-08-05 17:22:03,858283
2,16,21,20,3,-1,1,4,2021-08-05 17:22:03,873366
-1,-5,-7,-2,-2,-4,-3,-4,2021-08-05 17:22:03,889436
-4,-5,-18,-17,-5,-3,-4,-4,2021-08-05 17:22:03,905334
1,-3,-8,-7,-2,1,1,-2,2021-08-05 17:22:03,905334
1,0,40,31,1,0,-1,5,2021-08-05 17:22:03,905334
-10,-6,-45,-30,-6,-2,-4,-12,2021-08-05 17:22:03,905334
1,-7,-9,-6,1,0,0,1,2021-08-05 17:22:03,905334
0,6,5,1,-1,-2,-2,-2,2021-08-05 17:22:03,905334
-1,-2,-4,-8,-1,1,0,2,2021-08-05 17:22:03,905334
1,3,18,15,-2,-2,-1,0,2021-08-05 17:22:03,906036
-3,-2,11,13,-5,-1,-3,-3,2021-08-05 17:22:03,906036
2,1,-21,-17,-3,0,1,1,2021-08-05 17:22:03,906036
0,-2,5,4,0,-2,1,-1,2021-08-05 17:22:03,952833
2,-2,3,2,-2,-2,0,3,2021-08-05 17:22:03,952833
-1,-1,-3,-6,-2,-3,-1,-1,2021-08-05 17:22:03,953126
-1,2,13,5,-1,-2,-1,0,2021-08-05 17:22:03,953359
-1,-2,-18,-13,-4,0,-1,-2,2021-08-05 17:22:03,953359
-3,-12,-10,-7,-2,0,0,-2,2021-08-05 17:22:03,953359
1,0,5,5,2,2,2,3,2021-08-05 17:22:03,953359
-1,6,3,4,-2,-2,-2,-3,2021-08-05 17:22:03,953359
-2,-6,-8,-1,-1,-1,0,0,2021-08-05 17:22:03,984427
1,4,6,2,4,1,1,-1,2021-08-05 17:22:04,000408
-4,-6,-8,-10,-5,-3,-2,-4,2021-08-05 17:22:04,000408
2,1,-3,2,-1,0,-1,-1,2021-08-05 17:22:04,000580
3,5,6,3,3,0,0,3,2021-08-05 17:22:04,000690
-1,0,-2,-4,-2,-1,-2,0,2021-08-05 17:22:04,011476
-5,1,21,14,-1,-3,-2,-4,2021-08-05 17:22:04,011476
-2,1,-1,0,-1,0,-2,-4,2021-08-05 17:22:04,012440
0,-4,-17,-7,-3,-1,-1,-1,2021-08-05 17:22:04,012440
-1,-3,-11,-8,-3,-1,-1,0,2021-08-05 17:22:04,012440
5,10,27,20,7,3,2,5,2021-08-05 17:22:04,012440
-8,-12,-38,-32,-11,-5,-6,-9,2021-08-05 17:22:04,012440
-2,-3,7,5,3,1,0,1,2021-08-05 17:22:04,032519
5,11,31,23,3,-1,3,4,2021-08-05 17:22:04,032519
-9,-11,-39,-30,-5,-2,-4,-12,2021-08-05 17:22:04,032708
5,3,10,11,3,1,2,3,2021-08-05 17:22:04,032900
-4,-2,-1,-5,-3,-2,-2,-3,2021-08-05 17:22:04,064369
0,0,3,-3,-2,-2,-1,0,2021-08-05 17:22:04,080318
-1,3,6,8,-1,-3,-2,1,2021-08-05 17:22:04,095320
1,2,15,7,5,1,1,2,2021-08-05 17:22:04,111321
-4,-4,-23,-19,-5,-1,-2,-4,2021-08-05 17:22:04,127320
0,1,4,9,3,2,2,3,2021-08-05 17:22:04,127320
-1,0,1,4,-1,-1,-2,-3,2021-08-05 17:22:04,127320
-6,-5,-6,-5,-5,-4,-6,-6,2021-08-05 17:22:04,127320
7,0,6,6,2,4,2,4,2021-08-05 17:22:04,127320
-3,-4,-9,-11,-6,-3,-5,-3,2021-08-05 17:22:04,127320
2,-2,-5,-3,0,-1,0,1,2021-08-05 17:22:04,127320
-3,1,5,1,0,-1,-1,0,2021-08-05 17:22:04,127320
-1,0,6,5,1,-3,-2,-2,2021-08-05 17:22:04,127320
2,0,-1,2,2,1,2,1,2021-08-05 17:22:04,127320
-1,-2,-6,-5,-2,0,-1,-3,2021-08-05 17:22:04,127320
2,-1,-4,-3,1,1,-1,0,2021-08-05 17:22:04,128284
0,2,7,3,-1,-1,-2,-3,2021-08-05 17:22:04,143411
-4,-5,-9,-7,-3,-3,-5,-3,2021-08-05 17:22:04,143411
3,4,5,4,0,0,3,4,2021-08-05 17:22:04,143411
-3,-2,0,5,-1,-3,-1,-4,2021-08-05 17:22:04,143411
-1,-2,-9,-6,-1,0,-1,0,2021-08-05 17:22:04,158440
-3,2,10,4,-1,-3,0,-4,2021-08-05 17:22:04,158440
3,-2,-5,1,0,0,1,5,2021-08-05 17:22:04,158740
-1,2,-7,-9,-1,0,0,1,2021-08-05 17:22:04,158851
-3,-4,1,3,-3,-3,-2,-3,2021-08-05 17:22:04,174434
-3,-3,-5,-6,-4,-2,-3,0,2021-08-05 17:22:04,174540
3,6,11,8,4,1,2,1,2021-08-05 17:22:04,174561
1,-5,-9,-6,-2,1,0,0,2021-08-05 17:22:04,174773
0,1,1,-1,-1,-3,-3,-3,2021-08-05 17:22:04,205283
-2,-3,-2,0,0,0,-2,-3,2021-08-05 17:22:04,221460
-3,0,-4,-4,-2,-1,-1,-2,2021-08-05 17:22:04,237334
-1,-1,2,3,0,1,-1,0,2021-08-05 17:22:04,253354
0,5,6,3,1,0,1,1,2021-08-05 17:22:04,269399
-2,-6,-21,-8,-5,-2,-1,-4,2021-08-05 17:22:04,269601
-1,2,-1,-2,-2,-1,-3,0,2021-08-05 17:22:04,269601
0,-1,2,1,-1,-1,0,0,2021-08-05 17:22:04,269849
-3,0,1,3,0,-1,-2,-4,2021-08-05 17:22:04,269849
0,-3,-5,-13,-1,0,1,1,2021-08-05 17:22:04,269849
-4,-7,-3,-1,-3,-3,-4,-5,2021-08-05 17:22:04,270268
2,5,3,5,3,0,0,0,2021-08-05 17:22:04,270282
0,-2,-2,-8,-3,0,0,0,2021-08-05 17:22:04,270282
0,-1,0,3,0,1,0,2,2021-08-05 17:22:04,270282
2,-1,0,1,-1,-1,0,0,2021-08-05 17:22:04,270282
-3,-5,1,-5,-7,-2,-4,-2,2021-08-05 17:22:04,270282
2,3,-4,-2,0,0,-1,-1,2021-08-05 17:22:04,270282
0,0,-5,1,1,1,0,0,2021-08-05 17:22:04,270282
-3,-4,-3,-3,-1,-3,-1,-1,2021-08-05 17:22:04,285433
-2,3,5,4,2,-2,0,-1,2021-08-05 17:22:04,285460
-3,-2,0,-4,-3,-2,-2,-5,2021-08-05 17:22:04,301281
1,2,4,0,-1,0,0,-2,2021-08-05 17:22:04,317320
4,3,1,5,3,2,0,1,2021-08-05 17:22:04,317320
1,-1,-4,-7,-1,-1,-1,-1,2021-08-05 17:22:04,317320
-3,-7,-13,-9,-2,-3,-1,-2,2021-08-05 17:22:04,317320
1,2,10,9,2,0,-2,1,2021-08-05 17:22:04,317320
-2,-3,-3,-2,-2,0,0,-2,2021-08-05 17:22:04,317320
0,2,2,1,-1,1,-1,0,2021-08-05 17:22:04,317320
-7,-25,-2,0,-1,-2,-2,-2,2021-08-05 17:22:04,332521
3,18,-3,-3,1,0,0,1,2021-08-05 17:22:04,332762
0,4,4,0,-3,-4,-3,-3,2021-08-05 17:22:04,332762
2,-2,-8,-5,1,2,1,2,2021-08-05 17:22:04,332762
-1,4,4,5,3,0,0,0,2021-08-05 17:22:04,364317
-5,-13,-4,-3,-4,-2,-5,-4,2021-08-05 17:22:04,380318
-1,-2,-3,-5,-2,-1,0,-1,2021-08-05 17:22:04,396353
-1,1,1,1,-2,-2,-3,-1,2021-08-05 17:22:04,412343
1,4,-1,0,-2,-2,0,0,2021-08-05 17:22:04,412461
-2,-4,0,-1,0,-2,1,1,2021-08-05 17:22:04,412557
1,2,1,0,-3,0,0,-1,2021-08-05 17:22:04,412653
-2,-4,-2,-2,-3,-3,0,-2,2021-08-05 17:22:04,412653
3,3,-4,-5,-4,-2,-1,2,2021-08-05 17:22:04,412653
-1,-4,-4,-3,1,-1,0,0,2021-08-05 17:22:04,412653
-4,-4,-3,0,-2,-2,-2,-3,2021-08-05 17:22:04,412653
0,-2,2,4,3,1,1,4,2021-08-05 17:22:04,412653
-1,0,-1,2,-1,1,-3,-2,2021-08-05 17:22:04,413317
0,2,3,1,-2,-2,-3,-3,2021-08-05 17:22:04,413317
-1,1,4,-1,1,2,-1,2,2021-08-05 17:22:04,413317
-4,-2,-3,-1,-1,-2,-1,-3,2021-08-05 17:22:04,413317
0,4,-6,-4,0,2,1,1,2021-08-05 17:22:04,444397
0,-3,1,0,0,2,2,0,2021-08-05 17:22:04,460409
0,-1,-3,-4,-2,-1,0,-3,2021-08-05 17:22:04,460409
-1,0,1,-1,-1,-3,-1,-3,2021-08-05 17:22:04,460582
1,-2,-3,0,2,1,3,2,2021-08-05 17:22:04,460713
1,1,4,3,0,-3,1,0,2021-08-05 17:22:04,460713
0,-3,-3,-3,-2,-3,-3,0,2021-08-05 17:22:04,475319
-2,-2,-2,-4,-2,-2,-3,-2,2021-08-05 17:22:04,490770
0,-1,0,0,-1,-1,0,-1,2021-08-05 17:22:04,490900
-3,-2,-3,-2,-1,-1,-1,-1,2021-08-05 17:22:04,491013
0,-2,-4,0,0,0,1,2,2021-08-05 17:22:04,491013
0,-4,6,2,0,-1,2,-2,2021-08-05 17:22:04,491013
-5,-2,-5,-4,-1,-2,-1,-3,2021-08-05 17:22:04,491013
-1,1,5,6,0,-2,-4,-4,2021-08-05 17:22:04,491283
0,-2,-5,-6,-3,-3,-4,-3,2021-08-05 17:22:04,491283
4,2,0,0,-1,-2,-1,0,2021-08-05 17:22:04,491283
2,2,6,-1,-2,-1,0,0,2021-08-05 17:22:04,522393
-1,0,4,1,0,0,1,2,2021-08-05 17:22:04,522507
-2,-3,-11,-8,-2,-2,-1,-1,2021-08-05 17:22:04,522507
-3,-3,-3,0,1,1,0,2,2021-08-05 17:22:04,522507
-1,0,-1,-1,-1,-1,-2,-2,2021-08-05 17:22:04,538393
-1,-4,-4,-2,1,0,1,-1,2021-08-05 17:22:04,554346
-2,0,5,5,1,0,0,-1,2021-08-05 17:22:04,554346
0,-1,-1,-1,0,0,0,0,2021-08-05 17:22:04,554508
-1,-1,1,-1,-2,-2,-1,-2,2021-08-05 17:22:04,570466
0,-1,-5,-5,-3,-2,-1,-1,2021-08-05 17:22:04,570466
-3,-2,1,2,-1,-2,0,0,2021-08-05 17:22:04,570466
1,0,-1,0,0,2,0,2,2021-08-05 17:22:04,570466
1,0,4,4,-2,1,-1,2,2021-08-05 17:22:04,600405
-5,-3,-1,-4,-4,-3,-5,-4,2021-08-05 17:22:04,600405
-2,-2,-1,0,0,-1,1,1,2021-08-05 17:22:04,600405
-3,2,1,-1,0,1,0,-2,2021-08-05 17:22:04,600405
2,0,5,4,-1,1,-2,0,2021-08-05 17:22:04,600405
3,0,-4,-1,1,1,1,-2,2021-08-05 17:22:04,600405
-3,-4,-3,-4,-2,0,-2,-4,2021-08-05 17:22:04,600405
-1,0,-8,-3,-1,-4,-2,-1,2021-08-05 17:22:04,600405
-3,-4,-5,0,0,-1,-3,-4,2021-08-05 17:22:04,616320
2,2,-1,-2,-1,0,-1,2,2021-08-05 17:22:04,616320
2,0,3,6,2,2,0,0,2021-08-05 17:22:04,616320
0,-1,2,1,-1,-2,-2,-2,2021-08-05 17:22:04,616320
-1,2,0,0,-1,-2,2,0,2021-08-05 17:22:04,648320
-1,-3,-4,-1,0,-1,-1,-1,2021-08-05 17:22:04,653884
0,0,-3,-4,-1,0,1,1,2021-08-05 17:22:04,653884
-1,2,2,-3,-1,-1,-1,0,2021-08-05 17:22:04,654829
-1,-2,-2,-1,-2,-2,-3,1,2021-08-05 17:22:04,654829
0,-1,0,0,-1,-1,-1,-1,2021-08-05 17:22:04,654829
-1,1,3,-1,-1,1,-1,1,2021-08-05 17:22:04,654829
-2,-3,-3,-1,-1,0,-2,-3,2021-08-05 17:22:04,654829
0,-2,-2,-1,0,0,-1,-1,2021-08-05 17:22:04,679832
-1,-1,-1,-3,-1,-2,-1,0,2021-08-05 17:22:04,695827
-3,-25,-3,0,0,1,-1,0,2021-08-05 17:22:04,696010
4,20,4,3,1,0,0,1,2021-08-05 17:22:04,696152
1,6,4,-2,-1,-1,0,-1,2021-08-05 17:22:04,696152
-3,-5,-10,-6,-2,1,-3,-3,2021-08-05 17:22:04,696152
0,2,1,1,2,0,1,-1,2021-08-05 17:22:04,696152
-3,-9,-1,-1,-2,-1,-2,-4,2021-08-05 17:22:04,696152
-1,0,1,2,0,0,1,1,2021-08-05 17:22:04,727600
-3,1,1,-4,-1,-2,-1,-1,2021-08-05 17:22:04,727600
-1,-8,-2,1,-3,-1,-2,0,2021-08-05 17:22:04,727600
1,11,-2,-4,-1,1,-1,2,2021-08-05 17:22:04,727819
2,4,4,0,1,-1,0,0,2021-08-05 17:22:04,759504
0,-1,-2,2,0,-1,1,-1,2021-08-05 17:22:04,775481
-1,4,0,-3,-1,-1,-1,1,2021-08-05 17:22:04,790825
-5,-13,-10,-7,-2,-2,-3,-1,2021-08-05 17:22:04,790999
-1,1,1,2,0,-1,-2,-2,2021-08-05 17:22:04,790999
2,-2,4,2,-1,1,1,3,2021-08-05 17:22:04,791297
-3,7,-3,-1,-1,-2,-2,-5,2021-08-05 17:22:04,791379
-1,-2,1,4,0,0,1,0,2021-08-05 17:22:04,791379
-4,-2,2,0,1,0,-1,1,2021-08-05 17:22:04,791379
-6,-8,-12,-15,-5,-2,-4,-8,2021-08-05 17:22:04,791379
6,12,1,3,2,1,3,4,2021-08-05 17:22:04,791379
-2,-4,0,-2,-1,-2,-1,-2,2021-08-05 17:22:04,791379
-1,-6,-4,0,-2,-2,-2,-2,2021-08-05 17:22:04,791379
2,3,6,6,1,-1,1,2,2021-08-05 17:22:04,791379
-1,4,-1,-2,-2,-2,-1,-2,2021-08-05 17:22:04,791379
0,-5,-2,2,0,1,1,-2,2021-08-05 17:22:04,791379
-2,-2,-4,-3,-2,-1,0,0,2021-08-05 17:22:04,822419
-1,1,0,0,1,1,1,1,2021-08-05 17:22:04,822419
-2,-5,-4,-5,-3,-2,-1,-2,2021-08-05 17:22:04,822419
1,10,5,3,0,-1,1,1,2021-08-05 17:22:04,822419
-3,2,-8,-10,-5,-4,-3,-5,2021-08-05 17:22:04,838431
3,5,2,2,1,1,1,2,2021-08-05 17:22:04,854431
-2,-5,1,0,0,-3,-3,-2,2021-08-05 17:22:04,854611
-2,-6,-5,-4,-2,0,-2,-2,2021-08-05 17:22:04,854611
-1,-1,-3,-1,-2,0,1,0,2021-08-05 17:22:04,870430
-4,-5,0,0,-3,-2,-2,-2,2021-08-05 17:22:04,886555
2,3,6,4,1,0,1,1,2021-08-05 17:22:04,886555
-1,-3,0,0,-1,0,-1,-2,2021-08-05 17:22:04,886555
-2,-6,-12,-4,-1,1,0,-1,2021-08-05 17:22:04,886555
0,-15,0,0,0,0,-1,1,2021-08-05 17:22:04,886555
-2,13,1,-1,-2,-2,-4,-4,2021-08-05 17:22:04,886555
6,5,-1,-4,2,0,3,4,2021-08-05 17:22:04,886555
-1,-7,5,6,1,0,0,-2,2021-08-05 17:22:04,886555
-1,-1,0,-1,0,1,2,1,2021-08-05 17:22:04,887395
3,3,-5,-3,-1,1,0,1,2021-08-05 17:22:04,902471
-4,-4,1,0,-2,-2,-3,-4,2021-08-05 17:22:04,918510
0,3,2,-1,-4,-3,-1,0,2021-08-05 17:22:04,934361
-3,-4,-5,0,-5,-3,-2,-2,2021-08-05 17:22:04,934361
1,0,5,3,1,0,-1,-1,2021-08-05 17:22:04,934361
0,-10,-5,0,2,1,0,1,2021-08-05 17:22:04,934361
2,10,7,4,3,1,1,1,2021-08-05 17:22:04,934361
-7,-20,-5,-5,-4,-3,-2,-5,2021-08-05 17:22:04,934361
1,16,-5,-3,-1,1,-1,0,2021-08-05 17:22:04,934361
-2,-2,0,-1,0,-1,-1,-5,2021-08-05 17:22:04,934361
-2,-3,1,-1,-2,-1,-2,-1,2021-08-05 17:22:04,966358
0,2,0,-2,0,0,0,-1,2021-08-05 17:22:04,966358
-3,-13,-5,-4,-6,-3,-2,-3,2021-08-05 17:22:04,966358
0,0,2,3,-1,1,2,-2,2021-08-05 17:22:04,966358
3,3,1,-1,-1,1,2,3,2021-08-05 17:22:04,973397
3,9,8,7,3,0,1,1,2021-08-05 17:22:04,974361
-4,-11,-8,-7,-4,-1,-1,-3,2021-08-05 17:22:04,974361
-4,-2,-9,-9,-5,-2,-3,-3,2021-08-05 17:22:04,974361
-5,-8,-2,-5,-3,-3,-3,-3,2021-08-05 17:22:04,998394
0,-2,-4,0,2,1,-1,-1,2021-08-05 17:22:05,014359
0,6,7,5,-1,0,-2,-2,2021-08-05 17:22:05,014359
2,-2,6,4,1,-2,1,4,2021-08-05 17:22:05,014359
-1,6,2,-1,-1,-1,-1,-2,2021-08-05 17:22:05,014359
0,-2,-7,-5,-2,-2,0,0,2021-08-05 17:22:05,014359
-6,-8,-7,-11,-5,-3,-3,-4,2021-08-05 17:22:05,029459
0,0,-2,0,-2,-2,-1,-1,2021-08-05 17:22:05,029459
-1,-7,-5,1,3,2,1,3,2021-08-05 17:22:05,045488
1,14,15,10,-2,-1,-1,-1,2021-08-05 17:22:05,045596
1,1,0,5,-1,-2,1,-1,2021-08-05 17:22:05,045596
-2,1,-6,-14,-5,-3,-3,-4,2021-08-05 17:22:05,045596
-2,-3,-2,-3,-2,-3,-3,-2,2021-08-05 17:22:05,061402
-2,-3,-9,-2,2,-1,-2,-2,2021-08-05 17:22:05,077449
1,-3,2,7,2,3,2,1,2021-08-05 17:22:05,093499
0,18,3,4,1,-1,1,1,2021-08-05 17:22:05,093499
1,-1,-6,-7,-3,-2,-3,-5,2021-08-05 17:22:05,093499
0,6,1,-3,-3,-1,-3,-1,2021-08-05 17:22:05,093499
-5,-10,0,-2,-3,-3,-3,-3,2021-08-05 17:22:05,093499
-3,-13,0,1,1,2,0,-1,2021-08-05 17:22:05,093499
-3,-13,-1,1,-1,2,1,1,2021-08-05 17:22:05,093499
8,27,-1,0,3,2,1,3,2021-08-05 17:22:05,093499
3,0,6,0,-3,-1,-2,0,2021-08-05 17:22:05,093499
-1,2,-3,1,-2,-1,-2,-3,2021-08-05 17:22:05,094395
1,-1,4,1,-1,-2,-1,2,2021-08-05 17:22:05,124401
-4,-15,-6,-1,1,0,-1,-1,2021-08-05 17:22:05,124646
-2,2,1,0,1,0,-1,-1,2021-08-05 17:22:05,124646
-5,-7,-4,-6,-6,-4,-4,-5,2021-08-05 17:22:05,124646
1,0,-2,-1,1,3,-1,2,2021-08-05 17:22:05,140358
0,1,6,5,1,-2,1,1,2021-08-05 17:22:05,156457
0,2,-1,1,2,-1,0,0,2021-08-05 17:22:05,172423
-2,-3,-1,2,0,-1,-2,-2,2021-08-05 17:22:05,188412
-6,-8,-11,-9,-4,-4,-4,-6,2021-08-05 17:22:05,188412
-1,12,8,-2,-4,-2,-3,0,2021-08-05 17:22:05,188412
-1,-11,-11,0,1,-1,2,0,2021-08-05 17:22:05,188412
5,2,23,7,3,4,5,8,2021-08-05 17:22:05,188412
-2,1,-24,0,0,-3,-2,-5,2021-08-05 17:22:05,188412
4,3,3,-3,0,-1,1,0,2021-08-05 17:22:05,188412
-5,-1,4,-2,-6,-4,-4,-6,2021-08-05 17:22:05,188412
-2,-3,-4,-5,-4,-4,-5,-4,2021-08-05 17:22:05,188412
4,9,14,9,8,7,4,4,2021-08-05 17:22:05,189327
-5,-19,-5,-2,-3,-2,0,-1,2021-08-05 17:22:05,189360
1,5,-6,-2,3,1,0,2,2021-08-05 17:22:05,204556
4,1,-2,-1,-1,-2,-2,1,2021-08-05 17:22:05,204736
-2,3,1,-7,-9,-5,-6,-4,2021-08-05 17:22:05,236412
-1,-4,-4,4,2,1,-1,0,2021-08-05 17:22:05,252423
0,-1,3,-1,-2,0,1,2,2021-08-05 17:22:05,268398
-2,-1,-6,-1,-1,-1,-1,-3,2021-08-05 17:22:05,268398
-3,-2,-3,-4,-2,-4,-1,-4,2021-08-05 17:22:05,268398
-1,-3,-1,-2,-1,-1,-1,-1,2021-08-05 17:22:05,268398
-3,6,9,-3,1,0,-1,0,2021-08-05 17:22:05,268398
4,1,-11,6,3,2,1,2,2021-08-05 17:22:05,268398
3,-1,4,2,0,-2,-1,1,2021-08-05 17:22:05,269219
-7,-6,-11,-11,-5,-3,-4,-7,2021-08-05 17:22:05,269342
3,76,10,2,-2,-2,0,2,2021-08-05 17:22:05,269360
-7,-53,-6,-1,0,-1,1,0,2021-08-05 17:22:05,269360
-1,-2,-4,1,3,2,1,1,2021-08-05 17:22:05,269360
3,6,-2,1,-2,-3,-3,-5,2021-08-05 17:22:05,269360
0,0,-4,-2,-5,-3,-5,-5,2021-08-05 17:22:05,284412
0,26,4,-4,-2,-1,-3,0,2021-08-05 17:22:05,284412
-3,7,28,7,6,5,4,4,2021-08-05 17:22:05,292378
0,-24,-36,-5,-3,-2,0,2,2021-08-05 17:22:05,292378
-2,-33,-19,-3,0,1,0,-1,2021-08-05 17:22:05,300507
-4,1,8,-5,-6,-5,-4,-8,2021-08-05 17:22:05,300507
4,2,8,1,2,1,1,2,2021-08-05 17:22:05,332417
-2,13,16,2,2,1,0,0,2021-08-05 17:22:05,332417
-1,-14,-5,0,0,0,-1,-2,2021-08-05 17:22:05,332417
2,0,6,6,3,1,3,3,2021-08-05 17:22:05,332417
-3,4,-15,-2,-6,-4,-3,-6,2021-08-05 17:22:05,332417
2,-3,0,-4,-1,0,0,2,2021-08-05 17:22:05,332417
-1,-17,-4,-1,0,3,0,1,2021-08-05 17:22:05,332417
-5,6,3,-3,-3,-6,-4,-4,2021-08-05 17:22:05,332417
1,21,2,-1,1,1,1,2,2021-08-05 17:22:05,378504
1,-78,-6,7,3,0,2,1,2021-08-05 17:22:05,378504
-9,-14,-12,-3,-3,-3,-2,-3,2021-08-05 17:22:05,378504
5,15,2,-5,-6,-3,-2,-1,2021-08-05 17:22:05,378504
-5,-12,-5,-2,-5,-5,-4,-4,2021-08-05 17:22:05,378504
-1,30,9,0,0,1,-1,-2,2021-08-05 17:22:05,378504
-3,1,11,3,4,3,0,-1,2021-08-05 17:22:05,378504
-6,-14,-7,1,3,-1,-3,-7,2021-08-05 17:22:05,378504
-1,-18,-10,-3,-3,-4,-7,-6,2021-08-05 17:22:05,394395
5,51,22,0,-4,-4,-3,3,2021-08-05 17:22:05,394395
4,-33,-15,0,0,-1,0,2,2021-08-05 17:22:05,410108
3,42,-3,-2,0,2,2,5,2021-08-05 17:22:05,410274
-1,-5,27,0,0,1,2,1,2021-08-05 17:22:05,425356
-2,-18,-34,1,5,3,2,2,2021-08-05 17:22:05,441313
5,-1,2,-7,-4,-4,-3,-3,2021-08-05 17:22:05,457326
5,74,19,1,0,0,-2,-1,2021-08-05 17:22:05,457326
-1,-85,-33,-5,-2,-1,-1,-1,2021-08-05 17:22:05,457820
-15,-8,3,-4,-3,-1,-2,-3,2021-08-05 17:22:05,457820
-1,23,-1,0,-2,-2,-1,-2,2021-08-05 17:22:05,457820
-1,-33,-3,1,1,1,2,2,2021-08-05 17:22:05,457820
2,38,21,0,-1,0,-1,-2,2021-08-05 17:22:05,457820
3,1,-13,0,1,1,0,-1,2021-08-05 17:22:05,458326
-2,-19,-2,-2,-2,-3,-3,1,2021-08-05 17:22:05,458326
-5,-10,-1,1,0,1,0,-3,2021-08-05 17:22:05,458326
-1,-18,1,1,-3,-3,0,2,2021-08-05 17:22:05,488394
-4,-33,-10,-4,-3,-4,-2,-3,2021-08-05 17:22:05,488497
1,16,10,3,2,1,0,1,2021-08-05 17:22:05,488497
-1,-18,-3,0,-4,-3,-4,-3,2021-08-05 17:22:05,488497
-2,7,1,2,1,1,-1,1,2021-08-05 17:22:05,504390
2,9,3,0,-2,0,1,0,2021-08-05 17:22:05,520413
2,-13,-5,-2,-3,-1,-2,-2,2021-08-05 17:22:05,551388
-9,-17,-15,-4,-2,-1,-1,-2,2021-08-05 17:22:05,551388
-5,23,1,-6,-5,-5,-4,-6,2021-08-05 17:22:05,551609
0,43,18,3,-1,-1,-1,0,2021-08-05 17:22:05,551726
13,-49,11,10,7,5,7,8,2021-08-05 17:22:05,551726
4,-23,-36,-3,0,1,0,-3,2021-08-05 17:22:05,551726
-18,28,-5,-7,-3,-3,-3,-7,2021-08-05 17:22:05,551726
1,9,18,-3,-3,-4,-5,-6,2021-08-05 17:22:05,551726
-1,21,9,-3,-3,-1,0,2,2021-08-05 17:22:05,551726
1,-8,-7,-2,-1,-1,-2,0,2021-08-05 17:22:05,551726
5,-5,-3,1,1,0,4,4,2021-08-05 17:22:05,566435
-1,2,0,0,1,0,-1,-2,2021-08-05 17:22:05,582326
-5,4,0,0,-3,-2,-2,-4,2021-08-05 17:22:05,582326
0,8,23,5,1,-1,1,4,2021-08-05 17:22:05,582326
4,-8,-39,0,0,1,1,1,2021-08-05 17:22:05,582326
-4,-9,0,-2,-1,-2,0,-1,2021-08-05 17:22:05,582326
-4,14,1,0,-3,-3,-2,-4,2021-08-05 17:22:05,582326
-2,-10,-3,-6,-3,-2,-1,-4,2021-08-05 17:22:05,582326
-3,1,6,-3,-4,-4,-5,-4,2021-08-05 17:22:05,597326
14,35,10,5,4,5,7,12,2021-08-05 17:22:05,597326
-3,15,8,-1,1,1,1,-1,2021-08-05 17:22:05,597326
-4,-43,-23,2,6,3,3,3,2021-08-05 17:22:05,597326
0,-10,2,1,2,0,0,-2,2021-08-05 17:22:05,628400
3,43,9,-2,-6,-5,-6,-6,2021-08-05 17:22:05,628575
-5,-37,-14,-2,-2,-2,0,0,2021-08-05 17:22:05,628744
-2,20,4,0,-2,-2,-3,-2,2021-08-05 17:22:05,628744
4,13,15,1,1,0,-1,2,2021-08-05 17:22:05,643457
-2,-23,-23,2,2,5,1,2,2021-08-05 17:22:05,643457
-3,14,-2,-5,-4,-3,-3,-5,2021-08-05 17:22:05,643457
3,7,7,0,1,-1,1,-1,2021-08-05 17:22:05,643457
2,-10,2,1,0,-1,2,0,2021-08-05 17:22:05,659444
-5,-7,10,0,-3,-5,-2,-2,2021-08-05 17:22:05,674366
2,17,-4,1,2,2,1,2,2021-08-05 17:22:05,689471
-1,9,1,-2,-2,-1,0,1,2021-08-05 17:22:05,689471
0,-39,-24,-1,1,2,-1,-1,2021-08-05 17:22:05,689471
-9,-4,1,-3,-2,-3,-4,-4,2021-08-05 17:22:05,689948
-2,1,0,-4,-3,-4,-5,-5,2021-08-05 17:22:05,689948
-3,18,6,-3,-3,-4,0,-2,2021-08-05 17:22:05,690277
8,28,21,7,4,4,4,2,2021-08-05 17:22:05,690277
-1,-27,-9,-2,0,0,1,0,2021-08-05 17:22:05,690277
-2,-6,-10,1,0,1,-2,-2,2021-08-05 17:22:05,705085
1,18,1,2,0,-1,-1,0,2021-08-05 17:22:05,705085
0,-16,-6,-2,-1,1,2,1,2021-08-05 17:22:05,736600
-7,-10,-9,-4,-3,-3,-4,-7,2021-08-05 17:22:05,751935
0,9,9,0,-1,0,1,1,2021-08-05 17:22:05,751935
-1,6,0,0,-2,1,0,1,2021-08-05 17:22:05,751935
-4,-18,-5,-3,-2,-2,-3,-1,2021-08-05 17:22:05,752337
-3,18,11,-1,-4,-3,-3,-7,2021-08-05 17:22:05,752337
1,-4,-4,1,0,-1,1,1,2021-08-05 17:22:05,752337
0,-8,4,2,2,1,1,1,2021-08-05 17:22:05,752337
0,-30,-10,-3,-1,1,2,0,2021-08-05 17:22:05,752876
4,-9,-21,-5,-2,-1,-2,-2,2021-08-05 17:22:05,752911
-15,0,2,-3,-2,-2,-1,-2,2021-08-05 17:22:05,768053
5,-12,2,1,0,1,-2,1,2021-08-05 17:22:05,768053
-1,40,9,0,1,-3,0,-1,2021-08-05 17:22:05,784042
7,-4,17,6,5,4,4,8,2021-08-05 17:22:05,800037
4,-5,-8,1,1,1,1,-1,2021-08-05 17:22:05,800037
-2,15,8,-2,-3,-3,-3,-2,2021-08-05 17:22:05,815045
-2,4,-20,-4,-5,-3,-3,-2,2021-08-05 17:22:05,815045
-8,-61,-11,-1,-2,-1,-1,-2,2021-08-05 17:22:05,815045
0,3,-10,-3,-1,-4,-1,-4,2021-08-05 17:22:05,815045
2,34,8,-7,-6,-4,-4,-5,2021-08-05 17:22:05,815045
9,32,13,4,4,4,1,4,2021-08-05 17:22:05,815045
-9,-39,-15,-1,-2,-2,0,-3,2021-08-05 17:22:05,815045
2,11,8,0,0,2,1,2,2021-08-05 17:22:05,831081
-2,-13,-5,0,-1,-1,-2,-3,2021-08-05 17:22:05,831081
0,12,0,-2,-3,-3,-1,-2,2021-08-05 17:22:05,847180
-1,22,5,0,-3,-3,-3,-4,2021-08-05 17:22:05,862079
6,1,5,2,3,1,2,6,2021-08-05 17:22:05,862079
0,-9,-5,2,1,-1,0,-3,2021-08-05 17:22:05,862079
-8,-29,-6,-5,-5,-4,-3,-2,2021-08-05 17:22:05,862079
4,23,12,5,4,6,4,4,2021-08-05 17:22:05,862079
-2,-13,-2,-2,-2,-4,-2,-3,2021-08-05 17:22:05,862079
-5,-14,-27,-3,1,1,0,-1,2021-08-05 17:22:05,862079
-1,0,-2,-2,0,1,-2,0,2021-08-05 17:22:05,878196
2,6,-1,-5,-4,-4,-4,-5,2021-08-05 17:22:05,894046
-1,12,7,2,-2,1,-2,0,2021-08-05 17:22:05,894046
-4,19,26,1,-2,-1,-2,-1,2021-08-05 17:22:05,894046
-3,-36,-15,0,-1,2,-1,0,2021-08-05 17:22:05,894046
4,38,-8,-3,1,2,3,7,2021-08-05 17:22:05,894046
3,-56,-13,-2,-1,0,-1,0,2021-08-05 17:22:05,909261
-4,-10,-6,-4,-5,-3,-2,-5,2021-08-05 17:22:05,909261
-1,17,10,-2,-6,-4,-4,-5,2021-08-05 17:22:05,932095
5,20,7,0,-2,-3,-2,3,2021-08-05 17:22:05,932095
-2,5,-4,-1,-1,-3,-1,-3,2021-08-05 17:22:05,933078
2,-22,-3,4,4,3,2,5,2021-08-05 17:22:05,933078
1,20,13,0,-2,-3,-3,-4,2021-08-05 17:22:05,933078
-1,21,10,3,2,0,-1,1,2021-08-05 17:22:05,933078
-3,-4,-10,2,3,4,3,-1,2021-08-05 17:22:05,973081
-1,-46,-19,-5,-3,-1,0,-1,2021-08-05 17:22:05,988183
-6,15,11,-3,-2,0,-1,-5,2021-08-05 17:22:06,003294
6,-10,-15,-1,2,1,1,2,2021-08-05 17:22:06,003294
-13,15,4,-4,-3,-4,-3,-4,2021-08-05 17:22:06,003294
1,-6,-7,-3,-5,-4,-4,-5,2021-08-05 17:22:06,003294
12,6,9,7,6,7,6,11,2021-08-05 17:22:06,003294
-1,-11,2,-1,-1,-1,0,-1,2021-08-05 17:22:06,003294
3,18,12,-1,-3,-3,-5,-2,2021-08-05 17:22:06,003294
-4,26,-7,-1,3,-1,-1,0,2021-08-05 17:22:06,004079
-7,-63,9,2,0,-2,0,-1,2021-08-05 17:22:06,004079
-1,-17,-29,-5,-1,0,-1,-3,2021-08-05 17:22:06,004079
2,11,-9,-6,0,-1,-3,-1,2021-08-05 17:22:06,004079
-3,15,17,-3,-5,-5,-5,-4,2021-08-05 17:22:06,004633
-1,18,-2,-1,1,0,-2,1,2021-08-05 17:22:06,019077
-5,1,12,1,-1,-2,-2,-5,2021-08-05 17:22:06,035046
-2,-14,-7,-3,-5,-3,-2,-2,2021-08-05 17:22:06,035351
4,34,7,8,4,4,3,3,2021-08-05 17:22:06,035351
0,-24,-3,0,-1,-1,-1,-3,2021-08-05 17:22:06,035351
-4,-17,-14,-4,-5,-1,-3,-4,2021-08-05 17:22:06,035351
2,9,14,2,0,0,0,2,2021-08-05 17:22:06,051041
0,-11,-23,-4,-3,-3,-2,-3,2021-08-05 17:22:06,051258
1,21,9,1,-1,0,0,0,2021-08-05 17:22:06,051258
2,52,22,4,6,3,4,4,2021-08-05 17:22:06,051258
8,-92,-48,-5,0,1,4,1,2021-08-05 17:22:06,066408
-11,-1,12,5,0,1,1,-4,2021-08-05 17:22:06,066408
-18,-30,-11,-3,-1,0,0,-2,2021-08-05 17:22:06,098337
1,61,16,-4,-5,-3,-2,-3,2021-08-05 17:22:06,114395
12,16,48,6,-1,0,0,2,2021-08-05 17:22:06,129421
5,1,-59,-1,2,2,2,5,2021-08-05 17:22:06,129421
4,-18,4,-6,-4,-2,-2,-4,2021-08-05 17:22:06,129421
-22,-5,-21,-5,-7,-5,-5,-6,2021-08-05 17:22:06,129421
10,15,-1,-2,0,2,-2,2,2021-08-05 17:22:06,129421
-1,1,28,2,-3,0,0,-1,2021-08-05 17:22:06,129421
5,27,11,2,-1,-4,-2,1,2021-08-05 17:22:06,129421
1,-36,2,5,4,4,4,1,2021-08-05 17:22:06,129421
-9,28,-22,-2,-2,-4,0,-4,2021-08-05 17:22:06,130332
3,-46,-2,-1,2,2,1,3,2021-08-05 17:22:06,130332
-3,-34,-22,2,-1,-1,-1,-2,2021-08-05 17:22:06,145334
-1,-14,12,-7,-10,-8,-6,-9,2021-08-05 17:22:06,161404
4,74,7,2,4,4,3,3,2021-08-05 17:22:06,161539
-2,-9,43,3,-1,-2,-1,-1,2021-08-05 17:22:06,161662
3,-15,-32,5,6,6,5,4,2021-08-05 17:22:06,177393
-14,-32,-41,-14,-3,-2,-5,-8,2021-08-05 17:22:06,177476
-2,22,16,-7,-9,-9,-7,-9,2021-08-05 17:22:06,177476
4,4,-3,0,1,0,0,4,2021-08-05 17:22:06,177713
-1,10,0,-4,-6,-5,-2,-3,2021-08-05 17:22:06,177713
12,20,19,10,6,6,6,8,2021-08-05 17:22:06,177713
-6,-21,-24,2,-1,0,0,2,2021-08-05 17:22:06,177713
-1,-49,16,-5,-3,-1,-1,0,2021-08-05 17:22:06,177713
-8,3,-7,-2,-1,-3,-2,-4,2021-08-05 17:22:06,208477
2,25,9,1,2,2,0,0,2021-08-05 17:22:06,224299
-10,-25,-5,-2,-2,-4,-4,-8,2021-08-05 17:22:06,224513
4,13,-3,4,2,0,1,0,2021-08-05 17:22:06,224513
1,-8,-7,-7,-8,-6,-6,-2,2021-08-05 17:22:06,224696
0,-33,-3,-3,-5,-5,-3,-1,2021-08-05 17:22:06,224696
4,70,27,7,5,3,3,4,2021-08-05 17:22:06,224696
-4,-69,-12,-3,-4,-2,-2,-3,2021-08-05 17:22:06,224696
-1,67,-19,-9,-3,-1,1,-1,2021-08-05 17:22:06,239340
4,-18,12,4,1,1,0,2,2021-08-05 17:22:06,252437
-4,-31,-2,2,-3,-2,0,-3,2021-08-05 17:22:06,253297
-5,46,-4,-8,-6,-6,-3,-4,2021-08-05 17:22:06,253297
1,1,15,3,3,3,2,3,2021-08-05 17:22:06,253297
0,-1,17,2,-4,-4,-2,2,2021-08-05 17:22:06,253297
-1,10,-31,-3,2,2,1,-5,2021-08-05 17:22:06,269416
3,-59,-23,1,4,7,5,8,2021-08-05 17:22:06,269416
-14,8,17,-4,-5,-6,-5,-6,2021-08-05 17:22:06,285419
2,61,14,0,-2,-3,-2,-4,2021-08-05 17:22:06,301446
0,-84,-3,2,-1,0,0,2,2021-08-05 17:22:06,301591
4,31,-2,-1,-1,0,-2,-4,2021-08-05 17:22:06,301591
7,5,-12,-4,-4,-2,-1,-1,2021-08-05 17:22:06,301748
-3,-3,-2,1,3,2,1,1,2021-08-05 17:22:06,301748
1,8,11,-2,-1,-1,1,3,2021-08-05 17:22:06,317396
0,5,-14,2,3,2,2,2,2021-08-05 17:22:06,317396
-1,-7,1,0,-3,-2,0,0,2021-08-05 17:22:06,317396
-3,-6,-4,-7,-6,-5,-4,-7,2021-08-05 17:22:06,317396
1,-40,3,4,5,4,2,3,2021-08-05 17:22:06,333332
-5,13,5,1,2,0,1,0,2021-08-05 17:22:06,333332
3,40,11,3,1,0,-1,-1,2021-08-05 17:22:06,349299
0,-93,-26,-4,-1,0,1,1,2021-08-05 17:22:06,349299
-6,9,-13,-9,-6,-7,-4,-6,2021-08-05 17:22:06,349299
0,46,21,-2,0,-1,-2,0,2021-08-05 17:22:06,349299
-3,-10,-5,1,-1,-4,-2,-2,2021-08-05 17:22:06,365333
3,24,-15,-2,0,3,2,0,2021-08-05 17:22:06,365333
-4,-6,21,2,-1,0,1,0,2021-08-05 17:22:06,365333
1,-6,-36,-6,-4,-5,-4,-4,2021-08-05 17:22:06,365333
-4,-12,3,-4,-2,-3,-2,-2,2021-08-05 17:22:06,381350
-4,-7,-1,2,0,-1,-3,1,2021-08-05 17:22:06,381350
0,13,8,-2,-3,-2,-4,-4,2021-08-05 17:22:06,381350
5,17,6,-3,-1,-4,-2,-3,2021-08-05 17:22:06,381350
4,-18,-3,3,3,4,4,2,2021-08-05 17:22:06,412480
-16,2,-9,-3,-4,-3,-1,-3,2021-08-05 17:22:06,412568
1,-8,2,0,0,0,-2,-1,2021-08-05 17:22:06,412568
0,67,29,0,-2,-1,-4,-3,2021-08-05 17:22:06,412568
10,-14,-12,3,6,3,2,6,2021-08-05 17:22:06,428426
7,-103,-33,-6,0,-1,0,2,2021-08-05 17:22:06,428426
-23,51,13,-4,-3,-3,-3,-5,2021-08-05 17:22:06,428426
4,7,-1,3,2,2,3,2,2021-08-05 17:22:06,428426
1,-14,11,-2,-3,-2,-3,-3,2021-08-05 17:22:06,444333
5,35,14,5,1,-1,-1,0,2021-08-05 17:22:06,460399
7,-2,-11,3,3,5,3,6,2021-08-05 17:22:06,476438
-5,-6,-10,-6,-6,-6,-3,-5,2021-08-05 17:22:06,476647
-5,-1,12,-1,1,0,0,1,2021-08-05 17:22:06,476647
-4,-39,0,3,-2,-3,-1,-1,2021-08-05 17:22:06,476647
0,-25,-26,-8,-4,-4,-4,-4,2021-08-05 17:22:06,476647
-4,24,14,1,0,1,0,1,2021-08-05 17:22:06,476647
4,17,1,0,-3,-1,1,1,2021-08-05 17:22:06,492379
6,11,9,1,0,-1,-3,-1,2021-08-05 17:22:06,492379
-15,7,-9,1,0,0,1,-1,2021-08-05 17:22:06,492379
3,-39,3,0,3,1,-1,-1,2021-08-05 17:22:06,492379
-4,-2,-23,-8,-4,-3,-3,-2,2021-08-05 17:22:06,492379
1,21,20,-2,-3,-3,-2,-2,2021-08-05 17:22:06,492379
5,-30,-5,0,-1,-2,-2,-2,2021-08-05 17:22:06,507695
-1,-5,-11,-4,-4,-1,0,2,2021-08-05 17:22:06,507782
-1,3,31,6,5,3,3,0,2021-08-05 17:22:06,523542
-6,-11,-52,-2,-2,-1,-1,-3,2021-08-05 17:22:06,523542
6,0,12,-5,0,2,-1,2,2021-08-05 17:22:06,523542
-5,66,-5,-4,-5,-4,-2,-4,2021-08-05 17:22:06,523542
0,-53,8,0,-1,-2,-3,-2,2021-08-05 17:22:06,554594
2,11,4,0,3,3,2,-1,2021-08-05 17:22:06,570568
1,21,4,-2,1,-1,0,1,2021-08-05 17:22:06,570706
-1,23,-1,0,1,1,1,1,2021-08-05 17:22:06,570706
-1,-36,-26,-6,-1,-2,-1,-1,2021-08-05 17:22:06,570706
-3,27,19,-2,-3,-1,-2,1,2021-08-05 17:22:06,570706
3,-26,-14,-1,-1,0,0,-1,2021-08-05 17:22:06,570706
-1,-8,16,2,0,-3,-3,-2,2021-08-05 17:22:06,570706
-6,15,1,0,-1,-2,-2,-5,2021-08-05 17:22:06,576298
-1,39,7,1,2,3,1,4,2021-08-05 17:22:06,576502
6,-17,-11,0,2,0,1,1,2021-08-05 17:22:06,576555
-5,-31,-11,-5,-6,-4,-4,-6,2021-08-05 17:22:06,577054
-6,-3,2,1,1,2,0,1,2021-08-05 17:22:06,617444
12,45,0,-4,-4,-5,-4,-5,2021-08-05 17:22:06,617683
-17,-54,18,-1,-4,-3,-3,-2,2021-08-05 17:22:06,617683
2,-11,-12,5,2,2,2,3,2021-08-05 17:22:06,617806
4,0,-1,-1,-2,-1,-1,0,2021-08-05 17:22:06,617806
-5,1,-6,0,1,2,0,1,2021-08-05 17:22:06,617806
6,32,4,-3,-5,-3,-4,-5,2021-08-05 17:22:06,633461
-2,-40,1,3,4,2,0,-1,2021-08-05 17:22:06,633567
-1,33,3,-1,-2,0,-1,-4,2021-08-05 17:22:06,649495
-1,18,12,2,2,0,2,3,2021-08-05 17:22:06,665445
-6,-48,-25,-9,-9,-7,-5,-5,2021-08-05 17:22:06,665445
-5,-7,-5,-4,-4,-1,-2,-3,2021-08-05 17:22:06,665445
2,32,4,5,5,2,1,1,2021-08-05 17:22:06,665445
-1,-5,13,-1,-1,0,2,1,2021-08-05 17:22:06,665445
7,22,-4,3,2,1,1,2,2021-08-05 17:22:06,665951
-8,-39,-3,-5,-3,0,-3,2,2021-08-05 17:22:06,665951
4,9,-6,0,0,1,1,2,2021-08-05 17:22:06,681570
-20,-11,-4,-4,-5,-6,-4,-12,2021-08-05 17:22:06,697544
5,3,1,1,1,1,0,-1,2021-08-05 17:22:06,712407
1,7,5,0,0,-1,-2,-2,2021-08-05 17:22:06,712488
7,-32,-7,-4,-4,-3,-4,-1,2021-08-05 17:22:06,712488
-6,0,0,-1,3,1,2,6,2021-08-05 17:22:06,712488
3,42,-2,-1,-1,1,0,-1,2021-08-05 17:22:06,712488
-1,5,22,5,1,-1,1,2,2021-08-05 17:22:06,727622
-8,-80,-16,3,0,1,0,-3,2021-08-05 17:22:06,743413
10,-28,-36,-5,0,3,2,0,2021-08-05 17:22:06,759464
-5,12,8,-5,-5,-5,-5,-4,2021-08-05 17:22:06,775456
0,-12,-8,-5,0,-3,-4,-3,2021-08-05 17:22:06,775456
-2,71,22,-2,-4,-3,-2,-2,2021-08-05 17:22:06,775456
-1,-23,6,2,2,1,-1,2,2021-08-05 17:22:06,775456
2,2,7,4,2,3,3,3,2021-08-05 17:22:06,775456
1,-11,-23,0,3,4,4,3,2021-08-05 17:22:06,775456
-6,7,3,-2,-5,-2,-3,-4,2021-08-05 17:22:06,775456
0,-14,-13,-6,-8,-7,-8,-9,2021-08-05 17:22:06,775456
0,43,9,3,4,5,3,6,2021-08-05 17:22:06,776449
-4,-23,14,0,-4,-3,-2,-3,2021-08-05 17:22:06,776449
-1,16,-16,-4,-2,-1,0,2,2021-08-05 17:22:06,791539
2,15,6,1,-1,0,-2,-2,2021-08-05 17:22:06,807371
1,10,-2,-2,-1,-3,0,0,2021-08-05 17:22:06,807584
6,-49,5,3,1,1,1,-1,2021-08-05 17:22:06,807584
-12,17,-10,2,2,2,2,0,2021-08-05 17:22:06,807584
2,-23,16,1,-2,-1,0,0,2021-08-05 17:22:06,807584
-3,28,-5,-3,-4,-3,-4,-3,2021-08-05 17:22:06,807584
0,-33,-23,-4,2,2,0,-1,2021-08-05 17:22:06,807584
6,2,2,-2,-1,-2,0,-1,2021-08-05 17:22:06,822897
-2,13,0,-1,-2,-2,-2,-1,2021-08-05 17:22:06,822998
-10,-21,2,0,1,-1,0,-2,2021-08-05 17:22:06,822998
8,24,0,2,-1,-2,2,3,2021-08-05 17:22:06,823290
-2,39,32,3,2,1,-1,1,2021-08-05 17:22:06,854487
0,-59,-24,2,6,3,2,-1,2021-08-05 17:22:06,854665
-16,-15,-9,-9,-7,-6,-4,-7,2021-08-05 17:22:06,854665
-1,24,-4,-6,-7,-7,-8,-8,2021-08-05 17:22:06,854665
5,8,-7,0,3,2,3,4,2021-08-05 17:22:06,854665
7,23,19,3,3,0,2,3,2021-08-05 17:22:06,854665
3,-8,-7,2,3,1,-2,-2,2021-08-05 17:22:06,870481
-5,-5,5,6,5,2,4,4,2021-08-05 17:22:06,870481
2,-9,-5,-4,-6,-2,-2,-2,2021-08-05 17:22:06,886585
-6,16,2,-2,-4,-3,-3,-5,2021-08-05 17:22:06,886745
-6,68,39,7,1,0,3,2,2021-08-05 17:22:06,886745
-2,-92,-47,0,5,3,1,1,2021-08-05 17:22:06,886745
4,42,-4,-4,-3,-1,0,-2,2021-08-05 17:22:06,899436
0,18,7,-1,-3,-2,-3,-4,2021-08-05 17:22:06,899436
6,-28,-7,-4,-1,1,-2,2,2021-08-05 17:22:06,899436
-1,60,34,-1,-7,-6,-6,-5,2021-08-05 17:22:06,899436
-5,-32,-26,-2,3,0,0,-1,2021-08-05 17:22:06,918522
-9,-6,5,-3,-5,-4,-2,-2,2021-08-05 17:22:06,918522
9,-4,-1,2,0,1,1,2,2021-08-05 17:22:06,934624
-4,14,9,-4,-3,-3,-2,-2,2021-08-05 17:22:06,934710
3,-46,5,4,4,3,1,-1,2021-08-05 17:22:06,949623
8,6,-8,2,2,2,3,5,2021-08-05 17:22:06,949623
10,-57,-34,-7,-3,-3,-1,-1,2021-08-05 17:22:06,949623
-33,12,-7,-8,-5,-4,-1,-5,2021-08-05 17:22:06,949916
-6,-9,28,6,-1,-2,-3,-5,2021-08-05 17:22:06,964512
2,0,13,-1,-1,-4,-3,0,2021-08-05 17:22:06,964512
3,-53,-27,5,4,3,0,-3,2021-08-05 17:22:06,964784
4,3,-16,-5,-6,-4,-4,2,2021-08-05 17:22:06,964784
-1,32,6,-10,-9,-8,-7,-5,2021-08-05 17:22:06,979519
-2,1,4,3,6,4,2,3,2021-08-05 17:22:06,979604
9,38,31,10,8,5,6,5,2021-08-05 17:22:06,995482
2,-5,-15,2,3,5,5,1,2021-08-05 17:22:07,011471
-6,-12,-12,-6,-1,1,1,-3,2021-08-05 17:22:07,011471
7,6,-1,0,-1,1,2,3,2021-08-05 17:22:07,011471
-16,-12,0,-7,-5,-3,-2,-4,2021-08-05 17:22:07,011471
8,19,0,0,6,4,1,1,2021-08-05 17:22:07,011471
3,7,3,-2,-2,-1,-2,1,2021-08-05 17:22:07,027580
-1,-22,-18,-6,-7,-4,-4,-4,2021-08-05 17:22:07,027580
-3,65,15,1,-1,-2,-3,-2,2021-08-05 17:22:07,027580
-5,-45,0,-2,0,-1,-1,-2,2021-08-05 17:22:07,027580
0,23,-21,-1,2,3,1,1,2021-08-05 17:22:07,043517
-12,-11,8,2,4,2,-1,-5,2021-08-05 17:22:07,043812
5,14,-12,-4,-5,-5,-5,-1,2021-08-05 17:22:07,043812
2,15,37,0,-8,-6,-6,-2,2021-08-05 17:22:07,043812
1,-21,-17,1,3,2,1,3,2021-08-05 17:22:07,074592
-5,13,-5,0,-2,-1,-2,-1,2021-08-05 17:22:07,074592
-5,-40,-1,-3,-5,-1,0,-3,2021-08-05 17:22:07,074592
9,36,6,6,3,2,3,4,2021-08-05 17:22:07,074592
1,-15,14,4,1,1,0,2,2021-08-05 17:22:07,089437
-4,-8,-7,-4,-1,-1,0,0,2021-08-05 17:22:07,105491
-3,-4,-13,-8,-5,-4,-3,-5,2021-08-05 17:22:07,121570
5,-4,-8,-4,-2,-1,-1,-1,2021-08-05 17:22:07,121570
2,54,11,1,2,0,2,1,2021-08-05 17:22:07,121570
2,46,7,-1,-5,-4,-4,-4,2021-08-05 17:22:07,121570
-11,-47,5,1,3,2,4,6,2021-08-05 17:22:07,121570
-2,7,-11,-2,1,1,1,0,2021-08-05 17:22:07,121570
-2,-21,-23,-5,-6,-4,-4,-4,2021-08-05 17:22:07,137434
4,-8,-5,-2,0,0,-2,-3,2021-08-05 17:22:07,152626
4,27,7,-2,-2,-3,-4,-4,2021-08-05 17:22:07,152750
-2,6,12,5,2,2,-1,-1,2021-08-05 17:22:07,152963
-5,-16,-3,0,1,0,0,1,2021-08-05 17:22:07,152963
10,-14,10,-2,-4,-3,-1,1,2021-08-05 17:22:07,152963
7,4,0,-3,-7,-4,-2,-2,2021-08-05 17:22:07,152963
-30,-25,-28,6,13,10,8,5,2021-08-05 17:22:07,152963
2,3,5,-6,-8,-8,-6,-8,2021-08-05 17:22:07,153436
4,-10,-6,1,8,3,4,5,2021-08-05 17:22:07,153436
10,2,-8,-2,0,-1,-1,-1,2021-08-05 17:22:07,184520
0,-17,13,-6,-8,-6,-5,-2,2021-08-05 17:22:07,184520
-4,-37,-19,-1,2,0,-1,-3,2021-08-05 17:22:07,184520
-8,71,27,1,-4,-3,-2,-4,2021-08-05 17:22:07,184913
1,-62,-19,-2,-1,-2,-1,-1,2021-08-05 17:22:07,184913
5,61,-2,0,1,1,1,-2,2021-08-05 17:22:07,184913
-7,-77,-12,6,5,4,3,1,2021-08-05 17:22:07,214721
-6,19,-2,-6,-6,-3,-1,0,2021-08-05 17:22:07,219721
-3,9,3,2,-1,0,1,-3,2021-08-05 17:22:07,219721
3,-1,14,1,-6,-4,-4,-3,2021-08-05 17:22:07,220785
0,32,23,-5,-7,-6,-5,-3,2021-08-05 17:22:07,220785
5,-13,-37,1,5,3,2,1,2021-08-05 17:22:07,220785
-3,-2,5,0,-1,-1,0,0,2021-08-05 17:22:07,229834
-2,-6,10,-3,-4,-4,-4,-6,2021-08-05 17:22:07,244846
2,12,-14,4,2,0,-1,2,2021-08-05 17:22:07,244846
-4,14,9,-3,-6,-3,-1,0,2021-08-05 17:22:07,245077
-5,-80,-1,-1,3,2,2,4,2021-08-05 17:22:07,245077
5,49,-8,1,-1,-1,1,-1,2021-08-05 17:22:07,245077
-16,-17,3,-7,-8,-5,-2,-4,2021-08-05 17:22:07,275721
3,-13,10,3,3,1,3,0,2021-08-05 17:22:07,291941
11,29,-39,-3,-2,0,-1,-1,2021-08-05 17:22:07,291941
-17,-7,16,-8,-9,-7,-5,-6,2021-08-05 17:22:07,291941
6,1,-4,5,8,5,3,2,2021-08-05 17:22:07,291941
1,-7,11,5,1,-2,-1,4,2021-08-05 17:22:07,291941
1,87,16,4,3,2,1,4,2021-08-05 17:22:07,291941
13,-73,17,7,3,1,2,0,2021-08-05 17:22:07,291941
-10,11,-33,-4,-4,-3,-1,-4,2021-08-05 17:22:07,307857
-12,-55,-5,-9,-7,-5,-5,-5,2021-08-05 17:22:07,307857
0,17,9,3,2,0,-2,-1,2021-08-05 17:22:07,308020
2,31,-2,-4,-2,-3,-2,1,2021-08-05 17:22:07,308020
2,5,20,5,-2,0,0,2,2021-08-05 17:22:07,323738
4,-10,-18,-1,1,0,1,1,2021-08-05 17:22:07,323799
-11,0,-8,-2,-3,-2,-1,-6,2021-08-05 17:22:07,323799
-4,-40,-5,-5,-6,-4,-5,-4,2021-08-05 17:22:07,323799
6,9,14,5,5,2,1,2,2021-08-05 17:22:07,353744
-10,-16,-27,-3,-4,-4,-5,-6,2021-08-05 17:22:07,369858
3,28,21,0,2,4,4,8,2021-08-05 17:22:07,369858
12,7,8,6,4,3,1,2,2021-08-05 17:22:07,369858
-8,-9,-19,-9,-8,-7,-4,-4,2021-08-05 17:22:07,369858
-14,-36,-9,1,0,0,-2,-4,2021-08-05 17:22:07,370331
0,15,25,2,-1,-4,-4,-2,2021-08-05 17:22:07,370331
3,16,-27,-6,-3,-2,-2,-1,2021-08-05 17:22:07,370331
4,-54,14,1,2,3,2,4,2021-08-05 17:22:07,385914
3,28,-5,1,3,1,1,-2,2021-08-05 17:22:07,401505
-1,-34,4,0,-2,-3,-2,-4,2021-08-05 17:22:07,416814
-1,-6,-21,-1,1,0,0,0,2021-08-05 17:22:07,416814
4,56,1,-6,-7,-4,-5,-4,2021-08-05 17:22:07,416814
-7,-26,5,-3,-2,0,0,2,2021-08-05 17:22:07,416814
-2,-24,8,6,3,1,1,-1,2021-08-05 17:22:07,416814
5,8,-6,1,1,3,5,4,2021-08-05 17:22:07,416814
2,2,-16,-2,0,3,0,0,2021-08-05 17:22:07,416814
-13,-8,15,-3,-5,-5,-2,-6,2021-08-05 17:22:07,417686
-1,24,-9,-2,0,-3,-2,-2,2021-08-05 17:22:07,432803
6,15,12,0,-1,-2,-3,0,2021-08-05 17:22:07,432930
1,-5,5,1,1,-1,1,0,2021-08-05 17:22:07,448722
11,20,-5,2,2,5,2,5,2021-08-05 17:22:07,464723
-15,0,5,0,-2,1,0,-2,2021-08-05 17:22:07,464723
-6,-36,-36,-6,-5,-6,-2,-3,2021-08-05 17:22:07,464723
1,9,19,-3,-4,-3,-3,-2,2021-08-05 17:22:07,464723
6,15,11,4,0,-1,0,-2,2021-08-05 17:22:07,464723
0,23,1,2,2,3,2,1,2021-08-05 17:22:07,465192
-6,-24,14,2,0,-2,-2,0,2021-08-05 17:22:07,465192
3,1,-23,0,3,1,0,1,2021-08-05 17:22:07,479739
-2,-3,1,-3,-3,0,-1,-1,2021-08-05 17:22:07,479739
-4,21,-21,-6,-6,-3,-2,-4,2021-08-05 17:22:07,495820
-2,-41,10,-1,1,0,-1,-3,2021-08-05 17:22:07,510810
-3,14,4,0,-1,0,2,-1,2021-08-05 17:22:07,525723
1,-4,0,1,1,3,2,1,2021-08-05 17:22:07,535687
3,-7,4,-2,-3,-3,-3,0,2021-08-05 17:22:07,536725
0,46,2,4,3,2,1,1,2021-08-05 17:22:07,536725
-7,8,11,-3,-6,-3,-3,-3,2021-08-05 17:22:07,536725
2,-38,-12,5,7,4,4,3,2021-08-05 17:22:07,536725
1,-20,-19,-5,-4,-4,-3,-3,2021-08-05 17:22:07,536725
-6,12,-3,-5,-1,-1,-2,-1,2021-08-05 17:22:07,536725
0,3,8,2,-1,-2,-1,-1,2021-08-05 17:22:07,536725
4,26,18,-1,-2,-1,-4,2,2021-08-05 17:22:07,537725
1,-14,-11,7,7,3,3,4,2021-08-05 17:22:07,556835
-1,19,-3,-3,-4,-2,-1,-3,2021-08-05 17:22:07,572817
-3,-29,11,0,4,1,2,2,2021-08-05 17:22:07,587838
-2,-44,-22,0,1,-1,0,-3,2021-08-05 17:22:07,587838
3,-27,9,-2,-2,0,-1,-2,2021-08-05 17:22:07,587838
1,4,-2,0,1,1,1,2,2021-08-05 17:22:07,587838
-7,18,-10,-5,-7,-4,-5,-4,2021-08-05 17:22:07,587838
0,21,5,-5,-7,-4,-4,-4,2021-08-05 17:22:07,587838
2,18,11,2,2,2,1,1,2021-08-05 17:22:07,587838
2,-23,5,1,-3,-3,-1,-1,2021-08-05 17:22:07,587838
14,68,-4,3,5,3,5,3,2021-08-05 17:22:07,603686
-17,-79,-22,-6,-3,-3,-3,-3,2021-08-05 17:22:07,619020
-5,12,1,-6,-7,-9,-8,-9,2021-08-05 17:22:07,619020
1,12,11,-3,-2,-2,0,2,2021-08-05 17:22:07,619020
2,37,11,8,3,4,1,2,2021-08-05 17:22:07,619020
7,-11,2,0,-1,0,0,3,2021-08-05 17:22:07,619020
-2,-1,-9,-2,-3,0,0,0,2021-08-05 17:22:07,619721
-7,-9,-11,-2,-3,-3,-3,-2,2021-08-05 17:22:07,619721
-3,-28,1,-5,-4,-4,-2,-3,2021-08-05 17:22:07,650782
8,62,16,8,8,4,4,2,2021-08-05 17:22:07,666796
-1,-30,2,-2,2,3,1,-1,2021-08-05 17:22:07,682740
7,42,5,-1,1,2,1,0,2021-08-05 17:22:07,682916
-14,-79,-32,-4,-3,-3,-1,-3,2021-08-05 17:22:07,682916
1,75,15,-8,-8,-6,-6,-5,2021-08-05 17:22:07,682916
-3,-17,-6,-1,0,-1,0,1,2021-08-05 17:22:07,682916
6,-54,-11,5,2,3,3,3,2021-08-05 17:22:07,682916
5,2,11,1,3,1,0,-1,2021-08-05 17:22:07,682916
0,11,-3,-6,-6,-4,-4,-3,2021-08-05 17:22:07,682916
-7,13,6,0,-2,-2,-1,0,2021-08-05 17:22:07,683686
-14,106,28,-1,-1,0,0,-3,2021-08-05 17:22:07,683686
-4,-103,-38,0,1,0,-2,-2,2021-08-05 17:22:07,712762
9,15,0,4,3,5,2,3,2021-08-05 17:22:07,712907
5,18,9,1,-2,-2,-2,-2,2021-08-05 17:22:07,712907
-2,-4,-7,-2,-4,-5,-5,-3,2021-08-05 17:22:07,712907
2,26,18,-4,-3,-4,-2,0,2021-08-05 17:22:07,728725
0,-7,3,3,-3,-4,0,-2,2021-08-05 17:22:07,743755
-3,-10,-14,0,3,2,2,3,2021-08-05 17:22:07,743755
-3,-51,-3,-3,-2,0,-1,-3,2021-08-05 17:22:07,743755
-1,14,-8,-2,0,1,0,-1,2021-08-05 17:22:07,743755
0,-10,7,0,-1,-1,0,-2,2021-08-05 17:22:07,743755
1,23,4,1,-1,0,3,3,2021-08-05 17:22:07,743755
-1,5,-1,-1,-1,-2,0,-1,2021-08-05 17:22:07,744723
0,-25,-19,-2,1,1,-1,0,2021-08-05 17:22:07,774684
-10,-8,-3,-3,-1,1,0,-1,2021-08-05 17:22:07,774985
1,44,19,-1,-1,-2,-2,-5,2021-08-05 17:22:07,806822
5,-32,-14,0,1,0,1,3,2021-08-05 17:22:07,806989
4,97,43,5,2,1,1,4,2021-08-05 17:22:07,806989
-17,-107,-30,-1,-2,-2,-1,0,2021-08-05 17:22:07,806989
-5,0,-39,-6,1,2,-1,-2,2021-08-05 17:22:07,806989
2,40,22,-6,-7,-6,-7,-7,2021-08-05 17:22:07,806989
4,12,-7,0,-2,-2,-1,-1,2021-08-05 17:22:07,806989
1,29,20,0,1,-1,0,-1,2021-08-05 17:22:07,807685
7,-18,8,5,3,4,3,5,2021-08-05 17:22:07,807685
-6,0,-17,-5,-6,-1,1,0,2021-08-05 17:22:07,807685
-1,-40,-2,6,6,3,3,-2,2021-08-05 17:22:07,837737
-8,28,-4,2,2,0,1,-1,2021-08-05 17:22:07,837893
-1,-39,-2,-7,-7,-5,-6,-3,2021-08-05 17:22:07,838000
2,30,1,0,0,-1,-2,-2,2021-08-05 17:22:07,838150
3,-13,5,-2,-4,-3,-2,0,2021-08-05 17:22:07,853811
4,23,7,0,-1,0,-1,1,2021-08-05 17:22:07,862722
-4,-24,-13,0,1,1,1,-1,2021-08-05 17:22:07,862722
-4,-16,-11,-4,-4,-4,-3,-4,2021-08-05 17:22:07,862722
-7,-18,-12,-5,-2,-2,-1,0,2021-08-05 17:22:07,862722
5,107,11,1,2,0,0,0,2021-08-05 17:22:07,862722
7,-92,14,2,1,1,0,0,2021-08-05 17:22:07,862722
-9,-16,-14,-1,1,3,2,2,2021-08-05 17:22:07,863686
-14,20,14,0,-1,1,-2,-5,2021-08-05 17:22:07,885719
6,27,-11,-1,2,1,1,3,2021-08-05 17:22:07,900721
-2,2,-2,-2,-5,-4,0,-2,2021-08-05 17:22:07,901054
8,26,18,4,-1,-2,-2,-1,2021-08-05 17:22:07,901054
6,-43,-12,5,4,3,3,7,2021-08-05 17:22:07,901054
-9,-20,-7,-4,-4,-5,-4,-6,2021-08-05 17:22:07,901054
1,26,4,-4,-7,-4,-5,-5,2021-08-05 17:22:07,915740
-4,-48,-6,1,0,0,-2,1,2021-08-05 17:22:07,915740
-3,41,13,-4,-5,-3,-3,-3,2021-08-05 17:22:07,947840
4,-19,2,2,1,2,1,2,2021-08-05 17:22:07,947840
-4,-6,-10,1,3,1,0,1,2021-08-05 17:22:07,948168
-2,-3,-6,-3,-2,-3,-3,-2,2021-08-05 17:22:07,948348
-3,12,16,-3,-7,-6,-4,-5,2021-08-05 17:22:07,948348
1,-57,-8,-1,-1,-2,0,1,2021-08-05 17:22:07,948348
-4,22,-14,-2,0,1,0,1,2021-08-05 17:22:07,948687
0,17,12,-3,-2,-1,-1,-1,2021-08-05 17:22:07,948694
1,-67,-13,0,1,0,0,0,2021-08-05 17:22:07,963759
7,1,-15,1,2,1,-1,-1,2021-08-05 17:22:07,963759
-11,92,31,0,-4,-4,-3,-2,2021-08-05 17:22:07,963759
5,-66,-20,1,2,1,-1,2,2021-08-05 17:22:07,963759
6,39,-4,-6,-5,-3,-3,-4,2021-08-05 17:22:07,994791
-31,-17,9,-2,-4,-3,-5,-7,2021-08-05 17:22:08,010846
7,-40,-10,0,2,2,1,1,2021-08-05 17:22:08,010846
4,31,9,3,2,1,2,0,2021-08-05 17:22:08,010846
9,-10,-5,-4,-5,-4,-1,1,2021-08-05 17:22:08,010846
8,9,0,-3,-3,0,-1,1,2021-08-05 17:22:08,010846
-8,-14,3,-1,-6,-5,-2,-3,2021-08-05 17:22:08,010846
-4,-7,-16,0,4,1,1,0,2021-08-05 17:22:08,010846
-1,-1,-2,3,4,2,3,3,2021-08-05 17:22:08,026740
1,7,4,0,1,0,0,1,2021-08-05 17:22:08,026820
-3,21,3,2,3,2,2,-1,2021-08-05 17:22:08,027005
2,-6,-2,-4,-2,-2,-2,-4,2021-08-05 17:22:08,027005
-8,-29,3,-1,-1,0,1,3,2021-08-05 17:22:08,058832
-2,19,7,-3,-3,-2,-3,-1,2021-08-05 17:22:08,074721
7,-8,-5,-1,-1,0,0,0,2021-08-05 17:22:08,089770
1,-38,-21,-3,-1,0,0,-1,2021-08-05 17:22:08,090098
-6,31,-2,-5,-6,-4,-5,-5,2021-08-05 17:22:08,090287
-2,13,11,-4,-6,-4,-4,-2,2021-08-05 17:22:08,090360
6,-29,18,7,3,2,1,0,2021-08-05 17:22:08,090360
-3,-3,-24,1,0,0,0,1,2021-08-05 17:22:08,090360
-2,15,9,-3,-3,-2,-2,-3,2021-08-05 17:22:08,090360
11,13,0,-1,2,0,3,4,2021-08-05 17:22:08,090685
-6,-32,-8,0,2,-2,-1,-2,2021-08-05 17:22:08,090685
-12,10,17,-5,-4,-6,-5,-3,2021-08-05 17:22:08,090685
4,11,-5,2,3,3,0,1,2021-08-05 17:22:08,105832
-1,-10,-8,-3,-1,-1,0,-3,2021-08-05 17:22:08,105832
1,4,-4,-4,-3,-2,-1,-1,2021-08-05 17:22:08,105832
3,8,11,6,2,2,1,2,2021-08-05 17:22:08,105832
-2,47,1,0,2,-1,1,0,2021-08-05 17:22:08,136739
0,-45,-1,0,-1,-2,0,1,2021-08-05 17:22:08,152797
-2,0,-19,-4,0,0,1,-1,2021-08-05 17:22:08,152797
-6,-4,7,-5,-5,-3,-5,-6,2021-08-05 17:22:08,152797
1,97,13,2,-1,-1,-3,0,2021-08-05 17:22:08,152797
8,-51,-4,8,6,5,3,5,2021-08-05 17:22:08,152797
-3,-23,-11,0,3,4,2,5,2021-08-05 17:22:08,153407
2,6,-6,-10,-9,-5,-6,-8,2021-08-05 17:22:08,153538
-9,-12,-3,5,5,2,0,1,2021-08-05 17:22:08,168686
-2,5,3,-3,-4,-3,-3,-5,2021-08-05 17:22:08,168831
-1,41,-3,-4,-3,-2,-2,1,2021-08-05 17:22:08,168831
2,-30,11,2,1,0,1,0,2021-08-05 17:22:08,168831
0,-34,-15,-8,-6,-4,-2,-2,2021-08-05 17:22:08,192729
1,4,-11,2,4,4,4,0,2021-08-05 17:22:08,192729
-2,22,12,-2,-3,-2,1,1,2021-08-05 17:22:08,193688
