EMG 1,EMG 2,EMG 3,EMG 4,EMG 5,EMG 6,EMG 7,EMG 8,Timestamp,Milliseconds
0,-14,-7,2,0,-1,-2,-3,2021-08-05 17:18:28,122205
-1,-21,-6,0,0,-1,0,1,2021-08-05 17:18:28,122323
-3,-32,1,2,1,2,2,1,2021-08-05 17:18:28,122474
0,25,-2,-3,-6,-5,-5,-3,2021-08-05 17:18:28,122547
0,30,10,3,3,0,1,3,2021-08-05 17:18:28,122547
3,28,17,3,0,1,-1,-1,2021-08-05 17:18:28,122659
-4,-62,-23,-3,0,-1,-1,-1,2021-08-05 17:18:28,122745
-3,-16,-9,-2,-2,0,-3,-3,2021-08-05 17:18:28,122745
-2,-1,-1,-5,-3,-1,1,-1,2021-08-05 17:18:28,122745
-2,17,6,-2,-3,-3,-1,-2,2021-08-05 17:18:28,123073
5,56,28,1,1,0,1,1,2021-08-05 17:18:28,154330
6,-67,-48,-2,3,0,1,4,2021-08-05 17:18:28,154330
-17,-16,-11,-11,-11,-7,-4,-6,2021-08-05 17:18:28,154330
1,7,5,-3,-2,-4,-3,-4,2021-08-05 17:18:28,154330
2,39,12,3,0,1,-1,-1,2021-08-05 17:18:28,154330
5,7,35,7,6,6,4,4,2021-08-05 17:18:28,154330
5,0,-25,3,2,1,0,1,2021-08-05 17:18:28,170289
-17,-65,-13,-10,-5,-5,-3,-6,2021-08-05 17:18:28,170289
-1,51,6,-8,-8,-7,-5,-4,2021-08-05 17:18:28,201276
-5,-58,-22,-7,-5,-4,-3,-1,2021-08-05 17:18:28,201276
11,63,36,13,7,5,3,2,2021-08-05 17:18:28,201276
4,-39,-13,-2,0,2,1,4,2021-08-05 17:18:28,201276
3,-6,-1,3,4,2,2,2,2021-08-05 17:18:28,231317
-1,-8,-13,-4,-1,1,0,-3,2021-08-05 17:18:28,231317
-2,-10,-16,-3,-3,-2,-2,-3,2021-08-05 17:18:28,231317
-2,26,21,-4,-5,-6,-4,-4,2021-08-05 17:18:28,231317
1,-25,-15,6,7,6,4,4,2021-08-05 17:18:28,231317
7,22,11,-7,-7,-4,-3,-3,2021-08-05 17:18:28,231317
-6,-18,10,10,9,7,5,3,2021-08-05 17:18:28,236184
-1,-6,-22,-1,-1,-4,-2,-6,2021-08-05 17:18:28,236184
-3,31,7,-5,-5,-4,-4,-4,2021-08-05 17:18:28,247281
7,18,16,11,7,1,2,4,2021-08-05 17:18:28,263184
3,-67,-18,-4,-3,1,1,1,2021-08-05 17:18:28,278664
-9,-13,-2,-5,-4,-3,-2,-2,2021-08-05 17:18:28,294265
-7,26,1,-7,-5,-3,-3,-6,2021-08-05 17:18:28,309265
3,2,-4,0,0,-2,-1,-2,2021-08-05 17:18:28,309265
8,53,22,5,6,3,1,3,2021-08-05 17:18:28,309265
3,2,-5,4,2,3,3,5,2021-08-05 17:18:28,309265
-3,-58,-11,-4,-5,-4,-1,-2,2021-08-05 17:18:28,309265
-7,44,10,-3,-3,-1,-4,-2,2021-08-05 17:18:28,309265
-4,-59,-31,-3,0,1,-3,0,2021-08-05 17:18:28,309265
-3,-8,13,0,-2,-2,-2,-6,2021-08-05 17:18:28,309265
2,4,-24,-4,1,0,1,2,2021-08-05 17:18:28,309265
-6,3,11,-10,-10,-8,-6,-7,2021-08-05 17:18:28,310184
0,21,18,7,6,3,2,1,2021-08-05 17:18:28,324270
4,28,-13,3,4,3,2,4,2021-08-05 17:18:28,324270
-3,-39,12,-1,-3,-4,-1,1,2021-08-05 17:18:28,324270
-7,-39,-12,3,1,2,0,-2,2021-08-05 17:18:28,324270
1,42,1,-7,-4,-4,-3,-2,2021-08-05 17:18:28,355314
-2,-15,-13,-5,-6,-3,-4,-5,2021-08-05 17:18:28,355314
-3,35,17,4,3,5,3,2,2021-08-05 17:18:28,355314
0,-48,-17,2,2,0,0,0,2021-08-05 17:18:28,355314
1,78,22,1,-5,-5,-2,-3,2021-08-05 17:18:28,371291
6,-76,-6,2,2,2,1,2,2021-08-05 17:18:28,387281
-10,-19,-25,-3,1,0,1,-2,2021-08-05 17:18:28,402329
5,48,13,0,-3,-2,-2,0,2021-08-05 17:18:28,402329
-8,-69,-7,-1,-1,0,-1,-1,2021-08-05 17:18:28,402329
-2,41,22,-7,-8,-7,-3,-3,2021-08-05 17:18:28,402329
4,-10,-16,3,4,2,0,1,2021-08-05 17:18:28,402329
-4,-15,-12,-3,-1,0,1,0,2021-08-05 17:18:28,402329
1,27,15,-1,-4,-6,-3,-6,2021-08-05 17:18:28,402329
4,14,0,4,4,5,2,6,2021-08-05 17:18:28,402329
-4,-20,16,-5,-7,-6,-5,-4,2021-08-05 17:18:28,403185
-2,-8,-25,0,2,3,1,3,2021-08-05 17:18:28,403185
5,21,5,1,0,0,-1,-1,2021-08-05 17:18:28,434241
-5,-35,-17,-5,1,0,0,-1,2021-08-05 17:18:28,449356
3,56,26,-2,-3,-2,-2,-3,2021-08-05 17:18:28,464184
0,0,-1,7,4,3,1,-1,2021-08-05 17:18:28,464184
-6,-68,-23,-5,0,0,-2,0,2021-08-05 17:18:28,464184
0,38,14,7,2,-1,-4,-3,2021-08-05 17:18:28,464184
3,2,-8,-6,-8,-8,-5,-3,2021-08-05 17:18:28,464184
2,6,20,4,2,0,1,5,2021-08-05 17:18:28,464184
-2,25,-2,-2,-3,-2,-1,1,2021-08-05 17:18:28,464184
6,14,5,2,-1,2,2,-1,2021-08-05 17:18:28,464184
-5,-43,-22,-4,-2,-2,-2,-3,2021-08-05 17:18:28,464184
-16,-57,-8,-12,-8,-4,-3,-8,2021-08-05 17:18:28,464184
2,25,-11,-4,-2,-1,1,3,2021-08-05 17:18:28,496184
1,0,3,6,5,1,1,2,2021-08-05 17:18:28,511308
7,33,21,0,1,2,-2,-1,2021-08-05 17:18:28,516184
8,25,14,12,9,5,3,4,2021-08-05 17:18:28,516184
-5,-20,-19,-3,1,-1,0,-1,2021-08-05 17:18:28,516184
-1,-8,-17,-8,-6,-3,-2,-1,2021-08-05 17:18:28,516184
2,-5,15,2,0,-3,-1,1,2021-08-05 17:18:28,516184
-3,-16,-11,-4,-2,-1,-2,-3,2021-08-05 17:18:28,516184
-6,7,15,-2,-7,-6,-3,-5,2021-08-05 17:18:28,526475
3,13,4,7,6,3,4,3,2021-08-05 17:18:28,542263
8,96,2,2,4,3,2,2,2021-08-05 17:18:28,558238
-3,-106,-11,-1,-1,0,1,2,2021-08-05 17:18:28,558238
-2,66,-13,-5,-8,-5,-5,-6,2021-08-05 17:18:28,558238
-5,-49,10,0,0,1,-1,1,2021-08-05 17:18:28,558238
-5,-23,-4,2,1,-1,-3,-5,2021-08-05 17:18:28,558238
2,30,-8,-7,-8,-4,-5,-5,2021-08-05 17:18:28,558238
-1,-9,3,1,1,2,-1,-1,2021-08-05 17:18:28,558238
-2,15,3,2,0,1,1,-1,2021-08-05 17:18:28,558238
1,10,20,5,3,1,2,3,2021-08-05 17:18:28,574487
-4,-38,-2,0,-2,-1,1,1,2021-08-05 17:18:28,589722
-3,-32,-31,-9,-4,-2,-2,0,2021-08-05 17:18:28,589875
-1,30,10,-3,0,-1,-3,-2,2021-08-05 17:18:28,589954
-2,-25,-8,2,3,1,0,-3,2021-08-05 17:18:28,590058
1,44,4,-4,0,-2,-3,-4,2021-08-05 17:18:28,590184
7,-10,16,6,3,2,2,4,2021-08-05 17:18:28,620294
0,53,3,2,3,1,3,1,2021-08-05 17:18:28,620438
-6,-100,-18,-2,-2,0,-1,0,2021-08-05 17:18:28,620493
-3,13,-29,-13,-6,-6,-5,-5,2021-08-05 17:18:28,620625
-16,0,18,-1,-1,-2,-2,-4,2021-08-05 17:18:28,620685
7,19,-1,-2,-6,-2,-3,-2,2021-08-05 17:18:28,620685
4,70,20,9,5,5,3,4,2021-08-05 17:18:28,636405
1,-87,-14,2,1,3,1,3,2021-08-05 17:18:28,652230
0,-12,-1,-5,-3,-1,-2,-1,2021-08-05 17:18:28,652230
-7,1,-3,-8,-3,-3,-3,-3,2021-08-05 17:18:28,652230
-1,21,-2,-6,-5,-3,-3,-4,2021-08-05 17:18:28,652230
1,23,6,6,2,1,1,1,2021-08-05 17:18:28,652230
2,-10,-20,-3,-1,1,1,1,2021-08-05 17:18:28,668183
-5,-42,-10,-3,-1,-2,-2,0,2021-08-05 17:18:28,668183
-1,6,11,0,-2,-3,-3,-3,2021-08-05 17:18:28,668183
2,76,2,-2,0,-1,0,1,2021-08-05 17:18:28,668183
-3,-75,-1,-1,-2,-2,-2,-4,2021-08-05 17:18:28,683183
-4,27,-12,-6,-7,-7,-5,-6,2021-08-05 17:18:28,683183
5,-43,-10,7,7,4,1,1,2021-08-05 17:18:28,683183
-3,34,12,-1,-3,-1,-2,-2,2021-08-05 17:18:28,683183
2,23,5,-2,-4,-3,-4,-4,2021-08-05 17:18:28,729291
2,-14,-10,-3,-2,-2,-2,-2,2021-08-05 17:18:28,729291
-7,-7,-7,-6,-6,-4,-3,-2,2021-08-05 17:18:28,729291
1,-2,13,4,4,2,-1,4,2021-08-05 17:18:28,729291
6,28,19,8,6,4,5,6,2021-08-05 17:18:28,729291
-3,-51,-5,1,0,-1,-1,-2,2021-08-05 17:18:28,729291
5,27,-27,-9,-7,-4,-1,-3,2021-08-05 17:18:28,729291
2,-20,18,2,-3,-3,-3,0,2021-08-05 17:18:28,729291
-10,5,-12,-6,-2,0,-1,-1,2021-08-05 17:18:28,744183
2,-5,4,1,2,0,1,3,2021-08-05 17:18:28,744649
2,52,13,0,0,-1,-1,0,2021-08-05 17:18:28,744649
6,-62,-3,1,2,2,2,1,2021-08-05 17:18:28,744649
-5,40,-6,3,5,3,2,3,2021-08-05 17:18:28,774215
-7,-68,-2,0,-2,-2,-3,-5,2021-08-05 17:18:28,790290
1,9,-2,0,-1,-2,0,-2,2021-08-05 17:18:28,805156
1,43,12,-2,-1,-1,-2,-1,2021-08-05 17:18:28,805156
6,38,4,-3,0,-2,0,-1,2021-08-05 17:18:28,805156
-3,-28,4,2,2,3,2,1,2021-08-05 17:18:28,805156
-3,-31,-14,0,0,0,0,0,2021-08-05 17:18:28,805156
-3,11,-12,-3,-3,-5,-1,-3,2021-08-05 17:18:28,805156
-4,-14,-1,-3,-6,-4,-5,-4,2021-08-05 17:18:28,805988
2,38,2,-3,-1,-2,0,0,2021-08-05 17:18:28,806097
-2,-6,21,1,-2,2,-2,-1,2021-08-05 17:18:28,806243
-4,-4,-22,0,-1,1,-1,2,2021-08-05 17:18:28,806325
-4,-31,-4,-8,-6,-6,-6,-9,2021-08-05 17:18:28,836156
-1,5,-4,-4,-3,-1,-3,0,2021-08-05 17:18:28,836156
0,-4,10,5,4,1,1,0,2021-08-05 17:18:28,836156
5,80,-12,-1,2,2,2,3,2021-08-05 17:18:28,836515
0,-59,14,4,0,-1,0,-2,2021-08-05 17:18:28,867283
1,-66,-14,-2,-1,2,1,-2,2021-08-05 17:18:28,882156
-8,32,0,-7,-7,-5,-5,-3,2021-08-05 17:18:28,898244
-5,-17,-5,-2,0,0,0,-1,2021-08-05 17:18:28,898244
6,18,4,10,5,2,2,2,2021-08-05 17:18:28,898244
3,47,2,0,0,0,2,0,2021-08-05 17:18:28,898244
3,-36,1,-2,-1,0,-1,1,2021-08-05 17:18:28,914242
-3,-12,8,-4,-2,-1,-1,0,2021-08-05 17:18:28,930280
3,23,0,2,4,2,1,1,2021-08-05 17:18:28,930465
-1,-14,-13,-1,0,-1,1,0,2021-08-05 17:18:28,930465
-5,-2,-9,-5,-3,-2,-2,-1,2021-08-05 17:18:28,930675
-2,8,9,2,0,-1,-4,-4,2021-08-05 17:18:28,930770
5,-7,8,1,-1,1,2,2,2021-08-05 17:18:28,930919
-3,28,-4,-2,-4,-1,-2,-4,2021-08-05 17:18:28,931012
-1,-28,-20,4,5,3,5,4,2021-08-05 17:18:28,931105
1,28,23,1,-1,-1,2,1,2021-08-05 17:18:28,931188
1,-43,-16,0,0,0,-1,-2,2021-08-05 17:18:28,931255
-5,21,-4,-8,-6,-4,-5,-7,2021-08-05 17:18:28,931334
-6,-47,-12,-9,-7,-4,-4,-2,2021-08-05 17:18:28,931420
4,49,13,6,2,-1,-1,-3,2021-08-05 17:18:28,931420
6,36,18,6,4,3,4,4,2021-08-05 17:18:28,946156
-2,-43,-10,-4,-1,0,1,-1,2021-08-05 17:18:28,961240
-7,-15,-2,2,2,1,1,-1,2021-08-05 17:18:28,961240
1,35,6,-1,-2,-3,0,-3,2021-08-05 17:18:28,961240
-12,-30,0,-6,-5,-4,-4,-3,2021-08-05 17:18:28,977156
3,5,-13,3,3,3,0,5,2021-08-05 17:18:28,977421
3,13,10,1,0,-1,0,0,2021-08-05 17:18:28,977421
1,-15,4,-3,-3,0,0,-3,2021-08-05 17:18:28,977421
8,19,-17,4,3,2,0,3,2021-08-05 17:18:28,977421
-12,22,8,-6,-4,-3,-3,-4,2021-08-05 17:18:28,977421
8,-54,-9,9,9,7,5,4,2021-08-05 17:18:29,008369
-7,16,5,-3,-1,-3,-4,-3,2021-08-05 17:18:29,024156
2,-24,-5,-3,0,1,-2,0,2021-08-05 17:18:29,039833
4,55,10,-1,-1,-2,-2,-2,2021-08-05 17:18:29,055156
-3,-27,-7,-7,-3,-3,-3,-3,2021-08-05 17:18:29,055156
-5,-14,-7,-4,-4,-1,-2,-2,2021-08-05 17:18:29,055156
-2,0,-6,-4,-3,-2,-1,-1,2021-08-05 17:18:29,055156
3,56,13,0,0,0,-1,-1,2021-08-05 17:18:29,055156
-3,-66,2,-4,-4,-3,-2,-2,2021-08-05 17:18:29,055156
2,-19,-21,4,4,3,1,1,2021-08-05 17:18:29,055156
-1,-11,-11,-6,-4,-4,-3,-3,2021-08-05 17:18:29,055156
-17,26,27,3,1,0,-2,-1,2021-08-05 17:18:29,055985
8,64,2,2,0,1,0,0,2021-08-05 17:18:29,055985
-4,-50,-24,-7,-3,0,0,-1,2021-08-05 17:18:29,056157
1,-1,3,-7,-6,-3,-4,-4,2021-08-05 17:18:29,070156
6,31,15,2,-2,-5,-4,-1,2021-08-05 17:18:29,070156
-2,-42,-16,1,2,3,0,-1,2021-08-05 17:18:29,071258
-5,11,-13,-3,-5,-3,-5,-2,2021-08-05 17:18:29,071258
-3,-6,9,1,1,0,0,-2,2021-08-05 17:18:29,087156
-4,-22,-9,-2,-1,-3,-2,-5,2021-08-05 17:18:29,087156
2,41,9,-3,-2,-5,-4,-2,2021-08-05 17:18:29,087644
4,11,13,5,3,1,3,0,2021-08-05 17:18:29,087644
-5,-28,-12,-5,-3,-2,-1,1,2021-08-05 17:18:29,118281
-2,-26,-22,-3,-3,-2,0,0,2021-08-05 17:18:29,134302
5,89,18,1,-2,-3,-1,-2,2021-08-05 17:18:29,134463
-4,-89,5,-1,-2,-3,-1,-3,2021-08-05 17:18:29,134463
-5,47,11,-1,-2,-1,1,1,2021-08-05 17:18:29,134463
7,-45,-28,8,9,7,6,6,2021-08-05 17:18:29,134463
-4,43,9,0,-2,-1,-1,-1,2021-08-05 17:18:29,134463
-3,-25,-12,-2,0,-1,-2,1,2021-08-05 17:18:29,134463
-3,-16,-2,-9,-11,-8,-7,-7,2021-08-05 17:18:29,150156
4,-7,1,1,2,-1,-1,-1,2021-08-05 17:18:29,165524
-8,19,1,-1,0,0,0,0,2021-08-05 17:18:29,165732
2,10,22,2,0,-1,0,2,2021-08-05 17:18:29,165878
10,-15,-13,4,4,4,2,3,2021-08-05 17:18:29,165878
-15,10,-2,-7,-7,-6,-6,-5,2021-08-05 17:18:29,166091
0,2,18,1,-1,-1,-1,1,2021-08-05 17:18:29,166163
-1,-48,-30,-4,-3,-2,-2,-2,2021-08-05 17:18:29,166303
2,76,23,4,4,6,4,5,2021-08-05 17:18:29,196155
3,-78,-5,2,0,1,-1,-1,2021-08-05 17:18:29,211309
-5,25,-25,-4,-2,0,0,0,2021-08-05 17:18:29,211457
-3,23,13,-5,-4,-2,-4,-6,2021-08-05 17:18:29,211457
-4,-21,-29,1,1,-3,-3,-5,2021-08-05 17:18:29,211541
4,72,41,5,0,-1,-1,1,2021-08-05 17:18:29,211674
1,-66,2,8,4,0,0,3,2021-08-05 17:18:29,211783
4,5,-14,-6,-4,-4,-2,1,2021-08-05 17:18:29,211783
-1,18,14,1,-2,-6,-4,-2,2021-08-05 17:18:29,241292
-1,-18,-1,-2,-1,0,0,-2,2021-08-05 17:18:29,241292
4,6,-10,-2,-2,1,2,0,2021-08-05 17:18:29,241292
-2,6,-9,-5,-3,-1,2,-1,2021-08-05 17:18:29,241292
-12,-35,-3,-2,-1,-3,-1,-2,2021-08-05 17:18:29,256403
5,-4,-1,3,3,3,2,3,2021-08-05 17:18:29,272267
-12,-5,4,-3,-3,-4,-5,-4,2021-08-05 17:18:29,272488
6,3,-15,-1,-2,0,-2,-1,2021-08-05 17:18:29,272488
1,26,9,0,-1,1,0,-1,2021-08-05 17:18:29,272488
2,19,-1,1,2,0,2,5,2021-08-05 17:18:29,272821
1,-38,1,0,0,0,-2,-1,2021-08-05 17:18:29,287156
-5,26,17,2,-1,-2,-3,-3,2021-08-05 17:18:29,287372
2,28,5,1,1,2,2,2,2021-08-05 17:18:29,287372
-8,-72,-32,-9,-5,-6,-4,-6,2021-08-05 17:18:29,287372
2,9,-11,-4,-2,-2,-2,-2,2021-08-05 17:18:29,287372
-4,27,14,3,2,-1,-2,-2,2021-08-05 17:18:29,287372
4,4,0,-4,-4,0,-1,3,2021-08-05 17:18:29,318290
-3,-14,8,2,3,3,2,0,2021-08-05 17:18:29,333309
-1,4,-19,-6,-5,-3,-1,-2,2021-08-05 17:18:29,346989
5,57,11,4,4,2,2,1,2021-08-05 17:18:29,346989
-4,-70,5,0,0,-2,0,0,2021-08-05 17:18:29,346989
-9,-8,-15,-9,-6,-5,-6,-5,2021-08-05 17:18:29,346989
0,5,14,1,-1,-2,-2,-3,2021-08-05 17:18:29,346989
4,16,-6,3,4,3,2,5,2021-08-05 17:18:29,346989
9,35,-8,-2,1,2,-1,0,2021-08-05 17:18:29,347991
0,-46,11,5,-2,0,-3,-2,2021-08-05 17:18:29,348049
-9,2,-4,-2,-2,-1,-1,-3,2021-08-05 17:18:29,348049
-1,-1,2,-7,-6,-4,-5,-4,2021-08-05 17:18:29,348049
3,4,1,13,11,8,7,7,2021-08-05 17:18:29,380991
8,14,3,-3,-3,-3,-2,0,2021-08-05 17:18:29,380991
5,14,10,10,7,5,5,6,2021-08-05 17:18:29,380991
-7,-84,-28,-2,-1,-1,1,-2,2021-08-05 17:18:29,380991
-8,27,-1,-7,-7,-6,-6,-7,2021-08-05 17:18:29,380991
0,-19,-13,-3,0,1,-2,-2,2021-08-05 17:18:29,380991
3,47,24,2,0,-1,-1,0,2021-08-05 17:18:29,397112
-5,18,-7,-5,-5,-4,-4,-2,2021-08-05 17:18:29,397112
-1,-52,-7,2,3,2,2,0,2021-08-05 17:18:29,411990
1,41,11,-3,-1,-2,1,1,2021-08-05 17:18:29,427105
2,2,-2,-1,-2,-1,0,0,2021-08-05 17:18:29,427256
-2,-29,-14,2,2,3,3,0,2021-08-05 17:18:29,427256
-3,27,6,-6,-8,-4,-4,-3,2021-08-05 17:18:29,427256
3,-15,-1,-3,-3,-2,-2,-2,2021-08-05 17:18:29,427256
-17,-35,-30,-7,-4,-5,-6,-8,2021-08-05 17:18:29,443095
5,10,20,6,7,5,4,5,2021-08-05 17:18:29,443176
-2,34,2,-2,0,-2,-3,-4,2021-08-05 17:18:29,443176
2,68,33,6,3,0,2,4,2021-08-05 17:18:29,443176
2,-95,-33,-5,-2,-1,0,-2,2021-08-05 17:18:29,458505
-5,29,-1,-5,-6,-5,-3,-5,2021-08-05 17:18:29,458774
-5,-24,-17,-6,-4,-3,-4,-4,2021-08-05 17:18:29,474558
1,31,2,-5,-4,-2,-2,-1,2021-08-05 17:18:29,474558
4,19,12,6,6,6,3,3,2021-08-05 17:18:29,474558
0,21,8,-2,-3,-1,-1,-3,2021-08-05 17:18:29,474558
4,-31,5,3,3,5,1,3,2021-08-05 17:18:29,506609
-2,-17,-5,6,4,2,2,1,2021-08-05 17:18:29,506873
-2,13,2,-5,-3,-2,-2,0,2021-08-05 17:18:29,506988
1,-45,-17,-2,3,0,1,0,2021-08-05 17:18:29,506988
-3,24,-1,-8,-11,-12,-5,-8,2021-08-05 17:18:29,506988
0,0,-9,-1,3,2,1,2,2021-08-05 17:18:29,507286
3,20,7,-1,-1,-3,-1,-2,2021-08-05 17:18:29,521504
-2,-28,36,9,2,2,2,4,2021-08-05 17:18:29,521504
0,-26,-48,-7,-1,0,1,2,2021-08-05 17:18:29,536596
-13,-14,-9,1,-3,-2,-2,-5,2021-08-05 17:18:29,552545
3,57,27,-1,-4,-3,-2,-3,2021-08-05 17:18:29,567738
2,-68,-28,-4,1,0,-1,0,2021-08-05 17:18:29,567796
0,34,19,-4,-4,-4,-2,-6,2021-08-05 17:18:29,567796
2,-14,0,0,0,2,1,1,2021-08-05 17:18:29,567969
6,54,10,8,7,3,4,7,2021-08-05 17:18:29,568151
-7,-49,-16,-3,-3,-2,-3,-3,2021-08-05 17:18:29,568226
-6,-5,14,2,0,0,-1,-2,2021-08-05 17:18:29,568226
2,38,-13,0,2,0,0,-1,2021-08-05 17:18:29,568378
-6,-49,-5,-4,-6,-2,-2,-4,2021-08-05 17:18:29,582720
2,28,12,1,0,-2,0,1,2021-08-05 17:18:29,582720
2,24,-2,3,4,3,2,3,2021-08-05 17:18:29,598590
0,1,15,-4,-6,-2,-3,-1,2021-08-05 17:18:29,630505
-4,-84,-49,-10,-7,-3,-4,-5,2021-08-05 17:18:29,634504
7,31,11,-1,1,1,-1,0,2021-08-05 17:18:29,634504
-16,6,7,5,1,1,1,-1,2021-08-05 17:18:29,634504
6,34,10,2,3,3,2,3,2021-08-05 17:18:29,634504
1,-56,-5,-4,-3,-4,-3,-3,2021-08-05 17:18:29,634504
-3,2,-5,1,1,1,2,3,2021-08-05 17:18:29,634504
7,30,12,-2,-3,-4,-2,-1,2021-08-05 17:18:29,634504
0,7,12,0,-3,-2,-1,-1,2021-08-05 17:18:29,634504
-3,-14,-18,-3,0,1,1,2,2021-08-05 17:18:29,635505
-4,-14,-11,-1,-4,-4,-5,-5,2021-08-05 17:18:29,635505
2,23,15,-1,1,-2,-2,-1,2021-08-05 17:18:29,660685
-8,-52,-22,-4,-3,-3,-2,-2,2021-08-05 17:18:29,676772
5,62,13,0,1,-1,1,0,2021-08-05 17:18:29,676772
-3,-16,13,3,2,-1,0,-1,2021-08-05 17:18:29,676944
-1,7,-26,-1,-1,-1,0,0,2021-08-05 17:18:29,677146
-2,-38,6,-2,-2,-1,0,-1,2021-08-05 17:18:29,677287
-4,32,12,-4,-6,-5,-4,-4,2021-08-05 17:18:29,677445
12,22,-2,1,5,5,7,8,2021-08-05 17:18:29,677636
-3,-22,-7,3,0,0,-1,0,2021-08-05 17:18:29,692599
-11,-44,-20,-4,-3,-4,-3,-5,2021-08-05 17:18:29,708779
0,13,8,-4,-3,-2,-1,-2,2021-08-05 17:18:29,740818
-2,83,14,-3,-6,-3,-3,-5,2021-08-05 17:18:29,755599
8,-74,2,6,5,4,3,3,2021-08-05 17:18:29,755955
5,29,-6,5,3,3,2,1,2021-08-05 17:18:29,756048
-14,-62,-18,-3,-3,-1,-2,0,2021-08-05 17:18:29,756191
2,26,-1,-6,-5,-5,-5,-5,2021-08-05 17:18:29,756191
1,36,12,-3,-2,-1,-1,0,2021-08-05 17:18:29,756418
0,-15,4,5,4,1,-1,-1,2021-08-05 17:18:29,756530
4,26,19,9,7,5,4,3,2021-08-05 17:18:29,756625
-7,-29,-37,-9,-6,-3,0,-2,2021-08-05 17:18:29,756703
-8,-28,4,-7,-3,-3,-2,-4,2021-08-05 17:18:29,756792
0,26,-5,1,0,-1,0,0,2021-08-05 17:18:29,756851
2,6,19,-4,-4,-2,-2,-2,2021-08-05 17:18:29,756851
1,-4,-16,3,3,4,3,5,2021-08-05 17:18:29,756851
-7,-16,-12,-5,-5,-3,-3,-5,2021-08-05 17:18:29,770736
2,-12,-4,-11,-10,-6,-5,-6,2021-08-05 17:18:29,770818
-8,18,3,3,3,2,0,4,2021-08-05 17:18:29,770934
1,18,9,2,-1,-1,-1,-2,2021-08-05 17:18:29,770934
6,-21,8,1,2,3,3,3,2021-08-05 17:18:29,800719
6,12,8,4,2,1,0,1,2021-08-05 17:18:29,800719
-2,-38,-30,1,1,0,0,0,2021-08-05 17:18:29,800915
-11,-23,-4,-10,-10,-8,-8,-11,2021-08-05 17:18:29,801126
3,61,7,-5,-3,-4,-4,-1,2021-08-05 17:18:29,815599
-1,-12,9,7,6,6,5,3,2021-08-05 17:18:29,815599
5,21,4,-3,-3,-1,-2,-2,2021-08-05 17:18:29,830731
-8,-59,-15,3,4,1,1,2,2021-08-05 17:18:29,830731
-3,21,-8,-3,-7,-6,-4,-8,2021-08-05 17:18:29,830731
0,1,0,-1,4,3,3,4,2021-08-05 17:18:29,830731
2,29,17,2,-3,-5,-3,-5,2021-08-05 17:18:29,830731
6,-22,0,0,-1,2,0,4,2021-08-05 17:18:29,830731
3,15,-5,1,4,3,2,6,2021-08-05 17:18:29,862690
-11,-48,-7,-10,-6,-4,-4,-3,2021-08-05 17:18:29,862690
5,5,-2,8,5,4,0,2,2021-08-05 17:18:29,862690
2,36,28,8,3,3,3,1,2021-08-05 17:18:29,862690
7,-38,-20,-2,-1,1,-1,0,2021-08-05 17:18:29,878600
-16,7,-17,-11,-8,-6,-6,-6,2021-08-05 17:18:29,893599
3,-1,5,-2,-1,-1,-1,-2,2021-08-05 17:18:29,893599
0,13,25,0,-1,-2,-1,0,2021-08-05 17:18:29,893599
4,41,-1,6,7,2,3,2,2021-08-05 17:18:29,893599
8,7,2,-1,-1,-4,-3,-2,2021-08-05 17:18:29,893599
-2,-81,-23,1,2,2,1,0,2021-08-05 17:18:29,893599
-15,-17,-10,-7,-6,-6,-4,-6,2021-08-05 17:18:29,893599
-2,10,2,-3,-3,-3,-3,-5,2021-08-05 17:18:29,908693
7,12,11,4,4,3,3,4,2021-08-05 17:18:29,908693
0,40,12,2,-1,-2,0,1,2021-08-05 17:18:29,908693
9,34,7,4,3,3,3,4,2021-08-05 17:18:29,909600
-12,-81,-16,-3,-1,-2,1,-2,2021-08-05 17:18:29,939673
-1,42,5,-4,-5,-5,-4,-4,2021-08-05 17:18:29,939673
-2,-23,-11,-5,-3,-5,-3,-3,2021-08-05 17:18:29,939673
1,0,-17,0,4,3,1,0,2021-08-05 17:18:29,939673
-4,-4,10,-1,-3,-1,-2,-2,2021-08-05 17:18:29,955803
4,3,-2,2,-2,-1,-1,-2,2021-08-05 17:18:29,970599
-6,11,-6,-6,-5,-4,-2,-2,2021-08-05 17:18:29,985725
1,31,16,2,0,-1,-1,-1,2021-08-05 17:18:29,985725
-1,-33,-15,1,1,0,1,2,2021-08-05 17:18:29,985725
6,-26,-4,-5,-4,-2,-2,-3,2021-08-05 17:18:29,985725
-10,33,12,1,3,1,1,0,2021-08-05 17:18:29,985725
1,-24,-13,-5,-3,-4,-2,-2,2021-08-05 17:18:29,986236
4,19,15,3,1,3,0,1,2021-08-05 17:18:30,001599
5,37,5,3,2,2,1,2,2021-08-05 17:18:30,001803
0,-88,-6,1,4,2,4,3,2021-08-05 17:18:30,001941
-7,14,-1,0,1,0,-1,0,2021-08-05 17:18:30,002057
2,16,4,-3,-5,-5,-2,-2,2021-08-05 17:18:30,016683
-4,-1,-1,-4,-4,-4,-2,-2,2021-08-05 17:18:30,016828
3,21,-18,-4,0,1,-1,-2,2021-08-05 17:18:30,032155
0,2,18,6,3,3,2,0,2021-08-05 17:18:30,032155
-1,-26,-3,2,0,-2,-2,-1,2021-08-05 17:18:30,032155
-1,18,-4,-2,-5,-5,-4,-2,2021-08-05 17:18:30,032155
7,-1,1,-3,-1,-4,-3,-1,2021-08-05 17:18:30,032155
-7,-26,-13,-3,-5,-3,-2,1,2021-08-05 17:18:30,032155
-4,13,10,-7,-5,-2,-1,0,2021-08-05 17:18:30,062965
-6,-19,-16,1,3,2,3,0,2021-08-05 17:18:30,078954
2,4,6,-1,-3,0,1,2,2021-08-05 17:18:30,078954
2,10,-2,-6,-3,-1,-1,-2,2021-08-05 17:18:30,078954
0,45,5,7,4,4,2,0,2021-08-05 17:18:30,078954
-5,-56,-6,1,1,1,0,1,2021-08-05 17:18:30,079472
-4,23,-6,-9,-8,-5,-4,-4,2021-08-05 17:18:30,079615
-2,-50,-12,-2,-1,-1,-3,-2,2021-08-05 17:18:30,079715
-4,-3,-6,-3,-3,-2,-4,-5,2021-08-05 17:18:30,093891
1,37,19,2,0,0,1,0,2021-08-05 17:18:30,108976
1,30,1,3,0,2,1,1,2021-08-05 17:18:30,125030
-4,-38,-14,-3,-6,-5,-2,-2,2021-08-05 17:18:30,140981
11,14,0,-3,-1,-1,-1,0,2021-08-05 17:18:30,171890
-21,-25,-15,-3,-4,-4,-6,-5,2021-08-05 17:18:30,187033
7,21,17,3,3,6,5,5,2021-08-05 17:18:30,202955
3,27,16,2,-1,-2,0,-2,2021-08-05 17:18:30,205890
-2,-23,-13,-1,0,1,1,2,2021-08-05 17:18:30,205890
5,-18,-2,-3,-4,-3,-3,-1,2021-08-05 17:18:30,205890
-4,10,-4,5,5,3,0,0,2021-08-05 17:18:30,205890
-3,1,-15,-9,-4,-4,-5,-6,2021-08-05 17:18:30,205890
-3,-19,3,3,3,1,3,2,2021-08-05 17:18:30,206892
3,26,3,-2,0,-2,0,-2,2021-08-05 17:18:30,206992
1,3,5,0,-3,-2,-3,-3,2021-08-05 17:18:30,207111
3,36,9,2,0,-2,-1,1,2021-08-05 17:18:30,207211
-7,-56,-31,-6,1,0,-2,0,2021-08-05 17:18:30,207329
-1,-7,0,5,4,2,1,1,2021-08-05 17:18:30,207416
-6,-15,-8,-7,-5,-7,-5,-6,2021-08-05 17:18:30,207481
9,54,22,3,3,3,3,2,2021-08-05 17:18:30,207587
-4,6,2,-4,-6,-4,-3,-2,2021-08-05 17:18:30,234996
1,10,-5,-1,3,4,3,1,2021-08-05 17:18:30,235050
-3,-53,-16,-1,-3,-4,-3,-2,2021-08-05 17:18:30,235271
0,33,15,4,1,3,2,0,2021-08-05 17:18:30,235389
0,15,21,2,1,0,0,0,2021-08-05 17:18:30,235543
0,-52,-17,-5,-4,-2,-3,-3,2021-08-05 17:18:30,235617
-2,12,-19,-6,-5,-3,-3,-5,2021-08-05 17:18:30,235798
-5,-24,-3,-2,1,0,-2,-1,2021-08-05 17:18:30,250891
-2,-1,4,2,0,-1,1,-1,2021-08-05 17:18:30,266063
9,73,26,7,5,3,0,3,2021-08-05 17:18:30,266259
4,-33,5,-2,-6,-4,-1,-3,2021-08-05 17:18:30,266352
-14,-52,-40,-4,-1,0,0,0,2021-08-05 17:18:30,266439
-4,15,7,0,-2,-1,-1,-4,2021-08-05 17:18:30,266506
-4,14,4,-3,-3,-3,-4,-3,2021-08-05 17:18:30,266578
1,21,16,3,2,1,1,1,2021-08-05 17:18:30,266578
9,-2,10,0,0,-1,-1,0,2021-08-05 17:18:30,266578
1,-71,-19,6,4,3,3,3,2021-08-05 17:18:30,266908
-12,8,-8,-4,-3,-3,-1,-5,2021-08-05 17:18:30,266908
-1,23,-2,-8,-5,-6,-3,-6,2021-08-05 17:18:30,266908
3,21,2,-1,0,-1,0,1,2021-08-05 17:18:30,266908
-1,11,11,3,1,1,0,-1,2021-08-05 17:18:30,297487
2,-31,-14,1,0,0,0,1,2021-08-05 17:18:30,312416
-3,15,16,1,-1,-1,-1,-1,2021-08-05 17:18:30,328415
1,-4,-2,0,2,1,1,1,2021-08-05 17:18:30,343466
-8,-6,-8,-14,-12,-8,-7,-8,2021-08-05 17:18:30,343466
9,14,-6,7,8,8,5,3,2021-08-05 17:18:30,343466
-5,-26,8,0,0,-1,1,3,2021-08-05 17:18:30,343466
-5,14,-10,-2,-1,-2,0,-4,2021-08-05 17:18:30,343466
1,-29,6,-6,-6,-5,-5,-4,2021-08-05 17:18:30,344079
-2,0,-9,-5,-3,-1,1,1,2021-08-05 17:18:30,344162
5,25,4,12,10,8,5,6,2021-08-05 17:18:30,344232
-1,15,4,-2,-2,-3,-3,-6,2021-08-05 17:18:30,344296
-4,4,-9,-2,-3,-1,-2,-1,2021-08-05 17:18:30,358931
-3,-58,-2,-2,-3,-1,-1,1,2021-08-05 17:18:30,374042
5,26,-5,-7,-4,-4,-4,-3,2021-08-05 17:18:30,374042
-4,6,16,5,2,2,1,2,2021-08-05 17:18:30,374042
-7,24,9,1,0,-1,-1,-2,2021-08-05 17:18:30,374042
5,-22,-3,1,0,-2,-2,-2,2021-08-05 17:18:30,374042
-6,-9,-31,-2,0,0,0,3,2021-08-05 17:18:30,374042
4,-13,-4,-8,-8,-7,-4,-6,2021-08-05 17:18:30,374042
4,18,11,3,7,5,1,2,2021-08-05 17:18:30,389029
-3,19,8,1,0,-2,-1,1,2021-08-05 17:18:30,389163
2,-13,17,1,1,1,1,-1,2021-08-05 17:18:30,389163
-5,-24,-28,-1,1,2,-2,0,2021-08-05 17:18:30,389163
1,25,7,-3,-3,-1,-2,-2,2021-08-05 17:18:30,420930
0,-3,10,1,-3,-3,-2,-2,2021-08-05 17:18:30,420930
-2,14,-5,3,3,2,1,0,2021-08-05 17:18:30,420930
0,39,5,-4,-6,-4,-3,-2,2021-08-05 17:18:30,420930
-3,-97,-23,0,-1,-3,-1,-1,2021-08-05 17:18:30,436998
0,28,-1,-4,-3,-1,-1,-1,2021-08-05 17:18:30,436998
-4,-1,0,-6,-5,-3,-3,-5,2021-08-05 17:18:30,436998
-1,10,17,3,1,0,0,0,2021-08-05 17:18:30,436998
7,41,1,2,0,0,-1,2,2021-08-05 17:18:30,452485
-6,-9,3,-4,-4,-5,-2,-3,2021-08-05 17:18:30,468564
-1,-47,-42,0,3,3,3,4,2021-08-05 17:18:30,484441
0,8,20,-3,-2,-3,-2,-2,2021-08-05 17:18:30,500513
-3,5,5,-4,-6,-4,-4,-6,2021-08-05 17:18:30,500643
6,15,9,10,8,7,4,6,2021-08-05 17:18:30,500643
1,11,9,-3,-4,-2,-2,1,2021-08-05 17:18:30,500643
4,-7,-22,-4,-1,1,1,2,2021-08-05 17:18:30,500643
0,-35,-1,-3,-4,-5,-3,-4,2021-08-05 17:18:30,500643
-19,0,6,-6,-6,-5,-4,-7,2021-08-05 17:18:30,500643
1,10,1,3,2,2,0,0,2021-08-05 17:18:30,500643
1,-2,13,3,0,-1,-1,0,2021-08-05 17:18:30,500643
2,20,-15,-1,3,1,2,2,2021-08-05 17:18:30,516442
9,-1,8,5,1,0,0,1,2021-08-05 17:18:30,528943
-4,-71,-13,-2,-1,-2,-1,1,2021-08-05 17:18:30,529114
-3,12,1,-1,-1,-2,-3,-1,2021-08-05 17:18:30,529179
2,23,1,0,-1,-1,-1,-2,2021-08-05 17:18:30,529179
0,-1,-25,-7,-2,-1,0,0,2021-08-05 17:18:30,529443
0,63,26,-2,-3,-2,-3,-1,2021-08-05 17:18:30,529443
-4,-82,-13,8,6,3,4,2,2021-08-05 17:18:30,529443
0,16,-3,-2,-2,-1,-2,-1,2021-08-05 17:18:30,546740
0,8,-2,0,1,2,2,-2,2021-08-05 17:18:30,546740
3,35,10,-6,-7,-5,-4,-5,2021-08-05 17:18:30,561835
-2,-46,-3,4,2,0,1,0,2021-08-05 17:18:30,577699
-2,22,-7,-1,-2,0,0,0,2021-08-05 17:18:30,577699
-4,-43,-2,-3,-7,-5,-4,-4,2021-08-05 17:18:30,577699
-1,26,5,2,2,1,1,-2,2021-08-05 17:18:30,577699
3,-7,-1,3,2,1,0,2,2021-08-05 17:18:30,577699
-5,-6,-10,-4,-4,-3,-2,-2,2021-08-05 17:18:30,593717
0,-12,3,-3,-3,-2,-3,-2,2021-08-05 17:18:30,608730
5,58,9,6,6,4,3,6,2021-08-05 17:18:30,623717
-5,-74,-20,-7,-7,-3,-3,-4,2021-08-05 17:18:30,639700
-5,16,-1,-2,-1,-1,-1,-3,2021-08-05 17:18:30,670708
-2,13,-4,-4,-5,-4,-5,-3,2021-08-05 17:18:30,670783
-3,2,4,-1,-1,-1,-1,-2,2021-08-05 17:18:30,686482
3,16,4,-3,-4,-1,-1,-2,2021-08-05 17:18:30,686649
1,-9,7,5,5,4,2,3,2021-08-05 17:18:30,686724
2,21,-2,1,0,-1,2,2,2021-08-05 17:18:30,686724
-13,-41,-1,-4,-5,-5,-2,-6,2021-08-05 17:18:30,686724
5,39,-12,-1,-1,-1,-1,-1,2021-08-05 17:18:30,686724
1,-1,13,-5,-8,-6,-4,-3,2021-08-05 17:18:30,686724
2,-40,-12,2,5,4,4,6,2021-08-05 17:18:30,686724
0,-24,-5,0,-2,1,-1,-1,2021-08-05 17:18:30,686724
0,92,20,2,1,-1,1,-1,2021-08-05 17:18:30,686724
-5,-101,-26,-5,0,1,1,0,2021-08-05 17:18:30,687649
1,65,13,0,-2,-1,-1,-3,2021-08-05 17:18:30,687649
-1,-15,-3,-5,-4,-5,-5,-5,2021-08-05 17:18:30,687649
-2,-11,-7,2,2,3,3,1,2021-08-05 17:18:30,687649
-3,2,7,0,-1,0,0,0,2021-08-05 17:18:30,687649
-1,-1,0,-4,-2,-2,-3,-3,2021-08-05 17:18:30,687649
3,0,0,3,1,0,1,0,2021-08-05 17:18:30,687649
2,20,2,1,-1,-2,-1,-1,2021-08-05 17:18:30,687649
-6,-12,-2,2,3,2,2,0,2021-08-05 17:18:30,717771
-3,-11,-1,-5,-6,-5,-5,-6,2021-08-05 17:18:30,733771
7,8,-2,2,1,1,1,2,2021-08-05 17:18:30,749648
-2,-22,-6,-4,-3,-3,-2,-1,2021-08-05 17:18:30,749873
5,11,-3,5,6,3,3,3,2021-08-05 17:18:30,749873
-3,25,2,-6,-4,-4,-2,-2,2021-08-05 17:18:30,749873
-2,-32,6,-2,-1,-1,-1,-1,2021-08-05 17:18:30,749873
-2,0,-12,-2,-1,-2,-1,-1,2021-08-05 17:18:30,749873
2,23,5,-6,-8,-7,-6,-5,2021-08-05 17:18:30,749873
-1,-21,-5,4,6,2,3,1,2021-08-05 17:18:30,749873
0,4,-2,-1,-1,1,0,2,2021-08-05 17:18:30,750650
2,37,18,-1,-2,0,0,-2,2021-08-05 17:18:30,750650
2,-28,-6,3,3,2,2,1,2021-08-05 17:18:30,780753
-9,-42,-17,-4,-2,0,-3,-3,2021-08-05 17:18:30,780753
-5,44,3,-3,-6,-7,-6,-6,2021-08-05 17:18:30,780753
3,-7,2,2,2,2,1,1,2021-08-05 17:18:30,780753
3,2,-1,-4,-2,-2,-1,-1,2021-08-05 17:18:30,811738
6,34,8,7,9,6,4,3,2021-08-05 17:18:30,827733
-11,-104,-29,-9,-5,-3,-3,-3,2021-08-05 17:18:30,827838
-7,44,15,0,-1,-3,-5,-4,2021-08-05 17:18:30,827838
5,44,28,6,4,0,1,1,2021-08-05 17:18:30,828032
-1,-26,-24,-4,-4,-3,-2,-1,2021-08-05 17:18:30,828134
3,1,-18,-3,3,4,3,4,2021-08-05 17:18:30,828134
-7,-12,8,-9,-8,-8,-7,-8,2021-08-05 17:18:30,828420
4,36,5,2,3,3,1,3,2021-08-05 17:18:30,828649
-4,-40,2,1,-2,-1,0,-2,2021-08-05 17:18:30,828649
3,27,3,1,4,1,2,3,2021-08-05 17:18:30,842648
-3,-38,-11,-3,-1,-2,-1,1,2021-08-05 17:18:30,848648
-2,44,22,3,0,1,-1,1,2021-08-05 17:18:30,857648
2,69,3,2,0,0,1,-2,2021-08-05 17:18:30,857904
-7,-82,-14,-2,-4,-5,-3,-5,2021-08-05 17:18:30,858010
-1,-53,-5,0,-1,-2,-4,-3,2021-08-05 17:18:30,858137
2,24,-3,0,-2,-3,-4,-4,2021-08-05 17:18:30,873698
-7,2,6,-4,-7,-4,-6,-3,2021-08-05 17:18:30,873698
1,10,-2,-2,-2,-1,-2,-2,2021-08-05 17:18:30,873944
3,21,16,4,5,3,5,4,2021-08-05 17:18:30,874095
-2,-27,-31,-3,1,2,1,2,2021-08-05 17:18:30,904746
2,14,16,3,-1,1,1,0,2021-08-05 17:18:30,920648
-1,14,-5,-2,-1,0,1,2,2021-08-05 17:18:30,935648
-9,-10,-6,-8,-5,-3,-3,-3,2021-08-05 17:18:30,950757
5,-34,-3,5,3,1,3,4,2021-08-05 17:18:30,966853
-12,12,5,-1,-1,-1,-2,-2,2021-08-05 17:18:30,967032
5,0,-9,0,0,1,0,-1,2021-08-05 17:18:30,967141
2,22,7,0,-2,-1,-1,0,2021-08-05 17:18:30,967303
-4,-5,-2,-4,-7,-5,-2,-4,2021-08-05 17:18:30,981727
9,36,11,0,2,0,2,4,2021-08-05 17:18:30,997775
-5,-65,6,9,3,2,1,-1,2021-08-05 17:18:31,013693
2,68,-9,-1,0,2,-2,-1,2021-08-05 17:18:31,029648
-9,-92,-3,-6,-2,-1,-2,-3,2021-08-05 17:18:31,044648
0,13,-30,-6,-4,-3,-2,-2,2021-08-05 17:18:31,044902
0,42,36,1,-1,-4,-2,-4,2021-08-05 17:18:31,044902
-1,-45,-27,-2,-1,0,1,1,2021-08-05 17:18:31,044902
2,26,1,4,1,-1,-1,0,2021-08-05 17:18:31,044902
4,14,27,2,-3,0,0,2,2021-08-05 17:18:31,045340
3,7,-26,5,4,5,3,3,2021-08-05 17:18:31,045503
-2,-26,9,-2,-3,-2,-2,-6,2021-08-05 17:18:31,045621
-7,13,0,-1,1,0,0,-1,2021-08-05 17:18:31,045745
-1,-25,-5,-2,-1,-2,-2,-2,2021-08-05 17:18:31,045896
-1,38,17,-5,-5,-5,-5,0,2021-08-05 17:18:31,045896
2,-25,-10,4,7,5,3,6,2021-08-05 17:18:31,045896
-1,-1,-18,-9,-6,-3,-3,-3,2021-08-05 17:18:31,045896
2,-3,4,1,-1,-3,0,-4,2021-08-05 17:18:31,045896
-2,3,3,-1,-6,-2,-3,-1,2021-08-05 17:18:31,045896
1,13,9,2,2,2,1,-2,2021-08-05 17:18:31,045896
7,68,23,6,3,1,1,2,2021-08-05 17:18:31,046650
-9,-91,-34,-4,1,0,-2,3,2021-08-05 17:18:31,046650
-4,-3,-5,-7,-6,-4,-2,-1,2021-08-05 17:18:31,046650
-1,-24,-30,-3,-2,-1,0,0,2021-08-05 17:18:31,046650
-2,-5,15,1,-4,1,-1,-1,2021-08-05 17:18:31,046650
4,20,9,1,-2,0,1,-2,2021-08-05 17:18:31,046650
0,13,4,2,3,2,2,0,2021-08-05 17:18:31,046650
2,17,12,2,-2,0,-1,-1,2021-08-05 17:18:31,046650
-4,-1,-5,-1,-3,-1,-1,0,2021-08-05 17:18:31,076755
-1,-10,-4,-2,2,-1,-2,1,2021-08-05 17:18:31,092310
-3,-3,-1,-1,0,-2,-1,-2,2021-08-05 17:18:31,092409
1,-2,3,0,1,1,0,2,2021-08-05 17:18:31,092650
0,-9,-9,0,1,1,2,-1,2021-08-05 17:18:31,092650
1,-10,-4,-2,0,-3,0,-2,2021-08-05 17:18:31,092650
-2,16,-1,-3,-2,-2,-2,-4,2021-08-05 17:18:31,092650
-3,-8,1,-1,-2,-1,-3,-2,2021-08-05 17:18:31,107747
1,-1,-1,-1,0,0,0,0,2021-08-05 17:18:31,107747
1,2,0,1,2,2,-1,0,2021-08-05 17:18:31,107747
-1,2,1,-2,-2,-1,-1,-2,2021-08-05 17:18:31,107747
-4,-10,-1,-5,-2,-5,-3,-2,2021-08-05 17:18:31,107747
1,1,3,3,4,2,0,1,2021-08-05 17:18:31,139722
-1,-1,0,1,0,-1,-1,0,2021-08-05 17:18:31,139722
2,-1,-3,-3,-3,-1,1,1,2021-08-05 17:18:31,139722
0,-3,-1,-1,-3,-1,-1,0,2021-08-05 17:18:31,139722
-1,8,2,1,1,0,0,-3,2021-08-05 17:18:31,168648
-1,-3,-3,3,0,0,0,-1,2021-08-05 17:18:31,168648
0,-3,-6,-5,-1,-1,-1,1,2021-08-05 17:18:31,168648
-1,3,3,0,-3,-2,-2,-3,2021-08-05 17:18:31,168648
-1,2,-3,-4,-2,-3,-3,0,2021-08-05 17:18:31,168648
2,-5,4,5,4,3,2,1,2021-08-05 17:18:31,168648
-1,-7,-5,1,-1,-3,-1,-1,2021-08-05 17:18:31,168648
0,3,4,2,2,0,2,0,2021-08-05 17:18:31,169649
-1,-3,-2,-4,-3,-1,-2,-1,2021-08-05 17:18:31,201787
-5,3,-1,-7,-6,-3,-3,-1,2021-08-05 17:18:31,201923
0,7,4,1,-1,-1,-1,-3,2021-08-05 17:18:31,202041
1,12,-3,-1,1,2,2,2,2021-08-05 17:18:31,202179
0,-19,4,2,-1,-2,1,-1,2021-08-05 17:18:31,217803
-4,-21,-10,-5,-2,0,0,-1,2021-08-05 17:18:31,217956
2,24,11,1,2,-1,-1,-2,2021-08-05 17:18:31,218075
-3,-36,-29,0,3,1,0,0,2021-08-05 17:18:31,218242
-4,20,0,-13,-9,-7,-6,-6,2021-08-05 17:18:31,233648
3,2,-3,3,3,2,1,2,2021-08-05 17:18:31,233648
-2,-4,11,6,3,1,1,0,2021-08-05 17:18:31,233648
2,49,13,-1,-4,-4,1,0,2021-08-05 17:18:31,233648
-4,-61,-26,-2,2,1,0,-1,2021-08-05 17:18:31,264716
-2,5,0,-2,-1,-2,0,1,2021-08-05 17:18:31,280782
-3,0,0,-3,-4,-2,-3,-4,2021-08-05 17:18:31,296648
-2,-1,4,1,2,0,1,1,2021-08-05 17:18:31,311855
3,12,6,2,3,3,2,2,2021-08-05 17:18:31,327901
1,-7,-6,-3,-5,-3,-2,-4,2021-08-05 17:18:31,327901
0,0,-2,-1,-2,-1,-1,0,2021-08-05 17:18:31,328180
0,-5,5,0,0,-2,-1,-3,2021-08-05 17:18:31,328180
-3,4,0,-3,-3,-4,-1,0,2021-08-05 17:18:31,328180
-1,1,-3,-4,-4,-4,-4,-2,2021-08-05 17:18:31,328180
2,3,2,10,8,5,3,4,2021-08-05 17:18:31,328180
-1,-13,-4,-6,-7,-3,-3,-3,2021-08-05 17:18:31,328180
-3,7,1,-5,-4,-4,-1,-2,2021-08-05 17:18:31,328650
1,7,-1,3,3,2,2,0,2021-08-05 17:18:31,328650
1,2,2,-1,-3,-1,1,0,2021-08-05 17:18:31,328650
0,-2,-2,1,1,0,-1,-1,2021-08-05 17:18:31,328650
-1,-21,-5,2,1,0,0,1,2021-08-05 17:18:31,343723
-3,21,1,-7,-5,-6,-5,-4,2021-08-05 17:18:31,343723
-4,-30,-5,-4,-5,-3,-4,-3,2021-08-05 17:18:31,343723
-1,3,-1,-2,0,0,1,0,2021-08-05 17:18:31,343723
0,16,3,0,-3,-5,-2,-3,2021-08-05 17:18:31,375171
1,1,2,3,1,2,2,-1,2021-08-05 17:18:31,375311
1,8,-4,1,3,2,2,2,2021-08-05 17:18:31,375432
-3,6,25,0,-3,-2,-3,-1,2021-08-05 17:18:31,390736
-2,-25,-38,-6,-2,0,-1,-2,2021-08-05 17:18:31,390736
3,-11,-2,1,3,3,4,5,2021-08-05 17:18:31,390736
1,7,2,-1,-2,-4,-1,0,2021-08-05 17:18:31,406832
-1,-6,-3,-5,-5,-4,-4,-4,2021-08-05 17:18:31,422791
-2,20,15,3,-1,-1,0,-2,2021-08-05 17:18:31,422791
-1,-4,2,6,4,2,0,1,2021-08-05 17:18:31,437732
-3,-4,-8,-5,-4,-1,0,-2,2021-08-05 17:18:31,437732
3,0,-3,-2,3,1,-1,1,2021-08-05 17:18:31,437732
-1,5,8,-1,-1,1,-1,-1,2021-08-05 17:18:31,437732
-2,-2,-3,-2,-4,-2,-1,-2,2021-08-05 17:18:31,437732
-1,-1,-1,-2,-2,-3,-2,-2,2021-08-05 17:18:31,437732
0,-3,-1,-2,-1,-2,-1,0,2021-08-05 17:18:31,437732
-1,-1,-3,-1,0,0,1,1,2021-08-05 17:18:31,437732
-1,-4,-2,-2,0,0,1,0,2021-08-05 17:18:31,437732
-2,1,0,-2,-2,-3,-2,-3,2021-08-05 17:18:31,437732
-1,-8,-9,1,0,1,3,1,2021-08-05 17:18:31,437732
1,5,3,-3,-1,-1,-2,-1,2021-08-05 17:18:31,468832
-2,3,4,-2,-1,-2,-2,-3,2021-08-05 17:18:31,468832
-2,-9,-6,-2,1,-1,-1,0,2021-08-05 17:18:31,468832
-1,-3,-3,-3,-4,-3,-3,-2,2021-08-05 17:18:31,468832
0,7,4,2,2,1,1,2,2021-08-05 17:18:31,468832
0,-6,0,2,0,-1,-1,1,2021-08-05 17:18:31,468832
0,-1,-3,-1,0,1,-1,0,2021-08-05 17:18:31,484786
-2,-3,0,-3,-2,-1,0,-1,2021-08-05 17:18:31,489186
4,8,3,6,4,3,2,0,2021-08-05 17:18:31,489362
-3,7,0,-5,-4,-3,-1,0,2021-08-05 17:18:31,489362
-2,-19,-4,0,0,0,-2,-2,2021-08-05 17:18:31,489487
-6,-24,-7,-1,-1,0,0,-1,2021-08-05 17:18:31,489487
0,17,2,-4,-2,-1,-2,1,2021-08-05 17:18:31,531651
-1,-7,-2,0,0,-3,-2,-2,2021-08-05 17:18:31,531651
2,21,1,0,-1,-1,-1,-1,2021-08-05 17:18:31,531651
-1,2,0,-2,-6,-4,-3,-4,2021-08-05 17:18:31,531651
0,-10,0,4,4,2,1,0,2021-08-05 17:18:31,531651
3,14,2,-2,1,1,1,0,2021-08-05 17:18:31,531651
-2,-11,4,1,0,0,2,0,2021-08-05 17:18:31,547736
-1,-2,-9,1,1,-1,-1,2,2021-08-05 17:18:31,563648
-5,-6,-5,-6,-7,-5,-4,-5,2021-08-05 17:18:31,563919
1,1,0,-1,-1,-1,-2,0,2021-08-05 17:18:31,563919
0,0,-1,-2,0,-2,-1,-2,2021-08-05 17:18:31,563919
2,-1,7,2,1,1,1,1,2021-08-05 17:18:31,563919
-1,8,0,-2,-2,-1,-1,-2,2021-08-05 17:18:31,579715
-3,-6,1,0,1,0,-1,-2,2021-08-05 17:18:31,579715
-3,-5,-1,-2,-3,0,-1,-1,2021-08-05 17:18:31,579931
0,7,-3,-1,0,0,1,0,2021-08-05 17:18:31,579931
-1,1,5,2,-2,0,0,-2,2021-08-05 17:18:31,610649
1,-2,1,0,-2,0,0,-2,2021-08-05 17:18:31,610826
2,-6,-3,7,8,5,4,4,2021-08-05 17:18:31,610826
0,-1,-9,-3,-3,-2,-3,-2,2021-08-05 17:18:31,610826
-1,-7,-3,-5,-2,-1,-5,-1,2021-08-05 17:18:31,625846
0,19,0,-2,-4,-3,-3,-2,2021-08-05 17:18:31,626013
-3,-22,-3,-3,-3,-3,-1,-3,2021-08-05 17:18:31,626013
-2,4,3,1,1,-2,0,-1,2021-08-05 17:18:31,626160
1,23,4,-1,-2,-3,0,-3,2021-08-05 17:18:31,641730
-3,-31,2,1,0,0,-2,-2,2021-08-05 17:18:31,641730
0,8,-16,-3,-3,0,0,0,2021-08-05 17:18:31,641730
2,28,24,1,-1,-1,0,-2,2021-08-05 17:18:31,641730
-2,-51,-28,4,4,2,1,3,2021-08-05 17:18:31,673685
-3,-2,-10,-8,-4,-4,-5,-4,2021-08-05 17:18:31,673685
-3,8,5,-3,-4,-4,-5,-6,2021-08-05 17:18:31,673685
2,-6,-5,1,3,4,3,3,2021-08-05 17:18:31,674052
1,21,15,-2,-2,-1,0,-1,2021-08-05 17:18:31,674052
0,-7,-4,0,1,0,3,2,2021-08-05 17:18:31,674052
-1,-5,-5,-3,-3,-1,-3,0,2021-08-05 17:18:31,674052
-4,8,0,-2,-1,-2,-4,-3,2021-08-05 17:18:31,674052
1,2,2,4,3,-1,-1,0,2021-08-05 17:18:31,703728
-1,0,0,3,1,1,-1,0,2021-08-05 17:18:31,703728
-2,-1,3,-5,-7,-7,-6,-2,2021-08-05 17:18:31,703728
0,-3,-4,-1,-4,-2,-2,0,2021-08-05 17:18:31,703728
-2,-11,-5,-2,-1,-2,0,1,2021-08-05 17:18:31,719648
-2,6,-1,-2,-3,-2,1,-1,2021-08-05 17:18:31,719648
-1,6,-2,-3,0,1,0,-1,2021-08-05 17:18:31,719648
-1,-10,-1,1,-2,-1,0,0,2021-08-05 17:18:31,719648
-4,-6,-3,-2,-1,0,0,-3,2021-08-05 17:18:31,735722
3,6,4,3,-1,-1,-2,-2,2021-08-05 17:18:31,735722
3,2,3,2,2,1,3,3,2021-08-05 17:18:31,735722
-2,1,-4,0,2,2,0,0,2021-08-05 17:18:31,735722
-3,-13,0,-3,-2,-3,-4,-2,2021-08-05 17:18:31,766808
-4,-3,-3,-4,-4,-5,-3,-3,2021-08-05 17:18:31,766808
2,6,0,0,-1,2,1,1,2021-08-05 17:18:31,766808
-2,-7,-7,-4,-5,-4,-2,-3,2021-08-05 17:18:31,766808
3,21,17,10,6,5,3,2,2021-08-05 17:18:31,781741
1,-2,0,0,1,2,0,1,2021-08-05 17:18:31,781938
-1,4,-1,1,1,-1,-3,-1,2021-08-05 17:18:31,781938
-5,-19,-5,-10,-5,-2,-3,-3,2021-08-05 17:18:31,781938
1,-5,-11,3,0,0,0,-2,2021-08-05 17:18:31,796648
-2,4,3,-1,-2,0,-1,0,2021-08-05 17:18:31,796648
-1,4,2,0,0,1,-3,-1,2021-08-05 17:18:31,796648
-1,4,2,-2,-3,-3,-3,-2,2021-08-05 17:18:31,796648
1,5,3,-5,-3,0,0,1,2021-08-05 17:18:31,826748
0,-10,-2,2,2,0,1,1,2021-08-05 17:18:31,826798
-3,1,-1,0,-1,-1,1,0,2021-08-05 17:18:31,826798
0,1,0,4,2,-1,0,0,2021-08-05 17:18:31,826798
-2,-3,-2,-3,-4,-1,-1,-3,2021-08-05 17:18:31,841748
-2,6,-4,-5,-2,-4,-3,-1,2021-08-05 17:18:31,841748
-2,-4,1,3,1,2,1,1,2021-08-05 17:18:31,841748
1,-4,-2,0,2,1,0,-1,2021-08-05 17:18:31,841748
-1,1,-2,-4,-1,-1,1,2,2021-08-05 17:18:31,857751
1,2,-1,0,1,0,-1,-1,2021-08-05 17:18:31,857982
-1,-5,-5,-5,-3,-2,-3,-3,2021-08-05 17:18:31,858107
-2,-1,2,3,2,0,1,1,2021-08-05 17:18:31,872970
-3,9,1,-4,-4,-5,-7,-5,2021-08-05 17:18:31,888736
0,-12,0,1,0,-1,0,2,2021-08-05 17:18:31,888863
1,-6,-4,2,2,2,2,0,2021-08-05 17:18:31,888919
1,8,3,1,-1,-2,-1,-4,2021-08-05 17:18:31,903730
-4,-4,-7,-7,-5,-2,-1,-3,2021-08-05 17:18:31,918648
2,5,10,8,5,4,2,3,2021-08-05 17:18:31,918648
0,5,4,7,4,1,3,2,2021-08-05 17:18:31,918648
-1,-8,-7,-4,-2,-3,-3,-2,2021-08-05 17:18:31,918648
-1,13,2,-3,-5,-3,-2,-3,2021-08-05 17:18:31,918648
-4,-23,-4,-7,-5,-3,-5,-4,2021-08-05 17:18:31,918648
-1,1,-2,-5,-3,-3,-2,-1,2021-08-05 17:18:31,918648
0,4,-2,0,1,-1,1,0,2021-08-05 17:18:31,918648
2,-6,-1,5,1,2,0,4,2021-08-05 17:18:31,950648
0,21,-2,-5,-3,-4,-1,-2,2021-08-05 17:18:31,950895
-1,-22,3,1,1,1,-1,0,2021-08-05 17:18:31,950957
-2,1,6,0,1,1,-1,0,2021-08-05 17:18:31,951047
-2,-13,-15,-1,1,-1,-1,-3,2021-08-05 17:18:31,966692
-4,0,-4,-4,-2,-1,-1,-1,2021-08-05 17:18:31,966953
-1,9,5,0,-3,-3,-3,-3,2021-08-05 17:18:31,967078
0,3,-4,-3,0,-1,0,0,2021-08-05 17:18:31,967166
-2,-6,5,3,3,2,2,2,2021-08-05 17:18:31,996648
0,0,-2,3,3,2,-1,-1,2021-08-05 17:18:31,996648
-1,4,-2,-5,-2,-1,-1,-1,2021-08-05 17:18:31,996648
-4,-11,-7,-2,-3,-2,-4,-1,2021-08-05 17:18:31,996648
-2,-4,-1,0,-2,-2,-3,-2,2021-08-05 17:18:31,996648
-2,0,1,-1,-2,-1,-1,-2,2021-08-05 17:18:31,996648
-3,-1,-1,0,1,-3,-4,-2,2021-08-05 17:18:31,996648
1,5,0,-2,-2,-1,2,1,2021-08-05 17:18:31,996648
-4,0,1,-5,-5,-3,-2,-3,2021-08-05 17:18:32,028648
1,-1,2,3,0,0,-2,0,2021-08-05 17:18:32,028844
-2,-1,-4,-4,-3,-4,-3,-3,2021-08-05 17:18:32,044785
-1,5,3,-1,-2,0,-1,-2,2021-08-05 17:18:32,044785
2,9,-4,0,2,1,0,1,2021-08-05 17:18:32,044785
1,-27,-1,6,9,6,7,4,2021-08-05 17:18:32,044785
-2,4,-3,-1,0,-1,1,0,2021-08-05 17:18:32,044785
0,9,-3,-3,-3,-2,-2,-2,2021-08-05 17:18:32,044785
1,-7,6,2,3,2,1,1,2021-08-05 17:18:32,059740
-2,1,-12,-6,-7,-3,-3,-4,2021-08-05 17:18:32,074685
0,-4,0,0,-1,0,0,-1,2021-08-05 17:18:32,074841
0,-2,3,3,1,1,-1,1,2021-08-05 17:18:32,074988
-3,1,2,-2,-2,-2,-3,-3,2021-08-05 17:18:32,074988
2,35,6,-1,-5,-3,-1,-1,2021-08-05 17:18:32,075124
-6,-51,-9,-6,-5,-2,-4,-2,2021-08-05 17:18:32,090827
-1,6,-1,4,1,0,-2,0,2021-08-05 17:18:32,106899
1,3,7,-1,-1,-4,-1,-2,2021-08-05 17:18:32,106899
-2,-5,-10,-2,1,0,-3,-1,2021-08-05 17:18:32,106899
4,21,5,-1,-1,-1,1,3,2021-08-05 17:18:32,106899
1,-9,-3,-1,1,2,2,1,2021-08-05 17:18:32,106899
-5,-15,-7,-3,-3,-2,-3,-1,2021-08-05 17:18:32,128650
0,5,1,-2,-3,-2,-1,0,2021-08-05 17:18:32,128650
1,8,-4,1,1,0,2,-1,2021-08-05 17:18:32,128650
-2,-9,1,1,2,1,-1,0,2021-08-05 17:18:32,128650
0,7,1,-1,-2,-2,-1,-2,2021-08-05 17:18:32,152841
0,-3,0,-2,0,-3,0,-1,2021-08-05 17:18:32,152841
-2,0,1,-2,-1,-1,-2,-2,2021-08-05 17:18:32,152966
-2,-8,-6,-4,-3,-1,-2,-2,2021-08-05 17:18:32,152966
3,7,5,4,2,2,1,3,2021-08-05 17:18:32,152966
-2,-6,3,0,0,-2,-1,-2,2021-08-05 17:18:32,152966
1,7,-2,-1,1,0,1,1,2021-08-05 17:18:32,168794
-3,-10,-7,-6,-4,-6,-3,-6,2021-08-05 17:18:32,168794
1,10,-1,-4,-3,-1,1,1,2021-08-05 17:18:32,183748
0,-12,1,-2,-3,-1,-2,-1,2021-08-05 17:18:32,198689
0,-8,1,2,2,1,1,2,2021-08-05 17:18:32,198877
0,8,6,5,2,3,0,1,2021-08-05 17:18:32,199002
0,-1,-8,-1,0,0,-1,1,2021-08-05 17:18:32,199002
-2,-7,0,-3,0,0,-1,-2,2021-08-05 17:18:32,199002
-1,19,9,-3,-3,-2,-2,-4,2021-08-05 17:18:32,199002
-2,-21,-16,-6,-4,-5,-2,1,2021-08-05 17:18:32,199002
-2,-10,5,-5,-4,-4,-5,-6,2021-08-05 17:18:32,214648
2,13,1,3,4,3,4,4,2021-08-05 17:18:32,214648
-3,-6,3,1,-4,0,-2,-2,2021-08-05 17:18:32,229743
0,12,8,1,1,-1,1,1,2021-08-05 17:18:32,229743
1,-2,-4,-2,1,-2,1,-1,2021-08-05 17:18:32,245648
-4,-8,-2,-3,-4,-3,-4,-2,2021-08-05 17:18:32,261116
0,4,-1,-2,-2,-1,-2,-1,2021-08-05 17:18:32,261116
0,-1,-3,-1,0,0,-1,-2,2021-08-05 17:18:32,261116
-2,-4,-4,-1,-1,0,-3,-1,2021-08-05 17:18:32,261116
0,-4,0,-1,-1,-3,-1,-1,2021-08-05 17:18:32,261116
0,-2,-7,-3,-2,0,-1,0,2021-08-05 17:18:32,261116
1,7,11,7,3,1,0,1,2021-08-05 17:18:32,261116
1,2,-1,-2,0,2,-1,1,2021-08-05 17:18:32,276208
-1,-7,-3,1,1,1,1,-2,2021-08-05 17:18:32,292063
-3,6,1,0,-4,-6,-3,-4,2021-08-05 17:18:32,292278
-1,-10,-3,-6,-3,-2,-1,-2,2021-08-05 17:18:32,292366
-2,0,-4,0,1,1,1,-1,2021-08-05 17:18:32,292366
0,17,1,0,-1,0,-3,-1,2021-08-05 17:18:32,292366
-1,-18,-8,-1,-1,-1,0,-1,2021-08-05 17:18:32,307283
-2,-18,2,-1,-2,-1,0,-1,2021-08-05 17:18:32,322063
1,8,3,2,1,0,-1,-1,2021-08-05 17:18:32,322063
1,1,1,-1,-1,1,-1,-1,2021-08-05 17:18:32,322063
0,3,4,-4,-1,-2,0,0,2021-08-05 17:18:32,322063
1,3,-16,1,0,-2,-1,-2,2021-08-05 17:18:32,322063
0,-9,5,-1,-2,1,2,2,2021-08-05 17:18:32,338169
-5,-1,-1,-4,-3,-4,-3,-3,2021-08-05 17:18:32,338271
1,5,3,0,1,2,-1,2,2021-08-05 17:18:32,338271
-2,3,3,-3,0,0,-1,-2,2021-08-05 17:18:32,338271
-1,-4,0,0,-3,-1,1,-1,2021-08-05 17:18:32,369142
-1,2,-5,3,1,1,2,0,2021-08-05 17:18:32,385062
-1,-6,4,0,-2,-2,-2,1,2021-08-05 17:18:32,385062
0,1,-5,3,-2,1,0,-1,2021-08-05 17:18:32,385062
-1,-10,-9,-4,-4,-3,-1,-2,2021-08-05 17:18:32,385062
-1,-1,1,-1,-1,-2,-2,-4,2021-08-05 17:18:32,385571
-1,3,-6,-3,-1,-1,0,-2,2021-08-05 17:18:32,385661
-3,6,6,-2,-2,-3,-3,-1,2021-08-05 17:18:32,385661
-1,9,4,2,2,-1,0,-1,2021-08-05 17:18:32,400062
0,-16,-3,-1,0,1,1,3,2021-08-05 17:18:32,400223
0,0,-5,2,1,1,0,0,2021-08-05 17:18:32,416102
0,-1,-2,-3,-1,-1,-2,0,2021-08-05 17:18:32,416102
-1,0,0,0,-1,-3,-2,-1,2021-08-05 17:18:32,432254
0,1,-2,-6,-2,-1,-1,-1,2021-08-05 17:18:32,432329
0,0,1,2,2,2,1,2,2021-08-05 17:18:32,432449
0,0,4,5,5,2,2,2,2021-08-05 17:18:32,432449
-1,8,2,-1,-3,-1,-2,-3,2021-08-05 17:18:32,448139
-1,-16,-7,-3,-3,-1,-1,0,2021-08-05 17:18:32,448139
-2,-5,2,-1,-1,0,-1,-2,2021-08-05 17:18:32,448139
-2,-4,-9,-3,-1,-1,0,-2,2021-08-05 17:18:32,448139
-2,5,2,1,1,-2,-2,0,2021-08-05 17:18:32,449065
-1,8,2,-3,-3,-2,-2,-3,2021-08-05 17:18:32,449065
1,-1,-3,0,0,0,2,1,2021-08-05 17:18:32,461062
-1,2,2,1,-3,-2,-4,-1,2021-08-05 17:18:32,461062
-1,-7,-2,-2,-1,-2,-2,-2,2021-08-05 17:18:32,479193
-3,2,6,0,-4,-2,0,-2,2021-08-05 17:18:32,479286
-1,4,-16,-4,-2,-3,-2,-3,2021-08-05 17:18:32,479286
-1,-15,2,0,3,4,2,2,2021-08-05 17:18:32,479286
-4,-2,-3,-1,0,1,-1,-2,2021-08-05 17:18:32,510527
-3,-3,0,-1,1,0,-3,-4,2021-08-05 17:18:32,510616
3,17,8,1,-1,-4,-4,-4,2021-08-05 17:18:32,510616
1,-7,-5,-6,-6,-6,-4,-3,2021-08-05 17:18:32,510833
1,-8,0,1,-2,-3,-1,0,2021-08-05 17:18:32,526517
3,13,9,4,2,0,0,3,2021-08-05 17:18:32,526745
-3,-14,-11,-3,0,0,0,0,2021-08-05 17:18:32,526967
-4,-4,-5,-2,0,1,0,0,2021-08-05 17:18:32,526967
-3,1,1,-3,-1,1,-1,-1,2021-08-05 17:18:32,541297
-3,-5,-9,-3,-1,-1,-1,-1,2021-08-05 17:18:32,541417
0,5,0,-4,-2,-1,-1,0,2021-08-05 17:18:32,556655
2,9,6,2,-1,1,-1,0,2021-08-05 17:18:32,556715
-1,1,-2,-1,0,1,0,-2,2021-08-05 17:18:32,556901
-3,-11,-4,-2,1,-1,-1,-1,2021-08-05 17:18:32,556901
1,9,0,0,-2,0,-1,-1,2021-08-05 17:18:32,556901
-3,-22,-8,-2,-1,-3,-2,-2,2021-08-05 17:18:32,556901
0,5,8,3,1,2,-1,0,2021-08-05 17:18:32,586554
0,4,2,-3,-4,-4,-3,-1,2021-08-05 17:18:32,586554
-2,-9,-12,1,2,3,2,1,2021-08-05 17:18:32,586554
1,16,10,-1,-1,-1,0,-3,2021-08-05 17:18:32,586554
-1,-5,-5,-3,-2,-2,-1,2,2021-08-05 17:18:32,602609
0,2,-1,-1,1,1,-3,-2,2021-08-05 17:18:32,602609
1,-2,1,-1,-1,-2,-2,-1,2021-08-05 17:18:32,602609
0,16,3,2,-1,2,0,0,2021-08-05 17:18:32,602609
0,-16,-2,1,1,1,-1,1,2021-08-05 17:18:32,633554
-1,0,3,1,-1,-1,0,-2,2021-08-05 17:18:32,648607
0,-2,-2,-1,1,0,0,-2,2021-08-05 17:18:32,664632
-1,-2,-1,-2,-2,-1,-1,0,2021-08-05 17:18:32,664632
1,3,-6,-1,0,-1,-1,-1,2021-08-05 17:18:32,664632
-1,-2,3,-2,-3,-2,-2,0,2021-08-05 17:18:32,664632
-1,0,5,-2,-4,-1,1,-2,2021-08-05 17:18:32,664632
0,12,-6,-5,0,-2,1,1,2021-08-05 17:18:32,664632
-3,-23,1,0,0,-1,-1,-2,2021-08-05 17:18:32,665555
-2,-12,-9,-1,0,-1,0,-1,2021-08-05 17:18:32,665555
0,2,7,4,1,-1,-2,0,2021-08-05 17:18:32,665555
-1,10,-2,-2,-3,-3,-4,-4,2021-08-05 17:18:32,665555
-1,13,2,1,0,-1,1,0,2021-08-05 17:18:32,695670
2,-9,1,1,0,1,1,0,2021-08-05 17:18:32,695670
1,-2,8,3,2,4,1,0,2021-08-05 17:18:32,695670
-1,-11,-17,-2,0,-2,0,0,2021-08-05 17:18:32,695670
-3,8,1,-6,-5,-4,-2,-4,2021-08-05 17:18:32,711607
2,-2,2,1,0,-1,-2,1,2021-08-05 17:18:32,727619
-1,6,5,-1,-1,-2,-1,1,2021-08-05 17:18:32,727619
-1,-7,2,3,1,0,0,0,2021-08-05 17:18:32,727619
-1,4,-6,-2,-2,-2,-1,-1,2021-08-05 17:18:32,727619
-2,10,1,-2,1,0,0,0,2021-08-05 17:18:32,727619
-2,-5,-6,1,0,-1,0,0,2021-08-05 17:18:32,727619
-1,0,5,-4,-3,-2,-1,-3,2021-08-05 17:18:32,727619
-4,-1,-3,3,1,2,-1,0,2021-08-05 17:18:32,743555
0,-5,-3,0,-2,-1,-2,-2,2021-08-05 17:18:32,743555
0,-5,-1,0,0,-1,-2,-1,2021-08-05 17:18:32,743555
0,-2,1,-3,-2,0,-1,-1,2021-08-05 17:18:32,743555
1,3,-1,-4,-2,-2,-2,-1,2021-08-05 17:18:32,774659
1,2,-3,-1,-1,0,-1,0,2021-08-05 17:18:32,789671
-2,22,-3,-6,-3,-2,-2,-3,2021-08-05 17:18:32,789671
0,-22,3,3,2,0,-1,0,2021-08-05 17:18:32,789671
-2,-7,2,-1,-4,-3,-1,-1,2021-08-05 17:18:32,789671
-2,0,-6,-2,-2,0,-1,-2,2021-08-05 17:18:32,789671
-1,0,0,0,-2,-3,-2,0,2021-08-05 17:18:32,789671
-2,24,6,-1,0,-1,0,0,2021-08-05 17:18:32,789671
2,-2,1,-1,1,-1,-1,-1,2021-08-05 17:18:32,796553
-1,-22,-11,0,2,1,1,3,2021-08-05 17:18:32,796553
-2,-2,-2,-1,-1,0,-1,-1,2021-08-05 17:18:32,796553
-3,-8,-6,-1,-1,-4,-2,-1,2021-08-05 17:18:32,797555
2,5,0,1,0,1,0,-1,2021-08-05 17:18:32,835553
1,23,2,2,0,-1,0,-1,2021-08-05 17:18:32,835553
-1,-28,-4,-1,0,-2,0,-1,2021-08-05 17:18:32,835553
0,4,5,-1,0,-1,2,-1,2021-08-05 17:18:32,835553
-1,-4,-4,-4,-2,-2,-3,0,2021-08-05 17:18:32,835553
-1,6,3,-1,0,-1,-2,-1,2021-08-05 17:18:32,835553
0,-7,-6,0,0,0,-1,1,2021-08-05 17:18:32,850555
-3,-7,-1,-2,-4,-1,-2,-4,2021-08-05 17:18:32,850555
1,-1,-3,2,2,1,1,0,2021-08-05 17:18:32,866724
-1,4,2,-1,-1,0,-1,0,2021-08-05 17:18:32,866724
-1,3,7,3,1,2,2,1,2021-08-05 17:18:32,866724
2,-3,-6,-1,1,1,0,1,2021-08-05 17:18:32,866724
-3,-3,-1,-1,0,-2,-1,-2,2021-08-05 17:18:32,882690
-2,-1,-1,-1,-3,-4,-2,-2,2021-08-05 17:18:32,882808
2,0,1,-1,-2,-2,0,2,2021-08-05 17:18:32,882940
0,1,-10,-2,-1,1,0,2,2021-08-05 17:18:32,883033
-5,-24,1,1,-1,-1,-1,-2,2021-08-05 17:18:32,898637
0,8,-3,-3,-1,-4,-1,-3,2021-08-05 17:18:32,898821
-4,-5,5,-3,-1,-1,-3,-2,2021-08-05 17:18:32,898993
2,12,-4,3,2,1,0,-1,2021-08-05 17:18:32,899084
-1,0,-5,-3,0,-2,0,0,2021-08-05 17:18:32,930679
-4,-25,-2,-4,-4,-2,-3,-3,2021-08-05 17:18:32,946629
-2,5,-1,1,2,2,0,0,2021-08-05 17:18:32,946629
0,7,7,1,-1,-1,-2,-1,2021-08-05 17:18:32,946629
-1,1,-4,-3,-5,-2,-1,0,2021-08-05 17:18:32,946629
0,2,-4,3,0,-2,-1,-1,2021-08-05 17:18:32,946629
0,0,6,1,3,4,2,2,2021-08-05 17:18:32,946629
-3,-11,-5,-2,-1,0,1,-4,2021-08-05 17:18:32,946629
-1,-2,2,0,-2,1,1,0,2021-08-05 17:18:32,962713
-2,4,1,0,-1,0,0,1,2021-08-05 17:18:32,978728
-2,-1,0,-2,-3,-4,-5,-2,2021-08-05 17:18:32,994644
-1,-3,-1,-1,1,-1,-1,0,2021-08-05 17:18:32,994665
-2,-1,-8,-4,-1,0,-2,-2,2021-08-05 17:18:32,994665
-1,-1,-3,-8,-5,-4,-1,-3,2021-08-05 17:18:32,994665
-2,-4,-2,-3,-4,-2,-2,-4,2021-08-05 17:18:32,994665
1,6,8,5,0,0,1,2,2021-08-05 17:18:32,994665
3,19,5,4,1,0,0,0,2021-08-05 17:18:33,010695
-1,-34,-5,-1,1,1,1,0,2021-08-05 17:18:33,026553
-1,9,3,-1,-3,-2,-1,-1,2021-08-05 17:18:33,056887
2,0,-1,0,-2,-2,-1,-1,2021-08-05 17:18:33,057070
1,6,1,2,1,0,-2,0,2021-08-05 17:18:33,057244
1,15,-2,-6,2,1,-1,-1,2021-08-05 17:18:33,057244
-3,-23,-18,-10,-4,-1,-3,-3,2021-08-05 17:18:33,057385
-5,-4,9,2,0,0,-1,0,2021-08-05 17:18:33,057488
2,15,11,1,-1,-2,-2,-1,2021-08-05 17:18:33,057595
1,-11,-16,6,3,3,3,3,2021-08-05 17:18:33,072666
1,4,4,-3,-3,-5,-3,-3,2021-08-05 17:18:33,072666
-5,-12,-9,-5,-2,-1,-2,-3,2021-08-05 17:18:33,072666
-2,0,-1,-3,-3,-2,-2,0,2021-08-05 17:18:33,088555
1,13,12,5,0,0,0,-1,2021-08-05 17:18:33,104611
0,2,-5,-1,1,-1,0,0,2021-08-05 17:18:33,104611
1,4,3,-2,-4,-1,-1,1,2021-08-05 17:18:33,104891
0,-6,-6,2,3,2,2,1,2021-08-05 17:18:33,104891
-4,-5,1,-7,-4,-2,-2,-1,2021-08-05 17:18:33,104891
1,-2,-11,4,0,-1,0,-1,2021-08-05 17:18:33,104891
1,-5,3,-1,0,-1,-2,-1,2021-08-05 17:18:33,104891
3,8,-4,0,1,1,1,2,2021-08-05 17:18:33,104891
-4,-12,0,0,-3,-3,-3,-2,2021-08-05 17:18:33,104891
-3,-9,-1,-1,0,-2,-1,-2,2021-08-05 17:18:33,104891
-2,5,2,-2,-2,-5,-4,-4,2021-08-05 17:18:33,104891
-3,0,-5,-3,-3,-2,-3,-3,2021-08-05 17:18:33,117553
1,1,4,0,1,1,-1,-1,2021-08-05 17:18:33,118554
-3,3,0,1,1,1,2,-1,2021-08-05 17:18:33,118554
-1,0,-4,-4,-4,-2,0,0,2021-08-05 17:18:33,118554
-3,-4,-2,-2,-2,-3,-3,-3,2021-08-05 17:18:33,136625
0,1,1,-4,-4,-2,-2,-2,2021-08-05 17:18:33,136995
2,20,1,4,3,2,2,3,2021-08-05 17:18:33,151929
0,4,3,2,1,0,2,-1,2021-08-05 17:18:33,152049
-3,-33,0,-4,-5,-4,-1,-4,2021-08-05 17:18:33,166980
1,11,-2,2,3,3,3,4,2021-08-05 17:18:33,181850
0,-7,-11,1,-1,0,-1,-1,2021-08-05 17:18:33,197850
0,0,-2,-2,1,0,1,0,2021-08-05 17:18:33,198044
-2,-3,-1,-2,-1,-3,-2,0,2021-08-05 17:18:33,213851
0,17,2,-6,-4,-4,-4,-3,2021-08-05 17:18:33,229850
-2,-13,1,-2,-3,-3,-2,-2,2021-08-05 17:18:33,229850
-1,0,1,2,1,1,1,0,2021-08-05 17:18:33,229850
3,2,1,4,4,3,3,3,2021-08-05 17:18:33,229850
1,19,6,3,-2,-1,-1,1,2021-08-05 17:18:33,229850
-1,-24,-12,0,1,1,-1,-1,2021-08-05 17:18:33,229850
-2,-8,-9,-7,-3,-3,-3,-4,2021-08-05 17:18:33,229850
1,6,4,-2,0,-1,-2,-2,2021-08-05 17:18:33,245961
0,3,0,0,-1,-1,1,2,2021-08-05 17:18:33,260850
-3,9,8,-6,-5,-6,-2,-6,2021-08-05 17:18:33,260850
3,-8,-7,4,5,5,4,2,2021-08-05 17:18:33,260850
-1,-3,-4,1,0,-2,-1,-2,2021-08-05 17:18:33,260850
0,-5,4,2,1,1,-1,-1,2021-08-05 17:18:33,260850
-3,1,-2,-5,-3,-5,-4,-2,2021-08-05 17:18:33,260850
-3,-3,-1,-4,-2,-4,-5,-4,2021-08-05 17:18:33,260850
4,6,-4,2,2,3,4,8,2021-08-05 17:18:33,260850
-1,-7,-4,1,-1,-1,-1,-4,2021-08-05 17:18:33,260850
-1,-1,0,-1,2,1,0,0,2021-08-05 17:18:33,260850
-2,13,7,1,-1,0,0,0,2021-08-05 17:18:33,261854
-2,-12,1,-4,-1,-1,1,-1,2021-08-05 17:18:33,292958
-3,-9,-18,-7,-4,-5,-4,-4,2021-08-05 17:18:33,309075
5,11,14,6,0,1,0,3,2021-08-05 17:18:33,324923
-4,-17,1,-1,-2,-2,-2,-2,2021-08-05 17:18:33,324923
1,4,-3,-2,1,1,1,1,2021-08-05 17:18:33,324923
-1,-10,0,-2,-2,-1,1,-1,2021-08-05 17:18:33,324923
0,36,4,-7,-6,-3,-4,-4,2021-08-05 17:18:33,324923
0,-37,-2,3,0,0,0,2,2021-08-05 17:18:33,324923
-3,-15,-6,-2,-3,-1,0,-1,2021-08-05 17:18:33,324923
-2,16,2,0,-2,-2,-2,-3,2021-08-05 17:18:33,324923
-4,-8,-6,-2,-4,-3,-1,-4,2021-08-05 17:18:33,324923
1,22,14,2,-1,0,1,1,2021-08-05 17:18:33,324923
2,-8,-11,-2,-2,-1,-1,-1,2021-08-05 17:18:33,340850
-1,-7,5,-2,0,-2,-1,-1,2021-08-05 17:18:33,340850
-6,-1,-2,0,0,1,-1,2,2021-08-05 17:18:33,341206
-1,-8,-6,-2,-2,-3,-1,-3,2021-08-05 17:18:33,341283
0,8,6,-2,-2,-3,-4,-2,2021-08-05 17:18:33,371298
0,-1,-3,4,4,0,2,1,2021-08-05 17:18:33,371427
3,-3,9,1,2,2,1,1,2021-08-05 17:18:33,371427
-3,6,-5,-1,-5,-3,-1,-2,2021-08-05 17:18:33,371427
-2,4,-1,-4,-3,-1,-2,-3,2021-08-05 17:18:33,371802
0,-4,4,-3,-2,0,-1,3,2021-08-05 17:18:33,371917
0,29,-10,4,4,1,1,0,2021-08-05 17:18:33,387156
-4,-42,-7,-3,-1,-1,-1,-1,2021-08-05 17:18:33,387156
-2,8,-3,-5,-2,-3,-3,1,2021-08-05 17:18:33,403231
-1,-2,4,-1,-3,-1,-1,-1,2021-08-05 17:18:33,419258
-1,-18,-2,4,4,3,3,4,2021-08-05 17:18:33,419258
-2,5,-3,1,2,2,1,-3,2021-08-05 17:18:33,419258
-1,9,2,-3,-4,-3,-4,-6,2021-08-05 17:18:33,419258
-1,0,-3,-2,-1,-4,-5,-3,2021-08-05 17:18:33,419258
7,3,4,3,-1,0,-2,2,2021-08-05 17:18:33,419258
3,15,5,-2,-1,-2,-1,1,2021-08-05 17:18:33,419258
-4,-19,-3,-2,-2,1,2,0,2021-08-05 17:18:33,446155
-4,10,-4,1,0,2,3,-2,2021-08-05 17:18:33,446155
-3,-31,2,-1,-2,-2,-1,-3,2021-08-05 17:18:33,446155
0,7,1,1,2,2,0,-1,2021-08-05 17:18:33,446155
-2,7,-4,-3,-2,-3,-1,-2,2021-08-05 17:18:33,480226
-1,-4,-2,-2,0,0,-2,-1,2021-08-05 17:18:33,480226
-2,-13,-4,1,-2,-3,-2,-1,2021-08-05 17:18:33,480226
0,12,-1,0,2,0,1,1,2021-08-05 17:18:33,480226
-3,2,10,3,-3,-3,-1,-4,2021-08-05 17:18:33,480226
1,13,-5,-5,-3,-3,-2,-1,2021-08-05 17:18:33,480226
-7,-30,-19,-9,-1,0,0,0,2021-08-05 17:18:33,480226
-2,-1,-3,-1,-2,-2,-2,0,2021-08-05 17:18:33,481156
1,8,14,6,4,3,1,1,2021-08-05 17:18:33,512155
3,-8,-7,3,3,2,2,0,2021-08-05 17:18:33,528286
-3,16,10,0,-3,-1,-2,-4,2021-08-05 17:18:33,544220
2,3,1,-5,-4,-2,-2,-2,2021-08-05 17:18:33,544408
-3,-9,-8,-1,2,-1,-1,-1,2021-08-05 17:18:33,544475
-3,-5,5,3,-1,0,0,-1,2021-08-05 17:18:33,544475
3,10,1,6,2,2,1,-1,2021-08-05 17:18:33,544475
-3,-10,-2,-3,-4,-1,-2,-1,2021-08-05 17:18:33,544475
0,-10,-4,0,0,1,-3,-1,2021-08-05 17:18:33,544475
-3,6,-2,-6,-4,-4,-4,-3,2021-08-05 17:18:33,544475
-2,-1,-5,-2,1,-1,0,-1,2021-08-05 17:18:33,545156
2,6,-1,4,1,0,1,1,2021-08-05 17:18:33,545156
4,5,-1,-2,-1,-2,1,1,2021-08-05 17:18:33,576231
-3,-7,-4,-2,-3,-2,-4,-2,2021-08-05 17:18:33,591298
0,-22,5,-1,2,1,1,-1,2021-08-05 17:18:33,606231
0,-4,-5,0,2,1,2,2,2021-08-05 17:18:33,606231
-1,8,2,-2,0,-1,0,0,2021-08-05 17:18:33,606231
-3,-7,0,0,0,1,-2,-1,2021-08-05 17:18:33,606231
1,16,0,-2,-5,-4,-1,1,2021-08-05 17:18:33,606231
-1,8,1,-2,1,1,0,-1,2021-08-05 17:18:33,606231
-3,-25,-7,0,-2,-1,-1,-3,2021-08-05 17:18:33,606231
1,16,10,1,-1,-1,1,-1,2021-08-05 17:18:33,606231
-2,-5,-8,-1,-2,-1,-1,0,2021-08-05 17:18:33,607157
-1,3,5,-1,-5,-3,-3,-3,2021-08-05 17:18:33,607157
1,7,-7,5,1,0,1,2,2021-08-05 17:18:33,638441
0,-6,-5,0,2,0,0,-1,2021-08-05 17:18:33,638441
-2,0,-2,-7,-4,-2,-2,-3,2021-08-05 17:18:33,638441
2,6,-2,-5,-3,-2,-1,-3,2021-08-05 17:18:33,638441
-4,1,12,4,1,2,2,2,2021-08-05 17:18:33,638441
0,-13,-7,-2,1,0,1,0,2021-08-05 17:18:33,638441
-1,-5,-10,-2,-1,0,-1,-1,2021-08-05 17:18:33,638441
-3,-3,2,-2,-6,-5,-3,-4,2021-08-05 17:18:33,639158
1,8,0,4,0,-2,-1,2,2021-08-05 17:18:33,671159
0,-2,9,5,1,-1,1,0,2021-08-05 17:18:33,685217
-3,2,-5,-3,0,-1,0,-2,2021-08-05 17:18:33,685688
-1,4,-5,-4,0,0,-1,-1,2021-08-05 17:18:33,685688
-4,5,3,-1,-3,-3,-4,-4,2021-08-05 17:18:33,703245
3,-3,-8,1,2,2,1,4,2021-08-05 17:18:33,717166
0,-6,6,4,0,-1,-1,-2,2021-08-05 17:18:33,717166
-5,-9,1,2,2,0,-1,-2,2021-08-05 17:18:33,717166
-2,-16,-16,-9,-4,-1,-1,-1,2021-08-05 17:18:33,717166
-3,4,-7,-9,-6,-4,-3,-4,2021-08-05 17:18:33,718169
2,-4,6,1,-1,-1,-2,-2,2021-08-05 17:18:33,718169
7,5,1,8,5,4,4,8,2021-08-05 17:18:33,718169
-2,1,2,-7,-3,-1,-1,-3,2021-08-05 17:18:33,718169
2,-7,-2,6,4,2,3,2,2021-08-05 17:18:33,718169
-1,8,-3,-2,-2,-2,0,-1,2021-08-05 17:18:33,718169
-1,-3,-6,2,0,-1,1,0,2021-08-05 17:18:33,719216
2,5,8,2,-1,-1,-2,0,2021-08-05 17:18:33,748166
-2,1,-2,-2,-1,-1,0,-1,2021-08-05 17:18:33,763534
-3,-1,12,3,-1,-2,1,0,2021-08-05 17:18:33,779466
2,8,-2,-1,-2,-3,-4,-3,2021-08-05 17:18:33,779706
-3,-18,-17,-8,-2,-3,-1,1,2021-08-05 17:18:33,779918
-3,3,10,-1,-1,-1,-2,-4,2021-08-05 17:18:33,779918
3,6,-3,4,3,4,0,4,2021-08-05 17:18:33,779918
-2,-3,-3,-7,-5,-4,-3,-6,2021-08-05 17:18:33,779918
1,1,-7,-2,-1,-1,0,-1,2021-08-05 17:18:33,779918
-1,-1,2,-1,-2,-1,-1,0,2021-08-05 17:18:33,779918
0,24,0,-6,-1,-1,0,1,2021-08-05 17:18:33,780467
0,-13,-4,3,0,3,1,2,2021-08-05 17:18:33,780467
1,2,2,4,1,0,-2,-2,2021-08-05 17:18:33,825522
0,-1,-2,-4,-4,-1,-1,-1,2021-08-05 17:18:33,825522
2,6,0,1,-1,-2,1,1,2021-08-05 17:18:33,841548
0,0,-1,-3,2,-1,-1,0,2021-08-05 17:18:33,841786
-2,0,1,-2,-3,-3,-1,-2,2021-08-05 17:18:33,841902
-2,-7,-9,-3,2,0,0,3,2021-08-05 17:18:33,841996
0,2,9,4,2,0,-1,-2,2021-08-05 17:18:33,842071
-3,11,4,0,0,-1,-1,-1,2021-08-05 17:18:33,842183
0,-19,-1,1,1,0,1,0,2021-08-05 17:18:33,842256
0,3,-9,-5,-3,-1,-2,-2,2021-08-05 17:18:33,842256
-2,-8,0,-5,-3,-2,-3,-2,2021-08-05 17:18:33,842425
0,0,2,2,1,0,0,0,2021-08-05 17:18:33,856639
-1,35,15,6,1,0,0,-2,2021-08-05 17:18:33,872025
-1,-39,-8,-2,1,2,2,1,2021-08-05 17:18:33,882653
4,-6,-15,-4,1,0,1,-1,2021-08-05 17:18:33,883081
-2,-6,-11,-9,-3,-1,-2,-2,2021-08-05 17:18:33,883220
-1,8,1,-3,-5,-3,-2,-1,2021-08-05 17:18:33,883550
-3,10,12,9,1,0,1,0,2021-08-05 17:18:33,883726
-2,-5,16,9,0,-1,1,-1,2021-08-05 17:18:33,883901
-1,-4,-17,-8,-2,-1,-2,-1,2021-08-05 17:18:33,884049
2,-6,-7,-3,0,0,0,0,2021-08-05 17:18:33,903026
-3,-3,3,-1,-2,-4,-4,-3,2021-08-05 17:18:33,903026
0,-4,-2,-3,-4,-1,-2,-1,2021-08-05 17:18:33,903026
-1,4,13,5,1,-2,1,0,2021-08-05 17:18:33,903026
-2,-5,-7,0,1,-1,-1,-2,2021-08-05 17:18:33,933715
0,10,5,0,0,-1,1,0,2021-08-05 17:18:33,934026
-6,-8,-6,-4,-3,-2,-3,-4,2021-08-05 17:18:33,934026
2,-8,-2,-3,-2,-1,0,-2,2021-08-05 17:18:33,934189
0,0,5,2,-1,2,-1,1,2021-08-05 17:18:33,934367
-1,-2,-3,2,1,0,-1,-1,2021-08-05 17:18:33,934367
1,2,-1,-1,0,-1,-2,1,2021-08-05 17:18:33,948877
-1,2,2,-1,-2,-2,-3,-1,2021-08-05 17:18:33,948877
-5,-15,-2,-2,-2,-2,-2,-3,2021-08-05 17:18:33,964405
2,7,-11,-7,-3,-1,-3,0,2021-08-05 17:18:33,964745
1,9,13,2,6,3,2,2,2021-08-05 17:18:33,964745
2,-1,-11,2,0,-2,0,1,2021-08-05 17:18:33,964902
0,-2,2,1,-1,-2,-2,-1,2021-08-05 17:18:33,995682
-2,1,11,2,-4,-4,-2,-1,2021-08-05 17:18:33,995764
0,2,-7,3,1,2,1,3,2021-08-05 17:18:33,996066
-4,-4,-2,-13,-2,-2,-4,-5,2021-08-05 17:18:33,996312
0,1,-1,0,2,-1,0,0,2021-08-05 17:18:33,996467
-3,-2,-3,0,1,1,-1,-2,2021-08-05 17:18:33,996467
-1,-6,3,2,-2,-1,1,0,2021-08-05 17:18:34,011633
0,8,6,6,-3,0,-1,1,2021-08-05 17:18:34,011633
-1,-1,-13,-12,-3,-1,-2,-3,2021-08-05 17:18:34,026634
1,2,-2,-2,1,-1,-1,1,2021-08-05 17:18:34,042758
-5,-7,0,-1,-4,-5,-6,-6,2021-08-05 17:18:34,073739
1,-5,10,7,2,2,2,3,2021-08-05 17:18:34,073739
2,15,4,2,-1,1,0,2,2021-08-05 17:18:34,073739
-3,-7,-14,-7,0,0,0,-1,2021-08-05 17:18:34,073739
0,-6,-7,-5,-1,-1,-1,-3,2021-08-05 17:18:34,073739
-1,1,5,3,1,-2,1,-1,2021-08-05 17:18:34,073739
-1,0,-3,-2,2,1,0,1,2021-08-05 17:18:34,074739
-1,7,2,1,-2,-2,0,0,2021-08-05 17:18:34,074739
-1,-10,-7,-5,-4,-3,-3,-1,2021-08-05 17:18:34,074739
-2,-6,-10,-6,-2,0,-2,-3,2021-08-05 17:18:34,074739
1,-3,3,0,-1,0,0,3,2021-08-05 17:18:34,088787
1,3,11,4,-1,0,1,-1,2021-08-05 17:18:34,088787
-1,-6,0,3,0,1,-2,-1,2021-08-05 17:18:34,088787
-2,-3,-6,-5,-2,-1,-1,-1,2021-08-05 17:18:34,088787
0,5,3,2,-1,-4,-1,-1,2021-08-05 17:18:34,119076
-4,-12,-7,-3,1,-2,-2,-4,2021-08-05 17:18:34,134869
1,6,5,4,1,-1,0,1,2021-08-05 17:18:34,164834
5,4,2,5,2,2,2,3,2021-08-05 17:18:34,180877
-1,-8,-13,-11,-2,-2,-2,-2,2021-08-05 17:18:34,195738
0,0,-2,-5,-4,-1,-1,0,2021-08-05 17:18:34,210824
-1,4,6,0,1,0,2,-1,2021-08-05 17:18:34,226828
-4,-4,4,6,0,-3,-1,0,2021-08-05 17:18:34,226828
-1,-1,-10,-10,-4,-1,-4,-4,2021-08-05 17:18:34,226828
1,6,6,3,-3,0,-1,-2,2021-08-05 17:18:34,226828
0,-1,-11,-6,-2,-1,0,0,2021-08-05 17:18:34,227740
-2,6,13,8,2,0,0,1,2021-08-05 17:18:34,227740
-2,-4,-1,-4,-1,-2,-1,-2,2021-08-05 17:18:34,227740
0,-9,-7,1,3,2,2,2,2021-08-05 17:18:34,227740
-2,3,-7,-5,-4,-3,-3,-3,2021-08-05 17:18:34,227740
-3,-1,-1,-3,-2,-3,-3,-2,2021-08-05 17:18:34,227740
0,2,9,5,0,0,0,0,2021-08-05 17:18:34,228740
-2,2,-3,-4,-3,-2,-3,-3,2021-08-05 17:18:34,228740
0,3,-1,4,3,2,2,1,2021-08-05 17:18:34,228740
1,-1,8,0,0,0,2,2,2021-08-05 17:18:34,228740
-5,-12,-13,-1,-1,-1,-1,-5,2021-08-05 17:18:34,228740
4,4,1,-3,2,2,2,4,2021-08-05 17:18:34,228740
-4,-11,-4,-4,-4,-2,-2,-2,2021-08-05 17:18:34,229742
0,12,-3,-1,-2,-2,-2,0,2021-08-05 17:18:34,229923
-1,0,10,7,-1,-1,0,0,2021-08-05 17:18:34,229923
1,-2,-2,0,0,1,-1,0,2021-08-05 17:18:34,230396
-2,1,4,0,-1,-3,-1,-3,2021-08-05 17:18:34,230598
3,-3,-3,1,1,2,1,2,2021-08-05 17:18:34,230738
-6,-9,-24,-19,-6,-3,-4,-4,2021-08-05 17:18:34,257841
2,-1,4,4,2,2,3,3,2021-08-05 17:18:34,272809
1,-1,-3,-2,1,0,0,-1,2021-08-05 17:18:34,287739
-4,-7,3,3,-2,0,-2,-3,2021-08-05 17:18:34,287739
1,8,21,17,5,1,2,0,2021-08-05 17:18:34,287739
1,-2,-15,-10,-3,-1,-1,-2,2021-08-05 17:18:34,302740
1,3,-5,-3,-1,0,-2,-1,2021-08-05 17:18:34,302740
-1,1,-2,-3,-2,-4,-3,-4,2021-08-05 17:18:34,302740
4,4,14,13,2,-2,0,4,2021-08-05 17:18:34,302740
-4,-8,0,-4,-4,-3,-4,-5,2021-08-05 17:18:34,303740
-1,1,-9,-11,-5,-2,-1,-1,2021-08-05 17:18:34,303740
1,-2,-13,-5,-1,1,1,0,2021-08-05 17:18:34,303740
0,-4,1,2,0,2,2,3,2021-08-05 17:18:34,303740
-4,-1,10,9,-1,-1,-1,-1,2021-08-05 17:18:34,303740
1,14,11,5,2,2,2,2,2021-08-05 17:18:34,304740
-3,-11,-24,-17,-4,-4,-2,-5,2021-08-05 17:18:34,304740
-3,1,4,-2,-1,-1,1,-1,2021-08-05 17:18:34,333962
-1,0,7,5,2,-1,-2,-1,2021-08-05 17:18:34,333962
1,9,7,5,1,-2,-2,0,2021-08-05 17:18:34,333962
-4,-7,-19,-20,-6,-2,-3,-5,2021-08-05 17:18:34,333962
4,2,2,4,2,1,2,2,2021-08-05 17:18:34,349797
-3,-2,1,-2,-3,-2,-3,-2,2021-08-05 17:18:34,365884
-2,-5,1,0,-1,-3,-1,-1,2021-08-05 17:18:34,365908
-3,-4,-2,-2,0,-2,-1,-2,2021-08-05 17:18:34,365908
2,1,-6,-3,-1,1,-1,0,2021-08-05 17:18:34,365908
0,-2,1,-1,-2,-2,-3,-1,2021-08-05 17:18:34,365908
-3,-6,-8,-4,-2,0,-2,-2,2021-08-05 17:18:34,365908
4,5,1,2,-1,3,1,3,2021-08-05 17:18:34,366794
-2,-9,-3,-4,-2,-2,-1,-2,2021-08-05 17:18:34,396850
-2,0,8,6,2,-2,-2,-1,2021-08-05 17:18:34,411794
-1,-2,-2,0,-2,-3,-3,-1,2021-08-05 17:18:34,426857
-2,-5,-13,-12,-5,-1,-5,-4,2021-08-05 17:18:34,427114
-2,1,4,6,1,2,2,3,2021-08-05 17:18:34,427392
0,3,7,6,-1,-2,0,2,2021-08-05 17:18:34,427392
0,-5,-3,-6,-2,0,0,-1,2021-08-05 17:18:34,427862
-6,-2,-9,-8,-5,-1,-2,-6,2021-08-05 17:18:34,428059
0,-2,-1,0,0,-1,0,-1,2021-08-05 17:18:34,428225
1,0,-2,-3,-1,-1,0,-1,2021-08-05 17:18:34,428447
-1,-6,2,2,-2,-2,-2,-1,2021-08-05 17:18:34,472092
0,5,22,17,5,0,3,3,2021-08-05 17:18:34,487260
-3,-2,-9,-7,-3,-3,-4,-5,2021-08-05 17:18:34,502747
1,-4,-17,-11,0,0,0,-1,2021-08-05 17:18:34,503218
-1,1,-1,-1,-2,0,-1,-2,2021-08-05 17:18:34,503218
0,0,6,5,0,-1,-1,2,2021-08-05 17:18:34,518050
-3,-3,-7,-2,-1,-1,-2,-3,2021-08-05 17:18:34,534000
-1,-3,0,2,-3,-1,0,1,2021-08-05 17:18:34,549914
1,-3,0,-1,0,1,1,2,2021-08-05 17:18:34,566109
-1,0,10,7,0,-2,0,0,2021-08-05 17:18:34,566349
-2,-2,-8,-6,-2,-1,-2,-3,2021-08-05 17:18:34,566349
1,3,-1,-4,-1,-3,-2,0,2021-08-05 17:18:34,566349
-2,-3,-1,-1,2,-2,0,-2,2021-08-05 17:18:34,566827
1,4,8,8,2,2,0,3,2021-08-05 17:18:34,566913
-1,1,0,-1,1,0,-2,-2,2021-08-05 17:18:34,567062
-5,-15,-10,-9,-4,-1,-2,-4,2021-08-05 17:18:34,567062
2,11,5,-4,-2,-1,-1,-1,2021-08-05 17:18:34,567062
2,2,-7,3,2,-1,0,2,2021-08-05 17:18:34,567062
-2,-4,7,6,-2,-2,-3,-1,2021-08-05 17:18:34,567062
5,10,11,6,2,2,0,0,2021-08-05 17:18:34,567062
-5,-12,-27,-20,-6,-2,-3,-5,2021-08-05 17:18:34,567914
0,-6,-1,-7,-2,0,-1,0,2021-08-05 17:18:34,580654
-2,-1,1,2,-2,-3,-1,0,2021-08-05 17:18:34,580654
-4,-4,3,2,-1,-1,-1,-1,2021-08-05 17:18:34,580914
4,17,21,17,3,1,0,1,2021-08-05 17:18:34,580914
-1,3,-18,-13,-3,-1,-2,-4,2021-08-05 17:18:34,580914
-1,-12,-14,-9,-1,0,0,1,2021-08-05 17:18:34,581366
-2,7,7,6,2,-2,-1,-1,2021-08-05 17:18:34,581366
-5,-16,-5,-2,-2,-3,-1,-4,2021-08-05 17:18:34,581366
1,5,16,7,-2,-1,0,0,2021-08-05 17:18:34,581366
2,3,-6,-3,-3,-1,-1,-2,2021-08-05 17:18:34,581914
2,5,-8,-10,0,1,2,3,2021-08-05 17:18:34,581914
-3,-3,1,3,0,1,1,1,2021-08-05 17:18:34,581914
-1,-4,6,5,0,-2,0,0,2021-08-05 17:18:34,581914
-1,0,5,3,-1,-2,-1,0,2021-08-05 17:18:34,612008
-3,-1,-13,-16,-6,-5,-2,-5,2021-08-05 17:18:34,612242
0,-5,-8,-2,2,3,3,2,2021-08-05 17:18:34,612417
-1,1,9,2,-1,0,-1,-1,2021-08-05 17:18:34,612417
-3,-2,2,3,0,0,-1,-6,2021-08-05 17:18:34,627965
0,-3,-13,0,0,0,0,2,2021-08-05 17:18:34,642912
-1,1,3,0,-4,-4,-3,-3,2021-08-05 17:18:34,642912
0,1,5,6,0,-1,-2,-1,2021-08-05 17:18:34,642912
-1,-1,-1,-6,-3,-2,-2,-2,2021-08-05 17:18:34,642912
-1,3,-3,0,-1,-1,0,-2,2021-08-05 17:18:34,642912
2,-3,-2,1,2,1,2,0,2021-08-05 17:18:34,642912
2,3,16,11,2,0,2,4,2021-08-05 17:18:34,643965
3,6,2,0,3,3,2,5,2021-08-05 17:18:34,674018
-3,-6,-12,-6,-3,-1,-2,-4,2021-08-05 17:18:34,674018
-3,-7,-7,-4,-3,-3,-4,-3,2021-08-05 17:18:34,674317
0,0,-1,-6,2,2,-1,1,2021-08-05 17:18:34,674317
0,3,12,11,2,-1,0,-1,2021-08-05 17:18:34,689193
-1,-2,5,0,-1,-2,0,3,2021-08-05 17:18:34,705069
1,0,-16,-8,-3,1,2,-1,2021-08-05 17:18:34,736077
-2,-1,-3,-4,-5,-3,-3,-3,2021-08-05 17:18:34,736077
-3,-2,1,2,-2,-2,-1,-1,2021-08-05 17:18:34,736526
4,-9,22,14,0,-1,-1,0,2021-08-05 17:18:34,736683
-2,9,-15,-7,-2,-1,-2,-1,2021-08-05 17:18:34,736683
-3,-8,-23,-13,-2,0,0,-2,2021-08-05 17:18:34,736963
0,-5,-3,-6,-3,-2,1,-2,2021-08-05 17:18:34,736963
0,3,7,8,-1,2,1,-1,2021-08-05 17:18:34,736963
1,-8,30,15,1,-2,-1,1,2021-08-05 17:18:34,736963
-11,0,-39,-32,-10,-4,-3,-11,2021-08-05 17:18:34,736963
1,2,0,-1,0,1,-2,0,2021-08-05 17:18:34,737763
-1,-1,-1,4,3,1,1,2,2021-08-05 17:18:34,737964
2,-1,8,8,2,0,2,1,2021-08-05 17:18:34,751072
-1,-1,12,12,-1,-2,-3,-2,2021-08-05 17:18:34,751291
-2,0,-2,-11,-2,-2,0,-1,2021-08-05 17:18:34,766069
-3,-4,-20,-11,-2,-1,-2,-2,2021-08-05 17:18:34,780743
-3,3,-2,-4,-2,-1,-2,0,2021-08-05 17:18:34,795961
-1,-9,0,6,1,0,0,-1,2021-08-05 17:18:34,796134
1,5,30,16,3,1,1,5,2021-08-05 17:18:34,796134
-3,9,-29,-20,-6,-2,-2,-5,2021-08-05 17:18:34,796634
-1,-5,-11,-7,-1,-2,0,-1,2021-08-05 17:18:34,796810
2,-2,2,1,1,-2,-1,-2,2021-08-05 17:18:34,796962
-1,-2,4,5,0,-1,0,0,2021-08-05 17:18:34,796962
0,6,22,17,2,1,-1,3,2021-08-05 17:18:34,796962
-2,-4,-9,-9,-4,-3,-4,-5,2021-08-05 17:18:34,812010
-1,-2,-16,-13,-3,0,-2,0,2021-08-05 17:18:34,812010
0,-3,-8,-3,-1,-3,-2,-1,2021-08-05 17:18:34,827146
-2,-4,1,-3,-2,-2,-4,-3,2021-08-05 17:18:34,827146
0,0,4,5,2,0,1,1,2021-08-05 17:18:34,827146
1,1,19,14,1,-2,0,-1,2021-08-05 17:18:34,827146
-1,-1,-21,-9,-1,2,0,0,2021-08-05 17:18:34,857962
-1,-2,1,0,1,0,2,0,2021-08-05 17:18:34,873095
-4,1,7,3,-3,-3,-1,-2,2021-08-05 17:18:34,887964
1,7,21,14,1,-2,0,1,2021-08-05 17:18:34,887964
-3,-9,-38,-32,-10,-3,-5,-7,2021-08-05 17:18:34,888506
5,5,10,8,3,0,0,3,2021-08-05 17:18:34,888670
-1,-10,-23,-19,-4,-2,-2,-3,2021-08-05 17:18:34,888822
1,-1,4,1,1,1,0,3,2021-08-05 17:18:34,888962
-2,3,15,14,1,-1,0,-3,2021-08-05 17:18:34,888962
0,6,8,9,-1,-2,0,1,2021-08-05 17:18:34,888962
-3,0,-11,-16,-4,-1,-2,-3,2021-08-05 17:18:34,888962
-3,-3,-6,0,-1,1,-2,-1,2021-08-05 17:18:34,888962
2,-1,-2,-1,1,-2,-1,0,2021-08-05 17:18:34,919052
-2,-6,-6,-5,-1,0,-1,0,2021-08-05 17:18:34,928961
1,6,23,21,5,-1,1,4,2021-08-05 17:18:34,929963
-1,2,-16,-17,-5,-1,-2,-4,2021-08-05 17:18:34,929963
-3,-7,-7,-3,-2,-1,0,-1,2021-08-05 17:18:34,929963
-1,-2,6,4,-1,-1,-1,-1,2021-08-05 17:18:34,929963
4,5,-6,-6,-1,-1,-1,0,2021-08-05 17:18:34,929963
0,-3,12,9,2,3,2,4,2021-08-05 17:18:34,929963
0,4,5,8,1,-1,0,0,2021-08-05 17:18:34,951079
-3,-5,-6,-9,-5,-4,-3,-4,2021-08-05 17:18:34,967125
-3,3,-6,0,-3,0,-3,-4,2021-08-05 17:18:34,983035
-2,-9,-17,-10,0,2,1,2,2021-08-05 17:18:34,983035
0,-1,9,7,0,0,0,-1,2021-08-05 17:18:34,983035
0,0,1,2,1,1,-1,2,2021-08-05 17:18:34,983388
-2,-7,8,8,0,-3,-2,0,2021-08-05 17:18:34,983544
1,7,3,2,3,2,3,1,2021-08-05 17:18:34,983799
-3,-1,-7,-10,-3,-1,-3,-3,2021-08-05 17:18:34,983972
0,-3,-3,3,2,1,1,-2,2021-08-05 17:18:34,984083
2,6,17,10,-1,0,0,4,2021-08-05 17:18:34,998152
-2,-5,-20,-7,-2,-2,-2,-7,2021-08-05 17:18:34,998152
-3,-2,7,3,2,1,3,1,2021-08-05 17:18:35,014155
-4,-2,-15,-6,0,-3,-2,-3,2021-08-05 17:18:35,014155
-3,-5,-10,-7,-3,0,-3,-3,2021-08-05 17:18:35,014155
0,2,18,15,-1,-3,0,-1,2021-08-05 17:18:35,014155
4,2,1,-5,-3,0,0,2,2021-08-05 17:18:35,030141
-4,-3,-3,-8,-4,-2,-1,-2,2021-08-05 17:18:35,030141
0,-5,-2,3,2,-1,-1,1,2021-08-05 17:18:35,030141
-3,6,4,4,-1,-3,-2,-2,2021-08-05 17:18:35,030141
1,2,0,0,0,-2,-3,1,2021-08-05 17:18:35,060878
-4,-5,-4,-5,-4,-2,-1,-3,2021-08-05 17:18:35,075975
3,2,0,0,1,3,2,1,2021-08-05 17:18:35,091878
-2,-6,-16,-14,-5,-2,-3,-3,2021-08-05 17:18:35,107972
0,-4,15,14,3,-1,1,2,2021-08-05 17:18:35,123877
1,2,14,10,1,0,1,4,2021-08-05 17:18:35,124038
-6,-6,-42,-31,-5,-2,-2,-9,2021-08-05 17:18:35,124157
1,-5,0,4,0,-1,0,3,2021-08-05 17:18:35,124355
-5,-3,-11,-10,-5,-1,-2,-3,2021-08-05 17:18:35,124507
-1,1,18,11,2,0,-2,2,2021-08-05 17:18:35,124607
0,3,17,12,-1,-1,0,0,2021-08-05 17:18:35,124734
-1,-2,-16,-15,-3,-2,-1,-1,2021-08-05 17:18:35,124877
-1,-4,-8,-3,-2,0,1,-2,2021-08-05 17:18:35,125020
-1,-1,-6,-7,-3,-2,-1,-2,2021-08-05 17:18:35,125148
0,2,12,5,-2,0,0,1,2021-08-05 17:18:35,138962
3,7,26,20,5,2,2,4,2021-08-05 17:18:35,139050
-7,-7,-35,-28,-6,2,-4,-9,2021-08-05 17:18:35,153966
-3,-4,-6,-4,1,1,-1,-4,2021-08-05 17:18:35,154121
1,1,1,3,1,-2,-3,-3,2021-08-05 17:18:35,154376
1,0,11,7,-3,-5,-4,-1,2021-08-05 17:18:35,169973
8,17,33,24,4,-1,1,9,2021-08-05 17:18:35,184876
-3,-7,-39,-33,-7,-3,-6,-6,2021-08-05 17:18:35,185104
-1,-5,-8,-3,0,1,2,6,2021-08-05 17:18:35,185234
0,-3,-1,-5,0,2,-1,1,2021-08-05 17:18:35,185234
-4,-2,5,8,0,-3,-1,-3,2021-08-05 17:18:35,185234
7,13,20,12,5,6,6,9,2021-08-05 17:18:35,185612
-1,-5,-7,5,2,1,0,-1,2021-08-05 17:18:35,185747
-5,-10,-21,-25,-8,-5,-3,-5,2021-08-05 17:18:35,185747
1,1,2,2,4,-1,1,-3,2021-08-05 17:18:35,185878
3,3,28,20,0,-2,0,2,2021-08-05 17:18:35,185878
-9,-6,-27,-22,-6,-3,-4,-11,2021-08-05 17:18:35,185878
2,-4,-8,0,3,2,3,3,2021-08-05 17:18:35,185878
-4,-5,-4,-5,-5,-4,-5,-3,2021-08-05 17:18:35,215085
2,-1,-1,1,1,-1,1,1,2021-08-05 17:18:35,230003
2,7,27,13,1,-2,-1,2,2021-08-05 17:18:35,230124
-3,-1,-10,-4,-2,-3,-2,-3,2021-08-05 17:18:35,230124
-1,-7,-15,-4,1,0,1,1,2021-08-05 17:18:35,230124
0,-1,-2,1,-2,-1,-2,-4,2021-08-05 17:18:35,230124
1,0,2,0,-3,0,1,3,2021-08-05 17:18:35,230124
2,3,4,2,0,0,0,1,2021-08-05 17:18:35,230124
0,-1,16,15,0,1,0,0,2021-08-05 17:18:35,245985
-3,-4,-21,-15,-2,-1,-1,-2,2021-08-05 17:18:35,245985
1,-3,-5,-3,1,-1,0,0,2021-08-05 17:18:35,246272
-3,-2,4,2,-1,0,-3,-2,2021-08-05 17:18:35,260876
-1,0,5,1,0,1,-1,1,2021-08-05 17:18:35,276037
-4,0,-3,1,0,-1,-1,-3,2021-08-05 17:18:35,276180
0,0,3,-1,-2,-1,0,0,2021-08-05 17:18:35,276278
2,3,5,4,2,1,1,0,2021-08-05 17:18:35,276278
1,3,3,5,2,-1,1,2,2021-08-05 17:18:35,276278
-7,-13,-22,-19,-5,-3,-5,-6,2021-08-05 17:18:35,276278
2,0,7,4,1,-1,-2,1,2021-08-05 17:18:35,291418
-5,1,-3,-2,-1,-1,-2,-4,2021-08-05 17:18:35,291418
5,-1,-3,-4,-2,-1,0,1,2021-08-05 17:18:35,306483
2,-9,14,10,1,0,1,3,2021-08-05 17:18:35,306601
-1,16,1,0,-1,-2,0,-2,2021-08-05 17:18:35,306601
-1,-7,-11,-7,1,1,0,-2,2021-08-05 17:18:35,306601
-1,0,-11,-3,-1,-1,-1,0,2021-08-05 17:18:35,337376
-1,-4,-6,-7,-3,0,-2,0,2021-08-05 17:18:35,352324
0,-3,10,3,-1,-1,-3,0,2021-08-05 17:18:35,352324
4,7,22,13,3,0,1,6,2021-08-05 17:18:35,367789
-3,-2,-11,-12,-2,0,-1,-1,2021-08-05 17:18:35,367789
1,-1,-5,4,-2,0,0,-1,2021-08-05 17:18:35,367789
-2,-1,1,0,-1,-2,0,0,2021-08-05 17:18:35,367789
-1,1,-1,-3,-2,-2,-1,-3,2021-08-05 17:18:35,383825
-1,-4,-1,-3,-2,-1,-2,-3,2021-08-05 17:18:35,398760
-1,7,12,7,1,-3,-1,0,2021-08-05 17:18:35,413869
-2,-4,-16,-7,-1,0,-1,-2,2021-08-05 17:18:35,429904
3,-4,5,7,0,1,0,3,2021-08-05 17:18:35,429938
-2,4,7,0,0,-1,-1,-3,2021-08-05 17:18:35,430043
1,-6,-22,-15,-4,1,0,-2,2021-08-05 17:18:35,430160
1,-2,4,4,3,0,0,1,2021-08-05 17:18:35,430378
-2,-2,-3,0,-3,-3,-2,-1,2021-08-05 17:18:35,430445
0,3,5,4,2,0,2,0,2021-08-05 17:18:35,430569
-2,6,10,3,-1,-2,-4,-1,2021-08-05 17:18:35,430665
0,-2,-3,-3,1,-1,0,0,2021-08-05 17:18:35,430791
-1,0,-4,-6,-3,-1,-1,-2,2021-08-05 17:18:35,445760
-2,-1,-5,-3,-1,-1,-2,-2,2021-08-05 17:18:35,461051
-2,-1,-1,0,0,-3,-1,-1,2021-08-05 17:18:35,461051
-2,-3,-1,1,2,0,0,-1,2021-08-05 17:18:35,461051
-1,0,1,0,-1,-1,-1,-2,2021-08-05 17:18:35,461051
-1,-1,-3,-4,-3,0,0,2,2021-08-05 17:18:35,461051
0,3,11,7,2,2,1,3,2021-08-05 17:18:35,461051
-1,-2,-14,-14,-5,-2,-2,-4,2021-08-05 17:18:35,461051
1,-2,-6,-3,-1,-1,1,0,2021-08-05 17:18:35,461051
-3,-5,-7,-3,-2,-1,-1,0,2021-08-05 17:18:35,477053
1,4,12,8,1,0,-1,1,2021-08-05 17:18:35,493147
-3,0,-1,-2,-5,-3,-4,-4,2021-08-05 17:18:35,509051
-1,-1,-2,0,2,0,-1,-3,2021-08-05 17:18:35,509051
1,-2,-5,-2,-1,-1,1,-1,2021-08-05 17:18:35,509051
-3,-2,0,-4,0,-3,-3,-3,2021-08-05 17:18:35,509051
2,2,10,10,2,2,3,5,2021-08-05 17:18:35,509051
0,3,11,0,-1,-2,-3,1,2021-08-05 17:18:35,509051
-5,-4,-24,-14,-3,-4,-3,-6,2021-08-05 17:18:35,509051
-1,-4,-10,-8,-4,-2,-2,-3,2021-08-05 17:18:35,510054
-2,-3,1,0,-1,1,-1,1,2021-08-05 17:18:35,510054
-1,-2,6,5,0,-2,-2,-1,2021-08-05 17:18:35,510054
2,6,16,11,-1,-1,1,1,2021-08-05 17:18:35,539113
0,-3,-9,-3,-1,0,-1,-3,2021-08-05 17:18:35,554278
1,0,-7,-4,2,0,1,1,2021-08-05 17:18:35,570243
0,-1,-2,-1,-1,1,0,2,2021-08-05 17:18:35,570243
-2,-3,1,1,0,-1,-2,-4,2021-08-05 17:18:35,570243
-1,-3,-3,1,-2,1,1,1,2021-08-05 17:18:35,570243
-2,0,13,8,-1,-3,-1,-4,2021-08-05 17:18:35,570243
-3,2,-11,-9,-2,1,0,0,2021-08-05 17:18:35,570243
-3,-7,-9,-5,-2,-2,-1,-1,2021-08-05 17:18:35,570243
0,2,-2,-4,-1,-1,1,-1,2021-08-05 17:18:35,570243
-1,-3,3,3,0,1,0,1,2021-08-05 17:18:35,570243
1,-1,4,3,-1,-2,-1,-2,2021-08-05 17:18:35,570243
-4,-3,-9,-9,-4,-4,-5,-5,2021-08-05 17:18:35,602309
1,5,18,12,2,0,2,4,2021-08-05 17:18:35,617366
-4,-4,-21,-19,-4,-4,-2,-6,2021-08-05 17:18:35,621243
-3,-3,-2,-3,-2,-3,-2,-3,2021-08-05 17:18:35,622245
1,2,7,6,4,1,0,1,2021-08-05 17:18:35,622245
-2,-3,1,-3,-2,-2,-1,-3,2021-08-05 17:18:35,622245
4,4,16,13,3,1,2,3,2021-08-05 17:18:35,622245
-2,-6,-21,-19,-4,-3,-3,-4,2021-08-05 17:18:35,622245
1,0,-2,-2,0,-1,1,-1,2021-08-05 17:18:35,622245
-1,0,-1,0,-1,-1,-3,-2,2021-08-05 17:18:35,622245
-3,-3,0,2,-1,0,0,2,2021-08-05 17:18:35,623245
1,3,3,4,0,1,0,0,2021-08-05 17:18:35,623245
1,0,7,4,0,0,-1,-1,2021-08-05 17:18:35,663402
-2,-5,-15,-10,-2,-1,-2,-3,2021-08-05 17:18:35,663402
2,5,6,3,1,0,3,6,2021-08-05 17:18:35,663623
-3,2,8,5,2,-2,0,-4,2021-08-05 17:18:35,663703
2,-3,3,-6,-2,1,1,2,2021-08-05 17:18:35,679529
-1,-8,-26,-11,-2,0,-1,-4,2021-08-05 17:18:35,695466
-1,-6,-6,-4,-1,1,-3,-5,2021-08-05 17:18:35,695466
-2,1,6,4,-2,-1,-1,-1,2021-08-05 17:18:35,695752
1,5,16,10,0,-2,0,1,2021-08-05 17:18:35,695841
0,3,8,2,1,0,0,2,2021-08-05 17:18:35,727311
-1,-5,-13,-7,-3,0,-3,-1,2021-08-05 17:18:35,742401
-1,-1,0,0,-1,-2,-2,0,2021-08-05 17:18:35,742504
-4,-4,-4,-1,0,-1,-1,-2,2021-08-05 17:18:35,742674
1,2,7,4,0,0,0,1,2021-08-05 17:18:35,742776
-3,0,-1,-6,-5,-2,-2,-4,2021-08-05 17:18:35,742941
-1,-3,-6,-1,1,2,0,-2,2021-08-05 17:18:35,742941
-2,-1,-8,-9,0,0,-1,1,2021-08-05 17:18:35,743147
-1,2,1,1,-2,-2,-1,-3,2021-08-05 17:18:35,743147
-1,1,5,4,-1,-1,-3,-1,2021-08-05 17:18:35,743311
2,3,10,5,1,0,-1,3,2021-08-05 17:18:35,743311
-2,-6,-23,-16,-4,0,-3,-5,2021-08-05 17:18:35,743311
-1,-2,-2,1,1,1,2,1,2021-08-05 17:18:35,743311
-5,-2,-2,-1,-2,-2,-1,-4,2021-08-05 17:18:35,743311
0,-2,-2,-1,0,1,3,2,2021-08-05 17:18:35,743311
0,4,14,8,1,-1,-2,0,2021-08-05 17:18:35,774617
3,-1,-8,-1,1,1,1,4,2021-08-05 17:18:35,789454
-3,-4,-7,-8,-3,-2,-2,-6,2021-08-05 17:18:35,804525
0,-2,0,0,0,0,0,1,2021-08-05 17:18:35,820489
0,3,7,6,0,-1,1,1,2021-08-05 17:18:35,820489
-2,-2,2,0,-1,-1,-2,0,2021-08-05 17:18:35,820489
1,-1,4,3,2,0,0,0,2021-08-05 17:18:35,820489
-5,-5,-8,-5,-3,-3,-4,-6,2021-08-05 17:18:35,820489
4,2,10,7,1,0,1,3,2021-08-05 17:18:35,821156
1,6,16,12,1,-2,-1,-2,2021-08-05 17:18:35,821156
-2,-9,-40,-24,-4,-3,-1,-1,2021-08-05 17:18:35,821375
-3,-5,-6,-9,-2,-1,-2,-3,2021-08-05 17:18:35,821375
-3,-3,-6,-2,0,1,-1,-1,2021-08-05 17:18:35,836461
0,-1,13,4,-2,-1,-1,-1,2021-08-05 17:18:35,836461
3,7,19,15,2,0,0,1,2021-08-05 17:18:35,836461
-2,-2,-6,-5,-4,-2,0,-1,2021-08-05 17:18:35,836461
-2,0,-2,-2,-2,-1,-2,-2,2021-08-05 17:18:35,851375
-3,0,-2,0,-1,-2,0,1,2021-08-05 17:18:35,851375
2,1,7,1,-1,-1,1,0,2021-08-05 17:18:35,851375
-1,-2,-11,-2,0,0,0,2,2021-08-05 17:18:35,851375
-1,-4,-2,1,-1,-1,-2,-3,2021-08-05 17:18:35,866530
0,0,-3,-4,-1,-2,0,-1,2021-08-05 17:18:35,866764
-2,-1,-4,-3,-1,0,-2,-2,2021-08-05 17:18:35,866913
-1,2,2,0,1,-1,-1,-1,2021-08-05 17:18:35,867085
0,-1,-3,1,0,0,-1,0,2021-08-05 17:18:35,913921
-1,-1,-7,-6,-2,0,-2,-4,2021-08-05 17:18:35,929979
0,1,5,3,-1,-3,-1,2,2021-08-05 17:18:35,944881
1,0,5,6,1,1,2,2,2021-08-05 17:18:35,946881
-1,-3,-6,-5,-2,0,0,1,2021-08-05 17:18:35,946881
-2,-3,3,0,-2,1,-1,-1,2021-08-05 17:18:35,947058
-1,4,13,9,5,1,1,0,2021-08-05 17:18:35,947202
-5,-8,-25,-18,-5,-1,-5,-9,2021-08-05 17:18:35,947388
-1,-2,-4,-4,-2,-1,-2,-3,2021-08-05 17:18:35,960389
5,6,4,3,0,0,-1,0,2021-08-05 17:18:35,960627
4,2,12,8,-2,-1,-2,3,2021-08-05 17:18:35,960627
-2,2,1,-4,-4,-2,-2,-1,2021-08-05 17:18:35,960627
-1,0,0,1,1,0,1,3,2021-08-05 17:18:35,960627
-6,-4,-2,-5,-4,-3,-3,-3,2021-08-05 17:18:35,960627
-1,-2,4,4,3,3,0,1,2021-08-05 17:18:35,960627
-1,1,-3,4,1,0,0,0,2021-08-05 17:18:35,960627
-4,-4,-14,-13,-4,-4,-4,-6,2021-08-05 17:18:35,960627
-1,-3,-1,-1,-1,-2,-2,-2,2021-08-05 17:18:35,960627
0,-3,-7,-8,-2,0,-1,-1,2021-08-05 17:18:35,976390
1,1,9,6,0,-2,-2,1,2021-08-05 17:18:35,992470
-1,4,9,5,1,-1,1,0,2021-08-05 17:18:35,992470
1,-1,-6,1,1,1,-1,-1,2021-08-05 17:18:35,992470
-2,-3,-7,-9,-4,-2,0,-3,2021-08-05 17:18:35,992470
2,0,4,2,-2,1,0,0,2021-08-05 17:18:35,992470
-2,3,7,7,-2,-3,-2,1,2021-08-05 17:18:36,023445
1,3,-8,-8,-1,-1,0,1,2021-08-05 17:18:36,023621
-3,-7,-12,-4,-1,-1,0,1,2021-08-05 17:18:36,023713
1,1,6,4,1,1,1,2,2021-08-05 17:18:36,023713
2,1,7,1,0,0,0,-1,2021-08-05 17:18:36,024062
-3,-2,-4,1,2,1,-1,-1,2021-08-05 17:18:36,024217
0,-1,1,-1,-1,-2,-1,-3,2021-08-05 17:18:36,039474
1,-1,-5,-2,1,0,0,-2,2021-08-05 17:18:36,039582
-3,-1,2,3,0,-1,0,-3,2021-08-05 17:18:36,054557
1,-3,-1,-2,0,0,3,1,2021-08-05 17:18:36,070470
-2,0,-4,-1,0,-1,0,-1,2021-08-05 17:18:36,085615
0,-3,-1,0,-1,-1,0,-1,2021-08-05 17:18:36,085731
-2,0,0,-3,-1,-1,-1,-3,2021-08-05 17:18:36,085731
1,-1,-5,-2,-1,0,-2,0,2021-08-05 17:18:36,085731
-3,-1,-4,-1,-3,0,0,-1,2021-08-05 17:18:36,085731
-1,0,3,1,-1,-1,-1,1,2021-08-05 17:18:36,085731
2,2,6,10,3,2,2,2,2021-08-05 17:18:36,100823
-3,0,0,-1,-3,-4,-3,-3,2021-08-05 17:18:36,100823
-1,1,-2,-10,-3,0,0,0,2021-08-05 17:18:36,100823
-1,0,-9,-2,0,-2,0,-1,2021-08-05 17:18:36,100823
-1,-3,-11,-6,-2,1,-1,-1,2021-08-05 17:18:36,100823
-1,1,7,7,0,-2,-1,-1,2021-08-05 17:18:36,100823
0,1,6,1,-1,-2,0,-2,2021-08-05 17:18:36,116873
-2,-1,2,-4,-3,-2,-2,0,2021-08-05 17:18:36,132757
-1,-2,-5,-5,-1,2,0,0,2021-08-05 17:18:36,148758
1,0,1,-1,0,0,-1,-3,2021-08-05 17:18:36,148758
-6,-4,-2,-1,-2,-2,-5,-4,2021-08-05 17:18:36,148758
5,3,6,2,2,0,1,2,2021-08-05 17:18:36,148758
1,3,-3,-4,0,0,0,-2,2021-08-05 17:18:36,148758
0,-4,-7,-5,-1,-1,1,0,2021-08-05 17:18:36,148758
-1,0,2,4,-2,-2,-2,-3,2021-08-05 17:18:36,148758
-2,-2,-3,-1,-3,-1,-1,-1,2021-08-05 17:18:36,148758
-3,-6,2,-1,1,-1,-2,-1,2021-08-05 17:18:36,180917
-4,-3,-11,-6,0,-1,0,-3,2021-08-05 17:18:36,196907
0,1,0,0,-2,0,-1,-2,2021-08-05 17:18:36,212757
-1,2,11,13,0,0,0,0,2021-08-05 17:18:36,228840
-1,-1,-7,-19,-5,-3,-3,-3,2021-08-05 17:18:36,228840
-1,-4,-1,1,1,1,0,0,2021-08-05 17:18:36,229071
2,2,0,2,1,-2,1,2,2021-08-05 17:18:36,229071
-2,-4,-7,-7,0,0,0,-2,2021-08-05 17:18:36,229071
1,1,6,8,0,-3,0,0,2021-08-05 17:18:36,229071
1,1,6,4,-1,-1,-1,1,2021-08-05 17:18:36,229071
0,-1,-3,-2,0,-2,1,0,2021-08-05 17:18:36,229071
0,1,1,-5,-1,-3,-3,-1,2021-08-05 17:18:36,229071
-2,-3,-7,-1,1,-1,-1,-2,2021-08-05 17:18:36,229759
0,2,4,1,2,-1,-1,1,2021-08-05 17:18:36,229759
-1,-4,-2,0,0,0,-1,-1,2021-08-05 17:18:36,243758
-2,1,0,0,-1,-2,0,-3,2021-08-05 17:18:36,243906
1,-1,-1,3,0,0,0,1,2021-08-05 17:18:36,243906
-1,1,4,0,-1,1,-2,-1,2021-08-05 17:18:36,243906
-2,-7,-12,-13,-3,0,-4,-4,2021-08-05 17:18:36,243906
1,2,4,3,2,1,2,2,2021-08-05 17:18:36,243906
-3,-1,-5,-4,-3,-3,-4,-6,2021-08-05 17:18:36,258758
1,-2,1,2,3,2,4,5,2021-08-05 17:18:36,258758
-2,1,3,3,2,-2,-2,-3,2021-08-05 17:18:36,268757
0,3,6,1,0,-1,-1,1,2021-08-05 17:18:36,269759
-1,-3,-11,-9,-1,-1,0,1,2021-08-05 17:18:36,290887
-1,-3,-6,-8,-3,-1,-1,-2,2021-08-05 17:18:36,306836
-2,-1,1,0,0,2,-2,0,2021-08-05 17:18:36,321758
-1,0,2,2,-1,1,-2,-1,2021-08-05 17:18:36,336757
2,5,13,13,1,0,-1,1,2021-08-05 17:18:36,336757
-5,-5,-14,-9,-6,-5,-3,-7,2021-08-05 17:18:36,336757
5,3,-1,1,3,4,4,8,2021-08-05 17:18:36,336757
-1,-2,5,3,-1,-1,-1,-1,2021-08-05 17:18:36,336757
0,2,3,-3,-3,-2,-2,-3,2021-08-05 17:18:36,336757
-2,-8,-12,-2,-1,0,0,-2,2021-08-05 17:18:36,337358
-1,-1,0,-4,-3,-4,-3,-3,2021-08-05 17:18:36,337428
0,0,-4,-4,0,1,0,3,2021-08-05 17:18:36,337428
1,1,5,5,2,0,1,2,2021-08-05 17:18:36,352759
-1,3,5,1,0,-1,-5,-2,2021-08-05 17:18:36,352759
-1,-2,0,2,-2,0,-1,-2,2021-08-05 17:18:36,352759
-2,-5,-7,-5,-3,-1,-1,-3,2021-08-05 17:18:36,352759
-2,0,-2,-3,-1,-1,0,-1,2021-08-05 17:18:36,368758
1,3,7,4,0,0,-1,0,2021-08-05 17:18:36,384757
-2,-2,-3,-1,-2,0,2,1,2021-08-05 17:18:36,384757
-3,-3,-7,-7,-3,-2,-2,-1,2021-08-05 17:18:36,384757
-3,-2,-4,-1,0,-2,-2,-4,2021-08-05 17:18:36,399757
-3,-3,7,4,-1,-2,-2,-3,2021-08-05 17:18:36,399757
3,9,4,1,2,2,1,4,2021-08-05 17:18:36,399757
-3,-9,-13,-5,-3,0,-2,-2,2021-08-05 17:18:36,399757
-1,-2,-6,-6,-1,-1,-2,-2,2021-08-05 17:18:36,415758
1,0,6,3,0,-2,1,-1,2021-08-05 17:18:36,431835
-1,0,9,7,-1,-1,-1,-1,2021-08-05 17:18:36,432045
0,3,-5,-6,-1,-1,-2,-2,2021-08-05 17:18:36,432224
-3,-2,-6,-3,-1,0,-1,3,2021-08-05 17:18:36,432224
2,3,1,1,2,1,-2,1,2021-08-05 17:18:36,432379
1,-4,-3,-3,-3,-2,-2,-1,2021-08-05 17:18:36,432445
1,0,3,3,0,-1,-1,1,2021-08-05 17:18:36,432445
-2,-2,2,0,-4,-1,-1,-2,2021-08-05 17:18:36,447201
-1,0,-1,-3,-3,0,0,0,2021-08-05 17:18:36,447201
-4,-4,-1,0,-3,-3,-2,-4,2021-08-05 17:18:36,447201
0,-1,-5,-1,1,1,1,1,2021-08-05 17:18:36,447759
-3,-2,0,-3,-2,-2,0,-2,2021-08-05 17:18:36,462920
-1,1,0,-1,-1,1,0,0,2021-08-05 17:18:36,463095
-3,-3,-3,-8,-3,-2,-2,-4,2021-08-05 17:18:36,463267
1,0,5,7,0,-1,0,1,2021-08-05 17:18:36,463267
0,2,-3,-2,1,0,0,1,2021-08-05 17:18:36,493757
-1,-6,-10,-6,-1,-1,-2,-1,2021-08-05 17:18:36,493757
-1,3,3,2,1,-2,-1,-1,2021-08-05 17:18:36,493757
0,-1,2,0,0,0,0,-2,2021-08-05 17:18:36,493757
1,-2,1,0,-2,0,1,0,2021-08-05 17:18:36,508857
0,-2,2,2,-2,-1,0,0,2021-08-05 17:18:36,508857
0,6,1,0,0,-2,-3,-2,2021-08-05 17:18:36,508857
0,-5,-7,-8,-2,0,1,1,2021-08-05 17:18:36,508857
-1,-2,-3,2,0,1,1,0,2021-08-05 17:18:36,539914
-1,-5,-5,-4,-2,-1,-1,-1,2021-08-05 17:18:36,539998
0,1,2,3,0,0,0,1,2021-08-05 17:18:36,540160
-4,1,1,-1,-2,-3,-3,-4,2021-08-05 17:18:36,540211
-2,-3,0,-1,0,0,0,-2,2021-08-05 17:18:36,555875
0,3,2,-4,-3,-1,0,1,2021-08-05 17:18:36,555875
-3,-5,-3,-2,-1,-1,0,-2,2021-08-05 17:18:36,555875
-1,-1,2,-1,-2,-1,-2,-1,2021-08-05 17:18:36,555875
-3,-2,-2,-3,-3,-3,-3,-4,2021-08-05 17:18:36,570898
3,3,10,11,2,1,3,5,2021-08-05 17:18:36,586798
-4,-6,-11,-13,-2,-2,-3,-4,2021-08-05 17:18:36,594810
-2,-3,-4,-3,-2,-3,-4,-3,2021-08-05 17:18:36,594810
-2,-4,0,1,1,0,-1,-1,2021-08-05 17:18:36,594810
-3,2,4,-3,-4,-4,-3,-5,2021-08-05 17:18:36,594810
2,0,-5,2,0,2,3,1,2021-08-05 17:18:36,595760
0,-3,5,4,0,0,0,1,2021-08-05 17:18:36,595760
2,-1,-7,-4,-1,0,-3,-1,2021-08-05 17:18:36,616757
-2,-2,1,-2,-2,-3,-1,-4,2021-08-05 17:18:36,616983
2,1,3,4,2,2,0,2,2021-08-05 17:18:36,617016
-1,2,0,0,-2,-2,0,-3,2021-08-05 17:18:36,617128
2,0,4,7,0,0,0,2,2021-08-05 17:18:36,632757
-2,0,-5,-6,-1,-1,-1,0,2021-08-05 17:18:36,648757
-2,-7,-1,0,-2,-1,-2,-4,2021-08-05 17:18:36,663757
1,2,2,2,-1,0,-1,-1,2021-08-05 17:18:36,679835
1,1,4,-4,-3,-2,0,0,2021-08-05 17:18:36,695757
-1,-2,-14,-4,0,1,0,0,2021-08-05 17:18:36,695757
1,-2,2,2,0,-1,1,1,2021-08-05 17:18:36,695757
-2,2,1,-1,-1,-2,-2,-2,2021-08-05 17:18:36,695757
-2,0,0,-1,-1,-3,-1,-2,2021-08-05 17:18:36,695757
-2,-2,2,-7,-1,-3,-4,-6,2021-08-05 17:18:36,695757
1,1,-7,-1,2,-1,0,1,2021-08-05 17:18:36,695757
-1,-4,-4,-3,-1,-1,-3,-1,2021-08-05 17:18:36,696758
-1,0,1,1,-2,-1,0,1,2021-08-05 17:18:36,696758
1,-2,-2,1,-3,1,2,1,2021-08-05 17:18:36,696758
-2,0,5,2,-3,-2,-1,0,2021-08-05 17:18:36,696758
0,-1,-7,-2,3,2,2,1,2021-08-05 17:18:36,696758
-4,-4,-4,1,1,1,-1,-3,2021-08-05 17:18:36,710890
-3,2,2,2,1,-1,-3,-4,2021-08-05 17:18:36,726757
1,1,2,1,-1,-2,-1,-2,2021-08-05 17:18:36,742757
3,2,1,-1,-5,-5,-5,-2,2021-08-05 17:18:36,758757
4,4,8,1,-2,-2,-1,1,2021-08-05 17:18:36,773820
2,-3,-9,-5,-2,1,-2,0,2021-08-05 17:18:36,774094
-1,-3,-8,-6,0,-1,-2,-2,2021-08-05 17:18:36,774218
1,4,9,5,3,1,3,4,2021-08-05 17:18:36,774382
-4,-8,-12,-5,-3,-2,-2,-1,2021-08-05 17:18:36,774499
4,4,-3,-1,3,1,2,3,2021-08-05 17:18:36,774591
-3,-2,0,0,-3,-1,-1,-3,2021-08-05 17:18:36,788861
-4,-3,-1,0,-3,-3,-2,-4,2021-08-05 17:18:36,788861
3,3,6,5,2,1,2,4,2021-08-05 17:18:36,789073
-4,0,-2,-4,-3,-3,-2,-3,2021-08-05 17:18:36,789099
-3,-3,-5,-4,-1,-2,-3,-1,2021-08-05 17:18:36,789205
0,1,1,1,2,3,2,2,2021-08-05 17:18:36,789288
-2,-4,-9,-3,-2,-2,-1,-3,2021-08-05 17:18:36,789374
0,-2,0,2,0,0,-1,0,2021-08-05 17:18:36,789544
0,2,4,2,-2,-1,-1,-2,2021-08-05 17:18:36,804831
1,0,6,4,1,0,3,3,2021-08-05 17:18:36,805064
1,-3,-12,-10,-1,-1,-1,1,2021-08-05 17:18:36,819810
0,1,0,-1,-1,-3,-1,-2,2021-08-05 17:18:36,834879
1,-1,2,1,3,2,0,3,2021-08-05 17:18:36,834879
0,1,-4,-1,-1,-1,0,0,2021-08-05 17:18:36,835078
-2,-1,5,2,2,2,1,-1,2021-08-05 17:18:36,835078
-3,-1,1,0,-4,-2,0,0,2021-08-05 17:18:36,835078
-2,-2,-2,0,-3,-2,-2,-3,2021-08-05 17:18:36,835078
-1,-2,-7,-8,-1,-2,-3,-3,2021-08-05 17:18:36,835078
1,2,2,1,2,1,0,0,2021-08-05 17:18:36,850757
-2,-4,1,1,-2,-1,0,-3,2021-08-05 17:18:36,866853
-4,-3,0,-1,-3,-3,-2,-3,2021-08-05 17:18:36,867021
3,2,-4,2,3,3,3,3,2021-08-05 17:18:36,867021
-1,2,-2,-5,-1,-1,0,-2,2021-08-05 17:18:36,867255
-3,-3,0,1,0,0,-1,1,2021-08-05 17:18:36,867255
1,0,0,0,0,-2,1,1,2021-08-05 17:18:36,883026
-6,-3,-1,0,-2,-2,-3,-7,2021-08-05 17:18:36,897891
0,1,-1,-4,-2,1,-1,-1,2021-08-05 17:18:36,913823
1,-1,-1,4,2,0,-2,0,2021-08-05 17:18:36,913823
-1,-2,-1,-1,0,0,0,1,2021-08-05 17:18:36,913823
-1,0,4,0,-4,-4,-4,-4,2021-08-05 17:18:36,913823
1,-1,-7,-3,-1,1,2,4,2021-08-05 17:18:36,913823
-2,-2,0,-1,2,-1,0,-2,2021-08-05 17:18:36,913823
-2,1,2,1,-1,-1,-2,1,2021-08-05 17:18:36,913823
-3,0,0,-1,0,-1,1,-1,2021-08-05 17:18:36,913823
-4,-1,3,1,-3,0,-3,-6,2021-08-05 17:18:36,944816
4,5,4,5,0,1,4,3,2021-08-05 17:18:36,944816
-1,-3,-7,-9,-2,-2,-1,-1,2021-08-05 17:18:36,944816
0,-1,-1,-3,0,-1,-1,0,2021-08-05 17:18:36,944816
-1,-2,-2,-1,0,-3,0,-3,2021-08-05 17:18:36,944816
-1,-2,-2,-3,-1,-2,-1,0,2021-08-05 17:18:36,944816
0,-1,4,4,-2,-2,-1,-2,2021-08-05 17:18:36,960823
0,-1,-3,2,-1,1,1,1,2021-08-05 17:18:36,960897
1,0,-1,1,0,-1,-1,0,2021-08-05 17:18:36,975738
-3,-1,-2,-4,-3,-3,-2,-4,2021-08-05 17:18:36,976220
-1,1,6,3,0,0,-2,0,2021-08-05 17:18:36,976305
-3,-8,-14,-6,-1,1,-3,-2,2021-08-05 17:18:36,976396
3,2,7,6,1,-1,0,2,2021-08-05 17:18:37,006987
-3,-2,-1,-1,-1,0,-2,-4,2021-08-05 17:18:37,007125
-3,-3,-3,-3,-1,0,0,-1,2021-08-05 17:18:37,007290
-4,-2,3,-1,-4,-5,-3,-5,2021-08-05 17:18:37,007375
2,2,1,0,1,2,1,2,2021-08-05 17:18:37,007519
2,-2,2,2,0,0,0,2,2021-08-05 17:18:37,007634
-2,1,-6,-7,-1,0,-2,-4,2021-08-05 17:18:37,022738
-1,-3,-1,-6,-4,-2,-2,-1,2021-08-05 17:18:37,038855
-4,-3,-3,-2,-3,-4,-1,-4,2021-08-05 17:18:37,070799
3,1,1,0,0,0,1,2,2021-08-05 17:18:37,086849
0,-3,-2,7,4,2,1,2,2021-08-05 17:18:37,086927
2,2,-1,-8,1,-1,1,-1,2021-08-05 17:18:37,086927
-3,-1,-1,-2,-2,-2,-5,-4,2021-08-05 17:18:37,086927
-1,-3,-5,-2,-2,-1,-1,0,2021-08-05 17:18:37,086927
-1,3,5,3,1,-1,0,-1,2021-08-05 17:18:37,086927
-2,-4,-5,-4,-2,-2,-2,-2,2021-08-05 17:18:37,086927
-1,-2,1,0,-1,0,0,1,2021-08-05 17:18:37,086927
-1,1,1,1,-1,-2,-1,-2,2021-08-05 17:18:37,086927
-1,-4,-3,-3,-3,-1,-2,0,2021-08-05 17:18:37,086927
0,-2,0,5,0,-1,-2,-1,2021-08-05 17:18:37,086927
-1,1,2,-2,-1,-1,-2,0,2021-08-05 17:18:37,101738
-3,-1,2,0,-1,-1,0,0,2021-08-05 17:18:37,101738
1,1,-4,-4,-2,-1,1,-1,2021-08-05 17:18:37,101738
-4,-4,-7,-6,-4,-3,-3,-2,2021-08-05 17:18:37,101738
1,3,6,7,2,1,1,0,2021-08-05 17:18:37,116849
-2,-2,-4,-6,-2,1,1,0,2021-08-05 17:18:37,131738
-1,-1,0,-1,-3,-1,-2,-4,2021-08-05 17:18:37,146832
2,1,3,5,3,2,3,2,2021-08-05 17:18:37,161739
-2,0,0,-3,-3,-2,-1,-2,2021-08-05 17:18:37,161967
-2,-1,2,1,0,-2,-3,-3,2021-08-05 17:18:37,161967
-3,-7,-11,-8,-5,-5,-1,-4,2021-08-05 17:18:37,161967
-2,-3,-3,1,-1,-1,-1,-1,2021-08-05 17:18:37,161967
1,2,2,2,-1,2,0,2,2021-08-05 17:18:37,161967
1,-3,-4,-1,1,-1,0,1,2021-08-05 17:18:37,161967
0,1,3,1,1,1,-1,2,2021-08-05 17:18:37,161967
2,3,0,-2,0,-1,-1,-1,2021-08-05 17:18:37,161967
-3,-4,-2,-1,0,-3,-2,-2,2021-08-05 17:18:37,176738
1,-1,-1,1,-1,-1,-1,0,2021-08-05 17:18:37,176738
-3,-2,-2,-3,-2,-3,-2,-5,2021-08-05 17:18:37,177067
0,-2,-3,-8,-2,2,1,0,2021-08-05 17:18:37,177170
-1,-2,-1,2,1,3,3,2,2021-08-05 17:18:37,192814
-2,-1,-5,-3,-1,-1,-2,-4,2021-08-05 17:18:37,193002
0,-6,5,4,1,1,-1,1,2021-08-05 17:18:37,193113
0,13,-1,2,1,1,0,-2,2021-08-05 17:18:37,193113
-3,-3,0,-5,-5,-3,-3,-5,2021-08-05 17:18:37,223740
0,-1,-2,1,0,1,-1,1,2021-08-05 17:18:37,234713
0,-1,-3,-2,-2,0,0,0,2021-08-05 17:18:37,234713
-5,-5,4,-3,-2,-3,-2,-4,2021-08-05 17:18:37,235715
-5,-26,-11,-1,2,1,0,-1,2021-08-05 17:18:37,235715
5,17,-1,-4,0,0,1,0,2021-08-05 17:18:37,235715
3,10,6,1,-2,-1,0,-1,2021-08-05 17:18:37,235715
-3,-3,-4,-3,-3,-3,-5,-3,2021-08-05 17:18:37,235715
-1,1,0,2,2,1,1,2,2021-08-05 17:18:37,255726
-6,-11,4,0,-3,-2,-3,-3,2021-08-05 17:18:37,270727
2,-1,-5,2,4,2,3,5,2021-08-05 17:18:37,301854
1,3,8,5,-1,0,-1,0,2021-08-05 17:18:37,317808
-1,-2,-4,-5,-3,0,-1,-3,2021-08-05 17:18:37,333884
0,1,4,2,2,2,1,4,2021-08-05 17:18:37,349832
-1,3,-3,-2,-1,-2,-1,-1,2021-08-05 17:18:37,350051
1,-3,-2,1,-1,-1,0,-2,2021-08-05 17:18:37,350092
0,3,-1,-3,-2,-4,-3,-1,2021-08-05 17:18:37,350092
1,1,2,2,-1,0,1,2,2021-08-05 17:18:37,350092
-2,-3,-3,-2,-2,1,-2,-2,2021-08-05 17:18:37,350092
2,-10,7,5,2,2,3,3,2021-08-05 17:18:37,350092
-1,14,0,0,-1,-2,0,-1,2021-08-05 17:18:37,350092
-1,-3,-7,-5,-1,-2,-1,-3,2021-08-05 17:18:37,350838
1,0,15,9,2,1,1,0,2021-08-05 17:18:37,350838
1,-4,-15,-8,-2,1,-1,0,2021-08-05 17:18:37,350838
0,-2,-3,-2,-2,-2,-3,-2,2021-08-05 17:18:37,350838
-3,-3,-2,-3,-2,0,-1,-3,2021-08-05 17:18:37,350838
1,-4,-5,2,2,2,2,2,2021-08-05 17:18:37,350838
-1,5,6,2,-1,-2,-2,-3,2021-08-05 17:18:37,350838
0,-3,-4,-2,2,0,0,1,2021-08-05 17:18:37,350838
-1,-1,0,3,-2,-2,-3,-4,2021-08-05 17:18:37,350838
0,1,-6,-9,-4,-1,-1,0,2021-08-05 17:18:37,351837
-3,2,-3,-1,-1,0,1,0,2021-08-05 17:18:37,351837
-1,-1,-2,1,1,0,-2,-1,2021-08-05 17:18:37,381001
1,0,6,2,1,2,0,2,2021-08-05 17:18:37,396836
-2,-1,-5,-3,-4,-4,-3,-3,2021-08-05 17:18:37,411918
0,-2,3,5,2,-1,1,1,2021-08-05 17:18:37,411918
-1,3,-2,0,1,-1,1,-1,2021-08-05 17:18:37,411918
-1,-4,-3,-3,-5,-1,-2,-3,2021-08-05 17:18:37,411918
0,-5,-8,-3,2,1,2,0,2021-08-05 17:18:37,427924
-3,-1,4,2,-2,-1,-2,-1,2021-08-05 17:18:37,444167
-1,2,7,3,-2,-3,-1,-2,2021-08-05 17:18:37,444327
-2,-8,0,-2,0,-2,-3,-1,2021-08-05 17:18:37,444327
1,9,-3,-3,-2,-1,-1,1,2021-08-05 17:18:37,444455
2,3,2,1,-2,-2,-3,-3,2021-08-05 17:18:37,459958
0,-5,-10,-9,-1,0,1,0,2021-08-05 17:18:37,460227
-4,0,-1,-1,-2,-3,0,-3,2021-08-05 17:18:37,460318
2,11,4,3,0,0,-1,1,2021-08-05 17:18:37,460364
-3,-9,-3,2,0,0,0,0,2021-08-05 17:18:37,460495
-1,6,4,1,-2,-2,-3,-2,2021-08-05 17:18:37,460495
-1,-8,-7,-7,-3,-2,0,0,2021-08-05 17:18:37,460495
-6,-12,-5,0,-2,-1,-3,-3,2021-08-05 17:18:37,460838
3,8,-2,0,2,2,3,3,2021-08-05 17:18:37,460838
1,-5,2,2,0,1,-1,-1,2021-08-05 17:18:37,474956
0,1,0,3,2,0,1,2,2021-08-05 17:18:37,489916
-1,-1,0,-2,-1,-1,0,-1,2021-08-05 17:18:37,489916
-3,-4,-13,-14,-6,-3,-5,-7,2021-08-05 17:18:37,489916
-1,-4,4,3,1,2,1,1,2021-08-05 17:18:37,489916
0,5,-3,0,0,-1,-1,1,2021-08-05 17:18:37,489916
-2,0,2,2,-3,-2,-2,-4,2021-08-05 17:18:37,504837
-2,-5,2,4,1,-2,1,-4,2021-08-05 17:18:37,505009
3,4,-3,-6,-3,-3,1,3,2021-08-05 17:18:37,505009
1,3,-2,-1,-1,-1,-1,0,2021-08-05 17:18:37,505009
1,-5,0,-1,0,1,-1,-1,2021-08-05 17:18:37,519948
1,-5,-6,-3,2,2,2,5,2021-08-05 17:18:37,519948
-6,-5,-1,1,1,1,0,-5,2021-08-05 17:18:37,535881
-6,0,1,0,2,0,-2,-5,2021-08-05 17:18:37,550837
-2,2,2,1,-1,-1,-2,-1,2021-08-05 17:18:37,550837
0,3,1,-1,-3,-3,-4,-4,2021-08-05 17:18:37,551056
4,6,4,1,-1,-4,-3,0,2021-08-05 17:18:37,565995
3,-3,-6,-2,-4,-3,-1,3,2021-08-05 17:18:37,566203
-1,-13,0,-1,0,-3,0,0,2021-08-05 17:18:37,566357
-1,6,0,-2,-2,-1,0,-1,2021-08-05 17:18:37,566357
-6,-25,-4,-4,-2,0,-1,-2,2021-08-05 17:18:37,566357
2,19,-2,1,2,4,2,0,2021-08-05 17:18:37,566357
1,5,8,7,1,-1,-1,0,2021-08-05 17:18:37,581837
-2,-3,-2,-3,-1,1,0,0,2021-08-05 17:18:37,596975
-3,-3,-9,-9,-5,-3,-5,-5,2021-08-05 17:18:37,612049
0,-8,1,2,0,-2,0,1,2021-08-05 17:18:37,627965
-6,-5,-4,-3,-4,-2,-4,-6,2021-08-05 17:18:37,628063
5,18,3,5,5,2,2,3,2021-08-05 17:18:37,628063
-5,1,0,0,-4,-1,-3,-4,2021-08-05 17:18:37,628063
3,-3,1,0,1,0,-1,0,2021-08-05 17:18:37,628385
0,6,2,-1,-3,-1,-3,2,2021-08-05 17:18:37,628385
-4,-12,-3,-2,-1,-3,-3,-3,2021-08-05 17:18:37,628385
1,4,0,1,1,1,1,1,2021-08-05 17:18:37,628385
-3,0,1,-2,-5,-4,-4,-4,2021-08-05 17:18:37,628385
0,-5,-4,-2,1,0,2,1,2021-08-05 17:18:37,643838
-2,-5,-2,-4,-2,0,0,-1,2021-08-05 17:18:37,658904
1,6,-2,-1,0,0,0,1,2021-08-05 17:18:37,659030
-3,-10,4,0,-3,-2,-3,-3,2021-08-05 17:18:37,659196
2,5,-4,-5,1,2,2,1,2021-08-05 17:18:37,659196
1,-1,-6,-3,0,-1,-1,1,2021-08-05 17:18:37,659196
1,-4,1,3,0,1,0,0,2021-08-05 17:18:37,673977
-4,1,-4,-2,-2,-4,-2,-4,2021-08-05 17:18:37,689838
0,-2,0,0,-1,-2,0,-1,2021-08-05 17:18:37,689977
-1,0,5,1,2,0,0,1,2021-08-05 17:18:37,705965
3,1,-3,1,2,2,1,5,2021-08-05 17:18:37,720975
-2,-7,-4,-3,0,1,0,-3,2021-08-05 17:18:37,736972
-2,0,0,0,0,-2,-2,-2,2021-08-05 17:18:37,752897
-4,-3,-2,-6,-4,-3,-1,-3,2021-08-05 17:18:37,752897
-1,0,0,-1,1,-1,-1,0,2021-08-05 17:18:37,752897
-3,-6,2,0,-2,-2,-3,-1,2021-08-05 17:18:37,753159
1,12,1,0,0,0,0,0,2021-08-05 17:18:37,767541
-3,-6,-3,-6,-2,-1,-3,0,2021-08-05 17:18:37,767696
-2,4,3,1,-2,-2,-3,-3,2021-08-05 17:18:37,767837
1,0,1,-4,-2,0,-1,0,2021-08-05 17:18:37,767837
0,-7,-4,2,1,0,0,0,2021-08-05 17:18:37,767837
-4,-2,-1,2,-2,-2,-3,-4,2021-08-05 17:18:37,767837
2,1,4,4,2,1,2,1,2021-08-05 17:18:37,767837
0,3,5,3,1,0,0,1,2021-08-05 17:18:37,767837
-1,-3,-5,-4,-1,-3,-2,-3,2021-08-05 17:18:37,767837
-4,-6,-5,-4,-4,-1,-3,-5,2021-08-05 17:18:37,767837
0,8,1,0,0,1,1,-1,2021-08-05 17:18:37,767837
0,1,0,3,0,-1,2,2,2021-08-05 17:18:37,767837
-2,3,0,-1,0,-1,-2,-1,2021-08-05 17:18:37,767837
0,-6,-3,-1,0,-1,-1,-2,2021-08-05 17:18:37,767837
-4,-9,-2,-1,-1,1,0,0,2021-08-05 17:18:37,798930
-1,1,-1,-2,-1,-1,-3,-1,2021-08-05 17:18:37,798986
2,3,1,2,0,1,2,1,2021-08-05 17:18:37,798986
-3,-2,2,1,-2,-3,0,-3,2021-08-05 17:18:37,798986
-1,-3,0,1,-2,0,1,-1,2021-08-05 17:18:37,813837
2,2,-4,-2,-1,1,0,5,2021-08-05 17:18:37,828870
-1,-5,-2,-3,-1,1,0,0,2021-08-05 17:18:37,828870
4,0,1,2,0,1,-2,1,2021-08-05 17:18:37,828870
1,-17,-4,-4,-3,-3,-3,-1,2021-08-05 17:18:37,829218
2,15,1,2,0,0,1,0,2021-08-05 17:18:37,829291
-5,-6,-2,-5,-5,-3,-3,-5,2021-08-05 17:18:37,829406
2,7,3,5,4,2,2,3,2021-08-05 17:18:37,829406
-3,1,5,0,-4,-5,-6,-6,2021-08-05 17:18:37,858757
-2,-14,-7,-2,0,2,-1,2,2021-08-05 17:18:37,874603
3,8,1,1,-2,0,1,2,2021-08-05 17:18:37,876104
-2,1,-2,-2,-4,-2,-3,-3,2021-08-05 17:18:37,876104
-3,1,-7,-9,-3,-2,-2,-2,2021-08-05 17:18:37,876639
-5,-5,1,-2,-2,-1,-3,-5,2021-08-05 17:18:37,876639
-4,-4,2,4,2,-1,0,2,2021-08-05 17:18:37,876639
-1,-1,1,1,-1,-1,-2,-1,2021-08-05 17:18:37,876639
3,7,-3,2,1,1,0,2,2021-08-05 17:18:37,905716
-2,-4,-1,-4,-4,-2,-2,-3,2021-08-05 17:18:37,920713
-2,-5,-2,-2,-1,-1,-1,-3,2021-08-05 17:18:37,936679
1,0,-1,0,2,2,2,2,2021-08-05 17:18:37,936679
-1,4,3,1,0,-1,0,-1,2021-08-05 17:18:37,936679
-3,-4,-2,-2,-1,-2,-2,-3,2021-08-05 17:18:37,936679
0,0,-1,1,-1,2,0,0,2021-08-05 17:18:37,936679
0,-9,2,-3,-1,-2,0,2,2021-08-05 17:18:37,936679
-1,10,-3,-3,-3,-2,0,-2,2021-08-05 17:18:37,936679
1,-3,0,0,0,-1,0,1,2021-08-05 17:18:37,937719
0,-3,1,1,1,1,0,-1,2021-08-05 17:18:37,937719
-1,6,1,-3,-3,-1,0,0,2021-08-05 17:18:37,937719
1,-5,0,1,2,-2,0,0,2021-08-05 17:18:37,952669
-1,0,-2,-1,-1,0,0,-1,2021-08-05 17:18:37,952669
2,-2,-1,-4,-1,0,-1,1,2021-08-05 17:18:37,952669
-2,-2,0,0,0,-1,-1,-1,2021-08-05 17:18:37,952669
-2,-1,0,-1,-3,-1,0,0,2021-08-05 17:18:37,982739
-1,-14,-3,1,1,-1,-1,-1,2021-08-05 17:18:37,982739
-1,12,-2,-2,-1,-3,-2,-1,2021-08-05 17:18:37,982739
3,1,1,1,0,0,2,0,2021-08-05 17:18:37,982739
-1,-1,0,-2,-1,0,1,-1,2021-08-05 17:18:37,982739
4,-1,0,0,-1,0,1,1,2021-08-05 17:18:37,982739
-4,-9,-2,-4,-2,-2,-1,-4,2021-08-05 17:18:37,997778
-2,1,-2,-1,-1,-2,-2,-3,2021-08-05 17:18:37,997778
-3,-2,-3,0,-1,0,-1,-2,2021-08-05 17:18:38,028700
-4,-5,-1,-3,0,1,0,0,2021-08-05 17:18:38,028947
1,5,-3,-1,0,-1,-1,0,2021-08-05 17:18:38,028947
1,5,-1,1,-5,-3,-1,-3,2021-08-05 17:18:38,028947
-2,-7,-2,-2,1,0,0,0,2021-08-05 17:18:38,028947
-1,4,2,1,0,0,0,-1,2021-08-05 17:18:38,028947
-3,-5,1,-2,-3,-5,-2,-3,2021-08-05 17:18:38,044604
-4,-6,-2,-1,-1,0,-4,-1,2021-08-05 17:18:38,044604
-1,-3,-2,-2,-2,-2,-2,0,2021-08-05 17:18:38,044604
-1,-1,-5,-2,-1,-2,-1,-1,2021-08-05 17:18:38,044604
0,0,6,3,1,1,1,1,2021-08-05 17:18:38,059602
1,5,-2,-2,-1,-2,0,1,2021-08-05 17:18:38,059910
1,-1,-1,-1,1,0,0,0,2021-08-05 17:18:38,074603
-2,7,-3,-2,-1,-2,-1,-4,2021-08-05 17:18:38,090178
-2,-3,-1,0,-2,-3,-2,-1,2021-08-05 17:18:38,090352
0,-6,-1,-1,0,1,2,-1,2021-08-05 17:18:38,090352
-2,-5,2,2,0,0,-2,-1,2021-08-05 17:18:38,105672
2,3,-1,-1,2,1,0,2,2021-08-05 17:18:38,105672
-4,-23,-4,-2,-1,-2,-1,-3,2021-08-05 17:18:38,105672
1,14,-1,0,0,-1,-2,0,2021-08-05 17:18:38,106137
1,3,0,-2,-1,-2,-1,1,2021-08-05 17:18:38,106312
0,0,2,1,-1,-1,-2,-2,2021-08-05 17:18:38,106419
-4,-5,-5,-3,-3,-1,-2,-1,2021-08-05 17:18:38,121705
0,-3,0,-1,1,1,2,2,2021-08-05 17:18:38,121705
-2,-7,-1,-1,-2,0,-1,-2,2021-08-05 17:18:38,137718
1,5,2,0,-2,-1,-2,-2,2021-08-05 17:18:38,153605
1,4,-3,-4,-3,-2,-1,1,2021-08-05 17:18:38,185661
-2,-8,-7,1,1,1,-1,-2,2021-08-05 17:18:38,185661
2,8,5,2,2,1,2,4,2021-08-05 17:18:38,185661
-6,-8,-2,-2,-3,-2,-2,-3,2021-08-05 17:18:38,185661
0,-2,-3,-2,-1,1,0,1,2021-08-05 17:18:38,185661
-3,-3,0,-2,-3,-3,-1,-4,2021-08-05 17:18:38,186376
1,2,-5,-2,0,-1,1,-2,2021-08-05 17:18:38,186376
-3,-2,-2,-1,-1,-1,-2,-2,2021-08-05 17:18:38,186548
0,6,0,-1,0,1,-2,1,2021-08-05 17:18:38,186548
-2,-1,0,-2,0,-3,-1,-1,2021-08-05 17:18:38,187047
-3,-5,-1,-2,-3,-3,-3,-4,2021-08-05 17:18:38,187047
4,3,1,1,2,2,4,6,2021-08-05 17:18:38,187047
-2,-1,1,0,-1,-1,-1,-2,2021-08-05 17:18:38,198546
-2,-5,-1,-1,-3,1,0,-2,2021-08-05 17:18:38,198546
-1,-1,-3,-2,-1,0,-1,-2,2021-08-05 17:18:38,216656
-5,-3,0,-6,-5,-5,-3,-4,2021-08-05 17:18:38,232547
4,2,-1,4,5,1,3,1,2021-08-05 17:18:38,248618
3,4,-2,1,0,0,0,2,2021-08-05 17:18:38,248618
-4,-3,0,-2,-2,-3,-1,-3,2021-08-05 17:18:38,248848
-3,9,-4,-1,-1,1,-2,-2,2021-08-05 17:18:38,248848
-2,1,1,-2,-3,-1,-3,-5,2021-08-05 17:18:38,249171
3,1,0,-2,1,-1,0,2,2021-08-05 17:18:38,249171
2,4,-2,0,-1,-1,-3,0,2021-08-05 17:18:38,249171
-4,-6,-1,-2,0,-2,-2,-2,2021-08-05 17:18:38,249171
-4,-4,-5,-4,-1,-3,-1,-2,2021-08-05 17:18:38,249547
-2,-2,1,1,-1,-1,-1,-2,2021-08-05 17:18:38,249547
0,-4,-4,0,0,3,0,2,2021-08-05 17:18:38,278673
-1,-4,2,0,0,2,1,1,2021-08-05 17:18:38,294547
-1,0,-2,-2,-1,-1,0,2,2021-08-05 17:18:38,324638
0,1,1,0,-1,-3,-2,-2,2021-08-05 17:18:38,339682
0,2,1,1,2,0,2,0,2021-08-05 17:18:38,339794
-2,1,0,-2,-3,-4,-3,-5,2021-08-05 17:18:38,339794
0,-3,-5,1,3,2,1,0,2021-08-05 17:18:38,339794
-1,-2,0,-3,-3,-1,-3,-1,2021-08-05 17:18:38,339794
2,0,-2,0,2,1,0,2,2021-08-05 17:18:38,339794
-2,-2,-2,-3,-2,-1,0,-2,2021-08-05 17:18:38,339794
-1,-2,-2,-1,-2,1,0,-1,2021-08-05 17:18:38,339794
0,1,3,4,4,2,1,2,2021-08-05 17:18:38,339794
-3,0,-2,-3,-3,-3,-3,-3,2021-08-05 17:18:38,339794
0,-4,-1,2,-1,-1,-1,0,2021-08-05 17:18:38,340548
0,0,0,2,2,2,1,0,2021-08-05 17:18:38,340548
-2,2,-4,-4,-4,-2,-2,-2,2021-08-05 17:18:38,340548
0,2,1,0,-3,0,0,1,2021-08-05 17:18:38,370645
2,-2,-2,0,1,0,-1,2,2021-08-05 17:18:38,386549
1,8,3,-1,-2,-2,-1,-3,2021-08-05 17:18:38,386549
-2,-5,0,-1,-1,0,-1,-1,2021-08-05 17:18:38,386549
2,1,2,0,0,1,1,2,2021-08-05 17:18:38,386549
1,-4,-6,-2,-2,0,-1,-1,2021-08-05 17:18:38,386549
-2,-3,-2,-1,-2,-1,-1,0,2021-08-05 17:18:38,386549
-4,-4,-2,-1,1,0,1,-3,2021-08-05 17:18:38,386549
-2,1,0,-1,-1,-1,-2,0,2021-08-05 17:18:38,402596
0,-1,-1,-1,0,0,0,-1,2021-08-05 17:18:38,402596
-1,2,0,-1,-5,-3,-2,-2,2021-08-05 17:18:38,402596
1,-10,-6,0,0,1,2,1,2021-08-05 17:18:38,418664
-1,3,3,-3,-1,-1,-1,-4,2021-08-05 17:18:38,418664
0,2,-2,1,-1,-2,-1,0,2021-08-05 17:18:38,418664
1,0,1,-4,-2,-1,0,0,2021-08-05 17:18:38,419010
-5,-3,-6,-6,-6,-5,-2,-5,2021-08-05 17:18:38,419010
-3,-7,-5,1,1,0,0,0,2021-08-05 17:18:38,434546
-1,2,5,1,3,3,2,-3,2021-08-05 17:18:38,434546
-3,-2,1,1,0,0,-2,-4,2021-08-05 17:18:38,434546
1,1,3,2,-5,-3,-6,-4,2021-08-05 17:18:38,434546
1,1,1,-3,-5,-4,-3,-1,2021-08-05 17:18:38,465568
1,1,-4,-3,-4,-4,-2,0,2021-08-05 17:18:38,480640
-5,-6,-2,-3,-4,-3,-1,-1,2021-08-05 17:18:38,495517
4,5,8,6,8,6,6,5,2021-08-05 17:18:38,495517
-1,-3,-6,-3,-3,-3,0,-2,2021-08-05 17:18:38,495517
1,-2,-1,3,1,1,1,1,2021-08-05 17:18:38,495517
-2,-7,-1,-2,0,-1,-1,-1,2021-08-05 17:18:38,495517
-5,-3,-6,-3,-3,-3,-3,-3,2021-08-05 17:18:38,495517
1,-1,5,2,2,1,-1,-1,2021-08-05 17:18:38,495517
-2,-1,1,-1,-2,-3,-2,-2,2021-08-05 17:18:38,495517
0,2,0,-2,0,-1,-4,0,2021-08-05 17:18:38,495517
2,4,0,-4,-3,-1,-2,-1,2021-08-05 17:18:38,496519
-3,-4,-3,-1,-1,1,0,-2,2021-08-05 17:18:38,518517
-1,-4,-2,-1,1,1,0,1,2021-08-05 17:18:38,518517
1,3,0,0,-3,-2,-2,0,2021-08-05 17:18:38,518517
-3,-3,-2,-2,-1,-1,-2,0,2021-08-05 17:18:38,519520
0,4,-1,0,0,0,-1,0,2021-08-05 17:18:38,541569
-2,1,-3,-1,-1,-3,-2,-1,2021-08-05 17:18:38,541833
4,4,5,7,3,2,2,4,2021-08-05 17:18:38,541833
1,-3,-2,-1,-1,0,0,-1,2021-08-05 17:18:38,541833
-3,-6,-3,0,-1,-1,-2,-3,2021-08-05 17:18:38,557611
-1,-5,-5,-3,-2,-1,-3,-2,2021-08-05 17:18:38,573517
0,1,0,-4,-1,-1,-1,-1,2021-08-05 17:18:38,573517
-2,-2,1,-2,-3,-3,-1,-2,2021-08-05 17:18:38,573517
-3,0,-2,-1,1,0,-1,-2,2021-08-05 17:18:38,573517
-1,-2,-1,-1,-1,-1,1,1,2021-08-05 17:18:38,573517
-1,-3,-3,-3,-3,-3,-2,-4,2021-08-05 17:18:38,573517
1,0,0,0,3,2,0,1,2021-08-05 17:18:38,573517
-1,-2,1,1,-2,-2,-1,1,2021-08-05 17:18:38,604415
1,4,2,3,2,2,1,1,2021-08-05 17:18:38,619414
-4,-2,-1,-2,-1,0,-2,-1,2021-08-05 17:18:38,634315
-3,0,-6,-3,-5,-4,-2,-4,2021-08-05 17:18:38,634315
2,0,-3,-1,-1,-1,-1,-1,2021-08-05 17:18:38,634315
-5,-8,-5,-2,-4,-3,-3,-4,2021-08-05 17:18:38,634315
2,1,-1,2,3,2,2,3,2021-08-05 17:18:38,634315
1,0,-2,0,0,-1,0,2,2021-08-05 17:18:38,634315
-1,-1,0,2,0,-1,-1,-3,2021-08-05 17:18:38,634315
-1,4,4,-1,-2,-2,-1,-1,2021-08-05 17:18:38,634315
-2,-5,-3,1,0,-1,0,-2,2021-08-05 17:18:38,635315
-2,-3,-2,-3,-1,-1,-2,-1,2021-08-05 17:18:38,635315
2,3,0,1,0,0,0,1,2021-08-05 17:18:38,665457
1,-2,-3,-1,-1,1,-2,-2,2021-08-05 17:18:38,680377
-2,1,-3,-5,-4,-2,-2,-4,2021-08-05 17:18:38,695502
2,-1,3,1,-1,0,0,0,2021-08-05 17:18:38,695502
-1,-2,-1,-2,0,0,1,0,2021-08-05 17:18:38,695502
0,2,-1,0,-2,-1,-1,0,2021-08-05 17:18:38,695502
0,2,-3,0,-1,-1,0,-1,2021-08-05 17:18:38,695502
-2,1,-4,-2,-1,-2,-2,-3,2021-08-05 17:18:38,695502
2,-4,0,2,2,1,1,2,2021-08-05 17:18:38,695502
-1,1,-2,-4,-3,-3,-1,-3,2021-08-05 17:18:38,696378
0,3,3,0,-2,-1,0,0,2021-08-05 17:18:38,696378
-6,-3,-2,-5,-5,-4,-4,-6,2021-08-05 17:18:38,696378
-1,-2,-3,0,-1,0,-1,0,2021-08-05 17:18:38,727443
3,7,2,2,4,2,2,3,2021-08-05 17:18:38,743467
-1,-5,-4,-5,-3,-1,-4,-2,2021-08-05 17:18:38,759450
-1,1,4,2,1,1,1,3,2021-08-05 17:18:38,759547
-1,2,-4,-4,-3,-2,-2,-4,2021-08-05 17:18:38,759547
0,-5,-4,-1,-2,-1,0,2,2021-08-05 17:18:38,759547
0,-3,-2,0,1,-1,0,-1,2021-08-05 17:18:38,759547
-3,-3,-2,0,-3,-2,-2,0,2021-08-05 17:18:38,759547
-1,1,0,-1,1,0,1,0,2021-08-05 17:18:38,759547
-1,-6,0,0,0,-1,0,0,2021-08-05 17:18:38,760378
1,7,2,2,0,0,-2,-1,2021-08-05 17:18:38,760378
2,-3,-5,-1,-2,0,0,-1,2021-08-05 17:18:38,775377
-1,0,2,0,-3,-2,-4,-3,2021-08-05 17:18:38,775377
1,3,5,-4,-1,-1,0,0,2021-08-05 17:18:38,775377
-2,-14,-6,2,3,1,2,0,2021-08-05 17:18:38,775377
2,-4,-3,-1,-2,-1,-1,-1,2021-08-05 17:18:38,775377
-3,1,-1,-3,-1,-1,-2,-2,2021-08-05 17:18:38,791474
1,1,2,1,1,1,-1,0,2021-08-05 17:18:38,791474
-2,3,5,-3,-3,-2,-1,-2,2021-08-05 17:18:38,822516
-1,0,-1,-1,0,-1,-1,-1,2021-08-05 17:18:38,822516
0,0,-1,-1,-1,0,-1,0,2021-08-05 17:18:38,822516
-3,-2,-5,-1,-3,-3,-2,-5,2021-08-05 17:18:38,822516
1,8,6,-1,0,0,2,4,2021-08-05 17:18:38,822516
2,-2,-3,2,3,0,0,0,2021-08-05 17:18:38,822516
-2,-2,-3,-5,-3,-1,-1,-1,2021-08-05 17:18:38,837462
-2,-1,3,1,-1,0,-1,-1,2021-08-05 17:18:38,837462
-2,-5,-5,-5,-4,-2,-3,-2,2021-08-05 17:18:38,837462
1,-10,1,-3,1,-1,1,1,2021-08-05 17:18:38,837462
-1,7,4,1,-2,-2,-1,0,2021-08-05 17:18:38,847515
-1,-10,-14,-2,-3,-2,-5,-3,2021-08-05 17:18:38,847515
2,5,5,3,3,2,0,3,2021-08-05 17:18:38,868516
-3,0,0,-2,-3,-2,0,0,2021-08-05 17:18:38,868516
-2,-5,-2,-2,1,-3,-1,-1,2021-08-05 17:18:38,884516
-5,-10,-5,-6,-3,-2,0,-3,2021-08-05 17:18:38,884516
-3,-3,-9,0,1,0,-1,-2,2021-08-05 17:18:38,884516
1,7,4,0,-2,-1,-3,-1,2021-08-05 17:18:38,884516
-3,0,3,-1,-6,-3,-3,-3,2021-08-05 17:18:38,900462
2,0,-3,-1,-1,1,2,2,2021-08-05 17:18:38,900462
0,-4,-2,-1,0,0,0,1,2021-08-05 17:18:38,900462
-3,2,1,3,1,0,0,-2,2021-08-05 17:18:38,900462
0,1,-4,-2,-4,-1,-2,-1,2021-08-05 17:18:38,915555
0,3,1,1,-1,-1,-2,1,2021-08-05 17:18:38,930588
-1,-4,-4,-1,-1,0,-1,0,2021-08-05 17:18:38,930611
-3,9,15,1,-1,-1,-1,-1,2021-08-05 17:18:38,930828
2,9,-12,1,1,0,0,3,2021-08-05 17:18:38,930828
-2,-12,-2,-7,0,-1,-1,-3,2021-08-05 17:18:38,931030
-1,-1,-4,-2,-1,0,-1,-3,2021-08-05 17:18:38,931030
2,1,-1,1,0,1,1,0,2021-08-05 17:18:38,931030
0,-2,5,0,0,1,0,1,2021-08-05 17:18:38,962529
1,7,0,3,0,2,0,3,2021-08-05 17:18:38,962529
-3,-6,-2,4,-2,-2,-2,-3,2021-08-05 17:18:38,962529
-1,5,2,-2,-2,-2,-1,-2,2021-08-05 17:18:38,962529
-1,-4,-2,-2,0,-2,0,0,2021-08-05 17:18:38,978462
0,3,-1,-1,-1,-3,-1,-2,2021-08-05 17:18:38,978462
-6,-5,0,-3,-2,-3,-4,-5,2021-08-05 17:18:38,978462
7,5,1,6,4,4,3,8,2021-08-05 17:18:38,978462
-2,-2,-2,-3,-3,-2,0,-2,2021-08-05 17:18:38,994463
-1,-3,-4,-1,0,-1,-2,-1,2021-08-05 17:18:38,994463
-1,-2,0,0,-1,-1,0,-1,2021-08-05 17:18:38,994463
-6,-8,-8,-2,-3,-2,-2,-4,2021-08-05 17:18:38,994463
0,-1,2,2,-1,-1,-1,-2,2021-08-05 17:18:39,025611
3,2,-2,0,1,2,1,0,2021-08-05 17:18:39,025731
2,7,3,-4,-4,-3,-1,-3,2021-08-05 17:18:39,025804
-1,-5,-7,-2,1,-2,-2,-2,2021-08-05 17:18:39,025947
0,-4,1,-1,-1,-2,0,0,2021-08-05 17:18:39,026074
-3,11,4,3,-2,-2,-1,-1,2021-08-05 17:18:39,026150
0,-10,-6,0,2,0,-1,4,2021-08-05 17:18:39,041622
1,4,-1,-2,0,-2,-1,0,2021-08-05 17:18:39,041756
-3,-7,-4,-6,-2,-3,-1,-4,2021-08-05 17:18:39,057463
0,6,3,4,0,1,-1,0,2021-08-05 17:18:39,072200
0,-1,0,1,1,0,0,0,2021-08-05 17:18:39,087512
-1,5,7,-4,-2,-2,-2,0,2021-08-05 17:18:39,087741
1,-14,-20,1,3,1,0,0,2021-08-05 17:18:39,087741
-2,-3,-3,-3,-2,-3,-2,-2,2021-08-05 17:18:39,087741
-2,3,6,-4,-3,-2,0,-3,2021-08-05 17:18:39,087741
-2,-4,-3,0,-1,-1,-1,-3,2021-08-05 17:18:39,087741
-1,6,8,1,-1,0,-1,-1,2021-08-05 17:18:39,087741
0,-3,-5,-3,-1,2,1,-1,2021-08-05 17:18:39,087741
1,-4,-3,1,-1,-1,-1,2,2021-08-05 17:18:39,103531
-3,-2,-4,-2,-2,-3,-2,-3,2021-08-05 17:18:39,103531
2,7,10,0,2,3,1,0,2021-08-05 17:18:39,119680
-3,-10,-5,0,-3,-4,-1,-3,2021-08-05 17:18:39,119680
1,-2,6,1,2,2,1,1,2021-08-05 17:18:39,119817
4,2,-9,-2,1,3,1,1,2021-08-05 17:18:39,119907
-1,1,1,-2,-5,-1,-1,-1,2021-08-05 17:18:39,150580
1,3,3,-3,0,-1,1,1,2021-08-05 17:18:39,162531
-3,4,-3,-4,-3,-1,-1,0,2021-08-05 17:18:39,162531
-3,-11,-4,0,-1,0,0,-2,2021-08-05 17:18:39,162531
0,8,-1,-1,-2,-2,-2,-2,2021-08-05 17:18:39,162531
3,-13,3,2,2,1,1,5,2021-08-05 17:18:39,162531
-2,2,-6,-4,-4,-3,-4,-3,2021-08-05 17:18:39,162531
-1,2,1,-2,0,-1,-2,-2,2021-08-05 17:18:39,162531
-4,1,-1,-3,-2,-2,1,-1,2021-08-05 17:18:39,182627
-3,2,-1,-3,-3,-3,-2,-3,2021-08-05 17:18:39,197530
-2,7,3,0,2,0,0,-1,2021-08-05 17:18:39,213674
0,-11,-8,2,-1,0,1,2,2021-08-05 17:18:39,213674
0,-6,-5,-1,0,-1,-3,-1,2021-08-05 17:18:39,213674
-4,-4,5,1,0,0,-2,-1,2021-08-05 17:18:39,213912
-1,1,-8,-3,-3,-2,-1,-1,2021-08-05 17:18:39,213912
2,-2,3,0,1,0,2,2,2021-08-05 17:18:39,213912
3,1,5,0,1,0,-1,0,2021-08-05 17:18:39,213912
-4,-3,-11,-3,-2,-1,-2,-1,2021-08-05 17:18:39,213912
1,3,3,0,2,0,0,-1,2021-08-05 17:18:39,229531
-2,0,3,1,-2,0,-2,-3,2021-08-05 17:18:39,229810
-4,-5,-1,-4,-2,-2,-2,-1,2021-08-05 17:18:39,229810
-1,1,-8,-5,-3,-3,-1,-4,2021-08-05 17:18:39,229810
3,-2,4,4,2,3,0,2,2021-08-05 17:18:39,245530
-1,4,0,2,0,0,-2,0,2021-08-05 17:18:39,260530
-2,-3,3,2,2,1,1,0,2021-08-05 17:18:39,260530
1,3,2,-2,-1,-2,0,-2,2021-08-05 17:18:39,260530
-2,-9,-7,-4,-1,-2,-1,-1,2021-08-05 17:18:39,260530
0,1,1,-1,1,2,0,-1,2021-08-05 17:18:39,260530
-1,-4,1,0,0,2,0,-2,2021-08-05 17:18:39,291532
-3,18,4,3,2,0,1,-2,2021-08-05 17:18:39,306589
-2,-20,-2,-2,-3,-4,-4,-6,2021-08-05 17:18:39,306589
5,0,-2,3,3,0,-1,5,2021-08-05 17:18:39,306589
1,10,4,-3,-7,-6,-5,-2,2021-08-05 17:18:39,306589
2,-3,-10,-3,-1,-1,0,1,2021-08-05 17:18:39,306589
-1,6,3,-1,-1,0,-1,-1,2021-08-05 17:18:39,306589
-4,-14,-1,-3,-4,-2,0,-1,2021-08-05 17:18:39,306589
-2,-4,-3,1,3,2,1,0,2021-08-05 17:18:39,321666
1,-2,4,1,-1,0,2,2,2021-08-05 17:18:39,337531
-2,2,-9,-4,-3,-3,-1,-2,2021-08-05 17:18:39,353713
-2,-4,-4,-4,-3,-2,-2,0,2021-08-05 17:18:39,353760
-1,-2,-10,-4,-1,-1,-1,-3,2021-08-05 17:18:39,353886
2,-1,12,1,0,-1,-1,0,2021-08-05 17:18:39,353957
2,11,5,5,4,2,1,4,2021-08-05 17:18:39,354021
-2,-6,-9,-2,-3,-2,-2,-4,2021-08-05 17:18:39,354090
0,3,2,4,5,5,3,2,2021-08-05 17:18:39,354148
-2,-5,-8,-6,-2,-2,-6,-4,2021-08-05 17:18:39,354207
-1,-1,4,0,-2,-1,0,1,2021-08-05 17:18:39,369612
0,7,3,-1,-1,-1,-2,-3,2021-08-05 17:18:39,369612
-1,-8,-5,-2,-2,-3,-1,-1,2021-08-05 17:18:39,385625
-1,1,2,3,-1,0,-1,-3,2021-08-05 17:18:39,385625
2,8,11,-2,-1,1,1,2,2021-08-05 17:18:39,385625
-4,-17,-15,0,-2,-2,-1,-3,2021-08-05 17:18:39,385625
-2,1,-1,1,-1,-1,-1,-1,2021-08-05 17:18:39,400668
-1,-4,0,-1,-2,-2,-2,-2,2021-08-05 17:18:39,400802
0,-24,5,2,-1,-1,-2,1,2021-08-05 17:18:39,400972
-3,1,-10,-4,-3,-1,-2,0,2021-08-05 17:18:39,401069
1,13,0,-5,-2,-1,-2,-1,2021-08-05 17:18:39,416557
-1,-8,-3,0,0,0,1,-1,2021-08-05 17:18:39,416557
-1,9,1,0,1,1,-1,-1,2021-08-05 17:18:39,431561
-1,6,4,-2,0,-1,-1,-4,2021-08-05 17:18:39,431670
2,-7,-5,3,1,1,1,3,2021-08-05 17:18:39,431760
-2,4,0,-4,-2,-1,-1,-2,2021-08-05 17:18:39,431760
-3,0,-6,-4,-2,-4,-1,-4,2021-08-05 17:18:39,446672
3,5,7,7,4,2,3,5,2021-08-05 17:18:39,446808
-3,-4,-4,-3,-4,-2,-4,-5,2021-08-05 17:18:39,461531
0,1,4,0,0,-2,-2,0,2021-08-05 17:18:39,461531
0,8,2,1,-1,1,-1,-1,2021-08-05 17:18:39,461531
-2,-9,-8,-3,-4,-2,-2,-4,2021-08-05 17:18:39,461531
-2,0,4,0,1,-1,0,-1,2021-08-05 17:18:39,476632
1,-10,3,1,0,1,-1,0,2021-08-05 17:18:39,478534
-1,-9,-5,1,-1,0,0,-1,2021-08-05 17:18:39,478534
0,6,-2,-5,-2,-2,-2,-2,2021-08-05 17:18:39,479531
-1,1,1,-4,-6,-4,-3,-2,2021-08-05 17:18:39,507641
-1,-3,-1,1,1,1,1,0,2021-08-05 17:18:39,538647
1,3,-6,-2,2,-1,1,3,2021-08-05 17:18:39,554530
-3,-3,-2,-2,-3,-3,-3,-3,2021-08-05 17:18:39,554726
-2,-5,2,0,-1,1,0,2,2021-08-05 17:18:39,554726
0,6,1,-1,-3,-2,-1,-2,2021-08-05 17:18:39,554726
2,1,3,-1,-2,0,-1,-3,2021-08-05 17:18:39,554726
-2,5,-1,0,0,0,-2,2,2021-08-05 17:18:39,554726
-3,-9,-5,-3,-2,-3,0,-2,2021-08-05 17:18:39,555398
-2,4,-1,-1,-1,-2,-1,0,2021-08-05 17:18:39,555570
-1,1,-5,-1,-3,-2,-1,-2,2021-08-05 17:18:39,569622
2,-11,5,3,1,0,1,4,2021-08-05 17:18:39,569622
-3,1,-2,-3,-1,0,-2,-2,2021-08-05 17:18:39,569622
3,22,3,1,1,1,1,1,2021-08-05 17:18:39,569622
-5,-7,-10,-3,-3,-1,0,-2,2021-08-05 17:18:39,569622
-2,-8,4,-5,-2,-2,-1,0,2021-08-05 17:18:39,570224
0,-5,1,1,-1,-1,-1,-3,2021-08-05 17:18:39,600643
2,16,-1,-2,1,0,0,1,2021-08-05 17:18:39,616530
2,21,6,5,3,2,1,1,2021-08-05 17:18:39,632661
1,-7,13,0,-1,-2,0,-1,2021-08-05 17:18:39,632661
3,-12,-22,2,2,2,1,4,2021-08-05 17:18:39,632661
-4,-15,-8,-5,-5,-4,-2,-1,2021-08-05 17:18:39,632661
0,6,5,-2,0,-2,-2,-4,2021-08-05 17:18:39,632661
-2,3,3,-2,-4,-3,-5,-3,2021-08-05 17:18:39,632661
-2,10,13,1,-1,-2,-2,-1,2021-08-05 17:18:39,633533
-2,-12,-8,2,-3,-1,0,-2,2021-08-05 17:18:39,633533
2,-10,-13,0,0,1,0,2,2021-08-05 17:18:39,633533
-5,9,0,-7,-3,-2,-1,-5,2021-08-05 17:18:39,633533
-2,-4,-3,-4,0,-3,-3,-3,2021-08-05 17:18:39,647644
0,4,3,1,2,-1,-1,1,2021-08-05 17:18:39,647826
-1,-17,3,1,1,0,0,-1,2021-08-05 17:18:39,647879
-1,3,-6,-1,-2,-2,0,-3,2021-08-05 17:18:39,647879
2,10,4,0,0,1,2,1,2021-08-05 17:18:39,662592
-1,-12,-8,-2,-1,0,1,0,2021-08-05 17:18:39,678648
-1,3,2,0,-3,-1,-2,-2,2021-08-05 17:18:39,678775
0,38,4,0,-1,1,-2,-1,2021-08-05 17:18:39,678883
-5,-35,-3,0,-3,-1,-1,0,2021-08-05 17:18:39,679047
1,-7,7,4,2,2,-1,1,2021-08-05 17:18:39,679047
-2,2,-6,-9,-6,-3,-4,-6,2021-08-05 17:18:39,679047
3,-14,-14,1,2,2,1,0,2021-08-05 17:18:39,679047
1,33,16,-1,0,-1,-3,-5,2021-08-05 17:18:39,710647
-3,0,2,1,-1,-1,0,-2,2021-08-05 17:18:39,710647
-2,-22,-21,-2,2,1,2,3,2021-08-05 17:18:39,710812
-1,10,11,0,-3,-1,0,0,2021-08-05 17:18:39,710812
0,-2,-13,-1,-2,-2,0,-1,2021-08-05 17:18:39,710812
-3,-17,7,-5,-4,-2,-2,-5,2021-08-05 17:18:39,710812
-1,5,4,-4,-3,-2,-3,-2,2021-08-05 17:18:39,725604
-1,-1,-3,0,0,0,2,2,2021-08-05 17:18:39,725604
2,-4,2,3,5,3,1,3,2021-08-05 17:18:39,741629
-1,3,3,3,-1,0,1,0,2021-08-05 17:18:39,757641
-3,5,-4,0,-3,-4,-1,-1,2021-08-05 17:18:39,773250
-5,-18,-7,-6,-2,-2,-2,-1,2021-08-05 17:18:39,773250
0,2,4,0,0,0,-1,-4,2021-08-05 17:18:39,773532
6,47,22,6,4,4,4,6,2021-08-05 17:18:39,773532
-1,-32,-15,1,-2,0,1,2,2021-08-05 17:18:39,773801
-4,-34,-21,-5,2,-1,-1,-4,2021-08-05 17:18:39,773801
-3,-1,-5,-10,-9,-3,-5,-7,2021-08-05 17:18:39,773801
2,14,-7,-5,-4,-1,-1,-1,2021-08-05 17:18:39,773801
2,17,16,3,0,-1,0,1,2021-08-05 17:18:39,788430
3,10,14,7,2,2,2,-1,2021-08-05 17:18:39,788532
3,-24,0,8,5,3,3,4,2021-08-05 17:18:39,801531
-4,-12,-11,-3,-2,-3,-3,-1,2021-08-05 17:18:39,801531
1,18,8,-4,-4,-3,-4,-4,2021-08-05 17:18:39,802626
-1,-6,13,1,-1,-2,0,0,2021-08-05 17:18:39,802791
-4,-2,-22,-2,1,0,2,0,2021-08-05 17:18:39,819575
-1,-5,-8,-1,1,-1,-1,-3,2021-08-05 17:18:39,819575
1,-18,-6,-2,-1,-2,1,0,2021-08-05 17:18:39,819575
-3,19,1,-5,-3,-1,-4,-4,2021-08-05 17:18:39,819575
-4,7,9,-2,-3,-3,-2,-2,2021-08-05 17:18:39,835530
1,-16,-2,1,2,1,0,1,2021-08-05 17:18:39,835732
-2,11,-4,2,1,0,-1,0,2021-08-05 17:18:39,850609
2,-1,2,1,0,-2,1,0,2021-08-05 17:18:39,866668
4,26,3,-1,-2,-2,-1,2,2021-08-05 17:18:39,882639
-3,14,11,-1,-3,-2,-3,-2,2021-08-05 17:18:39,882639
-3,-55,-21,-2,2,3,0,-1,2021-08-05 17:18:39,882639
0,0,1,-1,-2,0,0,1,2021-08-05 17:18:39,882639
0,20,2,-3,-2,-3,-3,-3,2021-08-05 17:18:39,882639
-2,-11,-5,-3,-3,-2,-1,-3,2021-08-05 17:18:39,882639
1,19,49,6,2,1,1,2,2021-08-05 17:18:39,882639
-4,-2,-44,0,1,-1,0,1,2021-08-05 17:18:39,882639
3,-39,-12,-4,-1,1,0,0,2021-08-05 17:18:39,898582
-3,-4,-7,-9,-5,-3,-4,-5,2021-08-05 17:18:39,898582
-5,4,4,-3,-4,-2,-2,-2,2021-08-05 17:18:39,898582
1,2,12,2,0,1,-2,0,2021-08-05 17:18:39,898582
1,9,10,4,0,-1,0,1,2021-08-05 17:18:39,930732
2,-1,-7,0,2,-1,0,3,2021-08-05 17:18:39,930732
-2,-2,-7,-1,0,-1,-1,-3,2021-08-05 17:18:39,930732
1,8,12,0,-2,0,0,0,2021-08-05 17:18:39,930732
1,4,3,2,0,0,1,3,2021-08-05 17:18:39,946710
-2,-5,-7,-2,-1,2,1,1,2021-08-05 17:18:39,961584
-4,-7,-16,-7,-4,-4,-3,-6,2021-08-05 17:18:39,961584
1,-5,0,-1,-2,-1,-2,-1,2021-08-05 17:18:39,961584
-3,-4,5,1,1,1,-3,-1,2021-08-05 17:18:39,962014
-2,2,0,0,2,1,-2,-3,2021-08-05 17:18:39,962014
3,1,6,1,3,2,1,3,2021-08-05 17:18:39,976636
0,-2,-8,-1,-1,0,1,1,2021-08-05 17:18:39,976636
-3,17,7,-3,-5,-4,-2,-3,2021-08-05 17:18:39,976636
1,-41,-7,7,3,1,1,0,2021-08-05 17:18:39,976636
0,35,1,-3,-5,-4,-2,-1,2021-08-05 17:18:39,976636
0,-6,-1,1,-1,0,-2,-1,2021-08-05 17:18:39,976636
-1,-43,-23,-6,2,1,1,0,2021-08-05 17:18:40,008662
-2,22,15,-2,-5,-4,-4,-5,2021-08-05 17:18:40,008662
0,-1,-9,-1,-2,-1,-1,-2,2021-08-05 17:18:40,008662
-1,12,9,1,1,0,0,3,2021-08-05 17:18:40,008662
-2,3,0,-3,-4,-2,-3,0,2021-08-05 17:18:40,008662
-4,-15,-13,-3,-1,-1,-3,-4,2021-08-05 17:18:40,008662
5,-2,6,8,4,4,3,5,2021-08-05 17:18:40,023669
-1,16,11,-1,-4,-4,-3,-3,2021-08-05 17:18:40,038646
-1,-2,-11,0,-1,-1,0,-1,2021-08-05 17:18:40,054609
-1,27,3,-1,0,-1,1,-1,2021-08-05 17:18:40,054769
-3,-49,-7,-6,-4,-2,-3,0,2021-08-05 17:18:40,054769
-1,-1,-2,3,4,3,0,1,2021-08-05 17:18:40,054769
0,5,-1,-2,-4,-2,-3,-3,2021-08-05 17:18:40,085654
2,1,7,-1,-1,-1,0,2,2021-08-05 17:18:40,085654
-3,14,-4,-8,-3,-2,-2,-2,2021-08-05 17:18:40,085654
2,-10,-1,3,2,1,1,-2,2021-08-05 17:18:40,085654
4,41,13,-1,-1,0,-1,1,2021-08-05 17:18:40,085654
0,-40,-5,1,0,0,0,0,2021-08-05 17:18:40,085654
-2,-11,-39,-6,-1,0,0,-2,2021-08-05 17:18:40,117737
-8,12,7,-11,-7,-7,-6,-8,2021-08-05 17:18:40,125609
-3,-17,2,2,1,0,1,1,2021-08-05 17:18:40,125609
-1,16,12,-1,-1,-2,0,2,2021-08-05 17:18:40,126613
3,18,18,9,4,2,1,0,2021-08-05 17:18:40,133662
0,5,-14,3,3,3,0,2,2021-08-05 17:18:40,148610
2,-20,-6,-1,2,2,2,0,2021-08-05 17:18:40,163667
-4,-4,-5,-5,-4,-5,-3,-5,2021-08-05 17:18:40,163729
3,58,21,4,2,-1,1,3,2021-08-05 17:18:40,163729
-1,-52,-15,1,0,-1,-2,-2,2021-08-05 17:18:40,163729
0,10,0,3,1,0,1,3,2021-08-05 17:18:40,163729
-1,-20,-8,-2,-2,0,1,2,2021-08-05 17:18:40,163729
-1,20,-4,-5,-1,-2,-1,-3,2021-08-05 17:18:40,163729
2,5,25,0,0,-2,0,-2,2021-08-05 17:18:40,163729
-2,-11,9,7,6,2,2,-1,2021-08-05 17:18:40,163729
-4,-18,-35,-4,-2,0,-2,-5,2021-08-05 17:18:40,163729
-3,-52,-21,-2,-1,-2,-3,-4,2021-08-05 17:18:40,163729
-2,37,10,-5,-8,-7,-6,-6,2021-08-05 17:18:40,163729
2,-21,-6,-2,-4,-4,-3,-1,2021-08-05 17:18:40,179727
4,50,23,3,1,0,2,4,2021-08-05 17:18:40,179856
0,-3,3,2,2,4,4,4,2021-08-05 17:18:40,179995
-1,-36,-17,-3,-1,0,1,1,2021-08-05 17:18:40,194678
-2,28,0,-5,-3,-2,-2,-2,2021-08-05 17:18:40,209609
2,-3,4,-1,0,1,1,1,2021-08-05 17:18:40,225609
-5,-6,9,-1,-1,0,-1,-1,2021-08-05 17:18:40,240779
0,18,-21,-4,0,1,0,1,2021-08-05 17:18:40,240779
-3,-27,8,2,0,1,0,-1,2021-08-05 17:18:40,240779
1,-3,-7,-1,-2,-2,-3,-2,2021-08-05 17:18:40,240779
-1,-15,0,0,1,-1,0,-1,2021-08-05 17:18:40,240779
0,15,8,1,-1,-1,-2,1,2021-08-05 17:18:40,240779
-3,5,-9,-5,-5,-5,-5,-6,2021-08-05 17:18:40,240779
-4,-18,-8,0,1,0,0,-2,2021-08-05 17:18:40,240779
2,33,19,3,-3,-2,-1,1,2021-08-05 17:18:40,241611
-2,-22,-9,0,0,0,0,-1,2021-08-05 17:18:40,241611
3,1,-5,1,2,3,2,1,2021-08-05 17:18:40,272848
-2,-3,4,-6,-9,-6,-6,-6,2021-08-05 17:18:40,273009
1,38,3,2,2,0,0,1,2021-08-05 17:18:40,287723
1,-41,0,4,7,4,3,3,2021-08-05 17:18:40,287723
-6,1,18,0,-3,-3,-2,-3,2021-08-05 17:18:40,287723
4,3,-31,1,2,2,2,4,2021-08-05 17:18:40,287723
-2,-11,-6,-8,-5,-5,-5,-3,2021-08-05 17:18:40,287723
0,3,5,-2,-3,-4,-1,-2,2021-08-05 17:18:40,287723
0,8,5,0,0,0,0,0,2021-08-05 17:18:40,303696
2,59,23,2,2,0,1,2,2021-08-05 17:18:40,303696
-3,-81,-24,-1,0,-1,-2,-2,2021-08-05 17:18:40,303878
1,1,-9,-3,-1,0,0,0,2021-08-05 17:18:40,303878
-1,10,1,-3,-4,-2,0,0,2021-08-05 17:18:40,333609
1,84,25,1,1,0,-1,0,2021-08-05 17:18:40,349610
3,-40,29,12,7,5,6,7,2021-08-05 17:18:40,364792
-4,-38,-54,-9,-4,-2,-2,-2,2021-08-05 17:18:40,365063
0,-1,-20,-10,-6,-3,-4,-5,2021-08-05 17:18:40,365063
-3,-19,0,-4,-1,-3,-3,-3,2021-08-05 17:18:40,365063
-4,39,7,-5,-6,-4,-6,-8,2021-08-05 17:18:40,365370
6,12,27,7,6,5,4,10,2021-08-05 17:18:40,365533
2,-5,-8,4,4,1,1,2,2021-08-05 17:18:40,365649
-4,-34,-11,-5,-4,-4,0,-3,2021-08-05 17:18:40,365763
-4,11,2,-4,-4,-4,-4,-5,2021-08-05 17:18:40,365763
4,1,-4,2,0,2,1,2,2021-08-05 17:18:40,365763
-2,23,17,1,-1,-3,-2,-3,2021-08-05 17:18:40,395742
4,21,16,9,7,5,3,5,2021-08-05 17:18:40,410858
-9,-86,-56,-9,-6,-3,-4,-6,2021-08-05 17:18:40,410858
1,30,4,-5,-7,-2,-2,-2,2021-08-05 17:18:40,410858
-1,-3,5,1,0,0,-1,-1,2021-08-05 17:18:40,410858
-4,-5,12,1,-1,0,-3,-2,2021-08-05 17:18:40,410858
4,86,22,2,3,1,2,4,2021-08-05 17:18:40,410858
-2,-36,5,2,0,-3,-2,-5,2021-08-05 17:18:40,410858
1,-42,-41,-4,0,1,2,4,2021-08-05 17:18:40,426882
-3,-21,0,-4,-4,-3,-2,-3,2021-08-05 17:18:40,427084
3,56,5,2,2,1,1,1,2021-08-05 17:18:40,427208
-1,-8,26,2,-2,-3,-4,-3,2021-08-05 17:18:40,427298
-1,25,8,-2,-1,2,0,-2,2021-08-05 17:18:40,441744
-1,-52,-41,-2,-3,0,1,-2,2021-08-05 17:18:40,457653
-2,9,9,-2,-4,-2,-1,0,2021-08-05 17:18:40,459578
2,41,19,7,7,5,4,3,2021-08-05 17:18:40,459578
-1,-29,-2,4,1,1,0,-1,2021-08-05 17:18:40,459578
-5,23,2,-6,-5,-3,-2,-1,2021-08-05 17:18:40,459578
-4,-57,-22,-8,-6,-4,-3,-6,2021-08-05 17:18:40,459578
-1,5,6,2,2,0,1,2,2021-08-05 17:18:40,460580
0,8,-6,-2,-2,-3,-4,-2,2021-08-05 17:18:40,488095
1,0,1,4,3,0,-1,0,2021-08-05 17:18:40,503726
0,14,12,1,1,1,0,0,2021-08-05 17:18:40,503726
-2,14,-6,-4,-4,-2,-2,-1,2021-08-05 17:18:40,503726
2,-20,-5,-2,-1,0,2,5,2021-08-05 17:18:40,503726
-1,-16,-7,-4,-2,-2,-2,-5,2021-08-05 17:18:40,503726
-1,10,8,-1,-4,-2,-2,-2,2021-08-05 17:18:40,503726
-2,-31,-7,-2,0,0,-1,1,2021-08-05 17:18:40,503726
4,18,4,6,3,4,2,0,2021-08-05 17:18:40,519645
-3,-9,-9,-8,-4,-5,-4,-4,2021-08-05 17:18:40,519645
2,-10,3,7,6,4,2,3,2021-08-05 17:18:40,519952
-3,12,-12,-7,-5,-5,-3,-6,2021-08-05 17:18:40,520073
2,7,9,-1,-1,0,0,2,2021-08-05 17:18:40,551578
-1,-21,0,0,3,2,1,1,2021-08-05 17:18:40,567673
-1,-5,-19,-3,1,1,1,2,2021-08-05 17:18:40,583578
-1,19,21,3,-3,-3,-1,-3,2021-08-05 17:18:40,583578
-3,-7,-5,1,0,1,2,0,2021-08-05 17:18:40,583578
0,-16,-15,-5,-4,-2,-4,0,2021-08-05 17:18:40,583578
-4,6,10,-9,-11,-8,-6,-6,2021-08-05 17:18:40,583578
2,5,-7,6,6,4,3,3,2021-08-05 17:18:40,583578
-4,-8,10,-4,-3,-5,-3,-4,2021-08-05 17:18:40,583578
3,1,1,8,5,5,5,6,2021-08-05 17:18:40,583578
-2,-16,-12,-2,-3,-3,-3,-3,2021-08-05 17:18:40,584580
-2,13,-6,-9,-9,-7,-7,-8,2021-08-05 17:18:40,584580
0,5,8,1,0,0,-1,0,2021-08-05 17:18:40,598578
-1,-20,1,4,0,0,0,-1,2021-08-05 17:18:40,598578
-2,-16,-18,-3,-2,0,-2,-2,2021-08-05 17:18:40,598578
-1,-7,2,2,0,-2,-1,0,2021-08-05 17:18:40,598578
-1,22,0,-2,-1,-3,-3,-4,2021-08-05 17:18:40,630669
0,15,20,3,0,-1,2,2,2021-08-05 17:18:40,630669
0,-19,-5,-1,-2,-2,2,1,2021-08-05 17:18:40,630963
