EMG 1,EMG 2,EMG 3,EMG 4,EMG 5,EMG 6,EMG 7,EMG 8,Timestamp
-1,-4,-7,-12,-18,-8,-5,-3,2021-08-07 12:07:19.449267
-2,-3,-2,2,10,4,-2,-1,2021-08-07 12:07:19.449267
1,1,1,6,9,5,3,2,2021-08-07 12:07:19.449267
1,-1,0,1,1,1,1,1,2021-08-07 12:07:19.450269
-2,-2,0,2,0,-1,-1,-1,2021-08-07 12:07:19.451266
-8,-11,-17,-35,-37,-22,-10,-9,2021-08-07 12:07:19.451266
8,10,16,32,28,16,8,6,2021-08-07 12:07:19.452268
3,2,4,4,4,2,1,1,2021-08-07 12:07:19.452268
0,-3,-4,-6,-1,-2,0,0,2021-08-07 12:07:19.461266
0,0,2,3,0,0,0,-2,2021-08-07 12:07:19.461266
-6,-5,-7,-17,-14,-9,-7,-5,2021-08-07 12:07:19.465268
-1,-1,-3,-4,-2,-2,-1,-2,2021-08-07 12:07:19.465268
0,-1,3,5,4,3,-2,0,2021-08-07 12:07:19.480291
-1,1,0,1,2,1,0,1,2021-08-07 12:07:19.480291
1,0,-2,-4,-5,-2,-1,-1,2021-08-07 12:07:19.496308
1,1,1,2,-1,2,0,2,2021-08-07 12:07:19.497271
-5,-2,-4,-5,0,-1,-2,-2,2021-08-07 12:07:19.498269
0,-1,-1,0,6,4,0,1,2021-08-07 12:07:19.498269
2,3,3,5,4,2,1,2,2021-08-07 12:07:19.520268
-1,1,0,0,-3,-2,-1,-1,2021-08-07 12:07:19.520268
-3,-1,0,1,-1,-2,-1,-1,2021-08-07 12:07:19.523304
1,1,1,0,0,0,1,0,2021-08-07 12:07:19.523304
-2,-3,-8,-13,-10,-6,-4,-3,2021-08-07 12:07:19.540267
1,2,5,2,3,2,0,-1,2021-08-07 12:07:19.540267
1,2,1,-1,0,1,2,0,2021-08-07 12:07:19.574268
1,2,2,1,0,1,1,0,2021-08-07 12:07:19.574268
-2,-1,-3,-2,-1,0,-1,-1,2021-08-07 12:07:19.574268
-2,-3,-2,-2,-2,-1,-2,-2,2021-08-07 12:07:19.575270
-1,-2,-3,-2,-1,0,-1,-2,2021-08-07 12:07:19.587268
0,0,1,-1,1,0,1,2,2021-08-07 12:07:19.587268
0,1,0,-1,-1,1,0,-2,2021-08-07 12:07:19.588267
-2,-3,-2,-4,-2,-2,-1,-2,2021-08-07 12:07:19.589268
0,0,-1,-1,0,-1,-1,-1,2021-08-07 12:07:19.589268
-1,0,0,2,2,1,0,-1,2021-08-07 12:07:19.590267
-1,-1,-2,-6,-6,-4,0,-1,2021-08-07 12:07:19.609267
-3,-4,-8,-14,-12,-7,-5,-3,2021-08-07 12:07:19.610267
3,5,11,18,19,12,6,4,2021-08-07 12:07:19.610267
0,2,2,6,6,3,-1,0,2021-08-07 12:07:19.610267
2,0,1,5,4,3,-1,2,2021-08-07 12:07:19.616272
-3,-2,-3,-5,-7,-4,-5,-2,2021-08-07 12:07:19.616272
-5,-5,-4,-10,-15,-10,-6,-5,2021-08-07 12:07:19.638305
2,1,-1,0,4,3,3,1,2021-08-07 12:07:19.638305
-1,0,2,5,4,2,-2,-2,2021-08-07 12:07:19.646268
-2,-4,-4,-10,-14,-8,-2,0,2021-08-07 12:07:19.646268
-1,-2,-2,6,11,5,1,0,2021-08-07 12:07:19.646268
0,-1,0,1,-3,-3,0,-1,2021-08-07 12:07:19.646268
-4,-4,-6,-11,-10,-8,-4,-3,2021-08-07 12:07:19.668309
1,3,1,5,6,4,1,-2,2021-08-07 12:07:19.668309
0,0,1,5,6,3,1,-1,2021-08-07 12:07:19.669270
0,-2,0,0,-4,-2,-2,0,2021-08-07 12:07:19.669270
-3,-3,-1,3,1,0,-3,-1,2021-08-07 12:07:19.682268
1,-1,-5,-12,-6,-4,-2,0,2021-08-07 12:07:19.683268
-2,-3,-10,-17,-14,-6,-3,-1,2021-08-07 12:07:19.690270
4,6,6,8,14,8,3,3,2021-08-07 12:07:19.690270
1,0,-1,0,-1,-2,0,0,2021-08-07 12:07:19.706267
-3,0,2,10,10,6,1,0,2021-08-07 12:07:19.706267
-3,-3,-2,-6,-6,-5,-4,-3,2021-08-07 12:07:19.706267
-3,-3,-5,-9,-10,-6,-2,-2,2021-08-07 12:07:19.706267
0,0,2,-1,-2,-1,0,0,2021-08-07 12:07:19.728273
0,1,-1,3,3,0,2,0,2021-08-07 12:07:19.728273
1,0,1,6,4,2,0,1,2021-08-07 12:07:19.729267
-1,1,-1,1,0,-2,-1,-1,2021-08-07 12:07:19.729267
0,-1,1,4,3,0,1,-1,2021-08-07 12:07:19.751268
-1,-3,0,-1,-1,-2,-1,-2,2021-08-07 12:07:19.751268
-2,-1,-1,-3,-4,-3,-2,0,2021-08-07 12:07:19.751268
-3,-5,-3,-8,-7,-4,-4,-2,2021-08-07 12:07:19.751268
-1,-1,-3,-6,-2,-3,-2,1,2021-08-07 12:07:19.766272
-2,2,2,4,1,0,-1,0,2021-08-07 12:07:19.766272
0,1,3,2,0,1,2,1,2021-08-07 12:07:19.766272
-1,-2,-2,3,3,1,-1,-1,2021-08-07 12:07:19.766272
-1,-1,-1,-4,-3,-1,-3,-1,2021-08-07 12:07:19.788308
-2,-4,-4,-8,-8,-5,-5,-3,2021-08-07 12:07:19.788308
-1,-2,-2,-1,-6,-4,-3,-2,2021-08-07 12:07:19.789268
5,5,6,12,10,7,3,2,2021-08-07 12:07:19.789268
0,1,3,6,6,2,4,1,2021-08-07 12:07:19.811272
1,-1,0,4,1,1,0,-2,2021-08-07 12:07:19.811272
-2,-2,-3,-4,-3,-3,-3,-2,2021-08-07 12:07:19.811272
-4,-4,-7,-11,-8,-5,-2,-2,2021-08-07 12:07:19.811272
0,-2,-3,-4,-5,-2,-3,-1,2021-08-07 12:07:19.826270
-2,-2,1,5,8,3,-2,-2,2021-08-07 12:07:19.826270
0,-2,-6,-8,-3,-3,-1,0,2021-08-07 12:07:19.826270
3,3,4,0,-2,0,-1,2,2021-08-07 12:07:19.826270
-1,0,-1,-3,-6,-2,0,-2,2021-08-07 12:07:19.848271
-7,-9,-7,-8,-9,-7,-5,-4,2021-08-07 12:07:19.848271
3,4,5,9,15,6,4,3,2021-08-07 12:07:19.849277
-1,-2,-3,-3,-4,-2,-2,-1,2021-08-07 12:07:19.849277
1,1,-1,-1,0,1,-1,4,2021-08-07 12:07:19.871269
0,1,4,3,-1,-1,-1,-6,2021-08-07 12:07:19.871269
-3,-4,-4,-5,-7,-5,-5,-7,2021-08-07 12:07:19.871269
-1,-1,0,-4,-1,-1,0,0,2021-08-07 12:07:19.871269
-3,-1,0,-4,-2,-3,-2,-5,2021-08-07 12:07:19.886269
0,2,1,5,6,3,2,4,2021-08-07 12:07:19.886269
1,1,5,10,5,4,3,3,2021-08-07 12:07:19.886269
-2,-2,-5,-4,-7,-5,-1,-1,2021-08-07 12:07:19.887268
-1,-3,-3,-3,-5,-4,-4,-1,2021-08-07 12:07:19.908268
4,0,1,0,2,0,1,2,2021-08-07 12:07:19.908268
-4,-4,-6,-9,-12,-5,-3,-2,2021-08-07 12:07:19.909268
-2,-2,-3,-5,1,0,-1,-1,2021-08-07 12:07:19.909268
2,3,2,8,8,2,2,0,2021-08-07 12:07:19.931270
0,0,0,0,-1,-1,0,0,2021-08-07 12:07:19.931270
4,4,2,3,4,2,4,1,2021-08-07 12:07:19.931270
-3,-4,-2,-7,-9,-5,-2,-4,2021-08-07 12:07:19.932268
-5,-4,-5,-5,-3,-2,-2,-3,2021-08-07 12:07:19.946269
2,1,2,1,1,-1,2,2,2021-08-07 12:07:19.946269
-3,-3,-7,-12,-18,-9,-5,-3,2021-08-07 12:07:19.946269
-2,0,2,13,24,11,1,0,2021-08-07 12:07:19.947268
0,-2,-2,-2,-2,-2,0,-4,2021-08-07 12:07:19.968307
2,3,4,4,1,2,1,3,2021-08-07 12:07:19.968307
2,3,3,4,5,2,1,0,2021-08-07 12:07:19.969273
-2,-4,-5,-9,-12,-6,-4,-3,2021-08-07 12:07:19.969273
-2,-4,-2,2,-2,-2,-3,-2,2021-08-07 12:07:19.990269
0,0,-2,-1,0,0,0,2,2021-08-07 12:07:19.991273
-1,-2,0,4,4,1,0,0,2021-08-07 12:07:19.991273
0,1,1,2,-4,-1,0,-3,2021-08-07 12:07:19.991273
-6,-5,-5,-14,-11,-5,-2,-2,2021-08-07 12:07:20.005266
-2,2,2,8,11,4,0,-1,2021-08-07 12:07:20.006267
5,5,7,12,12,8,3,6,2021-08-07 12:07:20.006267
-2,-2,-1,2,-1,0,0,-2,2021-08-07 12:07:20.007274
-2,-2,-4,-8,-6,-3,-3,-1,2021-08-07 12:07:20.028266
-4,-5,-5,-7,-6,-5,-4,-4,2021-08-07 12:07:20.028266
-1,1,2,1,4,2,1,0,2021-08-07 12:07:20.029267
0,-2,-2,-4,-3,-2,-2,0,2021-08-07 12:07:20.029267
0,1,-1,-2,-2,0,0,-1,2021-08-07 12:07:20.051268
-1,2,-1,0,-1,0,-2,-2,2021-08-07 12:07:20.051268
-2,-3,-3,-5,-2,-1,-2,-2,2021-08-07 12:07:20.051268
0,-2,-1,0,-4,-2,-1,-1,2021-08-07 12:07:20.051268
-1,-2,-1,-1,1,-2,1,-2,2021-08-07 12:07:20.066270
4,2,4,1,2,2,4,2,2021-08-07 12:07:20.066270
-5,-6,-5,-7,-8,-4,-5,-5,2021-08-07 12:07:20.066270
-1,-2,-4,-3,-3,-2,-3,0,2021-08-07 12:07:20.066270
-2,-1,-2,1,3,1,-1,-1,2021-08-07 12:07:20.088266
0,2,-2,-3,-4,-1,-1,-2,2021-08-07 12:07:20.088266
1,1,0,0,0,-1,-1,1,2021-08-07 12:07:20.089266
-1,2,4,5,0,0,0,0,2021-08-07 12:07:20.089266
-1,-2,0,3,2,-1,-3,-1,2021-08-07 12:07:20.110268
-3,-3,-3,-2,-3,-3,-2,-1,2021-08-07 12:07:20.111267
0,1,-2,-3,-3,-4,-2,-1,2021-08-07 12:07:20.118266
-3,-3,-4,-5,-2,-2,0,-2,2021-08-07 12:07:20.118266
0,2,3,4,4,2,0,-1,2021-08-07 12:07:20.126268
3,2,5,4,3,3,1,0,2021-08-07 12:07:20.126268
-5,-8,-8,-7,-6,-5,-1,-2,2021-08-07 12:07:20.126268
-2,-3,-4,-5,-7,-4,-3,-1,2021-08-07 12:07:20.127268
2,3,2,0,1,2,2,3,2021-08-07 12:07:20.148268
4,1,-2,-4,-4,-2,1,1,2021-08-07 12:07:20.148268
0,1,2,-3,-1,0,1,-1,2021-08-07 12:07:20.149269
2,0,0,7,6,2,2,3,2021-08-07 12:07:20.149269
-1,-1,2,6,1,0,0,-1,2021-08-07 12:07:20.170269
-3,-3,-6,-14,-11,-5,-4,-3,2021-08-07 12:07:20.171267
0,2,6,15,14,7,2,0,2021-08-07 12:07:20.171267
-1,1,3,2,4,1,0,-1,2021-08-07 12:07:20.171267
-2,-2,-3,-4,-3,-3,-2,-1,2021-08-07 12:07:20.186270
-3,-6,-4,-2,0,-1,-2,0,2021-08-07 12:07:20.186270
-3,-2,-5,-9,-9,-6,-4,-2,2021-08-07 12:07:20.186270
-1,-1,-1,-5,-3,-1,-4,0,2021-08-07 12:07:20.187267
0,-1,-1,1,1,0,-1,1,2021-08-07 12:07:20.216268
-4,-2,-5,-5,-9,-4,-5,-2,2021-08-07 12:07:20.216268
1,1,0,-5,-1,0,2,1,2021-08-07 12:07:20.217268
0,1,0,2,6,5,1,-1,2021-08-07 12:07:20.217268
3,5,5,10,1,2,2,2,2021-08-07 12:07:20.230268
-2,0,1,4,3,2,0,-1,2021-08-07 12:07:20.231268
-4,-3,-3,-8,-4,-2,-2,-3,2021-08-07 12:07:20.231268
-2,-2,-4,-12,-12,-8,-3,-4,2021-08-07 12:07:20.231268
0,-1,-3,-5,-4,-3,0,0,2021-08-07 12:07:20.245269
0,-2,2,7,11,3,3,1,2021-08-07 12:07:20.246268
3,1,-2,3,-4,-2,0,1,2021-08-07 12:07:20.246268
-3,-6,-6,-11,-10,-6,-2,-3,2021-08-07 12:07:20.246268
-2,-1,-3,1,6,1,-1,-1,2021-08-07 12:07:20.268267
0,1,9,18,16,6,2,0,2021-08-07 12:07:20.268267
-3,-1,1,-4,-5,-3,-3,-4,2021-08-07 12:07:20.269267
-1,1,1,2,-2,-2,-4,-1,2021-08-07 12:07:20.269267
-3,0,-3,-12,-11,-7,-5,-3,2021-08-07 12:07:20.291267
-1,0,-2,-2,-5,-3,-1,1,2021-08-07 12:07:20.291267
4,2,2,5,6,3,0,2,2021-08-07 12:07:20.291267
-2,-1,-4,-6,-4,-4,-2,1,2021-08-07 12:07:20.291267
-1,-1,0,-2,-1,0,-2,0,2021-08-07 12:07:20.305268
0,-3,-4,-5,-1,-2,-1,-2,2021-08-07 12:07:20.305268
0,-1,-1,-1,-2,-2,0,0,2021-08-07 12:07:20.313268
-3,-3,-4,-5,-8,-4,-1,-3,2021-08-07 12:07:20.313268
-1,0,1,3,3,2,1,1,2021-08-07 12:07:20.328267
-1,0,2,3,6,2,2,-1,2021-08-07 12:07:20.328267
-1,-1,-1,0,0,-1,0,-1,2021-08-07 12:07:20.329268
0,1,2,4,3,0,1,0,2021-08-07 12:07:20.329268
-3,-4,-4,-2,-3,-4,-2,-3,2021-08-07 12:07:20.350268
-2,-3,-7,-14,-17,-6,-4,0,2021-08-07 12:07:20.351268
3,5,6,11,16,8,3,3,2021-08-07 12:07:20.351268
-1,-2,-3,-3,-3,-2,-1,-1,2021-08-07 12:07:20.351268
-3,-2,0,3,5,0,-2,-1,2021-08-07 12:07:20.365266
-1,1,-2,-12,-9,-6,-2,-3,2021-08-07 12:07:20.365266
1,-2,-1,2,-1,-2,-1,-1,2021-08-07 12:07:20.373266
0,-1,0,0,1,1,0,1,2021-08-07 12:07:20.374268
-1,-1,0,2,-4,-2,-2,-1,2021-08-07 12:07:20.388266
-1,-1,-2,0,0,2,-2,-1,2021-08-07 12:07:20.388266
-5,-3,-4,-7,-7,-3,-3,-3,2021-08-07 12:07:20.389270
-1,1,2,2,3,1,0,0,2021-08-07 12:07:20.389270
-3,-4,-5,-9,-9,-2,-3,-2,2021-08-07 12:07:20.427268
1,1,5,11,9,2,2,1,2021-08-07 12:07:20.427268
-1,-2,-3,-3,-3,-2,-1,-1,2021-08-07 12:07:20.428268
0,0,-2,-1,0,-1,1,1,2021-08-07 12:07:20.428268
1,1,2,3,3,1,1,-3,2021-08-07 12:07:20.429268
1,3,2,2,2,1,2,3,2021-08-07 12:07:20.429268
-3,-2,1,-1,-6,-3,-4,-3,2021-08-07 12:07:20.433267
0,-1,1,6,9,2,0,1,2021-08-07 12:07:20.433267
1,0,0,-4,-4,-2,0,0,2021-08-07 12:07:20.448266
-2,-2,1,7,3,1,0,0,2021-08-07 12:07:20.448266
-3,-1,-6,-6,-7,-6,-3,-3,2021-08-07 12:07:20.449268
5,6,3,1,0,2,1,2,2021-08-07 12:07:20.449268
1,0,0,-1,-1,-1,0,0,2021-08-07 12:07:20.470269
-5,-5,-6,-9,-7,-5,-2,-5,2021-08-07 12:07:20.471269
4,5,4,4,3,3,0,3,2021-08-07 12:07:20.471269
-4,-1,-3,-5,-7,-4,-3,-3,2021-08-07 12:07:20.472272
-1,-2,-3,-9,-9,-6,-4,-3,2021-08-07 12:07:20.485266
1,1,2,13,12,5,0,2,2021-08-07 12:07:20.485266
0,0,2,4,8,3,0,-1,2021-08-07 12:07:20.493313
-2,-2,-1,-4,-4,-2,-3,-4,2021-08-07 12:07:20.493313
-2,-1,-3,-1,-3,-2,-1,-1,2021-08-07 12:07:20.508268
0,0,0,-9,-7,-4,-1,-2,2021-08-07 12:07:20.508268
0,0,-3,-5,-3,-3,1,0,2021-08-07 12:07:20.509269
-1,-2,2,7,7,3,1,-2,2021-08-07 12:07:20.509269
3,1,3,4,4,3,3,1,2021-08-07 12:07:20.530268
1,0,-1,-6,-4,-1,-1,1,2021-08-07 12:07:20.531268
-1,-1,-1,-3,-8,-5,-3,-4,2021-08-07 12:07:20.531268
-2,-3,-4,-4,-2,-2,-1,-3,2021-08-07 12:07:20.532268
-2,-1,2,2,5,2,-1,0,2021-08-07 12:07:20.554269
-2,-3,-1,3,3,0,1,-3,2021-08-07 12:07:20.554269
0,0,-2,-2,-4,-2,0,2,2021-08-07 12:07:20.554269
-2,-3,-4,-7,-6,-6,-4,-2,2021-08-07 12:07:20.555268
1,-1,-1,5,2,-2,0,1,2021-08-07 12:07:20.576268
-3,-5,-4,-4,-4,-3,-3,-3,2021-08-07 12:07:20.576268
2,0,-2,1,3,2,2,3,2021-08-07 12:07:20.577269
-2,-2,-2,-1,1,3,0,-1,2021-08-07 12:07:20.577269
0,0,-2,1,2,2,-1,0,2021-08-07 12:07:20.591268
1,1,-4,-15,-14,-9,-5,-2,2021-08-07 12:07:20.591268
3,3,4,6,9,5,3,2,2021-08-07 12:07:20.591268
1,-3,-1,-4,-4,-2,-2,-3,2021-08-07 12:07:20.591268
-3,-1,1,-1,0,-1,-2,-3,2021-08-07 12:07:20.614268
-3,-3,-5,-1,-3,-1,-2,0,2021-08-07 12:07:20.614268
-6,-6,-6,-11,-10,-6,-4,-3,2021-08-07 12:07:20.614268
0,3,1,5,2,2,0,1,2021-08-07 12:07:20.615268
-1,-2,0,-2,-2,0,0,0,2021-08-07 12:07:20.636268
-2,-1,-4,-7,-5,-3,-3,-2,2021-08-07 12:07:20.636268
2,-1,2,0,2,2,1,-1,2021-08-07 12:07:20.638267
-2,0,5,22,19,7,4,-1,2021-08-07 12:07:20.638267
-4,-1,-2,1,-2,-3,-1,-2,2021-08-07 12:07:20.650267
4,6,4,0,-4,-1,0,1,2021-08-07 12:07:20.650267
-1,1,1,2,1,0,-1,-1,2021-08-07 12:07:20.659267
-1,-4,-6,-11,-6,-4,-1,-2,2021-08-07 12:07:20.659267
-4,-5,-5,-1,0,0,-3,-2,2021-08-07 12:07:20.674269
4,2,0,5,11,5,4,2,2021-08-07 12:07:20.674269
-1,-1,0,2,4,1,-1,-2,2021-08-07 12:07:20.675269
0,0,1,0,-3,-4,0,0,2021-08-07 12:07:20.675269
-3,-2,-4,-8,-6,-6,-2,-1,2021-08-07 12:07:20.696267
-2,-2,0,-2,-9,-5,-2,-1,2021-08-07 12:07:20.696267
-3,-3,-3,0,4,0,-2,-1,2021-08-07 12:07:20.698267
-2,-4,-3,-7,-4,-2,-1,-1,2021-08-07 12:07:20.698267
0,1,0,-4,-3,-2,-1,-1,2021-08-07 12:07:20.710267
3,3,4,3,2,2,1,1,2021-08-07 12:07:20.710267
-3,-4,-5,-3,-6,-2,-2,-4,2021-08-07 12:07:20.719267
-1,0,0,-5,-7,-3,-2,-2,2021-08-07 12:07:20.719267
3,0,-3,-9,-10,-5,0,-1,2021-08-07 12:07:20.734268
-4,-5,-3,5,4,0,0,-2,2021-08-07 12:07:20.734268
2,2,5,6,11,5,5,2,2021-08-07 12:07:20.735268
1,1,2,2,5,0,0,-1,2021-08-07 12:07:20.736270
-1,-3,-3,-4,-7,-4,-2,-1,2021-08-07 12:07:20.756266
1,2,6,14,13,7,5,2,2021-08-07 12:07:20.756266
-2,-4,-7,-21,-19,-10,-3,-1,2021-08-07 12:07:20.758267
-3,-2,-2,2,1,0,-1,-2,2021-08-07 12:07:20.758267
-1,-1,1,0,0,0,0,0,2021-08-07 12:07:20.770267
0,0,1,3,1,-1,-3,-2,2021-08-07 12:07:20.770267
-1,0,-1,1,-6,-2,-2,-2,2021-08-07 12:07:20.779268
1,3,1,3,3,0,-1,2,2021-08-07 12:07:20.779268
0,-1,1,4,4,1,0,-1,2021-08-07 12:07:20.794268
0,-1,-2,-3,-4,-2,0,-1,2021-08-07 12:07:20.794268
-1,-2,-3,-8,-6,-4,-2,-1,2021-08-07 12:07:20.795270
-3,-3,-7,-10,-5,-4,-3,-3,2021-08-07 12:07:20.795270
-1,0,5,13,3,3,1,1,2021-08-07 12:07:20.816268
-1,1,1,3,9,3,1,0,2021-08-07 12:07:20.816268
5,7,6,13,7,3,3,2,2021-08-07 12:07:20.818268
-1,-2,-2,-7,-7,-2,-1,-1,2021-08-07 12:07:20.818268
-3,-3,-3,-3,3,0,-3,-3,2021-08-07 12:07:20.830268
2,2,1,-6,-5,-3,1,2,2021-08-07 12:07:20.830268
-4,-4,-5,-7,2,-1,-4,-4,2021-08-07 12:07:20.839268
7,8,10,11,6,5,3,4,2021-08-07 12:07:20.839268
-2,-2,-3,-6,-4,-2,-2,-2,2021-08-07 12:07:20.854268
-2,-2,-4,-8,-9,-5,-4,-3,2021-08-07 12:07:20.854268
-5,-4,-4,-2,-2,-1,-2,-2,2021-08-07 12:07:20.855267
-3,-5,-4,-5,-6,-5,-3,-1,2021-08-07 12:07:20.855267
2,2,3,7,7,3,1,1,2021-08-07 12:07:20.884269
-3,-3,-5,-8,-3,-3,-3,-2,2021-08-07 12:07:20.884269
0,0,-4,-6,-9,-6,-2,0,2021-08-07 12:07:20.885268
-2,0,5,16,15,6,1,0,2021-08-07 12:07:20.886269
1,-1,-2,-5,-3,-1,1,1,2021-08-07 12:07:20.898266
-3,-2,-1,5,2,2,-2,-1,2021-08-07 12:07:20.899267
2,1,1,1,1,1,1,2,2021-08-07 12:07:20.905269
-2,-1,-1,2,0,-1,-2,-2,2021-08-07 12:07:20.905269
0,-1,-2,-5,-2,-3,-3,-2,2021-08-07 12:07:20.914271
-1,0,-1,-1,-2,0,0,-1,2021-08-07 12:07:20.914271
-8,-7,-5,-1,-1,-1,-1,-5,2021-08-07 12:07:20.915270
2,2,2,1,0,1,0,-1,2021-08-07 12:07:20.916273
11,16,13,14,13,10,8,7,2021-08-07 12:07:20.936272
-8,-11,-16,-17,-17,-11,-7,-6,2021-08-07 12:07:20.937270
-3,-6,-6,-11,-11,-12,-9,-4,2021-08-07 12:07:20.944267
-1,-2,-2,-1,0,-1,0,-3,2021-08-07 12:07:20.944267
-2,-2,0,3,4,2,1,-2,2021-08-07 12:07:20.950270
3,3,3,3,1,2,0,1,2021-08-07 12:07:20.950270
-5,-4,-2,-1,-1,-1,-2,-2,2021-08-07 12:07:20.959267
-4,-2,-4,-8,-7,-4,-4,-2,2021-08-07 12:07:20.959267
1,0,1,4,4,3,0,-1,2021-08-07 12:07:20.974268
0,1,2,4,5,1,1,1,2021-08-07 12:07:20.974268
0,-1,0,3,0,1,0,-1,2021-08-07 12:07:20.975271
-2,0,-3,-7,-7,-4,-3,0,2021-08-07 12:07:20.976271
-4,-3,-3,-3,-2,-2,-2,-1,2021-08-07 12:07:20.996305
0,1,4,5,1,3,2,2,2021-08-07 12:07:20.997270
1,0,3,4,6,3,2,-1,2021-08-07 12:07:20.998267
-4,-4,-5,-7,-4,-2,-2,0,2021-08-07 12:07:20.998267
0,0,-3,-4,-4,-5,-2,1,2021-08-07 12:07:21.010270
1,1,4,5,2,0,0,0,2021-08-07 12:07:21.010270
3,2,4,2,-1,0,-1,1,2021-08-07 12:07:21.019268
-2,-4,-5,-2,2,-1,0,-2,2021-08-07 12:07:21.019268
-5,-7,-7,-8,-7,-6,-3,-2,2021-08-07 12:07:21.042272
-1,0,0,-1,5,1,0,1,2021-08-07 12:07:21.042272
-1,3,2,8,5,2,2,1,2021-08-07 12:07:21.043273
-3,-3,-3,-5,-10,-5,-4,-3,2021-08-07 12:07:21.043273
0,0,0,2,2,-1,0,0,2021-08-07 12:07:21.064269
-1,-1,-4,-10,-10,-4,-2,-1,2021-08-07 12:07:21.064269
-1,-2,1,10,10,4,1,0,2021-08-07 12:07:21.065272
3,2,2,2,-1,0,1,3,2021-08-07 12:07:21.066269
1,2,3,4,6,5,1,-1,2021-08-07 12:07:21.070268
0,0,-2,-2,-6,-5,-3,-2,2021-08-07 12:07:21.070268
-3,0,-1,2,4,2,1,-2,2021-08-07 12:07:21.079267
-2,-5,0,-2,1,-1,-2,-1,2021-08-07 12:07:21.079267
1,3,3,-2,-4,0,0,2,2021-08-07 12:07:21.094267
-3,-6,-6,-5,-4,-3,-2,-4,2021-08-07 12:07:21.094267
1,2,0,0,-3,-1,0,1,2021-08-07 12:07:21.095269
-1,0,0,0,-3,-3,1,-1,2021-08-07 12:07:21.095269
-4,-5,-9,-8,-6,-4,-3,-2,2021-08-07 12:07:21.116269
2,5,4,4,3,2,1,1,2021-08-07 12:07:21.116269
-1,0,-5,-11,-7,-3,-2,0,2021-08-07 12:07:21.118269
1,0,0,7,10,4,1,1,2021-08-07 12:07:21.118269
-1,-2,-5,-14,-20,-7,-3,0,2021-08-07 12:07:21.139269
0,-3,1,13,17,10,4,2,2021-08-07 12:07:21.139269
-2,-3,-3,0,0,1,0,-2,2021-08-07 12:07:21.140268
-8,-5,-5,-8,-10,-8,-3,-6,2021-08-07 12:07:21.141270
-6,-4,-1,-9,-6,-5,-4,-6,2021-08-07 12:07:21.154269
-1,1,5,11,2,-1,-2,-2,2021-08-07 12:07:21.154269
4,6,7,10,11,5,1,2,2021-08-07 12:07:21.155269
0,-1,-2,-1,-4,-2,-2,-1,2021-08-07 12:07:21.156269
2,0,0,-3,0,0,0,0,2021-08-07 12:07:21.176307
1,0,-4,-8,-8,-5,-2,0,2021-08-07 12:07:21.177271
-5,-6,-6,-9,-7,-6,-5,-1,2021-08-07 12:07:21.178268
2,4,1,2,0,0,1,2,2021-08-07 12:07:21.178268
-3,-6,-6,-3,-5,-4,-3,0,2021-08-07 12:07:21.199269
-2,-2,-4,-12,-1,-3,-1,-1,2021-08-07 12:07:21.199269
5,4,8,15,11,8,5,3,2021-08-07 12:07:21.200271
-1,0,-2,-8,-3,-1,-1,-1,2021-08-07 12:07:21.200271
1,2,4,11,6,4,3,1,2021-08-07 12:07:21.214268
-4,-3,-5,-11,-13,-7,-4,-5,2021-08-07 12:07:21.214268
-2,-3,-2,-1,0,-1,-1,0,2021-08-07 12:07:21.215276
-2,-4,-1,2,3,3,-1,-1,2021-08-07 12:07:21.216278
2,3,1,7,6,1,1,0,2021-08-07 12:07:21.236273
5,5,4,3,1,1,2,4,2021-08-07 12:07:21.237277
-4,-5,-6,-13,-12,-8,-4,-3,2021-08-07 12:07:21.238272
1,0,0,-5,-4,-2,1,1,2021-08-07 12:07:21.238272
0,-1,3,11,9,4,0,-2,2021-08-07 12:07:21.259269
-2,-4,-3,1,-3,-2,-2,-3,2021-08-07 12:07:21.259269
-2,0,-1,-7,-10,-6,-2,-2,2021-08-07 12:07:21.260269
0,3,-1,5,8,4,1,0,2021-08-07 12:07:21.260269
-2,0,1,3,6,2,0,-1,2021-08-07 12:07:21.274268
-2,-1,-2,0,-2,-2,0,0,2021-08-07 12:07:21.274268
-2,-3,-1,-6,-4,-2,-1,-1,2021-08-07 12:07:21.275269
-3,-5,-7,-9,-6,-4,-4,-3,2021-08-07 12:07:21.275269
7,10,12,10,6,7,6,6,2021-08-07 12:07:21.296270
0,0,-1,3,2,2,-3,-1,2021-08-07 12:07:21.296270
-1,0,-1,0,-9,-3,-2,-2,2021-08-07 12:07:21.298269
-4,-4,-1,2,1,-1,-2,-2,2021-08-07 12:07:21.298269
-2,-2,-4,-4,-3,-1,-2,-1,2021-08-07 12:07:21.319267
-4,-4,-2,-1,-1,-2,-3,-3,2021-08-07 12:07:21.319267
-1,-2,-5,-11,-8,-3,-3,-1,2021-08-07 12:07:21.320270
0,2,3,6,1,1,1,0,2021-08-07 12:07:21.321270
-3,-4,-6,-5,-5,-6,-3,-2,2021-08-07 12:07:21.333307
1,1,1,-4,-5,-1,1,2,2021-08-07 12:07:21.333307
-2,-3,-2,5,9,1,-2,-2,2021-08-07 12:07:21.340268
0,-1,1,2,0,0,0,-1,2021-08-07 12:07:21.340268
-2,-3,-4,-5,0,-1,-1,-3,2021-08-07 12:07:21.356272
-3,-1,-3,-6,-7,-4,-3,-2,2021-08-07 12:07:21.357269
-2,-1,0,1,0,-2,-1,-1,2021-08-07 12:07:21.358271
1,0,-1,-2,-4,-2,-1,1,2021-08-07 12:07:21.358271
-2,-2,-4,-7,-8,-4,-1,-1,2021-08-07 12:07:21.379269
1,1,-1,-6,-3,-1,1,-1,2021-08-07 12:07:21.379269
0,-1,-1,2,-1,-1,-1,1,2021-08-07 12:07:21.380272
1,3,4,14,17,8,2,0,2021-08-07 12:07:21.380272
-1,-4,0,2,-2,-1,-2,-2,2021-08-07 12:07:21.393308
-2,-2,-5,-10,-5,-4,-1,-1,2021-08-07 12:07:21.393308
-3,-2,-3,-6,-5,-3,-1,-3,2021-08-07 12:07:21.400269
0,0,2,4,3,0,0,0,2021-08-07 12:07:21.400269
-2,0,0,0,1,0,0,-2,2021-08-07 12:07:21.416270
-2,-1,-1,0,2,-1,-2,-1,2021-08-07 12:07:21.416270
-1,-1,-4,-10,-13,-7,-3,-2,2021-08-07 12:07:21.418267
-1,-3,-3,-7,-7,-4,-3,0,2021-08-07 12:07:21.418267
1,-1,-1,2,7,3,1,0,2021-08-07 12:07:21.439269
-4,-4,0,6,1,1,0,-2,2021-08-07 12:07:21.439269
-3,-4,-2,1,2,-1,-2,-2,2021-08-07 12:07:21.440268
2,-1,-4,-5,-7,-1,0,0,2021-08-07 12:07:21.440268
0,0,2,0,-3,-2,-1,2,2021-08-07 12:07:21.453268
2,3,6,11,7,2,3,1,2021-08-07 12:07:21.453268
2,0,0,0,1,0,-2,-1,2021-08-07 12:07:21.467268
0,0,-2,-2,0,0,1,1,2021-08-07 12:07:21.467268
0,-1,0,1,-1,-2,-1,-1,2021-08-07 12:07:21.476271
1,-2,-1,-1,-2,0,0,0,2021-08-07 12:07:21.476271
-2,1,-3,-9,-8,-4,0,0,2021-08-07 12:07:21.478269
-3,-1,3,8,10,2,1,-2,2021-08-07 12:07:21.478269
-4,-3,-6,-7,-3,-2,-1,-2,2021-08-07 12:07:21.499268
2,3,3,2,0,1,0,2,2021-08-07 12:07:21.499268
-2,-4,-1,2,3,0,0,-1,2021-08-07 12:07:21.500271
0,-1,-2,-12,-14,-7,-1,1,2021-08-07 12:07:21.501269
-2,-2,-3,-3,-2,-3,-1,-3,2021-08-07 12:07:21.513271
-3,-2,-1,9,15,5,3,-2,2021-08-07 12:07:21.513271
8,13,8,7,3,6,5,5,2021-08-07 12:07:21.521268
-1,-1,-1,-7,-6,-4,-3,-2,2021-08-07 12:07:21.521268
-3,-3,-2,-2,-5,-2,-2,-1,2021-08-07 12:07:21.536274
1,0,-3,0,-3,-2,-4,-1,2021-08-07 12:07:21.536274
-3,-4,-3,-1,-2,-2,-3,-2,2021-08-07 12:07:21.544270
-3,-3,-6,-8,-6,-6,-5,-3,2021-08-07 12:07:21.544270
6,5,8,16,15,9,5,3,2021-08-07 12:07:21.559271
-3,-3,-3,0,-2,-1,-1,-2,2021-08-07 12:07:21.559271
-2,-2,-1,0,1,0,-2,-2,2021-08-07 12:07:21.565267
-3,0,-3,-7,-10,-5,-4,-2,2021-08-07 12:07:21.565267
-4,-6,-7,-9,-7,-5,-3,-5,2021-08-07 12:07:21.574271
1,1,3,1,6,2,2,1,2021-08-07 12:07:21.574271
-1,-3,-4,-2,-4,-3,-1,-2,2021-08-07 12:07:21.580268
-1,-3,-2,2,3,0,0,-2,2021-08-07 12:07:21.580268
0,5,2,1,1,0,0,1,2021-08-07 12:07:21.596308
-1,-3,-2,-5,0,1,0,0,2021-08-07 12:07:21.597270
-4,-4,-3,2,-5,-4,-1,-3,2021-08-07 12:07:21.598270
0,4,4,3,6,3,1,1,2021-08-07 12:07:21.598270
0,2,0,4,6,2,1,1,2021-08-07 12:07:21.619270
1,-1,-2,-3,-4,-2,0,-1,2021-08-07 12:07:21.619270
-3,-6,-6,-6,-3,-2,-2,-2,2021-08-07 12:07:21.621269
0,-1,-1,-2,-7,-4,-1,-1,2021-08-07 12:07:21.621269
-1,0,-1,-1,-3,-2,-4,-1,2021-08-07 12:07:21.633305
-3,-3,-7,-19,-8,-6,-3,-1,2021-08-07 12:07:21.633305
2,2,6,14,10,4,0,-1,2021-08-07 12:07:21.657269
0,-2,0,1,0,1,-2,-1,2021-08-07 12:07:21.657269
0,-2,-1,-5,-2,-2,-1,1,2021-08-07 12:07:21.658267
-3,-5,-5,-1,-3,-1,-3,-2,2021-08-07 12:07:21.658267
-1,-2,-2,-1,1,0,0,0,2021-08-07 12:07:21.659267
-3,-3,-3,-6,-8,-5,-3,-2,2021-08-07 12:07:21.659267
0,-1,-1,-6,-7,-4,-2,-2,2021-08-07 12:07:21.679267
4,5,9,22,18,8,4,1,2021-08-07 12:07:21.679267
-1,-3,-2,-5,0,-2,-2,-2,2021-08-07 12:07:21.680270
-1,-1,-1,-1,0,-3,-2,-2,2021-08-07 12:07:21.680270
-1,-1,-5,-14,-14,-7,-2,-2,2021-08-07 12:07:21.693269
-1,0,4,7,7,4,1,0,2021-08-07 12:07:21.693269
-3,-2,-5,-12,-17,-8,-4,-1,2021-08-07 12:07:21.701270
-1,0,0,6,12,6,2,1,2021-08-07 12:07:21.702268
-2,-2,-2,-1,3,0,-2,0,2021-08-07 12:07:21.716269
0,2,2,0,-2,0,-1,0,2021-08-07 12:07:21.717269
0,0,0,-3,-1,-1,-1,0,2021-08-07 12:07:21.718267
-3,-2,-3,-5,-8,-4,-3,-1,2021-08-07 12:07:21.718267
-2,-3,-3,0,-2,-1,-3,-1,2021-08-07 12:07:21.740268
3,4,3,3,1,2,3,1,2021-08-07 12:07:21.740268
-1,1,1,1,2,-1,-1,-2,2021-08-07 12:07:21.742270
2,3,2,1,-6,-1,-1,0,2021-08-07 12:07:21.742270
0,0,3,10,16,9,2,2,2021-08-07 12:07:21.761270
-4,-6,-8,-12,-11,-7,-6,-5,2021-08-07 12:07:21.761270
2,1,-1,2,9,5,2,1,2021-08-07 12:07:21.763269
1,1,2,3,2,2,2,0,2021-08-07 12:07:21.763269
-1,-3,-2,-4,-5,-4,-1,-1,2021-08-07 12:07:21.776268
-3,-1,-5,-6,-9,-5,-4,-4,2021-08-07 12:07:21.776268
0,1,-2,-2,2,1,0,1,2021-08-07 12:07:21.778269
-4,-4,-4,-4,0,-1,-1,-3,2021-08-07 12:07:21.778269
1,0,2,0,-2,0,2,-1,2021-08-07 12:07:21.807272
1,-1,-3,-6,-7,-4,-2,0,2021-08-07 12:07:21.807272
-1,-1,1,2,6,2,1,0,2021-08-07 12:07:21.808268
8,2,0,0,-1,-3,-5,5,2021-08-07 12:07:21.808268
8,2,0,0,-2,-3,-4,-2,2021-08-07 12:07:21.812268
-2,-3,0,0,-1,1,6,-6,2021-08-07 12:07:21.813268
-34,-8,-2,-4,-4,1,4,-4,2021-08-07 12:07:21.821268
-3,-1,0,0,4,4,6,1,2021-08-07 12:07:21.821268
4,1,0,4,4,1,-1,4,2021-08-07 12:07:21.836268
9,2,-1,0,-2,-3,-7,2,2021-08-07 12:07:21.837269
8,1,-3,-2,-3,-6,-5,-3,2021-08-07 12:07:21.838268
-4,-4,-2,-2,-4,-6,-5,-3,2021-08-07 12:07:21.838268
-2,-1,-1,0,0,5,3,1,2021-08-07 12:07:21.859266
0,-2,-2,-3,-5,-4,-2,2,2021-08-07 12:07:21.859266
4,0,-2,-2,-3,2,0,2,2021-08-07 12:07:21.861266
-3,-2,-2,-14,-18,-9,-4,-1,2021-08-07 12:07:21.861266
4,6,9,22,29,14,6,2,2021-08-07 12:07:21.872268
-4,1,3,10,7,5,2,-1,2021-08-07 12:07:21.873268
1,-1,-2,0,-1,-1,-2,0,2021-08-07 12:07:21.881269
-4,-5,-5,-3,-6,-3,-2,-3,2021-08-07 12:07:21.882269
-8,-5,-4,-14,-15,-6,-2,-4,2021-08-07 12:07:21.896268
1,3,1,0,1,-1,0,2,2021-08-07 12:07:21.896268
1,0,-3,-3,-3,-5,-3,-1,2021-08-07 12:07:21.898268
2,1,4,4,9,5,2,-1,2021-08-07 12:07:21.898268
-5,-3,0,2,-1,-2,-2,-3,2021-08-07 12:07:21.927267
-5,-4,-5,-4,-5,-2,-2,-1,2021-08-07 12:07:21.927267
2,-2,-3,-3,1,-1,-1,0,2021-08-07 12:07:21.928268
-4,-3,-1,4,3,0,-1,-1,2021-08-07 12:07:21.928268
2,2,-1,-13,-17,-5,-1,-1,2021-08-07 12:07:21.932268
-2,-2,-8,-19,-10,-5,-2,-1,2021-08-07 12:07:21.933269
7,6,16,40,45,23,10,4,2021-08-07 12:07:21.941271
-7,-6,-7,-7,-7,-5,-1,-4,2021-08-07 12:07:21.942269
-1,1,4,8,5,0,1,1,2021-08-07 12:07:21.956268
-1,-3,-3,-8,-15,-9,-6,-1,2021-08-07 12:07:21.957268
-2,-4,-8,-16,-12,-6,-4,-4,2021-08-07 12:07:21.958268
2,4,5,10,11,6,2,3,2021-08-07 12:07:21.958268
-1,-2,-2,-4,-4,-2,-2,-2,2021-08-07 12:07:21.979268
0,0,0,2,0,0,1,-1,2021-08-07 12:07:21.979268
0,-2,-3,-8,-9,-5,-2,-2,2021-08-07 12:07:21.980269
4,1,2,9,7,4,1,0,2021-08-07 12:07:21.980269
-4,-2,-2,-5,-8,-3,-2,-3,2021-08-07 12:07:21.992268
-8,-6,-1,2,4,-2,-3,-6,2021-08-07 12:07:21.993269
-4,-5,-6,-4,-5,-4,-3,-2,2021-08-07 12:07:22.001270
3,2,0,-6,-5,-1,0,4,2021-08-07 12:07:22.001270
6,4,-1,-5,-6,-2,2,5,2021-08-07 12:07:22.024269
-1,-2,-1,3,7,3,0,0,2021-08-07 12:07:22.024269
-3,-6,-7,-12,-13,-7,-3,-3,2021-08-07 12:07:22.025269
-4,-2,-2,-3,5,3,0,-2,2021-08-07 12:07:22.025269
-2,1,5,16,18,8,3,0,2021-08-07 12:07:22.039268
-3,2,9,15,8,2,-1,-2,2021-08-07 12:07:22.039268
-1,0,-2,-14,-19,-8,-5,-4,2021-08-07 12:07:22.040270
3,2,1,4,3,2,1,0,2021-08-07 12:07:22.041270
-2,-3,-3,-3,-4,-3,-5,-2,2021-08-07 12:07:22.053271
-3,-3,-6,-6,-2,-4,-4,-2,2021-08-07 12:07:22.053271
-3,-2,-3,-2,-5,-3,-4,-2,2021-08-07 12:07:22.061271
-2,-1,-3,-2,-3,-2,-1,-2,2021-08-07 12:07:22.062268
0,1,0,-4,-5,-1,0,0,2021-08-07 12:07:22.075269
2,0,1,1,5,2,3,0,2021-08-07 12:07:22.076272
1,2,3,5,3,2,2,0,2021-08-07 12:07:22.084269
-1,-2,-3,-5,-5,-3,-1,-3,2021-08-07 12:07:22.084269
-2,-2,-4,-3,-3,-4,-3,-3,2021-08-07 12:07:22.099270
-1,-2,-3,-5,-5,-1,1,-1,2021-08-07 12:07:22.099270
2,3,2,3,3,2,-1,3,2021-08-07 12:07:22.100268
0,-1,1,2,0,-1,1,0,2021-08-07 12:07:22.100268
-5,-3,-3,-3,-3,0,1,-1,2021-08-07 12:07:22.121268
0,0,-1,-2,-2,-1,-1,-1,2021-08-07 12:07:22.121268
-1,-1,-2,-1,1,0,-2,-2,2021-08-07 12:07:22.123267
-3,-2,-2,0,-3,-2,-1,-3,2021-08-07 12:07:22.123267
-1,-1,-2,-2,1,1,-2,-1,2021-08-07 12:07:22.136269
0,-1,-1,-2,-2,0,-1,0,2021-08-07 12:07:22.137268
0,-1,1,1,-1,0,-1,0,2021-08-07 12:07:22.138270
0,1,0,-1,-1,-2,0,0,2021-08-07 12:07:22.138270
-2,-3,-1,-2,-2,-2,-2,-3,2021-08-07 12:07:22.159270
2,2,6,4,4,3,0,0,2021-08-07 12:07:22.159270
0,-1,2,3,4,2,1,0,2021-08-07 12:07:22.160268
-6,-9,-11,-12,-13,-9,-6,-3,2021-08-07 12:07:22.160268
0,-1,-2,-5,-2,-3,-1,-1,2021-08-07 12:07:22.181307
3,5,8,10,7,5,3,3,2021-08-07 12:07:22.182274
-1,0,0,6,9,4,2,1,2021-08-07 12:07:22.183273
-2,-6,-12,-22,-19,-12,-6,-4,2021-08-07 12:07:22.183273
-1,-4,-6,-3,-7,-4,-3,-2,2021-08-07 12:07:22.196307
0,2,0,4,4,1,1,1,2021-08-07 12:07:22.196307
1,1,5,4,2,0,-1,-1,2021-08-07 12:07:22.198269
1,3,6,9,8,6,2,2,2021-08-07 12:07:22.198269
-3,-3,-3,-3,-2,-1,0,-1,2021-08-07 12:07:22.219271
2,0,0,6,6,3,1,1,2021-08-07 12:07:22.219271
1,3,2,-2,-4,-2,-2,-1,2021-08-07 12:07:22.221268
2,1,3,4,3,4,1,3,2021-08-07 12:07:22.221268
-1,-1,-3,-3,-5,-3,-2,-3,2021-08-07 12:07:22.249269
-3,-4,-7,-7,-4,-3,-2,-2,2021-08-07 12:07:22.249269
-3,-4,-7,-9,-6,-4,-2,-2,2021-08-07 12:07:22.250272
1,2,2,0,0,1,-1,-1,2021-08-07 12:07:22.251269
1,4,3,3,3,2,-1,1,2021-08-07 12:07:22.271269
-4,-6,-9,-13,-10,-7,-4,-4,2021-08-07 12:07:22.271269
-1,-1,1,6,4,3,1,-3,2021-08-07 12:07:22.273268
-2,-1,1,4,5,1,-1,-2,2021-08-07 12:07:22.273268
-1,1,-1,2,-2,-2,-2,0,2021-08-07 12:07:22.286269
-2,-2,-5,-7,-8,-5,-3,-1,2021-08-07 12:07:22.286269
-3,-5,-6,-15,-13,-8,-5,-1,2021-08-07 12:07:22.288269
0,1,7,9,12,6,3,1,2021-08-07 12:07:22.288269
-3,0,-1,3,6,1,3,1,2021-08-07 12:07:22.301268
1,1,4,9,5,3,2,2,2021-08-07 12:07:22.301268
-4,-2,-4,-5,-6,-5,-4,-2,2021-08-07 12:07:22.303272
-1,0,-1,-2,-1,-1,0,0,2021-08-07 12:07:22.303272
-2,-5,-4,-6,-10,-5,-4,-4,2021-08-07 12:07:22.316269
1,1,3,-1,1,0,0,0,2021-08-07 12:07:22.316269
-2,-1,-4,-4,-2,-1,-2,-2,2021-08-07 12:07:22.322268
-1,0,-2,-2,-5,-2,0,-2,2021-08-07 12:07:22.323268
1,2,3,1,7,5,2,0,2021-08-07 12:07:22.339269
-3,-1,-4,-5,-5,-2,-2,-2,2021-08-07 12:07:22.339269
-1,1,-2,0,-2,-1,-1,-1,2021-08-07 12:07:22.340267
0,1,1,1,0,-2,-2,0,2021-08-07 12:07:22.341267
-1,-1,-1,1,0,-1,-2,-1,2021-08-07 12:07:22.361272
-2,-1,-2,-4,-2,-1,-1,-2,2021-08-07 12:07:22.361272
0,-2,-1,0,0,1,1,-1,2021-08-07 12:07:22.363268
-1,0,0,3,1,-1,-1,0,2021-08-07 12:07:22.363268
1,-1,0,2,3,0,0,-2,2021-08-07 12:07:22.376269
-4,-3,-2,-3,-7,-3,-2,-1,2021-08-07 12:07:22.376269
-3,-2,-7,-15,-17,-10,-3,-3,2021-08-07 12:07:22.382268
2,3,4,17,19,8,5,3,2021-08-07 12:07:22.383269
3,3,9,17,14,7,4,3,2021-08-07 12:07:22.399268
-1,-4,-5,-3,-5,-4,-3,-2,2021-08-07 12:07:22.399268
2,1,6,12,12,6,3,0,2021-08-07 12:07:22.400267
-2,-3,-3,-7,-6,-3,-3,-1,2021-08-07 12:07:22.400267
-2,0,-1,-4,-5,-3,-2,0,2021-08-07 12:07:22.421268
-2,-2,-2,-2,-3,-1,0,-1,2021-08-07 12:07:22.421268
0,0,-2,-4,-4,-4,-2,0,2021-08-07 12:07:22.423268
-3,-2,-4,-7,-7,-2,-2,-2,2021-08-07 12:07:22.423268
-1,-1,-2,-1,0,-1,-1,-1,2021-08-07 12:07:22.436271
0,-2,-2,-5,-4,-1,-1,-1,2021-08-07 12:07:22.436271
-1,-1,-3,2,0,-3,-2,-1,2021-08-07 12:07:22.444267
-1,-3,-2,-1,-1,1,-2,0,2021-08-07 12:07:22.444267
-2,-2,-1,-5,-5,-2,-2,-2,2021-08-07 12:07:22.459269
-1,-2,-2,-2,-3,-5,-2,-1,2021-08-07 12:07:22.459269
0,-1,2,5,9,2,1,2,2021-08-07 12:07:22.460267
0,0,0,1,-2,-2,-1,-3,2021-08-07 12:07:22.460267
-1,-2,-3,-7,-10,-6,-3,-3,2021-08-07 12:07:22.481267
-1,-1,-4,-3,-2,2,0,0,2021-08-07 12:07:22.481267
1,0,6,16,19,12,4,1,2021-08-07 12:07:22.483268
-3,-2,-3,-7,-9,-3,-3,-2,2021-08-07 12:07:22.483268
-1,-3,-4,-10,-10,-4,-3,-2,2021-08-07 12:07:22.495266
-4,-4,-3,0,0,-4,-1,-2,2021-08-07 12:07:22.496267
3,5,3,0,-1,0,2,4,2021-08-07 12:07:22.503272
1,2,1,4,2,1,1,-2,2021-08-07 12:07:22.503272
-3,-1,-4,-6,-3,-5,-2,-1,2021-08-07 12:07:22.519267
-1,-2,-4,-3,-3,-1,-3,-1,2021-08-07 12:07:22.519267
-3,-2,-2,-3,-2,-2,-2,-3,2021-08-07 12:07:22.520269
1,-1,-1,2,4,0,0,0,2021-08-07 12:07:22.520269
0,-1,1,5,6,4,0,0,2021-08-07 12:07:22.541267
-2,-3,-4,-6,-8,-4,-2,-2,2021-08-07 12:07:22.542268
-3,-4,-3,-8,-6,-4,-2,-1,2021-08-07 12:07:22.543268
-1,0,-1,-1,0,1,0,1,2021-08-07 12:07:22.543268
0,0,1,4,7,3,0,-1,2021-08-07 12:07:22.556268
1,3,2,1,0,-1,2,1,2021-08-07 12:07:22.556268
-2,-2,-3,-9,-2,1,0,0,2021-08-07 12:07:22.562268
-2,-3,0,0,-8,-5,-1,-2,2021-08-07 12:07:22.562268
-1,-2,-1,-1,4,2,0,-1,2021-08-07 12:07:22.579268
-2,-2,0,4,4,1,0,-2,2021-08-07 12:07:22.579268
0,0,1,-2,-4,-3,1,-1,2021-08-07 12:07:22.580268
-4,-5,-4,-5,-3,-2,-2,-1,2021-08-07 12:07:22.580268
1,1,-1,-1,-6,-4,-1,0,2021-08-07 12:07:22.601268
5,4,1,-5,-3,-1,-2,1,2021-08-07 12:07:22.602271
-2,-3,-4,-6,-11,-8,-4,-1,2021-08-07 12:07:22.603270
-2,-3,-2,2,10,5,2,1,2021-08-07 12:07:22.603270
-3,-5,-3,-2,-4,4,2,-1,2021-08-07 12:07:22.616271
2,5,6,7,13,8,3,2,2021-08-07 12:07:22.616271
-4,-5,-6,-4,-10,-8,-5,-4,2021-08-07 12:07:22.622268
1,2,-2,-6,-5,-5,-1,1,2021-08-07 12:07:22.623269
0,-1,1,3,9,2,1,0,2021-08-07 12:07:22.639269
1,-1,3,7,5,1,1,1,2021-08-07 12:07:22.639269
1,2,4,10,7,4,2,1,2021-08-07 12:07:22.640267
-4,-6,-2,-5,-5,-3,-1,-4,2021-08-07 12:07:22.641269
-3,-5,-7,-11,-11,-8,-4,-3,2021-08-07 12:07:22.661266
3,6,4,0,-2,1,0,1,2021-08-07 12:07:22.661266
-4,-3,-3,-5,-6,-4,-3,-2,2021-08-07 12:07:22.663266
-1,-1,-1,-2,-4,-4,-1,-1,2021-08-07 12:07:22.663266
0,-1,-2,2,2,0,1,1,2021-08-07 12:07:22.675267
-2,-4,-3,-2,-2,-4,-1,-1,2021-08-07 12:07:22.675267
-1,-3,-1,-1,-3,-1,-2,-2,2021-08-07 12:07:22.684266
0,1,-1,2,4,2,0,0,2021-08-07 12:07:22.684266
-1,0,1,3,0,1,3,1,2021-08-07 12:07:22.699269
-5,-4,-4,-6,-12,-7,-4,-2,2021-08-07 12:07:22.699269
1,0,1,9,17,10,4,1,2021-08-07 12:07:22.700267
0,2,4,12,15,6,2,-1,2021-08-07 12:07:22.700267
3,6,4,2,-4,-3,-1,2,2021-08-07 12:07:22.721268
-7,-6,-6,-5,-9,-4,-3,-6,2021-08-07 12:07:22.721268
0,-1,-4,-13,-19,-7,-3,1,2021-08-07 12:07:22.723269
1,0,1,-2,3,0,-1,1,2021-08-07 12:07:22.723269
-3,-2,-2,3,4,2,-1,-1,2021-08-07 12:07:22.735268
-1,0,-1,3,6,2,2,-1,2021-08-07 12:07:22.735268
-1,-2,0,1,1,-1,-1,-2,2021-08-07 12:07:22.744268
-1,1,0,0,-6,-1,-2,-1,2021-08-07 12:07:22.744268
2,1,1,0,-3,-1,0,0,2021-08-07 12:07:22.759268
-1,-3,-2,-5,-2,-3,-3,-1,2021-08-07 12:07:22.759268
-2,-3,-3,-2,0,-1,-1,-1,2021-08-07 12:07:22.760268
-2,-2,-3,-4,-6,-4,-3,0,2021-08-07 12:07:22.760268
0,0,-2,-4,-3,-3,-3,-2,2021-08-07 12:07:22.781268
-2,0,-1,1,6,3,1,-1,2021-08-07 12:07:22.782268
0,1,4,5,5,2,2,0,2021-08-07 12:07:22.783268
-1,-3,-5,-9,-8,-4,-2,-2,2021-08-07 12:07:22.783268
-4,-1,-1,3,-3,-3,-2,-1,2021-08-07 12:07:22.795267
-1,-1,0,-1,-1,-2,1,-1,2021-08-07 12:07:22.795267
1,3,2,9,10,4,1,1,2021-08-07 12:07:22.804267
-2,-1,-3,-3,-3,-1,-1,0,2021-08-07 12:07:22.804267
-5,-4,-8,-10,-7,-4,-4,-4,2021-08-07 12:07:22.819268
2,3,4,3,2,0,0,0,2021-08-07 12:07:22.819268
2,3,1,3,2,2,1,1,2021-08-07 12:07:22.820269
1,2,4,3,0,0,2,1,2021-08-07 12:07:22.820269
0,-1,-2,-3,-3,-2,-2,0,2021-08-07 12:07:22.841269
-8,-11,-10,-10,-9,-6,-6,-6,2021-08-07 12:07:22.841269
3,3,3,1,0,0,0,0,2021-08-07 12:07:22.843268
4,5,0,-6,-8,-4,-1,2,2021-08-07 12:07:22.843268
1,-1,1,1,9,5,1,3,2021-08-07 12:07:22.855268
0,1,3,9,4,2,0,0,2021-08-07 12:07:22.856268
-4,-3,-2,2,4,1,-1,-1,2021-08-07 12:07:22.864267
-1,0,-2,0,-4,-2,0,0,2021-08-07 12:07:22.864267
-4,0,-3,-12,-10,-6,-5,-4,2021-08-07 12:07:22.879268
1,1,-2,-1,4,2,0,0,2021-08-07 12:07:22.879268
0,0,5,9,0,-2,1,1,2021-08-07 12:07:22.880268
-1,-4,-7,-11,-12,-7,-4,-1,2021-08-07 12:07:22.881268
0,1,6,18,24,12,6,5,2021-08-07 12:07:22.901268
-2,-1,-2,-4,-3,1,2,1,2021-08-07 12:07:22.901268
-5,-2,-2,-3,-1,-1,-2,-3,2021-08-07 12:07:22.903269
-3,-2,2,1,1,1,-3,-5,2021-08-07 12:07:22.903269
-2,-3,0,-3,-8,-5,-4,-4,2021-08-07 12:07:22.915266
-2,2,0,-3,-4,-2,-3,1,2021-08-07 12:07:22.916268
-1,0,-3,-6,-5,-3,-2,-1,2021-08-07 12:07:22.924268
2,-1,-1,0,3,0,1,1,2021-08-07 12:07:22.924268
2,1,-3,-4,-9,-2,0,1,2021-08-07 12:07:22.939268
1,1,1,6,6,3,2,1,2021-08-07 12:07:22.939268
-3,-5,-8,-8,-9,-6,-2,-2,2021-08-07 12:07:22.940267
-4,-3,-7,-12,-12,-6,-5,-5,2021-08-07 12:07:22.941268
3,4,8,20,20,7,6,1,2021-08-07 12:07:22.961268
4,6,7,10,14,7,3,3,2021-08-07 12:07:22.962268
-2,-2,-2,-3,-4,-2,-3,-1,2021-08-07 12:07:22.963267
-2,-5,-5,-9,-10,-5,-3,-2,2021-08-07 12:07:22.963267
-5,-6,-5,-6,-5,-5,-2,-3,2021-08-07 12:07:22.975267
1,0,5,9,7,4,2,1,2021-08-07 12:07:22.975267
-2,-2,-4,-9,-7,-4,-2,-2,2021-08-07 12:07:22.984267
1,0,4,9,9,4,2,1,2021-08-07 12:07:22.984267
-3,0,-4,-9,-11,-5,-3,-2,2021-08-07 12:07:22.999269
-2,-2,-4,-5,-5,-2,-2,-3,2021-08-07 12:07:22.999269
-2,-1,0,1,2,1,-1,-1,2021-08-07 12:07:23.000269
1,-1,-1,2,2,1,0,0,2021-08-07 12:07:23.000269
0,-1,-2,-6,-5,-3,-2,0,2021-08-07 12:07:23.021268
-2,-3,-4,-5,-8,-5,-3,-2,2021-08-07 12:07:23.022268
0,1,-3,-8,-5,-2,-2,-1,2021-08-07 12:07:23.023268
0,1,5,10,12,6,1,0,2021-08-07 12:07:23.024268
0,0,2,3,4,2,1,2,2021-08-07 12:07:23.035267
-2,-4,-4,-9,-9,-6,-4,-2,2021-08-07 12:07:23.035267
-2,-3,-5,-7,-9,-3,-3,0,2021-08-07 12:07:23.044268
-3,2,2,3,8,2,-1,-2,2021-08-07 12:07:23.044268
1,0,2,7,4,4,2,1,2021-08-07 12:07:23.059267
1,0,-3,-5,-10,-4,-2,0,2021-08-07 12:07:23.059267
-2,-1,-2,1,3,0,0,0,2021-08-07 12:07:23.060267
-6,-3,-3,-4,-8,-8,-5,-4,2021-08-07 12:07:23.061268
-3,-3,-4,-5,-4,-4,-4,-4,2021-08-07 12:07:23.089270
-2,-2,-3,-4,-2,-3,-3,-2,2021-08-07 12:07:23.089270
4,1,1,-1,2,2,3,1,2021-08-07 12:07:23.090268
4,4,3,11,10,4,3,3,2021-08-07 12:07:23.091269
-4,-2,-3,-8,-9,-7,-4,-4,2021-08-07 12:07:23.104270
0,-2,-1,-1,0,-1,-1,1,2021-08-07 12:07:23.104270
0,0,0,3,6,3,1,-2,2021-08-07 12:07:23.105269
0,0,-3,-3,-6,-1,0,0,2021-08-07 12:07:23.105269
0,0,-2,-7,-3,-2,0,1,2021-08-07 12:07:23.119268
0,-2,-3,-2,-6,-2,0,-2,2021-08-07 12:07:23.119268
0,0,3,5,4,-2,-2,-3,2021-08-07 12:07:23.120268
-3,0,2,4,2,1,2,-1,2021-08-07 12:07:23.120268
0,0,-1,0,-4,-1,1,1,2021-08-07 12:07:23.141269
-1,-2,-2,-6,-2,1,1,0,2021-08-07 12:07:23.142269
2,1,-1,3,3,0,-1,0,2021-08-07 12:07:23.143269
-1,0,-2,-6,-7,-5,-6,-3,2021-08-07 12:07:23.143269
-2,-3,-1,2,4,-2,-3,-4,2021-08-07 12:07:23.164267
-6,-5,-4,-4,-7,-5,-4,-1,2021-08-07 12:07:23.164267
4,6,4,6,5,6,5,6,2021-08-07 12:07:23.165266
8,3,2,1,2,3,6,7,2021-08-07 12:07:23.166268
1,1,1,2,-1,1,0,0,2021-08-07 12:07:23.179268
-11,-10,-6,-4,-4,-11,-13,-13,2021-08-07 12:07:23.179268
-1,0,-3,-4,-5,-5,-5,-1,2021-08-07 12:07:23.180268
-2,-3,-2,-6,-8,-4,-2,-3,2021-08-07 12:07:23.180268
4,4,5,12,13,6,6,4,2021-08-07 12:07:23.201268
-1,-3,-2,-5,-3,-1,1,0,2021-08-07 12:07:23.201268
-2,-2,1,3,2,0,-1,0,2021-08-07 12:07:23.203267
-2,-1,2,4,1,1,-1,0,2021-08-07 12:07:23.203267
0,-3,-6,-11,-14,-6,-5,-1,2021-08-07 12:07:23.224269
-2,-1,-4,-7,-3,-1,0,1,2021-08-07 12:07:23.224269
4,6,9,14,7,3,3,3,2021-08-07 12:07:23.225267
2,-2,-4,-4,3,4,2,0,2021-08-07 12:07:23.225267
-1,1,4,19,19,7,2,-1,2021-08-07 12:07:23.238266
-2,1,-2,-8,-10,-6,-3,-3,2021-08-07 12:07:23.238266
-4,-6,-9,-12,-14,-7,-4,-3,2021-08-07 12:07:23.245269
-3,-5,-3,-3,-5,-3,-2,-2,2021-08-07 12:07:23.245269
-1,-3,-5,-9,-10,-4,-2,-1,2021-08-07 12:07:23.261269
3,3,2,6,8,4,2,3,2021-08-07 12:07:23.262268
-3,-2,1,4,6,2,-1,-2,2021-08-07 12:07:23.263268
-2,0,-2,-4,-4,-2,-2,-1,2021-08-07 12:07:23.263268
-3,-4,-2,-10,-13,-7,-4,-5,2021-08-07 12:07:23.284269
3,2,7,16,12,6,3,2,2021-08-07 12:07:23.284269
-3,-4,-3,1,1,0,-2,-3,2021-08-07 12:07:23.285267
3,4,1,-1,-1,1,-1,3,2021-08-07 12:07:23.286268
-1,0,1,2,5,1,0,1,2021-08-07 12:07:23.298267
0,-1,-2,-3,-5,-2,-1,-1,2021-08-07 12:07:23.298267
-4,-5,-2,-6,-6,-4,-4,-3,2021-08-07 12:07:23.305268
-1,-1,0,-1,0,-1,0,0,2021-08-07 12:07:23.305268
1,2,-1,-6,-7,-1,2,0,2021-08-07 12:07:23.329266
0,0,2,7,11,6,2,1,2021-08-07 12:07:23.329266
-2,-2,-4,-6,-8,-5,-2,-2,2021-08-07 12:07:23.330267
-3,-2,-3,3,-1,-5,-3,-2,2021-08-07 12:07:23.330267
-1,2,-3,-8,-2,-1,0,1,2021-08-07 12:07:23.344267
-1,-1,-1,0,1,-1,-2,-1,2021-08-07 12:07:23.344267
-1,-2,-4,-8,-7,-2,-1,-1,2021-08-07 12:07:23.345269
1,1,1,-1,-1,0,1,-1,2021-08-07 12:07:23.346267
-3,-3,2,7,0,0,-1,-2,2021-08-07 12:07:23.358269
0,-2,-2,-3,1,0,-1,-2,2021-08-07 12:07:23.358269
0,2,3,1,-1,-2,1,0,2021-08-07 12:07:23.365267
-1,1,-1,-5,-5,-3,-2,-3,2021-08-07 12:07:23.365267
-2,-1,-2,-6,-4,-5,-3,-1,2021-08-07 12:07:23.382270
1,2,0,1,-4,-3,-1,1,2021-08-07 12:07:23.383269
1,0,-3,-3,2,1,-1,1,2021-08-07 12:07:23.384266
-1,-1,2,7,18,8,3,2,2021-08-07 12:07:23.384266
-2,-1,1,0,-1,0,-1,-2,2021-08-07 12:07:23.404268
0,-1,-1,-2,-2,-1,-1,1,2021-08-07 12:07:23.404268
-4,-3,-6,-9,-6,-4,-2,-3,2021-08-07 12:07:23.410272
-1,-2,-3,-7,-6,-2,-2,-1,2021-08-07 12:07:23.410272
-1,-1,1,6,9,2,-1,0,2021-08-07 12:07:23.418266
-1,-1,-3,-4,-9,-5,-1,-1,2021-08-07 12:07:23.418266
-2,-2,-2,2,11,7,3,1,2021-08-07 12:07:23.432268
1,3,2,6,2,2,2,1,2021-08-07 12:07:23.433269
-1,-1,-4,-10,-9,-6,-2,-2,2021-08-07 12:07:23.441267
0,-3,-5,-8,-5,-3,-1,0,2021-08-07 12:07:23.442268
2,0,2,5,0,0,1,-1,2021-08-07 12:07:23.443268
-1,-1,1,7,6,4,1,0,2021-08-07 12:07:23.443268
-1,0,-1,0,0,0,0,-3,2021-08-07 12:07:23.464269
-2,0,0,1,-1,1,-2,-2,2021-08-07 12:07:23.464269
2,4,0,-3,-3,-2,1,1,2021-08-07 12:07:23.465268
0,-1,-2,-5,-6,-4,-1,-1,2021-08-07 12:07:23.465268
-2,-5,-4,-5,-9,-4,-3,-3,2021-08-07 12:07:23.478268
-2,-1,-2,0,3,0,-2,-3,2021-08-07 12:07:23.478268
1,2,4,3,5,2,1,3,2021-08-07 12:07:23.502267
-3,-2,-2,-5,-6,-3,-3,-4,2021-08-07 12:07:23.502267
-2,-2,-2,0,0,2,-1,-1,2021-08-07 12:07:23.503269
-3,-2,-1,1,-3,-1,-1,1,2021-08-07 12:07:23.503269
0,-1,2,-4,-2,-2,-3,-2,2021-08-07 12:07:23.504268
-2,-3,-3,-2,1,-2,-4,-1,2021-08-07 12:07:23.504268
1,-2,-3,-4,-3,0,-1,-1,2021-08-07 12:07:23.524269
-1,0,0,-4,-3,0,0,0,2021-08-07 12:07:23.524269
2,5,4,13,13,9,3,3,2021-08-07 12:07:23.525269
-1,-1,-3,-6,-10,-7,-2,0,2021-08-07 12:07:23.525269
1,0,2,-1,-1,0,-1,0,2021-08-07 12:07:23.546268
0,0,-1,1,5,1,0,-3,2021-08-07 12:07:23.546268
-3,-3,-3,-9,-9,-7,-3,-2,2021-08-07 12:07:23.548267
2,0,2,10,14,8,3,0,2021-08-07 12:07:23.548267
-3,-1,-4,-4,-4,-3,-3,-2,2021-08-07 12:07:23.561266
-2,-1,0,-7,-6,-4,-2,-1,2021-08-07 12:07:23.561266
-1,-3,-4,-6,-7,-4,-3,0,2021-08-07 12:07:23.575269
0,1,1,2,3,1,0,2,2021-08-07 12:07:23.575269
-1,-2,-4,-1,-3,-3,-1,0,2021-08-07 12:07:23.584267
-1,-3,-1,-1,0,1,-1,-1,2021-08-07 12:07:23.584267
-3,-2,-5,-5,-6,-4,-2,-3,2021-08-07 12:07:23.590269
2,2,3,6,4,3,0,1,2021-08-07 12:07:23.590269
1,1,3,4,3,1,0,-1,2021-08-07 12:07:23.597266
-1,-1,-1,3,-2,-4,-1,-1,2021-08-07 12:07:23.598267
-4,-6,-4,-10,-8,-3,-2,-3,2021-08-07 12:07:23.607268
1,0,-1,-1,4,2,2,1,2021-08-07 12:07:23.607268
1,1,-1,1,-2,-3,0,-1,2021-08-07 12:07:23.621268
-2,-1,1,6,7,2,1,0,2021-08-07 12:07:23.621268
1,2,3,5,-3,-1,0,2,2021-08-07 12:07:23.623268
-3,-2,-5,-10,-9,-6,-3,-3,2021-08-07 12:07:23.623268
-2,-2,0,1,1,0,-1,-2,2021-08-07 12:07:23.644270
1,1,-1,-1,0,1,1,0,2021-08-07 12:07:23.644270
0,0,0,-1,0,1,-1,-2,2021-08-07 12:07:23.645269
-4,-3,-6,-7,-7,-5,-2,-3,2021-08-07 12:07:23.645269
-1,-2,-2,2,-1,-2,1,1,2021-08-07 12:07:23.657268
0,1,-1,1,8,3,2,-1,2021-08-07 12:07:23.658268
-1,-2,-4,0,-1,1,-1,-2,2021-08-07 12:07:23.666268
0,0,4,1,-1,-2,-1,2,2021-08-07 12:07:23.666268
-3,-2,-3,-3,-1,-2,-2,-1,2021-08-07 12:07:23.705267
-2,-1,-1,1,-2,-1,-2,-1,2021-08-07 12:07:23.705267
-2,-2,-3,-9,-11,-6,-3,-2,2021-08-07 12:07:23.707269
-1,-4,-1,3,6,3,0,-1,2021-08-07 12:07:23.707269
-2,-1,1,-3,-3,-2,-1,0,2021-08-07 12:07:23.708273
1,1,3,-2,-3,-1,2,2,2021-08-07 12:07:23.708273
1,1,4,9,12,6,2,0,2021-08-07 12:07:23.711269
-5,-3,-3,-8,-13,-8,-3,-3,2021-08-07 12:07:23.712268
-2,-4,-3,-8,-4,-3,-3,-1,2021-08-07 12:07:23.717267
1,1,2,3,6,3,2,0,2021-08-07 12:07:23.717267
0,-2,-5,-8,-11,-5,-1,-2,2021-08-07 12:07:23.726269
-1,-1,1,4,5,0,-2,-2,2021-08-07 12:07:23.726269
-1,0,1,3,9,4,1,0,2021-08-07 12:07:23.741267
0,1,-2,-4,-2,-2,-1,0,2021-08-07 12:07:23.742269
-2,1,-1,-1,-2,-2,0,0,2021-08-07 12:07:23.743269
1,0,0,6,6,3,2,1,2021-08-07 12:07:23.743269
1,-1,-2,-2,-1,-2,0,-2,2021-08-07 12:07:23.764269
-1,-5,-8,-12,-17,-9,-4,-2,2021-08-07 12:07:23.764269
0,-2,-2,-1,4,2,0,1,2021-08-07 12:07:23.765269
1,1,5,11,10,8,4,3,2021-08-07 12:07:23.766268
-3,-2,2,0,-1,-1,-3,-4,2021-08-07 12:07:23.777268
-6,-4,-2,0,-1,-1,-3,-4,2021-08-07 12:07:23.778270
0,4,4,0,-4,-5,-3,0,2021-08-07 12:07:23.786270
0,3,1,-8,-7,-5,-3,0,2021-08-07 12:07:23.787267
0,0,-3,-2,-5,-2,-1,0,2021-08-07 12:07:23.801268
0,0,-1,3,3,0,0,0,2021-08-07 12:07:23.802269
-2,-4,-2,0,0,0,-1,-1,2021-08-07 12:07:23.803268
-1,-2,-5,-5,-3,-1,0,-2,2021-08-07 12:07:23.803268
0,2,3,9,4,1,1,2,2021-08-07 12:07:23.824269
-2,-3,-5,-10,-11,-5,-3,-1,2021-08-07 12:07:23.824269
3,4,8,19,17,10,4,2,2021-08-07 12:07:23.825268
0,-1,0,-3,2,2,1,0,2021-08-07 12:07:23.825268
-3,-4,-5,-5,-6,-4,-4,-1,2021-08-07 12:07:23.837268
-4,-2,-2,-9,-14,-7,-7,-3,2021-08-07 12:07:23.838268
0,-2,-1,-5,4,1,-2,-1,2021-08-07 12:07:23.846269
2,2,4,19,14,8,2,2,2021-08-07 12:07:23.847268
2,3,2,-2,-2,1,2,0,2021-08-07 12:07:23.861269
-1,-1,-1,1,3,1,-1,-1,2021-08-07 12:07:23.862269
1,3,0,-3,-5,-4,-1,1,2021-08-07 12:07:23.863269
-5,-3,-5,-10,-14,-11,-6,-4,2021-08-07 12:07:23.863269
-1,-1,0,2,4,0,-1,-1,2021-08-07 12:07:23.884268
2,3,2,7,5,3,2,1,2021-08-07 12:07:23.884268
-5,-5,-3,-5,-3,-1,-2,-4,2021-08-07 12:07:23.885269
0,-1,-1,-4,-4,-1,-2,-1,2021-08-07 12:07:23.886271
-3,-2,-3,-3,-2,-1,-1,-2,2021-08-07 12:07:23.897268
1,2,0,-3,0,-1,0,-1,2021-08-07 12:07:23.898269
-2,-2,-3,0,-4,-1,0,0,2021-08-07 12:07:23.907269
0,1,4,3,3,0,0,1,2021-08-07 12:07:23.907269
-1,-2,-4,-8,-5,-4,-3,-3,2021-08-07 12:07:23.922267
0,-3,-5,-7,-5,-3,-2,0,2021-08-07 12:07:23.922267
1,2,4,14,10,4,3,1,2021-08-07 12:07:23.923268
-1,-1,-2,-6,-5,-1,-1,-3,2021-08-07 12:07:23.924270
-3,-4,-5,-8,-9,-7,-4,-2,2021-08-07 12:07:23.944268
3,2,6,12,14,7,4,2,2021-08-07 12:07:23.944268
4,2,3,7,11,3,3,2,2021-08-07 12:07:23.945268
-3,-2,-2,-9,-9,-5,-4,-1,2021-08-07 12:07:23.945268
-3,-2,-5,-3,-6,-4,-3,-1,2021-08-07 12:07:23.957268
-4,-4,-5,-10,-5,-1,-1,0,2021-08-07 12:07:23.958268
0,-1,1,9,6,2,2,0,2021-08-07 12:07:23.966269
-3,-2,-4,0,0,0,-3,-2,2021-08-07 12:07:23.967268
-1,0,0,-2,-3,-2,-2,-1,2021-08-07 12:07:23.981268
-2,-1,0,4,-3,-3,-1,-1,2021-08-07 12:07:23.981268
0,1,2,3,5,3,1,-1,2021-08-07 12:07:23.983267
0,0,-2,-3,-3,-1,0,-1,2021-08-07 12:07:23.983267
-3,-1,-3,2,2,1,-1,-1,2021-08-07 12:07:24.004267
-3,-4,-5,-6,-7,-4,-5,-2,2021-08-07 12:07:24.004267
1,2,3,3,1,0,-1,1,2021-08-07 12:07:24.006268
-3,-3,-2,-2,-6,-3,-2,-2,2021-08-07 12:07:24.006268
0,2,-1,-4,-1,-1,0,-1,2021-08-07 12:07:24.026267
2,0,2,5,7,4,1,0,2021-08-07 12:07:24.026267
-3,-3,-5,-7,-2,-3,-3,-1,2021-08-07 12:07:24.028269
-2,-2,-1,0,1,0,-1,-1,2021-08-07 12:07:24.028269
1,-2,1,-2,-5,-1,0,0,2021-08-07 12:07:24.048267
-1,1,1,2,3,0,1,-2,2021-08-07 12:07:24.048267
-2,-1,-7,-14,-10,-4,-2,-2,2021-08-07 12:07:24.056267
1,2,4,10,7,3,0,-1,2021-08-07 12:07:24.057270
-1,-1,-1,1,4,2,2,-2,2021-08-07 12:07:24.063268
1,2,5,8,9,5,1,0,2021-08-07 12:07:24.063268
-4,-3,-4,-9,-7,-3,-2,-3,2021-08-07 12:07:24.079267
-2,-3,-3,-8,-5,-4,-1,1,2021-08-07 12:07:24.079267
-1,-1,3,3,0,-1,-2,-2,2021-08-07 12:07:24.086268
-1,-1,-2,-3,-5,-1,-2,-1,2021-08-07 12:07:24.086268
-1,-2,-2,-2,-6,-2,-2,0,2021-08-07 12:07:24.088268
-2,-2,-3,-4,-2,-2,-2,-1,2021-08-07 12:07:24.088268
1,0,2,1,1,2,0,0,2021-08-07 12:07:24.109268
2,4,3,1,1,1,1,3,2021-08-07 12:07:24.109268
-1,-2,-5,-7,-4,-2,0,-1,2021-08-07 12:07:24.110268
0,3,5,8,1,3,1,0,2021-08-07 12:07:24.110268
-4,-6,-5,-8,-9,-6,-4,-4,2021-08-07 12:07:24.124269
3,4,3,-2,0,1,2,3,2021-08-07 12:07:24.124269
2,2,5,16,21,10,3,2,2021-08-07 12:07:24.125268
-2,-2,-4,-2,-1,-3,-1,-3,2021-08-07 12:07:24.125268
-2,-1,1,0,2,1,-1,-1,2021-08-07 12:07:24.146266
-4,-5,-5,-6,-9,-7,-4,-3,2021-08-07 12:07:24.146266
-1,-2,-1,-5,-7,-3,-2,0,2021-08-07 12:07:24.148269
0,-2,-4,-6,-1,-1,1,1,2021-08-07 12:07:24.148269
0,0,-1,-2,-3,-3,-1,1,2021-08-07 12:07:24.161269
-2,-3,-6,-12,-7,-3,-4,-1,2021-08-07 12:07:24.161269
2,4,11,27,19,8,4,3,2021-08-07 12:07:24.163269
-2,-4,-4,-2,-1,-1,-3,-2,2021-08-07 12:07:24.163269
-3,-2,-5,-12,-9,-4,-2,-2,2021-08-07 12:07:24.184268
-2,-2,-3,2,3,-1,-2,-3,2021-08-07 12:07:24.184268
-3,-2,-4,-9,-4,-4,-2,-2,2021-08-07 12:07:24.185269
1,1,0,3,2,-1,-1,0,2021-08-07 12:07:24.185269
3,2,5,9,10,6,3,3,2021-08-07 12:07:24.207267
0,-2,0,1,-2,-2,0,-2,2021-08-07 12:07:24.207267
-2,-2,-7,-11,-14,-7,-4,-5,2021-08-07 12:07:24.212268
-5,-6,-10,-19,-23,-13,-6,-4,2021-08-07 12:07:24.213269
0,-1,3,9,17,7,3,-1,2021-08-07 12:07:24.221270
1,0,2,4,-1,-1,1,1,2021-08-07 12:07:24.221270
1,-1,-1,0,0,0,-2,-1,2021-08-07 12:07:24.227269
-1,-1,-1,-4,-3,0,-1,-1,2021-08-07 12:07:24.228270
0,-2,-3,-7,-5,-3,-2,-3,2021-08-07 12:07:24.244268
0,0,-1,4,2,-1,1,0,2021-08-07 12:07:24.244268
-2,-2,2,-1,-3,0,-1,-1,2021-08-07 12:07:24.245819
0,0,-2,-7,-6,-2,-1,-2,2021-08-07 12:07:24.245819
0,1,1,10,10,5,2,2,2021-08-07 12:07:24.266319
1,-1,0,4,7,4,0,-1,2021-08-07 12:07:24.266319
-2,0,-2,-7,-10,-5,-2,-1,2021-08-07 12:07:24.268317
-4,-5,-2,-2,1,0,-1,-3,2021-08-07 12:07:24.268317
1,0,0,1,-2,-3,-2,0,2021-08-07 12:07:24.280319
1,2,-1,-2,-6,-2,-1,0,2021-08-07 12:07:24.281319
1,3,-1,-5,1,1,1,1,2021-08-07 12:07:24.287320
0,-1,-2,0,0,-2,-3,-2,2021-08-07 12:07:24.287320
-3,-4,-4,-4,-4,-2,-4,-2,2021-08-07 12:07:24.319318
-4,-3,-3,-5,-3,-2,-3,-2,2021-08-07 12:07:24.319318
-1,-3,-3,-7,-6,-3,-1,-2,2021-08-07 12:07:24.320319
0,3,6,14,14,6,2,-1,2021-08-07 12:07:24.320319
-3,-3,-8,-16,-17,-8,-5,-2,2021-08-07 12:07:24.326319
-3,-4,-3,-3,-1,0,-2,-3,2021-08-07 12:07:24.326319
-2,-1,-3,-7,2,0,0,0,2021-08-07 12:07:24.328317
1,2,7,17,13,5,2,1,2021-08-07 12:07:24.328317
-1,0,0,2,0,0,-1,-1,2021-08-07 12:07:24.341320
-1,1,1,2,-1,-1,0,0,2021-08-07 12:07:24.341320
-6,-4,-6,-12,-13,-9,-5,-5,2021-08-07 12:07:24.348316
-1,0,-3,-5,-1,-1,-2,-1,2021-08-07 12:07:24.348316
0,0,-2,-11,-10,-6,-4,0,2021-08-07 12:07:24.363317
-1,-1,1,5,5,1,-1,0,2021-08-07 12:07:24.363317
3,1,5,9,11,7,2,1,2021-08-07 12:07:24.364318
1,-1,-3,-6,-10,-3,-2,0,2021-08-07 12:07:24.364318
-2,-3,-3,2,5,2,2,-1,2021-08-07 12:07:24.386323
-2,-1,0,-3,-4,-3,-1,-2,2021-08-07 12:07:24.386323
-2,-1,-1,4,-2,-2,-2,-1,2021-08-07 12:07:24.386323
-3,-4,-5,-18,-17,-9,-5,-2,2021-08-07 12:07:24.386323
-1,-2,3,18,23,8,4,0,2021-08-07 12:07:24.400318
2,3,4,1,2,2,-1,2,2021-08-07 12:07:24.400318
2,3,2,6,5,3,2,1,2021-08-07 12:07:24.408319
-2,-2,-4,-11,-13,-7,-4,-2,2021-08-07 12:07:24.408319
0,0,0,1,-3,-1,-1,0,2021-08-07 12:07:24.423317
1,-1,0,5,5,2,1,0,2021-08-07 12:07:24.423317
-3,-4,-4,-8,-12,-9,-5,-4,2021-08-07 12:07:24.424319
-1,-1,1,1,7,4,1,-1,2021-08-07 12:07:24.424319
1,0,4,9,6,3,2,0,2021-08-07 12:07:24.445317
-1,0,0,2,4,4,2,2,2021-08-07 12:07:24.446317
-1,-2,-2,-7,-8,-3,-4,-2,2021-08-07 12:07:24.446317
-1,-4,-7,-11,-12,-8,-4,-5,2021-08-07 12:07:24.446317
2,2,2,-2,-2,0,-1,2,2021-08-07 12:07:24.460318
-2,-2,-1,7,11,3,1,-4,2021-08-07 12:07:24.460318
-3,-4,-6,-12,-7,-5,-3,-3,2021-08-07 12:07:24.468316
4,5,9,21,27,15,5,4,2021-08-07 12:07:24.468316
1,2,-2,-12,-12,-5,-2,0,2021-08-07 12:07:24.491316
-1,-2,-1,-1,2,1,0,0,2021-08-07 12:07:24.491316
-3,-3,-5,-8,-3,-1,-1,-1,2021-08-07 12:07:24.492316
-1,0,1,8,2,1,1,0,2021-08-07 12:07:24.492316
-1,1,0,0,-3,-1,-2,-2,2021-08-07 12:07:24.505318
-1,-2,-2,-2,-5,-4,-2,0,2021-08-07 12:07:24.506318
2,0,3,4,0,1,1,1,2021-08-07 12:07:24.507318
2,-1,0,-2,-2,-1,0,1,2021-08-07 12:07:24.507318
3,1,-1,-3,0,5,11,6,2021-08-07 12:07:24.521318
1,0,-2,-7,-11,-3,-2,-3,2021-08-07 12:07:24.521318
-10,-7,-3,3,-8,-19,-21,-15,2021-08-07 12:07:24.528318
-8,-6,-9,-10,-5,-11,-15,-8,2021-08-07 12:07:24.528318
1,2,4,4,7,3,2,0,2021-08-07 12:07:24.544319
0,-1,0,2,0,5,5,1,2021-08-07 12:07:24.544319
6,5,3,5,11,10,11,8,2021-08-07 12:07:24.544319
-1,0,1,2,-5,-3,0,-1,2021-08-07 12:07:24.545319
-3,-4,-4,-6,-4,-3,-3,-4,2021-08-07 12:07:24.574321
0,-2,-9,-16,-14,-5,0,2,2021-08-07 12:07:24.574321
0,2,8,18,19,9,5,1,2021-08-07 12:07:24.574321
0,1,3,13,12,5,2,-1,2021-08-07 12:07:24.575319
0,1,0,-2,0,0,-1,-2,2021-08-07 12:07:24.580317
-2,-2,-3,-4,-8,-7,-3,-2,2021-08-07 12:07:24.580317
2,2,3,1,-8,-4,-1,1,2021-08-07 12:07:24.588316
-2,-2,-4,-6,-3,-2,1,0,2021-08-07 12:07:24.588316
-3,-3,-2,2,3,0,-3,-4,2021-08-07 12:07:24.603318
1,0,-4,-17,-20,-11,-6,-2,2021-08-07 12:07:24.603318
0,2,0,-2,8,7,4,2,2021-08-07 12:07:24.604318
-1,-1,3,10,10,7,4,2,2021-08-07 12:07:24.604318
-1,-3,-6,-6,-10,-8,-7,-2,2021-08-07 12:07:24.625319
-4,-4,-8,-10,-1,-4,-4,-2,2021-08-07 12:07:24.626317
-2,-4,-6,-11,-8,-4,0,2,2021-08-07 12:07:24.626317
2,2,5,6,8,5,3,2,2021-08-07 12:07:24.626317
-5,-1,-2,-2,-3,-4,-5,-5,2021-08-07 12:07:24.640319
-7,-3,-2,-1,-8,-3,-4,-7,2021-08-07 12:07:24.641319
-4,-4,-10,-22,-15,-7,-6,-3,2021-08-07 12:07:24.648317
5,5,7,21,22,10,4,6,2021-08-07 12:07:24.648317
3,2,4,10,9,3,3,3,2021-08-07 12:07:24.663316
4,3,3,6,5,2,1,1,2021-08-07 12:07:24.663316
0,-3,-6,-8,-14,-6,-3,-1,2021-08-07 12:07:24.664317
-5,-7,-11,-24,-22,-12,-6,-5,2021-08-07 12:07:24.664317
-1,-1,2,0,7,1,0,0,2021-08-07 12:07:24.686318
0,0,4,15,12,4,1,0,2021-08-07 12:07:24.686318
3,2,6,9,10,5,4,2,2021-08-07 12:07:24.687318
0,2,2,8,0,1,0,0,2021-08-07 12:07:24.687318
-3,-4,-8,-13,-17,-9,-5,-3,2021-08-07 12:07:24.700321
-4,-4,-1,-3,1,-2,-2,0,2021-08-07 12:07:24.700321
1,1,4,9,6,2,1,1,2021-08-07 12:07:24.708317
1,1,3,5,4,3,1,0,2021-08-07 12:07:24.708317
-5,-3,-1,1,-3,-1,-1,-3,2021-08-07 12:07:24.723318
0,0,-2,-3,4,1,0,1,2021-08-07 12:07:24.724322
0,-1,1,9,11,3,1,-1,2021-08-07 12:07:24.724322
1,1,2,-5,-4,-2,-1,1,2021-08-07 12:07:24.724322
-2,-3,-2,-3,-6,-5,-2,-1,2021-08-07 12:07:24.745318
-1,-2,0,1,-1,-2,1,-1,2021-08-07 12:07:24.746320
-2,-3,-5,-13,-15,-7,-3,-4,2021-08-07 12:07:24.746320
1,1,-1,1,4,1,1,0,2021-08-07 12:07:24.746320
-2,-1,-2,1,3,0,-1,-2,2021-08-07 12:07:24.760317
-3,-4,-6,-12,-14,-7,-4,-3,2021-08-07 12:07:24.760317
4,5,5,10,22,13,6,4,2021-08-07 12:07:24.768317
-5,-5,-6,-10,-13,-9,-5,-3,2021-08-07 12:07:24.768317
-1,1,1,4,3,2,1,0,2021-08-07 12:07:24.783319
-1,-1,1,-1,1,-3,-2,-3,2021-08-07 12:07:24.783319
0,2,0,0,-6,-4,-2,0,2021-08-07 12:07:24.784319
-5,-6,-3,-10,-7,-4,-3,-3,2021-08-07 12:07:24.784319
7,9,6,13,16,8,5,5,2021-08-07 12:07:24.805316
2,-1,0,-1,-1,-2,-2,-2,2021-08-07 12:07:24.806318
-6,-6,-7,-11,-17,-11,-6,-4,2021-08-07 12:07:24.806318
-1,-4,-7,-10,-6,-3,-1,-1,2021-08-07 12:07:24.806318
-2,-1,5,3,-3,-1,-1,-1,2021-08-07 12:07:24.821320
3,4,6,16,19,9,6,4,2021-08-07 12:07:24.822319
-2,-3,-4,-8,-7,-2,-3,-1,2021-08-07 12:07:24.828319
-1,-1,-5,-6,-5,-4,-5,-3,2021-08-07 12:07:24.828319
-3,-4,-6,-6,-7,-6,-4,-4,2021-08-07 12:07:24.843317
0,3,-2,-5,-9,-2,-1,2,2021-08-07 12:07:24.843317
1,0,2,12,14,8,5,1,2021-08-07 12:07:24.844317
0,0,1,-1,-2,0,0,1,2021-08-07 12:07:24.844317
-5,-6,-8,-19,-17,-9,-4,-3,2021-08-07 12:07:24.865320
0,3,8,24,30,13,4,3,2021-08-07 12:07:24.866320
-3,-2,-6,-10,-15,-7,-3,-2,2021-08-07 12:07:24.866320
-3,-4,-4,-4,-8,-6,-2,-2,2021-08-07 12:07:24.866320
-3,-7,-6,-4,-7,-1,-1,-4,2021-08-07 12:07:24.880321
5,5,4,1,-3,-1,4,3,2021-08-07 12:07:24.880321
-1,1,1,3,4,2,-2,2,2021-08-07 12:07:24.888318
0,2,2,3,11,3,1,0,2021-08-07 12:07:24.888318
-5,-6,-2,-4,-10,-7,-6,-4,2021-08-07 12:07:24.903319
-3,-3,-3,-6,-3,-1,-1,-3,2021-08-07 12:07:24.903319
0,1,1,2,-1,-1,-1,-3,2021-08-07 12:07:24.911321
-3,-4,-1,0,-7,-1,-1,-4,2021-08-07 12:07:24.911321
1,2,1,5,11,6,4,5,2021-08-07 12:07:24.934319
-3,-4,-8,-22,-28,-12,-5,-2,2021-08-07 12:07:24.934319
4,6,18,43,59,26,10,3,2021-08-07 12:07:24.934319
-1,-2,-7,-17,-16,-5,-3,-2,2021-08-07 12:07:24.935319
1,1,6,4,4,0,0,0,2021-08-07 12:07:24.940318
4,7,18,21,7,3,4,2,2021-08-07 12:07:24.940318
0,-3,1,-11,-19,-8,-1,-1,2021-08-07 12:07:24.948318
2,2,12,11,13,6,2,0,2021-08-07 12:07:24.948318
-3,-2,-21,-22,-2,-3,-3,-2,2021-08-07 12:07:24.963316
-5,-6,-24,-25,-8,-6,-5,-4,2021-08-07 12:07:24.963316
-12,-19,-30,-41,-24,-17,-11,-9,2021-08-07 12:07:24.964317
3,-3,0,11,8,7,3,1,2021-08-07 12:07:24.964317
1,1,10,4,-2,-2,1,2,2021-08-07 12:07:24.985318
0,3,6,10,3,3,3,0,2021-08-07 12:07:24.986319
1,6,7,8,1,-1,0,0,2021-08-07 12:07:24.986319
-3,-1,-2,-11,-15,-7,-4,-1,2021-08-07 12:07:24.987319
1,1,2,-4,-10,-4,-2,-2,2021-08-07 12:07:25.010317
1,-1,10,27,41,19,5,3,2021-08-07 12:07:25.010317
2,2,3,5,-11,-3,-1,-1,2021-08-07 12:07:25.010317
-4,-5,-9,-9,-5,-5,-4,-4,2021-08-07 12:07:25.011318
3,6,5,12,12,6,3,2,2021-08-07 12:07:25.023317
-1,-3,-6,-15,-15,-6,-5,-2,2021-08-07 12:07:25.024318
-2,-3,-4,-3,-7,-3,-2,0,2021-08-07 12:07:25.024318
2,0,2,0,-8,-5,-2,0,2021-08-07 12:07:25.024318
-2,-3,0,8,13,7,0,-2,2021-08-07 12:07:25.046319
1,1,4,5,2,4,3,1,2021-08-07 12:07:25.046319
-2,-3,-9,-19,-14,-8,-2,-1,2021-08-07 12:07:25.046319
-5,-5,-9,-3,-4,-2,-3,-4,2021-08-07 12:07:25.046319
0,-1,4,4,4,1,1,-1,2021-08-07 12:07:25.069320
-2,1,0,-7,-9,-5,-5,-1,2021-08-07 12:07:25.069320
-3,-5,-9,-5,-6,-3,-2,-1,2021-08-07 12:07:25.069320
2,5,-2,-5,6,2,4,4,2021-08-07 12:07:25.070318
0,0,0,5,2,-1,1,1,2021-08-07 12:07:25.083319
2,1,10,15,15,7,4,0,2021-08-07 12:07:25.083319
1,3,8,12,11,5,3,0,2021-08-07 12:07:25.084318
-5,-5,-5,-3,-7,-4,-4,-4,2021-08-07 12:07:25.084318
0,0,-3,-5,1,0,-1,-1,2021-08-07 12:07:25.106319
0,0,-4,-5,1,2,2,-1,2021-08-07 12:07:25.106319
0,-1,0,0,-4,-2,1,0,2021-08-07 12:07:25.107322
1,1,0,-2,-2,-2,-1,1,2021-08-07 12:07:25.107322
-5,-5,-5,-11,-16,-7,-5,-2,2021-08-07 12:07:25.128320
-1,-4,-3,1,6,0,0,-3,2021-08-07 12:07:25.128320
-1,1,2,4,2,0,-3,-1,2021-08-07 12:07:25.136321
0,2,2,3,1,3,0,0,2021-08-07 12:07:25.136321
0,0,-5,-11,-18,-7,-5,-1,2021-08-07 12:07:25.143318
0,-1,3,13,19,7,2,1,2021-08-07 12:07:25.143318
-1,-1,3,5,3,1,0,-1,2021-08-07 12:07:25.144319
-4,-6,-8,-16,-20,-12,-7,-4,2021-08-07 12:07:25.144319
-3,-3,5,1,1,-3,-1,-1,2021-08-07 12:07:25.165321
5,6,-3,5,9,6,5,3,2021-08-07 12:07:25.166319
-1,-1,2,7,11,4,1,0,2021-08-07 12:07:25.166319
-2,1,2,5,3,2,0,-1,2021-08-07 12:07:25.166319
-4,-6,-11,-15,-14,-9,-4,-3,2021-08-07 12:07:25.189320
-6,-7,-9,-22,-27,-14,-7,-5,2021-08-07 12:07:25.189320
2,3,7,16,15,7,4,3,2021-08-07 12:07:25.190324
0,0,-2,-3,-2,-2,0,1,2021-08-07 12:07:25.190324
0,-3,-4,4,5,4,0,-1,2021-08-07 12:07:25.203317
-2,-2,-3,-12,-9,-6,-4,-2,2021-08-07 12:07:25.203317
0,1,-4,-18,-24,-10,-4,-1,2021-08-07 12:07:25.204319
2,2,11,27,39,17,6,2,2021-08-07 12:07:25.204319
-3,-4,-6,-7,-7,-1,-3,-2,2021-08-07 12:07:25.226317
-2,-1,-3,3,-6,-3,-4,-1,2021-08-07 12:07:25.226317
2,3,3,-2,-6,-1,-1,2,2021-08-07 12:07:25.226317
-1,1,1,-7,-9,-4,0,0,2021-08-07 12:07:25.226317
4,5,7,15,18,10,5,4,2021-08-07 12:07:25.249319
-7,-8,-6,-5,-8,-8,-4,-5,2021-08-07 12:07:25.249319
-4,-10,-13,-16,-13,-7,-5,-3,2021-08-07 12:07:25.249319
6,6,7,13,9,5,5,4,2021-08-07 12:07:25.249319
-1,-1,1,1,-5,-3,-2,-1,2021-08-07 12:07:25.263356
-1,3,2,-3,-5,0,1,2,2021-08-07 12:07:25.263356
-3,-1,-4,0,4,0,-2,-2,2021-08-07 12:07:25.264319
-4,-7,-6,-4,-2,-1,-2,-4,2021-08-07 12:07:25.264319
1,1,-2,-10,-6,-2,1,2,2021-08-07 12:07:25.285321
-1,0,2,-7,-8,-5,-3,-2,2021-08-07 12:07:25.286321
1,3,5,10,4,2,1,0,2021-08-07 12:07:25.286321
-3,-3,-3,-1,6,0,-2,-1,2021-08-07 12:07:25.286321
0,2,4,11,10,3,1,0,2021-08-07 12:07:25.309318
-3,-4,-3,-4,-6,-4,-2,-1,2021-08-07 12:07:25.309318
0,-1,-4,-14,-8,-4,-1,-2,2021-08-07 12:07:25.309318
-3,-3,-5,-10,-9,-6,-5,-3,2021-08-07 12:07:25.310319
1,0,3,8,9,2,0,1,2021-08-07 12:07:25.323317
-2,-5,-7,-7,-4,-1,-1,-1,2021-08-07 12:07:25.323317
3,4,5,12,8,3,0,2,2021-08-07 12:07:25.324319
-4,-6,-9,-18,-18,-8,-4,-3,2021-08-07 12:07:25.324319
0,0,2,-3,-1,0,-2,-2,2021-08-07 12:07:25.345319
1,-1,0,9,7,6,1,2,2021-08-07 12:07:25.346319
-2,-1,4,18,26,9,2,-2,2021-08-07 12:07:25.346319
-1,-1,-3,-1,-8,-4,0,-1,2021-08-07 12:07:25.346319
-1,-2,-4,-8,-10,-4,-1,-1,2021-08-07 12:07:25.369319
0,-2,-4,-9,-6,-3,-3,-2,2021-08-07 12:07:25.369319
-1,0,-2,-7,-7,-4,-2,0,2021-08-07 12:07:25.369319
1,1,4,5,13,5,1,0,2021-08-07 12:07:25.370320
1,1,0,5,-1,-2,1,-1,2021-08-07 12:07:25.383318
-3,-4,-4,-3,-12,-8,-4,-2,2021-08-07 12:07:25.383318
1,1,-2,-3,-3,1,0,-1,2021-08-07 12:07:25.384318
-1,-1,0,-4,-4,-2,-2,-2,2021-08-07 12:07:25.384318
-3,-5,-5,-3,4,2,-2,-1,2021-08-07 12:07:25.405316
6,6,14,13,7,5,2,2,2021-08-07 12:07:25.405316
4,3,0,1,4,2,2,1,2021-08-07 12:07:25.413316
1,1,2,14,13,5,0,0,2021-08-07 12:07:25.413316
-6,-4,-11,-18,-17,-11,-4,-5,2021-08-07 12:07:25.429321
-7,-8,-12,-15,-6,-7,-3,-4,2021-08-07 12:07:25.429321
-2,-6,-5,-8,-11,-4,-3,-2,2021-08-07 12:07:25.436319
0,0,6,11,8,3,2,2,2021-08-07 12:07:25.436319
4,4,6,8,12,8,2,-1,2021-08-07 12:07:25.443317
0,0,-3,-7,-14,-7,-4,-1,2021-08-07 12:07:25.443317
-4,-5,-8,-7,7,2,0,-3,2021-08-07 12:07:25.444318
1,2,-5,-5,-6,-2,1,0,2021-08-07 12:07:25.444318
1,0,6,8,10,5,2,1,2021-08-07 12:07:25.466317
2,3,7,5,-3,0,2,0,2021-08-07 12:07:25.466317
-1,-3,1,5,4,2,-1,0,2021-08-07 12:07:25.466317
-5,-8,-7,-9,-5,-4,-4,-6,2021-08-07 12:07:25.466317
3,3,2,7,9,3,1,3,2021-08-07 12:07:25.489318
4,4,5,10,11,5,3,3,2021-08-07 12:07:25.489318
-4,-4,-2,-8,-17,-8,-4,-3,2021-08-07 12:07:25.489318
-1,-3,-4,-4,-10,-4,-1,-1,2021-08-07 12:07:25.490319
-1,-2,0,-1,-1,-3,0,0,2021-08-07 12:07:25.519318
-2,1,4,9,11,5,4,-1,2021-08-07 12:07:25.519318
-2,3,4,2,1,2,1,-1,2021-08-07 12:07:25.519318
-2,1,5,7,6,-1,-3,-3,2021-08-07 12:07:25.520319
-4,-2,-9,-15,-16,-4,-3,-5,2021-08-07 12:07:25.525318
-1,-1,-5,-2,-1,-2,-3,-1,2021-08-07 12:07:25.526317
-4,-4,-6,-12,-13,-9,-5,-3,2021-08-07 12:07:25.526317
0,0,0,-10,-10,-5,0,2,2021-08-07 12:07:25.526317
2,2,1,5,15,6,4,3,2021-08-07 12:07:25.549320
2,2,1,0,-1,3,2,0,2021-08-07 12:07:25.549320
0,-1,-1,-1,3,0,0,0,2021-08-07 12:07:25.549320
-2,-3,-4,-8,-12,-4,-4,-2,2021-08-07 12:07:25.550322
0,0,8,25,24,10,4,2,2021-08-07 12:07:25.562318
1,3,4,2,-4,-3,-1,0,2021-08-07 12:07:25.563318
1,0,-3,5,7,1,1,1,2021-08-07 12:07:25.578318
-4,-4,-7,-7,-7,-4,-3,-2,2021-08-07 12:07:25.579320
-4,-4,-4,-26,-24,-12,-7,-5,2021-08-07 12:07:25.586319
-2,-1,5,15,23,9,1,-2,2021-08-07 12:07:25.586319
1,-2,5,4,3,1,1,2,2021-08-07 12:07:25.586319
-3,-8,-23,-17,-7,-3,-2,-3,2021-08-07 12:07:25.586319
-1,-1,-3,-5,-11,-6,-1,-1,2021-08-07 12:07:25.609317
-4,-6,-4,-11,-13,-7,-5,-2,2021-08-07 12:07:25.609317
1,3,6,1,2,2,0,0,2021-08-07 12:07:25.609317
2,4,13,20,19,7,4,2,2021-08-07 12:07:25.610317
0,0,-2,2,0,-2,0,1,2021-08-07 12:07:25.622317
-2,1,-3,-1,-3,-1,-1,-2,2021-08-07 12:07:25.623322
-4,-5,-6,-8,-13,-6,-3,-4,2021-08-07 12:07:25.630319
-1,1,-2,-12,-15,-6,-2,-1,2021-08-07 12:07:25.631318
0,1,4,14,23,9,4,3,2021-08-07 12:07:25.645318
-2,-2,-2,-6,-7,-5,-2,-1,2021-08-07 12:07:25.646319
3,4,10,21,22,11,5,2,2021-08-07 12:07:25.646319
2,2,7,8,4,2,1,1,2021-08-07 12:07:25.646319
-5,-6,-17,-21,-24,-11,-4,-5,2021-08-07 12:07:25.669319
-1,-3,0,12,20,5,1,0,2021-08-07 12:07:25.669319
-6,-6,-11,-25,-21,-10,-7,-4,2021-08-07 12:07:25.669319
-1,3,11,15,7,1,-1,0,2021-08-07 12:07:25.670318
3,3,8,12,1,2,1,3,2021-08-07 12:07:25.691318
-1,-3,-3,-6,-5,-1,-1,-1,2021-08-07 12:07:25.691318
-2,-3,-8,-6,-10,-6,-2,-4,2021-08-07 12:07:25.692318
-3,-4,0,-2,5,0,-1,-2,2021-08-07 12:07:25.692318
-1,-2,-3,-3,-3,-1,-3,-2,2021-08-07 12:07:25.705317
0,1,-2,-2,-2,-1,-2,0,2021-08-07 12:07:25.706318
0,1,1,4,1,0,0,0,2021-08-07 12:07:25.707319
-2,-2,-3,-3,4,0,-2,-1,2021-08-07 12:07:25.707319
-3,-5,0,-1,-2,-1,0,-4,2021-08-07 12:07:25.729317
0,-1,-2,-3,-3,0,-1,1,2021-08-07 12:07:25.729317
-4,-2,-1,-12,-19,-9,-5,-3,2021-08-07 12:07:25.729317
4,5,3,9,10,8,4,2,2021-08-07 12:07:25.730316
2,2,5,17,18,7,3,4,2021-08-07 12:07:25.752318
0,0,-2,2,5,0,-1,1,2021-08-07 12:07:25.752318
-4,-6,-8,-14,-21,-11,-5,-3,2021-08-07 12:07:25.752318
2,2,9,16,19,10,2,0,2021-08-07 12:07:25.753320
-1,-1,0,-10,-13,-7,-3,-2,2021-08-07 12:07:25.765317
-5,-7,-17,-17,-10,-5,-3,-5,2021-08-07 12:07:25.766317
-1,-2,-2,-8,-3,-4,-3,-2,2021-08-07 12:07:25.766317
-2,-1,-4,-13,-14,-8,-3,-1,2021-08-07 12:07:25.766317
-3,-1,0,-2,-4,-4,-4,-2,2021-08-07 12:07:25.789320
-6,-7,-5,-6,-1,-1,-1,-3,2021-08-07 12:07:25.789320
6,8,11,22,19,13,6,2,2021-08-07 12:07:25.789320
-1,-1,-5,-3,-4,-2,-1,-1,2021-08-07 12:07:25.790318
0,1,4,14,9,3,2,-1,2021-08-07 12:07:25.802317
-3,-4,-4,-12,-15,-9,-5,-2,2021-08-07 12:07:25.803319
-1,-3,-5,-6,-2,-3,-2,-2,2021-08-07 12:07:25.810318
-1,-3,-5,-7,-5,-2,0,1,2021-08-07 12:07:25.811320
0,-1,0,5,5,1,-1,-1,2021-08-07 12:07:25.825317
2,4,13,12,0,-1,-1,1,2021-08-07 12:07:25.826316
-2,-2,2,4,-6,-4,-1,-1,2021-08-07 12:07:25.826316
4,0,-2,2,2,4,1,1,2021-08-07 12:07:25.826316
-6,-10,-27,-33,-8,-4,-4,-3,2021-08-07 12:07:25.849319
2,1,-1,2,8,3,3,2,2021-08-07 12:07:25.849319
-1,0,-1,2,-1,0,0,1,2021-08-07 12:07:25.849319
-4,-3,3,-5,-13,-10,-6,-4,2021-08-07 12:07:25.850319
1,2,8,0,-7,-3,-2,0,2021-08-07 12:07:25.862318
5,6,10,27,25,15,7,2,2021-08-07 12:07:25.863320
-1,-2,-4,-5,-2,0,-1,-2,2021-08-07 12:07:25.871318
-3,-1,-5,-8,-2,-2,-3,-2,2021-08-07 12:07:25.871318
-1,-1,-2,-6,-8,-5,-3,-1,2021-08-07 12:07:25.885317
-1,-3,-4,-15,-21,-12,-4,-2,2021-08-07 12:07:25.886321
1,0,7,21,29,13,4,1,2021-08-07 12:07:25.886321
2,3,5,13,12,5,3,3,2021-08-07 12:07:25.886321
-1,0,-2,-9,-7,-1,0,-1,2021-08-07 12:07:25.909317
-3,0,5,8,-4,-4,-3,-2,2021-08-07 12:07:25.909317
3,4,-3,-15,-18,-5,-1,2,2021-08-07 12:07:25.909317
0,2,8,15,23,8,3,1,2021-08-07 12:07:25.910319
3,4,5,16,9,4,3,1,2021-08-07 12:07:25.931316
-3,-5,-11,-15,-9,-4,0,0,2021-08-07 12:07:25.931316
-4,-9,-10,-10,1,-1,-4,-4,2021-08-07 12:07:25.932316
-6,-6,-2,-17,-18,-11,-5,-4,2021-08-07 12:07:25.932316
-3,-5,-13,-12,-19,-9,-5,-2,2021-08-07 12:07:25.946319
9,9,14,22,22,16,6,5,2021-08-07 12:07:25.946319
1,3,4,13,11,4,1,1,2021-08-07 12:07:25.946319
0,-2,0,3,0,0,-1,-2,2021-08-07 12:07:25.946319
-1,-1,4,1,0,1,0,1,2021-08-07 12:07:25.969319
-3,-4,-4,-5,-5,-3,-2,-2,2021-08-07 12:07:25.969319
-4,-8,-13,-25,-12,-7,-4,-4,2021-08-07 12:07:25.969319
2,4,7,15,10,5,3,2,2021-08-07 12:07:25.970322
2,3,7,14,14,6,3,2,2021-08-07 12:07:25.991318
0,0,0,-6,-8,-3,-2,-1,2021-08-07 12:07:25.991318
-3,-2,1,-6,-13,-5,-3,-1,2021-08-07 12:07:25.992317
-4,-10,-15,-18,-14,-8,-5,-2,2021-08-07 12:07:25.992317
2,2,2,12,26,12,7,2,2021-08-07 12:07:26.005316
-2,-3,-9,-12,-8,-6,-3,-2,2021-08-07 12:07:26.006317
1,3,11,13,8,1,1,2,2021-08-07 12:07:26.007318
-3,-2,-5,-10,-8,-4,-2,-2,2021-08-07 12:07:26.007318
0,1,-1,-7,-9,-2,-2,-2,2021-08-07 12:07:26.029318
-2,-9,-15,-8,1,-3,-2,-2,2021-08-07 12:07:26.029318
0,1,0,3,-2,-3,0,-1,2021-08-07 12:07:26.029318
-1,2,3,2,-6,-2,-2,0,2021-08-07 12:07:26.030319
0,1,3,0,-2,0,-1,1,2021-08-07 12:07:26.051318
-2,-1,3,-9,-11,-8,-2,-3,2021-08-07 12:07:26.051318
-8,-9,-12,-18,-20,-10,-6,-5,2021-08-07 12:07:26.052319
5,5,8,38,56,25,10,6,2021-08-07 12:07:26.052319
0,0,-1,-3,2,-1,0,-2,2021-08-07 12:07:26.066318
0,3,4,6,1,1,-1,-1,2021-08-07 12:07:26.066318
-2,0,0,-12,-14,-7,-3,-2,2021-08-07 12:07:26.066318
-3,-6,-5,-9,-15,-8,-5,-4,2021-08-07 12:07:26.066318
1,-2,0,3,-2,0,0,1,2021-08-07 12:07:26.089320
-1,-1,4,10,13,3,2,1,2021-08-07 12:07:26.089320
0,0,4,9,12,4,1,3,2021-08-07 12:07:26.089320
-3,-2,-4,-11,-17,-8,-4,-4,2021-08-07 12:07:26.090317
0,2,4,7,7,4,2,1,2021-08-07 12:07:26.111317
5,3,0,-13,-7,0,3,3,2021-08-07 12:07:26.112319
-3,-5,-5,2,3,-2,-1,-3,2021-08-07 12:07:26.112319
2,1,-9,-4,-4,-2,-1,-1,2021-08-07 12:07:26.112319
-2,-1,3,-4,-12,-7,-5,-4,2021-08-07 12:07:26.125318
1,3,4,6,4,3,-1,-1,2021-08-07 12:07:26.125318
2,2,-1,8,10,6,1,2,2021-08-07 12:07:26.134318
-9,-13,-15,-31,-30,-14,-8,-7,2021-08-07 12:07:26.134318
3,5,1,1,9,1,-1,2,2021-08-07 12:07:26.149319
-1,3,7,10,14,7,4,0,2021-08-07 12:07:26.149319
5,2,7,21,22,11,6,0,2021-08-07 12:07:26.150318
0,-1,-1,-2,-11,-5,-3,-2,2021-08-07 12:07:26.150318
