EMG 1,EMG 2,EMG 3,EMG 4,EMG 5,EMG 6,EMG 7,EMG 8,Timestamp,Milliseconds
-7,-8,-14,-18,-8,-7,-3,-5,2021-08-07 12:07:05,295194
2,6,13,28,18,8,4,3,2021-08-07 12:07:05,295194
3,4,9,5,-2,-2,0,0,2021-08-07 12:07:05,295194
1,3,8,10,-3,-3,-1,1,2021-08-07 12:07:05,295194
-2,-6,-14,-23,-14,-7,-5,-2,2021-08-07 12:07:05,295194
-1,1,2,6,14,7,1,-1,2021-08-07 12:07:05,295194
0,1,-2,2,0,0,1,1,2021-08-07 12:07:05,295194
-1,0,-1,-6,-7,-4,-2,0,2021-08-07 12:07:05,295194
-5,-3,0,-3,-13,-8,-5,-4,2021-08-07 12:07:05,311192
0,-2,2,8,14,6,2,1,2021-08-07 12:07:05,311192
1,2,5,8,9,6,2,2,2021-08-07 12:07:05,326224
-3,-3,-17,-20,-13,-6,-4,-1,2021-08-07 12:07:05,326224
-1,0,1,-2,-5,-2,-2,-1,2021-08-07 12:07:05,326224
1,0,1,4,0,-1,-1,-1,2021-08-07 12:07:05,326224
-4,-6,-5,-12,-16,-9,-6,-4,2021-08-07 12:07:05,326224
3,1,10,23,25,13,6,2,2021-08-07 12:07:05,326224
-2,0,4,9,3,0,-1,-3,2021-08-07 12:07:05,342244
-1,0,-1,-7,-9,-5,-1,0,2021-08-07 12:07:05,342244
1,-5,-4,-7,-7,-2,-2,-2,2021-08-07 12:07:05,358226
-5,-6,-16,-23,-9,-5,-4,-5,2021-08-07 12:07:05,358226
0,-3,-1,4,5,2,-1,0,2021-08-07 12:07:05,358226
-1,0,-4,-15,-13,-6,-4,-3,2021-08-07 12:07:05,358226
1,1,5,3,-5,-2,-2,-3,2021-08-07 12:07:05,405228
-7,-7,-2,-7,-11,-9,-5,-4,2021-08-07 12:07:05,405228
-2,-3,-10,-8,-6,-3,-1,0,2021-08-07 12:07:05,405228
4,4,-1,-7,-2,1,0,2,2021-08-07 12:07:05,405228
-1,-2,3,-3,-1,-1,-1,-2,2021-08-07 12:07:05,405228
-3,-3,-15,-12,-4,-1,-4,-3,2021-08-07 12:07:05,405228
-4,-6,-6,-10,-6,-4,-3,-2,2021-08-07 12:07:05,405228
-2,-4,-1,3,-1,-1,-3,-1,2021-08-07 12:07:05,405228
4,5,5,3,4,3,1,2,2021-08-07 12:07:05,421228
0,3,13,12,-1,-3,-1,-2,2021-08-07 12:07:05,421228
-1,-3,-1,-8,-8,-4,-1,0,2021-08-07 12:07:05,421228
-4,-9,-18,-13,1,1,0,-4,2021-08-07 12:07:05,421228
-2,0,-1,-5,-7,-4,-2,-2,2021-08-07 12:07:05,434224
-2,2,-4,1,2,-1,-1,0,2021-08-07 12:07:05,434224
3,7,10,-4,-10,-4,0,0,2021-08-07 12:07:05,453193
4,8,22,29,18,7,6,3,2021-08-07 12:07:05,453193
-2,-3,-6,5,3,2,-1,-2,2021-08-07 12:07:05,453193
-3,-6,-9,-14,4,2,-1,-4,2021-08-07 12:07:05,453193
-4,-7,-18,-18,-16,-10,-7,-4,2021-08-07 12:07:05,485241
-3,-4,-4,-7,-3,-2,-3,-1,2021-08-07 12:07:05,501225
-3,-3,0,-6,-13,-6,-3,-1,2021-08-07 12:07:05,517241
5,4,10,11,5,2,4,3,2021-08-07 12:07:05,533193
-3,-2,-7,3,4,0,0,-1,2021-08-07 12:07:05,533193
0,-2,-4,-6,-11,-6,-2,-2,2021-08-07 12:07:05,533193
1,1,-1,3,10,5,3,1,2021-08-07 12:07:05,533193
0,1,5,1,3,3,2,0,2021-08-07 12:07:05,533193
2,4,12,12,5,2,2,3,2021-08-07 12:07:05,533193
2,3,4,10,7,3,2,2,2021-08-07 12:07:05,533193
-2,-4,-10,-8,-6,-5,-1,-2,2021-08-07 12:07:05,533193
-11,-14,-20,-21,-13,-9,-8,-6,2021-08-07 12:07:05,534193
3,4,4,-1,4,2,1,1,2021-08-07 12:07:05,534193
1,4,5,-3,-1,0,1,1,2021-08-07 12:07:05,534193
0,1,0,7,8,2,1,1,2021-08-07 12:07:05,534193
-3,-4,-1,9,1,1,0,-2,2021-08-07 12:07:05,534193
5,5,1,9,5,5,3,2,2021-08-07 12:07:05,565238
-7,-8,-6,-23,-17,-11,-7,-6,2021-08-07 12:07:05,565238
3,2,2,10,9,5,2,1,2021-08-07 12:07:05,565238
-1,-2,-3,0,0,-2,-2,-2,2021-08-07 12:07:05,565238
-2,1,5,4,0,0,-1,-1,2021-08-07 12:07:05,581241
1,3,9,4,-6,-5,1,1,2021-08-07 12:07:05,597227
-5,-6,-9,-17,-18,-10,-6,-4,2021-08-07 12:07:05,613194
1,2,3,14,15,7,3,2,2021-08-07 12:07:05,613194
1,-1,7,5,7,5,0,0,2021-08-07 12:07:05,613194
-4,-5,-26,-20,-15,-6,-4,-1,2021-08-07 12:07:05,613194
-5,-8,-13,-26,-9,-6,-3,-3,2021-08-07 12:07:05,613194
-3,-6,0,0,-5,-4,-4,-3,2021-08-07 12:07:05,613194
3,9,10,10,11,7,3,3,2021-08-07 12:07:05,614226
0,3,9,15,6,0,1,1,2021-08-07 12:07:05,614226
3,5,8,3,-3,-2,0,1,2021-08-07 12:07:05,614226
3,4,4,-1,-5,0,0,2,2021-08-07 12:07:05,614226
-3,-5,2,3,0,-1,0,0,2021-08-07 12:07:05,644238
-6,-7,-13,-9,-9,-6,-6,-6,2021-08-07 12:07:05,644238
-1,-3,-3,7,5,1,0,-2,2021-08-07 12:07:05,644238
-5,-8,-18,-24,-8,-4,-3,-4,2021-08-07 12:07:05,644238
-2,-3,1,-1,-3,-2,-1,-3,2021-08-07 12:07:05,659238
2,3,6,11,6,4,2,1,2021-08-07 12:07:05,659238
0,0,5,3,3,1,2,-1,2021-08-07 12:07:05,659238
6,6,9,8,4,3,4,4,2021-08-07 12:07:05,659238
-2,-4,-8,-4,-4,-3,-2,-2,2021-08-07 12:07:05,691225
2,2,4,5,8,5,2,1,2021-08-07 12:07:05,691225
0,0,6,8,5,3,2,0,2021-08-07 12:07:05,691225
-2,-1,-4,-1,-4,-3,-1,-1,2021-08-07 12:07:05,691225
-3,-1,-9,-11,-2,-1,-2,-2,2021-08-07 12:07:05,691225
1,1,-1,-4,0,-1,-1,0,2021-08-07 12:07:05,691225
-4,-2,4,4,0,-2,-2,-2,2021-08-07 12:07:05,691225
1,1,4,-2,-16,-7,-3,-1,2021-08-07 12:07:05,691225
0,-1,2,19,19,7,3,2,2021-08-07 12:07:05,738213
0,-3,-3,-4,-1,-1,0,-3,2021-08-07 12:07:05,738213
-2,1,1,3,3,0,-1,0,2021-08-07 12:07:05,738213
0,-2,-1,-8,-7,-3,-2,-1,2021-08-07 12:07:05,738213
-8,-12,-27,-31,-23,-13,-9,-7,2021-08-07 12:07:05,738213
5,4,9,13,13,10,4,3,2021-08-07 12:07:05,738213
3,4,9,14,8,2,0,2,2021-08-07 12:07:05,738213
1,2,14,16,4,2,0,-2,2021-08-07 12:07:05,738213
1,0,-5,1,-4,-3,0,1,2021-08-07 12:07:05,754228
-8,-13,-31,-43,-21,-8,-6,-6,2021-08-07 12:07:05,754228
-4,-7,-5,-2,1,-1,-3,-2,2021-08-07 12:07:05,770193
4,8,9,14,22,10,6,5,2021-08-07 12:07:05,770193
-3,-3,8,4,-8,-5,-5,-4,2021-08-07 12:07:05,786193
0,4,4,10,2,0,1,1,2021-08-07 12:07:05,786193
-1,-2,-5,-9,-10,-4,-2,-1,2021-08-07 12:07:05,786193
-4,-4,-7,-11,-8,-3,-1,-2,2021-08-07 12:07:05,786193
-1,-1,-1,-2,5,3,2,0,2021-08-07 12:07:05,786193
0,-2,7,21,13,4,2,-1,2021-08-07 12:07:05,786193
4,4,-6,-10,-9,-4,1,2,2021-08-07 12:07:05,802214
-1,-1,-6,-5,-4,-2,0,1,2021-08-07 12:07:05,802214
0,-1,1,6,3,2,-1,-3,2021-08-07 12:07:05,818214
-4,-4,-2,-3,-5,-3,-4,-4,2021-08-07 12:07:05,834229
-8,-5,-2,-7,-1,-2,-5,-6,2021-08-07 12:07:05,834229
-3,2,-4,-8,-8,-5,-4,-3,2021-08-07 12:07:05,834229
2,5,5,8,2,-1,2,1,2021-08-07 12:07:05,834229
-2,1,10,9,0,-2,0,-1,2021-08-07 12:07:05,834229
-2,-5,-12,-17,-15,-6,-5,-2,2021-08-07 12:07:05,834229
2,0,-3,2,7,3,2,1,2021-08-07 12:07:05,834229
1,0,-4,-11,-2,-1,0,2,2021-08-07 12:07:05,850225
2,3,3,6,9,4,2,2,2021-08-07 12:07:05,850225
0,-3,0,0,2,0,1,-1,2021-08-07 12:07:05,866193
0,0,0,4,8,6,0,0,2021-08-07 12:07:05,866193
0,0,5,13,8,2,1,0,2021-08-07 12:07:05,882193
1,4,2,-2,-8,-5,-2,1,2021-08-07 12:07:05,882193
-3,-1,-1,-1,-3,-3,-3,-1,2021-08-07 12:07:05,882193
-5,-7,-11,-17,-15,-9,-4,-4,2021-08-07 12:07:05,882193
-2,-2,0,3,2,-1,0,-3,2021-08-07 12:07:05,898234
3,5,1,-4,1,2,3,3,2021-08-07 12:07:05,898234
0,0,-1,3,0,1,1,-1,2021-08-07 12:07:05,898234
-3,-4,-3,-4,-6,-6,-5,-3,2021-08-07 12:07:05,898234
-3,-3,-7,-14,-13,-6,-5,-2,2021-08-07 12:07:05,914193
-2,-1,4,5,6,1,-1,-1,2021-08-07 12:07:05,930195
2,5,3,7,7,4,3,1,2021-08-07 12:07:05,930195
1,0,-1,-1,-2,0,1,0,2021-08-07 12:07:05,930195
-3,-4,5,17,16,5,0,-3,2021-08-07 12:07:05,930195
-3,-3,-7,-10,-15,-8,-4,-4,2021-08-07 12:07:05,930195
-1,-3,-4,0,7,3,0,-2,2021-08-07 12:07:05,946228
-2,-1,2,-5,-9,-5,-4,-2,2021-08-07 12:07:05,946228
4,3,1,-2,-4,0,1,2,2021-08-07 12:07:05,962194
0,-1,-4,-5,-8,-2,-2,-1,2021-08-07 12:07:05,978194
0,0,3,6,3,1,1,0,2021-08-07 12:07:05,978194
-1,-3,-4,-7,-12,-7,-3,-3,2021-08-07 12:07:05,978194
0,-2,-18,-4,12,7,3,1,2021-08-07 12:07:05,978194
-1,-1,8,7,-1,0,0,-1,2021-08-07 12:07:05,978194
-2,-1,0,3,1,0,-3,-3,2021-08-07 12:07:06,010188
0,3,11,15,5,4,0,0,2021-08-07 12:07:06,010188
3,2,2,-3,-12,-6,-1,1,2021-08-07 12:07:06,010188
1,-1,-8,-9,8,4,1,-2,2021-08-07 12:07:06,010188
-3,-5,-4,-8,-10,-7,-2,-3,2021-08-07 12:07:06,010188
1,2,0,1,4,0,1,3,2021-08-07 12:07:06,011194
-4,-6,0,-3,-5,-2,-2,-3,2021-08-07 12:07:06,026238
2,3,0,2,1,2,1,1,2021-08-07 12:07:06,042191
-4,-6,-9,-12,-4,-4,-2,-3,2021-08-07 12:07:06,058228
-3,-3,-3,-12,-18,-10,-5,-2,2021-08-07 12:07:06,058228
2,6,12,31,32,16,5,3,2021-08-07 12:07:06,058228
0,-1,5,7,-1,0,1,0,2021-08-07 12:07:06,058228
1,0,-1,-1,0,3,0,0,2021-08-07 12:07:06,058228
-3,-4,-9,-9,-8,-6,-5,-3,2021-08-07 12:07:06,058228
-1,1,5,-14,-16,-5,-2,0,2021-08-07 12:07:06,058228
-1,-1,-5,5,9,3,0,0,2021-08-07 12:07:06,059226
0,0,-3,-3,-6,-2,0,0,2021-08-07 12:07:06,059226
2,0,0,5,8,4,3,-2,2021-08-07 12:07:06,059226
-3,-3,-1,-9,-13,-8,-4,-2,2021-08-07 12:07:06,090208
-4,-4,0,2,-2,-2,-2,-2,2021-08-07 12:07:06,106225
0,4,-5,-9,-7,-3,-3,0,2021-08-07 12:07:06,138227
-1,-2,3,4,5,3,2,1,2021-08-07 12:07:06,154194
-3,-3,-5,-13,-17,-10,-5,-4,2021-08-07 12:07:06,154194
3,3,7,20,17,10,4,3,2021-08-07 12:07:06,154194
1,0,-2,-1,6,2,-1,1,2021-08-07 12:07:06,154194
1,0,1,6,4,5,1,1,2021-08-07 12:07:06,154194
-1,-2,-7,-20,-8,-4,-4,-3,2021-08-07 12:07:06,154194
1,2,10,6,-3,-3,-2,-2,2021-08-07 12:07:06,154194
0,-1,-1,4,1,-1,1,1,2021-08-07 12:07:06,154194
2,3,1,7,8,3,2,3,2021-08-07 12:07:06,155225
-5,-9,-14,-11,-6,-4,-3,-3,2021-08-07 12:07:06,155225
-7,-8,-13,-19,-14,-10,-6,-6,2021-08-07 12:07:06,155225
0,1,6,6,5,2,1,0,2021-08-07 12:07:06,155225
2,5,5,7,5,2,3,2,2021-08-07 12:07:06,155225
1,3,9,7,2,1,1,0,2021-08-07 12:07:06,155225
-6,-7,-8,-10,-5,-3,-3,-4,2021-08-07 12:07:06,155225
3,5,3,9,7,3,1,2,2021-08-07 12:07:06,155225
0,-3,-4,-6,-3,-1,-1,-2,2021-08-07 12:07:06,155225
-2,0,3,1,-3,-3,-4,-2,2021-08-07 12:07:06,185240
4,3,4,-1,-2,1,2,2,2021-08-07 12:07:06,185240
-1,-1,-2,-1,-3,-2,0,-2,2021-08-07 12:07:06,185240
0,1,-1,-3,3,1,-1,0,2021-08-07 12:07:06,185240
0,2,1,2,3,1,-1,-1,2021-08-07 12:07:06,202237
-1,-5,-4,-4,-13,-4,-4,-3,2021-08-07 12:07:06,202237
-4,-10,-16,-22,-9,-5,-5,-2,2021-08-07 12:07:06,217853
-2,-1,2,4,2,-2,-2,-2,2021-08-07 12:07:06,217853
2,4,7,8,7,3,4,3,2021-08-07 12:07:06,217853
-3,-3,-9,-5,-2,-3,-1,-2,2021-08-07 12:07:06,217853
-4,-4,-2,-7,-8,-5,-4,-3,2021-08-07 12:07:06,217853
-2,-3,-9,-1,3,0,-1,-1,2021-08-07 12:07:06,217853
0,0,2,2,-3,-2,-2,-1,2021-08-07 12:07:06,233839
1,4,13,6,2,1,-1,-1,2021-08-07 12:07:06,233839
2,2,6,5,0,-1,1,1,2021-08-07 12:07:06,233839
-8,-9,-15,-19,-15,-10,-6,-6,2021-08-07 12:07:06,233839
1,-1,-1,13,17,7,2,1,2021-08-07 12:07:06,265809
6,8,4,0,2,3,5,3,2021-08-07 12:07:06,280807
-1,-1,0,0,-4,-3,-2,-1,2021-08-07 12:07:06,296806
-1,0,-2,-8,-4,-2,-1,-1,2021-08-07 12:07:06,296806
-2,-4,-5,-8,-7,-4,-2,-2,2021-08-07 12:07:06,296806
-5,-6,-2,-1,-2,-3,-4,-1,2021-08-07 12:07:06,296806
2,2,6,11,8,3,2,1,2021-08-07 12:07:06,296806
4,2,5,4,-1,1,1,2,2021-08-07 12:07:06,296806
-2,-4,-3,0,2,2,0,-3,2021-08-07 12:07:06,296806
-4,-3,-7,-19,-11,-7,-4,-2,2021-08-07 12:07:06,297840
-2,2,3,10,6,2,0,0,2021-08-07 12:07:06,297840
0,0,0,1,6,2,0,0,2021-08-07 12:07:06,297840
1,1,3,9,2,-1,0,-1,2021-08-07 12:07:06,328853
-1,-1,5,0,-5,-5,-2,-2,2021-08-07 12:07:06,344804
2,1,-3,-6,-4,-1,1,2,2021-08-07 12:07:06,344804
1,-2,-2,2,6,3,1,-1,2021-08-07 12:07:06,344804
-5,-4,-12,-15,-10,-7,-4,-2,2021-08-07 12:07:06,344804
-4,-5,-7,-5,1,-1,-2,-2,2021-08-07 12:07:06,344804
-4,-3,2,-5,-7,-5,-3,-2,2021-08-07 12:07:06,344804
1,3,11,9,0,-1,-1,0,2021-08-07 12:07:06,344804
-1,1,3,-2,-6,-1,-1,0,2021-08-07 12:07:06,359852
-1,-1,-2,4,6,0,-1,-1,2021-08-07 12:07:06,375842
0,0,2,5,6,4,2,0,2021-08-07 12:07:06,375842
1,2,-5,-9,-10,-3,1,1,2021-08-07 12:07:06,375842
-2,-5,-6,-3,6,2,0,-3,2021-08-07 12:07:06,375842
-3,-2,-1,-6,-9,-4,-3,-4,2021-08-07 12:07:06,375842
-5,-5,-4,-5,-10,-6,-4,-5,2021-08-07 12:07:06,391852
7,9,10,19,24,12,7,5,2021-08-07 12:07:06,391852
2,2,-1,-2,-1,-1,1,1,2021-08-07 12:07:06,407808
-2,-3,-11,-12,-3,-3,-1,0,2021-08-07 12:07:06,423808
-4,-6,-1,-2,-3,-5,-4,-4,2021-08-07 12:07:06,439434
-4,-3,0,3,-4,-3,-3,-5,2021-08-07 12:07:06,439434
2,3,1,-7,-8,-3,0,2,2021-08-07 12:07:06,439434
1,1,6,4,2,0,-1,-1,2021-08-07 12:07:06,439434
2,2,1,7,7,4,4,2,2021-08-07 12:07:06,439434
1,0,4,6,7,4,0,0,2021-08-07 12:07:06,439434
0,-2,-10,-5,-1,0,0,-1,2021-08-07 12:07:06,439434
-9,-12,-24,-28,-20,-10,-9,-6,2021-08-07 12:07:06,440437
-2,-2,-3,-9,-13,-7,-4,0,2021-08-07 12:07:06,440437
-2,-2,-2,-8,-4,-3,-2,-2,2021-08-07 12:07:06,440437
4,7,21,34,27,12,6,3,2021-08-07 12:07:06,471468
4,5,8,12,3,4,3,2,2021-08-07 12:07:06,487469
0,0,-6,-8,-1,1,-1,-2,2021-08-07 12:07:06,487469
-4,-5,-7,-11,-12,-8,-5,-4,2021-08-07 12:07:06,487469
-3,-2,-4,-8,-6,-5,-1,-2,2021-08-07 12:07:06,487469
-1,-2,-1,6,5,3,0,1,2021-08-07 12:07:06,487469
-5,-5,-6,-18,-12,-7,-5,-5,2021-08-07 12:07:06,503437
4,4,6,14,5,2,2,2,2021-08-07 12:07:06,519477
5,5,6,15,15,7,5,5,2021-08-07 12:07:06,519477
0,-3,-4,-3,-3,-1,2,-1,2021-08-07 12:07:06,519477
-2,-5,-2,2,5,3,1,0,2021-08-07 12:07:06,519477
-9,-9,-20,-23,-12,-6,-6,-5,2021-08-07 12:07:06,519477
-11,-9,0,-15,-19,-12,-9,-9,2021-08-07 12:07:06,519477
4,7,5,9,14,6,4,3,2021-08-07 12:07:06,519477
6,8,11,23,12,7,3,4,2021-08-07 12:07:06,519477
3,4,4,7,8,4,3,2,2021-08-07 12:07:06,519477
-2,-3,-1,-4,-9,-5,-3,-1,2021-08-07 12:07:06,551469
-2,-3,2,-4,-9,-5,-3,-3,2021-08-07 12:07:06,564468
-4,-7,-9,-17,-10,-8,-4,-3,2021-08-07 12:07:06,564468
2,4,2,5,6,4,2,3,2021-08-07 12:07:06,564468
-2,-6,-10,-15,-12,-7,-3,-3,2021-08-07 12:07:06,564468
-2,1,4,3,-6,-4,-3,0,2021-08-07 12:07:06,564468
-2,-1,-5,-2,-1,0,-1,-2,2021-08-07 12:07:06,564468
0,1,5,8,11,5,1,-1,2021-08-07 12:07:06,565437
1,4,5,7,5,2,1,1,2021-08-07 12:07:06,583434
-1,-4,-1,0,-1,-3,-2,-2,2021-08-07 12:07:06,599435
-1,0,-2,-5,-9,-5,-3,-2,2021-08-07 12:07:06,599435
-4,-8,-8,-14,-8,-3,-5,-2,2021-08-07 12:07:06,599435
2,2,2,8,10,6,2,1,2021-08-07 12:07:06,615475
2,3,2,1,-1,0,-1,1,2021-08-07 12:07:06,631489
-1,-1,1,5,5,2,1,0,2021-08-07 12:07:06,647434
-2,-3,-4,-7,-11,-6,-3,-4,2021-08-07 12:07:06,647434
0,-4,-6,-8,-4,-2,-2,-2,2021-08-07 12:07:06,647434
-1,0,5,7,1,1,0,0,2021-08-07 12:07:06,647434
-3,-4,-12,-10,-4,-3,-3,-3,2021-08-07 12:07:06,647434
1,1,6,3,0,0,1,0,2021-08-07 12:07:06,647434
1,1,-3,0,-1,2,-1,2,2021-08-07 12:07:06,647434
1,1,-5,-5,2,1,2,1,2021-08-07 12:07:06,648435
0,2,7,9,6,4,1,0,2021-08-07 12:07:06,648435
-6,-5,-5,-6,-14,-8,-6,-2,2021-08-07 12:07:06,648435
-3,-4,-2,-6,-7,-4,-2,-3,2021-08-07 12:07:06,663458
6,8,14,19,24,12,7,5,2021-08-07 12:07:06,663458
2,2,4,5,2,0,2,-1,2021-08-07 12:07:06,663458
-3,-5,-6,-3,-2,-2,-2,-4,2021-08-07 12:07:06,663458
-6,-5,-13,-22,-21,-11,-7,-5,2021-08-07 12:07:06,695435
-5,-8,-8,-4,-3,-3,-4,-3,2021-08-07 12:07:06,695435
4,7,8,9,12,7,3,4,2021-08-07 12:07:06,695435
4,5,14,23,11,3,3,2,2021-08-07 12:07:06,695435
-2,-3,0,0,-3,0,0,-2,2021-08-07 12:07:06,695435
-2,-3,-7,-17,-11,-6,-3,-2,2021-08-07 12:07:06,695435
2,4,13,18,9,4,1,0,2021-08-07 12:07:06,711436
3,1,4,4,2,3,1,1,2021-08-07 12:07:06,711436
-1,-1,-19,-14,-10,-5,-2,-1,2021-08-07 12:07:06,727431
-10,-14,-29,-38,-11,-8,-7,-9,2021-08-07 12:07:06,727431
-3,-4,2,3,-3,-3,-3,-1,2021-08-07 12:07:06,727431
1,2,8,14,23,11,5,2,2021-08-07 12:07:06,727431
8,11,24,26,15,8,5,5,2021-08-07 12:07:06,759469
0,1,4,1,-11,-4,-3,-2,2021-08-07 12:07:06,759469
-2,-2,-9,-13,-14,-8,-5,-1,2021-08-07 12:07:06,759469
-2,-3,-5,-5,0,-2,-2,-1,2021-08-07 12:07:06,759469
-1,-2,-3,-7,-1,0,-1,-2,2021-08-07 12:07:06,759469
1,2,3,15,12,5,1,2,2021-08-07 12:07:06,759469
-2,-1,-1,-3,0,1,-1,-1,2021-08-07 12:07:06,775434
2,2,-1,-4,-9,-5,-1,-1,2021-08-07 12:07:06,775434
-3,-2,1,-3,-11,-9,-3,-4,2021-08-07 12:07:06,791437
-6,-7,-1,4,12,4,0,-2,2021-08-07 12:07:06,791437
7,7,-3,2,6,5,6,6,2021-08-07 12:07:06,791437
-4,-5,-10,-17,-12,-4,-5,-2,2021-08-07 12:07:06,791437
-3,0,-1,-4,-5,-2,-2,-1,2021-08-07 12:07:06,823437
1,2,6,8,4,2,1,-2,2021-08-07 12:07:06,823437
-7,-8,1,4,-4,-8,-5,-4,2021-08-07 12:07:06,823437
6,6,6,5,8,7,4,4,2021-08-07 12:07:06,823437
0,-1,2,0,-1,-1,-2,0,2021-08-07 12:07:06,823437
-2,-5,-9,-11,-19,-12,-6,-2,2021-08-07 12:07:06,823437
3,0,1,1,11,6,3,1,2021-08-07 12:07:06,823437
0,-1,1,7,0,-2,0,-2,2021-08-07 12:07:06,824435
-1,0,2,3,7,2,-1,-2,2021-08-07 12:07:06,855433
-1,-2,-7,-2,-7,-4,0,-1,2021-08-07 12:07:06,870436
-6,-9,-21,-24,-17,-9,-6,-6,2021-08-07 12:07:06,886435
2,3,8,7,2,1,2,3,2021-08-07 12:07:06,886435
0,0,3,8,6,3,0,0,2021-08-07 12:07:06,886435
-3,-2,-5,-7,-8,-5,-3,-1,2021-08-07 12:07:06,886435
3,7,9,14,10,6,4,2,2021-08-07 12:07:06,886435
-3,-1,-3,-1,-4,-1,-3,-1,2021-08-07 12:07:06,886435
-6,-6,-7,-17,-15,-9,-3,-4,2021-08-07 12:07:06,887470
-1,-2,0,12,17,9,2,1,2021-08-07 12:07:06,887470
-2,-3,-6,-8,-12,-5,-3,-1,2021-08-07 12:07:06,887470
0,-3,-7,-11,-2,-1,-1,-1,2021-08-07 12:07:06,887470
1,2,10,19,10,4,3,0,2021-08-07 12:07:06,902472
3,5,10,3,1,0,-1,-1,2021-08-07 12:07:06,902472
-2,-1,5,2,0,-1,1,-1,2021-08-07 12:07:06,902472
0,-2,-11,-10,-9,-6,-2,-2,2021-08-07 12:07:06,902472
-4,-3,-6,-10,-4,-3,-3,-3,2021-08-07 12:07:06,934436
-1,-1,-6,-4,1,-1,0,1,2021-08-07 12:07:06,947469
-1,-1,-2,-6,-3,-1,-3,-2,2021-08-07 12:07:06,947469
-1,1,0,-1,-1,0,-1,0,2021-08-07 12:07:06,947469
-2,-3,-2,-2,-3,-3,-2,-3,2021-08-07 12:07:06,947469
-3,-2,-3,-5,-11,-6,-3,-3,2021-08-07 12:07:06,947469
5,7,16,37,33,16,7,3,2021-08-07 12:07:06,948437
1,2,6,3,-5,-3,0,-1,2021-08-07 12:07:06,948437
0,0,-1,-3,1,0,0,-1,2021-08-07 12:07:06,966471
-5,-7,-15,-22,-16,-8,-6,-4,2021-08-07 12:07:06,982435
-4,-5,-15,-20,-14,-8,-5,-3,2021-08-07 12:07:06,982435
-4,-5,-4,-4,-3,-3,-4,-2,2021-08-07 12:07:06,982435
1,2,5,9,6,2,2,2,2021-08-07 12:07:06,982435
0,1,6,1,-2,-1,1,-2,2021-08-07 12:07:06,982435
0,2,2,1,0,2,1,1,2021-08-07 12:07:06,982435
0,1,0,3,7,3,3,0,2021-08-07 12:07:06,982435
-1,-1,-4,-7,-10,-6,-3,0,2021-08-07 12:07:07,029482
-3,-4,-9,-5,0,-1,-1,-2,2021-08-07 12:07:07,029482
-2,-2,-2,-7,-6,-3,-2,-3,2021-08-07 12:07:07,029482
-3,-2,-9,-10,-9,-5,-3,-2,2021-08-07 12:07:07,029482
-2,-3,-4,-6,0,0,-2,0,2021-08-07 12:07:07,029482
-2,-2,2,-1,-14,-8,-5,-3,2021-08-07 12:07:07,029482
7,9,10,19,20,10,5,4,2021-08-07 12:07:07,029482
-3,-5,0,-3,-7,-4,-5,-4,2021-08-07 12:07:07,030434
-2,-1,-3,8,13,7,4,2,2021-08-07 12:07:07,045434
2,3,5,12,9,5,2,2,2021-08-07 12:07:07,045434
-5,-4,-6,-14,-17,-10,-5,-5,2021-08-07 12:07:07,045434
-1,-2,-3,-7,-5,-4,-1,0,2021-08-07 12:07:07,045434
0,2,-1,2,6,4,0,-1,2021-08-07 12:07:07,061437
0,0,4,1,-1,1,-1,0,2021-08-07 12:07:07,076437
-6,-7,-12,-17,-18,-10,-5,-4,2021-08-07 12:07:07,092466
2,2,8,20,18,11,6,2,2021-08-07 12:07:07,108433
0,-1,-2,-1,-3,-1,-1,-1,2021-08-07 12:07:07,124435
-1,-2,1,-3,-1,-1,1,1,2021-08-07 12:07:07,124435
1,2,4,8,5,1,0,1,2021-08-07 12:07:07,124435
0,-4,-2,-3,-3,-2,-1,0,2021-08-07 12:07:07,124435
-1,-1,-3,-4,-1,-1,-1,1,2021-08-07 12:07:07,124435
-1,-1,2,5,-3,-2,-2,-2,2021-08-07 12:07:07,124435
-1,-3,-3,-7,-7,-3,-2,-1,2021-08-07 12:07:07,124435
-1,-1,-4,-12,-8,-4,1,1,2021-08-07 12:07:07,124435
1,-1,-1,5,3,2,1,-2,2021-08-07 12:07:07,125436
-1,-3,-2,1,14,7,3,0,2021-08-07 12:07:07,125436
0,-3,3,9,6,3,0,0,2021-08-07 12:07:07,125436
3,6,5,0,-4,-2,0,1,2021-08-07 12:07:07,125436
-2,-3,-5,-4,-5,-4,-2,-2,2021-08-07 12:07:07,156466
1,4,8,7,4,3,0,0,2021-08-07 12:07:07,172481
-4,-4,-3,-7,-7,-3,-1,-1,2021-08-07 12:07:07,172481
-3,-6,-20,-12,-4,-4,-1,-2,2021-08-07 12:07:07,172481
-1,-3,-4,-10,-6,-6,-1,-1,2021-08-07 12:07:07,172481
2,2,3,4,4,2,1,2,2021-08-07 12:07:07,172481
0,-1,4,5,1,-1,0,-1,2021-08-07 12:07:07,172481
-6,-6,0,1,-1,-2,-3,-6,2021-08-07 12:07:07,172481
4,3,-1,2,4,5,2,1,2021-08-07 12:07:07,172481
2,2,0,0,4,1,2,0,2021-08-07 12:07:07,172481
-2,-3,-5,-6,-8,-4,0,-1,2021-08-07 12:07:07,204469
1,3,4,1,1,1,1,2,2021-08-07 12:07:07,220437
-9,-10,-4,-7,-9,-8,-7,-6,2021-08-07 12:07:07,236472
-3,-1,-2,-15,-15,-8,-3,-2,2021-08-07 12:07:07,252480
5,9,8,21,24,14,7,5,2021-08-07 12:07:07,268481
-1,-1,-1,1,2,2,0,0,2021-08-07 12:07:07,268481
-1,-1,-1,-3,1,0,-1,0,2021-08-07 12:07:07,268481
-1,-1,-3,-6,-11,-5,-4,0,2021-08-07 12:07:07,268481
-1,-3,0,1,7,3,0,-1,2021-08-07 12:07:07,268481
0,1,0,1,3,2,0,2,2021-08-07 12:07:07,268481
-1,0,-1,1,-3,-1,-2,-2,2021-08-07 12:07:07,268481
-1,-3,-5,-9,-10,-6,-3,-1,2021-08-07 12:07:07,269469
-2,-2,-9,-6,-2,-2,-2,-1,2021-08-07 12:07:07,284431
-2,-3,0,4,1,1,-2,0,2021-08-07 12:07:07,284431
-3,-4,-4,-7,-6,-5,-1,-1,2021-08-07 12:07:07,284431
2,5,11,11,10,5,3,1,2021-08-07 12:07:07,284431
2,0,-3,-5,-3,-2,0,-1,2021-08-07 12:07:07,284431
-3,-5,-13,-14,-6,-5,-3,-4,2021-08-07 12:07:07,284431
0,-1,2,6,-1,1,-2,1,2021-08-07 12:07:07,284431
0,0,1,8,8,3,3,1,2021-08-07 12:07:07,285433
-1,0,2,-11,-8,-4,-1,1,2021-08-07 12:07:07,285433
1,-3,-5,-4,-3,-2,0,-1,2021-08-07 12:07:07,285433
-4,-6,-7,-6,-7,-5,-1,-2,2021-08-07 12:07:07,300467
-1,0,3,5,6,3,1,-2,2021-08-07 12:07:07,300467
-1,1,6,18,15,6,0,-3,2021-08-07 12:07:07,316495
-5,-1,1,3,-3,-2,-3,-3,2021-08-07 12:07:07,316495
2,3,2,1,2,2,1,0,2021-08-07 12:07:07,332435
0,0,-2,-4,-7,-3,-3,-2,2021-08-07 12:07:07,334491
-1,-2,-8,-10,-9,-5,-2,-1,2021-08-07 12:07:07,334491
3,3,4,4,5,1,1,1,2021-08-07 12:07:07,334491
1,3,7,6,4,2,1,2,2021-08-07 12:07:07,348471
-3,-7,-10,-10,-13,-7,-5,-3,2021-08-07 12:07:07,348471
2,3,-1,-2,3,3,2,1,2021-08-07 12:07:07,348471
0,-1,1,-1,-4,-1,0,0,2021-08-07 12:07:07,348471
0,-1,0,7,12,7,3,-1,2021-08-07 12:07:07,364472
0,1,-1,1,2,0,0,-1,2021-08-07 12:07:07,380435
-3,-2,-2,-7,-8,-6,-3,-3,2021-08-07 12:07:07,380435
-2,-2,-1,3,-3,-2,-2,-1,2021-08-07 12:07:07,380435
1,2,0,-5,-1,1,1,-1,2021-08-07 12:07:07,380435
-5,-5,-5,0,3,-1,-1,-2,2021-08-07 12:07:07,380435
3,3,4,2,-2,1,1,4,2021-08-07 12:07:07,380435
-2,1,-3,-5,-8,-6,-3,-2,2021-08-07 12:07:07,380435
-4,-4,-8,-11,-6,-3,-2,-1,2021-08-07 12:07:07,411435
2,2,7,12,15,8,4,1,2021-08-07 12:07:07,426471
-3,-4,-2,-3,-5,-3,-4,-1,2021-08-07 12:07:07,442434
2,-1,-8,-1,3,2,1,-1,2021-08-07 12:07:07,442434
1,1,5,2,-5,-3,-1,0,2021-08-07 12:07:07,442434
-1,-3,-7,-5,-4,-3,-1,-2,2021-08-07 12:07:07,442434
-4,-4,-1,-3,-5,-5,-2,-3,2021-08-07 12:07:07,442434
-1,-2,-2,-5,-4,-3,-2,-2,2021-08-07 12:07:07,442434
-2,-2,-2,-2,-2,-1,-2,-3,2021-08-07 12:07:07,442434
-1,1,1,0,-2,0,-2,0,2021-08-07 12:07:07,443470
-2,-3,-2,-5,-3,0,-2,-2,2021-08-07 12:07:07,443470
3,6,10,12,9,7,3,3,2021-08-07 12:07:07,443470
1,-1,0,7,0,-2,-2,0,2021-08-07 12:07:07,474435
-3,-2,-1,0,0,-1,-1,0,2021-08-07 12:07:07,490445
-1,1,-4,-6,-3,-3,-2,-2,2021-08-07 12:07:07,490445
1,2,2,4,1,1,1,2,2021-08-07 12:07:07,490445
-2,-3,-8,-8,2,2,1,-1,2021-08-07 12:07:07,490445
-1,3,3,8,0,0,1,0,2021-08-07 12:07:07,490445
-3,-4,-3,1,3,1,-2,-2,2021-08-07 12:07:07,490445
-3,-2,2,1,1,0,-1,-1,2021-08-07 12:07:07,490445
-1,1,1,0,-1,-1,-2,0,2021-08-07 12:07:07,522471
-1,-2,-3,-4,-3,-4,-3,-1,2021-08-07 12:07:07,522471
-2,-2,-3,-7,-5,-4,-1,-1,2021-08-07 12:07:07,522471
-2,-3,-2,-4,-4,-2,0,-2,2021-08-07 12:07:07,522471
0,2,2,6,11,3,1,-1,2021-08-07 12:07:07,522471
-2,-3,-6,-10,-9,-6,-2,-4,2021-08-07 12:07:07,522471
1,0,1,2,-3,-3,-1,-1,2021-08-07 12:07:07,522471
3,-1,1,4,3,3,1,2,2021-08-07 12:07:07,523434
0,-1,4,8,5,1,2,-1,2021-08-07 12:07:07,538474
2,0,1,2,2,2,-1,0,2021-08-07 12:07:07,554483
-7,-5,-7,-8,-9,-6,-4,-3,2021-08-07 12:07:07,570437
0,1,-3,-7,-3,-3,-2,-1,2021-08-07 12:07:07,570437
0,1,5,8,2,2,1,1,2021-08-07 12:07:07,570437
0,0,0,-1,2,1,0,-1,2021-08-07 12:07:07,570437
1,-4,-3,1,-2,-1,-1,-1,2021-08-07 12:07:07,570437
-2,-3,-1,-4,-1,1,-1,-2,2021-08-07 12:07:07,570437
-1,-2,-2,-5,-5,-6,-2,-1,2021-08-07 12:07:07,601460
-1,0,1,-1,3,0,0,0,2021-08-07 12:07:07,601460
1,-1,-2,-4,-4,0,0,1,2021-08-07 12:07:07,601460
-5,-5,-1,0,1,-2,-4,-4,2021-08-07 12:07:07,601460
2,2,0,3,3,4,3,4,2021-08-07 12:07:07,601460
-1,-2,0,3,-3,-1,-1,-1,2021-08-07 12:07:07,601460
0,0,-1,-3,0,-1,0,-1,2021-08-07 12:07:07,601460
-6,-5,-4,-9,-12,-8,-5,-3,2021-08-07 12:07:07,601460
-2,-2,-4,-2,4,1,0,-1,2021-08-07 12:07:07,632437
2,3,1,3,5,2,1,2,2021-08-07 12:07:07,648433
2,1,1,2,3,1,0,0,2021-08-07 12:07:07,664472
3,2,2,6,10,6,2,0,2021-08-07 12:07:07,664472
-5,-6,-5,-9,-12,-8,-6,-4,2021-08-07 12:07:07,664472
-3,-3,-4,-3,-2,-1,-2,-2,2021-08-07 12:07:07,664472
1,1,0,-1,-3,-3,-1,-1,2021-08-07 12:07:07,664472
-3,-2,-4,-6,-6,-4,-2,-1,2021-08-07 12:07:07,664472
-1,-1,-1,0,0,-1,-1,-2,2021-08-07 12:07:07,665436
2,3,0,2,6,2,2,3,2021-08-07 12:07:07,665436
-1,-2,-1,-2,-6,0,1,-1,2021-08-07 12:07:07,665436
1,2,2,8,9,4,0,2,2021-08-07 12:07:07,665436
0,-1,-2,4,5,2,0,-1,2021-08-07 12:07:07,696434
-3,-3,-1,-4,-8,-5,-1,-3,2021-08-07 12:07:07,712431
-1,1,0,2,3,-2,-1,-1,2021-08-07 12:07:07,712431
0,2,-2,-4,-6,-4,-1,0,2021-08-07 12:07:07,712431
-3,-3,-2,-8,-9,-6,-5,-3,2021-08-07 12:07:07,712431
-1,-1,0,6,9,4,2,1,2021-08-07 12:07:07,712431
-4,-7,-4,0,-2,-2,-1,-3,2021-08-07 12:07:07,712431
2,0,1,-5,-5,-3,-1,1,2021-08-07 12:07:07,712431
1,1,-1,-3,-4,0,-1,0,2021-08-07 12:07:07,744437
0,-2,-2,4,4,2,2,0,2021-08-07 12:07:07,759469
1,0,-1,-2,-2,0,0,0,2021-08-07 12:07:07,759469
-3,-3,-2,-1,-1,-1,2,-1,2021-08-07 12:07:07,759469
-3,-4,-4,-4,-5,-4,-3,-2,2021-08-07 12:07:07,759469
-6,-7,-6,-7,-9,-8,-6,-5,2021-08-07 12:07:07,759469
9,12,9,5,9,5,5,6,2021-08-07 12:07:07,759469
0,1,0,5,5,4,2,0,2021-08-07 12:07:07,760435
-2,-1,0,0,0,1,-1,-1,2021-08-07 12:07:07,775471
-1,-3,-3,-4,-4,-1,-1,-1,2021-08-07 12:07:07,775471
0,-1,-2,0,1,0,-1,0,2021-08-07 12:07:07,775471
0,-1,0,-3,-4,-4,-1,-1,2021-08-07 12:07:07,775471
-1,-1,1,0,-2,-3,-1,-2,2021-08-07 12:07:07,807437
-1,-4,-7,-16,-7,-3,-1,1,2021-08-07 12:07:07,807437
0,3,2,11,10,5,2,1,2021-08-07 12:07:07,807437
4,2,5,8,6,4,1,1,2021-08-07 12:07:07,807437
-6,-5,-5,-2,1,0,-1,-1,2021-08-07 12:07:07,807437
-1,-1,-2,-7,-6,-5,-3,0,2021-08-07 12:07:07,807437
-7,-8,-6,-10,-12,-9,-7,-5,2021-08-07 12:07:07,808434
2,5,5,9,14,6,2,1,2021-08-07 12:07:07,808434
3,5,4,2,1,1,1,2,2021-08-07 12:07:07,839470
3,1,1,5,1,1,0,0,2021-08-07 12:07:07,839470
-4,-2,-2,-2,-1,-1,-2,-2,2021-08-07 12:07:07,854470
-8,-8,-8,-10,-10,-8,-7,-5,2021-08-07 12:07:07,854470
-1,-1,-3,-4,-3,-3,-2,-1,2021-08-07 12:07:07,854470
7,6,6,10,9,11,12,10,2021-08-07 12:07:07,854470
5,0,-2,1,2,3,3,3,2021-08-07 12:07:07,854470
-2,0,0,-1,-5,-5,-6,-5,2021-08-07 12:07:07,854470
-16,-8,-8,-10,-14,-18,-21,-20,2021-08-07 12:07:07,870468
-8,-4,-5,-6,-6,-6,-9,-7,2021-08-07 12:07:07,886437
-3,-4,-3,-6,-3,-2,1,1,2021-08-07 12:07:07,886437
4,1,1,11,12,9,8,8,2021-08-07 12:07:07,886437
11,11,9,9,8,10,9,10,2021-08-07 12:07:07,886437
1,1,0,1,-2,-2,0,-1,2021-08-07 12:07:07,886437
-2,-1,-1,-5,-5,-2,-2,-2,2021-08-07 12:07:07,886437
0,1,3,-1,-1,-2,-1,-2,2021-08-07 12:07:07,886437
0,-3,-3,-2,-6,-2,1,1,2021-08-07 12:07:07,918481
-3,-3,-2,-7,-6,-5,-5,-2,2021-08-07 12:07:07,934469
1,2,3,4,8,5,0,1,2021-08-07 12:07:07,934469
-1,-1,1,0,0,-3,0,-2,2021-08-07 12:07:07,934469
-2,-4,-5,-4,-4,-2,0,-2,2021-08-07 12:07:07,934469
0,0,2,3,-3,-2,-2,-2,2021-08-07 12:07:07,934469
0,-1,-7,-12,-11,-4,-3,-2,2021-08-07 12:07:07,934469
-1,0,5,22,24,10,2,0,2021-08-07 12:07:07,934469
-2,-2,-4,-6,-1,-2,-1,1,2021-08-07 12:07:07,950468
-2,-2,0,2,2,0,-1,-3,2021-08-07 12:07:07,981480
1,-2,-2,-2,-4,-3,-2,0,2021-08-07 12:07:07,981480
1,2,0,-4,-11,-5,-2,0,2021-08-07 12:07:07,981480
5,2,0,0,2,3,2,3,2021-08-07 12:07:07,981480
-3,-2,-2,-1,-3,-3,-2,-4,2021-08-07 12:07:07,981480
-1,-3,-2,-7,-2,-2,-2,-2,2021-08-07 12:07:07,981480
-5,-9,-9,-13,-11,-9,-6,-6,2021-08-07 12:07:07,981480
-4,-5,-3,-2,-2,-1,-1,-2,2021-08-07 12:07:07,997471
3,5,9,18,20,10,6,4,2021-08-07 12:07:08,013470
1,2,1,5,2,2,1,-1,2021-08-07 12:07:08,029480
-2,-3,-5,-9,-7,-2,-2,-2,2021-08-07 12:07:08,029480
-5,-4,-5,-4,-7,-5,-5,-3,2021-08-07 12:07:08,029480
1,2,-1,-8,-8,-4,-1,1,2021-08-07 12:07:08,029480
1,1,2,6,9,4,3,2,2021-08-07 12:07:08,029480
-1,-1,-3,-4,-4,-2,0,0,2021-08-07 12:07:08,029480
-2,-2,0,1,0,1,1,-2,2021-08-07 12:07:08,030468
0,-1,-1,1,2,2,-2,0,2021-08-07 12:07:08,030468
-3,-3,-4,-3,-2,-4,-1,-4,2021-08-07 12:07:08,030468
-5,-5,-5,-4,-7,-4,-4,-4,2021-08-07 12:07:08,030468
4,5,5,4,3,1,3,5,2021-08-07 12:07:08,044473
1,0,-1,0,3,2,-1,-1,2021-08-07 12:07:08,044473
-5,-4,-3,-3,-4,-4,-5,-2,2021-08-07 12:07:08,044473
-2,-3,-3,-3,-4,-2,-1,-2,2021-08-07 12:07:08,044473
4,4,0,0,1,2,2,2,2021-08-07 12:07:08,076469
-2,-2,-4,-5,-8,-5,-2,-1,2021-08-07 12:07:08,092486
-3,-2,-2,0,-4,-1,-2,-4,2021-08-07 12:07:08,092486
-1,0,-1,5,10,3,-1,1,2021-08-07 12:07:08,092486
-1,-3,-1,-2,-3,-2,-2,0,2021-08-07 12:07:08,092486
-1,-1,-3,-6,-6,-2,-1,0,2021-08-07 12:07:08,092486
1,1,1,2,-4,-3,-2,0,2021-08-07 12:07:08,092486
0,1,-3,-3,7,5,3,1,2021-08-07 12:07:08,093469
5,2,8,14,14,7,5,2,2021-08-07 12:07:08,100468
0,-2,-3,-3,-6,-3,0,1,2021-08-07 12:07:08,101437
-2,-2,-2,-1,-2,-1,1,0,2021-08-07 12:07:08,124435
-5,-6,-5,-15,-17,-10,-6,-6,2021-08-07 12:07:08,140437
-4,-2,-1,2,3,0,-1,-3,2021-08-07 12:07:08,140437
-2,-1,2,2,2,-1,-3,-2,2021-08-07 12:07:08,140437
1,3,6,10,9,4,1,1,2021-08-07 12:07:08,140437
0,2,1,-2,-5,-2,0,1,2021-08-07 12:07:08,140437
-3,-4,-6,-8,-10,-4,-4,-3,2021-08-07 12:07:08,155434
-1,-1,-2,-1,2,0,0,1,2021-08-07 12:07:08,155434
0,1,-1,-1,-2,-1,0,-1,2021-08-07 12:07:08,155434
0,-1,-1,-2,-1,1,0,-1,2021-08-07 12:07:08,155434
0,0,0,-2,-4,-1,-1,0,2021-08-07 12:07:08,155434
-3,-4,-4,-6,-4,-2,-1,-2,2021-08-07 12:07:08,155434
1,2,3,10,13,7,2,1,2021-08-07 12:07:08,187434
-2,-1,-1,0,-5,-2,-1,-1,2021-08-07 12:07:08,203439
-1,-1,-1,2,5,2,1,0,2021-08-07 12:07:08,218470
-1,-3,0,-3,-2,-3,-1,-2,2021-08-07 12:07:08,234468
-1,0,-1,-6,-6,-3,-1,-2,2021-08-07 12:07:08,266483
-2,-3,-2,-6,-8,-4,-4,-1,2021-08-07 12:07:08,282438
-4,-2,-3,-6,0,0,-1,0,2021-08-07 12:07:08,282438
2,3,6,11,9,5,2,1,2021-08-07 12:07:08,282438
2,3,2,6,6,3,3,4,2021-08-07 12:07:08,298449
0,1,-2,-3,-4,-3,0,1,2021-08-07 12:07:08,298449
-2,-4,-3,-5,-6,-5,-4,-3,2021-08-07 12:07:08,313435
-3,-5,-7,-19,-19,-8,-5,-3,2021-08-07 12:07:08,313435
-2,-2,3,19,17,7,0,-2,2021-08-07 12:07:08,313435
5,8,5,2,1,2,1,0,2021-08-07 12:07:08,313435
-4,-4,-2,-4,-3,-3,-1,-4,2021-08-07 12:07:08,313435
1,1,1,2,0,2,0,0,2021-08-07 12:07:08,313435
-4,-7,-6,-18,-18,-10,-8,-4,2021-08-07 12:07:08,314432
2,2,4,10,13,6,5,1,2021-08-07 12:07:08,314432
1,0,0,4,2,2,-1,-1,2021-08-07 12:07:08,314432
-4,-2,-3,1,1,-1,-2,-2,2021-08-07 12:07:08,314432
-3,-2,-5,-12,-12,-7,-2,-2,2021-08-07 12:07:08,314432
1,1,1,5,4,1,1,1,2021-08-07 12:07:08,314432
-1,-1,1,-2,-3,-3,-1,0,2021-08-07 12:07:08,314432
-2,-3,-1,1,3,2,0,-2,2021-08-07 12:07:08,315453
-1,-3,-5,-13,-11,-5,-3,-1,2021-08-07 12:07:08,329480
-3,-3,3,12,11,5,1,-2,2021-08-07 12:07:08,329480
3,3,2,5,4,1,0,1,2021-08-07 12:07:08,329480
1,1,2,4,1,0,0,1,2021-08-07 12:07:08,329480
-1,0,6,2,-3,-1,-1,-1,2021-08-07 12:07:08,329480
1,3,17,9,-4,-2,-1,-1,2021-08-07 12:07:08,329480
2,2,-3,-1,6,3,2,2,2021-08-07 12:07:08,329480
-4,-9,-30,-26,-12,-8,-5,-5,2021-08-07 12:07:08,330468
-5,-9,-10,-9,-8,-8,-5,-5,2021-08-07 12:07:08,330468
-5,-7,-11,-13,-9,-5,-3,-3,2021-08-07 12:07:08,330468
-1,-3,-15,-13,-4,-1,-1,-1,2021-08-07 12:07:08,361438
-1,-2,-7,-10,-3,-3,-1,0,2021-08-07 12:07:08,361438
-1,0,8,-3,0,1,1,-1,2021-08-07 12:07:08,361438
1,2,-4,8,10,6,1,-1,2021-08-07 12:07:08,361438
0,1,17,13,0,0,0,0,2021-08-07 12:07:08,361438
-4,-5,3,4,1,0,-3,-4,2021-08-07 12:07:08,361438
7,9,8,8,2,3,3,4,2021-08-07 12:07:08,361438
3,6,9,3,2,0,0,-1,2021-08-07 12:07:08,362438
-2,-2,-3,-2,-3,-4,-1,-3,2021-08-07 12:07:08,392470
-2,-1,-1,1,0,0,1,-1,2021-08-07 12:07:08,407435
1,1,1,5,4,1,-1,0,2021-08-07 12:07:08,407435
-5,-5,-6,-6,-6,-3,-4,-2,2021-08-07 12:07:08,407435
-4,-3,-6,-4,-2,-2,-2,0,2021-08-07 12:07:08,423434
-2,-1,5,1,-4,-2,-2,-1,2021-08-07 12:07:08,423434
2,0,-1,1,2,1,2,1,2021-08-07 12:07:08,423434
0,-4,-11,-16,-9,-4,-2,-1,2021-08-07 12:07:08,423434
-1,0,3,5,5,-1,0,-1,2021-08-07 12:07:08,423434
1,0,6,7,1,0,1,-2,2021-08-07 12:07:08,423434
0,2,-3,-3,-2,-1,1,-1,2021-08-07 12:07:08,423434
-4,-5,-7,-9,-9,-6,-4,0,2021-08-07 12:07:08,423434
-2,-3,-1,0,-2,-1,-3,-2,2021-08-07 12:07:08,455469
4,5,7,10,10,4,3,-1,2021-08-07 12:07:08,455469
-5,-6,-7,-6,-1,-2,-4,-1,2021-08-07 12:07:08,455469
2,4,7,2,-3,-2,-1,-1,2021-08-07 12:07:08,455469
1,1,-5,-4,-4,0,-1,0,2021-08-07 12:07:08,471468
0,3,3,5,5,3,0,1,2021-08-07 12:07:08,487470
-4,-5,-11,-4,-2,-1,-2,-3,2021-08-07 12:07:08,487470
-4,-7,-3,-1,1,-2,-3,-3,2021-08-07 12:07:08,487470
1,3,5,-1,-4,-3,-1,2,2021-08-07 12:07:08,487470
1,0,-1,-1,3,2,1,0,2021-08-07 12:07:08,487470
-3,-1,2,2,0,-1,0,-2,2021-08-07 12:07:08,487470
-1,-1,-2,-7,-4,-1,-1,0,2021-08-07 12:07:08,487470
1,1,3,16,8,3,2,1,2021-08-07 12:07:08,519471
-2,-3,-1,-6,-8,-4,-3,-3,2021-08-07 12:07:08,519471
1,1,1,-2,3,2,-1,2,2021-08-07 12:07:08,519471
-2,-2,-5,0,0,2,0,-1,2021-08-07 12:07:08,519471
-4,-6,-4,-9,-7,-5,-3,-4,2021-08-07 12:07:08,535469
2,4,3,1,-3,0,0,2,2021-08-07 12:07:08,535469
-1,-2,-3,0,0,-2,-1,-2,2021-08-07 12:07:08,535469
1,0,-4,-1,-2,-2,1,-2,2021-08-07 12:07:08,535469
-6,-7,-5,-5,-1,-1,-2,-3,2021-08-07 12:07:08,551468
7,9,9,8,6,3,3,5,2021-08-07 12:07:08,567480
-3,-3,-3,-3,-6,-2,-3,-2,2021-08-07 12:07:08,567480
-1,-2,0,-1,0,-1,-1,-1,2021-08-07 12:07:08,567480
1,3,-3,-7,-10,-4,-1,-1,2021-08-07 12:07:08,567480
-1,-3,0,9,12,6,1,1,2021-08-07 12:07:08,567480
1,1,-1,4,1,0,0,0,2021-08-07 12:07:08,567480
-1,1,2,4,3,1,-1,-1,2021-08-07 12:07:08,567480
-3,-3,-2,-4,-4,-2,-4,-2,2021-08-07 12:07:08,599437
-1,-3,-3,-5,-8,-3,-3,-2,2021-08-07 12:07:08,599437
1,-1,-1,-5,2,1,-1,-1,2021-08-07 12:07:08,599437
-1,-1,2,4,0,-2,-2,-2,2021-08-07 12:07:08,599437
-1,-2,-2,-4,-2,-3,-2,-4,2021-08-07 12:07:08,599437
-2,0,2,5,4,1,1,1,2021-08-07 12:07:08,599437
-3,-1,-1,-1,-3,-2,-2,-3,2021-08-07 12:07:08,599437
-1,-3,-4,-6,-2,-3,-3,-2,2021-08-07 12:07:08,599437
1,1,2,0,1,1,1,1,2021-08-07 12:07:08,631481
-3,-4,-5,-5,-6,-2,-3,-2,2021-08-07 12:07:08,647469
4,3,2,10,8,4,3,2,2021-08-07 12:07:08,647469
-2,-3,0,-1,-1,-1,-1,-3,2021-08-07 12:07:08,647469
-3,-5,-5,-5,-2,-2,-1,-2,2021-08-07 12:07:08,663468
1,1,2,-2,-3,-3,-2,0,2021-08-07 12:07:08,679469
-3,-3,-1,1,-1,-2,-2,-2,2021-08-07 12:07:08,695436
1,-2,-4,-3,-2,0,0,1,2021-08-07 12:07:08,711437
0,1,1,0,-1,-1,0,-1,2021-08-07 12:07:08,711437
-1,-2,-7,-7,1,1,0,0,2021-08-07 12:07:08,711437
-2,-1,4,4,2,-3,0,-2,2021-08-07 12:07:08,711437
-1,-1,-2,-1,-2,-1,-1,-2,2021-08-07 12:07:08,711437
-3,-2,-1,-1,-4,-3,-1,-2,2021-08-07 12:07:08,711437
-1,-2,-5,-7,-4,-3,-3,-1,2021-08-07 12:07:08,711437
0,0,-1,2,1,1,-1,2,2021-08-07 12:07:08,712433
-1,-1,-2,1,2,0,0,-1,2021-08-07 12:07:08,712433
0,0,-2,-2,-3,1,-2,0,2021-08-07 12:07:08,712433
1,1,2,3,4,3,-1,0,2021-08-07 12:07:08,712433
-1,-3,0,1,-2,-3,-2,-2,2021-08-07 12:07:08,712433
1,3,-3,-11,-5,-1,1,1,2021-08-07 12:07:08,712433
0,0,-1,-1,1,1,-1,-1,2021-08-07 12:07:08,726437
0,-1,3,6,2,-1,1,0,2021-08-07 12:07:08,726437
0,-3,-2,0,0,0,0,-2,2021-08-07 12:07:08,726437
-2,-5,0,-2,-2,-3,0,-2,2021-08-07 12:07:08,726437
0,-1,0,0,1,-2,1,-1,2021-08-07 12:07:08,758472
-3,-3,-2,-2,-6,-3,-3,-3,2021-08-07 12:07:08,774437
3,3,-5,-10,-1,2,2,0,2021-08-07 12:07:08,774437
-1,-1,3,5,1,-1,-1,-1,2021-08-07 12:07:08,774437
1,0,0,-2,-4,-2,-1,1,2021-08-07 12:07:08,774437
0,-1,2,7,4,-1,2,0,2021-08-07 12:07:08,774437
-1,-2,-1,-4,1,0,0,0,2021-08-07 12:07:08,774437
-3,-4,-1,2,-1,-2,-3,-3,2021-08-07 12:07:08,774437
2,3,3,2,1,0,0,1,2021-08-07 12:07:08,790457
1,-3,-2,-5,-7,-2,-1,0,2021-08-07 12:07:08,790457
-1,1,-2,-8,-5,-2,-1,-1,2021-08-07 12:07:08,790457
-2,0,-3,-2,-1,0,-2,0,2021-08-07 12:07:08,790457
-3,-5,-5,-5,-8,-5,-4,-5,2021-08-07 12:07:08,822472
-2,-2,-2,-7,-3,-3,-1,-2,2021-08-07 12:07:08,822472
1,2,7,21,20,9,2,0,2021-08-07 12:07:08,822472
2,-2,-5,-4,-3,1,0,0,2021-08-07 12:07:08,822472
1,0,1,0,4,2,0,1,2021-08-07 12:07:08,838434
-4,-2,-4,-10,-9,-3,-4,-2,2021-08-07 12:07:08,838434
-2,-1,1,6,-3,0,-1,0,2021-08-07 12:07:08,838434
-1,0,-1,-3,-2,-2,-2,-1,2021-08-07 12:07:08,838434
1,-1,-1,1,2,2,0,0,2021-08-07 12:07:08,838434
1,0,0,2,2,1,1,1,2021-08-07 12:07:08,838434
-3,-5,-4,-13,-10,-7,-3,-4,2021-08-07 12:07:08,853437
-2,-1,0,6,4,1,-1,1,2021-08-07 12:07:08,853437
0,1,2,0,3,0,0,1,2021-08-07 12:07:08,885468
0,-1,-2,4,2,0,-2,-1,2021-08-07 12:07:08,885468
-3,-4,-4,-3,-4,-4,-1,-1,2021-08-07 12:07:08,885468
0,0,-1,-8,-10,-5,-1,-1,2021-08-07 12:07:08,885468
-4,-2,-2,1,5,4,0,2,2021-08-07 12:07:08,885468
-1,0,1,4,1,-1,1,0,2021-08-07 12:07:08,885468
-1,-4,-4,-6,-7,-2,-1,-2,2021-08-07 12:07:08,885468
-1,1,0,0,1,-1,0,-2,2021-08-07 12:07:08,886435
-2,-3,-3,1,1,0,0,-1,2021-08-07 12:07:08,917480
0,0,0,-2,-2,1,0,1,2021-08-07 12:07:08,917480
-2,-3,0,-2,-6,-2,-1,-2,2021-08-07 12:07:08,917480
-1,-1,-2,-2,4,1,0,1,2021-08-07 12:07:08,917480
-1,-1,-1,-3,-3,-2,-1,-2,2021-08-07 12:07:08,933470
0,1,-2,1,3,1,2,0,2021-08-07 12:07:08,933470
-2,0,-2,-4,-5,-3,-3,0,2021-08-07 12:07:08,933470
-1,-2,-5,-6,-8,-3,-1,-1,2021-08-07 12:07:08,933470
2,1,2,8,7,3,2,2,2021-08-07 12:07:08,965430
1,0,-2,-1,2,3,2,1,2021-08-07 12:07:08,965430
0,0,-1,1,0,0,1,2,2021-08-07 12:07:08,965430
-1,-4,-5,-7,-6,-4,-3,-2,2021-08-07 12:07:08,965430
-1,0,0,0,-2,-2,0,0,2021-08-07 12:07:08,965430
-4,-3,4,8,5,1,-2,-4,2021-08-07 12:07:08,965430
-1,2,1,0,1,1,-2,-1,2021-08-07 12:07:08,965430
-3,-2,2,-1,-4,-4,-2,-4,2021-08-07 12:07:08,965430
-1,1,-1,-2,-3,-3,-2,0,2021-08-07 12:07:08,995438
1,0,-2,-4,-5,-2,-1,0,2021-08-07 12:07:09,011438
0,-1,-3,-7,-5,-3,-2,-1,2021-08-07 12:07:09,027484
-1,-2,1,6,6,2,3,0,2021-08-07 12:07:09,027484
0,-1,-2,-3,2,1,1,-1,2021-08-07 12:07:09,027484
-1,-1,1,5,1,1,0,1,2021-08-07 12:07:09,027484
-1,-3,-3,-6,-6,-2,-2,-1,2021-08-07 12:07:09,027484
-1,-1,-2,4,0,0,0,-1,2021-08-07 12:07:09,027484
-1,-1,-1,-4,-6,-2,-4,-4,2021-08-07 12:07:09,027484
-2,-2,-3,-4,-5,-5,0,-2,2021-08-07 12:07:09,027484
0,-2,1,3,3,0,0,-3,2021-08-07 12:07:09,027484
-2,-1,-1,-4,-1,-1,0,0,2021-08-07 12:07:09,027484
-1,-1,-4,-1,-2,1,1,0,2021-08-07 12:07:09,043483
-1,-2,1,-1,-3,-3,-1,-3,2021-08-07 12:07:09,043483
3,5,2,3,5,3,4,4,2021-08-07 12:07:09,059470
-3,-2,1,4,4,2,0,-2,2021-08-07 12:07:09,059470
0,-2,-2,-3,-3,-2,-1,-1,2021-08-07 12:07:09,075437
-1,-1,-2,-3,-1,-2,-1,0,2021-08-07 12:07:09,075437
-4,-3,-5,-5,-5,-2,-2,-2,2021-08-07 12:07:09,075437
-2,0,0,0,2,0,-3,-1,2021-08-07 12:07:09,075437
3,2,2,2,2,2,2,2,2021-08-07 12:07:09,091436
-1,1,-1,-2,-3,-1,-3,-2,2021-08-07 12:07:09,107437
-3,-5,-1,2,0,-3,-1,-1,2021-08-07 12:07:09,122434
-2,-4,-5,-4,-2,-2,-2,-2,2021-08-07 12:07:09,122434
1,1,2,4,3,0,0,0,2021-08-07 12:07:09,138435
2,1,2,-1,-1,0,1,0,2021-08-07 12:07:09,138435
-3,0,-2,3,-1,-1,-1,-4,2021-08-07 12:07:09,138435
-3,-2,-3,-4,-2,-2,-2,-2,2021-08-07 12:07:09,138435
-1,1,1,-4,-3,-3,0,-1,2021-08-07 12:07:09,138435
1,-1,0,3,3,1,2,3,2021-08-07 12:07:09,138435
1,-1,-1,-7,-3,0,-1,-1,2021-08-07 12:07:09,138435
0,0,1,2,-1,-2,-1,-1,2021-08-07 12:07:09,138435
-3,-3,0,1,-2,-2,-2,-3,2021-08-07 12:07:09,138435
-2,-1,-5,-6,-4,-4,-2,0,2021-08-07 12:07:09,138435
0,0,3,5,3,1,0,-1,2021-08-07 12:07:09,154436
-2,-2,-3,-2,-2,-1,-1,-1,2021-08-07 12:07:09,154436
2,0,0,2,3,1,1,3,2021-08-07 12:07:09,170435
-3,-2,1,0,3,0,-3,-4,2021-08-07 12:07:09,170435
-2,-3,0,5,0,-1,-2,-1,2021-08-07 12:07:09,170435
-1,1,1,-2,-2,-1,0,1,2021-08-07 12:07:09,170435
-1,0,1,-1,-2,-3,-3,-4,2021-08-07 12:07:09,201553
-3,-3,-4,-5,-4,-2,0,0,2021-08-07 12:07:09,217552
-4,0,-3,-8,-3,-2,-2,-1,2021-08-07 12:07:09,217552
0,0,0,3,3,2,0,-1,2021-08-07 12:07:09,217552
0,1,-2,-2,1,2,1,1,2021-08-07 12:07:09,217552
0,0,3,6,3,0,-1,0,2021-08-07 12:07:09,217552
-1,-2,-2,-4,-4,-3,-2,-2,2021-08-07 12:07:09,217552
0,-1,-3,-7,-7,-2,0,0,2021-08-07 12:07:09,217552
-1,-1,3,7,1,1,-1,0,2021-08-07 12:07:09,233554
2,1,-3,-4,0,3,1,2,2021-08-07 12:07:09,233554
-2,-3,1,6,3,-1,-1,-2,2021-08-07 12:07:09,233554
1,0,-2,-6,-4,-1,-1,0,2021-08-07 12:07:09,233554
1,0,-1,1,-2,0,0,1,2021-08-07 12:07:09,246528
-1,-2,0,-4,-8,-4,-3,-2,2021-08-07 12:07:09,247566
-1,0,-1,2,7,3,1,1,2021-08-07 12:07:09,247566
-3,-3,-1,-1,-1,-3,-1,-2,2021-08-07 12:07:09,247566
-2,-2,-1,0,3,0,0,-1,2021-08-07 12:07:09,281526
1,1,2,0,-2,0,0,-1,2021-08-07 12:07:09,281526
0,-2,-1,-2,-3,-2,-1,1,2021-08-07 12:07:09,281526
-2,-2,4,5,2,-2,-1,-1,2021-08-07 12:07:09,281526
0,-1,-6,-10,-4,-1,2,2,2021-08-07 12:07:09,297547
-1,-1,-1,-3,-2,-1,-3,-3,2021-08-07 12:07:09,297547
2,1,1,7,4,1,0,-1,2021-08-07 12:07:09,297547
-1,-1,0,-2,-3,1,0,-1,2021-08-07 12:07:09,297547
-2,0,-2,-4,-4,-4,-4,-1,2021-08-07 12:07:09,313563
1,1,2,5,5,3,2,2,2021-08-07 12:07:09,313563
-3,-4,-5,-1,-1,-1,-1,-2,2021-08-07 12:07:09,313563
-3,-2,1,2,1,-1,-1,-2,2021-08-07 12:07:09,313563
4,2,1,-4,0,3,1,2,2021-08-07 12:07:09,329529
-2,-2,2,0,-2,-3,-3,-2,2021-08-07 12:07:09,329529
0,-2,-1,-2,-2,1,-1,0,2021-08-07 12:07:09,329529
1,-1,-8,-12,-8,-3,0,-1,2021-08-07 12:07:09,329529
-4,-5,-2,7,3,0,-1,-4,2021-08-07 12:07:09,360527
1,1,0,-3,-1,-1,1,0,2021-08-07 12:07:09,376545
-2,1,2,3,3,2,0,-1,2021-08-07 12:07:09,376545
-1,0,-2,-1,-2,-3,-3,-1,2021-08-07 12:07:09,376545
-1,-1,-1,-4,-3,-2,1,1,2021-08-07 12:07:09,376545
-1,-1,-1,0,-1,1,-1,0,2021-08-07 12:07:09,376545
-1,0,-1,3,-2,-3,0,0,2021-08-07 12:07:09,376545
0,3,5,13,13,7,3,2,2021-08-07 12:07:09,376545
-5,-4,-3,-3,-4,-5,-2,-3,2021-08-07 12:07:09,392527
0,0,-4,-7,-2,-1,1,2,2021-08-07 12:07:09,392527
-2,-2,-2,-7,-3,-4,-2,-1,2021-08-07 12:07:09,392527
0,1,2,4,-3,0,-1,0,2021-08-07 12:07:09,392527
-1,-2,1,4,4,1,1,-1,2021-08-07 12:07:09,408527
-2,-3,-3,0,-2,-3,-1,0,2021-08-07 12:07:09,424059
-1,0,1,0,-2,-1,-1,-3,2021-08-07 12:07:09,424059
0,-1,-2,-3,-1,0,1,1,2021-08-07 12:07:09,424059
-3,-3,-5,-2,-3,-2,-3,-1,2021-08-07 12:07:09,424059
-1,-3,-3,-5,-4,-1,-1,-2,2021-08-07 12:07:09,424059
1,-1,-2,-6,-8,-5,-3,0,2021-08-07 12:07:09,440064
-1,0,0,4,2,1,0,-1,2021-08-07 12:07:09,455061
2,2,2,-2,0,-1,1,0,2021-08-07 12:07:09,455061
-1,0,-1,2,2,0,-1,-1,2021-08-07 12:07:09,455061
2,2,4,5,4,3,1,0,2021-08-07 12:07:09,455061
-1,-2,-3,-7,-6,-4,-2,-2,2021-08-07 12:07:09,455061
-1,-1,-4,-7,-6,-2,-2,-1,2021-08-07 12:07:09,487062
0,1,2,6,10,2,2,1,2021-08-07 12:07:09,487062
-5,-5,-6,-6,-4,-3,-2,-3,2021-08-07 12:07:09,487062
-2,-2,-2,-5,0,-2,-2,-2,2021-08-07 12:07:09,487062
2,5,5,9,5,4,1,3,2021-08-07 12:07:09,487062
-1,-3,-2,0,-2,-2,-2,-4,2021-08-07 12:07:09,488066
-1,-1,-2,-4,-1,1,1,0,2021-08-07 12:07:09,488066
-4,-4,-4,-4,-7,-6,-5,-3,2021-08-07 12:07:09,488066
-2,-3,-1,2,4,1,0,-2,2021-08-07 12:07:09,503062
0,2,2,3,-1,-1,0,-2,2021-08-07 12:07:09,503062
0,1,-1,-2,0,-1,0,1,2021-08-07 12:07:09,518097
-2,-3,-4,-4,-6,-2,-1,-1,2021-08-07 12:07:09,518097
-2,0,-2,-10,-6,-3,-1,-2,2021-08-07 12:07:09,534061
-3,-3,0,4,-1,-3,-4,-2,2021-08-07 12:07:09,550098
2,0,-2,2,10,6,5,2,2021-08-07 12:07:09,566065
0,2,-1,-3,-1,0,1,0,2021-08-07 12:07:09,566065
0,-4,0,4,1,1,0,-1,2021-08-07 12:07:09,566065
-2,-1,-3,-5,-10,-7,-3,-2,2021-08-07 12:07:09,566065
-1,-2,0,-1,2,0,-2,1,2021-08-07 12:07:09,566065
-1,-2,0,-2,-1,-2,-2,-3,2021-08-07 12:07:09,566065
-1,-2,-1,-4,-1,0,-1,-1,2021-08-07 12:07:09,581065
1,1,-2,-4,-3,0,-1,0,2021-08-07 12:07:09,596664
0,-2,0,1,-3,-3,-3,-3,2021-08-07 12:07:09,596664
0,-1,-2,2,1,1,-1,1,2021-08-07 12:07:09,597059
-1,-1,-2,-5,-6,-3,-1,-2,2021-08-07 12:07:09,612162
-1,-1,-1,1,5,2,0,1,2021-08-07 12:07:09,612162
0,1,0,1,-1,0,1,0,2021-08-07 12:07:09,612162
-2,-1,1,1,1,-1,-1,-1,2021-08-07 12:07:09,612162
-2,-2,-3,-2,-6,-3,-3,-3,2021-08-07 12:07:09,612162
-2,-1,-2,-3,0,-1,0,0,2021-08-07 12:07:09,612162
-1,0,-2,-4,-4,-3,1,-1,2021-08-07 12:07:09,612162
-3,-3,0,0,-1,-3,-2,-2,2021-08-07 12:07:09,613161
-2,0,1,-2,0,0,0,2,2021-08-07 12:07:09,644159
1,0,1,1,3,3,3,0,2021-08-07 12:07:09,644159
-2,-3,-2,-1,-4,-2,-4,-2,2021-08-07 12:07:09,644159
1,-2,-1,0,-2,0,0,0,2021-08-07 12:07:09,644159
-1,-2,-2,1,-3,-3,-1,-2,2021-08-07 12:07:09,644159
-1,0,0,-3,1,1,0,0,2021-08-07 12:07:09,644159
-3,-2,-1,-2,-4,-2,-3,-3,2021-08-07 12:07:09,644159
-3,-3,-4,-3,-3,-2,-2,-1,2021-08-07 12:07:09,645163
1,2,1,4,5,1,-1,2,2021-08-07 12:07:09,691160
-2,-1,0,2,1,0,0,0,2021-08-07 12:07:09,691160
-1,-2,-2,-4,-6,-3,-2,-1,2021-08-07 12:07:09,691160
-2,-1,-3,1,0,-2,-2,-1,2021-08-07 12:07:09,691160
3,2,3,3,4,3,2,2,2021-08-07 12:07:09,691160
0,0,0,-1,-3,-2,0,1,2021-08-07 12:07:09,691160
-3,-2,-4,-3,0,-3,-2,-2,2021-08-07 12:07:09,691160
0,-1,1,-1,-3,-1,-1,0,2021-08-07 12:07:09,691160
-2,-2,-1,-2,-2,-1,-2,-4,2021-08-07 12:07:09,707162
-2,-2,-3,-3,-2,-2,-2,-2,2021-08-07 12:07:09,707162
-2,-1,-3,-5,-4,-4,-3,-3,2021-08-07 12:07:09,707162
2,0,-2,-2,1,2,1,0,2021-08-07 12:07:09,707162
0,-1,2,8,7,3,1,-1,2021-08-07 12:07:09,737159
1,3,1,0,0,2,0,1,2021-08-07 12:07:09,753161
-1,-2,0,2,-1,-2,-2,-2,2021-08-07 12:07:09,753161
-3,0,-3,-2,-1,-2,-1,-3,2021-08-07 12:07:09,753161
3,3,-1,-7,-3,0,2,3,2021-08-07 12:07:09,753161
-2,-3,-3,-2,-1,-2,-2,-3,2021-08-07 12:07:09,753161
1,1,3,2,1,2,3,1,2021-08-07 12:07:09,754161
-2,0,0,1,0,-2,-2,-2,2021-08-07 12:07:09,754161
-4,-6,-4,-6,-9,-8,-5,-2,2021-08-07 12:07:09,785159
0,0,-1,-2,-3,0,-1,2,2021-08-07 12:07:09,801187
-2,-1,-1,-3,0,0,-1,1,2021-08-07 12:07:09,817185
1,0,2,4,3,2,-1,0,2021-08-07 12:07:09,833162
-4,-2,0,-3,-5,-2,-4,-4,2021-08-07 12:07:09,833162
1,0,-1,-2,0,-1,-1,0,2021-08-07 12:07:09,833162
-2,-2,-3,-2,-4,-2,-3,-2,2021-08-07 12:07:09,833162
0,1,-1,-1,0,0,1,0,2021-08-07 12:07:09,833162
-3,-3,-2,-4,-5,-3,0,-2,2021-08-07 12:07:09,833162
0,1,3,8,9,4,2,0,2021-08-07 12:07:09,834159
1,1,1,1,-2,-1,1,-1,2021-08-07 12:07:09,834159
0,1,-1,-2,0,-2,-1,0,2021-08-07 12:07:09,834159
-1,-3,-4,0,-3,-2,-1,-1,2021-08-07 12:07:09,834159
0,-3,-4,-5,-1,0,1,1,2021-08-07 12:07:09,834159
-2,-3,-1,0,-1,-2,-1,-2,2021-08-07 12:07:09,834159
-2,-3,-1,4,3,4,1,-2,2021-08-07 12:07:09,834159
0,2,0,0,5,2,1,0,2021-08-07 12:07:09,849163
-7,-2,2,0,-5,-4,-5,-6,2021-08-07 12:07:09,849163
0,0,-1,-6,-4,-3,-2,-1,2021-08-07 12:07:09,849163
0,2,2,-1,-3,-4,-4,-2,2021-08-07 12:07:09,849163
0,-3,-5,-8,-5,-2,-2,-2,2021-08-07 12:07:09,896164
4,3,5,16,11,6,3,2,2021-08-07 12:07:09,896164
-1,-1,1,1,2,1,-1,0,2021-08-07 12:07:09,896164
-1,-2,-3,-4,-3,0,0,1,2021-08-07 12:07:09,896164
-4,-5,-5,-10,-12,-7,-2,-2,2021-08-07 12:07:09,896164
-2,-2,-3,-4,-2,-2,-1,-1,2021-08-07 12:07:09,896164
1,3,3,4,8,4,2,3,2021-08-07 12:07:09,896164
0,-1,0,2,2,1,0,-2,2021-08-07 12:07:09,897163
0,0,1,3,1,-2,0,0,2021-08-07 12:07:09,927680
-4,-2,-6,-10,-11,-6,-2,-4,2021-08-07 12:07:09,927680
-2,-4,-3,-4,-4,-3,-1,-2,2021-08-07 12:07:09,943704
0,-2,-1,-1,-1,-2,-2,-1,2021-08-07 12:07:09,959710
4,4,4,6,6,3,2,3,2021-08-07 12:07:09,991715
-4,-4,-2,-4,-3,-2,-2,-4,2021-08-07 12:07:10,007681
-1,-1,-4,-3,0,-1,-1,1,2021-08-07 12:07:10,023680
-2,0,0,-3,-2,-2,0,0,2021-08-07 12:07:10,039713
2,5,2,4,4,3,0,1,2021-08-07 12:07:10,055680
-5,-6,-1,-4,-5,-5,-4,-5,2021-08-07 12:07:10,055680
-1,3,1,3,1,2,0,0,2021-08-07 12:07:10,055680
1,0,0,3,3,2,0,0,2021-08-07 12:07:10,055680
-2,-1,-1,-2,-1,0,0,-1,2021-08-07 12:07:10,055680
1,1,-2,-5,-4,0,-2,2,2021-08-07 12:07:10,056682
-3,-1,0,-3,-5,-4,-4,-4,2021-08-07 12:07:10,056682
0,-1,-3,-4,-5,-3,-2,-2,2021-08-07 12:07:10,056682
0,0,4,11,9,5,2,1,2021-08-07 12:07:10,056682
1,-1,-3,-1,-3,0,0,1,2021-08-07 12:07:10,056682
-3,-2,1,2,1,-1,0,0,2021-08-07 12:07:10,056682
0,-1,1,2,5,3,4,2,2021-08-07 12:07:10,056682
0,-1,-2,-5,-4,2,3,1,2021-08-07 12:07:10,070703
4,2,3,4,2,1,2,5,2021-08-07 12:07:10,070703
1,0,0,2,3,-2,-3,-2,2021-08-07 12:07:10,070703
-2,-2,0,-3,-1,-2,-5,-5,2021-08-07 12:07:10,070703
-15,-6,-2,-1,-4,-14,-18,-17,2021-08-07 12:07:10,070703
-6,-6,-4,-7,-7,-7,-5,-4,2021-08-07 12:07:10,070703
-2,-2,-3,-2,-2,3,2,2,2021-08-07 12:07:10,071682
5,2,-1,-4,-4,-1,3,4,2021-08-07 12:07:10,071682
3,0,-2,0,2,5,5,6,2021-08-07 12:07:10,071682
3,4,2,3,2,1,0,2,2021-08-07 12:07:10,071682
-2,0,-1,-1,-2,-4,-2,-2,2021-08-07 12:07:10,086681
3,1,2,4,3,5,5,5,2021-08-07 12:07:10,086681
1,-1,-2,-4,-2,-2,1,0,2021-08-07 12:07:10,086681
-4,-4,-2,-2,2,-1,-1,-4,2021-08-07 12:07:10,102677
5,2,-1,-1,1,3,2,4,2021-08-07 12:07:10,102677
-2,-1,2,5,2,-2,-2,-2,2021-08-07 12:07:10,118713
0,-3,-3,-2,-2,-1,-3,0,2021-08-07 12:07:10,134714
-3,-3,-4,-3,-3,-2,0,-2,2021-08-07 12:07:10,134714
1,3,3,-2,-2,1,0,1,2021-08-07 12:07:10,134714
-1,-1,-2,-6,-4,-4,-4,-3,2021-08-07 12:07:10,134714
1,-1,-1,1,5,1,0,1,2021-08-07 12:07:10,134714
0,-2,-2,-4,-4,-1,0,-2,2021-08-07 12:07:10,134714
-6,-4,-4,-1,0,-1,-3,-3,2021-08-07 12:07:10,150702
-4,-2,-2,-3,-4,-2,-1,-2,2021-08-07 12:07:10,150702
-1,1,2,4,-2,-2,1,1,2021-08-07 12:07:10,166679
-1,-1,0,0,4,1,1,-2,2021-08-07 12:07:10,166679
-1,-1,-2,-3,-6,-4,0,-1,2021-08-07 12:07:10,166679
-1,-2,0,0,2,2,0,0,2021-08-07 12:07:10,166679
-1,0,2,5,3,1,1,-1,2021-08-07 12:07:10,166679
-5,-3,-2,-3,-5,-4,-3,-5,2021-08-07 12:07:10,166679
3,0,-1,-5,-8,-2,0,2,2021-08-07 12:07:10,167677
-2,-1,-4,-3,3,1,-1,-1,2021-08-07 12:07:10,167677
0,1,3,2,2,1,0,2,2021-08-07 12:07:10,167677
0,0,-2,0,-1,0,-1,-1,2021-08-07 12:07:10,167677
-3,-4,-2,-3,-2,-1,-2,-4,2021-08-07 12:07:10,182680
-1,1,1,-3,-6,-2,-1,-1,2021-08-07 12:07:10,198676
1,0,1,5,7,4,2,2,2021-08-07 12:07:10,204682
0,-1,0,2,0,-1,-1,-1,2021-08-07 12:07:10,204682
-3,-4,-4,-5,-6,-6,-2,-2,2021-08-07 12:07:10,204682
-2,-3,-3,-4,-6,-4,-2,-1,2021-08-07 12:07:10,204682
2,3,0,4,8,5,2,2,2021-08-07 12:07:10,205678
0,-2,0,-1,-3,0,-1,0,2021-08-07 12:07:10,205678
-2,-4,-2,1,1,1,0,-2,2021-08-07 12:07:10,214677
-1,-2,-1,-4,-6,-5,-2,-2,2021-08-07 12:07:10,230678
-4,-3,-1,-3,-6,-4,-4,-3,2021-08-07 12:07:10,246679
2,1,-1,0,1,2,1,3,2021-08-07 12:07:10,246679
0,1,2,-1,1,-1,0,-1,2021-08-07 12:07:10,246679
0,1,1,4,3,1,1,0,2021-08-07 12:07:10,246679
-1,-3,-4,-1,0,-2,-2,-2,2021-08-07 12:07:10,246679
-1,1,0,1,1,-1,-2,-1,2021-08-07 12:07:10,246679
-3,-3,-2,-1,-1,-1,-3,-2,2021-08-07 12:07:10,262682
3,1,-1,1,1,1,0,2,2021-08-07 12:07:10,262682
-2,-2,-1,-6,-7,-3,-2,-4,2021-08-07 12:07:10,278679
-1,1,2,-2,-2,-2,-1,-3,2021-08-07 12:07:10,310676
0,-1,0,4,3,2,0,1,2021-08-07 12:07:10,326681
-1,-2,-3,-4,-2,0,-1,-2,2021-08-07 12:07:10,326681
0,-2,-3,-5,-7,-3,-3,-3,2021-08-07 12:07:10,326681
0,0,3,5,5,2,1,0,2021-08-07 12:07:10,326681
0,2,-1,1,3,1,0,-1,2021-08-07 12:07:10,341678
-2,0,0,-1,0,-1,-2,-2,2021-08-07 12:07:10,357678
-1,-1,-2,-6,-6,-2,-1,2,2021-08-07 12:07:10,373680
0,0,-1,0,3,0,-1,-1,2021-08-07 12:07:10,373680
-3,-6,-5,-9,-7,-6,-4,-2,2021-08-07 12:07:10,373680
1,1,4,6,7,4,2,2,2021-08-07 12:07:10,373680
3,1,2,2,-3,0,1,1,2021-08-07 12:07:10,373680
-2,-1,-3,-2,-2,-2,-2,-2,2021-08-07 12:07:10,374680
-1,-1,-2,1,0,1,0,0,2021-08-07 12:07:10,374680
-3,-2,-2,0,-2,0,-1,-2,2021-08-07 12:07:10,374680
-1,-2,-1,-2,-2,-2,-2,-4,2021-08-07 12:07:10,374680
-1,-2,-4,-4,-5,-2,-1,0,2021-08-07 12:07:10,374680
-2,-3,-3,0,-2,-2,-2,-2,2021-08-07 12:07:10,374680
-4,-2,-3,-5,-5,-5,-4,-3,2021-08-07 12:07:10,374680
5,5,3,8,9,6,3,1,2021-08-07 12:07:10,375675
0,1,-1,0,-3,-2,-1,0,2021-08-07 12:07:10,375675
1,1,2,-1,-1,1,-2,0,2021-08-07 12:07:10,405675
1,3,0,2,1,0,1,0,2021-08-07 12:07:10,420678
-2,-7,-2,-3,-1,-2,-2,-2,2021-08-07 12:07:10,420678
-1,-9,-3,-4,-4,-2,-2,-2,2021-08-07 12:07:10,420678
-1,1,-1,-3,-3,-2,-2,0,2021-08-07 12:07:10,420678
1,2,3,3,2,2,0,-1,2021-08-07 12:07:10,420678
-4,7,3,0,-2,-1,0,-1,2021-08-07 12:07:10,420678
-1,-3,0,3,1,0,1,1,2021-08-07 12:07:10,420678
-1,-2,-6,-1,-1,-1,0,-1,2021-08-07 12:07:10,421680
-3,-8,-5,-5,-4,-2,-2,-1,2021-08-07 12:07:10,421680
-3,-8,-9,-6,-4,-2,-3,-1,2021-08-07 12:07:10,421680
-1,6,3,1,-2,-1,-3,-2,2021-08-07 12:07:10,421680
1,6,7,5,4,2,1,0,2021-08-07 12:07:10,436680
-1,1,3,3,4,2,2,1,2021-08-07 12:07:10,436680
-2,-5,-11,-13,-8,-6,-2,-3,2021-08-07 12:07:10,452677
-3,-3,-4,-6,-3,-3,-1,-1,2021-08-07 12:07:10,452677
-1,-2,-3,-5,-2,-2,-1,-1,2021-08-07 12:07:10,452677
3,1,2,5,2,2,1,2,2021-08-07 12:07:10,452677
-2,-3,-1,-10,-10,-6,-5,-2,2021-08-07 12:07:10,483677
0,1,1,3,1,2,0,0,2021-08-07 12:07:10,483677
0,-2,2,6,5,1,1,2,2021-08-07 12:07:10,483677
0,0,1,-3,-2,1,-1,-1,2021-08-07 12:07:10,483677
0,2,0,3,4,3,1,0,2021-08-07 12:07:10,499677
-1,-1,-4,-7,-6,-3,-2,1,2021-08-07 12:07:10,515682
-2,-3,1,7,2,0,1,-1,2021-08-07 12:07:10,515682
3,3,1,1,0,1,1,2,2021-08-07 12:07:10,515682
-3,1,3,2,-2,-1,0,0,2021-08-07 12:07:10,515682
-2,-4,-3,-10,-5,-2,-2,-3,2021-08-07 12:07:10,516675
0,0,3,5,4,1,0,-1,2021-08-07 12:07:10,516675
-2,-3,-4,-1,-1,0,-1,-2,2021-08-07 12:07:10,516675
-2,0,0,-1,0,2,1,-2,2021-08-07 12:07:10,546678
0,-1,1,2,1,0,-1,1,2021-08-07 12:07:10,562679
-4,-3,-4,-6,-3,-1,-2,-1,2021-08-07 12:07:10,578678
-2,-3,-3,-1,-3,-4,-1,-1,2021-08-07 12:07:10,578678
0,0,-1,-2,-3,-1,-2,-1,2021-08-07 12:07:10,578678
-2,-4,-5,-9,-5,-4,-2,-3,2021-08-07 12:07:10,578678
0,1,3,5,3,0,-1,-2,2021-08-07 12:07:10,578678
3,3,1,3,4,3,2,1,2021-08-07 12:07:10,578678
-1,-3,-2,0,0,0,0,-1,2021-08-07 12:07:10,578678
0,1,0,3,0,0,0,-1,2021-08-07 12:07:10,579680
-2,-4,-6,-7,-7,-4,-4,-3,2021-08-07 12:07:10,579680
-3,-2,-4,-6,-6,-5,-3,-2,2021-08-07 12:07:10,579680
4,2,2,7,4,2,3,2,2021-08-07 12:07:10,594681
1,1,3,5,4,3,-1,1,2021-08-07 12:07:10,594681
0,-2,-2,-7,-3,-2,0,0,2021-08-07 12:07:10,610674
-3,-4,-1,-1,-3,-3,-2,-2,2021-08-07 12:07:10,610674
-3,-4,-3,-6,-3,-2,-1,-1,2021-08-07 12:07:10,626676
-3,-1,-3,-1,-3,-3,0,-3,2021-08-07 12:07:10,626676
0,1,-2,-4,1,2,-1,1,2021-08-07 12:07:10,626676
-1,-1,0,3,0,1,-1,-1,2021-08-07 12:07:10,626676
-2,-1,-2,1,0,-2,-2,-2,2021-08-07 12:07:10,626676
-1,1,0,0,3,2,1,0,2021-08-07 12:07:10,626676
-1,-3,-5,-7,-8,-4,-4,-2,2021-08-07 12:07:10,642680
0,1,-1,0,2,1,0,1,2021-08-07 12:07:10,658678
-1,-1,2,1,0,-1,-1,0,2021-08-07 12:07:10,674678
-1,0,3,9,5,4,2,0,2021-08-07 12:07:10,690679
0,0,0,2,-3,-4,-1,-1,2021-08-07 12:07:10,690679
-1,-1,-3,-6,-7,-3,-3,-1,2021-08-07 12:07:10,690679
0,-1,-1,2,6,5,1,2,2021-08-07 12:07:10,690679
0,-3,-3,0,2,1,-2,0,2021-08-07 12:07:10,690679
-2,-2,-3,-3,-1,0,2,-2,2021-08-07 12:07:10,691681
-2,-2,-2,1,1,2,2,-1,2021-08-07 12:07:10,691681
-1,-2,-1,-4,-5,-5,-4,-5,2021-08-07 12:07:10,691681
-3,0,3,5,2,1,-2,-4,2021-08-07 12:07:10,691681
-3,-1,1,5,6,1,-2,-3,2021-08-07 12:07:10,691681
2,2,-2,-9,-8,-4,-1,1,2021-08-07 12:07:10,692680
2,1,1,4,-2,-1,2,2,2021-08-07 12:07:10,722677
1,3,4,6,3,0,1,2,2021-08-07 12:07:10,737677
-3,-3,-4,-4,-4,-3,-2,-1,2021-08-07 12:07:10,737677
0,-1,-2,2,0,-1,-3,-1,2021-08-07 12:07:10,737677
-1,0,-3,-2,-3,0,0,1,2021-08-07 12:07:10,737677
-2,-4,-7,-11,-8,-5,-4,-3,2021-08-07 12:07:10,737677
0,1,4,5,3,1,2,1,2021-08-07 12:07:10,737677
-3,-5,1,2,1,-1,-2,-2,2021-08-07 12:07:10,737677
-1,0,0,0,4,0,0,-2,2021-08-07 12:07:10,752675
1,1,1,1,-1,0,-1,0,2021-08-07 12:07:10,768681
0,-1,-5,-6,-4,-3,-2,-1,2021-08-07 12:07:10,799682
0,0,2,2,2,0,2,0,2021-08-07 12:07:10,815677
-1,-2,-1,-1,-3,-3,-1,-1,2021-08-07 12:07:10,815677
-4,-3,-7,-11,-5,-3,-3,-4,2021-08-07 12:07:10,815677
2,-1,0,-1,2,1,1,0,2021-08-07 12:07:10,815677
1,2,5,7,7,4,2,1,2021-08-07 12:07:10,815677
-2,-1,-2,1,-4,-1,0,-2,2021-08-07 12:07:10,815677
-4,-4,-6,-8,-6,-5,-3,-4,2021-08-07 12:07:10,815677
0,0,2,4,0,0,-1,0,2021-08-07 12:07:10,816681
0,1,-1,-3,-2,-1,-2,-1,2021-08-07 12:07:10,816681
-1,-2,-3,-7,0,1,0,2,2021-08-07 12:07:10,816681
1,5,3,3,6,3,4,3,2021-08-07 12:07:10,816681
-5,-5,-6,-12,-11,-6,-5,-3,2021-08-07 12:07:10,816681
-3,-12,-6,-6,-10,-7,-4,-3,2021-08-07 12:07:10,816681
1,2,-2,6,7,2,1,0,2021-08-07 12:07:10,847675
0,-1,0,-1,-1,-1,-1,-1,2021-08-07 12:07:10,847675
4,4,4,6,7,4,4,1,2021-08-07 12:07:10,847675
0,3,0,-5,-4,0,-1,0,2021-08-07 12:07:10,847675
-1,-1,1,0,-5,-3,-4,-1,2021-08-07 12:07:10,862678
-1,-4,-5,-6,-2,0,-2,0,2021-08-07 12:07:10,878679
-1,-2,0,5,4,-1,-1,-3,2021-08-07 12:07:10,894681
0,-1,-4,-4,-1,-1,-1,-1,2021-08-07 12:07:10,894681
1,2,5,4,5,2,-1,-1,2021-08-07 12:07:10,894681
-2,-3,0,-1,-7,-5,-2,-3,2021-08-07 12:07:10,894681
-2,-5,-6,-9,-9,-4,-1,-1,2021-08-07 12:07:10,894681
0,2,0,10,9,4,3,0,2021-08-07 12:07:10,895682
-1,0,-1,-3,-2,-3,-2,-1,2021-08-07 12:07:10,895682
-2,-1,-1,0,-1,0,-1,-1,2021-08-07 12:07:10,895682
-1,-2,-3,-5,-6,-3,-3,-2,2021-08-07 12:07:10,895682
-4,-2,-1,-4,-3,-3,-2,-1,2021-08-07 12:07:10,895682
-2,-3,-3,-6,-7,-4,-1,-2,2021-08-07 12:07:10,926679
2,-1,0,4,7,2,2,0,2021-08-07 12:07:10,942678
2,2,0,5,4,2,0,-1,2021-08-07 12:07:10,942678
-1,2,-1,-4,0,-1,0,-1,2021-08-07 12:07:10,942678
-1,-2,-1,4,-1,0,-2,-3,2021-08-07 12:07:10,942678
1,-2,-6,-14,-17,-7,-3,-1,2021-08-07 12:07:10,942678
1,3,4,9,10,5,1,2,2021-08-07 12:07:10,942678
1,-1,-1,-1,2,1,1,-1,2021-08-07 12:07:10,943677
-4,-2,-3,-5,-4,-3,-1,-4,2021-08-07 12:07:10,958677
-3,-3,-2,0,-4,-3,-2,-3,2021-08-07 12:07:10,958677
-1,-1,-2,-6,-5,-1,-1,-1,2021-08-07 12:07:10,958677
-1,0,3,9,2,0,0,1,2021-08-07 12:07:10,958677
1,0,-1,4,4,1,2,0,2021-08-07 12:07:10,974678
-3,-2,-1,5,0,-2,-4,0,2021-08-07 12:07:10,990680
0,-1,-3,-4,-3,-1,-1,-2,2021-08-07 12:07:11,006673
-1,-5,-3,-3,-4,-1,-2,-1,2021-08-07 12:07:11,006673
-2,-2,-3,-8,-7,-5,-3,-1,2021-08-07 12:07:11,006673
5,4,4,14,15,8,4,3,2021-08-07 12:07:11,006673
-3,-4,-4,-4,-6,-3,-2,-1,2021-08-07 12:07:11,022677
-2,0,-1,-3,-2,-2,-1,-1,2021-08-07 12:07:11,022677
0,-1,0,-2,-2,-2,0,-1,2021-08-07 12:07:11,022677
-3,-4,-3,-7,-5,-3,-3,-3,2021-08-07 12:07:11,022677
1,0,2,3,6,3,0,-1,2021-08-07 12:07:11,022677
-1,1,2,-1,-3,-1,-2,-1,2021-08-07 12:07:11,022677
0,0,1,4,4,1,0,1,2021-08-07 12:07:11,054674
-3,-3,-2,-5,-5,-3,-4,-3,2021-08-07 12:07:11,070677
1,-1,-2,-6,-5,-3,-1,-1,2021-08-07 12:07:11,070677
1,0,0,1,5,2,0,-1,2021-08-07 12:07:11,070677
-1,-3,-3,-6,-4,-3,0,0,2021-08-07 12:07:11,070677
-1,-1,3,9,4,2,2,-2,2021-08-07 12:07:11,070677
-1,1,1,4,-1,-1,0,0,2021-08-07 12:07:11,070677
-3,-3,-3,-5,-3,-3,-5,-3,2021-08-07 12:07:11,070677
-1,-1,-2,0,2,1,0,0,2021-08-07 12:07:11,071681
-3,1,0,1,0,-2,-2,-1,2021-08-07 12:07:11,071681
-1,-1,-5,-7,-2,-3,-1,2,2021-08-07 12:07:11,071681
-1,-1,-2,0,-1,-2,-2,-1,2021-08-07 12:07:11,071681
0,2,2,0,-2,0,-1,-2,2021-08-07 12:07:11,101675
-2,-2,-6,-10,-8,-3,-2,-2,2021-08-07 12:07:11,116678
-1,0,4,6,3,2,1,0,2021-08-07 12:07:11,116678
-3,-2,-2,-3,-2,-1,-1,1,2021-08-07 12:07:11,116678
1,3,4,10,8,5,3,1,2021-08-07 12:07:11,116678
0,2,-1,-3,-3,-2,-1,-2,2021-08-07 12:07:11,116678
-1,-4,-3,-3,-4,-3,-3,-1,2021-08-07 12:07:11,116678
0,-5,-3,-3,-5,-2,0,1,2021-08-07 12:07:11,116678
-3,-3,-4,-3,-5,-5,-3,-2,2021-08-07 12:07:11,132683
-3,-5,-6,-13,-8,-3,-4,-2,2021-08-07 12:07:11,132683
5,9,10,23,19,9,4,2,2021-08-07 12:07:11,132683
2,2,3,3,2,1,2,0,2021-08-07 12:07:11,132683
0,-1,-2,-1,-2,-2,-3,0,2021-08-07 12:07:11,164677
-2,-4,-3,-8,-4,-2,-2,-3,2021-08-07 12:07:11,171679
-3,-5,-6,-11,-9,-6,-4,-2,2021-08-07 12:07:11,172683
0,1,0,0,-1,-2,-1,0,2021-08-07 12:07:11,172683
-1,-1,0,2,1,-2,0,-1,2021-08-07 12:07:11,172683
-1,1,1,5,7,2,-1,1,2021-08-07 12:07:11,172683
-3,-2,-3,-4,-4,-2,-2,-1,2021-08-07 12:07:11,196689
-2,-1,0,2,0,-2,0,-1,2021-08-07 12:07:11,196689
-3,-6,-7,-13,-9,-3,-2,-2,2021-08-07 12:07:11,196689
0,1,5,11,5,2,1,-1,2021-08-07 12:07:11,196689
1,2,2,-1,-1,0,1,1,2021-08-07 12:07:11,196689
0,1,-1,1,0,0,-1,-2,2021-08-07 12:07:11,196689
0,0,1,0,1,0,-1,-1,2021-08-07 12:07:11,228679
0,-3,0,2,1,2,2,0,2021-08-07 12:07:11,228679
-1,-2,-3,-5,-5,-1,-2,-1,2021-08-07 12:07:11,228679
1,0,0,-2,-4,-1,-1,0,2021-08-07 12:07:11,228679
-1,-2,-1,0,0,-2,-3,0,2021-08-07 12:07:11,244680
-1,0,-1,-2,2,-1,0,-1,2021-08-07 12:07:11,260679
-2,-2,-1,1,-3,-3,-1,-2,2021-08-07 12:07:11,276678
-1,-1,-4,-7,-7,-4,-1,-2,2021-08-07 12:07:11,276678
-2,-2,0,4,7,4,1,0,2021-08-07 12:07:11,276678
-3,-3,-3,-4,-4,-3,-1,-2,2021-08-07 12:07:11,276678
-1,-2,-3,-10,-6,-3,-1,2,2021-08-07 12:07:11,276678
-1,-1,0,1,3,1,1,-2,2021-08-07 12:07:11,292678
0,1,2,4,-2,-2,-1,-2,2021-08-07 12:07:11,292678
0,0,-3,-5,-6,-3,-2,1,2021-08-07 12:07:11,292678
-1,-1,2,8,4,1,1,-1,2021-08-07 12:07:11,292678
0,1,-1,-2,2,0,0,0,2021-08-07 12:07:11,292678
0,-3,-4,-4,-3,-2,-1,-1,2021-08-07 12:07:11,292678
1,1,2,4,4,1,0,-1,2021-08-07 12:07:11,292678
-1,-1,-1,-5,-2,-2,-2,-2,2021-08-07 12:07:11,292678
-4,-3,-6,-4,-3,0,-1,-2,2021-08-07 12:07:11,293682
-1,2,1,3,0,0,-1,-2,2021-08-07 12:07:11,323683
3,2,2,3,4,2,3,2,2021-08-07 12:07:11,323683
-1,-1,-3,-3,-1,-1,0,-2,2021-08-07 12:07:11,323683
0,-1,-1,4,1,1,0,-1,2021-08-07 12:07:11,323683
-1,-1,-4,-7,-2,0,-1,0,2021-08-07 12:07:11,339678
-3,-3,-3,-3,-8,-5,-3,-3,2021-08-07 12:07:11,339678
0,-1,-2,-4,2,2,3,1,2021-08-07 12:07:11,339678
-1,1,0,0,-1,-2,-1,-1,2021-08-07 12:07:11,339678
0,3,3,9,10,4,2,1,2021-08-07 12:07:11,355680
0,1,0,-1,-2,-4,-2,-1,2021-08-07 12:07:11,370679
-3,-3,-4,-5,-4,-4,-3,-2,2021-08-07 12:07:11,370679
-2,-2,-2,-5,-6,-4,-1,0,2021-08-07 12:07:11,370679
-2,-2,-2,-5,-7,-3,-1,-2,2021-08-07 12:07:11,370679
-3,-5,-5,-2,7,1,1,0,2021-08-07 12:07:11,370679
-1,-1,0,1,1,-2,0,-1,2021-08-07 12:07:11,386680
1,3,3,4,6,3,1,1,2021-08-07 12:07:11,402681
1,2,-4,-10,-7,-3,-1,1,2021-08-07 12:07:11,402681
0,0,4,12,6,2,0,-2,2021-08-07 12:07:11,402681
-1,-1,-1,2,0,-2,1,-1,2021-08-07 12:07:11,402681
-4,-5,-3,-6,-3,-4,-4,-4,2021-08-07 12:07:11,402681
-1,-1,1,2,3,1,0,1,2021-08-07 12:07:11,403679
1,0,-2,-4,-4,-3,0,0,2021-08-07 12:07:11,403679
0,-2,-1,-5,-6,-2,-1,1,2021-08-07 12:07:11,418676
-1,-1,-1,-1,1,1,0,-1,2021-08-07 12:07:11,418676
-6,-5,-1,-1,-1,0,1,-1,2021-08-07 12:07:11,434677
-1,-2,-5,-5,-7,2,1,3,2021-08-07 12:07:11,434677
0,-2,-2,0,1,-3,-7,-5,2021-08-07 12:07:11,434677
-3,3,3,1,-8,-8,-9,-6,2021-08-07 12:07:11,434677
-1,-1,-2,0,-2,-2,-3,-2,2021-08-07 12:07:11,466677
-3,-1,-1,0,-1,0,1,-1,2021-08-07 12:07:11,482681
0,-1,-2,-7,-2,2,3,0,2021-08-07 12:07:11,513678
1,-2,-2,1,-3,2,1,2,2021-08-07 12:07:11,529678
2,2,3,9,9,5,3,2,2021-08-07 12:07:11,545678
3,2,2,0,2,2,1,0,2021-08-07 12:07:11,561680
-4,-5,-3,-2,-7,-4,-3,-3,2021-08-07 12:07:11,577678
2,0,-5,-6,-1,0,1,-1,2021-08-07 12:07:11,577678
-1,-2,-1,2,2,-2,-2,-2,2021-08-07 12:07:11,577678
-2,-4,-5,-7,-5,-4,-2,-2,2021-08-07 12:07:11,577678
3,4,6,9,12,7,2,2,2021-08-07 12:07:11,577678
1,2,4,4,2,0,-1,2,2021-08-07 12:07:11,578680
-2,-4,-3,-6,-9,-3,-3,-2,2021-08-07 12:07:11,578680
-1,-1,-5,-10,-6,-4,-4,-2,2021-08-07 12:07:11,578680
-4,-1,2,7,7,1,0,-2,2021-08-07 12:07:11,578680
1,-3,-1,1,1,1,3,3,2021-08-07 12:07:11,578680
1,-1,-4,-5,-2,2,1,0,2021-08-07 12:07:11,578680
-3,-5,0,0,-7,-5,-5,-4,2021-08-07 12:07:11,579681
-4,-2,-1,-4,-5,-2,0,-3,2021-08-07 12:07:11,579681
-3,0,2,4,3,1,0,-3,2021-08-07 12:07:11,579681
-1,1,2,3,-1,-4,-4,-1,2021-08-07 12:07:11,579681
0,3,3,5,4,2,-1,-1,2021-08-07 12:07:11,579681
2,1,-4,-5,-6,-4,-3,0,2021-08-07 12:07:11,579681
0,-2,-2,-1,-1,0,-1,-1,2021-08-07 12:07:11,579681
0,-3,-5,-13,-10,-8,-4,-2,2021-08-07 12:07:11,579681
0,3,4,13,10,7,4,3,2021-08-07 12:07:11,579681
2,3,2,0,-1,2,1,3,2021-08-07 12:07:11,579681
-1,-5,-4,-4,-3,-5,-3,-4,2021-08-07 12:07:11,580680
0,0,0,3,4,2,0,0,2021-08-07 12:07:11,608678
-1,-1,-2,-2,-1,0,-1,0,2021-08-07 12:07:11,624678
-2,-3,-4,-1,-3,-2,-2,-2,2021-08-07 12:07:11,624678
1,2,2,-2,2,2,1,2,2021-08-07 12:07:11,624678
-2,-2,-4,-13,-12,-6,-4,-2,2021-08-07 12:07:11,624678
0,-1,0,2,6,1,1,1,2021-08-07 12:07:11,624678
1,2,5,14,10,5,3,0,2021-08-07 12:07:11,624678
0,-1,-4,-5,-4,-2,-1,-2,2021-08-07 12:07:11,624678
-1,0,2,5,7,3,2,0,2021-08-07 12:07:11,640680
-2,-4,-5,-11,-8,-6,-4,-4,2021-08-07 12:07:11,656678
-2,-3,-4,-4,-4,-2,-2,0,2021-08-07 12:07:11,665680
1,0,-2,-2,-2,-1,3,1,2021-08-07 12:07:11,666681
-4,-3,-1,1,0,-1,0,-3,2021-08-07 12:07:11,666681
2,4,4,7,0,0,-1,1,2021-08-07 12:07:11,666681
0,1,-1,-2,-1,1,0,1,2021-08-07 12:07:11,666681
0,-1,-2,-4,-3,0,-1,-1,2021-08-07 12:07:11,666681
-1,0,-1,1,0,-1,-2,-2,2021-08-07 12:07:11,687678
-3,-3,-3,-4,-4,-4,-1,-2,2021-08-07 12:07:11,687678
-2,-3,-6,-8,-9,-7,-3,-2,2021-08-07 12:07:11,687678
0,3,6,12,8,3,3,2,2021-08-07 12:07:11,687678
1,0,-1,-5,-2,0,0,0,2021-08-07 12:07:11,687678
-1,0,-1,1,3,0,0,-2,2021-08-07 12:07:11,688679
-2,-3,-1,-2,-3,-4,-2,0,2021-08-07 12:07:11,703678
0,-1,-3,-4,-4,0,-1,-2,2021-08-07 12:07:11,703678
-2,-4,-4,-3,-1,-2,-2,0,2021-08-07 12:07:11,735675
0,2,1,3,5,1,0,1,2021-08-07 12:07:11,735675
-3,-1,-4,-4,-1,0,-2,-2,2021-08-07 12:07:11,751677
1,3,4,11,8,5,3,2,2021-08-07 12:07:11,751677
1,-1,-1,-2,-4,-2,-1,-1,2021-08-07 12:07:11,751677
-2,-2,-3,-5,-7,-3,-3,-3,2021-08-07 12:07:11,751677
-2,-3,-2,-3,-1,-2,-3,-2,2021-08-07 12:07:11,751677
-1,1,-1,-7,-7,-5,-2,0,2021-08-07 12:07:11,751677
-1,-1,-2,5,4,1,1,-2,2021-08-07 12:07:11,752678
-2,-4,-1,-1,-2,-1,-2,-2,2021-08-07 12:07:11,752678
4,5,2,-2,0,1,2,3,2021-08-07 12:07:11,767675
1,0,-1,1,-1,1,0,-1,2021-08-07 12:07:11,767675
0,-1,-2,-5,-3,-3,-2,-3,2021-08-07 12:07:11,783677
-2,-1,-2,-5,-3,-3,-3,-1,2021-08-07 12:07:11,783677
-1,-2,2,4,1,-1,0,-1,2021-08-07 12:07:11,783677
-3,-4,-3,1,3,-2,-2,-1,2021-08-07 12:07:11,783677
-2,0,-1,-3,-3,-2,-2,-2,2021-08-07 12:07:11,799677
-2,-1,-5,-7,-6,-2,-1,-1,2021-08-07 12:07:11,799677
2,3,4,3,4,3,3,2,2021-08-07 12:07:11,799677
-2,-1,-1,1,1,0,-1,-1,2021-08-07 12:07:11,799677
-1,-2,0,-1,-1,-3,-3,-1,2021-08-07 12:07:11,831682
-1,-1,-1,-4,-10,-6,-3,-2,2021-08-07 12:07:11,831682
-3,-5,-5,-12,-8,-5,-3,-2,2021-08-07 12:07:11,847678
2,2,2,10,21,10,3,1,2021-08-07 12:07:11,847678
-1,0,0,5,2,1,-1,0,2021-08-07 12:07:11,847678
0,-1,-3,-3,-1,0,-1,-1,2021-08-07 12:07:11,847678
-1,-1,0,0,-7,-4,0,-1,2021-08-07 12:07:11,847678
-3,-4,-3,-8,-12,-6,-3,-2,2021-08-07 12:07:11,847678
0,0,-1,-6,-3,0,-2,-2,2021-08-07 12:07:11,847678
0,2,4,12,10,4,2,0,2021-08-07 12:07:11,848682
0,1,2,5,2,2,0,1,2021-08-07 12:07:11,863678
-3,-2,-3,-6,-6,-2,-3,-2,2021-08-07 12:07:11,863678
-3,-2,-3,-2,-5,-3,-1,-2,2021-08-07 12:07:11,879677
0,-1,-1,-2,-3,-2,-1,-2,2021-08-07 12:07:11,894679
1,2,0,2,5,2,0,0,2021-08-07 12:07:11,894679
-1,-3,-3,-2,-4,-2,-2,0,2021-08-07 12:07:11,894679
1,-1,0,-1,-3,-3,-1,-1,2021-08-07 12:07:11,894679
1,-1,-2,-5,-2,-1,1,1,2021-08-07 12:07:11,894679
-2,-2,-1,1,-1,-1,-1,-2,2021-08-07 12:07:11,910676
-1,0,-2,-3,-2,-4,0,0,2021-08-07 12:07:11,910676
-2,-3,-5,-9,-7,-4,-2,-3,2021-08-07 12:07:11,910676
1,0,6,16,19,7,2,1,2021-08-07 12:07:11,910676
0,-2,-1,-1,-4,-3,-1,-2,2021-08-07 12:07:11,926680
-1,-2,-3,-4,-3,-2,-2,-1,2021-08-07 12:07:11,926680
0,0,-1,-2,-4,-4,-1,-1,2021-08-07 12:07:11,942676
1,-1,-3,-5,-3,-1,0,0,2021-08-07 12:07:11,942676
0,-2,0,2,0,0,-1,-1,2021-08-07 12:07:11,974676
0,-1,-1,-1,-5,-3,-2,-1,2021-08-07 12:07:11,974676
1,1,1,4,6,2,1,0,2021-08-07 12:07:11,974676
-7,-7,-5,-5,-6,-3,-1,-4,2021-08-07 12:07:11,974676
4,9,5,6,5,5,4,3,2021-08-07 12:07:11,974676
1,-1,-1,-4,-5,-3,-1,0,2021-08-07 12:07:11,974676
-2,-2,-3,-12,-18,-9,-4,-2,2021-08-07 12:07:11,975680
3,4,7,14,19,9,3,5,2021-08-07 12:07:11,975680
-2,-4,-4,3,8,2,0,-2,2021-08-07 12:07:11,975680
-3,-1,0,-3,-2,-1,-1,-1,2021-08-07 12:07:11,975680
-2,-1,2,6,2,1,2,-1,2021-08-07 12:07:12,005678
-2,-3,-7,-13,-15,-9,-5,-2,2021-08-07 12:07:12,021678
0,-2,-3,-3,-3,-1,0,-2,2021-08-07 12:07:12,036681
-2,-1,-2,-1,0,2,0,-1,2021-08-07 12:07:12,036681
0,-2,-1,4,3,0,-1,0,2021-08-07 12:07:12,036681
-3,-4,-4,-7,-9,-4,-2,-2,2021-08-07 12:07:12,036681
-3,-3,0,-2,-2,-3,-5,-2,2021-08-07 12:07:12,036681
0,2,1,4,3,0,1,0,2021-08-07 12:07:12,036681
-1,1,3,7,6,2,1,0,2021-08-07 12:07:12,036681
0,0,-2,-1,-1,0,-1,-2,2021-08-07 12:07:12,037681
0,-1,-3,-5,-5,-3,-2,-1,2021-08-07 12:07:12,037681
-2,-4,-3,-6,-3,-1,-2,-2,2021-08-07 12:07:12,037681
0,-1,-2,-1,2,0,0,1,2021-08-07 12:07:12,068715
5,5,3,2,-1,-2,0,1,2021-08-07 12:07:12,084710
-2,-2,-2,-3,-2,-1,-1,-1,2021-08-07 12:07:12,084710
-1,0,0,-1,-2,-2,-2,-3,2021-08-07 12:07:12,084710
-3,-4,-4,0,2,2,-1,-1,2021-08-07 12:07:12,084710
-1,-2,-2,-4,-4,-2,-2,0,2021-08-07 12:07:12,084710
-1,0,-1,-2,-4,-3,-1,-1,2021-08-07 12:07:12,084710
0,1,2,9,14,6,1,1,2021-08-07 12:07:12,085680
-2,-1,-1,0,-1,1,-1,-2,2021-08-07 12:07:12,085680
-2,-3,-4,-4,-9,-6,-3,-1,2021-08-07 12:07:12,085680
-1,1,-2,0,1,2,2,0,2021-08-07 12:07:12,100713
0,-1,-1,-1,-6,-3,-2,-1,2021-08-07 12:07:12,100713
-4,-2,-5,-12,-6,-5,-4,-2,2021-08-07 12:07:12,131677
-1,3,4,5,1,-1,1,0,2021-08-07 12:07:12,131677
1,-1,0,2,1,1,1,-1,2021-08-07 12:07:12,131677
0,-3,-4,-4,-3,-2,-2,-1,2021-08-07 12:07:12,131677
0,1,0,6,8,4,1,0,2021-08-07 12:07:12,131677
0,-2,-3,-8,-7,-1,-1,-2,2021-08-07 12:07:12,132678
-1,-1,0,0,-2,-3,-2,-2,2021-08-07 12:07:12,147702
-1,-2,-4,-4,-7,-4,-1,0,2021-08-07 12:07:12,149680
-2,-1,0,0,-1,0,0,-1,2021-08-07 12:07:12,150681
-1,1,1,5,10,5,2,1,2021-08-07 12:07:12,150681
-3,-5,-4,-1,-2,-2,-2,-2,2021-08-07 12:07:12,179704
0,-3,-2,-5,-2,-1,-1,-1,2021-08-07 12:07:12,179704
0,-1,2,3,-3,0,0,1,2021-08-07 12:07:12,179704
-1,-2,-1,1,-2,-1,0,0,2021-08-07 12:07:12,179704
1,3,-3,0,5,2,1,1,2021-08-07 12:07:12,179704
0,2,3,3,0,-2,2,-1,2021-08-07 12:07:12,179704
-5,-7,-8,-19,-24,-13,-6,-5,2021-08-07 12:07:12,211682
1,0,6,22,24,9,5,2,2021-08-07 12:07:12,211682
0,1,3,2,1,1,1,1,2021-08-07 12:07:12,226677
-1,-2,-4,-2,-2,0,-1,-1,2021-08-07 12:07:12,226677
2,0,1,3,0,0,-3,-2,2021-08-07 12:07:12,226677
-5,-5,-8,-18,-18,-9,-5,-4,2021-08-07 12:07:12,226677
0,-3,-3,-1,1,-1,-1,-1,2021-08-07 12:07:12,242702
-1,1,1,6,6,2,0,0,2021-08-07 12:07:12,242702
-1,-1,-1,-3,-2,-2,-2,0,2021-08-07 12:07:12,242702
2,-1,-2,-6,-4,-3,0,0,2021-08-07 12:07:12,242702
1,0,1,0,1,3,1,1,2021-08-07 12:07:12,242702
-3,-2,-1,2,-1,0,0,-1,2021-08-07 12:07:12,242702
-3,-4,-4,2,2,0,-1,-2,2021-08-07 12:07:12,258676
2,4,1,-4,-1,2,1,1,2021-08-07 12:07:12,274678
-2,-1,-1,-4,-6,-4,-2,-3,2021-08-07 12:07:12,290678
-1,1,1,0,2,0,-2,0,2021-08-07 12:07:12,305678
1,1,-1,1,8,4,4,2,2021-08-07 12:07:12,305678
-4,-3,-2,1,-3,-3,-4,-3,2021-08-07 12:07:12,305678
-1,-4,0,5,-3,-2,-1,-1,2021-08-07 12:07:12,305678
-4,-3,-4,-11,-14,-8,-5,-4,2021-08-07 12:07:12,305678
0,1,0,-3,-2,0,0,0,2021-08-07 12:07:12,305678
3,5,6,12,12,7,3,2,2021-08-07 12:07:12,306681
-2,-3,-4,-9,-6,-4,-3,0,2021-08-07 12:07:12,306681
-1,-1,3,15,18,8,4,0,2021-08-07 12:07:12,306681
0,0,0,1,-2,-2,-2,1,2021-08-07 12:07:12,321680
0,-1,-2,-8,-11,-6,-3,-2,2021-08-07 12:07:12,321680
-2,-3,-6,-10,-11,-6,-3,-3,2021-08-07 12:07:12,321680
-2,-1,-5,-9,-11,-5,-3,-2,2021-08-07 12:07:12,321680
3,3,7,16,19,12,9,3,2021-08-07 12:07:12,337676
-1,-1,-2,-3,-1,1,-1,0,2021-08-07 12:07:12,353702
-5,-3,-4,-2,-1,-7,-10,-8,2021-08-07 12:07:12,369680
-5,-2,-5,-14,-11,-9,-7,-5,2021-08-07 12:07:12,369680
-3,-1,-2,-5,-5,-4,-2,-3,2021-08-07 12:07:12,369680
0,-1,1,4,5,5,4,2,2021-08-07 12:07:12,369680
4,3,3,1,-1,3,5,4,2021-08-07 12:07:12,369680
0,1,-1,-1,2,1,0,-2,2021-08-07 12:07:12,369680
-5,-4,-4,-6,-8,-5,-4,-3,2021-08-07 12:07:12,385675
3,1,0,4,9,3,5,4,2021-08-07 12:07:12,400677
-1,-1,-1,-4,-3,0,0,-1,2021-08-07 12:07:12,400677
7,4,2,3,2,2,5,5,2021-08-07 12:07:12,400677
1,-2,-3,0,2,0,0,1,2021-08-07 12:07:12,400677
-9,-9,-7,-7,-9,-8,-6,-7,2021-08-07 12:07:12,400677
-3,-2,-4,-9,-5,-1,-2,-4,2021-08-07 12:07:12,416677
1,2,8,15,14,7,2,0,2021-08-07 12:07:12,416677
-1,0,-5,-9,-8,-3,-2,-2,2021-08-07 12:07:12,416677
-2,0,-1,-1,-5,-5,-4,-3,2021-08-07 12:07:12,416677
-4,-2,-3,2,4,-2,-3,-1,2021-08-07 12:07:12,416677
4,1,-3,-11,-12,-1,-1,1,2021-08-07 12:07:12,416677
2,2,7,18,15,7,4,1,2021-08-07 12:07:12,448681
-2,-3,-3,-6,-2,-1,-1,-1,2021-08-07 12:07:12,448681
4,2,5,14,11,6,5,4,2021-08-07 12:07:12,448681
-2,-6,-6,-10,-14,-8,-4,-2,2021-08-07 12:07:12,448681
-1,-2,1,13,15,6,1,-1,2021-08-07 12:07:12,464675
-3,-2,-5,-11,-10,-5,-4,-4,2021-08-07 12:07:12,480678
0,0,-2,-12,-19,-7,-2,0,2021-08-07 12:07:12,496678
1,0,5,17,25,9,3,2,2021-08-07 12:07:12,496678
-3,-5,-9,-16,-15,-7,-3,-5,2021-08-07 12:07:12,496678
3,3,5,7,-2,0,0,1,2021-08-07 12:07:12,496678
-2,0,-4,-4,6,1,-1,-2,2021-08-07 12:07:12,496678
-2,-3,-2,2,-4,-1,-2,-1,2021-08-07 12:07:12,496678
-2,1,-2,-9,-8,-5,-2,0,2021-08-07 12:07:12,497681
1,-1,3,11,12,5,1,-1,2021-08-07 12:07:12,497681
2,2,1,-3,-5,-3,-1,2,2021-08-07 12:07:12,497681
-5,-7,-7,-11,-16,-8,-4,-3,2021-08-07 12:07:12,497681
-6,-6,-5,-5,-6,-6,-6,-3,2021-08-07 12:07:12,528678
2,4,1,2,7,6,5,3,2021-08-07 12:07:12,544680
3,6,4,9,0,1,1,1,2021-08-07 12:07:12,560678
-3,-1,-4,-7,2,1,-2,-3,2021-08-07 12:07:12,560678
0,-2,-3,-7,-12,-6,-3,-1,2021-08-07 12:07:12,560678
1,3,0,-1,-3,-2,-2,1,2021-08-07 12:07:12,576682
0,1,6,10,7,3,2,0,2021-08-07 12:07:12,576682
-3,-1,2,6,8,4,3,-2,2021-08-07 12:07:12,576682
-3,-3,-4,-5,-5,-4,-3,-2,2021-08-07 12:07:12,576682
-2,-3,-2,-7,-6,-3,-3,-3,2021-08-07 12:07:12,576682
1,0,1,-3,3,-1,-2,-1,2021-08-07 12:07:12,577678
3,5,3,12,6,1,2,3,2021-08-07 12:07:12,577678
-2,-5,-3,-2,-2,-4,-1,0,2021-08-07 12:07:12,577678
-4,-4,-1,0,2,-2,-2,-3,2021-08-07 12:07:12,577678
-1,-3,1,1,0,1,2,-1,2021-08-07 12:07:12,577678
0,-1,-3,-3,-6,-2,0,0,2021-08-07 12:07:12,577678
3,3,0,-1,5,2,0,3,2021-08-07 12:07:12,607681
-1,-1,-2,-4,-5,-5,-3,-2,2021-08-07 12:07:12,623680
-4,-4,-6,-10,-9,-4,-3,-2,2021-08-07 12:07:12,623680
0,1,4,10,11,4,2,0,2021-08-07 12:07:12,623680
-2,0,-1,-4,-5,-6,-4,-4,2021-08-07 12:07:12,623680
-4,-5,-8,-11,-9,-4,-2,-2,2021-08-07 12:07:12,623680
0,-2,4,6,9,4,0,-1,2021-08-07 12:07:12,624678
-3,-6,-10,-17,-19,-9,-5,-3,2021-08-07 12:07:12,624678
0,0,3,6,9,5,3,0,2021-08-07 12:07:12,634677
2,4,6,13,6,4,2,2,2021-08-07 12:07:12,635677
-5,-5,-7,-11,-7,-4,-3,-4,2021-08-07 12:07:12,655677
0,0,1,8,9,4,-1,2,2021-08-07 12:07:12,655677
10,11,10,3,-3,3,6,6,2021-08-07 12:07:12,655677
-2,-3,-1,-1,-5,-4,-2,-3,2021-08-07 12:07:12,655677
-4,-5,-7,-10,-15,-8,-5,-2,2021-08-07 12:07:12,671680
0,3,8,17,27,12,5,2,2021-08-07 12:07:12,687702
-5,-4,-3,0,1,0,-4,-3,2021-08-07 12:07:12,687702
0,5,-3,-11,-9,-4,-3,1,2021-08-07 12:07:12,687702
1,1,3,10,9,6,1,3,2021-08-07 12:07:12,687702
-4,-5,-5,-8,-8,-6,-5,-4,2021-08-07 12:07:12,687702
-2,-3,-4,-4,-9,-4,-1,-4,2021-08-07 12:07:12,703677
1,0,0,0,2,3,1,1,2021-08-07 12:07:12,703677
1,-1,-2,-1,10,3,0,0,2021-08-07 12:07:12,703677
1,2,9,16,14,5,2,0,2021-08-07 12:07:12,703677
2,4,3,11,1,2,3,2,2021-08-07 12:07:12,718723
-3,-8,-21,-26,-20,-10,-5,-3,2021-08-07 12:07:12,734703
-1,0,0,0,9,1,0,0,2021-08-07 12:07:12,734703
-5,-5,-10,-14,-15,-7,-5,-4,2021-08-07 12:07:12,734703
-2,1,2,0,-12,-8,-4,-2,2021-08-07 12:07:12,734703
0,0,-3,-20,-28,-10,-3,-2,2021-08-07 12:07:12,734703
6,11,22,53,59,29,14,8,2021-08-07 12:07:12,734703
-6,-7,-14,-40,-32,-16,-8,-7,2021-08-07 12:07:12,734703
7,9,15,38,38,22,11,6,2021-08-07 12:07:12,765677
-2,-4,-1,6,2,-3,-3,-2,2021-08-07 12:07:12,781675
-1,-3,-6,-10,-6,-2,-1,-2,2021-08-07 12:07:12,813676
3,2,1,-2,-3,13,7,4,2021-08-07 12:07:12,829677
4,3,4,14,23,17,10,6,2021-08-07 12:07:12,844679
1,1,3,8,10,7,2,0,2021-08-07 12:07:12,844679
-4,-5,-11,-31,-47,-28,-14,-7,2021-08-07 12:07:12,860675
-3,0,-4,-12,-23,-17,-12,-6,2021-08-07 12:07:12,860675
-1,-3,-4,-4,17,7,-1,2,2021-08-07 12:07:12,860675
7,2,6,10,11,8,10,8,2021-08-07 12:07:12,860675
-3,1,-1,0,-5,-9,-9,-6,2021-08-07 12:07:12,860675
-7,-7,-9,-15,-18,-16,-11,-6,2021-08-07 12:07:12,860675
-6,-7,-8,-11,-10,-5,-4,-6,2021-08-07 12:07:12,876674
-1,1,1,2,12,8,3,1,2021-08-07 12:07:12,892677
3,2,1,8,5,8,5,4,2021-08-07 12:07:12,908679
2,1,-2,-8,-8,-3,0,-1,2021-08-07 12:07:12,908679
-5,-4,-4,-13,-20,-12,-7,-4,2021-08-07 12:07:12,908679
1,3,5,18,10,5,3,1,2021-08-07 12:07:12,908679
1,1,5,13,16,12,6,3,2021-08-07 12:07:12,908679
0,0,5,14,24,6,1,-2,2021-08-07 12:07:12,908679
1,0,1,7,10,5,3,3,2021-08-07 12:07:12,908679
-5,-4,-5,-12,-11,-6,-5,-4,2021-08-07 12:07:12,909678
-1,-1,-1,3,3,1,-1,0,2021-08-07 12:07:12,909678
-1,0,-1,-2,-9,-4,0,1,2021-08-07 12:07:12,909678
-7,-7,-11,-28,-29,-18,-9,-5,2021-08-07 12:07:12,909678
0,0,2,0,-4,-3,-1,-1,2021-08-07 12:07:12,909678
-3,-5,-7,-14,-9,-2,-3,-3,2021-08-07 12:07:12,924678
2,3,12,25,20,10,6,2,2021-08-07 12:07:12,924678
-3,-3,-11,-22,-15,-7,-4,-3,2021-08-07 12:07:12,924678
-4,-3,-4,5,1,-5,-6,-7,2021-08-07 12:07:12,924678
-4,-6,-11,-21,-19,-7,-3,-3,2021-08-07 12:07:12,924678
-3,-3,-2,0,-2,-4,-2,-1,2021-08-07 12:07:12,924678
-2,-1,3,-1,-10,-4,-4,-2,2021-08-07 12:07:12,940682
0,-1,1,-3,2,-4,-3,0,2021-08-07 12:07:12,956681
1,0,0,3,8,3,2,-1,2021-08-07 12:07:12,956681
-3,-3,-7,-14,-9,-4,-3,-2,2021-08-07 12:07:12,956681
0,1,4,9,6,3,1,-1,2021-08-07 12:07:12,956681
-3,-4,-6,-14,-4,-2,-2,-2,2021-08-07 12:07:12,956681
1,0,0,-5,-12,-7,-3,1,2021-08-07 12:07:12,957681
2,3,3,14,9,3,1,2,2021-08-07 12:07:12,957681
-4,-4,-6,-10,-16,-8,-5,-4,2021-08-07 12:07:12,957681
4,5,12,23,25,15,7,5,2021-08-07 12:07:12,957681
-3,-3,-9,-13,-15,-7,-2,-4,2021-08-07 12:07:12,957681
-1,-2,-3,-6,1,-1,2,0,2021-08-07 12:07:12,957681
-1,-1,3,10,6,0,0,-2,2021-08-07 12:07:12,988678
-3,-4,-7,-15,-11,-3,-2,-3,2021-08-07 12:07:12,988678
2,5,13,29,13,6,4,1,2021-08-07 12:07:12,988678
2,1,1,3,13,8,3,3,2021-08-07 12:07:12,988678
-2,-3,-7,-11,-7,-7,-4,-1,2021-08-07 12:07:13,020677
-1,-1,-4,-9,-9,-6,-3,-2,2021-08-07 12:07:13,020677
-1,-2,-4,-7,7,3,0,1,2021-08-07 12:07:13,020677
0,-3,2,6,0,-3,-2,-2,2021-08-07 12:07:13,020677
-1,1,5,12,11,5,2,2,2021-08-07 12:07:13,020677
-1,-1,-2,-6,-6,-2,-1,-2,2021-08-07 12:07:13,020677
-2,-1,-1,2,-7,-4,-4,-2,2021-08-07 12:07:13,020677
-2,1,0,3,-1,-1,0,-1,2021-08-07 12:07:13,021681
0,0,-4,-6,1,1,1,-1,2021-08-07 12:07:13,036680
-1,-1,-3,-5,-11,-6,-3,-1,2021-08-07 12:07:13,036680
-1,0,-1,-3,-1,-2,-1,-1,2021-08-07 12:07:13,036680
-5,-6,-9,-18,-21,-10,-6,-5,2021-08-07 12:07:13,036680
3,4,9,21,20,9,3,1,2021-08-07 12:07:13,068675
1,0,1,3,2,3,3,0,2021-08-07 12:07:13,083677
0,-2,7,17,22,8,0,-1,2021-08-07 12:07:13,098678
-2,-3,-5,-12,-15,-6,-2,-2,2021-08-07 12:07:13,098678
3,3,4,13,23,11,3,2,2021-08-07 12:07:13,098678
-1,1,3,6,-1,-3,1,2,2021-08-07 12:07:13,098678
-3,-5,-8,-21,-20,-9,-3,-3,2021-08-07 12:07:13,098678
-2,-2,-2,-4,-13,-6,-3,-2,2021-08-07 12:07:13,098678
1,-2,-6,-10,-3,-2,-3,-3,2021-08-07 12:07:13,099680
2,2,5,14,21,9,3,1,2021-08-07 12:07:13,099680
-2,-2,-4,-13,-19,-8,-3,-2,2021-08-07 12:07:13,099680
-1,-3,-4,-2,9,4,1,0,2021-08-07 12:07:13,099680
-1,-1,0,-5,-13,-6,-2,-2,2021-08-07 12:07:13,130678
2,1,3,7,6,2,3,1,2021-08-07 12:07:13,130678
-2,-3,-5,-10,-9,-5,-3,-1,2021-08-07 12:07:13,130678
-3,-4,-4,-12,-12,-8,-5,-5,2021-08-07 12:07:13,130678
0,0,-2,-3,-8,-4,-1,1,2021-08-07 12:07:13,130678
-1,0,4,20,29,13,3,0,2021-08-07 12:07:13,130678
-1,2,2,5,-6,-3,-2,-2,2021-08-07 12:07:13,145713
0,0,0,7,16,9,2,1,2021-08-07 12:07:13,145713
-3,-3,-3,-6,-13,-10,-6,-4,2021-08-07 12:07:13,160678
-3,-2,-6,-15,-14,-8,-5,-1,2021-08-07 12:07:13,160678
-1,-4,-4,-8,-5,-3,-2,0,2021-08-07 12:07:13,160678
2,1,3,6,0,-2,-2,1,2021-08-07 12:07:13,160678
2,2,3,12,17,10,5,3,2021-08-07 12:07:13,192678
-1,-2,-4,0,4,-1,-1,0,2021-08-07 12:07:13,192678
-2,-1,-1,1,1,1,-1,-3,2021-08-07 12:07:13,192678
0,-2,-1,-3,0,0,2,-1,2021-08-07 12:07:13,192678
1,-1,-2,0,-4,-3,-1,-1,2021-08-07 12:07:13,192678
0,-1,-2,-6,-7,-4,-4,-1,2021-08-07 12:07:13,192678
-1,-1,2,4,4,1,1,0,2021-08-07 12:07:13,208678
-2,0,-2,-1,4,-1,-2,-2,2021-08-07 12:07:13,208678
0,1,-2,-12,-12,-6,-1,-1,2021-08-07 12:07:13,224678
-2,-3,-9,-12,-5,-2,-2,-2,2021-08-07 12:07:13,224678
4,4,12,27,14,5,3,1,2021-08-07 12:07:13,224678
-3,-1,-2,-8,-12,-4,-2,0,2021-08-07 12:07:13,224678
-1,-1,0,1,2,1,0,2,2021-08-07 12:07:13,256678
0,0,3,2,2,2,0,0,2021-08-07 12:07:13,272680
5,3,-1,-1,17,8,5,5,2021-08-07 12:07:13,272680
2,0,1,17,12,7,4,2,2021-08-07 12:07:13,272680
-6,-7,-11,-19,-13,-8,-6,-4,2021-08-07 12:07:13,272680
-3,-2,1,-2,0,0,-1,-3,2021-08-07 12:07:13,272680
-8,-4,-3,-4,-9,-7,-7,-5,2021-08-07 12:07:13,288679
-4,-2,-3,-15,-20,-11,-6,-4,2021-08-07 12:07:13,288679
7,7,14,33,44,19,8,4,2021-08-07 12:07:13,288679
0,-1,-6,-9,-17,-8,-3,-2,2021-08-07 12:07:13,288679
1,2,6,14,17,8,5,3,2021-08-07 12:07:13,288679
0,-1,-3,-3,-6,-3,-3,0,2021-08-07 12:07:13,289680
-4,-5,-8,-16,-20,-9,-5,-3,2021-08-07 12:07:13,304676
0,1,0,-2,-6,-2,0,0,2021-08-07 12:07:13,304676
1,-1,-1,-8,-9,-6,-2,-1,2021-08-07 12:07:13,304676
0,0,7,25,33,13,2,0,2021-08-07 12:07:13,304676
0,1,3,4,1,1,2,2,2021-08-07 12:07:13,320677
2,2,4,12,12,9,4,3,2021-08-07 12:07:13,320677
0,-1,-7,-19,-8,-7,-4,0,2021-08-07 12:07:13,320677
-3,-3,-6,-18,-21,-10,-3,-5,2021-08-07 12:07:13,320677
-1,-2,-1,2,6,1,-3,-2,2021-08-07 12:07:13,351675
0,3,6,12,3,2,1,1,2021-08-07 12:07:13,351675
-4,-6,-8,-5,1,-1,-2,-4,2021-08-07 12:07:13,351675
1,0,-2,-7,-5,-2,-1,2,2021-08-07 12:07:13,351675
0,1,4,8,2,0,0,-1,2021-08-07 12:07:13,367675
0,-1,0,-6,-11,-4,-2,-1,2021-08-07 12:07:13,367675
-4,-5,-5,-9,-12,-7,-4,-3,2021-08-07 12:07:13,367675
4,4,10,24,24,11,6,4,2021-08-07 12:07:13,367675
-2,-3,-3,-9,-11,-1,0,-2,2021-08-07 12:07:13,383677
-2,-3,0,1,1,-1,-1,-3,2021-08-07 12:07:13,383677
-2,-1,-6,-10,-19,-8,-3,-3,2021-08-07 12:07:13,383677
-2,-2,-2,2,10,4,-1,-2,2021-08-07 12:07:13,383677
1,0,-1,-2,0,1,0,0,2021-08-07 12:07:13,399680
1,0,1,1,2,0,-1,0,2021-08-07 12:07:13,399680
-2,0,-2,-2,-2,-1,-3,-2,2021-08-07 12:07:13,399680
-4,-4,-10,-22,-27,-14,-6,-2,2021-08-07 12:07:13,399680
-1,-2,1,5,4,1,-3,-1,2021-08-07 12:07:13,431701
0,0,-3,1,5,-1,0,0,2021-08-07 12:07:13,431701
0,-1,1,-9,-10,-2,-2,-1,2021-08-07 12:07:13,431701
0,2,2,2,2,2,0,-1,2021-08-07 12:07:13,431701
-2,-1,-1,7,8,0,0,0,2021-08-07 12:07:13,447713
-3,-2,-5,-9,-11,-8,-4,-3,2021-08-07 12:07:13,447713
0,2,6,10,13,5,3,0,2021-08-07 12:07:13,447713
-1,0,-3,-5,-9,-4,-1,-1,2021-08-07 12:07:13,447713
-4,-6,-11,-10,-1,-2,0,-1,2021-08-07 12:07:13,463701
-3,-3,-6,-9,-13,-6,-4,-2,2021-08-07 12:07:13,479714
-1,-2,1,9,13,6,1,0,2021-08-07 12:07:13,495678
-1,-2,-3,-5,-6,-3,-3,-2,2021-08-07 12:07:13,511678
-1,-1,-6,-21,-23,-10,-4,1,2021-08-07 12:07:13,526716
-2,-1,-1,4,7,1,-1,-1,2021-08-07 12:07:13,526716
1,1,5,4,3,-1,0,0,2021-08-07 12:07:13,526716
-1,-3,-3,2,4,5,2,0,2021-08-07 12:07:13,526716
-3,-2,-1,-4,-3,-1,0,-2,2021-08-07 12:07:13,526716
-1,-2,-3,-8,-13,-5,-2,-2,2021-08-07 12:07:13,526716
-2,-3,-2,0,7,2,0,-2,2021-08-07 12:07:13,527682
-2,-1,1,2,-2,-1,-1,1,2021-08-07 12:07:13,527682
2,0,3,6,10,5,2,0,2021-08-07 12:07:13,527682
2,2,3,3,3,2,-1,3,2021-08-07 12:07:13,527682
-4,-6,-11,-16,-19,-8,-5,-4,2021-08-07 12:07:13,527682
4,3,8,20,25,11,6,4,2021-08-07 12:07:13,527682
-1,1,3,1,-7,-2,-1,-2,2021-08-07 12:07:13,542681
-5,-5,-8,-22,-23,-10,-5,-3,2021-08-07 12:07:13,557678
4,6,9,28,37,13,6,6,2021-08-07 12:07:13,557678
-2,-2,-1,-7,-8,-4,-5,-4,2021-08-07 12:07:13,557678
0,1,-4,-5,-5,-3,-1,1,2021-08-07 12:07:13,557678
0,-1,0,1,-3,0,1,-1,2021-08-07 12:07:13,557678
-1,-2,-8,-18,-14,-7,-4,-3,2021-08-07 12:07:13,558680
-2,1,8,22,18,7,2,0,2021-08-07 12:07:13,558680
2,2,4,7,7,2,1,1,2021-08-07 12:07:13,589680
-1,-1,-3,-4,1,1,1,-1,2021-08-07 12:07:13,605704
-2,-2,-3,-4,-8,-5,-4,-4,2021-08-07 12:07:13,615680
-2,-2,-9,-23,-28,-15,-6,-3,2021-08-07 12:07:13,615680
1,3,7,9,18,9,4,2,2021-08-07 12:07:13,616679
-1,-1,-1,9,5,4,2,0,2021-08-07 12:07:13,616679
-1,-1,0,2,6,2,1,1,2021-08-07 12:07:13,616679
2,0,-1,2,2,-1,-1,-1,2021-08-07 12:07:13,616679
-3,-3,-6,-14,-17,-8,-6,-3,2021-08-07 12:07:13,616679
-1,-2,-8,-21,-18,-9,-3,-3,2021-08-07 12:07:13,616679
4,3,8,18,18,9,5,2,2021-08-07 12:07:13,637677
-1,-2,-1,0,-2,-1,-2,-1,2021-08-07 12:07:13,637677
-1,-1,1,0,0,0,0,0,2021-08-07 12:07:13,637677
0,-1,0,5,7,0,-2,-1,2021-08-07 12:07:13,637677
-3,-5,-8,-18,-23,-11,-5,-5,2021-08-07 12:07:13,637677
0,-3,-2,-12,-12,-7,-3,-1,2021-08-07 12:07:13,637677
1,0,5,17,18,7,0,-1,2021-08-07 12:07:13,667677
1,2,3,4,5,3,0,0,2021-08-07 12:07:13,667677
-2,-2,-6,-14,-16,-8,-3,0,2021-08-07 12:07:13,667677
-4,-3,-2,-4,-5,-1,-2,-2,2021-08-07 12:07:13,667677
3,5,7,22,25,10,6,3,2021-08-07 12:07:13,683703
-1,-1,3,9,13,3,1,1,2021-08-07 12:07:13,698679
-2,1,6,14,9,3,2,-1,2021-08-07 12:07:13,698679
-3,-4,-8,-15,-13,-7,-3,-4,2021-08-07 12:07:13,713701
-5,-6,-13,-33,-39,-18,-9,-6,2021-08-07 12:07:13,729677
3,3,7,18,23,11,6,4,2021-08-07 12:07:13,729677
-1,-2,-3,-6,-6,-2,-2,-2,2021-08-07 12:07:13,729677
1,1,1,8,11,6,4,1,2021-08-07 12:07:13,729677
-2,-1,-2,-2,-6,-4,-3,0,2021-08-07 12:07:13,729677
0,-2,-1,-4,-10,-5,-3,-3,2021-08-07 12:07:13,729677
-5,-4,-3,-3,-2,0,-4,-3,2021-08-07 12:07:13,730703
4,2,1,4,9,3,2,3,2021-08-07 12:07:13,730703
0,-3,-4,-6,-11,-3,-2,-1,2021-08-07 12:07:13,745677
2,4,8,17,15,5,2,2,2021-08-07 12:07:13,745677
-1,1,-1,2,6,2,1,0,2021-08-07 12:07:13,745677
-2,-4,-3,6,5,3,-1,-2,2021-08-07 12:07:13,745677
-2,-2,-6,-18,-20,-10,-4,-4,2021-08-07 12:07:13,761679
-4,-6,-12,-19,-13,-9,-6,-2,2021-08-07 12:07:13,777681
4,6,16,33,26,13,7,4,2021-08-07 12:07:13,777681
0,0,1,4,5,3,2,-1,2021-08-07 12:07:13,793705
-1,1,-1,-4,-3,-2,-2,0,2021-08-07 12:07:13,809679
-3,-1,1,-3,-7,-4,-3,-3,2021-08-07 12:07:13,809679
-2,-3,-4,-9,-8,-4,-3,-2,2021-08-07 12:07:13,809679
-2,-3,-5,-11,-8,-5,-3,-1,2021-08-07 12:07:13,809679
-4,-6,-12,-18,-24,-13,-6,-3,2021-08-07 12:07:13,809679
1,0,4,12,18,11,4,-1,2021-08-07 12:07:13,809679
1,0,-2,3,7,1,1,0,2021-08-07 12:07:13,809679
0,2,3,0,-5,-2,-2,-2,2021-08-07 12:07:13,809679
1,-1,0,-2,-5,-1,1,0,2021-08-07 12:07:13,825713
-2,-2,-3,0,2,-2,-1,-2,2021-08-07 12:07:13,841678
-3,-2,-8,-19,-33,-12,-5,-2,2021-08-07 12:07:13,841678
4,2,5,16,32,12,5,4,2021-08-07 12:07:13,841678
3,5,10,25,29,13,6,2,2021-08-07 12:07:13,841678
-1,4,3,-6,-11,-5,-2,-2,2021-08-07 12:07:13,841678
-2,-3,-2,-8,-11,-5,-3,-3,2021-08-07 12:07:13,841678
-5,-10,-17,-20,-16,-11,-6,-2,2021-08-07 12:07:13,841678
-5,-7,-15,-6,3,1,-2,-1,2021-08-07 12:07:13,873677
0,-3,1,8,9,3,0,0,2021-08-07 12:07:13,873677
-3,-4,-7,-9,-12,-6,-3,-3,2021-08-07 12:07:13,873677
-1,2,2,-8,-16,-9,-3,-1,2021-08-07 12:07:13,873677
4,4,8,4,8,7,2,2,2021-08-07 12:07:13,889676
0,3,7,11,11,9,4,-1,2021-08-07 12:07:13,889676
-2,-1,1,4,2,0,-1,-1,2021-08-07 12:07:13,889676
-3,-2,0,-2,3,-1,-1,-3,2021-08-07 12:07:13,889676
-1,1,2,0,-4,-4,-2,-1,2021-08-07 12:07:13,905678
0,-2,-9,-23,-19,-8,-2,-1,2021-08-07 12:07:13,921678
2,0,4,11,21,10,1,1,2021-08-07 12:07:13,937681
-2,0,-3,1,-2,-1,0,0,2021-08-07 12:07:13,937681
-2,0,-2,-4,-9,-5,-2,-1,2021-08-07 12:07:13,937681
-4,-5,-9,-21,-29,-14,-7,-2,2021-08-07 12:07:13,937681
-1,-3,-1,10,17,6,1,-1,2021-08-07 12:07:13,937681
1,4,7,15,16,8,2,1,2021-08-07 12:07:13,937681
-1,-2,1,3,2,-1,-1,-2,2021-08-07 12:07:13,953682
1,2,1,5,2,3,2,2,2021-08-07 12:07:13,953682
-4,-6,-7,-19,-23,-14,-5,-3,2021-08-07 12:07:13,953682
3,3,5,10,6,3,3,1,2021-08-07 12:07:13,953682
2,-1,-4,-2,-1,0,0,0,2021-08-07 12:07:13,953682
-1,0,2,0,1,-1,-2,-1,2021-08-07 12:07:13,954679
-4,-5,-5,-10,-18,-10,-6,-4,2021-08-07 12:07:13,954679
4,6,10,18,22,11,5,4,2021-08-07 12:07:13,954679
-2,0,1,0,-8,-2,-1,-1,2021-08-07 12:07:13,985675
-1,-4,-2,0,7,1,-1,-1,2021-08-07 12:07:14,001677
-4,0,-2,-4,-4,-2,-1,0,2021-08-07 12:07:14,001677
-3,-3,-5,-9,-11,-4,-2,-3,2021-08-07 12:07:14,001677
1,1,3,6,9,4,2,0,2021-08-07 12:07:14,001677
-3,-3,-3,-5,-10,-6,-3,-1,2021-08-07 12:07:14,001677
-1,-2,-5,-9,-4,-2,0,-1,2021-08-07 12:07:14,001677
-3,-6,-5,-11,-16,-8,-7,-2,2021-08-07 12:07:14,001677
1,1,1,6,7,1,2,2,2021-08-07 12:07:14,032674
1,2,5,15,14,6,3,-1,2021-08-07 12:07:14,032674
-1,0,0,-2,-6,0,0,0,2021-08-07 12:07:14,032674
0,1,7,12,14,3,2,1,2021-08-07 12:07:14,032674
0,-2,-6,-11,-5,-3,-3,-1,2021-08-07 12:07:14,048682
-1,-1,-5,-8,-9,-5,-2,-2,2021-08-07 12:07:14,048682
0,0,0,1,5,3,0,0,2021-08-07 12:07:14,048682
-1,-2,-1,4,9,3,1,-1,2021-08-07 12:07:14,048682
-3,0,3,-1,0,-1,-2,-1,2021-08-07 12:07:14,063680
0,0,-2,-1,-1,0,1,2,2021-08-07 12:07:14,063680
-2,-1,0,0,-4,-3,-2,-2,2021-08-07 12:07:14,063680
-3,-2,-3,-11,-11,-6,-2,-4,2021-08-07 12:07:14,063680
1,2,1,3,4,5,2,0,2021-08-07 12:07:14,079716
0,-3,-5,-14,-17,-7,-4,-1,2021-08-07 12:07:14,079716
0,-3,-2,0,4,1,-1,1,2021-08-07 12:07:14,079716
2,2,3,9,12,5,3,1,2021-08-07 12:07:14,079716
0,-1,-4,-3,-3,-2,1,1,2021-08-07 12:07:14,111681
-4,-4,-3,2,0,0,-2,-4,2021-08-07 12:07:14,111681
0,-2,0,-4,2,1,0,-1,2021-08-07 12:07:14,111681
-4,-1,6,8,-2,0,-1,-4,2021-08-07 12:07:14,111681
-4,-2,-2,-4,-3,-1,-3,-4,2021-08-07 12:07:14,111681
-1,1,2,6,7,1,-3,-1,2021-08-07 12:07:14,111681
-1,0,-2,-6,1,-3,-1,-2,2021-08-07 12:07:14,118682
1,1,-3,-6,-7,-4,0,0,2021-08-07 12:07:14,118682
1,2,4,6,3,2,1,-1,2021-08-07 12:07:14,142676
-3,-6,-11,-24,-23,-11,-5,-3,2021-08-07 12:07:14,158704
2,3,6,19,20,10,6,3,2021-08-07 12:07:14,174678
0,-1,-2,-3,-2,1,1,-1,2021-08-07 12:07:14,174678
-1,-2,0,-4,-9,-5,-3,-2,2021-08-07 12:07:14,174678
-2,-2,-2,1,4,0,-3,-3,2021-08-07 12:07:14,174678
-4,-5,-10,-16,-8,-4,-3,-2,2021-08-07 12:07:14,174678
-1,2,6,16,8,1,-1,1,2021-08-07 12:07:14,174678
0,0,3,11,15,5,2,1,2021-08-07 12:07:14,190679
-1,-2,0,0,-11,-6,-2,-3,2021-08-07 12:07:14,206703
-1,-2,-2,0,0,-1,-2,-1,2021-08-07 12:07:14,206703
-3,-5,-9,-17,-12,-5,-5,-2,2021-08-07 12:07:14,206703
1,-1,-2,-1,-3,-2,0,0,2021-08-07 12:07:14,207304
-1,1,1,7,-2,-1,0,0,2021-08-07 12:07:14,222784
-1,3,2,2,9,4,3,0,2021-08-07 12:07:14,222784
-4,-6,-10,-20,-15,-8,-6,-3,2021-08-07 12:07:14,222784
-3,-1,3,4,2,-4,-4,-2,2021-08-07 12:07:14,222784
0,2,2,-1,0,1,1,1,2021-08-07 12:07:14,222784
-1,-2,2,5,4,0,-2,-2,2021-08-07 12:07:14,222784
1,3,0,-9,4,3,2,3,2021-08-07 12:07:14,222784
2,1,12,24,17,7,3,3,2021-08-07 12:07:14,238808
0,2,1,1,-1,1,1,0,2021-08-07 12:07:14,238808
-2,-5,-10,-15,-18,-11,-5,-5,2021-08-07 12:07:14,254785
-1,0,-4,-5,-8,-2,-1,-1,2021-08-07 12:07:14,254785
1,-1,-4,-8,-2,-1,-1,-4,2021-08-07 12:07:14,254785
1,3,3,8,13,8,4,3,2021-08-07 12:07:14,254785
2,0,4,5,3,-1,-1,0,2021-08-07 12:07:14,254785
-3,-5,-7,-15,-24,-11,-7,-5,2021-08-07 12:07:14,254785
-2,-3,-2,-5,-1,-2,-1,1,2021-08-07 12:07:14,286829
3,4,9,24,29,13,5,4,2021-08-07 12:07:14,286829
-3,-3,-5,-11,-12,-4,-3,-5,2021-08-07 12:07:14,286829
-1,0,3,7,6,-1,0,-1,2021-08-07 12:07:14,286829
-2,-1,-7,-13,-13,-6,-2,-1,2021-08-07 12:07:14,318809
-1,-2,1,4,6,0,-1,-1,2021-08-07 12:07:14,334782
3,4,8,18,15,6,4,2,2021-08-07 12:07:14,349782
-2,-4,-8,-18,-16,-9,-5,-3,2021-08-07 12:07:14,365785
-2,-4,0,-1,-8,-4,-4,-3,2021-08-07 12:07:14,381785
1,1,3,6,13,7,1,2,2021-08-07 12:07:14,381785
-1,-1,-2,-7,-6,-4,-3,-1,2021-08-07 12:07:14,381785
1,3,8,24,19,7,1,2,2021-08-07 12:07:14,381785
-1,0,-5,-9,-6,-2,2,0,2021-08-07 12:07:14,381785
-5,-5,-3,-8,-10,-8,-4,-2,2021-08-07 12:07:14,381785
-1,-1,1,-3,-4,-2,0,1,2021-08-07 12:07:14,382785
1,-1,3,11,20,6,4,0,2021-08-07 12:07:14,382785
-2,-1,-6,-10,-7,-2,-3,-2,2021-08-07 12:07:14,382785
-3,-3,-6,-21,-21,-9,-5,-4,2021-08-07 12:07:14,382785
1,4,12,30,30,13,5,2,2021-08-07 12:07:14,382785
-1,-3,-5,-10,-15,-4,-2,-1,2021-08-07 12:07:14,382785
3,4,11,24,31,13,8,3,2021-08-07 12:07:14,382785
-5,-5,-9,-16,-12,-6,-4,-2,2021-08-07 12:07:14,383783
0,-2,-3,-10,-12,-7,-4,-2,2021-08-07 12:07:14,383783
-8,-5,-4,-7,-6,-3,-3,-7,2021-08-07 12:07:14,383783
-2,-2,2,7,-3,-5,-6,-3,2021-08-07 12:07:14,413805
4,4,0,-4,-1,0,2,8,2021-08-07 12:07:14,413805
9,8,-1,-3,-4,5,9,8,2021-08-07 12:07:14,413805
4,2,2,5,6,3,2,2,2021-08-07 12:07:14,413805
-3,-2,-7,-11,-14,-6,-3,-7,2021-08-07 12:07:14,430026
-5,-4,2,3,6,0,-5,-8,2021-08-07 12:07:14,430026
-9,-7,-4,-2,-4,-4,-8,-8,2021-08-07 12:07:14,430026
5,0,-6,-13,-11,-5,-3,1,2021-08-07 12:07:14,430026
3,2,0,4,2,0,2,6,2021-08-07 12:07:14,445395
-10,-3,-1,0,-1,1,4,-1,2021-08-07 12:07:14,445395
0,-3,-2,0,-2,-1,-2,-1,2021-08-07 12:07:14,445395
-2,-2,-1,-4,-3,-2,-2,-3,2021-08-07 12:07:14,445395
-2,-1,-1,-7,-12,-9,-7,-4,2021-08-07 12:07:14,461322
3,-1,0,7,7,4,1,2,2021-08-07 12:07:14,462318
-2,-1,2,12,11,3,2,-1,2021-08-07 12:07:14,477324
-4,-2,-4,-12,-13,-8,-4,-3,2021-08-07 12:07:14,492321
3,2,6,18,14,8,5,4,2021-08-07 12:07:14,508357
-3,-4,-11,-14,-6,-4,-3,-4,2021-08-07 12:07:14,508357
-5,-3,-5,-11,-10,-6,-3,-4,2021-08-07 12:07:14,508357
0,1,2,-2,-6,-4,-3,1,2021-08-07 12:07:14,508357
0,2,3,5,5,5,4,1,2021-08-07 12:07:14,508357
-1,-3,-3,-7,-11,-7,-5,-4,2021-08-07 12:07:14,509321
-4,-6,-9,-18,-11,-7,-5,-5,2021-08-07 12:07:14,509321
4,5,3,11,12,5,5,5,2021-08-07 12:07:14,509321
-4,-4,-4,-3,5,3,-2,-3,2021-08-07 12:07:14,524321
4,3,8,25,19,8,2,0,2021-08-07 12:07:14,524321
2,2,2,1,-4,-2,0,3,2021-08-07 12:07:14,540320
-4,-3,-4,-6,-12,-6,-5,-4,2021-08-07 12:07:14,540320
-1,-3,-3,-8,-8,-7,-3,-3,2021-08-07 12:07:14,556319
1,0,-1,-2,3,2,1,1,2021-08-07 12:07:14,556319
-1,0,0,0,-1,-1,-2,-1,2021-08-07 12:07:14,556319
-3,-3,-3,-12,-18,-7,-4,-1,2021-08-07 12:07:14,556319
1,2,0,4,12,7,2,0,2021-08-07 12:07:14,556319
-2,-1,1,0,4,-2,-1,-3,2021-08-07 12:07:14,556319
3,4,4,9,10,6,4,2,2021-08-07 12:07:14,556319
0,-2,-1,8,12,6,1,1,2021-08-07 12:07:14,557323
-2,-3,-7,-14,-14,-8,-2,-1,2021-08-07 12:07:14,588321
0,-3,-4,-13,-21,-10,-3,-3,2021-08-07 12:07:14,588321
-5,-5,-3,-6,-7,-4,-4,-3,2021-08-07 12:07:14,588321
5,3,14,31,34,14,6,2,2021-08-07 12:07:14,588321
-1,-3,-6,-6,-6,-3,0,1,2021-08-07 12:07:14,603323
-3,-2,-3,-4,0,2,-1,0,2021-08-07 12:07:14,603323
-1,-2,-1,-3,-10,-6,-3,-3,2021-08-07 12:07:14,603323
-5,-3,-9,-16,-16,-8,-3,-3,2021-08-07 12:07:14,603323
-1,3,6,9,14,4,1,-1,2021-08-07 12:07:14,619318
1,1,3,8,1,1,2,-1,2021-08-07 12:07:14,619318
-3,-2,-2,-2,-1,-2,-2,-1,2021-08-07 12:07:14,619318
0,1,0,-1,0,-1,0,0,2021-08-07 12:07:14,619318
-2,-1,-2,-7,-1,0,0,-2,2021-08-07 12:07:14,650239
-3,-4,-3,-5,-10,-7,-4,-2,2021-08-07 12:07:14,666240
0,0,1,5,3,3,1,0,2021-08-07 12:07:14,698239
0,-1,-1,1,0,0,-2,0,2021-08-07 12:07:14,714237
-1,-1,-1,-2,-3,1,-1,0,2021-08-07 12:07:14,744237
-3,-2,-5,-5,-1,-2,-4,-3,2021-08-07 12:07:14,744237
0,-1,-5,-8,-10,-4,-3,-1,2021-08-07 12:07:14,744237
-1,-1,-1,2,-1,-1,0,0,2021-08-07 12:07:14,744237
-1,-2,-4,-5,1,0,-1,-2,2021-08-07 12:07:14,744237
1,5,5,4,1,-1,0,2,2021-08-07 12:07:14,744237
-1,1,4,14,13,6,2,0,2021-08-07 12:07:14,745242
-1,0,-2,-2,2,1,1,0,2021-08-07 12:07:14,745242
-1,-1,3,2,-5,-3,-4,-1,2021-08-07 12:07:14,745242
-3,-5,-9,-11,-15,-9,-6,-5,2021-08-07 12:07:14,745242
-1,-1,-2,-6,-5,-2,0,-1,2021-08-07 12:07:14,745242
1,0,3,7,14,4,2,-2,2021-08-07 12:07:14,745242
0,0,1,3,-5,0,1,2,2021-08-07 12:07:14,745242
-1,-1,0,-3,-1,-1,-2,0,2021-08-07 12:07:14,746243
0,-2,-2,2,0,-1,-2,-1,2021-08-07 12:07:14,746243
-2,-3,-3,-6,-9,-6,-3,-3,2021-08-07 12:07:14,746243
1,2,1,2,1,0,-1,0,2021-08-07 12:07:14,746243
-1,-2,-2,1,8,2,1,0,2021-08-07 12:07:14,746243
-4,-3,0,0,2,-2,-2,-3,2021-08-07 12:07:14,746243
0,1,0,6,1,2,0,2,2021-08-07 12:07:14,746243
-2,-1,-1,-3,-5,-3,-4,-4,2021-08-07 12:07:14,776239
-3,-2,-3,-9,-13,-7,-3,-2,2021-08-07 12:07:14,776239
-1,-3,-5,-9,-2,0,-1,-2,2021-08-07 12:07:14,776239
-1,-2,-2,0,6,2,0,-3,2021-08-07 12:07:14,776239
1,1,-1,-1,3,4,2,1,2021-08-07 12:07:14,791240
-1,0,-2,-6,-13,-4,-2,-2,2021-08-07 12:07:14,791240
1,0,4,13,16,5,2,2,2021-08-07 12:07:14,791240
1,3,2,1,0,2,1,4,2021-08-07 12:07:14,791240
-3,-2,-4,-7,-6,-5,-2,-2,2021-08-07 12:07:14,807240
-3,-3,-1,-2,3,0,-1,0,2021-08-07 12:07:14,823240
-5,-4,-7,-18,-32,-16,-7,-6,2021-08-07 12:07:14,823240
4,7,7,19,29,17,6,5,2021-08-07 12:07:14,823240
-1,-3,-3,-7,-6,-1,-2,0,2021-08-07 12:07:14,838240
0,0,1,5,5,3,1,1,2021-08-07 12:07:14,838240
0,1,-2,-1,-5,-3,0,1,2021-08-07 12:07:14,838240
-4,-4,-3,-8,-11,-6,-4,-2,2021-08-07 12:07:14,838240
0,1,4,8,17,6,2,1,2021-08-07 12:07:14,854241
-2,-2,0,2,-3,-2,-3,-2,2021-08-07 12:07:14,854505
-1,-2,-5,-12,-4,-1,0,0,2021-08-07 12:07:14,854505
0,0,2,3,2,1,1,-1,2021-08-07 12:07:14,854505
-4,-4,-5,-6,-12,-6,-3,-2,2021-08-07 12:07:14,854505
0,1,5,11,10,4,1,1,2021-08-07 12:07:14,854505
-4,-2,-2,-7,-11,-6,-2,-2,2021-08-07 12:07:14,855241
-1,-2,-5,-17,-12,-8,-3,-2,2021-08-07 12:07:14,855241
1,1,5,14,8,3,0,-1,2021-08-07 12:07:14,885777
-2,-4,-6,-14,-6,-3,-3,-2,2021-08-07 12:07:14,885777
2,-1,-1,1,6,4,0,1,2021-08-07 12:07:14,885777
-1,-2,-5,-2,3,1,1,-1,2021-08-07 12:07:14,885777
-3,-3,-2,-4,-13,-7,-4,-3,2021-08-07 12:07:14,916777
1,1,4,10,15,6,2,1,2021-08-07 12:07:14,931777
2,3,5,0,-2,0,0,1,2021-08-07 12:07:14,931777
-1,2,-7,-12,-15,-7,-4,-2,2021-08-07 12:07:14,931777
-2,-4,-3,-7,-9,-5,-2,-1,2021-08-07 12:07:14,931777
1,-2,-3,2,8,4,2,-1,2021-08-07 12:07:14,931777
1,-1,-2,-3,5,3,2,1,2021-08-07 12:07:14,932781
1,-1,2,5,-3,-2,1,0,2021-08-07 12:07:14,932781
-1,-1,-8,-19,-12,-7,0,1,2021-08-07 12:07:14,947777
-2,0,2,14,10,3,3,1,2021-08-07 12:07:14,947777
-2,-1,1,5,6,1,0,-1,2021-08-07 12:07:14,947777
-5,-4,-4,-11,-15,-8,-6,-4,2021-08-07 12:07:14,947777
-4,-2,1,-1,3,0,-3,-3,2021-08-07 12:07:14,978778
0,0,-4,-8,-10,-5,-5,-2,2021-08-07 12:07:14,978778
2,3,5,10,9,3,1,2,2021-08-07 12:07:14,978778
2,-1,2,8,6,1,0,0,2021-08-07 12:07:14,978778
0,-1,0,2,2,0,-2,0,2021-08-07 12:07:14,978778
-2,0,-6,-10,-5,-4,-1,1,2021-08-07 12:07:14,978778
-2,-3,-3,-7,-9,-6,-3,-1,2021-08-07 12:07:14,994777
-1,-3,2,-3,1,1,2,-2,2021-08-07 12:07:14,994777
-1,-1,-6,2,7,3,2,2,2021-08-07 12:07:15,010777
0,1,0,4,3,1,-1,0,2021-08-07 12:07:15,026775
-1,0,-1,-2,-4,-2,-3,-3,2021-08-07 12:07:15,026775
-2,-3,0,-5,-5,-5,-2,0,2021-08-07 12:07:15,026775
4,4,7,11,11,6,4,2,2021-08-07 12:07:15,026775
0,0,2,1,1,-2,-1,-1,2021-08-07 12:07:15,026775
-3,-2,-2,-3,-2,-3,-3,-2,2021-08-07 12:07:15,026775
-2,-2,-3,0,-2,-1,-1,-3,2021-08-07 12:07:15,026775
-3,-3,-4,-10,-14,-9,-4,-3,2021-08-07 12:07:15,042777
4,3,0,-2,3,5,3,2,2021-08-07 12:07:15,058780
1,1,4,13,14,6,3,0,2021-08-07 12:07:15,074780
-1,0,0,7,4,1,1,-2,2021-08-07 12:07:15,090779
-2,-5,-8,-17,-24,-11,-5,-3,2021-08-07 12:07:15,090779
-1,-2,-2,-3,2,0,0,-2,2021-08-07 12:07:15,090779
0,0,0,-2,-6,-4,-3,-1,2021-08-07 12:07:15,090779
3,2,2,5,3,1,0,2,2021-08-07 12:07:15,090779
-1,1,4,14,12,6,2,0,2021-08-07 12:07:15,097781
-4,-2,-4,-9,-12,-7,-4,-2,2021-08-07 12:07:15,097781
0,-1,0,1,3,1,0,0,2021-08-07 12:07:15,121778
1,0,0,0,-4,-2,-2,1,2021-08-07 12:07:15,137777
-3,-3,-4,-8,-13,-7,-4,-4,2021-08-07 12:07:15,153778
-1,-1,-5,-7,4,4,1,2,2021-08-07 12:07:15,153778
0,0,1,-1,0,-1,2,-2,2021-08-07 12:07:15,153778
1,2,2,5,1,0,-1,1,2021-08-07 12:07:15,153778
2,0,-3,3,5,3,0,-1,2021-08-07 12:07:15,153778
0,-2,1,-3,-8,-5,-4,-4,2021-08-07 12:07:15,154782
-1,-1,-4,3,7,0,-1,1,2021-08-07 12:07:15,154782
-1,0,2,2,5,5,2,0,2021-08-07 12:07:15,154782
1,0,2,2,5,2,-1,0,2021-08-07 12:07:15,154782
-5,-6,-9,-21,-19,-12,-5,-3,2021-08-07 12:07:15,169779
-1,-1,4,12,6,3,0,-1,2021-08-07 12:07:15,169779
-1,0,-1,-4,2,-2,-2,-1,2021-08-07 12:07:15,169779
-1,0,0,5,13,2,1,1,2021-08-07 12:07:15,169779
-1,-1,-2,1,-3,-1,-1,-1,2021-08-07 12:07:15,169779
-1,-2,-3,-5,-4,-2,0,-1,2021-08-07 12:07:15,169779
0,-2,-7,-7,-11,-5,0,-1,2021-08-07 12:07:15,185777
0,-1,-2,-4,-4,-2,0,-1,2021-08-07 12:07:15,201776
-1,-3,1,3,-1,-2,-2,0,2021-08-07 12:07:15,201776
0,1,0,-5,-2,0,-2,1,2021-08-07 12:07:15,201776
2,2,3,8,13,5,2,0,2021-08-07 12:07:15,201776
-2,-1,-4,-6,-4,-2,0,1,2021-08-07 12:07:15,217775
2,3,8,17,17,10,7,3,2021-08-07 12:07:15,233778
-2,-2,-6,-8,-9,-5,-3,-2,2021-08-07 12:07:15,249777
-3,-4,-3,-9,-10,-5,-2,0,2021-08-07 12:07:15,265782
-1,-3,1,4,4,1,-3,-2,2021-08-07 12:07:15,265782
0,1,4,6,4,0,0,-1,2021-08-07 12:07:15,265782
-2,0,-1,-5,-4,-1,-2,-1,2021-08-07 12:07:15,265782
-1,0,3,9,8,4,2,0,2021-08-07 12:07:15,265782
-1,-4,-7,-10,-11,-5,-2,-3,2021-08-07 12:07:15,265782
-3,-2,-2,2,0,-1,0,-2,2021-08-07 12:07:15,266783
0,-2,-3,-8,-11,-3,-1,0,2021-08-07 12:07:15,266783
0,1,0,1,8,4,1,-1,2021-08-07 12:07:15,266783
0,-1,4,-2,-4,0,0,-1,2021-08-07 12:07:15,266783
0,-1,0,3,1,-1,-1,-1,2021-08-07 12:07:15,266783
0,0,2,-1,-2,-4,-3,-1,2021-08-07 12:07:15,266783
-3,-2,-7,-10,-16,-7,-4,-1,2021-08-07 12:07:15,266783
-2,-2,-4,-5,2,-1,-1,-3,2021-08-07 12:07:15,297778
2,0,0,1,-1,-2,-1,-1,2021-08-07 12:07:15,313777
0,1,1,8,9,5,2,-1,2021-08-07 12:07:15,313777
-3,-5,-4,-13,-22,-13,-5,-2,2021-08-07 12:07:15,313777
2,6,7,8,18,8,4,3,2021-08-07 12:07:15,313777
-4,-4,-4,-13,-16,-9,-6,-5,2021-08-07 12:07:15,313777
0,0,1,11,17,8,3,1,2021-08-07 12:07:15,313777
0,0,3,8,11,4,0,-1,2021-08-07 12:07:15,314781
-2,-3,-5,-9,-18,-8,-4,-2,2021-08-07 12:07:15,329777
-6,-3,-4,-9,-9,-5,-4,-3,2021-08-07 12:07:15,345777
2,3,1,2,-2,0,2,2,2021-08-07 12:07:15,361779
0,-1,1,-2,-5,-1,0,0,2021-08-07 12:07:15,361779
3,-2,-3,0,-1,0,0,0,2021-08-07 12:07:15,361779
0,-2,-3,-1,3,0,0,-2,2021-08-07 12:07:15,361779
-5,-6,-9,-17,-20,-13,-6,-3,2021-08-07 12:07:15,361779
0,1,5,11,10,5,2,0,2021-08-07 12:07:15,361779
2,1,5,3,-3,-3,0,1,2021-08-07 12:07:15,362781
1,-1,-2,-1,-3,-1,-1,0,2021-08-07 12:07:15,376814
1,1,5,19,24,13,5,1,2021-08-07 12:07:15,392781
2,3,5,3,4,3,3,2,2021-08-07 12:07:15,408775
-2,-1,0,-3,-5,-3,-2,0,2021-08-07 12:07:15,408775
-2,-5,-11,-12,-16,-8,-4,-4,2021-08-07 12:07:15,408775
-2,-3,-7,-13,-6,-4,-1,-3,2021-08-07 12:07:15,408775
-2,0,-6,-9,-10,-6,-2,-1,2021-08-07 12:07:15,408775
2,2,8,15,19,7,3,1,2021-08-07 12:07:15,409781
-1,2,7,10,2,2,2,1,2021-08-07 12:07:15,409781
-1,-2,-4,-6,-2,0,-1,-1,2021-08-07 12:07:15,409781
2,3,3,6,12,5,3,1,2021-08-07 12:07:15,409781
-1,0,-2,-3,-1,-1,-1,0,2021-08-07 12:07:15,440779
0,-2,0,0,-1,-1,-2,0,2021-08-07 12:07:15,455803
-2,-3,-3,-1,0,0,-1,-3,2021-08-07 12:07:15,471776
-5,-7,-10,-23,-18,-10,-6,-4,2021-08-07 12:07:15,471776
-1,0,3,4,2,-2,-3,-2,2021-08-07 12:07:15,471776
1,2,3,7,10,5,1,1,2021-08-07 12:07:15,471776
2,1,3,6,3,3,1,2,2021-08-07 12:07:15,471776
-1,-5,-5,-6,-5,-2,-1,-1,2021-08-07 12:07:15,471776
-2,-1,-4,-6,-7,-3,-1,-1,2021-08-07 12:07:15,472778
0,1,2,3,6,2,-1,0,2021-08-07 12:07:15,472778
-2,-1,0,-6,-12,-9,-4,-1,2021-08-07 12:07:15,472778
-2,-1,-7,-10,-14,-4,-4,-2,2021-08-07 12:07:15,472778
-4,-5,-6,-2,8,2,-3,-5,2021-08-07 12:07:15,487780
4,3,6,17,20,8,5,2,2021-08-07 12:07:15,487780
0,2,4,-1,-8,-4,-2,-1,2021-08-07 12:07:15,487780
1,1,4,12,14,6,2,1,2021-08-07 12:07:15,487780
-6,-4,-11,-23,-28,-13,-6,-4,2021-08-07 12:07:15,518776
-3,-6,-8,-14,-16,-9,-6,-3,2021-08-07 12:07:15,534775
0,1,1,3,6,4,2,0,2021-08-07 12:07:15,534775
1,0,4,13,20,7,2,1,2021-08-07 12:07:15,534775
-2,-1,-2,-1,-3,-1,-1,-1,2021-08-07 12:07:15,534775
0,0,-1,-3,7,4,2,1,2021-08-07 12:07:15,534775
-3,-3,-5,-15,-23,-13,-4,-3,2021-08-07 12:07:15,534775
-1,1,1,2,3,1,1,1,2021-08-07 12:07:15,535780
1,-1,3,6,1,1,-1,2,2021-08-07 12:07:15,550778
-2,-2,-5,-7,-5,-2,-2,-2,2021-08-07 12:07:15,566777
1,1,2,8,9,5,2,2,2021-08-07 12:07:15,566777
-2,-3,-4,-6,-5,-5,-4,-4,2021-08-07 12:07:15,566777
2,2,4,10,4,2,3,0,2021-08-07 12:07:15,566777
-3,-4,-8,-14,-16,-8,-5,-2,2021-08-07 12:07:15,566777
-1,-3,-5,-4,1,0,0,-2,2021-08-07 12:07:15,566777
-1,-1,1,3,4,2,2,1,2021-08-07 12:07:15,566777
-1,0,5,4,1,-1,-2,-1,2021-08-07 12:07:15,630773
-1,1,-1,-4,-3,-2,0,0,2021-08-07 12:07:15,630773
1,-1,-3,-4,-3,0,-1,-1,2021-08-07 12:07:15,630773
-1,-2,-5,-7,-8,-2,-3,-2,2021-08-07 12:07:15,630773
0,0,0,3,9,2,0,-2,2021-08-07 12:07:15,630773
-2,-1,4,6,3,0,1,-1,2021-08-07 12:07:15,630773
-3,-1,-1,-1,-5,-5,-2,-2,2021-08-07 12:07:15,631782
-7,-6,-8,-15,-17,-9,-6,-5,2021-08-07 12:07:15,631782
3,4,1,7,16,9,5,4,2021-08-07 12:07:15,631782
0,2,5,16,10,4,1,0,2021-08-07 12:07:15,631782
-1,1,4,10,12,5,1,0,2021-08-07 12:07:15,631782
-1,-1,0,0,-2,-1,-3,0,2021-08-07 12:07:15,646776
-5,-6,-8,-15,-13,-6,-4,-3,2021-08-07 12:07:15,646776
2,3,5,9,3,2,0,2,2021-08-07 12:07:15,646776
1,1,7,11,8,3,0,0,2021-08-07 12:07:15,646776
-1,-1,-7,-1,-5,-4,-2,-3,2021-08-07 12:07:15,646776
0,-1,-4,-2,-3,1,0,-1,2021-08-07 12:07:15,661781
-2,-3,-5,-7,-7,-4,-2,-2,2021-08-07 12:07:15,677779
-1,-2,0,1,6,1,1,-1,2021-08-07 12:07:15,677779
2,3,6,10,14,6,3,1,2021-08-07 12:07:15,677779
0,1,3,4,-2,-2,-1,1,2021-08-07 12:07:15,692775
-4,-3,-12,-24,-20,-7,-5,-4,2021-08-07 12:07:15,708778
-2,-1,-1,4,6,1,0,-1,2021-08-07 12:07:15,708778
-2,-2,-1,-1,-5,0,-1,-1,2021-08-07 12:07:15,724780
1,-1,-6,-8,-10,-3,-1,2,2021-08-07 12:07:15,740781
-1,0,5,17,24,9,0,-1,2021-08-07 12:07:15,740781
2,1,2,3,4,3,1,1,2021-08-07 12:07:15,740781
-1,-1,1,1,1,0,-1,-2,2021-08-07 12:07:15,740781
-3,-3,-4,-6,-15,-8,-3,-4,2021-08-07 12:07:15,740781
-3,-4,-1,-5,0,-1,-1,-1,2021-08-07 12:07:15,740781
-1,-3,-5,-8,-12,-6,-4,-1,2021-08-07 12:07:15,741783
0,-1,-4,-4,3,0,1,0,2021-08-07 12:07:15,741783
-1,-2,0,-2,-1,-1,-2,-2,2021-08-07 12:07:15,741783
0,0,1,2,2,0,1,-2,2021-08-07 12:07:15,741783
-1,0,4,0,-5,-3,-1,-1,2021-08-07 12:07:15,741783
1,1,0,0,-5,0,0,0,2021-08-07 12:07:15,741783
-4,-4,-7,-6,-3,-2,-2,-2,2021-08-07 12:07:15,771778
0,-4,-3,-8,0,1,1,0,2021-08-07 12:07:15,771778
0,1,2,14,11,5,-1,2,2021-08-07 12:07:15,771778
-1,1,-2,-8,-11,-8,-3,0,2021-08-07 12:07:15,771778
0,2,5,8,12,5,1,-1,2021-08-07 12:07:15,787781
-4,-3,-2,-8,-22,-11,-5,-3,2021-08-07 12:07:15,787781
1,1,-2,-1,15,7,3,2,2021-08-07 12:07:15,787781
1,0,0,6,4,2,0,2,2021-08-07 12:07:15,787781
-1,0,-5,-9,-8,-5,-3,-1,2021-08-07 12:07:15,803778
-3,-5,-3,-5,-1,1,-2,0,2021-08-07 12:07:15,803778
0,-2,-2,1,-5,-1,1,-1,2021-08-07 12:07:15,803778
-4,-2,-1,-8,-9,-4,-2,-4,2021-08-07 12:07:15,803778
-3,-1,0,4,6,2,-1,-5,2021-08-07 12:07:15,835814
-3,-1,-4,-6,-4,-5,-4,-2,2021-08-07 12:07:15,835814
3,4,4,4,3,3,1,2,2021-08-07 12:07:15,851781
2,0,1,8,10,6,2,1,2021-08-07 12:07:15,851781
-3,-4,-10,-20,-15,-7,-6,-3,2021-08-07 12:07:15,851781
1,2,2,3,2,1,0,1,2021-08-07 12:07:15,851781
-4,-4,-8,-13,-15,-8,-3,-3,2021-08-07 12:07:15,851781
3,2,4,4,7,3,0,1,2021-08-07 12:07:15,851781
-1,-3,-4,-8,-10,-4,-3,-1,2021-08-07 12:07:15,867813
3,4,9,21,22,10,5,4,2021-08-07 12:07:15,867813
-3,-3,-4,-12,-3,-3,-1,-1,2021-08-07 12:07:15,867813
-1,2,3,7,2,-1,0,1,2021-08-07 12:07:15,867813
-4,-6,-5,-6,-13,-7,-2,-2,2021-08-07 12:07:15,899803
0,-1,-1,3,9,5,1,0,2021-08-07 12:07:15,899803
-3,-2,-4,-10,-17,-9,-6,-3,2021-08-07 12:07:15,899803
-6,-4,-3,-11,-11,-5,-3,-5,2021-08-07 12:07:15,899803
0,0,0,2,4,1,0,2,2021-08-07 12:07:15,899803
2,3,10,21,21,9,5,1,2021-08-07 12:07:15,899803
0,1,-7,-8,-5,0,-1,-1,2021-08-07 12:07:15,931815
0,-4,-7,-8,-10,-4,-4,-1,2021-08-07 12:07:15,947801
0,0,2,4,3,1,1,1,2021-08-07 12:07:15,947801
-2,-4,-7,-13,-15,-5,-2,-2,2021-08-07 12:07:15,947801
2,2,5,6,0,-1,0,1,2021-08-07 12:07:15,947801
-3,-2,-2,-1,1,0,-3,-2,2021-08-07 12:07:15,947801
-1,-1,0,-2,2,2,1,-1,2021-08-07 12:07:15,947801
-3,-2,-2,-5,-13,-8,-4,-1,2021-08-07 12:07:15,947801
5,3,4,12,13,8,3,3,2021-08-07 12:07:15,948781
-3,-5,-5,-1,0,-3,0,-2,2021-08-07 12:07:15,948781
0,-1,2,3,1,0,-2,-1,2021-08-07 12:07:15,962780
-2,-3,-4,-8,-4,-3,-2,-3,2021-08-07 12:07:15,978777
-1,-2,-4,-6,-10,-6,-3,-3,2021-08-07 12:07:15,993777
2,2,2,-1,-3,1,2,1,2021-08-07 12:07:15,993777
5,6,8,28,35,14,7,3,2021-08-07 12:07:15,993777
1,2,3,5,-7,-4,0,0,2021-08-07 12:07:15,993777
-1,0,-1,-3,-3,1,0,-2,2021-08-07 12:07:15,993777
-1,-2,-4,-9,-6,-6,-4,-2,2021-08-07 12:07:15,993777
-4,-2,1,-3,-4,-2,-1,-2,2021-08-07 12:07:16,009813
-1,-2,-13,-14,-7,-3,-4,-2,2021-08-07 12:07:16,025780
-2,-1,1,-4,-1,-3,-3,0,2021-08-07 12:07:16,041803
1,0,4,6,6,5,2,0,2021-08-07 12:07:16,041803
-1,-3,-1,-2,-7,-4,-4,-1,2021-08-07 12:07:16,041803
-1,-2,-1,1,4,1,-2,-3,2021-08-07 12:07:16,041803
-3,-3,-5,-7,-5,-2,-2,-2,2021-08-07 12:07:16,041803
-4,-3,-2,-11,-12,-9,-3,-5,2021-08-07 12:07:16,041803
1,3,9,24,11,6,4,2,2021-08-07 12:07:16,041803
4,4,5,11,20,10,5,4,2021-08-07 12:07:16,041803
-4,-5,-6,-11,-12,-6,-3,-3,2021-08-07 12:07:16,042777
0,0,6,8,12,5,-3,0,2021-08-07 12:07:16,042777
-3,-1,-5,-13,-15,-6,-3,-2,2021-08-07 12:07:16,073777
-3,-4,-6,-11,-11,-6,-4,-2,2021-08-07 12:07:16,075779
-1,0,5,12,9,4,4,3,2021-08-07 12:07:16,076781
0,-2,-3,-4,-5,-2,-1,-2,2021-08-07 12:07:16,076781
-2,-2,-4,-4,3,1,-1,-1,2021-08-07 12:07:16,076781
-1,-1,1,-6,-12,-4,-2,-1,2021-08-07 12:07:16,076781
-2,-1,-3,-4,2,2,0,-2,2021-08-07 12:07:16,089777
-3,-2,0,0,-6,-3,-1,0,2021-08-07 12:07:16,089777
-3,-5,-13,-20,-7,-5,-5,-4,2021-08-07 12:07:16,105810
-1,-1,0,7,5,0,-2,-1,2021-08-07 12:07:16,121781
-1,-1,-1,1,-3,-3,-2,0,2021-08-07 12:07:16,121781
0,1,-1,-5,1,2,4,1,2021-08-07 12:07:16,121781
-1,1,6,20,13,4,4,2,2021-08-07 12:07:16,121781
-2,-1,1,-5,-14,-7,0,-1,2021-08-07 12:07:16,121781
0,-1,2,-14,-13,-6,-3,-3,2021-08-07 12:07:16,137778
5,5,5,22,26,11,5,5,2021-08-07 12:07:16,153789
-1,-2,-8,-5,0,2,-1,-1,2021-08-07 12:07:16,168781
-2,-3,-8,-9,2,-1,-1,-2,2021-08-07 12:07:16,168781
-4,-4,-3,-4,-17,-9,-6,-4,2021-08-07 12:07:16,168781
-3,-3,-3,-10,-7,-4,-3,-1,2021-08-07 12:07:16,168781
-2,-2,-2,-5,-2,-5,-2,-1,2021-08-07 12:07:16,184813
1,3,6,13,-5,-1,0,2,2021-08-07 12:07:16,184813
0,0,-6,-13,-5,-3,-1,-2,2021-08-07 12:07:16,184813
0,0,-1,4,9,5,3,0,2021-08-07 12:07:16,184813
2,4,8,15,14,6,1,1,2021-08-07 12:07:16,184813
-2,0,0,1,0,0,-2,-2,2021-08-07 12:07:16,184813
1,2,-2,2,0,0,2,0,2021-08-07 12:07:16,185780
0,1,-1,-4,-4,-3,-1,-1,2021-08-07 12:07:16,185780
-6,-7,-8,-23,-26,-14,-7,-5,2021-08-07 12:07:16,214777
3,0,-5,-1,8,4,3,1,2021-08-07 12:07:16,230813
0,1,8,23,25,12,4,1,2021-08-07 12:07:16,230813
-1,-3,-3,-3,-6,-4,-3,-3,2021-08-07 12:07:16,230813
-2,-2,1,-8,-10,-7,-3,-3,2021-08-07 12:07:16,230813
-2,-1,-1,-8,-12,-6,-2,-1,2021-08-07 12:07:16,230813
0,-2,-5,-2,7,2,1,0,2021-08-07 12:07:16,230813
-2,-1,-1,10,13,3,1,1,2021-08-07 12:07:16,230813
0,1,2,-4,-5,-3,-1,-1,2021-08-07 12:07:16,261777
1,-1,2,2,-3,-3,-3,0,2021-08-07 12:07:16,276814
-2,-1,-6,-4,3,3,0,0,2021-08-07 12:07:16,308824
-6,-6,-5,-19,-25,-12,-6,-4,2021-08-07 12:07:16,308824
5,6,9,24,30,13,6,4,2021-08-07 12:07:16,308824
0,0,-2,-5,-2,1,0,1,2021-08-07 12:07:16,308824
-1,-3,2,6,-1,-2,-1,-1,2021-08-07 12:07:16,308824
-6,-6,-9,-17,-16,-9,-6,-5,2021-08-07 12:07:16,308824
1,1,-1,1,-1,-1,0,1,2021-08-07 12:07:16,309816
-1,1,4,9,10,6,3,2,2021-08-07 12:07:16,309816
-4,-4,-1,-3,-8,-6,-4,-2,2021-08-07 12:07:16,309816
-1,-3,-7,-6,-3,-2,-1,-2,2021-08-07 12:07:16,309816
0,0,-1,-3,-1,2,1,1,2021-08-07 12:07:16,309816
4,2,3,12,20,10,4,1,2021-08-07 12:07:16,309816
-2,0,-1,-5,-8,-3,-2,-3,2021-08-07 12:07:16,310820
1,2,5,8,4,2,-1,0,2021-08-07 12:07:16,310820
-3,-5,-7,-11,-10,-6,-1,-1,2021-08-07 12:07:16,340812
0,-2,-1,1,-5,-3,-2,-2,2021-08-07 12:07:16,356826
-2,-3,-6,-9,-11,-5,-3,-1,2021-08-07 12:07:16,388813
1,0,1,1,7,3,2,2,2021-08-07 12:07:16,404812
-2,-3,0,6,4,1,-1,-3,2021-08-07 12:07:16,404812
-4,-3,-7,-8,-13,-5,-4,-3,2021-08-07 12:07:16,404812
5,6,10,18,23,10,5,3,2021-08-07 12:07:16,404812
0,-2,-2,1,-10,-5,-4,-1,2021-08-07 12:07:16,404812
-6,-6,-11,-24,-18,-10,-7,-4,2021-08-07 12:07:16,404812
-2,-2,-1,1,-4,-5,-2,-1,2021-08-07 12:07:16,405778
1,2,-1,-6,-10,-3,-2,0,2021-08-07 12:07:16,405778
0,1,3,12,18,8,4,1,2021-08-07 12:07:16,405778
2,1,3,-2,-8,-3,-1,-1,2021-08-07 12:07:16,405778
1,3,6,13,22,11,4,1,2021-08-07 12:07:16,405778
-2,-4,-9,-12,-15,-8,-3,-3,2021-08-07 12:07:16,405778
0,0,-1,-2,1,1,-2,-1,2021-08-07 12:07:16,405778
-5,-3,-2,2,-1,0,-2,-1,2021-08-07 12:07:16,406812
0,2,6,9,1,0,0,1,2021-08-07 12:07:16,406812
0,-1,2,4,1,1,0,-1,2021-08-07 12:07:16,406812
-1,-2,-3,-4,-10,-7,-3,-1,2021-08-07 12:07:16,406812
-3,-3,-8,-10,-5,-4,-2,-1,2021-08-07 12:07:16,436812
0,-1,-1,-3,6,3,1,0,2021-08-07 12:07:16,436812
-3,-2,0,4,1,-1,-1,-3,2021-08-07 12:07:16,436812
-2,-2,-7,-9,-7,-3,-2,0,2021-08-07 12:07:16,436812
1,1,5,8,12,5,1,0,2021-08-07 12:07:16,452822
0,-1,1,-7,-6,-3,1,0,2021-08-07 12:07:16,452822
0,-3,-10,-6,-4,0,0,-1,2021-08-07 12:07:16,452822
-4,-3,-1,0,0,-3,-4,-5,2021-08-07 12:07:16,452822
-3,-4,-9,-23,-31,-9,-4,-3,2021-08-07 12:07:16,468812
2,3,5,17,36,16,6,2,2021-08-07 12:07:16,484812
3,4,10,21,20,8,5,2,2021-08-07 12:07:16,484812
-1,-1,-3,-6,-11,-4,-1,-2,2021-08-07 12:07:16,484812
-3,-2,2,1,-1,-3,-1,-2,2021-08-07 12:07:16,484812
-5,-4,-9,-26,-32,-16,-7,-7,2021-08-07 12:07:16,484812
1,2,1,5,6,3,0,1,2021-08-07 12:07:16,484812
1,1,1,4,7,5,1,-1,2021-08-07 12:07:16,485781
2,2,3,7,5,1,-1,2,2021-08-07 12:07:16,515776
0,-1,-7,-4,-7,-4,-3,-1,2021-08-07 12:07:16,515776
-2,-2,-2,-6,1,-4,-4,-1,2021-08-07 12:07:16,515776
-3,-2,-2,-1,-4,0,-1,-1,2021-08-07 12:07:16,515776
-1,-1,1,-1,0,1,0,-1,2021-08-07 12:07:16,530811
-1,0,6,5,-1,-1,0,-2,2021-08-07 12:07:16,530811
2,-1,-4,-11,-8,-2,1,2,2021-08-07 12:07:16,530811
2,2,1,9,13,6,2,2,2021-08-07 12:07:16,530811
-2,-4,-2,6,7,0,-1,-2,2021-08-07 12:07:16,546776
-3,-3,-6,-7,-8,-3,-2,-1,2021-08-07 12:07:16,546776
-2,-1,4,2,1,-2,-3,-2,2021-08-07 12:07:16,546776
-1,-2,-1,-8,-9,-6,0,-3,2021-08-07 12:07:16,546776
