EMG 1,EMG 2,EMG 3,EMG 4,EMG 5,EMG 6,EMG 7,EMG 8,Timestamp,Milliseconds
1,3,5,10,10,4,2,-1,2021-08-07 12:07:49,504911
-3,-4,-5,-3,-5,-3,-3,-3,2021-08-07 12:07:49,504911
-3,-2,-2,-2,-7,-5,-3,-3,2021-08-07 12:07:49,504911
-1,-2,-2,-7,-6,-3,-1,0,2021-08-07 12:07:49,504911
0,0,3,7,11,6,3,1,2021-08-07 12:07:49,504911
-2,0,0,0,-1,1,-1,-2,2021-08-07 12:07:49,504911
-1,-1,-1,-1,-3,-2,-1,0,2021-08-07 12:07:49,504911
0,0,-1,-2,-3,-1,-1,-1,2021-08-07 12:07:49,504911
-4,-6,-5,-3,-2,-2,-3,-4,2021-08-07 12:07:49,520910
5,7,4,3,3,2,2,2,2021-08-07 12:07:49,520910
1,0,1,1,1,0,0,0,2021-08-07 12:07:49,535911
-2,-3,-2,-3,-5,-4,-1,-1,2021-08-07 12:07:49,551910
1,2,-1,-2,-1,-2,-1,1,2021-08-07 12:07:49,567418
-1,-2,1,4,3,0,-1,-2,2021-08-07 12:07:49,567418
0,0,-1,-1,0,1,-2,0,2021-08-07 12:07:49,567418
1,1,0,4,4,1,-1,0,2021-08-07 12:07:49,567418
-3,-1,-3,-4,-6,-2,-3,-3,2021-08-07 12:07:49,583419
-2,-2,-3,-8,-8,-6,-3,-1,2021-08-07 12:07:49,599419
-1,-2,-5,-10,-9,-5,-2,-3,2021-08-07 12:07:49,615420
4,5,8,17,24,15,7,2,2021-08-07 12:07:49,615420
1,4,13,29,38,19,7,5,2021-08-07 12:07:49,615420
5,5,6,11,8,6,3,3,2021-08-07 12:07:49,615420
-2,-4,-6,-12,-13,-8,-4,-4,2021-08-07 12:07:49,615420
-1,-1,-2,-5,-6,-3,-2,-3,2021-08-07 12:07:49,615420
-3,-4,-7,-11,-11,-8,-3,-3,2021-08-07 12:07:49,615420
-2,-2,-2,-3,-1,-1,-1,-1,2021-08-07 12:07:49,616420
0,2,2,2,2,2,1,-1,2021-08-07 12:07:49,616420
-1,-3,-4,-10,-11,-5,-4,-1,2021-08-07 12:07:49,616420
-3,-3,-4,-1,0,-1,-3,-3,2021-08-07 12:07:49,631419
3,1,3,3,4,1,4,1,2021-08-07 12:07:49,647419
4,6,1,-5,-9,-4,1,4,2021-08-07 12:07:49,663418
-2,-5,-6,-8,-4,-5,-2,-3,2021-08-07 12:07:49,666419
2,2,3,6,11,6,3,-1,2021-08-07 12:07:49,666419
0,0,2,8,5,2,0,1,2021-08-07 12:07:49,667419
-2,-4,-1,4,2,1,-1,-2,2021-08-07 12:07:49,667419
-4,-4,-6,-8,-4,-3,-3,-2,2021-08-07 12:07:49,667419
4,3,2,0,-9,-5,0,2,2021-08-07 12:07:49,667419
-2,-2,-6,-8,-3,-1,-1,-1,2021-08-07 12:07:49,667419
-1,-3,-3,1,3,-1,-2,-1,2021-08-07 12:07:49,695419
-3,-3,-2,1,-1,-1,-4,-3,2021-08-07 12:07:49,695419
-2,-1,-2,-4,0,0,0,0,2021-08-07 12:07:49,695419
1,2,0,-1,-8,-3,-2,0,2021-08-07 12:07:49,695419
-3,-3,-3,-4,-1,0,-2,-1,2021-08-07 12:07:49,711419
-2,-4,0,11,11,4,0,0,2021-08-07 12:07:49,711419
2,4,0,-8,-16,-5,3,3,2021-08-07 12:07:49,711419
2,-1,-3,-11,-8,-2,4,3,2021-08-07 12:07:49,711419
-2,0,2,-1,6,1,-5,-3,2021-08-07 12:07:49,727419
-4,1,4,11,10,-1,-9,-6,2021-08-07 12:07:49,743419
-5,-4,-4,-2,-5,-6,-5,-3,2021-08-07 12:07:49,759419
-4,-6,-5,-13,-15,-11,-7,-3,2021-08-07 12:07:49,759419
1,1,0,-4,-10,-1,4,2,2021-08-07 12:07:49,759419
4,3,7,10,23,11,6,5,2021-08-07 12:07:49,759419
-1,-3,0,2,2,1,0,-2,2021-08-07 12:07:49,759419
1,1,2,4,5,4,1,1,2021-08-07 12:07:49,759419
-5,-4,-7,-10,-12,-7,-4,-3,2021-08-07 12:07:49,775419
0,-2,-2,-8,-11,-5,0,-1,2021-08-07 12:07:49,791418
-2,-3,-2,-3,-4,-3,-3,-4,2021-08-07 12:07:49,807418
-1,0,1,3,7,3,1,0,2021-08-07 12:07:49,823417
4,5,3,5,5,3,2,3,2021-08-07 12:07:49,823417
1,4,3,9,3,2,3,2,2021-08-07 12:07:49,823417
-4,-7,-5,-3,-3,-2,-4,-5,2021-08-07 12:07:49,823417
-3,-2,-3,-9,-12,-8,-5,-5,2021-08-07 12:07:49,823417
5,9,7,8,11,7,4,3,2021-08-07 12:07:49,824421
-2,-1,-4,-4,2,1,1,-1,2021-08-07 12:07:49,824421
3,4,9,20,12,6,2,3,2021-08-07 12:07:49,824421
-6,-4,-4,0,1,-2,-2,-4,2021-08-07 12:07:49,824421
-4,-6,-4,-5,-12,-7,-5,-4,2021-08-07 12:07:49,824421
-2,-2,-4,-11,-10,-4,-3,-1,2021-08-07 12:07:49,824421
0,1,2,-3,-1,-2,0,1,2021-08-07 12:07:49,824421
0,2,0,-3,-6,-3,-1,-1,2021-08-07 12:07:49,824421
0,-4,-1,9,22,9,4,1,2021-08-07 12:07:49,855418
-4,-1,-1,1,-2,-2,-3,-2,2021-08-07 12:07:49,855418
3,3,0,0,4,2,1,2,2021-08-07 12:07:49,871419
0,-1,-1,1,-4,-4,-3,-2,2021-08-07 12:07:49,887460
-4,-5,-7,-12,-10,-6,-3,-3,2021-08-07 12:07:49,903460
2,2,4,6,-2,0,2,0,2021-08-07 12:07:49,903460
-2,-4,-5,-6,1,1,0,0,2021-08-07 12:07:49,903460
1,1,3,8,4,2,1,0,2021-08-07 12:07:49,919463
-3,-3,-4,-7,-15,-8,-5,-5,2021-08-07 12:07:49,951461
3,3,3,2,18,7,3,1,2021-08-07 12:07:49,967459
-1,0,2,15,8,5,-1,0,2021-08-07 12:07:49,967459
1,-2,-3,-2,5,3,2,0,2021-08-07 12:07:49,983462
-2,-1,3,6,4,0,0,-1,2021-08-07 12:07:49,999462
-3,-6,-7,-13,-18,-8,-3,-3,2021-08-07 12:07:49,999462
0,2,-4,-13,-12,-8,-4,0,2021-08-07 12:07:49,999462
-1,-2,-1,0,4,1,-2,-1,2021-08-07 12:07:49,999462
-2,-5,-5,-7,-7,-4,-2,0,2021-08-07 12:07:49,999462
0,-1,5,9,9,4,2,0,2021-08-07 12:07:50,015463
2,3,3,5,0,1,0,1,2021-08-07 12:07:50,015463
-1,-1,-2,-1,-1,0,0,0,2021-08-07 12:07:50,015463
-1,-4,-3,-4,-4,-3,-1,-2,2021-08-07 12:07:50,015463
-2,-1,-7,-15,-17,-7,-4,-1,2021-08-07 12:07:50,015463
-2,-2,-3,0,7,3,1,-2,2021-08-07 12:07:50,015463
2,4,4,4,5,1,0,0,2021-08-07 12:07:50,015463
-2,-2,-2,5,1,0,-2,-3,2021-08-07 12:07:50,016462
1,1,-1,-3,-4,-1,0,2,2021-08-07 12:07:50,016462
3,2,2,1,-4,-2,-1,0,2021-08-07 12:07:50,016462
-1,0,0,7,12,6,1,0,2021-08-07 12:07:50,016462
0,1,4,8,9,3,2,0,2021-08-07 12:07:50,016462
-3,-2,-3,-4,-9,-4,-2,-5,2021-08-07 12:07:50,016462
-2,-2,-6,-19,-22,-12,-5,0,2021-08-07 12:07:50,016462
0,1,2,7,11,6,1,1,2021-08-07 12:07:50,017462
-2,2,4,1,6,4,2,0,2021-08-07 12:07:50,017462
1,0,1,2,-1,-1,-2,1,2021-08-07 12:07:50,017462
-3,-2,-2,-4,-8,-4,-2,-2,2021-08-07 12:07:50,017462
-3,-4,-6,-12,-16,-8,-5,-2,2021-08-07 12:07:50,017462
2,3,5,11,19,6,3,1,2021-08-07 12:07:50,031464
0,1,0,-1,-5,-3,-1,-1,2021-08-07 12:07:50,047460
-1,-4,-4,-2,3,1,0,-2,2021-08-07 12:07:50,063461
-3,-3,-3,-5,-9,-4,-3,-2,2021-08-07 12:07:50,079460
-3,-4,-6,-12,-21,-11,-4,-5,2021-08-07 12:07:50,079738
0,-2,2,8,15,8,3,1,2021-08-07 12:07:50,079738
5,5,5,7,3,2,1,2,2021-08-07 12:07:50,079738
-4,-3,-3,-3,-4,-2,-2,-3,2021-08-07 12:07:50,079738
0,-1,-2,-2,-2,-2,-3,-2,2021-08-07 12:07:50,080461
0,-1,-1,-4,-7,-2,-2,0,2021-08-07 12:07:50,080461
-4,-5,-8,-17,-11,-4,-4,-4,2021-08-07 12:07:50,080461
0,2,2,4,7,1,1,0,2021-08-07 12:07:50,080461
-1,0,3,8,11,5,1,1,2021-08-07 12:07:50,094981
0,0,0,2,-1,-1,-1,0,2021-08-07 12:07:50,110980
0,1,5,12,6,2,1,0,2021-08-07 12:07:50,110980
-2,-5,-7,-11,-12,-5,-3,-2,2021-08-07 12:07:50,110980
-1,1,1,-2,3,0,0,-1,2021-08-07 12:07:50,110980
1,2,-1,3,3,1,1,0,2021-08-07 12:07:50,111984
0,-1,-2,-2,-1,-3,-1,0,2021-08-07 12:07:50,111984
-2,-1,-1,-2,-5,-4,-1,-3,2021-08-07 12:07:50,111984
-2,-3,-5,-3,-2,0,-1,0,2021-08-07 12:07:50,117982
-2,-5,-7,-10,-8,-4,-1,1,2021-08-07 12:07:50,118981
-1,-2,-1,-3,6,4,1,1,2021-08-07 12:07:50,141984
1,0,5,14,14,8,3,2,2021-08-07 12:07:50,141984
-3,-3,1,2,-2,-2,-2,-2,2021-08-07 12:07:50,141984
-4,-1,-2,-9,-13,-8,-4,-4,2021-08-07 12:07:50,142981
-4,0,2,4,5,0,-2,-2,2021-08-07 12:07:50,142981
1,0,2,1,3,-1,-1,-1,2021-08-07 12:07:50,157980
2,2,1,5,1,0,1,1,2021-08-07 12:07:50,189982
0,-2,-4,-11,-12,-6,-3,-1,2021-08-07 12:07:50,189982
1,-2,-3,-4,0,0,0,2,2021-08-07 12:07:50,189982
0,0,3,12,11,5,2,1,2021-08-07 12:07:50,189982
-1,-2,-4,-4,-4,-3,-1,0,2021-08-07 12:07:50,190983
2,3,3,0,-5,0,0,1,2021-08-07 12:07:50,190983
-3,-3,-7,-14,-10,-8,-2,-4,2021-08-07 12:07:50,190983
1,1,4,5,0,-1,-1,1,2021-08-07 12:07:50,190983
-1,-2,-3,-2,3,3,-1,-3,2021-08-07 12:07:50,205981
-2,-2,1,6,9,4,1,-1,2021-08-07 12:07:50,221983
2,4,2,3,0,1,2,1,2021-08-07 12:07:50,237981
-1,-2,-3,-7,-6,-3,-2,-1,2021-08-07 12:07:50,237981
-4,-4,-7,-12,-14,-8,-5,-2,2021-08-07 12:07:50,237981
-1,-1,2,5,2,1,-1,-1,2021-08-07 12:07:50,237981
-1,-1,0,6,17,8,2,-2,2021-08-07 12:07:50,237981
1,2,1,-1,0,1,0,0,2021-08-07 12:07:50,237981
1,2,2,0,0,1,1,1,2021-08-07 12:07:50,238982
-2,-2,-1,2,-1,-3,-1,-1,2021-08-07 12:07:50,238982
-5,-3,-3,-6,-11,-5,-2,-2,2021-08-07 12:07:50,252983
0,0,-3,-5,-3,-2,-1,-1,2021-08-07 12:07:50,252983
1,-1,-2,-4,-2,-1,0,-2,2021-08-07 12:07:50,268982
-2,-3,-6,-7,-7,-3,-1,-3,2021-08-07 12:07:50,268982
3,1,2,9,2,3,2,1,2021-08-07 12:07:50,268982
-1,-3,-6,-7,-5,-3,-2,-1,2021-08-07 12:07:50,268982
0,0,2,4,0,0,-2,-1,2021-08-07 12:07:50,299982
-2,-2,-3,-6,-3,-1,-1,-2,2021-08-07 12:07:50,315982
1,0,2,7,4,1,1,1,2021-08-07 12:07:50,331982
-3,-2,-2,-10,-5,-4,0,-3,2021-08-07 12:07:50,331982
-2,-2,0,1,-2,0,-1,0,2021-08-07 12:07:50,331982
1,2,0,1,2,0,0,0,2021-08-07 12:07:50,331982
0,-2,-1,-2,-4,-2,-1,-3,2021-08-07 12:07:50,331982
3,3,2,5,5,5,3,4,2021-08-07 12:07:50,332985
-4,-8,-10,-17,-17,-11,-5,-3,2021-08-07 12:07:50,332985
-1,-2,0,1,2,-1,0,-1,2021-08-07 12:07:50,332985
-1,0,-1,-1,-5,-1,0,0,2021-08-07 12:07:50,332985
0,3,0,-2,-6,-3,-3,-3,2021-08-07 12:07:50,332985
-1,1,3,4,6,5,2,-1,2021-08-07 12:07:50,347983
-2,-4,-1,3,4,1,-1,0,2021-08-07 12:07:50,347983
3,6,7,8,2,2,1,3,2021-08-07 12:07:50,347983
-3,-4,-3,-4,-5,-3,-2,-1,2021-08-07 12:07:50,347983
-3,-4,-6,-6,-3,-3,-2,-1,2021-08-07 12:07:50,363982
-1,0,1,-4,-10,-6,-3,-1,2021-08-07 12:07:50,379982
-1,-2,-1,1,10,5,-1,0,2021-08-07 12:07:50,395981
-2,-1,-1,4,7,4,2,-1,2021-08-07 12:07:50,410980
-1,1,0,-2,-2,-1,0,0,2021-08-07 12:07:50,410980
1,-1,-1,-1,-4,-2,-1,-1,2021-08-07 12:07:50,410980
-4,-4,-6,-9,-6,-3,-4,-2,2021-08-07 12:07:50,410980
0,-1,2,-1,-6,-3,-2,0,2021-08-07 12:07:50,410980
0,0,0,-2,2,1,-1,-1,2021-08-07 12:07:50,442980
0,0,2,9,4,1,0,-2,2021-08-07 12:07:50,457982
-1,-2,-1,-2,-2,-2,-1,1,2021-08-07 12:07:50,457982
-6,-8,-11,-13,-13,-9,-8,-7,2021-08-07 12:07:50,457982
5,6,6,5,3,2,2,1,2021-08-07 12:07:50,457982
1,1,3,8,17,11,5,2,2021-08-07 12:07:50,457982
1,-1,-1,-3,-2,-1,-2,-1,2021-08-07 12:07:50,473982
-4,-5,-2,-3,-2,-3,-2,-3,2021-08-07 12:07:50,473982
-2,-2,-3,-7,-15,-7,-5,-1,2021-08-07 12:07:50,473982
-1,0,-5,-6,3,1,-1,0,2021-08-07 12:07:50,473982
-2,-1,0,4,7,2,-1,-2,2021-08-07 12:07:50,473982
0,1,2,5,6,3,1,1,2021-08-07 12:07:50,473982
0,-1,-1,1,3,2,-1,0,2021-08-07 12:07:50,474984
1,3,1,-4,-3,-2,-1,0,2021-08-07 12:07:50,474984
-1,-2,-2,-6,-8,-5,-2,-2,2021-08-07 12:07:50,474984
-1,1,2,1,0,0,-1,-1,2021-08-07 12:07:50,474984
-1,-5,-3,-4,-4,-2,-4,-2,2021-08-07 12:07:50,521983
-4,-4,-5,-4,-7,-5,-2,-2,2021-08-07 12:07:50,537980
-3,-4,-5,-5,-10,-5,-2,-3,2021-08-07 12:07:50,537980
0,0,0,5,9,4,0,-1,2021-08-07 12:07:50,537980
2,3,1,5,4,1,-1,0,2021-08-07 12:07:50,553980
3,3,1,-3,2,3,1,1,2021-08-07 12:07:50,553980
-6,-6,-6,-12,-14,-8,-6,-5,2021-08-07 12:07:50,553980
4,3,1,-3,-2,0,2,1,2021-08-07 12:07:50,553980
-5,-5,-2,1,-1,-2,-1,-3,2021-08-07 12:07:50,554982
-2,-1,-1,-2,-2,-2,-2,0,2021-08-07 12:07:50,569981
0,0,-1,-2,-5,-4,-2,2,2021-08-07 12:07:50,570983
-3,-6,-6,-8,-9,-5,-3,-1,2021-08-07 12:07:50,570983
-1,-1,3,5,8,2,2,0,2021-08-07 12:07:50,570983
-2,-3,-2,-4,-3,-2,-1,-2,2021-08-07 12:07:50,570983
2,2,5,10,6,3,2,0,2021-08-07 12:07:50,570983
-2,-3,-2,-3,-2,-3,-2,0,2021-08-07 12:07:50,571981
0,1,-1,-2,-3,-2,-1,0,2021-08-07 12:07:50,571981
-4,-3,-2,1,-5,-3,-2,-1,2021-08-07 12:07:50,571981
2,6,3,0,4,3,2,3,2021-08-07 12:07:50,571981
-2,-3,-3,-2,-3,-1,-1,-2,2021-08-07 12:07:50,571981
-2,1,4,6,5,3,-1,-1,2021-08-07 12:07:50,600980
-2,-1,1,5,3,2,-2,-1,2021-08-07 12:07:50,600980
0,-3,-4,-7,-5,-3,-2,-2,2021-08-07 12:07:50,600980
-1,0,0,-3,-5,-3,0,-2,2021-08-07 12:07:50,600980
-2,-1,-4,-7,-7,-6,-3,0,2021-08-07 12:07:50,616982
-5,-4,-6,-8,-3,-1,-3,-4,2021-08-07 12:07:50,616982
-2,1,1,6,1,0,1,0,2021-08-07 12:07:50,616982
-2,-2,-2,0,5,3,0,0,2021-08-07 12:07:50,616982
-2,-1,-2,-1,-2,-1,-1,-2,2021-08-07 12:07:50,647980
1,2,0,-2,-3,-2,0,0,2021-08-07 12:07:50,663982
-4,-2,-2,-3,-3,-3,-2,-1,2021-08-07 12:07:50,679981
0,0,-1,3,7,2,-2,-1,2021-08-07 12:07:50,679981
-1,1,1,0,-1,-1,1,1,2021-08-07 12:07:50,679981
2,-1,1,0,0,-1,1,-1,2021-08-07 12:07:50,679981
-2,-1,-2,-1,1,0,1,-1,2021-08-07 12:07:50,679981
-4,-3,-3,-4,-10,-5,-3,-2,2021-08-07 12:07:50,679981
0,-1,-1,2,3,1,-1,0,2021-08-07 12:07:50,679981
2,2,4,8,6,2,1,1,2021-08-07 12:07:50,680982
-1,-3,-4,-4,-3,-1,-2,-2,2021-08-07 12:07:50,680982
-4,-4,-7,-11,-15,-8,-5,-4,2021-08-07 12:07:50,680982
-1,0,0,-7,-1,0,1,1,2021-08-07 12:07:50,695982
3,5,11,25,21,11,4,3,2021-08-07 12:07:50,711983
-2,-2,-3,-9,-8,-3,-3,0,2021-08-07 12:07:50,711983
3,4,7,13,13,7,4,1,2021-08-07 12:07:50,711983
-2,-4,-6,-7,-10,-5,-3,-4,2021-08-07 12:07:50,711983
-1,-2,-4,-4,-6,-5,-2,-1,2021-08-07 12:07:50,711983
-1,-1,-2,-6,-2,-2,-1,-1,2021-08-07 12:07:50,712982
-2,-2,-2,-5,-9,-5,-1,-2,2021-08-07 12:07:50,712982
2,3,5,11,20,10,4,2,2021-08-07 12:07:50,743983
2,2,0,-4,-9,-5,0,1,2021-08-07 12:07:50,743983
-1,-4,-2,3,7,3,-1,-3,2021-08-07 12:07:50,743983
-1,-2,-3,-7,-7,-3,-1,-2,2021-08-07 12:07:50,759982
1,-1,1,-3,-3,-2,-1,-1,2021-08-07 12:07:50,759982
-1,-2,-3,-7,-6,-2,-4,0,2021-08-07 12:07:50,775980
1,0,-1,-5,-2,-2,-2,-2,2021-08-07 12:07:50,775980
-3,-4,-3,2,2,-1,-3,-2,2021-08-07 12:07:50,775980
1,2,3,1,-1,-1,0,2,2021-08-07 12:07:50,775980
1,0,3,9,8,3,0,1,2021-08-07 12:07:50,775980
-4,-5,-8,-11,-17,-8,-5,-4,2021-08-07 12:07:50,775980
4,5,8,7,24,11,5,5,2021-08-07 12:07:50,776983
-1,2,2,9,5,4,1,1,2021-08-07 12:07:50,806982
1,2,0,-6,-8,-4,-1,-2,2021-08-07 12:07:50,806982
-1,-1,-1,1,2,0,0,-1,2021-08-07 12:07:50,806982
-3,-3,-5,-11,-11,-5,-3,-2,2021-08-07 12:07:50,806982
-3,-7,-9,-12,-13,-7,-4,-4,2021-08-07 12:07:50,822981
-1,-1,-1,-8,-7,-2,1,-2,2021-08-07 12:07:50,822981
5,5,12,35,39,19,9,3,2021-08-07 12:07:50,822981
-2,-4,-5,-10,-17,-8,-5,-2,2021-08-07 12:07:50,838982
2,1,-1,-2,-2,0,0,-1,2021-08-07 12:07:50,854984
-1,0,2,5,0,-2,0,-1,2021-08-07 12:07:50,870983
-1,-3,-5,-9,-9,-4,-4,-2,2021-08-07 12:07:50,870983
1,1,5,13,15,6,2,2,2021-08-07 12:07:50,870983
-6,-6,-4,-7,-6,-4,-4,-5,2021-08-07 12:07:50,870983
-1,0,-1,-7,-6,-1,-2,-1,2021-08-07 12:07:50,885982
-2,0,0,-4,-7,-4,0,0,2021-08-07 12:07:50,885982
0,-1,-1,-3,-7,-5,-3,-2,2021-08-07 12:07:50,885982
-3,-2,-4,-9,-8,-3,-3,-2,2021-08-07 12:07:50,885982
0,1,2,12,14,7,2,0,2021-08-07 12:07:50,885982
-2,-2,-2,0,-2,-2,-1,0,2021-08-07 12:07:50,886984
1,3,3,8,6,3,1,0,2021-08-07 12:07:50,886984
2,1,2,3,-1,-2,-1,-1,2021-08-07 12:07:50,901982
0,-2,-4,-6,-4,-2,-2,-1,2021-08-07 12:07:50,901982
3,4,1,-3,5,1,1,-1,2021-08-07 12:07:50,901982
-5,-8,-5,-1,-5,-4,-2,-5,2021-08-07 12:07:50,901982
-2,-2,-2,-1,-1,-1,-1,0,2021-08-07 12:07:50,917982
-2,-4,-7,-15,-9,-6,-3,-3,2021-08-07 12:07:50,933982
3,6,9,20,9,6,4,3,2021-08-07 12:07:50,948982
-1,1,2,2,3,0,-1,-2,2021-08-07 12:07:50,948982
1,2,3,7,6,3,2,1,2021-08-07 12:07:50,948982
0,0,-3,-10,-10,-7,-3,-1,2021-08-07 12:07:50,948982
-6,-7,-10,-20,-19,-11,-6,-4,2021-08-07 12:07:50,948982
2,3,4,9,11,7,1,3,2021-08-07 12:07:50,949981
-4,-3,-3,2,5,2,-1,1,2021-08-07 12:07:50,964980
-1,-2,-2,-2,-1,0,0,3,2021-08-07 12:07:50,964980
0,2,4,4,3,2,0,-1,2021-08-07 12:07:50,964980
-3,-2,0,3,0,-1,-1,-4,2021-08-07 12:07:50,979981
-3,0,3,2,2,1,-2,-3,2021-08-07 12:07:50,995980
-5,-2,-2,-2,-3,-3,-4,-3,2021-08-07 12:07:51,011981
0,1,0,-3,-2,-1,-2,0,2021-08-07 12:07:51,024982
0,-1,-4,-5,-8,-3,0,-1,2021-08-07 12:07:51,024982
-2,-2,-4,-10,-11,-6,-3,0,2021-08-07 12:07:51,024982
3,2,10,19,18,9,5,2,2021-08-07 12:07:51,024982
-3,-6,-9,-18,-6,-2,-3,-2,2021-08-07 12:07:51,025982
1,3,2,7,2,0,-1,2,2021-08-07 12:07:51,025982
-1,-1,-2,-2,-4,-3,-2,-2,2021-08-07 12:07:51,025982
-2,-2,-2,-3,-2,-3,-2,-2,2021-08-07 12:07:51,025982
-7,-7,-9,-15,-16,-7,-5,-5,2021-08-07 12:07:51,025982
-1,-2,1,7,12,6,4,2,2021-08-07 12:07:51,025982
5,6,6,13,15,8,4,2,2021-08-07 12:07:51,026983
-2,-2,-3,-1,-5,-5,-5,-6,2021-08-07 12:07:51,026983
-5,-5,-5,-5,-10,-7,-3,-2,2021-08-07 12:07:51,042980
-4,-5,-7,-15,-12,-5,-3,-2,2021-08-07 12:07:51,042980
2,2,3,2,-3,0,0,2,2021-08-07 12:07:51,058982
-1,-2,0,3,9,2,1,-2,2021-08-07 12:07:51,074982
0,0,0,5,4,1,0,1,2021-08-07 12:07:51,074982
-2,-4,-3,-5,-8,-5,-2,-2,2021-08-07 12:07:51,074982
-1,-2,-6,-13,-10,-7,-2,-1,2021-08-07 12:07:51,074982
2,2,3,6,6,6,2,3,2021-08-07 12:07:51,074982
-3,-1,-1,2,5,1,0,-3,2021-08-07 12:07:51,075983
0,-1,-4,-10,-8,-2,-2,0,2021-08-07 12:07:51,075983
-3,-3,3,6,3,1,-1,-3,2021-08-07 12:07:51,090984
-6,-6,-7,-14,-13,-7,-4,-5,2021-08-07 12:07:51,106982
3,2,5,10,8,3,2,3,2021-08-07 12:07:51,106982
1,1,-1,2,-3,-3,-3,0,2021-08-07 12:07:51,106982
1,-2,-2,-3,-1,0,0,0,2021-08-07 12:07:51,122981
-2,-3,-3,-4,-4,-2,-4,-1,2021-08-07 12:07:51,137984
-4,-7,-7,-12,-12,-3,-3,-1,2021-08-07 12:07:51,153983
5,9,11,17,18,6,3,2,2021-08-07 12:07:51,153983
-1,0,-3,-8,-14,-5,-2,-1,2021-08-07 12:07:51,153983
1,-1,1,8,11,6,3,1,2021-08-07 12:07:51,153983
-1,-3,-1,-1,0,-2,-2,-2,2021-08-07 12:07:51,153983
-3,-2,-3,-9,-7,-4,-2,-1,2021-08-07 12:07:51,153983
-2,-4,-3,-2,-1,-1,-1,0,2021-08-07 12:07:51,154983
-4,-3,-4,-11,-16,-8,-3,-3,2021-08-07 12:07:51,169985
3,2,3,8,9,3,2,1,2021-08-07 12:07:51,202020
-1,-2,0,2,-2,-1,-1,-2,2021-08-07 12:07:51,202020
-1,-2,0,6,6,-1,0,-3,2021-08-07 12:07:51,202020
-2,-4,-8,-10,-9,-5,-1,0,2021-08-07 12:07:51,202020
0,3,1,8,2,1,1,0,2021-08-07 12:07:51,202020
-2,-1,-3,-15,-14,-7,-4,-3,2021-08-07 12:07:51,203021
1,2,4,14,14,7,3,1,2021-08-07 12:07:51,203021
0,1,2,2,2,1,2,1,2021-08-07 12:07:51,203021
-1,-2,0,-2,-7,-6,-2,-4,2021-08-07 12:07:51,203021
-1,-2,-1,9,13,4,2,-2,2021-08-07 12:07:51,203021
-4,-4,-7,-9,-12,-3,-3,-3,2021-08-07 12:07:51,234019
5,8,8,14,20,9,5,4,2021-08-07 12:07:51,250020
3,1,-2,-9,-10,-6,-3,-2,2021-08-07 12:07:51,265019
-4,-2,0,3,3,0,-2,-3,2021-08-07 12:07:51,265019
0,-1,-4,-4,-6,-2,-1,-1,2021-08-07 12:07:51,265019
-1,-2,0,10,8,4,1,0,2021-08-07 12:07:51,265019
-4,-2,-2,-4,-3,-3,-1,-2,2021-08-07 12:07:51,281020
-3,-4,-5,-8,-8,-7,-5,-3,2021-08-07 12:07:51,281020
0,1,-1,-3,-3,-1,-1,-1,2021-08-07 12:07:51,281020
0,0,-1,-3,3,1,-2,-1,2021-08-07 12:07:51,281020
-1,0,-1,1,1,1,1,0,2021-08-07 12:07:51,297018
-1,-2,-4,-5,-4,0,-1,0,2021-08-07 12:07:51,297018
-1,2,7,11,5,1,2,1,2021-08-07 12:07:51,297018
-2,-1,-6,-10,-15,-9,-3,0,2021-08-07 12:07:51,297018
-3,-4,-4,-5,2,1,0,0,2021-08-07 12:07:51,297018
2,2,4,10,5,3,1,0,2021-08-07 12:07:51,297018
-2,-1,-1,-2,2,-1,-2,-1,2021-08-07 12:07:51,298020
-1,-1,-1,-2,-5,-2,0,0,2021-08-07 12:07:51,298020
-1,-1,-5,-7,-5,-3,-1,-1,2021-08-07 12:07:51,298020
0,-1,2,0,0,0,1,1,2021-08-07 12:07:51,298020
2,1,1,1,3,0,0,0,2021-08-07 12:07:51,328021
-3,-4,-2,1,-2,-1,-1,-2,2021-08-07 12:07:51,344019
-1,-1,-1,0,-3,-2,-2,-2,2021-08-07 12:07:51,344019
-5,-6,-9,-15,-6,-2,-3,-1,2021-08-07 12:07:51,344019
-3,-5,-3,2,-1,-4,-3,-4,2021-08-07 12:07:51,344019
4,4,4,4,3,2,3,3,2021-08-07 12:07:51,344019
0,0,0,2,1,0,-1,0,2021-08-07 12:07:51,359018
-1,-1,-4,-3,-4,-1,-1,0,2021-08-07 12:07:51,375019
-2,-2,-2,-4,0,-2,-3,-1,2021-08-07 12:07:51,375019
0,-2,0,2,1,-1,-2,-2,2021-08-07 12:07:51,375019
-1,-3,0,-3,-1,-3,0,-1,2021-08-07 12:07:51,375019
-4,-4,-4,-4,-7,-6,-4,-3,2021-08-07 12:07:51,375019
2,1,0,1,7,4,3,2,2021-08-07 12:07:51,375019
1,2,8,11,10,4,2,1,2021-08-07 12:07:51,376020
-2,0,-1,-2,-3,-3,-3,-2,2021-08-07 12:07:51,376020
0,-1,-3,-5,-10,-5,-1,-1,2021-08-07 12:07:51,376020
-2,-2,-1,-6,-3,-1,-2,-1,2021-08-07 12:07:51,391020
-1,0,-1,-6,-3,-2,0,0,2021-08-07 12:07:51,407257
-1,0,2,6,3,1,2,0,2021-08-07 12:07:51,407257
-4,-5,-6,-5,-5,-3,-3,-3,2021-08-07 12:07:51,407257
-1,-2,-5,-6,-10,-5,-2,-2,2021-08-07 12:07:51,422540
2,1,0,1,5,4,1,0,2021-08-07 12:07:51,438538
-1,-1,1,2,5,1,-1,-1,2021-08-07 12:07:51,454539
2,2,1,1,-3,-1,0,0,2021-08-07 12:07:51,454539
0,-3,-1,1,6,3,0,1,2021-08-07 12:07:51,454539
-2,-1,-6,-7,-11,-4,-2,-2,2021-08-07 12:07:51,470538
1,0,-2,-3,1,-2,0,-1,2021-08-07 12:07:51,470538
-1,0,3,9,9,5,0,0,2021-08-07 12:07:51,486539
-1,2,-2,-4,-2,1,-1,-1,2021-08-07 12:07:51,496539
-3,-4,-1,5,0,-1,-2,-2,2021-08-07 12:07:51,496539
-1,-4,-3,-5,-5,-3,-1,-1,2021-08-07 12:07:51,502537
2,1,0,-6,-3,-3,-2,-1,2021-08-07 12:07:51,502537
0,-2,0,-2,-6,-5,-3,-1,2021-08-07 12:07:51,518539
-2,-2,-2,-5,-6,-4,-2,-1,2021-08-07 12:07:51,534537
-1,-1,1,2,2,2,-1,-2,2021-08-07 12:07:51,550538
0,1,2,6,5,2,1,0,2021-08-07 12:07:51,550538
-1,0,1,0,1,0,1,0,2021-08-07 12:07:51,550538
-2,-2,-3,-5,-4,-1,-1,-2,2021-08-07 12:07:51,550538
-2,-2,-5,-5,-6,-2,-2,-1,2021-08-07 12:07:51,550538
5,9,11,17,15,6,5,3,2021-08-07 12:07:51,550538
-2,-3,-4,-2,-1,-2,-2,-3,2021-08-07 12:07:51,551538
1,1,2,4,3,1,1,1,2021-08-07 12:07:51,551538
-1,-2,-2,-4,-6,-2,-2,-3,2021-08-07 12:07:51,551538
-5,-6,-8,-12,-9,-4,-4,-3,2021-08-07 12:07:51,551538
-1,0,0,-2,-5,-3,-1,0,2021-08-07 12:07:51,551538
-1,0,0,-2,2,0,-1,-1,2021-08-07 12:07:51,552539
0,1,1,6,8,3,-1,-2,2021-08-07 12:07:51,552539
-1,-2,0,4,2,1,0,-1,2021-08-07 12:07:51,552539
0,-1,-2,0,-4,-1,-1,-2,2021-08-07 12:07:51,552539
-2,-3,-3,-4,2,0,-2,-3,2021-08-07 12:07:51,552539
-1,-1,-4,-10,-11,-5,-2,-1,2021-08-07 12:07:51,566539
-2,-2,1,4,11,4,0,-2,2021-08-07 12:07:51,582540
1,0,0,1,0,1,1,-1,2021-08-07 12:07:51,582540
0,-1,-2,-1,-4,-1,0,1,2021-08-07 12:07:51,582540
-2,-1,-2,-3,-2,-1,-1,-1,2021-08-07 12:07:51,582540
3,6,2,-4,-10,-7,-1,2,2021-08-07 12:07:51,582540
0,0,-1,1,5,4,1,0,2021-08-07 12:07:51,598538
0,0,4,5,-2,-2,0,1,2021-08-07 12:07:51,598538
-2,-1,5,11,10,5,1,0,2021-08-07 12:07:51,598538
-3,-6,-7,-7,-6,-2,-1,-2,2021-08-07 12:07:51,598538
1,1,0,-2,2,-2,-1,-1,2021-08-07 12:07:51,630538
1,2,0,-5,-7,-2,0,1,2021-08-07 12:07:51,630538
0,-1,-1,1,3,2,0,0,2021-08-07 12:07:51,630538
0,1,1,0,-3,-1,0,0,2021-08-07 12:07:51,646540
-2,-3,-2,-2,2,1,1,0,2021-08-07 12:07:51,662538
-4,-6,-7,-5,-3,-2,-4,-5,2021-08-07 12:07:51,678538
1,-2,3,3,3,2,-1,-1,2021-08-07 12:07:51,694539
0,1,-1,0,-1,2,0,0,2021-08-07 12:07:51,694539
-1,-2,1,0,-3,-2,1,-1,2021-08-07 12:07:51,694539
-1,0,1,1,-2,-2,0,-1,2021-08-07 12:07:51,694539
-3,-2,-2,-7,-4,-4,-3,-1,2021-08-07 12:07:51,694539
-5,-5,-5,-6,-3,-3,-1,-4,2021-08-07 12:07:51,695539
-2,-1,-4,-6,-10,-5,-3,-1,2021-08-07 12:07:51,695539
4,4,5,18,19,9,4,2,2021-08-07 12:07:51,695539
1,1,4,11,11,6,3,0,2021-08-07 12:07:51,695539
1,0,-2,-11,-13,-8,-5,-5,2021-08-07 12:07:51,695539
-1,-3,-2,0,3,4,-1,0,2021-08-07 12:07:51,695539
-5,-4,-5,-10,-5,-4,-3,-3,2021-08-07 12:07:51,696538
1,2,2,-2,-1,-1,1,-1,2021-08-07 12:07:51,696538
-6,-6,-5,-2,-3,-4,-2,-1,2021-08-07 12:07:51,696538
-3,-2,-4,-7,-5,-4,-3,-2,2021-08-07 12:07:51,726538
4,5,5,4,0,2,1,0,2021-08-07 12:07:51,726538
-2,-3,-1,3,0,-2,-2,-2,2021-08-07 12:07:51,742537
0,-2,-2,-3,-1,-1,-2,0,2021-08-07 12:07:51,742537
2,1,1,-2,-1,-1,-1,-1,2021-08-07 12:07:51,742537
-2,-6,-5,-10,-6,-2,0,-3,2021-08-07 12:07:51,742537
-2,-1,-3,-3,-6,-2,0,0,2021-08-07 12:07:51,742537
-2,-3,-1,-4,-5,-5,0,-1,2021-08-07 12:07:51,742537
-1,1,1,2,0,-1,0,0,2021-08-07 12:07:51,758539
3,2,6,17,18,9,4,2,2021-08-07 12:07:51,758539
-3,-5,-6,-11,-10,-7,-2,-3,2021-08-07 12:07:51,758539
2,2,1,7,7,3,-1,1,2021-08-07 12:07:51,758539
-2,-2,-2,-5,-6,-3,-1,-2,2021-08-07 12:07:51,774539
1,2,1,1,-1,-1,-4,-1,2021-08-07 12:07:51,774539
0,-1,-2,-1,0,0,1,0,2021-08-07 12:07:51,774539
-3,-5,-4,-7,-5,-3,-2,-1,2021-08-07 12:07:51,774539
1,1,1,-2,-2,-2,-1,0,2021-08-07 12:07:51,806538
-2,-2,-4,-10,-9,-5,-3,-2,2021-08-07 12:07:51,806538
2,1,4,12,9,6,2,2,2021-08-07 12:07:51,806538
-2,-1,-1,-2,4,3,1,1,2021-08-07 12:07:51,806538
0,1,4,9,7,4,1,1,2021-08-07 12:07:51,807539
-5,-7,-9,-13,-10,-6,-3,-4,2021-08-07 12:07:51,807539
0,0,-3,-5,-9,-5,-4,-1,2021-08-07 12:07:51,822538
0,-1,-1,-6,-4,-3,-1,1,2021-08-07 12:07:51,822538
-1,-3,-5,-9,-2,0,0,-1,2021-08-07 12:07:51,838538
-1,1,5,14,12,3,1,1,2021-08-07 12:07:51,838538
-2,-2,-3,-11,-10,-6,-4,-2,2021-08-07 12:07:51,838538
7,7,11,17,17,9,4,4,2021-08-07 12:07:51,838538
0,2,-3,-8,-10,-6,-2,0,2021-08-07 12:07:51,869540
-3,-5,-9,-10,-9,-4,-1,-2,2021-08-07 12:07:51,885538
0,-3,-4,-1,1,-1,0,0,2021-08-07 12:07:51,901538
-2,-4,-2,-2,-3,0,1,0,2021-08-07 12:07:51,901538
-3,-2,0,4,4,1,-2,-3,2021-08-07 12:07:51,901538
-3,-2,-1,-6,-9,-2,-3,-3,2021-08-07 12:07:51,901538
2,5,9,15,14,6,1,-1,2021-08-07 12:07:51,901538
-3,-2,-3,-7,-9,-4,-1,-4,2021-08-07 12:07:51,901538
2,3,5,7,5,1,0,1,2021-08-07 12:07:51,902540
-2,-3,-3,-3,-6,-5,-2,1,2021-08-07 12:07:51,902540
-1,-2,-1,-3,-4,-4,-2,-1,2021-08-07 12:07:51,917540
-1,-2,-3,1,1,0,-2,-2,2021-08-07 12:07:51,917540
5,5,7,11,8,6,5,3,2021-08-07 12:07:51,917540
-1,0,-4,-6,-8,-2,-1,-1,2021-08-07 12:07:51,917540
-6,-7,-11,-23,-20,-10,-6,-3,2021-08-07 12:07:51,917540
2,3,2,13,13,7,2,0,2021-08-07 12:07:51,917540
2,1,3,9,12,6,3,0,2021-08-07 12:07:51,949539
0,-2,-2,-2,-1,-1,1,0,2021-08-07 12:07:51,951539
-1,-1,-4,-8,-10,-5,-4,0,2021-08-07 12:07:51,952538
-4,-6,-12,-26,-28,-14,-7,-5,2021-08-07 12:07:51,952538
1,-1,6,19,22,11,3,1,2021-08-07 12:07:51,952538
-1,-1,1,3,3,0,0,1,2021-08-07 12:07:51,952538
-2,0,-1,1,-1,1,-1,-2,2021-08-07 12:07:51,965539
0,1,-3,-5,-7,-5,-3,1,2021-08-07 12:07:51,965539
-4,-3,-5,-10,-12,-7,-2,-1,2021-08-07 12:07:51,981539
0,0,-1,-6,-2,1,-2,-3,2021-08-07 12:07:51,981539
0,0,4,13,14,6,3,3,2021-08-07 12:07:51,997538
1,3,3,1,1,1,1,0,2021-08-07 12:07:52,013537
-3,-3,-4,-3,-4,-4,-2,-2,2021-08-07 12:07:52,029539
-3,-1,-1,-3,-6,-5,-3,-2,2021-08-07 12:07:52,029539
2,1,0,-5,-5,-1,-1,-2,2021-08-07 12:07:52,045540
-1,-2,-1,1,2,1,0,-2,2021-08-07 12:07:52,045540
0,0,-2,-6,-5,-2,0,1,2021-08-07 12:07:52,045540
-4,-4,-6,-4,-2,-4,-3,-2,2021-08-07 12:07:52,045540
-2,-2,1,3,-2,-1,-1,1,2021-08-07 12:07:52,045540
2,2,7,19,20,8,4,2,2021-08-07 12:07:52,046538
1,5,3,1,-2,0,0,-1,2021-08-07 12:07:52,046538
-2,-4,-4,-6,-7,-4,-3,-1,2021-08-07 12:07:52,046538
-1,0,-1,-2,0,-1,1,0,2021-08-07 12:07:52,046538
-4,-6,-5,-10,-8,-4,-3,-2,2021-08-07 12:07:52,046538
-4,-5,-5,-3,-5,-4,-2,0,2021-08-07 12:07:52,077538
3,5,5,6,6,3,2,2,2021-08-07 12:07:52,077538
-4,-2,-4,-6,-7,-5,-4,-4,2021-08-07 12:07:52,077538
-2,-1,-3,-4,-7,-3,-2,-2,2021-08-07 12:07:52,092538
-5,-7,-7,-9,-8,-5,-5,-4,2021-08-07 12:07:52,107537
3,2,2,0,1,2,1,0,2021-08-07 12:07:52,107537
4,2,4,9,14,7,4,4,2021-08-07 12:07:52,107537
1,3,4,8,4,1,3,1,2021-08-07 12:07:52,107537
-3,-2,-1,-1,-3,-2,-2,0,2021-08-07 12:07:52,107537
-5,-5,-6,-2,-5,-3,-3,-4,2021-08-07 12:07:52,107537
-3,-3,-3,-5,-7,-4,-2,-2,2021-08-07 12:07:52,107537
1,1,1,2,3,3,0,0,2021-08-07 12:07:52,108538
-2,-3,-3,-10,-8,-3,-2,-2,2021-08-07 12:07:52,123538
-2,-2,0,2,1,-2,-1,-2,2021-08-07 12:07:52,123538
-4,-4,-3,-6,-4,-4,-2,-3,2021-08-07 12:07:52,123538
1,0,4,10,10,4,1,1,2021-08-07 12:07:52,123538
1,3,1,6,1,1,1,0,2021-08-07 12:07:52,139539
-3,-1,0,0,1,0,0,0,2021-08-07 12:07:52,155538
-1,0,-2,-3,-4,-2,-3,-2,2021-08-07 12:07:52,170538
-4,-6,-6,-14,-13,-9,-7,-3,2021-08-07 12:07:52,170538
0,0,2,1,1,1,0,0,2021-08-07 12:07:52,170538
0,2,3,2,-2,-1,-1,1,2021-08-07 12:07:52,171539
-2,-2,-2,-1,2,0,-1,-1,2021-08-07 12:07:52,171539
0,1,6,17,10,4,3,1,2021-08-07 12:07:52,171539
0,0,-1,-1,3,2,1,-1,2021-08-07 12:07:52,185539
-2,-2,-3,-1,0,0,-1,-1,2021-08-07 12:07:52,201539
0,1,0,0,6,5,2,1,2021-08-07 12:07:52,201539
-2,-1,-2,-8,-5,-3,-2,-2,2021-08-07 12:07:52,217537
-2,-3,-1,-3,-5,-4,-1,-1,2021-08-07 12:07:52,217537
-1,-1,-4,-8,-8,-5,-2,0,2021-08-07 12:07:52,217537
2,2,1,5,1,-1,-1,1,2021-08-07 12:07:52,233537
2,-2,-2,-4,-1,-1,0,0,2021-08-07 12:07:52,248537
-6,-7,-3,-2,-2,-6,-4,-5,2021-08-07 12:07:52,264539
-3,-4,-8,-14,-8,-5,-5,-3,2021-08-07 12:07:52,280537
0,-2,2,5,3,1,0,-1,2021-08-07 12:07:52,296538
2,5,6,6,3,5,2,3,2021-08-07 12:07:52,312538
-1,0,-1,0,-3,-3,0,-1,2021-08-07 12:07:52,312538
2,3,5,14,13,7,4,2,2021-08-07 12:07:52,312538
-4,-5,-6,-8,-8,-5,-4,-4,2021-08-07 12:07:52,312538
-2,-2,-5,-9,-8,-3,-1,-2,2021-08-07 12:07:52,312538
0,-1,-2,0,1,1,0,-3,2021-08-07 12:07:52,313538
-2,-3,-3,1,-2,-1,-1,-2,2021-08-07 12:07:52,313538
3,2,1,-6,-8,-2,2,3,2021-08-07 12:07:52,313538
-1,-1,-2,-6,-8,-6,-4,-3,2021-08-07 12:07:52,313538
2,3,3,4,10,3,-2,-2,2021-08-07 12:07:52,313538
-3,-3,-2,1,-1,-3,-1,-4,2021-08-07 12:07:52,313538
-3,-2,-1,3,0,-1,-3,-3,2021-08-07 12:07:52,313538
-2,-3,-6,-8,-2,-1,1,1,2021-08-07 12:07:52,314538
0,-1,1,-2,-7,-1,0,4,2021-08-07 12:07:52,314538
-2,-2,-4,-12,-8,-4,-3,-3,2021-08-07 12:07:52,314538
-1,-1,1,2,1,-1,-2,-3,2021-08-07 12:07:52,314538
-1,-1,-1,-2,-5,-3,0,0,2021-08-07 12:07:52,314538
-1,0,-1,0,-1,-2,-1,1,2021-08-07 12:07:52,314538
3,3,2,-2,1,3,2,2,2021-08-07 12:07:52,314538
-1,-1,1,5,10,4,1,1,2021-08-07 12:07:52,328541
-3,-3,-2,2,4,0,-3,-3,2021-08-07 12:07:52,344538
0,0,1,3,1,-2,-4,-2,2021-08-07 12:07:52,360539
-2,-3,-3,-6,-8,-8,-2,-3,2021-08-07 12:07:52,360539
-3,-4,-6,-13,-6,-3,-1,-2,2021-08-07 12:07:52,360539
1,1,0,1,4,4,3,1,2021-08-07 12:07:52,360539
7,6,8,11,7,4,5,4,2021-08-07 12:07:52,360539
-3,-2,-2,-2,-1,-2,-2,-1,2021-08-07 12:07:52,360539
0,0,-3,-4,-1,-1,-1,-1,2021-08-07 12:07:52,360539
-4,-3,-3,-7,-9,-5,-5,-2,2021-08-07 12:07:52,360539
-3,-2,-4,-8,-4,-3,-4,-2,2021-08-07 12:07:52,376538
-2,-1,1,5,4,1,-1,-2,2021-08-07 12:07:52,376538
1,3,7,16,9,3,2,-1,2021-08-07 12:07:52,408538
0,0,1,0,-4,-2,1,0,2021-08-07 12:07:52,408538
-1,1,-3,1,-3,-1,-1,0,2021-08-07 12:07:52,408538
-2,-3,-4,-4,2,0,0,-1,2021-08-07 12:07:52,408538
-1,1,1,2,3,3,2,1,2021-08-07 12:07:52,414538
-5,-4,-10,-13,-10,-7,-6,-4,2021-08-07 12:07:52,414538
5,6,9,16,15,9,4,4,2021-08-07 12:07:52,414538
-2,-1,-2,-7,-8,-5,-3,-1,2021-08-07 12:07:52,415539
-1,-1,1,4,-3,-2,-3,0,2021-08-07 12:07:52,424539
1,0,1,-3,-1,-1,-2,0,2021-08-07 12:07:52,424539
-5,-6,-7,-7,-4,-3,-2,-3,2021-08-07 12:07:52,440538
0,2,4,8,8,4,0,0,2021-08-07 12:07:52,456538
0,0,-3,-5,-4,-4,-2,-1,2021-08-07 12:07:52,472536
-2,-3,-4,-17,-21,-12,-6,-4,2021-08-07 12:07:52,472536
-2,-5,-5,-6,-5,0,-3,-2,2021-08-07 12:07:52,472536
3,5,12,25,26,13,6,3,2021-08-07 12:07:52,472536
-1,1,5,15,6,1,-1,0,2021-08-07 12:07:52,472536
-1,-2,-2,1,0,0,1,-1,2021-08-07 12:07:52,473538
1,2,1,-3,-5,-2,-1,-1,2021-08-07 12:07:52,488538
0,-3,-4,-8,-7,-3,-3,-2,2021-08-07 12:07:52,488538
-3,-5,-5,-10,-8,-6,-4,-3,2021-08-07 12:07:52,488538
1,0,2,6,7,2,2,0,2021-08-07 12:07:52,488538
-3,-2,-3,-5,-4,-3,-1,-1,2021-08-07 12:07:52,488538
0,2,1,7,5,2,1,2,2021-08-07 12:07:52,488538
-1,-1,-2,-9,-9,-3,-1,0,2021-08-07 12:07:52,504536
1,0,0,4,2,2,0,-1,2021-08-07 12:07:52,504536
-4,-4,-6,-11,-7,-4,-2,-2,2021-08-07 12:07:52,520539
-3,-3,-5,-7,-9,-5,-3,-3,2021-08-07 12:07:52,536539
-1,0,-1,4,4,-1,-2,-1,2021-08-07 12:07:52,536539
1,1,0,1,2,1,0,-1,2021-08-07 12:07:52,536539
3,4,6,5,7,5,4,4,2021-08-07 12:07:52,536539
-3,-4,-5,-6,-9,-8,-5,-1,2021-08-07 12:07:52,536539
-5,-6,-7,-11,-10,-7,-5,-4,2021-08-07 12:07:52,537538
2,2,4,8,16,8,2,4,2021-08-07 12:07:52,537538
0,0,-1,2,3,0,0,-2,2021-08-07 12:07:52,552538
-1,-2,-3,-6,-8,-3,-2,-3,2021-08-07 12:07:52,552538
-1,-4,-1,-2,-2,-3,-2,-1,2021-08-07 12:07:52,568538
-5,-5,-5,-7,-6,-3,-3,-4,2021-08-07 12:07:52,584538
0,0,0,2,0,1,-2,-1,2021-08-07 12:07:52,584538
4,3,4,10,16,7,3,3,2021-08-07 12:07:52,600537
-3,-1,-6,-13,-10,-4,-2,-3,2021-08-07 12:07:52,600537
1,2,4,9,6,3,2,2,2021-08-07 12:07:52,600537
-2,-2,-6,-11,-14,-6,-4,-1,2021-08-07 12:07:52,600537
-3,0,3,9,5,1,-2,-1,2021-08-07 12:07:52,600537
-2,0,-4,-6,-7,-2,-1,-2,2021-08-07 12:07:52,600537
-1,-1,-1,-4,1,0,-1,0,2021-08-07 12:07:52,600537
-2,-2,-1,6,5,-1,0,-1,2021-08-07 12:07:52,616539
-3,-5,-4,-5,-6,-3,-2,-3,2021-08-07 12:07:52,616539
2,2,2,2,1,0,0,1,2021-08-07 12:07:52,632539
1,2,1,-1,-2,0,1,-2,2021-08-07 12:07:52,632539
0,-1,-1,-4,-1,-2,-2,-2,2021-08-07 12:07:52,632539
0,-3,-2,-1,-2,-1,-1,-2,2021-08-07 12:07:52,632539
0,0,-2,-3,-1,2,1,0,2021-08-07 12:07:52,648539
-2,-2,-1,0,2,2,-3,-1,2021-08-07 12:07:52,648539
3,1,2,6,1,0,0,0,2021-08-07 12:07:52,663537
-2,-1,-2,-3,-1,-1,-1,-1,2021-08-07 12:07:52,678541
0,-2,-3,-3,-4,-3,-3,-2,2021-08-07 12:07:52,694539
-3,-3,-3,-2,-1,-2,-2,-2,2021-08-07 12:07:52,694539
0,-2,1,9,8,3,1,0,2021-08-07 12:07:52,694539
2,3,0,-4,-8,-2,0,2,2021-08-07 12:07:52,694539
-1,-3,-2,0,-2,-1,-2,-3,2021-08-07 12:07:52,694539
1,1,-4,-6,-11,-5,-2,1,2021-08-07 12:07:52,695542
0,1,7,10,8,3,2,1,2021-08-07 12:07:52,695542
-1,-1,0,-6,-2,0,-1,0,2021-08-07 12:07:52,695542
-2,-2,0,4,2,0,0,0,2021-08-07 12:07:52,695542
-3,-2,-2,1,-2,-1,-2,-2,2021-08-07 12:07:52,695542
-4,-3,-5,-11,-9,-5,-2,-1,2021-08-07 12:07:52,725539
-3,-3,-5,-9,-10,-6,-4,-4,2021-08-07 12:07:52,741538
3,2,5,6,11,6,4,3,2021-08-07 12:07:52,757537
1,0,3,7,2,-1,1,1,2021-08-07 12:07:52,757537
-4,-3,-4,-2,0,0,0,-4,2021-08-07 12:07:52,773538
1,2,3,10,7,3,0,0,2021-08-07 12:07:52,773538
-2,-3,-6,-6,-5,-4,-3,-1,2021-08-07 12:07:52,789539
1,1,3,4,3,2,1,2,2021-08-07 12:07:52,805536
2,2,6,3,5,4,1,1,2021-08-07 12:07:52,821537
-3,-3,-4,-3,-4,-3,-3,-2,2021-08-07 12:07:52,837538
-2,0,-3,-3,-6,-3,-3,-1,2021-08-07 12:07:52,852539
-1,0,1,-2,0,0,-1,-2,2021-08-07 12:07:52,852539
-1,-5,-5,-6,-8,-5,-4,-2,2021-08-07 12:07:52,852539
0,-4,-2,-2,0,0,-1,3,2021-08-07 12:07:52,852539
3,1,0,0,8,4,4,2,2021-08-07 12:07:52,852539
-1,-1,-1,4,6,2,0,-1,2021-08-07 12:07:52,852539
-4,-4,-9,-15,-8,-5,-3,-1,2021-08-07 12:07:52,852539
-3,0,4,12,10,3,2,-2,2021-08-07 12:07:52,853539
-4,-3,-2,-1,-7,-4,-3,-5,2021-08-07 12:07:52,853539
-2,-1,-4,-9,-7,-4,-3,-2,2021-08-07 12:07:52,853539
1,1,7,11,7,2,1,-1,2021-08-07 12:07:52,853539
0,-1,-2,-5,-5,-5,-3,-2,2021-08-07 12:07:52,853539
1,0,4,0,-4,-3,-1,1,2021-08-07 12:07:52,854539
-2,-4,-6,-8,-9,-5,-2,-3,2021-08-07 12:07:52,854539
1,1,-1,-2,0,0,0,1,2021-08-07 12:07:52,854539
0,-1,-2,-1,2,1,1,-1,2021-08-07 12:07:52,854539
0,3,2,4,1,0,-1,1,2021-08-07 12:07:52,854539
1,0,1,2,-1,1,0,-1,2021-08-07 12:07:52,854539
-1,0,-3,-2,5,2,0,-1,2021-08-07 12:07:52,868539
0,-1,0,-2,1,0,-1,-2,2021-08-07 12:07:52,868539
-3,-6,-8,-7,-5,-4,-3,-4,2021-08-07 12:07:52,868539
0,0,-3,-7,-9,-5,-3,0,2021-08-07 12:07:52,868539
1,1,1,0,5,3,-1,2,2021-08-07 12:07:52,878538
2,3,3,0,-3,-2,-1,0,2021-08-07 12:07:52,878538
-1,-1,0,-1,-3,-1,1,1,2021-08-07 12:07:52,879538
-1,-2,0,3,8,5,1,0,2021-08-07 12:07:52,879538
-1,0,0,-3,-15,-7,-3,0,2021-08-07 12:07:52,900540
-3,-3,-3,-4,-2,0,-1,-1,2021-08-07 12:07:52,900540
2,3,8,19,14,7,3,2,2021-08-07 12:07:52,900540
-3,-1,-1,-1,-6,-3,-2,-1,2021-08-07 12:07:52,900540
-3,-3,-2,3,3,-1,-1,-2,2021-08-07 12:07:52,932539
0,-2,1,2,3,3,0,0,2021-08-07 12:07:52,948537
-3,-6,-5,-7,-6,-3,-3,-3,2021-08-07 12:07:52,963537
2,-1,1,-4,1,0,-1,0,2021-08-07 12:07:52,979538
2,2,2,4,1,0,-2,0,2021-08-07 12:07:52,979538
-1,1,-2,-7,-6,-5,-3,-1,2021-08-07 12:07:52,979538
-2,-3,-3,-3,2,-1,0,-2,2021-08-07 12:07:52,979538
-4,-3,-3,-2,0,-1,1,-1,2021-08-07 12:07:52,979538
2,2,1,2,-1,1,0,1,2021-08-07 12:07:52,979538
-1,-2,-4,-3,-4,-3,-3,-1,2021-08-07 12:07:53,011539
0,1,-2,-3,-2,0,-1,1,2021-08-07 12:07:53,011539
2,2,4,8,4,2,1,2,2021-08-07 12:07:53,011539
-5,-8,-11,-17,-12,-5,-3,-6,2021-08-07 12:07:53,011539
-3,-2,-2,4,-2,-2,-2,0,2021-08-07 12:07:53,011539
0,0,1,-3,-4,-3,-1,-1,2021-08-07 12:07:53,012539
-1,0,1,7,8,4,2,-1,2021-08-07 12:07:53,012539
-4,-3,-5,-8,-8,-4,-2,-2,2021-08-07 12:07:53,012539
0,-1,-1,7,16,6,3,0,2021-08-07 12:07:53,012539
4,4,5,3,1,4,1,4,2021-08-07 12:07:53,012539
-1,-5,-5,-6,-6,-6,-3,-2,2021-08-07 12:07:53,012539
-2,-1,1,3,0,0,0,1,2021-08-07 12:07:53,027539
-2,-3,-6,-15,-12,-6,-1,-2,2021-08-07 12:07:53,043537
-2,-3,-3,-2,-2,-2,-3,-2,2021-08-07 12:07:53,043537
0,2,1,6,4,3,0,1,2021-08-07 12:07:53,043537
-3,-3,-5,-9,-8,-6,-3,-4,2021-08-07 12:07:53,043537
-2,-4,-2,3,0,1,0,0,2021-08-07 12:07:53,043537
5,8,9,11,10,4,3,4,2021-08-07 12:07:53,043537
0,0,3,10,9,6,2,1,2021-08-07 12:07:53,044540
0,0,2,3,9,3,1,0,2021-08-07 12:07:53,059539
0,1,1,-10,-13,-7,-4,0,2021-08-07 12:07:53,075538
-2,-4,-5,-3,-3,-5,-2,-3,2021-08-07 12:07:53,091537
-1,-1,1,2,2,3,1,2,2021-08-07 12:07:53,091537
-1,-3,1,4,1,1,-1,-2,2021-08-07 12:07:53,091537
-2,-1,-2,2,9,2,2,-1,2021-08-07 12:07:53,091537
0,1,1,-1,-4,0,1,1,2021-08-07 12:07:53,091537
-3,-3,-3,-2,-4,-1,-2,-1,2021-08-07 12:07:53,092539
-2,-1,-3,-7,-7,-2,-4,-3,2021-08-07 12:07:53,106538
2,3,3,1,-1,-2,1,1,2021-08-07 12:07:53,106538
-1,-3,-2,-1,1,-1,-3,-1,2021-08-07 12:07:53,121538
0,1,1,0,1,-2,-1,0,2021-08-07 12:07:53,136541
-4,-7,-9,-15,-12,-8,-5,-3,2021-08-07 12:07:53,151537
4,2,4,10,1,3,3,0,2021-08-07 12:07:53,151537
0,1,2,3,1,0,1,0,2021-08-07 12:07:53,151537
0,-2,-4,-5,-4,-3,-1,-1,2021-08-07 12:07:53,151537
-3,-2,1,5,1,-1,-1,-1,2021-08-07 12:07:53,167537
3,5,3,4,5,2,1,2,2021-08-07 12:07:53,167537
-2,-2,-2,-1,-1,0,0,-1,2021-08-07 12:07:53,167537
-1,-2,-3,-7,-7,-4,-3,-3,2021-08-07 12:07:53,167537
-2,-3,-1,2,2,0,0,-1,2021-08-07 12:07:53,167537
-6,-6,-7,-8,-7,-4,-2,-3,2021-08-07 12:07:53,167537
-1,-1,-1,6,9,3,1,1,2021-08-07 12:07:53,168539
1,3,-2,-5,-7,-4,0,-1,2021-08-07 12:07:53,168539
0,0,-1,-1,2,0,-2,0,2021-08-07 12:07:53,183539
-2,-3,-4,-7,-8,-4,-3,-1,2021-08-07 12:07:53,199541
-2,-2,-6,-12,-8,-4,-2,-1,2021-08-07 12:07:53,231538
2,0,-2,-4,6,3,1,1,2021-08-07 12:07:53,247537
0,-1,1,4,-2,0,0,-1,2021-08-07 12:07:53,263538
-2,-2,-3,-5,-7,-5,-3,-3,2021-08-07 12:07:53,279539
-5,-6,-5,-4,-2,-1,-1,-3,2021-08-07 12:07:53,279539
2,3,3,3,9,2,3,1,2021-08-07 12:07:53,279539
5,6,4,7,4,4,3,5,2021-08-07 12:07:53,279539
1,2,0,0,0,-2,-1,0,2021-08-07 12:07:53,294539
-2,-2,-4,-4,-7,-2,-3,-4,2021-08-07 12:07:53,310538
-2,-1,0,2,-4,-3,-1,0,2021-08-07 12:07:53,326537
-7,-8,-8,-8,-10,-5,-5,-5,2021-08-07 12:07:53,342539
0,-2,-6,-12,-9,-4,-3,-1,2021-08-07 12:07:53,342539
1,1,7,20,10,5,1,2,2021-08-07 12:07:53,342539
2,2,2,6,7,5,0,2,2021-08-07 12:07:53,342539
-1,0,-1,3,-1,1,-1,-2,2021-08-07 12:07:53,342539
-4,-5,-6,-8,-3,-3,-3,-3,2021-08-07 12:07:53,342539
-2,-3,-4,-7,-8,-3,-2,-1,2021-08-07 12:07:53,342539
4,3,8,19,14,7,3,1,2021-08-07 12:07:53,342539
1,4,0,-1,-5,-4,1,1,2021-08-07 12:07:53,342539
-1,0,2,1,3,5,-1,0,2021-08-07 12:07:53,343541
-5,-4,-6,-1,-1,-3,-2,-4,2021-08-07 12:07:53,343541
-4,-4,-6,-9,-7,-3,-3,-4,2021-08-07 12:07:53,343541
6,6,7,10,11,6,4,5,2021-08-07 12:07:53,343541
-5,-6,-5,-2,-6,-2,-2,-2,2021-08-07 12:07:53,343541
0,-1,-2,-9,-8,-3,-3,-2,2021-08-07 12:07:53,343541
-3,-2,-3,4,0,1,-1,-1,2021-08-07 12:07:53,343541
-1,-1,0,-1,3,1,-1,-1,2021-08-07 12:07:53,344541
-2,-4,-5,-8,-9,-2,-4,-1,2021-08-07 12:07:53,344541
0,-1,-2,0,6,0,0,-1,2021-08-07 12:07:53,344541
-2,-4,-5,-6,-7,-4,-2,-3,2021-08-07 12:07:53,345538
4,3,7,10,11,5,3,4,2021-08-07 12:07:53,345538
4,6,13,25,14,7,5,5,2021-08-07 12:07:53,345538
1,-2,-3,-13,-9,-3,-2,-2,2021-08-07 12:07:53,345538
-3,-2,-1,-2,1,-2,-2,-1,2021-08-07 12:07:53,345538
-4,-6,-3,-1,1,-2,-3,-4,2021-08-07 12:07:53,358538
-2,-1,-3,-7,1,-1,-1,-2,2021-08-07 12:07:53,358538
-1,1,-4,-3,-6,-3,-1,-1,2021-08-07 12:07:53,374538
0,3,3,-2,-6,-4,0,0,2021-08-07 12:07:53,390538
-2,-4,-10,-19,-23,-11,-5,-3,2021-08-07 12:07:53,405538
3,3,3,5,13,7,3,1,2021-08-07 12:07:53,405538
-1,-1,5,19,18,7,1,-1,2021-08-07 12:07:53,405538
3,1,1,-2,-2,-1,0,2,2021-08-07 12:07:53,405538
0,-3,-3,-1,1,0,0,-1,2021-08-07 12:07:53,405538
-5,-5,-12,-21,-23,-11,-6,-4,2021-08-07 12:07:53,406540
2,4,7,6,2,2,2,1,2021-08-07 12:07:53,406540
1,-1,1,8,8,5,2,0,2021-08-07 12:07:53,437540
2,3,0,-6,-6,-4,0,0,2021-08-07 12:07:53,453537
-2,-3,0,3,3,0,-1,-3,2021-08-07 12:07:53,453537
-2,-4,-6,-13,-11,-6,-3,-2,2021-08-07 12:07:53,453537
-1,-2,-2,-5,-13,-5,-5,-2,2021-08-07 12:07:53,453537
-2,1,3,8,10,5,0,0,2021-08-07 12:07:53,469540
5,6,11,22,30,16,11,6,2021-08-07 12:07:53,485538
3,3,4,7,4,2,2,3,2021-08-07 12:07:53,500537
-4,-6,-9,-16,-20,-12,-6,-5,2021-08-07 12:07:53,516540
-6,-9,-12,-17,-18,-10,-5,-4,2021-08-07 12:07:53,532540
3,4,6,2,-2,-1,-1,-1,2021-08-07 12:07:53,532540
4,3,1,4,8,4,2,3,2021-08-07 12:07:53,532540
-1,-1,0,-2,2,2,0,-1,2021-08-07 12:07:53,532540
-1,1,1,2,7,2,2,0,2021-08-07 12:07:53,532540
-8,-8,-8,-6,-13,-9,-6,-5,2021-08-07 12:07:53,532540
-3,-1,-9,-23,-22,-10,-4,-3,2021-08-07 12:07:53,533539
5,5,9,14,21,12,7,4,2021-08-07 12:07:53,533539
-4,-4,-1,6,3,0,-5,-5,2021-08-07 12:07:53,533539
3,2,2,8,9,4,3,2,2021-08-07 12:07:53,533539
-1,-3,-1,5,3,0,-2,-3,2021-08-07 12:07:53,533539
-5,-5,-8,-17,-17,-11,-7,-3,2021-08-07 12:07:53,533539
-1,3,3,4,6,3,3,1,2021-08-07 12:07:53,533539
-3,-4,-4,-9,-13,-6,-4,-3,2021-08-07 12:07:53,534537
-4,-5,-6,-10,-8,-7,-6,-4,2021-08-07 12:07:53,534537
5,6,15,28,32,17,8,5,2021-08-07 12:07:53,534537
-1,-4,-4,-6,-5,-1,0,-1,2021-08-07 12:07:53,548537
-3,-3,-6,-6,-4,-4,-3,-2,2021-08-07 12:07:53,564539
-1,0,0,-10,-21,-10,-5,0,2021-08-07 12:07:53,564539
-6,-6,-10,-16,-11,-7,-4,-4,2021-08-07 12:07:53,564539
2,3,9,26,44,19,7,5,2021-08-07 12:07:53,564539
-1,-3,-4,-9,-8,-5,-2,-3,2021-08-07 12:07:53,564539
0,1,1,0,2,1,1,1,2021-08-07 12:07:53,564539
-3,-4,-6,-13,-23,-13,-3,-2,2021-08-07 12:07:53,564539
-2,0,0,-4,-14,-4,-2,-2,2021-08-07 12:07:53,580538
-8,-12,-15,-23,-22,-14,-9,-5,2021-08-07 12:07:53,580538
4,6,10,16,30,15,6,5,2021-08-07 12:07:53,580538
2,4,1,-1,2,5,1,1,2021-08-07 12:07:53,580538
-3,-3,-4,-4,-1,-3,-3,-4,2021-08-07 12:07:53,612538
-2,-1,1,-1,-8,-5,-4,-3,2021-08-07 12:07:53,644539
-4,-5,-5,-9,-15,-8,-2,-3,2021-08-07 12:07:53,644539
2,0,1,4,6,2,-1,0,2021-08-07 12:07:53,659538
-1,-4,-5,-8,-12,-8,-4,-4,2021-08-07 12:07:53,675538
-1,2,1,-11,-11,-5,-2,-1,2021-08-07 12:07:53,675538
1,2,11,32,32,15,7,2,2021-08-07 12:07:53,675538
-2,-2,-3,-5,-2,0,-1,-1,2021-08-07 12:07:53,675538
0,1,1,-3,-6,-4,-2,-1,2021-08-07 12:07:53,675538
-2,2,3,2,-6,-2,-2,-1,2021-08-07 12:07:53,676538
0,-3,-7,-10,3,2,2,1,2021-08-07 12:07:53,676538
-4,-7,-7,3,-3,-6,-3,-2,2021-08-07 12:07:53,676538
-6,-6,-8,-15,-16,-9,-6,-4,2021-08-07 12:07:53,676538
1,2,1,0,0,1,2,1,2021-08-07 12:07:53,676538
2,2,4,0,-3,0,-1,-1,2021-08-07 12:07:53,676538
-4,-4,-5,-5,-5,-4,-2,-2,2021-08-07 12:07:53,676538
4,6,5,8,16,10,4,1,2021-08-07 12:07:53,691541
1,0,5,13,15,7,2,0,2021-08-07 12:07:53,691541
0,0,0,-7,-9,-5,-2,-3,2021-08-07 12:07:53,691541
-3,-2,-5,-10,-13,-9,-5,-3,2021-08-07 12:07:53,691541
-3,-6,-6,-14,-20,-11,-6,-4,2021-08-07 12:07:53,707538
5,5,11,27,27,13,7,3,2021-08-07 12:07:53,723538
-2,-3,-7,-5,-1,-1,-1,0,2021-08-07 12:07:53,739538
-3,-3,-4,-9,-11,-4,-3,-2,2021-08-07 12:07:53,739538
-1,-1,-5,-5,-12,-5,-3,1,2021-08-07 12:07:53,739538
0,0,-1,0,8,4,2,-1,2021-08-07 12:07:53,739538
-3,0,7,14,6,3,-1,-3,2021-08-07 12:07:53,739538
-2,3,6,14,13,5,0,-3,2021-08-07 12:07:53,739538
-2,0,4,-1,-5,-2,-1,-1,2021-08-07 12:07:53,739538
-1,-1,-4,-7,-6,-7,-3,0,2021-08-07 12:07:53,740539
3,1,-6,-13,-17,-6,-2,1,2021-08-07 12:07:53,740539
5,4,5,7,17,7,4,3,2021-08-07 12:07:53,740539
1,0,1,5,4,1,1,0,2021-08-07 12:07:53,771539
-7,-9,-9,-11,-8,-5,-4,-3,2021-08-07 12:07:53,771539
-2,0,6,11,10,5,1,0,2021-08-07 12:07:53,771539
4,5,4,-1,-7,-2,0,2,2021-08-07 12:07:53,787539
-2,-3,-10,-10,-9,-3,0,-2,2021-08-07 12:07:53,787539
-2,-4,-15,-13,-5,-2,-3,-3,2021-08-07 12:07:53,787539
0,0,7,12,21,6,2,-1,2021-08-07 12:07:53,787539
-1,1,13,5,-3,-1,-1,-1,2021-08-07 12:07:53,787539
0,-3,-6,7,3,2,1,0,2021-08-07 12:07:53,802537
-2,-2,-10,-17,-17,-9,-5,-4,2021-08-07 12:07:53,802537
-4,-5,-13,-29,-23,-11,-6,-2,2021-08-07 12:07:53,802537
1,-2,-5,-2,6,4,1,-1,2021-08-07 12:07:53,802537
1,3,12,9,3,-4,-4,-1,2021-08-07 12:07:53,834539
-1,0,8,13,5,2,1,-2,2021-08-07 12:07:53,850538
0,-1,-1,7,12,0,-1,1,2021-08-07 12:07:53,850538
0,1,-5,-8,-4,0,0,1,2021-08-07 12:07:53,850538
1,2,2,7,8,4,3,1,2021-08-07 12:07:53,850538
0,-2,-2,-2,-3,-1,1,-1,2021-08-07 12:07:53,850538
-3,-1,-2,-14,-13,-7,-3,-2,2021-08-07 12:07:53,851538
-4,-3,6,13,0,-1,0,-2,2021-08-07 12:07:53,851538
5,2,1,6,13,9,4,3,2021-08-07 12:07:53,866538
3,4,-4,1,8,4,1,0,2021-08-07 12:07:53,866538
-6,-7,-11,-24,-33,-14,-6,-4,2021-08-07 12:07:53,866538
7,12,20,35,38,18,9,8,2021-08-07 12:07:53,882538
0,3,7,10,8,5,1,1,2021-08-07 12:07:53,882538
-5,-7,-4,-13,-5,-4,-4,-2,2021-08-07 12:07:53,882538
-5,-7,-18,-24,-20,-11,-6,-4,2021-08-07 12:07:53,882538
-3,-2,-3,5,-3,-2,-2,-1,2021-08-07 12:07:53,882538
-1,-1,-5,-10,-11,-5,-2,0,2021-08-07 12:07:53,913539
-4,-5,-8,-20,-10,-2,-3,-2,2021-08-07 12:07:53,929538
-1,-1,-4,14,17,8,2,0,2021-08-07 12:07:53,945539
1,0,-2,2,5,0,0,0,2021-08-07 12:07:53,961539
-1,0,4,4,7,3,0,-1,2021-08-07 12:07:53,977538
3,4,5,4,-13,-6,-1,1,2021-08-07 12:07:53,977538
0,2,5,8,7,3,2,2,2021-08-07 12:07:53,977538
-6,-10,-12,-18,-16,-10,-6,-6,2021-08-07 12:07:53,977538
-3,-3,-6,-5,-2,-2,-3,-3,2021-08-07 12:07:53,978539
8,10,12,10,9,5,2,6,2021-08-07 12:07:53,978539
2,-3,5,13,8,2,2,-1,2021-08-07 12:07:53,978539
0,0,-5,-10,-8,-3,0,0,2021-08-07 12:07:53,978539
-7,-7,-11,-8,-2,-4,-2,-5,2021-08-07 12:07:53,978539
0,2,6,12,17,10,4,1,2021-08-07 12:07:53,978539
3,5,7,13,8,4,1,1,2021-08-07 12:07:53,978539
-5,-7,-9,-19,-25,-12,-7,-4,2021-08-07 12:07:53,978539
-3,-5,-8,-15,-8,-2,-4,-3,2021-08-07 12:07:53,979540
-9,-12,-25,-27,-15,-9,-7,-7,2021-08-07 12:07:53,993536
2,2,5,14,17,7,3,2,2021-08-07 12:07:53,993536
-1,-3,0,1,13,5,3,-1,2021-08-07 12:07:53,993536
1,3,10,10,6,1,1,3,2021-08-07 12:07:54,009538
-1,1,3,0,-9,-6,-2,-1,2021-08-07 12:07:54,025537
-1,-2,5,20,17,9,4,-2,2021-08-07 12:07:54,025537
4,7,-3,-15,-13,-4,-1,3,2021-08-07 12:07:54,025537
1,4,4,4,1,-1,-1,0,2021-08-07 12:07:54,041538
2,6,7,12,8,6,3,2,2021-08-07 12:07:54,041538
-4,-7,-13,-23,-20,-11,-7,-4,2021-08-07 12:07:54,057538
-9,-11,-14,-19,-9,-7,-6,-8,2021-08-07 12:07:54,089537
-5,-9,-12,-18,-21,-11,-6,-3,2021-08-07 12:07:54,089537
4,6,11,21,20,11,6,5,2021-08-07 12:07:54,089537
3,7,6,8,6,6,4,4,2021-08-07 12:07:54,089537
1,2,6,12,10,4,3,0,2021-08-07 12:07:54,089537
-2,-4,-7,-22,-23,-12,-5,-4,2021-08-07 12:07:54,089537
-3,0,12,19,9,2,-1,-3,2021-08-07 12:07:54,090538
3,5,2,-15,-12,-5,-1,1,2021-08-07 12:07:54,090538
4,7,15,48,52,25,10,4,2021-08-07 12:07:54,090538
-7,-10,-29,-26,-12,-10,-3,-3,2021-08-07 12:07:54,090538
1,-2,-2,-6,-9,-2,-1,0,2021-08-07 12:07:54,090538
0,4,13,8,-7,-5,-2,0,2021-08-07 12:07:54,090538
4,8,17,19,13,5,1,2,2021-08-07 12:07:54,091539
8,10,13,17,11,9,6,2,2021-08-07 12:07:54,104537
-14,-23,-51,-68,-35,-19,-13,-13,2021-08-07 12:07:54,104537
-8,-12,-25,-29,-21,-11,-7,-5,2021-08-07 12:07:54,104537
-5,-7,-4,-9,-13,-8,-5,-4,2021-08-07 12:07:54,104537
3,4,17,25,11,5,3,3,2021-08-07 12:07:54,152538
7,9,16,30,22,9,8,5,2021-08-07 12:07:54,152538
2,1,7,7,6,5,2,-1,2021-08-07 12:07:54,152538
-1,1,-7,-17,-17,-8,-2,-3,2021-08-07 12:07:54,152538
0,0,4,10,6,2,2,0,2021-08-07 12:07:54,168538
1,0,5,5,0,-1,1,1,2021-08-07 12:07:54,184538
1,1,-1,4,13,7,3,2,2021-08-07 12:07:54,200538
-3,-7,-14,-19,-12,-7,-4,-4,2021-08-07 12:07:54,200538
-2,-4,-5,-23,-18,-9,-5,0,2021-08-07 12:07:54,200538
2,0,11,22,23,8,3,2,2021-08-07 12:07:54,200538
4,6,16,28,23,10,3,4,2021-08-07 12:07:54,201539
-5,-3,-8,-16,-18,-8,-5,-4,2021-08-07 12:07:54,201539
-3,-1,-14,-17,-11,-5,-2,-3,2021-08-07 12:07:54,216539
-5,-5,-6,-17,-25,-13,-6,-5,2021-08-07 12:07:54,232537
-2,0,-5,-3,-4,-1,-1,-1,2021-08-07 12:07:54,247537
2,-1,4,21,21,9,3,2,2021-08-07 12:07:54,247537
0,-1,8,17,25,8,4,0,2021-08-07 12:07:54,247537
-2,1,-2,2,-5,-3,-1,1,2021-08-07 12:07:54,263537
-3,-4,-8,-18,-20,-11,-5,-4,2021-08-07 12:07:54,263537
-1,1,-8,-27,-27,-11,-3,-2,2021-08-07 12:07:54,263537
5,6,16,32,25,12,5,3,2021-08-07 12:07:54,263537
2,2,10,16,11,8,1,-1,2021-08-07 12:07:54,263537
2,1,0,2,6,2,-1,1,2021-08-07 12:07:54,263537
-6,-12,-23,-27,-15,-10,-6,-4,2021-08-07 12:07:54,263537
-4,-8,-23,-28,-19,-11,-5,-2,2021-08-07 12:07:54,264537
-2,0,0,-8,-14,-7,-3,-2,2021-08-07 12:07:54,264537
-1,2,7,13,8,1,0,1,2021-08-07 12:07:54,264537
6,8,19,35,27,15,7,3,2021-08-07 12:07:54,264537
-3,-2,-2,-8,-13,-5,-3,-4,2021-08-07 12:07:54,264537
-5,-9,-7,-10,-4,-1,-3,-2,2021-08-07 12:07:54,264537
5,8,7,9,4,4,4,3,2021-08-07 12:07:54,264537
-2,-3,-7,-13,-15,-9,-4,-2,2021-08-07 12:07:54,264537
-1,-1,-1,-12,-10,-5,-2,-3,2021-08-07 12:07:54,278539
6,6,11,30,23,11,5,4,2021-08-07 12:07:54,278539
-5,-9,-15,-19,-2,-4,-4,-3,2021-08-07 12:07:54,278539
-9,-9,-14,-23,-15,-8,-6,-3,2021-08-07 12:07:54,278539
5,8,20,38,28,14,6,3,2021-08-07 12:07:54,310540
3,4,1,0,2,1,1,2,2021-08-07 12:07:54,310540
-1,2,1,0,-3,0,1,-2,2021-08-07 12:07:54,310540
-4,-4,-1,-2,-15,-9,-8,-5,2021-08-07 12:07:54,310540
-3,-2,-6,-13,-9,-6,-3,-1,2021-08-07 12:07:54,341538
2,6,0,6,12,8,4,4,2021-08-07 12:07:54,341538
1,-1,2,16,20,8,3,1,2021-08-07 12:07:54,341538
-3,-4,-1,-2,-10,-6,-3,-1,2021-08-07 12:07:54,341538
-4,-4,4,-6,-8,-4,-3,-2,2021-08-07 12:07:54,342193
-1,1,7,13,5,0,0,0,2021-08-07 12:07:54,342193
-1,-4,-12,-15,-12,-3,-4,0,2021-08-07 12:07:54,342539
1,-1,-19,-6,6,6,2,1,2021-08-07 12:07:54,342539
-6,-7,-14,-30,-18,-12,-7,-4,2021-08-07 12:07:54,373571
1,1,-2,-14,-16,-7,-1,0,2021-08-07 12:07:54,373571
2,5,25,44,34,14,5,1,2021-08-07 12:07:54,373571
1,2,12,14,6,2,2,2,2021-08-07 12:07:54,373571
0,-2,-6,-2,-6,-3,-1,-2,2021-08-07 12:07:54,389570
-8,-11,-15,-28,-22,-14,-8,-6,2021-08-07 12:07:54,389570
1,0,-3,8,12,7,4,2,2021-08-07 12:07:54,389570
-1,2,4,6,13,5,2,0,2021-08-07 12:07:54,389570
1,4,11,12,9,3,0,2,2021-08-07 12:07:54,405570
1,-1,5,5,-10,-5,-2,0,2021-08-07 12:07:54,437569
-1,-4,-16,-28,-21,-11,-6,-4,2021-08-07 12:07:54,437569
1,-2,-6,-21,-5,-4,-2,-2,2021-08-07 12:07:54,437569
-6,-11,-22,-18,-10,-5,-5,-3,2021-08-07 12:07:54,437569
2,6,5,17,19,8,5,4,2021-08-07 12:07:54,437569
1,2,6,3,-5,-1,0,1,2021-08-07 12:07:54,437569
-3,-2,2,9,2,0,-2,-3,2021-08-07 12:07:54,437569
-3,-1,5,4,3,2,-1,-3,2021-08-07 12:07:54,453569
2,1,8,12,14,7,2,0,2021-08-07 12:07:54,468568
-6,-6,-15,-23,-25,-13,-5,-2,2021-08-07 12:07:54,468568
1,4,2,-2,0,-1,1,1,2021-08-07 12:07:54,468568
0,1,2,2,-2,-1,-2,0,2021-08-07 12:07:54,468568
-4,-6,-6,-8,2,0,-4,-5,2021-08-07 12:07:54,468568
-3,-2,2,-7,-7,-4,-2,-2,2021-08-07 12:07:54,468568
0,0,0,-5,-13,-9,-3,-1,2021-08-07 12:07:54,469571
-2,-1,-4,1,0,-1,1,1,2021-08-07 12:07:54,484570
5,4,7,16,19,10,6,3,2021-08-07 12:07:54,500570
3,3,-1,3,5,1,0,-1,2021-08-07 12:07:54,515570
-2,-1,6,-2,-6,-3,-3,-3,2021-08-07 12:07:54,530570
2,1,-9,-6,-7,-2,0,0,2021-08-07 12:07:54,546569
-2,-1,-4,-2,-8,-4,-2,-1,2021-08-07 12:07:54,546569
-2,-3,-1,-13,-9,-3,-3,0,2021-08-07 12:07:54,546569
-1,0,6,18,7,3,0,-1,2021-08-07 12:07:54,546569
-1,-2,-2,6,11,7,2,1,2021-08-07 12:07:54,546569
-4,-5,-13,-28,-18,-10,-7,-3,2021-08-07 12:07:54,547570
-3,-1,-2,-4,-7,-6,-3,-2,2021-08-07 12:07:54,547570
-4,-5,-3,-7,-5,-3,-2,-2,2021-08-07 12:07:54,547570
-1,-1,-2,-1,0,0,0,-1,2021-08-07 12:07:54,547570
5,6,5,7,4,3,2,2,2021-08-07 12:07:54,547570
-1,2,2,-6,-8,-3,-3,-1,2021-08-07 12:07:54,547570
-2,-3,-7,-17,-24,-11,-6,-3,2021-08-07 12:07:54,547570
-1,-1,8,17,17,9,1,-1,2021-08-07 12:07:54,578572
4,6,9,29,39,19,9,5,2021-08-07 12:07:54,594571
0,-2,0,2,2,1,1,1,2021-08-07 12:07:54,610571
-1,-4,-9,-10,-13,-3,-1,-2,2021-08-07 12:07:54,626568
-3,-6,-23,-31,-20,-12,-6,-3,2021-08-07 12:07:54,657571
-2,1,9,2,-4,-3,-2,-3,2021-08-07 12:07:54,657571
1,-1,5,16,15,7,3,1,2021-08-07 12:07:54,657571
4,4,1,12,10,4,5,2,2021-08-07 12:07:54,657571
-2,0,-1,-17,-11,-5,-3,-5,2021-08-07 12:07:54,657571
-4,-3,-2,-14,-20,-11,-5,-3,2021-08-07 12:07:54,657571
-2,-4,0,2,6,1,0,-1,2021-08-07 12:07:54,657571
-2,-4,-10,-12,0,2,-2,-2,2021-08-07 12:07:54,657571
3,3,10,22,12,4,1,2,2021-08-07 12:07:54,673569
-4,-3,-9,-9,-12,-6,-3,-2,2021-08-07 12:07:54,689572
-4,-7,1,-6,-11,-5,-3,-3,2021-08-07 12:07:54,689572
1,1,-2,9,11,3,1,1,2021-08-07 12:07:54,689572
8,12,16,19,25,12,7,6,2021-08-07 12:07:54,689572
-1,-2,0,-3,-10,-5,-2,-1,2021-08-07 12:07:54,689572
-3,-3,-6,-21,-34,-16,-7,-3,2021-08-07 12:07:54,689572
2,0,5,18,31,14,5,2,2021-08-07 12:07:54,689572
3,-1,2,23,16,10,8,3,2021-08-07 12:07:54,690570
-6,-11,-25,-32,-18,-8,-2,-4,2021-08-07 12:07:54,690570
-7,-5,-6,-8,-4,-5,-4,-6,2021-08-07 12:07:54,690570
-5,-4,-8,-13,-20,-10,-5,-5,2021-08-07 12:07:54,690570
-5,0,6,2,-5,-3,-5,-5,2021-08-07 12:07:54,705570
3,6,10,6,5,3,0,1,2021-08-07 12:07:54,705570
5,6,0,8,13,5,5,3,2021-08-07 12:07:54,721572
2,2,3,6,-6,-3,-1,-1,2021-08-07 12:07:54,733571
-2,-5,-9,-21,-3,-2,0,-1,2021-08-07 12:07:54,733571
0,-2,1,6,2,2,-1,0,2021-08-07 12:07:54,733571
1,-1,-4,1,3,2,1,1,2021-08-07 12:07:54,733571
-2,1,5,4,5,2,2,-2,2021-08-07 12:07:54,733571
-1,-2,-5,0,-4,-3,0,0,2021-08-07 12:07:54,734570
-2,-1,-4,-4,-3,0,0,0,2021-08-07 12:07:54,734570
1,4,11,21,21,8,2,-1,2021-08-07 12:07:54,734570
2,3,3,-3,-10,-5,-2,0,2021-08-07 12:07:54,734570
-4,-6,-4,-13,-21,-11,-6,-5,2021-08-07 12:07:54,753571
-4,-5,-6,-10,3,-1,-3,-3,2021-08-07 12:07:54,769570
4,6,2,14,19,11,5,4,2021-08-07 12:07:54,769570
-4,-5,-7,-9,-2,-2,-2,-2,2021-08-07 12:07:54,769570
-5,-5,-13,-28,-19,-8,-6,-4,2021-08-07 12:07:54,769570
0,-2,-1,8,-5,-4,0,-1,2021-08-07 12:07:54,769570
-1,-1,5,-4,-6,-5,-1,-2,2021-08-07 12:07:54,770572
1,4,13,9,7,3,1,1,2021-08-07 12:07:54,770572
2,3,4,20,1,2,3,2,2021-08-07 12:07:54,785570
1,-2,-12,-16,3,2,1,0,2021-08-07 12:07:54,801570
-4,-6,-11,-17,-12,-8,-5,-3,2021-08-07 12:07:54,801570
-1,-1,2,-2,0,-2,-2,-2,2021-08-07 12:07:54,801570
-2,0,9,9,1,0,0,0,2021-08-07 12:07:54,801570
-1,1,1,1,1,3,0,-1,2021-08-07 12:07:54,801570
2,3,7,9,2,0,1,1,2021-08-07 12:07:54,801570
0,0,-1,9,10,5,0,0,2021-08-07 12:07:54,801570
-1,-3,-2,-3,-6,-1,-2,-2,2021-08-07 12:07:54,848570
-5,-5,-6,-12,-9,-7,-5,-3,2021-08-07 12:07:54,864570
3,4,11,12,9,5,2,3,2021-08-07 12:07:54,880571
-2,-1,-7,1,-7,-4,-1,0,2021-08-07 12:07:54,880571
2,1,-5,-8,6,2,2,1,2021-08-07 12:07:54,880571
-4,-5,-7,-12,-17,-10,-5,-4,2021-08-07 12:07:54,880571
-4,-2,-3,-17,-19,-8,-6,-3,2021-08-07 12:07:54,880571
1,1,-2,4,20,8,2,0,2021-08-07 12:07:54,880571
4,4,2,10,14,7,3,1,2021-08-07 12:07:54,881570
2,1,5,8,3,1,0,1,2021-08-07 12:07:54,881570
-2,-3,-3,10,8,3,0,-1,2021-08-07 12:07:54,881570
-2,0,2,-12,-22,-11,-5,-1,2021-08-07 12:07:54,881570
-2,-3,-1,-8,-3,-3,-1,-1,2021-08-07 12:07:54,881570
2,3,-5,1,6,2,2,1,2021-08-07 12:07:54,881570
0,-1,-3,-4,0,1,0,0,2021-08-07 12:07:54,896570
0,-2,9,20,13,7,2,0,2021-08-07 12:07:54,912570
0,0,2,9,5,4,1,1,2021-08-07 12:07:54,912570
-3,-4,-12,-21,-20,-8,-5,-2,2021-08-07 12:07:54,912570
-3,-2,-3,-7,-4,-4,-3,-2,2021-08-07 12:07:54,913570
-5,-6,-18,-24,-17,-11,-5,-5,2021-08-07 12:07:54,913570
3,4,18,7,11,5,3,2,2021-08-07 12:07:54,928570
-2,-1,-3,23,13,3,0,0,2021-08-07 12:07:54,928570
0,-3,-11,-13,-12,-6,-3,-1,2021-08-07 12:07:54,928570
-1,-4,5,5,-6,-2,-1,0,2021-08-07 12:07:54,928570
2,1,0,-1,5,1,3,1,2021-08-07 12:07:54,960570
6,10,15,13,7,4,5,4,2021-08-07 12:07:54,960570
-1,0,1,2,0,3,1,-2,2021-08-07 12:07:54,960570
-3,-6,-9,-9,-5,-4,-2,-1,2021-08-07 12:07:54,960570
-3,-3,-4,0,-12,-5,-5,-4,2021-08-07 12:07:54,976569
-6,-6,0,-4,9,4,-1,-2,2021-08-07 12:07:54,976569
-2,-3,-10,-12,-13,-7,-3,-2,2021-08-07 12:07:54,976569
1,1,1,-5,-1,1,0,2,2021-08-07 12:07:54,976569
-4,-3,-3,-2,0,-1,-1,-2,2021-08-07 12:07:54,991571
3,3,7,8,5,3,2,3,2021-08-07 12:07:54,991571
-2,-4,-9,-5,-10,-3,-2,-2,2021-08-07 12:07:54,991571
0,-3,-7,0,25,9,2,1,2021-08-07 12:07:54,991571
-1,2,1,0,-3,-2,-3,1,2021-08-07 12:07:55,007570
3,6,13,8,-5,-2,0,2,2021-08-07 12:07:55,007570
-3,-5,1,1,-2,1,-1,-2,2021-08-07 12:07:55,007570
0,0,-12,-16,-13,-4,0,-2,2021-08-07 12:07:55,007570
9,13,18,23,29,16,7,5,2021-08-07 12:07:55,023571
-3,-3,-13,-6,-4,-2,-2,-4,2021-08-07 12:07:55,023571
-6,-8,-13,-10,-10,-9,-5,-4,2021-08-07 12:07:55,023571
0,0,10,21,22,9,4,0,2021-08-07 12:07:55,023571
-5,-6,-8,-16,-18,-10,-7,-5,2021-08-07 12:07:55,055570
-1,1,5,-3,-11,-4,-1,0,2021-08-07 12:07:55,071570
-4,-4,-5,-11,-3,-5,-2,-4,2021-08-07 12:07:55,071570
-1,2,7,8,-1,-2,-2,-1,2021-08-07 12:07:55,071570
1,1,-4,-4,-9,-5,-3,-1,2021-08-07 12:07:55,087570
1,2,4,10,11,5,2,1,2021-08-07 12:07:55,103570
1,2,3,2,-7,-2,-1,1,2021-08-07 12:07:55,119571
-2,-4,5,5,4,-2,-2,-2,2021-08-07 12:07:55,135569
-2,-5,-20,-16,-11,-5,-2,-2,2021-08-07 12:07:55,167571
-4,-6,-8,-4,0,-1,-2,-3,2021-08-07 12:07:55,183572
3,6,8,13,17,7,5,3,2021-08-07 12:07:55,195569
3,3,1,-1,3,4,3,2,2021-08-07 12:07:55,195569
-7,-8,-4,-20,-30,-17,-10,-7,2021-08-07 12:07:55,196572
-2,-4,-7,5,1,-2,-2,-1,2021-08-07 12:07:55,196572
-1,1,8,15,12,4,-1,-1,2021-08-07 12:07:55,196572
4,6,8,5,2,2,2,2,2021-08-07 12:07:55,196572
5,4,3,9,16,9,6,2,2021-08-07 12:07:55,196572
-2,-5,-3,-18,-11,-3,-3,-2,2021-08-07 12:07:55,215572
-2,-2,0,-1,1,-2,-2,-2,2021-08-07 12:07:55,215572
-5,-4,-2,-12,-18,-8,-4,-4,2021-08-07 12:07:55,215572
-2,-1,3,8,6,3,1,0,2021-08-07 12:07:55,231570
2,1,-8,-1,14,7,5,3,2021-08-07 12:07:55,247568
-4,-7,-10,-16,-16,-7,-5,-2,2021-08-07 12:07:55,279573
3,3,2,2,7,5,2,0,2021-08-07 12:07:55,295570
-6,-4,-1,-9,-11,-8,-5,-4,2021-08-07 12:07:55,295570
5,7,19,25,11,7,3,3,2021-08-07 12:07:55,295570
2,0,-3,-2,-6,-3,0,1,2021-08-07 12:07:55,295570
0,-1,-4,-7,-13,-6,-2,-1,2021-08-07 12:07:55,295570
-1,-2,-5,4,8,5,1,0,2021-08-07 12:07:55,295570
-3,-4,-6,-11,-11,-8,-5,-4,2021-08-07 12:07:55,296570
3,4,4,18,32,15,5,1,2021-08-07 12:07:55,296570
0,2,6,12,3,1,0,0,2021-08-07 12:07:55,296570
1,0,6,11,1,-1,1,2,2021-08-07 12:07:55,296570
-1,0,-1,-14,-16,-8,-2,-1,2021-08-07 12:07:55,296570
-5,-7,-19,-35,-22,-12,-6,-4,2021-08-07 12:07:55,296570
-3,-5,-5,1,3,0,-2,-2,2021-08-07 12:07:55,297570
-2,-2,1,-6,-1,-2,-2,-3,2021-08-07 12:07:55,297570
1,0,-2,2,-4,-1,-1,0,2021-08-07 12:07:55,297570
0,0,4,11,3,0,0,-1,2021-08-07 12:07:55,297570
-1,-2,-9,-11,-14,-7,-2,-1,2021-08-07 12:07:55,297570
1,5,4,13,12,7,3,1,2021-08-07 12:07:55,297570
2,4,11,17,26,11,4,0,2021-08-07 12:07:55,298570
-2,-6,-11,-17,-18,-8,-5,-4,2021-08-07 12:07:55,298570
-7,-12,-27,-47,-38,-21,-11,-8,2021-08-07 12:07:55,298570
2,3,12,25,36,16,6,4,2021-08-07 12:07:55,311571
-1,0,0,0,-5,-3,-1,-1,2021-08-07 12:07:55,327570
-1,3,8,13,9,5,2,1,2021-08-07 12:07:55,327570
-3,-4,0,-8,-13,-7,-3,-4,2021-08-07 12:07:55,327570
1,1,-4,-4,-7,-4,-1,1,2021-08-07 12:07:55,327570
-3,-4,-10,-17,-7,-4,-4,-3,2021-08-07 12:07:55,327570
2,3,2,-1,-3,0,-1,2,2021-08-07 12:07:55,327570
0,3,8,17,15,7,2,0,2021-08-07 12:07:55,327570
2,0,6,4,-1,0,2,-2,2021-08-07 12:07:55,328572
-6,-7,-5,-3,-10,-6,-4,-4,2021-08-07 12:07:55,328572
-5,-4,-14,-34,-36,-14,-8,-4,2021-08-07 12:07:55,328572
8,12,22,54,66,27,12,8,2021-08-07 12:07:55,328572
1,-1,-3,0,2,0,-1,-2,2021-08-07 12:07:55,328572
-1,0,5,-1,-2,-3,-2,-1,2021-08-07 12:07:55,328572
-5,-5,-12,-27,-32,-17,-8,-6,2021-08-07 12:07:55,343568
-1,0,11,28,28,12,4,1,2021-08-07 12:07:55,375570
-3,-4,-9,-16,-12,-5,-4,-4,2021-08-07 12:07:55,391570
-5,-9,-12,-9,-14,-7,-3,-3,2021-08-07 12:07:55,391570
0,-1,4,3,13,5,0,-3,2021-08-07 12:07:55,391570
-5,-4,-1,-11,-17,-9,-5,-4,2021-08-07 12:07:55,391570
2,5,5,8,1,0,1,3,2021-08-07 12:07:55,391570
1,2,-2,5,4,3,2,1,2021-08-07 12:07:55,391570
-1,-6,-8,3,7,2,1,1,2021-08-07 12:07:55,391570
-4,-7,-8,-24,-20,-10,-5,-2,2021-08-07 12:07:55,391570
-3,-4,-4,0,-5,-4,-1,-1,2021-08-07 12:07:55,392569
1,3,9,-3,-1,-1,-1,1,2021-08-07 12:07:55,392569
2,6,14,29,15,6,6,2,2021-08-07 12:07:55,407569
-4,-11,-10,-11,-12,-5,-5,-3,2021-08-07 12:07:55,423570
0,0,-5,-4,18,7,0,1,2021-08-07 12:07:55,439569
5,8,6,8,3,2,2,2,2021-08-07 12:07:55,439569
-6,-5,-7,-10,-2,-6,-5,-4,2021-08-07 12:07:55,439569
-4,-6,-10,-23,-29,-13,-6,-4,2021-08-07 12:07:55,439569
-4,-4,0,3,-9,-4,-3,-4,2021-08-07 12:07:55,439569
4,5,6,12,22,11,5,4,2021-08-07 12:07:55,439569
6,7,9,26,31,15,8,6,2021-08-07 12:07:55,454569
-2,0,-14,-16,-14,-6,-3,-3,2021-08-07 12:07:55,454569
-4,-6,-5,-11,-10,-9,-6,-4,2021-08-07 12:07:55,454569
0,0,9,17,9,6,2,-1,2021-08-07 12:07:55,454569
-3,-4,-1,-10,-15,-6,-3,-4,2021-08-07 12:07:55,454569
4,3,-2,6,6,3,2,3,2021-08-07 12:07:55,454569
-3,-5,-10,-20,-13,-7,-4,-2,2021-08-07 12:07:55,470570
-2,-4,-3,-8,-5,-3,-2,-2,2021-08-07 12:07:55,486571
-1,-2,2,-7,-18,-9,-3,0,2021-08-07 12:07:55,501571
-3,-3,-1,3,8,3,2,-1,2021-08-07 12:07:55,517570
12,15,21,35,36,20,12,8,2021-08-07 12:07:55,517570
-4,-8,-17,-21,-20,-10,-7,-5,2021-08-07 12:07:55,517570
-5,-7,-14,-9,6,0,-4,-2,2021-08-07 12:07:55,517570
-5,-2,3,-16,-29,-16,-10,-5,2021-08-07 12:07:55,517570
1,3,14,27,17,8,2,1,2021-08-07 12:07:55,517570
4,5,10,13,3,4,4,2,2021-08-07 12:07:55,517570
-5,-8,-22,-28,-12,-8,-5,-5,2021-08-07 12:07:55,518570
0,0,-1,-10,-5,-1,-1,-1,2021-08-07 12:07:55,518570
-9,-8,-15,-22,-23,-11,-5,-5,2021-08-07 12:07:55,533568
1,6,13,20,19,9,4,2,2021-08-07 12:07:55,549570
5,6,12,21,15,8,5,3,2021-08-07 12:07:55,565570
-3,-6,-8,-1,-2,-2,-2,0,2021-08-07 12:07:55,565570
-2,-1,-4,-12,-17,-9,-5,-2,2021-08-07 12:07:55,565570
1,-1,2,2,2,1,-1,1,2021-08-07 12:07:55,565570
4,7,16,14,12,8,3,1,2021-08-07 12:07:55,565570
5,4,2,14,13,5,4,3,2021-08-07 12:07:55,566572
-10,-15,-24,-52,-49,-27,-14,-9,2021-08-07 12:07:55,566572
-6,-7,-9,-1,5,3,-1,-2,2021-08-07 12:07:55,566572
4,5,9,16,22,11,4,2,2021-08-07 12:07:55,566572
6,8,10,20,10,7,3,4,2021-08-07 12:07:55,566572
1,-2,-7,-7,-8,-2,-2,0,2021-08-07 12:07:55,596572
-3,-5,-14,-30,-25,-14,-7,-2,2021-08-07 12:07:55,612570
-6,-5,-1,4,0,1,-2,-3,2021-08-07 12:07:55,612570
1,8,17,25,28,15,7,1,2021-08-07 12:07:55,612570
-4,-5,-2,0,-12,-7,-4,-3,2021-08-07 12:07:55,612570
-4,-5,-16,-21,-2,-2,-2,-4,2021-08-07 12:07:55,612570
-2,-1,-10,-8,-6,-5,-4,-2,2021-08-07 12:07:55,612570
-4,-3,-5,-14,-15,-9,-4,-2,2021-08-07 12:07:55,612570
7,11,15,33,36,18,7,5,2021-08-07 12:07:55,644570
3,4,14,17,1,-1,-2,2,2021-08-07 12:07:55,644570
-1,-2,6,-1,-9,-5,-3,-2,2021-08-07 12:07:55,644570
-2,-5,-15,-18,-20,-9,-4,-2,2021-08-07 12:07:55,644570
6,9,18,25,29,15,9,5,2021-08-07 12:07:55,644570
3,3,5,7,0,2,2,1,2021-08-07 12:07:55,644570
-4,-9,-25,-26,-17,-7,-2,-3,2021-08-07 12:07:55,644570
-15,-19,-26,-41,-29,-19,-14,-9,2021-08-07 12:07:55,645572
-6,-8,-17,-23,-17,-11,-7,-3,2021-08-07 12:07:55,663573
0,2,14,26,29,11,2,2,2021-08-07 12:07:55,663573
4,8,21,20,8,7,4,4,2021-08-07 12:07:55,663573
8,8,8,16,17,14,9,4,2021-08-07 12:07:55,664569
5,6,5,4,2,2,2,2,2021-08-07 12:07:55,691570
-5,-5,-2,-5,-14,-8,-4,-4,2021-08-07 12:07:55,691570
-1,2,4,3,-2,-6,-4,-2,2021-08-07 12:07:55,691570
2,3,0,8,13,6,2,1,2021-08-07 12:07:55,691570
-1,-4,-6,3,2,0,-1,0,2021-08-07 12:07:55,707569
-6,-8,-19,-34,-27,-16,-8,-5,2021-08-07 12:07:55,707569
-6,-7,-5,-7,-3,-3,-2,-4,2021-08-07 12:07:55,707569
-1,-4,2,2,-1,-2,0,-1,2021-08-07 12:07:55,707569
0,0,-4,-12,-10,-5,0,-1,2021-08-07 12:07:55,738571
6,6,6,16,11,7,5,3,2021-08-07 12:07:55,754568
0,1,6,7,4,2,0,-2,2021-08-07 12:07:55,770570
0,1,9,13,13,5,3,1,2021-08-07 12:07:55,770570
1,-1,-14,-15,-8,-2,0,-1,2021-08-07 12:07:55,770570
-8,-13,-27,-28,-23,-15,-9,-6,2021-08-07 12:07:55,770570
-3,-4,-5,-5,-9,-8,-6,-2,2021-08-07 12:07:55,770570
3,6,12,18,23,11,2,1,2021-08-07 12:07:55,770570
1,4,16,21,12,5,1,0,2021-08-07 12:07:55,770570
4,7,11,5,1,5,3,3,2021-08-07 12:07:55,771571
5,6,2,23,17,10,6,3,2021-08-07 12:07:55,771571
-6,-7,-13,-18,-28,-14,-7,-4,2021-08-07 12:07:55,771571
-9,-11,-16,-33,-15,-10,-6,-6,2021-08-07 12:07:55,801571
-4,-4,-7,-17,-13,-9,-6,-5,2021-08-07 12:07:55,817570
-1,-4,-3,0,-2,0,-1,1,2021-08-07 12:07:55,817570
0,1,2,5,-1,0,-1,0,2021-08-07 12:07:55,817570
1,3,8,17,12,5,3,1,2021-08-07 12:07:55,817570
3,4,7,12,12,5,2,2,2021-08-07 12:07:55,817570
4,3,11,14,16,8,4,3,2021-08-07 12:07:55,817570
-3,-8,-8,-25,-25,-12,-5,-5,2021-08-07 12:07:55,817570
-2,-4,-8,-1,2,1,-2,-1,2021-08-07 12:07:55,833568
0,2,1,2,-12,-7,-4,-2,2021-08-07 12:07:55,849571
-1,1,-4,-9,6,2,1,0,2021-08-07 12:07:55,865574
6,8,18,25,26,11,6,5,2021-08-07 12:07:55,865574
-4,-5,1,5,-9,-6,-3,-2,2021-08-07 12:07:55,865574
-5,-5,-11,-17,2,0,-2,-1,2021-08-07 12:07:55,865574
-5,-8,-9,-13,-16,-8,-2,-2,2021-08-07 12:07:55,865574
-3,-7,-18,-26,-19,-7,-4,-4,2021-08-07 12:07:55,866572
-2,0,-1,-12,-15,-7,-3,-3,2021-08-07 12:07:55,866572
3,5,14,28,27,12,7,4,2021-08-07 12:07:55,866572
-2,-2,-4,-11,-8,-3,-2,-2,2021-08-07 12:07:55,866572
-4,-8,-3,9,6,1,-3,-3,2021-08-07 12:07:55,881568
3,3,2,-5,-10,-3,-1,1,2021-08-07 12:07:55,897570
0,2,1,0,6,4,0,0,2021-08-07 12:07:55,913572
5,5,10,21,10,5,3,4,2021-08-07 12:07:55,929573
1,4,5,8,2,2,0,0,2021-08-07 12:07:55,929573
-1,-1,-1,7,8,2,-1,-1,2021-08-07 12:07:55,929573
-10,-11,-15,-34,-35,-20,-9,-7,2021-08-07 12:07:55,929573
-2,-2,-2,-7,-7,-6,-5,0,2021-08-07 12:07:55,929573
6,9,11,23,22,13,8,4,2021-08-07 12:07:55,929573
1,-2,0,3,-1,0,2,-1,2021-08-07 12:07:55,929573
-1,-6,-10,-6,2,1,1,-1,2021-08-07 12:07:55,945571
-6,-7,-12,-13,-13,-9,-5,-4,2021-08-07 12:07:55,977569
2,7,16,1,-5,-3,-1,0,2021-08-07 12:07:55,993570
0,7,0,-5,0,1,-1,1,2021-08-07 12:07:56,009570
-2,-10,1,2,-4,0,0,-1,2021-08-07 12:07:56,009570
-10,-19,-28,-31,-28,-13,-8,-7,2021-08-07 12:07:56,009570
0,-4,-5,31,38,14,5,1,2021-08-07 12:07:56,009570
-2,3,5,-12,-12,-5,-1,-2,2021-08-07 12:07:56,009570
7,11,9,11,12,8,4,5,2021-08-07 12:07:56,009570
-1,5,7,-10,-18,-8,-4,-3,2021-08-07 12:07:56,010570
0,-3,-1,-1,0,-1,-1,-1,2021-08-07 12:07:56,010570
0,-8,-6,15,15,4,1,2,2021-08-07 12:07:56,010570
-6,-2,-12,0,2,-1,0,-3,2021-08-07 12:07:56,025568
-5,-5,0,-19,-18,-9,-6,-4,2021-08-07 12:07:56,041569
-2,1,-1,-12,-2,-3,-1,-1,2021-08-07 12:07:56,041569
0,-2,1,-6,-8,-5,-2,-2,2021-08-07 12:07:56,041569
1,3,9,11,5,2,2,1,2021-08-07 12:07:56,041569
2,3,4,6,11,7,1,1,2021-08-07 12:07:56,041569
-1,0,-1,2,-10,-4,-2,-1,2021-08-07 12:07:56,041569
3,3,6,9,19,8,4,3,2021-08-07 12:07:56,042570
0,1,0,3,-1,0,0,-1,2021-08-07 12:07:56,042570
-1,-4,-5,0,6,0,-1,-2,2021-08-07 12:07:56,042570
-2,-4,-9,-16,-21,-10,-5,-2,2021-08-07 12:07:56,042570
-6,-7,-5,-7,-3,-5,-2,-3,2021-08-07 12:07:56,057570
-2,-2,4,3,1,0,-3,-1,2021-08-07 12:07:56,072571
6,7,4,19,17,9,4,5,2021-08-07 12:07:56,072571
-3,-9,-31,-42,-23,-9,-4,-3,2021-08-07 12:07:56,072571
-2,-3,-3,4,0,-2,-1,-2,2021-08-07 12:07:56,072571
-3,1,2,-6,-7,-6,-4,-5,2021-08-07 12:07:56,072571
1,5,10,11,0,-1,0,-1,2021-08-07 12:07:56,072571
6,13,29,28,18,8,5,3,2021-08-07 12:07:56,072571
3,3,-6,3,4,6,4,2,2021-08-07 12:07:56,087570
-9,-24,-39,-33,-23,-13,-7,-6,2021-08-07 12:07:56,102572
-5,-8,-6,-10,-2,-4,-2,-4,2021-08-07 12:07:56,102572
-4,-4,-10,-9,-4,-3,-2,-4,2021-08-07 12:07:56,102572
-4,-1,1,-10,-14,-9,-4,-2,2021-08-07 12:07:56,118572
5,12,17,25,12,9,4,3,2021-08-07 12:07:56,118572
2,4,9,24,15,7,4,1,2021-08-07 12:07:56,118572
-2,-1,-1,-9,-8,-4,0,1,2021-08-07 12:07:56,118572
5,4,4,2,5,3,1,2,2021-08-07 12:07:56,118572
-2,-6,-8,-8,-11,-7,-5,-1,2021-08-07 12:07:56,118572
-4,-3,-5,-16,-13,-7,-4,-3,2021-08-07 12:07:56,150571
-3,-2,3,9,3,-1,-2,-3,2021-08-07 12:07:56,150571
-2,-2,-4,-18,-13,-2,-2,0,2021-08-07 12:07:56,150571
3,7,13,22,17,8,3,0,2021-08-07 12:07:56,150571
-2,-4,-2,-1,0,-2,-1,0,2021-08-07 12:07:56,166570
-4,-5,-10,-10,-9,-4,-3,-2,2021-08-07 12:07:56,166570
-7,-13,-26,-33,-25,-14,-7,-7,2021-08-07 12:07:56,166570
-1,-3,-12,-16,-2,-4,-2,-4,2021-08-07 12:07:56,166570
-1,2,5,3,-1,-3,-1,0,2021-08-07 12:07:56,166570
7,13,16,12,1,4,3,3,2021-08-07 12:07:56,167571
3,4,15,23,20,10,3,3,2021-08-07 12:07:56,197570
5,8,9,11,19,12,6,4,2021-08-07 12:07:56,213570
-5,-7,-24,-11,-7,-3,-3,-4,2021-08-07 12:07:56,228571
-3,-4,-3,-11,-11,-7,-4,-1,2021-08-07 12:07:56,244571
-4,-3,-4,-5,-12,-7,-6,-4,2021-08-07 12:07:56,260570
0,4,11,7,-10,-3,1,0,2021-08-07 12:07:56,260570
5,5,9,15,13,7,4,3,2021-08-07 12:07:56,260570
0,-7,-5,2,21,9,3,1,2021-08-07 12:07:56,276570
-5,-5,2,-7,-11,-5,-4,-4,2021-08-07 12:07:56,292570
-3,-2,-10,0,-2,-2,-3,-2,2021-08-07 12:07:56,308568
3,3,3,9,0,3,2,1,2021-08-07 12:07:56,324570
-2,0,3,-16,-10,-3,-2,-1,2021-08-07 12:07:56,324570
5,7,6,33,22,12,5,4,2021-08-07 12:07:56,324570
-5,-13,-19,-18,-12,-7,-3,-4,2021-08-07 12:07:56,324570
-5,-5,-8,-17,-18,-12,-7,-4,2021-08-07 12:07:56,324570
-1,-1,-5,4,3,2,-1,-2,2021-08-07 12:07:56,324570
-2,-3,-4,-12,-8,-4,0,0,2021-08-07 12:07:56,325570
-2,3,9,-7,-17,-9,-5,-2,2021-08-07 12:07:56,325570
7,11,18,39,48,23,11,7,2021-08-07 12:07:56,325570
1,-4,-3,2,-3,-1,-1,0,2021-08-07 12:07:56,325570
-2,0,1,3,-3,-2,-2,-1,2021-08-07 12:07:56,325570
-6,-6,-6,-15,-17,-10,-8,-7,2021-08-07 12:07:56,325570
-7,-7,-12,-26,-22,-13,-7,-4,2021-08-07 12:07:56,326570
0,-1,-5,2,12,6,3,2,2021-08-07 12:07:56,326570
5,4,6,26,23,10,4,2,2021-08-07 12:07:56,326570
1,0,-1,3,6,4,1,2,2021-08-07 12:07:56,326570
-5,-2,-3,-19,-18,-9,-6,-4,2021-08-07 12:07:56,326570
0,-4,1,-15,-21,-8,-3,0,2021-08-07 12:07:56,326570
-3,-6,-3,-5,6,0,-3,-2,2021-08-07 12:07:56,326570
0,0,0,17,12,7,3,0,2021-08-07 12:07:56,339569
2,2,8,8,4,4,0,0,2021-08-07 12:07:56,355569
-3,-1,-3,-2,-12,-8,-5,-5,2021-08-07 12:07:56,371568
1,5,7,7,5,3,2,3,2021-08-07 12:07:56,387785
2,3,5,1,8,7,2,3,2021-08-07 12:07:56,403568
-5,-7,-17,-25,-19,-11,-5,-2,2021-08-07 12:07:56,419568
-3,-6,-9,-5,-5,-3,-2,-5,2021-08-07 12:07:56,435568
-3,-3,7,4,-6,-5,-4,-3,2021-08-07 12:07:56,451569
3,3,-1,18,26,13,6,2,2021-08-07 12:07:56,451569
1,0,2,5,0,2,1,0,2021-08-07 12:07:56,451569
0,1,2,-8,-3,-3,-1,-1,2021-08-07 12:07:56,451569
1,7,9,12,4,0,1,-3,2021-08-07 12:07:56,451569
0,1,12,6,-3,-2,-1,-1,2021-08-07 12:07:56,451569
2,-4,-19,-8,0,1,3,2,2021-08-07 12:07:56,451569
-10,-18,-32,-32,-7,-7,-7,-8,2021-08-07 12:07:56,451569
-2,-7,-13,-15,-7,-2,-1,-1,2021-08-07 12:07:56,451569
-6,-3,10,-14,-24,-15,-9,-4,2021-08-07 12:07:56,451569
2,1,5,11,9,5,4,2,2021-08-07 12:07:56,452570
9,17,26,50,40,20,11,8,2021-08-07 12:07:56,452570
3,3,0,-3,-7,-1,2,2,2021-08-07 12:07:56,452570
0,-1,10,13,5,0,0,1,2021-08-07 12:07:56,452570
-2,-2,-11,-20,-20,-10,-6,-3,2021-08-07 12:07:56,452570
-1,-1,-5,-8,-5,-5,-3,-1,2021-08-07 12:07:56,452570
-6,-9,-9,-15,-8,-4,-4,-6,2021-08-07 12:07:56,452570
-1,0,-1,-3,10,1,1,-1,2021-08-07 12:07:56,453569
1,-3,2,6,1,-1,-2,-1,2021-08-07 12:07:56,453569
6,10,8,16,14,9,6,4,2021-08-07 12:07:56,453569
4,5,7,16,9,4,2,1,2021-08-07 12:07:56,483568
-7,-13,-21,-25,-18,-10,-5,-5,2021-08-07 12:07:56,498569
-5,-4,1,4,6,1,-2,-3,2021-08-07 12:07:56,514569
-1,-2,0,-9,-16,-9,-4,-3,2021-08-07 12:07:56,514569
3,10,14,0,-13,-5,-1,1,2021-08-07 12:07:56,514569
1,1,6,9,11,7,3,1,2021-08-07 12:07:56,514569
3,-4,-6,11,13,9,4,4,2021-08-07 12:07:56,514569
-3,-8,-30,-34,-12,-6,-3,-2,2021-08-07 12:07:56,514569
-3,-9,-16,-11,0,-5,-3,-2,2021-08-07 12:07:56,515570
-3,4,-5,-6,-11,-4,-1,1,2021-08-07 12:07:56,515570
-3,2,17,13,0,-1,0,-3,2021-08-07 12:07:56,515570
-9,-14,-7,-12,-23,-14,-8,-7,2021-08-07 12:07:56,515570
5,8,9,16,16,14,5,2,2021-08-07 12:07:56,546570
3,3,9,17,23,8,2,0,2021-08-07 12:07:56,554570
-1,2,-3,-15,-10,-4,-4,-2,2021-08-07 12:07:56,554570
-2,-2,-3,2,-8,-8,-4,-1,2021-08-07 12:07:56,555570
-4,-9,-11,-16,-9,-4,-1,-1,2021-08-07 12:07:56,555570
