EMG 1,EMG 2,EMG 3,EMG 4,EMG 5,EMG 6,EMG 7,EMG 8,Timestamp,Milliseconds
-3,-4,-5,-3,-2,-5,-4,-3,2021-08-07 12:08:59,799182
2,2,2,10,17,12,5,2,2021-08-07 12:08:59,799182
-1,-1,-1,-1,4,2,0,-1,2021-08-07 12:08:59,799182
1,1,2,7,5,2,2,0,2021-08-07 12:08:59,799182
1,0,1,-6,-9,-5,-3,0,2021-08-07 12:08:59,799182
-4,-5,-6,-13,-11,-8,-3,-3,2021-08-07 12:08:59,799182
-3,-3,-2,-1,-4,-4,-4,-1,2021-08-07 12:08:59,800184
-5,-8,-12,-18,-16,-11,-7,-5,2021-08-07 12:08:59,800184
4,6,7,14,22,10,6,1,2021-08-07 12:08:59,831182
2,1,1,0,-3,-1,-1,0,2021-08-07 12:08:59,831182
2,3,2,1,5,4,2,1,2021-08-07 12:08:59,831182
-4,-4,0,5,1,0,-3,-3,2021-08-07 12:08:59,831182
-1,-3,-7,-10,-9,-4,-4,-1,2021-08-07 12:08:59,831182
2,0,0,0,1,0,-1,0,2021-08-07 12:08:59,831182
1,-3,-3,-6,-5,-5,0,0,2021-08-07 12:08:59,831182
1,1,1,-3,0,1,0,1,2021-08-07 12:08:59,831182
-4,-2,-1,-2,-3,0,-2,-3,2021-08-07 12:08:59,847182
-1,1,1,2,4,2,0,0,2021-08-07 12:08:59,847182
-1,0,-2,-6,-5,-3,-2,-2,2021-08-07 12:08:59,863182
1,2,1,0,-1,-3,0,0,2021-08-07 12:08:59,879182
-3,-2,-4,-4,-4,-3,-1,-1,2021-08-07 12:08:59,895181
-1,-1,0,3,3,-1,-1,-2,2021-08-07 12:08:59,895181
1,0,1,2,6,2,0,0,2021-08-07 12:08:59,927182
-3,-2,-2,2,0,-2,-1,-1,2021-08-07 12:08:59,927182
-3,-2,-4,-9,-3,0,-3,-2,2021-08-07 12:08:59,927182
2,4,6,11,7,4,2,4,2021-08-07 12:08:59,927182
-2,-3,-3,-6,-8,-6,-3,-2,2021-08-07 12:08:59,927182
-4,-6,-5,-8,-3,-2,-4,-2,2021-08-07 12:08:59,927182
2,-1,3,4,2,-1,2,1,2021-08-07 12:08:59,928183
0,0,-1,-2,0,0,-1,0,2021-08-07 12:08:59,928183
1,0,2,0,-1,1,-1,-1,2021-08-07 12:08:59,928183
-1,-1,-3,-3,-2,-1,-2,-2,2021-08-07 12:08:59,928183
-3,-5,-2,-4,-3,-1,-2,-2,2021-08-07 12:08:59,928183
0,-1,-1,-3,-1,1,0,0,2021-08-07 12:08:59,928183
1,1,1,4,1,-1,0,-1,2021-08-07 12:08:59,928183
-2,-2,0,0,-1,-2,-1,-2,2021-08-07 12:08:59,929182
0,-1,-2,0,-1,0,-2,-3,2021-08-07 12:08:59,959182
0,-1,-1,0,0,0,0,0,2021-08-07 12:08:59,974182
-3,-3,-2,-3,-4,-1,-2,-3,2021-08-07 12:08:59,974182
-1,1,1,-1,-1,0,-1,0,2021-08-07 12:08:59,974182
-1,2,1,3,0,0,0,2,2021-08-07 12:08:59,990183
2,-1,1,-3,-1,0,-2,-1,2021-08-07 12:08:59,994184
-1,0,-1,-2,-2,-1,-2,0,2021-08-07 12:08:59,994184
0,-2,1,0,0,-1,-1,-2,2021-08-07 12:08:59,995185
0,-1,0,2,1,1,2,-1,2021-08-07 12:08:59,995185
0,-2,-1,-2,-2,-2,-2,-1,2021-08-07 12:08:59,995185
-3,-3,-2,-4,-5,-3,-1,0,2021-08-07 12:08:59,995185
1,-1,-2,1,1,1,2,0,2021-08-07 12:08:59,995185
0,2,0,2,-7,-3,-2,1,2021-08-07 12:09:00,022182
1,3,2,7,9,4,4,1,2021-08-07 12:09:00,022182
-2,-1,1,2,1,1,-1,-2,2021-08-07 12:09:00,022182
-2,-2,-2,-4,-3,-2,-2,0,2021-08-07 12:09:00,022182
-2,-1,-3,-3,-3,-4,-2,-2,2021-08-07 12:09:00,053184
-5,-6,-10,-17,-19,-9,-4,-5,2021-08-07 12:09:00,053184
-1,-1,-1,0,6,0,1,0,2021-08-07 12:09:00,069181
2,5,7,13,14,7,1,1,2021-08-07 12:09:00,069181
0,0,0,-2,-2,0,0,0,2021-08-07 12:09:00,069181
-2,-4,-5,-9,-13,-8,-4,-1,2021-08-07 12:09:00,069181
-4,-4,-8,-10,-6,-2,-2,-2,2021-08-07 12:09:00,069181
2,3,2,5,4,1,1,-1,2021-08-07 12:09:00,070182
0,-2,-2,-5,-1,-2,0,-2,2021-08-07 12:09:00,085182
-4,-4,-6,-11,-5,-3,-1,-2,2021-08-07 12:09:00,085182
0,-3,1,6,2,0,0,1,2021-08-07 12:09:00,085182
0,1,-1,1,-3,-2,-1,1,2021-08-07 12:09:00,085182
0,2,2,5,5,3,2,1,2021-08-07 12:09:00,132183
-2,-1,-4,-3,-5,-2,-1,-3,2021-08-07 12:09:00,148181
-1,-1,-2,-5,-9,-6,-4,-2,2021-08-07 12:09:00,148181
-2,-4,-3,-3,2,1,-2,-1,2021-08-07 12:09:00,148181
-1,0,-1,0,3,2,0,1,2021-08-07 12:09:00,164181
2,-1,3,7,9,2,0,1,2021-08-07 12:09:00,164181
-2,-3,0,2,2,0,-1,-1,2021-08-07 12:09:00,164181
1,2,0,-5,-11,-5,-1,-2,2021-08-07 12:09:00,164181
0,-2,-4,-10,-10,-3,-3,-2,2021-08-07 12:09:00,164181
0,0,3,4,9,2,-1,1,2021-08-07 12:09:00,164181
2,4,6,8,4,2,0,2,2021-08-07 12:09:00,164181
-2,-3,-4,-3,-7,-4,-1,-1,2021-08-07 12:09:00,165183
-2,-1,-2,-1,1,0,-2,-1,2021-08-07 12:09:00,180182
-1,1,1,5,2,2,1,-1,2021-08-07 12:09:00,180182
-2,-2,-2,-2,-2,-3,-2,-2,2021-08-07 12:09:00,196182
-1,-1,-2,-5,3,2,2,-1,2021-08-07 12:09:00,212185
2,2,7,12,12,3,0,2,2021-08-07 12:09:00,212185
0,-1,1,3,4,2,0,-2,2021-08-07 12:09:00,212185
-4,-5,-2,-6,-8,-4,-3,-2,2021-08-07 12:09:00,212185
-2,-3,-5,-8,-11,-4,-4,-2,2021-08-07 12:09:00,212185
-3,-5,-5,-2,-3,-3,-3,-4,2021-08-07 12:09:00,212185
0,3,3,-3,-1,-1,-1,1,2021-08-07 12:09:00,213184
1,0,1,9,6,2,1,0,2021-08-07 12:09:00,213184
1,1,2,2,2,0,0,1,2021-08-07 12:09:00,213184
-1,-3,-3,-5,-6,-4,-2,-2,2021-08-07 12:09:00,228186
2,0,2,7,3,0,0,0,2021-08-07 12:09:00,244180
-1,-2,-3,-6,-1,-1,-2,-2,2021-08-07 12:09:00,244180
-2,-4,0,-2,-1,-1,-2,-2,2021-08-07 12:09:00,244180
0,1,-2,-5,-4,-3,-1,1,2021-08-07 12:09:00,244180
-2,-2,-1,3,2,-1,0,-2,2021-08-07 12:09:00,244180
1,3,3,3,7,5,0,-1,2021-08-07 12:09:00,245185
1,1,-2,-3,-3,0,0,0,2021-08-07 12:09:00,245185
0,0,-1,-1,-4,-1,1,2,2021-08-07 12:09:00,259184
-1,-2,-5,-6,-3,-2,-1,-2,2021-08-07 12:09:00,259184
-6,-7,-5,-2,-3,-4,-5,-4,2021-08-07 12:09:00,259184
0,0,2,7,7,1,1,1,2021-08-07 12:09:00,259184
0,2,0,-5,-4,0,-1,0,2021-08-07 12:09:00,290183
-4,1,1,-2,-3,-3,-2,-1,2021-08-07 12:09:00,290183
0,1,0,2,0,1,1,0,2021-08-07 12:09:00,290183
-2,-2,-4,-5,-6,-4,-3,-3,2021-08-07 12:09:00,290183
0,-5,-7,-9,-16,-10,-4,-2,2021-08-07 12:09:00,290183
0,-3,4,7,17,8,0,1,2021-08-07 12:09:00,306184
3,5,2,2,2,2,2,1,2021-08-07 12:09:00,306184
-2,0,0,-1,-2,-1,-1,-1,2021-08-07 12:09:00,306184
0,1,0,4,3,2,3,0,2021-08-07 12:09:00,322184
-1,-3,-4,-11,-14,-6,-1,-2,2021-08-07 12:09:00,338182
-1,-1,-4,-6,-3,-1,-2,1,2021-08-07 12:09:00,338182
-1,-2,2,7,6,1,1,-1,2021-08-07 12:09:00,338182
-2,-3,-2,-5,-7,-5,-1,-2,2021-08-07 12:09:00,338182
4,7,8,14,12,6,4,4,2021-08-07 12:09:00,338182
-4,-6,-7,-7,-3,-2,-1,-5,2021-08-07 12:09:00,338182
-5,-5,-5,-6,-7,-5,-5,-4,2021-08-07 12:09:00,339184
6,8,9,10,14,6,4,5,2021-08-07 12:09:00,354183
-2,-3,-3,-2,-7,-5,-3,-2,2021-08-07 12:09:00,385215
-2,-3,-6,-8,-9,-6,-3,-2,2021-08-07 12:09:00,401213
-11,-12,-11,-17,-18,-12,-10,-9,2021-08-07 12:09:00,417215
9,8,7,8,19,10,7,6,2021-08-07 12:09:00,433214
6,9,15,30,29,17,8,4,2021-08-07 12:09:00,433214
1,1,-1,0,-1,0,-1,-1,2021-08-07 12:09:00,433214
-6,-8,-7,-13,-10,-5,-3,-3,2021-08-07 12:09:00,433214
-7,-8,-9,-8,-6,-5,-6,-4,2021-08-07 12:09:00,433214
-1,1,-3,-5,-8,-5,-1,0,2021-08-07 12:09:00,434214
-1,-2,-4,-10,-9,-5,-3,-2,2021-08-07 12:09:00,434214
3,3,5,10,13,7,3,4,2021-08-07 12:09:00,434214
-4,-3,-1,-1,-3,-1,-2,-3,2021-08-07 12:09:00,434214
-3,-5,-5,-7,-8,-6,-3,-2,2021-08-07 12:09:00,434214
-3,-5,-1,0,-1,0,-2,-1,2021-08-07 12:09:00,449216
7,8,6,2,-1,3,3,3,2021-08-07 12:09:00,463215
-3,-1,0,2,-1,-1,0,-2,2021-08-07 12:09:00,463215
-3,-3,-5,-10,-4,-2,-4,-5,2021-08-07 12:09:00,464214
-1,-1,-1,-5,-7,-4,-4,0,2021-08-07 12:09:00,464214
1,2,0,2,3,0,-1,2,2021-08-07 12:09:00,464214
-3,-7,-9,-15,-13,-8,-3,-3,2021-08-07 12:09:00,464214
4,3,3,11,10,6,3,5,2021-08-07 12:09:00,464214
1,1,3,12,16,8,4,2,2021-08-07 12:09:00,464214
1,-3,-1,0,2,1,0,-1,2021-08-07 12:09:00,465215
2,5,8,11,6,4,3,-2,2021-08-07 12:09:00,481214
-5,-4,-5,-13,-18,-9,-6,-7,2021-08-07 12:09:00,481214
-4,-3,-3,-3,-4,-4,-3,-4,2021-08-07 12:09:00,481214
-1,1,1,0,-2,-2,-1,-2,2021-08-07 12:09:00,481214
-2,-1,-1,5,3,1,-2,0,2021-08-07 12:09:00,511215
0,0,-3,-3,-3,-3,-1,1,2021-08-07 12:09:00,526213
2,2,3,1,1,0,2,3,2021-08-07 12:09:00,526213
-2,-1,-2,-4,-3,-1,-1,0,2021-08-07 12:09:00,526213
-3,-4,-4,-8,-11,-6,-3,-2,2021-08-07 12:09:00,526213
-1,0,0,4,11,4,2,-1,2021-08-07 12:09:00,526213
2,1,-1,1,1,1,-1,0,2021-08-07 12:09:00,526213
0,0,-3,-2,-1,1,2,0,2021-08-07 12:09:00,526213
1,1,3,8,11,5,1,0,2021-08-07 12:09:00,557214
-5,-6,-8,-7,-8,-6,-5,-4,2021-08-07 12:09:00,557214
-1,1,-2,-8,-6,-3,-4,-2,2021-08-07 12:09:00,557214
2,4,3,2,-1,0,0,0,2021-08-07 12:09:00,557214
-3,-4,-3,-1,-2,-2,-1,-1,2021-08-07 12:09:00,557214
-7,-10,-10,-10,-12,-6,-5,-3,2021-08-07 12:09:00,558215
8,12,7,1,-3,1,4,4,2021-08-07 12:09:00,558215
5,3,0,6,10,4,3,4,2021-08-07 12:09:00,558215
0,1,5,9,6,4,1,-2,2021-08-07 12:09:00,588723
-1,-3,-4,-6,-8,-3,-1,-1,2021-08-07 12:09:00,588723
-5,-6,-3,0,0,-1,-3,-3,2021-08-07 12:09:00,588723
-3,-2,-1,-1,-1,-2,-2,-2,2021-08-07 12:09:00,588723
-1,-2,-2,-4,0,-1,-1,1,2021-08-07 12:09:00,588723
1,0,-1,-3,-3,0,0,0,2021-08-07 12:09:00,588723
0,-3,-2,0,1,-1,1,-1,2021-08-07 12:09:00,604725
-2,-3,-2,0,-2,-2,-2,-1,2021-08-07 12:09:00,620725
1,1,0,-2,0,0,0,-1,2021-08-07 12:09:00,636725
0,1,1,-2,-2,-2,0,-2,2021-08-07 12:09:00,636725
-3,-1,-2,-1,0,-1,1,-2,2021-08-07 12:09:00,636725
-3,-2,1,0,-2,-1,-1,-2,2021-08-07 12:09:00,636725
-1,-3,-5,-1,-1,-3,-3,-2,2021-08-07 12:09:00,636725
-1,0,-1,-4,-3,-3,-2,0,2021-08-07 12:09:00,637725
3,3,3,4,3,2,1,2,2021-08-07 12:09:00,637725
-5,-5,-5,-8,-9,-6,-2,-6,2021-08-07 12:09:00,637725
0,0,-1,11,8,4,2,1,2021-08-07 12:09:00,668725
1,0,-2,-11,-11,-4,-2,0,2021-08-07 12:09:00,668725
-2,-3,1,11,8,1,0,-1,2021-08-07 12:09:00,668725
1,0,4,6,1,2,-2,2,2021-08-07 12:09:00,668725
-4,-2,-4,-7,-6,-4,-4,-4,2021-08-07 12:09:00,684723
-1,-2,2,6,3,2,1,1,2021-08-07 12:09:00,684723
-1,-3,-5,-9,-11,-4,-2,-2,2021-08-07 12:09:00,684723
-1,-1,-4,-9,-7,-4,-1,0,2021-08-07 12:09:00,684723
-1,0,1,3,7,4,1,1,2021-08-07 12:09:00,700724
-1,0,-1,1,0,1,-1,0,2021-08-07 12:09:00,716725
-4,-4,-3,-8,-11,-7,-4,-4,2021-08-07 12:09:00,732725
-1,1,-3,-7,-9,-4,-1,-1,2021-08-07 12:09:00,748726
1,-2,-1,-3,4,0,0,0,2021-08-07 12:09:00,748726
1,1,1,4,10,2,0,-1,2021-08-07 12:09:00,748726
3,2,4,13,8,3,3,0,2021-08-07 12:09:00,748726
-1,-3,-4,2,0,1,0,-1,2021-08-07 12:09:00,748726
1,3,1,-7,-13,-5,-1,0,2021-08-07 12:09:00,749726
-3,-4,-1,0,3,0,-3,-3,2021-08-07 12:09:00,749726
1,4,0,0,1,0,0,1,2021-08-07 12:09:00,749726
-2,-2,-3,-4,-2,-1,-2,0,2021-08-07 12:09:00,749726
-4,-5,-5,-10,-7,-5,-4,-4,2021-08-07 12:09:00,780723
1,1,0,5,1,1,0,1,2021-08-07 12:09:00,796726
0,-2,-4,-4,1,0,0,0,2021-08-07 12:09:00,812724
-1,-1,1,7,8,4,0,-1,2021-08-07 12:09:00,812724
1,0,0,-4,-4,0,0,0,2021-08-07 12:09:00,812724
-2,-3,-6,-15,-19,-11,-2,-2,2021-08-07 12:09:00,812724
-3,-4,-4,-13,-10,-4,-5,-2,2021-08-07 12:09:00,812724
4,5,8,19,27,13,7,3,2021-08-07 12:09:00,812724
0,0,0,4,1,1,-1,-1,2021-08-07 12:09:00,813725
-2,-2,-2,-5,-4,-4,-3,-2,2021-08-07 12:09:00,813725
-2,-1,-6,-5,-3,-2,-1,-1,2021-08-07 12:09:00,813725
-2,-3,-2,-6,-10,-7,-3,-4,2021-08-07 12:09:00,813725
-2,-5,-4,-3,-4,-1,-1,-2,2021-08-07 12:09:00,828726
3,3,3,6,6,3,1,1,2021-08-07 12:09:00,844725
-1,-2,-2,-3,-4,-3,-3,-2,2021-08-07 12:09:00,860723
2,-1,-2,-2,3,1,0,-1,2021-08-07 12:09:00,860723
0,0,4,9,5,2,2,-1,2021-08-07 12:09:00,860723
-3,-1,-2,-1,-2,-2,-1,-3,2021-08-07 12:09:00,860723
1,1,1,4,1,-1,0,-1,2021-08-07 12:09:00,860723
1,-2,-4,-8,-8,-5,-2,-2,2021-08-07 12:09:00,875725
0,-2,-4,-9,-11,-5,-4,-2,2021-08-07 12:09:00,891725
-1,-2,-2,2,9,6,1,-1,2021-08-07 12:09:00,907725
-2,1,5,18,15,6,2,0,2021-08-07 12:09:00,907725
2,1,1,1,0,1,0,1,2021-08-07 12:09:00,907725
-3,-3,-2,-7,-6,-5,-2,-2,2021-08-07 12:09:00,907725
-1,-2,-1,0,-5,-2,-1,0,2021-08-07 12:09:00,907725
0,-1,-2,-5,-4,-2,-1,1,2021-08-07 12:09:00,907725
0,0,1,5,2,2,0,0,2021-08-07 12:09:00,908725
-2,-2,-3,-8,-5,-2,-2,-1,2021-08-07 12:09:00,908725
0,-2,-2,-2,-6,-3,-2,-2,2021-08-07 12:09:00,908725
-4,-3,0,3,6,3,-2,-3,2021-08-07 12:09:00,908725
0,1,1,4,2,-1,1,1,2021-08-07 12:09:00,908725
0,-1,-2,1,2,1,1,-1,2021-08-07 12:09:00,938726
-3,-1,0,1,0,-2,-2,-1,2021-08-07 12:09:00,954723
0,-2,-3,-7,-8,-3,-2,-2,2021-08-07 12:09:00,954723
1,0,-1,-4,0,1,0,0,2021-08-07 12:09:00,954723
1,3,3,10,5,3,2,0,2021-08-07 12:09:00,954723
-1,0,0,-3,-1,-2,0,-1,2021-08-07 12:09:00,954723
-2,-4,-1,2,-1,-1,-1,-2,2021-08-07 12:09:00,954723
-1,0,-2,-3,-4,-1,-1,0,2021-08-07 12:09:00,955725
-1,-2,1,1,1,-1,2,-1,2021-08-07 12:09:00,970723
-2,-2,-4,-4,-2,-1,-1,-1,2021-08-07 12:09:00,970723
-1,-3,-1,1,1,1,0,1,2021-08-07 12:09:01,002725
-4,-3,-4,-4,-5,-4,-2,-4,2021-08-07 12:09:01,018726
1,1,3,4,6,2,0,1,2021-08-07 12:09:01,033726
1,0,0,0,-4,-2,-2,0,2021-08-07 12:09:01,048726
2,3,1,2,6,3,1,0,2021-08-07 12:09:01,064726
1,1,3,5,3,0,-1,-1,2021-08-07 12:09:01,064726
-4,-3,-3,-6,-9,-6,-3,-2,2021-08-07 12:09:01,064726
-4,-6,-5,-11,-6,-4,-3,-4,2021-08-07 12:09:01,064726
4,3,4,-1,0,2,3,3,2021-08-07 12:09:01,065727
2,3,4,6,8,4,2,1,2021-08-07 12:09:01,065727
-2,-2,-1,1,-1,-3,-3,-1,2021-08-07 12:09:01,065727
-1,-3,-2,-3,-7,-3,-3,-3,2021-08-07 12:09:01,065727
2,2,0,3,8,2,2,-1,2021-08-07 12:09:01,065727
0,1,2,-6,-5,-5,-2,-2,2021-08-07 12:09:01,065727
-2,-3,-3,-2,-3,0,-3,-2,2021-08-07 12:09:01,066726
-2,-1,-4,-12,-13,-6,-4,-2,2021-08-07 12:09:01,066726
-1,-2,3,7,9,6,0,-1,2021-08-07 12:09:01,066726
-3,-2,-1,1,-1,-1,-1,-3,2021-08-07 12:09:01,066726
3,3,0,0,2,2,2,2,2021-08-07 12:09:01,066726
3,2,1,0,0,0,1,2,2021-08-07 12:09:01,066726
-5,-5,-7,-15,-14,-9,-4,-2,2021-08-07 12:09:01,066726
-3,-4,-4,-1,-7,-3,-1,-1,2021-08-07 12:09:01,067724
-1,2,3,4,7,5,1,-1,2021-08-07 12:09:01,096726
1,4,5,6,7,3,2,-1,2021-08-07 12:09:01,096726
-1,-4,-6,-7,-14,-7,-3,-1,2021-08-07 12:09:01,096726
2,1,-1,-9,-4,-1,0,0,2021-08-07 12:09:01,096726
0,-1,2,11,13,4,4,0,2021-08-07 12:09:01,112725
-1,-1,0,5,3,0,1,-1,2021-08-07 12:09:01,128736
-2,-1,2,2,-1,-2,-1,-3,2021-08-07 12:09:01,128736
-2,-1,-5,-11,-7,-4,-3,-2,2021-08-07 12:09:01,128736
-1,0,-5,-12,-15,-7,-5,0,2021-08-07 12:09:01,128736
-1,-1,4,17,19,7,3,0,2021-08-07 12:09:01,128736
-3,-4,-4,-7,-9,-4,0,-3,2021-08-07 12:09:01,129726
-3,-1,-1,9,6,3,0,2,2021-08-07 12:09:01,129726
0,1,-3,-10,-3,0,-1,-1,2021-08-07 12:09:01,144726
-2,0,2,5,-1,-3,-1,-1,2021-08-07 12:09:01,160725
-2,-3,-6,-11,-7,-3,-4,-2,2021-08-07 12:09:01,160725
0,1,1,-2,-6,-5,-1,0,2021-08-07 12:09:01,175725
0,1,2,10,15,4,1,-1,2021-08-07 12:09:01,175725
-3,-3,-4,0,-1,-2,-3,-3,2021-08-07 12:09:01,175725
-3,-4,-6,-7,3,1,1,-1,2021-08-07 12:09:01,175725
0,2,1,2,-1,0,-1,-1,2021-08-07 12:09:01,175725
0,-2,-4,-7,-13,-7,-4,-1,2021-08-07 12:09:01,191726
-1,0,-2,-5,0,0,0,-1,2021-08-07 12:09:01,191726
-3,-3,-2,3,5,1,1,-3,2021-08-07 12:09:01,191726
-1,-1,1,3,0,0,0,1,2021-08-07 12:09:01,191726
0,2,3,2,-3,-2,-2,-2,2021-08-07 12:09:01,207726
-2,-4,-7,-8,-4,-3,-4,1,2021-08-07 12:09:01,223725
-2,-1,-1,-4,-8,-3,-3,0,2021-08-07 12:09:01,223725
2,1,-1,8,10,5,3,2,2021-08-07 12:09:01,223725
-1,0,1,5,10,5,2,-1,2021-08-07 12:09:01,223725
-1,-2,1,-4,-3,-2,-2,-1,2021-08-07 12:09:01,223725
0,2,0,0,-3,-4,-2,0,2021-08-07 12:09:01,239723
-1,-3,-5,-7,-8,-5,-2,-1,2021-08-07 12:09:01,239723
-3,-5,-8,-9,-11,-6,-4,-1,2021-08-07 12:09:01,270727
3,3,0,-4,0,2,3,3,2021-08-07 12:09:01,286728
1,2,3,7,9,5,3,0,2021-08-07 12:09:01,286728
-4,-4,0,-3,-1,0,-2,-3,2021-08-07 12:09:01,286728
-6,-4,-2,-1,-3,-3,-5,-5,2021-08-07 12:09:01,286728
-3,-2,-3,-8,-13,-8,-7,-5,2021-08-07 12:09:01,286728
3,5,6,3,3,0,-1,1,2021-08-07 12:09:01,286728
2,2,0,6,7,4,0,1,2021-08-07 12:09:01,286728
-1,-3,0,-2,0,0,0,1,2021-08-07 12:09:01,286728
-1,0,1,4,1,0,-1,-1,2021-08-07 12:09:01,286728
-2,-4,-2,-1,-5,-3,-2,-3,2021-08-07 12:09:01,287726
2,1,3,1,2,1,2,0,2021-08-07 12:09:01,287726
2,0,-4,-4,-3,-1,0,-2,2021-08-07 12:09:01,318725
-3,-3,-5,-10,-7,-5,-2,-3,2021-08-07 12:09:01,334725
0,0,2,5,5,3,2,1,2021-08-07 12:09:01,350725
-3,-2,1,3,0,-2,0,-1,2021-08-07 12:09:01,350725
1,0,1,3,1,-1,-1,-1,2021-08-07 12:09:01,350725
0,-1,0,2,0,1,0,0,2021-08-07 12:09:01,350725
-1,-2,-4,-6,-6,-3,-3,-2,2021-08-07 12:09:01,350725
-2,-2,-6,-10,-12,-5,-3,-2,2021-08-07 12:09:01,351726
0,0,0,-2,5,1,0,0,2021-08-07 12:09:01,351726
0,3,5,17,12,5,3,0,2021-08-07 12:09:01,351726
-3,-8,-9,-12,-13,-9,-5,-3,2021-08-07 12:09:01,351726
3,5,8,9,4,6,3,5,2021-08-07 12:09:01,351726
-1,0,-2,3,6,0,-3,-1,2021-08-07 12:09:01,381725
-2,-4,-4,-3,-1,-1,0,0,2021-08-07 12:09:01,390725
0,3,2,3,-1,1,-1,1,2021-08-07 12:09:01,390725
-1,1,-3,-11,-12,-7,-3,0,2021-08-07 12:09:01,390725
1,1,2,4,2,4,1,1,2021-08-07 12:09:01,390725
-1,-3,-3,-3,-3,-4,-1,-3,2021-08-07 12:09:01,391724
1,0,0,-1,0,0,-1,0,2021-08-07 12:09:01,391724
-3,-7,-7,-10,-8,-6,-4,-5,2021-08-07 12:09:01,391724
-3,0,-2,0,3,1,-2,-1,2021-08-07 12:09:01,413723
-1,-3,-2,2,9,4,-1,-1,2021-08-07 12:09:01,429724
3,6,5,13,7,4,4,2,2021-08-07 12:09:01,429724
-2,-3,-4,-4,3,0,0,-2,2021-08-07 12:09:01,445724
2,0,0,0,-7,-3,-1,0,2021-08-07 12:09:01,461726
-3,-5,-6,-10,-14,-8,-5,-3,2021-08-07 12:09:01,461726
0,0,0,0,1,0,-1,0,2021-08-07 12:09:01,461726
-2,-3,-3,-3,-1,-2,-2,-1,2021-08-07 12:09:01,461726
1,2,5,11,5,2,1,3,2021-08-07 12:09:01,476725
-1,0,1,-2,-3,-1,-1,-2,2021-08-07 12:09:01,492725
1,-2,-3,-2,1,-1,-1,0,2021-08-07 12:09:01,508725
-2,0,-1,4,6,3,0,-2,2021-08-07 12:09:01,508725
-1,-4,-4,-7,-9,-8,-3,-1,2021-08-07 12:09:01,508725
0,0,1,1,-2,-2,1,1,2021-08-07 12:09:01,508725
-2,1,1,-2,1,0,-2,1,2021-08-07 12:09:01,508725
-1,-3,-6,-8,-5,-4,-2,-1,2021-08-07 12:09:01,509726
2,2,6,10,11,5,2,1,2021-08-07 12:09:01,509726
0,-1,-3,-3,-3,-3,-1,0,2021-08-07 12:09:01,509726
-5,-5,-1,3,3,1,-1,-2,2021-08-07 12:09:01,509726
0,0,3,-1,-4,-2,-1,-1,2021-08-07 12:09:01,509726
-4,-2,-4,-5,-2,-2,0,-3,2021-08-07 12:09:01,509726
-1,-1,0,0,1,1,0,1,2021-08-07 12:09:01,510725
0,-1,-3,0,2,0,-1,0,2021-08-07 12:09:01,510725
1,3,4,7,4,2,0,-1,2021-08-07 12:09:01,510725
-2,-3,-4,-5,-6,-2,-1,-3,2021-08-07 12:09:01,538724
1,0,1,-1,-2,-1,0,0,2021-08-07 12:09:01,569726
-3,-2,-4,-7,-5,-4,-2,-2,2021-08-07 12:09:01,569726
-3,-3,-1,1,2,0,-1,-2,2021-08-07 12:09:01,569726
-2,-3,-3,-4,-5,-2,-2,-1,2021-08-07 12:09:01,569726
2,3,1,2,2,1,2,2,2021-08-07 12:09:01,569726
1,1,0,-2,-2,0,1,-1,2021-08-07 12:09:01,569726
-2,0,-1,2,-1,-1,-1,1,2021-08-07 12:09:01,570726
-5,-5,-6,-12,-11,-6,-4,-5,2021-08-07 12:09:01,570726
0,0,4,12,13,6,2,3,2021-08-07 12:09:01,570726
0,0,1,-6,-5,-2,1,0,2021-08-07 12:09:01,570726
2,4,9,24,23,10,5,2,2021-08-07 12:09:01,570726
-2,-4,-6,-10,-15,-8,-5,-1,2021-08-07 12:09:01,585742
-2,-3,-5,-10,-11,-7,-5,-3,2021-08-07 12:09:01,585742
-1,-1,4,7,11,4,1,0,2021-08-07 12:09:01,585742
-3,-5,-6,-13,-10,-7,-2,-2,2021-08-07 12:09:01,585742
1,3,6,12,10,6,4,1,2021-08-07 12:09:01,617726
0,1,-1,-2,2,0,0,1,2021-08-07 12:09:01,617726
-1,-1,-4,-4,-6,-3,-2,0,2021-08-07 12:09:01,617726
-4,-1,-3,-3,-3,-2,-2,-2,2021-08-07 12:09:01,617726
-2,-3,-3,-3,-6,-3,-2,-1,2021-08-07 12:09:01,617726
-6,-7,-8,-9,-9,-5,-6,-5,2021-08-07 12:09:01,617726
-1,-1,0,-2,-2,-1,-2,-2,2021-08-07 12:09:01,633724
2,0,2,1,4,3,1,1,2021-08-07 12:09:01,633724
-1,0,-2,1,3,2,0,0,2021-08-07 12:09:01,649725
3,3,2,2,1,3,1,1,2021-08-07 12:09:01,665726
-3,-2,-3,-5,-6,-3,-2,-2,2021-08-07 12:09:01,697725
0,-1,-1,0,-3,-2,-2,-1,2021-08-07 12:09:01,713724
-1,-1,-2,-7,-2,-1,1,-1,2021-08-07 12:09:01,713724
0,-2,0,6,1,0,0,-3,2021-08-07 12:09:01,713724
-2,-2,-4,-1,-3,-4,-2,-2,2021-08-07 12:09:01,713724
1,0,1,1,4,2,2,1,2021-08-07 12:09:01,713724
0,0,0,-1,1,-1,-1,-1,2021-08-07 12:09:01,713724
-3,-1,-1,-5,-2,-2,0,-3,2021-08-07 12:09:01,713724
0,0,-1,-5,-9,-4,-2,-1,2021-08-07 12:09:01,713724
0,1,-1,3,3,2,0,0,2021-08-07 12:09:01,713724
-3,-2,-1,2,6,2,-2,0,2021-08-07 12:09:01,713724
-1,0,-2,-2,-3,-1,-1,0,2021-08-07 12:09:01,714724
-2,-4,-2,-3,-6,-3,-2,-2,2021-08-07 12:09:01,714724
-2,-3,-3,-4,-4,-3,-2,-1,2021-08-07 12:09:01,714724
2,2,4,9,6,3,3,2,2021-08-07 12:09:01,729724
-2,-3,-1,-4,0,-2,-2,-1,2021-08-07 12:09:01,729724
3,3,6,10,11,7,3,3,2021-08-07 12:09:01,729724
0,-2,-1,1,-6,-3,-2,-2,2021-08-07 12:09:01,729724
-5,-8,-6,-6,-6,-5,-3,-3,2021-08-07 12:09:01,745725
-2,-3,-6,-13,-9,-6,-3,-1,2021-08-07 12:09:01,761725
3,2,0,-3,-1,0,-1,1,2021-08-07 12:09:01,761725
-1,0,0,0,0,0,0,-1,2021-08-07 12:09:01,761725
-1,0,0,-4,-3,0,-1,-1,2021-08-07 12:09:01,761725
-6,-4,-2,-1,-2,-2,-3,-3,2021-08-07 12:09:01,761725
-3,-3,-3,-3,0,-1,-1,-1,2021-08-07 12:09:01,762726
-2,-1,0,1,3,0,-2,-2,2021-08-07 12:09:01,762726
0,-1,-5,-8,-11,-4,-5,-3,2021-08-07 12:09:01,793724
2,0,-1,-3,-4,0,0,2,2021-08-07 12:09:01,809726
0,5,5,13,12,5,3,1,2021-08-07 12:09:01,841726
0,0,5,14,18,8,4,1,2021-08-07 12:09:01,856725
-6,-2,-4,-6,-6,-4,-4,-3,2021-08-07 12:09:01,856725
5,4,9,9,5,2,3,1,2021-08-07 12:09:01,857725
-2,-5,-7,-8,-14,-6,-5,-3,2021-08-07 12:09:01,857725
-1,-3,-4,-8,0,-1,-3,-1,2021-08-07 12:09:01,857725
2,3,3,4,3,1,1,1,2021-08-07 12:09:01,857725
-3,-3,-3,-1,-1,-2,-2,-3,2021-08-07 12:09:01,857725
-3,-2,-4,-7,-7,-4,-2,-2,2021-08-07 12:09:01,857725
-1,-1,-1,-10,-15,-8,-3,-2,2021-08-07 12:09:01,857725
3,5,3,5,6,2,3,3,2021-08-07 12:09:01,858725
3,0,3,11,11,4,2,0,2021-08-07 12:09:01,858725
-2,-4,-1,0,0,-1,0,-2,2021-08-07 12:09:01,858725
-4,-4,-6,-8,-9,-5,-2,-1,2021-08-07 12:09:01,858725
-1,0,0,-2,-5,-3,-1,-2,2021-08-07 12:09:01,858725
-1,-1,-2,1,2,1,-2,-2,2021-08-07 12:09:01,858725
1,2,2,4,6,2,1,1,2021-08-07 12:09:01,873725
-1,-2,-2,-6,-7,-3,-3,-1,2021-08-07 12:09:01,873725
-5,-3,-3,-2,-2,-2,-3,-3,2021-08-07 12:09:01,889723
-3,-2,-5,-10,-10,-4,-2,-2,2021-08-07 12:09:01,889723
0,0,0,-1,-1,1,-1,-1,2021-08-07 12:09:01,889723
4,6,8,15,15,8,6,3,2021-08-07 12:09:01,889723
-2,-3,2,10,8,2,0,-2,2021-08-07 12:09:01,921725
-6,-5,-4,-1,-1,-1,-2,-3,2021-08-07 12:09:01,936726
0,1,2,-1,-1,-1,0,1,2021-08-07 12:09:01,984723
-3,-2,-4,-9,-11,-6,-4,-3,2021-08-07 12:09:01,999724
-2,-3,-5,-6,-5,-3,-1,-2,2021-08-07 12:09:02,015727
1,1,1,2,2,2,3,0,2021-08-07 12:09:02,015727
1,-1,-1,-2,-1,-1,-1,0,2021-08-07 12:09:02,015727
-2,-3,-3,3,5,3,-1,-5,2021-08-07 12:09:02,015727
1,0,1,2,1,1,0,0,2021-08-07 12:09:02,015727
-3,-3,-2,-6,-7,-4,-2,0,2021-08-07 12:09:02,015727
-2,-1,-2,2,1,0,0,-1,2021-08-07 12:09:02,016726
1,0,1,-6,-2,-1,0,0,2021-08-07 12:09:02,016726
-5,-4,-2,3,-2,-3,-3,-2,2021-08-07 12:09:02,016726
2,2,-2,-7,-6,0,0,2,2021-08-07 12:09:02,016726
4,6,7,11,19,10,5,1,2021-08-07 12:09:02,016726
-2,-1,-1,-1,-6,-4,-2,-2,2021-08-07 12:09:02,016726
-4,-4,-5,-11,-16,-9,-6,-3,2021-08-07 12:09:02,016726
2,4,4,5,12,3,1,0,2021-08-07 12:09:02,031725
1,1,2,12,19,8,2,1,2021-08-07 12:09:02,063724
0,-1,-3,-4,-3,-1,-1,0,2021-08-07 12:09:02,063724
2,2,0,-3,-2,0,1,1,2021-08-07 12:09:02,063724
-4,-5,-8,-15,-17,-7,-2,-1,2021-08-07 12:09:02,063724
-2,-2,-2,-5,-4,-1,-1,-3,2021-08-07 12:09:02,063724
-1,0,1,4,1,0,1,-2,2021-08-07 12:09:02,064725
-3,-3,-2,-1,2,1,-3,-2,2021-08-07 12:09:02,064725
0,3,3,5,5,1,-4,-1,2021-08-07 12:09:02,064725
-1,-1,-2,-4,-8,-5,-5,-2,2021-08-07 12:09:02,064725
3,2,1,-2,-3,-2,-3,-1,2021-08-07 12:09:02,064725
-2,-4,-5,-7,-5,-5,-1,-2,2021-08-07 12:09:02,064725
3,4,1,-1,0,0,2,1,2021-08-07 12:09:02,064725
-2,-4,-4,-6,-6,0,0,-1,2021-08-07 12:09:02,065728
-2,-2,-5,-9,-5,-3,-1,0,2021-08-07 12:09:02,065728
1,1,10,23,13,6,3,1,2021-08-07 12:09:02,079725
-3,-4,-2,3,1,0,-2,-3,2021-08-07 12:09:02,095727
0,1,0,-1,-3,-3,-2,0,2021-08-07 12:09:02,111725
-1,-2,-5,-5,-1,0,1,1,2021-08-07 12:09:02,111725
1,-1,-6,-8,-1,-1,-1,-1,2021-08-07 12:09:02,111725
-1,-2,1,4,0,-1,0,1,2021-08-07 12:09:02,111725
-3,0,-1,-4,-8,-2,-3,-1,2021-08-07 12:09:02,111725
-4,-2,-2,-2,-5,-6,-4,-3,2021-08-07 12:09:02,111725
0,0,0,3,6,3,0,0,2021-08-07 12:09:02,112726
-1,0,0,3,2,-1,-1,-3,2021-08-07 12:09:02,112726
-2,-1,-6,-5,-1,-2,1,0,2021-08-07 12:09:02,127726
0,0,4,7,6,3,0,0,2021-08-07 12:09:02,127726
-3,-4,-4,-11,-13,-3,-4,-2,2021-08-07 12:09:02,127726
0,0,0,2,5,1,-1,-1,2021-08-07 12:09:02,127726
-1,-2,-1,1,4,2,0,-2,2021-08-07 12:09:02,127726
2,3,4,4,-2,1,1,1,2021-08-07 12:09:02,128725
-1,0,1,2,2,0,0,-1,2021-08-07 12:09:02,158727
-3,-5,-5,-4,-5,-3,-2,-2,2021-08-07 12:09:02,174726
-3,-4,-6,-9,-9,-5,-3,-2,2021-08-07 12:09:02,190725
1,1,3,9,2,0,1,0,2021-08-07 12:09:02,206725
3,2,-1,-6,0,0,2,0,2021-08-07 12:09:02,206725
0,-1,-3,-2,0,1,-1,-2,2021-08-07 12:09:02,206725
0,1,4,8,-1,-2,-1,-1,2021-08-07 12:09:02,206725
-1,-1,-4,-7,-3,-2,-1,-1,2021-08-07 12:09:02,206725
-3,1,0,0,0,-3,-1,-1,2021-08-07 12:09:02,207727
1,1,2,-1,0,0,1,0,2021-08-07 12:09:02,207727
3,1,3,4,1,1,1,0,2021-08-07 12:09:02,207727
-4,-7,-5,-8,-5,-5,-4,-3,2021-08-07 12:09:02,207727
-2,-2,-5,-7,-8,-6,-4,-1,2021-08-07 12:09:02,207727
0,-1,3,9,13,6,2,1,2021-08-07 12:09:02,207727
2,1,0,-1,7,3,1,0,2021-08-07 12:09:02,207727
-1,-1,0,-1,0,1,0,-2,2021-08-07 12:09:02,207727
1,1,2,0,-1,-1,1,-1,2021-08-07 12:09:02,254724
0,3,-1,0,-5,-2,-1,1,2021-08-07 12:09:02,254724
1,4,2,-3,-6,-1,-2,-1,2021-08-07 12:09:02,254724
-5,-4,-5,-4,2,-1,-2,-1,2021-08-07 12:09:02,254724
-1,0,0,-1,-3,0,1,-1,2021-08-07 12:09:02,254724
-1,-4,-4,-5,-5,-4,-2,-2,2021-08-07 12:09:02,255727
-3,-2,-2,-1,-2,-3,-1,-2,2021-08-07 12:09:02,255727
1,2,-2,-8,-6,-2,-1,0,2021-08-07 12:09:02,255727
-1,-1,0,7,12,3,1,0,2021-08-07 12:09:02,270725
1,3,7,9,4,3,2,2,2021-08-07 12:09:02,286725
-3,-4,-8,-15,-16,-9,-5,-3,2021-08-07 12:09:02,286725
0,-1,-3,-2,-1,0,-1,1,2021-08-07 12:09:02,286725
-1,-2,-2,1,3,0,-2,-2,2021-08-07 12:09:02,286725
-3,-2,-3,-5,-3,-2,0,-2,2021-08-07 12:09:02,286725
0,0,4,7,2,0,0,0,2021-08-07 12:09:02,286725
-2,-2,-2,-2,-3,-3,-1,-2,2021-08-07 12:09:02,287728
-2,-4,-4,-4,-4,-3,-3,-2,2021-08-07 12:09:02,316727
3,3,1,0,2,1,1,2,2021-08-07 12:09:02,317725
2,4,2,1,0,2,0,2,2021-08-07 12:09:02,317725
-1,-1,-3,-2,-4,-2,-2,-2,2021-08-07 12:09:02,317725
-1,-1,-1,3,9,5,0,0,2021-08-07 12:09:02,334726
-4,-6,-3,-2,-6,-3,-3,-3,2021-08-07 12:09:02,334726
1,0,1,5,4,2,1,1,2021-08-07 12:09:02,334726
-1,2,0,1,-1,-2,0,0,2021-08-07 12:09:02,334726
0,0,-1,-6,-10,-6,-3,-1,2021-08-07 12:09:02,364724
-3,-3,-4,-3,1,0,0,-1,2021-08-07 12:09:02,364724
-1,-1,-2,5,6,1,-2,-2,2021-08-07 12:09:02,364724
-1,-3,-4,-5,-2,-2,-1,-2,2021-08-07 12:09:02,364724
-3,-4,-3,-7,-5,-2,-2,-2,2021-08-07 12:09:02,364724
-1,-2,0,0,-5,-3,-2,-1,2021-08-07 12:09:02,365728
-4,-5,-7,-12,-3,-2,-2,-1,2021-08-07 12:09:02,380725
4,5,9,18,13,8,5,3,2021-08-07 12:09:02,380725
-1,0,-3,-4,-7,-3,-2,-1,2021-08-07 12:09:02,396725
-2,-2,-1,1,0,0,-1,-1,2021-08-07 12:09:02,412725
-6,-4,-7,-9,-11,-7,-4,-4,2021-08-07 12:09:02,428726
-3,-2,-1,-6,0,-2,-2,-2,2021-08-07 12:09:02,444726
2,0,1,3,4,0,3,1,2021-08-07 12:09:02,444726
-1,2,1,-4,0,0,0,-1,2021-08-07 12:09:02,444726
1,0,-1,3,4,2,2,1,2021-08-07 12:09:02,444726
-2,-2,-4,-6,-8,-5,-2,-1,2021-08-07 12:09:02,444726
0,0,1,2,0,-2,-3,-1,2021-08-07 12:09:02,459728
-1,-2,-3,-4,-5,-4,-1,-1,2021-08-07 12:09:02,475725
1,-1,1,7,10,5,1,-1,2021-08-07 12:09:02,475725
2,1,1,5,8,6,2,0,2021-08-07 12:09:02,475725
-1,-2,-4,-14,-18,-10,-4,-3,2021-08-07 12:09:02,475725
-2,-1,-2,0,3,1,-3,-1,2021-08-07 12:09:02,475725
-2,-1,1,-1,-2,-2,-1,-1,2021-08-07 12:09:02,475725
1,1,7,14,10,5,3,1,2021-08-07 12:09:02,475725
0,2,1,4,8,6,2,0,2021-08-07 12:09:02,475725
-1,-1,-1,-3,-6,-3,-1,0,2021-08-07 12:09:02,476727
2,2,4,11,11,7,5,3,2021-08-07 12:09:02,476727
-4,-4,-5,-8,-11,-6,-4,-3,2021-08-07 12:09:02,476727
-1,-2,-5,-10,-11,-5,-3,-2,2021-08-07 12:09:02,491726
1,1,-1,0,0,-1,-2,-2,2021-08-07 12:09:02,491726
-1,-3,-3,-9,-9,-3,-5,-2,2021-08-07 12:09:02,507724
-4,-2,-3,-8,-8,-5,-4,-2,2021-08-07 12:09:02,523725
2,2,3,9,9,5,1,3,2021-08-07 12:09:02,523725
-2,-3,-7,-7,-9,-4,-1,0,2021-08-07 12:09:02,523725
-2,-4,-3,-2,5,0,-2,-1,2021-08-07 12:09:02,523725
1,1,1,2,-1,1,1,1,2021-08-07 12:09:02,523725
0,-1,1,2,1,-1,-1,0,2021-08-07 12:09:02,539725
6,7,8,10,7,4,4,3,2021-08-07 12:09:02,539725
0,-1,-4,-3,-5,-2,-1,-2,2021-08-07 12:09:02,539725
-3,-4,-2,-3,-3,-4,-3,-3,2021-08-07 12:09:02,540724
-3,-4,-3,-6,-5,-3,-5,-2,2021-08-07 12:09:02,540724
-5,-7,-6,-13,-16,-8,-6,-4,2021-08-07 12:09:02,540724
3,2,2,6,10,6,3,4,2021-08-07 12:09:02,555725
2,0,1,9,14,4,1,-1,2021-08-07 12:09:02,555725
1,1,-2,-2,-1,0,2,0,2021-08-07 12:09:02,571725
1,2,4,13,9,4,1,-1,2021-08-07 12:09:02,571725
-4,-3,-6,-14,-15,-8,-4,-2,2021-08-07 12:09:02,571725
-3,-2,-4,-7,-7,-3,-3,-4,2021-08-07 12:09:02,571725
-1,-1,-2,-3,-4,-2,-1,-2,2021-08-07 12:09:02,603725
2,-1,2,3,7,3,3,-1,2021-08-07 12:09:02,619726
-1,1,2,6,1,-1,1,-1,2021-08-07 12:09:02,666724
1,-1,-3,-4,-2,-2,-1,0,2021-08-07 12:09:02,666724
-6,-6,-5,-5,-5,-5,-4,-5,2021-08-07 12:09:02,666724
-7,-8,-8,-16,-13,-7,-5,-3,2021-08-07 12:09:02,666724
5,11,14,16,9,7,4,4,2021-08-07 12:09:02,666724
2,1,4,12,7,2,1,0,2021-08-07 12:09:02,666724
1,2,4,4,6,3,1,1,2021-08-07 12:09:02,667725
-1,-2,-3,1,-1,-1,-2,-3,2021-08-07 12:09:02,667725
-4,-6,-4,-7,-2,-4,-2,-3,2021-08-07 12:09:02,667725
-4,-5,-6,-11,-14,-9,-5,-3,2021-08-07 12:09:02,667725
-1,2,-1,1,4,1,1,1,2021-08-07 12:09:02,667725
-1,-1,-2,0,-4,-3,-2,0,2021-08-07 12:09:02,667725
4,4,7,13,11,7,3,2,2021-08-07 12:09:02,667725
0,-1,-2,-6,-2,1,1,-1,2021-08-07 12:09:02,668726
-1,0,2,9,3,0,-1,-1,2021-08-07 12:09:02,668726
1,2,-1,-6,2,2,1,1,2021-08-07 12:09:02,668726
-2,-3,-4,-1,-5,-4,-2,-2,2021-08-07 12:09:02,668726
-1,0,-1,-4,-6,-4,-1,-2,2021-08-07 12:09:02,668726
-3,-6,-3,-5,-3,-2,-1,-3,2021-08-07 12:09:02,698725
-2,-1,-3,-2,-2,-2,-1,0,2021-08-07 12:09:02,698725
3,3,2,-2,-4,-1,-2,-2,2021-08-07 12:09:02,698725
-2,-3,-1,-1,0,1,-1,-1,2021-08-07 12:09:02,698725
1,-1,-2,-3,-4,-2,-1,0,2021-08-07 12:09:02,714723
1,-1,2,4,3,1,2,0,2021-08-07 12:09:02,714723
-3,-5,-3,0,1,-1,0,-1,2021-08-07 12:09:02,730724
-3,-1,-2,-2,-3,-2,-1,-1,2021-08-07 12:09:02,746723
0,1,1,2,3,1,-1,-1,2021-08-07 12:09:02,762723
0,-1,-1,-4,-6,-4,-2,0,2021-08-07 12:09:02,770725
-3,-6,-7,-7,-10,-5,-4,-1,2021-08-07 12:09:02,771726
-1,-1,1,10,17,5,0,1,2021-08-07 12:09:02,771726
6,6,5,8,4,3,4,3,2021-08-07 12:09:02,771726
6,8,9,14,9,4,2,5,2021-08-07 12:09:02,771726
-2,-2,-7,-12,-9,-6,-4,-3,2021-08-07 12:09:02,772724
-7,-8,-7,-3,-5,-6,-4,-6,2021-08-07 12:09:02,772724
3,5,3,-3,0,-1,2,4,2021-08-07 12:09:02,772724
-3,-4,-3,0,-2,-1,-4,-5,2021-08-07 12:09:02,772724
0,1,3,0,-1,1,-2,-1,2021-08-07 12:09:02,772724
-1,-1,-1,-3,-4,-2,-2,-1,2021-08-07 12:09:02,772724
-6,-5,-3,-3,0,-1,-2,-4,2021-08-07 12:09:02,793725
-2,-2,-1,-1,-2,0,-1,0,2021-08-07 12:09:02,809725
-1,-2,-2,0,2,-1,0,-1,2021-08-07 12:09:02,809725
0,0,0,-2,-6,-2,-1,0,2021-08-07 12:09:02,809725
-4,-3,-6,-4,-4,-1,-3,-3,2021-08-07 12:09:02,809725
0,0,-3,-8,-10,-5,-4,0,2021-08-07 12:09:02,809725
1,-2,0,10,16,7,2,0,2021-08-07 12:09:02,809725
-1,-3,-2,2,1,1,0,2,2021-08-07 12:09:02,810724
6,5,3,4,5,4,5,4,2021-08-07 12:09:02,840724
-2,-3,-4,-3,-1,1,2,-1,2021-08-07 12:09:02,855725
-4,-2,-5,-13,-16,-8,-4,-2,2021-08-07 12:09:02,855725
-4,0,0,2,3,0,-1,-3,2021-08-07 12:09:02,855725
-4,-2,3,7,5,0,-4,-3,2021-08-07 12:09:02,855725
0,2,2,2,4,1,-1,1,2021-08-07 12:09:02,855725
-5,-8,-7,-11,-13,-10,-6,-6,2021-08-07 12:09:02,855725
10,10,6,3,4,5,3,7,2021-08-07 12:09:02,855725
0,2,3,6,2,2,0,1,2021-08-07 12:09:02,871725
3,1,0,1,1,0,0,0,2021-08-07 12:09:02,887723
-3,-1,-2,-3,-3,-1,0,1,2021-08-07 12:09:02,918725
-5,-7,-7,-13,-14,-8,-6,-5,2021-08-07 12:09:02,934725
-3,-4,-1,3,7,3,2,-1,2021-08-07 12:09:02,934725
1,2,-1,-1,-2,0,0,1,2021-08-07 12:09:02,934725
-2,-4,-6,-9,-13,-6,-6,-3,2021-08-07 12:09:02,934725
0,2,2,5,15,8,3,2,2021-08-07 12:09:02,934725
0,1,1,4,0,-1,-1,-1,2021-08-07 12:09:02,934725
-3,-4,-5,-8,0,-1,-1,-2,2021-08-07 12:09:02,934725
1,0,4,5,0,-1,1,-2,2021-08-07 12:09:02,934725
-1,-1,-5,-15,-16,-10,-2,-2,2021-08-07 12:09:02,934725
-1,-5,-3,-1,1,0,-2,-2,2021-08-07 12:09:02,934725
0,3,5,4,4,2,0,1,2021-08-07 12:09:02,935725
1,4,1,1,1,0,0,0,2021-08-07 12:09:02,935725
-3,-3,-2,-7,-9,-5,-2,-2,2021-08-07 12:09:02,935725
-5,-6,-6,-9,-5,-5,-4,-1,2021-08-07 12:09:02,950726
-4,-4,-2,-2,-3,-2,-1,-2,2021-08-07 12:09:02,950726
4,4,4,4,8,6,4,4,2021-08-07 12:09:02,950726
1,1,6,18,15,6,4,-1,2021-08-07 12:09:02,950726
-2,-2,-5,-9,-11,-7,-3,-1,2021-08-07 12:09:02,966725
-5,-8,-5,-3,-4,-4,-4,-4,2021-08-07 12:09:02,966725
6,9,8,5,0,4,4,4,2021-08-07 12:09:02,982727
-1,-1,-3,-5,-6,-4,-1,-1,2021-08-07 12:09:02,998725
-2,-3,-4,-7,-7,-3,-2,0,2021-08-07 12:09:03,014725
3,3,6,14,12,7,4,4,2021-08-07 12:09:03,014725
-4,-4,-5,-4,-3,-3,-3,-3,2021-08-07 12:09:03,014725
-1,1,2,1,0,-1,-1,1,2021-08-07 12:09:03,014725
-1,-2,-1,-7,-9,-5,-3,-3,2021-08-07 12:09:03,014725
0,0,-1,1,3,1,1,1,2021-08-07 12:09:03,015726
-2,-4,-3,1,4,2,-1,-3,2021-08-07 12:09:03,030726
-1,-2,-1,-3,-3,-2,-3,-1,2021-08-07 12:09:03,030726
-2,-4,-4,-3,-2,-3,-4,-2,2021-08-07 12:09:03,030726
5,5,3,-2,-1,1,2,1,2021-08-07 12:09:03,030726
-1,1,0,0,2,-1,1,-1,2021-08-07 12:09:03,030726
1,-1,-2,1,-2,1,-1,0,2021-08-07 12:09:03,030726
-3,-3,-2,-2,-4,-2,-3,-2,2021-08-07 12:09:03,046725
-3,-4,-4,-7,-4,-3,-2,-2,2021-08-07 12:09:03,046725
-1,-2,-1,-2,-2,-4,-1,-1,2021-08-07 12:09:03,046725
-1,0,4,10,8,1,2,-1,2021-08-07 12:09:03,046725
-2,-1,-3,-2,-4,-2,0,0,2021-08-07 12:09:03,078725
-2,-4,-7,-14,-10,-6,-3,-2,2021-08-07 12:09:03,078725
-3,-3,-2,-1,0,0,-1,-1,2021-08-07 12:09:03,078725
4,5,3,-1,-2,-1,-1,1,2021-08-07 12:09:03,078725
4,5,7,15,10,5,3,2,2021-08-07 12:09:03,093725
-2,-1,-1,-2,-4,-4,-1,-1,2021-08-07 12:09:03,109724
-2,-5,-7,-8,-4,-3,-1,-1,2021-08-07 12:09:03,109724
-4,-7,-6,-8,-5,-3,-2,-2,2021-08-07 12:09:03,109724
-1,-1,1,-1,1,1,-1,0,2021-08-07 12:09:03,109724
-2,-3,-1,2,-2,-2,-4,-2,2021-08-07 12:09:03,109724
1,1,3,4,3,2,2,2,2021-08-07 12:09:03,109724
-2,-1,0,-1,-2,-2,0,-2,2021-08-07 12:09:03,110725
-1,-1,-4,-5,-5,-3,1,-3,2021-08-07 12:09:03,140725
-2,-2,-5,-9,-9,-2,-1,-2,2021-08-07 12:09:03,140725
-1,-1,2,5,7,1,0,0,2021-08-07 12:09:03,140725
1,2,4,14,13,8,1,1,2021-08-07 12:09:03,140725
-1,-3,-2,-1,-4,-3,-2,-3,2021-08-07 12:09:03,156724
0,2,1,7,4,0,0,0,2021-08-07 12:09:03,156724
-2,-1,-7,-17,-15,-11,-4,-5,2021-08-07 12:09:03,156724
-1,0,1,3,-3,-1,-1,0,2021-08-07 12:09:03,156724
1,-1,0,-3,-3,-4,-1,1,2021-08-07 12:09:03,172725
-3,0,2,2,7,5,1,-1,2021-08-07 12:09:03,188728
2,0,3,14,26,10,5,3,2021-08-07 12:09:03,188728
-1,-2,-3,-10,-18,-8,-4,-4,2021-08-07 12:09:03,188728
0,0,-1,1,7,1,0,-2,2021-08-07 12:09:03,188728
0,-1,1,6,-6,-6,-3,-2,2021-08-07 12:09:03,188728
-1,-1,-3,-11,-11,-3,-3,-2,2021-08-07 12:09:03,204725
-2,-4,-7,-12,-11,-6,-3,-3,2021-08-07 12:09:03,217723
-1,-3,-4,-8,-11,-6,-3,-1,2021-08-07 12:09:03,217723
3,-1,1,-1,6,3,0,1,2021-08-07 12:09:03,217723
1,2,4,12,11,8,3,0,2021-08-07 12:09:03,217723
-2,-2,0,0,4,0,-2,0,2021-08-07 12:09:03,218725
-3,-3,-3,-6,-7,-3,-1,0,2021-08-07 12:09:03,236729
-2,-2,-5,-7,-3,-1,-2,-1,2021-08-07 12:09:03,252726
-3,-3,-2,-6,-13,-6,-4,-2,2021-08-07 12:09:03,252726
0,0,2,7,10,1,0,0,2021-08-07 12:09:03,252726
0,0,1,6,6,2,0,1,2021-08-07 12:09:03,252726
1,0,1,7,7,2,1,0,2021-08-07 12:09:03,252726
-1,-2,-4,-8,-16,-8,-3,-2,2021-08-07 12:09:03,253726
-5,-6,-9,-14,-14,-8,-4,-3,2021-08-07 12:09:03,253726
1,2,4,12,20,13,5,5,2021-08-07 12:09:03,284725
4,6,10,21,28,14,5,4,2021-08-07 12:09:03,284725
-6,-9,-7,-6,-8,-4,-4,-4,2021-08-07 12:09:03,284725
5,7,4,0,-4,-2,-1,2,2021-08-07 12:09:03,284725
1,1,-3,-6,-7,-3,-1,0,2021-08-07 12:09:03,284725
-4,-3,-4,-6,-10,-4,-2,-4,2021-08-07 12:09:03,284725
0,1,2,3,6,3,1,-1,2021-08-07 12:09:03,300725
-6,-10,-8,-9,-3,-4,-3,-2,2021-08-07 12:09:03,300725
-3,-1,-4,-7,-12,-6,-4,-2,2021-08-07 12:09:03,316724
6,3,3,2,8,8,5,4,2021-08-07 12:09:03,332726
0,0,5,12,11,4,2,0,2021-08-07 12:09:03,332726
-3,-4,-6,-8,-12,-6,-4,-4,2021-08-07 12:09:03,332726
0,2,3,7,9,4,1,-1,2021-08-07 12:09:03,332726
-3,-6,-9,-18,-28,-14,-7,-3,2021-08-07 12:09:03,332726
-4,-6,-10,-17,-7,-4,-3,-3,2021-08-07 12:09:03,333725
9,10,19,44,46,25,14,9,2021-08-07 12:09:03,333725
4,5,1,-1,-4,-2,-1,-1,2021-08-07 12:09:03,348728
-4,-4,-3,-3,-8,-6,-4,-3,2021-08-07 12:09:03,348728
-4,-5,-3,-5,-11,-7,-5,-2,2021-08-07 12:09:03,348728
-2,-2,-6,-14,-10,-7,-5,0,2021-08-07 12:09:03,348728
-2,-3,-3,-5,-5,-1,-3,-2,2021-08-07 12:09:03,379726
1,1,3,2,-2,0,0,1,2021-08-07 12:09:03,395726
3,3,1,7,15,8,2,2,2021-08-07 12:09:03,395726
-4,-4,-3,-2,-1,0,-1,-3,2021-08-07 12:09:03,395726
-5,-8,-10,-16,-22,-12,-8,-4,2021-08-07 12:09:03,395726
4,5,10,17,12,3,3,3,2021-08-07 12:09:03,411726
-4,-5,-5,-4,3,4,1,-2,2021-08-07 12:09:03,411726
4,6,10,23,24,12,6,2,2021-08-07 12:09:03,411726
-3,-3,-3,0,4,2,1,-3,2021-08-07 12:09:03,411726
1,3,-2,-13,-16,-7,-3,-1,2021-08-07 12:09:03,411726
2,3,-1,-10,-21,-8,-4,1,2021-08-07 12:09:03,411726
3,4,6,14,18,10,5,3,2021-08-07 12:09:03,411726
0,0,-1,-7,-6,-3,-1,-2,2021-08-07 12:09:03,441725
-2,-3,-2,-1,4,0,0,-2,2021-08-07 12:09:03,441725
-2,-1,-2,-4,-9,-6,-2,-2,2021-08-07 12:09:03,441725
-7,-9,-11,-22,-22,-13,-8,-5,2021-08-07 12:09:03,441725
-3,-1,3,5,6,1,0,1,2021-08-07 12:09:03,457724
-5,-5,-3,-3,-2,0,-2,-3,2021-08-07 12:09:03,473725
4,6,5,3,-2,0,1,3,2021-08-07 12:09:03,489727
-4,-5,-8,-13,-11,-7,-5,-4,2021-08-07 12:09:03,489727
1,2,3,2,1,-1,-1,1,2021-08-07 12:09:03,489727
0,-1,-1,5,14,7,2,1,2021-08-07 12:09:03,489727
-3,-4,-2,-4,-4,-4,-2,-3,2021-08-07 12:09:03,489727
0,1,2,2,-9,-2,0,-2,2021-08-07 12:09:03,489727
3,2,1,0,3,1,1,2,2021-08-07 12:09:03,489727
4,6,2,9,11,5,5,1,2021-08-07 12:09:03,490726
-3,-5,-3,1,0,-2,-1,-3,2021-08-07 12:09:03,490726
-3,-2,1,2,2,-1,-2,-1,2021-08-07 12:09:03,490726
-3,-4,-3,-6,-5,-3,-2,-3,2021-08-07 12:09:03,521725
-5,-5,-5,-9,-9,-7,-3,-3,2021-08-07 12:09:03,521725
1,2,2,6,8,3,1,0,2021-08-07 12:09:03,521725
-1,-1,-4,-13,-13,-9,-1,-1,2021-08-07 12:09:03,521725
0,-2,-4,-4,-13,-5,-2,-3,2021-08-07 12:09:03,521725
0,0,1,3,11,4,-1,1,2021-08-07 12:09:03,521725
1,2,4,10,8,4,2,2,2021-08-07 12:09:03,552726
-1,-5,-7,-17,-15,-8,-5,-4,2021-08-07 12:09:03,552726
-2,0,1,3,11,5,2,-1,2021-08-07 12:09:03,568725
1,0,2,4,-2,-1,-1,-1,2021-08-07 12:09:03,584726
-1,-1,-2,-4,-8,-5,-5,-2,2021-08-07 12:09:03,600725
-3,-7,-9,-18,-14,-6,-5,-3,2021-08-07 12:09:03,600725
2,2,11,31,25,10,5,2,2021-08-07 12:09:03,632727
2,3,0,-10,-14,-2,-1,2,2021-08-07 12:09:03,632727
0,1,5,8,12,5,1,-1,2021-08-07 12:09:03,632727
2,3,5,9,2,0,0,-1,2021-08-07 12:09:03,632727
-3,-3,-6,-12,-12,-8,-5,-3,2021-08-07 12:09:03,632727
-7,-9,-10,-9,-9,-7,-5,-5,2021-08-07 12:09:03,632727
5,5,7,8,18,8,4,5,2021-08-07 12:09:03,632727
-1,3,0,-2,-2,0,-1,-1,2021-08-07 12:09:03,632727
-2,-3,-6,-5,-4,-2,-1,-2,2021-08-07 12:09:03,633726
-3,2,5,9,0,1,1,0,2021-08-07 12:09:03,633726
-5,-9,-12,-14,-15,-8,-6,-5,2021-08-07 12:09:03,633726
-3,-5,-5,-3,-4,-2,-2,-2,2021-08-07 12:09:03,633726
6,4,4,2,8,6,3,3,2021-08-07 12:09:03,633726
-3,-4,-3,1,2,-4,-7,-6,2021-08-07 12:09:03,633726
-1,5,3,-3,-9,-5,-2,-1,2021-08-07 12:09:03,633726
5,3,5,17,28,13,4,2,2021-08-07 12:09:03,634726
-3,-5,-9,-19,-20,-11,-5,-2,2021-08-07 12:09:03,648726
1,3,8,16,10,5,3,1,2021-08-07 12:09:03,648726
-5,-6,-7,-11,-10,-5,-3,-3,2021-08-07 12:09:03,648726
-3,-3,-2,3,5,1,1,0,2021-08-07 12:09:03,648726
8,11,11,16,24,14,6,6,2021-08-07 12:09:03,664724
-1,1,-2,-7,-5,-3,-3,0,2021-08-07 12:09:03,664724
0,1,0,-2,-6,-4,-2,-1,2021-08-07 12:09:03,664724
-3,-4,-8,-15,-22,-10,-6,-2,2021-08-07 12:09:03,665726
-5,-9,-8,-9,0,0,-2,-2,2021-08-07 12:09:03,711726
0,-2,-2,-2,-3,0,0,0,2021-08-07 12:09:03,727727
-2,0,0,8,10,4,4,0,2021-08-07 12:09:03,727727
-4,-2,-6,-21,-22,-11,-6,-7,2021-08-07 12:09:03,727727
3,5,11,22,18,8,3,1,2021-08-07 12:09:03,727727
2,4,5,8,17,8,2,1,2021-08-07 12:09:03,727727
0,-4,-2,5,4,1,-2,0,2021-08-07 12:09:03,727727
-4,-6,-8,-13,-12,-9,-7,-4,2021-08-07 12:09:03,728725
3,4,5,7,7,0,2,4,2021-08-07 12:09:03,728725
1,-2,-5,-12,-11,-5,1,-1,2021-08-07 12:09:03,728725
0,0,-1,0,-5,-5,-3,-2,2021-08-07 12:09:03,728725
0,1,6,18,21,8,3,3,2021-08-07 12:09:03,728725
-3,-3,-5,-12,-19,-10,-4,-2,2021-08-07 12:09:03,759725
-1,-3,-5,-6,6,3,1,0,2021-08-07 12:09:03,759725
0,3,5,5,0,1,2,1,2021-08-07 12:09:03,759725
2,2,1,0,1,2,2,0,2021-08-07 12:09:03,759725
-10,-10,-9,-13,-16,-10,-7,-7,2021-08-07 12:09:03,775725
1,-3,-4,-3,-5,-2,-1,-1,2021-08-07 12:09:03,775725
3,5,2,-3,-5,-1,1,2,2021-08-07 12:09:03,775725
-1,0,0,3,3,0,-1,-1,2021-08-07 12:09:03,775725
-2,-2,-4,0,7,3,0,0,2021-08-07 12:09:03,791724
0,0,3,4,-11,-7,-2,-1,2021-08-07 12:09:03,791724
-5,-8,-7,-3,1,-2,-4,-6,2021-08-07 12:09:03,791724
1,2,7,12,15,5,1,0,2021-08-07 12:09:03,791724
-1,1,-3,-13,-22,-9,-3,-2,2021-08-07 12:09:03,823724
-1,0,2,3,12,2,2,0,2021-08-07 12:09:03,823724
-3,-5,-6,-9,-14,-7,-3,-3,2021-08-07 12:09:03,823724
-2,-3,-8,-6,-11,-6,-3,-5,2021-08-07 12:09:03,823724
1,2,4,3,7,5,1,-1,2021-08-07 12:09:03,823724
0,-2,-2,-1,-7,-5,-3,-1,2021-08-07 12:09:03,823724
-7,-7,-6,-11,-18,-10,-6,-5,2021-08-07 12:09:03,839725
5,3,2,3,16,10,6,5,2021-08-07 12:09:03,839725
4,5,8,17,14,8,3,3,2021-08-07 12:09:03,855725
-5,-3,-8,-14,-15,-10,-5,-4,2021-08-07 12:09:03,855725
-1,-1,-9,-18,-9,-4,-2,-1,2021-08-07 12:09:03,855725
-5,-4,-2,8,8,-1,-2,-4,2021-08-07 12:09:03,855725
1,-1,-1,-8,-20,-10,-3,0,2021-08-07 12:09:03,871725
2,3,8,24,45,23,10,4,2021-08-07 12:09:03,871725
-3,-3,-3,-9,-16,-10,-4,-1,2021-08-07 12:09:03,871725
0,0,-4,-11,-12,-4,-1,1,2021-08-07 12:09:03,871725
-1,-1,-1,3,7,3,0,0,2021-08-07 12:09:03,887726
-9,-9,-12,-19,-30,-15,-10,-6,2021-08-07 12:09:03,887726
4,4,7,15,20,11,6,4,2021-08-07 12:09:03,903725
1,2,3,0,-5,-1,0,2,2021-08-07 12:09:03,903725
0,0,-2,4,-4,-4,-2,-4,2021-08-07 12:09:03,919725
-1,-1,-4,-9,-10,-6,-6,-1,2021-08-07 12:09:03,935726
-1,0,4,15,24,10,4,1,2021-08-07 12:09:03,935726
0,-2,3,9,9,6,3,2,2021-08-07 12:09:03,935726
-1,0,-10,-21,-17,-6,-2,-2,2021-08-07 12:09:03,951726
0,2,-1,-8,-13,-5,-3,1,2021-08-07 12:09:03,967725
0,-1,6,22,29,13,1,-1,2021-08-07 12:09:03,967725
-2,-3,-3,-4,-8,-4,-2,-3,2021-08-07 12:09:03,967725
-2,0,0,4,7,2,-1,0,2021-08-07 12:09:03,967725
-2,-6,-8,-19,-18,-9,-4,-3,2021-08-07 12:09:03,967725
2,3,2,2,2,-1,1,0,2021-08-07 12:09:03,968726
-4,-3,-2,-3,-8,-5,-3,-2,2021-08-07 12:09:03,968726
-1,-3,1,5,9,4,1,0,2021-08-07 12:09:03,968726
2,1,0,-2,-3,-1,0,0,2021-08-07 12:09:03,968726
-3,-2,-4,-8,-10,-8,-4,-2,2021-08-07 12:09:03,968726
-2,-5,-4,-4,-4,-4,-2,-4,2021-08-07 12:09:03,968726
0,-1,-6,-15,-15,-6,-1,0,2021-08-07 12:09:03,998727
3,3,4,14,18,10,4,1,2021-08-07 12:09:03,998727
1,-1,4,15,17,9,4,0,2021-08-07 12:09:03,998727
4,8,4,0,-7,-3,0,2,2021-08-07 12:09:03,998727
0,0,4,10,13,5,1,0,2021-08-07 12:09:04,014725
-1,-3,-5,-8,-13,-8,-2,-1,2021-08-07 12:09:04,029726
-2,-3,-8,-16,-10,-3,-3,-4,2021-08-07 12:09:04,045726
-5,-3,-9,-15,-7,-7,-4,-4,2021-08-07 12:09:04,061727
1,2,12,32,28,13,4,2,2021-08-07 12:09:04,077726
-1,0,-2,-6,-2,-3,-3,-2,2021-08-07 12:09:04,093725
0,-1,0,3,1,0,0,1,2021-08-07 12:09:04,093725
-2,-2,-3,-9,-11,-5,-3,-1,2021-08-07 12:09:04,093725
-4,-6,-13,-19,-21,-12,-7,-3,2021-08-07 12:09:04,093725
4,6,6,11,12,7,4,3,2021-08-07 12:09:04,093725
-2,-1,-6,-11,-14,-9,-5,-2,2021-08-07 12:09:04,094728
0,-2,2,5,7,3,1,-2,2021-08-07 12:09:04,094728
-7,-7,-4,-3,-1,-1,-2,-4,2021-08-07 12:09:04,094728
9,11,14,16,5,3,5,5,2021-08-07 12:09:04,094728
1,4,6,7,0,-1,-1,1,2021-08-07 12:09:04,094728
1,1,0,0,1,0,-1,1,2021-08-07 12:09:04,094728
-3,-2,6,12,17,6,2,-1,2021-08-07 12:09:04,095727
-10,-11,-12,-14,-19,-10,-8,-6,2021-08-07 12:09:04,095727
2,2,3,5,13,5,3,-1,2021-08-07 12:09:04,095727
1,1,2,3,3,2,3,0,2021-08-07 12:09:04,095727
-3,-2,-6,-18,-24,-11,-6,-3,2021-08-07 12:09:04,124725
-6,-8,-7,-7,-2,-3,-5,-3,2021-08-07 12:09:04,140724
2,2,2,0,-2,0,0,1,2021-08-07 12:09:04,140724
-2,-1,3,6,4,3,1,-1,2021-08-07 12:09:04,140724
2,-1,4,14,11,6,2,2,2021-08-07 12:09:04,140724
-3,-5,-6,-12,-11,-5,-3,-4,2021-08-07 12:09:04,140724
-3,-6,-11,-12,-10,-8,-6,-3,2021-08-07 12:09:04,140724
4,3,1,-4,-2,-1,1,2,2021-08-07 12:09:04,141725
1,0,-1,-1,5,2,0,-1,2021-08-07 12:09:04,145726
0,0,5,12,13,7,2,1,2021-08-07 12:09:04,145726
-6,-4,-8,-8,-14,-7,-5,-5,2021-08-07 12:09:04,145726
-1,0,-2,-3,0,-1,0,0,2021-08-07 12:09:04,146727
2,4,3,-4,-11,-6,-1,1,2021-08-07 12:09:04,172725
1,2,7,22,37,16,6,1,2021-08-07 12:09:04,172725
-3,-3,-5,-10,-12,-5,-3,0,2021-08-07 12:09:04,172725
-4,-6,-7,-5,-7,-7,-5,-2,2021-08-07 12:09:04,172725
-3,-3,-7,-12,-12,-7,-3,-3,2021-08-07 12:09:04,203725
-2,0,-5,-16,-19,-9,-2,-2,2021-08-07 12:09:04,219726
2,1,3,6,10,7,2,3,2021-08-07 12:09:04,219726
-1,1,2,9,3,2,-1,0,2021-08-07 12:09:04,219726
-2,-5,-6,-9,-9,-6,-2,-2,2021-08-07 12:09:04,219726
-1,0,-1,1,-1,-1,1,-2,2021-08-07 12:09:04,219726
1,5,9,19,18,6,3,1,2021-08-07 12:09:04,220728
2,4,2,0,5,2,3,2,2021-08-07 12:09:04,220728
-4,-6,-6,-11,-19,-11,-7,-5,2021-08-07 12:09:04,235726
-6,-6,-9,-1,9,1,-2,-3,2021-08-07 12:09:04,251725
4,7,4,-4,-9,-4,1,2,2021-08-07 12:09:04,267725
-3,-4,-2,-4,-4,-4,-3,-2,2021-08-07 12:09:04,267725
1,3,3,7,10,5,3,1,2021-08-07 12:09:04,267725
-1,-3,-5,-12,-17,-9,-4,-3,2021-08-07 12:09:04,267725
-8,-12,-10,-9,-12,-6,-5,-4,2021-08-07 12:09:04,267725
6,7,7,14,27,15,4,6,2021-08-07 12:09:04,267725
4,7,3,-2,-4,-2,1,3,2021-08-07 12:09:04,267725
-2,-3,1,1,-2,1,-1,-2,2021-08-07 12:09:04,268726
-6,-7,-13,-27,-23,-14,-7,-5,2021-08-07 12:09:04,268726
-2,0,5,18,9,7,2,-1,2021-08-07 12:09:04,268726
-2,-3,-2,7,18,7,0,-1,2021-08-07 12:09:04,299726
3,6,9,11,5,2,0,4,2021-08-07 12:09:04,299726
0,0,-3,-5,-13,-8,-3,-2,2021-08-07 12:09:04,299726
-5,-7,-10,-16,-15,-9,-6,-5,2021-08-07 12:09:04,299726
-6,-9,-10,-18,-23,-11,-5,-4,2021-08-07 12:09:04,315723
7,11,9,15,21,13,6,5,2021-08-07 12:09:04,315723
3,3,3,3,4,4,2,-1,2021-08-07 12:09:04,315723
-4,-5,-6,-3,-4,-4,-3,-2,2021-08-07 12:09:04,315723
0,0,2,-4,-7,-3,-3,1,2021-08-07 12:09:04,330725
-2,-4,-1,1,3,1,0,-2,2021-08-07 12:09:04,330725
3,2,-1,1,3,4,3,4,2021-08-07 12:09:04,330725
-4,-4,-5,-3,2,-2,0,-4,2021-08-07 12:09:04,330725
-6,-7,-12,-23,-18,-13,-8,-6,2021-08-07 12:09:04,361726
1,1,-2,-2,-6,-1,-1,1,2021-08-07 12:09:04,361726
3,5,13,24,32,16,7,2,2021-08-07 12:09:04,361726
-1,0,0,-1,-6,-2,0,-2,2021-08-07 12:09:04,361726
-1,-2,1,-1,-8,-5,-3,-2,2021-08-07 12:09:04,376725
-5,-7,-8,-21,-26,-14,-7,-4,2021-08-07 12:09:04,376725
2,2,6,27,47,20,7,2,2021-08-07 12:09:04,376725
-1,-3,-9,-16,-24,-12,-4,-1,2021-08-07 12:09:04,376725
1,3,7,17,25,11,4,3,2021-08-07 12:09:04,391725
-5,-2,-6,-18,-25,-13,-6,-4,2021-08-07 12:09:04,391725
-8,-7,-8,-14,-23,-9,-4,-5,2021-08-07 12:09:04,391725
5,3,8,21,36,16,8,5,2021-08-07 12:09:04,391725
3,6,3,8,6,4,2,2,2021-08-07 12:09:04,423725
-2,-2,1,6,3,0,0,-1,2021-08-07 12:09:04,423725
-6,-8,-8,-23,-31,-16,-9,-6,2021-08-07 12:09:04,438724
1,1,-4,-20,-22,-7,-3,0,2021-08-07 12:09:04,454725
3,3,6,16,22,12,7,2,2021-08-07 12:09:04,454725
-3,-3,-2,4,4,-1,-3,-2,2021-08-07 12:09:04,454725
2,3,6,11,11,6,2,2,2021-08-07 12:09:04,454725
-5,-4,-5,-10,-10,-6,-5,-3,2021-08-07 12:09:04,455725
0,1,0,0,-4,-1,-2,0,2021-08-07 12:09:04,470725
-3,-6,-11,-17,-24,-11,-6,-5,2021-08-07 12:09:04,470725
5,7,9,28,47,21,9,7,2021-08-07 12:09:04,470725
0,1,1,3,1,-1,-2,-1,2021-08-07 12:09:04,470725
-2,-3,-5,-8,-13,-5,-2,-1,2021-08-07 12:09:04,470725
0,0,3,4,8,2,1,0,2021-08-07 12:09:04,470725
-7,-7,-12,-31,-34,-19,-8,-6,2021-08-07 12:09:04,470725
-1,-2,-1,9,3,5,0,-1,2021-08-07 12:09:04,471727
6,6,9,17,20,12,8,4,2021-08-07 12:09:04,501725
0,2,4,4,12,4,2,1,2021-08-07 12:09:04,517723
-4,-4,-11,-27,-31,-11,-6,-4,2021-08-07 12:09:04,517723
-2,-2,4,19,23,6,1,-2,2021-08-07 12:09:04,517723
-2,1,2,9,8,3,1,-1,2021-08-07 12:09:04,517723
1,0,-2,2,1,1,1,0,2021-08-07 12:09:04,517723
-2,-1,4,7,-7,-5,-2,-2,2021-08-07 12:09:04,517723
-5,-6,-9,-23,-24,-12,-7,-2,2021-08-07 12:09:04,518726
1,0,-5,-14,-7,-4,-3,-1,2021-08-07 12:09:04,549725
3,4,10,24,24,11,6,2,2021-08-07 12:09:04,549725
-2,-4,-5,-7,-7,-3,-3,-4,2021-08-07 12:09:04,549725
-4,-5,-4,-4,-9,-8,-3,-2,2021-08-07 12:09:04,550238
-3,-3,-7,-8,-5,-3,-2,-3,2021-08-07 12:09:04,550238
3,5,3,0,10,7,4,4,2021-08-07 12:09:04,550238
1,-3,0,10,9,6,2,0,2021-08-07 12:09:04,550727
-2,-3,-2,-3,2,3,2,0,2021-08-07 12:09:04,550727
-1,0,2,1,-6,-2,-1,0,2021-08-07 12:09:04,565765
-6,-7,-4,-8,-5,-5,-4,-4,2021-08-07 12:09:04,565765
-2,0,5,8,-2,-1,-3,-4,2021-08-07 12:09:04,565765
-2,2,-1,-4,-4,-3,-1,1,2021-08-07 12:09:04,565765
2,3,5,3,0,2,0,3,2021-08-07 12:09:04,597766
0,-2,-2,0,-3,-2,-1,1,2021-08-07 12:09:04,609765
3,3,-1,0,6,3,1,3,2021-08-07 12:09:04,609765
-4,-6,-6,-7,-9,-6,-4,-5,2021-08-07 12:09:04,609765
2,5,8,20,18,7,3,3,2021-08-07 12:09:04,609765
2,-3,-2,-1,-8,1,0,3,2021-08-07 12:09:04,609765
-5,-7,-7,-14,-16,-10,-6,-4,2021-08-07 12:09:04,610768
-1,-2,-2,-5,-5,-1,-1,-2,2021-08-07 12:09:04,610768
-6,-8,-7,-10,-5,-4,-3,-5,2021-08-07 12:09:04,629767
2,7,5,8,6,3,0,0,2021-08-07 12:09:04,629767
3,2,0,5,16,9,4,2,2021-08-07 12:09:04,645764
0,-1,1,5,4,0,0,0,2021-08-07 12:09:04,660766
-2,0,-2,-8,-8,-5,-4,-2,2021-08-07 12:09:04,676766
-3,-3,-3,-13,-14,-6,-5,-3,2021-08-07 12:09:04,676766
2,1,0,0,-5,-3,-1,1,2021-08-07 12:09:04,676766
7,10,10,19,19,12,7,5,2021-08-07 12:09:04,676766
-2,-4,-9,-14,-18,-10,-5,-2,2021-08-07 12:09:04,692764
-5,-5,-5,-11,-9,-6,-4,-3,2021-08-07 12:09:04,708765
0,2,7,24,28,9,4,1,2021-08-07 12:09:04,724764
-3,-5,-2,-5,-9,-1,-4,-2,2021-08-07 12:09:04,724764
1,-1,3,6,6,2,0,0,2021-08-07 12:09:04,724764
0,0,-4,-11,-9,-5,-2,-1,2021-08-07 12:09:04,724764
-3,-5,-8,-16,-16,-9,-3,-1,2021-08-07 12:09:04,724764
-1,0,-5,-6,2,-1,0,0,2021-08-07 12:09:04,724764
-4,-4,-2,1,-1,0,1,-2,2021-08-07 12:09:04,725766
-3,-4,-8,-10,-13,-7,-3,-4,2021-08-07 12:09:04,725766
-2,0,0,-6,-11,-4,-3,-3,2021-08-07 12:09:04,725766
3,4,3,4,2,1,0,1,2021-08-07 12:09:04,725766
4,4,5,19,24,13,5,1,2021-08-07 12:09:04,740765
-3,-3,-4,-2,4,2,0,-2,2021-08-07 12:09:04,740765
-7,-7,-8,-18,-15,-8,-5,-6,2021-08-07 12:09:04,740765
2,4,6,7,-4,-3,0,0,2021-08-07 12:09:04,740765
0,-1,-4,-7,-4,-2,2,0,2021-08-07 12:09:04,755766
-2,-1,0,4,11,0,-3,1,2021-08-07 12:09:04,755766
1,1,-4,-6,-9,-3,-2,0,2021-08-07 12:09:04,787765
-3,-2,-3,-6,-3,0,-2,-1,2021-08-07 12:09:04,787765
1,3,3,9,21,9,4,1,2021-08-07 12:09:04,787765
-1,1,0,8,8,4,2,1,2021-08-07 12:09:04,787765
-2,-2,-5,-4,-6,-4,-2,0,2021-08-07 12:09:04,787765
-3,-4,-7,-13,-13,-8,-4,-2,2021-08-07 12:09:04,787765
0,0,3,-1,1,0,-2,1,2021-08-07 12:09:04,803766
-1,-1,0,4,3,2,0,0,2021-08-07 12:09:04,819765
1,0,2,4,11,3,-1,0,2021-08-07 12:09:04,835764
-3,-5,-2,0,1,-1,0,-1,2021-08-07 12:09:04,851766
-4,-4,-9,-13,-16,-8,-6,-3,2021-08-07 12:09:04,867765
4,5,7,5,-2,0,4,1,2021-08-07 12:09:04,867765
0,-1,-1,-4,-8,-3,-2,0,2021-08-07 12:09:04,867765
2,2,5,15,24,8,3,0,2021-08-07 12:09:04,867765
-5,-6,-5,-10,-14,-6,-3,-3,2021-08-07 12:09:04,867765
-3,-5,-9,-9,-5,-2,-2,-3,2021-08-07 12:09:04,868765
0,0,-3,-1,1,1,0,0,2021-08-07 12:09:04,868765
-2,-1,-2,-4,2,0,0,0,2021-08-07 12:09:04,868765
2,3,8,18,6,3,2,0,2021-08-07 12:09:04,868765
2,3,3,6,10,5,2,0,2021-08-07 12:09:04,868765
-2,-5,-3,-4,-7,-4,-3,-4,2021-08-07 12:09:04,869766
-2,-3,-8,-21,-20,-8,-3,-1,2021-08-07 12:09:04,869766
-3,-7,-6,-4,2,-2,-1,-3,2021-08-07 12:09:04,869766
0,0,-2,-10,-19,-7,-2,0,2021-08-07 12:09:04,869766
6,8,12,24,30,14,7,5,2021-08-07 12:09:04,883765
1,2,3,9,1,2,0,-1,2021-08-07 12:09:04,899766
-1,-1,-6,-15,-14,-8,-4,-1,2021-08-07 12:09:04,899766
-7,-9,-6,-8,-11,-7,-5,-6,2021-08-07 12:09:04,899766
0,1,4,15,20,10,3,2,2021-08-07 12:09:04,899766
7,9,9,11,8,7,5,4,2021-08-07 12:09:04,899766
-2,-2,-4,-5,-9,-6,-1,-1,2021-08-07 12:09:04,915767
-2,-2,-1,-2,2,-2,0,-1,2021-08-07 12:09:04,931767
-3,-4,-6,-11,-20,-8,-5,-3,2021-08-07 12:09:04,947765
-2,-3,0,0,1,-2,-1,-2,2021-08-07 12:09:04,963764
-1,-2,-7,-17,-9,-3,-2,-1,2021-08-07 12:09:04,979765
7,12,17,40,48,23,10,5,2021-08-07 12:09:04,979765
-1,-2,-2,-1,-10,-7,-2,-3,2021-08-07 12:09:04,995764
0,2,0,6,12,7,2,1,2021-08-07 12:09:04,995764
-3,-3,-5,-10,-10,-6,-4,-3,2021-08-07 12:09:04,995764
-1,-6,-8,-11,-9,-6,-4,-3,2021-08-07 12:09:04,995764
-1,-1,1,-1,-2,-3,-2,-2,2021-08-07 12:09:04,995764
-1,-1,-1,-9,-16,-7,-6,-2,2021-08-07 12:09:04,995764
-2,-1,-1,2,4,2,1,0,2021-08-07 12:09:04,995764
-3,-2,-4,-8,-11,-4,-3,0,2021-08-07 12:09:04,996766
-1,-1,1,8,15,7,1,2,2021-08-07 12:09:04,996766
-1,-3,-8,-15,-17,-7,-2,0,2021-08-07 12:09:04,996766
-1,1,2,6,9,1,1,0,2021-08-07 12:09:04,996766
-3,-2,-3,-3,-4,-3,-3,-1,2021-08-07 12:09:04,996766
-4,-4,-4,-12,-21,-9,-4,-4,2021-08-07 12:09:04,996766
-1,-2,-1,2,5,2,1,0,2021-08-07 12:09:04,996766
3,3,7,12,15,9,5,2,2021-08-07 12:09:05,011766
-2,-2,-5,-4,0,0,-2,-2,2021-08-07 12:09:05,027769
-1,1,0,0,-4,-3,0,-2,2021-08-07 12:09:05,027769
1,1,1,-2,-4,-4,-2,-1,2021-08-07 12:09:05,043764
-1,-1,4,5,6,2,-2,0,2021-08-07 12:09:05,043764
-5,-5,-5,-4,-5,-3,-3,-4,2021-08-07 12:09:05,043764
-1,0,-1,-4,-2,-1,1,1,2021-08-07 12:09:05,043764
-3,-3,-2,-1,-2,0,-1,0,2021-08-07 12:09:05,043764
0,-2,-5,-8,-14,-6,-2,-1,2021-08-07 12:09:05,059765
-1,-2,1,3,7,1,0,1,2021-08-07 12:09:05,059765
-3,-1,-2,-2,-4,-5,-4,-1,2021-08-07 12:09:05,059765
-1,0,-1,2,4,3,1,0,2021-08-07 12:09:05,059765
-2,-1,-3,-7,-11,-6,-3,-2,2021-08-07 12:09:05,075765
-2,-3,-2,-3,-3,-1,0,-1,2021-08-07 12:09:05,090765
1,1,-2,-10,-8,-3,-2,0,2021-08-07 12:09:05,090765
2,3,10,21,26,8,4,1,2021-08-07 12:09:05,090765
-2,-4,-1,-3,-7,-2,-2,-3,2021-08-07 12:09:05,090765
-5,-4,-7,-16,-22,-14,-6,-4,2021-08-07 12:09:05,106764
0,1,-2,2,8,4,2,2,2021-08-07 12:09:05,122766
2,4,7,13,18,8,3,2,2021-08-07 12:09:05,138764
0,0,1,9,11,7,2,-1,2021-08-07 12:09:05,138764
-3,-2,0,-1,-5,-5,-4,-4,2021-08-07 12:09:05,138764
-3,-4,-3,-10,-15,-8,-2,-2,2021-08-07 12:09:05,138764
-1,-1,-4,-12,-17,-6,-3,-1,2021-08-07 12:09:05,138764
2,3,5,14,16,6,0,1,2021-08-07 12:09:05,138764
-1,-1,-5,-12,-6,-1,-3,-1,2021-08-07 12:09:05,139765
-1,-4,0,3,3,0,-1,-1,2021-08-07 12:09:05,139765
-5,-6,-8,-12,-15,-10,-6,-5,2021-08-07 12:09:05,139765
0,-2,-2,-5,-10,-4,-1,0,2021-08-07 12:09:05,154766
3,5,7,12,19,11,3,3,2021-08-07 12:09:05,154766
-1,-1,-2,-4,-1,0,-1,-2,2021-08-07 12:09:05,154766
0,1,-1,1,7,2,0,0,2021-08-07 12:09:05,154766
-1,-2,-4,-2,-6,-2,-1,-2,2021-08-07 12:09:05,185765
3,3,5,12,12,3,2,1,2021-08-07 12:09:05,201764
-3,-6,-4,-5,-5,-3,-1,-2,2021-08-07 12:09:05,217764
-1,-2,-4,-14,-17,-9,-4,-2,2021-08-07 12:09:05,233766
5,5,5,10,13,6,4,4,2021-08-07 12:09:05,265765
1,-3,0,3,-3,1,-2,-1,2021-08-07 12:09:05,281766
-1,0,2,0,2,1,-1,0,2021-08-07 12:09:05,297766
-4,-6,-6,-12,-15,-8,-5,-2,2021-08-07 12:09:05,313764
-2,-1,0,0,-4,-4,-1,-3,2021-08-07 12:09:05,313764
2,2,5,13,17,8,4,2,2021-08-07 12:09:05,329766
-1,-2,-3,0,-2,-5,-1,-1,2021-08-07 12:09:05,345766
-2,-4,-4,-2,-5,-1,-2,-2,2021-08-07 12:09:05,361765
-5,-4,-7,-17,-22,-15,-7,-3,2021-08-07 12:09:05,377768
1,1,1,-3,5,5,4,1,2021-08-07 12:09:05,377768
1,2,6,10,18,9,3,2,2021-08-07 12:09:05,377768
1,2,5,16,13,5,4,0,2021-08-07 12:09:05,377768
0,-1,-5,-8,-3,1,1,1,2021-08-07 12:09:05,377768
-3,-4,-4,-15,-21,-11,-8,-2,2021-08-07 12:09:05,377768
-2,0,0,0,-3,-2,-2,-1,2021-08-07 12:09:05,378765
-4,-4,-2,-7,-7,-4,-1,-3,2021-08-07 12:09:05,378765
-1,-2,-3,-7,-7,-3,-3,-2,2021-08-07 12:09:05,378765
1,1,7,15,17,5,0,2,2021-08-07 12:09:05,378765
2,0,4,6,6,5,2,1,2021-08-07 12:09:05,393765
1,3,3,2,0,-1,-1,-1,2021-08-07 12:09:05,393765
-2,-3,-5,-8,-11,-4,-3,-2,2021-08-07 12:09:05,393765
-3,-3,-7,-10,-8,-6,-3,-3,2021-08-07 12:09:05,393765
1,0,1,1,8,1,0,0,2021-08-07 12:09:05,393765
1,1,3,9,10,7,3,2,2021-08-07 12:09:05,409764
-3,-2,-3,-5,2,1,2,-2,2021-08-07 12:09:05,424765
0,3,4,4,-7,0,2,-1,2021-08-07 12:09:05,440765
-1,-2,-4,1,10,3,-2,-2,2021-08-07 12:09:05,456767
-3,-2,-4,-8,-10,-5,-5,-1,2021-08-07 12:09:05,472766
3,5,5,-1,0,3,3,3,2021-08-07 12:09:05,472766
1,1,1,-1,-8,-5,-3,-1,2021-08-07 12:09:05,472766
1,3,5,7,9,5,3,0,2021-08-07 12:09:05,472766
-1,-1,-3,-7,-10,-4,-2,-2,2021-08-07 12:09:05,472766
-2,-5,-5,1,4,0,-4,-3,2021-08-07 12:09:05,473766
-4,-7,-8,-9,-11,-8,-5,-3,2021-08-07 12:09:05,488765
4,1,2,1,-2,3,3,3,2021-08-07 12:09:05,504764
1,1,3,7,8,5,2,2,2021-08-07 12:09:05,504764
-3,-3,1,3,1,1,-1,-2,2021-08-07 12:09:05,504764
-3,0,-1,0,0,0,-1,-2,2021-08-07 12:09:05,504764
-2,-1,-6,-9,-15,-7,-4,-1,2021-08-07 12:09:05,504764
-1,-2,-4,-11,-10,-4,-3,-2,2021-08-07 12:09:05,504764
-1,2,1,6,11,2,0,1,2021-08-07 12:09:05,505765
-6,-8,-12,-23,-29,-15,-8,-4,2021-08-07 12:09:05,505765
5,7,20,41,44,21,10,7,2021-08-07 12:09:05,505765
2,1,-1,8,3,3,3,2,2021-08-07 12:09:05,505765
-4,-5,-6,-6,-6,-4,-2,-3,2021-08-07 12:09:05,505765
0,-1,-4,-7,-1,-2,0,0,2021-08-07 12:09:05,505765
-7,-8,-13,-31,-39,-20,-8,-4,2021-08-07 12:09:05,505765
-1,-1,3,12,16,7,5,1,2021-08-07 12:09:05,505765
-4,-4,3,12,14,3,1,-4,2021-08-07 12:09:05,506766
-1,1,1,2,-3,-1,0,-2,2021-08-07 12:09:05,506766
-4,0,-2,-9,-16,-8,-6,-6,2021-08-07 12:09:05,506766
0,2,2,0,3,-1,0,-1,2021-08-07 12:09:05,506766
-2,-2,-3,-4,-3,-2,-2,-1,2021-08-07 12:09:05,509765
0,-1,-5,-7,-7,-5,-2,0,2021-08-07 12:09:05,510769
-3,-6,-9,-7,-8,-5,-3,-4,2021-08-07 12:09:05,510769
3,2,4,3,8,2,1,3,2021-08-07 12:09:05,510769
-1,0,3,2,-2,-1,0,-2,2021-08-07 12:09:05,511766
0,1,2,4,3,1,1,1,2021-08-07 12:09:05,511766
-2,0,-2,-6,-3,-3,-2,-1,2021-08-07 12:09:05,511766
0,-1,-3,-3,-4,-1,-1,-2,2021-08-07 12:09:05,511766
3,1,1,0,-2,-2,-1,2,2021-08-07 12:09:05,511766
-3,-4,-4,-4,-9,-3,-2,-2,2021-08-07 12:09:05,511766
-3,-5,-8,-12,-7,-4,-4,-2,2021-08-07 12:09:05,512765
6,8,17,36,39,17,7,2,2021-08-07 12:09:05,512765
2,2,6,9,3,4,0,1,2021-08-07 12:09:05,512765
-2,-1,2,8,13,5,0,-2,2021-08-07 12:09:05,512765
-1,-2,-3,-5,-10,-6,-2,0,2021-08-07 12:09:05,512765
-5,-8,-11,-19,-20,-9,-5,-4,2021-08-07 12:09:05,512765
-2,-2,-2,-4,-6,-4,-1,-1,2021-08-07 12:09:05,536765
-2,-2,-5,-7,-5,-3,-1,1,2021-08-07 12:09:05,536765
-2,-1,0,1,-2,-1,-2,-3,2021-08-07 12:09:05,536765
-1,-2,-1,-3,-1,-2,-3,-1,2021-08-07 12:09:05,536765
2,3,-2,-4,10,6,4,1,2021-08-07 12:09:05,552766
4,5,9,21,21,11,6,4,2021-08-07 12:09:05,552766
0,0,0,3,2,1,1,-2,2021-08-07 12:09:05,568766
-3,-2,-4,-9,-17,-8,-3,-3,2021-08-07 12:09:05,568766
-6,-7,-11,-22,-24,-12,-8,-4,2021-08-07 12:09:05,583765
-1,-1,4,10,17,5,1,-1,2021-08-07 12:09:05,583765
1,-1,-2,-1,0,0,2,1,2021-08-07 12:09:05,583765
0,-1,-3,-1,2,1,0,-1,2021-08-07 12:09:05,583765
-1,-1,-1,3,-6,-2,-4,-2,2021-08-07 12:09:05,599767
-2,-3,-4,-12,-12,-6,-3,-4,2021-08-07 12:09:05,615767
3,2,4,2,-1,2,1,0,2021-08-07 12:09:05,646764
1,1,4,9,13,4,0,-1,2021-08-07 12:09:05,662765
1,0,2,3,4,2,1,-2,2021-08-07 12:09:05,677766
-5,-9,-11,-16,-20,-11,-7,-3,2021-08-07 12:09:05,677766
-4,-6,-8,-13,-7,-8,-4,-1,2021-08-07 12:09:05,677766
-1,3,-1,-2,-2,0,0,-1,2021-08-07 12:09:05,677766
5,9,12,24,25,11,7,3,2021-08-07 12:09:05,677766
0,-1,2,6,5,1,-1,-1,2021-08-07 12:09:05,678766
-2,-2,1,-1,-4,-2,-1,-2,2021-08-07 12:09:05,678766
0,-2,-3,-8,-9,-3,-1,1,2021-08-07 12:09:05,678766
-5,-5,-5,-7,-11,-6,-5,-2,2021-08-07 12:09:05,678766
0,-1,1,1,0,1,-1,-1,2021-08-07 12:09:05,678766
0,1,0,3,9,4,-1,0,2021-08-07 12:09:05,678766
-5,-6,-8,-15,-9,-7,-5,-4,2021-08-07 12:09:05,678766
3,4,10,25,20,8,4,2,2021-08-07 12:09:05,679766
-2,-1,-3,-1,4,3,2,-1,2021-08-07 12:09:05,679766
0,0,2,0,-8,-3,-1,0,2021-08-07 12:09:05,679766
2,2,3,2,6,6,3,1,2021-08-07 12:09:05,679766
-7,-6,-8,-16,-17,-9,-5,-4,2021-08-07 12:09:05,709765
-3,-7,-6,-3,-4,-3,-2,-4,2021-08-07 12:09:05,709765
5,6,7,14,13,5,2,3,2021-08-07 12:09:05,709765
-1,-1,-6,-11,-11,-6,-1,-1,2021-08-07 12:09:05,709765
-1,1,2,7,10,4,1,0,2021-08-07 12:09:05,725765
2,2,1,8,9,7,3,2,2021-08-07 12:09:05,740767
-3,-2,-6,-16,-16,-7,-3,-4,2021-08-07 12:09:05,740767
-2,-2,-2,-1,-10,-7,-6,-3,2021-08-07 12:09:05,740767
1,0,-2,0,3,2,1,1,2021-08-07 12:09:05,740767
0,3,8,16,23,7,2,1,2021-08-07 12:09:05,740767
-2,-3,-3,-8,-10,-5,-2,-2,2021-08-07 12:09:05,756766
0,3,2,10,12,6,4,1,2021-08-07 12:09:05,756766
-1,-4,-9,-18,-20,-11,-4,-2,2021-08-07 12:09:05,772768
-5,-6,-13,-23,-23,-15,-7,-6,2021-08-07 12:09:05,772768
-2,-2,0,2,3,1,0,0,2021-08-07 12:09:05,788763
-2,-2,3,4,4,0,1,-1,2021-08-07 12:09:05,788763
-2,0,1,2,-1,0,1,0,2021-08-07 12:09:05,788763
1,0,1,-3,2,2,0,1,2021-08-07 12:09:05,788763
1,0,5,5,8,3,1,1,2021-08-07 12:09:05,788763
0,0,3,11,4,3,0,-1,2021-08-07 12:09:05,789765
1,2,-2,-2,-6,-2,-1,1,2021-08-07 12:09:05,789765
-2,-2,-4,-4,-11,-5,-3,-4,2021-08-07 12:09:05,789765
0,1,-3,-2,9,2,0,1,2021-08-07 12:09:05,803766
0,1,-2,-6,-9,-3,-3,1,2021-08-07 12:09:05,803766
0,0,1,2,11,4,2,1,2021-08-07 12:09:05,819765
-5,-3,-1,-7,-19,-11,-8,-5,2021-08-07 12:09:05,819765
-2,-5,-5,4,5,1,-1,-2,2021-08-07 12:09:05,819765
-2,-2,1,3,5,2,0,-3,2021-08-07 12:09:05,819765
2,6,2,-1,-6,-2,-2,0,2021-08-07 12:09:05,850765
-2,-2,-2,-3,2,2,0,1,2021-08-07 12:09:05,866764
1,1,0,1,-12,-5,-1,-2,2021-08-07 12:09:05,898765
-5,-6,-6,-13,-8,-5,-2,-2,2021-08-07 12:09:05,914766
-3,-5,-5,-8,-8,-5,-5,-4,2021-08-07 12:09:05,930766
1,1,2,-1,-4,-1,1,0,2021-08-07 12:09:05,930766
1,1,2,7,11,6,2,1,2021-08-07 12:09:05,930766
-1,-3,-2,-4,-5,-1,-1,-2,2021-08-07 12:09:05,930766
-4,-3,-7,-15,-12,-6,-2,-4,2021-08-07 12:09:05,930766
-1,-2,-4,-8,-5,-3,-1,0,2021-08-07 12:09:05,931767
6,7,14,24,15,11,6,4,2021-08-07 12:09:05,931767
3,4,2,6,7,3,3,1,2021-08-07 12:09:05,931767
2,-1,1,8,6,3,-1,0,2021-08-07 12:09:05,931767
-4,-7,-10,-20,-15,-9,-7,-5,2021-08-07 12:09:05,931767
-4,-4,-3,-1,-7,-5,-2,-2,2021-08-07 12:09:05,931767
3,3,5,10,10,5,2,-1,2021-08-07 12:09:05,932765
0,-1,4,1,-1,-1,0,0,2021-08-07 12:09:05,932765
2,5,8,17,19,11,7,2,2021-08-07 12:09:05,932765
-1,-1,-5,-7,-2,-2,-1,1,2021-08-07 12:09:05,932765
-6,-8,-12,-12,-15,-11,-9,-3,2021-08-07 12:09:05,932765
-5,-6,-7,-17,-17,-8,-3,-3,2021-08-07 12:09:05,932765
2,3,3,9,10,6,4,2,2021-08-07 12:09:05,932765
0,1,2,-1,4,-1,0,0,2021-08-07 12:09:05,933766
-1,-1,1,2,-5,-3,-1,1,2021-08-07 12:09:05,933766
-2,-1,-3,-2,-1,3,-1,-2,2021-08-07 12:09:05,962764
5,5,9,16,21,7,3,3,2021-08-07 12:09:05,978768
-3,-4,-7,-7,-6,-3,-3,-3,2021-08-07 12:09:05,978768
-2,-2,-3,-7,-3,-3,-1,-2,2021-08-07 12:09:05,978768
-3,-6,-7,-15,-19,-11,-7,-6,2021-08-07 12:09:05,978768
6,7,8,20,17,13,6,4,2021-08-07 12:09:05,978768
1,0,0,2,2,-1,-2,0,2021-08-07 12:09:05,979766
-1,0,-4,-12,-13,-4,-1,-1,2021-08-07 12:09:05,979766
-2,-2,-1,-1,3,1,-2,1,2021-08-07 12:09:06,010769
0,2,2,10,7,1,0,-1,2021-08-07 12:09:06,026765
1,0,4,10,8,5,2,1,2021-08-07 12:09:06,058768
-1,-3,-4,-3,-9,-3,-2,-1,2021-08-07 12:09:06,074766
-3,-3,-6,0,7,0,0,-1,2021-08-07 12:09:06,089765
-6,-6,-12,-16,-21,-12,-9,-4,2021-08-07 12:09:06,105764
-1,0,3,3,7,4,1,0,2021-08-07 12:09:06,105764
0,-1,1,3,-3,-2,-2,-1,2021-08-07 12:09:06,105764
3,6,5,7,6,5,3,2,2021-08-07 12:09:06,105764
1,-1,-4,-10,-11,-5,0,-1,2021-08-07 12:09:06,105764
-6,-7,-8,-17,-17,-7,-6,-7,2021-08-07 12:09:06,105764
4,4,10,19,28,12,6,3,2021-08-07 12:09:06,105764
0,0,1,0,2,-3,1,0,2021-08-07 12:09:06,105764
-1,-2,2,2,-1,0,1,-1,2021-08-07 12:09:06,106767
0,0,-7,-15,-14,-7,-3,-2,2021-08-07 12:09:06,106767
-5,-5,-3,-3,-6,-4,-5,-4,2021-08-07 12:09:06,106767
0,-1,0,4,5,1,2,2,2021-08-07 12:09:06,106767
-3,-2,-5,-13,-19,-8,-5,-4,2021-08-07 12:09:06,106767
-1,0,3,13,16,5,1,0,2021-08-07 12:09:06,106767
-1,-4,-9,-14,-11,-6,-4,-4,2021-08-07 12:09:06,106767
0,-3,-4,0,-1,-2,-1,-1,2021-08-07 12:09:06,106767
-5,-7,-10,-17,-13,-6,-4,-1,2021-08-07 12:09:06,106767
-5,-2,-4,-10,-20,-10,-5,-1,2021-08-07 12:09:06,121764
2,4,5,11,17,9,6,1,2021-08-07 12:09:06,121764
0,0,1,9,13,7,1,0,2021-08-07 12:09:06,121764
0,-1,3,11,9,2,1,1,2021-08-07 12:09:06,121764
-2,-1,-4,-5,-5,-2,-2,-3,2021-08-07 12:09:06,121764
-4,-4,-4,-8,-9,-6,-3,-1,2021-08-07 12:09:06,122765
-2,-3,-7,-15,-18,-9,-4,-3,2021-08-07 12:09:06,137765
0,0,3,5,4,2,1,1,2021-08-07 12:09:06,137765
2,4,2,-1,2,4,5,3,2021-08-07 12:09:06,137765
4,5,7,20,31,10,5,3,2021-08-07 12:09:06,137765
-2,-2,-2,-7,-6,-3,-1,-3,2021-08-07 12:09:06,169768
-1,1,2,4,-1,-3,-3,-2,2021-08-07 12:09:06,169768
0,-1,-5,-5,-9,-7,-3,-3,2021-08-07 12:09:06,169768
-2,-2,-1,-1,-6,-1,-1,-2,2021-08-07 12:09:06,169768
-3,-4,-3,3,5,3,-1,-2,2021-08-07 12:09:06,169768
1,3,1,-9,-6,-4,-1,1,2021-08-07 12:09:06,170768
0,1,-3,-4,-4,-1,0,0,2021-08-07 12:09:06,185766
-1,0,-1,-5,-3,0,0,0,2021-08-07 12:09:06,185766
2,0,2,7,4,0,-1,-1,2021-08-07 12:09:06,201766
0,-2,-2,-3,-1,2,1,-1,2021-08-07 12:09:06,201766
1,0,6,22,19,8,1,-1,2021-08-07 12:09:06,201766
-3,-4,-9,-19,-18,-9,-3,-2,2021-08-07 12:09:06,201766
-2,1,2,6,2,-2,-2,-2,2021-08-07 12:09:06,233764
-6,-9,-11,-12,-8,-6,-4,-5,2021-08-07 12:09:06,233764
9,11,8,0,2,5,4,9,2021-08-07 12:09:06,233764
2,0,3,7,1,0,-1,-1,2021-08-07 12:09:06,233764
-1,-2,3,9,2,0,1,1,2021-08-07 12:09:06,233764
-4,-3,-4,-2,-4,-2,-4,-5,2021-08-07 12:09:06,233764
-8,-6,-6,-1,5,-3,-2,-4,2021-08-07 12:09:06,248766
-1,-1,-4,-12,-13,-5,-2,-2,2021-08-07 12:09:06,248766
0,0,0,-4,-3,0,0,-1,2021-08-07 12:09:06,264765
-1,-1,-1,3,-3,-4,-2,-1,2021-08-07 12:09:06,280765
1,-2,-3,-4,-6,-2,0,0,2021-08-07 12:09:06,296764
0,-1,-4,-2,0,-1,1,1,2021-08-07 12:09:06,296764
1,1,2,11,9,6,4,1,2021-08-07 12:09:06,296764
-2,-1,-1,-3,10,6,5,0,2021-08-07 12:09:06,296764
-6,-4,0,-4,-10,-8,-6,-8,2021-08-07 12:09:06,296764
-2,1,3,-1,-10,-5,-5,-3,2021-08-07 12:09:06,296764
0,0,-2,-8,-6,-5,-3,-1,2021-08-07 12:09:06,297767
1,1,1,7,10,4,-1,3,2021-08-07 12:09:06,297767
1,2,3,6,10,6,3,2,2021-08-07 12:09:06,297767
0,-4,-5,0,9,4,2,0,2021-08-07 12:09:06,297767
0,1,2,2,-11,-6,-3,0,2021-08-07 12:09:06,327766
3,1,4,-2,-1,-2,1,2,2021-08-07 12:09:06,343766
-5,-8,-10,-11,-8,-4,-5,-4,2021-08-07 12:09:06,343766
-1,1,0,0,-6,-2,-3,-1,2021-08-07 12:09:06,359766
-4,-3,-5,-3,1,1,-2,-4,2021-08-07 12:09:06,375801
-3,-4,-6,-8,-8,-5,-3,-3,2021-08-07 12:09:06,391803
-1,0,1,2,-2,-1,-1,0,2021-08-07 12:09:06,391803
-1,-3,-2,-15,-12,-8,-5,-4,2021-08-07 12:09:06,391803
2,2,4,12,8,8,7,2,2021-08-07 12:09:06,391803
0,0,2,5,22,8,1,-2,2021-08-07 12:09:06,391803
2,0,4,8,3,1,3,1,2021-08-07 12:09:06,391803
-1,1,-1,5,1,-1,0,-1,2021-08-07 12:09:06,391803
-2,-2,0,3,16,7,1,1,2021-08-07 12:09:06,391803
0,-3,-4,-7,-13,-8,-4,-2,2021-08-07 12:09:06,392769
0,-1,-2,-4,-7,-2,-1,1,2021-08-07 12:09:06,392769
-2,1,1,-1,-1,-3,-2,-1,2021-08-07 12:09:06,392769
1,-1,-7,-21,-18,-7,-2,-2,2021-08-07 12:09:06,407764
4,8,14,26,18,10,5,2,2021-08-07 12:09:06,423803
-1,-4,-4,-4,-3,-1,-2,-3,2021-08-07 12:09:06,431765
-3,-4,-3,-5,-9,-2,1,-1,2021-08-07 12:09:06,431765
-4,-1,-5,-2,3,-1,0,0,2021-08-07 12:09:06,431765
-3,-2,-4,-3,-7,-5,-2,-3,2021-08-07 12:09:06,431765
