EMG 1,EMG 2,EMG 3,EMG 4,EMG 5,EMG 6,EMG 7,EMG 8,Timestamp,Milliseconds
-4,-3,-2,-10,-13,-6,-5,-3,2021-08-07 12:08:19,462137
-2,-3,-4,-5,-4,-3,-4,-2,2021-08-07 12:08:19,478136
-1,-3,-6,-2,7,3,0,0,2021-08-07 12:08:19,478136
-4,-4,-9,-12,-10,-7,-6,-4,2021-08-07 12:08:19,478136
5,7,9,16,14,8,7,4,2021-08-07 12:08:19,478136
-1,-1,3,1,-5,-3,0,-3,2021-08-07 12:08:19,478136
3,5,7,-2,-2,0,2,2,2021-08-07 12:08:19,478136
-4,-7,-7,-5,-4,-3,-4,-6,2021-08-07 12:08:19,478136
-3,-6,-10,-8,-6,-6,-4,-1,2021-08-07 12:08:19,478136
0,-1,0,-1,2,1,0,-2,2021-08-07 12:08:19,478136
3,4,11,15,8,4,2,2,2021-08-07 12:08:19,493135
-1,-1,-5,-5,1,1,0,-2,2021-08-07 12:08:19,509136
-5,-10,-12,-18,-17,-12,-8,-6,2021-08-07 12:08:19,525137
0,-1,-7,-7,-5,-4,-1,2,2021-08-07 12:08:19,541137
-1,-1,3,-8,-10,-6,-4,-2,2021-08-07 12:08:19,573135
1,5,11,19,16,7,4,2,2021-08-07 12:08:19,589136
-4,-4,7,14,16,10,3,-1,2021-08-07 12:08:19,589136
4,5,-7,2,4,4,4,4,2021-08-07 12:08:19,589136
-5,-7,-11,-20,-22,-13,-7,-5,2021-08-07 12:08:19,589136
4,6,10,11,7,4,3,3,2021-08-07 12:08:19,589136
1,1,7,10,7,2,1,-1,2021-08-07 12:08:19,589136
-6,-5,-5,-3,-4,-3,-4,-4,2021-08-07 12:08:19,589136
2,2,0,0,3,3,0,0,2021-08-07 12:08:19,590138
-3,-3,-7,-12,-15,-8,-5,-2,2021-08-07 12:08:19,605135
4,2,4,12,7,2,0,0,2021-08-07 12:08:19,605135
-4,-5,-7,-10,-7,-5,-4,-5,2021-08-07 12:08:19,605135
-2,-1,1,1,-7,-3,-3,-2,2021-08-07 12:08:19,605135
2,4,5,3,8,5,3,2,2021-08-07 12:08:19,605135
-3,-5,-5,-8,-8,-5,-3,-1,2021-08-07 12:08:19,605135
-1,-2,-8,-5,-5,-2,-1,0,2021-08-07 12:08:19,605135
-3,-2,-2,2,5,1,-4,-3,2021-08-07 12:08:19,606136
1,2,4,3,-1,0,1,1,2021-08-07 12:08:19,606136
1,2,2,4,2,1,1,1,2021-08-07 12:08:19,606136
-1,-1,5,2,-3,-1,-1,0,2021-08-07 12:08:19,606136
0,0,-1,-5,-2,-2,1,3,2021-08-07 12:08:19,620136
3,0,-3,3,4,6,4,3,2021-08-07 12:08:19,620136
-5,-7,-15,-13,-6,-3,-3,-4,2021-08-07 12:08:19,620136
-7,-8,-12,-18,-18,-11,-8,-6,2021-08-07 12:08:19,620136
-5,-5,4,7,4,0,-3,-4,2021-08-07 12:08:19,650652
0,4,7,8,5,2,0,-1,2021-08-07 12:08:19,650652
2,7,10,13,9,5,4,3,2021-08-07 12:08:19,665653
3,3,4,6,5,4,3,1,2021-08-07 12:08:19,665653
1,-1,-3,-2,-5,-4,-2,-1,2021-08-07 12:08:19,665653
-3,-5,-7,-5,-6,-8,-5,-3,2021-08-07 12:08:19,665653
-1,-2,-1,-4,-7,-3,-3,0,2021-08-07 12:08:19,665653
2,3,4,8,10,4,2,2,2021-08-07 12:08:19,665653
4,5,2,0,7,6,2,3,2021-08-07 12:08:19,681654
-5,-6,-9,-4,-9,-5,-3,-3,2021-08-07 12:08:19,681654
-4,-7,-8,-15,-10,-8,-4,-3,2021-08-07 12:08:19,697653
2,4,6,13,9,5,4,3,2021-08-07 12:08:19,712653
-1,0,0,3,2,2,0,-2,2021-08-07 12:08:19,728654
1,3,7,7,9,6,2,0,2021-08-07 12:08:19,744656
-2,-3,0,-3,-6,-1,-1,-3,2021-08-07 12:08:19,760656
-5,-7,-12,-17,-13,-9,-6,-3,2021-08-07 12:08:19,760656
0,0,0,-1,-1,0,0,2,2021-08-07 12:08:19,776654
-1,0,-2,2,2,0,0,0,2021-08-07 12:08:19,776654
1,2,6,5,7,4,2,1,2021-08-07 12:08:19,776654
-2,0,2,2,2,1,0,-2,2021-08-07 12:08:19,776654
-3,-3,-3,-1,-3,-3,-2,-1,2021-08-07 12:08:19,776654
-2,-4,-5,-11,-14,-8,-5,-4,2021-08-07 12:08:19,776654
1,2,2,5,6,4,0,3,2021-08-07 12:08:19,776654
-2,-2,0,5,5,-1,-2,-1,2021-08-07 12:08:19,776654
1,-1,-4,-11,-9,-6,-3,-1,2021-08-07 12:08:19,776654
-2,-2,-1,-5,-5,-2,-1,-1,2021-08-07 12:08:19,777653
2,3,4,5,-1,1,1,-1,2021-08-07 12:08:19,777653
-3,-1,1,-2,-7,0,0,0,2021-08-07 12:08:19,777653
-3,-6,-5,2,17,5,1,-1,2021-08-07 12:08:19,792652
1,-1,-8,-1,-2,-1,0,0,2021-08-07 12:08:19,808655
-1,-1,-1,4,3,2,0,-2,2021-08-07 12:08:19,824654
0,1,3,2,-7,-3,-1,0,2021-08-07 12:08:19,824654
1,0,2,0,-6,-2,-1,-1,2021-08-07 12:08:19,824654
-3,-3,-3,-11,-7,-4,-5,-4,2021-08-07 12:08:19,824654
0,0,-5,-9,-13,-9,-4,-1,2021-08-07 12:08:19,824654
0,2,5,9,14,8,0,-1,2021-08-07 12:08:19,824654
0,1,2,4,10,6,1,0,2021-08-07 12:08:19,825655
2,3,9,20,19,9,2,2,2021-08-07 12:08:19,825655
-2,-1,2,-3,-10,-6,-4,-4,2021-08-07 12:08:19,825655
-2,-3,-8,-4,-2,-3,-2,-1,2021-08-07 12:08:19,825655
-1,-2,-8,-16,-14,-9,-3,0,2021-08-07 12:08:19,856653
-3,-3,-1,-5,-5,-3,-2,-1,2021-08-07 12:08:19,872654
-3,1,0,-3,-3,0,-1,-2,2021-08-07 12:08:19,887652
3,4,9,8,8,6,3,1,2021-08-07 12:08:19,887652
-2,-2,-2,1,-7,-5,-3,-3,2021-08-07 12:08:19,887652
1,1,0,-3,-5,-4,-2,1,2021-08-07 12:08:19,887652
1,-1,0,1,5,4,1,-1,2021-08-07 12:08:19,887652
-4,-6,-6,-8,-9,-7,-4,-4,2021-08-07 12:08:19,887652
1,2,0,7,8,7,5,2,2021-08-07 12:08:19,887652
-4,-6,-5,-4,-6,-4,-4,-3,2021-08-07 12:08:19,903655
0,2,3,3,9,4,2,0,2021-08-07 12:08:19,903655
-1,-3,-3,-3,-3,0,-2,-2,2021-08-07 12:08:19,903655
-1,-1,-4,-11,-20,-10,-5,-4,2021-08-07 12:08:19,903655
-1,-1,-4,-7,0,-1,-1,0,2021-08-07 12:08:19,903655
-1,-2,-4,0,3,0,-1,1,2021-08-07 12:08:19,903655
3,2,6,16,14,9,4,2,2021-08-07 12:08:19,904657
-4,-3,-1,-7,-10,-6,-3,-3,2021-08-07 12:08:19,934654
0,-1,2,8,16,6,2,0,2021-08-07 12:08:19,949654
-1,-2,-2,-2,-8,-5,-3,-2,2021-08-07 12:08:19,964654
1,-1,-2,-7,-3,-3,-3,-1,2021-08-07 12:08:19,964654
-4,-5,-5,-7,-8,-4,-2,-2,2021-08-07 12:08:19,964654
0,-2,-2,-7,-5,-2,-1,-1,2021-08-07 12:08:19,964654
-1,-3,-4,-4,-3,-2,-2,-1,2021-08-07 12:08:19,964654
1,2,2,0,-2,-2,0,0,2021-08-07 12:08:19,964654
0,0,-2,-7,-6,-3,-2,-2,2021-08-07 12:08:19,980652
-4,-5,-5,-10,-13,-8,-4,-4,2021-08-07 12:08:19,996654
-1,1,5,15,8,3,2,1,2021-08-07 12:08:20,012654
6,8,5,14,25,13,6,3,2021-08-07 12:08:20,012654
-1,-1,-1,2,3,1,0,-2,2021-08-07 12:08:20,012654
1,5,4,6,2,0,2,0,2021-08-07 12:08:20,012654
-7,-9,-14,-21,-23,-12,-8,-6,2021-08-07 12:08:20,012654
-3,-3,-1,-1,0,-1,-1,-2,2021-08-07 12:08:20,012654
1,2,4,5,5,3,1,0,2021-08-07 12:08:20,013654
1,-2,-5,-7,-6,-2,-1,0,2021-08-07 12:08:20,013654
1,2,0,-3,2,3,3,3,2021-08-07 12:08:20,028655
-2,-3,0,8,-1,-5,-3,0,2021-08-07 12:08:20,044657
2,4,6,11,14,10,3,4,2021-08-07 12:08:20,044657
-3,-2,0,-5,-5,-1,-3,0,2021-08-07 12:08:20,060654
0,0,-2,-2,0,-3,-1,-1,2021-08-07 12:08:20,060654
0,-2,-3,-5,-8,-5,-1,-1,2021-08-07 12:08:20,060654
-2,-2,-2,7,4,-1,0,1,2021-08-07 12:08:20,062654
-1,-1,-3,-3,-6,-2,-1,-2,2021-08-07 12:08:20,062654
-2,-5,-6,-4,-8,-4,-2,-1,2021-08-07 12:08:20,062654
4,5,5,4,17,8,4,3,2021-08-07 12:08:20,063654
-1,-1,-3,-2,-5,-3,-2,-2,2021-08-07 12:08:20,063654
-1,-2,3,7,7,3,2,-1,2021-08-07 12:08:20,063654
1,0,1,1,1,1,0,-1,2021-08-07 12:08:20,063654
-2,-3,-7,-12,-16,-8,-4,-3,2021-08-07 12:08:20,063654
-1,-3,-3,-3,-5,-4,-2,-3,2021-08-07 12:08:20,091654
-2,-1,0,5,4,1,0,1,2021-08-07 12:08:20,091654
-2,-4,-2,-4,1,-2,-2,-3,2021-08-07 12:08:20,091654
-3,-1,-4,-10,-14,-6,-4,-3,2021-08-07 12:08:20,092240
1,1,3,6,9,5,2,1,2021-08-07 12:08:20,107699
0,-1,1,4,-3,0,-2,-2,2021-08-07 12:08:20,107699
1,0,-2,3,2,-1,2,1,2021-08-07 12:08:20,107699
-6,-3,-9,-15,-14,-8,-4,-5,2021-08-07 12:08:20,107699
-2,-2,-2,-2,-5,-5,-1,0,2021-08-07 12:08:20,139696
2,4,3,5,12,6,3,2,2021-08-07 12:08:20,139696
2,3,8,17,15,8,2,1,2021-08-07 12:08:20,139696
-4,-6,-7,-6,-5,-3,-4,-5,2021-08-07 12:08:20,139696
-5,-4,-4,-11,-12,-7,-4,-5,2021-08-07 12:08:20,154700
-2,1,1,-5,-10,-7,-2,-3,2021-08-07 12:08:20,170696
1,2,-1,-7,-2,0,0,2,2021-08-07 12:08:20,186696
-1,-2,4,8,4,2,0,-1,2021-08-07 12:08:20,186696
-2,-3,-1,1,6,3,0,0,2021-08-07 12:08:20,186696
-5,-6,-5,-6,-14,-10,-5,-6,2021-08-07 12:08:20,186696
3,3,0,5,23,12,6,3,2021-08-07 12:08:20,186696
2,4,1,-2,-4,-3,0,0,2021-08-07 12:08:20,187700
-3,-4,-4,-5,-8,-4,-2,-3,2021-08-07 12:08:20,187700
0,2,3,-3,-4,-1,-1,0,2021-08-07 12:08:20,187700
-5,-8,-7,-19,-23,-13,-7,-5,2021-08-07 12:08:20,187700
0,0,-3,9,9,7,2,1,2021-08-07 12:08:20,187700
1,0,1,4,8,4,0,0,2021-08-07 12:08:20,218695
0,-5,-9,-17,-11,-7,-3,-2,2021-08-07 12:08:20,234696
2,3,3,1,-2,-3,0,0,2021-08-07 12:08:20,250697
2,0,6,0,-3,-2,2,1,2021-08-07 12:08:20,250697
1,2,-1,1,-1,0,-1,1,2021-08-07 12:08:20,250697
-3,-6,-12,1,15,7,3,-2,2021-08-07 12:08:20,250697
2,3,3,6,3,3,-1,0,2021-08-07 12:08:20,250697
-3,-1,-1,-5,-8,-5,-1,-2,2021-08-07 12:08:20,250697
0,2,3,3,5,1,-1,0,2021-08-07 12:08:20,251697
2,2,3,-1,-4,-3,-3,0,2021-08-07 12:08:20,251697
-6,-7,-9,-17,-14,-9,-6,-5,2021-08-07 12:08:20,251697
0,0,-5,-4,-1,0,-1,-1,2021-08-07 12:08:20,251697
4,3,5,15,14,8,3,1,2021-08-07 12:08:20,281696
-1,0,2,6,5,2,1,-1,2021-08-07 12:08:20,281696
0,2,3,8,3,3,2,0,2021-08-07 12:08:20,281696
-1,-4,-8,-17,-15,-9,-6,-3,2021-08-07 12:08:20,281696
-1,0,-2,-6,-6,-3,-1,-1,2021-08-07 12:08:20,281696
1,2,3,6,9,4,2,2,2021-08-07 12:08:20,282699
-4,-3,0,-1,-6,-3,-5,-3,2021-08-07 12:08:20,297696
-3,-5,-3,-12,-13,-7,-3,-3,2021-08-07 12:08:20,297696
2,2,2,15,23,10,5,0,2021-08-07 12:08:20,313697
-2,-3,-6,-3,-5,-3,-2,0,2021-08-07 12:08:20,329215
1,2,-1,-1,3,4,2,1,2021-08-07 12:08:20,329215
4,2,6,16,26,13,4,2,2021-08-07 12:08:20,329215
-4,-4,-9,-18,-25,-14,-7,-3,2021-08-07 12:08:20,329215
0,0,3,-3,-5,-4,-3,-3,2021-08-07 12:08:20,329215
-3,-5,-2,-3,-4,-5,-3,-3,2021-08-07 12:08:20,329215
3,6,5,11,14,6,3,3,2021-08-07 12:08:20,330214
-1,1,3,9,4,2,3,-1,2021-08-07 12:08:20,345215
-1,-1,-1,-7,-8,-4,-2,-1,2021-08-07 12:08:20,345215
-4,-5,-11,-15,-17,-12,-7,-5,2021-08-07 12:08:20,345215
-5,-6,-5,-2,-3,-3,-2,-4,2021-08-07 12:08:20,345215
-2,-3,-6,-12,-13,-8,-6,-3,2021-08-07 12:08:20,376217
3,3,1,4,15,10,3,2,2021-08-07 12:08:20,392214
3,3,10,16,10,7,3,0,2021-08-07 12:08:20,392214
-2,-3,-2,-7,-9,-4,-3,-1,2021-08-07 12:08:20,392214
-1,-2,-1,-3,-3,-3,0,-1,2021-08-07 12:08:20,392214
-1,-3,-4,-8,-10,-6,-3,-1,2021-08-07 12:08:20,392214
3,4,4,7,7,5,1,0,2021-08-07 12:08:20,392214
-2,-1,2,2,-3,-3,-3,-2,2021-08-07 12:08:20,392214
-1,-3,-6,-10,-8,-3,-3,-2,2021-08-07 12:08:20,424215
1,1,1,3,1,0,-1,1,2021-08-07 12:08:20,440215
3,2,1,7,9,3,3,4,2021-08-07 12:08:20,456214
0,-3,0,4,0,-1,0,0,2021-08-07 12:08:20,456214
0,-2,1,-4,-2,-2,0,-1,2021-08-07 12:08:20,456214
-8,-7,-6,-11,-14,-8,-5,-5,2021-08-07 12:08:20,456214
-2,3,3,10,10,2,0,-2,2021-08-07 12:08:20,472215
-3,0,-2,-9,-13,-6,-5,-4,2021-08-07 12:08:20,472215
4,4,1,-2,2,1,0,4,2021-08-07 12:08:20,472215
5,6,11,29,43,22,7,4,2021-08-07 12:08:20,472215
-4,-5,-8,-11,-13,-7,-3,-1,2021-08-07 12:08:20,472215
-3,-2,-2,-6,-4,-2,-1,2,2021-08-07 12:08:20,472215
-1,-3,-5,-8,-12,-6,-3,-1,2021-08-07 12:08:20,472215
0,0,-2,-5,-11,-8,0,-1,2021-08-07 12:08:20,473214
-1,-1,0,0,3,2,0,-2,2021-08-07 12:08:20,473214
0,-2,-2,-3,0,-2,-1,-2,2021-08-07 12:08:20,487214
0,-1,0,0,-1,0,0,0,2021-08-07 12:08:20,503214
1,1,1,1,-1,0,0,-1,2021-08-07 12:08:20,503214
-4,-4,-3,-1,-2,-1,-2,0,2021-08-07 12:08:20,503214
-3,-1,-2,-3,-1,-1,-1,-1,2021-08-07 12:08:20,503214
-1,1,3,4,5,1,0,-1,2021-08-07 12:08:20,503214
2,0,2,3,1,-2,-1,0,2021-08-07 12:08:20,503214
-1,-3,-4,-6,-5,-4,-4,-2,2021-08-07 12:08:20,504213
-2,-1,0,0,1,0,0,-1,2021-08-07 12:08:20,504213
0,1,2,3,5,2,1,0,2021-08-07 12:08:20,534214
-2,-2,-2,-3,-5,-2,0,-2,2021-08-07 12:08:20,534214
-3,-1,-3,-4,-4,-2,-2,-2,2021-08-07 12:08:20,535213
-2,-1,-1,1,-1,-1,-1,-1,2021-08-07 12:08:20,535213
1,1,1,3,3,-1,-1,0,2021-08-07 12:08:20,551213
-1,-1,-2,-3,-5,-4,-2,-3,2021-08-07 12:08:20,551213
-2,-1,0,0,-1,-1,-1,1,2021-08-07 12:08:20,551213
-1,-1,-2,-2,-1,0,-1,-1,2021-08-07 12:08:20,551213
-3,-3,-3,-7,-10,-6,-2,-1,2021-08-07 12:08:20,567213
1,2,2,6,10,2,0,1,2021-08-07 12:08:20,567213
-2,-2,-2,-5,-6,-4,-2,-2,2021-08-07 12:08:20,583212
2,1,5,7,8,5,1,1,2021-08-07 12:08:20,583212
-2,-1,-1,2,-7,-2,-1,0,2021-08-07 12:08:20,599215
-1,-2,-2,-2,5,0,1,-2,2021-08-07 12:08:20,599215
-1,-1,0,-2,-1,-1,-1,-1,2021-08-07 12:08:20,615214
-1,-1,-3,-4,-6,-4,-2,-1,2021-08-07 12:08:20,615214
-4,-5,-4,-5,-5,-3,-4,-5,2021-08-07 12:08:20,615214
-5,-7,-5,-9,-9,-3,-2,-2,2021-08-07 12:08:20,631216
4,6,3,0,-5,-5,0,2,2021-08-07 12:08:20,631216
5,3,3,5,8,6,5,3,2021-08-07 12:08:20,631216
1,1,4,9,12,4,2,1,2021-08-07 12:08:20,632216
-4,-3,-7,-13,-21,-9,-5,-4,2021-08-07 12:08:20,632216
-2,-7,-9,-4,3,3,0,-1,2021-08-07 12:08:20,647214
-1,1,4,10,7,3,0,-2,2021-08-07 12:08:20,647214
0,0,0,2,4,2,1,0,2021-08-07 12:08:20,647214
-2,-4,-7,-13,-17,-9,-3,-1,2021-08-07 12:08:20,647214
2,3,6,12,17,10,5,1,2021-08-07 12:08:20,647214
-3,-2,-3,-6,-9,-6,-2,-4,2021-08-07 12:08:20,648213
-1,-3,1,3,6,4,0,-1,2021-08-07 12:08:20,679213
-3,-2,-1,-3,-5,-5,-3,-2,2021-08-07 12:08:20,679213
2,1,0,-6,-9,-4,-2,0,2021-08-07 12:08:20,679213
1,2,-1,0,2,2,2,2,2021-08-07 12:08:20,695216
-2,-4,0,5,7,2,1,-2,2021-08-07 12:08:20,695216
1,2,-1,-9,-9,-3,-3,-2,2021-08-07 12:08:20,695216
-1,-2,2,5,7,2,-1,0,2021-08-07 12:08:20,695216
-1,-1,2,6,4,2,0,0,2021-08-07 12:08:20,695216
-1,1,-7,-16,-17,-9,-3,-2,2021-08-07 12:08:20,711215
-4,-4,-2,4,-3,2,1,-2,2021-08-07 12:08:20,711215
-3,-4,-6,-14,-7,-6,-6,-3,2021-08-07 12:08:20,711215
1,2,8,27,33,13,4,0,2021-08-07 12:08:20,711215
-3,0,4,4,0,0,-1,-2,2021-08-07 12:08:20,741213
1,-1,1,5,6,2,0,2,2021-08-07 12:08:20,757219
-3,-3,-2,-8,-16,-8,-2,-3,2021-08-07 12:08:20,773212
-1,-3,-6,-14,-12,-4,-2,-1,2021-08-07 12:08:20,773212
2,2,-1,0,3,1,1,2,2021-08-07 12:08:20,774215
2,1,1,6,5,0,0,0,2021-08-07 12:08:20,774215
-3,-2,-6,-7,-8,-4,-2,-2,2021-08-07 12:08:20,774215
-1,-2,-2,-9,-6,-3,-3,0,2021-08-07 12:08:20,774215
2,-1,5,6,5,4,1,1,2021-08-07 12:08:20,774215
-2,-1,-2,-4,-9,-3,-3,-1,2021-08-07 12:08:20,774215
-3,-3,-2,6,19,5,1,-2,2021-08-07 12:08:20,774215
2,5,1,-4,-2,0,0,1,2021-08-07 12:08:20,775213
-2,-2,-4,-8,-8,-2,-2,-2,2021-08-07 12:08:20,805220
5,6,8,13,10,6,5,3,2021-08-07 12:08:20,821212
-8,-7,-7,-11,-17,-10,-5,-5,2021-08-07 12:08:20,821212
2,-1,1,5,8,2,0,1,2021-08-07 12:08:20,821212
3,6,5,9,3,3,2,5,2021-08-07 12:08:20,821212
-1,-2,-2,-2,0,0,-1,-2,2021-08-07 12:08:20,821212
1,3,2,3,7,3,1,1,2021-08-07 12:08:20,837213
-6,-7,-9,-14,-22,-11,-6,-6,2021-08-07 12:08:20,852214
0,0,-1,0,7,0,-1,-2,2021-08-07 12:08:20,852214
0,2,3,2,4,2,2,0,2021-08-07 12:08:20,852214
-1,-2,1,5,3,2,0,0,2021-08-07 12:08:20,868213
-4,-4,-6,-11,-16,-10,-6,-2,2021-08-07 12:08:20,868213
2,0,2,3,6,4,2,0,2021-08-07 12:08:20,868213
-1,-1,-1,3,6,1,-3,-1,2021-08-07 12:08:20,868213
-1,1,1,6,2,3,1,2,2021-08-07 12:08:20,868213
0,-2,-4,-3,-5,0,-1,-1,2021-08-07 12:08:20,868213
-3,-3,-6,-9,-12,-8,-3,-2,2021-08-07 12:08:20,884212
-2,-1,1,4,7,2,-1,-2,2021-08-07 12:08:20,900214
-1,-2,1,6,1,1,2,-1,2021-08-07 12:08:20,916214
-6,-5,-7,-8,-10,-8,-5,-3,2021-08-07 12:08:20,916214
1,3,-3,-14,-10,-2,1,2,2021-08-07 12:08:20,916214
0,1,5,13,12,7,1,-1,2021-08-07 12:08:20,916214
-2,-2,-1,6,3,0,-1,-2,2021-08-07 12:08:20,916214
0,2,0,-3,-3,-1,0,1,2021-08-07 12:08:20,916214
-4,-2,-1,2,5,-1,-1,-2,2021-08-07 12:08:20,917215
-3,-1,-3,-10,-12,-8,-3,-1,2021-08-07 12:08:20,917215
-2,-1,-2,-6,-6,-4,-3,0,2021-08-07 12:08:20,917215
2,0,3,13,21,9,2,1,2021-08-07 12:08:20,917215
-1,-5,-6,-6,-7,-4,-3,-2,2021-08-07 12:08:20,948214
2,1,2,5,4,3,2,2,2021-08-07 12:08:20,948214
0,-1,1,-3,-7,-4,-2,-1,2021-08-07 12:08:20,948214
-2,-2,-4,-14,-11,-7,-3,-3,2021-08-07 12:08:20,948214
-1,-1,4,6,5,2,-2,-2,2021-08-07 12:08:20,948214
-3,-3,-5,-8,-12,-7,-3,-2,2021-08-07 12:08:20,948214
-1,-2,1,8,11,6,3,0,2021-08-07 12:08:20,949215
2,5,7,11,14,8,4,2,2021-08-07 12:08:20,949215
0,2,4,11,7,4,3,1,2021-08-07 12:08:20,980215
-4,-4,-6,-7,-8,-6,-3,-3,2021-08-07 12:08:20,980215
0,-1,-6,-14,-14,-8,-4,-2,2021-08-07 12:08:20,980215
-1,-2,-4,-10,-8,-6,-1,-1,2021-08-07 12:08:20,980215
-3,-4,1,10,8,3,-1,-2,2021-08-07 12:08:20,995215
4,4,6,11,12,7,3,3,2021-08-07 12:08:21,011214
-2,-1,-1,-2,-1,-2,-3,-2,2021-08-07 12:08:21,011214
-3,-2,-4,-5,-12,-6,-2,-3,2021-08-07 12:08:21,011214
-3,-2,-8,-19,-14,-9,-7,-2,2021-08-07 12:08:21,011214
-2,-3,-4,-8,-3,-3,-2,-1,2021-08-07 12:08:21,011214
-3,-3,-3,-5,-4,-1,-2,-2,2021-08-07 12:08:21,011214
0,-2,6,15,15,6,1,0,2021-08-07 12:08:21,012214
-4,-2,-2,-4,-9,-4,-1,0,2021-08-07 12:08:21,043214
-3,-3,-5,-2,1,0,1,-2,2021-08-07 12:08:21,058214
4,8,7,7,10,6,3,2,2021-08-07 12:08:21,058214
-3,-5,-5,-6,-9,-3,-3,-1,2021-08-07 12:08:21,058214
2,3,0,0,2,0,1,1,2021-08-07 12:08:21,058214
-1,-3,-2,-1,-5,-5,-2,-4,2021-08-07 12:08:21,058214
-3,-4,-7,-6,-2,0,-1,-2,2021-08-07 12:08:21,058214
-1,1,6,10,8,4,0,1,2021-08-07 12:08:21,059214
1,-3,-3,-5,-3,-2,-2,1,2021-08-07 12:08:21,074216
0,1,0,0,1,-2,-1,1,2021-08-07 12:08:21,074216
-1,0,-1,-5,-8,-5,-4,-2,2021-08-07 12:08:21,074216
-2,-2,-4,-3,1,1,-2,-1,2021-08-07 12:08:21,074216
0,-2,2,6,7,2,-1,-2,2021-08-07 12:08:21,105214
-1,-2,-2,-2,-4,0,0,-1,2021-08-07 12:08:21,121214
-2,-4,-3,-1,-1,-4,-3,-3,2021-08-07 12:08:21,121214
1,5,2,-2,-6,-3,1,1,2021-08-07 12:08:21,121214
0,1,1,-1,-2,1,1,-1,2021-08-07 12:08:21,121214
-2,0,0,-2,3,1,0,1,2021-08-07 12:08:21,121214
-3,-4,-4,-2,-5,-2,-1,-2,2021-08-07 12:08:21,121214
-2,-4,-3,-7,-2,-2,-2,-1,2021-08-07 12:08:21,122215
1,2,3,8,4,1,1,0,2021-08-07 12:08:21,137215
0,-2,1,-1,2,-1,-2,0,2021-08-07 12:08:21,137215
-1,-1,-1,4,0,-1,-3,0,2021-08-07 12:08:21,137215
-2,-2,-4,-7,-11,-6,-4,-2,2021-08-07 12:08:21,137215
0,1,-1,3,1,1,0,1,2021-08-07 12:08:21,153215
-3,-3,-4,-9,-6,-1,-1,-2,2021-08-07 12:08:21,153215
3,2,3,2,4,0,1,1,2021-08-07 12:08:21,169214
1,0,-1,-1,0,0,2,0,2021-08-07 12:08:21,169214
0,-2,-4,-3,-4,-3,-1,0,2021-08-07 12:08:21,169214
2,-2,-2,-1,-1,1,0,-1,2021-08-07 12:08:21,169214
-4,-3,1,0,0,0,1,-1,2021-08-07 12:08:21,185212
-3,-2,1,3,3,-1,-3,-5,2021-08-07 12:08:21,185212
-5,-1,-1,0,-1,-2,-3,-4,2021-08-07 12:08:21,185212
-3,-1,-2,-2,-3,-3,-4,-2,2021-08-07 12:08:21,185212
1,4,3,1,-1,-1,-1,1,2021-08-07 12:08:21,201214
1,2,-1,0,-2,-1,-1,0,2021-08-07 12:08:21,217212
2,0,0,-2,-1,0,0,-1,2021-08-07 12:08:21,232214
0,1,-1,0,0,0,1,2,2021-08-07 12:08:21,232214
0,-2,-1,-1,-2,-1,-1,0,2021-08-07 12:08:21,232214
-2,-5,-3,-5,-4,-2,-2,-1,2021-08-07 12:08:21,232214
-2,-3,-3,-4,-3,-1,-2,-1,2021-08-07 12:08:21,232214
0,1,3,6,6,3,1,-1,2021-08-07 12:08:21,232214
2,-1,-1,0,-1,-1,0,-1,2021-08-07 12:08:21,232214
-2,-1,-2,0,-1,1,-3,0,2021-08-07 12:08:21,233214
-2,-1,-3,-7,-6,-3,-2,-3,2021-08-07 12:08:21,248214
-3,-4,-5,-1,-1,-2,-3,-4,2021-08-07 12:08:21,264214
1,1,0,1,0,0,-1,0,2021-08-07 12:08:21,296213
1,0,-1,0,0,-1,0,0,2021-08-07 12:08:21,311216
-2,-1,-2,-3,-2,-2,-1,1,2021-08-07 12:08:21,327216
-2,-1,1,-1,-2,-2,-1,-2,2021-08-07 12:08:21,327216
-1,1,3,1,0,2,1,0,2021-08-07 12:08:21,327216
-1,-2,-4,-3,0,-1,-1,0,2021-08-07 12:08:21,327216
0,-1,0,-3,-1,0,-2,-1,2021-08-07 12:08:21,327216
0,0,1,5,1,-1,0,0,2021-08-07 12:08:21,327216
0,1,2,2,3,1,0,1,2021-08-07 12:08:21,328214
-1,0,-1,1,-4,-3,-1,-1,2021-08-07 12:08:21,328214
1,0,-1,-7,-9,-5,-2,0,2021-08-07 12:08:21,328214
-2,-1,-6,-10,-4,-1,-1,-1,2021-08-07 12:08:21,328214
-2,-1,2,5,5,2,-1,0,2021-08-07 12:08:21,328214
0,0,3,7,7,5,3,0,2021-08-07 12:08:21,328214
-2,-4,-4,-2,1,0,0,-3,2021-08-07 12:08:21,329213
-1,0,1,0,-5,-3,-2,-1,2021-08-07 12:08:21,329213
-6,-5,-8,-12,-13,-9,-5,-5,2021-08-07 12:08:21,329213
-1,-2,-4,-7,-2,-2,0,-1,2021-08-07 12:08:21,329213
1,2,2,4,1,0,-1,0,2021-08-07 12:08:21,375214
2,2,2,5,6,4,2,1,2021-08-07 12:08:21,407214
4,2,1,0,3,2,1,0,2021-08-07 12:08:21,423216
-4,-2,0,-4,-7,-5,-3,-3,2021-08-07 12:08:21,439213
-4,-8,-4,0,-2,-2,-1,-3,2021-08-07 12:08:21,439213
5,8,9,7,10,6,2,4,2021-08-07 12:08:21,455216
2,0,-1,-1,-1,-2,-1,-1,2021-08-07 12:08:21,455216
0,-1,0,-3,-4,-3,-1,-2,2021-08-07 12:08:21,471216
-1,-2,-4,-4,-4,0,-3,-2,2021-08-07 12:08:21,471216
-4,-5,-3,0,-2,-3,-2,-1,2021-08-07 12:08:21,471216
2,3,5,11,12,6,3,2,2021-08-07 12:08:21,471216
4,4,5,8,6,3,2,2,2021-08-07 12:08:21,471216
-3,-4,-2,-3,-1,-1,-1,0,2021-08-07 12:08:21,471216
-3,-4,-4,-5,-10,-6,-4,-4,2021-08-07 12:08:21,472216
-3,-3,-5,-10,-9,-4,-3,-2,2021-08-07 12:08:21,472216
-2,-4,-5,-4,-4,-4,-3,-3,2021-08-07 12:08:21,472216
2,1,-1,-5,0,0,1,0,2021-08-07 12:08:21,472216
0,0,1,3,1,-1,-2,-1,2021-08-07 12:08:21,472216
-4,-4,-5,-3,-3,-2,-2,-2,2021-08-07 12:08:21,472216
-2,1,0,3,-2,0,0,0,2021-08-07 12:08:21,472216
1,0,-2,-3,8,5,3,1,2021-08-07 12:08:21,472216
-1,-2,-1,3,2,0,-3,0,2021-08-07 12:08:21,472216
1,-1,-2,-2,0,-1,-1,-1,2021-08-07 12:08:21,472216
0,-1,-2,1,-2,-3,-2,-1,2021-08-07 12:08:21,473214
-4,-3,-4,-7,-8,-5,-4,-1,2021-08-07 12:08:21,473214
1,2,4,6,5,2,2,2,2021-08-07 12:08:21,473214
0,1,-2,-3,1,2,1,0,2021-08-07 12:08:21,473214
1,0,1,2,-4,-2,-1,0,2021-08-07 12:08:21,473214
3,4,3,5,3,4,3,1,2021-08-07 12:08:21,483213
-4,-6,-9,-12,-6,-3,-3,-4,2021-08-07 12:08:21,483213
-4,-5,-2,-5,-6,-4,-3,-2,2021-08-07 12:08:21,503217
1,0,-2,-1,1,3,2,1,2021-08-07 12:08:21,519214
-3,0,0,3,0,-4,-2,-3,2021-08-07 12:08:21,519214
-3,-1,1,1,-1,0,0,-2,2021-08-07 12:08:21,519214
2,2,1,-3,-2,1,1,2,2021-08-07 12:08:21,519214
0,1,-1,-3,-1,0,0,2,2021-08-07 12:08:21,519214
-1,-1,-1,1,-1,0,-2,-1,2021-08-07 12:08:21,535214
1,-1,2,-1,-3,-1,1,-2,2021-08-07 12:08:21,535214
-2,-1,2,3,2,-1,-1,-1,2021-08-07 12:08:21,535214
-1,-1,-1,-3,3,1,-1,-1,2021-08-07 12:08:21,535214
3,3,3,7,3,2,3,0,2021-08-07 12:08:21,550215
0,-1,-4,-7,-9,-6,-3,-1,2021-08-07 12:08:21,550215
-3,-2,0,9,7,3,0,-1,2021-08-07 12:08:21,566216
-1,-1,1,3,3,0,-2,-2,2021-08-07 12:08:21,581214
-2,0,-2,-4,-2,-4,-2,-1,2021-08-07 12:08:21,581214
-3,-3,-4,-4,-9,-6,-2,-1,2021-08-07 12:08:21,581214
-3,-1,-2,-10,-7,-4,-1,-2,2021-08-07 12:08:21,581214
4,6,6,6,5,4,1,2,2021-08-07 12:08:21,597217
1,-1,0,8,8,3,2,1,2021-08-07 12:08:21,597217
-5,-9,-15,-22,-18,-12,-9,-3,2021-08-07 12:08:21,597217
0,-2,-4,-3,-1,-1,-2,-1,2021-08-07 12:08:21,597217
-2,-2,-4,-7,-2,-2,-1,-2,2021-08-07 12:08:21,597217
-1,1,4,4,0,0,-2,0,2021-08-07 12:08:21,628216
1,2,1,4,8,3,2,0,2021-08-07 12:08:21,644216
-1,-3,0,-1,1,0,-1,0,2021-08-07 12:08:21,660212
2,1,1,2,1,0,0,1,2021-08-07 12:08:21,676213
2,1,2,-2,-1,-1,-1,-1,2021-08-07 12:08:21,676213
-4,-4,-5,-6,-3,-4,-2,-3,2021-08-07 12:08:21,676213
0,0,2,3,-5,-4,-1,0,2021-08-07 12:08:21,676213
-4,-1,2,4,3,1,0,-1,2021-08-07 12:08:21,676213
-1,0,0,7,11,5,1,-1,2021-08-07 12:08:21,676213
1,1,0,2,0,0,0,-1,2021-08-07 12:08:21,677214
-1,1,-2,-3,-2,-2,-2,0,2021-08-07 12:08:21,677214
-3,-4,-4,-6,-6,-5,-3,-2,2021-08-07 12:08:21,677214
0,0,1,6,1,-1,1,0,2021-08-07 12:08:21,677214
1,0,1,-1,0,-1,-1,-1,2021-08-07 12:08:21,677214
0,-1,-1,1,1,0,0,-1,2021-08-07 12:08:21,677214
-2,-3,-2,-2,-1,0,1,-1,2021-08-07 12:08:21,677214
-2,-4,-7,-15,-13,-7,-6,-3,2021-08-07 12:08:21,691215
-1,-2,3,5,6,2,1,-1,2021-08-07 12:08:21,707216
2,3,4,4,1,0,0,1,2021-08-07 12:08:21,723212
1,-4,-7,-7,-3,-3,-2,-3,2021-08-07 12:08:21,723212
-1,1,0,-4,-7,-5,-1,0,2021-08-07 12:08:21,723212
0,-1,0,-5,-3,-1,1,2,2021-08-07 12:08:21,723212
2,0,0,5,11,4,1,0,2021-08-07 12:08:21,723212
-1,1,2,7,7,4,2,0,2021-08-07 12:08:21,723212
-2,0,4,11,8,6,0,0,2021-08-07 12:08:21,723212
4,7,4,0,-2,-2,1,2,2021-08-07 12:08:21,724214
0,-1,0,1,-3,-1,1,-1,2021-08-07 12:08:21,739213
-2,-2,-4,-4,-4,-2,-1,-3,2021-08-07 12:08:21,739213
-3,-5,-6,-9,-12,-7,-3,-5,2021-08-07 12:08:21,755216
-3,-3,-2,-6,-6,-3,-3,-1,2021-08-07 12:08:21,770215
1,0,0,4,7,3,0,-1,2021-08-07 12:08:21,770215
0,-1,-1,-1,-3,-2,-2,-1,2021-08-07 12:08:21,770215
-1,-1,-1,-4,-2,2,0,1,2021-08-07 12:08:21,770215
2,2,4,9,11,4,1,0,2021-08-07 12:08:21,770215
-2,-3,-6,-10,-9,-4,-2,-2,2021-08-07 12:08:21,770215
0,1,-1,0,1,0,1,1,2021-08-07 12:08:21,770215
-2,0,-1,-2,-3,-2,-2,-1,2021-08-07 12:08:21,786215
-2,-3,-5,-6,-5,-2,-2,-1,2021-08-07 12:08:21,786215
0,-1,-2,-9,-4,-4,-3,-1,2021-08-07 12:08:21,802213
0,3,6,11,7,3,2,1,2021-08-07 12:08:21,802213
1,-1,-1,-3,-3,-3,-3,-1,2021-08-07 12:08:21,817214
1,1,0,1,1,0,0,-1,2021-08-07 12:08:21,832214
-1,-2,-1,-1,-3,0,0,-1,2021-08-07 12:08:21,832214
0,-2,-2,-7,-4,-2,-1,-1,2021-08-07 12:08:21,832214
1,0,1,1,3,0,1,-1,2021-08-07 12:08:21,863213
-4,-3,-3,0,0,-1,-2,-3,2021-08-07 12:08:21,863213
-3,-1,-3,-3,-6,-3,-1,-2,2021-08-07 12:08:21,863213
-2,-2,-1,-1,-1,0,0,-2,2021-08-07 12:08:21,863213
-1,0,0,1,2,0,1,-3,2021-08-07 12:08:21,863213
-1,-2,-2,-3,-4,-3,-3,-3,2021-08-07 12:08:21,863213
-3,0,-4,-9,-10,-5,-3,-4,2021-08-07 12:08:21,879215
4,3,6,8,6,5,3,3,2021-08-07 12:08:21,895214
1,1,4,16,12,5,2,0,2021-08-07 12:08:21,895214
0,0,-1,2,-1,-1,-2,-1,2021-08-07 12:08:21,895214
-1,-2,-1,-3,-2,-1,0,-1,2021-08-07 12:08:21,895214
-4,-2,-3,-9,-10,-6,-3,-2,2021-08-07 12:08:21,895214
-2,-4,-8,-12,-10,-6,-4,-2,2021-08-07 12:08:21,895214
2,2,5,11,17,7,3,2,2021-08-07 12:08:21,895214
-1,0,1,8,2,0,0,1,2021-08-07 12:08:21,895214
-2,-1,-7,-11,-8,-5,-2,-3,2021-08-07 12:08:21,896214
1,-2,0,-3,-5,-2,-1,1,2021-08-07 12:08:21,943214
-1,-2,0,3,9,4,1,0,2021-08-07 12:08:21,959215
3,1,3,6,4,1,1,2,2021-08-07 12:08:21,967212
1,1,2,2,-1,0,1,0,2021-08-07 12:08:21,967212
-2,0,-2,-3,-4,-5,-1,-2,2021-08-07 12:08:21,968214
-4,-6,-6,-13,-12,-6,-2,-3,2021-08-07 12:08:21,968214
1,-3,-4,-3,2,0,1,1,2021-08-07 12:08:21,968214
1,-3,-2,-1,-1,3,0,2,2021-08-07 12:08:21,968214
-3,-4,-3,-4,-3,-1,-2,-1,2021-08-07 12:08:21,968214
-3,-1,-1,-6,-8,-4,-3,-2,2021-08-07 12:08:21,968214
-6,-2,3,10,12,5,-1,-2,2021-08-07 12:08:21,969215
1,4,1,0,-4,-4,-4,-1,2021-08-07 12:08:21,969215
0,0,-1,-5,4,0,1,2,2021-08-07 12:08:21,991215
2,5,7,13,6,1,2,2,2021-08-07 12:08:21,991215
1,-1,-4,-6,-10,-5,-3,-1,2021-08-07 12:08:21,991215
-2,-2,-4,-5,-5,-3,-3,-1,2021-08-07 12:08:21,991215
-4,-2,-3,-1,-1,-2,-2,-2,2021-08-07 12:08:22,007214
-4,-5,-6,-9,-8,-5,-3,-2,2021-08-07 12:08:22,023214
0,1,2,3,1,4,3,2,2021-08-07 12:08:22,023214
-1,-1,-1,2,4,0,0,0,2021-08-07 12:08:22,023214
2,1,1,-1,-1,1,-1,-1,2021-08-07 12:08:22,023214
-3,-3,-4,-3,-6,-2,0,-1,2021-08-07 12:08:22,023214
0,0,-2,-4,0,-2,-1,-3,2021-08-07 12:08:22,023214
0,0,1,3,6,3,0,-1,2021-08-07 12:08:22,024214
0,-1,1,3,-3,-3,-2,0,2021-08-07 12:08:22,039214
-3,-4,-9,-17,-22,-10,-6,-4,2021-08-07 12:08:22,055212
3,3,9,26,40,20,6,4,2021-08-07 12:08:22,055212
0,1,1,1,0,1,1,1,2021-08-07 12:08:22,055212
0,1,2,7,10,5,1,2,2021-08-07 12:08:22,055212
0,0,-1,-3,-8,-4,-2,-1,2021-08-07 12:08:22,055212
-3,-2,-3,-9,-13,-8,-3,-1,2021-08-07 12:08:22,055212
-2,-4,-3,-7,-5,-4,-4,-2,2021-08-07 12:08:22,055212
-1,-1,-1,-2,-2,-1,-2,-1,2021-08-07 12:08:22,086215
0,-1,1,-2,-3,-1,-1,-1,2021-08-07 12:08:22,086215
-3,-4,-4,-7,-11,-6,-3,-1,2021-08-07 12:08:22,086215
-2,-1,0,0,4,1,-1,-1,2021-08-07 12:08:22,086215
0,-1,0,-1,-3,-2,-1,-1,2021-08-07 12:08:22,102213
-3,-2,-2,3,5,2,0,-1,2021-08-07 12:08:22,118213
-1,1,0,-4,-4,-1,-1,-2,2021-08-07 12:08:22,134214
-1,-3,-2,0,-1,-3,-1,0,2021-08-07 12:08:22,134214
-2,-1,-5,-13,-19,-10,-6,-2,2021-08-07 12:08:22,134214
3,2,3,10,21,11,4,3,2021-08-07 12:08:22,134214
4,1,4,9,9,6,3,1,2021-08-07 12:08:22,134214
-5,-7,-7,-7,-9,-7,-4,-5,2021-08-07 12:08:22,134214
1,2,3,3,7,3,2,0,2021-08-07 12:08:22,134214
-2,-3,-6,-12,-14,-9,-5,-2,2021-08-07 12:08:22,135213
0,0,-4,-7,-6,-2,-3,-1,2021-08-07 12:08:22,135213
-2,-3,0,2,1,2,1,-2,2021-08-07 12:08:22,135213
-2,-2,-7,-8,-3,-3,-3,-3,2021-08-07 12:08:22,180216
-1,2,1,4,1,-1,0,-1,2021-08-07 12:08:22,196214
-4,-3,-4,-6,-4,-4,-1,-3,2021-08-07 12:08:22,211215
1,2,2,0,-2,0,1,1,2021-08-07 12:08:22,211215
-2,-3,-1,1,2,0,-1,-2,2021-08-07 12:08:22,211215
1,0,-2,0,-3,0,-1,2,2021-08-07 12:08:22,211215
0,-2,0,1,0,-1,-1,-1,2021-08-07 12:08:22,211215
1,1,-2,-4,-7,-2,-1,-1,2021-08-07 12:08:22,212215
-3,-2,-1,0,2,0,0,-2,2021-08-07 12:08:22,212215
3,2,3,6,9,5,1,1,2021-08-07 12:08:22,212215
0,-1,0,8,7,3,0,0,2021-08-07 12:08:22,212215
3,4,4,2,1,1,1,3,2021-08-07 12:08:22,212215
-2,-2,-4,-3,-11,-4,-3,-3,2021-08-07 12:08:22,212215
-4,-5,-4,-8,-2,-2,-2,-1,2021-08-07 12:08:22,213214
-5,-4,-2,-2,0,-2,-2,-3,2021-08-07 12:08:22,213214
-2,0,0,0,1,-3,-1,-2,2021-08-07 12:08:22,213214
-1,1,1,1,-1,-1,1,0,2021-08-07 12:08:22,227214
-3,-3,0,-5,-3,-1,0,-3,2021-08-07 12:08:22,227214
-1,1,-1,-9,-13,-7,-3,-2,2021-08-07 12:08:22,227214
-2,-2,0,1,3,2,1,-1,2021-08-07 12:08:22,227214
1,0,1,1,0,-2,-1,-1,2021-08-07 12:08:22,259213
0,3,4,8,0,0,1,1,2021-08-07 12:08:22,275214
0,0,-3,-7,-6,-4,-1,0,2021-08-07 12:08:22,291213
-2,-1,-1,1,-2,-1,-1,-1,2021-08-07 12:08:22,291213
1,0,-2,-3,4,2,0,2,2021-08-07 12:08:22,291213
2,3,3,6,8,4,1,1,2021-08-07 12:08:22,291213
1,1,1,-1,-8,-4,-2,0,2021-08-07 12:08:22,291213
-2,-5,-6,-4,4,1,0,-3,2021-08-07 12:08:22,291213
5,6,5,2,-3,2,4,6,2021-08-07 12:08:22,291213
-1,-1,-1,5,6,1,0,-2,2021-08-07 12:08:22,292214
2,0,-1,-2,-1,0,-1,0,2021-08-07 12:08:22,292214
-2,-2,-2,-4,-8,-3,-1,0,2021-08-07 12:08:22,292214
-6,-9,-8,-9,-7,-6,-3,-5,2021-08-07 12:08:22,323217
0,-1,0,-4,-5,-1,-2,0,2021-08-07 12:08:22,323217
-1,0,1,4,4,2,2,2,2021-08-07 12:08:22,323217
0,0,0,-2,1,0,-4,0,2021-08-07 12:08:22,323217
-3,-4,-4,-2,-2,-2,-3,-3,2021-08-07 12:08:22,339214
2,-1,2,4,1,1,2,1,2021-08-07 12:08:22,355213
-2,-6,-4,-8,-9,-4,-4,-2,2021-08-07 12:08:22,371217
1,1,-1,3,6,3,1,0,2021-08-07 12:08:22,371217
-1,-1,0,0,0,-1,-2,-3,2021-08-07 12:08:22,371217
-1,2,2,4,-1,-3,-1,-2,2021-08-07 12:08:22,371217
0,0,-2,-6,-6,-3,-3,-1,2021-08-07 12:08:22,371217
1,1,3,4,-2,-3,-1,-2,2021-08-07 12:08:22,371217
2,3,11,17,17,6,1,2,2021-08-07 12:08:22,372215
-4,-6,-5,0,2,0,-2,-2,2021-08-07 12:08:22,372215
-2,-1,2,7,8,3,1,-1,2021-08-07 12:08:22,372215
1,0,0,-3,-10,-3,-2,0,2021-08-07 12:08:22,372215
-3,-2,-6,-8,-3,-2,-1,-2,2021-08-07 12:08:22,403215
-5,-4,-1,-6,-8,-6,-3,-2,2021-08-07 12:08:22,419212
0,-1,-3,-8,-9,-5,-1,-1,2021-08-07 12:08:22,419212
-1,-1,0,1,6,1,0,0,2021-08-07 12:08:22,419212
-1,-3,-1,0,0,1,1,1,2021-08-07 12:08:22,435214
-2,-1,-3,-5,-3,-1,-3,1,2021-08-07 12:08:22,435214
-6,-8,-8,-15,-19,-11,-5,-4,2021-08-07 12:08:22,435214
4,6,8,20,23,14,6,5,2021-08-07 12:08:22,435214
0,1,2,3,4,2,1,-1,2021-08-07 12:08:22,440214
-2,0,0,6,2,0,-1,-1,2021-08-07 12:08:22,440214
-1,1,1,1,0,-1,0,3,2021-08-07 12:08:22,440214
-4,-6,-7,-15,-19,-12,-7,-6,2021-08-07 12:08:22,441214
-7,-8,-11,-19,-10,-7,-6,-4,2021-08-07 12:08:22,467214
7,10,11,20,15,11,8,3,2021-08-07 12:08:22,467214
1,2,4,10,7,3,2,0,2021-08-07 12:08:22,467214
-1,-2,-2,-6,-4,-3,-1,1,2021-08-07 12:08:22,467214
-3,-2,-3,-5,-8,-3,-1,-1,2021-08-07 12:08:22,498212
-3,-4,-4,-4,-1,-3,-3,-2,2021-08-07 12:08:22,514212
-1,0,-1,1,0,1,-1,0,2021-08-07 12:08:22,530213
-3,-5,-4,-8,-7,-5,-2,-2,2021-08-07 12:08:22,530213
3,1,6,15,15,8,2,0,2021-08-07 12:08:22,530213
-2,-3,-4,-9,-7,-5,-1,-2,2021-08-07 12:08:22,530213
2,0,-1,-2,-1,-2,-1,1,2021-08-07 12:08:22,530213
-2,-2,-3,-6,-10,-6,-3,-2,2021-08-07 12:08:22,530213
-4,-2,-2,-4,-3,-3,-2,-2,2021-08-07 12:08:22,546214
1,-1,1,4,4,2,1,-1,2021-08-07 12:08:22,546214
-1,-1,-1,-3,-3,-2,1,-1,2021-08-07 12:08:22,546214
-2,-3,-3,-6,-10,-3,-3,-3,2021-08-07 12:08:22,546214
0,0,1,5,4,1,0,3,2021-08-07 12:08:22,546214
1,3,2,-2,1,3,2,0,2021-08-07 12:08:22,546214
0,2,2,6,3,-1,1,-1,2021-08-07 12:08:22,546214
-2,-2,0,4,1,0,-1,0,2021-08-07 12:08:22,546214
-3,-2,-5,-3,-6,-5,-3,0,2021-08-07 12:08:22,562215
-2,-1,-6,-11,-5,-4,-2,-1,2021-08-07 12:08:22,562215
1,1,1,-1,0,1,1,0,2021-08-07 12:08:22,562215
0,3,2,-1,5,3,1,1,2021-08-07 12:08:22,562215
-1,-2,0,1,-3,-2,-3,-2,2021-08-07 12:08:22,594214
-1,-2,-3,-2,-3,-1,-2,0,2021-08-07 12:08:22,594214
-2,-2,-2,-2,0,0,-1,-1,2021-08-07 12:08:22,594214
-1,-4,-5,-4,-3,-5,-1,-2,2021-08-07 12:08:22,594214
-1,1,-1,-2,-1,-1,-2,1,2021-08-07 12:08:22,595219
-1,-1,-1,-2,-3,-4,-3,0,2021-08-07 12:08:22,595219
-1,-2,-1,-1,0,2,-1,-1,2021-08-07 12:08:22,595219
0,0,-1,-2,-1,1,0,-1,2021-08-07 12:08:22,610213
2,4,5,6,8,3,2,0,2021-08-07 12:08:22,642213
-1,-4,-6,-8,-6,-3,-3,-3,2021-08-07 12:08:22,642213
1,2,8,11,4,0,0,2,2021-08-07 12:08:22,642213
-4,-2,-6,-5,-3,-3,-4,-4,2021-08-07 12:08:22,642213
1,0,1,3,8,3,1,0,2021-08-07 12:08:22,642213
-3,-2,-3,-5,-8,-4,-3,-3,2021-08-07 12:08:22,642213
0,1,2,-1,5,3,0,-1,2021-08-07 12:08:22,643215
3,3,3,5,-4,-4,-2,0,2021-08-07 12:08:22,643215
-4,-7,-6,-13,-15,-11,-6,-3,2021-08-07 12:08:22,658213
4,4,6,10,7,3,2,1,2021-08-07 12:08:22,673212
-2,-2,-7,-9,-11,-6,-3,-2,2021-08-07 12:08:22,673212
-2,0,4,8,13,7,1,1,2021-08-07 12:08:22,673212
1,1,2,0,0,1,2,0,2021-08-07 12:08:22,673212
-1,-4,-2,-2,-4,-4,-1,0,2021-08-07 12:08:22,673212
-1,-2,-4,-1,-2,-1,-1,0,2021-08-07 12:08:22,689214
1,-2,-2,2,8,3,2,1,2021-08-07 12:08:22,705215
0,-4,-5,-7,-10,-4,-3,0,2021-08-07 12:08:22,721212
-4,-6,-8,-17,-13,-6,-4,-2,2021-08-07 12:08:22,721212
-3,-1,2,9,13,6,0,-3,2021-08-07 12:08:22,721212
-5,0,4,11,10,1,0,-4,2021-08-07 12:08:22,721212
-2,2,3,0,-3,0,-1,-1,2021-08-07 12:08:22,721212
0,2,3,6,2,0,-1,-1,2021-08-07 12:08:22,721212
0,0,-3,-8,-9,-6,-2,-1,2021-08-07 12:08:22,721212
1,-2,-6,-17,-19,-9,-4,0,2021-08-07 12:08:22,722215
3,1,0,8,7,4,0,0,2021-08-07 12:08:22,737213
0,-2,-2,-5,13,4,2,0,2021-08-07 12:08:22,753215
1,1,3,11,8,5,3,2,2021-08-07 12:08:22,753215
-1,-2,0,-1,-4,-2,-1,-1,2021-08-07 12:08:22,753215
-2,-1,-3,-8,-12,-4,-3,-1,2021-08-07 12:08:22,753215
-2,-2,-3,-4,-8,-4,-3,-1,2021-08-07 12:08:22,753215
1,-2,-2,-8,-3,0,-1,1,2021-08-07 12:08:22,753215
-3,-3,-6,-13,-16,-9,-4,-4,2021-08-07 12:08:22,754214
0,2,3,7,11,7,2,0,2021-08-07 12:08:22,784214
0,3,6,16,20,10,5,1,2021-08-07 12:08:22,784214
-2,-1,-4,-8,-8,-6,-3,-3,2021-08-07 12:08:22,784214
0,0,-2,-9,-16,-7,-4,-1,2021-08-07 12:08:22,784214
1,0,0,10,28,12,5,0,2021-08-07 12:08:22,799215
2,3,6,9,3,3,2,2,2021-08-07 12:08:22,815214
-1,0,-1,0,2,1,0,0,2021-08-07 12:08:22,831214
-2,-3,-5,-10,-9,-6,-3,-4,2021-08-07 12:08:22,847212
-4,-3,-6,-12,-17,-13,-4,-5,2021-08-07 12:08:22,847212
0,1,0,0,0,0,0,0,2021-08-07 12:08:22,847212
1,1,-1,0,0,-1,0,1,2021-08-07 12:08:22,847212
-1,-1,0,5,5,3,1,-1,2021-08-07 12:08:22,847212
-4,-4,-4,-6,-8,-2,-1,-2,2021-08-07 12:08:22,847212
1,0,1,4,13,6,2,2,2021-08-07 12:08:22,847212
3,3,3,0,-8,-3,1,0,2021-08-07 12:08:22,847212
-1,0,0,4,6,2,0,-1,2021-08-07 12:08:22,848214
1,1,1,3,-4,-2,0,-1,2021-08-07 12:08:22,862216
-2,-4,-5,-7,-15,-7,-5,-4,2021-08-07 12:08:22,878217
-2,-1,0,3,3,1,0,-1,2021-08-07 12:08:22,894214
-2,-4,-3,-2,6,1,1,-1,2021-08-07 12:08:22,894214
-1,-3,-2,-5,-11,-6,-2,-3,2021-08-07 12:08:22,896214
1,2,2,-3,-5,-1,0,0,2021-08-07 12:08:22,896214
1,0,1,8,7,2,1,0,2021-08-07 12:08:22,896214
3,4,5,12,18,9,5,2,2021-08-07 12:08:22,896214
-3,-2,-3,-6,-12,-6,-3,0,2021-08-07 12:08:22,897215
0,-2,-3,-4,3,0,0,0,2021-08-07 12:08:22,897215
-1,-4,-3,-4,-9,-4,-2,-2,2021-08-07 12:08:22,897215
-3,-2,1,0,6,3,0,1,2021-08-07 12:08:22,897215
1,-1,3,5,8,3,0,0,2021-08-07 12:08:22,926215
2,3,2,0,-4,-3,1,-1,2021-08-07 12:08:22,926215
-2,-4,-5,-9,-9,-5,-3,0,2021-08-07 12:08:22,926215
2,1,1,5,5,3,2,1,2021-08-07 12:08:22,926215
-2,-1,0,1,0,-3,-1,-3,2021-08-07 12:08:22,942214
-6,-8,-7,-6,-7,-4,-2,-4,2021-08-07 12:08:22,942214
-1,1,0,3,0,0,0,-2,2021-08-07 12:08:22,942214
0,-1,1,-3,-2,-1,0,1,2021-08-07 12:08:22,942214
1,2,4,-1,5,4,1,0,2021-08-07 12:08:22,974215
-1,0,0,6,3,0,-2,0,2021-08-07 12:08:22,974215
0,-1,2,1,-3,-1,-1,0,2021-08-07 12:08:22,974215
0,1,-2,0,1,2,-1,0,2021-08-07 12:08:22,974215
-1,1,3,4,4,2,0,0,2021-08-07 12:08:22,974215
-3,-5,-7,-13,-14,-7,-5,-3,2021-08-07 12:08:22,974215
1,0,1,0,9,4,1,1,2021-08-07 12:08:22,975214
-1,-1,-1,0,-6,-4,-2,-3,2021-08-07 12:08:22,975214
-4,-3,-6,-9,-10,-6,-4,-1,2021-08-07 12:08:23,006214
1,1,1,1,0,0,1,0,2021-08-07 12:08:23,006214
-1,-2,-1,2,4,0,-3,0,2021-08-07 12:08:23,006214
0,-3,-1,-4,1,2,0,-1,2021-08-07 12:08:23,006214
-1,0,3,14,16,9,2,1,2021-08-07 12:08:23,022214
-3,-4,-2,-3,-7,-4,-3,-2,2021-08-07 12:08:23,022214
-1,-1,-3,-8,-5,-5,-1,-1,2021-08-07 12:08:23,022214
1,1,-3,-6,-9,-5,-2,0,2021-08-07 12:08:23,022214
0,-2,-4,-7,-9,-7,-2,-3,2021-08-07 12:08:23,038215
2,0,2,5,5,2,1,1,2021-08-07 12:08:23,038215
-1,-1,-1,2,2,2,0,0,2021-08-07 12:08:23,038215
1,3,4,3,0,1,0,-2,2021-08-07 12:08:23,038215
-4,-3,-5,-8,-8,-3,-3,-2,2021-08-07 12:08:23,069252
0,-3,-2,-2,-1,-1,-1,-1,2021-08-07 12:08:23,085249
1,-1,-2,1,0,-1,0,-1,2021-08-07 12:08:23,101250
4,6,7,15,13,6,3,3,2021-08-07 12:08:23,101250
0,-1,-5,-7,-6,-4,0,-1,2021-08-07 12:08:23,101250
-2,0,1,3,-4,-2,-2,-1,2021-08-07 12:08:23,101250
-2,0,-2,-6,-4,-2,-2,-1,2021-08-07 12:08:23,102249
-4,-5,-2,2,-2,-3,-2,-3,2021-08-07 12:08:23,102249
-2,-7,-8,-12,-16,-10,-5,-5,2021-08-07 12:08:23,117248
3,5,8,17,20,10,6,3,2021-08-07 12:08:23,132249
2,2,1,5,7,3,3,1,2021-08-07 12:08:23,132249
-2,-4,-5,-9,-6,-4,-3,-1,2021-08-07 12:08:23,132249
3,4,6,6,3,1,1,1,2021-08-07 12:08:23,148249
-4,-5,-6,-11,-12,-7,-5,-2,2021-08-07 12:08:23,148249
-1,-3,-1,-1,-2,-1,-1,-3,2021-08-07 12:08:23,163249
-1,-2,-3,-8,-6,-3,-4,-3,2021-08-07 12:08:23,179250
-2,-2,-2,0,-2,1,0,0,2021-08-07 12:08:23,179250
1,1,2,4,2,2,0,0,2021-08-07 12:08:23,179250
2,2,5,5,0,1,0,2,2021-08-07 12:08:23,179250
-2,-4,-6,-5,-7,-3,-4,-1,2021-08-07 12:08:23,195249
-4,-4,-7,-12,-13,-8,-4,-1,2021-08-07 12:08:23,195249
0,0,1,5,12,3,1,1,2021-08-07 12:08:23,195249
0,0,3,10,9,5,1,-1,2021-08-07 12:08:23,195249
-2,-2,-3,-4,-2,0,1,-1,2021-08-07 12:08:23,196249
0,0,1,9,7,2,-1,0,2021-08-07 12:08:23,196249
-4,-4,-8,-18,-21,-12,-8,-3,2021-08-07 12:08:23,196249
-3,-4,0,0,-2,-3,-1,-1,2021-08-07 12:08:23,197249
0,5,5,4,4,3,1,1,2021-08-07 12:08:23,197249
0,-1,2,3,3,2,0,0,2021-08-07 12:08:23,197249
-4,-7,-9,-8,-4,-2,-1,-3,2021-08-07 12:08:23,197249
1,4,2,-2,-2,-1,1,1,2021-08-07 12:08:23,197249
0,1,1,2,-1,-1,1,-1,2021-08-07 12:08:23,197249
-2,-2,-4,-3,1,-2,-4,-1,2021-08-07 12:08:23,227251
-1,-1,-1,-2,-5,-4,-3,0,2021-08-07 12:08:23,243249
-4,-4,-7,-8,-6,-4,-3,-2,2021-08-07 12:08:23,259248
1,2,0,3,3,2,0,1,2021-08-07 12:08:23,259248
-2,0,-1,-3,-2,-1,-1,-3,2021-08-07 12:08:23,259248
-2,-1,0,0,-3,-2,-1,-1,2021-08-07 12:08:23,259248
0,-2,-3,-4,-3,-1,-1,-1,2021-08-07 12:08:23,259248
1,1,0,-1,4,0,0,2,2021-08-07 12:08:23,260250
3,4,8,16,9,5,3,1,2021-08-07 12:08:23,260250
1,1,0,3,4,4,2,-1,2021-08-07 12:08:23,260250
-2,-3,-5,0,-3,-2,-1,-1,2021-08-07 12:08:23,260250
-3,-7,-7,-14,-15,-9,-4,-5,2021-08-07 12:08:23,275251
-1,-2,1,1,2,-1,-2,-1,2021-08-07 12:08:23,275502
0,-1,-6,-13,-18,-8,-4,-3,2021-08-07 12:08:23,275502
1,2,3,8,11,6,2,3,2021-08-07 12:08:23,322780
0,1,3,7,7,4,2,-1,2021-08-07 12:08:23,322780
-2,-1,-4,-5,-6,-3,-2,0,2021-08-07 12:08:23,322780
-1,-1,1,0,-5,-3,-1,-2,2021-08-07 12:08:23,322780
-3,-4,-8,-14,-12,-6,-4,-5,2021-08-07 12:08:23,323779
-3,-3,-1,-1,-1,0,-1,-2,2021-08-07 12:08:23,338779
-4,-3,-2,-2,2,1,0,0,2021-08-07 12:08:23,338779
0,3,3,5,5,3,2,3,2021-08-07 12:08:23,338779
4,3,2,-1,-3,0,1,3,2021-08-07 12:08:23,338779
2,1,0,4,2,-1,0,0,2021-08-07 12:08:23,338779
0,-1,-4,-7,-8,-4,0,-1,2021-08-07 12:08:23,339779
0,1,1,5,13,5,2,1,2021-08-07 12:08:23,339779
-4,-4,-2,1,0,0,0,-3,2021-08-07 12:08:23,339779
-2,-2,-1,4,1,0,-1,-1,2021-08-07 12:08:23,354776
-1,0,-1,-7,-7,-3,-2,-1,2021-08-07 12:08:23,369778
2,-2,-3,-2,-3,0,0,0,2021-08-07 12:08:23,385777
-3,0,-3,-4,-6,-4,-3,-2,2021-08-07 12:08:23,401781
-2,-2,0,3,4,-2,-2,-1,2021-08-07 12:08:23,401781
3,4,5,8,12,9,4,2,2021-08-07 12:08:23,401781
-1,-3,1,4,5,2,2,0,2021-08-07 12:08:23,401781
1,0,1,2,-8,-4,-1,0,2021-08-07 12:08:23,401781
-2,-3,-3,-7,-8,-5,-4,-2,2021-08-07 12:08:23,402778
-1,-2,-2,-3,1,1,0,-1,2021-08-07 12:08:23,402778
-1,-1,-3,-3,-2,-2,-2,-1,2021-08-07 12:08:23,402778
-3,-3,-3,-8,-8,-7,-4,-4,2021-08-07 12:08:23,402778
-3,-1,0,-2,-2,1,1,1,2021-08-07 12:08:23,402778
2,1,4,10,9,4,2,2,2021-08-07 12:08:23,417777
0,-2,-3,-5,-6,-3,-1,-1,2021-08-07 12:08:23,417777
-2,-2,-4,-10,-9,-5,-4,-3,2021-08-07 12:08:23,417777
-1,1,1,6,4,2,-1,0,2021-08-07 12:08:23,417777
1,1,-1,-1,1,1,0,-1,2021-08-07 12:08:23,449306
0,0,1,1,-4,-5,-2,-3,2021-08-07 12:08:23,449306
2,-1,0,6,12,6,2,1,2021-08-07 12:08:23,449820
-2,-4,-5,-10,-10,-5,-3,0,2021-08-07 12:08:23,449820
-3,-6,-6,-5,-9,-5,-1,0,2021-08-07 12:08:23,449820
-2,-2,-2,-4,-4,-1,-1,-2,2021-08-07 12:08:23,449820
-1,3,5,15,24,10,4,-2,2021-08-07 12:08:23,464835
-5,-3,-2,-3,-5,-2,-3,-4,2021-08-07 12:08:23,464835
-1,0,0,0,-1,-4,-5,-3,2021-08-07 12:08:23,480835
-1,-1,-4,-12,-14,-5,-4,-2,2021-08-07 12:08:23,480835
1,-1,-3,-7,-6,-5,-2,0,2021-08-07 12:08:23,480835
3,1,1,4,6,4,1,0,2021-08-07 12:08:23,480835
0,-2,-3,-8,-7,-5,-1,-1,2021-08-07 12:08:23,511871
-2,-1,1,3,4,3,0,-1,2021-08-07 12:08:23,511871
-2,-4,-3,-2,-5,-2,-2,0,2021-08-07 12:08:23,527834
-3,-1,-5,-7,-2,-3,0,-2,2021-08-07 12:08:23,527834
-1,0,-2,-2,-4,-3,-2,-2,2021-08-07 12:08:23,540836
2,3,4,8,10,4,3,3,2021-08-07 12:08:23,540836
-1,-1,3,7,3,2,-1,-1,2021-08-07 12:08:23,540836
-3,-3,-4,-8,-6,-4,-3,-2,2021-08-07 12:08:23,541837
-1,0,3,7,6,3,0,0,2021-08-07 12:08:23,541837
-3,-1,-1,-5,-6,-4,-3,-1,2021-08-07 12:08:23,541837
1,0,-3,-5,-1,-2,-1,0,2021-08-07 12:08:23,541837
-1,-3,-2,-3,-6,-4,-2,-3,2021-08-07 12:08:23,541837
0,0,-3,-3,3,2,1,-1,2021-08-07 12:08:23,558839
-1,-4,-3,-1,-8,-6,-3,-4,2021-08-07 12:08:23,574837
1,2,7,17,15,7,3,1,2021-08-07 12:08:23,606836
2,1,2,7,3,0,0,1,2021-08-07 12:08:23,622833
0,-2,-3,-4,-7,-3,-3,1,2021-08-07 12:08:23,638835
-1,-1,-1,8,20,8,3,1,2021-08-07 12:08:23,638835
-5,-4,-8,-16,-15,-8,-6,-4,2021-08-07 12:08:23,638835
2,3,0,-4,-3,-2,1,-2,2021-08-07 12:08:23,638835
-3,-2,-1,-2,-3,-2,0,0,2021-08-07 12:08:23,638835
-2,-1,-4,-9,-12,-6,-3,-1,2021-08-07 12:08:23,638835
2,3,7,16,18,11,5,2,2021-08-07 12:08:23,639834
1,0,3,8,6,3,0,0,2021-08-07 12:08:23,639834
-3,-2,-6,-8,-7,-3,-2,-2,2021-08-07 12:08:23,639834
4,3,1,4,-1,1,0,0,2021-08-07 12:08:23,654836
-2,-3,-5,-10,-8,-5,-2,-3,2021-08-07 12:08:23,655122
-2,1,-1,-2,-3,-2,-4,-1,2021-08-07 12:08:23,655122
-1,-2,0,0,1,-1,0,0,2021-08-07 12:08:23,655122
-3,-2,-1,2,1,0,-2,-3,2021-08-07 12:08:23,655836
0,1,-3,-6,-11,-8,-3,0,2021-08-07 12:08:23,655836
2,1,2,5,7,4,2,1,2021-08-07 12:08:23,655836
1,1,2,10,7,4,1,0,2021-08-07 12:08:23,655836
-4,-1,0,-1,-1,1,-2,-3,2021-08-07 12:08:23,655836
2,-1,-1,-2,-3,-1,0,1,2021-08-07 12:08:23,655836
-3,-2,-2,-8,-11,-6,-2,-3,2021-08-07 12:08:23,656837
-1,-1,0,-4,-3,-2,-2,-4,2021-08-07 12:08:23,686362
-1,-1,0,6,4,0,0,0,2021-08-07 12:08:23,686362
-4,-3,-6,-16,-13,-7,-5,-3,2021-08-07 12:08:23,686362
2,3,5,12,10,3,1,2,2021-08-07 12:08:23,702358
-1,0,0,-2,0,1,1,-2,2021-08-07 12:08:23,702358
0,-3,0,-2,0,0,-1,-1,2021-08-07 12:08:23,702358
-3,-2,-2,1,-2,-2,1,-2,2021-08-07 12:08:23,718358
-3,-2,-3,-3,-1,-3,0,-2,2021-08-07 12:08:23,733357
0,-1,-2,-4,-3,-3,-2,0,2021-08-07 12:08:23,749358
-1,-3,-6,-14,-13,-7,-2,-1,2021-08-07 12:08:23,765359
-1,0,0,4,10,5,-1,-1,2021-08-07 12:08:23,797358
1,-2,0,3,0,1,-1,0,2021-08-07 12:08:23,797358
7,10,12,20,18,10,5,5,2021-08-07 12:08:23,797358
-2,-1,-2,-2,-1,1,-2,-2,2021-08-07 12:08:23,797358
-3,-5,-5,-5,-8,-4,-3,-2,2021-08-07 12:08:23,797358
-7,-9,-10,-13,-10,-7,-3,-3,2021-08-07 12:08:23,797358
-3,-3,-5,-7,-8,-6,-3,-2,2021-08-07 12:08:23,798359
4,4,5,-3,0,2,1,3,2021-08-07 12:08:23,798359
4,6,7,12,8,4,3,1,2021-08-07 12:08:23,798359
-4,-5,-10,-12,-8,-5,-6,-4,2021-08-07 12:08:23,798359
-4,-5,-7,-8,-7,-4,-3,-2,2021-08-07 12:08:23,798359
1,0,-1,0,1,1,2,-2,2021-08-07 12:08:23,798359
-1,-2,-3,-8,-10,-5,-4,-2,2021-08-07 12:08:23,798359
0,-3,-1,-4,-6,-1,0,-1,2021-08-07 12:08:23,799359
-1,-2,1,15,25,10,4,0,2021-08-07 12:08:23,799359
0,0,0,4,2,1,1,0,2021-08-07 12:08:23,799359
0,1,2,-1,0,0,0,-1,2021-08-07 12:08:23,812359
-1,-1,0,4,-1,-2,-2,-1,2021-08-07 12:08:23,828361
0,0,-3,-10,-12,-5,-2,0,2021-08-07 12:08:23,844358
-2,-2,-1,2,2,0,-1,-1,2021-08-07 12:08:23,860358
-4,-5,-5,-8,-7,-6,-5,-2,2021-08-07 12:08:23,860358
-1,1,-4,-10,-9,-4,-2,0,2021-08-07 12:08:23,860358
-1,-1,1,9,6,3,0,-1,2021-08-07 12:08:23,860358
1,3,3,4,4,1,0,1,2021-08-07 12:08:23,860358
-1,-3,-4,-5,-5,-4,0,-3,2021-08-07 12:08:23,860358
-3,-5,-4,-3,-1,-1,-3,-3,2021-08-07 12:08:23,861358
-3,-3,-1,0,3,1,-3,-1,2021-08-07 12:08:23,861358
-1,-1,0,4,3,0,-2,2,2021-08-07 12:08:23,861358
2,2,-1,-8,-6,0,-1,2,2021-08-07 12:08:23,861358
-1,1,2,10,9,3,2,-1,2021-08-07 12:08:23,861358
-1,-2,-1,-6,-5,-5,-3,-2,2021-08-07 12:08:23,891358
-2,-2,-2,1,-3,-1,0,-2,2021-08-07 12:08:23,891358
-5,-5,-5,-4,-2,-4,-2,-3,2021-08-07 12:08:23,891358
0,3,5,9,8,3,0,0,2021-08-07 12:08:23,891358
-3,-2,-2,-8,-10,-4,-2,0,2021-08-07 12:08:23,907359
-2,-2,-2,-3,-2,-2,-1,0,2021-08-07 12:08:23,907359
0,-2,-3,-4,-2,0,0,0,2021-08-07 12:08:23,907359
1,0,6,10,7,2,1,1,2021-08-07 12:08:23,907359
0,-3,-4,-5,-8,-5,-2,-2,2021-08-07 12:08:23,923356
-1,-2,0,-2,-5,-1,-1,-1,2021-08-07 12:08:23,939399
-2,-2,-5,-8,-4,-3,0,-1,2021-08-07 12:08:23,939399
-2,0,-2,-1,8,4,1,-1,2021-08-07 12:08:23,939399
2,4,7,18,13,8,4,1,2021-08-07 12:08:23,939399
0,0,0,3,6,1,0,0,2021-08-07 12:08:23,939399
-4,-4,-1,1,-5,-3,-2,-3,2021-08-07 12:08:23,939399
-2,-4,-8,-12,-12,-7,-4,-1,2021-08-07 12:08:23,939399
0,1,-1,-8,-8,-5,-1,-2,2021-08-07 12:08:23,971398
-1,-1,-3,-5,-4,-4,-2,-2,2021-08-07 12:08:23,971398
-3,-3,-3,3,2,1,-2,-2,2021-08-07 12:08:23,971398
-1,1,-1,-8,-4,-3,1,1,2021-08-07 12:08:23,971398
0,1,2,7,8,5,3,2,2021-08-07 12:08:23,986398
-3,-2,-6,-6,-6,-4,-3,-2,2021-08-07 12:08:23,986398
0,2,1,3,6,2,1,0,2021-08-07 12:08:23,986398
-1,0,0,-3,-4,-2,-3,-2,2021-08-07 12:08:23,986398
-2,-2,-4,-11,-9,-5,-3,-2,2021-08-07 12:08:24,002398
1,0,1,2,4,1,0,1,2021-08-07 12:08:24,018398
-2,-2,-2,-2,-3,-3,-2,-2,2021-08-07 12:08:24,018398
0,-2,1,1,1,2,0,0,2021-08-07 12:08:24,018398
-1,-1,-1,0,-5,-2,-1,-1,2021-08-07 12:08:24,018398
-2,-1,-1,2,3,1,0,0,2021-08-07 12:08:24,018398
-1,-1,1,-2,0,-1,-3,-2,2021-08-07 12:08:24,018398
3,1,4,8,6,3,0,0,2021-08-07 12:08:24,018398
-2,-3,-7,-10,-7,-4,-3,-3,2021-08-07 12:08:24,049400
-1,-2,-5,-11,-7,-3,-2,-2,2021-08-07 12:08:24,049400
1,1,2,10,2,0,1,1,2021-08-07 12:08:24,049400
0,0,0,2,0,-1,0,-1,2021-08-07 12:08:24,049400
-1,1,1,-1,3,2,0,0,2021-08-07 12:08:24,061400
-1,-3,-2,-2,1,1,-2,-1,2021-08-07 12:08:24,061400
-1,0,2,5,3,1,0,0,2021-08-07 12:08:24,062400
-2,-1,-2,-5,-7,-2,-2,-2,2021-08-07 12:08:24,062400
-1,-2,-2,1,-3,-2,-2,0,2021-08-07 12:08:24,081401
1,1,2,5,1,0,0,-1,2021-08-07 12:08:24,081401
-3,-4,-4,-4,-5,-3,-2,-4,2021-08-07 12:08:24,081401
-3,-5,-4,-4,-8,-5,-2,-1,2021-08-07 12:08:24,097398
0,1,0,-1,1,1,-2,2,2021-08-07 12:08:24,097398
0,2,3,8,12,7,3,-1,2021-08-07 12:08:24,097398
1,3,4,1,5,3,2,4,2021-08-07 12:08:24,097398
-3,-2,-5,-3,-6,-3,-4,-3,2021-08-07 12:08:24,097398
-4,-6,-7,-13,-12,-8,-4,-2,2021-08-07 12:08:24,128398
1,2,3,4,0,2,2,1,2021-08-07 12:08:24,144401
0,-2,0,4,1,-1,-1,0,2021-08-07 12:08:24,144650
-3,-3,-2,-5,-5,-2,-3,-1,2021-08-07 12:08:24,159916
-1,-2,0,3,2,0,-2,0,2021-08-07 12:08:24,175914
-1,2,-1,-2,-2,-1,-2,-1,2021-08-07 12:08:24,175914
-2,-2,-5,-7,-4,-3,-1,-2,2021-08-07 12:08:24,175914
1,1,1,8,9,5,0,0,2021-08-07 12:08:24,175914
-2,-3,-1,-2,-9,-6,-1,-2,2021-08-07 12:08:24,175914
0,-1,1,-1,2,1,1,-1,2021-08-07 12:08:24,175914
3,0,3,6,7,2,0,0,2021-08-07 12:08:24,175914
1,1,3,7,9,6,4,2,2021-08-07 12:08:24,176915
0,-1,2,3,2,2,1,0,2021-08-07 12:08:24,191916
-2,-2,-6,-6,-12,-8,-5,-1,2021-08-07 12:08:24,207916
-5,-4,-6,-11,-11,-6,-5,-4,2021-08-07 12:08:24,223916
0,1,-1,-1,0,-2,0,1,2021-08-07 12:08:24,223916
3,4,0,0,0,1,-1,0,2021-08-07 12:08:24,223916
-2,-1,0,1,4,0,1,1,2021-08-07 12:08:24,223916
0,3,1,-1,-1,2,-1,2,2021-08-07 12:08:24,223916
-2,-4,-2,0,0,-2,-1,-1,2021-08-07 12:08:24,224917
1,2,2,4,3,1,1,1,2021-08-07 12:08:24,224917
0,1,1,6,2,1,0,-1,2021-08-07 12:08:24,224917
-1,-2,0,5,1,0,-1,-1,2021-08-07 12:08:24,224917
-2,-3,-2,-6,-6,-5,-4,-3,2021-08-07 12:08:24,224917
-2,-3,-3,-4,-12,-8,-5,0,2021-08-07 12:08:24,255916
-4,-4,-7,-17,-15,-6,-6,-3,2021-08-07 12:08:24,255916
2,2,4,15,26,14,6,3,2021-08-07 12:08:24,255916
1,1,3,9,9,4,4,1,2021-08-07 12:08:24,255916
0,1,1,-1,5,2,0,-2,2021-08-07 12:08:24,255916
-4,-7,-11,-21,-26,-14,-7,-4,2021-08-07 12:08:24,255916
3,2,3,3,4,3,2,2,2021-08-07 12:08:24,271915
-2,0,-1,0,-4,-3,-3,-2,2021-08-07 12:08:24,271915
1,-1,-3,-2,1,4,1,1,2021-08-07 12:08:24,287915
0,0,0,4,2,0,0,0,2021-08-07 12:08:24,287915
-7,-8,-10,-18,-15,-9,-4,-6,2021-08-07 12:08:24,287915
0,1,0,-6,2,3,1,1,2021-08-07 12:08:24,287915
-3,-1,4,8,7,2,1,-3,2021-08-07 12:08:24,303915
0,2,5,11,12,3,0,-2,2021-08-07 12:08:24,303915
-3,-1,-3,-1,-1,-4,-4,-3,2021-08-07 12:08:24,303915
3,5,3,0,-4,2,0,2,2021-08-07 12:08:24,303915
1,-2,-6,-8,-8,-4,-1,0,2021-08-07 12:08:24,335917
4,4,1,4,6,4,3,3,2021-08-07 12:08:24,335917
-4,-3,-3,-3,-5,-4,0,-2,2021-08-07 12:08:24,335917
-3,-4,-6,-3,-3,-4,-2,-2,2021-08-07 12:08:24,335917
1,0,-1,-4,-5,-2,0,0,2021-08-07 12:08:24,335917
1,-2,4,10,8,3,0,0,2021-08-07 12:08:24,336919
4,3,6,15,15,11,5,3,2021-08-07 12:08:24,336919
-3,-3,-3,-6,-7,-4,0,-2,2021-08-07 12:08:24,336919
-5,-3,-2,-2,-3,0,-3,-2,2021-08-07 12:08:24,367913
-3,-4,-3,-5,-4,-4,-2,-2,2021-08-07 12:08:24,383915
-2,-4,-7,-18,-17,-10,-7,-5,2021-08-07 12:08:24,383915
0,0,2,6,10,3,1,0,2021-08-07 12:08:24,383915
0,1,3,5,8,3,3,1,2021-08-07 12:08:24,383915
1,0,-2,-4,-6,-3,-2,0,2021-08-07 12:08:24,383915
-3,-2,-4,-6,-12,-7,-4,-3,2021-08-07 12:08:24,383915
-3,-4,-9,-15,-10,-4,-5,-4,2021-08-07 12:08:24,384916
2,4,5,12,9,3,1,1,2021-08-07 12:08:24,399915
-1,-1,-1,0,8,2,0,-2,2021-08-07 12:08:24,399915
-1,-1,0,3,3,1,1,-1,2021-08-07 12:08:24,415917
-2,-3,-4,-6,-9,-8,-3,-2,2021-08-07 12:08:24,431915
-1,0,-1,-4,-5,-3,-1,-2,2021-08-07 12:08:24,447952
0,-1,0,1,-2,0,-1,1,2021-08-07 12:08:24,447952
1,1,1,-3,0,0,0,0,2021-08-07 12:08:24,447952
-1,-3,-6,-10,-4,-2,-3,-1,2021-08-07 12:08:24,447952
1,3,6,7,7,5,2,1,2021-08-07 12:08:24,447952
0,-1,2,6,4,1,2,-1,2021-08-07 12:08:24,463951
-1,1,-1,-3,-4,-2,-1,1,2021-08-07 12:08:24,479952
1,-2,-2,-7,-8,-5,-1,-1,2021-08-07 12:08:24,479952
0,-4,-6,-7,1,1,-2,-2,2021-08-07 12:08:24,479952
-4,-3,-3,-5,-3,-1,-2,-2,2021-08-07 12:08:24,479952
-4,-5,-5,-6,-9,-6,-4,-5,2021-08-07 12:08:24,479952
2,4,4,7,7,3,2,1,2021-08-07 12:08:24,479952
2,0,0,-5,-3,-3,-1,0,2021-08-07 12:08:24,480952
1,3,1,1,3,3,1,0,2021-08-07 12:08:24,480952
0,-2,3,4,2,1,0,-2,2021-08-07 12:08:24,480952
-3,-2,-2,0,-4,-4,-2,-1,2021-08-07 12:08:24,480952
0,0,-1,0,-2,0,0,-1,2021-08-07 12:08:24,495952
-2,-1,-7,-7,-1,-3,0,-1,2021-08-07 12:08:24,495952
-2,-1,0,-2,-2,-2,-2,-1,2021-08-07 12:08:24,510952
1,-1,1,-1,-6,-2,-2,-1,2021-08-07 12:08:24,510952
1,-1,-2,3,3,3,2,2,2021-08-07 12:08:24,526951
-1,-3,-1,-1,-5,-4,-4,-1,2021-08-07 12:08:24,526951
1,0,0,2,7,4,1,1,2021-08-07 12:08:24,542952
2,2,1,0,-5,-2,-2,1,2021-08-07 12:08:24,542952
-5,-5,-3,-1,-4,-3,-4,-4,2021-08-07 12:08:24,542952
-2,-3,-2,2,6,2,2,0,2021-08-07 12:08:24,542952
0,-4,-4,-8,-9,-3,-2,-2,2021-08-07 12:08:24,542952
0,3,6,8,12,6,1,0,2021-08-07 12:08:24,542952
0,2,2,5,0,0,-2,3,2021-08-07 12:08:24,574952
-3,-5,-4,-8,-6,-4,-3,-3,2021-08-07 12:08:24,590951
0,-1,3,1,-4,-5,-2,-1,2021-08-07 12:08:24,606952
-3,-2,-5,-6,-3,-2,-3,-3,2021-08-07 12:08:24,606952
0,1,2,4,3,3,0,-1,2021-08-07 12:08:24,606952
1,1,1,0,3,4,0,1,2021-08-07 12:08:24,606952
0,1,-5,-4,-4,-2,0,1,2021-08-07 12:08:24,606952
1,2,1,-2,1,-1,-1,-1,2021-08-07 12:08:24,606952
-1,-1,0,4,2,-1,1,-1,2021-08-07 12:08:24,607954
-3,-4,-5,-9,-9,-6,-5,-3,2021-08-07 12:08:24,607954
-2,-2,-2,-3,-5,-4,-1,0,2021-08-07 12:08:24,607954
4,3,6,7,7,3,3,3,2021-08-07 12:08:24,607954
-1,-1,-1,-3,-2,-1,-1,0,2021-08-07 12:08:24,622950
-1,-4,-2,-7,-13,-6,-2,-1,2021-08-07 12:08:24,638950
-3,-2,-5,-4,8,3,-1,-1,2021-08-07 12:08:24,638950
-4,-4,5,24,17,6,2,-1,2021-08-07 12:08:24,638950
3,2,-4,-13,-6,-2,-1,2,2021-08-07 12:08:24,638950
5,7,14,22,16,8,5,2,2021-08-07 12:08:24,638950
-3,-3,-8,-13,-19,-9,-6,-3,2021-08-07 12:08:24,654951
-1,-5,-2,-5,-7,-3,-3,0,2021-08-07 12:08:24,655152
-5,-6,-2,1,-2,-2,-2,-4,2021-08-07 12:08:24,670953
1,1,-5,-9,-7,-3,-1,1,2021-08-07 12:08:24,686951
1,0,1,-6,-8,-4,-2,-1,2021-08-07 12:08:24,701952
-3,-2,0,6,10,5,0,-1,2021-08-07 12:08:24,701952
-3,-4,-3,4,2,-1,-1,-2,2021-08-07 12:08:24,717951
-1,0,1,-3,-1,0,0,1,2021-08-07 12:08:24,717951
1,1,5,8,8,4,2,2,2021-08-07 12:08:24,717951
-1,-3,-9,-17,-19,-10,-4,-2,2021-08-07 12:08:24,733950
-3,-4,-4,-7,-7,-4,-2,-3,2021-08-07 12:08:24,749952
0,-2,-1,6,6,3,1,-2,2021-08-07 12:08:24,749952
0,1,0,-2,3,1,-1,1,2021-08-07 12:08:24,749952
1,-1,0,5,-3,-1,-1,1,2021-08-07 12:08:24,749952
-2,-2,-6,-8,2,0,-3,-2,2021-08-07 12:08:24,749952
-2,-2,2,11,7,3,0,-2,2021-08-07 12:08:24,749952
1,2,2,2,0,0,-1,0,2021-08-07 12:08:24,749952
0,2,2,1,4,2,2,-2,2021-08-07 12:08:24,750952
-1,-2,-3,-10,-8,-4,0,-1,2021-08-07 12:08:24,750952
-2,-3,-2,-3,-5,-4,-3,-1,2021-08-07 12:08:24,750952
-1,1,4,6,5,0,1,1,2021-08-07 12:08:24,750952
0,-2,-5,-8,-8,-3,-3,-1,2021-08-07 12:08:24,750952
1,2,2,3,-1,-1,-2,2,2021-08-07 12:08:24,781953
-5,-5,-5,-8,-12,-7,-3,-3,2021-08-07 12:08:24,797951
-2,-1,1,0,-3,-1,0,-1,2021-08-07 12:08:24,813950
2,1,7,18,22,11,6,3,2021-08-07 12:08:24,813950
2,1,2,1,2,2,1,1,2021-08-07 12:08:24,813950
-1,0,3,5,4,0,-3,-3,2021-08-07 12:08:24,813950
-3,-4,-5,-5,-6,-5,-3,-3,2021-08-07 12:08:24,813950
-1,-3,-6,-16,-20,-10,-5,-2,2021-08-07 12:08:24,813950
-2,0,2,2,2,1,1,1,2021-08-07 12:08:24,814954
-3,-2,-4,-6,-4,-2,-1,-1,2021-08-07 12:08:24,814954
-2,-2,-3,-5,1,1,-1,-2,2021-08-07 12:08:24,814954
-1,2,2,8,10,6,1,2,2021-08-07 12:08:24,814954
-1,0,-2,-3,-5,-3,-2,-4,2021-08-07 12:08:24,829952
-1,-1,-8,-20,-15,-6,-3,-1,2021-08-07 12:08:24,829952
5,9,10,16,17,9,3,1,2021-08-07 12:08:24,829952
-1,0,-1,1,-1,-1,-1,0,2021-08-07 12:08:24,829952
-3,-2,-1,3,-4,-4,-2,-2,2021-08-07 12:08:24,845952
-2,-2,-5,-14,-11,-7,-3,-2,2021-08-07 12:08:24,845952
-3,-3,2,3,-4,-3,-1,-1,2021-08-07 12:08:24,861954
2,4,7,20,25,10,5,2,2021-08-07 12:08:24,861954
-3,-5,-5,-8,-11,-5,-6,-3,2021-08-07 12:08:24,861954
0,-1,-1,5,10,4,1,1,2021-08-07 12:08:24,861954
-4,-4,-5,-2,-4,-2,-3,-4,2021-08-07 12:08:24,861954
-2,1,-4,-15,-13,-7,-4,-1,2021-08-07 12:08:24,861954
-1,-1,-1,-1,-1,-1,0,0,2021-08-07 12:08:24,893952
-4,-2,-1,0,-5,-4,-3,-4,2021-08-07 12:08:24,893952
3,1,0,4,5,3,3,3,2021-08-07 12:08:24,893952
-3,-2,-1,-1,1,0,1,-2,2021-08-07 12:08:24,893952
0,0,-1,0,0,0,0,1,2021-08-07 12:08:24,909952
1,1,2,1,3,1,-1,1,2021-08-07 12:08:24,909952
-3,-4,-6,-14,-23,-10,-6,-3,2021-08-07 12:08:24,909952
-1,-4,-3,4,16,8,2,-1,2021-08-07 12:08:24,909952
6,8,7,12,11,6,5,3,2021-08-07 12:08:24,924952
0,0,5,11,4,3,1,-1,2021-08-07 12:08:24,939951
-2,-3,-4,-2,-4,-4,-3,-2,2021-08-07 12:08:24,955950
-2,-2,-4,-9,-15,-8,-4,-1,2021-08-07 12:08:24,955950
1,0,3,4,9,3,1,0,2021-08-07 12:08:24,955950
1,0,-4,-3,-5,-2,-1,-1,2021-08-07 12:08:24,955950
-4,-5,-4,-4,-2,-2,-2,-3,2021-08-07 12:08:24,955950
-5,-8,-8,-13,-15,-11,-4,-4,2021-08-07 12:08:24,955950
5,8,7,7,8,7,5,4,2021-08-07 12:08:24,956952
-1,2,-1,-1,3,0,1,0,2021-08-07 12:08:24,956952
0,-2,0,1,3,-1,0,-1,2021-08-07 12:08:24,971951
-7,-6,-5,-7,-9,-5,-7,-6,2021-08-07 12:08:24,971951
5,7,5,6,4,4,2,4,2021-08-07 12:08:24,987952
-1,-1,-1,-5,-8,-4,-2,-1,2021-08-07 12:08:24,987952
5,9,6,10,24,15,7,4,2021-08-07 12:08:24,987952
0,-1,-1,-2,-10,-5,-3,-1,2021-08-07 12:08:24,987952
-2,-3,-8,-10,-8,-5,-3,-2,2021-08-07 12:08:24,997952
-1,0,2,9,7,2,0,0,2021-08-07 12:08:24,998951
-4,-7,-7,-9,-11,-7,-6,-5,2021-08-07 12:08:25,019952
1,2,1,1,3,0,0,-2,2021-08-07 12:08:25,019952
-3,-7,-7,-12,-9,-6,-4,-4,2021-08-07 12:08:25,019952
1,-1,-5,-10,-9,-4,-1,0,2021-08-07 12:08:25,019952
-4,-3,-4,-8,-17,-13,-7,-5,2021-08-07 12:08:25,019952
0,-2,-7,-11,-15,-1,2,1,2021-08-07 12:08:25,019952
0,1,10,28,43,20,7,1,2021-08-07 12:08:25,065951
0,0,0,0,-1,0,-1,-1,2021-08-07 12:08:25,065951
-2,-1,-1,-7,-7,-4,-1,0,2021-08-07 12:08:25,065951
-2,0,-3,-14,-18,-8,-6,-2,2021-08-07 12:08:25,065951
-6,-8,-2,3,-4,-4,-2,-4,2021-08-07 12:08:25,065951
6,8,11,17,15,10,6,2,2021-08-07 12:08:25,065951
-2,-3,-4,0,4,2,0,0,2021-08-07 12:08:25,065951
1,1,-1,-7,-7,-3,-2,-1,2021-08-07 12:08:25,065951
-1,-3,-8,-12,-9,-5,-2,-3,2021-08-07 12:08:25,081952
-4,-5,-1,5,4,1,-1,-4,2021-08-07 12:08:25,081952
0,4,4,0,-1,1,1,0,2021-08-07 12:08:25,081952
0,-1,-1,4,8,2,0,0,2021-08-07 12:08:25,081952
-5,-7,-9,-14,-20,-14,-7,-7,2021-08-07 12:08:25,113952
-1,-3,-8,-15,-13,-6,-1,0,2021-08-07 12:08:25,113952
-3,-2,1,11,3,1,-1,-1,2021-08-07 12:08:25,113952
2,4,5,5,15,9,6,4,2021-08-07 12:08:25,113952
2,3,4,6,8,4,-1,1,2021-08-07 12:08:25,113952
-5,-5,-4,0,0,-3,-2,-2,2021-08-07 12:08:25,114953
-1,0,2,9,15,3,1,-1,2021-08-07 12:08:25,128801
4,4,0,-5,-7,-3,-1,1,2021-08-07 12:08:25,143952
0,-2,-3,-10,-18,-5,-2,1,2021-08-07 12:08:25,159955
-1,-2,-1,2,9,2,-2,-4,2021-08-07 12:08:25,159955
1,0,1,-3,-4,-3,-1,0,2021-08-07 12:08:25,159955
-3,-7,-8,-3,0,-1,-1,-2,2021-08-07 12:08:25,159955
-3,-2,-4,-13,-16,-8,-4,-4,2021-08-07 12:08:25,159955
1,3,5,4,1,1,1,-1,2021-08-07 12:08:25,159955
-2,-1,0,2,4,2,2,-1,2021-08-07 12:08:25,175950
-4,-4,-2,1,-4,-5,-4,-5,2021-08-07 12:08:25,175950
-5,-4,-4,-4,-8,-6,-5,-3,2021-08-07 12:08:25,175950
-6,-5,-3,-7,-12,-8,-6,-3,2021-08-07 12:08:25,175950
6,5,5,12,10,8,5,4,2021-08-07 12:08:25,191952
4,4,5,5,6,4,3,3,2021-08-07 12:08:25,191952
0,-1,-1,1,0,-1,0,-1,2021-08-07 12:08:25,207952
-2,-4,-5,-4,-6,-4,-1,-1,2021-08-07 12:08:25,223952
-1,-4,0,-3,-2,-2,-1,-2,2021-08-07 12:08:25,239952
0,-3,-4,-2,3,3,2,-1,2021-08-07 12:08:25,239952
3,2,10,14,3,2,2,2,2021-08-07 12:08:25,239952
-2,-4,-3,-5,-1,-2,-3,-3,2021-08-07 12:08:25,240953
-4,-3,-4,-5,-1,0,-2,-2,2021-08-07 12:08:25,240953
-3,-4,-6,-6,-9,-7,-3,-3,2021-08-07 12:08:25,240953
0,4,1,-4,3,1,2,2,2021-08-07 12:08:25,240953
2,0,-2,-5,-5,-1,1,1,2021-08-07 12:08:25,255952
-4,-7,-4,-5,-13,-8,-7,-5,2021-08-07 12:08:25,271950
2,4,3,5,6,4,1,3,2021-08-07 12:08:25,271950
0,2,-2,-6,1,2,0,0,2021-08-07 12:08:25,271950
1,1,4,10,13,7,2,3,2021-08-07 12:08:25,271950
-1,-2,-3,-4,-6,-5,0,-1,2021-08-07 12:08:25,271950
-1,-2,2,2,3,1,1,-1,2021-08-07 12:08:25,271950
-3,-3,-6,-2,2,1,0,-2,2021-08-07 12:08:25,287952
0,1,-1,-3,3,2,-1,0,2021-08-07 12:08:25,303953
1,1,0,0,-4,-1,-1,-1,2021-08-07 12:08:25,319953
1,-1,1,2,-3,-3,-2,0,2021-08-07 12:08:25,319953
0,-1,0,0,-6,-4,-1,-1,2021-08-07 12:08:25,319953
0,-2,-3,-8,-5,-2,-1,-2,2021-08-07 12:08:25,319953
0,-2,1,8,7,5,1,1,2021-08-07 12:08:25,319953
0,1,1,-2,5,2,0,-1,2021-08-07 12:08:25,320952
0,1,2,14,18,8,2,2,2021-08-07 12:08:25,320952
-3,-4,-6,-15,-20,-12,-5,-3,2021-08-07 12:08:25,320952
1,2,1,-6,-11,-4,-2,1,2021-08-07 12:08:25,320952
2,2,4,12,21,11,4,2,2021-08-07 12:08:25,320952
-1,-1,0,4,4,-2,-2,-1,2021-08-07 12:08:25,350952
3,3,7,10,10,7,5,2,2021-08-07 12:08:25,350952
0,0,-2,-4,2,-1,-1,0,2021-08-07 12:08:25,350952
0,-1,-3,-16,-26,-13,-2,-3,2021-08-07 12:08:25,350952
-6,-5,-4,-10,-3,-1,-2,-5,2021-08-07 12:08:25,366951
4,4,1,6,5,3,0,2,2021-08-07 12:08:25,382953
-2,-4,-6,-11,-8,-3,-1,-3,2021-08-07 12:08:25,398954
0,1,4,8,0,0,-1,0,2021-08-07 12:08:25,398954
-4,-3,-1,0,-1,0,-2,-1,2021-08-07 12:08:25,398954
3,4,2,3,5,1,1,1,2021-08-07 12:08:25,398954
-2,-3,-4,-1,-2,-3,0,-1,2021-08-07 12:08:25,398954
-3,-5,-7,-5,-4,-6,-4,-3,2021-08-07 12:08:25,399953
-2,-3,-5,-10,-14,-7,-3,-2,2021-08-07 12:08:25,414952
-6,-7,-7,-8,-8,-6,-4,-4,2021-08-07 12:08:25,430950
-1,-2,-4,-7,-6,-3,-2,-2,2021-08-07 12:08:25,461954
5,5,13,21,16,11,5,3,2021-08-07 12:08:25,462952
2,2,5,13,3,2,2,2,2021-08-07 12:08:25,462952
0,0,5,11,12,6,3,2,2021-08-07 12:08:25,462952
-5,-5,-8,-11,-4,-4,-4,-3,2021-08-07 12:08:25,462952
0,1,1,5,8,2,1,0,2021-08-07 12:08:25,462952
-3,-1,-3,-1,-4,-2,-3,0,2021-08-07 12:08:25,462952
-4,-2,-6,-10,-10,-6,-4,-3,2021-08-07 12:08:25,462952
-3,-4,-3,-5,-10,-6,-5,-3,2021-08-07 12:08:25,463952
-5,-4,-10,-17,-21,-11,-5,-3,2021-08-07 12:08:25,463952
7,5,10,19,22,11,8,5,2021-08-07 12:08:25,463952
-4,-4,-4,-5,-4,-4,-3,-6,2021-08-07 12:08:25,463952
2,2,2,4,5,3,1,2,2021-08-07 12:08:25,463952
-3,-4,-4,-8,-11,-6,-5,-2,2021-08-07 12:08:25,463952
-4,-3,-10,-25,-24,-13,-4,-3,2021-08-07 12:08:25,478952
-1,-1,2,12,10,4,-1,0,2021-08-07 12:08:25,494954
2,4,8,12,13,7,3,0,2021-08-07 12:08:25,494954
1,2,-1,-1,-6,-3,-2,0,2021-08-07 12:08:25,494954
0,-1,-1,2,4,1,-1,0,2021-08-07 12:08:25,510952
-5,-6,-14,-32,-46,-23,-11,-6,2021-08-07 12:08:25,510952
-2,-3,-4,1,11,5,1,0,2021-08-07 12:08:25,510952
3,5,10,28,36,17,8,3,2021-08-07 12:08:25,510952
1,1,1,-11,-16,-3,-1,1,2021-08-07 12:08:25,526951
4,4,9,21,30,12,6,3,2021-08-07 12:08:25,557952
-3,-4,-8,-18,-29,-16,-7,-2,2021-08-07 12:08:25,557952
-5,-5,-4,-5,-4,-1,-1,-4,2021-08-07 12:08:25,557952
-2,-1,-1,2,2,-1,-2,-2,2021-08-07 12:08:25,557952
1,2,-2,-3,-5,0,0,0,2021-08-07 12:08:25,557952
1,-1,3,11,9,4,1,-1,2021-08-07 12:08:25,558956
1,1,-2,-3,-3,-2,0,0,2021-08-07 12:08:25,558956
0,-2,3,9,10,2,0,-1,2021-08-07 12:08:25,558956
-3,-4,-4,-5,-5,-4,-2,-2,2021-08-07 12:08:25,558956
2,2,3,2,3,3,1,0,2021-08-07 12:08:25,558956
-4,-8,-10,-14,-15,-8,-5,-4,2021-08-07 12:08:25,558956
0,2,0,-7,-12,-7,-4,-2,2021-08-07 12:08:25,589952
0,2,4,13,22,11,5,2,2021-08-07 12:08:25,589952
1,2,1,5,10,4,3,2,2021-08-07 12:08:25,589952
-3,-5,-9,-17,-24,-11,-5,-3,2021-08-07 12:08:25,604953
-7,-10,-15,-27,-18,-12,-8,-6,2021-08-07 12:08:25,604953
3,0,4,18,29,11,3,2,2021-08-07 12:08:25,604953
0,2,4,4,-6,-1,0,0,2021-08-07 12:08:25,620951
0,0,3,4,11,4,1,0,2021-08-07 12:08:25,636951
-2,-4,-5,-12,-22,-10,-4,-3,2021-08-07 12:08:25,652954
4,2,7,11,19,10,4,3,2021-08-07 12:08:25,668951
4,6,6,20,23,11,6,3,2021-08-07 12:08:25,668951
0,-2,-2,-4,-6,-5,0,-3,2021-08-07 12:08:25,668951
-1,-2,-2,-7,-6,-3,-3,-3,2021-08-07 12:08:25,684952
-6,-6,-9,-20,-25,-12,-5,-5,2021-08-07 12:08:25,700951
0,2,5,6,13,7,2,-1,2021-08-07 12:08:25,700951
0,1,-1,-4,0,1,-2,2,2021-08-07 12:08:25,700951
1,2,1,5,9,5,2,1,2021-08-07 12:08:25,700951
-6,-8,-8,-15,-27,-13,-7,-4,2021-08-07 12:08:25,700951
2,2,-4,-6,-2,-2,-1,3,2021-08-07 12:08:25,700951
0,1,5,11,13,5,2,1,2021-08-07 12:08:25,700951
-2,-4,-2,0,0,1,0,-2,2021-08-07 12:08:25,700951
-4,-4,-3,-4,0,-2,-2,-1,2021-08-07 12:08:25,701952
-3,-5,-7,-15,-13,-9,-3,-3,2021-08-07 12:08:25,701952
2,-2,0,0,4,1,-1,0,2021-08-07 12:08:25,701952
1,2,4,7,4,3,-1,1,2021-08-07 12:08:25,701952
1,2,6,13,11,4,2,1,2021-08-07 12:08:25,701952
-3,-2,0,2,-4,-2,-2,-3,2021-08-07 12:08:25,701952
2,3,6,12,13,6,3,3,2021-08-07 12:08:25,701952
-2,-3,-4,-2,-7,-4,-1,-4,2021-08-07 12:08:25,747950
-2,-2,-6,-11,-14,-4,-3,-4,2021-08-07 12:08:25,747950
2,2,0,2,8,1,1,1,2021-08-07 12:08:25,747950
-1,0,-2,-7,-11,-5,-4,-1,2021-08-07 12:08:25,747950
1,-1,1,-4,1,-1,-2,0,2021-08-07 12:08:25,747950
2,5,5,8,2,2,3,4,2021-08-07 12:08:25,763953
-2,-5,-6,-9,-10,-3,-3,-1,2021-08-07 12:08:25,763953
-5,-4,-2,2,7,3,-1,-3,2021-08-07 12:08:25,763953
0,2,4,11,4,0,0,0,2021-08-07 12:08:25,763953
-2,-3,-5,-14,-10,-6,-4,-3,2021-08-07 12:08:25,763953
2,4,6,9,6,3,0,-1,2021-08-07 12:08:25,763953
1,1,2,4,0,-1,-2,1,2021-08-07 12:08:25,763953
-4,-3,-2,0,6,3,0,-1,2021-08-07 12:08:25,795952
-4,-4,-2,-3,-3,-4,-3,-3,2021-08-07 12:08:25,795952
-3,-2,-5,-14,-18,-9,-4,-1,2021-08-07 12:08:25,795952
-3,-5,-7,-8,-8,-4,-3,-5,2021-08-07 12:08:25,795952
-2,-2,-5,-6,-2,-3,-4,-4,2021-08-07 12:08:25,811953
3,5,8,16,7,4,3,1,2021-08-07 12:08:25,827954
-3,-6,-6,-6,-4,-1,-2,0,2021-08-07 12:08:25,827954
2,4,4,0,-3,1,2,2,2021-08-07 12:08:25,827954
-1,-1,1,6,9,4,2,-1,2021-08-07 12:08:25,827954
3,2,1,-7,-2,2,1,2,2021-08-07 12:08:25,828951
0,-1,2,7,1,1,0,-1,2021-08-07 12:08:25,828951
-5,-7,-7,-6,-1,-1,-2,-4,2021-08-07 12:08:25,828951
-1,-1,-1,2,-1,-2,-1,0,2021-08-07 12:08:25,858950
1,2,-5,-8,-6,-2,-2,1,2021-08-07 12:08:25,858950
-2,-3,2,0,4,0,2,-1,2021-08-07 12:08:25,874955
3,5,4,8,6,5,4,1,2021-08-07 12:08:25,874955
-4,-6,-5,-10,-7,-4,-4,-4,2021-08-07 12:08:25,874955
-4,-5,-6,-2,-3,-7,-4,-4,2021-08-07 12:08:25,874955
0,-2,-2,-10,-12,-5,-3,-2,2021-08-07 12:08:25,874955
-1,-3,-3,-1,0,1,0,-3,2021-08-07 12:08:25,890951
3,3,7,10,12,6,2,4,2021-08-07 12:08:25,915952
1,3,1,-7,-8,-2,-1,0,2021-08-07 12:08:25,915952
-1,-2,2,12,14,7,2,0,2021-08-07 12:08:25,915952
-4,-5,-7,-7,-16,-9,-4,-3,2021-08-07 12:08:25,922951
-2,-4,-9,-17,-9,-5,-2,-1,2021-08-07 12:08:25,938952
-1,0,0,1,2,0,-1,-2,2021-08-07 12:08:25,938952
-3,-2,-4,0,1,0,0,-1,2021-08-07 12:08:25,954952
2,2,3,8,7,2,3,2,2021-08-07 12:08:25,954952
-2,-1,0,-2,-12,-4,-2,-2,2021-08-07 12:08:25,954952
-1,-4,2,3,13,3,0,-1,2021-08-07 12:08:25,954952
0,2,1,-8,-9,-4,-2,2,2021-08-07 12:08:25,954952
-4,-7,-18,-21,-22,-11,-5,-4,2021-08-07 12:08:25,954952
1,2,1,11,29,9,4,0,2021-08-07 12:08:25,954952
-4,-2,-2,0,-7,-3,-2,-4,2021-08-07 12:08:25,954952
4,4,5,3,4,4,2,1,2021-08-07 12:08:25,955951
2,3,7,2,-7,-6,-1,0,2021-08-07 12:08:25,955951
3,5,1,-10,-17,-6,0,1,2021-08-07 12:08:25,970952
-3,-5,3,23,38,19,5,0,2021-08-07 12:08:25,986953
2,3,2,1,1,2,1,3,2021-08-07 12:08:25,986953
-3,-2,-3,-11,-10,-4,-3,-1,2021-08-07 12:08:25,986953
-4,-4,-7,-6,-6,-3,-4,-3,2021-08-07 12:08:25,986953
-2,-1,3,2,0,-2,-1,2,2021-08-07 12:08:25,986953
-4,-4,-8,-9,-12,-5,-4,-3,2021-08-07 12:08:25,986953
1,3,-1,-6,3,0,-1,0,2021-08-07 12:08:25,986953
1,1,3,7,2,1,1,0,2021-08-07 12:08:26,018951
-1,-3,-8,-13,-17,-8,-3,-2,2021-08-07 12:08:26,034950
-6,-8,-8,-10,-2,-4,-3,-3,2021-08-07 12:08:26,050952
-2,-3,5,8,2,1,-1,-1,2021-08-07 12:08:26,050952
1,3,8,21,18,7,4,1,2021-08-07 12:08:26,050952
-2,-2,-5,-3,-11,-4,-3,-3,2021-08-07 12:08:26,050952
-1,0,-9,-3,8,1,0,-1,2021-08-07 12:08:26,050952
-5,-7,-8,-11,-4,-5,-4,-3,2021-08-07 12:08:26,050952
2,1,1,-3,-2,0,-1,2,2021-08-07 12:08:26,051951
0,2,-6,-18,-27,-14,-7,-2,2021-08-07 12:08:26,051951
1,-1,1,9,13,8,2,0,2021-08-07 12:08:26,051951
7,8,15,30,30,15,9,7,2021-08-07 12:08:26,051951
-1,-3,-2,4,7,3,3,-1,2021-08-07 12:08:26,066952
-3,-6,-3,-5,-8,-2,-3,-2,2021-08-07 12:08:26,066952
-10,-11,-13,-23,-26,-14,-10,-8,2021-08-07 12:08:26,066952
-2,1,1,-3,3,1,-1,-4,2021-08-07 12:08:26,066952
-3,3,8,12,4,0,0,-1,2021-08-07 12:08:26,098952
2,5,6,6,0,1,2,1,2021-08-07 12:08:26,114950
0,-3,-6,-9,-15,-6,-3,-1,2021-08-07 12:08:26,146950
-5,-9,-12,-11,-2,-5,-3,-3,2021-08-07 12:08:26,161953
1,0,-4,-4,0,0,1,1,2021-08-07 12:08:26,161953
2,5,4,3,5,2,1,1,2021-08-07 12:08:26,161953
1,3,8,11,2,2,1,1,2021-08-07 12:08:26,161953
0,1,0,-4,-5,-2,0,1,2021-08-07 12:08:26,161953
-11,-15,-28,-51,-41,-20,-13,-9,2021-08-07 12:08:26,161953
5,5,9,18,22,12,6,4,2021-08-07 12:08:26,162953
4,6,12,16,20,9,3,0,2021-08-07 12:08:26,162953
2,1,5,14,9,5,2,2,2021-08-07 12:08:26,162953
-10,-12,-18,-22,-13,-12,-9,-8,2021-08-07 12:08:26,162953
-4,-6,-12,-18,-21,-11,-5,-2,2021-08-07 12:08:26,162953
0,0,0,-2,6,2,2,0,2021-08-07 12:08:26,162953
3,5,7,13,6,4,0,1,2021-08-07 12:08:26,162953
6,8,15,21,17,9,3,1,2021-08-07 12:08:26,162953
-4,-5,-6,-6,-4,-3,-2,-4,2021-08-07 12:08:26,162953
-3,-5,-5,-6,-11,-6,-4,-3,2021-08-07 12:08:26,176954
1,-1,-2,-5,-5,-1,2,1,2021-08-07 12:08:26,176954
-1,-1,2,3,-8,-5,-1,-2,2021-08-07 12:08:26,192951
0,0,6,12,21,10,4,1,2021-08-07 12:08:26,192951
0,1,-1,-5,-10,-6,-1,1,2021-08-07 12:08:26,192951
-2,-2,-8,-9,0,4,0,-1,2021-08-07 12:08:26,192951
1,-1,8,16,6,1,-1,2,2021-08-07 12:08:26,208950
0,2,-2,-4,-1,-2,0,0,2021-08-07 12:08:26,224953
1,2,5,6,5,2,2,0,2021-08-07 12:08:26,224953
1,3,4,4,-3,-2,0,0,2021-08-07 12:08:26,224953
-5,-5,-9,-17,-16,-7,-5,-3,2021-08-07 12:08:26,224953
-11,-16,-19,-15,-11,-10,-9,-8,2021-08-07 12:08:26,224953
10,12,14,23,18,9,7,9,2021-08-07 12:08:26,224953
2,4,3,11,28,13,6,2,2021-08-07 12:08:26,225954
-1,-4,-3,-4,-4,-3,-2,-1,2021-08-07 12:08:26,256952
-2,-3,-2,-8,-13,-6,-3,-3,2021-08-07 12:08:26,256952
-1,0,2,8,12,3,-1,-2,2021-08-07 12:08:26,256952
-1,-1,0,-3,-13,-6,-3,-1,2021-08-07 12:08:26,256952
3,4,6,12,13,7,3,2,2021-08-07 12:08:26,272952
-2,-2,-3,-3,-5,-4,-2,-1,2021-08-07 12:08:26,272952
0,-1,-10,-17,-15,-4,-1,1,2021-08-07 12:08:26,272952
-5,-8,-8,-12,-11,-11,-7,-6,2021-08-07 12:08:26,272952
-1,-2,-3,-3,3,4,1,-1,2021-08-07 12:08:26,288951
5,6,9,15,10,5,2,4,2021-08-07 12:08:26,304951
-3,-1,1,-2,-4,-3,0,-1,2021-08-07 12:08:26,304951
-1,2,1,2,-4,1,0,0,2021-08-07 12:08:26,304951
-3,-4,-8,-11,-10,-6,-3,-2,2021-08-07 12:08:26,304951
0,2,4,7,9,5,4,2,2021-08-07 12:08:26,304951
-3,-2,-5,-6,-3,-3,-3,-2,2021-08-07 12:08:26,305953
0,-1,1,13,10,5,1,0,2021-08-07 12:08:26,305953
-1,-2,-3,-4,-7,-3,-2,0,2021-08-07 12:08:26,336953
0,1,2,0,-1,-2,-1,-1,2021-08-07 12:08:26,352950
-2,-4,0,1,3,1,-2,-2,2021-08-07 12:08:26,355950
-4,-4,-4,-6,1,-2,-3,-2,2021-08-07 12:08:26,355950
9,12,7,12,17,9,4,5,2021-08-07 12:08:26,356954
-4,-7,-12,-15,-11,-6,-4,-4,2021-08-07 12:08:26,356954
