EMG 1,EMG 2,EMG 3,EMG 4,EMG 5,EMG 6,EMG 7,EMG 8,Timestamp,Milliseconds
2,2,1,2,3,4,1,-1,2021-08-07 12:45:39,997040
-1,-2,0,0,4,1,0,0,2021-08-07 12:45:39,997040
-6,-10,-7,-10,-8,-7,-6,-5,2021-08-07 12:45:39,997040
6,6,5,5,6,4,4,3,2021-08-07 12:45:39,997040
2,5,3,0,-1,-1,2,2,2021-08-07 12:45:39,997040
-1,2,1,-1,-2,-1,-1,-1,2021-08-07 12:45:39,997040
-1,-2,-1,0,-3,-1,-1,-3,2021-08-07 12:45:39,997040
-5,-9,-6,-11,-12,-8,-5,-4,2021-08-07 12:45:39,997040
0,-1,2,10,14,7,3,0,2021-08-07 12:45:39,997040
3,5,4,4,3,4,2,2,2021-08-07 12:45:39,997040
-1,1,0,-2,-3,-3,-1,-1,2021-08-07 12:45:40,013041
-3,-2,-4,-8,-18,-8,-5,-3,2021-08-07 12:45:40,029040
-3,-5,-5,-9,-14,-8,-5,-3,2021-08-07 12:45:40,044042
3,2,5,27,54,31,14,5,2021-08-07 12:45:40,044042
-2,-1,-2,2,2,-1,-2,-2,2021-08-07 12:45:40,044042
1,2,2,1,1,1,0,1,2021-08-07 12:45:40,044042
-5,-5,-7,-11,-16,-12,-7,-4,2021-08-07 12:45:40,044042
-1,-3,-2,-13,-21,-11,-7,-3,2021-08-07 12:45:40,044042
3,3,1,1,6,4,3,3,2021-08-07 12:45:40,060041
-1,1,1,4,8,3,1,0,2021-08-07 12:45:40,060041
-2,-4,-4,-8,-12,-8,-3,-1,2021-08-07 12:45:40,060041
-1,-2,-2,-2,-13,-8,-4,-2,2021-08-07 12:45:40,060041
-1,-2,-3,-8,-10,-5,-3,0,2021-08-07 12:45:40,124043
0,0,-1,-1,-7,-5,0,1,2021-08-07 12:45:40,140042
-2,-2,-1,-5,2,1,-1,-3,2021-08-07 12:45:40,140042
-1,-1,1,4,5,2,0,0,2021-08-07 12:45:40,140042
2,2,0,1,3,5,3,1,2021-08-07 12:45:40,154041
-2,-4,-4,-5,-5,-3,-3,-2,2021-08-07 12:45:40,154041
-1,-1,-2,-4,-5,-4,-2,-3,2021-08-07 12:45:40,155042
-2,-3,-3,-3,-2,0,-3,-1,2021-08-07 12:45:40,155042
0,2,1,-2,-1,0,0,0,2021-08-07 12:45:40,155042
2,-1,0,1,-2,-1,-1,0,2021-08-07 12:45:40,155042
1,2,1,-1,2,1,0,1,2021-08-07 12:45:40,155042
-2,-3,-6,-4,-4,-3,-2,-3,2021-08-07 12:45:40,155042
1,0,1,8,15,7,1,2,2021-08-07 12:45:40,155042
2,4,1,4,4,1,0,2,2021-08-07 12:45:40,155042
-1,-1,-1,-7,-6,-1,-2,1,2021-08-07 12:45:40,156042
3,4,3,9,13,7,6,1,2021-08-07 12:45:40,172040
-3,-3,-3,-5,-14,-9,-3,-3,2021-08-07 12:45:40,188044
-1,-1,-1,5,6,2,1,-1,2021-08-07 12:45:40,188044
-4,-5,-7,-12,-22,-15,-8,-4,2021-08-07 12:45:40,188044
-1,0,-2,-4,-6,-1,-2,0,2021-08-07 12:45:40,188044
0,-3,0,5,7,4,2,0,2021-08-07 12:45:40,204041
1,1,1,-3,-1,-1,0,-2,2021-08-07 12:45:40,204041
-2,-2,-2,1,-1,-3,-1,-1,2021-08-07 12:45:40,204041
-1,-2,-4,-8,-9,-6,-4,0,2021-08-07 12:45:40,204041
1,2,3,2,5,3,2,2,2021-08-07 12:45:40,204041
-3,-5,-6,-8,-7,-4,-3,-3,2021-08-07 12:45:40,204041
0,-2,1,4,3,1,0,-1,2021-08-07 12:45:40,220041
2,3,5,3,1,1,1,1,2021-08-07 12:45:40,236041
1,3,2,1,3,0,1,1,2021-08-07 12:45:40,236041
2,1,0,2,4,4,0,0,2021-08-07 12:45:40,236041
-2,-2,-3,5,7,2,-1,-2,2021-08-07 12:45:40,236041
-3,-3,-2,-2,-4,-3,-3,-3,2021-08-07 12:45:40,236041
-2,-3,-2,-1,-2,-3,-1,-1,2021-08-07 12:45:40,252041
-2,0,0,-5,-8,-2,-2,-2,2021-08-07 12:45:40,252041
-3,-4,-4,-3,-6,-5,-4,-3,2021-08-07 12:45:40,252041
1,1,2,0,-4,-2,-2,0,2021-08-07 12:45:40,252041
1,-1,-4,-6,-6,-3,-2,0,2021-08-07 12:45:40,268040
0,-1,-1,0,0,-1,1,-1,2021-08-07 12:45:40,268040
3,2,4,14,25,14,5,2,2021-08-07 12:45:40,284042
-1,-2,-2,-4,-6,-6,-2,-2,2021-08-07 12:45:40,284042
-3,-4,-3,-3,-3,-2,-1,-3,2021-08-07 12:45:40,284042
-1,-1,0,-4,-8,-8,-3,-2,2021-08-07 12:45:40,284042
-4,-3,-2,-4,-10,-7,-3,-3,2021-08-07 12:45:40,300042
0,1,-1,2,1,1,1,-1,2021-08-07 12:45:40,300042
3,4,3,3,4,6,3,3,2021-08-07 12:45:40,300042
-3,-2,-3,2,5,1,-1,-1,2021-08-07 12:45:40,300042
-1,-2,-3,-5,-7,-4,-2,0,2021-08-07 12:45:40,332040
0,-1,2,2,8,3,0,1,2021-08-07 12:45:40,332040
-1,0,0,-1,-7,-5,-4,-2,2021-08-07 12:45:40,332040
2,3,3,2,4,4,2,1,2021-08-07 12:45:40,332040
2,0,1,1,2,3,0,1,2021-08-07 12:45:40,348042
0,-1,-1,-2,-5,-2,-1,0,2021-08-07 12:45:40,348042
-2,-2,-3,-2,-3,-2,-2,-1,2021-08-07 12:45:40,364042
-2,-3,-1,-1,-3,-3,-2,-2,2021-08-07 12:45:40,364042
-1,-3,0,-5,-8,-5,-3,-2,2021-08-07 12:45:40,364042
-2,-6,-5,-7,-7,-5,-3,-3,2021-08-07 12:45:40,364042
1,2,3,2,6,2,1,1,2021-08-07 12:45:40,380042
1,2,2,1,2,1,1,1,2021-08-07 12:45:40,380042
-1,1,-2,-6,-10,-5,-2,-1,2021-08-07 12:45:40,380042
2,1,1,9,9,4,2,1,2021-08-07 12:45:40,380042
-2,-6,-6,-6,-7,-8,-4,-2,2021-08-07 12:45:40,380042
-2,-4,-3,-3,-2,1,2,1,2021-08-07 12:45:40,380042
-3,-2,-1,0,0,2,0,-1,2021-08-07 12:45:40,412040
-6,-4,-4,-6,-4,-3,-2,-4,2021-08-07 12:45:40,412040
1,5,6,10,12,6,2,1,2021-08-07 12:45:40,412040
2,2,2,4,4,2,0,2,2021-08-07 12:45:40,412040
1,-1,-2,-2,-2,-4,-1,-1,2021-08-07 12:45:40,412040
-1,-2,-2,-5,-5,-2,-3,-2,2021-08-07 12:45:40,412040
0,-1,-2,-9,-12,-7,-1,0,2021-08-07 12:45:40,428040
0,-1,0,0,7,5,2,2,2021-08-07 12:45:40,428040
1,2,2,7,7,4,2,0,2021-08-07 12:45:40,444042
1,2,3,1,1,1,1,2,2021-08-07 12:45:40,444042
-4,-5,-6,-5,-3,-3,-2,-4,2021-08-07 12:45:40,444042
1,2,3,-1,-6,-3,-2,-1,2021-08-07 12:45:40,460041
-3,-2,-3,-3,-3,1,-1,-2,2021-08-07 12:45:40,460041
2,0,1,1,4,2,1,1,2021-08-07 12:45:40,460041
-2,-4,-4,-3,-3,-3,-3,-2,2021-08-07 12:45:40,461043
-3,-2,-5,-9,-9,-7,-4,-4,2021-08-07 12:45:40,461043
4,5,6,5,8,3,2,2,2021-08-07 12:45:40,476042
-2,-1,-3,-10,-23,-16,-6,-2,2021-08-07 12:45:40,492044
-2,-3,-1,6,17,14,6,0,2021-08-07 12:45:40,508041
0,-2,-1,8,18,9,3,0,2021-08-07 12:45:40,508041
-5,-5,-6,-13,-26,-20,-9,-6,2021-08-07 12:45:40,508041
1,3,3,11,25,20,9,2,2021-08-07 12:45:40,508041
1,0,-1,1,0,-3,-3,-2,2021-08-07 12:45:40,508041
-4,-6,-4,-3,-12,-11,-7,-3,2021-08-07 12:45:40,508041
0,2,2,7,12,9,3,2,2021-08-07 12:45:40,524040
-3,-3,-5,-11,-21,-15,-7,-2,2021-08-07 12:45:40,524040
-1,-1,-2,-2,-10,-4,-2,-2,2021-08-07 12:45:40,524040
1,0,0,-1,2,2,0,0,2021-08-07 12:45:40,524040
-2,-5,-3,-6,-11,-7,-3,0,2021-08-07 12:45:40,540041
1,0,2,2,3,1,-1,1,2021-08-07 12:45:40,540041
1,0,3,3,5,3,2,2,2021-08-07 12:45:40,540041
-1,-2,-5,-5,-6,-5,-3,-2,2021-08-07 12:45:40,540041
0,-1,-1,3,6,4,2,0,2021-08-07 12:45:40,562042
-1,-2,-2,1,2,1,-1,-1,2021-08-07 12:45:40,562042
2,4,1,3,6,4,2,2,2021-08-07 12:45:40,562042
1,4,5,-1,-3,-1,0,2,2021-08-07 12:45:40,562042
-1,1,0,0,2,-1,-1,0,2021-08-07 12:45:40,588042
-5,-4,-2,-3,-4,-5,-4,-5,2021-08-07 12:45:40,588042
3,3,3,7,12,8,3,2,2021-08-07 12:45:40,604043
-3,-2,-2,0,2,2,1,-3,2021-08-07 12:45:40,604043
2,0,0,2,7,4,3,0,2021-08-07 12:45:40,604043
-2,-3,-4,-4,-9,-7,-5,-2,2021-08-07 12:45:40,604043
-6,-6,-6,-12,-17,-11,-7,-6,2021-08-07 12:45:40,604043
2,4,3,5,7,7,3,2,2021-08-07 12:45:40,604043
3,4,3,6,12,6,1,2,2021-08-07 12:45:40,620043
-1,2,0,-1,4,5,-1,1,2021-08-07 12:45:40,620043
0,-2,-1,0,-2,-4,-3,-1,2021-08-07 12:45:40,620043
0,-1,-4,-3,-4,-2,-3,0,2021-08-07 12:45:40,620043
-2,-3,-2,-4,-4,-2,0,-2,2021-08-07 12:45:40,651040
1,1,2,-1,1,1,0,1,2021-08-07 12:45:40,651040
-1,0,-1,-6,-10,-8,-4,0,2021-08-07 12:45:40,682042
-5,-7,-5,-4,-7,-5,-2,-5,2021-08-07 12:45:40,682042
1,1,0,4,3,3,1,1,2021-08-07 12:45:40,682042
1,3,1,3,5,4,4,1,2021-08-07 12:45:40,682042
-4,-2,-2,0,1,0,-2,-2,2021-08-07 12:45:40,682042
0,1,0,-2,-6,-6,-3,-2,2021-08-07 12:45:40,682042
-4,-5,-4,-5,-5,-3,-3,-3,2021-08-07 12:45:40,682042
0,1,0,4,6,3,2,1,2021-08-07 12:45:40,682042
3,3,3,1,-1,0,-1,-1,2021-08-07 12:45:40,682042
-5,-6,-6,-5,-5,-6,-3,-4,2021-08-07 12:45:40,683043
-1,-2,-3,-3,-1,0,-2,-1,2021-08-07 12:45:40,713043
2,1,2,3,-2,-4,-1,-1,2021-08-07 12:45:40,729040
-2,-2,-4,-6,-2,-1,0,0,2021-08-07 12:45:40,745043
-2,-1,-1,-2,-4,-3,-4,-1,2021-08-07 12:45:40,745043
3,5,6,9,12,9,6,2,2021-08-07 12:45:40,745043
-2,-3,-2,1,4,0,-1,0,2021-08-07 12:45:40,745043
-2,-4,0,-4,-8,-6,-3,-2,2021-08-07 12:45:40,745043
-1,-2,-1,-6,-3,-1,0,0,2021-08-07 12:45:40,761043
-2,-3,-2,-2,-8,-6,-3,-1,2021-08-07 12:45:40,761043
0,1,-1,-3,-4,0,-1,1,2021-08-07 12:45:40,761043
1,1,1,5,5,5,2,1,2021-08-07 12:45:40,761043
-3,-1,0,2,-1,-2,-3,-2,2021-08-07 12:45:40,761043
2,5,2,-2,-3,-1,-1,-1,2021-08-07 12:45:40,761043
1,-1,1,4,6,3,2,1,2021-08-07 12:45:40,761043
-2,-3,-5,-9,-12,-6,-4,-3,2021-08-07 12:45:40,761043
1,0,3,4,3,1,3,1,2021-08-07 12:45:40,761043
-1,0,-1,-2,-5,-4,-2,-2,2021-08-07 12:45:40,793042
3,6,5,8,8,3,2,1,2021-08-07 12:45:40,793042
-2,-1,-1,0,5,7,1,0,2021-08-07 12:45:40,793042
-3,-4,-4,0,2,-2,-3,-3,2021-08-07 12:45:40,793042
2,2,2,0,1,3,2,2,2021-08-07 12:45:40,793042
-1,-4,-3,-7,-7,-5,-3,-2,2021-08-07 12:45:40,793042
-2,0,1,3,2,0,1,0,2021-08-07 12:45:40,809043
-3,-1,-1,1,5,2,-2,-2,2021-08-07 12:45:40,825041
0,0,0,-1,-2,-2,-1,1,2021-08-07 12:45:40,841042
0,-2,-3,-6,-7,-4,-2,-2,2021-08-07 12:45:40,841042
0,-3,0,0,0,-2,0,-2,2021-08-07 12:45:40,857042
0,-2,-3,-2,-5,-4,-1,1,2021-08-07 12:45:40,873040
-2,-1,-3,-4,-4,-2,-2,-2,2021-08-07 12:45:40,873040
1,0,1,5,13,8,3,0,2021-08-07 12:45:40,873040
-1,1,-2,2,2,1,2,0,2021-08-07 12:45:40,873040
-1,-3,-2,-3,-3,-3,-2,0,2021-08-07 12:45:40,873040
-3,-3,-3,-1,-2,-3,-3,-1,2021-08-07 12:45:40,873040
-3,-2,-2,-8,-13,-10,-6,-2,2021-08-07 12:45:40,873040
3,2,6,7,8,5,2,3,2021-08-07 12:45:40,874043
-2,0,-3,-3,-4,-1,0,-2,2021-08-07 12:45:40,874043
0,0,2,2,5,0,-1,-1,2021-08-07 12:45:40,889043
-3,-4,-5,-2,0,1,-2,-3,2021-08-07 12:45:40,889043
-5,-4,-6,-9,-12,-10,-6,-4,2021-08-07 12:45:40,889043
0,2,0,-2,-1,0,1,1,2021-08-07 12:45:40,905042
1,1,3,1,2,2,1,1,2021-08-07 12:45:40,921042
0,2,1,3,6,5,2,1,2021-08-07 12:45:40,921042
-3,-1,0,0,0,-1,-1,-1,2021-08-07 12:45:40,921042
0,-3,-1,0,-3,-2,0,-1,2021-08-07 12:45:40,921042
-3,-6,-5,-4,-3,-2,-2,-4,2021-08-07 12:45:40,921042
-1,-1,0,1,2,-1,-1,-1,2021-08-07 12:45:40,921042
1,1,0,2,2,1,1,2,2021-08-07 12:45:40,921042
0,1,-2,0,-3,-2,-1,-1,2021-08-07 12:45:40,921042
-3,-2,-4,-5,-12,-7,-4,-2,2021-08-07 12:45:40,953041
0,2,6,10,17,10,4,1,2021-08-07 12:45:40,969042
1,-1,-1,-2,-2,-2,0,-2,2021-08-07 12:45:40,969042
-1,0,-1,-1,-1,-1,-1,-3,2021-08-07 12:45:40,969042
-2,-5,-5,-5,-9,-7,-2,-2,2021-08-07 12:45:40,969042
0,0,1,-3,-4,-2,-1,1,2021-08-07 12:45:40,969042
2,2,3,7,11,8,3,2,2021-08-07 12:45:40,969042
3,5,3,6,8,5,2,1,2021-08-07 12:45:40,969042
-2,0,-2,0,3,1,-1,-1,2021-08-07 12:45:40,985041
-3,-5,-4,-6,-9,-7,-3,-1,2021-08-07 12:45:40,985041
-2,-1,-2,-9,-12,-7,-5,-3,2021-08-07 12:45:40,985041
-2,-4,-5,-9,-13,-7,-4,-2,2021-08-07 12:45:40,986041
3,5,7,10,21,16,8,3,2021-08-07 12:45:41,001042
1,2,0,3,6,4,2,0,2021-08-07 12:45:41,001042
-3,-3,-2,-2,-8,-7,-4,-3,2021-08-07 12:45:41,001042
0,-3,-3,-2,2,0,-1,-1,2021-08-07 12:45:41,001042
-2,-1,-2,-6,-9,-5,-4,-1,2021-08-07 12:45:41,033040
1,0,-1,-3,-3,0,-1,-2,2021-08-07 12:45:41,049043
0,1,1,6,16,9,2,1,2021-08-07 12:45:41,065040
-1,-2,-1,-3,-3,-3,-1,0,2021-08-07 12:45:41,065040
1,0,-1,1,4,1,0,0,2021-08-07 12:45:41,065040
-2,-1,-2,-4,-8,-6,-4,-2,2021-08-07 12:45:41,065040
-5,-3,-5,-11,-15,-7,-6,-3,2021-08-07 12:45:41,065040
1,4,6,5,3,3,1,1,2021-08-07 12:45:41,065040
-2,-2,-3,-1,0,1,1,-1,2021-08-07 12:45:41,065040
-1,1,0,-2,0,0,-2,1,2021-08-07 12:45:41,066042
-1,0,-2,-5,-9,-5,-3,-3,2021-08-07 12:45:41,081040
3,4,6,9,16,10,5,2,2021-08-07 12:45:41,081040
-2,-1,-1,-2,-5,-3,-3,-1,2021-08-07 12:45:41,081040
-1,-2,-2,0,0,-1,-2,-1,2021-08-07 12:45:41,081040
-1,-2,-1,2,1,1,1,-2,2021-08-07 12:45:41,081040
-6,-6,-5,-8,-8,-3,-4,-4,2021-08-07 12:45:41,081040
2,2,2,2,1,-2,0,1,2021-08-07 12:45:41,113043
1,2,1,2,1,0,1,2,2021-08-07 12:45:41,129040
0,-1,0,-3,-5,-1,-3,2,2021-08-07 12:45:41,145042
-3,-3,-8,-8,-7,-4,-3,-3,2021-08-07 12:45:41,161042
-1,0,2,5,9,4,0,-1,2021-08-07 12:45:41,161042
-1,-1,-2,-2,0,-1,0,-1,2021-08-07 12:45:41,161042
1,1,0,3,0,1,0,0,2021-08-07 12:45:41,161042
-3,-2,-3,-3,-9,-9,-5,-5,2021-08-07 12:45:41,161042
-1,-1,-2,-4,-5,-3,-1,-3,2021-08-07 12:45:41,161042
1,1,5,7,13,8,4,1,2021-08-07 12:45:41,161042
0,2,0,-2,-5,-4,0,0,2021-08-07 12:45:41,161042
1,0,0,3,9,6,2,2,2021-08-07 12:45:41,162042
-2,-2,-3,-6,-8,-6,-3,-2,2021-08-07 12:45:41,162042
2,4,1,3,3,2,1,3,2021-08-07 12:45:41,162042
0,-3,-2,2,4,3,3,2,2021-08-07 12:45:41,162042
-3,-1,-1,-2,-5,0,-1,-2,2021-08-07 12:45:41,162042
-3,-4,-2,1,2,-1,0,-2,2021-08-07 12:45:41,193042
-6,-3,-2,0,-5,-3,-3,-5,2021-08-07 12:45:41,193042
0,1,2,0,0,-2,-1,-2,2021-08-07 12:45:41,193042
1,2,2,2,1,-1,0,0,2021-08-07 12:45:41,193042
1,0,1,0,2,-1,0,0,2021-08-07 12:45:41,208040
-2,-2,2,4,-4,-3,-3,-3,2021-08-07 12:45:41,208040
2,4,9,7,6,2,3,2,2021-08-07 12:45:41,208040
-4,-6,-20,-25,-17,-9,-4,-3,2021-08-07 12:45:41,208040
-2,-4,-8,-12,-7,-3,-3,-2,2021-08-07 12:45:41,239040
-1,-7,-6,-13,-9,-4,-2,-1,2021-08-07 12:45:41,239040
1,0,1,-4,-7,-5,-3,-3,2021-08-07 12:45:41,239040
2,3,9,16,16,8,4,2,2021-08-07 12:45:41,239040
2,3,3,5,3,2,1,2,2021-08-07 12:45:41,255042
-1,0,-1,1,-6,-3,-3,0,2021-08-07 12:45:41,271040
0,0,0,6,11,5,5,0,2021-08-07 12:45:41,271040
0,2,3,8,13,8,4,1,2021-08-07 12:45:41,271040
1,1,0,1,-4,-2,-1,0,2021-08-07 12:45:41,271040
1,0,-3,-10,-11,-6,-2,-2,2021-08-07 12:45:41,271040
-2,0,-1,5,20,11,3,0,2021-08-07 12:45:41,271040
-1,-2,-1,-4,-9,-5,-4,0,2021-08-07 12:45:41,271040
3,5,6,6,6,5,2,2,2021-08-07 12:45:41,287042
-5,-6,-6,-7,-14,-11,-7,-5,2021-08-07 12:45:41,287042
1,1,-5,-7,-7,-3,-3,1,2021-08-07 12:45:41,287042
0,2,2,3,1,0,0,-1,2021-08-07 12:45:41,287042
-3,-4,-3,-4,-1,-2,-2,-1,2021-08-07 12:45:41,319040
-4,-5,-4,-4,-3,-2,-2,-2,2021-08-07 12:45:41,319040
2,3,3,4,3,2,2,2,2021-08-07 12:45:41,319040
-2,-2,-1,-1,-2,-3,-1,-3,2021-08-07 12:45:41,319040
-1,-2,-3,-2,-5,-2,-2,-4,2021-08-07 12:45:41,319040
0,-1,1,4,13,5,3,1,2021-08-07 12:45:41,319040
-3,-6,-7,-8,-9,-5,-6,-3,2021-08-07 12:45:41,334042
2,1,1,-1,-6,-2,0,1,2021-08-07 12:45:41,334042
1,1,3,6,10,5,2,-1,2021-08-07 12:45:41,350042
2,3,-1,-3,-4,-3,0,-1,2021-08-07 12:45:41,350042
-4,-4,-3,1,-2,-2,-2,-1,2021-08-07 12:45:41,350042
0,-1,-1,-3,-3,-3,-4,-2,2021-08-07 12:45:41,350042
-1,-2,-1,-2,-2,-1,-1,-1,2021-08-07 12:45:41,381042
2,2,1,7,11,8,4,0,2021-08-07 12:45:41,381042
-2,0,-1,-3,-9,-7,-3,0,2021-08-07 12:45:41,381042
-4,-4,-6,-7,-6,-4,-3,-3,2021-08-07 12:45:41,381042
-1,-2,1,0,-4,-3,0,0,2021-08-07 12:45:41,381042
1,3,3,2,1,1,0,1,2021-08-07 12:45:41,381042
-2,-2,-3,0,0,-1,0,-3,2021-08-07 12:45:41,397041
0,1,0,3,5,2,-1,0,2021-08-07 12:45:41,397041
-2,-2,-4,-7,-10,-5,-1,-2,2021-08-07 12:45:41,408043
-1,-5,-4,-3,-5,-5,-3,-2,2021-08-07 12:45:41,408043
-1,0,0,1,6,4,2,-1,2021-08-07 12:45:41,408043
-1,0,1,1,1,-1,0,0,2021-08-07 12:45:41,408043
-1,0,0,-6,-11,-5,-2,-1,2021-08-07 12:45:41,428041
-1,-4,-4,2,7,6,1,1,2021-08-07 12:45:41,444043
1,2,2,-2,-7,-3,-2,-1,2021-08-07 12:45:41,444043
0,1,2,3,7,5,3,1,2021-08-07 12:45:41,444043
1,0,1,3,8,4,2,2,2021-08-07 12:45:41,444043
-3,-3,-3,-3,-7,-4,-2,-1,2021-08-07 12:45:41,444043
-1,-5,-6,-6,-6,-5,-2,-2,2021-08-07 12:45:41,444043
0,1,3,8,8,5,2,0,2021-08-07 12:45:41,444043
-3,-2,-3,-4,-6,-4,-3,-2,2021-08-07 12:45:41,475041
1,2,2,4,4,2,0,0,2021-08-07 12:45:41,475041
-3,-3,-5,-8,-12,-7,-5,-1,2021-08-07 12:45:41,475041
-1,2,0,0,-1,-2,-1,0,2021-08-07 12:45:41,476043
-2,-3,-4,0,1,-1,-1,-2,2021-08-07 12:45:41,491040
1,0,1,2,1,-1,-1,-1,2021-08-07 12:45:41,491040
-3,-3,-4,-5,-7,-3,-3,-4,2021-08-07 12:45:41,507042
0,-2,0,-4,-5,-2,-2,-2,2021-08-07 12:45:41,507042
-2,-3,-1,-1,-5,-3,-3,-3,2021-08-07 12:45:41,507042
0,1,0,-1,2,-1,0,0,2021-08-07 12:45:41,507042
2,2,1,3,11,10,5,2,2021-08-07 12:45:41,507042
1,0,-3,1,1,-1,-4,-2,2021-08-07 12:45:41,507042
4,4,3,4,4,4,3,2,2021-08-07 12:45:41,539040
-2,-3,-3,-6,-9,-6,-4,-4,2021-08-07 12:45:41,539040
0,0,-3,-2,-4,-2,-1,1,2021-08-07 12:45:41,539040
2,2,3,2,0,1,2,-1,2021-08-07 12:45:41,539040
-2,-1,0,0,3,2,-1,-1,2021-08-07 12:45:41,555041
0,0,-2,-5,-9,-4,-2,0,2021-08-07 12:45:41,555041
-1,0,1,1,0,1,-1,-2,2021-08-07 12:45:41,555041
1,0,0,-2,-7,-3,-1,0,2021-08-07 12:45:41,555041
-2,-3,-3,0,2,0,-1,-1,2021-08-07 12:45:41,571044
0,0,-1,3,6,4,1,2,2021-08-07 12:45:41,587041
1,0,2,3,7,6,3,0,2021-08-07 12:45:41,603042
-1,-2,-3,-3,-4,-3,-1,-2,2021-08-07 12:45:41,603042
-1,0,1,-2,-4,-2,0,-2,2021-08-07 12:45:41,603042
-3,-3,-1,-5,-8,-5,-3,-2,2021-08-07 12:45:41,603042
-2,-4,-4,-10,-16,-11,-7,-3,2021-08-07 12:45:41,603042
3,0,2,9,21,16,6,3,2021-08-07 12:45:41,603042
-1,-1,-1,4,4,0,0,-1,2021-08-07 12:45:41,604042
0,1,3,-2,-1,1,1,2,2021-08-07 12:45:41,604042
0,0,-1,-2,-5,-3,-2,0,2021-08-07 12:45:41,619044
-1,-2,-1,-6,-6,-4,-1,-3,2021-08-07 12:45:41,619044
-6,-7,-8,-8,-13,-9,-6,-4,2021-08-07 12:45:41,619044
4,4,4,5,6,6,4,2,2021-08-07 12:45:41,634042
2,4,4,5,6,5,3,2,2021-08-07 12:45:41,650042
1,1,0,4,5,5,0,2,2021-08-07 12:45:41,650042
4,3,6,7,10,6,3,4,2021-08-07 12:45:41,650042
-5,-9,-9,-10,-17,-15,-9,-5,2021-08-07 12:45:41,650042
1,0,2,3,4,4,0,-1,2021-08-07 12:45:41,650042
-1,-1,-1,-2,-2,-1,-1,-3,2021-08-07 12:45:41,650042
0,0,-2,-2,0,-1,0,-3,2021-08-07 12:45:41,681040
-2,-2,-2,-1,-3,-1,-2,-2,2021-08-07 12:45:41,681040
-4,-5,-4,-4,-4,-3,-2,-1,2021-08-07 12:45:41,681040
-2,-2,-1,-5,-11,-7,-3,-2,2021-08-07 12:45:41,681040
2,1,2,1,4,7,2,2,2021-08-07 12:45:41,681040
1,3,4,6,15,10,4,2,2021-08-07 12:45:41,681040
-2,-2,-3,0,-3,-4,-2,-2,2021-08-07 12:45:41,697042
-1,-1,-1,-6,-9,-6,-3,-1,2021-08-07 12:45:41,697042
2,0,-1,-2,-4,-3,-2,0,2021-08-07 12:45:41,713044
-2,0,-3,-5,-4,-2,-2,-1,2021-08-07 12:45:41,729040
-1,-1,2,5,12,5,2,1,2021-08-07 12:45:41,729040
-2,-4,-3,-1,-4,-4,-2,-2,2021-08-07 12:45:41,729040
0,1,2,4,5,4,1,0,2021-08-07 12:45:41,729040
0,0,2,-1,-3,-3,-1,-1,2021-08-07 12:45:41,729040
0,0,-1,-5,-9,-6,-2,-1,2021-08-07 12:45:41,729040
-3,-3,-5,-10,-11,-5,-6,-2,2021-08-07 12:45:41,729040
0,2,0,-1,1,1,2,1,2021-08-07 12:45:41,745042
0,1,2,10,16,8,4,1,2021-08-07 12:45:41,745042
-2,-4,-3,-3,-4,-1,-1,-3,2021-08-07 12:45:41,745042
-1,-1,-1,-3,-1,0,0,1,2021-08-07 12:45:41,745042
-1,-1,0,-4,-7,-4,-4,-2,2021-08-07 12:45:41,777042
-1,0,-1,-2,-4,-3,-1,0,2021-08-07 12:45:41,777042
0,-1,0,4,4,2,1,0,2021-08-07 12:45:41,777042
-2,-4,-4,-1,-3,-3,0,-2,2021-08-07 12:45:41,777042
-3,-3,-6,-9,-9,-7,-3,-1,2021-08-07 12:45:41,793041
2,3,3,2,6,5,2,1,2021-08-07 12:45:41,809041
0,0,1,2,4,2,-1,0,2021-08-07 12:45:41,809041
-2,-1,-1,0,-1,0,-2,1,2021-08-07 12:45:41,809041
-4,-3,-4,-4,-8,-4,-3,-3,2021-08-07 12:45:41,809041
-2,-3,-3,-5,-12,-9,-4,-1,2021-08-07 12:45:41,809041
0,0,-1,1,8,6,2,1,2021-08-07 12:45:41,809041
0,3,3,5,1,-1,-1,0,2021-08-07 12:45:41,809041
1,0,1,3,8,6,3,1,2021-08-07 12:45:41,825042
-4,0,-1,1,2,-1,-2,-1,2021-08-07 12:45:41,825042
-1,-1,-1,-3,-7,-5,-5,-1,2021-08-07 12:45:41,825042
0,-2,-2,-2,0,0,-1,0,2021-08-07 12:45:41,825042
-2,-2,-2,-3,-6,-5,-3,-2,2021-08-07 12:45:41,857041
0,-2,1,-1,-5,-1,0,-2,2021-08-07 12:45:41,857041
-1,0,0,0,-3,-2,-1,1,2021-08-07 12:45:41,857041
-1,0,0,-3,-1,2,1,0,2021-08-07 12:45:41,857041
1,0,-2,-2,1,0,-1,-1,2021-08-07 12:45:41,857041
-1,-3,-4,-1,3,2,-1,-2,2021-08-07 12:45:41,857041
0,2,0,2,1,-1,1,-2,2021-08-07 12:45:41,873041
2,3,3,5,7,5,3,2,2021-08-07 12:45:41,873041
-4,-2,1,3,1,-1,-2,-2,2021-08-07 12:45:41,889042
1,1,4,4,1,0,2,1,2021-08-07 12:45:41,905043
-1,-2,-2,8,-4,-7,-4,-3,2021-08-07 12:45:41,905043
0,0,-3,5,8,5,2,-1,2021-08-07 12:45:41,905043
1,0,5,-10,1,3,3,2,2021-08-07 12:45:41,905043
-2,-2,-8,-26,-11,-3,0,-1,2021-08-07 12:45:41,905043
-3,-3,-3,-20,-14,-9,-6,-3,2021-08-07 12:45:41,905043
-4,-7,-13,-1,-7,-7,-4,-2,2021-08-07 12:45:41,906043
2,3,5,19,6,1,0,1,2021-08-07 12:45:41,921041
0,-2,2,-3,-8,-5,-2,-1,2021-08-07 12:45:41,921041
1,1,2,8,8,4,3,1,2021-08-07 12:45:41,936041
2,4,9,7,8,5,3,0,2021-08-07 12:45:41,936041
-2,-5,-9,-12,-15,-7,-6,-1,2021-08-07 12:45:41,952042
-1,-2,-2,15,18,10,3,-1,2021-08-07 12:45:41,952042
-1,-2,-3,-4,-7,-3,-2,-3,2021-08-07 12:45:41,952042
-3,-1,2,5,11,2,0,-2,2021-08-07 12:45:41,952042
2,2,3,3,-1,-2,0,-2,2021-08-07 12:45:41,968042
-1,-1,-4,-8,-10,-3,-4,-2,2021-08-07 12:45:41,968042
2,2,1,-1,-3,-1,-1,2,2021-08-07 12:45:41,968042
-2,-1,-3,-9,-7,-4,-2,-1,2021-08-07 12:45:41,968042
-2,-3,-3,7,12,8,3,0,2021-08-07 12:45:42,000042
1,2,1,-2,-5,-6,-4,-1,2021-08-07 12:45:42,000042
-1,-2,-2,-1,1,1,0,-1,2021-08-07 12:45:42,000042
-1,0,0,-9,-13,-7,-4,-1,2021-08-07 12:45:42,000042
2,3,0,2,6,6,4,2,2021-08-07 12:45:42,000042
-2,-3,-3,0,-3,-2,-2,-2,2021-08-07 12:45:42,001043
-3,-1,-2,0,-1,-1,-2,-1,2021-08-07 12:45:42,016043
-1,-2,0,-4,-5,-3,-3,-1,2021-08-07 12:45:42,016043
0,-1,-3,-4,-7,-5,-4,-1,2021-08-07 12:45:42,032040
2,1,1,3,6,6,3,0,2021-08-07 12:45:42,032040
0,0,1,4,14,7,3,-1,2021-08-07 12:45:42,032040
1,2,0,-3,-2,-2,0,0,2021-08-07 12:45:42,032040
0,0,-1,1,2,1,-1,-1,2021-08-07 12:45:42,064040
1,0,-1,1,-6,-5,-3,-2,2021-08-07 12:45:42,064040
-4,-5,-6,-15,-21,-12,-6,-4,2021-08-07 12:45:42,064040
1,0,4,16,25,13,6,3,2021-08-07 12:45:42,064040
2,3,2,2,2,1,3,0,2021-08-07 12:45:42,064040
-2,-1,-1,-3,-1,1,0,0,2021-08-07 12:45:42,064040
0,-2,-1,-3,-2,-1,-1,-1,2021-08-07 12:45:42,064040
-1,-1,-3,-5,-9,-4,-2,-1,2021-08-07 12:45:42,064040
-2,-3,-4,-7,-14,-8,-4,-1,2021-08-07 12:45:42,096042
-2,-4,-4,-1,5,1,-1,-2,2021-08-07 12:45:42,112041
4,6,6,8,9,6,4,3,2021-08-07 12:45:42,112041
-3,-2,-4,-9,-11,-6,-4,-3,2021-08-07 12:45:42,112041
-2,-3,-3,-3,0,-2,-2,-5,2021-08-07 12:45:42,112041
2,4,3,3,0,0,0,1,2021-08-07 12:45:42,112041
-1,-1,0,1,2,1,-1,0,2021-08-07 12:45:42,112041
-1,1,3,0,1,-1,1,0,2021-08-07 12:45:42,112041
-4,-4,-5,-7,-5,-4,-2,-1,2021-08-07 12:45:42,128042
-4,-5,-2,1,0,-3,-4,-3,2021-08-07 12:45:42,128042
1,0,1,0,-2,0,-1,-1,2021-08-07 12:45:42,128042
-4,-5,-4,-5,-7,-4,-3,-1,2021-08-07 12:45:42,128042
3,7,8,4,7,5,2,3,2021-08-07 12:45:42,159041
-2,-2,-4,-9,-8,-4,-2,-2,2021-08-07 12:45:42,159041
-1,-1,-4,2,3,-1,-1,-1,2021-08-07 12:45:42,159041
-1,-2,0,2,-1,-1,-1,-2,2021-08-07 12:45:42,159041
-1,-3,-3,0,-2,0,0,0,2021-08-07 12:45:42,175043
3,3,4,12,24,13,7,3,2021-08-07 12:45:42,191041
-4,-4,-3,-7,-10,-6,-5,-4,2021-08-07 12:45:42,207040
1,1,2,1,6,6,4,1,2021-08-07 12:45:42,207040
-3,-1,0,-5,-7,-5,-3,-3,2021-08-07 12:45:42,207040
0,-2,-2,-1,-5,-2,-1,-1,2021-08-07 12:45:42,207040
-3,-2,-3,-2,-1,0,-1,-1,2021-08-07 12:45:42,207040
-1,-3,-3,-4,-7,-5,-4,-2,2021-08-07 12:45:42,207040
0,2,1,1,2,1,1,0,2021-08-07 12:45:42,207040
-1,-3,-1,0,-5,-4,-2,-3,2021-08-07 12:45:42,207040
0,1,2,3,7,3,1,1,2021-08-07 12:45:42,239043
3,4,4,-1,3,2,2,3,2021-08-07 12:45:42,239043
0,-1,-5,5,7,4,1,0,2021-08-07 12:45:42,239043
0,-1,0,-3,-5,-4,-2,0,2021-08-07 12:45:42,239043
-2,-3,-1,-4,-1,-1,-1,-2,2021-08-07 12:45:42,239043
-1,0,-2,-4,-5,-2,-2,-2,2021-08-07 12:45:42,239043
-1,-4,-2,-5,-6,-4,0,-3,2021-08-07 12:45:42,240041
-2,-2,-3,-3,-2,-3,-2,-2,2021-08-07 12:45:42,240041
0,-1,0,1,-3,-3,0,1,2021-08-07 12:45:42,255041
1,1,0,3,6,4,1,0,2021-08-07 12:45:42,258042
-1,0,0,1,3,1,-1,0,2021-08-07 12:45:42,271042
-3,-4,-5,-9,-12,-9,-4,-4,2021-08-07 12:45:42,287040
0,-1,-2,-5,-5,-2,0,-1,2021-08-07 12:45:42,303041
1,-3,-2,-3,-6,-6,-3,-2,2021-08-07 12:45:42,319041
2,1,2,5,14,9,4,0,2021-08-07 12:45:42,319041
0,2,0,4,3,3,2,1,2021-08-07 12:45:42,319041
-2,-3,-3,-3,1,1,-1,0,2021-08-07 12:45:42,319041
0,2,2,0,-2,-3,-2,1,2021-08-07 12:45:42,319041
0,-1,0,-2,-7,-5,-2,-1,2021-08-07 12:45:42,319041
-1,-2,0,-5,-9,-5,-3,-1,2021-08-07 12:45:42,319041
0,1,-2,1,1,1,0,-1,2021-08-07 12:45:42,320042
-1,-1,-2,-3,-4,-1,-2,-1,2021-08-07 12:45:42,320042
-1,-2,-2,-4,-5,-4,-3,-2,2021-08-07 12:45:42,335041
-3,-1,1,3,1,-1,0,0,2021-08-07 12:45:42,335041
1,1,0,1,3,4,3,0,2021-08-07 12:45:42,335041
-2,-3,-1,5,5,2,0,-1,2021-08-07 12:45:42,335041
2,3,2,1,1,0,1,3,2021-08-07 12:45:42,351043
-2,-3,-3,-6,-4,-3,-1,-1,2021-08-07 12:45:42,367043
3,3,5,15,15,7,4,2,2021-08-07 12:45:42,367043
2,2,0,1,2,1,3,1,2021-08-07 12:45:42,367043
0,-2,-1,0,1,-1,-2,-3,2021-08-07 12:45:42,367043
0,-1,-3,-2,2,1,-1,0,2021-08-07 12:45:42,367043
-3,-4,-4,-12,-15,-10,-6,-2,2021-08-07 12:45:42,367043
-2,-2,0,1,0,2,-1,-2,2021-08-07 12:45:42,367043
0,-1,-1,-1,-1,0,-1,-1,2021-08-07 12:45:42,399042
3,5,3,-1,0,3,2,2,2021-08-07 12:45:42,415041
-1,-3,-2,-5,-3,-2,-2,-2,2021-08-07 12:45:42,430041
0,-1,0,-1,-3,-1,0,0,2021-08-07 12:45:42,430041
-3,-1,-5,-3,-3,-3,-1,-1,2021-08-07 12:45:42,430041
-2,-2,-1,-2,-8,-7,-3,-2,2021-08-07 12:45:42,430041
1,1,1,4,12,8,4,2,2021-08-07 12:45:42,430041
1,1,-1,-1,2,2,0,1,2021-08-07 12:45:42,430041
0,0,0,-2,-1,0,0,2,2021-08-07 12:45:42,430041
-1,1,0,10,12,4,0,-1,2021-08-07 12:45:42,430041
-3,-1,-3,-4,-12,-8,-2,-4,2021-08-07 12:45:42,430041
-3,-4,0,-9,1,0,-1,-2,2021-08-07 12:45:42,430041
-3,-3,-6,-7,-9,-6,-4,-1,2021-08-07 12:45:42,462040
1,-2,0,-1,-4,-2,0,0,2021-08-07 12:45:42,462040
-3,-5,-5,-6,-1,0,-2,-3,2021-08-07 12:45:42,462040
5,7,6,10,5,3,3,3,2021-08-07 12:45:42,462040
1,1,2,8,11,5,3,1,2021-08-07 12:45:42,478041
-1,0,-2,0,-1,0,-1,-2,2021-08-07 12:45:42,493041
-3,-2,-1,-8,-11,-7,-5,-2,2021-08-07 12:45:42,508041
-3,-5,-5,-6,-10,-6,-5,-3,2021-08-07 12:45:42,508041
-3,-2,0,1,-3,-2,-4,-1,2021-08-07 12:45:42,508041
3,2,4,4,6,5,4,3,2021-08-07 12:45:42,508041
-3,-2,-4,-2,-4,-4,-3,-3,2021-08-07 12:45:42,508041
0,0,-1,1,9,6,3,1,2021-08-07 12:45:42,508041
0,0,-2,-2,-3,-3,-1,1,2021-08-07 12:45:42,508041
-2,-1,2,4,6,3,0,0,2021-08-07 12:45:42,508041
0,2,2,1,-3,-3,-2,0,2021-08-07 12:45:42,524042
-3,-2,-4,-5,-9,-6,-4,-3,2021-08-07 12:45:42,524042
-1,-3,-2,-2,-1,0,-1,-2,2021-08-07 12:45:42,540041
-1,-1,-2,-4,-5,-3,-2,-2,2021-08-07 12:45:42,540041
1,1,1,-2,4,2,2,2,2021-08-07 12:45:42,540041
0,0,2,-3,3,4,1,0,2021-08-07 12:45:42,540041
-2,-3,1,-5,-4,-2,-1,-3,2021-08-07 12:45:42,540041
0,0,0,-4,-5,-5,-5,-2,2021-08-07 12:45:42,540041
2,2,1,2,-3,-2,0,3,2021-08-07 12:45:42,556042
0,-1,-1,7,8,2,2,1,2021-08-07 12:45:42,556042
2,3,3,3,1,3,3,2,2021-08-07 12:45:42,572042
-2,-4,-4,-4,-1,0,-2,-2,2021-08-07 12:45:42,572042
-2,-4,-2,-1,-6,-3,-3,-3,2021-08-07 12:45:42,572042
-1,2,-4,-2,-5,-2,-3,-1,2021-08-07 12:45:42,572042
1,0,-1,-1,1,0,0,-2,2021-08-07 12:45:42,604040
-3,-2,-2,0,-3,-3,-2,-1,2021-08-07 12:45:42,620042
-1,-2,-3,-1,5,3,0,-2,2021-08-07 12:45:42,620042
2,2,3,-3,-1,-2,1,0,2021-08-07 12:45:42,620042
-2,0,1,-1,0,0,-1,0,2021-08-07 12:45:42,620042
1,-1,-1,-2,0,0,0,-2,2021-08-07 12:45:42,620042
-3,-4,-2,2,3,2,1,-1,2021-08-07 12:45:42,620042
-1,-2,-1,2,0,-3,-2,-2,2021-08-07 12:45:42,620042
0,1,0,-5,-2,-1,-2,0,2021-08-07 12:45:42,636042
-3,-3,-5,-4,-4,-2,-2,0,2021-08-07 12:45:42,636042
0,2,0,2,3,3,0,0,2021-08-07 12:45:42,652041
1,2,3,9,9,6,4,2,2021-08-07 12:45:42,652041
-1,-5,-3,-7,-9,-7,-4,-4,2021-08-07 12:45:42,652041
-1,-2,-2,-5,-5,0,-2,-1,2021-08-07 12:45:42,652041
-1,3,-1,8,9,3,1,0,2021-08-07 12:45:42,652041
0,2,2,3,-3,-1,0,-2,2021-08-07 12:45:42,652041
1,-1,-5,-15,0,2,3,4,2021-08-07 12:45:42,683042
-6,-10,-12,-18,-20,-13,-7,-5,2021-08-07 12:45:42,683042
-1,1,3,0,0,-1,-1,-1,2021-08-07 12:45:42,683042
-2,-4,-2,-1,-6,-6,-4,-2,2021-08-07 12:45:42,683042
0,2,5,14,10,6,2,-1,2021-08-07 12:45:42,683042
0,1,2,3,4,1,1,-2,2021-08-07 12:45:42,684044
1,3,0,0,6,4,3,2,2021-08-07 12:45:42,693045
-1,0,1,4,7,3,1,0,2021-08-07 12:45:42,694043
-1,-2,-2,-1,-4,-1,-4,-3,2021-08-07 12:45:42,715042
1,4,4,0,-5,-2,0,1,2021-08-07 12:45:42,715042
0,-1,0,-2,-2,-4,-2,-1,2021-08-07 12:45:42,715042
-1,0,3,7,13,9,5,1,2021-08-07 12:45:42,715042
-3,-2,-2,-3,-9,-8,-4,-2,2021-08-07 12:45:42,731042
2,0,0,3,11,6,2,2,2021-08-07 12:45:42,731042
-1,-2,-3,-13,-15,-9,-4,-2,2021-08-07 12:45:42,731042
-1,-2,-6,-8,-10,-4,-3,1,2021-08-07 12:45:42,731042
-2,-1,-4,6,7,4,2,0,2021-08-07 12:45:42,762040
-5,-1,0,4,1,1,-1,-3,2021-08-07 12:45:42,778040
-3,-1,1,0,-3,-1,-1,-1,2021-08-07 12:45:42,794040
-4,-5,-4,-9,-9,-8,-4,-6,2021-08-07 12:45:42,794040
-5,-2,0,3,-3,-2,-2,-2,2021-08-07 12:45:42,794040
4,5,6,1,0,3,3,4,2021-08-07 12:45:42,794040
4,6,3,4,6,3,1,2,2021-08-07 12:45:42,794040
1,0,-1,-3,-11,-7,-4,1,2021-08-07 12:45:42,794040
-2,-4,-3,-6,-3,0,-3,-2,2021-08-07 12:45:42,795042
-1,2,2,11,17,8,3,2,2021-08-07 12:45:42,795042
-3,-6,-6,-5,-4,-2,-2,-2,2021-08-07 12:45:42,795042
2,2,-1,0,-2,1,2,1,2021-08-07 12:45:42,795042
-1,-2,-1,-5,-6,-4,-3,-1,2021-08-07 12:45:42,810042
1,-2,0,0,2,1,0,0,2021-08-07 12:45:42,826042
-2,-4,-4,-1,-1,-1,-2,-1,2021-08-07 12:45:42,826042
-5,-6,-6,-11,-15,-11,-6,-3,2021-08-07 12:45:42,826042
0,0,1,4,7,4,1,0,2021-08-07 12:45:42,826042
1,2,3,2,4,5,2,0,2021-08-07 12:45:42,826042
-1,-3,-1,-1,-4,-4,-1,-2,2021-08-07 12:45:42,826042
-2,-3,-3,-1,-4,-3,-2,-3,2021-08-07 12:45:42,827042
-2,-2,-3,-1,-7,-6,-3,-1,2021-08-07 12:45:42,858079
1,1,-1,-3,10,6,3,0,2021-08-07 12:45:42,858079
1,0,0,1,0,0,0,0,2021-08-07 12:45:42,858079
0,1,2,2,7,5,1,0,2021-08-07 12:45:42,858079
1,2,2,3,1,0,1,1,2021-08-07 12:45:42,874041
-2,-3,-3,0,-8,-5,-5,-4,2021-08-07 12:45:42,890041
-5,-6,-6,-4,-6,-5,-4,-4,2021-08-07 12:45:42,906042
1,3,1,-1,2,0,1,0,2021-08-07 12:45:42,906042
0,3,3,3,5,4,2,1,2021-08-07 12:45:42,906042
-4,-4,-4,-3,-5,-6,-4,-2,2021-08-07 12:45:42,906042
2,4,4,9,13,8,5,2,2021-08-07 12:45:42,906042
-2,-2,-2,-1,-2,-3,-2,-2,2021-08-07 12:45:42,906042
4,2,2,0,-4,-2,0,2,2021-08-07 12:45:42,922042
-1,-1,-2,-4,-6,0,0,-1,2021-08-07 12:45:42,922042
-2,-4,-2,0,-1,-4,-2,-1,2021-08-07 12:45:42,922042
0,0,1,5,5,2,1,1,2021-08-07 12:45:42,922042
0,-2,-2,-6,-2,0,0,-1,2021-08-07 12:45:42,922042
-1,-2,-1,0,0,-1,0,-1,2021-08-07 12:45:42,922042
-2,1,-2,-6,-7,-5,-2,-1,2021-08-07 12:45:42,954041
0,-1,-3,-6,-5,-1,-3,-1,2021-08-07 12:45:42,969041
0,0,2,6,9,4,2,0,2021-08-07 12:45:42,969041
-3,-4,-5,-9,-10,-7,-5,-3,2021-08-07 12:45:42,985041
1,-1,0,0,4,2,0,0,2021-08-07 12:45:43,000041
0,0,-2,-1,-3,-2,-2,0,2021-08-07 12:45:43,000041
0,1,-1,-2,-4,-3,-2,0,2021-08-07 12:45:43,000041
-1,-1,-3,-3,-6,-7,-2,-2,2021-08-07 12:45:43,000041
2,2,1,-3,0,2,2,0,2021-08-07 12:45:43,000041
-2,-1,-1,-1,-1,0,-1,-2,2021-08-07 12:45:43,016041
1,0,4,1,-1,-1,-1,1,2021-08-07 12:45:43,032043
-2,-1,-4,2,4,1,-1,0,2021-08-07 12:45:43,032043
-1,-2,-8,-5,-6,-3,-1,-1,2021-08-07 12:45:43,032043
0,0,0,-3,-2,0,-1,2,2021-08-07 12:45:43,032043
-2,-1,0,3,5,0,0,0,2021-08-07 12:45:43,032043
-1,-1,0,-1,-3,-1,-1,-1,2021-08-07 12:45:43,032043
-1,0,-1,-3,-2,0,-1,0,2021-08-07 12:45:43,032043
0,0,1,3,4,0,-2,-2,2021-08-07 12:45:43,032043
-3,-4,-4,-8,-8,-5,-2,-4,2021-08-07 12:45:43,032043
-1,0,1,-5,-11,-5,-2,0,2021-08-07 12:45:43,033042
1,2,3,14,25,15,8,2,2021-08-07 12:45:43,033042
0,2,1,3,10,6,4,2,2021-08-07 12:45:43,033042
1,0,0,-1,0,0,-2,-1,2021-08-07 12:45:43,048042
-3,-2,-1,-4,-6,-5,-3,-2,2021-08-07 12:45:43,048042
-3,-4,-1,-6,-14,-8,-5,-3,2021-08-07 12:45:43,048042
1,-1,0,0,-1,-3,0,0,2021-08-07 12:45:43,048042
-2,-2,-6,-10,-7,-5,-2,-3,2021-08-07 12:45:43,080042
2,3,2,5,1,-1,0,-2,2021-08-07 12:45:43,080042
3,4,5,4,7,7,2,2,2021-08-07 12:45:43,080042
-2,-2,-1,4,5,3,1,-1,2021-08-07 12:45:43,080042
-3,-3,-3,2,3,-1,-3,-1,2021-08-07 12:45:43,095042
0,2,0,2,-1,-2,-2,0,2021-08-07 12:45:43,095042
0,-1,1,-5,-3,-3,-1,-1,2021-08-07 12:45:43,095042
0,-2,-3,-6,-9,-6,-4,-2,2021-08-07 12:45:43,095042
-4,-3,-5,-14,-19,-8,-5,-4,2021-08-07 12:45:43,111040
4,4,6,22,41,26,11,5,2021-08-07 12:45:43,111040
0,2,3,7,11,4,3,1,2021-08-07 12:45:43,111040
-3,-5,-8,-9,-7,-4,-4,-2,2021-08-07 12:45:43,111040
4,3,4,5,3,1,3,3,2021-08-07 12:45:43,142042
-3,-1,0,-6,-9,-6,-5,-3,2021-08-07 12:45:43,158042
-1,1,-5,-5,-9,-4,-1,0,2021-08-07 12:45:43,174043
-3,-2,-3,-7,-10,-7,-2,-3,2021-08-07 12:45:43,174043
-1,-4,0,2,2,4,1,-1,2021-08-07 12:45:43,190041
2,1,3,10,19,10,6,2,2021-08-07 12:45:43,190041
-3,-4,-2,-4,-4,-5,-4,-3,2021-08-07 12:45:43,190041
-1,-1,0,0,-3,-2,-3,-1,2021-08-07 12:45:43,190041
-1,1,-2,-4,-8,-4,0,0,2021-08-07 12:45:43,190041
1,-1,0,-3,-7,-1,0,0,2021-08-07 12:45:43,190041
-2,-4,-3,-2,-1,-2,-1,-2,2021-08-07 12:45:43,190041
-2,-2,-4,-1,2,0,0,-1,2021-08-07 12:45:43,190041
1,0,1,4,8,2,1,0,2021-08-07 12:45:43,190041
-1,1,0,-6,-5,-3,-1,1,2021-08-07 12:45:43,190041
-3,-3,-1,-5,-13,-6,-3,-2,2021-08-07 12:45:43,191042
1,0,2,3,8,6,3,2,2021-08-07 12:45:43,191042
0,-4,-3,0,2,2,-1,-1,2021-08-07 12:45:43,222041
-5,-5,-9,-5,-8,-7,-4,-4,2021-08-07 12:45:43,222041
3,5,4,0,-2,0,0,2,2021-08-07 12:45:43,222041
-3,-2,-1,-2,-2,-1,0,0,2021-08-07 12:45:43,222041
1,4,4,5,2,2,0,1,2021-08-07 12:45:43,222041
0,-4,-3,-4,-5,-3,-4,-1,2021-08-07 12:45:43,222041
-4,-4,-6,-6,-7,-4,-4,-3,2021-08-07 12:45:43,238042
-1,-2,0,0,-1,0,-1,-2,2021-08-07 12:45:43,254040
-2,0,0,1,3,2,1,-1,2021-08-07 12:45:43,254040
0,-1,1,-2,-4,-2,-1,0,2021-08-07 12:45:43,254040
-4,-5,-5,-3,-4,-4,-4,-4,2021-08-07 12:45:43,254040
0,0,-1,-1,-1,1,1,-1,2021-08-07 12:45:43,254040
2,2,2,1,2,1,2,0,2021-08-07 12:45:43,286042
-2,-1,-1,-6,-5,-2,-2,-3,2021-08-07 12:45:43,302043
0,-2,-1,0,-5,-4,-1,-2,2021-08-07 12:45:43,302043
2,5,4,10,12,8,4,1,2021-08-07 12:45:43,302043
-1,-1,-1,0,-2,-2,-3,-3,2021-08-07 12:45:43,302043
-1,-2,-3,-2,0,-1,0,-1,2021-08-07 12:45:43,302043
-2,-1,-1,-3,-4,-2,-2,-2,2021-08-07 12:45:43,302043
-2,-1,-2,-5,-8,-6,-5,-3,2021-08-07 12:45:43,302043
1,1,3,6,9,5,3,2,2021-08-07 12:45:43,318041
0,-1,0,-1,0,-2,0,0,2021-08-07 12:45:43,333042
0,0,0,-2,-3,0,-2,0,2021-08-07 12:45:43,333042
1,0,0,-1,5,3,0,1,2021-08-07 12:45:43,333042
-5,-6,-3,-6,-6,-5,-5,-4,2021-08-07 12:45:43,333042
-2,0,-1,-1,-8,-5,-1,-3,2021-08-07 12:45:43,333042
2,1,-1,6,9,6,3,3,2021-08-07 12:45:43,333042
2,5,1,0,4,0,0,2,2021-08-07 12:45:43,333042
0,-1,-2,0,2,0,-1,-1,2021-08-07 12:45:43,349042
-1,0,-2,-1,-1,-3,-2,-1,2021-08-07 12:45:43,349042
-2,-3,-2,-4,-6,-5,-3,-3,2021-08-07 12:45:43,365040
-1,-3,-4,-5,-9,-7,-3,-1,2021-08-07 12:45:43,365040
1,1,0,3,8,6,3,0,2021-08-07 12:45:43,365040
1,2,-1,0,4,2,-1,1,2021-08-07 12:45:43,365040
-1,2,2,0,4,3,3,2,2021-08-07 12:45:43,380044
-3,-2,-2,-2,-7,-5,-3,-3,2021-08-07 12:45:43,396040
-2,-1,-2,-3,-11,-6,-2,0,2021-08-07 12:45:43,412040
-1,-1,0,7,11,8,4,1,2021-08-07 12:45:43,412040
3,3,4,2,9,6,3,1,2021-08-07 12:45:43,412040
1,0,2,4,3,2,1,-1,2021-08-07 12:45:43,412040
-4,-5,-6,-5,-9,-8,-5,-5,2021-08-07 12:45:43,412040
-1,1,-1,-5,-11,-6,-3,-1,2021-08-07 12:45:43,412040
-2,-1,1,0,0,-1,0,-1,2021-08-07 12:45:43,428040
0,-1,-1,-2,-3,0,0,-1,2021-08-07 12:45:43,428040
1,0,2,2,2,0,0,1,2021-08-07 12:45:43,428040
-1,-4,-3,-5,-7,-3,-3,-2,2021-08-07 12:45:43,428040
-1,-1,-2,2,2,1,-1,1,2021-08-07 12:45:43,428040
1,4,5,6,7,4,2,1,2021-08-07 12:45:43,428040
-3,-2,-4,-2,1,1,0,0,2021-08-07 12:45:43,460083
-2,1,1,-4,-4,-4,-2,1,2021-08-07 12:45:43,476082
-1,-3,-2,-3,-6,-4,-2,0,2021-08-07 12:45:43,492082
1,1,2,-3,-1,1,0,1,2021-08-07 12:45:43,492082
2,1,3,4,6,5,1,1,2021-08-07 12:45:43,492082
0,-1,-3,1,5,2,0,-1,2021-08-07 12:45:43,492082
-4,-4,-3,-1,-3,-4,-3,-3,2021-08-07 12:45:43,492082
-1,1,0,0,-2,-2,2,0,2021-08-07 12:45:43,492082
-3,-2,-2,-7,-6,-3,-4,0,2021-08-07 12:45:43,492082
2,1,3,0,-3,0,1,-1,2021-08-07 12:45:43,492082
-2,-3,-3,-3,-1,0,-1,-1,2021-08-07 12:45:43,492082
1,-1,-2,-1,-1,-3,-1,1,2021-08-07 12:45:43,493083
-2,0,-1,-3,-2,-3,-1,0,2021-08-07 12:45:43,524082
-5,-8,-6,-3,0,-1,-5,-5,2021-08-07 12:45:43,524082
1,2,1,2,8,3,2,0,2021-08-07 12:45:43,524082
-1,-2,-2,-1,-4,-3,-3,-2,2021-08-07 12:45:43,524082
0,0,-2,-2,-5,-1,0,-1,2021-08-07 12:45:43,524082
-3,-3,-4,-4,-2,-2,0,0,2021-08-07 12:45:43,525084
2,4,3,3,3,3,1,1,2021-08-07 12:45:43,534083
-4,-5,-6,-7,-6,-5,-5,-3,2021-08-07 12:45:43,534083
1,2,4,5,6,2,2,1,2021-08-07 12:45:43,555083
0,-1,-2,-7,-12,-5,-4,-3,2021-08-07 12:45:43,571083
1,-1,1,11,22,14,5,2,2021-08-07 12:45:43,587082
0,1,1,4,7,1,0,1,2021-08-07 12:45:43,587082
-4,-3,-5,-4,-6,-6,-5,-3,2021-08-07 12:45:43,587082
-3,-2,-2,-4,-3,-5,-3,-3,2021-08-07 12:45:43,587082
5,7,7,-2,-9,-5,-1,3,2021-08-07 12:45:43,587082
0,2,0,-1,-1,1,0,1,2021-08-07 12:45:43,587082
0,-3,-3,-3,0,1,0,0,2021-08-07 12:45:43,587082
2,0,-1,1,-1,0,1,1,2021-08-07 12:45:43,587082
-4,-5,-8,-5,-8,-4,-2,-4,2021-08-07 12:45:43,603081
-3,-4,-4,0,1,1,1,-2,2021-08-07 12:45:43,603081
-1,1,3,1,1,1,-1,-2,2021-08-07 12:45:43,619082
-3,0,1,2,1,3,0,-1,2021-08-07 12:45:43,634084
0,0,2,-3,-7,-5,-4,-2,2021-08-07 12:45:43,634084
-1,-1,-1,2,0,0,0,1,2021-08-07 12:45:43,634084
-2,-4,-5,-4,-1,-2,-1,-2,2021-08-07 12:45:43,634084
6,9,8,6,7,2,4,4,2021-08-07 12:45:43,634084
1,-2,-2,-2,-4,-3,-1,0,2021-08-07 12:45:43,634084
-2,-3,-2,-4,-3,-2,-1,-3,2021-08-07 12:45:43,635083
2,2,-1,-1,0,2,0,0,2021-08-07 12:45:43,650082
-2,-1,-1,-2,-2,-2,-3,-1,2021-08-07 12:45:43,650082
0,1,-1,-4,-6,-3,-2,-1,2021-08-07 12:45:43,650082
-2,-3,-3,-3,-4,-1,-3,-3,2021-08-07 12:45:43,650082
-1,0,-1,4,4,1,0,-1,2021-08-07 12:45:43,681081
0,0,1,3,4,2,-1,1,2021-08-07 12:45:43,697081
0,-2,-1,1,-1,-3,-1,0,2021-08-07 12:45:43,713081
0,0,0,-2,-5,-2,-3,-2,2021-08-07 12:45:43,713081
-1,-1,1,3,1,-1,1,-1,2021-08-07 12:45:43,713081
-2,-2,-3,-3,-5,-2,-3,-2,2021-08-07 12:45:43,713081
-2,-3,-3,0,6,5,0,0,2021-08-07 12:45:43,713081
3,1,0,1,4,1,0,1,2021-08-07 12:45:43,713081
-4,-4,-4,-9,-13,-9,-6,-4,2021-08-07 12:45:43,713081
3,3,2,3,10,6,5,3,2021-08-07 12:45:43,713081
-5,-7,-8,-4,-4,-3,-3,-5,2021-08-07 12:45:43,714083
3,3,2,0,1,4,5,5,2021-08-07 12:45:43,714083
2,1,0,-1,2,2,-1,0,2021-08-07 12:45:43,729082
-4,-4,-4,-1,-8,-7,-5,-3,2021-08-07 12:45:43,729082
-2,-1,-3,-7,-9,-6,-5,-3,2021-08-07 12:45:43,761083
-3,0,2,3,3,0,-1,-3,2021-08-07 12:45:43,761083
1,0,0,-2,-3,0,2,2,2021-08-07 12:45:43,761083
1,-2,1,2,2,3,1,-1,2021-08-07 12:45:43,761083
0,-1,-2,-4,-2,-2,-2,-1,2021-08-07 12:45:43,761083
-3,-3,-2,-5,-8,-9,-5,-4,2021-08-07 12:45:43,761083
1,2,3,2,3,2,1,1,2021-08-07 12:45:43,761083
0,0,0,3,6,2,0,-1,2021-08-07 12:45:43,761083
0,0,3,0,-2,-2,1,0,2021-08-07 12:45:43,777082
1,-1,-1,-4,2,3,0,1,2021-08-07 12:45:43,777082
2,1,2,8,10,5,2,1,2021-08-07 12:45:43,793082
-1,-1,-2,-3,-2,0,1,-1,2021-08-07 12:45:43,809082
-2,-4,-2,-4,-8,-7,-3,-3,2021-08-07 12:45:43,809082
-1,-1,-2,-5,-11,-7,-4,-1,2021-08-07 12:45:43,809082
-2,-4,-6,-4,3,4,0,0,2021-08-07 12:45:43,809082
2,6,4,1,4,2,1,3,2021-08-07 12:45:43,809082
3,8,7,8,6,5,4,3,2021-08-07 12:45:43,809082
-1,-4,-4,-3,-1,-1,0,-2,2021-08-07 12:45:43,809082
1,-1,0,1,-4,-4,-1,1,2021-08-07 12:45:43,840082
-6,-9,-8,-8,-10,-8,-7,-5,2021-08-07 12:45:43,840082
-2,0,1,0,5,4,-1,0,2021-08-07 12:45:43,840082
2,2,3,4,5,4,0,3,2021-08-07 12:45:43,840082
-2,-3,-1,-2,-1,-1,-1,-3,2021-08-07 12:45:43,856082
-3,-4,-4,-7,-11,-5,-2,-3,2021-08-07 12:45:43,856082
2,1,2,4,1,1,3,0,2021-08-07 12:45:43,856082
-1,-1,-1,-2,-3,1,1,-2,2021-08-07 12:45:43,856082
0,1,-1,-1,3,1,-1,1,2021-08-07 12:45:43,887082
0,1,4,3,7,4,3,1,2021-08-07 12:45:43,887082
-2,-3,-5,-4,-5,-6,-3,-2,2021-08-07 12:45:43,887082
-3,-5,-6,-9,-12,-8,-4,-2,2021-08-07 12:45:43,887082
-3,0,1,-2,-5,-1,-3,-4,2021-08-07 12:45:43,903081
0,-1,-2,-2,0,0,1,0,2021-08-07 12:45:43,903081
4,6,7,11,13,9,6,3,2021-08-07 12:45:43,903081
0,1,-1,-6,-7,-7,-4,-1,2021-08-07 12:45:43,903081
1,1,2,6,9,5,1,2,2021-08-07 12:45:43,919083
-4,-7,-7,-10,-14,-8,-6,-5,2021-08-07 12:45:43,919083
-2,-5,-3,0,0,-2,0,-2,2021-08-07 12:45:43,919083
2,1,2,6,6,5,2,0,2021-08-07 12:45:43,919083
1,1,0,-3,1,0,1,-1,2021-08-07 12:45:43,935081
2,2,2,9,14,6,3,-1,2021-08-07 12:45:43,935081
-1,0,-1,-3,-2,-3,-1,-1,2021-08-07 12:45:43,935081
1,1,1,0,0,-1,-1,-1,2021-08-07 12:45:43,935081
-4,-5,-5,-9,-17,-12,-7,-2,2021-08-07 12:45:43,958082
-1,3,5,9,14,9,5,4,2021-08-07 12:45:43,958082
-3,-1,-4,-10,-15,-8,-4,-2,2021-08-07 12:45:43,959082
-2,-2,0,3,8,4,0,1,2021-08-07 12:45:43,959082
-4,-5,-3,-2,0,-4,-3,-5,2021-08-07 12:45:43,982082
4,4,5,8,11,7,2,2,2021-08-07 12:45:43,982082
-3,-5,-5,-4,-3,-2,-3,-1,2021-08-07 12:45:43,982082
2,7,8,4,0,0,2,3,2021-08-07 12:45:43,982082
-1,0,1,-6,-14,-8,-3,-1,2021-08-07 12:45:43,998082
-1,-3,-2,-2,0,5,1,-1,2021-08-07 12:45:43,998082
0,1,1,4,11,7,3,1,2021-08-07 12:45:43,998082
-3,-6,-5,-4,-4,-4,-3,-3,2021-08-07 12:45:43,998082
-1,-1,0,-6,-12,-6,-3,-1,2021-08-07 12:45:44,029080
6,8,8,16,26,13,7,6,2021-08-07 12:45:44,029080
-3,-4,-6,-8,-10,-8,-4,-4,2021-08-07 12:45:44,029080
-1,-2,-3,-4,-2,-4,-2,-2,2021-08-07 12:45:44,029080
-3,-4,-4,-6,-8,-5,-3,-4,2021-08-07 12:45:44,029080
-1,-1,0,5,-1,0,0,0,2021-08-07 12:45:44,029080
1,0,0,4,7,5,2,0,2021-08-07 12:45:44,030082
0,-3,-4,-13,-12,-10,-4,-1,2021-08-07 12:45:44,030082
-3,-5,-4,-1,-2,-3,-4,-5,2021-08-07 12:45:44,061082
0,1,-1,-10,-14,-5,-2,-1,2021-08-07 12:45:44,061082
1,2,4,9,15,7,3,0,2021-08-07 12:45:44,061082
0,-2,0,1,-5,-1,0,0,2021-08-07 12:45:44,061082
0,4,2,7,12,4,2,3,2021-08-07 12:45:44,076083
-6,-6,-7,-12,-15,-12,-8,-5,2021-08-07 12:45:44,076083
-1,-3,-3,0,-2,-1,-1,-2,2021-08-07 12:45:44,076083
-4,-2,-3,-6,-15,-10,-4,-4,2021-08-07 12:45:44,092082
3,4,4,1,7,9,4,3,2021-08-07 12:45:44,092082
1,2,3,8,9,3,3,2,2021-08-07 12:45:44,092082
-1,1,0,1,2,2,1,1,2021-08-07 12:45:44,092082
-2,0,-2,9,15,8,3,0,2021-08-07 12:45:44,092082
0,-1,-1,-2,-9,-7,-4,0,2021-08-07 12:45:44,124083
0,0,-1,-11,-11,-4,-1,-1,2021-08-07 12:45:44,124083
1,-2,-2,-9,-10,-3,-3,0,2021-08-07 12:45:44,140081
-1,0,0,1,2,-1,-1,-1,2021-08-07 12:45:44,156081
-2,-4,-4,-1,-6,-3,-2,-2,2021-08-07 12:45:44,156081
4,4,6,11,27,16,7,5,2021-08-07 12:45:44,156081
4,4,3,7,9,6,3,5,2021-08-07 12:45:44,156081
-4,-4,-5,-9,-7,-5,-5,-5,2021-08-07 12:45:44,156081
-4,-5,-3,-7,-8,-8,-5,-3,2021-08-07 12:45:44,156081
-2,-6,-7,-11,-21,-11,-6,-1,2021-08-07 12:45:44,156081
2,3,4,0,1,4,3,3,2021-08-07 12:45:44,157084
1,1,0,5,8,5,1,0,2021-08-07 12:45:44,157084
0,-2,1,7,13,7,2,0,2021-08-07 12:45:44,187083
-4,-5,-4,-6,-14,-12,-6,-5,2021-08-07 12:45:44,187083
-1,0,-1,-2,-4,-2,-2,-1,2021-08-07 12:45:44,187083
1,3,2,5,7,4,1,2,2021-08-07 12:45:44,187083
-1,0,-2,-4,-12,-7,-4,-2,2021-08-07 12:45:44,203081
-2,0,-3,-7,-6,2,1,-2,2021-08-07 12:45:44,219082
-5,-4,1,-6,-16,-12,-7,-5,2021-08-07 12:45:44,219082
0,0,3,8,13,11,4,2,2021-08-07 12:45:44,219082
1,1,3,9,21,10,6,1,2021-08-07 12:45:44,219082
-5,-5,-7,-9,-20,-12,-8,-3,2021-08-07 12:45:44,220083
-3,-4,-5,-9,-9,-10,-5,-6,2021-08-07 12:45:44,220083
-1,-3,-1,-4,-1,1,0,0,2021-08-07 12:45:44,220083
1,-2,1,4,2,3,2,0,2021-08-07 12:45:44,235084
4,5,6,6,3,1,4,4,2021-08-07 12:45:44,235084
-3,-5,-6,-11,-11,-10,-5,-4,2021-08-07 12:45:44,235084
1,-1,1,-5,-7,-4,-2,-1,2021-08-07 12:45:44,235084
2,3,2,7,8,6,4,1,2021-08-07 12:45:44,267082
-2,-2,-2,0,-2,-3,-2,-4,2021-08-07 12:45:44,267304
-1,-1,-1,3,4,5,2,-1,2021-08-07 12:45:44,267304
1,-1,0,0,-4,-3,0,-1,2021-08-07 12:45:44,267304
1,1,0,-6,-2,0,2,0,2021-08-07 12:45:44,267304
-2,-3,-3,4,6,-2,-1,-3,2021-08-07 12:45:44,267304
-1,1,1,-1,-5,-4,-1,-1,2021-08-07 12:45:44,283081
0,0,0,0,0,1,1,0,2021-08-07 12:45:44,283081
-4,-4,-6,-11,-16,-11,-8,-3,2021-08-07 12:45:44,299082
5,5,7,20,31,20,9,3,2021-08-07 12:45:44,315084
-2,-3,-2,2,0,1,-1,-1,2021-08-07 12:45:44,331081
-2,-2,-5,-13,-6,-3,-3,-2,2021-08-07 12:45:44,331081
0,0,1,-3,-3,-5,-3,-3,2021-08-07 12:45:44,331081
-2,-1,-4,-7,-13,-7,-3,-1,2021-08-07 12:45:44,331081
-1,1,2,14,16,9,4,1,2021-08-07 12:45:44,331081
1,3,-1,3,3,2,2,2,2021-08-07 12:45:44,331081
-7,-9,-12,-20,-22,-14,-8,-4,2021-08-07 12:45:44,331081
-1,-1,0,-6,-9,-9,-6,-2,2021-08-07 12:45:44,332083
-2,-1,-4,-9,-15,-7,-4,-2,2021-08-07 12:45:44,347082
1,2,3,10,14,6,2,1,2021-08-07 12:45:44,347082
3,3,4,11,19,14,6,3,2021-08-07 12:45:44,347082
-5,-6,-5,-6,1,-3,-4,-2,2021-08-07 12:45:44,347082
2,1,0,-3,-3,-1,-1,-2,2021-08-07 12:45:44,362081
-2,-1,0,3,-4,-3,-2,-2,2021-08-07 12:45:44,362081
1,2,2,9,12,8,3,1,2021-08-07 12:45:44,377083
-3,-4,-4,-12,-21,-11,-6,-4,2021-08-07 12:45:44,377083
2,3,3,14,18,9,4,3,2021-08-07 12:45:44,377083
-3,-4,-3,-3,-2,-3,-2,-2,2021-08-07 12:45:44,377083
-3,-1,0,1,-4,-4,-3,-2,2021-08-07 12:45:44,393083
1,0,-2,0,5,5,2,0,2021-08-07 12:45:44,393083
-1,1,-1,-2,-2,-3,-2,-2,2021-08-07 12:45:44,393083
-1,0,3,3,-3,0,1,0,2021-08-07 12:45:44,393083
2,2,4,7,3,1,0,0,2021-08-07 12:45:44,424084
-5,-6,-8,-18,-20,-12,-6,-4,2021-08-07 12:45:44,440081
-2,-6,-5,-7,8,5,2,-1,2021-08-07 12:45:44,440081
-2,-1,0,-2,3,3,0,0,2021-08-07 12:45:44,440081
-1,-1,0,-1,-1,-2,0,-2,2021-08-07 12:45:44,440081
2,3,2,4,-7,-5,-2,1,2021-08-07 12:45:44,440081
4,5,6,14,16,12,5,4,2021-08-07 12:45:44,440081
1,0,-2,-4,-1,0,2,2,2021-08-07 12:45:44,440081
1,-1,-2,-2,4,3,3,1,2021-08-07 12:45:44,456081
-2,-3,-3,-4,-6,-3,-1,-3,2021-08-07 12:45:44,456081
-2,-3,-8,-5,-1,-4,-2,-2,2021-08-07 12:45:44,456081
-5,-3,-4,-6,-12,-8,-5,-5,2021-08-07 12:45:44,456081
0,3,3,7,14,8,4,1,2021-08-07 12:45:44,472083
-4,-2,-2,-2,-4,-3,-4,-3,2021-08-07 12:45:44,488082
0,0,2,1,-5,-4,-3,-2,2021-08-07 12:45:44,488082
0,-1,-1,-3,-3,-1,-1,-2,2021-08-07 12:45:44,488082
0,-1,-1,0,-2,-2,-1,0,2021-08-07 12:45:44,504082
0,0,-1,-1,5,5,2,-1,2021-08-07 12:45:44,504082
0,-1,-2,-1,-5,-4,-1,0,2021-08-07 12:45:44,504082
3,2,2,2,6,4,2,2,2021-08-07 12:45:44,504082
-3,-2,-3,-7,-8,-6,-4,-2,2021-08-07 12:45:44,504082
0,-3,-2,2,4,4,1,0,2021-08-07 12:45:44,504082
-1,3,0,-5,-8,-4,-1,0,2021-08-07 12:45:44,520081
-2,-2,-1,-3,0,-1,-3,-2,2021-08-07 12:45:44,520081
1,2,2,0,2,0,1,0,2021-08-07 12:45:44,536082
-5,-5,-8,-13,-21,-14,-7,-4,2021-08-07 12:45:44,552081
2,3,5,6,14,10,6,4,2021-08-07 12:45:44,552081
-1,-1,-1,4,3,2,2,0,2021-08-07 12:45:44,552081
-2,-3,-2,3,7,2,0,-3,2021-08-07 12:45:44,552081
-2,-2,0,2,1,-1,-1,-1,2021-08-07 12:45:44,553086
-3,-4,-4,-10,-16,-11,-5,-2,2021-08-07 12:45:44,567081
1,2,2,5,8,4,2,1,2021-08-07 12:45:44,567081
0,-1,0,-2,-5,-4,-1,-1,2021-08-07 12:45:44,567081
0,1,-1,0,-4,-2,-2,-1,2021-08-07 12:45:44,567081
-1,-1,-2,-2,-2,-1,-3,-1,2021-08-07 12:45:44,599083
-2,-2,-3,-2,1,1,-2,-3,2021-08-07 12:45:44,599083
1,2,1,-8,-10,-4,-1,1,2021-08-07 12:45:44,599083
1,0,2,5,9,5,2,0,2021-08-07 12:45:44,599083
-2,-2,-3,-3,-8,-6,-3,0,2021-08-07 12:45:44,599083
-3,-2,-4,-3,-6,-4,-2,-2,2021-08-07 12:45:44,599083
4,5,5,8,15,12,3,4,2021-08-07 12:45:44,615082
1,2,5,7,8,4,4,1,2021-08-07 12:45:44,615082
-1,-1,-2,-4,-4,-3,-1,-3,2021-08-07 12:45:44,615082
0,-3,0,1,-2,-3,0,1,2021-08-07 12:45:44,615082
-2,-4,-4,-7,-12,-7,-4,-3,2021-08-07 12:45:44,631082
0,0,-1,2,4,3,-1,-2,2021-08-07 12:45:44,631082
-3,-4,-5,-11,-16,-11,-7,-4,2021-08-07 12:45:44,647083
2,2,3,7,10,7,3,3,2021-08-07 12:45:44,647083
0,1,0,4,12,5,2,0,2021-08-07 12:45:44,647083
-3,-1,-2,0,3,2,1,-1,2021-08-07 12:45:44,647083
-2,-2,0,-1,0,-1,-1,-1,2021-08-07 12:45:44,663083
-2,0,-2,-6,-13,-8,-5,-1,2021-08-07 12:45:44,663083
-2,-4,-3,-4,-11,-7,-1,-2,2021-08-07 12:45:44,679081
-4,-6,-7,-5,-6,-5,-4,-3,2021-08-07 12:45:44,694084
0,0,-1,2,5,6,3,0,2021-08-07 12:45:44,694084
4,6,7,6,5,3,3,3,2021-08-07 12:45:44,694084
0,1,-3,-1,2,2,-1,1,2021-08-07 12:45:44,694084
-2,0,0,-3,0,-1,-1,-1,2021-08-07 12:45:44,694084
-5,-7,-6,-8,-11,-7,-4,-5,2021-08-07 12:45:44,695085
-3,-2,-1,-1,-6,-4,-3,-2,2021-08-07 12:45:44,695085
1,1,-1,1,3,1,1,0,2021-08-07 12:45:44,725082
-1,-2,-3,-5,-4,-3,-1,-2,2021-08-07 12:45:44,741082
4,3,3,4,11,8,5,4,2021-08-07 12:45:44,741082
0,-2,-1,-2,-2,-3,-2,-1,2021-08-07 12:45:44,741082
-4,-3,-3,-6,-9,-2,-5,-3,2021-08-07 12:45:44,741082
3,3,3,4,14,9,3,2,2021-08-07 12:45:44,741082
-2,-1,-2,4,0,0,-1,-1,2021-08-07 12:45:44,741082
3,3,4,3,5,3,4,3,2021-08-07 12:45:44,741082
-3,-4,-4,-4,-4,-5,-3,-2,2021-08-07 12:45:44,757082
4,4,5,5,1,2,2,3,2021-08-07 12:45:44,773082
-2,-2,0,-2,-1,-1,-1,-2,2021-08-07 12:45:44,805082
-4,-4,-5,-6,-4,-3,-1,-3,2021-08-07 12:45:44,805082
-5,-5,-4,-7,-12,-9,-6,-4,2021-08-07 12:45:44,805082
-3,-1,-2,-9,-14,-7,-2,0,2021-08-07 12:45:44,805082
9,11,11,22,40,24,13,9,2021-08-07 12:45:44,805082
-5,-4,-6,-10,-14,-10,-4,-4,2021-08-07 12:45:44,805082
2,1,4,13,15,8,4,1,2021-08-07 12:45:44,805082
-4,-2,-2,-7,-12,-9,-6,-5,2021-08-07 12:45:44,805082
-3,-4,-2,-4,-8,-8,-5,-3,2021-08-07 12:45:44,806084
1,1,0,2,5,6,1,2,2021-08-07 12:45:44,806084
-3,-4,-2,-7,-6,-5,-3,-4,2021-08-07 12:45:44,821083
0,-1,-2,1,3,2,-1,0,2021-08-07 12:45:44,821083
-1,-4,-3,-11,-16,-9,-5,-3,2021-08-07 12:45:44,821083
3,3,4,6,11,10,4,2,2021-08-07 12:45:44,821083
-1,-2,-3,-3,-4,-4,-1,-2,2021-08-07 12:45:44,827083
0,1,-1,0,1,1,-1,2,2021-08-07 12:45:44,828083
0,-1,0,-8,-14,-7,-3,-1,2021-08-07 12:45:44,853081
0,2,0,9,17,9,2,1,2021-08-07 12:45:44,853081
-2,-4,-5,-6,-15,-10,-5,-1,2021-08-07 12:45:44,853081
-3,-2,-1,3,6,3,-1,-2,2021-08-07 12:45:44,853081
1,0,-2,-3,-4,-1,0,0,2021-08-07 12:45:44,853081
-1,-2,4,-4,-2,-4,-4,-3,2021-08-07 12:45:44,853081
-4,-3,-9,-9,-6,-2,0,-1,2021-08-07 12:45:44,885081
3,3,0,13,18,8,7,4,2021-08-07 12:45:44,901081
-1,-3,-4,-5,-6,-3,-2,0,2021-08-07 12:45:44,901081
-2,-2,-1,4,2,-3,-2,-1,2021-08-07 12:45:44,901081
-2,-1,2,-4,-5,-4,-2,-2,2021-08-07 12:45:44,901081
-3,-3,-2,-7,-13,-8,-4,-3,2021-08-07 12:45:44,901081
4,6,3,13,19,14,9,4,2021-08-07 12:45:44,901081
-3,-3,-3,-2,-4,-5,-3,-2,2021-08-07 12:45:44,901081
-1,0,-1,-1,-3,0,0,-1,2021-08-07 12:45:44,917084
2,2,2,10,22,10,5,1,2021-08-07 12:45:44,933083
-2,-1,0,-2,-5,-6,-4,-4,2021-08-07 12:45:44,933083
-2,-1,-2,-8,-11,-4,-1,-1,2021-08-07 12:45:44,933083
-4,-4,-5,-3,-8,-6,-4,-4,2021-08-07 12:45:44,933083
3,2,1,1,0,-1,2,2,2021-08-07 12:45:44,933083
0,1,6,0,1,-1,-1,1,2021-08-07 12:45:44,934083
2,1,5,-2,-6,-3,-3,0,2021-08-07 12:45:44,934083
0,-4,-14,-4,0,1,2,0,2021-08-07 12:45:44,949084
2,4,7,7,10,3,0,0,2021-08-07 12:45:44,949084
-1,-1,-3,0,-3,-3,-4,-3,2021-08-07 12:45:44,949084
-3,-6,-10,-8,-10,-5,-4,-3,2021-08-07 12:45:44,949084
3,0,8,1,11,10,4,4,2021-08-07 12:45:44,981082
-3,-3,-4,-9,-14,-8,-5,-4,2021-08-07 12:45:44,981082
3,1,0,5,2,2,5,2,2021-08-07 12:45:44,981082
0,2,0,-1,3,1,3,0,2021-08-07 12:45:44,981082
1,3,5,10,14,6,2,1,2021-08-07 12:45:44,997082
-3,-5,-6,-6,-6,-3,-2,-2,2021-08-07 12:45:44,997082
-1,-1,1,-8,1,2,-2,0,2021-08-07 12:45:44,997082
-1,-2,-4,3,8,0,-1,-1,2021-08-07 12:45:44,997082
0,-1,1,-1,-4,-3,-2,-2,2021-08-07 12:45:45,012083
0,-2,0,-4,-8,-5,-2,-1,2021-08-07 12:45:45,012083
0,0,-1,0,-4,-5,-1,0,2021-08-07 12:45:45,012083
1,-1,-2,1,1,4,1,-1,2021-08-07 12:45:45,012083
0,1,2,3,3,2,0,1,2021-08-07 12:45:45,043082
-2,-2,-1,3,-4,-2,-2,-4,2021-08-07 12:45:45,059082
-5,-4,-6,-10,-11,-9,-5,-6,2021-08-07 12:45:45,059082
1,2,1,2,6,2,1,3,2021-08-07 12:45:45,059082
4,5,8,5,3,8,5,4,2021-08-07 12:45:45,059082
-1,-3,-1,-1,-4,-4,-2,-3,2021-08-07 12:45:45,059082
-1,0,-3,-1,-2,0,-1,0,2021-08-07 12:45:45,075085
-2,-5,-7,-7,-5,-2,-3,-2,2021-08-07 12:45:45,075085
2,5,7,7,0,-3,0,1,2021-08-07 12:45:45,075085
0,-1,-2,-10,-5,0,-1,0,2021-08-07 12:45:45,075085
0,1,0,1,-3,0,0,0,2021-08-07 12:45:45,076084
-2,0,3,10,4,-1,0,-1,2021-08-07 12:45:45,076084
-1,-3,-4,-9,-13,-11,-5,-2,2021-08-07 12:45:45,107082
-2,-1,-4,-14,-18,-9,-4,-4,2021-08-07 12:45:45,123081
4,3,7,4,18,12,6,2,2021-08-07 12:45:45,123081
-4,-4,-9,-13,-13,-7,-4,-5,2021-08-07 12:45:45,123081
-1,-3,-5,7,15,10,5,0,2021-08-07 12:45:45,123081
0,-2,1,3,-5,-8,-3,-1,2021-08-07 12:45:45,123081
-6,-8,-7,-13,-23,-14,-9,-4,2021-08-07 12:45:45,123081
2,0,7,7,8,6,3,1,2021-08-07 12:45:45,124083
1,4,3,1,0,-2,0,0,2021-08-07 12:45:45,139081
4,5,3,13,19,10,7,5,2021-08-07 12:45:45,155085
0,1,3,7,8,4,3,0,2021-08-07 12:45:45,171082
-3,-3,-4,-5,-8,-3,-3,-2,2021-08-07 12:45:45,171082
-3,-4,-5,-10,-9,-9,-6,-2,2021-08-07 12:45:45,171082
1,2,3,-1,1,3,1,1,2021-08-07 12:45:45,171082
-2,-1,-4,-7,-12,-8,-4,-2,2021-08-07 12:45:45,171082
2,1,0,4,14,10,4,3,2021-08-07 12:45:45,171082
-1,-1,0,2,1,1,-1,0,2021-08-07 12:45:45,171082
-2,-2,-1,-1,3,2,1,-1,2021-08-07 12:45:45,172083
-3,-2,-4,-4,-11,-9,-4,-1,2021-08-07 12:45:45,186083
-5,-6,-8,-25,-35,-22,-12,-7,2021-08-07 12:45:45,186083
4,2,3,18,32,23,11,6,2021-08-07 12:45:45,186083
4,7,4,10,15,9,5,3,2021-08-07 12:45:45,186083
2,3,1,0,-4,-4,-2,0,2021-08-07 12:45:45,201083
1,2,3,0,0,-1,0,0,2021-08-07 12:45:45,217083
-5,-5,-5,-10,-24,-17,-8,-4,2021-08-07 12:45:45,217083
-2,-4,-3,0,5,3,1,-1,2021-08-07 12:45:45,217083
-2,-4,-3,5,12,7,4,-2,2021-08-07 12:45:45,217083
0,0,-4,-5,-8,-5,-3,0,2021-08-07 12:45:45,217083
-1,-2,-3,-9,-7,-5,-2,-2,2021-08-07 12:45:45,249081
0,-2,-1,-1,-2,-2,-1,1,2021-08-07 12:45:45,249081
0,1,4,5,8,4,2,1,2021-08-07 12:45:45,249081
-2,-2,-1,0,-2,-3,-1,-3,2021-08-07 12:45:45,249081
-2,-2,-1,3,4,2,-1,-4,2021-08-07 12:45:45,249081
1,3,0,-8,-9,-4,-1,1,2021-08-07 12:45:45,249081
-1,0,0,-4,-5,-4,-4,-1,2021-08-07 12:45:45,281082
1,1,7,1,1,3,2,2,2021-08-07 12:45:45,281082
3,1,-2,13,11,5,2,0,2021-08-07 12:45:45,281082
-3,-6,-7,0,1,-1,-2,-2,2021-08-07 12:45:45,281082
0,1,1,-4,-5,-5,-2,-1,2021-08-07 12:45:45,281082
-5,-4,-5,-5,-4,-1,-2,-4,2021-08-07 12:45:45,281082
1,0,1,-15,-11,-4,-2,1,2021-08-07 12:45:45,297083
0,1,2,7,11,10,3,-1,2021-08-07 12:45:45,297083
0,0,-1,2,-1,-3,-3,-1,2021-08-07 12:45:45,297083
1,1,4,7,7,3,2,1,2021-08-07 12:45:45,297083
-3,-2,-4,-8,-8,-7,-4,-2,2021-08-07 12:45:45,313082
-1,-3,-5,-8,-13,-8,-4,-2,2021-08-07 12:45:45,313082
3,1,1,5,7,6,2,2,2021-08-07 12:45:45,313082
0,0,-6,-1,0,0,1,1,2021-08-07 12:45:45,313082
-3,-3,-1,-6,-14,-7,-2,-1,2021-08-07 12:45:45,329082
-4,-5,-3,-3,-8,-5,-3,-3,2021-08-07 12:45:45,344082
-2,0,2,9,18,12,6,1,2021-08-07 12:45:45,359082
0,0,0,0,5,4,1,-1,2021-08-07 12:45:45,359082
-1,1,2,1,1,-1,-3,-1,2021-08-07 12:45:45,359082
-2,-2,-2,-10,-19,-14,-8,-4,2021-08-07 12:45:45,359082
-1,-4,-5,-10,-7,-4,-1,-2,2021-08-07 12:45:45,359082
1,-1,-3,2,-2,0,-1,1,2021-08-07 12:45:45,359082
2,4,5,10,17,11,5,2,2021-08-07 12:45:45,375082
4,8,6,7,11,6,3,4,2021-08-07 12:45:45,391081
-1,-2,-5,-3,-9,-7,-3,-3,2021-08-07 12:45:45,406082
-1,2,-2,-2,-6,-5,-2,-2,2021-08-07 12:45:45,406082
-5,-6,-6,-7,-11,-6,-3,-3,2021-08-07 12:45:45,406082
-1,-3,-1,2,4,3,0,-1,2021-08-07 12:45:45,406082
0,0,-3,-4,-2,0,-3,0,2021-08-07 12:45:45,406082
-1,-3,-1,-1,-4,-4,-3,-3,2021-08-07 12:45:45,407082
3,0,-2,-4,4,5,3,2,2021-08-07 12:45:45,422083
0,0,0,3,3,3,1,0,2021-08-07 12:45:45,438081
2,3,3,4,10,7,4,2,2021-08-07 12:45:45,454081
0,-1,1,3,1,-2,-2,-1,2021-08-07 12:45:45,470082
-3,-2,-1,-4,-13,-9,-6,-4,2021-08-07 12:45:45,486083
-4,-7,-5,-2,-9,-7,-4,-4,2021-08-07 12:45:45,486083
3,2,5,3,1,1,2,3,2021-08-07 12:45:45,486083
4,5,5,14,22,17,10,6,2021-08-07 12:45:45,486083
2,4,2,11,14,8,4,3,2021-08-07 12:45:45,486083
-1,-2,2,-8,5,2,-2,-1,2021-08-07 12:45:45,486083
-6,-7,-6,-5,-8,-9,-6,-5,2021-08-07 12:45:45,486083
-2,-3,-9,-6,-11,-9,-5,-3,2021-08-07 12:45:45,487082
0,-1,-1,-2,-3,-1,-2,-2,2021-08-07 12:45:45,487082
0,1,-2,1,2,4,2,1,2021-08-07 12:45:45,487082
-1,0,3,-3,-7,-5,-2,-3,2021-08-07 12:45:45,487082
0,-1,3,-8,-8,-5,-1,-1,2021-08-07 12:45:45,487082
0,1,1,13,10,3,1,1,2021-08-07 12:45:45,487082
1,1,1,-1,-4,-2,-1,0,2021-08-07 12:45:45,487082
-2,-3,-4,-7,1,0,-1,0,2021-08-07 12:45:45,502081
-3,-3,-3,1,2,2,1,-1,2021-08-07 12:45:45,502081
-2,-3,0,-4,-1,-1,-2,-2,2021-08-07 12:45:45,518082
1,3,5,12,6,2,1,1,2021-08-07 12:45:45,534082
0,1,-4,-2,-4,-1,1,1,2021-08-07 12:45:45,550081
-5,-4,-3,-6,-11,-9,-7,-5,2021-08-07 12:45:45,550081
-1,-2,-1,-9,-14,-6,0,0,2021-08-07 12:45:45,550081
2,2,3,3,8,4,2,2,2021-08-07 12:45:45,550081
-1,1,0,11,12,9,2,-1,2021-08-07 12:45:45,550081
3,5,5,11,23,12,5,3,2021-08-07 12:45:45,550081
-1,-6,-5,-9,-12,-9,-4,-4,2021-08-07 12:45:45,566082
-2,-1,-3,-12,-13,-5,0,-1,2021-08-07 12:45:45,566082
-2,-4,-5,-11,-19,-9,-4,-3,2021-08-07 12:45:45,566082
0,1,2,7,13,6,0,1,2021-08-07 12:45:45,567083
-1,1,-1,10,8,3,0,1,2021-08-07 12:45:45,582082
2,4,3,1,8,5,3,2,2021-08-07 12:45:45,582082
-3,-1,-1,-1,-1,-2,-2,-2,2021-08-07 12:45:45,582082
-1,-2,-1,-2,-6,-4,-1,0,2021-08-07 12:45:45,582082
-3,-4,-4,-12,-12,-6,-4,-2,2021-08-07 12:45:45,597083
-3,-4,2,-8,-13,-7,-6,-3,2021-08-07 12:45:45,597083
3,1,-7,10,12,5,2,3,2021-08-07 12:45:45,597083
-4,-4,-2,-8,-14,-7,-3,-3,2021-08-07 12:45:45,597083
3,4,5,10,17,7,4,2,2021-08-07 12:45:45,629081
-1,0,2,4,5,4,1,-3,2021-08-07 12:45:45,629081
0,-1,4,-4,-5,-4,0,-1,2021-08-07 12:45:45,629081
0,0,-3,2,2,0,0,1,2021-08-07 12:45:45,629081
-4,-6,-4,-17,-20,-13,-6,-5,2021-08-07 12:45:45,644081
1,0,0,9,11,4,1,0,2021-08-07 12:45:45,644081
1,0,2,-1,-1,-1,0,-1,2021-08-07 12:45:45,644081
2,2,1,-4,0,0,0,1,2021-08-07 12:45:45,644081
0,1,2,7,8,8,3,1,2021-08-07 12:45:45,659083
-5,-6,-9,-13,-19,-12,-7,-4,2021-08-07 12:45:45,659083
2,1,0,4,12,7,4,0,2021-08-07 12:45:45,659083
0,1,6,5,-1,-4,-1,1,2021-08-07 12:45:45,659083
-1,2,1,4,5,2,0,0,2021-08-07 12:45:45,685083
-5,-5,-7,-7,-14,-8,-5,-4,2021-08-07 12:45:45,685083
-3,-1,-1,-10,-20,-12,-7,-2,2021-08-07 12:45:45,685083
2,3,4,11,25,17,9,2,2021-08-07 12:45:45,686083
-1,-1,1,6,8,3,1,-1,2021-08-07 12:45:45,707083
0,1,1,0,-3,-4,-1,1,2021-08-07 12:45:45,707083
-3,-4,-2,-4,-4,-4,-5,-2,2021-08-07 12:45:45,707083
-5,-5,-8,-15,-21,-12,-8,-5,2021-08-07 12:45:45,707083
3,2,2,7,12,10,5,5,2021-08-07 12:45:45,723082
-1,-3,-3,-9,-13,-11,-5,-2,2021-08-07 12:45:45,723082
0,0,2,9,19,12,5,2,2021-08-07 12:45:45,723082
0,1,-1,2,3,-1,-1,0,2021-08-07 12:45:45,723082
-1,-2,-5,-11,-17,-8,-5,-3,2021-08-07 12:45:45,739084
-3,-5,-3,1,11,2,-1,-3,2021-08-07 12:45:45,739084
2,6,3,1,-4,-1,1,2,2021-08-07 12:45:45,739084
0,-3,-3,4,8,6,2,1,2021-08-07 12:45:45,739084
3,4,6,-2,-5,-4,-1,3,2021-08-07 12:45:45,755083
-2,-3,-5,-3,-9,-6,-2,-2,2021-08-07 12:45:45,755083
-7,-7,-6,-6,-10,-4,-6,-5,2021-08-07 12:45:45,755083
3,6,4,0,1,0,2,2,2021-08-07 12:45:45,755083
-4,1,-2,-8,-5,-5,-5,-2,2021-08-07 12:45:45,787082
2,1,2,1,4,3,4,1,2021-08-07 12:45:45,787082
-2,-7,-6,0,3,1,-1,-2,2021-08-07 12:45:45,787082
-2,0,0,-7,-11,-5,-2,-2,2021-08-07 12:45:45,787082
-4,-4,-5,-6,-14,-6,-4,-3,2021-08-07 12:45:45,803084
1,0,0,9,14,6,3,-1,2021-08-07 12:45:45,803084
1,5,4,-2,-6,-4,-2,2,2021-08-07 12:45:45,803084
1,-2,0,-5,-6,-1,-2,-2,2021-08-07 12:45:45,803084
-5,-4,-2,2,3,-3,-2,-5,2021-08-07 12:45:45,819082
0,2,4,6,7,7,5,2,2021-08-07 12:45:45,835083
2,4,3,3,4,2,2,2,2021-08-07 12:45:45,866084
-1,-2,-2,-1,-11,-7,-5,0,2021-08-07 12:45:45,882082
0,-2,-2,-4,5,5,0,-3,2021-08-07 12:45:45,882082
1,-1,-4,-7,-7,-3,-2,1,2021-08-07 12:45:45,882082
1,2,4,11,21,12,5,2,2021-08-07 12:45:45,882082
-4,-3,-2,-7,-14,-9,-6,-3,2021-08-07 12:45:45,882082
-5,-7,-9,-19,-28,-16,-8,-6,2021-08-07 12:45:45,882082
2,4,1,12,23,11,5,4,2021-08-07 12:45:45,882082
2,3,4,0,-4,1,1,1,2021-08-07 12:45:45,882082
-1,-1,0,10,22,10,4,-1,2021-08-07 12:45:45,883083
4,5,5,3,1,0,0,1,2021-08-07 12:45:45,883083
-4,-5,-5,-18,-22,-12,-8,-5,2021-08-07 12:45:45,883083
-1,-2,-3,-9,-17,-13,-6,-2,2021-08-07 12:45:45,883083
-2,-4,-4,-4,-4,-1,-2,-2,2021-08-07 12:45:45,883083
1,1,2,16,30,15,6,3,2021-08-07 12:45:45,914083
-2,-3,-4,-12,-16,-13,-8,-3,2021-08-07 12:45:45,930082
-1,-1,1,8,7,5,2,-2,2021-08-07 12:45:45,930082
-1,-3,-4,-7,-17,-10,-3,-1,2021-08-07 12:45:45,930082
-1,1,0,-5,3,3,1,1,2021-08-07 12:45:45,930082
0,3,2,7,8,5,4,1,2021-08-07 12:45:45,930082
-6,-6,-6,-9,-17,-13,-7,-4,2021-08-07 12:45:45,930082
0,-1,-2,2,5,4,0,-1,2021-08-07 12:45:45,931083
0,1,0,-1,-5,-3,-2,1,2021-08-07 12:45:45,931083
0,-1,1,1,3,5,1,1,2021-08-07 12:45:45,931083
1,0,-1,4,10,5,1,0,2021-08-07 12:45:45,931083
0,0,-3,-7,-7,-8,-4,-2,2021-08-07 12:45:45,931083
-1,-4,-4,-4,-7,-4,-2,-1,2021-08-07 12:45:45,962084
4,6,5,10,5,5,2,1,2021-08-07 12:45:45,978083
-2,-1,-1,-7,-16,-8,-1,-2,2021-08-07 12:45:45,978083
-5,-5,-3,-1,3,0,-2,-2,2021-08-07 12:45:45,978083
-1,-1,-3,3,11,6,1,0,2021-08-07 12:45:45,978083
4,8,9,2,-2,0,2,2,2021-08-07 12:45:45,978083
1,0,1,8,14,6,3,1,2021-08-07 12:45:45,978083
-1,-2,-2,-6,-3,-4,-3,-2,2021-08-07 12:45:45,978083
0,0,1,1,-7,-7,-3,0,2021-08-07 12:45:45,994082
-2,-5,-7,-7,-4,0,-1,-1,2021-08-07 12:45:45,994082
-2,-2,-3,-5,0,-3,-2,-1,2021-08-07 12:45:45,994082
0,1,1,2,2,4,4,-1,2021-08-07 12:45:45,994082
-2,-2,2,10,11,4,1,0,2021-08-07 12:45:46,026084
2,-1,4,6,5,4,1,0,2021-08-07 12:45:46,041084
-3,-1,-3,-7,-8,-4,-3,-1,2021-08-07 12:45:46,041084
2,-1,0,-1,2,2,1,2,2021-08-07 12:45:46,041084
-8,-12,-14,-27,-37,-24,-14,-10,2021-08-07 12:45:46,041084
-1,-1,1,10,13,7,2,0,2021-08-07 12:45:46,041084
4,9,6,6,6,2,2,2,2021-08-07 12:45:46,041084
-1,-1,2,2,3,4,-1,0,2021-08-07 12:45:46,041084
-1,1,1,5,6,6,2,-1,2021-08-07 12:45:46,057082
-2,-1,0,-9,-14,-9,-6,-2,2021-08-07 12:45:46,073083
1,-1,0,0,4,4,4,2,2021-08-07 12:45:46,073083
-1,3,1,3,4,0,-2,-1,2021-08-07 12:45:46,073083
1,-1,0,3,2,2,1,0,2021-08-07 12:45:46,073083
-3,-3,-8,-7,-10,-9,-5,-4,2021-08-07 12:45:46,073083
-1,-4,-2,-7,-7,-4,-4,-2,2021-08-07 12:45:46,073083
1,4,4,7,14,7,5,4,2021-08-07 12:45:46,073083
3,3,2,-1,3,2,4,2,2021-08-07 12:45:46,115082
-2,-2,0,1,-5,0,0,-1,2021-08-07 12:45:46,115082
-3,-4,-4,4,9,3,-1,-1,2021-08-07 12:45:46,116083
-6,-8,-9,-16,-26,-18,-11,-7,2021-08-07 12:45:46,116083
1,2,2,-1,-3,4,0,-1,2021-08-07 12:45:46,116083
5,6,5,14,23,11,6,3,2021-08-07 12:45:46,116083
-2,-3,-4,-5,-7,-3,-3,-4,2021-08-07 12:45:46,116083
-1,-5,-5,-6,-5,-4,-2,-2,2021-08-07 12:45:46,117082
1,6,6,7,6,4,3,1,2021-08-07 12:45:46,137081
-4,-5,-7,-4,2,-2,-3,-2,2021-08-07 12:45:46,153081
1,2,2,3,3,2,1,3,2021-08-07 12:45:46,153081
-1,-2,-2,-2,-5,-2,-3,-1,2021-08-07 12:45:46,153081
-2,-1,-2,-5,-13,-8,-5,-1,2021-08-07 12:45:46,169081
0,0,0,2,10,11,6,1,2021-08-07 12:45:46,169081
-4,-7,-8,-7,1,-2,-2,-3,2021-08-07 12:45:46,169081
1,3,6,4,4,0,3,0,2021-08-07 12:45:46,169081
0,0,0,-2,-6,-3,-1,0,2021-08-07 12:45:46,169081
2,3,3,10,18,8,5,2,2021-08-07 12:45:46,169081
0,-1,-3,-6,-10,-6,-4,0,2021-08-07 12:45:46,170083
-1,1,0,3,2,2,1,0,2021-08-07 12:45:46,170083
-3,-3,-5,-9,-16,-12,-5,-1,2021-08-07 12:45:46,216082
-1,-3,-4,-1,-6,-2,0,-1,2021-08-07 12:45:46,232080
0,2,4,9,23,14,7,3,2021-08-07 12:45:46,232080
-2,-2,-1,1,3,1,-1,-1,2021-08-07 12:45:46,232080
-4,-5,-4,-6,-4,-5,-4,-5,2021-08-07 12:45:46,232080
-4,-5,-3,-12,-17,-14,-9,-5,2021-08-07 12:45:46,232080
3,5,4,3,-4,-2,2,2,2021-08-07 12:45:46,232080
0,3,4,11,21,11,3,1,2021-08-07 12:45:46,232080
5,5,5,12,13,6,4,3,2021-08-07 12:45:46,233082
-2,-5,-7,-2,0,0,-2,-1,2021-08-07 12:45:46,233082
0,-1,-2,-9,-15,-10,-3,-2,2021-08-07 12:45:46,233082
-2,-6,-5,-17,-14,-7,-4,-3,2021-08-07 12:45:46,233082
-4,-3,-3,-5,-8,-3,-3,-4,2021-08-07 12:45:46,264082
-1,1,0,0,-1,-2,-2,-2,2021-08-07 12:45:46,264082
0,1,2,15,17,11,3,-1,2021-08-07 12:45:46,264082
-1,-2,-3,-4,-4,-3,-4,-2,2021-08-07 12:45:46,264082
0,0,1,1,3,-1,-1,0,2021-08-07 12:45:46,280082
-2,-1,1,0,2,-1,-2,-2,2021-08-07 12:45:46,296081
2,4,5,12,14,8,2,4,2021-08-07 12:45:46,296081
-1,1,-3,1,-3,-1,0,-3,2021-08-07 12:45:46,296081
0,-3,-3,-6,-1,-1,-3,-1,2021-08-07 12:45:46,296081
-3,-1,-3,-3,-11,-7,-5,-2,2021-08-07 12:45:46,296081
-3,-6,-4,-9,-13,-8,-6,-4,2021-08-07 12:45:46,296081
-2,-1,-2,-7,-11,-7,-4,-2,2021-08-07 12:45:46,296081
1,0,0,2,3,4,1,1,2021-08-07 12:45:46,312082
0,-3,-3,-3,-1,-2,1,-2,2021-08-07 12:45:46,312082
-1,-3,-2,-7,-8,-5,-3,-2,2021-08-07 12:45:46,312082
1,2,4,8,6,2,2,2,2021-08-07 12:45:46,312082
-2,-4,-3,0,3,0,2,0,2021-08-07 12:45:46,343083
-2,-3,-2,-6,-5,-1,-2,-2,2021-08-07 12:45:46,343083
0,1,-1,-8,-10,-6,-2,-1,2021-08-07 12:45:46,343083
0,0,1,3,9,4,1,0,2021-08-07 12:45:46,359083
-1,2,1,2,0,2,0,2,2021-08-07 12:45:46,359083
1,2,1,0,1,3,2,1,2021-08-07 12:45:46,359083
-2,-7,-7,-2,-4,-3,-1,-4,2021-08-07 12:45:46,359083
2,2,0,-1,1,1,1,1,2021-08-07 12:45:46,359083
0,1,2,5,7,4,2,0,2021-08-07 12:45:46,391082
3,4,5,6,10,2,2,2,2021-08-07 12:45:46,391082
-6,-6,-8,-16,-23,-15,-9,-6,2021-08-07 12:45:46,391082
1,0,-1,14,17,11,5,1,2021-08-07 12:45:46,391082
1,-2,0,-3,-4,-3,-2,-2,2021-08-07 12:45:46,407083
0,0,0,-5,-7,-2,-3,0,2021-08-07 12:45:46,423081
1,1,2,3,3,0,1,1,2021-08-07 12:45:46,439083
0,0,-1,5,16,11,3,1,2021-08-07 12:45:46,455084
0,2,0,-4,0,-2,0,1,2021-08-07 12:45:46,455084
-1,-3,-1,-6,-11,-7,-3,-2,2021-08-07 12:45:46,455084
-2,-3,-3,-4,-6,-5,-4,-3,2021-08-07 12:45:46,455084
-4,-6,-9,-15,-18,-13,-7,-3,2021-08-07 12:45:46,455084
2,5,6,9,13,9,6,1,2021-08-07 12:45:46,471083
0,0,-1,-1,-1,1,0,1,2021-08-07 12:45:46,471083
4,6,8,19,23,16,9,5,2021-08-07 12:45:46,471083
-2,-1,-2,-12,-13,-9,-4,-3,2021-08-07 12:45:46,471083
-4,-5,-6,-6,-6,-5,-3,-1,2021-08-07 12:45:46,471083
-2,-4,-4,-6,-10,-8,-5,-2,2021-08-07 12:45:46,471083
-4,-4,-4,-1,-1,-1,-3,-3,2021-08-07 12:45:46,471083
3,4,7,6,2,2,2,0,2021-08-07 12:45:46,472083
1,1,0,2,7,1,1,0,2021-08-07 12:45:46,472083
-2,-4,-3,-7,-16,-8,-4,-4,2021-08-07 12:45:46,472083
0,-3,-1,4,14,9,3,1,2021-08-07 12:45:46,487081
-3,-2,-1,-2,-6,-4,-3,-2,2021-08-07 12:45:46,487081
1,1,1,2,0,1,0,1,2021-08-07 12:45:46,503081
2,3,2,9,17,10,4,1,2021-08-07 12:45:46,503081
-3,-1,-2,-9,-12,-9,-6,-4,2021-08-07 12:45:46,503081
0,-3,-3,-2,-6,-4,-2,0,2021-08-07 12:45:46,503081
-2,-3,-5,-7,-4,-2,-2,-2,2021-08-07 12:45:46,534082
-2,-1,-4,-8,-16,-8,-4,-2,2021-08-07 12:45:46,544083
2,3,2,0,-4,-3,-2,1,2021-08-07 12:45:46,544083
0,-2,1,7,12,7,5,1,2021-08-07 12:45:46,544083
-4,-4,-2,5,4,-1,-2,-4,2021-08-07 12:45:46,544083
0,0,-2,-2,3,-1,1,1,2021-08-07 12:45:46,545083
0,2,2,-3,-2,0,1,0,2021-08-07 12:45:46,545083
-2,0,-1,-3,-11,-8,-4,-2,2021-08-07 12:45:46,545083
