EMG 1,EMG 2,EMG 3,EMG 4,EMG 5,EMG 6,EMG 7,EMG 8,Timestamp,Milliseconds
-3,-3,-4,-3,-5,-5,-2,-3,2021-08-07 12:44:59,807798
1,2,2,2,3,2,3,1,2021-08-07 12:44:59,822794
-4,-4,-4,-2,-2,-1,-2,-3,2021-08-07 12:44:59,838794
0,1,3,3,1,-1,0,1,2021-08-07 12:44:59,838794
0,0,0,1,0,1,0,1,2021-08-07 12:44:59,838794
-3,-3,-2,2,4,1,-1,-3,2021-08-07 12:44:59,838794
2,4,2,2,7,5,1,1,2021-08-07 12:44:59,838794
1,-2,-2,-2,-6,-4,-1,-1,2021-08-07 12:44:59,838794
0,0,1,0,1,2,1,-1,2021-08-07 12:44:59,838794
-3,-4,-5,-6,-10,-7,-4,-2,2021-08-07 12:44:59,838794
-2,-1,-2,-2,-4,-2,-2,-1,2021-08-07 12:44:59,838794
0,-1,0,1,1,0,-1,-1,2021-08-07 12:44:59,839797
-1,0,-1,-3,-4,-4,-3,0,2021-08-07 12:44:59,839797
-2,-4,-3,-5,-5,-2,-1,-1,2021-08-07 12:44:59,839797
-3,-5,-4,-5,-7,-6,-4,-1,2021-08-07 12:44:59,839797
2,2,1,4,9,10,5,2,2021-08-07 12:44:59,839797
2,5,4,7,6,4,3,1,2021-08-07 12:44:59,839797
0,1,2,1,3,-1,0,-1,2021-08-07 12:44:59,839797
1,1,-1,-1,-2,-1,1,0,2021-08-07 12:44:59,839797
-4,-5,-8,-6,-9,-7,-4,-3,2021-08-07 12:44:59,840796
3,4,3,4,8,5,3,4,2021-08-07 12:44:59,854796
-2,0,-2,1,4,0,1,1,2021-08-07 12:44:59,854796
-3,-1,-1,-2,-4,-3,-4,-2,2021-08-07 12:44:59,870796
-2,-1,-2,-3,-2,-3,-3,-1,2021-08-07 12:44:59,870796
-1,-2,-1,0,0,0,0,-1,2021-08-07 12:44:59,870796
0,-1,-3,-6,-6,-3,-3,-1,2021-08-07 12:44:59,870796
1,-1,-3,-3,-2,-1,0,1,2021-08-07 12:44:59,918797
1,2,3,9,12,6,4,1,2021-08-07 12:44:59,918797
-2,1,0,-2,0,-3,-4,-2,2021-08-07 12:44:59,918797
-2,0,-2,-5,-11,-5,-2,0,2021-08-07 12:44:59,918797
0,-1,2,2,5,2,2,0,2021-08-07 12:44:59,918797
-1,-4,-5,-9,-11,-7,-3,-1,2021-08-07 12:44:59,918797
-1,-3,-3,-2,-4,-2,-2,-2,2021-08-07 12:44:59,918797
0,0,0,2,3,-1,-1,-1,2021-08-07 12:44:59,918797
-2,-2,-2,-7,-11,-5,-4,-3,2021-08-07 12:44:59,934795
-2,-1,1,4,8,6,2,0,2021-08-07 12:44:59,934795
3,5,5,7,9,5,3,2,2021-08-07 12:44:59,934795
0,0,0,1,1,1,1,1,2021-08-07 12:44:59,934795
-3,-6,-7,-4,-5,-4,-4,-3,2021-08-07 12:44:59,934795
3,4,5,3,3,-1,-1,0,2021-08-07 12:44:59,934795
-4,-7,-4,-9,-10,-8,-5,-4,2021-08-07 12:44:59,950797
0,0,0,-1,-2,-2,1,-1,2021-08-07 12:44:59,965795
3,7,6,6,2,4,3,5,2021-08-07 12:44:59,965795
-4,-6,-5,-5,-3,-2,-4,-4,2021-08-07 12:44:59,965795
-1,-2,-4,-3,-8,-3,-2,-1,2021-08-07 12:44:59,981795
1,2,3,7,9,5,2,1,2021-08-07 12:44:59,981795
-1,-1,0,1,4,0,1,1,2021-08-07 12:44:59,997796
-1,-2,-5,-6,-7,-4,-4,-1,2021-08-07 12:44:59,997796
-1,-2,-1,-1,3,2,0,-1,2021-08-07 12:44:59,997796
-2,-3,-3,0,3,-1,0,0,2021-08-07 12:44:59,997796
2,2,-1,-1,1,1,1,0,2021-08-07 12:44:59,997796
-1,-2,0,-2,-6,-4,-4,-2,2021-08-07 12:44:59,997796
1,1,0,0,0,0,0,0,2021-08-07 12:45:00,029796
0,0,1,-2,0,0,-1,-1,2021-08-07 12:45:00,044798
0,4,2,1,4,1,2,0,2021-08-07 12:45:00,059796
-4,-6,-6,-10,-19,-15,-6,-4,2021-08-07 12:45:00,075797
-4,-11,-10,-4,3,5,1,-2,2021-08-07 12:45:00,091796
9,15,16,13,14,10,8,6,2021-08-07 12:45:00,107795
0,0,0,2,2,3,0,-1,2021-08-07 12:45:00,123795
1,4,3,5,13,7,4,2,2021-08-07 12:45:00,123795
-5,-5,-5,-4,-8,-7,-3,-5,2021-08-07 12:45:00,123795
-4,-5,-3,-6,-9,-6,-5,-5,2021-08-07 12:45:00,139795
0,-2,-1,-3,-2,-2,-1,-1,2021-08-07 12:45:00,139795
-1,-1,-1,-3,-7,-2,0,0,2021-08-07 12:45:00,139795
1,2,2,2,3,1,0,0,2021-08-07 12:45:00,139795
-2,-4,-7,-6,-4,-3,-2,-3,2021-08-07 12:45:00,139795
0,-1,0,0,-3,-1,-1,0,2021-08-07 12:45:00,139795
-2,-5,-4,-1,2,1,-2,-2,2021-08-07 12:45:00,140796
4,5,4,0,-1,0,2,3,2021-08-07 12:45:00,140796
-2,-3,-2,1,4,0,-3,0,2021-08-07 12:45:00,140796
-1,0,1,1,1,-1,2,0,2021-08-07 12:45:00,140796
0,3,-1,1,-2,-3,0,0,2021-08-07 12:45:00,140796
-4,-2,-2,-2,-5,-6,-5,-3,2021-08-07 12:45:00,140796
-6,-9,-8,-13,-15,-8,-5,-5,2021-08-07 12:45:00,140796
-1,-3,-5,-3,-1,2,-1,0,2021-08-07 12:45:00,141797
5,8,7,11,17,12,6,4,2021-08-07 12:45:00,141797
0,2,3,6,3,1,-1,2,2021-08-07 12:45:00,141797
1,-1,-2,-2,-4,-2,-2,-2,2021-08-07 12:45:00,141797
-5,-4,-4,-3,-7,-7,-4,-4,2021-08-07 12:45:00,141797
-5,-5,-5,-9,-10,-5,-4,-4,2021-08-07 12:45:00,141797
2,4,1,-3,-9,-7,-1,2,2021-08-07 12:45:00,171796
1,0,1,10,20,11,5,2,2021-08-07 12:45:00,171796
2,1,0,2,4,4,4,2,2021-08-07 12:45:00,171796
0,-2,-2,-2,0,0,0,-1,2021-08-07 12:45:00,171796
-3,-4,0,4,5,3,0,-2,2021-08-07 12:45:00,171796
-5,-3,-3,-6,-9,-6,-5,-3,2021-08-07 12:45:00,171796
-1,1,3,-5,-8,-6,-3,-1,2021-08-07 12:45:00,202798
-1,2,3,8,6,2,-1,-1,2021-08-07 12:45:00,202798
-2,-1,-4,-8,-10,-7,-4,-1,2021-08-07 12:45:00,202798
3,2,2,8,14,7,5,3,2021-08-07 12:45:00,202798
0,1,-2,0,2,1,-1,0,2021-08-07 12:45:00,202798
-3,-6,-5,-10,-10,-8,-4,-3,2021-08-07 12:45:00,202798
0,0,1,0,1,2,0,-1,2021-08-07 12:45:00,233796
2,2,-2,-5,-10,-5,-2,0,2021-08-07 12:45:00,233796
2,1,4,9,11,5,1,1,2021-08-07 12:45:00,248798
-2,-2,-1,-3,-4,-4,-3,-2,2021-08-07 12:45:00,264797
-2,-3,-4,-6,-8,-5,-4,-3,2021-08-07 12:45:00,264797
0,-1,-1,1,4,5,3,1,2021-08-07 12:45:00,264797
2,3,1,5,10,7,3,2,2021-08-07 12:45:00,264797
1,-1,0,-1,-1,0,0,-1,2021-08-07 12:45:00,264797
-2,-2,-2,1,0,-3,-2,-3,2021-08-07 12:45:00,265797
-2,-2,-5,-5,-10,-6,-3,-2,2021-08-07 12:45:00,265797
-2,-2,0,1,-2,-1,-3,-2,2021-08-07 12:45:00,265797
2,5,3,3,4,4,1,0,2021-08-07 12:45:00,265797
-2,-1,-2,-4,-2,-3,-1,-2,2021-08-07 12:45:00,296797
-1,-3,-1,-3,-6,-7,-1,0,2021-08-07 12:45:00,312796
0,1,1,1,3,0,0,-1,2021-08-07 12:45:00,312796
-2,-4,-2,0,0,-2,-1,-1,2021-08-07 12:45:00,312796
0,0,2,3,1,1,0,-1,2021-08-07 12:45:00,312796
0,1,-2,-2,-3,-1,-2,0,2021-08-07 12:45:00,312796
0,-2,-3,0,1,2,2,-1,2021-08-07 12:45:00,327797
-1,2,0,0,-1,0,1,2,2021-08-07 12:45:00,327797
-3,-4,-4,-6,-6,-1,-1,-2,2021-08-07 12:45:00,327797
1,2,3,4,1,-1,0,0,2021-08-07 12:45:00,327797
2,3,2,2,4,5,1,2,2021-08-07 12:45:00,327797
0,1,-1,1,1,0,1,1,2021-08-07 12:45:00,327797
-2,-1,-2,1,4,2,1,-1,2021-08-07 12:45:00,344796
-3,-3,-3,-11,-17,-9,-4,-1,2021-08-07 12:45:00,344796
-3,-2,-4,-1,-4,-4,-3,-2,2021-08-07 12:45:00,344796
3,3,3,7,12,9,4,2,2021-08-07 12:45:00,344796
1,0,0,0,-2,-3,-2,0,2021-08-07 12:45:00,360796
-3,-2,-4,-1,3,2,-1,-1,2021-08-07 12:45:00,360796
-1,-3,-3,-6,-11,-7,-3,0,2021-08-07 12:45:00,360796
-3,-3,-3,-3,-8,-7,-4,-2,2021-08-07 12:45:00,360796
1,1,-1,1,-2,0,0,1,2021-08-07 12:45:00,391795
3,5,7,10,18,14,6,2,2021-08-07 12:45:00,407796
-4,-5,-7,-10,-15,-10,-5,-4,2021-08-07 12:45:00,423795
3,3,3,6,6,5,2,1,2021-08-07 12:45:00,423795
-1,0,2,-1,0,-1,-1,-1,2021-08-07 12:45:00,423795
-2,0,0,-3,-4,-4,-1,-1,2021-08-07 12:45:00,423795
0,2,1,-3,-2,-2,-2,0,2021-08-07 12:45:00,423795
-3,-3,-3,-3,-4,-4,-2,-2,2021-08-07 12:45:00,423795
1,0,-1,2,2,1,-1,0,2021-08-07 12:45:00,423795
-1,-2,-2,1,-1,-1,-1,-3,2021-08-07 12:45:00,423795
-2,-3,-3,-1,-1,-1,-1,-3,2021-08-07 12:45:00,423795
-1,-2,0,-4,-5,-1,0,0,2021-08-07 12:45:00,424797
-2,-1,-1,-3,4,4,1,0,2021-08-07 12:45:00,454796
0,0,0,4,3,2,1,0,2021-08-07 12:45:00,454796
0,0,1,2,2,0,-1,0,2021-08-07 12:45:00,454796
-2,-3,-3,-7,-7,-6,-2,-3,2021-08-07 12:45:00,454796
-1,-2,-2,-4,-6,-3,0,-1,2021-08-07 12:45:00,470796
0,-2,-1,-1,6,2,2,0,2021-08-07 12:45:00,486796
0,-1,1,5,2,0,2,-1,2021-08-07 12:45:00,486796
-1,-1,-2,-1,3,2,1,-1,2021-08-07 12:45:00,486796
-1,1,0,4,2,0,0,0,2021-08-07 12:45:00,486796
-1,-3,-4,-8,-11,-6,-4,-2,2021-08-07 12:45:00,486796
2,2,4,3,3,2,1,2,2021-08-07 12:45:00,486796
-2,-6,-5,-6,-6,-4,-3,-3,2021-08-07 12:45:00,487797
-2,-2,0,1,0,0,-2,-2,2021-08-07 12:45:00,502795
2,2,1,0,-1,-1,-1,-1,2021-08-07 12:45:00,518796
-1,-2,-2,-3,-2,-1,-1,-1,2021-08-07 12:45:00,534797
-2,-1,-3,-2,-3,-3,-2,-1,2021-08-07 12:45:00,550797
2,2,2,1,3,3,2,1,2021-08-07 12:45:00,550797
-4,-3,-3,1,0,-4,-4,-1,2021-08-07 12:45:00,550797
-1,1,0,0,-2,1,-1,0,2021-08-07 12:45:00,550797
-1,-1,0,0,2,2,-1,-1,2021-08-07 12:45:00,550797
2,0,-2,-1,1,0,0,0,2021-08-07 12:45:00,550797
-2,-3,-3,-7,-9,-6,-3,-2,2021-08-07 12:45:00,550797
-1,-1,-3,0,-2,-1,-1,-1,2021-08-07 12:45:00,550797
0,1,0,3,4,5,3,0,2021-08-07 12:45:00,551798
1,1,2,1,3,2,1,0,2021-08-07 12:45:00,566799
-2,1,1,-1,-3,-2,-1,-1,2021-08-07 12:45:00,582796
-1,-2,-3,-2,0,-2,-3,-1,2021-08-07 12:45:00,598797
0,0,-2,-1,-2,-1,-1,0,2021-08-07 12:45:00,598797
-2,-1,-2,-1,-1,-2,1,-1,2021-08-07 12:45:00,598797
-1,-2,0,0,0,2,2,0,2021-08-07 12:45:00,598797
0,1,-1,-3,-3,-3,-3,-3,2021-08-07 12:45:00,598797
-1,0,0,-1,-1,-3,-3,-1,2021-08-07 12:45:00,598797
2,2,-1,2,-1,0,-1,0,2021-08-07 12:45:00,599797
0,-3,-2,-3,-8,-6,-3,-1,2021-08-07 12:45:00,599797
-1,-1,1,6,15,10,4,0,2021-08-07 12:45:00,599797
-2,-1,-1,-4,-6,-4,-3,-1,2021-08-07 12:45:00,599797
3,4,4,6,11,6,4,4,2021-08-07 12:45:00,630797
-4,-5,-6,-2,-3,-4,-1,-3,2021-08-07 12:45:00,646797
-3,-4,-2,-2,-2,-2,-1,-2,2021-08-07 12:45:00,661797
3,6,7,-3,-12,-6,0,1,2021-08-07 12:45:00,661797
1,2,3,11,25,15,7,2,2021-08-07 12:45:00,661797
4,6,4,2,2,3,2,2,2021-08-07 12:45:00,661797
-4,-6,-6,-8,-9,-7,-4,-3,2021-08-07 12:45:00,661797
-3,-4,-4,-4,-4,-4,-4,-2,2021-08-07 12:45:00,662798
-3,-6,-6,-9,-18,-13,-7,-3,2021-08-07 12:45:00,662798
4,4,6,4,7,7,3,3,2021-08-07 12:45:00,662798
-2,-1,-1,-2,-1,-2,-2,-3,2021-08-07 12:45:00,662798
-2,-3,-2,0,1,0,-2,-1,2021-08-07 12:45:00,662798
0,0,-1,-2,-4,-3,-1,-2,2021-08-07 12:45:00,693798
-2,-3,-3,-3,-2,-4,-2,-2,2021-08-07 12:45:00,693798
1,0,0,-5,-8,-3,-2,1,2021-08-07 12:45:00,709797
-1,0,-1,11,15,8,2,-2,2021-08-07 12:45:00,709797
-1,-4,-4,-3,-4,-4,-2,-2,2021-08-07 12:45:00,709797
0,0,-4,0,3,1,1,-1,2021-08-07 12:45:00,709797
-4,-2,-2,-3,-8,-4,-5,-1,2021-08-07 12:45:00,709797
2,6,6,3,1,-1,1,1,2021-08-07 12:45:00,709797
-2,-3,-4,-5,-5,-3,-1,-2,2021-08-07 12:45:00,710797
1,1,2,2,2,1,-1,0,2021-08-07 12:45:00,710797
0,-2,-2,-2,-1,0,0,0,2021-08-07 12:45:00,725796
-2,-6,-6,-4,-3,-3,-2,-4,2021-08-07 12:45:00,725796
-1,0,0,-3,-6,-6,-2,-1,2021-08-07 12:45:00,741795
-1,-2,-1,0,6,5,2,0,2021-08-07 12:45:00,757796
1,2,2,2,1,2,0,0,2021-08-07 12:45:00,768795
-1,-2,-1,2,7,3,0,-2,2021-08-07 12:45:00,768795
-1,3,2,1,0,-1,-1,-2,2021-08-07 12:45:00,768795
1,0,1,0,-2,-1,-1,1,2021-08-07 12:45:00,768795
-1,0,-2,0,3,-1,1,-1,2021-08-07 12:45:00,769796
0,-1,-2,-5,-8,-4,-3,-1,2021-08-07 12:45:00,789798
-1,-3,-2,-3,-5,-2,-3,-2,2021-08-07 12:45:00,805797
-3,-1,-2,-5,-10,-8,-3,-3,2021-08-07 12:45:00,821796
-2,-3,1,1,0,2,-1,-1,2021-08-07 12:45:00,837796
4,5,4,6,9,6,5,5,2021-08-07 12:45:00,837796
-2,-2,-3,2,3,2,-1,0,2021-08-07 12:45:00,837796
2,1,0,4,2,0,1,-2,2021-08-07 12:45:00,837796
-3,-3,-4,-8,-10,-9,-5,-2,2021-08-07 12:45:00,837796
-3,-1,-4,-7,-9,-7,-5,-4,2021-08-07 12:45:00,837796
1,3,2,4,5,2,2,1,2021-08-07 12:45:00,838797
2,-1,2,4,8,5,1,1,2021-08-07 12:45:00,838797
0,-2,-3,2,2,1,2,-2,2021-08-07 12:45:00,838797
-4,-5,-3,-7,-8,-6,-3,-3,2021-08-07 12:45:00,838797
-2,1,-2,-4,-5,-1,-1,0,2021-08-07 12:45:00,838797
-1,1,-3,-2,-2,-2,-1,-2,2021-08-07 12:45:00,838797
0,0,1,-3,-4,-4,0,1,2021-08-07 12:45:00,853796
-3,-5,-3,-3,1,2,0,-1,2021-08-07 12:45:00,853796
3,5,5,11,12,5,3,3,2021-08-07 12:45:00,869795
-2,-3,-3,0,-1,-2,-2,2,2021-08-07 12:45:00,869795
-1,0,-3,-7,-6,-4,-2,-1,2021-08-07 12:45:00,869795
3,5,4,4,2,2,1,2,2021-08-07 12:45:00,869795
-3,-5,-4,-6,-7,-3,-5,-2,2021-08-07 12:45:00,885797
-1,-2,-2,3,2,-1,-1,-1,2021-08-07 12:45:00,885797
4,3,6,2,1,0,1,2,2021-08-07 12:45:00,901797
1,-4,-3,-3,0,-1,1,-1,2021-08-07 12:45:00,917827
-5,-6,-5,-3,-5,-1,-3,-5,2021-08-07 12:45:00,933827
2,5,6,8,8,4,2,3,2021-08-07 12:45:00,949825
-4,-5,-5,-1,1,-1,-2,-4,2021-08-07 12:45:00,981826
0,0,-1,-1,-1,-1,0,-1,2021-08-07 12:45:00,997826
1,3,4,4,10,7,2,0,2021-08-07 12:45:00,997826
-5,-7,-7,-10,-10,-6,-5,-5,2021-08-07 12:45:01,013826
1,0,2,2,3,1,0,0,2021-08-07 12:45:01,013826
-3,0,-2,-2,-3,-2,-1,-2,2021-08-07 12:45:01,029825
1,1,-2,-1,-8,-6,-1,0,2021-08-07 12:45:01,045826
-4,-4,-5,-9,-10,-3,-1,-2,2021-08-07 12:45:01,061826
3,6,5,12,18,12,8,4,2021-08-07 12:45:01,077827
-1,-5,-2,3,4,2,-1,-1,2021-08-07 12:45:01,093826
-3,-6,-5,-2,0,-1,-3,-4,2021-08-07 12:45:01,109826
-1,2,1,1,-3,-1,-2,-3,2021-08-07 12:45:01,109826
-1,3,4,3,0,-1,-1,-5,2021-08-07 12:45:01,109826
-1,-2,-3,-6,-10,-6,-3,-3,2021-08-07 12:45:01,109826
0,-1,-1,-4,-5,-5,-3,-1,2021-08-07 12:45:01,109826
0,0,-1,-2,-1,0,-1,1,2021-08-07 12:45:01,109826
-2,-2,-3,5,9,3,0,0,2021-08-07 12:45:01,110826
-1,0,-1,-1,-3,-1,-2,1,2021-08-07 12:45:01,124827
3,2,0,-4,-3,-1,0,0,2021-08-07 12:45:01,140343
-2,0,-2,-4,-5,-5,-2,-4,2021-08-07 12:45:01,140343
1,1,2,1,2,4,0,0,2021-08-07 12:45:01,140343
-1,-2,-1,1,2,0,0,-1,2021-08-07 12:45:01,156342
-4,-4,-6,-5,-8,-5,-5,-2,2021-08-07 12:45:01,156342
0,0,-1,-8,-9,-5,-4,-1,2021-08-07 12:45:01,156342
-1,0,0,5,8,4,0,0,2021-08-07 12:45:01,156342
-1,-4,-3,1,7,4,1,-1,2021-08-07 12:45:01,156342
2,4,5,4,3,2,4,2,2021-08-07 12:45:01,156342
-1,-3,-3,2,2,0,0,0,2021-08-07 12:45:01,172344
-1,-2,-4,-12,-14,-9,-5,-2,2021-08-07 12:45:01,172344
0,0,1,0,-3,0,-1,2,2021-08-07 12:45:01,172344
-3,0,0,-1,3,1,1,-1,2021-08-07 12:45:01,172344
-1,0,0,0,-2,-2,-2,-2,2021-08-07 12:45:01,172344
0,-2,-1,1,-1,0,1,0,2021-08-07 12:45:01,172344
0,1,1,2,2,0,0,0,2021-08-07 12:45:01,172344
2,1,0,-3,-3,-1,-1,1,2021-08-07 12:45:01,173344
-1,-3,-3,-4,0,0,-1,-2,2021-08-07 12:45:01,173344
-2,-2,-2,-3,-2,-4,-3,-1,2021-08-07 12:45:01,173344
-2,-3,-3,-4,-7,-4,-3,-4,2021-08-07 12:45:01,173344
0,0,0,1,0,0,0,0,2021-08-07 12:45:01,173344
1,2,2,5,9,4,3,4,2021-08-07 12:45:01,173344
-2,-2,-2,-3,-4,-4,-1,0,2021-08-07 12:45:01,174346
0,-1,-1,-2,-2,-1,-2,-1,2021-08-07 12:45:01,174346
0,-3,-2,-2,-7,-4,-3,-2,2021-08-07 12:45:01,174346
1,1,3,4,9,7,4,3,2021-08-07 12:45:01,174346
-2,-2,-1,-1,-3,-2,-1,-1,2021-08-07 12:45:01,174346
2,4,4,4,5,2,1,1,2021-08-07 12:45:01,174346
0,1,-1,1,-1,1,1,-2,2021-08-07 12:45:01,174346
-5,-4,-5,-6,-7,-5,-5,-4,2021-08-07 12:45:01,174346
2,4,3,-1,0,1,1,0,2021-08-07 12:45:01,187344
-4,-1,-3,-4,-4,-4,-2,-1,2021-08-07 12:45:01,187344
2,1,2,2,2,2,0,2,2021-08-07 12:45:01,187344
0,0,1,1,-2,-1,-1,1,2021-08-07 12:45:01,187344
-1,-3,-3,-2,-2,-2,-2,0,2021-08-07 12:45:01,187344
-1,-1,-1,-5,-4,-1,-3,-2,2021-08-07 12:45:01,187344
-1,-2,-1,-1,0,-1,-1,0,2021-08-07 12:45:01,187344
0,-3,0,2,-1,-2,-2,-1,2021-08-07 12:45:01,187344
-2,-1,-4,-6,-6,-4,-3,0,2021-08-07 12:45:01,187344
-1,0,-3,-4,-6,-2,1,1,2021-08-07 12:45:01,188345
2,2,1,4,12,8,4,2,2021-08-07 12:45:01,210344
1,2,1,5,4,0,0,-1,2021-08-07 12:45:01,210344
-4,-3,-4,-4,-4,-2,-3,-3,2021-08-07 12:45:01,210344
-2,-1,-1,1,2,-1,0,0,2021-08-07 12:45:01,210344
-2,0,0,-5,-5,-3,-1,-2,2021-08-07 12:45:01,250343
-1,0,0,-1,-2,0,-1,-1,2021-08-07 12:45:01,266342
-1,-3,-2,-2,-2,-2,-2,-1,2021-08-07 12:45:01,282344
-2,-4,-3,-2,0,-1,0,-3,2021-08-07 12:45:01,298342
0,-1,0,-4,-9,-5,-2,1,2021-08-07 12:45:01,298342
3,7,6,4,9,8,4,2,2021-08-07 12:45:01,298342
0,-1,-1,-2,-4,-2,-2,-1,2021-08-07 12:45:01,298342
2,0,0,2,3,2,0,-1,2021-08-07 12:45:01,298342
-2,-2,1,0,4,0,-1,-1,2021-08-07 12:45:01,298342
-2,-5,-3,-2,-6,-6,-4,-2,2021-08-07 12:45:01,299345
1,2,1,1,1,-1,0,1,2021-08-07 12:45:01,299345
-2,-1,-3,-6,-11,-6,-4,-2,2021-08-07 12:45:01,299345
1,0,0,-1,0,1,0,-1,2021-08-07 12:45:01,314344
1,1,3,11,14,7,4,1,2021-08-07 12:45:01,314344
-1,1,-2,-1,-2,-1,-2,-1,2021-08-07 12:45:01,314344
0,-2,-1,1,2,1,0,0,2021-08-07 12:45:01,314344
-2,-2,-4,-6,-16,-10,-5,-2,2021-08-07 12:45:01,314344
0,-3,-2,-5,-2,1,-1,0,2021-08-07 12:45:01,315345
0,-1,-2,-3,-7,-2,0,-1,2021-08-07 12:45:01,315345
0,2,2,8,13,8,4,2,2021-08-07 12:45:01,315345
1,1,2,4,9,5,2,1,2021-08-07 12:45:01,330344
-1,-3,-2,-5,-6,-5,-3,-1,2021-08-07 12:45:01,346343
-3,-5,-2,-2,-2,-3,0,0,2021-08-07 12:45:01,346343
-3,-2,-3,-6,-8,-5,-3,-1,2021-08-07 12:45:01,346343
-2,0,-2,-1,-2,-1,-3,-4,2021-08-07 12:45:01,346343
-2,-4,-5,-1,-4,-4,-2,-2,2021-08-07 12:45:01,346343
3,6,6,0,1,1,1,3,2021-08-07 12:45:01,346343
0,2,1,3,6,1,1,0,2021-08-07 12:45:01,347345
-3,-6,-4,-3,-6,-3,-2,-3,2021-08-07 12:45:01,361345
0,3,2,-1,4,0,2,-1,2021-08-07 12:45:01,361345
-2,0,-1,1,1,-1,-2,0,2021-08-07 12:45:01,377344
2,1,1,-1,-1,-1,0,-1,2021-08-07 12:45:01,377344
-5,-4,-3,-2,-3,-3,-2,-3,2021-08-07 12:45:01,393342
-2,-3,-2,-4,-7,-4,-2,0,2021-08-07 12:45:01,408342
-3,-4,-5,-4,-3,-2,-1,-4,2021-08-07 12:45:01,424344
1,1,1,-3,-2,-1,0,1,2021-08-07 12:45:01,424344
2,3,2,2,0,-2,0,1,2021-08-07 12:45:01,424344
1,0,-1,-4,-4,2,-1,0,2021-08-07 12:45:01,424344
4,3,6,10,14,7,5,2,2021-08-07 12:45:01,424344
-2,-1,0,5,12,7,2,0,2021-08-07 12:45:01,424344
0,-1,-1,-1,-3,-3,-3,-1,2021-08-07 12:45:01,424344
-2,-3,-3,-6,-8,-4,-4,-2,2021-08-07 12:45:01,424344
-2,-4,-5,-7,-12,-6,-5,-2,2021-08-07 12:45:01,425345
0,0,-1,-2,-5,-4,-3,1,2021-08-07 12:45:01,425345
2,4,4,3,7,5,3,3,2021-08-07 12:45:01,456343
-1,2,4,0,0,-2,-1,0,2021-08-07 12:45:01,472343
-4,-5,-5,-4,-6,-4,-3,-3,2021-08-07 12:45:01,488344
-1,-1,-1,-1,-5,-4,-1,-3,2021-08-07 12:45:01,488344
-3,-3,-3,-1,2,1,1,-1,2021-08-07 12:45:01,488344
-1,-3,-2,-8,-11,-6,-3,-2,2021-08-07 12:45:01,488344
2,3,4,5,12,9,4,1,2021-08-07 12:45:01,488344
-1,0,0,-1,-2,-1,-1,-1,2021-08-07 12:45:01,488344
-2,-3,-2,-5,-8,-4,-2,-3,2021-08-07 12:45:01,489345
-1,1,1,4,8,3,2,-1,2021-08-07 12:45:01,489345
-3,-4,-2,-5,-9,-6,-5,-3,2021-08-07 12:45:01,489345
0,-2,-4,-5,-6,0,-1,0,2021-08-07 12:45:01,489345
3,3,5,7,14,9,5,4,2021-08-07 12:45:01,520344
0,-2,-1,-2,-4,-3,-1,0,2021-08-07 12:45:01,536345
-1,0,-1,-1,-2,-1,-3,-1,2021-08-07 12:45:01,536345
-2,-3,-3,-3,-7,-5,-5,-2,2021-08-07 12:45:01,536345
-2,-1,-4,-2,-2,-4,-2,1,2021-08-07 12:45:01,536345
0,1,-2,0,-2,-1,0,0,2021-08-07 12:45:01,536345
-3,-2,-3,-3,-5,-3,-1,-3,2021-08-07 12:45:01,536345
1,0,2,3,9,4,2,1,2021-08-07 12:45:01,537344
0,1,1,-2,-2,0,1,-1,2021-08-07 12:45:01,551343
1,1,1,7,7,3,-1,0,2021-08-07 12:45:01,567346
-3,-5,-5,-6,-9,-6,-5,-3,2021-08-07 12:45:01,583345
2,5,4,4,6,3,4,2,2021-08-07 12:45:01,583345
-1,0,-2,-3,0,-2,0,-1,2021-08-07 12:45:01,583345
1,3,1,2,1,0,1,2,2021-08-07 12:45:01,583345
-3,-5,-3,-4,-5,-3,-1,-1,2021-08-07 12:45:01,583345
-1,-3,1,3,0,1,-2,-1,2021-08-07 12:45:01,583345
2,2,3,2,5,3,1,1,2021-08-07 12:45:01,584344
0,0,-2,-4,-3,-1,0,-4,2021-08-07 12:45:01,584344
1,-1,0,1,3,2,1,1,2021-08-07 12:45:01,584344
-5,-6,-4,-3,-6,-5,-3,-3,2021-08-07 12:45:01,584344
-1,0,1,-2,-5,-4,-3,-1,2021-08-07 12:45:01,615343
-1,-4,-3,-2,-2,0,0,-1,2021-08-07 12:45:01,631344
1,2,3,7,12,6,3,0,2021-08-07 12:45:01,647342
0,-1,-1,-1,-6,-4,-1,-1,2021-08-07 12:45:01,647342
-1,-3,-1,4,8,5,1,-1,2021-08-07 12:45:01,647342
-1,1,-1,-1,2,1,0,0,2021-08-07 12:45:01,647342
-2,-2,-3,-5,-7,-5,-4,-1,2021-08-07 12:45:01,647342
-2,-1,-2,-3,-4,0,-1,-1,2021-08-07 12:45:01,647342
-2,-1,-3,-5,-5,-4,-4,-1,2021-08-07 12:45:01,648344
2,1,2,1,1,-1,0,1,2021-08-07 12:45:01,648344
1,2,3,2,2,-1,0,0,2021-08-07 12:45:01,648344
-1,0,-3,-3,-3,0,-1,-2,2021-08-07 12:45:01,648344
-3,-6,-4,-6,-11,-7,-4,-3,2021-08-07 12:45:01,679344
-2,-2,-2,1,8,2,-1,-1,2021-08-07 12:45:01,695343
-1,-1,-2,0,-1,1,2,1,2021-08-07 12:45:01,710344
2,3,4,7,14,8,3,4,2021-08-07 12:45:01,710344
-1,-3,-4,-3,0,4,2,-1,2021-08-07 12:45:01,710344
1,1,3,9,4,1,-1,0,2021-08-07 12:45:01,710344
1,0,0,-3,-5,-4,-2,-2,2021-08-07 12:45:01,710344
-2,-2,-3,-5,-7,-8,-5,-3,2021-08-07 12:45:01,710344
2,1,-1,-2,-3,-2,-1,2,2021-08-07 12:45:01,711344
-2,-5,-4,-6,-7,-5,-2,-1,2021-08-07 12:45:01,711344
0,0,-3,1,2,4,3,2,2021-08-07 12:45:01,726344
-1,-2,-2,0,-1,2,2,-1,2021-08-07 12:45:01,726344
-3,-3,-1,0,-1,-2,-3,-3,2021-08-07 12:45:01,726344
0,4,6,3,1,3,1,0,2021-08-07 12:45:01,726344
-2,0,-2,-2,-3,-2,-3,-2,2021-08-07 12:45:01,726344
-2,-6,-2,-4,-3,-4,-2,-3,2021-08-07 12:45:01,726344
0,0,1,4,2,0,-1,-1,2021-08-07 12:45:01,757342
1,0,0,-4,-3,-2,-1,1,2021-08-07 12:45:01,773345
3,2,0,2,7,7,4,2,2021-08-07 12:45:01,789343
0,0,-1,-1,-1,-1,-2,1,2021-08-07 12:45:01,789343
-2,-3,-2,-4,-4,-2,-1,-1,2021-08-07 12:45:01,789343
-2,-3,-2,-1,0,-1,-2,-1,2021-08-07 12:45:01,789343
-2,-1,-3,-1,0,-1,-3,-4,2021-08-07 12:45:01,789343
-2,-1,0,-1,0,0,0,-1,2021-08-07 12:45:01,789343
2,1,1,1,-1,0,1,1,2021-08-07 12:45:01,789343
-1,0,0,4,3,3,1,-1,2021-08-07 12:45:01,790345
-3,-3,-2,-4,-5,-5,-4,-2,2021-08-07 12:45:01,790345
-2,-1,-1,-4,-3,-1,-1,-2,2021-08-07 12:45:01,790345
-3,-5,-6,-8,-9,-7,-4,-2,2021-08-07 12:45:01,805345
0,4,2,1,1,0,1,2,2021-08-07 12:45:01,805345
-1,-1,1,2,5,3,1,-1,2021-08-07 12:45:01,805345
2,3,3,6,2,2,1,-1,2021-08-07 12:45:01,805345
0,-2,-4,0,-2,-2,-1,-2,2021-08-07 12:45:01,837344
-3,-4,-4,-3,-1,-2,0,-2,2021-08-07 12:45:01,853343
-3,-6,-6,-3,-2,-4,-3,-1,2021-08-07 12:45:01,853343
5,8,7,1,0,1,1,4,2021-08-07 12:45:01,853343
0,1,1,0,0,1,-1,0,2021-08-07 12:45:01,853343
0,-1,-3,0,-3,-3,-2,-3,2021-08-07 12:45:01,853343
-3,-4,-3,-3,-3,-3,-3,-1,2021-08-07 12:45:01,853343
-1,-3,-3,-2,0,0,1,-1,2021-08-07 12:45:01,869343
-2,1,1,3,2,2,0,0,2021-08-07 12:45:01,885342
-2,-3,-2,-6,-5,-4,-2,-2,2021-08-07 12:45:01,885342
0,1,2,0,-1,3,3,2,2021-08-07 12:45:01,885342
-2,-2,-3,-3,-1,-1,0,0,2021-08-07 12:45:01,885342
2,2,1,3,5,0,0,1,2021-08-07 12:45:01,885342
-2,-1,-1,-4,-1,0,-1,-2,2021-08-07 12:45:01,885342
1,0,1,0,-1,-2,-1,0,2021-08-07 12:45:01,886343
-2,-5,-6,-7,-5,-3,-1,-2,2021-08-07 12:45:01,886343
-1,1,2,3,5,1,0,-1,2021-08-07 12:45:01,916345
-1,-5,-4,-4,-5,0,0,0,2021-08-07 12:45:01,932342
3,6,4,8,11,5,3,0,2021-08-07 12:45:01,948344
-2,0,-1,-2,-1,-2,-1,-1,2021-08-07 12:45:01,948344
-2,-1,0,-3,-1,-1,0,-1,2021-08-07 12:45:01,948344
-2,-4,-3,-4,-7,-3,-3,-1,2021-08-07 12:45:01,948344
-3,-1,-1,-1,-3,-2,-3,0,2021-08-07 12:45:01,948344
-3,-6,-6,-3,-3,-1,-3,0,2021-08-07 12:45:01,949345
2,2,1,-2,0,1,1,0,2021-08-07 12:45:01,964343
0,3,2,1,1,0,0,0,2021-08-07 12:45:01,964343
0,-3,-3,-1,-2,-2,-1,0,2021-08-07 12:45:01,964343
2,3,2,1,0,1,1,1,2021-08-07 12:45:01,964343
-4,-5,-5,-1,-2,0,-1,-2,2021-08-07 12:45:01,980343
-2,-3,-4,-3,-1,-2,-1,0,2021-08-07 12:45:01,980343
0,0,0,-1,-1,0,-2,-1,2021-08-07 12:45:01,980343
1,-1,1,0,-1,-1,1,-1,2021-08-07 12:45:01,980343
2,2,0,2,3,1,0,-1,2021-08-07 12:45:01,980343
-2,-3,-1,1,0,-2,-1,-4,2021-08-07 12:45:01,980343
-4,-5,-5,-2,-3,-3,-1,-2,2021-08-07 12:45:01,996343
1,2,4,1,1,3,1,1,2021-08-07 12:45:02,012344
1,1,0,-3,-2,-2,0,0,2021-08-07 12:45:02,028344
0,-2,-2,0,0,0,1,-2,2021-08-07 12:45:02,044345
0,-2,-3,-4,-4,-2,-1,0,2021-08-07 12:45:02,060342
-2,-1,-1,-1,-2,-3,-3,-3,2021-08-07 12:45:02,060342
1,1,2,4,5,5,1,3,2021-08-07 12:45:02,060342
-2,-2,-2,0,-1,-2,-3,-2,2021-08-07 12:45:02,060342
0,0,0,0,1,0,0,-1,2021-08-07 12:45:02,060342
0,-5,-4,-1,2,0,2,0,2021-08-07 12:45:02,060342
-2,-1,-1,-8,-10,-6,-2,0,2021-08-07 12:45:02,060342
-3,-5,-4,-7,-14,-10,-5,-4,2021-08-07 12:45:02,076343
-2,-3,-3,-9,-10,-5,-1,-1,2021-08-07 12:45:02,081344
8,12,14,22,37,26,13,8,2021-08-07 12:45:02,081344
0,0,1,3,4,3,0,-1,2021-08-07 12:45:02,081344
2,3,2,6,14,7,3,2,2021-08-07 12:45:02,081344
-3,-4,-4,-7,-10,-8,-5,-6,2021-08-07 12:45:02,081344
-5,-7,-5,-11,-17,-13,-7,-5,2021-08-07 12:45:02,082344
-1,-3,-2,-2,-1,-1,-1,-1,2021-08-07 12:45:02,092344
-2,1,-1,-4,-4,-3,-3,-1,2021-08-07 12:45:02,092344
0,1,2,1,0,1,0,0,2021-08-07 12:45:02,092344
-1,-3,-4,-5,-6,-4,-3,-2,2021-08-07 12:45:02,092344
0,0,-1,1,6,2,1,-1,2021-08-07 12:45:02,107342
1,0,0,1,-1,-1,-2,1,2021-08-07 12:45:02,107342
2,2,3,3,5,2,2,1,2021-08-07 12:45:02,107342
-2,-3,-4,-4,-9,-4,-3,-3,2021-08-07 12:45:02,107342
0,0,1,9,13,5,1,0,2021-08-07 12:45:02,138344
-1,-1,0,-3,-3,-1,1,1,2021-08-07 12:45:02,138344
-2,-1,-2,-2,3,3,1,-1,2021-08-07 12:45:02,138344
0,-1,1,0,-5,-2,-2,0,2021-08-07 12:45:02,138344
3,5,5,1,0,1,2,2,2021-08-07 12:45:02,170344
0,-3,-4,-3,-4,-2,-2,-1,2021-08-07 12:45:02,186345
0,2,-1,-4,-8,-6,-4,-2,2021-08-07 12:45:02,186345
1,3,2,4,7,4,1,0,2021-08-07 12:45:02,186345
0,-1,-4,-1,-2,1,0,-1,2021-08-07 12:45:02,186345
-2,-1,0,1,-3,-3,-1,-2,2021-08-07 12:45:02,186345
-2,-8,-6,-4,-3,-5,-3,-2,2021-08-07 12:45:02,186345
-1,-1,-2,-3,-5,-5,-1,-2,2021-08-07 12:45:02,186345
1,3,4,4,5,3,1,1,2021-08-07 12:45:02,202342
1,1,0,0,5,4,2,-1,2021-08-07 12:45:02,202342
-1,0,1,2,1,2,-1,0,2021-08-07 12:45:02,202342
-1,0,-1,-9,-8,-4,-2,-1,2021-08-07 12:45:02,202342
-3,-3,-2,2,-1,-2,-2,-2,2021-08-07 12:45:02,218345
-1,-3,-3,-4,-5,-5,-1,-1,2021-08-07 12:45:02,218345
-1,0,1,1,1,1,-2,-1,2021-08-07 12:45:02,218345
-1,-3,0,2,3,1,1,0,2021-08-07 12:45:02,218345
-4,-4,-5,-9,-14,-7,-4,-3,2021-08-07 12:45:02,218345
1,0,0,-2,-2,-1,-2,0,2021-08-07 12:45:02,218345
1,1,2,6,5,2,2,1,2021-08-07 12:45:02,234344
2,4,3,5,8,4,1,1,2021-08-07 12:45:02,234344
2,3,2,3,6,2,1,-1,2021-08-07 12:45:02,266344
-1,0,-1,-1,1,3,0,0,2021-08-07 12:45:02,282342
-3,-1,-3,-5,-6,-5,-3,-1,2021-08-07 12:45:02,282342
-2,-2,-5,-7,-13,-7,0,2,2021-08-07 12:45:02,282342
1,0,-1,-1,0,0,1,2,2021-08-07 12:45:02,282342
2,3,4,10,14,7,-1,1,2021-08-07 12:45:02,282342
-5,-2,-3,-5,-7,-10,-10,-7,2021-08-07 12:45:02,282342
1,5,4,5,8,4,1,-1,2021-08-07 12:45:02,282342
-3,-3,-4,-8,-10,-6,-3,-2,2021-08-07 12:45:02,283346
-3,-2,-2,-5,-8,-4,0,0,2021-08-07 12:45:02,283346
3,2,4,1,3,6,2,3,2021-08-07 12:45:02,313344
-1,-3,-4,-2,-6,-5,0,-2,2021-08-07 12:45:02,313344
-2,-3,-2,0,3,2,1,0,2021-08-07 12:45:02,329343
-1,-2,-1,-4,-1,1,0,-1,2021-08-07 12:45:02,329343
-1,-2,-5,-3,-3,-1,2,-1,2021-08-07 12:45:02,329343
2,3,5,14,19,12,4,2,2021-08-07 12:45:02,329343
1,1,1,1,-1,-2,-3,-1,2021-08-07 12:45:02,329343
-2,-1,-3,-6,-10,-6,-4,-1,2021-08-07 12:45:02,330344
-2,-4,-2,-2,3,1,2,0,2021-08-07 12:45:02,345343
0,-3,-3,-5,-5,-3,-3,-1,2021-08-07 12:45:02,345343
-1,-1,-1,-2,-6,-2,-1,-1,2021-08-07 12:45:02,345343
-1,1,0,4,4,0,-1,0,2021-08-07 12:45:02,345343
-1,-1,-1,-5,-8,-3,-1,-1,2021-08-07 12:45:02,376344
-2,1,0,-2,-2,-2,0,-1,2021-08-07 12:45:02,392343
-1,-2,-3,1,6,4,1,-1,2021-08-07 12:45:02,392343
2,1,1,1,-2,-3,0,0,2021-08-07 12:45:02,392343
1,0,0,2,3,2,0,1,2021-08-07 12:45:02,392343
-2,-4,-1,-3,-4,-3,-5,-3,2021-08-07 12:45:02,392343
-3,-3,-6,-7,-9,-4,-4,-3,2021-08-07 12:45:02,392343
1,0,-1,1,9,5,4,1,2021-08-07 12:45:02,393345
2,4,8,13,14,9,4,3,2021-08-07 12:45:02,393345
0,2,-1,0,-3,-3,0,0,2021-08-07 12:45:02,393345
-2,-3,-3,-6,-8,-7,-6,-4,2021-08-07 12:45:02,407342
-2,-3,-2,-5,-10,-7,-4,-1,2021-08-07 12:45:02,423342
0,1,1,0,-1,-1,1,2,2021-08-07 12:45:02,439342
0,0,-1,2,11,5,1,2,2021-08-07 12:45:02,439342
-2,-3,-2,0,-2,-3,-3,-2,2021-08-07 12:45:02,439342
-1,1,-1,2,5,3,1,-3,2021-08-07 12:45:02,439342
0,-1,1,-4,-10,-7,-4,-3,2021-08-07 12:45:02,439342
-4,-6,-5,-3,-5,-5,-3,-4,2021-08-07 12:45:02,439342
1,2,2,-1,0,1,1,1,2021-08-07 12:45:02,455343
-4,-2,-2,0,0,-3,-1,-4,2021-08-07 12:45:02,455343
1,2,0,-6,-5,-3,-1,0,2021-08-07 12:45:02,455343
-3,-4,-4,-4,-5,-2,-1,-2,2021-08-07 12:45:02,455343
2,-1,2,6,13,8,4,0,2021-08-07 12:45:02,471343
0,-2,0,5,5,3,-1,0,2021-08-07 12:45:02,487344
-1,-2,-4,2,2,-1,-2,-3,2021-08-07 12:45:02,503342
-2,-1,-2,-7,-12,-7,-3,-1,2021-08-07 12:45:02,503342
0,-3,-3,-7,-11,-7,-4,1,2021-08-07 12:45:02,503342
6,3,3,-1,1,3,4,4,2021-08-07 12:45:02,503342
-2,-6,-6,-5,-1,-2,0,-2,2021-08-07 12:45:02,503342
1,1,2,4,3,4,1,2,2021-08-07 12:45:02,503342
-2,0,0,2,0,-1,0,-1,2021-08-07 12:45:02,509344
-3,-3,0,2,1,-2,-3,-2,2021-08-07 12:45:02,509344
-2,1,1,0,0,-2,-2,-2,2021-08-07 12:45:02,509344
-2,-4,-3,-1,-3,-3,-5,-2,2021-08-07 12:45:02,509344
-1,-1,-4,-8,-9,-2,-1,-1,2021-08-07 12:45:02,534343
0,2,2,6,10,5,4,2,2021-08-07 12:45:02,534343
3,5,2,3,2,2,3,3,2021-08-07 12:45:02,534343
1,1,0,2,3,0,0,-1,2021-08-07 12:45:02,534343
0,1,0,-1,-2,-2,-1,0,2021-08-07 12:45:02,550344
-3,-5,-7,-10,-13,-7,-3,-4,2021-08-07 12:45:02,566346
-2,-3,-4,-6,-4,1,0,-1,2021-08-07 12:45:02,581342
2,2,4,8,9,4,1,0,2021-08-07 12:45:02,581342
0,-1,0,0,0,0,-1,-1,2021-08-07 12:45:02,581342
-1,-2,-1,-1,-3,-1,0,-1,2021-08-07 12:45:02,581342
0,-2,1,2,2,0,0,0,2021-08-07 12:45:02,581342
-2,-5,-5,-8,-9,-5,-4,-3,2021-08-07 12:45:02,581342
1,0,1,4,5,2,2,-1,2021-08-07 12:45:02,597343
-2,1,-1,-7,-9,-5,-5,-2,2021-08-07 12:45:02,613342
1,3,2,6,9,7,3,1,2021-08-07 12:45:02,613342
0,0,1,-3,-4,-3,1,2,2021-08-07 12:45:02,613342
-3,-1,-2,0,0,0,-2,-1,2021-08-07 12:45:02,613342
-2,-2,-4,-4,-6,-7,-4,-1,2021-08-07 12:45:02,613342
-2,-3,-4,0,0,0,-1,-2,2021-08-07 12:45:02,613342
-1,-1,0,-4,-2,-1,-1,-2,2021-08-07 12:45:02,614344
2,5,9,8,7,3,2,2,2021-08-07 12:45:02,629343
0,1,1,-2,-2,0,1,-1,2021-08-07 12:45:02,629343
-4,-4,-4,-2,-3,-3,-3,-3,2021-08-07 12:45:02,629343
-1,-1,-1,1,-1,0,-1,1,2021-08-07 12:45:02,629343
3,4,2,3,4,4,2,2,2021-08-07 12:45:02,661343
-3,-4,-3,-2,0,1,0,-1,2021-08-07 12:45:02,661343
-4,-5,-6,-16,-17,-16,-7,-4,2021-08-07 12:45:02,661873
-1,-3,-1,0,-1,0,-2,-3,2021-08-07 12:45:02,661873
2,4,6,0,6,3,4,2,2021-08-07 12:45:02,661873
-1,-3,-10,-10,-14,-8,-4,-2,2021-08-07 12:45:02,661873
-1,-2,-3,1,4,2,1,-3,2021-08-07 12:45:02,676374
-1,-1,0,-3,0,-1,-1,-1,2021-08-07 12:45:02,676374
-1,1,6,8,8,3,1,-2,2021-08-07 12:45:02,692375
0,1,4,8,9,4,2,0,2021-08-07 12:45:02,692375
-2,1,-1,-9,-12,-7,-2,-1,2021-08-07 12:45:02,692375
2,1,-2,-2,-8,-5,-1,0,2021-08-07 12:45:02,692375
-1,-3,-3,0,2,3,1,-1,2021-08-07 12:45:02,724374
0,1,1,7,7,7,2,1,2021-08-07 12:45:02,740374
2,4,3,6,10,6,1,0,2021-08-07 12:45:02,740374
2,3,5,7,10,5,2,0,2021-08-07 12:45:02,740374
0,-3,-6,-7,-11,-9,-3,0,2021-08-07 12:45:02,740374
-5,-5,-7,-8,-11,-10,-5,-4,2021-08-07 12:45:02,741374
0,2,3,-1,-4,-1,-1,-1,2021-08-07 12:45:02,741374
-2,-3,-4,-3,1,1,-2,-2,2021-08-07 12:45:02,741374
0,-2,0,0,-4,-3,-2,-2,2021-08-07 12:45:02,756375
1,2,3,2,7,5,2,2,2021-08-07 12:45:02,756375
-2,-2,-2,-1,-4,-2,-3,0,2021-08-07 12:45:02,756375
-1,-1,0,4,10,5,4,0,2021-08-07 12:45:02,756375
-3,-4,-4,-3,-1,-2,-1,-2,2021-08-07 12:45:02,772373
1,3,3,0,-2,-1,-1,-1,2021-08-07 12:45:02,787372
-1,-1,0,1,1,3,0,0,2021-08-07 12:45:02,787372
-1,0,0,-5,-10,-7,-1,1,2021-08-07 12:45:02,787372
-3,-2,-4,-1,-2,-2,-3,-3,2021-08-07 12:45:02,787372
-1,-5,-2,-1,3,2,0,-2,2021-08-07 12:45:02,787372
3,2,6,6,5,3,3,1,2021-08-07 12:45:02,787372
-4,-5,-5,-3,0,-1,-1,-4,2021-08-07 12:45:02,788374
-1,1,-1,-1,-4,-2,-1,1,2021-08-07 12:45:02,819372
-3,-4,-2,-3,-5,-6,-3,-2,2021-08-07 12:45:02,835376
2,3,4,2,2,2,0,1,2021-08-07 12:45:02,851374
0,-1,-1,1,2,2,1,0,2021-08-07 12:45:02,851374
1,2,1,0,4,-1,0,-1,2021-08-07 12:45:02,851374
2,1,-1,0,-3,0,1,-1,2021-08-07 12:45:02,851374
-1,-2,-5,0,1,2,1,0,2021-08-07 12:45:02,851374
1,1,1,2,0,1,-1,1,2021-08-07 12:45:02,852375
-4,-4,-4,-4,-3,-2,-1,-1,2021-08-07 12:45:02,852375
1,2,1,1,1,-1,-1,1,2021-08-07 12:45:02,852375
-1,-5,-3,-6,-3,-5,-1,-2,2021-08-07 12:45:02,852375
1,2,2,0,0,-2,-1,0,2021-08-07 12:45:02,852375
0,-1,-1,2,4,5,0,0,2021-08-07 12:45:02,883373
0,-1,-1,-1,1,1,-1,1,2021-08-07 12:45:02,883596
-2,-3,-3,-6,-5,-4,-1,-3,2021-08-07 12:45:02,883596
1,3,3,4,2,0,0,2,2021-08-07 12:45:02,883596
-1,-2,-3,-4,-4,-1,-2,-2,2021-08-07 12:45:02,913889
-3,-3,-5,-6,-9,-8,-3,-2,2021-08-07 12:45:02,913889
2,3,5,11,14,9,4,1,2021-08-07 12:45:02,913889
-1,-3,-4,-6,-7,-5,-2,-1,2021-08-07 12:45:02,913889
-1,0,-2,0,-3,-1,-2,1,2021-08-07 12:45:02,913889
-1,-2,-3,2,4,1,0,-1,2021-08-07 12:45:02,913889
-1,-1,-3,-1,-2,-5,-1,-2,2021-08-07 12:45:02,914890
-1,-5,-6,-9,-5,0,0,-2,2021-08-07 12:45:02,914890
1,3,3,4,5,1,1,0,2021-08-07 12:45:02,929888
0,0,-2,-4,-5,-4,-1,0,2021-08-07 12:45:02,945889
1,4,5,5,8,5,2,3,2021-08-07 12:45:02,945889
-2,-2,-1,1,0,1,0,-1,2021-08-07 12:45:02,945889
-1,-2,-3,-5,-5,-3,-1,1,2021-08-07 12:45:02,947889
-3,-5,-2,-3,-2,0,-2,-2,2021-08-07 12:45:02,948890
-1,0,-1,-3,-6,-3,-4,-2,2021-08-07 12:45:02,948890
1,2,1,-1,-1,2,1,2,2021-08-07 12:45:02,948890
-2,0,2,0,2,0,0,-2,2021-08-07 12:45:02,977889
0,0,2,6,5,3,0,1,2021-08-07 12:45:02,993890
-2,-3,-5,-9,-7,-5,-1,0,2021-08-07 12:45:02,993890
1,1,-1,1,2,0,0,-2,2021-08-07 12:45:02,993890
-2,-3,-2,-5,-7,-3,-2,-1,2021-08-07 12:45:02,993890
2,3,4,6,10,5,4,2,2021-08-07 12:45:02,993890
-2,-6,-4,-1,-1,-2,-2,-1,2021-08-07 12:45:02,994889
1,0,-1,-4,-7,-5,-2,0,2021-08-07 12:45:02,994889
-4,-8,-5,-6,-5,-4,-5,-6,2021-08-07 12:45:03,025888
-2,0,5,0,-3,-4,-2,-3,2021-08-07 12:45:03,025888
2,5,-1,-1,-3,-2,0,1,2021-08-07 12:45:03,025888
3,4,0,4,8,7,4,3,2021-08-07 12:45:03,025888
-1,-2,-3,2,2,0,0,-1,2021-08-07 12:45:03,025888
-2,-2,0,-3,-3,0,0,-1,2021-08-07 12:45:03,025888
1,1,4,-6,2,3,0,1,2021-08-07 12:45:03,041889
-5,-3,-1,-2,-7,-7,-6,-4,2021-08-07 12:45:03,041889
3,4,5,16,9,1,2,2,2021-08-07 12:45:03,057887
-3,-2,3,-9,-18,-12,-6,-2,2021-08-07 12:45:03,073888
-2,-1,-8,-3,10,11,4,-1,2021-08-07 12:45:03,073888
2,7,7,50,23,5,3,1,2021-08-07 12:45:03,073888
-1,-5,-12,-58,-16,1,2,1,2021-08-07 12:45:03,073888
-10,-20,-25,-49,-30,-19,-15,-9,2021-08-07 12:45:03,073888
4,3,12,14,5,6,3,2,2021-08-07 12:45:03,073888
-4,-10,-4,-14,-15,-12,-4,-3,2021-08-07 12:45:03,074889
-4,-6,-5,11,-15,-17,-12,-5,2021-08-07 12:45:03,089888
8,10,12,16,17,10,8,6,2021-08-07 12:45:03,089888
0,0,-1,-1,5,2,0,1,2021-08-07 12:45:03,089888
0,3,3,13,11,9,2,1,2021-08-07 12:45:03,089888
4,7,7,9,2,1,3,2,2021-08-07 12:45:03,120888
-1,-1,-7,-6,-1,0,-1,-1,2021-08-07 12:45:03,136891
-2,-3,0,9,-1,-4,-2,-1,2021-08-07 12:45:03,152889
0,1,3,-3,-1,0,-2,0,2021-08-07 12:45:03,152889
-3,-3,-5,-17,-2,1,-1,0,2021-08-07 12:45:03,152889
1,5,3,11,8,6,2,2,2021-08-07 12:45:03,152889
2,3,1,11,8,2,2,1,2021-08-07 12:45:03,152889
-2,-4,-6,-23,-18,-8,-4,-5,2021-08-07 12:45:03,152889
-2,-2,0,3,-3,-3,-3,-3,2021-08-07 12:45:03,153890
0,4,3,18,14,7,2,-2,2021-08-07 12:45:03,153890
-1,1,2,-9,-12,-5,-3,0,2021-08-07 12:45:03,153890
0,-1,-1,-15,0,1,1,0,2021-08-07 12:45:03,153890
-3,-1,-1,9,0,-3,-3,-3,2021-08-07 12:45:03,183888
-2,-5,-1,-1,-5,-6,0,0,2021-08-07 12:45:03,199890
0,-2,-8,-9,-1,2,1,0,2021-08-07 12:45:03,199890
1,1,1,5,12,8,2,2,2021-08-07 12:45:03,199890
3,5,5,10,5,1,2,1,2021-08-07 12:45:03,199890
-4,-8,-9,-19,-28,-17,-10,-7,2021-08-07 12:45:03,199890
4,6,10,15,24,14,7,3,2021-08-07 12:45:03,200892
0,0,-3,3,5,3,2,0,2021-08-07 12:45:03,200892
-1,-1,-2,0,2,0,1,-2,2021-08-07 12:45:03,200892
-3,-5,-2,-10,-15,-12,-6,-3,2021-08-07 12:45:03,200892
-1,-4,-8,-8,-11,-9,-4,-2,2021-08-07 12:45:03,215889
0,1,4,3,6,4,2,-1,2021-08-07 12:45:03,215889
-1,-1,0,4,2,3,0,-2,2021-08-07 12:45:03,231889
2,2,2,8,15,8,4,2,2021-08-07 12:45:03,247888
-2,-2,0,3,-7,-6,-3,-3,2021-08-07 12:45:03,247888
-1,-1,-4,-15,-13,-6,-3,0,2021-08-07 12:45:03,247888
1,2,0,-5,-4,1,0,0,2021-08-07 12:45:03,263889
1,0,-1,6,8,6,3,0,2021-08-07 12:45:03,279889
-3,-3,-2,1,-5,-5,-4,-1,2021-08-07 12:45:03,295888
-2,-2,-1,-2,-4,-4,0,-2,2021-08-07 12:45:03,295888
-2,-3,-1,-6,-6,-4,-2,0,2021-08-07 12:45:03,295888
1,2,-2,2,5,4,0,0,2021-08-07 12:45:03,295888
1,2,4,8,8,1,0,-1,2021-08-07 12:45:03,295888
0,-1,-3,-4,-5,-3,-1,-1,2021-08-07 12:45:03,295888
-3,-2,0,-1,0,0,-2,-1,2021-08-07 12:45:03,296890
0,1,0,-1,-4,-1,0,0,2021-08-07 12:45:03,296890
-2,0,-1,-2,-3,-2,-2,-2,2021-08-07 12:45:03,296890
-2,-2,-1,1,2,0,0,-3,2021-08-07 12:45:03,296890
1,0,1,3,1,2,0,0,2021-08-07 12:45:03,326889
0,0,-3,5,1,-1,-1,0,2021-08-07 12:45:03,326889
-1,-2,-2,-19,-14,-6,-2,-1,2021-08-07 12:45:03,327427
0,1,-2,-4,-3,-2,0,2,2021-08-07 12:45:03,327427
-1,-6,-8,-1,-2,-1,-1,-2,2021-08-07 12:45:03,327427
-3,-5,-3,8,13,8,3,0,2021-08-07 12:45:03,327889
0,3,5,4,3,2,1,1,2021-08-07 12:45:03,342935
0,5,12,8,4,1,-1,1,2021-08-07 12:45:03,342935
-2,0,-1,-6,-4,-6,-3,-3,2021-08-07 12:45:03,358938
4,5,2,8,15,8,2,3,2021-08-07 12:45:03,358938
-4,-5,-7,-6,-6,-5,-4,-4,2021-08-07 12:45:03,358938
1,-2,-1,-5,-5,-3,-2,-1,2021-08-07 12:45:03,358938
-1,0,1,-1,-1,-1,-1,0,2021-08-07 12:45:03,374935
-3,-2,0,0,-1,1,-1,-2,2021-08-07 12:45:03,374935
-2,-3,-5,6,3,1,-1,-2,2021-08-07 12:45:03,374935
1,1,-1,6,4,1,1,1,2021-08-07 12:45:03,374935
2,4,6,-12,-1,1,2,1,2021-08-07 12:45:03,384936
-2,-2,-5,-20,-18,-8,-3,-2,2021-08-07 12:45:03,385936
-2,-2,1,8,6,1,-2,-1,2021-08-07 12:45:03,406936
-3,-3,-5,-1,-4,-2,-1,-2,2021-08-07 12:45:03,421936
-1,0,9,7,4,-2,0,-2,2021-08-07 12:45:03,437937
0,-1,-8,-10,-8,-5,-3,-1,2021-08-07 12:45:03,437937
-1,-2,-9,-7,-5,-1,-1,0,2021-08-07 12:45:03,437937
1,-2,0,9,13,5,1,-1,2021-08-07 12:45:03,437937
1,1,1,3,0,2,0,0,2021-08-07 12:45:03,437937
6,8,13,11,10,5,5,2,2021-08-07 12:45:03,437937
1,0,-1,0,1,0,1,0,2021-08-07 12:45:03,438939
-6,-7,-8,-11,-11,-8,-6,-5,2021-08-07 12:45:03,438939
1,4,2,0,1,0,3,3,2021-08-07 12:45:03,468936
-4,-3,-1,0,-6,-4,-3,-2,2021-08-07 12:45:03,483937
0,-2,-1,0,5,2,1,0,2021-08-07 12:45:03,499936
-1,-2,-2,-7,-6,-2,-2,-1,2021-08-07 12:45:03,499936
-3,-6,-8,-4,-6,-6,-5,-3,2021-08-07 12:45:03,499936
4,9,10,0,-6,-2,0,3,2021-08-07 12:45:03,499936
2,3,0,4,15,10,4,2,2021-08-07 12:45:03,500937
-1,-3,-2,-6,-9,-4,-2,-2,2021-08-07 12:45:03,500937
-5,-6,-5,2,1,1,-1,-3,2021-08-07 12:45:03,500937
-3,-6,-6,-12,-15,-10,-5,-5,2021-08-07 12:45:03,500937
1,2,6,6,12,6,3,2,2021-08-07 12:45:03,500937
0,3,2,0,1,1,2,0,2021-08-07 12:45:03,500937
-1,-2,-6,-2,-3,-3,-2,0,2021-08-07 12:45:03,515937
-6,-7,-5,-4,-9,-5,-4,-3,2021-08-07 12:45:03,531937
2,3,5,7,4,3,2,1,2021-08-07 12:45:03,563456
2,-1,-2,-2,5,4,1,0,2021-08-07 12:45:03,563456
1,3,-2,2,3,1,1,1,2021-08-07 12:45:03,563456
-3,-1,-2,-2,1,-2,-1,-3,2021-08-07 12:45:03,563456
-3,-7,-6,-7,-15,-9,-4,-4,2021-08-07 12:45:03,563456
-2,-1,-1,-1,-1,-2,-2,-1,2021-08-07 12:45:03,563456
1,1,2,-5,-3,-4,-2,-1,2021-08-07 12:45:03,564457
2,4,3,6,9,5,3,2,2021-08-07 12:45:03,564457
-5,-6,-5,-3,-6,-6,-5,-3,2021-08-07 12:45:03,564457
4,3,4,-2,-2,0,0,2,2021-08-07 12:45:03,564457
-1,-1,-4,-5,-5,-4,-1,-2,2021-08-07 12:45:03,579456
0,2,0,4,5,3,2,1,2021-08-07 12:45:03,579456
-2,0,-3,-3,-2,-2,-2,-2,2021-08-07 12:45:03,579456
-4,-5,-6,-5,-3,0,-3,-5,2021-08-07 12:45:03,579456
-1,-2,-2,1,-2,-1,-2,1,2021-08-07 12:45:03,611455
2,4,3,8,9,6,4,2,2021-08-07 12:45:03,627456
-2,-4,-3,-12,-10,-8,-4,-2,2021-08-07 12:45:03,627456
-3,-1,-2,-7,-10,-8,-3,-1,2021-08-07 12:45:03,627456
-3,-3,0,0,1,1,0,0,2021-08-07 12:45:03,627456
-1,-2,-2,2,1,1,-1,-2,2021-08-07 12:45:03,627456
-1,-1,-2,-6,-11,-6,-3,-2,2021-08-07 12:45:03,627456
1,2,2,4,4,1,1,0,2021-08-07 12:45:03,627456
-3,-2,-1,1,1,0,-1,-3,2021-08-07 12:45:03,643454
-1,-3,-1,-1,-1,-1,-2,-1,2021-08-07 12:45:03,659456
0,-1,-3,-9,-11,-6,-3,-2,2021-08-07 12:45:03,675454
3,3,3,4,6,4,2,1,2021-08-07 12:45:03,675454
-3,-6,-3,-1,-5,-6,-5,-4,2021-08-07 12:45:03,675454
2,1,1,5,11,7,4,1,2021-08-07 12:45:03,675454
5,8,8,4,-1,0,3,3,2021-08-07 12:45:03,675454
-1,-2,-4,-4,-4,-3,-1,-1,2021-08-07 12:45:03,675454
2,5,4,12,11,8,4,3,2021-08-07 12:45:03,676456
-2,-2,-5,-6,-7,-5,-3,-3,2021-08-07 12:45:03,676456
-3,-7,-6,-10,-14,-9,-5,-3,2021-08-07 12:45:03,676456
-3,-3,-4,-2,-4,-2,-3,-1,2021-08-07 12:45:03,676456
2,2,0,1,6,1,1,2,2021-08-07 12:45:03,707456
2,0,2,2,4,2,0,1,2021-08-07 12:45:03,707456
0,0,0,5,13,8,3,0,2021-08-07 12:45:03,707456
-1,-2,-2,-3,-8,-7,-4,-2,2021-08-07 12:45:03,707456
-4,-6,-8,-14,-16,-7,-3,-4,2021-08-07 12:45:03,707456
-1,0,1,9,14,6,2,0,2021-08-07 12:45:03,707456
4,6,7,9,12,7,4,2,2021-08-07 12:45:03,722456
-1,1,1,1,1,2,1,1,2021-08-07 12:45:03,722456
-4,-6,-6,-8,-10,-8,-5,-4,2021-08-07 12:45:03,753454
1,1,0,-14,-22,-11,-3,-1,2021-08-07 12:45:03,753454
2,2,4,14,17,9,5,2,2021-08-07 12:45:03,753454
-3,-4,-3,-5,-8,-6,-5,-3,2021-08-07 12:45:03,753454
5,9,8,10,17,13,7,3,2021-08-07 12:45:03,753454
-4,-8,-9,-9,-6,-5,-4,-2,2021-08-07 12:45:03,769454
-1,0,-2,-6,-12,-8,-5,0,2021-08-07 12:45:03,785455
1,1,4,9,9,5,2,3,2021-08-07 12:45:03,785455
-5,-3,-5,-11,-7,-4,-4,-5,2021-08-07 12:45:03,785455
-1,0,1,1,2,2,-1,0,2021-08-07 12:45:03,785455
-1,-2,0,-2,-6,-5,-2,-3,2021-08-07 12:45:03,785455
-2,-2,-4,-2,-7,-4,-4,-1,2021-08-07 12:45:03,785455
-1,-2,1,5,4,1,1,-1,2021-08-07 12:45:03,800457
-1,-2,-1,0,0,-4,-2,-1,2021-08-07 12:45:03,800457
-3,-3,-4,-7,-2,-1,0,-2,2021-08-07 12:45:03,800457
-4,-4,-8,-14,-16,-8,-5,-3,2021-08-07 12:45:03,800457
7,10,11,10,20,16,7,6,2021-08-07 12:45:03,816457
4,5,7,10,12,8,4,4,2021-08-07 12:45:03,816457
-4,-3,-2,-2,-6,-6,-3,-2,2021-08-07 12:45:03,826456
1,1,3,2,7,3,4,1,2021-08-07 12:45:03,826456
-4,-6,-7,-10,-17,-13,-9,-4,2021-08-07 12:45:03,826456
-1,-1,-2,-2,-1,0,-2,-1,2021-08-07 12:45:03,826456
1,1,3,-1,1,5,1,2,2021-08-07 12:45:03,847496
-2,0,-2,-1,0,-1,-2,-1,2021-08-07 12:45:03,847496
1,1,3,3,1,0,0,0,2021-08-07 12:45:03,847496
-1,1,-2,-7,-6,-2,0,-2,2021-08-07 12:45:03,847496
-1,-3,-6,-8,-4,-2,-4,-3,2021-08-07 12:45:03,863496
0,0,0,-1,1,0,1,0,2021-08-07 12:45:03,863496
-3,-3,-2,1,-6,-5,-3,-2,2021-08-07 12:45:03,878496
0,1,4,12,9,3,1,0,2021-08-07 12:45:03,894495
-2,-2,-6,-16,-16,-7,-4,-2,2021-08-07 12:45:03,910497
0,1,2,3,5,2,1,0,2021-08-07 12:45:03,910497
2,3,3,5,11,8,5,2,2021-08-07 12:45:03,910497
-2,-1,-2,-1,0,2,0,-1,2021-08-07 12:45:03,910497
0,-1,0,10,6,1,1,1,2021-08-07 12:45:03,910497
-5,-6,-6,-6,-8,-8,-5,-4,2021-08-07 12:45:03,910497
-2,2,0,-13,-17,-10,-5,-2,2021-08-07 12:45:03,911496
6,9,7,8,13,11,8,4,2021-08-07 12:45:03,911496
0,-1,0,3,4,3,1,0,2021-08-07 12:45:03,911496
2,1,2,8,6,2,0,1,2021-08-07 12:45:03,911496
-7,-11,-9,-11,-10,-11,-6,-6,2021-08-07 12:45:03,942495
2,2,-2,-7,-8,-4,-1,2,2021-08-07 12:45:03,942495
-1,1,-1,2,0,-1,0,1,2021-08-07 12:45:03,942495
1,1,3,6,5,3,2,3,2021-08-07 12:45:03,942495
-2,-1,-1,6,4,3,0,-1,2021-08-07 12:45:03,942495
-2,-4,-5,-12,-8,-6,-6,-5,2021-08-07 12:45:03,942495
-3,-4,-3,-4,-4,-2,-2,-2,2021-08-07 12:45:03,972495
0,0,-2,-7,-3,0,1,1,2021-08-07 12:45:03,987496
1,-1,2,0,0,0,0,-1,2021-08-07 12:45:03,987496
-2,-3,-3,5,5,0,1,-2,2021-08-07 12:45:03,987496
2,2,3,2,-1,0,1,0,2021-08-07 12:45:03,987496
-2,-2,1,-1,-4,-2,0,-1,2021-08-07 12:45:03,987496
-2,-1,-3,-1,-2,-2,-2,0,2021-08-07 12:45:04,003496
-5,-7,-5,-5,-9,-7,-6,-6,2021-08-07 12:45:04,019498
0,1,0,1,6,1,0,0,2021-08-07 12:45:04,051494
-1,1,0,-2,5,3,1,-1,2021-08-07 12:45:04,051716
1,0,-1,-1,-2,0,0,2,2021-08-07 12:45:04,051716
-5,-4,-2,-1,-6,-4,-3,0,2021-08-07 12:45:04,051716
-2,-5,-2,-1,-2,-2,-3,-3,2021-08-07 12:45:04,052496
0,0,-2,-6,-5,-2,-2,0,2021-08-07 12:45:04,052496
1,-2,-3,-5,-5,-5,-3,-2,2021-08-07 12:45:04,052496
0,1,1,-3,-2,-2,0,-1,2021-08-07 12:45:04,052496
-2,-3,-2,0,-1,-2,-3,-1,2021-08-07 12:45:04,052496
-2,-5,-3,4,5,0,-2,-2,2021-08-07 12:45:04,052496
7,11,13,7,8,7,5,5,2021-08-07 12:45:04,052496
1,4,6,2,1,-1,1,2,2021-08-07 12:45:04,053496
0,-2,-10,0,-3,0,1,1,2021-08-07 12:45:04,053496
-3,-4,-2,-3,-3,-3,-2,-4,2021-08-07 12:45:04,053496
-3,-4,-4,3,3,0,-1,-2,2021-08-07 12:45:04,083011
1,0,-1,-1,0,-2,0,0,2021-08-07 12:45:04,083011
0,5,7,-5,-2,-1,0,1,2021-08-07 12:45:04,083011
-1,1,0,-3,-4,-2,-2,-3,2021-08-07 12:45:04,083011
-2,-5,-6,-3,-3,-1,-3,-2,2021-08-07 12:45:04,099011
-1,0,-3,2,0,0,0,0,2021-08-07 12:45:04,099011
-2,-2,-2,-2,-1,-1,1,-1,2021-08-07 12:45:04,099011
-1,2,1,2,3,1,2,2,2021-08-07 12:45:04,099011
-5,-4,-4,-3,-4,-4,-3,-4,2021-08-07 12:45:04,115012
3,3,2,2,-1,1,1,2,2021-08-07 12:45:04,131011
1,1,0,1,1,0,0,-2,2021-08-07 12:45:04,131011
0,0,2,1,0,0,0,-1,2021-08-07 12:45:04,131011
-1,-1,-2,0,1,-1,1,0,2021-08-07 12:45:04,131011
-2,-5,-7,-7,-6,-4,-4,-2,2021-08-07 12:45:04,131011
3,1,4,1,0,3,2,1,2021-08-07 12:45:04,147012
2,0,-3,0,1,1,-1,-1,2021-08-07 12:45:04,162013
-1,4,-1,-3,-3,-1,0,1,2021-08-07 12:45:04,178012
-2,-2,-4,-6,-5,-3,-2,-1,2021-08-07 12:45:04,194016
0,2,4,6,8,6,3,2,2021-08-07 12:45:04,194016
-2,-2,-1,4,5,4,1,-1,2021-08-07 12:45:04,194016
-4,-6,-3,-7,-7,-4,-4,-5,2021-08-07 12:45:04,194016
-1,1,2,7,11,4,2,-1,2021-08-07 12:45:04,194016
-2,1,0,-3,-5,-4,-3,-2,2021-08-07 12:45:04,194016
0,-2,-2,-6,-8,-4,-2,-2,2021-08-07 12:45:04,194016
1,3,1,1,2,0,1,0,2021-08-07 12:45:04,195012
1,-1,1,-1,-6,-4,-1,0,2021-08-07 12:45:04,195012
-1,-3,-6,-8,-11,-6,-2,-3,2021-08-07 12:45:04,210014
0,-1,1,7,16,9,2,1,2021-08-07 12:45:04,210014
-2,-1,-5,-5,-9,-5,-1,-1,2021-08-07 12:45:04,210014
-2,-3,-1,-3,-3,-3,-3,-1,2021-08-07 12:45:04,210014
-3,0,1,0,-3,-3,-3,-2,2021-08-07 12:45:04,210014
-3,-1,-3,0,1,2,0,-2,2021-08-07 12:45:04,210014
3,3,3,4,6,4,2,2,2021-08-07 12:45:04,241011
-2,-1,0,2,1,1,1,-1,2021-08-07 12:45:04,256013
-2,-2,-1,-4,-5,-3,-2,-2,2021-08-07 12:45:04,256013
-2,0,0,-1,-5,-6,-2,-1,2021-08-07 12:45:04,256013
-4,-5,-6,-4,1,0,-1,-3,2021-08-07 12:45:04,256013
-3,-4,-2,-4,-9,-6,-3,-3,2021-08-07 12:45:04,256013
1,-2,0,6,12,5,1,-2,2021-08-07 12:45:04,256013
4,9,7,5,1,-1,3,3,2021-08-07 12:45:04,257012
1,-1,-3,-3,-2,1,3,1,2021-08-07 12:45:04,287013
0,-1,-2,1,1,1,-1,-1,2021-08-07 12:45:04,287013
-3,-5,-5,-3,-1,-3,-5,-3,2021-08-07 12:45:04,287013
0,1,0,-3,-9,-7,-3,0,2021-08-07 12:45:04,287013
0,-1,-2,-1,1,2,-1,0,2021-08-07 12:45:04,303015
1,1,1,5,11,10,6,3,2021-08-07 12:45:04,319012
0,2,-2,-5,-4,-2,2,2,2021-08-07 12:45:04,319012
-4,-6,-8,-8,-17,-12,-9,-4,2021-08-07 12:45:04,319012
-2,-1,2,1,4,0,-4,-4,2021-08-07 12:45:04,319012
-1,0,-2,-6,-2,2,0,2,2021-08-07 12:45:04,319012
4,4,5,9,11,5,4,2,2021-08-07 12:45:04,319012
-2,-1,1,-2,-2,-2,-2,-3,2021-08-07 12:45:04,320013
-3,-3,-2,-3,-8,-6,-4,-2,2021-08-07 12:45:04,334013
-3,-3,-3,0,0,-3,-4,-3,2021-08-07 12:45:04,350012
-4,-4,-4,-7,-14,-10,-5,-1,2021-08-07 12:45:04,350012
4,3,2,-3,-3,2,1,3,2021-08-07 12:45:04,350012
1,2,3,4,9,7,2,2,2021-08-07 12:45:04,350012
-2,-2,-4,-1,0,-1,0,-3,2021-08-07 12:45:04,350012
1,0,3,4,6,6,4,3,2021-08-07 12:45:04,366013
-3,-1,-4,3,4,0,1,-1,2021-08-07 12:45:04,366013
0,0,-1,-1,-8,-5,-3,-1,2021-08-07 12:45:04,366013
0,1,0,-2,-4,-2,-1,-1,2021-08-07 12:45:04,366013
-3,-1,-3,-4,-9,-4,-4,-3,2021-08-07 12:45:04,382013
-3,-6,-6,-7,-7,-5,-1,-4,2021-08-07 12:45:04,382013
-1,0,-1,-2,-5,-4,-2,-1,2021-08-07 12:45:04,398012
-2,-2,0,0,5,3,-1,-1,2021-08-07 12:45:04,398012
2,5,5,6,6,2,2,2,2021-08-07 12:45:04,398012
-1,0,2,4,12,9,4,3,2021-08-07 12:45:04,398012
0,-3,-5,-2,-4,-3,0,-1,2021-08-07 12:45:04,414013
-1,-2,-3,-5,-9,-6,-3,-1,2021-08-07 12:45:04,414013
-1,-1,1,0,2,0,0,-2,2021-08-07 12:45:04,414013
1,-3,-2,-1,-5,-3,-2,-2,2021-08-07 12:45:04,414013
0,-1,-1,1,1,1,-1,-1,2021-08-07 12:45:04,446014
-1,-4,-4,-4,-2,-2,-3,-3,2021-08-07 12:45:04,446014
-1,0,3,6,8,3,1,0,2021-08-07 12:45:04,446014
1,3,4,2,-3,-4,-1,0,2021-08-07 12:45:04,446014
0,-4,-1,-5,-9,-5,-3,-2,2021-08-07 12:45:04,462013
1,1,-1,3,7,4,2,-2,2021-08-07 12:45:04,462013
-1,-4,-6,-6,-1,0,-1,-2,2021-08-07 12:45:04,462013
-2,0,0,-2,0,-1,-1,-1,2021-08-07 12:45:04,462013
-3,-4,-5,-4,-10,-9,-4,-4,2021-08-07 12:45:04,478012
3,3,3,2,7,8,6,4,2021-08-07 12:45:04,494013
-1,-1,-3,2,2,1,-1,-1,2021-08-07 12:45:04,509012
2,3,2,1,3,4,2,2,2021-08-07 12:45:04,509012
0,2,1,4,8,4,3,1,2021-08-07 12:45:04,509012
-4,-5,-4,-6,-13,-13,-7,-5,2021-08-07 12:45:04,509012
1,1,0,-3,-4,0,-1,1,2021-08-07 12:45:04,509012
0,-2,-3,-4,-1,0,-1,-1,2021-08-07 12:45:04,509012
-1,1,1,2,2,2,1,1,2021-08-07 12:45:04,525013
1,0,1,4,3,2,1,0,2021-08-07 12:45:04,541013
-1,-4,-3,-3,-4,-4,-2,-1,2021-08-07 12:45:04,557011
-1,-2,1,2,3,5,0,0,2021-08-07 12:45:04,557011
0,0,1,-1,3,2,1,0,2021-08-07 12:45:04,557011
-1,2,2,-2,-3,0,1,0,2021-08-07 12:45:04,557011
4,3,3,12,22,12,6,3,2021-08-07 12:45:04,557011
-4,-7,-7,-10,-17,-13,-6,-5,2021-08-07 12:45:04,557011
-3,-3,-2,-2,-8,-4,-3,-4,2021-08-07 12:45:04,558013
5,5,7,12,18,12,9,5,2021-08-07 12:45:04,558013
0,-1,1,-8,-14,-8,-2,-1,2021-08-07 12:45:04,558013
-2,2,3,2,6,1,0,-1,2021-08-07 12:45:04,558013
-3,-2,-4,-7,-14,-12,-5,-3,2021-08-07 12:45:04,573011
-2,-3,-2,0,1,2,-2,-2,2021-08-07 12:45:04,588011
1,4,4,8,8,7,5,2,2021-08-07 12:45:04,588011
0,-2,-3,1,3,1,0,-2,2021-08-07 12:45:04,588011
1,2,4,-1,-1,2,1,2,2021-08-07 12:45:04,603011
-1,1,-1,-2,-6,-8,-3,0,2021-08-07 12:45:04,618011
-4,-5,-6,-10,-14,-7,-5,-5,2021-08-07 12:45:04,650013
-1,-1,-1,10,16,8,2,-1,2021-08-07 12:45:04,666014
-2,-5,-5,-1,0,-2,-4,-3,2021-08-07 12:45:04,682013
4,6,6,4,5,4,5,3,2021-08-07 12:45:04,682013
-2,-2,-3,-5,-8,-8,-5,-2,2021-08-07 12:45:04,682013
-1,0,-3,-12,-17,-10,-3,-3,2021-08-07 12:45:04,682013
-3,-2,-2,9,16,8,2,0,2021-08-07 12:45:04,694012
-2,-2,-2,-3,-10,-8,-5,-1,2021-08-07 12:45:04,694012
-1,-2,-2,-2,7,8,3,-1,2021-08-07 12:45:04,694012
2,2,2,2,-2,0,1,1,2021-08-07 12:45:04,695012
0,-1,0,-3,-4,-2,-2,1,2021-08-07 12:45:04,695012
-7,-12,-14,-20,-33,-27,-15,-8,2021-08-07 12:45:04,695012
6,10,9,6,10,13,6,5,2021-08-07 12:45:04,695012
-1,1,1,13,21,8,2,0,2021-08-07 12:45:04,695012
1,1,0,0,3,1,1,0,2021-08-07 12:45:04,695012
-2,-2,-4,-9,-19,-14,-7,-2,2021-08-07 12:45:04,696013
-4,-6,-6,-13,-18,-12,-7,-4,2021-08-07 12:45:04,696013
-1,-1,-1,4,11,10,3,1,2021-08-07 12:45:04,696013
3,5,5,5,1,2,0,0,2021-08-07 12:45:04,696013
-3,-4,-4,-9,-11,-5,-3,-3,2021-08-07 12:45:04,696013
1,2,1,7,12,7,5,2,2021-08-07 12:45:04,696013
-1,-1,1,0,0,1,1,0,2021-08-07 12:45:04,697012
-4,-6,-7,-3,-2,-4,-4,-5,2021-08-07 12:45:04,714011
-1,-2,-3,-10,-15,-5,-1,-1,2021-08-07 12:45:04,714011
-2,-1,0,-3,-10,-8,-7,-2,2021-08-07 12:45:04,730012
0,2,5,4,9,11,4,2,2021-08-07 12:45:04,746013
2,4,4,11,14,9,5,1,2021-08-07 12:45:04,746013
-4,-2,-3,-8,-15,-10,-6,-4,2021-08-07 12:45:04,746013
-2,-1,-1,12,19,10,3,0,2021-08-07 12:45:04,746013
-2,-3,-2,-4,-4,-8,-4,-3,2021-08-07 12:45:04,746013
1,0,-2,-10,-4,0,0,-2,2021-08-07 12:45:04,746013
1,1,1,9,9,5,1,2,2021-08-07 12:45:04,747015
-1,-3,-1,2,-1,-2,-1,-1,2021-08-07 12:45:04,762011
3,0,-1,-5,-10,-6,-1,0,2021-08-07 12:45:04,777013
-2,-4,-5,-15,-9,-4,-3,-2,2021-08-07 12:45:04,777013
1,0,3,10,22,16,5,0,2021-08-07 12:45:04,777013
-1,-3,-3,-5,-8,-7,-4,-2,2021-08-07 12:45:04,777013
-2,-4,-3,-2,-5,-4,-5,0,2021-08-07 12:45:04,778014
0,-2,-1,-2,-8,-5,-3,-1,2021-08-07 12:45:04,808012
1,3,1,2,-11,-9,-4,-2,2021-08-07 12:45:04,808012
6,6,9,25,36,24,12,6,2021-08-07 12:45:04,808012
1,1,-1,-8,0,2,2,3,2021-08-07 12:45:04,808012
-4,-9,-10,-10,-7,-8,-5,-2,2021-08-07 12:45:04,808012
-5,-9,-8,-17,-15,-13,-10,-7,2021-08-07 12:45:04,809013
-2,-2,-6,-15,-27,-19,-9,-4,2021-08-07 12:45:04,840012
0,1,-1,3,1,4,2,-1,2021-08-07 12:45:04,856011
5,7,10,19,28,16,9,6,2021-08-07 12:45:04,872011
-1,-1,0,6,9,7,2,-1,2021-08-07 12:45:04,872011
-1,0,0,0,-4,-5,-3,0,2021-08-07 12:45:04,872011
-2,-3,-6,-12,-20,-11,-7,-4,2021-08-07 12:45:04,872011
-4,-1,0,2,3,2,2,-1,2021-08-07 12:45:04,872011
3,4,4,18,29,14,6,3,2021-08-07 12:45:04,872011
1,-1,-3,-8,-1,3,2,1,2021-08-07 12:45:04,872011
-2,-2,-3,-5,-10,-11,-5,-3,2021-08-07 12:45:04,872011
-2,-2,0,-2,-6,-1,-2,0,2021-08-07 12:45:04,872011
-2,-2,2,5,5,2,1,0,2021-08-07 12:45:04,873012
0,1,-3,-9,-13,-9,-2,1,2021-08-07 12:45:04,887013
0,-1,2,8,8,3,1,-1,2021-08-07 12:45:04,887013
-5,-8,-8,-12,-22,-12,-7,-7,2021-08-07 12:45:04,919013
11,16,18,25,42,31,18,11,2021-08-07 12:45:04,919013
0,0,0,-1,2,-2,-4,-1,2021-08-07 12:45:04,919013
-3,-2,-4,-6,-11,-7,-4,-2,2021-08-07 12:45:04,919013
0,2,2,-4,-6,-4,-1,-1,2021-08-07 12:45:04,919013
-4,-4,-6,-8,-5,-2,-1,0,2021-08-07 12:45:04,919013
-3,-5,-5,-8,-14,-11,-6,-3,2021-08-07 12:45:04,920012
1,2,4,10,13,8,2,1,2021-08-07 12:45:04,920012
-1,-3,-2,4,4,1,-1,0,2021-08-07 12:45:04,935012
-3,-3,-5,-10,-16,-9,-6,-3,2021-08-07 12:45:04,951014
1,1,1,-7,-9,-4,0,0,2021-08-07 12:45:04,966013
-2,-3,-3,-4,-8,-6,-3,-1,2021-08-07 12:45:04,966013
-4,-7,-9,-9,-4,-1,-3,-4,2021-08-07 12:45:04,966013
8,11,16,17,10,3,5,4,2021-08-07 12:45:04,966013
-2,-1,-1,-4,0,2,-1,-2,2021-08-07 12:45:04,966013
0,2,-7,11,21,6,2,4,2021-08-07 12:45:04,966013
2,4,5,9,11,4,4,4,2021-08-07 12:45:04,982011
-2,-4,-9,-2,-3,-2,-3,-3,2021-08-07 12:45:04,982011
-2,-3,-1,-7,-11,-8,-3,-3,2021-08-07 12:45:04,982011
-2,-4,0,-8,-9,-5,-3,-2,2021-08-07 12:45:04,982011
-1,-2,-2,-3,-9,-5,-3,0,2021-08-07 12:45:04,998012
-2,-3,-4,-3,4,3,-1,-2,2021-08-07 12:45:05,014012
1,3,5,18,16,10,5,1,2021-08-07 12:45:05,030013
-2,-5,-2,-9,-5,-1,-3,-3,2021-08-07 12:45:05,030013
-3,-3,-3,-8,-13,-10,-7,-6,2021-08-07 12:45:05,030013
0,-1,-1,-14,-16,-8,-3,-1,2021-08-07 12:45:05,030013
-2,-4,-5,1,1,-4,-3,-3,2021-08-07 12:45:05,030013
0,-1,-2,0,5,4,1,-1,2021-08-07 12:45:05,030013
5,6,6,8,13,9,4,4,2021-08-07 12:45:05,046012
-1,-2,-4,-5,-7,-3,-1,-2,2021-08-07 12:45:05,062011
-2,-2,-2,-1,-3,-1,-1,-1,2021-08-07 12:45:05,078012
-5,-3,-3,-5,-8,-6,-4,-2,2021-08-07 12:45:05,078012
1,2,3,3,2,0,0,1,2021-08-07 12:45:05,078012
-2,-2,-4,-3,1,0,-2,-2,2021-08-07 12:45:05,078012
1,-1,0,2,-2,-3,-2,0,2021-08-07 12:45:05,078012
-1,-1,0,1,2,0,1,-2,2021-08-07 12:45:05,079012
-2,-4,-4,1,-1,1,-1,-3,2021-08-07 12:45:05,079012
-4,-5,-7,-8,-8,-5,-3,-4,2021-08-07 12:45:05,079012
4,8,9,2,8,5,2,5,2021-08-07 12:45:05,079012
-1,0,0,-4,-9,-3,-2,-2,2021-08-07 12:45:05,079012
2,5,5,17,23,12,6,4,2021-08-07 12:45:05,110012
-4,-5,-6,-5,-7,-4,-2,-2,2021-08-07 12:45:05,126014
-6,-10,-12,-14,-7,-4,-3,-4,2021-08-07 12:45:05,126014
2,2,4,3,6,2,3,0,2021-08-07 12:45:05,126014
0,0,1,-7,-13,-9,-4,-1,2021-08-07 12:45:05,126014
0,-1,0,2,-9,-5,-3,0,2021-08-07 12:45:05,126014
-5,-4,-2,0,-3,-4,-2,-4,2021-08-07 12:45:05,127012
2,2,0,7,17,14,8,5,2021-08-07 12:45:05,127012
-1,-1,-1,-13,-5,-1,0,-1,2021-08-07 12:45:05,141012
-1,2,1,-1,-4,-3,0,0,2021-08-07 12:45:05,141012
1,3,2,12,14,7,3,1,2021-08-07 12:45:05,141012
-2,-4,-3,-5,-17,-13,-8,-4,2021-08-07 12:45:05,141012
-1,-1,-3,-3,-5,-3,-3,0,2021-08-07 12:45:05,157012
2,2,2,4,11,5,6,3,2021-08-07 12:45:05,157012
0,-4,-2,-5,-10,-2,-2,-2,2021-08-07 12:45:05,157012
0,1,3,3,0,0,0,-1,2021-08-07 12:45:05,157012
-1,0,0,1,4,1,1,-1,2021-08-07 12:45:05,173011
-2,-3,-2,-5,-9,-5,-4,-1,2021-08-07 12:45:05,173011
-3,-4,-5,-17,-21,-12,-4,-3,2021-08-07 12:45:05,205013
-1,-1,0,10,14,8,4,0,2021-08-07 12:45:05,205013
5,5,6,14,21,11,6,4,2021-08-07 12:45:05,205013
1,1,2,-1,-1,-2,-2,1,2021-08-07 12:45:05,205013
-3,-2,-5,-3,-10,-8,-4,-3,2021-08-07 12:45:05,205013
-5,-4,-5,-12,-14,-4,-4,-4,2021-08-07 12:45:05,205013
2,1,2,7,7,1,1,0,2021-08-07 12:45:05,221013
-2,-4,-3,-2,-3,-4,-1,-3,2021-08-07 12:45:05,221013
4,4,1,-2,3,5,2,2,2021-08-07 12:45:05,221013
-1,0,1,4,6,1,1,-1,2021-08-07 12:45:05,221013
-5,-6,-7,-5,-8,-5,-6,-4,2021-08-07 12:45:05,237012
3,5,4,4,6,5,3,3,2021-08-07 12:45:05,237012
-2,-4,-4,-10,-16,-11,-6,-3,2021-08-07 12:45:05,237012
0,2,3,10,23,12,4,2,2021-08-07 12:45:05,237012
-1,-3,1,-4,-8,-5,-3,-2,2021-08-07 12:45:05,268013
-7,-8,-9,-14,-21,-13,-8,-5,2021-08-07 12:45:05,284012
4,5,7,14,17,11,5,4,2021-08-07 12:45:05,300013
-2,-1,0,1,3,4,0,-2,2021-08-07 12:45:05,300013
0,1,-1,-1,-4,-4,-1,0,2021-08-07 12:45:05,300013
-2,-4,-2,-3,0,-3,-3,-2,2021-08-07 12:45:05,316013
-2,-2,-2,0,3,-1,-2,-2,2021-08-07 12:45:05,332013
-4,-7,-8,-11,-23,-17,-8,-4,2021-08-07 12:45:05,332013
-3,-2,-2,-9,-16,-6,-3,-3,2021-08-07 12:45:05,332013
5,7,8,5,17,13,7,5,2021-08-07 12:45:05,332013
-1,0,1,7,8,3,0,0,2021-08-07 12:45:05,332013
2,4,1,-1,-1,-1,-1,3,2021-08-07 12:45:05,332013
-5,-5,-9,-12,-21,-15,-8,-4,2021-08-07 12:45:05,333016
-1,-2,-2,8,12,8,3,0,2021-08-07 12:45:05,333016
0,2,4,5,10,6,4,0,2021-08-07 12:45:05,333016
1,2,0,-8,-4,-2,-2,-1,2021-08-07 12:45:05,333016
3,3,1,2,4,5,3,3,2021-08-07 12:45:05,333016
-1,-2,-1,-4,-6,-2,-2,-3,2021-08-07 12:45:05,334015
-3,-2,-3,3,3,0,-1,-1,2021-08-07 12:45:05,334015
-3,-5,-1,-2,-11,-8,-3,-2,2021-08-07 12:45:05,334015
0,0,2,3,6,5,3,0,2021-08-07 12:45:05,364011
-3,-3,-4,1,-2,-6,-5,-4,2021-08-07 12:45:05,380011
2,0,-1,-11,-14,-3,0,0,2021-08-07 12:45:05,396039
0,-1,-1,0,0,-2,-2,-1,2021-08-07 12:45:05,396039
4,3,5,17,32,20,9,4,2021-08-07 12:45:05,412039
-1,1,2,6,8,1,0,0,2021-08-07 12:45:05,428039
-6,-8,-9,-11,-19,-13,-10,-5,2021-08-07 12:45:05,460038
0,1,0,-4,-10,-6,-1,0,2021-08-07 12:45:05,475039
-2,-3,-4,1,-2,0,-5,-2,2021-08-07 12:45:05,491039
2,2,4,1,5,2,1,0,2021-08-07 12:45:05,491039
3,3,3,6,11,6,5,3,2021-08-07 12:45:05,507040
0,-2,-1,-4,-10,-6,-3,-1,2021-08-07 12:45:05,523039
-3,-5,-7,-13,-12,-10,-5,-6,2021-08-07 12:45:05,523039
-2,-1,-4,-3,-11,-6,-2,-2,2021-08-07 12:45:05,523039
-3,-3,-5,-11,-7,-2,-3,-3,2021-08-07 12:45:05,523039
2,-2,0,2,5,1,0,-2,2021-08-07 12:45:05,523039
-1,-4,0,1,0,-1,-1,0,2021-08-07 12:45:05,524041
9,12,10,14,22,15,8,7,2021-08-07 12:45:05,524041
0,0,0,5,3,1,2,-1,2021-08-07 12:45:05,524041
-4,-3,-4,-5,-2,0,-3,-1,2021-08-07 12:45:05,524041
-3,-2,-4,-11,-16,-10,-5,-6,2021-08-07 12:45:05,524041
-3,-5,-3,-8,-13,-7,-5,-4,2021-08-07 12:45:05,525041
-2,0,-1,2,5,2,0,-2,2021-08-07 12:45:05,525041
-3,-5,-5,-10,-14,-8,-4,-3,2021-08-07 12:45:05,525041
2,3,0,-2,3,5,2,4,2021-08-07 12:45:05,525041
3,4,4,11,20,15,7,4,2021-08-07 12:45:05,525041
-1,1,3,3,4,0,-1,-2,2021-08-07 12:45:05,526040
-1,1,-1,-1,-3,-4,-2,-2,2021-08-07 12:45:05,526040
-4,-2,-2,-4,-10,-7,-4,-3,2021-08-07 12:45:05,539040
-3,-5,-6,-12,-15,-10,-5,-3,2021-08-07 12:45:05,554040
-2,-2,-4,-8,-12,-5,-2,-1,2021-08-07 12:45:05,554040
-2,-4,-3,-7,-2,-5,-5,-3,2021-08-07 12:45:05,554040
6,7,5,9,14,11,6,5,2021-08-07 12:45:05,554040
-1,-2,-1,6,8,5,0,-1,2021-08-07 12:45:05,555040
2,3,3,9,10,3,3,1,2021-08-07 12:45:05,555040
-2,0,-1,0,-4,-4,-2,-1,2021-08-07 12:45:05,570041
-2,-1,-3,-9,-13,-8,-3,-1,2021-08-07 12:45:05,586038
-9,-14,-11,-25,-36,-21,-13,-8,2021-08-07 12:45:05,586038
10,13,14,21,41,27,14,10,2021-08-07 12:45:05,586038
4,5,7,9,8,4,3,3,2021-08-07 12:45:05,586038
2,2,-3,2,10,3,2,1,2021-08-07 12:45:05,586038
0,1,-3,-3,-5,-4,-1,-1,2021-08-07 12:45:05,586038
-6,-8,-8,-10,-21,-15,-9,-5,2021-08-07 12:45:05,586038
3,3,3,2,2,3,2,0,2021-08-07 12:45:05,586038
0,-1,4,9,3,4,1,0,2021-08-07 12:45:05,587039
-3,-1,-4,-6,-3,-3,-1,-2,2021-08-07 12:45:05,587039
0,0,2,5,10,5,2,1,2021-08-07 12:45:05,587039
2,3,1,4,11,9,3,2,2021-08-07 12:45:05,587039
-3,-3,-4,-11,-11,-7,-5,-2,2021-08-07 12:45:05,601040
-1,-1,-2,-5,-4,-4,-1,1,2021-08-07 12:45:05,617041
-4,-2,-3,-6,-9,-7,-4,-2,2021-08-07 12:45:05,617041
-7,-8,-8,-2,-3,-3,-4,-4,2021-08-07 12:45:05,617041
9,11,11,2,0,5,6,8,2021-08-07 12:45:05,617041
6,9,10,27,35,19,10,6,2021-08-07 12:45:05,617041
-1,0,-2,5,5,0,2,-1,2021-08-07 12:45:05,618041
-2,-1,-3,-7,-10,-4,-1,-1,2021-08-07 12:45:05,618041
-8,-7,-3,-5,-1,-6,-5,-6,2021-08-07 12:45:05,648041
-3,-1,-4,-7,-7,-5,-4,-2,2021-08-07 12:45:05,649040
-6,-9,-15,-15,-21,-11,-5,-5,2021-08-07 12:45:05,649040
2,5,7,7,8,4,4,4,2021-08-07 12:45:05,649040
1,-1,1,6,11,4,0,0,2021-08-07 12:45:05,665039
2,3,3,2,0,0,-1,0,2021-08-07 12:45:05,665039
-4,-7,-4,-4,-7,-3,-5,-5,2021-08-07 12:45:05,665039
1,5,3,1,0,1,1,2,2021-08-07 12:45:05,665039
-2,0,1,4,5,2,-1,-2,2021-08-07 12:45:05,681040
-1,-2,-2,-5,-5,-2,0,-2,2021-08-07 12:45:05,681040
-5,-6,-8,-16,-17,-7,-6,-5,2021-08-07 12:45:05,681040
5,5,5,12,15,9,6,4,2021-08-07 12:45:05,681040
3,4,3,3,9,8,3,2,2021-08-07 12:45:05,712041
-5,-5,-5,-3,-6,-4,-2,-4,2021-08-07 12:45:05,727554
2,3,3,-3,-5,-6,-2,0,2021-08-07 12:45:05,743556
-4,-7,-4,-7,-9,-6,-6,-6,2021-08-07 12:45:05,743556
-2,-3,-5,6,3,-1,0,-1,2021-08-07 12:45:05,743556
4,4,6,6,-1,0,0,2,2021-08-07 12:45:05,743556
-3,-4,-2,-13,-14,-7,-6,-1,2021-08-07 12:45:05,759555
2,2,1,7,23,15,6,3,2021-08-07 12:45:05,759555
-6,-7,-11,-12,-18,-13,-8,-6,2021-08-07 12:45:05,759555
4,8,7,1,5,6,4,4,2021-08-07 12:45:05,759555
0,1,3,5,1,-4,-2,-2,2021-08-07 12:45:05,759555
-4,-4,-6,-6,-13,-5,-4,-4,2021-08-07 12:45:05,759555
-3,-4,-6,-5,-3,-3,-4,-3,2021-08-07 12:45:05,760555
-4,-6,-2,0,-5,-5,-3,-4,2021-08-07 12:45:05,760555
6,6,3,4,14,9,5,4,2021-08-07 12:45:05,760555
-4,-6,-8,-10,-11,-8,-6,-6,2021-08-07 12:45:05,760555
0,1,0,-5,-1,0,0,0,2021-08-07 12:45:05,790556
-2,-2,-3,-2,2,0,-2,-1,2021-08-07 12:45:05,806555
-2,-3,0,0,-4,-4,-2,-3,2021-08-07 12:45:05,806555
-2,-2,0,2,-3,-5,-1,-1,2021-08-07 12:45:05,822554
7,8,9,24,24,15,8,4,2021-08-07 12:45:05,838555
0,-3,-2,-8,-7,-4,-2,-1,2021-08-07 12:45:05,854555
-2,-2,-2,-6,6,6,2,0,2021-08-07 12:45:05,870555
0,-1,-5,-4,-3,-2,-2,-2,2021-08-07 12:45:05,870555
-5,-6,-4,-8,-17,-10,-6,-4,2021-08-07 12:45:05,870555
-3,-2,-3,-9,-10,-5,-3,-3,2021-08-07 12:45:05,870555
3,4,9,24,22,9,6,3,2021-08-07 12:45:05,870555
2,1,2,-6,-6,-2,-1,1,2021-08-07 12:45:05,870555
3,1,0,8,16,8,4,3,2021-08-07 12:45:05,870555
2,-1,-3,0,-1,-1,0,1,2021-08-07 12:45:05,871556
-2,-7,-6,-7,-4,-2,-2,-2,2021-08-07 12:45:05,871556
-4,-2,-1,-3,-2,0,-2,-3,2021-08-07 12:45:05,871556
-3,1,4,3,1,-1,-1,-4,2021-08-07 12:45:05,871556
-6,-4,-2,-5,-7,-7,-5,-6,2021-08-07 12:45:05,871556
5,5,4,-1,-5,-1,-1,2,2021-08-07 12:45:05,872555
-2,-4,-4,-4,1,2,1,-1,2021-08-07 12:45:05,872555
3,1,0,-3,-3,-2,1,3,2021-08-07 12:45:05,872555
0,0,-3,5,1,2,1,1,2021-08-07 12:45:05,872555
-1,-2,-4,-5,-6,-1,-2,-1,2021-08-07 12:45:05,885555
1,-1,-3,-6,-4,-4,-1,0,2021-08-07 12:45:05,901553
-2,-3,-6,-15,-17,-8,-4,-2,2021-08-07 12:45:05,917556
1,-1,-2,0,9,6,3,-1,2021-08-07 12:45:05,917556
-1,2,3,11,6,0,1,0,2021-08-07 12:45:05,917556
2,3,6,7,8,6,3,3,2021-08-07 12:45:05,917556
-2,-4,-7,-8,-13,-4,-1,0,2021-08-07 12:45:05,917556
2,3,2,5,9,6,4,2,2021-08-07 12:45:05,918556
-5,-5,-3,3,3,1,0,-2,2021-08-07 12:45:05,918556
-2,1,-1,-8,-11,-9,-4,-3,2021-08-07 12:45:05,918556
1,1,1,-6,-1,-2,-2,0,2021-08-07 12:45:05,948554
-3,-2,0,-2,-6,-2,-2,-2,2021-08-07 12:45:05,964555
-1,0,2,-3,4,2,1,-1,2021-08-07 12:45:05,964555
-5,-8,-16,-6,-14,-9,-4,-4,2021-08-07 12:45:05,964555
0,2,4,5,-5,-3,-2,-1,2021-08-07 12:45:05,964555
2,-1,1,9,11,6,2,2,2021-08-07 12:45:05,964555
5,7,8,11,16,7,5,4,2021-08-07 12:45:05,965556
-4,-4,-3,-11,-11,-7,-5,-3,2021-08-07 12:45:05,965556
-3,-3,-7,-4,-4,-1,-1,-2,2021-08-07 12:45:05,995555
-2,-3,-4,-13,-7,-5,-3,-2,2021-08-07 12:45:05,995555
-3,-2,-4,-6,-7,-5,-4,-4,2021-08-07 12:45:05,995555
4,7,8,15,13,8,4,5,2021-08-07 12:45:05,995555
-3,-1,-2,0,-4,-4,-1,-1,2021-08-07 12:45:05,995555
0,1,3,4,3,0,-1,-1,2021-08-07 12:45:05,995555
-2,-2,-4,1,-2,-1,-1,-2,2021-08-07 12:45:05,996555
2,1,2,0,2,1,0,2,2021-08-07 12:45:05,996555
-3,-5,-5,-7,-3,-4,-5,-2,2021-08-07 12:45:06,027554
0,1,1,2,5,3,3,0,2021-08-07 12:45:06,043554
-1,-4,-7,-14,-17,-9,-5,-1,2021-08-07 12:45:06,043554
0,0,2,4,3,3,1,1,2021-08-07 12:45:06,043554
-3,-2,0,4,6,2,1,-2,2021-08-07 12:45:06,043554
1,2,2,3,0,-1,1,0,2021-08-07 12:45:06,043554
-1,1,1,-1,-5,-4,-1,-1,2021-08-07 12:45:06,043554
-1,-1,-1,1,10,8,4,-1,2021-08-07 12:45:06,044555
2,1,4,4,6,2,1,3,2021-08-07 12:45:06,059554
-3,-3,-6,-9,-5,-2,-3,-1,2021-08-07 12:45:06,059554
-1,0,1,-4,-6,-3,-1,-1,2021-08-07 12:45:06,059554
-4,-4,-2,-1,-11,-8,-4,-2,2021-08-07 12:45:06,075554
-2,-1,-1,-10,-19,-7,-3,-3,2021-08-07 12:45:06,091553
2,-1,1,10,18,11,5,1,2021-08-07 12:45:06,091553
4,5,5,10,20,11,5,5,2021-08-07 12:45:06,091553
-3,-3,-4,-3,-2,-5,-5,-4,2021-08-07 12:45:06,091553
1,-1,0,2,4,2,1,0,2021-08-07 12:45:06,091553
-3,-4,-3,-7,-14,-8,-5,-5,2021-08-07 12:45:06,091553
-8,-7,-7,-11,-18,-11,-8,-7,2021-08-07 12:45:06,107555
4,2,3,0,2,3,4,3,2021-08-07 12:45:06,107555
1,2,5,6,4,4,1,1,2021-08-07 12:45:06,123555
2,2,4,8,11,4,0,2,2021-08-07 12:45:06,139555
-3,-4,-7,2,3,0,-2,-2,2021-08-07 12:45:06,155553
0,-1,-2,-11,-13,-9,-4,-4,2021-08-07 12:45:06,155553
-4,-4,-4,-9,-11,-11,-5,-4,2021-08-07 12:45:06,155553
-1,-1,-3,-10,-15,-7,-2,-2,2021-08-07 12:45:06,155553
3,5,5,18,28,18,8,5,2021-08-07 12:45:06,171555
0,0,-2,-5,2,1,0,1,2021-08-07 12:45:06,187553
1,2,0,4,16,10,4,2,2021-08-07 12:45:06,187553
-1,-2,-2,-1,-3,-4,-1,0,2021-08-07 12:45:06,187553
-3,-4,-3,-6,-15,-11,-5,-6,2021-08-07 12:45:06,187553
-3,-4,-5,-1,-6,-7,-4,-3,2021-08-07 12:45:06,187553
6,12,10,7,13,12,9,7,2021-08-07 12:45:06,187553
-3,-3,-5,-2,-3,-3,-2,-2,2021-08-07 12:45:06,203555
4,4,3,-5,-11,-1,2,2,2021-08-07 12:45:06,203555
0,-1,1,8,15,9,2,-1,2021-08-07 12:45:06,203555
-7,-8,-7,-9,-14,-14,-8,-7,2021-08-07 12:45:06,203555
-1,-3,-4,-11,-14,-9,-4,-1,2021-08-07 12:45:06,203555
-2,-3,-3,7,14,7,1,-2,2021-08-07 12:45:06,203555
-5,-6,-6,-9,-12,-8,-6,-4,2021-08-07 12:45:06,204556
7,10,9,7,10,9,7,6,2021-08-07 12:45:06,219556
1,2,1,-2,-8,-4,-2,-1,2021-08-07 12:45:06,219556
-3,-6,-5,-7,-7,-4,-3,-2,2021-08-07 12:45:06,219556
-1,-1,1,4,0,-1,-2,-3,2021-08-07 12:45:06,219556
-5,-8,-7,-3,-6,-8,-5,-4,2021-08-07 12:45:06,251555
-1,0,-2,-10,-13,-4,1,0,2021-08-07 12:45:06,251555
-1,-2,0,-5,-1,-1,-2,0,2021-08-07 12:45:06,251555
2,3,6,16,25,14,5,3,2021-08-07 12:45:06,251555
0,0,-5,1,1,2,-1,-2,2021-08-07 12:45:06,267555
-3,-1,-3,-3,-1,-1,-1,-1,2021-08-07 12:45:06,283554
-3,-4,-5,-6,-8,-7,-5,-2,2021-08-07 12:45:06,315555
3,3,9,0,-4,1,1,4,2021-08-07 12:45:06,331555
-2,-3,-11,-1,0,-1,0,-1,2021-08-07 12:45:06,331555
-1,1,0,-1,-1,0,0,0,2021-08-07 12:45:06,331555
-1,-2,-3,-4,-5,-2,0,-3,2021-08-07 12:45:06,331555
0,0,-1,3,12,6,3,0,2021-08-07 12:45:06,331555
-3,-5,1,-2,-10,-7,-4,-3,2021-08-07 12:45:06,331555
0,0,0,4,9,5,0,2,2021-08-07 12:45:06,331555
9,13,11,17,19,9,7,6,2021-08-07 12:45:06,331555
0,-1,-4,-8,-9,-4,-3,-2,2021-08-07 12:45:06,332554
-1,-3,-2,-4,-1,-2,-1,-1,2021-08-07 12:45:06,332554
-2,-4,-3,-4,-3,-4,-3,-2,2021-08-07 12:45:06,332554
-7,-10,-7,-10,-17,-13,-8,-7,2021-08-07 12:45:06,332554
3,4,1,-1,-10,0,2,2,2021-08-07 12:45:06,332554
6,8,9,18,33,20,10,5,2021-08-07 12:45:06,347555
3,4,5,18,29,14,6,4,2021-08-07 12:45:06,347555
-1,-1,-3,-8,-7,-3,-1,-1,2021-08-07 12:45:06,347555
-5,-7,-8,-10,-12,-12,-5,-4,2021-08-07 12:45:06,347555
-3,-6,-3,-12,-24,-13,-7,-4,2021-08-07 12:45:06,363555
-4,-4,-2,-1,5,2,-2,-2,2021-08-07 12:45:06,379555
2,4,3,0,2,0,2,2,2021-08-07 12:45:06,395555
0,0,1,1,2,2,1,-2,2021-08-07 12:45:06,395555
-1,0,0,1,-4,-3,-3,-1,2021-08-07 12:45:06,395555
1,-2,-1,3,-3,-5,-2,-5,2021-08-07 12:45:06,395555
-3,-6,-7,-6,-10,-6,-5,-2,2021-08-07 12:45:06,395555
-3,-4,-5,-10,-12,-6,-3,-1,2021-08-07 12:45:06,411555
6,6,8,1,13,8,5,5,2021-08-07 12:45:06,411555
-1,0,-1,0,-2,-2,-2,-2,2021-08-07 12:45:06,411555
0,0,-9,-1,-1,0,0,0,2021-08-07 12:45:06,411555
-3,-3,0,-2,-3,-3,-3,-1,2021-08-07 12:45:06,411555
-6,-7,-7,-7,-11,-7,-5,-5,2021-08-07 12:45:06,427554
4,4,6,4,-1,0,2,2,2021-08-07 12:45:06,443555
1,4,7,7,16,10,5,3,2021-08-07 12:45:06,475555
1,4,0,10,15,7,3,1,2021-08-07 12:45:06,490557
-3,-7,-7,-20,-27,-14,-9,-5,2021-08-07 12:45:06,506555
-1,-2,-3,-1,12,9,3,1,2021-08-07 12:45:06,522553
-3,-3,-3,-2,2,-2,-2,-2,2021-08-07 12:45:06,522553
-1,-2,-1,2,-3,-3,-1,1,2021-08-07 12:45:06,522553
4,6,7,15,14,7,4,4,2021-08-07 12:45:06,522553
-4,-6,-6,-15,-24,-15,-9,-5,2021-08-07 12:45:06,522553
-1,-3,1,-9,-6,-1,0,0,2021-08-07 12:45:06,522553
3,2,4,14,24,11,5,2,2021-08-07 12:45:06,522553
2,0,1,1,-5,-3,-1,0,2021-08-07 12:45:06,522553
3,4,3,9,6,4,4,4,2021-08-07 12:45:06,522553
1,2,8,-2,9,4,2,0,2021-08-07 12:45:06,522553
-2,-4,-16,-9,-10,-5,-2,-2,2021-08-07 12:45:06,523556
-2,-2,-3,3,2,0,0,-2,2021-08-07 12:45:06,523556
0,4,2,6,1,0,-1,0,2021-08-07 12:45:06,523556
-2,-2,0,-6,-11,-9,-3,-2,2021-08-07 12:45:06,523556
-4,-4,-1,-8,-17,-10,-5,-3,2021-08-07 12:45:06,523556
2,1,-2,1,9,12,5,2,2021-08-07 12:45:06,523556
0,-2,-4,-7,-7,-4,-3,-3,2021-08-07 12:45:06,524555
0,0,0,1,-1,0,0,-1,2021-08-07 12:45:06,524555
-2,-2,2,4,0,-3,-2,-3,2021-08-07 12:45:06,524555
-4,-5,-5,-12,-16,-9,-5,-2,2021-08-07 12:45:06,537554
5,6,5,17,30,17,9,5,2021-08-07 12:45:06,537554
-3,-3,-3,-1,-8,-5,-2,-2,2021-08-07 12:45:06,542555
1,1,-1,-5,8,5,1,0,2021-08-07 12:45:06,542555
