EMG 1,EMG 2,EMG 3,EMG 4,EMG 5,EMG 6,EMG 7,EMG 8,Timestamp,Milliseconds
0,1,1,1,1,2,1,0,2021-08-07 12:44:49,854701
-3,-6,-6,-3,-7,-6,-3,-3,2021-08-07 12:44:49,854701
2,4,2,2,12,8,5,1,2021-08-07 12:44:49,854701
1,1,3,4,5,0,1,1,2021-08-07 12:44:49,854701
1,1,2,0,0,-1,2,0,2021-08-07 12:44:49,854701
-2,-5,-10,-5,-5,-4,-3,-3,2021-08-07 12:44:49,854701
-2,-3,-1,-2,-5,-6,-4,-2,2021-08-07 12:44:49,854701
1,3,3,1,6,5,3,2,2021-08-07 12:44:49,855700
1,-1,3,1,0,0,0,-1,2021-08-07 12:44:49,855700
-1,1,3,1,-1,0,-1,0,2021-08-07 12:44:49,855700
-3,-2,-1,0,-1,-3,-2,-1,2021-08-07 12:44:49,870701
-1,-3,-2,-3,-2,-1,0,-1,2021-08-07 12:44:49,870701
-2,-3,-2,-3,-2,-3,-3,-1,2021-08-07 12:44:49,870701
-2,-2,-2,-9,-12,-7,-4,-2,2021-08-07 12:44:49,870701
1,0,1,7,16,10,4,0,2021-08-07 12:44:49,902700
1,1,3,4,4,2,0,0,2021-08-07 12:44:49,902700
1,0,-2,0,-2,-1,2,0,2021-08-07 12:44:49,902700
-3,-2,-3,-5,-5,-6,-3,-2,2021-08-07 12:44:49,902700
-3,-1,0,-1,-6,-4,-3,-3,2021-08-07 12:44:49,918700
-1,-3,-1,-2,-1,-3,-2,-3,2021-08-07 12:44:49,918700
-3,-5,-8,-17,-10,-4,-5,-2,2021-08-07 12:44:49,918700
4,7,9,8,7,5,3,3,2021-08-07 12:44:49,918700
1,0,0,1,6,3,2,1,2021-08-07 12:44:49,965702
-2,-3,-3,-5,-7,-4,-3,-2,2021-08-07 12:44:49,965702
-3,-4,-3,-7,-13,-8,-5,-3,2021-08-07 12:44:49,965702
1,1,3,2,8,5,3,1,2021-08-07 12:44:49,965702
2,3,2,4,7,4,2,1,2021-08-07 12:44:49,965702
-1,-3,-1,0,-4,-3,-3,-1,2021-08-07 12:44:49,981701
-1,2,1,3,1,-2,-1,-1,2021-08-07 12:44:49,997701
0,-1,-4,-6,-10,-5,-2,-1,2021-08-07 12:44:49,999701
1,0,-2,-5,-6,-2,0,2,2021-08-07 12:44:49,999701
1,0,0,4,8,3,2,3,2021-08-07 12:44:49,999701
-4,-5,-5,-3,-4,0,-1,-2,2021-08-07 12:44:49,999701
-3,-3,-1,1,2,1,-2,-3,2021-08-07 12:44:50,000704
-2,-1,3,4,2,0,-1,-3,2021-08-07 12:44:50,013700
-2,-1,0,-4,-9,-5,-3,-3,2021-08-07 12:44:50,029702
0,0,0,1,3,0,-1,1,2021-08-07 12:44:50,029702
1,1,0,2,3,4,1,0,2021-08-07 12:44:50,029702
0,0,0,-2,-4,-3,-2,0,2021-08-07 12:44:50,045704
0,-1,0,-4,-2,-1,1,-1,2021-08-07 12:44:50,061702
-3,-1,-3,-2,0,-2,-3,-3,2021-08-07 12:44:50,061702
-1,-1,-2,-3,-6,-4,-1,0,2021-08-07 12:44:50,061702
1,-1,-1,3,4,1,0,0,2021-08-07 12:44:50,061702
0,-1,0,-2,-4,-3,-3,-1,2021-08-07 12:44:50,061702
1,-1,0,-3,0,4,1,-1,2021-08-07 12:44:50,061702
-1,0,-1,-1,-2,0,-1,-1,2021-08-07 12:44:50,061702
-3,-1,-3,2,9,6,3,-1,2021-08-07 12:44:50,062702
0,3,2,6,3,0,1,0,2021-08-07 12:44:50,062702
1,1,1,5,13,7,2,1,2021-08-07 12:44:50,077701
-1,-2,-2,-5,-11,-8,-5,-2,2021-08-07 12:44:50,093700
-2,-5,-4,-5,-10,-6,-5,-1,2021-08-07 12:44:50,093700
-3,-2,-3,-5,-3,-1,-2,-2,2021-08-07 12:44:50,093700
0,2,3,3,2,-1,1,0,2021-08-07 12:44:50,093700
0,1,-1,-1,-1,0,-2,0,2021-08-07 12:44:50,093700
0,-2,-3,-6,-7,-4,-2,-1,2021-08-07 12:44:50,093700
-2,-3,-3,-2,-2,-1,-3,-1,2021-08-07 12:44:50,094702
-3,-4,-3,-6,-6,-3,-1,-3,2021-08-07 12:44:50,124700
-1,0,0,2,4,1,0,0,2021-08-07 12:44:50,124700
-1,1,0,3,4,2,1,1,2021-08-07 12:44:50,124700
-3,-3,-4,-10,-11,-8,-4,-3,2021-08-07 12:44:50,124700
3,4,3,8,15,11,5,4,2021-08-07 12:44:50,140701
-2,-1,0,-1,2,2,1,-2,2021-08-07 12:44:50,140701
-2,0,-2,0,-3,-3,-1,-2,2021-08-07 12:44:50,140701
-1,-1,2,3,-1,-2,-2,0,2021-08-07 12:44:50,140701
-4,-3,-5,-7,-9,-7,-5,-2,2021-08-07 12:44:50,156700
-2,-2,-5,-15,-17,-12,-7,-1,2021-08-07 12:44:50,156700
4,4,7,12,17,11,3,2,2021-08-07 12:44:50,156700
2,3,0,4,6,5,3,2,2021-08-07 12:44:50,156700
-1,-2,-1,7,8,0,0,0,2021-08-07 12:44:50,172700
0,-2,-1,2,3,2,1,1,2021-08-07 12:44:50,188700
-4,-4,-4,-9,-19,-14,-6,-2,2021-08-07 12:44:50,204701
1,5,3,7,13,12,7,2,2021-08-07 12:44:50,220702
-3,-3,-5,-1,-2,-1,-2,-3,2021-08-07 12:44:50,220702
2,6,4,-1,-3,-2,0,2,2021-08-07 12:44:50,220702
-2,-2,-5,-4,-8,-6,-4,-2,2021-08-07 12:44:50,236701
-1,-1,-1,2,4,1,-2,0,2021-08-07 12:44:50,236701
-1,-3,-3,-8,-8,-4,-1,-3,2021-08-07 12:44:50,236701
1,1,2,5,5,4,2,0,2021-08-07 12:44:50,236701
0,-1,-1,-1,-3,0,0,-1,2021-08-07 12:44:50,236701
-1,-4,-2,-1,-2,-2,-2,-3,2021-08-07 12:44:50,236701
0,-1,-1,-7,-7,-5,-1,-1,2021-08-07 12:44:50,236701
-1,-1,-1,5,2,1,0,1,2021-08-07 12:44:50,236701
0,2,1,2,3,1,1,0,2021-08-07 12:44:50,236701
0,1,0,1,2,3,-1,1,2021-08-07 12:44:50,237703
-3,-3,-2,-5,-10,-7,-4,-2,2021-08-07 12:44:50,267702
-1,-4,-2,-4,-8,-4,-3,-2,2021-08-07 12:44:50,283700
-1,-2,-1,9,17,9,4,1,2021-08-07 12:44:50,298702
4,6,5,7,15,9,5,3,2021-08-07 12:44:50,314702
-2,-2,-1,-5,-7,-4,-3,-2,2021-08-07 12:44:50,329702
0,0,-1,4,2,-1,0,0,2021-08-07 12:44:50,329702
-1,-1,-1,-3,-4,-3,0,-2,2021-08-07 12:44:50,329702
-3,-3,-4,-7,-11,-7,-4,-1,2021-08-07 12:44:50,345701
-3,-2,-5,-4,-3,-3,-4,-3,2021-08-07 12:44:50,361701
4,4,3,2,7,4,3,2,2021-08-07 12:44:50,361701
-2,-2,-2,-6,-11,-6,-3,-2,2021-08-07 12:44:50,361701
2,2,4,13,17,8,7,3,2021-08-07 12:44:50,361701
-2,-2,-2,-10,-12,-4,-3,0,2021-08-07 12:44:50,377702
-3,-6,-7,-8,-6,-5,-4,-3,2021-08-07 12:44:50,377702
2,0,0,-1,-3,2,0,-1,2021-08-07 12:44:50,377702
1,3,0,-1,2,2,1,0,2021-08-07 12:44:50,377702
4,3,3,6,5,3,2,2,2021-08-07 12:44:50,378243
-1,-2,0,-4,-7,-7,-3,-1,2021-08-07 12:44:50,378243
-2,-2,-2,-5,-13,-8,-4,-2,2021-08-07 12:44:50,378243
-1,-3,-2,-2,2,4,1,0,2021-08-07 12:44:50,378243
0,0,1,6,7,3,0,2,2021-08-07 12:44:50,378243
0,0,0,4,12,5,2,1,2021-08-07 12:44:50,378243
-4,-2,-4,-7,-8,-5,-5,-1,2021-08-07 12:44:50,378243
-1,-2,-1,-4,-7,-5,-4,-4,2021-08-07 12:44:50,378243
0,1,0,1,-2,-2,0,0,2021-08-07 12:44:50,378243
-3,-4,-4,-2,-3,-2,-3,-5,2021-08-07 12:44:50,378243
0,-1,-1,1,5,3,1,-1,2021-08-07 12:44:50,378243
-3,-5,-6,-12,-16,-11,-6,-3,2021-08-07 12:44:50,379222
3,5,5,6,10,5,3,3,2021-08-07 12:44:50,393741
1,1,1,8,9,3,1,2,2021-08-07 12:44:50,393741
-1,-1,-1,-1,2,1,-1,0,2021-08-07 12:44:50,393741
-5,-7,-5,-4,-9,-5,-4,-3,2021-08-07 12:44:50,409739
-4,-3,-5,-5,-10,-6,-3,-3,2021-08-07 12:44:50,409739
-3,-1,-2,-15,-15,-8,-2,-3,2021-08-07 12:44:50,409739
2,3,4,7,20,13,6,2,2021-08-07 12:44:50,409739
0,-2,-2,-2,-2,-5,-2,-2,2021-08-07 12:44:50,409739
0,-2,-1,2,9,4,4,1,2021-08-07 12:44:50,439742
-1,0,1,5,4,-1,2,-1,2021-08-07 12:44:50,439742
-1,1,-3,-5,-8,-5,-1,0,2021-08-07 12:44:50,439742
-1,-1,-1,0,-2,-1,-2,0,2021-08-07 12:44:50,439742
1,-1,1,-3,-5,-3,0,0,2021-08-07 12:44:50,471743
0,-1,-1,1,4,3,-1,-1,2021-08-07 12:44:50,471743
2,2,4,-1,-5,-4,0,0,2021-08-07 12:44:50,487741
-2,-1,-1,-2,-1,1,0,-1,2021-08-07 12:44:50,503739
-1,-1,-2,-2,-2,-2,-3,-2,2021-08-07 12:44:50,503739
0,2,1,9,16,10,4,2,2021-08-07 12:44:50,503739
1,-1,0,1,5,2,1,0,2021-08-07 12:44:50,503739
-5,-3,-6,-7,-9,-7,-4,-4,2021-08-07 12:44:50,504741
1,5,4,2,-1,0,0,2,2021-08-07 12:44:50,504741
-2,-5,-5,-10,-14,-8,-6,-3,2021-08-07 12:44:50,504741
-1,-2,2,1,2,-2,-1,-1,2021-08-07 12:44:50,504741
2,2,0,5,5,3,1,0,2021-08-07 12:44:50,504741
-1,-1,-3,-4,-6,-2,0,-2,2021-08-07 12:44:50,519739
0,0,2,3,1,1,-1,0,2021-08-07 12:44:50,535739
-2,-1,-1,-2,-4,-3,-1,-1,2021-08-07 12:44:50,535739
-2,0,-2,-5,-6,-2,-2,-1,2021-08-07 12:44:50,535739
-1,-2,-1,0,5,1,-2,-1,2021-08-07 12:44:50,535739
1,2,3,2,1,3,2,1,2021-08-07 12:44:50,535739
-3,-2,-2,-1,-2,-2,-3,-2,2021-08-07 12:44:50,535739
0,0,-2,1,2,0,-1,-1,2021-08-07 12:44:50,536741
2,0,1,0,1,1,0,1,2021-08-07 12:44:50,566742
-1,-1,-2,-3,-5,-3,-2,-2,2021-08-07 12:44:50,582739
0,1,3,2,5,4,2,1,2021-08-07 12:44:50,582739
1,-1,1,-1,-2,-2,-1,-1,2021-08-07 12:44:50,582739
0,-1,-2,-3,-3,-5,-1,-2,2021-08-07 12:44:50,582739
-1,-3,-4,-10,-12,-7,-4,-1,2021-08-07 12:44:50,583741
1,2,3,15,15,12,5,2,2021-08-07 12:44:50,598742
0,1,0,-2,4,-1,0,-1,2021-08-07 12:44:50,614740
-1,-3,-1,3,1,3,1,0,2021-08-07 12:44:50,614740
1,1,3,3,5,3,1,-2,2021-08-07 12:44:50,614740
-3,-5,-6,-9,-17,-12,-6,-3,2021-08-07 12:44:50,614740
-5,-6,-4,-8,-9,-7,-4,-4,2021-08-07 12:44:50,614740
-1,0,2,0,3,0,-1,0,2021-08-07 12:44:50,615742
-2,1,-3,1,-5,-3,-3,0,2021-08-07 12:44:50,615742
2,4,3,6,1,2,0,1,2021-08-07 12:44:50,615742
-1,-2,1,-1,-4,-4,-1,-1,2021-08-07 12:44:50,615742
-3,-6,-9,-12,-4,0,0,-2,2021-08-07 12:44:50,646739
-2,-5,-6,-10,0,1,-1,0,2021-08-07 12:44:50,646739
2,0,-4,-5,-1,-1,-1,0,2021-08-07 12:44:50,662740
-4,-4,0,-4,-27,-22,-10,-7,2021-08-07 12:44:50,662740
1,-1,4,1,-4,5,3,0,2021-08-07 12:44:50,662740
9,11,18,46,83,52,24,10,2021-08-07 12:44:50,662740
-4,-3,-5,-9,-16,-11,-7,-3,2021-08-07 12:44:50,662740
2,1,0,-5,5,6,2,2,2021-08-07 12:44:50,662740
-4,-3,-5,-14,-23,-17,-9,-5,2021-08-07 12:44:50,678741
-7,-7,-8,-15,-40,-27,-12,-7,2021-08-07 12:44:50,694259
0,0,6,11,27,17,8,2,2021-08-07 12:44:50,694259
0,1,-7,2,1,-2,0,1,2021-08-07 12:44:50,694259
-1,0,-2,0,-6,-4,-1,-1,2021-08-07 12:44:50,694259
0,0,-1,-5,-5,-3,-1,0,2021-08-07 12:44:50,694259
-3,-3,-2,-5,-7,-5,-3,-2,2021-08-07 12:44:50,694259
-1,-2,3,-2,-1,3,0,-1,2021-08-07 12:44:50,694259
2,2,2,9,15,6,4,0,2021-08-07 12:44:50,725259
-1,-1,-3,1,-6,-5,-2,-1,2021-08-07 12:44:50,725259
-1,0,-2,-5,-7,-4,-3,-3,2021-08-07 12:44:50,725259
1,1,1,-5,2,5,3,2,2021-08-07 12:44:50,725259
-1,-1,-1,-1,-2,0,-2,-2,2021-08-07 12:44:50,741260
3,4,7,13,23,12,4,3,2021-08-07 12:44:50,757256
-4,-8,-7,-7,-9,-8,-6,-4,2021-08-07 12:44:50,757256
-1,-3,-4,-6,-11,-9,-5,-2,2021-08-07 12:44:50,757256
2,4,2,-3,-5,0,3,4,2021-08-07 12:44:50,757256
1,2,0,4,15,9,5,3,2021-08-07 12:44:50,757256
1,-1,-2,-2,-6,-3,-1,0,2021-08-07 12:44:50,757256
-1,-4,-3,4,4,1,1,-2,2021-08-07 12:44:50,758259
-5,-6,-6,-7,-17,-15,-8,-5,2021-08-07 12:44:50,773258
-2,-5,-4,-3,-10,-5,-3,-6,2021-08-07 12:44:50,789257
4,7,8,10,21,13,7,3,2021-08-07 12:44:50,789257
-2,0,2,-4,-5,-3,-3,-2,2021-08-07 12:44:50,789257
-1,0,-2,-2,-2,-4,-3,0,2021-08-07 12:44:50,789257
-5,-8,-7,-10,-12,-6,-6,-5,2021-08-07 12:44:50,789257
2,2,1,-3,0,0,1,2,2021-08-07 12:44:50,790259
2,4,5,6,2,2,2,4,2021-08-07 12:44:50,790259
0,-1,5,4,11,5,3,0,2021-08-07 12:44:50,821261
-4,-3,-10,-17,-28,-17,-8,-2,2021-08-07 12:44:50,821261
-6,-7,-7,-11,-18,-8,-7,-6,2021-08-07 12:44:50,821261
3,2,4,20,46,29,13,6,2021-08-07 12:44:50,821261
0,2,2,4,6,1,-1,0,2021-08-07 12:44:50,837257
0,0,-2,-3,-8,-7,-2,-1,2021-08-07 12:44:50,837257
1,4,0,-7,-13,-8,-2,0,2021-08-07 12:44:50,837257
-3,-3,-3,0,-1,1,-1,-3,2021-08-07 12:44:50,837257
-1,-2,0,4,12,6,3,-1,2021-08-07 12:44:50,853265
-1,-2,1,7,9,4,1,4,2021-08-07 12:44:50,869258
-2,-2,-5,-4,-3,-3,-3,-3,2021-08-07 12:44:50,885258
0,2,2,-1,-10,-6,-3,-1,2021-08-07 12:44:50,885258
-1,-1,-4,-3,-6,-1,-2,-1,2021-08-07 12:44:50,885258
0,1,2,-16,-19,-10,-5,-2,2021-08-07 12:44:50,885258
-1,-2,-1,9,13,2,1,-1,2021-08-07 12:44:50,885258
0,-3,0,2,6,3,-1,-1,2021-08-07 12:44:50,886259
-1,-3,-3,3,3,1,3,0,2021-08-07 12:44:50,886259
1,4,4,1,2,2,0,-1,2021-08-07 12:44:50,886259
-1,-2,-2,-10,-12,-7,-2,-2,2021-08-07 12:44:50,907257
-2,1,3,1,-7,-6,-2,-2,2021-08-07 12:44:50,907257
1,0,0,9,16,9,2,2,2021-08-07 12:44:50,915258
-1,-1,1,-1,-5,-4,-2,-1,2021-08-07 12:44:50,930259
-2,-5,-3,2,9,8,3,-1,2021-08-07 12:44:50,930259
4,4,3,4,6,4,3,1,2021-08-07 12:44:50,930259
-1,-2,-1,-1,-2,-3,-2,1,2021-08-07 12:44:50,946259
-1,1,1,-3,-3,-3,-1,0,2021-08-07 12:44:50,946259
-3,-4,-4,-7,-9,-5,-5,-3,2021-08-07 12:44:50,946259
1,-1,-1,5,7,4,2,2,2021-08-07 12:44:50,946259
0,0,0,0,0,2,0,0,2021-08-07 12:44:50,962257
-3,-3,-3,-2,1,1,-1,-1,2021-08-07 12:44:50,962257
0,1,0,3,-2,-4,-1,-2,2021-08-07 12:44:50,978258
-3,-1,0,0,1,1,-2,-1,2021-08-07 12:44:50,978258
0,3,2,-5,-12,-8,-3,-2,2021-08-07 12:44:50,978258
-2,-2,-4,-13,-25,-14,-5,-2,2021-08-07 12:44:50,978258
2,3,7,24,38,18,8,4,2021-08-07 12:44:50,978258
-1,-1,-2,5,16,8,3,-2,2021-08-07 12:44:50,978258
-1,-2,-3,-5,0,-1,1,-1,2021-08-07 12:44:51,009258
-2,-2,-1,-6,-10,-7,-4,-2,2021-08-07 12:44:51,009258
-2,-2,-5,-7,-18,-10,-3,0,2021-08-07 12:44:51,009258
-1,-2,3,-9,-17,-8,-4,-1,2021-08-07 12:44:51,009258
2,1,-2,11,16,7,3,1,2021-08-07 12:44:51,025257
0,0,3,5,17,12,4,1,2021-08-07 12:44:51,041258
-1,0,-1,-3,-5,-4,-1,-3,2021-08-07 12:44:51,041258
-4,-2,-5,-3,-12,-8,-4,-2,2021-08-07 12:44:51,057258
-1,-4,1,-3,-3,-2,-1,-3,2021-08-07 12:44:51,073259
1,2,0,1,0,0,1,-1,2021-08-07 12:44:51,073259
0,1,-1,-3,2,2,-1,0,2021-08-07 12:44:51,073259
-1,-1,-3,-7,-8,-5,-4,-1,2021-08-07 12:44:51,073259
1,4,4,2,-1,-1,0,0,2021-08-07 12:44:51,073259
-1,-1,1,6,7,2,0,-2,2021-08-07 12:44:51,073259
-1,-3,-1,-2,-8,-4,-2,-2,2021-08-07 12:44:51,074258
-3,-4,-7,-10,-9,-6,-4,-3,2021-08-07 12:44:51,074258
-3,-1,-4,-5,-7,-2,-3,-3,2021-08-07 12:44:51,074258
2,1,2,8,11,7,3,4,2021-08-07 12:44:51,074258
2,4,3,10,10,6,3,3,2021-08-07 12:44:51,089256
-2,0,-2,-2,-4,-3,0,-2,2021-08-07 12:44:51,089256
-2,-2,2,-10,-7,-4,-3,-1,2021-08-07 12:44:51,105259
-1,0,-8,-2,6,2,2,0,2021-08-07 12:44:51,121258
0,0,-2,-7,-5,-2,-1,-1,2021-08-07 12:44:51,121258
1,0,2,5,12,5,3,1,2021-08-07 12:44:51,121258
1,0,1,5,1,0,-1,0,2021-08-07 12:44:51,121258
-1,-2,-2,-5,-12,-9,-3,-2,2021-08-07 12:44:51,121258
-1,0,0,-1,-3,-1,1,0,2021-08-07 12:44:51,122258
1,1,0,-2,2,1,1,0,2021-08-07 12:44:51,122258
0,-1,0,-4,-3,-1,2,-1,2021-08-07 12:44:51,153259
-1,-4,-3,-4,-6,-4,-3,-3,2021-08-07 12:44:51,169257
-5,-5,-6,-4,-4,-4,-3,-4,2021-08-07 12:44:51,185258
2,2,3,1,-3,-2,-2,-1,2021-08-07 12:44:51,185258
2,0,-1,2,3,1,0,1,2021-08-07 12:44:51,185258
-1,0,-3,1,1,0,-2,0,2021-08-07 12:44:51,185258
-1,-3,-3,-9,-13,-7,-4,-3,2021-08-07 12:44:51,185258
-1,1,1,6,7,5,3,1,2021-08-07 12:44:51,185258
-2,-3,-1,3,1,-1,0,-2,2021-08-07 12:44:51,201258
4,2,5,6,7,5,2,1,2021-08-07 12:44:51,201258
-1,-3,-5,-9,-4,-2,-2,1,2021-08-07 12:44:51,201258
-1,0,-3,0,-1,-1,-1,-1,2021-08-07 12:44:51,201258
0,2,1,3,7,5,2,1,2021-08-07 12:44:51,201258
-3,-4,-5,-5,-1,1,-1,-3,2021-08-07 12:44:51,201258
3,4,7,3,6,5,2,0,2021-08-07 12:44:51,217257
-2,-3,-1,-1,-2,-4,-3,-1,2021-08-07 12:44:51,217257
-3,0,0,-1,-6,-4,-1,-1,2021-08-07 12:44:51,217257
-1,-3,-7,-5,-12,-9,-3,-3,2021-08-07 12:44:51,217257
1,0,3,3,6,3,1,-2,2021-08-07 12:44:51,233257
0,0,-1,0,0,-1,0,0,2021-08-07 12:44:51,249257
-2,-1,-1,-2,-3,-2,-2,0,2021-08-07 12:44:51,265257
-4,-3,-1,-7,-13,-10,-5,-2,2021-08-07 12:44:51,265257
-2,-1,-1,-3,-4,-3,-1,-1,2021-08-07 12:44:51,280259
1,0,0,11,22,16,6,1,2021-08-07 12:44:51,296256
-2,-1,-1,2,4,0,0,-1,2021-08-07 12:44:51,296256
1,1,0,1,2,-1,-1,1,2021-08-07 12:44:51,296256
-3,-3,-4,-8,-14,-12,-6,-3,2021-08-07 12:44:51,296256
-2,-4,-5,-18,-28,-16,-8,-2,2021-08-07 12:44:51,296256
2,3,2,8,16,15,6,3,2021-08-07 12:44:51,296256
1,1,2,8,11,4,1,0,2021-08-07 12:44:51,297258
0,0,-1,0,0,-1,-1,0,2021-08-07 12:44:51,297258
-3,-2,-5,-7,-7,-6,-4,-3,2021-08-07 12:44:51,297258
-3,-5,-6,-12,-17,-10,-7,-3,2021-08-07 12:44:51,297258
1,1,4,7,5,2,2,1,2021-08-07 12:44:51,297258
-3,-3,-1,-6,-4,-6,-1,-2,2021-08-07 12:44:51,298258
1,2,2,7,10,7,5,4,2021-08-07 12:44:51,298258
0,-1,-2,-6,-4,-5,-1,1,2021-08-07 12:44:51,327259
-4,-3,-4,-10,-21,-10,-5,-4,2021-08-07 12:44:51,339259
4,6,12,22,47,32,13,6,2021-08-07 12:44:51,339259
-5,-4,-10,-15,-25,-19,-11,-7,2021-08-07 12:44:51,339259
-1,-2,-3,-4,-14,-11,-6,-3,2021-08-07 12:44:51,339259
-1,-3,-1,2,13,10,3,0,2021-08-07 12:44:51,339259
0,3,0,8,2,1,1,1,2021-08-07 12:44:51,340259
-1,-4,0,-8,-13,-8,-3,-3,2021-08-07 12:44:51,340259
3,2,3,11,25,16,7,1,2021-08-07 12:44:51,359258
-3,-4,-8,-23,-35,-23,-10,-5,2021-08-07 12:44:51,359258
-3,-8,-8,-14,-26,-13,-8,-5,2021-08-07 12:44:51,359258
0,2,5,11,25,14,5,1,2021-08-07 12:44:51,359258
-1,0,1,1,-6,-7,-3,0,2021-08-07 12:44:51,407258
-1,-1,-4,4,-4,-3,-4,-1,2021-08-07 12:44:51,423258
0,0,-1,-1,13,10,3,1,2021-08-07 12:44:51,423258
-2,-3,-4,-10,-5,-4,-4,-4,2021-08-07 12:44:51,423258
1,-1,-3,-5,-7,-2,0,-1,2021-08-07 12:44:51,423258
2,3,7,9,9,4,2,2,2021-08-07 12:44:51,423258
1,1,6,9,7,2,0,2,2021-08-07 12:44:51,423258
-4,-6,-12,-19,-20,-8,-4,-4,2021-08-07 12:44:51,424258
-2,-1,-5,-2,-1,-3,-2,-1,2021-08-07 12:44:51,424258
-2,-5,0,-11,-19,-9,-5,-4,2021-08-07 12:44:51,424258
2,3,7,28,35,16,8,4,2021-08-07 12:44:51,439256
1,3,7,1,-5,2,1,1,2021-08-07 12:44:51,439256
1,-3,-1,6,29,14,5,1,2021-08-07 12:44:51,439256
-1,-2,-3,-5,-12,-10,-4,-2,2021-08-07 12:44:51,439256
-3,-3,-6,-14,-20,-14,-9,-3,2021-08-07 12:44:51,439256
0,1,2,6,5,3,1,2,2021-08-07 12:44:51,439256
-4,-5,-5,-2,-11,-7,-4,-3,2021-08-07 12:44:51,470258
3,7,9,13,21,14,6,3,2021-08-07 12:44:51,470258
1,-2,-3,-8,-5,-2,-1,-1,2021-08-07 12:44:51,486259
1,-1,-3,1,1,-2,-2,0,2021-08-07 12:44:51,486259
-3,-5,-3,-13,-29,-16,-7,-3,2021-08-07 12:44:51,486259
0,-1,2,1,23,15,6,2,2021-08-07 12:44:51,502256
0,2,0,9,12,6,2,0,2021-08-07 12:44:51,518259
-2,0,-1,0,-4,-5,-3,-1,2021-08-07 12:44:51,518259
-1,-1,0,-4,-8,-5,-3,-1,2021-08-07 12:44:51,518259
-1,1,3,11,9,5,0,0,2021-08-07 12:44:51,518259
-3,-1,-1,-15,-21,-12,-4,-2,2021-08-07 12:44:51,519259
-3,-2,-1,1,-3,-4,-4,-2,2021-08-07 12:44:51,519259
0,1,-2,1,1,2,2,1,2021-08-07 12:44:51,519259
6,7,9,31,51,31,15,6,2021-08-07 12:44:51,519259
-1,-3,-5,-12,-15,-9,-5,-2,2021-08-07 12:44:51,520258
0,0,1,-4,-1,0,-1,-3,2021-08-07 12:44:51,520258
-1,1,1,3,-3,-4,-3,0,2021-08-07 12:44:51,550260
0,-3,-7,-17,-26,-14,-6,-3,2021-08-07 12:44:51,550260
0,0,1,9,6,4,2,-1,2021-08-07 12:44:51,550260
0,-1,-2,-1,3,-1,1,-1,2021-08-07 12:44:51,550260
1,2,2,-7,-10,-3,-1,0,2021-08-07 12:44:51,566258
-2,-1,-1,-4,-4,-2,-2,-3,2021-08-07 12:44:51,566258
-1,-1,-1,5,4,-1,-1,1,2021-08-07 12:44:51,566258
-1,-4,-1,-5,-6,-3,-1,-2,2021-08-07 12:44:51,566258
2,4,2,-1,2,1,3,1,2021-08-07 12:44:51,582260
-1,-1,-6,0,7,2,0,0,2021-08-07 12:44:51,582260
-2,-2,-3,-20,-29,-16,-7,-3,2021-08-07 12:44:51,582260
1,1,0,9,5,6,4,2,2021-08-07 12:44:51,582260
-1,-4,2,8,10,2,1,0,2021-08-07 12:44:51,598258
-1,2,3,2,6,6,1,-2,2021-08-07 12:44:51,598258
-6,-5,-6,-5,-8,-6,-5,-4,2021-08-07 12:44:51,614259
2,7,6,8,11,3,3,2,2021-08-07 12:44:51,614259
1,1,1,0,-1,-1,-1,-2,2021-08-07 12:44:51,630258
-4,-8,-10,-23,-36,-25,-13,-5,2021-08-07 12:44:51,630258
0,-1,0,8,14,9,4,1,2021-08-07 12:44:51,630258
3,4,6,10,12,9,6,3,2021-08-07 12:44:51,630258
1,-1,-1,0,-4,-3,-4,0,2021-08-07 12:44:51,645258
-1,-2,-1,2,-3,-6,-3,-1,2021-08-07 12:44:51,661257
-2,-2,-4,-18,-11,-5,-2,-1,2021-08-07 12:44:51,661257
-1,-3,-5,-2,2,0,-1,-2,2021-08-07 12:44:51,661257
0,1,2,9,13,9,2,2,2021-08-07 12:44:51,661257
-4,-4,-3,-4,-9,-4,-4,-3,2021-08-07 12:44:51,661257
0,1,1,1,5,1,-1,0,2021-08-07 12:44:51,661257
1,0,-2,-4,-7,-4,-1,0,2021-08-07 12:44:51,662259
1,2,3,10,13,8,4,1,2021-08-07 12:44:51,692257
-2,0,-2,1,2,0,1,0,2021-08-07 12:44:51,708256
-4,-4,-5,-9,-18,-11,-5,-3,2021-08-07 12:44:51,708256
3,3,7,2,-4,-5,-3,2,2021-08-07 12:44:51,708256
-1,-2,-5,5,9,6,3,1,2021-08-07 12:44:51,708256
4,4,1,8,32,17,7,4,2021-08-07 12:44:51,708256
-2,-4,-4,-11,-14,-9,-4,-3,2021-08-07 12:44:51,708256
-4,-5,-5,-7,-2,0,-2,-2,2021-08-07 12:44:51,709257
-3,-4,0,-8,-24,-17,-7,-4,2021-08-07 12:44:51,724258
2,2,2,7,8,5,3,2,2021-08-07 12:44:51,740257
1,1,0,6,8,3,1,-1,2021-08-07 12:44:51,756256
-2,-4,-3,-12,-17,-11,-4,-1,2021-08-07 12:44:51,756256
-1,-1,-1,-1,7,4,0,-1,2021-08-07 12:44:51,756256
-2,-4,-3,-5,-10,-8,-4,-1,2021-08-07 12:44:51,756256
2,2,5,13,16,11,4,3,2021-08-07 12:44:51,756256
-2,-3,-3,-11,-8,-6,-4,-1,2021-08-07 12:44:51,756256
2,0,-1,-7,-3,2,1,0,2021-08-07 12:44:51,757259
-2,-2,0,7,7,-2,-2,-2,2021-08-07 12:44:51,757259
2,6,7,12,11,10,4,3,2021-08-07 12:44:51,771259
-2,0,-3,1,2,0,-1,-2,2021-08-07 12:44:51,771259
-1,2,-1,-7,-3,-2,-1,-1,2021-08-07 12:44:51,771259
-1,-2,-1,-10,-12,-1,-3,-2,2021-08-07 12:44:51,771259
0,-1,-1,6,14,7,0,-1,2021-08-07 12:44:51,788259
-1,-1,-3,6,8,7,3,-1,2021-08-07 12:44:51,788259
-1,-3,1,-2,-2,-3,-3,-1,2021-08-07 12:44:51,804258
-1,0,1,-5,-15,-8,-5,-1,2021-08-07 12:44:51,804258
-3,-3,-5,-7,-14,-9,-5,-3,2021-08-07 12:44:51,804258
0,0,-1,1,2,4,1,0,2021-08-07 12:44:51,804258
0,2,-1,-2,1,-2,-1,0,2021-08-07 12:44:51,836259
0,1,0,2,5,6,2,-1,2021-08-07 12:44:51,852257
-6,-6,-7,-6,-7,-6,-4,-3,2021-08-07 12:44:51,883257
2,4,2,6,9,3,0,1,2021-08-07 12:44:51,883257
-1,-1,-3,-9,-19,-16,-6,-2,2021-08-07 12:44:51,883257
-1,-1,-1,-8,-11,1,2,1,2021-08-07 12:44:51,883257
1,2,0,0,14,3,0,1,2021-08-07 12:44:51,883257
-1,-1,1,12,12,9,3,0,2021-08-07 12:44:51,883257
0,0,1,10,22,12,4,0,2021-08-07 12:44:51,883257
-1,1,0,-2,-5,-6,-4,-1,2021-08-07 12:44:51,884258
-4,-5,-4,-10,-19,-11,-4,-3,2021-08-07 12:44:51,884258
-1,-3,-2,-5,-13,-9,-5,-2,2021-08-07 12:44:51,884258
-1,-1,-1,-2,0,3,0,-1,2021-08-07 12:44:51,884258
-2,-4,-3,-3,-2,-3,-2,-2,2021-08-07 12:44:51,884258
-3,-3,-3,-6,-16,-10,-6,-1,2021-08-07 12:44:51,884258
3,3,2,7,14,9,3,2,2021-08-07 12:44:51,884258
-2,-2,-1,-1,-3,-1,-1,-2,2021-08-07 12:44:51,914257
3,4,4,4,3,1,2,1,2021-08-07 12:44:51,930257
-1,1,0,2,6,4,2,2,2021-08-07 12:44:51,930257
0,0,-1,-7,-9,-5,-2,-1,2021-08-07 12:44:51,930257
-2,-2,-4,-3,-4,-1,-1,-1,2021-08-07 12:44:51,930257
-1,-1,-2,-2,-1,1,1,1,2021-08-07 12:44:51,930257
-1,-2,-3,-5,-12,-7,-5,-2,2021-08-07 12:44:51,930257
-1,0,0,5,7,4,2,0,2021-08-07 12:44:51,930257
-3,-1,-1,-4,-2,1,-1,-1,2021-08-07 12:44:51,945258
0,1,1,6,4,0,-1,1,2021-08-07 12:44:51,961259
-2,-2,-4,-11,-23,-12,-6,-3,2021-08-07 12:44:51,961259
5,7,8,23,43,30,15,6,2021-08-07 12:44:51,961259
-2,-2,-3,-5,-7,-7,-3,-3,2021-08-07 12:44:51,961259
-3,-3,-3,-4,-2,-1,-1,-1,2021-08-07 12:44:51,961259
-1,0,1,-1,-7,-5,-2,-2,2021-08-07 12:44:51,961259
-3,-6,-7,-13,-20,-13,-6,-4,2021-08-07 12:44:51,962259
0,-2,-2,1,5,4,2,2,2021-08-07 12:44:51,992259
0,-2,-1,-4,-12,-11,-4,-2,2021-08-07 12:44:52,008256
0,0,0,3,3,7,4,0,2021-08-07 12:44:52,024258
-3,-2,-3,-6,-7,-5,-5,-3,2021-08-07 12:44:52,024258
1,2,1,2,3,3,1,0,2021-08-07 12:44:52,024258
-2,-2,-4,-7,-8,-6,-3,-3,2021-08-07 12:44:52,024258
-1,-3,-2,-3,-6,-2,-1,-2,2021-08-07 12:44:52,024258
-1,4,2,-3,-5,-5,-3,0,2021-08-07 12:44:52,024258
0,1,-1,3,4,1,0,1,2021-08-07 12:44:52,040257
1,2,2,9,19,11,5,1,2021-08-07 12:44:52,056257
0,-1,-2,-3,1,-3,-3,0,2021-08-07 12:44:52,087258
-2,-1,0,-4,-8,-3,-2,-1,2021-08-07 12:44:52,103258
-3,-4,-2,-8,-18,-11,-5,-1,2021-08-07 12:44:52,119257
-1,1,2,4,8,7,3,0,2021-08-07 12:44:52,119257
2,2,0,3,11,6,3,1,2021-08-07 12:44:52,119257
-4,-4,-6,-8,-13,-8,-6,-3,2021-08-07 12:44:52,119257
-1,-2,-1,-2,-1,-1,0,-2,2021-08-07 12:44:52,119257
-2,-2,-5,-12,-24,-12,-7,-1,2021-08-07 12:44:52,120259
-1,1,4,9,19,11,4,1,2021-08-07 12:44:52,120259
4,5,7,17,25,16,7,4,2021-08-07 12:44:52,120259
0,0,0,0,0,-2,-1,-1,2021-08-07 12:44:52,120259
0,-2,-3,-6,-1,0,-1,1,2021-08-07 12:44:52,135260
-1,-2,-1,4,3,-3,-2,-3,2021-08-07 12:44:52,135260
-2,-5,-7,-17,-23,-16,-6,-4,2021-08-07 12:44:52,135260
1,4,6,10,12,7,2,2,2021-08-07 12:44:52,135260
-4,-6,-8,-12,-10,-7,-4,-5,2021-08-07 12:44:52,135260
3,6,5,5,-2,0,2,4,2021-08-07 12:44:52,135260
-2,-3,-1,2,13,8,2,1,2021-08-07 12:44:52,135260
-1,-3,-2,-1,-4,-4,-2,-1,2021-08-07 12:44:52,135260
0,0,-2,0,0,-3,-1,-1,2021-08-07 12:44:52,136261
1,-1,-1,-3,1,5,2,-1,2021-08-07 12:44:52,136261
-2,0,-2,4,2,-1,0,-2,2021-08-07 12:44:52,136261
2,2,3,2,3,2,1,2,2021-08-07 12:44:52,151257
-1,0,-1,2,2,-1,0,0,2021-08-07 12:44:52,167258
-4,-5,-7,-10,-17,-10,-5,-5,2021-08-07 12:44:52,167258
1,0,-1,-1,-5,-3,-2,0,2021-08-07 12:44:52,167258
-3,-2,0,1,6,5,1,-1,2021-08-07 12:44:52,167258
-2,-3,-2,-3,-8,-6,-6,-4,2021-08-07 12:44:52,167258
1,5,6,10,20,13,7,2,2021-08-07 12:44:52,167258
-2,-2,-2,-2,-1,-3,0,-2,2021-08-07 12:44:52,167258
3,4,2,1,3,3,3,0,2021-08-07 12:44:52,183257
0,0,0,4,5,2,-2,1,2021-08-07 12:44:52,194258
-3,-7,-5,-4,-6,-7,-5,-4,2021-08-07 12:44:52,194258
-2,-3,-5,-12,-15,-7,-3,-1,2021-08-07 12:44:52,195258
0,-2,0,3,5,3,0,-2,2021-08-07 12:44:52,215258
1,1,3,4,3,3,3,1,2021-08-07 12:44:52,215258
0,0,-2,-3,-3,-3,-2,-1,2021-08-07 12:44:52,215258
0,1,1,-1,-7,1,0,0,2021-08-07 12:44:52,215258
1,0,1,2,8,3,2,1,2021-08-07 12:44:52,215258
-2,-3,-2,0,6,6,0,-2,2021-08-07 12:44:52,215258
1,2,2,0,-9,-6,-1,1,2021-08-07 12:44:52,230259
-1,-1,0,2,6,3,1,0,2021-08-07 12:44:52,245258
0,2,0,-3,-10,-7,-4,1,2021-08-07 12:44:52,261258
2,2,3,3,6,5,3,1,2021-08-07 12:44:52,261258
-4,-5,-7,-14,-17,-11,-8,-4,2021-08-07 12:44:52,261258
2,3,2,7,8,6,4,1,2021-08-07 12:44:52,261258
-2,-1,-1,-3,-9,-5,-3,-1,2021-08-07 12:44:52,261258
-2,0,1,2,4,0,0,-1,2021-08-07 12:44:52,261258
1,2,1,1,0,0,1,2,2021-08-07 12:44:52,277258
-4,-5,-6,-15,-19,-12,-8,-5,2021-08-07 12:44:52,277258
-2,-3,-2,-1,4,5,2,-1,2021-08-07 12:44:52,277258
-2,-3,-3,-2,-2,-2,-3,-2,2021-08-07 12:44:52,277258
-2,-3,-2,2,5,3,0,0,2021-08-07 12:44:52,292259
-1,-1,0,-2,0,-2,0,-2,2021-08-07 12:44:52,308257
3,3,0,-6,-10,-3,-1,-1,2021-08-07 12:44:52,324260
1,2,4,12,19,8,3,2,2021-08-07 12:44:52,339258
1,0,1,2,13,7,4,2,2021-08-07 12:44:52,370259
-2,-1,-2,-7,-14,-11,-4,-4,2021-08-07 12:44:52,370259
-3,-3,-3,-4,-6,-4,-4,-5,2021-08-07 12:44:52,370259
2,4,1,5,8,9,6,2,2021-08-07 12:44:52,370259
0,2,-1,0,0,-2,-3,-1,2021-08-07 12:44:52,386259
1,1,2,3,5,5,2,1,2021-08-07 12:44:52,386259
-4,-6,-4,-3,-6,-7,-4,-4,2021-08-07 12:44:52,386259
0,-2,-2,-5,-14,-7,-2,-3,2021-08-07 12:44:52,386259
-2,-1,0,9,13,5,1,0,2021-08-07 12:44:52,386259
3,5,0,-6,4,5,2,3,2021-08-07 12:44:52,387259
-1,0,-1,-2,-1,0,-1,0,2021-08-07 12:44:52,387259
-3,-4,-4,-12,-17,-12,-7,-4,2021-08-07 12:44:52,387259
-1,-2,-1,3,-2,-3,0,-2,2021-08-07 12:44:52,387259
0,-2,1,6,2,0,1,-2,2021-08-07 12:44:52,387259
-1,0,-2,2,3,3,0,-1,2021-08-07 12:44:52,387259
-2,-3,-1,-2,-4,-4,-1,-2,2021-08-07 12:44:52,388259
0,-1,-2,-2,1,2,1,-1,2021-08-07 12:44:52,388259
1,2,1,-1,-3,-3,-3,0,2021-08-07 12:44:52,388259
2,0,3,5,6,2,1,0,2021-08-07 12:44:52,402258
-3,-3,-4,-7,-11,-9,-5,-3,2021-08-07 12:44:52,418258
-3,-5,-6,-15,-23,-10,-5,-3,2021-08-07 12:44:52,418258
2,3,4,16,22,12,4,3,2021-08-07 12:44:52,418258
-1,1,0,1,3,1,2,2,2021-08-07 12:44:52,418258
1,2,0,1,4,4,2,3,2021-08-07 12:44:52,418258
-3,-2,-3,-3,-6,-6,-4,0,2021-08-07 12:44:52,450258
-4,-6,-4,-6,-12,-8,-5,-4,2021-08-07 12:44:52,450258
-3,-1,0,2,5,1,-2,-4,2021-08-07 12:44:52,465260
-2,0,5,7,12,2,1,-1,2021-08-07 12:44:52,465260
3,4,5,4,3,1,0,-1,2021-08-07 12:44:52,465260
-1,-3,-2,-9,-9,-5,-5,-2,2021-08-07 12:44:52,465260
0,0,-3,-5,-12,-6,-3,0,2021-08-07 12:44:52,465260
0,-3,-4,-9,-7,-2,-3,-1,2021-08-07 12:44:52,465260
-1,-2,1,-2,-7,-6,-4,-3,2021-08-07 12:44:52,481258
1,1,5,17,24,14,6,3,2021-08-07 12:44:52,497258
0,0,-1,4,6,4,2,0,2021-08-07 12:44:52,513260
-1,0,-2,-2,-5,-3,-2,-1,2021-08-07 12:44:52,513260
-2,-1,-1,-3,3,3,2,0,2021-08-07 12:44:52,529256
-5,-5,-7,-12,-17,-11,-7,-5,2021-08-07 12:44:52,529256
0,0,1,-1,-1,-1,0,1,2021-08-07 12:44:52,545258
2,1,4,7,9,4,2,1,2021-08-07 12:44:52,545258
-1,0,1,3,1,1,1,0,2021-08-07 12:44:52,545258
1,-1,-3,-4,-4,-2,-2,1,2021-08-07 12:44:52,545258
0,0,0,-3,-3,0,-1,0,2021-08-07 12:44:52,545258
0,1,0,-3,-3,-1,-3,-1,2021-08-07 12:44:52,545258
-1,-2,-2,1,4,2,-1,-2,2021-08-07 12:44:52,546258
-2,-3,1,-1,-1,-3,-2,-2,2021-08-07 12:44:52,546258
-3,-3,-2,-8,-11,-7,-5,-1,2021-08-07 12:44:52,546258
2,1,0,6,11,8,3,2,2021-08-07 12:44:52,546258
0,-3,-3,-5,-3,-2,0,-1,2021-08-07 12:44:52,561257
1,1,0,2,1,-2,1,0,2021-08-07 12:44:52,561257
0,0,-2,-8,-14,-9,-3,-1,2021-08-07 12:44:52,561257
0,0,2,0,4,5,1,-1,2021-08-07 12:44:52,561257
-1,0,-3,1,3,2,-2,-1,2021-08-07 12:44:52,561257
0,-1,-2,-4,-13,-7,-3,-1,2021-08-07 12:44:52,561257
1,-1,0,1,5,4,1,0,2021-08-07 12:44:52,577258
0,3,2,17,26,13,6,0,2021-08-07 12:44:52,577258
-3,-2,-4,-9,-11,-8,-4,-4,2021-08-07 12:44:52,593258
1,2,3,3,9,4,3,1,2021-08-07 12:44:52,593258
-3,-3,-5,-8,-13,-8,-4,-2,2021-08-07 12:44:52,609258
-2,-3,-3,-9,-19,-11,-4,-1,2021-08-07 12:44:52,624258
1,2,2,8,8,8,1,1,2021-08-07 12:44:52,632258
0,-1,-3,-8,-9,-7,-4,-3,2021-08-07 12:44:52,632258
0,2,1,2,3,1,1,0,2021-08-07 12:44:52,640256
-3,-4,-4,-9,-11,-6,-3,-1,2021-08-07 12:44:52,640256
1,-2,-3,2,4,2,0,-1,2021-08-07 12:44:52,640256
3,2,1,2,0,4,2,2,2021-08-07 12:44:52,656258
1,2,2,6,9,5,3,1,2021-08-07 12:44:52,672258
-4,-3,-1,-4,-5,-5,-2,-3,2021-08-07 12:44:52,688259
-3,-2,-3,-7,-7,-8,-3,0,2021-08-07 12:44:52,704257
-3,-6,-4,-3,-5,-5,-4,-2,2021-08-07 12:44:52,704257
3,2,6,13,23,12,5,2,2021-08-07 12:44:52,704257
0,1,1,-1,0,0,1,0,2021-08-07 12:44:52,704257
1,0,1,6,15,11,4,1,2021-08-07 12:44:52,720258
-2,0,-1,2,-1,-3,-3,-1,2021-08-07 12:44:52,735258
-2,-4,-7,-14,-26,-16,-6,-4,2021-08-07 12:44:52,751258
1,0,1,8,21,13,5,0,2021-08-07 12:44:52,751258
1,2,3,5,12,4,3,2,2021-08-07 12:44:52,751258
0,0,1,-3,1,2,1,-1,2021-08-07 12:44:52,751258
2,1,1,10,12,5,3,1,2021-08-07 12:44:52,751258
-2,-4,-7,-15,-29,-17,-7,-4,2021-08-07 12:44:52,751258
-1,0,-1,-4,-3,1,1,0,2021-08-07 12:44:52,752258
1,1,0,1,2,0,-1,1,2021-08-07 12:44:52,752258
-1,-4,-3,-4,-6,-4,-2,-3,2021-08-07 12:44:52,752258
-1,-1,1,2,0,-3,-1,0,2021-08-07 12:44:52,752258
2,2,1,5,2,0,1,0,2021-08-07 12:44:52,752258
-2,-1,-3,-3,-6,-4,-2,-3,2021-08-07 12:44:52,752258
-2,0,0,-3,3,3,0,0,2021-08-07 12:44:52,752258
-3,-5,-5,-6,-6,-3,-4,-2,2021-08-07 12:44:52,753258
-1,1,0,-5,-11,-6,-4,-3,2021-08-07 12:44:52,753258
2,3,1,5,4,4,3,2,2021-08-07 12:44:52,753258
0,0,-1,0,2,3,1,0,2021-08-07 12:44:52,753258
2,2,2,0,-4,-3,-1,0,2021-08-07 12:44:52,753258
-3,-5,-6,-1,-5,-4,-2,-2,2021-08-07 12:44:52,767259
0,-3,-2,6,10,6,1,0,2021-08-07 12:44:52,767259
2,5,6,4,3,1,1,0,2021-08-07 12:44:52,782258
-2,-3,-5,-6,-8,-6,-4,-2,2021-08-07 12:44:52,798257
0,3,4,5,9,6,4,2,2021-08-07 12:44:52,830257
-1,-3,-2,-3,-4,-3,-1,-3,2021-08-07 12:44:52,830257
-3,-3,-5,-3,-6,-5,-4,-2,2021-08-07 12:44:52,830257
-1,0,-1,-4,-1,0,0,-1,2021-08-07 12:44:52,830257
-1,1,-1,-7,-13,-8,-5,-2,2021-08-07 12:44:52,830257
3,2,1,11,14,8,5,2,2021-08-07 12:44:52,831258
0,2,2,11,34,18,6,3,2021-08-07 12:44:52,831258
-2,-1,-2,-4,-8,-5,-4,-3,2021-08-07 12:44:52,831258
-1,-4,-4,-5,-6,-3,0,0,2021-08-07 12:44:52,831258
-3,-1,-3,-10,-18,-12,-6,-2,2021-08-07 12:44:52,831258
-3,-3,-2,-3,-8,-4,-5,-4,2021-08-07 12:44:52,846258
2,2,1,1,1,3,2,1,2021-08-07 12:44:52,846258
0,1,1,1,0,-1,-2,0,2021-08-07 12:44:52,862258
2,4,4,-2,-3,0,1,1,2021-08-07 12:44:52,862258
-3,-5,-6,-3,-6,-3,-3,-2,2021-08-07 12:44:52,862258
-3,-2,-2,-4,-5,-3,-1,-1,2021-08-07 12:44:52,862258
-3,-5,-5,-7,-10,-7,-4,-3,2021-08-07 12:44:52,862258
2,2,3,5,18,11,4,3,2021-08-07 12:44:52,863259
-3,-3,-3,-10,-13,-8,-3,-2,2021-08-07 12:44:52,893259
-2,-1,2,4,3,-1,0,1,2021-08-07 12:44:52,893259
1,0,2,1,0,0,0,0,2021-08-07 12:44:52,893259
0,-2,1,8,16,10,2,-1,2021-08-07 12:44:52,893259
-1,-2,-3,-4,-5,-4,-3,-1,2021-08-07 12:44:52,909258
-1,-1,-2,-4,-4,-3,-3,-3,2021-08-07 12:44:52,925257
0,0,2,2,0,-1,0,0,2021-08-07 12:44:52,925257
-3,-2,-4,-12,-18,-9,-5,-4,2021-08-07 12:44:52,925257
1,-1,-2,0,-4,-4,-1,-1,2021-08-07 12:44:52,925257
1,1,2,8,15,9,3,1,2021-08-07 12:44:52,925257
-3,-5,-4,-3,-5,-5,-4,-2,2021-08-07 12:44:52,926258
0,0,1,1,4,2,2,1,2021-08-07 12:44:52,926258
1,5,1,-5,-8,-5,-1,0,2021-08-07 12:44:52,956262
-2,0,-1,-1,-4,-1,-2,-1,2021-08-07 12:44:52,956262
2,3,3,6,9,5,1,1,2021-08-07 12:44:52,956262
-3,-5,-3,-2,-6,-6,-4,-3,2021-08-07 12:44:52,956262
1,-2,0,1,3,2,0,0,2021-08-07 12:44:52,956262
-1,-1,-4,-10,-14,-7,-1,-1,2021-08-07 12:44:52,957259
1,2,2,5,11,7,4,1,2021-08-07 12:44:52,972258
0,0,-1,0,-5,-2,1,-2,2021-08-07 12:44:52,972258
-1,0,1,2,0,1,1,-2,2021-08-07 12:44:52,987257
-2,-4,-5,-9,-13,-8,-5,-2,2021-08-07 12:44:52,987257
-1,1,0,2,4,4,0,-1,2021-08-07 12:44:52,987257
0,0,0,-2,-1,-1,-1,1,2021-08-07 12:44:53,003258
0,-2,1,1,2,2,2,0,2021-08-07 12:44:53,003258
0,-2,-1,0,4,2,-1,-2,2021-08-07 12:44:53,003258
1,1,-1,-3,-3,-2,1,0,2021-08-07 12:44:53,003258
-2,-2,-1,-3,-4,-2,-4,-1,2021-08-07 12:44:53,003258
-1,-2,-2,-1,-1,-2,-2,-1,2021-08-07 12:44:53,034258
-2,-2,-3,-1,-1,-1,-2,-2,2021-08-07 12:44:53,050258
2,2,2,-4,-4,1,0,0,2021-08-07 12:44:53,062258
-2,-3,-2,-2,-2,-3,-1,-1,2021-08-07 12:44:53,062258
-1,-3,0,-1,-2,-3,-2,-3,2021-08-07 12:44:53,062258
1,3,3,6,5,4,2,2,2021-08-07 12:44:53,063260
0,1,-1,2,7,2,1,-2,2021-08-07 12:44:53,082260
-2,-2,-2,1,-1,-1,0,-1,2021-08-07 12:44:53,082260
-1,1,-1,-4,-2,-2,-3,1,2021-08-07 12:44:53,082260
-1,-2,0,-3,-10,-9,-5,-3,2021-08-07 12:44:53,082260
-2,-4,-3,-7,-14,-9,-5,-3,2021-08-07 12:44:53,098256
1,2,0,0,7,5,2,-1,2021-08-07 12:44:53,114258
-1,0,0,1,2,-2,-2,-1,2021-08-07 12:44:53,114258
0,0,1,9,18,11,4,-2,2021-08-07 12:44:53,114258
-1,-3,-2,-1,0,-3,-2,0,2021-08-07 12:44:53,114258
-1,-3,-5,-10,-10,-7,-4,-1,2021-08-07 12:44:53,114258
-1,-1,-1,-4,-7,-3,-3,-1,2021-08-07 12:44:53,114258
0,-1,-1,-6,-11,-7,-2,0,2021-08-07 12:44:53,114258
0,-2,1,-2,0,2,0,3,2021-08-07 12:44:53,115258
1,1,1,8,9,5,2,-1,2021-08-07 12:44:53,115258
-2,-2,-3,-3,-3,0,-2,-2,2021-08-07 12:44:53,146257
-1,-1,-1,-1,-1,-2,-1,0,2021-08-07 12:44:53,162258
1,1,2,0,-1,0,1,1,2021-08-07 12:44:53,178256
-2,0,0,-1,-2,-1,-2,-1,2021-08-07 12:44:53,178256
-1,-1,0,5,4,2,1,-1,2021-08-07 12:44:53,178256
-2,1,1,-1,-3,-2,-1,1,2021-08-07 12:44:53,178256
-3,-3,-2,-5,-8,-5,-4,-3,2021-08-07 12:44:53,178256
2,1,2,3,5,3,-1,2,2021-08-07 12:44:53,178256
0,-1,-2,-2,2,3,2,-3,2021-08-07 12:44:53,178256
-3,-5,-2,-4,-7,-5,-3,-4,2021-08-07 12:44:53,178256
0,0,-1,-2,-7,-2,-1,-1,2021-08-07 12:44:53,179258
4,7,10,22,40,20,11,4,2021-08-07 12:44:53,179258
0,0,0,-1,-2,-2,1,1,2021-08-07 12:44:53,194258
-1,1,-1,3,5,2,1,0,2021-08-07 12:44:53,210258
-4,-3,-4,-7,-11,-9,-5,-4,2021-08-07 12:44:53,226258
-5,-7,-7,-13,-22,-13,-7,-3,2021-08-07 12:44:53,226258
1,1,2,0,5,3,2,2,2021-08-07 12:44:53,226258
-1,0,-2,-3,-3,-1,-1,0,2021-08-07 12:44:53,226258
0,-1,0,0,1,1,1,1,2021-08-07 12:44:53,226258
-1,-3,-3,-4,-9,-5,-2,-1,2021-08-07 12:44:53,227257
-2,1,1,-1,-1,0,-1,-3,2021-08-07 12:44:53,227257
1,-1,-2,-5,-3,-2,-2,-2,2021-08-07 12:44:53,227257
1,0,-2,4,10,5,3,1,2021-08-07 12:44:53,227257
2,2,3,5,12,6,2,3,2021-08-07 12:44:53,227257
0,-4,-3,-3,-7,-4,-2,0,2021-08-07 12:44:53,258257
-2,-2,-1,-4,-12,-8,-3,-3,2021-08-07 12:44:53,258257
1,1,0,-3,1,0,0,0,2021-08-07 12:44:53,258257
0,1,2,-1,1,2,2,1,2021-08-07 12:44:53,258257
1,0,-1,2,0,0,1,1,2021-08-07 12:44:53,258257
0,-1,-2,2,6,2,2,1,2021-08-07 12:44:53,258257
1,2,1,2,1,1,2,0,2021-08-07 12:44:53,274258
-6,-4,-2,-5,-13,-7,-5,-5,2021-08-07 12:44:53,274258
-3,-2,-2,0,5,3,0,-3,2021-08-07 12:44:53,290258
-5,-7,-7,-13,-16,-11,-7,-4,2021-08-07 12:44:53,306290
0,1,3,5,9,6,2,3,2021-08-07 12:44:53,306290
2,0,0,1,-4,-5,-2,-2,2021-08-07 12:44:53,306290
-1,-2,-3,-8,-10,-5,-5,-3,2021-08-07 12:44:53,306290
1,-2,-1,4,13,11,6,2,2021-08-07 12:44:53,306290
1,2,0,8,11,4,2,-1,2021-08-07 12:44:53,306290
-1,0,-2,-1,1,1,-1,-1,2021-08-07 12:44:53,306290
-3,-1,-1,0,-4,-3,-2,-3,2021-08-07 12:44:53,322291
2,4,5,1,-4,-2,-1,1,2021-08-07 12:44:53,322291
-2,-2,-3,-6,-7,-3,-4,-2,2021-08-07 12:44:53,338291
-3,-2,-4,-5,-8,-4,-4,-1,2021-08-07 12:44:53,338291
-4,-6,-4,-7,-8,-8,-5,-2,2021-08-07 12:44:53,354291
0,0,1,4,9,6,2,-1,2021-08-07 12:44:53,370289
-1,-2,0,0,-1,-1,0,-2,2021-08-07 12:44:53,386289
1,3,1,-4,-10,-5,0,1,2021-08-07 12:44:53,386289
1,2,0,4,9,4,2,1,2021-08-07 12:44:53,386289
-2,-2,0,0,1,0,-2,-2,2021-08-07 12:44:53,386289
1,1,2,1,6,7,4,3,2021-08-07 12:44:53,386289
1,0,1,5,13,6,3,0,2021-08-07 12:44:53,386289
-1,0,-1,-1,-2,-3,0,-1,2021-08-07 12:44:53,387291
-2,-1,-2,3,2,0,-1,-2,2021-08-07 12:44:53,387291
-1,-1,-2,-7,-15,-9,-5,-2,2021-08-07 12:44:53,387291
-2,-5,-7,-13,-13,-4,-4,-2,2021-08-07 12:44:53,387291
2,0,-1,6,8,4,3,2,2021-08-07 12:44:53,418291
1,2,2,3,6,2,3,-1,2021-08-07 12:44:53,418291
-1,-1,-2,0,1,-1,-1,-1,2021-08-07 12:44:53,418291
0,-1,-3,-5,-6,-4,-2,0,2021-08-07 12:44:53,418291
2,3,1,0,-1,-1,-1,0,2021-08-07 12:44:53,434291
-4,-5,-6,-2,-3,-2,-3,-2,2021-08-07 12:44:53,450291
-1,-3,-3,-1,1,-1,-2,-1,2021-08-07 12:44:53,482292
3,3,4,5,2,2,1,2,2021-08-07 12:44:53,482292
1,1,1,3,10,7,4,2,2021-08-07 12:44:53,482292
-1,0,0,-2,-6,-5,-1,-1,2021-08-07 12:44:53,482292
-2,0,1,2,5,3,1,-3,2021-08-07 12:44:53,482292
-3,-6,-6,-6,-9,-8,-5,-4,2021-08-07 12:44:53,482292
-1,1,0,-3,-5,-1,-1,0,2021-08-07 12:44:53,483291
-1,1,2,0,-3,0,-1,-1,2021-08-07 12:44:53,483291
-1,-5,-2,0,8,5,2,1,2021-08-07 12:44:53,483291
3,3,1,-1,-5,-2,-1,1,2021-08-07 12:44:53,483291
-1,-2,-1,-1,-1,-1,0,-1,2021-08-07 12:44:53,483291
2,1,0,4,6,2,1,1,2021-08-07 12:44:53,483291
-3,-3,-2,-5,-9,-8,-4,-3,2021-08-07 12:44:53,496290
-3,-4,-3,-6,-4,-4,-4,-2,2021-08-07 12:44:53,496290
0,2,0,1,1,0,1,1,2021-08-07 12:44:53,496290
-2,-1,-1,-1,1,1,0,1,2021-08-07 12:44:53,497290
-2,-2,-4,-8,-8,-5,-4,0,2021-08-07 12:44:53,514291
3,6,6,14,22,13,9,3,2021-08-07 12:44:53,514494
0,0,0,5,1,-1,-3,-2,2021-08-07 12:44:53,530291
-2,-3,-4,-4,-6,-6,-3,-3,2021-08-07 12:44:53,546291
-3,-2,-1,-2,-9,-7,-3,-2,2021-08-07 12:44:53,562291
-3,-4,-3,-4,5,2,0,-2,2021-08-07 12:44:53,562291
3,5,5,1,1,2,1,4,2021-08-07 12:44:53,562291
3,3,5,1,5,7,5,2,2021-08-07 12:44:53,562291
0,0,1,8,14,6,2,0,2021-08-07 12:44:53,562291
-3,-2,-1,-7,-14,-8,-4,-4,2021-08-07 12:44:53,578292
-2,-2,-1,-6,-7,-4,-2,-3,2021-08-07 12:44:53,593289
-2,-3,-2,-4,-8,-6,-5,-1,2021-08-07 12:44:53,593289
0,1,-3,-3,-8,-2,0,-1,2021-08-07 12:44:53,609291
-1,0,1,13,23,16,7,1,2021-08-07 12:44:53,609291
-3,-3,-4,-4,-4,-6,-3,-2,2021-08-07 12:44:53,609291
0,1,-1,0,-2,-2,0,-1,2021-08-07 12:44:53,609291
-1,0,-2,-4,1,0,-1,-2,2021-08-07 12:44:53,625291
-2,-3,-3,-7,-15,-11,-4,-1,2021-08-07 12:44:53,641290
-1,-2,0,4,9,6,1,0,2021-08-07 12:44:53,641290
-1,-1,0,0,5,2,1,-1,2021-08-07 12:44:53,641290
1,2,0,1,-1,-2,1,1,2021-08-07 12:44:53,641290
-3,-3,-6,-9,-13,-8,-6,-2,2021-08-07 12:44:53,641290
-6,-6,-5,-12,-21,-14,-8,-3,2021-08-07 12:44:53,641290
-1,-3,-3,6,15,8,2,0,2021-08-07 12:44:53,641290
5,5,7,8,14,8,4,4,2021-08-07 12:44:53,642291
0,2,-1,-5,-10,-6,-3,-2,2021-08-07 12:44:53,642291
-3,-5,-7,-12,-17,-10,-6,-5,2021-08-07 12:44:53,642291
4,7,8,9,11,9,10,6,2021-08-07 12:44:53,642291
5,4,5,8,11,11,7,5,2021-08-07 12:44:53,642291
3,2,2,7,11,3,-4,0,2021-08-07 12:44:53,642291
-18,-14,-15,-20,-30,-27,-23,-19,2021-08-07 12:44:53,671291
-3,-2,-4,-7,-9,-7,-5,-4,2021-08-07 12:44:53,671291
-4,-2,-2,0,-3,0,0,-1,2021-08-07 12:44:53,671291
5,3,2,4,12,12,10,9,2021-08-07 12:44:53,671291
2,2,3,8,17,9,7,4,2021-08-07 12:44:53,703289
3,3,4,-2,-3,-1,2,2,2021-08-07 12:44:53,703289
-4,-6,-8,-15,-26,-17,-8,-5,2021-08-07 12:44:53,703289
-3,-1,-2,-6,-9,-4,-3,-3,2021-08-07 12:44:53,703289
6,5,5,13,25,14,8,4,2021-08-07 12:44:53,703289
-1,-2,-3,1,3,0,-1,-2,2021-08-07 12:44:53,703289
-1,-3,-3,-5,-12,-9,-4,-2,2021-08-07 12:44:53,704290
-5,-6,-6,-7,-9,-5,-5,-6,2021-08-07 12:44:53,704290
4,5,5,11,12,8,5,4,2021-08-07 12:44:53,735292
-1,-2,-4,-9,-14,-5,-3,-2,2021-08-07 12:44:53,735292
1,0,2,8,14,8,1,-2,2021-08-07 12:44:53,735292
-5,-5,-7,-8,-14,-14,-7,-3,2021-08-07 12:44:53,735292
0,-1,0,-7,-6,1,1,2,2021-08-07 12:44:53,751290
-3,-2,-3,-12,-24,-15,-8,-2,2021-08-07 12:44:53,767291
3,3,6,14,33,19,9,4,2021-08-07 12:44:53,767291
-1,-3,-3,3,3,0,1,-2,2021-08-07 12:44:53,767291
4,3,5,6,12,8,4,4,2021-08-07 12:44:53,783291
-4,-4,-6,-11,-20,-15,-8,-2,2021-08-07 12:44:53,783291
-5,-8,-9,-17,-32,-21,-10,-7,2021-08-07 12:44:53,799289
5,7,11,19,32,25,10,5,2021-08-07 12:44:53,799289
-3,-3,-2,-1,-4,-4,-3,-3,2021-08-07 12:44:53,799289
-1,0,0,0,2,3,-1,-1,2021-08-07 12:44:53,799289
0,0,-1,3,11,5,1,0,2021-08-07 12:44:53,799289
-8,-8,-8,-14,-20,-17,-8,-7,2021-08-07 12:44:53,799289
5,7,5,-1,-12,-1,1,1,2021-08-07 12:44:53,815291
3,4,4,16,34,17,6,3,2021-08-07 12:44:53,831289
-1,-4,-4,-5,-13,-9,-3,-3,2021-08-07 12:44:53,847290
0,-2,0,-2,0,-1,0,-2,2021-08-07 12:44:53,847290
-3,-3,-4,-7,-13,-9,-6,-3,2021-08-07 12:44:53,847290
0,-2,-3,0,7,3,1,0,2021-08-07 12:44:53,847290
-2,1,1,-3,-7,-1,-2,-3,2021-08-07 12:44:53,848292
-2,-1,-3,2,2,-2,0,0,2021-08-07 12:44:53,848292
-3,-4,-3,-5,-5,-6,-3,0,2021-08-07 12:44:53,848292
1,-1,1,7,1,4,1,1,2021-08-07 12:44:53,848292
3,3,3,7,17,10,4,4,2021-08-07 12:44:53,848292
0,-1,-2,-6,-14,-10,-4,-2,2021-08-07 12:44:53,848292
-6,-6,-7,-14,-15,-7,-5,-6,2021-08-07 12:44:53,878289
-2,1,2,8,5,0,0,-2,2021-08-07 12:44:53,878289
0,1,5,5,11,10,3,2,2021-08-07 12:44:53,878289
0,0,0,-6,-15,-9,-3,0,2021-08-07 12:44:53,878289
-2,-4,-6,0,7,6,1,1,2021-08-07 12:44:53,893292
-2,-2,-1,-6,-6,-3,-4,-1,2021-08-07 12:44:53,893292
1,4,3,6,7,3,2,1,2021-08-07 12:44:53,893292
0,1,-1,-1,-6,-3,-2,0,2021-08-07 12:44:53,893292
-1,-3,0,-1,0,-1,1,-1,2021-08-07 12:44:53,909291
-2,-1,-2,-4,-8,-4,-1,-1,2021-08-07 12:44:53,925291
2,4,3,6,8,6,4,1,2021-08-07 12:44:53,925291
-3,-3,-4,2,5,1,-2,-3,2021-08-07 12:44:53,925291
4,5,4,5,17,11,8,3,2021-08-07 12:44:53,925291
0,0,-1,-3,-1,0,2,1,2021-08-07 12:44:53,925291
-2,-2,-2,-10,-13,-9,-3,-1,2021-08-07 12:44:53,926291
-2,-2,-2,-7,-13,-9,-4,-1,2021-08-07 12:44:53,926291
-6,-7,-5,-3,-12,-10,-7,-6,2021-08-07 12:44:53,941290
3,1,3,14,28,20,8,2,2021-08-07 12:44:53,941290
-4,-4,-5,-13,-21,-12,-6,-3,2021-08-07 12:44:53,957291
6,9,12,18,32,19,8,5,2021-08-07 12:44:53,973504
-3,-1,-4,-5,-4,0,-1,-1,2021-08-07 12:44:53,973504
3,5,7,9,11,6,5,3,2021-08-07 12:44:53,973504
-4,-6,-9,-8,-10,-9,-6,-2,2021-08-07 12:44:53,973504
-1,-3,-4,-10,-15,-8,-5,-2,2021-08-07 12:44:53,973504
1,2,3,14,22,9,5,2,2021-08-07 12:44:54,019291
-2,-3,-6,-9,-20,-13,-8,-4,2021-08-07 12:44:54,019291
-2,-2,2,4,1,1,0,1,2021-08-07 12:44:54,019291
-3,-3,1,-8,-14,-8,-7,-3,2021-08-07 12:44:54,019291
-1,-1,-8,-5,-6,0,-1,0,2021-08-07 12:44:54,019291
1,0,2,1,10,7,3,-1,2021-08-07 12:44:54,019291
2,1,2,8,15,6,5,1,2021-08-07 12:44:54,020291
0,-1,0,3,0,0,1,-1,2021-08-07 12:44:54,020291
-5,-4,-3,-13,-22,-16,-8,-6,2021-08-07 12:44:54,034291
-1,-3,-4,-5,1,0,-2,-2,2021-08-07 12:44:54,034291
4,8,5,6,4,7,4,5,2021-08-07 12:44:54,034291
1,1,4,26,39,23,10,1,2021-08-07 12:44:54,034291
3,1,1,0,-11,-7,-3,-1,2021-08-07 12:44:54,050289
0,0,-1,-1,-2,-2,2,2,2021-08-07 12:44:54,066290
-3,-6,-8,-19,-22,-16,-8,-5,2021-08-07 12:44:54,066290
-4,-2,-8,-19,-24,-13,-6,-2,2021-08-07 12:44:54,066290
-2,-1,0,-3,-5,-3,-3,-2,2021-08-07 12:44:54,066290
0,0,0,4,8,5,2,-1,2021-08-07 12:44:54,066290
-1,-1,1,5,-1,-1,-1,-1,2021-08-07 12:44:54,066290
1,1,0,0,1,1,2,0,2021-08-07 12:44:54,066290
0,1,1,7,15,6,2,2,2021-08-07 12:44:54,097291
-4,-3,-4,-9,-15,-11,-5,-2,2021-08-07 12:44:54,097291
2,2,2,3,6,3,2,1,2021-08-07 12:44:54,097291
0,1,1,2,2,3,-1,-1,2021-08-07 12:44:54,097291
0,0,3,-4,-3,-1,1,0,2021-08-07 12:44:54,129291
0,0,-2,-7,-13,-7,-3,-1,2021-08-07 12:44:54,129291
-2,-2,-2,1,7,0,-3,-2,2021-08-07 12:44:54,129291
0,0,-4,-8,-9,-5,-4,-1,2021-08-07 12:44:54,129291
0,-1,0,3,0,0,0,0,2021-08-07 12:44:54,129291
0,-2,-3,5,7,4,2,2,2021-08-07 12:44:54,130290
0,-2,-1,-3,-4,-1,-1,-2,2021-08-07 12:44:54,130290
0,-1,3,0,4,2,1,-1,2021-08-07 12:44:54,130290
-3,-1,-1,4,7,2,-1,-4,2021-08-07 12:44:54,175291
0,-3,-1,-11,-20,-13,-6,-2,2021-08-07 12:44:54,191291
0,0,-2,-4,-8,-5,-4,-4,2021-08-07 12:44:54,206292
6,8,10,21,37,21,10,5,2021-08-07 12:44:54,206292
3,4,1,10,19,9,6,4,2021-08-07 12:44:54,222291
-2,-1,-4,-11,-20,-13,-7,-3,2021-08-07 12:44:54,238291
-5,-6,-7,-6,-14,-11,-6,-5,2021-08-07 12:44:54,238291
-2,-5,-4,-1,-3,0,0,0,2021-08-07 12:44:54,238291
3,5,7,10,22,13,6,4,2021-08-07 12:44:54,238291
-1,1,2,4,7,0,-1,0,2021-08-07 12:44:54,238291
0,-3,-3,-7,-12,-8,-4,-1,2021-08-07 12:44:54,239291
-3,-6,-7,-15,-22,-13,-7,-5,2021-08-07 12:44:54,239291
0,-2,-3,-6,-10,-3,-4,-1,2021-08-07 12:44:54,239291
-2,-1,-2,0,-1,-1,1,0,2021-08-07 12:44:54,239291
1,3,1,0,3,4,0,2,2021-08-07 12:44:54,239291
-2,-2,0,1,-1,-2,-1,-3,2021-08-07 12:44:54,239291
-3,-3,-3,-8,-10,-6,-2,0,2021-08-07 12:44:54,239291
-1,-1,0,0,-4,0,-2,-2,2021-08-07 12:44:54,240293
0,2,3,7,14,9,3,2,2021-08-07 12:44:54,240293
1,2,0,8,14,6,2,1,2021-08-07 12:44:54,240293
0,1,2,2,0,-1,-1,0,2021-08-07 12:44:54,240293
-2,-1,-2,-5,-13,-6,-3,-2,2021-08-07 12:44:54,240293
4,3,6,14,21,14,8,4,2021-08-07 12:44:54,254289
-3,-4,-4,-7,-13,-9,-4,-3,2021-08-07 12:44:54,254289
-4,-3,-4,-6,-2,-4,-5,-3,2021-08-07 12:44:54,270291
1,-1,0,1,3,0,0,-1,2021-08-07 12:44:54,286291
-1,-1,-1,-8,-5,-3,-3,0,2021-08-07 12:44:54,302290
-1,0,2,-1,1,1,2,1,2021-08-07 12:44:54,302290
0,-2,-3,-4,-9,-6,-3,-2,2021-08-07 12:44:54,302290
-4,-4,-1,0,0,1,-4,-3,2021-08-07 12:44:54,302290
-4,-2,-5,-9,-11,-7,-2,-3,2021-08-07 12:44:54,302290
3,4,4,9,13,7,5,3,2021-08-07 12:44:54,302290
-2,-2,-4,-9,-11,-5,0,-2,2021-08-07 12:44:54,303291
1,1,3,4,9,4,3,1,2021-08-07 12:44:54,303291
-1,-2,-1,-6,-14,-9,-5,0,2021-08-07 12:44:54,318290
-1,0,-3,-4,-2,1,0,0,2021-08-07 12:44:54,318290
-3,-5,-4,-3,-6,-6,-4,-4,2021-08-07 12:44:54,334291
2,3,0,2,5,6,5,3,2021-08-07 12:44:54,350291
-2,-1,-1,3,8,3,1,-2,2021-08-07 12:44:54,366290
1,1,2,-10,-24,-14,-7,-1,2021-08-07 12:44:54,366290
0,2,-1,4,11,8,3,1,2021-08-07 12:44:54,366290
2,2,0,-1,4,5,2,2,2021-08-07 12:44:54,374290
-1,2,4,10,4,0,0,0,2021-08-07 12:44:54,375291
-2,-4,2,-6,2,1,-1,-3,2021-08-07 12:44:54,375291
-2,-5,-13,-4,-7,-5,-5,-2,2021-08-07 12:44:54,375291
1,0,0,-1,-8,-5,-1,-1,2021-08-07 12:44:54,375291
0,-3,-3,-3,-4,-4,-2,-1,2021-08-07 12:44:54,375291
1,3,2,3,3,4,3,2,2021-08-07 12:44:54,375291
-1,0,2,0,-4,-5,-2,-1,2021-08-07 12:44:54,398289
-3,-3,-4,-2,-3,-3,-1,-3,2021-08-07 12:44:54,414290
-1,-3,0,0,-2,0,0,0,2021-08-07 12:44:54,414290
0,-1,-1,2,3,1,-2,0,2021-08-07 12:44:54,414290
-4,-4,-2,-10,-15,-10,-5,-4,2021-08-07 12:44:54,414290
3,4,4,14,19,13,4,2,2021-08-07 12:44:54,414290
0,1,-1,0,1,3,1,0,2021-08-07 12:44:54,446290
2,0,-2,2,1,-1,1,1,2021-08-07 12:44:54,446290
1,2,1,-1,-1,2,0,1,2021-08-07 12:44:54,446290
-5,-6,-3,-6,-13,-14,-8,-4,2021-08-07 12:44:54,446290
-1,-1,-1,-2,-5,1,0,1,2021-08-07 12:44:54,446290
0,2,1,10,27,15,5,4,2021-08-07 12:44:54,446290
-1,-4,-1,-1,-7,-6,-4,-2,2021-08-07 12:44:54,447291
-2,-2,-2,-8,-3,-2,-1,-2,2021-08-07 12:44:54,447291
2,0,2,6,12,7,4,0,2021-08-07 12:44:54,447291
0,0,-5,-6,-15,-11,-3,0,2021-08-07 12:44:54,447291
1,0,2,1,1,1,-1,-1,2021-08-07 12:44:54,492291
-2,-4,-5,-7,-8,-5,-2,-3,2021-08-07 12:44:54,492291
-1,-3,-5,-6,-12,-9,-6,-2,2021-08-07 12:44:54,492291
-3,-2,-1,2,5,3,1,1,2021-08-07 12:44:54,492291
-2,-3,-1,-7,-13,-9,-5,-2,2021-08-07 12:44:54,492291
6,7,8,19,31,21,10,5,2021-08-07 12:44:54,492291
0,0,-2,-4,-4,-2,-1,1,2021-08-07 12:44:54,508289
0,-1,2,0,-7,-5,-2,-1,2021-08-07 12:44:54,508289
-3,-2,-1,-7,-6,-3,-3,-2,2021-08-07 12:44:54,508289
-2,-4,-4,-5,-9,-9,-6,-1,2021-08-07 12:44:54,508289
3,4,3,10,14,14,6,2,2021-08-07 12:44:54,508289
0,-2,-4,-2,4,0,-2,0,2021-08-07 12:44:54,508289
0,2,2,-3,-8,-2,-1,0,2021-08-07 12:44:54,540289
0,1,4,8,13,6,2,2,2021-08-07 12:44:54,540289
-3,-1,-3,-5,-7,-3,-2,-1,2021-08-07 12:44:54,540289
-5,-6,-6,-8,-15,-10,-6,-5,2021-08-07 12:44:54,540289
2,2,3,11,16,9,5,3,2021-08-07 12:44:54,540289
0,0,-1,-2,-3,2,2,0,2021-08-07 12:44:54,541291
-3,-1,-2,-2,-5,-6,-4,-2,2021-08-07 12:44:54,571289
0,-1,-1,-1,3,6,2,-2,2021-08-07 12:44:54,587292
2,0,0,1,4,-1,0,0,2021-08-07 12:44:54,603290
-5,-5,-5,-11,-19,-11,-7,-5,2021-08-07 12:44:54,603290
-2,-3,-4,-10,-8,-4,-3,-2,2021-08-07 12:44:54,603290
1,1,1,6,12,4,3,0,2021-08-07 12:44:54,603290
0,3,5,10,12,7,3,0,2021-08-07 12:44:54,603290
-1,0,-1,-2,-3,-2,-2,-1,2021-08-07 12:44:54,603290
1,0,2,-4,-5,-4,-3,-2,2021-08-07 12:44:54,604291
-4,-6,-7,-15,-24,-15,-10,-5,2021-08-07 12:44:54,604291
0,-4,-3,1,3,5,-1,-2,2021-08-07 12:44:54,604291
-1,0,-2,0,10,6,2,0,2021-08-07 12:44:54,604291
3,6,5,11,14,9,7,5,2021-08-07 12:44:54,619290
0,1,1,3,5,1,2,-1,2021-08-07 12:44:54,619290
-2,0,-1,-2,-4,-3,0,-1,2021-08-07 12:44:54,634290
-4,-4,-5,-7,-13,-8,-7,-2,2021-08-07 12:44:54,634290
-3,-5,-5,-2,-6,-6,-3,-3,2021-08-07 12:44:54,634290
-2,0,2,-3,-7,-1,0,-1,2021-08-07 12:44:54,649289
0,0,5,3,6,4,0,1,2021-08-07 12:44:54,649289
3,2,-7,10,10,7,5,0,2021-08-07 12:44:54,649289
-3,-1,-2,-7,-5,-8,-3,-2,2021-08-07 12:44:54,649289
-3,-3,-3,-3,1,6,1,0,2021-08-07 12:44:54,649289
-1,0,0,-1,0,0,0,1,2021-08-07 12:44:54,665291
-1,0,2,-2,-9,-5,-3,-1,2021-08-07 12:44:54,665291
0,-1,0,-2,-2,-2,-1,0,2021-08-07 12:44:54,697290
-3,-4,-6,-2,-4,-4,-3,-4,2021-08-07 12:44:54,697290
2,4,5,4,10,4,1,2,2021-08-07 12:44:54,697290
1,4,6,12,20,10,7,2,2021-08-07 12:44:54,697290
-5,-7,-7,-12,-27,-14,-9,-5,2021-08-07 12:44:54,697290
4,5,8,15,31,16,8,3,2021-08-07 12:44:54,697290
0,-1,-1,-2,-1,1,-1,-2,2021-08-07 12:44:54,713290
0,-1,3,-2,-1,-3,-1,-1,2021-08-07 12:44:54,713290
-1,-2,-3,-5,-4,-1,-3,-1,2021-08-07 12:44:54,713290
-1,-5,-6,-15,-21,-11,-5,-2,2021-08-07 12:44:54,713290
-4,-5,-8,-4,1,2,-1,-2,2021-08-07 12:44:54,745289
-2,0,0,-7,-13,-8,-6,-2,2021-08-07 12:44:54,761290
0,0,1,5,13,9,3,-1,2021-08-07 12:44:54,777290
1,3,3,4,-3,-2,0,2,2021-08-07 12:44:54,777290
0,0,-1,2,2,2,0,1,2021-08-07 12:44:54,777290
-2,-4,-3,-14,-16,-10,-5,-4,2021-08-07 12:44:54,777290
1,1,2,6,9,9,2,1,2021-08-07 12:44:54,777290
-1,0,-3,-4,-7,-7,-3,-3,2021-08-07 12:44:54,777290
-1,-4,-2,-4,-10,-6,-2,-3,2021-08-07 12:44:54,777290
1,0,0,4,5,3,0,0,2021-08-07 12:44:54,777290
1,2,-1,3,3,2,2,-1,2021-08-07 12:44:54,777290
-3,-3,-6,-11,-12,-8,-4,-2,2021-08-07 12:44:54,778291
-1,0,0,-3,1,1,0,-1,2021-08-07 12:44:54,793291
-1,-2,-1,-2,-3,-3,-1,-3,2021-08-07 12:44:54,807291
-1,-4,-4,-11,-22,-14,-5,-2,2021-08-07 12:44:54,807291
4,6,7,14,19,16,8,4,2021-08-07 12:44:54,807291
2,3,5,16,36,19,8,3,2021-08-07 12:44:54,807291
-3,0,-3,-3,-6,-2,-2,-1,2021-08-07 12:44:54,808291
-1,0,2,3,11,3,1,1,2021-08-07 12:44:54,808291
-5,-5,-6,-14,-23,-14,-8,-3,2021-08-07 12:44:54,808291
0,1,-1,-2,-7,-4,-2,-1,2021-08-07 12:44:54,840291
1,0,1,5,10,5,2,1,2021-08-07 12:44:54,840291
-1,-1,-2,-1,-3,-3,-2,-1,2021-08-07 12:44:54,840291
-2,0,-2,-1,-3,-2,-4,1,2021-08-07 12:44:54,840291
-1,-1,0,-2,-8,-3,-1,-1,2021-08-07 12:44:54,856290
0,0,-2,-4,-2,0,0,1,2021-08-07 12:44:54,856290
0,0,-1,5,4,2,0,-1,2021-08-07 12:44:54,856290
1,-1,2,8,12,5,3,2,2021-08-07 12:44:54,856290
-1,1,0,0,-4,-2,-2,0,2021-08-07 12:44:54,872290
-1,-2,-2,-9,-12,-7,-3,-2,2021-08-07 12:44:54,872290
2,1,1,-3,6,3,2,1,2021-08-07 12:44:54,872290
-3,-4,-3,-5,-3,-2,-4,-3,2021-08-07 12:44:54,872290
-2,-1,-4,-4,-9,-6,-4,-1,2021-08-07 12:44:54,903290
-2,-1,0,-1,0,1,0,-2,2021-08-07 12:44:54,919291
1,1,6,14,15,7,3,3,2021-08-07 12:44:54,934291
0,0,-3,0,-2,-1,-1,0,2021-08-07 12:44:54,934291
-1,-2,-3,-7,-12,-7,-5,-1,2021-08-07 12:44:54,934291
2,1,0,-6,-5,-2,-1,1,2021-08-07 12:44:54,934291
-5,-3,-5,-7,-7,-7,-3,-2,2021-08-07 12:44:54,934291
1,1,1,11,17,10,5,-1,2021-08-07 12:44:54,934291
-3,-3,-4,-5,-7,-4,-2,-2,2021-08-07 12:44:54,934291
1,2,3,8,10,8,4,2,2021-08-07 12:44:54,935290
-3,-2,-7,-15,-21,-10,-6,-4,2021-08-07 12:44:54,935290
1,-2,1,4,7,4,1,0,2021-08-07 12:44:54,935290
2,4,5,8,12,6,5,2,2021-08-07 12:44:54,950290
-1,-3,-2,-3,-4,-4,-3,0,2021-08-07 12:44:54,950290
0,-2,-2,-6,-10,-7,-4,-1,2021-08-07 12:44:54,950290
-3,-5,-2,-8,-14,-10,-6,-4,2021-08-07 12:44:54,950290
0,-1,-2,-3,-4,0,-2,-2,2021-08-07 12:44:54,982289
0,2,1,4,11,7,3,3,2021-08-07 12:44:54,998291
1,5,5,14,15,9,5,2,2021-08-07 12:44:54,998291
0,-1,-5,-13,-12,-6,-2,-1,2021-08-07 12:44:55,014292
-3,-6,-7,-11,-11,-5,-3,-4,2021-08-07 12:44:55,014292
-1,2,3,3,2,2,0,-2,2021-08-07 12:44:55,014292
-4,-1,3,5,2,0,-2,-1,2021-08-07 12:44:55,014292
2,6,10,16,20,8,5,1,2021-08-07 12:44:55,014292
-2,-3,-4,-5,-12,-8,-6,-6,2021-08-07 12:44:55,014292
2,2,2,8,11,8,4,2,2021-08-07 12:44:55,014292
2,0,-4,-8,-4,-1,-1,0,2021-08-07 12:44:55,014292
-2,-1,-4,-6,-2,-1,0,0,2021-08-07 12:44:55,014292
-1,-1,4,-4,-5,-3,0,1,2021-08-07 12:44:55,046291
-2,-2,-3,-3,-2,-5,-2,-3,2021-08-07 12:44:55,062289
0,-3,-7,-2,0,3,1,-1,2021-08-07 12:44:55,078292
-2,-2,-3,-5,-9,-4,-2,-3,2021-08-07 12:44:55,078292
-2,-3,-4,-4,-3,-2,-2,1,2021-08-07 12:44:55,078292
0,1,4,0,-4,-2,-2,2,2021-08-07 12:44:55,078292
4,2,4,0,2,2,2,2,2021-08-07 12:44:55,078292
-1,-1,-4,4,5,1,-2,-2,2021-08-07 12:44:55,079292
-2,-1,-1,-1,3,2,1,-1,2021-08-07 12:44:55,079292
-3,-5,-5,-6,-14,-10,-6,-3,2021-08-07 12:44:55,079292
-1,-3,-3,-2,-8,-5,-3,-1,2021-08-07 12:44:55,079292
2,2,0,-4,7,5,3,3,2021-08-07 12:44:55,079292
-1,-2,1,-1,-4,1,-1,-1,2021-08-07 12:44:55,094292
-1,-1,-1,3,6,1,-1,-2,2021-08-07 12:44:55,110289
-1,0,2,4,1,-2,-1,-2,2021-08-07 12:44:55,126289
-5,-3,-2,-11,-22,-15,-9,-4,2021-08-07 12:44:55,126289
3,2,0,7,15,10,5,2,2021-08-07 12:44:55,126289
0,1,1,-1,0,1,-1,0,2021-08-07 12:44:55,126289
-2,-3,0,0,1,0,-1,-2,2021-08-07 12:44:55,126289
-2,0,-1,-6,-14,-9,-3,-3,2021-08-07 12:44:55,126289
1,1,0,5,8,2,2,0,2021-08-07 12:44:55,127291
0,0,-2,-2,-8,-2,1,-1,2021-08-07 12:44:55,127291
0,1,0,4,13,7,3,3,2021-08-07 12:44:55,127291
-2,-2,0,-6,1,0,-1,-1,2021-08-07 12:44:55,141289
-1,2,6,-2,-2,-4,-2,-1,2021-08-07 12:44:55,157290
1,-4,-12,-3,-6,0,1,-1,2021-08-07 12:44:55,157290
-2,0,1,1,-2,-3,-3,-2,2021-08-07 12:44:55,173289
1,-1,-1,0,0,1,2,2,2021-08-07 12:44:55,173289
-1,-3,-2,-4,-10,-9,-8,-3,2021-08-07 12:44:55,173289
5,6,9,10,18,9,5,4,2021-08-07 12:44:55,173289
2,3,2,0,7,5,3,1,2021-08-07 12:44:55,173289
-3,-3,-1,-3,-5,-4,0,-2,2021-08-07 12:44:55,173289
-1,-2,-3,4,0,-3,-1,-2,2021-08-07 12:44:55,204290
-2,-3,0,-3,-5,-2,-4,-4,2021-08-07 12:44:55,204290
0,-2,-2,-2,2,1,0,1,2021-08-07 12:44:55,204290
1,1,1,3,1,2,2,2,2021-08-07 12:44:55,204290
-1,-1,-4,-6,0,1,0,0,2021-08-07 12:44:55,220291
-2,-1,-2,0,1,-3,-2,-2,2021-08-07 12:44:55,220291
-3,-2,-1,-3,-3,-2,-1,-3,2021-08-07 12:44:55,220291
2,-1,-1,2,2,-2,-2,1,2021-08-07 12:44:55,220291
0,-2,-2,-2,-6,-4,-1,-2,2021-08-07 12:44:55,220291
-1,-2,0,-7,-10,-6,-4,1,2021-08-07 12:44:55,220291
2,4,5,11,21,14,5,2,2021-08-07 12:44:55,237291
-2,-3,-3,2,2,-2,-2,-2,2021-08-07 12:44:55,238291
1,0,-1,-1,-4,-1,0,-1,2021-08-07 12:44:55,252289
-2,-2,-1,-7,-3,-4,-3,-2,2021-08-07 12:44:55,267290
-5,-4,-6,-13,-23,-14,-7,-4,2021-08-07 12:44:55,283291
-3,-1,-1,0,0,0,-2,-1,2021-08-07 12:44:55,283291
-4,-4,-3,-5,-17,-12,-5,-4,2021-08-07 12:44:55,283291
3,3,2,3,11,11,6,2,2021-08-07 12:44:55,283291
1,0,2,8,13,5,2,2,2021-08-07 12:44:55,283291
1,2,2,8,16,11,3,1,2021-08-07 12:44:55,284291
1,1,1,1,5,-1,-1,1,2021-08-07 12:44:55,284291
-6,-5,-8,-13,-21,-14,-7,-6,2021-08-07 12:44:55,284291
-2,-4,-3,-6,-15,-12,-7,-4,2021-08-07 12:44:55,299290
-2,-3,-4,-3,-8,-2,0,-1,2021-08-07 12:44:55,299290
2,-1,-3,-6,8,6,3,3,2021-08-07 12:44:55,315290
4,4,5,11,11,8,5,3,2021-08-07 12:44:55,315290
0,0,1,6,12,6,2,0,2021-08-07 12:44:55,315290
-4,-6,-4,-7,-15,-13,-8,-6,2021-08-07 12:44:55,315290
-1,0,-2,-2,-7,-4,-3,-2,2021-08-07 12:44:55,346291
-2,-1,-3,-2,-2,-1,-1,0,2021-08-07 12:44:55,362291
3,3,3,0,7,3,3,2,2021-08-07 12:44:55,362291
-2,-2,-2,-3,-1,2,-2,-1,2021-08-07 12:44:55,362291
1,1,1,5,8,7,4,1,2021-08-07 12:44:55,362291
-2,0,2,8,5,0,-2,-2,2021-08-07 12:44:55,362291
-3,-5,-4,-8,-21,-12,-5,-5,2021-08-07 12:44:55,362291
-1,-1,-3,-5,-10,-7,-2,0,2021-08-07 12:44:55,363291
0,-1,-1,3,5,4,-2,-1,2021-08-07 12:44:55,363291
5,4,3,9,27,15,9,6,2021-08-07 12:44:55,363291
0,0,1,-4,-1,-1,-1,0,2021-08-07 12:44:55,378289
-1,2,8,-1,-2,-1,-1,-1,2021-08-07 12:44:55,378289
-4,-1,-12,2,-6,-6,-3,-3,2021-08-07 12:44:55,410291
-3,-3,-3,-11,-13,-8,-4,-3,2021-08-07 12:44:55,410291
-1,1,-3,2,2,2,0,0,2021-08-07 12:44:55,410291
-1,-1,0,-1,-2,-3,-1,0,2021-08-07 12:44:55,410291
0,3,8,6,9,6,3,1,2021-08-07 12:44:55,410291
-1,-3,-3,-3,-6,-5,-3,-1,2021-08-07 12:44:55,410291
-1,-3,-2,-4,1,1,0,0,2021-08-07 12:44:55,410291
-4,-5,-6,-15,-14,-9,-4,-3,2021-08-07 12:44:55,410291
-1,-1,1,-1,-7,-4,0,-1,2021-08-07 12:44:55,441291
-3,-5,-4,-6,-6,-6,-4,-5,2021-08-07 12:44:55,441291
-1,-1,2,0,1,0,0,0,2021-08-07 12:44:55,441291
5,8,7,29,41,25,14,5,2021-08-07 12:44:55,441291
0,3,2,-2,2,2,0,2,2021-08-07 12:44:55,457292
1,-1,1,-1,-3,-4,-3,0,2021-08-07 12:44:55,473289
-3,-5,-5,-8,-20,-13,-8,-3,2021-08-07 12:44:55,489290
-2,-2,-4,-6,-8,-5,-4,-3,2021-08-07 12:44:55,489290
-2,-4,-2,-4,-4,-2,-3,0,2021-08-07 12:44:55,489290
2,2,0,1,-3,0,0,0,2021-08-07 12:44:55,489290
-1,-1,0,0,3,0,-1,-1,2021-08-07 12:44:55,489290
1,2,1,7,12,10,5,4,2021-08-07 12:44:55,489290
2,4,6,5,2,1,1,2,2021-08-07 12:44:55,489290
-2,-2,-1,-5,-3,-2,-2,0,2021-08-07 12:44:55,489290
-3,-2,-3,-6,-7,-3,-2,-2,2021-08-07 12:44:55,504292
-3,-2,-2,-5,-13,-8,-5,-4,2021-08-07 12:44:55,504292
3,2,3,16,24,13,6,3,2021-08-07 12:44:55,520290
-1,-1,-2,0,0,0,0,0,2021-08-07 12:44:55,520290
-1,0,-1,-1,6,4,1,-1,2021-08-07 12:44:55,520290
0,-2,-1,-7,-13,-12,-6,-2,2021-08-07 12:44:55,520290
-1,-2,-1,4,3,2,1,-1,2021-08-07 12:44:55,520290
0,0,-1,5,4,2,1,0,2021-08-07 12:44:55,520290
-2,-3,-3,-10,-12,-8,-5,-3,2021-08-07 12:44:55,536290
-1,-2,-5,-14,-6,-1,-3,0,2021-08-07 12:44:55,536290
0,3,3,0,0,-2,-1,-1,2021-08-07 12:44:55,552291
1,1,2,9,10,5,3,-1,2021-08-07 12:44:55,568290
1,-1,-2,-1,-3,-1,1,0,2021-08-07 12:44:55,568290
1,2,7,5,11,8,3,1,2021-08-07 12:44:55,568290
-4,-7,-15,-6,-3,-2,-2,-2,2021-08-07 12:44:55,568290
-1,-1,1,-1,-3,-3,-1,1,2021-08-07 12:44:55,568290
2,2,0,1,-3,-1,2,1,2021-08-07 12:44:55,568290
0,-1,-4,-5,-8,-5,-1,0,2021-08-07 12:44:55,569291
-4,-3,0,-13,-12,-8,-6,-3,2021-08-07 12:44:55,599291
0,2,4,1,1,2,0,0,2021-08-07 12:44:55,599291
-1,0,1,5,8,5,1,1,2021-08-07 12:44:55,615291
0,-2,-1,0,-6,-2,0,-1,2021-08-07 12:44:55,615291
-1,-3,-3,-9,-11,-6,-4,-2,2021-08-07 12:44:55,615291
0,0,-2,1,7,2,0,1,2021-08-07 12:44:55,615291
0,1,0,2,5,5,2,0,2021-08-07 12:44:55,615291
1,1,2,11,14,4,1,1,2021-08-07 12:44:55,615291
-1,-2,-3,-9,-12,-7,-1,-2,2021-08-07 12:44:55,647291
-3,-3,-3,-12,-17,-9,-5,-3,2021-08-07 12:44:55,663291
0,-1,0,3,3,4,2,0,2021-08-07 12:44:55,664291
-1,1,-2,-2,-5,-5,-1,-1,2021-08-07 12:44:55,664291
2,3,4,11,8,3,1,1,2021-08-07 12:44:55,665291
0,1,-2,-7,-5,-1,-1,-1,2021-08-07 12:44:55,665291
0,-1,-3,0,5,2,-1,0,2021-08-07 12:44:55,678289
-5,-7,-6,-7,-10,-7,-6,-4,2021-08-07 12:44:55,694289
1,-1,0,-4,-5,-4,-3,-1,2021-08-07 12:44:55,694289
2,1,2,7,8,6,3,1,2021-08-07 12:44:55,694289
-3,-5,-4,-3,-8,-5,-5,-2,2021-08-07 12:44:55,694289
2,4,3,-3,3,3,1,2,2021-08-07 12:44:55,694289
1,3,1,5,7,5,2,0,2021-08-07 12:44:55,695292
-1,-3,-2,-1,-2,-3,-4,-3,2021-08-07 12:44:55,695292
0,0,-2,-1,-4,-2,-1,-2,2021-08-07 12:44:55,725290
-3,-4,-6,-6,-12,-10,-7,-4,2021-08-07 12:44:55,741290
0,-1,1,-1,0,1,2,0,2021-08-07 12:44:55,756290
0,0,-3,-6,-7,-3,-1,0,2021-08-07 12:44:55,756290
3,3,4,11,17,9,5,2,2021-08-07 12:44:55,756290
-2,-3,-4,-3,-1,0,-1,-2,2021-08-07 12:44:55,756290
-3,-1,-3,-10,-12,-6,-3,-1,2021-08-07 12:44:55,756290
-4,-5,-4,-6,-18,-13,-9,-4,2021-08-07 12:44:55,757290
-1,1,2,4,2,-2,1,1,2021-08-07 12:44:55,757290
4,3,5,11,28,21,10,3,2021-08-07 12:44:55,757290
1,-1,0,-1,3,1,1,-1,2021-08-07 12:44:55,757290
-1,-1,-2,0,-5,-6,-2,-3,2021-08-07 12:44:55,772289
-1,-1,-2,-7,-12,-9,-4,-2,2021-08-07 12:44:55,788289
-2,-1,-2,-4,-12,-9,-6,-2,2021-08-07 12:44:55,788289
1,-2,-2,-3,3,2,0,1,2021-08-07 12:44:55,788289
2,0,2,3,3,4,1,2,2021-08-07 12:44:55,788289
0,0,3,-6,-5,-2,-2,-1,2021-08-07 12:44:55,804290
-3,-3,-1,0,-3,-3,-2,-1,2021-08-07 12:44:55,820290
-1,-2,-7,3,3,1,0,-1,2021-08-07 12:44:55,836290
-4,-2,-3,0,-6,-5,-3,-2,2021-08-07 12:44:55,852291
1,-1,-4,-1,8,4,1,1,2021-08-07 12:44:55,868292
1,2,2,-10,-1,0,3,3,2021-08-07 12:44:55,868292
-2,-2,3,0,1,0,-1,-3,2021-08-07 12:44:55,868292
3,3,4,7,14,8,3,0,2021-08-07 12:44:55,868292
-2,-2,-4,2,-9,-7,-3,-2,2021-08-07 12:44:55,868292
-3,-6,-5,-10,-16,-11,-8,-5,2021-08-07 12:44:55,869291
6,8,7,18,21,13,8,6,2021-08-07 12:44:55,869291
1,-1,-3,-4,5,6,4,1,2021-08-07 12:44:55,869291
1,2,4,9,21,11,4,3,2021-08-07 12:44:55,869291
-4,-7,-7,-11,-14,-8,-4,-3,2021-08-07 12:44:55,869291
-6,-5,-4,-11,-18,-12,-8,-4,2021-08-07 12:44:55,869291
-3,-3,1,2,-5,-4,-2,-3,2021-08-07 12:44:55,870291
-2,-2,0,1,-2,-5,-4,-4,2021-08-07 12:44:55,870291
3,4,4,14,11,7,5,3,2021-08-07 12:44:55,870291
-1,-1,-1,-3,2,2,2,-3,2021-08-07 12:44:55,870291
1,0,-2,-8,-6,-3,1,0,2021-08-07 12:44:55,884290
-1,0,-3,-4,-1,1,0,0,2021-08-07 12:44:55,900291
1,2,0,4,2,-1,-1,1,2021-08-07 12:44:55,900291
3,4,6,7,7,5,2,3,2021-08-07 12:44:55,900291
-1,-3,-2,9,8,1,-1,1,2021-08-07 12:44:55,900291
-2,1,-4,-8,-12,-4,-2,-2,2021-08-07 12:44:55,900291
0,0,-1,-5,-5,-2,2,-1,2021-08-07 12:44:55,900291
-5,-6,-2,-20,-24,-15,-10,-6,2021-08-07 12:44:55,932290
0,-2,-10,-1,7,2,-1,-1,2021-08-07 12:44:55,948292
-2,-3,1,5,7,4,1,-1,2021-08-07 12:44:55,948292
-2,-1,-1,1,-4,-1,1,-2,2021-08-07 12:44:55,948292
4,5,5,15,28,18,8,4,2021-08-07 12:44:55,948292
2,3,5,3,3,4,4,2,2021-08-07 12:44:55,948292
1,4,4,8,12,5,3,2,2021-08-07 12:44:55,948292
-3,-3,-4,-6,-8,-8,-5,-2,2021-08-07 12:44:55,949290
-3,-5,-4,-9,-19,-13,-6,-4,2021-08-07 12:44:55,949290
-4,-4,-3,-12,-16,-11,-6,-3,2021-08-07 12:44:55,949290
0,-3,-5,-4,-6,1,2,0,2021-08-07 12:44:55,964289
-1,-1,1,4,2,-2,-2,-1,2021-08-07 12:44:55,980290
0,2,0,2,1,-1,1,2,2021-08-07 12:44:55,980290
7,7,7,12,32,18,10,5,2021-08-07 12:44:55,980290
-4,-4,-5,-9,-18,-13,-6,-4,2021-08-07 12:44:55,996292
-2,-2,-1,-3,-1,0,-1,-1,2021-08-07 12:44:55,996292
-1,-4,-5,-9,-13,-8,-4,-3,2021-08-07 12:44:55,996292
-4,-3,-3,-9,-16,-11,-5,-5,2021-08-07 12:44:55,996292
-3,-3,2,3,3,0,-1,-2,2021-08-07 12:44:55,996292
-2,-2,-2,-9,-17,-8,-5,-1,2021-08-07 12:44:55,996292
4,7,6,30,43,26,11,6,2021-08-07 12:44:56,028289
1,3,4,6,8,6,3,3,2021-08-07 12:44:56,044289
1,0,-2,-7,-3,0,-1,0,2021-08-07 12:44:56,060291
-5,-5,-6,-9,-11,-8,-4,-3,2021-08-07 12:44:56,060291
-6,-8,-8,-26,-29,-17,-8,-5,2021-08-07 12:44:56,060291
-4,-5,-1,-8,-12,-8,-5,-5,2021-08-07 12:44:56,060291
1,1,3,11,14,8,3,3,2021-08-07 12:44:56,060291
4,5,2,13,22,14,5,4,2021-08-07 12:44:56,060291
2,3,4,4,4,2,3,0,2021-08-07 12:44:56,061290
-2,-2,1,1,0,-3,-2,-1,2021-08-07 12:44:56,061290
-2,-5,-5,-12,-16,-9,-4,-4,2021-08-07 12:44:56,061290
4,5,5,11,23,12,7,3,2021-08-07 12:44:56,061290
-3,-4,-3,1,-1,-1,-2,-1,2021-08-07 12:44:56,076289
-3,-3,-5,-8,-12,-7,-5,-3,2021-08-07 12:44:56,076289
-2,-2,0,-2,-3,-5,-5,-3,2021-08-07 12:44:56,076289
-2,-2,-3,-6,-5,-2,0,-3,2021-08-07 12:44:56,076289
-1,-2,-2,-5,-3,-3,-1,-2,2021-08-07 12:44:56,092290
0,-1,-1,-5,-14,-7,-1,0,2021-08-07 12:44:56,092290
1,3,0,7,8,4,1,2,2021-08-07 12:44:56,092290
-2,-4,-4,3,7,4,2,-1,2021-08-07 12:44:56,092290
3,7,5,2,0,-2,-1,1,2021-08-07 12:44:56,123290
-2,-3,-4,-6,-8,-7,-5,-2,2021-08-07 12:44:56,139289
-3,-3,-3,-7,-11,-3,-2,-3,2021-08-07 12:44:56,171289
0,-4,-5,-7,-1,0,-1,-1,2021-08-07 12:44:56,171289
0,-1,-1,8,8,5,4,-1,2021-08-07 12:44:56,171289
1,3,5,13,15,9,4,2,2021-08-07 12:44:56,171289
-1,0,-2,3,-4,-5,-1,-2,2021-08-07 12:44:56,171289
-4,-7,-8,-21,-33,-20,-11,-4,2021-08-07 12:44:56,171289
0,-1,1,-3,14,10,3,2,2021-08-07 12:44:56,172289
1,2,8,5,10,4,1,0,2021-08-07 12:44:56,172289
1,-3,-10,-5,0,-5,-3,-2,2021-08-07 12:44:56,187291
0,1,4,13,3,1,-1,1,2021-08-07 12:44:56,203289
-1,-1,-1,-4,-8,-3,-1,0,2021-08-07 12:44:56,203289
3,4,4,16,28,16,9,5,2021-08-07 12:44:56,203289
1,2,4,-2,3,3,2,1,2021-08-07 12:44:56,203289
0,1,2,-2,0,-3,-3,-3,2021-08-07 12:44:56,203289
-4,-5,-6,-13,-22,-14,-6,-4,2021-08-07 12:44:56,203289
-4,-5,-5,-15,-19,-9,-6,-2,2021-08-07 12:44:56,203289
-1,-1,-1,3,15,6,3,0,2021-08-07 12:44:56,203289
2,4,4,8,5,4,3,1,2021-08-07 12:44:56,203289
5,6,8,21,26,16,7,4,2021-08-07 12:44:56,204291
0,-2,-8,-10,-12,-7,-2,-1,2021-08-07 12:44:56,204291
-6,-5,-5,-16,-15,-9,-6,-5,2021-08-07 12:44:56,219291
-4,-3,-2,-6,-9,-8,-5,-5,2021-08-07 12:44:56,219291
-3,-3,-3,-10,-14,-9,-6,-4,2021-08-07 12:44:56,235289
-1,1,-3,4,5,3,1,-1,2021-08-07 12:44:56,235289
3,3,3,3,-2,1,0,0,2021-08-07 12:44:56,235289
1,0,2,6,9,5,2,2,2021-08-07 12:44:56,235289
2,3,3,10,8,4,2,2,2021-08-07 12:44:56,267291
-3,-3,-4,1,0,0,-1,-3,2021-08-07 12:44:56,267291
1,0,0,-7,-8,-6,-1,1,2021-08-07 12:44:56,267291
-1,-3,-4,-11,-10,-1,0,-3,2021-08-07 12:44:56,267291
-3,-6,-4,-6,-8,-5,-6,-2,2021-08-07 12:44:56,267291
0,0,0,3,6,1,1,0,2021-08-07 12:44:56,267291
-2,-1,0,1,1,-2,-1,-1,2021-08-07 12:44:56,299289
0,0,2,2,-5,-3,-1,0,2021-08-07 12:44:56,314290
1,0,-5,-4,-7,-5,-2,-1,2021-08-07 12:44:56,314290
3,4,4,7,11,11,6,3,2021-08-07 12:44:56,314290
-4,-5,-7,-13,-10,-2,-2,-2,2021-08-07 12:44:56,314290
0,0,2,-12,-10,-6,-3,-2,2021-08-07 12:44:56,314290
1,-2,2,9,12,7,1,0,2021-08-07 12:44:56,314290
0,-2,-4,-3,-10,-7,-4,-2,2021-08-07 12:44:56,315291
0,2,2,10,10,6,3,1,2021-08-07 12:44:56,330292
0,0,-1,7,8,4,3,0,2021-08-07 12:44:56,330292
-2,-2,0,-11,-9,-5,-3,0,2021-08-07 12:44:56,330292
-1,0,0,-3,-7,-3,-3,-3,2021-08-07 12:44:56,330292
-2,-2,-2,-7,-9,-6,-4,-3,2021-08-07 12:44:56,362291
-1,0,-4,3,10,6,2,0,2021-08-07 12:44:56,378291
0,1,-1,-2,-1,-1,1,-2,2021-08-07 12:44:56,378291
-2,-4,-3,-6,-13,-9,-5,-1,2021-08-07 12:44:56,378291
0,4,8,19,18,12,6,3,2021-08-07 12:44:56,378291
0,0,-1,5,5,2,0,1,2021-08-07 12:44:56,378291
-3,-3,-9,-21,-11,-3,0,1,2021-08-07 12:44:56,379291
-3,-6,-5,-15,-19,-13,-7,-6,2021-08-07 12:44:56,379291
-1,0,4,5,4,-1,-1,-1,2021-08-07 12:44:56,379291
-1,-3,-1,1,-13,-8,-4,-2,2021-08-07 12:44:56,379291
4,5,7,9,21,13,6,4,2021-08-07 12:44:56,394289
1,3,2,-4,6,5,2,2,2021-08-07 12:44:56,394289
2,3,2,11,19,7,3,1,2021-08-07 12:44:56,394289
-1,0,0,0,-1,-2,-1,-1,2021-08-07 12:44:56,394289
-4,-4,0,-3,-10,-7,-6,-3,2021-08-07 12:44:56,425290
0,-3,-3,-2,-6,-5,-3,-1,2021-08-07 12:44:56,441291
-2,-3,-5,-8,-20,-10,-5,-5,2021-08-07 12:44:56,457290
1,1,-3,-4,10,8,4,3,2021-08-07 12:44:56,457290
-2,-2,-2,-5,-16,-9,-4,-3,2021-08-07 12:44:56,457290
-2,-1,-2,-6,1,1,-1,0,2021-08-07 12:44:56,457290
-1,-2,-3,2,-3,-1,-2,2,2021-08-07 12:44:56,457290
2,1,6,8,15,9,4,2,2021-08-07 12:44:56,457290
-3,0,-1,3,-5,-4,-1,-1,2021-08-07 12:44:56,458291
2,0,0,5,5,3,1,0,2021-08-07 12:44:56,458291
-1,-2,-2,-10,4,2,1,-2,2021-08-07 12:44:56,458291
-2,2,2,-5,-12,-7,-4,-1,2021-08-07 12:44:56,458291
0,-2,-2,8,12,5,2,-1,2021-08-07 12:44:56,489290
-1,3,1,-5,-12,-8,-3,-1,2021-08-07 12:44:56,505290
1,-4,-2,0,8,5,2,-1,2021-08-07 12:44:56,521334
-1,0,8,1,-1,-3,-2,-1,2021-08-07 12:44:56,521334
0,0,-6,-5,-8,-3,-4,0,2021-08-07 12:44:56,521334
-1,-1,-1,10,11,7,1,0,2021-08-07 12:44:56,530335
1,1,1,2,5,4,1,1,2021-08-07 12:44:56,530335
0,1,-4,-4,-7,-2,-2,-1,2021-08-07 12:44:56,530335
-1,-3,3,-1,-7,-10,-6,-3,2021-08-07 12:44:56,530335
1,0,1,6,10,8,3,2,2021-08-07 12:44:56,531331
-2,-1,-3,-2,-7,-4,-3,-2,2021-08-07 12:44:56,531331
