EMG 1,EMG 2,EMG 3,EMG 4,EMG 5,EMG 6,EMG 7,EMG 8,Timestamp,Milliseconds
1,1,1,-2,-3,0,-1,1,2021-08-07 12:45:49,776856
1,2,2,1,-3,-1,1,0,2021-08-07 12:45:49,776856
-1,-3,-4,-5,-9,-5,-2,-1,2021-08-07 12:45:49,776856
-2,1,3,3,2,0,1,-1,2021-08-07 12:45:49,776856
0,0,3,4,10,6,3,0,2021-08-07 12:45:49,776856
-1,1,-1,4,5,1,0,0,2021-08-07 12:45:49,776856
0,2,2,0,0,1,-1,-2,2021-08-07 12:45:49,776856
-2,-4,-5,-8,-9,-6,-6,-5,2021-08-07 12:45:49,776856
-5,-4,-5,-10,-14,-10,-6,-3,2021-08-07 12:45:49,792889
1,0,-2,-1,2,2,0,-1,2021-08-07 12:45:49,808857
1,1,1,2,8,5,2,1,2021-08-07 12:45:49,808857
-2,-3,-2,-2,-4,-3,-1,-2,2021-08-07 12:45:49,808857
-1,1,0,5,6,2,1,0,2021-08-07 12:45:49,808857
0,-2,-1,-3,-6,-5,-3,0,2021-08-07 12:45:49,808857
-2,-2,-3,-3,-2,-2,-1,0,2021-08-07 12:45:49,808857
1,2,2,1,3,3,1,-2,2021-08-07 12:45:49,808857
0,-2,-2,1,4,2,1,-1,2021-08-07 12:45:49,839890
1,1,1,2,2,1,1,1,2021-08-07 12:45:49,839890
-2,-3,-4,-9,-13,-8,-4,-4,2021-08-07 12:45:49,839890
0,0,-1,11,17,6,1,0,2021-08-07 12:45:49,839890
3,5,3,2,-1,-1,2,3,2021-08-07 12:45:49,839890
-2,-1,-1,0,1,0,-1,2,2021-08-07 12:45:49,839890
-3,-5,-4,-6,-7,-6,-3,-5,2021-08-07 12:45:49,886891
0,0,1,-2,-4,-2,0,-3,2021-08-07 12:45:49,886891
-2,-4,-3,-6,-10,-8,-5,-3,2021-08-07 12:45:49,886891
1,0,0,6,11,9,3,3,2021-08-07 12:45:49,886891
1,0,-1,2,6,2,1,0,2021-08-07 12:45:49,886891
-4,-4,-1,-4,0,-3,-2,-1,2021-08-07 12:45:49,886891
0,0,0,2,2,1,2,-1,2021-08-07 12:45:49,902891
0,0,2,2,-1,-1,0,0,2021-08-07 12:45:49,902891
0,-2,-1,-3,-4,-2,-2,-1,2021-08-07 12:45:49,902891
-1,-1,-3,-2,-3,-1,-3,-2,2021-08-07 12:45:49,902891
-1,-2,-2,-2,-2,-3,-3,-2,2021-08-07 12:45:49,918855
-1,0,-1,1,2,-1,-3,0,2021-08-07 12:45:49,933892
-2,0,-2,-1,-2,-1,-1,-2,2021-08-07 12:45:49,933892
-1,-2,-1,-1,-3,-2,-1,-1,2021-08-07 12:45:49,933892
1,0,1,-1,-1,1,1,1,2021-08-07 12:45:49,933892
-1,-2,-3,-5,-3,-3,-1,-3,2021-08-07 12:45:49,933892
2,2,2,-2,-3,1,1,4,2021-08-07 12:45:49,949894
-1,2,-1,-1,1,1,1,-1,2021-08-07 12:45:49,949894
-3,-2,-2,0,3,0,-1,-4,2021-08-07 12:45:49,949894
2,2,2,-3,-3,-2,1,1,2021-08-07 12:45:49,949894
-2,-2,-2,-2,-3,-2,-1,0,2021-08-07 12:45:49,965855
1,-2,-1,-4,-4,-1,-2,-1,2021-08-07 12:45:49,965855
2,2,1,4,4,6,3,0,2021-08-07 12:45:49,996891
-1,0,0,1,-1,1,0,-2,2021-08-07 12:45:50,012857
-2,-2,-2,-3,-4,-2,-2,-3,2021-08-07 12:45:50,012857
-1,-2,-1,3,-1,-3,-3,2,2021-08-07 12:45:50,012857
0,1,-2,-4,-5,-2,-1,2,2021-08-07 12:45:50,012857
0,-1,-2,1,5,4,1,0,2021-08-07 12:45:50,012857
-1,-2,-1,-1,-4,-4,-3,-1,2021-08-07 12:45:50,012857
1,1,3,-1,1,5,4,2,2021-08-07 12:45:50,012857
0,-1,0,8,16,7,3,0,2021-08-07 12:45:50,013855
0,1,-1,-3,-9,-5,-3,0,2021-08-07 12:45:50,013855
-2,-4,-3,2,2,-1,-1,-3,2021-08-07 12:45:50,028892
2,4,2,0,-3,-2,-2,0,2021-08-07 12:45:50,028892
0,1,0,-2,-5,-2,1,-1,2021-08-07 12:45:50,044891
-2,-3,-5,-5,-5,-1,-1,-2,2021-08-07 12:45:50,044891
0,0,-1,2,-2,-3,-3,0,2021-08-07 12:45:50,044891
1,0,-1,-6,-2,0,0,0,2021-08-07 12:45:50,044891
1,0,-1,-2,2,3,1,-1,2021-08-07 12:45:50,060905
-1,3,3,5,5,2,0,1,2021-08-07 12:45:50,060905
-2,-1,-2,0,3,0,0,-1,2021-08-07 12:45:50,060905
-3,-5,-6,-6,-8,-5,-4,-3,2021-08-07 12:45:50,060905
-1,-1,2,8,6,2,0,1,2021-08-07 12:45:50,076892
1,-1,0,-4,-6,-3,-2,1,2021-08-07 12:45:50,076892
0,1,0,-1,2,3,1,1,2021-08-07 12:45:50,092857
-1,-2,-1,2,1,-1,-1,-1,2021-08-07 12:45:50,092857
-2,-3,-4,-7,-8,-4,-3,-2,2021-08-07 12:45:50,092857
-1,-1,0,1,-2,-2,0,-1,2021-08-07 12:45:50,092857
2,1,2,0,2,3,-1,1,2021-08-07 12:45:50,108891
-3,-4,-3,-4,-4,-6,-2,-1,2021-08-07 12:45:50,124893
1,0,1,3,6,4,1,2,2021-08-07 12:45:50,140854
-1,-2,-3,-1,-2,-3,-2,-1,2021-08-07 12:45:50,155892
1,0,0,-3,-1,-4,1,-2,2021-08-07 12:45:50,171891
-3,-2,-3,-1,-5,0,-2,-3,2021-08-07 12:45:50,171891
-2,-2,-1,-3,-2,-4,-3,-1,2021-08-07 12:45:50,187856
1,1,2,2,5,1,-1,2,2021-08-07 12:45:50,202857
-1,-2,-3,-4,-5,0,-1,-2,2021-08-07 12:45:50,218882
-1,-1,1,4,5,0,2,-1,2021-08-07 12:45:50,249883
-4,-2,-4,-6,-11,-6,-4,-2,2021-08-07 12:45:50,265856
-2,-2,-1,1,9,5,0,-2,2021-08-07 12:45:50,265856
-1,2,1,1,0,-2,-2,0,2021-08-07 12:45:50,265856
0,1,-2,0,0,0,-1,0,2021-08-07 12:45:50,265856
2,3,1,-6,-5,-2,0,1,2021-08-07 12:45:50,265856
-2,-2,-2,-7,-7,-3,-2,-1,2021-08-07 12:45:50,265856
0,-4,-3,-4,-1,0,-1,-1,2021-08-07 12:45:50,265856
0,3,2,5,3,3,1,1,2021-08-07 12:45:50,266886
-2,-1,-4,1,1,-3,-2,-2,2021-08-07 12:45:50,266886
-2,-1,-1,-5,-4,-3,-1,-1,2021-08-07 12:45:50,266886
0,0,0,-1,2,2,1,-1,2021-08-07 12:45:50,266886
-2,-3,-3,-3,-4,-4,-3,-2,2021-08-07 12:45:50,266886
1,-2,1,1,0,0,-1,0,2021-08-07 12:45:50,266886
-2,-3,-3,-1,-1,-1,-1,-2,2021-08-07 12:45:50,266886
-1,1,-1,2,2,4,2,1,2021-08-07 12:45:50,266886
-1,1,-1,-2,-1,-2,0,1,2021-08-07 12:45:50,266886
-3,-2,-2,-2,-7,-3,-3,-3,2021-08-07 12:45:50,267858
0,1,0,-3,-4,-1,1,1,2021-08-07 12:45:50,267858
0,1,2,1,5,3,1,0,2021-08-07 12:45:50,267858
-2,-5,-2,4,5,3,-2,-3,2021-08-07 12:45:50,267858
2,1,0,-2,-3,0,-1,2,2021-08-07 12:45:50,267858
4,3,2,5,3,1,1,1,2021-08-07 12:45:50,267858
0,-1,-2,-5,-8,-6,-3,-2,2021-08-07 12:45:50,267858
-1,-1,-2,-2,0,0,0,-1,2021-08-07 12:45:50,268854
-2,-2,0,1,0,0,-1,-1,2021-08-07 12:45:50,281854
-2,-2,-4,-3,-4,-5,-2,-2,2021-08-07 12:45:50,281854
0,1,-1,-1,-1,-2,0,0,2021-08-07 12:45:50,281854
-1,-1,-1,0,-1,-1,-2,-2,2021-08-07 12:45:50,281854
-2,-4,-3,-3,-4,-1,-1,-2,2021-08-07 12:45:50,313892
3,4,4,9,14,10,5,3,2021-08-07 12:45:50,329892
-4,-4,-2,-1,-10,-9,-5,-2,2021-08-07 12:45:50,345856
2,2,0,3,8,8,4,2,2021-08-07 12:45:50,345856
1,-2,0,0,1,-1,0,0,2021-08-07 12:45:50,345856
-4,-2,-2,-4,-5,-5,-3,-2,2021-08-07 12:45:50,345856
-2,-2,-2,-1,0,-1,-2,0,2021-08-07 12:45:50,345856
-3,-3,-3,-7,-14,-11,-5,-5,2021-08-07 12:45:50,346856
0,0,-1,-3,0,0,0,0,2021-08-07 12:45:50,346856
0,1,3,1,7,4,3,0,2021-08-07 12:45:50,346856
-1,-3,-1,1,1,-1,-2,-3,2021-08-07 12:45:50,346856
1,2,3,2,3,-1,0,0,2021-08-07 12:45:50,346856
-1,0,-1,2,2,1,2,-1,2021-08-07 12:45:50,361888
-3,-5,-6,-9,-14,-8,-8,-3,2021-08-07 12:45:50,361888
2,4,4,1,4,3,4,1,2021-08-07 12:45:50,361888
1,-2,1,4,6,6,1,0,2021-08-07 12:45:50,361888
0,2,3,1,0,-1,1,1,2021-08-07 12:45:50,393856
1,0,-1,-4,-7,-2,-2,0,2021-08-07 12:45:50,393856
-2,-3,-4,-1,0,2,-1,-2,2021-08-07 12:45:50,393856
-1,0,-1,-2,-4,-3,-1,-1,2021-08-07 12:45:50,393856
0,0,1,2,1,-1,-1,-1,2021-08-07 12:45:50,393856
-3,-5,-4,1,-3,-4,-3,-3,2021-08-07 12:45:50,393856
2,2,0,-1,3,4,3,2,2021-08-07 12:45:50,394854
-1,-1,-1,-4,-4,-3,-1,-2,2021-08-07 12:45:50,394854
1,0,-2,-3,-8,-5,-2,1,2021-08-07 12:45:50,424894
0,2,3,6,13,9,3,0,2021-08-07 12:45:50,440893
-1,-1,0,4,3,1,2,0,2021-08-07 12:45:50,456902
0,1,0,0,0,0,-1,1,2021-08-07 12:45:50,456902
1,0,-1,-2,-2,-2,0,-1,2021-08-07 12:45:50,456902
-1,-2,-4,-6,-7,-4,-2,-1,2021-08-07 12:45:50,456902
0,0,0,1,3,1,1,2,2021-08-07 12:45:50,456902
-1,-2,0,0,0,1,-1,-1,2021-08-07 12:45:50,456902
-5,-5,-3,-8,-11,-6,-5,-5,2021-08-07 12:45:50,457856
1,1,5,15,15,8,4,0,2021-08-07 12:45:50,457856
-1,0,0,-1,-6,-4,-3,-2,2021-08-07 12:45:50,457856
1,1,1,3,5,2,0,0,2021-08-07 12:45:50,457856
0,1,-1,-3,-2,-2,-2,-1,2021-08-07 12:45:50,504893
1,-2,0,-1,0,0,1,0,2021-08-07 12:45:50,520857
-1,-4,-4,-7,-11,-7,-3,-2,2021-08-07 12:45:50,536897
2,3,1,4,5,5,4,3,2021-08-07 12:45:50,536897
-3,-4,-3,-5,-3,-1,-1,-1,2021-08-07 12:45:50,536897
-2,0,-1,-1,-5,-4,-2,-3,2021-08-07 12:45:50,536897
-2,-1,-3,1,-2,0,-1,-1,2021-08-07 12:45:50,536897
2,1,5,4,0,0,2,1,2021-08-07 12:45:50,536897
0,-1,-2,-1,1,0,0,-1,2021-08-07 12:45:50,536897
-3,-3,-3,-3,-2,-1,-1,-1,2021-08-07 12:45:50,536897
-1,0,0,1,2,-1,-1,-1,2021-08-07 12:45:50,536897
-6,-9,-11,-10,-9,-7,-8,-6,2021-08-07 12:45:50,537855
10,11,10,14,18,14,9,7,2021-08-07 12:45:50,537855
2,4,3,-5,-8,-4,-2,2,2021-08-07 12:45:50,537855
2,0,1,5,5,5,3,0,2021-08-07 12:45:50,537855
-3,-2,-3,1,-2,-2,-2,-2,2021-08-07 12:45:50,537855
-1,-2,-1,2,6,2,1,-1,2021-08-07 12:45:50,566893
-4,-6,-5,-7,-8,-7,-5,-3,2021-08-07 12:45:50,582856
-1,-3,-1,-1,-2,0,0,-1,2021-08-07 12:45:50,598858
-2,-1,-1,-3,-5,-2,-3,1,2021-08-07 12:45:50,598858
-2,-6,-5,-3,1,2,0,-2,2021-08-07 12:45:50,598858
2,6,5,6,8,7,5,1,2021-08-07 12:45:50,598858
-2,-3,-3,-9,-8,-7,-4,-3,2021-08-07 12:45:50,598858
1,2,1,4,3,2,1,0,2021-08-07 12:45:50,599856
0,1,-1,0,-2,-2,-1,-2,2021-08-07 12:45:50,599856
0,-4,-2,-3,-5,-4,-3,-2,2021-08-07 12:45:50,599856
-4,-6,-6,-5,-10,-8,-6,-3,2021-08-07 12:45:50,599856
0,-2,-2,-11,-15,-6,-2,-1,2021-08-07 12:45:50,599856
1,4,3,17,30,17,7,3,2021-08-07 12:45:50,629881
2,6,3,2,5,4,3,1,2021-08-07 12:45:50,629881
0,-2,-2,2,3,1,-1,-1,2021-08-07 12:45:50,629881
1,0,1,-7,-8,-6,-2,-2,2021-08-07 12:45:50,629881
-5,-5,-5,-8,-20,-11,-7,-3,2021-08-07 12:45:50,645856
0,-3,-2,4,9,6,2,0,2021-08-07 12:45:50,645856
0,1,1,4,0,0,-1,0,2021-08-07 12:45:50,645856
-1,-2,-3,-2,-1,1,1,-2,2021-08-07 12:45:50,645856
0,-1,1,-3,-4,-2,-1,-1,2021-08-07 12:45:50,661892
-4,-4,-4,-7,-8,-7,-4,-3,2021-08-07 12:45:50,661892
-4,-5,-3,-7,-5,-5,-3,-2,2021-08-07 12:45:50,661892
2,1,0,4,7,1,0,1,2021-08-07 12:45:50,661892
2,2,5,0,5,3,2,1,2021-08-07 12:45:50,693882
-4,-5,-6,-1,-6,-5,-4,-4,2021-08-07 12:45:50,709892
-3,-3,-5,-11,-11,-4,-3,0,2021-08-07 12:45:50,722856
3,4,6,9,19,12,6,4,2021-08-07 12:45:50,722856
-1,1,1,2,-2,-1,0,-1,2021-08-07 12:45:50,723856
0,-2,0,-4,-5,-4,-2,-2,2021-08-07 12:45:50,723856
-2,1,-1,2,2,1,-1,0,2021-08-07 12:45:50,723856
-3,-5,-3,-1,-2,-2,-3,-2,2021-08-07 12:45:50,723856
1,2,0,-1,-2,-1,0,0,2021-08-07 12:45:50,723856
0,1,1,-1,-2,-1,0,1,2021-08-07 12:45:50,724856
1,2,2,3,3,0,2,0,2021-08-07 12:45:50,741892
-3,-2,-4,-4,-4,-3,-1,-3,2021-08-07 12:45:50,741892
-4,-3,-5,-7,-7,-4,-3,-3,2021-08-07 12:45:50,741892
-2,-4,-2,-2,2,1,1,-1,2021-08-07 12:45:50,741892
1,1,3,2,-1,0,0,2,2021-08-07 12:45:50,741892
2,3,4,9,16,8,4,2,2021-08-07 12:45:50,741892
-7,-8,-7,-11,-20,-14,-9,-4,2021-08-07 12:45:50,757894
0,0,3,8,11,6,2,2,2021-08-07 12:45:50,757894
2,3,3,2,2,2,2,0,2021-08-07 12:45:50,757894
2,3,0,0,7,4,4,2,2021-08-07 12:45:50,757894
1,0,0,2,2,-1,-2,0,2021-08-07 12:45:50,789904
-1,-2,-4,-7,-12,-7,-5,-3,2021-08-07 12:45:50,805893
-1,-3,-1,-1,1,0,-2,-2,2021-08-07 12:45:50,821857
-1,-1,-2,-5,-8,-5,-3,-3,2021-08-07 12:45:50,821857
1,-1,-1,0,4,-1,0,0,2021-08-07 12:45:50,821857
-1,0,-2,-2,-4,-2,0,-2,2021-08-07 12:45:50,821857
-2,-2,-3,-2,-2,-2,-2,-1,2021-08-07 12:45:50,821857
-4,-6,-8,-8,-13,-10,-6,-5,2021-08-07 12:45:50,837882
0,1,1,1,3,4,1,2,2021-08-07 12:45:50,853894
1,5,5,3,3,1,2,3,2021-08-07 12:45:50,869894
1,2,3,6,5,5,2,2,2021-08-07 12:45:50,869894
2,3,2,-5,-7,-1,-1,2,2021-08-07 12:45:50,869894
-2,-5,-5,-3,-3,0,-2,-3,2021-08-07 12:45:50,869894
-2,-2,-3,-3,-2,-1,-4,-1,2021-08-07 12:45:50,869894
0,2,1,2,4,1,2,1,2021-08-07 12:45:50,869894
-3,-2,-2,1,-1,-3,-2,-3,2021-08-07 12:45:50,870856
1,1,-1,0,-1,0,0,0,2021-08-07 12:45:50,870856
-1,-3,-4,-3,-4,-1,-3,-2,2021-08-07 12:45:50,870856
-1,-4,-3,0,0,0,0,-1,2021-08-07 12:45:50,870856
0,-2,-3,-3,-4,-1,-2,0,2021-08-07 12:45:50,870856
-2,0,0,-2,-3,-4,-2,-2,2021-08-07 12:45:50,885893
3,5,3,5,6,5,3,2,2021-08-07 12:45:50,901893
0,-2,-2,-5,-2,-3,-3,-1,2021-08-07 12:45:50,917857
0,0,0,5,4,2,2,-1,2021-08-07 12:45:50,917857
-2,-1,0,5,7,3,2,-2,2021-08-07 12:45:50,917857
-1,-1,-1,-1,-1,-1,-1,0,2021-08-07 12:45:50,917857
-2,1,-1,-4,-4,-2,-2,-1,2021-08-07 12:45:50,917857
-2,-2,-1,-4,-7,-2,-4,-2,2021-08-07 12:45:50,917857
1,0,2,1,4,2,2,1,2021-08-07 12:45:50,918856
0,-1,-2,-1,-3,-4,-1,1,2021-08-07 12:45:50,933894
-2,-3,-3,-1,-2,-1,-1,-2,2021-08-07 12:45:50,948857
-1,-1,-1,4,5,2,1,1,2021-08-07 12:45:50,948857
1,3,1,-3,-3,0,-1,0,2021-08-07 12:45:50,948857
-2,-1,0,-4,-4,-2,-2,-1,2021-08-07 12:45:50,964893
0,-5,-4,-1,-1,-3,-3,-1,2021-08-07 12:45:50,964893
1,2,3,-6,-11,-6,-2,-1,2021-08-07 12:45:50,964893
4,6,5,11,16,8,4,3,2021-08-07 12:45:50,964893
-1,-3,-1,2,7,5,3,0,2021-08-07 12:45:50,964893
-3,-1,1,0,-1,-2,-2,0,2021-08-07 12:45:50,980888
0,-2,-4,-4,-5,-3,-1,0,2021-08-07 12:45:50,980888
-1,-3,-4,-8,-11,-3,-2,-1,2021-08-07 12:45:50,996893
-2,-1,-1,0,-1,-2,-2,-3,2021-08-07 12:45:50,996893
-2,-6,-4,-4,-2,-1,0,-3,2021-08-07 12:45:50,996893
-1,1,0,4,7,5,2,1,2021-08-07 12:45:50,996893
-2,-1,-1,0,-7,-5,-3,-2,2021-08-07 12:45:51,012893
1,1,-2,-6,-7,-3,0,1,2021-08-07 12:45:51,028857
2,2,2,6,5,3,1,0,2021-08-07 12:45:51,028857
0,1,1,-3,-1,-1,-1,1,2021-08-07 12:45:51,028857
-1,-1,0,-3,-3,-1,-2,0,2021-08-07 12:45:51,028857
-2,-3,-1,3,3,-2,-2,-1,2021-08-07 12:45:51,028857
0,1,-1,-1,0,0,-1,1,2021-08-07 12:45:51,044893
-1,0,0,-1,-2,-2,0,-2,2021-08-07 12:45:51,044893
-2,-3,-2,0,-2,-2,-3,-1,2021-08-07 12:45:51,044893
-1,-3,-4,-8,-11,-6,-3,-3,2021-08-07 12:45:51,044893
-1,-2,-2,-1,1,-2,-2,2,2021-08-07 12:45:51,044893
4,5,6,5,2,2,4,4,2021-08-07 12:45:51,044893
-1,0,1,0,7,3,0,1,2021-08-07 12:45:51,075892
0,0,-1,1,-2,-1,0,-1,2021-08-07 12:45:51,091892
-3,-3,-3,-3,-4,-1,-2,-2,2021-08-07 12:45:51,107893
-4,-5,-4,3,0,-4,-3,-4,2021-08-07 12:45:51,123876
1,1,-2,-8,-12,-4,0,1,2021-08-07 12:45:51,139896
0,-1,0,7,11,8,3,0,2021-08-07 12:45:51,148867
-1,0,0,-4,-4,-2,0,-2,2021-08-07 12:45:51,148867
-2,-3,-4,-2,-3,-3,-2,-4,2021-08-07 12:45:51,149856
-3,-5,-5,-7,-10,-6,-5,-3,2021-08-07 12:45:51,149856
2,5,4,6,11,8,3,2,2021-08-07 12:45:51,149856
2,4,3,2,4,3,3,2,2021-08-07 12:45:51,155881
0,0,0,0,4,1,0,0,2021-08-07 12:45:51,171856
-1,-3,-5,0,-4,-3,-3,-3,2021-08-07 12:45:51,186893
-5,-5,-5,-11,-15,-8,-4,-3,2021-08-07 12:45:51,186893
0,2,1,1,2,-1,-1,0,2021-08-07 12:45:51,186893
3,4,6,2,2,4,3,5,2021-08-07 12:45:51,186893
-3,-1,-1,-1,-2,-2,-1,-1,2021-08-07 12:45:51,186893
-2,-5,-3,-7,-7,-9,-5,-2,2021-08-07 12:45:51,186893
0,0,-1,-1,-2,0,2,-1,2021-08-07 12:45:51,186893
0,-2,-2,-3,-4,1,0,0,2021-08-07 12:45:51,187855
2,0,1,6,14,6,3,2,2021-08-07 12:45:51,187855
-2,1,0,3,3,2,1,-1,2021-08-07 12:45:51,187855
-2,-1,-1,-2,-1,0,-3,-3,2021-08-07 12:45:51,187855
-5,-4,-4,-4,-8,-7,-6,-4,2021-08-07 12:45:51,187855
0,1,3,5,8,4,3,-1,2021-08-07 12:45:51,187855
1,1,2,-1,3,1,1,0,2021-08-07 12:45:51,187855
-2,-3,-3,-6,-6,-4,-3,-1,2021-08-07 12:45:51,187855
1,1,-1,-4,-4,0,1,0,2021-08-07 12:45:51,187855
1,0,0,-8,-9,-3,-2,-1,2021-08-07 12:45:51,218904
-3,-2,-3,-1,3,0,-1,-2,2021-08-07 12:45:51,218904
1,2,2,3,0,1,1,1,2021-08-07 12:45:51,218904
-2,-3,-4,0,0,1,-2,-1,2021-08-07 12:45:51,218904
-1,-1,-1,-1,-4,-3,-2,-1,2021-08-07 12:45:51,218904
-1,0,-1,-3,-5,-3,-2,-1,2021-08-07 12:45:51,218904
-2,-4,-2,-2,-6,-3,-2,-2,2021-08-07 12:45:51,233893
2,3,0,1,10,4,3,2,2021-08-07 12:45:51,233893
-2,-2,-1,-1,1,-2,0,-1,2021-08-07 12:45:51,248854
-1,-2,-1,2,2,0,-2,-2,2021-08-07 12:45:51,248854
0,-1,0,0,1,0,1,-1,2021-08-07 12:45:51,248854
3,1,3,2,1,2,0,0,2021-08-07 12:45:51,248854
-2,-3,-4,-1,2,0,0,0,2021-08-07 12:45:51,280888
1,2,2,2,1,-1,0,3,2021-08-07 12:45:51,296892
-1,1,0,-2,-4,-5,-4,-1,2021-08-07 12:45:51,296892
-5,-6,-5,-11,-16,-13,-7,-7,2021-08-07 12:45:51,296892
3,3,4,11,21,15,8,3,2021-08-07 12:45:51,296892
-4,-6,-7,-5,-6,-5,-4,-3,2021-08-07 12:45:51,296892
-2,-3,-1,-1,-1,2,0,0,2021-08-07 12:45:51,296892
1,3,0,4,9,4,1,2,2021-08-07 12:45:51,296892
-2,-1,-2,-3,-5,-5,-3,-3,2021-08-07 12:45:51,312893
-1,0,1,-3,-6,-2,-1,1,2021-08-07 12:45:51,312893
-1,0,-2,2,2,0,0,-1,2021-08-07 12:45:51,312893
-1,0,0,0,0,-1,0,-1,2021-08-07 12:45:51,312893
-2,-2,-3,-3,-6,-4,-2,-2,2021-08-07 12:45:51,328857
2,1,3,6,8,5,0,0,2021-08-07 12:45:51,344855
0,-2,-3,-3,-3,-4,-1,-2,2021-08-07 12:45:51,360857
1,0,-1,-1,-1,-1,-1,-2,2021-08-07 12:45:51,360857
0,1,-1,-2,-3,-1,1,-1,2021-08-07 12:45:51,376893
-5,-5,-8,-14,-20,-12,-8,-5,2021-08-07 12:45:51,376893
2,4,5,11,15,8,4,3,2021-08-07 12:45:51,376893
-2,-4,-1,4,8,4,1,-1,2021-08-07 12:45:51,376893
1,3,3,1,-2,-1,-1,1,2021-08-07 12:45:51,376893
1,-1,0,1,-2,-1,-1,-1,2021-08-07 12:45:51,376893
-2,-1,-2,-5,-6,-4,-3,-3,2021-08-07 12:45:51,376893
-1,1,1,2,1,1,0,1,2021-08-07 12:45:51,376893
0,0,0,-3,-4,-3,-1,0,2021-08-07 12:45:51,391893
-3,-6,-5,-8,-10,-9,-5,-3,2021-08-07 12:45:51,391893
-2,-2,-4,-8,-8,-1,-2,-1,2021-08-07 12:45:51,391893
4,5,5,11,20,11,6,4,2021-08-07 12:45:51,391893
-4,-4,-4,-1,-2,-2,-3,-3,2021-08-07 12:45:51,423885
-1,0,0,-2,-4,-1,-1,0,2021-08-07 12:45:51,438881
0,-1,-1,-4,-1,-1,0,1,2021-08-07 12:45:51,454855
-2,-1,-2,-5,-8,-7,-2,-3,2021-08-07 12:45:51,454855
-2,-3,-3,-6,-7,-5,-4,-2,2021-08-07 12:45:51,454855
0,-2,0,2,6,5,2,0,2021-08-07 12:45:51,454855
-1,1,1,6,2,0,-1,-1,2021-08-07 12:45:51,454855
-1,1,-2,-7,-10,-3,-1,1,2021-08-07 12:45:51,454855
1,2,2,-1,-1,0,0,-2,2021-08-07 12:45:51,454855
0,0,0,6,11,6,2,-1,2021-08-07 12:45:51,455855
-1,-2,-3,-2,0,-2,-1,-1,2021-08-07 12:45:51,455855
-2,-2,-2,-3,-5,-3,-1,-1,2021-08-07 12:45:51,455855
-4,-7,-5,-8,-12,-9,-5,-3,2021-08-07 12:45:51,470855
0,2,3,1,0,1,-1,-1,2021-08-07 12:45:51,470855
0,-1,-1,3,3,3,3,-1,2021-08-07 12:45:51,470855
0,0,2,0,-5,-3,-2,-2,2021-08-07 12:45:51,470855
2,1,1,2,6,4,2,3,2021-08-07 12:45:51,486893
-2,-3,-2,-4,-6,-5,-3,-2,2021-08-07 12:45:51,486893
-5,-5,-5,-2,-1,-1,-1,-3,2021-08-07 12:45:51,486893
5,7,6,3,3,2,4,3,2021-08-07 12:45:51,486893
-1,-2,0,2,3,1,0,0,2021-08-07 12:45:51,533883
2,4,2,2,4,3,3,2,2021-08-07 12:45:51,533883
-2,-3,-3,-8,-9,-6,-2,-2,2021-08-07 12:45:51,533883
-5,-5,-5,-2,-5,-3,-3,-3,2021-08-07 12:45:51,533883
-1,1,2,3,4,3,1,1,2021-08-07 12:45:51,533883
-2,-1,-1,1,0,-2,2,0,2021-08-07 12:45:51,533883
2,0,0,-1,-1,-2,-1,0,2021-08-07 12:45:51,534855
-3,-6,-6,-9,-8,-3,-4,-4,2021-08-07 12:45:51,534855
2,5,3,5,3,0,0,1,2021-08-07 12:45:51,549895
1,-1,-2,1,2,3,0,1,2021-08-07 12:45:51,549895
3,4,4,8,9,4,3,2,2021-08-07 12:45:51,549895
0,-2,0,3,7,1,2,0,2021-08-07 12:45:51,549895
-5,-6,-8,-9,-10,-7,-4,-3,2021-08-07 12:45:51,581859
-2,-1,-2,-8,-12,-7,-4,-2,2021-08-07 12:45:51,581859
0,-1,1,4,1,1,-1,-1,2021-08-07 12:45:51,581859
0,1,2,7,14,9,3,2,2021-08-07 12:45:51,581859
-1,0,-2,-4,-5,-3,0,-2,2021-08-07 12:45:51,581859
0,-1,-2,-1,-2,-1,1,-1,2021-08-07 12:45:51,582857
0,0,0,2,2,0,0,0,2021-08-07 12:45:51,588897
-3,-5,-4,-8,-11,-7,-3,-4,2021-08-07 12:45:51,588897
-1,-1,0,0,0,-1,0,1,2021-08-07 12:45:51,613891
-1,-2,-3,-3,-1,0,0,0,2021-08-07 12:45:51,613891
-1,-1,0,0,4,2,0,-1,2021-08-07 12:45:51,613891
2,4,3,5,4,2,1,1,2021-08-07 12:45:51,613891
0,0,-1,0,1,1,1,-2,2021-08-07 12:45:51,629891
-1,1,-2,-1,2,0,-2,0,2021-08-07 12:45:51,629891
-2,0,0,-4,-6,-3,-1,-1,2021-08-07 12:45:51,629891
0,-3,-2,-2,1,2,-1,0,2021-08-07 12:45:51,629891
-1,-2,0,-6,-8,-5,-3,-1,2021-08-07 12:45:51,645855
-1,-2,-3,-2,-2,-3,-2,-1,2021-08-07 12:45:51,645855
-2,-2,-2,-5,-6,-5,-5,-2,2021-08-07 12:45:51,645855
0,-2,-2,0,2,2,0,4,2021-08-07 12:45:51,645855
3,5,6,4,6,4,3,1,2021-08-07 12:45:51,676886
1,-1,0,1,4,-1,1,-1,2021-08-07 12:45:51,676886
0,1,0,-1,1,0,0,-2,2021-08-07 12:45:51,676886
-4,-1,-3,-5,-7,-4,-3,-4,2021-08-07 12:45:51,676886
0,-1,-2,-1,0,1,0,0,2021-08-07 12:45:51,692880
-2,-1,0,-4,-3,-2,0,-2,2021-08-07 12:45:51,708899
3,3,3,0,-2,-1,0,1,2021-08-07 12:45:51,708899
-1,-4,-3,-3,-8,-6,-4,-3,2021-08-07 12:45:51,708899
-1,-2,-1,6,14,8,3,2,2021-08-07 12:45:51,708899
0,1,2,6,9,6,4,1,2021-08-07 12:45:51,708899
-3,-2,-4,-3,-2,-2,-1,-1,2021-08-07 12:45:51,708899
-2,-2,-3,-5,-10,-6,-5,-2,2021-08-07 12:45:51,724898
0,-1,-1,-2,-1,-1,-2,-1,2021-08-07 12:45:51,740903
0,1,-1,-1,-3,-3,0,-1,2021-08-07 12:45:51,740903
0,-1,-1,-1,0,-1,1,0,2021-08-07 12:45:51,740903
-4,-2,-1,-4,-9,-8,-3,-1,2021-08-07 12:45:51,740903
-1,-4,-5,-9,-15,-9,-4,-3,2021-08-07 12:45:51,756893
1,1,3,14,24,15,6,3,2021-08-07 12:45:51,756893
0,-1,1,1,2,2,1,2,2021-08-07 12:45:51,756893
0,1,1,0,3,0,0,0,2021-08-07 12:45:51,756893
-1,-2,-2,-3,-7,-5,-3,-3,2021-08-07 12:45:51,756893
-2,-1,-2,-4,-11,-5,-2,-1,2021-08-07 12:45:51,756893
1,1,1,5,14,8,4,-1,2021-08-07 12:45:51,788856
1,-2,-1,-15,-27,-17,-6,-1,2021-08-07 12:45:51,788856
1,0,2,12,18,10,3,3,2021-08-07 12:45:51,804859
-1,-3,-4,-3,0,1,-1,-2,2021-08-07 12:45:51,820857
-1,-1,1,0,-3,-2,-1,1,2021-08-07 12:45:51,820857
0,1,0,2,7,3,2,-1,2021-08-07 12:45:51,820857
-2,-1,-1,0,-3,-5,-4,-4,2021-08-07 12:45:51,820857
0,-3,-4,-6,-12,-6,-3,-1,2021-08-07 12:45:51,820857
-1,-1,-3,-1,2,1,-2,0,2021-08-07 12:45:51,820857
-4,-4,-2,-2,0,3,-1,-2,2021-08-07 12:45:51,820857
0,0,-1,-4,-7,-3,-2,1,2021-08-07 12:45:51,836906
-2,-2,-1,-3,-8,-4,-4,0,2021-08-07 12:45:51,852894
-2,-2,-2,-1,-2,0,-1,-1,2021-08-07 12:45:51,884857
-1,-4,-4,0,6,2,2,-2,2021-08-07 12:45:51,884857
3,5,4,1,2,1,2,2,2021-08-07 12:45:51,884857
-1,0,-1,-9,-17,-11,-5,-2,2021-08-07 12:45:51,884857
-2,-3,-3,3,13,10,3,0,2021-08-07 12:45:51,884857
0,0,-1,8,14,8,3,-1,2021-08-07 12:45:51,884857
0,0,-1,-2,0,-1,-1,-1,2021-08-07 12:45:51,885855
1,0,1,3,5,3,1,1,2021-08-07 12:45:51,885855
6,8,5,-4,-14,-7,-1,3,2021-08-07 12:45:51,885855
-4,-3,-4,-1,-2,-3,-4,-3,2021-08-07 12:45:51,885855
-5,-6,-6,-5,-1,0,-2,-2,2021-08-07 12:45:51,885855
-2,-4,-2,-7,-6,-5,-4,-2,2021-08-07 12:45:51,885855
2,4,2,8,18,12,5,2,2021-08-07 12:45:51,886856
0,2,2,1,1,0,-1,0,2021-08-07 12:45:51,886856
-1,0,-2,-5,-10,-5,-1,0,2021-08-07 12:45:51,916893
-2,-1,-1,2,5,2,-1,-3,2021-08-07 12:45:51,932893
-3,-3,-4,-8,-12,-9,-5,-4,2021-08-07 12:45:51,932893
1,3,1,-5,-9,-6,-3,1,2021-08-07 12:45:51,932893
0,0,2,7,9,6,2,1,2021-08-07 12:45:51,932893
2,-2,-2,-2,0,0,-2,1,2021-08-07 12:45:51,932893
-1,-5,-5,-3,-7,-6,-2,0,2021-08-07 12:45:51,932893
2,1,-2,0,1,4,7,3,2021-08-07 12:45:51,932893
-2,-5,-3,-2,0,2,-1,-3,2021-08-07 12:45:51,963881
1,4,7,7,4,2,-1,1,2021-08-07 12:45:51,979892
-5,0,4,5,6,1,-2,-5,2021-08-07 12:45:51,995856
-3,-3,-1,-4,-8,-2,1,0,2021-08-07 12:45:51,995856
-2,-1,-4,0,2,1,3,0,2021-08-07 12:45:51,995856
0,3,3,1,2,-1,-4,0,2021-08-07 12:45:51,995856
-2,-2,-2,-5,-7,-11,-12,-5,2021-08-07 12:45:51,995856
1,2,1,2,6,1,0,1,2021-08-07 12:45:51,995856
-2,-4,-5,-5,-1,-1,1,1,2021-08-07 12:45:51,995856
-1,-2,-5,-7,-11,-5,4,2,2021-08-07 12:45:51,996893
1,-2,-2,-5,-11,-4,1,2,2021-08-07 12:45:51,996893
2,1,0,6,12,9,5,0,2021-08-07 12:45:51,996893
0,0,1,0,0,-4,-4,-3,2021-08-07 12:45:52,011857
2,0,0,5,8,4,7,3,2021-08-07 12:45:52,011857
-2,-1,-2,-3,-3,-3,-7,-7,2021-08-07 12:45:52,011857
-2,1,1,2,5,-1,-4,-2,2021-08-07 12:45:52,011857
1,0,-1,-4,-6,-4,-3,-2,2021-08-07 12:45:52,026892
-1,1,-2,5,9,4,0,0,2021-08-07 12:45:52,042855
2,-2,0,1,1,3,7,3,2021-08-07 12:45:52,058893
0,-2,-2,-5,-6,-4,-1,-1,2021-08-07 12:45:52,058893
0,0,2,1,-1,-2,-2,0,2021-08-07 12:45:52,058893
-2,-4,-2,-3,-1,1,0,-2,2021-08-07 12:45:52,058893
-1,-1,-2,-2,-3,-1,3,2,2021-08-07 12:45:52,059856
-1,-1,1,1,-1,-1,-2,-1,2021-08-07 12:45:52,059856
-2,-4,-4,-7,-7,-3,-3,-3,2021-08-07 12:45:52,074893
1,-1,0,0,-2,-2,0,0,2021-08-07 12:45:52,090880
-2,-3,-7,-10,-11,-6,-3,-2,2021-08-07 12:45:52,106857
1,0,3,12,19,8,3,0,2021-08-07 12:45:52,106857
2,1,2,3,5,1,1,0,2021-08-07 12:45:52,106857
-1,2,1,-6,-11,-6,-3,-2,2021-08-07 12:45:52,106857
1,0,2,9,13,5,2,3,2021-08-07 12:45:52,106857
-2,-3,-4,-5,-4,-3,-2,-2,2021-08-07 12:45:52,107856
-5,-3,-5,-5,-6,-3,-3,-2,2021-08-07 12:45:52,107856
-2,-2,-3,-8,-16,-13,-6,-1,2021-08-07 12:45:52,107856
1,1,0,3,10,10,4,1,2021-08-07 12:45:52,107856
-1,-1,0,3,7,3,0,-1,2021-08-07 12:45:52,107856
0,0,1,2,3,1,-1,-1,2021-08-07 12:45:52,138857
0,-1,-4,-3,0,0,-2,-1,2021-08-07 12:45:52,138857
0,0,0,-3,-7,-5,-2,0,2021-08-07 12:45:52,138857
0,-1,0,-2,-7,-3,-2,0,2021-08-07 12:45:52,138857
-1,0,-2,-2,0,0,-1,-1,2021-08-07 12:45:52,154895
-2,-3,-3,0,-2,-2,-2,-2,2021-08-07 12:45:52,170857
-1,-1,-2,-5,-2,0,-2,-1,2021-08-07 12:45:52,185857
-2,-1,0,-3,-6,-3,-2,-1,2021-08-07 12:45:52,185857
0,-1,1,-1,-8,-4,-1,0,2021-08-07 12:45:52,200896
-2,0,0,-2,3,1,-1,-1,2021-08-07 12:45:52,200896
-1,0,0,8,9,5,1,0,2021-08-07 12:45:52,200896
1,3,2,-4,-8,-3,-1,-1,2021-08-07 12:45:52,200896
-1,0,2,2,-1,0,-1,0,2021-08-07 12:45:52,200896
-4,-4,-6,-3,-4,-2,-3,-2,2021-08-07 12:45:52,200896
0,-3,-2,-1,0,0,1,-1,2021-08-07 12:45:52,201858
-1,-1,-1,-1,-3,-2,-2,-1,2021-08-07 12:45:52,201858
1,0,0,0,1,2,1,0,2021-08-07 12:45:52,201858
-5,-6,-5,-4,-4,-2,-3,-7,2021-08-07 12:45:52,201858
0,5,2,-1,-8,-6,-3,0,2021-08-07 12:45:52,216893
-1,-3,-7,-11,-15,-6,-3,-1,2021-08-07 12:45:52,216893
1,4,4,15,28,16,7,3,2021-08-07 12:45:52,232853
0,-1,1,10,16,7,3,2,2021-08-07 12:45:52,232853
-2,-4,-3,-4,-7,-6,-4,-3,2021-08-07 12:45:52,232853
0,0,1,3,0,-3,0,-1,2021-08-07 12:45:52,232853
-3,-5,-7,-13,-19,-12,-7,-3,2021-08-07 12:45:52,264858
1,2,3,4,6,3,0,0,2021-08-07 12:45:52,264858
1,-1,1,4,6,4,2,1,2021-08-07 12:45:52,264858
1,0,2,1,4,2,0,1,2021-08-07 12:45:52,264858
-3,-2,-2,-6,-8,-6,-2,-2,2021-08-07 12:45:52,264858
2,2,2,1,2,2,0,2,2021-08-07 12:45:52,264858
-3,-1,-2,-6,-5,-4,-3,-3,2021-08-07 12:45:52,265856
-1,-2,-2,-4,-4,-1,0,-1,2021-08-07 12:45:52,265856
-3,-4,-2,3,7,4,2,-1,2021-08-07 12:45:52,295856
1,0,0,-1,0,0,0,2,2021-08-07 12:45:52,311892
0,-3,0,-6,-11,-7,-3,-2,2021-08-07 12:45:52,327880
4,6,5,8,8,7,2,2,2021-08-07 12:45:52,327880
-1,-1,-2,-5,-8,-6,-3,-4,2021-08-07 12:45:52,327880
-2,-2,-2,-2,-4,-1,-2,-3,2021-08-07 12:45:52,327880
-3,-2,-4,-6,-5,-1,-1,-2,2021-08-07 12:45:52,327880
1,1,5,16,27,16,6,2,2021-08-07 12:45:52,327880
2,1,-1,-3,-5,-4,-1,0,2021-08-07 12:45:52,328854
-1,-1,0,-2,-3,-2,-1,0,2021-08-07 12:45:52,328854
-1,-1,0,-4,-6,-4,-3,-2,2021-08-07 12:45:52,358893
-5,-7,-8,-11,-12,-6,-5,-6,2021-08-07 12:45:52,358893
2,6,6,1,0,0,0,2,2021-08-07 12:45:52,358893
0,-1,-1,0,0,-2,1,-2,2021-08-07 12:45:52,358893
-2,-1,-1,2,6,3,1,0,2021-08-07 12:45:52,358893
2,4,2,1,2,2,4,4,2021-08-07 12:45:52,358893
-3,-5,-3,-2,-4,-3,-4,-3,2021-08-07 12:45:52,374895
0,-1,-1,-6,-12,-6,-2,-1,2021-08-07 12:45:52,374895
2,2,5,8,15,8,5,2,2021-08-07 12:45:52,374895
-2,-5,-2,-2,3,-1,-1,-3,2021-08-07 12:45:52,374895
0,-2,0,-1,-2,-2,0,0,2021-08-07 12:45:52,390856
0,-1,-2,-2,-3,-2,-2,-1,2021-08-07 12:45:52,390856
-2,-2,-2,-4,-9,-5,-2,-2,2021-08-07 12:45:52,406855
-1,-2,0,2,1,0,-2,1,2021-08-07 12:45:52,406855
1,1,1,-1,-2,-2,-1,-1,2021-08-07 12:45:52,406855
1,0,0,4,6,4,1,0,2021-08-07 12:45:52,406855
0,-2,0,1,-2,-3,-3,0,2021-08-07 12:45:52,406855
-1,-1,-2,-6,-11,-5,-2,-1,2021-08-07 12:45:52,406855
-6,-6,-8,-10,-14,-8,-6,-6,2021-08-07 12:45:52,438855
2,3,4,10,13,9,5,2,2021-08-07 12:45:52,438855
0,1,-1,1,2,-3,-1,0,2021-08-07 12:45:52,438855
0,0,0,-1,3,1,0,-1,2021-08-07 12:45:52,438855
-1,1,1,1,1,-1,0,-1,2021-08-07 12:45:52,438855
-1,-2,-3,-7,-7,-4,-2,-2,2021-08-07 12:45:52,438855
1,-1,-3,0,1,3,1,0,2021-08-07 12:45:52,454856
-3,-1,-2,-3,-11,-7,-3,-3,2021-08-07 12:45:52,470857
1,-1,0,1,4,2,1,-1,2021-08-07 12:45:52,486893
0,-1,0,-2,-3,-2,-2,1,2021-08-07 12:45:52,502894
1,1,1,-2,4,3,2,0,2021-08-07 12:45:52,518894
-6,-5,-6,-5,-7,-3,-3,-3,2021-08-07 12:45:52,518894
2,5,7,5,10,6,5,3,2021-08-07 12:45:52,518894
0,1,-1,-1,-1,0,0,-1,2021-08-07 12:45:52,518894
-1,-1,-1,-2,-4,-2,-1,0,2021-08-07 12:45:52,518894
-1,-1,-1,-6,-10,-6,-4,1,2021-08-07 12:45:52,533897
-1,-3,0,2,4,3,-1,1,2021-08-07 12:45:52,549894
-2,-3,-3,-3,-4,-2,-1,-2,2021-08-07 12:45:52,549894
-1,-1,0,-1,0,0,0,0,2021-08-07 12:45:52,549894
0,1,-1,2,8,2,0,-1,2021-08-07 12:45:52,549894
-3,-2,-4,-6,-8,-5,-3,-1,2021-08-07 12:45:52,549894
0,0,0,3,7,3,1,0,2021-08-07 12:45:52,549894
1,0,0,0,-4,-2,-2,0,2021-08-07 12:45:52,550856
3,4,4,9,11,6,4,2,2021-08-07 12:45:52,550856
-1,-2,-3,-4,-7,-5,-3,-2,2021-08-07 12:45:52,550856
0,-1,-1,1,2,3,0,-2,2021-08-07 12:45:52,550856
-3,-6,-3,-3,-3,-3,-3,-3,2021-08-07 12:45:52,550856
-3,-1,-3,-5,-7,-4,-3,-2,2021-08-07 12:45:52,550856
3,4,4,1,2,3,1,2,2021-08-07 12:45:52,565893
0,3,2,3,5,2,1,3,2021-08-07 12:45:52,565893
-1,-1,-1,1,-3,-4,0,0,2021-08-07 12:45:52,581859
-1,-2,-1,-2,-5,-4,-1,-1,2021-08-07 12:45:52,581859
-2,-2,-4,-2,0,0,-1,-1,2021-08-07 12:45:52,581859
-2,-6,-4,-6,-10,-6,-4,-4,2021-08-07 12:45:52,581859
1,3,4,6,10,6,5,2,2021-08-07 12:45:52,597894
1,-1,0,2,6,2,0,-2,2021-08-07 12:45:52,597894
-1,2,0,-2,-8,-4,-1,-1,2021-08-07 12:45:52,613892
2,3,2,7,15,9,3,3,2021-08-07 12:45:52,613892
-2,-3,-5,-6,-10,-4,-6,-4,2021-08-07 12:45:52,614860
-3,-3,-2,-2,-4,-3,-2,-2,2021-08-07 12:45:52,614860
1,-1,-2,-2,-3,-1,-1,0,2021-08-07 12:45:52,628893
-3,-3,-3,-3,-5,-5,-4,-3,2021-08-07 12:45:52,628893
1,2,3,2,2,2,1,1,2021-08-07 12:45:52,628893
0,1,1,-3,0,0,-1,1,2021-08-07 12:45:52,628893
1,-1,1,3,3,2,1,1,2021-08-07 12:45:52,660896
-3,-2,-3,-7,-14,-8,-2,-2,2021-08-07 12:45:52,660896
1,2,2,4,11,10,4,1,2021-08-07 12:45:52,660896
-4,-8,-7,-10,-16,-9,-6,-3,2021-08-07 12:45:52,660896
0,0,1,6,13,8,3,1,2021-08-07 12:45:52,675894
4,7,7,3,5,3,2,3,2021-08-07 12:45:52,675894
-3,0,0,-1,-2,-4,-1,-2,2021-08-07 12:45:52,675894
0,1,0,-1,1,2,1,-1,2021-08-07 12:45:52,675894
-4,-6,-6,-1,-6,-6,-4,-4,2021-08-07 12:45:52,691881
-4,-4,-4,-8,-8,-5,-4,-1,2021-08-07 12:45:52,707858
-2,-1,-2,-4,-5,-3,-1,-1,2021-08-07 12:45:52,723904
0,2,1,-3,-5,-1,0,1,2021-08-07 12:45:52,723904
1,1,4,7,10,6,2,2,2021-08-07 12:45:52,723904
-1,-2,-2,2,5,3,2,-1,2021-08-07 12:45:52,723904
-2,-2,-3,-3,-5,-4,-2,-1,2021-08-07 12:45:52,723904
-1,-3,-3,-4,-4,-3,-2,-1,2021-08-07 12:45:52,723904
-3,1,-3,-8,-14,-9,-4,-1,2021-08-07 12:45:52,724856
-1,-1,-1,2,8,8,3,1,2021-08-07 12:45:52,724856
1,-4,-2,0,2,0,1,0,2021-08-07 12:45:52,739854
0,-2,-2,2,2,2,1,0,2021-08-07 12:45:52,739854
-2,-3,-2,-2,-1,-1,1,-2,2021-08-07 12:45:52,755892
-4,-2,-2,-1,-4,-4,-3,-5,2021-08-07 12:45:52,755892
-3,-2,0,0,6,4,0,-1,2021-08-07 12:45:52,755892
-1,1,3,6,8,4,-1,-1,2021-08-07 12:45:52,755892
1,3,1,-5,-7,-4,-3,0,2021-08-07 12:45:52,771894
0,-3,-5,-7,-12,-8,-5,-3,2021-08-07 12:45:52,771894
2,2,2,3,8,6,2,2,2021-08-07 12:45:52,771894
0,0,-1,2,-2,-3,-1,2,2021-08-07 12:45:52,771894
0,-2,-3,-2,0,-1,-2,0,2021-08-07 12:45:52,802868
0,-1,0,-1,0,1,0,-1,2021-08-07 12:45:52,818892
-3,-5,-2,-1,-7,-5,-4,-3,2021-08-07 12:45:52,818892
4,6,6,5,7,6,6,3,2021-08-07 12:45:52,818892
-1,-1,-1,-1,0,-1,-2,-2,2021-08-07 12:45:52,818892
0,0,1,3,4,1,1,-1,2021-08-07 12:45:52,818892
1,3,2,-1,-6,-2,-2,1,2021-08-07 12:45:52,818892
-1,-2,-3,-4,-2,-1,-1,-2,2021-08-07 12:45:52,819855
-2,-2,0,2,3,2,1,-1,2021-08-07 12:45:52,833896
0,0,-1,-1,-2,-2,-1,1,2021-08-07 12:45:52,833896
-2,-3,-3,-3,-1,-1,-1,-2,2021-08-07 12:45:52,833896
2,1,0,-3,-3,-1,-1,0,2021-08-07 12:45:52,833896
-4,-3,-2,-5,-8,-6,-4,-2,2021-08-07 12:45:52,849894
0,-2,0,-1,2,1,1,0,2021-08-07 12:45:52,849894
1,0,0,1,0,-1,0,-1,2021-08-07 12:45:52,849894
-1,-2,-1,-1,1,1,0,-1,2021-08-07 12:45:52,849894
1,1,2,4,7,4,1,-1,2021-08-07 12:45:52,869874
-3,-2,-4,-7,-9,-5,-4,-2,2021-08-07 12:45:52,869874
0,1,0,1,0,0,0,-2,2021-08-07 12:45:52,869874
0,1,0,-1,-1,-1,-1,-2,2021-08-07 12:45:52,869874
0,-3,-3,-2,-1,-2,-1,-1,2021-08-07 12:45:52,897854
-2,0,-1,-2,-4,-3,-3,-4,2021-08-07 12:45:52,897854
3,0,0,-2,-2,0,1,0,2021-08-07 12:45:52,913874
-2,-1,-3,-2,-3,-4,-3,-2,2021-08-07 12:45:52,913874
0,-1,2,0,3,2,1,1,2021-08-07 12:45:52,913874
2,0,1,4,7,5,3,2,2021-08-07 12:45:52,929857
0,1,2,-1,-5,-2,-1,2,2021-08-07 12:45:52,944892
1,1,3,7,13,8,4,0,2021-08-07 12:45:52,960904
-2,-1,-4,-7,-9,-6,-4,-2,2021-08-07 12:45:52,976893
-1,-1,-1,-1,1,1,-1,-2,2021-08-07 12:45:52,976893
-3,-3,-1,-1,-3,-2,-2,-2,2021-08-07 12:45:52,976893
-2,-3,-2,0,1,0,-2,-2,2021-08-07 12:45:52,976893
-1,0,-3,-4,-5,-2,-2,-2,2021-08-07 12:45:52,976893
0,2,2,2,2,2,1,3,2021-08-07 12:45:52,976893
-2,-2,-4,-6,-12,-7,-2,-3,2021-08-07 12:45:52,976893
-1,-1,0,2,5,5,1,0,2021-08-07 12:45:52,977856
-2,-4,-2,0,2,-1,-1,-2,2021-08-07 12:45:52,977856
0,-1,-1,-4,-2,-2,-1,-2,2021-08-07 12:45:52,977856
2,6,3,1,0,0,1,1,2021-08-07 12:45:52,977856
0,-1,1,3,3,1,1,-1,2021-08-07 12:45:52,977856
0,-1,-1,0,0,2,0,-1,2021-08-07 12:45:53,008896
-3,-4,-4,-6,-7,-5,-4,-3,2021-08-07 12:45:53,008896
0,-3,1,2,6,5,-1,2,2021-08-07 12:45:53,008896
0,0,-2,-3,-8,-5,-1,-1,2021-08-07 12:45:53,008896
-2,-3,-2,0,-1,0,-1,-1,2021-08-07 12:45:53,008896
0,0,3,3,-2,-2,0,0,2021-08-07 12:45:53,009856
2,1,1,3,7,4,1,0,2021-08-07 12:45:53,009856
-1,1,-1,-3,-2,-5,-3,-1,2021-08-07 12:45:53,009856
0,-2,-2,-3,-1,0,0,-2,2021-08-07 12:45:53,038927
-2,-2,-2,-2,-9,-8,-4,-2,2021-08-07 12:45:53,054892
2,4,2,4,12,8,5,1,2021-08-07 12:45:53,070856
-3,-5,-3,-2,-2,-3,-1,-2,2021-08-07 12:45:53,070856
3,4,2,1,2,0,-1,1,2021-08-07 12:45:53,070856
-2,-1,-2,-1,-1,-1,0,0,2021-08-07 12:45:53,070856
-5,-5,-6,-6,-9,-7,-5,-3,2021-08-07 12:45:53,070856
0,1,-1,-4,-5,-2,-1,0,2021-08-07 12:45:53,071854
0,3,4,-2,-1,-1,3,1,2021-08-07 12:45:53,071854
1,1,1,4,4,5,3,0,2021-08-07 12:45:53,071854
-2,-3,-2,1,0,-2,-2,-1,2021-08-07 12:45:53,071854
-3,-7,-6,-9,-13,-8,-6,-5,2021-08-07 12:45:53,071854
-1,-1,-1,1,2,3,1,0,2021-08-07 12:45:53,086889
0,2,1,-1,2,0,0,1,2021-08-07 12:45:53,086889
-2,-3,-3,-3,-2,-3,-2,-1,2021-08-07 12:45:53,086889
-1,-1,-1,1,0,0,-1,0,2021-08-07 12:45:53,086889
-3,-4,-4,-4,-15,-11,-5,-3,2021-08-07 12:45:53,118467
0,-1,-1,-3,2,3,1,2,2021-08-07 12:45:53,118467
1,0,4,13,21,11,6,1,2021-08-07 12:45:53,118467
0,1,1,-2,-2,-1,-1,0,2021-08-07 12:45:53,118467
-2,1,0,1,2,-2,0,-1,2021-08-07 12:45:53,134466
-4,-3,-5,-4,-7,-5,-3,-3,2021-08-07 12:45:53,134466
0,-1,-2,-4,-9,-5,-3,-1,2021-08-07 12:45:53,134466
1,1,0,0,-2,0,0,1,2021-08-07 12:45:53,134466
-2,-3,-3,0,2,1,-1,-3,2021-08-07 12:45:53,150462
-1,-4,-1,-4,-2,-2,-3,-2,2021-08-07 12:45:53,150462
1,-1,0,3,0,0,-1,1,2021-08-07 12:45:53,150462
2,4,3,0,1,-1,1,0,2021-08-07 12:45:53,150462
2,2,2,1,-2,-1,0,-1,2021-08-07 12:45:53,182455
-2,-3,-3,-3,-2,-2,-1,-1,2021-08-07 12:45:53,198432
-2,0,-2,-2,-2,-4,-1,0,2021-08-07 12:45:53,198432
-2,-2,-1,-2,-2,-1,-2,-2,2021-08-07 12:45:53,198432
0,-1,-1,-1,0,3,2,-1,2021-08-07 12:45:53,198432
-2,-1,-2,-1,2,-1,0,-1,2021-08-07 12:45:53,198432
-1,-1,-1,-5,-6,-4,-2,-2,2021-08-07 12:45:53,198432
0,2,0,2,2,1,-1,-1,2021-08-07 12:45:53,214428
1,1,1,0,0,0,0,1,2021-08-07 12:45:53,214428
1,0,0,1,2,0,-1,-1,2021-08-07 12:45:53,214428
-1,-2,-2,-2,-2,-2,-1,-2,2021-08-07 12:45:53,214428
-1,-2,-2,1,2,0,0,0,2021-08-07 12:45:53,230429
0,-2,-1,0,1,-1,-2,-1,2021-08-07 12:45:53,246467
1,-1,0,0,-4,-2,-2,0,2021-08-07 12:45:53,246467
0,0,1,2,1,-1,-2,-1,2021-08-07 12:45:53,246467
-1,-2,0,3,6,5,2,0,2021-08-07 12:45:53,246467
0,0,-2,-1,3,3,1,2,2021-08-07 12:45:53,246467
2,2,1,2,-3,-2,-1,-1,2021-08-07 12:45:53,246467
-1,-1,-1,-5,-2,-3,0,0,2021-08-07 12:45:53,262428
-1,0,1,-3,-4,-3,0,0,2021-08-07 12:45:53,262428
-4,-5,-4,-3,-4,-4,-4,-4,2021-08-07 12:45:53,277457
0,4,5,5,7,6,4,0,2021-08-07 12:45:53,293432
-1,-2,-4,-5,-7,-2,-2,-1,2021-08-07 12:45:53,293432
-2,-2,-2,0,5,1,0,-3,2021-08-07 12:45:53,293432
-2,-4,-3,-2,-5,-5,-3,-3,2021-08-07 12:45:53,293432
0,1,2,4,9,6,3,1,2021-08-07 12:45:53,293432
1,0,0,-4,-3,-2,0,-2,2021-08-07 12:45:53,293432
-5,-7,-7,-3,-3,-4,-3,-3,2021-08-07 12:45:53,294430
2,4,4,-1,-2,-1,0,2,2021-08-07 12:45:53,324431
4,6,7,12,14,10,3,3,2021-08-07 12:45:53,324723
-1,1,1,-1,-5,-2,-3,1,2021-08-07 12:45:53,324723
0,2,-1,-4,-4,-4,-2,1,2021-08-07 12:45:53,339789
-3,-6,-4,-1,-4,-5,-3,-3,2021-08-07 12:45:53,339789
-3,-4,-7,-7,-7,-5,-3,-5,2021-08-07 12:45:53,339789
1,-1,0,0,1,0,0,-1,2021-08-07 12:45:53,339789
-1,-3,-1,-1,-6,-4,-2,-2,2021-08-07 12:45:53,339789
0,2,1,-1,-3,0,0,1,2021-08-07 12:45:53,355825
1,0,2,6,7,4,2,0,2021-08-07 12:45:53,355825
1,1,1,2,6,3,1,1,2021-08-07 12:45:53,355825
-2,-1,-1,-4,-6,-3,-1,-1,2021-08-07 12:45:53,355825
-2,1,2,7,10,5,1,-1,2021-08-07 12:45:53,387825
0,-1,-3,-6,-6,-5,-3,1,2021-08-07 12:45:53,403829
-2,-3,-4,-7,-7,-3,-1,-2,2021-08-07 12:45:53,419785
1,1,4,9,10,3,0,-1,2021-08-07 12:45:53,435787
-1,-1,-3,-2,3,3,1,1,2021-08-07 12:45:53,467825
-2,-1,-2,-1,-7,-6,-2,-1,2021-08-07 12:45:53,483825
-3,-5,-5,-5,-7,-3,-3,-2,2021-08-07 12:45:53,483825
-3,1,-1,-3,-4,-1,-2,-1,2021-08-07 12:45:53,483825
1,3,2,0,-2,-2,-1,-1,2021-08-07 12:45:53,484326
0,0,-1,-1,2,1,1,-1,2021-08-07 12:45:53,484326
2,2,2,3,2,0,1,2,2021-08-07 12:45:53,484326
0,-1,0,-3,-3,-1,-1,-1,2021-08-07 12:45:53,484788
-3,-3,-4,-2,-2,0,-1,-1,2021-08-07 12:45:53,484788
-4,-3,-5,-6,-7,-4,-2,-1,2021-08-07 12:45:53,484788
-2,-2,-2,0,-1,0,-2,-1,2021-08-07 12:45:53,484788
0,-3,-2,0,4,0,1,0,2021-08-07 12:45:53,484788
-1,0,-1,-3,-7,-4,-2,0,2021-08-07 12:45:53,485788
3,3,3,7,9,5,2,1,2021-08-07 12:45:53,485788
-2,-2,-2,-1,-1,-1,0,0,2021-08-07 12:45:53,485788
0,1,2,2,2,2,3,0,2021-08-07 12:45:53,485788
-1,-1,-1,-1,-1,-1,-1,-1,2021-08-07 12:45:53,485788
-5,-5,-3,-6,-10,-6,-4,-3,2021-08-07 12:45:53,485788
0,1,1,1,-1,-3,0,-1,2021-08-07 12:45:53,485788
0,-1,0,3,8,6,1,0,2021-08-07 12:45:53,486788
0,0,-1,-1,2,2,1,1,2021-08-07 12:45:53,515786
0,0,1,-2,-3,-2,1,0,2021-08-07 12:45:53,531826
-3,-2,-1,1,-1,-1,-2,-2,2021-08-07 12:45:53,547787
-2,-3,-3,-4,-8,-5,-3,-2,2021-08-07 12:45:53,563788
0,1,2,5,8,4,2,1,2021-08-07 12:45:53,579794
0,-1,1,-3,-5,-4,-3,-2,2021-08-07 12:45:53,579794
-1,1,-1,-4,-3,-3,-1,-2,2021-08-07 12:45:53,579794
-1,-2,-3,-1,-1,-3,0,-3,2021-08-07 12:45:53,579794
-1,-2,-1,-3,-5,-3,-2,-3,2021-08-07 12:45:53,579794
-2,-3,-4,-3,-6,-5,-2,-1,2021-08-07 12:45:53,579794
-1,-2,-1,2,2,2,1,0,2021-08-07 12:45:53,595789
4,7,7,7,12,10,5,3,2021-08-07 12:45:53,611825
0,-3,-1,0,2,1,1,0,2021-08-07 12:45:53,627824
-3,-4,-4,-3,-1,1,-1,-3,2021-08-07 12:45:53,627824
1,2,2,0,-2,-2,-1,1,2021-08-07 12:45:53,627824
-1,-1,-5,-6,-10,-7,-4,-2,2021-08-07 12:45:53,627824
-5,-7,-7,-5,-5,-4,-4,-5,2021-08-07 12:45:53,627824
2,5,4,3,4,3,1,2,2021-08-07 12:45:53,627824
1,0,1,-1,0,1,-1,0,2021-08-07 12:45:53,627824
-1,2,0,0,-3,-2,-3,0,2021-08-07 12:45:53,627824
-2,0,-1,-3,-4,-3,-1,0,2021-08-07 12:45:53,627824
-2,-4,-6,-2,1,-1,-1,-1,2021-08-07 12:45:53,627824
2,0,0,-1,2,2,0,1,2021-08-07 12:45:53,628825
0,0,-1,-1,-2,-1,1,2,2021-08-07 12:45:53,628825
-5,-8,-5,-3,-3,-1,-2,-4,2021-08-07 12:45:53,628825
0,1,1,1,-1,0,0,1,2021-08-07 12:45:53,628825
1,4,6,1,1,-2,-1,-2,2021-08-07 12:45:53,628825
-1,-1,2,4,2,0,0,-2,2021-08-07 12:45:53,628825
-1,2,-1,-4,-4,-3,-3,-2,2021-08-07 12:45:53,628825
0,-1,-3,3,5,2,0,-3,2021-08-07 12:45:53,628825
-1,-6,-6,-3,-1,-1,-1,-4,2021-08-07 12:45:53,629790
2,1,-1,-4,-5,-2,0,1,2021-08-07 12:45:53,629790
-2,1,-1,-2,-4,-2,0,1,2021-08-07 12:45:53,659814
-2,0,-1,-2,-3,-2,-1,-1,2021-08-07 12:45:53,659814
-7,-6,-7,-8,-6,-4,-4,-3,2021-08-07 12:45:53,659814
-2,-3,-2,-2,-2,-3,-3,-2,2021-08-07 12:45:53,659814
3,4,5,3,5,3,4,3,2021-08-07 12:45:53,675787
0,1,0,2,2,1,-1,2,2021-08-07 12:45:53,675787
-1,0,-1,2,2,2,0,0,2021-08-07 12:45:53,691789
-4,-9,-7,-7,-11,-8,-5,-5,2021-08-07 12:45:53,691789
3,5,4,6,7,3,2,3,2021-08-07 12:45:53,691789
1,1,0,-6,-7,-4,2,0,2021-08-07 12:45:53,691789
0,4,3,10,10,6,2,1,2021-08-07 12:45:53,691789
-1,-1,0,4,4,1,-1,0,2021-08-07 12:45:53,691789
-3,-4,-4,-3,-1,-2,0,-3,2021-08-07 12:45:53,722199
2,2,3,1,0,-1,0,1,2021-08-07 12:45:53,736196
0,-1,-3,-4,-4,-1,-1,0,2021-08-07 12:45:53,736196
0,0,0,-1,1,0,0,0,2021-08-07 12:45:53,737196
-1,-3,-3,-1,-3,-3,-4,-3,2021-08-07 12:45:53,737196
-4,-6,-5,-5,-5,-4,-3,-2,2021-08-07 12:45:53,737196
1,3,3,4,3,1,2,1,2021-08-07 12:45:53,737196
0,2,-1,-8,-9,-3,-1,0,2021-08-07 12:45:53,737196
0,2,1,9,12,7,2,-2,2021-08-07 12:45:53,754198
-2,-2,-2,2,1,0,-1,-2,2021-08-07 12:45:53,754198
0,-2,-1,-3,-3,-1,0,-1,2021-08-07 12:45:53,754198
-2,-4,-4,-4,-5,-5,-3,-2,2021-08-07 12:45:53,754198
1,3,4,-2,1,0,2,2,2021-08-07 12:45:53,785233
-1,3,1,1,10,6,2,1,2021-08-07 12:45:53,800235
-2,-3,-3,-6,-6,-4,-2,-1,2021-08-07 12:45:53,800235
-2,-1,-1,2,-1,-2,-1,-2,2021-08-07 12:45:53,800235
0,-2,-1,0,2,1,-1,0,2021-08-07 12:45:53,800235
-2,-2,0,0,-7,-5,-2,-1,2021-08-07 12:45:53,800235
2,2,1,6,10,5,2,1,2021-08-07 12:45:53,800235
-1,-2,-2,-2,0,0,-2,-2,2021-08-07 12:45:53,801198
3,4,2,-1,-5,0,0,1,2021-08-07 12:45:53,816236
-3,-2,-4,-9,-15,-10,-6,-5,2021-08-07 12:45:53,832241
-1,-1,0,4,9,6,4,-1,2021-08-07 12:45:53,848201
0,-2,-1,4,11,4,2,-1,2021-08-07 12:45:53,863237
1,1,1,1,0,0,-2,1,2021-08-07 12:45:53,879198
0,-2,-1,-4,-1,0,-1,1,2021-08-07 12:45:53,879198
-1,-4,-3,-5,-11,-7,-3,-2,2021-08-07 12:45:53,879198
3,4,3,0,-1,2,3,1,2021-08-07 12:45:53,879198
-2,-6,-5,-5,-6,-6,-4,-3,2021-08-07 12:45:53,879198
1,2,1,2,1,0,0,0,2021-08-07 12:45:53,879198
0,-1,-1,-4,-4,-2,-3,-2,2021-08-07 12:45:53,879198
0,1,0,3,5,5,1,-1,2021-08-07 12:45:53,880198
-4,-4,-5,-6,-8,-6,-3,-4,2021-08-07 12:45:53,880198
-1,-2,-1,-3,-4,-1,0,-3,2021-08-07 12:45:53,880198
-1,0,0,3,4,3,0,1,2021-08-07 12:45:53,880198
-2,-2,-3,-3,-7,-6,-2,-2,2021-08-07 12:45:53,880198
-2,-5,-5,-7,-9,-6,-4,-2,2021-08-07 12:45:53,894235
2,4,4,7,9,5,3,1,2021-08-07 12:45:53,910196
0,2,4,5,4,1,-1,-1,2021-08-07 12:45:53,926200
0,-1,-3,-4,-3,-2,-1,-1,2021-08-07 12:45:53,941238
-1,0,3,5,4,0,0,1,2021-08-07 12:45:53,941238
-2,-4,-5,-7,-6,-2,-1,-2,2021-08-07 12:45:53,941238
0,-1,-2,-3,-4,-4,-2,-1,2021-08-07 12:45:53,941238
0,3,2,1,-2,-2,0,-1,2021-08-07 12:45:53,941238
-2,-2,-1,2,7,4,2,-1,2021-08-07 12:45:53,941238
-4,-6,-6,-7,-9,-6,-6,-2,2021-08-07 12:45:53,942198
3,3,4,0,4,4,3,1,2021-08-07 12:45:53,942198
1,2,2,4,3,2,0,1,2021-08-07 12:45:53,942198
-1,0,-2,-6,-8,-4,-2,-3,2021-08-07 12:45:53,957236
0,2,1,1,1,1,0,-1,2021-08-07 12:45:53,973235
-3,-5,-5,-4,-7,-4,-4,-3,2021-08-07 12:45:53,973235
-2,-4,-4,-3,-3,-3,-1,-1,2021-08-07 12:45:53,973235
-2,-2,-1,-4,-6,-5,-2,-2,2021-08-07 12:45:53,973235
1,1,2,0,1,1,0,0,2021-08-07 12:45:53,973235
0,4,1,-1,-3,-3,0,1,2021-08-07 12:45:53,973235
1,2,4,6,14,8,3,1,2021-08-07 12:45:53,974200
0,-1,-2,-3,-5,-3,-1,-1,2021-08-07 12:45:53,989246
-2,-4,-2,-5,-4,-2,-3,-1,2021-08-07 12:45:53,989246
1,0,0,1,-1,0,1,0,2021-08-07 12:45:53,989246
-2,-3,0,-3,-6,-5,-4,-2,2021-08-07 12:45:53,989246
-1,1,-2,-2,-5,-2,-3,-1,2021-08-07 12:45:54,021235
-2,-3,-2,5,10,3,1,0,2021-08-07 12:45:54,037201
1,1,3,0,2,1,2,2,2021-08-07 12:45:54,053238
-1,-3,-2,-3,-3,-2,-1,-3,2021-08-07 12:45:54,069250
-4,-3,-2,-3,-2,-3,0,-1,2021-08-07 12:45:54,069250
1,0,1,3,3,0,0,0,2021-08-07 12:45:54,069250
-2,-4,-4,-3,-4,-3,-2,-2,2021-08-07 12:45:54,069250
-3,-3,-5,-3,-6,-4,-2,-3,2021-08-07 12:45:54,069250
5,4,6,7,10,7,3,3,2021-08-07 12:45:54,070197
-3,-5,-4,-7,-4,-4,-2,-3,2021-08-07 12:45:54,070197
0,1,3,3,3,-1,0,1,2021-08-07 12:45:54,070197
1,2,2,1,-2,0,0,-1,2021-08-07 12:45:54,070197
-3,-3,-2,3,5,4,0,-1,2021-08-07 12:45:54,070197
0,0,-1,-3,-2,-2,-1,1,2021-08-07 12:45:54,070197
-2,-3,-4,-3,-3,0,-2,-3,2021-08-07 12:45:54,085235
-2,-1,-3,-4,-1,1,-1,-1,2021-08-07 12:45:54,085235
-1,0,1,2,1,1,-1,-2,2021-08-07 12:45:54,117235
-1,1,1,6,7,3,1,-1,2021-08-07 12:45:54,133203
-1,1,-2,-4,-8,-4,-2,-1,2021-08-07 12:45:54,148717
0,-2,-2,-4,-8,-4,-2,-3,2021-08-07 12:45:54,148717
0,0,1,6,6,4,2,0,2021-08-07 12:45:54,148717
-1,-2,-1,-3,-7,-2,-2,-1,2021-08-07 12:45:54,148717
0,1,-1,0,3,3,0,-1,2021-08-07 12:45:54,148717
-2,-2,-2,-3,0,-1,-2,-1,2021-08-07 12:45:54,149719
-1,-1,-1,-1,-3,-1,-2,-1,2021-08-07 12:45:54,163758
1,2,0,-4,-7,-5,0,1,2021-08-07 12:45:54,176753
-3,-5,-4,-2,-5,-4,-4,-2,2021-08-07 12:45:54,176753
1,1,1,7,13,7,3,0,2021-08-07 12:45:54,176753
0,-2,-2,-6,-5,-4,-2,0,2021-08-07 12:45:54,176753
0,2,4,6,6,5,2,1,2021-08-07 12:45:54,177717
-1,-3,-2,-5,-7,-6,-3,-3,2021-08-07 12:45:54,177717
0,1,1,-3,-3,0,2,0,2021-08-07 12:45:54,177717
-2,-2,-4,-8,-9,-7,-2,-3,2021-08-07 12:45:54,177717
-1,-3,-3,2,0,-1,0,-1,2021-08-07 12:45:54,177717
0,-3,-2,0,5,3,1,-1,2021-08-07 12:45:54,193717
4,8,10,6,3,3,2,5,2021-08-07 12:45:54,209715
-2,-2,-3,-3,-2,-3,-2,-1,2021-08-07 12:45:54,209715
-1,-2,-2,-3,-4,-2,-3,-1,2021-08-07 12:45:54,209715
-4,-4,-3,2,1,-4,-6,-4,2021-08-07 12:45:54,209715
-2,-5,-4,0,-2,-2,-2,-3,2021-08-07 12:45:54,209715
3,3,4,5,10,8,3,2,2021-08-07 12:45:54,209715
0,-1,-3,-5,-8,-4,0,1,2021-08-07 12:45:54,209715
1,1,1,-2,-1,3,3,3,2021-08-07 12:45:54,210756
-1,-4,-2,0,2,-1,-3,-2,2021-08-07 12:45:54,210756
-6,-3,-2,-1,5,0,-5,-8,2021-08-07 12:45:54,225757
-2,-3,-1,2,0,-1,2,-1,2021-08-07 12:45:54,225757
2,-2,-3,-2,-3,-2,-2,1,2021-08-07 12:45:54,240753
-1,1,-2,-6,-13,-12,-9,-4,2021-08-07 12:45:54,240753
0,-1,-1,-3,-9,-6,-5,-2,2021-08-07 12:45:54,256746
-2,-1,-2,-8,-11,-5,-5,-3,2021-08-07 12:45:54,256746
2,3,5,11,15,10,9,3,2021-08-07 12:45:54,256746
2,-2,-1,5,8,9,7,3,2021-08-07 12:45:54,256746
-2,-6,-6,-1,-3,-2,0,-2,2021-08-07 12:45:54,288715
6,8,5,3,3,1,1,4,2021-08-07 12:45:54,288715
-2,-1,1,-3,-8,-6,-5,-2,2021-08-07 12:45:54,288715
0,1,-3,-5,-9,-6,-5,-1,2021-08-07 12:45:54,288715
0,-2,-3,2,5,3,2,0,2021-08-07 12:45:54,288715
-1,-2,-1,7,11,7,3,-2,2021-08-07 12:45:54,289715
-5,-5,-3,-7,-5,-3,-5,-3,2021-08-07 12:45:54,304760
1,1,2,3,6,-1,1,-1,2021-08-07 12:45:54,320715
0,2,2,-2,-9,-4,0,2,2021-08-07 12:45:54,336756
-3,-3,-3,-4,-6,-7,-5,-2,2021-08-07 12:45:54,336756
0,0,0,2,7,4,2,-1,2021-08-07 12:45:54,336756
-3,-3,-3,-2,-3,-1,-2,-2,2021-08-07 12:45:54,336756
-1,-2,-4,-9,-16,-8,-4,-1,2021-08-07 12:45:54,352754
0,0,0,6,14,5,4,-1,2021-08-07 12:45:54,368718
0,3,1,-3,-9,-5,-1,0,2021-08-07 12:45:54,368718
1,1,-2,0,5,6,4,2,2021-08-07 12:45:54,368718
4,3,5,12,19,8,4,2,2021-08-07 12:45:54,368718
-2,-2,-3,-6,-12,-8,-6,-2,2021-08-07 12:45:54,368718
-5,-8,-4,3,2,-1,-2,-5,2021-08-07 12:45:54,368718
-1,0,2,2,2,0,-2,-1,2021-08-07 12:45:54,368718
3,5,4,-1,-2,-1,0,0,2021-08-07 12:45:54,384756
0,-1,-1,-2,-2,-1,0,-1,2021-08-07 12:45:54,384756
-1,-2,-3,-7,-11,-7,-5,-4,2021-08-07 12:45:54,384756
-2,-4,-4,-9,-9,-5,-2,-1,2021-08-07 12:45:54,384756
-1,-2,-2,4,4,1,-1,-1,2021-08-07 12:45:54,400715
2,0,0,0,8,6,3,1,2021-08-07 12:45:54,416717
-1,-2,-2,5,4,2,-1,-1,2021-08-07 12:45:54,416717
-3,-5,-7,-4,-4,-3,-5,-2,2021-08-07 12:45:54,416717
3,6,7,7,4,3,4,4,2021-08-07 12:45:54,416717
-2,-1,-2,0,-4,-4,-2,0,2021-08-07 12:45:54,416717
1,2,1,-5,-9,-4,-3,1,2021-08-07 12:45:54,416717
-2,-1,1,1,2,2,0,-1,2021-08-07 12:45:54,416717
-2,-1,-1,0,4,1,0,-1,2021-08-07 12:45:54,432755
-2,-1,2,4,4,-1,-1,-1,2021-08-07 12:45:54,432755
-1,2,0,-4,-3,-1,0,-1,2021-08-07 12:45:54,448717
-3,-4,-5,-9,-12,-8,-4,-3,2021-08-07 12:45:54,464719
-2,-2,-4,-1,0,1,-1,0,2021-08-07 12:45:54,464719
2,1,2,2,9,7,3,3,2021-08-07 12:45:54,464719
-1,-2,-3,-2,-1,-1,1,0,2021-08-07 12:45:54,464719
-1,0,0,4,4,1,0,-2,2021-08-07 12:45:54,464719
-3,-4,-1,-3,-2,0,0,-2,2021-08-07 12:45:54,465715
-3,-1,1,1,-1,2,-1,-3,2021-08-07 12:45:54,465715
-1,1,1,0,-2,-4,-3,-2,2021-08-07 12:45:54,480771
-3,0,-2,-3,-7,-4,-3,-1,2021-08-07 12:45:54,495746
-1,-3,-2,-8,-14,-7,-4,-2,2021-08-07 12:45:54,495746
3,1,1,6,8,6,6,2,2021-08-07 12:45:54,495746
0,0,-1,-6,-5,-4,0,0,2021-08-07 12:45:54,495746
1,1,1,5,10,7,3,1,2021-08-07 12:45:54,495746
-3,-6,-4,-7,-8,-7,-5,-2,2021-08-07 12:45:54,511758
-1,-3,-1,-1,2,-2,-3,-3,2021-08-07 12:45:54,511758
1,0,1,9,11,5,3,2,2021-08-07 12:45:54,511758
3,5,8,0,0,1,3,3,2021-08-07 12:45:54,511758
1,1,0,-1,3,2,1,-1,2021-08-07 12:45:54,543755
-1,1,-3,-6,-11,-5,-3,0,2021-08-07 12:45:54,543755
-2,-3,-2,2,3,-1,-2,-3,2021-08-07 12:45:54,543755
-3,-8,-8,-8,-14,-10,-8,-3,2021-08-07 12:45:54,559757
1,1,1,-3,-1,3,0,1,2021-08-07 12:45:54,559757
0,-1,1,2,3,0,1,0,2021-08-07 12:45:54,559757
1,1,0,6,9,4,3,0,2021-08-07 12:45:54,559757
-1,-4,0,0,-7,-6,-4,-3,2021-08-07 12:45:54,559757
-1,0,0,2,11,8,4,0,2021-08-07 12:45:54,575716
1,2,3,3,9,5,4,1,2021-08-07 12:45:54,575716
-1,-2,-3,-6,-9,-5,-1,-3,2021-08-07 12:45:54,575716
-4,-4,-3,-5,-9,-6,-2,-2,2021-08-07 12:45:54,575716
-1,-1,0,-1,-5,-4,-2,-1,2021-08-07 12:45:54,606717
0,1,3,2,0,2,1,0,2021-08-07 12:45:54,612744
4,3,5,13,23,13,6,4,2021-08-07 12:45:54,612744
-2,-1,-5,-11,-7,-5,-3,-2,2021-08-07 12:45:54,612744
-4,-4,-5,-6,-11,-8,-5,-3,2021-08-07 12:45:54,638766
0,-1,-2,-1,-2,0,-2,-1,2021-08-07 12:45:54,654744
-2,-3,-1,-3,-4,0,-2,-1,2021-08-07 12:45:54,686753
1,5,4,11,14,7,4,1,2021-08-07 12:45:54,702762
-1,-2,-1,3,4,-2,1,2,2021-08-07 12:45:54,702762
-1,0,-1,2,3,0,-1,-1,2021-08-07 12:45:54,702762
-3,-2,-4,-9,-18,-9,-5,-3,2021-08-07 12:45:54,702762
3,2,3,5,14,10,4,1,2021-08-07 12:45:54,702762
0,-2,-2,-7,-12,-8,-5,-4,2021-08-07 12:45:54,702762
-4,-6,-6,-9,-11,-7,-4,-3,2021-08-07 12:45:54,702762
1,1,0,-1,2,1,0,1,2021-08-07 12:45:54,702762
-1,-2,-3,0,0,-1,-2,0,2021-08-07 12:45:54,703715
1,3,2,3,2,3,0,1,2021-08-07 12:45:54,703715
-2,-1,-1,-4,-4,-4,-1,-2,2021-08-07 12:45:54,703715
0,-2,-2,-6,-6,-4,-2,-1,2021-08-07 12:45:54,703715
-2,-3,-3,-1,-2,-2,-2,-1,2021-08-07 12:45:54,703715
-1,0,0,3,-2,-3,0,-1,2021-08-07 12:45:54,703715
-1,-2,-1,0,3,3,2,0,2021-08-07 12:45:54,703715
1,0,2,-1,2,1,0,1,2021-08-07 12:45:54,704716
-3,-5,-6,-5,-8,-7,-4,-4,2021-08-07 12:45:54,704716
-2,-3,-6,-9,-8,-5,-2,-1,2021-08-07 12:45:54,718756
0,1,0,-2,-6,-1,-1,-1,2021-08-07 12:45:54,718756
1,2,1,6,8,2,2,1,2021-08-07 12:45:54,718756
-3,-2,-1,-3,-5,-3,-2,-1,2021-08-07 12:45:54,718756
-2,-5,-7,-4,2,-1,-2,-3,2021-08-07 12:45:54,734718
1,-1,1,-3,-7,-2,0,0,2021-08-07 12:45:54,734718
-2,-1,-1,5,5,0,0,-2,2021-08-07 12:45:54,734718
2,2,4,8,18,8,2,1,2021-08-07 12:45:54,734718
-3,-2,-3,-8,-12,-7,-4,-3,2021-08-07 12:45:54,765753
-2,-2,0,0,-5,-6,-2,-1,2021-08-07 12:45:54,781716
-2,0,0,1,-5,-1,0,-2,2021-08-07 12:45:54,781716
-2,-3,-4,-4,-6,-2,-1,-1,2021-08-07 12:45:54,781716
2,3,3,6,10,7,3,1,2021-08-07 12:45:54,781716
-1,-1,0,2,2,0,-1,-1,2021-08-07 12:45:54,781716
1,0,0,-5,-4,-2,0,0,2021-08-07 12:45:54,781716
1,0,5,-5,-8,-4,-1,0,2021-08-07 12:45:54,781716
-1,-4,-3,5,11,5,3,-2,2021-08-07 12:45:54,797719
2,-1,-4,-5,-6,-3,-3,-1,2021-08-07 12:45:54,813753
-1,-2,-3,-3,-3,-1,-1,0,2021-08-07 12:45:54,813753
-1,0,-2,-1,2,5,0,0,2021-08-07 12:45:54,813753
2,3,6,6,11,5,2,3,2021-08-07 12:45:54,814716
0,2,0,-3,-2,-2,0,0,2021-08-07 12:45:54,814716
-3,-2,-3,-2,-5,-7,-4,-2,2021-08-07 12:45:54,814716
-4,-5,-5,-15,-25,-15,-6,-4,2021-08-07 12:45:54,814716
5,5,5,11,19,11,7,6,2021-08-07 12:45:54,845745
1,2,1,10,19,10,4,-1,2021-08-07 12:45:54,877756
-2,-2,-1,-4,-2,-2,-1,0,2021-08-07 12:45:54,877756
-3,-2,-2,-3,-9,-9,-2,-1,2021-08-07 12:45:54,877756
-3,-4,-4,-5,-10,-6,-4,-3,2021-08-07 12:45:54,877756
-2,-2,-1,1,2,-2,-1,0,2021-08-07 12:45:54,877756
0,-2,-2,-4,-2,-2,-2,-1,2021-08-07 12:45:54,877756
-3,-2,-3,-3,-2,-3,-2,-3,2021-08-07 12:45:54,877756
-1,-1,0,1,-2,0,0,-1,2021-08-07 12:45:54,877756
0,1,0,-4,-4,-4,-2,0,2021-08-07 12:45:54,877756
-1,2,2,3,5,5,2,-1,2021-08-07 12:45:54,878716
0,-1,-4,2,3,3,0,0,2021-08-07 12:45:54,878716
-2,-3,-3,-4,-7,-7,-4,-4,2021-08-07 12:45:54,909742
-5,-5,-6,-10,-15,-7,-5,-4,2021-08-07 12:45:54,925757
0,1,-4,1,10,6,3,1,2021-08-07 12:45:54,941717
7,7,9,9,10,7,5,4,2021-08-07 12:45:54,957757
-1,2,1,7,9,6,3,0,2021-08-07 12:45:54,973716
-2,-1,-1,-4,-10,-9,-4,-2,2021-08-07 12:45:54,973716
-6,-8,-8,-16,-26,-15,-10,-6,2021-08-07 12:45:54,973716
-2,0,-2,-4,-4,-2,-1,-1,2021-08-07 12:45:54,973716
2,2,0,3,6,9,3,2,2021-08-07 12:45:54,974716
3,2,2,10,17,9,4,2,2021-08-07 12:45:54,974716
0,1,1,0,0,0,2,2,2021-08-07 12:45:54,974716
-2,-4,-4,-5,-6,-6,-3,-4,2021-08-07 12:45:54,974716
-6,-6,-4,-16,-23,-12,-8,-4,2021-08-07 12:45:54,974716
3,6,3,9,10,7,5,5,2021-08-07 12:45:54,974716
1,-1,-1,-2,-3,-3,-1,-2,2021-08-07 12:45:54,974716
0,2,2,10,11,8,3,0,2021-08-07 12:45:54,975719
-1,-3,-4,-5,-8,-8,-3,-4,2021-08-07 12:45:54,975719
-3,-5,-7,-9,-8,-3,-3,-3,2021-08-07 12:45:54,975719
1,3,5,7,4,1,1,1,2021-08-07 12:45:54,975719
-1,0,-2,-5,-5,-3,-3,-1,2021-08-07 12:45:54,975719
1,4,5,11,20,10,4,2,2021-08-07 12:45:55,004055
0,2,1,3,3,2,0,0,2021-08-07 12:45:55,020074
-1,-2,-2,-3,-3,-1,-1,-1,2021-08-07 12:45:55,035028
-3,-3,-2,0,4,1,0,-1,2021-08-07 12:45:55,035028
-2,-4,-3,-7,-17,-9,-6,-2,2021-08-07 12:45:55,035028
1,2,3,6,9,6,4,0,2021-08-07 12:45:55,035028
0,-2,-2,-2,-6,-6,-5,-3,2021-08-07 12:45:55,035028
2,4,4,9,19,14,7,4,2021-08-07 12:45:55,035028
-2,-1,-4,-7,-9,-8,-4,-2,2021-08-07 12:45:55,035028
-2,-3,-4,0,1,-2,-2,-3,2021-08-07 12:45:55,036026
-1,-2,-2,-10,-9,-4,0,0,2021-08-07 12:45:55,036026
0,0,2,12,14,5,1,1,2021-08-07 12:45:55,036026
0,-1,-5,1,-1,0,-1,0,2021-08-07 12:45:55,051031
-2,-4,-2,-6,-11,-7,-3,-3,2021-08-07 12:45:55,051031
1,-1,-1,0,2,1,1,0,2021-08-07 12:45:55,051031
2,0,-1,1,5,3,0,1,2021-08-07 12:45:55,051031
-1,-1,0,-6,-7,-3,-1,0,2021-08-07 12:45:55,083075
-2,-4,-3,-7,-10,-4,-5,-4,2021-08-07 12:45:55,083075
-1,-1,-2,5,7,5,0,0,2021-08-07 12:45:55,083075
-3,-3,-5,-13,-18,-10,-2,-2,2021-08-07 12:45:55,083075
2,3,2,6,3,2,0,0,2021-08-07 12:45:55,099062
3,2,-1,-1,3,2,4,2,2021-08-07 12:45:55,115028
-4,-2,-3,-2,-5,-4,-2,-3,2021-08-07 12:45:55,131029
-2,-3,-2,0,0,-4,-3,-3,2021-08-07 12:45:55,131029
1,3,1,-2,1,0,0,2,2021-08-07 12:45:55,131029
-1,-2,-1,2,4,2,1,1,2021-08-07 12:45:55,131029
1,2,3,-3,-4,-4,-2,1,2021-08-07 12:45:55,132026
-2,-3,-2,-3,-3,-3,-3,-2,2021-08-07 12:45:55,132026
-1,3,2,1,1,2,2,1,2021-08-07 12:45:55,132026
-1,-1,2,-2,0,-1,1,0,2021-08-07 12:45:55,132026
-1,0,-2,3,4,3,0,0,2021-08-07 12:45:55,132026
-3,-2,-3,-8,-11,-7,-4,-3,2021-08-07 12:45:55,132026
-2,-7,-5,-7,-11,-7,-4,-2,2021-08-07 12:45:55,147025
-2,-4,-4,-1,1,1,-2,-2,2021-08-07 12:45:55,147025
-2,0,0,0,-3,-1,-1,-1,2021-08-07 12:45:55,147025
1,1,0,-2,-3,-4,0,0,2021-08-07 12:45:55,147025
-3,-2,-2,0,-2,-3,-3,-3,2021-08-07 12:45:55,179061
1,1,2,4,3,3,3,4,2021-08-07 12:45:55,179061
-1,-1,-2,3,6,2,1,-1,2021-08-07 12:45:55,179061
0,-1,0,-4,-4,-1,-1,-1,2021-08-07 12:45:55,179061
1,0,1,10,16,8,6,2,2021-08-07 12:45:55,211064
-3,-2,-6,-19,-26,-14,-10,-4,2021-08-07 12:45:55,227061
-1,-2,-1,2,9,7,1,0,2021-08-07 12:45:55,242063
4,5,7,19,27,16,7,6,2021-08-07 12:45:55,258077
0,1,0,-6,-12,-8,-2,1,2021-08-07 12:45:55,258077
-2,-1,-3,-3,-1,0,0,0,2021-08-07 12:45:55,258077
-2,-2,-1,-5,-7,-5,-2,-2,2021-08-07 12:45:55,274028
-3,-4,-3,-3,-6,-3,-2,-3,2021-08-07 12:45:55,274028
-1,-3,-2,-5,-3,-3,-1,-2,2021-08-07 12:45:55,274028
0,1,1,3,1,-1,-2,-2,2021-08-07 12:45:55,274028
-2,-3,-2,-4,-8,-6,-1,-2,2021-08-07 12:45:55,274028
-2,-3,-1,-1,1,2,-1,-2,2021-08-07 12:45:55,274028
2,4,5,7,7,3,1,1,2021-08-07 12:45:55,274028
0,1,0,1,3,4,0,-1,2021-08-07 12:45:55,275027
-2,0,1,1,1,0,0,0,2021-08-07 12:45:55,275027
-4,-6,-6,-10,-20,-13,-7,-5,2021-08-07 12:45:55,275027
-3,-3,-3,-5,4,6,-1,-1,2021-08-07 12:45:55,275027
7,7,8,15,19,10,7,6,2021-08-07 12:45:55,275027
0,-1,0,3,0,-1,-1,2,2021-08-07 12:45:55,275027
1,4,3,3,4,0,1,2,2021-08-07 12:45:55,276027
-4,-5,-4,-3,-9,-7,-5,-2,2021-08-07 12:45:55,322026
-3,-5,-4,-8,-11,-7,-4,-3,2021-08-07 12:45:55,322026
-4,-6,-7,-5,1,1,-3,-4,2021-08-07 12:45:55,322026
5,7,9,4,2,4,2,3,2021-08-07 12:45:55,322026
-2,-1,-1,-3,1,0,-3,-3,2021-08-07 12:45:55,322026
4,4,0,0,1,4,4,3,2021-08-07 12:45:55,323026
3,2,-1,4,5,1,2,0,2021-08-07 12:45:55,323026
-4,-8,-10,-12,-11,-6,-3,-3,2021-08-07 12:45:55,323026
-3,-4,-1,2,-2,0,0,-1,2021-08-07 12:45:55,354029
-4,-7,-6,-4,-1,-3,-2,-2,2021-08-07 12:45:55,354029
2,6,6,5,4,4,2,0,2021-08-07 12:45:55,354029
-1,-2,0,5,2,0,0,-1,2021-08-07 12:45:55,354029
1,3,3,1,-5,-1,0,1,2021-08-07 12:45:55,354029
-5,-5,-4,-3,-5,-6,-5,-5,2021-08-07 12:45:55,355027
-1,-4,-4,-11,-18,-11,-7,-1,2021-08-07 12:45:55,355027
4,3,5,6,20,17,9,4,2021-08-07 12:45:55,355027
5,3,3,7,21,9,7,2,2021-08-07 12:45:55,386028
-2,1,-2,-4,-8,-7,-5,-3,2021-08-07 12:45:55,402054
-1,-2,-1,0,0,2,-1,-3,2021-08-07 12:45:55,418052
-3,-2,-6,-15,-29,-18,-9,-4,2021-08-07 12:45:55,434065
-3,-7,-7,-17,-23,-11,-5,-2,2021-08-07 12:45:55,450028
6,8,13,27,45,25,12,7,2021-08-07 12:45:55,450028
2,2,2,0,-3,-2,2,3,2021-08-07 12:45:55,450028
-3,-6,-7,-8,-7,-7,-4,-5,2021-08-07 12:45:55,450028
-3,-3,0,4,-3,-4,-3,-5,2021-08-07 12:45:55,450028
-1,-3,-2,-6,-14,-7,-4,-4,2021-08-07 12:45:55,466064
-2,-2,-2,-1,1,1,-1,-2,2021-08-07 12:45:55,471026
-2,-2,-2,0,0,0,-1,1,2021-08-07 12:45:55,472026
-3,-2,-2,-5,0,-3,-3,-2,2021-08-07 12:45:55,472026
1,2,4,-4,-15,-7,-1,0,2021-08-07 12:45:55,472026
1,5,5,9,13,7,3,1,2021-08-07 12:45:55,472026
0,1,-1,-1,-1,-3,1,1,2021-08-07 12:45:55,472026
-1,0,-2,-4,-3,0,0,-2,2021-08-07 12:45:55,473027
-6,-8,-8,-9,-8,-7,-6,-4,2021-08-07 12:45:55,473027
-1,-4,0,-3,-14,-6,-5,-3,2021-08-07 12:45:55,473027
3,5,2,7,18,10,5,3,2021-08-07 12:45:55,473027
2,2,3,9,12,8,4,4,2021-08-07 12:45:55,473027
-3,-3,-4,-8,-10,-7,-4,-1,2021-08-07 12:45:55,473027
-6,-4,-6,-13,-20,-14,-7,-3,2021-08-07 12:45:55,473027
-2,-3,-2,2,2,2,-2,-3,2021-08-07 12:45:55,473027
0,-1,1,2,6,2,0,-2,2021-08-07 12:45:55,514029
1,0,-1,-2,-4,-2,-3,-1,2021-08-07 12:45:55,514029
-1,-3,-2,-3,2,2,0,0,2021-08-07 12:45:55,514029
-1,0,1,-2,-4,0,-2,-1,2021-08-07 12:45:55,514029
1,2,-1,1,-1,2,0,0,2021-08-07 12:45:55,515027
-4,-2,-2,2,0,1,-1,-3,2021-08-07 12:45:55,515027
2,3,4,4,9,7,2,0,2021-08-07 12:45:55,515027
2,2,0,0,2,-1,2,0,2021-08-07 12:45:55,515027
-1,-3,-1,-4,-5,-5,-1,0,2021-08-07 12:45:55,529027
4,4,3,6,7,4,3,2,2021-08-07 12:45:55,529027
-2,-3,-2,4,6,3,2,0,2021-08-07 12:45:55,545053
-4,-3,-5,-7,-8,-5,-3,-2,2021-08-07 12:45:55,561055
-2,1,1,-7,-14,-9,-5,0,2021-08-07 12:45:55,561055
4,5,6,16,23,13,7,4,2021-08-07 12:45:55,561055
3,2,1,6,14,5,3,2,2021-08-07 12:45:55,561055
-3,-4,-4,1,-1,-2,-2,-5,2021-08-07 12:45:55,561055
-4,-5,-6,-6,-10,-8,-3,-3,2021-08-07 12:45:55,593067
-6,-7,-8,-16,-23,-12,-7,-5,2021-08-07 12:45:55,593067
3,4,4,9,17,13,4,4,2021-08-07 12:45:55,593067
-3,-2,-1,0,-1,-3,-3,0,2021-08-07 12:45:55,593067
0,0,1,3,9,2,2,0,2021-08-07 12:45:55,593067
2,1,0,-4,-4,-1,0,1,2021-08-07 12:45:55,593067
-1,-2,-2,-1,-4,-4,-1,-2,2021-08-07 12:45:55,609063
-4,-3,-4,-10,-19,-11,-5,-4,2021-08-07 12:45:55,609063
2,3,1,2,12,11,4,3,2021-08-07 12:45:55,625024
-3,-1,-1,7,12,2,-1,-2,2021-08-07 12:45:55,641028
-4,-4,-5,-6,-7,-2,-3,-2,2021-08-07 12:45:55,657025
2,2,3,5,9,3,2,2,2021-08-07 12:45:55,672054
1,0,-2,-5,-8,-5,0,0,2021-08-07 12:45:55,672054
-2,-2,-3,-5,-4,-2,-1,-2,2021-08-07 12:45:55,672054
-1,0,-1,-3,-3,-4,-2,1,2021-08-07 12:45:55,672054
0,1,1,3,7,4,2,-1,2021-08-07 12:45:55,672054
-2,0,-1,-1,-4,-1,-2,-1,2021-08-07 12:45:55,672054
0,0,-1,-1,-1,0,-1,2,2021-08-07 12:45:55,673027
-2,-2,-1,-4,-5,-3,-2,-2,2021-08-07 12:45:55,673027
-1,1,1,-1,2,2,-2,1,2021-08-07 12:45:55,673027
-2,-3,-4,-2,-6,-5,-2,-1,2021-08-07 12:45:55,673027
1,0,1,4,11,7,5,1,2021-08-07 12:45:55,673027
-2,0,-1,-1,-2,-1,-1,-1,2021-08-07 12:45:55,673027
-2,-1,-2,-1,-4,-1,-1,-2,2021-08-07 12:45:55,673027
-2,-2,-1,-2,-4,-3,-3,-1,2021-08-07 12:45:55,704054
1,2,2,6,2,3,3,4,2021-08-07 12:45:55,704054
-1,-1,0,1,11,5,1,-1,2021-08-07 12:45:55,704054
-1,-1,-1,-1,-3,-3,-1,-1,2021-08-07 12:45:55,704054
3,2,1,2,4,5,2,1,2021-08-07 12:45:55,720027
-2,-2,-2,-4,-5,-4,-3,-3,2021-08-07 12:45:55,736028
2,1,2,11,7,5,3,2,2021-08-07 12:45:55,736028
-3,-2,-1,-3,-4,-5,-4,-3,2021-08-07 12:45:55,736028
0,2,2,0,-1,1,1,0,2021-08-07 12:45:55,752064
0,-3,-4,-10,-12,-7,-5,-2,2021-08-07 12:45:55,752064
0,0,0,-3,-4,-3,-1,0,2021-08-07 12:45:55,752064
-1,-1,-1,2,3,0,-1,0,2021-08-07 12:45:55,752064
-1,0,1,2,2,0,-1,-2,2021-08-07 12:45:55,768065
-2,-1,-2,-3,-5,-4,-2,-2,2021-08-07 12:45:55,783064
-3,-2,-2,-5,-9,-5,-2,-3,2021-08-07 12:45:55,783064
0,0,-2,-3,-4,-2,-1,0,2021-08-07 12:45:55,783064
-1,1,-1,4,8,5,1,0,2021-08-07 12:45:55,783064
-1,-2,-2,-3,-6,-4,-4,-2,2021-08-07 12:45:55,783064
-5,-4,-2,-8,-13,-10,-6,-4,2021-08-07 12:45:55,783064
2,0,1,6,15,11,5,2,2021-08-07 12:45:55,783064
2,4,3,4,8,5,3,2,2021-08-07 12:45:55,799025
-3,0,-1,0,-7,-5,-1,-1,2021-08-07 12:45:55,799025
0,0,1,3,6,4,0,-1,2021-08-07 12:45:55,799025
-1,-4,-4,-10,-15,-8,-4,-4,2021-08-07 12:45:55,799025
-2,-3,-3,-1,-2,-5,-3,-1,2021-08-07 12:45:55,831028
-1,-2,-4,-3,1,5,0,-1,2021-08-07 12:45:55,831028
0,1,1,2,6,2,2,2,2021-08-07 12:45:55,831028
1,2,4,9,16,8,4,2,2021-08-07 12:45:55,831028
-1,-2,-1,-2,-5,-5,-2,-1,2021-08-07 12:45:55,831028
-1,0,-1,-6,-2,-1,-2,-2,2021-08-07 12:45:55,831028
-2,-3,-5,-8,-13,-8,-5,-3,2021-08-07 12:45:55,847063
-1,-1,-2,-2,-1,-1,0,-1,2021-08-07 12:45:55,863030
-2,-2,-2,-3,-6,-4,-3,-3,2021-08-07 12:45:55,879064
0,0,2,4,2,-2,-1,-1,2021-08-07 12:45:55,879064
0,2,0,0,5,5,3,1,2021-08-07 12:45:55,879064
-2,-2,-2,-3,-8,-6,-2,0,2021-08-07 12:45:55,879064
-2,-3,-2,-5,-3,-1,-3,-3,2021-08-07 12:45:55,879064
-1,2,1,3,4,1,0,2,2021-08-07 12:45:55,879064
-2,-5,-4,-1,-6,-3,-2,-2,2021-08-07 12:45:55,880027
-2,-2,-2,3,5,2,-1,-1,2021-08-07 12:45:55,880027
7,11,9,9,9,6,7,6,2021-08-07 12:45:55,895070
1,0,0,1,3,2,1,0,2021-08-07 12:45:55,911074
0,-2,-4,-13,-17,-12,-6,-3,2021-08-07 12:45:55,911074
0,-2,1,2,-1,0,-1,-2,2021-08-07 12:45:55,911074
-5,-3,-4,0,2,1,-2,-4,2021-08-07 12:45:55,911074
-1,-1,-1,-4,-1,1,1,0,2021-08-07 12:45:55,911074
0,3,-1,5,9,5,3,1,2021-08-07 12:45:55,915028
0,0,-2,-7,-6,-3,-3,0,2021-08-07 12:45:55,915028
-2,-1,0,2,3,0,1,0,2021-08-07 12:45:55,943063
-3,-4,-4,-11,-20,-15,-8,-6,2021-08-07 12:45:55,959078
0,-1,0,-4,-4,0,0,0,2021-08-07 12:45:55,975027
-1,-2,-2,0,0,-1,1,-1,2021-08-07 12:45:55,975027
-1,-1,0,3,0,1,0,1,2021-08-07 12:45:55,975027
1,-1,-2,0,5,4,2,1,2021-08-07 12:45:55,975027
-2,-1,-2,0,3,-1,-2,-2,2021-08-07 12:45:55,975027
3,4,3,5,4,4,2,2,2021-08-07 12:45:55,975027
0,1,0,2,1,0,-1,-2,2021-08-07 12:45:55,976027
-2,-2,-2,-5,-9,-7,-4,-2,2021-08-07 12:45:55,976027
-2,-4,-3,-2,-3,-2,-3,-2,2021-08-07 12:45:55,976027
-5,-7,-6,-12,-12,-5,-5,-4,2021-08-07 12:45:55,976027
3,2,1,1,2,1,2,3,2021-08-07 12:45:56,006066
-2,0,0,3,4,4,1,0,2021-08-07 12:45:56,022065
5,7,6,10,16,9,4,4,2021-08-07 12:45:56,038066
-2,1,-2,-3,-5,-4,-3,-2,2021-08-07 12:45:56,038066
-4,-6,-6,-9,-10,-6,-5,-4,2021-08-07 12:45:56,038066
1,-1,1,1,2,1,0,0,2021-08-07 12:45:56,038066
-4,-4,-4,-8,-11,-8,-5,-4,2021-08-07 12:45:56,038066
1,0,1,4,6,5,3,2,2021-08-07 12:45:56,038066
3,2,2,9,14,9,4,4,2021-08-07 12:45:56,039026
0,0,1,3,8,1,-1,-1,2021-08-07 12:45:56,039026
-3,-5,-5,-8,-11,-6,-3,-3,2021-08-07 12:45:56,039026
-1,-1,0,-4,-17,-11,-7,-2,2021-08-07 12:45:56,039026
-2,-4,-5,-7,-8,-3,-1,-2,2021-08-07 12:45:56,070028
-1,-2,1,10,19,9,4,0,2021-08-07 12:45:56,086064
7,10,8,10,13,8,7,8,2021-08-07 12:45:56,086064
-1,0,0,0,4,0,-1,0,2021-08-07 12:45:56,086064
-5,-5,-4,-9,-13,-9,-4,-2,2021-08-07 12:45:56,086064
-3,-2,-6,-14,-23,-13,-7,-2,2021-08-07 12:45:56,086064
-4,-4,-2,1,7,5,1,-3,2021-08-07 12:45:56,086064
2,1,0,0,-4,-1,0,-1,2021-08-07 12:45:56,087025
1,2,2,4,10,4,3,2,2021-08-07 12:45:56,102069
-1,-2,-3,-5,-5,-2,1,0,2021-08-07 12:45:56,118075
-1,-3,-3,1,2,0,0,0,2021-08-07 12:45:56,118075
-3,-4,-3,-5,0,-3,-2,-3,2021-08-07 12:45:56,118075
0,-1,-3,-4,-3,-1,-3,-2,2021-08-07 12:45:56,134031
-1,1,0,-1,-10,-6,-4,-1,2021-08-07 12:45:56,150027
-1,-2,-1,1,4,6,1,2,2021-08-07 12:45:56,182025
-1,2,2,4,6,4,4,0,2021-08-07 12:45:56,198028
2,2,1,6,5,0,0,-1,2021-08-07 12:45:56,198028
1,0,0,0,2,1,1,1,2021-08-07 12:45:56,198028
-3,-2,-3,-7,-12,-10,-6,-5,2021-08-07 12:45:56,198028
-3,-4,-5,-6,-9,-4,-4,-3,2021-08-07 12:45:56,198028
1,0,1,3,8,4,3,0,2021-08-07 12:45:56,198028
-1,-1,0,-1,1,-3,-1,0,2021-08-07 12:45:56,198028
-2,-1,-1,1,-1,-1,-1,-1,2021-08-07 12:45:56,213067
-2,-3,-4,-7,-13,-9,-6,-5,2021-08-07 12:45:56,213067
0,1,3,2,4,2,1,0,2021-08-07 12:45:56,213067
-1,-3,-3,-4,-5,-3,-3,-2,2021-08-07 12:45:56,213067
4,5,3,7,12,8,4,4,2021-08-07 12:45:56,213067
4,6,7,18,18,10,6,4,2021-08-07 12:45:56,229029
-1,-1,-3,-6,-6,0,-2,1,2021-08-07 12:45:56,229029
1,1,3,9,13,6,4,1,2021-08-07 12:45:56,229029
-4,-4,-3,-8,-13,-10,-6,-4,2021-08-07 12:45:56,229029
-1,-3,-4,-8,-10,-5,-3,-1,2021-08-07 12:45:56,229029
-1,-2,-4,0,-4,-2,0,0,2021-08-07 12:45:56,244061
-3,-4,-5,-8,-9,-4,-2,-1,2021-08-07 12:45:56,260068
1,-2,0,10,14,6,3,1,2021-08-07 12:45:56,260068
0,2,4,7,13,8,2,3,2021-08-07 12:45:56,260068
-4,-3,-1,-2,-5,-5,-4,-5,2021-08-07 12:45:56,260068
-2,0,0,-2,-3,-4,-4,-4,2021-08-07 12:45:56,260068
-2,-3,-2,-4,-9,-6,-5,-4,2021-08-07 12:45:56,260068
-5,-6,-6,-13,-27,-21,-11,-6,2021-08-07 12:45:56,260068
2,0,-3,0,5,10,4,1,2021-08-07 12:45:56,261064
6,9,11,20,31,20,12,7,2021-08-07 12:45:56,261064
3,1,1,-4,-2,-2,1,2,2021-08-07 12:45:56,261064
1,2,0,6,12,6,4,1,2021-08-07 12:45:56,261064
-5,-5,-4,-13,-25,-17,-10,-5,2021-08-07 12:45:56,276061
-3,-4,-5,-5,-11,-5,-2,-3,2021-08-07 12:45:56,276061
-4,-4,-4,-11,-16,-10,-6,-5,2021-08-07 12:45:56,276061
-2,-6,-8,-11,-17,-7,-3,-3,2021-08-07 12:45:56,276061
4,6,8,22,41,21,10,4,2021-08-07 12:45:56,308068
3,2,4,5,8,6,3,1,2021-08-07 12:45:56,308068
-1,-1,0,2,1,0,0,0,2021-08-07 12:45:56,308068
1,1,0,0,0,0,0,0,2021-08-07 12:45:56,308068
-4,-3,-5,-8,-12,-8,-5,-3,2021-08-07 12:45:56,308068
-5,-5,-3,-7,-14,-9,-4,0,2021-08-07 12:45:56,308068
-5,-8,-11,-12,-21,-13,-7,-5,2021-08-07 12:45:56,324061
7,10,13,18,33,22,12,7,2021-08-07 12:45:56,340063
1,3,2,6,8,3,3,2,2021-08-07 12:45:56,344064
-2,0,-2,-4,-6,-3,-3,-1,2021-08-07 12:45:56,344064
-2,-3,-5,-5,-16,-12,-5,-4,2021-08-07 12:45:56,345028
-5,-7,-7,-9,-8,-6,-3,-3,2021-08-07 12:45:56,345028
1,0,0,1,0,1,0,0,2021-08-07 12:45:56,372025
-2,-1,-2,-3,-6,-3,-1,-2,2021-08-07 12:45:56,388028
-3,-3,-2,-5,-2,0,1,-1,2021-08-07 12:45:56,404069
5,6,5,13,27,16,8,5,2021-08-07 12:45:56,404069
0,1,2,-4,-6,-5,-2,0,2021-08-07 12:45:56,404069
0,-4,-4,-4,-4,-2,-3,-2,2021-08-07 12:45:56,404069
-1,0,3,4,6,1,1,-1,2021-08-07 12:45:56,420063
-6,-5,-4,-7,-11,-11,-6,-5,2021-08-07 12:45:56,436061
-3,-7,-8,-11,-16,-6,-4,-3,2021-08-07 12:45:56,452027
6,8,6,13,22,13,7,7,2021-08-07 12:45:56,452027
1,3,1,1,4,5,2,3,2021-08-07 12:45:56,452027
-3,-1,-1,2,-2,-3,0,-1,2021-08-07 12:45:56,452027
-3,-4,-3,-6,-10,-7,-4,-1,2021-08-07 12:45:56,452027
1,2,2,1,-1,-1,0,-1,2021-08-07 12:45:56,452027
1,1,2,1,5,4,-1,1,2021-08-07 12:45:56,452027
-4,-4,-4,-10,-16,-11,-6,-4,2021-08-07 12:45:56,453026
-6,-6,-6,-11,-18,-14,-7,-6,2021-08-07 12:45:56,453026
7,7,4,22,41,28,16,8,2021-08-07 12:45:56,453026
4,6,10,16,21,10,5,4,2021-08-07 12:45:56,453026
3,0,1,1,1,2,-1,1,2021-08-07 12:45:56,453026
0,0,0,-2,-6,-7,-3,-1,2021-08-07 12:45:56,453026
-6,-6,-7,-16,-27,-17,-9,-6,2021-08-07 12:45:56,453026
-3,-6,-6,-5,-4,-2,-1,-2,2021-08-07 12:45:56,453026
-1,-2,-1,0,-2,0,-3,0,2021-08-07 12:45:56,454026
0,-1,-1,0,0,-1,-1,-1,2021-08-07 12:45:56,483072
-5,-9,-8,-18,-28,-16,-9,-7,2021-08-07 12:45:56,499064
4,7,7,22,37,23,11,5,2021-08-07 12:45:56,515029
0,1,-1,6,13,6,2,1,2021-08-07 12:45:56,531029
0,2,3,3,6,4,1,1,2021-08-07 12:45:56,547025
-3,-5,-2,-5,-8,-8,-4,-3,2021-08-07 12:45:56,547025
-4,-6,-8,-20,-25,-16,-8,-5,2021-08-07 12:45:56,547025
0,-2,-2,-3,-10,-5,-3,-1,2021-08-07 12:45:56,547025
1,0,-2,-2,3,6,3,-1,2021-08-07 12:45:56,547025
1,3,4,8,9,6,1,2,2021-08-07 12:45:56,547025
0,-1,-1,-5,-6,-3,-1,0,2021-08-07 12:45:56,548026
1,-1,0,6,15,9,6,2,2021-08-07 12:45:56,548026
1,0,-3,-2,-6,-3,-2,-1,2021-08-07 12:45:56,548026
-1,-1,1,0,6,3,1,-2,2021-08-07 12:45:56,548026
0,1,0,-4,-8,-6,-3,-1,2021-08-07 12:45:56,548026
-2,0,-1,-4,-5,-3,-3,-3,2021-08-07 12:45:56,548026
1,-2,-1,0,-3,-1,-2,1,2021-08-07 12:45:56,563028
-2,-2,-3,-7,-12,-8,-5,-2,2021-08-07 12:45:56,563028
-4,-4,-1,3,4,0,0,-2,2021-08-07 12:45:56,563028
-3,-6,-9,-24,-36,-19,-10,-6,2021-08-07 12:45:56,563028
5,5,8,24,41,26,11,6,2021-08-07 12:45:56,579026
1,2,1,6,13,5,3,1,2021-08-07 12:45:56,594026
-3,-2,-4,-5,-7,-6,-3,-2,2021-08-07 12:45:56,610077
1,3,2,1,-2,-2,0,2,2021-08-07 12:45:56,626063
-4,-2,-4,-13,-18,-10,-6,-3,2021-08-07 12:45:56,658091
-2,-2,-2,-7,-13,-8,-4,-3,2021-08-07 12:45:56,658091
-1,-1,1,8,7,5,2,0,2021-08-07 12:45:56,658091
-1,-1,-2,-4,-2,0,0,-2,2021-08-07 12:45:56,658091
1,2,2,9,11,3,2,2,2021-08-07 12:45:56,658091
2,3,3,7,13,7,3,2,2021-08-07 12:45:56,658091
-1,-2,-4,-14,-18,-10,-4,-2,2021-08-07 12:45:56,659027
0,-1,1,6,7,5,1,-1,2021-08-07 12:45:56,659027
-2,-2,-1,-3,-5,-2,-1,-1,2021-08-07 12:45:56,659027
-4,-3,-4,-3,-2,-2,-2,-2,2021-08-07 12:45:56,659027
-2,-2,-2,-14,-17,-10,-7,-2,2021-08-07 12:45:56,659027
5,5,7,9,21,13,6,4,2021-08-07 12:45:56,659027
0,0,-2,1,3,2,1,0,2021-08-07 12:45:56,659027
-2,-3,2,-5,-10,-6,-4,-1,2021-08-07 12:45:56,660027
0,-2,-4,-3,-2,-2,-1,0,2021-08-07 12:45:56,660027
-1,0,-1,2,1,-2,-3,-2,2021-08-07 12:45:56,660027
1,2,1,-6,-12,-6,-2,0,2021-08-07 12:45:56,690063
-3,-6,-5,-3,-8,-2,-1,-3,2021-08-07 12:45:56,706076
5,5,6,20,38,21,10,6,2021-08-07 12:45:56,706076
1,1,1,0,-1,-3,-1,-1,2021-08-07 12:45:56,706076
1,0,-2,1,2,1,1,-1,2021-08-07 12:45:56,706076
0,-1,-2,-3,-10,-8,-4,-2,2021-08-07 12:45:56,706076
-2,-1,-1,-4,-6,-3,-3,-3,2021-08-07 12:45:56,706076
-3,-1,-3,1,1,-1,-1,1,2021-08-07 12:45:56,707027
-3,-2,-1,-10,-14,-9,-4,-2,2021-08-07 12:45:56,722077
1,2,1,-2,3,-1,0,-2,2021-08-07 12:45:56,738026
1,1,-4,-9,-13,-2,1,1,2021-08-07 12:45:56,738026
3,5,7,11,21,9,5,3,2021-08-07 12:45:56,738026
-2,-2,-2,-5,-7,-6,-5,-1,2021-08-07 12:45:56,754061
2,2,3,9,17,12,5,2,2021-08-07 12:45:56,754061
-5,-4,-4,-6,-14,-12,-8,-4,2021-08-07 12:45:56,754061
-2,-4,-3,-6,-10,-6,-4,-3,2021-08-07 12:45:56,754061
0,3,2,0,-2,0,1,2,2021-08-07 12:45:56,763063
1,0,1,1,3,3,2,1,2021-08-07 12:45:56,763063
