EMG 1,EMG 2,EMG 3,EMG 4,EMG 5,EMG 6,EMG 7,EMG 8,Timestamp,Milliseconds
-6,-11,-10,-8,-9,-6,-3,-6,2021-08-07 13:03:42,212934
3,4,5,-3,-6,-3,1,2,2021-08-07 13:03:42,212934
0,-1,-3,-4,-3,0,4,2,2021-08-07 13:03:42,212934
0,3,-1,-3,-8,-3,0,1,2021-08-07 13:03:42,212934
-3,-2,-4,-11,-19,-15,-9,-3,2021-08-07 13:03:42,212934
0,-1,3,25,54,36,15,2,2021-08-07 13:03:42,212934
2,0,2,5,6,-1,-3,0,2021-08-07 13:03:42,212934
1,3,3,2,3,3,4,3,2021-08-07 13:03:42,213934
-1,0,-1,-8,-14,-10,-3,-2,2021-08-07 13:03:42,228934
-4,-4,-6,-8,-17,-12,-6,-4,2021-08-07 13:03:42,228934
2,0,2,-1,-2,3,5,2,2021-08-07 13:03:42,228934
-3,-4,-5,-4,-1,0,-2,-1,2021-08-07 13:03:42,228934
-1,2,2,4,3,1,-3,-2,2021-08-07 13:03:42,228934
-1,0,-1,-6,-7,-8,-3,-2,2021-08-07 13:03:42,228934
-2,-2,0,3,7,4,1,-1,2021-08-07 13:03:42,244935
-3,-6,-6,-1,-2,-5,-4,-3,2021-08-07 13:03:42,244935
-1,-5,-8,-6,-3,-2,1,1,2021-08-07 13:03:42,260933
4,11,10,2,-2,-1,2,6,2021-08-07 13:03:42,260933
-1,-2,-3,-2,-8,-7,-4,-2,2021-08-07 13:03:42,276932
-3,-3,-3,-1,-3,-1,-5,-5,2021-08-07 13:03:42,276932
-3,-3,-2,0,7,3,-1,-2,2021-08-07 13:03:42,292935
-4,-7,-8,-7,-9,-8,-6,-5,2021-08-07 13:03:42,292935
5,9,8,17,22,15,10,5,2021-08-07 13:03:42,340933
0,-1,-2,-5,-8,-3,-1,0,2021-08-07 13:03:42,340933
-3,-6,-7,-6,-9,-6,-4,-3,2021-08-07 13:03:42,340933
-4,-5,-4,-8,-12,-7,-6,-4,2021-08-07 13:03:42,340933
1,2,1,-3,-6,-5,-1,1,2021-08-07 13:03:42,340933
0,-1,-1,2,5,6,3,-1,2021-08-07 13:03:42,340933
-1,0,1,2,4,3,1,0,2021-08-07 13:03:42,341934
-2,-4,-5,0,-1,-2,-1,-3,2021-08-07 13:03:42,341934
-4,-6,-3,-4,-5,-4,-5,-2,2021-08-07 13:03:42,341934
2,2,0,-3,-4,-4,-1,-2,2021-08-07 13:03:42,341934
3,8,6,7,7,4,3,3,2021-08-07 13:03:42,341934
0,1,0,0,1,2,0,0,2021-08-07 13:03:42,341934
-1,-1,-5,-7,-10,-7,-3,0,2021-08-07 13:03:42,341934
-4,-3,1,11,15,5,3,0,2021-08-07 13:03:42,341934
-2,-4,-6,-8,-5,-4,-1,-2,2021-08-07 13:03:42,372933
2,5,6,6,4,3,2,1,2021-08-07 13:03:42,387933
-1,0,0,3,-2,-1,0,-2,2021-08-07 13:03:42,394934
-4,-5,-6,-11,-13,-7,-5,-3,2021-08-07 13:03:42,394934
-3,-3,-2,-4,-5,-2,-3,-2,2021-08-07 13:03:42,394934
0,0,2,5,8,1,1,2,2021-08-07 13:03:42,394934
1,1,1,4,5,4,1,0,2021-08-07 13:03:42,395934
-3,-3,-5,-8,-14,-7,-4,-3,2021-08-07 13:03:42,395934
3,2,2,7,1,0,1,0,2021-08-07 13:03:42,419933
-7,-13,-11,-9,0,1,-2,-5,2021-08-07 13:03:42,435932
4,8,8,6,12,8,4,1,2021-08-07 13:03:42,451934
0,4,2,5,9,3,2,1,2021-08-07 13:03:42,467934
2,2,2,0,-4,-6,-2,0,2021-08-07 13:03:42,483933
0,3,-1,-9,-13,-6,-2,1,2021-08-07 13:03:42,499932
-2,-6,-6,-5,-5,-4,-2,-3,2021-08-07 13:03:42,499932
-1,-3,-4,-2,-2,0,-2,-3,2021-08-07 13:03:42,499932
-3,-5,-2,2,5,1,-1,-2,2021-08-07 13:03:42,499932
4,8,6,5,4,2,3,3,2021-08-07 13:03:42,499932
-1,-2,-4,-10,-10,-5,-3,-2,2021-08-07 13:03:42,515933
0,1,2,-2,-3,-3,-3,-1,2021-08-07 13:03:42,515933
-4,-5,-4,-4,-7,-4,-4,-4,2021-08-07 13:03:42,515933
-2,-4,-3,-1,1,1,-3,-2,2021-08-07 13:03:42,515933
5,7,8,11,11,8,5,7,2021-08-07 13:03:42,515933
-1,-2,-3,0,6,2,2,1,2021-08-07 13:03:42,516936
-2,0,-3,-1,2,0,-1,-3,2021-08-07 13:03:42,516936
-1,-1,-2,-1,-3,-6,-2,-3,2021-08-07 13:03:42,516936
-4,-7,-7,-4,-5,-4,-2,-3,2021-08-07 13:03:42,516936
0,0,1,-2,-7,-4,-3,-1,2021-08-07 13:03:42,516936
3,6,6,6,8,6,4,2,2021-08-07 13:03:42,516936
-1,-1,-1,1,1,1,0,1,2021-08-07 13:03:42,516936
1,0,0,4,5,1,0,1,2021-08-07 13:03:42,517935
-4,-7,-6,-3,0,0,-3,-2,2021-08-07 13:03:42,517935
-4,-7,-8,-15,-11,-7,-4,-4,2021-08-07 13:03:42,547932
3,5,5,6,6,5,2,3,2021-08-07 13:03:42,547932
1,0,2,3,5,3,1,-1,2021-08-07 13:03:42,547932
0,1,3,4,2,0,0,0,2021-08-07 13:03:42,547932
-6,-9,-9,-21,-34,-20,-11,-4,2021-08-07 13:03:42,562934
-1,0,-2,2,14,9,2,0,2021-08-07 13:03:42,578933
0,1,4,2,2,1,-1,0,2021-08-07 13:03:42,578933
3,4,5,9,8,4,5,1,2021-08-07 13:03:42,578933
-1,-1,-2,3,6,2,0,0,2021-08-07 13:03:42,578933
-2,-4,-4,-9,-18,-12,-4,-4,2021-08-07 13:03:42,578933
-3,-3,-4,-11,-18,-10,-3,-2,2021-08-07 13:03:42,578933
1,3,5,14,28,14,7,3,2021-08-07 13:03:42,578933
0,3,0,2,0,0,-1,0,2021-08-07 13:03:42,594933
-2,-3,-1,-7,-10,-10,-5,0,2021-08-07 13:03:42,594933
-3,-4,-6,-8,-6,-4,-2,-4,2021-08-07 13:03:42,594933
2,3,3,2,1,2,0,2,2021-08-07 13:03:42,594933
2,2,2,5,9,5,4,2,2021-08-07 13:03:42,626933
-1,-1,-1,-2,-8,-6,-3,-2,2021-08-07 13:03:42,641934
-1,-3,-3,-1,-3,-3,-4,-2,2021-08-07 13:03:42,657936
-3,-6,-7,-12,-20,-12,-8,-4,2021-08-07 13:03:42,657936
2,1,4,13,15,9,4,1,2021-08-07 13:03:42,657936
1,1,-1,-6,-2,1,2,0,2021-08-07 13:03:42,657936
0,4,3,9,9,4,3,1,2021-08-07 13:03:42,657936
1,2,1,6,10,6,3,0,2021-08-07 13:03:42,657936
0,1,-1,-2,1,-2,0,0,2021-08-07 13:03:42,658934
-4,-3,-6,-9,-16,-8,-4,-2,2021-08-07 13:03:42,658934
-2,-4,-3,-7,-10,-6,-2,-2,2021-08-07 13:03:42,658934
1,1,0,5,12,7,4,2,2021-08-07 13:03:42,658934
-3,-3,-2,-5,-7,-7,-5,-4,2021-08-07 13:03:42,673934
0,3,7,10,15,8,4,2,2021-08-07 13:03:42,689934
0,2,4,1,1,3,-1,-1,2021-08-07 13:03:42,689934
-6,-4,-4,-9,-14,-10,-7,-6,2021-08-07 13:03:42,689934
-6,-4,-7,-11,-12,-8,-5,-5,2021-08-07 13:03:42,689934
2,2,2,3,0,-2,-1,2,2021-08-07 13:03:42,689934
3,3,4,3,9,7,4,2,2021-08-07 13:03:42,689934
1,-1,-3,-6,-6,-6,-1,1,2021-08-07 13:03:42,689934
-1,-3,-1,0,0,1,-3,-2,2021-08-07 13:03:42,720932
2,3,4,12,23,16,8,2,2021-08-07 13:03:42,720932
-6,-8,-9,-18,-25,-18,-9,-7,2021-08-07 13:03:42,720932
0,1,0,4,4,2,0,-1,2021-08-07 13:03:42,720932
4,6,5,7,5,3,4,2,2021-08-07 13:03:42,736933
0,-2,-4,-3,-8,-5,-2,0,2021-08-07 13:03:42,752934
-3,-5,-6,-7,-4,-4,-3,-2,2021-08-07 13:03:42,768933
-1,-1,0,1,4,2,1,-1,2021-08-07 13:03:42,768933
-2,-4,-2,-4,-5,-2,-2,-3,2021-08-07 13:03:42,768933
0,0,1,2,1,3,-1,0,2021-08-07 13:03:42,768933
3,5,5,5,7,4,3,4,2021-08-07 13:03:42,768933
-4,-5,-6,-12,-22,-14,-6,-4,2021-08-07 13:03:42,768933
1,0,-3,-9,-13,-8,-3,-1,2021-08-07 13:03:42,768933
0,-1,0,15,26,17,6,1,2021-08-07 13:03:42,768933
1,3,3,1,1,2,3,2,2021-08-07 13:03:42,769934
-2,-3,-2,-3,-6,-6,-3,1,2021-08-07 13:03:42,769934
-2,-4,-1,0,3,3,2,0,2021-08-07 13:03:42,800934
3,5,3,-5,-11,-8,-1,3,2021-08-07 13:03:42,813933
-5,-7,-7,-1,1,2,-4,-4,2021-08-07 13:03:42,814936
0,4,5,-3,-3,-1,-1,0,2021-08-07 13:03:42,814936
1,1,3,5,4,-1,-1,-1,2021-08-07 13:03:42,814936
-3,-5,-5,-4,-3,-2,-1,-2,2021-08-07 13:03:42,814936
1,2,1,4,4,1,1,2,2021-08-07 13:03:42,814936
0,-2,-3,-8,-9,-5,0,-1,2021-08-07 13:03:42,814936
-3,-1,0,-1,2,1,-1,1,2021-08-07 13:03:42,832934
-3,-6,-5,-7,-9,-8,-6,-5,2021-08-07 13:03:42,832934
0,0,-1,0,2,0,0,-1,2021-08-07 13:03:42,832934
7,11,9,9,16,13,6,4,2021-08-07 13:03:42,832934
3,7,6,7,9,4,4,3,2021-08-07 13:03:42,848933
-2,-1,-1,1,-3,-3,-1,-3,2021-08-07 13:03:42,848933
-7,-11,-10,-12,-12,-6,0,-4,2021-08-07 13:03:42,848933
-1,-3,-2,-3,-13,-10,-7,-1,2021-08-07 13:03:42,848933
2,5,5,10,24,15,2,2,2021-08-07 13:03:42,879932
0,2,0,-4,-4,-6,-3,-2,2021-08-07 13:03:42,879932
-5,-6,-7,-9,-11,-7,-5,-4,2021-08-07 13:03:42,879932
1,0,1,10,7,6,5,2,2021-08-07 13:03:42,879932
2,1,0,-3,-6,-2,3,3,2021-08-07 13:03:42,895933
-3,-2,-1,-1,-1,-3,-2,-1,2021-08-07 13:03:42,911934
-7,-8,-7,-8,-8,-9,-8,-8,2021-08-07 13:03:42,927935
-2,0,3,2,-4,-1,0,-2,2021-08-07 13:03:42,927935
0,-1,-2,2,10,8,2,-1,2021-08-07 13:03:42,943932
6,7,8,5,6,7,6,5,2021-08-07 13:03:42,958933
1,-1,-1,-1,1,-1,-1,-1,2021-08-07 13:03:42,974932
-5,-10,-13,-9,-8,-6,-5,-5,2021-08-07 13:03:42,974932
0,4,4,-3,-8,-6,-2,-1,2021-08-07 13:03:42,974932
-5,-4,-5,-8,-10,-4,-2,-2,2021-08-07 13:03:42,974932
5,7,6,7,7,2,1,4,2021-08-07 13:03:42,974932
-4,-7,-6,-4,0,-3,-4,-3,2021-08-07 13:03:42,974932
-4,-6,-8,-6,-7,-4,-2,-2,2021-08-07 13:03:42,974932
2,4,4,1,3,3,3,2,2021-08-07 13:03:42,975934
3,2,4,5,4,4,3,2,2021-08-07 13:03:42,975934
-2,-2,-2,-5,-3,-3,-4,-3,2021-08-07 13:03:42,975934
-2,-2,-5,-4,-3,-3,-3,-4,2021-08-07 13:03:42,975934
-4,-4,0,2,-8,-8,-4,-3,2021-08-07 13:03:42,975934
4,6,3,9,16,12,8,5,2021-08-07 13:03:42,975934
0,-1,0,-3,-4,-2,-1,1,2021-08-07 13:03:42,975934
2,4,3,-3,-8,-5,-2,0,2021-08-07 13:03:42,990934
-2,-6,-9,-5,-8,-7,-4,-4,2021-08-07 13:03:42,990934
3,4,4,7,13,8,3,3,2021-08-07 13:03:43,006933
-7,-9,-10,-9,-9,-7,-5,-6,2021-08-07 13:03:43,021934
5,3,5,9,14,8,4,4,2021-08-07 13:03:43,021934
1,5,3,4,8,6,3,1,2021-08-07 13:03:43,021934
2,3,2,2,-1,-2,-3,0,2021-08-07 13:03:43,021934
-4,-4,-6,-9,-12,-8,-5,-2,2021-08-07 13:03:43,021934
-3,-3,-2,1,0,1,-1,-1,2021-08-07 13:03:43,036935
2,2,1,1,5,3,1,1,2021-08-07 13:03:43,036935
-2,-3,-3,-4,-3,-1,-3,-1,2021-08-07 13:03:43,036935
-1,-3,0,0,4,-1,0,-1,2021-08-07 13:03:43,036935
-5,-9,-7,-6,-13,-8,-3,-5,2021-08-07 13:03:43,084934
3,4,6,7,6,5,1,2,2021-08-07 13:03:43,099934
0,1,1,-5,-8,-4,0,0,2021-08-07 13:03:43,099934
4,10,8,8,6,6,4,5,2021-08-07 13:03:43,099934
-2,-2,-1,-1,4,3,2,1,2021-08-07 13:03:43,099934
-6,-8,-10,-7,-5,-4,-5,-3,2021-08-07 13:03:43,099934
-8,-12,-10,-7,-8,-6,-4,-6,2021-08-07 13:03:43,099934
9,11,12,19,23,15,8,5,2021-08-07 13:03:43,100934
3,5,1,-2,-5,-2,0,0,2021-08-07 13:03:43,100934
-1,0,-1,-4,-4,-5,-2,-1,2021-08-07 13:03:43,100934
-2,-1,-2,0,2,1,-2,-1,2021-08-07 13:03:43,100934
-4,-7,-6,-9,-8,-3,-3,-2,2021-08-07 13:03:43,100934
1,3,6,4,3,2,0,-1,2021-08-07 13:03:43,115934
0,0,-1,-2,-8,-6,-2,0,2021-08-07 13:03:43,131932
-3,-5,-5,-4,-2,-4,-4,-4,2021-08-07 13:03:43,147935
-2,-1,-2,-5,-5,-3,-2,-2,2021-08-07 13:03:43,147935
-1,-2,-5,-2,-2,0,-2,-1,2021-08-07 13:03:43,147935
1,3,4,3,5,4,0,-1,2021-08-07 13:03:43,147935
-3,-5,-5,-5,-7,-6,-3,-1,2021-08-07 13:03:43,147935
3,7,8,7,5,4,2,0,2021-08-07 13:03:43,147935
-2,-3,-3,-3,3,0,0,0,2021-08-07 13:03:43,148937
-4,-4,-3,-6,-10,-7,-2,-3,2021-08-07 13:03:43,148937
0,1,2,8,12,7,4,3,2021-08-07 13:03:43,148937
-5,-8,-9,-4,-4,-4,-4,-4,2021-08-07 13:03:43,148937
3,7,7,3,1,2,2,1,2021-08-07 13:03:43,179933
-2,-4,-3,-8,-6,-3,-1,-1,2021-08-07 13:03:43,195932
2,3,5,1,-2,-3,1,0,2021-08-07 13:03:43,211934
-3,-5,-6,-4,-3,-3,0,-3,2021-08-07 13:03:43,211934
-6,-9,-9,-6,-3,-3,-4,-4,2021-08-07 13:03:43,211934
-3,-3,-5,-7,-6,-4,-2,-1,2021-08-07 13:03:43,211934
5,13,13,12,8,8,6,4,2021-08-07 13:03:43,211934
2,2,2,4,8,5,2,2,2021-08-07 13:03:43,211934
-2,-3,-2,-1,-1,-4,-2,-1,2021-08-07 13:03:43,212934
-2,-4,-5,-7,-9,-8,-6,-3,2021-08-07 13:03:43,212934
-5,-6,-7,-9,-14,-9,-7,-5,2021-08-07 13:03:43,212934
-2,-3,-1,0,2,1,0,-1,2021-08-07 13:03:43,212934
3,6,6,8,8,6,6,5,2021-08-07 13:03:43,243934
-1,-3,-3,1,3,1,1,-1,2021-08-07 13:03:43,250934
1,2,2,-6,-8,-4,-1,-1,2021-08-07 13:03:43,251936
-3,-2,-2,2,3,0,-3,-3,2021-08-07 13:03:43,251936
0,2,0,1,0,1,0,-1,2021-08-07 13:03:43,251936
1,0,3,8,9,6,1,0,2021-08-07 13:03:43,251936
0,1,-2,-6,-8,-3,-1,-2,2021-08-07 13:03:43,251936
-4,-5,-5,-14,-23,-13,-7,-4,2021-08-07 13:03:43,251936
0,0,3,5,15,9,2,1,2021-08-07 13:03:43,275934
2,1,2,5,6,4,2,-1,2021-08-07 13:03:43,275934
-1,-2,-3,-3,-3,-4,-2,-1,2021-08-07 13:03:43,275934
2,1,-1,-2,-1,-1,-1,0,2021-08-07 13:03:43,275934
-3,-7,-7,-7,-15,-9,-6,-4,2021-08-07 13:03:43,291934
-1,0,1,-3,-4,2,0,-1,2021-08-07 13:03:43,291934
-2,0,1,12,17,7,3,1,2021-08-07 13:03:43,291934
-1,-2,-3,-4,0,-2,-2,-1,2021-08-07 13:03:43,291934
0,-2,-1,-6,-13,-9,-5,0,2021-08-07 13:03:43,323932
-1,-3,-4,-7,-6,-6,-5,-1,2021-08-07 13:03:43,339933
1,2,2,4,11,9,2,0,2021-08-07 13:03:43,355935
0,0,1,7,11,9,3,0,2021-08-07 13:03:43,355935
0,2,0,0,0,-2,-2,-1,2021-08-07 13:03:43,355935
-2,-2,-3,-10,-20,-11,-4,-1,2021-08-07 13:03:43,355935
-2,-3,-1,9,14,6,2,-2,2021-08-07 13:03:43,371934
-2,-1,-1,-1,-1,1,0,-2,2021-08-07 13:03:43,387934
1,3,0,1,-3,-1,0,0,2021-08-07 13:03:43,387934
0,3,3,1,4,3,1,1,2021-08-07 13:03:43,387934
-2,1,1,-2,-5,-3,-1,-1,2021-08-07 13:03:43,387934
-5,-8,-9,-7,-8,-7,-5,-3,2021-08-07 13:03:43,387934
0,0,2,0,-4,-1,0,1,2021-08-07 13:03:43,387934
4,8,6,5,11,7,2,3,2021-08-07 13:03:43,388935
-2,-2,-3,-3,2,2,0,0,2021-08-07 13:03:43,388935
-2,-2,-1,-2,-2,-4,-3,-3,2021-08-07 13:03:43,388935
-5,-9,-10,-11,-13,-9,-6,-5,2021-08-07 13:03:43,403932
1,1,4,5,5,3,3,2,2021-08-07 13:03:43,403932
-1,-2,0,-3,-7,-5,-4,0,2021-08-07 13:03:43,403932
4,5,8,15,22,14,7,4,2021-08-07 13:03:43,403932
0,0,1,1,0,0,1,-1,2021-08-07 13:03:43,419933
-3,-4,-5,1,-2,-2,-3,-3,2021-08-07 13:03:43,419933
-1,-3,-4,-10,-13,-10,-7,-4,2021-08-07 13:03:43,419933
-1,-5,-5,-6,-7,-9,-5,-2,2021-08-07 13:03:43,419933
5,8,7,1,1,4,4,5,2021-08-07 13:03:43,435933
-2,-7,-9,-2,2,-1,-1,-2,2021-08-07 13:03:43,435933
-1,0,-2,-3,-6,-4,0,-1,2021-08-07 13:03:43,435933
1,4,5,-1,-2,0,1,-1,2021-08-07 13:03:43,435933
-5,-5,-4,-4,-6,-7,-6,-5,2021-08-07 13:03:43,466933
1,3,5,9,13,8,4,1,2021-08-07 13:03:43,482936
-2,0,0,2,0,0,-1,-2,2021-08-07 13:03:43,482936
-1,-1,-1,-5,-8,-7,-4,-1,2021-08-07 13:03:43,482936
-1,-3,-6,-14,-16,-6,-5,-1,2021-08-07 13:03:43,482936
2,1,2,12,28,16,6,3,2021-08-07 13:03:43,482936
0,-2,-2,-4,-4,-3,-2,-1,2021-08-07 13:03:43,482936
3,6,4,-1,-4,0,1,3,2021-08-07 13:03:43,482936
-4,-6,-8,-11,-11,-7,-6,-5,2021-08-07 13:03:43,498935
0,0,2,4,2,3,3,2,2021-08-07 13:03:43,514932
-5,-8,-6,-3,-3,-3,-3,-3,2021-08-07 13:03:43,514932
2,3,3,-3,-9,-4,-1,2,2021-08-07 13:03:43,514932
1,1,0,3,12,8,3,1,2021-08-07 13:03:43,514932
-1,1,0,-3,-11,-7,-5,-4,2021-08-07 13:03:43,514932
2,4,6,10,19,10,4,2,2021-08-07 13:03:43,514932
-2,-1,-3,-3,-3,-3,2,0,2021-08-07 13:03:43,514932
2,-3,-4,-1,-2,2,7,2,2021-08-07 13:03:43,544936
-3,-4,-4,-9,-11,-10,-9,-4,2021-08-07 13:03:43,544936
0,-6,-2,4,7,0,-7,-2,2021-08-07 13:03:43,544936
1,6,3,1,1,-1,-2,-2,2021-08-07 13:03:43,560935
-2,2,0,4,7,2,2,1,2021-08-07 13:03:43,560935
-1,-2,-5,-13,-19,-12,-2,-4,2021-08-07 13:03:43,560935
-1,0,1,-3,-4,0,2,2,2021-08-07 13:03:43,560935
3,2,0,4,5,7,8,4,2021-08-07 13:03:43,560935
4,3,3,7,5,1,-7,-4,2021-08-07 13:03:43,576972
-8,-6,-5,-10,-13,-15,-14,-9,2021-08-07 13:03:43,592934
-3,-6,-3,-5,-7,-5,-3,-3,2021-08-07 13:03:43,592934
0,-3,-1,-1,1,4,1,2,2021-08-07 13:03:43,592934
1,3,2,3,5,6,7,1,2021-08-07 13:03:43,592934
2,0,1,5,8,5,2,0,2021-08-07 13:03:43,592934
-1,-2,-3,-4,-3,-6,-4,-3,2021-08-07 13:03:43,592934
-4,-3,-3,-12,-18,-10,-5,-1,2021-08-07 13:03:43,593934
3,4,6,12,13,8,7,7,2021-08-07 13:03:43,624960
2,3,0,-2,8,7,4,2,2021-08-07 13:03:43,640934
-3,-3,-5,-6,-9,-4,-2,-2,2021-08-07 13:03:43,640934
-7,-14,-12,-2,3,-1,-6,-7,2021-08-07 13:03:43,640934
8,14,15,6,0,-2,0,5,2021-08-07 13:03:43,640934
1,0,0,-2,-9,-8,-1,1,2021-08-07 13:03:43,640934
-4,-11,-9,-9,-10,-5,-1,-2,2021-08-07 13:03:43,640934
2,4,1,-3,-10,-4,-3,0,2021-08-07 13:03:43,640934
-4,-3,-1,6,9,4,0,-3,2021-08-07 13:03:43,656936
3,1,1,18,45,32,15,5,2021-08-07 13:03:43,656936
3,6,2,-1,-6,-6,-1,1,2021-08-07 13:03:43,656936
-5,-7,-12,-12,-9,-10,-8,-7,2021-08-07 13:03:43,656936
4,8,10,10,9,6,2,4,2021-08-07 13:03:43,672978
0,2,0,-8,-28,-14,-5,1,2021-08-07 13:03:43,672978
-11,-16,-18,-20,-28,-23,-14,-11,2021-08-07 13:03:43,672978
-3,-7,-4,1,10,14,4,-2,2021-08-07 13:03:43,672978
-5,-6,-6,8,25,11,4,-3,2021-08-07 13:03:43,698934
2,4,7,6,-1,-2,0,-1,2021-08-07 13:03:43,698934
1,4,2,-11,-16,-7,-1,0,2021-08-07 13:03:43,698934
3,1,-6,-2,-4,-5,-2,1,2021-08-07 13:03:43,698934
-4,-8,-7,-6,-11,-6,-4,-4,2021-08-07 13:03:43,719934
-7,-11,-8,-2,-1,-1,-4,-4,2021-08-07 13:03:43,735933
2,3,7,5,6,5,1,1,2021-08-07 13:03:43,751934
5,9,13,14,15,6,6,5,2021-08-07 13:03:43,751934
-2,-4,-5,-8,-1,0,-2,-2,2021-08-07 13:03:43,751934
-1,0,0,-1,-7,-7,-4,-2,2021-08-07 13:03:43,751934
3,3,2,-2,-11,-4,1,0,2021-08-07 13:03:43,751934
-3,-5,-1,5,8,4,-1,-3,2021-08-07 13:03:43,751934
0,0,0,5,6,0,1,0,2021-08-07 13:03:43,751934
-1,-2,-4,-15,-22,-13,-6,-3,2021-08-07 13:03:43,752934
-5,-6,-7,-7,-3,-1,-2,-2,2021-08-07 13:03:43,752934
8,10,15,18,21,17,11,8,2021-08-07 13:03:43,752934
2,5,7,9,8,2,0,1,2021-08-07 13:03:43,783935
1,1,-3,-4,-1,1,0,1,2021-08-07 13:03:43,783935
-7,-9,-11,-12,-17,-13,-9,-5,2021-08-07 13:03:43,783935
-2,-1,1,5,13,5,1,0,2021-08-07 13:03:43,783935
-1,0,-1,-14,-23,-7,-3,-1,2021-08-07 13:03:43,799933
2,4,5,15,22,12,4,2,2021-08-07 13:03:43,815934
0,3,2,5,10,5,3,1,2021-08-07 13:03:43,815934
-4,-4,-5,-13,-23,-15,-9,-4,2021-08-07 13:03:43,815934
-1,-4,-5,0,-3,-2,-2,-3,2021-08-07 13:03:43,815934
-5,-5,-6,-5,-2,-2,-1,-2,2021-08-07 13:03:43,815934
1,1,1,-2,-5,-2,0,-1,2021-08-07 13:03:43,815934
-1,0,1,5,9,1,-1,-1,2021-08-07 13:03:43,816934
-3,-5,-5,-11,-17,-9,-6,-3,2021-08-07 13:03:43,831934
1,-1,-1,-2,-2,-2,0,-1,2021-08-07 13:03:43,831934
4,6,6,14,23,13,7,3,2021-08-07 13:03:43,863936
-3,-5,-4,-5,-7,-5,-2,-2,2021-08-07 13:03:43,863936
-3,-2,-4,-3,-1,-3,-1,0,2021-08-07 13:03:43,863936
2,2,2,-2,-9,-5,-1,0,2021-08-07 13:03:43,863936
1,1,2,4,6,3,2,1,2021-08-07 13:03:43,863936
-2,-2,-3,-5,-8,-5,-3,-3,2021-08-07 13:03:43,863936
-8,-14,-11,-8,-9,-7,-7,-6,2021-08-07 13:03:43,878932
3,6,8,6,12,7,5,3,2021-08-07 13:03:43,894936
4,8,8,8,12,9,4,3,2021-08-07 13:03:43,894936
-2,-3,-5,-9,-19,-11,-4,-2,2021-08-07 13:03:43,894936
-2,-2,-5,-12,-14,-6,-3,-1,2021-08-07 13:03:43,894936
0,-2,1,18,34,17,5,0,2021-08-07 13:03:43,894936
2,1,2,2,5,5,2,2,2021-08-07 13:03:43,894936
3,4,5,5,12,5,1,2,2021-08-07 13:03:43,894936
-1,-2,-6,-11,-20,-12,-5,-3,2021-08-07 13:03:43,925934
-3,-5,-7,-16,-30,-19,-7,-3,2021-08-07 13:03:43,925934
-2,-3,-3,-3,4,5,1,1,2021-08-07 13:03:43,925934
2,3,5,13,23,14,8,3,2021-08-07 13:03:43,925934
1,0,2,4,4,2,2,-1,2021-08-07 13:03:43,941934
-3,-4,-4,-4,-2,0,-4,-2,2021-08-07 13:03:43,941934
-1,-1,0,1,-6,-4,-1,-2,2021-08-07 13:03:43,941934
-5,-4,-6,-18,-31,-22,-12,-4,2021-08-07 13:03:43,941934
1,0,1,-5,-6,1,1,2,2021-08-07 13:03:43,973934
-2,-1,0,10,16,6,2,-1,2021-08-07 13:03:43,973934
2,5,7,8,15,8,4,1,2021-08-07 13:03:43,973934
0,-2,0,4,7,5,0,-1,2021-08-07 13:03:43,973934
-4,-3,-3,-1,0,-3,-2,-2,2021-08-07 13:03:43,973934
0,0,-2,-15,-27,-16,-5,0,2021-08-07 13:03:43,973934
1,2,2,-1,-7,-4,-2,0,2021-08-07 13:03:43,988935
0,-2,-3,0,3,1,0,-2,2021-08-07 13:03:44,004934
-5,-5,-6,-8,-13,-13,-10,-6,2021-08-07 13:03:44,020934
-3,-5,-3,11,28,21,6,0,2021-08-07 13:03:44,036934
2,4,1,-4,-14,-11,-3,-1,2021-08-07 13:03:44,051933
4,5,8,17,23,18,10,4,2021-08-07 13:03:44,051933
-4,-4,-6,-15,-23,-15,-8,-5,2021-08-07 13:03:44,051933
0,0,0,3,8,8,2,-1,2021-08-07 13:03:44,051933
-3,-4,-5,-4,-13,-15,-7,-4,2021-08-07 13:03:44,051933
2,1,2,0,11,10,4,3,2021-08-07 13:03:44,051933
0,0,-1,-2,-12,-10,-4,0,2021-08-07 13:03:44,052935
-1,-1,1,-2,-1,5,1,1,2021-08-07 13:03:44,052935
0,-1,1,7,26,16,5,1,2021-08-07 13:03:44,052935
-1,-3,-5,-11,-17,-13,-5,-4,2021-08-07 13:03:44,052935
3,3,3,15,24,13,7,4,2021-08-07 13:03:44,052935
-2,-3,-5,-17,-31,-22,-9,-3,2021-08-07 13:03:44,052935
-7,-12,-10,-14,-17,-8,-7,-6,2021-08-07 13:03:44,052935
5,9,7,4,6,4,4,3,2021-08-07 13:03:44,052935
-2,-4,-4,-2,3,0,0,-3,2021-08-07 13:03:44,083934
2,5,7,8,5,2,2,2,2021-08-07 13:03:44,083934
1,5,2,1,1,1,0,3,2021-08-07 13:03:44,083934
-8,-11,-12,-15,-26,-19,-13,-7,2021-08-07 13:03:44,083934
1,0,3,16,35,23,9,2,2021-08-07 13:03:44,099935
0,2,3,1,-5,-5,-1,0,2021-08-07 13:03:44,099935
-4,-6,-7,-8,-15,-11,-4,-5,2021-08-07 13:03:44,115934
3,4,3,1,-1,1,2,2,2021-08-07 13:03:44,115934
1,1,4,20,45,23,9,4,2021-08-07 13:03:44,115934
-2,-2,-6,-6,-6,-2,-1,-2,2021-08-07 13:03:44,115934
1,2,2,8,8,5,1,3,2021-08-07 13:03:44,115934
-3,-4,-4,-9,-24,-18,-7,-3,2021-08-07 13:03:44,115934
-1,-3,-2,-5,-3,1,-2,-1,2021-08-07 13:03:44,130936
-2,-4,-3,1,1,-1,-2,-3,2021-08-07 13:03:44,130936
0,-2,-2,-4,-7,-2,0,-1,2021-08-07 13:03:44,162933
9,18,16,5,-4,1,4,8,2021-08-07 13:03:44,178932
1,-1,-1,1,2,1,2,2,2021-08-07 13:03:44,194935
-1,2,1,7,13,9,4,0,2021-08-07 13:03:44,194935
0,1,1,0,6,1,-3,-1,2021-08-07 13:03:44,194935
-9,-12,-11,-6,-2,-5,-9,-9,2021-08-07 13:03:44,194935
0,4,2,-10,-20,-12,-6,-2,2021-08-07 13:03:44,194935
2,2,3,-3,-9,-4,0,2,2021-08-07 13:03:44,194935
2,2,3,14,22,16,11,6,2021-08-07 13:03:44,194935
-1,-4,0,7,16,11,0,0,2021-08-07 13:03:44,195934
0,0,-1,-8,-16,-12,-8,-1,2021-08-07 13:03:44,195934
-7,-10,-10,-13,-17,-16,-10,-8,2021-08-07 13:03:44,195934
1,0,-2,-8,-15,-6,-1,0,2021-08-07 13:03:44,195934
2,1,2,3,17,14,8,2,2021-08-07 13:03:44,195934
-4,-2,-3,-1,-12,-8,-5,-4,2021-08-07 13:03:44,225934
-1,-1,0,-1,-5,-2,-1,-2,2021-08-07 13:03:44,241934
1,3,5,12,21,13,8,3,2021-08-07 13:03:44,241934
-5,-7,-7,-12,-19,-12,-8,-6,2021-08-07 13:03:44,241934
-2,0,-1,-5,2,0,-2,-3,2021-08-07 13:03:44,241934
3,2,0,-3,-2,-2,1,2,2021-08-07 13:03:44,241934
-3,-6,-8,-6,-6,-3,-2,-4,2021-08-07 13:03:44,257934
3,2,2,5,9,9,8,5,2021-08-07 13:03:44,273934
-6,-8,-7,0,1,-1,-4,-3,2021-08-07 13:03:44,289934
1,9,11,0,-12,-7,-3,1,2021-08-07 13:03:44,305933
-5,-8,-9,-8,-16,-9,-7,-6,2021-08-07 13:03:44,337959
2,5,6,7,14,6,4,2,2021-08-07 13:03:44,337959
3,0,1,1,1,3,3,2,2021-08-07 13:03:44,337959
-1,-3,-3,4,13,7,3,-1,2021-08-07 13:03:44,337959
-1,0,-3,-3,-2,-3,-4,-1,2021-08-07 13:03:44,337959
-5,-5,-6,-8,-16,-12,-8,-6,2021-08-07 13:03:44,338961
3,3,3,2,-3,-1,2,2,2021-08-07 13:03:44,338961
-1,-4,-6,-11,-20,-9,-4,-1,2021-08-07 13:03:44,338961
-1,-1,2,9,28,16,3,-1,2021-08-07 13:03:44,338961
-2,-1,-1,6,5,0,0,0,2021-08-07 13:03:44,338961
5,8,7,5,3,4,5,4,2021-08-07 13:03:44,338961
-1,-2,-3,-4,-7,-6,-4,-4,2021-08-07 13:03:44,339961
-4,-5,-5,-10,-22,-15,-8,-5,2021-08-07 13:03:44,339961
-4,-6,-7,-7,4,2,-2,-2,2021-08-07 13:03:44,339961
7,11,12,19,32,21,13,6,2021-08-07 13:03:44,339961
1,5,4,10,26,13,5,2,2021-08-07 13:03:44,339961
0,-1,-1,-8,-12,-7,-2,0,2021-08-07 13:03:44,339961
1,0,0,-3,-8,-3,-3,0,2021-08-07 13:03:44,339961
0,-1,0,-2,-10,-8,-3,-1,2021-08-07 13:03:44,368958
-2,0,-2,-1,-3,0,-2,0,2021-08-07 13:03:44,368958
0,-1,1,1,-1,-2,0,-1,2021-08-07 13:03:44,368958
-6,-8,-10,-12,-16,-8,-6,-4,2021-08-07 13:03:44,368958
-4,-4,-3,-4,-2,-2,-3,-3,2021-08-07 13:03:44,384959
1,3,3,4,7,4,2,3,2021-08-07 13:03:44,384959
-2,1,1,2,6,3,1,0,2021-08-07 13:03:44,384959
2,6,3,2,-3,0,3,0,2021-08-07 13:03:44,384959
-3,-3,-5,-8,-8,-5,-3,-1,2021-08-07 13:03:44,400961
-3,-5,-2,1,1,-1,-3,-1,2021-08-07 13:03:44,400961
-1,-4,-6,-7,-5,-2,-2,-1,2021-08-07 13:03:44,400961
2,3,3,6,14,4,2,2,2021-08-07 13:03:44,400961
-5,-3,-5,-2,-6,-3,-3,-2,2021-08-07 13:03:44,416961
4,7,7,3,-1,1,1,3,2021-08-07 13:03:44,416961
-2,-1,-2,-6,-13,-9,-5,-2,2021-08-07 13:03:44,432961
0,0,-1,-5,-3,-2,0,-1,2021-08-07 13:03:44,432961
2,2,2,2,-1,2,1,3,2021-08-07 13:03:44,448961
-5,-8,-7,-4,0,-3,-3,-3,2021-08-07 13:03:44,464961
-2,4,4,14,15,8,1,-3,2021-08-07 13:03:44,480960
-3,-6,-5,-1,-7,-6,-1,0,2021-08-07 13:03:44,480960
-2,-4,-6,-26,-33,-21,-11,-2,2021-08-07 13:03:44,480960
-1,-3,-3,-3,2,3,-1,-2,2021-08-07 13:03:44,480960
5,5,8,11,14,9,3,2,2021-08-07 13:03:44,480960
0,-1,2,5,7,5,1,-1,2021-08-07 13:03:44,480960
-1,-1,1,-2,0,-1,-1,-1,2021-08-07 13:03:44,481959
-4,-7,-8,-15,-24,-15,-7,-5,2021-08-07 13:03:44,481959
1,2,2,5,12,9,3,2,2021-08-07 13:03:44,481959
2,5,8,16,17,11,5,3,2021-08-07 13:03:44,481959
-3,-5,-4,-2,-2,-2,-1,-3,2021-08-07 13:03:44,512960
1,1,1,3,-1,-3,-1,-1,2021-08-07 13:03:44,512960
-3,-3,-1,2,5,-1,-1,-2,2021-08-07 13:03:44,512960
-1,1,-2,-8,-8,-5,-4,-2,2021-08-07 13:03:44,512960
-2,-3,-3,-14,-22,-10,-4,-4,2021-08-07 13:03:44,512960
-4,-5,-3,5,10,4,-1,-2,2021-08-07 13:03:44,512960
5,4,4,9,11,6,3,4,2021-08-07 13:03:44,529216
-2,0,-1,-11,-20,-14,-7,-2,2021-08-07 13:03:44,544475
6,7,8,19,29,20,11,6,2021-08-07 13:03:44,550475
-4,-4,-6,-4,-4,-4,-2,-3,2021-08-07 13:03:44,550475
-6,-10,-11,-13,-14,-11,-6,-5,2021-08-07 13:03:44,551476
2,6,4,0,2,1,0,-1,2021-08-07 13:03:44,551476
0,3,5,4,1,-2,-1,-1,2021-08-07 13:03:44,560475
-2,-4,-5,-4,-4,0,-2,-2,2021-08-07 13:03:44,575473
3,3,4,1,-4,0,2,4,2021-08-07 13:03:44,591475
-5,-8,-11,-15,-19,-11,-8,-3,2021-08-07 13:03:44,591475
2,3,3,17,19,8,4,2,2021-08-07 13:03:44,591475
1,2,3,8,14,11,5,2,2021-08-07 13:03:44,591475
-4,-4,-8,-19,-29,-20,-11,-4,2021-08-07 13:03:44,591475
-1,-3,-1,0,-5,-1,-2,-1,2021-08-07 13:03:44,591475
-3,-5,-6,0,12,7,1,-3,2021-08-07 13:03:44,592475
5,8,9,9,11,6,4,4,2021-08-07 13:03:44,592475
-1,0,-2,-3,-4,-3,-1,-1,2021-08-07 13:03:44,623477
-1,-2,-2,-4,-5,-5,-2,-2,2021-08-07 13:03:44,623477
-4,-5,-7,-7,-11,-6,-5,-4,2021-08-07 13:03:44,623477
-4,-3,-3,-7,-13,-10,-6,-3,2021-08-07 13:03:44,623477
-2,-3,-2,-7,-8,-1,0,-2,2021-08-07 13:03:44,623477
-2,-4,-3,4,11,7,2,-2,2021-08-07 13:03:44,623477
2,0,2,-2,2,2,3,2,2021-08-07 13:03:44,639477
-1,2,-1,5,7,4,1,-1,2021-08-07 13:03:44,639477
6,8,8,-4,-11,-7,-1,3,2021-08-07 13:03:44,639477
-4,-6,-4,0,0,0,-1,-3,2021-08-07 13:03:44,639477
-1,-1,1,3,6,7,2,0,2021-08-07 13:03:44,655476
-5,-9,-13,-15,-12,-6,-4,-4,2021-08-07 13:03:44,655476
1,0,3,6,11,4,1,1,2021-08-07 13:03:44,655476
2,6,4,-4,-7,-3,0,1,2021-08-07 13:03:44,655476
-2,-1,0,-3,-10,-9,-4,-3,2021-08-07 13:03:44,687474
0,-3,-3,-9,-14,-6,-2,-1,2021-08-07 13:03:44,702475
-2,-5,-3,3,10,7,0,-2,2021-08-07 13:03:44,718475
-1,1,3,5,7,1,-1,0,2021-08-07 13:03:44,718475
3,3,3,1,-1,-1,1,2,2021-08-07 13:03:44,718475
-3,-6,-4,-1,6,-1,-2,-1,2021-08-07 13:03:44,718475
-5,-6,-7,-13,-24,-15,-9,-4,2021-08-07 13:03:44,718475
1,-1,0,3,3,2,2,1,2021-08-07 13:03:44,718475
3,7,5,11,12,6,2,3,2021-08-07 13:03:44,719476
-5,-7,-6,-13,-17,-11,-6,-6,2021-08-07 13:03:44,719476
7,12,11,9,14,13,9,6,2021-08-07 13:03:44,719476
2,2,2,2,0,-1,1,2,2021-08-07 13:03:44,719476
-8,-10,-11,-14,-25,-18,-9,-8,2021-08-07 13:03:44,750474
3,3,7,20,36,23,9,3,2021-08-07 13:03:44,766475
-2,2,0,-2,-3,-3,-3,0,2021-08-07 13:03:44,782474
-3,-4,-5,-13,-17,-7,-5,-3,2021-08-07 13:03:44,782474
2,6,7,10,9,2,3,2,2021-08-07 13:03:44,782474
-3,-1,-2,-1,-7,0,-3,-2,2021-08-07 13:03:44,782474
-2,-4,-2,5,10,3,2,-1,2021-08-07 13:03:44,798473
2,1,1,2,5,4,2,2,2021-08-07 13:03:44,798473
-3,-6,-5,0,-2,-4,-1,-2,2021-08-07 13:03:44,798473
-3,-1,-2,-11,-23,-14,-5,-5,2021-08-07 13:03:44,798473
0,1,2,10,23,14,5,0,2021-08-07 13:03:44,798473
1,4,5,7,2,1,1,-1,2021-08-07 13:03:44,798473
-2,-3,-4,-10,-10,-1,-4,-2,2021-08-07 13:03:44,798473
3,1,1,-1,-12,-7,-2,1,2021-08-07 13:03:44,798473
-1,-4,-4,-3,-1,4,1,0,2021-08-07 13:03:44,799476
4,2,5,15,30,17,12,7,2021-08-07 13:03:44,799476
-5,-10,-11,-10,-6,-5,-7,-6,2021-08-07 13:03:44,814475
0,6,7,5,6,-8,-11,-7,2021-08-07 13:03:44,830475
-8,-6,-6,-14,-24,-18,-14,-11,2021-08-07 13:03:44,830475
0,1,0,3,14,11,6,4,2021-08-07 13:03:44,830475
2,2,3,0,-6,0,6,5,2021-08-07 13:03:44,830475
2,-2,-4,-7,1,4,4,1,2021-08-07 13:03:44,830475
4,1,-1,4,7,3,5,2,2021-08-07 13:03:44,846473
-5,-6,-4,-11,-19,-13,-9,-6,2021-08-07 13:03:44,846473
-8,-11,-9,10,31,11,-4,-7,2021-08-07 13:03:44,862475
6,10,11,8,10,8,7,7,2021-08-07 13:03:44,862475
1,3,1,-6,-10,-5,-2,2,2021-08-07 13:03:44,878475
0,0,-1,-4,-11,-6,0,1,2021-08-07 13:03:44,878475
-1,-3,-8,-11,-7,1,3,1,2021-08-07 13:03:44,878475
-2,-1,2,7,5,3,0,-1,2021-08-07 13:03:44,878475
2,4,3,2,2,-1,-3,0,2021-08-07 13:03:44,878475
-1,-2,-1,-2,-3,-4,-3,-2,2021-08-07 13:03:44,878475
-5,-3,-3,-9,-12,-9,-7,-4,2021-08-07 13:03:44,909476
-2,-1,-4,-9,-9,-3,0,0,2021-08-07 13:03:44,925475
3,3,5,8,8,7,8,6,2021-08-07 13:03:44,925475
-2,-2,-1,-2,-1,-1,-2,-2,2021-08-07 13:03:44,925475
-2,-5,-4,-11,-21,-15,-9,-6,2021-08-07 13:03:44,941474
-2,-1,0,4,15,14,8,3,2021-08-07 13:03:44,941474
-1,1,-1,-2,-6,-5,-3,-4,2021-08-07 13:03:44,957474
0,-1,-1,-7,-12,-7,-5,-3,2021-08-07 13:03:44,957474
0,1,2,7,28,20,7,2,2021-08-07 13:03:44,957474
-3,-7,-7,-6,-14,-10,-6,-2,2021-08-07 13:03:44,957474
2,3,5,10,12,4,2,2,2021-08-07 13:03:44,957474
1,2,3,9,11,6,3,-2,2021-08-07 13:03:44,957474
-4,-8,-6,-10,-21,-15,-6,-5,2021-08-07 13:03:44,957474
-6,-7,-9,-19,-25,-17,-7,-4,2021-08-07 13:03:44,957474
1,2,2,5,17,11,4,3,2021-08-07 13:03:44,957474
1,1,2,2,-3,-2,0,1,2021-08-07 13:03:44,958474
4,7,5,10,12,8,3,1,2021-08-07 13:03:44,985475
-1,-5,-3,4,12,7,1,-1,2021-08-07 13:03:44,985475
-5,-8,-7,-12,-20,-13,-5,-5,2021-08-07 13:03:44,985475
-3,-2,-2,0,1,1,-1,-2,2021-08-07 13:03:44,985475
4,3,3,4,2,2,3,5,2021-08-07 13:03:45,004475
6,8,7,0,1,0,2,2,2021-08-07 13:03:45,020474
-1,-2,-3,-7,-6,-4,-3,-1,2021-08-07 13:03:45,036476
0,0,-1,-1,2,-2,-1,-1,2021-08-07 13:03:45,036476
-2,-2,-3,-9,-13,-8,-3,-4,2021-08-07 13:03:45,036476
-2,-3,-3,-2,-12,-8,-4,-2,2021-08-07 13:03:45,036476
2,1,4,20,27,13,5,2,2021-08-07 13:03:45,036476
-1,2,0,-4,-8,-4,-2,0,2021-08-07 13:03:45,036476
3,2,1,1,6,3,2,2,2021-08-07 13:03:45,037475
0,-2,-3,-12,-15,-11,-5,0,2021-08-07 13:03:45,037475
-5,-8,-8,-5,3,2,1,-3,2021-08-07 13:03:45,037475
-3,-3,-3,2,0,1,0,-1,2021-08-07 13:03:45,037475
0,2,3,2,1,-2,-2,-2,2021-08-07 13:03:45,068475
0,2,4,1,-2,0,0,-2,2021-08-07 13:03:45,084475
0,0,-3,-5,-5,-2,-2,-1,2021-08-07 13:03:45,084475
0,1,-1,-5,-6,-3,-3,-1,2021-08-07 13:03:45,084475
2,3,2,0,0,-2,0,3,2021-08-07 13:03:45,084475
-3,-5,-6,-4,-2,-4,-4,-3,2021-08-07 13:03:45,084475
0,-3,-1,2,6,3,1,1,2021-08-07 13:03:45,084475
1,0,2,0,2,0,0,0,2021-08-07 13:03:45,084475
-3,0,-1,-3,-5,-3,-1,-2,2021-08-07 13:03:45,100477
-1,0,-1,1,1,-1,0,-2,2021-08-07 13:03:45,100477
-3,-6,-6,-12,-21,-16,-6,-5,2021-08-07 13:03:45,100477
2,2,1,-2,1,3,1,0,2021-08-07 13:03:45,100477
-2,1,0,-1,1,0,-1,0,2021-08-07 13:03:45,132478
1,1,0,2,6,3,0,-1,2021-08-07 13:03:45,132478
-4,-4,-5,-13,-21,-13,-8,-3,2021-08-07 13:03:45,132478
2,1,2,19,33,18,8,3,2021-08-07 13:03:45,132478
-2,0,-2,2,1,0,0,-2,2021-08-07 13:03:45,132478
-8,-12,-12,-8,-1,0,-2,-6,2021-08-07 13:03:45,132478
6,8,7,2,0,1,2,4,2021-08-07 13:03:45,133474
1,3,1,-6,-14,-8,-4,0,2021-08-07 13:03:45,133474
5,9,10,8,6,5,4,3,2021-08-07 13:03:45,164476
0,0,-2,3,3,1,1,1,2021-08-07 13:03:45,164476
-5,-7,-6,-7,-8,-3,-3,-4,2021-08-07 13:03:45,164476
-2,-1,-3,-5,-3,-2,-1,-1,2021-08-07 13:03:45,164476
-1,-1,-1,1,2,2,0,0,2021-08-07 13:03:45,196473
-4,-6,-4,-1,-3,-3,-2,-3,2021-08-07 13:03:45,196473
2,4,3,2,4,4,3,3,2021-08-07 13:03:45,212476
1,0,0,0,0,-1,-1,0,2021-08-07 13:03:45,228475
-3,-4,-5,-8,-9,-7,-4,-3,2021-08-07 13:03:45,228475
-2,-3,-1,2,4,0,-1,0,2021-08-07 13:03:45,228475
5,8,7,6,8,7,6,5,2021-08-07 13:03:45,228475
-1,-1,-1,1,5,0,0,-1,2021-08-07 13:03:45,228475
0,-1,1,-2,-9,-6,-3,0,2021-08-07 13:03:45,228475
1,3,-1,-3,-4,-3,-1,-1,2021-08-07 13:03:45,228475
-2,-3,-1,-1,1,3,0,-2,2021-08-07 13:03:45,229475
0,2,1,11,14,5,3,0,2021-08-07 13:03:45,229475
-2,-4,-3,-6,-4,-2,-2,-2,2021-08-07 13:03:45,260475
-1,0,-1,-1,-1,0,1,-2,2021-08-07 13:03:45,260475
-6,-9,-10,-12,-13,-11,-7,-5,2021-08-07 13:03:45,260475
3,5,7,4,4,2,3,3,2021-08-07 13:03:45,260475
0,0,2,2,-2,-1,-1,-1,2021-08-07 13:03:45,260475
-1,-1,-2,-7,-13,-9,-5,-3,2021-08-07 13:03:45,260475
0,-1,0,10,15,9,4,-1,2021-08-07 13:03:45,261475
-5,-7,-6,-7,-2,-1,-2,-4,2021-08-07 13:03:45,261475
0,1,0,2,4,1,1,0,2021-08-07 13:03:45,292496
3,3,5,6,9,4,3,4,2021-08-07 13:03:45,292496
-4,-4,-6,-16,-30,-21,-8,-4,2021-08-07 13:03:45,292496
2,2,5,18,30,20,9,2,2021-08-07 13:03:45,292496
-2,-4,-2,-3,-1,-1,-1,-3,2021-08-07 13:03:45,308514
0,1,-1,-2,-2,-1,-1,2,2021-08-07 13:03:45,308514
-3,-5,-7,-2,3,0,0,-1,2021-08-07 13:03:45,308514
-2,-4,-4,-8,-15,-10,-3,-3,2021-08-07 13:03:45,308514
-2,2,0,-3,-8,-5,-2,-1,2021-08-07 13:03:45,324473
4,7,8,9,10,6,2,3,2021-08-07 13:03:45,340475
1,2,3,3,5,3,1,1,2021-08-07 13:03:45,340475
-5,-8,-8,-7,-9,-7,-5,-4,2021-08-07 13:03:45,340475
-4,-6,-7,-5,-2,-5,-4,-4,2021-08-07 13:03:45,340475
-1,0,0,-4,-12,-8,-4,0,2021-08-07 13:03:45,340475
1,2,3,1,8,9,4,2,2021-08-07 13:03:45,340475
-1,-2,-2,-8,-10,-6,-3,0,2021-08-07 13:03:45,340475
1,2,3,8,13,8,4,2,2021-08-07 13:03:45,371475
-6,-11,-12,-11,-11,-8,-8,-6,2021-08-07 13:03:45,387475
4,7,7,6,5,5,4,3,2021-08-07 13:03:45,387475
1,2,1,4,4,4,2,1,2021-08-07 13:03:45,387475
-2,-3,-4,-9,-13,-9,-4,-1,2021-08-07 13:03:45,387475
-3,-4,-1,2,6,2,1,-2,2021-08-07 13:03:45,387475
1,3,4,9,10,2,-1,1,2021-08-07 13:03:45,387475
0,2,0,5,11,6,1,2,2021-08-07 13:03:45,387475
-2,-4,-4,-3,-5,-4,-2,-3,2021-08-07 13:03:45,403475
-1,-4,-3,-5,-4,-1,1,-1,2021-08-07 13:03:45,410475
-5,-9,-8,-10,-12,-9,-6,-5,2021-08-07 13:03:45,411475
5,8,7,1,-3,-1,1,1,2021-08-07 13:03:45,411475
1,2,0,0,0,1,-1,0,2021-08-07 13:03:45,434475
1,3,3,1,3,3,1,-1,2021-08-07 13:03:45,450475
-3,-4,-5,-4,-2,-1,-1,-2,2021-08-07 13:03:45,466474
-3,-5,-3,-5,-8,-4,-2,-1,2021-08-07 13:03:45,466474
-2,-2,-2,-12,-23,-16,-7,-3,2021-08-07 13:03:45,482475
5,6,7,12,19,18,10,4,2021-08-07 13:03:45,482475
-2,-2,-1,2,9,5,2,-2,2021-08-07 13:03:45,482475
-4,-6,-7,-7,-3,-2,-2,-2,2021-08-07 13:03:45,482475
2,3,5,5,3,1,1,1,2021-08-07 13:03:45,482475
-2,-2,-2,0,1,0,-2,0,2021-08-07 13:03:45,482475
1,2,0,0,-4,-3,-2,0,2021-08-07 13:03:45,482475
-2,-7,-7,-14,-22,-12,-7,-3,2021-08-07 13:03:45,483475
1,0,2,6,17,9,5,2,2021-08-07 13:03:45,483475
-1,0,-2,2,1,0,0,-2,2021-08-07 13:03:45,483475
-3,-6,-4,0,-4,-4,-4,-3,2021-08-07 13:03:45,483475
2,4,4,-2,-8,-2,5,3,2021-08-07 13:03:45,483475
3,2,1,-1,-1,4,3,2,2021-08-07 13:03:45,498473
1,-1,-1,2,12,5,-4,-2,2021-08-07 13:03:45,498473
-8,-9,-5,1,0,-7,-12,-9,2021-08-07 13:03:45,498473
-4,-3,-3,-4,-2,-4,-6,-5,2021-08-07 13:03:45,498473
-1,-5,-3,-4,-8,-1,3,2,2021-08-07 13:03:45,513475
3,6,4,2,3,4,7,3,2021-08-07 13:03:45,513475
6,7,4,-2,-5,-1,1,2,2021-08-07 13:03:45,529474
-2,-4,-3,7,12,3,0,-1,2021-08-07 13:03:45,529474
0,1,2,1,4,4,4,0,2021-08-07 13:03:45,545473
-1,-2,-1,-4,-7,-3,-1,0,2021-08-07 13:03:45,545473
1,1,-1,-3,-10,-3,-2,1,2021-08-07 13:03:45,545473
-4,-3,-2,-6,-6,-5,-6,-4,2021-08-07 13:03:45,545473
-6,-7,-4,-3,4,-1,-3,-5,2021-08-07 13:03:45,561475
2,6,5,5,2,1,3,4,2021-08-07 13:03:45,576474
3,4,3,6,11,6,6,2,2021-08-07 13:03:45,576474
2,2,2,5,6,2,2,0,2021-08-07 13:03:45,576474
-5,-4,-2,-2,-6,-7,-6,-6,2021-08-07 13:03:45,576474
0,-1,-1,-2,3,1,0,-2,2021-08-07 13:03:45,576474
-2,-3,-2,-10,-21,-13,-4,-2,2021-08-07 13:03:45,576474
2,0,0,5,15,12,3,3,2021-08-07 13:03:45,576474
4,2,4,9,15,7,1,1,2021-08-07 13:03:45,608475
-4,-4,-5,-6,-9,-7,-5,-4,2021-08-07 13:03:45,608475
-1,0,-1,-5,-4,-2,-1,0,2021-08-07 13:03:45,624475
0,-1,0,2,7,4,3,1,2021-08-07 13:03:45,640474
-1,-3,-3,1,5,-2,-2,-2,2021-08-07 13:03:45,656474
-1,0,1,3,0,-2,-1,0,2021-08-07 13:03:45,656474
0,0,-1,0,-1,0,0,0,2021-08-07 13:03:45,656474
-2,-1,-3,-10,-10,-4,0,-1,2021-08-07 13:03:45,656474
-1,0,-1,-1,1,2,0,-1,2021-08-07 13:03:45,656474
-2,-3,1,-2,-6,-5,-4,-1,2021-08-07 13:03:45,656474
-2,-2,-2,-8,-11,-6,-3,0,2021-08-07 13:03:45,657478
0,0,1,4,1,-2,-1,-1,2021-08-07 13:03:45,657478
1,1,-1,3,7,5,1,1,2021-08-07 13:03:45,657478
-3,-4,-3,-4,-8,-6,-4,-3,2021-08-07 13:03:45,657478
-1,-2,-3,-5,-4,-2,-1,0,2021-08-07 13:03:45,657478
2,2,3,4,9,5,3,1,2021-08-07 13:03:45,657478
-2,-1,-2,-2,-3,-3,-3,0,2021-08-07 13:03:45,688474
-3,-3,-5,-7,-10,-9,-5,-3,2021-08-07 13:03:45,688474
-4,-10,-11,-9,-3,3,2,-2,2021-08-07 13:03:45,688474
5,9,12,16,14,7,2,4,2021-08-07 13:03:45,688474
1,5,4,4,4,4,2,3,2021-08-07 13:03:45,704475
4,4,3,5,5,1,1,2,2021-08-07 13:03:45,704475
2,4,4,3,2,-3,-2,0,2021-08-07 13:03:45,704475
-5,-9,-8,-6,-2,-1,-3,-3,2021-08-07 13:03:45,704475
-3,-3,-3,-4,-4,-3,-2,-3,2021-08-07 13:03:45,720474
-4,-5,-7,-9,-7,-6,-3,-3,2021-08-07 13:03:45,736473
-2,-1,-2,0,-3,-2,-2,-1,2021-08-07 13:03:45,736473
-3,-3,-5,-17,-35,-19,-8,-4,2021-08-07 13:03:45,752474
3,4,5,11,15,12,5,3,2021-08-07 13:03:45,752474
-3,-5,-3,2,4,1,-1,-3,2021-08-07 13:03:45,752474
-1,-1,1,4,7,4,2,-1,2021-08-07 13:03:45,752474
2,3,3,0,2,2,1,0,2021-08-07 13:03:45,752474
-5,-7,-11,-16,-17,-13,-7,-5,2021-08-07 13:03:45,752474
1,2,4,2,3,4,1,-1,2021-08-07 13:03:45,753477
2,5,4,7,7,3,3,1,2021-08-07 13:03:45,753477
-7,-7,-7,-4,-8,-9,-6,-6,2021-08-07 13:03:45,753477
1,1,0,3,1,3,2,1,2021-08-07 13:03:45,784474
4,6,3,-6,-4,-1,1,1,2021-08-07 13:03:45,799476
-2,-2,0,-1,-2,-1,-2,0,2021-08-07 13:03:45,799476
2,4,4,-5,-6,-1,1,1,2021-08-07 13:03:45,799476
-1,-3,-3,10,18,6,0,-1,2021-08-07 13:03:45,799476
1,2,-1,5,13,7,2,1,2021-08-07 13:03:45,799476
1,2,6,4,3,-1,-2,1,2021-08-07 13:03:45,799476
-3,-4,-6,-9,-10,-6,-4,-2,2021-08-07 13:03:45,799476
-3,-5,-3,-13,-23,-10,-5,-2,2021-08-07 13:03:45,815473
1,2,3,11,21,12,6,3,2021-08-07 13:03:45,815473
1,-1,-2,6,11,8,4,0,2021-08-07 13:03:45,815473
-5,-4,-3,1,1,-1,-2,-4,2021-08-07 13:03:45,815473
-5,-4,-5,-14,-17,-13,-7,-4,2021-08-07 13:03:45,838476
-3,-1,1,4,-3,-2,-4,-3,2021-08-07 13:03:45,838476
1,3,3,7,18,14,4,3,2021-08-07 13:03:45,838476
1,-3,-3,2,0,-1,0,0,2021-08-07 13:03:45,838476
-3,0,-2,-2,-5,-4,-2,-2,2021-08-07 13:03:45,863474
-1,-2,-5,-10,-8,-6,-3,-1,2021-08-07 13:03:45,863474
1,2,0,-2,-2,0,0,1,2021-08-07 13:03:45,863474
-1,-1,-2,-5,-14,-9,-4,-2,2021-08-07 13:03:45,863474
-2,-1,1,2,9,4,3,-1,2021-08-07 13:03:45,879475
0,0,-2,3,0,0,0,-2,2021-08-07 13:03:45,879475
-4,-4,-8,-13,-22,-17,-7,-6,2021-08-07 13:03:45,879475
-3,-3,-3,-1,8,11,4,1,2021-08-07 13:03:45,879475
1,5,6,7,8,5,2,2,2021-08-07 13:03:45,910512
1,5,5,7,13,5,4,1,2021-08-07 13:03:45,910512
1,0,0,1,0,0,0,1,2021-08-07 13:03:45,910512
-2,-2,-4,-5,-4,-6,-2,-3,2021-08-07 13:03:45,910512
-4,-6,-7,-12,-18,-13,-10,-4,2021-08-07 13:03:45,926513
2,2,4,11,14,11,5,4,2021-08-07 13:03:45,942511
-2,0,-1,0,-2,-2,1,-2,2021-08-07 13:03:45,942511
-1,-2,-1,0,1,-2,-3,0,2021-08-07 13:03:45,958512
3,1,1,2,5,5,3,0,2021-08-07 13:03:45,974510
-4,-7,-8,-18,-28,-15,-7,-5,2021-08-07 13:03:45,974510
0,0,2,8,17,9,2,0,2021-08-07 13:03:45,974510
1,2,2,3,4,2,2,-1,2021-08-07 13:03:45,974510
2,1,2,5,12,5,3,0,2021-08-07 13:03:45,974510
-4,-3,-6,-12,-23,-14,-6,-2,2021-08-07 13:03:45,974510
0,-1,-1,2,7,5,1,0,2021-08-07 13:03:45,975511
0,0,0,3,6,4,0,-1,2021-08-07 13:03:45,975511
-2,-2,-5,-15,-28,-17,-8,-2,2021-08-07 13:03:45,990511
-2,-3,0,0,2,0,-2,-2,2021-08-07 13:03:45,990511
2,4,6,13,25,16,6,4,2021-08-07 13:03:45,990511
-2,-2,-3,2,1,-2,-2,0,2021-08-07 13:03:45,990511
3,7,8,10,12,10,8,4,2021-08-07 13:03:46,006512
-2,-3,-5,-8,-12,-5,-4,-3,2021-08-07 13:03:46,006512
-2,-4,-6,-9,-13,-8,-6,-2,2021-08-07 13:03:46,006512
3,6,6,3,11,6,4,3,2021-08-07 13:03:46,006512
-3,-5,-5,-5,-4,-4,-4,-5,2021-08-07 13:03:46,022511
-1,-1,-1,-3,-6,-3,0,0,2021-08-07 13:03:46,022511
2,5,5,3,2,1,2,2,2021-08-07 13:03:46,022511
-5,-5,-7,-8,-12,-7,-5,-4,2021-08-07 13:03:46,037511
1,2,4,9,12,5,2,3,2021-08-07 13:03:46,052510
-3,-5,-4,-6,-4,0,-2,-3,2021-08-07 13:03:46,052510
1,1,2,9,4,-1,0,2,2021-08-07 13:03:46,052510
0,0,1,-1,-6,-2,-1,1,2021-08-07 13:03:46,052510
1,-5,-2,-10,-15,-5,4,3,2021-08-07 13:03:46,052510
-2,-2,-1,3,10,4,-5,-4,2021-08-07 13:03:46,052510
-4,-4,0,0,7,-3,-9,-7,2021-08-07 13:03:46,068511
6,6,6,10,12,11,15,13,2021-08-07 13:03:46,068511
3,3,-1,-2,-7,-1,2,2,2021-08-07 13:03:46,084510
-12,-8,-7,-7,-9,-13,-17,-13,2021-08-07 13:03:46,084510
-12,-11,-13,-19,-29,-21,-14,-13,2021-08-07 13:03:46,084510
-1,1,2,1,-4,-6,-5,-3,2021-08-07 13:03:46,084510
0,-1,1,3,10,5,1,1,2021-08-07 13:03:46,115029
0,-2,-2,-1,-2,4,10,4,2021-08-07 13:03:46,131029
0,-3,-3,-8,-10,-2,-2,-2,2021-08-07 13:03:46,131029
0,0,0,-4,-8,-6,-4,-1,2021-08-07 13:03:46,131029
5,4,3,4,2,6,8,7,2021-08-07 13:03:46,131029
7,9,11,10,5,5,3,5,2021-08-07 13:03:46,131029
0,-3,-1,3,1,3,4,1,2021-08-07 13:03:46,131029
-4,-4,-5,-12,-11,-4,-1,-3,2021-08-07 13:03:46,132031
-4,-6,-4,-5,-8,-4,-5,-3,2021-08-07 13:03:46,147031
4,2,4,17,24,17,15,7,2021-08-07 13:03:46,147031
23,17,17,28,42,54,67,44,2021-08-07 13:03:46,147031
18,7,2,4,11,14,5,8,2021-08-07 13:03:46,147031
-33,-16,-13,-19,-37,-73,-95,-60,2021-08-07 13:03:46,195065
-14,-15,-13,-21,-25,-7,25,6,2021-08-07 13:03:46,211064
21,4,2,0,4,24,25,12,2021-08-07 13:03:46,211064
-12,0,2,1,-8,-48,-77,-38,2021-08-07 13:03:46,211064
-33,-18,-10,-11,-9,5,47,8,2021-08-07 13:03:46,212068
39,20,8,0,0,20,21,23,2021-08-07 13:03:46,212068
-17,-2,0,7,4,-33,-58,-31,2021-08-07 13:03:46,212068
-40,-18,-7,-9,-14,-13,-2,-15,2021-08-07 13:03:46,212068
-2,-6,-2,-1,-6,8,-1,-7,2021-08-07 13:03:46,212068
26,9,2,-10,-12,23,47,29,2021-08-07 13:03:46,212068
34,22,22,35,59,59,54,48,2021-08-07 13:03:46,212068
-19,-14,-8,-1,4,-15,-27,-14,2021-08-07 13:03:46,212068
0,10,6,4,4,-11,-22,-2,2021-08-07 13:03:46,227065
-28,-16,-13,-26,-44,-34,-22,-20,2021-08-07 13:03:46,243064
20,3,3,14,28,37,29,10,2021-08-07 13:03:46,243064
8,5,5,7,5,11,11,2,2021-08-07 13:03:46,243064
-4,0,-3,-6,-9,-25,-18,-15,2021-08-07 13:03:46,243064
14,10,3,4,12,26,25,15,2021-08-07 13:03:46,243064
-19,-8,-8,-20,-25,-34,-41,-19,2021-08-07 13:03:46,243064
-3,-4,-5,-8,-17,-36,-27,-15,2021-08-07 13:03:46,244067
7,-15,-18,-9,6,28,31,15,2021-08-07 13:03:46,275063
-2,14,15,18,20,-8,-35,-17,2021-08-07 13:03:46,275063
-31,-16,-17,-26,-49,-42,-23,-23,2021-08-07 13:03:46,275063
26,12,9,12,22,49,60,39,2021-08-07 13:03:46,275063
22,16,14,33,40,26,12,13,2021-08-07 13:03:46,280065
-20,-9,-1,16,8,-16,-30,-23,2021-08-07 13:03:46,280065
-1,-1,-4,12,10,6,15,6,2021-08-07 13:03:46,280065
6,-12,-22,-41,-32,0,9,6,2021-08-07 13:03:46,281064
-7,-3,11,-19,-9,-9,-16,-9,2021-08-07 13:03:46,307065
-4,3,8,18,20,5,1,1,2021-08-07 13:03:46,307065
8,5,-8,0,-9,-1,6,8,2021-08-07 13:03:46,307065
-13,-20,-34,-74,-86,-51,-28,-18,2021-08-07 13:03:46,307065
-2,4,8,9,20,17,8,1,2021-08-07 13:03:46,323065
7,9,24,43,50,24,12,8,2021-08-07 13:03:46,323065
1,4,0,-1,-29,-23,-19,-6,2021-08-07 13:03:46,323065
-15,-21,-29,-29,-20,-10,-6,-11,2021-08-07 13:03:46,323065
8,-2,-9,-35,-23,1,11,10,2021-08-07 13:03:46,355066
11,7,-4,5,28,15,5,9,2021-08-07 13:03:46,355066
-11,-6,-2,2,-5,-16,-23,-19,2021-08-07 13:03:46,355066
8,21,28,37,25,20,22,10,2021-08-07 13:03:46,355066
10,9,11,30,23,17,11,8,2021-08-07 13:03:46,355066
-10,-7,1,3,5,-11,-16,-10,2021-08-07 13:03:46,356065
-14,-15,-16,-44,-65,-45,-21,-11,2021-08-07 13:03:46,356065
13,18,25,62,91,57,30,14,2021-08-07 13:03:46,356065
10,6,6,13,4,2,6,6,2021-08-07 13:03:46,387066
-8,-7,-14,-19,-18,-14,-12,-9,2021-08-07 13:03:46,387066
-7,-9,-7,-24,-18,-9,-4,-4,2021-08-07 13:03:46,387066
0,0,1,-4,-13,-3,1,3,2021-08-07 13:03:46,387066
0,2,-2,6,11,6,1,-1,2021-08-07 13:03:46,403065
-3,-8,-9,-8,-3,-2,-2,-3,2021-08-07 13:03:46,418578
-2,1,5,-1,8,5,2,1,2021-08-07 13:03:46,418578
4,4,5,12,8,3,2,1,2021-08-07 13:03:46,418578
-3,-4,-9,-6,-10,-7,-4,-2,2021-08-07 13:03:46,418578
-3,-8,-9,-13,-20,-9,-4,-4,2021-08-07 13:03:46,418578
4,5,8,4,8,6,0,2,2021-08-07 13:03:46,434578
-1,3,5,13,14,3,1,-1,2021-08-07 13:03:46,450577
-1,-3,-7,-11,-15,-8,-3,-1,2021-08-07 13:03:46,450577
-5,-9,-8,-14,-17,-13,-10,-7,2021-08-07 13:03:46,450577
-1,0,3,9,21,14,5,4,2021-08-07 13:03:46,450577
0,0,2,15,15,8,6,3,2021-08-07 13:03:46,450577
1,-2,-6,-5,-5,-2,4,3,2021-08-07 13:03:46,465578
-2,-1,-1,-5,-8,-7,-5,-3,2021-08-07 13:03:46,465578
-3,-2,-2,-2,-1,-3,-3,-7,2021-08-07 13:03:46,465578
0,-3,-5,-16,-21,-9,-2,0,2021-08-07 13:03:46,465578
-5,-7,-4,5,9,2,0,-1,2021-08-07 13:03:46,481579
-2,1,-1,2,3,0,-2,-1,2021-08-07 13:03:46,481579
0,4,4,-9,-15,-5,-1,-1,2021-08-07 13:03:46,481579
5,5,6,21,46,24,12,6,2021-08-07 13:03:46,481579
-2,2,3,7,3,1,-1,-2,2021-08-07 13:03:46,513579
-3,-3,-5,-6,-11,-6,-3,-1,2021-08-07 13:03:46,529577
-1,-2,-1,7,12,3,0,-1,2021-08-07 13:03:46,529577
-3,-5,-4,-17,-31,-17,-8,-5,2021-08-07 13:03:46,529577
-1,-2,-1,0,-3,-2,0,0,2021-08-07 13:03:46,529577
-1,-1,0,10,0,0,-1,0,2021-08-07 13:03:46,530581
1,2,-1,-7,11,6,2,1,2021-08-07 13:03:46,530581
-4,-5,-5,-10,-15,-8,-4,-2,2021-08-07 13:03:46,530581
5,4,6,20,37,22,10,5,2021-08-07 13:03:46,545578
0,-2,-1,-9,-13,-7,-2,-2,2021-08-07 13:03:46,545578
-5,-7,-4,-4,-11,-12,-9,-6,2021-08-07 13:03:46,561579
4,7,8,14,13,6,4,1,2021-08-07 13:03:46,577614
1,1,-4,-14,-20,-9,-4,0,2021-08-07 13:03:46,577614
0,-2,-4,-5,8,6,1,-1,2021-08-07 13:03:46,577614
2,6,15,6,4,0,0,1,2021-08-07 13:03:46,577614
-4,-5,-15,-13,-14,-8,-5,-4,2021-08-07 13:03:46,577614
-3,-3,-5,1,2,-1,-2,-3,2021-08-07 13:03:46,577614
-3,-6,-10,-3,-6,-3,-3,-1,2021-08-07 13:03:46,577614
-1,-3,-8,-12,-8,-2,-2,-3,2021-08-07 13:03:46,592580
3,6,12,-6,-2,-2,-2,-1,2021-08-07 13:03:46,592580
0,1,-3,-4,-13,-6,-3,1,2021-08-07 13:03:46,592580
0,2,2,10,16,8,4,0,2021-08-07 13:03:46,592580
-7,-9,-7,-2,-16,-13,-6,-6,2021-08-07 13:03:46,608579
2,1,3,10,13,11,2,3,2021-08-07 13:03:46,608579
5,8,7,10,7,8,6,5,2021-08-07 13:03:46,640620
-1,0,-2,-21,-9,-4,0,1,2021-08-07 13:03:46,640620
-3,-1,-3,-2,-1,-1,-1,-4,2021-08-07 13:03:46,640620
1,0,0,15,12,5,2,1,2021-08-07 13:03:46,640620
-4,-9,-7,-12,-15,-10,-6,-4,2021-08-07 13:03:46,640620
-1,-2,2,-5,-4,-3,-3,-2,2021-08-07 13:03:46,640620
7,12,14,21,29,17,10,5,2021-08-07 13:03:46,641579
-9,-6,-5,-5,-9,-5,-5,-7,2021-08-07 13:03:46,641579
1,3,4,18,8,-1,1,0,2021-08-07 13:03:46,672578
1,-2,-5,-11,-27,-13,-5,-1,2021-08-07 13:03:46,688578
-1,0,4,-11,10,6,1,-1,2021-08-07 13:03:46,704577
-2,-4,-4,-1,-3,-4,-1,0,2021-08-07 13:03:46,704577
-2,-3,-14,-19,-14,-8,-4,-4,2021-08-07 13:03:46,704577
0,-2,-5,-11,-9,-3,-4,-1,2021-08-07 13:03:46,704577
-1,-5,-5,5,-4,0,1,-2,2021-08-07 13:03:46,704577
0,0,7,5,0,0,0,0,2021-08-07 13:03:46,704577
1,1,4,-1,4,4,2,0,2021-08-07 13:03:46,705578
4,2,2,16,6,-1,1,4,2021-08-07 13:03:46,705578
1,3,5,12,14,12,4,2,2021-08-07 13:03:46,705578
7,14,12,35,51,26,14,7,2021-08-07 13:03:46,705578
-1,-1,-4,-14,-8,-6,-3,-3,2021-08-07 13:03:46,720578
-6,-6,-6,-13,-10,-8,-4,-6,2021-08-07 13:03:46,720578
-2,-4,-7,-14,-17,-9,-5,-1,2021-08-07 13:03:46,720578
-7,-11,-12,-11,-26,-15,-9,-6,2021-08-07 13:03:46,720578
0,3,7,7,9,6,3,1,2021-08-07 13:03:46,736579
5,6,6,11,16,12,5,2,2021-08-07 13:03:46,736579
-8,-14,-17,-20,-26,-19,-11,-8,2021-08-07 13:03:46,752577
0,0,0,-15,-16,-3,-1,1,2021-08-07 13:03:46,752577
-2,-1,-1,-2,-4,-5,-4,-2,2021-08-07 13:03:46,768578
1,2,6,17,5,3,1,-1,2021-08-07 13:03:46,768578
2,0,-3,2,3,3,3,2,2021-08-07 13:03:46,800578
-3,-3,-7,-22,-15,-9,-6,-4,2021-08-07 13:03:46,816580
-1,-4,-3,-5,-10,-4,-4,-2,2021-08-07 13:03:46,832579
-1,1,1,-8,-3,0,1,0,2021-08-07 13:03:46,832579
6,7,6,27,19,9,5,5,2021-08-07 13:03:46,832579
-2,-2,-1,-5,-3,0,0,0,2021-08-07 13:03:46,832579
-3,-2,3,14,19,4,1,-1,2021-08-07 13:03:46,832579
-1,0,2,6,0,0,1,0,2021-08-07 13:03:46,832579
1,2,5,2,3,-3,-2,0,2021-08-07 13:03:46,833579
-4,-5,-5,-11,-21,-11,-7,-5,2021-08-07 13:03:46,833579
-3,-4,-5,-17,-2,2,-1,-2,2021-08-07 13:03:46,833579
-4,-6,-6,-12,-3,-2,-3,-5,2021-08-07 13:03:46,833579
4,12,13,13,5,4,4,3,2021-08-07 13:03:46,833579
2,6,4,18,22,7,3,1,2021-08-07 13:03:46,833579
-1,-4,-6,-1,-4,-1,0,0,2021-08-07 13:03:46,848578
-8,-12,-13,-35,-36,-19,-12,-8,2021-08-07 13:03:46,848578
-9,-12,-10,-32,-20,-10,-10,-8,2021-08-07 13:03:46,848578
0,-3,-12,7,2,-1,-2,-1,2021-08-07 13:03:46,848578
9,12,12,15,12,9,8,7,2021-08-07 13:03:46,863579
2,3,5,23,19,7,6,4,2021-08-07 13:03:46,879577
-2,0,2,9,9,3,1,-1,2021-08-07 13:03:46,879577
-3,-2,-1,-15,-18,-10,-6,-4,2021-08-07 13:03:46,879577
-1,-2,0,7,5,-1,-3,-3,2021-08-07 13:03:46,879577
4,7,8,18,10,4,2,4,2021-08-07 13:03:46,879577
-1,-3,-13,-18,-23,-9,-5,-3,2021-08-07 13:03:46,895578
-4,-11,-12,-21,0,4,1,-4,2021-08-07 13:03:46,910577
-5,-6,-5,-10,-15,-10,-6,-5,2021-08-07 13:03:46,910577
2,7,12,12,12,7,2,1,2021-08-07 13:03:46,910577
2,1,2,26,19,7,3,1,2021-08-07 13:03:46,910577
1,0,-1,-7,-3,0,2,1,2021-08-07 13:03:46,910577
-4,-8,-8,-22,-23,-13,-7,-4,2021-08-07 13:03:46,910577
3,3,5,9,8,5,2,1,2021-08-07 13:03:46,910577
3,0,-1,4,-1,1,2,3,2021-08-07 13:03:46,926578
1,0,4,19,14,6,2,1,2021-08-07 13:03:46,942577
-2,0,0,-6,-3,0,-2,-2,2021-08-07 13:03:46,942577
-6,-8,-10,-17,-8,-6,-5,-4,2021-08-07 13:03:46,942577
-4,-5,-7,-13,-22,-12,-6,-3,2021-08-07 13:03:46,958578
6,7,10,16,29,20,10,6,2021-08-07 13:03:46,958578
-2,-2,-1,4,-5,-4,-2,-1,2021-08-07 13:03:46,958578
-2,1,7,-3,-5,-3,-3,-2,2021-08-07 13:03:46,958578
-1,0,-8,-7,-7,-3,-2,-2,2021-08-07 13:03:46,958578
-3,-2,0,9,19,8,1,-1,2021-08-07 13:03:46,958578
-2,-3,-3,2,4,0,0,-1,2021-08-07 13:03:46,974578
-1,-1,-2,0,-12,-7,-3,-3,2021-08-07 13:03:46,974578
3,4,6,-16,1,3,1,2,2021-08-07 13:03:46,974578
-3,-4,-4,-8,-12,-9,-7,-3,2021-08-07 13:03:46,974578
0,1,-2,5,7,5,1,2,2021-08-07 13:03:47,006579
0,1,-2,-10,-14,-10,-3,-1,2021-08-07 13:03:47,006579
-2,1,2,18,20,10,4,0,2021-08-07 13:03:47,006579
3,6,4,6,-4,-1,2,3,2021-08-07 13:03:47,006579
-4,-3,-4,-8,-3,-1,-1,-2,2021-08-07 13:03:47,022579
2,3,-1,3,10,6,3,2,2021-08-07 13:03:47,038580
-2,-2,-2,-8,-7,-5,-2,-4,2021-08-07 13:03:47,054577
-2,-3,-1,-5,-7,-1,-1,0,2021-08-07 13:03:47,054577
0,-1,1,14,6,3,0,-2,2021-08-07 13:03:47,054577
-2,-2,-5,-4,2,1,0,0,2021-08-07 13:03:47,054577
0,3,6,2,2,-1,-1,0,2021-08-07 13:03:47,054577
-3,-4,-3,-10,-20,-11,-5,-4,2021-08-07 13:03:47,054577
1,4,2,3,1,2,2,1,2021-08-07 13:03:47,055579
-7,-11,-13,-11,-7,-3,-7,-7,2021-08-07 13:03:47,055579
-3,-9,-9,-9,-14,-7,-3,-3,2021-08-07 13:03:47,070579
3,7,10,11,19,12,7,1,2021-08-07 13:03:47,086577
3,4,2,0,4,3,2,3,2021-08-07 13:03:47,086577
8,10,14,20,27,16,10,5,2021-08-07 13:03:47,086577
-6,-8,-10,0,-8,-12,-8,-3,2021-08-07 13:03:47,086577
-4,-6,-10,-24,-34,-17,-9,-4,2021-08-07 13:03:47,086577
5,4,9,5,19,11,5,3,2021-08-07 13:03:47,102578
-3,-3,-1,-3,-13,-8,-6,-2,2021-08-07 13:03:47,102578
2,4,7,18,20,8,2,1,2021-08-07 13:03:47,102578
-3,-6,-11,4,16,8,4,0,2021-08-07 13:03:47,102578
-3,-3,-6,-31,-15,-7,-7,-3,2021-08-07 13:03:47,117578
-3,-6,-8,-16,-19,-12,-7,-4,2021-08-07 13:03:47,117578
2,0,2,3,8,4,1,-1,2021-08-07 13:03:47,117578
0,4,7,11,2,0,-2,-2,2021-08-07 13:03:47,117578
-1,0,-2,7,-7,-4,-1,0,2021-08-07 13:03:47,133579
3,5,4,14,12,9,5,2,2021-08-07 13:03:47,133579
-5,-3,-7,-9,-13,-5,-2,-1,2021-08-07 13:03:47,133579
1,-1,-2,-18,-11,-3,-1,-1,2021-08-07 13:03:47,133579
-8,-13,-9,-31,-26,-14,-10,-6,2021-08-07 13:03:47,165577
0,-1,-10,10,16,10,3,0,2021-08-07 13:03:47,165577
-4,-6,1,-6,-11,-11,-8,-3,2021-08-07 13:03:47,181578
2,3,5,19,17,11,4,1,2021-08-07 13:03:47,181578
4,5,7,14,4,4,4,4,2021-08-07 13:03:47,181578
8,16,17,16,20,16,9,8,2021-08-07 13:03:47,197579
-3,-2,-3,-5,0,0,-2,-3,2021-08-07 13:03:47,213577
-5,-5,-6,-19,-29,-17,-9,-5,2021-08-07 13:03:47,213577
-3,-5,-6,1,-10,-7,-5,-4,2021-08-07 13:03:47,213577
-3,-4,-5,-4,-12,-7,-4,-2,2021-08-07 13:03:47,213577
4,4,4,3,13,9,7,4,2021-08-07 13:03:47,213577
-3,-4,-1,3,6,1,-2,-2,2021-08-07 13:03:47,213577
0,1,1,12,9,4,3,1,2021-08-07 13:03:47,245579
4,4,1,-5,7,4,4,4,2021-08-07 13:03:47,261579
-4,-4,-5,-11,-17,-10,-6,-5,2021-08-07 13:03:47,261579
-3,-4,-6,-16,-17,-9,-3,-2,2021-08-07 13:03:47,261579
-4,-6,-5,-7,-7,-4,-4,-6,2021-08-07 13:03:47,261579
7,13,18,27,33,19,11,5,2021-08-07 13:03:47,261579
5,6,10,14,6,3,6,4,2021-08-07 13:03:47,261579
-5,-5,-9,-4,2,-1,-1,-4,2021-08-07 13:03:47,261579
-5,-10,-13,-30,-30,-17,-8,-5,2021-08-07 13:03:47,262578
-2,-5,-3,-15,-23,-15,-9,-4,2021-08-07 13:03:47,262578
-6,-9,-9,-1,2,1,-2,-3,2021-08-07 13:03:47,262578
4,6,10,13,9,6,4,4,2021-08-07 13:03:47,262578
2,4,4,14,12,4,2,2,2021-08-07 13:03:47,293579
-3,-7,-6,-5,-8,-5,-3,-3,2021-08-07 13:03:47,293579
0,5,7,11,15,8,4,1,2021-08-07 13:03:47,293579
-3,-7,-6,0,-10,-9,-6,-5,2021-08-07 13:03:47,293579
0,-1,-2,6,1,1,0,1,2021-08-07 13:03:47,293579
0,0,-4,-27,-15,-7,-1,2,2021-08-07 13:03:47,293579
1,1,0,-3,-11,-2,0,-1,2021-08-07 13:03:47,308577
-2,-3,-4,-7,5,1,-1,-2,2021-08-07 13:03:47,308577
-2,1,3,9,2,-2,-2,-2,2021-08-07 13:03:47,324579
-11,-15,-13,7,-4,-9,-8,-9,2021-08-07 13:03:47,324579
17,26,25,21,21,18,15,13,2021-08-07 13:03:47,324579
-2,-1,-8,-25,-19,-8,-6,-3,2021-08-07 13:03:47,324579
-4,-7,-2,-23,-15,-5,-5,-6,2021-08-07 13:03:47,340578
-6,-10,-16,-8,-6,-5,-5,-5,2021-08-07 13:03:47,340578
-10,-12,-12,-13,-12,-9,-9,-5,2021-08-07 13:03:47,356579
4,7,16,35,26,12,6,6,2021-08-07 13:03:47,372578
-2,0,0,0,-9,-5,-3,-1,2021-08-07 13:03:47,372578
3,4,7,9,18,9,4,2,2021-08-07 13:03:47,372578
2,4,4,0,5,3,2,1,2021-08-07 13:03:47,372578
-4,-4,-6,-10,-9,-7,-4,-4,2021-08-07 13:03:47,372578
0,-1,-1,2,4,1,2,0,2021-08-07 13:03:47,372578
-2,-3,0,1,-4,-3,-3,-2,2021-08-07 13:03:47,373579
-2,-1,-3,-11,-14,-7,-1,-2,2021-08-07 13:03:47,373579
-2,-2,0,9,7,5,1,-1,2021-08-07 13:03:47,373579
2,2,-2,-6,-4,-3,0,2,2021-08-07 13:03:47,420578
7,9,8,21,22,19,12,6,2021-08-07 13:03:47,420578
-4,-8,-9,-12,-2,-3,-4,-2,2021-08-07 13:03:47,420578
-3,-4,-2,-10,-14,-8,-4,-3,2021-08-07 13:03:47,420578
2,8,8,17,14,8,3,4,2021-08-07 13:03:47,420578
2,2,3,-1,-7,-2,-1,2,2021-08-07 13:03:47,420578
-8,-14,-15,-7,-14,-9,-8,-7,2021-08-07 13:03:47,421579
4,10,14,4,-1,0,-1,1,2021-08-07 13:03:47,421579
7,11,6,1,-2,-1,3,5,2021-08-07 13:03:47,435577
-3,-5,-4,-11,-6,-5,-2,-2,2021-08-07 13:03:47,435577
-3,-8,-8,-19,1,3,-3,-5,2021-08-07 13:03:47,435577
-5,-11,-13,-2,-2,-7,-4,-4,2021-08-07 13:03:47,435577
3,4,-1,17,13,6,3,0,2021-08-07 13:03:47,467578
0,1,7,5,1,-3,-2,-1,2021-08-07 13:03:47,467578
2,2,3,17,11,5,3,3,2021-08-07 13:03:47,467578
3,2,3,-10,1,0,1,4,2021-08-07 13:03:47,467578
2,0,2,-3,-1,4,2,2,2021-08-07 13:03:47,483578
0,1,-4,-1,0,1,0,0,2021-08-07 13:03:47,483578
-4,-7,-7,-2,-6,-5,-4,-5,2021-08-07 13:03:47,499577
-3,0,1,-10,-28,-14,-9,-4,2021-08-07 13:03:47,499577
-1,-1,-1,11,24,14,5,0,2021-08-07 13:03:47,515579
1,2,1,3,8,8,3,1,2021-08-07 13:03:47,515579
-1,1,2,9,12,1,1,0,2021-08-07 13:03:47,530580
-2,-9,-12,-10,-6,-3,-3,-2,2021-08-07 13:03:47,530580
-3,-5,-5,-24,-28,-16,-8,-4,2021-08-07 13:03:47,530580
-1,-4,-10,-24,-37,-17,-8,-3,2021-08-07 13:03:47,530580
4,6,8,17,27,12,6,4,2021-08-07 13:03:47,530580
5,5,6,24,17,9,9,4,2021-08-07 13:03:47,530580
-5,-6,-6,4,7,3,1,-2,2021-08-07 13:03:47,531579
-2,-3,-4,-15,-2,-4,-2,-3,2021-08-07 13:03:47,531579
0,-1,-1,-9,-20,-9,-4,0,2021-08-07 13:03:47,546577
-2,-2,-4,-11,-11,-5,-2,-3,2021-08-07 13:03:47,562577
-2,-2,-1,8,17,8,0,1,2021-08-07 13:03:47,562577
-1,2,7,5,-4,-3,-1,0,2021-08-07 13:03:47,562577
-2,-2,-3,-2,0,1,0,-3,2021-08-07 13:03:47,562577
-2,-2,-2,6,1,-1,0,-2,2021-08-07 13:03:47,562577
2,1,3,-3,-8,-7,-4,-2,2021-08-07 13:03:47,569578
2,5,6,13,17,11,4,3,2021-08-07 13:03:47,569578
-2,0,-2,-2,-5,-6,-5,-4,2021-08-07 13:03:47,594578
1,-2,2,5,8,5,2,1,2021-08-07 13:03:47,594578
5,9,7,12,17,10,8,4,2021-08-07 13:03:47,594578
-5,-7,-9,-7,-14,-9,-5,-6,2021-08-07 13:03:47,594578
0,-1,-2,-16,-19,-8,-1,0,2021-08-07 13:03:47,610577
-5,-5,-11,-22,-16,-11,-6,-5,2021-08-07 13:03:47,610577
-1,-1,1,-2,-3,-3,-3,0,2021-08-07 13:03:47,626579
-1,-1,-1,10,4,3,1,1,2021-08-07 13:03:47,642580
2,2,3,21,25,17,6,2,2021-08-07 13:03:47,642580
-1,0,2,-7,3,1,2,0,2021-08-07 13:03:47,658577
-4,-6,-10,-20,-24,-11,-7,-5,2021-08-07 13:03:47,658577
-3,-8,-13,-12,-10,-10,-6,-3,2021-08-07 13:03:47,658577
3,3,7,9,8,3,1,2,2021-08-07 13:03:47,658577
3,8,10,16,9,4,2,2,2021-08-07 13:03:47,658577
-1,-2,0,1,0,1,1,0,2021-08-07 13:03:47,658577
-1,-3,0,-7,-1,1,0,0,2021-08-07 13:03:47,659581
-2,-3,-6,-9,-10,-5,-4,-2,2021-08-07 13:03:47,659581
-3,-1,-2,6,7,1,-1,-2,2021-08-07 13:03:47,674580
1,0,0,0,-3,-2,-1,0,2021-08-07 13:03:47,690578
-4,-1,0,-2,-14,-9,-3,-2,2021-08-07 13:03:47,706578
6,7,9,24,37,19,7,4,2021-08-07 13:03:47,706578
-4,-2,-7,-13,-8,-6,-4,-4,2021-08-07 13:03:47,706578
-2,-10,-14,-23,-14,-8,-3,-3,2021-08-07 13:03:47,706578
-6,-8,-9,-17,-21,-13,-7,-6,2021-08-07 13:03:47,706578
-2,-3,-3,-13,-17,-7,-3,-2,2021-08-07 13:03:47,706578
0,-3,1,25,17,7,4,1,2021-08-07 13:03:47,707579
5,8,10,11,16,6,4,3,2021-08-07 13:03:47,722578
2,4,7,2,0,0,2,2,2021-08-07 13:03:47,722578
-2,-2,-2,-3,1,1,0,0,2021-08-07 13:03:47,722578
-1,-6,-9,-4,-10,-6,-5,-2,2021-08-07 13:03:47,722578
-7,-11,-13,-16,-10,-4,-2,-5,2021-08-07 13:03:47,737578
5,6,9,9,16,8,3,5,2021-08-07 13:03:47,737578
-3,-2,-1,-9,-14,-11,-5,-4,2021-08-07 13:03:47,753579
-2,-5,-7,-4,-14,-6,-4,-3,2021-08-07 13:03:47,753579
1,4,8,20,23,12,4,0,2021-08-07 13:03:47,753579
3,8,9,7,13,8,5,2,2021-08-07 13:03:47,753579
2,3,-1,-2,-3,0,3,3,2021-08-07 13:03:47,769578
-1,1,3,-4,-16,-10,-3,-1,2021-08-07 13:03:47,769578
-6,-6,-6,0,1,2,-3,-4,2021-08-07 13:03:47,785579
5,4,5,26,45,21,9,5,2021-08-07 13:03:47,785579
-1,-1,-2,7,-6,-3,-1,-1,2021-08-07 13:03:47,785579
-2,-3,-8,-32,-20,-11,-5,-3,2021-08-07 13:03:47,785579
3,7,8,-3,-10,-5,0,0,2021-08-07 13:03:47,817579
-7,-11,-17,-20,-28,-16,-11,-6,2021-08-07 13:03:47,817579
0,4,7,4,-4,-2,-2,-2,2021-08-07 13:03:47,817579
5,5,5,23,46,26,13,6,2021-08-07 13:03:47,817579
-2,-2,-3,-5,-11,-9,-4,-1,2021-08-07 13:03:47,817579
-3,-5,-3,-6,0,1,-2,-3,2021-08-07 13:03:47,817579
-4,-6,-8,-21,-29,-18,-9,-4,2021-08-07 13:03:47,832580
1,2,1,13,9,5,1,1,2021-08-07 13:03:47,848578
3,2,4,13,12,6,6,4,2021-08-07 13:03:47,848578
-3,-1,-2,1,-15,-11,-4,-3,2021-08-07 13:03:47,848578
-1,0,-3,-16,-8,-1,-2,0,2021-08-07 13:03:47,864580
-1,2,2,-2,10,6,2,0,2021-08-07 13:03:47,880578
1,2,1,15,18,8,4,2,2021-08-07 13:03:47,880578
-1,-3,-2,-4,-6,-2,-1,-1,2021-08-07 13:03:47,880578
0,1,3,15,12,3,2,1,2021-08-07 13:03:47,880578
1,2,-1,-4,-16,-8,-4,-1,2021-08-07 13:03:47,880578
-2,-3,-7,-6,3,4,2,0,2021-08-07 13:03:47,880578
-6,-10,-9,-18,-17,-9,-6,-6,2021-08-07 13:03:47,881579
0,-1,0,-12,-5,-3,-1,-1,2021-08-07 13:03:47,896578
-1,-3,1,-1,-2,-2,-2,0,2021-08-07 13:03:47,896578
2,1,-7,5,-5,-4,-2,0,2021-08-07 13:03:47,912578
1,0,1,2,6,4,2,1,2021-08-07 13:03:47,912578
-2,0,-2,4,13,11,5,1,2021-08-07 13:03:47,912578
-5,-6,-3,-8,-3,-4,-5,-5,2021-08-07 13:03:47,912578
2,5,9,13,18,12,5,3,2021-08-07 13:03:47,928580
3,6,0,12,9,4,6,4,2021-08-07 13:03:47,928580
-7,-12,-16,-18,-18,-10,-7,-7,2021-08-07 13:03:47,928580
0,1,4,-10,-15,-8,-1,0,2021-08-07 13:03:47,928580
3,8,8,0,8,7,2,4,2021-08-07 13:03:47,960578
-1,-1,-1,0,-3,-3,-4,-1,2021-08-07 13:03:47,975578
0,-2,-2,18,14,4,1,1,2021-08-07 13:03:47,975578
-1,-2,-3,-8,-3,0,-2,-1,2021-08-07 13:03:47,975578
-4,-7,-6,-2,-8,-8,-6,-3,2021-08-07 13:03:47,975578
3,7,9,-10,-16,-9,-1,1,2021-08-07 13:03:47,975578
-5,-4,-6,-15,-8,-6,-4,-6,2021-08-07 13:03:47,975578
0,-1,1,11,12,6,3,1,2021-08-07 13:03:47,975578
-2,-3,-3,1,3,1,-1,-2,2021-08-07 13:03:48,007578
1,0,0,4,8,5,2,-1,2021-08-07 13:03:48,007578
-2,-3,-2,-8,-18,-12,-7,-1,2021-08-07 13:03:48,007578
1,1,-1,-2,-12,-6,-1,-1,2021-08-07 13:03:48,007578
0,0,1,11,23,14,6,1,2021-08-07 13:03:48,007578
0,0,0,11,13,7,3,0,2021-08-07 13:03:48,007578
-1,-4,-6,-7,-1,-2,-1,-1,2021-08-07 13:03:48,008578
4,5,8,7,0,0,1,2,2021-08-07 13:03:48,008578
-3,-7,-6,-13,-19,-12,-6,-4,2021-08-07 13:03:48,017579
1,3,3,2,-9,-5,-3,1,2021-08-07 13:03:48,017579
-3,-5,-5,-10,-8,-4,-2,0,2021-08-07 13:03:48,023580
-5,-6,-9,-11,7,6,0,-3,2021-08-07 13:03:48,023580
6,14,14,8,-3,0,2,4,2021-08-07 13:03:48,054577
1,-1,0,6,13,6,1,0,2021-08-07 13:03:48,070580
-3,-1,1,0,-3,-3,-4,-3,2021-08-07 13:03:48,070580
-7,-9,-10,-19,-22,-14,-6,-4,2021-08-07 13:03:48,070580
-1,-2,-8,0,4,4,1,0,2021-08-07 13:03:48,070580
-1,-3,1,-3,-6,-2,0,1,2021-08-07 13:03:48,070580
2,1,0,5,-1,1,4,0,2021-08-07 13:03:48,071578
0,-1,2,2,16,10,3,2,2021-08-07 13:03:48,071578
-3,-4,-6,-7,-11,-8,-4,-4,2021-08-07 13:03:48,086579
3,2,3,11,10,4,2,2,2021-08-07 13:03:48,086579
1,0,3,0,6,3,2,0,2021-08-07 13:03:48,102578
2,5,3,-5,-8,-5,-3,0,2021-08-07 13:03:48,118578
-4,-7,-4,-11,-13,-6,-6,-5,2021-08-07 13:03:48,134581
-2,-2,-6,11,14,7,1,0,2021-08-07 13:03:48,134581
-5,-7,-4,-15,-22,-14,-9,-6,2021-08-07 13:03:48,134581
6,8,7,9,15,14,7,6,2021-08-07 13:03:48,134581
0,1,5,2,-2,-3,-3,0,2021-08-07 13:03:48,134581
1,0,-1,0,1,2,1,2,2021-08-07 13:03:48,134581
-6,-6,-8,-4,3,-1,-3,-4,2021-08-07 13:03:48,134581
-1,-1,-3,-3,-11,-9,-3,-3,2021-08-07 13:03:48,135579
1,0,1,5,4,3,2,0,2021-08-07 13:03:48,150578
-2,0,2,0,5,5,2,0,2021-08-07 13:03:48,166579
-1,-3,-1,0,-5,-5,-3,-1,2021-08-07 13:03:48,182580
-2,-2,-7,-11,-14,-8,-4,-4,2021-08-07 13:03:48,182580
-3,-1,1,-4,-13,-8,-3,1,2021-08-07 13:03:48,182580
0,-1,1,5,18,11,3,0,2021-08-07 13:03:48,197579
1,1,0,11,17,7,3,1,2021-08-07 13:03:48,197579
1,-1,3,10,3,2,0,2,2021-08-07 13:03:48,197579
5,7,8,8,12,7,4,1,2021-08-07 13:03:48,197579
-3,-3,-6,-6,-18,-9,-4,-5,2021-08-07 13:03:48,197579
-1,-6,-11,-6,8,4,1,0,2021-08-07 13:03:48,197579
-9,-10,-7,-17,-12,-8,-9,-9,2021-08-07 13:03:48,198579
8,13,10,9,-2,3,4,6,2021-08-07 13:03:48,198579
-4,-5,-4,-10,-5,-7,-5,-5,2021-08-07 13:03:48,198579
1,3,8,10,9,4,3,2,2021-08-07 13:03:48,198579
-4,-6,-2,7,3,-1,-1,-2,2021-08-07 13:03:48,198579
-3,-8,-16,-8,-9,-7,-6,-2,2021-08-07 13:03:48,229578
1,4,4,3,-4,0,-1,0,2021-08-07 13:03:48,229578
2,2,-1,-6,8,6,3,2,2021-08-07 13:03:48,229578
0,2,4,2,5,-1,2,0,2021-08-07 13:03:48,245577
-5,-8,-8,-18,-14,-5,-3,-4,2021-08-07 13:03:48,261581
-1,-2,1,4,6,0,-1,0,2021-08-07 13:03:48,261581
-1,-1,-1,4,-11,-3,-2,-4,2021-08-07 13:03:48,261581
2,4,5,18,16,4,1,1,2021-08-07 13:03:48,261581
-2,-5,-4,-16,0,-2,-2,-3,2021-08-07 13:03:48,261581
0,-1,-4,-18,-27,-15,-6,-1,2021-08-07 13:03:48,261581
1,5,12,19,31,16,6,2,2021-08-07 13:03:48,261581
4,-1,-3,15,11,6,3,1,2021-08-07 13:03:48,277579
-4,-4,-5,0,-3,-2,-1,-2,2021-08-07 13:03:48,292577
-5,-5,-7,-38,-35,-23,-10,-5,2021-08-07 13:03:48,292577
-2,-1,-1,-7,-14,-7,-4,1,2021-08-07 13:03:48,292577
2,2,3,8,5,4,2,-2,2021-08-07 13:03:48,292577
1,0,8,10,14,5,3,4,2021-08-07 13:03:48,307577
-1,-3,-11,3,3,4,0,-2,2021-08-07 13:03:48,307577
2,5,5,5,-4,-2,0,0,2021-08-07 13:03:48,323579
0,-2,-7,-5,1,1,0,0,2021-08-07 13:03:48,323579
-4,-4,-2,-7,-15,-11,-6,-4,2021-08-07 13:03:48,323579
-2,-2,1,-3,-7,-4,-2,-3,2021-08-07 13:03:48,323579
0,2,-1,-4,9,4,2,0,2021-08-07 13:03:48,339579
-2,-1,-4,-10,-12,-2,-1,-1,2021-08-07 13:03:48,339579
2,1,4,10,9,5,4,4,2021-08-07 13:03:48,355578
-2,4,5,1,-7,-5,-4,-1,2021-08-07 13:03:48,355578
5,7,5,22,33,16,8,5,2021-08-07 13:03:48,355578
-1,-6,-7,-22,-16,-9,-5,-1,2021-08-07 13:03:48,355578
-6,-9,-8,-11,-10,-6,-7,-6,2021-08-07 13:03:48,371578
-4,-5,1,6,8,0,-1,-3,2021-08-07 13:03:48,371578
-4,-3,-2,-4,-16,-11,-5,-2,2021-08-07 13:03:48,371578
0,5,8,12,3,3,3,0,2021-08-07 13:03:48,371578
3,5,2,13,9,4,1,2,2021-08-07 13:03:48,387580
4,2,0,0,11,9,5,4,2021-08-07 13:03:48,403577
0,-2,-2,-11,-17,-9,-2,-2,2021-08-07 13:03:48,419579
-2,-4,-4,6,13,7,2,1,2021-08-07 13:03:48,434579
3,4,2,-5,-7,-1,1,1,2021-08-07 13:03:48,434579
-2,-3,-1,3,-4,-3,-2,-1,2021-08-07 13:03:48,434579
-3,-3,-6,-8,-3,-3,-3,-3,2021-08-07 13:03:48,434579
-7,-9,-9,-24,-35,-18,-11,-5,2021-08-07 13:03:48,434579
2,0,8,9,15,11,4,-1,2021-08-07 13:03:48,435579
-1,3,1,11,14,9,4,2,2021-08-07 13:03:48,435579
1,2,1,1,0,-1,0,-1,2021-08-07 13:03:48,435579
-4,-3,-1,-5,-7,-7,-6,-4,2021-08-07 13:03:48,435579
2,3,5,10,-2,-2,-1,1,2021-08-07 13:03:48,450578
2,0,2,5,25,16,6,4,2021-08-07 13:03:48,450578
-5,-9,-12,-21,-22,-11,-7,-5,2021-08-07 13:03:48,450578
0,0,-5,0,5,-1,-2,0,2021-08-07 13:03:48,451579
0,0,0,-7,-13,-5,1,0,2021-08-07 13:03:48,460578
-2,-5,-4,-6,-7,-7,-4,-3,2021-08-07 13:03:48,460578
-1,0,3,6,2,2,0,0,2021-08-07 13:03:48,460578
0,-2,2,-1,9,8,3,1,2021-08-07 13:03:48,460578
-1,-1,-4,-4,-3,-3,-2,-1,2021-08-07 13:03:48,498578
-3,-2,-2,6,-5,-8,-5,-3,2021-08-07 13:03:48,498578
7,12,15,22,19,12,7,5,2021-08-07 13:03:48,498578
-3,-2,-3,-17,-27,-15,-7,-3,2021-08-07 13:03:48,498578
-2,-6,-7,-4,14,12,3,-1,2021-08-07 13:03:48,514580
7,5,9,14,27,16,10,6,2021-08-07 13:03:48,514580
-3,-5,-5,-8,-14,-12,-7,-4,2021-08-07 13:03:48,514580
-1,3,6,16,10,4,2,0,2021-08-07 13:03:48,514580
0,2,0,1,-12,-8,-3,0,2021-08-07 13:03:48,530579
-2,-2,-3,-11,-16,-8,-5,-4,2021-08-07 13:03:48,530579
1,0,0,8,11,6,2,2,2021-08-07 13:03:48,530579
1,-3,-4,-1,11,9,5,2,2021-08-07 13:03:48,530579
-7,-8,-11,-18,-4,0,-4,-4,2021-08-07 13:03:48,561578
-5,-4,-5,-23,-18,-16,-9,-5,2021-08-07 13:03:48,577578
2,1,3,8,6,4,2,2,2021-08-07 13:03:48,593579
1,2,2,14,16,7,4,0,2021-08-07 13:03:48,609579
3,9,7,14,7,3,3,4,2021-08-07 13:03:48,609579
0,-1,-1,5,-4,-2,-3,0,2021-08-07 13:03:48,609579
-1,2,2,-3,-9,-5,-3,1,2021-08-07 13:03:48,609579
-4,-6,-5,-32,-32,-16,-7,-3,2021-08-07 13:03:48,609579
-2,1,2,5,14,7,0,-2,2021-08-07 13:03:48,609579
-1,-4,-9,0,7,4,4,0,2021-08-07 13:03:48,609579
-2,-5,-3,-4,-10,-9,-3,-2,2021-08-07 13:03:48,610578
2,2,3,18,13,8,4,1,2021-08-07 13:03:48,610578
2,2,7,-3,0,0,1,2,2021-08-07 13:03:48,610578
-2,-3,-2,-6,-9,-5,-3,-3,2021-08-07 13:03:48,610578
-1,1,1,-5,-4,-2,-2,-2,2021-08-07 13:03:48,625616
2,1,1,1,-5,-4,-2,0,2021-08-07 13:03:48,641579
-6,-8,-10,-21,-24,-14,-5,-6,2021-08-07 13:03:48,657577
2,5,3,-2,4,3,0,1,2021-08-07 13:03:48,657577
-1,0,-2,3,5,5,2,1,2021-08-07 13:03:48,657577
4,4,8,16,17,8,6,4,2021-08-07 13:03:48,657577
-4,-9,-12,-14,-17,-10,-8,-4,2021-08-07 13:03:48,657577
1,2,-1,-14,-19,-10,-2,0,2021-08-07 13:03:48,657577
-4,-6,-6,-11,-2,0,-3,-5,2021-08-07 13:03:48,657577
0,-2,-2,15,18,9,3,-1,2021-08-07 13:03:48,658579
2,6,9,3,-8,-2,0,3,2021-08-07 13:03:48,689577
3,3,9,16,25,14,6,2,2021-08-07 13:03:48,705578
-1,1,-1,-4,-3,-7,-4,0,2021-08-07 13:03:48,705578
-1,-2,-1,4,3,5,1,1,2021-08-07 13:03:48,705578
-2,-5,-7,1,3,-1,0,-1,2021-08-07 13:03:48,721577
-6,-9,-11,-18,-35,-22,-12,-8,2021-08-07 13:03:48,721577
-1,-1,-3,-1,5,4,3,1,2021-08-07 13:03:48,721577
-5,-6,-6,-14,-16,-8,-5,-3,2021-08-07 13:03:48,721577
3,4,11,15,12,3,3,3,2021-08-07 13:03:48,721577
1,6,-3,15,12,6,4,2,2021-08-07 13:03:48,721577
0,-2,-4,-16,-14,-8,-4,-3,2021-08-07 13:03:48,721577
0,-1,-4,-12,-13,-7,-2,-2,2021-08-07 13:03:48,722579
-2,-2,0,-3,7,5,-1,0,2021-08-07 13:03:48,737616
-2,-3,-3,5,3,0,1,1,2021-08-07 13:03:48,753580
-1,0,4,20,12,7,1,-1,2021-08-07 13:03:48,769578
1,3,1,7,1,-1,2,1,2021-08-07 13:03:48,785578
3,4,-2,-21,-10,0,2,1,2021-08-07 13:03:48,801578
-10,-13,-11,-17,-13,-11,-8,-8,2021-08-07 13:03:48,801578
-3,-4,-9,-13,-20,-11,-7,-2,2021-08-07 13:03:48,801578
-2,1,5,14,23,11,0,-2,2021-08-07 13:03:48,801578
5,5,3,27,22,9,8,5,2021-08-07 13:03:48,801578
-1,0,0,-5,-9,-4,-3,-2,2021-08-07 13:03:48,801578
-3,-6,-5,-20,-23,-16,-9,-4,2021-08-07 13:03:48,801578
0,-2,1,5,18,10,3,2,2021-08-07 13:03:48,801578
-3,-5,-4,-6,-15,-9,-5,-5,2021-08-07 13:03:48,801578
2,5,7,22,35,24,9,2,2021-08-07 13:03:48,802581
-3,-4,-7,-29,-30,-18,-8,-3,2021-08-07 13:03:48,802581
7,8,7,18,25,12,8,7,2021-08-07 13:03:48,802581
0,2,5,16,13,5,3,0,2021-08-07 13:03:48,802581
-1,-3,-4,-4,-5,-4,-1,-1,2021-08-07 13:03:48,802581
-3,-6,-4,1,-9,-4,-2,-5,2021-08-07 13:03:48,817578
-5,-7,-11,-24,-23,-14,-6,-6,2021-08-07 13:03:48,817578
2,1,2,-10,-10,-7,-2,1,2021-08-07 13:03:48,848577
0,2,-3,-5,-12,-2,-1,1,2021-08-07 13:03:48,848577
4,5,8,26,39,21,10,5,2021-08-07 13:03:48,848577
-2,2,0,4,7,2,0,-2,2021-08-07 13:03:48,848577
0,-1,4,20,16,4,1,0,2021-08-07 13:03:48,848577
-2,-3,-2,1,-2,-3,-1,0,2021-08-07 13:03:48,848577
-6,-8,-12,-33,-35,-21,-11,-5,2021-08-07 13:03:48,848577
-3,-7,-3,-8,7,3,-3,-5,2021-08-07 13:03:48,864578
0,1,-3,-4,-9,-4,-1,1,2021-08-07 13:03:48,880578
4,3,4,-6,12,12,6,4,2021-08-07 13:03:48,880578
0,2,3,24,23,11,6,1,2021-08-07 13:03:48,880578
0,0,2,14,1,0,1,1,2021-08-07 13:03:48,880578
