EMG 1,EMG 2,EMG 3,EMG 4,EMG 5,EMG 6,EMG 7,EMG 8,Timestamp,Milliseconds
1,0,1,1,3,2,0,1,2021-08-07 12:55:16,665287
5,4,4,2,1,0,2,1,2021-08-07 12:55:16,681285
-1,-2,-4,-3,-4,-3,-3,-2,2021-08-07 12:55:16,697322
-2,-1,0,-1,0,-1,-2,-2,2021-08-07 12:55:16,697322
-1,-1,-2,1,5,3,1,-1,2021-08-07 12:55:16,697322
-3,-5,-4,-6,-9,-7,-6,-2,2021-08-07 12:55:16,697322
1,2,1,1,4,5,3,2,2021-08-07 12:55:16,697322
0,1,2,5,10,5,2,0,2021-08-07 12:55:16,697322
0,0,-1,0,0,-2,0,-2,2021-08-07 12:55:16,697322
-1,0,1,4,9,4,2,1,2021-08-07 12:55:16,697322
-2,-3,-3,-7,-11,-7,-5,-3,2021-08-07 12:55:16,698283
-1,-2,-3,-6,-10,-8,-5,-1,2021-08-07 12:55:16,698283
1,1,1,2,-2,0,0,0,2021-08-07 12:55:16,698283
1,0,-2,0,2,1,1,0,2021-08-07 12:55:16,698283
-1,-2,-1,1,-2,-1,-2,0,2021-08-07 12:55:16,698283
-2,-1,-1,2,4,4,0,0,2021-08-07 12:55:16,698283
0,-1,-3,-5,-4,-4,-4,-1,2021-08-07 12:55:16,713309
0,0,0,1,-3,0,1,1,2021-08-07 12:55:16,713309
0,-1,0,1,2,0,2,-2,2021-08-07 12:55:16,745286
-3,-4,-4,-4,-7,-5,-3,-2,2021-08-07 12:55:16,760852
1,1,1,-3,-4,0,0,1,2021-08-07 12:55:16,760852
-1,-2,-2,2,2,2,-2,-1,2021-08-07 12:55:16,760852
-2,-1,-3,-5,-4,-1,0,-1,2021-08-07 12:55:16,792855
3,3,1,4,8,6,4,2,2021-08-07 12:55:16,808854
-2,1,-1,-2,-4,-2,-1,0,2021-08-07 12:55:16,824848
-2,-1,0,5,6,3,0,0,2021-08-07 12:55:16,824848
-2,-2,-2,-5,-4,-4,-3,0,2021-08-07 12:55:16,824848
-1,-2,-1,-1,-4,0,-1,-1,2021-08-07 12:55:16,824848
0,-1,1,-2,-2,0,-2,-2,2021-08-07 12:55:16,824848
0,0,-3,-2,-3,-2,-4,-3,2021-08-07 12:55:16,824848
-1,-1,-1,0,0,-1,-2,-2,2021-08-07 12:55:16,824848
-1,-1,0,1,-1,-1,0,-1,2021-08-07 12:55:16,824848
1,1,0,2,2,1,1,0,2021-08-07 12:55:16,824848
-2,-3,-1,-3,-3,-1,-1,-2,2021-08-07 12:55:16,825854
-1,-1,-1,2,0,1,-1,-2,2021-08-07 12:55:16,825854
-1,1,-1,0,-1,-1,0,0,2021-08-07 12:55:16,825854
-2,-1,-2,-1,-5,-4,-3,-2,2021-08-07 12:55:16,825854
-2,-5,-4,-10,-13,-6,-1,-1,2021-08-07 12:55:16,825854
5,7,9,14,21,13,7,4,2021-08-07 12:55:16,825854
0,0,2,3,3,0,-1,-1,2021-08-07 12:55:16,825854
-2,-2,-4,1,3,3,0,-1,2021-08-07 12:55:16,840853
-2,1,0,0,-6,-5,-1,0,2021-08-07 12:55:16,850852
-3,-5,-6,-9,-12,-7,-4,-3,2021-08-07 12:55:16,850852
-1,0,2,1,2,2,0,0,2021-08-07 12:55:16,850852
-1,-1,0,2,3,1,-1,-1,2021-08-07 12:55:16,872886
-2,-3,-4,-4,-3,-2,-4,-2,2021-08-07 12:55:16,872886
0,0,0,0,-1,1,1,1,2021-08-07 12:55:16,872886
-2,0,0,1,-1,-2,-2,-1,2021-08-07 12:55:16,872886
-1,-2,-2,-4,-6,-4,-2,-1,2021-08-07 12:55:16,888854
-1,1,2,3,5,3,3,1,2021-08-07 12:55:16,904848
0,-2,-2,0,0,0,-3,0,2021-08-07 12:55:16,905317
-2,-1,-2,-1,-1,0,-1,-2,2021-08-07 12:55:16,905317
-1,-1,1,1,2,0,1,0,2021-08-07 12:55:16,905317
-1,0,1,1,6,2,0,-1,2021-08-07 12:55:16,905317
0,0,0,0,-2,-4,0,0,2021-08-07 12:55:16,905854
-1,-1,-2,4,2,0,1,0,2021-08-07 12:55:16,905854
-1,-1,-1,-3,-4,-1,-1,1,2021-08-07 12:55:16,935374
-2,-3,-1,-2,-2,-4,-4,-2,2021-08-07 12:55:16,951375
-1,-2,0,2,1,2,-2,-3,2021-08-07 12:55:16,951375
1,0,1,2,11,8,2,0,2021-08-07 12:55:16,951375
2,1,0,2,2,0,1,2,2021-08-07 12:55:16,951375
-2,-3,-4,-3,-6,-4,-2,-2,2021-08-07 12:55:16,951375
-3,-2,-3,-8,-9,-7,-5,-2,2021-08-07 12:55:16,952378
1,1,1,-3,-6,-2,1,0,2021-08-07 12:55:16,952378
-1,-2,-1,-3,0,-1,-2,-1,2021-08-07 12:55:16,952378
0,-2,-2,-5,-8,-2,0,-2,2021-08-07 12:55:16,952378
0,1,0,4,6,2,0,0,2021-08-07 12:55:16,967376
-1,-1,-2,-5,-7,-5,-1,-1,2021-08-07 12:55:16,967376
-1,-1,0,1,1,2,1,0,2021-08-07 12:55:16,983376
-1,-1,0,3,0,-2,-1,-2,2021-08-07 12:55:16,983376
-1,-2,-2,-2,-3,-2,-1,-1,2021-08-07 12:55:16,983376
0,1,0,2,3,1,-1,0,2021-08-07 12:55:16,983376
2,3,4,-2,0,2,2,3,2021-08-07 12:55:17,015378
1,0,-1,1,1,2,0,0,2021-08-07 12:55:17,031376
-2,-4,-3,-2,-2,-3,-1,-2,2021-08-07 12:55:17,031376
-1,-4,-4,-6,-10,-8,-5,-3,2021-08-07 12:55:17,031376
-2,-1,1,2,3,3,1,-2,2021-08-07 12:55:17,031376
-1,0,-1,2,5,3,0,0,2021-08-07 12:55:17,031376
1,1,1,-2,0,0,1,0,2021-08-07 12:55:17,031376
-1,0,-2,-3,-6,-4,-2,-1,2021-08-07 12:55:17,031376
-3,-3,-1,0,-2,-3,-1,-2,2021-08-07 12:55:17,047412
1,1,0,-1,1,0,1,2,2021-08-07 12:55:17,063378
-1,0,0,-2,-4,-2,0,-2,2021-08-07 12:55:17,079426
-3,-2,-1,-3,-3,-1,-2,-1,2021-08-07 12:55:17,079426
1,-1,0,-1,0,-1,0,-1,2021-08-07 12:55:17,079426
0,1,-2,-4,-3,-2,-2,-3,2021-08-07 12:55:17,079426
-3,-2,-1,2,3,1,0,-1,2021-08-07 12:55:17,079426
3,2,0,-2,-1,2,2,2,2021-08-07 12:55:17,079426
0,1,0,3,6,5,1,-1,2021-08-07 12:55:17,079426
-2,-1,-2,-2,-6,-5,-3,-1,2021-08-07 12:55:17,079426
-1,-2,-3,-3,-6,-3,0,-1,2021-08-07 12:55:17,095413
-2,-2,-4,1,0,-2,-1,-3,2021-08-07 12:55:17,095413
2,2,0,1,1,1,0,1,2021-08-07 12:55:17,095413
1,0,1,0,3,3,2,0,2021-08-07 12:55:17,095413
0,-1,-3,-3,-4,-3,-4,0,2021-08-07 12:55:17,111379
-2,-3,-1,0,-1,-2,-2,-1,2021-08-07 12:55:17,111379
-3,-2,-4,-3,-4,-3,-3,-2,2021-08-07 12:55:17,126414
-2,0,1,4,6,2,0,-1,2021-08-07 12:55:17,126655
-1,-1,0,-5,-4,-2,0,0,2021-08-07 12:55:17,126655
-1,-1,-2,1,1,0,-2,-1,2021-08-07 12:55:17,126655
-4,-6,-7,-9,-17,-12,-8,-5,2021-08-07 12:55:17,141905
3,5,4,9,16,10,6,4,2021-08-07 12:55:17,141905
-2,-1,0,2,0,0,-2,-1,2021-08-07 12:55:17,141905
-2,-2,-2,-1,1,1,1,-1,2021-08-07 12:55:17,141905
0,0,0,-2,-2,-2,0,1,2021-08-07 12:55:17,172950
-4,-8,-6,-7,-11,-8,-6,-3,2021-08-07 12:55:17,188941
2,6,6,6,10,8,4,3,2021-08-07 12:55:17,220927
2,0,0,0,-4,-3,-3,0,2021-08-07 12:55:17,220927
-2,-4,-4,-1,3,0,0,-2,2021-08-07 12:55:17,220927
-1,0,1,-4,-6,-6,-3,-2,2021-08-07 12:55:17,220927
-1,-1,0,1,3,3,1,1,2021-08-07 12:55:17,220927
-1,-1,-2,1,3,2,-2,-1,2021-08-07 12:55:17,221904
2,3,2,2,4,1,2,1,2021-08-07 12:55:17,221904
-1,-2,-2,-5,-7,-4,-5,-1,2021-08-07 12:55:17,221904
-3,-5,-3,-6,-6,-7,-5,-4,2021-08-07 12:55:17,221904
-3,-3,-3,-7,-9,-5,-2,-1,2021-08-07 12:55:17,221904
3,3,5,9,15,11,5,3,2021-08-07 12:55:17,221904
-1,0,-1,1,4,2,2,-1,2021-08-07 12:55:17,221904
-1,1,0,1,3,-1,1,1,2021-08-07 12:55:17,222905
0,-1,-2,-4,-3,-2,-1,0,2021-08-07 12:55:17,222905
-5,-6,-6,-9,-18,-11,-7,-4,2021-08-07 12:55:17,251903
3,-1,-2,0,5,6,3,1,2021-08-07 12:55:17,267943
3,3,2,3,3,2,2,1,2021-08-07 12:55:17,267943
1,2,2,1,3,3,1,1,2021-08-07 12:55:17,267943
0,0,0,0,1,0,0,0,2021-08-07 12:55:17,267943
0,-1,-2,-5,-5,-1,-1,-3,2021-08-07 12:55:17,267943
-1,-5,-6,-6,-7,-5,-3,-1,2021-08-07 12:55:17,267943
0,1,0,-1,-6,-4,-1,-2,2021-08-07 12:55:17,267943
1,2,-1,0,3,0,1,-1,2021-08-07 12:55:17,283943
-4,-3,-4,-1,0,-1,-1,-2,2021-08-07 12:55:17,292903
0,0,-1,-2,0,2,1,1,2021-08-07 12:55:17,292903
-1,-2,1,2,0,-1,-1,0,2021-08-07 12:55:17,292903
-4,-2,-4,-6,-16,-13,-7,-3,2021-08-07 12:55:17,314906
2,5,4,9,15,13,5,4,2021-08-07 12:55:17,314906
-1,-2,-1,1,2,2,1,-1,2021-08-07 12:55:17,314906
-1,-1,-1,-1,0,0,0,0,2021-08-07 12:55:17,314906
-3,-3,-1,-4,-3,-2,-2,0,2021-08-07 12:55:17,330940
-2,-3,-2,-4,-11,-9,-4,-3,2021-08-07 12:55:17,346940
-1,-2,-2,-4,-8,-6,-5,-3,2021-08-07 12:55:17,362905
0,2,3,6,11,8,4,1,2021-08-07 12:55:17,362905
0,-1,-1,-2,-1,0,0,-2,2021-08-07 12:55:17,362905
1,1,1,-1,0,-2,0,0,2021-08-07 12:55:17,362905
-1,1,-2,-2,-6,-5,-3,-2,2021-08-07 12:55:17,362905
0,1,2,4,5,3,0,0,2021-08-07 12:55:17,362905
1,-2,-2,1,3,3,0,0,2021-08-07 12:55:17,363906
-1,-1,-1,0,-3,-2,0,-1,2021-08-07 12:55:17,363906
-1,-1,-4,-6,-7,-4,-1,1,2021-08-07 12:55:17,363906
2,0,-3,-1,4,2,2,-1,2021-08-07 12:55:17,363906
1,-1,1,3,7,6,3,3,2021-08-07 12:55:17,394906
-4,-5,-2,-2,-6,-5,-4,-2,2021-08-07 12:55:17,394906
-2,-1,1,4,2,1,0,-1,2021-08-07 12:55:17,410907
-2,-2,-1,-3,-2,-1,-1,-5,2021-08-07 12:55:17,410907
-2,-1,1,1,-1,-1,-3,-4,2021-08-07 12:55:17,410907
1,-1,-1,-5,-6,-4,-3,-1,2021-08-07 12:55:17,410907
-2,-4,-3,-10,-15,-11,-7,-4,2021-08-07 12:55:17,410907
4,4,2,9,20,13,6,6,2021-08-07 12:55:17,410907
0,-2,-1,1,3,0,1,-3,2021-08-07 12:55:17,426904
2,4,2,3,6,4,4,3,2021-08-07 12:55:17,442905
0,0,0,-1,-1,-1,0,0,2021-08-07 12:55:17,473905
-3,-5,-6,-9,-14,-10,-8,-5,2021-08-07 12:55:17,489905
-2,0,0,-1,-1,-2,-1,-2,2021-08-07 12:55:17,489905
-3,-2,-2,1,1,-1,0,-2,2021-08-07 12:55:17,489905
0,0,-2,1,6,2,2,0,2021-08-07 12:55:17,489905
-3,-4,-4,-3,-6,-4,-3,-5,2021-08-07 12:55:17,489905
1,2,1,0,-2,-1,-1,-2,2021-08-07 12:55:17,489905
-2,-3,-3,-4,-5,-1,-2,-1,2021-08-07 12:55:17,490912
-1,1,1,2,3,3,0,-1,2021-08-07 12:55:17,490912
0,-1,-1,-1,1,0,-1,-1,2021-08-07 12:55:17,490912
-2,-6,-5,-2,-3,-3,-1,-1,2021-08-07 12:55:17,490912
2,3,2,3,4,1,2,2,2021-08-07 12:55:17,490912
-2,0,1,0,3,1,-1,0,2021-08-07 12:55:17,490912
-3,-1,-1,-3,-8,-5,-3,-1,2021-08-07 12:55:17,490912
-1,-1,-1,3,6,3,1,-2,2021-08-07 12:55:17,505940
1,1,0,0,0,2,0,-1,2021-08-07 12:55:17,505940
0,0,-1,-2,1,1,2,-1,2021-08-07 12:55:17,505940
-1,-1,-2,-5,-11,-10,-4,-2,2021-08-07 12:55:17,505940
0,0,-2,-6,-5,-1,-1,1,2021-08-07 12:55:17,521907
-1,-1,0,4,8,4,1,-1,2021-08-07 12:55:17,521907
3,3,0,4,2,2,2,0,2021-08-07 12:55:17,521907
1,-1,1,-2,-2,0,-1,0,2021-08-07 12:55:17,521907
-1,-1,-2,-6,-7,-5,-3,-2,2021-08-07 12:55:17,552904
-2,-2,-2,-4,-6,-5,-4,-2,2021-08-07 12:55:17,552904
0,-2,-1,0,3,1,0,-1,2021-08-07 12:55:17,552904
-2,-1,-2,-4,-4,-4,-2,0,2021-08-07 12:55:17,552904
0,-1,-1,-2,-2,-3,-1,0,2021-08-07 12:55:17,568904
0,-1,1,1,3,0,-1,-3,2021-08-07 12:55:17,568904
1,-1,0,1,5,2,0,0,2021-08-07 12:55:17,568904
0,0,-1,3,1,2,0,0,2021-08-07 12:55:17,568904
-2,-1,-2,-3,-2,-2,-3,-1,2021-08-07 12:55:17,584904
1,0,0,-2,-3,-2,-1,0,2021-08-07 12:55:17,584904
-2,-1,-1,-1,-1,0,-1,0,2021-08-07 12:55:17,584904
1,0,2,3,4,3,1,0,2021-08-07 12:55:17,584904
2,2,3,6,6,3,0,1,2021-08-07 12:55:17,615908
-3,-5,-6,-6,-5,-5,-3,-1,2021-08-07 12:55:17,631907
-1,-4,-2,-7,-8,-4,-2,-1,2021-08-07 12:55:17,631907
0,0,0,1,0,1,0,-1,2021-08-07 12:55:17,631907
-1,0,1,3,5,3,-1,0,2021-08-07 12:55:17,631907
0,-1,0,-2,-1,0,1,1,2021-08-07 12:55:17,631907
-1,-1,-3,-6,-6,-6,-2,-2,2021-08-07 12:55:17,631907
-2,-3,-2,-4,-2,-3,1,-1,2021-08-07 12:55:17,631907
-1,0,-1,-1,-2,-2,-1,-1,2021-08-07 12:55:17,647908
1,1,1,3,1,-1,0,0,2021-08-07 12:55:17,647908
0,-1,-1,3,4,4,2,0,2021-08-07 12:55:17,647908
-1,-3,-2,0,-1,0,-3,0,2021-08-07 12:55:17,647908
1,1,0,-1,4,2,0,-1,2021-08-07 12:55:17,663903
-1,2,2,0,-3,-4,-2,0,2021-08-07 12:55:17,679940
-2,-1,1,0,-3,0,-1,-1,2021-08-07 12:55:17,695907
0,2,0,-4,-3,-3,-1,1,2021-08-07 12:55:17,695907
1,0,0,2,6,7,1,-1,2021-08-07 12:55:17,711915
-1,-1,-2,-1,0,2,-1,-1,2021-08-07 12:55:17,726938
2,2,2,3,0,0,1,0,2021-08-07 12:55:17,726938
-4,-3,-3,-1,-2,-3,-3,-2,2021-08-07 12:55:17,726938
-4,-4,-3,-9,-10,-6,-2,0,2021-08-07 12:55:17,727908
-1,-1,-4,-7,-11,-7,-3,-1,2021-08-07 12:55:17,727908
1,0,1,4,5,2,1,1,2021-08-07 12:55:17,727908
-1,-2,-3,-6,-8,-3,0,0,2021-08-07 12:55:17,727908
-2,-2,-3,-1,1,-1,0,-3,2021-08-07 12:55:17,727908
1,2,4,6,11,6,4,2,2021-08-07 12:55:17,728906
-1,1,-1,0,0,0,-1,0,2021-08-07 12:55:17,728906
2,2,1,2,0,-1,1,1,2021-08-07 12:55:17,728906
-2,-4,-3,-1,-6,-3,-2,-1,2021-08-07 12:55:17,759905
-2,-2,-1,-5,-5,-3,-3,-3,2021-08-07 12:55:17,759905
0,1,1,0,0,0,-3,1,2021-08-07 12:55:17,759905
0,0,-1,1,3,3,1,-1,2021-08-07 12:55:17,759905
0,-2,-4,-9,-14,-7,-4,-2,2021-08-07 12:55:17,774904
2,-1,1,4,9,6,2,-1,2021-08-07 12:55:17,774904
2,2,4,5,6,3,1,2,2021-08-07 12:55:17,774904
-2,-1,0,2,3,0,-2,-1,2021-08-07 12:55:17,774904
0,0,0,-3,-5,-4,-1,-2,2021-08-07 12:55:17,806071
-3,-4,-5,-7,-11,-7,-5,-2,2021-08-07 12:55:17,806071
0,2,1,1,3,0,2,-1,2021-08-07 12:55:17,806071
-1,1,0,2,1,0,0,-2,2021-08-07 12:55:17,806071
-2,0,-2,0,2,0,1,1,2021-08-07 12:55:17,806071
-1,-1,-1,-2,-5,-3,-2,0,2021-08-07 12:55:17,807035
-1,-4,-3,-3,0,-2,0,-3,2021-08-07 12:55:17,807035
1,2,2,5,12,6,3,2,2021-08-07 12:55:17,807035
-2,-1,-1,0,-1,-3,-2,-2,2021-08-07 12:55:17,838041
0,-1,0,-1,-2,-2,-3,-1,2021-08-07 12:55:17,838041
0,-3,-2,-6,-7,-5,-2,-1,2021-08-07 12:55:17,838041
0,-1,-2,-5,-6,-3,-2,-3,2021-08-07 12:55:17,838041
0,0,1,3,4,1,0,0,2021-08-07 12:55:17,854084
-2,-1,-2,1,0,-1,1,0,2021-08-07 12:55:17,854084
-1,0,-1,-3,-2,2,2,-1,2021-08-07 12:55:17,854084
-2,-1,1,4,3,-2,-1,-1,2021-08-07 12:55:17,854084
2,3,1,6,4,2,0,1,2021-08-07 12:55:17,870059
-3,-2,-3,0,0,-1,-1,0,2021-08-07 12:55:17,870059
-2,-2,-2,-1,-2,-3,-3,-1,2021-08-07 12:55:17,870059
-2,-4,-3,-2,0,0,-2,-2,2021-08-07 12:55:17,870059
-1,-3,-2,-4,-6,-3,-3,-2,2021-08-07 12:55:17,901035
4,3,2,-2,-3,-3,0,1,2021-08-07 12:55:17,901035
-1,-1,-3,1,-2,-1,-2,0,2021-08-07 12:55:17,917036
-2,0,1,-1,0,3,1,1,2021-08-07 12:55:17,917036
0,-2,-1,1,2,1,0,-2,2021-08-07 12:55:17,917036
-1,0,-1,-1,-2,1,0,-1,2021-08-07 12:55:17,917036
-2,-4,-4,-2,0,-1,-2,-3,2021-08-07 12:55:17,917036
0,1,0,-3,-5,-4,-1,-1,2021-08-07 12:55:17,917036
1,1,3,-2,0,0,1,1,2021-08-07 12:55:17,933071
-1,1,-1,-1,-1,2,1,1,2021-08-07 12:55:17,949040
-1,1,1,5,6,3,0,-1,2021-08-07 12:55:17,949040
-1,-2,-4,-3,-3,-2,-1,-1,2021-08-07 12:55:17,949040
-3,-1,-2,-3,-5,-1,-3,0,2021-08-07 12:55:17,949040
-2,0,0,0,1,1,-2,0,2021-08-07 12:55:17,949040
-3,-1,-1,2,5,3,0,-1,2021-08-07 12:55:17,949040
-2,-2,-1,-1,-2,-1,0,0,2021-08-07 12:55:17,949040
-2,0,-4,0,-3,-4,-2,0,2021-08-07 12:55:17,981036
1,0,1,2,3,1,2,0,2021-08-07 12:55:17,981036
0,0,-1,-2,-2,-2,-1,0,2021-08-07 12:55:17,981036
1,-1,0,-2,-2,-2,-3,-1,2021-08-07 12:55:17,981036
-2,0,-1,-1,2,1,0,-1,2021-08-07 12:55:17,981036
-1,-4,-2,-3,-4,-4,-4,-4,2021-08-07 12:55:17,981036
0,0,1,-2,-1,-3,-2,0,2021-08-07 12:55:17,997037
-1,0,-3,-1,2,2,-1,0,2021-08-07 12:55:17,997037
0,0,1,-1,3,1,0,0,2021-08-07 12:55:18,013035
-1,-2,-1,-1,1,-1,0,-1,2021-08-07 12:55:18,013035
1,1,2,-1,-2,-1,1,1,2021-08-07 12:55:18,013035
-3,-2,-2,-4,-5,-2,-4,-3,2021-08-07 12:55:18,013035
0,-2,-1,1,3,3,-1,0,2021-08-07 12:55:18,044036
-2,-3,-5,-2,-3,-3,-2,-3,2021-08-07 12:55:18,060035
1,2,2,1,1,1,0,0,2021-08-07 12:55:18,076035
-1,0,0,-3,-4,-2,0,0,2021-08-07 12:55:18,076035
-1,-1,1,1,-1,-1,-1,-2,2021-08-07 12:55:18,092038
1,1,2,2,4,5,1,1,2021-08-07 12:55:18,092285
-1,-3,-3,1,7,3,0,-1,2021-08-07 12:55:18,092285
0,1,1,1,0,-2,-1,0,2021-08-07 12:55:18,092285
-3,-2,-1,-2,-8,-6,-3,-3,2021-08-07 12:55:18,092285
-2,-3,-4,-8,-16,-10,-5,-3,2021-08-07 12:55:18,092285
1,-1,-1,-1,4,5,1,1,2021-08-07 12:55:18,093035
2,1,3,8,12,6,2,0,2021-08-07 12:55:18,093035
-2,-2,-1,-1,0,0,0,0,2021-08-07 12:55:18,093035
0,-1,1,1,2,0,0,0,2021-08-07 12:55:18,093035
-1,0,-4,-6,-14,-8,-4,-3,2021-08-07 12:55:18,093035
-3,-4,-3,-5,-6,-4,-2,-2,2021-08-07 12:55:18,093035
2,2,1,0,3,3,2,1,2021-08-07 12:55:18,107566
-1,-1,0,-1,-2,-2,0,-1,2021-08-07 12:55:18,107566
-1,-2,-2,0,-2,-1,-2,0,2021-08-07 12:55:18,107566
-1,-2,-3,-5,-7,-6,-2,-2,2021-08-07 12:55:18,107566
-3,0,-3,-1,3,3,0,-2,2021-08-07 12:55:18,138561
0,1,3,3,6,3,1,2,2021-08-07 12:55:18,138561
1,0,2,2,0,0,0,1,2021-08-07 12:55:18,138561
-4,-3,-5,-4,-6,-3,-3,-3,2021-08-07 12:55:18,138561
0,-1,0,0,0,-1,0,0,2021-08-07 12:55:18,153562
1,2,2,2,7,4,2,0,2021-08-07 12:55:18,153562
-2,0,1,2,1,-1,0,-2,2021-08-07 12:55:18,153562
0,-1,1,-1,0,-1,-3,-1,2021-08-07 12:55:18,153562
-2,-2,-2,-4,-6,-4,-2,-1,2021-08-07 12:55:18,168597
1,1,-3,-1,-2,0,-1,-1,2021-08-07 12:55:18,168597
0,-1,-5,-3,-7,-4,-2,-1,2021-08-07 12:55:18,168597
0,-2,-4,-7,-4,-1,2,1,2021-08-07 12:55:18,168597
2,1,3,7,8,8,4,1,2021-08-07 12:55:18,184589
-1,1,0,5,7,6,1,-1,2021-08-07 12:55:18,184589
-5,-2,1,-1,-3,-3,-3,-3,2021-08-07 12:55:18,184589
-2,-1,-1,-3,-8,-6,-4,-3,2021-08-07 12:55:18,184589
-2,-2,-2,-5,-5,-3,-3,-1,2021-08-07 12:55:18,216597
0,1,1,3,6,2,2,1,2021-08-07 12:55:18,232562
1,0,0,-3,-2,-2,-3,1,2021-08-07 12:55:18,248563
0,1,1,1,3,1,1,2,2021-08-07 12:55:18,264586
-1,-1,-3,-4,-6,-5,-1,-2,2021-08-07 12:55:18,280587
1,-1,-2,-4,-5,-3,-2,-1,2021-08-07 12:55:18,280587
-2,-2,-1,-1,-1,-1,-1,-2,2021-08-07 12:55:18,280587
-2,0,-2,-3,-5,-2,-1,-1,2021-08-07 12:55:18,280587
0,-1,0,4,5,2,-1,-1,2021-08-07 12:55:18,280587
-2,-2,-1,-1,-5,-3,0,-1,2021-08-07 12:55:18,280587
-1,-1,0,2,2,2,1,0,2021-08-07 12:55:18,280587
0,-1,-2,0,1,1,-2,-1,2021-08-07 12:55:18,280587
-1,-1,-1,-3,-4,-2,-2,-2,2021-08-07 12:55:18,281565
-2,0,0,3,8,2,1,0,2021-08-07 12:55:18,281565
-1,-1,-2,-4,-6,-4,-1,-1,2021-08-07 12:55:18,296565
0,2,1,3,3,3,-1,-1,2021-08-07 12:55:18,296565
-2,-3,-3,-2,0,-2,-3,-1,2021-08-07 12:55:18,296565
-1,-4,-1,-4,-6,-2,-4,-1,2021-08-07 12:55:18,296565
-2,-1,-3,-5,-4,0,-1,-1,2021-08-07 12:55:18,311563
1,1,5,11,21,9,4,1,2021-08-07 12:55:18,343601
2,-1,0,-1,-2,0,-1,-1,2021-08-07 12:55:18,343601
-1,2,-1,-1,-3,-3,0,-1,2021-08-07 12:55:18,343601
0,-2,-1,1,-2,-3,-3,-2,2021-08-07 12:55:18,343601
-1,-2,-1,-1,-1,0,-1,-1,2021-08-07 12:55:18,343601
-1,-1,-1,0,-4,-3,-2,-3,2021-08-07 12:55:18,343601
-1,-1,-2,-3,-5,-2,-2,-1,2021-08-07 12:55:18,343601
-2,-1,0,-1,-1,2,0,0,2021-08-07 12:55:18,343601
-1,-1,-3,-2,-6,-3,-2,-1,2021-08-07 12:55:18,344567
-1,-2,0,3,9,5,3,1,2021-08-07 12:55:18,359601
-1,-2,-3,-3,-2,-2,-1,0,2021-08-07 12:55:18,375567
-1,0,0,-1,-2,-3,-1,1,2021-08-07 12:55:18,375567
0,-1,-1,-4,-4,-1,-1,0,2021-08-07 12:55:18,391560
2,2,4,5,9,3,3,2,2021-08-07 12:55:18,407567
0,3,0,1,4,3,1,0,2021-08-07 12:55:18,407567
-1,-3,-2,-3,-5,-4,-4,-1,2021-08-07 12:55:18,407567
0,0,1,5,9,4,3,0,2021-08-07 12:55:18,407567
-4,-1,-4,-4,-5,-4,-3,-1,2021-08-07 12:55:18,407567
1,1,2,-2,-2,0,0,2,2021-08-07 12:55:18,407567
-1,-2,1,2,-2,1,1,0,2021-08-07 12:55:18,408561
0,2,1,4,7,6,3,2,2021-08-07 12:55:18,408561
-2,-2,-3,-5,-5,-5,-2,-3,2021-08-07 12:55:18,408561
-1,-3,-3,0,0,0,-2,-2,2021-08-07 12:55:18,408561
-2,-3,-1,-8,-14,-11,-5,-1,2021-08-07 12:55:18,408561
0,-1,0,2,9,10,2,0,2021-08-07 12:55:18,408561
0,1,0,0,3,3,1,1,2021-08-07 12:55:18,423562
-3,-5,-5,-7,-11,-9,-3,-3,2021-08-07 12:55:18,423562
3,4,4,10,16,10,6,0,2021-08-07 12:55:18,423562
-1,-1,-2,1,2,-1,-1,0,2021-08-07 12:55:18,423562
-2,0,0,-2,-9,-6,-3,-1,2021-08-07 12:55:18,455588
0,0,1,-3,-2,-2,-1,-1,2021-08-07 12:55:18,455588
0,-2,-3,-3,-3,-1,-1,0,2021-08-07 12:55:18,455588
-2,-2,-2,-2,-7,-7,-2,-3,2021-08-07 12:55:18,471600
0,1,-1,-1,-1,1,-2,1,2021-08-07 12:55:18,487589
-4,-3,-1,-3,-6,-5,-4,-2,2021-08-07 12:55:18,503563
0,0,2,1,6,3,1,1,2021-08-07 12:55:18,518561
-2,-2,-2,-5,-6,-6,-4,-3,2021-08-07 12:55:18,518561
-1,-4,-2,-6,-8,-6,-4,-1,2021-08-07 12:55:18,518561
1,0,1,2,1,1,-1,0,2021-08-07 12:55:18,518561
0,1,1,5,7,4,1,-2,2021-08-07 12:55:18,518561
1,0,0,2,3,1,0,0,2021-08-07 12:55:18,518561
-2,0,-3,-2,-3,-1,-1,-2,2021-08-07 12:55:18,519564
0,1,-1,1,1,2,2,1,2021-08-07 12:55:18,519564
0,1,-1,2,5,1,-1,-3,2021-08-07 12:55:18,519564
-2,0,-1,-7,-13,-6,-4,-2,2021-08-07 12:55:18,519564
0,-1,0,1,3,1,1,-2,2021-08-07 12:55:18,534563
-3,-5,-4,-8,-14,-8,-5,-4,2021-08-07 12:55:18,534563
3,2,3,9,20,13,7,4,2021-08-07 12:55:18,534563
0,0,0,1,0,-2,-1,1,2021-08-07 12:55:18,534563
0,-2,-2,-2,-1,-1,-1,1,2021-08-07 12:55:18,550563
-1,-1,-2,1,0,-1,0,0,2021-08-07 12:55:18,550563
-3,-3,-5,-7,-8,-7,-5,-4,2021-08-07 12:55:18,550563
1,0,0,-3,-4,-2,1,0,2021-08-07 12:55:18,550563
3,2,1,1,0,0,1,1,2021-08-07 12:55:18,582562
-1,0,-1,0,-1,1,-1,0,2021-08-07 12:55:18,582562
-1,-1,-5,-2,-3,-1,0,-2,2021-08-07 12:55:18,582562
-1,0,-1,1,3,1,1,2,2021-08-07 12:55:18,582562
-1,0,-3,-1,-3,-3,-4,-3,2021-08-07 12:55:18,614599
2,0,1,3,4,0,1,0,2021-08-07 12:55:18,629558
-1,-1,-1,-5,-3,-2,-2,1,2021-08-07 12:55:18,629558
-3,-6,-4,-2,-5,-3,-4,-3,2021-08-07 12:55:18,629558
0,1,0,1,1,3,2,0,2021-08-07 12:55:18,629558
1,1,-2,-2,-1,1,-1,-3,2021-08-07 12:55:18,629558
-1,-1,-2,-4,-7,-7,-5,-2,2021-08-07 12:55:18,629558
1,1,0,1,0,2,1,-1,2021-08-07 12:55:18,629558
-4,-3,-1,-1,1,-1,-2,-2,2021-08-07 12:55:18,629558
1,1,3,9,16,9,4,2,2021-08-07 12:55:18,629558
-3,-4,-2,-1,-3,-3,-1,-2,2021-08-07 12:55:18,630563
-2,-1,-2,-2,-5,-4,-3,-2,2021-08-07 12:55:18,630563
-1,0,-4,-2,-1,0,-1,1,2021-08-07 12:55:18,661599
-1,1,0,1,3,1,0,1,2021-08-07 12:55:18,661599
0,-1,-2,-4,-4,-2,-2,-1,2021-08-07 12:55:18,661599
-2,-3,-2,-5,-6,-4,-1,-2,2021-08-07 12:55:18,661599
-2,-1,-1,-1,-3,-2,-1,-1,2021-08-07 12:55:18,677598
0,0,-2,-2,-2,-2,-1,0,2021-08-07 12:55:18,693560
-2,0,0,-1,-3,-3,1,-2,2021-08-07 12:55:18,693560
1,2,-2,-5,-2,1,0,0,2021-08-07 12:55:18,693560
-1,0,1,-1,1,0,1,-3,2021-08-07 12:55:18,693560
1,-1,0,1,3,1,2,0,2021-08-07 12:55:18,693560
0,1,3,0,-1,1,0,0,2021-08-07 12:55:18,693560
-1,-2,0,-2,-3,-3,-2,-4,2021-08-07 12:55:18,693560
0,-4,-2,-3,-3,-3,-2,-2,2021-08-07 12:55:18,724597
0,1,2,3,2,1,1,0,2021-08-07 12:55:18,724597
0,0,-1,-3,-6,-1,-2,-1,2021-08-07 12:55:18,724597
0,-3,-2,1,1,1,-1,-1,2021-08-07 12:55:18,724597
0,1,0,0,3,2,0,-1,2021-08-07 12:55:18,724597
-1,-3,-2,0,-5,-2,-2,-1,2021-08-07 12:55:18,740562
0,-2,-2,-1,2,2,-1,1,2021-08-07 12:55:18,756563
1,2,1,3,3,-1,0,0,2021-08-07 12:55:18,756563
-3,-1,-2,-6,-11,-7,-3,-1,2021-08-07 12:55:18,756563
1,1,-1,0,7,7,2,1,2021-08-07 12:55:18,756563
-1,-3,-2,-4,-9,-11,-5,-3,2021-08-07 12:55:18,756563
-4,-3,-5,-14,-22,-10,-6,-4,2021-08-07 12:55:18,756563
6,5,6,25,46,25,13,4,2021-08-07 12:55:18,787562
-2,-1,-2,-5,-8,-6,-3,-1,2021-08-07 12:55:18,787562
0,0,0,2,5,3,2,1,2021-08-07 12:55:18,787562
-2,-3,-1,-4,-7,-7,-5,-3,2021-08-07 12:55:18,787562
-2,-4,-5,-9,-17,-12,-7,-4,2021-08-07 12:55:18,787562
0,2,1,3,3,4,1,0,2021-08-07 12:55:18,787562
1,-2,-1,-2,1,-2,-1,-2,2021-08-07 12:55:18,787562
-2,-1,-1,0,0,-2,-1,0,2021-08-07 12:55:18,788562
1,1,1,-1,2,4,2,0,2021-08-07 12:55:18,818561
1,-2,1,-2,-1,-3,-1,0,2021-08-07 12:55:18,834564
-2,-1,0,1,1,0,-2,-1,2021-08-07 12:55:18,850562
-1,-1,1,2,4,2,1,0,2021-08-07 12:55:18,866565
0,-2,-2,-2,0,0,0,-1,2021-08-07 12:55:18,882562
-3,-2,-3,-8,-16,-9,-5,-1,2021-08-07 12:55:18,882562
0,-1,-2,0,-4,-5,-2,-2,2021-08-07 12:55:18,882562
-1,-1,-2,-4,-4,-2,-2,-1,2021-08-07 12:55:18,882562
0,1,1,5,12,11,4,2,2021-08-07 12:55:18,882562
0,2,2,11,18,9,3,1,2021-08-07 12:55:18,882562
-3,-2,-3,-3,-5,-2,-1,-1,2021-08-07 12:55:18,882562
-2,-2,-2,-3,-4,-6,-2,-2,2021-08-07 12:55:18,882562
-2,-2,-3,-11,-22,-17,-7,-5,2021-08-07 12:55:18,883566
0,-1,-1,-3,2,3,1,-1,2021-08-07 12:55:18,883566
-1,-1,0,1,-1,1,0,0,2021-08-07 12:55:18,883566
0,0,-1,-3,1,-1,-1,0,2021-08-07 12:55:18,883566
0,0,1,2,0,-3,0,1,2021-08-07 12:55:18,898563
0,-2,-1,-5,-6,-4,-3,-1,2021-08-07 12:55:18,898563
-1,-2,-2,0,3,2,0,0,2021-08-07 12:55:18,898563
0,-1,-2,-2,-4,-2,-3,-2,2021-08-07 12:55:18,898563
-3,-3,-3,-13,-26,-13,-8,-4,2021-08-07 12:55:18,929597
4,5,8,23,41,28,13,5,2021-08-07 12:55:18,929597
0,-1,-3,-4,-8,-7,-3,-2,2021-08-07 12:55:18,945588
0,-2,-2,-2,-2,-1,0,0,2021-08-07 12:55:18,945588
-3,-5,-2,-3,-5,-6,-4,-2,2021-08-07 12:55:18,945588
-4,-3,-2,-6,-13,-10,-4,-2,2021-08-07 12:55:18,945588
1,2,1,0,4,4,1,0,2021-08-07 12:55:18,945588
-1,-1,0,7,11,5,1,1,2021-08-07 12:55:18,945588
-1,-2,-3,-3,-6,-3,-2,-2,2021-08-07 12:55:18,961562
-1,-3,-2,-3,-8,-6,-4,-3,2021-08-07 12:55:18,961562
-1,-1,-1,-2,-3,-2,-1,-1,2021-08-07 12:55:18,961562
1,1,2,1,1,0,-1,1,2021-08-07 12:55:18,961562
0,2,1,2,3,3,3,-1,2021-08-07 12:55:18,977565
0,-1,-3,0,1,-1,-2,-2,2021-08-07 12:55:18,977565
-1,-2,0,-1,1,-1,-2,-1,2021-08-07 12:55:18,977565
-2,-2,1,-1,-4,-2,-1,-2,2021-08-07 12:55:18,977565
0,-1,1,1,0,-1,-2,0,2021-08-07 12:55:18,993562
2,1,0,2,5,3,2,0,2021-08-07 12:55:18,993562
-1,-1,-4,-9,-14,-7,-3,-3,2021-08-07 12:55:18,993562
2,-1,-3,4,11,7,6,1,2021-08-07 12:55:18,993562
-1,-2,-1,4,10,6,2,2,2021-08-07 12:55:19,055599
-3,-2,-3,-9,-16,-10,-4,-2,2021-08-07 12:55:19,055599
0,0,3,5,7,5,-1,-1,2021-08-07 12:55:19,055599
-3,-1,0,-1,0,1,-1,-3,2021-08-07 12:55:19,055599
-2,-2,1,2,6,1,-1,-3,2021-08-07 12:55:19,056563
0,-1,-2,-5,-6,-3,-2,-1,2021-08-07 12:55:19,056563
0,2,2,-1,-2,0,0,1,2021-08-07 12:55:19,056563
-1,-3,-2,0,-3,-4,-2,-2,2021-08-07 12:55:19,056563
2,0,-1,-1,-1,-1,-1,2,2021-08-07 12:55:19,087587
-2,-4,-5,-10,-21,-12,-5,-3,2021-08-07 12:55:19,096602
2,0,0,7,13,9,5,1,2021-08-07 12:55:19,096602
-2,-2,-1,2,6,2,0,0,2021-08-07 12:55:19,096602
1,0,0,-1,-3,-1,-1,-1,2021-08-07 12:55:19,096602
-1,0,1,1,3,1,-1,0,2021-08-07 12:55:19,097600
-2,-3,-5,-4,-7,-9,-4,-3,2021-08-07 12:55:19,097600
0,3,1,-3,-4,1,1,1,2021-08-07 12:55:19,097600
-2,-2,-2,0,-2,-3,-2,-2,2021-08-07 12:55:19,097600
-4,-2,-6,-10,-10,-5,-3,-1,2021-08-07 12:55:19,097600
1,2,4,10,18,11,6,2,2021-08-07 12:55:19,097600
-1,-1,0,-1,-3,-4,-2,-2,2021-08-07 12:55:19,097600
0,1,0,1,0,0,1,-1,2021-08-07 12:55:19,119564
-1,-2,-2,-1,-6,-4,-2,-3,2021-08-07 12:55:19,135588
-1,-3,0,-4,-4,-3,-2,-1,2021-08-07 12:55:19,151561
0,-1,0,2,7,5,1,-1,2021-08-07 12:55:19,151561
-1,-3,-1,-1,-1,0,-1,-2,2021-08-07 12:55:19,151561
0,2,3,3,4,1,0,1,2021-08-07 12:55:19,151561
-1,-1,-2,-4,-3,-2,0,-1,2021-08-07 12:55:19,151561
-1,0,-2,-3,-5,-3,-4,0,2021-08-07 12:55:19,151561
1,-1,0,2,2,3,0,0,2021-08-07 12:55:19,152562
0,-1,-2,1,2,0,-1,0,2021-08-07 12:55:19,152562
-1,-2,-1,-8,-16,-13,-7,-2,2021-08-07 12:55:19,152562
0,-1,-3,-6,-13,-5,-1,0,2021-08-07 12:55:19,152562
-2,-1,0,5,17,12,4,-1,2021-08-07 12:55:19,183560
2,4,4,13,25,15,7,4,2021-08-07 12:55:19,183560
1,1,2,1,0,-3,-2,0,2021-08-07 12:55:19,183560
0,1,-1,1,3,2,2,0,2021-08-07 12:55:19,183560
0,0,-4,-3,0,-2,-3,-4,2021-08-07 12:55:19,199562
-1,-3,-3,-5,-5,-6,-4,-2,2021-08-07 12:55:19,215564
0,-1,1,1,7,7,2,0,2021-08-07 12:55:19,231562
-2,-2,-1,-7,-9,-9,-3,-2,2021-08-07 12:55:19,231562
-1,0,0,-4,-13,-5,-3,0,2021-08-07 12:55:19,247564
-2,-1,-1,1,1,2,-1,-1,2021-08-07 12:55:19,247564
-2,-3,-5,-4,-6,-3,-3,-2,2021-08-07 12:55:19,247564
0,0,3,7,8,4,1,0,2021-08-07 12:55:19,247564
-1,-1,0,-2,-2,-1,0,0,2021-08-07 12:55:19,247564
-1,-2,-1,-2,-4,-3,-1,-1,2021-08-07 12:55:19,247564
-1,-1,-2,-7,-11,-6,-4,0,2021-08-07 12:55:19,248560
-4,-4,-4,-9,-19,-11,-8,-4,2021-08-07 12:55:19,248560
7,8,9,23,53,35,17,9,2021-08-07 12:55:19,248560
-3,-3,-3,1,-1,-3,-1,-2,2021-08-07 12:55:19,248560
0,2,2,2,9,5,4,-1,2021-08-07 12:55:19,248560
-1,0,0,3,2,1,-1,-1,2021-08-07 12:55:19,248560
-4,-5,-6,-16,-29,-17,-9,-4,2021-08-07 12:55:19,279564
-1,-3,-2,-8,-11,-5,-4,-3,2021-08-07 12:55:19,295563
2,2,3,14,24,14,6,2,2021-08-07 12:55:19,311564
-1,-1,-3,-4,-4,-5,-2,0,2021-08-07 12:55:19,311564
-1,0,-1,-4,-10,-6,-2,-1,2021-08-07 12:55:19,311564
-1,-1,0,0,0,1,0,-2,2021-08-07 12:55:19,311564
-2,-3,-3,-7,-15,-8,-4,-3,2021-08-07 12:55:19,311564
0,0,0,1,5,5,1,0,2021-08-07 12:55:19,311564
0,-2,-2,-2,-4,-4,-3,0,2021-08-07 12:55:19,311564
1,-1,-1,-4,-3,-4,-3,-2,2021-08-07 12:55:19,312565
-2,-3,-3,-3,0,0,1,-1,2021-08-07 12:55:19,312565
0,0,2,6,12,5,1,-1,2021-08-07 12:55:19,312565
1,0,-2,-4,-7,-6,-2,-1,2021-08-07 12:55:19,343597
-1,-4,-3,-1,-6,-3,-3,-1,2021-08-07 12:55:19,343597
2,0,1,0,3,2,1,0,2021-08-07 12:55:19,343597
2,1,-1,3,2,0,2,0,2021-08-07 12:55:19,343597
-4,-4,-7,-12,-20,-13,-8,-6,2021-08-07 12:55:19,359597
6,9,9,21,35,22,10,6,2021-08-07 12:55:19,375565
-2,-2,-3,-2,-5,-5,-3,-2,2021-08-07 12:55:19,375565
0,1,-1,-3,-4,-4,-1,-1,2021-08-07 12:55:19,375565
-3,-2,-3,-3,-9,-7,-4,-1,2021-08-07 12:55:19,375565
0,-3,-2,-3,1,2,0,-1,2021-08-07 12:55:19,375565
-2,-2,0,-1,-3,-3,-1,-2,2021-08-07 12:55:19,375565
0,0,0,6,7,8,3,1,2021-08-07 12:55:19,375565
-1,0,-1,1,3,0,-1,-2,2021-08-07 12:55:19,391565
-3,0,-2,-5,-6,-3,-3,0,2021-08-07 12:55:19,391565
-3,-1,0,-2,-7,-5,-3,-2,2021-08-07 12:55:19,391565
-3,-5,-5,-9,-12,-7,-4,-3,2021-08-07 12:55:19,391565
1,1,1,2,10,5,3,1,2021-08-07 12:55:19,422562
0,-2,-1,0,1,1,1,0,2021-08-07 12:55:19,422562
-1,0,-1,-3,-3,-2,-1,-3,2021-08-07 12:55:19,422562
-1,-1,-2,4,7,2,2,0,2021-08-07 12:55:19,422562
1,0,1,1,2,2,0,1,2021-08-07 12:55:19,438594
-1,0,-3,-7,-10,-10,-3,-2,2021-08-07 12:55:19,438594
-2,-4,-4,-4,-8,-2,-3,-2,2021-08-07 12:55:19,438594
2,1,3,4,10,4,1,-1,2021-08-07 12:55:19,438594
-1,2,1,-3,-7,-3,0,0,2021-08-07 12:55:19,454597
-1,-2,-3,-5,-4,-1,-1,-1,2021-08-07 12:55:19,454597
-1,0,0,7,6,3,1,-1,2021-08-07 12:55:19,470562
1,1,0,-2,-2,-1,-2,-1,2021-08-07 12:55:19,470562
-2,0,0,-2,-4,-2,-1,-1,2021-08-07 12:55:19,470562
-3,-1,-3,-7,-18,-14,-6,-4,2021-08-07 12:55:19,470562
1,-1,-2,3,8,8,3,1,2021-08-07 12:55:19,470562
-1,-3,-2,-1,6,2,1,1,2021-08-07 12:55:19,470562
-2,-2,-1,-5,-10,-8,-5,-2,2021-08-07 12:55:19,502567
0,0,2,5,8,5,2,0,2021-08-07 12:55:19,502567
2,1,2,1,3,2,0,0,2021-08-07 12:55:19,502567
-1,-2,-1,-4,-9,-4,-3,-2,2021-08-07 12:55:19,502567
0,1,0,0,-3,-1,0,0,2021-08-07 12:55:19,518563
-2,-2,0,-1,-1,-2,0,-1,2021-08-07 12:55:19,518563
0,0,-2,-2,-2,-1,-2,-1,2021-08-07 12:55:19,518563
-2,-2,-3,-6,-7,-4,-4,-4,2021-08-07 12:55:19,518563
1,0,0,2,6,2,1,1,2021-08-07 12:55:19,534560
-1,0,-1,-8,-14,-10,-5,-2,2021-08-07 12:55:19,543563
0,-1,-3,-3,-1,3,-1,0,2021-08-07 12:55:19,543563
0,-2,-2,-3,-2,-3,-4,-2,2021-08-07 12:55:19,543563
-2,-3,-1,9,13,8,2,-1,2021-08-07 12:55:19,565562
1,2,0,3,0,0,1,1,2021-08-07 12:55:19,581563
-4,-6,-6,-20,-28,-17,-8,-4,2021-08-07 12:55:19,597587
0,3,5,11,15,8,4,2,2021-08-07 12:55:19,613561
-1,-2,-2,3,11,7,2,-1,2021-08-07 12:55:19,629565
1,0,1,2,5,3,1,-1,2021-08-07 12:55:19,629565
-1,1,0,-2,-5,-5,-3,-2,2021-08-07 12:55:19,629565
-3,-3,-3,-7,-12,-7,-4,-3,2021-08-07 12:55:19,629565
0,0,1,-1,-2,2,0,1,2021-08-07 12:55:19,630565
-1,0,1,6,8,4,1,0,2021-08-07 12:55:19,630565
1,0,-1,1,4,2,0,-1,2021-08-07 12:55:19,630565
0,-1,-1,-2,-4,-4,0,-2,2021-08-07 12:55:19,630565
-2,-3,-3,-2,-11,-8,-5,-5,2021-08-07 12:55:19,630565
-5,-9,-9,-19,-29,-21,-9,-6,2021-08-07 12:55:19,630565
1,2,1,11,24,19,7,4,2021-08-07 12:55:19,631567
5,6,7,13,22,13,7,4,2021-08-07 12:55:19,631567
-1,-1,3,-3,-5,-3,-1,0,2021-08-07 12:55:19,631567
2,3,3,7,5,1,-1,-1,2021-08-07 12:55:19,631567
-5,-8,-7,-15,-28,-20,-10,-5,2021-08-07 12:55:19,631567
-3,-6,-8,-11,-12,-5,-3,-2,2021-08-07 12:55:19,631567
2,1,1,8,13,8,4,1,2021-08-07 12:55:19,645562
1,0,0,-7,-9,-2,-2,-2,2021-08-07 12:55:19,645562
1,1,4,11,10,4,3,3,2021-08-07 12:55:19,661562
0,1,1,-2,3,1,0,0,2021-08-07 12:55:19,661562
-1,-1,-3,-9,-10,-6,-4,-1,2021-08-07 12:55:19,692590
-3,-3,-3,-6,-8,-2,-3,-1,2021-08-07 12:55:19,692590
3,3,6,15,20,9,2,1,2021-08-07 12:55:19,692590
0,-1,-1,2,-1,0,-1,-2,2021-08-07 12:55:19,692590
-2,-3,-4,-4,-7,-5,-3,-1,2021-08-07 12:55:19,692590
0,-3,-4,-4,-4,-1,0,-1,2021-08-07 12:55:19,692590
1,3,3,6,21,11,8,4,2021-08-07 12:55:19,692590
0,3,2,4,2,2,2,0,2021-08-07 12:55:19,692590
0,1,0,0,-1,0,-1,1,2021-08-07 12:55:19,708563
-2,-3,-2,-3,-5,-5,-4,-3,2021-08-07 12:55:19,708563
-1,-1,-2,-1,-2,-4,-1,-2,2021-08-07 12:55:19,708563
-3,-1,0,-2,-4,0,-1,0,2021-08-07 12:55:19,708563
2,3,3,1,3,2,4,2,2021-08-07 12:55:19,739586
1,2,2,6,11,6,3,2,2021-08-07 12:55:19,739586
-3,-4,-5,-8,-18,-12,-7,-5,2021-08-07 12:55:19,739586
0,0,0,-3,-4,-3,-1,-3,2021-08-07 12:55:19,739586
1,0,-1,1,2,2,0,0,2021-08-07 12:55:19,755585
1,1,0,6,13,8,5,2,2021-08-07 12:55:19,755585
-1,-3,-2,-3,-2,-3,-1,-2,2021-08-07 12:55:19,755585
-1,0,-2,0,0,1,-2,1,2021-08-07 12:55:19,755585
0,0,0,-1,2,0,0,2,2021-08-07 12:55:19,787561
0,-1,0,-2,-5,-5,-1,1,2021-08-07 12:55:19,803561
0,-2,-5,-10,-12,-5,-4,-2,2021-08-07 12:55:19,803561
-3,-2,-3,1,11,8,1,-2,2021-08-07 12:55:19,803561
1,2,3,6,3,-1,2,0,2021-08-07 12:55:19,803561
-1,2,0,8,12,8,3,2,2021-08-07 12:55:19,803561
0,1,0,-6,-8,-4,-3,0,2021-08-07 12:55:19,803561
-5,-6,-5,-13,-25,-16,-9,-4,2021-08-07 12:55:19,803561
2,2,3,8,18,12,4,1,2021-08-07 12:55:19,819566
-2,-4,-3,-5,-7,-4,-3,-3,2021-08-07 12:55:19,819566
2,3,2,1,-1,2,1,1,2021-08-07 12:55:19,819566
-1,-3,-3,-5,-5,-5,-1,-2,2021-08-07 12:55:19,819566
-3,-2,-2,-2,-4,-4,-3,-2,2021-08-07 12:55:19,835598
1,0,0,1,2,1,2,-2,2021-08-07 12:55:19,851597
-1,-1,1,2,3,3,0,-1,2021-08-07 12:55:19,851597
-2,-2,-2,-3,-5,-3,-2,-1,2021-08-07 12:55:19,851597
-1,0,0,-2,-4,-6,-3,-1,2021-08-07 12:55:19,851597
0,-1,-2,-3,-1,-3,-1,0,2021-08-07 12:55:19,851597
-1,-1,-4,0,1,3,1,1,2021-08-07 12:55:19,851597
2,-2,-5,-1,2,-2,0,2,2021-08-07 12:55:19,852565
-1,-3,-3,2,5,6,4,0,2021-08-07 12:55:19,883562
-2,-2,0,3,5,2,0,0,2021-08-07 12:55:19,899567
-3,-3,0,0,-3,-4,-4,-3,2021-08-07 12:55:19,899567
-2,1,3,2,0,2,-1,0,2021-08-07 12:55:19,899567
-2,-1,-1,-6,-10,-6,-5,-4,2021-08-07 12:55:19,899567
3,2,2,-5,-11,-4,-3,0,2021-08-07 12:55:19,899567
-1,0,-1,3,11,6,2,0,2021-08-07 12:55:19,899567
-1,-2,-3,-1,-5,-5,-2,-3,2021-08-07 12:55:19,899567
2,1,0,1,6,5,2,1,2021-08-07 12:55:19,915566
1,0,-1,-1,1,-2,0,0,2021-08-07 12:55:19,931567
-1,-1,0,-2,-6,-5,-1,-2,2021-08-07 12:55:19,947597
-1,-2,-2,-3,-5,-1,0,-1,2021-08-07 12:55:19,947597
-2,-3,-3,0,1,-1,-2,-2,2021-08-07 12:55:19,979609
-3,-4,-5,1,-4,-1,-3,-3,2021-08-07 12:55:19,979609
0,-1,0,-4,-2,1,-1,-2,2021-08-07 12:55:19,979609
2,2,4,7,10,5,4,0,2021-08-07 12:55:19,981567
-3,-2,-3,-6,-13,-9,-4,-3,2021-08-07 12:55:19,981567
1,-1,3,6,9,6,2,2,2021-08-07 12:55:19,981567
-3,-4,-7,-10,-16,-11,-4,-2,2021-08-07 12:55:19,981567
3,1,3,7,20,13,5,3,2021-08-07 12:55:19,981567
0,1,-1,-2,-3,-2,-2,-1,2021-08-07 12:55:19,981567
0,2,3,2,1,-1,0,1,2021-08-07 12:55:19,982565
-1,0,-1,1,1,0,0,0,2021-08-07 12:55:19,982565
-1,-1,-1,-2,-6,-3,-3,-1,2021-08-07 12:55:19,982565
-2,-4,-3,-2,-2,-1,0,0,2021-08-07 12:55:19,995562
0,-1,-1,-1,1,0,0,0,2021-08-07 12:55:19,995562
1,2,0,-3,-7,-6,-2,-1,2021-08-07 12:55:19,995562
2,2,1,1,1,2,0,-1,2021-08-07 12:55:19,995562
-2,-2,-2,-2,-3,-2,-1,0,2021-08-07 12:55:20,027564
0,0,1,2,5,5,2,1,2021-08-07 12:55:20,027564
-2,-2,0,1,2,1,-1,-2,2021-08-07 12:55:20,027564
0,-1,-1,-7,-8,-4,-3,-1,2021-08-07 12:55:20,027564
0,3,2,3,8,4,2,0,2021-08-07 12:55:20,043559
-2,-3,-3,-6,-10,-4,-3,-2,2021-08-07 12:55:20,043559
-1,0,0,4,1,-2,-1,-2,2021-08-07 12:55:20,043559
-1,-1,-3,0,-6,-2,-2,-2,2021-08-07 12:55:20,043559
3,1,4,5,13,11,4,1,2021-08-07 12:55:20,058562
-2,0,-2,1,0,0,-2,-1,2021-08-07 12:55:20,074565
2,0,1,0,2,3,-1,1,2021-08-07 12:55:20,090598
-2,-3,-3,-6,-11,-10,-5,-1,2021-08-07 12:55:20,090598
0,-1,-1,-4,-7,-6,-4,-1,2021-08-07 12:55:20,090598
0,1,-2,0,2,1,0,0,2021-08-07 12:55:20,106561
-1,-2,0,0,0,1,1,0,2021-08-07 12:55:20,122561
1,1,-1,-2,-6,-3,-1,0,2021-08-07 12:55:20,122561
0,-1,-2,2,2,0,-1,-1,2021-08-07 12:55:20,138561
-2,-2,-2,1,1,-1,-2,-2,2021-08-07 12:55:20,138561
1,0,-1,-1,2,1,1,0,2021-08-07 12:55:20,138561
-1,0,-1,-5,-9,-7,-4,-2,2021-08-07 12:55:20,138561
-2,-1,-2,-1,-1,3,2,1,2021-08-07 12:55:20,138561
2,3,7,10,14,10,5,4,2021-08-07 12:55:20,138561
-2,-1,-3,1,4,2,1,-1,2021-08-07 12:55:20,139561
0,0,-1,1,3,0,1,-1,2021-08-07 12:55:20,139561
-3,-4,-5,-8,-15,-11,-5,-4,2021-08-07 12:55:20,139561
-3,-4,-5,-9,-12,-7,-6,-4,2021-08-07 12:55:20,139561
-2,-3,-1,-4,-5,0,0,-2,2021-08-07 12:55:20,139561
1,1,2,8,16,9,5,2,2021-08-07 12:55:20,139561
-2,0,-1,-3,-2,-3,-1,-1,2021-08-07 12:55:20,170563
-1,0,-1,1,2,2,1,-1,2021-08-07 12:55:20,186567
-2,0,-2,-2,-4,-3,-3,-1,2021-08-07 12:55:20,202562
-1,0,-2,-1,0,-1,0,0,2021-08-07 12:55:20,202562
-1,-3,-3,-1,-4,-3,-3,-1,2021-08-07 12:55:20,202562
-2,-3,-2,-10,-17,-10,-6,-2,2021-08-07 12:55:20,202562
1,2,5,12,22,11,7,3,2021-08-07 12:55:20,218563
0,-1,0,1,2,0,-2,-1,2021-08-07 12:55:20,234562
1,1,2,2,5,1,2,0,2021-08-07 12:55:20,250565
-3,-3,-4,-2,-3,-4,-1,-4,2021-08-07 12:55:20,266562
-3,-4,-5,-11,-18,-11,-6,-3,2021-08-07 12:55:20,266562
1,-1,-2,-9,-10,-4,-1,1,2021-08-07 12:55:20,266562
4,6,8,14,26,19,8,5,2021-08-07 12:55:20,266562
-1,-1,-1,-2,-6,-7,-1,-2,2021-08-07 12:55:20,266562
-3,-3,-3,0,0,-1,-2,-2,2021-08-07 12:55:20,266562
2,4,3,4,6,2,2,1,2021-08-07 12:55:20,267565
-3,-3,-4,-14,-22,-13,-6,-2,2021-08-07 12:55:20,267565
1,1,1,5,8,5,3,0,2021-08-07 12:55:20,267565
-2,0,1,4,7,4,2,-1,2021-08-07 12:55:20,267565
-4,-5,-5,-9,-15,-9,-6,-5,2021-08-07 12:55:20,267565
1,1,0,2,-2,-1,-2,0,2021-08-07 12:55:20,267565
0,0,1,2,11,7,3,2,2021-08-07 12:55:20,267565
0,0,-1,-1,-3,-4,-2,1,2021-08-07 12:55:20,267565
-3,-1,-3,-3,-9,-7,-4,-2,2021-08-07 12:55:20,267565
1,1,3,1,-1,2,0,-1,2021-08-07 12:55:20,268561
-4,-5,-5,-6,-3,-4,-4,-3,2021-08-07 12:55:20,282563
2,3,1,-1,-2,1,2,2,2021-08-07 12:55:20,298560
2,1,5,12,23,13,5,2,2021-08-07 12:55:20,314567
0,0,1,2,1,3,0,-2,2021-08-07 12:55:20,330559
0,-2,-5,-7,-14,-8,-4,-2,2021-08-07 12:55:20,330559
-3,-5,-4,-4,-7,-5,-4,-3,2021-08-07 12:55:20,330559
3,4,2,-3,-7,-2,2,2,2021-08-07 12:55:20,330559
2,3,2,13,28,19,8,1,2021-08-07 12:55:20,330559
1,2,2,0,-3,-2,-1,0,2021-08-07 12:55:20,331568
1,4,4,10,10,4,2,1,2021-08-07 12:55:20,331568
-1,-2,-3,-9,-6,-3,-2,-1,2021-08-07 12:55:20,331568
-8,-9,-9,-16,-21,-17,-10,-4,2021-08-07 12:55:20,331568
0,-3,-8,-6,-6,-3,-5,-2,2021-08-07 12:55:20,331568
-2,-3,-3,-5,-5,-4,-4,-3,2021-08-07 12:55:20,331568
-2,-2,-1,1,-5,0,-1,-2,2021-08-07 12:55:20,331568
2,1,1,2,-1,-2,2,1,2021-08-07 12:55:20,362562
-1,0,3,1,6,2,2,1,2021-08-07 12:55:20,362562
0,2,2,4,5,0,1,-1,2021-08-07 12:55:20,362562
-1,-3,-2,2,2,2,-1,-2,2021-08-07 12:55:20,362562
-2,0,0,1,5,2,1,0,2021-08-07 12:55:20,378563
-1,0,0,-3,-5,-4,-1,-1,2021-08-07 12:55:20,378563
1,-1,-2,-1,9,4,1,-2,2021-08-07 12:55:20,378563
-3,0,-1,1,3,1,0,0,2021-08-07 12:55:20,378563
-1,-1,-3,-9,-19,-13,-5,-2,2021-08-07 12:55:20,394562
1,2,2,7,10,7,3,0,2021-08-07 12:55:20,394562
-2,-2,-2,-1,1,1,1,0,2021-08-07 12:55:20,394562
-2,-3,-2,0,-1,-3,-2,-2,2021-08-07 12:55:20,394562
-2,-2,-3,-6,-11,-8,-4,-2,2021-08-07 12:55:20,426562
1,2,2,3,2,0,0,-1,2021-08-07 12:55:20,441565
0,0,1,2,6,3,3,1,2021-08-07 12:55:20,441565
0,0,-2,2,8,2,2,0,2021-08-07 12:55:20,441565
0,-1,0,-1,-1,-2,-1,-1,2021-08-07 12:55:20,441565
1,-1,2,-3,-3,-1,-1,0,2021-08-07 12:55:20,441565
0,-1,-2,-2,-7,-3,-4,-2,2021-08-07 12:55:20,441565
-3,-3,-5,-10,-14,-12,-5,-3,2021-08-07 12:55:20,442566
2,1,1,0,2,5,3,3,2021-08-07 12:55:20,457561
0,1,1,4,15,8,4,2,2021-08-07 12:55:20,462565
-2,-1,-1,-7,-6,-3,-2,-1,2021-08-07 12:55:20,462565
-1,0,-1,5,4,-1,0,0,2021-08-07 12:55:20,462565
-2,-2,-3,-8,-15,-7,-4,-3,2021-08-07 12:55:20,489562
0,-1,-2,2,-3,-3,-2,-1,2021-08-07 12:55:20,489562
3,-2,-3,0,3,5,3,1,2021-08-07 12:55:20,489562
0,1,2,4,7,3,2,-1,2021-08-07 12:55:20,489562
-2,-2,-3,-6,-8,-6,-3,-2,2021-08-07 12:55:20,489562
-2,-1,-1,0,2,1,1,-1,2021-08-07 12:55:20,489562
-2,0,-1,-5,-7,-5,-3,-1,2021-08-07 12:55:20,505560
1,-1,1,-1,-2,-2,-2,0,2021-08-07 12:55:20,505560
2,2,1,6,13,7,4,3,2021-08-07 12:55:20,520561
-2,-1,-1,-4,-5,-3,-1,-1,2021-08-07 12:55:20,535562
-3,-3,-3,-2,-6,-5,-4,-3,2021-08-07 12:55:20,550562
0,0,-2,0,1,2,2,1,2021-08-07 12:55:20,550562
1,-1,-1,-1,-1,-1,-3,0,2021-08-07 12:55:20,566561
1,-2,0,-3,-4,-3,-3,-4,2021-08-07 12:55:20,566561
-2,-1,-2,-4,-4,-5,-2,-1,2021-08-07 12:55:20,566561
2,2,3,4,4,3,3,0,2021-08-07 12:55:20,566561
0,0,0,1,3,0,0,0,2021-08-07 12:55:20,566561
1,0,1,6,14,10,3,2,2021-08-07 12:55:20,566561
-2,-1,-2,-5,-4,-2,-3,-3,2021-08-07 12:55:20,566561
1,0,0,-1,-1,0,0,0,2021-08-07 12:55:20,567564
-3,-3,-3,-6,-7,-7,-5,-4,2021-08-07 12:55:20,582562
-4,-4,-3,-7,-11,-8,-1,-4,2021-08-07 12:55:20,582562
3,4,4,8,11,6,3,2,2021-08-07 12:55:20,582562
0,0,0,-3,-4,-1,-1,1,2021-08-07 12:55:20,582562
1,0,0,1,5,3,2,0,2021-08-07 12:55:20,598567
-3,-2,-3,-5,-12,-7,-5,-1,2021-08-07 12:55:20,614595
-1,-1,-1,1,-1,-2,-1,1,2021-08-07 12:55:20,614595
-2,-2,-3,-3,-3,-3,-2,-4,2021-08-07 12:55:20,614595
1,2,1,9,11,8,3,1,2021-08-07 12:55:20,614595
0,1,0,-2,-2,0,1,-2,2021-08-07 12:55:20,614595
-2,-3,-5,-12,-16,-9,-3,-3,2021-08-07 12:55:20,614595
-4,-3,-1,2,-2,-2,-3,-4,2021-08-07 12:55:20,615565
4,6,6,10,22,14,6,5,2021-08-07 12:55:20,629559
0,-1,0,-2,3,-1,-1,-1,2021-08-07 12:55:20,629559
-1,-1,-1,-3,-1,-1,-2,0,2021-08-07 12:55:20,629559
-1,-3,0,-4,-4,-4,-1,-2,2021-08-07 12:55:20,629559
-6,-4,-4,-7,-11,-9,-5,-4,2021-08-07 12:55:20,661563
1,1,-2,-2,-5,0,2,1,2021-08-07 12:55:20,661563
2,3,7,6,11,9,4,3,2021-08-07 12:55:20,661563
0,-1,-6,-4,-3,-2,-2,-1,2021-08-07 12:55:20,677598
-1,-4,-4,-2,-3,-3,-3,-2,2021-08-07 12:55:20,693566
0,2,0,-1,-2,-1,-1,2,2021-08-07 12:55:20,693566
-3,-4,-4,-5,-8,-5,-2,-4,2021-08-07 12:55:20,693566
-1,1,3,1,7,4,0,2,2021-08-07 12:55:20,693566
-1,-4,-1,-4,-7,-4,-4,-1,2021-08-07 12:55:20,709563
1,2,-1,1,3,3,1,2,2021-08-07 12:55:20,709563
-2,-2,-2,-5,-12,-6,-4,-2,2021-08-07 12:55:20,709563
0,0,0,3,3,2,-1,-1,2021-08-07 12:55:20,709563
0,0,-2,-3,9,3,-1,0,2021-08-07 12:55:20,725604
-2,-2,-1,0,1,-1,-2,-3,2021-08-07 12:55:20,725604
2,3,1,2,1,-1,1,0,2021-08-07 12:55:20,741565
0,-2,-3,-5,-8,-5,0,1,2021-08-07 12:55:20,741565
-3,-4,-5,-8,-13,-6,0,-1,2021-08-07 12:55:20,757562
1,-1,2,5,7,2,1,0,2021-08-07 12:55:20,789566
-2,0,1,6,10,9,4,2,2021-08-07 12:55:20,789566
-3,-1,0,2,0,-3,-2,-3,2021-08-07 12:55:20,789566
-4,-1,2,2,4,2,-1,-2,2021-08-07 12:55:20,789566
-1,-1,1,-2,-4,-2,-4,-2,2021-08-07 12:55:20,789566
-2,-1,-1,-1,-5,-4,-1,-3,2021-08-07 12:55:20,789566
2,2,1,-1,1,2,1,1,2021-08-07 12:55:20,789566
1,2,1,-4,-6,-2,-1,0,2021-08-07 12:55:20,789566
-1,2,-1,-2,-4,-3,0,1,2021-08-07 12:55:20,789566
-2,-2,-1,-1,-1,-2,-4,0,2021-08-07 12:55:20,790562
1,-2,1,4,5,6,3,1,2021-08-07 12:55:20,790562
-2,0,-2,-4,-5,-3,-3,-1,2021-08-07 12:55:20,805561
-2,-2,0,0,0,2,-1,-1,2021-08-07 12:55:20,805561
3,2,4,3,4,1,2,3,2021-08-07 12:55:20,805561
-4,-1,-1,1,2,0,2,-1,2021-08-07 12:55:20,805561
0,-3,-1,4,0,-1,-2,-2,2021-08-07 12:55:20,821598
-2,-4,-5,-7,-6,-4,-3,-3,2021-08-07 12:55:20,821598
0,0,-1,-3,-1,0,-1,2,2021-08-07 12:55:20,821598
-1,0,-1,-1,1,-2,-3,-2,2021-08-07 12:55:20,821598
0,0,0,1,-1,-1,-1,0,2021-08-07 12:55:20,837562
-1,0,0,1,0,0,-1,0,2021-08-07 12:55:20,837562
-2,-3,-3,-1,-2,-1,-3,-1,2021-08-07 12:55:20,837562
0,1,0,-1,2,1,1,0,2021-08-07 12:55:20,837562
-1,-1,0,2,0,-2,0,0,2021-08-07 12:55:20,868564
1,-2,-2,-3,-4,-3,-1,-1,2021-08-07 12:55:20,868564
-1,-2,0,-1,2,0,0,-3,2021-08-07 12:55:20,868564
-2,0,-2,-2,-2,0,-2,0,2021-08-07 12:55:20,868564
0,1,2,1,-1,0,0,-1,2021-08-07 12:55:20,868564
-3,-2,-3,-3,-2,-2,-1,-1,2021-08-07 12:55:20,868564
-1,0,0,-1,-1,0,-1,0,2021-08-07 12:55:20,868564
0,-2,0,2,0,-1,0,0,2021-08-07 12:55:20,868564
0,0,-2,-1,-1,-2,-1,1,2021-08-07 12:55:20,900560
-3,-2,-4,-5,-4,-2,-2,-2,2021-08-07 12:55:20,900560
-1,-2,-1,3,0,-1,1,-1,2021-08-07 12:55:20,900560
-2,1,-1,-1,-1,-2,-2,-1,2021-08-07 12:55:20,900560
-1,0,0,4,7,5,3,1,2021-08-07 12:55:20,932561
0,-1,1,-1,-4,-5,-2,-1,2021-08-07 12:55:20,948560
1,2,-1,2,2,-2,2,1,2021-08-07 12:55:20,964566
-1,-3,-2,-2,-1,-1,0,-1,2021-08-07 12:55:20,964566
-3,-3,0,-6,-4,-4,-2,-2,2021-08-07 12:55:20,964566
0,0,-1,0,1,2,2,0,2021-08-07 12:55:20,964566
-1,-4,-3,-6,-7,-4,-5,-3,2021-08-07 12:55:20,964566
3,1,3,8,13,7,3,2,2021-08-07 12:55:20,964566
-1,-1,-3,-2,-4,-2,-2,-2,2021-08-07 12:55:20,965565
-1,-1,-2,0,0,-1,-2,-2,2021-08-07 12:55:20,965565
-1,-3,-3,-9,-12,-8,-5,-5,2021-08-07 12:55:20,965565
1,0,1,-2,1,4,2,2,2021-08-07 12:55:20,965565
0,1,0,3,4,1,3,1,2021-08-07 12:55:20,980561
1,-2,0,0,-2,0,1,2,2021-08-07 12:55:20,996562
1,3,2,7,9,3,3,1,2021-08-07 12:55:21,012609
-1,-3,-4,-5,-9,-4,-4,-2,2021-08-07 12:55:21,028588
0,-2,-1,-5,-8,-4,-4,-1,2021-08-07 12:55:21,044561
-2,-2,-1,-2,-8,-5,-3,-2,2021-08-07 12:55:21,044561
3,3,1,3,15,12,5,2,2021-08-07 12:55:21,044561
0,2,1,5,8,4,2,1,2021-08-07 12:55:21,044561
1,0,0,0,-2,-2,-2,-1,2021-08-07 12:55:21,044561
-4,-4,-3,-2,-3,-4,-4,-1,2021-08-07 12:55:21,044561
-2,-3,-3,-5,-7,-5,-4,-2,2021-08-07 12:55:21,044561
-2,-4,0,0,-1,-2,-2,-2,2021-08-07 12:55:21,044561
0,0,-2,-4,-8,-4,-1,-1,2021-08-07 12:55:21,044561
-1,1,0,-1,1,-1,-1,1,2021-08-07 12:55:21,045563
-4,-2,-3,-3,-3,-1,-3,0,2021-08-07 12:55:21,045563
3,4,3,3,4,3,2,2,2021-08-07 12:55:21,045563
0,-1,-2,1,-1,1,-1,-1,2021-08-07 12:55:21,060561
-1,-1,-1,-1,5,0,-1,-3,2021-08-07 12:55:21,076602
1,1,-1,-3,-5,-3,0,-1,2021-08-07 12:55:21,076602
3,2,1,0,0,2,2,1,2021-08-07 12:55:21,076602
-1,-3,-1,-1,-3,-5,-3,-2,2021-08-07 12:55:21,076602
-1,-2,-3,-4,-13,-9,-6,-3,2021-08-07 12:55:21,077565
0,2,3,9,18,13,5,1,2021-08-07 12:55:21,077565
-1,0,0,-1,2,1,-2,0,2021-08-07 12:55:21,077565
-1,2,0,-2,1,1,1,-2,2021-08-07 12:55:21,108561
-2,-3,-5,-4,-9,-9,-4,-2,2021-08-07 12:55:21,108561
-6,-8,-9,-16,-18,-12,-6,-4,2021-08-07 12:55:21,108561
4,4,6,15,27,19,9,4,2021-08-07 12:55:21,108561
0,0,-2,3,7,4,0,0,2021-08-07 12:55:21,124565
1,2,2,3,5,3,2,0,2021-08-07 12:55:21,140562
-3,-3,-4,-4,-11,-10,-4,-3,2021-08-07 12:55:21,140562
-5,-5,-6,-11,-20,-15,-7,-5,2021-08-07 12:55:21,140562
0,0,3,2,8,6,3,2,2021-08-07 12:55:21,140562
1,2,3,6,10,7,4,2,2021-08-07 12:55:21,140562
2,0,1,1,2,2,1,1,2021-08-07 12:55:21,140562
-3,-3,-2,-5,-10,-7,-3,-2,2021-08-07 12:55:21,141564
-2,-2,-4,-1,-7,-8,-4,-3,2021-08-07 12:55:21,171589
0,0,-2,-5,-4,1,-1,0,2021-08-07 12:55:21,171589
2,2,1,-1,-3,-2,0,0,2021-08-07 12:55:21,171589
0,2,-1,-2,6,7,1,0,2021-08-07 12:55:21,171589
-2,-3,-1,2,0,-2,-2,-2,2021-08-07 12:55:21,171589
10,10,10,11,12,18,24,15,2021-08-07 12:55:21,171589
11,8,8,12,23,23,15,11,2021-08-07 12:55:21,187564
4,2,-1,-3,-11,-19,-23,-4,2021-08-07 12:55:21,187564
-33,-20,-21,-27,-35,-44,-45,-35,2021-08-07 12:55:21,203561
-7,-7,-7,-5,-3,-4,-8,-4,2021-08-07 12:55:21,218590
-4,-4,-2,-2,-9,-6,-1,-2,2021-08-07 12:55:21,234563
9,8,7,2,1,12,22,11,2021-08-07 12:55:21,250565
11,7,5,10,21,34,36,21,2021-08-07 12:55:21,250565
4,2,5,5,-1,-3,-5,-2,2021-08-07 12:55:21,250565
-8,-6,-8,-13,-18,-32,-35,-18,2021-08-07 12:55:21,250565
-6,-2,0,0,3,-3,-6,-7,2021-08-07 12:55:21,250565
4,2,1,1,-1,0,0,2,2021-08-07 12:55:21,250565
-2,-4,-3,-3,3,5,6,0,2021-08-07 12:55:21,251561
5,4,3,7,7,12,12,9,2021-08-07 12:55:21,251561
-2,-3,-2,0,-2,2,8,0,2021-08-07 12:55:21,251561
6,1,2,2,3,7,11,7,2021-08-07 12:55:21,251561
7,5,5,5,7,3,-2,5,2021-08-07 12:55:21,251561
-18,-10,-13,-12,-16,-19,-22,-20,2021-08-07 12:55:21,251561
-10,-8,-9,-11,-12,-11,-10,-8,2021-08-07 12:55:21,251561
7,7,6,6,6,10,13,11,2021-08-07 12:55:21,281562
1,-3,-3,-5,-6,-2,-1,1,2021-08-07 12:55:21,297606
4,7,8,10,16,9,4,1,2021-08-07 12:55:21,313559
-3,-3,-2,-1,-4,-4,0,-2,2021-08-07 12:55:21,329559
6,5,5,0,0,2,1,5,2021-08-07 12:55:21,329559
-9,-5,-4,1,12,1,-8,-7,2021-08-07 12:55:21,329559
0,-4,-2,-3,-4,2,5,1,2021-08-07 12:55:21,329559
3,0,1,1,1,3,4,2,2021-08-07 12:55:21,330560
-3,-3,-4,-9,-19,-20,-14,-7,2021-08-07 12:55:21,330560
-6,-3,-3,-3,-4,-4,-3,-4,2021-08-07 12:55:21,333562
1,2,2,-4,-3,4,8,4,2021-08-07 12:55:21,333562
2,1,0,3,5,2,-2,0,2021-08-07 12:55:21,333562
-2,-1,1,5,7,1,-4,-3,2021-08-07 12:55:21,334564
-6,-5,-5,-7,-6,-5,-2,-6,2021-08-07 12:55:21,334564
4,2,2,-1,1,4,3,6,2021-08-07 12:55:21,334564
-3,-2,-1,1,-3,-5,-6,-2,2021-08-07 12:55:21,334564
1,1,2,6,10,5,0,-2,2021-08-07 12:55:21,361563
-1,-1,-4,-12,-17,-10,-2,-2,2021-08-07 12:55:21,377597
0,-3,-3,3,2,0,-2,0,2021-08-07 12:55:21,377597
-1,1,-2,-1,5,2,-2,1,2021-08-07 12:55:21,377597
-1,0,0,3,7,2,3,1,2021-08-07 12:55:21,393563
-2,-5,-4,-5,-7,-8,-6,-4,2021-08-07 12:55:21,393563
0,-3,-3,-7,-16,-8,-1,-2,2021-08-07 12:55:21,393563
-1,0,1,-3,1,0,-1,-1,2021-08-07 12:55:21,393563
1,0,-1,0,2,2,0,0,2021-08-07 12:55:21,393563
1,2,3,1,9,7,1,0,2021-08-07 12:55:21,393563
-3,0,-4,-1,-3,-7,-2,-1,2021-08-07 12:55:21,393563
-4,-10,-13,-17,-22,-13,-5,-5,2021-08-07 12:55:21,394562
0,0,5,-11,-9,-8,-4,0,2021-08-07 12:55:21,409598
-5,-4,-3,0,-22,-15,-8,-7,2021-08-07 12:55:21,409598
6,5,6,33,47,37,17,8,2021-08-07 12:55:21,425586
4,5,1,8,17,10,7,4,2021-08-07 12:55:21,425586
-10,-13,-19,-42,-36,-22,-15,-8,2021-08-07 12:55:21,441561
-3,-5,-2,-19,-31,-18,-9,-3,2021-08-07 12:55:21,441561
5,6,9,18,33,22,9,4,2021-08-07 12:55:21,441561
-1,1,1,9,2,0,-1,-2,2021-08-07 12:55:21,441561
0,1,4,10,8,3,2,1,2021-08-07 12:55:21,457562
-2,-3,-6,-15,-19,-14,-7,-2,2021-08-07 12:55:21,457562
4,6,6,10,21,15,10,5,2021-08-07 12:55:21,457562
1,2,6,11,24,12,4,0,2021-08-07 12:55:21,457562
1,0,0,7,7,3,1,-1,2021-08-07 12:55:21,473597
0,-1,-4,-3,-6,-6,-4,-3,2021-08-07 12:55:21,473597
-7,-10,-11,-27,-42,-27,-14,-7,2021-08-07 12:55:21,489586
3,4,5,5,9,12,5,4,2021-08-07 12:55:21,489586
-1,2,1,4,8,3,1,0,2021-08-07 12:55:21,505585
3,3,0,12,24,15,7,2,2021-08-07 12:55:21,521586
-6,-5,-4,-18,-24,-17,-9,-6,2021-08-07 12:55:21,521586
-2,-3,-4,-14,-23,-13,-6,-3,2021-08-07 12:55:21,537562
4,2,4,17,14,7,3,2,2021-08-07 12:55:21,569565
2,3,5,11,18,11,5,2,2021-08-07 12:55:21,569565
-3,-2,-4,-5,-14,-14,-6,-3,2021-08-07 12:55:21,569565
-5,-4,-5,-17,-25,-11,-6,-3,2021-08-07 12:55:21,569565
0,-2,-2,-2,10,9,2,0,2021-08-07 12:55:21,569565
0,0,1,3,9,5,2,2,2021-08-07 12:55:21,569565
-2,0,0,4,12,5,1,-1,2021-08-07 12:55:21,569565
-1,-1,-2,0,-7,-8,-4,-2,2021-08-07 12:55:21,569565
-2,1,0,-3,-13,-7,-4,-2,2021-08-07 12:55:21,570565
2,2,1,6,9,5,4,1,2021-08-07 12:55:21,570565
-1,-3,-1,-5,-7,-6,-4,-2,2021-08-07 12:55:21,570565
0,-1,-1,1,-2,-1,-1,-1,2021-08-07 12:55:21,570565
-2,-4,-2,1,1,0,-2,-1,2021-08-07 12:55:21,600563
-3,-2,-1,-6,-12,-6,-4,-1,2021-08-07 12:55:21,600563
3,5,4,14,20,15,9,4,2021-08-07 12:55:21,600563
-1,0,-2,1,7,2,0,-1,2021-08-07 12:55:21,600563
-1,-1,-5,-8,-12,-7,-3,-3,2021-08-07 12:55:21,600563
2,2,3,1,-2,-3,-2,0,2021-08-07 12:55:21,600563
1,0,2,4,1,2,1,1,2021-08-07 12:55:21,601564
1,-1,-1,-4,-9,-6,-1,1,2021-08-07 12:55:21,601564
3,3,1,8,16,13,6,3,2021-08-07 12:55:21,616560
0,-1,-4,-1,3,1,2,-1,2021-08-07 12:55:21,616560
-3,-5,-3,-10,-13,-7,-4,-3,2021-08-07 12:55:21,631562
-4,-1,1,6,8,2,-1,-3,2021-08-07 12:55:21,647562
-5,-2,0,0,-11,-7,-4,-3,2021-08-07 12:55:21,647562
-2,2,3,5,10,5,1,0,2021-08-07 12:55:21,647562
2,1,-1,-5,-10,-8,-4,-2,2021-08-07 12:55:21,647562
-3,-1,-2,-7,-12,-6,-5,-2,2021-08-07 12:55:21,647562
2,1,-1,-4,-7,-4,-2,1,2021-08-07 12:55:21,663604
2,1,2,14,23,14,6,4,2021-08-07 12:55:21,679587
-3,-2,-3,-7,-8,-7,-2,-2,2021-08-07 12:55:21,695598
0,1,0,-7,-3,-1,-1,2,2021-08-07 12:55:21,711565
-1,-1,1,7,3,-1,0,-1,2021-08-07 12:55:21,711565
-3,-1,-4,-16,-20,-9,-5,-2,2021-08-07 12:55:21,711565
2,1,-1,10,14,7,3,1,2021-08-07 12:55:21,727588
1,4,2,10,15,9,6,3,2021-08-07 12:55:21,727588
0,-1,1,-1,-5,-4,-2,-2,2021-08-07 12:55:21,727588
-4,-4,-5,-8,-10,-8,-3,-3,2021-08-07 12:55:21,727588
-5,-5,-4,-13,-18,-11,-7,-4,2021-08-07 12:55:21,727588
1,1,3,8,11,6,2,1,2021-08-07 12:55:21,727588
0,-2,-4,-7,-5,-3,-1,0,2021-08-07 12:55:21,727588
-2,-2,-3,-4,-2,-2,-2,-1,2021-08-07 12:55:21,728566
2,1,1,0,-2,1,2,1,2021-08-07 12:55:21,728566
-3,-3,-3,2,2,-1,0,-2,2021-08-07 12:55:21,728566
1,2,1,-2,-2,0,1,1,2021-08-07 12:55:21,743586
0,-1,-1,2,0,-4,-2,-3,2021-08-07 12:55:21,743586
-1,1,1,2,0,1,1,1,2021-08-07 12:55:21,743586
-1,-3,-1,-4,-5,-4,-3,-1,2021-08-07 12:55:21,743586
-3,-1,-1,1,5,3,0,-3,2021-08-07 12:55:21,759560
0,-1,-1,-2,2,3,1,1,2021-08-07 12:55:21,769567
-2,-2,-1,1,-1,-2,-4,-3,2021-08-07 12:55:21,769567
2,1,0,-3,-7,-5,-1,-1,2021-08-07 12:55:21,769567
0,1,1,0,-2,-2,-2,1,2021-08-07 12:55:21,790562
-5,-3,-5,-16,-14,-5,-2,-3,2021-08-07 12:55:21,790562
2,4,5,19,35,19,9,2,2021-08-07 12:55:21,790562
0,1,0,5,1,0,-1,-2,2021-08-07 12:55:21,790562
-2,-2,-3,1,1,-1,-2,-1,2021-08-07 12:55:21,806566
1,0,-3,-6,-13,-8,-2,-1,2021-08-07 12:55:21,806566
-4,-8,-9,-26,-18,-7,-5,-3,2021-08-07 12:55:21,806566
2,3,3,7,11,9,3,2,2021-08-07 12:55:21,806566
0,0,5,10,4,2,1,0,2021-08-07 12:55:21,822561
0,-2,-1,6,2,-4,-2,-1,2021-08-07 12:55:21,822561
-1,-1,-2,-6,-9,-5,-1,1,2021-08-07 12:55:21,822561
-1,-2,-2,-3,0,-2,-3,-2,2021-08-07 12:55:21,822561
-1,-4,0,0,1,0,-1,-2,2021-08-07 12:55:21,854608
2,2,2,9,10,6,2,0,2021-08-07 12:55:21,854608
1,4,4,7,0,2,2,1,2021-08-07 12:55:21,854608
-4,-5,-7,-15,-15,-10,-5,-3,2021-08-07 12:55:21,854608
2,2,0,1,10,8,4,2,2021-08-07 12:55:21,854608
-1,-1,0,-1,5,2,0,-1,2021-08-07 12:55:21,854608
0,1,2,4,3,1,1,2,2021-08-07 12:55:21,854608
-1,-1,0,-3,-5,-3,-2,-1,2021-08-07 12:55:21,854608
-5,-6,-6,-11,-16,-10,-4,-4,2021-08-07 12:55:21,886565
3,1,1,7,16,10,4,4,2021-08-07 12:55:21,886565
-2,-3,-3,-6,-9,-7,-5,-2,2021-08-07 12:55:21,886565
-1,1,3,4,3,1,0,2,2021-08-07 12:55:21,886565
0,1,5,0,0,0,0,0,2021-08-07 12:55:21,902567
-2,-4,-11,-2,-9,-6,-2,-3,2021-08-07 12:55:21,918561
-4,-8,-6,-14,-15,-11,-5,-7,2021-08-07 12:55:21,918561
-2,-4,-3,0,-1,3,2,-2,2021-08-07 12:55:21,918561
3,2,1,7,15,8,5,3,2021-08-07 12:55:21,919071
1,5,10,14,14,7,3,0,2021-08-07 12:55:21,919071
-1,1,-1,5,-1,-2,-2,-1,2021-08-07 12:55:21,919071
1,1,-1,-9,-13,-5,-2,0,2021-08-07 12:55:21,919563
-3,-3,-4,-5,-1,-2,-2,-2,2021-08-07 12:55:21,950607
-1,-1,-2,-2,1,1,1,1,2021-08-07 12:55:21,950607
-2,-2,-2,-7,-11,-8,-5,-2,2021-08-07 12:55:21,950607
2,0,3,3,4,0,0,0,2021-08-07 12:55:21,950607
0,1,-3,6,4,4,2,0,2021-08-07 12:55:21,966607
-1,-2,-3,-10,-12,-9,-6,-2,2021-08-07 12:55:21,982606
0,1,2,7,6,6,4,2,2021-08-07 12:55:21,998609
-1,-2,-1,3,3,-1,-1,-2,2021-08-07 12:55:22,014630
-2,-2,-3,-6,-12,-6,-4,-1,2021-08-07 12:55:22,014630
-1,-2,3,0,7,5,0,-2,2021-08-07 12:55:22,014630
2,4,5,11,8,4,3,1,2021-08-07 12:55:22,014630
-1,-2,-3,-2,-5,-4,-2,-1,2021-08-07 12:55:22,014630
-2,-1,-2,-6,-8,-5,-3,-2,2021-08-07 12:55:22,015610
-3,-2,-5,-9,-7,-4,-4,-2,2021-08-07 12:55:22,015610
0,-1,-2,0,-3,1,-1,1,2021-08-07 12:55:22,015610
-1,-1,-1,3,10,2,1,0,2021-08-07 12:55:22,015610
0,0,1,-1,-5,-3,-3,0,2021-08-07 12:55:22,015610
0,1,-1,-2,-6,-3,0,-1,2021-08-07 12:55:22,015610
1,3,2,5,16,11,6,1,2021-08-07 12:55:22,015610
-1,2,2,4,0,-3,-2,0,2021-08-07 12:55:22,015610
2,-2,-2,-2,-3,-3,0,-1,2021-08-07 12:55:22,030607
-1,-2,0,2,0,-1,-3,-1,2021-08-07 12:55:22,030607
-2,-4,-4,-3,-2,-2,-3,-3,2021-08-07 12:55:22,046633
-1,-2,-4,-11,-12,-5,-2,-1,2021-08-07 12:55:22,046633
-1,1,2,3,2,2,1,1,2021-08-07 12:55:22,062606
1,4,5,15,14,5,3,2,2021-08-07 12:55:22,062606
-2,-4,-4,-1,-2,-3,-2,-2,2021-08-07 12:55:22,062606
-1,-3,-7,-20,-12,-4,-2,0,2021-08-07 12:55:22,062606
-4,-7,-5,-6,-7,-7,-5,-4,2021-08-07 12:55:22,094643
0,-2,-1,-6,-8,-3,-2,0,2021-08-07 12:55:22,110633
3,1,4,11,16,4,3,3,2021-08-07 12:55:22,110633
0,3,0,3,-5,-6,-2,-3,2021-08-07 12:55:22,110633
2,4,3,7,12,8,7,2,2021-08-07 12:55:22,110633
1,2,2,6,9,6,4,2,2021-08-07 12:55:22,126643
-1,-1,-1,-3,-4,-4,-3,-3,2021-08-07 12:55:22,142609
-1,0,1,-3,-3,2,0,0,2021-08-07 12:55:22,142609
-2,-4,-8,-19,-22,-14,-8,-3,2021-08-07 12:55:22,142609
-1,-1,3,10,16,9,3,1,2021-08-07 12:55:22,142609
1,2,1,-2,-3,-4,-1,1,2021-08-07 12:55:22,142609
-2,-3,-3,5,-2,-4,-2,-3,2021-08-07 12:55:22,142609
-3,-1,-1,1,-4,-2,-1,-1,2021-08-07 12:55:22,143609
0,0,-3,-9,-3,-1,1,0,2021-08-07 12:55:22,143609
-4,-2,-2,-4,-8,-5,-4,-3,2021-08-07 12:55:22,143609
3,6,10,6,11,6,4,4,2021-08-07 12:55:22,143609
-3,-3,-14,-1,0,-1,-2,-1,2021-08-07 12:55:22,157610
-1,-2,-2,-3,-4,-4,-2,-1,2021-08-07 12:55:22,157610
0,3,2,-4,-7,-3,1,0,2021-08-07 12:55:22,157610
-3,-4,0,1,-5,-1,-3,-4,2021-08-07 12:55:22,157610
1,3,9,10,15,8,4,2,2021-08-07 12:55:22,173829
0,2,1,9,6,1,2,1,2021-08-07 12:55:22,173829
-5,-6,-9,-26,-26,-12,-6,-4,2021-08-07 12:55:22,173829
-3,-5,-4,-4,7,6,2,1,2021-08-07 12:55:22,173829
-1,-2,0,-9,-9,-8,-4,-2,2021-08-07 12:55:22,217609
1,0,1,5,0,1,0,-1,2021-08-07 12:55:22,217609
-1,1,0,4,-4,-6,-2,-2,2021-08-07 12:55:22,217609
0,-1,-3,3,4,3,2,2,2021-08-07 12:55:22,217609
-1,1,4,13,16,9,2,1,2021-08-07 12:55:22,217609
-3,0,-2,-7,-10,-5,-3,-2,2021-08-07 12:55:22,217609
2,2,3,9,13,7,5,4,2021-08-07 12:55:22,218610
-3,-4,-3,-4,-7,-6,-3,-4,2021-08-07 12:55:22,218610
-1,-2,-2,1,-3,-2,-2,-2,2021-08-07 12:55:22,237635
0,-1,-2,-8,-8,-4,-3,0,2021-08-07 12:55:22,253606
1,-3,-4,-9,-3,-3,-3,-2,2021-08-07 12:55:22,253606
0,-1,-1,0,4,2,3,-2,2021-08-07 12:55:22,253606
-3,-2,3,-4,-7,-7,-5,-3,2021-08-07 12:55:22,269642
4,2,2,8,0,1,3,2,2021-08-07 12:55:22,285606
-3,-2,-2,3,2,1,-2,-1,2021-08-07 12:55:22,285606
6,5,5,8,26,15,8,6,2021-08-07 12:55:22,285606
-4,-3,-7,-10,-11,-6,-4,-4,2021-08-07 12:55:22,285606
-3,-3,-2,-3,-2,0,0,0,2021-08-07 12:55:22,285606
-2,0,0,-1,-7,-6,-4,-3,2021-08-07 12:55:22,286612
-5,-6,-6,-8,-23,-17,-9,-6,2021-08-07 12:55:22,286612
4,3,5,7,2,5,4,4,2021-08-07 12:55:22,301604
1,0,-1,-1,10,5,2,-1,2021-08-07 12:55:22,301604
3,3,4,6,13,6,4,2,2021-08-07 12:55:22,301604
-4,-5,-6,-7,-11,-8,-6,-3,2021-08-07 12:55:22,301604
-3,-5,-2,-9,-8,-6,-4,-4,2021-08-07 12:55:22,333642
-2,-4,-1,-6,-12,-7,-5,-3,2021-08-07 12:55:22,348642
0,0,0,0,-3,0,-1,0,2021-08-07 12:55:22,348642
2,2,4,15,17,8,4,3,2021-08-07 12:55:22,348642
-1,-3,-3,-3,-5,-5,-1,-1,2021-08-07 12:55:22,348642
1,4,3,4,15,12,7,3,2021-08-07 12:55:22,364604
0,0,-3,-6,2,2,1,0,2021-08-07 12:55:22,380607
-3,-3,-3,-8,-10,-7,-4,-2,2021-08-07 12:55:22,396643
1,-2,-1,1,0,0,1,-2,2021-08-07 12:55:22,428633
-2,-2,-1,1,-4,-6,-3,-3,2021-08-07 12:55:22,444609
-1,-3,-2,-2,-6,-3,0,0,2021-08-07 12:55:22,460607
-2,1,3,1,-1,-1,-3,2,2021-08-07 12:55:22,460607
0,0,-1,-3,1,0,0,2,2021-08-07 12:55:22,460607
0,0,0,5,11,3,2,1,2021-08-07 12:55:22,460607
-2,-2,-3,-1,-2,-2,-2,-1,2021-08-07 12:55:22,460607
1,-2,1,4,2,1,0,-1,2021-08-07 12:55:22,460607
-1,2,0,1,8,5,1,1,2021-08-07 12:55:22,460607
-1,-1,-3,-8,-13,-6,-5,-2,2021-08-07 12:55:22,475630
1,3,4,8,17,9,4,3,2021-08-07 12:55:22,475630
-1,0,-2,-10,-14,-8,-3,-2,2021-08-07 12:55:22,475630
-2,-3,-2,3,8,5,1,-1,2021-08-07 12:55:22,475630
0,-3,-3,-4,4,3,2,0,2021-08-07 12:55:22,475630
2,2,2,6,7,4,3,2,2021-08-07 12:55:22,475630
-1,0,-2,0,-5,-4,-1,0,2021-08-07 12:55:22,476610
2,3,3,4,3,2,1,2,2021-08-07 12:55:22,476610
-2,-2,-1,-2,0,-3,-2,-2,2021-08-07 12:55:22,476610
-2,-3,-3,-1,-6,-2,-2,-1,2021-08-07 12:55:22,476610
0,-2,-1,-10,-10,-6,-2,-1,2021-08-07 12:55:22,476610
-3,-2,-3,-2,-7,-4,-3,-2,2021-08-07 12:55:22,476610
2,3,3,12,18,9,5,2,2021-08-07 12:55:22,476610
1,1,-1,-5,-4,-1,0,0,2021-08-07 12:55:22,476610
-1,-1,-2,-4,-4,-3,-3,-3,2021-08-07 12:55:22,477610
-1,-3,-2,-11,-10,-7,-4,-3,2021-08-07 12:55:22,477610
-2,-3,-2,-5,-13,-4,-2,1,2021-08-07 12:55:22,477610
-2,-1,-1,0,-5,-5,-3,-2,2021-08-07 12:55:22,477610
3,0,0,9,12,8,5,2,2021-08-07 12:55:22,477610
-3,-2,-1,4,12,6,2,-3,2021-08-07 12:55:22,523642
0,2,4,7,0,-2,-2,-2,2021-08-07 12:55:22,523642
-1,0,5,-2,-4,-2,-1,-2,2021-08-07 12:55:22,523642
-3,-2,0,1,-3,-4,-3,-3,2021-08-07 12:55:22,523642
-1,-2,-5,-4,-5,-3,-3,-3,2021-08-07 12:55:22,523642
-2,-2,-6,-4,-4,-4,-4,0,2021-08-07 12:55:22,523642
-2,-2,-2,-1,-5,-4,-4,0,2021-08-07 12:55:22,523642
0,-2,-2,-5,-6,-3,-3,0,2021-08-07 12:55:22,524610
1,4,3,6,14,6,3,4,2021-08-07 12:55:22,539609
-3,-5,-5,-7,-9,-6,-4,-3,2021-08-07 12:55:22,539609
0,1,0,0,1,0,-2,-2,2021-08-07 12:55:22,539609
1,3,4,14,21,15,7,5,2021-08-07 12:55:22,539609
1,0,-2,1,-5,-4,-3,1,2021-08-07 12:55:22,569606
-5,-6,-7,-19,-16,-11,-4,-3,2021-08-07 12:55:22,569606
0,1,-1,-2,0,-1,1,2,2021-08-07 12:55:22,569606
-2,-1,0,1,-4,-3,-2,-1,2021-08-07 12:55:22,569606
-1,0,-1,-1,1,0,-1,-2,2021-08-07 12:55:22,585634
4,4,6,10,4,4,5,3,2021-08-07 12:55:22,585634
-2,-3,-3,-1,-3,-5,-2,-3,2021-08-07 12:55:22,585634
0,1,0,2,4,2,0,0,2021-08-07 12:55:22,585634
0,0,1,8,9,0,0,1,2021-08-07 12:55:22,601606
-2,0,-3,-9,-12,-5,-5,-2,2021-08-07 12:55:22,616610
-3,-5,-6,-12,-9,-5,-3,-3,2021-08-07 12:55:22,616610
-1,-3,-3,-7,-8,-5,-2,0,2021-08-07 12:55:22,616610
2,4,4,-1,1,4,3,3,2021-08-07 12:55:22,616610
2,3,2,15,22,9,3,-1,2021-08-07 12:55:22,616610
3,2,1,4,8,5,3,1,2021-08-07 12:55:22,632643
-2,-1,-2,-1,1,-1,-3,-3,2021-08-07 12:55:22,632643
-4,-6,-6,-10,-17,-12,-7,-4,2021-08-07 12:55:22,648608
-1,-1,-1,-8,-10,-5,-4,-2,2021-08-07 12:55:22,648608
1,1,0,3,3,3,2,2,2021-08-07 12:55:22,648608
-2,-2,-5,-11,-6,-2,-2,-3,2021-08-07 12:55:22,648608
-1,-1,2,5,13,10,5,1,2021-08-07 12:55:22,664607
-2,-3,-2,1,-1,-1,-1,-1,2021-08-07 12:55:22,664607
-5,-4,-7,-10,-11,-9,-7,-4,2021-08-07 12:55:22,664607
1,2,4,4,-6,-4,-1,0,2021-08-07 12:55:22,664607
1,2,2,1,-3,-1,-2,0,2021-08-07 12:55:22,680654
1,2,2,6,17,12,6,3,2021-08-07 12:55:22,680654
-1,-1,-1,3,0,0,0,0,2021-08-07 12:55:22,680654
0,2,0,-5,-6,-2,0,0,2021-08-07 12:55:22,680654
-3,-2,-2,-10,-17,-9,-6,-3,2021-08-07 12:55:22,712630
0,-1,0,3,1,1,0,0,2021-08-07 12:55:22,728609
1,2,0,5,6,4,0,2,2021-08-07 12:55:22,728609
-1,-1,0,4,10,4,2,0,2021-08-07 12:55:22,728609
-2,-1,-1,-2,-4,-3,0,-1,2021-08-07 12:55:22,728609
-4,-4,-2,-5,-14,-10,-4,-4,2021-08-07 12:55:22,729608
0,0,3,4,6,4,1,-1,2021-08-07 12:55:22,729608
-1,-1,-1,5,5,2,0,0,2021-08-07 12:55:22,729608
0,-1,-5,-6,-8,-3,-2,-1,2021-08-07 12:55:22,760608
-3,-2,-3,-8,-9,-6,-3,-3,2021-08-07 12:55:22,776606
-5,-5,-3,-16,-13,-7,-3,-2,2021-08-07 12:55:22,791633
-2,-2,-2,-1,2,0,-1,0,2021-08-07 12:55:22,791633
3,4,6,12,12,5,3,2,2021-08-07 12:55:22,791633
0,-1,0,4,0,-2,0,-1,2021-08-07 12:55:22,791633
-2,-1,-2,-5,-4,-1,-1,-2,2021-08-07 12:55:22,791633
1,3,3,5,4,3,3,2,2021-08-07 12:55:22,791633
-3,-3,-2,3,5,1,0,-4,2021-08-07 12:55:22,823643
1,4,9,3,4,2,0,2,2021-08-07 12:55:22,823643
-1,0,-7,3,1,-1,0,0,2021-08-07 12:55:22,823643
-4,-8,-7,-10,-13,-9,-6,-5,2021-08-07 12:55:22,823643
0,-2,-1,0,8,2,0,-1,2021-08-07 12:55:22,839608
0,0,-1,-5,-12,-6,-4,0,2021-08-07 12:55:22,839608
-1,0,5,7,13,7,3,0,2021-08-07 12:55:22,839608
-2,-1,-1,-4,-3,-2,-1,-1,2021-08-07 12:55:22,839608
-2,0,-4,-3,-3,-2,-1,1,2021-08-07 12:55:22,839608
-2,-4,-2,-7,-9,-7,-5,-1,2021-08-07 12:55:22,839608
0,0,2,2,4,2,2,0,2021-08-07 12:55:22,840609
2,5,2,7,5,5,3,4,2021-08-07 12:55:22,840609
-1,0,0,-4,-7,-5,-4,-1,2021-08-07 12:55:22,840609
2,1,-1,5,10,8,4,0,2021-08-07 12:55:22,840609
-3,-5,-7,-23,-23,-9,-6,-3,2021-08-07 12:55:22,840609
0,0,0,5,13,6,1,-2,2021-08-07 12:55:22,841607
-1,0,1,1,-2,-1,-2,-1,2021-08-07 12:55:22,870643
1,1,-1,1,-5,-4,-1,1,2021-08-07 12:55:22,886607
-1,0,1,10,1,0,-1,1,2021-08-07 12:55:22,886607
0,0,2,-1,-3,-1,-1,0,2021-08-07 12:55:22,886607
0,-1,-2,0,5,4,2,0,2021-08-07 12:55:22,886607
0,1,-2,0,3,2,0,-1,2021-08-07 12:55:22,886607
-1,-1,0,-3,-4,-3,-2,-2,2021-08-07 12:55:22,886607
-3,-4,-6,-3,-3,-2,-3,-3,2021-08-07 12:55:22,886607
-1,-3,-1,-1,-5,-1,-2,-2,2021-08-07 12:55:22,918607
-2,-3,-2,-2,-4,-2,-3,0,2021-08-07 12:55:22,934650
6,8,9,16,25,14,10,5,2021-08-07 12:55:22,950605
-2,-2,-2,-1,-6,-7,-2,-1,2021-08-07 12:55:22,950605
-1,-3,-5,-10,-4,0,-1,1,2021-08-07 12:55:22,950605
-1,0,-2,-6,-4,-2,-1,-1,2021-08-07 12:55:22,950605
-1,0,-1,3,1,0,-1,0,2021-08-07 12:55:22,950605
-2,-2,1,4,1,-2,-3,0,2021-08-07 12:55:22,966607
-2,-2,-5,-6,-6,-6,-3,-2,2021-08-07 12:55:22,966607
-1,0,-6,-12,-8,-3,1,-2,2021-08-07 12:55:22,966607
-1,0,-1,-2,-4,-3,-2,-1,2021-08-07 12:55:22,966607
0,-1,-2,-3,-1,2,1,0,2021-08-07 12:55:22,966607
-1,0,2,6,9,4,2,1,2021-08-07 12:55:22,966607
0,0,3,10,8,2,1,1,2021-08-07 12:55:22,966607
0,1,1,2,-1,-2,0,-1,2021-08-07 12:55:22,966607
-2,-4,-4,-10,-7,-2,-2,-3,2021-08-07 12:55:22,967608
-3,-3,-1,-2,-11,-7,-4,-3,2021-08-07 12:55:22,982632
2,0,-1,1,0,2,1,0,2021-08-07 12:55:22,982632
2,1,0,4,6,3,2,2,2021-08-07 12:55:22,982632
0,-4,0,-4,-9,-8,-4,-2,2021-08-07 12:55:22,982632
2,4,5,11,22,17,8,4,2021-08-07 12:55:23,013821
0,-3,0,-5,1,0,0,0,2021-08-07 12:55:23,013821
-3,-4,-5,-5,-14,-8,-6,-4,2021-08-07 12:55:23,013821
2,6,2,7,14,6,2,3,2021-08-07 12:55:23,013821
-3,-3,-2,-4,-9,-9,-4,-3,2021-08-07 12:55:23,013821
-2,-1,0,6,0,-3,-1,-1,2021-08-07 12:55:23,013821
-3,-3,-4,-6,-6,-5,-2,-1,2021-08-07 12:55:23,013821
-3,-6,-9,-26,-17,-10,-4,-3,2021-08-07 12:55:23,028608
-2,-4,-3,-7,-7,-4,-3,-3,2021-08-07 12:55:23,044610
-2,-1,6,-1,1,0,-3,-3,2021-08-07 12:55:23,044610
3,2,-5,12,13,7,3,3,2021-08-07 12:55:23,044610
0,1,2,10,8,4,0,0,2021-08-07 12:55:23,044610
1,4,2,5,3,2,0,2,2021-08-07 12:55:23,076635
-3,-3,-6,-5,-12,-9,-4,-3,2021-08-07 12:55:23,092606
1,4,8,12,17,10,4,3,2021-08-07 12:55:23,100604
-1,-3,-3,-6,-10,-5,-2,-1,2021-08-07 12:55:23,100604
1,1,-1,-2,-1,0,0,-1,2021-08-07 12:55:23,100604
-3,1,-1,-1,-4,-2,-3,-1,2021-08-07 12:55:23,100604
-1,0,1,0,4,6,2,1,2021-08-07 12:55:23,100604
0,1,3,13,18,8,4,1,2021-08-07 12:55:23,101608
-3,-2,-5,-4,-7,-8,-4,-3,2021-08-07 12:55:23,101608
-4,-6,-9,-15,-15,-8,-4,-3,2021-08-07 12:55:23,101608
-3,-4,-5,-22,-24,-13,-6,-2,2021-08-07 12:55:23,101608
1,4,4,14,20,15,7,3,2021-08-07 12:55:23,101608
-1,-3,-3,-7,-10,-7,-4,-2,2021-08-07 12:55:23,123642
0,0,-3,5,10,6,1,0,2021-08-07 12:55:23,123642
1,0,3,4,0,-3,-1,0,2021-08-07 12:55:23,123642
-2,0,2,-1,-7,-5,-3,-2,2021-08-07 12:55:23,123642
0,1,-1,-1,0,1,1,2,2021-08-07 12:55:23,139606
1,1,-2,1,5,3,1,0,2021-08-07 12:55:23,139606
-3,-6,-5,-7,-15,-9,-6,-4,2021-08-07 12:55:23,155607
1,0,0,1,5,4,1,1,2021-08-07 12:55:23,155607
-3,-3,-3,-3,-6,-4,-4,-3,2021-08-07 12:55:23,155607
6,6,6,7,14,10,5,5,2021-08-07 12:55:23,155607
3,3,4,13,20,11,4,3,2021-08-07 12:55:23,171605
-5,-5,-6,-8,-14,-11,-6,-5,2021-08-07 12:55:23,171605
0,-1,-3,-8,-5,1,1,-1,2021-08-07 12:55:23,187605
0,-2,0,-3,-2,0,-1,-3,2021-08-07 12:55:23,187605
-3,-2,-3,-4,-10,-7,-5,-3,2021-08-07 12:55:23,187605
-1,-1,1,-3,-11,-7,-5,-1,2021-08-07 12:55:23,187605
3,5,4,21,27,15,6,3,2021-08-07 12:55:23,202642
0,2,-2,-4,4,4,3,3,2021-08-07 12:55:23,217642
0,-2,-5,-9,-2,-2,-2,0,2021-08-07 12:55:23,232642
-3,-5,-7,-11,-15,-10,-6,-4,2021-08-07 12:55:23,232642
-2,-3,2,-4,-10,-6,-2,-2,2021-08-07 12:55:23,232642
0,0,3,12,6,2,2,1,2021-08-07 12:55:23,232642
-1,-2,-2,1,-1,-1,1,1,2021-08-07 12:55:23,232642
-3,-1,-1,-9,-5,-2,-2,-3,2021-08-07 12:55:23,232642
2,3,3,4,6,4,3,3,2021-08-07 12:55:23,248645
0,1,2,6,8,3,2,1,2021-08-07 12:55:23,264607
-2,-1,1,-3,-4,-3,-1,-1,2021-08-07 12:55:23,279639
1,-2,-3,-1,0,0,0,1,2021-08-07 12:55:23,279639
0,-2,-1,0,4,1,1,-1,2021-08-07 12:55:23,279639
0,-1,-2,-4,-4,-2,-2,0,2021-08-07 12:55:23,279639
-1,1,1,1,-1,-1,-2,-1,2021-08-07 12:55:23,279639
-2,0,-1,-3,-5,-2,-2,-2,2021-08-07 12:55:23,279639
-1,-3,-3,-4,-4,-4,-3,-1,2021-08-07 12:55:23,280607
1,2,4,11,8,4,1,1,2021-08-07 12:55:23,280607
1,3,4,6,3,2,2,2,2021-08-07 12:55:23,280607
-3,-5,-7,-17,-16,-7,-4,-1,2021-08-07 12:55:23,280607
-1,-4,-6,-18,-9,-3,-2,-1,2021-08-07 12:55:23,311607
0,-2,-1,4,4,1,-2,-3,2021-08-07 12:55:23,326649
2,1,1,5,7,4,1,0,2021-08-07 12:55:23,342642
1,3,2,7,4,2,1,1,2021-08-07 12:55:23,357608
-5,-8,-7,-12,-20,-14,-8,-5,2021-08-07 12:55:23,373644
2,1,1,0,1,0,0,2,2021-08-07 12:55:23,373644
2,2,3,9,18,10,5,2,2021-08-07 12:55:23,373644
1,1,2,7,1,-2,-1,-1,2021-08-07 12:55:23,373644
0,1,1,6,6,2,2,0,2021-08-07 12:55:23,373644
-2,-2,-6,-16,-19,-9,-4,-3,2021-08-07 12:55:23,373644
-5,-6,-7,-14,-9,-6,-5,-4,2021-08-07 12:55:23,374609
1,0,2,2,8,5,2,0,2021-08-07 12:55:23,374609
-2,1,1,1,-4,-4,-5,-3,2021-08-07 12:55:23,374609
0,1,-1,3,-1,-1,0,0,2021-08-07 12:55:23,374609
1,2,2,8,4,3,1,0,2021-08-07 12:55:23,374609
-2,-3,-3,3,5,2,1,-1,2021-08-07 12:55:23,374609
4,3,1,4,7,6,3,1,2021-08-07 12:55:23,374609
-2,-3,-5,-16,-10,-5,-1,0,2021-08-07 12:55:23,374609
-1,-5,-4,-3,-1,0,1,1,2021-08-07 12:55:23,389644
-2,-3,0,-1,3,1,-1,-1,2021-08-07 12:55:23,389644
-6,-3,1,1,-8,-6,-4,-5,2021-08-07 12:55:23,404656
-1,1,2,5,3,2,-2,-1,2021-08-07 12:55:23,420643
2,3,5,12,17,9,1,-2,2021-08-07 12:55:23,436660
2,4,3,-1,-6,-5,-1,0,2021-08-07 12:55:23,452654
1,1,-5,-10,-7,-1,1,1,2021-08-07 12:55:23,467644
-2,-1,-4,-2,0,-4,-1,0,2021-08-07 12:55:23,467644
-4,-4,-3,-5,-10,-9,-6,-4,2021-08-07 12:55:23,467644
2,1,1,4,6,4,1,1,2021-08-07 12:55:23,467644
-1,1,0,1,1,-1,0,2,2021-08-07 12:55:23,467644
-1,0,-3,-7,-9,-4,-3,-2,2021-08-07 12:55:23,467644
1,-1,-5,-10,-8,-3,-1,0,2021-08-07 12:55:23,467644
-2,-2,-2,-2,3,0,-1,-1,2021-08-07 12:55:23,468641
0,1,0,-1,0,-1,0,1,2021-08-07 12:55:23,468641
-1,-2,0,3,1,-2,-2,-2,2021-08-07 12:55:23,468641
2,1,3,3,5,3,3,2,2021-08-07 12:55:23,468641
-1,1,-1,-3,-3,0,0,-2,2021-08-07 12:55:23,468641
-3,-2,-4,-11,-3,-3,-2,-3,2021-08-07 12:55:23,499643
3,2,4,11,12,9,5,3,2021-08-07 12:55:23,514649
-6,-8,-10,-28,-29,-17,-9,-6,2021-08-07 12:55:23,519610
-3,-3,-5,-2,-7,-4,-3,-3,2021-08-07 12:55:23,520609
3,4,7,19,25,14,7,4,2021-08-07 12:55:23,520609
1,2,4,6,7,3,1,0,2021-08-07 12:55:23,520609
