EMG 1,EMG 2,EMG 3,EMG 4,EMG 5,EMG 6,EMG 7,EMG 8,Timestamp,Milliseconds
-3,-5,-4,0,-4,-3,-3,-4,2021-08-07 12:56:16,583251
1,2,3,-1,0,-1,0,2,2021-08-07 12:56:16,583251
0,0,0,1,-2,-1,0,-1,2021-08-07 12:56:16,583251
3,2,2,1,13,9,4,1,2021-08-07 12:56:16,583251
0,3,3,-5,-6,-2,0,1,2021-08-07 12:56:16,583251
-2,-3,-1,-2,-5,-4,-5,-2,2021-08-07 12:56:16,584253
-2,-2,-1,-2,-5,-5,-1,-1,2021-08-07 12:56:16,584253
-2,-3,-4,-5,-7,-3,-3,-1,2021-08-07 12:56:16,584253
-2,-4,-5,-4,-7,-4,-2,-1,2021-08-07 12:56:16,584253
-2,0,1,5,3,2,0,-1,2021-08-07 12:56:16,584253
-4,-5,-5,-7,-8,-5,-5,-5,2021-08-07 12:56:16,584253
7,8,10,26,41,23,12,8,2021-08-07 12:56:16,584253
1,0,-1,-3,-1,-2,-1,-1,2021-08-07 12:56:16,599253
-2,-4,-5,-9,-17,-14,-6,-3,2021-08-07 12:56:16,599253
-4,-6,-5,-4,1,3,0,-3,2021-08-07 12:56:16,614253
0,-1,-2,-8,-16,-8,-3,1,2021-08-07 12:56:16,630255
4,7,9,12,12,11,7,4,2021-08-07 12:56:16,630255
-1,-1,-2,2,2,-1,0,0,2021-08-07 12:56:16,630255
2,2,1,-11,-4,1,-1,1,2021-08-07 12:56:16,630255
-7,-7,-8,-8,-13,-10,-5,-5,2021-08-07 12:56:16,630255
4,5,6,6,6,3,4,3,2021-08-07 12:56:16,630255
-5,-5,-4,-6,-10,-6,-5,-4,2021-08-07 12:56:16,630255
1,1,3,8,12,6,2,0,2021-08-07 12:56:16,662251
0,0,-2,-4,-5,-3,-2,0,2021-08-07 12:56:16,678252
-3,-5,-5,-13,-6,-6,-4,-4,2021-08-07 12:56:16,694254
1,2,1,2,5,3,3,1,2021-08-07 12:56:16,694254
1,0,0,7,-3,-2,-1,1,2021-08-07 12:56:16,694254
-2,-5,-7,-31,-27,-12,-6,-3,2021-08-07 12:56:16,694254
-2,-1,1,11,4,2,0,0,2021-08-07 12:56:16,710251
-2,-2,-2,3,-4,-4,-2,-3,2021-08-07 12:56:16,710251
1,2,5,10,31,16,9,2,2021-08-07 12:56:16,725253
-2,-2,1,-1,-1,-4,-2,-2,2021-08-07 12:56:16,725253
0,-2,-7,-15,-11,-7,-4,-3,2021-08-07 12:56:16,725253
-2,-3,-3,-7,-13,-11,-5,-2,2021-08-07 12:56:16,725253
1,3,4,10,2,4,3,0,2021-08-07 12:56:16,740253
1,3,3,10,1,-3,0,2,2021-08-07 12:56:16,756252
-3,-4,-3,-10,-4,3,-1,-2,2021-08-07 12:56:16,756252
-2,1,-1,6,12,5,1,-1,2021-08-07 12:56:16,756252
-2,-7,-5,-12,-16,-9,-4,-3,2021-08-07 12:56:16,756252
5,9,11,11,16,10,6,4,2021-08-07 12:56:16,756252
-4,-4,-1,1,-13,-9,-5,-4,2021-08-07 12:56:16,756252
-2,-6,-9,-18,-11,-6,-3,-2,2021-08-07 12:56:16,757254
3,4,0,-9,-1,4,2,2,2021-08-07 12:56:16,757254
2,3,9,32,16,5,5,0,2021-08-07 12:56:16,757254
1,2,5,-1,-2,-1,3,1,2021-08-07 12:56:16,757254
-6,-7,-8,-28,-8,-2,-4,-4,2021-08-07 12:56:16,757254
-4,-7,-19,-16,-11,-9,-5,-3,2021-08-07 12:56:16,772253
-3,-3,-3,-5,-3,-2,-4,-3,2021-08-07 12:56:16,772253
2,2,7,21,15,6,3,2,2021-08-07 12:56:16,788255
1,1,6,10,7,4,3,2,2021-08-07 12:56:16,788255
-3,1,3,-4,-14,-10,-6,-2,2021-08-07 12:56:16,788255
1,1,0,11,16,12,5,1,2021-08-07 12:56:16,788255
-1,-1,-5,-10,-9,-8,-2,-1,2021-08-07 12:56:16,820252
-1,-1,-2,3,0,1,0,-1,2021-08-07 12:56:16,820252
-2,-3,-2,6,11,4,1,-2,2021-08-07 12:56:16,820252
7,9,7,1,-6,0,3,5,2021-08-07 12:56:16,820252
-4,-3,-4,-7,-1,-1,-2,1,2021-08-07 12:56:16,820252
1,-1,-2,-2,-2,-1,0,0,2021-08-07 12:56:16,836253
-1,2,2,7,8,3,0,-1,2021-08-07 12:56:16,852253
-6,-8,-6,-8,-8,-3,-4,-4,2021-08-07 12:56:16,852253
2,1,0,2,5,2,1,-1,2021-08-07 12:56:16,852253
-3,-1,-9,-12,-14,-8,-4,-2,2021-08-07 12:56:16,852253
0,1,3,2,1,4,0,-1,2021-08-07 12:56:16,852253
-3,-3,-5,-12,-8,-5,-4,-4,2021-08-07 12:56:16,852253
-1,-3,-1,4,5,0,-1,-2,2021-08-07 12:56:16,899253
-1,0,1,18,9,2,0,0,2021-08-07 12:56:16,915254
1,0,2,-16,-13,-5,-2,1,2021-08-07 12:56:16,915254
0,0,-5,-4,5,5,3,1,2021-08-07 12:56:16,915254
2,-1,-3,-2,-1,1,-1,0,2021-08-07 12:56:16,915254
1,1,2,5,0,1,0,-1,2021-08-07 12:56:16,915254
-1,0,2,7,7,1,2,0,2021-08-07 12:56:16,915254
-4,-5,-4,-3,-7,-4,-4,-3,2021-08-07 12:56:16,916254
-7,-7,-5,-6,-5,-4,-5,-6,2021-08-07 12:56:16,916254
3,4,5,-3,-2,0,0,-1,2021-08-07 12:56:16,916254
1,1,1,2,1,0,1,1,2021-08-07 12:56:16,916254
-3,-6,-8,-6,-5,-5,-4,-1,2021-08-07 12:56:16,916254
4,6,5,3,3,3,1,2,2021-08-07 12:56:16,931251
0,-1,-3,-3,-12,-8,-4,0,2021-08-07 12:56:16,931251
2,1,4,18,25,15,7,4,2021-08-07 12:56:16,931251
-2,-1,-2,-3,4,4,1,-1,2021-08-07 12:56:16,931251
-3,-2,-1,-4,0,1,-1,-2,2021-08-07 12:56:16,963254
2,2,3,4,4,2,2,0,2021-08-07 12:56:16,979254
-2,-2,-3,-7,-11,-7,-4,-2,2021-08-07 12:56:16,995252
-2,-3,-3,-3,-6,-5,-5,-2,2021-08-07 12:56:16,995252
1,-1,-3,-1,-1,0,2,1,2021-08-07 12:56:17,011254
-1,0,1,1,2,0,1,-1,2021-08-07 12:56:17,011254
0,-2,-2,-4,-8,-6,-4,-2,2021-08-07 12:56:17,011254
0,0,0,4,3,-1,1,0,2021-08-07 12:56:17,011254
-2,-3,-4,-4,-3,-2,-2,-2,2021-08-07 12:56:17,011254
1,2,2,2,5,5,3,1,2021-08-07 12:56:17,011254
2,3,5,3,-2,-1,1,2,2021-08-07 12:56:17,011254
1,1,-1,-3,-2,-1,0,-1,2021-08-07 12:56:17,011254
0,-2,-1,0,3,1,1,-1,2021-08-07 12:56:17,012253
-2,-2,-2,-1,2,-1,-2,-2,2021-08-07 12:56:17,012253
-3,-6,-5,-7,-10,-7,-6,-5,2021-08-07 12:56:17,012253
0,3,4,6,6,4,2,2,2021-08-07 12:56:17,012253
-2,-1,-1,0,1,0,-3,-1,2021-08-07 12:56:17,027254
-2,1,3,6,5,4,2,1,2021-08-07 12:56:17,027254
-2,0,-2,-2,-6,-5,-2,-2,2021-08-07 12:56:17,027254
-3,-2,-5,-8,-4,-4,-2,-3,2021-08-07 12:56:17,027254
-1,-3,-3,-8,-15,-8,-6,-1,2021-08-07 12:56:17,058252
0,0,0,-3,-6,-5,-3,0,2021-08-07 12:56:17,074251
-1,1,3,14,24,14,4,0,2021-08-07 12:56:17,090288
-2,-3,-1,-7,-10,-6,-3,-3,2021-08-07 12:56:17,090288
-2,-2,-2,3,3,-4,-2,-1,2021-08-07 12:56:17,090288
-1,0,-4,-4,-2,1,-1,0,2021-08-07 12:56:17,090288
1,1,-1,-1,1,2,1,2,2021-08-07 12:56:17,090288
0,0,0,0,-1,-1,-2,-1,2021-08-07 12:56:17,090288
0,0,-1,-4,-4,-3,-1,0,2021-08-07 12:56:17,090288
-2,-3,0,-1,-6,-2,-3,-3,2021-08-07 12:56:17,090288
1,0,-1,-1,-3,-2,0,-1,2021-08-07 12:56:17,091288
-1,-2,-1,-1,0,2,1,0,2021-08-07 12:56:17,091288
-4,-4,-5,-13,-7,-5,-5,-3,2021-08-07 12:56:17,122287
4,4,7,10,8,5,4,4,2021-08-07 12:56:17,122287
-2,-1,0,0,-2,-1,-1,0,2021-08-07 12:56:17,122287
-3,-6,-4,-5,-6,-7,-4,-3,2021-08-07 12:56:17,122287
0,0,-1,-1,-8,-8,-2,-1,2021-08-07 12:56:17,138288
3,5,5,11,17,14,7,3,2021-08-07 12:56:17,154287
-3,-3,-4,-6,-9,-7,-3,-2,2021-08-07 12:56:17,169286
1,2,3,7,5,2,2,1,2021-08-07 12:56:17,169286
-4,-3,-5,-2,-3,-2,-2,-3,2021-08-07 12:56:17,169286
-1,-1,-1,3,11,5,1,0,2021-08-07 12:56:17,169286
0,0,-2,-5,-9,-5,-1,0,2021-08-07 12:56:17,169286
-3,-3,-3,-3,-3,-3,-3,-2,2021-08-07 12:56:17,169286
-2,-1,-2,-3,-8,-6,-2,0,2021-08-07 12:56:17,169286
-2,-3,0,3,6,3,-1,-3,2021-08-07 12:56:17,170288
4,3,2,-2,0,2,1,2,2021-08-07 12:56:17,175287
0,-3,-6,-7,-7,-4,-3,-1,2021-08-07 12:56:17,175287
1,1,3,5,5,5,1,1,2021-08-07 12:56:17,201287
-3,-2,-3,-13,-23,-14,-7,-2,2021-08-07 12:56:17,201287
-4,-4,-3,3,17,12,4,0,2021-08-07 12:56:17,201287
1,1,4,10,14,10,3,0,2021-08-07 12:56:17,201287
4,6,4,3,7,6,2,2,2021-08-07 12:56:17,217287
-1,-1,-3,-6,-9,-6,-1,-2,2021-08-07 12:56:17,233286
-3,-2,-3,-5,-10,-8,-6,-3,2021-08-07 12:56:17,233286
-1,-3,-5,-5,-7,-5,-4,-2,2021-08-07 12:56:17,249287
3,5,6,10,12,6,6,2,2021-08-07 12:56:17,249287
-3,-6,-8,-8,-4,-5,-3,-4,2021-08-07 12:56:17,249287
1,1,2,10,10,7,5,1,2021-08-07 12:56:17,249287
0,2,1,-1,2,3,2,0,2021-08-07 12:56:17,249287
1,-2,-1,0,0,0,-2,-3,2021-08-07 12:56:17,250288
-2,-2,-3,-4,-9,-6,-3,-2,2021-08-07 12:56:17,250288
-3,-4,-4,-4,-10,-7,-5,-4,2021-08-07 12:56:17,250288
0,2,3,4,9,7,3,3,2021-08-07 12:56:17,250288
0,-2,-2,0,5,2,1,2,2021-08-07 12:56:17,265288
-1,-2,-1,1,0,-2,-1,-3,2021-08-07 12:56:17,281287
-2,-1,-2,-6,-10,-7,-3,-2,2021-08-07 12:56:17,281287
-2,0,-1,-9,-8,-8,-4,-5,2021-08-07 12:56:17,281287
0,2,2,4,2,4,2,1,2021-08-07 12:56:17,312811
-3,-2,-2,0,5,2,1,-1,2021-08-07 12:56:17,312811
2,0,-1,-1,-1,-1,1,0,2021-08-07 12:56:17,312811
-1,-1,-1,-2,-13,-13,-5,-3,2021-08-07 12:56:17,312811
0,0,-1,3,7,5,1,-1,2021-08-07 12:56:17,312811
3,3,3,1,3,4,2,4,2021-08-07 12:56:17,312811
3,3,3,11,22,14,6,2,2021-08-07 12:56:17,312811
-2,-2,-2,0,2,0,0,-1,2021-08-07 12:56:17,312811
-5,-9,-9,-12,-17,-13,-7,-6,2021-08-07 12:56:17,328811
-1,-1,1,2,-2,1,1,0,2021-08-07 12:56:17,328811
-1,1,-1,-8,-12,-6,-3,-2,2021-08-07 12:56:17,328811
-1,-2,-1,1,1,2,0,-2,2021-08-07 12:56:17,328811
-1,1,0,2,2,1,0,0,2021-08-07 12:56:17,360810
-2,-3,-5,-4,-5,-4,-2,-1,2021-08-07 12:56:17,360810
-4,-5,-5,-8,-11,-9,-7,-5,2021-08-07 12:56:17,376810
2,3,0,0,2,2,0,1,2021-08-07 12:56:17,392808
1,0,0,1,2,1,2,1,2021-08-07 12:56:17,392808
0,-1,0,-1,0,-2,-2,-2,2021-08-07 12:56:17,392808
-6,-7,-9,-6,-9,-8,-3,-3,2021-08-07 12:56:17,392808
4,4,5,2,4,5,4,4,2021-08-07 12:56:17,392808
0,1,0,-3,-5,-1,-2,0,2021-08-07 12:56:17,392808
-2,-1,-3,0,8,3,0,-1,2021-08-07 12:56:17,392808
3,2,2,9,10,5,3,2,2021-08-07 12:56:17,392808
-5,-5,-4,1,-6,-6,-5,-5,2021-08-07 12:56:17,392808
-1,0,1,-2,-5,-3,-1,-3,2021-08-07 12:56:17,408811
0,3,3,-7,-2,0,2,0,2021-08-07 12:56:17,408811
-4,-6,-8,-14,-15,-8,-6,-4,2021-08-07 12:56:17,408811
1,0,-2,3,11,5,2,1,2021-08-07 12:56:17,408811
1,-1,0,2,1,0,-1,0,2021-08-07 12:56:17,439809
0,-2,0,2,6,2,0,0,2021-08-07 12:56:17,439809
-1,-2,0,-2,-4,-3,-2,-1,2021-08-07 12:56:17,439809
-2,-4,-3,0,1,0,-2,-2,2021-08-07 12:56:17,439809
1,1,0,0,-4,-4,1,0,2021-08-07 12:56:17,439809
-2,-2,-1,1,-3,-3,-3,-3,2021-08-07 12:56:17,439809
3,4,4,4,4,5,4,3,2021-08-07 12:56:17,454811
1,0,-1,-11,-5,-1,-1,0,2021-08-07 12:56:17,470813
-4,-6,-5,-11,-18,-12,-6,-3,2021-08-07 12:56:17,470813
3,5,4,10,18,14,7,4,2021-08-07 12:56:17,470813
-1,-1,-2,0,0,-1,-1,-2,2021-08-07 12:56:17,470813
-1,0,2,9,7,4,0,0,2021-08-07 12:56:17,470813
2,-3,-3,2,4,0,1,1,2021-08-07 12:56:17,501811
-1,-4,-4,-5,-9,-6,-3,-1,2021-08-07 12:56:17,501811
2,3,6,2,-1,0,2,1,2021-08-07 12:56:17,501811
0,-2,-2,-4,-7,-5,-1,-3,2021-08-07 12:56:17,501811
0,-1,0,1,-1,-1,0,-1,2021-08-07 12:56:17,501811
-4,-7,-10,-5,-10,-7,-6,-3,2021-08-07 12:56:17,501811
0,2,1,-3,10,5,3,2,2021-08-07 12:56:17,517809
0,0,-3,-3,-2,-3,1,0,2021-08-07 12:56:17,517809
1,1,0,0,1,1,0,-1,2021-08-07 12:56:17,533811
-1,1,1,4,1,-1,1,-1,2021-08-07 12:56:17,533811
-5,-4,-3,-3,-10,-6,-5,-3,2021-08-07 12:56:17,533811
0,-1,-1,-2,-8,-4,-2,-2,2021-08-07 12:56:17,533811
-1,0,0,3,5,2,1,0,2021-08-07 12:56:17,565813
0,2,0,0,-1,0,-1,0,2021-08-07 12:56:17,580809
-1,0,-4,-5,-4,-3,-2,0,2021-08-07 12:56:17,596811
0,2,4,6,9,6,3,2,2021-08-07 12:56:17,604809
0,0,0,6,7,4,1,-1,2021-08-07 12:56:17,604809
-1,-1,-1,-2,-2,-2,-1,0,2021-08-07 12:56:17,605811
-2,-5,-4,-3,-8,-5,-4,-2,2021-08-07 12:56:17,605811
-4,-3,-4,-3,-9,-7,-4,-3,2021-08-07 12:56:17,605811
1,4,3,1,9,8,3,4,2021-08-07 12:56:17,605811
2,1,3,2,1,-1,0,0,2021-08-07 12:56:17,605811
-1,2,2,2,2,0,-1,1,2021-08-07 12:56:17,605811
-1,-4,-5,-5,-4,-3,-2,-2,2021-08-07 12:56:17,606812
-2,-1,-2,-4,-5,-2,-2,-2,2021-08-07 12:56:17,606812
-2,-2,-3,-2,-3,-4,-4,-1,2021-08-07 12:56:17,606812
-1,-2,-2,1,2,0,-1,-2,2021-08-07 12:56:17,606812
1,1,1,-5,-8,-7,-1,0,2021-08-07 12:56:17,606812
-2,-3,1,-3,-4,0,0,0,2021-08-07 12:56:17,628811
3,3,6,18,29,18,8,4,2021-08-07 12:56:17,628811
-1,-2,-2,-3,-1,-2,-1,-3,2021-08-07 12:56:17,628811
-2,-2,-3,0,3,-1,0,-1,2021-08-07 12:56:17,628811
-1,-2,-4,-4,-7,-7,-4,0,2021-08-07 12:56:17,660809
-2,1,-2,-6,-9,-5,-3,-2,2021-08-07 12:56:17,675808
0,0,0,0,2,1,-2,-1,2021-08-07 12:56:17,675808
-1,-1,0,1,0,2,0,-2,2021-08-07 12:56:17,675808
0,1,1,0,2,0,1,-1,2021-08-07 12:56:17,675808
-2,-3,-2,-2,-5,-3,-2,-1,2021-08-07 12:56:17,675808
1,-1,-1,0,2,1,1,0,2021-08-07 12:56:17,675808
-1,-2,-2,0,-4,0,-2,-1,2021-08-07 12:56:17,675808
0,-2,-1,0,4,0,1,0,2021-08-07 12:56:17,707811
-2,-2,-1,-2,-4,-2,-1,-1,2021-08-07 12:56:17,723809
-2,0,-2,-1,-3,-2,-1,-1,2021-08-07 12:56:17,723809
0,0,1,1,1,1,-2,0,2021-08-07 12:56:17,723809
0,0,0,0,1,1,-1,0,2021-08-07 12:56:17,723809
0,-1,-1,-2,-4,-3,-2,-1,2021-08-07 12:56:17,723809
0,1,-1,-2,-2,-2,-1,0,2021-08-07 12:56:17,723809
1,1,1,0,2,1,0,1,2021-08-07 12:56:17,723809
0,1,0,0,1,0,0,-1,2021-08-07 12:56:17,739811
-1,-2,-2,-6,-6,-4,-1,-1,2021-08-07 12:56:17,739811
0,-1,-1,-1,-5,0,-1,-1,2021-08-07 12:56:17,739811
-1,1,1,-3,1,3,0,0,2021-08-07 12:56:17,739811
0,2,0,3,4,4,2,0,2021-08-07 12:56:17,755811
-1,-1,-1,-8,-13,-9,-4,-1,2021-08-07 12:56:17,771811
0,-1,1,2,5,5,2,0,2021-08-07 12:56:17,803812
0,1,4,14,21,11,5,0,2021-08-07 12:56:17,803812
-4,-3,-1,1,-2,-3,-4,-3,2021-08-07 12:56:17,803812
-2,-2,-1,0,1,0,0,-3,2021-08-07 12:56:17,803812
-1,1,-2,-3,-10,-6,-3,-1,2021-08-07 12:56:17,803812
0,-2,-2,-11,-16,-8,-4,-1,2021-08-07 12:56:17,803812
0,2,2,8,8,5,2,2,2021-08-07 12:56:17,803812
-2,-2,-4,0,-1,0,0,-2,2021-08-07 12:56:17,803812
0,0,0,-4,-2,-1,0,0,2021-08-07 12:56:17,803812
-1,-2,0,-1,-4,-3,-2,-1,2021-08-07 12:56:17,804812
-2,-1,-1,0,5,2,-1,-2,2021-08-07 12:56:17,819810
1,4,1,-1,-1,0,1,1,2021-08-07 12:56:17,819810
-2,-1,0,-2,0,0,1,-1,2021-08-07 12:56:17,819810
-2,-1,-3,-2,-3,-4,-3,-1,2021-08-07 12:56:17,819810
-1,-3,-3,-9,-13,-8,-3,-1,2021-08-07 12:56:17,835811
1,-1,0,5,7,5,0,0,2021-08-07 12:56:17,835811
0,-1,-1,-1,-1,-1,0,-1,2021-08-07 12:56:17,851809
-2,-4,-2,-3,-10,-7,-3,-3,2021-08-07 12:56:17,851809
2,2,0,6,15,8,3,2,2021-08-07 12:56:17,851809
-1,0,-1,-4,-6,-6,-2,-1,2021-08-07 12:56:17,851809
1,0,2,2,-2,-2,-3,-1,2021-08-07 12:56:17,851809
-1,-2,-3,0,0,-1,0,-3,2021-08-07 12:56:17,851809
3,4,3,5,15,12,6,4,2021-08-07 12:56:17,883811
2,4,4,2,5,2,1,1,2021-08-07 12:56:17,883811
-4,-3,-5,-3,-3,-4,-3,-1,2021-08-07 12:56:17,883811
-3,-2,-3,-7,-9,-6,-3,-2,2021-08-07 12:56:17,883811
-2,-4,-3,-5,-7,-7,-4,-2,2021-08-07 12:56:17,899811
-1,-3,-3,-4,-4,-2,-1,-1,2021-08-07 12:56:17,899811
-1,0,1,2,5,4,1,-1,2021-08-07 12:56:17,899811
-1,-2,-2,-1,0,0,1,-1,2021-08-07 12:56:17,899811
0,-1,0,-2,-3,-2,2,-1,2021-08-07 12:56:17,931811
-3,-5,-3,-3,-7,-5,-4,-2,2021-08-07 12:56:17,931811
0,-1,0,0,4,2,2,1,2021-08-07 12:56:17,931811
1,1,1,1,2,1,1,-2,2021-08-07 12:56:17,931811
0,-1,-1,0,-1,-2,-3,0,2021-08-07 12:56:17,931811
-1,-4,-3,-3,-5,-3,-3,-2,2021-08-07 12:56:17,931811
-1,-3,-3,4,6,3,-1,0,2021-08-07 12:56:17,932811
5,5,7,6,7,5,2,3,2021-08-07 12:56:17,932811
1,3,-1,-5,-10,-5,-2,1,2021-08-07 12:56:17,963809
-1,1,0,3,2,3,1,0,2021-08-07 12:56:17,978810
-1,-1,0,-1,-1,-1,0,-1,2021-08-07 12:56:17,994811
-3,-4,-4,-2,0,0,-2,0,2021-08-07 12:56:17,994811
-2,-3,0,-4,-9,-5,-3,-5,2021-08-07 12:56:17,994811
-1,-2,-2,-4,-1,-2,-2,-1,2021-08-07 12:56:17,994811
1,2,2,4,4,0,2,1,2021-08-07 12:56:17,994811
0,1,-1,0,2,1,1,0,2021-08-07 12:56:17,994811
-2,-1,-2,-4,-6,-5,-4,-3,2021-08-07 12:56:17,995811
-1,-1,-2,-2,-1,1,-1,0,2021-08-07 12:56:17,995811
1,1,1,0,1,0,-2,0,2021-08-07 12:56:17,995811
-1,-3,-1,-4,-3,-2,-1,0,2021-08-07 12:56:17,995811
-1,-2,1,5,10,6,3,-1,2021-08-07 12:56:18,026811
1,2,2,2,4,0,2,1,2021-08-07 12:56:18,026811
-2,-1,-2,-2,-4,-2,-2,-1,2021-08-07 12:56:18,026811
0,-1,-2,-1,0,-2,-3,-2,2021-08-07 12:56:18,026811
-2,-1,-4,-6,-5,-4,-3,-2,2021-08-07 12:56:18,026811
0,-1,0,0,0,0,-1,-3,2021-08-07 12:56:18,026811
1,3,1,0,0,0,0,0,2021-08-07 12:56:18,041810
0,0,0,-1,-1,1,1,0,2021-08-07 12:56:18,041810
-2,-3,-4,-7,-7,-5,-4,-4,2021-08-07 12:56:18,057809
-1,0,0,0,1,0,0,0,2021-08-07 12:56:18,057809
-3,-2,-2,-3,-3,-2,-2,-3,2021-08-07 12:56:18,057809
0,0,-2,2,2,-1,0,-1,2021-08-07 12:56:18,057809
1,2,0,-2,-1,0,0,2,2021-08-07 12:56:18,089810
-2,-2,-3,-7,-7,-6,-1,-2,2021-08-07 12:56:18,089810
-2,-2,-1,0,-1,-2,-2,0,2021-08-07 12:56:18,089810
0,1,1,7,9,5,2,0,2021-08-07 12:56:18,089810
2,2,3,4,5,5,3,0,2021-08-07 12:56:18,089810
-1,-1,-1,-3,-5,-4,-4,0,2021-08-07 12:56:18,089810
-1,-2,-1,2,5,0,-1,0,2021-08-07 12:56:18,121810
-1,-3,-3,-4,-6,-4,-1,0,2021-08-07 12:56:18,121810
0,0,-2,2,4,1,0,1,2021-08-07 12:56:18,121810
-2,0,0,-4,-3,-1,-1,-2,2021-08-07 12:56:18,121810
-1,-4,-3,-4,-6,-4,-2,-2,2021-08-07 12:56:18,121810
-1,-2,-2,-5,-7,-5,-2,0,2021-08-07 12:56:18,121810
1,-2,1,8,12,8,3,1,2021-08-07 12:56:18,137812
1,-1,0,-1,-4,-4,-2,2,2021-08-07 12:56:18,137812
-2,-3,-2,-2,2,4,2,-1,2021-08-07 12:56:18,137812
1,1,2,0,4,5,1,0,2021-08-07 12:56:18,137812
0,1,3,-2,-6,-5,-1,0,2021-08-07 12:56:18,153811
0,1,-1,1,-4,-2,-2,0,2021-08-07 12:56:18,153811
-1,-2,-3,-1,1,2,0,-1,2021-08-07 12:56:18,153811
-1,-1,1,3,6,1,1,0,2021-08-07 12:56:18,153811
-1,0,2,0,-1,0,0,0,2021-08-07 12:56:18,201812
1,-1,0,1,3,0,1,-1,2021-08-07 12:56:18,201812
-1,-1,-2,-6,-13,-8,-3,-1,2021-08-07 12:56:18,217848
-1,-3,-3,-4,-2,-2,-2,0,2021-08-07 12:56:18,233847
-4,-3,-6,-6,-11,-8,-4,-3,2021-08-07 12:56:18,233847
2,1,3,8,11,6,2,0,2021-08-07 12:56:18,233847
1,0,0,-5,-2,-2,-1,0,2021-08-07 12:56:18,233847
-2,-1,-2,-2,-1,-1,-3,-3,2021-08-07 12:56:18,233847
2,0,1,2,1,1,0,0,2021-08-07 12:56:18,233847
-1,-1,-3,-3,-2,-1,0,0,2021-08-07 12:56:18,233847
-1,1,1,0,2,1,1,0,2021-08-07 12:56:18,233847
1,0,1,0,0,1,0,0,2021-08-07 12:56:18,233847
-2,-1,-2,-3,-4,-2,-3,-2,2021-08-07 12:56:18,234848
-2,-1,-2,-1,-2,-2,-1,-2,2021-08-07 12:56:18,234848
1,1,-1,-3,-1,2,1,0,2021-08-07 12:56:18,234848
0,-1,0,-1,-2,-1,-1,0,2021-08-07 12:56:18,234848
-1,0,-3,-3,-5,-3,-1,-2,2021-08-07 12:56:18,265848
-2,-1,0,-3,-1,0,-2,0,2021-08-07 12:56:18,265848
0,0,0,-1,-7,-6,-2,-1,2021-08-07 12:56:18,265848
-3,-2,-2,1,2,1,0,-2,2021-08-07 12:56:18,265848
1,1,2,4,11,9,3,1,2021-08-07 12:56:18,265848
-2,-1,0,3,0,1,0,-1,2021-08-07 12:56:18,265848
-1,-3,-3,-7,-8,-7,-4,-2,2021-08-07 12:56:18,281848
0,0,0,1,-1,-2,0,0,2021-08-07 12:56:18,281848
-3,-4,-4,-5,-5,-5,-4,-4,2021-08-07 12:56:18,297847
0,0,-1,-1,-3,0,-1,-1,2021-08-07 12:56:18,313846
0,-1,0,-3,-1,0,0,0,2021-08-07 12:56:18,313846
-1,1,0,2,4,1,1,-1,2021-08-07 12:56:18,313846
0,-2,-2,-2,-3,-4,0,1,2021-08-07 12:56:18,313846
-1,-2,-3,-3,-4,-1,-2,-1,2021-08-07 12:56:18,313846
-2,-2,-2,-2,-6,-3,-2,-2,2021-08-07 12:56:18,314848
2,2,3,5,11,5,3,2,2021-08-07 12:56:18,314848
-2,-2,-4,-2,-4,-3,-2,-2,2021-08-07 12:56:18,344846
-1,-1,0,0,-1,-2,-1,-1,2021-08-07 12:56:18,344846
1,2,1,4,5,3,1,0,2021-08-07 12:56:18,344846
-1,0,0,-2,-8,-4,-2,-3,2021-08-07 12:56:18,344846
0,2,2,-2,-2,-2,0,0,2021-08-07 12:56:18,360848
0,1,0,2,3,1,1,1,2021-08-07 12:56:18,376847
-3,-1,-1,1,-4,-2,-1,1,2021-08-07 12:56:18,376847
-2,-3,-1,-1,2,0,-3,-2,2021-08-07 12:56:18,376847
-1,1,-1,2,6,6,1,-1,2021-08-07 12:56:18,376847
0,-1,-1,1,-1,-1,0,-2,2021-08-07 12:56:18,376847
-2,-4,-3,-1,-2,-5,-1,-3,2021-08-07 12:56:18,376847
-1,1,-1,-4,-5,-1,-1,-1,2021-08-07 12:56:18,376847
-3,-3,-3,-5,-9,-5,-3,-1,2021-08-07 12:56:18,408847
0,-1,-1,1,5,2,3,0,2021-08-07 12:56:18,424109
1,2,0,1,4,3,1,1,2021-08-07 12:56:18,424109
-1,0,-4,-6,-11,-7,-1,-1,2021-08-07 12:56:18,424109
2,2,2,1,6,2,2,1,2021-08-07 12:56:18,424109
-2,0,1,-1,0,-1,-1,-1,2021-08-07 12:56:18,424847
0,-1,-3,-1,1,4,0,-1,2021-08-07 12:56:18,424847
-4,-6,-4,-2,-2,-3,-3,-3,2021-08-07 12:56:18,424847
2,2,3,0,-1,1,1,2,2021-08-07 12:56:18,439366
1,2,2,0,-2,-4,-1,-1,2021-08-07 12:56:18,455365
-2,-2,-1,1,2,1,0,-3,2021-08-07 12:56:18,455365
-2,1,-2,-3,-2,-1,1,-1,2021-08-07 12:56:18,455365
-1,-1,-2,-1,-1,-2,-3,-2,2021-08-07 12:56:18,455365
-2,-2,-3,-2,-5,-3,-2,-2,2021-08-07 12:56:18,455365
0,1,-1,-3,-1,0,0,1,2021-08-07 12:56:18,455365
2,2,1,2,3,2,1,2,2021-08-07 12:56:18,456367
-1,-2,-1,1,-1,-2,-2,-2,2021-08-07 12:56:18,486368
-1,0,-1,0,4,4,3,0,2021-08-07 12:56:18,486368
-1,0,-4,-7,-13,-9,-6,-1,2021-08-07 12:56:18,486368
-1,-2,-2,-1,2,0,0,-3,2021-08-07 12:56:18,487366
-1,0,-2,-1,-2,-1,-1,-1,2021-08-07 12:56:18,502366
1,0,1,-1,-3,0,1,1,2021-08-07 12:56:18,502366
-2,-3,-2,2,0,-3,-1,-3,2021-08-07 12:56:18,518365
-1,0,-2,-5,-8,-4,-4,1,2021-08-07 12:56:18,518365
-2,-2,0,-3,-1,1,2,-1,2021-08-07 12:56:18,518365
1,0,-1,1,2,2,-1,1,2021-08-07 12:56:18,518365
1,-2,-2,0,2,0,-1,0,2021-08-07 12:56:18,518365
0,-1,-1,-4,-3,-2,-3,-1,2021-08-07 12:56:18,518365
0,2,2,2,-1,2,3,0,2021-08-07 12:56:18,533367
0,1,0,-2,-2,-1,-1,1,2021-08-07 12:56:18,549364
0,-1,-1,-2,1,1,-2,1,2021-08-07 12:56:18,581366
-2,-2,-1,1,5,2,2,-2,2021-08-07 12:56:18,581366
-1,-1,0,1,-1,-1,0,-2,2021-08-07 12:56:18,581366
-2,-2,-1,-1,-2,-2,-3,-2,2021-08-07 12:56:18,581366
-2,-2,-1,-3,-5,-3,-2,-3,2021-08-07 12:56:18,597365
-2,-3,-3,-10,-19,-11,-5,-2,2021-08-07 12:56:18,597365
4,6,8,10,21,15,7,5,2021-08-07 12:56:18,597365
-2,-5,-4,-2,-2,-3,-3,-3,2021-08-07 12:56:18,597365
-1,1,2,5,6,4,2,3,2021-08-07 12:56:18,597365
-1,0,0,-5,-12,-10,-5,-3,2021-08-07 12:56:18,598367
-2,-3,-5,-2,-4,-2,-1,0,2021-08-07 12:56:18,598367
2,2,0,2,3,3,2,0,2021-08-07 12:56:18,598367
-1,0,-1,1,3,2,0,-1,2021-08-07 12:56:18,598367
0,-2,-3,3,5,5,4,0,2021-08-07 12:56:18,598367
-3,-6,-2,-2,-10,-7,-5,-5,2021-08-07 12:56:18,628364
-3,-1,1,3,2,-1,0,-2,2021-08-07 12:56:18,628364
-3,-3,-2,-2,-3,-2,-3,-3,2021-08-07 12:56:18,628364
0,2,2,0,-3,0,-2,0,2021-08-07 12:56:18,628364
1,1,0,2,6,3,0,0,2021-08-07 12:56:18,644366
1,1,-1,-2,-3,-2,0,0,2021-08-07 12:56:18,644366
2,2,1,6,9,5,3,2,2021-08-07 12:56:18,660365
-1,0,-1,-3,-2,-1,0,-2,2021-08-07 12:56:18,660365
-3,-4,-6,-9,-12,-10,-6,-2,2021-08-07 12:56:18,660365
-2,2,1,-4,-12,-5,-5,0,2021-08-07 12:56:18,660365
2,2,2,4,14,11,7,3,2021-08-07 12:56:18,660365
0,-2,-2,5,9,3,0,-1,2021-08-07 12:56:18,660365
-1,-1,-1,-1,-6,-4,-1,-1,2021-08-07 12:56:18,691366
0,1,1,4,5,2,1,1,2021-08-07 12:56:18,707364
-2,0,-2,-8,-11,-7,-3,-2,2021-08-07 12:56:18,738365
-2,-2,-2,-1,1,-1,1,-2,2021-08-07 12:56:18,754365
-2,-1,-2,-2,-2,-2,-1,-1,2021-08-07 12:56:18,754365
-2,-4,-3,-3,-3,0,-1,-2,2021-08-07 12:56:18,754365
0,-2,-2,-5,-13,-9,-3,-2,2021-08-07 12:56:18,754365
-2,-2,-1,2,10,9,3,0,2021-08-07 12:56:18,754365
0,0,0,2,2,1,-2,0,2021-08-07 12:56:18,754365
3,2,3,6,16,8,5,1,2021-08-07 12:56:18,755367
-2,-1,-2,-3,-3,-2,-3,-2,2021-08-07 12:56:18,755367
-2,0,0,-2,-11,-8,-4,0,2021-08-07 12:56:18,755367
1,1,-2,-8,-12,-7,-2,0,2021-08-07 12:56:18,755367
-2,-3,-2,4,12,7,2,0,2021-08-07 12:56:18,755367
-2,-1,0,1,1,1,1,0,2021-08-07 12:56:18,755367
-3,-3,-4,-7,-4,-5,-3,-1,2021-08-07 12:56:18,755367
-2,-2,-3,0,-2,-1,-1,-2,2021-08-07 12:56:18,755367
3,5,3,-2,-7,-5,0,2,2021-08-07 12:56:18,755367
-2,1,1,4,2,1,0,-1,2021-08-07 12:56:18,755367
2,2,3,5,9,8,3,2,2021-08-07 12:56:18,756366
0,-1,0,1,1,2,0,-1,2021-08-07 12:56:18,785368
-3,-5,-5,-5,-5,-2,-3,-3,2021-08-07 12:56:18,785368
-3,-1,-1,-2,-3,-3,-2,-2,2021-08-07 12:56:18,785368
-1,-1,0,-3,-5,-2,-1,-1,2021-08-07 12:56:18,785368
1,1,1,1,-5,-3,-2,1,2021-08-07 12:56:18,801365
0,0,0,3,14,9,2,0,2021-08-07 12:56:18,817364
2,2,1,-2,2,1,2,1,2021-08-07 12:56:18,817364
1,0,1,-1,0,0,0,-1,2021-08-07 12:56:18,817364
-2,-1,-1,-1,1,-1,-2,-1,2021-08-07 12:56:18,817364
-2,-2,-1,-5,-11,-7,-1,-2,2021-08-07 12:56:18,817364
0,-3,-3,-3,-4,-1,-2,-2,2021-08-07 12:56:18,817364
1,0,1,4,5,1,-1,0,2021-08-07 12:56:18,818365
2,3,4,6,8,7,3,2,2021-08-07 12:56:18,833366
-1,1,0,3,3,2,0,0,2021-08-07 12:56:18,833366
-6,-7,-9,-13,-16,-12,-4,-3,2021-08-07 12:56:18,849366
-1,-4,-3,-12,-14,-8,-4,-1,2021-08-07 12:56:18,849366
-1,-2,0,-2,-3,-2,1,-2,2021-08-07 12:56:18,865367
-1,-2,-1,-2,-3,0,-2,-2,2021-08-07 12:56:18,881365
-2,-2,-3,1,0,0,-1,-2,2021-08-07 12:56:18,913364
4,6,7,13,16,12,7,4,2021-08-07 12:56:18,929366
0,1,1,5,13,7,3,2,2021-08-07 12:56:18,929366
1,2,1,0,0,-1,0,0,2021-08-07 12:56:18,929366
-4,-3,-2,-9,-10,-9,-4,-3,2021-08-07 12:56:18,929366
-4,-4,-6,-6,-5,-2,-5,-4,2021-08-07 12:56:18,929366
1,1,0,2,5,3,2,1,2021-08-07 12:56:18,929366
-3,-4,-3,-4,-5,-6,-3,-1,2021-08-07 12:56:18,929366
0,1,0,1,4,2,1,1,2021-08-07 12:56:18,929366
1,-1,0,0,0,-3,0,-1,2021-08-07 12:56:18,929366
-4,-2,-4,-6,-4,-4,-2,-1,2021-08-07 12:56:18,929366
-2,-4,-5,-5,-8,-6,-5,-4,2021-08-07 12:56:18,930366
2,2,5,6,8,6,2,3,2021-08-07 12:56:18,930366
-1,1,0,-1,0,0,-2,-1,2021-08-07 12:56:18,930366
0,-2,-2,-5,-8,-3,-2,-2,2021-08-07 12:56:18,945366
0,-2,1,4,9,4,1,0,2021-08-07 12:56:18,945366
1,-1,-2,1,3,2,-1,-1,2021-08-07 12:56:18,945366
0,2,0,1,-2,1,2,2,2021-08-07 12:56:18,945366
-2,-2,0,-6,-4,-3,-2,-2,2021-08-07 12:56:18,961368
-2,-1,0,-1,-5,-4,-2,-1,2021-08-07 12:56:18,977367
0,0,-1,0,2,1,1,-2,2021-08-07 12:56:18,993365
-1,0,-1,-5,-5,-3,-2,0,2021-08-07 12:56:18,993365
0,-3,-3,-6,-11,-7,-4,-3,2021-08-07 12:56:18,993365
0,-1,0,1,1,3,1,0,2021-08-07 12:56:18,993365
0,-1,0,4,7,4,2,0,2021-08-07 12:56:18,994366
-1,-1,-3,-5,-5,-6,0,-1,2021-08-07 12:56:18,994366
0,0,1,0,0,-1,2,1,2021-08-07 12:56:18,994366
-3,-2,-2,-3,-2,-2,0,-1,2021-08-07 12:56:19,008365
1,1,4,4,3,4,1,0,2021-08-07 12:56:19,024365
1,0,-1,1,3,2,0,1,2021-08-07 12:56:19,024365
2,0,0,1,-1,-1,-1,1,2021-08-07 12:56:19,024365
1,0,-1,-2,-2,-4,-2,-1,2021-08-07 12:56:19,024365
-2,-3,-4,-5,-4,-4,-2,-1,2021-08-07 12:56:19,024365
0,-1,-1,1,4,3,1,0,2021-08-07 12:56:19,024365
-1,-1,-3,-2,-1,-3,-2,0,2021-08-07 12:56:19,040366
0,-2,-3,-3,-3,-1,-2,-1,2021-08-07 12:56:19,040366
-3,-3,-2,-2,-1,-1,-3,-2,2021-08-07 12:56:19,040366
0,2,2,0,-3,-3,0,0,2021-08-07 12:56:19,040366
-2,-1,-2,-5,-6,-3,-3,-1,2021-08-07 12:56:19,072365
-1,0,0,-3,-3,1,2,0,2021-08-07 12:56:19,088365
1,2,4,5,9,5,2,1,2021-08-07 12:56:19,088365
-1,0,-3,-2,-3,-3,-2,-2,2021-08-07 12:56:19,088365
0,0,-2,1,0,1,-3,-2,2021-08-07 12:56:19,088365
0,1,2,4,1,0,-1,-1,2021-08-07 12:56:19,088365
-2,-1,-1,-4,-8,-5,-3,-1,2021-08-07 12:56:19,088365
0,-2,-2,-3,-4,-1,0,-1,2021-08-07 12:56:19,089365
-3,-3,-2,0,3,0,-1,-3,2021-08-07 12:56:19,104364
0,0,-1,-3,-7,-5,-2,0,2021-08-07 12:56:19,104364
0,-1,0,0,-1,-1,-1,1,2021-08-07 12:56:19,104364
-2,-2,0,2,3,2,1,-2,2021-08-07 12:56:19,104364
0,-1,0,4,5,3,2,1,2021-08-07 12:56:19,119367
-2,-2,-3,-1,-3,-2,-1,-2,2021-08-07 12:56:19,135365
1,3,1,2,-2,-2,1,0,2021-08-07 12:56:19,135365
-3,-3,-3,-6,-11,-7,-5,-4,2021-08-07 12:56:19,135365
-1,-1,-4,-5,-4,0,-1,-2,2021-08-07 12:56:19,135365
-2,-3,-2,0,7,3,1,-1,2021-08-07 12:56:19,135365
2,2,4,8,10,7,5,2,2021-08-07 12:56:19,151365
-1,-1,-1,1,3,0,-1,0,2021-08-07 12:56:19,151365
-1,-3,-3,-2,-6,-6,-3,-1,2021-08-07 12:56:19,151365
0,1,-2,-13,-15,-8,-7,-2,2021-08-07 12:56:19,151365
-1,-2,-1,0,-4,-4,-2,0,2021-08-07 12:56:19,183365
-2,-3,0,-2,-3,0,-2,-2,2021-08-07 12:56:19,183365
3,4,5,6,11,8,2,0,2021-08-07 12:56:19,183365
-2,-3,-3,0,-1,-1,-1,-2,2021-08-07 12:56:19,183365
-1,1,-4,-6,-2,-2,0,-1,2021-08-07 12:56:19,183365
1,0,-2,-2,-1,-2,0,0,2021-08-07 12:56:19,183365
-2,-2,1,-3,-4,-3,-2,-1,2021-08-07 12:56:19,199365
-1,-2,-3,0,0,0,-1,0,2021-08-07 12:56:19,215365
-3,-2,-3,-7,-10,-6,-3,-3,2021-08-07 12:56:19,215365
-2,-1,-1,1,-3,-2,-2,-2,2021-08-07 12:56:19,215365
2,1,0,-2,5,5,2,1,2021-08-07 12:56:19,215365
0,-1,1,4,2,-2,-2,-1,2021-08-07 12:56:19,215365
1,-1,1,6,11,8,3,1,2021-08-07 12:56:19,215365
1,-1,-2,-2,-1,0,0,0,2021-08-07 12:56:19,215365
-2,0,-1,1,-4,-5,-3,0,2021-08-07 12:56:19,247366
-4,-2,-1,2,2,1,0,1,2021-08-07 12:56:19,247366
0,0,-3,-5,-7,-5,-3,-1,2021-08-07 12:56:19,247366
0,2,0,1,2,1,1,0,2021-08-07 12:56:19,247366
-3,-6,-4,-9,-11,-7,-4,-3,2021-08-07 12:56:19,247366
3,5,5,6,3,2,2,2,2021-08-07 12:56:19,247366
-1,-1,0,2,4,2,0,1,2021-08-07 12:56:19,263365
1,3,2,5,10,7,3,1,2021-08-07 12:56:19,263365
-1,-2,-3,0,0,0,0,-2,2021-08-07 12:56:19,279366
-2,-3,-4,-6,-2,-2,-1,-3,2021-08-07 12:56:19,279366
0,-3,-3,-5,-9,-5,-3,-2,2021-08-07 12:56:19,279366
1,2,4,6,8,3,2,2,2021-08-07 12:56:19,279366
-3,-4,-5,-3,-7,-5,-5,-3,2021-08-07 12:56:19,311366
0,0,-1,-4,-2,1,0,-1,2021-08-07 12:56:19,311366
1,2,3,8,7,4,1,2,2021-08-07 12:56:19,311366
-2,-1,-3,-5,-5,-5,-4,-2,2021-08-07 12:56:19,311366
1,3,1,-1,1,1,1,0,2021-08-07 12:56:19,327365
-2,-4,-2,3,-1,-3,-2,-1,2021-08-07 12:56:19,342364
-3,-2,-3,0,3,3,-2,-3,2021-08-07 12:56:19,355365
-2,-2,-4,-10,-13,-7,-3,0,2021-08-07 12:56:19,355365
3,5,7,10,15,9,7,4,2021-08-07 12:56:19,355365
-1,0,-2,-3,-3,-2,-3,0,2021-08-07 12:56:19,356366
-2,-2,-2,-4,-1,-3,-3,-4,2021-08-07 12:56:19,356366
-2,-4,-2,0,1,-3,-1,-3,2021-08-07 12:56:19,356366
-1,0,2,-2,-3,-2,-2,-1,2021-08-07 12:56:19,356366
0,-2,-4,-5,-6,-4,0,0,2021-08-07 12:56:19,356366
0,2,2,-3,-8,-2,1,0,2021-08-07 12:56:19,356366
0,-1,1,8,12,7,2,1,2021-08-07 12:56:19,356366
-1,-1,-1,0,-1,0,1,0,2021-08-07 12:56:19,389366
0,0,0,1,4,2,0,0,2021-08-07 12:56:19,405367
-1,-3,-2,-4,-5,-5,-4,-2,2021-08-07 12:56:19,421365
1,0,0,-1,-2,0,0,0,2021-08-07 12:56:19,421365
0,-3,-1,1,-1,0,-1,0,2021-08-07 12:56:19,421365
-2,-3,-2,-5,-6,-3,-3,-3,2021-08-07 12:56:19,421365
-4,-4,-3,-6,-8,-4,-3,-3,2021-08-07 12:56:19,421365
4,4,5,10,17,11,6,4,2021-08-07 12:56:19,421365
0,3,0,-1,-1,-1,-1,-1,2021-08-07 12:56:19,422365
-3,-1,-3,-5,-4,-3,-3,0,2021-08-07 12:56:19,422365
0,-2,-1,-1,2,-1,-2,-2,2021-08-07 12:56:19,422365
0,0,-1,-3,-4,-3,-1,1,2021-08-07 12:56:19,422365
-3,-3,-1,-1,-8,-5,-3,-1,2021-08-07 12:56:19,453366
1,1,-1,3,8,5,5,2,2021-08-07 12:56:19,469364
-1,-3,-2,-2,-1,0,-2,-2,2021-08-07 12:56:19,485366
-1,-2,-3,-5,-8,-4,-3,-1,2021-08-07 12:56:19,485366
-1,-3,-3,-4,0,0,0,-1,2021-08-07 12:56:19,485366
-1,1,3,4,4,5,2,-1,2021-08-07 12:56:19,485366
-2,-1,2,5,9,5,3,1,2021-08-07 12:56:19,485366
0,0,-1,-1,-1,-1,-1,-4,2021-08-07 12:56:19,485366
1,0,0,-1,-4,-5,-3,-1,2021-08-07 12:56:19,486367
-1,-2,-2,-5,-5,-5,-3,-1,2021-08-07 12:56:19,486367
1,0,-2,-3,-3,0,-2,0,2021-08-07 12:56:19,501365
1,-1,1,-1,-2,0,-2,2,2021-08-07 12:56:19,501365
0,-2,-5,-1,0,0,0,0,2021-08-07 12:56:19,501365
2,-1,0,1,0,-1,-3,0,2021-08-07 12:56:19,501365
-2,-2,-4,-2,-3,-3,-2,0,2021-08-07 12:56:19,501365
-2,-2,-1,0,-3,-3,-1,-1,2021-08-07 12:56:19,502368
0,1,1,1,3,2,0,0,2021-08-07 12:56:19,517366
1,1,0,0,-1,-2,0,1,2021-08-07 12:56:19,517366
0,-3,-2,-4,-5,-3,-2,0,2021-08-07 12:56:19,517366
-1,0,-2,-3,-6,-2,-2,-1,2021-08-07 12:56:19,517366
2,1,0,3,6,3,2,0,2021-08-07 12:56:19,564365
-1,-1,0,1,-1,-2,-3,-2,2021-08-07 12:56:19,564365
0,1,-1,-1,-1,-2,-1,0,2021-08-07 12:56:19,564365
-2,-2,-2,-3,-4,-4,-2,-3,2021-08-07 12:56:19,564365
0,-1,0,4,1,3,0,2,2021-08-07 12:56:19,564365
-1,-1,-2,-3,-4,-1,-2,0,2021-08-07 12:56:19,564365
3,1,3,1,-3,0,2,2,2021-08-07 12:56:19,565367
-3,-2,-1,-5,-3,-1,0,-2,2021-08-07 12:56:19,580365
1,2,1,3,5,3,3,0,2021-08-07 12:56:19,580365
-2,-1,1,-1,0,1,0,0,2021-08-07 12:56:19,580365
1,0,-2,0,3,0,1,2,2021-08-07 12:56:19,580365
0,0,0,0,-1,-1,-1,1,2021-08-07 12:56:19,580365
-2,-3,0,-4,-6,-4,-3,-3,2021-08-07 12:56:19,611365
-2,-2,-3,-4,-3,-3,-2,-2,2021-08-07 12:56:19,611365
-1,0,1,3,1,0,-2,-2,2021-08-07 12:56:19,611365
-1,0,-1,1,3,3,1,1,2021-08-07 12:56:19,611365
-3,-2,-3,-3,-2,-3,-3,-1,2021-08-07 12:56:19,627366
-1,-3,-3,-5,-11,-6,-2,-2,2021-08-07 12:56:19,643365
-1,-4,-5,-9,-9,-4,-2,-1,2021-08-07 12:56:19,643365
1,2,5,17,27,16,7,2,2021-08-07 12:56:19,643365
-1,-1,0,-3,-3,-1,-2,0,2021-08-07 12:56:19,643365
1,1,1,1,-2,-5,0,0,2021-08-07 12:56:19,643365
-1,1,0,1,3,1,1,0,2021-08-07 12:56:19,659365
-2,-2,-2,-6,-9,-6,-3,-2,2021-08-07 12:56:19,659365
0,-2,-1,-1,-1,-1,-1,-3,2021-08-07 12:56:19,659365
-2,-3,-2,-5,-4,-2,-3,-3,2021-08-07 12:56:19,659365
-1,0,-1,-1,-4,-2,-1,-1,2021-08-07 12:56:19,659365
-1,-6,-6,-6,-7,-4,-4,-1,2021-08-07 12:56:19,659365
1,2,4,4,4,1,1,1,2021-08-07 12:56:19,690364
0,2,2,0,1,1,2,1,2021-08-07 12:56:19,706365
-1,2,2,5,4,1,2,-1,2021-08-07 12:56:19,706365
-1,-1,2,-3,-2,0,0,-1,2021-08-07 12:56:19,706365
-3,-4,-6,-3,-3,-3,-4,-3,2021-08-07 12:56:19,706365
1,0,-1,2,6,6,1,2,2021-08-07 12:56:19,706365
0,0,-1,-2,-5,-3,-2,-2,2021-08-07 12:56:19,706365
-1,-1,-1,-3,-3,-2,-1,0,2021-08-07 12:56:19,707367
-2,-2,-4,-3,-4,-3,-2,-3,2021-08-07 12:56:19,722363
-3,-2,-1,-1,-1,-1,-3,-2,2021-08-07 12:56:19,737365
0,0,1,2,1,3,1,1,2021-08-07 12:56:19,737365
0,-1,-1,0,0,-3,-2,-3,2021-08-07 12:56:19,737365
0,-3,-3,-2,-2,1,1,-1,2021-08-07 12:56:19,737365
1,3,4,4,4,2,2,0,2021-08-07 12:56:19,737365
-3,-4,-5,-12,-17,-12,-7,-4,2021-08-07 12:56:19,737365
1,1,-1,2,5,4,1,-1,2021-08-07 12:56:19,737365
0,3,-1,3,7,5,2,1,2021-08-07 12:56:19,769367
-3,-5,-4,-3,-4,-4,-3,-4,2021-08-07 12:56:19,785364
0,0,0,-2,0,1,0,0,2021-08-07 12:56:19,795366
-1,0,0,-4,-10,-6,-2,-1,2021-08-07 12:56:19,796365
-1,1,0,-1,3,1,0,1,2021-08-07 12:56:19,796365
1,0,-2,3,0,0,-1,-1,2021-08-07 12:56:19,796365
0,-1,-1,-2,0,-1,-2,0,2021-08-07 12:56:19,796365
3,5,5,1,-2,1,2,4,2021-08-07 12:56:19,796365
-1,-3,0,-6,-8,-4,-2,0,2021-08-07 12:56:19,801366
-3,-1,-2,-2,-1,-3,-1,-1,2021-08-07 12:56:19,801366
0,0,0,1,6,5,2,1,2021-08-07 12:56:19,801366
-2,-2,-4,-1,1,1,0,-1,2021-08-07 12:56:19,801366
1,1,1,-4,-6,-3,-1,-1,2021-08-07 12:56:19,817365
-1,-1,-1,-3,-3,-2,-1,0,2021-08-07 12:56:19,833365
-2,-2,-1,1,3,1,1,-2,2021-08-07 12:56:19,833365
-2,-1,-2,-3,-7,-4,-2,-1,2021-08-07 12:56:19,833365
-1,-1,-2,-3,-3,-3,-2,-1,2021-08-07 12:56:19,833365
-1,-1,1,4,9,5,2,2,2021-08-07 12:56:19,833365
0,-3,-3,-6,-6,-4,-2,-2,2021-08-07 12:56:19,849366
-2,-3,-2,-3,-6,-5,-3,-2,2021-08-07 12:56:19,865366
1,1,-1,6,13,7,4,1,2021-08-07 12:56:19,865366
1,1,-1,0,-1,-2,-1,0,2021-08-07 12:56:19,865366
2,0,1,0,6,2,0,0,2021-08-07 12:56:19,865366
1,2,1,1,0,-4,-2,-1,2021-08-07 12:56:19,865366
-3,-3,-4,-5,-9,-5,-4,-2,2021-08-07 12:56:19,881366
-1,-1,2,5,5,2,1,0,2021-08-07 12:56:19,881366
-1,2,0,-2,-1,0,0,1,2021-08-07 12:56:19,897366
-1,-3,-3,-2,1,-1,-2,-2,2021-08-07 12:56:19,913364
0,2,2,0,-2,-1,-1,0,2021-08-07 12:56:19,929366
0,-3,-4,-2,-1,0,1,0,2021-08-07 12:56:19,929366
-2,-2,-2,-2,-6,-4,-2,-1,2021-08-07 12:56:19,929366
1,0,1,3,0,3,1,1,2021-08-07 12:56:19,929366
0,-2,-1,-3,-4,-3,-2,0,2021-08-07 12:56:19,929366
1,0,-1,-2,-2,0,0,-1,2021-08-07 12:56:19,929366
0,-1,1,7,11,6,4,0,2021-08-07 12:56:19,929366
-1,-1,-1,-2,-2,-2,-2,1,2021-08-07 12:56:19,929366
0,0,-2,-2,-5,-4,-2,-1,2021-08-07 12:56:19,930365
-1,-1,-3,-1,-4,-2,-2,-1,2021-08-07 12:56:19,930365
-1,-2,-3,-2,-7,-4,-2,-2,2021-08-07 12:56:19,945365
-2,-4,-4,-5,-5,-5,-3,-2,2021-08-07 12:56:19,945365
-4,-5,-2,-2,-1,0,1,-2,2021-08-07 12:56:19,961364
-2,-1,-1,-3,-5,-4,-3,-2,2021-08-07 12:56:19,961364
5,7,6,10,14,9,6,6,2021-08-07 12:56:19,961364
-2,-1,-1,0,1,-1,0,0,2021-08-07 12:56:19,961364
-2,-3,-1,-3,-6,-5,-4,-1,2021-08-07 12:56:19,992366
-1,-3,-3,-1,0,1,-2,-1,2021-08-07 12:56:19,992366
-4,-2,-5,-5,-4,-1,-3,1,2021-08-07 12:56:19,992366
2,2,1,2,-1,-1,1,0,2021-08-07 12:56:19,992366
0,-1,-3,2,4,1,2,-2,2021-08-07 12:56:19,992366
-2,0,0,1,0,-1,-2,-1,2021-08-07 12:56:19,992366
1,1,1,0,-3,-4,-1,0,2021-08-07 12:56:20,008364
-2,-1,-3,-1,3,2,-1,-1,2021-08-07 12:56:20,008364
0,1,-1,1,0,-1,-2,-1,2021-08-07 12:56:20,024364
-3,-2,-2,-6,-8,-7,-4,-3,2021-08-07 12:56:20,024364
0,-2,-2,-3,-4,-2,-1,-1,2021-08-07 12:56:20,024364
0,0,1,1,4,4,3,0,2021-08-07 12:56:20,024364
2,3,4,7,4,2,2,2,2021-08-07 12:56:20,056365
0,-2,-2,-1,-3,-2,-2,-2,2021-08-07 12:56:20,072365
-2,-1,-1,-2,-2,-2,-1,-2,2021-08-07 12:56:20,104365
-1,-3,-4,-5,-6,-3,-3,-1,2021-08-07 12:56:20,136364
-1,-2,-1,-1,-2,-2,-4,-2,2021-08-07 12:56:20,136364
1,2,1,-1,5,4,4,3,2021-08-07 12:56:20,136364
-2,-2,-2,-5,-8,-5,-3,-2,2021-08-07 12:56:20,136364
0,0,1,2,4,2,0,1,2021-08-07 12:56:20,136364
0,3,2,2,3,2,2,2,2021-08-07 12:56:20,136364
1,-1,-2,-2,-2,-3,-3,-1,2021-08-07 12:56:20,137365
-2,-4,-4,-4,-6,-6,-4,-3,2021-08-07 12:56:20,137365
0,3,3,1,1,2,3,0,2021-08-07 12:56:20,137365
2,0,1,-1,3,1,0,1,2021-08-07 12:56:20,137365
1,3,0,0,0,2,2,1,2021-08-07 12:56:20,137365
0,-1,0,3,5,3,2,1,2021-08-07 12:56:20,137365
-3,-5,-8,-8,-12,-7,-5,-4,2021-08-07 12:56:20,137365
-1,-1,0,0,0,1,1,-1,2021-08-07 12:56:20,137365
-1,-1,-1,1,3,2,-1,1,2021-08-07 12:56:20,137365
1,0,-1,1,1,0,-1,1,2021-08-07 12:56:20,138365
0,-1,1,1,0,0,0,0,2021-08-07 12:56:20,138365
1,0,-2,-5,-7,-5,-1,1,2021-08-07 12:56:20,138365
-1,-2,0,3,5,3,-1,-3,2021-08-07 12:56:20,138365
-1,1,0,5,4,1,2,0,2021-08-07 12:56:20,138365
2,4,4,5,5,3,2,2,2021-08-07 12:56:20,138365
-4,-4,-6,-5,-7,-5,-3,-1,2021-08-07 12:56:20,183364
-1,-1,-2,-7,-11,-6,-5,-2,2021-08-07 12:56:20,183364
-1,-1,-2,1,3,1,0,-2,2021-08-07 12:56:20,183364
1,2,1,2,3,0,0,1,2021-08-07 12:56:20,183364
-2,-3,-1,-3,2,0,-1,-1,2021-08-07 12:56:20,183364
-1,0,-1,2,-1,-4,-1,1,2021-08-07 12:56:20,183364
-2,-2,-2,-5,-11,-8,-4,-1,2021-08-07 12:56:20,184366
0,-2,-2,-5,1,4,3,2,2021-08-07 12:56:20,184366
-2,0,2,5,6,1,-1,-2,2021-08-07 12:56:20,199366
0,0,-1,0,2,2,1,-1,2021-08-07 12:56:20,199366
2,2,2,2,5,2,1,0,2021-08-07 12:56:20,199366
-2,-3,-3,-4,-8,-7,-3,-1,2021-08-07 12:56:20,199366
-2,-4,-5,-5,-7,-4,-4,-2,2021-08-07 12:56:20,222365
-2,-3,-3,-2,-4,-3,-2,-1,2021-08-07 12:56:20,222365
-1,-1,1,-1,4,2,0,1,2021-08-07 12:56:20,223365
2,5,6,5,2,2,2,1,2021-08-07 12:56:20,223365
0,0,2,1,2,1,1,0,2021-08-07 12:56:20,247363
-2,-2,-3,-2,-1,-2,-2,-1,2021-08-07 12:56:20,263364
1,0,1,3,5,0,2,2,2021-08-07 12:56:20,294365
-3,-3,-4,-6,-11,-9,-4,-4,2021-08-07 12:56:20,310364
2,4,3,9,16,14,6,2,2021-08-07 12:56:20,326365
-1,-1,0,-3,-5,-2,-2,-1,2021-08-07 12:56:20,341365
-1,-3,-3,-2,-3,-2,-2,-1,2021-08-07 12:56:20,357365
-2,-4,-4,-8,-8,-6,-3,-1,2021-08-07 12:56:20,357365
3,4,6,7,13,7,4,3,2021-08-07 12:56:20,357365
-1,-3,-3,-2,1,0,-1,-1,2021-08-07 12:56:20,357365
-1,-1,1,0,1,-1,-2,-1,2021-08-07 12:56:20,357365
2,2,2,0,-1,-1,0,1,2021-08-07 12:56:20,358365
-3,-3,-3,-8,-13,-9,-5,-4,2021-08-07 12:56:20,358365
0,-1,1,1,4,2,1,-2,2021-08-07 12:56:20,358365
0,-2,-3,-1,-2,0,-1,-1,2021-08-07 12:56:20,358365
-3,-3,-4,-3,-4,-2,-2,-2,2021-08-07 12:56:20,358365
-1,-1,-5,-5,-8,-5,-3,0,2021-08-07 12:56:20,358365
1,0,1,4,9,7,3,0,2021-08-07 12:56:20,358365
-3,-4,-4,-2,-6,-4,-4,-3,2021-08-07 12:56:20,359366
-1,0,2,5,7,3,1,-1,2021-08-07 12:56:20,359366
-4,-3,-1,-1,-1,-3,-3,-3,2021-08-07 12:56:20,359366
-2,-1,1,-3,-8,-7,-3,-3,2021-08-07 12:56:20,359366
0,2,2,-1,1,1,0,0,2021-08-07 12:56:20,359366
0,-2,-1,-2,0,-1,-2,-2,2021-08-07 12:56:20,359366
3,5,3,-1,-4,0,1,1,2021-08-07 12:56:20,359366
-2,-3,-3,-9,-13,-10,-5,-1,2021-08-07 12:56:20,373366
2,1,-1,5,9,3,3,1,2021-08-07 12:56:20,388367
2,3,4,11,17,10,6,2,2021-08-07 12:56:20,388367
0,1,2,-1,-4,-2,-1,1,2021-08-07 12:56:20,388367
-3,-2,-1,-6,-8,-6,-5,-3,2021-08-07 12:56:20,388367
-1,0,1,3,6,6,1,0,2021-08-07 12:56:20,388367
-3,-5,-5,-5,-5,-3,-4,-4,2021-08-07 12:56:20,388367
-1,-1,-2,-2,-4,-5,-3,-2,2021-08-07 12:56:20,420366
1,0,-1,3,8,4,2,1,2021-08-07 12:56:20,420366
0,0,1,-4,-4,-3,1,0,2021-08-07 12:56:20,436366
-1,-4,-5,-3,-1,-1,-1,-1,2021-08-07 12:56:20,436366
-2,-3,-3,-11,-12,-7,-3,-3,2021-08-07 12:56:20,436366
3,5,4,9,10,9,4,3,2021-08-07 12:56:20,436366
0,1,0,1,4,0,1,-1,2021-08-07 12:56:20,436366
1,1,0,1,2,0,-1,0,2021-08-07 12:56:20,436366
-2,-3,-5,-3,-5,-3,-4,-3,2021-08-07 12:56:20,436366
-5,-6,-8,-11,-14,-11,-8,-4,2021-08-07 12:56:20,437367
4,7,7,8,15,12,6,4,2021-08-07 12:56:20,452364
-2,-2,-2,-3,-5,-3,-1,-1,2021-08-07 12:56:20,452364
-1,-4,-4,-1,0,0,0,-2,2021-08-07 12:56:20,468365
0,3,3,4,6,3,3,2,2021-08-07 12:56:20,468365
-2,0,-1,-4,-10,-6,-3,-2,2021-08-07 12:56:20,468365
-2,0,1,-1,-2,0,-2,-1,2021-08-07 12:56:20,468365
-3,-5,-4,-6,-3,-2,-2,-1,2021-08-07 12:56:20,484367
2,2,7,11,11,5,3,2,2021-08-07 12:56:20,500365
-2,-4,-4,-7,-11,-7,-5,-1,2021-08-07 12:56:20,515366
0,1,1,3,2,-1,1,0,2021-08-07 12:56:20,515366
-1,0,-2,2,1,0,-1,0,2021-08-07 12:56:20,515366
0,-1,0,1,3,2,1,-1,2021-08-07 12:56:20,515366
-2,-4,-3,-6,-6,-5,-2,-1,2021-08-07 12:56:20,515366
-1,-1,-2,-5,-6,-4,-2,-2,2021-08-07 12:56:20,515366
1,4,5,9,9,7,3,1,2021-08-07 12:56:20,516368
1,0,-2,-1,1,0,1,0,2021-08-07 12:56:20,516368
-3,-7,-6,-12,-18,-11,-8,-4,2021-08-07 12:56:20,531365
-1,-2,-4,-3,-6,-2,-3,0,2021-08-07 12:56:20,531365
2,0,0,0,2,1,-1,0,2021-08-07 12:56:20,546368
1,3,1,4,1,3,1,0,2021-08-07 12:56:20,546368
-3,-1,-1,3,3,2,2,1,2021-08-07 12:56:20,546368
-3,-4,-2,-3,-3,-3,-4,-3,2021-08-07 12:56:20,546368
-1,0,-1,3,4,3,2,-1,2021-08-07 12:56:20,562366
2,5,3,1,-2,-1,-2,1,2021-08-07 12:56:20,578364
2,3,4,9,9,7,3,3,2021-08-07 12:56:20,610367
1,0,2,6,13,6,2,1,2021-08-07 12:56:20,610367
-2,-2,-2,-3,0,0,-1,-1,2021-08-07 12:56:20,610367
-2,-3,-4,-6,-4,-5,-3,-2,2021-08-07 12:56:20,610367
0,-1,-2,1,3,2,2,1,2021-08-07 12:56:20,610367
1,1,0,-4,-9,-5,1,1,2021-08-07 12:56:20,610367
-1,-3,-1,4,-2,-3,-3,-3,2021-08-07 12:56:20,610367
0,-2,-3,-5,0,0,-1,-1,2021-08-07 12:56:20,610367
0,1,0,-3,-6,-2,-1,-3,2021-08-07 12:56:20,610367
-2,-1,0,3,8,4,2,-1,2021-08-07 12:56:20,611368
-1,-1,-1,-5,-5,-4,-2,-1,2021-08-07 12:56:20,626367
-2,-3,-3,-7,-6,-4,-2,-1,2021-08-07 12:56:20,642365
0,0,0,-1,-2,-2,-2,0,2021-08-07 12:56:20,642365
-2,-1,-1,-1,-3,-2,-2,-2,2021-08-07 12:56:20,642365
1,1,0,2,2,-1,1,1,2021-08-07 12:56:20,642365
-4,-5,-4,-5,-5,-4,-3,-2,2021-08-07 12:56:20,642365
-1,1,-3,-1,1,0,-1,-1,2021-08-07 12:56:20,642365
4,5,5,7,7,6,4,3,2021-08-07 12:56:20,642365
-1,-1,-2,-4,-3,-1,-1,-1,2021-08-07 12:56:20,673366
-2,-3,-1,0,-3,-1,-1,-2,2021-08-07 12:56:20,673366
-2,-4,-5,-12,-15,-10,-5,-1,2021-08-07 12:56:20,673366
0,1,1,0,-2,-1,-1,1,2021-08-07 12:56:20,673366
1,2,2,1,4,3,0,0,2021-08-07 12:56:20,689365
0,1,0,5,5,3,2,0,2021-08-07 12:56:20,689365
0,-2,-2,-3,-3,-1,-2,-2,2021-08-07 12:56:20,689365
-1,-2,-3,-2,-6,-3,-3,-1,2021-08-07 12:56:20,705364
-1,-1,-1,-1,1,1,0,1,2021-08-07 12:56:20,705364
-4,-3,-5,-6,-9,-6,-2,-3,2021-08-07 12:56:20,705364
-1,0,2,1,4,2,1,0,2021-08-07 12:56:20,705364
1,-1,0,2,4,3,1,1,2021-08-07 12:56:20,705364
-1,0,0,3,0,0,0,0,2021-08-07 12:56:20,736366
-1,-1,-2,-4,-4,-2,-1,-1,2021-08-07 12:56:20,736366
-3,-5,-5,-4,-7,-5,-4,-5,2021-08-07 12:56:20,736366
1,2,3,1,2,2,1,1,2021-08-07 12:56:20,736366
0,-1,-1,1,0,-2,-1,0,2021-08-07 12:56:20,736366
2,2,3,5,7,4,0,3,2021-08-07 12:56:20,736366
0,1,1,2,1,-2,2,-1,2021-08-07 12:56:20,752365
-6,-5,-7,-9,-15,-9,-6,-3,2021-08-07 12:56:20,752365
0,1,2,0,4,2,1,1,2021-08-07 12:56:20,768366
-1,2,1,3,5,1,1,0,2021-08-07 12:56:20,768366
0,1,-2,2,3,2,0,1,2021-08-07 12:56:20,768366
0,-1,-2,-1,3,0,-1,-1,2021-08-07 12:56:20,768366
-3,-1,-4,-9,-9,-7,-4,-2,2021-08-07 12:56:20,784365
0,-1,-1,-4,-6,-2,-1,-1,2021-08-07 12:56:20,800365
-1,1,1,3,4,2,2,2,2021-08-07 12:56:20,816365
2,3,4,4,6,2,1,1,2021-08-07 12:56:20,816365
-1,-2,-2,-1,-4,-2,0,-1,2021-08-07 12:56:20,816365
-3,-4,-9,-9,-12,-9,-5,-4,2021-08-07 12:56:20,816365
0,1,4,4,3,5,2,0,2021-08-07 12:56:20,816365
0,0,1,6,11,6,3,1,2021-08-07 12:56:20,816365
-1,-3,-2,-3,-4,-3,-1,-3,2021-08-07 12:56:20,817365
0,0,1,0,-2,0,-1,1,2021-08-07 12:56:20,817365
-2,-2,-2,-2,-2,-2,-2,-1,2021-08-07 12:56:20,831364
0,2,-1,-4,-8,-5,-2,-2,2021-08-07 12:56:20,847365
1,1,-1,0,2,2,-1,-1,2021-08-07 12:56:20,847365
-2,-3,-4,0,-6,-4,-1,-1,2021-08-07 12:56:20,863365
0,0,0,-2,-3,-1,-2,0,2021-08-07 12:56:20,879366
-3,-2,-3,-4,-1,0,-1,0,2021-08-07 12:56:20,879366
-4,-3,-1,1,-2,-1,-2,-1,2021-08-07 12:56:20,879366
3,4,3,0,-1,3,1,1,2021-08-07 12:56:20,879366
-1,0,-1,-1,0,-1,0,-1,2021-08-07 12:56:20,879366
1,2,3,8,13,5,3,1,2021-08-07 12:56:20,879366
0,-3,-4,-4,-5,-4,-3,0,2021-08-07 12:56:20,879366
2,-1,-1,-2,2,1,0,-2,2021-08-07 12:56:20,880366
-3,-2,-3,-4,-5,-4,-2,-4,2021-08-07 12:56:20,880366
-3,1,0,-1,-4,-1,2,0,2021-08-07 12:56:20,880366
-2,-1,0,0,2,4,1,-2,2021-08-07 12:56:20,911366
-2,0,3,6,8,4,1,-2,2021-08-07 12:56:20,927365
20,7,1,-2,-2,2,3,11,2021-08-07 12:56:20,927365
-1,-2,-1,-4,-5,-3,-1,-2,2021-08-07 12:56:20,927365
-30,-16,-6,-5,-4,-11,-14,-14,2021-08-07 12:56:20,927365
-8,-7,-6,-6,-7,-7,-5,0,2021-08-07 12:56:20,927365
-3,-2,-3,1,1,0,-1,-3,2021-08-07 12:56:20,927365
8,4,3,0,-2,6,7,6,2021-08-07 12:56:20,928366
15,6,3,-1,1,5,9,9,2021-08-07 12:56:20,942365
5,2,6,7,8,2,-1,2,2021-08-07 12:56:20,942365
-13,-2,-1,-3,-2,-12,-16,-15,2021-08-07 12:56:20,942365
-1,-3,-9,0,0,-2,-2,-2,2021-08-07 12:56:20,942365
2,2,2,-2,-1,1,1,0,2021-08-07 12:56:20,989365
0,-1,0,-4,-5,1,3,1,2021-08-07 12:56:20,989365
3,2,2,2,4,6,5,4,2021-08-07 12:56:20,989365
-6,-3,-1,1,1,-2,-3,-3,2021-08-07 12:56:20,989365
2,2,-2,3,-6,-4,-2,-1,2021-08-07 12:56:20,989365
2,1,0,1,9,3,3,0,2021-08-07 12:56:20,989365
2,1,4,2,3,3,4,2,2021-08-07 12:56:20,990367
-5,-3,-3,-5,-8,-9,-6,-6,2021-08-07 12:56:20,990367
4,2,1,0,-1,-3,-1,3,2021-08-07 12:56:21,005366
-1,-1,-2,-3,-7,-3,-3,-2,2021-08-07 12:56:21,020364
-2,-1,0,6,11,7,2,1,2021-08-07 12:56:21,052366
-1,-2,-2,-3,-3,-2,-3,0,2021-08-07 12:56:21,052366
1,0,-2,-4,-3,-3,-2,-2,2021-08-07 12:56:21,052366
-2,1,0,0,-1,-2,0,-2,2021-08-07 12:56:21,052366
-5,-3,-3,-2,-4,1,0,-2,2021-08-07 12:56:21,052366
-2,-3,-2,2,2,-1,-2,0,2021-08-07 12:56:21,052366
0,-1,0,2,1,0,0,-2,2021-08-07 12:56:21,052366
1,2,2,-1,-3,0,0,1,2021-08-07 12:56:21,052366
-2,-4,-5,-11,-19,-13,-7,-2,2021-08-07 12:56:21,052366
3,4,4,4,12,8,5,1,2021-08-07 12:56:21,052366
-3,-2,0,0,5,2,-1,-2,2021-08-07 12:56:21,068366
-2,0,-2,0,3,1,1,0,2021-08-07 12:56:21,068366
-1,-1,-1,-3,-3,-1,1,0,2021-08-07 12:56:21,068366
0,1,2,-2,-4,-3,-3,-2,2021-08-07 12:56:21,068366
1,1,0,4,10,5,2,2,2021-08-07 12:56:21,084365
-1,-3,-3,0,0,1,-1,-2,2021-08-07 12:56:21,084365
-1,0,0,1,-2,-4,-2,-1,2021-08-07 12:56:21,084365
-3,-2,-3,-5,-3,-2,-3,-1,2021-08-07 12:56:21,084365
-1,-2,-1,-3,-2,-1,-1,1,2021-08-07 12:56:21,107365
1,-1,-1,-1,-1,-2,-3,1,2021-08-07 12:56:21,107365
-1,-1,-1,-1,-2,0,1,-1,2021-08-07 12:56:21,107365
-3,-2,-2,-3,-4,-4,-4,-2,2021-08-07 12:56:21,107365
0,0,-1,-1,-3,-2,-1,-1,2021-08-07 12:56:21,131364
1,0,0,0,1,2,-1,0,2021-08-07 12:56:21,131364
0,0,-2,0,0,-1,-1,-2,2021-08-07 12:56:21,131364
-1,-1,-2,-11,-9,-3,-1,-1,2021-08-07 12:56:21,131364
-2,0,-1,-5,-8,-4,-2,-1,2021-08-07 12:56:21,147366
-1,-1,-2,4,1,-1,1,-1,2021-08-07 12:56:21,147366
3,4,4,10,17,10,5,2,2021-08-07 12:56:21,147366
-1,-4,-3,-5,-5,-4,-2,-3,2021-08-07 12:56:21,147366
-3,-5,-5,-7,-10,-7,-5,-3,2021-08-07 12:56:21,163365
0,0,3,1,-2,-1,0,-1,2021-08-07 12:56:21,163365
-1,-2,-1,-2,0,0,-1,0,2021-08-07 12:56:21,163365
-1,-3,-3,-4,-8,-7,-4,-4,2021-08-07 12:56:21,163365
1,0,0,6,14,9,5,1,2021-08-07 12:56:21,194365
1,0,1,2,1,0,0,1,2021-08-07 12:56:21,194365
-2,1,-3,-4,-2,-1,-1,-1,2021-08-07 12:56:21,194365
-1,-3,1,-4,-6,-2,-2,-1,2021-08-07 12:56:21,194365
2,2,2,7,6,2,1,1,2021-08-07 12:56:21,210364
0,1,-1,0,2,0,-1,0,2021-08-07 12:56:21,225365
-1,0,-3,1,1,0,0,-1,2021-08-07 12:56:21,241365
0,-1,-3,-2,-3,-2,-1,1,2021-08-07 12:56:21,241365
-1,-2,-2,-2,-3,-2,-1,-1,2021-08-07 12:56:21,241365
1,2,0,-2,0,1,1,2,2021-08-07 12:56:21,257365
-2,-2,-1,-2,-5,-1,-1,0,2021-08-07 12:56:21,257365
-2,-1,0,4,5,1,1,-1,2021-08-07 12:56:21,257365
-4,-2,-2,-3,-6,-3,-4,-5,2021-08-07 12:56:21,257365
-5,-5,-3,-1,-2,-3,-3,-4,2021-08-07 12:56:21,257365
-1,-2,1,-7,-5,-4,-2,-1,2021-08-07 12:56:21,257365
2,4,5,9,9,5,1,1,2021-08-07 12:56:21,257365
2,-1,-1,-1,-4,-3,-1,-1,2021-08-07 12:56:21,272365
-1,-1,-5,-4,-9,-7,-5,-1,2021-08-07 12:56:21,288366
0,0,-1,2,0,1,1,0,2021-08-07 12:56:21,304364
-1,0,-1,-2,-3,-1,-1,-1,2021-08-07 12:56:21,304364
-1,0,-1,-1,6,5,2,2,2021-08-07 12:56:21,304364
-2,-2,-3,-1,2,-2,0,-2,2021-08-07 12:56:21,304364
-2,-2,0,0,-2,-1,-2,0,2021-08-07 12:56:21,304364
0,1,1,-1,-6,-4,-1,0,2021-08-07 12:56:21,304364
-2,0,-2,-2,-7,-4,-3,-2,2021-08-07 12:56:21,304364
-1,-2,-2,-1,1,1,-1,0,2021-08-07 12:56:21,304364
0,1,1,2,5,4,1,0,2021-08-07 12:56:21,305366
-1,-2,-1,0,2,2,0,-1,2021-08-07 12:56:21,305366
-3,-3,-3,-5,-7,-6,-5,-2,2021-08-07 12:56:21,335366
-2,0,0,0,1,2,0,-1,2021-08-07 12:56:21,335366
0,-1,-1,-2,-2,-2,-1,-1,2021-08-07 12:56:21,335366
-1,-3,-3,-1,-2,-3,-2,-3,2021-08-07 12:56:21,335366
1,0,2,1,3,2,2,1,2021-08-07 12:56:21,351365
0,1,1,0,-3,-1,-1,-1,2021-08-07 12:56:21,351365
-2,-3,-3,-2,0,-2,-1,-1,2021-08-07 12:56:21,351365
0,2,0,1,2,-1,0,1,2021-08-07 12:56:21,351365
0,-1,-1,-1,0,-2,0,-1,2021-08-07 12:56:21,367366
1,-2,0,-1,-1,-2,0,-1,2021-08-07 12:56:21,383364
-2,-1,-2,0,3,3,0,0,2021-08-07 12:56:21,399367
-2,-4,-6,-5,-7,-5,-4,-2,2021-08-07 12:56:21,399367
0,1,-2,-2,-2,0,-1,-2,2021-08-07 12:56:21,399367
0,2,2,-1,4,2,2,0,2021-08-07 12:56:21,399367
3,1,1,4,5,3,2,2,2021-08-07 12:56:21,399367
2,2,1,1,0,1,0,0,2021-08-07 12:56:21,415366
-3,-4,-4,-6,-7,-5,-4,-1,2021-08-07 12:56:21,431366
2,1,3,4,5,3,1,0,2021-08-07 12:56:21,447365
-2,-1,-2,-3,-6,-5,-3,-2,2021-08-07 12:56:21,447365
-5,-5,-6,-6,-10,-9,-6,-5,2021-08-07 12:56:21,447365
0,-2,1,-1,1,4,2,1,2021-08-07 12:56:21,447365
0,1,2,2,7,4,2,1,2021-08-07 12:56:21,447365
-1,0,1,0,-1,-3,-1,0,2021-08-07 12:56:21,447365
-1,0,2,1,5,2,1,0,2021-08-07 12:56:21,448369
-2,-2,-3,-5,-11,-9,-3,-2,2021-08-07 12:56:21,448369
-4,-5,-5,-5,-4,-1,-1,-1,2021-08-07 12:56:21,463365
1,0,1,4,5,2,1,2,2021-08-07 12:56:21,463365
-1,-1,-3,-3,-3,-2,0,-1,2021-08-07 12:56:21,463365
0,-1,0,0,1,2,1,0,2021-08-07 12:56:21,463365
-1,1,0,4,2,0,0,2,2021-08-07 12:56:21,463365
1,1,-1,0,0,1,2,-1,2021-08-07 12:56:21,479365
0,2,3,5,6,4,1,1,2021-08-07 12:56:21,479365
0,-1,-3,-2,-4,-3,-1,1,2021-08-07 12:56:21,479365
0,0,2,2,2,3,-2,-1,2021-08-07 12:56:21,479365
-2,-1,-3,-7,-10,-5,-4,-3,2021-08-07 12:56:21,495364
-1,-3,0,0,3,2,0,0,2021-08-07 12:56:21,495364
1,1,0,4,8,5,2,1,2021-08-07 12:56:21,511366
-3,-3,-4,-8,-11,-9,-4,-4,2021-08-07 12:56:21,527365
-2,-4,-3,-6,-8,-6,-4,-2,2021-08-07 12:56:21,545364
2,3,4,12,17,10,4,1,2021-08-07 12:56:21,545364
-1,-2,-2,0,3,1,-2,-2,2021-08-07 12:56:21,545364
1,2,-2,-1,-5,-4,-1,0,2021-08-07 12:56:21,545364
1,1,3,3,0,1,0,1,2021-08-07 12:56:21,546366
-1,-1,-4,-7,-13,-8,-4,-2,2021-08-07 12:56:21,546366
-1,-1,1,2,-2,-1,-1,-2,2021-08-07 12:56:21,557365
1,1,1,1,6,3,0,0,2021-08-07 12:56:21,573367
1,1,0,1,-2,-1,0,-1,2021-08-07 12:56:21,573367
-4,-4,-4,-5,-6,-6,-4,-4,2021-08-07 12:56:21,573367
3,2,3,5,11,6,2,4,2021-08-07 12:56:21,573367
-2,-3,-2,1,2,1,0,-1,2021-08-07 12:56:21,573367
-2,-3,-4,-3,0,-1,-1,-2,2021-08-07 12:56:21,573367
2,3,5,2,3,2,2,1,2021-08-07 12:56:21,573367
0,-1,-1,-4,-8,-6,-2,-2,2021-08-07 12:56:21,605368
-2,-2,-1,-7,-13,-7,-4,-2,2021-08-07 12:56:21,605368
1,2,3,7,11,10,4,1,2021-08-07 12:56:21,605368
-1,-4,-3,2,6,1,-1,-3,2021-08-07 12:56:21,605368
-1,-1,0,-1,0,-1,-3,-2,2021-08-07 12:56:21,605368
0,1,0,-1,-3,-3,0,1,2021-08-07 12:56:21,605368
-1,-3,-3,-2,1,2,0,0,2021-08-07 12:56:21,621367
-2,-3,-3,-5,-4,-4,-1,0,2021-08-07 12:56:21,621367
2,4,3,2,-3,-3,0,2,2021-08-07 12:56:21,621367
2,2,1,2,8,5,3,1,2021-08-07 12:56:21,621367
-1,0,0,-4,-5,-2,4,0,2021-08-07 12:56:21,621367
6,5,4,2,3,8,14,9,2021-08-07 12:56:21,621367
2,0,1,3,5,2,-2,1,2021-08-07 12:56:21,652368
-20,-17,-14,-18,-35,-40,-40,-26,2021-08-07 12:56:21,652368
-4,-5,-6,-9,-6,-7,-7,-4,2021-08-07 12:56:21,652368
1,2,5,13,23,14,6,3,2021-08-07 12:56:21,652368
-3,-5,-4,-7,-6,2,5,0,2021-08-07 12:56:21,668367
11,11,12,10,16,16,14,11,2021-08-07 12:56:21,684366
1,0,-1,1,-1,0,-1,-2,2021-08-07 12:56:21,684366
-3,-4,-3,-9,-15,-9,-6,-3,2021-08-07 12:56:21,684366
3,1,0,-3,-9,-1,5,5,2021-08-07 12:56:21,684366
7,5,4,12,20,22,20,12,2021-08-07 12:56:21,684366
-4,-3,-2,-2,-4,-10,-12,-7,2021-08-07 12:56:21,684366
-1,0,-5,-5,-8,-14,-17,-10,2021-08-07 12:56:21,684366
-8,-4,-7,-11,-15,-14,-10,-7,2021-08-07 12:56:21,716365
30,25,19,17,31,62,82,40,2021-08-07 12:56:21,716365
22,10,8,15,22,24,11,17,2021-08-07 12:56:21,716365
-53,-30,-22,-22,-42,-88,-95,-75,2021-08-07 12:56:21,716365
-31,-25,-23,-25,-31,-34,-29,-25,2021-08-07 12:56:21,716365
2,-2,-6,-7,-9,-3,-3,-8,2021-08-07 12:56:21,716365
11,10,9,6,7,20,31,20,2021-08-07 12:56:21,732366
12,4,5,8,13,28,33,33,2021-08-07 12:56:21,732366
13,10,11,14,18,25,26,11,2021-08-07 12:56:21,748365
4,-1,1,1,1,2,-1,3,2021-08-07 12:56:21,748365
20,13,5,5,6,0,-1,3,2021-08-07 12:56:21,748365
-10,-1,1,-6,-9,-9,-11,-6,2021-08-07 12:56:21,748365
-22,-14,-9,-13,-21,-31,-29,-19,2021-08-07 12:56:21,780368
-16,-3,-3,5,16,15,9,1,2021-08-07 12:56:21,796365
-2,-1,0,-1,-4,-4,-3,2,2021-08-07 12:56:21,828365
17,10,3,5,8,15,21,18,2021-08-07 12:56:21,844366
8,0,-3,-3,1,4,9,5,2021-08-07 12:56:21,844366
7,2,2,0,-3,-6,-13,-4,2021-08-07 12:56:21,844366
-14,-7,-4,-1,3,-2,-7,-11,2021-08-07 12:56:21,844366
1,-1,-2,-2,-2,4,7,-1,2021-08-07 12:56:21,844366
4,-1,0,-2,-2,2,-1,-3,2021-08-07 12:56:21,844366
-15,-12,-12,-18,-28,-36,-37,-20,2021-08-07 12:56:21,844366
-9,-5,-2,7,16,7,5,-2,2021-08-07 12:56:21,844366
17,13,12,20,36,39,29,20,2021-08-07 12:56:21,845366
10,8,7,12,11,5,2,7,2021-08-07 12:56:21,860369
-13,-11,-11,-12,-33,-32,-20,-13,2021-08-07 12:56:21,860369
-6,-3,-3,8,11,8,4,-4,2021-08-07 12:56:21,860369
9,5,1,2,12,10,9,6,2021-08-07 12:56:21,860369
-3,-1,-1,-17,-13,-6,-6,-2,2021-08-07 12:56:21,860369
-6,-7,-3,-1,2,-5,-6,-5,2021-08-07 12:56:21,860369
-4,-6,-14,-12,-29,-17,-12,-6,2021-08-07 12:56:21,861365
2,3,9,20,11,5,3,1,2021-08-07 12:56:21,861365
16,23,23,62,59,35,21,16,2021-08-07 12:56:21,861365
7,3,-7,-22,-23,-7,1,5,2021-08-07 12:56:21,861365
-17,-25,-32,-96,-59,-29,-19,-17,2021-08-07 12:56:21,861365
-12,-19,-30,-59,-35,-17,-13,-11,2021-08-07 12:56:21,861365
-2,-5,-2,-11,-16,-7,-4,-2,2021-08-07 12:56:21,891365
7,10,21,44,34,17,7,4,2021-08-07 12:56:21,891365
3,10,16,48,21,5,2,2,2021-08-07 12:56:21,906365
1,2,2,7,0,4,4,3,2021-08-07 12:56:21,906365
1,0,3,0,3,2,1,1,2021-08-07 12:56:21,906365
-7,-10,-11,-6,-1,-1,-8,-8,2021-08-07 12:56:21,906365
13,13,12,9,13,10,13,17,2021-08-07 12:56:21,906365
-11,-12,-5,-1,-5,-8,-9,-8,2021-08-07 12:56:21,906365
1,2,-3,2,1,-2,-2,0,2021-08-07 12:56:21,937365
-5,-3,-6,-12,-14,-12,-8,-6,2021-08-07 12:56:21,953363
-6,-1,0,-2,0,-3,-4,-6,2021-08-07 12:56:21,969367
4,4,8,14,10,8,7,5,2021-08-07 12:56:21,969367
1,-2,-3,3,-1,-3,1,0,2021-08-07 12:56:21,969367
-4,-4,-7,-17,-10,-4,-3,-3,2021-08-07 12:56:21,969367
-3,-4,1,-6,-2,-4,-4,-3,2021-08-07 12:56:21,969367
3,4,1,-3,-9,-4,0,2,2021-08-07 12:56:21,969367
-3,0,-3,-4,4,1,-2,-4,2021-08-07 12:56:21,970365
0,0,0,2,1,-1,-2,1,2021-08-07 12:56:21,970365
-1,-1,-1,10,11,3,1,-1,2021-08-07 12:56:21,970365
2,0,-1,-6,-11,-6,-1,1,2021-08-07 12:56:21,970365
-3,-4,-3,-7,-5,0,1,1,2021-08-07 12:56:21,985364
0,0,3,9,12,5,0,0,2021-08-07 12:56:21,985364
-4,-2,-2,1,-6,-6,-6,-3,2021-08-07 12:56:22,000368
-1,-1,0,-1,-1,1,1,-1,2021-08-07 12:56:22,000368
2,2,0,-5,-5,-1,1,-1,2021-08-07 12:56:22,016365
0,-1,2,-4,-5,-3,-2,2,2021-08-07 12:56:22,016365
-4,-3,-2,0,-4,-4,-5,-7,2021-08-07 12:56:22,016365
4,4,5,13,18,15,11,7,2021-08-07 12:56:22,032365
-2,-1,-3,-6,-5,-5,-3,-1,2021-08-07 12:56:22,048366
-4,-4,-3,-2,-3,-4,-2,-3,2021-08-07 12:56:22,064364
1,0,0,3,-5,-4,-2,0,2021-08-07 12:56:22,064364
1,-1,-5,-9,-15,-7,-3,-1,2021-08-07 12:56:22,064364
0,-1,-4,-4,8,7,1,1,2021-08-07 12:56:22,064364
-1,0,-1,-3,7,2,1,-1,2021-08-07 12:56:22,064364
-3,-4,-4,-4,-9,-8,-4,-2,2021-08-07 12:56:22,064364
2,1,3,4,3,2,3,2,2021-08-07 12:56:22,064364
0,-2,-1,-3,-3,-3,-2,-1,2021-08-07 12:56:22,064364
4,5,8,18,14,7,6,3,2021-08-07 12:56:22,065367
-2,-3,-4,-4,-13,-7,-3,-3,2021-08-07 12:56:22,079364
-3,-3,-5,-12,-1,1,0,-2,2021-08-07 12:56:22,095364
-2,-2,-1,2,8,3,2,-3,2021-08-07 12:56:22,095364
-1,-1,-3,-1,-1,1,1,2,2021-08-07 12:56:22,095364
-1,-4,1,-1,0,-1,-2,-2,2021-08-07 12:56:22,095869
-4,-1,1,4,-8,-6,-3,-4,2021-08-07 12:56:22,095869
7,8,8,4,-1,2,3,5,2021-08-07 12:56:22,111388
0,2,0,-4,0,-1,-1,1,2021-08-07 12:56:22,111388
-4,-1,1,-7,-8,-5,-4,-2,2021-08-07 12:56:22,127390
0,-3,-13,-4,3,1,-1,-2,2021-08-07 12:56:22,127390
-3,-5,-2,-1,-1,0,0,0,2021-08-07 12:56:22,143389
1,0,1,5,2,-1,2,0,2021-08-07 12:56:22,143389
2,3,4,7,3,2,2,2,2021-08-07 12:56:22,143389
0,1,4,7,8,5,2,2,2021-08-07 12:56:22,143389
-4,-6,-10,-14,-12,-6,-2,-3,2021-08-07 12:56:22,159390
-5,-6,-8,-14,-9,-6,-6,-5,2021-08-07 12:56:22,175391
-2,-1,0,2,4,0,-2,-3,2021-08-07 12:56:22,191388
0,1,4,0,-5,-4,-3,-2,2021-08-07 12:56:22,207389
1,-1,0,9,6,4,2,0,2021-08-07 12:56:22,223388
0,0,3,4,4,3,0,0,2021-08-07 12:56:22,223388
3,2,-2,-3,-2,-1,0,3,2021-08-07 12:56:22,223388
-2,-2,-2,-3,-7,-5,-2,-2,2021-08-07 12:56:22,223388
1,2,1,-4,-5,-3,1,1,2021-08-07 12:56:22,223388
0,1,-1,4,9,5,3,0,2021-08-07 12:56:22,223388
-1,-1,-3,3,4,1,-1,-1,2021-08-07 12:56:22,223388
0,1,3,3,-3,-4,-1,0,2021-08-07 12:56:22,224390
-1,-4,-4,5,0,-3,-1,-2,2021-08-07 12:56:22,224390
0,-3,-5,-12,-18,-10,-4,-1,2021-08-07 12:56:22,239391
2,2,-1,-12,7,6,4,1,2021-08-07 12:56:22,239391
-4,-6,-5,-9,-12,-7,-5,-3,2021-08-07 12:56:22,239391
-2,-1,0,-2,0,1,-2,-2,2021-08-07 12:56:22,239391
-2,0,0,12,5,0,-2,-1,2021-08-07 12:56:22,239391
-1,2,5,12,6,2,3,0,2021-08-07 12:56:22,239391
5,8,8,11,7,4,3,4,2021-08-07 12:56:22,240390
0,3,0,15,10,4,4,1,2021-08-07 12:56:22,255392
-4,-7,-12,-37,-22,-10,-5,-3,2021-08-07 12:56:22,255392
-4,-5,-3,-12,-9,-6,-4,-2,2021-08-07 12:56:22,255392
-2,-2,0,-1,-6,-5,-3,-2,2021-08-07 12:56:22,255392
0,2,4,8,-1,-2,-2,-1,2021-08-07 12:56:22,287390
1,1,-1,6,6,2,1,1,2021-08-07 12:56:22,303389
2,2,6,7,15,14,5,2,2021-08-07 12:56:22,303631
-3,-7,-8,-16,3,-2,-2,-3,2021-08-07 12:56:22,303631
1,-2,-4,3,6,4,-1,2,2021-08-07 12:56:22,303631
-2,-1,3,5,-5,-6,-4,-2,2021-08-07 12:56:22,303631
-1,2,2,9,-3,-3,1,1,2021-08-07 12:56:22,303631
2,1,4,12,11,6,5,2,2021-08-07 12:56:22,304390
-2,0,-2,-23,-8,-1,0,-1,2021-08-07 12:56:22,304390
-4,-7,-6,-11,-11,-7,-4,-3,2021-08-07 12:56:22,304390
-2,-5,-2,-5,-9,-6,-2,-3,2021-08-07 12:56:22,304390
0,1,-2,5,3,2,-1,0,2021-08-07 12:56:22,304390
-1,2,5,9,1,-2,-2,0,2021-08-07 12:56:22,334907
2,3,5,5,8,5,3,2,2021-08-07 12:56:22,350908
2,2,-2,-3,1,3,2,1,2021-08-07 12:56:22,366907
-4,-4,-10,-15,-13,-9,-5,-4,2021-08-07 12:56:22,366907
-2,-3,-5,-8,-9,-6,-2,-1,2021-08-07 12:56:22,366907
3,3,6,17,17,11,5,4,2021-08-07 12:56:22,366907
-1,1,2,3,2,0,-1,0,2021-08-07 12:56:22,366907
-1,2,0,1,5,2,2,-1,2021-08-07 12:56:22,366907
1,0,1,4,-3,-3,-2,-1,2021-08-07 12:56:22,366907
-1,1,4,1,-3,-1,-1,-1,2021-08-07 12:56:22,366907
1,3,3,21,23,11,4,2,2021-08-07 12:56:22,367908
0,-3,-8,-12,-7,-2,-1,-2,2021-08-07 12:56:22,367908
-11,-17,-21,-57,-45,-23,-16,-11,2021-08-07 12:56:22,394907
-1,-3,-1,-9,-9,-5,-2,-1,2021-08-07 12:56:22,394907
-2,-4,-3,-1,-9,-6,-5,-3,2021-08-07 12:56:22,394907
3,5,10,17,11,6,3,3,2021-08-07 12:56:22,395909
6,6,7,22,19,8,8,5,2021-08-07 12:56:22,414908
3,1,2,6,7,4,3,0,2021-08-07 12:56:22,430906
-2,1,-1,-3,-6,-6,-2,-2,2021-08-07 12:56:22,492908
-4,-5,-6,-6,-13,-7,-5,-4,2021-08-07 12:56:22,492908
-2,-3,-2,-8,-5,-1,-2,-1,2021-08-07 12:56:22,492908
1,2,1,10,18,9,3,1,2021-08-07 12:56:22,492908
1,0,1,0,1,-1,1,1,2021-08-07 12:56:22,492908
-3,-3,-3,-1,-2,-4,-4,-3,2021-08-07 12:56:22,493908
0,0,-2,-15,-17,-9,-5,-1,2021-08-07 12:56:22,493908
0,4,7,15,11,4,1,1,2021-08-07 12:56:22,493908
-1,0,-2,8,5,2,0,0,2021-08-07 12:56:22,493908
0,-2,-8,-29,-15,-7,-6,0,2021-08-07 12:56:22,493908
-3,-5,-4,0,11,6,2,-3,2021-08-07 12:56:22,494908
-2,-2,-4,-10,-17,-10,-4,-2,2021-08-07 12:56:22,494908
0,0,-1,4,11,5,3,3,2021-08-07 12:56:22,494908
1,4,7,17,10,5,1,2,2021-08-07 12:56:22,494908
2,2,5,11,5,4,0,1,2021-08-07 12:56:22,494908
-1,-1,-1,-2,-3,-3,-1,0,2021-08-07 12:56:22,494908
-2,-1,-3,-2,-9,-5,-3,-2,2021-08-07 12:56:22,494908
-4,-6,-6,-9,-13,-8,-4,-5,2021-08-07 12:56:22,494908
5,4,2,-3,11,9,6,5,2021-08-07 12:56:22,524907
-3,-3,1,-6,-8,-5,-3,-3,2021-08-07 12:56:22,539907
-1,0,2,-1,2,1,-1,-1,2021-08-07 12:56:22,555906
-3,-5,-10,-6,-16,-10,-6,-3,2021-08-07 12:56:22,555906
2,3,7,22,28,17,7,3,2021-08-07 12:56:22,571907
0,2,0,12,8,1,2,0,2021-08-07 12:56:22,587906
-2,-2,-3,-18,-14,-7,-4,-2,2021-08-07 12:56:22,587906
0,3,2,-1,9,6,4,0,2021-08-07 12:56:22,587906
-5,-3,-7,-9,-17,-12,-8,-4,2021-08-07 12:56:22,587906
-2,-4,-5,-11,-8,-3,-3,-1,2021-08-07 12:56:22,587906
-2,-4,0,-3,-11,-10,-6,-3,2021-08-07 12:56:22,587906
4,7,10,18,8,5,4,4,2021-08-07 12:56:22,587906
0,0,3,11,6,4,1,-1,2021-08-07 12:56:22,587906
3,3,-3,-7,12,8,5,3,2021-08-07 12:56:22,587906
-4,-8,-7,-10,-8,-4,-4,-4,2021-08-07 12:56:22,588909
-2,-4,-1,-7,-8,-5,-3,-4,2021-08-07 12:56:22,588909
-1,-1,0,5,-6,-5,-3,-1,2021-08-07 12:56:22,588909
0,-1,-3,0,-2,0,-1,0,2021-08-07 12:56:22,588909
-3,-3,-4,-9,-8,-3,-3,-2,2021-08-07 12:56:22,588909
0,2,1,5,12,7,3,1,2021-08-07 12:56:22,588909
3,5,5,7,7,5,4,3,2021-08-07 12:56:22,618907
0,1,0,9,2,-1,1,-2,2021-08-07 12:56:22,634908
1,-1,-3,2,-1,0,-2,0,2021-08-07 12:56:22,634908
-4,-7,-8,-23,-16,-7,-5,-4,2021-08-07 12:56:22,634908
-3,-3,-3,-14,-11,-6,-5,-4,2021-08-07 12:56:22,634908
-1,-1,-3,2,-5,-3,-3,-1,2021-08-07 12:56:22,634908
3,5,7,18,14,7,6,3,2021-08-07 12:56:22,634908
1,0,-2,1,14,9,4,2,2021-08-07 12:56:22,634908
-2,-4,-5,-11,-5,-4,-2,-2,2021-08-07 12:56:22,650908
0,0,0,-15,-15,-7,-3,-1,2021-08-07 12:56:22,650908
-3,-6,-5,-2,-8,-6,-5,-4,2021-08-07 12:56:22,650908
1,2,7,17,12,8,2,1,2021-08-07 12:56:22,650908
0,2,2,6,2,-2,-1,-1,2021-08-07 12:56:22,681908
1,0,-1,4,5,2,0,0,2021-08-07 12:56:22,697908
3,3,1,-2,0,2,2,1,2021-08-07 12:56:22,713906
-2,-2,-2,-8,-9,-7,-3,-1,2021-08-07 12:56:22,713906
-1,1,0,3,1,0,-1,-1,2021-08-07 12:56:22,713906
-1,-1,1,4,1,1,-2,-1,2021-08-07 12:56:22,713906
0,0,0,9,6,3,-1,-1,2021-08-07 12:56:22,713906
-1,-1,-3,-12,-4,0,1,-2,2021-08-07 12:56:22,713906
-4,-3,-9,-8,-11,-6,-3,-3,2021-08-07 12:56:22,729909
-4,-7,-7,-29,-13,-6,-4,-4,2021-08-07 12:56:22,745907
-1,-2,1,-8,-4,-2,0,-2,2021-08-07 12:56:22,761907
3,4,-2,18,11,4,3,2,2021-08-07 12:56:22,761907
-1,1,3,6,-2,-4,-2,1,2021-08-07 12:56:22,761907
0,1,0,17,9,3,2,0,2021-08-07 12:56:22,761907
4,5,6,0,0,3,3,3,2021-08-07 12:56:22,761907
-2,-3,-2,-7,-9,-8,-4,-4,2021-08-07 12:56:22,761907
-4,-6,-6,-9,-2,-4,-2,-3,2021-08-07 12:56:22,761907
-2,-1,0,-4,-11,-7,-3,-4,2021-08-07 12:56:22,761907
2,4,3,7,14,9,6,3,2021-08-07 12:56:22,762908
1,1,2,5,9,3,1,0,2021-08-07 12:56:22,762908
1,-1,0,-4,-5,-2,-1,0,2021-08-07 12:56:22,762908
-1,0,0,9,13,10,3,1,2021-08-07 12:56:22,762908
-6,-9,-10,-7,-18,-12,-9,-5,2021-08-07 12:56:22,777907
-2,-3,-1,-14,-12,-5,-4,-1,2021-08-07 12:56:22,777907
0,0,-1,0,4,0,0,0,2021-08-07 12:56:22,792908
0,-1,-1,-6,-2,-2,0,0,2021-08-07 12:56:22,792908
0,0,-6,-5,-3,-3,-1,-1,2021-08-07 12:56:22,792908
-1,1,4,10,5,2,-1,1,2021-08-07 12:56:22,792908
0,0,-2,1,-9,-5,-3,-2,2021-08-07 12:56:22,823908
-6,-7,-7,-9,-18,-11,-6,-6,2021-08-07 12:56:22,823908
0,2,-2,-18,2,4,2,1,2021-08-07 12:56:22,823908
0,1,2,4,11,3,2,0,2021-08-07 12:56:22,823908
2,5,6,15,14,7,3,2,2021-08-07 12:56:22,823908
2,4,1,15,9,1,1,2,2021-08-07 12:56:22,823908
-4,-7,-3,-9,-19,-15,-8,-5,2021-08-07 12:56:22,838908
-1,1,-3,-4,-4,-1,-1,0,2021-08-07 12:56:22,838908
0,0,4,-13,-2,2,1,2,2021-08-07 12:56:22,854910
-1,-4,-13,-5,-4,-1,-2,-2,2021-08-07 12:56:22,854910
-3,-2,0,1,4,-1,-4,-2,2021-08-07 12:56:22,854910
4,5,10,21,21,11,6,4,2021-08-07 12:56:22,854910
1,3,4,12,5,2,3,2,2021-08-07 12:56:22,870908
2,2,2,-10,-11,-5,0,1,2021-08-07 12:56:22,886907
-3,-5,-10,-19,-9,-5,-3,-3,2021-08-07 12:56:22,886907
-3,-7,-7,-10,-5,-3,-3,-4,2021-08-07 12:56:22,886907
-1,-2,1,3,1,0,0,-2,2021-08-07 12:56:22,886907
1,1,7,9,7,3,0,0,2021-08-07 12:56:22,886907
-1,-1,-1,9,2,-1,-2,-2,2021-08-07 12:56:22,886907
2,-2,-5,-14,-14,-5,0,3,2021-08-07 12:56:22,886907
2,4,2,1,11,8,3,0,2021-08-07 12:56:22,917906
-1,0,1,1,1,-1,-2,-2,2021-08-07 12:56:22,917906
3,4,7,22,12,7,6,2,2021-08-07 12:56:22,917906
-6,-6,-8,-14,-10,-4,-5,-4,2021-08-07 12:56:22,917906
-4,-7,-9,-10,-10,-6,-6,-4,2021-08-07 12:56:22,933907
4,3,5,-1,-2,1,2,2,2021-08-07 12:56:22,949906
1,0,0,6,10,2,1,3,2021-08-07 12:56:22,949906
4,6,8,18,8,3,1,1,2021-08-07 12:56:22,949906
-2,0,-2,1,-3,-3,-1,0,2021-08-07 12:56:22,949906
-4,-5,-8,-16,-8,-4,-3,-3,2021-08-07 12:56:22,949906
-5,-10,-12,-29,-19,-10,-6,-8,2021-08-07 12:56:22,949906
-5,-7,-4,-10,-5,-3,-3,-4,2021-08-07 12:56:22,950907
1,4,5,11,15,6,3,1,2021-08-07 12:56:22,965908
1,0,4,10,6,0,0,0,2021-08-07 12:56:22,981908
1,1,1,2,-3,-3,-2,0,2021-08-07 12:56:22,997906
0,4,1,-3,-10,-5,-1,-1,2021-08-07 12:56:22,997906
-2,-4,0,5,4,2,-2,-2,2021-08-07 12:56:22,997906
5,5,4,10,16,9,6,4,2021-08-07 12:56:22,997906
-5,-5,-6,-8,-8,-3,-5,-5,2021-08-07 12:56:22,997906
-1,1,7,9,-3,-3,-3,-1,2021-08-07 12:56:22,997906
3,-2,-11,-20,-1,4,2,1,2021-08-07 12:56:22,997906
-4,-7,-11,-17,-15,-9,-5,-4,2021-08-07 12:56:22,998908
-1,-1,-1,-7,-5,-2,-3,1,2021-08-07 12:56:23,045907
1,2,2,15,9,2,1,2,2021-08-07 12:56:23,045907
1,-1,2,3,-5,-3,2,1,2021-08-07 12:56:23,045907
-3,-1,-1,-1,0,1,-1,-1,2021-08-07 12:56:23,045907
-1,1,1,5,6,2,0,-2,2021-08-07 12:56:23,045907
-5,-4,-3,-7,-9,-6,-5,-4,2021-08-07 12:56:23,045907
0,0,-3,-1,-3,-3,-3,-2,2021-08-07 12:56:23,045907
-2,-5,-5,-7,-10,-6,-4,-3,2021-08-07 12:56:23,046909
3,5,6,7,8,5,2,2,2021-08-07 12:56:23,061908
2,0,-1,-2,3,0,2,0,2021-08-07 12:56:23,061908
-1,0,-1,-6,-14,-11,-4,0,2021-08-07 12:56:23,061908
2,3,3,11,18,9,5,4,2021-08-07 12:56:23,061908
-1,1,2,7,4,3,0,0,2021-08-07 12:56:23,077907
0,-1,-5,-3,5,3,1,-1,2021-08-07 12:56:23,077907
-3,-4,-7,-13,-15,-9,-7,-3,2021-08-07 12:56:23,093906
-1,0,2,-6,-8,-6,-3,0,2021-08-07 12:56:23,093906
4,3,1,6,5,5,3,2,2021-08-07 12:56:23,093906
0,0,-1,5,11,5,2,0,2021-08-07 12:56:23,093906
-4,-3,-4,-7,-12,-4,-3,-1,2021-08-07 12:56:23,109907
-1,-2,-2,-7,-6,-1,-1,-4,2021-08-07 12:56:23,109907
3,2,4,11,17,9,7,3,2021-08-07 12:56:23,109907
-2,-2,-1,-4,-11,-8,-3,-1,2021-08-07 12:56:23,109907
2,0,1,11,9,4,1,-1,2021-08-07 12:56:23,141907
-1,0,0,-1,-4,-2,-1,0,2021-08-07 12:56:23,141907
-2,-2,-3,-7,-10,-6,-4,-1,2021-08-07 12:56:23,141907
-3,-2,-2,-1,-8,-6,-4,-2,2021-08-07 12:56:23,141907
1,0,2,5,9,6,4,1,2021-08-07 12:56:23,141907
1,2,1,6,17,10,3,2,2021-08-07 12:56:23,141907
-3,-4,-7,-10,-13,-8,-4,-2,2021-08-07 12:56:23,157908
3,2,0,-2,1,-1,1,2,2021-08-07 12:56:23,157908
-4,-2,-2,-16,-18,-12,-6,-3,2021-08-07 12:56:23,173907
2,2,10,15,13,6,3,2,2021-08-07 12:56:23,189906
-2,-1,-11,3,-3,-2,-1,0,2021-08-07 12:56:23,189906
-1,-2,-2,-4,-1,0,0,0,2021-08-07 12:56:23,189906
-2,-5,-6,-12,-4,-2,-2,-2,2021-08-07 12:56:23,189906
-2,-4,-6,-16,-13,-6,-4,-3,2021-08-07 12:56:23,189906
-2,-5,1,-9,-4,-6,-5,-3,2021-08-07 12:56:23,189906
0,1,1,9,0,-1,-1,-2,2021-08-07 12:56:23,190908
3,5,8,20,11,6,3,2,2021-08-07 12:56:23,205906
2,2,1,6,2,2,1,0,2021-08-07 12:56:23,205906
-1,-2,-2,3,5,2,2,-1,2021-08-07 12:56:23,205906
-2,-3,-8,-25,-15,-7,-3,-3,2021-08-07 12:56:23,205906
-1,2,2,1,6,2,2,3,2021-08-07 12:56:23,236939
-2,-1,-4,1,0,-1,-1,-2,2021-08-07 12:56:23,252939
0,-1,0,-1,-8,-5,-2,-1,2021-08-07 12:56:23,252939
-3,-7,-4,-7,-8,-5,-5,-5,2021-08-07 12:56:23,252939
-2,-2,-1,2,3,2,0,-2,2021-08-07 12:56:23,252939
2,1,3,9,9,0,2,2,2021-08-07 12:56:23,252939
5,5,6,14,20,16,8,3,2021-08-07 12:56:23,252939
0,2,-2,-6,4,4,2,1,2021-08-07 12:56:23,252939
-5,-6,-7,-11,-9,-7,-5,-5,2021-08-07 12:56:23,268938
-3,-1,-1,-3,-11,-9,-6,-4,2021-08-07 12:56:23,268938
-1,-1,-1,2,-6,-5,-3,-1,2021-08-07 12:56:23,268938
0,0,-1,4,2,2,2,0,2021-08-07 12:56:23,268938
