EMG 1,EMG 2,EMG 3,EMG 4,EMG 5,EMG 6,EMG 7,EMG 8,Timestamp,Milliseconds
-2,-1,-3,0,5,4,1,0,2021-08-07 12:56:26,465201
-3,-4,-6,-6,-6,-5,-4,-2,2021-08-07 12:56:26,465201
0,0,-2,-2,-3,0,-1,1,2021-08-07 12:56:26,465201
0,-1,-3,-1,-1,-2,0,0,2021-08-07 12:56:26,465201
-2,-4,-4,-4,-5,-2,-1,-2,2021-08-07 12:56:26,465201
-2,-2,-2,-3,-3,-4,-3,-4,2021-08-07 12:56:26,465201
-1,0,2,1,3,3,1,-1,2021-08-07 12:56:26,481203
-4,-5,-4,-5,-6,-5,-6,-5,2021-08-07 12:56:26,481203
2,4,4,-3,-9,-3,-2,1,2021-08-07 12:56:26,481203
0,1,2,6,11,7,4,0,2021-08-07 12:56:26,481203
1,1,2,3,5,3,5,4,2021-08-07 12:56:26,497242
8,4,4,9,11,10,11,7,2021-08-07 12:56:26,497242
-3,-4,-5,-4,-5,-6,-9,-5,2021-08-07 12:56:26,497242
-7,-5,-4,-6,-12,-16,-18,-11,2021-08-07 12:56:26,497242
-6,-5,-9,-8,-7,-6,-7,-8,2021-08-07 12:56:26,513228
-5,-5,-5,-3,-5,-5,-3,-4,2021-08-07 12:56:26,513228
4,5,5,7,7,8,8,7,2021-08-07 12:56:26,529203
3,2,3,0,0,4,3,5,2021-08-07 12:56:26,529203
-2,1,-1,-2,-3,0,0,0,2021-08-07 12:56:26,545228
-4,-6,-6,-2,-1,0,-2,-2,2021-08-07 12:56:26,545228
2,2,1,0,4,3,4,2,2021-08-07 12:56:26,545228
1,3,3,5,5,2,2,1,2021-08-07 12:56:26,545228
5,7,8,2,1,4,2,4,2021-08-07 12:56:26,609201
0,3,-1,-3,2,2,0,1,2021-08-07 12:56:26,621240
0,-2,-1,1,2,1,0,-1,2021-08-07 12:56:26,621240
-3,-2,-4,-4,-3,-2,-1,0,2021-08-07 12:56:26,621240
-4,-5,-5,-2,-6,-7,-2,-5,2021-08-07 12:56:26,621240
0,-2,0,0,-2,0,0,-2,2021-08-07 12:56:26,621240
0,2,2,4,4,2,2,0,2021-08-07 12:56:26,621240
-1,-2,-2,-2,-4,-3,-2,-1,2021-08-07 12:56:26,621240
1,-1,-3,-2,0,2,0,0,2021-08-07 12:56:26,621240
-2,0,-3,-3,-3,-3,-2,-1,2021-08-07 12:56:26,622242
-1,-1,-1,-4,-6,-5,-2,-1,2021-08-07 12:56:26,622242
2,0,3,6,8,6,5,2,2021-08-07 12:56:26,622242
-2,-1,0,-4,-9,-7,-3,-1,2021-08-07 12:56:26,622242
0,-2,-1,-1,-4,-3,-1,-2,2021-08-07 12:56:26,622242
2,3,5,10,20,11,3,2,2021-08-07 12:56:26,641203
1,3,0,-2,-2,-1,0,0,2021-08-07 12:56:26,641203
0,-2,-1,0,3,0,-1,-1,2021-08-07 12:56:26,641203
-3,-5,-5,-7,-7,-5,-5,-3,2021-08-07 12:56:26,657239
-4,-5,-4,-9,-14,-9,-4,-4,2021-08-07 12:56:26,673204
2,3,3,3,9,8,3,2,2021-08-07 12:56:26,673204
2,4,6,5,5,1,1,2,2021-08-07 12:56:26,673204
-3,-2,-2,-1,-2,-2,-2,-3,2021-08-07 12:56:26,673204
0,1,-1,-1,-4,-4,-1,-1,2021-08-07 12:56:26,673204
-1,-2,0,-2,-1,0,-1,0,2021-08-07 12:56:26,673204
-2,0,-2,-2,0,0,-1,-1,2021-08-07 12:56:26,674204
0,0,0,2,2,2,0,0,2021-08-07 12:56:26,674204
-3,-2,-4,-5,-5,-2,-1,-1,2021-08-07 12:56:26,705246
0,1,-2,0,-1,-1,0,-1,2021-08-07 12:56:26,705246
-3,-2,-2,-2,-2,-4,-2,-1,2021-08-07 12:56:26,705246
-2,0,-1,-5,-2,0,-2,-2,2021-08-07 12:56:26,705246
2,2,2,9,12,6,3,2,2021-08-07 12:56:26,721203
1,0,-3,-6,-4,-3,-4,0,2021-08-07 12:56:26,721203
-1,-1,0,4,7,5,2,0,2021-08-07 12:56:26,721203
-2,-6,-5,-8,-11,-10,-3,-4,2021-08-07 12:56:26,721203
-1,-2,-3,-6,-8,-2,-3,-2,2021-08-07 12:56:26,737240
2,3,5,10,13,8,5,1,2021-08-07 12:56:26,737240
0,2,2,-1,-2,1,-1,0,2021-08-07 12:56:26,737240
-1,1,-1,3,6,3,2,-1,2021-08-07 12:56:26,737240
-2,-3,-3,-4,-11,-8,-5,-3,2021-08-07 12:56:26,769233
-2,-5,-4,-2,-9,-8,-4,-5,2021-08-07 12:56:26,769233
0,1,-1,-5,0,3,1,1,2021-08-07 12:56:26,769233
1,1,3,8,9,5,3,0,2021-08-07 12:56:26,769233
-2,1,1,-1,2,-1,0,-2,2021-08-07 12:56:26,785203
-2,-2,-1,-3,-5,-2,-3,-1,2021-08-07 12:56:26,800230
1,-1,-1,-2,-7,-6,-2,0,2021-08-07 12:56:26,800230
0,-2,-3,0,-2,-3,-1,0,2021-08-07 12:56:26,800230
-2,-4,-5,-8,-10,-7,-4,-2,2021-08-07 12:56:26,800230
3,4,5,6,13,11,6,2,2021-08-07 12:56:26,800230
-1,-1,0,5,7,4,0,-3,2021-08-07 12:56:26,800230
0,0,1,3,3,1,2,0,2021-08-07 12:56:26,800230
-4,-3,-3,-3,-4,-3,-3,-3,2021-08-07 12:56:26,816204
-4,-3,-4,-8,-13,-9,-5,-4,2021-08-07 12:56:26,816204
0,2,2,4,4,0,1,1,2021-08-07 12:56:26,832242
1,3,1,-2,0,3,0,0,2021-08-07 12:56:26,832242
2,1,1,3,6,3,1,2,2021-08-07 12:56:26,848203
-3,-6,-6,-4,-6,-3,-4,-4,2021-08-07 12:56:26,848203
-1,-4,-5,-13,-19,-11,-5,-4,2021-08-07 12:56:26,848203
1,-1,1,2,4,3,2,1,2021-08-07 12:56:26,848203
4,3,6,12,20,12,6,2,2021-08-07 12:56:26,880240
0,2,1,0,1,-1,0,0,2021-08-07 12:56:26,896251
-4,-7,-7,-5,-8,-8,-6,-5,2021-08-07 12:56:26,912240
-3,-5,-4,-7,-4,-2,-1,-1,2021-08-07 12:56:26,928240
3,3,1,1,2,2,1,2,2021-08-07 12:56:26,960240
1,2,1,3,4,2,2,2,2021-08-07 12:56:26,960240
-1,-2,-5,-5,-4,-1,-1,-1,2021-08-07 12:56:26,960240
-2,-2,-4,-2,-8,-8,-5,-3,2021-08-07 12:56:26,960240
-1,0,-1,-2,-2,-2,-1,-2,2021-08-07 12:56:26,960240
0,2,1,1,4,1,-1,-1,2021-08-07 12:56:26,960240
0,-1,1,3,8,3,2,2,2021-08-07 12:56:26,961205
-2,-3,-3,-2,-1,-2,-2,-1,2021-08-07 12:56:26,961205
-1,-4,-3,-2,-7,-4,-3,-2,2021-08-07 12:56:26,961205
2,2,3,0,-3,-3,0,0,2021-08-07 12:56:26,961205
-2,-2,-3,-3,-6,-2,-3,-1,2021-08-07 12:56:26,961205
3,0,2,8,12,8,3,2,2021-08-07 12:56:26,961205
-2,-4,-4,-7,-10,-6,-5,-4,2021-08-07 12:56:26,961205
-1,-3,-3,-1,0,0,-2,-1,2021-08-07 12:56:26,962246
-3,-4,-2,1,-1,-2,-2,-5,2021-08-07 12:56:26,962246
3,5,3,4,1,1,1,1,2021-08-07 12:56:26,962246
-2,1,0,-2,0,3,1,2,2021-08-07 12:56:26,962246
0,-2,-2,-1,-1,0,0,-1,2021-08-07 12:56:26,962246
0,2,1,4,3,1,1,1,2021-08-07 12:56:26,962246
-3,-3,-3,-5,-9,-8,-6,-5,2021-08-07 12:56:26,962246
-1,-3,-2,-3,2,0,-1,-2,2021-08-07 12:56:26,976240
-1,-2,-3,1,3,0,-1,0,2021-08-07 12:56:26,976240
1,1,2,1,2,2,1,1,2021-08-07 12:56:26,976240
-4,-3,-1,-1,0,1,0,-1,2021-08-07 12:56:26,976240
1,1,1,-2,-4,-2,0,-1,2021-08-07 12:56:27,008206
-3,-3,-3,-4,-4,-2,-2,-2,2021-08-07 12:56:27,014241
-2,-2,-2,0,2,3,0,-1,2021-08-07 12:56:27,014241
0,0,2,-1,-3,-2,-2,2,2021-08-07 12:56:27,015206
1,3,4,0,1,0,1,0,2021-08-07 12:56:27,015206
-3,-2,-2,1,0,0,-1,-1,2021-08-07 12:56:27,015206
0,-3,-1,-4,-10,-5,-1,-2,2021-08-07 12:56:27,024240
-1,-2,-4,-1,5,3,0,-3,2021-08-07 12:56:27,024240
0,0,1,5,10,7,2,2,2021-08-07 12:56:27,040240
5,9,10,12,17,10,7,4,2021-08-07 12:56:27,040240
1,1,0,-2,-1,-1,0,1,2021-08-07 12:56:27,040240
-3,-1,-2,-4,-11,-10,-4,-4,2021-08-07 12:56:27,040240
-3,-6,-7,-6,-7,-5,-4,-3,2021-08-07 12:56:27,071228
-2,-4,-3,2,4,1,0,-2,2021-08-07 12:56:27,071228
0,0,-1,1,2,1,0,-1,2021-08-07 12:56:27,071228
0,0,2,1,0,1,2,2,2021-08-07 12:56:27,071228
-1,-1,-3,-5,-10,-4,-5,0,2021-08-07 12:56:27,071228
-3,-5,-1,-3,-4,-4,-3,0,2021-08-07 12:56:27,071228
-2,-3,-5,-4,-1,-2,-1,-3,2021-08-07 12:56:27,087251
2,6,5,2,-3,-1,0,3,2021-08-07 12:56:27,087251
1,1,1,0,6,6,4,3,2021-08-07 12:56:27,103241
-1,-3,-2,-5,-11,-7,-4,-4,2021-08-07 12:56:27,119240
-2,-3,-3,-1,4,3,0,-1,2021-08-07 12:56:27,135240
1,0,2,5,4,4,3,0,2021-08-07 12:56:27,135240
-4,-3,0,1,1,-1,-3,-3,2021-08-07 12:56:27,135240
2,5,2,1,0,1,0,2,2021-08-07 12:56:27,135240
-2,-1,0,-3,-1,-3,-3,-1,2021-08-07 12:56:27,135240
-2,-2,-1,2,1,1,-2,-2,2021-08-07 12:56:27,135240
-1,0,-2,-2,-4,-4,-3,-1,2021-08-07 12:56:27,136203
-1,-1,-1,-2,-1,1,0,-1,2021-08-07 12:56:27,151229
-1,-1,-1,0,-5,-3,-3,0,2021-08-07 12:56:27,167242
-1,-1,0,-4,-2,1,0,0,2021-08-07 12:56:27,167242
0,-3,-2,2,0,-3,0,-3,2021-08-07 12:56:27,167242
-1,-1,-3,-5,-5,-4,-1,-1,2021-08-07 12:56:27,167242
3,4,2,1,0,2,0,1,2021-08-07 12:56:27,167242
-2,-4,-5,-3,0,-3,-2,-3,2021-08-07 12:56:27,167242
1,-1,-1,-2,-4,-2,0,1,2021-08-07 12:56:27,183202
-2,-1,-1,-5,-3,-1,-2,-2,2021-08-07 12:56:27,199239
1,1,3,4,9,6,3,2,2021-08-07 12:56:27,199239
-1,0,0,2,2,0,1,0,2021-08-07 12:56:27,199239
-1,-1,2,3,2,3,-1,-2,2021-08-07 12:56:27,199239
0,-2,-3,-5,-9,-6,-4,-1,2021-08-07 12:56:27,200205
-5,-5,-6,-13,-23,-17,-9,-5,2021-08-07 12:56:27,231209
3,4,7,7,20,17,6,4,2021-08-07 12:56:27,231209
2,2,0,2,4,2,2,2,2021-08-07 12:56:27,231209
-1,0,0,6,5,2,1,-1,2021-08-07 12:56:27,231209
0,-1,1,2,4,1,0,0,2021-08-07 12:56:27,232204
-4,-6,-8,-12,-19,-15,-8,-6,2021-08-07 12:56:27,232204
1,1,1,0,-3,-2,0,1,2021-08-07 12:56:27,247205
-2,-2,-1,-7,-10,-6,-4,-2,2021-08-07 12:56:27,247205
2,2,3,6,11,7,4,4,2021-08-07 12:56:27,247205
0,-2,-4,-1,0,1,1,-1,2021-08-07 12:56:27,247205
-3,-2,0,3,6,4,1,-1,2021-08-07 12:56:27,278243
-4,-6,-4,-9,-11,-8,-4,-4,2021-08-07 12:56:27,294247
-2,0,0,-2,1,0,-1,-2,2021-08-07 12:56:27,294247
0,4,2,1,1,0,-1,0,2021-08-07 12:56:27,294247
-1,0,-1,4,2,2,1,0,2021-08-07 12:56:27,294247
0,2,0,0,-3,-1,-2,-1,2021-08-07 12:56:27,294247
0,-2,0,-5,-3,-2,-2,-2,2021-08-07 12:56:27,294247
-1,-3,-2,-3,-4,-3,-1,0,2021-08-07 12:56:27,294247
-3,-5,-6,-8,-10,-7,-4,-4,2021-08-07 12:56:27,310240
3,2,4,5,2,2,3,1,2021-08-07 12:56:27,326482
1,2,2,9,12,7,3,2,2021-08-07 12:56:27,326482
-1,0,-2,-7,-5,-4,-3,-2,2021-08-07 12:56:27,326482
1,0,0,-3,-4,-2,-2,1,2021-08-07 12:56:27,326482
0,-1,0,1,8,6,1,0,2021-08-07 12:56:27,326482
-2,-3,-3,-6,-5,-5,-3,-3,2021-08-07 12:56:27,327207
0,1,1,5,5,2,2,1,2021-08-07 12:56:27,327207
-3,-2,-2,-4,-3,-2,-1,-2,2021-08-07 12:56:27,342204
0,-1,0,4,6,3,2,-2,2021-08-07 12:56:27,358205
0,-1,-3,-2,-8,-3,-3,0,2021-08-07 12:56:27,358205
0,1,1,-1,-3,-4,-2,0,2021-08-07 12:56:27,358205
0,2,0,1,7,4,3,-1,2021-08-07 12:56:27,358205
-3,-2,-4,-3,-5,-3,-1,0,2021-08-07 12:56:27,359203
-2,-2,0,-3,-1,-2,-2,-2,2021-08-07 12:56:27,359203
-5,-6,-7,-5,-6,-4,-2,-4,2021-08-07 12:56:27,359203
2,4,4,2,0,1,0,3,2021-08-07 12:56:27,405227
-1,0,0,-1,-1,0,2,1,2021-08-07 12:56:27,405227
-1,-2,-3,5,7,4,0,-2,2021-08-07 12:56:27,405227
0,1,1,0,0,3,0,1,2021-08-07 12:56:27,405227
0,0,0,0,0,0,-2,-1,2021-08-07 12:56:27,421241
-1,0,-2,-6,-3,-3,-1,0,2021-08-07 12:56:27,421241
-1,-1,-3,-3,-5,-5,-2,-2,2021-08-07 12:56:27,421241
-1,-3,-1,-1,-3,-3,-2,-1,2021-08-07 12:56:27,421241
-1,-2,0,1,-1,-1,0,-2,2021-08-07 12:56:27,421241
1,2,1,0,1,1,1,0,2021-08-07 12:56:27,421241
-1,0,1,1,-2,0,1,0,2021-08-07 12:56:27,422202
-1,-3,-2,0,0,0,0,0,2021-08-07 12:56:27,422202
3,3,2,0,-1,1,2,0,2021-08-07 12:56:27,453233
-3,-4,-2,-3,0,-2,-2,-2,2021-08-07 12:56:27,453233
1,2,2,3,2,3,3,1,2021-08-07 12:56:27,453233
-2,-1,0,0,-2,0,-1,-1,2021-08-07 12:56:27,453233
-2,-3,-3,-1,-3,-3,-3,-1,2021-08-07 12:56:27,453233
-1,-2,-2,-1,-1,-2,-3,-1,2021-08-07 12:56:27,453233
0,0,-1,0,0,1,0,1,2021-08-07 12:56:27,469201
-1,0,-2,-2,-1,-3,-4,-3,2021-08-07 12:56:27,469201
1,4,2,1,0,-1,0,2,2021-08-07 12:56:27,484236
-1,-2,-2,1,0,-1,1,-1,2021-08-07 12:56:27,484236
-1,-2,-1,-2,-3,-3,-2,-1,2021-08-07 12:56:27,484236
1,1,-1,1,0,-1,0,-1,2021-08-07 12:56:27,484236
-4,-3,-2,-2,-3,-2,-2,-3,2021-08-07 12:56:27,516234
0,2,2,1,-1,-1,0,0,2021-08-07 12:56:27,516234
-1,-2,-3,0,0,-2,-2,-1,2021-08-07 12:56:27,516234
-1,-2,0,-1,0,0,0,1,2021-08-07 12:56:27,516234
-1,-4,-4,-4,-2,-2,-2,-1,2021-08-07 12:56:27,548206
-1,-1,-2,-2,-2,1,0,-1,2021-08-07 12:56:27,564204
1,2,2,4,3,1,0,0,2021-08-07 12:56:27,580235
1,-1,-1,-1,0,-1,1,1,2021-08-07 12:56:27,580235
-6,-5,-6,-9,-16,-10,-6,-5,2021-08-07 12:56:27,596204
-1,-2,-1,6,11,9,2,1,2021-08-07 12:56:27,596204
2,4,3,1,8,3,2,1,2021-08-07 12:56:27,596204
0,1,1,0,1,0,0,0,2021-08-07 12:56:27,612241
0,1,1,2,4,0,0,1,2021-08-07 12:56:27,612241
-3,-5,-5,-8,-12,-9,-5,-6,2021-08-07 12:56:27,612241
-4,-6,-5,-6,-9,-4,-4,-2,2021-08-07 12:56:27,612241
1,2,2,2,3,2,1,1,2021-08-07 12:56:27,612241
1,-2,-2,-1,-3,-4,-3,-2,2021-08-07 12:56:27,612241
2,1,3,-1,-2,-2,-1,0,2021-08-07 12:56:27,613206
-3,-8,-6,-3,-2,-1,-2,-1,2021-08-07 12:56:27,613206
3,6,5,-1,-1,0,1,2,2021-08-07 12:56:27,613206
-1,0,1,1,2,0,1,0,2021-08-07 12:56:27,613206
0,0,-1,1,2,2,0,2,2021-08-07 12:56:27,613206
-1,-1,0,-2,-3,-5,-1,-1,2021-08-07 12:56:27,613206
-5,-8,-7,-9,-12,-8,-7,-5,2021-08-07 12:56:27,613206
0,0,1,5,13,8,5,1,2021-08-07 12:56:27,628204
2,1,4,4,6,3,1,2,2021-08-07 12:56:27,644254
1,-2,-2,-4,-4,-4,-1,-1,2021-08-07 12:56:27,644254
-1,-1,0,3,7,1,1,1,2021-08-07 12:56:27,644254
1,1,2,0,0,0,-1,0,2021-08-07 12:56:27,644254
-2,0,1,0,-2,0,-1,-1,2021-08-07 12:56:27,644254
-2,0,1,-2,-5,-4,-2,-1,2021-08-07 12:56:27,644254
0,0,-2,-3,-4,-3,-1,-2,2021-08-07 12:56:27,644254
-1,-1,2,5,9,4,2,1,2021-08-07 12:56:27,660251
-3,-3,-3,-4,-5,-5,-1,-2,2021-08-07 12:56:27,660251
-3,0,-1,-3,-3,-1,-2,-1,2021-08-07 12:56:27,676241
-2,-2,-4,0,2,0,1,-2,2021-08-07 12:56:27,692205
1,3,0,0,-3,0,1,1,2021-08-07 12:56:27,708207
0,0,-1,-3,-5,-3,-2,-3,2021-08-07 12:56:27,708207
1,2,2,3,3,2,1,0,2021-08-07 12:56:27,708207
-3,-4,-3,0,-3,-4,-2,0,2021-08-07 12:56:27,708207
-1,-1,-2,-3,-3,-1,-1,-1,2021-08-07 12:56:27,708207
-1,-2,-2,1,2,0,-1,-1,2021-08-07 12:56:27,708207
0,1,0,-3,-5,-3,0,-1,2021-08-07 12:56:27,708207
1,0,2,1,1,3,-1,1,2021-08-07 12:56:27,709247
-3,-3,-2,1,1,-3,-1,-4,2021-08-07 12:56:27,740241
0,0,-2,-3,-3,-2,-2,0,2021-08-07 12:56:27,740241
0,-1,1,-1,3,1,-1,0,2021-08-07 12:56:27,756253
-1,-2,-4,-7,-14,-7,-5,-1,2021-08-07 12:56:27,772240
2,2,5,9,13,9,4,4,2021-08-07 12:56:27,772240
-3,-2,-2,-2,-1,0,-2,0,2021-08-07 12:56:27,772240
-1,-2,-2,-1,-3,-3,0,-1,2021-08-07 12:56:27,772240
-1,0,1,6,10,5,2,0,2021-08-07 12:56:27,773203
-4,-6,-5,-9,-11,-9,-6,-4,2021-08-07 12:56:27,773203
4,5,4,1,1,3,2,3,2021-08-07 12:56:27,773203
-3,0,-1,-3,-4,-2,-1,-1,2021-08-07 12:56:27,773203
0,3,3,-2,3,1,2,0,2021-08-07 12:56:27,773203
-1,0,0,1,2,0,-1,-2,2021-08-07 12:56:27,788205
-2,-2,-1,1,2,1,0,-2,2021-08-07 12:56:27,788205
-1,-3,-3,-4,-5,-2,-1,-2,2021-08-07 12:56:27,788205
0,-2,0,-1,-1,-1,-3,-1,2021-08-07 12:56:27,788205
-1,2,0,-2,-4,-2,0,1,2021-08-07 12:56:27,804245
1,1,0,2,2,-1,2,0,2021-08-07 12:56:27,804245
1,1,2,1,3,1,1,1,2021-08-07 12:56:27,804245
-2,-3,-2,3,5,2,2,0,2021-08-07 12:56:27,804245
0,-2,-2,-4,-4,-3,-2,-2,2021-08-07 12:56:27,836240
-3,-5,-5,-4,-6,-5,-4,-3,2021-08-07 12:56:27,836240
0,1,1,2,2,-1,0,0,2021-08-07 12:56:27,836240
0,-1,-2,-4,-5,-3,-2,-1,2021-08-07 12:56:27,836240
2,-1,-1,0,3,4,2,0,2021-08-07 12:56:27,845202
-2,-4,-1,0,-2,-3,-2,-4,2021-08-07 12:56:27,845202
2,1,2,8,9,3,2,0,2021-08-07 12:56:27,845202
2,4,3,2,4,1,2,0,2021-08-07 12:56:27,845202
1,2,1,-2,-5,-4,1,1,2021-08-07 12:56:27,868240
-2,-4,-4,-4,-4,-2,-1,-2,2021-08-07 12:56:27,868240
-2,-3,-1,0,-1,0,-2,-2,2021-08-07 12:56:27,868240
-2,-2,-2,-5,-7,-4,-4,-1,2021-08-07 12:56:27,868240
0,-2,-2,-4,-4,-2,-4,-1,2021-08-07 12:56:27,900240
-2,-1,-4,-8,-11,-8,-4,-2,2021-08-07 12:56:27,916243
-1,1,3,4,6,4,0,1,2021-08-07 12:56:27,932238
0,1,1,7,13,7,5,1,2021-08-07 12:56:27,948204
0,-1,1,2,3,1,1,1,2021-08-07 12:56:27,964240
-1,-2,0,-1,-1,-2,-2,-1,2021-08-07 12:56:27,964240
-1,-1,-3,-3,-5,-5,-4,-1,2021-08-07 12:56:27,964240
-2,-2,-2,-7,-10,-5,-3,-2,2021-08-07 12:56:27,964240
-2,-2,-1,0,-2,0,0,-2,2021-08-07 12:56:27,964240
1,3,1,-2,3,4,3,2,2021-08-07 12:56:27,964240
-2,-1,-3,-1,-2,-1,-1,-1,2021-08-07 12:56:27,964240
0,-1,-2,-1,-1,-1,-1,-1,2021-08-07 12:56:27,964240
1,3,1,3,-5,-4,-1,-1,2021-08-07 12:56:27,965203
1,-1,1,10,17,9,3,1,2021-08-07 12:56:27,965203
0,-2,-3,-5,-3,-1,-1,-2,2021-08-07 12:56:27,965203
-2,-5,-2,-3,-5,-4,-3,-4,2021-08-07 12:56:27,965203
1,2,1,0,-1,-1,-1,1,2021-08-07 12:56:27,965203
0,0,0,-1,-6,-2,-1,-1,2021-08-07 12:56:27,965203
2,1,2,7,13,8,4,2,2021-08-07 12:56:27,980204
-3,-2,-4,0,-2,-3,-1,-2,2021-08-07 12:56:27,980204
-4,-6,-6,-8,-8,-6,-4,-3,2021-08-07 12:56:27,980204
2,5,5,3,3,3,2,2,2021-08-07 12:56:27,980204
-3,-2,-3,-7,-11,-10,-4,-3,2021-08-07 12:56:27,980204
-1,-1,-2,-7,-8,-3,-2,-1,2021-08-07 12:56:27,980204
0,0,2,11,22,13,5,1,2021-08-07 12:56:28,012206
-1,-1,-1,0,-3,-2,-1,0,2021-08-07 12:56:28,028241
-1,-1,-1,-1,0,-2,-1,-1,2021-08-07 12:56:28,028241
-4,-3,-1,-1,-3,-3,-3,-2,2021-08-07 12:56:28,028241
-2,0,-4,-7,-8,-3,-2,-2,2021-08-07 12:56:28,028241
-1,-3,-2,-3,-2,0,-3,-3,2021-08-07 12:56:28,028241
1,1,1,0,0,1,0,0,2021-08-07 12:56:28,028241
0,0,-1,1,2,-1,0,-1,2021-08-07 12:56:28,028241
0,1,0,0,0,1,-1,1,2021-08-07 12:56:28,044204
-2,-2,-3,-1,-3,-1,-1,0,2021-08-07 12:56:28,044204
-1,-2,-1,-2,-5,-3,-2,-1,2021-08-07 12:56:28,044204
-1,0,1,3,3,5,2,1,2021-08-07 12:56:28,044204
-1,-1,-1,0,1,0,-1,-1,2021-08-07 12:56:28,092241
-1,0,-1,0,-2,-3,-1,-1,2021-08-07 12:56:28,092241
2,-1,-1,0,-2,0,0,2,2021-08-07 12:56:28,092241
0,0,0,-2,-1,-1,-1,0,2021-08-07 12:56:28,092241
-2,0,1,-1,-2,1,-1,0,2021-08-07 12:56:28,092241
-1,-4,-2,-3,-2,1,0,2,2021-08-07 12:56:28,092241
-1,0,-1,1,2,1,2,0,2021-08-07 12:56:28,092241
2,-1,-2,1,4,0,1,-2,2021-08-07 12:56:28,093241
-2,-2,-2,-2,-5,-4,-3,-4,2021-08-07 12:56:28,108234
-2,1,-1,0,1,0,-1,-3,2021-08-07 12:56:28,124202
-6,-6,-4,0,-1,-1,-4,-3,2021-08-07 12:56:28,124202
2,5,4,3,0,-1,1,0,2021-08-07 12:56:28,140205
-1,0,-1,-3,-4,-5,-2,-1,2021-08-07 12:56:28,140205
1,1,-1,-2,1,3,4,1,2021-08-07 12:56:28,140205
1,-1,1,-1,1,0,-1,1,2021-08-07 12:56:28,140205
0,1,2,2,-3,0,-1,1,2021-08-07 12:56:28,140205
-3,-2,-3,0,1,-1,-1,1,2021-08-07 12:56:28,156251
-1,-2,0,-3,-4,-4,-2,-1,2021-08-07 12:56:28,172234
-1,-1,-1,2,9,5,1,-2,2021-08-07 12:56:28,188234
-4,-4,-4,-2,-4,-2,-2,-2,2021-08-07 12:56:28,188234
2,3,3,1,-1,0,0,2,2021-08-07 12:56:28,188234
-2,-1,-2,-2,-3,-3,-4,0,2021-08-07 12:56:28,188234
0,2,1,4,6,4,2,1,2021-08-07 12:56:28,188234
-1,-1,-1,-1,0,0,-1,-1,2021-08-07 12:56:28,204234
-1,-3,-4,-3,-3,-3,-3,-1,2021-08-07 12:56:28,204234
-2,-2,-4,-6,-9,-6,-2,-2,2021-08-07 12:56:28,204234
3,5,5,1,-5,-1,-1,1,2021-08-07 12:56:28,204234
1,3,0,-1,5,5,3,0,2021-08-07 12:56:28,204234
-1,0,-1,-1,1,0,-1,-2,2021-08-07 12:56:28,204234
-3,-4,-3,-1,-1,-1,-3,-2,2021-08-07 12:56:28,204234
-3,-3,-4,-2,0,-1,-1,-1,2021-08-07 12:56:28,205230
0,-1,0,-2,-5,-5,-1,0,2021-08-07 12:56:28,205230
-1,-3,-1,-1,0,1,-1,0,2021-08-07 12:56:28,220229
-1,0,1,2,3,1,0,1,2021-08-07 12:56:28,220229
-1,-2,-3,-4,-4,-3,-2,-1,2021-08-07 12:56:28,236256
-3,-4,-3,1,2,-2,-2,-3,2021-08-07 12:56:28,252208
-1,4,3,1,-2,-3,0,0,2021-08-07 12:56:28,252208
1,2,1,2,0,-2,-1,-1,2021-08-07 12:56:28,252208
-2,-3,-4,-4,-9,-5,-3,-3,2021-08-07 12:56:28,252208
0,-1,-2,-3,0,1,0,-1,2021-08-07 12:56:28,252208
1,-2,-2,0,1,0,-1,0,2021-08-07 12:56:28,268203
0,1,0,-1,3,1,0,0,2021-08-07 12:56:28,280904
-3,-2,-2,-1,-2,-2,-2,-2,2021-08-07 12:56:28,280904
-1,-2,-3,-1,-2,-4,-3,-1,2021-08-07 12:56:28,280904
-1,-4,-3,-4,-1,0,-1,-2,2021-08-07 12:56:28,299904
8,14,10,7,10,7,6,6,2021-08-07 12:56:28,315903
-1,0,0,-2,-1,-2,-1,-1,2021-08-07 12:56:28,315903
-1,-2,-1,-1,-2,-2,-1,-1,2021-08-07 12:56:28,315903
-2,-3,-2,-5,-5,-4,-2,-1,2021-08-07 12:56:28,315903
-2,-5,-4,-3,-4,-3,-1,-4,2021-08-07 12:56:28,315903
1,2,2,3,6,5,2,1,2021-08-07 12:56:28,316862
2,2,1,1,0,0,1,2,2021-08-07 12:56:28,316862
-1,-4,-4,-4,-2,-3,-1,-2,2021-08-07 12:56:28,331893
-3,-4,-3,-4,-4,-4,-3,-3,2021-08-07 12:56:28,331893
2,0,1,-4,-4,0,0,0,2021-08-07 12:56:28,331893
2,3,5,12,17,10,4,3,2021-08-07 12:56:28,331893
1,2,2,3,2,1,0,-2,2021-08-07 12:56:28,347862
-4,-6,-3,-2,-3,-3,-2,-1,2021-08-07 12:56:28,347862
-3,-5,-6,-7,-9,-8,-4,-2,2021-08-07 12:56:28,363905
0,0,0,-1,0,0,0,1,2021-08-07 12:56:28,363905
-1,-2,-3,-2,0,-1,1,1,2021-08-07 12:56:28,363905
-2,-3,-3,-2,-1,-1,-2,-2,2021-08-07 12:56:28,363905
1,1,2,1,-2,0,1,0,2021-08-07 12:56:28,363905
2,2,2,3,3,1,2,1,2021-08-07 12:56:28,379904
0,2,1,0,-1,-1,0,-2,2021-08-07 12:56:28,394914
0,-1,-1,-2,-3,0,-1,-3,2021-08-07 12:56:28,409901
-2,-1,0,3,6,1,1,0,2021-08-07 12:56:28,409901
-2,-3,-3,-6,-7,-5,-5,-2,2021-08-07 12:56:28,409901
-1,0,0,1,1,1,-1,0,2021-08-07 12:56:28,425890
-5,-7,-4,-1,-3,-4,-5,-5,2021-08-07 12:56:28,425890
-2,2,-1,-5,-7,-2,-1,-1,2021-08-07 12:56:28,425890
3,4,5,6,6,5,5,4,2021-08-07 12:56:28,425890
-2,-1,-2,-2,0,-2,-1,-2,2021-08-07 12:56:28,425890
-1,-1,0,0,1,3,-1,-3,2021-08-07 12:56:28,425890
0,-1,-2,-1,3,-1,0,-1,2021-08-07 12:56:28,425890
-1,-2,-3,-4,-8,-6,-3,-3,2021-08-07 12:56:28,426890
0,-2,2,-1,-7,-3,-3,-1,2021-08-07 12:56:28,457865
2,2,-2,2,1,1,2,1,2021-08-07 12:56:28,457865
-1,-2,1,0,4,2,1,-1,2021-08-07 12:56:28,457865
-2,-2,-3,-4,-3,-2,-2,-3,2021-08-07 12:56:28,457865
1,0,1,-1,-2,0,0,0,2021-08-07 12:56:28,457865
-3,-4,-2,0,0,-2,-1,-1,2021-08-07 12:56:28,457865
-1,-1,1,-3,-7,-2,-2,0,2021-08-07 12:56:28,473890
1,5,4,4,5,2,3,2,2021-08-07 12:56:28,489865
0,-1,0,3,4,1,1,0,2021-08-07 12:56:28,505888
-1,-2,-4,0,3,0,0,-1,2021-08-07 12:56:28,505888
-1,0,1,0,-1,-2,0,-1,2021-08-07 12:56:28,505888
-4,-5,-3,-4,-6,-4,-3,-3,2021-08-07 12:56:28,505888
-3,-1,-1,-3,-3,1,0,0,2021-08-07 12:56:28,505888
0,1,2,0,-2,-1,0,0,2021-08-07 12:56:28,505888
-3,-4,-5,-4,-5,-3,-4,-2,2021-08-07 12:56:28,506895
1,-1,-1,-2,0,1,1,1,2021-08-07 12:56:28,506895
3,4,2,6,7,4,2,2,2021-08-07 12:56:28,521902
-2,-2,-2,-1,3,1,0,-3,2021-08-07 12:56:28,521902
-1,0,-1,1,-1,-1,-2,-1,2021-08-07 12:56:28,537864
-2,-4,-6,-8,-9,-3,-2,-1,2021-08-07 12:56:28,569865
2,2,2,7,16,7,2,1,2021-08-07 12:56:28,569865
1,0,2,-2,-3,-1,-2,0,2021-08-07 12:56:28,585864
0,-3,-1,0,-2,-4,-1,-2,2021-08-07 12:56:28,601901
-3,-3,-4,-9,-14,-10,-5,-3,2021-08-07 12:56:28,601901
-1,2,2,3,11,7,4,0,2021-08-07 12:56:28,601901
0,1,0,-1,-3,-1,-1,1,2021-08-07 12:56:28,602863
-3,-2,-3,5,8,3,0,-2,2021-08-07 12:56:28,602863
0,0,0,2,0,1,2,1,2021-08-07 12:56:28,617910
-1,-4,-7,-9,-12,-7,-3,-2,2021-08-07 12:56:28,617910
2,3,4,-1,-1,0,0,1,2021-08-07 12:56:28,617910
-1,-1,-1,-2,-3,0,0,-1,2021-08-07 12:56:28,617910
0,-1,0,3,5,2,0,-1,2021-08-07 12:56:28,617910
0,-1,-1,0,-4,-3,-1,-2,2021-08-07 12:56:28,617910
-2,-2,-6,-4,-2,-3,-1,-2,2021-08-07 12:56:28,617910
1,3,0,-3,-4,-2,-1,1,2021-08-07 12:56:28,617910
-2,-1,-2,2,5,2,1,-1,2021-08-07 12:56:28,617910
0,0,0,-1,-2,-3,0,0,2021-08-07 12:56:28,633900
-3,-3,-1,-2,-5,-4,-2,0,2021-08-07 12:56:28,633900
-1,-1,-3,-3,-3,-1,-1,1,2021-08-07 12:56:28,633900
3,3,2,5,8,6,1,1,2021-08-07 12:56:28,633900
-2,-2,-3,-3,-6,-5,-5,-2,2021-08-07 12:56:28,665900
1,1,0,2,0,-1,0,-1,2021-08-07 12:56:28,681911
-2,0,1,0,4,-1,1,0,2021-08-07 12:56:28,697900
-1,-1,0,-3,-5,-1,-2,-1,2021-08-07 12:56:28,711900
-3,-4,-3,-3,-4,-4,-4,-4,2021-08-07 12:56:28,711900
-1,-1,0,-3,-2,-2,0,0,2021-08-07 12:56:28,711900
1,-1,1,2,5,2,2,0,2021-08-07 12:56:28,711900
-1,1,1,1,2,0,0,-1,2021-08-07 12:56:28,711900
-1,-1,-1,-2,-3,0,-2,0,2021-08-07 12:56:28,712900
-3,-3,-3,-5,-8,-6,-5,-3,2021-08-07 12:56:28,712900
-1,-2,0,-3,-2,0,0,1,2021-08-07 12:56:28,712900
-2,-2,-3,1,1,0,0,1,2021-08-07 12:56:28,712900
1,1,1,4,7,5,2,3,2021-08-07 12:56:28,712900
1,0,0,1,0,1,-1,0,2021-08-07 12:56:28,713901
0,0,1,3,8,5,1,0,2021-08-07 12:56:28,713901
-1,-2,-2,-4,-6,-7,-3,-3,2021-08-07 12:56:28,713901
-1,0,1,0,1,2,2,-2,2021-08-07 12:56:28,728902
-1,-1,-5,-8,-13,-8,-4,-1,2021-08-07 12:56:28,744861
1,2,2,7,9,6,3,2,2021-08-07 12:56:28,760902
-4,-3,-3,-1,0,-1,-1,-2,2021-08-07 12:56:28,776911
-3,-3,-2,0,-1,0,1,0,2021-08-07 12:56:28,776911
3,3,4,3,5,2,4,2,2021-08-07 12:56:28,776911
-1,-3,-4,-5,-8,-6,-3,-2,2021-08-07 12:56:28,776911
-1,-2,-2,0,3,1,-1,-1,2021-08-07 12:56:28,776911
-2,-3,-2,-6,-5,-5,-1,-1,2021-08-07 12:56:28,776911
0,0,1,-1,-1,0,-2,0,2021-08-07 12:56:28,776911
3,5,4,6,5,4,2,2,2021-08-07 12:56:28,777901
3,4,5,5,5,5,1,1,2021-08-07 12:56:28,777901
0,-1,-1,-2,-4,-3,-3,-1,2021-08-07 12:56:28,792904
-5,-6,-7,-6,-8,-7,-5,-5,2021-08-07 12:56:28,792904
-1,-1,-2,1,7,5,0,-1,2021-08-07 12:56:28,792904
1,1,1,0,0,1,0,1,2021-08-07 12:56:28,792904
-2,-2,-2,-1,-1,-3,-3,0,2021-08-07 12:56:28,808863
-2,-3,0,2,1,1,1,-1,2021-08-07 12:56:28,808863
0,0,-3,-3,-10,-8,-5,-2,2021-08-07 12:56:28,808863
-4,-2,-1,-7,-9,-6,-3,-1,2021-08-07 12:56:28,808863
1,2,0,1,5,3,-1,-1,2021-08-07 12:56:28,839866
0,1,-1,3,9,5,1,-1,2021-08-07 12:56:28,855911
-3,-4,-3,-5,-7,-5,-2,-2,2021-08-07 12:56:28,871901
-2,-2,-4,0,2,1,0,-2,2021-08-07 12:56:28,871901
1,2,0,-6,-10,-6,-2,1,2021-08-07 12:56:28,871901
0,1,1,1,3,1,0,0,2021-08-07 12:56:28,871901
-4,-5,-5,-5,-5,-3,-3,-4,2021-08-07 12:56:28,871901
0,0,0,-3,-5,-4,-2,-2,2021-08-07 12:56:28,871901
2,3,3,-1,1,1,1,1,2021-08-07 12:56:28,871901
-1,1,2,5,8,6,2,0,2021-08-07 12:56:28,871901
0,-1,-1,-3,-5,-4,-2,-1,2021-08-07 12:56:28,872902
-4,-7,-7,-9,-9,-8,-4,-3,2021-08-07 12:56:28,872902
2,3,2,4,8,5,2,3,2021-08-07 12:56:28,903887
0,1,1,2,3,1,2,3,2021-08-07 12:56:28,903887
-2,-1,-1,-2,-1,-3,-3,-2,2021-08-07 12:56:28,903887
-2,-2,-1,-1,-2,-1,-2,-1,2021-08-07 12:56:28,903887
-1,-3,-2,-8,-12,-5,-3,-1,2021-08-07 12:56:28,903887
0,1,1,7,11,4,2,-1,2021-08-07 12:56:28,903887
-2,-1,-1,0,-2,-1,-1,0,2021-08-07 12:56:28,919865
1,1,0,2,3,2,1,0,2021-08-07 12:56:28,919865
-2,0,1,0,-4,-2,0,-2,2021-08-07 12:56:28,935889
0,-1,-2,-5,-8,-3,-2,0,2021-08-07 12:56:28,935889
3,1,1,-2,-2,-2,1,2,2021-08-07 12:56:28,935889
0,1,-1,-3,-5,-2,0,0,2021-08-07 12:56:28,935889
0,-4,-4,5,6,2,1,-1,2021-08-07 12:56:28,966900
-4,-6,-4,-2,-3,-3,-3,-4,2021-08-07 12:56:28,966900
-4,-2,-2,-3,-1,-2,-2,-2,2021-08-07 12:56:28,966900
1,4,6,6,9,3,3,1,2021-08-07 12:56:28,966900
-1,2,1,-2,-1,-2,-4,-3,2021-08-07 12:56:28,966900
2,3,3,-1,-4,-2,1,2,2021-08-07 12:56:28,966900
2,2,0,-1,-1,-1,0,1,2021-08-07 12:56:28,967902
-2,-2,-3,-1,-5,-3,-3,0,2021-08-07 12:56:28,967902
1,-1,0,5,15,10,6,2,2021-08-07 12:56:28,998897
-3,-5,-5,-4,-3,-1,-3,-3,2021-08-07 12:56:29,014869
-2,-1,-2,0,4,4,1,0,2021-08-07 12:56:29,030900
1,0,0,0,0,-1,0,-1,2021-08-07 12:56:29,030900
-2,0,-2,-1,-6,-4,-2,-2,2021-08-07 12:56:29,030900
-3,-4,-4,-11,-18,-9,-7,-2,2021-08-07 12:56:29,030900
2,3,5,15,25,15,7,3,2021-08-07 12:56:29,046898
0,-1,-1,1,0,0,1,0,2021-08-07 12:56:29,062898
-2,-3,-3,-4,-4,-3,-2,-2,2021-08-07 12:56:29,062898
-1,0,0,1,0,-1,-2,-2,2021-08-07 12:56:29,062898
0,0,0,-5,-9,-6,-3,-3,2021-08-07 12:56:29,062898
-1,-1,0,0,-1,1,-1,0,2021-08-07 12:56:29,062898
-4,-3,-3,-1,-1,-3,-3,-3,2021-08-07 12:56:29,062898
2,4,6,4,7,5,4,3,2021-08-07 12:56:29,062898
1,0,-2,-6,-9,-4,0,-1,2021-08-07 12:56:29,063865
1,1,4,3,6,3,1,2,2021-08-07 12:56:29,063865
-1,-3,-4,-5,-7,-7,-3,-4,2021-08-07 12:56:29,078864
-3,-2,-2,2,6,3,0,-2,2021-08-07 12:56:29,078864
-2,-2,-1,1,0,1,-3,-1,2021-08-07 12:56:29,078864
-1,-3,-3,-1,1,1,-1,0,2021-08-07 12:56:29,078864
-2,-1,1,-1,-1,-2,0,0,2021-08-07 12:56:29,094901
-2,-2,-3,-3,-4,-5,-1,-3,2021-08-07 12:56:29,110898
2,3,5,2,1,0,0,1,2021-08-07 12:56:29,110898
-2,-1,-4,-5,-5,-1,-2,-2,2021-08-07 12:56:29,110898
1,2,4,1,1,2,-1,3,2021-08-07 12:56:29,110898
-3,-3,-3,-2,-2,-2,-3,-1,2021-08-07 12:56:29,110898
-3,-4,-5,-11,-18,-8,-4,-3,2021-08-07 12:56:29,110898
2,2,6,7,14,11,3,2,2021-08-07 12:56:29,110898
0,0,1,8,12,3,2,1,2021-08-07 12:56:29,140865
0,1,0,-1,0,0,1,1,2021-08-07 12:56:29,141864
-3,-3,-4,-1,0,-2,-1,-1,2021-08-07 12:56:29,141864
-2,-3,-2,-7,-12,-8,-3,-3,2021-08-07 12:56:29,141864
-1,-2,-1,0,1,3,0,-1,2021-08-07 12:56:29,157867
-1,-2,-2,-2,-3,-2,-2,-3,2021-08-07 12:56:29,157867
1,1,2,2,1,1,2,1,2021-08-07 12:56:29,157867
1,0,-2,-1,-1,-3,-3,-3,2021-08-07 12:56:29,157867
-1,-1,-1,-3,-4,-1,-1,0,2021-08-07 12:56:29,173900
0,1,-1,-1,1,-2,0,1,2021-08-07 12:56:29,188917
0,-1,0,1,2,1,0,-1,2021-08-07 12:56:29,188917
-2,-1,-1,1,0,-1,1,0,2021-08-07 12:56:29,188917
-1,-2,-3,-4,-7,-3,-3,-1,2021-08-07 12:56:29,203889
0,-1,-2,1,0,0,0,-2,2021-08-07 12:56:29,219901
1,2,1,2,5,3,2,0,2021-08-07 12:56:29,235900
0,-1,0,-1,-3,-1,-1,0,2021-08-07 12:56:29,251862
0,0,-1,-4,-4,-2,-1,-2,2021-08-07 12:56:29,267870
-1,0,0,2,2,1,0,0,2021-08-07 12:56:29,267870
-2,-1,-3,-2,-4,-3,-2,-2,2021-08-07 12:56:29,267870
-1,0,0,5,5,3,-1,0,2021-08-07 12:56:29,267870
-1,-2,0,-1,-2,-1,-2,-1,2021-08-07 12:56:29,267870
-1,1,1,-1,-1,0,1,0,2021-08-07 12:56:29,267870
-2,-1,-1,-4,-8,-6,-4,-1,2021-08-07 12:56:29,267870
0,0,-3,-6,-5,-3,0,0,2021-08-07 12:56:29,267870
-4,-4,-4,-1,-1,0,1,-1,2021-08-07 12:56:29,267870
3,0,1,4,8,4,1,0,2021-08-07 12:56:29,268865
0,0,-1,6,7,2,1,-1,2021-08-07 12:56:29,268865
-2,-1,0,-3,-8,-6,-3,-1,2021-08-07 12:56:29,268865
0,0,-2,-3,-1,-2,-2,1,2021-08-07 12:56:29,268865
-3,-4,-3,-10,-11,-7,-5,-4,2021-08-07 12:56:29,268865
0,1,0,2,5,4,2,1,2021-08-07 12:56:29,268865
0,-1,0,-2,-2,-3,-2,0,2021-08-07 12:56:29,268865
-1,0,0,-1,-5,-2,-2,-2,2021-08-07 12:56:29,298864
-3,-1,2,1,2,-1,-2,0,2021-08-07 12:56:29,314866
-4,-5,-6,-11,-10,-6,-5,-3,2021-08-07 12:56:29,330889
0,-1,0,-4,3,3,-1,-1,2021-08-07 12:56:29,330889
5,6,9,10,7,5,4,5,2021-08-07 12:56:29,330889
1,3,3,6,9,5,2,2,2021-08-07 12:56:29,330889
-3,-4,-4,-4,-7,-4,-4,-3,2021-08-07 12:56:29,330889
-4,-4,-5,-3,-2,-3,-2,-3,2021-08-07 12:56:29,330889
2,2,2,0,3,2,4,0,2021-08-07 12:56:29,330889
1,0,-1,-5,-4,-3,-2,0,2021-08-07 12:56:29,330889
-1,-1,0,0,2,1,0,-2,2021-08-07 12:56:29,330889
-4,-1,-3,-5,-10,-10,-4,-2,2021-08-07 12:56:29,330889
-3,-4,-3,-2,-2,0,0,-2,2021-08-07 12:56:29,362891
4,5,6,15,28,16,7,3,2021-08-07 12:56:29,394901
-1,-1,-1,-7,-8,-7,-3,-2,2021-08-07 12:56:29,410902
2,2,4,8,11,9,7,2,2021-08-07 12:56:29,426864
-4,-3,-5,-2,-6,-7,-6,-5,2021-08-07 12:56:29,426864
-2,-3,-4,-14,-22,-11,-5,-4,2021-08-07 12:56:29,426864
3,3,4,8,15,10,4,2,2021-08-07 12:56:29,426864
0,0,0,-3,-7,-5,-3,-2,2021-08-07 12:56:29,426864
-1,-2,-3,-2,-4,-3,-4,-1,2021-08-07 12:56:29,426864
-2,-1,-2,3,5,3,1,1,2021-08-07 12:56:29,442861
-1,-1,-2,1,-1,-2,-1,0,2021-08-07 12:56:29,442861
2,3,2,2,2,2,3,2,2021-08-07 12:56:29,442861
-3,-5,-6,-6,-6,-5,-5,-3,2021-08-07 12:56:29,442861
1,2,4,2,0,-1,0,1,2021-08-07 12:56:29,442861
-1,-2,-2,-9,-14,-8,-2,-1,2021-08-07 12:56:29,442861
1,1,1,6,15,10,4,3,2021-08-07 12:56:29,443868
-2,0,-3,-2,4,1,1,-1,2021-08-07 12:56:29,443868
-7,-10,-10,-9,-12,-10,-6,-5,2021-08-07 12:56:29,443868
9,11,11,9,14,16,18,10,2021-08-07 12:56:29,443868
6,4,4,3,0,0,1,3,2021-08-07 12:56:29,443868
0,-3,-6,-15,-19,-19,-15,-8,2021-08-07 12:56:29,443868
-10,-4,-1,9,5,-2,-4,-9,2021-08-07 12:56:29,443868
18,7,5,7,13,28,36,19,2021-08-07 12:56:29,458861
11,4,7,8,16,14,2,6,2021-08-07 12:56:29,474915
-39,-20,-15,-15,-27,-64,-73,-50,2021-08-07 12:56:29,490865
-16,-14,-15,-22,-28,-27,-24,-14,2021-08-07 12:56:29,490865
1,-2,-2,2,-1,4,4,-1,2021-08-07 12:56:29,490865
8,4,5,4,7,18,21,12,2021-08-07 12:56:29,490865
16,11,9,9,14,19,19,4,2021-08-07 12:56:29,490865
-2,3,5,1,2,7,9,12,2021-08-07 12:56:29,490865
-15,-2,2,-1,-8,-13,-10,5,2021-08-07 12:56:29,490865
6,0,-6,-3,-1,5,13,11,2021-08-07 12:56:29,490865
4,-1,0,3,9,12,11,5,2021-08-07 12:56:29,522861
7,2,0,-3,-3,0,-2,-8,2021-08-07 12:56:29,522861
2,2,3,9,17,20,16,-1,2021-08-07 12:56:29,522861
8,5,8,14,14,16,15,8,2021-08-07 12:56:29,522861
14,6,7,5,2,-6,-3,14,2021-08-07 12:56:29,522861
-44,-25,-24,-27,-39,-58,-60,-53,2021-08-07 12:56:29,523862
-4,-2,-6,-13,-16,-19,-21,-9,2021-08-07 12:56:29,538888
8,3,0,-2,-2,15,26,3,2021-08-07 12:56:29,554902
40,11,8,10,18,37,34,27,2021-08-07 12:56:29,561862
-26,-14,-7,-5,-8,-32,-38,-19,2021-08-07 12:56:29,561862
-52,-20,-10,-8,-12,-22,-22,-14,2021-08-07 12:56:29,561862
-19,-15,-14,-13,-20,-20,-11,-3,2021-08-07 12:56:29,562868
11,8,7,9,16,34,38,21,2021-08-07 12:56:29,562868
40,21,16,23,37,40,35,23,2021-08-07 12:56:29,562868
12,2,-1,1,1,-8,-13,-13,2021-08-07 12:56:29,586912
-12,-1,-3,-4,-7,-12,-16,-14,2021-08-07 12:56:29,586912
-4,-3,-1,-1,-6,-5,-4,-2,2021-08-07 12:56:29,586912
3,-7,-7,-15,-32,-16,-4,0,2021-08-07 12:56:29,586912
-1,1,0,-6,9,7,0,-2,2021-08-07 12:56:29,586912
2,5,9,15,22,8,2,-2,2021-08-07 12:56:29,586912
-13,-8,-9,-14,-20,-20,-13,-6,2021-08-07 12:56:29,618865
0,3,0,3,8,8,9,4,2021-08-07 12:56:29,634900
6,-8,-10,-21,-33,-13,-2,2,2021-08-07 12:56:29,634900
-5,-4,-5,5,8,-9,-19,-9,2021-08-07 12:56:29,634900
-13,-3,-2,1,6,4,1,-6,2021-08-07 12:56:29,634900
11,6,7,7,7,19,23,16,2021-08-07 12:56:29,634900
9,8,13,24,8,-3,-5,2,2021-08-07 12:56:29,634900
-7,1,1,7,7,-8,-11,-8,2021-08-07 12:56:29,650900
-6,-3,-9,-14,-12,-1,4,-1,2021-08-07 12:56:29,650900
1,-13,-22,-61,-39,-11,0,3,2021-08-07 12:56:29,650900
2,-1,-2,-7,-3,-3,-7,-6,2021-08-07 12:56:29,650900
-5,-4,5,-10,-7,-5,-8,-7,2021-08-07 12:56:29,650900
2,6,3,35,41,22,14,6,2021-08-07 12:56:29,682862
6,6,7,18,6,4,6,5,2021-08-07 12:56:29,682862
5,8,9,38,46,21,11,4,2021-08-07 12:56:29,682862
-3,0,1,9,-9,-11,-7,-2,2021-08-07 12:56:29,682862
-5,-3,-4,-19,-20,-9,-8,-3,2021-08-07 12:56:29,698865
0,-3,-8,-32,-21,-4,0,-1,2021-08-07 12:56:29,714865
-1,1,13,24,17,2,-2,-3,2021-08-07 12:56:29,714865
6,6,13,34,1,-3,-3,3,2021-08-07 12:56:29,714865
4,6,4,40,10,7,4,2,2021-08-07 12:56:29,714865
-1,-11,-36,-77,-26,0,3,1,2021-08-07 12:56:29,714865
-12,-21,-27,-54,-39,-18,-12,-10,2021-08-07 12:56:29,714865
-7,-11,-19,-15,-10,-10,-11,-10,2021-08-07 12:56:29,714865
2,7,20,26,7,1,2,2,2021-08-07 12:56:29,730889
8,16,29,70,37,17,11,9,2021-08-07 12:56:29,730889
5,6,6,4,8,4,2,4,2021-08-07 12:56:29,730889
-7,-11,-9,-19,-15,-10,-10,-6,2021-08-07 12:56:29,730889
-3,-2,2,-1,2,1,0,-3,2021-08-07 12:56:29,762864
8,8,12,21,21,13,9,7,2021-08-07 12:56:29,762864
3,-2,-5,-10,-8,-4,-2,-2,2021-08-07 12:56:29,762864
-2,-3,-4,-6,-5,-3,-4,-4,2021-08-07 12:56:29,762864
-6,-6,-9,-24,-10,-4,-6,-3,2021-08-07 12:56:29,763866
1,3,7,14,10,5,2,3,2021-08-07 12:56:29,763866
2,0,-2,4,-5,-3,0,-1,2021-08-07 12:56:29,763866
-3,-3,-6,-7,-2,2,1,0,2021-08-07 12:56:29,763866
-2,-5,-2,-17,-12,-8,-4,-2,2021-08-07 12:56:29,794890
1,3,5,9,7,0,1,5,2021-08-07 12:56:29,794890
0,2,-3,8,5,-4,-3,0,2021-08-07 12:56:29,794890
1,2,-4,-14,-8,-2,-1,2,2021-08-07 12:56:29,794890
-2,-4,-6,-9,-1,-3,-4,-4,2021-08-07 12:56:29,826889
-2,-2,0,11,0,-1,1,-4,2021-08-07 12:56:29,842891
3,0,-2,-10,-14,-5,1,3,2021-08-07 12:56:29,842891
4,2,3,1,10,5,3,3,2021-08-07 12:56:29,842891
-5,-5,-5,-7,-2,-2,-3,-6,2021-08-07 12:56:29,842891
0,0,6,15,9,6,2,0,2021-08-07 12:56:29,842891
-3,-3,-1,1,6,5,-1,-3,2021-08-07 12:56:29,842891
-1,2,0,-3,-6,-4,-2,-1,2021-08-07 12:56:29,842891
-3,-1,-1,-7,-7,-6,-5,-3,2021-08-07 12:56:29,858890
2,2,1,3,4,3,1,2,2021-08-07 12:56:29,858890
-1,-3,-3,-4,-2,-3,0,-1,2021-08-07 12:56:29,858890
1,-2,0,-7,-8,-3,-2,1,2021-08-07 12:56:29,858890
0,-1,0,0,-2,-2,-2,0,2021-08-07 12:56:29,874889
2,3,4,7,12,6,3,2,2021-08-07 12:56:29,890866
-2,-2,0,2,-1,2,0,-1,2021-08-07 12:56:29,890866
0,0,-1,-2,-1,1,1,0,2021-08-07 12:56:29,890866
-2,-2,-3,-6,-6,-8,-3,-1,2021-08-07 12:56:29,890866
-1,-2,-1,-3,-2,0,-2,-2,2021-08-07 12:56:29,890866
1,4,4,6,9,6,4,5,2021-08-07 12:56:29,890866
-2,-3,0,-2,0,-2,-1,0,2021-08-07 12:56:29,890866
-3,-4,-2,-2,-3,0,-2,-3,2021-08-07 12:56:29,921892
1,0,1,5,-2,-2,2,4,2021-08-07 12:56:29,921892
5,3,2,5,6,4,2,1,2021-08-07 12:56:29,921892
-1,0,-1,2,-3,-3,-2,-2,2021-08-07 12:56:29,921892
0,-1,-3,-8,-3,-1,-3,-2,2021-08-07 12:56:29,937903
-4,-6,-9,-12,-6,-4,-3,-4,2021-08-07 12:56:29,937903
-4,-4,-2,-9,-7,-3,-4,-6,2021-08-07 12:56:29,937903
2,3,4,5,4,0,2,1,2021-08-07 12:56:29,937903
0,1,2,11,3,3,2,0,2021-08-07 12:56:29,953891
2,3,2,6,6,4,3,-2,2021-08-07 12:56:29,953891
1,1,0,0,2,-1,-1,1,2021-08-07 12:56:29,953891
-1,-3,-5,3,3,1,-3,-3,2021-08-07 12:56:29,953891
-5,-5,-12,-43,-28,-15,-9,-5,2021-08-07 12:56:29,984904
-4,-6,1,-2,-3,-4,-2,-4,2021-08-07 12:56:29,984904
-2,2,-5,2,3,4,0,1,2021-08-07 12:56:29,984904
0,0,3,8,3,-1,1,0,2021-08-07 12:56:29,984904
4,5,9,30,25,12,7,4,2021-08-07 12:56:30,000905
0,2,1,5,0,0,0,-2,2021-08-07 12:56:30,000905
-3,-7,-6,-15,-15,-9,-5,-5,2021-08-07 12:56:30,000905
-2,-5,-4,-15,-14,-7,-6,-3,2021-08-07 12:56:30,000905
-4,-3,0,2,-2,-3,-3,-3,2021-08-07 12:56:30,016911
2,4,4,-4,-5,1,0,-1,2021-08-07 12:56:30,032864
2,2,4,9,8,4,0,2,2021-08-07 12:56:30,032864
0,-1,-6,-5,1,4,3,1,2021-08-07 12:56:30,032864
-1,-3,0,-3,0,0,1,-1,2021-08-07 12:56:30,032864
0,1,3,13,8,3,1,-2,2021-08-07 12:56:30,032864
-1,-1,-4,-6,-11,-6,-2,-2,2021-08-07 12:56:30,032864
0,0,2,1,6,2,0,1,2021-08-07 12:56:30,032864
-5,-4,-5,-9,-6,-5,-4,-4,2021-08-07 12:56:30,063866
2,0,-2,7,8,4,2,2,2021-08-07 12:56:30,079903
-2,0,-1,-1,-3,-3,-1,-1,2021-08-07 12:56:30,095866
-2,-2,0,-5,-9,-7,-3,-3,2021-08-07 12:56:30,110908
1,2,2,10,5,2,0,2,2021-08-07 12:56:30,110908
-2,-1,-4,-9,-6,-2,-2,-1,2021-08-07 12:56:30,110908
-1,-2,2,6,11,6,3,0,2021-08-07 12:56:30,110908
0,0,-4,-15,2,4,1,0,2021-08-07 12:56:30,110908
0,2,-1,4,5,2,1,0,2021-08-07 12:56:30,110908
1,4,3,8,3,0,0,0,2021-08-07 12:56:30,110908
2,1,0,2,-4,-3,-1,1,2021-08-07 12:56:30,111865
-5,-8,-4,-21,-35,-20,-9,-7,2021-08-07 12:56:30,111865
-2,-6,-5,-9,-2,1,0,-2,2021-08-07 12:56:30,111865
1,3,1,15,24,14,6,4,2021-08-07 12:56:30,111865
1,1,2,11,14,6,3,1,2021-08-07 12:56:30,111865
7,12,11,23,20,9,4,5,2021-08-07 12:56:30,111865
-2,-1,-2,-9,-17,-8,-5,-1,2021-08-07 12:56:30,126891
-2,-4,-5,-18,-18,-10,-6,-3,2021-08-07 12:56:30,126891
3,3,6,7,9,5,1,2,2021-08-07 12:56:30,126891
-2,-2,2,4,4,2,0,-1,2021-08-07 12:56:30,142890
-3,-4,-15,-4,-6,-5,-1,-3,2021-08-07 12:56:30,158909
-6,-10,-11,-30,-21,-10,-7,-3,2021-08-07 12:56:30,158909
-3,-3,-3,-15,-9,-3,-4,-1,2021-08-07 12:56:30,173861
1,-1,5,13,11,5,2,0,2021-08-07 12:56:30,188900
2,5,9,12,7,0,-1,0,2021-08-07 12:56:30,204888
0,-1,1,10,5,1,2,-1,2021-08-07 12:56:30,204888
1,2,1,1,1,-1,2,2,2021-08-07 12:56:30,204888
-2,-1,-3,-3,-9,-7,-4,0,2021-08-07 12:56:30,204888
0,-2,0,-4,3,3,0,0,2021-08-07 12:56:30,204888
-2,-5,-8,-16,-10,-9,-4,-1,2021-08-07 12:56:30,204888
-2,-2,0,2,2,3,0,-2,2021-08-07 12:56:30,220888
-1,-1,-5,2,0,-4,-2,-2,2021-08-07 12:56:30,220888
-3,-6,-4,1,-11,-3,-3,-4,2021-08-07 12:56:30,220888
3,6,5,6,21,12,6,5,2021-08-07 12:56:30,220888
0,3,2,-2,-10,-7,-4,-1,2021-08-07 12:56:30,220888
3,4,1,9,16,10,4,4,2021-08-07 12:56:30,220888
-1,0,6,5,0,-5,-2,0,2021-08-07 12:56:30,236889
0,0,3,12,-2,-1,-2,-2,2021-08-07 12:56:30,236889
-4,-6,-11,-15,-11,-7,-3,-3,2021-08-07 12:56:30,236889
-11,-16,-16,-39,-29,-14,-10,-10,2021-08-07 12:56:30,236889
7,10,9,1,6,5,6,8,2021-08-07 12:56:30,252865
1,2,3,10,7,2,2,1,2021-08-07 12:56:30,252865
1,1,6,10,4,2,0,-2,2021-08-07 12:56:30,252865
0,1,1,-2,-6,-2,-1,-2,2021-08-07 12:56:30,252865
-5,-8,-17,-11,-12,-7,-5,-4,2021-08-07 12:56:30,284889
0,2,3,11,15,11,4,1,2021-08-07 12:56:30,284889
3,0,-2,6,12,8,4,0,2021-08-07 12:56:30,284889
2,1,2,1,0,1,1,1,2021-08-07 12:56:30,284889
-1,1,0,-1,7,3,2,0,2021-08-07 12:56:30,300889
0,0,-1,-3,-11,-9,-3,-2,2021-08-07 12:56:30,300889
-4,-2,-1,-2,-6,-6,-3,-2,2021-08-07 12:56:30,300889
-2,-3,-3,1,4,1,0,1,2021-08-07 12:56:30,300889
-2,-3,-2,-5,-3,-2,-3,-3,2021-08-07 12:56:30,316862
-2,-2,-1,-6,-11,-8,-4,-3,2021-08-07 12:56:30,332902
1,2,0,1,-1,1,1,2,2021-08-07 12:56:30,347865
-1,-3,-4,7,-2,-1,-1,-3,2021-08-07 12:56:30,363901
2,6,10,24,21,12,4,3,2021-08-07 12:56:30,379901
-2,-2,-2,-13,-4,-1,-1,-1,2021-08-07 12:56:30,379901
-2,-3,-8,-18,-12,-6,-3,-1,2021-08-07 12:56:30,379901
-2,-3,-6,-8,-6,-6,-4,-3,2021-08-07 12:56:30,379901
-4,-8,-1,-7,-14,-12,-7,-5,2021-08-07 12:56:30,379901
2,5,7,18,14,8,3,2,2021-08-07 12:56:30,379901
3,3,3,18,12,6,4,4,2021-08-07 12:56:30,380866
0,1,-2,-8,5,4,3,1,2021-08-07 12:56:30,380866
-1,-2,-1,-4,1,-1,-1,-4,2021-08-07 12:56:30,380866
-1,-2,0,-5,-10,-7,-2,-1,2021-08-07 12:56:30,380866
-2,-3,-5,-8,-13,-9,-5,-3,2021-08-07 12:56:30,380866
0,2,6,18,15,9,4,1,2021-08-07 12:56:30,381863
1,1,-1,4,5,4,4,2,2021-08-07 12:56:30,395861
-5,-6,-9,-13,-17,-8,-6,-4,2021-08-07 12:56:30,406864
3,3,2,-11,-2,0,0,2,2021-08-07 12:56:30,406864
1,2,2,7,5,3,1,-1,2021-08-07 12:56:30,406864
-1,0,2,-2,6,3,-1,1,2021-08-07 12:56:30,427902
-1,-2,0,5,2,0,-2,-2,2021-08-07 12:56:30,427902
-2,-4,-3,1,-4,-4,-2,-4,2021-08-07 12:56:30,427902
-1,-2,-3,-17,-11,-3,-2,-2,2021-08-07 12:56:30,427902
2,2,3,-3,-4,-2,1,1,2021-08-07 12:56:30,427902
2,5,7,22,23,13,5,2,2021-08-07 12:56:30,427902
0,1,0,10,12,3,2,1,2021-08-07 12:56:30,443868
-1,-4,-10,-19,-16,-7,-3,-3,2021-08-07 12:56:30,443868
-6,-12,-10,-31,-14,-7,-7,-6,2021-08-07 12:56:30,459862
-3,-4,-4,-15,-20,-11,-8,-5,2021-08-07 12:56:30,459862
0,-3,0,2,-5,-3,-4,-2,2021-08-07 12:56:30,459862
5,7,12,31,25,13,7,4,2021-08-07 12:56:30,459862
2,2,1,12,8,4,2,3,2021-08-07 12:56:30,475861
0,-1,0,-4,-3,0,2,2,2021-08-07 12:56:30,475861
-3,-2,-1,-12,-13,-7,-4,-4,2021-08-07 12:56:30,475861
-1,-4,-3,-6,-7,-6,-3,-1,2021-08-07 12:56:30,475861
-1,-1,0,-1,-4,-2,-2,-2,2021-08-07 12:56:30,491916
-4,-3,-3,-1,-6,-6,-2,-3,2021-08-07 12:56:30,506865
0,1,-2,-4,3,3,3,1,2021-08-07 12:56:30,506865
2,6,5,12,12,5,2,3,2021-08-07 12:56:30,522894
-2,-1,-1,4,4,2,0,-1,2021-08-07 12:56:30,538890
-2,-2,-3,-6,1,-1,-1,0,2021-08-07 12:56:30,538890
-1,1,2,2,-2,-1,0,0,2021-08-07 12:56:30,538890
-3,-2,0,0,1,-1,-2,-2,2021-08-07 12:56:30,538890
1,3,2,5,0,0,0,2,2021-08-07 12:56:30,538890
-1,0,-5,-4,-2,0,-1,-1,2021-08-07 12:56:30,538890
-3,-4,-2,-12,-8,-2,-3,-2,2021-08-07 12:56:30,539864
-1,-4,3,-5,-6,-5,-3,-1,2021-08-07 12:56:30,539864
0,1,-9,6,1,2,1,-2,2021-08-07 12:56:30,554898
-3,-3,-6,-21,-13,-6,-3,-1,2021-08-07 12:56:30,554898
-2,-2,-1,-3,1,1,-1,-2,2021-08-07 12:56:30,554898
2,3,5,11,11,7,2,2,2021-08-07 12:56:30,554898
0,-1,2,-3,-4,-4,-2,-3,2021-08-07 12:56:30,570891
4,8,9,17,17,9,5,5,2021-08-07 12:56:30,570891
-2,-1,-4,-1,-11,-8,-5,-4,2021-08-07 12:56:30,570891
-1,0,0,11,9,5,2,1,2021-08-07 12:56:30,570891
0,-1,-3,-11,5,1,1,2,2021-08-07 12:56:30,601861
-1,-1,-4,-6,-9,-3,-2,-1,2021-08-07 12:56:30,616900
-1,-2,1,-2,1,1,-1,0,2021-08-07 12:56:30,616900
-3,-2,-6,-8,-15,-12,-7,-4,2021-08-07 12:56:30,616900
-3,-2,2,5,1,0,-2,-1,2021-08-07 12:56:30,616900
0,-1,1,4,1,0,0,1,2021-08-07 12:56:30,616900
1,1,2,2,9,6,4,1,2021-08-07 12:56:30,616900
1,1,-5,-7,-6,-4,-2,-1,2021-08-07 12:56:30,617862
-1,-1,0,-3,-4,-2,-1,-2,2021-08-07 12:56:30,648861
-2,-1,0,4,2,1,0,-1,2021-08-07 12:56:30,664861
0,0,0,7,2,1,0,1,2021-08-07 12:56:30,664861
-1,-3,-4,-8,-6,-5,-2,-1,2021-08-07 12:56:30,680898
-2,-4,-8,-13,-4,-1,-3,-1,2021-08-07 12:56:30,680898
0,-2,-3,-6,-1,0,-1,-1,2021-08-07 12:56:30,680898
-2,-1,4,-1,-3,-1,-4,-3,2021-08-07 12:56:30,680898
-2,-2,5,-4,-15,-13,-5,-4,2021-08-07 12:56:30,680898
3,3,-11,5,7,9,4,1,2021-08-07 12:56:30,680898
-1,-2,1,4,9,4,1,-2,2021-08-07 12:56:30,680898
2,3,2,20,17,7,3,1,2021-08-07 12:56:30,680898
-3,-2,-3,-21,-10,-5,-4,-4,2021-08-07 12:56:30,681898
1,4,5,-1,-10,-5,0,0,2021-08-07 12:56:30,696897
4,4,-2,2,3,1,3,1,2021-08-07 12:56:30,696897
1,-2,-3,-3,-6,-4,0,0,2021-08-07 12:56:30,696897
-3,-6,-3,7,-3,-2,-1,0,2021-08-07 12:56:30,712885
-4,-1,2,-2,1,-1,-2,-3,2021-08-07 12:56:30,712885
-3,-2,-1,-10,-11,-3,-3,-3,2021-08-07 12:56:30,712885
-2,-1,2,-3,-3,-5,-4,-2,2021-08-07 12:56:30,712885
1,6,0,7,9,5,4,3,2021-08-07 12:56:30,712885
0,-4,-3,-1,-3,-3,-3,-2,2021-08-07 12:56:30,744865
-1,-2,-1,-3,-2,-1,-2,-1,2021-08-07 12:56:30,760887
1,2,-1,0,4,4,1,3,2021-08-07 12:56:30,760887
0,-1,-4,-1,1,0,1,1,2021-08-07 12:56:30,760887
-3,-4,0,-2,-6,-4,-2,-3,2021-08-07 12:56:30,760887
1,1,3,-2,-5,-3,0,2,2021-08-07 12:56:30,760887
2,3,2,6,13,7,4,3,2021-08-07 12:56:30,760887
2,2,0,2,3,3,2,3,2021-08-07 12:56:30,760887
-1,-1,2,6,5,3,1,-1,2021-08-07 12:56:30,792864
-2,-4,-5,-10,-3,-4,-2,-1,2021-08-07 12:56:30,808902
-4,-6,-7,-5,-11,-6,-5,-3,2021-08-07 12:56:30,808902
0,-3,-3,-12,-8,-4,-5,-4,2021-08-07 12:56:30,808902
1,2,6,2,-7,-6,-1,1,2021-08-07 12:56:30,808902
0,1,2,12,14,9,2,0,2021-08-07 12:56:30,808902
3,4,3,6,11,8,3,3,2021-08-07 12:56:30,808902
-2,-1,0,5,6,2,0,-1,2021-08-07 12:56:30,808902
0,-2,-6,-3,-2,0,-1,-1,2021-08-07 12:56:30,824887
-2,-2,-4,-14,-9,-6,-4,-3,2021-08-07 12:56:30,824887
-1,-1,1,1,-7,-5,-1,-2,2021-08-07 12:56:30,824887
0,0,-5,-10,-5,1,-1,0,2021-08-07 12:56:30,824887
-4,-5,-4,-6,-8,-7,-6,-4,2021-08-07 12:56:30,835890
-4,-4,0,0,0,-2,-2,-3,2021-08-07 12:56:30,835890
-2,-3,-8,-12,-6,-2,0,-1,2021-08-07 12:56:30,835890
1,3,5,9,5,1,3,2,2021-08-07 12:56:30,835890
5,7,8,12,11,8,8,4,2021-08-07 12:56:30,856861
-1,1,-3,5,-10,-10,-4,-2,2021-08-07 12:56:30,856861
1,0,1,4,14,12,7,2,2021-08-07 12:56:30,856861
-2,-3,-3,-5,2,1,-2,-1,2021-08-07 12:56:30,856861
-2,-2,-2,-5,-4,-4,-3,-1,2021-08-07 12:56:30,872890
0,-1,3,5,3,1,1,-1,2021-08-07 12:56:30,872890
-2,-1,0,0,-2,-5,-4,-2,2021-08-07 12:56:30,872890
-2,0,-3,0,-5,-3,-2,-2,2021-08-07 12:56:30,872890
-2,-1,2,1,2,-1,-1,-2,2021-08-07 12:56:30,902905
0,0,1,5,-1,-1,-1,1,2021-08-07 12:56:30,902905
-1,-2,-4,-7,-5,-2,-1,-1,2021-08-07 12:56:30,902905
0,-1,1,5,3,4,3,0,2021-08-07 12:56:30,902905
1,1,-2,-6,-5,-2,-1,1,2021-08-07 12:56:30,918865
-3,-6,-8,-13,-9,-4,-4,-4,2021-08-07 12:56:30,918865
0,0,0,1,5,4,2,0,2021-08-07 12:56:30,918865
0,-2,2,4,0,-2,-3,-2,2021-08-07 12:56:30,918865
-2,-2,0,-4,-10,-6,-5,-2,2021-08-07 12:56:30,934904
1,3,3,13,8,5,3,2,2021-08-07 12:56:30,934904
1,1,0,-6,4,3,2,2,2021-08-07 12:56:30,934904
-2,-3,0,-4,-7,-6,-3,-1,2021-08-07 12:56:30,934904
1,1,1,10,11,6,2,0,2021-08-07 12:56:30,965888
-2,-1,-2,-9,-6,-5,-5,-1,2021-08-07 12:56:30,981862
-1,-1,1,5,2,-2,-1,-1,2021-08-07 12:56:30,981862
0,0,-1,4,4,3,1,-1,2021-08-07 12:56:30,981862
-2,-3,-4,-11,-8,-5,-2,-1,2021-08-07 12:56:30,981862
-1,0,3,4,3,2,2,1,2021-08-07 12:56:30,981862
-4,-6,-2,-5,-11,-6,-3,-4,2021-08-07 12:56:30,981862
0,0,-2,-2,3,1,0,1,2021-08-07 12:56:30,981862
-1,2,0,7,7,3,0,0,2021-08-07 12:56:30,997863
3,5,4,13,14,8,4,4,2021-08-07 12:56:31,013900
-2,-2,-8,-11,-13,-8,-3,-2,2021-08-07 12:56:31,013900
-3,-8,-6,-19,-14,-6,-2,-3,2021-08-07 12:56:31,013900
-2,-3,-2,-20,-16,-9,-6,-4,2021-08-07 12:56:31,029901
2,1,-3,1,3,2,1,0,2021-08-07 12:56:31,029901
0,-2,2,13,0,-3,-3,-1,2021-08-07 12:56:31,029901
1,3,0,4,11,4,3,-1,2021-08-07 12:56:31,029901
3,3,3,8,15,9,5,4,2021-08-07 12:56:31,045902
-2,-4,-3,-10,-8,-4,-1,-2,2021-08-07 12:56:31,061864
3,5,4,-3,-2,-3,0,1,2021-08-07 12:56:31,061864
-1,-2,-4,-6,-7,-4,-3,-1,2021-08-07 12:56:31,061864
-2,-2,1,1,-1,-3,-3,-3,2021-08-07 12:56:31,061864
0,-1,-1,-3,-1,1,-1,-1,2021-08-07 12:56:31,061864
-1,-3,-11,-3,-4,-2,-2,-1,2021-08-07 12:56:31,061864
0,2,3,3,2,1,0,-1,2021-08-07 12:56:31,061864
0,0,0,2,4,2,1,0,2021-08-07 12:56:31,077903
0,0,2,-4,-8,-5,-2,0,2021-08-07 12:56:31,077903
1,1,7,11,14,5,0,0,2021-08-07 12:56:31,077903
1,1,3,12,9,3,2,0,2021-08-07 12:56:31,077903
-3,-4,-6,-7,-5,-3,-1,0,2021-08-07 12:56:31,109861
-1,-2,-3,-15,-6,-2,0,-3,2021-08-07 12:56:31,109861
-1,-3,-5,-11,-10,-5,-3,-3,2021-08-07 12:56:31,109861
-3,-4,-5,-5,-8,-6,-3,-2,2021-08-07 12:56:31,109861
-3,-3,-1,-6,-6,-4,-4,-2,2021-08-07 12:56:31,125899
1,2,3,9,8,0,-1,1,2021-08-07 12:56:31,125899
0,1,1,-2,-6,-1,0,1,2021-08-07 12:56:31,125899
-1,-1,1,6,7,2,0,0,2021-08-07 12:56:31,125899
0,1,-1,6,2,3,2,2,2021-08-07 12:56:31,141890
0,1,0,12,14,8,2,2,2021-08-07 12:56:31,156863
-3,0,0,-2,-3,-3,-3,-2,2021-08-07 12:56:31,156863
1,1,1,0,-5,-2,-2,1,2021-08-07 12:56:31,156863
-2,-2,-8,-15,-12,-7,-4,-2,2021-08-07 12:56:31,156863
-1,-2,-1,-14,-13,-6,-1,-1,2021-08-07 12:56:31,172868
-1,-1,3,5,12,7,3,0,2021-08-07 12:56:31,172868
0,0,0,13,20,12,5,1,2021-08-07 12:56:31,172868
1,3,7,12,8,3,3,1,2021-08-07 12:56:31,172868
-1,-1,-1,6,0,-2,-3,-1,2021-08-07 12:56:31,172868
0,-3,-4,-9,-18,-11,-4,-2,2021-08-07 12:56:31,173863
0,-2,-4,-9,-5,0,-1,0,2021-08-07 12:56:31,173863
-4,-8,-6,-21,-6,-1,-5,-5,2021-08-07 12:56:31,203903
-3,-4,-4,-1,-6,-4,-1,-2,2021-08-07 12:56:31,203903
0,-1,-1,0,6,2,1,2,2021-08-07 12:56:31,203903
4,7,10,14,9,3,4,4,2021-08-07 12:56:31,203903
2,2,-1,7,2,0,2,1,2021-08-07 12:56:31,219900
-1,-3,-4,0,-2,1,-2,-3,2021-08-07 12:56:31,219900
-2,-1,-3,-15,-6,-3,-2,0,2021-08-07 12:56:31,219900
-3,-5,-6,-10,-14,-9,-6,-5,2021-08-07 12:56:31,219900
2,3,5,7,3,4,1,2,2021-08-07 12:56:31,251888
2,3,6,0,0,0,0,1,2021-08-07 12:56:31,253889
1,0,-4,1,-1,1,1,1,2021-08-07 12:56:31,254863
-4,-2,0,4,10,5,1,0,2021-08-07 12:56:31,254863
1,3,3,10,6,-1,2,1,2021-08-07 12:56:31,254863
4,4,2,12,10,6,6,3,2021-08-07 12:56:31,254863
-7,-9,-14,-39,-28,-12,-7,-6,2021-08-07 12:56:31,255890
-5,-6,-5,-25,-22,-14,-8,-6,2021-08-07 12:56:31,255890
-1,-1,0,8,6,4,0,-1,2021-08-07 12:56:31,283890
-1,-2,1,11,0,0,-1,-1,2021-08-07 12:56:31,299866
3,9,10,18,25,15,7,5,2021-08-07 12:56:31,299866
-2,-2,-2,-2,-5,-2,-2,-1,2021-08-07 12:56:31,299866
-2,0,-3,-4,-2,-1,-2,0,2021-08-07 12:56:31,299866
-2,0,-1,-6,-9,-6,-5,-3,2021-08-07 12:56:31,299866
0,-2,1,3,0,0,-1,0,2021-08-07 12:56:31,299866
-1,-1,-5,-5,-4,0,-1,-2,2021-08-07 12:56:31,299866
-1,-2,1,4,6,-1,-1,-3,2021-08-07 12:56:31,315901
3,3,2,3,7,5,4,3,2021-08-07 12:56:31,315901
1,0,2,7,0,-2,-1,0,2021-08-07 12:56:31,315901
1,3,2,2,11,8,3,2,2021-08-07 12:56:31,315901
-3,-6,-8,-14,-13,-5,-5,-2,2021-08-07 12:56:31,347864
-3,-5,-5,-11,-8,-7,-4,-3,2021-08-07 12:56:31,347864
0,-1,3,2,4,2,1,-1,2021-08-07 12:56:31,347864
2,2,6,10,1,1,0,2,2021-08-07 12:56:31,347864
1,-1,-4,5,-2,0,1,0,2021-08-07 12:56:31,347864
-1,-1,-4,-14,-2,-2,-1,0,2021-08-07 12:56:31,347864
-2,-2,2,-1,-7,-4,-3,-3,2021-08-07 12:56:31,363911
-3,-4,-6,-9,-11,-4,-3,-3,2021-08-07 12:56:31,363911
0,0,3,1,-5,-4,-3,0,2021-08-07 12:56:31,379889
3,4,4,19,21,10,7,3,2021-08-07 12:56:31,379889
3,2,2,12,9,5,4,0,2021-08-07 12:56:31,379889
-1,-2,-2,-1,-6,-5,-3,-1,2021-08-07 12:56:31,379889
1,2,1,0,6,4,4,1,2021-08-07 12:56:31,410901
-4,-4,-4,-9,-3,0,-4,-4,2021-08-07 12:56:31,410901
-2,0,-3,-5,-6,-3,-3,0,2021-08-07 12:56:31,410901
-2,0,-2,-1,-4,-6,-1,-2,2021-08-07 12:56:31,410901
0,-2,-4,-3,1,2,0,-1,2021-08-07 12:56:31,410901
-1,-1,-4,-17,-14,-6,-2,1,2021-08-07 12:56:31,410901
-3,-1,2,7,7,2,-2,-1,2021-08-07 12:56:31,426911
-1,-1,1,13,7,3,0,0,2021-08-07 12:56:31,442891
2,4,1,-7,-4,-2,0,2,2021-08-07 12:56:31,458891
-4,-7,-8,-17,-16,-9,-6,-4,2021-08-07 12:56:31,458891
3,3,2,11,6,5,2,1,2021-08-07 12:56:31,458891
-3,-4,-1,-25,-15,-10,-5,-3,2021-08-07 12:56:31,458891
-1,-1,-1,8,8,3,0,0,2021-08-07 12:56:31,458891
0,2,2,13,7,4,3,0,2021-08-07 12:56:31,458891
-1,-1,-1,-3,-9,-7,-4,-2,2021-08-07 12:56:31,474902
0,1,2,12,11,5,1,0,2021-08-07 12:56:31,490865
-1,-2,1,-2,-3,-1,-1,0,2021-08-07 12:56:31,490865
-1,0,-1,-7,-1,-1,0,0,2021-08-07 12:56:31,491282
-5,-6,-5,-12,-12,-9,-5,-2,2021-08-07 12:56:31,491282
2,3,7,-4,2,3,2,1,2021-08-07 12:56:31,491282
1,3,-2,4,10,5,2,0,2021-08-07 12:56:31,491282
0,1,3,11,3,2,0,-1,2021-08-07 12:56:31,491282
-1,2,-1,9,15,6,2,0,2021-08-07 12:56:31,491282
-4,-3,-4,-13,-18,-11,-6,-3,2021-08-07 12:56:31,491895
0,3,3,8,5,2,2,1,2021-08-07 12:56:31,535991
2,1,0,-2,8,5,3,1,2021-08-07 12:56:31,551028
-2,-5,-6,-22,-19,-12,-6,-3,2021-08-07 12:56:31,567028
-5,-5,-8,-11,-13,-9,-4,-5,2021-08-07 12:56:31,582995
-2,-3,0,0,-3,-3,-3,-4,2021-08-07 12:56:31,582995
-1,1,5,15,11,4,1,1,2021-08-07 12:56:31,582995
1,1,2,1,0,2,1,0,2021-08-07 12:56:31,582995
2,5,1,7,5,-1,2,1,2021-08-07 12:56:31,582995
1,-1,-1,0,-6,-1,-2,-2,2021-08-07 12:56:31,582995
0,2,3,1,4,-1,-1,-1,2021-08-07 12:56:31,583991
0,1,-1,3,2,-1,0,1,2021-08-07 12:56:31,583991
-1,-4,-8,-15,-11,-2,-3,-3,2021-08-07 12:56:31,583991
-3,-5,-4,-10,-9,-7,-2,-2,2021-08-07 12:56:31,583991
-2,-3,-2,-9,-11,-3,-2,0,2021-08-07 12:56:31,583991
1,1,-2,3,13,7,3,2,2021-08-07 12:56:31,583991
1,-2,3,20,9,4,2,0,2021-08-07 12:56:31,583991
0,1,1,-5,3,3,0,0,2021-08-07 12:56:31,599028
-1,-1,2,4,-2,-1,0,-3,2021-08-07 12:56:31,615027
-1,-3,1,4,-3,-3,-3,-2,2021-08-07 12:56:31,615027
-3,-1,-2,-7,-6,-4,-4,-3,2021-08-07 12:56:31,615027
1,3,3,5,1,1,1,2,2021-08-07 12:56:31,630991
-2,-1,-5,-10,-4,-3,-2,-1,2021-08-07 12:56:31,630991
1,-3,0,-4,2,2,1,0,2021-08-07 12:56:31,647030
-3,-8,-13,-14,-7,-2,-2,-2,2021-08-07 12:56:31,647030
-5,-3,6,0,-2,-5,-2,-4,2021-08-07 12:56:31,647030
3,2,-5,6,5,3,0,1,2021-08-07 12:56:31,647030
1,1,3,9,2,1,0,0,2021-08-07 12:56:31,647030
0,2,4,5,0,-2,0,-1,2021-08-07 12:56:31,647030
-3,-1,-3,-4,-9,-6,-2,-1,2021-08-07 12:56:31,663030
-2,-2,1,-4,4,3,2,-2,2021-08-07 12:56:31,673992
-2,-3,-4,-15,-6,-2,-1,-2,2021-08-07 12:56:31,673992
0,0,3,7,12,6,4,2,2021-08-07 12:56:31,673992
-1,-1,-1,-4,-3,-4,-2,-2,2021-08-07 12:56:31,673992
1,0,2,14,2,-1,0,-2,2021-08-07 12:56:31,673992
0,1,1,-4,-6,0,0,0,2021-08-07 12:56:31,673992
1,4,3,6,9,2,1,0,2021-08-07 12:56:31,674990
1,-3,-2,-3,-1,1,-1,0,2021-08-07 12:56:31,695018
-4,-6,-10,-16,-13,-8,-4,-3,2021-08-07 12:56:31,711260
-4,-6,-4,-3,-9,-7,-4,-4,2021-08-07 12:56:31,711260
-1,-3,-3,-3,-5,-2,-1,-2,2021-08-07 12:56:31,711260
2,2,5,13,13,5,4,2,2021-08-07 12:56:31,726291
3,6,6,13,7,3,2,5,2021-08-07 12:56:31,742292
-1,-1,-6,-7,-12,-5,-3,-2,2021-08-07 12:56:31,742292
-4,-7,-7,-21,-9,-6,-6,-4,2021-08-07 12:56:31,742292
-1,-1,3,-6,-5,-2,-1,0,2021-08-07 12:56:31,742292
0,-2,-3,0,-1,-2,-2,-1,2021-08-07 12:56:31,742292
0,3,4,24,18,8,4,2,2021-08-07 12:56:31,742292
3,5,4,18,10,4,5,3,2021-08-07 12:56:31,742292
-2,-1,-6,-8,-6,0,0,-2,2021-08-07 12:56:31,758256
-4,-4,-6,-30,-16,-7,-4,-2,2021-08-07 12:56:31,773256
-2,-2,-3,-11,-11,-10,-6,-3,2021-08-07 12:56:31,789256
-3,-4,-3,-5,-7,-4,-4,-3,2021-08-07 12:56:31,789256
2,3,4,10,6,1,1,1,2021-08-07 12:56:31,789256
-1,0,1,8,4,4,3,-1,2021-08-07 12:56:31,789256
4,4,2,12,19,10,5,2,2021-08-07 12:56:31,789256
1,2,4,15,14,5,1,2,2021-08-07 12:56:31,789256
-3,-2,-3,-7,-9,-7,-5,-3,2021-08-07 12:56:31,789256
-2,-2,-4,-6,-14,-8,-4,-2,2021-08-07 12:56:31,789256
-5,-5,-5,-25,-15,-7,-5,-2,2021-08-07 12:56:31,789256
2,1,3,3,3,1,0,0,2021-08-07 12:56:31,790257
-1,-2,-9,-6,-6,-4,-2,-1,2021-08-07 12:56:31,821251
0,0,1,6,3,1,-1,2,2021-08-07 12:56:31,821251
1,1,2,11,-2,-2,-1,-1,2021-08-07 12:56:31,821251
-2,-2,-4,-6,-3,0,0,-2,2021-08-07 12:56:31,821251
0,1,-3,-9,-6,-2,1,1,2021-08-07 12:56:31,852255
-2,-4,1,-1,7,4,2,-2,2021-08-07 12:56:31,852255
-1,-1,-3,-2,-5,-2,-1,-2,2021-08-07 12:56:31,852255
0,1,1,3,6,2,2,1,2021-08-07 12:56:31,852255
1,-1,-1,2,2,-1,0,0,2021-08-07 12:56:31,852255
2,3,4,11,5,1,1,1,2021-08-07 12:56:31,852255
-1,0,0,-4,3,3,2,-1,2021-08-07 12:56:31,852255
0,1,-2,-6,-7,-3,-3,-1,2021-08-07 12:56:31,852255
-2,-2,-3,3,1,0,-3,-2,2021-08-07 12:56:31,884272
-3,-3,-2,-13,-5,-2,-1,-2,2021-08-07 12:56:31,900284
1,0,-1,4,-4,-1,-1,-1,2021-08-07 12:56:31,916281
1,-1,2,7,14,7,2,0,2021-08-07 12:56:31,932253
0,2,3,2,2,-1,1,-1,2021-08-07 12:56:31,932253
1,2,1,10,10,7,1,0,2021-08-07 12:56:31,932253
-1,-2,-3,-2,4,1,0,0,2021-08-07 12:56:31,932253
-5,-7,-11,-29,-24,-12,-6,-3,2021-08-07 12:56:31,932253
-3,-4,0,9,10,4,0,-2,2021-08-07 12:56:31,932253
5,8,9,9,5,2,3,4,2021-08-07 12:56:31,932253
-1,2,2,8,0,-2,-1,1,2021-08-07 12:56:31,932253
-1,0,-5,-10,-11,-6,-4,-3,2021-08-07 12:56:31,932253
-2,-4,-5,-6,-8,-7,-4,-2,2021-08-07 12:56:31,933288
-3,-6,-8,-15,-9,-2,-2,-4,2021-08-07 12:56:31,933288
0,0,-2,1,7,3,1,0,2021-08-07 12:56:31,933288
0,-1,1,1,-3,-2,-2,-2,2021-08-07 12:56:31,933288
1,3,4,14,17,11,5,4,2021-08-07 12:56:31,964278
-2,0,-1,-1,-4,-5,-4,-3,2021-08-07 12:56:31,964278
-2,-2,-6,-17,-15,-10,-2,-1,2021-08-07 12:56:31,964278
2,4,4,15,16,11,3,3,2021-08-07 12:56:31,964278
-1,-1,-1,-5,-5,-4,-2,-1,2021-08-07 12:56:31,980280
0,2,5,5,0,1,-1,1,2021-08-07 12:56:31,980280
-1,-3,-6,-5,-5,-2,-3,-1,2021-08-07 12:56:31,996279
-2,0,3,7,1,0,-2,-1,2021-08-07 12:56:31,996279
1,2,1,-1,0,-1,0,0,2021-08-07 12:56:31,996279
0,0,1,-5,-2,-2,0,-1,2021-08-07 12:56:31,996279
1,1,2,5,3,2,1,-1,2021-08-07 12:56:31,996279
-2,-4,-3,-9,-4,-4,-2,-2,2021-08-07 12:56:31,996279
1,2,-1,3,-3,1,-2,0,2021-08-07 12:56:32,028254
2,2,0,1,13,7,4,4,2021-08-07 12:56:32,044292
-4,-7,-4,-16,-12,-8,-5,-4,2021-08-07 12:56:32,060253
0,1,1,2,-3,-4,-1,0,2021-08-07 12:56:32,060253
0,1,3,9,11,6,3,0,2021-08-07 12:56:32,060253
-3,-3,-3,8,-9,-5,-3,-2,2021-08-07 12:56:32,060253
-2,-2,-4,-9,3,5,0,-2,2021-08-07 12:56:32,060253
-3,-3,-1,-4,1,2,0,-1,2021-08-07 12:56:32,061256
0,-2,-2,-5,-2,-1,0,-1,2021-08-07 12:56:32,061256
-1,0,2,7,8,1,0,-2,2021-08-07 12:56:32,061256
1,3,5,16,8,3,1,2,2021-08-07 12:56:32,061256
-3,-3,-5,-1,-8,-4,-2,-3,2021-08-07 12:56:32,061256
-1,-1,-3,-12,-2,0,-1,-1,2021-08-07 12:56:32,092280
1,0,-1,-2,2,3,1,1,2021-08-07 12:56:32,094282
-2,-3,-2,-2,-8,-6,-2,-4,2021-08-07 12:56:32,094282
1,4,4,17,12,2,1,1,2021-08-07 12:56:32,094282
-2,-1,-2,-16,-13,-6,-3,-2,2021-08-07 12:56:32,095256
1,-1,-1,2,3,1,0,0,2021-08-07 12:56:32,095256
-3,-5,-4,-14,-6,-3,-4,-1,2021-08-07 12:56:32,095256
-1,-1,-7,-13,-6,-1,-1,-1,2021-08-07 12:56:32,095256
-1,-2,2,0,-8,-5,-2,-2,2021-08-07 12:56:32,124291
2,6,5,9,12,7,4,2,2021-08-07 12:56:32,139849
0,0,3,7,0,-3,-2,0,2021-08-07 12:56:32,139849
0,-1,2,11,8,3,3,0,2021-08-07 12:56:32,139849
-1,-2,-5,-2,5,2,1,0,2021-08-07 12:56:32,139849
-1,-2,-4,-10,-16,-10,-4,-3,2021-08-07 12:56:32,139849
-5,-6,-8,-18,-11,-7,-7,-5,2021-08-07 12:56:32,140850
0,-1,5,-5,-3,0,0,-1,2021-08-07 12:56:32,140850
0,0,-3,1,-1,0,-1,-2,2021-08-07 12:56:32,155887
0,-1,1,9,0,1,0,0,2021-08-07 12:56:32,155887
2,3,-1,9,15,7,6,3,2021-08-07 12:56:32,186886
-1,-3,-8,-15,-8,-2,-2,-1,2021-08-07 12:56:32,202887
0,-1,3,-5,-4,-2,0,0,2021-08-07 12:56:32,202887
-2,-2,-4,-6,-6,-4,-3,-2,2021-08-07 12:56:32,202887
0,2,1,2,0,0,0,0,2021-08-07 12:56:32,202887
0,2,4,3,1,-3,-2,0,2021-08-07 12:56:32,202887
-1,1,2,4,1,1,-1,-1,2021-08-07 12:56:32,203851
1,-2,-4,-8,-2,-1,-2,-3,2021-08-07 12:56:32,203851
-2,-4,-3,-7,-5,-3,-2,-3,2021-08-07 12:56:32,203851
2,2,4,15,11,6,4,2,2021-08-07 12:56:32,203851
-2,-1,-2,-4,-7,-4,-2,-3,2021-08-07 12:56:32,218848
0,-2,-3,-12,-13,-8,-4,-1,2021-08-07 12:56:32,234904
2,2,5,7,8,3,0,0,2021-08-07 12:56:32,234904
-2,-5,-5,2,-4,0,-2,-1,2021-08-07 12:56:32,234904
-1,-2,0,-6,1,-2,-2,-1,2021-08-07 12:56:32,250906
-3,-5,-3,-5,-5,-4,-3,-4,2021-08-07 12:56:32,266898
-1,-2,-4,-9,-10,-5,-2,-1,2021-08-07 12:56:32,282876
1,0,1,0,0,-1,0,0,2021-08-07 12:56:32,297858
2,3,4,20,22,13,5,2,2021-08-07 12:56:32,297858
1,2,4,5,3,0,0,0,2021-08-07 12:56:32,297858
-1,2,2,-1,-15,-7,-3,1,2021-08-07 12:56:32,297858
-5,-5,-9,-17,-4,-5,-3,-4,2021-08-07 12:56:32,297858
-4,-8,-6,-15,-15,-9,-5,-4,2021-08-07 12:56:32,297858
1,1,0,7,14,7,1,1,2021-08-07 12:56:32,297858
0,-2,-1,11,6,4,0,0,2021-08-07 12:56:32,298851
2,4,4,0,-2,0,2,1,2021-08-07 12:56:32,298851
2,3,2,9,1,1,2,4,2021-08-07 12:56:32,298851
-1,-1,0,-2,4,3,1,1,2021-08-07 12:56:32,298851
0,-2,2,5,3,2,-1,0,2021-08-07 12:56:32,298851
-1,-1,-2,-7,-5,-3,-1,0,2021-08-07 12:56:32,298851
1,0,-6,-10,-5,-3,-2,0,2021-08-07 12:56:32,328887
-1,-3,-2,-5,-6,-3,-1,0,2021-08-07 12:56:32,328887
-1,-3,2,1,8,3,2,1,2021-08-07 12:56:32,328887
2,1,1,1,1,1,-1,0,2021-08-07 12:56:32,328887
0,0,-4,-1,0,1,2,-1,2021-08-07 12:56:32,344851
-5,-4,-5,-8,-11,-6,-6,-3,2021-08-07 12:56:32,345066
3,3,0,5,6,4,3,1,2021-08-07 12:56:32,345066
-3,-3,1,5,-3,-4,-5,-4,2021-08-07 12:56:32,345066
1,6,10,21,20,9,5,2,2021-08-07 12:56:32,360877
0,0,-3,-4,-2,-1,0,1,2021-08-07 12:56:32,376848
2,2,-3,-7,-1,2,4,0,2021-08-07 12:56:32,376848
-6,-9,-12,-26,-26,-12,-8,-5,2021-08-07 12:56:32,376848
-1,-5,-5,-12,-5,-1,-3,-4,2021-08-07 12:56:32,376848
0,2,2,-1,-2,-2,-2,-2,2021-08-07 12:56:32,376848
1,2,7,16,17,5,3,2,2021-08-07 12:56:32,376848
1,0,0,12,4,1,-1,0,2021-08-07 12:56:32,392847
-1,-1,2,1,1,0,-1,-1,2021-08-07 12:56:32,408887
1,0,0,3,5,2,1,1,2021-08-07 12:56:32,408887
-1,1,-3,-4,-7,-4,-1,-3,2021-08-07 12:56:32,408887
-2,-2,-3,-9,3,2,1,-1,2021-08-07 12:56:32,408887
-3,-3,-1,-3,-15,-11,-6,-3,2021-08-07 12:56:32,424887
2,4,5,10,10,8,4,4,2021-08-07 12:56:32,424887
-3,1,0,1,-3,-2,-2,-1,2021-08-07 12:56:32,424887
-3,-3,-2,-1,-2,-2,-1,-2,2021-08-07 12:56:32,424887
1,1,2,-4,1,3,1,1,2021-08-07 12:56:32,455848
-1,-3,-1,-1,-4,-2,1,-3,2021-08-07 12:56:32,455848
1,-2,-4,-9,0,1,2,2,2021-08-07 12:56:32,455848
2,1,3,12,8,2,3,1,2021-08-07 12:56:32,455848
-5,-2,-5,-4,-7,-6,-2,-2,2021-08-07 12:56:32,455848
-7,-9,-4,-15,-13,-9,-8,-6,2021-08-07 12:56:32,455848
-3,-2,0,3,0,1,-2,-2,2021-08-07 12:56:32,471848
2,4,7,11,17,7,2,0,2021-08-07 12:56:32,471848
-1,-2,-4,-7,-21,-13,-6,-4,2021-08-07 12:56:32,471848
5,5,5,10,21,16,6,5,2021-08-07 12:56:32,471848
-2,-1,1,-2,-1,1,1,0,2021-08-07 12:56:32,471848
-2,-1,-2,-2,4,2,2,0,2021-08-07 12:56:32,471848
0,0,-2,-3,-1,-1,-1,1,2021-08-07 12:56:32,503851
-3,-3,-4,-10,-19,-11,-6,-3,2021-08-07 12:56:32,519876
2,2,3,-2,2,1,0,-2,2021-08-07 12:56:32,519876
-1,-2,-1,0,-2,-1,-1,0,2021-08-07 12:56:32,519876
-2,-3,-3,-5,-6,-2,-1,-2,2021-08-07 12:56:32,519876
0,1,-1,0,2,1,2,-1,2021-08-07 12:56:32,519876
-2,-2,-2,3,2,-3,-2,-1,2021-08-07 12:56:32,519876
-2,-2,0,-1,-5,-3,-3,-2,2021-08-07 12:56:32,519876
2,3,3,8,8,3,3,3,2021-08-07 12:56:32,535847
-1,-2,-3,6,4,0,0,-2,2021-08-07 12:56:32,535847
-1,-4,-7,-14,-6,-3,-4,-3,2021-08-07 12:56:32,535847
-1,-1,-4,-8,-8,-4,-4,-2,2021-08-07 12:56:32,535847
-1,-6,-6,-15,-7,-3,-3,-3,2021-08-07 12:56:32,567877
-1,1,1,1,0,0,0,0,2021-08-07 12:56:32,567877
2,3,7,17,11,5,1,1,2021-08-07 12:56:32,567877
-2,-2,-3,-2,-9,-7,-2,-1,2021-08-07 12:56:32,567877
0,1,-2,-8,-6,-2,-2,1,2021-08-07 12:56:32,583897
-1,-1,-2,0,5,3,1,-1,2021-08-07 12:56:32,599887
-2,-3,-4,-14,-6,-2,-2,-1,2021-08-07 12:56:32,615850
1,0,6,7,1,1,1,0,2021-08-07 12:56:32,630878
1,2,5,9,9,6,2,1,2021-08-07 12:56:32,630878
3,2,1,7,4,0,1,1,2021-08-07 12:56:32,646879
-1,2,-1,0,-4,-6,-3,0,2021-08-07 12:56:32,662881
1,1,0,6,6,5,3,0,2021-08-07 12:56:32,662881
-3,-4,-5,-10,-3,-2,-1,-1,2021-08-07 12:56:32,662881
-3,-3,-2,-11,-14,-10,-6,-2,2021-08-07 12:56:32,662881
-3,-4,-2,0,-1,0,-3,-3,2021-08-07 12:56:32,662881
1,0,0,-3,-4,-2,0,0,2021-08-07 12:56:32,662881
1,1,3,16,15,7,5,1,2021-08-07 12:56:32,662881
-2,-3,-1,-1,0,0,-1,-2,2021-08-07 12:56:32,662881
-2,-1,-2,-8,-11,-6,-2,-3,2021-08-07 12:56:32,662881
-4,-2,-2,-4,-5,-6,-4,-4,2021-08-07 12:56:32,663850
0,1,2,4,4,2,1,0,2021-08-07 12:56:32,663850
0,1,0,2,2,2,0,1,2021-08-07 12:56:32,663850
-1,-1,-3,-2,-3,-2,-3,-3,2021-08-07 12:56:32,663850
1,0,3,3,-2,1,0,0,2021-08-07 12:56:32,663850
-1,-1,-5,-13,-5,-3,-1,0,2021-08-07 12:56:32,678851
-1,0,2,5,-2,1,1,-1,2021-08-07 12:56:32,694889
2,1,1,12,14,9,6,1,2021-08-07 12:56:32,694889
-1,2,-3,-3,4,0,0,0,2021-08-07 12:56:32,694889
2,3,3,1,5,3,2,0,2021-08-07 12:56:32,710852
-2,-3,-2,-10,-18,-12,-7,-3,2021-08-07 12:56:32,726847
-5,-3,-2,-4,-6,-6,-4,-2,2021-08-07 12:56:32,742887
-1,0,-3,-2,5,7,2,1,2021-08-07 12:56:32,742887
-5,-4,-8,-10,-12,-6,-4,-3,2021-08-07 12:56:32,742887
1,1,1,2,3,2,1,0,2021-08-07 12:56:32,742887
3,3,5,10,5,2,2,3,2021-08-07 12:56:32,742887
3,4,3,8,7,3,3,3,2021-08-07 12:56:32,742887
-2,-2,-2,-3,-9,-7,-3,-3,2021-08-07 12:56:32,742887
-2,-2,-3,-4,0,-1,-1,-1,2021-08-07 12:56:32,743856
-1,-1,1,17,19,11,4,-1,2021-08-07 12:56:32,743856
0,0,-2,-9,-9,-7,-3,-1,2021-08-07 12:56:32,743856
0,0,-3,-3,3,5,-1,1,2021-08-07 12:56:32,774847
-2,-4,-3,-9,-9,-8,-4,-3,2021-08-07 12:56:32,774847
-3,-5,-3,7,-9,-6,-2,-2,2021-08-07 12:56:32,774847
-1,-2,-5,-18,-5,-2,-1,0,2021-08-07 12:56:32,774847
-2,-1,1,0,-3,-4,-2,-3,2021-08-07 12:56:32,774847
1,4,11,0,-2,0,1,2,2021-08-07 12:56:32,774847
2,3,-7,3,16,6,1,1,2021-08-07 12:56:32,775851
-3,-3,-1,8,0,0,-2,-3,2021-08-07 12:56:32,775851
1,-2,-1,6,0,1,0,0,2021-08-07 12:56:32,805885
1,1,-4,-5,4,6,3,0,2021-08-07 12:56:32,821853
-3,-4,-1,-14,-22,-13,-8,-5,2021-08-07 12:56:32,837885
0,2,1,7,0,2,2,2,2021-08-07 12:56:32,853885
0,3,3,1,12,5,1,1,2021-08-07 12:56:32,869875
-2,-4,-4,-3,-9,-7,-6,-4,2021-08-07 12:56:32,869875
-2,0,4,3,6,3,2,1,2021-08-07 12:56:32,869875
0,-3,-7,-8,-14,-9,-3,-1,2021-08-07 12:56:32,869875
1,2,-1,1,4,3,2,2,2021-08-07 12:56:32,869875
0,-1,-1,6,10,3,1,0,2021-08-07 12:56:32,884875
-1,-1,0,-1,-5,-2,-2,0,2021-08-07 12:56:32,884875
-1,-2,0,4,0,-2,-3,-2,2021-08-07 12:56:32,884875
-2,-2,-3,-9,-5,-1,-2,-2,2021-08-07 12:56:32,900876
-1,-2,-3,4,-5,-4,-1,-2,2021-08-07 12:56:32,900876
-5,-5,-9,-34,-16,-6,-4,-3,2021-08-07 12:56:32,900876
0,-1,5,6,3,0,-2,-2,2021-08-07 12:56:32,900876
0,2,7,17,8,2,1,1,2021-08-07 12:56:32,900876
-3,-1,-1,2,2,-1,-2,-3,2021-08-07 12:56:32,900876
5,5,6,9,4,1,4,5,2021-08-07 12:56:32,900876
-2,-1,-4,-8,-7,-1,-1,-1,2021-08-07 12:56:32,900876
-2,-3,-2,2,1,1,-2,-1,2021-08-07 12:56:32,900876
1,-1,1,2,5,3,-1,-1,2021-08-07 12:56:32,901876
-2,-1,-3,-2,-8,-5,-4,-2,2021-08-07 12:56:32,901876
1,-1,-1,-5,0,1,2,0,2021-08-07 12:56:32,901876
0,-1,0,-2,-6,-6,-2,0,2021-08-07 12:56:32,932888
1,3,4,12,16,10,4,3,2021-08-07 12:56:32,932888
-2,-1,-3,-10,5,3,0,-2,2021-08-07 12:56:32,932888
-3,-5,-5,-9,-8,-6,-4,-2,2021-08-07 12:56:32,932888
-1,-2,-2,-3,-3,-2,-2,-2,2021-08-07 12:56:32,950897
0,0,-2,-2,-8,-4,-2,-2,2021-08-07 12:56:32,950897
0,-1,-4,-6,-8,-5,-2,-3,2021-08-07 12:56:32,950897
0,2,3,9,10,2,1,0,2021-08-07 12:56:32,950897
-1,-2,4,5,-1,0,0,-1,2021-08-07 12:56:32,979849
-3,-3,-9,-20,-11,-6,-4,-2,2021-08-07 12:56:32,995851
-1,-2,1,2,0,-2,-2,-1,2021-08-07 12:56:32,995851
2,1,3,11,9,7,2,1,2021-08-07 12:56:32,995851
0,2,-2,8,9,3,2,1,2021-08-07 12:56:32,995851
-1,0,0,-4,-8,-4,-4,-1,2021-08-07 12:56:32,995851
-1,1,4,4,8,4,2,0,2021-08-07 12:56:32,995851
1,0,-1,0,4,2,0,-1,2021-08-07 12:56:32,995851
0,0,1,1,-5,-2,-2,-2,2021-08-07 12:56:33,011859
-1,-2,-1,7,7,3,2,2,2021-08-07 12:56:33,011859
-4,-4,-7,-14,-14,-10,-5,-2,2021-08-07 12:56:33,011859
-3,-2,-2,-2,-2,-2,-2,-1,2021-08-07 12:56:33,011859
-1,0,1,3,0,-2,-1,0,2021-08-07 12:56:33,011859
1,5,7,10,5,1,3,2,2021-08-07 12:56:33,011859
0,-1,-2,3,10,6,4,1,2021-08-07 12:56:33,011859
-5,-6,-9,-23,-16,-8,-4,-5,2021-08-07 12:56:33,011859
-5,-4,-6,-21,-17,-7,-7,-5,2021-08-07 12:56:33,043854
0,-1,-2,2,3,0,-1,-2,2021-08-07 12:56:33,059851
1,1,5,9,0,0,1,3,2021-08-07 12:56:33,075893
2,1,3,9,9,6,3,1,2021-08-07 12:56:33,075893
-1,-2,-3,-8,-2,-2,0,0,2021-08-07 12:56:33,075893
1,0,2,5,8,3,1,1,2021-08-07 12:56:33,075893
0,2,1,-1,-4,-1,-1,-1,2021-08-07 12:56:33,075893
-4,-3,-6,-13,-9,-5,-4,-2,2021-08-07 12:56:33,075893
-1,0,1,2,-8,-6,-4,-1,2021-08-07 12:56:33,076848
-2,-1,0,-2,5,5,3,1,2021-08-07 12:56:33,076848
-1,-3,-1,-1,-1,-3,-2,0,2021-08-07 12:56:33,091848
-1,-2,0,7,-3,-3,-1,-1,2021-08-07 12:56:33,091848
0,-1,-2,0,11,6,1,-2,2021-08-07 12:56:33,107888
-1,2,-1,-2,-7,-4,-1,2,2021-08-07 12:56:33,123888
-4,-3,-5,-3,0,0,-1,-4,2021-08-07 12:56:33,123888
0,1,3,5,-4,-2,-1,1,2021-08-07 12:56:33,123888
1,1,2,5,-1,-1,1,2,2021-08-07 12:56:33,123888
1,2,-2,-6,2,2,4,1,2021-08-07 12:56:33,123888
-1,-3,-4,-1,5,6,2,0,2021-08-07 12:56:33,123888
-4,-3,-2,-13,-7,-5,-4,-4,2021-08-07 12:56:33,123888
-2,-1,2,0,-5,-3,-1,0,2021-08-07 12:56:33,139852
1,0,-5,2,-4,-2,-2,-1,2021-08-07 12:56:33,139852
0,1,4,5,-4,-4,-3,0,2021-08-07 12:56:33,139852
9,10,9,26,29,15,10,7,2021-08-07 12:56:33,139852
0,0,-3,-8,-6,-1,-2,1,2021-08-07 12:56:33,171851
-5,-6,-5,-15,-14,-10,-8,-6,2021-08-07 12:56:33,187899
-6,-7,-8,-21,-20,-10,-5,-5,2021-08-07 12:56:33,187899
-2,-1,2,7,5,2,-1,0,2021-08-07 12:56:33,187899
1,2,2,10,6,4,4,1,2021-08-07 12:56:33,187899
-1,-1,-1,3,8,6,2,-1,2021-08-07 12:56:33,187899
2,0,-3,-5,-10,-8,-4,0,2021-08-07 12:56:33,187899
0,0,3,-2,4,2,1,1,2021-08-07 12:56:33,187899
0,0,0,4,2,-4,0,-1,2021-08-07 12:56:33,203887
-3,-4,-3,-2,-3,0,-1,-2,2021-08-07 12:56:33,219851
-1,-2,-1,-2,-11,-5,-4,-3,2021-08-07 12:56:33,234898
3,5,6,8,7,6,5,4,2021-08-07 12:56:33,250848
-1,-1,-1,-8,-1,3,1,-2,2021-08-07 12:56:33,281852
-1,0,0,-2,3,1,0,1,2021-08-07 12:56:33,281852
-2,0,0,6,4,1,0,-1,2021-08-07 12:56:33,281852
-2,-5,-8,-9,-12,-8,-7,-2,2021-08-07 12:56:33,281852
-3,-4,-5,-9,-3,-2,-2,-4,2021-08-07 12:56:33,281852
0,-1,0,-7,-7,-2,-1,1,2021-08-07 12:56:33,281852
-1,-2,-1,1,2,0,-1,0,2021-08-07 12:56:33,281852
-6,-4,-8,-14,-19,-14,-7,-5,2021-08-07 12:56:33,282850
5,6,5,16,19,11,7,4,2021-08-07 12:56:33,282850
-1,1,4,7,3,0,1,-1,2021-08-07 12:56:33,282850
2,1,4,15,17,9,4,1,2021-08-07 12:56:33,282850
2,1,-4,-7,-3,1,2,1,2021-08-07 12:56:33,282850
-3,-7,-9,-15,-10,-7,-6,-3,2021-08-07 12:56:33,282850
0,0,1,-6,-10,-6,-2,-1,2021-08-07 12:56:33,283850
-1,-2,-7,-1,2,2,1,1,2021-08-07 12:56:33,283850
-2,-1,2,-1,-5,-5,-3,-4,2021-08-07 12:56:33,283850
2,4,3,9,1,-2,-1,0,2021-08-07 12:56:33,312896
-2,-1,-3,2,-8,-3,-2,-3,2021-08-07 12:56:33,312896
0,0,-1,3,12,5,2,0,2021-08-07 12:56:33,312896
1,-1,-3,-1,18,10,5,1,2021-08-07 12:56:33,312896
-3,-5,-6,-6,-5,-2,-2,-2,2021-08-07 12:56:33,312896
-2,-2,0,-1,-3,-6,-5,-4,2021-08-07 12:56:33,312896
-1,1,5,4,0,-2,-1,-3,2021-08-07 12:56:33,328850
-2,-2,1,2,-7,-5,-5,-2,2021-08-07 12:56:33,328850
1,1,3,4,0,0,0,0,2021-08-07 12:56:33,344887
1,3,0,6,11,5,3,2,2021-08-07 12:56:33,360901
-2,-4,-7,-18,-17,-7,-5,-1,2021-08-07 12:56:33,376851
1,0,1,2,7,3,0,0,2021-08-07 12:56:33,376851
-5,-6,-4,-25,-27,-14,-8,-4,2021-08-07 12:56:33,376851
1,-4,-8,8,18,11,5,1,2021-08-07 12:56:33,376851
1,-1,5,-9,-11,-5,-3,-3,2021-08-07 12:56:33,376851
2,3,-2,10,8,4,1,1,2021-08-07 12:56:33,376851
1,3,4,14,9,4,2,1,2021-08-07 12:56:33,380886
-2,-3,-2,-6,-7,-5,-3,-2,2021-08-07 12:56:33,380886
