EMG 1,EMG 2,EMG 3,EMG 4,EMG 5,EMG 6,EMG 7,EMG 8,Timestamp,Milliseconds
-2,3,2,5,2,2,-1,-2,2021-08-07 12:56:36,598280
-3,-3,-5,-14,-20,-14,-8,-4,2021-08-07 12:56:36,614281
-4,-6,-9,-16,-20,-11,-7,-3,2021-08-07 12:56:36,630280
2,6,9,21,31,20,8,4,2021-08-07 12:56:36,630280
0,3,2,4,6,2,1,1,2021-08-07 12:56:36,630280
-5,-6,-8,-8,-10,-13,-8,-5,2021-08-07 12:56:36,630280
-2,-3,-3,-12,-21,-12,-5,-3,2021-08-07 12:56:36,630280
-3,-4,-4,-2,-2,0,-4,-2,2021-08-07 12:56:36,631280
2,3,4,8,14,9,6,5,2021-08-07 12:56:36,631280
2,2,2,0,-2,2,1,2,2021-08-07 12:56:36,631280
-1,0,0,3,-4,-3,-1,-2,2021-08-07 12:56:36,631280
-1,-3,-3,-6,-3,-2,-2,-2,2021-08-07 12:56:36,631280
-4,-5,-4,-6,1,0,-2,-5,2021-08-07 12:56:36,631280
5,5,7,10,11,7,5,3,2021-08-07 12:56:36,632280
4,7,6,6,9,6,4,2,2021-08-07 12:56:36,632280
-3,-3,-2,1,-3,-4,-2,-2,2021-08-07 12:56:36,632280
-5,-7,-11,-17,-22,-13,-9,-4,2021-08-07 12:56:36,632280
-1,-4,-4,-9,-18,-10,-4,-3,2021-08-07 12:56:36,632280
0,1,4,13,27,18,6,3,2021-08-07 12:56:36,662280
0,0,-1,0,7,2,0,-1,2021-08-07 12:56:36,662280
0,-1,-1,-3,-7,-4,-2,0,2021-08-07 12:56:36,662280
2,4,4,17,31,19,8,4,2021-08-07 12:56:36,662280
-2,-2,-2,-1,-6,-5,-3,-1,2021-08-07 12:56:36,678279
-5,-5,-5,-15,-24,-15,-8,-4,2021-08-07 12:56:36,678279
-2,-2,-3,-3,-5,-3,-2,-2,2021-08-07 12:56:36,741279
-2,0,-1,-2,-2,-1,-3,-1,2021-08-07 12:56:36,755278
-2,-1,-2,-5,-5,-1,-2,-2,2021-08-07 12:56:36,755278
-1,0,-1,-1,1,2,-1,-1,2021-08-07 12:56:36,755278
-2,-3,-3,-1,2,-1,1,0,2021-08-07 12:56:36,755278
2,0,4,1,1,-1,0,2,2021-08-07 12:56:36,755278
4,6,5,7,7,4,4,1,2021-08-07 12:56:36,755278
-1,-3,-4,-1,-4,-2,1,-1,2021-08-07 12:56:36,756280
-1,-1,-2,-1,2,5,2,0,2021-08-07 12:56:36,756280
-1,0,-1,0,-2,0,-1,-1,2021-08-07 12:56:36,756280
-2,0,-1,-3,-5,-5,-1,-2,2021-08-07 12:56:36,756280
0,1,1,1,5,3,1,0,2021-08-07 12:56:36,756280
2,2,2,4,8,5,1,-1,2021-08-07 12:56:36,756280
-3,-4,-4,0,1,1,-1,-2,2021-08-07 12:56:36,756280
-1,-2,-3,-2,3,2,0,-1,2021-08-07 12:56:36,757280
0,-2,-3,-4,-6,-5,-3,-1,2021-08-07 12:56:36,757280
-2,-4,-3,-12,-21,-12,-6,-2,2021-08-07 12:56:36,788278
2,2,0,2,3,1,0,-1,2021-08-07 12:56:36,804281
2,1,1,6,10,6,1,0,2021-08-07 12:56:36,820280
-2,-4,-3,-3,-3,-3,-2,-2,2021-08-07 12:56:36,820280
2,4,6,8,11,6,5,3,2021-08-07 12:56:36,820280
-5,-6,-7,-11,-17,-10,-7,-5,2021-08-07 12:56:36,820280
-2,-4,-2,-1,-4,-2,-1,0,2021-08-07 12:56:36,820280
-1,-1,-1,-6,-9,-2,-2,-3,2021-08-07 12:56:36,820280
2,4,4,8,13,7,3,1,2021-08-07 12:56:36,821280
-2,-2,-3,-5,-10,-6,-4,-3,2021-08-07 12:56:36,821280
1,1,2,6,13,7,3,2,2021-08-07 12:56:36,821280
-1,0,-1,-1,1,-2,-3,0,2021-08-07 12:56:36,821280
-1,-1,-4,-4,-7,-6,-3,-1,2021-08-07 12:56:36,836279
-1,-2,-1,-1,2,1,2,0,2021-08-07 12:56:36,836279
-2,-2,-5,-7,-14,-10,-7,-2,2021-08-07 12:56:36,852281
1,2,4,5,4,4,5,2,2021-08-07 12:56:36,868280
-1,-2,-1,6,11,4,0,-1,2021-08-07 12:56:36,868280
2,2,2,3,4,1,1,2,2021-08-07 12:56:36,868280
-2,-2,-3,-9,-11,-6,-3,-2,2021-08-07 12:56:36,868280
1,1,1,3,2,0,0,1,2021-08-07 12:56:36,868280
-4,-6,-5,-13,-17,-10,-5,-4,2021-08-07 12:56:36,868280
2,0,2,7,12,4,3,0,2021-08-07 12:56:36,868280
0,1,2,2,2,0,0,0,2021-08-07 12:56:36,900281
0,1,-1,-2,1,2,2,0,2021-08-07 12:56:36,900281
-1,-3,-2,-4,-7,-4,-2,-1,2021-08-07 12:56:36,900281
-2,-3,-2,-4,-3,-2,-3,1,2021-08-07 12:56:36,900281
-2,-5,-6,-10,-7,-6,-3,-5,2021-08-07 12:56:36,916280
1,3,4,7,7,5,2,0,2021-08-07 12:56:36,916280
2,4,4,2,1,-2,-1,1,2021-08-07 12:56:36,932280
-1,-3,-3,-1,-1,-2,-1,-2,2021-08-07 12:56:36,932280
-2,-1,-1,1,1,1,-3,0,2021-08-07 12:56:36,932280
0,-2,-2,-1,1,1,0,-2,2021-08-07 12:56:36,932280
-1,-1,-2,-1,-3,-1,0,-1,2021-08-07 12:56:36,932280
-1,1,-2,-4,-1,-2,-3,0,2021-08-07 12:56:36,932280
-3,-6,-4,-3,-2,-3,-2,-4,2021-08-07 12:56:36,948280
1,3,3,4,-1,0,2,2,2021-08-07 12:56:36,948280
2,3,4,3,6,4,3,3,2021-08-07 12:56:36,964280
-2,-4,-1,4,10,6,1,-1,2021-08-07 12:56:36,964280
0,-2,-2,1,-1,-1,-1,0,2021-08-07 12:56:36,964280
0,-1,0,-3,-6,-2,-1,-2,2021-08-07 12:56:36,964280
-1,-3,-4,-4,-12,-8,-6,-2,2021-08-07 12:56:36,980279
0,0,-1,-7,-10,-3,-1,0,2021-08-07 12:56:36,996321
-1,-3,1,6,11,4,2,1,2021-08-07 12:56:36,996321
-1,-2,-3,-5,-6,-6,-4,-1,2021-08-07 12:56:36,996321
0,0,-1,-3,0,2,1,0,2021-08-07 12:56:36,996321
-4,-5,-5,-8,-8,-4,-4,-4,2021-08-07 12:56:36,996321
4,7,7,7,6,5,5,3,2021-08-07 12:56:37,012279
-2,-1,-1,4,8,1,1,-1,2021-08-07 12:56:37,012279
-2,-2,-1,-2,1,-1,-4,-4,2021-08-07 12:56:37,012279
0,-1,-2,-1,-4,-4,-2,-1,2021-08-07 12:56:37,012279
-1,-2,-1,-2,-3,-1,-1,-1,2021-08-07 12:56:37,043282
-1,-3,-3,-3,-2,-3,-2,-1,2021-08-07 12:56:37,059279
-3,-3,-1,-2,-2,-1,-3,-2,2021-08-07 12:56:37,059279
0,1,3,2,4,4,3,0,2021-08-07 12:56:37,059279
-1,-1,-2,-3,-6,-3,-3,0,2021-08-07 12:56:37,059279
0,-1,-1,-4,-7,-5,-2,0,2021-08-07 12:56:37,059279
1,2,1,7,10,9,3,2,2021-08-07 12:56:37,059279
0,0,0,3,2,-1,-2,0,2021-08-07 12:56:37,059279
-3,-3,-5,-8,-9,-5,-3,-2,2021-08-07 12:56:37,060280
-3,0,1,0,-4,-1,-3,-2,2021-08-07 12:56:37,060280
2,-1,1,5,0,-1,0,0,2021-08-07 12:56:37,075280
-1,-2,-1,3,9,5,5,0,2021-08-07 12:56:37,075280
0,1,0,-1,-1,0,1,1,2021-08-07 12:56:37,107281
-1,-3,0,-4,-4,-2,-2,-2,2021-08-07 12:56:37,107281
-1,-1,-1,-3,-6,-4,-1,-3,2021-08-07 12:56:37,123281
0,0,0,-2,-1,0,-2,-1,2021-08-07 12:56:37,123281
2,0,2,-2,-2,-2,-1,-1,2021-08-07 12:56:37,123281
-1,0,-1,-2,2,0,0,-1,2021-08-07 12:56:37,123281
-4,-3,-4,-13,-22,-11,-5,-4,2021-08-07 12:56:37,123281
1,3,4,14,26,15,6,3,2021-08-07 12:56:37,123281
-1,0,-1,6,7,4,2,0,2021-08-07 12:56:37,123281
4,7,7,9,16,11,5,3,2021-08-07 12:56:37,124280
-2,-3,-3,-3,-3,-3,-1,-1,2021-08-07 12:56:37,139279
-4,-6,-7,-17,-27,-17,-9,-4,2021-08-07 12:56:37,139279
-2,-4,-4,-10,-11,-5,-4,-2,2021-08-07 12:56:37,154313
0,0,2,7,7,4,1,1,2021-08-07 12:56:37,169312
2,1,1,3,7,4,1,0,2021-08-07 12:56:37,180312
-2,-2,-3,-8,-15,-8,-5,-3,2021-08-07 12:56:37,180312
-1,0,-1,1,1,0,-1,-2,2021-08-07 12:56:37,180312
1,3,1,2,6,4,2,2,2021-08-07 12:56:37,180312
2,3,3,10,14,7,5,2,2021-08-07 12:56:37,181313
2,1,2,4,5,4,3,0,2021-08-07 12:56:37,181313
-1,-4,-7,-7,-10,-7,-2,-3,2021-08-07 12:56:37,181313
-5,-8,-7,-13,-14,-9,-6,-4,2021-08-07 12:56:37,181313
-1,-1,1,3,4,3,0,-2,2021-08-07 12:56:37,201314
-5,-3,-2,-12,-23,-15,-6,-5,2021-08-07 12:56:37,201314
1,4,8,19,28,15,6,4,2021-08-07 12:56:37,216313
1,1,-1,3,9,4,2,-1,2021-08-07 12:56:37,232313
1,-1,-2,-4,0,0,0,1,2021-08-07 12:56:37,248312
0,0,-3,-5,-8,-3,-2,-1,2021-08-07 12:56:37,248312
-1,-1,1,-4,-7,-4,-2,0,2021-08-07 12:56:37,248312
-1,0,-2,-5,-8,-7,-3,-1,2021-08-07 12:56:37,248312
0,-1,0,2,8,5,2,1,2021-08-07 12:56:37,248312
0,0,0,-2,-5,-4,-2,0,2021-08-07 12:56:37,248312
-1,-1,-1,-3,-4,-1,-1,-2,2021-08-07 12:56:37,249315
0,-1,-1,0,1,2,2,0,2021-08-07 12:56:37,249315
-2,-2,-1,-1,-3,-4,-2,-1,2021-08-07 12:56:37,249315
2,0,1,4,7,2,1,-1,2021-08-07 12:56:37,249315
-1,-3,-3,-2,-5,-3,-3,-2,2021-08-07 12:56:37,295313
0,-1,-1,-1,-2,-1,-1,1,2021-08-07 12:56:37,311313
-1,-1,-2,-2,-3,-2,-1,-2,2021-08-07 12:56:37,311313
0,2,0,4,8,4,3,2,2021-08-07 12:56:37,311313
-2,-2,-1,-3,0,-1,-1,-1,2021-08-07 12:56:37,311313
-4,-3,-4,-5,-7,-5,-3,-4,2021-08-07 12:56:37,311313
-4,0,0,0,0,0,-1,-1,2021-08-07 12:56:37,311313
-1,-3,-4,-8,-16,-11,-6,-3,2021-08-07 12:56:37,312314
0,2,-1,0,9,10,5,2,2021-08-07 12:56:37,312314
-1,-3,0,5,4,0,-1,-2,2021-08-07 12:56:37,312314
-1,-1,-2,-1,0,-1,-2,-2,2021-08-07 12:56:37,327314
0,1,3,5,8,4,1,0,2021-08-07 12:56:37,342314
-4,-2,-4,-7,-15,-10,-5,-4,2021-08-07 12:56:37,358312
0,-1,-1,-2,-3,-1,-2,-1,2021-08-07 12:56:37,358312
-5,-8,-9,-6,-3,-4,-2,-4,2021-08-07 12:56:37,358312
4,6,6,0,-1,1,2,3,2021-08-07 12:56:37,358312
4,5,5,8,10,6,3,2,2021-08-07 12:56:37,358312
0,1,0,-2,-1,-1,0,1,2021-08-07 12:56:37,358312
-2,-4,-3,-1,-3,-5,-5,-3,2021-08-07 12:56:37,359316
-4,-5,-7,0,3,1,0,-1,2021-08-07 12:56:37,359316
0,0,0,-3,-3,-3,-1,-2,2021-08-07 12:56:37,374314
2,4,4,3,5,3,3,1,2021-08-07 12:56:37,374314
0,-3,-3,-5,-10,-6,-3,-2,2021-08-07 12:56:37,374314
-1,0,0,1,2,1,1,-3,2021-08-07 12:56:37,374314
-2,-3,-3,0,-3,-3,-3,-2,2021-08-07 12:56:37,389314
-3,-7,-6,-9,-12,-7,-5,-4,2021-08-07 12:56:37,405314
3,5,7,10,22,15,7,4,2021-08-07 12:56:37,421312
0,2,1,-1,1,-1,1,0,2021-08-07 12:56:37,421312
0,1,1,2,-1,-1,-1,0,2021-08-07 12:56:37,421312
-2,-4,-6,-9,-13,-10,-6,-2,2021-08-07 12:56:37,421312
0,1,1,1,3,2,1,0,2021-08-07 12:56:37,421312
-1,-2,-2,3,7,3,0,-1,2021-08-07 12:56:37,422313
0,-2,-4,-7,-11,-7,-2,0,2021-08-07 12:56:37,422313
-2,-2,0,5,3,1,-1,-2,2021-08-07 12:56:37,422313
-1,-2,0,2,2,0,0,-1,2021-08-07 12:56:37,437314
1,0,-1,0,-1,1,1,1,2021-08-07 12:56:37,437314
0,-1,-2,-1,-4,-1,-3,-2,2021-08-07 12:56:37,453314
3,5,4,6,6,3,1,2,2021-08-07 12:56:37,469312
-2,-2,-4,-7,-11,-7,-4,-3,2021-08-07 12:56:37,469312
-4,-4,-4,-1,0,-3,-3,-3,2021-08-07 12:56:37,469312
1,0,2,4,3,0,1,0,2021-08-07 12:56:37,469312
0,-1,0,5,6,2,3,0,2021-08-07 12:56:37,469312
1,0,1,-2,-2,0,-1,-1,2021-08-07 12:56:37,469312
0,-1,-1,-1,-1,0,0,-2,2021-08-07 12:56:37,470314
-1,-2,0,0,1,1,0,1,2021-08-07 12:56:37,485314
-4,-3,-3,-4,-5,-3,-5,-4,2021-08-07 12:56:37,485314
-2,-4,-4,-9,-15,-10,-4,-1,2021-08-07 12:56:37,500312
1,1,2,4,8,5,4,2,2021-08-07 12:56:37,500312
0,-1,-1,2,6,2,1,-1,2021-08-07 12:56:37,516312
0,-1,-1,0,0,1,0,-1,2021-08-07 12:56:37,516312
-3,-2,-5,-5,-8,-7,-4,-2,2021-08-07 12:56:37,516312
0,-2,-2,-4,-4,-3,-3,-1,2021-08-07 12:56:37,516312
4,2,5,5,10,4,1,4,2021-08-07 12:56:37,532314
1,2,0,-2,0,1,0,2,2021-08-07 12:56:37,532314
2,1,2,5,12,5,2,2,2021-08-07 12:56:37,532314
-2,-1,-4,-1,-4,-2,-1,-2,2021-08-07 12:56:37,532314
-4,-3,-3,-1,0,-3,-4,-3,2021-08-07 12:56:37,563823
1,1,1,-2,-5,-3,1,1,2021-08-07 12:56:37,563823
0,0,1,2,-1,-2,-1,-1,2021-08-07 12:56:37,563823
-1,-2,-1,0,0,-1,0,0,2021-08-07 12:56:37,563823
2,2,0,0,-1,1,2,0,2021-08-07 12:56:37,579823
-3,-3,-2,-4,-3,-3,0,-3,2021-08-07 12:56:37,579823
-1,0,0,-1,1,-1,0,-1,2021-08-07 12:56:37,579823
-1,-1,0,0,-1,2,0,0,2021-08-07 12:56:37,579823
-2,0,-2,-4,-7,-3,-2,-3,2021-08-07 12:56:37,595824
1,0,0,-1,1,1,2,-1,2021-08-07 12:56:37,595824
0,-1,0,-1,-1,-2,0,-1,2021-08-07 12:56:37,595824
0,-2,-1,-2,1,0,-1,-1,2021-08-07 12:56:37,595824
-1,-2,-2,-3,-2,-1,0,-1,2021-08-07 12:56:37,606825
-1,-2,-1,1,2,0,-1,-2,2021-08-07 12:56:37,607825
0,-1,-1,-2,-3,-1,0,-1,2021-08-07 12:56:37,627824
-1,-1,0,-1,0,-2,-2,-1,2021-08-07 12:56:37,627824
0,-1,0,-4,-3,-2,-1,-2,2021-08-07 12:56:37,627824
-2,-1,-2,1,1,0,0,-1,2021-08-07 12:56:37,627824
0,0,1,4,5,1,1,0,2021-08-07 12:56:37,643825
0,-1,-1,-1,-4,2,1,0,2021-08-07 12:56:37,643825
1,-1,-1,-2,-8,-5,-3,-1,2021-08-07 12:56:37,659824
1,-2,-1,-4,2,4,1,0,2021-08-07 12:56:37,675824
1,2,3,7,11,6,5,1,2021-08-07 12:56:37,691824
0,-2,0,-1,1,0,0,-2,2021-08-07 12:56:37,691824
-1,-2,0,0,0,-2,-2,-2,2021-08-07 12:56:37,691824
-3,-2,-5,-6,-11,-5,-2,-2,2021-08-07 12:56:37,691824
0,1,-1,1,-2,-2,0,0,2021-08-07 12:56:37,691824
0,-2,1,-1,2,1,-2,0,2021-08-07 12:56:37,691824
-1,-1,-2,-1,-1,-1,-1,-3,2021-08-07 12:56:37,691824
-1,0,1,0,2,0,-1,-1,2021-08-07 12:56:37,692826
-2,-2,-2,-4,-4,-1,-4,-1,2021-08-07 12:56:37,692826
0,1,-2,-1,-4,-4,0,0,2021-08-07 12:56:37,692826
-3,-1,-4,-1,3,2,1,1,2021-08-07 12:56:37,722824
1,0,3,3,5,1,1,-1,2021-08-07 12:56:37,722824
-2,-2,-3,-8,-7,-2,-3,-2,2021-08-07 12:56:37,722824
1,2,3,6,9,6,3,2,2021-08-07 12:56:37,722824
-2,-3,-2,-7,-6,-4,-2,0,2021-08-07 12:56:37,738825
0,1,-1,1,2,0,1,0,2021-08-07 12:56:37,754825
-2,-1,-1,-2,-4,-2,-2,0,2021-08-07 12:56:37,754825
-1,-1,-2,-4,-4,-3,-3,-1,2021-08-07 12:56:37,770826
0,-2,-1,0,6,3,1,0,2021-08-07 12:56:37,770826
1,0,-1,0,-2,-1,0,1,2021-08-07 12:56:37,770826
-1,-1,-2,-4,-5,-4,-2,-3,2021-08-07 12:56:37,770826
0,2,1,3,3,2,1,2,2021-08-07 12:56:37,770826
-1,-2,0,2,1,2,1,-1,2021-08-07 12:56:37,770826
-1,-3,-3,-7,-12,-7,-3,-2,2021-08-07 12:56:37,770826
-2,-2,-2,-3,-6,-4,-1,-1,2021-08-07 12:56:37,786824
-1,0,-2,-2,5,2,1,0,2021-08-07 12:56:37,786824
-1,-2,0,4,4,-2,-2,0,2021-08-07 12:56:37,802824
-3,-1,-2,2,3,2,0,1,2021-08-07 12:56:37,802824
-1,-2,-2,-2,-4,-4,-3,-2,2021-08-07 12:56:37,802824
1,-3,-2,-1,-5,-5,-2,-3,2021-08-07 12:56:37,818824
0,-1,-3,-5,-6,-1,-2,-2,2021-08-07 12:56:37,818824
1,1,2,0,-7,-6,-4,-1,2021-08-07 12:56:37,818824
3,5,3,12,17,12,6,3,2021-08-07 12:56:37,818824
0,2,1,-1,5,4,1,0,2021-08-07 12:56:37,818824
-2,-3,-3,0,1,-2,-2,-2,2021-08-07 12:56:37,833823
-1,-1,-2,-4,-3,-2,-1,-1,2021-08-07 12:56:37,833823
-1,0,2,0,-1,-1,-1,1,2021-08-07 12:56:37,833823
0,0,2,0,-1,-3,-1,-1,2021-08-07 12:56:37,833823
1,0,0,-1,-3,-3,-1,1,2021-08-07 12:56:37,865822
0,-3,-3,-1,3,2,1,-1,2021-08-07 12:56:37,881824
0,0,1,2,4,0,0,-1,2021-08-07 12:56:37,897822
-1,-1,-3,0,-3,-2,0,-1,2021-08-07 12:56:37,897822
-3,-2,-3,-2,-6,-6,-5,-3,2021-08-07 12:56:37,897822
-1,-2,-2,-5,-8,-5,-3,-1,2021-08-07 12:56:37,897822
0,3,2,6,12,8,1,0,2021-08-07 12:56:37,897822
0,0,1,-1,-1,-3,0,-1,2021-08-07 12:56:37,913826
2,1,3,0,0,1,1,2,2021-08-07 12:56:37,929824
-3,-5,-4,-2,0,0,-1,-4,2021-08-07 12:56:37,945826
-2,-3,-3,-12,-18,-10,-6,-2,2021-08-07 12:56:37,945826
-2,-1,-1,2,0,1,-1,-2,2021-08-07 12:56:37,945826
0,-1,-1,2,4,3,0,0,2021-08-07 12:56:37,945826
1,4,1,6,7,1,2,2,2021-08-07 12:56:37,945826
-1,-2,-4,-5,-6,-4,-1,-2,2021-08-07 12:56:37,946826
-2,-4,-2,-1,-4,-1,-1,-1,2021-08-07 12:56:37,946826
-3,-3,-1,-2,2,-2,-1,-3,2021-08-07 12:56:37,946826
-1,0,3,5,10,6,0,-1,2021-08-07 12:56:37,946826
-1,-1,0,-2,-3,-3,-1,-1,2021-08-07 12:56:37,946826
-2,-3,-4,-9,-15,-9,-7,-2,2021-08-07 12:56:37,946826
2,5,5,7,8,4,2,2,2021-08-07 12:56:37,947824
-3,-3,-5,-2,-2,0,-1,-1,2021-08-07 12:56:37,947824
0,-3,-6,-5,-4,-4,-1,-1,2021-08-07 12:56:37,961823
4,3,2,-2,-3,2,2,3,2021-08-07 12:56:37,961823
2,2,3,8,6,3,4,4,2021-08-07 12:56:37,977823
1,0,0,-1,4,3,1,1,2021-08-07 12:56:37,993824
-3,-2,-2,-4,-8,-8,-4,-3,2021-08-07 12:56:37,993824
0,1,0,3,10,7,2,0,2021-08-07 12:56:37,993824
-1,-3,-3,-2,-2,-1,-2,-2,2021-08-07 12:56:37,993824
-1,-3,-2,0,-3,-3,-3,-2,2021-08-07 12:56:37,993824
-1,2,3,1,-2,0,-1,1,2021-08-07 12:56:37,993824
-1,-2,-1,1,-2,-3,-1,-2,2021-08-07 12:56:37,993824
0,0,0,-3,-5,-3,0,1,2021-08-07 12:56:38,024823
-2,-2,0,1,7,8,1,-1,2021-08-07 12:56:38,024823
0,1,1,4,7,3,0,0,2021-08-07 12:56:38,024823
0,4,3,0,-2,-1,0,0,2021-08-07 12:56:38,024823
-2,-2,-2,-5,-4,-1,-1,-2,2021-08-07 12:56:38,039825
-4,-5,-5,-4,-9,-7,-3,-4,2021-08-07 12:56:38,039825
0,-3,-4,-5,-10,-2,-2,-2,2021-08-07 12:56:38,039825
3,2,3,5,7,4,1,1,2021-08-07 12:56:38,039825
-2,-1,-2,-3,-6,-3,-1,-3,2021-08-07 12:56:38,055824
-1,0,2,-1,3,2,1,-1,2021-08-07 12:56:38,055824
-2,-4,-1,3,8,2,1,0,2021-08-07 12:56:38,055824
-1,-1,-1,1,2,0,0,1,2021-08-07 12:56:38,055824
0,1,-2,-8,-9,-4,-3,-1,2021-08-07 12:56:38,071823
-2,-1,-2,-6,-15,-7,-2,-1,2021-08-07 12:56:38,071823
1,0,2,5,16,9,4,1,2021-08-07 12:56:38,087827
-1,-2,0,2,5,1,-1,0,2021-08-07 12:56:38,087827
-4,-3,-6,-6,-11,-6,-4,-3,2021-08-07 12:56:38,103824
1,1,3,3,8,3,1,-1,2021-08-07 12:56:38,103824
0,0,-1,-3,-7,-4,-1,-2,2021-08-07 12:56:38,103824
-1,-1,0,1,2,2,0,0,2021-08-07 12:56:38,103824
0,1,1,4,11,5,1,0,2021-08-07 12:56:38,119824
-2,-3,-5,-8,-10,-9,-6,-3,2021-08-07 12:56:38,119824
1,2,-1,-3,-5,-3,-1,1,2021-08-07 12:56:38,119824
0,0,-1,0,3,0,1,-2,2021-08-07 12:56:38,119824
0,-3,0,-3,-5,-4,1,-1,2021-08-07 12:56:38,151824
0,-2,0,1,0,2,-1,0,2021-08-07 12:56:38,166824
-1,-3,-1,-3,0,0,-1,0,2021-08-07 12:56:38,166824
-3,-2,-2,-2,-5,-2,-2,-2,2021-08-07 12:56:38,166824
1,3,2,3,5,2,2,1,2021-08-07 12:56:38,166824
-1,-3,-2,-3,-1,0,-1,-1,2021-08-07 12:56:38,166824
-1,-1,-3,-1,-3,-2,-1,0,2021-08-07 12:56:38,166824
-3,-4,-3,-10,-7,-5,-3,-2,2021-08-07 12:56:38,166824
4,7,4,3,-1,0,0,1,2021-08-07 12:56:38,198824
1,2,5,9,15,10,5,1,2021-08-07 12:56:38,198824
0,-1,-2,-3,-3,-1,-3,0,2021-08-07 12:56:38,198824
-1,-3,-7,-1,-1,-3,0,-2,2021-08-07 12:56:38,198824
-1,0,0,-1,0,-1,0,-1,2021-08-07 12:56:38,198824
0,1,-1,-2,-3,-4,-2,-1,2021-08-07 12:56:38,198824
-2,0,2,6,7,5,2,0,2021-08-07 12:56:38,214825
-2,-1,-1,-4,-4,-5,-2,-1,2021-08-07 12:56:38,214825
-4,-5,-5,-9,-8,-3,-3,-1,2021-08-07 12:56:38,214825
2,1,2,4,1,0,0,1,2021-08-07 12:56:38,214825
1,1,3,7,13,6,3,1,2021-08-07 12:56:38,214825
0,0,-2,1,1,1,-2,0,2021-08-07 12:56:38,214825
-1,-2,-3,-3,-7,-4,-2,-2,2021-08-07 12:56:38,246823
-2,-3,-5,-7,-12,-8,-3,-2,2021-08-07 12:56:38,246823
1,2,2,-1,0,1,1,0,2021-08-07 12:56:38,246823
-1,1,1,-3,-2,-3,1,0,2021-08-07 12:56:38,246823
0,-1,-1,2,7,4,1,1,2021-08-07 12:56:38,262824
-3,-5,-6,-11,-13,-8,-5,-2,2021-08-07 12:56:38,278826
1,0,3,5,3,1,0,0,2021-08-07 12:56:38,278826
1,2,2,0,-1,1,-1,0,2021-08-07 12:56:38,278826
-1,-1,-1,0,2,2,1,0,2021-08-07 12:56:38,278826
-2,-1,-1,-1,-3,-3,-1,0,2021-08-07 12:56:38,278826
-4,-6,-8,-12,-22,-13,-8,-5,2021-08-07 12:56:38,279824
1,-1,0,8,17,10,4,0,2021-08-07 12:56:38,279824
1,0,1,2,1,1,-1,-1,2021-08-07 12:56:38,310826
0,1,1,2,4,3,1,0,2021-08-07 12:56:38,326824
-1,-3,-3,-4,-4,-4,-3,-2,2021-08-07 12:56:38,342856
-1,2,1,-4,-7,-3,-1,0,2021-08-07 12:56:38,342856
-1,-2,0,4,7,3,2,0,2021-08-07 12:56:38,342856
1,2,3,3,2,1,2,0,2021-08-07 12:56:38,342856
-1,0,-1,-3,-1,-2,0,0,2021-08-07 12:56:38,342856
-2,-4,-4,-5,-8,-5,-4,-2,2021-08-07 12:56:38,342856
0,-2,-2,-3,-1,-2,-2,-2,2021-08-07 12:56:38,343857
1,0,2,1,3,1,0,1,2021-08-07 12:56:38,343857
-1,-1,-2,-1,-1,-1,0,0,2021-08-07 12:56:38,358856
-1,-3,-3,-4,-2,-1,-2,0,2021-08-07 12:56:38,358856
-1,-1,1,1,0,0,1,-1,2021-08-07 12:56:38,358856
0,-1,-1,5,5,2,0,-1,2021-08-07 12:56:38,358856
-3,-5,-6,0,-2,-1,0,-3,2021-08-07 12:56:38,374856
1,3,3,-3,0,2,2,0,2021-08-07 12:56:38,374856
-2,-3,-6,-5,-9,-7,-5,-3,2021-08-07 12:56:38,374856
1,8,7,17,8,4,1,2,2021-08-07 12:56:38,374856
3,6,3,-2,5,2,0,0,2021-08-07 12:56:38,390857
-10,-19,-23,-33,-23,-16,-9,-10,2021-08-07 12:56:38,390857
-1,-7,-5,-11,-14,-7,-2,-1,2021-08-07 12:56:38,390857
4,6,6,4,2,3,3,2,2021-08-07 12:56:38,390857
0,1,5,26,11,3,0,1,2021-08-07 12:56:38,406857
4,6,7,14,13,10,7,3,2021-08-07 12:56:38,422856
-3,-3,-8,-20,-10,-4,-4,-5,2021-08-07 12:56:38,422856
-5,-7,-8,-13,-8,-6,-4,-5,2021-08-07 12:56:38,422856
1,1,2,-4,-1,1,-1,-1,2021-08-07 12:56:38,422856
-2,-2,3,9,2,-2,-2,0,2021-08-07 12:56:38,422856
1,0,4,10,9,5,2,0,2021-08-07 12:56:38,438857
-1,-2,-2,-3,-1,0,0,-1,2021-08-07 12:56:38,438857
1,2,1,-4,-2,0,0,-1,2021-08-07 12:56:38,438857
-1,-1,-3,1,-3,-4,-3,1,2021-08-07 12:56:38,438857
1,3,3,2,-4,-3,-1,2,2021-08-07 12:56:38,454856
-1,1,-1,-3,4,1,0,0,2021-08-07 12:56:38,454856
-3,-6,-4,-5,-3,-4,-3,-4,2021-08-07 12:56:38,454856
2,2,3,3,5,4,3,0,2021-08-07 12:56:38,454856
3,4,4,7,9,3,3,1,2021-08-07 12:56:38,473856
-2,-6,-5,-8,-10,-7,-5,-3,2021-08-07 12:56:38,473856
-2,-3,-2,-6,-6,-6,-1,1,2021-08-07 12:56:38,473856
-2,-2,-2,0,-2,-2,-1,-3,2021-08-07 12:56:38,474856
3,7,6,2,5,2,3,2,2021-08-07 12:56:38,500854
0,0,0,-2,-2,-2,-1,-1,2021-08-07 12:56:38,516856
-2,-3,-4,-4,-4,-1,0,-2,2021-08-07 12:56:38,516856
0,0,3,1,-2,-1,-1,0,2021-08-07 12:56:38,516856
-1,-1,-1,3,4,2,1,0,2021-08-07 12:56:38,516856
-2,-2,-4,-2,-2,-2,-2,-2,2021-08-07 12:56:38,516856
0,-1,-1,-5,-1,1,1,2,2021-08-07 12:56:38,532855
1,-1,1,4,4,0,-2,-1,2021-08-07 12:56:38,547855
-3,-4,-2,-3,-4,-4,-4,-1,2021-08-07 12:56:38,548080
1,0,1,0,1,1,2,2,2021-08-07 12:56:38,548080
-2,-1,-3,-7,-6,-2,-1,-1,2021-08-07 12:56:38,548080
0,1,-1,-4,-6,-1,-2,-1,2021-08-07 12:56:38,548080
-2,-2,0,6,3,2,0,-1,2021-08-07 12:56:38,563372
0,-1,0,0,1,1,0,-2,2021-08-07 12:56:38,578372
-2,-3,0,-3,-5,-4,-2,-1,2021-08-07 12:56:38,594371
0,-1,-3,-2,-4,-3,-1,-2,2021-08-07 12:56:38,594371
0,-2,-2,-2,-1,0,-2,-1,2021-08-07 12:56:38,594371
7,7,9,10,9,5,5,5,2021-08-07 12:56:38,594371
-1,-1,-2,-2,-3,-1,-2,0,2021-08-07 12:56:38,594371
-1,-1,-2,-4,-3,-2,-2,-2,2021-08-07 12:56:38,595373
-2,-2,-2,-3,-5,-1,-2,0,2021-08-07 12:56:38,595373
-4,-2,-3,-1,13,7,3,0,2021-08-07 12:56:38,595373
0,0,1,1,0,-1,0,-1,2021-08-07 12:56:38,595373
0,0,-1,-1,-3,-1,-1,-1,2021-08-07 12:56:38,595373
-2,-3,-4,-5,-5,-5,-3,-3,2021-08-07 12:56:38,626370
-1,-1,0,-3,-9,-4,-2,-2,2021-08-07 12:56:38,642371
-1,1,2,5,5,4,1,0,2021-08-07 12:56:38,674372
-1,0,-1,-1,-1,1,-1,1,2021-08-07 12:56:38,690371
-1,1,-3,-2,-3,-1,-2,-1,2021-08-07 12:56:38,706372
-1,-2,-1,-2,-4,-2,-2,-2,2021-08-07 12:56:38,722371
0,-1,-2,-2,-1,-3,-2,-2,2021-08-07 12:56:38,738374
0,1,2,3,2,1,2,2,2021-08-07 12:56:38,738374
0,-1,-1,-1,-1,-1,-2,-1,2021-08-07 12:56:38,738374
-3,-6,-5,-1,0,-3,-4,-4,2021-08-07 12:56:38,738374
2,1,-1,-1,0,1,0,0,2021-08-07 12:56:38,738374
2,4,3,-2,0,0,1,1,2021-08-07 12:56:38,739373
0,-2,2,5,9,4,2,1,2021-08-07 12:56:38,739373
-1,1,-2,-4,-5,-4,-2,-1,2021-08-07 12:56:38,739373
-1,-1,-1,-2,-4,-3,-2,-1,2021-08-07 12:56:38,739373
0,0,-2,-5,-2,-3,-2,-1,2021-08-07 12:56:38,739373
2,1,1,2,2,2,1,-1,2021-08-07 12:56:38,739373
-3,-6,-7,-6,-6,-4,-1,-3,2021-08-07 12:56:38,739373
-1,0,0,3,1,0,0,0,2021-08-07 12:56:38,740373
-3,-2,0,2,3,3,-1,-3,2021-08-07 12:56:38,740373
-3,-1,0,2,1,0,-1,-2,2021-08-07 12:56:38,740373
-3,-3,0,-2,-3,-1,-4,-3,2021-08-07 12:56:38,740373
-2,-2,-3,-3,-4,-2,-2,-3,2021-08-07 12:56:38,740373
2,3,2,1,1,0,-1,2,2021-08-07 12:56:38,740373
0,2,2,0,0,-2,1,1,2021-08-07 12:56:38,740373
0,-1,-1,-2,-2,0,-2,1,2021-08-07 12:56:38,741372
-2,-3,-2,-3,-3,-3,-2,-1,2021-08-07 12:56:38,741372
-3,-5,-5,-4,-3,-2,-2,-3,2021-08-07 12:56:38,741372
4,7,5,2,2,3,2,3,2021-08-07 12:56:38,754370
0,1,1,4,6,2,0,0,2021-08-07 12:56:38,754370
0,-1,-1,-3,-4,-3,-4,-1,2021-08-07 12:56:38,769373
-2,-3,-3,2,-1,-1,-2,-3,2021-08-07 12:56:38,769373
1,0,-1,-1,7,5,2,0,2021-08-07 12:56:38,785370
2,0,1,-2,-4,-1,1,2,2021-08-07 12:56:38,785370
0,-2,-1,1,3,3,-1,0,2021-08-07 12:56:38,785370
-1,-1,-2,0,-5,-3,-1,-1,2021-08-07 12:56:38,785370
-5,-4,-5,-6,-7,-6,-3,-3,2021-08-07 12:56:38,801373
-3,-1,-3,-8,-5,-1,-3,-2,2021-08-07 12:56:38,816372
0,0,1,6,6,3,0,0,2021-08-07 12:56:38,816372
0,-1,0,-1,-2,-1,0,-1,2021-08-07 12:56:38,816372
0,-1,-2,0,0,0,0,-2,2021-08-07 12:56:38,816372
-2,-3,-4,-4,-6,-3,-2,-3,2021-08-07 12:56:38,832371
0,1,2,-1,-1,-1,1,-1,2021-08-07 12:56:38,832371
0,1,2,4,7,5,2,0,2021-08-07 12:56:38,832371
-2,-1,0,-1,-4,-2,-2,-2,2021-08-07 12:56:38,833372
-1,-1,0,-1,-2,-2,-2,-2,2021-08-07 12:56:38,848371
-2,0,-3,-2,-4,-3,-1,-1,2021-08-07 12:56:38,848371
-1,2,4,3,0,-1,1,1,2021-08-07 12:56:38,848371
-2,-4,-3,-5,-4,-3,-1,-2,2021-08-07 12:56:38,879373
2,2,2,3,4,2,0,1,2021-08-07 12:56:38,895373
-1,1,-1,-4,-1,1,0,1,2021-08-07 12:56:38,895373
-1,1,0,1,3,1,1,0,2021-08-07 12:56:38,895373
-3,-4,-3,-3,-6,-5,-4,-2,2021-08-07 12:56:38,895373
-1,0,-3,-1,-2,-2,-3,-1,2021-08-07 12:56:38,895373
-1,-3,-2,-3,-3,-2,-3,-3,2021-08-07 12:56:38,896372
-2,-3,-6,-5,-8,-6,-3,0,2021-08-07 12:56:38,896372
-1,-1,0,-1,4,3,0,0,2021-08-07 12:56:38,896372
2,3,5,6,8,6,5,3,2021-08-07 12:56:38,896372
-2,1,-1,0,1,1,0,1,2021-08-07 12:56:38,896372
2,1,1,1,1,1,1,1,2021-08-07 12:56:38,896372
-2,-1,-3,-2,-5,-5,-3,-2,2021-08-07 12:56:38,927373
-3,-5,-4,-3,-4,-3,-4,-4,2021-08-07 12:56:38,943371
-1,-1,-1,1,2,2,-1,0,2021-08-07 12:56:38,959371
3,4,6,6,8,3,2,2,2021-08-07 12:56:38,959371
0,1,-1,-2,-2,0,-1,0,2021-08-07 12:56:38,959371
-1,-2,-1,-2,-2,-4,-2,-3,2021-08-07 12:56:38,975371
-3,-5,-3,-4,-5,-4,-1,-5,2021-08-07 12:56:38,975371
0,1,0,-5,-4,-1,0,-1,2021-08-07 12:56:38,975371
1,0,2,6,7,6,2,0,2021-08-07 12:56:38,975371
-1,-2,-3,-6,-7,-4,-1,0,2021-08-07 12:56:38,975371
-2,-3,-2,-6,-6,-3,-1,-3,2021-08-07 12:56:38,975371
1,0,0,2,2,1,1,0,2021-08-07 12:56:38,975371
-1,2,0,3,-2,-4,-2,-2,2021-08-07 12:56:38,976373
3,3,3,3,6,4,3,2,2021-08-07 12:56:38,976373
-1,-1,-1,2,3,0,0,1,2021-08-07 12:56:38,990373
-5,-5,-5,-5,-6,-4,-5,-3,2021-08-07 12:56:39,006371
1,2,0,-2,-3,-1,0,0,2021-08-07 12:56:39,022371
-2,-3,-2,2,-1,-1,-3,-1,2021-08-07 12:56:39,038373
0,0,-1,0,-1,-1,-1,-1,2021-08-07 12:56:39,054370
-2,-3,-1,-2,-1,-1,-3,-1,2021-08-07 12:56:39,054370
-4,-5,-3,1,3,-2,-3,-2,2021-08-07 12:56:39,054370
1,2,1,-4,-4,-1,0,2,2021-08-07 12:56:39,054370
5,5,6,5,7,6,4,3,2021-08-07 12:56:39,054370
-1,-2,-2,-1,-1,-1,-2,-4,2021-08-07 12:56:39,054370
-1,-3,-2,-5,-5,-1,-1,1,2021-08-07 12:56:39,054370
-4,-5,-5,-7,-11,-8,-5,-3,2021-08-07 12:56:39,055371
0,0,0,-1,2,1,-1,1,2021-08-07 12:56:39,055371
0,0,0,-1,2,2,2,1,2021-08-07 12:56:39,055371
0,-2,-2,0,1,2,0,-1,2021-08-07 12:56:39,055371
-1,0,2,3,6,2,1,0,2021-08-07 12:56:39,055371
-1,0,-2,-5,-11,-6,-2,-1,2021-08-07 12:56:39,069371
1,1,3,6,4,-1,0,-2,2021-08-07 12:56:39,085374
2,-3,-1,0,6,6,3,-1,2021-08-07 12:56:39,101370
-2,1,2,0,0,1,-2,-1,2021-08-07 12:56:39,101370
-2,-5,-5,-8,-7,-6,-4,-5,2021-08-07 12:56:39,101370
0,-1,-2,-3,-5,-4,0,-1,2021-08-07 12:56:39,101370
-1,0,-2,-2,-2,-3,-2,-1,2021-08-07 12:56:39,101370
-3,-4,-3,-4,-6,-7,-4,-3,2021-08-07 12:56:39,101370
0,1,0,3,6,6,2,0,2021-08-07 12:56:39,102372
-2,-2,-2,0,1,-1,-1,-1,2021-08-07 12:56:39,102372
3,5,5,1,-5,-3,1,3,2021-08-07 12:56:39,133370
-2,-3,-4,-5,-3,-1,-2,-2,2021-08-07 12:56:39,133370
2,3,3,4,3,1,0,1,2021-08-07 12:56:39,133370
-3,-4,-7,-5,-10,-5,-4,-4,2021-08-07 12:56:39,133370
1,2,4,14,20,13,5,3,2021-08-07 12:56:39,133370
-1,1,-1,-4,-5,-3,-1,-2,2021-08-07 12:56:39,133370
-2,-1,-1,-1,-1,-3,0,-3,2021-08-07 12:56:39,149372
-2,-3,-3,-7,-8,-4,-4,-1,2021-08-07 12:56:39,165372
-3,-5,-4,-7,-8,-7,-4,-1,2021-08-07 12:56:39,181374
2,4,3,6,9,8,6,4,2021-08-07 12:56:39,181374
0,-3,-2,1,4,0,-1,0,2021-08-07 12:56:39,181374
-3,-1,-1,-3,-3,-2,-3,-3,2021-08-07 12:56:39,181374
-3,-5,-4,-8,-11,-8,-6,-5,2021-08-07 12:56:39,181374
1,-1,1,0,-4,-1,-1,-1,2021-08-07 12:56:39,181374
1,2,2,0,-6,-2,0,2,2021-08-07 12:56:39,181374
2,3,5,5,11,9,5,2,2021-08-07 12:56:39,181374
1,1,1,1,4,2,3,2,2021-08-07 12:56:39,197372
-2,-2,-2,-2,-2,-4,-1,-1,2021-08-07 12:56:39,213371
0,0,0,0,-3,-1,1,0,2021-08-07 12:56:39,213371
-1,-2,-3,-1,-1,-4,-3,1,2021-08-07 12:56:39,213371
0,1,1,0,0,1,0,-1,2021-08-07 12:56:39,213371
-2,-3,-2,-4,-3,-2,-2,-3,2021-08-07 12:56:39,213371
-3,-3,-4,-2,-6,-7,-4,-2,2021-08-07 12:56:39,229372
1,1,1,5,2,2,1,0,2021-08-07 12:56:39,229372
1,0,2,0,0,2,1,-1,2021-08-07 12:56:39,245371
1,2,0,2,1,1,1,2,2021-08-07 12:56:39,245371
-2,-2,-2,-1,0,0,-2,0,2021-08-07 12:56:39,245371
1,-1,-3,-4,-1,-1,0,0,2021-08-07 12:56:39,245371
-5,-6,-3,-4,-9,-7,-5,-4,2021-08-07 12:56:39,261372
0,-1,0,2,5,3,0,0,2021-08-07 12:56:39,277373
1,2,4,4,10,7,3,0,2021-08-07 12:56:39,293372
0,2,1,1,0,0,0,1,2021-08-07 12:56:39,293372
-1,2,0,-3,-4,-4,-1,0,2021-08-07 12:56:39,293372
-6,-3,-6,-6,-6,-5,-4,-2,2021-08-07 12:56:39,293372
-2,-2,-2,-4,-3,-2,-1,1,2021-08-07 12:56:39,293372
1,2,3,2,-3,-1,2,1,2021-08-07 12:56:39,293372
1,3,0,-1,5,5,2,0,2021-08-07 12:56:39,309372
0,0,2,7,12,7,2,0,2021-08-07 12:56:39,309372
-2,-2,-2,-4,-4,0,-1,-2,2021-08-07 12:56:39,325374
-3,-2,-1,-1,2,-1,-2,-1,2021-08-07 12:56:39,325374
-2,-5,-4,-9,-15,-11,-7,-3,2021-08-07 12:56:39,325374
0,-2,-3,-5,-5,-4,-2,-4,2021-08-07 12:56:39,325374
3,6,5,1,6,5,3,3,2021-08-07 12:56:39,325374
0,0,0,1,3,2,1,-1,2021-08-07 12:56:39,326373
-3,-3,0,1,3,1,1,-2,2021-08-07 12:56:39,336372
-1,-1,0,-5,-5,-3,-1,1,2021-08-07 12:56:39,336372
0,2,2,-2,0,-1,0,0,2021-08-07 12:56:39,337372
-2,-2,-3,-4,-6,-3,-2,-3,2021-08-07 12:56:39,337372
2,2,0,2,4,2,-1,0,2021-08-07 12:56:39,373371
0,-2,-3,-2,-4,-3,-2,-2,2021-08-07 12:56:39,373371
-1,-2,-1,0,-4,-3,-1,-2,2021-08-07 12:56:39,373371
-1,0,-2,-1,1,2,0,0,2021-08-07 12:56:39,373371
-2,-3,-4,-2,-1,-3,-2,-1,2021-08-07 12:56:39,373371
-1,-1,-4,-8,-7,-3,-1,0,2021-08-07 12:56:39,374374
-1,0,1,7,8,4,2,0,2021-08-07 12:56:39,389372
1,1,1,0,1,1,0,2,2021-08-07 12:56:39,389372
-1,0,0,-3,-9,-5,-2,-1,2021-08-07 12:56:39,405372
0,3,2,5,4,2,1,-1,2021-08-07 12:56:39,405372
1,2,2,3,1,1,0,-1,2021-08-07 12:56:39,405372
-1,-2,-2,-3,1,-1,-1,0,2021-08-07 12:56:39,405372
-1,-3,-4,-6,-7,-7,-5,-3,2021-08-07 12:56:39,436372
1,0,1,5,4,4,1,0,2021-08-07 12:56:39,436372
0,-1,-3,-3,-2,-4,-1,-1,2021-08-07 12:56:39,436372
0,1,-1,-2,1,0,-2,-1,2021-08-07 12:56:39,436372
0,0,-3,-1,3,1,0,1,2021-08-07 12:56:39,436372
-2,-2,-3,-9,-10,-6,-3,-2,2021-08-07 12:56:39,436372
0,0,0,6,6,2,1,-1,2021-08-07 12:56:39,452370
-1,-1,0,1,-3,-2,-1,-1,2021-08-07 12:56:39,452370
-2,3,2,2,2,1,0,1,2021-08-07 12:56:39,468372
1,0,1,2,3,1,0,-2,2021-08-07 12:56:39,484372
-2,-3,-3,-4,-3,-3,-2,-2,2021-08-07 12:56:39,500372
0,-2,-2,-3,-4,-3,-2,0,2021-08-07 12:56:39,500372
0,-1,-1,0,-1,0,1,-1,2021-08-07 12:56:39,500372
-1,0,-2,-1,-1,-2,-1,-2,2021-08-07 12:56:39,500372
-4,-4,-4,-1,-3,-3,-3,-3,2021-08-07 12:56:39,500372
-1,0,2,1,6,2,0,-2,2021-08-07 12:56:39,500372
3,5,6,4,5,2,2,2,2021-08-07 12:56:39,501372
-2,-1,1,1,-1,-1,-3,-3,2021-08-07 12:56:39,501372
0,-1,-2,-1,-2,-1,1,0,2021-08-07 12:56:39,501372
2,2,-1,-3,-4,-1,0,1,2021-08-07 12:56:39,501372
-2,-2,-2,0,-1,-1,-1,-1,2021-08-07 12:56:39,530375
-1,0,-2,-4,-2,-2,-2,0,2021-08-07 12:56:39,546375
0,1,0,-2,-1,-1,-1,-1,2021-08-07 12:56:39,562371
-1,-1,-1,0,3,0,2,0,2021-08-07 12:56:39,562371
0,1,-1,0,-4,-5,-3,-1,2021-08-07 12:56:39,562371
-2,-4,-2,-1,-5,0,1,0,2021-08-07 12:56:39,562371
-3,-4,-4,-3,-3,-4,-3,-1,2021-08-07 12:56:39,562371
-1,1,1,3,6,5,1,1,2021-08-07 12:56:39,562371
-2,-1,-1,2,7,5,3,-2,2021-08-07 12:56:39,563371
2,3,3,4,2,3,2,1,2021-08-07 12:56:39,563371
-1,-2,-3,-4,-7,-3,-3,-2,2021-08-07 12:56:39,563371
-2,-4,-4,0,-6,-4,-4,-2,2021-08-07 12:56:39,563371
-2,-6,-5,-3,-4,-3,-3,-2,2021-08-07 12:56:39,578372
-2,-4,0,-2,-3,-2,-1,-2,2021-08-07 12:56:39,594371
4,5,5,2,2,4,2,4,2021-08-07 12:56:39,610373
-1,-1,-2,-2,-4,-3,-1,-1,2021-08-07 12:56:39,610373
-2,-1,-1,0,-1,0,1,-1,2021-08-07 12:56:39,610373
0,-1,-3,-4,-3,0,0,0,2021-08-07 12:56:39,610373
-3,-4,-1,-1,-1,-1,-3,-2,2021-08-07 12:56:39,610373
2,3,5,0,-4,0,-1,0,2021-08-07 12:56:39,611373
2,1,1,-4,0,1,1,1,2021-08-07 12:56:39,611373
-1,-2,-3,0,2,0,1,-2,2021-08-07 12:56:39,611373
-1,-2,-2,-2,-1,-3,1,-1,2021-08-07 12:56:39,626371
-1,-2,-1,0,-3,-5,0,-1,2021-08-07 12:56:39,626371
-3,-3,-1,-2,-4,-3,-4,-4,2021-08-07 12:56:39,642372
0,0,0,-1,-2,-2,-2,1,2021-08-07 12:56:39,658375
-1,-2,-2,2,4,2,1,0,2021-08-07 12:56:39,658375
1,1,2,2,5,4,3,1,2021-08-07 12:56:39,658375
0,4,1,-1,-1,1,0,0,2021-08-07 12:56:39,658375
-1,2,-1,-1,-1,-4,-1,-1,2021-08-07 12:56:39,674373
-1,1,1,-3,0,0,-2,-2,2021-08-07 12:56:39,706371
-3,-4,-3,-3,-6,-6,-4,-3,2021-08-07 12:56:39,722370
-3,-5,-5,-5,-6,-3,-4,-2,2021-08-07 12:56:39,722370
2,3,7,8,7,4,2,2,2021-08-07 12:56:39,722370
1,0,-1,-4,-3,0,0,-1,2021-08-07 12:56:39,722370
0,1,0,-3,-2,1,0,-1,2021-08-07 12:56:39,722370
-5,-8,-6,-2,-3,-3,-4,-4,2021-08-07 12:56:39,722370
3,5,4,3,0,3,0,3,2021-08-07 12:56:39,722370
-2,-2,-3,-2,-5,-3,-2,-2,2021-08-07 12:56:39,723375
1,2,1,2,4,2,1,1,2021-08-07 12:56:39,723375
-3,0,-5,-6,-10,-5,-3,-3,2021-08-07 12:56:39,723375
-1,-3,0,3,8,4,1,-1,2021-08-07 12:56:39,723375
2,2,3,4,4,2,-1,1,2021-08-07 12:56:39,723375
-2,-3,-4,-3,-3,-1,-3,-2,2021-08-07 12:56:39,723375
2,2,4,2,2,-2,2,1,2021-08-07 12:56:39,738372
-3,-3,-4,-5,-5,-5,-4,-2,2021-08-07 12:56:39,738372
-2,-1,-2,-3,-6,-1,0,0,2021-08-07 12:56:39,754372
-2,-3,-3,-2,2,-1,-1,-3,2021-08-07 12:56:39,761371
1,4,2,-1,-2,0,0,1,2021-08-07 12:56:39,761371
-1,-1,-4,-2,0,-1,-1,-2,2021-08-07 12:56:39,761371
-1,-2,-1,1,4,2,-1,-1,2021-08-07 12:56:39,761371
0,2,4,1,0,0,0,2,2021-08-07 12:56:39,761371
1,1,1,2,2,3,0,2,2021-08-07 12:56:39,784373
-2,-4,-4,-5,-6,-2,-2,-3,2021-08-07 12:56:39,800370
-2,-4,-4,-6,-8,-6,-2,-3,2021-08-07 12:56:39,816372
1,0,-2,-1,2,1,1,0,2021-08-07 12:56:39,816372
3,5,3,2,1,1,0,1,2021-08-07 12:56:39,816372
0,1,0,-1,-2,-2,1,1,2021-08-07 12:56:39,816372
-3,-4,-3,-2,-2,-4,-3,-3,2021-08-07 12:56:39,817372
-5,-4,-5,-3,-4,-3,-2,-1,2021-08-07 12:56:39,817372
1,4,3,3,4,3,3,1,2021-08-07 12:56:39,817372
0,0,-1,-1,-3,-2,-1,-2,2021-08-07 12:56:39,817372
0,1,1,1,0,-2,0,-1,2021-08-07 12:56:39,817372
-3,-3,-4,-5,-4,-2,-2,-2,2021-08-07 12:56:39,817372
0,-2,-1,0,1,0,-1,1,2021-08-07 12:56:39,846372
-1,-1,1,1,0,1,-1,0,2021-08-07 12:56:39,846372
-1,1,-1,-1,-2,-1,0,0,2021-08-07 12:56:39,846372
1,-1,0,-3,-2,-1,-1,-3,2021-08-07 12:56:39,846372
-2,-3,-3,-4,-5,-3,-2,-2,2021-08-07 12:56:39,862373
0,0,2,-1,-3,-1,0,1,2021-08-07 12:56:39,878373
2,2,1,3,7,7,3,2,2021-08-07 12:56:39,894372
1,2,1,8,10,5,3,1,2021-08-07 12:56:39,894372
2,3,3,5,4,1,1,1,2021-08-07 12:56:39,894372
-1,-5,-4,-5,-3,-4,-3,-3,2021-08-07 12:56:39,894372
-4,-4,-6,-11,-15,-10,-6,-5,2021-08-07 12:56:39,894372
2,6,5,3,0,1,2,3,2021-08-07 12:56:39,895372
-1,-4,-3,0,4,1,0,-2,2021-08-07 12:56:39,910370
-1,-1,-5,-3,-1,-1,-2,0,2021-08-07 12:56:39,910370
2,1,2,2,3,1,4,1,2021-08-07 12:56:39,910370
-3,-5,-4,-3,-4,-5,-4,-3,2021-08-07 12:56:39,910370
2,4,2,0,-1,-2,0,0,2021-08-07 12:56:39,926372
-1,-1,0,1,-1,-1,0,-1,2021-08-07 12:56:39,926372
-1,0,0,2,1,0,-1,-2,2021-08-07 12:56:39,926372
-2,-4,-4,-8,-5,-2,-2,-2,2021-08-07 12:56:39,926372
-2,-1,-2,-7,-9,-7,-3,-1,2021-08-07 12:56:39,942372
0,0,-2,4,11,6,3,-1,2021-08-07 12:56:39,942372
0,1,0,-2,-1,1,0,0,2021-08-07 12:56:39,942372
1,1,2,3,1,1,0,-1,2021-08-07 12:56:39,942372
0,-1,0,0,-1,1,0,0,2021-08-07 12:56:39,974373
-2,0,-1,0,-3,-2,-1,-1,2021-08-07 12:56:39,990372
-2,-4,-3,-4,-5,-3,-2,-2,2021-08-07 12:56:40,005372
0,0,-1,2,1,2,-2,0,2021-08-07 12:56:40,005372
0,-2,0,-1,0,-2,-2,-1,2021-08-07 12:56:40,005372
0,-2,-2,-3,-4,-3,-2,-1,2021-08-07 12:56:40,005372
0,0,-1,-2,-2,-2,-2,-1,2021-08-07 12:56:40,005372
-2,-2,0,0,-3,-3,-4,-3,2021-08-07 12:56:40,006373
-1,0,1,2,4,4,1,-1,2021-08-07 12:56:40,006373
2,2,2,9,18,12,4,3,2021-08-07 12:56:40,006373
-2,-1,-2,-6,-6,-5,-2,-2,2021-08-07 12:56:40,006373
1,2,1,2,2,1,1,1,2021-08-07 12:56:40,006373
-3,-3,-2,-2,-2,-2,-3,-4,2021-08-07 12:56:40,036371
-3,-4,-3,-8,-14,-8,-6,-5,2021-08-07 12:56:40,051370
-1,-3,-2,-1,0,2,1,0,2021-08-07 12:56:40,051370
1,3,4,3,0,-1,1,1,2021-08-07 12:56:40,051370
2,2,0,1,5,3,4,0,2021-08-07 12:56:40,051370
-2,-2,-1,-2,-5,-2,-1,-2,2021-08-07 12:56:40,051370
-1,0,-1,3,6,2,0,0,2021-08-07 12:56:40,051370
-1,-2,-3,-6,-7,-5,-2,1,2021-08-07 12:56:40,051370
-2,-1,1,1,2,0,-2,-1,2021-08-07 12:56:40,067372
-1,-2,0,-2,-7,-6,-1,-2,2021-08-07 12:56:40,083371
0,-1,0,5,10,6,2,1,2021-08-07 12:56:40,083371
-1,-3,0,1,0,-1,0,1,2021-08-07 12:56:40,083371
-1,-1,-2,-4,-4,-3,-1,-1,2021-08-07 12:56:40,083371
0,-2,-3,-5,-4,-3,-3,-1,2021-08-07 12:56:40,083371
4,4,6,8,3,2,3,2,2021-08-07 12:56:40,083371
1,3,-1,-1,2,3,3,-1,2021-08-07 12:56:40,083371
-4,-4,-5,-3,-7,-4,-4,-3,2021-08-07 12:56:40,115373
-2,-1,1,-2,-2,-1,-2,0,2021-08-07 12:56:40,131370
0,-1,-1,-1,-5,-3,-2,-1,2021-08-07 12:56:40,163372
2,1,1,0,6,3,2,0,2021-08-07 12:56:40,163372
-2,-4,-3,-3,-8,-5,-2,-1,2021-08-07 12:56:40,163372
-2,2,-1,-2,0,0,0,1,2021-08-07 12:56:40,163372
0,-1,0,1,1,-1,-3,-1,2021-08-07 12:56:40,163372
-3,-8,-7,-7,-11,-6,-5,-3,2021-08-07 12:56:40,163372
3,4,2,4,7,4,2,2,2021-08-07 12:56:40,163372
1,2,0,4,4,1,1,1,2021-08-07 12:56:40,164372
1,3,1,-2,-3,-1,0,1,2021-08-07 12:56:40,164372
-3,-2,-1,0,-3,-2,-2,-2,2021-08-07 12:56:40,164372
-5,-7,-6,-6,-5,-3,-4,-3,2021-08-07 12:56:40,164372
2,1,0,1,3,1,-1,-2,2021-08-07 12:56:40,164372
0,2,0,-2,-2,-1,-2,-1,2021-08-07 12:56:40,164372
-1,-1,0,0,0,0,-1,-1,2021-08-07 12:56:40,164372
-1,-1,0,-2,-3,-2,0,0,2021-08-07 12:56:40,193371
-1,-1,0,1,1,1,2,2,2021-08-07 12:56:40,193371
-2,-4,-1,-2,-8,-7,-3,-4,2021-08-07 12:56:40,195373
0,0,0,-3,1,3,2,1,2021-08-07 12:56:40,196372
1,3,5,9,12,8,4,2,2021-08-07 12:56:40,196372
-1,-2,-2,-2,-3,-4,-1,0,2021-08-07 12:56:40,196372
-1,-1,1,1,5,2,1,0,2021-08-07 12:56:40,209372
-4,-3,-4,-5,-5,-4,-4,-3,2021-08-07 12:56:40,209372
0,1,0,-4,-8,-6,-3,0,2021-08-07 12:56:40,241370
-1,2,2,2,4,1,0,-1,2021-08-07 12:56:40,241370
-1,0,1,-1,-3,0,-1,-2,2021-08-07 12:56:40,257371
-1,-1,0,0,2,0,0,-2,2021-08-07 12:56:40,273372
-3,-7,-6,-3,0,1,-2,-3,2021-08-07 12:56:40,289372
4,2,3,6,5,4,2,1,2021-08-07 12:56:40,289372
-1,-1,-3,-6,-6,-4,-2,-2,2021-08-07 12:56:40,289372
-2,-1,-1,0,-1,-1,-1,-1,2021-08-07 12:56:40,289372
-2,-1,-1,2,5,0,0,-2,2021-08-07 12:56:40,289372
0,-2,-3,-2,-6,-4,-2,-1,2021-08-07 12:56:40,289372
4,5,7,7,8,7,5,5,2021-08-07 12:56:40,290374
1,1,0,3,3,1,1,-1,2021-08-07 12:56:40,290374
-2,-3,-2,-3,-4,-1,-3,-3,2021-08-07 12:56:40,290374
-3,-2,-2,-4,-3,0,-2,-1,2021-08-07 12:56:40,290374
-4,-3,-5,-5,-8,-6,-5,-3,2021-08-07 12:56:40,290374
2,3,2,4,3,3,1,1,2021-08-07 12:56:40,290374
2,-1,2,0,0,-1,0,1,2021-08-07 12:56:40,304372
-1,-3,-3,-9,-11,-6,-2,-1,2021-08-07 12:56:40,304372
2,-1,-3,-2,-4,-1,-1,0,2021-08-07 12:56:40,304372
0,0,-1,5,11,7,3,1,2021-08-07 12:56:40,304372
-2,-2,-2,-1,-2,-2,-2,-4,2021-08-07 12:56:40,336372
-4,-2,-2,-2,0,-2,-4,-3,2021-08-07 12:56:40,352371
1,2,1,0,1,0,0,0,2021-08-07 12:56:40,352371
1,2,2,0,-5,-3,-2,1,2021-08-07 12:56:40,368372
0,1,-1,-4,-2,-1,-2,-1,2021-08-07 12:56:40,384372
-1,0,1,3,0,-1,-1,-1,2021-08-07 12:56:40,400372
-3,-6,-5,-4,-3,-4,-2,0,2021-08-07 12:56:40,400372
-1,-3,-3,-4,-2,1,0,-2,2021-08-07 12:56:40,400372
4,5,5,8,10,5,4,3,2021-08-07 12:56:40,400372
-1,0,0,1,-1,0,0,1,2021-08-07 12:56:40,400372
-3,-2,-3,-2,0,-1,-2,-3,2021-08-07 12:56:40,400372
0,0,0,-3,-6,-6,-4,0,2021-08-07 12:56:40,401373
-4,-6,-5,-8,-9,-4,-5,-3,2021-08-07 12:56:40,401373
4,4,5,9,8,5,3,3,2021-08-07 12:56:40,401373
-1,-2,-1,2,5,3,0,0,2021-08-07 12:56:40,401373
-3,-2,-3,-3,-5,-4,-3,-4,2021-08-07 12:56:40,416372
0,0,-3,-3,-2,0,-1,-1,2021-08-07 12:56:40,416372
-2,-5,-5,-8,-11,-7,-4,-3,2021-08-07 12:56:40,416372
2,1,4,9,12,8,4,2,2021-08-07 12:56:40,416372
-2,-1,0,1,0,-2,-1,-2,2021-08-07 12:56:40,416372
1,0,-2,-2,-3,-2,-3,0,2021-08-07 12:56:40,417376
-4,-4,-5,-10,-12,-7,-3,-3,2021-08-07 12:56:40,417376
3,2,4,12,14,8,4,0,2021-08-07 12:56:40,432370
-1,2,1,-1,-2,-3,-1,1,2021-08-07 12:56:40,432370
-1,0,-1,-1,-2,-2,-1,-1,2021-08-07 12:56:40,448373
-1,0,-1,0,2,-1,0,-3,2021-08-07 12:56:40,448373
-2,-3,-3,-6,-7,-4,-4,-2,2021-08-07 12:56:40,448373
2,3,1,1,2,2,1,1,2021-08-07 12:56:40,448373
-2,-1,-1,-1,-1,-2,0,-2,2021-08-07 12:56:40,464370
1,-1,0,0,4,1,1,1,2021-08-07 12:56:40,464370
-2,-3,-3,-4,-4,-4,-1,-2,2021-08-07 12:56:40,464370
1,0,-2,0,-1,1,-1,0,2021-08-07 12:56:40,464370
-1,-1,0,-2,-3,-1,-1,0,2021-08-07 12:56:40,479372
1,0,2,3,5,3,1,0,2021-08-07 12:56:40,495372
0,1,0,-2,-2,-3,-2,0,2021-08-07 12:56:40,495372
-3,-4,-3,-5,-4,-3,-2,-1,2021-08-07 12:56:40,495372
-1,-1,1,-1,-1,0,0,-1,2021-08-07 12:56:40,511371
0,0,1,2,2,1,2,0,2021-08-07 12:56:40,511371
-1,0,0,-3,-4,-1,-1,0,2021-08-07 12:56:40,511371
-1,-2,-2,-1,-2,-2,-2,-2,2021-08-07 12:56:40,511371
0,-2,-1,0,-1,-1,-1,0,2021-08-07 12:56:40,527372
-1,0,0,0,2,0,0,0,2021-08-07 12:56:40,527372
1,1,0,-1,-3,-2,-1,1,2021-08-07 12:56:40,527372
-1,-2,0,-1,1,-2,-1,-1,2021-08-07 12:56:40,527372
-1,-3,-1,-2,-1,1,0,-1,2021-08-07 12:56:40,542372
0,1,-1,1,0,2,0,0,2021-08-07 12:56:40,558373
0,0,0,-1,-1,-2,0,-2,2021-08-07 12:56:40,573372
-2,-1,-1,-1,-1,0,-1,-1,2021-08-07 12:56:40,573372
-1,-1,-1,2,-3,-1,0,0,2021-08-07 12:56:40,573372
2,1,0,0,0,0,-1,0,2021-08-07 12:56:40,573372
-2,-1,2,-2,0,1,-1,1,2021-08-07 12:56:40,573372
0,0,-1,-2,-3,-2,0,-1,2021-08-07 12:56:40,573372
-1,-1,-2,-1,-3,-2,-2,-1,2021-08-07 12:56:40,589371
-1,0,-2,0,1,1,-2,-2,2021-08-07 12:56:40,589371
2,1,0,-1,0,0,1,0,2021-08-07 12:56:40,589371
-2,-5,-3,0,-1,-1,-3,-3,2021-08-07 12:56:40,589371
0,1,0,-2,-1,-4,0,-1,2021-08-07 12:56:40,605371
1,2,2,-1,2,1,1,1,2021-08-07 12:56:40,610371
0,0,-1,0,-1,-1,-2,-2,2021-08-07 12:56:40,610371
-2,0,-1,-4,-3,-2,0,0,2021-08-07 12:56:40,610371
-1,-3,-3,1,0,0,-2,-1,2021-08-07 12:56:40,636371
-5,-7,-6,-4,-7,-7,-4,-5,2021-08-07 12:56:40,652370
0,-1,0,1,0,1,0,1,2021-08-07 12:56:40,668371
6,8,9,9,11,9,7,4,2021-08-07 12:56:40,668371
2,3,2,4,4,4,2,2,2021-08-07 12:56:40,668371
-1,1,1,2,1,1,2,0,2021-08-07 12:56:40,668371
-3,-4,-6,-7,-8,-6,-4,-4,2021-08-07 12:56:40,668371
-3,-6,-6,-7,-11,-9,-6,-5,2021-08-07 12:56:40,668371
-3,-2,-3,-10,-13,-7,-6,-3,2021-08-07 12:56:40,669372
3,3,7,13,26,14,6,4,2021-08-07 12:56:40,669372
-2,-1,-4,-4,-4,-1,-2,-2,2021-08-07 12:56:40,669372
1,1,0,4,1,1,0,1,2021-08-07 12:56:40,669372
-1,-2,0,-2,-3,-3,-2,-2,2021-08-07 12:56:40,684371
-3,-3,-5,-13,-23,-13,-7,-1,2021-08-07 12:56:40,700370
5,4,6,13,25,16,10,5,2021-08-07 12:56:40,716371
-2,-2,-1,-2,1,-3,-1,-2,2021-08-07 12:56:40,716371
-2,-1,0,2,2,2,-2,-2,2021-08-07 12:56:40,716371
1,-1,-2,-2,-6,-5,-3,0,2021-08-07 12:56:40,716371
-2,-2,-4,-5,-8,-6,-3,-2,2021-08-07 12:56:40,716371
-3,-4,-4,-5,-8,-5,-4,-2,2021-08-07 12:56:40,716371
2,2,2,1,7,4,2,0,2021-08-07 12:56:40,716371
1,4,3,2,6,4,2,-1,2021-08-07 12:56:40,717373
0,1,0,-2,-5,-3,0,-1,2021-08-07 12:56:40,732372
-1,-3,-2,2,4,2,0,-1,2021-08-07 12:56:40,732372
-4,-5,-4,-8,-8,-5,-4,-4,2021-08-07 12:56:40,748371
-2,-4,-2,0,-2,1,0,-1,2021-08-07 12:56:40,748371
2,5,3,-1,-5,-3,0,2,2021-08-07 12:56:40,748371
-2,-1,-3,-5,-4,-1,-2,-1,2021-08-07 12:56:40,748371
-1,0,1,2,5,1,2,-1,2021-08-07 12:56:40,764372
-1,-1,-1,0,-4,-4,-1,-1,2021-08-07 12:56:40,764372
0,-3,-2,-3,-2,0,0,1,2021-08-07 12:56:40,780372
-1,0,-1,0,1,0,-1,-2,2021-08-07 12:56:40,780372
1,1,-1,2,1,-1,1,1,2021-08-07 12:56:40,780372
0,-1,-2,1,0,-1,0,0,2021-08-07 12:56:40,780372
-4,-4,-3,-5,-12,-8,-6,-1,2021-08-07 12:56:40,796372
2,0,0,-6,-7,-2,1,0,2021-08-07 12:56:40,796372
-2,-2,-1,5,6,3,2,0,2021-08-07 12:56:40,796372
0,0,-1,3,3,1,0,-1,2021-08-07 12:56:40,796372
-1,0,0,-3,-1,1,0,-2,2021-08-07 12:56:40,812374
-2,-1,-1,-4,-9,-7,-4,-1,2021-08-07 12:56:40,812374
1,2,0,-1,0,1,2,2,2021-08-07 12:56:40,828372
-1,0,1,0,3,3,1,0,2021-08-07 12:56:40,844373
-2,-1,-1,7,8,3,0,-1,2021-08-07 12:56:40,844373
0,-2,-3,0,7,5,1,-1,2021-08-07 12:56:40,860372
0,0,1,-2,-6,-4,-2,-1,2021-08-07 12:56:40,876373
2,4,2,-2,-4,-2,-1,1,2021-08-07 12:56:40,876373
-1,-2,-2,-4,-4,-4,-2,-1,2021-08-07 12:56:40,876373
-1,1,-1,1,4,3,2,0,2021-08-07 12:56:40,876373
-1,-3,-3,0,-2,-2,-1,-2,2021-08-07 12:56:40,876373
-3,-7,-5,-7,-10,-5,-3,-3,2021-08-07 12:56:40,877372
1,2,4,6,8,3,1,-1,2021-08-07 12:56:40,877372
-2,-2,-2,-3,-6,-4,-5,-2,2021-08-07 12:56:40,877372
0,2,3,3,7,5,3,0,2021-08-07 12:56:40,892372
-1,2,0,-1,-2,-2,-1,0,2021-08-07 12:56:40,892372
-2,-2,-3,-3,-3,-2,-2,-1,2021-08-07 12:56:40,892372
-2,-3,-2,1,1,-2,-2,-1,2021-08-07 12:56:40,892372
-3,-2,-3,-5,-5,-4,-4,-3,2021-08-07 12:56:40,892372
0,-2,-1,-2,-4,-2,-2,0,2021-08-07 12:56:40,892372
0,0,-2,0,-1,1,0,0,2021-08-07 12:56:40,908372
0,0,1,-1,0,-1,-2,-1,2021-08-07 12:56:40,908372
0,1,0,1,6,2,2,1,2021-08-07 12:56:40,924372
1,0,0,0,2,0,1,0,2021-08-07 12:56:40,924372
-1,-1,-3,-4,-6,-4,-4,-3,2021-08-07 12:56:40,924372
3,5,4,11,17,11,6,3,2021-08-07 12:56:40,924372
-1,-2,-3,-4,-8,-5,-5,-1,2021-08-07 12:56:40,955372
-3,-2,-1,-4,-5,-2,-2,-2,2021-08-07 12:56:40,955372
-3,-4,-3,-4,-4,-2,-2,-1,2021-08-07 12:56:40,955372
0,0,-1,0,-3,-3,0,-2,2021-08-07 12:56:40,955372
-2,0,0,0,-1,0,0,-1,2021-08-07 12:56:40,971371
-2,0,-2,-1,2,1,-2,-2,2021-08-07 12:56:40,971371
1,0,1,-1,-3,-1,1,0,2021-08-07 12:56:40,971371
-1,-2,-4,-2,-2,-3,-3,1,2021-08-07 12:56:40,971371
1,0,-1,-2,0,-1,0,-1,2021-08-07 12:56:40,987371
-2,-1,-3,-1,0,-1,-1,-2,2021-08-07 12:56:40,987371
-2,-1,1,-2,-1,-1,0,-1,2021-08-07 12:56:40,987371
-1,-1,1,0,0,0,0,-2,2021-08-07 12:56:40,987371
-1,-2,-3,-1,-4,-2,-3,1,2021-08-07 12:56:41,018372
1,0,3,-1,1,1,0,0,2021-08-07 12:56:41,018372
-2,-2,-1,1,2,1,1,-2,2021-08-07 12:56:41,018372
1,-1,-1,-2,-2,-3,-3,0,2021-08-07 12:56:41,018372
-2,-3,-2,-2,-4,-4,-2,-2,2021-08-07 12:56:41,034372
0,-1,-1,-4,-2,-2,-1,-3,2021-08-07 12:56:41,038373
0,0,1,2,4,3,0,-1,2021-08-07 12:56:41,038373
-2,0,0,0,-1,0,-1,0,2021-08-07 12:56:41,038373
-2,0,-1,1,2,1,0,-2,2021-08-07 12:56:41,039372
1,0,-1,0,0,0,0,1,2021-08-07 12:56:41,039372
0,-2,-3,-5,-7,-4,-1,-1,2021-08-07 12:56:41,066372
0,-1,-1,-6,-7,-4,-2,-2,2021-08-07 12:56:41,066372
2,2,2,1,3,1,0,0,2021-08-07 12:56:41,066372
-2,1,-2,1,3,1,1,0,2021-08-07 12:56:41,066372
0,-1,-1,-1,-4,-3,-2,-1,2021-08-07 12:56:41,066372
-1,-1,1,2,3,2,0,1,2021-08-07 12:56:41,066372
1,0,-2,1,3,2,-1,1,2021-08-07 12:56:41,097370
0,0,-1,-1,-3,-3,-2,-2,2021-08-07 12:56:41,113370
-1,-1,-1,2,0,2,-1,-1,2021-08-07 12:56:41,129371
-2,-1,-2,-2,-5,-4,-2,-2,2021-08-07 12:56:41,129371
-1,-1,-1,-3,-2,-3,1,-1,2021-08-07 12:56:41,129371
0,-1,0,1,3,2,-2,0,2021-08-07 12:56:41,129371
-3,-1,-1,-3,-5,-5,-3,1,2021-08-07 12:56:41,129371
-1,-1,0,-1,-1,2,0,0,2021-08-07 12:56:41,129371
0,3,1,0,1,2,1,0,2021-08-07 12:56:41,130373
0,-1,1,5,13,8,3,-1,2021-08-07 12:56:41,130373
-2,-2,-2,-2,-1,-3,-3,-2,2021-08-07 12:56:41,130373
1,-1,-3,-5,-5,-5,-2,0,2021-08-07 12:56:41,130373
0,-1,0,-4,-6,-4,-2,0,2021-08-07 12:56:41,160372
1,-2,-2,0,-1,-1,1,1,2021-08-07 12:56:41,176371
0,-1,-2,0,2,2,2,0,2021-08-07 12:56:41,208371
-4,-1,-2,-1,0,-1,-3,-2,2021-08-07 12:56:41,224372
-2,-1,-1,0,-2,-1,-3,-2,2021-08-07 12:56:41,239373
-3,0,0,-4,-5,-4,-4,-2,2021-08-07 12:56:41,239373
2,0,1,6,5,2,2,0,2021-08-07 12:56:41,239373
-3,-2,-4,-8,-11,-8,-3,-2,2021-08-07 12:56:41,239373
-1,0,2,2,9,4,1,1,2021-08-07 12:56:41,239373
3,1,-1,2,2,2,2,2,2021-08-07 12:56:41,240373
1,2,1,-2,-3,-2,-1,2,2021-08-07 12:56:41,240373
0,1,2,3,4,3,1,0,2021-08-07 12:56:41,240373
-1,-4,-5,-5,-8,-4,-1,-3,2021-08-07 12:56:41,240373
-2,-3,-2,-5,-6,-4,-3,-2,2021-08-07 12:56:41,240373
0,-1,-1,-1,0,1,0,-2,2021-08-07 12:56:41,240373
1,2,0,2,2,0,1,0,2021-08-07 12:56:41,240373
-1,-1,-1,-1,-2,-2,-1,-1,2021-08-07 12:56:41,255371
0,1,0,0,-3,-2,0,0,2021-08-07 12:56:41,271372
0,0,-3,0,2,1,0,-1,2021-08-07 12:56:41,287372
-2,-2,0,-2,0,-1,-2,-2,2021-08-07 12:56:41,287372
0,1,-2,2,2,3,2,2,2021-08-07 12:56:41,287372
-1,0,0,-1,-5,-3,-2,0,2021-08-07 12:56:41,287372
-2,-2,-1,-2,0,-1,-2,-1,2021-08-07 12:56:41,303371
-1,-1,-2,-1,0,1,1,0,2021-08-07 12:56:41,319372
1,-2,0,-1,1,0,-2,-1,2021-08-07 12:56:41,335371
5,5,6,2,4,4,2,4,2021-08-07 12:56:41,335371
-2,-1,-1,-1,-3,-4,-1,-1,2021-08-07 12:56:41,350372
-2,-1,-2,-2,-3,-3,-3,-1,2021-08-07 12:56:41,366372
0,-3,-3,-2,-6,-5,-2,-2,2021-08-07 12:56:41,382371
-2,-3,-5,-1,-1,1,0,-2,2021-08-07 12:56:41,398371
-2,-1,0,1,2,1,1,-3,2021-08-07 12:56:41,414372
0,1,1,0,1,0,0,-1,2021-08-07 12:56:41,414372
0,2,0,0,-2,-1,0,3,2021-08-07 12:56:41,414372
-2,-2,-2,-5,-3,-3,-3,-3,2021-08-07 12:56:41,414372
1,2,2,-2,-6,-5,0,0,2021-08-07 12:56:41,414372
-2,-5,-6,-4,-7,-3,-3,-1,2021-08-07 12:56:41,414372
1,-1,1,3,9,8,0,1,2021-08-07 12:56:41,414372
-1,0,0,6,7,1,-1,-1,2021-08-07 12:56:41,415375
2,1,0,3,5,2,1,1,2021-08-07 12:56:41,415375
0,0,0,1,-3,-4,0,-2,2021-08-07 12:56:41,430371
-6,-7,-5,-9,-13,-10,-5,-5,2021-08-07 12:56:41,430371
2,1,2,0,0,1,2,4,2021-08-07 12:56:41,446371
2,3,2,0,2,1,0,3,2021-08-07 12:56:41,462373
0,0,0,-2,-2,-2,-2,-1,2021-08-07 12:56:41,462373
-1,-1,-1,1,2,0,-1,-1,2021-08-07 12:56:41,462373
-3,-6,-4,-7,-5,-5,-4,-4,2021-08-07 12:56:41,469370
-3,-4,-3,-4,-8,-5,-4,-3,2021-08-07 12:56:41,470372
5,4,7,8,13,11,8,5,2021-08-07 12:56:41,470372
-1,-1,1,4,6,3,4,1,2021-08-07 12:56:41,477371
-1,0,0,-3,-6,-2,-4,-2,2021-08-07 12:56:41,493371
2,0,-1,0,5,2,0,2,2021-08-07 12:56:41,509372
-4,-2,0,2,-1,-5,-6,-5,2021-08-07 12:56:41,509372
-2,-2,-2,-3,-5,-4,-3,-2,2021-08-07 12:56:41,509372
-2,-3,-4,-6,-12,-9,-3,-3,2021-08-07 12:56:41,509372
2,1,2,4,7,8,5,2,2021-08-07 12:56:41,509372
-1,-2,-2,2,7,6,2,0,2021-08-07 12:56:41,509372
1,0,0,2,5,3,3,1,2021-08-07 12:56:41,510375
-3,-1,-2,-2,-6,-4,-2,-2,2021-08-07 12:56:41,510375
0,-2,-1,-1,3,0,-2,-2,2021-08-07 12:56:41,510375
0,0,-1,-5,-4,0,0,0,2021-08-07 12:56:41,510375
0,3,4,5,4,3,1,1,2021-08-07 12:56:41,510375
-2,-2,-3,-5,-3,-4,-2,-4,2021-08-07 12:56:41,510375
-1,-1,0,4,3,2,2,0,2021-08-07 12:56:41,510375
-1,0,-2,-2,-4,-4,-3,-2,2021-08-07 12:56:41,510375
0,-2,-3,-3,-5,-3,-1,-2,2021-08-07 12:56:41,510375
2,3,3,4,3,5,1,2,2021-08-07 12:56:41,511372
-5,-4,-6,-8,-9,-8,-5,-2,2021-08-07 12:56:41,511372
1,1,2,2,3,2,1,1,2021-08-07 12:56:41,511372
-2,-2,-3,-2,-3,-2,-2,-3,2021-08-07 12:56:41,511372
-1,0,0,0,3,2,2,0,2021-08-07 12:56:41,511372
-1,-3,-2,-3,-6,-5,1,-1,2021-08-07 12:56:41,525371
-1,-3,-5,-8,-10,-7,-3,-1,2021-08-07 12:56:41,541371
0,1,0,-4,-3,-4,-3,1,2021-08-07 12:56:41,541371
1,2,4,7,13,7,4,2,2021-08-07 12:56:41,541371
-2,-1,-1,-3,-4,0,-4,-1,2021-08-07 12:56:41,541371
-1,-3,-3,-2,-1,-2,-2,-4,2021-08-07 12:56:41,541371
2,1,-2,-4,-3,-3,-2,-1,2021-08-07 12:56:41,541371
0,-1,-2,-4,-8,-7,-2,-1,2021-08-07 12:56:41,541371
-2,-2,-3,1,4,4,0,-2,2021-08-07 12:56:41,542373
2,1,0,-6,2,4,3,1,2021-08-07 12:56:41,542373
1,2,4,7,7,4,2,1,2021-08-07 12:56:41,542373
-2,-3,-4,-1,-4,-4,-2,-1,2021-08-07 12:56:41,542373
0,0,1,-1,-3,-1,-1,0,2021-08-07 12:56:41,542373
0,3,-1,-3,-4,-1,1,1,2021-08-07 12:56:41,542373
-2,-3,-3,-3,-3,-1,-1,-2,2021-08-07 12:56:41,572372
1,0,2,0,0,1,-1,1,2021-08-07 12:56:41,572372
-2,-2,-4,-2,-6,-5,-1,-4,2021-08-07 12:56:41,572372
0,0,0,6,8,5,2,2,2021-08-07 12:56:41,572372
-1,-2,-3,-3,-3,-3,-2,-2,2021-08-07 12:56:41,588374
0,2,-1,1,5,3,2,1,2021-08-07 12:56:41,604372
2,0,1,2,5,1,1,-1,2021-08-07 12:56:41,604372
-1,1,0,2,1,0,-1,0,2021-08-07 12:56:41,604372
0,-1,0,-2,-4,-3,-1,-3,2021-08-07 12:56:41,620373
-2,-4,-5,-9,-9,-5,-3,-2,2021-08-07 12:56:41,636372
2,6,6,7,4,0,1,2,2021-08-07 12:56:41,636372
-2,-4,-2,-3,-5,-3,-3,-1,2021-08-07 12:56:41,636372
-2,-1,-2,-3,3,2,1,0,2021-08-07 12:56:41,636372
-2,-2,-1,0,1,-1,-2,-1,2021-08-07 12:56:41,636372
2,3,4,1,0,1,1,2,2021-08-07 12:56:41,636372
-2,-2,-1,-1,0,-4,-1,-1,2021-08-07 12:56:41,636372
-3,-2,-1,-3,-8,-4,-3,-1,2021-08-07 12:56:41,637373
-1,-1,-2,1,1,2,-1,-1,2021-08-07 12:56:41,637373
-3,-4,-7,-7,-6,-4,-4,-3,2021-08-07 12:56:41,652371
-2,-4,-3,-1,-3,-3,-4,-2,2021-08-07 12:56:41,652371
3,4,3,2,3,4,3,4,2021-08-07 12:56:41,667373
1,1,1,8,11,5,4,1,2021-08-07 12:56:41,682371
-1,-3,0,-2,-2,-2,-1,-1,2021-08-07 12:56:41,682371
-3,-6,-6,-8,-10,-6,-4,-4,2021-08-07 12:56:41,682371
2,5,4,4,11,5,2,3,2021-08-07 12:56:41,682371
2,2,2,2,0,0,-1,0,2021-08-07 12:56:41,682371
1,0,-2,-3,-5,-1,0,-1,2021-08-07 12:56:41,682371
-1,-1,0,3,1,-1,-2,-2,2021-08-07 12:56:41,682371
-4,-5,-6,-6,-9,-7,-5,-4,2021-08-07 12:56:41,714370
0,-1,-1,-1,-7,-6,-2,-1,2021-08-07 12:56:41,714370
1,-1,-1,-2,3,3,1,-1,2021-08-07 12:56:41,714370
2,0,-1,2,2,2,1,1,2021-08-07 12:56:41,714370
1,1,3,4,2,1,1,0,2021-08-07 12:56:41,730371
-1,-3,0,-3,-2,-1,0,-1,2021-08-07 12:56:41,746370
-3,-1,-2,-5,-10,-8,-6,-2,2021-08-07 12:56:41,746370
0,-2,-1,-4,-4,-2,0,-1,2021-08-07 12:56:41,746370
1,1,2,5,10,8,3,2,2021-08-07 12:56:41,746370
1,-1,-3,-1,-3,-1,-1,0,2021-08-07 12:56:41,746370
-1,0,-1,0,2,0,0,0,2021-08-07 12:56:41,747373
-1,0,0,-2,-1,-1,1,1,2021-08-07 12:56:41,747373
-4,-2,-4,-3,-9,-5,-4,-3,2021-08-07 12:56:41,761372
-2,-1,-2,-5,-2,0,0,-2,2021-08-07 12:56:41,761372
1,0,1,1,4,4,0,0,2021-08-07 12:56:41,777372
2,1,0,4,2,1,0,0,2021-08-07 12:56:41,777372
0,-2,-2,-5,-4,-3,-2,-2,2021-08-07 12:56:41,793372
-1,1,0,3,1,0,0,0,2021-08-07 12:56:41,809371
1,1,0,2,7,2,2,3,2021-08-07 12:56:41,809371
-1,1,3,1,1,-3,-2,-2,2021-08-07 12:56:41,809371
-2,-5,-4,-3,0,2,-1,-2,2021-08-07 12:56:41,809371
2,1,2,-4,-7,-1,1,1,2021-08-07 12:56:41,809371
-2,-2,-1,1,1,1,-1,0,2021-08-07 12:56:41,809371
-2,-4,-4,-2,-4,-2,-2,-1,2021-08-07 12:56:41,809371
2,3,2,1,-4,-5,-3,0,2021-08-07 12:56:41,825372
0,-2,0,0,0,2,1,-1,2021-08-07 12:56:41,841371
-1,-1,-1,0,1,1,-1,-1,2021-08-07 12:56:41,841371
-3,-2,-3,3,5,3,1,-1,2021-08-07 12:56:41,841371
2,6,5,2,1,0,1,3,2021-08-07 12:56:41,841371
1,0,2,0,0,0,-2,0,2021-08-07 12:56:41,841371
0,-1,0,-2,0,-1,0,-1,2021-08-07 12:56:41,857373
-3,-2,-4,-4,-7,-7,-5,-3,2021-08-07 12:56:41,857373
-5,-8,-9,-10,-12,-7,-4,-5,2021-08-07 12:56:41,873371
2,5,3,5,3,3,2,1,2021-08-07 12:56:41,889372
-1,-1,0,0,1,2,0,-1,2021-08-07 12:56:41,889372
-2,-1,-2,-2,0,1,-2,0,2021-08-07 12:56:41,889372
-2,-3,-3,-7,-8,-5,-3,-2,2021-08-07 12:56:41,889372
1,1,4,5,7,6,2,1,2021-08-07 12:56:41,889372
1,2,2,1,-2,-1,-1,0,2021-08-07 12:56:41,904372
-1,-1,-1,-1,-2,0,-1,-1,2021-08-07 12:56:41,904372
0,1,1,-4,-5,1,3,0,2021-08-07 12:56:41,905373
3,2,0,2,7,8,13,6,2021-08-07 12:56:41,905373
1,1,1,-1,1,-1,-5,-2,2021-08-07 12:56:41,905373
-16,-13,-10,-9,-13,-25,-29,-21,2021-08-07 12:56:41,905373
32,16,13,17,33,70,102,62,2021-08-07 12:56:41,937372
14,6,5,7,15,21,-3,4,2021-08-07 12:56:41,937372
-31,-10,-9,-10,-30,-83,-90,-68,2021-08-07 12:56:41,937372
-37,-24,-24,-30,-37,-37,-30,-39,2021-08-07 12:56:41,937372
61,19,7,11,16,47,63,47,2021-08-07 12:56:41,953372
16,5,3,5,11,21,25,18,2021-08-07 12:56:41,953372
-58,-11,0,0,-7,-26,-38,-22,2021-08-07 12:56:41,953372
-49,-31,-19,-21,-29,-40,-45,-34,2021-08-07 12:56:41,953372
-27,-17,-13,-9,-15,-22,-27,-20,2021-08-07 12:56:41,969373
72,36,24,23,41,105,124,92,2021-08-07 12:56:41,969373
82,29,16,21,36,73,59,53,2021-08-07 12:56:41,969373
2,6,8,9,4,-45,-70,-27,2021-08-07 12:56:41,969373
-24,-5,-18,-26,-35,-50,-57,-83,2021-08-07 12:56:42,001370
81,23,-2,-8,-5,3,4,24,2021-08-07 12:56:42,001370
-69,-21,1,-3,-11,-13,6,15,2021-08-07 12:56:42,001370
-55,-50,-11,-3,1,15,47,33,2021-08-07 12:56:42,001370
23,-15,2,14,25,43,53,38,2021-08-07 12:56:42,016371
21,9,-2,-3,-6,-25,-50,-44,2021-08-07 12:56:42,032372
56,35,5,0,-3,-10,-28,-12,2021-08-07 12:56:42,032372
-1,3,-2,-3,-3,0,-17,-32,2021-08-07 12:56:42,032372
-36,-14,-4,-1,-8,-23,-31,2,2021-08-07 12:56:42,032372
-46,-18,-6,-6,-12,-5,21,27,2021-08-07 12:56:42,032372
37,10,3,-2,-4,26,47,40,2021-08-07 12:56:42,033371
30,25,17,15,20,22,13,11,2021-08-07 12:56:42,033371
-4,5,1,12,25,10,-8,-30,2021-08-07 12:56:42,048371
-9,-3,-1,0,-1,-9,-15,-20,2021-08-07 12:56:42,048371
-41,-26,-19,-18,-27,-40,-45,-40,2021-08-07 12:56:42,048371
8,3,-2,-8,-8,3,10,2,2021-08-07 12:56:42,048371
9,8,5,3,4,6,0,5,2021-08-07 12:56:42,080373
-28,-7,-1,-3,-8,-24,-25,-14,2021-08-07 12:56:42,080373
-10,-13,-9,-10,-7,0,9,-2,2021-08-07 12:56:42,080373
34,21,10,18,15,31,43,27,2021-08-07 12:56:42,080373
2,3,-1,-2,-3,-5,-14,3,2021-08-07 12:56:42,080373
-33,-9,0,8,14,-17,-28,-22,2021-08-07 12:56:42,080373
-2,-13,-8,-16,-22,-9,7,-5,2021-08-07 12:56:42,096371
31,18,4,22,24,38,36,27,2021-08-07 12:56:42,112372
-14,-11,-6,-14,-23,-32,-33,-12,2021-08-07 12:56:42,127372
-26,-13,-9,-8,-6,-16,-18,-22,2021-08-07 12:56:42,143371
16,7,4,7,20,28,29,12,2021-08-07 12:56:42,159371
16,13,10,4,-5,0,7,14,2021-08-07 12:56:42,174404
-5,5,4,9,-1,-14,-16,-5,2021-08-07 12:56:42,190406
-16,-11,-14,-21,-26,-16,-10,-14,2021-08-07 12:56:42,206406
5,-4,-5,-20,-6,10,11,7,2021-08-07 12:56:42,206406
6,1,0,-6,-7,-4,-2,2,2021-08-07 12:56:42,206406
-12,-11,-11,-22,-34,-24,-18,-12,2021-08-07 12:56:42,206406
-6,-5,-3,0,7,-3,-4,-9,2021-08-07 12:56:42,206406
4,3,5,17,16,12,8,6,2021-08-07 12:56:42,206406
5,4,4,4,6,6,6,5,2021-08-07 12:56:42,207407
1,6,6,4,1,-1,-3,0,2021-08-07 12:56:42,207407
-10,-6,-2,2,-6,-8,-10,-9,2021-08-07 12:56:42,207407
3,-6,-3,4,13,11,11,11,2021-08-07 12:56:42,207407
3,1,-2,-2,-2,2,3,1,2021-08-07 12:56:42,207407
4,6,1,0,10,6,1,5,2021-08-07 12:56:42,207407
-3,4,5,5,10,-1,-7,-7,2021-08-07 12:56:42,208406
0,-3,-1,-3,-6,-3,1,1,2021-08-07 12:56:42,208406
6,4,0,-4,-1,0,-1,1,2021-08-07 12:56:42,208406
-7,-8,-6,-9,-16,-15,-13,-8,2021-08-07 12:56:42,208406
-8,-3,-2,-3,-6,-4,-6,-8,2021-08-07 12:56:42,208406
8,7,7,10,11,12,11,5,2021-08-07 12:56:42,208406
4,1,-3,-2,-1,3,5,7,2021-08-07 12:56:42,222405
-5,1,0,-2,-1,-2,-5,-4,2021-08-07 12:56:42,222405
-3,-2,-2,-2,-5,-7,-3,-4,2021-08-07 12:56:42,222405
-2,-2,-3,0,-2,2,-1,-2,2021-08-07 12:56:42,222405
2,-1,0,-4,-1,0,-1,4,2021-08-07 12:56:42,222405
-1,-3,-2,-1,1,-1,-3,-3,2021-08-07 12:56:42,254407
-1,-1,-1,1,-7,-4,0,2,2021-08-07 12:56:42,269407
-3,-3,-1,-1,-1,-2,-2,-4,2021-08-07 12:56:42,269407
-1,0,-1,-3,2,5,4,0,2021-08-07 12:56:42,269407
2,0,2,6,9,4,2,1,2021-08-07 12:56:42,285404
-7,-7,-4,-4,-6,-7,-6,-3,2021-08-07 12:56:42,285404
-2,2,0,2,4,0,0,-3,2021-08-07 12:56:42,285404
6,3,2,5,5,4,5,4,2021-08-07 12:56:42,285404
-2,-2,-2,-2,-3,-4,-1,0,2021-08-07 12:56:42,285404
-6,-5,-5,-10,-13,-8,-6,-4,2021-08-07 12:56:42,285404
0,0,-1,2,-2,-3,-2,-1,2021-08-07 12:56:42,286406
3,4,4,8,16,13,7,3,2021-08-07 12:56:42,286406
0,6,2,8,5,3,0,1,2021-08-07 12:56:42,317406
-4,-3,-1,0,-3,-5,-3,-2,2021-08-07 12:56:42,317406
0,0,0,5,-1,-1,0,-3,2021-08-07 12:56:42,317406
3,2,-1,-2,-10,-3,1,1,2021-08-07 12:56:42,317406
-4,-4,-9,-23,-4,-3,-4,-3,2021-08-07 12:56:42,317406
-5,-6,-6,-14,-6,-5,-5,-5,2021-08-07 12:56:42,317406
-1,-2,0,-3,-2,-1,-2,-3,2021-08-07 12:56:42,348406
-2,-2,2,10,12,5,1,-2,2021-08-07 12:56:42,348406
2,3,5,9,3,0,1,2,2021-08-07 12:56:42,348406
-3,-2,-1,-1,-8,-7,-3,-2,2021-08-07 12:56:42,348406
2,1,-2,-1,5,3,2,1,2021-08-07 12:56:42,348406
0,1,1,-8,-7,-2,-1,2,2021-08-07 12:56:42,348406
2,-1,3,9,7,3,3,1,2021-08-07 12:56:42,378406
-3,-2,-1,-3,-8,-6,-4,-2,2021-08-07 12:56:42,378623
-2,0,-1,4,6,4,0,-2,2021-08-07 12:56:42,378623
1,0,-1,-6,0,3,3,1,2021-08-07 12:56:42,378623
1,-1,1,-2,-3,0,0,-1,2021-08-07 12:56:42,378623
-1,-3,-2,-5,-13,-8,-5,-3,2021-08-07 12:56:42,379406
-2,-2,-4,2,2,3,2,-2,2021-08-07 12:56:42,410407
-1,-1,0,-2,-1,-2,-2,-2,2021-08-07 12:56:42,410407
1,1,2,7,7,3,2,2,2021-08-07 12:56:42,410407
-2,-1,-1,6,6,1,1,-1,2021-08-07 12:56:42,410407
-3,-2,-2,-15,-18,-8,-5,-2,2021-08-07 12:56:42,426406
2,4,3,5,12,6,5,1,2021-08-07 12:56:42,426406
1,0,2,10,7,3,1,0,2021-08-07 12:56:42,426406
2,4,0,0,-2,0,1,2,2021-08-07 12:56:42,426406
-1,-4,-6,-6,-3,-2,-2,-2,2021-08-07 12:56:42,426406
-4,-3,2,-9,-10,-6,-5,-4,2021-08-07 12:56:42,426406
2,1,-6,-1,7,6,3,2,2021-08-07 12:56:42,457406
2,0,3,10,17,10,3,1,2021-08-07 12:56:42,457406
-2,-1,-1,-3,-10,-7,-3,-1,2021-08-07 12:56:42,457406
0,-2,-1,-2,-1,1,0,0,2021-08-07 12:56:42,457406
-5,-6,-3,-4,-18,-13,-6,-5,2021-08-07 12:56:42,473407
2,1,-1,-8,-9,-1,-1,1,2021-08-07 12:56:42,473407
3,4,4,7,21,14,6,5,2021-08-07 12:56:42,473407
-2,-2,-4,-3,-1,-3,-2,-3,2021-08-07 12:56:42,473407
-1,1,-1,-2,0,-1,-2,0,2021-08-07 12:56:42,489405
-5,-4,-4,-2,-7,-6,-4,-4,2021-08-07 12:56:42,505405
-3,-3,-1,-3,-8,-7,-5,-3,2021-08-07 12:56:42,520404
2,3,1,-4,-1,-1,0,2,2021-08-07 12:56:42,520404
1,2,5,14,13,5,3,1,2021-08-07 12:56:42,520404
1,2,3,14,13,7,2,-1,2021-08-07 12:56:42,520404
2,0,-4,-6,-5,1,3,1,2021-08-07 12:56:42,521409
-11,-16,-19,-43,-30,-23,-14,-9,2021-08-07 12:56:42,521409
-1,-2,-1,-10,-3,-1,-3,-1,2021-08-07 12:56:42,521409
2,0,-4,-2,6,1,0,1,2021-08-07 12:56:42,521409
1,4,9,20,8,3,1,1,2021-08-07 12:56:42,536404
3,6,5,26,13,9,4,4,2021-08-07 12:56:42,536404
-1,-1,1,-6,-8,-5,-2,-1,2021-08-07 12:56:42,552406
-2,-2,0,-4,-3,0,-1,0,2021-08-07 12:56:42,552406
1,1,-1,-4,-4,-3,0,-1,2021-08-07 12:56:42,552406
1,0,-1,-1,-6,-1,1,1,2021-08-07 12:56:42,552406
-1,-1,-1,0,6,4,0,0,2021-08-07 12:56:42,568406
2,0,0,-1,-3,0,1,0,2021-08-07 12:56:42,568406
-4,-5,-6,-9,-8,-8,-5,-3,2021-08-07 12:56:42,600405
-1,-1,-1,0,-1,1,-1,-1,2021-08-07 12:56:42,600405
0,-1,1,2,-6,-5,-1,0,2021-08-07 12:56:42,600405
4,5,4,12,25,14,7,4,2021-08-07 12:56:42,600405
-1,-1,-3,-11,-8,0,0,0,2021-08-07 12:56:42,600405
1,0,-3,-6,4,1,1,0,2021-08-07 12:56:42,600405
-3,-3,-4,0,-4,-6,-3,-3,2021-08-07 12:56:42,616406
0,2,6,8,0,1,-1,1,2021-08-07 12:56:42,632406
-1,2,3,12,7,0,1,0,2021-08-07 12:56:42,648405
1,1,-3,5,1,2,1,1,2021-08-07 12:56:42,648405
-2,-2,0,-22,-5,-1,-2,-1,2021-08-07 12:56:42,648405
-6,-9,-17,-21,-29,-17,-11,-7,2021-08-07 12:56:42,648405
-1,-3,1,5,6,3,1,-1,2021-08-07 12:56:42,648405
0,0,1,6,-1,0,-1,-1,2021-08-07 12:56:42,648405
0,3,2,12,11,6,3,1,2021-08-07 12:56:42,648405
1,1,3,2,1,1,2,1,2021-08-07 12:56:42,649407
1,2,2,0,-1,1,0,2,2021-08-07 12:56:42,664406
-1,-1,-1,1,-3,-2,-1,0,2021-08-07 12:56:42,664406
1,2,3,0,1,1,0,-1,2021-08-07 12:56:42,664406
-4,-4,-4,-12,-10,-6,-5,-4,2021-08-07 12:56:42,664406
-3,-6,-5,-3,-8,-8,-5,-4,2021-08-07 12:56:42,711405
5,5,7,21,20,13,8,4,2021-08-07 12:56:42,743406
4,3,-3,-3,18,16,8,3,2021-08-07 12:56:42,759405
-4,-2,-2,-8,-9,-8,-4,-4,2021-08-07 12:56:42,763404
0,-1,0,7,-4,-6,-3,-2,2021-08-07 12:56:42,763404
-4,-7,-2,-8,-6,-6,-5,-5,2021-08-07 12:56:42,763404
0,2,0,6,3,0,1,3,2021-08-07 12:56:42,763404
-2,-6,-8,-34,-20,-8,-4,-2,2021-08-07 12:56:42,763404
-3,-2,-3,-4,-2,0,-3,-3,2021-08-07 12:56:42,764406
-1,0,0,2,-3,-5,-2,-1,2021-08-07 12:56:42,764406
-1,-1,-1,4,-5,-4,-3,-4,2021-08-07 12:56:42,764406
1,4,6,9,5,2,3,1,2021-08-07 12:56:42,764406
1,2,1,5,7,3,3,2,2021-08-07 12:56:42,764406
-2,-1,-5,-8,-7,-4,-2,-2,2021-08-07 12:56:42,764406
-4,-6,-6,-11,-8,-3,-2,-4,2021-08-07 12:56:42,765406
1,0,4,12,13,5,1,-1,2021-08-07 12:56:42,765406
0,1,-1,-6,-5,-2,-1,-2,2021-08-07 12:56:42,765406
0,5,2,6,10,6,3,1,2021-08-07 12:56:42,765406
0,0,-2,-5,-10,-3,-2,-1,2021-08-07 12:56:42,765406
-2,-2,-3,-4,-10,-8,-4,-3,2021-08-07 12:56:42,765406
2,2,1,2,9,6,4,1,2021-08-07 12:56:42,765406
0,0,0,-1,4,2,0,-2,2021-08-07 12:56:42,766409
-3,-3,-3,2,-12,-9,-4,-3,2021-08-07 12:56:42,791406
1,0,1,0,7,3,1,2,2021-08-07 12:56:42,791406
-3,-4,-5,-8,-4,-1,-3,-3,2021-08-07 12:56:42,791406
-4,-4,-6,-12,-16,-8,-6,-5,2021-08-07 12:56:42,791406
2,3,3,3,18,13,7,4,2021-08-07 12:56:42,807406
2,1,3,15,15,7,1,0,2021-08-07 12:56:42,823405
-1,-1,-1,-6,-10,-7,-3,-3,2021-08-07 12:56:42,839406
-3,-1,3,4,1,-1,-1,-1,2021-08-07 12:56:42,839406
1,0,-2,0,-8,-3,0,0,2021-08-07 12:56:42,839406
0,1,-2,-8,-8,-3,-1,0,2021-08-07 12:56:42,839406
-1,0,0,-1,3,2,-1,-1,2021-08-07 12:56:42,839406
-1,-4,-2,1,0,0,-2,-2,2021-08-07 12:56:42,839406
-2,-1,0,-1,-1,-3,-5,-3,2021-08-07 12:56:42,855406
-1,-2,-1,-3,-9,-4,-2,0,2021-08-07 12:56:42,886405
2,1,-1,-18,-19,-6,-1,1,2021-08-07 12:56:42,886405
6,5,5,13,31,15,8,6,2021-08-07 12:56:42,902405
2,-1,-2,5,2,-1,0,2,2021-08-07 12:56:42,902405
0,-2,-1,17,19,9,3,1,2021-08-07 12:56:42,902405
-3,-5,-4,-7,-11,-6,-4,-2,2021-08-07 12:56:42,902405
-4,-3,-2,-11,-12,-5,-2,-3,2021-08-07 12:56:42,902405
-5,-8,-5,-12,-20,-11,-8,-7,2021-08-07 12:56:42,902405
1,2,2,-7,2,2,-1,0,2021-08-07 12:56:42,902405
1,0,4,15,15,5,2,1,2021-08-07 12:56:42,903405
3,4,3,2,0,1,-1,3,2021-08-07 12:56:42,903405
0,1,-1,1,-2,-3,-2,0,2021-08-07 12:56:42,918406
-3,-4,-5,0,-14,-8,-3,-3,2021-08-07 12:56:42,934404
-2,-3,-6,-11,1,1,1,0,2021-08-07 12:56:42,949405
1,3,3,7,12,8,3,1,2021-08-07 12:56:42,949405
-1,0,-1,1,2,0,0,0,2021-08-07 12:56:42,949405
-5,-3,-6,-16,-17,-6,-4,-2,2021-08-07 12:56:42,949405
1,0,8,4,7,4,1,-1,2021-08-07 12:56:42,965407
0,-1,-7,4,-1,-2,-1,0,2021-08-07 12:56:42,965407
-3,-1,-3,1,-2,-2,-1,0,2021-08-07 12:56:42,965407
1,0,3,5,0,-3,-1,1,2021-08-07 12:56:42,965407
-4,-3,-4,-5,-13,-10,-4,-3,2021-08-07 12:56:42,965407
4,5,9,18,31,20,10,6,2021-08-07 12:56:42,965407
1,1,2,8,6,2,1,-1,2021-08-07 12:56:42,966406
1,1,-2,-7,-2,-1,-1,0,2021-08-07 12:56:42,966406
-2,-3,-2,-6,-9,-6,-4,-3,2021-08-07 12:56:42,966406
-4,-5,-6,-11,-18,-11,-5,-3,2021-08-07 12:56:42,966406
0,0,-1,-2,-3,-2,-1,0,2021-08-07 12:56:43,012405
0,0,0,5,2,1,-1,-1,2021-08-07 12:56:43,012405
1,3,2,9,16,8,3,2,2021-08-07 12:56:43,012405
-7,-6,-7,-7,-15,-11,-6,-6,2021-08-07 12:56:43,012405
4,3,5,9,13,9,5,3,2021-08-07 12:56:43,012405
-1,-1,-2,-13,-12,-7,-3,-2,2021-08-07 12:56:43,013405
1,2,1,4,6,4,1,2,2021-08-07 12:56:43,013405
-3,-3,-7,-3,-9,-5,-3,-3,2021-08-07 12:56:43,013405
-3,-6,-8,-26,-19,-8,-5,-4,2021-08-07 12:56:43,028407
-2,-2,-1,2,-1,0,-1,-2,2021-08-07 12:56:43,044405
-1,1,-2,5,4,1,0,1,2021-08-07 12:56:43,044405
1,3,8,6,3,2,2,1,2021-08-07 12:56:43,044405
1,3,4,13,8,2,0,1,2021-08-07 12:56:43,060407
-4,-2,-2,-3,-7,-7,-3,-2,2021-08-07 12:56:43,076406
-2,-4,-8,-12,-5,-1,-1,-1,2021-08-07 12:56:43,076406
1,0,1,-4,-11,-5,-4,-1,2021-08-07 12:56:43,076406
0,0,1,0,6,4,3,1,2021-08-07 12:56:43,076406
2,3,3,12,23,12,4,2,2021-08-07 12:56:43,076406
-3,-3,-5,1,-6,-6,-2,-4,2021-08-07 12:56:43,076406
-1,-2,-3,-12,-13,-7,-5,-1,2021-08-07 12:56:43,077407
0,1,1,3,-1,1,-1,0,2021-08-07 12:56:43,092407
-1,0,-1,-4,-5,-3,-2,-1,2021-08-07 12:56:43,108406
-1,1,-2,-1,-2,-1,0,-1,2021-08-07 12:56:43,124404
-3,-4,-5,-8,-5,-1,-3,-1,2021-08-07 12:56:43,124404
-3,-2,-2,-2,-6,-3,-3,-2,2021-08-07 12:56:43,124404
-2,-4,-3,-3,-2,1,-1,-1,2021-08-07 12:56:43,124404
0,0,-1,-2,0,-1,-1,-1,2021-08-07 12:56:43,124404
-2,0,-2,-6,-5,-4,-1,-2,2021-08-07 12:56:43,125407
-2,-3,-2,0,-1,0,0,-1,2021-08-07 12:56:43,125407
1,2,4,8,1,3,2,1,2021-08-07 12:56:43,125407
4,4,3,6,10,5,3,5,2021-08-07 12:56:43,140407
2,3,5,9,10,4,2,1,2021-08-07 12:56:43,156405
0,0,-7,-25,-14,-5,-2,-1,2021-08-07 12:56:43,156405
0,-2,1,7,13,3,2,-1,2021-08-07 12:56:43,156405
-2,-3,-3,-4,-10,-7,-6,-5,2021-08-07 12:56:43,156405
0,0,-1,3,1,-1,0,-1,2021-08-07 12:56:43,156405
0,1,2,3,1,-2,-2,0,2021-08-07 12:56:43,172406
0,2,1,1,3,4,3,1,2021-08-07 12:56:43,188407
-1,-1,2,2,1,0,-2,-2,2021-08-07 12:56:43,195405
-1,-2,-1,1,-1,1,1,2,2021-08-07 12:56:43,196407
-2,-2,-1,-3,-2,-5,-5,-3,2021-08-07 12:56:43,196407
-1,-4,-3,-10,-15,-9,-5,-1,2021-08-07 12:56:43,196407
