EMG 1,EMG 2,EMG 3,EMG 4,EMG 5,EMG 6,EMG 7,EMG 8,Timestamp,Milliseconds
1,3,6,16,23,14,6,0,2021-08-07 13:00:01,947695
3,5,4,4,0,2,2,2,2021-08-07 13:00:01,947695
-3,-3,-2,-5,-10,-10,-5,-3,2021-08-07 13:00:01,947695
-5,-5,-3,-6,-15,-7,-6,-4,2021-08-07 13:00:01,948696
-4,-5,-6,-7,-8,-9,-5,-3,2021-08-07 13:00:01,948696
0,0,1,2,0,3,2,1,2021-08-07 13:00:01,948696
0,-2,0,-1,-4,-2,-2,-3,2021-08-07 13:00:01,948696
-2,-4,-5,-5,-7,-6,-3,-3,2021-08-07 13:00:01,948696
2,4,2,-2,-6,1,-1,1,2021-08-07 13:00:01,963695
-2,3,1,0,0,-4,-4,-3,2021-08-07 13:00:01,979697
0,1,1,4,2,2,2,0,2021-08-07 13:00:01,979697
-5,-7,-6,-14,-18,-15,-9,-6,2021-08-07 13:00:01,979697
-2,-1,-4,-4,5,9,3,2,2021-08-07 13:00:01,979697
8,7,7,15,31,18,11,6,2021-08-07 13:00:01,979697
0,1,-1,2,1,1,1,2,2021-08-07 13:00:01,979697
-1,-3,-4,0,-3,-4,-2,-1,2021-08-07 13:00:01,979697
-4,-6,-4,-8,-16,-13,-7,-6,2021-08-07 13:00:01,995693
-6,-6,-4,-6,-14,-9,-4,-4,2021-08-07 13:00:01,995693
0,3,5,8,14,8,2,0,2021-08-07 13:00:02,027696
1,4,3,7,6,4,3,1,2021-08-07 13:00:02,027696
-4,-5,-6,-17,-26,-18,-9,-5,2021-08-07 13:00:02,027696
6,6,5,13,25,21,10,8,2021-08-07 13:00:02,027696
1,1,0,2,10,6,4,0,2021-08-07 13:00:02,027696
-1,3,3,3,7,3,2,2,2021-08-07 13:00:02,027696
-2,-2,0,0,0,4,1,-1,2021-08-07 13:00:02,075693
0,0,-2,-2,-3,-6,-4,0,2021-08-07 13:00:02,075693
-2,-3,-4,-7,-7,-4,-3,-3,2021-08-07 13:00:02,075693
2,2,2,3,-1,1,2,2,2021-08-07 13:00:02,075693
2,1,1,4,11,4,1,1,2021-08-07 13:00:02,075693
-1,-2,1,7,4,3,2,-1,2021-08-07 13:00:02,075693
-2,-1,-3,-8,-15,-13,-6,-3,2021-08-07 13:00:02,075693
-1,-4,-5,-4,4,1,0,-3,2021-08-07 13:00:02,075693
-1,2,0,-7,-15,-11,-3,-2,2021-08-07 13:00:02,091693
1,0,0,5,17,14,6,1,2021-08-07 13:00:02,107693
3,5,7,9,9,5,4,3,2021-08-07 13:00:02,107693
-1,-1,0,3,5,3,1,0,2021-08-07 13:00:02,107693
-2,-3,-4,-8,-18,-12,-6,-4,2021-08-07 13:00:02,107693
-1,-3,-2,0,-1,-1,-2,-3,2021-08-07 13:00:02,107693
-1,-4,-3,7,14,11,3,-1,2021-08-07 13:00:02,123693
0,1,-1,-5,-9,-6,-2,0,2021-08-07 13:00:02,138694
3,4,7,3,9,9,4,3,2021-08-07 13:00:02,138694
-4,-7,-6,-14,-29,-22,-11,-6,2021-08-07 13:00:02,138694
2,3,4,11,28,24,12,4,2021-08-07 13:00:02,138694
1,3,2,7,8,3,3,1,2021-08-07 13:00:02,138694
0,-2,-3,0,2,-2,-2,-1,2021-08-07 13:00:02,138694
-5,-2,-2,-6,-10,-7,-4,-3,2021-08-07 13:00:02,138694
-1,-5,-5,-7,-14,-12,-5,-3,2021-08-07 13:00:02,171693
1,1,1,-3,-2,-1,-3,0,2021-08-07 13:00:02,187693
-3,-5,-6,-6,-7,-6,-4,-2,2021-08-07 13:00:02,203203
4,3,3,6,17,12,5,6,2021-08-07 13:00:02,203203
-1,-1,1,-5,-15,-12,-6,-1,2021-08-07 13:00:02,203203
2,1,2,15,31,20,9,2,2021-08-07 13:00:02,203203
3,4,5,3,-1,-1,2,1,2021-08-07 13:00:02,203203
-4,-6,-4,-6,-11,-9,-4,-4,2021-08-07 13:00:02,203203
3,3,1,-3,-9,-4,-2,2,2021-08-07 13:00:02,203203
0,0,1,-7,-13,-8,-2,1,2021-08-07 13:00:02,203203
0,-1,-1,-1,-4,-1,-2,-2,2021-08-07 13:00:02,204206
-4,-5,-6,-5,0,-5,-3,-4,2021-08-07 13:00:02,204206
0,1,-3,-12,-15,-6,-3,0,2021-08-07 13:00:02,218205
0,1,4,9,26,15,7,0,2021-08-07 13:00:02,218205
3,1,2,9,18,11,6,3,2021-08-07 13:00:02,218205
0,2,2,-4,-10,-6,-1,0,2021-08-07 13:00:02,218205
-4,-5,-5,-2,0,-4,-5,-4,2021-08-07 13:00:02,250205
-4,-5,-6,-7,-10,-7,-6,-5,2021-08-07 13:00:02,266204
-3,-3,-3,2,-1,0,-1,-3,2021-08-07 13:00:02,281206
-1,0,0,-9,-18,-13,-7,-3,2021-08-07 13:00:02,297205
7,8,6,16,36,27,16,10,2021-08-07 13:00:02,313203
-4,-4,-3,-8,-15,-11,-6,-4,2021-08-07 13:00:02,313203
-2,-5,-4,-2,2,-1,0,-2,2021-08-07 13:00:02,313203
-1,-1,-1,0,-5,-4,-4,-2,2021-08-07 13:00:02,313203
-4,-1,-1,-11,-23,-11,-7,-3,2021-08-07 13:00:02,329204
5,5,5,16,31,17,8,2,2021-08-07 13:00:02,329204
-4,-4,-6,-5,-8,-8,-2,-2,2021-08-07 13:00:02,329204
-2,-1,0,-2,-2,-2,-2,-3,2021-08-07 13:00:02,329204
-4,-2,-3,-7,-19,-13,-6,-4,2021-08-07 13:00:02,329204
-1,-1,-2,2,2,5,2,2,2021-08-07 13:00:02,329204
1,3,3,0,4,0,0,1,2021-08-07 13:00:02,329204
-3,-5,-7,-1,2,-1,-1,-4,2021-08-07 13:00:02,329204
-2,-3,-3,-5,-6,-6,-3,-3,2021-08-07 13:00:02,329204
-4,-4,-4,-16,-35,-21,-10,-3,2021-08-07 13:00:02,330205
-2,-1,-3,2,1,4,0,0,2021-08-07 13:00:02,330205
4,6,2,2,32,22,11,8,2021-08-07 13:00:02,330205
0,-1,1,5,2,-2,-2,-3,2021-08-07 13:00:02,345208
-3,-2,-3,-5,-12,-11,-7,-2,2021-08-07 13:00:02,361205
1,-5,-4,-8,-17,-10,-4,1,2021-08-07 13:00:02,361205
0,0,2,11,17,13,4,2,2021-08-07 13:00:02,361205
-2,-2,-2,1,5,0,-2,-2,2021-08-07 13:00:02,361205
0,0,1,-8,-18,-13,-5,-2,2021-08-07 13:00:02,361205
-2,0,0,-3,-2,-2,-1,-1,2021-08-07 13:00:02,361205
2,2,1,12,20,15,6,3,2021-08-07 13:00:02,361205
-4,-3,-3,-1,3,0,0,-3,2021-08-07 13:00:02,377205
0,1,-2,0,-4,-3,0,1,2021-08-07 13:00:02,377205
-2,-3,-5,-8,-10,-5,-5,-2,2021-08-07 13:00:02,377205
-2,-4,-4,-10,-20,-11,-4,-1,2021-08-07 13:00:02,377205
5,7,8,17,27,19,8,4,2021-08-07 13:00:02,408204
0,0,0,-5,-12,-8,-2,-1,2021-08-07 13:00:02,408204
-2,-2,-3,-2,0,1,2,-2,2021-08-07 13:00:02,408204
0,-1,1,-1,-5,-3,-3,-1,2021-08-07 13:00:02,408204
1,1,0,-3,-2,-5,-2,0,2021-08-07 13:00:02,424204
-2,-5,-5,-11,-13,-7,-4,-3,2021-08-07 13:00:02,424204
0,1,4,0,-4,-1,-1,1,2021-08-07 13:00:02,424204
3,6,5,22,25,16,8,3,2021-08-07 13:00:02,424204
-3,-4,-7,-16,-6,-4,-2,-4,2021-08-07 13:00:02,440205
0,1,1,7,12,11,4,1,2021-08-07 13:00:02,456204
-3,-3,-3,-1,0,-4,-3,-5,2021-08-07 13:00:02,472205
-3,-3,-2,-12,-28,-17,-8,-4,2021-08-07 13:00:02,472205
0,0,0,12,18,12,5,3,2021-08-07 13:00:02,472205
0,3,3,3,6,7,3,1,2021-08-07 13:00:02,472205
-1,2,0,0,-2,-2,-2,-1,2021-08-07 13:00:02,472205
-3,-7,-5,-7,-4,-3,-3,-4,2021-08-07 13:00:02,472205
1,0,-1,-2,5,3,1,0,2021-08-07 13:00:02,488207
0,-1,0,0,1,0,2,2,2021-08-07 13:00:02,488207
1,1,1,0,-3,-4,-1,0,2021-08-07 13:00:02,488207
3,3,2,4,17,16,7,3,2021-08-07 13:00:02,488207
-5,-3,-5,-7,-16,-11,-6,-4,2021-08-07 13:00:02,504203
-4,-6,-4,-7,-10,-8,-6,-5,2021-08-07 13:00:02,504203
2,3,3,6,11,8,4,2,2021-08-07 13:00:02,504203
3,5,4,2,4,1,2,2,2021-08-07 13:00:02,504203
-6,-7,-6,-8,-13,-12,-8,-6,2021-08-07 13:00:02,519206
-2,-2,-2,0,-1,1,0,-1,2021-08-07 13:00:02,519206
-1,-3,0,6,13,7,3,0,2021-08-07 13:00:02,519206
-3,-1,-2,-14,-30,-18,-10,-3,2021-08-07 13:00:02,519206
0,1,5,10,6,5,2,-1,2021-08-07 13:00:02,551204
0,0,-1,4,13,6,3,1,2021-08-07 13:00:02,551204
-3,-5,-5,1,1,-4,-4,-3,2021-08-07 13:00:02,551204
-2,0,-1,-10,-19,-11,-4,-1,2021-08-07 13:00:02,551204
2,6,5,3,4,7,3,3,2021-08-07 13:00:02,583203
1,1,-1,-4,-8,-7,-2,-2,2021-08-07 13:00:02,599204
0,-2,-2,-1,2,4,1,2,2021-08-07 13:00:02,599204
-2,-2,0,4,2,-2,0,-1,2021-08-07 13:00:02,599204
-4,-5,-6,-7,-18,-12,-5,-4,2021-08-07 13:00:02,599204
-2,-3,-4,-12,2,4,-3,-4,2021-08-07 13:00:02,599204
3,5,5,5,5,4,4,1,2021-08-07 13:00:02,599204
0,-1,-2,-2,3,0,1,0,2021-08-07 13:00:02,599204
-3,-8,-6,-2,-6,-3,-4,-4,2021-08-07 13:00:02,599204
0,-2,2,7,7,3,0,-1,2021-08-07 13:00:02,600205
0,1,-1,-10,-13,-10,-4,-2,2021-08-07 13:00:02,600205
2,0,1,9,20,17,8,4,2021-08-07 13:00:02,600205
-2,0,-1,0,-6,-3,-2,-1,2021-08-07 13:00:02,630205
1,5,4,4,12,10,4,3,2021-08-07 13:00:02,630205
-3,-2,0,-3,-5,-6,-4,-4,2021-08-07 13:00:02,630205
-1,-1,0,2,2,4,1,0,2021-08-07 13:00:02,630205
3,4,3,2,4,0,1,3,2021-08-07 13:00:02,645206
-2,-3,-3,-2,-9,-5,-3,0,2021-08-07 13:00:02,661204
0,-2,0,3,3,2,1,1,2021-08-07 13:00:02,677204
-3,-3,-5,-9,-18,-17,-10,-5,2021-08-07 13:00:02,693205
-1,-4,-4,-15,-15,-5,-1,-2,2021-08-07 13:00:02,709205
3,5,5,10,9,1,2,2,2021-08-07 13:00:02,709205
2,1,1,12,20,16,6,3,2021-08-07 13:00:02,709205
-2,0,-2,0,-6,-5,-3,-1,2021-08-07 13:00:02,709205
-5,-7,-7,-10,-19,-14,-9,-5,2021-08-07 13:00:02,709205
0,0,1,2,8,6,2,1,2021-08-07 13:00:02,709205
2,4,1,6,25,18,7,2,2021-08-07 13:00:02,709205
-6,-8,-7,-13,-19,-13,-6,-5,2021-08-07 13:00:02,709205
2,5,3,0,-8,-10,-5,-1,2021-08-07 13:00:02,710206
-1,-5,-6,-12,-19,-8,-4,-2,2021-08-07 13:00:02,710206
1,2,2,5,5,12,5,1,2021-08-07 13:00:02,710206
0,2,4,17,38,18,6,0,2021-08-07 13:00:02,710206
1,2,1,-2,0,0,1,0,2021-08-07 13:00:02,725204
-9,-11,-11,-25,-52,-41,-20,-12,2021-08-07 13:00:02,725204
2,2,2,4,19,19,7,2,2021-08-07 13:00:02,725204
2,0,-3,-6,-6,-3,0,0,2021-08-07 13:00:02,725204
0,0,3,5,16,11,5,2,2021-08-07 13:00:02,741224
-2,-2,-3,-3,-10,-8,-5,-4,2021-08-07 13:00:02,741224
-4,-5,-5,-16,-29,-18,-10,-4,2021-08-07 13:00:02,741224
1,3,4,2,6,5,3,2,2021-08-07 13:00:02,741224
2,2,2,10,11,6,4,2,2021-08-07 13:00:02,757225
1,2,2,8,10,9,4,4,2021-08-07 13:00:02,757225
-5,-6,-11,-14,-14,-12,-8,-4,2021-08-07 13:00:02,757225
1,-1,0,-4,-2,3,0,1,2021-08-07 13:00:02,757225
-2,-2,-2,-3,-7,-9,-6,-4,2021-08-07 13:00:02,789225
3,4,6,10,13,7,5,1,2021-08-07 13:00:02,789225
0,2,2,5,1,2,2,1,2021-08-07 13:00:02,805225
-2,-5,-6,-12,-25,-12,-5,-5,2021-08-07 13:00:02,805225
-1,-3,-3,2,17,6,4,0,2021-08-07 13:00:02,805225
-3,-3,-1,4,4,-1,-2,-3,2021-08-07 13:00:02,805225
-3,-3,-2,-14,-27,-22,-8,-2,2021-08-07 13:00:02,805225
4,7,8,16,29,23,9,4,2021-08-07 13:00:02,805225
1,3,4,2,1,0,0,1,2021-08-07 13:00:02,821225
-2,-1,-1,7,14,13,5,1,2021-08-07 13:00:02,821225
-4,-6,-7,-11,-25,-22,-13,-4,2021-08-07 13:00:02,821225
-3,-2,-1,-2,-3,-5,-3,-3,2021-08-07 13:00:02,821225
-2,-4,-4,-8,-9,-3,-2,-3,2021-08-07 13:00:02,836225
8,8,10,10,15,7,5,5,2021-08-07 13:00:02,836225
-1,-2,-1,-3,-4,-2,-2,-2,2021-08-07 13:00:02,852225
-4,-4,-6,0,4,1,1,0,2021-08-07 13:00:02,868224
1,1,1,1,-2,-2,-2,1,2021-08-07 13:00:02,868224
-2,-1,-3,-8,-18,-6,-2,-1,2021-08-07 13:00:02,868224
2,0,1,-1,17,8,2,-1,2021-08-07 13:00:02,868224
-3,-5,-3,-6,-11,-6,-5,-2,2021-08-07 13:00:02,868224
-4,-5,-6,-12,-22,-17,-8,-4,2021-08-07 13:00:02,875224
6,8,10,27,60,42,19,5,2021-08-07 13:00:02,875224
0,1,4,6,0,-2,0,-2,2021-08-07 13:00:02,899224
-2,-3,-3,-5,-13,-11,-4,0,2021-08-07 13:00:02,915224
-3,-5,-6,-6,-9,-10,-7,-2,2021-08-07 13:00:02,931224
-2,0,-2,-11,-21,-10,-3,1,2021-08-07 13:00:02,931224
1,2,2,5,8,5,3,2,2021-08-07 13:00:02,931224
2,3,3,4,9,3,0,0,2021-08-07 13:00:02,931224
-3,-3,-5,-9,-19,-7,-5,-2,2021-08-07 13:00:02,931224
-5,-5,-4,4,8,3,0,-3,2021-08-07 13:00:02,931224
-2,-1,-3,-2,-4,-4,-2,-2,2021-08-07 13:00:02,931224
3,1,1,-1,1,1,0,1,2021-08-07 13:00:02,947224
2,3,4,9,11,8,4,2,2021-08-07 13:00:02,947224
-8,-10,-11,-25,-37,-25,-14,-9,2021-08-07 13:00:02,947224
3,5,6,17,24,20,11,5,2021-08-07 13:00:02,947224
-1,0,3,2,-4,-2,-2,-1,2021-08-07 13:00:02,947224
-4,-4,-6,-6,-3,-1,-1,-3,2021-08-07 13:00:02,963225
1,-1,1,-1,-9,-10,-3,-2,2021-08-07 13:00:02,963225
0,2,2,7,19,12,4,2,2021-08-07 13:00:02,963225
0,0,-2,-7,0,-1,1,-1,2021-08-07 13:00:02,963225
0,-1,0,2,3,1,1,-1,2021-08-07 13:00:02,979225
-3,-4,-7,-25,-55,-34,-14,-5,2021-08-07 13:00:02,979225
6,6,12,32,64,41,16,7,2021-08-07 13:00:02,979225
1,0,-1,1,4,3,1,-1,2021-08-07 13:00:02,979225
0,-1,0,6,16,9,4,0,2021-08-07 13:00:02,995223
-6,-9,-12,-18,-28,-20,-12,-7,2021-08-07 13:00:02,995223
0,2,4,4,-3,-5,-2,2,2021-08-07 13:00:03,011225
3,5,5,13,17,15,9,4,2021-08-07 13:00:03,026224
-2,0,-1,-2,-1,-1,-3,-2,2021-08-07 13:00:03,041738
-4,-4,-4,-8,-10,-7,-5,-3,2021-08-07 13:00:03,041738
-8,-8,-10,-21,-49,-31,-16,-7,2021-08-07 13:00:03,041738
3,2,5,17,36,23,11,2,2021-08-07 13:00:03,041738
3,7,7,10,15,8,5,2,2021-08-07 13:00:03,041738
1,1,2,8,23,12,4,2,2021-08-07 13:00:03,041738
-5,-6,-9,-15,-26,-18,-9,-6,2021-08-07 13:00:03,041738
-7,-9,-12,-24,-47,-31,-16,-6,2021-08-07 13:00:03,042740
6,5,7,11,14,12,6,4,2021-08-07 13:00:03,073739
4,7,8,20,36,24,11,5,2021-08-07 13:00:03,089739
-4,-6,-8,-11,-26,-18,-11,-5,2021-08-07 13:00:03,089739
-4,-4,-7,-21,-19,-14,-10,-5,2021-08-07 13:00:03,089739
0,0,1,7,10,7,2,2,2021-08-07 13:00:03,089739
-5,-7,-6,-6,-14,-7,-7,-6,2021-08-07 13:00:03,089739
6,6,7,8,15,16,8,5,2021-08-07 13:00:03,089739
3,4,7,15,23,15,6,2,2021-08-07 13:00:03,089739
0,1,-3,-2,-3,-3,-2,-1,2021-08-07 13:00:03,105739
-1,-2,-2,-2,0,-1,-3,-1,2021-08-07 13:00:03,105739
-2,-4,-4,-10,-15,-11,-6,-5,2021-08-07 13:00:03,105739
-3,-4,-3,-2,-9,-5,-4,-4,2021-08-07 13:00:03,105739
5,6,8,2,-1,2,4,3,2021-08-07 13:00:03,137739
0,0,1,6,11,8,6,3,2021-08-07 13:00:03,137739
-5,-6,-8,-25,-30,-20,-9,-4,2021-08-07 13:00:03,137739
-1,-1,-1,2,4,1,-2,0,2021-08-07 13:00:03,137739
-2,-1,-1,12,32,20,8,2,2021-08-07 13:00:03,169775
-1,-1,0,5,11,6,2,0,2021-08-07 13:00:03,169775
1,-1,-1,0,-2,-3,-1,-2,2021-08-07 13:00:03,169775
-3,-4,-1,-4,-14,-8,-3,-2,2021-08-07 13:00:03,169775
0,0,0,2,-7,-7,-2,-1,2021-08-07 13:00:03,169775
0,1,-3,-3,3,1,0,-1,2021-08-07 13:00:03,169775
-3,-3,-7,-14,-12,-7,-4,-4,2021-08-07 13:00:03,169775
-3,-1,-3,-3,-13,-10,-5,-5,2021-08-07 13:00:03,169775
-3,-4,-4,-9,-16,-9,-6,-3,2021-08-07 13:00:03,185738
4,6,7,23,35,26,12,6,2021-08-07 13:00:03,185738
-2,-3,-4,0,2,-1,-3,-2,2021-08-07 13:00:03,185738
0,1,-1,-9,-23,-16,-6,-3,2021-08-07 13:00:03,185738
0,-1,-3,-9,-1,0,1,-1,2021-08-07 13:00:03,217739
-2,-3,-3,-3,-7,-7,-5,-2,2021-08-07 13:00:03,217739
4,2,4,16,29,17,10,4,2021-08-07 13:00:03,217739
-1,-2,0,7,10,6,2,1,2021-08-07 13:00:03,217739
-6,-6,-7,-14,-25,-17,-10,-3,2021-08-07 13:00:03,217739
0,1,0,0,-4,-1,-1,-1,2021-08-07 13:00:03,217739
-3,-3,-1,-6,-7,-5,-3,-2,2021-08-07 13:00:03,233738
4,5,3,5,14,7,4,3,2021-08-07 13:00:03,234739
-3,-3,-3,2,-3,-2,0,-3,2021-08-07 13:00:03,249739
1,-1,0,5,7,5,1,0,2021-08-07 13:00:03,249739
4,10,8,13,6,6,2,4,2021-08-07 13:00:03,249739
-2,-2,-7,-18,-10,-6,-3,-3,2021-08-07 13:00:03,249739
0,0,2,2,1,1,-2,-1,2021-08-07 13:00:03,297740
-1,1,1,-2,-2,-3,-2,0,2021-08-07 13:00:03,313741
-4,-6,-4,-3,-6,-4,-3,-4,2021-08-07 13:00:03,329766
2,2,2,6,1,3,2,1,2021-08-07 13:00:03,345776
-2,-4,-3,-6,0,-3,-4,-2,2021-08-07 13:00:03,345776
-1,-2,0,-2,-5,-2,0,1,2021-08-07 13:00:03,345776
-2,-4,-3,-5,2,5,0,-3,2021-08-07 13:00:03,345776
3,3,1,12,20,8,4,2,2021-08-07 13:00:03,345776
1,3,2,-1,-2,-3,-1,1,2021-08-07 13:00:03,345776
1,2,2,3,1,-3,0,1,2021-08-07 13:00:03,345776
-1,-3,-5,-10,-16,-11,-6,-3,2021-08-07 13:00:03,345776
-3,-5,-6,-7,-8,-4,-4,-3,2021-08-07 13:00:03,345776
-1,-2,-1,-2,-7,-4,-1,-1,2021-08-07 13:00:03,346739
-1,-2,-3,-7,-9,-5,-2,0,2021-08-07 13:00:03,346739
-1,0,-2,4,6,5,1,1,2021-08-07 13:00:03,346739
-5,-6,-3,-10,-25,-19,-10,-4,2021-08-07 13:00:03,346739
5,8,7,20,38,29,14,5,2021-08-07 13:00:03,346739
-2,-2,-3,-8,3,1,0,-2,2021-08-07 13:00:03,346739
-3,-3,-3,1,0,-2,-3,-2,2021-08-07 13:00:03,346739
0,-2,0,0,-1,1,0,0,2021-08-07 13:00:03,346739
1,4,3,1,-8,-5,-3,1,2021-08-07 13:00:03,377788
-1,-2,-3,-2,-2,0,-2,-2,2021-08-07 13:00:03,377788
0,1,-1,-2,-4,-4,-1,-3,2021-08-07 13:00:03,377788
2,4,3,0,-3,-1,2,1,2021-08-07 13:00:03,377788
1,-1,-1,2,10,6,3,1,2021-08-07 13:00:03,393738
1,0,1,2,5,1,-1,0,2021-08-07 13:00:03,393738
-2,-4,-5,-4,-2,-1,-3,-3,2021-08-07 13:00:03,393738
1,1,5,5,3,0,-1,1,2021-08-07 13:00:03,393738
-4,-7,-7,-9,-12,-9,-5,-5,2021-08-07 13:00:03,409739
-1,1,-1,-4,-5,-3,0,0,2021-08-07 13:00:03,409739
2,4,4,0,-2,0,1,4,2021-08-07 13:00:03,409739
-2,-5,-7,3,14,9,3,-3,2021-08-07 13:00:03,409739
-1,1,2,-1,-6,-6,-3,-2,2021-08-07 13:00:03,441774
4,2,2,-4,-7,-3,0,2,2021-08-07 13:00:03,441774
-1,0,0,7,6,3,3,2,2021-08-07 13:00:03,441774
1,1,0,2,8,4,1,2,2021-08-07 13:00:03,441774
-1,-3,-1,0,-4,-3,-1,-1,2021-08-07 13:00:03,457738
-2,-5,-7,-8,-7,-5,-4,-4,2021-08-07 13:00:03,457738
0,3,4,5,1,-1,0,0,2021-08-07 13:00:03,457738
-2,-3,-1,-1,-1,-2,-1,-2,2021-08-07 13:00:03,457738
-3,-5,-10,-14,-15,-6,-4,-2,2021-08-07 13:00:03,489739
-2,-2,0,7,5,1,0,-3,2021-08-07 13:00:03,489739
2,-3,2,7,18,13,7,3,2021-08-07 13:00:03,489739
-2,0,-1,-5,-5,-3,-2,-1,2021-08-07 13:00:03,489739
0,0,0,5,18,11,4,1,2021-08-07 13:00:03,489739
4,7,7,15,31,21,10,5,2021-08-07 13:00:03,489739
-1,-2,-2,-3,-3,-3,1,-2,2021-08-07 13:00:03,489739
-1,-1,-1,1,-4,-6,-2,-1,2021-08-07 13:00:03,489739
-1,-3,-4,-7,-21,-17,-8,-4,2021-08-07 13:00:03,521738
0,1,2,-7,-13,-6,-4,0,2021-08-07 13:00:03,553764
-3,-4,-6,-14,-15,-9,-7,-5,2021-08-07 13:00:03,569767
1,3,3,1,0,3,1,2,2021-08-07 13:00:03,585764
-2,-3,-1,5,3,1,1,-1,2021-08-07 13:00:03,585764
-1,-1,0,1,-7,-5,-1,1,2021-08-07 13:00:03,585764
1,1,-4,-18,-12,-7,-2,0,2021-08-07 13:00:03,585764
0,0,2,13,26,16,9,2,2021-08-07 13:00:03,585764
-7,-8,-12,-8,-3,-2,-4,-5,2021-08-07 13:00:03,585764
1,3,5,4,2,0,1,1,2021-08-07 13:00:03,586766
0,3,3,3,-4,-4,-1,2,2021-08-07 13:00:03,586766
1,1,2,0,-6,-6,-3,1,2021-08-07 13:00:03,586766
1,3,2,0,2,2,2,1,2021-08-07 13:00:03,586766
-7,-9,-8,7,14,8,-1,-6,2021-08-07 13:00:03,586766
0,2,1,1,3,1,1,-2,2021-08-07 13:00:03,586766
-2,-2,0,3,3,1,-1,-1,2021-08-07 13:00:03,586766
1,2,2,1,-2,-1,-1,1,2021-08-07 13:00:03,586766
-1,-3,-6,-13,-19,-14,-9,-2,2021-08-07 13:00:03,586766
-3,-4,-4,-6,-10,-6,-5,-3,2021-08-07 13:00:03,601765
-1,-3,-2,-7,-5,-2,-2,0,2021-08-07 13:00:03,601765
0,2,5,3,6,3,1,0,2021-08-07 13:00:03,601765
2,2,1,-2,0,4,3,2,2021-08-07 13:00:03,601765
-4,-5,-4,2,6,1,-1,-3,2021-08-07 13:00:03,601765
5,8,8,4,-3,-1,1,4,2021-08-07 13:00:03,601765
0,2,0,0,4,4,3,3,2021-08-07 13:00:03,633763
-4,-3,-3,-2,-3,-6,-1,-2,2021-08-07 13:00:03,648764
-1,-1,0,6,10,8,2,0,2021-08-07 13:00:03,663763
-6,-8,-9,-18,-20,-12,-7,-6,2021-08-07 13:00:03,663763
5,5,6,8,9,1,1,1,2021-08-07 13:00:03,663763
-3,-3,-3,-8,-16,-10,-7,-1,2021-08-07 13:00:03,663763
1,1,0,9,16,7,1,1,2021-08-07 13:00:03,663763
-1,-3,-5,-3,-6,-5,-2,-2,2021-08-07 13:00:03,663763
-1,1,0,1,0,2,0,-1,2021-08-07 13:00:03,663763
-2,-4,-3,-2,-13,-9,-5,-3,2021-08-07 13:00:03,663763
-2,-6,-6,-9,-7,-5,-3,-3,2021-08-07 13:00:03,663763
3,6,5,-1,-1,1,1,1,2021-08-07 13:00:03,663763
-3,-3,-5,-8,-12,-11,-4,-4,2021-08-07 13:00:03,695763
4,5,7,22,42,27,12,3,2021-08-07 13:00:03,711763
-1,-2,0,2,-7,-4,-2,-2,2021-08-07 13:00:03,727765
-2,-3,-4,0,3,2,1,-2,2021-08-07 13:00:03,743765
-2,0,1,-8,-14,-9,-2,0,2021-08-07 13:00:03,759767
-1,1,1,-2,-4,-3,-1,0,2021-08-07 13:00:03,759992
2,4,3,7,8,6,5,4,2021-08-07 13:00:03,759992
-4,-7,-10,-13,-17,-13,-7,-4,2021-08-07 13:00:03,759992
0,-2,-2,-6,-3,1,1,1,2021-08-07 13:00:03,759992
-2,-2,-3,0,3,1,1,-2,2021-08-07 13:00:03,759992
-7,-7,-5,-1,0,-2,-2,-5,2021-08-07 13:00:03,759992
8,13,16,18,16,11,9,5,2021-08-07 13:00:03,775274
-3,-4,-4,-5,-7,-6,-4,-4,2021-08-07 13:00:03,791274
0,1,2,-1,3,4,-1,-1,2021-08-07 13:00:03,791274
0,1,0,-2,-3,-4,-1,0,2021-08-07 13:00:03,791274
-4,-7,-7,-2,0,-1,-3,-4,2021-08-07 13:00:03,791274
-1,-3,-4,-3,-5,-4,-3,-1,2021-08-07 13:00:03,791274
3,3,4,2,0,0,0,0,2021-08-07 13:00:03,791274
0,1,1,-2,-2,-1,-2,1,2021-08-07 13:00:03,792275
-8,-11,-11,-14,-28,-23,-13,-8,2021-08-07 13:00:03,792275
9,12,11,12,25,24,15,9,2021-08-07 13:00:03,792275
-2,-3,-3,1,6,1,0,-1,2021-08-07 13:00:03,792275
-1,0,1,-2,-4,-2,-1,0,2021-08-07 13:00:03,792275
0,-1,1,6,11,6,4,-1,2021-08-07 13:00:03,792275
-7,-8,-7,-10,-20,-16,-10,-6,2021-08-07 13:00:03,807274
-4,-8,-6,-9,-13,-8,-4,-4,2021-08-07 13:00:03,823274
6,8,8,8,9,9,6,5,2021-08-07 13:00:03,823274
-3,-4,-3,-6,-6,-4,-4,0,2021-08-07 13:00:03,823274
1,-1,1,4,4,3,1,-1,2021-08-07 13:00:03,823274
-1,-1,-2,-4,-5,-2,0,1,2021-08-07 13:00:03,823274
-1,-1,-3,-2,-7,-5,-3,-1,2021-08-07 13:00:03,839276
2,0,-1,1,3,2,0,2,2021-08-07 13:00:03,839276
-3,-3,-3,-5,-2,-2,-1,-2,2021-08-07 13:00:03,855276
-2,-2,-1,3,8,2,0,-1,2021-08-07 13:00:03,871274
3,6,7,8,8,5,4,2,2021-08-07 13:00:03,886274
2,3,2,3,7,7,4,2,2021-08-07 13:00:03,902274
-3,-4,-4,0,1,-2,-1,-4,2021-08-07 13:00:03,918274
-6,-9,-9,-8,-15,-13,-6,-4,2021-08-07 13:00:03,918274
-1,0,2,-5,-8,-3,-2,0,2021-08-07 13:00:03,918274
4,5,5,7,12,8,5,2,2021-08-07 13:00:03,918274
-2,-3,-2,3,0,-3,-1,-2,2021-08-07 13:00:03,918274
0,-2,-4,-9,-11,-3,-1,-1,2021-08-07 13:00:03,918274
-2,-2,-4,-1,1,-1,0,-2,2021-08-07 13:00:03,918274
0,2,0,-3,-3,-1,0,-1,2021-08-07 13:00:03,919275
-1,-3,-1,-2,1,3,-1,-1,2021-08-07 13:00:03,934274
1,2,3,0,-2,-3,-2,0,2021-08-07 13:00:03,934274
-2,-3,-2,-3,-8,-8,-5,-2,2021-08-07 13:00:03,934274
0,4,3,9,18,11,4,0,2021-08-07 13:00:03,934274
0,2,2,2,0,-1,0,1,2021-08-07 13:00:03,934274
3,4,2,1,-1,2,2,2,2021-08-07 13:00:03,934274
-2,-3,-3,-3,-6,-4,-4,-3,2021-08-07 13:00:03,934274
-4,-7,-8,-5,-7,-4,-4,-5,2021-08-07 13:00:03,935276
7,12,11,14,13,10,6,4,2021-08-07 13:00:03,963274
-1,-1,-2,-3,-3,-3,-3,-1,2021-08-07 13:00:03,963274
-3,-5,-6,-9,-13,-9,-6,-3,2021-08-07 13:00:03,963274
-4,-6,-6,-8,-10,-5,-4,-3,2021-08-07 13:00:03,963274
2,2,2,2,3,1,0,1,2021-08-07 13:00:03,963274
3,3,2,-2,-3,1,2,1,2021-08-07 13:00:03,964276
0,0,3,4,10,6,3,2,2021-08-07 13:00:03,981276
-3,-2,1,2,3,2,-1,0,2021-08-07 13:00:03,997274
-2,-5,-2,-1,0,-3,-2,-1,2021-08-07 13:00:04,013274
-2,-1,-3,-9,-22,-13,-6,-3,2021-08-07 13:00:04,013274
7,8,13,29,52,35,18,9,2021-08-07 13:00:04,013274
0,1,-1,-3,-5,-3,-1,1,2021-08-07 13:00:04,013274
-5,-4,-5,-6,-4,-5,-5,-5,2021-08-07 13:00:04,013274
-5,-4,-4,-4,-8,-6,-4,-2,2021-08-07 13:00:04,013274
-6,-9,-11,-13,-16,-12,-9,-6,2021-08-07 13:00:04,013274
4,6,9,5,0,-2,1,2,2021-08-07 13:00:04,014276
-1,-3,-3,-3,-7,-4,-3,0,2021-08-07 13:00:04,029274
2,3,3,2,10,5,1,1,2021-08-07 13:00:04,045274
-4,-3,-3,-4,-5,-2,-3,-2,2021-08-07 13:00:04,061276
1,0,-1,1,6,3,2,1,2021-08-07 13:00:04,061276
-2,-5,-5,-8,-11,-7,-4,-3,2021-08-07 13:00:04,061276
2,1,4,0,-2,-2,-1,1,2021-08-07 13:00:04,061276
0,0,-3,-6,-5,-1,-1,-2,2021-08-07 13:00:04,061276
-2,0,-2,-6,-13,-12,-5,-2,2021-08-07 13:00:04,061276
3,1,0,6,17,12,4,2,2021-08-07 13:00:04,077275
-2,0,-1,6,14,6,3,-1,2021-08-07 13:00:04,077275
-4,-3,-4,-6,-12,-11,-6,-3,2021-08-07 13:00:04,077275
2,2,2,-4,-6,0,2,2,2021-08-07 13:00:04,077275
0,-2,1,7,9,1,1,1,2021-08-07 13:00:04,093278
0,0,-1,-4,-3,-2,0,-1,2021-08-07 13:00:04,093278
0,-3,-2,-1,-11,-10,-4,-3,2021-08-07 13:00:04,093278
0,-1,-1,2,10,11,4,1,2021-08-07 13:00:04,093278
-1,-1,-2,-2,-4,-3,-1,-2,2021-08-07 13:00:04,109275
0,2,1,1,3,2,1,0,2021-08-07 13:00:04,109275
2,2,0,-3,-6,-4,-2,0,2021-08-07 13:00:04,109275
-3,-5,-6,-10,-14,-9,-5,-2,2021-08-07 13:00:04,109275
-4,-5,-6,-4,1,3,-1,-4,2021-08-07 13:00:04,141278
2,3,5,8,12,6,2,2,2021-08-07 13:00:04,141278
0,1,0,-4,-5,-2,-2,0,2021-08-07 13:00:04,141278
-2,-2,-4,-1,-1,0,-2,-1,2021-08-07 13:00:04,141278
-1,-1,0,-2,-3,-2,-1,-1,2021-08-07 13:00:04,141278
-4,-5,-5,-10,-16,-12,-8,-3,2021-08-07 13:00:04,141278
1,2,5,6,7,3,3,1,2021-08-07 13:00:04,141278
-1,-2,-3,1,4,2,0,-2,2021-08-07 13:00:04,141278
1,2,3,0,-1,0,1,2,2021-08-07 13:00:04,173325
-2,-2,-4,-3,-5,-1,-1,-3,2021-08-07 13:00:04,173325
1,2,0,3,4,1,0,-1,2021-08-07 13:00:04,173325
0,0,-2,-3,-2,-3,-2,0,2021-08-07 13:00:04,173767
-3,-2,-3,-9,-18,-12,-5,-4,2021-08-07 13:00:04,205292
2,-1,0,13,31,21,7,3,2021-08-07 13:00:04,221291
-1,1,2,2,1,1,1,1,2021-08-07 13:00:04,221291
0,0,1,-5,-12,-9,-4,-2,2021-08-07 13:00:04,221291
0,2,2,6,11,6,4,1,2021-08-07 13:00:04,237292
0,-1,0,3,5,2,1,3,2021-08-07 13:00:04,253292
-1,-3,-4,-5,-3,-1,0,-3,2021-08-07 13:00:04,269291
-1,-2,-4,2,5,2,-1,-1,2021-08-07 13:00:04,285292
-2,-4,-5,-10,-17,-12,-7,-2,2021-08-07 13:00:04,301293
0,2,0,-8,-18,-9,-3,-2,2021-08-07 13:00:04,301293
2,4,5,15,30,20,8,5,2021-08-07 13:00:04,317294
-4,-3,-2,1,-2,-5,-1,-4,2021-08-07 13:00:04,318293
2,2,2,5,8,4,0,1,2021-08-07 13:00:04,318293
-6,-6,-9,-15,-22,-16,-10,-3,2021-08-07 13:00:04,318293
3,3,3,2,3,4,0,2,2021-08-07 13:00:04,318293
-3,-5,-3,-1,-2,0,-3,-2,2021-08-07 13:00:04,318293
0,1,-1,0,3,3,0,0,2021-08-07 13:00:04,318293
0,-1,2,1,-1,-1,-1,1,2021-08-07 13:00:04,318293
-2,-1,1,-6,-12,-7,-4,-2,2021-08-07 13:00:04,319294
1,1,0,1,4,4,2,3,2021-08-07 13:00:04,319294
0,-2,-2,-4,-6,-6,-2,-2,2021-08-07 13:00:04,319294
0,-1,0,8,14,8,3,-1,2021-08-07 13:00:04,319294
-6,-6,-7,-7,-11,-10,-6,-7,2021-08-07 13:00:04,319294
6,8,8,11,15,14,12,4,2021-08-07 13:00:04,319294
9,5,2,1,5,13,14,9,2021-08-07 13:00:04,319294
9,5,4,1,2,2,3,6,2021-08-07 13:00:04,319294
-36,-29,-26,-25,-29,-41,-45,-40,2021-08-07 13:00:04,320293
-3,0,4,6,5,-2,-7,-3,2021-08-07 13:00:04,320293
-9,-6,-7,-8,-11,-10,-7,-6,2021-08-07 13:00:04,333291
4,1,2,3,7,10,11,5,2021-08-07 13:00:04,349292
12,13,9,10,10,15,16,12,2021-08-07 13:00:04,349292
-2,-7,-8,-10,-10,-6,-3,-2,2021-08-07 13:00:04,349292
7,11,11,10,13,6,6,5,2021-08-07 13:00:04,349292
1,-5,-4,-5,-3,-2,-1,-2,2021-08-07 13:00:04,349292
3,-1,-1,-1,-3,2,3,3,2021-08-07 13:00:04,349292
-4,-6,-5,-5,-1,-2,-4,-4,2021-08-07 13:00:04,349292
-1,-3,-2,-3,-5,1,-2,0,2021-08-07 13:00:04,380291
-4,-3,-3,-7,-11,-9,-8,-7,2021-08-07 13:00:04,380547
4,5,2,0,-1,1,3,5,2021-08-07 13:00:04,380547
2,1,3,-1,6,5,4,3,2021-08-07 13:00:04,380547
0,2,5,11,17,8,0,-2,2021-08-07 13:00:04,380547
-6,-2,-3,-3,-12,-11,-7,-6,2021-08-07 13:00:04,380547
1,-3,-2,-2,-6,0,1,2,2021-08-07 13:00:04,395804
0,0,0,0,-3,-1,-2,2,2021-08-07 13:00:04,395804
-4,-6,-5,-2,6,0,-2,-4,2021-08-07 13:00:04,411802
3,6,9,9,7,5,3,1,2021-08-07 13:00:04,426804
3,4,2,1,1,1,2,4,2021-08-07 13:00:04,442802
-5,-3,-5,-4,-11,-9,-7,-5,2021-08-07 13:00:04,442802
-1,0,-1,-6,-10,-4,-3,-2,2021-08-07 13:00:04,442802
-4,-5,-6,-3,-4,-2,-1,-2,2021-08-07 13:00:04,442802
-2,-5,-2,-1,3,5,3,1,2021-08-07 13:00:04,442802
3,4,2,-1,1,1,1,1,2021-08-07 13:00:04,442802
-1,-2,-2,5,6,1,1,1,2021-08-07 13:00:04,442802
-3,-1,-2,-1,-1,-1,-1,-2,2021-08-07 13:00:04,442802
2,0,2,3,6,4,5,3,2021-08-07 13:00:04,458803
-6,-8,-9,-11,-13,-11,-7,-4,2021-08-07 13:00:04,474802
2,3,3,3,4,5,3,1,2021-08-07 13:00:04,490803
1,3,1,2,6,4,-1,2,2021-08-07 13:00:04,490803
0,-2,-1,-1,-1,-3,0,-1,2021-08-07 13:00:04,490803
0,-2,-4,-1,-4,-2,-2,-2,2021-08-07 13:00:04,490803
0,0,1,-2,-3,-3,-2,0,2021-08-07 13:00:04,490803
-2,-1,0,-2,-2,-2,-3,-2,2021-08-07 13:00:04,490803
1,0,-1,2,7,6,2,1,2021-08-07 13:00:04,490803
0,-1,1,-1,-2,-2,1,-1,2021-08-07 13:00:04,491803
-5,-3,-4,-7,-11,-8,-5,-4,2021-08-07 13:00:04,522804
-4,-8,-6,-5,-4,-4,-5,-3,2021-08-07 13:00:04,538802
6,10,11,7,5,3,4,7,2021-08-07 13:00:04,554424
0,2,1,1,3,1,0,-2,2021-08-07 13:00:04,554424
-2,-3,-6,-10,-13,-9,-4,-4,2021-08-07 13:00:04,554424
-2,-5,-8,0,5,1,0,-1,2021-08-07 13:00:04,554424
-2,1,0,-3,-8,-5,-1,0,2021-08-07 13:00:04,554424
3,4,5,7,13,10,6,4,2021-08-07 13:00:04,555320
-1,-2,3,4,2,-1,-1,-3,2021-08-07 13:00:04,555320
-3,-3,-5,-6,-7,-6,-4,-3,2021-08-07 13:00:04,555320
-4,-5,-2,-2,-5,-4,-4,-4,2021-08-07 13:00:04,555320
-1,0,1,-1,-1,-2,-3,-1,2021-08-07 13:00:04,555320
-1,-1,-3,-8,-13,-7,-4,0,2021-08-07 13:00:04,569831
0,1,2,1,2,1,1,2,2021-08-07 13:00:04,585831
1,-1,-2,4,13,6,3,1,2021-08-07 13:00:04,585831
-1,-2,1,1,3,2,0,1,2021-08-07 13:00:04,585831
-4,-5,-3,-5,-5,-5,-6,-3,2021-08-07 13:00:04,585831
1,4,1,-6,-13,-9,-2,0,2021-08-07 13:00:04,585831
-3,-4,-4,-3,-3,-2,-3,-1,2021-08-07 13:00:04,585831
-1,0,0,0,0,2,0,-2,2021-08-07 13:00:04,585831
-2,-2,-4,0,1,0,0,-1,2021-08-07 13:00:04,617832
-1,3,2,1,2,4,3,1,2021-08-07 13:00:04,617832
0,1,1,2,1,-1,2,1,2021-08-07 13:00:04,617832
-5,-8,-7,-4,-9,-6,-5,-5,2021-08-07 13:00:04,617832
0,0,-1,-2,-1,-1,1,0,2021-08-07 13:00:04,633831
3,5,6,5,6,5,2,0,2021-08-07 13:00:04,649830
-1,-2,-3,-1,0,0,-3,-2,2021-08-07 13:00:04,649830
0,-2,-3,-5,-10,-5,-2,0,2021-08-07 13:00:04,649830
-3,-3,-4,-3,-10,-11,-6,-4,2021-08-07 13:00:04,649830
2,1,3,9,25,17,9,5,2021-08-07 13:00:04,649830
0,1,1,0,4,3,2,0,2021-08-07 13:00:04,649830
1,2,-1,0,2,0,2,2,2021-08-07 13:00:04,649830
-2,-3,-2,-1,-2,-2,-1,-1,2021-08-07 13:00:04,678830
-3,-5,-3,-7,-13,-9,-5,-2,2021-08-07 13:00:04,678830
-2,-1,-1,-5,-6,-4,-3,0,2021-08-07 13:00:04,679832
0,3,1,1,1,0,1,0,2021-08-07 13:00:04,679832
-2,-4,-4,-9,-7,-5,-3,-1,2021-08-07 13:00:04,679832
0,1,1,1,3,4,2,-1,2021-08-07 13:00:04,679832
-1,-2,-3,1,5,3,0,-3,2021-08-07 13:00:04,696830
-3,-3,-3,-5,-12,-9,-4,-3,2021-08-07 13:00:04,712830
1,3,0,-1,0,3,1,2,2021-08-07 13:00:04,712830
1,4,5,10,12,5,2,3,2021-08-07 13:00:04,712830
3,2,1,0,4,1,2,1,2021-08-07 13:00:04,712830
-5,-2,-5,-4,-1,-2,-3,-2,2021-08-07 13:00:04,712830
-1,-1,-3,-1,-4,-2,-3,-1,2021-08-07 13:00:04,744830
-1,-3,-3,-6,-7,-4,-4,-2,2021-08-07 13:00:04,760831
-2,-4,-3,-5,-8,-5,-2,-3,2021-08-07 13:00:04,760831
1,-2,2,2,1,1,-1,1,2021-08-07 13:00:04,761072
-1,-1,2,2,5,2,2,1,2021-08-07 13:00:04,761072
0,0,0,-2,-5,-3,-1,0,2021-08-07 13:00:04,761072
-2,-2,-2,-6,-10,-7,-4,-2,2021-08-07 13:00:04,761072
1,-1,1,3,8,4,3,1,2021-08-07 13:00:04,761072
2,3,4,12,14,7,3,2,2021-08-07 13:00:04,776339
0,-3,-5,-4,-3,-4,-1,-3,2021-08-07 13:00:04,776339
-2,-2,-2,-6,-10,-5,-4,-1,2021-08-07 13:00:04,776339
0,0,-1,1,0,-1,1,0,2021-08-07 13:00:04,776339
-3,-3,-3,-6,-9,-4,-3,-1,2021-08-07 13:00:04,792339
-2,-1,2,4,4,-1,-2,0,2021-08-07 13:00:04,792339
0,0,-1,1,3,2,-2,1,2021-08-07 13:00:04,792339
2,2,2,1,0,0,1,0,2021-08-07 13:00:04,792339
-2,0,1,3,7,5,1,0,2021-08-07 13:00:04,807339
-2,1,-2,-5,-10,-6,-4,-1,2021-08-07 13:00:04,823340
-1,0,-1,3,2,3,1,-1,2021-08-07 13:00:04,855341
-4,-4,-2,-4,-8,-7,-4,-3,2021-08-07 13:00:04,855341
0,0,0,5,9,10,3,0,2021-08-07 13:00:04,855341
-1,-1,-1,0,-1,0,-1,2,2021-08-07 13:00:04,855341
-1,-1,-1,-1,-1,-3,-1,-1,2021-08-07 13:00:04,855341
-2,-2,-3,-2,-1,0,-1,-2,2021-08-07 13:00:04,855341
0,0,-1,-5,-6,-6,-2,-1,2021-08-07 13:00:04,855341
0,-1,0,-1,-2,-1,-2,-2,2021-08-07 13:00:04,855341
-2,1,-3,-1,-5,-5,-2,0,2021-08-07 13:00:04,855341
1,2,2,0,-1,3,1,2,2021-08-07 13:00:04,856341
2,3,2,1,7,3,3,2,2021-08-07 13:00:04,871342
-2,-3,-1,2,8,5,1,0,2021-08-07 13:00:04,887339
-3,-6,-4,-2,-3,-5,-3,-3,2021-08-07 13:00:04,887339
0,-2,0,-2,-3,-4,-3,-1,2021-08-07 13:00:04,887339
3,4,3,3,2,2,1,2,2021-08-07 13:00:04,887339
1,0,-4,-3,-4,-4,-2,-1,2021-08-07 13:00:04,887339
-1,-3,0,-5,-6,-3,-2,-1,2021-08-07 13:00:04,887339
-1,0,-1,4,4,3,1,1,2021-08-07 13:00:04,888341
-3,-5,-6,-9,-11,-6,-5,-3,2021-08-07 13:00:04,919341
-1,2,2,4,5,2,0,0,2021-08-07 13:00:04,935339
2,1,1,3,3,2,0,1,2021-08-07 13:00:04,951339
-3,-1,-1,-3,-2,-1,-2,0,2021-08-07 13:00:04,951339
0,-1,-2,-3,-5,-3,-1,-2,2021-08-07 13:00:04,951339
1,0,1,-1,1,1,1,0,2021-08-07 13:00:04,951339
-1,-2,-2,-4,-4,-2,-1,0,2021-08-07 13:00:04,951339
-2,-1,0,0,-1,-2,-2,0,2021-08-07 13:00:04,951339
2,1,1,2,7,5,2,2,2021-08-07 13:00:04,951339
-3,-6,-4,-5,-11,-6,-6,-5,2021-08-07 13:00:04,951339
2,2,2,13,22,14,5,2,2021-08-07 13:00:04,952341
0,0,-2,-5,-8,-7,-3,-2,2021-08-07 13:00:04,952341
-1,-1,-1,3,5,3,0,-2,2021-08-07 13:00:04,983339
0,-1,0,0,-2,-1,-1,-1,2021-08-07 13:00:04,999339
-2,-3,-6,-7,-10,-8,-6,-2,2021-08-07 13:00:04,999339
-2,-3,-4,-6,-7,-4,-3,-4,2021-08-07 13:00:04,999339
5,9,8,8,11,9,6,4,2021-08-07 13:00:04,999339
-1,-2,-2,-2,-4,-4,-2,-1,2021-08-07 13:00:04,999339
-1,-1,-3,-3,-8,-4,-2,-3,2021-08-07 13:00:04,999339
0,-1,-2,2,3,2,0,-1,2021-08-07 13:00:04,999339
-4,-6,-7,-10,-17,-11,-5,-5,2021-08-07 13:00:05,014339
-1,1,1,2,11,6,3,2,2021-08-07 13:00:05,030339
3,5,8,9,10,5,5,4,2021-08-07 13:00:05,042339
0,0,2,6,8,4,2,1,2021-08-07 13:00:05,042339
-2,-4,-4,-3,-4,-6,-5,-4,2021-08-07 13:00:05,042339
-2,-4,-5,-8,-12,-9,-4,-3,2021-08-07 13:00:05,042339
-1,-5,-4,-6,-4,-3,-3,-2,2021-08-07 13:00:05,042339
7,9,9,5,7,5,4,5,2021-08-07 13:00:05,042339
-4,-6,-6,-7,-12,-9,-4,-3,2021-08-07 13:00:05,062339
2,4,5,9,17,12,5,1,2021-08-07 13:00:05,078339
-3,-2,-1,-5,-4,-2,-1,-2,2021-08-07 13:00:05,094339
-1,-1,-2,3,2,1,1,0,2021-08-07 13:00:05,094339
-1,0,1,0,-4,-5,-3,0,2021-08-07 13:00:05,094339
-2,-2,-4,-9,-17,-12,-6,-2,2021-08-07 13:00:05,094339
-2,-4,-3,-5,-2,0,-2,-1,2021-08-07 13:00:05,094339
1,4,5,6,14,10,6,3,2021-08-07 13:00:05,094339
-2,-2,-1,0,-2,-1,0,-3,2021-08-07 13:00:05,094339
0,0,-1,-3,-6,-6,-4,-2,2021-08-07 13:00:05,095340
-1,-2,-3,-7,-9,-6,-4,-2,2021-08-07 13:00:05,095340
-2,-5,-6,-4,-7,-5,-3,-2,2021-08-07 13:00:05,095340
2,0,0,0,1,-1,1,0,2021-08-07 13:00:05,125339
-2,-5,-4,-3,2,2,0,0,2021-08-07 13:00:05,141339
4,6,5,7,8,4,4,2,2021-08-07 13:00:05,157339
-2,-2,-2,-1,0,-1,-2,-3,2021-08-07 13:00:05,173340
-2,0,1,2,5,0,0,0,2021-08-07 13:00:05,189340
-1,-4,-2,-2,-2,-2,0,-1,2021-08-07 13:00:05,189340
-4,-2,-3,-9,-12,-3,-3,0,2021-08-07 13:00:05,189340
1,0,2,4,7,4,0,0,2021-08-07 13:00:05,189340
-2,-2,-3,-3,-1,-1,-1,-2,2021-08-07 13:00:05,205340
0,-1,0,3,5,3,1,-2,2021-08-07 13:00:05,205340
-4,-5,-4,0,-3,-4,-3,-4,2021-08-07 13:00:05,205340
-4,-1,-1,-7,-14,-8,-5,-3,2021-08-07 13:00:05,205340
4,8,8,8,11,10,5,6,2021-08-07 13:00:05,205340
-1,-2,-4,-2,-1,-1,-1,-1,2021-08-07 13:00:05,205340
-1,-1,1,4,10,4,0,0,2021-08-07 13:00:05,205340
-2,-4,-6,-4,-6,-5,-3,-2,2021-08-07 13:00:05,205340
-3,-1,-3,-5,-7,-5,-4,-1,2021-08-07 13:00:05,206341
-1,-1,0,-5,-6,-6,-2,-1,2021-08-07 13:00:05,206341
-3,-4,-3,-3,-4,-3,-2,-3,2021-08-07 13:00:05,206341
2,4,4,1,2,2,0,2,2021-08-07 13:00:05,206341
-1,-2,-1,-1,3,2,0,1,2021-08-07 13:00:05,206341
-1,1,0,0,-1,1,1,2,2021-08-07 13:00:05,206341
-1,-3,-4,-7,-8,-5,-3,-2,2021-08-07 13:00:05,206341
0,-2,-1,1,-2,-2,0,-1,2021-08-07 13:00:05,206341
-2,-3,-2,-3,1,1,-1,-2,2021-08-07 13:00:05,236341
-2,1,1,0,-4,-2,-2,0,2021-08-07 13:00:05,236341
0,1,2,10,12,5,4,1,2021-08-07 13:00:05,236341
3,4,4,4,7,4,4,2,2021-08-07 13:00:05,236341
-3,-4,-3,-4,-2,-3,-2,-4,2021-08-07 13:00:05,252340
0,1,3,3,0,0,-1,-1,2021-08-07 13:00:05,268339
-2,0,0,-4,-5,-2,-2,-1,2021-08-07 13:00:05,268339
-4,-4,-4,-4,-8,-7,-6,-2,2021-08-07 13:00:05,268339
-1,-1,-2,0,3,3,0,-1,2021-08-07 13:00:05,268339
1,-1,0,1,7,4,0,-1,2021-08-07 13:00:05,268339
0,1,0,-2,-1,-1,-1,1,2021-08-07 13:00:05,283339
-1,-3,-3,-2,3,3,1,-3,2021-08-07 13:00:05,283339
1,1,0,-6,-11,-6,-2,1,2021-08-07 13:00:05,299340
-3,-3,-2,-2,-3,-4,-4,-3,2021-08-07 13:00:05,299340
0,3,4,3,2,2,0,-2,2021-08-07 13:00:05,299340
-4,-3,-1,4,12,5,2,-3,2021-08-07 13:00:05,299340
-1,2,2,3,2,0,-2,0,2021-08-07 13:00:05,315339
-2,-1,-3,-2,-4,0,1,-2,2021-08-07 13:00:05,330339
-2,-3,-4,-8,-9,-8,-3,-3,2021-08-07 13:00:05,346339
3,3,2,-3,-5,-2,-1,1,2021-08-07 13:00:05,362341
2,3,1,3,1,0,1,2,2021-08-07 13:00:05,394341
-3,-3,-5,-5,-4,1,-2,0,2021-08-07 13:00:05,397339
2,3,3,8,15,6,4,4,2021-08-07 13:00:05,397339
-2,0,-3,-2,0,0,2,0,2021-08-07 13:00:05,397339
-1,-1,-1,-1,1,-3,0,-2,2021-08-07 13:00:05,397339
-3,-3,-3,-9,-12,-8,-3,-3,2021-08-07 13:00:05,397339
1,-1,1,-2,-3,-1,0,0,2021-08-07 13:00:05,398340
0,-1,-1,1,4,3,-1,-1,2021-08-07 13:00:05,398340
-1,-4,-2,1,-2,-2,-2,-2,2021-08-07 13:00:05,398340
1,0,0,-3,-1,0,1,2,2021-08-07 13:00:05,398340
-1,1,0,0,4,3,1,0,2021-08-07 13:00:05,398340
1,2,2,3,2,-1,0,2,2021-08-07 13:00:05,398340
-2,-3,-5,0,-4,0,-1,-3,2021-08-07 13:00:05,398340
2,4,3,2,2,-1,0,1,2021-08-07 13:00:05,398340
-2,-4,-3,0,-1,-2,-2,-2,2021-08-07 13:00:05,398340
0,1,2,1,1,1,0,1,2021-08-07 13:00:05,399340
1,0,0,1,2,0,0,0,2021-08-07 13:00:05,426339
-1,1,-1,1,2,0,0,-1,2021-08-07 13:00:05,426339
-1,0,-3,-3,-7,-4,-2,0,2021-08-07 13:00:05,426339
-3,-4,-3,-2,-2,-1,1,-3,2021-08-07 13:00:05,426339
2,0,2,0,2,1,0,1,2021-08-07 13:00:05,441340
0,-4,-2,0,0,-2,-2,-1,2021-08-07 13:00:05,457339
-2,-1,-1,-3,-4,-3,-1,0,2021-08-07 13:00:05,457339
-2,-2,-2,0,1,0,-1,-2,2021-08-07 13:00:05,457339
-1,0,1,-1,2,0,1,0,2021-08-07 13:00:05,457339
-3,-3,-4,-3,-5,-3,-3,-4,2021-08-07 13:00:05,457339
3,4,4,9,6,3,2,2,2021-08-07 13:00:05,457339
-2,-4,-4,-4,-4,-4,-1,-3,2021-08-07 13:00:05,457339
-2,-1,-2,-2,0,2,-1,-1,2021-08-07 13:00:05,473341
-1,-1,0,3,3,1,0,0,2021-08-07 13:00:05,489339
-3,-3,-1,-5,-7,-5,-2,-1,2021-08-07 13:00:05,489339
2,2,3,3,5,5,1,1,2021-08-07 13:00:05,489339
1,1,0,0,-2,-1,0,0,2021-08-07 13:00:05,489339
-2,0,-1,-3,-3,-2,-1,0,2021-08-07 13:00:05,489339
-3,-4,-4,-7,-12,-10,-6,-3,2021-08-07 13:00:05,489339
4,3,2,5,15,12,5,3,2021-08-07 13:00:05,490342
-3,-5,-3,-2,2,-1,-1,-3,2021-08-07 13:00:05,521339
0,2,1,-1,1,2,2,1,2021-08-07 13:00:05,537340
2,3,3,0,0,0,0,1,2021-08-07 13:00:05,537340
-2,-1,-3,-8,-15,-9,-5,-3,2021-08-07 13:00:05,537340
-2,-3,-3,1,1,-1,-1,-1,2021-08-07 13:00:05,537340
-2,-1,0,3,-3,-3,-1,-1,2021-08-07 13:00:05,537340
-1,-2,-4,-3,1,2,-1,-3,2021-08-07 13:00:05,537340
0,0,1,0,1,0,0,0,2021-08-07 13:00:05,537340
-1,-2,-2,-2,-3,-2,0,0,2021-08-07 13:00:05,553339
-2,-2,-1,-1,-2,-3,-2,-1,2021-08-07 13:00:05,569340
-1,-4,-3,-3,0,0,1,-2,2021-08-07 13:00:05,585339
-2,-1,-1,0,-3,-3,-2,0,2021-08-07 13:00:05,601339
-1,0,-2,-4,-6,-4,-3,-1,2021-08-07 13:00:05,617339
0,-1,1,2,6,3,1,-2,2021-08-07 13:00:05,617339
2,5,5,1,6,5,4,4,2021-08-07 13:00:05,617339
-1,-5,-5,-5,-8,-3,-3,-2,2021-08-07 13:00:05,617339
-2,-1,-2,-8,-8,-4,-3,-1,2021-08-07 13:00:05,617339
1,1,1,4,4,3,2,1,2021-08-07 13:00:05,617339
-2,-1,-1,1,-3,-2,-1,-2,2021-08-07 13:00:05,617339
0,-1,-2,1,2,-1,2,0,2021-08-07 13:00:05,617339
1,-1,1,-6,-11,-7,-4,-1,2021-08-07 13:00:05,618341
-1,-4,-5,1,5,5,-1,-1,2021-08-07 13:00:05,618341
1,2,2,7,9,5,2,1,2021-08-07 13:00:05,618341
1,-1,-2,-3,-6,-5,-4,-1,2021-08-07 13:00:05,618341
-1,-1,-2,2,1,0,0,-2,2021-08-07 13:00:05,633340
-5,-6,-6,-12,-14,-10,-5,-5,2021-08-07 13:00:05,633340
4,4,6,8,8,7,5,4,2021-08-07 13:00:05,633340
0,0,0,-3,-3,-3,-2,-2,2021-08-07 13:00:05,633340
-1,0,1,0,1,2,1,-1,2021-08-07 13:00:05,665339
-1,-3,-3,-1,-6,-5,-3,-2,2021-08-07 13:00:05,680339
-2,-1,-2,0,6,5,1,-1,2021-08-07 13:00:05,696339
-1,0,1,5,5,1,1,0,2021-08-07 13:00:05,696339
1,-1,-2,1,3,2,-1,-1,2021-08-07 13:00:05,712340
-2,2,3,-1,-3,-2,0,-1,2021-08-07 13:00:05,712340
-3,-3,-4,-4,-8,-7,-4,-3,2021-08-07 13:00:05,712340
0,-1,2,0,0,2,3,2,2021-08-07 13:00:05,712340
-1,-2,0,0,3,2,0,-1,2021-08-07 13:00:05,712340
4,5,4,5,4,3,2,3,2021-08-07 13:00:05,712340
-2,-1,-1,-4,-5,0,-1,-2,2021-08-07 13:00:05,712340
-2,-1,-3,1,3,1,1,0,2021-08-07 13:00:05,712340
-2,-3,-3,0,-3,-4,-2,-1,2021-08-07 13:00:05,712340
0,-1,-1,-3,-1,0,1,0,2021-08-07 13:00:05,712340
0,-3,-2,-3,-3,-2,-1,-2,2021-08-07 13:00:05,713342
-1,0,0,-2,-6,-5,-4,-2,2021-08-07 13:00:05,713342
0,2,1,2,3,5,3,2,2021-08-07 13:00:05,728340
2,1,0,2,4,1,2,1,2021-08-07 13:00:05,728340
-1,-1,-3,3,4,2,0,-1,2021-08-07 13:00:05,755339
-2,-1,-2,-3,-3,-3,-2,-1,2021-08-07 13:00:05,755339
4,4,5,8,8,3,3,2,2021-08-07 13:00:05,755339
-4,-5,-6,-6,-8,-6,-7,-3,2021-08-07 13:00:05,755339
-1,-4,-4,-7,-11,-8,-3,-2,2021-08-07 13:00:05,755339
3,5,4,7,9,7,3,1,2021-08-07 13:00:05,755339
-2,-2,-3,-1,-2,-3,-1,-2,2021-08-07 13:00:05,775339
2,3,2,-1,-2,0,2,2,2021-08-07 13:00:05,775339
0,-2,-2,2,8,5,1,0,2021-08-07 13:00:05,775339
-1,-2,-2,-3,-10,-5,-1,-1,2021-08-07 13:00:05,775339
-2,-1,-3,-6,-5,-2,-2,-2,2021-08-07 13:00:05,791339
0,-1,-1,4,8,4,0,0,2021-08-07 13:00:05,807339
-2,-2,1,1,-1,-2,-2,-1,2021-08-07 13:00:05,823340
-2,-2,-4,-7,-11,-8,-4,-3,2021-08-07 13:00:05,839340
1,2,3,6,5,3,1,0,2021-08-07 13:00:05,855341
0,-2,0,-1,2,2,0,-1,2021-08-07 13:00:05,855341
1,0,-1,-2,0,0,1,0,2021-08-07 13:00:05,855341
-2,-3,-4,-3,-3,-4,-3,-4,2021-08-07 13:00:05,855341
-2,-3,-2,-4,-7,-4,-3,-1,2021-08-07 13:00:05,855341
-1,1,1,-4,-5,-1,-1,1,2021-08-07 13:00:05,855341
1,2,2,6,6,5,2,1,2021-08-07 13:00:05,855341
-1,-1,1,-1,-4,-1,-2,0,2021-08-07 13:00:05,856342
-1,0,-2,-2,-3,-2,1,-1,2021-08-07 13:00:05,856342
-2,0,-1,4,8,5,1,-2,2021-08-07 13:00:05,856342
-1,-1,-2,-4,-7,-6,-4,-1,2021-08-07 13:00:05,856342
-1,-2,-3,-4,-1,-1,-2,-2,2021-08-07 13:00:05,856342
0,0,-1,2,3,1,1,-2,2021-08-07 13:00:05,871340
-3,-1,-2,-3,-1,-2,1,0,2021-08-07 13:00:05,886339
-3,-3,-3,-4,-3,-4,-2,-1,2021-08-07 13:00:05,886339
-1,-2,1,-2,0,-2,-2,-2,2021-08-07 13:00:05,886339
2,2,2,1,4,3,2,2,2021-08-07 13:00:05,917339
-1,-4,-4,-9,-13,-7,-5,-3,2021-08-07 13:00:05,933339
0,-2,1,8,19,11,4,2,2021-08-07 13:00:05,933339
3,3,3,2,-1,0,2,3,2021-08-07 13:00:05,933339
-1,-2,-2,-3,-3,-3,-2,-1,2021-08-07 13:00:05,933339
0,-1,-1,0,1,0,0,-1,2021-08-07 13:00:05,933339
-2,-1,-3,-6,-10,-7,-4,-1,2021-08-07 13:00:05,933339
-2,-1,-4,-4,-1,1,1,-2,2021-08-07 13:00:05,933339
-1,-2,-1,-1,-1,-1,-2,-2,2021-08-07 13:00:05,934341
2,3,3,2,2,4,3,1,2021-08-07 13:00:05,934341
-1,-1,-1,-4,-6,-5,-2,-2,2021-08-07 13:00:05,934341
-1,-2,-2,-5,-5,-4,0,-1,2021-08-07 13:00:05,934341
-1,0,1,5,9,5,0,0,2021-08-07 13:00:05,949341
-3,-1,-2,2,2,-1,0,-3,2021-08-07 13:00:05,949341
0,-1,-1,-4,-5,-2,-3,0,2021-08-07 13:00:05,949341
0,-1,0,0,0,-2,-2,0,2021-08-07 13:00:05,949341
-1,-3,-4,-7,-9,-5,-3,-3,2021-08-07 13:00:05,997339
0,0,-1,-1,-2,-1,0,2,2021-08-07 13:00:06,012339
1,0,-1,0,-2,2,2,0,2021-08-07 13:00:06,012339
-1,0,1,6,14,7,4,1,2021-08-07 13:00:06,012339
-3,0,0,3,3,2,0,-1,2021-08-07 13:00:06,012339
-3,-3,-1,-1,-5,-5,-5,-5,2021-08-07 13:00:06,012339
0,1,1,0,0,-2,-2,1,2021-08-07 13:00:06,012339
1,1,2,4,4,3,0,0,2021-08-07 13:00:06,012339
-1,1,-1,-1,1,-1,0,0,2021-08-07 13:00:06,013340
0,-2,-3,-1,-3,-3,-1,-1,2021-08-07 13:00:06,013340
0,-3,-3,-3,-6,-3,-3,-2,2021-08-07 13:00:06,013340
1,2,0,-1,-2,-1,-2,-1,2021-08-07 13:00:06,013340
0,0,1,-2,0,-1,-1,0,2021-08-07 13:00:06,043340
-2,-2,-3,-5,-7,-6,-2,0,2021-08-07 13:00:06,043340
-1,2,1,3,10,5,3,0,2021-08-07 13:00:06,043340
-1,-2,-2,0,-3,-1,-1,-1,2021-08-07 13:00:06,043340
-1,0,-1,0,-2,-2,-2,-1,2021-08-07 13:00:06,059340
-1,-1,-2,0,0,0,-2,-1,2021-08-07 13:00:06,075340
-4,-6,-3,-5,-6,-5,-3,-3,2021-08-07 13:00:06,090340
0,0,-2,-1,-2,-1,2,-1,2021-08-07 13:00:06,106339
2,6,5,4,1,2,2,1,2021-08-07 13:00:06,106339
1,0,3,4,5,3,2,-1,2021-08-07 13:00:06,106339
1,0,1,0,1,-3,0,-1,2021-08-07 13:00:06,106339
-4,-4,-4,-6,-9,-8,-5,-2,2021-08-07 13:00:06,106339
0,-2,-1,0,4,3,3,1,2021-08-07 13:00:06,106339
0,2,1,3,4,2,1,1,2021-08-07 13:00:06,106339
-2,-2,-2,-4,-7,-4,-2,-2,2021-08-07 13:00:06,106339
-3,-3,-4,-3,0,-2,-3,-3,2021-08-07 13:00:06,107341
2,2,1,1,-1,0,1,0,2021-08-07 13:00:06,107341
0,2,1,1,0,0,0,1,2021-08-07 13:00:06,107341
-2,-1,-4,-5,-8,-5,-2,-1,2021-08-07 13:00:06,107341
0,-2,1,-2,-4,0,-1,-1,2021-08-07 13:00:06,107341
-3,-5,-4,-2,2,0,-1,-3,2021-08-07 13:00:06,138340
1,3,5,8,8,7,3,2,2021-08-07 13:00:06,138340
1,2,0,2,5,5,3,2,2021-08-07 13:00:06,138340
-7,-11,-13,-20,-22,-18,-10,-6,2021-08-07 13:00:06,138340
2,3,3,-3,-6,-3,-2,0,2021-08-07 13:00:06,170339
0,-1,-1,2,3,-2,-2,0,2021-08-07 13:00:06,170339
-3,-3,-3,-4,-7,-3,-3,-2,2021-08-07 13:00:06,170339
2,5,5,11,10,6,4,1,2021-08-07 13:00:06,170339
-1,0,0,3,0,-1,-2,0,2021-08-07 13:00:06,170339
1,2,0,-1,3,2,-1,-1,2021-08-07 13:00:06,170339
0,1,1,2,0,0,-2,0,2021-08-07 13:00:06,170339
0,1,1,0,1,1,1,1,2021-08-07 13:00:06,170339
-4,-5,-5,-8,-11,-8,-5,-3,2021-08-07 13:00:06,202339
-3,-5,-3,-1,-2,-3,-2,-1,2021-08-07 13:00:06,218339
3,6,5,9,16,9,5,3,2021-08-07 13:00:06,218339
0,0,1,-1,0,0,1,-1,2021-08-07 13:00:06,218339
0,-1,0,4,7,3,1,1,2021-08-07 13:00:06,218339
-4,-3,-5,-7,-13,-10,-7,-3,2021-08-07 13:00:06,218339
-1,-3,-1,-1,-5,-4,-1,-2,2021-08-07 13:00:06,218339
1,1,2,5,5,4,1,2,2021-08-07 13:00:06,218339
-4,-2,-4,-5,-8,-5,-3,-3,2021-08-07 13:00:06,234339
-1,-5,-3,-6,-3,-1,0,0,2021-08-07 13:00:06,234339
0,3,1,2,-2,0,1,1,2021-08-07 13:00:06,234339
-1,2,3,6,4,3,3,1,2021-08-07 13:00:06,234339
-3,-4,-4,-3,0,0,0,-1,2021-08-07 13:00:06,266339
2,1,2,0,0,-1,2,-1,2021-08-07 13:00:06,266339
-1,1,-2,1,3,1,-2,-2,2021-08-07 13:00:06,266339
2,2,3,-3,-8,-5,-2,-1,2021-08-07 13:00:06,266339
-3,-2,-3,1,5,3,1,0,2021-08-07 13:00:06,282339
-1,2,1,0,1,2,0,1,2021-08-07 13:00:06,282339
-1,-4,-5,-5,-3,-4,-2,-1,2021-08-07 13:00:06,298340
-3,-4,-3,-2,-4,-4,-3,-2,2021-08-07 13:00:06,313339
1,2,2,2,1,0,0,1,2021-08-07 13:00:06,329339
-1,0,0,-4,-6,-4,-1,-1,2021-08-07 13:00:06,329339
0,1,1,4,5,4,2,0,2021-08-07 13:00:06,329339
1,-1,-1,0,4,3,0,-1,2021-08-07 13:00:06,329339
-4,-5,-5,-7,-9,-7,-3,-3,2021-08-07 13:00:06,329339
0,0,0,0,2,0,1,0,2021-08-07 13:00:06,329339
-1,1,1,-4,-7,-5,-2,-1,2021-08-07 13:00:06,329339
0,1,-1,3,9,5,4,1,2021-08-07 13:00:06,330341
-1,0,-1,-3,-6,-4,-2,0,2021-08-07 13:00:06,345339
-1,0,0,4,3,2,2,1,2021-08-07 13:00:06,360340
-2,-1,-2,-4,-2,-3,0,-1,2021-08-07 13:00:06,376340
0,0,1,2,3,2,-1,0,2021-08-07 13:00:06,392340
1,-1,-1,0,-3,-1,0,-1,2021-08-07 13:00:06,408339
-1,-2,-4,-5,-5,-2,-3,-1,2021-08-07 13:00:06,408339
-1,-1,-2,-3,-3,-1,-1,-1,2021-08-07 13:00:06,408339
-1,0,0,1,1,-3,-1,-1,2021-08-07 13:00:06,408339
-3,-4,-4,-4,-4,-1,-4,-3,2021-08-07 13:00:06,408339
2,7,6,10,13,11,5,3,2021-08-07 13:00:06,408339
-4,-4,-2,1,-1,-2,-2,0,2021-08-07 13:00:06,408339
-1,1,1,-3,-2,-1,0,-1,2021-08-07 13:00:06,409341
1,-1,-1,-3,-3,-2,1,-1,2021-08-07 13:00:06,409341
-3,-6,-6,-11,-15,-8,-4,-4,2021-08-07 13:00:06,409341
2,0,2,5,9,7,1,-1,2021-08-07 13:00:06,409341
-1,0,1,4,5,4,2,0,2021-08-07 13:00:06,409341
-1,0,-1,2,3,1,0,-3,2021-08-07 13:00:06,409341
0,1,1,0,-1,-1,0,0,2021-08-07 13:00:06,409341
0,0,-1,-3,-5,-4,-1,-1,2021-08-07 13:00:06,409341
-1,-2,-5,-8,-10,-7,-3,-1,2021-08-07 13:00:06,409341
-2,-1,0,0,-1,1,0,0,2021-08-07 13:00:06,440340
2,0,0,1,3,0,-1,-1,2021-08-07 13:00:06,456339
-1,0,-1,-4,-9,-6,-2,-3,2021-08-07 13:00:06,472339
-1,1,0,-1,2,1,0,0,2021-08-07 13:00:06,477339
-1,0,-2,-3,-2,-4,-1,0,2021-08-07 13:00:06,477339
-1,-2,-3,0,1,0,-1,-2,2021-08-07 13:00:06,477339
1,0,2,3,8,4,2,2,2021-08-07 13:00:06,478341
-1,-2,-1,-2,-3,-3,-1,0,2021-08-07 13:00:06,478341
-1,-1,1,0,-1,-2,0,-2,2021-08-07 13:00:06,478341
-2,-2,0,-4,-4,-3,0,-2,2021-08-07 13:00:06,478341
-3,-4,-4,-5,-6,-5,-3,-3,2021-08-07 13:00:06,478341
3,6,4,2,-2,0,2,2,2021-08-07 13:00:06,478341
3,3,3,4,7,4,2,2,2021-08-07 13:00:06,503339
-1,0,-3,-2,-3,-3,-2,-2,2021-08-07 13:00:06,518339
-1,-4,-2,0,0,2,3,-3,2021-08-07 13:00:06,533340
-1,-3,-3,-3,0,-2,-2,-3,2021-08-07 13:00:06,533340
0,-1,0,-1,0,0,-1,-2,2021-08-07 13:00:06,533340
-1,0,-1,0,1,0,-1,-1,2021-08-07 13:00:06,533340
-1,-2,-2,-2,-2,-3,-3,-1,2021-08-07 13:00:06,549341
0,-4,-3,-5,-5,-3,-3,-1,2021-08-07 13:00:06,549341
2,3,2,2,5,5,3,4,2021-08-07 13:00:06,549341
-3,-1,-3,-7,-9,-6,-4,-3,2021-08-07 13:00:06,549341
0,0,0,5,4,2,0,-1,2021-08-07 13:00:06,549341
1,-2,1,1,-4,-3,-1,-1,2021-08-07 13:00:06,549341
-1,-1,1,9,15,9,2,0,2021-08-07 13:00:06,565340
0,-3,-2,1,2,1,2,-2,2021-08-07 13:00:06,565340
0,1,1,-2,-4,-2,-2,0,2021-08-07 13:00:06,565340
-1,-1,-3,-2,-3,-3,-3,-1,2021-08-07 13:00:06,565340
-2,-4,-3,-5,-7,-6,-3,-2,2021-08-07 13:00:06,581341
1,2,3,3,2,0,0,3,2021-08-07 13:00:06,597339
-2,-1,1,1,7,5,1,-1,2021-08-07 13:00:06,597339
-2,-1,-2,1,2,1,0,-1,2021-08-07 13:00:06,597339
-1,1,0,-4,-4,-2,-1,-1,2021-08-07 13:00:06,597339
0,-2,0,-1,-1,0,-3,-1,2021-08-07 13:00:06,597339
-1,-2,-3,-5,-7,-6,-5,-3,2021-08-07 13:00:06,597339
0,2,2,4,5,6,3,2,2021-08-07 13:00:06,597339
-1,1,-1,0,1,-1,0,1,2021-08-07 13:00:06,613339
-3,-3,-2,-2,-2,-3,-2,-1,2021-08-07 13:00:06,629342
0,0,-1,-2,-2,-1,-2,0,2021-08-07 13:00:06,629342
1,1,2,2,0,-1,-1,0,2021-08-07 13:00:06,629342
0,2,-1,0,-2,-2,-3,-1,2021-08-07 13:00:06,645341
-4,-6,-4,-3,-5,0,-3,-2,2021-08-07 13:00:06,645341
-1,3,0,0,4,1,0,0,2021-08-07 13:00:06,645341
-2,-2,-3,-3,1,-2,-2,-2,2021-08-07 13:00:06,645341
3,1,0,-5,-5,1,2,2,2021-08-07 13:00:06,645341
-1,0,0,0,2,2,2,0,2021-08-07 13:00:06,645341
-3,-4,-4,-4,-7,-4,-2,-2,2021-08-07 13:00:06,661341
-2,-2,1,4,9,6,2,-1,2021-08-07 13:00:06,661341
-2,-2,2,1,-2,-4,-4,-3,2021-08-07 13:00:06,677343
-2,-4,-2,-1,-1,-2,-2,-1,2021-08-07 13:00:06,677343
0,2,4,1,-3,-2,0,-1,2021-08-07 13:00:06,677343
0,0,-1,2,1,2,1,-2,2021-08-07 13:00:06,677343
-1,0,-1,-2,-1,-3,-3,-2,2021-08-07 13:00:06,709340
0,-1,1,0,2,0,1,2,2021-08-07 13:00:06,709340
0,-2,-3,-4,-4,-2,-1,0,2021-08-07 13:00:06,709340
-3,-3,-4,-7,-8,-4,-3,-1,2021-08-07 13:00:06,709340
1,4,4,1,2,2,1,1,2021-08-07 13:00:06,740340
0,3,0,2,5,1,0,1,2021-08-07 13:00:06,740340
-2,0,0,1,3,1,0,1,2021-08-07 13:00:06,740340
-2,-3,-2,-3,-1,-4,-2,-2,2021-08-07 13:00:06,740340
-1,-5,-4,-3,-3,-1,-1,-2,2021-08-07 13:00:06,740340
1,3,1,2,1,-1,-2,-1,2021-08-07 13:00:06,740340
-1,-5,-3,-2,-3,-2,-2,-2,2021-08-07 13:00:06,740340
-1,3,1,-1,-4,-4,-1,0,2021-08-07 13:00:06,740340
2,2,2,-1,-1,1,2,2,2021-08-07 13:00:06,756344
-1,-1,0,2,2,0,-1,-2,2021-08-07 13:00:06,756344
1,1,1,2,3,1,-1,0,2021-08-07 13:00:06,756344
-2,-3,-2,-3,-3,-3,-2,-1,2021-08-07 13:00:06,756344
-4,-6,-6,-2,-5,-4,-4,-4,2021-08-07 13:00:06,772341
2,2,1,-1,1,3,1,2,2021-08-07 13:00:06,772341
2,2,1,-2,0,1,1,0,2021-08-07 13:00:06,788341
-3,-6,-6,-3,-4,-3,-4,0,2021-08-07 13:00:06,820344
2,3,1,1,-4,-3,-1,0,2021-08-07 13:00:06,836341
1,1,3,8,12,10,4,1,2021-08-07 13:00:06,836341
-2,-2,-3,-1,-3,-3,-2,-3,2021-08-07 13:00:06,836341
0,0,1,0,-1,1,0,-1,2021-08-07 13:00:06,836341
-4,-7,-3,0,1,0,-1,-2,2021-08-07 13:00:06,836341
-1,0,-1,-3,-6,-4,-2,0,2021-08-07 13:00:06,836341
-1,-2,-2,-7,-9,-6,-3,0,2021-08-07 13:00:06,836341
3,5,5,6,10,7,4,4,2021-08-07 13:00:06,837341
-2,-1,-2,1,2,1,0,-2,2021-08-07 13:00:06,837341
-2,-3,-1,-3,-5,-4,-2,-3,2021-08-07 13:00:06,837341
-1,0,-1,2,3,1,0,1,2021-08-07 13:00:06,837341
-2,-1,-4,-6,-8,-5,-3,-1,2021-08-07 13:00:06,837341
-1,-2,-3,0,0,0,-1,-1,2021-08-07 13:00:06,867339
0,-2,-4,-5,-5,-3,-3,-2,2021-08-07 13:00:06,867339
2,0,0,0,5,5,2,1,2021-08-07 13:00:06,867339
2,6,6,5,3,1,2,3,2021-08-07 13:00:06,867339
0,0,-1,-4,-1,0,0,-2,2021-08-07 13:00:06,874340
-1,-3,-1,-1,-4,-4,-2,-2,2021-08-07 13:00:06,874340
-3,-1,-4,-2,-2,-3,-3,-1,2021-08-07 13:00:06,874340
0,0,-1,-1,-4,-2,-2,-1,2021-08-07 13:00:06,874340
0,-1,-1,-3,-7,-5,-2,-1,2021-08-07 13:00:06,898343
-2,-3,-3,-3,6,6,2,-1,2021-08-07 13:00:06,898343
-2,0,0,1,1,-1,-1,-2,2021-08-07 13:00:06,898343
0,-1,0,-2,-5,-3,0,0,2021-08-07 13:00:06,898343
0,0,2,4,7,4,3,1,2021-08-07 13:00:06,914340
-2,-1,-3,-3,-5,-3,-2,-1,2021-08-07 13:00:06,914340
0,-1,0,1,-3,-1,-2,-2,2021-08-07 13:00:06,914340
-3,-6,-7,-2,1,-1,-2,-4,2021-08-07 13:00:06,914340
0,1,2,-4,-13,-13,-5,-1,2021-08-07 13:00:06,945339
3,5,5,7,15,13,7,5,2021-08-07 13:00:06,961341
-1,1,1,2,2,2,0,-1,2021-08-07 13:00:06,977341
-2,-1,-1,-3,-7,-2,-3,-2,2021-08-07 13:00:06,993342
-2,-3,-2,-1,2,1,-1,-1,2021-08-07 13:00:06,993342
-4,-4,-3,-4,-7,-5,-3,-2,2021-08-07 13:00:06,993342
0,-1,-1,0,-1,-2,-1,-1,2021-08-07 13:00:06,993342
2,1,3,-1,2,1,0,0,2021-08-07 13:00:06,993342
0,0,-1,3,2,1,0,-1,2021-08-07 13:00:06,993342
-1,-1,-1,-5,-6,-6,-1,-1,2021-08-07 13:00:06,993342
0,-1,1,0,1,3,2,-2,2021-08-07 13:00:06,994341
0,-3,-1,0,-3,-1,0,-1,2021-08-07 13:00:06,994341
0,-2,-1,-1,3,2,0,0,2021-08-07 13:00:06,994341
-1,-2,0,2,0,-1,-1,-1,2021-08-07 13:00:06,994341
4,6,6,9,8,5,4,5,2021-08-07 13:00:06,994341
-2,-4,-5,-6,-9,-6,-5,-4,2021-08-07 13:00:06,994341
-1,1,1,0,0,3,2,1,2021-08-07 13:00:07,024340
0,-1,-2,1,1,0,-1,-1,2021-08-07 13:00:07,024340
-2,-1,-4,-6,-6,-6,-3,-1,2021-08-07 13:00:07,024340
1,3,2,3,3,2,1,-1,2021-08-07 13:00:07,024340
-2,-3,-2,-3,-6,-5,-2,-2,2021-08-07 13:00:07,040341
-2,-1,-1,0,0,-2,-2,-1,2021-08-07 13:00:07,056342
-1,-2,-2,0,4,2,-1,-1,2021-08-07 13:00:07,056342
-2,-1,-3,-2,-2,0,-1,0,2021-08-07 13:00:07,056342
0,1,-1,0,0,0,-2,-1,2021-08-07 13:00:07,056342
0,-2,0,-3,-4,-3,-2,-2,2021-08-07 13:00:07,056342
2,4,4,0,-6,-2,0,1,2021-08-07 13:00:07,056342
-2,-2,-3,-2,2,3,0,0,2021-08-07 13:00:07,056342
1,3,2,6,8,5,2,2,2021-08-07 13:00:07,088341
-1,-3,-3,-3,-8,-6,-4,-1,2021-08-07 13:00:07,088341
0,-2,0,-5,-2,-2,0,0,2021-08-07 13:00:07,088341
-2,-1,-1,0,2,-2,-2,0,2021-08-07 13:00:07,088341
0,-2,-1,3,4,2,2,-1,2021-08-07 13:00:07,088341
-2,-3,-4,-2,-2,-3,-2,-4,2021-08-07 13:00:07,088341
0,1,-1,-2,-4,-4,-2,-1,2021-08-07 13:00:07,088341
-2,-1,-1,-1,-4,-3,-2,-1,2021-08-07 13:00:07,088341
-1,-2,-2,-2,-1,-1,-1,0,2021-08-07 13:00:07,120341
2,4,4,2,4,2,2,2,2021-08-07 13:00:07,135343
-3,-2,-3,-3,-3,-2,0,-2,2021-08-07 13:00:07,135343
1,1,2,4,7,2,2,-1,2021-08-07 13:00:07,135343
-4,-5,-5,-8,-9,-6,-3,-2,2021-08-07 13:00:07,135343
-2,-2,-3,-4,-8,-4,-2,-1,2021-08-07 13:00:07,135343
-1,-2,-2,-3,-1,-3,-2,-2,2021-08-07 13:00:07,135343
3,2,2,6,8,6,4,4,2021-08-07 13:00:07,135343
0,0,0,-2,0,2,-1,1,2021-08-07 13:00:07,166341
-1,0,-1,-2,0,-1,-1,1,2021-08-07 13:00:07,182339
-1,-1,-1,0,-1,-2,-1,-1,2021-08-07 13:00:07,198339
-3,-3,-2,-5,-6,-4,-3,-3,2021-08-07 13:00:07,214342
0,-1,-3,-4,-7,-6,-3,-3,2021-08-07 13:00:07,214342
2,5,4,4,9,9,6,3,2021-08-07 13:00:07,214342
-1,-1,-1,1,1,2,1,0,2021-08-07 13:00:07,214342
-1,-1,0,0,1,2,1,0,2021-08-07 13:00:07,214342
0,-1,-1,2,4,2,1,-1,2021-08-07 13:00:07,214342
-4,-3,-6,-7,-11,-7,-6,-5,2021-08-07 13:00:07,215343
-2,-3,-1,1,1,1,-2,0,2021-08-07 13:00:07,215343
1,2,-1,1,1,2,0,1,2021-08-07 13:00:07,215343
1,1,2,0,-2,0,0,0,2021-08-07 13:00:07,215343
-1,-2,-3,-2,-2,-4,0,-2,2021-08-07 13:00:07,215343
0,-1,0,-2,-2,0,-1,0,2021-08-07 13:00:07,215343
-2,-4,-3,-4,-5,-3,-2,-3,2021-08-07 13:00:07,215343
-2,0,-1,-2,-2,1,0,0,2021-08-07 13:00:07,246341
0,1,0,2,1,-1,0,0,2021-08-07 13:00:07,246341
-2,-3,-5,-3,-3,-3,-2,-2,2021-08-07 13:00:07,246341
1,1,0,-4,-2,-1,1,0,2021-08-07 13:00:07,262341
0,1,1,6,8,5,2,-2,2021-08-07 13:00:07,294341
-1,-1,2,1,3,1,0,1,2021-08-07 13:00:07,294341
-2,-2,-2,-1,-1,-1,-1,-1,2021-08-07 13:00:07,294341
-2,-3,-2,-5,-11,-10,-4,-1,2021-08-07 13:00:07,294341
1,2,0,-2,-2,0,-2,0,2021-08-07 13:00:07,294341
-2,0,0,6,13,5,0,1,2021-08-07 13:00:07,294341
1,0,1,2,2,4,2,2,2021-08-07 13:00:07,294341
-1,-2,0,2,2,1,-1,-1,2021-08-07 13:00:07,294341
-2,-1,-2,-1,-3,-2,-1,0,2021-08-07 13:00:07,295345
-2,-2,-2,-5,-9,-8,-2,-4,2021-08-07 13:00:07,295345
0,-2,-2,-1,-1,-1,-2,-1,2021-08-07 13:00:07,295345
0,0,-1,1,1,-1,-1,-2,2021-08-07 13:00:07,295345
0,-3,-1,-4,-6,-4,0,-1,2021-08-07 13:00:07,326339
0,1,0,-5,-6,1,1,1,2021-08-07 13:00:07,326339
0,2,3,7,8,5,3,2,2021-08-07 13:00:07,326339
2,3,3,5,5,1,0,0,2021-08-07 13:00:07,326339
-2,-2,-2,-4,-5,-4,-1,-1,2021-08-07 13:00:07,341340
0,-1,-2,0,4,2,1,-2,2021-08-07 13:00:07,341340
-1,-2,-2,-3,-1,-2,-1,-2,2021-08-07 13:00:07,341340
-2,0,-1,-1,-1,-2,-1,-1,2021-08-07 13:00:07,341340
0,0,-2,-2,-3,-3,-3,-1,2021-08-07 13:00:07,357340
-2,-4,-2,-3,-6,-3,-1,-2,2021-08-07 13:00:07,357340
0,2,-1,-6,-10,-8,-4,-2,2021-08-07 13:00:07,357340
2,3,4,7,15,10,3,2,2021-08-07 13:00:07,357340
-1,0,-1,-1,-2,-2,-2,-2,2021-08-07 13:00:07,388343
-2,-1,-2,0,0,1,0,0,2021-08-07 13:00:07,388343
-3,-5,-5,-4,-3,-3,-3,-4,2021-08-07 13:00:07,388343
-2,-4,-2,-7,-8,-7,-4,-1,2021-08-07 13:00:07,388343
2,1,2,1,2,1,3,1,2021-08-07 13:00:07,388343
-1,-3,-3,1,-3,-2,-1,-1,2021-08-07 13:00:07,388343
-1,-3,-4,-7,-10,-3,-1,0,2021-08-07 13:00:07,404343
-1,-1,0,6,18,11,3,-1,2021-08-07 13:00:07,420342
-4,-4,-1,3,1,0,-3,-1,2021-08-07 13:00:07,420342
-2,1,-1,1,1,1,-2,-2,2021-08-07 13:00:07,420342
-2,0,1,-1,-4,-5,-2,-2,2021-08-07 13:00:07,420342
-2,-1,-2,-8,-14,-8,-4,0,2021-08-07 13:00:07,420342
4,2,1,5,7,4,3,1,2021-08-07 13:00:07,452341
2,-1,0,-1,0,-1,-1,-1,2021-08-07 13:00:07,452341
2,2,1,2,1,2,1,1,2021-08-07 13:00:07,452341
-1,0,-4,-3,-6,-5,-1,-1,2021-08-07 13:00:07,452341
-3,-4,-2,0,0,0,-1,-2,2021-08-07 13:00:07,452341
-1,1,0,-2,-6,-4,-3,-2,2021-08-07 13:00:07,452341
3,5,6,9,10,8,5,3,2021-08-07 13:00:07,452341
1,2,0,-2,-4,-1,0,-1,2021-08-07 13:00:07,452341
-1,0,1,-1,0,0,-1,0,2021-08-07 13:00:07,484341
-5,-8,-8,-6,-6,-5,-5,-4,2021-08-07 13:00:07,484341
4,6,7,7,7,5,3,2,2021-08-07 13:00:07,484341
0,0,1,1,-4,-2,-1,1,2021-08-07 13:00:07,484341
-2,-1,-3,-7,-10,-7,-4,-1,2021-08-07 13:00:07,500341
1,2,2,-1,4,4,2,1,2021-08-07 13:00:07,500341
-2,-3,-2,-4,-5,-2,-1,-1,2021-08-07 13:00:07,500341
1,2,2,8,18,12,3,1,2021-08-07 13:00:07,500341
0,2,-2,-1,2,1,-1,-2,2021-08-07 13:00:07,516342
0,-2,-2,-2,-5,-5,-3,-1,2021-08-07 13:00:07,532341
-4,-4,-6,-6,-8,-6,-6,-3,2021-08-07 13:00:07,532341
1,1,2,-2,-4,-1,-1,0,2021-08-07 13:00:07,532341
-2,-2,-2,-4,-3,-3,-3,-1,2021-08-07 13:00:07,532341
-3,-4,-2,-2,-9,-7,-4,-4,2021-08-07 13:00:07,532341
0,0,-1,-1,7,6,3,1,2021-08-07 13:00:07,532341
-1,-1,0,4,4,0,0,0,2021-08-07 13:00:07,532341
0,-1,0,0,1,0,0,0,2021-08-07 13:00:07,564340
-2,0,-2,-6,-10,-6,-1,0,2021-08-07 13:00:07,580341
-2,-2,0,8,12,5,-1,-3,2021-08-07 13:00:07,580341
-2,-3,-3,1,3,2,1,0,2021-08-07 13:00:07,580341
1,0,0,-1,-4,-4,-2,0,2021-08-07 13:00:07,580341
2,0,-2,3,8,5,2,2,2021-08-07 13:00:07,581341
-3,-3,-3,-5,-9,-5,-3,-2,2021-08-07 13:00:07,581341
2,1,-1,-4,-6,-3,-1,0,2021-08-07 13:00:07,581341
-1,-3,-3,4,5,0,-1,0,2021-08-07 13:00:07,596341
4,7,8,9,14,8,5,4,2021-08-07 13:00:07,596341
-1,-2,-1,-4,-4,-2,-3,-2,2021-08-07 13:00:07,596341
-2,-3,-4,-4,-8,-4,-5,-2,2021-08-07 13:00:07,596341
-2,-4,-3,-3,-2,-2,-2,-1,2021-08-07 13:00:07,644344
-3,-4,-2,-5,-6,-4,-4,-2,2021-08-07 13:00:07,644344
4,9,8,4,3,4,5,5,2021-08-07 13:00:07,644344
-1,1,2,4,8,5,1,-1,2021-08-07 13:00:07,644344
1,-2,-1,-2,-1,1,0,-1,2021-08-07 13:00:07,644344
2,2,1,5,11,6,2,1,2021-08-07 13:00:07,644344
-7,-10,-10,-9,-14,-10,-7,-6,2021-08-07 13:00:07,644344
0,0,0,3,-1,0,0,0,2021-08-07 13:00:07,644344
0,1,0,-1,2,3,1,0,2021-08-07 13:00:07,660341
-2,-3,-2,-4,-8,-5,-3,-1,2021-08-07 13:00:07,676339
0,-1,-2,-1,2,1,-1,0,2021-08-07 13:00:07,676339
-3,-4,-3,-7,-4,-2,-1,-1,2021-08-07 13:00:07,676339
-3,-3,-2,-2,-6,-4,-3,-1,2021-08-07 13:00:07,676339
3,4,5,7,16,9,4,4,2021-08-07 13:00:07,676339
-2,-4,-3,-1,0,-4,-3,-3,2021-08-07 13:00:07,692341
0,-1,-1,-5,-4,-3,-1,-2,2021-08-07 13:00:07,692341
1,0,1,3,2,-1,0,1,2021-08-07 13:00:07,692341
-1,-1,-3,-11,-16,-10,-5,-2,2021-08-07 13:00:07,692341
4,5,5,4,7,8,6,2,2021-08-07 13:00:07,708339
-3,-4,-3,-3,-3,-4,-3,-2,2021-08-07 13:00:07,724341
-2,0,2,3,5,3,0,0,2021-08-07 13:00:07,736341
-4,-4,-3,0,-1,-2,-1,-2,2021-08-07 13:00:07,736341
1,-1,0,-1,-3,-1,1,2,2021-08-07 13:00:07,736341
0,1,1,-1,0,-2,0,0,2021-08-07 13:00:07,736341
1,3,2,-1,-1,2,-1,-1,2021-08-07 13:00:07,736341
-1,-1,-2,-3,-6,-5,-2,0,2021-08-07 13:00:07,736341
-1,-4,-1,0,-1,1,-1,0,2021-08-07 13:00:07,736341
-5,-6,-7,-6,-14,-10,-5,-4,2021-08-07 13:00:07,736341
4,4,5,4,11,7,1,3,2021-08-07 13:00:07,756385
-3,-2,2,4,4,0,-2,-4,2021-08-07 13:00:07,756385
2,2,-1,-8,-8,-1,0,1,2021-08-07 13:00:07,756385
2,0,2,11,17,8,5,2,2021-08-07 13:00:07,756385
-4,-6,-6,-5,-11,-7,-3,-3,2021-08-07 13:00:07,788385
4,5,4,1,4,3,4,2,2021-08-07 13:00:07,788385
-2,-4,-3,-1,-4,-6,-3,-3,2021-08-07 13:00:07,788385
-3,-2,-1,-1,-3,-4,-1,-1,2021-08-07 13:00:07,788385
-1,1,-2,-6,-6,-2,-1,-1,2021-08-07 13:00:07,803385
2,3,4,5,5,5,4,3,2021-08-07 13:00:07,803385
-2,-2,-2,-4,-5,-4,-1,-1,2021-08-07 13:00:07,803385
2,1,0,2,7,7,2,1,2021-08-07 13:00:07,819385
-2,-3,-3,-3,-5,-6,-3,-4,2021-08-07 13:00:07,835385
-2,-2,-2,-3,-6,-4,-3,-2,2021-08-07 13:00:07,835385
-1,-1,-3,1,0,-1,-2,-2,2021-08-07 13:00:07,835385
2,5,4,1,2,4,2,3,2021-08-07 13:00:07,835385
2,1,3,9,11,6,2,0,2021-08-07 13:00:07,835385
-1,-2,-4,-1,-1,-2,-2,-2,2021-08-07 13:00:07,835385
-3,-2,-4,-8,-15,-12,-8,-3,2021-08-07 13:00:07,836385
-3,-5,-4,-8,-9,-4,-4,-3,2021-08-07 13:00:07,836385
1,1,-1,8,20,12,4,2,2021-08-07 13:00:07,867384
2,0,0,2,5,2,1,1,2021-08-07 13:00:07,883385
-1,-2,-2,-5,-8,-8,-4,-3,2021-08-07 13:00:07,883385
-2,-3,-2,-2,-1,-2,-1,-1,2021-08-07 13:00:07,883385
-1,1,1,1,-4,-2,1,1,2021-08-07 13:00:07,883385
-1,-3,-3,1,6,3,1,0,2021-08-07 13:00:07,883385
-1,-2,-2,-3,-7,-7,-4,-2,2021-08-07 13:00:07,883385
0,0,0,-4,-13,-8,-4,-1,2021-08-07 13:00:07,883385
0,-2,-1,2,8,4,1,-1,2021-08-07 13:00:07,899383
0,0,0,0,1,1,0,0,2021-08-07 13:00:07,899383
-2,-1,2,3,7,4,1,0,2021-08-07 13:00:07,899383
0,-1,-2,0,2,-1,-1,-2,2021-08-07 13:00:07,899383
-4,-3,-3,-6,-10,-5,-3,-1,2021-08-07 13:00:07,931383
-6,-5,-6,-11,-16,-12,-6,-5,2021-08-07 13:00:07,931383
3,3,5,5,7,5,4,2,2021-08-07 13:00:07,947384
-1,-1,-3,-1,1,-2,-2,-2,2021-08-07 13:00:07,963384
-2,-3,-2,-3,-6,-5,-3,-2,2021-08-07 13:00:07,963633
3,4,4,5,7,2,2,3,2021-08-07 13:00:07,963633
1,1,2,5,15,13,5,2,2021-08-07 13:00:07,963633
-1,-2,-2,-3,-10,-7,-4,-1,2021-08-07 13:00:07,963633
6,8,10,10,16,10,6,4,2021-08-07 13:00:07,963633
-6,-7,-7,-10,-14,-10,-7,-3,2021-08-07 13:00:07,964386
3,5,4,5,0,-1,2,3,2021-08-07 13:00:07,964386
-1,-2,-3,2,4,3,0,-2,2021-08-07 13:00:07,964386
-4,-4,-5,-11,-19,-13,-7,-6,2021-08-07 13:00:07,978900
4,4,2,7,11,8,5,3,2021-08-07 13:00:07,994899
1,2,1,1,6,3,0,1,2021-08-07 13:00:08,010900
-1,-2,0,-2,-1,-1,0,-2,2021-08-07 13:00:08,010900
-4,-7,-7,-7,-9,-5,-3,-4,2021-08-07 13:00:08,010900
-2,-1,2,0,0,1,1,-2,2021-08-07 13:00:08,010900
-1,-2,-3,-3,-8,-4,-2,0,2021-08-07 13:00:08,010900
0,2,4,-1,4,4,1,2,2021-08-07 13:00:08,011901
1,2,-1,0,-3,-2,-1,1,2021-08-07 13:00:08,011901
-6,-11,-13,-23,-37,-21,-12,-8,2021-08-07 13:00:08,011901
4,7,9,24,44,27,11,5,2021-08-07 13:00:08,011901
1,3,4,1,1,1,2,1,2021-08-07 13:00:08,011901
-2,-2,-1,3,9,4,1,-2,2021-08-07 13:00:08,042901
0,-1,-1,6,9,5,2,1,2021-08-07 13:00:08,042901
-2,-4,-6,-15,-18,-11,-6,-4,2021-08-07 13:00:08,042901
2,2,1,7,8,3,3,1,2021-08-07 13:00:08,042901
-1,-1,-1,-6,-12,-7,-2,-2,2021-08-07 13:00:08,073900
-1,1,1,-2,-1,0,-2,-2,2021-08-07 13:00:08,073900
0,1,-1,-5,-7,-3,-1,0,2021-08-07 13:00:08,089901
0,1,2,8,13,9,4,1,2021-08-07 13:00:08,089901
-2,-4,-4,-11,-15,-9,-4,-3,2021-08-07 13:00:08,089901
0,2,2,4,10,6,3,0,2021-08-07 13:00:08,089901
-2,-5,-3,-3,-9,-5,-2,-2,2021-08-07 13:00:08,089901
-1,0,-4,-4,-4,-6,-3,-1,2021-08-07 13:00:08,089901
-2,-2,-1,-7,-8,-3,-3,-1,2021-08-07 13:00:08,105900
-1,-1,-1,9,8,6,1,0,2021-08-07 13:00:08,121899
1,2,4,1,3,0,-1,-1,2021-08-07 13:00:08,136899
1,1,0,3,1,0,0,0,2021-08-07 13:00:08,152899
-3,-1,-3,-5,-7,-4,-4,-2,2021-08-07 13:00:08,152899
3,4,4,3,7,6,3,3,2021-08-07 13:00:08,152899
-6,-7,-10,-5,-6,-8,-5,-5,2021-08-07 13:00:08,168901
-1,1,0,-3,-11,-4,-4,-2,2021-08-07 13:00:08,174899
3,0,0,1,0,0,0,1,2021-08-07 13:00:08,174899
-2,-4,-4,-5,-10,-7,-4,-3,2021-08-07 13:00:08,174899
-1,-3,-3,-3,-6,-5,-4,-3,2021-08-07 13:00:08,174899
-6,-7,-6,-12,-11,-7,-5,-5,2021-08-07 13:00:08,174899
3,5,6,9,9,5,5,3,2021-08-07 13:00:08,175900
-1,1,0,1,3,2,2,0,2021-08-07 13:00:08,175900
1,-1,0,3,4,2,1,-1,2021-08-07 13:00:08,175900
-1,-4,-3,-2,-4,-3,-2,0,2021-08-07 13:00:08,175900
-1,0,3,0,-2,-3,0,1,2021-08-07 13:00:08,175900
-1,-1,-3,-1,1,2,1,1,2021-08-07 13:00:08,175900
-3,-4,-3,-6,-5,-2,-3,-3,2021-08-07 13:00:08,184900
-1,-1,-1,-7,-10,-6,-4,-3,2021-08-07 13:00:08,184900
2,2,3,8,10,9,2,2,2021-08-07 13:00:08,200900
3,0,2,1,1,-1,0,0,2021-08-07 13:00:08,200900
-5,-9,-11,-14,-23,-15,-6,-4,2021-08-07 13:00:08,200900
5,5,4,9,20,17,9,6,2021-08-07 13:00:08,200900
-2,-5,-3,-5,-1,-4,-1,-3,2021-08-07 13:00:08,232900
-4,-2,-1,-1,-2,-1,-1,-2,2021-08-07 13:00:08,248902
-3,0,3,3,2,0,0,-2,2021-08-07 13:00:08,264901
-4,-3,-3,-7,-16,-11,-5,-4,2021-08-07 13:00:08,279901
-4,-1,-2,-3,-6,-3,-2,-2,2021-08-07 13:00:08,279901
2,2,2,5,12,9,5,2,2021-08-07 13:00:08,279901
0,0,1,0,0,1,0,2,2021-08-07 13:00:08,279901
3,4,3,0,-3,-3,-1,2,2021-08-07 13:00:08,279901
1,1,1,4,5,3,1,0,2021-08-07 13:00:08,279901
-1,0,-1,-4,-7,-6,-3,-2,2021-08-07 13:00:08,279901
-2,-2,-3,0,2,-1,0,-2,2021-08-07 13:00:08,279901
-5,-4,-5,-9,-11,-9,-6,-5,2021-08-07 13:00:08,280902
0,0,1,-6,-9,-1,-2,0,2021-08-07 13:00:08,280902
2,3,5,15,27,13,6,2,2021-08-07 13:00:08,280902
4,6,4,3,5,6,4,3,2021-08-07 13:00:08,280902
-1,-2,-1,2,6,3,1,-2,2021-08-07 13:00:08,280902
-3,-4,-6,-12,-18,-15,-7,-3,2021-08-07 13:00:08,310902
-2,-1,-3,-7,-12,-8,-4,-2,2021-08-07 13:00:08,310902
-1,-1,-1,-4,-8,-3,0,-2,2021-08-07 13:00:08,310902
2,1,2,9,13,8,3,2,2021-08-07 13:00:08,310902
-1,-1,-1,5,10,7,1,-1,2021-08-07 13:00:08,310902
-1,-2,0,-3,-9,-4,-1,-1,2021-08-07 13:00:08,311902
-2,-2,-1,0,4,-1,-1,-1,2021-08-07 13:00:08,311902
-1,-2,-1,-10,-22,-13,-7,-2,2021-08-07 13:00:08,311902
2,3,4,9,23,16,7,4,2021-08-07 13:00:08,342899
0,0,0,-4,-5,-2,-1,0,2021-08-07 13:00:08,342899
0,0,-1,-1,-6,-3,-1,0,2021-08-07 13:00:08,342899
1,2,-1,12,23,12,5,1,2021-08-07 13:00:08,342899
-1,-1,-3,-2,-9,-4,-3,-1,2021-08-07 13:00:08,373901
-3,-5,-5,-8,-8,-5,-5,-4,2021-08-07 13:00:08,389899
-1,-2,1,1,3,2,-1,1,2021-08-07 13:00:08,389899
-3,-4,-3,-2,-1,0,-1,-2,2021-08-07 13:00:08,389899
-2,-3,-1,-3,-7,-6,-4,-2,2021-08-07 13:00:08,389899
2,0,0,-5,-15,-7,-2,-1,2021-08-07 13:00:08,390901
0,0,1,5,13,6,0,-1,2021-08-07 13:00:08,390901
-1,-2,-4,-1,-6,-2,-1,-1,2021-08-07 13:00:08,390901
1,0,-1,1,5,3,1,-1,2021-08-07 13:00:08,405901
-3,-1,-2,3,3,-1,-1,-1,2021-08-07 13:00:08,405901
-1,3,2,0,1,2,0,1,2021-08-07 13:00:08,405901
-2,-2,-3,-6,-14,-11,-5,-2,2021-08-07 13:00:08,405901
1,1,1,4,2,3,2,1,2021-08-07 13:00:08,421900
1,2,1,5,8,4,1,3,2021-08-07 13:00:08,437900
0,-2,-3,-1,1,2,2,0,2021-08-07 13:00:08,453900
0,0,0,-4,-3,-4,-1,-1,2021-08-07 13:00:08,453900
1,1,2,-1,-2,-2,1,0,2021-08-07 13:00:08,453900
-3,-3,-5,-10,-10,-4,-4,-3,2021-08-07 13:00:08,453900
0,0,-2,2,5,3,1,0,2021-08-07 13:00:08,453900
-1,0,1,-2,-7,-6,-2,0,2021-08-07 13:00:08,453900
1,0,-1,-1,2,2,1,0,2021-08-07 13:00:08,453900
-3,-4,-3,-3,2,-1,-2,-4,2021-08-07 13:00:08,454902
0,-1,2,5,2,0,-1,-2,2021-08-07 13:00:08,454902
2,1,1,2,6,7,4,3,2021-08-07 13:00:08,454902
-4,-3,-2,-4,-6,-6,-4,-2,2021-08-07 13:00:08,485900
0,-1,1,2,3,2,1,-1,2021-08-07 13:00:08,485900
-2,-5,-5,-9,-14,-6,-4,-1,2021-08-07 13:00:08,485900
-1,-1,-1,1,8,3,0,-2,2021-08-07 13:00:08,485900
3,5,7,10,7,6,5,3,2021-08-07 13:00:08,501903
0,0,1,3,4,2,1,-1,2021-08-07 13:00:08,501903
-3,-2,-1,-2,-9,-8,-4,-1,2021-08-07 13:00:08,501903
0,-2,0,0,2,0,0,2,2021-08-07 13:00:08,501903
-7,-7,-7,-17,-22,-15,-10,-6,2021-08-07 13:00:08,532900
2,3,3,10,18,12,4,3,2021-08-07 13:00:08,548900
3,4,3,8,15,7,5,3,2021-08-07 13:00:08,564900
-1,-1,-3,-4,-6,-5,-3,-1,2021-08-07 13:00:08,580899
-1,0,0,-1,3,2,-1,-1,2021-08-07 13:00:08,580899
-1,-3,-3,-10,-19,-11,-6,-3,2021-08-07 13:00:08,580899
1,-1,1,5,3,0,1,1,2021-08-07 13:00:08,580899
1,0,2,6,9,7,4,1,2021-08-07 13:00:08,580899
2,-1,-3,2,9,3,0,1,2021-08-07 13:00:08,580899
-1,-4,-2,-5,-11,-8,-6,-1,2021-08-07 13:00:08,580899
1,3,0,-3,-5,-1,-1,0,2021-08-07 13:00:08,581902
3,5,7,9,4,5,2,1,2021-08-07 13:00:08,581902
-4,-3,-2,1,-4,-2,-1,-1,2021-08-07 13:00:08,581902
-3,-3,-3,1,5,4,1,0,2021-08-07 13:00:08,581902
-2,-1,-2,-7,-7,-5,-5,-2,2021-08-07 13:00:08,581902
0,-2,1,-2,-3,-2,-2,0,2021-08-07 13:00:08,581902
-2,-3,-4,-1,0,0,-2,-1,2021-08-07 13:00:08,628900
2,5,4,1,-1,-1,2,1,2021-08-07 13:00:08,628900
-2,-6,-3,-4,-7,-5,-3,-3,2021-08-07 13:00:08,628900
-1,-2,-4,-7,-7,-3,-3,-3,2021-08-07 13:00:08,628900
1,1,3,7,15,9,3,2,2021-08-07 13:00:08,628900
0,-3,-4,-3,-4,-5,-2,-1,2021-08-07 13:00:08,628900
1,-1,1,-1,1,1,0,-1,2021-08-07 13:00:08,629899
-4,-5,-5,-8,-12,-10,-6,-3,2021-08-07 13:00:08,629899
-2,-2,-4,-4,-9,-2,-1,-2,2021-08-07 13:00:08,643901
1,3,1,2,7,4,5,2,2021-08-07 13:00:08,643901
1,2,1,6,8,7,3,1,2021-08-07 13:00:08,643901
-1,-2,-3,0,-1,0,0,-2,2021-08-07 13:00:08,643901
0,-1,0,-2,-7,-5,-3,-2,2021-08-07 13:00:08,659900
-2,-1,0,-1,-1,-3,-3,-3,2021-08-07 13:00:08,659900
-1,-2,-6,-4,-5,-3,-2,-3,2021-08-07 13:00:08,675900
-2,-1,-2,-9,-14,-7,-2,-1,2021-08-07 13:00:08,675900
-3,0,-2,-1,0,-1,-1,-1,2021-08-07 13:00:08,675900
2,0,1,4,12,9,5,2,2021-08-07 13:00:08,675900
1,3,4,6,18,9,3,2,2021-08-07 13:00:08,691903
-1,-1,-2,1,1,0,0,0,2021-08-07 13:00:08,691903
3,3,3,2,2,1,0,1,2021-08-07 13:00:08,707901
0,1,1,-2,-2,-2,-2,0,2021-08-07 13:00:08,707901
-2,-2,-3,-4,-5,-4,-1,-1,2021-08-07 13:00:08,707901
0,0,0,3,2,3,0,1,2021-08-07 13:00:08,707901
0,-2,-1,-1,-3,-2,-1,0,2021-08-07 13:00:08,722899
-1,-1,-3,-1,-6,-2,-1,-1,2021-08-07 13:00:08,738903
-1,-2,-1,-3,-6,-2,-3,-1,2021-08-07 13:00:08,738903
-1,0,-3,-3,-3,0,0,0,2021-08-07 13:00:08,738903
-1,-3,-4,-1,1,-1,0,-1,2021-08-07 13:00:08,738903
-3,-4,-3,0,3,1,-1,-2,2021-08-07 13:00:08,738903
-1,3,3,2,0,-1,0,0,2021-08-07 13:00:08,738903
-1,0,0,1,5,3,0,-1,2021-08-07 13:00:08,739904
-1,0,0,-1,-4,-4,-3,-1,2021-08-07 13:00:08,770900
-3,-2,-3,-3,-5,-6,-4,-1,2021-08-07 13:00:08,770900
-3,-5,-6,-12,-18,-8,-5,-2,2021-08-07 13:00:08,770900
3,5,5,12,17,9,5,4,2021-08-07 13:00:08,770900
-2,-2,-4,-1,0,0,1,0,2021-08-07 13:00:08,786899
-2,-1,1,2,6,3,-1,-1,2021-08-07 13:00:08,802901
-1,-1,-1,-7,-10,-6,-5,-3,2021-08-07 13:00:08,818901
1,1,2,7,15,8,3,2,2021-08-07 13:00:08,818901
1,-1,1,5,10,5,2,0,2021-08-07 13:00:08,834898
-1,-3,-4,-8,-14,-9,-4,-2,2021-08-07 13:00:08,834898
-4,-4,-5,-3,-3,-4,-4,-4,2021-08-07 13:00:08,834898
0,0,1,-2,-2,0,1,0,2021-08-07 13:00:08,834898
1,1,0,2,3,2,0,0,2021-08-07 13:00:08,834898
0,0,0,0,-2,0,0,0,2021-08-07 13:00:08,834898
-1,-3,-2,-1,-3,-2,-2,-3,2021-08-07 13:00:08,835901
-1,-1,3,1,0,-1,-1,0,2021-08-07 13:00:08,835901
-2,-3,-2,-8,-15,-12,-5,-2,2021-08-07 13:00:08,849900
1,0,-1,3,2,6,3,-1,2021-08-07 13:00:08,865898
-2,-2,-2,-1,2,1,-1,-1,2021-08-07 13:00:08,881899
1,-2,2,10,15,10,2,0,2021-08-07 13:00:08,897901
-2,0,-2,-3,-4,-4,-3,-1,2021-08-07 13:00:08,897901
-1,-1,-2,-4,-4,-5,-3,-1,2021-08-07 13:00:08,897901
1,0,0,-1,-2,2,-1,1,2021-08-07 13:00:08,897901
-1,-2,-2,-3,-1,-1,-1,-3,2021-08-07 13:00:08,897901
2,1,0,4,5,3,1,1,2021-08-07 13:00:08,897901
-2,-3,-1,-4,-5,-4,-1,-3,2021-08-07 13:00:08,897901
0,3,3,5,2,2,2,2,2021-08-07 13:00:08,898901
1,2,1,-1,-3,-4,-1,2,2021-08-07 13:00:08,898901
-4,-4,-3,-5,-10,-4,-4,-4,2021-08-07 13:00:08,898901
0,-2,-2,3,7,3,0,2,2021-08-07 13:00:08,898901
1,2,2,-1,-1,0,0,-1,2021-08-07 13:00:08,898901
-6,-5,-6,-5,-8,-7,-7,-6,2021-08-07 13:00:08,898901
2,4,5,8,10,6,3,2,2021-08-07 13:00:08,927902
2,3,3,-1,-5,-2,-2,0,2021-08-07 13:00:08,943900
-1,-2,2,2,-1,-2,-1,-1,2021-08-07 13:00:08,959900
0,-1,-1,1,9,4,1,1,2021-08-07 13:00:08,959900
-2,-5,-4,-7,-9,-6,-3,-3,2021-08-07 13:00:08,959900
-1,-3,-2,2,9,9,0,-1,2021-08-07 13:00:08,959900
4,5,5,8,8,4,2,2,2021-08-07 13:00:08,959900
1,2,-1,-3,-8,-4,-1,-3,2021-08-07 13:00:08,959900
-2,-1,-4,-11,-13,-10,-2,-2,2021-08-07 13:00:08,960901
1,3,4,9,19,10,5,3,2021-08-07 13:00:08,960901
-2,-4,-4,-4,-10,-6,-5,-3,2021-08-07 13:00:08,960901
-2,-4,-2,-5,-8,-2,-3,-4,2021-08-07 13:00:08,960901
1,-1,1,5,8,4,2,0,2021-08-07 13:00:08,991900
-3,-2,-2,-8,-16,-12,-5,-1,2021-08-07 13:00:08,991900
0,2,0,5,21,13,5,3,2021-08-07 13:00:08,991900
-3,0,-2,-1,-2,-3,-3,0,2021-08-07 13:00:08,991900
0,0,-1,-4,-4,-2,-3,-2,2021-08-07 13:00:09,007900
2,1,1,-3,-2,-1,0,-1,2021-08-07 13:00:09,023900
1,0,-2,3,9,4,1,-2,2021-08-07 13:00:09,039902
-5,-6,-4,-8,-13,-9,-5,-3,2021-08-07 13:00:09,039902
-1,-1,0,-4,1,0,-1,-1,2021-08-07 13:00:09,039902
-1,1,1,-1,-13,-7,-4,-2,2021-08-07 13:00:09,039902
2,2,2,5,13,8,2,0,2021-08-07 13:00:09,039902
3,5,1,1,3,0,2,2,2021-08-07 13:00:09,039902
1,0,1,1,1,4,3,1,2021-08-07 13:00:09,039902
-5,-6,-8,-15,-27,-19,-9,-3,2021-08-07 13:00:09,048901
-2,-2,-2,1,8,7,7,2,2021-08-07 13:00:09,048901
-1,-1,1,8,11,7,5,0,2021-08-07 13:00:09,048901
-3,-2,0,4,1,-1,-1,-2,2021-08-07 13:00:09,071901
-4,-3,-3,-3,-4,-2,-4,-4,2021-08-07 13:00:09,071901
-3,-1,-2,-5,-16,-13,-8,-3,2021-08-07 13:00:09,071901
0,-1,-1,2,7,6,2,0,2021-08-07 13:00:09,071901
-2,-1,-2,0,-1,-2,-2,-1,2021-08-07 13:00:09,087902
5,4,3,-1,-3,-1,0,0,2021-08-07 13:00:09,103899
0,-1,-1,-2,0,-3,-1,-1,2021-08-07 13:00:09,119902
0,-2,-2,-8,-17,-9,-2,0,2021-08-07 13:00:09,119902
-1,-2,-2,9,16,8,2,0,2021-08-07 13:00:09,119902
-1,-2,-2,2,8,7,3,1,2021-08-07 13:00:09,119902
-2,-2,-4,-9,-24,-15,-8,-3,2021-08-07 13:00:09,119902
5,7,8,16,29,20,9,6,2021-08-07 13:00:09,119902
1,2,2,1,1,-1,0,0,2021-08-07 13:00:09,120899
0,1,1,2,5,3,2,1,2021-08-07 13:00:09,120899
0,-1,-2,0,2,1,0,0,2021-08-07 13:00:09,120899
-3,-5,-7,-11,-18,-13,-7,-5,2021-08-07 13:00:09,120899
2,3,3,2,5,4,4,2,2021-08-07 13:00:09,149900
0,0,0,2,5,1,-1,0,2021-08-07 13:00:09,165900
-3,-5,-4,-9,-14,-7,-5,-3,2021-08-07 13:00:09,165900
1,1,1,-3,-8,-6,-3,-1,2021-08-07 13:00:09,165900
-2,-2,-2,-5,-6,-4,-2,0,2021-08-07 13:00:09,165900
1,-1,1,4,2,-1,0,-2,2021-08-07 13:00:09,165900
-5,-4,-3,0,3,-1,-3,-3,2021-08-07 13:00:09,181898
-2,-2,0,4,10,6,2,1,2021-08-07 13:00:09,181898
-1,0,0,2,3,1,-1,0,2021-08-07 13:00:09,181898
0,1,0,-1,-2,0,-1,0,2021-08-07 13:00:09,181898
-1,-3,-1,2,0,2,1,0,2021-08-07 13:00:09,181898
-2,-4,-6,-12,-20,-13,-6,-4,2021-08-07 13:00:09,181898
1,0,0,2,5,2,0,-1,2021-08-07 13:00:09,213901
-3,-2,-4,0,6,5,2,1,2021-08-07 13:00:09,229902
2,2,6,6,6,4,2,1,2021-08-07 13:00:09,245899
-2,-2,-1,-4,-12,-10,-6,-2,2021-08-07 13:00:09,277902
-2,-2,-1,-5,-4,2,-1,-1,2021-08-07 13:00:09,277902
0,-1,-3,3,7,2,1,-1,2021-08-07 13:00:09,277902
-2,-1,-2,-6,-12,-7,-3,-3,2021-08-07 13:00:09,277902
0,3,3,4,16,11,4,3,2021-08-07 13:00:09,277902
1,-1,-4,-6,-9,-7,-3,-2,2021-08-07 13:00:09,278902
-3,-3,-1,-6,-11,-6,-4,-2,2021-08-07 13:00:09,278902
4,4,3,8,18,10,5,4,2021-08-07 13:00:09,278902
-1,-1,-1,1,5,4,2,-1,2021-08-07 13:00:09,278902
1,0,3,1,-2,-3,-1,0,2021-08-07 13:00:09,278902
0,-2,-4,1,4,0,-1,-1,2021-08-07 13:00:09,278902
2,1,1,0,0,0,1,0,2021-08-07 13:00:09,279900
-4,-3,-4,-8,-15,-11,-7,-4,2021-08-07 13:00:09,279900
0,0,-1,1,5,4,2,-1,2021-08-07 13:00:09,279900
0,2,1,5,6,4,2,1,2021-08-07 13:00:09,279900
-4,-5,-5,-6,-8,-5,-5,-6,2021-08-07 13:00:09,279900
0,0,-1,-4,-8,-4,-2,1,2021-08-07 13:00:09,279900
0,1,0,5,3,1,-1,0,2021-08-07 13:00:09,309901
-1,-2,0,1,1,-1,0,-1,2021-08-07 13:00:09,309901
1,2,-2,0,0,1,1,0,2021-08-07 13:00:09,309901
-1,-2,-2,-7,-11,-8,-3,-2,2021-08-07 13:00:09,309901
-2,-5,-4,3,1,0,-1,-5,2021-08-07 13:00:09,325899
0,0,2,4,11,7,2,0,2021-08-07 13:00:09,341900
-2,-2,-1,-1,-2,-2,2,-1,2021-08-07 13:00:09,341900
1,-4,-3,-4,4,1,0,-1,2021-08-07 13:00:09,341900
0,4,3,-3,-9,-4,0,2,2021-08-07 13:00:09,357899
0,0,0,-1,-3,-2,-1,-2,2021-08-07 13:00:09,357899
-1,-1,-1,-2,-6,-3,-3,-1,2021-08-07 13:00:09,357899
-1,-2,-1,4,7,4,0,-1,2021-08-07 13:00:09,357899
-3,-5,-4,-8,-7,-3,-5,-3,2021-08-07 13:00:09,357899
-3,-5,-6,-9,-14,-12,-8,-5,2021-08-07 13:00:09,373901
3,5,3,-2,4,9,5,3,2021-08-07 13:00:09,389900
3,5,5,8,8,4,4,3,2021-08-07 13:00:09,389900
-3,-1,0,4,3,2,1,0,2021-08-07 13:00:09,389900
1,1,0,2,4,1,2,1,2021-08-07 13:00:09,389900
-4,-4,-3,-4,-10,-8,-5,0,2021-08-07 13:00:09,389900
-4,-3,-2,-4,1,2,-2,-4,2021-08-07 13:00:09,389900
2,1,1,-2,-4,-1,0,1,2021-08-07 13:00:09,404900
-3,-5,-3,-11,-18,-11,-5,-2,2021-08-07 13:00:09,404900
2,4,5,13,23,12,7,3,2021-08-07 13:00:09,404900
-2,-2,-1,6,10,4,1,-2,2021-08-07 13:00:09,404900
-4,-3,-5,-7,-9,-7,-4,-3,2021-08-07 13:00:09,420901
-1,0,-2,-5,-3,0,-2,0,2021-08-07 13:00:09,436903
0,-1,0,-3,-6,-6,-3,-1,2021-08-07 13:00:09,436903
-1,-1,0,-4,-8,-3,-2,0,2021-08-07 13:00:09,436903
-1,-2,-2,-3,-4,-3,-2,-1,2021-08-07 13:00:09,436903
-2,1,1,3,7,3,3,-1,2021-08-07 13:00:09,436903
-1,-2,0,2,7,8,3,1,2021-08-07 13:00:09,436903
5,7,9,16,16,5,5,4,2021-08-07 13:00:09,437900
-3,-3,-6,-6,-6,-6,-3,-2,2021-08-07 13:00:09,468900
1,1,4,0,-3,0,-1,1,2021-08-07 13:00:09,484899
-4,-7,-9,-12,-19,-14,-9,-5,2021-08-07 13:00:09,484899
-2,-2,-2,-7,-14,-7,-2,-2,2021-08-07 13:00:09,484899
2,2,2,8,11,8,4,3,2021-08-07 13:00:09,484899
0,0,-1,6,8,7,3,0,2021-08-07 13:00:09,484899
-1,-1,-2,-4,-3,-4,-2,-2,2021-08-07 13:00:09,484899
-4,-8,-7,-8,-14,-10,-8,-4,2021-08-07 13:00:09,484899
1,0,0,-1,7,4,1,1,2021-08-07 13:00:09,497901
-1,1,-1,1,7,5,1,1,2021-08-07 13:00:09,497901
0,1,2,11,10,2,1,0,2021-08-07 13:00:09,516900
0,-1,-1,-1,0,1,0,0,2021-08-07 13:00:09,516900
-2,-7,-6,-10,-16,-10,-8,-4,2021-08-07 13:00:09,532900
3,2,4,3,0,-3,-2,1,2021-08-07 13:00:09,547899
1,3,2,1,7,8,3,3,2021-08-07 13:00:09,562900
-4,-4,-6,-12,-20,-12,-8,-3,2021-08-07 13:00:09,577903
-1,-1,-1,6,9,7,3,-3,2021-08-07 13:00:09,593934
2,1,1,2,3,4,2,1,2021-08-07 13:00:09,593934
0,-2,-1,-7,-7,-7,-3,-3,2021-08-07 13:00:09,593934
-3,-2,-2,-2,-5,-5,-3,-2,2021-08-07 13:00:09,593934
2,5,5,6,2,5,2,2,2021-08-07 13:00:09,593934
-1,-1,-3,-4,-3,-4,-2,-1,2021-08-07 13:00:09,593934
-2,-4,-3,-1,1,-1,-1,-3,2021-08-07 13:00:09,594934
5,3,0,7,19,15,8,5,2021-08-07 13:00:09,594934
-1,-1,-1,-4,-9,-9,-4,-3,2021-08-07 13:00:09,594934
-1,-1,-1,-1,1,3,1,1,2021-08-07 13:00:09,594934
2,2,0,1,-3,-3,-1,1,2021-08-07 13:00:09,594934
-2,-1,-2,-1,-2,-3,-1,-1,2021-08-07 13:00:09,594934
-3,-3,-2,2,2,0,0,-1,2021-08-07 13:00:09,595933
-1,-3,-5,-9,-12,-9,-4,-2,2021-08-07 13:00:09,595933
0,0,2,2,2,3,1,0,2021-08-07 13:00:09,609937
-2,-3,-4,-4,0,-1,-2,-4,2021-08-07 13:00:09,609937
3,5,5,-2,1,1,1,1,2021-08-07 13:00:09,625935
-3,0,-3,-3,-1,-2,-1,-1,2021-08-07 13:00:09,641932
-1,1,-1,-1,-4,-2,-1,-1,2021-08-07 13:00:09,641932
0,-1,1,-3,-1,-4,-1,-3,2021-08-07 13:00:09,641932
1,0,2,6,14,9,2,0,2021-08-07 13:00:09,641932
-3,-2,-3,-7,-11,-6,-5,-3,2021-08-07 13:00:09,641932
-3,-3,-4,-3,-6,-3,-3,-2,2021-08-07 13:00:09,641932
2,2,3,7,13,10,5,4,2021-08-07 13:00:09,641932
1,-1,-1,-3,-6,-6,-3,-1,2021-08-07 13:00:09,657933
1,0,0,0,2,2,1,-1,2021-08-07 13:00:09,672932
-2,-3,-3,-1,-1,-5,-5,-2,2021-08-07 13:00:09,672932
-4,-3,-1,-2,-9,-5,-4,-3,2021-08-07 13:00:09,672932
1,3,3,4,11,9,4,2,2021-08-07 13:00:09,688934
0,1,1,-1,-2,-1,2,1,2021-08-07 13:00:09,688934
-1,-2,-1,-2,-2,-1,0,-3,2021-08-07 13:00:09,688934
0,-1,-2,-1,-6,-3,-2,0,2021-08-07 13:00:09,688934
-2,-3,-1,0,-4,-6,-4,-2,2021-08-07 13:00:09,704932
-2,-1,-1,6,13,9,4,-1,2021-08-07 13:00:09,704932
0,-1,-1,-6,-1,3,2,1,2021-08-07 13:00:09,704932
0,2,0,-3,-7,-3,-1,-2,2021-08-07 13:00:09,704932
-3,-4,-5,-7,-10,-8,-4,-3,2021-08-07 13:00:09,720933
-1,-3,-1,-5,-16,-10,-6,-2,2021-08-07 13:00:09,720933
2,3,5,11,16,11,5,3,2021-08-07 13:00:09,720933
0,0,-1,3,10,5,2,-1,2021-08-07 13:00:09,720933
-1,0,0,0,-7,-2,0,0,2021-08-07 13:00:09,752934
-3,-4,-3,-1,-2,-4,-4,-3,2021-08-07 13:00:09,752934
-2,-2,-2,-2,-6,-4,-1,1,2021-08-07 13:00:09,752934
4,5,5,8,19,12,6,6,2021-08-07 13:00:09,752934
-2,-4,-5,-7,-10,-7,-4,-3,2021-08-07 13:00:09,767932
4,7,6,8,11,7,3,3,2021-08-07 13:00:09,767932
0,0,0,-2,-6,-3,0,-1,2021-08-07 13:00:09,767932
-2,-4,-4,-6,-12,-8,-4,-3,2021-08-07 13:00:09,767932
-1,-2,-4,0,0,0,1,0,2021-08-07 13:00:09,800162
-3,-6,-8,-14,-20,-10,-5,-3,2021-08-07 13:00:09,800162
4,5,6,15,25,12,6,3,2021-08-07 13:00:09,800162
0,-1,-2,-4,-7,-2,-1,1,2021-08-07 13:00:09,800162
1,0,2,0,3,3,1,-1,2021-08-07 13:00:09,800162
-5,-9,-7,-6,-14,-11,-6,-5,2021-08-07 13:00:09,800162
2,4,4,2,-2,4,1,0,2021-08-07 13:00:09,800934
-1,-3,-2,3,8,3,1,-2,2021-08-07 13:00:09,800934
-2,-3,-3,-7,-17,-12,-6,-3,2021-08-07 13:00:09,831446
1,1,1,2,8,6,2,1,2021-08-07 13:00:09,831446
-1,-2,-4,-4,2,3,1,0,2021-08-07 13:00:09,831446
-3,-1,-1,-3,-7,-4,-3,-1,2021-08-07 13:00:09,831446
1,3,1,6,8,6,2,2,2021-08-07 13:00:09,847450
-1,-3,-2,-5,-7,-6,-5,-2,2021-08-07 13:00:09,847450
-1,2,0,-6,-15,-9,-5,-2,2021-08-07 13:00:09,847450
1,-1,-1,0,2,1,1,-2,2021-08-07 13:00:09,847450
-4,-5,-6,-5,-6,-6,-4,-3,2021-08-07 13:00:09,863448
3,5,4,6,15,10,7,2,2021-08-07 13:00:09,863448
-3,-4,-5,-11,-17,-14,-8,-4,2021-08-07 13:00:09,863448
-2,-2,-2,-4,-5,1,-2,-1,2021-08-07 13:00:09,863448
-3,-4,-4,-7,0,0,-2,-3,2021-08-07 13:00:09,895449
7,11,11,23,31,17,9,5,2021-08-07 13:00:09,895449
-1,-1,-3,0,-1,-3,-2,-1,2021-08-07 13:00:09,895449
-1,1,0,-2,-9,-9,-3,-2,2021-08-07 13:00:09,895449
-5,-7,-6,-11,-17,-11,-6,-5,2021-08-07 13:00:09,911447
0,0,-1,-10,-15,-5,-2,2,2021-08-07 13:00:09,927448
1,1,-1,2,11,9,4,2,2021-08-07 13:00:09,943448
1,-1,-2,-4,-5,-5,-3,0,2021-08-07 13:00:09,946447
1,3,0,6,8,4,4,1,2021-08-07 13:00:09,946447
-7,-6,-4,-4,-2,-4,-2,-5,2021-08-07 13:00:09,946447
-2,-3,0,-4,-5,-4,-2,-3,2021-08-07 13:00:09,946447
-3,0,1,5,4,4,2,-2,2021-08-07 13:00:09,947448
0,1,1,-3,-3,-1,-3,-2,2021-08-07 13:00:09,947448
-2,0,0,0,-1,-1,-2,-2,2021-08-07 13:00:09,947448
1,-1,-2,-3,-2,-2,-1,-1,2021-08-07 13:00:09,947448
1,1,0,-3,-7,-5,-1,1,2021-08-07 13:00:09,947448
0,1,1,3,6,3,2,0,2021-08-07 13:00:09,975449
-2,-4,-5,-3,-3,-4,-3,-2,2021-08-07 13:00:09,975449
2,1,2,2,0,0,0,0,2021-08-07 13:00:09,975449
1,1,1,-1,3,3,4,1,2021-08-07 13:00:09,975449
1,2,2,7,9,3,2,2,2021-08-07 13:00:09,975449
-1,-2,-5,-7,-9,-4,-2,-2,2021-08-07 13:00:09,975449
-2,-5,-4,0,0,-3,-4,-3,2021-08-07 13:00:09,976448
2,3,2,-10,-19,-9,-4,1,2021-08-07 13:00:09,976448
3,5,7,11,17,13,7,6,2021-08-07 13:00:10,007448
0,1,0,0,2,0,0,0,2021-08-07 13:00:10,007448
-1,0,-3,0,0,-2,1,1,2021-08-07 13:00:10,007448
-3,-6,-6,0,2,1,-1,-2,2021-08-07 13:00:10,007448
-3,-4,-4,-12,-15,-8,-5,-5,2021-08-07 13:00:10,055447
0,0,3,3,3,-1,-1,1,2021-08-07 13:00:10,055447
-1,3,1,-3,-6,-4,-1,-1,2021-08-07 13:00:10,055447
-2,-2,-1,-2,-1,1,-3,-2,2021-08-07 13:00:10,055447
1,3,1,6,10,1,1,0,2021-08-07 13:00:10,055447
-4,-4,-4,-6,-13,-10,-5,-4,2021-08-07 13:00:10,055447
-3,-3,0,2,5,3,1,-1,2021-08-07 13:00:10,056449
1,-1,-2,-5,-5,-2,2,0,2021-08-07 13:00:10,056449
2,3,3,9,22,13,6,3,2021-08-07 13:00:10,070448
-1,-2,-2,-6,-10,-7,-4,-3,2021-08-07 13:00:10,070448
-3,-1,-1,-1,-4,-5,-3,-3,2021-08-07 13:00:10,070448
0,1,-2,-10,-9,-6,-3,0,2021-08-07 13:00:10,070448
1,2,4,6,8,8,4,2,2021-08-07 13:00:10,102447
-2,-4,-3,-1,0,-2,-1,-1,2021-08-07 13:00:10,102447
-1,1,-1,-6,-7,-4,-3,-1,2021-08-07 13:00:10,102447
-3,-1,0,7,11,3,-2,-1,2021-08-07 13:00:10,102447
-4,-3,-3,-12,-15,-10,-4,-3,2021-08-07 13:00:10,102447
1,1,2,2,1,2,1,2,2021-08-07 13:00:10,102447
-2,-4,-3,-5,-6,-3,-4,-3,2021-08-07 13:00:10,103447
-5,-5,-4,-4,-10,-7,-3,-1,2021-08-07 13:00:10,103447
2,2,2,6,17,10,5,2,2021-08-07 13:00:10,133448
0,1,1,2,4,3,1,-1,2021-08-07 13:00:10,149446
-4,-3,-4,-8,-17,-9,-4,-4,2021-08-07 13:00:10,149446
5,5,5,19,35,23,11,3,2021-08-07 13:00:10,149446
-4,-7,-7,-18,-31,-22,-12,-5,2021-08-07 13:00:10,149446
1,-1,-2,0,2,4,2,0,2021-08-07 13:00:10,149446
6,8,6,20,45,25,12,6,2021-08-07 13:00:10,149446
-3,-1,-2,-1,-6,-6,-2,-4,2021-08-07 13:00:10,150447
1,-1,-1,0,0,-2,-1,0,2021-08-07 13:00:10,164449
-2,-1,-1,-2,-13,-11,-5,-3,2021-08-07 13:00:10,164449
-2,-5,-5,-13,-17,-9,-4,-3,2021-08-07 13:00:10,164449
-1,-3,-4,-1,4,2,0,0,2021-08-07 13:00:10,164449
-1,-1,-4,-2,-5,-3,0,-1,2021-08-07 13:00:10,195446
0,1,2,5,8,6,3,1,2021-08-07 13:00:10,211446
-1,-1,0,1,2,0,-1,0,2021-08-07 13:00:10,227450
-3,-3,-2,-1,-1,-1,-2,-3,2021-08-07 13:00:10,227450
-4,-5,-7,-10,-17,-10,-6,-2,2021-08-07 13:00:10,227450
0,3,3,1,3,-1,-1,1,2021-08-07 13:00:10,227450
-1,-1,-1,1,-2,-3,0,-2,2021-08-07 13:00:10,227450
0,0,1,-1,3,1,0,1,2021-08-07 13:00:10,243446
-1,-1,-1,2,6,4,1,0,2021-08-07 13:00:10,243446
-1,-1,0,-1,1,0,2,-1,2021-08-07 13:00:10,243446
-1,-3,-1,-4,-8,-7,-4,-1,2021-08-07 13:00:10,243446
-2,-2,-3,-1,-4,-1,-3,-1,2021-08-07 13:00:10,243446
0,1,3,-4,-9,-4,-1,-1,2021-08-07 13:00:10,243446
0,0,-2,4,18,9,5,1,2021-08-07 13:00:10,243446
0,-2,-1,-5,-9,-3,-1,1,2021-08-07 13:00:10,244450
2,3,3,5,7,4,3,3,2021-08-07 13:00:10,244450
1,3,4,7,7,3,1,1,2021-08-07 13:00:10,275448
-1,-3,-4,-8,-15,-10,-5,-2,2021-08-07 13:00:10,275448
0,-1,-3,-6,-6,-3,0,-1,2021-08-07 13:00:10,275448
0,-2,-2,3,7,-1,-1,-2,2021-08-07 13:00:10,276450
-1,-2,0,-1,-3,-3,-1,-1,2021-08-07 13:00:10,291448
0,-1,-2,-7,-11,-5,-2,0,2021-08-07 13:00:10,291448
1,1,1,8,14,9,1,2,2021-08-07 13:00:10,291448
-1,0,-2,-8,-11,-7,-2,0,2021-08-07 13:00:10,291448
-1,0,-2,-1,7,6,2,-1,2021-08-07 13:00:10,306448
-2,-4,-3,-3,-5,-2,-2,-3,2021-08-07 13:00:10,322446
-4,-3,-4,-7,-8,-6,-2,-4,2021-08-07 13:00:10,338450
-1,-1,0,5,0,1,-1,-2,2021-08-07 13:00:10,354446
2,1,1,3,1,0,1,0,2021-08-07 13:00:10,386449
0,3,1,0,8,7,4,2,2021-08-07 13:00:10,390449
0,1,1,-3,-3,-1,-1,0,2021-08-07 13:00:10,390449
-2,-2,-2,-6,-3,-4,-3,-1,2021-08-07 13:00:10,390449
-3,-4,-2,6,7,2,-1,-3,2021-08-07 13:00:10,391449
1,0,-1,1,1,1,-1,0,2021-08-07 13:00:10,391449
0,1,3,9,11,5,1,1,2021-08-07 13:00:10,391449
1,4,2,-2,-3,-2,1,2,2021-08-07 13:00:10,391449
-1,-4,-4,-14,-16,-8,-6,-2,2021-08-07 13:00:10,391449
-1,-2,-4,-2,1,2,1,-1,2021-08-07 13:00:10,391449
-2,-1,-1,-3,-8,-5,-3,-3,2021-08-07 13:00:10,392449
-2,-1,-2,-1,-2,-1,-1,-4,2021-08-07 13:00:10,392449
2,3,3,13,22,10,4,4,2021-08-07 13:00:10,392449
-1,-2,-1,-2,-3,-2,-2,-1,2021-08-07 13:00:10,392449
-2,-4,-4,-7,-9,-7,-2,-1,2021-08-07 13:00:10,392449
1,0,2,-5,-12,-4,-1,-2,2021-08-07 13:00:10,392449
-3,-3,-3,-4,-2,-1,-1,-1,2021-08-07 13:00:10,417448
-4,-4,-3,-1,-3,-3,-4,-2,2021-08-07 13:00:10,433449
3,5,4,11,16,9,7,4,2021-08-07 13:00:10,449446
-3,-5,-4,-10,-12,-8,-5,-2,2021-08-07 13:00:10,449446
-3,-3,-2,-5,-11,-5,-2,-2,2021-08-07 13:00:10,449446
1,2,4,9,17,7,2,1,2021-08-07 13:00:10,449446
-3,-4,-5,-5,-12,-8,-6,-3,2021-08-07 13:00:10,449446
4,4,3,8,20,15,7,4,2021-08-07 13:00:10,449446
-2,-2,-2,-5,-11,-9,-5,-4,2021-08-07 13:00:10,449446
1,2,4,1,1,0,2,0,2021-08-07 13:00:10,450449
-1,0,-4,-6,-12,-4,-3,-3,2021-08-07 13:00:10,450449
-1,-1,2,15,27,12,3,-1,2021-08-07 13:00:10,450449
-2,-1,-2,-7,-12,-7,-5,-2,2021-08-07 13:00:10,465446
-1,-1,1,0,-2,0,0,-1,2021-08-07 13:00:10,481446
1,1,4,9,12,7,3,1,2021-08-07 13:00:10,481446
-3,-4,-5,-10,-18,-10,-3,-3,2021-08-07 13:00:10,481446
0,0,-1,4,3,0,0,1,2021-08-07 13:00:10,481446
2,-1,0,1,-4,-2,0,-1,2021-08-07 13:00:10,481446
5,6,3,7,21,16,9,4,2021-08-07 13:00:10,481446
-1,-2,1,-8,-7,-4,-2,-1,2021-08-07 13:00:10,481446
-3,-3,4,-4,-7,-7,-4,-1,2021-08-07 13:00:10,513446
-1,-1,-10,4,4,1,0,0,2021-08-07 13:00:10,513446
-5,-6,-7,-10,-23,-15,-8,-4,2021-08-07 13:00:10,513446
1,0,0,7,12,13,4,1,2021-08-07 13:00:10,513446
-3,-3,-3,-6,-9,-9,-4,-4,2021-08-07 13:00:10,528448
3,6,11,8,10,11,7,4,2021-08-07 13:00:10,528448
1,0,0,3,12,7,4,2,2021-08-07 13:00:10,528448
0,1,1,2,-5,-5,-2,-1,2021-08-07 13:00:10,528448
0,1,-1,-3,-1,3,1,0,2021-08-07 13:00:10,544447
-3,-4,-3,-4,-5,-5,-2,-3,2021-08-07 13:00:10,544447
-3,-5,-7,-7,-11,-7,-4,-5,2021-08-07 13:00:10,544447
-3,-4,-1,-5,-3,-3,-1,-2,2021-08-07 13:00:10,544447
2,4,1,6,8,5,3,2,2021-08-07 13:00:10,576447
-2,-4,-5,-7,-17,-13,-8,-3,2021-08-07 13:00:10,592447
0,0,0,2,12,3,0,0,2021-08-07 13:00:10,592447
1,1,1,0,-3,1,2,1,2021-08-07 13:00:10,592447
-3,-3,-5,-4,3,0,-2,-1,2021-08-07 13:00:10,592447
1,0,-1,-6,-4,-4,0,0,2021-08-07 13:00:10,592447
-4,-7,-6,-13,-14,-8,-7,-3,2021-08-07 13:00:10,592447
0,0,-3,-5,-8,-5,-3,-1,2021-08-07 13:00:10,593448
5,3,2,18,30,21,11,5,2021-08-07 13:00:10,608448
0,0,2,2,-4,-4,-4,-2,2021-08-07 13:00:10,608448
-2,-3,-1,-2,-2,-3,-2,-3,2021-08-07 13:00:10,608448
1,1,-1,-7,-13,-9,-4,-1,2021-08-07 13:00:10,608448
0,1,1,4,1,2,1,1,2021-08-07 13:00:10,624448
-2,-2,-4,-7,-5,-2,-3,1,2021-08-07 13:00:10,624448
0,2,1,4,4,4,2,0,2021-08-07 13:00:10,624448
-4,-5,-6,-4,-5,-5,-5,-3,2021-08-07 13:00:10,640448
-3,-4,-6,-5,-13,-10,-5,-5,2021-08-07 13:00:10,656447
0,3,1,-5,-1,2,2,0,2021-08-07 13:00:10,656447
1,3,3,11,11,4,2,3,2021-08-07 13:00:10,656447
-1,-1,0,-5,-8,-5,-2,-1,2021-08-07 13:00:10,656447
-2,-2,-4,-8,-10,-9,-5,-1,2021-08-07 13:00:10,672448
-5,-5,-4,-3,-5,-3,-3,-3,2021-08-07 13:00:10,672448
0,0,1,3,5,5,3,-1,2021-08-07 13:00:10,672448
1,2,0,2,9,4,1,2,2021-08-07 13:00:10,672448
1,-1,0,-2,-4,-3,-1,-1,2021-08-07 13:00:10,688448
2,3,2,7,11,10,5,0,2021-08-07 13:00:10,704446
-1,-2,-3,-1,6,2,0,1,2021-08-07 13:00:10,720448
-1,-2,-1,-2,-7,-6,-5,-1,2021-08-07 13:00:10,736449
-1,1,2,-1,-5,-2,0,0,2021-08-07 13:00:10,736449
-2,-4,-3,-6,-13,-7,-5,-2,2021-08-07 13:00:10,736449
0,0,1,3,2,3,0,-1,2021-08-07 13:00:10,736449
3,2,4,15,22,12,4,2,2021-08-07 13:00:10,736449
1,-2,-4,-9,-12,-6,-4,-1,2021-08-07 13:00:10,736449
-1,-3,-2,-5,7,5,2,-1,2021-08-07 13:00:10,737448
-1,1,-2,-7,-13,-7,-3,-1,2021-08-07 13:00:10,752446
-6,-5,-4,-9,-15,-8,-3,-5,2021-08-07 13:00:10,768450
-1,1,2,5,8,3,1,-1,2021-08-07 13:00:10,784446
3,3,1,-1,1,0,1,1,2021-08-07 13:00:10,784446
1,0,-1,-7,-10,-6,-3,1,2021-08-07 13:00:10,784446
0,1,1,14,28,17,7,2,2021-08-07 13:00:10,784446
0,2,1,6,10,6,3,0,2021-08-07 13:00:10,784446
2,2,1,-1,-1,-4,-1,4,2021-08-07 13:00:10,784446
-1,-1,-2,-7,-12,-8,-4,-1,2021-08-07 13:00:10,784446
-1,-3,-5,-5,-10,-5,-4,-1,2021-08-07 13:00:10,784446
-3,-4,-2,-2,-1,2,0,-4,2021-08-07 13:00:10,800446
-4,-3,-1,2,3,1,-2,-3,2021-08-07 13:00:10,816446
-1,2,5,3,3,0,0,1,2021-08-07 13:00:10,832448
-2,-1,1,-1,-5,-4,-2,-2,2021-08-07 13:00:10,835448
0,0,-2,-3,-2,-1,-2,-1,2021-08-07 13:00:10,836447
0,1,0,0,0,-1,-1,0,2021-08-07 13:00:10,836447
1,1,1,3,3,5,2,2,2021-08-07 13:00:10,836447
0,-1,-4,-10,-12,-6,-5,-1,2021-08-07 13:00:10,836447
-3,-2,-2,-1,-2,-2,-4,-2,2021-08-07 13:00:10,836447
3,3,3,5,15,8,4,1,2021-08-07 13:00:10,836447
-2,-2,-1,-4,2,-2,-1,-2,2021-08-07 13:00:10,836447
-3,-4,-4,1,-11,-8,-4,-4,2021-08-07 13:00:10,836447
7,8,8,16,33,24,14,8,2021-08-07 13:00:10,848447
-3,-4,-4,-3,-12,-11,-6,-4,2021-08-07 13:00:10,864446
-3,-2,-5,-10,-16,-10,-5,-3,2021-08-07 13:00:10,879448
0,-1,-2,-1,0,-1,0,0,2021-08-07 13:00:10,879448
-2,-2,-2,-5,-8,-3,-2,0,2021-08-07 13:00:10,879448
-1,0,1,3,3,3,0,-1,2021-08-07 13:00:10,879448
1,-2,-2,5,8,4,3,2,2021-08-07 13:00:10,879448
0,0,2,-1,-1,-1,-2,2,2021-08-07 13:00:10,879448
-1,-2,-1,-3,-4,-2,0,-2,2021-08-07 13:00:10,910449
0,0,-1,2,7,5,1,0,2021-08-07 13:00:10,910449
-4,-4,-3,-6,-10,-5,-4,-3,2021-08-07 13:00:10,910449
3,7,8,5,7,5,3,3,2021-08-07 13:00:10,910449
1,1,0,7,8,1,1,1,2021-08-07 13:00:10,910449
-2,-3,-2,-5,-6,-5,-1,-2,2021-08-07 13:00:10,910449
-1,-4,-3,-3,-4,-3,-2,-2,2021-08-07 13:00:10,910449
-2,-3,-4,-5,5,5,2,-1,2021-08-07 13:00:10,910449
-4,-3,-3,-9,-19,-16,-9,-3,2021-08-07 13:00:10,926446
1,-1,-2,5,12,11,2,0,2021-08-07 13:00:10,926446
1,2,3,6,11,7,2,1,2021-08-07 13:00:10,926446
-1,-2,-1,2,-3,-5,-2,-2,2021-08-07 13:00:10,926446
-1,-1,-1,-8,-16,-12,-5,-2,2021-08-07 13:00:10,958448
1,-1,0,9,13,7,3,1,2021-08-07 13:00:10,958448
0,2,1,1,0,-1,1,1,2021-08-07 13:00:10,958448
1,1,2,6,6,4,4,0,2021-08-07 13:00:10,958448
-2,-3,-8,-14,-12,-7,-5,-4,2021-08-07 13:00:10,958448
1,0,-2,-5,-10,-5,-2,1,2021-08-07 13:00:10,958448
-1,0,0,1,1,2,-1,-1,2021-08-07 13:00:10,958448
-3,-3,-4,-1,1,-5,-3,-3,2021-08-07 13:00:10,959448
1,0,0,-3,-9,-5,0,-1,2021-08-07 13:00:10,989446
-3,0,0,-1,-6,-3,-2,-2,2021-08-07 13:00:11,005448
1,-2,0,3,12,10,4,0,2021-08-07 13:00:11,005448
-2,-3,-6,-14,-14,-9,-4,-2,2021-08-07 13:00:11,005448
6,5,9,19,29,20,8,4,2021-08-07 13:00:11,005448
0,0,0,1,-6,-5,-2,-2,2021-08-07 13:00:11,005448
-3,-2,-4,-5,-12,-8,-4,-4,2021-08-07 13:00:11,005448
1,2,2,6,6,4,2,2,2021-08-07 13:00:11,006449
1,-3,-2,2,3,2,-1,-1,2021-08-07 13:00:11,036446
0,-1,-4,-9,-11,-8,-4,-1,2021-08-07 13:00:11,036446
-2,-2,1,4,2,-2,-3,-3,2021-08-07 13:00:11,036446
0,0,0,2,8,4,0,-2,2021-08-07 13:00:11,036446
0,3,1,6,7,5,1,0,2021-08-07 13:00:11,052447
1,1,1,7,12,7,3,2,2021-08-07 13:00:11,068446
1,1,-1,-7,-3,-2,1,2,2021-08-07 13:00:11,068446
-4,-4,-6,-13,-18,-9,-5,-4,2021-08-07 13:00:11,068446
-4,-5,-2,-3,-4,-4,-2,-3,2021-08-07 13:00:11,084446
-1,-1,-1,3,1,2,1,-2,2021-08-07 13:00:11,084446
2,3,2,7,14,6,1,2,2021-08-07 13:00:11,084446
1,3,2,3,-1,-1,-1,1,2021-08-07 13:00:11,084446
-2,-3,-3,-4,-6,-2,-2,-3,2021-08-07 13:00:11,084446
-1,-1,0,-6,-7,-4,-1,-3,2021-08-07 13:00:11,084446
2,3,2,5,7,4,2,1,2021-08-07 13:00:11,084446
-1,-1,-2,-1,-4,-3,-1,0,2021-08-07 13:00:11,085450
-3,-2,-5,-5,-5,-5,-4,-3,2021-08-07 13:00:11,116446
-3,-3,-3,-7,-11,-8,-4,-1,2021-08-07 13:00:11,116446
1,3,4,6,10,7,3,0,2021-08-07 13:00:11,116446
0,-1,-2,0,0,1,-3,-2,2021-08-07 13:00:11,116446
-2,-1,0,0,1,-4,0,2,2021-08-07 13:00:11,148447
-1,-1,-2,-4,-6,-7,-3,0,2021-08-07 13:00:11,148447
-4,-4,-4,-5,-7,-2,-1,0,2021-08-07 13:00:11,148447
0,0,1,2,7,4,3,-1,2021-08-07 13:00:11,148447
-1,0,-3,-6,-6,-2,-3,-2,2021-08-07 13:00:11,148447
1,1,0,-4,-7,-3,-3,-1,2021-08-07 13:00:11,148447
-1,-4,-3,-2,-5,-5,-4,-2,2021-08-07 13:00:11,149448
2,3,3,3,3,1,2,1,2021-08-07 13:00:11,149448
2,3,4,3,-5,-3,-1,2,2021-08-07 13:00:11,196448
0,0,-1,-2,-2,0,-1,0,2021-08-07 13:00:11,196448
2,5,4,13,22,14,6,2,2021-08-07 13:00:11,212448
-4,-4,-6,-11,-12,-7,-4,-3,2021-08-07 13:00:11,212448
-2,-4,-4,-2,-2,-1,0,-4,2021-08-07 13:00:11,212448
-2,-2,-4,-12,-18,-12,-5,-3,2021-08-07 13:00:11,212448
1,-1,-1,2,-1,1,1,-1,2021-08-07 13:00:11,212448
0,-2,0,-2,-4,-6,-5,-1,2021-08-07 13:00:11,212448
0,-1,-1,-2,-4,1,1,-1,2021-08-07 13:00:11,212448
-3,-1,0,3,10,6,1,0,2021-08-07 13:00:11,212448
-2,-2,-4,-9,-13,-10,-4,-2,2021-08-07 13:00:11,212448
-3,-1,-1,2,-2,-1,-2,-2,2021-08-07 13:00:11,212448
-1,-1,0,-3,-5,0,0,2,2021-08-07 13:00:11,227448
-3,-3,-3,-2,-4,-3,-4,-3,2021-08-07 13:00:11,227448
4,4,3,0,6,4,4,3,2021-08-07 13:00:11,227448
0,1,3,9,13,4,2,0,2021-08-07 13:00:11,227448
2,5,5,16,35,20,10,3,2021-08-07 13:00:11,259448
-3,-5,-4,-5,-13,-10,-4,-2,2021-08-07 13:00:11,259448
-1,2,1,0,2,2,3,4,2021-08-07 13:00:11,259448
-2,-3,-2,-1,2,1,-1,-1,2021-08-07 13:00:11,259448
-4,-4,-5,-14,-19,-13,-7,-2,2021-08-07 13:00:11,259448
1,1,3,8,9,8,3,2,2021-08-07 13:00:11,260449
-4,-5,-5,-8,-19,-12,-6,-4,2021-08-07 13:00:11,260449
-2,-3,-3,-9,-13,-6,-1,-1,2021-08-07 13:00:11,260449
1,1,2,4,13,7,2,1,2021-08-07 13:00:11,291446
1,2,3,8,12,6,4,1,2021-08-07 13:00:11,322446
0,1,0,-3,-4,-3,-2,0,2021-08-07 13:00:11,322446
-1,-2,0,-2,-2,-1,-2,0,2021-08-07 13:00:11,322446
-5,-6,-9,-23,-36,-24,-12,-5,2021-08-07 13:00:11,322446
5,4,6,14,28,20,12,8,2021-08-07 13:00:11,322446
2,2,7,16,18,8,3,2,2021-08-07 13:00:11,322446
4,4,2,7,14,9,5,1,2021-08-07 13:00:11,322446
-2,-3,-4,-5,-10,-7,-3,-3,2021-08-07 13:00:11,323448
-3,-3,-4,-8,-12,-8,-5,-5,2021-08-07 13:00:11,323448
-2,-3,-2,-5,-5,0,-1,-1,2021-08-07 13:00:11,338449
-1,-2,-1,-5,-9,-5,-4,-1,2021-08-07 13:00:11,354448
1,0,0,2,5,3,2,0,2021-08-07 13:00:11,354448
0,0,0,0,2,-1,0,-1,2021-08-07 13:00:11,354448
-3,-3,-3,-5,-6,-1,-2,-2,2021-08-07 13:00:11,354448
-1,-3,-2,-7,-10,-7,-5,-1,2021-08-07 13:00:11,354448
1,1,1,5,6,6,4,1,2021-08-07 13:00:11,370447
0,-2,-2,3,12,5,2,0,2021-08-07 13:00:11,370447
-1,-1,-2,-6,-13,-11,-5,-3,2021-08-07 13:00:11,370447
4,3,3,5,10,7,5,4,2021-08-07 13:00:11,370447
-1,-3,-4,-7,-7,-5,-4,-3,2021-08-07 13:00:11,386447
3,4,7,8,21,17,6,3,2021-08-07 13:00:11,386447
-2,-2,-5,-9,-18,-12,-6,-3,2021-08-07 13:00:11,386447
-2,3,2,11,24,10,5,0,2021-08-07 13:00:11,386447
1,-1,-1,1,-2,-4,-1,1,2021-08-07 13:00:11,417447
-3,-5,-7,-12,-16,-11,-6,-4,2021-08-07 13:00:11,432446
1,0,2,8,13,8,3,-1,2021-08-07 13:00:11,432446
-3,-4,-5,-6,-12,-7,-3,-3,2021-08-07 13:00:11,432446
-1,-3,-1,-4,-3,-3,-2,-1,2021-08-07 13:00:11,432446
2,2,0,1,-2,-1,-1,1,2021-08-07 13:00:11,432446
0,-3,-3,-3,-3,-2,-2,1,2021-08-07 13:00:11,448447
0,0,0,0,-4,-2,0,-1,2021-08-07 13:00:11,448447
-1,1,1,6,9,5,2,-1,2021-08-07 13:00:11,448447
0,0,0,-2,-8,-3,-2,-1,2021-08-07 13:00:11,448447
-2,-4,-2,-3,-3,-2,-2,-1,2021-08-07 13:00:11,448447
2,0,0,0,2,1,-1,1,2021-08-07 13:00:11,448447
-2,-1,-1,0,-7,-7,-4,-4,2021-08-07 13:00:11,480447
-1,1,-1,1,1,3,2,0,2021-08-07 13:00:11,496448
2,2,0,-3,0,1,0,2,2021-08-07 13:00:11,512449
-1,0,-3,1,4,3,0,0,2021-08-07 13:00:11,528447
1,-1,0,-2,-1,0,-2,1,2021-08-07 13:00:11,559450
-4,-4,-7,-3,-11,-9,-5,-3,2021-08-07 13:00:11,559450
-1,0,3,-2,-2,-3,-2,-3,2021-08-07 13:00:11,559450
1,0,1,-1,-3,-1,-1,0,2021-08-07 13:00:11,559450
-2,-2,-1,-2,-5,-3,-1,-2,2021-08-07 13:00:11,575448
0,-4,-5,-3,-3,3,-1,1,2021-08-07 13:00:11,575448
8,11,7,16,29,16,9,7,2021-08-07 13:00:11,575448
-3,-4,-5,-5,-5,-4,-2,-1,2021-08-07 13:00:11,575448
1,2,4,-1,0,-1,-2,0,2021-08-07 13:00:11,591448
-3,-2,-4,-8,-17,-12,-8,-2,2021-08-07 13:00:11,591448
-6,-8,-9,-12,-19,-12,-7,-6,2021-08-07 13:00:11,591448
-1,-2,-2,-9,-10,-2,-3,-1,2021-08-07 13:00:11,591448
3,5,6,25,50,29,14,6,2021-08-07 13:00:11,591448
0,3,3,1,0,-4,0,1,2021-08-07 13:00:11,591448
-2,-3,-1,-2,-3,-1,-1,-2,2021-08-07 13:00:11,591448
0,1,0,0,-6,-9,-4,-2,2021-08-07 13:00:11,591448
-5,-8,-7,-12,-20,-12,-8,-5,2021-08-07 13:00:11,592448
1,-1,1,-2,8,7,1,-2,2021-08-07 13:00:11,592448
-5,-5,-4,-2,-4,-5,-5,-3,2021-08-07 13:00:11,592448
2,3,2,-5,-2,2,2,1,2021-08-07 13:00:11,592448
1,2,4,5,2,1,1,1,2021-08-07 13:00:11,592448
-1,1,3,7,9,3,1,0,2021-08-07 13:00:11,592448
-1,-1,-2,-7,-13,-8,-4,-2,2021-08-07 13:00:11,592448
-4,-5,-6,-3,-9,-3,-2,-3,2021-08-07 13:00:11,592448
2,1,1,7,18,12,5,2,2021-08-07 13:00:11,623447
-1,-3,-3,-4,-4,-3,-2,-2,2021-08-07 13:00:11,623447
0,1,-2,-1,4,2,1,0,2021-08-07 13:00:11,623447
1,0,0,2,0,-3,-3,-2,2021-08-07 13:00:11,638449
-2,-1,-4,-11,-21,-11,-4,-2,2021-08-07 13:00:11,654446
-1,0,2,2,-2,-3,-2,-2,2021-08-07 13:00:11,654446
1,-1,0,0,6,7,4,1,2021-08-07 13:00:11,654446
1,0,-1,4,9,6,4,2,2021-08-07 13:00:11,654446
-2,-1,-4,2,6,3,1,1,2021-08-07 13:00:11,670447
-1,-1,1,-7,-11,-6,-3,-1,2021-08-07 13:00:11,670447
-3,-2,2,5,5,2,-2,-1,2021-08-07 13:00:11,670447
-3,-2,0,1,4,2,-2,-2,2021-08-07 13:00:11,670447
-4,-3,-2,-4,-7,-6,-5,-4,2021-08-07 13:00:11,670447
0,-1,-1,-3,-6,-4,-3,-1,2021-08-07 13:00:11,670447
1,1,2,3,11,4,1,2,2021-08-07 13:00:11,670447
-5,-6,-7,-19,-33,-24,-12,-6,2021-08-07 13:00:11,670447
0,1,-1,-1,-1,3,-1,1,2021-08-07 13:00:11,700451
2,2,3,10,26,17,7,4,2021-08-07 13:00:11,700451
0,2,1,-2,-3,-1,1,-1,2021-08-07 13:00:11,701448
0,-1,1,8,14,6,2,0,2021-08-07 13:00:11,717447
-3,-3,-3,-10,-21,-15,-5,-1,2021-08-07 13:00:11,717447
-2,0,-1,-6,-16,-9,-3,-2,2021-08-07 13:00:11,717447
-5,-5,-6,-7,-14,-6,-5,-3,2021-08-07 13:00:11,717447
0,1,1,-2,-3,-2,-1,1,2021-08-07 13:00:11,717447
0,1,0,3,8,7,3,1,2021-08-07 13:00:11,733446
1,1,-1,2,11,7,3,3,2021-08-07 13:00:11,733446
-4,-5,-4,-11,-26,-20,-8,-4,2021-08-07 13:00:11,733446
0,1,2,9,19,11,3,0,2021-08-07 13:00:11,733446
-2,-4,-5,-7,-11,-4,-2,-4,2021-08-07 13:00:11,764446
7,8,8,25,41,22,10,5,2021-08-07 13:00:11,780447
0,1,-2,0,-1,-1,-1,0,2021-08-07 13:00:11,796446
1,0,-1,-11,-16,-7,-2,0,2021-08-07 13:00:11,796446
0,-2,-2,-8,-9,-7,-5,-4,2021-08-07 13:00:11,796446
-5,-5,-3,-3,-13,-11,-7,-5,2021-08-07 13:00:11,796446
2,0,0,5,9,8,4,3,2021-08-07 13:00:11,796446
0,0,0,5,12,5,3,0,2021-08-07 13:00:11,796446
-2,-1,-2,-6,-10,-6,-4,-2,2021-08-07 13:00:11,796446
0,0,-1,-5,-10,-4,-3,1,2021-08-07 13:00:11,797448
-1,0,1,-2,-4,-3,-2,0,2021-08-07 13:00:11,797448
-2,-2,-3,1,5,6,2,-2,2021-08-07 13:00:11,797448
1,4,3,3,1,-2,0,-1,2021-08-07 13:00:11,812446
-1,-1,0,1,5,6,3,0,2021-08-07 13:00:11,812446
1,0,1,2,4,1,1,2,2021-08-07 13:00:11,812446
1,3,2,8,18,12,6,2,2021-08-07 13:00:11,812446
-2,-2,-1,0,-6,-6,-2,-3,2021-08-07 13:00:11,828448
-6,-7,-8,-9,-17,-10,-5,-5,2021-08-07 13:00:11,828448
3,4,3,-3,-3,2,1,2,2021-08-07 13:00:11,828448
-2,-4,-5,-12,-27,-17,-8,-5,2021-08-07 13:00:11,828448
5,10,9,25,45,30,13,8,2021-08-07 13:00:11,860449
-3,-3,-4,-9,-11,-9,-6,-3,2021-08-07 13:00:11,876447
-3,-3,-5,-4,-3,-2,-1,-4,2021-08-07 13:00:11,892449
-2,-2,4,-5,-7,-5,-3,-1,2021-08-07 13:00:11,892449
0,-2,-3,-2,-2,-6,-4,-1,2021-08-07 13:00:11,892449
-2,-3,-10,-5,-4,-2,-1,-1,2021-08-07 13:00:11,892449
0,0,2,8,15,8,3,0,2021-08-07 13:00:11,892449
1,0,-2,1,-1,-1,-1,1,2021-08-07 13:00:11,892449
-2,-5,0,-6,-14,-12,-5,-3,2021-08-07 13:00:11,908448
-2,-1,0,-13,-26,-15,-7,-3,2021-08-07 13:00:11,908448
-1,-1,0,6,16,10,3,0,2021-08-07 13:00:11,908448
0,0,2,6,12,7,4,-1,2021-08-07 13:00:11,908448
2,2,3,3,4,2,1,-1,2021-08-07 13:00:11,908448
0,0,-2,-4,-5,-6,-3,-1,2021-08-07 13:00:11,908448
-3,-7,-6,-13,-21,-10,-6,-5,2021-08-07 13:00:11,908448
2,3,4,1,-1,0,1,1,2021-08-07 13:00:11,924448
-3,-2,-4,-3,3,4,2,-1,2021-08-07 13:00:11,940447
0,1,1,2,1,0,-1,-1,2021-08-07 13:00:11,940447
-1,1,0,5,10,6,1,0,2021-08-07 13:00:11,940447
0,0,-3,1,-3,-6,-5,-1,2021-08-07 13:00:11,940447
-1,-2,-4,-6,-13,-6,-4,-2,2021-08-07 13:00:11,940447
0,-1,-1,-5,1,2,1,0,2021-08-07 13:00:11,940447
-1,-2,-2,-2,-4,-1,-2,-1,2021-08-07 13:00:11,956448
0,-1,-2,3,11,5,0,-1,2021-08-07 13:00:11,956448
-1,-1,-1,-5,-13,-10,-6,-1,2021-08-07 13:00:11,987447
-2,-2,-2,-2,1,2,-1,-1,2021-08-07 13:00:11,987447
2,3,2,8,16,10,6,2,2021-08-07 13:00:11,987447
-2,-1,-4,-2,1,0,1,0,2021-08-07 13:00:11,987447
0,2,1,4,11,6,1,1,2021-08-07 13:00:11,987447
-2,-2,2,3,-1,-6,-3,-1,2021-08-07 13:00:11,987447
3,3,0,-1,-6,-5,-1,3,2021-08-07 13:00:11,988448
-1,0,0,-1,-5,1,-1,-2,2021-08-07 13:00:11,988448
0,-1,-1,1,4,0,2,1,2021-08-07 13:00:12,018448
0,-1,0,-3,-5,-1,-1,-1,2021-08-07 13:00:12,034448
-2,-3,-2,0,-3,-5,-2,-2,2021-08-07 13:00:12,050448
-4,-5,-5,-7,-12,-4,-3,-4,2021-08-07 13:00:12,066448
4,4,3,7,10,8,4,3,2021-08-07 13:00:12,066448
0,2,2,1,1,0,1,0,2021-08-07 13:00:12,066448
-2,-1,0,-4,-12,-7,-1,-2,2021-08-07 13:00:12,066448
1,-1,-1,2,9,2,0,-1,2021-08-07 13:00:12,066448
-6,-4,-3,-8,-7,-3,-2,-4,2021-08-07 13:00:12,066448
1,2,2,8,14,11,7,2,2021-08-07 13:00:12,066448
-4,-6,-7,-9,-15,-12,-8,-4,2021-08-07 13:00:12,066448
1,0,4,7,2,0,2,0,2021-08-07 13:00:12,067448
-4,-3,-3,-5,-9,-8,-2,-3,2021-08-07 13:00:12,067448
4,2,4,10,20,13,5,3,2021-08-07 13:00:12,067448
-1,-1,2,1,1,2,2,0,2021-08-07 13:00:12,067448
-1,-2,-2,-9,-13,-7,-4,-2,2021-08-07 13:00:12,067448
-1,-3,-4,-1,-2,-1,-1,0,2021-08-07 13:00:12,097448
-1,-3,-4,-9,-14,-11,-6,-3,2021-08-07 13:00:12,097448
-1,0,-2,-5,-2,0,-1,-1,2021-08-07 13:00:12,097448
-1,0,1,3,6,4,2,0,2021-08-07 13:00:12,097448
0,0,-1,-2,-4,-3,-2,-1,2021-08-07 13:00:12,113448
-3,-4,-4,-3,-3,-2,-1,-3,2021-08-07 13:00:12,113448
0,0,-1,2,1,0,0,0,2021-08-07 13:00:12,113448
1,0,1,0,2,-1,0,0,2021-08-07 13:00:12,113448
1,1,0,-3,-6,-4,-4,0,2021-08-07 13:00:12,129447
0,-1,-3,-5,-4,0,-1,-1,2021-08-07 13:00:12,137449
-1,0,-1,4,10,3,2,-1,2021-08-07 13:00:12,137449
0,0,-1,3,0,-2,0,0,2021-08-07 13:00:12,137449
-1,-1,0,3,3,0,-2,0,2021-08-07 13:00:12,160450
-2,-2,-2,-8,-16,-12,-7,-2,2021-08-07 13:00:12,160450
1,3,4,1,2,3,2,1,2021-08-07 13:00:12,160450
-2,-1,-3,2,8,2,1,-1,2021-08-07 13:00:12,160450
1,0,0,5,5,6,5,1,2021-08-07 13:00:12,176449
-1,-1,-1,-1,-3,-4,-2,1,2021-08-07 13:00:12,192449
-1,0,2,1,1,1,0,0,2021-08-07 13:00:12,192449
-1,0,1,-2,-4,-3,-1,0,2021-08-07 13:00:12,192449
0,-1,-1,-6,-4,-2,-1,0,2021-08-07 13:00:12,192449
0,-1,2,3,4,2,1,2,2021-08-07 13:00:12,192449
-2,-5,-3,-15,-23,-15,-7,-3,2021-08-07 13:00:12,192449
0,-1,-1,3,5,6,1,0,2021-08-07 13:00:12,192449
0,0,2,9,12,5,2,0,2021-08-07 13:00:12,223447
1,2,3,9,11,8,5,1,2021-08-07 13:00:12,223447
0,0,0,1,3,1,-1,0,2021-08-07 13:00:12,223447
-3,-5,-8,-21,-27,-16,-8,-5,2021-08-07 13:00:12,223447
-1,2,2,3,8,3,0,1,2021-08-07 13:00:12,239447
4,7,9,14,17,8,4,4,2021-08-07 13:00:12,239447
0,0,0,0,-4,-3,-2,-3,2021-08-07 13:00:12,239447
-3,-1,-2,-7,-9,-6,-5,-1,2021-08-07 13:00:12,239447
-3,-6,-4,-10,-9,-7,-3,-5,2021-08-07 13:00:12,255446
-2,-3,-3,-5,-3,0,0,-2,2021-08-07 13:00:12,255446
-2,-2,-3,5,2,-1,-1,-1,2021-08-07 13:00:12,255446
3,4,6,3,9,8,5,2,2021-08-07 13:00:12,255446
0,1,0,-1,-3,2,0,0,2021-08-07 13:00:12,270447
1,-2,-2,-1,-2,0,-2,-1,2021-08-07 13:00:12,270447
-2,-3,-3,-1,-2,-6,-4,-1,2021-08-07 13:00:12,270447
0,-1,0,6,12,9,3,1,2021-08-07 13:00:12,270447
-1,-3,-2,-3,-4,-4,-4,-1,2021-08-07 13:00:12,302447
-1,0,1,3,1,-3,-1,-1,2021-08-07 13:00:12,302447
1,1,0,-2,1,4,2,-1,2021-08-07 13:00:12,302447
-1,-2,-2,-2,1,-2,-2,-2,2021-08-07 13:00:12,302447
-3,-4,-5,-10,-19,-11,-4,-4,2021-08-07 13:00:12,302447
-2,-4,-5,-2,5,3,-1,-2,2021-08-07 13:00:12,303448
5,5,6,7,11,9,5,5,2021-08-07 13:00:12,333449
-1,-2,-1,2,-1,-1,-2,-1,2021-08-07 13:00:12,333449
-3,-4,-2,-5,-4,-3,-3,-5,2021-08-07 13:00:12,333449
1,2,1,-1,-6,-3,-1,0,2021-08-07 13:00:12,333449
1,5,4,3,8,4,3,2,2021-08-07 13:00:12,333449
-1,-2,-1,2,-3,0,0,-1,2021-08-07 13:00:12,333449
-3,-5,-5,-11,-9,-5,-3,-2,2021-08-07 13:00:12,365448
-3,-3,-3,-7,-12,-10,-4,-4,2021-08-07 13:00:12,381447
-2,-4,-2,-2,-2,1,-2,-1,2021-08-07 13:00:12,413447
-1,1,1,0,-5,-6,-4,0,2021-08-07 13:00:12,428446
2,1,1,11,20,12,5,3,2021-08-07 13:00:12,428446
0,-2,0,-2,1,2,0,1,2021-08-07 13:00:12,428446
-2,-2,-2,-6,-3,-2,-2,-1,2021-08-07 13:00:12,428446
-1,-1,0,2,4,0,0,-1,2021-08-07 13:00:12,428446
-1,-1,0,-1,-3,-5,-2,0,2021-08-07 13:00:12,428446
-1,-2,-4,-6,-9,-2,-2,-1,2021-08-07 13:00:12,428446
-1,0,1,10,18,5,3,0,2021-08-07 13:00:12,444447
0,-1,-2,-3,-3,-1,0,1,2021-08-07 13:00:12,460447
0,0,-1,2,-3,-1,0,0,2021-08-07 13:00:12,476447
-4,-4,-8,-10,-9,-5,-5,-3,2021-08-07 13:00:12,476447
1,2,3,7,5,2,2,0,2021-08-07 13:00:12,476447
3,5,4,6,10,8,6,2,2021-08-07 13:00:12,492448
2,2,1,6,12,8,4,2,2021-08-07 13:00:12,508450
0,-1,-2,-4,-7,-6,-2,-3,2021-08-07 13:00:12,524446
-5,-5,-5,-12,-20,-9,-6,-4,2021-08-07 13:00:12,524446
-2,-3,-3,-3,1,-1,-1,-2,2021-08-07 13:00:12,524446
-1,-2,-2,-4,-10,-7,-4,-2,2021-08-07 13:00:12,524446
0,-1,2,2,4,2,1,1,2021-08-07 13:00:12,524446
0,2,2,1,2,2,1,1,2021-08-07 13:00:12,524446
-4,-6,-7,-11,-24,-15,-9,-5,2021-08-07 13:00:12,524446
4,4,5,18,39,28,14,5,2021-08-07 13:00:12,525448
1,3,1,6,13,6,3,1,2021-08-07 13:00:12,525448
0,-1,-3,-6,-4,-5,-4,-2,2021-08-07 13:00:12,525448
-1,-3,-2,-7,-9,-7,-3,-2,2021-08-07 13:00:12,525448
-4,-5,-7,-9,-16,-10,-6,-3,2021-08-07 13:00:12,525448
-1,-1,0,-7,-22,-14,-6,-2,2021-08-07 13:00:12,525448
5,5,7,20,35,22,12,6,2021-08-07 13:00:12,525448
-5,-6,-9,-8,-9,-4,-3,-5,2021-08-07 13:00:12,526450
1,2,5,2,3,0,-1,0,2021-08-07 13:00:12,526450
1,1,1,0,2,1,2,-1,2021-08-07 13:00:12,526450
-3,-5,-5,-8,-20,-15,-8,-3,2021-08-07 13:00:12,526450
0,0,1,4,4,4,0,0,2021-08-07 13:00:12,526450
2,3,4,10,11,5,3,1,2021-08-07 13:00:12,526450
-1,-2,-5,-15,-14,-6,-3,-2,2021-08-07 13:00:12,527448
-2,-2,-2,2,2,1,0,-1,2021-08-07 13:00:12,540450
3,5,6,4,11,9,5,3,2021-08-07 13:00:12,540450
0,0,-1,-8,-13,-11,-6,0,2021-08-07 13:00:12,540450
1,-1,-11,2,9,6,2,2,2021-08-07 13:00:12,540450
-1,-4,-3,-1,3,4,1,-1,2021-08-07 13:00:12,572447
-2,-3,0,0,-1,-2,-3,-2,2021-08-07 13:00:12,572447
-3,-3,1,1,2,1,0,-3,2021-08-07 13:00:12,572447
-1,2,5,4,3,1,0,-2,2021-08-07 13:00:12,572447
-2,-3,-4,-6,-8,-6,-5,-3,2021-08-07 13:00:12,573449
1,3,3,1,1,-1,-1,1,2021-08-07 13:00:12,573449
1,-1,-4,-11,-16,-3,-2,-2,2021-08-07 13:00:12,603448
1,1,3,9,21,10,2,1,2021-08-07 13:00:12,619447
0,-2,-4,-3,-3,1,1,1,2021-08-07 13:00:12,619447
0,-3,-2,-4,-8,-3,-2,-3,2021-08-07 13:00:12,619447
-3,-1,-2,-2,-2,-1,0,0,2021-08-07 13:00:12,619447
0,0,1,6,4,3,2,0,2021-08-07 13:00:12,619447
-4,-2,-4,-12,-18,-9,-4,-4,2021-08-07 13:00:12,619447
-3,-4,-4,-3,-5,-6,-5,-3,2021-08-07 13:00:12,619447
1,2,-1,1,2,1,0,1,2021-08-07 13:00:12,635448
-3,-2,-3,-8,-12,-9,-4,-3,2021-08-07 13:00:12,635448
2,5,4,11,15,11,4,3,2021-08-07 13:00:12,651448
-2,-5,-6,-9,-8,-6,-3,-3,2021-08-07 13:00:12,666446
-2,-1,-4,-2,-4,-3,-3,-3,2021-08-07 13:00:12,666446
2,2,4,9,14,6,4,3,2021-08-07 13:00:12,666446
-3,-4,-5,-9,-14,-8,-4,-3,2021-08-07 13:00:12,666446
-1,-2,-3,-9,-15,-9,-5,0,2021-08-07 13:00:12,666446
2,2,2,12,16,12,6,3,2021-08-07 13:00:12,682448
-1,-3,-4,-9,-15,-10,-4,-3,2021-08-07 13:00:12,698449
4,4,6,20,39,21,11,5,2021-08-07 13:00:12,714447
-1,-2,-3,-1,-2,0,-2,0,2021-08-07 13:00:12,714447
-2,-3,-2,-3,-3,-5,-3,-3,2021-08-07 13:00:12,714447
-2,1,2,1,-2,-1,-2,-2,2021-08-07 13:00:12,714447
-1,-4,-4,-4,-5,-8,-5,-2,2021-08-07 13:00:12,714447
-2,-2,-3,-3,-4,-2,-1,0,2021-08-07 13:00:12,714447
0,1,2,-2,4,3,1,1,2021-08-07 13:00:12,714447
-1,-1,-1,-2,-3,-2,-2,-2,2021-08-07 13:00:12,715448
-2,-3,-1,-7,-14,-9,-5,-2,2021-08-07 13:00:12,715448
0,0,2,7,15,10,5,0,2021-08-07 13:00:12,730446
2,1,-3,4,0,-1,0,1,2021-08-07 13:00:12,730446
3,1,3,4,7,4,1,1,2021-08-07 13:00:12,730446
-1,-1,-3,-5,-9,-3,-3,-1,2021-08-07 13:00:12,730446
2,2,-1,1,0,-1,1,0,2021-08-07 13:00:12,730446
-1,-2,-4,-2,6,5,2,-1,2021-08-07 13:00:12,761447
-1,-2,-3,2,-1,-1,-1,-3,2021-08-07 13:00:12,761447
-3,-2,-4,-10,-20,-14,-8,-5,2021-08-07 13:00:12,761447
-2,-1,-1,-7,-11,-6,-4,-1,2021-08-07 13:00:12,761943
0,2,2,7,13,6,2,0,2021-08-07 13:00:12,777479
-1,0,1,6,9,4,2,-1,2021-08-07 13:00:12,777479
0,-1,-1,-1,3,3,1,0,2021-08-07 13:00:12,777479
-1,1,-1,1,1,-3,-1,-3,2021-08-07 13:00:12,777479
-3,-5,-4,-7,-21,-15,-7,-3,2021-08-07 13:00:12,793481
-5,-3,-5,-16,-14,-7,-5,-2,2021-08-07 13:00:12,793481
1,2,1,-1,-6,-2,0,-1,2021-08-07 13:00:12,793481
2,1,2,7,16,9,3,2,2021-08-07 13:00:12,793481
0,0,2,3,2,1,-1,-1,2021-08-07 13:00:12,809478
-5,-3,-5,-5,-13,-7,-4,-3,2021-08-07 13:00:12,825478
-2,-3,0,-1,0,2,0,0,2021-08-07 13:00:12,841480
0,1,1,4,4,0,0,1,2021-08-07 13:00:12,841480
-2,-2,-2,-5,-6,-3,-4,-2,2021-08-07 13:00:12,841480
2,4,4,8,13,7,3,1,2021-08-07 13:00:12,841480
-3,-2,-2,-5,-7,-8,-4,-2,2021-08-07 13:00:12,841480
-2,0,0,0,-1,1,-1,0,2021-08-07 13:00:12,841480
-1,-3,-4,-16,-22,-12,-6,-4,2021-08-07 13:00:12,857480
2,-1,2,10,17,13,7,2,2021-08-07 13:00:12,873479
-1,-2,-3,-3,-5,-4,-3,-1,2021-08-07 13:00:12,889480
-1,0,0,7,13,5,2,-2,2021-08-07 13:00:12,889480
-1,-2,0,-4,-8,-7,-1,-1,2021-08-07 13:00:12,889480
0,-2,0,-3,-3,-1,-1,-1,2021-08-07 13:00:12,889480
-4,-3,-3,-12,-21,-13,-7,-3,2021-08-07 13:00:12,889480
6,5,6,20,29,21,10,6,2021-08-07 13:00:12,889480
-1,0,-2,-7,-6,-4,-3,-3,2021-08-07 13:00:12,890480
1,3,1,3,0,2,1,4,2021-08-07 13:00:12,890480
-3,-2,-1,-1,-1,-2,-2,-1,2021-08-07 13:00:12,905479
-4,-3,-4,-17,-23,-13,-8,-5,2021-08-07 13:00:12,921479
-2,-3,-4,-1,-5,-1,-3,-1,2021-08-07 13:00:12,936481
2,4,5,5,11,8,3,2,2021-08-07 13:00:12,936481
1,2,1,4,4,1,0,1,2021-08-07 13:00:12,936481
4,5,5,13,21,11,5,4,2021-08-07 13:00:12,936481
-1,1,-2,0,-2,-1,0,-2,2021-08-07 13:00:12,936481
-3,-3,-2,-7,-12,-10,-5,-3,2021-08-07 13:00:12,936481
-2,0,-2,-2,-2,-1,0,-4,2021-08-07 13:00:12,936481
0,0,2,1,2,0,0,-2,2021-08-07 13:00:12,937480
-1,-2,-2,-4,-6,-7,-3,0,2021-08-07 13:00:12,951481
-2,-4,-5,-5,-8,-5,-3,-2,2021-08-07 13:00:12,951481
6,7,9,18,30,22,11,6,2021-08-07 13:00:12,951481
-4,-5,-4,-8,-11,-7,-3,-2,2021-08-07 13:00:12,951481
0,1,2,3,7,-1,0,0,2021-08-07 13:00:12,983479
-1,-2,-3,-2,-6,-8,-4,-1,2021-08-07 13:00:12,983717
0,-1,0,7,12,9,3,0,2021-08-07 13:00:12,983717
-2,-2,-4,-7,-9,-8,-4,-3,2021-08-07 13:00:12,983717
-2,-1,-1,4,2,0,0,0,2021-08-07 13:00:12,983717
0,2,-2,-12,-10,-3,-3,-2,2021-08-07 13:00:12,983717
0,-1,-3,-2,-3,-3,0,0,2021-08-07 13:00:12,998997
-2,-4,0,-6,-11,-5,-2,-3,2021-08-07 13:00:12,998997
0,0,2,6,5,2,2,0,2021-08-07 13:00:13,014995
3,3,4,14,21,9,5,3,2021-08-07 13:00:13,030995
-3,-5,-3,-6,-14,-9,-4,-3,2021-08-07 13:00:13,030995
2,1,1,3,11,10,3,2,2021-08-07 13:00:13,030995
-3,-2,-3,-8,-11,-6,-3,-2,2021-08-07 13:00:13,030995
-3,-2,-1,0,-1,1,-1,-2,2021-08-07 13:00:13,030995
1,-1,0,-5,-7,-4,-2,-1,2021-08-07 13:00:13,030995
-2,-2,-3,1,-1,-1,0,0,2021-08-07 13:00:13,030995
0,-1,0,-3,-6,0,-1,0,2021-08-07 13:00:13,046998
-1,0,-1,3,7,2,0,0,2021-08-07 13:00:13,062994
-3,-3,-4,-1,5,1,-2,-3,2021-08-07 13:00:13,078996
-1,-1,-1,-4,-6,-3,-3,-1,2021-08-07 13:00:13,078996
2,3,5,12,22,12,6,2,2021-08-07 13:00:13,078996
-3,-4,-4,-4,-12,-11,-6,-3,2021-08-07 13:00:13,078996
-2,-3,-3,-2,-5,0,-2,-2,2021-08-07 13:00:13,094994
-4,-3,0,-12,-12,-7,-6,-3,2021-08-07 13:00:13,094994
4,5,5,11,18,13,8,4,2021-08-07 13:00:13,094994
3,2,3,4,4,5,4,4,2021-08-07 13:00:13,094994
-2,0,-1,-6,-14,-11,-4,-2,2021-08-07 13:00:13,094994
-2,-2,-5,2,2,-1,-2,-1,2021-08-07 13:00:13,094994
-1,-2,-2,-4,0,4,1,-2,2021-08-07 13:00:13,126998
-4,-3,-2,0,-2,-3,-2,-3,2021-08-07 13:00:13,142994
3,1,1,5,7,4,1,2,2021-08-07 13:00:13,158996
-3,-3,-4,-5,-9,-4,-1,-2,2021-08-07 13:00:13,158996
-1,-4,-3,-6,-10,-8,-5,-3,2021-08-07 13:00:13,158996
-1,0,-2,-4,-6,-4,-1,-1,2021-08-07 13:00:13,158996
-1,-1,1,-3,-1,-4,-3,-1,2021-08-07 13:00:13,158996
-1,-1,-3,1,2,-1,-1,-3,2021-08-07 13:00:13,158996
1,1,1,3,6,7,3,3,2021-08-07 13:00:13,159996
-2,-1,-2,2,7,5,1,-1,2021-08-07 13:00:13,159996
0,0,1,2,-1,1,1,0,2021-08-07 13:00:13,159996
1,1,2,6,13,5,2,2,2021-08-07 13:00:13,159996
-3,-2,-4,-7,-14,-10,-4,-3,2021-08-07 13:00:13,174996
-1,-1,-1,5,14,6,0,0,2021-08-07 13:00:13,190998
-1,-1,0,-6,-10,-6,-4,-2,2021-08-07 13:00:13,222997
1,2,0,1,-3,0,0,1,2021-08-07 13:00:13,222997
-4,-2,-4,-2,-4,-5,-3,-3,2021-08-07 13:00:13,222997
3,2,1,-5,-4,1,0,3,2021-08-07 13:00:13,222997
-4,-3,-2,1,8,4,1,-1,2021-08-07 13:00:13,238996
-2,-1,-1,-6,-11,-5,-3,-2,2021-08-07 13:00:13,254996
-1,-2,0,-2,-2,-3,-2,0,2021-08-07 13:00:13,254996
1,-1,1,0,-5,-2,-1,0,2021-08-07 13:00:13,254996
-1,0,-1,2,4,2,0,1,2021-08-07 13:00:13,254996
0,0,1,2,3,1,1,-1,2021-08-07 13:00:13,254996
0,0,-1,1,3,1,-2,0,2021-08-07 13:00:13,254996
-2,-1,0,1,0,1,1,-1,2021-08-07 13:00:13,254996
1,0,0,-4,-4,-4,-1,0,2021-08-07 13:00:13,254996
0,-1,-2,0,0,1,-1,-2,2021-08-07 13:00:13,254996
-1,1,-1,-3,-1,-1,-2,-1,2021-08-07 13:00:13,254996
-2,-3,-3,-6,-14,-11,-7,-3,2021-08-07 13:00:13,254996
0,0,-1,1,5,4,1,0,2021-08-07 13:00:13,255997
-3,-2,-3,0,1,-1,-1,0,2021-08-07 13:00:13,255997
1,0,1,-6,-6,-6,-1,-2,2021-08-07 13:00:13,284994
3,3,4,7,16,13,7,2,2021-08-07 13:00:13,284994
-1,-1,0,0,-1,-1,1,-2,2021-08-07 13:00:13,284994
1,2,3,4,7,2,1,1,2021-08-07 13:00:13,284994
-3,-2,-2,-7,-15,-11,-6,-3,2021-08-07 13:00:13,284994
0,0,1,-1,1,2,1,1,2021-08-07 13:00:13,284994
-2,0,-2,0,-1,-2,0,-2,2021-08-07 13:00:13,300995
-1,-3,-3,-5,-6,-3,-1,-4,2021-08-07 13:00:13,300995
-1,0,-1,2,4,4,2,-1,2021-08-07 13:00:13,316998
-2,-4,-5,-9,-17,-11,-7,-4,2021-08-07 13:00:13,331995
-1,0,-1,2,5,6,1,0,2021-08-07 13:00:13,331995
1,1,1,0,2,1,1,2,2021-08-07 13:00:13,331995
-2,-1,1,-1,-12,-8,-4,-3,2021-08-07 13:00:13,331995
4,2,1,8,18,15,8,4,2021-08-07 13:00:13,331995
-1,-2,-3,-6,-13,-8,-5,-3,2021-08-07 13:00:13,331995
-1,0,1,6,11,3,2,1,2021-08-07 13:00:13,331995
-1,-3,-1,1,4,2,0,-1,2021-08-07 13:00:13,347996
-1,-1,0,-1,-5,-4,-3,-2,2021-08-07 13:00:13,347996
-1,-1,-1,-2,-4,-6,-2,0,2021-08-07 13:00:13,363996
-1,-4,-3,-11,-15,-4,-2,-2,2021-08-07 13:00:13,363996
0,1,0,-1,7,8,3,1,2021-08-07 13:00:13,378996
-1,0,1,0,-1,-3,-2,-1,2021-08-07 13:00:13,394996
0,-3,-1,1,-1,-2,0,-2,2021-08-07 13:00:13,394996
-1,-2,-2,-2,-3,-6,-5,-3,2021-08-07 13:00:13,394996
1,2,3,10,15,9,5,2,2021-08-07 13:00:13,394996
-3,-5,-5,-8,-16,-9,-5,-4,2021-08-07 13:00:13,394996
-1,1,0,1,1,1,1,1,2021-08-07 13:00:13,394996
-3,-3,-1,-3,-6,-4,-3,-1,2021-08-07 13:00:13,394996
-1,-3,-3,-4,-10,-6,-4,-3,2021-08-07 13:00:13,410997
2,0,0,1,8,7,4,2,2021-08-07 13:00:13,425997
-2,-2,-1,3,5,3,0,-1,2021-08-07 13:00:13,427000
-1,-1,-2,-4,-10,-8,-4,-1,2021-08-07 13:00:13,427000
0,4,4,4,10,6,2,2,2021-08-07 13:00:13,427000
-3,-2,-1,-4,-9,-10,-4,-1,2021-08-07 13:00:13,427996
1,0,-1,0,6,4,1,0,2021-08-07 13:00:13,427996
-2,0,1,5,3,3,1,-1,2021-08-07 13:00:13,427996
-2,-3,-1,-3,-5,-3,-3,-2,2021-08-07 13:00:13,458996
-1,1,-2,-2,2,1,0,-2,2021-08-07 13:00:13,474994
-1,-2,-3,-5,-5,-7,-3,-3,2021-08-07 13:00:13,490998
-1,0,-1,0,0,0,-2,-1,2021-08-07 13:00:13,490998
-1,-1,-3,-4,-11,-8,-3,1,2021-08-07 13:00:13,490998
1,2,2,5,2,2,2,1,2021-08-07 13:00:13,490998
0,1,-2,0,-4,-1,-1,2,2021-08-07 13:00:13,490998
-3,-6,-8,-14,-22,-14,-7,-4,2021-08-07 13:00:13,490998
-1,-2,-3,3,20,13,5,1,2021-08-07 13:00:13,490998
-4,-6,-2,-2,-8,-4,-4,-4,2021-08-07 13:00:13,491996
-2,2,7,8,12,5,4,-1,2021-08-07 13:00:13,491996
0,3,3,10,13,6,3,1,2021-08-07 13:00:13,491996
-1,-1,-2,-4,-15,-11,-8,-2,2021-08-07 13:00:13,522997
-3,-3,-6,-10,-16,-11,-6,-4,2021-08-07 13:00:13,538995
1,-2,-2,-1,-1,1,-1,-2,2021-08-07 13:00:13,554997
4,3,3,5,12,13,6,3,2021-08-07 13:00:13,554997
-1,-1,0,0,2,2,1,0,2021-08-07 13:00:13,554997
-1,0,-3,-1,2,0,-1,0,2021-08-07 13:00:13,554997
0,-1,-1,-4,-9,-6,-1,-1,2021-08-07 13:00:13,554997
0,1,0,-2,-3,-2,0,0,2021-08-07 13:00:13,555997
0,-1,-1,-1,-1,0,-1,-1,2021-08-07 13:00:13,555997
0,-1,0,-1,-3,0,-1,-2,2021-08-07 13:00:13,555997
-1,-1,-1,-3,0,1,-2,-2,2021-08-07 13:00:13,555997
1,0,0,2,6,4,1,0,2021-08-07 13:00:13,555997
-2,-1,0,0,1,2,2,-1,2021-08-07 13:00:13,586018
-1,0,-1,-2,-1,-3,-1,-2,2021-08-07 13:00:13,602018
-2,-2,-3,-2,-2,-1,1,0,2021-08-07 13:00:13,634018
-1,-1,0,0,3,1,1,-2,2021-08-07 13:00:13,634018
0,1,-1,-1,-3,-2,-1,0,2021-08-07 13:00:13,634018
0,0,1,1,1,1,1,0,2021-08-07 13:00:13,634018
-1,-1,-1,-2,-3,0,-3,-2,2021-08-07 13:00:13,634018
-1,-1,-2,-2,-3,-2,-1,0,2021-08-07 13:00:13,634018
0,-1,0,-3,-3,-2,-2,-2,2021-08-07 13:00:13,634018
-1,1,0,2,1,1,0,0,2021-08-07 13:00:13,634018
1,1,0,-2,0,0,-1,0,2021-08-07 13:00:13,635018
-1,-1,-2,0,-3,-3,-2,0,2021-08-07 13:00:13,635018
0,-1,-1,2,1,1,1,0,2021-08-07 13:00:13,650017
1,0,1,2,2,0,2,0,2021-08-07 13:00:13,666016
-2,-3,-1,0,0,-2,-1,0,2021-08-07 13:00:13,682017
-2,-1,-3,-3,-3,-2,0,-1,2021-08-07 13:00:13,682017
1,-2,-1,0,-2,-2,0,-1,2021-08-07 13:00:13,682017
-1,-2,-3,-4,-7,-5,-2,-2,2021-08-07 13:00:13,682017
-3,-5,-4,-10,-12,-6,-6,-3,2021-08-07 13:00:13,682017
5,5,6,8,18,12,6,3,2021-08-07 13:00:13,682017
1,0,3,7,15,12,4,1,2021-08-07 13:00:13,683017
2,7,8,15,12,6,1,2,2021-08-07 13:00:13,683017
-2,-1,-3,-4,-9,-9,-3,-3,2021-08-07 13:00:13,683017
-4,-5,-7,-15,-18,-7,-3,0,2021-08-07 13:00:13,683017
-7,-7,-5,-27,-20,-16,-8,-7,2021-08-07 13:00:13,698017
0,0,3,-1,-2,1,-2,0,2021-08-07 13:00:13,714017
-2,-1,-9,2,-2,-5,-1,-1,2021-08-07 13:00:13,714017
-2,1,2,7,-3,0,-1,-2,2021-08-07 13:00:13,714017
0,1,1,12,11,6,3,0,2021-08-07 13:00:13,714017
-2,-2,1,-3,-2,-3,-2,0,2021-08-07 13:00:13,714017
0,0,6,2,3,1,0,1,2021-08-07 13:00:13,714017
-3,-4,-7,-9,-14,-11,-5,-4,2021-08-07 13:00:13,714017
0,1,-1,-1,-2,2,-1,1,2021-08-07 13:00:13,745016
-4,-3,-5,-11,-15,-10,-7,-3,2021-08-07 13:00:13,761018
5,8,10,34,51,33,14,7,2021-08-07 13:00:13,777018
-1,1,2,5,6,-1,0,-3,2021-08-07 13:00:13,777261
-2,-2,-4,-22,-31,-16,-7,-2,2021-08-07 13:00:13,792533
1,-1,-2,7,26,16,8,3,2021-08-07 13:00:13,807532
-6,-10,-11,-20,-27,-18,-11,-7,2021-08-07 13:00:13,823533
2,4,4,8,19,13,6,2,2021-08-07 13:00:13,823533
-1,-2,-3,8,2,-4,-3,-3,2021-08-07 13:00:13,823533
1,2,2,3,-3,0,3,1,2021-08-07 13:00:13,823533
2,5,8,7,5,2,2,1,2021-08-07 13:00:13,823533
1,-1,-2,3,10,6,3,1,2021-08-07 13:00:13,823533
-1,-3,-1,-17,-15,-7,-1,-1,2021-08-07 13:00:13,823533
-7,-11,-22,-27,-29,-21,-12,-8,2021-08-07 13:00:13,824533
-2,-4,-2,-7,-9,-4,-1,-1,2021-08-07 13:00:13,824533
1,3,7,9,8,2,-1,0,2021-08-07 13:00:13,824533
3,8,9,15,14,8,5,4,2021-08-07 13:00:13,824533
1,1,4,6,11,6,1,1,2021-08-07 13:00:13,824533
-9,-11,-20,-23,-31,-24,-14,-9,2021-08-07 13:00:13,824533
4,4,0,3,7,9,4,6,2021-08-07 13:00:13,824533
8,9,11,18,39,26,13,5,2021-08-07 13:00:13,839533
-1,1,4,4,6,1,-1,-2,2021-08-07 13:00:13,839533
-2,-1,-1,-4,-16,-11,-6,-3,2021-08-07 13:00:13,839533
-4,-6,-6,-12,-22,-14,-8,-5,2021-08-07 13:00:13,839533
