EMG 1,EMG 2,EMG 3,EMG 4,EMG 5,EMG 6,EMG 7,EMG 8,Timestamp,Milliseconds
1,1,2,-1,-3,-3,-3,-1,2021-08-07 13:03:02,175742
-3,-7,-7,-7,-5,-4,-3,-5,2021-08-07 13:03:02,175742
1,2,3,1,-6,-3,-1,1,2021-08-07 13:03:02,175742
0,-1,-3,-1,-4,-2,1,0,2021-08-07 13:03:02,175742
-5,-4,-7,-6,-4,-3,-1,-3,2021-08-07 13:03:02,175742
2,4,5,5,4,3,4,1,2021-08-07 13:03:02,176742
-1,1,3,1,4,2,1,0,2021-08-07 13:03:02,176742
-2,-3,-2,-5,-10,-8,-5,-3,2021-08-07 13:03:02,176742
-1,-2,0,1,0,-1,-2,-2,2021-08-07 13:03:02,191743
-7,-10,-10,-11,-18,-11,-8,-7,2021-08-07 13:03:02,191743
4,3,5,12,22,9,5,2,2021-08-07 13:03:02,191743
4,6,5,5,9,8,6,4,2021-08-07 13:03:02,191743
-2,-4,-4,-3,-9,-8,-4,-4,2021-08-07 13:03:02,191743
-3,-6,-7,-14,-21,-14,-8,-4,2021-08-07 13:03:02,191743
1,-1,-2,-4,-5,1,1,1,2021-08-07 13:03:02,222742
1,1,1,12,21,12,6,0,2021-08-07 13:03:02,222742
2,3,4,7,9,4,3,4,2021-08-07 13:03:02,222742
2,6,4,0,-2,-1,-2,1,2021-08-07 13:03:02,238743
-3,-4,-7,-8,-17,-10,-5,-4,2021-08-07 13:03:02,238743
-3,-3,-3,-6,-4,-1,-2,-3,2021-08-07 13:03:02,238743
-2,-4,-4,-2,2,0,-1,-3,2021-08-07 13:03:02,238743
1,2,2,0,-2,-1,-1,-1,2021-08-07 13:03:02,238743
1,0,0,8,12,7,1,-1,2021-08-07 13:03:02,254742
-3,-6,-8,-9,-11,-7,-4,-3,2021-08-07 13:03:02,254742
2,2,2,0,1,0,0,0,2021-08-07 13:03:02,317742
0,0,2,5,7,4,3,1,2021-08-07 13:03:02,333744
-4,-5,-7,-9,-11,-9,-4,-3,2021-08-07 13:03:02,349744
1,1,2,3,3,4,1,1,2021-08-07 13:03:02,349744
-4,-5,-6,-9,-16,-11,-6,-3,2021-08-07 13:03:02,365742
4,4,4,4,15,12,7,2,2021-08-07 13:03:02,370741
-1,-3,-1,3,3,-2,-3,-2,2021-08-07 13:03:02,370741
-6,-6,-8,-7,-13,-9,-7,-5,2021-08-07 13:03:02,370741
-1,-5,-6,-12,-11,-7,-3,-2,2021-08-07 13:03:02,371743
2,3,4,11,15,8,1,1,2021-08-07 13:03:02,371743
1,5,4,0,-2,-1,-2,0,2021-08-07 13:03:02,371743
-6,-6,-4,-6,-6,-7,-6,-5,2021-08-07 13:03:02,371743
0,2,1,2,-1,0,1,1,2021-08-07 13:03:02,371743
-3,-5,-6,-6,-1,0,1,1,2021-08-07 13:03:02,371743
-1,-3,0,1,0,1,1,0,2021-08-07 13:03:02,371743
3,3,5,4,4,1,1,1,2021-08-07 13:03:02,380743
3,5,4,3,4,2,1,0,2021-08-07 13:03:02,380743
-4,-7,-8,-6,-11,-7,-4,-4,2021-08-07 13:03:02,380743
2,3,3,3,6,5,1,2,2021-08-07 13:03:02,380743
-1,0,-1,-2,-2,-2,-1,0,2021-08-07 13:03:02,380743
0,0,1,4,6,4,2,0,2021-08-07 13:03:02,381743
-2,1,-2,-8,-14,-11,-5,-2,2021-08-07 13:03:02,381743
-4,-8,-2,4,8,7,1,-3,2021-08-07 13:03:02,396741
5,7,5,2,2,3,3,3,2021-08-07 13:03:02,396741
3,6,7,12,18,11,5,3,2021-08-07 13:03:02,396741
1,2,1,-3,-9,-6,-2,0,2021-08-07 13:03:02,412743
-6,-7,-7,-11,-16,-10,-6,-6,2021-08-07 13:03:02,412743
-6,-9,-8,-4,2,0,-3,-4,2021-08-07 13:03:02,412743
5,9,12,10,5,7,4,5,2021-08-07 13:03:02,412743
1,1,1,2,-1,-2,-1,1,2021-08-07 13:03:02,412743
3,3,3,3,12,6,4,3,2021-08-07 13:03:02,444743
-3,-5,-4,1,5,1,1,-2,2021-08-07 13:03:02,444743
-5,-7,-8,-10,-10,-8,-7,-6,2021-08-07 13:03:02,444743
1,1,3,-1,-4,-3,-1,0,2021-08-07 13:03:02,444743
0,-1,-1,-4,-5,-1,-1,0,2021-08-07 13:03:02,460743
-2,0,-2,-6,-7,-4,-2,-3,2021-08-07 13:03:02,476743
-3,-5,-3,4,15,10,3,1,2021-08-07 13:03:02,476743
-2,1,0,2,3,3,1,1,2021-08-07 13:03:02,476743
-1,-1,-2,2,-4,-6,-2,-2,2021-08-07 13:03:02,476743
1,2,0,-3,-8,-7,-2,-1,2021-08-07 13:03:02,476743
-3,-4,-5,-4,-8,-5,-1,-2,2021-08-07 13:03:02,477744
-1,2,3,2,3,1,1,0,2021-08-07 13:03:02,477744
3,4,5,4,1,-1,-1,1,2021-08-07 13:03:02,477744
-4,-5,-3,-4,-4,-2,-3,-2,2021-08-07 13:03:02,477744
1,-3,-4,-1,2,-1,0,-1,2021-08-07 13:03:02,492741
0,-4,-3,-3,-3,-1,-1,-1,2021-08-07 13:03:02,492741
5,9,7,7,6,6,3,4,2021-08-07 13:03:02,507741
-2,-4,-3,-6,-7,-4,-3,-3,2021-08-07 13:03:02,523741
1,1,1,3,0,0,0,0,2021-08-07 13:03:02,538743
-2,-2,-2,1,1,-2,-2,-1,2021-08-07 13:03:02,554743
-1,1,0,-1,-5,-2,0,0,2021-08-07 13:03:02,570741
3,3,6,11,20,10,5,1,2021-08-07 13:03:02,570741
-2,-4,-5,-4,-7,-7,-3,-2,2021-08-07 13:03:02,570741
-2,-2,-2,-3,-4,-3,-2,-1,2021-08-07 13:03:02,570741
-1,-1,-2,-1,-1,-1,-2,-1,2021-08-07 13:03:02,570741
0,-1,-2,-2,-5,-2,-2,-3,2021-08-07 13:03:02,570741
-2,-3,-1,-4,-4,-4,-2,-2,2021-08-07 13:03:02,571743
-2,-5,-3,-1,-4,-3,-4,-3,2021-08-07 13:03:02,571743
-4,-3,-3,-8,-7,-3,-1,-1,2021-08-07 13:03:02,571743
-2,-1,2,3,10,6,1,0,2021-08-07 13:03:02,571743
-2,0,-1,-1,-2,-3,-2,-1,2021-08-07 13:03:02,571743
2,5,2,0,-1,-1,-1,0,2021-08-07 13:03:02,571743
-3,-5,-5,-2,0,0,-1,-3,2021-08-07 13:03:02,602743
-2,-3,-1,2,-1,-3,0,-1,2021-08-07 13:03:02,617742
2,2,2,1,-1,0,0,1,2021-08-07 13:03:02,649742
0,-1,-3,2,3,5,2,0,2021-08-07 13:03:02,649742
-3,-4,-3,-1,5,2,0,-1,2021-08-07 13:03:02,665745
0,1,0,-3,-7,-4,-2,0,2021-08-07 13:03:02,665745
-1,-1,0,1,7,6,0,-2,2021-08-07 13:03:02,665745
0,2,1,-2,-5,-4,-2,0,2021-08-07 13:03:02,665745
-1,-5,-6,-7,-7,-4,-2,-2,2021-08-07 13:03:02,665745
-1,-1,-2,4,7,6,1,0,2021-08-07 13:03:02,666743
-3,-4,-4,-8,-9,-6,-2,-2,2021-08-07 13:03:02,666743
-2,-1,1,0,-5,-4,-4,-1,2021-08-07 13:03:02,666743
1,1,0,-5,-16,-8,-2,0,2021-08-07 13:03:02,666743
3,6,7,22,40,22,10,4,2021-08-07 13:03:02,666743
1,0,-1,0,1,0,1,-1,2021-08-07 13:03:02,666743
-4,-5,-4,-3,0,-1,-2,-3,2021-08-07 13:03:02,666743
-4,-3,-2,-9,-13,-11,-5,-4,2021-08-07 13:03:02,667744
3,4,4,-5,-19,-10,-3,0,2021-08-07 13:03:02,667744
-2,-1,0,3,6,4,0,1,2021-08-07 13:03:02,667744
-1,-1,-3,-1,1,0,0,0,2021-08-07 13:03:02,681743
-2,-3,-2,-7,-3,-2,-3,-1,2021-08-07 13:03:02,681743
0,-2,-2,-7,-9,-5,-2,-1,2021-08-07 13:03:02,681743
5,7,6,6,6,3,4,3,2021-08-07 13:03:02,697743
-3,-5,-6,-4,-6,-4,-1,-3,2021-08-07 13:03:02,697743
-2,-1,-2,3,0,-1,-1,-2,2021-08-07 13:03:02,713744
1,0,2,4,4,4,2,1,2021-08-07 13:03:02,713744
-2,-2,-1,1,-1,-1,-2,-2,2021-08-07 13:03:02,713744
0,-1,-2,-1,-3,-1,-1,-1,2021-08-07 13:03:02,713744
0,1,0,6,10,6,2,1,2021-08-07 13:03:02,745742
-1,-4,-5,-3,-4,-3,-2,-1,2021-08-07 13:03:02,745742
0,-1,-1,-3,-7,-5,-2,0,2021-08-07 13:03:02,745742
0,2,3,0,0,-1,1,0,2021-08-07 13:03:02,745742
-3,-4,-3,-6,-9,-6,-3,-3,2021-08-07 13:03:02,745742
-4,-5,-7,-6,0,1,0,-3,2021-08-07 13:03:02,745742
2,5,4,3,3,3,2,1,2021-08-07 13:03:02,761743
0,1,3,6,9,7,1,0,2021-08-07 13:03:02,761743
0,1,-1,2,3,2,1,0,2021-08-07 13:03:02,776743
-3,-5,-7,-12,-17,-11,-7,-5,2021-08-07 13:03:02,792744
-5,-3,-6,-8,-9,-6,-3,-2,2021-08-07 13:03:02,799743
0,2,0,-5,-10,-5,-2,0,2021-08-07 13:03:02,799743
3,5,5,13,26,17,8,4,2021-08-07 13:03:02,799743
-3,-3,-2,-6,-10,-6,-4,-2,2021-08-07 13:03:02,800745
-1,-3,-3,-4,-6,-3,-2,-2,2021-08-07 13:03:02,824743
1,4,4,4,8,5,3,2,2021-08-07 13:03:02,840745
-2,-1,-2,0,-4,-5,-3,-3,2021-08-07 13:03:02,840745
-3,-1,-5,-5,-6,-3,-2,-1,2021-08-07 13:03:02,840745
-4,-6,-4,-5,-1,-3,-3,-4,2021-08-07 13:03:02,840745
-1,-1,-2,-6,-8,-4,-5,0,2021-08-07 13:03:02,840745
2,2,3,4,6,4,2,2,2021-08-07 13:03:02,840745
2,1,1,4,4,0,0,1,2021-08-07 13:03:02,840745
-1,-6,-6,-10,-18,-9,-6,-5,2021-08-07 13:03:02,840745
-1,-2,-2,1,4,3,0,-1,2021-08-07 13:03:02,840745
-1,0,2,8,17,7,1,-1,2021-08-07 13:03:02,840745
1,4,4,-2,-9,-4,0,1,2021-08-07 13:03:02,840745
0,-1,-1,4,3,2,1,1,2021-08-07 13:03:02,872742
-1,-3,-2,0,3,-1,0,-2,2021-08-07 13:03:02,872742
-4,-5,-8,-11,-18,-13,-7,-4,2021-08-07 13:03:02,872742
1,-2,-1,-4,-3,0,1,0,2021-08-07 13:03:02,872742
6,12,12,11,15,12,7,6,2021-08-07 13:03:02,872742
-3,-3,-2,1,1,1,-2,-2,2021-08-07 13:03:02,872742
-2,-3,-3,-3,-3,-2,-1,-1,2021-08-07 13:03:02,904743
1,2,1,2,0,-1,0,1,2021-08-07 13:03:02,904743
-1,1,0,2,3,-2,0,-2,2021-08-07 13:03:02,904743
-1,-1,-2,-2,-3,-2,-1,-2,2021-08-07 13:03:02,904743
-1,-2,-2,-4,-4,-3,-2,-1,2021-08-07 13:03:02,904743
-2,-5,-4,-7,-9,-5,-4,-2,2021-08-07 13:03:02,904743
2,0,1,4,10,5,4,2,2021-08-07 13:03:02,920741
2,2,1,2,3,2,6,3,2021-08-07 13:03:02,920741
-3,-3,-3,-7,-13,-9,-3,-2,2021-08-07 13:03:02,920741
2,2,0,4,6,4,3,1,2021-08-07 13:03:02,920741
-3,-4,-3,-1,-1,-2,-4,-3,2021-08-07 13:03:02,952742
-3,-4,-2,0,4,1,-3,-4,2021-08-07 13:03:02,952742
0,1,0,0,1,0,-1,-2,2021-08-07 13:03:02,952742
-3,-1,-1,-1,-7,-6,-3,-2,2021-08-07 13:03:02,952742
5,5,4,-1,3,7,10,5,2021-08-07 13:03:02,952742
3,5,4,6,3,1,-1,2,2021-08-07 13:03:02,953744
-2,-3,-2,-2,0,-5,-9,-6,2021-08-07 13:03:02,984742
-4,-2,-3,1,7,-5,-8,-6,2021-08-07 13:03:02,984742
-5,-6,-7,-7,-13,-9,-4,-3,2021-08-07 13:03:02,984742
1,0,2,1,-1,1,4,3,2021-08-07 13:03:02,984742
1,1,0,-2,0,3,4,3,2021-08-07 13:03:02,984742
0,-1,-1,1,-3,1,2,1,2021-08-07 13:03:02,984742
-4,-2,-5,-7,-6,-6,-4,-3,2021-08-07 13:03:02,999741
1,2,2,-4,-4,6,5,2,2021-08-07 13:03:02,999741
-4,-6,-4,4,6,1,-2,-3,2021-08-07 13:03:03,015742
2,2,5,5,10,5,3,3,2021-08-07 13:03:03,015742
-3,-3,-3,-2,-4,-2,-6,-2,2021-08-07 13:03:03,015742
-3,-3,-5,-6,-6,-9,-8,-6,2021-08-07 13:03:03,015742
0,0,-2,-3,-7,-4,-1,0,2021-08-07 13:03:03,031741
-1,-3,-1,4,4,2,3,-1,2021-08-07 13:03:03,047742
-1,-3,-3,-3,-3,-2,-3,-1,2021-08-07 13:03:03,047742
1,4,7,1,-2,-3,-1,1,2021-08-07 13:03:03,047742
0,2,1,0,0,1,3,0,2021-08-07 13:03:03,047742
-2,2,-2,-9,-12,-6,-3,0,2021-08-07 13:03:03,047742
-3,-3,-3,3,4,-1,-5,-4,2021-08-07 13:03:03,047742
-2,-5,-4,6,16,8,2,0,2021-08-07 13:03:03,048746
3,6,5,0,-5,-4,0,3,2021-08-07 13:03:03,079742
-1,-2,-3,-8,-15,-8,-4,-1,2021-08-07 13:03:03,079742
2,2,2,0,-1,2,3,0,2021-08-07 13:03:03,079742
-2,-1,1,11,27,13,4,0,2021-08-07 13:03:03,079742
-3,-7,-7,-2,-3,-4,-3,-3,2021-08-07 13:03:03,111743
4,5,6,3,2,2,4,3,2021-08-07 13:03:03,111743
0,-1,0,0,-6,-6,-4,-3,2021-08-07 13:03:03,111743
-3,-4,-5,-8,-12,-8,-7,-4,2021-08-07 13:03:03,111743
1,1,2,0,-3,1,-2,1,2021-08-07 13:03:03,111743
-3,-2,-2,1,6,2,2,-3,2021-08-07 13:03:03,111743
1,0,0,-4,-3,-2,0,1,2021-08-07 13:03:03,127743
-2,-3,-6,-7,-13,-9,-2,-1,2021-08-07 13:03:03,127743
0,0,0,6,13,6,1,-1,2021-08-07 13:03:03,127743
2,3,1,-2,-2,0,0,1,2021-08-07 13:03:03,127743
0,3,1,6,13,8,3,2,2021-08-07 13:03:03,127743
-6,-9,-9,-11,-16,-10,-6,-5,2021-08-07 13:03:03,127743
1,2,-1,-5,-10,-5,-1,0,2021-08-07 13:03:03,159744
0,0,0,6,9,5,1,0,2021-08-07 13:03:03,159744
-2,0,0,1,2,-2,-2,0,2021-08-07 13:03:03,159744
0,-1,0,1,-2,-2,-1,-1,2021-08-07 13:03:03,175743
-4,-5,-4,-13,-19,-12,-5,-2,2021-08-07 13:03:03,190741
2,4,6,13,19,11,4,3,2021-08-07 13:03:03,206743
-5,-7,-6,-1,0,-2,-3,-2,2021-08-07 13:03:03,222743
-1,0,-1,-6,-7,-6,-1,-2,2021-08-07 13:03:03,222743
1,-1,1,3,7,4,3,0,2021-08-07 13:03:03,222743
-3,-5,-6,-10,-12,-7,-5,-2,2021-08-07 13:03:03,222743
0,0,-1,1,2,2,2,-1,2021-08-07 13:03:03,222743
2,3,4,2,-3,-1,-1,3,2021-08-07 13:03:03,222743
0,-1,-4,-2,-1,0,-1,-2,2021-08-07 13:03:03,223743
-4,-5,-5,-3,-3,-2,-4,-2,2021-08-07 13:03:03,223743
-1,-2,-1,1,0,-2,0,-1,2021-08-07 13:03:03,223743
8,12,13,9,6,6,4,5,2021-08-07 13:03:03,223743
-2,-2,-2,-2,-2,-1,-2,-1,2021-08-07 13:03:03,223743
-2,-3,-2,-3,0,-2,1,-2,2021-08-07 13:03:03,223743
-6,-6,-7,-6,-15,-10,-5,-5,2021-08-07 13:03:03,237741
2,0,1,8,19,9,4,1,2021-08-07 13:03:03,253742
3,4,4,8,9,5,2,2,2021-08-07 13:03:03,253742
-3,-3,-5,-6,-8,-5,-2,-2,2021-08-07 13:03:03,253742
2,4,6,-1,-1,0,2,2,2021-08-07 13:03:03,253742
-2,-3,-4,-9,-15,-8,-5,-3,2021-08-07 13:03:03,253742
-1,-3,-2,1,1,1,0,-2,2021-08-07 13:03:03,283743
-2,-1,-3,2,-1,0,2,0,2021-08-07 13:03:03,299744
0,0,0,3,5,3,2,0,2021-08-07 13:03:03,315743
0,1,1,2,3,4,2,2,2021-08-07 13:03:03,315743
-2,-3,-2,-3,0,-1,-2,-2,2021-08-07 13:03:03,315743
-1,-4,-4,-6,-8,-4,-4,-2,2021-08-07 13:03:03,315743
2,4,6,5,3,3,1,2,2021-08-07 13:03:03,315743
-5,-8,-7,-5,-7,-8,-5,-3,2021-08-07 13:03:03,316743
-3,-3,-3,-6,-6,-4,-2,0,2021-08-07 13:03:03,316743
5,11,8,9,11,10,8,3,2021-08-07 13:03:03,316743
1,3,1,4,4,1,1,-1,2021-08-07 13:03:03,316743
-1,-1,-3,-4,-2,-3,-4,-3,2021-08-07 13:03:03,316743
-4,-5,-3,-4,-4,-5,-2,-2,2021-08-07 13:03:03,347743
0,-4,-1,-1,-3,-3,-3,0,2021-08-07 13:03:03,347743
-3,1,1,-2,1,1,-1,0,2021-08-07 13:03:03,363742
-3,-5,-4,-6,-6,-3,-2,-3,2021-08-07 13:03:03,363742
1,2,2,4,3,3,1,0,2021-08-07 13:03:03,363742
0,0,1,3,1,-1,-2,1,2021-08-07 13:03:03,363742
2,2,3,-2,-1,2,0,-1,2021-08-07 13:03:03,363742
-3,-6,-6,-3,-4,-4,-4,-3,2021-08-07 13:03:03,363742
0,0,1,-1,0,0,-1,-1,2021-08-07 13:03:03,379741
1,1,1,1,4,1,0,0,2021-08-07 13:03:03,395742
-1,-5,-5,-3,-5,-3,-2,-2,2021-08-07 13:03:03,411743
1,0,0,0,-1,0,-1,0,2021-08-07 13:03:03,411743
1,2,2,1,1,0,0,-1,2021-08-07 13:03:03,411743
-4,-3,-4,-2,-2,-4,-3,-1,2021-08-07 13:03:03,411743
2,-2,-2,-6,-2,-1,1,1,2021-08-07 13:03:03,411743
-2,-1,-1,2,0,0,1,-2,2021-08-07 13:03:03,412743
3,4,1,-1,0,2,2,1,2021-08-07 13:03:03,412743
-4,-5,-5,-4,-4,-3,-1,-3,2021-08-07 13:03:03,412743
2,1,0,1,2,0,0,2,2021-08-07 13:03:03,412743
0,1,0,2,1,-1,0,-1,2021-08-07 13:03:03,412743
-1,-2,-2,-2,0,-1,-2,-1,2021-08-07 13:03:03,443743
-1,0,-1,-2,-3,-3,-1,-2,2021-08-07 13:03:03,443743
-3,-5,-4,-1,0,-1,-4,-3,2021-08-07 13:03:03,459744
0,0,-1,-1,-3,-1,0,-1,2021-08-07 13:03:03,459744
3,3,5,4,4,2,1,3,2021-08-07 13:03:03,459744
-1,-3,-1,-2,-4,-2,-1,-3,2021-08-07 13:03:03,459744
3,5,4,2,-2,0,1,1,2021-08-07 13:03:03,459744
-3,-4,-3,-4,-3,-4,-3,-1,2021-08-07 13:03:03,460744
0,-1,-2,-1,2,1,1,1,2021-08-07 13:03:03,475741
-1,-1,0,3,4,1,-3,-2,2021-08-07 13:03:03,475741
-3,-2,-4,-2,-2,-3,0,-1,2021-08-07 13:03:03,475741
-1,-1,-2,-1,0,0,-1,0,2021-08-07 13:03:03,475741
-4,-4,-3,-2,-4,-3,-3,-2,2021-08-07 13:03:03,507742
4,4,2,-2,-3,0,3,4,2021-08-07 13:03:03,507742
-2,0,-2,-1,2,0,1,-2,2021-08-07 13:03:03,507742
0,0,-1,-1,1,-1,0,0,2021-08-07 13:03:03,507742
-5,-6,-5,-1,-5,-2,-3,-4,2021-08-07 13:03:03,507742
0,1,1,0,1,0,1,1,2021-08-07 13:03:03,507742
-3,-5,-5,-3,-1,0,0,0,2021-08-07 13:03:03,523743
2,1,1,-5,-8,-3,-1,-1,2021-08-07 13:03:03,523743
2,5,3,5,4,1,1,0,2021-08-07 13:03:03,539744
-1,-3,-1,2,2,0,-2,-1,2021-08-07 13:03:03,555742
-4,-6,-4,-5,-4,-4,-3,-3,2021-08-07 13:03:03,555742
1,2,1,4,7,5,1,0,2021-08-07 13:03:03,555742
-3,-6,-4,-5,-6,-5,-3,-4,2021-08-07 13:03:03,570741
4,10,10,7,3,1,2,3,2021-08-07 13:03:03,570741
-1,-3,-3,1,0,-1,-2,-1,2021-08-07 13:03:03,585743
-1,0,-2,-5,-7,-5,-2,0,2021-08-07 13:03:03,585743
-3,-4,-4,0,4,1,-1,-2,2021-08-07 13:03:03,585743
-3,-3,-3,-5,-3,-3,-1,-2,2021-08-07 13:03:03,585743
2,1,0,0,2,0,-2,1,2021-08-07 13:03:03,585743
-3,-3,-2,1,-1,-1,-1,-3,2021-08-07 13:03:03,585743
-1,-3,-4,-3,-3,-3,-1,0,2021-08-07 13:03:03,615743
1,-1,1,0,-2,1,0,1,2021-08-07 13:03:03,615743
-1,2,2,-4,-8,-4,0,0,2021-08-07 13:03:03,615743
-3,-2,-1,-1,1,2,0,0,2021-08-07 13:03:03,631743
-1,0,-1,1,2,-2,-2,-2,2021-08-07 13:03:03,646743
1,1,-1,-4,-3,0,1,0,2021-08-07 13:03:03,653741
-1,-1,-2,-2,0,0,-1,-1,2021-08-07 13:03:03,653741
-2,-4,-4,-5,-7,-4,-2,-3,2021-08-07 13:03:03,653741
3,6,6,7,6,5,3,2,2021-08-07 13:03:03,654743
-2,-3,-1,1,1,-1,-2,0,2021-08-07 13:03:03,654743
0,0,2,1,0,-1,-1,0,2021-08-07 13:03:03,662743
-2,-5,-5,-4,-2,-1,-1,-2,2021-08-07 13:03:03,662743
-2,0,-2,-6,-9,-6,-3,-1,2021-08-07 13:03:03,662743
-4,-4,-6,-7,-7,-3,-1,-3,2021-08-07 13:03:03,662743
0,-1,1,0,6,5,1,0,2021-08-07 13:03:03,662743
1,1,4,8,7,1,2,2,2021-08-07 13:03:03,662743
0,1,3,0,-3,1,1,2,2021-08-07 13:03:03,678744
0,-1,1,0,-1,-3,-2,-1,2021-08-07 13:03:03,678744
-5,-7,-6,-2,-3,-2,-3,-2,2021-08-07 13:03:03,678744
4,6,8,8,8,3,1,1,2021-08-07 13:03:03,678744
2,1,-1,-3,-3,0,-1,2,2021-08-07 13:03:03,694743
2,2,1,-2,-7,-2,-1,1,2021-08-07 13:03:03,694743
0,-4,-7,-1,1,1,1,-1,2021-08-07 13:03:03,694743
-2,-2,-2,-4,-1,-1,-2,0,2021-08-07 13:03:03,694743
0,1,0,6,6,4,5,2,2021-08-07 13:03:03,742741
-3,-2,0,1,-1,-1,-1,-3,2021-08-07 13:03:03,758743
-4,-4,-3,-3,-6,-6,-4,-5,2021-08-07 13:03:03,789741
2,5,0,-7,-6,-3,-1,-1,2021-08-07 13:03:03,805742
-3,-2,0,1,2,-1,-5,-5,2021-08-07 13:03:03,805742
2,1,1,0,-2,0,0,2,2021-08-07 13:03:03,805742
4,5,6,8,12,6,4,4,2021-08-07 13:03:03,805742
-1,-3,-3,-5,-6,-4,-2,-1,2021-08-07 13:03:03,805742
1,0,0,-7,-7,-5,-3,0,2021-08-07 13:03:03,805742
0,-1,-1,0,1,1,-1,1,2021-08-07 13:03:03,805742
-1,3,3,2,0,1,-1,0,2021-08-07 13:03:03,806745
-2,-5,-3,-1,-1,-1,-2,-3,2021-08-07 13:03:03,806745
-1,-4,-4,-3,0,2,-1,0,2021-08-07 13:03:03,806745
0,0,1,0,0,0,-1,0,2021-08-07 13:03:03,806745
-1,1,-2,-2,-3,-2,1,1,2021-08-07 13:03:03,806745
-4,-3,-5,-2,-2,-3,-1,-3,2021-08-07 13:03:03,806745
-1,-2,-4,-5,-6,-3,-2,-2,2021-08-07 13:03:03,806745
-1,-3,-1,1,2,0,-1,0,2021-08-07 13:03:03,806745
1,1,2,-3,-5,-4,-3,1,2021-08-07 13:03:03,806745
0,1,0,1,-1,0,0,1,2021-08-07 13:03:03,807742
1,2,6,3,7,5,2,2,2021-08-07 13:03:03,820743
-3,-3,-4,1,2,0,-1,-2,2021-08-07 13:03:03,836741
-1,-1,-1,-7,-8,-4,-3,-2,2021-08-07 13:03:03,852743
3,5,4,5,6,4,2,3,2021-08-07 13:03:03,852743
1,-1,0,0,-1,-2,-1,-1,2021-08-07 13:03:03,852743
-2,-5,-5,-1,2,-1,0,-2,2021-08-07 13:03:03,852743
-1,-1,-4,0,-2,-2,1,-1,2021-08-07 13:03:03,852743
-1,-2,1,-2,-5,-2,-2,-1,2021-08-07 13:03:03,852743
0,2,0,1,0,0,0,0,2021-08-07 13:03:03,853743
0,-1,-1,-1,-1,-3,0,0,2021-08-07 13:03:03,853743
1,0,-1,0,1,2,0,0,2021-08-07 13:03:03,853743
-1,-3,-3,-1,2,-1,-1,0,2021-08-07 13:03:03,853743
-1,0,2,7,6,3,1,-1,2021-08-07 13:03:03,883744
-2,-5,-6,-3,-3,-4,-3,-2,2021-08-07 13:03:03,883744
-3,0,-1,-1,-8,-5,-4,-2,2021-08-07 13:03:03,883744
3,5,3,0,7,5,3,3,2021-08-07 13:03:03,883744
-2,-2,0,0,-1,-1,-1,-3,2021-08-07 13:03:03,915742
0,-1,-3,-3,-3,-2,-2,-2,2021-08-07 13:03:03,931743
-1,-4,-1,-1,-2,-3,-2,-1,2021-08-07 13:03:03,947743
-4,-6,-3,-2,1,2,-1,-3,2021-08-07 13:03:03,947743
2,3,2,2,-1,-1,2,3,2021-08-07 13:03:03,947743
2,4,5,7,14,9,3,1,2021-08-07 13:03:03,947743
-3,-4,-4,-2,-2,-3,-2,-1,2021-08-07 13:03:03,947743
0,2,1,-3,-7,-3,-2,0,2021-08-07 13:03:03,963743
-2,-3,-3,-4,-4,-4,-3,-3,2021-08-07 13:03:03,979742
-1,-2,-1,-4,-6,-2,-1,-2,2021-08-07 13:03:03,979742
0,2,0,1,3,2,1,-1,2021-08-07 13:03:03,979742
-6,-8,-9,-6,-7,-6,-6,-5,2021-08-07 13:03:03,979742
2,2,3,-1,0,0,-2,1,2021-08-07 13:03:03,979742
3,6,5,4,2,1,3,3,2021-08-07 13:03:03,979742
0,-3,-2,-2,0,-1,0,-2,2021-08-07 13:03:03,979742
-2,-3,-4,-4,-4,-2,-1,-1,2021-08-07 13:03:03,980743
-1,-4,-4,-2,-3,-2,-1,0,2021-08-07 13:03:03,980743
-3,-2,-2,-4,-3,-1,-4,-3,2021-08-07 13:03:03,980743
-1,-2,-2,1,-1,-1,-2,-1,2021-08-07 13:03:03,980743
3,3,2,0,-4,-3,-1,0,2021-08-07 13:03:03,980743
1,1,0,4,5,3,2,-1,2021-08-07 13:03:03,995741
0,0,-1,-1,1,1,-1,-1,2021-08-07 13:03:04,011744
-2,-2,0,-1,-2,-1,0,0,2021-08-07 13:03:04,011744
-1,-2,-2,-1,-3,-3,-3,0,2021-08-07 13:03:04,011744
-2,-2,-3,-4,-2,-2,0,0,2021-08-07 13:03:04,011744
-2,-1,-2,0,2,0,-1,-1,2021-08-07 13:03:04,011744
0,0,1,0,3,0,0,-1,2021-08-07 13:03:04,027744
0,-2,-1,-4,-5,-4,-2,-3,2021-08-07 13:03:04,043742
-5,-9,-10,-11,-11,-9,-5,-4,2021-08-07 13:03:04,043742
5,5,6,7,7,4,4,4,2021-08-07 13:03:04,043742
3,5,3,4,2,2,2,3,2021-08-07 13:03:04,043742
-1,-1,-1,1,0,1,-1,-3,2021-08-07 13:03:04,043742
0,1,2,2,0,2,1,0,2021-08-07 13:03:04,043742
-5,-5,-7,-8,-8,-6,-2,-2,2021-08-07 13:03:04,043742
1,3,3,0,0,0,2,0,2021-08-07 13:03:04,059743
-3,-6,-2,0,-1,-2,-2,-5,2021-08-07 13:03:04,059743
-3,-3,-3,0,-2,-2,-4,-2,2021-08-07 13:03:04,075743
-2,-2,-2,0,0,1,-1,-1,2021-08-07 13:03:04,075743
6,11,7,3,4,3,4,4,2021-08-07 13:03:04,075743
-2,-1,-1,1,0,-1,-1,1,2021-08-07 13:03:04,075743
0,-1,-2,-3,-1,-1,-2,-2,2021-08-07 13:03:04,107743
-2,-2,-5,0,-1,-1,-1,-2,2021-08-07 13:03:04,123743
-4,-7,-7,-5,-8,-6,-4,-4,2021-08-07 13:03:04,139744
-3,-2,-3,1,2,2,-2,-2,2021-08-07 13:03:04,139744
3,4,3,4,3,2,2,0,2021-08-07 13:03:04,139744
2,0,1,2,0,0,0,0,2021-08-07 13:03:04,139744
-2,-4,-3,-2,-3,-1,-2,-2,2021-08-07 13:03:04,155744
-2,-2,0,-4,-4,-3,-2,-2,2021-08-07 13:03:04,155744
-1,0,-3,-7,-1,-3,0,0,2021-08-07 13:03:04,155744
-1,-3,-2,-2,-7,-6,-4,-2,2021-08-07 13:03:04,155744
0,1,-1,0,3,3,-1,0,2021-08-07 13:03:04,155744
1,3,3,1,2,0,2,1,2021-08-07 13:03:04,156742
-2,-2,-2,0,3,2,2,0,2021-08-07 13:03:04,156742
-1,0,-4,-5,-4,-3,-2,-2,2021-08-07 13:03:04,156742
0,0,0,1,-2,-2,-3,-1,2021-08-07 13:03:04,156742
-2,-3,-4,-5,-3,-3,-2,-2,2021-08-07 13:03:04,156742
3,4,6,4,3,1,2,0,2021-08-07 13:03:04,171744
1,2,1,-1,-1,0,1,1,2021-08-07 13:03:04,187742
-3,-5,-4,-3,-3,-1,-1,-4,2021-08-07 13:03:04,187742
-2,-2,-2,-4,-2,-1,0,1,2021-08-07 13:03:04,187742
1,2,2,-4,-5,-1,-1,0,2021-08-07 13:03:04,202743
-2,-1,-1,5,10,7,3,0,2021-08-07 13:03:04,218743
-1,0,-2,-2,-2,-2,-2,-2,2021-08-07 13:03:04,234743
0,1,0,1,2,-2,-1,-1,2021-08-07 13:03:04,234743
-3,-3,-5,-4,-4,-4,-3,-1,2021-08-07 13:03:04,234743
1,2,3,4,3,3,2,1,2021-08-07 13:03:04,234743
-2,-5,-4,-4,-6,-6,-4,-2,2021-08-07 13:03:04,234743
1,4,6,1,1,1,1,2,2021-08-07 13:03:04,234743
2,1,-1,0,1,5,1,2,2021-08-07 13:03:04,235744
0,2,1,1,1,1,-1,0,2021-08-07 13:03:04,235744
-2,-5,-3,2,3,2,-1,-4,2021-08-07 13:03:04,235744
3,3,3,2,-3,0,-1,-1,2021-08-07 13:03:04,235744
0,0,-1,0,-2,0,0,-2,2021-08-07 13:03:04,281742
-3,-2,-2,-3,-3,-2,-2,-1,2021-08-07 13:03:04,281742
-2,-1,-2,-4,-3,-2,-2,0,2021-08-07 13:03:04,281742
-2,-1,-4,0,-2,-1,-3,-1,2021-08-07 13:03:04,281742
-1,-2,-2,-1,0,-1,0,-1,2021-08-07 13:03:04,281742
-1,-4,-2,-1,-2,-2,-1,0,2021-08-07 13:03:04,281742
2,4,4,2,1,0,2,2,2021-08-07 13:03:04,281742
-2,1,-2,1,2,0,1,0,2021-08-07 13:03:04,281742
-1,-2,-3,-2,-3,-3,-2,-4,2021-08-07 13:03:04,297742
-2,-4,-4,-1,-3,-2,-1,-1,2021-08-07 13:03:04,297742
-4,-9,-7,-3,2,1,-4,-4,2021-08-07 13:03:04,313743
5,8,10,9,9,5,4,4,2021-08-07 13:03:04,313743
0,1,-2,0,1,-1,0,-1,2021-08-07 13:03:04,329743
0,1,0,-1,-2,-1,-1,0,2021-08-07 13:03:04,329743
-4,-3,-5,-11,-16,-11,-4,-3,2021-08-07 13:03:04,345745
-3,-8,-7,-4,1,0,-1,-4,2021-08-07 13:03:04,345745
-3,-1,0,-2,-3,-2,-3,-2,2021-08-07 13:03:04,345745
1,2,2,5,4,2,2,1,2021-08-07 13:03:04,345745
0,1,0,-3,-3,-2,-1,1,2021-08-07 13:03:04,345745
1,-2,0,3,2,4,1,1,2021-08-07 13:03:04,345745
1,-1,0,-1,2,1,1,1,2021-08-07 13:03:04,361743
1,0,-1,-3,-2,-3,0,-3,2021-08-07 13:03:04,361743
-1,-1,-3,0,-1,1,-1,0,2021-08-07 13:03:04,361743
-4,-6,-10,-9,-12,-9,-4,-5,2021-08-07 13:03:04,361743
4,8,5,2,-1,1,0,2,2021-08-07 13:03:04,377743
-1,-3,-1,-4,-3,-3,-2,-2,2021-08-07 13:03:04,377743
3,4,5,8,8,3,3,3,2021-08-07 13:03:04,377743
-4,-4,-3,-1,3,4,0,-2,2021-08-07 13:03:04,377743
0,-1,1,3,3,1,1,2,2021-08-07 13:03:04,409741
0,-2,-2,-4,-4,-2,-3,-1,2021-08-07 13:03:04,425741
-3,-4,-4,-1,-3,-4,0,-1,2021-08-07 13:03:04,457741
0,1,1,-4,-6,-4,-2,0,2021-08-07 13:03:04,457741
-2,-1,-1,-1,-2,-3,-1,-1,2021-08-07 13:03:04,457741
0,2,3,1,2,1,1,0,2021-08-07 13:03:04,457741
0,0,1,3,7,3,1,0,2021-08-07 13:03:04,457741
-1,0,0,0,-1,0,0,0,2021-08-07 13:03:04,457741
-3,-2,-3,-3,-2,-2,-2,-1,2021-08-07 13:03:04,458742
-3,-3,-3,-6,-9,-4,-4,-2,2021-08-07 13:03:04,458742
1,2,3,6,6,4,2,0,2021-08-07 13:03:04,458742
-2,-2,-3,-2,-3,-3,-1,-3,2021-08-07 13:03:04,458742
-2,-2,2,-2,-2,-1,0,-3,2021-08-07 13:03:04,458742
2,1,-1,2,6,5,3,1,2021-08-07 13:03:04,458742
-3,0,-2,-4,-6,-3,-2,-2,2021-08-07 13:03:04,458742
-1,-1,-1,2,2,-1,-1,0,2021-08-07 13:03:04,459744
0,1,2,4,7,5,0,0,2021-08-07 13:03:04,489744
-2,-1,-2,-1,-2,-3,-3,-3,2021-08-07 13:03:04,489744
-2,-3,-4,-8,-7,-5,-4,-3,2021-08-07 13:03:04,489744
0,-1,-1,-2,-2,-2,-2,-1,2021-08-07 13:03:04,489744
1,1,0,-1,-4,-2,-2,1,2021-08-07 13:03:04,489744
-1,0,2,-3,-1,-2,-1,-1,2021-08-07 13:03:04,489744
-1,-1,-2,1,2,2,-1,-1,2021-08-07 13:03:04,505741
-2,-2,-3,-3,-3,-3,-3,-3,2021-08-07 13:03:04,515743
0,1,1,0,1,0,0,0,2021-08-07 13:03:04,516745
1,2,2,1,2,1,-1,1,2021-08-07 13:03:04,516745
-1,-1,0,-2,-3,-3,-1,0,2021-08-07 13:03:04,516745
-1,-3,-5,-4,-1,0,0,-2,2021-08-07 13:03:04,516745
-3,-5,-4,-2,-1,-1,0,0,2021-08-07 13:03:04,537743
1,1,0,2,1,0,2,1,2021-08-07 13:03:04,553742
-2,-3,-3,-5,-3,0,-1,-3,2021-08-07 13:03:04,553742
4,7,8,5,5,3,2,2,2021-08-07 13:03:04,553742
-4,-9,-8,-3,-3,-3,-3,-5,2021-08-07 13:03:04,569742
0,0,3,3,-1,1,-1,-1,2021-08-07 13:03:04,585743
2,5,3,3,1,1,-1,2,2021-08-07 13:03:04,600743
-4,-3,-5,-4,-4,-2,-3,-1,2021-08-07 13:03:04,600743
2,3,2,3,0,1,0,-1,2021-08-07 13:03:04,600743
-2,-3,-4,-4,-3,-2,-3,-1,2021-08-07 13:03:04,600743
2,1,0,-1,1,0,-1,-1,2021-08-07 13:03:04,616742
0,2,-1,2,3,2,2,1,2021-08-07 13:03:04,616742
-2,-3,-2,-4,-2,-3,-2,-2,2021-08-07 13:03:04,616742
-1,-4,-4,-4,-5,-5,-1,-2,2021-08-07 13:03:04,616742
2,4,4,5,3,1,0,0,2021-08-07 13:03:04,616742
-1,-3,-6,-5,-7,-6,-2,-2,2021-08-07 13:03:04,617745
4,2,5,6,5,4,3,3,2021-08-07 13:03:04,617745
-1,0,0,1,1,1,0,0,2021-08-07 13:03:04,617745
-5,-6,-6,-2,-4,-4,-2,-2,2021-08-07 13:03:04,617745
3,5,5,-1,-1,0,1,3,2021-08-07 13:03:04,617745
-2,-1,-4,-2,5,3,0,0,2021-08-07 13:03:04,647744
-3,-2,-4,-5,-3,-3,-2,-1,2021-08-07 13:03:04,647744
1,-1,0,-2,-2,0,-2,0,2021-08-07 13:03:04,647744
-1,0,2,6,5,3,2,-1,2021-08-07 13:03:04,647744
0,-1,0,-3,-6,-5,-1,-1,2021-08-07 13:03:04,663743
-1,-1,-2,2,3,2,2,-1,2021-08-07 13:03:04,663743
-3,-4,-5,-5,-6,-2,-2,-4,2021-08-07 13:03:04,663743
-1,-3,-4,-6,-6,-4,-3,-1,2021-08-07 13:03:04,663743
-1,0,-1,-4,-7,-4,-2,-1,2021-08-07 13:03:04,679743
0,0,1,9,11,2,0,0,2021-08-07 13:03:04,695741
0,0,4,3,7,4,2,-1,2021-08-07 13:03:04,710742
1,0,0,-2,1,2,0,2,2021-08-07 13:03:04,710742
0,-2,1,1,0,0,0,0,2021-08-07 13:03:04,710742
-1,-2,-2,-7,-9,-4,-2,-2,2021-08-07 13:03:04,710742
-1,-1,0,-2,-4,-4,-1,0,2021-08-07 13:03:04,710742
-2,-2,-2,1,2,0,-1,-3,2021-08-07 13:03:04,710742
-2,-3,-4,-4,-5,-3,-3,-2,2021-08-07 13:03:04,726744
1,2,3,5,0,2,1,1,2021-08-07 13:03:04,742744
-1,-2,-2,-3,0,-1,-1,1,2021-08-07 13:03:04,742744
-2,-3,-2,-2,-4,-4,-3,-3,2021-08-07 13:03:04,742744
-1,-2,-3,-5,-8,-5,-2,-2,2021-08-07 13:03:04,742744
-1,2,3,2,5,6,2,-1,2021-08-07 13:03:04,742744
0,2,0,3,2,0,-1,1,2021-08-07 13:03:04,743744
0,1,2,-1,-2,-1,-2,0,2021-08-07 13:03:04,743744
1,1,0,5,9,5,1,3,2021-08-07 13:03:04,758743
1,-1,0,-4,-4,-4,-1,1,2021-08-07 13:03:04,758743
-3,-2,-2,-1,-5,-4,-2,-2,2021-08-07 13:03:04,758743
-2,-3,0,-1,-1,2,-1,-1,2021-08-07 13:03:04,758743
-2,-2,-1,-5,-6,-5,-1,-3,2021-08-07 13:03:04,789743
-1,0,-1,-2,-1,-1,0,0,2021-08-07 13:03:04,789743
-1,-1,-1,-2,-1,0,-1,-2,2021-08-07 13:03:04,805743
-1,-1,-3,-2,-6,-3,-2,-2,2021-08-07 13:03:04,805743
-1,-2,-1,1,3,4,2,0,2021-08-07 13:03:04,805743
-1,-1,-1,-1,-1,-1,0,-2,2021-08-07 13:03:04,805743
1,-1,-1,1,0,0,-1,-1,2021-08-07 13:03:04,805743
0,-1,-1,-1,-1,-1,0,-1,2021-08-07 13:03:04,805743
-2,1,0,0,-2,-2,-1,0,2021-08-07 13:03:04,821744
-2,-3,-1,-3,0,-1,-1,-2,2021-08-07 13:03:04,837742
0,-1,-1,-2,0,-3,1,-1,2021-08-07 13:03:04,837742
-2,1,0,0,2,1,0,0,2021-08-07 13:03:04,837742
0,0,-2,1,3,3,1,0,2021-08-07 13:03:04,837742
-1,-2,-4,-5,-7,-4,-2,-3,2021-08-07 13:03:04,837742
-1,-1,-1,-2,-2,0,-3,-1,2021-08-07 13:03:04,838744
2,1,1,4,9,5,2,0,2021-08-07 13:03:04,838744
1,1,1,-1,1,-1,1,-3,2021-08-07 13:03:04,853741
-1,-2,-1,-2,-1,-2,-2,1,2021-08-07 13:03:04,853741
-3,-3,-1,-3,-3,-1,-1,-1,2021-08-07 13:03:04,885742
0,-2,-1,-2,-3,-3,-2,-1,2021-08-07 13:03:04,885742
0,0,0,0,-1,-1,-1,0,2021-08-07 13:03:04,885742
-4,-4,-5,-5,-3,-1,-3,-4,2021-08-07 13:03:04,885742
0,-1,0,3,2,0,1,1,2021-08-07 13:03:04,885742
2,7,4,1,1,0,1,2,2021-08-07 13:03:04,885742
-4,-7,-7,-5,-4,-5,-6,-2,2021-08-07 13:03:04,901742
4,7,3,2,1,3,2,4,2021-08-07 13:03:04,917741
-1,-2,-4,-7,-7,-6,-4,-3,2021-08-07 13:03:04,917741
0,-3,-2,0,1,0,1,-1,2021-08-07 13:03:04,917741
4,4,5,8,10,8,4,2,2021-08-07 13:03:04,933742
-2,-6,-4,-2,-2,-2,-2,-2,2021-08-07 13:03:04,949741
-2,-3,-3,0,0,0,0,0,2021-08-07 13:03:04,949741
-1,-2,1,-4,-8,-4,-2,-2,2021-08-07 13:03:04,949741
0,0,-2,-1,0,-2,-1,-1,2021-08-07 13:03:04,949741
0,-1,0,1,2,-1,1,0,2021-08-07 13:03:04,949741
-1,-2,-2,0,-1,-1,0,-2,2021-08-07 13:03:04,949741
-1,1,-3,-6,-5,-1,0,-1,2021-08-07 13:03:04,949741
-3,-4,-3,3,0,-1,-4,-2,2021-08-07 13:03:04,965743
1,0,1,-4,-4,-2,-2,0,2021-08-07 13:03:04,965743
1,3,2,-3,-6,-4,-1,0,2021-08-07 13:03:04,965743
-3,-1,-1,7,8,3,1,-1,2021-08-07 13:03:04,965743
5,10,7,9,9,6,4,4,2021-08-07 13:03:04,981743
-4,-4,-6,-3,-6,-5,-4,-3,2021-08-07 13:03:04,997742
-4,-7,-5,-3,-5,-5,-2,-4,2021-08-07 13:03:04,997742
-1,-1,-1,-1,-2,-2,-2,0,2021-08-07 13:03:04,997742
2,0,0,-6,-7,-2,2,0,2021-08-07 13:03:04,997742
1,-1,0,0,-3,-2,-1,1,2021-08-07 13:03:04,997742
0,0,1,-1,2,2,5,0,2021-08-07 13:03:04,997742
1,1,0,3,1,5,3,1,2021-08-07 13:03:04,997742
2,1,1,-2,-1,-3,-5,-2,2021-08-07 13:03:05,029741
-11,-6,-5,-3,-5,-10,-13,-14,2021-08-07 13:03:05,045742
-5,-6,-8,-9,-10,-7,-8,-4,2021-08-07 13:03:05,045742
0,-2,-1,2,3,1,0,3,2021-08-07 13:03:05,045742
4,4,2,3,7,8,6,5,2021-08-07 13:03:05,045742
3,3,3,0,-2,3,4,4,2021-08-07 13:03:05,061742
0,0,1,4,3,1,0,1,2021-08-07 13:03:05,077743
-2,-4,-4,-5,-5,-1,-1,-2,2021-08-07 13:03:05,077743
2,5,3,7,4,2,3,4,2021-08-07 13:03:05,077743
0,2,-2,0,2,0,2,-1,2021-08-07 13:03:05,077743
0,-1,0,-6,-9,-5,-5,-1,2021-08-07 13:03:05,077743
2,3,4,6,9,4,2,2,2021-08-07 13:03:05,077743
-8,-10,-9,-8,-10,-7,-6,-7,2021-08-07 13:03:05,078743
1,3,2,6,7,4,3,1,2021-08-07 13:03:05,078743
0,1,1,1,2,1,2,-1,2021-08-07 13:03:05,093743
0,0,-1,-3,-5,-4,-3,-1,2021-08-07 13:03:05,093743
-2,-1,-1,-1,-4,-2,-4,-2,2021-08-07 13:03:05,093743
-1,-1,0,-2,-3,-1,-1,0,2021-08-07 13:03:05,093743
-2,-2,-2,-3,0,2,-2,-2,2021-08-07 13:03:05,109744
-1,-2,-3,-2,1,-1,-2,-2,2021-08-07 13:03:05,109744
-1,-2,-1,-2,0,-1,0,-2,2021-08-07 13:03:05,124743
2,-1,2,7,9,8,3,3,2021-08-07 13:03:05,140742
2,2,3,3,1,0,0,2,2021-08-07 13:03:05,140742
-2,-4,-2,-4,-6,-5,-3,-1,2021-08-07 13:03:05,140742
-2,-1,1,-1,-4,-5,-3,0,2021-08-07 13:03:05,140742
-3,-1,-3,-8,-8,-7,-2,-2,2021-08-07 13:03:05,140742
0,-1,-1,-1,2,2,2,1,2021-08-07 13:03:05,140742
0,1,1,2,3,1,1,-1,2021-08-07 13:03:05,141744
-3,-4,-5,-4,-3,-3,-1,-3,2021-08-07 13:03:05,155743
1,1,2,-2,-1,0,0,2,2021-08-07 13:03:05,155743
-5,-5,-6,-1,-2,-2,-3,-4,2021-08-07 13:03:05,155743
1,1,2,-4,-8,-5,-3,1,2021-08-07 13:03:05,155743
-1,-7,-5,-6,-9,-4,-4,-1,2021-08-07 13:03:05,202744
1,2,4,8,15,10,6,2,2021-08-07 13:03:05,202744
4,5,3,5,8,5,5,0,2021-08-07 13:03:05,202744
-3,-5,-6,-4,-6,-2,-3,-3,2021-08-07 13:03:05,202744
-1,0,0,-1,-6,-5,-2,-1,2021-08-07 13:03:05,202744
-1,-4,-4,-5,-6,-4,-3,-2,2021-08-07 13:03:05,203743
-1,-1,0,-2,-4,-4,-3,-1,2021-08-07 13:03:05,203743
0,0,0,-1,2,2,1,-1,2021-08-07 13:03:05,203743
-1,-1,1,3,2,1,0,1,2021-08-07 13:03:05,218743
1,1,2,2,2,0,1,0,2021-08-07 13:03:05,218743
-1,-1,0,2,3,1,0,-3,2021-08-07 13:03:05,234742
1,1,0,2,0,-2,-1,0,2021-08-07 13:03:05,234742
0,1,-3,-6,-7,-5,-1,0,2021-08-07 13:03:05,234742
0,0,-2,-4,-3,2,0,-1,2021-08-07 13:03:05,234742
-2,-4,-3,-4,-4,-4,-3,-1,2021-08-07 13:03:05,234742
-2,-1,0,-2,-4,-4,-2,-3,2021-08-07 13:03:05,234742
2,3,5,10,18,11,4,2,2021-08-07 13:03:05,266742
-1,1,0,3,-1,-1,0,-1,2021-08-07 13:03:05,282743
0,1,-2,-3,-3,-2,0,0,2021-08-07 13:03:05,282743
-1,-5,-2,-1,-1,-2,-3,-4,2021-08-07 13:03:05,282743
-2,-2,-1,0,1,1,-1,-3,2021-08-07 13:03:05,282743
-3,-5,-5,-8,-10,-5,-4,-4,2021-08-07 13:03:05,282743
-1,0,0,-1,-5,-2,-1,-1,2021-08-07 13:03:05,282743
2,3,4,4,5,3,3,1,2021-08-07 13:03:05,282743
-1,1,2,-1,-2,-2,-2,-1,2021-08-07 13:03:05,298741
-4,-6,-3,-2,-2,-2,-2,-1,2021-08-07 13:03:05,298741
2,2,3,1,-2,0,-1,1,2021-08-07 13:03:05,298741
0,-1,-3,1,4,4,1,0,2021-08-07 13:03:05,298741
-2,-2,-1,-3,-4,-1,-2,-3,2021-08-07 13:03:05,329745
-1,-5,-6,-2,-3,-4,-2,-4,2021-08-07 13:03:05,329745
-1,-2,-1,-5,-5,-3,-2,-1,2021-08-07 13:03:05,329745
0,1,2,4,2,0,0,0,2021-08-07 13:03:05,329745
0,2,1,3,5,3,2,1,2021-08-07 13:03:05,345742
2,0,-1,-1,-3,-1,-1,-1,2021-08-07 13:03:05,361743
-1,-2,-2,0,1,-1,-3,0,2021-08-07 13:03:05,377743
-1,-3,-4,-5,-6,-4,-3,-3,2021-08-07 13:03:05,377743
0,1,1,-2,0,0,0,-1,2021-08-07 13:03:05,377743
0,-1,-2,-5,-6,-3,-3,-1,2021-08-07 13:03:05,377743
3,2,4,7,12,5,2,0,2021-08-07 13:03:05,377743
-1,-3,-3,0,-2,0,0,-1,2021-08-07 13:03:05,377743
0,-3,-3,-3,-3,-4,-1,-1,2021-08-07 13:03:05,377743
1,-1,-1,-1,6,5,1,1,2021-08-07 13:03:05,377743
2,1,2,-1,1,3,2,1,2021-08-07 13:03:05,377743
-6,-6,-6,-4,-4,-2,-3,-3,2021-08-07 13:03:05,378744
-4,-5,-2,-5,-10,-7,-5,-4,2021-08-07 13:03:05,409745
3,7,8,6,8,4,3,2,2021-08-07 13:03:05,425741
-2,-3,-3,0,-1,-2,-3,-4,2021-08-07 13:03:05,441744
1,2,2,-1,-1,-1,1,2,2021-08-07 13:03:05,441744
-2,-4,-5,-4,-6,-3,-3,-3,2021-08-07 13:03:05,441744
1,0,-1,3,6,4,1,3,2021-08-07 13:03:05,441744
0,-2,-5,-5,-7,-4,-2,0,2021-08-07 13:03:05,441744
2,2,2,-3,-3,-1,-1,2,2021-08-07 13:03:05,457744
-2,-5,-4,-4,-3,-3,-3,-1,2021-08-07 13:03:05,457744
0,1,3,4,2,2,1,1,2021-08-07 13:03:05,457744
0,1,2,5,10,6,3,1,2021-08-07 13:03:05,457744
-2,-1,-4,-3,-5,-2,-1,-3,2021-08-07 13:03:05,457744
0,0,-3,-6,-9,-5,-1,0,2021-08-07 13:03:05,457744
-3,-3,-3,-2,-4,-2,-2,-5,2021-08-07 13:03:05,458743
-3,-2,-2,-2,-3,-2,-1,0,2021-08-07 13:03:05,458743
0,0,0,1,1,-1,-2,-2,2021-08-07 13:03:05,458743
0,1,2,2,6,4,3,1,2021-08-07 13:03:05,488743
-4,-3,-3,-7,-11,-8,-5,-3,2021-08-07 13:03:05,488743
-3,-3,0,0,-4,-3,-4,-4,2021-08-07 13:03:05,488743
2,2,2,1,3,2,2,3,2021-08-07 13:03:05,488743
2,1,1,0,0,1,0,0,2021-08-07 13:03:05,504742
1,0,-2,1,1,1,0,1,2021-08-07 13:03:05,519743
0,0,-2,0,1,-1,-2,-2,2021-08-07 13:03:05,535743
1,3,4,3,1,0,1,1,2021-08-07 13:03:05,535743
-2,-5,-4,-1,1,-2,-1,-2,2021-08-07 13:03:05,535743
-3,-7,-5,-5,-5,-5,-1,-4,2021-08-07 13:03:05,535743
2,3,-1,0,-3,-1,0,0,2021-08-07 13:03:05,535743
-2,-3,-2,-1,1,0,-2,-1,2021-08-07 13:03:05,535743
1,3,1,4,5,4,3,1,2021-08-07 13:03:05,536744
0,0,0,0,-1,-1,-2,1,2021-08-07 13:03:05,536744
-3,-5,-5,-6,-10,-7,-4,-3,2021-08-07 13:03:05,551743
0,0,-1,-4,-7,-3,-1,0,2021-08-07 13:03:05,551743
-1,-1,1,7,5,2,0,-1,2021-08-07 13:03:05,567743
3,2,3,4,11,6,3,0,2021-08-07 13:03:05,583742
2,3,1,-1,0,1,0,0,2021-08-07 13:03:05,583742
-2,-4,-5,-7,-8,-4,-2,-3,2021-08-07 13:03:05,583742
-1,-1,1,2,1,2,0,-2,2021-08-07 13:03:05,583742
-4,-4,-4,-7,-9,-6,-3,-2,2021-08-07 13:03:05,583742
-1,-1,0,-4,-4,-2,0,0,2021-08-07 13:03:05,599743
1,1,4,7,7,2,0,0,2021-08-07 13:03:05,599743
1,1,-1,1,-2,-1,0,1,2021-08-07 13:03:05,599743
-2,-3,-1,1,0,-3,-1,-2,2021-08-07 13:03:05,615743
-2,-2,-2,-4,0,3,1,-1,2021-08-07 13:03:05,615743
-2,-2,-3,-6,-4,-4,-1,-2,2021-08-07 13:03:05,615743
-2,-1,-3,2,2,2,1,0,2021-08-07 13:03:05,630743
-1,-2,-2,-5,-6,-3,-2,0,2021-08-07 13:03:05,646337
0,1,1,3,2,1,0,-1,2021-08-07 13:03:05,661778
-2,-3,-5,-3,-3,-4,-2,-2,2021-08-07 13:03:05,661778
1,-1,-1,-1,3,3,1,1,2021-08-07 13:03:05,677777
-2,-2,-2,-5,-9,-5,-2,-2,2021-08-07 13:03:05,693778
-4,-5,-6,-3,-2,-2,-1,-5,2021-08-07 13:03:05,693778
4,6,4,8,10,9,5,5,2021-08-07 13:03:05,693778
1,2,2,0,0,-1,1,0,2021-08-07 13:03:05,693778
-1,2,-1,0,-1,2,0,-1,2021-08-07 13:03:05,693778
-1,-2,0,1,0,-1,-2,0,2021-08-07 13:03:05,693778
-7,-10,-8,-12,-14,-10,-7,-5,2021-08-07 13:03:05,693778
2,4,6,5,6,4,2,1,2021-08-07 13:03:05,694778
-1,1,0,-2,-3,-2,0,0,2021-08-07 13:03:05,694778
-1,-2,-1,-1,-4,-5,-2,-1,2021-08-07 13:03:05,694778
2,2,1,6,11,7,3,1,2021-08-07 13:03:05,694778
-4,-7,-6,-4,-5,-5,-4,-3,2021-08-07 13:03:05,709779
1,-1,-2,-1,1,0,-1,-1,2021-08-07 13:03:05,725776
1,2,0,-2,-2,-1,-2,0,2021-08-07 13:03:05,725776
0,1,-1,-5,-10,-7,-2,-1,2021-08-07 13:03:05,725776
-2,-4,-4,-6,-4,-2,-3,-3,2021-08-07 13:03:05,725776
1,2,2,2,1,1,1,0,2021-08-07 13:03:05,725776
-1,-1,0,3,4,1,1,2,2021-08-07 13:03:05,726777
-1,1,0,2,-1,-1,2,1,2021-08-07 13:03:05,726777
1,2,-1,-5,-1,-1,0,0,2021-08-07 13:03:05,741776
-3,-4,-2,7,7,1,-1,-3,2021-08-07 13:03:05,757778
0,0,1,-4,-6,-3,-4,-1,2021-08-07 13:03:05,772778
0,1,-1,4,2,2,1,2,2021-08-07 13:03:05,772778
2,4,4,1,-1,0,1,2,2021-08-07 13:03:05,772778
-3,-3,-2,-3,-5,-4,-5,-3,2021-08-07 13:03:05,772778
-1,-1,0,4,6,4,1,-1,2021-08-07 13:03:05,772778
0,-2,-1,-5,-4,-2,-3,-1,2021-08-07 13:03:05,772778
-3,-4,-5,-4,-6,-5,-3,-3,2021-08-07 13:03:05,788776
3,7,7,5,8,5,3,4,2021-08-07 13:03:05,803778
0,-1,-2,-2,-3,-1,4,2,2021-08-07 13:03:05,819778
-1,-3,-2,-7,-11,-6,-3,-2,2021-08-07 13:03:05,819778
-1,-4,-2,7,14,5,-5,-2,2021-08-07 13:03:05,819778
-3,-4,-4,-4,-4,-4,-7,-5,2021-08-07 13:03:05,819778
4,9,6,-3,-7,0,2,3,2021-08-07 13:03:05,819778
-1,-1,0,1,-2,3,2,2,2021-08-07 13:03:05,820779
-1,-5,-5,-6,-4,1,1,0,2021-08-07 13:03:05,820779
3,3,7,8,6,2,2,1,2021-08-07 13:03:05,820779
-2,-2,-1,3,7,2,-2,-3,2021-08-07 13:03:05,820779
2,2,2,-3,-3,-2,-1,-1,2021-08-07 13:03:05,820779
0,0,0,-5,-9,-4,-2,-1,2021-08-07 13:03:05,835776
-5,-9,-8,-7,-6,-5,-2,-3,2021-08-07 13:03:05,835776
-2,-1,-1,5,8,4,2,2,2021-08-07 13:03:05,837778
-3,-3,-2,-2,0,1,0,-2,2021-08-07 13:03:05,837778
9,12,12,7,7,12,19,14,2021-08-07 13:03:05,867777
4,3,-1,-12,-22,-12,-12,-3,2021-08-07 13:03:05,883286
-19,-16,-11,-10,-11,-23,-29,-24,2021-08-07 13:03:05,899288
26,11,10,27,57,88,101,55,2021-08-07 13:03:05,899288
14,4,5,11,16,17,-1,5,2021-08-07 13:03:05,899288
-65,-24,-18,-24,-52,-89,-86,-93,2021-08-07 13:03:05,899288
-25,-17,-16,-23,-38,-30,-20,-21,2021-08-07 13:03:05,899288
-5,-3,-4,-8,-12,-11,-11,-9,2021-08-07 13:03:05,899288
7,1,-1,-1,3,33,49,23,2021-08-07 13:03:05,899288
43,32,28,29,41,64,68,64,2021-08-07 13:03:05,900288
-3,-6,-2,-1,-3,-10,-15,-6,2021-08-07 13:03:05,915286
-22,-10,-10,-15,-21,-29,-26,-24,2021-08-07 13:03:05,915286
19,7,9,17,17,28,34,23,2021-08-07 13:03:05,915286
12,-6,-7,-6,2,0,-13,-1,2021-08-07 13:03:05,915286
-21,-6,-6,-3,-4,-35,-44,-28,2021-08-07 13:03:05,915286
-13,-3,-3,-5,-3,2,4,-3,2021-08-07 13:03:05,930290
11,-3,-8,-8,-10,1,10,9,2021-08-07 13:03:05,946287
1,-2,-5,-12,-13,-33,-49,-3,2021-08-07 13:03:05,962287
-18,-7,-4,-12,-17,-16,-9,-4,2021-08-07 13:03:05,962287
-4,-3,-2,1,0,-16,-31,-17,2021-08-07 13:03:05,962287
-13,-2,-1,1,-2,-4,-1,-12,2021-08-07 13:03:05,962287
13,-10,-10,-2,7,44,63,27,2021-08-07 13:03:05,962287
38,28,25,28,33,40,40,32,2021-08-07 13:03:05,962287
-7,-6,-5,0,-4,-16,-18,-16,2021-08-07 13:03:05,963288
-16,-13,-14,-29,-49,-38,-23,-17,2021-08-07 13:03:05,978288
12,21,22,40,66,45,25,17,2021-08-07 13:03:05,994287
0,-4,-8,-8,-10,-6,-4,-2,2021-08-07 13:03:05,994287
2,0,2,12,9,7,4,3,2021-08-07 13:03:05,994287
-1,8,12,28,25,0,-11,-5,2021-08-07 13:03:06,010288
-9,-7,-7,11,12,3,-5,-8,2021-08-07 13:03:06,010288
0,-7,-8,-34,-32,-6,9,3,2021-08-07 13:03:06,010288
8,-2,-6,-26,-28,-9,-1,7,2021-08-07 13:03:06,010288
-11,-6,-2,8,9,-13,-26,-14,2021-08-07 13:03:06,010288
-8,-2,-7,4,0,-4,-2,-7,2021-08-07 13:03:06,010288
16,13,10,23,36,40,33,16,2021-08-07 13:03:06,026289
-3,-5,-8,-35,-42,-26,-18,-7,2021-08-07 13:03:06,026289
-17,-17,-16,-48,-39,-33,-32,-21,2021-08-07 13:03:06,042288
0,-2,-1,6,8,9,12,4,2021-08-07 13:03:06,058287
10,3,6,5,-6,2,7,6,2021-08-07 13:03:06,058287
2,6,5,22,23,1,-7,-1,2021-08-07 13:03:06,058759
-3,6,7,16,15,6,1,-3,2021-08-07 13:03:06,058759
0,1,6,-3,-4,3,7,1,2021-08-07 13:03:06,058759
1,-3,-3,3,3,5,5,3,2021-08-07 13:03:06,059288
-2,-1,-1,0,-7,-8,-10,-7,2021-08-07 13:03:06,059288
0,2,4,13,23,13,6,4,2021-08-07 13:03:06,089320
-1,5,3,-8,-11,-7,-1,-1,2021-08-07 13:03:06,105318
-4,-1,-2,-3,-1,-1,-3,-2,2021-08-07 13:03:06,105318
-1,-6,-5,2,4,3,3,-1,2021-08-07 13:03:06,105318
6,4,1,-8,-10,-2,0,3,2021-08-07 13:03:06,105318
-3,-2,-4,-17,-28,-18,-12,-3,2021-08-07 13:03:06,105318
1,-2,0,0,5,4,0,0,2021-08-07 13:03:06,105318
0,-2,-2,1,7,9,6,4,2021-08-07 13:03:06,105318
1,3,6,12,17,6,1,-3,2021-08-07 13:03:06,121318
-1,1,-1,-8,-10,-8,-2,-1,2021-08-07 13:03:06,121318
0,-2,-5,-1,2,6,5,2,2021-08-07 13:03:06,136319
0,1,3,4,-5,-4,-3,-2,2021-08-07 13:03:06,136319
-5,-3,-6,-7,-7,-7,-8,-7,2021-08-07 13:03:06,136319
-2,-1,3,0,-1,2,4,0,2021-08-07 13:03:06,136319
-2,-5,-6,-5,-6,-6,-5,-5,2021-08-07 13:03:06,151318
9,11,9,8,9,8,8,10,2021-08-07 13:03:06,151318
-3,-4,-4,-4,-5,-5,-3,0,2021-08-07 13:03:06,167319
-3,-6,-6,-7,-5,-4,-2,-1,2021-08-07 13:03:06,183318
0,-1,-5,0,4,5,1,1,2021-08-07 13:03:06,183318
8,10,12,20,21,15,9,7,2021-08-07 13:03:06,183318
-3,-3,-5,-7,-9,-9,-4,-2,2021-08-07 13:03:06,199318
4,5,6,-1,2,3,4,4,2021-08-07 13:03:06,199318
2,3,4,6,6,7,2,1,2021-08-07 13:03:06,199318
-2,-1,-2,-6,-6,-5,-3,0,2021-08-07 13:03:06,199318
-1,-5,-6,-1,1,0,-1,-1,2021-08-07 13:03:06,199318
-3,-6,0,-6,-9,-6,-4,-2,2021-08-07 13:03:06,199318
5,7,7,1,4,4,4,4,2021-08-07 13:03:06,215318
-1,-2,-1,2,0,-3,-4,-2,2021-08-07 13:03:06,215318
-5,-3,-2,-5,-10,-5,-4,-4,2021-08-07 13:03:06,231322
-1,-5,-7,-2,-7,-9,-5,-2,2021-08-07 13:03:06,231322
2,3,3,5,9,7,4,4,2021-08-07 13:03:06,231322
-1,-4,-3,-4,-4,-3,-3,-3,2021-08-07 13:03:06,231322
0,2,1,3,2,2,2,2,2021-08-07 13:03:06,247318
-4,-4,1,11,5,2,1,-4,2021-08-07 13:03:06,263320
-1,0,4,14,4,1,0,-1,2021-08-07 13:03:06,263320
1,3,1,10,1,-2,0,0,2021-08-07 13:03:06,263320
-6,-8,-13,-45,-14,-4,-4,-6,2021-08-07 13:03:06,263320
-8,-13,-13,-24,-16,-8,-8,-8,2021-08-07 13:03:06,263320
-1,-1,0,-9,-8,-5,-2,2,2021-08-07 13:03:06,264320
0,3,5,16,9,2,2,-1,2021-08-07 13:03:06,264320
13,15,19,37,22,11,7,7,2021-08-07 13:03:06,277319
-4,-6,-10,-6,-7,-4,-3,-2,2021-08-07 13:03:06,277319
4,3,4,4,11,7,6,7,2021-08-07 13:03:06,294319
0,4,6,5,6,2,0,-1,2021-08-07 13:03:06,310319
-3,-1,-3,-4,-9,-6,-5,-2,2021-08-07 13:03:06,326320
-2,-3,-5,-5,-5,-4,-4,-3,2021-08-07 13:03:06,342319
-5,-5,-3,-6,-10,-5,-4,-4,2021-08-07 13:03:06,342319
-3,-4,-7,-7,3,4,4,0,2021-08-07 13:03:06,358319
5,6,5,7,11,6,6,2,2021-08-07 13:03:06,374317
1,0,1,9,9,4,2,-1,2021-08-07 13:03:06,374317
-1,-3,-7,-5,-8,-5,-3,0,2021-08-07 13:03:06,374317
-5,-7,-2,-18,-13,-7,-6,-3,2021-08-07 13:03:06,390319
-6,-7,-2,-15,-21,-14,-11,-7,2021-08-07 13:03:06,406319
4,1,-8,4,9,5,3,3,2021-08-07 13:03:06,422319
1,1,4,2,-5,-3,1,0,2021-08-07 13:03:06,422319
2,2,0,14,22,10,5,0,2021-08-07 13:03:06,422319
-2,-3,1,13,7,0,0,-3,2021-08-07 13:03:06,422319
0,0,-3,-21,-14,-5,-2,-1,2021-08-07 13:03:06,422319
-2,-2,-3,-1,3,1,0,-2,2021-08-07 13:03:06,422319
0,0,2,-1,-7,-3,-2,-1,2021-08-07 13:03:06,423318
-3,-6,-6,-18,-19,-11,-6,-3,2021-08-07 13:03:06,423318
-4,-5,-4,1,-1,0,-1,0,2021-08-07 13:03:06,423318
2,4,5,17,17,9,4,0,2021-08-07 13:03:06,423318
-2,1,-3,-9,-2,-4,-3,-1,2021-08-07 13:03:06,423318
1,1,2,6,4,0,0,2,2021-08-07 13:03:06,423318
-1,-1,0,-5,-9,-3,0,1,2021-08-07 13:03:06,423318
-5,-7,-4,-2,-5,-6,-5,-4,2021-08-07 13:03:06,423318
-1,-1,-2,-4,-8,-1,-1,-1,2021-08-07 13:03:06,424319
1,4,4,15,10,3,1,1,2021-08-07 13:03:06,424319
3,6,6,0,17,11,6,3,2021-08-07 13:03:06,424319
-4,-6,-6,-20,-14,-10,-6,-5,2021-08-07 13:03:06,424319
1,-1,-4,5,6,6,3,1,2021-08-07 13:03:06,424319
-2,-2,1,6,10,2,0,-1,2021-08-07 13:03:06,454318
-2,-3,-3,9,3,1,0,-1,2021-08-07 13:03:06,469321
5,6,4,-5,-5,0,1,3,2021-08-07 13:03:06,469321
-4,-4,-4,-14,-12,-8,-5,-2,2021-08-07 13:03:06,469321
-2,-1,-2,2,1,2,1,0,2021-08-07 13:03:06,469321
-2,1,2,5,0,-3,-1,-2,2021-08-07 13:03:06,469321
1,-2,-3,-3,-4,-3,0,1,2021-08-07 13:03:06,485320
-1,-3,-3,-7,-8,-3,-3,-2,2021-08-07 13:03:06,485320
1,2,-1,-4,-7,-3,0,0,2021-08-07 13:03:06,485320
1,3,7,18,20,8,3,1,2021-08-07 13:03:06,485320
0,2,0,5,-4,0,0,-1,2021-08-07 13:03:06,485320
-1,2,-3,-18,-10,-9,-4,0,2021-08-07 13:03:06,485320
1,-2,-4,-3,9,8,5,3,2021-08-07 13:03:06,517318
-3,-5,-7,-19,-21,-12,-8,-4,2021-08-07 13:03:06,533319
-1,-3,-2,2,4,3,1,-1,2021-08-07 13:03:06,533319
0,2,6,15,8,4,1,0,2021-08-07 13:03:06,533319
-4,-2,5,3,-4,-5,-5,-6,2021-08-07 13:03:06,533319
2,0,-11,5,-4,1,3,3,2021-08-07 13:03:06,534319
1,3,-1,-5,19,11,2,2,2021-08-07 13:03:06,534319
-1,-3,-1,-6,-11,-6,-2,-2,2021-08-07 13:03:06,534319
0,0,0,12,20,9,3,0,2021-08-07 13:03:06,534319
-1,0,3,3,-5,-4,-3,1,2021-08-07 13:03:06,534319
-2,-2,-5,-6,-7,-1,-1,-1,2021-08-07 13:03:06,549319
-3,-3,-3,-9,-3,-4,-4,-3,2021-08-07 13:03:06,549319
0,-1,-4,-4,-8,-5,-3,0,2021-08-07 13:03:06,565318
-5,-5,-1,-5,-12,-6,-6,-4,2021-08-07 13:03:06,581320
6,9,9,22,15,10,6,4,2021-08-07 13:03:06,581320
-4,-6,-8,-19,-14,-6,-5,-2,2021-08-07 13:03:06,581320
-1,2,4,10,11,7,3,0,2021-08-07 13:03:06,581320
0,0,-2,-4,-4,-6,-1,0,2021-08-07 13:03:06,581320
-3,-3,-1,-6,-14,-8,-6,-2,2021-08-07 13:03:06,581320
4,5,7,16,10,8,5,4,2021-08-07 13:03:06,581320
-2,-3,-5,5,10,5,1,1,2021-08-07 13:03:06,612319
2,5,5,2,4,4,1,2,2021-08-07 13:03:06,612319
-2,-1,1,0,4,1,2,-2,2021-08-07 13:03:06,612319
3,5,9,28,19,5,2,2,2021-08-07 13:03:06,612319
0,2,1,2,-11,-8,-4,0,2021-08-07 13:03:06,628319
-2,-4,-5,-7,-9,-5,-2,-3,2021-08-07 13:03:06,644319
-11,-18,-24,-66,-48,-22,-13,-9,2021-08-07 13:03:06,644319
-6,-8,-15,-20,-14,-7,-5,-4,2021-08-07 13:03:06,644319
-1,-4,-5,-8,0,0,-2,-2,2021-08-07 13:03:06,644319
2,7,13,20,16,9,4,2,2021-08-07 13:03:06,644319
2,5,5,19,2,-2,0,2,2021-08-07 13:03:06,644319
3,3,6,19,28,15,9,5,2021-08-07 13:03:06,645320
0,2,3,2,-4,-2,-1,-1,2021-08-07 13:03:06,676318
-2,-1,-1,3,8,1,0,-1,2021-08-07 13:03:06,692318
-1,-4,-3,3,3,0,0,0,2021-08-07 13:03:06,692318
-2,-1,-2,-2,-8,-4,-3,-3,2021-08-07 13:03:06,692318
-4,-6,-5,-11,-17,-12,-5,-5,2021-08-07 13:03:06,692318
2,3,5,3,1,2,1,2,2021-08-07 13:03:06,692318
-1,0,0,-4,1,-1,0,-1,2021-08-07 13:03:06,692318
4,7,6,7,8,2,2,2,2021-08-07 13:03:06,693320
-4,-6,-12,-13,-11,-6,-3,-2,2021-08-07 13:03:06,693320
-4,-6,-4,-21,-7,-3,-4,-4,2021-08-07 13:03:06,693320
-2,-4,-2,1,-7,-3,-3,-2,2021-08-07 13:03:06,724318
-5,-5,-5,-3,-2,-1,-1,-3,2021-08-07 13:03:06,724318
6,10,14,15,18,9,6,5,2021-08-07 13:03:06,724318
-1,-2,-5,-3,-9,-6,-4,-1,2021-08-07 13:03:06,739319
6,10,7,22,18,11,5,5,2021-08-07 13:03:06,755319
-4,-3,-7,-31,-24,-12,-6,-3,2021-08-07 13:03:06,755319
-5,-9,-6,-16,-20,-9,-7,-5,2021-08-07 13:03:06,770318
-1,-1,2,0,8,2,0,-2,2021-08-07 13:03:06,786318
-1,-4,-5,11,9,5,2,0,2021-08-07 13:03:06,802319
3,4,6,12,12,5,3,1,2021-08-07 13:03:06,818319
6,7,5,13,5,2,3,6,2021-08-07 13:03:06,834318
-2,-9,-9,-25,-21,-9,-5,-5,2021-08-07 13:03:06,834318
-3,-4,-3,-14,-3,-2,-2,-4,2021-08-07 13:03:06,834318
-4,-1,3,-3,-11,-6,-5,-2,2021-08-07 13:03:06,834318
-4,-5,-13,-5,-3,-3,-2,-3,2021-08-07 13:03:06,834318
0,2,2,13,9,8,3,1,2021-08-07 13:03:06,834318
4,5,7,22,28,16,6,4,2021-08-07 13:03:06,835320
0,0,2,-1,-6,-5,-2,-1,2021-08-07 13:03:06,835320
0,0,4,0,4,2,-1,-1,2021-08-07 13:03:06,835320
-3,-4,-8,-12,-16,-12,-5,-3,2021-08-07 13:03:06,835320
-3,-5,-7,-17,-17,-9,-4,-2,2021-08-07 13:03:06,835320
2,1,3,7,9,8,4,2,2021-08-07 13:03:06,835320
1,5,6,0,0,0,-1,2,2021-08-07 13:03:06,849318
-3,-1,-2,2,-5,-6,-4,-2,2021-08-07 13:03:06,849318
0,0,-1,-6,-7,-4,-2,0,2021-08-07 13:03:06,849318
3,4,4,20,17,9,3,2,2021-08-07 13:03:06,849318
-4,-5,-7,-4,-8,-4,-1,-3,2021-08-07 13:03:06,849318
0,-1,0,0,-2,1,0,1,2021-08-07 13:03:06,849318
1,2,2,-5,5,3,0,2,2021-08-07 13:03:06,849318
-5,-7,-10,-14,-15,-11,-7,-4,2021-08-07 13:03:06,850320
0,-1,0,-3,-3,0,-1,-2,2021-08-07 13:03:06,881318
3,5,5,12,13,5,3,3,2021-08-07 13:03:06,897320
-2,1,1,18,2,1,-1,-1,2021-08-07 13:03:06,897320
0,-1,-5,-6,6,5,3,2,2021-08-07 13:03:06,897320
-2,-4,-4,-19,-15,-6,-4,-2,2021-08-07 13:03:06,897320
-3,-4,-3,-16,-18,-11,-6,-3,2021-08-07 13:03:06,897320
1,1,8,7,7,5,2,0,2021-08-07 13:03:06,898320
-2,-2,-9,6,4,-2,-3,-3,2021-08-07 13:03:06,898320
-8,-9,-7,-9,-23,-19,-9,-6,2021-08-07 13:03:06,898320
4,7,6,18,36,28,12,7,2021-08-07 13:03:06,898320
-4,-4,-1,5,3,-3,-1,-1,2021-08-07 13:03:06,898320
6,9,15,8,0,1,3,3,2021-08-07 13:03:06,898320
2,2,-2,-4,-1,-1,-1,0,2021-08-07 13:03:06,928318
-2,-4,-5,-7,-5,-5,-3,-4,2021-08-07 13:03:06,928318
-4,-3,-8,-15,-14,-9,-5,-6,2021-08-07 13:03:06,928318
-3,-6,-4,2,4,-2,-1,-1,2021-08-07 13:03:06,928318
-4,-5,-5,-9,-20,-10,-6,-4,2021-08-07 13:03:06,960319
-1,0,0,10,24,10,6,2,2021-08-07 13:03:06,960319
6,7,5,5,13,7,6,6,2021-08-07 13:03:06,960319
2,3,2,-1,1,3,2,0,2021-08-07 13:03:06,960319
0,3,1,-1,-2,-2,0,0,2021-08-07 13:03:06,960319
-7,-9,-5,-11,-14,-10,-9,-10,2021-08-07 13:03:06,960319
-7,-9,-12,-20,-31,-19,-9,-7,2021-08-07 13:03:06,961319
4,6,4,13,23,17,7,5,2021-08-07 13:03:06,961319
5,8,10,17,24,13,6,3,2021-08-07 13:03:06,992319
0,0,-1,5,-1,-2,-1,-1,2021-08-07 13:03:06,992319
0,0,0,-8,-6,-3,-2,-1,2021-08-07 13:03:07,008319
-3,-5,-1,-6,-16,-11,-6,-5,2021-08-07 13:03:07,008319
-4,-5,-6,1,-1,-1,-2,-2,2021-08-07 13:03:07,008319
-5,-4,-8,-16,-16,-8,-4,-1,2021-08-07 13:03:07,008319
2,2,7,3,7,5,1,3,2021-08-07 13:03:07,008319
-3,-3,-5,-8,-15,-10,-4,-2,2021-08-07 13:03:07,008319
2,5,3,4,14,10,6,3,2021-08-07 13:03:07,024319
-1,1,0,2,-6,-4,-2,0,2021-08-07 13:03:07,024319
-3,-4,-3,1,-3,-3,-4,-3,2021-08-07 13:03:07,024319
0,0,-3,-10,-8,-2,-2,-1,2021-08-07 13:03:07,024319
0,1,3,-1,2,1,2,2,2021-08-07 13:03:07,056320
0,2,3,7,7,0,-1,0,2021-08-07 13:03:07,087319
-1,-5,-7,-2,4,8,2,-1,2021-08-07 13:03:07,087319
1,2,3,7,3,-2,-2,0,2021-08-07 13:03:07,087319
-2,-5,-3,-8,-10,-6,-4,-4,2021-08-07 13:03:07,087319
2,3,4,0,-3,-3,-1,1,2021-08-07 13:03:07,087319
-1,0,-2,1,-4,-3,-1,-1,2021-08-07 13:03:07,087319
-2,-3,-5,-7,-4,-3,-2,0,2021-08-07 13:03:07,087319
-2,-2,-5,-1,3,1,-2,-1,2021-08-07 13:03:07,087319
1,2,1,3,3,0,1,1,2021-08-07 13:03:07,087319
0,2,3,6,-1,-5,-1,-1,2021-08-07 13:03:07,088321
-6,-4,-2,-4,-8,-2,-2,-3,2021-08-07 13:03:07,088321
-6,-5,-5,-6,-11,-9,-7,-5,2021-08-07 13:03:07,118321
-1,-2,-4,-12,-6,-2,-1,-1,2021-08-07 13:03:07,118321
0,1,1,-5,1,-1,0,1,2021-08-07 13:03:07,118321
-2,-3,0,0,-1,-2,-1,0,2021-08-07 13:03:07,118321
2,1,6,10,4,-1,0,1,2021-08-07 13:03:07,118321
3,2,2,15,8,4,4,4,2021-08-07 13:03:07,119319
6,12,7,2,5,5,5,5,2021-08-07 13:03:07,133321
1,-3,-1,-11,5,2,2,-1,2021-08-07 13:03:07,133321
-6,-8,-12,-11,-9,-6,-5,-5,2021-08-07 13:03:07,150320
2,-3,-1,-13,-19,-10,-7,-3,2021-08-07 13:03:07,165319
2,4,7,15,12,6,3,2,2021-08-07 13:03:07,181320
-2,0,-1,8,4,-1,-1,-1,2021-08-07 13:03:07,181320
2,1,3,-2,-5,-1,0,2,2021-08-07 13:03:07,181320
-2,-1,-2,9,15,7,3,0,2021-08-07 13:03:07,181320
-1,-2,-2,-11,-8,-2,-1,-1,2021-08-07 13:03:07,181320
0,-1,1,3,12,4,3,-1,2021-08-07 13:03:07,181320
-2,-5,-10,-12,-5,-4,-3,-2,2021-08-07 13:03:07,182319
-4,-4,-4,-15,-19,-12,-6,-6,2021-08-07 13:03:07,197319
0,2,3,21,18,7,3,0,2021-08-07 13:03:07,213319
-1,-1,-2,-6,-3,0,1,0,2021-08-07 13:03:07,229318
-1,-1,0,4,2,-1,-1,-1,2021-08-07 13:03:07,245319
0,2,1,-1,3,0,0,-1,2021-08-07 13:03:07,261318
-2,-5,-6,-7,-5,-5,-2,-2,2021-08-07 13:03:07,261318
1,4,2,4,-1,0,-1,2,2021-08-07 13:03:07,261318
0,-1,-2,-5,-4,-4,-2,-1,2021-08-07 13:03:07,261318
2,-2,-2,2,18,15,7,3,2021-08-07 13:03:07,261318
1,2,0,-6,-9,-5,-2,-1,2021-08-07 13:03:07,261318
-1,-3,-4,-2,-5,-4,-1,-1,2021-08-07 13:03:07,261318
-1,-1,2,5,6,2,-1,-2,2021-08-07 13:03:07,261318
2,2,1,-3,-9,-5,-3,0,2021-08-07 13:03:07,262320
0,-1,0,0,0,2,-1,0,2021-08-07 13:03:07,262320
-2,-3,-5,-6,-9,-6,-4,-3,2021-08-07 13:03:07,262320
0,-2,-1,3,10,5,2,0,2021-08-07 13:03:07,262320
-2,-3,-2,-1,0,-1,-1,-1,2021-08-07 13:03:07,262320
-1,-1,-2,-1,0,-1,1,0,2021-08-07 13:03:07,262320
-1,1,0,1,-4,-1,1,0,2021-08-07 13:03:07,263319
-3,-4,-4,-7,-3,-4,-4,-2,2021-08-07 13:03:07,309320
0,3,2,5,3,1,1,0,2021-08-07 13:03:07,309320
-2,-3,-4,-4,-7,-5,-4,-2,2021-08-07 13:03:07,309320
0,1,1,1,4,-1,0,0,2021-08-07 13:03:07,309320
-1,-3,-3,-7,-12,-7,-3,-3,2021-08-07 13:03:07,309320
3,5,5,15,15,12,7,3,2021-08-07 13:03:07,309320
-2,-4,-2,-1,-3,-6,-3,-3,2021-08-07 13:03:07,309320
1,-1,-4,-1,5,6,1,1,2021-08-07 13:03:07,309320
-2,1,-1,-2,-5,-2,-2,-1,2021-08-07 13:03:07,325318
-3,-3,-3,-7,-13,-12,-8,-4,2021-08-07 13:03:07,325318
-1,-1,-2,3,6,3,1,-1,2021-08-07 13:03:07,325318
0,-1,1,1,-2,-1,-2,-1,2021-08-07 13:03:07,325318
2,3,5,5,8,6,4,2,2021-08-07 13:03:07,356319
-1,-1,-3,-2,-6,-3,-2,-1,2021-08-07 13:03:07,372319
-2,-5,-4,-4,-2,-4,-2,-2,2021-08-07 13:03:07,372319
-4,-5,-5,-4,-3,-2,0,-3,2021-08-07 13:03:07,372319
7,10,9,7,11,8,7,4,2021-08-07 13:03:07,372319
-1,0,3,6,9,4,1,1,2021-08-07 13:03:07,372319
2,3,2,9,5,1,0,1,2021-08-07 13:03:07,372319
-5,-6,-10,-3,-8,-4,-4,-3,2021-08-07 13:03:07,372319
-3,-7,-9,-35,-20,-9,-7,-5,2021-08-07 13:03:07,388318
0,2,4,2,-2,0,-2,-1,2021-08-07 13:03:07,404317
2,2,1,8,11,4,1,2,2021-08-07 13:03:07,419322
-1,-2,0,-2,0,0,-1,-1,2021-08-07 13:03:07,419322
-2,-1,-2,5,-4,-4,-3,0,2021-08-07 13:03:07,419322
-1,1,1,2,-4,-2,-1,-1,2021-08-07 13:03:07,419322
0,3,3,2,-1,1,1,0,2021-08-07 13:03:07,419322
1,1,-1,-1,0,0,0,2,2021-08-07 13:03:07,419322
-7,-9,-10,-17,-7,-5,-4,-6,2021-08-07 13:03:07,435320
0,0,3,-2,-4,-2,-2,0,2021-08-07 13:03:07,435320
-5,-7,-10,-3,-6,-5,-3,-4,2021-08-07 13:03:07,435320
8,13,16,12,6,5,5,8,2021-08-07 13:03:07,435320
0,-1,-1,4,-1,-1,0,1,2021-08-07 13:03:07,435320
0,-1,0,6,13,5,1,0,2021-08-07 13:03:07,435320
1,3,2,3,8,4,0,1,2021-08-07 13:03:07,451319
-2,-4,-2,-5,-9,-7,-5,-2,2021-08-07 13:03:07,467320
1,4,2,9,5,2,2,1,2021-08-07 13:03:07,467320
-2,-5,-8,-10,-10,-7,-2,-2,2021-08-07 13:03:07,467320
0,1,0,-10,5,5,2,3,2021-08-07 13:03:07,483319
1,1,2,10,12,4,1,-1,2021-08-07 13:03:07,483319
0,2,3,8,3,2,1,0,2021-08-07 13:03:07,483319
-5,-5,-6,-8,-10,-6,-3,-3,2021-08-07 13:03:07,483319
-2,-3,0,-7,-5,-3,-2,-1,2021-08-07 13:03:07,483319
-3,-2,0,-2,-5,-4,-2,-3,2021-08-07 13:03:07,483319
1,2,3,5,10,3,2,1,2021-08-07 13:03:07,499319
0,-1,-4,0,-2,2,1,0,2021-08-07 13:03:07,515319
3,3,2,4,-2,1,2,2,2021-08-07 13:03:07,515319
-4,-4,-7,-13,-8,-5,-4,-4,2021-08-07 13:03:07,531320
1,1,1,6,14,9,4,1,2021-08-07 13:03:07,547320
-2,-3,-3,-6,-11,-10,-5,-3,2021-08-07 13:03:07,563319
-3,-3,-2,4,2,1,-3,-1,2021-08-07 13:03:07,564319
4,5,3,13,22,16,7,3,2021-08-07 13:03:07,564319
-4,-4,-5,-20,-18,-11,-7,-3,2021-08-07 13:03:07,564319
1,0,1,1,1,1,-1,1,2021-08-07 13:03:07,564319
-2,0,-3,-1,-9,-6,-3,-2,2021-08-07 13:03:07,564319
-2,-3,-1,-7,-4,-1,-2,-2,2021-08-07 13:03:07,565320
-2,-2,-2,2,-7,-4,-3,-1,2021-08-07 13:03:07,565320
2,1,3,9,17,10,5,2,2021-08-07 13:03:07,565320
0,0,1,-3,-9,-5,-5,-3,2021-08-07 13:03:07,565320
-5,-5,-6,-16,-18,-8,-2,-3,2021-08-07 13:03:07,565320
-1,-2,0,8,14,6,0,-1,2021-08-07 13:03:07,595318
-3,-4,-7,-8,-12,-7,-5,-3,2021-08-07 13:03:07,595318
-1,1,-2,5,1,2,2,0,2021-08-07 13:03:07,595318
0,-1,-2,-9,-10,-6,-3,-2,2021-08-07 13:03:07,595318
1,2,2,-1,3,3,1,1,2021-08-07 13:03:07,627319
-2,-2,-1,-6,-10,-5,-2,-1,2021-08-07 13:03:07,642319
1,-1,4,8,24,13,4,0,2021-08-07 13:03:07,658318
-1,-1,-6,0,-3,-4,-3,-2,2021-08-07 13:03:07,658318
-4,-5,-5,-6,-13,-6,-4,-3,2021-08-07 13:03:07,658318
2,4,4,7,7,6,6,2,2021-08-07 13:03:07,658318
-2,-5,-5,-6,-9,-7,-3,-1,2021-08-07 13:03:07,659320
-2,0,3,3,4,2,0,0,2021-08-07 13:03:07,659320
3,1,3,3,0,1,0,1,2021-08-07 13:03:07,659320
1,4,4,11,12,6,3,2,2021-08-07 13:03:07,659320
-3,-2,-4,-16,-11,-4,-2,-3,2021-08-07 13:03:07,659320
-4,-5,-3,-3,-3,-4,-3,-4,2021-08-07 13:03:07,659320
-3,-4,-6,-12,-15,-8,-4,-4,2021-08-07 13:03:07,674319
1,3,4,16,14,7,2,0,2021-08-07 13:03:07,674319
3,4,3,10,3,1,1,2,2021-08-07 13:03:07,690319
-2,-4,-5,-13,-18,-5,-3,-3,2021-08-07 13:03:07,706319
-3,-4,-5,-4,11,4,0,0,2021-08-07 13:03:07,722324
0,2,-1,-14,-15,-7,-4,0,2021-08-07 13:03:07,738319
0,1,2,7,17,12,3,0,2021-08-07 13:03:07,754318
-1,2,2,8,0,-5,-3,0,2021-08-07 13:03:07,754318
-2,-2,-1,5,-2,-2,-2,-1,2021-08-07 13:03:07,754318
-1,1,-1,3,12,7,4,1,2021-08-07 13:03:07,754318
0,2,0,-2,-9,-3,1,1,2021-08-07 13:03:07,754318
-1,1,0,-6,-3,-2,-2,0,2021-08-07 13:03:07,754318
-2,-2,1,5,1,0,0,-3,2021-08-07 13:03:07,754318
-3,-2,-6,-17,-16,-9,-5,-2,2021-08-07 13:03:07,755319
-4,-6,-1,2,-2,-1,-1,-2,2021-08-07 13:03:07,770318
0,0,-2,7,4,4,1,0,2021-08-07 13:03:07,770318
0,1,1,-10,-4,-1,0,2,2021-08-07 13:03:07,770318
0,1,1,-1,-4,-4,-3,-2,2021-08-07 13:03:07,770318
2,2,1,2,5,2,2,2,2021-08-07 13:03:07,770318
-2,-1,-2,-6,-3,0,-1,-3,2021-08-07 13:03:07,770318
-1,-1,1,10,13,5,2,2,2021-08-07 13:03:07,771319
-3,-6,-6,-6,-8,-3,-3,-4,2021-08-07 13:03:07,771319
2,3,1,-8,-11,-8,-3,0,2021-08-07 13:03:07,771319
-1,-3,0,3,-4,-7,-3,-1,2021-08-07 13:03:07,786318
1,4,4,16,18,12,5,2,2021-08-07 13:03:07,786318
-1,-3,-4,-13,-11,-4,-3,-1,2021-08-07 13:03:07,786318
-4,-5,-4,-6,-2,-1,-2,-4,2021-08-07 13:03:07,786318
-1,0,1,3,2,1,0,0,2021-08-07 13:03:07,786318
-2,-2,-2,-5,-15,-8,-4,-3,2021-08-07 13:03:07,802319
-1,-2,0,6,7,1,0,0,2021-08-07 13:03:07,802319
0,0,-2,-4,-14,-6,0,0,2021-08-07 13:03:07,818320
0,-3,1,4,12,7,2,-1,2021-08-07 13:03:07,818320
1,1,0,-6,4,1,2,2,2021-08-07 13:03:07,818320
1,1,-1,11,5,0,-1,-1,2021-08-07 13:03:07,818320
-4,-5,-7,-7,-9,-7,-4,-4,2021-08-07 13:03:07,834321
-1,-1,-2,-20,-9,-5,-3,-1,2021-08-07 13:03:07,834321
-2,-1,-3,0,-7,-5,-3,-1,2021-08-07 13:03:07,850319
4,3,5,3,5,2,4,1,2021-08-07 13:03:07,866319
2,3,4,10,15,7,2,1,2021-08-07 13:03:07,866319
-1,-1,0,8,0,-2,-2,0,2021-08-07 13:03:07,866319
-6,-7,-7,-7,-15,-4,-4,-6,2021-08-07 13:03:07,866319
2,3,2,10,15,9,4,3,2021-08-07 13:03:07,866319
1,0,1,-4,-4,-2,0,-1,2021-08-07 13:03:07,866319
1,2,1,1,-2,-3,-1,-1,2021-08-07 13:03:07,866319
1,2,0,-1,0,-1,-2,0,2021-08-07 13:03:07,897320
-5,-9,-7,-10,-15,-7,-7,-5,2021-08-07 13:03:07,897320
-2,-6,-5,-13,-12,-7,-5,-2,2021-08-07 13:03:07,897320
2,0,-2,1,11,8,4,1,2021-08-07 13:03:07,897320
0,1,-1,0,-6,-3,0,-2,2021-08-07 13:03:07,913319
1,-2,-1,5,14,8,3,1,2021-08-07 13:03:07,913319
0,4,5,3,-1,-2,-2,0,2021-08-07 13:03:07,913319
0,0,0,1,-3,-4,0,-1,2021-08-07 13:03:07,913319
0,-3,-5,-3,-6,-5,-3,-4,2021-08-07 13:03:07,929318
5,6,6,5,2,5,5,3,2021-08-07 13:03:07,945319
-1,-4,-4,-5,-9,-5,-2,-2,2021-08-07 13:03:07,961319
-1,-2,0,4,0,1,2,0,2021-08-07 13:03:07,961319
0,0,3,13,15,8,2,0,2021-08-07 13:03:07,961319
-4,-2,-1,1,-9,-9,-4,-4,2021-08-07 13:03:07,961319
-1,-1,-2,-9,-7,-2,-2,-1,2021-08-07 13:03:07,961319
-5,-6,-8,-17,-18,-10,-7,-4,2021-08-07 13:03:07,961319
-3,-6,-8,-13,-22,-14,-7,-4,2021-08-07 13:03:07,961319
5,5,6,-1,24,21,9,5,2021-08-07 13:03:07,962324
6,10,11,25,22,9,7,4,2021-08-07 13:03:07,962324
1,-2,-4,4,2,-1,-1,-1,2021-08-07 13:03:07,962324
-2,0,0,2,11,4,3,0,2021-08-07 13:03:07,991319
-6,-9,-7,-18,-23,-14,-8,-5,2021-08-07 13:03:07,992320
-3,-6,-3,-4,-2,1,-3,-2,2021-08-07 13:03:07,992320
-2,-1,-5,-2,-3,-3,-2,-3,2021-08-07 13:03:07,992320
2,4,6,13,10,5,3,4,2021-08-07 13:03:08,009319
-1,0,-5,-5,-9,-7,-3,-1,2021-08-07 13:03:08,009319
-3,-4,-4,-6,-6,-4,-3,-2,2021-08-07 13:03:08,009319
-3,-5,-3,-12,-4,2,0,-2,2021-08-07 13:03:08,009319
1,-1,1,7,13,5,3,1,2021-08-07 13:03:08,040318
0,2,4,7,5,5,3,0,2021-08-07 13:03:08,056320
2,4,0,2,-5,-2,1,2,2021-08-07 13:03:08,072321
-1,-2,-1,-10,-3,-3,-2,-1,2021-08-07 13:03:08,072321
0,0,0,7,5,3,1,0,2021-08-07 13:03:08,072321
-1,3,4,-4,-5,-4,-4,-1,2021-08-07 13:03:08,072321
1,2,0,6,11,7,3,2,2021-08-07 13:03:08,072321
-1,-2,-1,-4,-12,-10,-6,-3,2021-08-07 13:03:08,072321
-1,-1,3,-7,-4,-1,0,-2,2021-08-07 13:03:08,073319
-1,-1,-6,-1,-2,-4,-2,-2,2021-08-07 13:03:08,073319
-3,-2,-4,-2,0,0,-3,-1,2021-08-07 13:03:08,073319
0,-3,-2,-9,-6,1,1,0,2021-08-07 13:03:08,073319
-2,-4,-3,-9,1,-2,-3,-4,2021-08-07 13:03:08,088318
2,0,3,-2,-7,-2,-2,2,2021-08-07 13:03:08,104319
-3,-1,-2,3,14,6,0,-3,2021-08-07 13:03:08,120320
0,1,4,14,6,1,2,-1,2021-08-07 13:03:08,120320
-4,-2,-3,-10,-20,-12,-7,-4,2021-08-07 13:03:08,120320
-2,-1,-7,-5,-10,-6,-3,0,2021-08-07 13:03:08,120320
6,5,8,15,15,11,5,4,2021-08-07 13:03:08,120320
-2,1,-1,8,11,6,3,0,2021-08-07 13:03:08,120320
1,0,2,-2,-6,-2,-1,-1,2021-08-07 13:03:08,121322
-3,-2,-2,1,-2,-6,-1,-2,2021-08-07 13:03:08,121322
-4,-4,-6,-21,-15,-8,-4,-3,2021-08-07 13:03:08,121322
-3,-4,-2,3,6,1,-1,-2,2021-08-07 13:03:08,121322
3,4,1,4,13,9,4,4,2021-08-07 13:03:08,166318
-2,-1,0,-2,-2,-3,-3,-1,2021-08-07 13:03:08,182319
2,2,4,9,1,2,2,1,2021-08-07 13:03:08,182319
-1,-1,-2,6,14,9,3,1,2021-08-07 13:03:08,198319
-3,-2,-5,-16,-15,-8,-4,-3,2021-08-07 13:03:08,214318
-5,-10,-10,-19,-19,-9,-6,-5,2021-08-07 13:03:08,245319
5,7,11,17,20,11,6,4,2021-08-07 13:03:08,261318
-2,-1,-3,-4,-7,-5,-4,-1,2021-08-07 13:03:08,261318
-2,-2,-1,2,-7,-6,-4,-2,2021-08-07 13:03:08,261318
-1,0,1,-1,-1,0,0,0,2021-08-07 13:03:08,261318
-1,-1,-2,3,6,3,1,-1,2021-08-07 13:03:08,277318
2,4,4,7,4,2,2,3,2021-08-07 13:03:08,277318
0,1,-1,0,0,3,1,0,2021-08-07 13:03:08,277318
-1,-3,-3,-8,-7,-4,-3,-4,2021-08-07 13:03:08,277318
-3,-5,-6,-10,-14,-10,-5,-4,2021-08-07 13:03:08,277318
-1,-1,1,3,2,2,0,-1,2021-08-07 13:03:08,277318
-3,-3,0,-12,-13,-8,-2,-2,2021-08-07 13:03:08,277318
4,6,2,19,18,13,5,3,2021-08-07 13:03:08,278319
-4,-6,-6,-22,-4,-4,-4,-4,2021-08-07 13:03:08,278319
0,0,1,-1,-6,-5,-3,-2,2021-08-07 13:03:08,278319
-4,-4,-6,-4,-6,-6,-3,-3,2021-08-07 13:03:08,278319
-1,0,4,7,4,5,1,-2,2021-08-07 13:03:08,278319
0,-2,-2,2,0,0,-1,0,2021-08-07 13:03:08,278319
1,1,1,-1,2,1,-1,0,2021-08-07 13:03:08,278319
2,3,6,12,11,4,2,1,2021-08-07 13:03:08,278319
0,1,0,4,0,0,0,1,2021-08-07 13:03:08,279321
-6,-7,-11,-20,-6,-5,-1,-5,2021-08-07 13:03:08,279321
-1,-1,2,-1,2,0,-1,-1,2021-08-07 13:03:08,279321
0,1,-1,-5,-15,-10,-6,-1,2021-08-07 13:03:08,292319
4,2,4,12,29,17,9,4,2021-08-07 13:03:08,292319
-1,-1,1,1,-7,-4,-4,-2,2021-08-07 13:03:08,292319
-2,-3,-2,-4,-4,-3,0,-1,2021-08-07 13:03:08,292319
1,2,0,5,4,2,2,1,2021-08-07 13:03:08,308320
-4,-4,-3,-7,-12,-8,-4,-3,2021-08-07 13:03:08,308320
-3,-4,-4,-8,-10,-6,-3,-2,2021-08-07 13:03:08,324320
0,-1,-1,3,2,-2,0,-1,2021-08-07 13:03:08,324320
-3,-2,-5,-2,0,2,-1,-3,2021-08-07 13:03:08,339320
-1,-2,-4,-13,-5,-3,-3,-3,2021-08-07 13:03:08,355319
2,0,5,14,3,1,1,0,2021-08-07 13:03:08,355319
1,0,1,-12,-10,-2,-2,-2,2021-08-07 13:03:08,355319
-5,-6,-6,-4,-3,-3,-3,-1,2021-08-07 13:03:08,355319
2,4,4,13,20,12,4,3,2021-08-07 13:03:08,355319
4,8,5,12,7,-1,1,4,2021-08-07 13:03:08,355319
-2,-1,0,11,-4,-4,-2,-2,2021-08-07 13:03:08,356319
0,-2,-6,-19,-2,0,0,-1,2021-08-07 13:03:08,370318
-4,-8,-8,-14,-16,-8,-6,-6,2021-08-07 13:03:08,386318
0,2,1,3,-4,0,1,0,2021-08-07 13:03:08,402320
0,4,5,6,14,7,3,2,2021-08-07 13:03:08,402320
1,1,3,13,8,2,1,1,2021-08-07 13:03:08,402320
1,4,3,10,13,8,3,3,2021-08-07 13:03:08,402320
-3,-5,-6,-8,-14,-7,-3,-3,2021-08-07 13:03:08,402320
-3,-6,-6,-12,-9,-5,-3,-4,2021-08-07 13:03:08,402320
1,1,1,-3,3,4,1,-1,2021-08-07 13:03:08,403320
0,-1,1,4,3,-2,-2,0,2021-08-07 13:03:08,403320
2,3,4,5,0,3,2,0,2021-08-07 13:03:08,416317
1,3,-1,6,6,3,2,1,2021-08-07 13:03:08,416317
0,1,-2,-3,-3,1,0,2,2021-08-07 13:03:08,434321
-4,-7,-9,-19,-22,-14,-7,-4,2021-08-07 13:03:08,450318
-2,-2,-3,-10,-7,-3,-2,-1,2021-08-07 13:03:08,450318
-2,0,1,1,-1,-5,0,0,2021-08-07 13:03:08,450318
-3,-4,-4,1,-6,-6,-3,-5,2021-08-07 13:03:08,466328
4,7,8,6,10,7,5,5,2021-08-07 13:03:08,466328
2,-2,1,15,18,7,4,1,2021-08-07 13:03:08,466328
5,5,5,6,12,8,4,3,2021-08-07 13:03:08,466328
-2,-3,-4,-5,-1,1,-4,-4,2021-08-07 13:03:08,466328
-3,-1,-3,-8,-15,-9,-4,-3,2021-08-07 13:03:08,467319
-3,-3,-3,-14,-21,-12,-6,-3,2021-08-07 13:03:08,498318
0,-1,-1,2,13,6,2,2,2021-08-07 13:03:08,498318
1,2,0,15,7,3,1,2,2021-08-07 13:03:08,498318
0,-3,-4,-6,-6,-4,-3,-1,2021-08-07 13:03:08,498318
-3,1,0,-7,3,2,-1,-1,2021-08-07 13:03:08,498318
-4,-5,-6,-11,-21,-12,-7,-5,2021-08-07 13:03:08,498318
0,0,1,-5,2,2,2,0,2021-08-07 13:03:08,514318
-3,-2,1,8,-2,-2,0,-3,2021-08-07 13:03:08,514318
3,2,1,14,19,8,2,2,2021-08-07 13:03:08,514318
-1,-2,-4,-7,-3,-2,-1,-3,2021-08-07 13:03:08,514318
-4,-1,-2,-8,-13,-8,-6,-1,2021-08-07 13:03:08,530318
-2,-2,-2,-4,-9,-3,-2,-3,2021-08-07 13:03:08,530318
1,1,2,6,10,7,3,3,2021-08-07 13:03:08,530318
1,3,5,8,3,-1,-1,0,2021-08-07 13:03:08,530318
1,1,0,1,-4,-3,0,-1,2021-08-07 13:03:08,546319
-4,-8,-14,-35,-19,-6,-5,-4,2021-08-07 13:03:08,562319
-3,-5,-5,-5,0,-3,-2,-2,2021-08-07 13:03:08,578319
3,5,3,8,13,9,3,3,2021-08-07 13:03:08,578319
0,1,2,8,2,-1,0,-1,2021-08-07 13:03:08,578319
2,6,8,17,9,2,3,1,2021-08-07 13:03:08,578319
-1,-3,-3,-10,-10,-6,-3,-2,2021-08-07 13:03:08,578319
-2,-4,-3,-10,-7,-3,-3,-1,2021-08-07 13:03:08,578319
0,-3,-3,-4,-1,-3,-3,-1,2021-08-07 13:03:08,593834
-1,-3,-1,-4,-7,-3,-2,-1,2021-08-07 13:03:08,609348
-4,-4,-4,-7,-14,-8,-4,-3,2021-08-07 13:03:08,625347
-5,-2,-4,-9,-9,-2,-3,-4,2021-08-07 13:03:08,625347
5,9,7,9,18,14,8,5,2021-08-07 13:03:08,625347
-2,-2,1,4,4,0,-1,-2,2021-08-07 13:03:08,625347
1,0,-3,8,-1,0,0,0,2021-08-07 13:03:08,625347
-3,-5,-6,-5,-7,-3,-3,-1,2021-08-07 13:03:08,625347
2,1,4,8,3,1,1,2,2021-08-07 13:03:08,626348
3,6,7,13,17,9,4,4,2021-08-07 13:03:08,626348
-3,-5,-6,-25,-15,-8,-4,-4,2021-08-07 13:03:08,626348
-3,-5,-11,-8,-20,-11,-6,-5,2021-08-07 13:03:08,626348
-1,-2,-2,-2,5,3,1,-1,2021-08-07 13:03:08,657385
2,3,5,11,9,2,2,2,2021-08-07 13:03:08,657385
1,1,4,9,4,1,1,0,2021-08-07 13:03:08,657385
-3,-4,-5,-6,-6,-4,-2,0,2021-08-07 13:03:08,657385
-3,-5,-2,-8,-10,-9,-4,-3,2021-08-07 13:03:08,673346
0,1,-2,-4,-5,0,2,1,2021-08-07 13:03:08,673346
2,1,0,7,14,9,5,3,2021-08-07 13:03:08,673346
5,4,6,12,10,6,3,2,2021-08-07 13:03:08,673346
-2,-1,-5,1,-2,-3,-2,-2,2021-08-07 13:03:08,689399
1,-2,-2,-7,0,2,1,1,2021-08-07 13:03:08,689399
-4,-7,-7,-16,-20,-12,-7,-5,2021-08-07 13:03:08,689399
-6,-5,-3,-2,-8,-7,-5,-3,2021-08-07 13:03:08,689399
1,0,3,-2,7,6,1,0,2021-08-07 13:03:08,721349
1,2,3,9,6,0,0,0,2021-08-07 13:03:08,737348
5,9,10,20,16,12,7,4,2021-08-07 13:03:08,737348
-2,-4,-5,-7,1,-2,-3,-3,2021-08-07 13:03:08,737348
-3,-5,-6,-14,-11,-6,-2,-3,2021-08-07 13:03:08,737348
-3,-4,-5,-5,-1,-1,-2,-2,2021-08-07 13:03:08,737348
0,1,2,7,15,6,2,-1,2021-08-07 13:03:08,737348
0,-1,0,4,-4,-2,-1,0,2021-08-07 13:03:08,738348
0,2,1,6,-5,-2,-2,1,2021-08-07 13:03:08,753348
-3,-5,-6,-14,-13,-5,-4,-3,2021-08-07 13:03:08,769348
4,8,7,1,-3,0,2,3,2021-08-07 13:03:08,769348
-1,-4,-2,2,6,3,1,-1,2021-08-07 13:03:08,769348
-1,-1,0,-2,-2,-2,-1,1,2021-08-07 13:03:08,769348
1,2,0,7,6,4,2,0,2021-08-07 13:03:08,769348
-7,-8,-9,-13,-27,-21,-12,-6,2021-08-07 13:03:08,769348
2,-2,-1,5,8,12,6,1,2021-08-07 13:03:08,769348
1,7,8,11,16,6,2,4,2021-08-07 13:03:08,801572
4,6,5,9,13,6,5,3,2021-08-07 13:03:08,801572
-3,-6,-9,-24,-13,-3,-3,-3,2021-08-07 13:03:08,801572
-3,-3,-5,-12,-14,-12,-3,-3,2021-08-07 13:03:08,801572
-3,-4,-3,-6,-10,-5,-3,-4,2021-08-07 13:03:08,801572
1,-2,1,10,4,-1,-1,-1,2021-08-07 13:03:08,802348
-4,-3,-1,2,-10,-6,-3,-4,2021-08-07 13:03:08,832863
-1,0,4,-2,18,10,2,-1,2021-08-07 13:03:08,840861
-2,-4,-5,-1,-2,-1,-1,-2,2021-08-07 13:03:08,840861
2,6,9,11,13,6,2,1,2021-08-07 13:03:08,841864
-1,2,5,7,6,3,1,-2,2021-08-07 13:03:08,841864
