EMG 1,EMG 2,EMG 3,EMG 4,EMG 5,EMG 6,EMG 7,EMG 8,Timestamp,Milliseconds
2,1,1,1,1,1,0,1,2021-08-07 12:55:06,596332
0,0,-1,2,2,1,1,0,2021-08-07 12:55:06,596332
-2,-3,-3,-4,-5,-5,-5,-3,2021-08-07 12:55:06,596332
2,1,1,2,4,3,2,1,2021-08-07 12:55:06,596332
-1,0,-1,-2,-2,1,0,-1,2021-08-07 12:55:06,596332
1,0,1,3,3,1,1,-1,2021-08-07 12:55:06,596332
0,-1,-2,-3,-2,-2,-1,-2,2021-08-07 12:55:06,596332
-1,-4,-1,0,5,1,-1,-2,2021-08-07 12:55:06,596332
1,1,0,-5,-6,-2,1,1,2021-08-07 12:55:06,596332
1,0,1,2,3,1,0,1,2021-08-07 12:55:06,596332
-2,-1,-1,-2,-3,-2,-2,0,2021-08-07 12:55:06,628332
-4,-3,-5,-9,-10,-5,-3,-2,2021-08-07 12:55:06,628332
-2,1,2,3,-1,-2,-1,-1,2021-08-07 12:55:06,628332
1,1,1,4,8,7,4,1,2021-08-07 12:55:06,628332
1,1,1,3,5,3,2,1,2021-08-07 12:55:06,644332
-3,-5,-6,-4,-2,-4,-4,-3,2021-08-07 12:55:06,644332
-1,-2,-1,-2,-5,-5,-4,-3,2021-08-07 12:55:06,644332
-2,-1,-3,-7,-8,-4,-3,-3,2021-08-07 12:55:06,644332
-1,0,1,-2,-5,-3,-3,-3,2021-08-07 12:55:06,660332
1,0,2,4,10,7,4,0,2021-08-07 12:55:06,660332
0,-3,-4,0,1,0,0,-1,2021-08-07 12:55:06,676330
3,3,3,3,0,-1,0,1,2021-08-07 12:55:06,692333
-3,-5,-4,-7,-11,-6,-4,-3,2021-08-07 12:55:06,708334
-1,-1,-1,4,7,3,1,-1,2021-08-07 12:55:06,708334
2,2,4,3,6,7,4,2,2021-08-07 12:55:06,708334
-1,-2,-1,0,0,-1,-1,-1,2021-08-07 12:55:06,708334
-1,-1,-1,0,-3,-3,-3,0,2021-08-07 12:55:06,708334
-2,-2,-4,-5,-5,-3,-2,-4,2021-08-07 12:55:06,709333
-1,-2,-2,-5,-11,-7,-4,-4,2021-08-07 12:55:06,709333
0,0,-1,2,7,2,0,0,2021-08-07 12:55:06,709333
0,0,-1,-3,-1,-1,-2,-2,2021-08-07 12:55:06,740332
0,4,4,4,6,5,2,1,2021-08-07 12:55:06,756330
-1,0,0,-1,1,0,0,0,2021-08-07 12:55:06,756330
-3,-3,-2,-3,-8,-5,-2,0,2021-08-07 12:55:06,756330
-4,-5,-5,-7,-10,-6,-4,-3,2021-08-07 12:55:06,756330
0,0,-3,-5,-3,-1,-1,1,2021-08-07 12:55:06,756330
2,3,2,6,10,6,5,2,2021-08-07 12:55:06,756330
-2,-1,-2,-4,-2,-1,-2,-1,2021-08-07 12:55:06,757333
0,2,2,3,7,4,2,-1,2021-08-07 12:55:06,772330
-1,-2,-2,-3,-9,-6,-2,-2,2021-08-07 12:55:06,772330
-2,-2,-3,-3,-3,-3,-3,-2,2021-08-07 12:55:06,772330
-2,-4,-3,-5,-5,-5,-3,-3,2021-08-07 12:55:06,772330
-1,-1,-1,1,3,0,1,-1,2021-08-07 12:55:06,804332
-1,-4,-2,-6,-7,-4,-2,-1,2021-08-07 12:55:06,804332
-1,2,1,6,9,5,1,1,2021-08-07 12:55:06,804332
1,1,1,2,-1,1,0,0,2021-08-07 12:55:06,804332
0,-1,2,2,4,1,-1,1,2021-08-07 12:55:06,820333
1,-3,0,-4,-5,-5,0,0,2021-08-07 12:55:06,820333
-2,-1,-1,-6,-9,-4,0,0,2021-08-07 12:55:06,820333
1,0,1,2,8,8,4,0,2021-08-07 12:55:06,820333
-6,-1,-4,-1,0,-4,-8,-7,2021-08-07 12:55:06,820333
-1,0,-1,-4,-6,-4,-2,-2,2021-08-07 12:55:06,820333
0,0,2,8,9,5,1,1,2021-08-07 12:55:06,852336
0,0,0,0,-5,0,5,3,2021-08-07 12:55:06,852336
3,1,3,5,14,13,7,3,2021-08-07 12:55:06,852336
-1,1,1,4,4,-2,-7,-3,2021-08-07 12:55:06,852336
-5,-6,-8,-9,-12,-8,-9,-5,2021-08-07 12:55:06,852336
-1,0,-1,-3,-7,-6,-4,-4,2021-08-07 12:55:06,852336
-2,-1,0,0,-4,-2,2,1,2021-08-07 12:55:06,853333
1,1,1,5,5,4,2,3,2021-08-07 12:55:06,853333
0,-1,-1,-2,-1,-1,0,0,2021-08-07 12:55:06,883371
-2,-4,-3,-4,-2,-1,-2,-2,2021-08-07 12:55:06,883371
1,0,-1,-2,-4,-1,1,0,2021-08-07 12:55:06,883371
0,-3,-3,0,2,0,0,-1,2021-08-07 12:55:06,883371
-2,-1,-2,-1,-2,-3,-2,-3,2021-08-07 12:55:06,899373
2,3,1,5,7,6,1,1,2021-08-07 12:55:06,915373
0,1,2,-1,-1,-3,0,1,2021-08-07 12:55:06,915373
-1,-1,-1,6,3,3,0,-2,2021-08-07 12:55:06,915373
2,0,0,-1,-2,-1,1,0,2021-08-07 12:55:06,915373
-2,-2,-4,-3,-4,-3,-4,-3,2021-08-07 12:55:06,915373
0,0,-1,2,1,0,0,0,2021-08-07 12:55:06,915373
0,1,1,-1,-2,1,0,0,2021-08-07 12:55:06,915373
-2,-1,-2,-3,-6,-4,-2,-3,2021-08-07 12:55:06,947372
-1,-2,-3,-2,-5,-4,-4,-1,2021-08-07 12:55:06,963371
-1,-2,-2,-2,-3,-1,0,0,2021-08-07 12:55:06,963371
-1,1,2,5,11,6,5,0,2021-08-07 12:55:06,979372
-1,-3,-1,-1,0,0,0,0,2021-08-07 12:55:06,979372
0,0,-1,-2,-1,-3,-2,-1,2021-08-07 12:55:06,979372
-3,-1,-3,-4,-9,-5,-4,-3,2021-08-07 12:55:06,979372
-2,-2,-3,-4,-4,-1,-3,-2,2021-08-07 12:55:06,979372
2,4,3,-2,-3,2,2,2,2021-08-07 12:55:06,979372
-1,-2,0,0,-2,-5,-3,-3,2021-08-07 12:55:06,979372
1,-1,-3,-2,-9,-5,-2,-2,2021-08-07 12:55:06,980371
0,-1,2,3,9,6,3,0,2021-08-07 12:55:06,980371
-4,-5,-5,-2,-5,-8,-5,-3,2021-08-07 12:55:07,011372
1,1,3,5,13,9,5,2,2021-08-07 12:55:07,011372
0,0,0,-2,0,-1,-1,0,2021-08-07 12:55:07,011372
0,2,0,-1,-4,-1,1,0,2021-08-07 12:55:07,011372
-1,-2,-2,-2,-4,-3,-2,-1,2021-08-07 12:55:07,011372
-2,-1,-3,-4,-5,-5,-4,-1,2021-08-07 12:55:07,026373
-1,0,-2,-5,-8,-4,-1,-2,2021-08-07 12:55:07,026373
-1,0,-1,3,7,5,1,2,2021-08-07 12:55:07,026373
-1,-2,0,0,2,0,0,-1,2021-08-07 12:55:07,041370
-2,-2,-1,0,2,2,2,-1,2021-08-07 12:55:07,041370
-1,-2,-2,0,1,1,-1,-1,2021-08-07 12:55:07,041370
2,3,2,0,-4,-3,1,0,2021-08-07 12:55:07,041370
-2,0,-1,1,0,-1,-1,0,2021-08-07 12:55:07,073372
-1,-2,0,-2,-3,-2,-3,-2,2021-08-07 12:55:07,073372
-1,0,0,-1,0,0,0,-1,2021-08-07 12:55:07,073372
-2,-4,-3,-7,-12,-7,-4,-2,2021-08-07 12:55:07,073372
0,-2,-2,1,4,2,-1,0,2021-08-07 12:55:07,073372
-1,1,1,-1,-1,0,1,0,2021-08-07 12:55:07,074373
1,1,1,4,9,6,1,1,2021-08-07 12:55:07,089609
-1,-1,-2,-1,0,-1,-2,-3,2021-08-07 12:55:07,089609
-1,-2,-1,-1,-2,-2,-1,-2,2021-08-07 12:55:07,104894
-3,-2,-3,-3,-9,-6,-3,-1,2021-08-07 12:55:07,120892
-1,-2,-3,-7,-13,-9,-5,-2,2021-08-07 12:55:07,120892
2,3,4,9,15,11,6,3,2021-08-07 12:55:07,120892
-2,-2,-1,2,6,3,0,-1,2021-08-07 12:55:07,120892
0,-1,1,-1,-2,0,0,0,2021-08-07 12:55:07,120892
0,0,0,3,6,1,2,0,2021-08-07 12:55:07,120892
-2,-5,-6,-12,-21,-15,-7,-3,2021-08-07 12:55:07,120892
1,1,2,7,14,10,3,-1,2021-08-07 12:55:07,136893
1,1,-1,1,6,1,1,-2,2021-08-07 12:55:07,136893
-2,-2,-2,-2,-5,-2,-3,-1,2021-08-07 12:55:07,136893
-4,-4,-5,-9,-15,-10,-6,-4,2021-08-07 12:55:07,136893
2,4,1,1,2,3,1,1,2021-08-07 12:55:07,167893
0,0,-1,2,4,4,3,2,2021-08-07 12:55:07,183893
-1,-1,-1,2,2,1,1,0,2021-08-07 12:55:07,199893
-1,-1,-2,-1,2,-2,-1,-1,2021-08-07 12:55:07,199893
-2,-1,-1,-5,-7,-4,-3,-2,2021-08-07 12:55:07,199893
0,1,-1,-4,-5,-2,-3,0,2021-08-07 12:55:07,199893
-1,0,0,-2,-9,-4,-3,0,2021-08-07 12:55:07,199893
0,-2,1,4,7,2,1,1,2021-08-07 12:55:07,200892
-1,1,-1,0,3,1,-1,0,2021-08-07 12:55:07,200892
-1,-1,-2,2,-1,-1,0,0,2021-08-07 12:55:07,200892
1,2,0,-1,0,-1,-1,-1,2021-08-07 12:55:07,200892
-2,0,-1,-1,-5,-1,1,0,2021-08-07 12:55:07,200892
1,0,0,0,-1,0,0,0,2021-08-07 12:55:07,230892
-1,-1,0,1,4,4,0,-1,2021-08-07 12:55:07,230892
0,0,-2,-1,-2,-1,0,0,2021-08-07 12:55:07,230892
1,2,1,4,6,4,3,2,2021-08-07 12:55:07,230892
-1,-4,-5,-7,-9,-5,0,1,2021-08-07 12:55:07,246893
-4,-3,-1,2,4,3,-1,-2,2021-08-07 12:55:07,260893
-3,-2,-1,3,3,0,0,-1,2021-08-07 12:55:07,260893
-3,-3,-1,-2,-3,-5,-5,-6,2021-08-07 12:55:07,278892
-1,0,1,-2,-1,0,-2,-1,2021-08-07 12:55:07,294895
-3,-1,0,-5,-11,-9,-5,-2,2021-08-07 12:55:07,294895
1,2,1,0,5,4,2,0,2021-08-07 12:55:07,309892
1,3,2,2,5,2,1,1,2021-08-07 12:55:07,309892
0,0,-4,-4,-9,-8,-4,-2,2021-08-07 12:55:07,309892
0,-3,-4,-5,-5,-4,-1,-1,2021-08-07 12:55:07,309892
-1,0,2,6,10,7,4,1,2021-08-07 12:55:07,309892
0,0,1,-1,1,1,0,0,2021-08-07 12:55:07,309892
-1,-3,-1,-3,-8,-6,-3,-2,2021-08-07 12:55:07,310894
-1,-2,-2,1,1,0,-1,0,2021-08-07 12:55:07,310894
1,1,0,1,7,5,4,0,2021-08-07 12:55:07,310894
-1,0,-1,1,2,0,-1,0,2021-08-07 12:55:07,310894
-1,-1,-1,0,2,1,-1,0,2021-08-07 12:55:07,325892
-2,0,0,-3,-3,-2,-2,-2,2021-08-07 12:55:07,325892
-1,-3,-1,-1,-3,-3,-3,-2,2021-08-07 12:55:07,325892
-2,-1,-2,-1,-2,-2,-3,-2,2021-08-07 12:55:07,325892
0,1,-1,-3,1,2,-1,-1,2021-08-07 12:55:07,341893
1,0,0,2,3,-1,1,-2,2021-08-07 12:55:07,341893
-2,-2,0,-1,-1,-1,-1,1,2021-08-07 12:55:07,357896
-2,0,-2,-1,0,1,-1,0,2021-08-07 12:55:07,357896
-1,-1,-2,-4,-5,-4,-2,0,2021-08-07 12:55:07,357896
-1,0,0,1,1,-1,-1,-1,2021-08-07 12:55:07,357896
-2,-1,-3,-4,-3,-3,-1,-2,2021-08-07 12:55:07,357896
1,-1,2,2,3,2,2,0,2021-08-07 12:55:07,358899
1,1,2,2,2,1,0,0,2021-08-07 12:55:07,389892
2,1,0,4,6,4,1,1,2021-08-07 12:55:07,405893
0,-1,-1,-2,-3,-4,-2,-1,2021-08-07 12:55:07,405893
-2,-4,-5,-7,-12,-7,-5,-4,2021-08-07 12:55:07,405893
-1,-4,-1,-2,-2,-1,-1,-2,2021-08-07 12:55:07,405893
2,2,2,0,2,1,3,1,2021-08-07 12:55:07,405893
0,0,1,4,7,4,1,-1,2021-08-07 12:55:07,406894
0,1,0,1,6,4,3,1,2021-08-07 12:55:07,406894
-2,0,1,-1,-1,-2,1,0,2021-08-07 12:55:07,421893
-2,-1,-1,-3,-7,-5,-4,-1,2021-08-07 12:55:07,436893
0,-2,0,0,-3,-1,-2,-1,2021-08-07 12:55:07,436893
-1,-2,-3,-1,-1,-3,-1,0,2021-08-07 12:55:07,436893
0,0,1,2,3,1,0,0,2021-08-07 12:55:07,436893
-1,-3,-2,-3,-2,-1,-2,-1,2021-08-07 12:55:07,452894
-1,0,0,-2,-2,-1,-2,-2,2021-08-07 12:55:07,452894
0,-1,0,-1,-1,1,-1,-2,2021-08-07 12:55:07,452894
-2,-1,0,0,-1,0,0,0,2021-08-07 12:55:07,452894
-1,-2,-1,-3,-5,-4,-2,-1,2021-08-07 12:55:07,452894
-2,-4,-4,-4,-3,-2,-2,-2,2021-08-07 12:55:07,483893
1,1,-1,-1,0,0,0,1,2021-08-07 12:55:07,499893
1,1,3,3,7,5,2,0,2021-08-07 12:55:07,515895
0,-1,-1,0,1,-1,1,-1,2021-08-07 12:55:07,515895
-2,-1,-4,-9,-14,-11,-5,-1,2021-08-07 12:55:07,515895
1,1,3,3,4,5,4,2,2021-08-07 12:55:07,515895
0,-1,-1,4,2,3,-1,-1,2021-08-07 12:55:07,515895
-1,-1,-3,-3,-1,1,1,0,2021-08-07 12:55:07,516895
0,1,2,2,2,2,0,0,2021-08-07 12:55:07,516895
-4,-2,-3,-8,-16,-8,-5,-3,2021-08-07 12:55:07,531892
-2,-1,0,2,3,2,-2,-1,2021-08-07 12:55:07,531892
0,0,0,1,4,2,-2,-1,2021-08-07 12:55:07,531892
1,0,1,0,0,-1,-2,-1,2021-08-07 12:55:07,531892
-1,-4,-2,-2,-4,-3,-3,-1,2021-08-07 12:55:07,531892
-3,-3,-5,-6,-5,-4,-1,-2,2021-08-07 12:55:07,547893
-2,-1,-1,1,3,1,0,0,2021-08-07 12:55:07,563893
-1,1,0,3,4,2,2,1,2021-08-07 12:55:07,563893
-1,-1,-2,0,0,-1,0,-1,2021-08-07 12:55:07,563893
-2,1,-3,-3,-9,-7,-5,-2,2021-08-07 12:55:07,563893
0,0,-1,-1,0,1,0,-1,2021-08-07 12:55:07,563893
0,0,0,0,6,2,2,1,2021-08-07 12:55:07,563893
1,1,1,3,4,1,-1,0,2021-08-07 12:55:07,564897
-4,-2,-2,-1,0,-1,0,-1,2021-08-07 12:55:07,579893
-2,-1,-2,-6,-16,-10,-7,-3,2021-08-07 12:55:07,595895
0,0,1,5,10,8,3,0,2021-08-07 12:55:07,595895
1,0,0,0,3,3,1,0,2021-08-07 12:55:07,595895
0,-1,-1,0,1,-2,0,0,2021-08-07 12:55:07,595895
-1,0,0,-2,-5,-3,-2,0,2021-08-07 12:55:07,595895
-4,-4,-3,-8,-18,-12,-6,-4,2021-08-07 12:55:07,596894
1,3,0,0,0,0,0,1,2021-08-07 12:55:07,596894
1,2,2,2,6,7,3,2,2021-08-07 12:55:07,626894
-2,-5,-4,-3,-2,-3,-2,-3,2021-08-07 12:55:07,641894
-1,-2,-3,-3,-5,-1,-1,-2,2021-08-07 12:55:07,641894
-1,1,3,0,2,0,-1,0,2021-08-07 12:55:07,641894
0,-1,0,-3,-3,-2,-1,0,2021-08-07 12:55:07,641894
1,1,1,1,1,1,1,0,2021-08-07 12:55:07,641894
0,-2,-2,-2,-1,-2,-1,0,2021-08-07 12:55:07,641894
-4,-2,-3,-6,-7,-5,-2,-5,2021-08-07 12:55:07,642893
-1,-4,-1,2,3,2,1,-2,2021-08-07 12:55:07,672891
1,-1,0,-3,-1,1,-1,0,2021-08-07 12:55:07,672891
2,4,3,2,3,3,1,3,2021-08-07 12:55:07,672891
-1,-1,-1,3,4,3,0,0,2021-08-07 12:55:07,672891
-1,-2,-4,-4,-7,-6,-5,-2,2021-08-07 12:55:07,688944
-1,-1,-1,1,-1,2,0,0,2021-08-07 12:55:07,688944
1,4,2,0,-4,-5,-3,0,2021-08-07 12:55:07,688944
-1,-2,-4,-3,-2,0,-1,-2,2021-08-07 12:55:07,703942
1,3,4,5,9,5,3,0,2021-08-07 12:55:07,703942
0,0,-1,3,8,3,1,-2,2021-08-07 12:55:07,703942
0,-1,0,1,3,0,1,0,2021-08-07 12:55:07,703942
-2,-3,-4,-8,-14,-11,-4,-1,2021-08-07 12:55:07,703942
-1,0,-2,0,4,3,0,-1,2021-08-07 12:55:07,735947
-1,0,0,-2,-3,-4,-1,0,2021-08-07 12:55:07,735947
0,-1,0,3,5,3,2,-1,2021-08-07 12:55:07,767944
-2,-3,-2,-4,-4,-4,-2,-2,2021-08-07 12:55:07,767944
2,1,0,-4,-9,-5,-3,-2,2021-08-07 12:55:07,767944
-1,-2,-3,-2,0,0,-1,1,2021-08-07 12:55:07,767944
-1,-1,-1,0,0,1,-1,-3,2021-08-07 12:55:07,767944
0,0,2,3,4,1,2,1,2021-08-07 12:55:07,767944
-2,-3,-3,-5,-8,-6,-4,-2,2021-08-07 12:55:07,781943
2,2,1,2,6,4,3,3,2021-08-07 12:55:07,781943
-3,-1,0,2,4,2,-1,-1,2021-08-07 12:55:07,781943
0,0,0,-1,3,1,1,2,2021-08-07 12:55:07,781943
0,3,3,6,3,0,2,2,2021-08-07 12:55:07,781943
-3,-1,-2,-5,-8,-6,-3,-3,2021-08-07 12:55:07,782942
-2,-2,-3,-3,-5,-4,-3,-1,2021-08-07 12:55:07,782942
1,2,3,-1,0,1,1,1,2021-08-07 12:55:07,782942
0,-1,-2,-1,2,0,0,1,2021-08-07 12:55:07,814942
-1,-1,-1,0,-3,-2,-1,-2,2021-08-07 12:55:07,830942
0,-1,-1,1,4,3,1,0,2021-08-07 12:55:07,845944
-3,-1,-1,-3,-4,-2,-3,-3,2021-08-07 12:55:07,845944
0,-1,0,-4,-4,-4,-1,-1,2021-08-07 12:55:07,845944
-1,-1,-1,-1,-3,-1,-1,-2,2021-08-07 12:55:07,845944
-1,2,0,2,3,4,2,1,2021-08-07 12:55:07,845944
0,-3,-1,0,1,-1,-2,-2,2021-08-07 12:55:07,846943
0,1,0,1,6,5,1,0,2021-08-07 12:55:07,861945
-2,-1,-2,-2,0,-2,-3,-3,2021-08-07 12:55:07,861945
-1,0,0,-5,-7,-6,-1,0,2021-08-07 12:55:07,861945
0,0,-1,1,1,1,1,1,2021-08-07 12:55:07,861945
-1,-1,-1,2,1,0,0,0,2021-08-07 12:55:07,861945
-1,-1,-1,-2,-2,-1,-2,-1,2021-08-07 12:55:07,862945
-2,-1,-2,-3,-5,-4,-1,-1,2021-08-07 12:55:07,862945
1,2,1,3,5,4,2,1,2021-08-07 12:55:07,862945
-2,-4,-4,-5,-6,-5,-2,-2,2021-08-07 12:55:07,892945
-1,-2,0,0,0,-1,0,0,2021-08-07 12:55:07,892945
-1,-2,-2,-2,-3,-2,-3,-3,2021-08-07 12:55:07,892945
1,2,2,0,0,2,0,1,2021-08-07 12:55:07,892945
0,0,1,0,0,0,-1,-2,2021-08-07 12:55:07,907942
0,0,-2,-2,-3,-3,-2,-1,2021-08-07 12:55:07,908186
2,-1,1,4,7,6,2,1,2021-08-07 12:55:07,908186
-2,-2,-2,-4,-6,-4,-1,-3,2021-08-07 12:55:07,908186
-1,-2,-2,-1,-2,-5,-1,-2,2021-08-07 12:55:07,923475
0,0,0,-5,-5,-1,-1,1,2021-08-07 12:55:07,939474
0,-1,2,9,17,5,3,1,2021-08-07 12:55:07,939474
0,1,-1,0,2,1,0,1,2021-08-07 12:55:07,939474
-2,-3,-2,-1,-3,0,-2,-1,2021-08-07 12:55:07,955474
-1,-2,-3,-1,0,1,0,0,2021-08-07 12:55:07,955474
-1,-1,-3,-8,-12,-7,-4,-1,2021-08-07 12:55:07,986477
1,0,2,6,9,5,4,1,2021-08-07 12:55:08,002474
-1,1,0,-5,-6,-3,-2,-1,2021-08-07 12:55:08,002474
-1,3,2,4,6,3,1,1,2021-08-07 12:55:08,002474
-1,-1,-2,-4,-5,-1,-1,-1,2021-08-07 12:55:08,002474
-3,-3,-3,-4,-6,-5,-4,-1,2021-08-07 12:55:08,002474
-1,-2,-3,-5,-5,-2,-3,-1,2021-08-07 12:55:08,002474
0,-1,-1,1,-1,0,0,0,2021-08-07 12:55:08,003474
-1,-2,0,0,0,0,0,-1,2021-08-07 12:55:08,003474
-1,-1,-2,-7,-6,-6,-4,-3,2021-08-07 12:55:08,003474
1,0,1,1,1,-1,-1,1,2021-08-07 12:55:08,003474
1,0,-1,2,9,5,1,1,2021-08-07 12:55:08,003474
-1,-1,0,0,-3,-1,-1,-2,2021-08-07 12:55:08,003474
-2,-2,-1,-1,0,-2,1,-2,2021-08-07 12:55:08,003474
-2,0,-1,-2,-2,-1,-1,0,2021-08-07 12:55:08,034473
0,-1,1,-2,-4,-4,0,-1,2021-08-07 12:55:08,050474
-1,-1,-1,0,0,-1,-1,1,2021-08-07 12:55:08,066476
0,-2,-3,-3,-2,-1,0,0,2021-08-07 12:55:08,082477
0,-2,-4,-2,-5,-2,-1,1,2021-08-07 12:55:08,082477
-2,-3,-3,-4,-5,-4,-1,-2,2021-08-07 12:55:08,082477
2,6,5,4,8,9,4,3,2021-08-07 12:55:08,082477
-4,-2,0,2,5,2,0,-3,2021-08-07 12:55:08,082477
-4,-3,-3,0,-1,-4,-2,-3,2021-08-07 12:55:08,082477
-1,-1,2,-4,-2,-1,-2,-1,2021-08-07 12:55:08,083474
-1,-3,-2,-4,-6,-6,-3,-2,2021-08-07 12:55:08,083474
2,2,1,0,0,-1,0,1,2021-08-07 12:55:08,083474
-1,0,-2,-1,-5,-4,0,0,2021-08-07 12:55:08,083474
-1,-1,-4,-1,1,0,-1,-1,2021-08-07 12:55:08,083474
1,0,-1,-1,-3,-3,-1,1,2021-08-07 12:55:08,083474
1,-2,-2,-1,-1,-1,-2,0,2021-08-07 12:55:08,084476
1,0,3,6,14,7,4,-1,2021-08-07 12:55:08,114478
-2,-1,-1,0,-4,-3,0,0,2021-08-07 12:55:08,130473
0,-2,-1,0,-6,-3,-1,-1,2021-08-07 12:55:08,130473
-2,-2,-3,1,2,0,-3,-3,2021-08-07 12:55:08,130473
-2,-2,-3,-7,-8,-5,-5,-3,2021-08-07 12:55:08,130473
-2,-1,0,0,1,-2,-2,-1,2021-08-07 12:55:08,131475
2,4,2,0,5,4,2,1,2021-08-07 12:55:08,131475
-1,0,-1,0,-2,-2,-1,-1,2021-08-07 12:55:08,131475
0,1,0,-1,-3,0,0,-1,2021-08-07 12:55:08,146474
0,1,-2,1,0,-1,-2,-2,2021-08-07 12:55:08,178476
-3,-2,-4,-8,-9,-6,-3,-2,2021-08-07 12:55:08,194474
2,3,3,1,2,4,2,2,2021-08-07 12:55:08,210474
-4,-2,-3,2,1,0,-1,-1,2021-08-07 12:55:08,210474
0,-1,0,2,0,0,0,0,2021-08-07 12:55:08,210474
0,2,2,1,5,2,0,-1,2021-08-07 12:55:08,210474
-1,0,1,1,2,2,1,-1,2021-08-07 12:55:08,210474
-2,-1,0,-2,0,0,-1,-2,2021-08-07 12:55:08,211477
-1,-1,-2,-3,-7,-4,-3,-3,2021-08-07 12:55:08,211477
0,1,1,2,2,2,2,0,2021-08-07 12:55:08,211477
0,-1,-1,0,-1,1,-1,-1,2021-08-07 12:55:08,211477
-1,-1,0,-5,-5,-2,-1,1,2021-08-07 12:55:08,211477
1,1,0,-1,0,1,2,0,2021-08-07 12:55:08,211477
-2,-5,-2,1,3,-1,-2,-2,2021-08-07 12:55:08,212475
-2,-1,-5,-6,-8,-4,-3,0,2021-08-07 12:55:08,212475
1,1,2,-4,-5,-4,-2,0,2021-08-07 12:55:08,225474
0,0,2,0,5,5,4,2,2021-08-07 12:55:08,225474
0,1,3,3,4,-2,-1,-1,2021-08-07 12:55:08,225474
0,1,-1,1,2,1,2,0,2021-08-07 12:55:08,225474
-2,-2,-3,0,2,-1,-1,-2,2021-08-07 12:55:08,256474
1,-1,0,-2,-6,-1,-2,0,2021-08-07 12:55:08,256474
-2,-2,-3,-4,-5,-3,-1,-1,2021-08-07 12:55:08,256474
-2,-4,0,-2,-4,-5,-4,-4,2021-08-07 12:55:08,256474
0,0,0,-2,-1,1,0,-1,2021-08-07 12:55:08,272474
-1,0,1,4,7,4,2,0,2021-08-07 12:55:08,272474
-1,-3,-3,-2,-1,-1,-1,-3,2021-08-07 12:55:08,272474
0,0,1,-1,-2,-5,0,-1,2021-08-07 12:55:08,272474
1,0,0,0,-2,-1,0,-1,2021-08-07 12:55:08,287474
0,1,-2,0,2,0,1,1,2021-08-07 12:55:08,302476
-1,-1,1,6,6,5,2,-1,2021-08-07 12:55:08,304474
-3,-4,-3,-5,-5,-4,-3,-2,2021-08-07 12:55:08,305474
0,1,1,-2,-4,-2,-2,-1,2021-08-07 12:55:08,305474
0,1,0,1,4,1,1,1,2021-08-07 12:55:08,305474
0,0,0,-2,0,3,1,1,2021-08-07 12:55:08,305474
-1,-4,-2,-2,0,-1,-2,-2,2021-08-07 12:55:08,305474
-1,-3,-2,0,3,3,2,-2,2021-08-07 12:55:08,334476
1,1,2,0,0,-1,-1,0,2021-08-07 12:55:08,334476
-2,-1,-3,-5,-5,-5,-1,-1,2021-08-07 12:55:08,334476
-2,1,3,2,-1,0,1,0,2021-08-07 12:55:08,334476
-2,-1,-3,-4,-3,-2,-1,-1,2021-08-07 12:55:08,334476
-2,-3,-2,-6,-10,-6,-2,-2,2021-08-07 12:55:08,335474
-2,-3,-2,2,2,-1,-2,-1,2021-08-07 12:55:08,350474
2,1,3,1,6,2,0,1,2021-08-07 12:55:08,350474
0,-1,1,-4,-6,-6,-3,0,2021-08-07 12:55:08,381512
-2,-1,-2,0,3,3,2,-1,2021-08-07 12:55:08,397510
1,1,1,-6,-12,-8,-3,-2,2021-08-07 12:55:08,413512
1,0,1,6,14,9,4,2,2021-08-07 12:55:08,413512
-1,0,-2,-1,3,0,-1,-2,2021-08-07 12:55:08,413512
-1,-2,-1,-1,-3,-3,-2,-2,2021-08-07 12:55:08,413512
-3,-3,-3,-8,-11,-7,-5,-2,2021-08-07 12:55:08,413512
1,-1,-5,-7,-12,-6,-4,-2,2021-08-07 12:55:08,414511
2,1,4,9,18,13,6,2,2021-08-07 12:55:08,414511
0,3,2,1,-2,-2,0,-1,2021-08-07 12:55:08,414511
0,1,1,2,2,1,2,3,2021-08-07 12:55:08,414511
-3,-3,-1,-5,-9,-5,-2,-1,2021-08-07 12:55:08,414511
-3,-5,-6,-5,-6,-5,-3,-2,2021-08-07 12:55:08,429514
0,-2,-1,1,2,1,0,-3,2021-08-07 12:55:08,445510
-1,0,0,4,5,4,2,1,2021-08-07 12:55:08,461513
0,0,0,-2,-4,-2,-2,1,2021-08-07 12:55:08,461513
-2,-2,-4,-3,-5,-4,-3,-1,2021-08-07 12:55:08,461513
-1,-1,0,3,2,-1,-1,-1,2021-08-07 12:55:08,461513
1,-1,-1,0,2,1,0,0,2021-08-07 12:55:08,461513
-2,-3,-5,-3,-3,-4,-2,-2,2021-08-07 12:55:08,462512
2,2,3,4,11,8,5,4,2021-08-07 12:55:08,462512
0,1,0,-2,-5,-5,-3,-1,2021-08-07 12:55:08,462512
-1,-2,-2,-7,-7,-2,0,-2,2021-08-07 12:55:08,477511
2,1,2,6,6,4,2,0,2021-08-07 12:55:08,492511
-2,-2,-2,-2,-4,-4,-2,-2,2021-08-07 12:55:08,508512
-1,-1,0,0,-1,2,-1,-1,2021-08-07 12:55:08,508512
0,-2,-2,-3,-7,-8,-4,-4,2021-08-07 12:55:08,508512
-1,0,-1,-2,-3,1,0,0,2021-08-07 12:55:08,508512
1,-1,0,-3,0,1,0,-1,2021-08-07 12:55:08,508512
-1,-1,-1,0,1,1,-1,0,2021-08-07 12:55:08,509512
-1,2,1,2,3,2,0,2,2021-08-07 12:55:08,524511
-1,-1,-1,0,-1,0,0,-2,2021-08-07 12:55:08,524511
-2,0,-1,-3,-6,-4,-4,-3,2021-08-07 12:55:08,524511
2,0,-2,-3,2,1,2,2,2021-08-07 12:55:08,524511
-1,-1,-2,-2,-1,1,0,1,2021-08-07 12:55:08,524511
-1,-1,-1,1,2,-1,0,0,2021-08-07 12:55:08,524511
-2,-2,-2,-4,-5,-2,-2,-2,2021-08-07 12:55:08,555512
-3,-1,-3,-5,-3,-2,-1,-3,2021-08-07 12:55:08,571509
-1,1,0,3,6,3,1,-1,2021-08-07 12:55:08,571754
-2,-2,-1,-2,-3,-2,-2,-1,2021-08-07 12:55:08,571754
1,-3,-1,-2,-2,-2,-1,0,2021-08-07 12:55:08,571754
1,0,0,0,-4,-2,-1,0,2021-08-07 12:55:08,571754
0,-1,0,-2,3,0,-1,0,2021-08-07 12:55:08,572511
-2,0,0,0,-1,-3,-2,-1,2021-08-07 12:55:08,572511
0,-1,0,1,3,4,1,1,2021-08-07 12:55:08,587032
0,-1,-1,2,3,0,-1,-2,2021-08-07 12:55:08,587032
-2,-2,-2,-4,-8,-5,-3,-1,2021-08-07 12:55:08,587032
0,-1,-2,-2,-4,-1,-2,-1,2021-08-07 12:55:08,602033
1,1,-2,3,4,2,1,0,2021-08-07 12:55:08,618032
-1,-1,-1,-2,-2,-1,-1,0,2021-08-07 12:55:08,634032
0,-2,0,1,3,1,0,0,2021-08-07 12:55:08,650032
0,-1,-1,-2,-4,-3,-2,-1,2021-08-07 12:55:08,650032
-1,1,0,1,-3,-3,-1,0,2021-08-07 12:55:08,650032
-1,-2,-1,-2,-1,0,-1,0,2021-08-07 12:55:08,650032
-2,-2,-2,-1,-4,-4,-2,-3,2021-08-07 12:55:08,650032
-1,-2,-1,0,0,1,-2,0,2021-08-07 12:55:08,650032
1,1,-1,3,4,-1,0,0,2021-08-07 12:55:08,651033
0,-2,-2,0,-1,-1,0,-1,2021-08-07 12:55:08,651033
1,1,1,0,4,1,0,0,2021-08-07 12:55:08,665033
0,-1,-1,0,-1,-1,-1,-2,2021-08-07 12:55:08,681035
-1,0,4,8,-1,-1,-1,0,2021-08-07 12:55:08,681035
-4,-1,0,-8,-4,-1,-2,-2,2021-08-07 12:55:08,697033
-1,-1,-4,-9,-3,1,-1,0,2021-08-07 12:55:08,712032
0,0,-4,-8,-4,-1,0,-1,2021-08-07 12:55:08,712032
-3,-3,-1,-5,-6,-5,-4,-3,2021-08-07 12:55:08,712032
2,-1,2,9,4,0,0,0,2021-08-07 12:55:08,712032
0,1,2,6,6,1,0,1,2021-08-07 12:55:08,712032
2,1,0,-6,-1,-1,-1,3,2021-08-07 12:55:08,712032
-1,1,0,-3,-7,-4,-3,-1,2021-08-07 12:55:08,713037
-1,-1,-2,-5,-6,-2,-1,-1,2021-08-07 12:55:08,713037
0,0,2,10,4,3,0,1,2021-08-07 12:55:08,713037
1,0,-1,2,6,5,2,-1,2021-08-07 12:55:08,713037
1,0,0,0,3,1,0,0,2021-08-07 12:55:08,728035
0,-1,-1,-3,-2,-4,-3,0,2021-08-07 12:55:08,728035
1,-1,-3,-2,-8,-4,-3,-2,2021-08-07 12:55:08,744033
-1,1,2,6,7,2,0,-1,2021-08-07 12:55:08,744033
-2,0,-2,-5,-2,0,1,-1,2021-08-07 12:55:08,744033
-1,1,-1,1,0,-1,-1,-1,2021-08-07 12:55:08,744033
0,-2,-4,-9,-10,-7,-4,-2,2021-08-07 12:55:08,745033
0,0,1,3,5,4,2,0,2021-08-07 12:55:08,745033
-2,-2,-4,-4,-3,-1,-1,-2,2021-08-07 12:55:08,774033
1,0,1,0,1,1,1,-1,2021-08-07 12:55:08,790032
0,-2,0,-3,0,1,1,1,2021-08-07 12:55:08,790032
-2,-3,-2,-6,-7,-7,-4,-2,2021-08-07 12:55:08,790032
0,-2,-2,-1,0,0,-1,-1,2021-08-07 12:55:08,790032
-1,0,-1,-2,0,0,-2,0,2021-08-07 12:55:08,790032
2,0,1,0,5,5,0,0,2021-08-07 12:55:08,790032
0,-2,0,0,-1,-1,-2,0,2021-08-07 12:55:08,791034
-1,-2,-1,-2,-4,-4,-3,-2,2021-08-07 12:55:08,806032
0,-2,-2,-6,-5,-4,-2,0,2021-08-07 12:55:08,806032
1,4,2,3,6,6,3,3,2021-08-07 12:55:08,819033
1,4,4,5,6,3,3,2,2021-08-07 12:55:08,820034
0,1,-2,-1,-1,0,1,-1,2021-08-07 12:55:08,838036
0,1,0,2,2,1,-2,-2,2021-08-07 12:55:08,838036
-3,-4,-2,-2,-3,-5,-2,-5,2021-08-07 12:55:08,838036
-3,-2,-1,-5,-8,-6,-3,-5,2021-08-07 12:55:08,838036
-2,-1,1,0,-2,-2,-1,-1,2021-08-07 12:55:08,838036
0,-1,-4,-1,-3,0,-2,0,2021-08-07 12:55:08,838036
0,1,-1,-3,-5,-3,-1,0,2021-08-07 12:55:08,854032
1,-3,-3,0,2,0,0,1,2021-08-07 12:55:08,854032
-1,-3,-5,-1,-1,1,1,-1,2021-08-07 12:55:08,869032
-1,-1,3,6,7,6,2,-3,2021-08-07 12:55:08,885035
-1,-1,0,4,6,2,0,-1,2021-08-07 12:55:08,885035
-2,-1,-2,-8,-10,-5,-4,-2,2021-08-07 12:55:08,885035
-1,-1,0,0,2,-1,-2,0,2021-08-07 12:55:08,885035
-1,2,4,-1,-2,-2,-2,0,2021-08-07 12:55:08,885035
-2,0,-2,-2,-2,-2,-1,-2,2021-08-07 12:55:08,886032
-1,2,-2,1,-1,0,-1,0,2021-08-07 12:55:08,886032
1,2,1,3,5,2,2,1,2021-08-07 12:55:08,917034
1,-1,-2,-4,-2,2,1,-2,2021-08-07 12:55:08,917034
-1,0,1,-1,-4,-3,-1,1,2021-08-07 12:55:08,917034
-1,-3,-3,0,1,0,0,-2,2021-08-07 12:55:08,917034
-2,-2,-1,-2,-3,-1,-1,-1,2021-08-07 12:55:08,933033
-2,-2,-2,-1,0,0,-1,0,2021-08-07 12:55:08,949032
0,-2,-1,-1,-2,-2,-1,0,2021-08-07 12:55:08,965037
-1,-1,-2,-3,0,2,1,0,2021-08-07 12:55:08,965037
1,1,0,0,-2,-1,-1,0,2021-08-07 12:55:08,965037
1,1,3,2,1,0,0,3,2021-08-07 12:55:08,965037
-2,-3,-1,-2,-4,-1,-2,-2,2021-08-07 12:55:08,965037
-4,-4,-1,4,2,-2,-1,-2,2021-08-07 12:55:08,965037
1,1,1,-9,-13,-8,-3,-2,2021-08-07 12:55:08,966034
2,1,-2,1,4,4,5,1,2021-08-07 12:55:08,966034
1,2,3,4,7,3,3,0,2021-08-07 12:55:08,966034
-2,-1,-2,-3,-3,-2,-2,-1,2021-08-07 12:55:08,966034
-2,-1,0,1,1,1,-1,-1,2021-08-07 12:55:08,996032
-1,0,-1,-7,-11,-7,-2,0,2021-08-07 12:55:09,012032
-1,0,1,1,3,1,0,-1,2021-08-07 12:55:09,012032
0,-2,0,-3,-3,-1,-2,0,2021-08-07 12:55:09,012032
-2,-1,-3,-2,-2,-2,-2,-2,2021-08-07 12:55:09,012032
0,-1,0,-1,0,-1,0,-2,2021-08-07 12:55:09,012032
-2,-3,-2,-3,-5,-3,-3,-2,2021-08-07 12:55:09,012032
-1,-1,-1,1,1,0,0,-1,2021-08-07 12:55:09,013034
-1,0,-2,-2,-1,0,-1,-1,2021-08-07 12:55:09,028035
0,-1,1,3,3,-2,-1,-1,2021-08-07 12:55:09,028035
1,0,1,-1,1,1,0,0,2021-08-07 12:55:09,028035
1,0,-1,-1,-2,-3,0,0,2021-08-07 12:55:09,028035
-2,-2,0,2,4,1,0,0,2021-08-07 12:55:09,059032
-1,-1,-2,-3,0,-1,-1,0,2021-08-07 12:55:09,075033
1,-1,0,-2,-3,-2,-2,-1,2021-08-07 12:55:09,075033
-3,-1,-2,-2,-1,-1,-2,-1,2021-08-07 12:55:09,075033
-1,0,-2,-1,1,1,0,0,2021-08-07 12:55:09,075033
0,0,1,2,0,0,0,-1,2021-08-07 12:55:09,075033
0,0,-2,-1,0,-2,0,-1,2021-08-07 12:55:09,075033
1,-2,0,2,1,-1,-1,-1,2021-08-07 12:55:09,075033
2,1,0,-1,1,1,1,1,2021-08-07 12:55:09,091032
1,-1,-1,-4,-3,-2,-2,-3,2021-08-07 12:55:09,091032
0,0,-3,-6,-3,-2,0,-1,2021-08-07 12:55:09,107032
-1,-2,0,1,-1,-1,1,-2,2021-08-07 12:55:09,122036
-1,0,0,1,-2,2,1,0,2021-08-07 12:55:09,138034
0,1,-2,0,1,0,-1,1,2021-08-07 12:55:09,138034
-1,-1,-2,-5,-7,-2,-2,-1,2021-08-07 12:55:09,154032
0,-1,0,5,7,3,0,0,2021-08-07 12:55:09,154032
0,1,4,4,7,4,2,2,2021-08-07 12:55:09,154032
-1,0,-3,-3,-4,-2,0,-3,2021-08-07 12:55:09,154032
-1,-1,-1,-3,-7,-4,-1,-3,2021-08-07 12:55:09,154032
0,-1,1,-1,6,6,3,0,2021-08-07 12:55:09,154032
0,-1,0,0,2,1,-2,-1,2021-08-07 12:55:09,154032
-4,-2,-1,-1,-2,-2,-3,-2,2021-08-07 12:55:09,155033
1,0,-2,3,1,1,0,1,2021-08-07 12:55:09,155033
-1,0,0,-3,-7,-5,-1,-1,2021-08-07 12:55:09,155033
-3,-4,-1,-8,-8,-6,-2,-2,2021-08-07 12:55:09,169035
0,0,2,5,4,1,1,2,2021-08-07 12:55:09,185037
-2,-1,-1,1,0,3,0,-1,2021-08-07 12:55:09,217034
-1,-2,-1,-4,-3,-2,-1,0,2021-08-07 12:55:09,217034
2,2,0,-1,-5,-2,1,1,2021-08-07 12:55:09,217034
0,1,2,2,1,1,0,-1,2021-08-07 12:55:09,217034
0,-1,3,5,9,2,1,2,2021-08-07 12:55:09,217034
-1,-2,0,-4,-4,-4,-4,-3,2021-08-07 12:55:09,217034
-1,0,-2,-4,-9,-6,-2,-3,2021-08-07 12:55:09,217034
-1,0,1,-3,-1,2,2,1,2021-08-07 12:55:09,218036
-1,-1,1,6,9,3,3,-1,2021-08-07 12:55:09,218036
3,0,1,-4,-2,0,2,1,2021-08-07 12:55:09,218036
-1,-4,-4,-3,-3,-6,-3,-2,2021-08-07 12:55:09,233033
-1,1,1,-3,-5,-4,-2,-1,2021-08-07 12:55:09,233033
0,-1,-2,-1,0,-2,-3,0,2021-08-07 12:55:09,233033
-2,1,-1,2,-1,0,-1,1,2021-08-07 12:55:09,233033
-1,-3,-3,-4,-2,0,-1,-1,2021-08-07 12:55:09,249033
-1,-3,-1,0,-1,-2,0,0,2021-08-07 12:55:09,265033
0,1,1,0,1,0,0,1,2021-08-07 12:55:09,265033
0,-1,-1,-1,-1,-1,0,0,2021-08-07 12:55:09,265033
-1,1,0,6,5,2,-1,1,2021-08-07 12:55:09,265033
0,2,1,14,10,5,3,2,2021-08-07 12:55:09,265033
-1,0,1,-12,-7,-3,-2,-1,2021-08-07 12:55:09,281035
-4,-2,-3,-11,-10,-6,-3,-2,2021-08-07 12:55:09,297033
-3,-5,-3,1,-1,-2,-4,-3,2021-08-07 12:55:09,297033
3,5,4,18,7,2,3,1,2021-08-07 12:55:09,297033
-1,0,-4,-17,-11,-2,-1,-1,2021-08-07 12:55:09,297033
-3,-4,-5,-18,-8,-5,-3,-4,2021-08-07 12:55:09,297033
-2,-2,-4,-6,-1,0,-1,-1,2021-08-07 12:55:09,313032
1,0,1,10,3,-2,-2,-1,2021-08-07 12:55:09,313032
0,3,7,19,12,5,1,1,2021-08-07 12:55:09,313032
0,-1,-10,-8,-3,-1,-1,-1,2021-08-07 12:55:09,313032
-1,-1,3,4,-1,0,-1,0,2021-08-07 12:55:09,329034
0,-3,5,-1,-5,-1,-2,-2,2021-08-07 12:55:09,329034
-2,-2,-3,-7,-7,-4,-1,-2,2021-08-07 12:55:09,329034
-1,-2,-11,-9,1,0,1,-2,2021-08-07 12:55:09,329034
2,0,2,6,5,2,2,2,2021-08-07 12:55:09,350032
-2,-2,-3,-7,-2,0,-2,0,2021-08-07 12:55:09,350032
-1,-2,4,8,0,-1,-2,-1,2021-08-07 12:55:09,350032
0,3,7,15,3,0,0,0,2021-08-07 12:55:09,350032
-3,-2,-7,-10,-5,-1,1,-1,2021-08-07 12:55:09,377033
0,-1,-1,-9,-3,0,-1,-1,2021-08-07 12:55:09,377033
0,0,0,-2,-1,1,1,0,2021-08-07 12:55:09,377033
0,0,2,11,4,-1,-1,-1,2021-08-07 12:55:09,393033
1,2,3,5,4,0,0,-1,2021-08-07 12:55:09,393033
-2,-3,-4,-10,-7,-4,-2,-2,2021-08-07 12:55:09,393033
-5,-5,-9,-7,-8,-7,-5,-4,2021-08-07 12:55:09,393033
1,3,6,6,3,5,2,2,2021-08-07 12:55:09,393033
3,4,5,5,9,6,2,1,2021-08-07 12:55:09,409032
-2,-5,-8,-8,-5,-4,-3,-3,2021-08-07 12:55:09,409032
0,1,-1,0,3,2,1,2,2021-08-07 12:55:09,409032
-2,-2,0,-2,-2,-2,-2,0,2021-08-07 12:55:09,409032
-1,-1,-1,-4,-5,-1,-1,-1,2021-08-07 12:55:09,441033
-1,-2,-4,-2,-1,-1,-1,-1,2021-08-07 12:55:09,441033
2,0,-1,1,-2,-2,-1,1,2021-08-07 12:55:09,441033
0,1,3,6,7,3,1,0,2021-08-07 12:55:09,441033
-1,-1,-3,-11,-5,-2,-1,-1,2021-08-07 12:55:09,441033
0,0,-2,-2,0,-2,-1,-1,2021-08-07 12:55:09,442035
0,-4,-3,-1,-2,-3,-1,-3,2021-08-07 12:55:09,457032
-1,-1,1,3,2,2,1,-1,2021-08-07 12:55:09,457032
1,4,4,6,3,1,1,3,2021-08-07 12:55:09,473032
0,-1,1,-3,-2,0,0,-1,2021-08-07 12:55:09,488030
-2,-4,-4,-6,-10,-8,-4,-1,2021-08-07 12:55:09,488030
0,0,1,-3,-5,-3,-2,-1,2021-08-07 12:55:09,488030
-1,-3,-5,3,5,3,0,-3,2021-08-07 12:55:09,488030
-4,-4,-3,-4,-4,-3,-2,-1,2021-08-07 12:55:09,488030
2,4,0,0,2,2,1,2,2021-08-07 12:55:09,489034
0,-1,-2,-5,-7,-3,-2,0,2021-08-07 12:55:09,489034
-1,-2,0,-4,-4,-3,-1,-3,2021-08-07 12:55:09,520033
0,-1,-2,-2,1,0,-2,-1,2021-08-07 12:55:09,520033
0,-1,0,7,6,2,0,-1,2021-08-07 12:55:09,520033
0,-1,-2,-4,-4,-3,0,0,2021-08-07 12:55:09,520033
0,-2,-2,-2,3,1,-1,0,2021-08-07 12:55:09,536036
-1,1,1,3,5,1,1,0,2021-08-07 12:55:09,536036
-3,-4,1,-4,-6,-3,-4,-4,2021-08-07 12:55:09,536036
-3,-3,-2,-2,-4,-2,-3,-2,2021-08-07 12:55:09,536036
1,2,1,3,1,-1,1,2,2021-08-07 12:55:09,552032
0,-1,0,-1,-1,-3,-1,0,2021-08-07 12:55:09,568033
-1,-1,-2,-3,-6,-4,-3,-1,2021-08-07 12:55:09,568033
-1,-1,-1,-1,-2,0,0,-2,2021-08-07 12:55:09,568033
-2,-3,-1,1,4,2,0,-1,2021-08-07 12:55:09,568033
1,1,-1,-2,-2,1,1,0,2021-08-07 12:55:09,568033
0,-1,1,0,0,-1,0,-1,2021-08-07 12:55:09,569035
-3,-4,-3,-8,-8,-5,-3,-3,2021-08-07 12:55:09,569035
0,0,1,5,5,2,1,-1,2021-08-07 12:55:09,600034
0,-2,-1,1,5,4,1,0,2021-08-07 12:55:09,616032
1,1,1,7,7,2,2,1,2021-08-07 12:55:09,632035
-1,-3,1,-6,-3,-3,-3,-2,2021-08-07 12:55:09,632035
0,1,-1,-6,-4,-2,-2,-1,2021-08-07 12:55:09,632035
-1,0,-2,-5,-8,-7,-3,-2,2021-08-07 12:55:09,632035
0,0,-2,1,7,5,0,-2,2021-08-07 12:55:09,632035
2,1,3,6,5,0,1,0,2021-08-07 12:55:09,633033
-1,-1,-1,-1,-5,-3,0,-1,2021-08-07 12:55:09,633033
-2,-1,0,-1,-2,-3,-1,-2,2021-08-07 12:55:09,633033
-2,-4,-3,-2,-3,-3,-4,-3,2021-08-07 12:55:09,633033
3,4,4,1,3,3,2,2,2021-08-07 12:55:09,633033
1,-1,-2,1,2,1,1,0,2021-08-07 12:55:09,648033
-2,-1,-1,0,1,-1,-2,-2,2021-08-07 12:55:09,648033
-1,-2,-1,-1,-1,0,1,-2,2021-08-07 12:55:09,648033
0,1,0,2,2,1,-1,1,2021-08-07 12:55:09,648033
-2,-2,-4,-3,-7,-6,-3,-3,2021-08-07 12:55:09,680035
-1,-2,-2,-5,-7,-4,-4,-2,2021-08-07 12:55:09,712034
1,-2,-2,-5,-3,0,-1,-1,2021-08-07 12:55:09,728092
0,2,2,11,10,5,2,2,2021-08-07 12:55:09,728092
-1,-1,2,4,4,-1,0,2,2021-08-07 12:55:09,728092
0,-3,-5,-6,-5,0,-1,0,2021-08-07 12:55:09,728092
0,-2,-4,-7,-7,-5,-1,1,2021-08-07 12:55:09,728092
-1,-4,-5,-5,-9,-5,-2,-1,2021-08-07 12:55:09,729093
-2,0,0,4,4,3,2,-1,2021-08-07 12:55:09,729093
-2,0,1,3,6,0,1,-2,2021-08-07 12:55:09,729093
-3,-2,1,-1,-1,0,-2,-3,2021-08-07 12:55:09,729093
-1,-2,0,-5,-10,-8,-5,-3,2021-08-07 12:55:09,729093
0,-1,0,-2,-1,1,-2,0,2021-08-07 12:55:09,729093
1,3,0,7,10,6,3,4,2021-08-07 12:55:09,730092
1,2,0,7,3,-1,1,0,2021-08-07 12:55:09,730092
-2,-1,-1,-6,-1,-2,-1,0,2021-08-07 12:55:09,730092
-1,0,-4,-14,-13,-6,-4,0,2021-08-07 12:55:09,759090
-2,-2,-3,-8,-8,-3,-1,-2,2021-08-07 12:55:09,775090
2,6,4,9,15,9,4,2,2021-08-07 12:55:09,775090
-2,-2,-1,3,0,0,-1,-2,2021-08-07 12:55:09,775090
-2,0,0,-3,-3,-1,-1,-2,2021-08-07 12:55:09,775090
0,0,0,3,4,5,1,1,2021-08-07 12:55:09,775090
-2,-4,-3,-3,-7,-4,-3,-2,2021-08-07 12:55:09,775090
1,-2,1,-1,-1,-1,0,1,2021-08-07 12:55:09,776091
0,-2,-4,-2,-3,-3,0,-1,2021-08-07 12:55:09,807089
-1,0,-1,1,1,-1,0,1,2021-08-07 12:55:09,823091
0,1,2,3,2,4,2,0,2021-08-07 12:55:09,823091
-1,0,-2,-2,2,2,1,-2,2021-08-07 12:55:09,823091
-3,-4,-4,-5,-6,-5,-3,-2,2021-08-07 12:55:09,823091
1,1,1,-1,-1,0,1,0,2021-08-07 12:55:09,823091
0,0,0,0,1,-1,2,0,2021-08-07 12:55:09,823091
-2,-1,-2,-1,-3,-3,-3,0,2021-08-07 12:55:09,824091
0,-1,-1,-5,-1,2,0,-2,2021-08-07 12:55:09,824091
-2,-1,-6,-2,-4,-1,-2,0,2021-08-07 12:55:09,824091
0,-1,0,-4,-2,-4,0,0,2021-08-07 12:55:09,838090
1,0,0,5,2,1,1,1,2021-08-07 12:55:09,853092
-1,0,4,9,5,1,2,-1,2021-08-07 12:55:09,869091
1,0,1,-2,2,1,-2,0,2021-08-07 12:55:09,879091
-3,-2,-3,-5,-6,-4,-4,-3,2021-08-07 12:55:09,879091
-3,-4,-4,-6,-5,-3,-3,-4,2021-08-07 12:55:09,879091
-1,1,0,3,3,0,-2,-1,2021-08-07 12:55:09,879091
-1,-1,0,-4,-8,-7,-2,-2,2021-08-07 12:55:09,880091
-1,-1,-1,3,7,5,0,1,2021-08-07 12:55:09,880091
-1,1,-2,-2,1,1,0,1,2021-08-07 12:55:09,880091
1,-1,0,2,0,-1,-2,0,2021-08-07 12:55:09,880091
1,2,1,5,8,5,1,1,2021-08-07 12:55:09,880091
-1,-2,-2,-3,-9,-5,-4,-2,2021-08-07 12:55:09,901089
-2,-1,-2,-3,-1,-1,-1,-1,2021-08-07 12:55:09,901089
0,1,0,7,6,5,1,1,2021-08-07 12:55:09,917090
-3,-4,-2,-18,-11,-5,-3,-2,2021-08-07 12:55:09,917090
-2,-3,-6,-5,1,0,-2,-2,2021-08-07 12:55:09,917090
0,0,3,14,7,-1,1,1,2021-08-07 12:55:09,917090
-2,0,4,11,2,-2,-2,-2,2021-08-07 12:55:09,933090
3,3,3,-15,-8,1,-1,0,2021-08-07 12:55:09,948614
-4,-3,-6,-9,-6,-3,-2,-3,2021-08-07 12:55:09,964611
2,1,6,-13,1,5,3,2,2021-08-07 12:55:09,964611
-3,-6,-20,-10,-10,-9,-5,-3,2021-08-07 12:55:09,980610
1,1,7,22,13,6,3,1,2021-08-07 12:55:09,996610
1,1,0,-4,-1,-1,-1,-2,2021-08-07 12:55:10,028613
-2,0,1,10,3,1,0,-2,2021-08-07 12:55:10,043609
2,2,5,-1,1,2,3,1,2021-08-07 12:55:10,043609
0,0,-2,2,0,-2,0,0,2021-08-07 12:55:10,043609
-1,-1,0,-1,-7,-6,-2,0,2021-08-07 12:55:10,043609
-4,-5,-5,-7,-8,-6,-4,-6,2021-08-07 12:55:10,043609
4,5,5,8,19,13,8,5,2021-08-07 12:55:10,044613
-2,-2,-5,0,1,-1,-1,-1,2021-08-07 12:55:10,044613
-2,-2,0,-1,1,-2,-1,0,2021-08-07 12:55:10,044613
-1,0,-4,-6,-9,-7,-4,-2,2021-08-07 12:55:10,044613
-2,-4,-3,-8,-8,-4,-2,-1,2021-08-07 12:55:10,044613
2,1,3,-1,-5,-4,-1,1,2021-08-07 12:55:10,044613
0,-2,0,-1,-1,2,-1,1,2021-08-07 12:55:10,045613
1,0,-1,3,9,7,3,-1,2021-08-07 12:55:10,045613
-1,0,0,0,0,2,-1,-1,2021-08-07 12:55:10,045613
0,1,3,7,8,5,3,0,2021-08-07 12:55:10,045613
-1,-2,-1,-1,-7,-5,-2,-1,2021-08-07 12:55:10,045613
-2,-1,-2,0,-3,-2,-1,0,2021-08-07 12:55:10,045613
0,0,-1,-10,-8,-3,-2,-2,2021-08-07 12:55:10,046612
-4,-6,-6,-2,-3,-5,-3,-3,2021-08-07 12:55:10,046612
3,4,3,1,1,3,2,3,2021-08-07 12:55:10,059613
1,0,2,7,9,3,2,1,2021-08-07 12:55:10,059613
0,-1,2,-1,-5,-4,-3,-1,2021-08-07 12:55:10,059613
1,0,-1,-5,-3,-3,0,-1,2021-08-07 12:55:10,059613
-3,-1,-5,-2,-3,-3,-1,-2,2021-08-07 12:55:10,075611
1,0,1,1,-2,1,1,1,2021-08-07 12:55:10,075611
-1,-1,-1,1,0,-1,-3,-1,2021-08-07 12:55:10,091611
-2,2,0,3,3,1,0,-1,2021-08-07 12:55:10,107611
-1,-2,1,1,1,-1,-1,-2,2021-08-07 12:55:10,107611
0,-2,-4,-9,-8,-3,-2,0,2021-08-07 12:55:10,107611
-1,0,2,3,1,1,0,1,2021-08-07 12:55:10,107611
-1,-1,-3,0,-3,-2,0,-1,2021-08-07 12:55:10,107611
0,0,-1,-1,0,-1,1,-1,2021-08-07 12:55:10,107611
0,2,0,-2,0,-1,-1,0,2021-08-07 12:55:10,108614
1,-1,0,-2,-3,0,0,0,2021-08-07 12:55:10,139612
-2,-3,-1,1,1,-2,-1,-1,2021-08-07 12:55:10,139612
-2,-3,-3,-4,-5,-3,-3,-4,2021-08-07 12:55:10,139612
0,0,-2,0,1,0,0,-1,2021-08-07 12:55:10,139612
0,-1,-1,0,2,0,0,0,2021-08-07 12:55:10,155612
0,-1,-1,-2,-3,-4,-3,1,2021-08-07 12:55:10,155612
-2,-3,-4,-8,-8,-5,-4,-3,2021-08-07 12:55:10,155612
-1,0,0,4,7,4,2,1,2021-08-07 12:55:10,155612
0,2,1,2,3,3,2,1,2021-08-07 12:55:10,171609
-2,-3,-4,-2,-4,-2,0,-2,2021-08-07 12:55:10,171609
1,0,2,-2,0,-3,-1,-1,2021-08-07 12:55:10,186611
-2,-2,-5,-8,-9,-3,-3,-2,2021-08-07 12:55:10,186611
0,0,2,6,3,-1,-1,1,2021-08-07 12:55:10,186611
-1,1,0,1,0,0,-1,-1,2021-08-07 12:55:10,186611
-2,-1,-2,5,1,2,-2,0,2021-08-07 12:55:10,218611
0,-2,1,-2,-2,-1,0,0,2021-08-07 12:55:10,218611
-2,0,-1,-7,-2,-1,-1,0,2021-08-07 12:55:10,234614
-1,-1,-3,-4,-5,-3,-1,-1,2021-08-07 12:55:10,234614
0,-2,-2,-2,-4,-3,-3,-1,2021-08-07 12:55:10,234614
0,2,2,10,9,5,3,-1,2021-08-07 12:55:10,234614
0,-1,-1,-1,-1,-2,-1,-1,2021-08-07 12:55:10,234614
-1,-1,-1,-3,-1,0,0,-2,2021-08-07 12:55:10,235615
-2,-2,-2,1,0,1,0,-1,2021-08-07 12:55:10,235615
-2,-2,-1,-7,-8,-4,-2,0,2021-08-07 12:55:10,235615
-1,-2,-3,-4,-9,-6,-1,-2,2021-08-07 12:55:10,250611
1,1,0,1,3,3,1,0,2021-08-07 12:55:10,250611
1,1,3,0,2,3,2,2,2021-08-07 12:55:10,250611
0,-1,0,3,4,-1,-1,-1,2021-08-07 12:55:10,250611
0,-2,0,2,4,1,2,-1,2021-08-07 12:55:10,282611
0,0,1,-2,-4,-2,-3,-2,2021-08-07 12:55:10,282611
0,-1,-3,-2,-4,-4,-2,-2,2021-08-07 12:55:10,282611
-1,0,-1,-2,-2,1,-1,0,2021-08-07 12:55:10,282611
-2,-1,0,-1,-7,-4,-2,-1,2021-08-07 12:55:10,298613
-1,-3,-3,-1,0,1,-2,-3,2021-08-07 12:55:10,314614
1,2,1,6,9,5,2,1,2021-08-07 12:55:10,314614
-1,1,-2,-7,-9,-7,-3,-2,2021-08-07 12:55:10,314614
-3,-4,-5,-6,-5,-4,-4,-5,2021-08-07 12:55:10,314614
2,2,4,-6,-8,-3,0,3,2021-08-07 12:55:10,314614
-1,-2,0,5,10,7,4,2,2021-08-07 12:55:10,315612
2,3,1,7,7,2,0,1,2021-08-07 12:55:10,315612
-1,-1,-1,2,4,3,1,1,2021-08-07 12:55:10,330611
-5,-3,-2,-1,-1,-2,-2,-3,2021-08-07 12:55:10,330611
-2,-4,-5,-15,-11,-5,-4,-2,2021-08-07 12:55:10,330611
-1,1,4,0,-1,2,-1,2,2021-08-07 12:55:10,330611
-1,0,-1,-2,-2,-1,-2,-1,2021-08-07 12:55:10,362610
-1,-1,-3,2,2,0,0,-1,2021-08-07 12:55:10,378614
0,0,-1,2,0,0,-1,-1,2021-08-07 12:55:10,394610
-2,-4,-3,-2,-2,-2,-2,-3,2021-08-07 12:55:10,394610
1,2,2,-2,-6,-1,-1,-3,2021-08-07 12:55:10,394610
-2,-2,-2,0,0,-2,-2,-2,2021-08-07 12:55:10,394610
2,4,3,2,1,1,1,2,2021-08-07 12:55:10,394610
-2,-3,-2,1,-2,-3,-1,-1,2021-08-07 12:55:10,395612
0,0,-1,-3,2,0,0,2,2021-08-07 12:55:10,395612
-1,-1,-1,-4,-5,-4,-2,0,2021-08-07 12:55:10,395612
-2,-1,-1,5,4,0,1,-2,2021-08-07 12:55:10,395612
2,2,0,-2,5,5,1,2,2021-08-07 12:55:10,395612
-4,-3,0,-3,-2,-5,-3,-4,2021-08-07 12:55:10,441610
1,3,4,9,13,9,3,1,2021-08-07 12:55:10,441610
-3,-3,-3,-8,-10,-9,-6,-3,2021-08-07 12:55:10,441610
-4,-4,-6,-8,-13,-7,-3,-2,2021-08-07 12:55:10,441610
1,1,1,10,12,7,3,1,2021-08-07 12:55:10,441610
1,-1,2,0,3,2,0,0,2021-08-07 12:55:10,442611
-1,1,0,-4,1,0,-1,0,2021-08-07 12:55:10,442611
1,0,0,-1,-2,-1,0,0,2021-08-07 12:55:10,442611
0,-3,-3,-6,-10,-4,-4,-1,2021-08-07 12:55:10,457610
-1,-2,-2,3,1,-1,-1,-1,2021-08-07 12:55:10,473609
1,0,1,-1,-1,0,0,1,2021-08-07 12:55:10,488612
-2,-3,-3,-3,-1,-2,-3,-2,2021-08-07 12:55:10,488612
1,1,1,0,-1,-3,-1,0,2021-08-07 12:55:10,488612
-1,-2,-1,0,1,2,-1,-1,2021-08-07 12:55:10,488612
-2,-2,-3,-5,-5,-3,-1,-3,2021-08-07 12:55:10,488612
0,2,1,6,5,3,2,1,2021-08-07 12:55:10,489612
2,1,3,3,1,1,1,0,2021-08-07 12:55:10,489612
-1,-3,-4,-2,0,0,1,-3,2021-08-07 12:55:10,489612
-2,-4,-4,-5,1,0,-2,-1,2021-08-07 12:55:10,489612
-1,-1,1,-1,-2,-1,-3,-2,2021-08-07 12:55:10,489612
2,4,5,13,12,6,4,4,2021-08-07 12:55:10,520612
-1,-2,-2,-8,-7,-7,-2,-2,2021-08-07 12:55:10,520612
-2,-1,-1,-11,-8,-3,-2,-1,2021-08-07 12:55:10,520612
1,0,0,3,3,2,0,-1,2021-08-07 12:55:10,520612
-1,-2,-3,-4,-5,-2,-2,-1,2021-08-07 12:55:10,536611
-1,-2,-2,3,-2,-3,-1,0,2021-08-07 12:55:10,552613
2,1,3,5,2,0,0,0,2021-08-07 12:55:10,568612
-1,-3,-5,-2,0,0,2,0,2021-08-07 12:55:10,568612
-4,-6,-5,-6,-7,-4,-1,-3,2021-08-07 12:55:10,568612
-1,0,3,5,7,3,0,-2,2021-08-07 12:55:10,568612
-3,-3,1,6,4,2,0,-2,2021-08-07 12:55:10,583613
-1,0,1,-3,-2,-2,-2,-1,2021-08-07 12:55:10,583613
0,0,-2,-6,-11,-7,-3,-2,2021-08-07 12:55:10,583613
1,2,-2,-2,2,4,1,2,2021-08-07 12:55:10,583613
0,3,1,6,5,2,0,2,2021-08-07 12:55:10,583613
0,1,0,4,4,2,1,1,2021-08-07 12:55:10,584612
-2,-2,-4,-6,-3,-2,-3,-1,2021-08-07 12:55:10,599612
-1,-2,-1,-3,-5,-4,-3,-1,2021-08-07 12:55:10,599612
0,1,1,3,1,3,1,1,2021-08-07 12:55:10,599612
-1,-1,-1,2,3,0,1,1,2021-08-07 12:55:10,599612
-1,-1,-1,-6,-6,-3,-1,-1,2021-08-07 12:55:10,615611
-2,-1,-1,-3,-2,-1,0,-3,2021-08-07 12:55:10,630609
1,2,2,2,0,0,1,-2,2021-08-07 12:55:10,662610
-1,-3,-1,0,-4,-3,-4,-4,2021-08-07 12:55:10,662610
1,1,1,-2,4,4,2,1,2021-08-07 12:55:10,662610
-1,-3,-3,-3,-1,-3,-1,-1,2021-08-07 12:55:10,662610
-1,0,1,-1,-4,-3,-2,-1,2021-08-07 12:55:10,662610
1,2,1,-1,1,1,0,1,2021-08-07 12:55:10,662610
-2,1,1,7,6,2,-1,0,2021-08-07 12:55:10,663614
0,1,0,-4,0,1,1,0,2021-08-07 12:55:10,663614
-3,-6,-5,-7,-7,-4,-4,-1,2021-08-07 12:55:10,663614
-1,-2,-1,0,-2,-2,-2,-3,2021-08-07 12:55:10,663614
1,4,3,0,1,2,1,1,2021-08-07 12:55:10,678612
-1,1,-1,0,-2,-2,0,-1,2021-08-07 12:55:10,694613
-1,-2,-3,-4,-4,-2,-1,-2,2021-08-07 12:55:10,694613
-1,-1,-1,1,0,1,-1,-2,2021-08-07 12:55:10,694613
-2,-2,-5,1,1,-1,-1,-2,2021-08-07 12:55:10,694613
2,3,3,-3,-1,-1,0,1,2021-08-07 12:55:10,694613
-1,-2,-4,1,-1,0,-1,1,2021-08-07 12:55:10,695613
1,5,3,-4,-4,-1,1,0,2021-08-07 12:55:10,695613
0,-1,1,1,2,1,-1,-1,2021-08-07 12:55:10,725612
0,-3,-6,-2,-2,-2,-1,0,2021-08-07 12:55:10,741611
1,0,1,4,6,3,1,2,2021-08-07 12:55:10,756612
-3,-2,-4,-5,-9,-6,-3,-1,2021-08-07 12:55:10,756612
-4,0,-1,-2,-5,-1,-2,-1,2021-08-07 12:55:10,772611
3,3,6,11,15,8,5,2,2021-08-07 12:55:10,788612
-3,-4,-5,-8,-11,-10,-8,-6,2021-08-07 12:55:10,788612
3,2,3,8,9,6,3,2,2021-08-07 12:55:10,788612
3,1,2,3,7,4,3,1,2021-08-07 12:55:10,788612
-3,-2,-2,-2,-3,-1,-2,-1,2021-08-07 12:55:10,788612
-1,-1,0,-1,-1,-1,-1,-1,2021-08-07 12:55:10,789613
-4,-3,-4,-7,-11,-7,-5,-4,2021-08-07 12:55:10,789613
2,1,1,-3,-5,-3,-2,0,2021-08-07 12:55:10,789613
-2,-2,-2,-3,-3,-2,0,-1,2021-08-07 12:55:10,789613
-1,1,1,0,2,2,0,0,2021-08-07 12:55:10,789613
-1,0,0,-5,-5,-2,-1,0,2021-08-07 12:55:10,789613
0,-3,-1,-3,0,0,1,-1,2021-08-07 12:55:10,790612
3,1,0,1,-1,2,4,3,2021-08-07 12:55:10,790612
0,-1,-4,-5,-6,-3,-4,1,2021-08-07 12:55:10,790612
-3,0,-1,-1,-2,-4,-6,-4,2021-08-07 12:55:10,790612
-6,-3,-2,2,4,-4,-8,-8,2021-08-07 12:55:10,820612
-1,-1,4,4,4,5,6,2,2021-08-07 12:55:10,836610
3,2,2,2,9,10,14,6,2021-08-07 12:55:10,852611
8,2,1,3,9,11,11,11,2021-08-07 12:55:10,852611
-2,-7,-7,-8,-9,-8,-1,0,2021-08-07 12:55:10,852611
-4,-4,-5,-9,-16,-17,-21,-12,2021-08-07 12:55:10,852611
0,5,3,2,-3,-8,-7,-6,2021-08-07 12:55:10,852611
0,2,1,-1,4,3,-1,1,2021-08-07 12:55:10,852611
0,2,3,6,8,-1,-11,-3,2021-08-07 12:55:10,852611
-21,-15,-14,-12,-17,-24,-23,-16,2021-08-07 12:55:10,853613
1,0,0,4,1,8,6,5,2021-08-07 12:55:10,853613
1,-3,-1,-4,-4,-1,5,1,2021-08-07 12:55:10,853613
10,8,7,3,3,14,21,15,2021-08-07 12:55:10,868612
9,6,5,9,10,12,11,9,2021-08-07 12:55:10,884609
0,1,1,-1,-1,-4,-2,-2,2021-08-07 12:55:10,884609
-3,-3,-5,-3,-2,-1,1,0,2021-08-07 12:55:10,884609
-3,-2,-1,2,3,1,0,-2,2021-08-07 12:55:10,900614
3,5,4,2,3,2,0,2,2021-08-07 12:55:10,915614
-5,-3,-4,-5,-8,-9,-6,-5,2021-08-07 12:55:10,916611
-1,-3,-2,3,7,2,-2,-2,2021-08-07 12:55:10,916611
-4,-1,-3,-3,-4,-5,-5,-4,2021-08-07 12:55:10,916611
1,5,4,-4,-3,1,1,2,2021-08-07 12:55:10,916611
1,-1,-2,0,9,7,3,1,2021-08-07 12:55:10,917614
0,1,2,9,19,7,0,-4,2021-08-07 12:55:10,917614
2,0,-2,-1,-6,-5,1,2,2021-08-07 12:55:10,932615
3,0,-1,-2,-6,-2,2,1,2021-08-07 12:55:10,948611
-13,-10,-8,-8,-12,-9,-8,-11,2021-08-07 12:55:10,948611
2,3,3,6,4,7,5,4,2021-08-07 12:55:10,963611
10,8,4,4,3,-4,-6,3,2021-08-07 12:55:10,963611
-16,-13,-12,-16,-20,-23,-21,-18,2021-08-07 12:55:10,963611
0,-4,-2,-5,-5,-3,-2,0,2021-08-07 12:55:10,963611
-4,-3,-4,-7,-14,-10,-7,-4,2021-08-07 12:55:10,963611
6,7,8,8,16,35,43,20,2021-08-07 12:55:10,979611
20,9,9,14,22,40,43,27,2021-08-07 12:55:10,979611
8,8,6,4,5,-20,-37,-13,2021-08-07 12:55:10,979611
-39,-24,-23,-23,-33,-52,-58,-46,2021-08-07 12:55:10,979611
10,2,3,8,15,17,17,10,2021-08-07 12:55:10,995610
6,7,2,-1,3,-2,-8,5,2021-08-07 12:55:11,011611
-41,-23,-17,-15,-23,-29,-29,-36,2021-08-07 12:55:11,027615
16,12,11,9,20,36,48,32,2021-08-07 12:55:11,027615
12,5,6,-5,-7,2,7,13,2021-08-07 12:55:11,027615
-9,-6,-12,-12,-19,-35,-45,-22,2021-08-07 12:55:11,043611
1,-3,-3,-10,-12,-6,0,-3,2021-08-07 12:55:11,043611
8,3,3,5,8,5,2,6,2021-08-07 12:55:11,059614
-20,-13,-7,-4,-10,-24,-26,-26,2021-08-07 12:55:11,059614
1,4,4,5,4,12,22,10,2021-08-07 12:55:11,059614
3,3,0,-9,-23,-13,-8,3,2021-08-07 12:55:11,059614
-2,-2,-2,12,26,23,19,3,2021-08-07 12:55:11,059614
12,6,6,13,28,36,34,19,2021-08-07 12:55:11,059614
-3,-7,-5,-11,-15,-14,-9,-6,2021-08-07 12:55:11,060612
1,2,0,-2,-7,-10,-8,-2,2021-08-07 12:55:11,060612
13,13,12,20,25,20,17,11,2021-08-07 12:55:11,060612
-1,-4,-6,-5,-5,5,5,3,2021-08-07 12:55:11,075611
-2,1,1,8,16,-16,-33,-11,2021-08-07 12:55:11,075611
-20,-15,-19,-18,-25,-17,-8,-14,2021-08-07 12:55:11,076317
7,2,1,-15,-19,-6,-3,8,2021-08-07 12:55:11,076611
-10,-3,-2,11,18,-4,-21,-18,2021-08-07 12:55:11,107649
-5,-7,-7,-16,-34,-10,13,1,2021-08-07 12:55:11,123648
22,10,11,14,19,34,37,30,2021-08-07 12:55:11,139650
-3,2,4,22,39,14,-7,-10,2021-08-07 12:55:11,139650
-7,1,-3,-10,-16,-15,-11,-6,2021-08-07 12:55:11,139650
6,1,2,12,29,31,26,12,2021-08-07 12:55:11,139650
5,3,1,-13,-13,-11,-5,3,2021-08-07 12:55:11,139650
-11,-11,-11,-26,-60,-44,-25,-16,2021-08-07 12:55:11,139650
-3,-6,-6,-3,1,-3,-4,-3,2021-08-07 12:55:11,140651
8,11,13,17,38,26,13,8,2021-08-07 12:55:11,140651
-3,-2,1,6,11,5,1,-2,2021-08-07 12:55:11,140651
2,1,-2,-13,-20,-6,2,3,2021-08-07 12:55:11,140651
-8,-11,-17,-30,-40,-28,-20,-7,2021-08-07 12:55:11,155648
-11,-12,-10,-18,-22,-18,-17,-12,2021-08-07 12:55:11,171649
8,10,11,31,56,41,24,12,2021-08-07 12:55:11,187648
5,4,8,11,8,3,6,6,2021-08-07 12:55:11,187648
-4,3,4,-4,-20,-15,-13,-7,2021-08-07 12:55:11,202649
1,4,4,20,41,22,10,1,2021-08-07 12:55:11,202649
9,8,6,11,19,20,17,12,2021-08-07 12:55:11,202649
-4,-3,-3,1,1,-6,-8,-5,2021-08-07 12:55:11,202649
-8,-7,-5,-11,-22,-20,-15,-11,2021-08-07 12:55:11,202649
-1,-3,-2,-9,-21,-11,-1,0,2021-08-07 12:55:11,202649
3,-1,1,2,2,3,4,4,2021-08-07 12:55:11,202649
-3,-4,-4,-9,-11,-9,-8,-4,2021-08-07 12:55:11,203649
-2,2,2,2,6,-1,1,-1,2021-08-07 12:55:11,217649
-2,-1,-3,4,8,11,8,2,2021-08-07 12:55:11,233650
0,1,0,2,1,-1,-2,0,2021-08-07 12:55:11,233650
-1,2,0,-7,-12,-10,-6,-4,2021-08-07 12:55:11,233650
1,0,-1,2,6,4,2,3,2021-08-07 12:55:11,233650
-3,-3,-1,-5,-14,-10,-6,-4,2021-08-07 12:55:11,249650
3,2,2,3,10,7,7,4,2021-08-07 12:55:11,249650
3,2,4,10,16,13,5,1,2021-08-07 12:55:11,249650
-1,-2,-1,4,7,6,-1,-2,2021-08-07 12:55:11,249650
0,0,-2,-7,-15,-8,-3,-1,2021-08-07 12:55:11,249650
-2,-4,-8,-13,-21,-15,-8,-3,2021-08-07 12:55:11,249650
3,-1,-1,2,9,7,5,3,2021-08-07 12:55:11,249650
-2,-4,-2,-1,1,-4,-4,-3,2021-08-07 12:55:11,281649
-3,-2,-3,-11,-18,-8,-2,1,2021-08-07 12:55:11,297649
-2,2,4,7,7,5,3,-3,2021-08-07 12:55:11,313173
0,0,1,3,4,2,1,1,2021-08-07 12:55:11,313173
0,0,-2,-3,0,-1,-3,-2,2021-08-07 12:55:11,313173
-4,-7,-2,0,-2,-4,-4,-3,2021-08-07 12:55:11,313173
-1,-5,-3,-6,-9,-5,-2,0,2021-08-07 12:55:11,313173
-2,-1,-3,-6,-3,-1,0,0,2021-08-07 12:55:11,314174
-2,-3,-2,-4,-6,-4,-3,-4,2021-08-07 12:55:11,314174
-1,1,2,0,3,3,0,-1,2021-08-07 12:55:11,314174
3,4,3,3,4,0,1,3,2021-08-07 12:55:11,314174
-5,-4,-6,-8,-12,-7,-5,-3,2021-08-07 12:55:11,314174
0,-2,-1,1,-5,-3,-3,0,2021-08-07 12:55:11,345175
-1,-2,-3,-10,-16,-6,-3,-3,2021-08-07 12:55:11,345175
3,4,4,10,16,8,5,4,2021-08-07 12:55:11,345175
-5,-5,-6,-19,-27,-15,-8,-3,2021-08-07 12:55:11,345175
-1,2,1,9,11,5,0,0,2021-08-07 12:55:11,345175
-1,-2,-2,-5,-1,1,0,-2,2021-08-07 12:55:11,345175
2,5,6,17,24,9,6,2,2021-08-07 12:55:11,361177
-1,-4,0,2,4,1,1,0,2021-08-07 12:55:11,376173
0,1,-1,-5,-9,-4,-3,-1,2021-08-07 12:55:11,376173
-3,-4,-5,-9,-18,-12,-7,-6,2021-08-07 12:55:11,376173
1,-2,-2,-4,-3,1,0,0,2021-08-07 12:55:11,376173
2,1,2,2,4,1,1,3,2021-08-07 12:55:11,376173
-2,-4,-3,-8,-12,-7,-1,-1,2021-08-07 12:55:11,408172
-1,-3,0,5,9,4,2,0,2021-08-07 12:55:11,408172
-2,0,-1,-7,-6,-1,1,-1,2021-08-07 12:55:11,408172
-4,-1,-1,4,8,4,0,-3,2021-08-07 12:55:11,408172
-1,0,3,7,10,2,0,-3,2021-08-07 12:55:11,408172
-2,-1,0,-1,-4,-3,-2,-2,2021-08-07 12:55:11,408172
-1,-3,-4,-5,-9,-3,-4,-1,2021-08-07 12:55:11,424173
1,1,-1,-4,-6,-5,-2,1,2021-08-07 12:55:11,424173
1,1,0,13,15,10,3,1,2021-08-07 12:55:11,436173
9,12,10,14,22,11,9,8,2021-08-07 12:55:11,436173
-4,-6,-6,-13,-20,-13,-8,-6,2021-08-07 12:55:11,436173
1,2,1,4,6,3,2,0,2021-08-07 12:55:11,436173
-2,0,-4,-10,-13,-9,-4,-3,2021-08-07 12:55:11,456173
-1,-3,-5,-5,-10,-5,-3,-2,2021-08-07 12:55:11,456173
-1,-3,-3,-3,-1,0,-1,-1,2021-08-07 12:55:11,471174
1,-2,0,3,4,4,1,1,2021-08-07 12:55:11,471174
0,1,1,0,5,2,1,1,2021-08-07 12:55:11,471174
-4,-4,-3,-1,-9,-6,-5,-2,2021-08-07 12:55:11,471174
-4,-5,-6,-12,-20,-12,-5,-4,2021-08-07 12:55:11,487175
-1,-2,-3,-1,-3,3,1,-2,2021-08-07 12:55:11,487175
-1,-3,-1,-2,-1,0,-1,0,2021-08-07 12:55:11,487175
6,10,11,32,48,27,13,6,2021-08-07 12:55:11,487175
-3,-1,-1,-5,-9,-8,-5,-3,2021-08-07 12:55:11,502173
0,0,-2,-8,-16,-11,-5,0,2021-08-07 12:55:11,502173
-1,-1,-3,-1,-1,2,-1,-1,2021-08-07 12:55:11,518173
-6,-5,-5,-13,-18,-10,-7,-6,2021-08-07 12:55:11,534177
2,3,4,12,19,13,4,3,2021-08-07 12:55:11,534177
0,0,0,3,7,2,-1,-1,2021-08-07 12:55:11,534177
-3,-3,-5,-14,-15,-5,-2,-2,2021-08-07 12:55:11,534177
0,-1,-1,-4,-2,-1,-1,-1,2021-08-07 12:55:11,534177
-1,-2,-3,-1,-1,0,-2,-2,2021-08-07 12:55:11,534177
0,0,-1,-3,-8,-6,-3,-2,2021-08-07 12:55:11,534177
-2,-2,2,3,-3,-3,-3,-1,2021-08-07 12:55:11,550172
2,2,0,2,10,8,4,3,2021-08-07 12:55:11,566173
-2,2,3,-1,-5,-2,0,-2,2021-08-07 12:55:11,566173
3,5,6,18,29,16,7,4,2021-08-07 12:55:11,566173
0,1,-2,2,3,0,0,0,2021-08-07 12:55:11,582176
-2,-5,-9,-22,-12,-5,-2,-2,2021-08-07 12:55:11,598175
-4,-5,-3,-3,-5,-4,-4,-4,2021-08-07 12:55:11,614174
-3,-3,-5,1,3,0,-1,-2,2021-08-07 12:55:11,614174
1,4,7,9,8,4,2,1,2021-08-07 12:55:11,614174
3,5,6,21,23,11,7,3,2021-08-07 12:55:11,614174
1,1,-1,1,4,3,1,2,2021-08-07 12:55:11,614174
-5,-7,-7,-14,-23,-17,-9,-6,2021-08-07 12:55:11,615173
2,0,1,-1,1,2,1,1,2021-08-07 12:55:11,615173
-4,-3,-1,0,-11,-10,-5,-5,2021-08-07 12:55:11,615173
2,1,3,3,-3,1,1,2,2021-08-07 12:55:11,615173
3,3,1,0,14,11,8,4,2021-08-07 12:55:11,615173
-5,-5,-9,-17,-22,-16,-9,-5,2021-08-07 12:55:11,645176
0,0,1,2,2,2,2,1,2021-08-07 12:55:11,661174
2,2,2,8,8,6,5,1,2021-08-07 12:55:11,661174
-2,-2,-5,-6,-9,-6,-4,-2,2021-08-07 12:55:11,661174
1,1,1,-1,1,-1,-1,0,2021-08-07 12:55:11,661174
-5,-3,-5,-11,-19,-11,-7,-3,2021-08-07 12:55:11,661174
-1,0,-1,0,8,2,0,-1,2021-08-07 12:55:11,661174
-1,-3,-2,-1,-8,-4,-3,-1,2021-08-07 12:55:11,662175
1,3,5,1,15,9,5,3,2021-08-07 12:55:11,676171
0,1,1,2,3,0,0,0,2021-08-07 12:55:11,676171
-3,-3,-5,-8,-13,-9,-4,-3,2021-08-07 12:55:11,692171
3,2,3,6,13,10,5,4,2021-08-07 12:55:11,692171
-1,-3,-3,10,10,2,1,-2,2021-08-07 12:55:11,692171
-5,-5,-5,-15,-11,-7,-7,-5,2021-08-07 12:55:11,692171
2,1,4,6,9,3,1,1,2021-08-07 12:55:11,692171
-1,1,1,-2,-11,-7,-5,-3,2021-08-07 12:55:11,693176
-2,-3,-1,-1,-6,-3,-2,0,2021-08-07 12:55:11,724171
-2,0,-2,3,2,-2,-2,-2,2021-08-07 12:55:11,724171
-4,-5,-5,-12,-18,-12,-6,-3,2021-08-07 12:55:11,724171
-2,-1,-1,1,5,2,2,-1,2021-08-07 12:55:11,724171
0,-1,-3,-3,0,2,3,-1,2021-08-07 12:55:11,739173
2,1,4,9,13,6,2,1,2021-08-07 12:55:11,739173
-4,-3,-5,-5,-10,-4,-4,-3,2021-08-07 12:55:11,739173
4,6,6,14,16,7,4,4,2021-08-07 12:55:11,739173
-3,-2,-6,-19,-25,-12,-6,-2,2021-08-07 12:55:11,755173
-2,-2,-1,0,11,2,-1,-1,2021-08-07 12:55:11,771172
2,1,2,2,4,2,4,3,2021-08-07 12:55:11,771172
-3,-3,-2,-6,-12,-9,-4,-3,2021-08-07 12:55:11,771172
4,6,6,21,29,17,10,4,2021-08-07 12:55:11,771172
-1,0,-2,-2,-10,-4,-2,1,2021-08-07 12:55:11,771172
-2,-1,-2,-9,-7,-4,-3,-2,2021-08-07 12:55:11,786176
-3,-3,-5,-8,-7,-4,-2,-2,2021-08-07 12:55:11,786176
-4,-4,0,-1,-12,-11,-6,-3,2021-08-07 12:55:11,802173
-2,-4,-3,0,-1,2,2,-2,2021-08-07 12:55:11,818173
2,5,7,12,23,10,5,3,2021-08-07 12:55:11,834173
-1,0,-1,-4,-4,-2,-2,-1,2021-08-07 12:55:11,834173
-1,-4,-1,-5,-5,-3,-4,-6,2021-08-07 12:55:11,834173
-1,-2,-2,-4,-6,-3,-2,-3,2021-08-07 12:55:11,834173
0,-1,-3,-6,-8,-5,-2,0,2021-08-07 12:55:11,834173
2,3,1,11,18,11,4,2,2021-08-07 12:55:11,834173
0,0,2,5,9,5,2,0,2021-08-07 12:55:11,835173
2,4,4,0,-6,-3,-2,1,2021-08-07 12:55:11,835173
1,-1,1,3,1,0,0,1,2021-08-07 12:55:11,850173
0,-1,-2,-4,-7,-6,-2,-1,2021-08-07 12:55:11,850173
-4,-4,-8,-12,-14,-11,-7,-4,2021-08-07 12:55:11,850173
-1,0,-3,-6,-2,-1,0,0,2021-08-07 12:55:11,850173
-2,0,-1,7,14,8,4,-1,2021-08-07 12:55:11,866173
0,3,4,8,8,5,1,2,2021-08-07 12:55:11,882175
-3,-1,0,1,-3,-3,-2,1,2021-08-07 12:55:11,882175
-1,-3,-2,-8,-8,-7,-5,-2,2021-08-07 12:55:11,882175
-2,-2,-2,-6,-14,-12,-6,-4,2021-08-07 12:55:11,882732
-6,-8,-5,-11,-21,-10,-5,-6,2021-08-07 12:55:11,882732
4,4,3,4,12,13,7,4,2021-08-07 12:55:11,898217
-3,-5,-1,7,2,-1,-2,-4,2021-08-07 12:55:11,914216
3,4,4,5,11,10,4,3,2021-08-07 12:55:11,914216
1,-1,2,1,-3,-3,-1,-1,2021-08-07 12:55:11,914216
-3,-3,-3,-11,-17,-9,-6,-4,2021-08-07 12:55:11,914216
-3,-4,-5,-2,-6,-3,-2,-3,2021-08-07 12:55:11,914216
-4,-6,-7,-16,-15,-6,-5,-4,2021-08-07 12:55:11,914216
0,1,0,-2,-6,-6,-2,0,2021-08-07 12:55:11,915216
3,2,2,1,6,5,3,2,2021-08-07 12:55:11,942216
0,-1,1,1,7,4,2,2,2021-08-07 12:55:11,942216
-2,-1,0,4,-3,-2,-3,-1,2021-08-07 12:55:11,943217
1,2,1,1,4,4,3,2,2021-08-07 12:55:11,943217
0,3,2,11,9,-1,-1,0,2021-08-07 12:55:11,961216
-3,-3,-4,-6,-11,-4,-2,-2,2021-08-07 12:55:11,977218
-2,-3,-2,-9,-8,-4,-3,-3,2021-08-07 12:55:11,993218
0,-2,-1,-3,-3,-1,-2,-1,2021-08-07 12:55:11,993218
-1,-2,-3,-2,-3,-2,-3,-2,2021-08-07 12:55:11,993218
7,10,9,16,19,12,7,6,2021-08-07 12:55:11,993218
0,1,3,14,15,7,3,0,2021-08-07 12:55:11,993218
-3,-3,-4,-3,1,1,-1,-2,2021-08-07 12:55:11,994220
0,-1,-2,-2,-3,-4,-1,-1,2021-08-07 12:55:12,009216
-3,-3,-3,-8,-13,-10,-5,-4,2021-08-07 12:55:12,009216
0,0,-2,1,2,1,1,-1,2021-08-07 12:55:12,025215
-7,-10,-10,-15,-21,-14,-10,-8,2021-08-07 12:55:12,025215
3,6,5,6,1,5,2,3,2021-08-07 12:55:12,025215
2,4,5,10,15,9,4,0,2021-08-07 12:55:12,025215
1,1,-5,-7,-6,0,2,2,2021-08-07 12:55:12,025215
-5,-7,-8,-17,-8,-4,-5,-4,2021-08-07 12:55:12,026216
-6,-7,-4,-9,-13,-9,-7,-5,2021-08-07 12:55:12,026216
-1,0,-2,-2,-4,-3,-2,0,2021-08-07 12:55:12,026216
0,1,0,6,4,0,-1,-1,2021-08-07 12:55:12,041216
6,7,6,21,25,15,7,5,2021-08-07 12:55:12,041216
-1,1,1,-6,-6,-3,0,-1,2021-08-07 12:55:12,056216
0,2,1,10,16,7,2,-1,2021-08-07 12:55:12,056216
-4,-4,-5,-7,-11,-10,-6,-5,2021-08-07 12:55:12,056216
-3,-2,-4,-11,-12,-7,-3,-2,2021-08-07 12:55:12,056216
-1,-3,-1,-4,-1,2,0,-1,2021-08-07 12:55:12,088215
-1,1,-1,-1,-2,-4,-1,1,2021-08-07 12:55:12,088215
1,1,0,0,7,5,1,1,2021-08-07 12:55:12,088215
3,2,6,17,15,6,3,0,2021-08-07 12:55:12,088215
-1,-3,-4,-3,-7,-6,-4,0,2021-08-07 12:55:12,088215
0,-3,-3,-9,-16,-8,-5,-1,2021-08-07 12:55:12,088215
-2,-3,-2,-6,0,-2,-1,1,2021-08-07 12:55:12,104218
3,3,4,10,14,8,3,1,2021-08-07 12:55:12,104444
0,0,-1,2,-1,-4,-3,-2,2021-08-07 12:55:12,119734
1,1,2,5,4,2,1,1,2021-08-07 12:55:12,119734
-4,-3,-1,-1,-5,-3,-2,-2,2021-08-07 12:55:12,119734
1,0,-4,-18,-10,0,1,2,2021-08-07 12:55:12,119734
-2,-1,-2,3,10,4,1,-2,2021-08-07 12:55:12,150734
-1,-2,-2,-4,-11,-8,-6,-4,2021-08-07 12:55:12,150734
4,5,5,9,7,5,4,2,2021-08-07 12:55:12,150734
-2,-3,-3,-6,-11,-9,-4,-2,2021-08-07 12:55:12,150734
-4,-6,-5,-5,-2,-3,-4,-5,2021-08-07 12:55:12,166735
-3,-3,-2,-8,-8,-2,-2,-1,2021-08-07 12:55:12,181737
3,4,4,18,24,15,6,4,2021-08-07 12:55:12,181737
1,1,2,4,0,1,1,-1,2021-08-07 12:55:12,181737
1,1,2,1,-1,0,-1,1,2021-08-07 12:55:12,181737
-5,-5,-4,-6,-9,-6,-4,-3,2021-08-07 12:55:12,181737
-2,-1,-2,-4,0,-1,-2,-1,2021-08-07 12:55:12,182735
0,1,2,3,6,2,0,2,2021-08-07 12:55:12,182735
-7,-8,-7,-15,-31,-18,-8,-6,2021-08-07 12:55:12,213734
6,6,4,11,27,22,14,6,2021-08-07 12:55:12,213734
4,7,6,7,5,4,5,4,2021-08-07 12:55:12,229735
1,1,4,11,5,-2,1,0,2021-08-07 12:55:12,229735
2,1,-1,-1,3,1,-1,0,2021-08-07 12:55:12,229735
-6,-7,-9,-16,-21,-14,-8,-3,2021-08-07 12:55:12,229735
-8,-11,-13,-35,-30,-17,-12,-9,2021-08-07 12:55:12,229735
-2,0,0,-4,-6,-3,-1,0,2021-08-07 12:55:12,230736
9,11,12,26,43,28,17,9,2021-08-07 12:55:12,230736
-1,-2,-1,4,1,-2,-1,-1,2021-08-07 12:55:12,230736
4,4,4,15,7,4,3,4,2021-08-07 12:55:12,230736
-7,-10,-9,-17,-23,-15,-9,-6,2021-08-07 12:55:12,245733
-2,-4,-2,5,15,9,4,0,2021-08-07 12:55:12,261737
-2,0,3,0,-3,-3,-2,-3,2021-08-07 12:55:12,261737
-1,1,2,2,-1,-2,-2,-3,2021-08-07 12:55:12,261737
-1,1,0,-5,-9,-6,-5,-3,2021-08-07 12:55:12,261737
-1,0,1,1,-3,-2,0,1,2021-08-07 12:55:12,277736
2,2,0,-2,5,7,2,1,2021-08-07 12:55:12,277736
-1,-2,-1,0,-1,-4,-2,-1,2021-08-07 12:55:12,293734
-1,-1,-1,5,4,3,1,-1,2021-08-07 12:55:12,293734
3,2,-2,-5,1,0,0,0,2021-08-07 12:55:12,293734
-4,-4,-5,-11,-17,-13,-7,-5,2021-08-07 12:55:12,293734
-2,-2,-2,-5,-11,-6,-4,-4,2021-08-07 12:55:12,293734
-4,-4,-4,-5,-3,-2,-1,-3,2021-08-07 12:55:12,294737
0,4,3,6,9,5,3,2,2021-08-07 12:55:12,325735
1,0,-1,4,2,1,1,1,2021-08-07 12:55:12,325735
-1,-2,-4,-9,-12,-5,-4,0,2021-08-07 12:55:12,341735
-1,1,1,5,12,8,3,1,2021-08-07 12:55:12,341735
-3,-1,-3,-1,-4,-3,-2,-3,2021-08-07 12:55:12,341735
-1,0,-1,-3,-5,-5,-3,-1,2021-08-07 12:55:12,341735
1,0,-2,-2,-1,1,4,1,2021-08-07 12:55:12,341735
3,1,-1,1,7,5,2,1,2021-08-07 12:55:12,341735
-2,-3,-1,-3,1,0,-1,1,2021-08-07 12:55:12,357735
0,-1,1,5,9,3,0,-1,2021-08-07 12:55:12,357735
-3,-1,-3,-2,-12,-10,-4,-5,2021-08-07 12:55:12,357735
-1,1,0,-8,-11,-5,-3,0,2021-08-07 12:55:12,357735
-2,-3,-4,-5,-5,-4,-3,-2,2021-08-07 12:55:12,388734
-1,0,1,-5,-9,-5,-2,-2,2021-08-07 12:55:12,388734
2,-1,1,1,11,6,4,2,2021-08-07 12:55:12,388734
-1,-1,-3,-2,-1,-3,-1,-1,2021-08-07 12:55:12,388734
2,3,7,12,4,7,2,1,2021-08-07 12:55:12,404734
-3,-3,-2,8,5,1,-1,-2,2021-08-07 12:55:12,404734
0,0,-1,5,6,4,3,2,2021-08-07 12:55:12,404734
2,0,-3,-12,0,1,1,2,2021-08-07 12:55:12,404734
-9,-12,-8,-27,-30,-20,-14,-9,2021-08-07 12:55:12,419734
-3,-1,4,-3,-7,-5,-2,-2,2021-08-07 12:55:12,419734
4,5,-3,18,27,19,8,5,2021-08-07 12:55:12,419734
1,3,4,15,6,0,1,1,2021-08-07 12:55:12,419734
0,1,-3,-2,-8,-7,-3,-1,2021-08-07 12:55:12,450773
0,-1,1,-2,0,2,2,1,2021-08-07 12:55:12,456774
-2,0,2,-3,-1,-3,-2,-2,2021-08-07 12:55:12,457777
-2,-1,-2,0,-2,0,-2,-1,2021-08-07 12:55:12,457777
-1,1,-1,1,11,5,2,2,2021-08-07 12:55:12,466773
-2,-2,-6,-11,-18,-11,-7,-3,2021-08-07 12:55:12,466773
-2,-2,-1,-4,-5,-2,-2,-1,2021-08-07 12:55:12,466773
-1,0,2,3,4,2,1,0,2021-08-07 12:55:12,466773
-1,-2,0,-6,-11,-4,-2,-4,2021-08-07 12:55:12,482776
2,0,-1,2,8,4,1,1,2021-08-07 12:55:12,482776
-1,1,2,-2,-2,-4,-2,-1,2021-08-07 12:55:12,482776
0,2,2,6,5,2,-1,1,2021-08-07 12:55:12,482776
0,3,-1,4,2,3,2,1,2021-08-07 12:55:12,498775
-3,-4,-8,-14,-10,-4,-4,-3,2021-08-07 12:55:12,514775
-3,-5,-5,-18,-17,-11,-8,-5,2021-08-07 12:55:12,514775
1,1,3,11,19,12,5,2,2021-08-07 12:55:12,514775
0,0,-1,5,0,0,0,0,2021-08-07 12:55:12,514775
3,2,2,8,5,2,2,3,2021-08-07 12:55:12,514775
0,-2,0,3,1,-3,-2,-2,2021-08-07 12:55:12,530775
-4,-3,-4,-9,-10,-8,-6,-3,2021-08-07 12:55:12,530775
-1,-3,-4,-8,-10,-3,-2,-2,2021-08-07 12:55:12,530775
0,0,0,-2,1,-1,2,-2,2021-08-07 12:55:12,530775
-1,2,2,3,1,1,1,-2,2021-08-07 12:55:12,530775
-3,-2,-3,0,0,0,-1,-1,2021-08-07 12:55:12,530775
1,-1,1,3,5,2,0,1,2021-08-07 12:55:12,561773
-1,-1,0,-6,-6,-3,-1,-1,2021-08-07 12:55:12,561773
-2,-4,-1,-5,-11,-6,-4,-2,2021-08-07 12:55:12,577775
1,1,0,4,4,1,-1,0,2021-08-07 12:55:12,593774
0,1,2,6,6,4,2,1,2021-08-07 12:55:12,609775
6,7,7,30,47,31,15,6,2021-08-07 12:55:12,625772
-3,-5,-6,-8,-5,-3,-3,-2,2021-08-07 12:55:12,625772
-2,-2,-3,-9,-11,-8,-3,-3,2021-08-07 12:55:12,625772
-3,-2,-2,0,-2,-6,-3,-2,2021-08-07 12:55:12,641776
0,-2,-1,-6,-7,-5,-4,-2,2021-08-07 12:55:12,641776
-1,-1,-2,-5,-5,0,-2,0,2021-08-07 12:55:12,641776
-1,-3,0,-6,-8,-4,-4,-3,2021-08-07 12:55:12,641776
-1,-1,-2,-7,-8,-4,-2,-1,2021-08-07 12:55:12,641776
-2,-2,-3,2,-1,-1,-1,-1,2021-08-07 12:55:12,641776
0,1,2,7,7,2,0,-1,2021-08-07 12:55:12,642775
0,1,1,3,-5,-4,-1,1,2021-08-07 12:55:12,642775
0,0,-2,2,-2,0,-1,1,2021-08-07 12:55:12,642775
-2,-2,-2,0,9,3,0,-2,2021-08-07 12:55:12,642775
3,3,0,-2,8,6,4,3,2021-08-07 12:55:12,642775
-1,-1,-1,-4,-3,-2,0,0,2021-08-07 12:55:12,642775
-1,-2,0,-3,-6,-4,-4,-2,2021-08-07 12:55:12,657774
-7,-5,-5,-8,-16,-13,-9,-4,2021-08-07 12:55:12,658010
3,4,6,10,8,7,4,3,2021-08-07 12:55:12,658010
2,2,2,1,5,4,2,-1,2021-08-07 12:55:12,658010
-2,-1,-1,-7,-5,-6,-2,-2,2021-08-07 12:55:12,688308
0,0,0,5,3,2,1,-1,2021-08-07 12:55:12,688308
0,0,3,7,11,3,2,0,2021-08-07 12:55:12,688308
-3,-6,-8,-14,-12,-6,-5,-4,2021-08-07 12:55:12,688308
3,1,6,-5,6,3,1,1,2021-08-07 12:55:12,704308
0,-1,-10,-5,-8,-7,-2,0,2021-08-07 12:55:12,719310
-3,-4,-1,4,-2,-1,-2,-4,2021-08-07 12:55:12,735352
0,1,3,9,1,-1,-2,-1,2021-08-07 12:55:12,751352
-1,-4,-5,-6,-6,-3,-2,-2,2021-08-07 12:55:12,767352
0,-1,0,-5,-8,0,1,0,2021-08-07 12:55:12,783349
-3,-4,-6,-19,-5,-4,-5,-2,2021-08-07 12:55:12,815352
3,3,5,13,19,12,7,3,2021-08-07 12:55:12,831352
-1,-1,-3,3,-4,-5,-2,-2,2021-08-07 12:55:12,831352
1,2,3,4,-1,2,1,0,2021-08-07 12:55:12,846351
-1,-3,-6,-4,-15,-9,-4,-3,2021-08-07 12:55:12,862351
1,-1,0,-5,7,6,1,2,2021-08-07 12:55:12,862351
-1,-2,-2,-3,0,-1,0,-2,2021-08-07 12:55:12,862351
1,-1,0,1,-3,-4,-3,-1,2021-08-07 12:55:12,862351
-1,-2,0,3,-1,-1,1,0,2021-08-07 12:55:12,862351
-3,-5,-6,-15,-15,-8,-3,-3,2021-08-07 12:55:12,863351
-1,-1,0,6,11,8,3,-1,2021-08-07 12:55:12,863351
-2,-2,-1,-6,-5,-5,-4,-3,2021-08-07 12:55:12,863351
3,2,4,3,2,2,1,3,2021-08-07 12:55:12,863351
1,2,3,11,6,1,1,0,2021-08-07 12:55:12,863351
0,-4,-6,-5,0,-1,-2,-3,2021-08-07 12:55:12,864353
-1,0,1,-3,-4,-2,-1,0,2021-08-07 12:55:12,864353
-1,2,1,4,7,3,1,0,2021-08-07 12:55:12,864353
-1,-2,-4,-5,-7,-4,-1,0,2021-08-07 12:55:12,864353
-1,-1,0,2,7,2,0,1,2021-08-07 12:55:12,878353
0,1,1,4,6,0,1,0,2021-08-07 12:55:12,878353
0,0,-1,0,-3,-3,-2,-2,2021-08-07 12:55:12,878353
-2,-3,-3,-9,-12,-5,-4,-4,2021-08-07 12:55:12,894354
-3,-4,-6,-7,-5,-5,-1,-4,2021-08-07 12:55:12,910352
-1,0,0,-7,-10,-5,-2,0,2021-08-07 12:55:12,926353
4,5,6,14,22,18,9,5,2021-08-07 12:55:12,926353
-2,-1,0,5,-1,-4,-4,-2,2021-08-07 12:55:12,926353
-2,1,2,3,2,1,1,1,2021-08-07 12:55:12,942352
-3,-5,-9,-11,-10,-8,-5,-4,2021-08-07 12:55:12,942603
-3,-4,-5,-12,-8,-3,-2,-3,2021-08-07 12:55:12,942603
0,0,1,3,2,2,1,-1,2021-08-07 12:55:12,942603
3,6,3,7,3,4,3,3,2021-08-07 12:55:12,942603
0,-1,2,6,5,-1,-1,1,2021-08-07 12:55:12,943353
-1,-1,-2,-9,-11,-5,-2,-2,2021-08-07 12:55:12,943353
-5,-6,-5,-7,-12,-5,-5,-4,2021-08-07 12:55:12,943353
4,4,3,13,24,14,8,4,2021-08-07 12:55:12,943353
1,2,-2,-2,-1,1,0,1,2021-08-07 12:55:12,943353
-3,-4,-5,-4,-6,-5,-2,-3,2021-08-07 12:55:12,943353
-2,-1,-1,-4,-11,-11,-6,-1,2021-08-07 12:55:12,944354
-3,-1,-2,-5,-16,-6,-5,-4,2021-08-07 12:55:12,944354
2,0,2,8,23,18,6,1,2021-08-07 12:55:12,944354
1,0,-1,-5,1,0,-1,1,2021-08-07 12:55:12,944354
0,-2,-1,-6,-7,-4,0,-2,2021-08-07 12:55:12,944354
-1,-3,0,1,-4,-4,-3,-1,2021-08-07 12:55:12,944354
-1,1,2,1,0,-3,-1,0,2021-08-07 12:55:12,944354
-3,-4,-2,0,-10,-9,-5,-5,2021-08-07 12:55:12,944354
2,3,2,1,8,8,4,3,2021-08-07 12:55:12,945352
1,3,2,-4,-1,1,1,1,2021-08-07 12:55:12,957877
0,2,0,4,7,5,2,0,2021-08-07 12:55:12,957877
1,2,1,7,5,1,0,1,2021-08-07 12:55:12,957877
-4,-6,-8,-17,-14,-8,-5,-3,2021-08-07 12:55:12,957877
0,-2,0,-2,7,2,3,-1,2021-08-07 12:55:12,981876
-2,-2,0,-5,-10,-5,-4,-2,2021-08-07 12:55:12,981876
0,2,3,9,9,5,2,0,2021-08-07 12:55:12,981876
0,0,0,6,2,-5,-2,1,2021-08-07 12:55:12,982875
-3,-3,-7,-14,-18,-6,-4,-3,2021-08-07 12:55:13,003875
0,-2,-3,-8,-4,-2,1,1,2021-08-07 12:55:13,018876
0,-1,2,-1,0,-1,-1,-2,2021-08-07 12:55:13,034875
3,4,2,8,9,6,3,2,2021-08-07 12:55:13,034875
-1,-3,-4,1,-1,-4,-2,-2,2021-08-07 12:55:13,034875
-2,-2,0,-4,-10,-8,-4,-3,2021-08-07 12:55:13,034875
0,0,-2,1,-5,-1,-1,0,2021-08-07 12:55:13,034875
0,0,0,1,15,10,4,3,2021-08-07 12:55:13,034875
-2,0,-3,1,-4,-3,-2,-1,2021-08-07 12:55:13,035879
2,1,0,-4,3,5,3,0,2021-08-07 12:55:13,035879
-1,-4,-4,-7,-7,-7,-4,-3,2021-08-07 12:55:13,035879
-4,-4,3,-2,-11,-9,-7,-4,2021-08-07 12:55:13,035879
1,2,2,14,22,10,3,2,2021-08-07 12:55:13,065877
0,1,-5,4,6,5,2,0,2021-08-07 12:55:13,065877
-1,-1,-3,-8,-5,-3,-1,1,2021-08-07 12:55:13,065877
-2,-3,-5,-5,-9,-5,-5,-3,2021-08-07 12:55:13,065877
-2,-1,1,-4,-8,0,-2,-1,2021-08-07 12:55:13,081876
3,2,8,15,22,13,6,2,2021-08-07 12:55:13,097876
1,2,-1,-1,-1,0,1,2,2021-08-07 12:55:13,097876
-2,-2,-2,-3,-2,-3,0,-3,2021-08-07 12:55:13,097876
-3,-3,-3,-11,-21,-16,-8,-3,2021-08-07 12:55:13,097876
-3,-4,-4,-2,-9,-7,-6,-4,2021-08-07 12:55:13,097876
1,2,2,5,7,6,4,3,2021-08-07 12:55:13,098878
-1,-4,-5,-6,-1,0,1,1,2021-08-07 12:55:13,098878
3,1,3,6,9,5,4,1,2021-08-07 12:55:13,129879
-2,1,2,2,-1,0,0,-1,2021-08-07 12:55:13,145875
-5,-3,0,-2,-8,-6,-4,-4,2021-08-07 12:55:13,161874
0,1,2,8,11,4,1,-2,2021-08-07 12:55:13,161874
-5,-7,-6,-9,-9,-8,-5,-4,2021-08-07 12:55:13,161874
3,5,8,9,16,9,6,5,2021-08-07 12:55:13,161874
1,0,2,1,-7,-7,-3,-1,2021-08-07 12:55:13,161874
0,3,-1,-2,-2,-1,1,2,2021-08-07 12:55:13,161874
-1,1,-2,6,11,8,5,0,2021-08-07 12:55:13,162876
-2,-4,-6,-4,-11,-9,-4,-3,2021-08-07 12:55:13,162876
1,1,0,-5,0,3,3,0,2021-08-07 12:55:13,162876
0,1,2,1,3,4,1,-1,2021-08-07 12:55:13,162876
-1,-2,1,-1,-3,-5,-5,-3,2021-08-07 12:55:13,177876
-4,-3,-2,-1,-7,-8,-4,-3,2021-08-07 12:55:13,193875
0,-1,0,5,0,-2,-1,-1,2021-08-07 12:55:13,209875
1,0,-1,1,7,4,3,0,2021-08-07 12:55:13,209875
-3,-5,-8,-24,-21,-9,-5,-2,2021-08-07 12:55:13,209875
-1,-1,0,-2,3,3,0,1,2021-08-07 12:55:13,209875
1,-1,2,1,-3,-1,-1,-1,2021-08-07 12:55:13,209875
3,4,4,11,6,4,1,1,2021-08-07 12:55:13,209875
0,0,2,13,11,4,1,0,2021-08-07 12:55:13,225873
3,4,1,-5,-2,0,0,2,2021-08-07 12:55:13,225873
-4,-4,-7,-15,-12,-7,-3,-2,2021-08-07 12:55:13,225873
-1,-1,-1,1,5,5,2,1,2021-08-07 12:55:13,225873
-5,-3,-3,-8,-8,-6,-4,-2,2021-08-07 12:55:13,241874
-2,-3,-1,-4,-15,-9,-5,-3,2021-08-07 12:55:13,241874
5,5,5,19,26,13,7,5,2021-08-07 12:55:13,241874
2,3,2,8,13,8,6,2,2021-08-07 12:55:13,241874
-3,-3,-4,-2,-1,-2,-1,-2,2021-08-07 12:55:13,257875
-4,-3,-4,-14,-19,-13,-6,-3,2021-08-07 12:55:13,257875
-2,0,1,-3,-7,-2,-3,-1,2021-08-07 12:55:13,257875
0,0,0,11,15,7,3,0,2021-08-07 12:55:13,257875
0,3,2,0,0,0,0,2,2021-08-07 12:55:13,288874
-2,-4,-6,-12,-8,-5,-5,-4,2021-08-07 12:55:13,288874
-3,-3,-5,-9,-8,-6,-3,-2,2021-08-07 12:55:13,288874
-2,-4,-4,-11,-16,-8,-5,-2,2021-08-07 12:55:13,288874
1,2,2,10,3,3,3,0,2021-08-07 12:55:13,304873
-1,2,2,11,9,5,2,1,2021-08-07 12:55:13,320874
-2,-4,-3,-3,-4,-4,-1,-2,2021-08-07 12:55:13,335873
1,-1,-6,-15,-5,0,-1,1,2021-08-07 12:55:13,335873
-5,-8,-8,-20,-24,-16,-9,-5,2021-08-07 12:55:13,335873
-2,-1,1,3,3,0,2,0,2021-08-07 12:55:13,335873
0,1,1,13,11,4,0,0,2021-08-07 12:55:13,335873
0,0,-1,1,-7,-5,-2,-1,2021-08-07 12:55:13,336875
4,4,5,4,12,8,5,2,2021-08-07 12:55:13,336875
1,2,3,6,16,8,3,1,2021-08-07 12:55:13,336875
-2,0,0,5,4,1,-1,-2,2021-08-07 12:55:13,336875
-2,-4,-4,-11,-17,-13,-7,-2,2021-08-07 12:55:13,336875
-1,-1,-2,-7,-6,0,-1,0,2021-08-07 12:55:13,367874
-2,-3,-1,2,-1,0,-2,-3,2021-08-07 12:55:13,383874
-1,-2,-1,-5,-5,-4,-4,-1,2021-08-07 12:55:13,399875
-4,-4,-1,-5,-5,-5,-3,-4,2021-08-07 12:55:13,399875
3,3,2,2,4,4,4,3,2021-08-07 12:55:13,399875
3,1,1,6,5,4,3,2,2021-08-07 12:55:13,399875
1,3,2,9,13,6,3,2,2021-08-07 12:55:13,399875
-1,-1,0,3,0,1,-1,-4,2021-08-07 12:55:13,399875
0,2,1,3,6,2,2,2,2021-08-07 12:55:13,400876
-6,-9,-12,-24,-24,-15,-8,-7,2021-08-07 12:55:13,400876
-4,-5,-4,-12,-9,-5,-3,-5,2021-08-07 12:55:13,400876
0,1,4,5,-2,-1,1,1,2021-08-07 12:55:13,400876
-2,-3,-2,6,4,0,-3,-2,2021-08-07 12:55:13,430874
3,6,7,10,10,9,6,4,2021-08-07 12:55:13,430874
4,4,5,10,17,10,5,4,2021-08-07 12:55:13,430874
-2,-3,-2,-4,-2,-2,-1,-2,2021-08-07 12:55:13,430874
2,2,2,9,5,3,3,1,2021-08-07 12:55:13,446874
-3,-5,-7,-16,-18,-12,-6,-3,2021-08-07 12:55:13,448874
-2,-7,-9,-22,-18,-10,-6,-4,2021-08-07 12:55:13,449877
-2,-3,-5,-8,-7,-5,-4,0,2021-08-07 12:55:13,449877
