EMG 1,EMG 2,EMG 3,EMG 4,EMG 5,EMG 6,EMG 7,EMG 8,Timestamp,Milliseconds
0,1,0,2,1,1,1,0,2021-08-07 12:44:39,853604
-2,-3,-2,-1,-3,-2,-4,-3,2021-08-07 12:44:39,869603
0,0,0,0,2,1,1,1,2021-08-07 12:44:39,869603
1,-1,-1,3,1,1,-1,0,2021-08-07 12:44:39,869603
0,0,-1,-5,-1,-1,1,0,2021-08-07 12:44:39,869603
-4,-6,-6,-10,-8,-4,-3,-5,2021-08-07 12:44:39,869603
0,2,3,10,9,7,3,0,2021-08-07 12:44:39,869603
6,11,13,23,24,16,10,6,2021-08-07 12:44:39,869603
-2,-6,-10,-14,-14,-8,-3,0,2021-08-07 12:44:39,870604
-7,-10,-13,-27,-36,-29,-17,-8,2021-08-07 12:44:39,870604
-3,-8,-4,-9,-11,-7,-6,-4,2021-08-07 12:44:39,870604
2,2,8,20,22,16,7,2,2021-08-07 12:44:39,870604
5,7,10,24,29,21,11,4,2021-08-07 12:44:39,870604
-7,-12,-14,-27,-26,-20,-10,-6,2021-08-07 12:44:39,870604
-1,0,-2,-10,-19,-12,-6,-2,2021-08-07 12:44:39,885602
-2,-1,-1,-4,-4,-1,0,-1,2021-08-07 12:44:39,885602
0,1,2,3,6,4,1,0,2021-08-07 12:44:39,900603
3,7,7,13,16,14,7,3,2021-08-07 12:44:39,916602
-1,-1,-1,7,10,4,1,0,2021-08-07 12:44:39,916602
0,1,2,-3,-2,-3,-3,0,2021-08-07 12:44:39,916602
-2,-5,-4,-4,-6,-6,-5,-4,2021-08-07 12:44:39,916602
-3,-2,-1,4,1,0,1,-2,2021-08-07 12:44:39,916602
-1,0,-1,-3,-8,-5,-1,-3,2021-08-07 12:44:39,947602
0,-1,-1,-6,-4,-1,0,0,2021-08-07 12:44:39,947602
-3,-3,-3,-3,-8,-5,-4,-3,2021-08-07 12:44:39,994602
-1,-2,0,-7,-7,-4,-3,-2,2021-08-07 12:44:39,994602
4,3,2,4,6,3,3,2,2021-08-07 12:44:39,994602
-1,0,-1,0,5,2,1,0,2021-08-07 12:44:39,994602
-3,-3,-7,-7,-7,-6,-4,-2,2021-08-07 12:44:39,994602
2,1,0,6,8,4,3,3,2021-08-07 12:44:39,994602
-1,-1,0,3,2,1,-1,1,2021-08-07 12:44:39,994602
-3,-6,-6,-6,-8,-6,-5,-4,2021-08-07 12:44:39,995603
3,5,6,6,5,4,2,1,2021-08-07 12:44:39,995603
-3,-1,-1,-3,-2,-2,0,-2,2021-08-07 12:44:39,995603
-1,0,-1,-2,-3,-1,-1,-2,2021-08-07 12:44:39,995603
-1,0,-1,-2,-2,-2,-1,0,2021-08-07 12:44:39,995603
-2,-2,-2,3,5,1,0,-2,2021-08-07 12:44:39,995603
-1,0,-2,-2,-7,-5,-3,-2,2021-08-07 12:44:39,995603
1,-1,2,0,3,3,3,1,2021-08-07 12:44:40,026603
-2,-2,-1,-4,-8,-6,-5,-4,2021-08-07 12:44:40,026603
0,0,0,2,-2,-1,-1,0,2021-08-07 12:44:40,026603
-2,-2,-4,-5,-6,-2,-3,0,2021-08-07 12:44:40,026603
4,3,3,6,18,11,5,4,2021-08-07 12:44:40,035603
0,-1,-2,-1,-1,-1,2,-1,2021-08-07 12:44:40,036603
0,-2,-1,-3,-3,-2,-2,-1,2021-08-07 12:44:40,058602
0,3,1,9,3,1,-1,0,2021-08-07 12:44:40,073603
-7,-9,-10,-12,-19,-13,-8,-6,2021-08-07 12:44:40,089602
3,5,7,11,14,7,3,2,2021-08-07 12:44:40,089602
-1,-1,-1,0,0,-1,0,-1,2021-08-07 12:44:40,089602
-2,-5,-3,-8,-7,-3,-2,0,2021-08-07 12:44:40,089602
-3,-3,-2,-5,-13,-9,-6,-2,2021-08-07 12:44:40,089602
1,-1,-2,3,8,6,1,0,2021-08-07 12:44:40,090604
0,-1,-4,-6,-2,-1,0,0,2021-08-07 12:44:40,090604
1,2,3,0,-3,-6,-2,0,2021-08-07 12:44:40,090604
-2,-2,-1,1,6,5,0,0,2021-08-07 12:44:40,105603
-4,-5,-6,-8,-11,-7,-5,-3,2021-08-07 12:44:40,121601
0,4,4,4,6,4,2,2,2021-08-07 12:44:40,121601
0,-2,-3,0,3,4,3,0,2021-08-07 12:44:40,121601
1,1,0,-4,-11,-8,-2,-2,2021-08-07 12:44:40,121601
-2,-2,-1,0,-3,-4,-3,-1,2021-08-07 12:44:40,121601
-2,-5,-6,-5,-1,-1,-1,-1,2021-08-07 12:44:40,121601
2,3,5,4,5,1,2,2,2021-08-07 12:44:40,121601
0,0,1,-1,-2,-1,0,0,2021-08-07 12:44:40,153603
-3,-1,-4,-10,-11,-5,-4,-2,2021-08-07 12:44:40,169602
0,0,2,2,3,0,0,0,2021-08-07 12:44:40,169602
-1,-1,-2,2,1,0,0,-2,2021-08-07 12:44:40,169602
-1,-3,-5,-4,-2,-2,0,-1,2021-08-07 12:44:40,169602
0,1,1,6,7,5,3,1,2021-08-07 12:44:40,169602
0,-1,-1,0,0,-1,-1,-1,2021-08-07 12:44:40,169602
-1,-2,-2,-7,-9,-6,-3,-2,2021-08-07 12:44:40,169602
0,3,2,2,4,4,2,1,2021-08-07 12:44:40,185604
-3,-3,-3,-2,-1,0,-2,-2,2021-08-07 12:44:40,185604
-1,-3,-1,-3,-5,-2,-2,-2,2021-08-07 12:44:40,185604
0,1,0,0,0,0,-1,0,2021-08-07 12:44:40,185604
-1,-2,-4,-9,-15,-8,-4,-3,2021-08-07 12:44:40,217603
0,-2,1,2,7,7,3,2,2021-08-07 12:44:40,233603
2,3,1,0,0,0,0,0,2021-08-07 12:44:40,249602
1,1,1,5,10,6,4,1,2021-08-07 12:44:40,265603
-1,-1,-1,1,-4,-6,-4,0,2021-08-07 12:44:40,280605
-4,-5,-7,-10,-21,-13,-7,-4,2021-08-07 12:44:40,280605
-1,-2,0,-2,-5,0,-1,0,2021-08-07 12:44:40,280605
4,7,7,12,17,10,5,4,2021-08-07 12:44:40,280605
-2,-2,0,3,3,1,1,-1,2021-08-07 12:44:40,281603
-2,-2,0,2,3,1,-2,-1,2021-08-07 12:44:40,296604
-4,-3,-3,-3,-5,-4,-3,-1,2021-08-07 12:44:40,312602
-2,-6,-6,-12,-16,-11,-7,-4,2021-08-07 12:44:40,312602
1,2,1,5,12,8,2,1,2021-08-07 12:44:40,312602
2,3,1,-3,-8,-5,-1,2,2021-08-07 12:44:40,312602
-2,-2,0,1,4,1,-2,-1,2021-08-07 12:44:40,312602
-1,-3,-4,-3,-2,0,-1,1,2021-08-07 12:44:40,312602
0,-4,-2,-4,-1,-2,0,-3,2021-08-07 12:44:40,312602
5,6,7,9,16,12,9,5,2021-08-07 12:44:40,312602
-4,-3,-4,-7,-4,-4,-3,-3,2021-08-07 12:44:40,313604
0,1,3,2,-2,-1,0,-1,2021-08-07 12:44:40,313604
1,1,3,2,2,-1,1,0,2021-08-07 12:44:40,313604
-1,1,-2,0,0,0,0,-1,2021-08-07 12:44:40,313604
1,0,1,-1,0,0,-1,1,2021-08-07 12:44:40,313604
-3,-5,-3,-6,-6,-5,-3,-2,2021-08-07 12:44:40,313604
-1,-1,0,0,2,3,-1,0,2021-08-07 12:44:40,342603
-3,-3,-5,-4,-5,-6,-2,-4,2021-08-07 12:44:40,342603
-2,-4,-2,-4,-7,-3,-5,-2,2021-08-07 12:44:40,342603
0,0,-1,8,12,6,1,2,2021-08-07 12:44:40,342603
-2,-2,-3,-2,-4,-2,-1,0,2021-08-07 12:44:40,342603
0,-2,0,-4,-4,-3,-3,-3,2021-08-07 12:44:40,342603
1,-1,-1,1,3,2,2,2,2021-08-07 12:44:40,342603
0,1,0,-2,1,4,1,-1,2021-08-07 12:44:40,342603
-2,0,-1,0,1,-1,-1,-3,2021-08-07 12:44:40,373603
2,2,0,2,5,2,1,2,2021-08-07 12:44:40,373603
0,-2,-1,-4,-9,-7,-3,-1,2021-08-07 12:44:40,373603
-2,-2,-3,-7,-8,-2,-2,-1,2021-08-07 12:44:40,373603
0,-1,-1,5,9,3,1,0,2021-08-07 12:44:40,389604
-3,-5,-5,-6,-6,-4,-4,-1,2021-08-07 12:44:40,389604
3,5,5,9,19,11,7,2,2021-08-07 12:44:40,389604
-1,-2,-3,-3,-7,-7,-4,-2,2021-08-07 12:44:40,405602
1,2,2,-1,-6,-3,-2,1,2021-08-07 12:44:40,421602
-1,-2,-3,-7,-7,-4,-2,-3,2021-08-07 12:44:40,437603
-2,0,-2,2,2,1,1,-1,2021-08-07 12:44:40,437603
-2,-3,-2,-3,-10,-8,-3,-2,2021-08-07 12:44:40,452604
-3,-4,-2,1,7,4,-1,0,2021-08-07 12:44:40,453605
-1,3,2,5,7,2,0,0,2021-08-07 12:44:40,453605
0,0,-3,-2,-2,-2,1,-1,2021-08-07 12:44:40,453605
1,0,1,-2,0,0,1,0,2021-08-07 12:44:40,454604
0,-1,-2,-7,-14,-8,-4,-2,2021-08-07 12:44:40,468602
-2,-2,-2,-2,-2,-2,-1,0,2021-08-07 12:44:40,468602
-2,-2,-2,-1,-3,-1,-3,-2,2021-08-07 12:44:40,468602
-1,-1,-2,-1,-1,-3,-3,-1,2021-08-07 12:44:40,468602
0,1,0,-1,-2,1,0,0,2021-08-07 12:44:40,468602
1,0,3,6,7,5,2,1,2021-08-07 12:44:40,468602
1,0,1,0,0,-2,0,-1,2021-08-07 12:44:40,469604
-1,-1,0,0,5,4,0,-2,2021-08-07 12:44:40,469604
-3,-2,-1,0,0,-1,-1,-2,2021-08-07 12:44:40,484603
-2,-3,-5,-4,-5,-3,-3,-2,2021-08-07 12:44:40,484603
2,5,4,2,-3,1,0,2,2021-08-07 12:44:40,484603
1,0,-1,-1,4,3,5,1,2021-08-07 12:44:40,484603
-7,-8,-10,-15,-19,-17,-12,-6,2021-08-07 12:44:40,516604
4,5,6,3,-2,-2,1,1,2021-08-07 12:44:40,532603
1,1,-1,4,6,5,2,4,2021-08-07 12:44:40,532603
0,-1,-1,-2,1,2,1,-1,2021-08-07 12:44:40,532603
0,0,0,-4,-3,0,0,0,2021-08-07 12:44:40,532603
-7,-9,-8,-6,-3,-6,-4,-4,2021-08-07 12:44:40,532603
2,8,10,18,20,12,6,1,2021-08-07 12:44:40,548602
-2,1,4,7,8,1,0,0,2021-08-07 12:44:40,548602
-2,1,-1,-2,-1,0,-1,-1,2021-08-07 12:44:40,548602
-2,-1,-2,-11,-20,-15,-9,-4,2021-08-07 12:44:40,548602
2,1,3,10,16,9,3,3,2021-08-07 12:44:40,548602
-1,-2,-2,-1,2,1,0,-1,2021-08-07 12:44:40,549604
2,1,-1,3,3,1,1,1,2021-08-07 12:44:40,564603
0,0,-2,0,2,2,2,1,2021-08-07 12:44:40,564603
-2,-3,-4,-9,-14,-10,-5,-2,2021-08-07 12:44:40,564603
1,1,1,-2,-2,-2,0,0,2021-08-07 12:44:40,564603
-2,-4,-3,-3,-5,-2,-2,-2,2021-08-07 12:44:40,580603
2,-1,1,0,4,3,2,1,2021-08-07 12:44:40,580603
0,-2,1,0,-3,-3,-1,0,2021-08-07 12:44:40,595603
-2,-1,0,-1,-1,-1,-3,0,2021-08-07 12:44:40,595603
1,1,2,4,4,2,4,1,2021-08-07 12:44:40,611603
-2,-3,-2,3,4,2,0,-3,2021-08-07 12:44:40,611603
-2,-3,-6,-10,-11,-8,-3,-2,2021-08-07 12:44:40,611603
0,1,1,-1,-3,-2,-2,0,2021-08-07 12:44:40,611603
-3,-5,-4,-2,-2,-3,-3,-2,2021-08-07 12:44:40,627604
1,2,3,5,6,5,2,2,2021-08-07 12:44:40,627604
-3,-2,-4,-10,-12,-6,-2,-2,2021-08-07 12:44:40,627604
2,3,3,9,8,3,3,1,2021-08-07 12:44:40,627604
1,2,2,8,13,6,4,1,2021-08-07 12:44:40,674602
-2,-1,-3,-3,-4,-3,-2,0,2021-08-07 12:44:40,674602
-1,-3,-5,-8,-10,-7,-5,-4,2021-08-07 12:44:40,674602
-2,-2,-3,0,3,2,1,-3,2021-08-07 12:44:40,674602
1,-1,1,0,1,0,-2,0,2021-08-07 12:44:40,674602
-4,-4,-3,-7,-14,-12,-6,-5,2021-08-07 12:44:40,675605
2,2,1,2,9,8,6,2,2021-08-07 12:44:40,675605
-2,-3,-4,-4,-8,-5,-4,-2,2021-08-07 12:44:40,675605
3,5,4,5,6,5,3,4,2021-08-07 12:44:40,690603
0,2,0,0,4,2,0,0,2021-08-07 12:44:40,690603
-3,-4,-6,-8,-9,-8,-4,-1,2021-08-07 12:44:40,690603
-1,-2,-1,-3,-5,-3,-4,-2,2021-08-07 12:44:40,690603
-2,-1,-1,0,0,1,0,0,2021-08-07 12:44:40,706603
-1,-1,-1,-1,-2,-2,-4,-2,2021-08-07 12:44:40,722606
-1,0,1,2,2,3,-1,-2,2021-08-07 12:44:40,722606
0,1,1,0,4,1,2,2,2021-08-07 12:44:40,722606
-1,-2,-4,-4,-5,-6,-4,-1,2021-08-07 12:44:40,722606
-1,-1,-1,-2,0,1,-2,-1,2021-08-07 12:44:40,722606
0,-1,1,0,1,1,1,1,2021-08-07 12:44:40,722606
-4,-5,-5,-2,-2,-2,-2,-2,2021-08-07 12:44:40,723602
3,7,5,-1,0,-1,1,1,2021-08-07 12:44:40,754604
1,2,1,4,6,5,4,2,2021-08-07 12:44:40,770603
-2,-2,-3,-3,-2,-2,-2,-2,2021-08-07 12:44:40,770603
-3,-4,-4,-8,-13,-9,-5,-3,2021-08-07 12:44:40,770603
0,0,0,-2,-3,0,-2,-3,2021-08-07 12:44:40,786603
2,4,2,10,18,14,4,3,2021-08-07 12:44:40,786603
1,2,-1,3,1,-1,-1,-2,2021-08-07 12:44:40,786603
-3,-7,-6,-4,-3,-1,0,-3,2021-08-07 12:44:40,786603
-2,1,-2,-4,-9,-7,-4,-3,2021-08-07 12:44:40,786603
1,1,1,0,-1,0,0,-2,2021-08-07 12:44:40,786603
-2,-3,-2,-2,-1,-1,-2,-1,2021-08-07 12:44:40,786603
2,4,3,3,5,3,2,2,2021-08-07 12:44:40,787604
-2,-3,-2,-2,-1,-4,-3,-4,2021-08-07 12:44:40,818602
-4,-6,-6,-11,-20,-15,-6,-4,2021-08-07 12:44:40,818602
1,-1,2,-1,-1,0,1,2,2021-08-07 12:44:40,818602
0,1,3,6,11,7,3,0,2021-08-07 12:44:40,818602
0,0,1,4,11,6,3,0,2021-08-07 12:44:40,833603
-1,-1,-1,-2,1,-1,-2,-2,2021-08-07 12:44:40,849603
-4,-5,-6,-6,-10,-7,-6,-6,2021-08-07 12:44:40,865603
2,3,3,-1,-5,-5,-1,1,2021-08-07 12:44:40,865603
1,-2,-2,0,1,1,0,1,2021-08-07 12:44:40,865603
-1,-1,-2,-6,-8,-6,-3,-2,2021-08-07 12:44:40,865603
-3,-2,-3,-4,-6,-4,-2,-1,2021-08-07 12:44:40,865603
1,2,5,6,15,9,4,2,2021-08-07 12:44:40,865603
-3,-2,-1,1,1,-1,-2,-2,2021-08-07 12:44:40,866603
1,0,1,5,-1,-2,0,2,2021-08-07 12:44:40,866603
-1,-1,-1,4,5,1,0,-1,2021-08-07 12:44:40,866603
-2,-2,-5,-3,-5,-2,-1,-1,2021-08-07 12:44:40,866603
0,-2,0,2,13,10,4,2,2021-08-07 12:44:40,887603
2,4,6,4,6,2,2,1,2021-08-07 12:44:40,887603
-1,-1,-1,-3,-7,-4,-3,-2,2021-08-07 12:44:40,887603
-1,-1,0,0,-3,-3,-2,-1,2021-08-07 12:44:40,888602
4,2,2,1,1,-1,-1,1,2021-08-07 12:44:40,913603
-4,-7,-7,-13,-12,-6,-3,-3,2021-08-07 12:44:40,913603
0,-1,1,-1,2,0,0,0,2021-08-07 12:44:40,913603
-1,-1,0,2,4,2,0,-1,2021-08-07 12:44:40,913603
-3,-4,-3,-3,-8,-6,-4,-3,2021-08-07 12:44:40,929604
1,2,2,5,6,3,1,1,2021-08-07 12:44:40,929604
-1,-1,-3,-1,-3,-3,-1,-2,2021-08-07 12:44:40,929604
0,2,0,2,-5,-4,-3,0,2021-08-07 12:44:40,929604
-3,-4,-6,-5,-4,0,-1,0,2021-08-07 12:44:40,960603
0,-1,-1,0,2,-1,-1,-2,2021-08-07 12:44:40,976602
-4,-6,-6,-10,-10,-5,-3,-3,2021-08-07 12:44:40,976602
3,4,5,7,8,7,3,0,2021-08-07 12:44:40,976602
0,2,3,3,6,1,0,-2,2021-08-07 12:44:40,976602
-1,1,0,6,7,5,0,1,2021-08-07 12:44:40,976602
0,1,0,-1,-6,-5,-3,0,2021-08-07 12:44:40,976602
-2,-4,-6,-5,-3,-1,-2,-3,2021-08-07 12:44:40,992601
-2,-2,-4,-8,-12,-8,-2,1,2021-08-07 12:44:40,992601
-1,-4,-2,-3,-6,-4,-4,-4,2021-08-07 12:44:40,992601
3,6,7,12,17,10,5,2,2021-08-07 12:44:40,992601
-4,-4,-4,-8,-8,-7,-4,-2,2021-08-07 12:44:40,992601
2,4,3,3,0,0,-1,1,2021-08-07 12:44:41,007603
0,0,0,-5,-2,-1,2,1,2021-08-07 12:44:41,007603
-1,1,1,1,-3,-2,-1,-1,2021-08-07 12:44:41,007603
-1,-1,-3,-5,-7,-3,-4,-2,2021-08-07 12:44:41,007603
-5,-5,-6,-6,-10,-7,-3,-3,2021-08-07 12:44:41,039602
-3,-4,-5,-1,-1,2,-1,-2,2021-08-07 12:44:41,039602
4,8,8,11,13,6,4,4,2021-08-07 12:44:41,039602
0,1,0,2,3,0,-1,1,2021-08-07 12:44:41,039602
0,1,1,-2,-2,-3,0,-2,2021-08-07 12:44:41,055604
-1,-4,-5,-10,-10,-5,-2,-1,2021-08-07 12:44:41,055604
-1,-4,-3,3,-2,-2,-1,-2,2021-08-07 12:44:41,055604
-1,-3,-3,-4,-5,-1,2,0,2021-08-07 12:44:41,055604
2,2,2,5,8,5,2,1,2021-08-07 12:44:41,071604
-2,0,0,4,5,1,-1,0,2021-08-07 12:44:41,087603
3,2,3,3,7,5,4,3,2021-08-07 12:44:41,087603
0,-2,-2,-2,-6,-4,-2,-2,2021-08-07 12:44:41,087603
-4,-4,-4,-4,-7,-3,-4,-2,2021-08-07 12:44:41,087603
0,2,3,1,-2,-1,-2,-1,2021-08-07 12:44:41,087603
-2,-2,-2,-7,-10,-6,-5,-4,2021-08-07 12:44:41,088605
2,3,2,13,23,14,6,2,2021-08-07 12:44:41,088605
-2,-2,-2,-4,-5,-5,0,-4,2021-08-07 12:44:41,134602
-1,-1,0,2,2,2,0,1,2021-08-07 12:44:41,150602
2,0,0,-3,3,5,3,1,2021-08-07 12:44:41,150602
-1,-2,-2,-4,-8,-8,-4,-1,2021-08-07 12:44:41,150602
0,-1,0,0,2,2,0,-1,2021-08-07 12:44:41,150602
0,1,2,2,-2,-3,-2,-2,2021-08-07 12:44:41,150602
-2,-4,-4,-3,-2,-2,0,-2,2021-08-07 12:44:41,150602
-3,-5,-6,-10,-10,-6,-3,-2,2021-08-07 12:44:41,151603
0,0,1,2,0,0,0,1,2021-08-07 12:44:41,151603
4,5,4,7,16,10,5,2,2021-08-07 12:44:41,151603
0,-1,0,1,1,1,-1,1,2021-08-07 12:44:41,151603
-2,-2,0,-4,-6,-4,-2,-2,2021-08-07 12:44:41,151603
-5,-8,-8,-12,-20,-16,-8,-6,2021-08-07 12:44:41,182604
1,1,1,5,14,10,5,1,2021-08-07 12:44:41,198603
1,3,2,7,12,7,3,0,2021-08-07 12:44:41,214604
-1,1,0,-3,-3,-5,-2,-1,2021-08-07 12:44:41,214604
-2,-2,-3,-3,-3,-1,-3,-1,2021-08-07 12:44:41,214604
0,1,0,-6,-12,-5,-1,-2,2021-08-07 12:44:41,214604
-2,-1,-2,2,2,-3,-2,-1,2021-08-07 12:44:41,230602
1,-1,1,3,3,4,3,-1,2021-08-07 12:44:41,230602
0,1,0,-1,1,2,0,1,2021-08-07 12:44:41,230602
-1,-2,-2,0,0,2,-2,0,2021-08-07 12:44:41,230602
-3,-3,-2,-2,-3,-4,-3,-3,2021-08-07 12:44:41,230602
0,2,2,-3,-4,-1,-2,0,2021-08-07 12:44:41,230602
-3,-4,-2,1,0,-2,-2,-3,2021-08-07 12:44:41,230602
2,0,1,2,1,1,2,1,2021-08-07 12:44:41,231604
-5,-5,-6,-6,-11,-8,-5,-1,2021-08-07 12:44:41,231604
-1,-1,-1,-5,-10,-4,-2,-3,2021-08-07 12:44:41,231604
1,2,1,9,18,11,5,0,2021-08-07 12:44:41,246603
0,0,0,1,-3,-3,-2,1,2021-08-07 12:44:41,246603
-1,-1,-1,-2,-4,-3,-2,-1,2021-08-07 12:44:41,262604
-2,-2,-3,3,4,1,-1,0,2021-08-07 12:44:41,262604
-1,-2,-2,-5,-7,-4,-3,0,2021-08-07 12:44:41,278604
-1,-1,-1,-1,-2,-2,-2,-2,2021-08-07 12:44:41,294602
1,1,-1,-4,-1,-1,-1,0,2021-08-07 12:44:41,320603
-2,-3,-3,-2,-1,-1,-1,-1,2021-08-07 12:44:41,320603
-1,-3,-4,-6,-6,-6,-3,-3,2021-08-07 12:44:41,320603
2,5,7,3,0,1,2,2,2021-08-07 12:44:41,320603
1,1,2,2,3,2,3,2,2021-08-07 12:44:41,320603
0,-2,-2,-1,3,3,0,-1,2021-08-07 12:44:41,320603
1,2,2,2,-2,-1,0,1,2021-08-07 12:44:41,321603
-3,-3,-4,2,9,3,-1,-1,2021-08-07 12:44:41,321603
1,2,1,-2,-5,-2,-2,0,2021-08-07 12:44:41,321603
0,2,-1,-5,-7,-5,-2,-2,2021-08-07 12:44:41,321603
2,-1,-3,-1,5,2,3,2,2021-08-07 12:44:41,356605
-2,-3,-4,-6,-6,-3,-3,-2,2021-08-07 12:44:41,356605
1,-1,-2,-4,-4,1,0,1,2021-08-07 12:44:41,356605
-1,-4,-2,3,5,1,1,0,2021-08-07 12:44:41,356605
-3,-2,0,1,1,3,-1,-3,2021-08-07 12:44:41,356605
-3,-2,-2,-3,-7,-6,-1,-4,2021-08-07 12:44:41,356605
-3,0,1,2,2,2,0,-2,2021-08-07 12:44:41,357603
0,2,0,-1,-4,-6,-4,0,2021-08-07 12:44:41,357603
3,5,4,3,7,5,1,2,2021-08-07 12:44:41,372603
-2,-4,-4,-5,-5,-3,-1,-2,2021-08-07 12:44:41,372603
2,-1,-3,1,5,2,2,0,2021-08-07 12:44:41,372603
-1,-4,-3,-6,-11,-5,-4,-1,2021-08-07 12:44:41,372603
1,0,0,1,-4,-3,-2,1,2021-08-07 12:44:41,404603
0,2,2,1,7,6,3,1,2021-08-07 12:44:41,420604
-3,-2,-3,-1,-4,-1,-3,-2,2021-08-07 12:44:41,452601
-4,-4,-5,-4,-1,0,-2,-3,2021-08-07 12:44:41,452601
1,4,3,3,1,0,-1,0,2021-08-07 12:44:41,452601
0,-3,0,-1,-3,-5,-3,-2,2021-08-07 12:44:41,452601
-2,-2,-1,0,1,-1,1,-1,2021-08-07 12:44:41,452601
-1,-1,0,0,2,1,1,-1,2021-08-07 12:44:41,452601
-2,-2,0,-3,-4,-2,-2,0,2021-08-07 12:44:41,453604
-1,-2,-4,-5,-8,-6,-3,0,2021-08-07 12:44:41,453604
-1,-1,0,1,5,3,0,-1,2021-08-07 12:44:41,453604
1,1,1,3,2,1,0,0,2021-08-07 12:44:41,453604
-1,-2,-2,-1,-4,0,-1,-3,2021-08-07 12:44:41,453604
-1,-2,-3,1,-1,-1,-1,-1,2021-08-07 12:44:41,453604
1,1,-1,-1,0,-1,0,-1,2021-08-07 12:44:41,453604
-2,1,-2,-2,-2,0,-1,-2,2021-08-07 12:44:41,454606
0,1,1,4,4,2,0,0,2021-08-07 12:44:41,484604
-1,-4,-2,-3,0,0,-1,-3,2021-08-07 12:44:41,484604
-1,-1,1,-4,-4,-3,-1,1,2021-08-07 12:44:41,484604
0,1,2,4,5,2,1,0,2021-08-07 12:44:41,484604
0,1,-2,-1,-3,-2,0,1,2021-08-07 12:44:41,484604
-1,2,-1,2,-1,1,0,1,2021-08-07 12:44:41,484604
-3,-4,-4,-4,-3,-3,-3,-3,2021-08-07 12:44:41,500602
0,-1,-1,-2,-5,-2,-1,-1,2021-08-07 12:44:41,500602
0,0,0,2,3,4,2,2,2021-08-07 12:44:41,516604
1,-1,0,-1,0,-1,-1,-1,2021-08-07 12:44:41,531603
-1,0,0,0,-1,-1,0,1,2021-08-07 12:44:41,531603
-4,-5,-5,-7,-8,-6,-4,-2,2021-08-07 12:44:41,531603
2,2,2,2,1,-2,0,0,2021-08-07 12:44:41,531603
0,3,2,-1,-2,1,3,1,2021-08-07 12:44:41,531603
2,0,3,7,16,9,2,0,2021-08-07 12:44:41,532603
-1,-3,-2,0,2,0,1,-3,2021-08-07 12:44:41,532603
-4,-9,-7,-9,-12,-7,-5,-3,2021-08-07 12:44:41,563602
5,7,8,9,10,6,4,5,2021-08-07 12:44:41,579601
-1,1,-2,-3,-8,-5,-3,-1,2021-08-07 12:44:41,579601
0,2,1,2,2,4,1,0,2021-08-07 12:44:41,579601
-4,-4,-3,-5,-5,-4,-2,-3,2021-08-07 12:44:41,579601
-4,-5,-4,-5,-5,-3,-2,-3,2021-08-07 12:44:41,579601
-3,-3,-4,-4,-3,-5,-2,-3,2021-08-07 12:44:41,579601
4,4,3,4,7,4,2,2,2021-08-07 12:44:41,579601
-2,-2,-4,-3,-5,-4,-2,-3,2021-08-07 12:44:41,595603
0,0,0,-1,3,1,0,0,2021-08-07 12:44:41,610601
0,1,1,1,-1,0,-2,0,2021-08-07 12:44:41,610601
-2,-1,0,0,-1,-2,1,0,2021-08-07 12:44:41,610601
-1,0,-2,0,6,3,0,0,2021-08-07 12:44:41,610601
-4,-5,-5,-9,-19,-14,-7,-5,2021-08-07 12:44:41,610601
2,2,2,8,19,16,7,1,2021-08-07 12:44:41,610601
0,-1,3,5,6,3,1,1,2021-08-07 12:44:41,610601
1,4,4,0,0,0,2,1,2021-08-07 12:44:41,641603
-3,-4,-5,-4,-5,-6,-4,-3,2021-08-07 12:44:41,657604
-2,-5,-5,-8,-14,-9,-5,-3,2021-08-07 12:44:41,673601
-1,-1,-2,-6,-9,-6,-3,-2,2021-08-07 12:44:41,673601
1,-1,3,4,10,7,2,1,2021-08-07 12:44:41,673601
1,1,2,-2,-2,0,-1,1,2021-08-07 12:44:41,673601
1,1,0,-5,-8,-6,-1,-2,2021-08-07 12:44:41,673601
-1,-3,-3,-1,4,3,-1,0,2021-08-07 12:44:41,673601
1,1,2,3,6,5,2,0,2021-08-07 12:44:41,673601
0,-1,1,3,4,3,2,1,2021-08-07 12:44:41,673601
-1,0,-1,-6,-7,-5,-2,0,2021-08-07 12:44:41,674602
-4,-3,-4,-4,-8,-6,-5,-4,2021-08-07 12:44:41,674602
-3,-2,-3,-5,-8,-6,-2,-2,2021-08-07 12:44:41,689603
1,4,1,-3,-6,-2,0,0,2021-08-07 12:44:41,689603
-2,-4,-3,-4,-6,-3,-1,-2,2021-08-07 12:44:41,689603
2,-1,1,15,21,8,3,1,2021-08-07 12:44:41,689603
2,3,5,5,8,4,3,1,2021-08-07 12:44:41,721604
-3,-3,-4,-2,-2,-2,-1,-2,2021-08-07 12:44:41,737603
0,3,0,-5,-9,-6,-2,1,2021-08-07 12:44:41,737603
0,3,0,-3,-3,-1,-2,0,2021-08-07 12:44:41,737603
-3,-7,-7,-10,-9,-7,-4,-4,2021-08-07 12:44:41,737603
0,-3,-2,2,8,4,1,0,2021-08-07 12:44:41,737603
1,4,4,4,3,2,1,0,2021-08-07 12:44:41,737603
-2,-1,-1,-2,-6,-3,-1,0,2021-08-07 12:44:41,737603
1,3,1,0,-1,1,1,3,2021-08-07 12:44:41,753605
-10,-14,-14,-19,-21,-12,-9,-8,2021-08-07 12:44:41,757603
5,7,9,17,23,13,7,5,2021-08-07 12:44:41,757603
0,3,4,6,15,11,6,1,2021-08-07 12:44:41,757603
1,3,1,-4,-16,-11,-6,1,2021-08-07 12:44:41,785604
-6,-9,-11,-16,-22,-13,-7,-6,2021-08-07 12:44:41,801602
-2,-5,-2,7,7,3,1,0,2021-08-07 12:44:41,801602
7,12,8,5,9,11,5,3,2021-08-07 12:44:41,801602
-3,-5,-5,5,22,11,4,-3,2021-08-07 12:44:41,801602
4,8,7,8,5,2,0,1,2021-08-07 12:44:41,801602
-3,-6,-5,-8,-16,-13,-7,-3,2021-08-07 12:44:41,801602
-2,-7,-6,-12,-19,-12,-7,-2,2021-08-07 12:44:41,801602
-4,-4,-5,-10,-17,-11,-7,-4,2021-08-07 12:44:41,816602
0,1,2,4,9,6,2,1,2021-08-07 12:44:41,832601
-3,-3,-4,1,4,3,1,-1,2021-08-07 12:44:41,848604
0,2,2,0,-3,-4,0,0,2021-08-07 12:44:41,848604
0,-4,-3,-2,-3,-2,-1,-2,2021-08-07 12:44:41,848604
-2,-5,-5,-7,-10,-7,-4,-4,2021-08-07 12:44:41,863602
4,9,9,13,20,15,7,5,2021-08-07 12:44:41,863602
-4,-5,-5,0,3,2,-2,-2,2021-08-07 12:44:41,863602
-2,-4,-3,-8,-12,-11,-7,-2,2021-08-07 12:44:41,863602
4,7,7,4,6,11,7,5,2021-08-07 12:44:41,863602
2,1,1,6,22,8,0,1,2021-08-07 12:44:41,863602
-1,-2,-1,-5,-11,-7,-4,-3,2021-08-07 12:44:41,864603
-5,-5,-6,-2,-5,-1,-3,-3,2021-08-07 12:44:41,864603
0,-2,-2,-3,-7,-6,-2,1,2021-08-07 12:44:41,864603
2,3,5,4,-2,0,1,2,2021-08-07 12:44:41,879601
-2,-3,-2,-3,-1,-2,-1,-1,2021-08-07 12:44:41,895602
-3,-2,-2,-4,-6,-4,-2,-2,2021-08-07 12:44:41,911604
2,4,3,7,9,4,1,4,2021-08-07 12:44:41,911604
-2,-6,-6,-6,-4,-1,-1,-1,2021-08-07 12:44:41,911604
0,0,0,-3,-4,-4,0,-1,2021-08-07 12:44:41,911604
-1,-3,-2,-2,-3,-1,-2,-1,2021-08-07 12:44:41,911604
3,4,5,4,-2,-1,0,0,2021-08-07 12:44:41,911604
-1,-2,0,2,8,8,3,0,2021-08-07 12:44:41,911604
-2,-3,-2,0,4,0,-1,-1,2021-08-07 12:44:41,911604
0,-1,-1,0,3,3,2,0,2021-08-07 12:44:41,943602
-1,0,1,2,7,3,0,-1,2021-08-07 12:44:41,943602
-3,-3,-3,-10,-25,-19,-7,-3,2021-08-07 12:44:41,943602
4,5,6,14,24,18,9,3,2021-08-07 12:44:41,943602
0,1,1,4,9,6,2,1,2021-08-07 12:44:41,959601
-1,0,1,4,5,2,2,1,2021-08-07 12:44:41,959601
-7,-8,-10,-14,-24,-15,-7,-5,2021-08-07 12:44:41,959601
0,2,0,-5,-11,-5,-2,0,2021-08-07 12:44:41,975604
4,2,4,6,11,8,5,2,2021-08-07 12:44:41,991602
-1,0,-1,0,3,1,-1,-2,2021-08-07 12:44:42,007602
-2,-2,-3,-4,-7,-2,-2,-1,2021-08-07 12:44:42,023603
-3,-5,-6,-8,-11,-9,-5,-1,2021-08-07 12:44:42,023603
-1,-3,-3,-5,-2,-2,-1,-2,2021-08-07 12:44:42,023603
0,0,0,0,2,2,0,0,2021-08-07 12:44:42,023603
1,2,1,-3,0,1,0,-1,2021-08-07 12:44:42,023603
-1,0,-1,0,-4,-3,-1,0,2021-08-07 12:44:42,023603
-3,-1,-3,-1,-2,-3,-3,-3,2021-08-07 12:44:42,024603
1,0,-1,1,5,1,2,1,2021-08-07 12:44:42,024603
0,1,0,-1,-3,-1,-1,0,2021-08-07 12:44:42,024603
-1,-6,-5,-8,-13,-10,-5,-2,2021-08-07 12:44:42,024603
1,3,6,16,21,14,7,3,2021-08-07 12:44:42,054604
0,1,3,8,13,7,2,1,2021-08-07 12:44:42,054604
0,-3,-4,-3,-1,-2,-1,-2,2021-08-07 12:44:42,054604
-2,-3,-2,-4,-8,-6,-3,-3,2021-08-07 12:44:42,054604
-2,0,-1,-9,-15,-9,-4,-1,2021-08-07 12:44:42,054604
1,0,2,6,6,4,1,0,2021-08-07 12:44:42,055603
-1,-1,-3,-2,-1,-3,-1,-1,2021-08-07 12:44:42,055603
-1,-2,-2,-3,1,2,-1,-1,2021-08-07 12:44:42,055603
-1,-2,-2,0,-3,-5,-2,-2,2021-08-07 12:44:42,086604
1,1,2,1,4,4,1,1,2021-08-07 12:44:42,086604
-2,-1,-2,-2,-3,-2,-4,-1,2021-08-07 12:44:42,086604
3,1,2,4,1,1,1,3,2021-08-07 12:44:42,086604
2,0,-1,-1,-3,-2,0,0,2021-08-07 12:44:42,102606
0,1,1,-3,-7,-4,-2,-2,2021-08-07 12:44:42,102606
-4,-8,-6,0,1,-1,-1,-4,2021-08-07 12:44:42,102606
-3,-2,-4,-4,-6,-4,-3,-1,2021-08-07 12:44:42,102606
8,13,11,12,13,10,7,6,2021-08-07 12:44:42,118603
-1,-3,-4,0,7,3,1,0,2021-08-07 12:44:42,134603
-6,-8,-11,-19,-26,-17,-11,-8,2021-08-07 12:44:42,134603
1,3,5,5,7,6,3,0,2021-08-07 12:44:42,134603
0,0,1,4,11,6,1,-1,2021-08-07 12:44:42,134603
1,1,1,2,7,4,2,0,2021-08-07 12:44:42,134603
3,3,2,2,5,1,1,1,2021-08-07 12:44:42,134603
-4,-7,-8,-8,-14,-13,-5,-4,2021-08-07 12:44:42,134603
-4,-7,-7,-8,-13,-6,-5,-3,2021-08-07 12:44:42,166602
1,2,2,4,15,12,5,4,2021-08-07 12:44:42,166602
0,0,2,2,0,2,2,0,2021-08-07 12:44:42,166602
-5,-5,-3,-3,-3,-3,-3,-7,2021-08-07 12:44:42,166602
-4,-3,-2,-3,-5,-3,-5,-3,2021-08-07 12:44:42,166602
-1,0,-2,-7,-11,-10,-4,-4,2021-08-07 12:44:42,166602
-1,-1,-1,0,-2,-1,-2,1,2021-08-07 12:44:42,182603
1,4,3,2,5,4,2,3,2021-08-07 12:44:42,198603
-3,-2,-5,-7,-7,-6,-3,-2,2021-08-07 12:44:42,199603
1,-1,-3,-6,-13,-8,-3,-3,2021-08-07 12:44:42,199603
2,3,4,9,20,11,8,2,2021-08-07 12:44:42,199603
1,0,1,2,2,1,2,0,2021-08-07 12:44:42,199603
-2,-2,-1,-1,1,2,1,0,2021-08-07 12:44:42,214602
-5,-4,-5,-3,-8,-7,-5,-3,2021-08-07 12:44:42,214602
0,-1,-1,-5,-7,-6,-3,-2,2021-08-07 12:44:42,214602
-6,-7,-7,-10,-15,-11,-8,-6,2021-08-07 12:44:42,214602
7,6,6,2,4,7,5,6,2021-08-07 12:44:42,230605
-1,2,1,-1,2,0,-2,-1,2021-08-07 12:44:42,230605
2,2,4,8,14,7,3,1,2021-08-07 12:44:42,230605
-1,1,-1,-1,0,1,0,-1,2021-08-07 12:44:42,230605
-3,-6,-8,-6,-7,-8,-5,-3,2021-08-07 12:44:42,261603
1,3,2,1,-6,-4,-1,1,2021-08-07 12:44:42,261603
-2,-1,-4,-6,-10,-5,-4,-2,2021-08-07 12:44:42,261603
-1,-2,-2,-3,-6,-2,-2,-2,2021-08-07 12:44:42,261603
0,-2,-2,0,6,3,2,-2,2021-08-07 12:44:42,277603
-2,-3,-4,-1,1,2,-1,-1,2021-08-07 12:44:42,277603
-2,3,2,-4,-10,-9,-3,1,2021-08-07 12:44:42,277603
0,-2,-1,1,0,4,0,0,2021-08-07 12:44:42,277603
0,-1,-1,0,0,-1,-1,1,2021-08-07 12:44:42,293602
1,-3,-1,-2,-3,-1,0,-3,2021-08-07 12:44:42,293602
1,0,-1,0,-2,1,0,0,2021-08-07 12:44:42,293602
2,4,3,6,12,4,2,2,2021-08-07 12:44:42,293602
1,2,2,-2,-3,1,0,1,2021-08-07 12:44:42,325603
-7,-9,-7,-4,-7,-9,-5,-7,2021-08-07 12:44:42,325603
3,4,1,0,0,4,3,2,2021-08-07 12:44:42,325603
2,2,2,4,3,1,0,-1,2021-08-07 12:44:42,325603
-6,-6,-8,-13,-23,-17,-8,-5,2021-08-07 12:44:42,356602
5,5,5,12,19,17,9,5,2021-08-07 12:44:42,372603
-3,-4,-2,-4,-8,-4,-4,-4,2021-08-07 12:44:42,372603
-1,-1,-2,0,6,3,0,0,2021-08-07 12:44:42,372603
3,7,6,7,6,2,4,-1,2021-08-07 12:44:42,372603
-1,-4,-8,-12,-19,-10,-5,-2,2021-08-07 12:44:42,372603
-6,-9,-8,-7,-6,-5,-6,-4,2021-08-07 12:44:42,372603
8,10,13,16,23,15,8,5,2021-08-07 12:44:42,372603
-6,-8,-10,-8,-7,-7,-5,-3,2021-08-07 12:44:42,372603
4,7,8,-1,-1,3,1,4,2021-08-07 12:44:42,372603
-4,-4,-6,0,1,-1,-2,-3,2021-08-07 12:44:42,373603
-2,-4,-6,-6,-5,-4,-3,-2,2021-08-07 12:44:42,373603
3,4,5,4,6,6,2,2,2021-08-07 12:44:42,404603
1,0,-1,1,0,-2,-1,-1,2021-08-07 12:44:42,420603
-3,-4,-1,0,-3,-4,-1,-2,2021-08-07 12:44:42,436603
-3,1,0,-10,-23,-16,-6,-1,2021-08-07 12:44:42,436603
2,4,4,13,22,15,8,3,2021-08-07 12:44:42,436603
-1,-1,0,6,19,10,4,2,2021-08-07 12:44:42,436603
2,2,1,-1,0,1,1,0,2021-08-07 12:44:42,436603
-6,-7,-6,-6,-12,-10,-7,-4,2021-08-07 12:44:42,437604
2,3,3,-3,-7,-2,-2,1,2021-08-07 12:44:42,452603
-1,-2,1,1,1,-3,-2,-2,2021-08-07 12:44:42,468602
-3,-2,-4,-4,-4,-5,-5,-2,2021-08-07 12:44:42,484603
3,0,-1,-2,1,2,1,-2,2021-08-07 12:44:42,484603
-3,-3,0,1,6,4,0,-1,2021-08-07 12:44:42,484603
0,-1,-1,-1,-2,-1,3,2,2021-08-07 12:44:42,484603
1,-2,1,0,-1,3,4,1,2021-08-07 12:44:42,484603
-5,-4,-5,-7,-4,-5,-6,-5,2021-08-07 12:44:42,484603
-3,1,1,-1,-8,-9,-6,-5,2021-08-07 12:44:42,484603
1,2,2,0,2,-1,-1,1,2021-08-07 12:44:42,484603
-1,0,-1,0,-4,-4,0,-1,2021-08-07 12:44:42,485603
-1,-4,-2,1,6,5,2,1,2021-08-07 12:44:42,485603
-5,-8,-7,-1,0,0,-2,-3,2021-08-07 12:44:42,500604
-2,2,-2,-3,-8,-5,-2,-3,2021-08-07 12:44:42,500604
5,7,9,4,2,3,3,4,2021-08-07 12:44:42,500604
-2,0,-2,-3,-2,-1,-1,-3,2021-08-07 12:44:42,500604
0,-3,-4,-4,-5,-4,-3,-2,2021-08-07 12:44:42,516603
-2,-5,-3,3,9,6,-2,-2,2021-08-07 12:44:42,532603
0,-1,0,-5,-12,-10,-6,-2,2021-08-07 12:44:42,532603
-1,-1,1,1,11,12,5,1,2021-08-07 12:44:42,532603
1,3,3,4,5,1,2,3,2021-08-07 12:44:42,532603
0,0,-1,-3,0,2,0,0,2021-08-07 12:44:42,532603
3,3,4,12,21,11,5,3,2021-08-07 12:44:42,532603
-5,-9,-10,-13,-24,-17,-9,-6,2021-08-07 12:44:42,533603
-2,0,1,-3,-2,0,1,-2,2021-08-07 12:44:42,564605
-2,-3,-3,-8,-13,-6,-3,-3,2021-08-07 12:44:42,564605
-2,-1,-3,-1,8,4,1,0,2021-08-07 12:44:42,564605
1,1,2,5,9,5,4,1,2021-08-07 12:44:42,564605
-1,-3,-4,-7,-13,-6,-2,-3,2021-08-07 12:44:42,580603
2,4,2,7,4,0,1,0,2021-08-07 12:44:42,595603
0,-4,-2,-2,2,2,-2,-2,2021-08-07 12:44:42,595603
0,-1,2,11,11,7,3,-1,2021-08-07 12:44:42,595603
-1,0,1,1,0,1,0,0,2021-08-07 12:44:42,611602
-2,-1,-2,-7,-8,-5,-4,-1,2021-08-07 12:44:42,611602
2,0,1,4,6,4,2,2,2021-08-07 12:44:42,611602
1,3,2,0,-2,-2,1,0,2021-08-07 12:44:42,611602
-4,-7,-7,-8,-9,-10,-5,-3,2021-08-07 12:44:42,611602
0,1,1,2,-3,-2,0,-2,2021-08-07 12:44:42,611602
0,-2,-2,-1,2,2,0,1,2021-08-07 12:44:42,611602
-4,-5,-7,-11,-17,-13,-9,-3,2021-08-07 12:44:42,611602
4,4,5,12,25,18,7,4,2021-08-07 12:44:42,640604
-1,1,1,2,5,0,2,1,2021-08-07 12:44:42,640604
-1,0,1,2,2,0,1,0,2021-08-07 12:44:42,640604
-3,-3,-2,-3,-3,-3,-3,-2,2021-08-07 12:44:42,640604
-3,-1,0,-8,-17,-11,-5,-2,2021-08-07 12:44:42,658604
0,0,-1,-1,2,3,-1,-1,2021-08-07 12:44:42,658604
-3,-1,-3,-3,-2,-1,-1,-3,2021-08-07 12:44:42,658604
1,1,0,7,16,8,4,1,2021-08-07 12:44:42,658604
2,5,4,1,-3,0,1,4,2021-08-07 12:44:42,674601
2,1,1,5,7,5,1,2,2021-08-07 12:44:42,690604
-4,-5,-6,-10,-20,-14,-8,-4,2021-08-07 12:44:42,706602
-2,-4,-3,-3,-4,-2,-2,-1,2021-08-07 12:44:42,706602
0,0,0,7,12,8,2,0,2021-08-07 12:44:42,706602
-1,-3,-3,-3,-6,-5,-3,-2,2021-08-07 12:44:42,706602
-2,-1,-2,-6,-10,-7,-3,-1,2021-08-07 12:44:42,706602
0,0,-1,-3,-6,-2,-1,0,2021-08-07 12:44:42,706602
2,2,5,12,19,10,5,1,2021-08-07 12:44:42,722603
-1,-3,-5,-4,-10,-6,-3,-1,2021-08-07 12:44:42,722603
0,0,2,2,6,4,1,-2,2021-08-07 12:44:42,722603
1,1,2,-1,1,-1,0,1,2021-08-07 12:44:42,738602
-1,-2,-4,-12,-21,-13,-6,-4,2021-08-07 12:44:42,738602
-1,-1,1,6,15,10,3,1,2021-08-07 12:44:42,738602
-2,-3,-3,-2,-2,-2,-3,-2,2021-08-07 12:44:42,738602
2,0,2,4,2,2,0,1,2021-08-07 12:44:42,738602
1,1,1,0,-3,-5,-1,2,2021-08-07 12:44:42,754603
-3,-3,-2,-10,-17,-11,-4,-2,2021-08-07 12:44:42,754603
2,1,1,8,14,11,4,2,2021-08-07 12:44:42,754603
-1,1,2,3,6,3,0,-2,2021-08-07 12:44:42,754603
-3,-6,-8,-4,-3,-3,-3,-4,2021-08-07 12:44:42,770603
-2,-3,-5,-9,-7,-5,-3,-2,2021-08-07 12:44:42,770603
0,1,1,-2,-4,-4,-2,1,2021-08-07 12:44:42,785603
-1,-1,-2,-3,-5,-2,-3,-3,2021-08-07 12:44:42,785603
1,1,0,1,4,3,2,1,2021-08-07 12:44:42,800602
-3,-4,-4,-9,-9,-5,-2,-3,2021-08-07 12:44:42,816603
-2,-3,-4,-2,-6,-4,-2,-2,2021-08-07 12:44:42,816603
0,3,3,1,5,3,1,0,2021-08-07 12:44:42,816603
1,0,2,6,10,3,2,0,2021-08-07 12:44:42,816603
0,-1,-1,-4,-3,-3,-2,1,2021-08-07 12:44:42,816603
1,0,0,-2,0,0,1,1,2021-08-07 12:44:42,816603
0,0,0,-2,-6,-4,-1,-1,2021-08-07 12:44:42,816603
-1,-1,1,0,2,0,0,-2,2021-08-07 12:44:42,848603
-5,-8,-5,-5,-11,-10,-7,-5,2021-08-07 12:44:42,848603
2,2,2,-3,-9,-3,0,-1,2021-08-07 12:44:42,863603
1,4,3,13,20,12,7,4,2021-08-07 12:44:42,863603
0,0,0,-3,-2,-2,1,2,2021-08-07 12:44:42,863603
1,1,1,9,15,9,5,2,2021-08-07 12:44:42,863603
-4,-6,-5,-11,-15,-10,-6,-3,2021-08-07 12:44:42,863603
-5,-5,-8,-19,-30,-19,-9,-6,2021-08-07 12:44:42,863603
3,5,5,18,29,19,9,3,2021-08-07 12:44:42,879603
1,1,2,7,6,3,2,-1,2021-08-07 12:44:42,879603
-1,-2,0,3,3,0,0,1,2021-08-07 12:44:42,879603
2,3,3,0,-5,-4,-1,1,2021-08-07 12:44:42,879603
0,-2,-1,-4,-5,-3,-3,-1,2021-08-07 12:44:42,894601
-3,-4,-4,-6,-8,-5,-6,-3,2021-08-07 12:44:42,894601
2,1,0,1,2,3,3,2,2021-08-07 12:44:42,894601
0,4,4,3,5,5,2,1,2021-08-07 12:44:42,894601
-3,-4,-5,-9,-13,-8,-4,-3,2021-08-07 12:44:42,926601
3,5,5,12,12,7,6,4,2021-08-07 12:44:42,941602
-5,-6,-5,-4,-5,-4,-2,-3,2021-08-07 12:44:42,941602
-2,-3,-3,-4,-8,-7,-3,-1,2021-08-07 12:44:42,941602
3,2,2,1,5,7,2,2,2021-08-07 12:44:42,941602
-1,0,0,-4,-6,-2,-1,-2,2021-08-07 12:44:42,941602
-2,-2,-3,0,3,2,-2,-2,2021-08-07 12:44:42,941602
-2,-5,-6,-5,-7,-5,0,0,2021-08-07 12:44:42,942604
1,0,0,5,4,5,1,1,2021-08-07 12:44:42,957603
4,8,6,3,-1,2,3,3,2021-08-07 12:44:42,973602
-1,1,1,1,4,2,1,0,2021-08-07 12:44:42,973602
-1,-2,-1,4,11,7,0,0,2021-08-07 12:44:42,973602
-3,-5,-5,-9,-13,-11,-7,-4,2021-08-07 12:44:42,973602
3,3,2,2,0,0,0,1,2021-08-07 12:44:42,973602
1,5,7,5,3,2,1,1,2021-08-07 12:44:42,973602
1,-1,-1,-2,-3,-1,-1,-2,2021-08-07 12:44:42,973602
-1,0,-1,0,-4,-2,-1,-1,2021-08-07 12:44:43,005603
-3,-6,-5,-4,-2,-1,-1,-1,2021-08-07 12:44:43,021604
0,-1,-3,-3,1,-1,1,2,2021-08-07 12:44:43,053604
0,-2,-2,-1,0,-1,0,0,2021-08-07 12:44:43,069601
-2,-1,-1,-2,-7,-1,-1,0,2021-08-07 12:44:43,071603
-3,-2,0,0,5,1,-2,-4,2021-08-07 12:44:43,071603
-1,0,2,2,5,3,1,-2,2021-08-07 12:44:43,072605
1,-1,-1,3,0,-2,-1,-1,2021-08-07 12:44:43,072605
-1,-3,-4,-11,-15,-8,-5,-3,2021-08-07 12:44:43,072605
0,0,-2,4,6,4,4,2,2021-08-07 12:44:43,072605
1,-1,-2,-3,-5,-4,-3,0,2021-08-07 12:44:43,072605
-3,-4,-5,-5,-4,-2,-3,-3,2021-08-07 12:44:43,073603
-1,3,1,-3,-11,-8,-4,-1,2021-08-07 12:44:43,073603
-3,-4,-3,-2,3,2,-1,-2,2021-08-07 12:44:43,073603
0,0,-2,0,2,0,1,0,2021-08-07 12:44:43,073603
2,5,2,-2,-3,-2,1,1,2021-08-07 12:44:43,073603
-3,-3,-3,2,4,-1,0,-2,2021-08-07 12:44:43,085604
0,0,-1,-2,-5,-2,0,-1,2021-08-07 12:44:43,101601
-3,-3,0,-4,-10,-7,-4,-3,2021-08-07 12:44:43,117605
0,0,1,2,2,6,2,1,2021-08-07 12:44:43,117605
1,0,1,3,13,3,2,2,2021-08-07 12:44:43,117605
1,1,-1,-4,-6,-6,-2,0,2021-08-07 12:44:43,117605
-1,-1,-2,3,10,5,1,0,2021-08-07 12:44:43,117605
-2,-4,-5,-5,-2,-3,-3,-2,2021-08-07 12:44:43,117605
0,0,-1,-4,-5,-3,-1,0,2021-08-07 12:44:43,118604
1,3,4,6,5,2,2,1,2021-08-07 12:44:43,118604
-2,-3,-3,-6,-11,-9,-5,-2,2021-08-07 12:44:43,118604
-3,-4,-3,-2,-1,-1,-3,-2,2021-08-07 12:44:43,118604
0,-1,-2,1,-1,0,-2,-1,2021-08-07 12:44:43,149604
2,3,2,5,7,8,3,1,2021-08-07 12:44:43,165604
0,3,1,-1,-3,0,0,0,2021-08-07 12:44:43,181603
-4,-4,-2,-3,-3,-5,-2,-2,2021-08-07 12:44:43,181603
2,1,2,-1,1,2,-1,1,2021-08-07 12:44:43,181603
2,-1,0,-4,-6,-6,-3,-1,2021-08-07 12:44:43,181603
-1,-4,-3,-1,1,0,-1,-2,2021-08-07 12:44:43,181603
0,3,3,6,4,-1,1,1,2021-08-07 12:44:43,182604
-1,0,-1,-3,-3,-3,-2,-2,2021-08-07 12:44:43,182604
-1,-1,-2,1,2,1,-1,-1,2021-08-07 12:44:43,182604
-4,-4,-5,-2,-2,-2,-3,-3,2021-08-07 12:44:43,182604
0,1,-1,-4,-6,-3,-1,-1,2021-08-07 12:44:43,182604
-2,-2,0,2,3,1,1,0,2021-08-07 12:44:43,197603
1,1,1,4,5,3,1,1,2021-08-07 12:44:43,197603
0,-1,-2,-3,-3,-1,-1,-1,2021-08-07 12:44:43,197603
0,-1,0,1,1,3,-1,0,2021-08-07 12:44:43,197603
0,-1,0,-1,-6,-3,0,0,2021-08-07 12:44:43,213605
-3,-3,-4,-9,-12,-8,-3,-3,2021-08-07 12:44:43,213605
0,-2,1,1,5,3,1,0,2021-08-07 12:44:43,213605
1,-5,-2,-3,-1,-2,-3,-2,2021-08-07 12:44:43,213605
4,6,7,8,9,6,4,4,2021-08-07 12:44:43,244603
-2,-1,-1,-7,-7,-5,-1,0,2021-08-07 12:44:43,244603
1,5,4,4,3,4,1,0,2021-08-07 12:44:43,244603
1,2,0,-1,2,0,-2,-2,2021-08-07 12:44:43,244603
-2,-4,-4,-1,0,-1,-2,-3,2021-08-07 12:44:43,260602
-2,-3,-3,-4,-5,-3,-2,-2,2021-08-07 12:44:43,260602
0,0,-1,-6,-8,-4,0,0,2021-08-07 12:44:43,260602
-1,-1,-1,2,5,2,-1,0,2021-08-07 12:44:43,260602
-4,-5,-7,-6,-7,-6,-6,-4,2021-08-07 12:44:43,275637
0,-3,-1,2,12,8,2,0,2021-08-07 12:44:43,275637
1,1,3,0,-4,-6,0,-1,2021-08-07 12:44:43,275637
1,4,4,3,6,3,1,1,2021-08-07 12:44:43,275637
-3,-3,-4,-5,-5,-5,-3,-3,2021-08-07 12:44:43,306635
-3,-2,-3,-3,-9,-9,-3,-1,2021-08-07 12:44:43,322635
0,-1,-2,0,4,2,0,0,2021-08-07 12:44:43,338635
2,4,3,0,-3,-1,2,2,2021-08-07 12:44:43,338635
0,1,-2,-2,-3,1,1,0,2021-08-07 12:44:43,338635
-4,-4,-3,0,4,3,-2,-2,2021-08-07 12:44:43,338635
-1,-3,-5,2,5,2,1,-2,2021-08-07 12:44:43,338635
1,5,5,1,-3,-1,0,2,2021-08-07 12:44:43,338635
2,5,4,2,1,1,2,1,2021-08-07 12:44:43,338635
1,-1,0,1,1,0,0,-1,2021-08-07 12:44:43,338635
-4,-2,-3,-6,-8,-8,-3,-2,2021-08-07 12:44:43,338635
-3,-6,-4,-3,-6,-2,-1,-3,2021-08-07 12:44:43,339636
1,-1,0,-3,-3,-2,-1,1,2021-08-07 12:44:43,354635
1,4,4,5,8,6,1,2,2021-08-07 12:44:43,354635
-1,0,0,2,0,0,0,0,2021-08-07 12:44:43,354635
-1,-2,-1,-1,-1,0,0,-1,2021-08-07 12:44:43,354635
-1,-2,-2,-3,-3,-2,-1,-3,2021-08-07 12:44:43,386636
-1,-4,-4,-5,-9,-6,-4,-3,2021-08-07 12:44:43,386636
3,3,2,2,0,1,-1,1,2021-08-07 12:44:43,386636
-3,-3,-6,-3,-2,-2,-4,-3,2021-08-07 12:44:43,386636
4,6,5,6,9,6,5,4,2021-08-07 12:44:43,386636
-3,-1,-1,-1,0,-1,-3,-4,2021-08-07 12:44:43,386636
-2,-4,-5,-5,-2,-1,-2,-2,2021-08-07 12:44:43,402635
1,-1,1,1,1,2,2,0,2021-08-07 12:44:43,418638
-4,-3,-5,-11,-16,-12,-6,-4,2021-08-07 12:44:43,418638
6,6,9,14,17,10,8,4,2021-08-07 12:44:43,418638
-2,1,1,6,8,3,1,-1,2021-08-07 12:44:43,418638
-1,0,-1,0,2,2,1,1,2021-08-07 12:44:43,418638
-3,-6,-6,-2,-1,-3,-3,-2,2021-08-07 12:44:43,450635
-5,-4,-5,-9,-14,-6,-5,-4,2021-08-07 12:44:43,466635
-1,-2,-4,-3,-2,-1,-1,-2,2021-08-07 12:44:43,466635
1,0,0,0,1,-2,0,0,2021-08-07 12:44:43,466635
1,0,2,2,4,2,2,0,2021-08-07 12:44:43,466635
0,-1,-1,-6,-8,-7,-2,-1,2021-08-07 12:44:43,466635
-1,-3,-3,-5,-8,-6,-3,-1,2021-08-07 12:44:43,466635
1,-1,-1,1,6,6,1,0,2021-08-07 12:44:43,466635
0,-1,1,5,6,6,2,1,2021-08-07 12:44:43,481635
-1,1,-1,-2,-1,-3,-1,-1,2021-08-07 12:44:43,481894
1,5,4,4,3,2,1,0,2021-08-07 12:44:43,481894
-2,0,-4,-5,-7,-6,-4,-2,2021-08-07 12:44:43,481894
-1,-2,-2,-1,-4,-4,-2,-3,2021-08-07 12:44:43,497153
-1,-4,-3,-3,0,-2,-1,-1,2021-08-07 12:44:43,497153
-3,-6,-5,-11,-13,-7,-5,-3,2021-08-07 12:44:43,497153
1,-1,-1,0,4,4,2,1,2021-08-07 12:44:43,497153
4,6,5,8,9,6,5,1,2021-08-07 12:44:43,529152
-2,-1,-4,-4,-8,-7,-5,-3,2021-08-07 12:44:43,529152
2,3,4,8,14,9,5,2,2021-08-07 12:44:43,529152
-3,-1,-1,-1,-4,-2,-2,-2,2021-08-07 12:44:43,529152
-3,-6,-5,-3,0,0,-3,-3,2021-08-07 12:44:43,529152
-1,-3,-4,-4,-10,-5,-3,-2,2021-08-07 12:44:43,529152
-1,0,-1,-3,-7,-3,-1,-1,2021-08-07 12:44:43,561153
0,1,1,3,8,3,1,0,2021-08-07 12:44:43,561153
-2,1,-1,-1,-4,-2,-1,0,2021-08-07 12:44:43,561153
-2,-2,0,-1,-5,-3,-2,-2,2021-08-07 12:44:43,561153
-1,-3,-4,-4,-1,-1,-2,-2,2021-08-07 12:44:43,561153
-1,-2,-1,-2,-1,-3,-2,-2,2021-08-07 12:44:43,561153
1,2,4,7,6,3,3,1,2021-08-07 12:44:43,576154
1,1,0,-3,0,-1,0,1,2021-08-07 12:44:43,592153
-7,-9,-7,-2,-2,-4,-3,-6,2021-08-07 12:44:43,623152
6,13,11,7,3,3,3,3,2021-08-07 12:44:43,639152
-2,-4,-4,-6,-7,-4,-4,-3,2021-08-07 12:44:43,655153
-1,-1,0,1,0,0,-1,-2,2021-08-07 12:44:43,671152
1,0,0,3,4,3,0,1,2021-08-07 12:44:43,671152
-5,-12,-10,-7,-5,-5,-2,-2,2021-08-07 12:44:43,671152
4,6,5,6,13,9,4,2,2021-08-07 12:44:43,687152
3,3,2,0,1,1,2,0,2021-08-07 12:44:43,703153
-4,-3,-6,-9,-21,-14,-9,-3,2021-08-07 12:44:43,703153
0,-1,1,4,6,6,3,1,2021-08-07 12:44:43,719187
0,3,1,4,15,8,4,3,2021-08-07 12:44:43,719187
-4,-4,-6,-6,-7,-5,-3,-4,2021-08-07 12:44:43,719187
1,0,1,3,3,1,0,0,2021-08-07 12:44:43,719187
-4,-5,-7,-10,-19,-13,-7,-4,2021-08-07 12:44:43,719187
-3,-6,-7,-9,-18,-13,-4,-3,2021-08-07 12:44:43,719187
4,10,9,10,18,11,5,5,2021-08-07 12:44:43,719187
-3,-2,-3,-9,-8,-6,-3,-1,2021-08-07 12:44:43,734187
-1,-1,2,8,8,5,1,-3,2021-08-07 12:44:43,734187
-3,-8,-6,-7,-6,-3,-2,-4,2021-08-07 12:44:43,734187
1,1,0,-2,-6,-1,-2,0,2021-08-07 12:44:43,734187
0,1,2,1,5,1,1,2,2021-08-07 12:44:43,734187
1,2,1,-1,1,0,-1,2,2021-08-07 12:44:43,734187
-3,-4,-3,-1,-2,-5,-2,-2,2021-08-07 12:44:43,734187
-6,-7,-8,-6,-5,-5,-2,-2,2021-08-07 12:44:43,735189
2,4,4,3,5,6,4,2,2021-08-07 12:44:43,735189
-2,-3,-1,-2,-3,-2,-2,-1,2021-08-07 12:44:43,735189
5,5,5,6,0,1,1,3,2021-08-07 12:44:43,735189
-2,-1,0,0,3,-1,-4,-3,2021-08-07 12:44:43,735189
-1,-3,-3,1,3,3,5,2,2021-08-07 12:44:43,735189
0,-3,0,-6,-10,-5,0,0,2021-08-07 12:44:43,735189
-1,0,2,6,7,0,-6,-3,2021-08-07 12:44:43,736188
-5,-3,-3,-3,-2,-2,-4,-7,2021-08-07 12:44:43,736188
-1,-3,-3,-3,-6,-7,-5,-4,2021-08-07 12:44:43,736188
3,3,2,3,5,3,2,0,2021-08-07 12:44:43,736188
1,-1,-2,-10,-12,3,11,7,2021-08-07 12:44:43,765188
2,0,3,6,8,3,0,0,2021-08-07 12:44:43,781186
-11,-10,-9,-2,-5,-14,-19,-16,2021-08-07 12:44:43,781186
-1,-1,-1,-1,2,1,-2,-1,2021-08-07 12:44:43,781186
5,11,9,-1,-4,-1,0,3,2021-08-07 12:44:43,781186
0,-4,-6,-8,-8,-1,3,1,2021-08-07 12:44:43,781186
2,0,-2,-12,-13,-3,3,4,2021-08-07 12:44:43,781186
3,-5,0,8,11,10,7,5,2021-08-07 12:44:43,781186
6,7,4,9,15,9,6,5,2021-08-07 12:44:43,797188
-11,-5,-2,-1,-5,-12,-17,-16,2021-08-07 12:44:43,797188
-4,-4,-5,-11,-13,-8,-5,-4,2021-08-07 12:44:43,797188
3,8,6,11,18,12,12,5,2021-08-07 12:44:43,797188
-3,-7,-7,-4,-3,-5,-3,-1,2021-08-07 12:44:43,828189
2,-1,-2,0,-1,-5,-5,-3,2021-08-07 12:44:43,828189
2,2,-1,-1,-3,-5,-6,-2,2021-08-07 12:44:43,828189
-2,-3,-5,-9,-17,-7,-1,-1,2021-08-07 12:44:43,844187
0,-1,-1,1,6,7,4,2,2021-08-07 12:44:43,860187
3,2,3,2,2,2,2,3,2021-08-07 12:44:43,860187
0,3,6,8,14,9,4,-1,2021-08-07 12:44:43,860187
-3,-1,-5,-10,-20,-13,-8,-5,2021-08-07 12:44:43,860187
-4,-6,-3,-1,2,1,-4,-5,2021-08-07 12:44:43,875188
2,-3,-3,0,-1,2,3,3,2021-08-07 12:44:43,891189
8,11,8,16,23,16,11,9,2021-08-07 12:44:43,891189
0,1,2,4,6,-1,-3,-1,2021-08-07 12:44:43,891189
-12,-14,-15,-23,-39,-32,-16,-13,2021-08-07 12:44:43,891189
5,1,3,3,11,12,8,6,2021-08-07 12:44:43,891189
3,2,4,4,3,6,6,3,2021-08-07 12:44:43,891189
0,0,0,4,8,0,-2,-2,2021-08-07 12:44:43,891189
-4,-4,-4,-4,-7,-7,-7,-6,2021-08-07 12:44:43,892190
-2,-2,-4,-4,-7,-1,1,0,2021-08-07 12:44:43,892190
-1,-4,-1,-2,-9,-7,-3,-2,2021-08-07 12:44:43,892190
-1,0,-2,-1,1,1,-2,0,2021-08-07 12:44:43,892190
-1,-1,1,3,7,4,0,0,2021-08-07 12:44:43,923188
5,4,3,11,15,12,9,6,2021-08-07 12:44:43,938704
2,5,3,-1,-2,0,0,2,2021-08-07 12:44:43,946704
-6,-7,-6,-8,-15,-12,-6,-6,2021-08-07 12:44:43,946704
1,-2,2,5,7,4,0,0,2021-08-07 12:44:43,946704
-2,-2,-2,-2,-4,-3,-4,-1,2021-08-07 12:44:43,946704
-2,-5,-2,2,6,2,2,0,2021-08-07 12:44:43,947705
1,-1,0,-11,-20,-14,-4,0,2021-08-07 12:44:43,947705
4,4,6,17,31,22,11,6,2021-08-07 12:44:43,954705
1,2,3,-2,-9,-5,0,0,2021-08-07 12:44:43,970705
1,0,-1,3,5,3,1,1,2021-08-07 12:44:43,970705
-1,-3,0,-1,-1,-4,-3,-2,2021-08-07 12:44:43,986703
-4,-2,-3,-12,-23,-13,-6,-4,2021-08-07 12:44:44,002702
-6,-7,-7,-8,-10,-6,-4,-3,2021-08-07 12:44:44,002702
3,4,2,1,9,8,5,2,2021-08-07 12:44:44,002702
0,2,0,2,4,3,1,-1,2021-08-07 12:44:44,002702
0,2,3,6,9,3,0,0,2021-08-07 12:44:44,002702
-6,-10,-10,-15,-29,-23,-12,-6,2021-08-07 12:44:44,002702
1,2,-1,-6,-4,4,1,-2,2021-08-07 12:44:44,002702
2,5,7,12,20,10,5,4,2021-08-07 12:44:44,002702
-1,-3,-4,-8,-12,-5,-3,-4,2021-08-07 12:44:44,018704
1,1,1,5,8,1,0,1,2021-08-07 12:44:44,033704
-6,-9,-7,-7,-18,-10,-7,-5,2021-08-07 12:44:44,033704
-6,-7,-8,-7,-10,-7,-6,-7,2021-08-07 12:44:44,033704
6,5,5,7,15,11,5,4,2021-08-07 12:44:44,033704
-3,-3,-2,0,-1,-3,-2,-2,2021-08-07 12:44:44,033704
-2,-4,-4,-4,-3,-6,-3,-1,2021-08-07 12:44:44,033704
3,4,7,8,12,9,5,2,2021-08-07 12:44:44,033704
-3,-2,-4,-6,-15,-9,-5,-4,2021-08-07 12:44:44,065703
-1,-4,-3,-6,-6,-1,-1,-1,2021-08-07 12:44:44,081703
4,7,9,22,35,21,10,6,2021-08-07 12:44:44,096704
-3,-3,-6,-7,-9,-5,-5,-2,2021-08-07 12:44:44,096704
-5,-5,-6,-13,-26,-19,-10,-5,2021-08-07 12:44:44,096704
-1,-2,-2,-5,-7,1,-2,-1,2021-08-07 12:44:44,096704
4,5,9,17,30,16,8,5,2021-08-07 12:44:44,096704
3,4,3,5,11,8,6,3,2021-08-07 12:44:44,096704
-1,1,-2,1,0,-3,0,-1,2021-08-07 12:44:44,096704
-7,-9,-12,-15,-10,-11,-8,-6,2021-08-07 12:44:44,097705
-4,-6,-4,-18,-32,-19,-10,-6,2021-08-07 12:44:44,097705
2,4,3,6,2,4,1,2,2021-08-07 12:44:44,097705
3,3,6,19,35,18,8,5,2021-08-07 12:44:44,128704
-2,-3,-3,-3,-6,-2,-1,-4,2021-08-07 12:44:44,128704
-4,-3,-5,-4,-8,-5,-4,-4,2021-08-07 12:44:44,128704
-1,-3,-1,-13,-24,-14,-8,-2,2021-08-07 12:44:44,128704
1,3,2,4,11,11,5,1,2021-08-07 12:44:44,129705
2,4,5,11,17,8,3,1,2021-08-07 12:44:44,144702
-2,0,-2,3,1,-3,-2,-3,2021-08-07 12:44:44,159703
-4,-6,-10,-15,-13,-3,-3,-5,2021-08-07 12:44:44,159703
2,3,7,19,37,18,8,3,2021-08-07 12:44:44,159703
0,3,2,-2,-1,1,0,1,2021-08-07 12:44:44,159703
-2,-3,-5,-11,-25,-18,-7,-4,2021-08-07 12:44:44,159703
-3,-5,-7,-5,-4,-4,-2,-2,2021-08-07 12:44:44,159703
0,0,-1,1,0,1,1,1,2021-08-07 12:44:44,191704
3,6,3,8,5,3,3,3,2021-08-07 12:44:44,207703
-4,-5,-4,-8,-1,-1,-1,-2,2021-08-07 12:44:44,222705
-1,-3,-3,0,-2,-1,-1,-1,2021-08-07 12:44:44,222705
2,5,6,4,15,13,9,3,2021-08-07 12:44:44,222705
0,-2,-1,-1,-10,-7,-3,1,2021-08-07 12:44:44,222705
-4,-9,-12,-19,-18,-12,-7,-4,2021-08-07 12:44:44,222705
-3,-4,-4,-7,-11,-8,-4,-3,2021-08-07 12:44:44,222705
-2,-3,-1,-8,-8,-3,-4,-3,2021-08-07 12:44:44,222705
0,5,5,10,13,4,1,1,2021-08-07 12:44:44,222705
5,4,4,15,13,8,7,4,2021-08-07 12:44:44,223705
1,-1,2,11,25,14,5,0,2021-08-07 12:44:44,223705
-1,0,-3,-12,-32,-21,-9,-4,2021-08-07 12:44:44,253706
-2,-4,-2,-8,-8,-2,-2,-3,2021-08-07 12:44:44,269703
-3,-2,0,-5,-9,-8,-4,-2,2021-08-07 12:44:44,285704
1,3,2,6,13,7,6,2,2021-08-07 12:44:44,301705
-5,-6,-4,3,3,-1,-4,-1,2021-08-07 12:44:44,301705
3,2,0,5,9,6,5,2,2021-08-07 12:44:44,301705
-1,-1,0,-7,-2,0,-1,0,2021-08-07 12:44:44,301705
-1,0,2,1,-7,-6,-2,-1,2021-08-07 12:44:44,301705
-2,-2,-4,-10,-19,-11,-6,-3,2021-08-07 12:44:44,301705
0,-2,1,4,5,3,1,-1,2021-08-07 12:44:44,301705
-2,1,3,17,26,13,3,0,2021-08-07 12:44:44,301705
4,5,7,11,5,1,0,3,2021-08-07 12:44:44,301705
1,0,-2,-6,-5,-1,0,0,2021-08-07 12:44:44,302705
-5,-8,-11,-28,-28,-17,-12,-6,2021-08-07 12:44:44,302705
1,1,3,0,9,9,3,2,2021-08-07 12:44:44,302705
-2,-4,-6,-13,-4,-2,-1,-3,2021-08-07 12:44:44,302705
-2,-4,-7,-10,-15,-10,-4,-1,2021-08-07 12:44:44,333703
1,5,8,7,0,-1,1,-1,2021-08-07 12:44:44,349704
0,-2,-1,5,-2,-1,-1,-2,2021-08-07 12:44:44,365703
-2,-1,1,10,11,4,-2,-1,2021-08-07 12:44:44,376703
1,-1,0,-2,-13,-7,-3,-1,2021-08-07 12:44:44,376703
0,-2,0,5,8,6,4,0,2021-08-07 12:44:44,376703
-1,-3,-2,0,-6,-5,-2,-1,2021-08-07 12:44:44,376703
0,0,-1,5,14,11,5,2,2021-08-07 12:44:44,377705
-2,-1,-3,-1,2,-1,-1,-1,2021-08-07 12:44:44,377705
-2,-3,-2,2,1,1,-2,-3,2021-08-07 12:44:44,377705
0,0,0,1,-1,-2,0,-2,2021-08-07 12:44:44,377705
0,2,1,-10,-20,-12,-6,-1,2021-08-07 12:44:44,377705
-2,-3,-2,-2,0,2,-1,-2,2021-08-07 12:44:44,377705
0,3,2,1,3,1,0,4,2021-08-07 12:44:44,377705
-4,-6,-6,-11,-22,-13,-8,-4,2021-08-07 12:44:44,377705
3,4,3,18,19,10,5,1,2021-08-07 12:44:44,377705
-6,-4,-7,-13,-12,-7,-4,-5,2021-08-07 12:44:44,397703
2,6,8,3,13,9,5,2,2021-08-07 12:44:44,397703
1,-1,1,-10,-6,-2,-2,0,2021-08-07 12:44:44,397703
2,2,-11,-14,-1,4,2,4,2021-08-07 12:44:44,398703
-5,-8,-2,2,-4,-8,-5,-5,2021-08-07 12:44:44,429704
-2,-3,-3,1,1,2,-2,-1,2021-08-07 12:44:44,429704
-1,2,6,12,11,3,1,1,2021-08-07 12:44:44,429704
0,-1,3,4,-6,-5,-1,-1,2021-08-07 12:44:44,429704
2,3,-2,0,9,3,1,1,2021-08-07 12:44:44,461705
-3,-3,-4,-7,-6,-3,-1,-4,2021-08-07 12:44:44,476704
1,-1,-1,-7,-8,-3,-2,1,2021-08-07 12:44:44,476704
-4,-5,-3,-7,-15,-11,-5,-2,2021-08-07 12:44:44,476704
-2,-3,0,3,8,6,1,0,2021-08-07 12:44:44,476704
7,11,14,27,37,21,12,6,2021-08-07 12:44:44,476704
0,1,-4,-2,-2,-2,-1,-2,2021-08-07 12:44:44,476704
1,3,1,-4,5,2,1,1,2021-08-07 12:44:44,476704
-2,-3,0,-4,-7,-6,-4,-2,2021-08-07 12:44:44,492703
0,0,-3,-2,-7,-4,-3,1,2021-08-07 12:44:44,508702
-1,-3,-2,0,2,0,-2,-1,2021-08-07 12:44:44,524702
-3,-2,-1,-7,-15,-9,-5,-2,2021-08-07 12:44:44,540704
-2,-2,-1,-7,-7,-5,-1,-2,2021-08-07 12:44:44,540704
-2,-2,-3,-7,-7,-2,-1,-1,2021-08-07 12:44:44,540704
1,2,1,3,3,0,-1,0,2021-08-07 12:44:44,540704
-4,-4,-2,-7,-10,-4,-3,-3,2021-08-07 12:44:44,540704
-3,-1,-3,-5,-6,-2,-2,-4,2021-08-07 12:44:44,540704
4,7,6,10,15,9,6,5,2021-08-07 12:44:44,541704
1,2,-2,-2,6,2,2,1,2021-08-07 12:44:44,541704
-3,-3,-1,5,6,0,0,-2,2021-08-07 12:44:44,541704
4,3,0,7,7,3,2,2,2021-08-07 12:44:44,556706
-5,-5,-6,-11,-11,-8,-6,-2,2021-08-07 12:44:44,572703
-1,-1,0,-5,-8,-1,-1,-2,2021-08-07 12:44:44,588705
-2,-4,-3,-10,-17,-11,-7,-3,2021-08-07 12:44:44,604704
0,0,1,6,10,6,4,-1,2021-08-07 12:44:44,604704
0,0,-3,-9,-6,-4,-3,-1,2021-08-07 12:44:44,604704
-2,-1,-2,0,6,3,-1,-1,2021-08-07 12:44:44,604704
1,0,-1,4,4,5,2,0,2021-08-07 12:44:44,604704
-4,-2,-5,-7,-11,-10,-7,-2,2021-08-07 12:44:44,604704
-8,-10,-6,-10,-10,-7,-5,-6,2021-08-07 12:44:44,604704
0,-1,-1,1,2,4,2,0,2021-08-07 12:44:44,620704
6,8,7,4,3,7,6,6,2021-08-07 12:44:44,636706
3,4,4,10,11,7,4,5,2021-08-07 12:44:44,652703
-3,-5,-6,-7,-11,-9,-4,-4,2021-08-07 12:44:44,652703
-7,-11,-11,-9,-13,-10,-7,-6,2021-08-07 12:44:44,652703
2,4,7,16,15,9,2,1,2021-08-07 12:44:44,652703
6,5,5,7,10,6,3,3,2021-08-07 12:44:44,652703
-1,-1,0,-3,-10,-5,-3,-1,2021-08-07 12:44:44,652703
-1,-1,-2,2,5,2,0,0,2021-08-07 12:44:44,652703
-4,-6,-9,-14,-16,-10,-5,-6,2021-08-07 12:44:44,652703
0,3,7,6,8,6,3,2,2021-08-07 12:44:44,653704
-3,-3,-3,1,-1,-1,-2,-3,2021-08-07 12:44:44,653704
0,2,4,7,2,-1,-1,0,2021-08-07 12:44:44,653704
3,5,8,17,17,9,5,5,2021-08-07 12:44:44,668703
0,-1,-3,5,7,3,1,0,2021-08-07 12:44:44,715704
-3,-6,-11,-34,-22,-8,-4,-3,2021-08-07 12:44:44,715704
-4,-3,-2,-9,-11,-8,-5,-1,2021-08-07 12:44:44,715704
-3,-5,-3,-8,-9,-7,-4,-3,2021-08-07 12:44:44,715704
-9,-13,-14,-19,-42,-29,-13,-9,2021-08-07 12:44:44,715704
9,14,17,29,29,32,17,10,2021-08-07 12:44:44,715704
6,10,9,22,41,23,11,8,2021-08-07 12:44:44,716706
-5,-5,-4,-7,-7,-6,-4,-4,2021-08-07 12:44:44,716706
-4,-2,2,2,5,0,-2,-2,2021-08-07 12:44:44,716706
-9,-12,-14,-15,-31,-23,-14,-11,2021-08-07 12:44:44,716706
5,7,6,-2,-12,-4,3,5,2021-08-07 12:44:44,716706
6,6,9,17,31,19,8,7,2021-08-07 12:44:44,716706
-3,-4,-7,-18,-18,-10,-3,-3,2021-08-07 12:44:44,717705
0,-2,0,0,-5,-7,-4,-1,2021-08-07 12:44:44,717705
0,-3,-5,1,-4,-1,0,-3,2021-08-07 12:44:44,717705
-1,-4,-7,-8,-2,-3,-2,-3,2021-08-07 12:44:44,717705
-3,-5,-3,-8,-5,-3,-3,-4,2021-08-07 12:44:44,747703
3,4,6,1,5,5,2,2,2021-08-07 12:44:44,763702
1,2,4,14,9,2,1,1,2021-08-07 12:44:44,763702
-3,-5,-7,-11,-14,-8,-3,-2,2021-08-07 12:44:44,763702
4,4,1,-1,12,8,5,3,2021-08-07 12:44:44,763702
-4,-3,-5,-6,-15,-13,-8,-5,2021-08-07 12:44:44,763702
-1,-1,1,5,9,5,2,-2,2021-08-07 12:44:44,763702
-4,-4,-2,0,-6,-6,-3,-3,2021-08-07 12:44:44,763702
3,8,11,21,16,7,3,3,2021-08-07 12:44:44,802703
-1,-1,1,3,7,2,1,1,2021-08-07 12:44:44,802703
0,1,-2,-10,-12,-5,-1,-1,2021-08-07 12:44:44,802703
-3,-7,-16,-2,-3,-3,-3,-4,2021-08-07 12:44:44,802703
-3,-6,-7,-17,-12,-6,-4,-2,2021-08-07 12:44:44,802703
-3,-7,-9,-6,-11,-7,-4,-2,2021-08-07 12:44:44,802703
2,1,6,9,14,5,0,0,2021-08-07 12:44:44,803704
11,13,12,3,18,18,11,8,2021-08-07 12:44:44,803704
1,0,1,16,21,12,4,0,2021-08-07 12:44:44,826704
-1,0,0,1,-4,-5,-3,-2,2021-08-07 12:44:44,826704
-1,1,1,-5,-11,-6,-3,-1,2021-08-07 12:44:44,826704
-1,-2,0,2,2,-2,0,-1,2021-08-07 12:44:44,826704
1,1,1,-8,-13,-5,-1,2,2021-08-07 12:44:44,842702
0,1,0,8,5,2,2,-1,2021-08-07 12:44:44,842702
0,-3,-3,1,5,3,0,0,2021-08-07 12:44:44,842702
2,4,2,6,12,6,3,2,2021-08-07 12:44:44,842702
-5,-3,-4,-4,-11,-7,-4,-3,2021-08-07 12:44:44,874704
-5,-5,-8,-10,-7,-7,-3,-2,2021-08-07 12:44:44,874704
-1,-2,-3,-12,-12,-6,-3,-3,2021-08-07 12:44:44,874704
-4,-4,-1,-9,-11,-6,-5,-4,2021-08-07 12:44:44,874704
-1,1,4,10,9,5,2,0,2021-08-07 12:44:44,874704
-2,-4,-2,6,1,-2,-3,-2,2021-08-07 12:44:44,874704
1,1,-1,-7,-8,-2,0,-1,2021-08-07 12:44:44,875704
4,7,9,17,26,14,7,7,2021-08-07 12:44:44,875704
-1,-2,-7,-15,-14,-7,-3,-2,2021-08-07 12:44:44,906704
-2,-2,-1,0,4,1,-1,-2,2021-08-07 12:44:44,922705
-5,-6,-5,-9,-20,-12,-6,-3,2021-08-07 12:44:44,938704
0,0,4,10,9,7,1,0,2021-08-07 12:44:44,953702
0,0,0,-10,-8,-7,-4,-3,2021-08-07 12:44:44,953702
3,0,0,14,34,18,7,3,2021-08-07 12:44:44,953702
11,13,12,12,15,10,9,8,2021-08-07 12:44:44,953702
-2,-3,-5,-13,-18,-10,-3,-1,2021-08-07 12:44:44,953702
-1,-4,-2,2,0,3,0,-2,2021-08-07 12:44:44,953702
-2,-2,7,-7,-8,-4,-3,-3,2021-08-07 12:44:44,954705
-5,-6,-14,-4,-8,-7,-5,-6,2021-08-07 12:44:44,954705
-3,-4,-2,-2,-9,-5,-5,-3,2021-08-07 12:44:44,954705
-2,-2,-3,-7,-5,-3,0,-2,2021-08-07 12:44:44,969704
4,5,4,8,11,5,4,2,2021-08-07 12:44:44,985702
-2,0,3,9,14,9,2,1,2021-08-07 12:44:45,001704
0,1,3,-2,-10,-7,-4,0,2021-08-07 12:44:45,001704
-4,-3,-2,2,-4,-5,-4,-2,2021-08-07 12:44:45,001704
-1,1,-2,-4,-6,-1,-2,-1,2021-08-07 12:44:45,001704
-1,-8,-9,-17,-14,-5,-3,-3,2021-08-07 12:44:45,001704
-11,-15,-13,-29,-23,-14,-13,-9,2021-08-07 12:44:45,017706
1,1,2,12,11,4,2,1,2021-08-07 12:44:45,017706
2,8,7,-2,-24,-13,-6,0,2021-08-07 12:44:45,017706
5,8,9,27,35,23,13,6,2021-08-07 12:44:45,017706
2,2,-1,6,9,8,7,3,2021-08-07 12:44:45,017706
0,-1,-2,-4,5,2,0,-1,2021-08-07 12:44:45,017706
-4,-6,-8,-9,-13,-8,-5,-4,2021-08-07 12:44:45,017706
-3,-6,-8,-22,-21,-15,-7,-5,2021-08-07 12:44:45,017706
-1,0,1,-1,-6,-9,-3,-3,2021-08-07 12:44:45,017706
-5,-4,-2,-3,-12,-8,-6,-3,2021-08-07 12:44:45,049705
-1,-3,-7,0,1,2,0,-1,2021-08-07 12:44:45,049705
5,6,9,12,16,11,4,3,2021-08-07 12:44:45,049705
1,0,-1,4,6,2,2,0,2021-08-07 12:44:45,049705
0,0,1,3,-2,-1,0,0,2021-08-07 12:44:45,065704
-2,-4,-3,-6,-9,-7,-4,-1,2021-08-07 12:44:45,080704
-7,-6,-8,-11,-18,-12,-7,-5,2021-08-07 12:44:45,095704
1,2,1,5,2,1,1,0,2021-08-07 12:44:45,111704
6,8,7,10,9,8,6,4,2021-08-07 12:44:45,127704
2,2,-2,-2,12,7,3,2,2021-08-07 12:44:45,127704
-7,-9,-8,-14,-7,-6,-5,-5,2021-08-07 12:44:45,127704
-1,-2,1,-10,-8,-4,-2,-2,2021-08-07 12:44:45,127704
0,-1,-11,-1,1,0,0,0,2021-08-07 12:44:45,127704
3,3,5,7,8,6,5,3,2021-08-07 12:44:45,127704
-5,-4,-3,-1,-13,-8,-4,-5,2021-08-07 12:44:45,127704
0,0,4,8,9,3,0,-1,2021-08-07 12:44:45,127704
-4,-4,-2,-8,-19,-10,-5,-3,2021-08-07 12:44:45,128704
12,11,12,37,71,46,22,12,2021-08-07 12:44:45,128704
-4,-4,-7,-14,-22,-14,-7,-3,2021-08-07 12:44:45,128704
-1,-4,-5,-7,-4,-3,-2,-2,2021-08-07 12:44:45,128704
1,2,4,6,2,-3,-1,-1,2021-08-07 12:44:45,143704
-6,-6,-7,-11,-28,-18,-9,-8,2021-08-07 12:44:45,143704
0,0,-1,-7,-2,1,0,-1,2021-08-07 12:44:45,143704
-6,-9,-10,-22,-16,-10,-9,-6,2021-08-07 12:44:45,143704
13,13,17,20,33,26,16,12,2021-08-07 12:44:45,175704
-2,0,3,9,7,1,0,-3,2021-08-07 12:44:45,191702
1,4,2,11,8,3,1,2,2021-08-07 12:44:45,191702
-4,-5,-8,-10,-17,-9,-6,-4,2021-08-07 12:44:45,191702
-7,-10,-10,-16,-16,-12,-9,-7,2021-08-07 12:44:45,206703
1,2,5,3,-2,0,1,1,2021-08-07 12:44:45,206703
7,13,14,22,22,12,7,7,2021-08-07 12:44:45,206703
-1,1,1,8,7,2,1,2,2021-08-07 12:44:45,206703
-4,-4,-5,-4,-7,-4,-2,-3,2021-08-07 12:44:45,206703
-5,-11,-13,-38,-38,-20,-11,-7,2021-08-07 12:44:45,206703
-5,-10,-9,-19,-7,-3,-5,-6,2021-08-07 12:44:45,207704
4,6,7,15,16,11,7,5,2021-08-07 12:44:45,207704
2,8,9,24,33,17,6,3,2021-08-07 12:44:45,222705
-3,-3,-5,3,-5,-7,-4,-4,2021-08-07 12:44:45,222705
0,0,2,6,12,3,4,1,2021-08-07 12:44:45,222705
3,5,6,-4,-9,-5,-2,0,2021-08-07 12:44:45,222705
-6,-8,-7,-16,-21,-14,-8,-5,2021-08-07 12:44:45,234703
1,2,1,0,-8,-4,0,2,2021-08-07 12:44:45,234703
-2,-4,-1,6,9,3,0,-2,2021-08-07 12:44:45,234703
6,8,9,22,32,20,9,7,2021-08-07 12:44:45,253705
1,0,0,6,12,7,2,-1,2021-08-07 12:44:45,269703
-3,-2,-5,-13,-16,-10,-4,-3,2021-08-07 12:44:45,285705
-4,-8,-8,-13,-11,-2,-4,-5,2021-08-07 12:44:45,301704
-4,-3,0,-3,-6,-6,-2,-3,2021-08-07 12:44:45,317705
1,-2,-5,-5,-16,-9,-3,-1,2021-08-07 12:44:45,333703
2,8,7,16,21,11,4,3,2021-08-07 12:44:45,333703
2,3,3,10,7,1,1,2,2021-08-07 12:44:45,333703
-5,-5,-7,-10,-13,-6,-4,-6,2021-08-07 12:44:45,333703
-4,-4,-6,-16,-8,1,-2,-2,2021-08-07 12:44:45,333703
-4,-3,-4,-7,-5,-3,-3,-1,2021-08-07 12:44:45,334707
1,0,1,0,-2,-1,0,-1,2021-08-07 12:44:45,334707
-6,-8,-8,-16,-27,-19,-11,-6,2021-08-07 12:44:45,334707
3,3,8,25,26,17,9,4,2021-08-07 12:44:45,334707
0,1,-1,-3,0,1,0,-1,2021-08-07 12:44:45,334707
0,1,2,4,11,9,3,0,2021-08-07 12:44:45,334707
2,2,2,0,-2,-2,1,1,2021-08-07 12:44:45,334707
-2,-4,-3,-7,-9,-7,-5,-3,2021-08-07 12:44:45,349704
-1,-4,-3,-4,-4,-4,-1,-1,2021-08-07 12:44:45,349704
0,1,3,1,-6,-4,-3,0,2021-08-07 12:44:45,349704
0,2,-1,-2,3,4,3,3,2021-08-07 12:44:45,349704
1,3,1,0,14,7,4,2,2021-08-07 12:44:45,365704
-6,-8,-5,-4,-11,-10,-7,-8,2021-08-07 12:44:45,381705
5,6,8,10,16,13,9,5,2021-08-07 12:44:45,397704
1,1,2,4,-3,-1,0,1,2021-08-07 12:44:45,397704
-5,-4,-7,-20,-25,-15,-9,-5,2021-08-07 12:44:45,397704
-3,-3,-1,-2,0,0,-1,-1,2021-08-07 12:44:45,397704
-1,-2,-1,9,1,-1,0,-1,2021-08-07 12:44:45,397704
-1,-5,-5,-3,11,7,1,-1,2021-08-07 12:44:45,398705
3,4,4,8,14,8,5,3,2021-08-07 12:44:45,429703
-2,-3,-1,-7,-4,-4,-3,-1,2021-08-07 12:44:45,444702
-3,-2,-2,-7,-11,-10,-6,-2,2021-08-07 12:44:45,444702
-3,-2,-3,-2,-12,-8,-5,-3,2021-08-07 12:44:45,444702
-9,-14,-14,-33,-54,-34,-17,-11,2021-08-07 12:44:45,444702
11,15,17,45,80,56,27,14,2021-08-07 12:44:45,444702
-2,-1,0,-6,-8,-7,-2,-3,2021-08-07 12:44:45,444702
-3,-1,-1,6,-1,0,-2,-2,2021-08-07 12:44:45,445704
-5,-6,-8,-8,-5,-6,-5,-5,2021-08-07 12:44:45,445704
0,1,-2,-8,-20,-12,-5,-1,2021-08-07 12:44:45,445704
0,0,-2,-12,-19,-10,-4,-1,2021-08-07 12:44:45,445704
2,3,4,17,23,13,5,1,2021-08-07 12:44:45,445704
-9,-13,-14,-8,-11,-9,-7,-7,2021-08-07 12:44:45,475705
6,9,12,15,8,2,2,3,2021-08-07 12:44:45,491706
0,1,-3,-7,-5,-4,-2,1,2021-08-07 12:44:45,507702
-3,-5,-8,-17,-12,-6,-4,-4,2021-08-07 12:44:45,507702
2,2,4,10,20,14,6,3,2021-08-07 12:44:45,507702
-7,-4,-8,-10,-7,-8,-3,-4,2021-08-07 12:44:45,507702
0,-2,-3,4,1,-1,-1,-1,2021-08-07 12:44:45,507702
3,6,7,4,1,2,2,2,2021-08-07 12:44:45,507702
3,2,2,6,8,11,6,4,2021-08-07 12:44:45,507702
-6,-7,-8,-13,-12,-11,-7,-7,2021-08-07 12:44:45,523704
-1,-1,-1,-1,-6,-3,-2,-1,2021-08-07 12:44:45,523704
-4,-4,-2,-2,-5,-6,0,-1,2021-08-07 12:44:45,523704
-2,2,1,5,-2,-4,-2,-2,2021-08-07 12:44:45,523704
-7,-14,-14,-15,-29,-18,-10,-8,2021-08-07 12:44:45,524705
11,17,19,11,37,27,14,10,2021-08-07 12:44:45,524705
0,0,7,7,11,5,2,0,2021-08-07 12:44:45,524705
1,4,-5,1,0,-3,-1,1,2021-08-07 12:44:45,539704
-7,-9,-10,-12,-19,-14,-8,-4,2021-08-07 12:44:45,539704
-5,-6,-5,-10,-24,-14,-8,-3,2021-08-07 12:44:45,539704
-2,-1,1,3,-4,-5,-2,-3,2021-08-07 12:44:45,539704
6,7,11,9,15,13,6,6,2021-08-07 12:44:45,571705
4,4,4,21,29,17,8,4,2021-08-07 12:44:45,587704
-3,-8,-10,-1,1,-1,-2,-5,2021-08-07 12:44:45,587704
2,6,2,-11,-9,-3,0,3,2021-08-07 12:44:45,587704
-3,-5,-2,-5,-11,-8,-3,-4,2021-08-07 12:44:45,587704
-1,-1,-2,-5,-8,-3,-2,-1,2021-08-07 12:44:45,587704
-6,-8,-5,2,3,1,-1,-6,2021-08-07 12:44:45,587704
-2,-2,-4,-11,-9,-4,-3,-1,2021-08-07 12:44:45,588705
-2,1,4,-5,-8,-7,-4,-2,2021-08-07 12:44:45,603703
9,12,17,24,37,25,13,9,2021-08-07 12:44:45,603703
-4,-2,-2,-3,-6,-5,-3,-4,2021-08-07 12:44:45,619704
-1,-3,-11,-1,1,-2,-2,-1,2021-08-07 12:44:45,635703
-2,-4,-6,-6,-12,-8,-4,-4,2021-08-07 12:44:45,651705
-1,1,0,-11,-17,-15,-8,-2,2021-08-07 12:44:45,651705
3,2,2,8,17,16,10,4,2021-08-07 12:44:45,651705
-2,-3,-4,-5,3,2,-2,-3,2021-08-07 12:44:45,651705
0,1,1,3,6,1,1,1,2021-08-07 12:44:45,651705
-3,-5,-7,-12,-21,-13,-8,-6,2021-08-07 12:44:45,651705
-2,-2,-2,-7,-18,-13,-7,-2,2021-08-07 12:44:45,651705
0,0,-1,0,1,0,1,0,2021-08-07 12:44:45,651705
2,2,2,4,18,14,5,3,2021-08-07 12:44:45,651705
0,-1,-3,-8,-9,-5,-3,-1,2021-08-07 12:44:45,652704
0,1,1,5,1,-3,-1,-1,2021-08-07 12:44:45,667704
-3,-3,0,10,14,9,3,-1,2021-08-07 12:44:45,680704
-1,-3,-4,-2,-7,-4,-1,-2,2021-08-07 12:44:45,680704
4,4,6,0,12,7,5,2,2021-08-07 12:44:45,680704
0,1,2,-2,-5,-3,-1,-1,2021-08-07 12:44:45,681704
-6,-6,-4,-2,-22,-20,-11,-7,2021-08-07 12:44:45,681704
2,0,-2,2,5,6,3,2,2021-08-07 12:44:45,715706
4,5,0,1,18,12,6,3,2021-08-07 12:44:45,715706
-1,-2,-7,-18,-12,-5,-4,-1,2021-08-07 12:44:45,715706
-5,-8,-5,-12,0,0,-3,-4,2021-08-07 12:44:45,715706
-6,-3,4,2,-11,-12,-8,-5,2021-08-07 12:44:45,715706
0,-1,-5,-2,-13,-8,-3,0,2021-08-07 12:44:45,715706
1,3,2,9,11,7,4,1,2021-08-07 12:44:45,731704
1,1,0,8,24,12,2,1,2021-08-07 12:44:45,747702
5,7,9,12,12,8,6,3,2021-08-07 12:44:45,763705
-1,-4,-1,-6,-10,-9,-4,-2,2021-08-07 12:44:45,763705
-1,-1,-1,-1,-6,-3,-4,-1,2021-08-07 12:44:45,763705
-3,-3,-3,-7,-10,-3,-1,-3,2021-08-07 12:44:45,763705
-5,-5,-4,-15,-21,-15,-7,-6,2021-08-07 12:44:45,778704
0,1,3,11,32,21,9,3,2021-08-07 12:44:45,778704
5,6,5,1,3,2,2,3,2021-08-07 12:44:45,778704
3,4,5,14,15,9,6,3,2021-08-07 12:44:45,778704
0,0,1,2,5,-3,-2,-2,2021-08-07 12:44:45,778704
-5,-4,-5,-2,-24,-14,-5,-5,2021-08-07 12:44:45,778704
-3,-5,-7,-12,-16,-10,-5,-3,2021-08-07 12:44:45,778704
0,-1,0,-17,6,11,5,1,2021-08-07 12:44:45,779704
-1,0,-4,-1,1,1,-1,-2,2021-08-07 12:44:45,809702
-2,-3,-5,-5,-12,-10,-6,-4,2021-08-07 12:44:45,809702
1,4,6,24,29,12,7,2,2021-08-07 12:44:45,809702
0,0,1,-1,-15,-10,-5,0,2021-08-07 12:44:45,809702
-3,-5,-4,-3,-1,1,-2,-2,2021-08-07 12:44:45,825702
3,7,9,15,16,12,6,3,2021-08-07 12:44:45,825702
-2,-2,-5,-18,-23,-11,-6,-3,2021-08-07 12:44:45,825702
0,-2,-3,-5,2,-1,-1,-1,2021-08-07 12:44:45,825702
-4,-4,-3,-6,-7,-4,-3,-3,2021-08-07 12:44:45,856704
-4,-5,-3,1,-2,-4,-2,-3,2021-08-07 12:44:45,872703
-1,-1,2,5,0,-2,0,0,2021-08-07 12:44:45,872703
2,4,1,5,-7,-2,0,0,2021-08-07 12:44:45,872703
9,11,11,18,40,26,12,8,2021-08-07 12:44:45,872703
-2,-6,-7,-17,-13,-6,-3,-1,2021-08-07 12:44:45,872703
-6,-6,-7,-9,-9,-4,-4,-5,2021-08-07 12:44:45,873704
-3,-6,-3,-1,-3,-5,-5,-4,2021-08-07 12:44:45,873704
-3,-4,-3,-4,-12,-11,-6,-3,2021-08-07 12:44:45,888707
-3,-6,-5,-2,-9,-2,-2,-2,2021-08-07 12:44:45,904704
0,1,5,2,2,-1,-1,0,2021-08-07 12:44:45,920704
4,8,7,13,6,8,6,6,2021-08-07 12:44:45,920704
0,-2,-3,-15,-2,0,0,1,2021-08-07 12:44:45,920704
-1,-1,-5,-11,-4,-4,-4,-3,2021-08-07 12:44:45,920704
-6,-8,-7,-9,-17,-13,-8,-7,2021-08-07 12:44:45,920704
0,0,4,4,1,2,0,-1,2021-08-07 12:44:45,920704
-6,-9,-13,-4,-17,-10,-6,-6,2021-08-07 12:44:45,920704
8,11,13,12,11,8,6,8,2021-08-07 12:44:45,921704
6,8,6,22,35,19,9,5,2021-08-07 12:44:45,921704
-1,-2,-7,-17,-15,-6,-3,-3,2021-08-07 12:44:45,921704
-2,-2,2,-7,-12,-6,-4,-3,2021-08-07 12:44:45,951704
-5,-6,-6,-17,-27,-17,-8,-5,2021-08-07 12:44:45,967704
0,-1,-4,-1,3,3,2,0,2021-08-07 12:44:45,983704
-2,0,4,7,-3,-9,-4,-1,2021-08-07 12:44:45,983704
-1,-1,-2,7,10,9,3,1,2021-08-07 12:44:45,983704
4,7,7,18,27,15,8,3,2021-08-07 12:44:45,983704
-3,-5,-4,-19,-12,-5,-2,-1,2021-08-07 12:44:45,983704
-2,-6,-6,-14,-7,-1,-1,-2,2021-08-07 12:44:45,983704
0,-1,0,-4,-11,-9,-5,-3,2021-08-07 12:44:45,983704
-2,-3,-2,1,-2,-2,-3,0,2021-08-07 12:44:45,984705
-3,-3,0,-1,-7,-5,-5,-4,2021-08-07 12:44:45,984705
3,5,1,12,14,9,5,4,2021-08-07 12:44:45,984705
1,4,8,2,3,2,2,1,2021-08-07 12:44:46,015704
-1,2,-1,3,8,3,1,1,2021-08-07 12:44:46,030704
-4,-7,-6,-10,-15,-9,-6,-3,2021-08-07 12:44:46,046704
-2,-1,-3,1,-2,-2,-2,1,2021-08-07 12:44:46,046704
1,2,2,2,1,0,0,3,2021-08-07 12:44:46,046704
0,-1,1,0,4,4,1,-1,2021-08-07 12:44:46,046704
-4,-5,-3,8,15,5,2,-1,2021-08-07 12:44:46,061703
0,1,-1,2,-9,-7,-4,-1,2021-08-07 12:44:46,077704
-1,-4,-4,-11,-4,-2,-2,-2,2021-08-07 12:44:46,092704
-3,-5,-8,-14,-8,-2,-3,-3,2021-08-07 12:44:46,092704
-1,0,1,3,-3,-3,-3,-3,2021-08-07 12:44:46,092704
3,4,8,20,21,11,4,3,2021-08-07 12:44:46,092704
-1,1,-1,2,3,2,1,-2,2021-08-07 12:44:46,092704
-3,-6,-5,-11,-16,-9,-4,-4,2021-08-07 12:44:46,092704
2,4,12,-5,-5,-3,0,1,2021-08-07 12:44:46,093703
1,-1,-9,3,10,4,2,-1,2021-08-07 12:44:46,093703
-1,1,-1,2,3,2,0,2,2021-08-07 12:44:46,093703
-1,0,0,3,7,1,0,0,2021-08-07 12:44:46,093703
4,4,5,8,4,2,2,2,2021-08-07 12:44:46,093703
-5,-4,1,-9,-17,-10,-6,-5,2021-08-07 12:44:46,093703
0,0,-2,6,8,5,1,1,2021-08-07 12:44:46,107704
-2,-1,-3,-8,-10,-8,-2,-2,2021-08-07 12:44:46,107704
0,0,4,4,2,3,1,2,2021-08-07 12:44:46,107704
-5,-8,-10,-12,-7,-6,-5,-5,2021-08-07 12:44:46,107704
-1,-3,-1,1,-3,-2,-3,-3,2021-08-07 12:44:46,124704
-1,1,2,0,-3,-5,-3,2,2021-08-07 12:44:46,140705
-1,-2,-6,-6,-14,-8,-6,-3,2021-08-07 12:44:46,140705
1,0,4,11,20,18,9,3,2021-08-07 12:44:46,140705
0,1,-1,-8,11,7,1,1,2021-08-07 12:44:46,140705
1,-3,2,2,-1,-1,-2,-1,2021-08-07 12:44:46,140705
-5,-7,-9,-16,-15,-6,-5,-5,2021-08-07 12:44:46,140705
4,4,7,7,1,-4,0,1,2021-08-07 12:44:46,141704
-2,0,3,6,-10,-8,-4,-1,2021-08-07 12:44:46,156704
2,3,5,14,11,9,5,2,2021-08-07 12:44:46,156704
-1,0,-2,-2,3,2,2,0,2021-08-07 12:44:46,156704
-1,-3,-5,-16,-19,-7,-3,0,2021-08-07 12:44:46,156704
-3,-4,3,-13,-11,-6,-4,-3,2021-08-07 12:44:46,188704
-3,-4,-10,4,13,7,2,-2,2021-08-07 12:44:46,188704
4,6,5,15,19,12,4,5,2021-08-07 12:44:46,188704
-2,-2,3,2,-1,-5,-4,-1,2021-08-07 12:44:46,188704
2,0,0,4,-6,-4,0,2,2021-08-07 12:44:46,204705
2,3,6,-6,-1,5,4,1,2021-08-07 12:44:46,204705
2,0,2,3,10,7,2,1,2021-08-07 12:44:46,204705
-2,-4,-5,-7,-7,-7,-4,-4,2021-08-07 12:44:46,204705
-1,-2,-3,8,-1,-1,-1,-2,2021-08-07 12:44:46,220705
1,2,6,7,1,-2,1,-1,2021-08-07 12:44:46,220705
-3,-2,-7,-18,-16,-10,-3,-1,2021-08-07 12:44:46,220705
-6,-9,-10,-20,-22,-11,-8,-6,2021-08-07 12:44:46,220705
0,1,-2,-5,10,7,4,-1,2021-08-07 12:44:46,250705
-2,-2,-2,2,-7,-5,-4,-3,2021-08-07 12:44:46,266749
0,1,4,8,5,2,-1,0,2021-08-07 12:44:46,282749
0,2,6,22,14,3,1,0,2021-08-07 12:44:46,282749
0,0,-4,6,-7,-6,-1,0,2021-08-07 12:44:46,282749
-5,-8,-10,-32,-25,-12,-7,-5,2021-08-07 12:44:46,282749
7,8,10,1,20,17,11,6,2021-08-07 12:44:46,282749
-1,-1,-3,-1,9,3,-1,2,2021-08-07 12:44:46,282749
0,1,0,3,5,4,1,0,2021-08-07 12:44:46,282749
3,4,6,22,16,5,1,2,2021-08-07 12:44:46,283751
-4,-5,-7,0,-9,-10,-6,-5,2021-08-07 12:44:46,283751
-1,-2,-2,-12,-8,-5,-5,-1,2021-08-07 12:44:46,283751
-5,-6,-5,-13,-17,-13,-8,-4,2021-08-07 12:44:46,314750
5,5,6,-1,9,10,5,5,2021-08-07 12:44:46,314750
0,0,-2,12,27,16,9,1,2021-08-07 12:44:46,330749
3,5,3,4,8,8,6,3,2021-08-07 12:44:46,330749
-5,-8,-9,-14,-18,-16,-10,-7,2021-08-07 12:44:46,330749
-3,-3,-2,-14,-28,-14,-9,-4,2021-08-07 12:44:46,345749
2,2,6,11,20,14,5,3,2021-08-07 12:44:46,345749
1,1,4,-1,-1,2,1,-1,2021-08-07 12:44:46,345749
1,1,-9,-2,-2,1,0,1,2021-08-07 12:44:46,345749
1,0,-2,7,12,5,3,2,2021-08-07 12:44:46,346749
-3,-1,-3,-7,-20,-13,-7,-3,2021-08-07 12:44:46,346749
-8,-8,-6,-5,-15,-10,-8,-6,2021-08-07 12:44:46,346749
3,8,9,8,12,10,6,5,2021-08-07 12:44:46,361749
2,1,-1,-8,-7,-2,-2,0,2021-08-07 12:44:46,376750
-1,-1,-2,1,-2,-3,-1,-2,2021-08-07 12:44:46,391751
-3,-1,-6,-7,7,2,-1,-1,2021-08-07 12:44:46,407749
0,2,2,-2,-2,3,1,-1,2021-08-07 12:44:46,407749
-4,-1,0,5,3,-1,-2,-3,2021-08-07 12:44:46,407749
1,0,1,1,-9,-7,-3,-1,2021-08-07 12:44:46,407749
0,1,1,2,1,0,-2,-1,2021-08-07 12:44:46,407749
-1,-1,-2,-7,5,4,2,-1,2021-08-07 12:44:46,408751
-3,-5,-5,-7,-8,-4,-1,-4,2021-08-07 12:44:46,408751
-1,0,-1,1,-2,-3,-3,0,2021-08-07 12:44:46,408751
-1,-2,-1,7,0,-3,-2,-1,2021-08-07 12:44:46,408751
1,1,2,-2,3,3,1,1,2021-08-07 12:44:46,423748
-1,1,2,-3,2,-1,-1,-1,2021-08-07 12:44:46,439750
-3,-5,-5,-5,2,0,-1,-2,2021-08-07 12:44:46,455749
-1,1,0,-1,-9,-6,-2,-1,2021-08-07 12:44:46,470751
0,-2,0,0,-9,-6,-2,-3,2021-08-07 12:44:46,486749
3,4,5,13,17,9,3,3,2021-08-07 12:44:46,502749
-2,-5,-6,-12,-18,-11,-6,-3,2021-08-07 12:44:46,518748
2,5,6,7,22,16,9,6,2021-08-07 12:44:46,534983
2,5,5,22,34,15,7,4,2021-08-07 12:44:46,550266
-4,-5,-9,-10,-22,-14,-7,-4,2021-08-07 12:44:46,550266
2,0,-1,-10,-15,-8,-3,1,2021-08-07 12:44:46,550266
-4,-7,-7,-17,-24,-15,-9,-5,2021-08-07 12:44:46,550266
0,-2,-2,-9,-18,-9,-4,0,2021-08-07 12:44:46,550266
4,4,6,22,36,25,12,5,2021-08-07 12:44:46,551266
-5,-2,-1,0,4,0,-2,-4,2021-08-07 12:44:46,551266
-4,0,2,-1,-8,-3,-2,-5,2021-08-07 12:44:46,566265
-1,-2,0,13,22,7,2,-1,2021-08-07 12:44:46,582264
1,1,-2,-13,-17,-10,-5,-2,2021-08-07 12:44:46,582264
1,3,2,-6,-4,2,0,1,2021-08-07 12:44:46,582264
-3,-4,-6,-5,-2,-3,-3,-2,2021-08-07 12:44:46,582264
-2,-1,-4,-14,-19,-9,-3,-2,2021-08-07 12:44:46,582264
-1,-3,1,1,-5,-3,-1,0,2021-08-07 12:44:46,582264
1,0,-4,0,1,2,0,0,2021-08-07 12:44:46,583266
1,1,1,9,17,6,2,0,2021-08-07 12:44:46,583266
-1,1,3,10,-7,-4,-1,0,2021-08-07 12:44:46,583266
6,8,9,23,41,24,11,7,2021-08-07 12:44:46,583266
-2,-3,-4,-6,-11,-7,-4,-4,2021-08-07 12:44:46,583266
0,0,0,-10,-7,-3,-1,0,2021-08-07 12:44:46,583266
-5,-7,-7,-15,-16,-11,-7,-6,2021-08-07 12:44:46,583266
-1,-2,-2,-2,-6,-3,-1,-1,2021-08-07 12:44:46,584265
-3,-2,-3,-3,-8,-4,-3,-4,2021-08-07 12:44:46,584265
3,0,-2,6,12,10,5,3,2021-08-07 12:44:46,584265
-1,0,0,4,8,2,0,-2,2021-08-07 12:44:46,584265
-1,1,-1,-6,-17,-8,-3,-1,2021-08-07 12:44:46,584265
5,6,8,24,30,14,8,5,2021-08-07 12:44:46,584265
-3,-5,-8,-21,-29,-14,-7,-4,2021-08-07 12:44:46,585266
-2,-4,-2,-10,0,0,-2,-3,2021-08-07 12:44:46,598266
-7,-7,-9,-9,-15,-10,-7,-5,2021-08-07 12:44:46,598266
-3,-3,-4,-1,-11,-8,-5,-1,2021-08-07 12:44:46,598266
2,2,6,14,9,6,2,2,2021-08-07 12:44:46,598266
3,7,9,20,16,11,7,4,2021-08-07 12:44:46,623263
0,0,-3,-7,5,1,3,1,2021-08-07 12:44:46,623263
-5,-7,-10,-15,-9,-6,-4,-4,2021-08-07 12:44:46,623263
-2,-4,-3,-15,-24,-12,-4,-3,2021-08-07 12:44:46,624266
