EMG 1,EMG 2,EMG 3,EMG 4,EMG 5,EMG 6,EMG 7,EMG 8,Timestamp,Milliseconds
1,2,4,-4,-5,-3,0,1,2021-08-07 12:46:30,122529
1,1,0,-4,-5,-4,0,-1,2021-08-07 12:46:30,138531
0,1,2,4,2,1,1,1,2021-08-07 12:46:30,154529
-2,-1,-1,5,12,9,1,0,2021-08-07 12:46:30,154529
-1,-2,-1,3,-1,-2,-1,-3,2021-08-07 12:46:30,154529
-6,-6,-6,-9,-10,-7,-6,-4,2021-08-07 12:46:30,154529
2,1,1,0,-3,-1,0,-1,2021-08-07 12:46:30,154529
-1,1,-1,0,0,-2,0,-2,2021-08-07 12:46:30,154529
-2,-1,-2,-3,-1,-2,-1,-1,2021-08-07 12:46:30,154529
0,0,1,5,7,4,2,0,2021-08-07 12:46:30,154529
-2,-2,-5,-8,-9,-5,-5,-2,2021-08-07 12:46:30,155531
1,0,1,-4,-7,-2,-2,-1,2021-08-07 12:46:30,155531
-1,0,-2,0,1,2,0,0,2021-08-07 12:46:30,155531
-2,-5,-4,-8,-15,-11,-7,-4,2021-08-07 12:46:30,155531
0,0,4,9,14,10,5,2,2021-08-07 12:46:30,155531
3,4,5,5,9,4,2,3,2021-08-07 12:46:30,155531
-2,-4,-6,-4,-3,-3,-1,-1,2021-08-07 12:46:30,155531
1,1,-1,2,3,3,1,2,2021-08-07 12:46:30,156531
-2,-3,-3,-8,-12,-8,-4,-2,2021-08-07 12:46:30,186530
-4,-6,-6,-8,-15,-12,-7,-5,2021-08-07 12:46:30,186530
5,5,5,9,13,12,7,5,2021-08-07 12:46:30,186530
-1,1,0,6,8,4,1,-1,2021-08-07 12:46:30,186530
-4,-6,-8,-4,-2,-2,-3,-3,2021-08-07 12:46:30,202529
-1,0,0,0,0,0,-1,0,2021-08-07 12:46:30,218530
-2,-1,-4,-9,-10,-7,-5,-3,2021-08-07 12:46:30,234531
2,2,3,4,3,1,1,2,2021-08-07 12:46:30,234531
2,3,2,4,3,3,3,2,2021-08-07 12:46:30,234531
-1,-4,-2,5,10,4,1,0,2021-08-07 12:46:30,234531
1,0,1,0,-3,-1,0,0,2021-08-07 12:46:30,266531
-2,-5,-3,-1,1,0,-2,-1,2021-08-07 12:46:30,266531
3,8,5,1,-4,1,2,0,2021-08-07 12:46:30,266531
-3,-6,-9,-11,-9,-6,-4,-4,2021-08-07 12:46:30,266531
5,5,8,12,19,10,7,3,2021-08-07 12:46:30,266531
0,-1,-1,-3,-4,0,1,0,2021-08-07 12:46:30,266531
-5,-7,-7,-4,-4,-5,-4,-5,2021-08-07 12:46:30,266531
-2,-3,-3,-4,-9,-6,-3,-1,2021-08-07 12:46:30,266531
-1,1,-1,-3,-7,-6,-2,-2,2021-08-07 12:46:30,282531
2,3,3,6,9,6,2,0,2021-08-07 12:46:30,282531
-4,-6,-4,-4,-1,-3,-4,-4,2021-08-07 12:46:30,282531
-1,-3,-3,-2,-3,-3,-1,0,2021-08-07 12:46:30,282531
0,-2,0,3,3,1,-1,0,2021-08-07 12:46:30,298529
0,1,5,-1,2,-1,1,1,2021-08-07 12:46:30,298529
0,-1,-5,-4,-2,-3,-1,-2,2021-08-07 12:46:30,298529
2,1,-2,3,3,2,2,0,2021-08-07 12:46:30,298529
-2,-3,-3,-2,-2,-1,0,0,2021-08-07 12:46:30,315531
-4,-3,-4,-4,-6,-2,-2,-2,2021-08-07 12:46:30,315531
0,1,4,2,1,1,-1,1,2021-08-07 12:46:30,346531
0,1,3,1,3,0,-1,-1,2021-08-07 12:46:30,346531
1,-3,-5,-2,-4,-1,-1,-1,2021-08-07 12:46:30,346531
1,-3,-1,-1,-2,-1,-2,-2,2021-08-07 12:46:30,346531
1,1,0,1,1,1,1,0,2021-08-07 12:46:30,346531
2,2,0,1,2,2,-1,0,2021-08-07 12:46:30,346531
-1,-1,-2,-3,-2,-1,-1,0,2021-08-07 12:46:30,346531
-3,-3,-4,-3,-2,-3,-3,-2,2021-08-07 12:46:30,347533
-3,-2,-1,-2,-4,-1,-1,0,2021-08-07 12:46:30,378531
-5,-4,-5,-7,-7,-6,-2,-3,2021-08-07 12:46:30,394530
1,1,1,-2,6,6,3,2,2021-08-07 12:46:30,410532
6,10,9,8,5,3,3,4,2021-08-07 12:46:30,410532
-2,-2,-1,-1,-3,-5,-2,-1,2021-08-07 12:46:30,410532
-1,-2,0,0,4,3,1,-1,2021-08-07 12:46:30,410532
-2,-4,-5,-4,-7,-4,-5,-3,2021-08-07 12:46:30,410532
-2,1,-2,-2,-6,-4,-1,0,2021-08-07 12:46:30,410532
-1,-1,-2,-1,0,1,1,0,2021-08-07 12:46:30,410532
-5,-6,-3,-1,1,0,-2,-3,2021-08-07 12:46:30,411531
1,4,5,2,1,-1,1,0,2021-08-07 12:46:30,411531
3,3,3,6,10,8,4,1,2021-08-07 12:46:30,411531
-2,-3,-3,-2,-6,-6,-3,-2,2021-08-07 12:46:30,442531
-1,-1,-1,-3,-4,-3,-2,-1,2021-08-07 12:46:30,457532
-1,2,1,-1,-2,-2,0,1,2021-08-07 12:46:30,473531
-4,-3,-2,-7,-12,-9,-5,-4,2021-08-07 12:46:30,473531
0,-3,-1,-2,5,4,1,0,2021-08-07 12:46:30,473531
2,4,3,4,6,5,3,2,2021-08-07 12:46:30,473531
0,-1,-1,4,4,2,0,-1,2021-08-07 12:46:30,473531
-6,-8,-7,-11,-18,-16,-9,-7,2021-08-07 12:46:30,473531
4,6,6,5,3,6,6,6,2021-08-07 12:46:30,473531
4,5,6,9,22,16,7,2,2021-08-07 12:46:30,474530
0,3,1,3,7,1,1,0,2021-08-07 12:46:30,474530
-2,-5,-5,-4,1,0,0,-3,2021-08-07 12:46:30,474530
-4,-5,-7,-5,-6,-5,-6,-6,2021-08-07 12:46:30,505530
-2,-3,-5,-10,-16,-10,-3,-2,2021-08-07 12:46:30,521529
0,0,-2,-1,-1,-1,-1,0,2021-08-07 12:46:30,537530
1,1,0,0,1,2,-1,1,2021-08-07 12:46:30,537530
-3,-2,-3,-4,-4,-4,-3,-2,2021-08-07 12:46:30,537530
1,4,4,2,-3,-4,-1,0,2021-08-07 12:46:30,537530
-4,-6,-5,-13,-20,-11,-5,-4,2021-08-07 12:46:30,537530
0,0,0,13,27,18,8,1,2021-08-07 12:46:30,537530
1,2,3,1,4,3,1,0,2021-08-07 12:46:30,537530
-1,0,0,2,1,0,0,-1,2021-08-07 12:46:30,537530
-2,-1,-1,-2,0,-2,-3,-3,2021-08-07 12:46:30,537530
-1,-2,-4,-7,-13,-9,-5,-2,2021-08-07 12:46:30,538532
0,1,1,1,4,2,2,1,2021-08-07 12:46:30,567530
0,-1,1,5,3,2,-1,-1,2021-08-07 12:46:30,567530
0,-1,-1,-6,-9,-5,-3,-3,2021-08-07 12:46:30,567530
1,1,3,2,5,3,1,0,2021-08-07 12:46:30,567530
-2,0,-2,2,-1,-2,-2,0,2021-08-07 12:46:30,567530
1,0,0,1,2,3,2,1,2021-08-07 12:46:30,567530
-2,-1,2,0,-5,-2,0,0,2021-08-07 12:46:30,582531
0,1,-2,-1,1,2,3,2,2021-08-07 12:46:30,582531
-1,-1,2,-1,1,-1,-3,-2,2021-08-07 12:46:30,598531
-1,-1,-1,-2,-5,-6,-3,-1,2021-08-07 12:46:30,598531
-1,2,-1,0,-4,0,0,1,2021-08-07 12:46:30,598531
-2,-3,-3,-1,2,0,0,-1,2021-08-07 12:46:30,598531
2,1,1,4,4,2,1,1,2021-08-07 12:46:30,614531
0,-3,-3,-8,-5,-4,-1,0,2021-08-07 12:46:30,614531
-4,-1,-4,1,-1,-2,-3,-2,2021-08-07 12:46:30,614531
-2,-3,-5,-6,-6,-4,-2,0,2021-08-07 12:46:30,614531
1,4,4,9,9,8,5,0,2021-08-07 12:46:30,630532
0,-1,3,1,1,0,1,0,2021-08-07 12:46:30,630532
-2,-2,-2,-2,-1,-1,0,-1,2021-08-07 12:46:30,630532
-1,0,-1,-2,-5,-3,-1,0,2021-08-07 12:46:30,630532
-4,-7,-7,-6,-4,-3,-5,-4,2021-08-07 12:46:30,661529
0,2,5,1,1,1,0,1,2021-08-07 12:46:30,661529
3,4,5,4,5,4,2,2,2021-08-07 12:46:30,661529
1,-2,-1,1,0,-4,-1,-2,2021-08-07 12:46:30,661529
-1,-1,-1,-5,-6,-1,-1,-1,2021-08-07 12:46:30,677531
-5,-4,-6,-3,-9,-4,-5,-2,2021-08-07 12:46:30,693531
4,5,3,5,12,10,5,3,2021-08-07 12:46:30,693531
-3,-3,-3,-7,-9,-7,-5,-4,2021-08-07 12:46:30,693531
-2,-3,-1,-2,-2,1,-1,-1,2021-08-07 12:46:30,693531
0,0,-2,-1,1,1,-1,-2,2021-08-07 12:46:30,693531
0,-1,-2,-4,-6,-3,-3,-2,2021-08-07 12:46:30,708532
-1,-1,2,4,-3,-1,-1,0,2021-08-07 12:46:30,708532
-2,-2,-4,-12,-21,-12,-6,-3,2021-08-07 12:46:30,708532
2,3,3,8,19,12,5,3,2021-08-07 12:46:30,708532
-1,-4,-2,4,8,3,2,-1,2021-08-07 12:46:30,708532
3,5,4,3,3,0,-1,2,2021-08-07 12:46:30,709533
-5,-7,-9,-4,-3,-6,-5,-5,2021-08-07 12:46:30,740530
3,5,5,-1,-8,-3,0,2,2021-08-07 12:46:30,740530
0,0,-1,-3,-4,-4,-3,-2,2021-08-07 12:46:30,740530
-1,-2,-3,-3,-6,-6,-5,-3,2021-08-07 12:46:30,740530
1,0,1,1,1,1,1,0,2021-08-07 12:46:30,740530
3,4,2,4,3,3,0,1,2021-08-07 12:46:30,741533
-4,-6,-3,4,15,7,0,-2,2021-08-07 12:46:30,771530
2,4,3,1,-2,0,-1,1,2021-08-07 12:46:30,787532
1,0,0,1,0,-1,-1,-2,2021-08-07 12:46:30,803530
1,0,2,10,15,8,4,1,2021-08-07 12:46:30,819531
-4,-7,-7,-11,-15,-11,-7,-5,2021-08-07 12:46:30,835531
1,4,2,-3,-2,0,0,0,2021-08-07 12:46:30,835531
2,1,2,-2,-6,-4,-2,0,2021-08-07 12:46:30,835531
-1,0,-1,-1,-4,-2,2,1,2021-08-07 12:46:30,835531
-1,-2,-3,-3,-3,-1,0,0,2021-08-07 12:46:30,835531
-5,-10,-11,-5,-4,0,-3,-3,2021-08-07 12:46:30,835531
6,10,11,7,5,5,6,6,2021-08-07 12:46:30,836532
-8,-7,-5,-6,-7,-8,-4,-6,2021-08-07 12:46:30,836532
-4,-4,-1,-3,1,-1,-3,-4,2021-08-07 12:46:30,836532
1,2,6,6,5,5,2,1,2021-08-07 12:46:30,836532
2,3,1,3,7,3,2,2,2021-08-07 12:46:30,836532
0,-2,-2,-3,-9,-7,-5,-1,2021-08-07 12:46:30,836532
-1,0,-3,-8,-11,-6,-3,0,2021-08-07 12:46:30,836532
-2,-3,-2,-2,4,1,0,-1,2021-08-07 12:46:30,836532
-1,-3,-1,4,8,3,2,0,2021-08-07 12:46:30,867531
-1,-2,-5,-8,-5,-3,-2,0,2021-08-07 12:46:30,867531
0,-3,-4,-4,-10,-5,-3,-2,2021-08-07 12:46:30,867531
1,1,2,1,0,-1,-1,-1,2021-08-07 12:46:30,867531
-1,-4,-3,-1,2,0,0,-1,2021-08-07 12:46:30,883531
-1,-1,0,-6,-10,-6,-2,0,2021-08-07 12:46:30,883531
-1,3,5,10,17,9,5,2,2021-08-07 12:46:30,883531
-1,1,1,-1,3,0,2,0,2021-08-07 12:46:30,883531
-2,-2,-4,-2,-3,-3,-3,-2,2021-08-07 12:46:30,898530
0,-2,-1,-2,-4,-1,-2,-3,2021-08-07 12:46:30,913531
-5,-7,-5,-7,-9,-6,-3,-2,2021-08-07 12:46:30,929534
4,7,8,3,1,3,3,3,2021-08-07 12:46:30,929534
-1,0,0,-3,-1,0,2,-1,2021-08-07 12:46:30,929534
0,-1,-1,1,3,1,-1,0,2021-08-07 12:46:30,929534
-3,-2,-1,-2,-2,-2,-2,-1,2021-08-07 12:46:30,929534
-1,-4,-6,-2,-2,0,0,-2,2021-08-07 12:46:30,929534
-1,-1,0,-3,-4,-3,-2,0,2021-08-07 12:46:30,929534
-2,1,1,0,-2,-1,-2,-1,2021-08-07 12:46:30,930533
1,-1,0,6,10,5,3,0,2021-08-07 12:46:30,930533
-1,-2,-1,4,9,6,3,1,2021-08-07 12:46:30,930533
2,3,0,-4,-6,-5,-1,2,2021-08-07 12:46:30,961529
-2,-5,-2,4,6,1,1,-1,2021-08-07 12:46:30,961529
3,3,6,7,11,8,4,2,2021-08-07 12:46:30,961529
-3,-2,-3,-4,-7,-6,-4,-3,2021-08-07 12:46:30,961529
-1,-1,-1,0,2,0,-2,-1,2021-08-07 12:46:30,977531
-3,-1,-5,-4,-5,-3,-1,0,2021-08-07 12:46:30,993533
0,-2,-3,-7,-13,-6,-3,-1,2021-08-07 12:46:30,993533
-2,-4,-3,-1,-2,-3,-2,-3,2021-08-07 12:46:30,993533
-4,-5,-3,0,1,-1,-1,-2,2021-08-07 12:46:30,993533
3,3,3,0,-2,-2,-1,-1,2021-08-07 12:46:30,993533
3,2,1,0,8,6,3,0,2021-08-07 12:46:30,993533
-4,-6,-7,-5,-7,-6,-3,-1,2021-08-07 12:46:30,993533
-2,-3,0,-3,-10,-7,-3,-3,2021-08-07 12:46:31,025532
1,0,2,7,12,8,5,0,2021-08-07 12:46:31,025532
3,7,7,12,15,9,5,4,2021-08-07 12:46:31,025532
-2,-4,-2,-4,-4,-2,-2,-3,2021-08-07 12:46:31,025532
-4,-5,-6,-9,-12,-7,-6,-4,2021-08-07 12:46:31,041531
-1,0,-1,-4,-5,-1,-1,0,2021-08-07 12:46:31,057531
1,4,4,3,5,3,1,1,2021-08-07 12:46:31,073529
-1,-2,-4,-3,2,-2,-2,-2,2021-08-07 12:46:31,073529
-1,-1,-2,1,-2,-2,-2,-1,2021-08-07 12:46:31,073529
-4,-4,-4,-10,-10,-6,-5,-5,2021-08-07 12:46:31,073529
-6,-6,-9,-15,-26,-17,-10,-5,2021-08-07 12:46:31,073529
4,6,8,16,29,19,8,3,2021-08-07 12:46:31,073529
3,6,4,7,10,6,3,1,2021-08-07 12:46:31,074531
-5,-6,-6,-10,-11,-8,-5,-5,2021-08-07 12:46:31,074531
1,1,2,4,9,5,4,0,2021-08-07 12:46:31,074531
0,-1,-2,-5,-11,-4,-3,-1,2021-08-07 12:46:31,074531
-1,0,-1,-1,1,1,0,1,2021-08-07 12:46:31,105530
0,1,1,2,2,1,1,0,2021-08-07 12:46:31,105530
-2,0,0,-5,-17,-9,-5,-2,2021-08-07 12:46:31,105530
-1,0,0,0,0,1,-1,0,2021-08-07 12:46:31,105530
2,3,3,4,9,7,4,1,2021-08-07 12:46:31,105530
-1,-2,-3,-9,-17,-12,-6,-2,2021-08-07 12:46:31,105530
3,3,5,15,25,17,8,3,2021-08-07 12:46:31,121531
-3,-3,-6,-3,-6,-5,-4,-3,2021-08-07 12:46:31,121531
0,-1,1,5,5,1,1,1,2021-08-07 12:46:31,137532
1,1,-1,0,0,0,0,-1,2021-08-07 12:46:31,137532
-4,-5,-5,-10,-16,-12,-6,-3,2021-08-07 12:46:31,137532
1,3,2,-3,-7,-4,-3,0,2021-08-07 12:46:31,137532
1,-1,-1,6,15,10,5,-1,2021-08-07 12:46:31,153529
2,3,4,7,11,7,3,2,2021-08-07 12:46:31,153529
-3,-4,-6,-7,-10,-6,-5,-3,2021-08-07 12:46:31,153529
-2,-1,-1,-3,-5,-4,-2,-1,2021-08-07 12:46:31,153529
-3,-2,-1,-2,-4,-3,-2,-2,2021-08-07 12:46:31,184531
0,1,0,1,3,3,0,-1,2021-08-07 12:46:31,184531
-3,-3,-4,-4,3,1,-1,-2,2021-08-07 12:46:31,184531
-2,-1,-1,-3,-7,-7,-2,-1,2021-08-07 12:46:31,184531
0,1,-2,-8,-13,-6,-3,-1,2021-08-07 12:46:31,184531
-3,-5,-4,2,1,1,-3,-2,2021-08-07 12:46:31,184531
2,2,3,3,3,4,4,2,2021-08-07 12:46:31,200531
-2,-1,2,2,2,-1,-3,-2,2021-08-07 12:46:31,200531
-5,-8,-7,-3,-2,-2,-2,-3,2021-08-07 12:46:31,215532
-2,1,1,-2,-7,-5,-2,-1,2021-08-07 12:46:31,215532
4,8,6,0,1,1,2,3,2021-08-07 12:46:31,215532
0,-2,0,0,1,1,0,-2,2021-08-07 12:46:31,215532
-2,0,-2,-4,-5,-2,-2,-2,2021-08-07 12:46:31,247531
-1,-4,-2,1,6,4,-1,-1,2021-08-07 12:46:31,263531
-6,-7,-9,-9,-13,-8,-4,-6,2021-08-07 12:46:31,263531
5,3,3,7,8,4,5,3,2021-08-07 12:46:31,263531
-1,-1,-2,-1,-4,-6,-3,-1,2021-08-07 12:46:31,263531
-3,-1,-2,-4,-6,-5,-1,-1,2021-08-07 12:46:31,263531
-1,0,3,6,16,11,2,0,2021-08-07 12:46:31,263531
-4,-7,-6,-8,-11,-6,-6,-4,2021-08-07 12:46:31,263531
2,3,4,1,-1,1,1,1,2021-08-07 12:46:31,279534
2,3,5,5,7,4,3,2,2021-08-07 12:46:31,295532
0,-1,-2,-5,-9,-6,-2,-1,2021-08-07 12:46:31,295532
-2,-2,-3,-4,1,0,-2,-2,2021-08-07 12:46:31,295532
0,-3,-3,-6,-5,-2,-2,-2,2021-08-07 12:46:31,295532
-3,-4,-2,-6,-8,-3,-3,-3,2021-08-07 12:46:31,295532
0,-1,-1,0,-2,-3,-3,-1,2021-08-07 12:46:31,295532
4,5,5,-2,-2,1,1,4,2021-08-07 12:46:31,296531
0,3,2,2,3,1,1,1,2021-08-07 12:46:31,327531
-1,-3,-3,-3,2,4,1,0,2021-08-07 12:46:31,327531
-5,-8,-8,-5,-5,-5,-4,-2,2021-08-07 12:46:31,327531
1,4,4,4,2,1,1,2,2021-08-07 12:46:31,327531
-1,-1,-1,-1,-1,-2,-2,-1,2021-08-07 12:46:31,327531
-4,-4,-6,-5,-5,-6,-4,-5,2021-08-07 12:46:31,327531
2,-2,1,1,-5,-4,0,-1,2021-08-07 12:46:31,343531
2,3,3,2,0,0,2,2,2021-08-07 12:46:31,343531
0,0,-1,1,7,7,3,1,2021-08-07 12:46:31,359530
3,4,3,8,17,12,6,3,2021-08-07 12:46:31,375530
-1,0,0,4,8,3,2,0,2021-08-07 12:46:31,375530
-7,-11,-8,-7,-11,-7,-6,-6,2021-08-07 12:46:31,375530
1,0,1,1,-2,-2,-2,0,2021-08-07 12:46:31,375530
1,2,-2,-8,-13,-6,-2,1,2021-08-07 12:46:31,375530
1,0,2,3,7,5,2,-1,2021-08-07 12:46:31,375530
1,0,0,3,9,5,5,1,2021-08-07 12:46:31,375530
-6,-8,-5,-6,-9,-6,-5,-5,2021-08-07 12:46:31,391531
3,9,8,6,3,2,2,5,2021-08-07 12:46:31,391531
0,2,2,-4,-5,-1,-1,3,2021-08-07 12:46:31,423529
-2,0,-1,-1,-2,-1,-1,-1,2021-08-07 12:46:31,423529
-1,-3,-3,-3,-6,-4,-2,-2,2021-08-07 12:46:31,423529
-1,-3,-1,0,2,2,-1,-1,2021-08-07 12:46:31,423529
-2,-2,-2,-1,-3,-5,-2,-3,2021-08-07 12:46:31,423529
2,3,3,2,10,9,4,3,2021-08-07 12:46:31,423529
-1,0,1,6,10,6,3,1,2021-08-07 12:46:31,439533
-1,0,0,-7,-10,-8,-4,0,2021-08-07 12:46:31,470532
-4,-4,-3,-2,-9,-5,-4,-3,2021-08-07 12:46:31,486530
0,1,1,-5,-8,-4,-2,-1,2021-08-07 12:46:31,486530
-4,-1,-3,-7,-13,-9,-3,-4,2021-08-07 12:46:31,486530
1,-1,2,10,21,12,5,1,2021-08-07 12:46:31,486530
-2,-3,-5,-6,-9,-6,-4,-3,2021-08-07 12:46:31,486530
0,-1,2,3,6,6,1,0,2021-08-07 12:46:31,486530
1,1,1,3,0,-1,-1,-1,2021-08-07 12:46:31,486530
-2,-5,-6,-7,-7,-8,-2,-1,2021-08-07 12:46:31,487532
0,1,3,1,4,2,1,0,2021-08-07 12:46:31,487532
-5,-7,-7,-6,-13,-10,-6,-4,2021-08-07 12:46:31,487532
1,1,1,-3,2,3,2,2,2021-08-07 12:46:31,502531
0,0,1,8,11,6,2,-2,2021-08-07 12:46:31,518529
1,0,2,0,-1,-3,0,1,2021-08-07 12:46:31,518529
-5,-5,-6,-4,-4,-3,-2,-4,2021-08-07 12:46:31,518529
0,-1,-1,-2,-2,-3,-2,-1,2021-08-07 12:46:31,518529
-1,0,0,-4,-9,-7,-2,-2,2021-08-07 12:46:31,518529
4,7,6,2,8,9,4,5,2021-08-07 12:46:31,534529
0,-1,-2,3,1,-2,-1,-1,2021-08-07 12:46:31,534529
-2,-2,-4,0,-2,-1,-2,-1,2021-08-07 12:46:31,534529
-3,-2,-3,-7,-6,0,-2,-3,2021-08-07 12:46:31,534529
-1,0,-2,3,2,-2,-2,-1,2021-08-07 12:46:31,534529
-1,-2,0,4,5,3,2,1,2021-08-07 12:46:31,534529
2,4,6,3,4,1,1,2,2021-08-07 12:46:31,566534
-3,-6,-6,-10,-19,-11,-6,-4,2021-08-07 12:46:31,566534
1,1,-2,-4,-3,0,0,-1,2021-08-07 12:46:31,566534
-1,-1,0,2,3,1,0,-3,2021-08-07 12:46:31,566534
-2,-3,-4,-5,-8,-7,-3,-2,2021-08-07 12:46:31,582531
2,4,4,10,13,9,4,2,2021-08-07 12:46:31,582531
-3,-3,-3,-1,1,2,-1,0,2021-08-07 12:46:31,582531
-3,-4,-4,-8,-9,-6,-5,-3,2021-08-07 12:46:31,582531
0,0,0,0,0,-1,-2,0,2021-08-07 12:46:31,598530
-1,-2,-1,-1,1,0,-1,-1,2021-08-07 12:46:31,606532
-2,-6,-5,-6,-7,-6,-4,-2,2021-08-07 12:46:31,606532
1,1,-2,-8,-3,2,0,1,2021-08-07 12:46:31,606532
-4,-7,-4,1,3,1,-2,-4,2021-08-07 12:46:31,645534
0,3,3,6,8,3,1,1,2021-08-07 12:46:31,661531
-4,-4,-1,-1,-2,-2,-2,-3,2021-08-07 12:46:31,661531
-3,-3,-3,-3,-6,-6,-5,-5,2021-08-07 12:46:31,661531
1,2,1,-2,4,4,0,0,2021-08-07 12:46:31,661531
4,7,5,3,0,1,1,1,2021-08-07 12:46:31,661531
-1,1,-2,-2,-4,-4,-1,-2,2021-08-07 12:46:31,661531
-1,-2,-3,-8,-9,-4,-2,-1,2021-08-07 12:46:31,661531
-2,-3,-4,5,14,6,3,0,2021-08-07 12:46:31,661531
2,1,3,4,4,3,1,1,2021-08-07 12:46:31,662531
0,0,-1,0,1,0,0,-1,2021-08-07 12:46:31,662531
0,0,-1,-4,-6,-3,-1,-1,2021-08-07 12:46:31,662531
1,0,1,-2,-5,-3,-2,1,2021-08-07 12:46:31,677531
-3,-3,-2,-4,-4,-5,-3,-2,2021-08-07 12:46:31,677531
-1,-1,0,-1,-3,0,0,-1,2021-08-07 12:46:31,677531
0,0,-1,5,8,5,2,2,2021-08-07 12:46:31,677531
-1,0,-1,-3,-7,-5,-3,-2,2021-08-07 12:46:31,708530
0,0,-2,-2,0,0,1,1,2021-08-07 12:46:31,724532
0,-2,0,-1,1,2,-1,-1,2021-08-07 12:46:31,724532
0,1,2,9,12,7,3,1,2021-08-07 12:46:31,724532
2,1,1,4,7,3,1,0,2021-08-07 12:46:31,724532
-1,-1,-3,-8,-20,-12,-4,-2,2021-08-07 12:46:31,724532
-2,-3,-4,-6,-11,-8,-4,-2,2021-08-07 12:46:31,725531
1,3,3,5,7,3,1,3,2021-08-07 12:46:31,725531
0,-1,0,-2,4,4,2,0,2021-08-07 12:46:31,740530
2,1,2,12,19,9,5,2,2021-08-07 12:46:31,740530
-1,-2,-6,-19,-39,-21,-12,-7,2021-08-07 12:46:31,740530
3,5,7,24,56,30,14,4,2021-08-07 12:46:31,740530
-5,-4,-7,-18,-40,-26,-12,-5,2021-08-07 12:46:31,772531
4,3,6,15,32,27,12,5,2021-08-07 12:46:31,772531
-3,-3,-5,-7,-12,-12,-5,-1,2021-08-07 12:46:31,772531
-1,-1,-2,-3,-6,-1,-1,0,2021-08-07 12:46:31,772531
1,2,3,6,11,4,3,2,2021-08-07 12:46:31,772531
-3,-3,-6,-10,-18,-15,-6,-4,2021-08-07 12:46:31,772531
-3,-2,-1,-4,-3,-4,-5,-4,2021-08-07 12:46:31,788531
-3,-4,-5,-9,-17,-10,-5,-1,2021-08-07 12:46:31,788531
1,4,5,5,7,6,4,3,2021-08-07 12:46:31,804531
-4,-3,-5,-12,-15,-10,-5,-3,2021-08-07 12:46:31,804531
2,-1,0,8,16,12,7,3,2021-08-07 12:46:31,820532
1,2,1,-6,-13,-8,-5,-1,2021-08-07 12:46:31,820532
0,1,1,4,14,12,4,1,2021-08-07 12:46:31,820532
-3,-2,-2,-4,-6,-4,-3,-3,2021-08-07 12:46:31,820532
-3,-2,-2,-2,2,2,1,-2,2021-08-07 12:46:31,820532
-2,-3,-1,9,17,5,1,-2,2021-08-07 12:46:31,820532
2,5,2,-1,-9,-3,0,3,2021-08-07 12:46:31,836531
-1,2,0,1,4,1,-1,1,2021-08-07 12:46:31,836531
-2,-1,-2,5,12,5,3,1,2021-08-07 12:46:31,836531
1,1,-2,-15,-27,-15,-6,0,2021-08-07 12:46:31,836531
-1,0,2,3,9,5,1,-2,2021-08-07 12:46:31,868532
-2,-3,-4,-5,-6,-4,-3,-2,2021-08-07 12:46:31,868532
-1,-2,-1,3,1,-1,0,-2,2021-08-07 12:46:31,868532
0,-1,2,1,-1,1,1,-1,2021-08-07 12:46:31,868532
1,3,2,4,3,3,2,2,2021-08-07 12:46:31,884530
0,1,2,2,5,2,2,0,2021-08-07 12:46:31,884530
-4,-6,-5,-9,-14,-11,-7,-3,2021-08-07 12:46:31,884530
0,-4,-5,0,5,8,4,1,2021-08-07 12:46:31,884530
4,5,7,6,4,1,3,3,2021-08-07 12:46:31,900529
-5,-4,-6,-4,-4,-3,-3,-3,2021-08-07 12:46:31,916529
3,3,6,7,13,8,4,2,2021-08-07 12:46:31,916529
-1,-1,-1,-5,-13,-11,-6,-3,2021-08-07 12:46:31,916529
-2,-1,-5,-8,-8,-5,-3,-3,2021-08-07 12:46:31,932532
-1,-2,0,4,2,-1,-3,-1,2021-08-07 12:46:31,932532
2,0,-1,-4,-7,-1,1,2,2021-08-07 12:46:31,932532
-1,-1,-2,0,10,5,2,0,2021-08-07 12:46:31,932532
-4,-8,-7,-7,-6,-7,-4,-4,2021-08-07 12:46:31,948531
2,5,7,10,16,7,4,2,2021-08-07 12:46:31,948531
1,3,1,7,9,2,1,0,2021-08-07 12:46:31,948531
1,2,-1,-6,-13,-9,-3,0,2021-08-07 12:46:31,948531
-3,-3,-5,-3,-2,2,1,-1,2021-08-07 12:46:31,963532
0,-1,-1,-3,-7,-4,-1,0,2021-08-07 12:46:31,979530
0,0,0,-7,-14,-6,-4,-1,2021-08-07 12:46:31,979530
-2,-3,-1,5,10,4,0,-3,2021-08-07 12:46:31,979530
-1,-1,0,3,2,2,-1,-2,2021-08-07 12:46:31,979530
-2,-3,-2,-7,-9,-3,-3,-2,2021-08-07 12:46:31,979530
0,-1,1,0,4,3,0,-2,2021-08-07 12:46:31,979530
0,1,1,-10,-16,-10,-6,-3,2021-08-07 12:46:31,980532
-1,-3,0,3,4,0,-1,-4,2021-08-07 12:46:32,010532
-5,-7,-7,-6,-11,-5,-2,-2,2021-08-07 12:46:32,026532
5,12,11,14,22,13,10,8,2021-08-07 12:46:32,035529
-6,-7,-7,-4,-10,-12,-6,-5,2021-08-07 12:46:32,036532
2,1,3,8,19,12,4,2,2021-08-07 12:46:32,036532
1,0,-4,-6,-9,-8,-3,-3,2021-08-07 12:46:32,036532
-4,-6,-8,-9,-6,1,0,-2,2021-08-07 12:46:32,042530
3,7,7,5,-1,3,3,3,2021-08-07 12:46:32,042530
-1,-3,-2,-1,-1,-1,-2,-1,2021-08-07 12:46:32,042530
-2,-5,-5,-4,-7,-7,-4,-2,2021-08-07 12:46:32,042530
-1,-3,-1,-6,-7,-2,-3,-2,2021-08-07 12:46:32,042530
0,-1,-1,7,18,9,3,-1,2021-08-07 12:46:32,042530
-2,0,0,-3,1,-1,-3,1,2021-08-07 12:46:32,074532
0,0,0,-4,-3,-1,-1,-1,2021-08-07 12:46:32,074532
-3,-2,-5,-5,-2,-3,-4,-3,2021-08-07 12:46:32,074532
0,2,2,5,0,0,1,1,2021-08-07 12:46:32,074532
-1,-2,-3,-1,3,3,0,-1,2021-08-07 12:46:32,074532
0,0,-1,0,7,3,0,1,2021-08-07 12:46:32,074532
-1,1,3,7,6,0,-2,-1,2021-08-07 12:46:32,090531
-2,-4,-6,-7,-13,-4,-3,-1,2021-08-07 12:46:32,090531
0,-2,-1,-6,-7,-3,-2,-1,2021-08-07 12:46:32,106531
0,1,1,6,5,1,-1,-3,2021-08-07 12:46:32,106531
1,-1,1,1,4,3,3,2,2021-08-07 12:46:32,106531
-2,-1,-4,-13,-26,-16,-7,-2,2021-08-07 12:46:32,106531
0,0,0,-1,-1,-2,-1,-1,2021-08-07 12:46:32,122531
2,1,2,2,7,5,1,1,2021-08-07 12:46:32,138533
-3,-2,-3,-6,-13,-8,-4,-3,2021-08-07 12:46:32,138533
-1,1,0,3,9,4,-1,-1,2021-08-07 12:46:32,138533
1,4,6,13,12,8,5,2,2021-08-07 12:46:32,138533
-1,-2,-2,-2,-4,0,0,0,2021-08-07 12:46:32,138533
1,1,1,4,6,0,1,1,2021-08-07 12:46:32,138533
-3,-4,-4,-5,-8,-5,-3,-3,2021-08-07 12:46:32,139533
1,-3,-4,-7,-7,-9,-4,-1,2021-08-07 12:46:32,170532
0,0,-1,7,7,3,2,0,2021-08-07 12:46:32,170532
0,0,-3,0,6,7,3,1,2021-08-07 12:46:32,186529
-1,0,3,-3,-1,-2,0,0,2021-08-07 12:46:32,186529
2,1,1,0,-5,-4,-1,-1,2021-08-07 12:46:32,186529
0,0,0,-1,-1,-1,-1,0,2021-08-07 12:46:32,186529
-1,-1,-1,0,-3,-2,-2,-1,2021-08-07 12:46:32,186529
-2,-4,-3,1,4,1,-1,-1,2021-08-07 12:46:32,186529
-2,-4,-3,-5,-11,-7,-4,-3,2021-08-07 12:46:32,202529
-1,-3,-3,-6,-3,2,2,2,2021-08-07 12:46:32,218531
2,5,5,5,2,1,1,0,2021-08-07 12:46:32,234531
0,0,1,6,10,7,1,0,2021-08-07 12:46:32,234531
-3,-3,-4,-8,-16,-10,-6,-3,2021-08-07 12:46:32,234531
-3,-4,-5,-12,-15,-8,-5,-3,2021-08-07 12:46:32,234531
0,0,2,16,31,15,5,1,2021-08-07 12:46:32,234531
-1,1,0,0,0,-2,1,0,2021-08-07 12:46:32,235532
3,2,1,1,2,2,2,1,2021-08-07 12:46:32,235532
-2,-3,-4,-9,-14,-9,-5,-3,2021-08-07 12:46:32,235532
1,-1,-3,1,-6,-4,-1,0,2021-08-07 12:46:32,250531
2,3,0,1,3,5,2,1,2021-08-07 12:46:32,266531
0,0,-2,1,1,0,0,-1,2021-08-07 12:46:32,281532
0,1,2,6,4,1,0,0,2021-08-07 12:46:32,297530
-3,-5,-5,-7,-9,-6,-4,-2,2021-08-07 12:46:32,297530
-4,-5,-5,-7,-12,-9,-6,-5,2021-08-07 12:46:32,297530
5,7,5,1,2,5,5,6,2021-08-07 12:46:32,297530
0,2,3,3,8,6,1,1,2021-08-07 12:46:32,297530
-3,-2,-3,-4,-4,-4,-2,-3,2021-08-07 12:46:32,313531
-2,-4,-2,-7,-12,-5,-4,-2,2021-08-07 12:46:32,329530
-4,-4,-4,-2,1,-1,-2,-1,2021-08-07 12:46:32,329530
2,3,5,8,8,5,2,1,2021-08-07 12:46:32,329530
1,2,-1,1,8,7,2,2,2021-08-07 12:46:32,329530
-1,-2,-1,-1,0,-3,-2,-2,2021-08-07 12:46:32,329530
-3,-3,-5,-9,-17,-10,-6,-4,2021-08-07 12:46:32,329530
2,2,2,2,8,7,4,3,2021-08-07 12:46:32,330531
-1,-2,-1,1,3,0,1,0,2021-08-07 12:46:32,330531
0,1,0,0,5,4,0,0,2021-08-07 12:46:32,330531
-4,-5,-7,-6,-13,-9,-5,-4,2021-08-07 12:46:32,345532
-1,2,2,0,-2,-1,-3,-1,2021-08-07 12:46:32,345532
0,-1,-3,-6,-7,-1,-1,-2,2021-08-07 12:46:32,345532
1,0,2,5,4,1,2,2,2021-08-07 12:46:32,345532
-2,-1,-1,-4,-6,-3,-1,-1,2021-08-07 12:46:32,361529
-1,0,-3,5,7,1,1,-1,2021-08-07 12:46:32,361529
-2,-2,-1,-1,-1,0,-2,-2,2021-08-07 12:46:32,361529
0,0,-3,-3,-7,-5,-2,-1,2021-08-07 12:46:32,361529
1,1,0,1,8,3,1,1,2021-08-07 12:46:32,377530
0,-1,-2,0,1,1,0,0,2021-08-07 12:46:32,377530
-2,-1,-4,-10,-12,-9,-3,-1,2021-08-07 12:46:32,377530
-1,-4,-4,-10,-12,-5,-1,-2,2021-08-07 12:46:32,377530
1,1,0,12,22,15,6,4,2021-08-07 12:46:32,408533
-2,-2,0,1,0,-2,-1,-1,2021-08-07 12:46:32,408533
-4,-3,-1,-4,-10,-9,-7,-4,2021-08-07 12:46:32,408533
-1,-1,1,-5,-3,0,-1,-1,2021-08-07 12:46:32,408533
-1,-2,-3,-5,-5,-3,-2,-4,2021-08-07 12:46:32,424531
1,2,4,5,8,2,1,0,2021-08-07 12:46:32,424531
2,0,-2,-3,-4,-3,-1,-1,2021-08-07 12:46:32,424531
-1,-1,-4,2,1,1,-1,0,2021-08-07 12:46:32,424531
-1,-1,-1,-5,-7,-5,-3,-2,2021-08-07 12:46:32,440531
-3,-5,-5,-13,-26,-17,-8,-3,2021-08-07 12:46:32,456530
0,-1,0,3,1,1,0,0,2021-08-07 12:46:32,464529
4,3,5,15,30,20,8,3,2021-08-07 12:46:32,465530
0,1,1,5,3,1,1,0,2021-08-07 12:46:32,465530
-3,-2,-4,-7,-11,-6,-3,-2,2021-08-07 12:46:32,465530
-1,-1,-4,-6,-7,-4,-3,-4,2021-08-07 12:46:32,472530
-1,1,-1,3,5,1,-2,0,2021-08-07 12:46:32,472530
-2,-3,-3,-3,-4,-1,-2,-2,2021-08-07 12:46:32,488531
1,0,1,3,7,4,4,2,2021-08-07 12:46:32,488531
-1,0,2,0,-5,-1,-1,2,2021-08-07 12:46:32,488531
-1,-1,1,1,3,2,-1,0,2021-08-07 12:46:32,488531
-3,-2,-2,-2,-5,-3,-3,-2,2021-08-07 12:46:32,488531
-5,-7,-7,-9,-10,-7,-5,-4,2021-08-07 12:46:32,489532
5,11,8,3,5,6,6,6,2021-08-07 12:46:32,504532
-1,-2,-1,0,1,-2,1,0,2021-08-07 12:46:32,504532
3,4,3,2,0,-2,1,3,2021-08-07 12:46:32,520532
-1,-1,-2,1,0,1,-1,-2,2021-08-07 12:46:32,520532
-4,-6,-6,-3,-4,-4,-4,-4,2021-08-07 12:46:32,520532
-2,-2,-2,-8,-11,-4,-2,-1,2021-08-07 12:46:32,520532
-4,-4,-3,0,1,0,-2,-1,2021-08-07 12:46:32,551535
5,4,4,11,16,8,5,2,2021-08-07 12:46:32,567531
-1,-4,-3,-1,0,-2,-1,1,2021-08-07 12:46:32,567531
1,0,-3,-6,-11,-6,-2,-3,2021-08-07 12:46:32,567531
-1,-1,-1,-2,-2,-1,-2,-1,2021-08-07 12:46:32,567531
-4,-5,-6,-12,-12,-6,-5,-2,2021-08-07 12:46:32,567531
0,0,1,5,2,2,0,0,2021-08-07 12:46:32,599530
0,0,-1,1,-2,-2,0,-1,2021-08-07 12:46:32,599530
3,2,2,4,8,3,1,0,2021-08-07 12:46:32,615534
2,2,0,0,1,0,0,-1,2021-08-07 12:46:32,631529
-4,-4,-5,-4,2,1,-1,-3,2021-08-07 12:46:32,631529
-1,2,1,1,-3,-3,-1,0,2021-08-07 12:46:32,631529
-1,-1,-2,-8,0,2,1,0,2021-08-07 12:46:32,631529
1,1,4,8,7,2,-1,-1,2021-08-07 12:46:32,631529
-3,-5,-4,-4,-6,-6,-4,-3,2021-08-07 12:46:32,631529
4,6,5,4,-1,1,-1,2,2021-08-07 12:46:32,631529
-4,-5,-4,-8,-15,-11,-5,-4,2021-08-07 12:46:32,632532
-2,-2,-3,-2,-1,0,-1,0,2021-08-07 12:46:32,632532
0,-2,1,2,5,2,1,0,2021-08-07 12:46:32,632532
-1,-2,-2,0,2,-1,-1,1,2021-08-07 12:46:32,632532
0,0,-1,4,10,4,1,1,2021-08-07 12:46:32,632532
-1,-2,-2,-3,-8,-4,0,0,2021-08-07 12:46:32,633532
-2,-3,-3,-1,-3,-1,-1,-3,2021-08-07 12:46:32,647530
2,2,1,9,31,14,7,3,2021-08-07 12:46:32,647530
-1,-2,0,3,0,-2,-1,0,2021-08-07 12:46:32,663531
-3,-2,0,-3,1,-1,0,-2,2021-08-07 12:46:32,679532
1,3,0,-10,-16,-11,-5,0,2021-08-07 12:46:32,679532
2,1,0,-4,-9,-5,-3,-1,2021-08-07 12:46:32,695531
1,1,3,4,11,7,2,1,2021-08-07 12:46:32,695531
-5,-5,-7,-2,-2,-4,-4,-4,2021-08-07 12:46:32,695531
1,4,1,-1,0,-2,0,0,2021-08-07 12:46:32,695531
0,0,-1,2,-5,-3,0,-2,2021-08-07 12:46:32,695531
2,3,2,1,0,1,1,2,2021-08-07 12:46:32,695531
-2,-3,-4,-8,-14,-6,-5,-3,2021-08-07 12:46:32,695531
-4,-4,-3,-1,-4,-5,-4,-2,2021-08-07 12:46:32,711532
1,-1,2,10,17,14,4,0,2021-08-07 12:46:32,727530
-2,-2,-3,-5,-3,-3,-1,-3,2021-08-07 12:46:32,743531
2,4,3,5,7,1,1,2,2021-08-07 12:46:32,743531
-3,-3,-2,1,1,-1,-1,-2,2021-08-07 12:46:32,743531
-1,-3,-2,-16,-24,-14,-6,-1,2021-08-07 12:46:32,743531
1,0,1,9,8,8,3,1,2021-08-07 12:46:32,743531
1,0,2,2,11,7,2,3,2021-08-07 12:46:32,744533
3,3,2,3,3,3,1,0,2021-08-07 12:46:32,759531
-3,-3,-2,-3,-11,-7,-4,-2,2021-08-07 12:46:32,759531
-2,-6,-4,-6,-12,-8,-4,-5,2021-08-07 12:46:32,759531
0,0,3,4,1,0,-1,-1,2021-08-07 12:46:32,759531
2,3,3,-6,-4,0,3,3,2021-08-07 12:46:32,759531
-2,-2,1,3,9,4,-1,-1,2021-08-07 12:46:32,759531
1,3,4,8,8,2,2,3,2021-08-07 12:46:32,791531
-3,-3,-4,-2,-6,-2,-4,-4,2021-08-07 12:46:32,791531
0,-1,0,6,13,5,1,1,2021-08-07 12:46:32,791531
-2,-4,-6,-10,-6,-6,-1,-2,2021-08-07 12:46:32,791531
-1,1,1,-7,-16,-11,-5,-3,2021-08-07 12:46:32,807531
-1,0,-2,-2,2,4,-2,-2,2021-08-07 12:46:32,807531
-1,0,2,5,6,5,1,0,2021-08-07 12:46:32,807531
-2,-1,-2,-4,-9,-5,-2,-2,2021-08-07 12:46:32,807531
-4,-1,-4,-1,0,-2,-1,-3,2021-08-07 12:46:32,823529
1,3,2,-3,-7,-4,-1,1,2021-08-07 12:46:32,823529
2,0,1,6,10,9,3,3,2021-08-07 12:46:32,823529
-3,-3,-3,-4,-9,-6,-5,-2,2021-08-07 12:46:32,823529
-3,-3,-4,-5,-10,-5,-2,-3,2021-08-07 12:46:32,854531
1,-1,1,9,14,7,4,0,2021-08-07 12:46:32,870530
-1,-2,-1,-1,2,-1,-2,-1,2021-08-07 12:46:32,870530
-4,-4,-5,-4,-12,-9,-4,-4,2021-08-07 12:46:32,870530
6,9,10,8,15,12,7,5,2021-08-07 12:46:32,870530
2,3,3,-1,-2,-3,0,0,2021-08-07 12:46:32,870530
-3,-3,-5,-2,-4,-3,-2,-2,2021-08-07 12:46:32,870530
-2,0,-2,-4,-9,-6,-3,-2,2021-08-07 12:46:32,870530
-6,-6,-7,-11,-13,-9,-7,-4,2021-08-07 12:46:32,886531
1,0,2,3,6,4,1,1,2021-08-07 12:46:32,898529
1,-1,0,1,-1,0,-1,0,2021-08-07 12:46:32,898529
0,1,1,-2,-2,0,1,1,2021-08-07 12:46:32,898529
-1,-2,-2,3,9,7,3,2,2021-08-07 12:46:32,898529
-1,-1,0,-2,-6,-5,-3,-1,2021-08-07 12:46:32,899530
-3,-3,-4,-2,-5,-2,-2,-3,2021-08-07 12:46:32,918532
1,1,2,4,7,6,2,1,2021-08-07 12:46:32,918532
0,0,0,2,3,1,0,-1,2021-08-07 12:46:32,918532
-4,-5,-5,-11,-21,-12,-6,-3,2021-08-07 12:46:32,918532
0,2,2,7,11,9,4,1,2021-08-07 12:46:32,918532
2,1,2,3,8,6,3,3,2021-08-07 12:46:32,918532
0,1,0,3,7,2,1,1,2021-08-07 12:46:32,949531
-3,-1,-3,-3,-7,-7,-3,-3,2021-08-07 12:46:32,965532
-1,-3,-4,-2,2,4,0,-3,2021-08-07 12:46:32,981529
0,1,-1,-1,0,-2,1,1,2021-08-07 12:46:32,981529
-1,0,-1,0,-2,-1,-2,-2,2021-08-07 12:46:32,981529
-2,-2,-3,-5,-2,-2,-2,-1,2021-08-07 12:46:32,981529
-1,0,1,-6,-11,-6,-2,1,2021-08-07 12:46:32,981529
-1,-1,0,6,12,4,2,-1,2021-08-07 12:46:32,981529
-1,-2,0,-1,-4,-3,-2,-1,2021-08-07 12:46:32,981529
-1,-3,-4,-3,-4,-2,-1,0,2021-08-07 12:46:32,981529
-1,0,-1,-5,-8,-6,-3,-1,2021-08-07 12:46:32,981529
1,0,1,2,0,1,1,0,2021-08-07 12:46:32,982532
-6,-7,-9,-17,-26,-18,-10,-6,2021-08-07 12:46:32,997531
11,16,18,34,54,36,19,10,2021-08-07 12:46:32,997531
-2,-2,-2,0,1,1,0,-1,2021-08-07 12:46:33,013531
-2,-1,-2,-2,0,0,-2,0,2021-08-07 12:46:33,029530
-3,-3,-3,-7,-9,-6,-3,0,2021-08-07 12:46:33,029530
-5,-5,-5,-8,-16,-9,-6,-3,2021-08-07 12:46:33,029530
-1,-2,-1,-1,0,0,-1,-1,2021-08-07 12:46:33,029530
-1,-2,-2,0,1,-2,-1,-1,2021-08-07 12:46:33,029530
0,2,1,2,0,1,-1,0,2021-08-07 12:46:33,045531
-2,-2,-3,-9,-15,-10,-5,-2,2021-08-07 12:46:33,045531
-1,0,1,-1,2,3,0,0,2021-08-07 12:46:33,045531
-1,-2,0,-1,-3,-3,-3,-2,2021-08-07 12:46:33,045531
-1,-1,-2,0,4,3,2,0,2021-08-07 12:46:33,061533
-1,-2,-2,6,15,8,3,0,2021-08-07 12:46:33,077530
0,-1,-3,-7,-14,-10,-3,-3,2021-08-07 12:46:33,093531
1,-2,-2,2,2,3,0,0,2021-08-07 12:46:33,093531
-1,-2,1,2,-1,-2,-3,-3,2021-08-07 12:46:33,093531
1,1,0,-3,-4,-4,0,-2,2021-08-07 12:46:33,093531
-3,-3,-4,0,1,-1,-3,-2,2021-08-07 12:46:33,093531
3,5,4,5,8,5,5,3,2021-08-07 12:46:33,094532
1,2,1,0,-3,-1,-1,1,2021-08-07 12:46:33,109530
-4,-4,-3,-5,-7,-5,-4,-3,2021-08-07 12:46:33,125532
-1,0,1,2,1,1,0,-2,2021-08-07 12:46:33,141529
-3,-6,-7,-7,-13,-8,-5,-4,2021-08-07 12:46:33,141529
4,5,4,6,10,6,5,3,2021-08-07 12:46:33,141529
-2,-3,-3,-8,-12,-6,-3,0,2021-08-07 12:46:33,141529
0,0,1,2,2,-1,-2,-1,2021-08-07 12:46:33,141529
-2,0,-1,2,4,0,1,-2,2021-08-07 12:46:33,141529
1,1,1,2,6,6,2,1,2021-08-07 12:46:33,142533
-3,-1,-3,-6,-7,-6,-4,-2,2021-08-07 12:46:33,142533
1,-1,0,2,-5,-3,0,-1,2021-08-07 12:46:33,142533
-4,-2,-5,-14,-14,-6,-5,-3,2021-08-07 12:46:33,142533
1,3,2,8,16,5,2,0,2021-08-07 12:46:33,173529
0,1,-2,2,2,1,-1,-1,2021-08-07 12:46:33,189531
-1,-2,-2,-8,-15,-10,-4,-3,2021-08-07 12:46:33,205531
-2,-2,-1,4,11,9,2,-2,2021-08-07 12:46:33,205531
1,1,2,1,0,4,3,3,2021-08-07 12:46:33,205531
-2,-2,-1,-5,-5,-4,-4,-3,2021-08-07 12:46:33,205531
0,2,0,-2,3,1,0,0,2021-08-07 12:46:33,205531
1,2,2,4,-3,-2,1,1,2021-08-07 12:46:33,205531
-3,-4,-3,-5,-5,-4,-3,-4,2021-08-07 12:46:33,221531
2,2,2,3,2,1,1,1,2021-08-07 12:46:33,221531
1,1,0,0,1,-1,1,1,2021-08-07 12:46:33,236531
0,0,0,-3,-5,-2,-3,-2,2021-08-07 12:46:33,236531
0,-2,0,3,8,4,1,1,2021-08-07 12:46:33,236531
0,2,0,-1,-3,-4,-2,-2,2021-08-07 12:46:33,236531
-2,1,-1,-5,-7,-3,-3,-1,2021-08-07 12:46:33,236531
1,0,-1,4,13,9,4,2,2021-08-07 12:46:33,236531
-7,-8,-8,-10,-18,-13,-7,-4,2021-08-07 12:46:33,236531
3,5,7,10,20,15,7,4,2021-08-07 12:46:33,236531
-1,0,-1,1,7,4,3,1,2021-08-07 12:46:33,252531
-1,0,1,1,-3,-7,-5,-2,2021-08-07 12:46:33,252531
-4,-5,-4,-7,-11,-6,-4,-2,2021-08-07 12:46:33,267531
4,6,3,-3,-6,-1,1,2,2021-08-07 12:46:33,267531
0,-2,-3,-4,-2,-1,0,0,2021-08-07 12:46:33,267531
0,-1,-3,-3,-7,-3,-1,-1,2021-08-07 12:46:33,267531
-2,-1,-1,-3,-1,-2,0,-1,2021-08-07 12:46:33,283531
-4,-5,-3,-3,-6,-3,-4,-4,2021-08-07 12:46:33,283531
-2,-1,2,7,6,2,1,0,2021-08-07 12:46:33,283531
-3,-4,0,3,6,3,-1,-3,2021-08-07 12:46:33,283531
8,13,11,13,22,14,5,5,2021-08-07 12:46:33,299531
-2,-2,-2,-3,-7,-9,-6,-4,2021-08-07 12:46:33,299531
-2,0,-1,-5,-6,-5,-4,-1,2021-08-07 12:46:33,315531
-1,-3,-4,-10,-19,-12,-6,-2,2021-08-07 12:46:33,315531
-4,-6,-6,-9,-12,-7,-2,-3,2021-08-07 12:46:33,315531
-1,-3,-4,-7,-7,-3,0,1,2021-08-07 12:46:33,315531
5,8,9,12,16,11,7,3,2021-08-07 12:46:33,322530
3,0,-1,2,7,10,19,13,2021-08-07 12:46:33,322530
5,6,2,2,-1,4,3,2,2021-08-07 12:46:33,347531
-9,-8,-7,-13,-26,-28,-28,-16,2021-08-07 12:46:33,347531
-10,-7,-6,-3,1,-4,-11,-11,2021-08-07 12:46:33,347531
-2,-1,0,-1,0,-4,-6,-4,2021-08-07 12:46:33,347531
-1,-2,-3,-2,-1,0,3,2,2021-08-07 12:46:33,362533
3,-2,0,4,8,8,9,7,2021-08-07 12:46:33,378529
1,0,-2,-3,-6,-3,0,1,2021-08-07 12:46:33,378529
4,7,7,4,0,2,1,2,2021-08-07 12:46:33,378529
0,0,0,-3,-3,0,1,1,2021-08-07 12:46:33,378529
-4,-4,-4,-5,-3,-1,-1,-3,2021-08-07 12:46:33,378529
-2,-4,-2,-5,-5,-4,0,-1,2021-08-07 12:46:33,378529
-1,0,-1,-4,-2,-3,-3,-2,2021-08-07 12:46:33,378529
2,4,3,8,15,7,1,0,2021-08-07 12:46:33,410532
-1,-1,-3,-4,-1,0,-1,-1,2021-08-07 12:46:33,410532
0,-1,-1,4,4,4,1,2,2021-08-07 12:46:33,410532
-3,-5,-5,-8,-15,-12,-8,-4,2021-08-07 12:46:33,410532
0,0,1,0,0,0,0,-1,2021-08-07 12:46:33,410532
-3,-2,-4,-4,-1,0,2,0,2021-08-07 12:46:33,410532
4,4,5,16,26,15,8,4,2021-08-07 12:46:33,426531
1,2,0,1,-5,-6,-4,-3,2021-08-07 12:46:33,426531
0,0,-1,-2,-6,-2,-2,0,2021-08-07 12:46:33,442533
-2,-2,-4,3,1,-2,-3,-3,2021-08-07 12:46:33,457529
-3,-5,-7,-16,-22,-12,-10,-5,2021-08-07 12:46:33,473530
0,1,3,10,17,7,1,-2,2021-08-07 12:46:33,473530
2,3,3,0,-6,-3,1,0,2021-08-07 12:46:33,473530
2,1,2,3,7,5,6,2,2021-08-07 12:46:33,473530
-1,-2,-4,-3,-4,-3,0,0,2021-08-07 12:46:33,473530
-2,-4,-4,-4,-2,-2,-4,-1,2021-08-07 12:46:33,474532
-4,-5,-4,-3,-6,-4,-4,-2,2021-08-07 12:46:33,474532
-1,1,1,1,0,0,1,1,2021-08-07 12:46:33,474532
1,-2,-1,-3,-5,-3,-1,-1,2021-08-07 12:46:33,489531
-1,-1,1,-2,-6,-1,-2,-2,2021-08-07 12:46:33,489531
-2,-3,-2,3,5,0,-2,-3,2021-08-07 12:46:33,505533
-1,0,-1,-2,-2,2,1,0,2021-08-07 12:46:33,520530
0,-2,-2,1,-1,-4,-1,-1,2021-08-07 12:46:33,520530
0,-2,-1,-1,1,1,3,0,2021-08-07 12:46:33,520530
-1,-1,-3,-7,-9,-4,-4,-2,2021-08-07 12:46:33,520530
-1,-3,-3,5,9,3,1,-2,2021-08-07 12:46:33,520530
-1,0,1,-1,-5,-1,-2,-1,2021-08-07 12:46:33,520530
3,6,6,10,8,0,1,1,2021-08-07 12:46:33,520530
-2,-3,-3,-7,-3,-2,-3,-3,2021-08-07 12:46:33,552531
-4,-3,-3,-7,-12,-6,-4,-3,2021-08-07 12:46:33,552531
-2,-2,-3,-6,-7,-6,-2,-3,2021-08-07 12:46:33,567531
1,0,2,2,8,6,3,0,2021-08-07 12:46:33,582529
0,1,0,0,0,0,-1,0,2021-08-07 12:46:33,598531
2,0,1,1,-1,-1,-2,2,2021-08-07 12:46:33,614530
-3,-3,-4,-10,-13,-8,-4,-2,2021-08-07 12:46:33,629529
1,0,-1,3,9,8,3,1,2021-08-07 12:46:33,630002
-1,-2,0,1,0,-2,-2,0,2021-08-07 12:46:33,630002
0,-3,-2,-4,0,-1,-2,-1,2021-08-07 12:46:33,630002
-1,2,0,1,-1,-1,0,0,2021-08-07 12:46:33,630532
-1,0,-1,0,3,3,2,-2,2021-08-07 12:46:33,630532
0,-2,-1,9,16,11,5,2,2021-08-07 12:46:33,630532
1,0,-1,-4,-4,-4,0,1,2021-08-07 12:46:33,630532
0,1,0,-2,-1,-1,-3,-1,2021-08-07 12:46:33,630532
-4,-5,-6,-14,-21,-14,-8,-4,2021-08-07 12:46:33,630532
-3,-3,-6,-18,-31,-18,-9,-4,2021-08-07 12:46:33,630532
1,2,6,27,45,28,12,1,2021-08-07 12:46:33,630532
3,5,3,6,9,7,5,3,2021-08-07 12:46:33,645564
-2,-3,-3,-5,0,0,-1,0,2021-08-07 12:46:33,645564
1,1,2,3,8,1,0,0,2021-08-07 12:46:33,645564
-1,-2,-1,-9,-18,-10,-2,-1,2021-08-07 12:46:33,645564
-2,-1,3,7,14,11,3,0,2021-08-07 12:46:33,645564
0,1,0,-1,-1,-3,-3,-1,2021-08-07 12:46:33,645564
-3,-5,-4,-8,-14,-9,-7,-4,2021-08-07 12:46:33,677565
0,-1,-2,-3,0,1,0,-3,2021-08-07 12:46:33,693565
-1,0,0,-1,-8,-6,-3,-2,2021-08-07 12:46:33,709566
-2,-2,-3,-6,-2,2,-1,-1,2021-08-07 12:46:33,709566
0,1,3,1,3,1,1,-1,2021-08-07 12:46:33,709566
2,4,7,9,14,9,5,3,2021-08-07 12:46:33,709566
-2,-5,-6,-9,-9,-7,-4,-1,2021-08-07 12:46:33,709566
-3,-3,-3,-2,-4,-2,-3,-2,2021-08-07 12:46:33,710569
1,2,2,9,11,7,4,-1,2021-08-07 12:46:33,710569
1,2,1,-5,-9,-2,-3,2,2021-08-07 12:46:33,710569
2,1,2,0,1,0,1,0,2021-08-07 12:46:33,710569
-5,-6,-6,-8,-7,-4,-4,-3,2021-08-07 12:46:33,710569
-4,-5,-6,-8,-17,-10,-5,-5,2021-08-07 12:46:33,740565
3,7,5,6,13,9,5,3,2021-08-07 12:46:33,740565
-1,-2,-2,3,7,3,1,1,2021-08-07 12:46:33,740565
-3,-2,-5,-11,-19,-14,-5,-4,2021-08-07 12:46:33,740565
2,2,3,7,16,9,5,4,2021-08-07 12:46:33,740565
1,-1,2,13,13,6,2,2,2021-08-07 12:46:33,740565
-2,-1,-3,-5,-7,-4,-3,-1,2021-08-07 12:46:33,756565
-1,-2,1,5,7,1,-1,0,2021-08-07 12:46:33,756565
0,1,-2,-7,-4,0,-2,-1,2021-08-07 12:46:33,760565
-2,-3,-3,-8,-19,-13,-5,-4,2021-08-07 12:46:33,760565
0,-2,1,-1,0,2,0,0,2021-08-07 12:46:33,760565
3,5,6,12,15,8,3,3,2021-08-07 12:46:33,760565
-1,-2,-2,-6,-10,-3,-3,1,2021-08-07 12:46:33,788568
-3,-3,-4,4,12,2,1,-1,2021-08-07 12:46:33,788568
-3,-3,-3,-3,-9,-7,-4,-4,2021-08-07 12:46:33,788568
2,2,0,-4,0,1,4,2,2021-08-07 12:46:33,788568
-4,-1,-3,-2,-3,-5,-3,-2,2021-08-07 12:46:33,804566
-2,0,0,-6,-16,-10,-4,-2,2021-08-07 12:46:33,820563
-2,-3,-3,-5,-6,-5,-3,0,2021-08-07 12:46:33,820563
1,3,3,4,10,7,3,3,2021-08-07 12:46:33,820563
0,0,1,11,16,9,4,2,2021-08-07 12:46:33,820563
-1,0,-3,-10,-16,-8,-3,-1,2021-08-07 12:46:33,820563
1,0,0,2,5,3,1,-1,2021-08-07 12:46:33,820563
-1,-3,-5,-8,-16,-8,-4,-3,2021-08-07 12:46:33,820563
-1,-2,-1,3,6,0,0,-3,2021-08-07 12:46:33,852564
2,3,3,7,5,3,3,2,2021-08-07 12:46:33,867563
1,1,1,3,8,5,2,0,2021-08-07 12:46:33,867563
1,4,5,4,3,-3,2,1,2021-08-07 12:46:33,867563
-1,-3,-4,1,3,3,2,1,2021-08-07 12:46:33,867563
0,-2,-5,-10,-15,-8,-5,-1,2021-08-07 12:46:33,867563
-2,0,-2,-7,-6,-3,-2,-2,2021-08-07 12:46:33,867563
-2,-3,2,-9,-18,-8,-5,-4,2021-08-07 12:46:33,867563
3,3,1,32,58,30,12,5,2021-08-07 12:46:33,882563
-1,-4,-4,-8,-6,-2,-2,-1,2021-08-07 12:46:33,898567
-2,-5,-5,-12,-17,-11,-7,-2,2021-08-07 12:46:33,898567
-3,-3,-3,2,-1,-1,-2,-3,2021-08-07 12:46:33,898567
-2,-2,-2,-20,-36,-22,-10,-4,2021-08-07 12:46:33,914565
-4,-3,-5,-8,-3,-1,-2,-3,2021-08-07 12:46:33,914565
5,6,4,13,23,14,9,4,2021-08-07 12:46:33,914565
1,2,3,9,13,5,3,0,2021-08-07 12:46:33,914565
-6,-7,-7,-9,-17,-12,-6,-5,2021-08-07 12:46:33,914565
1,1,2,-4,-7,-5,-1,0,2021-08-07 12:46:33,914565
0,0,0,-4,-7,-1,1,0,2021-08-07 12:46:33,930563
2,2,1,6,11,7,3,3,2021-08-07 12:46:33,930563
0,0,-1,-6,-6,-4,-2,-1,2021-08-07 12:46:33,946564
0,1,1,-3,-2,-1,0,0,2021-08-07 12:46:33,946564
-5,-5,-2,-3,-12,-8,-3,-3,2021-08-07 12:46:33,946564
-4,-5,-7,-12,-9,-3,-2,-2,2021-08-07 12:46:33,946564
-1,-2,-2,5,5,3,-1,-1,2021-08-07 12:46:33,978564
-1,-1,-1,-3,-3,-5,-3,-2,2021-08-07 12:46:33,978564
-1,0,3,9,20,10,4,0,2021-08-07 12:46:33,978564
1,1,-1,3,1,-1,1,-2,2021-08-07 12:46:33,978564
1,5,3,-4,-12,-8,-2,1,2021-08-07 12:46:33,978564
0,-1,0,15,23,16,5,1,2021-08-07 12:46:33,978564
2,2,0,-5,-9,-2,-2,-1,2021-08-07 12:46:33,994565
-2,-4,-2,-7,-18,-11,-6,-3,2021-08-07 12:46:33,994565
0,1,3,3,16,7,2,1,2021-08-07 12:46:34,025565
-1,-3,-6,-5,-8,-5,-3,-2,2021-08-07 12:46:34,041565
0,1,-1,9,15,7,2,0,2021-08-07 12:46:34,056564
-2,0,-1,2,6,5,2,1,2021-08-07 12:46:34,072565
-1,-2,-2,-2,-10,-8,-3,-2,2021-08-07 12:46:34,072565
-5,-6,-5,-11,-11,-8,-4,-4,2021-08-07 12:46:34,072565
0,0,2,8,8,5,2,2,2021-08-07 12:46:34,072565
-3,-4,-3,-5,-4,-5,-2,-1,2021-08-07 12:46:34,072565
1,1,2,0,0,1,0,1,2021-08-07 12:46:34,072565
-4,-3,-2,-2,-5,-4,-4,-4,2021-08-07 12:46:34,072565
-3,-6,-9,-14,-22,-14,-7,-5,2021-08-07 12:46:34,072565
5,6,6,10,16,11,6,2,2021-08-07 12:46:34,072565
-3,-4,-5,-7,-7,-5,-2,-4,2021-08-07 12:46:34,072565
1,3,3,6,11,8,4,2,2021-08-07 12:46:34,073567
4,5,5,16,29,14,8,5,2021-08-07 12:46:34,073567
-4,-4,-6,-6,-8,-5,-4,-3,2021-08-07 12:46:34,073567
-1,-3,-1,-4,-12,-6,-2,-2,2021-08-07 12:46:34,087564
0,-1,-1,4,5,2,2,1,2021-08-07 12:46:34,103567
-1,0,1,-4,-6,-2,-2,0,2021-08-07 12:46:34,119565
-1,0,-1,-6,-5,-3,-2,2,2021-08-07 12:46:34,119565
0,-1,-3,-3,-7,-6,-5,-1,2021-08-07 12:46:34,119565
-6,-7,-5,-10,-20,-11,-8,-6,2021-08-07 12:46:34,119565
2,2,4,6,10,7,4,1,2021-08-07 12:46:34,119565
0,1,2,1,-4,-3,-2,-1,2021-08-07 12:46:34,119565
1,1,3,6,10,8,4,1,2021-08-07 12:46:34,120567
-1,-2,-2,3,2,-1,-2,0,2021-08-07 12:46:34,120567
0,-2,-5,-12,-16,-10,-5,-1,2021-08-07 12:46:34,120567
2,0,-3,-2,1,0,-1,0,2021-08-07 12:46:34,120567
-6,-4,-5,-6,-8,-4,-1,-3,2021-08-07 12:46:34,150564
4,4,3,7,9,8,7,4,2021-08-07 12:46:34,150564
-4,-2,0,-2,1,-2,-2,-2,2021-08-07 12:46:34,150564
-3,-2,-1,-1,-4,-3,-1,-2,2021-08-07 12:46:34,150564
-4,-3,-2,-13,-22,-12,-9,-5,2021-08-07 12:46:34,166565
0,1,5,9,11,5,1,-2,2021-08-07 12:46:34,182565
3,2,1,1,7,5,1,2,2021-08-07 12:46:34,182565
2,3,1,7,13,6,2,2,2021-08-07 12:46:34,182565
1,-1,-3,-4,-6,-5,-3,1,2021-08-07 12:46:34,182565
0,2,1,-10,-15,-10,-4,-1,2021-08-07 12:46:34,182565
-3,-5,-6,-9,-14,-8,-5,-4,2021-08-07 12:46:34,190565
3,3,5,9,10,4,3,4,2021-08-07 12:46:34,190565
1,1,2,4,10,8,4,3,2021-08-07 12:46:34,214565
-1,-2,-2,-4,-3,-3,-1,-1,2021-08-07 12:46:34,214565
-1,-2,-2,-2,-6,-4,-3,-1,2021-08-07 12:46:34,214565
-1,-4,-3,-7,-6,-4,-2,-2,2021-08-07 12:46:34,214565
1,4,2,8,14,8,4,3,2021-08-07 12:46:34,214565
0,2,0,4,10,6,0,0,2021-08-07 12:46:34,215565
-2,-4,-5,-8,-12,-6,-4,-3,2021-08-07 12:46:34,230567
0,2,2,4,3,5,4,1,2021-08-07 12:46:34,230567
5,5,6,7,18,11,6,4,2021-08-07 12:46:34,246564
-4,-5,-4,-5,-11,-7,-4,-3,2021-08-07 12:46:34,246564
0,0,-2,-4,-7,-3,0,-1,2021-08-07 12:46:34,246564
-2,-5,-4,-11,-16,-11,-9,-5,2021-08-07 12:46:34,246564
2,-1,-1,3,4,5,2,0,2021-08-07 12:46:34,278564
-3,-4,-5,-10,-11,-7,-6,-1,2021-08-07 12:46:34,278564
-1,0,-1,3,3,1,0,0,2021-08-07 12:46:34,278564
-3,-3,-3,2,3,1,0,-1,2021-08-07 12:46:34,278564
2,2,4,4,3,-1,-1,-1,2021-08-07 12:46:34,278564
1,-1,-3,-1,3,2,2,-1,2021-08-07 12:46:34,278564
1,4,3,0,-2,0,-1,1,2021-08-07 12:46:34,294565
-3,-1,-1,-1,0,-1,-3,-2,2021-08-07 12:46:34,294565
-2,-4,-4,-10,-12,-8,-4,-3,2021-08-07 12:46:34,310564
0,-1,-3,-1,1,0,0,-1,2021-08-07 12:46:34,310564
0,-1,1,0,4,2,1,-1,2021-08-07 12:46:34,310564
0,0,-1,-1,-3,-2,-2,1,2021-08-07 12:46:34,310564
-4,-2,-2,-5,-9,-6,-4,-3,2021-08-07 12:46:34,326565
-3,-2,-3,-2,-8,-6,-4,-1,2021-08-07 12:46:34,326565
3,1,3,11,19,15,6,3,2021-08-07 12:46:34,326565
-3,-2,-5,-12,-10,-7,-5,-4,2021-08-07 12:46:34,326565
-1,1,-1,2,-3,-2,-1,2,2021-08-07 12:46:34,342565
-3,-2,-1,-3,-7,-6,-3,-2,2021-08-07 12:46:34,342565
0,0,-1,2,8,3,1,-1,2021-08-07 12:46:34,342565
0,-1,0,2,5,2,3,0,2021-08-07 12:46:34,342565
1,-2,-3,-6,-7,-2,1,-1,2021-08-07 12:46:34,374565
1,0,0,0,3,1,1,1,2021-08-07 12:46:34,374565
-3,-3,-4,-4,-11,-8,-5,0,2021-08-07 12:46:34,374565
2,1,0,-1,1,2,0,2,2021-08-07 12:46:34,374565
2,5,6,10,13,8,4,2,2021-08-07 12:46:34,390565
1,1,3,3,7,1,1,1,2021-08-07 12:46:34,406563
-3,-3,-2,1,3,1,-1,-2,2021-08-07 12:46:34,406563
0,-3,-2,-7,-11,-6,-3,-3,2021-08-07 12:46:34,406563
-4,-7,-6,-8,-13,-13,-7,-7,2021-08-07 12:46:34,406563
2,-1,-1,-3,-1,4,3,0,2021-08-07 12:46:34,406563
3,3,2,5,10,9,5,3,2021-08-07 12:46:34,406563
3,4,5,3,9,8,6,3,2021-08-07 12:46:34,406563
-1,0,0,4,4,3,1,-1,2021-08-07 12:46:34,422565
-3,-5,-6,-13,-15,-11,-7,-4,2021-08-07 12:46:34,438567
-1,-1,-3,-7,-15,-11,-5,-3,2021-08-07 12:46:34,438567
-2,-4,-2,-1,2,0,-2,-3,2021-08-07 12:46:34,438567
6,8,6,6,10,10,6,5,2021-08-07 12:46:34,454564
-2,-2,-2,0,-1,-1,-2,-2,2021-08-07 12:46:34,454564
-2,-4,-3,-7,-13,-9,-4,-3,2021-08-07 12:46:34,454564
0,1,0,11,21,10,2,2,2021-08-07 12:46:34,454564
-5,-6,-7,-9,-15,-11,-5,-3,2021-08-07 12:46:34,486565
3,5,5,8,11,8,3,3,2021-08-07 12:46:34,486565
0,-1,1,-1,-1,-4,-1,-1,2021-08-07 12:46:34,486565
-1,-2,-5,-11,-16,-10,-5,-3,2021-08-07 12:46:34,486565
-4,-6,-5,-7,-13,-8,-5,-3,2021-08-07 12:46:34,486565
3,4,3,11,21,14,7,3,2021-08-07 12:46:34,486565
1,2,1,6,8,3,-1,0,2021-08-07 12:46:34,487567
-1,-3,0,3,5,3,0,-1,2021-08-07 12:46:34,487567
-1,-1,-3,-9,-12,-7,-2,-3,2021-08-07 12:46:34,518565
-5,-5,-8,-14,-20,-12,-7,-4,2021-08-07 12:46:34,534564
-4,-4,-5,-5,1,0,-1,-4,2021-08-07 12:46:34,550566
1,2,0,2,-2,-2,0,-1,2021-08-07 12:46:34,550566
0,3,3,4,2,2,0,1,2021-08-07 12:46:34,550566
-1,-1,-2,0,-1,0,0,0,2021-08-07 12:46:34,550566
-1,-1,-1,-9,-14,-8,-4,-3,2021-08-07 12:46:34,550566
-1,-1,2,3,2,1,1,0,2021-08-07 12:46:34,550566
0,0,-1,5,13,7,4,1,2021-08-07 12:46:34,551566
0,-1,-1,4,8,5,1,0,2021-08-07 12:46:34,551566
1,2,2,0,3,1,0,1,2021-08-07 12:46:34,551566
-2,-5,-4,-7,-15,-9,-7,-1,2021-08-07 12:46:34,551566
-5,-4,-5,-8,-9,-6,-6,-3,2021-08-07 12:46:34,582564
3,6,7,4,1,0,2,2,2021-08-07 12:46:34,598564
1,1,0,9,20,12,5,2,2021-08-07 12:46:34,629565
0,1,-1,-10,-18,-11,-4,-1,2021-08-07 12:46:34,634565
0,-2,0,5,20,14,5,-1,2021-08-07 12:46:34,634565
-2,-3,-3,-4,-2,-4,-3,-3,2021-08-07 12:46:34,634565
-3,-2,-1,-2,-12,-6,-4,-3,2021-08-07 12:46:34,634565
0,3,1,9,18,9,4,2,2021-08-07 12:46:34,634565
-1,-1,-2,-7,-11,-8,-5,-1,2021-08-07 12:46:34,635565
2,0,1,3,5,3,3,2,2021-08-07 12:46:34,635565
-1,-2,-5,-6,-11,-7,-3,-3,2021-08-07 12:46:34,635565
-2,-4,-1,0,-2,-1,-2,-3,2021-08-07 12:46:34,635565
1,-1,1,-3,-7,-5,0,-2,2021-08-07 12:46:34,635565
-1,-2,-3,-7,-3,-3,-3,-2,2021-08-07 12:46:34,635565
1,3,3,3,0,1,1,1,2021-08-07 12:46:34,636565
0,-1,0,6,13,10,4,0,2021-08-07 12:46:34,636565
-1,-1,-1,2,0,-1,-2,-2,2021-08-07 12:46:34,661564
1,0,0,-1,-1,0,1,1,2021-08-07 12:46:34,661564
-3,-5,-4,1,7,2,0,0,2021-08-07 12:46:34,693563
-2,-1,-2,-6,-12,-7,-4,-2,2021-08-07 12:46:34,709565
3,5,5,7,7,2,2,2,2021-08-07 12:46:34,724565
-4,-4,-4,0,-6,-4,-2,-2,2021-08-07 12:46:34,724565
1,1,1,1,1,1,0,0,2021-08-07 12:46:34,724565
-1,-1,-4,-3,-6,0,-1,0,2021-08-07 12:46:34,724565
-2,-2,-2,0,10,4,0,1,2021-08-07 12:46:34,724565
-2,-1,1,4,7,4,0,0,2021-08-07 12:46:34,724565
-2,-3,-2,-4,-8,-6,-5,-2,2021-08-07 12:46:34,724565
-2,0,-1,-7,-10,-4,-2,-2,2021-08-07 12:46:34,724565
1,1,2,-3,-11,-7,-5,-2,2021-08-07 12:46:34,724565
-2,-6,-3,-2,-3,0,1,-1,2021-08-07 12:46:34,725566
5,9,6,6,8,7,4,5,2021-08-07 12:46:34,725566
-2,0,-3,-5,-7,-8,-5,-1,2021-08-07 12:46:34,725566
0,-2,-3,-2,4,3,2,0,2021-08-07 12:46:34,725566
-1,0,1,3,4,-1,-1,-2,2021-08-07 12:46:34,725566
-2,-6,-6,-8,-13,-8,-6,-5,2021-08-07 12:46:34,725566
3,4,4,4,5,5,4,3,2021-08-07 12:46:34,725566
-4,-5,-9,-6,-8,-7,-5,-2,2021-08-07 12:46:34,756566
-2,-2,0,-3,2,2,0,-1,2021-08-07 12:46:34,772566
1,4,5,9,14,8,4,1,2021-08-07 12:46:34,788567
1,3,1,2,6,3,3,0,2021-08-07 12:46:34,788567
0,0,-2,-2,-7,-4,-3,-3,2021-08-07 12:46:34,788567
-4,-4,-10,-10,-16,-12,-8,-4,2021-08-07 12:46:34,804565
-3,-4,-2,3,4,0,2,0,2021-08-07 12:46:34,836565
3,3,4,9,21,13,5,4,2021-08-07 12:46:34,852565
-2,-2,-1,2,5,-1,0,-1,2021-08-07 12:46:34,852565
-4,-1,-2,-3,-9,-7,-5,-3,2021-08-07 12:46:34,852565
-2,-4,-6,-13,-20,-10,-6,-2,2021-08-07 12:46:34,852565
0,-2,2,6,14,7,3,-1,2021-08-07 12:46:34,852565
2,0,2,3,4,2,1,1,2021-08-07 12:46:34,852565
-2,0,0,-3,-6,-3,-4,-1,2021-08-07 12:46:34,852565
-2,-4,-4,-5,-6,-3,-2,-3,2021-08-07 12:46:34,852565
-1,-1,1,-3,-7,-5,-3,-2,2021-08-07 12:46:34,852565
-2,-2,-4,-3,1,2,0,-2,2021-08-07 12:46:34,852565
4,4,3,11,14,8,5,1,2021-08-07 12:46:34,853565
-1,-2,-3,-2,4,1,1,0,2021-08-07 12:46:34,867563
-1,-7,-5,-7,-12,-7,-5,-2,2021-08-07 12:46:34,867563
0,0,0,-4,-6,-2,-1,-1,2021-08-07 12:46:34,867563
0,1,1,-1,-2,0,-1,0,2021-08-07 12:46:34,867563
0,-1,-1,2,1,3,2,0,2021-08-07 12:46:34,867563
3,4,3,5,13,9,5,1,2021-08-07 12:46:34,867563
-2,-2,-2,2,-1,-2,-1,-3,2021-08-07 12:46:34,867563
-1,-2,0,-8,-7,-5,-2,0,2021-08-07 12:46:34,868565
-1,-2,0,-3,-7,-6,-3,-1,2021-08-07 12:46:34,868565
1,-1,2,4,3,-1,1,-1,2021-08-07 12:46:34,868565
1,0,0,4,11,7,4,2,2021-08-07 12:46:34,915565
-2,-2,-7,-6,-4,-1,-3,-3,2021-08-07 12:46:34,931564
-2,-2,2,-5,-13,-6,-4,-1,2021-08-07 12:46:34,947563
1,2,1,4,9,3,1,2,2021-08-07 12:46:34,947563
1,1,-1,-6,-8,-4,-4,-1,2021-08-07 12:46:34,947563
-2,-4,-4,1,-3,-4,-2,-2,2021-08-07 12:46:34,947563
1,2,-1,5,16,8,3,1,2021-08-07 12:46:34,963564
-1,-1,-3,-7,-19,-6,-4,-1,2021-08-07 12:46:34,963564
-1,2,2,2,11,5,1,0,2021-08-07 12:46:34,963564
-2,-1,1,0,0,-2,-4,0,2021-08-07 12:46:34,963564
-2,0,-2,-5,-7,-4,-1,-1,2021-08-07 12:46:34,978565
-5,-5,-5,-11,-17,-11,-7,-3,2021-08-07 12:46:34,978565
-3,-4,-3,-5,-10,-5,-4,-3,2021-08-07 12:46:34,978565
1,2,1,-1,3,3,2,1,2021-08-07 12:46:34,978565
2,3,4,5,10,7,3,1,2021-08-07 12:46:34,978565
2,4,5,2,4,4,3,1,2021-08-07 12:46:34,978565
-2,0,3,9,19,11,3,0,2021-08-07 12:46:34,994565
-1,-1,-2,-2,-1,-2,-2,-3,2021-08-07 12:46:34,994565
-3,-4,-6,-7,-9,-6,-4,-4,2021-08-07 12:46:34,994565
-1,-1,-5,-4,-2,0,-1,-2,2021-08-07 12:46:34,994565
2,0,1,1,-2,-2,1,2,2021-08-07 12:46:34,994565
1,0,0,-2,-2,0,0,0,2021-08-07 12:46:34,994565
-1,-2,-2,-3,2,-1,0,-2,2021-08-07 12:46:34,994565
-3,-2,-3,-4,-9,-9,-4,-4,2021-08-07 12:46:34,995566
1,3,3,-3,-4,-1,1,1,2021-08-07 12:46:35,010564
2,3,3,4,4,4,3,4,2021-08-07 12:46:35,010564
-3,-5,-8,-7,-11,-6,-4,-2,2021-08-07 12:46:35,026563
-2,-2,-2,0,0,-2,-1,-1,2021-08-07 12:46:35,026563
1,-1,0,2,6,4,2,0,2021-08-07 12:46:35,026563
-2,-1,1,1,3,0,-1,-2,2021-08-07 12:46:35,026563
-3,0,3,2,0,0,-1,-2,2021-08-07 12:46:35,026563
-1,-2,0,-4,-10,-8,-4,-2,2021-08-07 12:46:35,026563
2,2,2,1,5,3,0,1,2021-08-07 12:46:35,057565
1,1,-1,-5,-13,-8,-2,-1,2021-08-07 12:46:35,057565
2,0,0,3,9,6,4,1,2021-08-07 12:46:35,057565
0,-1,-1,2,3,1,1,0,2021-08-07 12:46:35,057565
-3,-2,-5,-17,-22,-12,-5,-3,2021-08-07 12:46:35,073566
3,3,3,15,26,19,10,4,2021-08-07 12:46:35,089563
3,4,4,-6,-10,-2,2,3,2021-08-07 12:46:35,105564
-2,-2,1,13,21,12,2,-1,2021-08-07 12:46:35,105564
-2,-2,-2,-2,-3,-4,0,0,2021-08-07 12:46:35,105564
-3,-3,-5,-7,-11,-6,-4,-1,2021-08-07 12:46:35,105564
-2,-3,-3,-2,-3,-4,-4,-4,2021-08-07 12:46:35,105564
-1,1,0,-3,-5,-4,-2,-1,2021-08-07 12:46:35,105564
-2,-2,-5,-5,-7,-5,-5,-1,2021-08-07 12:46:35,106564
2,4,9,13,21,15,7,4,2021-08-07 12:46:35,106564
-4,-5,-6,-2,-3,-4,-3,-3,2021-08-07 12:46:35,120564
3,2,2,-2,-3,0,1,4,2021-08-07 12:46:35,120564
-2,-1,0,0,-8,-8,-5,-3,2021-08-07 12:46:35,135565
-4,-5,-7,-9,-13,-9,-5,-3,2021-08-07 12:46:35,151565
2,4,3,5,7,7,4,2,2021-08-07 12:46:35,151565
-3,-3,-2,1,2,-1,-1,-4,2021-08-07 12:46:35,151565
-4,-3,-3,-2,-6,-4,-2,-4,2021-08-07 12:46:35,151565
1,-1,3,7,9,4,2,1,2021-08-07 12:46:35,151565
-1,-1,-2,-7,-10,-7,-3,-2,2021-08-07 12:46:35,151565
1,4,4,3,0,-2,2,2,2021-08-07 12:46:35,151565
0,1,0,7,14,9,3,0,2021-08-07 12:46:35,167565
-1,-2,-1,1,1,-3,-2,-2,2021-08-07 12:46:35,167565
-2,-3,-2,3,7,3,0,-1,2021-08-07 12:46:35,167565
-2,-2,-4,-2,-6,-4,-3,-1,2021-08-07 12:46:35,167565
-1,-1,0,4,7,5,2,1,2021-08-07 12:46:35,198566
-2,-4,-3,-7,-9,-6,-3,-3,2021-08-07 12:46:35,214565
3,3,5,5,6,4,2,3,2021-08-07 12:46:35,229563
-4,-8,-7,-11,-13,-8,-7,-4,2021-08-07 12:46:35,229563
0,1,6,3,3,2,2,0,2021-08-07 12:46:35,229563
0,-1,-2,-3,-5,-5,-3,-2,2021-08-07 12:46:35,244564
2,3,3,0,-1,0,1,2,2021-08-07 12:46:35,244564
-2,-3,-2,-5,-7,-5,-4,-2,2021-08-07 12:46:35,244564
-1,-7,-8,-8,-9,-5,-2,-1,2021-08-07 12:46:35,244564
-2,-2,0,-5,-5,-3,-2,-2,2021-08-07 12:46:35,244564
2,5,6,11,19,13,6,2,2021-08-07 12:46:35,244564
1,1,-1,-5,-4,-1,1,0,2021-08-07 12:46:35,244564
2,3,2,2,0,2,1,2,2021-08-07 12:46:35,259565
-3,-3,-4,-4,-10,-7,-5,-2,2021-08-07 12:46:35,259565
-3,-6,-5,-3,-6,-4,-4,-3,2021-08-07 12:46:35,259565
-3,-3,-5,-11,-16,-13,-5,-5,2021-08-07 12:46:35,259565
1,1,0,1,2,3,4,1,2021-08-07 12:46:35,259565
-2,-2,-5,-7,-11,-5,-1,-1,2021-08-07 12:46:35,259565
1,1,3,8,15,4,2,1,2021-08-07 12:46:35,275564
0,2,0,0,5,5,1,2,2021-08-07 12:46:35,275564
0,-3,-3,-4,-5,-4,-4,-3,2021-08-07 12:46:35,291566
-1,0,0,-2,-4,-4,-3,-2,2021-08-07 12:46:35,291566
-3,-6,-7,-14,-19,-11,-6,-4,2021-08-07 12:46:35,291566
-4,-8,-6,-5,-2,2,-2,-2,2021-08-07 12:46:35,291566
4,8,9,8,10,3,3,4,2021-08-07 12:46:35,307564
2,5,5,5,3,2,1,2,2021-08-07 12:46:35,307564
-1,-2,-3,1,-2,-5,-2,-1,2021-08-07 12:46:35,307564
-2,-4,-3,-5,-4,-3,-1,-1,2021-08-07 12:46:35,307564
-1,-3,-1,7,9,4,2,-1,2021-08-07 12:46:35,323564
0,1,1,-2,-1,2,1,1,2021-08-07 12:46:35,339568
-3,-4,-7,-10,-13,-9,-4,-3,2021-08-07 12:46:35,339568
2,5,5,13,20,10,4,3,2021-08-07 12:46:35,339568
-3,-3,-3,-6,-10,-6,-5,-3,2021-08-07 12:46:35,355565
-1,-1,-1,1,4,0,0,-3,2021-08-07 12:46:35,355565
-3,-2,-4,-13,-29,-17,-9,-2,2021-08-07 12:46:35,355565
2,3,2,10,10,10,4,1,2021-08-07 12:46:35,355565
1,1,1,11,19,9,5,2,2021-08-07 12:46:35,371571
-1,-3,-3,-8,-13,-8,-4,-1,2021-08-07 12:46:35,371571
5,5,7,19,43,26,10,6,2021-08-07 12:46:35,371571
0,-2,-2,-6,-14,-9,-4,-1,2021-08-07 12:46:35,371571
-1,-1,-2,-3,-4,-2,-3,-2,2021-08-07 12:46:35,403565
-3,-3,-4,-6,-11,-9,-5,-3,2021-08-07 12:46:35,403565
-1,0,-1,-6,-12,-6,-1,0,2021-08-07 12:46:35,403565
0,3,4,0,7,4,3,1,2021-08-07 12:46:35,403565
0,-3,1,3,5,2,1,-1,2021-08-07 12:46:35,403565
-1,2,-1,-2,2,2,0,-1,2021-08-07 12:46:35,419564
1,1,2,9,8,2,1,-1,2021-08-07 12:46:35,434565
-5,-5,-6,-8,-11,-9,-7,-3,2021-08-07 12:46:35,434565
-1,-1,-4,-12,-10,-4,-2,-1,2021-08-07 12:46:35,434565
5,8,8,13,22,14,7,6,2021-08-07 12:46:35,434943
-1,-2,-3,-2,-5,-1,-2,-3,2021-08-07 12:46:35,434943
-2,-2,0,0,0,-2,-2,-2,2021-08-07 12:46:35,434943
-1,-1,0,-1,-2,-2,-1,-1,2021-08-07 12:46:35,450565
-3,-4,-4,-8,-12,-6,-5,-4,2021-08-07 12:46:35,450565
0,-1,1,3,8,6,2,0,2021-08-07 12:46:35,450565
-2,-2,-2,-2,-2,0,-1,-1,2021-08-07 12:46:35,450565
-2,-2,0,1,1,1,0,1,2021-08-07 12:46:35,466565
0,-1,0,2,3,1,1,0,2021-08-07 12:46:35,466565
-3,-3,-3,-1,2,0,-2,-2,2021-08-07 12:46:35,466565
0,3,4,4,1,-1,1,1,2021-08-07 12:46:35,466565
-2,-2,-4,-6,-6,-4,-4,-3,2021-08-07 12:46:35,486564
-3,-2,-3,-1,-8,-8,-5,-4,2021-08-07 12:46:35,486564
-3,-4,-6,-10,-24,-11,-5,-4,2021-08-07 12:46:35,486564
6,2,3,17,41,25,8,5,2021-08-07 12:46:35,486564
3,4,2,4,11,7,4,4,2021-08-07 12:46:35,513566
-4,-3,-2,-4,0,-1,-2,-1,2021-08-07 12:46:35,513566
0,0,-2,-3,-5,-6,-1,-2,2021-08-07 12:46:35,513566
-1,1,2,-3,-10,-8,-2,-2,2021-08-07 12:46:35,529565
-3,-5,-3,-1,-6,-5,-4,-3,2021-08-07 12:46:35,545565
-2,-2,-2,0,-2,-3,-2,-2,2021-08-07 12:46:35,560565
1,1,1,-4,-6,-2,-2,0,2021-08-07 12:46:35,576565
-1,0,0,-3,-1,0,0,-1,2021-08-07 12:46:35,576565
-1,-1,-2,0,2,-1,-1,0,2021-08-07 12:46:35,576565
-1,-2,-2,-3,-2,-1,-1,-1,2021-08-07 12:46:35,576565
-1,1,0,1,4,2,2,-1,2021-08-07 12:46:35,576565
-1,-2,-1,-3,-5,-2,-1,0,2021-08-07 12:46:35,577565
2,1,2,-4,-7,-2,1,0,2021-08-07 12:46:35,592565
-1,-3,-3,-5,-4,-4,-2,0,2021-08-07 12:46:35,608565
1,1,4,1,4,1,0,2,2021-08-07 12:46:35,624564
-1,-1,-1,3,3,3,1,0,2021-08-07 12:46:35,624564
-4,-4,-7,-11,-12,-10,-6,-5,2021-08-07 12:46:35,624564
1,2,1,3,0,1,2,1,2021-08-07 12:46:35,624564
-2,-3,-2,-1,3,3,-1,-2,2021-08-07 12:46:35,624564
-1,-1,-1,-1,-6,-3,-2,-1,2021-08-07 12:46:35,640565
-3,-1,1,0,-2,-2,-2,-1,2021-08-07 12:46:35,640809
0,1,1,3,10,9,4,2,2021-08-07 12:46:35,640809
3,4,3,9,12,4,4,1,2021-08-07 12:46:35,640809
-3,-1,-3,-9,-14,-12,-4,-3,2021-08-07 12:46:35,640809
-1,-1,-2,5,7,4,0,-2,2021-08-07 12:46:35,640809
-5,-7,-7,-16,-22,-15,-8,-5,2021-08-07 12:46:35,640809
2,2,3,9,21,14,7,5,2021-08-07 12:46:35,641567
0,2,2,-1,-1,-1,0,0,2021-08-07 12:46:35,641567
-7,-9,-11,-11,-16,-11,-6,-6,2021-08-07 12:46:35,641567
6,7,11,6,5,4,3,4,2021-08-07 12:46:35,641567
-2,0,-2,-5,-15,-10,-5,-3,2021-08-07 12:46:35,656566
2,2,1,1,0,3,2,2,2021-08-07 12:46:35,671566
1,2,1,5,16,5,3,1,2021-08-07 12:46:35,687566
-4,-4,-3,4,8,4,3,-3,2021-08-07 12:46:35,703563
-1,-3,-4,-6,-6,-5,-3,-2,2021-08-07 12:46:35,703563
3,2,1,0,0,0,1,2,2021-08-07 12:46:35,703563
0,-1,1,0,-7,-5,-3,-1,2021-08-07 12:46:35,703563
-2,-2,-3,-1,1,-1,-1,0,2021-08-07 12:46:35,703563
-1,-1,-3,-8,-7,-2,-2,-3,2021-08-07 12:46:35,703563
-5,-6,-6,-1,-4,-4,-4,-4,2021-08-07 12:46:35,704567
4,2,2,2,5,8,5,3,2021-08-07 12:46:35,704567
3,3,3,6,10,5,4,2,2021-08-07 12:46:35,704567
-2,-1,-2,1,2,0,0,-1,2021-08-07 12:46:35,719565
-1,-1,-1,-5,-8,-6,-4,-2,2021-08-07 12:46:35,719565
-2,-2,-2,-1,-5,-1,1,0,2021-08-07 12:46:35,735566
5,7,5,0,-4,-2,2,2,2021-08-07 12:46:35,751563
-1,-1,0,-2,0,-2,-2,-1,2021-08-07 12:46:35,751563
1,0,-1,6,10,7,3,2,2021-08-07 12:46:35,751563
-3,-3,0,-7,-9,-8,-6,-3,2021-08-07 12:46:35,751563
-2,-6,-7,-4,-2,-1,-3,-3,2021-08-07 12:46:35,751563
0,0,2,-2,-6,-4,-1,0,2021-08-07 12:46:35,751563
-1,0,0,-2,-1,-2,0,0,2021-08-07 12:46:35,752567
0,-2,-1,-3,-4,0,0,-2,2021-08-07 12:46:35,766565
-3,-7,-6,-4,-5,-5,-6,-3,2021-08-07 12:46:35,782564
-2,0,0,0,-3,-2,-3,-3,2021-08-07 12:46:35,798565
1,-2,-2,-7,-3,1,0,-2,2021-08-07 12:46:35,798565
0,2,3,4,-3,-3,-1,1,2021-08-07 12:46:35,798565
1,2,2,11,11,8,5,0,2021-08-07 12:46:35,798565
0,0,-2,-1,-3,-4,-2,-2,2021-08-07 12:46:35,798565
-3,-4,-4,-5,-10,-8,-4,-5,2021-08-07 12:46:35,798565
-1,-4,-4,-4,-1,1,0,-2,2021-08-07 12:46:35,830564
1,3,3,0,-6,-2,-1,1,2021-08-07 12:46:35,846565
1,2,1,4,6,3,0,3,2021-08-07 12:46:35,846565
-1,1,1,4,6,4,0,-1,2021-08-07 12:46:35,846565
0,4,3,1,0,-1,0,1,2021-08-07 12:46:35,846565
-3,-5,-5,-5,-7,-6,-3,-3,2021-08-07 12:46:35,846565
1,-1,0,-4,2,5,4,1,2021-08-07 12:46:35,846565
-6,-4,-3,-8,-13,-10,-6,-2,2021-08-07 12:46:35,847565
1,3,1,6,10,7,1,0,2021-08-07 12:46:35,847565
1,1,1,10,17,10,4,1,2021-08-07 12:46:35,847565
0,-1,-1,-2,-11,-8,-2,-2,2021-08-07 12:46:35,847565
1,0,0,3,13,8,5,2,2021-08-07 12:46:35,847565
-1,-1,0,-2,-5,-7,-3,-2,2021-08-07 12:46:35,878565
-2,-2,-2,-3,-1,-1,-2,-1,2021-08-07 12:46:35,878565
-2,-2,-5,-7,-5,-3,-2,-1,2021-08-07 12:46:35,878565
0,0,1,-4,-8,-3,-1,-2,2021-08-07 12:46:35,878565
1,0,-2,2,3,-1,0,1,2021-08-07 12:46:35,894568
2,5,2,1,9,6,3,2,2021-08-07 12:46:35,910568
-1,-2,-4,-3,-4,-4,-2,0,2021-08-07 12:46:35,910568
-2,-4,-5,-6,-7,-5,-2,0,2021-08-07 12:46:35,910568
-1,-2,-2,-4,-3,0,-2,-2,2021-08-07 12:46:35,910568
0,-3,-2,-1,-1,2,0,0,2021-08-07 12:46:35,910568
-4,-4,0,9,14,8,2,-3,2021-08-07 12:46:35,910568
2,6,8,12,18,10,4,0,2021-08-07 12:46:35,910568
0,2,1,-2,-4,-3,-1,-2,2021-08-07 12:46:35,942565
-1,1,-1,-2,-6,-4,-2,-1,2021-08-07 12:46:35,942565
-2,-3,-3,-7,-11,-8,-4,-3,2021-08-07 12:46:35,942565
1,-1,0,1,-3,0,-2,-1,2021-08-07 12:46:35,942565
-4,-6,-8,-13,-24,-16,-8,-4,2021-08-07 12:46:35,942565
-1,-3,-2,-6,-2,5,0,0,2021-08-07 12:46:35,942565
7,11,11,20,32,19,11,8,2021-08-07 12:46:35,958565
-1,0,-3,-4,-9,-7,-2,-2,2021-08-07 12:46:35,958565
0,1,1,3,5,3,2,2,2021-08-07 12:46:35,974565
-7,-9,-8,-12,-18,-14,-7,-8,2021-08-07 12:46:35,974565
-1,-3,-3,-8,-11,-5,-4,-2,2021-08-07 12:46:35,974565
-3,-5,-5,-2,0,0,-2,0,2021-08-07 12:46:35,974565
-5,-8,-7,-16,-18,-10,-7,-5,2021-08-07 12:46:35,990565
8,12,13,18,32,17,10,7,2021-08-07 12:46:35,990565
-1,-2,-2,1,-3,-4,-2,-2,2021-08-07 12:46:35,990565
1,1,-1,0,-1,-1,0,0,2021-08-07 12:46:35,990565
-5,-6,-6,-12,-18,-11,-8,-5,2021-08-07 12:46:36,006565
0,-1,-1,1,1,2,2,0,2021-08-07 12:46:36,022565
0,-2,-2,-1,5,4,-1,-1,2021-08-07 12:46:36,022565
-4,-6,-7,-11,-15,-9,-4,-4,2021-08-07 12:46:36,022565
4,6,9,12,12,6,4,4,2021-08-07 12:46:36,038564
5,5,2,10,24,14,8,5,2021-08-07 12:46:36,038564
-2,0,-2,-1,-4,-3,-1,-2,2021-08-07 12:46:36,038564
0,-1,-3,-5,-1,0,-1,2,2021-08-07 12:46:36,038564
1,1,-1,-3,-2,-1,-1,1,2021-08-07 12:46:36,070565
-7,-6,-4,-10,-17,-12,-8,-5,2021-08-07 12:46:36,070565
-1,-1,-3,-3,-6,-3,-3,0,2021-08-07 12:46:36,070565
-1,0,-1,2,1,1,1,-2,2021-08-07 12:46:36,086565
0,0,0,2,3,3,2,0,2021-08-07 12:46:36,086565
-5,-8,-6,-7,-7,-4,-5,-3,2021-08-07 12:46:36,086565
5,6,7,13,14,12,7,5,2021-08-07 12:46:36,086565
7,8,10,19,29,19,11,6,2021-08-07 12:46:36,086565
3,5,4,4,5,4,3,2,2021-08-07 12:46:36,101566
-6,-6,-7,-9,-17,-13,-7,-4,2021-08-07 12:46:36,117564
-6,-7,-7,-16,-22,-14,-8,-6,2021-08-07 12:46:36,117564
-3,-2,-2,-10,-17,-11,-8,-3,2021-08-07 12:46:36,117564
2,-1,-1,11,21,15,6,3,2021-08-07 12:46:36,117564
-1,1,-2,-1,-4,-5,-2,0,2021-08-07 12:46:36,117564
3,5,6,5,7,6,6,3,2021-08-07 12:46:36,117564
-1,0,2,3,3,-1,-2,-1,2021-08-07 12:46:36,117564
-5,-5,-4,-5,-6,-7,-3,-6,2021-08-07 12:46:36,133565
-7,-8,-8,-9,-19,-15,-10,-6,2021-08-07 12:46:36,149563
1,2,0,-4,2,3,1,3,2021-08-07 12:46:36,149563
2,4,4,4,2,3,3,1,2021-08-07 12:46:36,149563
1,0,1,2,6,4,1,0,2021-08-07 12:46:36,149563
2,2,2,4,7,5,3,0,2021-08-07 12:46:36,149563
-3,-4,-6,-7,-10,-9,-5,-5,2021-08-07 12:46:36,149563
-4,-5,-6,-9,-14,-10,-5,-3,2021-08-07 12:46:36,150567
1,2,3,6,9,8,4,1,2021-08-07 12:46:36,197566
-3,-4,-4,-1,-2,-4,-3,-2,2021-08-07 12:46:36,197566
-3,-3,-4,-9,-15,-7,-5,-3,2021-08-07 12:46:36,197566
5,7,7,3,8,4,5,3,2021-08-07 12:46:36,197566
0,3,8,9,11,5,0,-1,2021-08-07 12:46:36,197566
3,2,-5,-1,-3,0,3,1,2021-08-07 12:46:36,197566
-3,-6,-8,-2,0,-1,-1,-1,2021-08-07 12:46:36,229565
-3,-2,-2,1,-1,-2,-1,-2,2021-08-07 12:46:36,229565
-4,-3,-6,-16,-23,-16,-9,-3,2021-08-07 12:46:36,229565
-1,-1,5,4,1,4,2,-1,2021-08-07 12:46:36,229565
6,5,4,10,20,13,8,4,2021-08-07 12:46:36,229565
0,0,-3,2,0,1,0,1,2021-08-07 12:46:36,229565
2,3,3,13,27,15,5,1,2021-08-07 12:46:36,229565
-1,-1,-2,-6,-11,-8,-6,-3,2021-08-07 12:46:36,229565
-5,-4,-4,-8,-13,-11,-7,-5,2021-08-07 12:46:36,229565
0,-2,0,-4,2,1,-2,-1,2021-08-07 12:46:36,229565
-3,-3,-4,-6,-11,-7,-4,-1,2021-08-07 12:46:36,245565
-3,-2,-3,-5,-6,-4,-4,-2,2021-08-07 12:46:36,261565
-2,-1,1,0,-3,-2,0,0,2021-08-07 12:46:36,261565
0,1,2,4,10,6,3,0,2021-08-07 12:46:36,261565
0,1,-3,-2,1,2,1,2,2021-08-07 12:46:36,277565
2,3,1,3,6,4,1,2,2021-08-07 12:46:36,277565
-5,-8,-6,-9,-11,-8,-6,-6,2021-08-07 12:46:36,293564
-5,-11,-8,-13,-26,-18,-10,-6,2021-08-07 12:46:36,293564
9,11,12,14,20,21,12,7,2021-08-07 12:46:36,293564
3,7,9,15,27,14,8,4,2021-08-07 12:46:36,293564
-1,1,2,1,4,0,-1,-2,2021-08-07 12:46:36,293564
-1,-2,-4,-3,-3,-3,-2,-3,2021-08-07 12:46:36,293564
-7,-10,-10,-12,-20,-14,-8,-8,2021-08-07 12:46:36,309565
-1,-3,-1,-7,-13,-6,-3,-2,2021-08-07 12:46:36,309565
-1,0,-2,-3,-2,-2,-2,0,2021-08-07 12:46:36,309565
0,-1,-1,2,0,-1,-1,-1,2021-08-07 12:46:36,309565
0,0,2,0,4,3,2,1,2021-08-07 12:46:36,339564
1,1,-1,0,3,0,0,1,2021-08-07 12:46:36,343564
-3,-3,-5,-5,-7,-6,-4,-2,2021-08-07 12:46:36,343564
-3,-4,-5,-11,-12,-7,-5,-3,2021-08-07 12:46:36,343564
0,1,2,4,8,5,1,0,2021-08-07 12:46:36,355564
0,0,-1,-3,-1,1,0,0,2021-08-07 12:46:36,355564
0,0,2,7,8,6,3,2,2021-08-07 12:46:36,355564
-1,-1,0,2,7,4,0,0,2021-08-07 12:46:36,355564
-7,-11,-10,-9,-11,-12,-8,-6,2021-08-07 12:46:36,387565
6,8,6,2,4,6,4,2,2021-08-07 12:46:36,387565
0,0,0,-2,-4,-4,-2,-1,2021-08-07 12:46:36,387565
0,2,2,3,0,1,0,1,2021-08-07 12:46:36,387565
-4,-5,-4,0,1,-3,-1,-2,2021-08-07 12:46:36,387565
-4,-7,-5,-5,-6,-4,-4,-4,2021-08-07 12:46:36,387565
0,2,1,-2,1,0,0,-3,2021-08-07 12:46:36,387565
1,0,-1,3,4,4,2,1,2021-08-07 12:46:36,388565
2,1,1,3,4,4,2,1,2021-08-07 12:46:36,419565
1,1,1,-1,-6,-1,-1,0,2021-08-07 12:46:36,419565
2,4,4,4,4,3,2,1,2021-08-07 12:46:36,419565
-3,-2,-1,5,11,5,2,-2,2021-08-07 12:46:36,419565
-2,-3,-2,-8,-9,-8,-5,-3,2021-08-07 12:46:36,435565
-2,-1,2,-3,-2,-2,-1,-2,2021-08-07 12:46:36,435565
-1,-4,-13,-3,-8,-5,-3,-3,2021-08-07 12:46:36,435565
-3,-6,-3,-9,-14,-11,-6,-3,2021-08-07 12:46:36,435565
1,-1,-1,-12,-18,-6,-4,-2,2021-08-07 12:46:36,451563
6,7,10,26,43,30,14,6,2021-08-07 12:46:36,467566
-1,0,1,-1,-3,-3,-1,-1,2021-08-07 12:46:36,483563
3,5,2,2,4,3,2,3,2021-08-07 12:46:36,483563
-6,-5,-6,-12,-22,-16,-9,-5,2021-08-07 12:46:36,483563
-6,-4,-5,-13,-20,-13,-8,-6,2021-08-07 12:46:36,483563
-1,-2,0,0,3,3,0,2,2021-08-07 12:46:36,483563
-2,-5,-7,-6,-5,-2,-3,-3,2021-08-07 12:46:36,483563
4,6,6,12,23,10,6,2,2021-08-07 12:46:36,499565
2,1,1,-1,-3,-4,0,2,2021-08-07 12:46:36,515565
0,1,1,4,2,3,1,0,2021-08-07 12:46:36,531567
-6,-6,-5,-10,-13,-10,-7,-4,2021-08-07 12:46:36,531567
4,4,5,5,0,3,3,1,2021-08-07 12:46:36,531567
-1,-1,-3,1,2,-4,-2,-2,2021-08-07 12:46:36,531567
2,-1,1,3,7,3,-1,0,2021-08-07 12:46:36,531567
-2,-2,-2,-9,-13,-7,-4,0,2021-08-07 12:46:36,531567
-1,-4,-2,2,-1,0,1,-1,2021-08-07 12:46:36,531567
1,1,-1,5,20,11,5,2,2021-08-07 12:46:36,531567
0,1,2,1,-4,-3,1,0,2021-08-07 12:46:36,531567
3,1,1,1,3,2,2,1,2021-08-07 12:46:36,532567
-3,-2,-6,-4,-7,-6,-2,-3,2021-08-07 12:46:36,562566
-1,-3,-1,-7,-16,-12,-5,-3,2021-08-07 12:46:36,562566
-4,-5,-4,-6,-4,-3,-3,-3,2021-08-07 12:46:36,578564
-2,0,-2,-8,-20,-14,-7,-5,2021-08-07 12:46:36,578564
11,14,14,31,55,41,21,12,2021-08-07 12:46:36,578564
-2,-2,-1,0,2,-1,-3,-2,2021-08-07 12:46:36,578564
1,0,1,-4,-1,0,0,-1,2021-08-07 12:46:36,578564
1,0,7,0,1,0,-2,-1,2021-08-07 12:46:36,578564
-7,-8,-19,-15,-26,-18,-10,-6,2021-08-07 12:46:36,594565
-3,-4,-3,-4,-8,-1,-2,-4,2021-08-07 12:46:36,610565
1,2,2,7,14,6,4,0,2021-08-07 12:46:36,626563
-5,-7,-5,-2,0,-1,-1,-2,2021-08-07 12:46:36,626563
2,3,6,-2,1,2,1,2,2021-08-07 12:46:36,626563
2,1,-2,0,-5,-5,-3,0,2021-08-07 12:46:36,626563
-1,1,3,-1,-7,-2,-1,0,2021-08-07 12:46:36,626563
5,5,6,13,26,19,10,5,2021-08-07 12:46:36,626563
-4,-6,-5,-11,-11,-9,-5,-2,2021-08-07 12:46:36,627565
-6,-6,-7,-7,-19,-13,-8,-5,2021-08-07 12:46:36,627565
-2,-6,-5,-4,1,0,-3,-3,2021-08-07 12:46:36,642563
2,7,3,1,6,7,5,3,2021-08-07 12:46:36,642563
8,9,10,17,27,18,8,6,2021-08-07 12:46:36,658564
0,0,-1,-4,-5,-5,-1,0,2021-08-07 12:46:36,673564
-2,-2,-4,-3,-4,-5,-2,-2,2021-08-07 12:46:36,673564
-2,-3,-3,-1,-5,-3,-1,-3,2021-08-07 12:46:36,673564
-7,-9,-9,-16,-26,-20,-11,-7,2021-08-07 12:46:36,673564
-3,-3,-2,-10,-12,-6,-2,-2,2021-08-07 12:46:36,673564
1,1,2,15,28,16,5,1,2021-08-07 12:46:36,673564
5,6,5,7,7,5,4,3,2021-08-07 12:46:36,673564
-2,-3,-1,-1,-3,-2,-1,-3,2021-08-07 12:46:36,704566
-1,-2,-3,-2,0,-1,-1,0,2021-08-07 12:46:36,704566
-3,-2,0,-8,-14,-7,-2,-1,2021-08-07 12:46:36,704566
-1,-1,6,-1,-1,1,0,1,2021-08-07 12:46:36,704566
-6,-4,-13,-12,-26,-20,-9,-5,2021-08-07 12:46:36,704566
0,-1,0,6,16,16,5,2,2021-08-07 12:46:36,704566
5,6,6,13,21,13,7,4,2021-08-07 12:46:36,719563
0,0,-1,5,7,5,1,-1,2021-08-07 12:46:36,719563
-1,-4,2,-6,-7,-4,-3,-1,2021-08-07 12:46:36,750564
-3,-4,-6,-9,-15,-10,-6,-5,2021-08-07 12:46:36,750564
1,-1,-1,-6,-14,-8,-2,-1,2021-08-07 12:46:36,750564
-4,-7,-7,-13,-21,-15,-8,-6,2021-08-07 12:46:36,750564
-3,-3,-2,3,10,5,2,-2,2021-08-07 12:46:36,750564
7,6,7,22,40,20,11,8,2021-08-07 12:46:36,750564
4,5,6,2,3,2,2,5,2021-08-07 12:46:36,750564
0,-1,-5,-1,-1,-3,-1,1,2021-08-07 12:46:36,751565
