EMG 1,EMG 2,EMG 3,EMG 4,EMG 5,EMG 6,EMG 7,EMG 8,Timestamp,Milliseconds
5,-2,8,14,-11,-6,-1,-1,2021-08-04 12:34:11,249136
0,1,2,9,1,-4,1,-1,2021-08-04 12:34:11,249136
-4,5,7,-15,9,7,1,-1,2021-08-04 12:34:11,254138
-1,1,-4,31,-4,0,1,-3,2021-08-04 12:34:11,254138
1,-4,10,1,-3,-3,-1,0,2021-08-04 12:34:11,254138
-3,-4,20,-5,-5,-5,-1,-2,2021-08-04 12:34:11,254138
-5,4,4,-30,5,3,0,0,2021-08-04 12:34:11,254138
-2,-1,-3,9,1,1,-1,-1,2021-08-04 12:34:11,254138
3,-2,18,-20,-7,-5,0,0,2021-08-04 12:34:11,275139
3,-3,-45,17,-4,-1,-1,0,2021-08-04 12:34:11,275139
-4,2,-13,-20,3,2,0,-1,2021-08-04 12:34:11,275139
-1,1,23,12,0,0,-1,-2,2021-08-04 12:34:11,275139
1,-1,18,23,-3,-3,-2,-1,2021-08-04 12:34:11,284135
1,-2,-9,-30,-1,-1,1,1,2021-08-04 12:34:11,284135
-2,-2,-38,-9,3,3,0,0,2021-08-04 12:34:11,294135
1,-1,3,19,-1,-1,-2,-1,2021-08-04 12:34:11,294135
0,-3,-15,-9,-7,-7,-3,-2,2021-08-04 12:34:11,309135
-1,1,3,5,0,-2,0,1,2021-08-04 12:34:11,309135
-4,-1,11,21,3,2,-1,-4,2021-08-04 12:34:11,309135
-2,-1,17,-28,-3,1,0,-2,2021-08-04 12:34:11,309135
2,9,-10,21,3,1,0,1,2021-08-04 12:34:11,330137
-1,-3,-12,-14,-5,-2,-1,-1,2021-08-04 12:34:11,330137
-2,-2,-7,45,4,0,1,-1,2021-08-04 12:34:11,336138
-2,1,-13,-67,-3,-1,-1,-1,2021-08-04 12:34:11,342138
4,-4,-25,7,-9,-7,0,1,2021-08-04 12:34:11,375137
0,1,-2,-36,-3,-2,1,1,2021-08-04 12:34:11,380141
-5,3,-9,26,5,4,0,-3,2021-08-04 12:34:11,386137
-1,-2,-3,7,-1,0,-2,-1,2021-08-04 12:34:11,386137
2,-1,14,12,-2,-5,-1,-2,2021-08-04 12:34:11,386137
2,2,12,25,1,0,-1,0,2021-08-04 12:34:11,386137
-4,-3,-15,-5,-1,2,0,-2,2021-08-04 12:34:11,386137
-2,0,19,14,0,-1,-1,-3,2021-08-04 12:34:11,386137
2,-6,-27,-29,-5,-3,-2,-1,2021-08-04 12:34:11,386137
-2,-2,21,33,-3,-4,-2,-3,2021-08-04 12:34:11,386137
-4,2,16,-47,1,1,-1,-1,2021-08-04 12:34:11,396136
2,-1,18,20,2,0,-1,0,2021-08-04 12:34:11,396136
2,0,21,5,-3,-3,-1,0,2021-08-04 12:34:11,410136
1,-1,-25,-6,2,1,2,1,2021-08-04 12:34:11,410136
-4,-1,2,24,-1,-1,-4,-1,2021-08-04 12:34:11,419138
-1,1,-13,-10,-3,-2,-3,-1,2021-08-04 12:34:11,432137
0,-2,37,9,-1,-1,0,0,2021-08-04 12:34:11,432137
0,2,-2,-5,0,0,1,-1,2021-08-04 12:34:11,432137
-2,-5,-23,-14,0,1,-1,-2,2021-08-04 12:34:11,439137
0,-4,-16,0,-1,-2,-2,-1,2021-08-04 12:34:11,439137
1,3,-13,5,-4,-3,-1,-2,2021-08-04 12:34:11,447138
-3,-2,7,28,5,0,0,0,2021-08-04 12:34:11,447138
-1,-2,27,-34,-1,-2,-1,-3,2021-08-04 12:34:11,456138
1,-3,-10,-1,-2,-2,-1,0,2021-08-04 12:34:11,456138
1,0,-32,-3,-3,-1,-1,-1,2021-08-04 12:34:11,463137
0,-2,16,-22,-5,-2,1,-1,2021-08-04 12:34:11,469138
-1,7,3,28,7,2,1,-1,2021-08-04 12:34:11,479137
1,0,-20,-51,1,1,1,-1,2021-08-04 12:34:11,479137
0,-5,28,25,-7,-3,-1,-1,2021-08-04 12:34:11,485138
-2,-3,-10,-13,2,-3,-2,0,2021-08-04 12:34:11,485138
-1,-4,4,53,3,1,-1,0,2021-08-04 12:34:11,499138
-1,1,3,-38,-2,-1,0,-1,2021-08-04 12:34:11,499138
-1,-3,1,2,-2,-1,0,0,2021-08-04 12:34:11,506139
-2,-4,-2,-4,-2,-2,-2,-2,2021-08-04 12:34:11,506139
2,1,-15,-9,4,1,0,0,2021-08-04 12:34:11,516138
-1,1,-26,28,-4,-3,0,0,2021-08-04 12:34:11,516138
-2,-3,14,-5,1,0,0,-1,2021-08-04 12:34:11,524139
0,-1,-12,-23,1,0,1,-1,2021-08-04 12:34:11,530183
-1,4,27,16,-1,-1,0,0,2021-08-04 12:34:11,538149
-1,-2,-4,-16,-1,0,0,-2,2021-08-04 12:34:11,538149
1,3,-2,-18,2,-1,-1,1,2021-08-04 12:34:11,545148
-3,4,39,65,-2,-2,-4,-1,2021-08-04 12:34:11,545148
-2,-6,-57,-35,-4,-2,-1,-1,2021-08-04 12:34:11,554150
1,0,22,17,0,1,-1,-1,2021-08-04 12:34:11,554150
1,2,-2,-39,0,-1,0,0,2021-08-04 12:34:11,569149
-4,-4,3,-10,-2,-2,-2,-1,2021-08-04 12:34:11,569149
0,2,6,22,1,-3,1,-2,2021-08-04 12:34:11,582150
-1,1,31,-10,-5,0,0,-1,2021-08-04 12:34:11,582150
-2,-1,-67,7,3,-1,0,0,2021-08-04 12:34:11,582150
4,3,15,18,2,4,1,0,2021-08-04 12:34:11,582150
-2,-3,12,-28,-4,-1,-4,-2,2021-08-04 12:34:11,599149
-1,-1,-5,27,0,-1,1,0,2021-08-04 12:34:11,606149
1,3,39,0,-1,-2,-1,0,2021-08-04 12:34:11,611150
-2,0,-14,13,-1,1,-2,-1,2021-08-04 12:34:11,611150
0,2,-32,-5,-3,0,0,0,2021-08-04 12:34:11,611150
-1,-2,14,-30,1,-2,-3,-2,2021-08-04 12:34:11,611150
-2,-1,-27,-10,-5,0,0,-2,2021-08-04 12:34:11,628150
-2,-5,-8,-24,0,-1,0,-3,2021-08-04 12:34:11,628150
-1,-3,44,32,3,1,-1,-2,2021-08-04 12:34:11,636150
2,2,17,12,-7,-1,-1,-1,2021-08-04 12:34:11,636150
-1,-1,7,-2,-3,-2,-1,-1,2021-08-04 12:34:11,642150
-2,-4,-76,-29,-2,-1,0,1,2021-08-04 12:34:11,648149
1,4,14,6,-1,0,0,-1,2021-08-04 12:34:11,666149
0,0,-13,11,3,1,1,-1,2021-08-04 12:34:11,673149
-1,-2,47,-34,-2,-3,-2,-1,2021-08-04 12:34:11,673149
-1,-2,-37,28,0,0,-1,0,2021-08-04 12:34:11,673149
1,-1,-7,-43,1,0,0,0,2021-08-04 12:34:11,680150
-3,-4,-2,15,-3,-5,-2,1,2021-08-04 12:34:11,680150
-1,-6,14,32,2,0,-1,-1,2021-08-04 12:34:11,689149
0,-1,-2,-15,-1,1,-1,-1,2021-08-04 12:34:11,689149
0,-2,-3,4,1,-1,0,0,2021-08-04 12:34:11,695148
-2,-6,-28,-37,-5,-2,-3,-3,2021-08-04 12:34:11,695148
-2,-1,13,13,-3,-1,-2,-1,2021-08-04 12:34:11,704148
1,2,6,-15,-1,-3,0,-1,2021-08-04 12:34:11,704148
-1,1,-12,12,6,1,-1,-1,2021-08-04 12:34:11,718148
-1,-4,36,2,-6,-3,-1,-4,2021-08-04 12:34:11,718148
0,2,-3,5,2,1,1,2,2021-08-04 12:34:11,731149
-3,1,1,20,1,-1,-1,0,2021-08-04 12:34:11,731149
-3,-3,-22,-54,-6,-2,-1,-2,2021-08-04 12:34:11,741149
1,3,4,24,4,0,0,1,2021-08-04 12:34:11,741149
-1,-1,-39,-22,-4,-2,0,-1,2021-08-04 12:34:11,749150
-3,-2,39,12,1,1,0,-1,2021-08-04 12:34:11,749150
-3,-11,-18,17,-8,-4,0,0,2021-08-04 12:34:11,756149
-1,-1,-15,-12,1,-1,-2,0,2021-08-04 12:34:11,756149
0,2,5,3,-1,1,-1,-2,2021-08-04 12:34:11,763152
-2,-3,27,25,-2,-2,-2,-1,2021-08-04 12:34:11,763152
1,0,-17,-38,-2,2,0,-2,2021-08-04 12:34:11,786146
-2,-3,2,17,0,-2,-1,0,2021-08-04 12:34:11,786146
-3,0,15,2,1,-3,-2,0,2021-08-04 12:34:11,794149
-1,0,-16,-21,1,1,1,-2,2021-08-04 12:34:11,794149
1,1,21,-4,-4,-1,-2,0,2021-08-04 12:34:11,800149
0,-1,-34,9,1,0,-1,2,2021-08-04 12:34:11,800149
-1,1,-43,-24,3,2,0,-2,2021-08-04 12:34:11,809149
-2,-6,40,-6,-5,-4,-2,-2,2021-08-04 12:34:11,809149
2,7,6,17,3,1,1,2,2021-08-04 12:34:11,816149
2,-2,-26,-21,-4,-3,-1,-2,2021-08-04 12:34:11,816149
1,1,-8,5,0,0,0,1,2021-08-04 12:34:11,823149
-2,-5,11,-8,0,-3,-1,-3,2021-08-04 12:34:11,823149
0,0,5,48,0,-1,-2,0,2021-08-04 12:34:11,839150
1,2,19,-55,0,0,0,-1,2021-08-04 12:34:11,839150
-1,-1,12,20,-4,-4,-1,-2,2021-08-04 12:34:11,846146
1,5,-30,-15,-1,2,-1,0,2021-08-04 12:34:11,846146
-1,3,39,20,2,0,0,-1,2021-08-04 12:34:11,860150
0,-4,21,30,-2,-3,0,-2,2021-08-04 12:34:11,860150
1,-2,-47,-27,0,0,-1,-1,2021-08-04 12:34:11,869149
-1,1,-14,-9,-6,-1,1,-1,2021-08-04 12:34:11,869149
-3,0,33,-3,1,-2,0,-1,2021-08-04 12:34:11,874150
1,2,48,7,-2,-1,-2,-1,2021-08-04 12:34:11,880150
-3,-3,-3,42,5,1,0,-1,2021-08-04 12:34:11,880150
1,-5,-6,-1,1,0,0,-1,2021-08-04 12:34:11,880150
-3,-3,-47,-57,-3,-2,-1,-2,2021-08-04 12:34:11,898151
2,1,22,9,-1,-1,-1,0,2021-08-04 12:34:11,898151
-1,-3,24,43,1,-1,-1,0,2021-08-04 12:34:11,905149
-3,0,-33,-36,0,-1,-1,0,2021-08-04 12:34:11,905149
0,-1,11,13,-1,0,-1,1,2021-08-04 12:34:11,920150
-2,-2,-17,-4,-3,0,-1,-1,2021-08-04 12:34:11,920150
2,8,15,-17,1,0,1,1,2021-08-04 12:34:11,928148
-2,-4,-9,-3,3,0,-1,0,2021-08-04 12:34:11,928148
2,-4,2,2,0,0,0,0,2021-08-04 12:34:11,941149
-3,-6,-21,57,-5,-3,-1,0,2021-08-04 12:34:11,941149
-2,-7,1,-80,-6,-3,-1,-3,2021-08-04 12:34:11,941149
-2,4,36,18,4,-1,0,-3,2021-08-04 12:34:11,941149
0,-2,-9,-5,-1,-1,0,1,2021-08-04 12:34:11,958146
0,3,-8,3,5,4,1,-1,2021-08-04 12:34:11,958146
-2,-8,-51,-9,-4,-2,-3,-3,2021-08-04 12:34:11,966182
-1,2,21,18,-3,-2,-1,-1,2021-08-04 12:34:11,966182
0,-2,-9,-21,2,-1,-2,-3,2021-08-04 12:34:11,980150
0,0,-4,6,-2,-1,-1,-1,2021-08-04 12:34:11,980150
-1,3,23,10,-3,-2,-1,0,2021-08-04 12:34:11,988184
-2,-5,5,-11,0,0,0,-1,2021-08-04 12:34:11,988184
-1,0,-44,3,0,-2,1,-1,2021-08-04 12:34:11,996149
1,0,-8,18,-4,-2,0,0,2021-08-04 12:34:11,996149
1,1,8,4,2,2,1,0,2021-08-04 12:34:12,012149
1,3,-6,-10,-2,0,-1,0,2021-08-04 12:34:12,012149
-3,-3,52,37,-6,-3,-2,-3,2021-08-04 12:34:12,012149
1,-1,-29,-37,1,-1,0,0,2021-08-04 12:34:12,012149
-2,-2,24,33,-1,0,-1,-2,2021-08-04 12:34:12,026149
0,3,-9,-15,3,2,-1,-1,2021-08-04 12:34:12,040149
0,-3,-13,-13,-3,1,-1,-2,2021-08-04 12:34:12,040149
-1,1,-12,8,6,-1,-1,-2,2021-08-04 12:34:12,040149
0,-4,-14,12,2,-2,0,2,2021-08-04 12:34:12,049150
-2,2,40,29,-3,-3,-1,1,2021-08-04 12:34:12,049150
1,0,-7,-45,-3,-2,-2,-1,2021-08-04 12:34:12,056148
-1,0,6,5,-4,-2,-1,-1,2021-08-04 12:34:12,056148
0,1,-7,0,-1,1,0,1,2021-08-04 12:34:12,071204
0,-1,11,-1,-1,0,-1,-2,2021-08-04 12:34:12,071204
-2,2,9,50,1,-1,0,1,2021-08-04 12:34:12,078149
-1,-1,0,-58,0,-2,2,0,2021-08-04 12:34:12,078149
-1,-3,-5,-19,-3,1,-2,-1,2021-08-04 12:34:12,085148
0,0,-16,-30,-1,0,-1,-1,2021-08-04 12:34:12,085148
-2,-1,19,41,-3,-1,-1,-3,2021-08-04 12:34:12,101148
0,1,43,42,2,1,-1,1,2021-08-04 12:34:12,107148
-2,-3,-41,-17,-2,-2,-2,0,2021-08-04 12:34:12,107148
-1,-1,-5,-4,-1,0,-2,-3,2021-08-04 12:34:12,107148
0,1,-2,-19,0,-2,-2,0,2021-08-04 12:34:12,120709
0,-4,-11,11,0,-1,0,1,2021-08-04 12:34:12,120709
-1,0,32,13,-2,-1,-1,-2,2021-08-04 12:34:12,130712
0,0,-11,6,-3,1,-3,0,2021-08-04 12:34:12,130712
0,3,10,6,0,-1,-1,2,2021-08-04 12:34:12,137709
1,-1,-12,-14,-2,0,-1,-1,2021-08-04 12:34:12,137709
-2,-1,1,-20,-3,-3,-1,-3,2021-08-04 12:34:12,146713
0,4,-8,6,3,2,1,0,2021-08-04 12:34:12,146713
0,-7,15,-31,-4,-1,-2,-2,2021-08-04 12:34:12,159745
0,3,24,16,-3,0,0,0,2021-08-04 12:34:12,165710
0,0,-16,-13,3,0,0,-2,2021-08-04 12:34:12,165710
-1,0,-20,25,0,0,1,0,2021-08-04 12:34:12,165710
-3,-6,-25,-3,-2,-2,-3,-1,2021-08-04 12:34:12,176748
0,3,21,17,-1,-1,-1,1,2021-08-04 12:34:12,176748
-3,-2,33,-45,-2,-1,-1,0,2021-08-04 12:34:12,190709
-4,-2,-2,-9,-5,-3,-1,1,2021-08-04 12:34:12,190709
2,-1,-25,8,2,0,0,-1,2021-08-04 12:34:12,198709
1,2,-4,-15,-2,1,0,-2,2021-08-04 12:34:12,198709
-2,-3,44,42,0,0,-3,0,2021-08-04 12:34:12,206709
-1,-1,-20,-4,1,-2,-3,0,2021-08-04 12:34:12,206709
1,3,4,-19,-2,0,1,-2,2021-08-04 12:34:12,221707
-1,-3,-8,4,1,-2,-1,0,2021-08-04 12:34:12,221707
2,4,-16,13,-2,-2,0,0,2021-08-04 12:34:12,237707
0,-1,33,-3,2,2,1,0,2021-08-04 12:34:12,237707
-3,-8,-39,3,-6,-6,-1,-2,2021-08-04 12:34:12,237707
0,1,-4,-15,-1,-1,0,1,2021-08-04 12:34:12,243707
-1,-1,-51,-55,-1,0,0,0,2021-08-04 12:34:12,251707
-1,-1,30,4,-5,-3,-2,-2,2021-08-04 12:34:12,251707
-1,1,22,16,1,0,-2,0,2021-08-04 12:34:12,256707
-2,-9,-29,-8,-2,-2,0,0,2021-08-04 12:34:12,256707
0,3,1,20,2,-1,1,0,2021-08-04 12:34:12,265709
2,2,16,22,-1,0,0,0,2021-08-04 12:34:12,265709
0,2,1,0,-3,-1,-1,-1,2021-08-04 12:34:12,281709
-3,-5,-15,-44,-3,-3,-1,-2,2021-08-04 12:34:12,281709
0,-1,2,34,4,3,-1,1,2021-08-04 12:34:12,289709
-2,-4,-26,-13,0,-2,0,-2,2021-08-04 12:34:12,295709
0,1,35,16,0,1,0,0,2021-08-04 12:34:12,295709
-3,-12,-7,-24,-7,-4,-5,-3,2021-08-04 12:34:12,295709
0,1,28,0,-1,0,-1,0,2021-08-04 12:34:12,309710
-2,-6,-49,-5,1,0,0,1,2021-08-04 12:34:12,309710
1,2,5,13,2,0,-1,1,2021-08-04 12:34:12,317710
0,3,13,5,-4,-1,-1,-1,2021-08-04 12:34:12,317710
-1,0,10,0,2,-1,1,-2,2021-08-04 12:34:12,326710
-5,-3,-17,-16,-3,-1,-3,-3,2021-08-04 12:34:12,326710
-2,-3,-4,-6,-5,-3,-3,0,2021-08-04 12:34:12,340224
1,4,-21,-2,4,1,-1,1,2021-08-04 12:34:12,351226
0,-1,14,7,-2,1,-1,-1,2021-08-04 12:34:12,351226
-2,0,-26,-6,5,-2,-1,0,2021-08-04 12:34:12,351226
-2,-7,-14,-12,-1,-1,2,0,2021-08-04 12:34:12,363227
-1,-1,13,16,-1,0,0,0,2021-08-04 12:34:12,363227
0,-1,-10,-1,-4,-2,-2,-2,2021-08-04 12:34:12,371224
2,8,30,2,2,2,-1,0,2021-08-04 12:34:12,377224
-3,-3,-25,-2,-1,-2,-1,-1,2021-08-04 12:34:12,387224
0,-3,-28,14,-3,-1,1,-1,2021-08-04 12:34:12,387224
-4,-2,21,0,-3,-3,-2,-3,2021-08-04 12:34:12,387224
1,-1,-16,-20,0,1,0,0,2021-08-04 12:34:12,387224
-2,3,-18,50,3,2,0,1,2021-08-04 12:34:12,410227
-1,1,-1,-32,-3,-2,-3,-1,2021-08-04 12:34:12,410227
-1,-1,-4,1,0,-2,-1,0,2021-08-04 12:34:12,410227
1,0,7,-5,1,0,1,1,2021-08-04 12:34:12,410227
1,2,7,-8,-1,0,0,0,2021-08-04 12:34:12,423225
-2,-3,12,13,1,0,-2,-2,2021-08-04 12:34:12,423225
0,1,-8,10,1,0,0,-1,2021-08-04 12:34:12,430225
-1,-3,24,2,-5,-3,-2,-2,2021-08-04 12:34:12,430225
2,2,-7,-6,3,0,0,1,2021-08-04 12:34:12,446225
-1,-5,-43,-16,-4,-1,-1,-2,2021-08-04 12:34:12,452225
-3,-7,16,-13,-3,-1,-1,0,2021-08-04 12:34:12,452225
-3,-2,6,22,4,-1,-2,0,2021-08-04 12:34:12,452225
1,1,13,-5,-1,-1,0,-1,2021-08-04 12:34:12,460225
1,-2,7,-8,-1,-4,-2,0,2021-08-04 12:34:12,460225
0,0,-22,12,-1,2,0,0,2021-08-04 12:34:12,468228
-3,-3,5,16,-2,0,0,-2,2021-08-04 12:34:12,468228
-2,-1,12,9,0,-1,-2,-2,2021-08-04 12:34:12,483228
1,2,-3,-26,-4,-2,0,-1,2021-08-04 12:34:12,489225
-1,2,3,-13,2,0,1,0,2021-08-04 12:34:12,495225
-3,-5,-64,-6,-6,-4,-2,-1,2021-08-04 12:34:12,495225
1,3,35,0,-1,2,-1,0,2021-08-04 12:34:12,506225
-2,-5,-4,-5,-2,0,-2,-1,2021-08-04 12:34:12,506225
-1,4,6,38,1,1,-1,0,2021-08-04 12:34:12,506225
-1,-3,0,-24,-1,-2,0,-2,2021-08-04 12:34:12,506225
-1,-1,4,-10,-1,0,0,-1,2021-08-04 12:34:12,520226
1,2,6,16,2,-1,-2,-2,2021-08-04 12:34:12,520226
-2,-6,-41,-20,-4,-2,-1,0,2021-08-04 12:34:12,528225
-3,-2,25,13,-3,-3,-2,0,2021-08-04 12:34:12,528225
2,-2,-10,-28,2,-1,-1,0,2021-08-04 12:34:12,543225
1,3,46,28,-1,1,1,-1,2021-08-04 12:34:12,543225
-1,-1,-28,5,-2,-1,-1,-2,2021-08-04 12:34:12,551225
1,4,2,-11,3,2,0,-1,2021-08-04 12:34:12,551225
-3,-3,-12,17,-5,-3,-2,-2,2021-08-04 12:34:12,567225
-2,-6,18,-3,-3,0,-1,-1,2021-08-04 12:34:12,567225
-2,-3,-21,-12,-1,-2,-1,-1,2021-08-04 12:34:12,567225
1,4,3,0,1,3,1,0,2021-08-04 12:34:12,567225
1,-1,16,1,-4,-2,-1,0,2021-08-04 12:34:12,580227
-1,-3,8,-30,1,-1,2,-1,2021-08-04 12:34:12,580227
-3,-3,-17,47,1,0,-1,-2,2021-08-04 12:34:12,594224
-1,-2,5,-37,-2,-2,0,0,2021-08-04 12:34:12,594224
1,3,-26,-20,1,-1,0,1,2021-08-04 12:34:12,609224
0,2,20,30,-1,-3,-1,-1,2021-08-04 12:34:12,609224
-3,-2,6,7,-6,-3,-4,-2,2021-08-04 12:34:12,609224
1,1,-1,8,-1,1,-1,-2,2021-08-04 12:34:12,609224
-2,-1,-25,-10,-1,-1,-2,-2,2021-08-04 12:34:12,627226
0,2,-7,-24,-2,-1,-1,0,2021-08-04 12:34:12,633224
-1,-5,-15,-10,0,-2,-1,0,2021-08-04 12:34:12,633224
-3,-2,4,4,-4,-1,-2,-1,2021-08-04 12:34:12,633224
0,-1,29,-9,-1,-4,0,-1,2021-08-04 12:34:12,641227
0,-1,-6,22,1,0,-1,-1,2021-08-04 12:34:12,641227
2,3,25,24,1,0,-1,1,2021-08-04 12:34:12,647260
-1,0,-22,-6,1,3,1,0,2021-08-04 12:34:12,647260
-2,-3,-13,-16,-4,-2,-2,-1,2021-08-04 12:34:12,663227
-4,-9,25,-20,-4,-4,-2,-2,2021-08-04 12:34:12,663227
0,1,-29,-8,0,1,-2,0,2021-08-04 12:34:12,670227
-1,0,47,26,0,-1,-2,-1,2021-08-04 12:34:12,670227
1,-1,-10,12,-6,1,-2,-1,2021-08-04 12:34:12,687226
2,1,-11,18,0,0,-1,-3,2021-08-04 12:34:12,693226
0,-1,14,-46,0,0,1,1,2021-08-04 12:34:12,693226
0,-6,-9,-26,0,0,-1,-2,2021-08-04 12:34:12,693226
-3,-3,-3,20,-3,-1,-1,-1,2021-08-04 12:34:12,709227
-2,1,-3,29,-2,-1,-1,-3,2021-08-04 12:34:12,709227
-2,-6,23,-21,-4,-4,-3,-4,2021-08-04 12:34:12,709227
1,5,15,7,1,0,-1,0,2021-08-04 12:34:12,709227
-1,1,15,-14,1,-2,0,-2,2021-08-04 12:34:12,722282
-1,-6,-19,-14,-2,-2,-3,0,2021-08-04 12:34:12,722282
-1,5,33,28,1,1,0,-1,2021-08-04 12:34:12,730227
-1,-1,9,16,-2,-1,-1,0,2021-08-04 12:34:12,730227
1,1,-5,0,2,0,1,0,2021-08-04 12:34:12,752227
3,5,2,10,2,-1,1,1,2021-08-04 12:34:12,752227
-3,-2,-11,-15,-3,-2,0,-2,2021-08-04 12:34:12,752227
0,0,12,-5,-2,-2,-1,-1,2021-08-04 12:34:12,752227
-2,-8,-5,1,-3,-3,-1,-2,2021-08-04 12:34:12,761226
0,3,-1,-5,-1,-2,0,-2,2021-08-04 12:34:12,761226
1,-2,1,20,1,1,1,-1,2021-08-04 12:34:12,769259
-1,1,6,-1,0,-2,-1,-1,2021-08-04 12:34:12,769259
0,-7,-79,-23,-6,-2,-1,0,2021-08-04 12:34:12,783260
-3,-5,25,25,2,-2,-1,1,2021-08-04 12:34:12,783260
-3,-3,-3,-37,-3,-1,-2,-1,2021-08-04 12:34:12,791224
-2,0,1,9,2,0,0,-1,2021-08-04 12:34:12,791224
1,2,-66,-3,0,0,0,1,2021-08-04 12:34:12,805284
1,7,62,45,0,1,0,1,2021-08-04 12:34:12,805284
-4,-3,-41,-48,-3,-5,0,-3,2021-08-04 12:34:12,814226
-1,0,-12,-8,-1,0,1,-2,2021-08-04 12:34:12,814226
0,-1,14,5,3,0,0,1,2021-08-04 12:34:12,820227
0,0,-24,2,-3,1,1,0,2021-08-04 12:34:12,820227
-1,3,28,34,1,1,-2,-1,2021-08-04 12:34:12,828227
-1,-3,-32,-18,-2,-1,-2,-1,2021-08-04 12:34:12,828227
-1,1,29,-20,-1,-2,-2,-3,2021-08-04 12:34:12,842226
0,1,2,0,0,-1,0,0,2021-08-04 12:34:12,848226
-1,-1,-7,15,3,0,0,0,2021-08-04 12:34:12,848226
0,-3,4,6,-3,-1,-1,0,2021-08-04 12:34:12,848226
-2,-1,33,3,-2,-2,-1,-1,2021-08-04 12:34:12,865226
0,0,-22,-3,-1,2,0,-1,2021-08-04 12:34:12,865226
-1,0,-48,-37,-2,1,0,1,2021-08-04 12:34:12,873226
1,-1,-9,-3,1,1,-1,-2,2021-08-04 12:34:12,873226
-1,2,47,3,0,1,-1,0,2021-08-04 12:34:12,887227
0,-4,-65,-26,-1,-2,-1,0,2021-08-04 12:34:12,887227
1,1,40,63,-3,-2,1,-1,2021-08-04 12:34:12,887227
0,-1,-1,-30,-1,-2,-1,-1,2021-08-04 12:34:12,887227
-2,-5,-4,-2,-2,-1,-1,-1,2021-08-04 12:34:12,903226
-1,-2,-24,-35,-4,-3,-4,-1,2021-08-04 12:34:12,903226
2,3,9,21,2,1,0,1,2021-08-04 12:34:12,911226
-3,-2,-24,-5,-5,-2,-1,-2,2021-08-04 12:34:12,911226
1,2,30,14,3,0,1,1,2021-08-04 12:34:12,926226
0,5,19,-1,1,0,0,0,2021-08-04 12:34:12,926226
2,-11,-29,-30,-4,2,0,-1,2021-08-04 12:34:12,930227
-4,0,5,10,-3,-1,-1,-1,2021-08-04 12:34:12,930227
-1,-4,-11,2,-2,-2,-1,-1,2021-08-04 12:34:12,941228
-3,-4,17,17,-3,-3,-1,0,2021-08-04 12:34:12,941228
1,3,-12,-12,3,1,2,0,2021-08-04 12:34:12,954229
0,0,33,46,4,-1,0,-1,2021-08-04 12:34:12,954229
0,-1,-7,-45,-6,-2,-1,-1,2021-08-04 12:34:12,969229
-2,-1,22,-11,-2,0,1,0,2021-08-04 12:34:12,969229
-3,-1,11,0,2,-2,-1,0,2021-08-04 12:34:12,969229
-2,-5,-15,4,1,-1,-2,-1,2021-08-04 12:34:12,969229
0,-1,-4,25,-2,-2,-1,-1,2021-08-04 12:34:12,985229
0,1,5,-4,1,-2,-1,-2,2021-08-04 12:34:12,990230
1,2,24,-24,0,0,-1,1,2021-08-04 12:34:12,997229
0,1,-16,-7,-2,0,0,-1,2021-08-04 12:34:12,997229
-1,3,24,45,-1,-1,-2,0,2021-08-04 12:34:12,997229
-3,-7,-7,-39,-4,-2,-1,-2,2021-08-04 12:34:12,997229
0,3,-20,11,2,1,1,-1,2021-08-04 12:34:13,009228
0,-1,-13,8,-1,-2,-1,-1,2021-08-04 12:34:13,009228
0,-1,24,-41,-4,-1,-2,-2,2021-08-04 12:34:13,023229
-1,-5,-4,-22,-1,-1,-1,-1,2021-08-04 12:34:13,030229
-1,0,-3,37,-1,-1,2,0,2021-08-04 12:34:13,030229
-1,-2,38,-7,0,-1,-2,-2,2021-08-04 12:34:13,030229
-1,0,-45,-2,0,0,1,-1,2021-08-04 12:34:13,054228
0,0,-21,12,0,2,2,0,2021-08-04 12:34:13,054228
0,-4,24,-15,5,1,-2,-2,2021-08-04 12:34:13,054228
1,-1,0,21,-5,-3,-3,1,2021-08-04 12:34:13,054228
1,-3,-2,12,13,3,1,-1,2021-08-04 12:34:13,059229
-1,2,-5,-6,-9,-5,-3,-1,2021-08-04 12:34:13,059229
-4,-7,2,58,3,-2,-2,-2,2021-08-04 12:34:13,068229
0,2,-14,-89,-10,-4,1,-1,2021-08-04 12:34:13,074228
0,3,3,11,2,1,-2,0,2021-08-04 12:34:13,089228
-2,0,-13,7,1,-2,-2,0,2021-08-04 12:34:13,089228
-2,2,23,-6,3,4,1,2,2021-08-04 12:34:13,089228
-2,-10,-17,38,-1,0,-2,-3,2021-08-04 12:34:13,095225
-2,-15,-6,-25,-8,-7,-1,-2,2021-08-04 12:34:13,112224
1,12,-5,28,5,1,-1,0,2021-08-04 12:34:13,112224
0,-9,-6,6,-3,0,-1,-1,2021-08-04 12:34:13,112224
-3,-8,-33,-27,-1,-2,-2,-2,2021-08-04 12:34:13,112224
2,9,40,-5,2,1,1,1,2021-08-04 12:34:13,130224
-3,-14,-75,-3,-5,0,-3,-2,2021-08-04 12:34:13,130224
-1,3,19,-20,-2,-4,-4,0,2021-08-04 12:34:13,143229
2,5,1,2,4,1,1,1,2021-08-04 12:34:13,143229
-1,8,1,8,-3,-3,-2,-1,2021-08-04 12:34:13,150230
-2,-14,33,6,-1,-1,0,-1,2021-08-04 12:34:13,150230
2,6,2,-20,-3,1,0,0,2021-08-04 12:34:13,150230
0,1,-29,-22,-1,-1,1,-1,2021-08-04 12:34:13,150230
-2,5,14,25,-3,-1,-1,-1,2021-08-04 12:34:13,165229
-1,-10,9,-5,3,-1,0,1,2021-08-04 12:34:13,171226
0,1,-10,-44,-3,-3,-1,-1,2021-08-04 12:34:13,171226
2,0,14,35,4,1,0,0,2021-08-04 12:34:13,171226
1,5,-27,15,-3,0,1,0,2021-08-04 12:34:13,188829
0,-6,11,-16,1,2,0,-1,2021-08-04 12:34:13,188829
-1,4,7,16,1,0,-1,-2,2021-08-04 12:34:13,188829
-1,-6,-28,25,1,0,-1,0,2021-08-04 12:34:13,188829
-3,-6,1,-49,-3,-3,-3,-1,2021-08-04 12:34:13,202809
0,-2,19,34,1,0,-1,5,2021-08-04 12:34:13,208809
0,6,-8,-5,-3,-3,-2,3,2021-08-04 12:34:13,214810
-1,6,21,1,3,2,-1,-12,2021-08-04 12:34:13,214810
5,-4,13,4,-3,1,-1,6,2021-08-04 12:34:13,225810
-2,3,1,19,0,-3,-1,-2,2021-08-04 12:34:13,225810
4,-2,-15,-34,0,3,-1,2,2021-08-04 12:34:13,232810
-3,5,36,8,-1,1,0,-4,2021-08-04 12:34:13,232810
-1,-9,-57,27,0,1,-2,5,2021-08-04 12:34:13,248810
-3,-4,-4,-68,-2,0,-2,-2,2021-08-04 12:34:13,248810
15,1,24,13,-6,-4,-3,-4,2021-08-04 12:34:13,248810
-40,3,-2,-1,-2,-3,-2,-2,2021-08-04 12:34:13,248810
-7,-17,14,24,-3,-3,1,-4,2021-08-04 12:34:13,262810
-9,4,-7,11,2,-1,0,-2,2021-08-04 12:34:13,262810
8,-5,-27,-9,-3,-4,-4,9,2021-08-04 12:34:13,269810
3,-5,22,-37,-5,-2,2,5,2021-08-04 12:34:13,269810
-3,6,9,22,-1,-3,-1,-4,2021-08-04 12:34:13,291810
-4,6,-9,13,-1,0,-1,-1,2021-08-04 12:34:13,291810
2,-4,9,-51,-2,-1,0,2,2021-08-04 12:34:13,301810
1,-1,-7,27,-4,-3,-3,-19,2021-08-04 12:34:13,301810
18,3,5,15,-1,-4,1,6,2021-08-04 12:34:13,308810
-30,-3,0,-11,1,1,1,-12,2021-08-04 12:34:13,314813
2,1,-16,31,-1,1,1,10,2021-08-04 12:34:13,319845
26,2,-1,-47,-6,-6,3,13,2021-08-04 12:34:13,319845
-22,-3,-4,-28,-1,-1,-2,-9,2021-08-04 12:34:13,319845
12,-3,15,38,2,2,3,4,2021-08-04 12:34:13,319845
-17,2,-26,-27,1,2,-3,-13,2021-08-04 12:34:13,329811
1,-5,20,15,-7,-4,-5,2,2021-08-04 12:34:13,329811
8,7,14,0,-1,-1,1,1,2021-08-04 12:34:13,345812
-3,7,-7,-48,1,2,-3,2,2021-08-04 12:34:13,345812
-8,-8,11,24,1,1,-2,-6,2021-08-04 12:34:13,353812
22,3,-3,31,-3,-2,-1,7,2021-08-04 12:34:13,353812
13,0,-13,-57,0,0,-1,2,2021-08-04 12:34:13,367847
-63,-3,11,38,-1,-1,-2,-38,2021-08-04 12:34:13,367847
4,-3,-9,12,2,0,0,-7,2021-08-04 12:34:13,367847
-5,0,11,8,-5,-3,0,6,2021-08-04 12:34:13,367847
12,-2,-19,-4,2,0,-1,17,2021-08-04 12:34:13,383868
21,2,1,36,0,2,3,2,2021-08-04 12:34:13,383868
-9,-1,6,-44,0,1,-1,-15,2021-08-04 12:34:13,390811
-16,-3,3,-7,-5,-4,-6,20,2021-08-04 12:34:13,390811
1,1,-20,-2,1,0,-3,-7,2021-08-04 12:34:13,406811
8,-3,-9,-1,2,1,-2,1,2021-08-04 12:34:13,406811
-11,5,21,26,0,0,0,6,2021-08-04 12:34:13,414811
19,4,-58,49,0,-1,2,-3,2021-08-04 12:34:13,414811
-16,-6,15,-44,-8,-4,-2,2,2021-08-04 12:34:13,428811
9,2,-28,-23,7,1,-2,-16,2021-08-04 12:34:13,428811
38,1,43,32,-2,1,4,18,2021-08-04 12:34:13,435809
-51,6,16,10,-2,-3,-3,-16,2021-08-04 12:34:13,435809
13,-6,-4,30,2,0,1,8,2021-08-04 12:34:13,457810
4,-2,-4,-50,3,1,-2,6,2021-08-04 12:34:13,457810
3,1,-49,-5,-1,1,0,5,2021-08-04 12:34:13,457810
18,3,16,14,-1,0,1,5,2021-08-04 12:34:13,457810
-16,8,-17,16,1,1,-1,-14,2021-08-04 12:34:13,465812
7,-12,53,-10,-2,-1,-4,10,2021-08-04 12:34:13,465812
-4,-5,-58,-11,-5,-2,-1,-19,2021-08-04 12:34:13,473811
13,-9,-2,0,0,-2,1,8,2021-08-04 12:34:13,473811
-19,9,-1,10,-4,-3,-16,14,2021-08-04 12:34:13,496812
21,4,-35,-29,2,3,14,-13,2021-08-04 12:34:13,502812
-6,5,24,-12,-2,-3,1,-1,2021-08-04 12:34:13,502812
7,-6,2,-8,-1,0,-2,9,2021-08-04 12:34:13,502812
7,-5,-5,7,1,1,33,-25,2021-08-04 12:34:13,508811
10,-2,9,-2,2,1,-23,1,2021-08-04 12:34:13,508811
-54,-7,14,16,-2,-2,-3,-5,2021-08-04 12:34:13,508811
12,-6,-14,-35,-1,0,-1,3,2021-08-04 12:34:13,508811
9,-12,47,6,0,-1,3,4,2021-08-04 12:34:13,524813
-17,20,-49,3,-1,0,4,5,2021-08-04 12:34:13,524813
12,-11,66,13,-6,-4,-2,-12,2021-08-04 12:34:13,532869
9,-3,-21,-15,0,-3,-1,1,2021-08-04 12:34:13,532869
-14,-3,-2,-13,1,1,-2,-5,2021-08-04 12:34:13,550811
7,-1,0,42,0,0,2,2,2021-08-04 12:34:13,550811
5,10,-31,-35,-4,-4,-9,9,2021-08-04 12:34:13,556840
-4,3,26,-5,-4,-2,1,-11,2021-08-04 12:34:13,556840
0,-10,-26,8,0,-2,-4,-7,2021-08-04 12:34:13,572811
0,0,2,14,0,0,0,7,2021-08-04 12:34:13,572811
18,23,41,-29,5,2,4,4,2021-08-04 12:34:13,572811
-16,-29,8,0,-4,-1,-1,-10,2021-08-04 12:34:13,572811
2,-11,-13,-4,-1,-1,-4,-6,2021-08-04 12:34:13,592811
1,3,1,-7,-5,-2,0,9,2021-08-04 12:34:13,592811
4,-5,2,17,-1,-2,0,1,2021-08-04 12:34:13,592811
7,17,12,8,-1,-1,-1,-7,2021-08-04 12:34:13,592811
-9,4,2,-16,2,0,-3,4,2021-08-04 12:34:13,615808
0,-5,-5,-8,1,3,0,-2,2021-08-04 12:34:13,615808
-5,-9,6,20,2,0,-2,-2,2021-08-04 12:34:13,615808
-4,-9,-53,-14,-4,-3,-5,-4,2021-08-04 12:34:13,615808
-3,-4,26,20,-6,-8,-4,0,2021-08-04 12:34:13,639809
0,-1,21,-42,-3,1,2,2,2021-08-04 12:34:13,646809
1,3,-9,11,5,3,1,-2,2021-08-04 12:34:13,646809
2,1,15,7,1,1,1,1,2021-08-04 12:34:13,646809
5,6,19,-8,-2,-1,-2,-2,2021-08-04 12:34:13,646809
-14,-2,-49,8,-3,-4,-1,0,2021-08-04 12:34:13,646809
-6,-11,-8,0,-2,-3,-4,-2,2021-08-04 12:34:13,653810
2,1,26,-9,0,-1,0,2,2021-08-04 12:34:13,653810
0,4,3,10,0,3,0,-7,2021-08-04 12:34:13,668810
3,1,13,0,2,0,1,6,2021-08-04 12:34:13,668810
-1,-2,-13,14,-3,-3,0,1,2021-08-04 12:34:13,668810
-4,-7,-12,-16,-2,-2,-2,-5,2021-08-04 12:34:13,674843
3,8,5,3,3,3,-1,5,2021-08-04 12:34:13,682810
0,3,0,-11,-3,-2,-3,0,2021-08-04 12:34:13,682810
3,-9,-15,1,-2,-2,-1,-5,2021-08-04 12:34:13,690869
-2,0,33,4,-4,-2,0,3,2021-08-04 12:34:13,690869
-14,5,-49,4,-1,0,-3,3,2021-08-04 12:34:13,704844
-1,-17,24,4,1,1,0,-10,2021-08-04 12:34:13,704844
1,3,-9,-4,-1,1,-2,7,2021-08-04 12:34:13,713845
8,4,28,-7,-1,-1,-1,-11,2021-08-04 12:34:13,713845
29,-2,-51,-13,-3,-1,-3,14,2021-08-04 12:34:13,729845
-23,6,33,14,0,-1,2,-3,2021-08-04 12:34:13,729845
-1,-3,-18,-3,-3,0,0,3,2021-08-04 12:34:13,729845
3,2,-31,6,4,0,0,-6,2021-08-04 12:34:13,729845
4,-2,10,-4,1,-2,-3,-6,2021-08-04 12:34:13,743811
6,-6,14,-3,-5,-2,-2,7,2021-08-04 12:34:13,743811
-3,-2,-54,11,-2,-3,-1,-2,2021-08-04 12:34:13,764867
-2,2,-17,-7,-7,-1,-1,1,2021-08-04 12:34:13,764867
-13,-8,16,-2,6,1,0,-7,2021-08-04 12:34:13,764867
5,4,-9,16,3,1,0,4,2021-08-04 12:34:13,764867
-5,-6,-11,0,-1,-2,-1,-5,2021-08-04 12:34:13,773866
-1,-2,-36,-5,-1,0,-4,-3,2021-08-04 12:34:13,773866
-3,1,-12,-22,-4,1,1,16,2021-08-04 12:34:13,789813
-2,-4,4,2,-2,-1,-3,-43,2021-08-04 12:34:13,789813
5,8,49,10,1,-1,2,0,2021-08-04 12:34:13,795811
-2,-5,-18,-6,-3,-3,-2,2,2021-08-04 12:34:13,795811
-7,-6,-52,-32,-4,1,-3,-2,2021-08-04 12:34:13,803812
-1,-3,8,-4,0,-5,-2,7,2021-08-04 12:34:13,803812
1,7,-28,-5,0,0,-1,-2,2021-08-04 12:34:13,811812
-6,-4,14,-5,-2,-2,-3,-4,2021-08-04 12:34:13,817811
-4,3,31,25,2,1,1,-5,2021-08-04 12:34:13,833812
7,4,-63,9,-3,-3,-1,11,2021-08-04 12:34:13,838812
-10,-17,-26,-17,-6,-2,-3,-7,2021-08-04 12:34:13,838812
0,7,23,9,4,1,2,6,2021-08-04 12:34:13,838812
-2,-9,3,-12,-4,-4,0,-12,2021-08-04 12:34:13,849848
11,12,-7,16,1,0,0,12,2021-08-04 12:34:13,849848
-2,1,37,-14,-4,0,0,-5,2021-08-04 12:34:13,849848
1,-7,-18,-15,7,1,0,8,2021-08-04 12:34:13,849848
-5,1,68,9,-5,-3,-2,-4,2021-08-04 12:34:13,863812
-6,-16,-63,-31,-7,-3,-3,-2,2021-08-04 12:34:13,869812
2,4,30,33,2,-1,-1,3,2021-08-04 12:34:13,869812
0,5,36,-10,-3,-1,0,-3,2021-08-04 12:34:13,869812
1,0,-17,11,2,3,1,-1,2021-08-04 12:34:13,893812
-2,1,-26,0,5,1,-1,4,2021-08-04 12:34:13,893812
-1,-3,-14,-12,-2,1,1,-1,2021-08-04 12:34:13,893812
-2,-3,20,-21,-2,-1,-2,-3,2021-08-04 12:34:13,893812
-1,-3,48,16,1,-3,-3,0,2021-08-04 12:34:13,908845
3,1,-2,4,-2,1,2,7,2021-08-04 12:34:13,908845
3,-3,6,2,4,1,-2,-6,2021-08-04 12:34:13,924809
3,16,12,33,-1,-1,-1,3,2021-08-04 12:34:13,924809
-4,-10,-48,-22,-2,-1,-2,-7,2021-08-04 12:34:13,924809
1,1,-33,-7,1,1,0,9,2021-08-04 12:34:13,924809
1,-11,-2,-20,-7,-3,-3,-4,2021-08-04 12:34:13,948812
7,1,14,29,1,-4,-2,0,2021-08-04 12:34:13,948812
2,-1,-71,-23,-5,-1,-1,6,2021-08-04 12:34:13,948812
3,-1,1,-5,1,1,0,1,2021-08-04 12:34:13,948812
-3,-3,4,2,1,-1,1,0,2021-08-04 12:34:13,948812
2,1,-4,2,0,0,-1,-5,2021-08-04 12:34:13,954813
-2,12,41,23,0,1,-1,-2,2021-08-04 12:34:13,969812
-8,-7,16,-13,-2,-3,-4,-5,2021-08-04 12:34:13,969812
1,4,34,-13,0,-1,0,-1,2021-08-04 12:34:13,983812
-9,-7,11,8,-3,-1,-1,3,2021-08-04 12:34:13,983812
11,4,47,8,-4,-4,-1,1,2021-08-04 12:34:13,983812
-17,-10,-10,-2,2,0,-2,-9,2021-08-04 12:34:13,983812
-9,1,45,-5,-3,-3,-2,7,2021-08-04 12:34:13,991812
22,-6,-45,6,5,4,2,4,2021-08-04 12:34:13,997810
-29,-8,2,-6,-8,-5,1,11,2021-08-04 12:34:14,005812
10,-11,11,-10,-6,-5,-1,-6,2021-08-04 12:34:14,005812
2,-1,-18,4,0,1,-2,9,2021-08-04 12:34:14,011814
4,6,43,1,-2,-1,-1,-2,2021-08-04 12:34:14,011814
9,2,8,6,2,1,-1,-3,2021-08-04 12:34:14,028372
-3,9,17,4,2,1,-1,-4,2021-08-04 12:34:14,034372
-7,2,3,5,2,3,3,5,2021-08-04 12:34:14,039372
-8,-6,-52,7,-2,-2,-2,-8,2021-08-04 12:34:14,039372
-2,-5,27,-17,-2,-3,-3,2,2021-08-04 12:34:14,039372
3,7,11,-3,0,0,1,1,2021-08-04 12:34:14,039372
-3,-8,-26,-4,-9,-6,-1,-5,2021-08-04 12:34:14,052373
-7,4,29,15,3,1,-1,-2,2021-08-04 12:34:14,052373
-4,-2,-61,-18,1,0,-1,1,2021-08-04 12:34:14,066370
7,4,34,5,4,4,0,3,2021-08-04 12:34:14,066370
22,15,-18,13,1,1,-1,-2,2021-08-04 12:34:14,073369
-44,-6,26,-20,-4,-2,-3,-16,2021-08-04 12:34:14,079373
15,-14,-7,0,-1,-2,0,-1,2021-08-04 12:34:14,089373
-4,8,27,16,2,0,0,-4,2021-08-04 12:34:14,089373
1,-10,17,-6,1,1,-1,-6,2021-08-04 12:34:14,103370
7,12,-2,-23,-3,0,4,-2,2021-08-04 12:34:14,103370
-7,-3,-17,-6,-1,-1,-2,1,2021-08-04 12:34:14,113371
2,10,35,22,-2,-1,-2,13,2021-08-04 12:34:14,119371
-12,1,6,12,1,-2,-2,-19,2021-08-04 12:34:14,125371
3,-5,-21,-1,2,0,1,5,2021-08-04 12:34:14,131373
0,7,26,5,-1,-1,-2,-10,2021-08-04 12:34:14,131373
7,-7,-12,0,-5,-3,0,0,2021-08-04 12:34:14,131373
2,-9,-27,-12,-4,-2,0,15,2021-08-04 12:34:14,147373
-38,-2,-5,-1,-3,-2,-3,-32,2021-08-04 12:34:14,147373
9,5,-19,16,7,5,1,-6,2021-08-04 12:34:14,147373
-4,1,10,-3,-3,-4,-1,3,2021-08-04 12:34:14,147373
13,10,34,4,0,0,1,5,2021-08-04 12:34:14,155374
10,-5,-17,-9,-3,-3,-3,6,2021-08-04 12:34:14,155374
-3,7,2,22,-1,0,-1,-1,2021-08-04 12:34:14,171369
-10,-4,27,-9,4,0,1,-6,2021-08-04 12:34:14,171369
-9,-4,-24,9,0,-1,-1,-7,2021-08-04 12:34:14,171369
11,-8,-38,-7,2,2,-2,5,2021-08-04 12:34:14,171369
-11,5,-5,1,-4,-2,-3,9,2021-08-04 12:34:14,187369
9,-7,-14,-8,-7,-5,-3,-43,2021-08-04 12:34:14,187369
-2,6,21,8,1,0,0,4,2021-08-04 12:34:14,187369
5,-4,-20,8,1,3,4,8,2021-08-04 12:34:14,187369
13,1,-39,-20,-4,-2,-6,0,2021-08-04 12:34:14,215369
-8,1,-6,8,0,1,1,3,2021-08-04 12:34:14,215369
-2,2,-14,-4,4,-1,1,1,2021-08-04 12:34:14,215369
13,-9,-25,-17,-6,-2,-4,-4,2021-08-04 12:34:14,215369
-43,1,17,4,-1,-2,1,-11,2021-08-04 12:34:14,231370
3,-2,11,0,-1,0,-1,8,2021-08-04 12:34:14,231370
-2,6,38,1,-3,-3,-2,-7,2021-08-04 12:34:14,237369
8,7,9,3,4,0,1,10,2021-08-04 12:34:14,237369
2,-8,-19,18,1,1,1,-9,2021-08-04 12:34:14,247372
-3,-1,25,-10,-5,-1,-3,7,2021-08-04 12:34:14,247372
-9,-8,5,-16,-4,-2,-2,-9,2021-08-04 12:34:14,247372
9,17,29,5,-2,-1,-2,24,2021-08-04 12:34:14,247372
7,-26,-5,-1,0,1,0,-33,2021-08-04 12:34:14,268371
-11,7,1,2,0,-4,-2,4,2021-08-04 12:34:14,268371
-6,-14,29,1,-3,-3,-1,4,2021-08-04 12:34:14,274405
-5,-2,-26,-11,-3,-3,-1,-5,2021-08-04 12:34:14,274405
4,7,9,-15,0,0,1,5,2021-08-04 12:34:14,291373
2,1,-6,7,-3,0,-1,6,2021-08-04 12:34:14,297428
1,7,1,-6,-2,-1,-1,-3,2021-08-04 12:34:14,297428
-1,-3,19,18,-1,0,-1,-1,2021-08-04 12:34:14,302429
14,-3,-18,-33,2,-1,0,8,2021-08-04 12:34:14,302429
-24,1,-12,-5,-1,-2,-1,-8,2021-08-04 12:34:14,302429
-2,-8,-36,2,-5,-4,-5,-1,2021-08-04 12:34:14,315493
-1,-3,1,-4,-4,-2,-2,-8,2021-08-04 12:34:14,315493
1,-4,17,3,5,4,2,6,2021-08-04 12:34:14,329439
11,8,16,12,0,2,0,-2,2021-08-04 12:34:14,329439
5,7,42,0,-2,0,-1,0,2021-08-04 12:34:14,335438
-7,-17,-13,-11,0,-3,-2,0,2021-08-04 12:34:14,335438
6,12,4,-4,-5,-1,-2,0,2021-08-04 12:34:14,351438
14,-7,-13,6,-1,-1,0,4,2021-08-04 12:34:14,351438
-14,13,22,-18,0,0,0,0,2021-08-04 12:34:14,351438
5,8,-19,4,-2,-1,-1,-6,2021-08-04 12:34:14,351438
-1,-9,-5,14,2,-1,0,-1,2021-08-04 12:34:14,367436
9,0,33,-6,2,0,-2,-1,2021-08-04 12:34:14,367436
2,7,-1,3,0,2,0,1,2021-08-04 12:34:14,367436
-6,-12,16,-14,-4,-3,-1,-5,2021-08-04 12:34:14,367436
-4,4,-3,3,-4,-2,0,4,2021-08-04 12:34:14,389493
0,11,-9,-2,2,1,1,17,2021-08-04 12:34:14,389493
3,-4,23,7,2,-3,-2,-30,2021-08-04 12:34:14,395439
-3,1,-38,-2,2,2,-2,6,2021-08-04 12:34:14,395439
-3,-7,-51,7,-4,-4,-3,-3,2021-08-04 12:34:14,410542
-1,-9,11,-11,-3,-1,-1,3,2021-08-04 12:34:14,417537
-1,-5,14,0,-2,0,0,12,2021-08-04 12:34:14,417537
-1,7,8,1,0,1,-2,-4,2021-08-04 12:34:14,423592
16,9,12,20,0,0,1,4,2021-08-04 12:34:14,423592
-37,-5,21,-30,-1,-4,-4,-14,2021-08-04 12:34:14,423592
2,-6,-28,-2,-2,0,-2,7,2021-08-04 12:34:14,433537
-1,-8,-13,-7,-6,-3,1,-4,2021-08-04 12:34:14,439536
-2,2,-2,-4,4,0,1,0,2021-08-04 12:34:14,447537
2,3,22,5,-4,-1,1,2,2021-08-04 12:34:14,447537
1,-8,-56,21,-1,1,-1,-2,2021-08-04 12:34:14,455537
-6,-10,-8,-30,-6,-4,-4,-1,2021-08-04 12:34:14,455537
0,4,8,6,0,-1,-1,-5,2021-08-04 12:34:14,476538
6,1,-67,14,0,1,2,0,2021-08-04 12:34:14,481540
-5,-13,26,-19,-1,-2,-1,1,2021-08-04 12:34:14,487539
4,8,5,33,-4,-4,1,-2,2021-08-04 12:34:14,487539
-4,2,-8,-23,-3,-1,-1,1,2021-08-04 12:34:14,487539
3,-1,11,7,-1,-1,-1,-3,2021-08-04 12:34:14,487539
3,10,-18,15,2,2,2,4,2021-08-04 12:34:14,487539
-4,-14,16,-16,1,-2,-3,-2,2021-08-04 12:34:14,487539
-3,-1,-25,13,2,2,-1,12,2021-08-04 12:34:14,525538
-1,-7,-19,8,1,-2,-2,-28,2021-08-04 12:34:14,525538
3,4,3,-5,-3,-1,0,7,2021-08-04 12:34:14,525538
-3,-1,3,13,4,3,1,2,2021-08-04 12:34:14,525538
1,1,10,-7,-4,0,0,-4,2021-08-04 12:34:14,526540
2,-11,-28,-9,-3,-2,-1,3,2021-08-04 12:34:14,526540
0,3,55,6,-1,-1,1,0,2021-08-04 12:34:14,537541
0,0,5,2,5,1,-2,-3,2021-08-04 12:34:14,537541
-1,5,-15,-16,-1,-1,1,4,2021-08-04 12:34:14,547542
3,0,40,8,-4,-2,0,12,2021-08-04 12:34:14,547542
-5,-7,-23,-13,-3,-4,-6,-7,2021-08-04 12:34:14,547542
0,4,-1,-13,-1,0,0,5,2021-08-04 12:34:14,547542
-1,0,11,4,-2,1,-1,-5,2021-08-04 12:34:14,568538
3,8,3,6,2,1,3,4,2021-08-04 12:34:14,568538
-4,-5,29,11,-2,-3,-1,-4,2021-08-04 12:34:14,576539
1,-6,-36,0,-3,1,1,-4,2021-08-04 12:34:14,576539
-2,-3,27,-6,-3,-4,-3,1,2021-08-04 12:34:14,592542
-4,-9,-45,-11,-1,0,-1,-3,2021-08-04 12:34:14,592542
4,-1,15,14,2,2,3,9,2021-08-04 12:34:14,592542
-1,3,1,-34,1,-3,-2,-1,2021-08-04 12:34:14,592542
2,10,-1,37,1,0,-1,-4,2021-08-04 12:34:14,605537
4,-11,-22,-13,-3,-2,-1,15,2021-08-04 12:34:14,605537
-4,1,27,-6,-4,-3,-4,-19,2021-08-04 12:34:14,619537
-2,-3,12,14,-4,-1,-2,-5,2021-08-04 12:34:14,619537
-5,-7,21,-15,1,-2,0,-4,2021-08-04 12:34:14,628537
-1,2,-7,1,-2,-3,-1,-5,2021-08-04 12:34:14,628537
16,-5,-11,-31,-1,-1,-2,10,2021-08-04 12:34:14,636537
-27,2,4,9,1,1,1,1,2021-08-04 12:34:14,636537
-2,-3,16,-8,-3,-2,-3,-4,2021-08-04 12:34:14,651537
2,5,16,14,4,3,0,-2,2021-08-04 12:34:14,651537
1,-3,-43,-8,-3,0,2,-8,2021-08-04 12:34:14,657540
8,5,5,11,-2,-3,-2,21,2021-08-04 12:34:14,657540
-2,-10,53,-15,-9,-7,-7,-3,2021-08-04 12:34:14,666539
-3,0,18,-14,5,-1,0,-1,2021-08-04 12:34:14,666539
-5,0,1,15,-1,4,2,1,2021-08-04 12:34:14,672587
6,3,-9,12,6,4,-2,11,2021-08-04 12:34:14,672587
-5,-2,-10,-6,-4,0,-1,-17,2021-08-04 12:34:14,688538
3,-4,-23,3,-3,-3,-2,-3,2021-08-04 12:34:14,688538
-3,1,45,-15,-4,-2,-2,4,2021-08-04 12:34:14,694540
2,4,-19,36,0,-1,1,-7,2021-08-04 12:34:14,694540
15,-1,17,-39,-2,-1,-1,1,2021-08-04 12:34:14,712540
-34,-2,33,-1,-1,-1,-2,5,2021-08-04 12:34:14,712540
-2,6,-36,1,2,-2,-2,-3,2021-08-04 12:34:14,712540
1,-2,29,7,-1,0,-1,-6,2021-08-04 12:34:14,712540
2,1,-40,10,0,0,0,2,2021-08-04 12:34:14,725540
7,-3,-18,1,-3,-2,-2,4,2021-08-04 12:34:14,725540
-8,-4,-9,-25,-1,-2,-2,2,2021-08-04 12:34:14,732539
6,2,24,-4,0,0,0,-3,2021-08-04 12:34:14,732539
-8,-5,20,12,1,1,1,-1,2021-08-04 12:34:14,749539
3,2,25,-5,-1,0,-3,-7,2021-08-04 12:34:14,755539
-3,-6,20,3,0,-5,-5,-2,2021-08-04 12:34:14,755539
3,4,-17,14,-3,-4,-1,-5,2021-08-04 12:34:14,755539
-1,-1,-26,-32,0,-1,0,-1,2021-08-04 12:34:14,772539
2,1,9,10,-3,-2,-1,-7,2021-08-04 12:34:14,772539
5,-2,-13,6,2,3,2,2,2021-08-04 12:34:14,772539
4,0,36,0,2,2,0,-1,2021-08-04 12:34:14,772539
11,-5,-22,-13,-4,-4,1,10,2021-08-04 12:34:14,782541
-7,-6,-21,1,-2,-3,-3,-28,2021-08-04 12:34:14,783545
6,2,-27,0,0,-2,-2,3,2021-08-04 12:34:14,794539
-1,0,22,-3,0,1,1,9,2021-08-04 12:34:14,794539
0,4,-12,-5,-5,2,0,-44,2021-08-04 12:34:14,809539
6,-1,29,-5,4,-2,0,12,2021-08-04 12:34:14,809539
-10,-11,-28,0,-4,-3,-3,-14,2021-08-04 12:34:14,809539
1,-2,-6,0,-1,-1,-1,-4,2021-08-04 12:34:14,809539
-10,-3,-4,17,3,1,9,12,2021-08-04 12:34:14,831577
5,5,-16,-23,-3,2,-3,8,2021-08-04 12:34:14,831577
4,4,27,10,1,-1,-2,-20,2021-08-04 12:34:14,837543
-36,-6,-59,-12,-5,-4,-7,6,2021-08-04 12:34:14,849543
0,-1,-5,6,3,0,-15,22,2021-08-04 12:34:14,849543
1,-2,49,14,1,1,9,-11,2021-08-04 12:34:14,849543
9,1,-26,-1,1,-1,0,18,2021-08-04 12:34:14,856543
10,2,14,-16,-5,-1,-1,-15,2021-08-04 12:34:14,856791
-9,4,62,21,0,-2,3,11,2021-08-04 12:34:14,875122
-3,-8,-68,-21,-4,-2,-4,6,2021-08-04 12:34:14,875122
-2,1,80,7,3,0,-4,-2,2021-08-04 12:34:14,875122
15,0,-7,-11,-1,-1,5,-3,2021-08-04 12:34:14,875122
-22,-1,-8,8,-1,-1,-2,-4,2021-08-04 12:34:14,891164
10,0,26,0,-4,-5,-11,1,2021-08-04 12:34:14,891164
5,-2,-26,-6,-5,-2,27,-10,2021-08-04 12:34:14,898120
-37,0,11,10,3,1,-2,34,2021-08-04 12:34:14,898120
4,1,-24,-7,3,0,-1,-34,2021-08-04 12:34:14,914121
0,-2,-22,-15,-1,0,-3,0,2021-08-04 12:34:14,914121
-8,-2,42,31,-5,0,-2,13,2021-08-04 12:34:14,914121
12,-3,-44,-13,1,-3,-1,-1,2021-08-04 12:34:14,914121
3,-5,2,3,-3,0,1,1,2021-08-04 12:34:14,930126
-3,3,2,13,3,0,5,2,2021-08-04 12:34:14,930126
5,4,-19,9,2,2,-1,-8,2021-08-04 12:34:14,942122
5,-3,56,-16,-2,0,1,-21,2021-08-04 12:34:14,949119
-2,-2,-9,-3,0,-3,-4,16,2021-08-04 12:34:14,949119
-2,1,26,-1,-1,-2,-2,-3,2021-08-04 12:34:14,949119
-5,-2,-54,0,-1,-2,-4,6,2021-08-04 12:34:14,959119
13,-1,-14,4,-1,0,-12,-8,2021-08-04 12:34:14,959119
-13,3,-10,-5,3,1,0,22,2021-08-04 12:34:14,965118
-2,2,45,35,-3,1,4,-31,2021-08-04 12:34:14,971119
-1,-7,-11,-24,0,-1,-2,16,2021-08-04 12:34:14,971119
1,8,8,-5,4,1,-9,3,2021-08-04 12:34:14,971119
5,-10,-21,-5,-5,-4,11,-2,2021-08-04 12:34:14,987153
3,2,26,4,-5,-3,-5,16,2021-08-04 12:34:14,987153
-9,-1,-46,-4,-3,0,7,-6,2021-08-04 12:34:14,995119
13,2,-7,-7,-2,-1,-4,-6,2021-08-04 12:34:14,995119
5,3,28,25,4,1,-3,-1,2021-08-04 12:34:15,012117
-2,-2,-106,-15,-2,-1,-1,5,2021-08-04 12:34:15,012117
2,-6,-17,-16,-2,1,-5,-8,2021-08-04 12:34:15,012117
7,0,41,3,5,3,8,7,2021-08-04 12:34:15,012117
-7,-1,-1,21,-4,-2,-11,-14,2021-08-04 12:34:15,033176
11,1,16,-10,-2,-1,-2,4,2021-08-04 12:34:15,033176
-7,0,10,-3,-2,-3,0,-2,2021-08-04 12:34:15,033176
-12,-9,53,11,-5,-2,1,-22,2021-08-04 12:34:15,033176
-3,2,29,11,0,-1,12,29,2021-08-04 12:34:15,048119
7,1,-31,-16,0,2,-39,-1,2021-08-04 12:34:15,048119
9,-2,13,-1,0,-2,5,-3,2021-08-04 12:34:15,056119
-3,3,-29,11,2,2,4,7,2021-08-04 12:34:15,056119
1,-5,-28,-40,-2,-3,-6,-25,2021-08-04 12:34:15,072119
3,-3,58,9,-6,0,17,19,2021-08-04 12:34:15,072119
-8,-4,-61,-35,1,-2,-15,-22,2021-08-04 12:34:15,072119
3,0,8,9,-3,-1,-13,-7,2021-08-04 12:34:15,072119
-1,-2,-59,11,-2,0,25,10,2021-08-04 12:34:15,095119
7,6,52,-9,2,1,19,3,2021-08-04 12:34:15,095119
-8,-1,28,14,2,3,-11,-5,2021-08-04 12:34:15,095119
-4,-4,-29,-11,-4,-5,3,10,2021-08-04 12:34:15,095119
8,2,41,18,-2,-3,-9,-7,2021-08-04 12:34:15,107119
0,-6,-18,-4,-1,-4,7,-7,2021-08-04 12:34:15,107119
-13,0,24,8,-1,0,3,1,2021-08-04 12:34:15,122119
-5,1,-47,-20,-2,-4,-3,8,2021-08-04 12:34:15,122119
3,-1,4,11,-1,-1,-50,12,2021-08-04 12:34:15,130120
-20,-9,-52,-34,-2,1,37,-17,2021-08-04 12:34:15,130120
7,2,58,4,-1,-2,-18,-1,2021-08-04 12:34:15,145119
4,-3,-23,10,-5,-2,-13,-6,2021-08-04 12:34:15,145119
21,2,23,22,11,7,21,23,2021-08-04 12:34:15,153119
-49,-6,-30,-26,-3,-5,-12,-26,2021-08-04 12:34:15,153119
21,7,9,16,3,1,0,8,2021-08-04 12:34:15,159119
2,-6,-31,-27,-4,-2,2,1,2021-08-04 12:34:15,159119
-5,6,30,3,-1,1,4,2,2021-08-04 12:34:15,174119
4,-4,-15,20,-1,0,-9,26,2021-08-04 12:34:15,176119
3,-5,-30,-4,-2,-3,12,13,2021-08-04 12:34:15,176119
-11,0,53,22,-4,-3,-3,-22,2021-08-04 12:34:15,182119
-5,-10,-50,-29,-3,-1,4,-14,2021-08-04 12:34:15,191119
16,7,57,13,4,-1,-10,-1,2021-08-04 12:34:15,191119
-13,1,-9,-7,0,0,1,6,2021-08-04 12:34:15,204119
-4,-6,-45,-2,1,0,0,-8,2021-08-04 12:34:15,204119
4,3,0,-17,-2,-1,0,-19,2021-08-04 12:34:15,215119
-2,-1,0,12,1,-2,10,-4,2021-08-04 12:34:15,215119
-1,-1,1,0,0,0,-1,11,2021-08-04 12:34:15,221120
-21,-1,12,12,2,2,3,-25,2021-08-04 12:34:15,221120
11,1,-28,-7,-3,-2,10,-6,2021-08-04 12:34:15,228119
-27,4,10,15,-2,-1,-10,15,2021-08-04 12:34:15,228119
5,1,-30,-31,6,0,-2,-1,2021-08-04 12:34:15,235119
7,1,54,-3,3,3,-1,-5,2021-08-04 12:34:15,235119
-14,-11,-84,-13,-8,-7,-22,-51,2021-08-04 12:34:15,251119
2,-1,23,2,-2,-3,-5,18,2021-08-04 12:34:15,257120
10,-3,-58,6,-3,2,-5,18,2021-08-04 12:34:15,257120
32,3,20,-1,1,0,12,21,2021-08-04 12:34:15,257120
-71,1,40,1,0,-1,6,18,2021-08-04 12:34:15,275119
3,0,-28,-1,1,-2,-16,-68,2021-08-04 12:34:15,275119
-8,3,16,19,-4,0,14,-11,2021-08-04 12:34:15,275119
9,-2,-9,-17,2,-2,1,21,2021-08-04 12:34:15,275119
12,1,22,21,-4,-3,3,2,2021-08-04 12:34:15,287119
5,-8,-76,-53,-1,-1,1,9,2021-08-04 12:34:15,287119
-7,2,50,0,-3,-4,-14,2,2021-08-04 12:34:15,296119
-7,-2,54,1,-1,-1,8,-3,2021-08-04 12:34:15,302119
2,3,89,3,3,2,-34,-17,2021-08-04 12:34:15,311119
12,-2,-28,6,-1,0,-13,31,2021-08-04 12:34:15,311119
17,0,-30,22,1,-3,9,-18,2021-08-04 12:34:15,318118
-6,1,14,-22,-3,-2,-12,6,2021-08-04 12:34:15,318118
-2,-4,-1,-6,-2,-2,26,17,2021-08-04 12:34:15,334119
13,2,-2,-3,1,1,-6,2,2021-08-04 12:34:15,334119
-7,-1,49,1,-4,-3,-6,3,2021-08-04 12:34:15,334119
4,-7,-48,20,-2,-2,5,11,2021-08-04 12:34:15,334119
13,3,-10,-16,5,1,-1,-12,2021-08-04 12:34:15,347120
7,3,35,13,2,2,22,11,2021-08-04 12:34:15,353120
-13,-1,0,4,1,2,22,-6,2021-08-04 12:34:15,353120
-9,2,13,-24,-3,2,-9,-41,2021-08-04 12:34:15,353120
13,-5,-5,19,-6,-3,-5,33,2021-08-04 12:34:15,379119
-1,-7,19,-21,-5,-5,7,-28,2021-08-04 12:34:15,379119
-5,-2,-15,18,1,1,-16,-5,2021-08-04 12:34:15,385120
6,8,-6,20,6,2,8,17,2021-08-04 12:34:15,385120
-11,-2,33,-31,-8,-4,1,-26,2021-08-04 12:34:15,393119
4,-2,-32,13,6,3,5,11,2021-08-04 12:34:15,393119
-2,-1,-9,-5,0,0,16,2,2021-08-04 12:34:15,400119
-3,0,22,38,-1,-1,12,-26,2021-08-04 12:34:15,400119
-8,0,-70,-43,-1,0,-9,20,2021-08-04 12:34:15,409119
20,6,95,-2,0,0,3,-1,2021-08-04 12:34:15,409119
-1,-13,-64,0,-12,-6,-36,3,2021-08-04 12:34:15,422119
-13,-1,-6,25,5,0,-4,8,2021-08-04 12:34:15,422119
26,5,29,34,-2,-1,15,5,2021-08-04 12:34:15,432120
-13,0,55,11,4,-1,-6,-8,2021-08-04 12:34:15,432120
2,0,-105,-28,5,3,-15,-26,2021-08-04 12:34:15,432120
-18,-6,-4,14,-16,-6,19,10,2021-08-04 12:34:15,432120
-26,4,-8,-18,7,2,-14,-29,2021-08-04 12:34:15,455119
2,-6,-27,11,-8,-3,-11,-50,2021-08-04 12:34:15,461119
6,7,23,6,5,4,21,42,2021-08-04 12:34:15,461119
0,-2,-70,-46,0,-4,-17,0,2021-08-04 12:34:15,461119
7,-2,4,-19,0,1,0,3,2021-08-04 12:34:15,469119
-9,0,-15,34,-6,-3,8,-2,2021-08-04 12:34:15,469119
-4,0,51,16,6,0,-2,0,2021-08-04 12:34:15,475119
12,5,1,12,-2,1,17,-1,2021-08-04 12:34:15,475119
-2,-11,27,-16,0,-2,-34,6,2021-08-04 12:34:15,491119
2,0,-72,-56,-1,2,5,25,2021-08-04 12:34:15,491119
-4,-8,-18,-24,-9,-6,-8,-5,2021-08-04 12:34:15,504119
-1,3,97,13,-3,-4,-13,7,2021-08-04 12:34:15,504119
1,-2,-19,33,-5,-5,16,-10,2021-08-04 12:34:15,513118
23,5,-6,14,3,1,-7,-6,2021-08-04 12:34:15,513118
-54,0,-16,-3,6,6,-16,36,2021-08-04 12:34:15,513118
19,-3,-20,-14,2,2,-12,-24,2021-08-04 12:34:15,513118
7,4,27,12,4,1,16,15,2021-08-04 12:34:15,529118
-11,-1,4,20,-4,-5,-11,13,2021-08-04 12:34:15,529118
11,2,17,-2,1,-2,19,-24,2021-08-04 12:34:15,536121
-5,-6,-37,-78,-4,-2,-5,7,2021-08-04 12:34:15,536121
4,4,12,17,5,5,-11,4,2021-08-04 12:34:15,551118
1,-4,-11,-49,-7,-4,4,9,2021-08-04 12:34:15,551118
-3,-7,63,4,-6,-8,-7,-14,2021-08-04 12:34:15,558121
-7,-1,-2,20,4,2,9,1,2021-08-04 12:34:15,558121
-1,-7,89,6,-3,-4,-12,-14,2021-08-04 12:34:15,574119
-3,-3,-21,-35,-4,1,23,-2,2021-08-04 12:34:15,580120
35,7,8,17,3,1,0,-19,2021-08-04 12:34:15,580120
-22,-7,-11,2,-3,-5,-8,4,2021-08-04 12:34:15,592119
3,2,33,1,1,1,12,17,2021-08-04 12:34:15,592119
-1,4,23,24,6,-2,-8,10,2021-08-04 12:34:15,592119
8,2,16,-4,-1,4,-15,1,2021-08-04 12:34:15,592119
10,1,7,2,-2,-2,14,3,2021-08-04 12:34:15,592119
11,0,-49,-8,3,3,8,25,2021-08-04 12:34:15,618119
-35,-7,-20,19,-6,-2,2,-1,2021-08-04 12:34:15,618119
3,4,8,-4,-2,-2,2,5,2021-08-04 12:34:15,618119
-9,-2,-17,22,4,-1,-6,-2,2021-08-04 12:34:15,625119
-6,-10,-19,-92,-10,-2,16,7,2021-08-04 12:34:15,634119
12,7,13,56,3,2,-26,12,2021-08-04 12:34:15,634119
13,2,-21,-8,1,-2,24,-16,2021-08-04 12:34:15,634119
-11,2,12,6,-2,2,-10,20,2021-08-04 12:34:15,634119
-3,4,-47,20,1,-3,1,-11,2021-08-04 12:34:15,648120
2,-6,-11,-7,2,0,-1,0,2021-08-04 12:34:15,648120
-8,-3,18,-8,-1,1,8,-12,2021-08-04 12:34:15,656119
26,4,-5,9,4,0,-9,5,2021-08-04 12:34:15,656119
0,-2,-5,3,-3,0,33,-15,2021-08-04 12:34:15,687119
-2,-2,3,7,1,-1,-19,34,2021-08-04 12:34:15,687119
-18,-5,12,7,-6,-4,3,-18,2021-08-04 12:34:15,687119
5,-2,-11,-9,-5,-6,-8,-9,2021-08-04 12:34:15,687119
-6,4,-14,2,7,6,-5,-6,2021-08-04 12:34:15,693119
0,-1,5,-7,4,4,25,47,2021-08-04 12:34:15,693119
10,-2,16,16,0,1,-27,-16,2021-08-04 12:34:15,693119
-1,-2,-18,-9,-4,-4,-5,0,2021-08-04 12:34:15,693119
-26,-3,49,9,-5,-8,-22,-6,2021-08-04 12:34:15,717119
7,4,-98,-1,2,1,4,-4,2021-08-04 12:34:15,717119
-6,-14,-66,-21,-13,-8,-9,9,2021-08-04 12:34:15,717119
-6,2,35,38,0,-1,5,-5,2021-08-04 12:34:15,717119
6,-2,-43,20,-2,-2,-2,3,2021-08-04 12:34:15,731119
10,4,19,16,0,-1,-1,-24,2021-08-04 12:34:15,731119
-21,1,0,-48,6,4,12,7,2021-08-04 12:34:15,738116
-1,-1,-4,-6,-1,1,2,-10,2021-08-04 12:34:15,738116
5,-4,-10,13,-3,-2,0,-5,2021-08-04 12:34:15,753119
-4,1,27,-7,-2,-3,-4,-17,2021-08-04 12:34:15,753119
24,2,-8,0,3,2,-3,2,2021-08-04 12:34:15,759119
-9,-6,4,7,-7,-1,6,-8,2021-08-04 12:34:15,759119
4,2,25,4,0,-2,3,13,2021-08-04 12:34:15,767120
-8,-6,-3,-22,-3,-1,0,-21,2021-08-04 12:34:15,767120
1,6,11,17,1,0,6,33,2021-08-04 12:34:15,775118
-3,0,2,-9,3,3,-7,-4,2021-08-04 12:34:15,775118
11,-3,-33,-20,-4,-2,3,3,2021-08-04 12:34:15,797120
-14,-3,64,28,-3,-3,-11,-16,2021-08-04 12:34:15,797120
-5,-1,-78,-21,-4,-3,-5,-1,2021-08-04 12:34:15,797120
-3,-2,28,-7,2,0,19,8,2021-08-04 12:34:15,797120
4,-2,18,23,1,-2,-20,4,2021-08-04 12:34:15,813119
8,-4,-92,-4,-1,6,16,15,2021-08-04 12:34:15,813119
-6,-4,47,-8,1,-2,-15,-34,2021-08-04 12:34:15,820119
-5,2,15,56,-5,-5,-12,-1,2021-08-04 12:34:15,820119
-3,-3,-63,-36,1,2,0,-10,2021-08-04 12:34:15,829120
-4,-1,56,-7,0,-1,-2,2,2021-08-04 12:34:15,829120
-8,-1,54,76,-4,-3,7,7,2021-08-04 12:34:15,835119
10,3,-52,-87,3,1,-3,-9,2021-08-04 12:34:15,835119
0,-3,16,8,-3,-2,-3,-13,2021-08-04 12:34:15,856117
-4,2,36,4,1,-2,-1,-5,2021-08-04 12:34:15,856117
26,5,-1,35,6,1,1,5,2021-08-04 12:34:15,856117
-26,-4,-12,-15,2,1,2,-13,2021-08-04 12:34:15,856117
-21,-2,12,4,1,3,-5,34,2021-08-04 12:34:15,873119
5,1,49,29,-5,-4,-4,-15,2021-08-04 12:34:15,873119
-2,-13,21,-45,-11,-6,3,2,2021-08-04 12:34:15,886118
6,-2,30,-41,-1,0,-2,10,2021-08-04 12:34:15,892119
5,6,-43,-27,-1,0,2,-19,2021-08-04 12:34:15,892119
2,0,35,48,-1,-4,-2,-2,2021-08-04 12:34:15,892119
-11,-3,-65,-10,-1,-6,-25,39,2021-08-04 12:34:15,904119
2,2,19,-22,1,2,17,-14,2021-08-04 12:34:15,904119
2,-10,-54,-8,2,3,8,5,2021-08-04 12:34:15,917119
6,6,5,44,-1,0,-15,-24,2021-08-04 12:34:15,917119
-3,1,17,-19,-2,1,7,-1,2021-08-04 12:34:15,917119
4,-1,9,21,2,-5,-6,22,2021-08-04 12:34:15,917119
29,6,3,10,-1,-1,6,-6,2021-08-04 12:34:15,933119
-6,-4,37,5,-2,-3,-7,-23,2021-08-04 12:34:15,933119
-3,-3,-65,-19,-5,-2,5,-3,2021-08-04 12:34:15,940120
-2,0,-1,12,2,1,6,-11,2021-08-04 12:34:15,940120
10,5,118,28,-1,-4,-6,-3,2021-08-04 12:34:15,947122
-6,-9,-80,-55,-3,-2,32,12,2021-08-04 12:34:15,947122
-7,4,30,33,3,3,-2,-8,2021-08-04 12:34:15,956120
5,-5,4,-31,-4,-3,-23,13,2021-08-04 12:34:15,956120
-4,1,19,10,1,-1,-3,-18,2021-08-04 12:34:15,970120
-3,-5,-19,-20,-1,-2,0,1,2021-08-04 12:34:15,970120
-3,1,29,-79,-1,0,11,8,2021-08-04 12:34:15,986119
7,-2,-18,50,-1,0,-5,-14,2021-08-04 12:34:15,986119
-35,-3,15,0,-7,-1,-4,-5,2021-08-04 12:34:16,000119
11,3,11,-15,4,0,-3,22,2021-08-04 12:34:16,000119
1,1,5,-5,0,2,2,-38,2021-08-04 12:34:16,000119
5,0,-37,9,2,0,-6,6,2021-08-04 12:34:16,000119
-3,-4,-34,-3,-1,-2,7,-6,2021-08-04 12:34:16,022119
10,3,-13,-11,1,0,-4,-3,2021-08-04 12:34:16,022119
-16,-5,-10,39,-2,-3,-8,23,2021-08-04 12:34:16,022119
21,3,52,-7,-1,1,4,-33,2021-08-04 12:34:16,022119
0,-6,-39,14,-1,-2,-5,8,2021-08-04 12:34:16,028118
-10,-2,-18,-22,-7,-4,1,-8,2021-08-04 12:34:16,028118
-4,4,41,32,3,-2,-20,-49,2021-08-04 12:34:16,038119
-2,-5,-12,-36,-1,-1,-2,22,2021-08-04 12:34:16,038119
8,3,38,25,1,3,3,10,2021-08-04 12:34:16,052121
1,-3,-21,-11,1,0,-23,-30,2021-08-04 12:34:16,052121
1,5,10,4,-1,-3,11,9,2021-08-04 12:34:16,061119
3,-1,-10,2,3,1,6,9,2021-08-04 12:34:16,061119
-2,2,25,23,1,-1,-27,-32,2021-08-04 12:34:16,077121
-5,-2,-44,-32,-4,1,8,28,2021-08-04 12:34:16,083121
9,-4,-21,-11,3,3,6,12,2021-08-04 12:34:16,083121
-10,-2,40,23,-4,-2,-14,-5,2021-08-04 12:34:16,090122
-2,-9,-18,-39,-5,-4,9,-1,2021-08-04 12:34:16,090122
16,3,18,12,2,-1,-2,16,2021-08-04 12:34:16,090122
-27,-6,54,11,-2,0,2,-35,2021-08-04 12:34:16,097122
-20,-5,-46,-17,-3,-1,-3,14,2021-08-04 12:34:16,097122
-5,3,11,32,4,1,1,3,2021-08-04 12:34:16,119119
9,-2,35,-33,-6,-1,1,7,2021-08-04 12:34:16,119119
6,0,53,-10,1,-1,-12,-17,2021-08-04 12:34:16,119119
0,3,-79,18,0,-1,16,3,2021-08-04 12:34:16,119119
3,0,24,-18,-3,-1,0,2,2021-08-04 12:34:16,137120
-13,-1,14,-9,1,1,5,11,2021-08-04 12:34:16,137120
10,-3,-58,19,-2,-1,9,8,2021-08-04 12:34:16,137120
-8,-1,-1,-11,-1,-1,-9,7,2021-08-04 12:34:16,137120
-7,-3,-34,-2,0,-1,11,0,2021-08-04 12:34:16,150120
-6,0,62,-5,3,-1,-9,-8,2021-08-04 12:34:16,156119
0,-1,-13,-30,-3,-1,10,15,2021-08-04 12:34:16,156119
15,-1,-45,20,-2,2,-1,-17,2021-08-04 12:34:16,156119
-6,1,36,-13,-1,0,-5,18,2021-08-04 12:34:16,173119
3,-2,-34,29,-4,-4,-4,-11,2021-08-04 12:34:16,173119
-9,6,-1,12,7,6,2,-6,2021-08-04 12:34:16,188119
-6,-5,4,-17,-7,-4,6,-4,2021-08-04 12:34:16,188119
6,-1,43,1,-5,-3,-3,-2,2021-08-04 12:34:16,197119
-9,-5,-61,12,-3,-1,-9,-2,2021-08-04 12:34:16,197119
11,1,-18,-6,3,1,25,10,2021-08-04 12:34:16,197119
-4,3,16,15,3,2,-28,22,2021-08-04 12:34:16,203120
-2,1,16,2,-4,-3,-3,-65,2021-08-04 12:34:16,210119
19,0,-15,-1,-4,-3,6,9,2021-08-04 12:34:16,210119
-36,-5,-2,16,-1,-3,-2,28,2021-08-04 12:34:16,217119
7,1,12,4,2,-2,11,-5,2021-08-04 12:34:16,217119
-1,-2,-13,-3,-4,-2,-18,7,2021-08-04 12:34:16,232122
-5,-4,26,-22,3,2,5,11,2021-08-04 12:34:16,232122
27,0,17,13,-3,-2,-4,-9,2021-08-04 12:34:16,248659
-9,3,12,14,1,1,3,-7,2021-08-04 12:34:16,248659
1,1,-15,-15,-2,0,-2,11,2021-08-04 12:34:16,255659
-5,4,-70,11,3,2,15,-1,2021-08-04 12:34:16,255659
5,-4,34,-53,-6,-3,-1,4,2021-08-04 12:34:16,255659
-6,-5,90,14,-3,-4,-14,-9,2021-08-04 12:34:16,261654
3,2,-39,-2,1,3,12,2,2021-08-04 12:34:16,271660
-3,-2,-20,11,2,1,-5,10,2021-08-04 12:34:16,271660
-26,2,24,14,-2,-3,-11,-13,2021-08-04 12:34:16,277656
7,-3,-38,-16,-3,1,21,-2,2021-08-04 12:34:16,277656
-2,0,-43,0,6,1,-9,8,2021-08-04 12:34:16,293657
-7,2,71,35,-2,1,-24,-12,2021-08-04 12:34:16,293657
10,-1,-72,-19,1,2,0,11,2021-08-04 12:34:16,307656
-3,-3,-18,-24,-2,1,8,0,2021-08-04 12:34:16,313656
-4,-6,31,-14,-3,-2,3,6,2021-08-04 12:34:16,313656
3,-3,6,1,-2,-2,1,-8,2021-08-04 12:34:16,313656
16,-2,-3,5,-3,-2,-4,15,2021-08-04 12:34:16,313656
-36,-3,46,20,1,-1,-19,-21,2021-08-04 12:34:16,313656
12,1,4,-3,1,2,5,5,2021-08-04 12:34:16,329658
-2,-5,14,-32,-2,-1,-4,1,2021-08-04 12:34:16,329658
1,1,10,-3,-4,-4,7,3,2021-08-04 12:34:16,345660
8,3,-20,3,1,2,16,7,2021-08-04 12:34:16,345660
8,-2,-35,-36,0,-3,-7,46,2021-08-04 12:34:16,351659
-42,-2,-4,35,-3,-4,-13,-20,2021-08-04 12:34:16,351659
8,1,-19,0,-2,1,-9,-8,2021-08-04 12:34:16,360659
14,-1,22,-9,0,-1,2,15,2021-08-04 12:34:16,360659
-13,1,25,14,0,0,-1,-12,2021-08-04 12:34:16,375657
11,3,-3,-4,2,-2,7,-1,2021-08-04 12:34:16,375657
1,-3,-31,-1,-1,-2,-1,13,2021-08-04 12:34:16,375657
-13,-4,43,12,0,2,-3,-40,2021-08-04 12:34:16,375657
7,-3,-18,-12,-5,-3,-4,6,2021-08-04 12:34:16,390657
0,-1,31,3,-1,-1,-8,6,2021-08-04 12:34:16,390657
-3,0,44,-9,0,-2,-3,-2,2021-08-04 12:34:16,398656
9,-3,-95,-20,-3,-2,2,1,2021-08-04 12:34:16,398656
-4,1,42,37,-1,-3,-6,-6,2021-08-04 12:34:16,411657
15,-1,5,-36,-2,-1,7,-7,2021-08-04 12:34:16,411657
-33,0,35,17,-3,-2,-3,-26,2021-08-04 12:34:16,419657
5,1,-15,-29,2,0,-1,10,2021-08-04 12:34:16,419657
0,1,27,30,1,0,-8,1,2021-08-04 12:34:16,435657
-6,-4,-57,-1,0,-1,-1,-11,2021-08-04 12:34:16,441657
10,1,-7,18,-1,1,8,9,2021-08-04 12:34:16,441657
0,0,14,-3,-1,0,-9,15,2021-08-04 12:34:16,441657
-2,1,-19,2,-1,0,-7,-16,2021-08-04 12:34:16,449824
3,-1,10,1,-1,-1,7,-29,2021-08-04 12:34:16,456824
1,1,-43,-11,6,1,-9,-7,2021-08-04 12:34:16,456824
3,-5,13,-1,-10,-9,3,20,2021-08-04 12:34:16,462832
-14,-1,-19,6,0,-3,10,1,2021-08-04 12:34:16,471844
-2,-1,62,6,-4,0,-11,2,2021-08-04 12:34:16,471844
-1,-1,-47,-11,1,-1,1,20,2021-08-04 12:34:16,479855
-6,2,54,17,0,-3,-6,-27,2021-08-04 12:34:16,479855
21,0,-5,-15,-4,0,-2,5,2021-08-04 12:34:16,497859
-39,-1,-35,7,6,2,8,6,2021-08-04 12:34:16,497859
1,0,-25,1,-2,-1,-10,-8,2021-08-04 12:34:16,497859
2,-1,-32,-6,-1,1,9,2,2021-08-04 12:34:16,504858
-7,-6,-34,-19,-5,-5,-3,-1,2021-08-04 12:34:16,504858
3,4,34,2,-2,1,-21,3,2021-08-04 12:34:16,504858
16,-4,26,-5,3,0,6,-17,2021-08-04 12:34:16,518879
-13,-3,16,10,-6,-7,1,7,2021-08-04 12:34:16,518879
6,2,-11,-9,4,1,-8,-3,2021-08-04 12:34:16,533865
8,0,1,-2,0,2,20,2,2021-08-04 12:34:16,533865
1,-1,-37,-7,-2,-2,-4,4,2021-08-04 12:34:16,541865
2,-1,-29,11,0,1,2,-2,2021-08-04 12:34:16,541865
-5,-3,42,-14,-5,-2,3,12,2021-08-04 12:34:16,561875
13,5,7,18,1,0,-7,-14,2021-08-04 12:34:16,561875
1,2,69,-7,-3,1,4,10,2021-08-04 12:34:16,561875
1,-4,-67,3,0,-5,-7,-1,2021-08-04 12:34:16,561875
4,1,12,7,3,0,6,4,2021-08-04 12:34:16,575887
-14,-2,-8,6,-4,-5,9,1,2021-08-04 12:34:16,581899
-1,-4,-87,-15,-3,2,2,10,2021-08-04 12:34:16,581899
-2,1,53,-10,-2,-2,-7,-15,2021-08-04 12:34:16,581899
-9,3,22,13,5,5,1,-4,2021-08-04 12:34:16,593149
15,-7,-3,-27,-7,-1,12,4,2021-08-04 12:34:16,593149
-6,-3,37,8,5,0,-3,-9,2021-08-04 12:34:16,609148
-1,-5,-37,-9,-5,-2,10,6,2021-08-04 12:34:16,609148
8,-1,-60,22,0,-1,-1,-2,2021-08-04 12:34:16,616148
2,0,44,-44,-4,-3,7,1,2021-08-04 12:34:16,616148
-9,2,-30,11,-1,0,2,5,2021-08-04 12:34:16,616148
6,1,1,26,1,2,-2,2,2021-08-04 12:34:16,616148
-7,-3,-7,-3,-2,-4,5,-6,2021-08-04 12:34:16,629187
2,0,1,3,2,3,-7,3,2021-08-04 12:34:16,629187
-1,-7,-18,-14,-5,-2,-6,-4,2021-08-04 12:34:16,637170
-1,4,11,-5,0,-2,-3,-19,2021-08-04 12:34:16,637170
15,-1,4,-13,-1,0,14,-9,2021-08-04 12:34:16,652170
-4,-1,11,28,7,2,-6,21,2021-08-04 12:34:16,652170
4,-8,-88,-32,-5,-2,1,-17,2021-08-04 12:34:16,661170
-1,3,47,-25,3,2,3,12,2021-08-04 12:34:16,661170
1,-2,4,4,-4,-1,-8,10,2021-08-04 12:34:16,676170
-1,-2,-37,1,-3,-4,-3,-5,2021-08-04 12:34:16,682170
-3,2,38,20,3,0,-12,3,2021-08-04 12:34:16,682170
-3,-2,-3,30,1,2,11,-5,2021-08-04 12:34:16,682170
2,-4,11,-14,-7,-2,-24,10,2021-08-04 12:34:16,690170
-11,-1,-53,-11,0,-3,-4,-6,2021-08-04 12:34:16,690170
0,1,29,8,0,0,-5,-3,2021-08-04 12:34:16,698172
0,2,-16,-3,0,-3,-10,1,2021-08-04 12:34:16,704172
-3,1,34,-2,2,1,10,5,2021-08-04 12:34:16,714172
-3,-4,44,17,-3,-2,-7,6,2021-08-04 12:34:16,714172
1,-7,-68,-12,-1,-2,-10,-9,2021-08-04 12:34:16,720170
19,5,76,-1,1,1,7,8,2021-08-04 12:34:16,726170
-49,-5,-15,14,-3,-4,7,-9,2021-08-04 12:34:16,741169
7,-1,-38,-8,-2,0,-1,1,2021-08-04 12:34:16,741169
1,3,89,11,2,-3,1,2,2021-08-04 12:34:16,741169
2,-2,-28,-15,1,0,0,-1,2021-08-04 12:34:16,741169
3,0,-41,-8,-3,1,-2,-1,2021-08-04 12:34:16,756214
2,-1,20,7,0,-1,0,-3,2021-08-04 12:34:16,761258
-2,3,36,19,2,0,8,5,2021-08-04 12:34:16,761258
-7,-2,-29,2,-5,2,-3,0,2021-08-04 12:34:16,761258
6,-1,-12,-1,5,1,1,-5,2021-08-04 12:34:16,772234
6,0,-11,-33,-2,-3,7,16,2021-08-04 12:34:16,772234
-13,-2,75,25,-5,-2,2,2,2021-08-04 12:34:16,780245
0,0,-20,-5,0,-3,-19,14,2021-08-04 12:34:16,780245
-8,-2,17,-5,-3,3,-1,-19,2021-08-04 12:34:16,795320
9,-1,2,-3,0,-2,16,7,2021-08-04 12:34:16,795320
14,1,-36,17,1,-1,-4,24,2021-08-04 12:34:16,803370
-46,1,51,6,-1,-2,-16,-36,2021-08-04 12:34:16,809360
1,-2,-45,-44,-3,-4,-2,6,2021-08-04 12:34:16,809360
-2,1,-24,5,0,1,-9,1,2021-08-04 12:34:16,809360
-1,-4,-40,-12,-2,-2,8,2,2021-08-04 12:34:16,817346
7,-4,10,6,5,3,17,5,2021-08-04 12:34:16,817346
5,0,-19,22,0,2,4,-7,2021-08-04 12:34:16,833355
-6,-2,43,-33,-7,-4,-6,-9,2021-08-04 12:34:16,839356
0,-1,-15,1,-5,-4,11,-6,2021-08-04 12:34:16,839356
6,-3,-16,-9,2,1,0,-3,2021-08-04 12:34:16,839356
0,4,32,-2,-3,-3,3,8,2021-08-04 12:34:16,855981
8,-1,28,23,1,-4,-9,2,2021-08-04 12:34:16,855981
-24,1,-3,-6,2,6,2,-4,2021-08-04 12:34:16,863983
15,0,-16,-9,-1,1,-1,2,2021-08-04 12:34:16,863983
5,0,73,16,-1,1,13,18,2021-08-04 12:34:16,875980
12,0,-43,-3,-2,-2,-14,-31,2021-08-04 12:34:16,875980
0,-5,-10,-20,-5,-5,-4,-6,2021-08-04 12:34:16,875980
3,2,-11,-38,-1,1,1,-6,2021-08-04 12:34:16,875980
0,-2,-45,6,1,0,-8,23,2021-08-04 12:34:16,892980
3,5,101,36,1,2,4,6,2021-08-04 12:34:16,892980
2,-3,-36,-13,-1,1,-4,-8,2021-08-04 12:34:16,905995
-4,-6,-6,-13,-5,-5,-2,1,2021-08-04 12:34:16,905995
6,1,3,-6,0,-1,-13,-10,2021-08-04 12:34:16,916018
-12,-1,-2,7,4,2,18,-5,2021-08-04 12:34:16,916018
5,5,2,17,4,3,-26,-3,2021-08-04 12:34:16,924024
-11,-3,16,6,-6,-3,-7,-5,2021-08-04 12:34:16,924024
10,0,42,-3,1,-4,12,5,2021-08-04 12:34:16,938014
-24,-3,-108,-8,4,-1,-46,-2,2021-08-04 12:34:16,938014
2,1,43,15,0,1,19,9,2021-08-04 12:34:16,938014
11,2,31,9,3,0,5,-12,2021-08-04 12:34:16,943980
-3,0,54,24,-4,-5,8,-5,2021-08-04 12:34:16,954982
-1,-3,-11,-14,-4,-2,9,4,2021-08-04 12:34:16,954982
13,2,-23,17,0,-1,-6,-6,2021-08-04 12:34:16,954982
-40,-3,-7,-10,-5,-1,-3,13,2021-08-04 12:34:16,954982
-8,-6,-15,-21,2,1,7,-25,2021-08-04 12:34:16,975981
0,-2,-69,0,-2,-1,-5,-8,2021-08-04 12:34:16,975981
-3,2,-18,0,2,-1,0,-5,2021-08-04 12:34:16,984980
12,-1,49,13,-1,0,2,0,2021-08-04 12:34:16,984980
-6,-2,-64,-17,-1,-2,-4,-5,2021-08-04 12:34:16,999980
2,-2,36,-8,-1,-1,6,3,2021-08-04 12:34:16,999980
2,-2,45,-13,-1,2,6,-4,2021-08-04 12:34:16,999980
8,3,-15,15,-1,-3,0,4,2021-08-04 12:34:16,999980
-1,-1,-11,14,1,0,-37,-9,2021-08-04 12:34:17,012033
6,-1,53,-13,-5,-1,5,6,2021-08-04 12:34:17,012033
-15,-3,-26,-12,-4,-4,-4,-19,2021-08-04 12:34:17,019981
1,3,18,10,1,-1,5,10,2021-08-04 12:34:17,019981
0,-5,-77,-5,-1,2,2,-23,2021-08-04 12:34:17,035981
5,1,16,9,1,2,18,8,2021-08-04 12:34:17,035981
-30,-3,32,-8,1,0,-14,0,2021-08-04 12:34:17,043981
6,-4,-21,-2,-4,-2,-4,2,2021-08-04 12:34:17,043981
1,-3,33,13,-2,-4,-11,-11,2021-08-04 12:34:17,059980
-7,1,-3,-6,-2,-2,20,-2,2021-08-04 12:34:17,065979
6,-1,3,10,-3,-1,9,1,2021-08-04 12:34:17,065979
3,-1,-28,-4,0,-1,-12,-2,2021-08-04 12:34:17,065979
1,0,-7,-12,1,3,3,9,2021-08-04 12:34:17,073979
2,-1,43,21,1,0,-3,-5,2021-08-04 12:34:17,073979
1,0,39,-8,-5,-4,2,7,2021-08-04 12:34:17,079983
7,1,-34,-17,3,3,-2,-7,2021-08-04 12:34:17,079983
-9,-5,15,-18,-7,-7,-4,35,2021-08-04 12:34:17,094015
3,1,-27,15,-1,2,0,-19,2021-08-04 12:34:17,094015
-11,-2,22,-8,4,-1,21,-1,2021-08-04 12:34:17,104015
-5,0,4,10,-2,-1,-7,5,2021-08-04 12:34:17,104015
7,2,35,5,0,2,14,0,2021-08-04 12:34:17,119980
-7,-1,-16,0,-1,1,-10,6,2021-08-04 12:34:17,119980
12,0,20,-15,0,-1,1,11,2021-08-04 12:34:17,119980
4,-3,-48,2,-1,-2,-6,-32,2021-08-04 12:34:17,119980
-11,0,25,11,-2,-1,-1,25,2021-08-04 12:34:17,129980
10,0,-28,-15,-1,-3,-1,-2,2021-08-04 12:34:17,129980
4,0,14,-4,0,-1,0,-11,2021-08-04 12:34:17,141035
0,-5,15,9,1,3,12,9,2021-08-04 12:34:17,141035
1,1,-43,3,-1,-2,-11,-21,2021-08-04 12:34:17,159984
-6,-2,2,-42,-2,1,6,6,2021-08-04 12:34:17,159984
9,-3,-27,0,0,-2,-5,3,2021-08-04 12:34:17,159984
0,2,53,17,-1,-2,8,33,2021-08-04 12:34:17,159984
-5,-7,-47,-22,-5,0,-7,-71,2021-08-04 12:34:17,179981
2,2,46,28,2,-3,-4,16,2021-08-04 12:34:17,179981
-17,0,-4,-21,-4,3,5,4,2021-08-04 12:34:17,179981
2,-1,0,-3,3,1,-37,3,2021-08-04 12:34:17,179981
3,1,51,8,0,-3,5,8,2021-08-04 12:34:17,200981
16,-1,-17,-8,1,-2,-2,2,2021-08-04 12:34:17,206981
-26,-3,-1,16,-3,-1,-7,-22,2021-08-04 12:34:17,206981
-5,-1,1,12,-3,-1,11,-1,2021-08-04 12:34:17,206981
3,1,32,-17,1,-1,4,11,2021-08-04 12:34:17,214984
-2,-4,-17,5,-1,1,-2,-9,2021-08-04 12:34:17,214984
13,-6,-6,4,-2,-1,-6,-1,2021-08-04 12:34:17,230978
-4,-2,-40,-8,-2,0,6,-11,2021-08-04 12:34:17,236981
-3,-1,13,7,1,2,-1,-3,2021-08-04 12:34:17,236981
-9,-2,29,18,-1,-3,13,4,2021-08-04 12:34:17,236981
6,1,-68,-40,-1,-1,-15,8,2021-08-04 12:34:17,236981
-4,-1,-61,-1,-2,-2,14,-28,2021-08-04 12:34:17,236981
5,-1,71,17,-5,-5,1,8,2021-08-04 12:34:17,258980
-22,0,6,-6,-2,0,5,-9,2021-08-04 12:34:17,258980
11,-5,-19,10,5,0,6,5,2021-08-04 12:34:17,258980
25,0,9,-14,-3,-4,-6,3,2021-08-04 12:34:17,271980
-13,4,-15,14,6,4,13,12,2021-08-04 12:34:17,271980
0,-2,40,-40,-8,-1,-17,2,2021-08-04 12:34:17,271980
2,2,-25,17,0,0,-22,-1,2021-08-04 12:34:17,283980
5,1,3,-9,1,0,2,5,2021-08-04 12:34:17,283980
5,-1,-5,10,0,-2,-16,-9,2021-08-04 12:34:17,297981
-4,-7,-46,8,1,3,9,-2,2021-08-04 12:34:17,297981
3,1,-1,-10,-3,-1,0,6,2021-08-04 12:34:17,297981
-6,-1,24,5,-2,0,-19,-2,2021-08-04 12:34:17,297981
4,3,-51,-11,0,-1,-12,7,2021-08-04 12:34:17,313980
-8,-3,-20,16,1,-2,-3,16,2021-08-04 12:34:17,313980
11,1,7,10,-1,0,13,-27,2021-08-04 12:34:17,319980
1,4,0,1,0,-1,2,4,2021-08-04 12:34:17,319980
-20,-8,-28,-17,-2,-1,8,-4,2021-08-04 12:34:17,334979
8,1,-9,2,3,-1,-1,-2,2021-08-04 12:34:17,334979
0,0,12,14,0,-2,-9,-4,2021-08-04 12:34:17,344978
-4,0,4,-4,-2,1,-3,5,2021-08-04 12:34:17,344978
5,0,29,-13,-4,2,13,-14,2021-08-04 12:34:17,358016
3,-6,-28,0,-3,-1,0,-1,2021-08-04 12:34:17,358016
5,0,-10,6,0,0,5,3,2021-08-04 12:34:17,358016
-8,-3,34,-6,-2,-2,6,0,2021-08-04 12:34:17,358016
-1,-1,-27,-23,1,-1,-16,7,2021-08-04 12:34:17,372980
-8,-1,-3,17,-3,-3,-13,-24,2021-08-04 12:34:17,379039
6,1,48,18,2,5,0,54,2021-08-04 12:34:17,379039
-4,0,17,-39,-5,-3,2,-21,2021-08-04 12:34:17,379039
7,2,-24,4,-2,-4,8,-4,2021-08-04 12:34:17,396014
0,0,2,-8,2,2,7,12,2021-08-04 12:34:17,396014
-18,-4,31,8,-1,-3,-5,-3,2021-08-04 12:34:17,405039
-11,-8,-72,-5,-7,-3,5,8,2021-08-04 12:34:17,405039
12,-2,24,9,2,-1,-9,3,2021-08-04 12:34:17,427984
-6,3,0,4,0,0,2,-10,2021-08-04 12:34:17,427984
6,0,-3,-31,-1,-1,6,-12,2021-08-04 12:34:17,434040
1,-2,26,13,2,2,12,20,2021-08-04 12:34:17,434040
3,0,-22,4,-1,1,-14,-10,2021-08-04 12:34:17,434040
2,-3,-10,-4,1,0,5,7,2021-08-04 12:34:17,434040
-1,2,43,17,-2,-1,-19,-22,2021-08-04 12:34:17,446014
-2,-4,-9,-6,-1,-4,0,-3,2021-08-04 12:34:17,446014
4,-2,-18,-8,-1,-1,9,5,2021-08-04 12:34:17,456017
-2,-1,20,0,-3,-2,-6,21,2021-08-04 12:34:17,456017
-4,0,-3,-5,1,0,17,-11,2021-08-04 12:34:17,464015
5,3,7,10,3,1,-6,-11,2021-08-04 12:34:17,464015
-1,-3,-35,-1,1,0,4,2,2021-08-04 12:34:17,479053
-21,-5,12,-7,-5,-4,-20,-2,2021-08-04 12:34:17,479053
18,-1,10,-6,-5,-4,-3,-2,2021-08-04 12:34:17,479053
-40,-2,-5,7,1,0,10,-6,2021-08-04 12:34:17,479053
-3,-1,18,2,-1,2,-8,8,2021-08-04 12:34:17,493981
6,2,-30,7,0,0,-1,-15,2021-08-04 12:34:17,493981
4,-4,-95,-2,2,-1,4,2,2021-08-04 12:34:17,499981
3,-2,74,-3,-3,-1,2,5,2021-08-04 12:34:17,499981
-5,-1,26,18,-6,-5,6,-9,2021-08-04 12:34:17,514018
6,4,13,-7,2,-1,-2,-2,2021-08-04 12:34:17,514018
-9,-4,-35,10,-2,-3,6,0,2021-08-04 12:34:17,523981
11,1,6,-3,3,1,-7,30,2021-08-04 12:34:17,523981
-9,-3,-16,8,0,2,4,-39,2021-08-04 12:34:17,538980
9,0,9,-1,-3,-3,-1,14,2021-08-04 12:34:17,538980
-8,-1,17,-9,-7,1,12,2,2021-08-04 12:34:17,545980
5,2,-4,24,5,-2,10,-9,2021-08-04 12:34:17,545980
-9,-5,-29,-31,-3,0,-14,11,2021-08-04 12:34:17,552980
5,0,-1,3,-1,-1,8,-10,2021-08-04 12:34:17,557981
-8,-3,0,-6,-2,-1,-10,4,2021-08-04 12:34:17,557981
3,0,-22,-7,0,5,-4,-1,2021-08-04 12:34:17,557981
5,1,29,8,0,1,-20,8,2021-08-04 12:34:17,575981
-4,-1,48,-12,-2,-1,8,-8,2021-08-04 12:34:17,575981
12,-3,-73,2,-2,-5,-7,1,2021-08-04 12:34:17,584015
5,-1,-12,9,-1,-3,-1,-7,2021-08-04 12:34:17,584015
-3,-4,5,-2,-3,-2,6,7,2021-08-04 12:34:17,599981
1,-1,-29,-6,-1,1,9,-2,2021-08-04 12:34:17,599981
-4,-2,50,2,-1,2,-13,9,2021-08-04 12:34:17,599981
0,-1,-42,0,2,-1,8,-9,2021-08-04 12:34:17,599981
1,0,32,5,-4,-2,1,4,2021-08-04 12:34:17,610934
-5,-1,37,1,-1,-1,-23,-16,2021-08-04 12:34:17,610934
4,2,-54,-12,-1,-1,10,13,2021-08-04 12:34:17,619944
12,-1,-4,2,-2,0,-1,13,2021-08-04 12:34:17,619944
-26,-1,68,14,-2,0,8,-6,2021-08-04 12:34:17,634954
2,-1,-89,-21,-1,-1,-3,-4,2021-08-04 12:34:17,634954
0,1,61,4,4,2,5,-4,2021-08-04 12:34:17,644953
8,-1,19,-6,-7,-2,-15,-17,2021-08-04 12:34:17,650965
12,4,14,15,-1,-5,0,9,2021-08-04 12:34:17,661979
-4,1,8,0,2,4,24,1,2021-08-04 12:34:17,661979
-4,-3,-38,0,-4,-6,6,-8,2021-08-04 12:34:17,661979
-9,-2,-1,-11,2,-2,0,11,2021-08-04 12:34:17,661979
-1,-1,1,-7,-2,-2,17,-48,2021-08-04 12:34:17,671988
-1,0,3,0,0,-1,-17,14,2021-08-04 12:34:17,671988
-6,1,21,-3,0,-1,6,-2,2021-08-04 12:34:17,679997
6,-8,-27,-15,-4,-1,9,-5,2021-08-04 12:34:17,679997
-8,-1,-45,-5,3,2,-20,1,2021-08-04 12:34:17,696010
8,3,38,33,0,-5,1,24,2021-08-04 12:34:17,696010
2,-3,4,-2,-1,2,13,-12,2021-08-04 12:34:17,710054
-5,1,-4,6,-1,0,-10,16,2021-08-04 12:34:17,710054
11,1,-14,-23,1,-1,4,12,2021-08-04 12:34:17,727049
-5,0,-4,-2,0,2,-13,-16,2021-08-04 12:34:17,727049
-5,1,-18,-2,-4,-1,-1,27,2021-08-04 12:34:17,727049
-4,1,-30,11,-4,-3,-5,-42,2021-08-04 12:34:17,727049
5,-3,-12,2,-2,-1,-15,11,2021-08-04 12:34:17,727049
-5,-2,26,0,-2,-1,-2,2,2021-08-04 12:34:17,727049
4,2,-12,-4,0,3,-18,1,2021-08-04 12:34:17,740071
-4,1,24,1,3,0,5,-11,2021-08-04 12:34:17,740071
-3,-4,-36,-22,-5,-3,3,3,2021-08-04 12:34:17,756111
19,1,36,37,2,0,7,-9,2021-08-04 12:34:17,756111
-29,-9,24,4,-6,-2,5,-4,2021-08-04 12:34:17,764110
1,2,14,-21,-2,-2,0,3,2021-08-04 12:34:17,764110
1,-2,40,15,0,0,-10,7,2021-08-04 12:34:17,779144
10,-2,-24,-21,1,-2,-14,-1,2021-08-04 12:34:17,779144
2,-1,-62,12,-2,-2,4,-12,2021-08-04 12:34:17,786131
-6,-2,-39,0,0,-2,-10,8,2021-08-04 12:34:17,791890
-3,0,32,5,1,2,44,-4,2021-08-04 12:34:17,798890
-4,-1,-35,-15,0,3,-8,-11,2021-08-04 12:34:17,798890
0,2,64,15,1,1,-8,-7,2021-08-04 12:34:17,798890
-14,-2,26,-15,-5,-3,-7,12,2021-08-04 12:34:17,798890
27,3,-47,-3,-2,0,19,16,2021-08-04 12:34:17,815886
11,2,29,-9,-2,-1,17,-15,2021-08-04 12:34:17,815886
7,0,26,6,2,0,-3,-4,2021-08-04 12:34:17,823396
11,-1,-42,-8,1,1,27,24,2021-08-04 12:34:17,823396
-9,-1,31,6,1,-2,16,0,2021-08-04 12:34:17,845396
-1,-2,9,5,-4,-3,-38,-6,2021-08-04 12:34:17,845396
4,4,43,5,2,0,2,16,2021-08-04 12:34:17,845396
-1,-1,-54,0,1,-1,6,-9,2021-08-04 12:34:17,851397
9,-4,11,0,-5,0,27,-3,2021-08-04 12:34:17,862398
-28,-4,-63,-4,-3,-2,-20,-7,2021-08-04 12:34:17,862398
2,-6,16,-29,-2,-3,-10,22,2021-08-04 12:34:17,862398
2,-1,5,8,0,0,-13,-28,2021-08-04 12:34:17,862398
10,4,7,4,1,-1,-9,6,2021-08-04 12:34:17,876397
-35,-1,4,3,-1,2,15,2,2021-08-04 12:34:17,876397
-17,-3,-41,-7,0,0,-8,-1,2021-08-04 12:34:17,883430
-7,-2,50,7,-3,-4,12,1,2021-08-04 12:34:17,883430
23,4,20,6,0,1,6,6,2021-08-04 12:34:17,906455
7,-2,-49,-8,0,2,-35,2,2021-08-04 12:34:17,906455
5,-1,29,-2,1,2,10,17,2021-08-04 12:34:17,906455
-6,-4,14,4,-5,-3,-6,2,2021-08-04 12:34:17,906455
-9,0,12,2,3,-1,13,-22,2021-08-04 12:34:17,920396
-4,-2,6,-4,-2,-2,8,4,2021-08-04 12:34:17,920396
-7,-2,-43,-7,1,-2,9,-12,2021-08-04 12:34:17,928396
-28,0,43,-3,0,-1,-7,15,2021-08-04 12:34:17,928396
-29,-8,15,0,-7,-5,-22,-2,2021-08-04 12:34:17,935396
15,3,14,-2,-2,0,7,2,2021-08-04 12:34:17,935396
3,-3,6,2,3,-2,-10,-14,2021-08-04 12:34:17,939397
7,-2,-35,-9,0,-1,0,-6,2021-08-04 12:34:17,939397
-2,2,-32,-11,-1,0,9,-4,2021-08-04 12:34:17,959398
-9,-5,17,0,-3,-1,-4,-1,2021-08-04 12:34:17,966430
1,1,20,7,2,0,14,-6,2021-08-04 12:34:17,966430
7,2,-5,7,1,2,-6,-13,2021-08-04 12:34:17,966430
-6,-1,-5,-9,-2,0,5,12,2021-08-04 12:34:17,980455
5,0,-8,-2,0,-4,12,7,2021-08-04 12:34:17,980455
20,-1,-2,0,-6,-1,-34,-35,2021-08-04 12:34:17,980455
3,0,-40,-4,0,2,-6,14,2021-08-04 12:34:17,980455
3,3,1,8,2,-1,-11,5,2021-08-04 12:34:17,996397
-4,-7,32,-3,-3,-1,12,-4,2021-08-04 12:34:17,996397
3,0,-8,-2,4,-2,-5,-10,2021-08-04 12:34:18,003452
0,-1,48,2,1,0,0,20,2021-08-04 12:34:18,003452
2,0,-32,-1,-4,0,-17,4,2021-08-04 12:34:18,019399
7,4,-29,1,2,-2,8,-1,2021-08-04 12:34:18,025455
-2,2,22,-1,-3,0,4,1,2021-08-04 12:34:18,034453
2,-4,-27,-5,-1,-1,-5,-2,2021-08-04 12:34:18,034453
-4,0,21,4,2,0,-14,1,2021-08-04 12:34:18,040453
-4,-2,8,5,2,2,9,1,2021-08-04 12:34:18,045454
-16,6,-3,3,0,1,-18,-4,2021-08-04 12:34:18,045454
-2,-4,14,-1,-2,-2,-16,-21,2021-08-04 12:34:18,045454
7,2,8,0,1,-2,-17,-7,2021-08-04 12:34:18,055399
-2,-6,-67,-6,-1,0,17,-1,2021-08-04 12:34:18,055399
-10,-1,12,6,-1,2,5,-2,2021-08-04 12:34:18,062454
11,-8,28,-5,-3,-3,-3,1,2021-08-04 12:34:18,062454
-10,-4,-46,0,-1,-2,-5,4,2021-08-04 12:34:18,079398
7,-2,4,0,-1,-1,-18,22,2021-08-04 12:34:18,079398
7,6,15,10,1,0,8,0,2021-08-04 12:34:18,086399
-6,0,26,-8,-6,0,-3,-3,2021-08-04 12:34:18,092400
-5,-7,-79,-8,3,-4,-9,4,2021-08-04 12:34:18,100399
14,4,34,-4,0,0,36,-16,2021-08-04 12:34:18,106434
-29,-4,-39,-14,-1,-1,-21,38,2021-08-04 12:34:18,106434
-20,0,-18,11,0,0,11,-65,2021-08-04 12:34:18,106434
5,-1,-4,0,1,4,4,6,2021-08-04 12:34:18,116399
-7,-4,22,-7,-1,-1,-15,-21,2021-08-04 12:34:18,116399
4,-1,31,17,-7,-5,6,0,2021-08-04 12:34:18,123454
5,-2,-20,15,-3,-4,2,18,2021-08-04 12:34:18,123454
-4,-3,-53,-16,-3,1,3,-5,2021-08-04 12:34:18,138454
-6,4,-9,-2,0,-1,-21,-2,2021-08-04 12:34:18,138454
7,1,77,1,2,-1,16,-2,2021-08-04 12:34:18,145458
8,0,-40,4,-2,-2,-8,9,2021-08-04 12:34:18,145458
-4,-2,23,12,3,1,5,-1,2021-08-04 12:34:18,162399
-6,0,15,0,0,-2,-10,5,2021-08-04 12:34:18,168399
18,-2,5,-4,-9,-2,5,-15,2021-08-04 12:34:18,168399
-34,1,0,5,8,1,-34,12,2021-08-04 12:34:18,168399
-8,2,8,-7,-1,-5,11,-1,2021-08-04 12:34:18,176398
1,0,-3,-7,-4,0,-13,10,2021-08-04 12:34:18,176398
14,-5,-84,-19,-2,-2,-1,-11,2021-08-04 12:34:18,184398
2,1,-7,-4,0,1,14,15,2021-08-04 12:34:18,190399
10,0,32,11,-2,-2,-1,10,2021-08-04 12:34:18,198396
-12,-1,9,1,1,-1,-5,1,2021-08-04 12:34:18,198396
2,0,4,0,2,1,15,-8,2021-08-04 12:34:18,207398
6,-3,-47,-13,0,4,-2,-1,2021-08-04 12:34:18,207398
-1,-1,20,-5,-1,0,-3,-13,2021-08-04 12:34:18,225399
-13,1,25,13,-4,-4,16,-4,2021-08-04 12:34:18,231399
-3,-2,-12,-5,0,1,-31,4,2021-08-04 12:34:18,231399
5,2,28,-10,-2,-3,4,-8,2021-08-04 12:34:18,231399
-10,-1,19,-8,-5,-1,-9,-6,2021-08-04 12:34:18,231399
8,2,5,7,1,0,4,2,2021-08-04 12:34:18,231399
-9,-5,-70,-3,0,-2,32,-2,2021-08-04 12:34:18,242960
2,4,74,8,3,1,2,26,2021-08-04 12:34:18,242960
16,-4,-27,-4,4,2,-2,-30,2021-08-04 12:34:18,274473
-9,-4,1,-7,-2,-2,-7,1,2021-08-04 12:34:18,280473
-2,0,12,17,0,-3,-5,-5,2021-08-04 12:34:18,280473
7,-4,23,-11,-9,-4,-6,2,2021-08-04 12:34:18,280473
-3,-3,33,-1,-1,-2,-1,8,2021-08-04 12:34:18,280473
1,1,-14,-1,1,1,0,-20,2021-08-04 12:34:18,280473
-29,-2,-14,-6,1,3,1,17,2021-08-04 12:34:18,289472
3,0,0,7,1,-1,-16,-10,2021-08-04 12:34:18,289472
1,2,28,1,-1,0,7,0,2021-08-04 12:34:18,289472
-3,-1,-51,4,1,1,4,-3,2021-08-04 12:34:18,293475
8,-1,7,-17,-5,-6,-11,-3,2021-08-04 12:34:18,303475
1,-3,-7,-3,-5,-1,18,-4,2021-08-04 12:34:18,303475
8,1,-48,4,-1,1,-1,8,2021-08-04 12:34:18,318475
16,0,5,-1,1,0,14,11,2021-08-04 12:34:18,318475
-10,1,30,3,0,-1,-6,-38,2021-08-04 12:34:18,326475
5,-2,-11,-16,1,1,12,7,2021-08-04 12:34:18,326475
-7,-1,16,6,-2,-4,-10,14,2021-08-04 12:34:18,350474
-2,-3,-12,-1,-2,-3,10,4,2021-08-04 12:34:18,350474
2,-1,11,-7,-2,2,-16,-1,2021-08-04 12:34:18,350474
-15,3,-20,6,1,-2,-9,-7,2021-08-04 12:34:18,350474
-11,-1,-49,-1,0,1,16,4,2021-08-04 12:34:18,350474
0,-8,-11,-6,0,1,-2,2,2021-08-04 12:34:18,350474
-6,-1,16,4,1,-1,2,5,2021-08-04 12:34:18,364473
15,-3,44,9,-6,-3,-2,4,2021-08-04 12:34:18,364473
-3,-1,-37,-23,-6,-3,-6,-3,2021-08-04 12:34:18,377471
-1,5,35,10,2,-1,-5,11,2021-08-04 12:34:18,377471
10,-1,-42,-7,-2,-1,-1,-4,2021-08-04 12:34:18,386470
-4,-3,-9,9,0,0,24,-6,2021-08-04 12:34:18,386470
4,4,59,18,3,0,-7,-2,2021-08-04 12:34:18,400470
-5,-11,-74,-32,-7,-1,-3,-8,2021-08-04 12:34:18,400470
-5,0,27,5,0,1,-7,7,2021-08-04 12:34:18,408470
6,1,-14,-8,0,-1,4,16,2021-08-04 12:34:18,408470
-7,-7,66,8,-6,-3,-10,-35,2021-08-04 12:34:18,416470
3,2,13,-1,2,0,36,5,2021-08-04 12:34:18,416470
-24,-3,-36,2,4,0,-10,18,2021-08-04 12:34:18,424470
6,1,7,4,-1,0,4,-4,2021-08-04 12:34:18,424470
-2,2,32,11,-1,0,-7,0,2021-08-04 12:34:18,438470
-2,2,-34,-5,-4,-5,-1,6,2021-08-04 12:34:18,438470
15,-1,19,3,0,-1,5,-4,2021-08-04 12:34:18,446470
-15,-3,-29,-11,3,1,-2,-11,2021-08-04 12:34:18,446470
-3,-3,-49,-13,0,0,0,9,2021-08-04 12:34:18,460470
6,2,61,6,-3,-1,-12,-10,2021-08-04 12:34:18,460470
-4,-1,12,3,-3,-1,4,-2,2021-08-04 12:34:18,468978
11,3,-51,-3,2,0,-9,3,2021-08-04 12:34:18,468978
3,-4,-8,-1,0,0,41,3,2021-08-04 12:34:18,474982
-21,-3,-8,-3,-1,0,-40,-17,2021-08-04 12:34:18,474982
0,1,13,0,-1,-1,-6,-44,2021-08-04 12:34:18,489980
1,1,-11,3,-3,-3,2,5,2021-08-04 12:34:18,489980
9,-2,11,1,-1,-4,-11,-9,2021-08-04 12:34:18,497980
1,2,13,1,-4,0,15,21,2021-08-04 12:34:18,497980
4,-2,-38,-2,3,-2,0,-4,2021-08-04 12:34:18,511980
-2,-2,32,-5,-6,-4,-7,-8,2021-08-04 12:34:18,517980
-4,1,14,1,1,0,-3,11,2021-08-04 12:34:18,517980
6,1,-38,5,3,2,-2,-2,2021-08-04 12:34:18,517980
8,0,10,-2,-5,-1,4,8,2021-08-04 12:34:18,542827
-1,-3,54,-3,-4,-3,13,0,2021-08-04 12:34:18,542827
-2,-2,-23,-3,-3,-1,-34,-1,2021-08-04 12:34:18,542827
2,4,44,18,4,3,22,4,2021-08-04 12:34:18,542827
36,-2,-40,-19,-4,-2,-30,12,2021-08-04 12:34:18,549854
-12,-2,25,7,2,1,-6,-1,2021-08-04 12:34:18,549854
4,-2,-12,-8,-2,-1,-2,27,2021-08-04 12:34:18,557838
0,0,66,-4,1,-3,-8,-35,2021-08-04 12:34:18,564837
9,-2,-45,9,2,0,14,14,2021-08-04 12:34:18,564837
-6,-6,-64,14,-9,-4,-9,-1,2021-08-04 12:34:18,564837
-2,5,83,-5,2,1,-7,5,2021-08-04 12:34:18,580904
1,-7,53,-43,-8,-5,-5,2,2021-08-04 12:34:18,586841
-12,2,4,15,1,-2,9,3,2021-08-04 12:34:18,586841
0,0,41,-13,-1,-1,-6,-4,2021-08-04 12:34:18,586841
-15,1,32,37,2,2,6,-60,2021-08-04 12:34:18,594898
-1,-6,-107,-29,-1,-1,-4,35,2021-08-04 12:34:18,594898
-10,-2,20,9,-1,1,3,-3,2021-08-04 12:34:18,604784
-3,1,28,8,-4,-1,-4,-6,2021-08-04 12:34:18,604784
2,-5,-66,-25,-3,-3,-3,4,2021-08-04 12:34:18,616844
3,5,67,42,4,0,-3,-3,2021-08-04 12:34:18,616844
-5,-5,-2,-40,-13,-6,-3,0,2021-08-04 12:34:18,634781
6,2,-61,13,4,3,3,10,2021-08-04 12:34:18,634781
-8,-17,-102,-57,0,0,3,8,2021-08-04 12:34:18,634781
1,2,8,42,5,1,-1,-8,2021-08-04 12:34:18,634781
-5,6,13,0,-1,3,8,8,2021-08-04 12:34:18,655782
1,-3,42,20,-5,-3,-5,-13,2021-08-04 12:34:18,655782
2,3,69,24,3,-1,3,4,2021-08-04 12:34:18,655782
-1,1,-11,-42,-2,0,-2,-25,2021-08-04 12:34:18,655782
2,-4,-46,32,-1,-1,0,3,2021-08-04 12:34:18,662781
0,-7,73,12,0,-2,-2,-6,2021-08-04 12:34:18,668781
0,7,45,26,1,1,-5,5,2021-08-04 12:34:18,676781
-4,-8,-75,-57,-7,-3,-2,7,2021-08-04 12:34:18,676781
-2,1,56,24,1,0,4,-1,2021-08-04 12:34:18,685782
1,2,-18,-2,3,1,-1,-6,2021-08-04 12:34:18,685782
15,-1,-9,-47,-5,-4,-6,9,2021-08-04 12:34:18,700837
-39,3,37,35,6,2,1,6,2021-08-04 12:34:18,700837
-4,-9,69,-35,-11,-7,-5,-26,2021-08-04 12:34:18,707836
9,-1,-63,12,2,2,-22,4,2021-08-04 12:34:18,714837
-11,6,-27,-4,4,2,3,1,2021-08-04 12:34:18,714837
10,-2,-15,2,-8,-2,-5,1,2021-08-04 12:34:18,714837
-2,3,21,12,5,1,-2,3,2021-08-04 12:34:18,722838
-5,-1,3,-25,-4,-3,10,-3,2021-08-04 12:34:18,722838
2,4,26,26,2,1,2,-2,2021-08-04 12:34:18,737838
6,-3,-62,-27,0,0,-7,-3,2021-08-04 12:34:18,737838
-5,3,3,26,2,0,11,7,2021-08-04 12:34:18,751840
8,-2,-44,-33,1,-1,3,-1,2021-08-04 12:34:18,751840
-3,-5,-94,4,-7,-4,-2,0,2021-08-04 12:34:18,760843
0,-4,-7,12,-2,-4,0,1,2021-08-04 12:34:18,766782
6,0,4,39,4,3,0,3,2021-08-04 12:34:18,766782
-2,5,-50,-38,7,3,5,3,2021-08-04 12:34:18,766782
-2,-3,61,53,-9,-5,-8,-2,2021-08-04 12:34:18,775782
4,8,58,35,4,-1,2,-2,2021-08-04 12:34:18,775782
-8,-19,-58,-70,-11,-6,-5,-4,2021-08-04 12:34:18,784780
-3,1,-55,3,1,0,0,-1,2021-08-04 12:34:18,784780
-7,1,44,-18,-2,0,2,1,2021-08-04 12:34:18,798781
10,0,29,7,0,-2,0,-1,2021-08-04 12:34:18,798781
5,8,-9,29,5,2,1,5,2021-08-04 12:34:18,806783
-6,-2,53,-4,-4,-3,-1,-2,2021-08-04 12:34:18,806783
3,-5,-18,-48,-3,-2,0,-1,2021-08-04 12:34:18,819783
2,-1,-14,26,-4,-1,-3,-2,2021-08-04 12:34:18,819783
-7,-7,-29,-28,2,1,-1,2,2021-08-04 12:34:18,829782
-4,-3,56,5,2,2,1,-3,2021-08-04 12:34:18,829782
4,7,9,52,3,3,5,2,2021-08-04 12:34:18,845842
-2,2,12,33,1,0,-2,-1,2021-08-04 12:34:18,845842
2,-2,21,-24,4,2,3,0,2021-08-04 12:34:18,845842
-1,-5,0,8,-3,-1,-3,-3,2021-08-04 12:34:18,845842
-1,-1,60,38,0,1,-2,-2,2021-08-04 12:34:18,858782
-3,-12,-35,-59,-3,0,1,-3,2021-08-04 12:34:18,858782
1,6,-18,5,0,-2,-1,1,2021-08-04 12:34:18,864837
1,6,28,27,0,0,3,3,2021-08-04 12:34:18,864837
0,0,-44,-44,-2,-4,-4,-1,2021-08-04 12:34:18,880838
-4,-8,41,-16,-5,-2,0,-2,2021-08-04 12:34:18,880838
-1,0,-16,-13,-2,0,0,-1,2021-08-04 12:34:18,895782
2,3,25,-13,1,0,-1,0,2021-08-04 12:34:18,901781
0,-6,25,18,2,1,3,-1,2021-08-04 12:34:18,907781
-1,-8,-64,-6,-2,-4,-5,0,2021-08-04 12:34:18,907781
0,1,40,-10,-5,-4,-4,-1,2021-08-04 12:34:18,907781
-1,0,16,21,3,2,5,-1,2021-08-04 12:34:18,907781
2,1,-49,-25,4,-1,0,0,2021-08-04 12:34:18,918781
18,2,-25,6,-2,3,-1,-1,2021-08-04 12:34:18,923781
-23,-1,36,15,3,0,1,4,2021-08-04 12:34:18,923781
1,3,-7,-21,-7,-1,-1,-3,2021-08-04 12:34:18,923781
-1,3,-12,-19,-1,-4,-2,1,2021-08-04 12:34:18,941781
8,0,47,27,-2,-3,-3,0,2021-08-04 12:34:18,941781
6,-4,-85,-31,-6,-1,0,-2,2021-08-04 12:34:18,947781
1,4,29,5,2,0,0,0,2021-08-04 12:34:18,947781
-2,3,-27,11,2,2,-1,0,2021-08-04 12:34:18,958782
-11,-2,32,-37,3,2,1,1,2021-08-04 12:34:18,958782
5,2,46,12,-6,-5,-2,-3,2021-08-04 12:34:18,964783
-8,-11,-72,-3,-5,-4,-1,-2,2021-08-04 12:34:18,964783
2,-1,23,-22,-9,-4,-4,-4,2021-08-04 12:34:18,977320
-5,8,-9,29,5,1,0,1,2021-08-04 12:34:18,977320
3,1,34,-6,5,4,-1,-1,2021-08-04 12:34:18,986319
7,-3,-46,1,-7,-5,-6,1,2021-08-04 12:34:18,986319
-3,-1,5,28,2,3,0,-3,2021-08-04 12:34:19,000321
12,-1,-33,-29,5,4,4,1,2021-08-04 12:34:19,006356
-17,2,4,8,-6,0,-2,1,2021-08-04 12:34:19,006356
0,2,30,40,4,2,-1,-2,2021-08-04 12:34:19,006356
-5,-4,22,-39,-6,-4,-3,-1,2021-08-04 12:34:19,024377
4,-1,0,-18,-2,-1,-2,-3,2021-08-04 12:34:19,024377
12,-4,-44,-17,-4,-3,-1,-2,2021-08-04 12:34:19,024377
-1,4,5,4,7,3,4,2,2021-08-04 12:34:19,024377
-8,-8,43,26,0,-3,-3,-2,2021-08-04 12:34:19,037324
-3,1,15,22,5,2,2,-2,2021-08-04 12:34:19,037324
6,9,-2,-23,-1,-3,-3,-1,2021-08-04 12:34:19,046324
-6,-18,72,-30,-7,-3,-3,-2,2021-08-04 12:34:19,046324
1,7,-6,6,2,0,-1,1,2021-08-04 12:34:19,060327
-14,-18,-46,-20,-3,0,0,-6,2021-08-04 12:34:19,066326
30,1,16,-2,-6,-4,-2,10,2021-08-04 12:34:19,066326
-17,-4,-9,-25,0,-4,-1,0,2021-08-04 12:34:19,066326
2,4,9,0,2,3,-3,0,2021-08-04 12:34:19,084323
-9,-3,20,63,-10,-9,-5,-2,2021-08-04 12:34:19,084323
6,7,-7,-36,5,4,5,-2,2021-08-04 12:34:19,084323
14,2,50,-2,1,1,-1,8,2021-08-04 12:34:19,084323
-2,-1,-76,-10,3,4,2,3,2021-08-04 12:34:19,098326
-1,6,21,-16,-2,-1,0,3,2021-08-04 12:34:19,098326
-4,-34,44,29,-8,-4,-1,-2,2021-08-04 12:34:19,106377
-2,19,56,7,2,-5,0,10,2021-08-04 12:34:19,112427
-21,-9,-48,-12,4,3,1,-35,2021-08-04 12:34:19,128429
15,-8,7,-25,0,0,-2,3,2021-08-04 12:34:19,128429
10,4,24,8,-1,-1,-1,-5,2021-08-04 12:34:19,134422
-8,-8,-27,3,-5,0,-1,8,2021-08-04 12:34:19,134422
12,4,45,25,-1,-2,-1,-20,2021-08-04 12:34:19,145375
-6,8,-9,5,3,2,1,5,2021-08-04 12:34:19,145375
-12,-3,-25,-13,5,0,-2,-3,2021-08-04 12:34:19,145375
6,6,-22,14,-5,-3,-3,-2,2021-08-04 12:34:19,145375
2,3,-11,14,6,4,4,10,2021-08-04 12:34:19,167424
-2,-7,-5,-28,-7,-4,-1,-6,2021-08-04 12:34:19,167424
-3,6,1,8,-5,-8,-3,0,2021-08-04 12:34:19,167424
13,-15,-61,14,-5,-5,2,2,2021-08-04 12:34:19,167424
1,6,-33,-10,3,4,0,-9,2021-08-04 12:34:19,182376
-2,2,5,9,3,1,-20,24,2021-08-04 12:34:19,182376
-5,0,-49,-5,-6,-2,-3,-27,2021-08-04 12:34:19,182376
6,-7,23,-5,-2,-1,-3,-31,2021-08-04 12:34:19,182376
0,1,45,6,4,0,4,14,2021-08-04 12:34:19,204428
7,16,17,3,3,1,6,-3,2021-08-04 12:34:19,210349
-3,-10,-2,-1,-3,-2,-1,5,2021-08-04 12:34:19,210349
-8,-2,39,31,-1,-1,-1,-4,2021-08-04 12:34:19,210349
-5,0,-45,-2,7,3,0,5,2021-08-04 12:34:19,224937
-11,-3,-26,-18,-11,-4,0,-7,2021-08-04 12:34:19,224937
1,7,24,22,-2,-2,-1,12,2021-08-04 12:34:19,224937
-3,1,-40,-1,6,3,5,-8,2021-08-04 12:34:19,224937
-6,-2,41,11,-2,0,-2,14,2021-08-04 12:34:19,240942
5,2,-23,2,1,0,4,-5,2021-08-04 12:34:19,246943
19,12,101,31,-3,-6,-3,3,2021-08-04 12:34:19,246943
-31,-1,-47,-56,-3,-2,-1,5,2021-08-04 12:34:19,246943
0,1,-45,-20,6,6,-4,-2,2021-08-04 12:34:19,262942
0,0,6,-4,0,2,3,-5,2021-08-04 12:34:19,262942
3,-1,21,10,-6,-4,0,-3,2021-08-04 12:34:19,268941
9,13,11,4,6,3,0,7,2021-08-04 12:34:19,268941
-8,-5,24,33,-2,0,-4,-2,2021-08-04 12:34:19,277938
-9,-6,58,5,-6,-6,-1,-8,2021-08-04 12:34:19,277938
-10,-19,-52,-17,-3,-1,-2,1,2021-08-04 12:34:19,285938
-2,11,19,6,-6,-3,0,0,2021-08-04 12:34:19,285938
-1,-4,28,-31,-3,-1,-2,1,2021-08-04 12:34:19,301933
-1,0,15,32,2,-1,-2,-2,2021-08-04 12:34:19,301933
-1,4,-57,-39,3,3,1,2,2021-08-04 12:34:19,308933
-1,-3,5,-6,-2,-3,-3,-3,2021-08-04 12:34:19,308933
-3,-3,-11,11,-3,-2,-1,-2,2021-08-04 12:34:19,322938
16,8,4,18,2,0,3,8,2021-08-04 12:34:19,328938
-53,-18,-28,-23,-7,-6,-6,-12,2021-08-04 12:34:19,328938
8,-2,-9,-15,4,2,1,0,2021-08-04 12:34:19,328938
-5,-14,60,15,0,1,1,5,2021-08-04 12:34:19,338935
5,2,-72,-33,-4,0,0,-4,2021-08-04 12:34:19,338935
8,5,35,38,1,-2,2,6,2021-08-04 12:34:19,345934
2,-12,-38,-9,-1,-1,-3,-2,2021-08-04 12:34:19,345934
-5,5,-48,-25,0,0,0,-2,2021-08-04 12:34:19,359935
-3,5,41,6,1,0,1,3,2021-08-04 12:34:19,359935
9,7,18,14,-2,-1,2,-1,2021-08-04 12:34:19,366935
-2,5,-10,-14,0,1,0,-3,2021-08-04 12:34:19,366935
7,2,-12,7,0,3,1,2,2021-08-04 12:34:19,384935
-9,-11,31,-8,-4,-4,-3,-3,2021-08-04 12:34:19,390934
7,10,-9,0,-4,-2,0,0,2021-08-04 12:34:19,390934
4,3,-12,-25,-1,-3,-2,0,2021-08-04 12:34:19,390934
-3,-7,17,22,-9,-5,-3,-1,2021-08-04 12:34:19,396935
0,-7,-71,-12,3,1,-1,-3,2021-08-04 12:34:19,403934
-6,-16,80,28,-3,-4,-1,-1,2021-08-04 12:34:19,403934
6,7,-7,9,3,1,1,2,2021-08-04 12:34:19,403934
2,5,-88,-31,1,1,-2,-1,2021-08-04 12:34:19,420934
5,-9,40,0,-4,-4,-2,-4,2021-08-04 12:34:19,420934
-29,5,-3,-4,2,-1,0,-1,2021-08-04 12:34:19,426971
-5,-17,21,-3,-3,0,-1,-2,2021-08-04 12:34:19,426971
0,9,56,-7,4,0,0,0,2021-08-04 12:34:19,444935
-1,2,-80,-13,-4,-2,-2,-6,2021-08-04 12:34:19,444935
7,-11,-20,3,-2,1,-2,0,2021-08-04 12:34:19,444935
-3,3,49,14,-2,1,0,-1,2021-08-04 12:34:19,450965
-3,7,5,-13,1,-1,-4,1,2021-08-04 12:34:19,466937
0,-4,-39,3,-2,-2,-1,-3,2021-08-04 12:34:19,466937
8,10,-24,-17,4,3,3,1,2021-08-04 12:34:19,466937
-7,-5,-3,5,-4,-4,-2,-1,2021-08-04 12:34:19,466937
3,-9,-52,-28,-3,-1,0,-2,2021-08-04 12:34:19,480938
-5,3,83,38,-1,-1,-1,-2,2021-08-04 12:34:19,486936
10,10,-81,-24,0,2,0,3,2021-08-04 12:34:19,486936
-3,-6,4,30,0,0,-1,-3,2021-08-04 12:34:19,486936
-1,-5,-74,-28,2,1,-1,1,2021-08-04 12:34:19,504936
-2,7,38,15,-6,-4,-3,1,2021-08-04 12:34:19,504936
2,7,58,3,-6,-2,-2,-1,2021-08-04 12:34:19,504936
1,19,24,-2,2,1,1,2,2021-08-04 12:34:19,504936
-3,-4,-51,-5,0,0,0,0,2021-08-04 12:34:19,517935
3,0,-8,-18,0,4,2,2,2021-08-04 12:34:19,522936
3,-16,27,3,-1,-4,-2,1,2021-08-04 12:34:19,522936
-3,0,-59,12,-2,-2,0,-2,2021-08-04 12:34:19,522936
1,11,46,18,-2,0,0,-2,2021-08-04 12:34:19,540937
1,-1,54,0,5,3,3,1,2021-08-04 12:34:19,540937
-2,-10,-84,1,-5,-7,-4,-2,2021-08-04 12:34:19,548936
-2,-2,96,-22,-3,2,-1,-3,2021-08-04 12:34:19,548936
3,4,-12,23,4,1,-2,-1,2021-08-04 12:34:19,563938
-4,12,-12,-40,-5,-3,-1,-1,2021-08-04 12:34:19,563938
3,-6,75,32,7,2,1,1,2021-08-04 12:34:19,563938
3,1,-82,18,4,0,0,2,2021-08-04 12:34:19,569937
-7,-14,24,-20,-5,-5,-1,-3,2021-08-04 12:34:19,576937
1,13,26,19,-3,-2,-1,-1,2021-08-04 12:34:19,576937
3,-2,11,6,-3,0,1,-2,2021-08-04 12:34:19,584934
-2,-2,11,-37,6,4,1,1,2021-08-04 12:34:19,584934
2,2,-10,14,-7,-3,-2,0,2021-08-04 12:34:19,600933
-4,-16,-64,-25,2,-4,1,-2,2021-08-04 12:34:19,600933
1,10,66,27,-1,-1,1,0,2021-08-04 12:34:19,607934
0,1,-86,-24,-1,0,-1,-1,2021-08-04 12:34:19,613935
-2,-22,-30,-1,2,1,0,-3,2021-08-04 12:34:19,631935
-1,22,99,38,0,0,-3,-2,2021-08-04 12:34:19,631935
6,4,-109,-30,-3,-2,-1,1,2021-08-04 12:34:19,631935
-8,-11,35,-5,-7,-4,-2,-4,2021-08-04 12:34:19,631935
2,4,40,15,-1,-1,-1,3,2021-08-04 12:34:19,646935
9,0,0,0,-4,-3,-1,3,2021-08-04 12:34:19,646935
-28,8,38,10,0,0,1,-3,2021-08-04 12:34:19,646935
3,-4,-18,14,5,1,2,1,2021-08-04 12:34:19,646935
-1,3,1,-42,-6,-2,0,-1,2021-08-04 12:34:19,660935
-2,-1,20,31,-2,-4,1,2,2021-08-04 12:34:19,666970
5,-14,-14,-14,3,1,-1,0,2021-08-04 12:34:19,666970
-3,-4,31,16,-4,-4,-4,-1,2021-08-04 12:34:19,666970
-5,-1,35,18,0,-2,-3,-1,2021-08-04 12:34:19,682972
6,-5,0,12,6,2,-1,-1,2021-08-04 12:34:19,682972
3,-7,-9,-12,-5,-3,-1,0,2021-08-04 12:34:19,689938
-4,0,-18,-6,-3,0,-1,-2,2021-08-04 12:34:19,689938
8,-1,-40,56,0,-1,0,1,2021-08-04 12:34:19,703936
-6,-7,-3,-72,-4,-3,0,-2,2021-08-04 12:34:19,703936
4,3,37,32,2,2,-1,7,2021-08-04 12:34:19,709938
-31,-6,16,-27,-4,-4,-5,-26,2021-08-04 12:34:19,709938
-3,7,-13,-21,-3,-2,-1,11,2021-08-04 12:34:19,720992
3,-11,-7,59,-3,-2,-4,-3,2021-08-04 12:34:19,726936
-3,-2,1,-25,2,0,11,5,2021-08-04 12:34:19,726936
14,4,-1,9,4,5,-12,1,2021-08-04 12:34:19,726936
-12,-9,42,1,-7,-4,-3,-4,2021-08-04 12:34:19,744933
-6,-8,-27,-32,-3,-2,0,3,2021-08-04 12:34:19,744933
13,9,22,5,1,0,2,-14,2021-08-04 12:34:19,744933
-3,-6,-65,-14,-1,1,4,6,2021-08-04 12:34:19,744933
12,3,16,17,6,0,2,-3,2021-08-04 12:34:19,772936
0,-3,5,3,-2,-2,-3,-1,2021-08-04 12:34:19,772936
-3,6,49,14,-2,-2,-3,-1,2021-08-04 12:34:19,772936
2,-5,-53,-24,-2,-2,2,2,2021-08-04 12:34:19,772936
-8,-7,98,-3,0,0,-1,-2,2021-08-04 12:34:19,780995
3,3,-35,-9,0,1,1,-1,2021-08-04 12:34:19,780995
-1,-6,3,14,-3,-3,-5,-3,2021-08-04 12:34:19,787936
3,1,43,20,-6,-3,1,-3,2021-08-04 12:34:19,793936
7,5,5,-20,1,1,0,0,2021-08-04 12:34:19,804937
11,7,6,4,0,-1,2,17,2021-08-04 12:34:19,804937
-20,-8,-14,-9,-1,-1,-2,1,2021-08-04 12:34:19,804937
12,-5,-60,7,2,2,1,-5,2021-08-04 12:34:19,804937
2,5,-11,-16,-3,-1,1,2,2021-08-04 12:34:19,827936
4,-8,23,21,-5,-4,2,-5,2021-08-04 12:34:19,827936
-12,0,-62,-20,1,1,6,1,2021-08-04 12:34:19,827936
-3,-4,0,-1,2,0,9,7,2021-08-04 12:34:19,827936
3,1,48,6,1,1,-7,-4,2021-08-04 12:34:19,841933
-9,1,-74,-5,-4,0,3,-5,2021-08-04 12:34:19,841933
9,-7,-15,1,-2,0,-7,-4,2021-08-04 12:34:19,847937
-8,4,50,-3,3,1,5,3,2021-08-04 12:34:19,853935
-5,0,-26,4,2,1,4,-2,2021-08-04 12:34:19,863936
3,-5,-11,-8,0,-2,-4,-5,2021-08-04 12:34:19,863936
-4,-7,33,-1,-5,-4,0,-4,2021-08-04 12:34:19,869936
-3,17,23,8,2,1,-4,3,2021-08-04 12:34:19,869936
6,1,-46,6,6,2,0,0,2021-08-04 12:34:19,887940
-7,-7,-44,-17,-8,-5,-5,-3,2021-08-04 12:34:19,893493
7,7,32,24,1,2,-3,2,2021-08-04 12:34:19,899494
-4,-10,-39,-21,-5,-2,-4,-1,2021-08-04 12:34:19,899494
0,-3,-62,-26,4,2,-2,1,2021-08-04 12:34:19,899494
-1,20,106,35,2,0,3,-2,2021-08-04 12:34:19,899494
-3,-14,-24,-31,-5,-2,-2,-2,2021-08-04 12:34:19,907492
-2,-29,76,20,0,-2,-2,-1,2021-08-04 12:34:19,907492
-1,8,-71,21,-8,-4,3,-3,2021-08-04 12:34:19,923491
-8,-26,8,-66,-8,-5,-3,-2,2021-08-04 12:34:19,923491
7,15,-39,-15,4,2,0,2,2021-08-04 12:34:19,931491
4,21,62,39,4,3,0,1,2021-08-04 12:34:19,931491
-2,1,78,-8,-7,-3,-3,-4,2021-08-04 12:34:19,945492
0,10,92,31,2,1,2,-3,2021-08-04 12:34:19,945492
-6,-2,-57,0,-1,-3,-4,5,2021-08-04 12:34:19,945492
11,-9,-66,-28,0,1,-2,0,2021-08-04 12:34:19,945492
1,-15,34,-6,-1,0,1,3,2021-08-04 12:34:19,961495
1,9,72,9,-4,-2,-3,-2,2021-08-04 12:34:19,968492
0,-1,-55,2,0,0,0,1,2021-08-04 12:34:19,974492
0,12,15,5,2,1,0,1,2021-08-04 12:34:19,981495
-2,-2,21,11,-1,-4,-2,-3,2021-08-04 12:34:19,981495
2,-15,-114,-28,-3,-3,-2,2,2021-08-04 12:34:19,981495
3,6,12,-7,1,-3,0,-2,2021-08-04 12:34:19,990493
-9,-13,13,4,-2,-2,-3,-2,2021-08-04 12:34:19,990493
3,6,5,6,2,-1,-1,1,2021-08-04 12:34:20,006493
-10,-21,-51,-12,3,1,0,-3,2021-08-04 12:34:20,006493
0,-3,79,31,-2,-1,-2,-2,2021-08-04 12:34:20,006493
-7,1,-54,2,-4,-3,-1,-1,2021-08-04 12:34:20,006493
-1,0,-2,-27,0,-2,-1,-1,2021-08-04 12:34:20,022494
3,6,-11,13,2,0,-1,-1,2021-08-04 12:34:20,022494
4,4,20,-1,3,4,1,-2,2021-08-04 12:34:20,028493
2,3,59,15,-3,-2,-4,-2,2021-08-04 12:34:20,028493
-6,-17,2,-29,-10,-7,-4,-3,2021-08-04 12:34:20,043494
-6,-4,-1,-4,2,-1,-2,-2,2021-08-04 12:34:20,050493
0,-10,4,9,-2,-3,-1,0,2021-08-04 12:34:20,062494
2,18,6,-11,3,4,0,1,2021-08-04 12:34:20,069493
-5,-6,28,10,-2,-3,-1,-3,2021-08-04 12:34:20,069493
5,10,-4,2,-2,-2,-1,0,2021-08-04 12:34:20,076493
3,8,-63,1,6,4,3,0,2021-08-04 12:34:20,076493
3,4,-62,-4,6,1,0,0,2021-08-04 12:34:20,076493
-6,-8,11,3,-6,-4,-3,-5,2021-08-04 12:34:20,076493
1,7,-56,15,0,0,0,1,2021-08-04 12:34:20,076493
-2,2,88,17,3,1,-2,-1,2021-08-04 12:34:20,089492
3,2,-42,-33,-2,0,2,1,2021-08-04 12:34:20,089492
-4,10,74,58,0,-2,-1,-3,2021-08-04 12:34:20,104009
-4,-10,12,-34,-7,-4,0,-2,2021-08-04 12:34:20,104009
0,17,21,14,-3,-4,-3,-3,2021-08-04 12:34:20,110008
-1,-18,3,-40,4,4,-1,1,2021-08-04 12:34:20,116007
3,4,41,45,1,0,0,5,2021-08-04 12:34:20,127006
1,3,73,-14,-7,-1,2,0,2021-08-04 12:34:20,133005
17,-9,62,11,0,-1,0,0,2021-08-04 12:34:20,133005
-5,7,-40,-36,-2,0,-1,-8,2021-08-04 12:34:20,139006
9,9,-18,14,5,5,0,3,2021-08-04 12:34:20,139006
-4,0,17,50,-5,-6,-3,0,2021-08-04 12:34:20,139006
0,-6,-14,-61,-10,-8,-3,-4,2021-08-04 12:34:20,148008
-3,-3,78,37,5,0,2,-1,2021-08-04 12:34:20,154007
0,-1,-86,-23,-5,0,1,-2,2021-08-04 12:34:20,160007
4,0,-12,-24,5,2,4,-2,2021-08-04 12:34:20,160007
-11,-6,-9,-8,-3,-2,-10,0,2021-08-04 12:34:20,170007
8,1,-9,32,-2,2,3,-1,2021-08-04 12:34:20,176008
-1,-2,-16,-16,0,-2,6,-2,2021-08-04 12:34:20,188006
-1,-3,16,32,0,-1,-5,19,2021-08-04 12:34:20,194007
18,-4,-88,-32,-4,0,-2,5,2021-08-04 12:34:20,194007
-29,-2,-5,15,2,-2,-13,-24,2021-08-04 12:34:20,194007
-10,-8,26,-4,-5,-3,-25,4,2021-08-04 12:34:20,201007
13,-2,-6,0,-1,-1,-1,-4,2021-08-04 12:34:20,207007
-8,-8,19,15,0,0,10,5,2021-08-04 12:34:20,213006
6,-5,39,-1,-5,-4,-8,2,2021-08-04 12:34:20,213006
5,4,3,-10,2,2,8,1,2021-08-04 12:34:20,224006
-12,-10,-14,-35,-9,-7,-2,-9,2021-08-04 12:34:20,224006
-8,-1,-9,4,3,1,5,-6,2021-08-04 12:34:20,230015
2,-1,4,5,1,2,9,5,2021-08-04 12:34:20,230015
-4,2,19,-1,3,1,0,-4,2021-08-04 12:34:20,247008
-5,-18,-38,5,-2,-3,-3,-1,2021-08-04 12:34:20,247008
2,4,8,8,3,1,2,-2,2021-08-04 12:34:20,260011
4,0,-11,17,1,1,-2,6,2021-08-04 12:34:20,260011
-16,-5,-53,-39,-4,-3,5,-1,2021-08-04 12:34:20,260011
-21,4,0,5,-3,-2,-4,-6,2021-08-04 12:34:20,260011
-2,-5,-53,-23,-1,2,-2,11,2021-08-04 12:34:20,268026
2,1,34,14,3,0,1,1,2021-08-04 12:34:20,268026
5,14,40,-13,-5,-2,-5,-3,2021-08-04 12:34:20,285011
10,11,11,12,1,-1,3,-2,2021-08-04 12:34:20,285011
-14,-3,-48,-19,0,-3,-1,-1,2021-08-04 12:34:20,285011
2,8,-2,-13,-1,0,-8,0,2021-08-04 12:34:20,291011
11,13,65,8,-1,-1,4,0,2021-08-04 12:34:20,307008
-2,-19,-18,-18,-2,-3,-2,2,2021-08-04 12:34:20,307008
-3,5,12,20,-1,-1,5,-5,2021-08-04 12:34:20,307008
5,0,-13,8,1,0,-1,0,2021-08-04 12:34:20,307008
1,-5,67,-29,-3,-1,1,-1,2021-08-04 12:34:20,320008
-6,-6,67,1,-5,-7,-4,-3,2021-08-04 12:34:20,320008
1,2,34,22,4,3,-7,-3,2021-08-04 12:34:20,330006
-5,1,56,-3,-3,-1,0,-3,2021-08-04 12:34:20,330006
0,-2,-75,22,2,2,1,3,2021-08-04 12:34:20,343037
10,4,-43,-28,0,3,1,2,2021-08-04 12:34:20,349038
-9,-17,2,34,-1,0,-1,-4,2021-08-04 12:34:20,349038
-3,2,16,5,4,1,0,3,2021-08-04 12:34:20,349038
3,-1,30,-21,-3,-3,0,-3,2021-08-04 12:34:20,367039
6,-3,11,-2,0,2,-1,0,2021-08-04 12:34:20,367039
-3,14,-7,-3,-3,-3,-5,-5,2021-08-04 12:34:20,367039
-4,0,14,16,8,2,2,-4,2021-08-04 12:34:20,367039
1,-7,-34,-11,-2,-1,-2,-2,2021-08-04 12:34:20,381038
-4,6,3,13,-4,-4,-3,-2,2021-08-04 12:34:20,381038
3,-9,88,-16,0,2,0,-1,2021-08-04 12:34:20,389041
-1,-11,28,-3,-5,-1,0,-5,2021-08-04 12:34:20,395041
-5,-13,-119,-1,-6,-3,-1,-2,2021-08-04 12:34:20,403041
7,17,57,33,4,0,2,0,2021-08-04 12:34:20,410040
0,-15,-7,-52,-2,0,0,-2,2021-08-04 12:34:20,410040
-4,-19,-27,-8,-2,0,-1,1,2021-08-04 12:34:20,410040
-4,-7,-38,-8,-6,-4,-5,-4,2021-08-04 12:34:20,425038
1,0,-21,-4,-1,-1,0,0,2021-08-04 12:34:20,425038
1,3,-14,19,6,3,-3,0,2021-08-04 12:34:20,425038
2,5,-2,4,0,1,1,2,2021-08-04 12:34:20,425038
-4,-10,-5,-11,-3,-2,-1,0,2021-08-04 12:34:20,441039
-1,-3,33,4,-1,-1,0,-2,2021-08-04 12:34:20,441039
-2,6,-63,-1,-1,-1,0,-3,2021-08-04 12:34:20,449039
-4,-8,-6,-22,-3,-4,0,-1,2021-08-04 12:34:20,449039
0,-1,40,13,-3,-1,-1,-1,2021-08-04 12:34:20,465037
3,-13,-51,4,-1,-2,1,0,2021-08-04 12:34:20,465037
0,4,20,14,-1,1,-3,0,2021-08-04 12:34:20,465037
1,5,-5,-29,-2,0,0,1,2021-08-04 12:34:20,465037
4,2,-25,12,5,1,2,-1,2021-08-04 12:34:20,488039
-5,-7,62,-4,-4,-3,-2,-1,2021-08-04 12:34:20,488039
-4,-3,-55,-33,-3,-3,-2,-2,2021-08-04 12:34:20,488039
-1,-2,-43,16,2,1,-2,1,2021-08-04 12:34:20,488039
3,8,70,10,2,1,0,0,2021-08-04 12:34:20,500054
0,-5,-46,0,-1,-3,0,-1,2021-08-04 12:34:20,500054
-2,-6,57,7,1,-2,0,0,2021-08-04 12:34:20,510041
-3,-5,-42,-10,-6,-2,-1,-1,2021-08-04 12:34:20,510041
-1,0,9,-1,4,2,-1,-2,2021-08-04 12:34:20,524042
3,6,-1,3,1,0,0,0,2021-08-04 12:34:20,524042
-2,-4,7,4,-2,-1,0,-1,2021-08-04 12:34:20,530042
-7,-26,-13,-5,-4,-4,-3,-1,2021-08-04 12:34:20,530042
2,7,31,17,0,-2,-2,0,2021-08-04 12:34:20,546039
-3,-3,-72,-16,-4,-3,0,-3,2021-08-04 12:34:20,546039
2,3,-7,-10,0,-1,-2,-1,2021-08-04 12:34:20,553039
-2,7,-6,-7,-1,0,0,0,2021-08-04 12:34:20,553039
4,-1,24,11,-3,-3,-3,-2,2021-08-04 12:34:20,561039
-2,-9,21,-12,-1,1,0,3,2021-08-04 12:34:20,561039
-2,-1,-63,-6,-3,-1,-1,-3,2021-08-04 12:34:20,570037
-2,5,17,2,1,-1,0,0,2021-08-04 12:34:20,570037
3,5,52,19,1,-2,0,1,2021-08-04 12:34:20,584039
-2,-5,-19,-13,-2,1,-1,0,2021-08-04 12:34:20,584039
-1,8,19,20,3,2,0,-1,2021-08-04 12:34:20,590040
5,13,24,-14,-3,-2,-3,0,2021-08-04 12:34:20,596038
-6,13,-60,-18,-6,-2,-1,-2,2021-08-04 12:34:20,606038
1,20,74,29,0,-2,-1,-3,2021-08-04 12:34:20,606038
-4,-32,-75,-3,-1,-1,-1,-1,2021-08-04 12:34:20,612038
1,2,-19,-7,2,3,2,-1,2021-08-04 12:34:20,612038
5,6,20,-1,-3,-1,0,3,2021-08-04 12:34:20,626038
-1,3,-14,-12,-2,-3,-2,-1,2021-08-04 12:34:20,626038
0,6,122,28,0,-1,-2,-1,2021-08-04 12:34:20,643038
1,4,-24,-18,-2,-3,-1,-2,2021-08-04 12:34:20,643038
-2,-22,-112,-22,-6,-7,-2,-2,2021-08-04 12:34:20,643038
0,0,-3,16,3,0,4,0,2021-08-04 12:34:20,643038
2,5,26,13,0,-1,-1,2,2021-08-04 12:34:20,651037
-3,-5,25,-8,4,2,-1,-1,2021-08-04 12:34:20,651037
-3,0,27,2,-4,0,-1,-2,2021-08-04 12:34:20,667040
-1,1,20,3,0,0,-2,1,2021-08-04 12:34:20,667040
-1,6,-72,-12,-1,1,1,1,2021-08-04 12:34:20,674040
1,7,-21,7,0,1,1,0,2021-08-04 12:34:20,680040
-2,-4,-14,-9,-2,-2,-2,-2,2021-08-04 12:34:20,680040
-2,-5,33,17,-2,-3,-2,0,2021-08-04 12:34:20,680040
-1,-1,2,-28,1,1,0,0,2021-08-04 12:34:20,690038
2,4,56,6,0,0,0,1,2021-08-04 12:34:20,690038
6,11,74,3,2,0,0,1,2021-08-04 12:34:20,705040
-8,-13,-22,0,-10,-6,-4,-3,2021-08-04 12:34:20,705040
1,9,35,14,7,-1,1,-1,2021-08-04 12:34:20,705040
-1,3,11,14,-2,1,0,-2,2021-08-04 12:34:20,705040
-2,-13,-87,-25,1,-2,-2,-2,2021-08-04 12:34:20,727039
3,9,39,-13,0,1,1,-2,2021-08-04 12:34:20,727039
-2,-8,-33,-2,-2,-1,-2,-1,2021-08-04 12:34:20,727039
-5,-6,-43,10,-4,-5,-4,-3,2021-08-04 12:34:20,727039
-3,-9,2,-22,-4,-2,-1,-2,2021-08-04 12:34:20,750042
3,0,-32,-7,0,1,-3,0,2021-08-04 12:34:20,750042
-3,3,23,5,-1,0,-1,0,2021-08-04 12:34:20,756039
0,-1,-52,0,2,0,0,0,2021-08-04 12:34:20,756039
0,0,2,10,-2,-2,-1,-1,2021-08-04 12:34:20,762039
-1,0,14,12,2,1,-3,-1,2021-08-04 12:34:20,762039
-1,3,3,-38,-2,0,-1,-1,2021-08-04 12:34:20,770040
0,3,13,25,2,0,0,0,2021-08-04 12:34:20,770040
4,-8,11,7,-6,-5,-2,-2,2021-08-04 12:34:20,786039
-25,4,-6,-7,0,0,0,-1,2021-08-04 12:34:20,786039
2,2,-10,6,2,1,1,-1,2021-08-04 12:34:20,793043
2,2,26,-10,1,0,0,1,2021-08-04 12:34:20,793043
-2,-8,16,-13,-6,-3,-2,-3,2021-08-04 12:34:20,808038
3,-12,-22,-6,-2,-2,-2,-4,2021-08-04 12:34:20,814041
-5,-4,-51,-14,-1,-1,-2,-2,2021-08-04 12:34:20,814041
-2,6,49,29,3,2,2,1,2021-08-04 12:34:20,814041
2,4,-2,-13,-1,0,0,1,2021-08-04 12:34:20,824039
2,-6,23,2,-1,-1,-3,-2,2021-08-04 12:34:20,824039
5,16,5,-17,0,0,1,0,2021-08-04 12:34:20,830040
5,-6,-13,24,3,3,-1,-2,2021-08-04 12:34:20,830040
-10,-6,49,12,-5,-3,-2,-2,2021-08-04 12:34:20,846038
4,-1,-35,-10,-3,1,2,0,2021-08-04 12:34:20,846038
-3,-4,10,-3,-1,-1,1,0,2021-08-04 12:34:20,853039
-3,-4,6,-19,-1,-1,-1,-2,2021-08-04 12:34:20,853039
-1,-1,8,7,1,1,0,2,2021-08-04 12:34:20,870037
-2,-4,-16,-7,1,-1,-1,0,2021-08-04 12:34:20,870037
-1,1,25,12,-1,-1,-3,-3,2021-08-04 12:34:20,876042
-4,-7,-49,-25,-5,-1,-5,0,2021-08-04 12:34:20,882042
-2,-2,14,56,0,-1,-1,-2,2021-08-04 12:34:20,882042
5,5,2,-44,1,0,2,0,2021-08-04 12:34:20,882042
-1,-4,-51,29,-1,-2,-2,-2,2021-08-04 12:34:20,890042
-8,3,45,0,-4,-2,1,-4,2021-08-04 12:34:20,890042
1,-7,-119,-20,-3,0,0,0,2021-08-04 12:34:20,907039
2,0,47,-22,-4,-1,-3,-1,2021-08-04 12:34:20,914038
-3,-2,-52,42,1,-2,-1,-2,2021-08-04 12:34:20,914038
3,2,-6,-25,2,0,-3,-2,2021-08-04 12:34:20,914038
-2,-1,11,14,1,-1,-1,-2,2021-08-04 12:34:20,928038
-1,-1,-5,-4,-4,-4,-1,-6,2021-08-04 12:34:20,934038
0,-1,44,-28,-1,1,0,0,2021-08-04 12:34:20,934038
-3,-5,3,38,-3,-4,-2,-2,2021-08-04 12:34:20,934038
2,11,27,-34,0,0,0,1,2021-08-04 12:34:20,949038
2,-9,-47,17,6,2,1,0,2021-08-04 12:34:20,949038
-2,-4,39,18,-5,-2,-2,1,2021-08-04 12:34:20,949038
-1,0,-20,-10,-3,-3,-1,-3,2021-08-04 12:34:20,949038
2,2,35,0,4,1,1,3,2021-08-04 12:34:20,965038
-2,2,9,9,-4,-5,-1,-1,2021-08-04 12:34:20,965038
-2,0,-13,2,3,2,1,-1,2021-08-04 12:34:20,974039
0,1,15,-4,-2,0,-1,-1,2021-08-04 12:34:20,974039
-2,-1,-19,-27,-1,-1,-3,-1,2021-08-04 12:34:20,989094
1,2,16,22,2,2,2,2,2021-08-04 12:34:20,989094
-2,-4,0,13,-5,-3,0,-3,2021-08-04 12:34:20,989094
-3,-11,61,-6,-4,-2,-3,-5,2021-08-04 12:34:21,000040
2,-1,3,22,3,2,-1,1,2021-08-04 12:34:21,000040
0,4,-73,-49,-6,-1,-2,-2,2021-08-04 12:34:21,000040
-2,-10,-11,-4,2,-1,0,-1,2021-08-04 12:34:21,010041
0,0,27,-7,-1,-1,0,-2,2021-08-04 12:34:21,010041
2,3,46,52,0,0,-1,1,2021-08-04 12:34:21,024040
1,-8,-13,5,3,2,2,3,2021-08-04 12:34:21,030042
-4,9,22,-2,-1,-1,-3,-1,2021-08-04 12:34:21,030042
0,-2,-19,-19,1,-1,-2,-2,2021-08-04 12:34:21,030042
0,-1,22,28,-3,-2,2,-3,2021-08-04 12:34:21,055038
-1,-1,-44,-41,-1,-1,-1,-1,2021-08-04 12:34:21,055038
-3,-3,41,40,1,3,-1,-2,2021-08-04 12:34:21,055038
5,-5,-3,-66,-5,-2,-1,-1,2021-08-04 12:34:21,055038
2,8,-24,12,-1,-1,1,-2,2021-08-04 12:34:21,065040
-1,2,-1,17,3,0,0,1,2021-08-04 12:34:21,065040
-1,-3,14,-10,-2,-2,-3,-2,2021-08-04 12:34:21,065040
-1,2,-10,0,0,0,1,-1,2021-08-04 12:34:21,065040
-3,-14,-28,-20,-4,-2,-4,1,2021-08-04 12:34:21,084040
-2,3,-6,36,2,-1,0,-1,2021-08-04 12:34:21,084040
-1,0,-23,-35,1,2,-1,0,2021-08-04 12:34:21,093096
-1,9,61,57,2,1,0,2,2021-08-04 12:34:21,093096
-1,-7,-5,-52,-8,-6,-2,-3,2021-08-04 12:34:21,108039
3,8,72,26,6,3,0,2,2021-08-04 12:34:21,108039
4,10,11,6,1,0,2,1,2021-08-04 12:34:21,108039
-3,-6,-44,-33,-2,0,0,-2,2021-08-04 12:34:21,108039
-1,-2,11,42,-1,-1,-2,-3,2021-08-04 12:34:21,130039
-2,-2,25,-30,-4,-2,-1,-1,2021-08-04 12:34:21,136037
-2,-7,-8,-22,2,0,1,1,2021-08-04 12:34:21,149039
1,0,-23,11,-3,-2,-3,-1,2021-08-04 12:34:21,149039
2,0,-57,-10,4,1,0,1,2021-08-04 12:34:21,149039
-5,2,-10,31,0,-2,-4,-3,2021-08-04 12:34:21,149039
0,1,27,6,-3,-1,-1,2,2021-08-04 12:34:21,149039
-1,-2,54,23,0,0,0,-1,2021-08-04 12:34:21,149039
-1,-11,-66,-47,-6,-4,-4,-1,2021-08-04 12:34:21,170039
0,-1,-16,-33,1,1,1,-1,2021-08-04 12:34:21,170039
-4,-3,40,8,-7,-3,-5,-3,2021-08-04 12:34:21,170039
3,6,-7,18,3,1,0,1,2021-08-04 12:34:21,170039
1,0,4,5,-2,1,1,0,2021-08-04 12:34:21,184037
-1,0,-34,-17,-4,-2,-1,-1,2021-08-04 12:34:21,184037
0,2,5,-19,1,1,0,-2,2021-08-04 12:34:21,192039
-2,0,-35,-5,0,0,0,-1,2021-08-04 12:34:21,206039
1,6,1,30,-5,-4,-3,0,2021-08-04 12:34:21,212040
-4,-7,-20,-11,-2,-2,0,-1,2021-08-04 12:34:21,212040
-1,-4,11,4,3,0,-1,-1,2021-08-04 12:34:21,212040
-2,-1,24,8,0,-1,-3,0,2021-08-04 12:34:21,212040
0,4,-50,-37,-1,2,0,1,2021-08-04 12:34:21,236040
-1,1,83,12,-1,-2,-2,-3,2021-08-04 12:34:21,236040
-3,-5,-74,2,0,-1,-2,-2,2021-08-04 12:34:21,248038
-2,-16,7,0,-3,-2,-3,0,2021-08-04 12:34:21,248038
-2,8,7,-38,-2,-2,-1,1,2021-08-04 12:34:21,254039
-1,-1,32,34,-3,-1,-1,-2,2021-08-04 12:34:21,254039
3,17,-9,7,2,1,0,1,2021-08-04 12:34:21,254039
2,3,16,-10,-3,0,-1,-1,2021-08-04 12:34:21,254039
-3,-10,9,12,1,-2,0,-4,2021-08-04 12:34:21,267039
1,1,-5,3,1,0,1,0,2021-08-04 12:34:21,267039
-2,-2,-80,-8,0,-1,1,-2,2021-08-04 12:34:21,280040
-1,-5,-3,6,-5,-2,0,0,2021-08-04 12:34:21,280040
-2,0,60,7,-2,-2,-3,-3,2021-08-04 12:34:21,297040
1,3,-21,8,2,0,1,0,2021-08-04 12:34:21,297040
-3,-6,14,14,0,0,-3,-3,2021-08-04 12:34:21,297040
1,3,-29,-62,0,1,0,1,2021-08-04 12:34:21,303038
-2,-8,14,6,-3,-4,-1,-2,2021-08-04 12:34:21,325040
-1,2,31,30,3,0,-1,-1,2021-08-04 12:34:21,331083
-2,-2,-24,-8,-1,0,-1,0,2021-08-04 12:34:21,331083
-2,-1,-7,7,-5,-4,-1,-2,2021-08-04 12:34:21,331083
5,5,15,-10,0,0,0,4,2021-08-04 12:34:21,331083
-2,-3,35,6,-1,0,-2,-1,2021-08-04 12:34:21,331083
0,-4,-34,-19,0,0,0,2,2021-08-04 12:34:21,331083
2,11,2,6,-1,-2,-1,-1,2021-08-04 12:34:21,331083
4,3,19,6,-3,-1,0,0,2021-08-04 12:34:21,348040
5,2,-28,13,0,-1,0,-1,2021-08-04 12:34:21,348040
-23,-9,23,-30,-1,-1,-2,-6,2021-08-04 12:34:21,348040
5,-1,-11,25,3,0,-1,-1,2021-08-04 12:34:21,361095
2,1,-27,-7,-3,-1,0,-1,2021-08-04 12:34:21,368073
-5,-2,14,0,-1,0,-1,-1,2021-08-04 12:34:21,368073
3,-1,15,2,2,-1,-1,-2,2021-08-04 12:34:21,368073
-5,-7,-84,-17,-2,-2,-2,-2,2021-08-04 12:34:21,368073
-7,-6,33,9,-3,-2,-2,-4,2021-08-04 12:34:21,385073
1,-2,-32,-11,1,0,-2,0,2021-08-04 12:34:21,385073
2,0,74,15,1,1,-2,-1,2021-08-04 12:34:21,393040
0,-3,-8,10,-4,-3,-1,1,2021-08-04 12:34:21,393040
3,3,-1,-12,-2,-1,-2,-1,2021-08-04 12:34:21,409096
-2,-4,10,-2,-4,-3,0,-1,2021-08-04 12:34:21,409096
-1,-1,8,-13,-3,0,-1,0,2021-08-04 12:34:21,409096
-3,0,-1,-1,-1,-1,-2,0,2021-08-04 12:34:21,409096
-2,-3,-27,2,2,0,-1,-2,2021-08-04 12:34:21,425038
-1,0,-28,32,0,1,-1,-1,2021-08-04 12:34:21,431039
-2,2,56,8,-1,-4,-1,-2,2021-08-04 12:34:21,431039
2,-3,-45,-30,-3,0,1,0,2021-08-04 12:34:21,431039
-5,-7,-2,-30,3,-1,0,1,2021-08-04 12:34:21,445072
1,4,-11,21,4,1,0,2,2021-08-04 12:34:21,445072
6,2,-24,52,2,2,0,1,2021-08-04 12:34:21,452096
-7,-8,19,-38,-10,-6,-2,-2,2021-08-04 12:34:21,452096
2,4,29,37,2,0,0,0,2021-08-04 12:34:21,469039
-3,-6,-34,-29,-3,0,0,0,2021-08-04 12:34:21,469039
3,-1,-6,-4,2,1,2,-1,2021-08-04 12:34:21,480042
5,6,19,41,3,0,-2,-6,2021-08-04 12:34:21,480042
-4,-3,9,-3,-7,-2,-1,-1,2021-08-04 12:34:21,487075
-4,-2,3,-1,-4,-4,-2,-3,2021-08-04 12:34:21,487075
0,-6,14,-93,-7,-4,-1,0,2021-08-04 12:34:21,487075
3,8,35,57,1,1,0,3,2021-08-04 12:34:21,487075
-4,-5,-40,10,-2,-4,0,-2,2021-08-04 12:34:21,514518
-3,2,50,34,2,0,-2,-2,2021-08-04 12:34:21,514518
-5,-3,-51,-22,2,2,0,-1,2021-08-04 12:34:21,514518
0,0,-4,-26,1,-2,0,0,2021-08-04 12:34:21,521027
1,0,11,7,-2,-2,-2,-1,2021-08-04 12:34:21,533028
-2,-3,-36,-28,1,0,1,0,2021-08-04 12:34:21,539033
-1,2,53,18,-1,-1,-1,0,2021-08-04 12:34:21,539033
-4,-10,-9,-7,-3,-2,-3,-1,2021-08-04 12:34:21,539033
3,1,-42,8,0,0,0,0,2021-08-04 12:34:21,539033
-2,-8,4,-25,-4,-3,-2,-2,2021-08-04 12:34:21,539033
0,-5,-42,5,4,3,1,0,2021-08-04 12:34:21,552029
3,12,50,14,2,0,0,0,2021-08-04 12:34:21,552029
0,-3,25,-9,-5,-2,0,0,2021-08-04 12:34:21,566088
-1,-3,-10,-7,1,0,-3,-2,2021-08-04 12:34:21,573030
-8,7,2,8,-1,-1,-2,-1,2021-08-04 12:34:21,573030
0,-7,6,7,-1,0,0,2,2021-08-04 12:34:21,573030
3,2,4,-4,-1,-2,2,-2,2021-08-04 12:34:21,589030
-4,2,4,-8,-3,-1,0,-2,2021-08-04 12:34:21,589030
1,-7,21,29,3,1,-1,-3,2021-08-04 12:34:21,595086
5,-4,-78,-23,-5,-4,-2,-2,2021-08-04 12:34:21,602087
-17,1,28,-3,-2,-2,-3,-5,2021-08-04 12:34:21,602087
6,1,5,-5,2,1,0,3,2021-08-04 12:34:21,602087
-1,-7,-9,0,-3,-2,-1,-4,2021-08-04 12:34:21,609088
-2,2,3,-7,-2,-1,1,-2,2021-08-04 12:34:21,609088
7,1,17,23,2,-4,-1,0,2021-08-04 12:34:21,625032
0,3,69,8,-1,1,2,1,2021-08-04 12:34:21,631033
-5,-2,-24,-57,-1,1,0,1,2021-08-04 12:34:21,637027
4,8,6,30,-3,-1,-1,-1,2021-08-04 12:34:21,644027
0,-9,13,-5,-2,-1,0,0,2021-08-04 12:34:21,651027
-4,2,10,5,-2,-2,-3,-2,2021-08-04 12:34:21,651027
4,7,5,3,5,4,0,1,2021-08-04 12:34:21,651027
-4,-7,-77,27,-4,-1,-1,-1,2021-08-04 12:34:21,651027
2,-1,70,-37,-5,-3,-2,-3,2021-08-04 12:34:21,672040
-4,-7,-119,23,1,-1,-3,-1,2021-08-04 12:34:21,672040
-1,3,17,-30,-3,-3,-1,-1,2021-08-04 12:34:21,672040
-3,-3,26,26,4,0,0,1,2021-08-04 12:34:21,672040
0,-4,-78,-19,-4,-2,-2,1,2021-08-04 12:34:21,685027
-3,-8,-18,-26,0,0,0,-1,2021-08-04 12:34:21,685027
-2,3,-23,42,2,0,-2,-1,2021-08-04 12:34:21,693027
-1,-3,25,-19,-2,0,2,1,2021-08-04 12:34:21,693027
1,3,36,15,-1,-3,-2,-1,2021-08-04 12:34:21,717027
-2,1,-6,-36,-1,1,0,0,2021-08-04 12:34:21,717027
-6,-9,-64,24,1,1,0,0,2021-08-04 12:34:21,717027
-2,1,94,-98,-9,-4,-2,-2,2021-08-04 12:34:21,717027
1,-3,-51,49,-2,0,0,-2,2021-08-04 12:34:21,731030
-1,3,58,-6,-4,-3,0,-2,2021-08-04 12:34:21,731030
1,5,14,85,5,2,1,0,2021-08-04 12:34:21,731030
-3,-4,-19,-69,-2,-3,-2,-3,2021-08-04 12:34:21,731030
6,11,13,38,-4,-2,0,4,2021-08-04 12:34:21,745058
-1,-5,-14,31,6,2,2,-2,2021-08-04 12:34:21,751042
-1,7,68,-2,-2,0,-1,0,2021-08-04 12:34:21,761029
1,4,-36,22,-2,-3,-4,-1,2021-08-04 12:34:21,761029
0,1,8,-23,-1,-1,-1,1,2021-08-04 12:34:21,769029
-2,-5,-44,6,3,0,-1,1,2021-08-04 12:34:21,769029
3,4,52,-39,-3,0,-2,0,2021-08-04 12:34:21,776028
-6,-3,42,44,3,-1,-3,-3,2021-08-04 12:34:21,776028
0,-6,-57,-33,-8,-2,0,1,2021-08-04 12:34:21,797030
-1,5,-40,-23,-1,-1,0,-1,2021-08-04 12:34:21,797030
-2,0,-31,-31,-1,0,-1,-1,2021-08-04 12:34:21,797030
-2,-9,19,22,1,0,-1,0,2021-08-04 12:34:21,797030
0,-5,2,16,2,-1,-2,-1,2021-08-04 12:34:21,813029
0,0,36,38,-2,-1,-1,-1,2021-08-04 12:34:21,819030
-2,-2,5,-10,0,-1,-1,-1,2021-08-04 12:34:21,819030
5,11,46,40,1,0,2,1,2021-08-04 12:34:21,819030
-2,-10,6,0,2,-2,-1,0,2021-08-04 12:34:21,834027
-1,3,-23,-44,-4,-1,0,-1,2021-08-04 12:34:21,834027
-5,-5,-34,38,-4,-4,-3,-3,2021-08-04 12:34:21,840038
0,-4,-46,-45,-3,1,0,-2,2021-08-04 12:34:21,840038
0,0,13,10,-1,-3,-1,1,2021-08-04 12:34:21,845027
1,6,34,13,3,2,0,0,2021-08-04 12:34:21,845027
-1,-2,13,-13,-3,0,-1,-1,2021-08-04 12:34:21,852027
0,0,-14,19,0,-1,-1,-1,2021-08-04 12:34:21,852027
1,-3,-30,-10,3,2,1,1,2021-08-04 12:34:21,866027
-6,-1,44,-1,-7,-3,-3,-5,2021-08-04 12:34:21,866027
-5,-12,-4,16,-3,-3,-1,-2,2021-08-04 12:34:21,873031
2,2,-50,-11,2,-1,0,0,2021-08-04 12:34:21,873031
-1,-3,-4,-26,2,1,2,-1,2021-08-04 12:34:21,889030
-3,-9,-35,35,-4,-4,-1,-1,2021-08-04 12:34:21,889030
-3,3,47,-37,-2,-1,0,-4,2021-08-04 12:34:21,895028
0,-4,-13,1,-3,-3,-1,1,2021-08-04 12:34:21,895028
-1,8,51,0,-3,-4,0,-2,2021-08-04 12:34:21,911029
0,-8,8,-2,2,0,0,-1,2021-08-04 12:34:21,911029
-1,-6,-93,-10,1,0,-1,0,2021-08-04 12:34:21,917030
1,7,27,36,1,-1,-2,1,2021-08-04 12:34:21,917030
0,-4,21,9,-1,0,-1,-1,2021-08-04 12:34:21,925030
-4,-2,0,-27,-2,-1,-1,-6,2021-08-04 12:34:21,925030
0,5,8,-41,-1,0,-1,-1,2021-08-04 12:34:21,934030
3,1,19,5,2,1,3,1,2021-08-04 12:34:21,934030
-3,-3,-65,-28,-8,-4,-2,-3,2021-08-04 12:34:21,949029
-3,2,47,53,-3,-3,-1,0,2021-08-04 12:34:21,949029
2,7,84,-23,5,1,-1,-1,2021-08-04 12:34:21,956029
-4,-10,-31,-13,-5,-4,-2,-2,2021-08-04 12:34:21,956029
1,3,24,4,1,-1,0,2,2021-08-04 12:34:21,980033
3,1,-3,-9,3,1,0,3,2021-08-04 12:34:21,980033
-1,1,-22,25,4,3,-1,1,2021-08-04 12:34:21,980033
0,-5,40,9,-5,-4,-1,-2,2021-08-04 12:34:21,980033
0,2,-29,-6,-1,0,-1,-1,2021-08-04 12:34:21,980033
2,8,-6,3,5,2,1,0,2021-08-04 12:34:21,986027
-3,-11,-43,-24,-4,-2,-1,-3,2021-08-04 12:34:21,994076
-2,-11,1,-16,-1,-3,-2,-2,2021-08-04 12:34:21,994076
1,-7,20,44,-4,-3,-1,-2,2021-08-04 12:34:22,010031
-1,14,-19,-67,0,1,0,2,2021-08-04 12:34:22,010031
1,1,10,-14,0,1,2,0,2021-08-04 12:34:22,010031
-1,-5,-34,8,-2,1,-1,-1,2021-08-04 12:34:22,010031
-1,-7,17,-6,-2,-1,-1,-1,2021-08-04 12:34:22,031031
-4,-5,-18,22,-1,-4,-2,-4,2021-08-04 12:34:22,031031
4,5,3,23,2,1,-1,0,2021-08-04 12:34:22,031031
0,5,-3,-9,-5,-2,-3,0,2021-08-04 12:34:22,031031
-4,-1,-15,2,2,-1,0,-1,2021-08-04 12:34:22,046030
3,-1,19,4,0,0,-1,0,2021-08-04 12:34:22,046030
-2,-2,-61,7,-3,-2,-1,-2,2021-08-04 12:34:22,052086
12,17,28,-21,-1,-1,-1,2,2021-08-04 12:34:22,052086
-2,-1,70,30,1,0,-1,2,2021-08-04 12:34:22,069033
-3,-8,-50,-21,-4,-2,-2,1,2021-08-04 12:34:22,075028
0,6,65,10,-1,-4,-2,-3,2021-08-04 12:34:22,075028
-4,-6,-78,-4,-1,1,0,1,2021-08-04 12:34:22,082030
1,-3,6,-13,-1,-2,-1,0,2021-08-04 12:34:22,088029
-2,0,26,5,0,3,0,-3,2021-08-04 12:34:22,088029
-2,-2,10,0,-3,0,-1,-3,2021-08-04 12:34:22,088029
-1,1,24,-3,-1,1,1,-1,2021-08-04 12:34:22,088029
0,-1,-59,-8,-2,-1,-3,-3,2021-08-04 12:34:22,106029
-2,-2,40,14,-1,0,0,-1,2021-08-04 12:34:22,106029
-1,2,38,12,0,0,2,1,2021-08-04 12:34:22,112064
0,-1,-12,1,0,-2,-1,-1,2021-08-04 12:34:22,112064
-3,6,33,7,-7,-2,-1,-1,2021-08-04 12:34:22,128030
-1,-6,14,21,-1,0,-2,-1,2021-08-04 12:34:22,128030
3,3,-30,-12,1,2,0,1,2021-08-04 12:34:22,136029
-1,-4,34,18,-2,-3,-1,1,2021-08-04 12:34:22,136029
2,2,23,8,3,0,0,1,2021-08-04 12:34:22,150033
-4,-5,-61,-26,-5,-3,-3,-1,2021-08-04 12:34:22,150033
-4,-7,-57,-34,2,1,-1,-2,2021-08-04 12:34:22,150033
-1,2,28,21,-1,-1,-1,1,2021-08-04 12:34:22,150033
-1,4,-12,0,-2,-1,-2,-1,2021-08-04 12:34:22,164054
-4,-11,13,-2,0,-1,-1,0,2021-08-04 12:34:22,164054
0,0,-4,0,4,0,0,0,2021-08-04 12:34:22,172086
-1,-5,-29,41,0,0,-3,-1,2021-08-04 12:34:22,172086
1,1,27,-70,-6,-2,0,1,2021-08-04 12:34:22,189029
0,4,43,1,0,-1,-1,0,2021-08-04 12:34:22,189029
-5,-4,-16,15,0,-1,-2,0,2021-08-04 12:34:22,194029
-2,0,-8,11,-3,-2,-2,-2,2021-08-04 12:34:22,194029
1,2,-39,14,2,1,-1,-2,2021-08-04 12:34:22,210028
-5,-9,-33,-23,-2,0,-1,-1,2021-08-04 12:34:22,210028
1,4,65,6,0,0,-2,0,2021-08-04 12:34:22,210028
-1,0,-12,-4,3,0,2,-1,2021-08-04 12:34:22,210028
-5,-10,29,23,-6,-6,-3,-4,2021-08-04 12:34:22,226028
-2,0,64,25,-4,-3,-2,-2,2021-08-04 12:34:22,226028
-2,-2,-24,-48,-1,0,-1,-1,2021-08-04 12:34:22,234028
-1,-4,49,-51,-1,-4,-1,-2,2021-08-04 12:34:22,234028
1,0,7,27,1,-2,-1,0,2021-08-04 12:34:22,254045
5,12,-4,14,2,2,3,2,2021-08-04 12:34:22,254045
-3,-11,-62,21,0,1,-1,0,2021-08-04 12:34:22,263028
0,-1,-66,-11,-3,-1,-1,-1,2021-08-04 12:34:22,263028
-2,-2,16,-31,-1,0,-1,2,2021-08-04 12:34:22,271027
1,5,15,34,1,-1,1,0,2021-08-04 12:34:22,277028
-2,-8,-11,23,-6,-2,-2,-1,2021-08-04 12:34:22,277028
1,0,-13,-20,-2,-1,1,-1,2021-08-04 12:34:22,277028
-1,-2,-30,69,3,0,0,0,2021-08-04 12:34:22,285030
-2,-2,7,-89,0,0,-1,0,2021-08-04 12:34:22,285030
1,-2,-24,-1,0,-1,1,0,2021-08-04 12:34:22,293029
-4,-4,17,29,-1,-2,0,-1,2021-08-04 12:34:22,293029
1,-1,25,-11,-3,-3,1,0,2021-08-04 12:34:22,308032
1,0,-43,12,-1,0,-4,0,2021-08-04 12:34:22,315027
2,7,6,8,3,2,2,-2,2021-08-04 12:34:22,319027
-2,-1,31,-9,-3,-1,-2,-1,2021-08-04 12:34:22,319027
-4,-10,46,-41,-7,-4,-2,-1,2021-08-04 12:34:22,331027
2,12,-9,20,5,1,1,-1,2021-08-04 12:34:22,333029
1,1,22,1,-4,-1,-1,-2,2021-08-04 12:34:22,333029
-1,-7,-10,26,-1,0,0,0,2021-08-04 12:34:22,333029
-2,0,-6,-27,-1,-1,-1,0,2021-08-04 12:34:22,344027
-1,-4,-71,-31,2,0,-2,-1,2021-08-04 12:34:22,344027
-1,1,61,39,3,1,0,-2,2021-08-04 12:34:22,353030
0,1,59,5,-3,0,-1,-1,2021-08-04 12:34:22,360028
-1,-2,-58,7,-2,-1,0,-2,2021-08-04 12:34:22,367554
-2,-6,-8,25,1,0,-1,-1,2021-08-04 12:34:22,367554
0,9,-29,-39,-2,-1,-1,-1,2021-08-04 12:34:22,375543
-3,-3,19,-5,-1,0,-2,-1,2021-08-04 12:34:22,375543
2,0,8,-9,-2,0,-1,0,2021-08-04 12:34:22,391544
-1,0,-16,-23,1,1,1,-1,2021-08-04 12:34:22,398060
-2,-5,6,-13,-3,-2,-3,-1,2021-08-04 12:34:22,404094
2,0,-24,-8,-2,-1,0,1,2021-08-04 12:34:22,410092
-2,1,27,17,2,-1,-2,-4,2021-08-04 12:34:22,410092
-2,-3,-28,5,0,-1,1,0,2021-08-04 12:34:22,410092
-4,-7,31,-17,-9,-3,-1,-3,2021-08-04 12:34:22,410092
0,-3,-32,8,-1,0,-2,-1,2021-08-04 12:34:22,410092
-1,4,-7,-14,0,-2,0,-2,2021-08-04 12:34:22,427093
-1,-9,50,-11,-3,1,-1,0,2021-08-04 12:34:22,427093
1,3,-24,32,4,1,1,1,2021-08-04 12:34:22,452093
-2,-1,19,-6,-2,0,0,-2,2021-08-04 12:34:22,458094
0,0,-62,-11,-3,-3,1,0,2021-08-04 12:34:22,458094
-2,-3,5,0,0,0,1,0,2021-08-04 12:34:22,458094
0,1,-32,-19,3,1,-3,-1,2021-08-04 12:34:22,458094
1,1,-1,40,0,-2,-1,-2,2021-08-04 12:34:22,464092
-5,-11,-23,-76,-5,0,-3,-1,2021-08-04 12:34:22,464092
-2,0,49,12,0,0,0,-2,2021-08-04 12:34:22,464092
1,-1,-57,23,2,-2,-1,0,2021-08-04 12:34:22,474091
2,0,16,-6,-3,-4,-1,0,2021-08-04 12:34:22,474091
-2,-1,45,-5,-2,-1,0,0,2021-08-04 12:34:22,489092
1,3,-12,16,-1,0,-2,-2,2021-08-04 12:34:22,489092
1,-2,31,-35,-1,1,-1,-1,2021-08-04 12:34:22,496093
-1,-6,-3,34,-1,0,1,-2,2021-08-04 12:34:22,502094
0,2,-4,8,0,-1,-2,-2,2021-08-04 12:34:22,509094
-1,1,-2,8,-1,-2,0,-1,2021-08-04 12:34:22,509094
1,1,-38,27,0,1,-2,-2,2021-08-04 12:34:22,517093
0,-9,45,-96,-1,-1,-1,-2,2021-08-04 12:34:22,523094
-1,-5,8,31,-3,-3,-1,-1,2021-08-04 12:34:22,523094
-2,0,-3,21,0,-4,-3,-1,2021-08-04 12:34:22,523094
1,5,83,38,3,0,0,1,2021-08-04 12:34:22,532094
-1,-3,-37,-19,-5,-2,-2,-1,2021-08-04 12:34:22,537094
-2,-3,-36,18,2,1,-2,0,2021-08-04 12:34:22,549095
-1,-1,4,-68,-5,-1,-2,-1,2021-08-04 12:34:22,555092
-3,1,36,15,0,-1,0,1,2021-08-04 12:34:22,555092
-1,4,14,5,-2,-2,0,1,2021-08-04 12:34:22,560093
2,0,-18,26,2,0,-1,-2,2021-08-04 12:34:22,571092
2,15,-9,-10,1,1,-1,2,2021-08-04 12:34:22,571092
-2,-9,-28,-33,-6,-3,0,-1,2021-08-04 12:34:22,580092
1,2,24,24,-2,-1,0,0,2021-08-04 12:34:22,580092
1,2,-50,3,1,-1,0,0,2021-08-04 12:34:22,580092
-1,0,31,11,4,1,-1,1,2021-08-04 12:34:22,580092
-2,0,8,15,-2,0,-1,-2,2021-08-04 12:34:22,593092
0,1,-47,-29,-4,-4,-2,-1,2021-08-04 12:34:22,593092
-2,1,72,-19,-1,-1,-1,-1,2021-08-04 12:34:22,608091
-1,-6,-14,23,0,0,0,-1,2021-08-04 12:34:22,615093
1,-2,38,12,0,1,3,1,2021-08-04 12:34:22,621094
4,16,-53,7,0,0,0,-1,2021-08-04 12:34:22,621094
-1,-3,-55,-7,-1,0,1,0,2021-08-04 12:34:22,631095
-5,-4,46,10,-1,-1,-2,-2,2021-08-04 12:34:22,631095
0,-5,-21,-8,2,0,-3,-2,2021-08-04 12:34:22,640092
-2,-6,5,41,1,0,2,-1,2021-08-04 12:34:22,640092
3,0,-2,-80,-4,0,-1,1,2021-08-04 12:34:22,654092
1,2,-12,31,2,-1,1,-1,2021-08-04 12:34:22,660093
0,0,10,-9,-4,-2,-1,0,2021-08-04 12:34:22,660093
0,-3,-18,-20,-1,-2,-2,-1,2021-08-04 12:34:22,660093
-5,2,32,48,0,-1,0,-3,2021-08-04 12:34:22,669092
-1,-5,-23,-15,-1,0,0,0,2021-08-04 12:34:22,669092
-2,-1,1,-15,-1,-2,-2,-1,2021-08-04 12:34:22,675092
3,12,42,18,0,1,-2,0,2021-08-04 12:34:22,675092
0,1,-42,-20,-1,1,1,0,2021-08-04 12:34:22,685093
-4,-9,40,-8,-2,0,-3,-3,2021-08-04 12:34:22,685093
0,7,-73,20,1,-1,-2,0,2021-08-04 12:34:22,702093
-3,-7,40,-4,-5,-5,-1,-1,2021-08-04 12:34:22,708095
2,7,-14,33,2,0,1,1,2021-08-04 12:34:22,715095
-1,0,-10,-16,1,-2,2,-1,2021-08-04 12:34:22,715095
1,-8,-29,-78,-4,-2,-2,-2,2021-08-04 12:34:22,715095
-5,-10,39,30,-6,-4,-3,-2,2021-08-04 12:34:22,715095
0,-2,3,-10,1,-2,1,-2,2021-08-04 12:34:22,729093
-4,-2,-29,18,-2,-1,-2,0,2021-08-04 12:34:22,736093
-1,-1,48,19,2,-1,0,0,2021-08-04 12:34:22,742093
2,1,-80,-25,-1,-1,-1,1,2021-08-04 12:34:22,742093
-2,-2,62,34,3,1,1,0,2021-08-04 12:34:22,752094
-3,-7,-86,17,-3,-3,-1,-5,2021-08-04 12:34:22,752094
-2,0,29,-47,-7,-3,-2,0,2021-08-04 12:34:22,759091
-1,-5,6,14,-1,1,-3,-1,2021-08-04 12:34:22,759091
-3,-4,27,13,-1,-1,-3,1,2021-08-04 12:34:22,775095
0,6,35,16,1,1,1,-1,2021-08-04 12:34:22,775095
1,0,4,27,4,2,0,-2,2021-08-04 12:34:22,775095
1,-3,2,-43,-7,-4,-1,-1,2021-08-04 12:34:22,775095
-2,-2,-5,8,-1,-2,-1,-1,2021-08-04 12:34:22,788091
1,2,-39,-32,1,0,-1,0,2021-08-04 12:34:22,795091
0,1,15,20,-2,0,0,-1,2021-08-04 12:34:22,795091
2,7,33,-9,1,-1,1,1,2021-08-04 12:34:22,795091
-3,-6,-45,-4,-3,-3,-3,-1,2021-08-04 12:34:22,811093
-2,-1,16,24,-3,-1,0,1,2021-08-04 12:34:22,816099
-1,-4,0,-13,-1,-3,-3,-2,2021-08-04 12:34:22,823093
5,22,-18,17,5,0,1,1,2021-08-04 12:34:22,829092
-3,-7,28,-3,-4,-2,-3,-1,2021-08-04 12:34:22,829092
2,2,6,-16,2,2,0,0,2021-08-04 12:34:22,835093
0,-3,17,14,-1,2,0,0,2021-08-04 12:34:22,841094
-2,-11,-30,-16,-3,-2,-1,-2,2021-08-04 12:34:22,841094
0,4,-19,11,2,1,-1,-2,2021-08-04 12:34:22,848094
-1,3,31,20,1,0,-1,-2,2021-08-04 12:34:22,848094
0,4,16,8,0,-1,-2,4,2021-08-04 12:34:22,855093
-1,-8,-56,-20,-3,-1,-1,-2,2021-08-04 12:34:22,860094
1,3,18,7,1,-2,-1,1,2021-08-04 12:34:22,871093
-1,-1,15,-7,1,1,1,-3,2021-08-04 12:34:22,871093
1,-3,-60,-27,-6,-3,0,-2,2021-08-04 12:34:22,878096
-1,3,-55,9,-3,-3,-2,0,2021-08-04 12:34:22,884093
-2,1,-80,-49,-4,-2,-1,0,2021-08-04 12:34:22,897093
-5,-8,5,-6,3,0,-2,-3,2021-08-04 12:34:22,897093
1,10,38,22,-1,-2,0,-1,2021-08-04 12:34:22,897093
1,-4,11,6,-1,1,-1,1,2021-08-04 12:34:22,897093
-1,6,98,53,-1,-2,2,0,2021-08-04 12:34:22,909093
-1,3,-50,-53,-4,-2,-3,-1,2021-08-04 12:34:22,916093
-3,-8,-61,18,1,-1,-2,-2,2021-08-04 12:34:22,916093
-1,-1,0,-12,-2,-2,0,-3,2021-08-04 12:34:22,916093
-2,0,2,-11,3,2,1,1,2021-08-04 12:34:22,930092
-1,-4,-3,1,-3,1,-2,1,2021-08-04 12:34:22,930092
0,4,38,10,-4,-3,-2,-2,2021-08-04 12:34:22,940093
-2,-4,5,-4,-4,-4,-2,-2,2021-08-04 12:34:22,946094
0,6,1,-8,4,0,1,0,2021-08-04 12:34:22,961097
-2,-2,36,-2,-1,0,0,-2,2021-08-04 12:34:22,967093
-2,-8,-21,-8,1,1,1,0,2021-08-04 12:34:22,973092
-6,-16,77,28,-6,-4,-3,-2,2021-08-04 12:34:22,973092
3,0,-2,-4,-1,1,0,-1,2021-08-04 12:34:22,973092
-2,0,14,40,2,0,-1,-2,2021-08-04 12:34:22,973092
-1,0,-12,-60,-5,-2,-3,-3,2021-08-04 12:34:22,973092
0,0,79,18,1,-3,-2,-3,2021-08-04 12:34:22,973092
-4,-4,-62,-8,-1,-2,-2,-2,2021-08-04 12:34:22,991094
-1,0,19,10,3,1,-2,0,2021-08-04 12:34:22,991094
-1,-4,15,3,-1,-1,-2,-1,2021-08-04 12:34:22,997129
0,2,10,5,-1,-2,2,0,2021-08-04 12:34:22,997129
0,-3,18,-23,-1,1,-2,0,2021-08-04 12:34:23,014656
0,0,-83,-32,0,-1,0,0,2021-08-04 12:34:23,014656
-2,-2,24,14,0,-2,-1,-1,2021-08-04 12:34:23,014656
0,0,-35,16,-3,1,0,2,2021-08-04 12:34:23,014656
-3,1,41,14,2,-1,1,-3,2021-08-04 12:34:23,036654
-3,-6,-2,-6,-1,-1,1,-1,2021-08-04 12:34:23,036654
3,1,-22,9,1,1,-1,1,2021-08-04 12:34:23,036654
-1,-3,22,-5,-3,-2,-1,-3,2021-08-04 12:34:23,036654
-2,-5,-29,5,-1,-1,0,0,2021-08-04 12:34:23,052653
-4,-3,36,-38,-5,-1,-2,-2,2021-08-04 12:34:23,052653
1,6,-3,8,0,-1,1,-1,2021-08-04 12:34:23,058178
3,-1,18,6,2,0,0,1,2021-08-04 12:34:23,058178
0,-4,7,1,-3,-1,-1,-2,2021-08-04 12:34:23,074669
-3,-1,-29,12,1,-2,0,-2,2021-08-04 12:34:23,074669
-5,-10,9,0,-4,-2,-3,-2,2021-08-04 12:34:23,074669
0,2,-4,-6,-1,-2,-2,3,2021-08-04 12:34:23,074669
-5,-10,39,-26,-2,-1,-2,-1,2021-08-04 12:34:23,087669
-2,-3,-2,3,0,1,-3,-1,2021-08-04 12:34:23,087669
5,16,1,4,-3,-1,-1,-2,2021-08-04 12:34:23,101669
1,-4,-32,-18,-2,-2,1,0,2021-08-04 12:34:23,101669
2,0,-10,7,1,2,2,0,2021-08-04 12:34:23,110669
-3,4,62,24,3,3,0,-2,2021-08-04 12:34:23,110669
5,1,-55,-11,-1,-1,0,1,2021-08-04 12:34:23,119671
-4,-6,43,0,-1,-1,-3,-1,2021-08-04 12:34:23,125670
-1,3,-15,8,1,-1,0,2,2021-08-04 12:34:23,131671
-1,-1,-53,-10,2,2,-1,0,2021-08-04 12:34:23,131671
-2,6,19,-7,-1,-3,-1,0,2021-08-04 12:34:23,131671
2,-14,-105,-1,-3,-1,-2,-3,2021-08-04 12:34:23,131671
-2,12,-17,4,1,-1,0,1,2021-08-04 12:34:23,146671
-1,-3,34,14,-2,-2,-1,-4,2021-08-04 12:34:23,146671
-1,-4,-26,-8,-3,2,0,-1,2021-08-04 12:34:23,155670
-3,3,79,-7,-1,-1,-3,-3,2021-08-04 12:34:23,161671
1,-8,-35,-4,-3,-4,-1,-3,2021-08-04 12:34:23,171671
13,3,29,6,-1,-1,0,-3,2021-08-04 12:34:23,171671
-23,1,99,-1,2,-1,-2,1,2021-08-04 12:34:23,179670
-2,-5,-14,-2,-4,-3,-1,10,2021-08-04 12:34:23,179670
-5,-6,-67,-26,-1,2,3,4,2021-08-04 12:34:23,193671
14,-14,10,12,1,1,0,-5,2021-08-04 12:34:23,205670
-4,7,47,2,-1,-1,-1,10,2021-08-04 12:34:23,205670
0,-13,28,-37,-3,-3,-2,-5,2021-08-04 12:34:23,205670
-19,7,45,52,2,2,0,6,2021-08-04 12:34:23,205670
7,0,-83,-32,-5,-4,-2,-2,2021-08-04 12:34:23,205670
6,-1,44,17,1,-1,1,6,2021-08-04 12:34:23,222671
2,2,-31,14,5,3,4,-9,2021-08-04 12:34:23,222671
5,-21,-12,-32,-5,-5,-7,-10,2021-08-04 12:34:23,230671
-5,-9,-74,-16,-1,-1,0,0,2021-08-04 12:34:23,230671
-10,-5,14,27,-3,-4,-1,0,2021-08-04 12:34:23,239671
4,18,64,-1,3,-1,0,-4,2021-08-04 12:34:23,239671
3,7,22,4,-1,1,0,-16,2021-08-04 12:34:23,254670
-7,9,26,11,-1,0,0,6,2021-08-04 12:34:23,254670
4,-9,-13,-18,-1,0,0,-7,2021-08-04 12:34:23,254670
7,4,-33,30,-3,0,0,7,2021-08-04 12:34:23,254670
0,10,44,4,4,1,-1,0,2021-08-04 12:34:23,268202
-9,0,-35,-21,4,4,0,-3,2021-08-04 12:34:23,268202
8,-2,-8,27,-3,-3,-2,-5,2021-08-04 12:34:23,276713
-10,-5,35,-15,-6,-4,-2,-5,2021-08-04 12:34:23,276713
3,7,17,-7,2,1,-1,3,2021-08-04 12:34:23,290772
-9,2,38,0,-2,0,-3,4,2021-08-04 12:34:23,303807
4,-7,-24,13,-1,0,0,-5,2021-08-04 12:34:23,303807
-1,5,-15,-7,0,-1,1,1,2021-08-04 12:34:23,309775
-1,-10,-33,-14,-4,-4,-2,-1,2021-08-04 12:34:23,309775
1,3,30,21,-1,-2,1,2,2021-08-04 12:34:23,309775
1,-8,-10,-1,0,1,-1,-3,2021-08-04 12:34:23,309775
-2,4,1,-8,-4,-1,-1,-2,2021-08-04 12:34:23,309775
5,6,27,10,3,1,0,3,2021-08-04 12:34:23,327774
-8,-3,13,-16,0,-1,0,-6,2021-08-04 12:34:23,327774
7,-8,16,3,-4,-2,-1,-3,2021-08-04 12:34:23,335773
2,1,-34,0,-2,-2,0,3,2021-08-04 12:34:23,335773
0,-1,-10,10,0,0,1,1,2021-08-04 12:34:23,350776
-6,1,-28,-5,-1,-2,-1,0,2021-08-04 12:34:23,350776
6,2,-20,14,-1,-3,-1,-1,2021-08-04 12:34:23,358814
0,-4,-29,-3,-1,0,-2,1,2021-08-04 12:34:23,358814
-6,-1,-1,-28,-3,-1,6,-2,2021-08-04 12:34:23,372774
2,12,55,15,1,1,-13,-4,2021-08-04 12:34:23,372774
2,11,-11,-14,1,4,11,13,2021-08-04 12:34:23,380832
-3,-3,32,10,-4,-2,1,-5,2021-08-04 12:34:23,383829
0,1,30,2,1,-2,-5,14,2021-08-04 12:34:23,383829
2,-18,-38,-16,-1,1,-20,-5,2021-08-04 12:34:23,384777
-3,2,-5,10,-3,-5,4,-3,2021-08-04 12:34:23,396774
-11,-14,-2,-10,-2,0,-3,-2,2021-08-04 12:34:23,396774
3,4,1,22,1,-2,0,-1,2021-08-04 12:34:23,410775
6,1,24,-15,0,0,25,4,2021-08-04 12:34:23,410775
-4,-1,-18,14,2,2,9,-12,2021-08-04 12:34:23,417772
4,1,-5,-17,-6,-4,-1,5,2021-08-04 12:34:23,417772
-11,-6,2,-14,-3,-1,-22,-12,2021-08-04 12:34:23,433772
6,21,-41,12,5,3,12,0,2021-08-04 12:34:23,439772
-5,-11,-24,-31,-2,-2,-17,-7,2021-08-04 12:34:23,439772
1,0,-5,21,2,-2,9,3,2021-08-04 12:34:23,439772
4,0,31,16,-2,0,3,0,2021-08-04 12:34:23,447773
0,-2,-46,-36,-2,-4,-7,-7,2021-08-04 12:34:23,447773
6,16,78,12,-1,-1,11,0,2021-08-04 12:34:23,455771
21,4,-51,-21,-4,-3,-22,-3,2021-08-04 12:34:23,455771
-12,2,33,24,2,1,-4,14,2021-08-04 12:34:23,469773
-6,-6,-35,0,4,2,3,1,2021-08-04 12:34:23,469773
-4,-4,-7,-1,-8,-3,3,8,2021-08-04 12:34:23,477773
9,-5,90,38,-4,-2,-5,-11,2021-08-04 12:34:23,477773
