EMG 1,EMG 2,EMG 3,EMG 4,EMG 5,EMG 6,EMG 7,EMG 8,Timestamp,Milliseconds
-3,-18,-16,-3,0,0,1,0,2021-08-05 17:22:18,530497
-2,-2,-3,-4,-4,-2,1,-1,2021-08-05 17:22:18,546492
-1,-8,1,-3,-3,-2,-1,-3,2021-08-05 17:22:18,561493
-2,12,10,-3,-2,-2,-2,-1,2021-08-05 17:22:18,577182
-1,0,-3,0,-2,-1,-2,-1,2021-08-05 17:22:18,582460
0,6,-6,1,6,6,2,3,2021-08-05 17:22:18,582460
0,-22,2,0,-2,-1,-2,-5,2021-08-05 17:22:18,582460
-1,0,-2,-2,-1,0,0,1,2021-08-05 17:22:18,582460
1,29,10,3,1,-1,0,1,2021-08-05 17:22:18,582460
-2,-48,-22,-5,-4,-3,-3,-3,2021-08-05 17:22:18,582460
-1,10,-4,-3,0,0,-2,-1,2021-08-05 17:22:18,582460
2,13,6,3,1,0,-3,-3,2021-08-05 17:22:18,582460
2,3,5,1,0,0,-1,2,2021-08-05 17:22:18,582460
-2,-38,-6,0,-1,-2,0,-1,2021-08-05 17:22:18,583518
-3,17,-2,-3,-3,-3,-1,-2,2021-08-05 17:22:18,583518
-1,-5,3,-2,-1,-2,1,-3,2021-08-05 17:22:18,583518
-1,13,-8,-4,-2,-2,-1,-1,2021-08-05 17:22:18,583518
3,28,17,3,1,2,0,0,2021-08-05 17:22:18,583518
1,9,-2,3,1,2,2,1,2021-08-05 17:22:18,583518
-3,-47,-14,-4,-3,0,-2,-2,2021-08-05 17:22:18,583518
3,-3,11,-1,0,0,0,-1,2021-08-05 17:22:18,583518
-7,-3,-4,4,3,1,-1,0,2021-08-05 17:22:18,583518
-3,-15,-23,-4,-3,-3,-3,-3,2021-08-05 17:22:18,608625
-2,8,20,2,-1,-1,-2,-3,2021-08-05 17:22:18,624594
-4,-45,-1,-2,-3,-2,-3,0,2021-08-05 17:22:18,639233
12,4,5,-1,-4,-3,-3,-2,2021-08-05 17:22:18,639458
-15,5,0,-2,0,1,1,1,2021-08-05 17:22:18,639458
2,2,5,0,-1,-1,-1,-1,2021-08-05 17:22:18,639458
3,11,3,0,3,2,3,3,2021-08-05 17:22:18,639458
-5,11,6,-1,1,1,0,-2,2021-08-05 17:22:18,639458
5,-8,5,4,-1,2,2,-1,2021-08-05 17:22:18,639458
-9,-69,-32,0,3,0,-1,-3,2021-08-05 17:22:18,639458
-2,11,-1,-3,-5,-6,-6,-6,2021-08-05 17:22:18,654516
-2,-3,9,-6,-9,-7,-7,-3,2021-08-05 17:22:18,654516
6,41,4,2,4,1,1,1,2021-08-05 17:22:18,670516
-2,11,7,0,0,1,1,2,2021-08-05 17:22:18,686518
0,-12,-5,-3,-2,-1,1,0,2021-08-05 17:22:18,701626
-2,4,-12,5,6,4,3,2,2021-08-05 17:22:18,701626
0,7,7,-2,-4,-2,-4,-2,2021-08-05 17:22:18,701626
0,-41,-10,1,2,1,3,4,2021-08-05 17:22:18,701626
3,45,5,-6,-7,-5,-4,-3,2021-08-05 17:22:18,701626
-6,16,14,-4,-2,-1,0,-1,2021-08-05 17:22:18,701626
-3,-39,-26,-1,1,2,1,0,2021-08-05 17:22:18,716553
-2,0,-8,-4,-4,-4,-3,-3,2021-08-05 17:22:18,732517
-2,5,0,-4,-2,-4,-3,-4,2021-08-05 17:22:18,748490
2,14,2,-1,-1,0,-2,-2,2021-08-05 17:22:18,748626
2,-7,9,-1,-2,-2,-2,0,2021-08-05 17:22:18,748626
-1,23,11,4,0,1,0,1,2021-08-05 17:22:18,748626
-2,-10,-6,2,3,2,2,1,2021-08-05 17:22:18,748626
0,-9,-4,2,-1,-1,1,3,2021-08-05 17:22:18,748626
-2,-12,2,-3,-2,-3,-3,-2,2021-08-05 17:22:18,764542
3,38,-2,-4,-2,-2,-4,0,2021-08-05 17:22:18,764542
-5,-42,-7,0,0,-2,1,0,2021-08-05 17:22:18,764542
-2,-2,-2,0,-1,0,0,-1,2021-08-05 17:22:18,764542
0,-16,0,-4,-5,-3,-2,-1,2021-08-05 17:22:18,764542
2,54,4,-6,-3,-1,-1,-1,2021-08-05 17:22:18,764542
3,9,20,6,1,0,0,-1,2021-08-05 17:22:18,780514
-2,-35,-29,0,2,0,1,0,2021-08-05 17:22:18,780828
-1,-35,-30,-6,-2,-1,1,-1,2021-08-05 17:22:18,796511
1,25,23,0,-4,-3,-4,-4,2021-08-05 17:22:18,811574
-1,7,2,-2,-3,1,-2,-1,2021-08-05 17:22:18,811574
-1,-11,0,1,0,0,1,3,2021-08-05 17:22:18,811574
-1,79,12,0,-4,-3,-3,-3,2021-08-05 17:22:18,826461
-1,-78,-12,1,3,3,3,1,2021-08-05 17:22:18,826461
-3,18,-8,-2,0,0,-3,-4,2021-08-05 17:22:18,826461
-2,-10,0,-4,-5,-6,-5,-5,2021-08-05 17:22:18,826461
0,14,-1,-1,0,0,-1,2,2021-08-05 17:22:18,841512
1,5,-5,1,3,2,4,1,2021-08-05 17:22:18,857511
-2,-14,4,0,-2,-2,1,0,2021-08-05 17:22:18,869513
-2,17,0,2,0,1,0,-2,2021-08-05 17:22:18,889541
2,-13,4,2,-1,0,-2,0,2021-08-05 17:22:18,904658
-2,-9,-2,-2,-2,-1,-2,-2,2021-08-05 17:22:18,904658
0,1,-4,-3,-2,-2,-2,-1,2021-08-05 17:22:18,904658
1,37,9,-2,0,0,-1,0,2021-08-05 17:22:18,904658
-2,-61,-11,0,2,1,1,0,2021-08-05 17:22:18,904658
-2,-5,2,0,-3,-3,-2,-4,2021-08-05 17:22:18,904658
2,18,-1,0,1,1,-1,3,2021-08-05 17:22:18,904658
-2,-3,3,-3,-2,-2,-2,-4,2021-08-05 17:22:18,904658
1,15,14,4,0,1,2,1,2021-08-05 17:22:18,905461
0,39,6,-1,-2,-3,-3,-1,2021-08-05 17:22:18,905461
-1,-58,-16,0,1,1,3,2,2021-08-05 17:22:18,905461
-3,-21,-15,-3,-2,-3,-1,-4,2021-08-05 17:22:18,905461
0,29,10,-3,0,-3,-3,-3,2021-08-05 17:22:18,905461
-2,-30,-6,-1,0,-1,1,-1,2021-08-05 17:22:18,905461
1,33,12,-1,-3,-3,-2,-1,2021-08-05 17:22:18,905461
1,-8,1,-1,1,2,0,1,2021-08-05 17:22:18,905461
-2,-10,-7,0,0,-1,1,0,2021-08-05 17:22:18,934824
-1,4,-4,-2,-2,-2,-1,1,2021-08-05 17:22:18,934824
-3,0,7,2,2,-1,0,-1,2021-08-05 17:22:18,934824
3,33,10,4,1,2,4,3,2021-08-05 17:22:18,934824
-1,-46,-23,-4,-4,-2,-3,-3,2021-08-05 17:22:18,965608
0,24,15,1,-1,0,1,1,2021-08-05 17:22:18,980606
1,0,-9,4,7,4,2,0,2021-08-05 17:22:18,980827
2,-15,-9,1,2,1,-2,0,2021-08-05 17:22:18,980827
-11,16,5,2,-2,-1,-2,-1,2021-08-05 17:22:18,980946
1,4,6,-1,-2,-1,-2,-1,2021-08-05 17:22:18,980946
-2,-20,-9,-3,-4,-2,-2,-2,2021-08-05 17:22:18,980946
3,10,23,0,-1,-1,-2,-1,2021-08-05 17:22:18,980946
8,-8,4,2,2,1,4,2,2021-08-05 17:22:18,996721
-12,-24,-56,-9,-1,-1,-2,-3,2021-08-05 17:22:18,996721
-1,-31,18,-4,-4,-3,-4,-4,2021-08-05 17:22:18,996721
-3,-18,-17,0,0,0,-2,-2,2021-08-05 17:22:18,996721
2,2,14,-1,0,0,0,1,2021-08-05 17:22:19,028643
0,2,13,3,-3,-1,0,-3,2021-08-05 17:22:19,044642
3,36,-5,0,0,1,1,2,2021-08-05 17:22:19,044803
-2,-10,8,-2,0,-1,0,1,2021-08-05 17:22:19,044803
-3,-1,-8,0,-1,-2,-1,-2,2021-08-05 17:22:19,044803
0,5,5,-3,-2,-2,-3,-2,2021-08-05 17:22:19,044803
-1,-5,-6,3,2,2,0,1,2021-08-05 17:22:19,044803
-2,2,-2,-1,-3,-2,-3,-1,2021-08-05 17:22:19,044803
-1,5,0,-1,-2,1,-2,-1,2021-08-05 17:22:19,059643
0,-4,-2,-3,-3,1,-1,-1,2021-08-05 17:22:19,075643
0,1,0,-1,0,0,0,-1,2021-08-05 17:22:19,091642
-3,-10,-4,-1,-2,-2,-1,-3,2021-08-05 17:22:19,106642
0,12,7,2,2,0,0,0,2021-08-05 17:22:19,106642
0,-9,-4,0,0,-2,1,-1,2021-08-05 17:22:19,106642
1,5,-6,-1,0,1,0,0,2021-08-05 17:22:19,106642
-1,2,-3,-2,-3,-5,-1,-3,2021-08-05 17:22:19,106642
-1,-3,-2,-2,-1,-1,-3,-2,2021-08-05 17:22:19,106642
-1,1,6,4,3,2,-2,1,2021-08-05 17:22:19,106642
-2,3,-2,-3,-2,0,-1,-1,2021-08-05 17:22:19,107608
0,-6,-6,-1,0,0,0,1,2021-08-05 17:22:19,107608
1,3,7,-3,-3,-2,-3,-2,2021-08-05 17:22:19,107608
1,15,-3,-1,0,1,-2,1,2021-08-05 17:22:19,107608
-1,27,16,2,-2,-1,-1,0,2021-08-05 17:22:19,107608
-3,-5,-27,-2,2,1,0,-1,2021-08-05 17:22:19,107608
-3,-71,-5,-6,-4,-3,-1,-3,2021-08-05 17:22:19,137641
1,17,10,3,1,0,1,1,2021-08-05 17:22:19,137641
1,2,-11,-2,0,-2,-2,-2,2021-08-05 17:22:19,137641
0,44,27,0,-1,-2,-4,-2,2021-08-05 17:22:19,137641
-1,21,-20,3,4,2,2,4,2021-08-05 17:22:19,153722
1,-31,-2,-6,-2,-2,0,-1,2021-08-05 17:22:19,153722
2,-14,-5,-2,-1,-2,-1,-1,2021-08-05 17:22:19,169658
-6,41,1,0,-1,1,0,0,2021-08-05 17:22:19,178636
1,-18,1,0,2,0,-1,-3,2021-08-05 17:22:19,178636
-3,5,8,-1,-2,-3,1,0,2021-08-05 17:22:19,178636
-1,-2,-5,-1,0,0,1,0,2021-08-05 17:22:19,178636
4,-14,1,2,2,2,3,2,2021-08-05 17:22:19,178636
3,45,4,3,1,0,-1,2,2021-08-05 17:22:19,201766
3,-10,-10,-1,-1,-2,-1,0,2021-08-05 17:22:19,201766
-10,-38,-5,-2,-1,-1,-2,-1,2021-08-05 17:22:19,201909
2,-9,-2,-1,-3,-2,-3,-2,2021-08-05 17:22:19,201909
-1,-17,-5,-5,-4,-4,-3,-2,2021-08-05 17:22:19,217642
-12,4,6,-2,-3,-4,-4,-5,2021-08-05 17:22:19,217642
7,27,-2,-2,-1,-2,-2,-1,2021-08-05 17:22:19,217642
-1,5,10,0,-1,0,-1,-2,2021-08-05 17:22:19,217961
4,-12,-11,1,2,3,4,3,2021-08-05 17:22:19,233605
2,47,8,0,-2,-1,-1,-1,2021-08-05 17:22:19,233605
-5,-54,4,1,0,-1,0,2,2021-08-05 17:22:19,233605
0,-13,-5,1,1,1,1,0,2021-08-05 17:22:19,233605
-5,-17,-15,-9,-7,-7,-5,-5,2021-08-05 17:22:19,264608
0,3,-1,-5,-5,-4,-4,-2,2021-08-05 17:22:19,264608
2,44,18,8,6,2,4,2,2021-08-05 17:22:19,264608
2,-30,-10,-1,1,0,1,0,2021-08-05 17:22:19,279661
-5,13,16,-1,-2,-2,0,-3,2021-08-05 17:22:19,295667
-1,-4,0,0,-1,-1,-4,-4,2021-08-05 17:22:19,295915
2,-9,-18,-5,-1,-3,-1,0,2021-08-05 17:22:19,295915
-2,-15,-5,-2,-2,-1,0,-1,2021-08-05 17:22:19,295915
-3,39,0,-1,-1,1,-1,-1,2021-08-05 17:22:19,295915
1,-35,4,-3,-3,-2,-3,-2,2021-08-05 17:22:19,295915
-3,30,7,-3,-2,0,-1,-3,2021-08-05 17:22:19,295915
-3,-31,-9,0,0,-1,0,-1,2021-08-05 17:22:19,296644
2,-4,-2,5,6,3,3,2,2021-08-05 17:22:19,343642
2,32,8,-1,-2,-1,1,-1,2021-08-05 17:22:19,359658
-6,-33,-14,-2,-1,0,1,-2,2021-08-05 17:22:19,375642
-4,4,-3,-3,-1,-2,-1,-2,2021-08-05 17:22:19,390641
4,18,20,5,1,0,-3,-5,2021-08-05 17:22:19,405658
5,12,-3,0,0,-1,-4,-2,2021-08-05 17:22:19,405902
-5,-66,-17,-5,-5,-4,-4,-2,2021-08-05 17:22:19,405902
4,17,11,-3,-4,-5,-5,-1,2021-08-05 17:22:19,405902
-19,-36,-4,-3,-3,-3,0,-1,2021-08-05 17:22:19,405902
5,-8,-5,6,7,7,5,6,2021-08-05 17:22:19,405902
7,69,-10,-4,-3,-1,-3,-3,2021-08-05 17:22:19,405902
-1,-81,-4,-4,-3,-3,-4,-1,2021-08-05 17:22:19,405902
3,17,6,1,-1,0,0,0,2021-08-05 17:22:19,405902
-7,10,1,-2,-2,-2,-2,-1,2021-08-05 17:22:19,406644
-3,18,13,1,0,1,1,3,2021-08-05 17:22:19,406644
0,25,-1,2,5,3,1,0,2021-08-05 17:22:19,406644
-1,-10,-4,-3,-3,-2,-4,-3,2021-08-05 17:22:19,406644
-1,-13,0,1,3,3,3,1,2021-08-05 17:22:19,406644
-5,-12,-22,-5,0,-2,-1,-3,2021-08-05 17:22:19,406644
-4,5,3,-5,-6,-6,-5,-6,2021-08-05 17:22:19,406644
4,7,-10,0,1,0,0,2,2021-08-05 17:22:19,406644
-3,2,11,1,0,2,1,-2,2021-08-05 17:22:19,406644
2,-33,15,3,1,2,0,1,2021-08-05 17:22:19,421661
-2,26,5,-1,-2,0,1,1,2021-08-05 17:22:19,437642
4,19,-14,-6,-2,-3,-3,-2,2021-08-05 17:22:19,453641
-9,-57,-13,-3,-1,-1,0,3,2021-08-05 17:22:19,453641
0,15,7,1,-1,-4,-2,-2,2021-08-05 17:22:19,453641
-1,8,13,3,0,-2,-1,0,2021-08-05 17:22:19,454128
8,-26,-10,-4,0,-1,1,-2,2021-08-05 17:22:19,454128
-6,-3,-8,-3,-1,-1,1,0,2021-08-05 17:22:19,469658
1,-3,-6,-4,-7,-3,-2,-2,2021-08-05 17:22:19,485774
-7,-3,1,-1,-1,0,-1,-1,2021-08-05 17:22:19,489648
-5,28,3,2,-1,0,1,1,2021-08-05 17:22:19,489648
6,-6,-9,-1,2,-1,-1,-3,2021-08-05 17:22:19,489648
2,-44,10,5,4,5,5,5,2021-08-05 17:22:19,489648
3,11,-1,-6,-4,-5,-4,-3,2021-08-05 17:22:19,489648
-2,11,-9,-4,-1,-2,-1,-2,2021-08-05 17:22:19,490653
-4,-9,0,0,-2,-1,-2,-1,2021-08-05 17:22:19,490653
1,40,2,-1,-3,-2,-3,-3,2021-08-05 17:22:19,490653
0,3,0,-2,-1,0,-1,-1,2021-08-05 17:22:19,490653
-3,15,10,1,0,-1,1,3,2021-08-05 17:22:19,517605
-3,-20,-3,3,2,1,1,0,2021-08-05 17:22:19,533607
1,27,4,-3,-2,-1,-2,-2,2021-08-05 17:22:19,533607
-2,-29,-16,-1,-3,0,-2,-1,2021-08-05 17:22:19,533607
-3,6,-2,-5,-5,-3,-3,-1,2021-08-05 17:22:19,533929
5,14,5,1,-3,-2,-2,-1,2021-08-05 17:22:19,533929
-2,54,14,4,2,1,-1,0,2021-08-05 17:22:19,533929
4,-21,2,7,8,4,6,6,2021-08-05 17:22:19,533929
2,-35,-10,-4,-4,-4,-4,-4,2021-08-05 17:22:19,565642
-1,-19,-16,-4,-3,-1,-1,0,2021-08-05 17:22:19,565642
-12,-2,4,3,-1,-3,-2,-5,2021-08-05 17:22:19,565642
-2,25,3,-4,-2,-1,-2,-1,2021-08-05 17:22:19,565642
13,22,7,3,1,1,-1,0,2021-08-05 17:22:19,565642
-6,-20,-4,-6,-3,-4,-3,0,2021-08-05 17:22:19,565642
1,6,11,0,2,0,-1,2,2021-08-05 17:22:19,581816
-2,27,-9,2,2,1,2,0,2021-08-05 17:22:19,581816
-7,-48,-9,1,-2,0,-2,-1,2021-08-05 17:22:19,597607
6,12,-1,-3,-3,-2,-5,-3,2021-08-05 17:22:19,612644
-1,43,-1,-4,-3,-1,-2,-2,2021-08-05 17:22:19,612644
-2,-53,-1,-2,-2,-1,0,0,2021-08-05 17:22:19,612644
2,9,3,5,7,5,4,1,2021-08-05 17:22:19,612644
0,35,13,-1,-2,-2,0,-1,2021-08-05 17:22:19,612644
-4,-58,-25,-3,1,-1,0,-2,2021-08-05 17:22:19,612644
0,13,-2,-1,-1,1,-2,-3,2021-08-05 17:22:19,612644
-4,-6,4,-4,-5,-2,-1,-1,2021-08-05 17:22:19,644662
4,34,5,0,1,1,1,1,2021-08-05 17:22:19,659658
-4,-17,-3,-2,-2,-1,-2,-2,2021-08-05 17:22:19,659658
-3,-2,0,-1,-1,-2,-2,-3,2021-08-05 17:22:19,659962
-2,-14,-8,0,0,-2,0,-2,2021-08-05 17:22:19,659962
4,57,19,2,3,-1,1,1,2021-08-05 17:22:19,659962
4,-51,-23,-5,-3,-1,-1,0,2021-08-05 17:22:19,659962
0,-3,-10,-6,-5,-2,-2,-4,2021-08-05 17:22:19,659962
4,22,7,2,1,0,-2,-1,2021-08-05 17:22:19,674809
-20,-29,-5,2,0,1,1,-1,2021-08-05 17:22:19,690659
0,8,10,1,-1,-1,-1,-1,2021-08-05 17:22:19,706806
4,6,0,4,2,2,1,2,2021-08-05 17:22:19,721658
1,1,1,-4,-3,-5,-3,-2,2021-08-05 17:22:19,737641
11,-19,-5,-3,1,0,0,1,2021-08-05 17:22:19,737641
-12,-6,-10,-3,0,1,0,-2,2021-08-05 17:22:19,737641
-2,-23,-2,-1,0,0,-1,0,2021-08-05 17:22:19,737641
-1,1,5,-3,-5,-5,-3,-1,2021-08-05 17:22:19,737641
1,3,12,-1,-4,-3,-3,-4,2021-08-05 17:22:19,737641
7,34,1,5,5,5,4,5,2021-08-05 17:22:19,737641
-3,-8,-7,-2,-1,0,0,2,2021-08-05 17:22:19,737641
-3,-7,-13,-1,-1,-1,1,-3,2021-08-05 17:22:19,738642
-17,-9,3,-1,-3,-2,-3,-4,2021-08-05 17:22:19,738642
5,9,2,-1,-3,-2,-2,-3,2021-08-05 17:22:19,738642
4,16,-1,0,0,0,-2,1,2021-08-05 17:22:19,738642
1,27,13,0,1,1,2,3,2021-08-05 17:22:19,768696
1,-25,-17,1,2,0,-2,-1,2021-08-05 17:22:19,783658
-2,-3,2,-2,-4,-5,-2,-3,2021-08-05 17:22:19,798650
1,-6,-2,0,0,1,0,-3,2021-08-05 17:22:19,798760
-3,-1,4,-3,-3,-3,-2,-2,2021-08-05 17:22:19,798760
5,27,-2,-2,0,2,1,-1,2021-08-05 17:22:19,798760
-3,-33,-6,-2,1,1,0,-1,2021-08-05 17:22:19,798760
7,-8,-2,-1,-1,0,-1,0,2021-08-05 17:22:19,798760
-10,12,13,-1,-2,0,-2,-2,2021-08-05 17:22:19,798760
-1,3,2,3,0,-2,-2,-2,2021-08-05 17:22:19,798760
-4,-42,-20,-2,1,0,1,1,2021-08-05 17:22:19,798760
-7,31,4,-3,-6,-4,-3,-2,2021-08-05 17:22:19,798760
5,-10,0,1,-3,-1,-2,-3,2021-08-05 17:22:19,829751
6,23,11,0,0,0,1,3,2021-08-05 17:22:19,845659
0,-20,-4,0,0,-2,-2,-1,2021-08-05 17:22:19,861646
3,10,-23,-4,0,-2,1,-1,2021-08-05 17:22:19,877696
-12,45,12,-3,-4,-2,-2,-2,2021-08-05 17:22:19,893702
-7,-76,-12,-3,-3,-1,-2,-6,2021-08-05 17:22:19,893702
2,34,18,2,-2,-1,0,0,2021-08-05 17:22:19,893702
-2,11,9,1,1,1,0,-1,2021-08-05 17:22:19,893702
5,-4,-17,-1,0,1,1,3,2021-08-05 17:22:19,893702
2,17,4,-1,-1,-1,0,1,2021-08-05 17:22:19,893702
0,-2,-7,2,2,2,-1,-2,2021-08-05 17:22:19,893702
-3,-14,1,0,-2,-3,-2,-2,2021-08-05 17:22:19,893702
-4,-4,1,-2,-2,-1,-2,-2,2021-08-05 17:22:19,909663
-1,-19,0,1,-1,-3,-1,-1,2021-08-05 17:22:19,925646
3,1,3,2,-1,-2,0,-1,2021-08-05 17:22:19,925830
0,7,3,-1,-2,-3,-2,-3,2021-08-05 17:22:19,925830
-1,-11,-8,0,1,1,0,-1,2021-08-05 17:22:19,925830
-2,2,-4,-3,-3,-2,-4,-1,2021-08-05 17:22:19,925830
-1,13,-2,-7,-3,-1,-2,-2,2021-08-05 17:22:19,925830
0,-9,4,0,-2,-3,-1,0,2021-08-05 17:22:19,925830
-2,-24,0,3,4,1,-1,2,2021-08-05 17:22:19,925830
-3,-20,-5,0,0,2,2,2,2021-08-05 17:22:19,925830
1,51,26,4,-1,-1,0,-2,2021-08-05 17:22:19,925830
-10,-36,-22,-4,-2,-2,-3,-6,2021-08-05 17:22:19,926623
8,-16,-6,-6,-2,0,1,0,2021-08-05 17:22:19,940661
5,14,-4,-3,-1,-1,-3,-1,2021-08-05 17:22:19,956723
0,30,1,-3,-3,-3,-2,-1,2021-08-05 17:22:19,956723
4,-19,7,2,2,2,1,1,2021-08-05 17:22:19,956723
0,18,8,1,0,-1,-1,2,2021-08-05 17:22:19,956723
4,49,-15,0,0,1,1,2,2021-08-05 17:22:19,956723
-12,-107,-14,-3,-1,-1,0,0,2021-08-05 17:22:19,971643
-5,30,5,1,-4,-4,-4,-3,2021-08-05 17:22:19,986606
3,45,2,-3,-4,-3,-2,-3,2021-08-05 17:22:20,002659
-1,-59,-2,1,1,0,1,2,2021-08-05 17:22:20,002859
4,13,1,2,1,-2,-2,-1,2021-08-05 17:22:20,002859
-2,0,-4,-3,1,0,-1,0,2021-08-05 17:22:20,002859
-4,-6,4,1,-1,-1,0,-3,2021-08-05 17:22:20,002859
0,-15,-1,-1,-2,-1,0,-2,2021-08-05 17:22:20,002859
-7,6,-11,-4,-2,-3,0,-2,2021-08-05 17:22:20,002859
0,-12,5,1,1,0,-1,1,2021-08-05 17:22:20,003642
1,2,3,3,1,0,-1,0,2021-08-05 17:22:20,033658
1,27,16,-2,-4,-3,-2,-3,2021-08-05 17:22:20,048608
2,-11,-27,0,1,2,1,2,2021-08-05 17:22:20,048722
0,-2,18,0,-1,0,1,2,2021-08-05 17:22:20,048722
0,-35,-24,-1,0,0,1,1,2021-08-05 17:22:20,063643
5,9,-3,-6,0,-1,-1,-2,2021-08-05 17:22:20,063643
-10,12,10,-3,-2,0,1,0,2021-08-05 17:22:20,063643
-6,17,-2,-1,0,0,-2,-6,2021-08-05 17:22:20,063643
1,-13,6,3,2,2,-1,-1,2021-08-05 17:22:20,063643
0,-3,0,0,-2,-5,-4,-4,2021-08-05 17:22:20,063643
14,20,-3,0,-4,-3,-2,1,2021-08-05 17:22:20,064490
1,-4,-2,0,-2,-2,-1,3,2021-08-05 17:22:20,064608
-5,-8,9,6,3,2,2,0,2021-08-05 17:22:20,079792
2,3,-10,1,0,0,1,2,2021-08-05 17:22:20,095643
-7,19,4,-5,-4,-2,-2,-3,2021-08-05 17:22:20,110701
-8,-50,-2,1,0,-1,0,1,2021-08-05 17:22:20,116659
3,-5,-6,-6,-3,-3,-1,-4,2021-08-05 17:22:20,116659
2,10,-10,-11,-4,-2,-3,-2,2021-08-05 17:22:20,116659
-13,-18,-2,1,1,1,1,1,2021-08-05 17:22:20,116659
0,31,7,3,0,-1,-1,0,2021-08-05 17:22:20,116659
-4,-25,-3,2,-2,0,0,0,2021-08-05 17:22:20,116659
4,-12,-4,5,2,1,1,2,2021-08-05 17:22:20,116659
6,19,13,-2,-3,-3,-4,-2,2021-08-05 17:22:20,126780
-2,-1,-20,-4,-3,-3,-1,-2,2021-08-05 17:22:20,126780
-1,-10,6,1,0,-1,-1,-1,2021-08-05 17:22:20,142607
-2,-9,-2,5,0,1,3,3,2021-08-05 17:22:20,157689
1,-39,-5,-5,1,0,-2,-1,2021-08-05 17:22:20,157689
0,27,0,-1,-3,-2,-3,0,2021-08-05 17:22:20,157689
3,25,-9,-6,0,-2,-2,-3,2021-08-05 17:22:20,157689
-7,-12,3,-6,-6,-5,-4,-4,2021-08-05 17:22:20,157689
5,6,3,7,1,0,1,2,2021-08-05 17:22:20,157689
8,-8,-4,-2,3,1,3,1,2021-08-05 17:22:20,157689
-6,-8,-6,-3,-4,-1,-1,-2,2021-08-05 17:22:20,173752
-16,8,7,0,-2,-1,-2,-4,2021-08-05 17:22:20,173876
10,15,4,-5,-3,-2,-3,-4,2021-08-05 17:22:20,174037
-1,-1,-9,4,0,1,0,1,2021-08-05 17:22:20,174037
1,-7,-6,-5,0,-1,-1,1,2021-08-05 17:22:20,205642
-2,-4,7,1,-1,-2,0,-3,2021-08-05 17:22:20,205642
0,2,-1,6,2,0,0,-1,2021-08-05 17:22:20,205939
3,3,1,-13,-2,-1,-2,-2,2021-08-05 17:22:20,205939
-1,2,3,-1,-2,-4,0,-1,2021-08-05 17:22:20,221705
-6,-8,-18,-5,-1,1,-1,-3,2021-08-05 17:22:20,237642
-1,-3,1,-1,-1,1,1,0,2021-08-05 17:22:20,253646
1,6,11,6,-1,-1,-1,0,2021-08-05 17:22:20,268610
-5,-3,-5,-3,-1,1,-1,-2,2021-08-05 17:22:20,283659
2,8,6,0,-1,-2,0,-2,2021-08-05 17:22:20,283659
1,0,0,1,-3,-2,0,0,2021-08-05 17:22:20,283659
-3,-4,-6,-4,-2,-2,-3,-1,2021-08-05 17:22:20,283659
3,5,7,3,-1,0,-1,1,2021-08-05 17:22:20,283659
4,4,-4,4,5,2,0,1,2021-08-05 17:22:20,283659
-3,-2,-5,-6,-3,-3,-3,-3,2021-08-05 17:22:20,283659
-1,-9,-1,-2,-2,-3,-1,-5,2021-08-05 17:22:20,283659
-2,2,0,-5,-4,-1,-3,-2,2021-08-05 17:22:20,283659
-3,-2,20,4,1,-1,0,0,2021-08-05 17:22:20,284642
4,-55,-17,4,4,2,3,3,2021-08-05 17:22:20,284642
-3,2,-2,0,-1,-1,-1,-2,2021-08-05 17:22:20,284642
-1,14,8,-4,-6,-6,-5,-4,2021-08-05 17:22:20,299642
2,-4,-1,1,-1,1,-1,2,2021-08-05 17:22:20,299642
2,18,1,-5,0,-1,0,-1,2021-08-05 17:22:20,299642
-1,-7,-9,-3,1,0,2,1,2021-08-05 17:22:20,300105
-3,-8,-2,-1,0,-2,-1,0,2021-08-05 17:22:20,329659
-3,10,-5,-4,-4,-3,-2,-4,2021-08-05 17:22:20,345658
-1,17,5,0,-2,-1,-2,0,2021-08-05 17:22:20,345658
5,-14,-1,3,1,5,3,5,2021-08-05 17:22:20,345658
0,0,2,5,1,-1,0,1,2021-08-05 17:22:20,345658
1,-3,-1,4,1,-1,2,1,2021-08-05 17:22:20,345658
-5,-1,-21,-18,-6,-3,-4,-5,2021-08-05 17:22:20,345658
-1,-2,-6,-1,-3,-1,-2,-4,2021-08-05 17:22:20,345658
-2,-6,-8,-2,-2,-1,0,-2,2021-08-05 17:22:20,361700
3,-1,8,7,3,2,2,4,2021-08-05 17:22:20,361949
-2,3,20,10,4,2,-1,1,2021-08-05 17:22:20,361949
3,0,-9,-3,0,-3,-2,-1,2021-08-05 17:22:20,362091
-6,-7,-11,-4,2,2,-1,-2,2021-08-05 17:22:20,392661
3,4,-3,-5,-4,-1,-3,0,2021-08-05 17:22:20,408744
-7,7,2,-2,-3,-3,-2,-3,2021-08-05 17:22:20,408744
1,19,6,1,-1,-1,0,2,2021-08-05 17:22:20,408744
4,-5,6,5,0,-1,-2,-1,2021-08-05 17:22:20,408744
-4,-10,-8,-3,0,-1,-2,-2,2021-08-05 17:22:20,408744
-2,8,0,-4,-1,1,-1,-2,2021-08-05 17:22:20,408744
-1,-4,0,-1,-1,1,0,-2,2021-08-05 17:22:20,408744
15,10,-8,-4,0,2,2,3,2021-08-05 17:22:20,440175
-20,-9,4,0,-7,-4,-5,-4,2021-08-05 17:22:20,440175
-13,-5,17,16,5,2,5,3,2021-08-05 17:22:20,440175
-3,-4,-15,-8,-2,-1,-1,-3,2021-08-05 17:22:20,440471
4,7,-17,-14,-2,-2,-1,-1,2021-08-05 17:22:20,440562
9,3,-4,-4,-1,0,-2,0,2021-08-05 17:22:20,440606
5,-3,4,3,-1,-2,-1,0,2021-08-05 17:22:20,440684
-6,3,25,15,4,1,1,0,2021-08-05 17:22:20,440684
-3,2,3,5,0,-2,0,1,2021-08-05 17:22:20,471659
2,-6,-22,-13,-3,-1,0,-2,2021-08-05 17:22:20,471659
-2,-2,-3,-2,-3,-2,-3,-2,2021-08-05 17:22:20,471659
-3,21,9,-1,-1,0,-1,-2,2021-08-05 17:22:20,471659
3,-30,2,4,1,-1,-1,0,2021-08-05 17:22:20,471659
-9,8,-4,3,1,0,-1,-1,2021-08-05 17:22:20,471659
2,-3,-5,-5,-4,-1,-3,-4,2021-08-05 17:22:20,486644
1,-7,-17,-14,-6,-2,-4,-5,2021-08-05 17:22:20,501674
-3,7,11,7,0,1,2,1,2021-08-05 17:22:20,517608
0,-8,0,6,3,1,3,0,2021-08-05 17:22:20,517608
3,0,2,2,1,0,2,2,2021-08-05 17:22:20,517608
0,6,-3,-11,-5,-2,-4,-4,2021-08-05 17:22:20,517608
-1,-13,-3,-1,2,2,2,4,2021-08-05 17:22:20,517608
3,2,-6,-4,1,0,0,2,2021-08-05 17:22:20,517608
-2,3,2,1,0,0,-1,-1,2021-08-05 17:22:20,532723
-3,12,13,8,2,-1,0,2,2021-08-05 17:22:20,532723
-2,-11,1,6,-1,-1,-1,-1,2021-08-05 17:22:20,548644
2,-1,0,-7,-1,-2,-1,-3,2021-08-05 17:22:20,564691
-2,-7,-16,-7,-1,-1,-3,-3,2021-08-05 17:22:20,579773
0,-6,-4,0,-1,-2,0,2,2021-08-05 17:22:20,594658
-2,7,3,2,1,0,0,-2,2021-08-05 17:22:20,610686
-1,9,12,4,0,-2,0,-1,2021-08-05 17:22:20,610686
-2,-6,-11,-4,-2,-3,-2,-3,2021-08-05 17:22:20,610686
2,-2,-6,-7,-2,-2,-2,-2,2021-08-05 17:22:20,610686
0,8,16,11,1,0,-1,0,2021-08-05 17:22:20,610686
1,-6,8,5,1,0,0,-2,2021-08-05 17:22:20,610686
-1,7,-31,-29,-7,-3,-5,-6,2021-08-05 17:22:20,610686
-2,0,1,3,1,3,0,3,2021-08-05 17:22:20,610686
-7,1,3,-1,-2,-4,-4,-5,2021-08-05 17:22:20,610686
-2,-2,5,4,-1,0,-2,0,2021-08-05 17:22:20,611656
0,3,-2,4,-1,-1,0,2,2021-08-05 17:22:20,611656
3,3,11,1,-1,-1,-1,-1,2021-08-05 17:22:20,611656
-2,-5,-8,-2,0,0,1,-2,2021-08-05 17:22:20,641671
-2,0,-8,-8,-3,-2,-2,-2,2021-08-05 17:22:20,641671
-4,-7,2,-3,-2,-3,-1,-2,2021-08-05 17:22:20,641671
0,1,-5,3,3,1,1,0,2021-08-05 17:22:20,641671
-2,1,-4,-3,-2,0,0,-1,2021-08-05 17:22:20,641671
-4,3,4,-2,-6,-3,-3,-2,2021-08-05 17:22:20,641671
1,-2,-5,0,2,2,2,1,2021-08-05 17:22:20,641671
1,-1,-4,-4,-5,-5,-2,-3,2021-08-05 17:22:20,641671
-3,-3,-3,-2,-1,-2,0,-1,2021-08-05 17:22:20,656658
3,-5,-5,0,3,2,3,1,2021-08-05 17:22:20,672607
2,6,33,13,0,0,-3,0,2021-08-05 17:22:20,672841
-3,-4,-14,-5,-2,-1,-2,-3,2021-08-05 17:22:20,672841
-4,-4,-20,-17,-4,-3,-2,0,2021-08-05 17:22:20,687710
0,-3,-7,-7,0,0,0,-1,2021-08-05 17:22:20,703716
6,10,17,13,3,1,3,5,2021-08-05 17:22:20,719663
-1,-2,10,9,-2,0,-1,0,2021-08-05 17:22:20,719663
-4,-4,-15,-11,-5,-2,-4,-6,2021-08-05 17:22:20,719663
1,8,-1,3,1,2,0,0,2021-08-05 17:22:20,719663
-1,1,-2,-4,-1,-2,1,0,2021-08-05 17:22:20,735671
-1,-3,1,1,0,-1,-2,-1,2021-08-05 17:22:20,735919
4,11,13,7,2,0,2,2,2021-08-05 17:22:20,736023
-5,-14,-5,-7,-4,-5,-4,-6,2021-08-05 17:22:20,736219
-5,-5,-9,-3,-2,-4,-3,-5,2021-08-05 17:22:20,736219
-2,4,-1,-3,1,2,4,1,2021-08-05 17:22:20,736219
1,0,7,7,1,-1,3,-1,2021-08-05 17:22:20,746659
-1,3,14,6,-3,-4,-3,-3,2021-08-05 17:22:20,746659
4,-8,-26,-9,-1,2,2,1,2021-08-05 17:22:20,746659
3,5,-6,-5,-2,-1,0,1,2021-08-05 17:22:20,746659
0,2,-6,-6,-2,0,1,-1,2021-08-05 17:22:20,767659
-3,-5,4,1,-2,-1,1,1,2021-08-05 17:22:20,782663
-2,-2,12,5,1,0,0,-1,2021-08-05 17:22:20,782663
-10,-30,-6,0,-1,-3,-3,-5,2021-08-05 17:22:20,782663
4,15,-1,-1,5,2,2,2,2021-08-05 17:22:20,782663
3,7,14,13,3,3,1,3,2021-08-05 17:22:20,782663
-7,-3,3,5,-2,-5,-3,-3,2021-08-05 17:22:20,782663
3,1,-22,-25,-6,-4,-4,0,2021-08-05 17:22:20,782663
2,0,1,-4,-3,-2,-4,0,2021-08-05 17:22:20,813643
-4,0,8,3,-1,-3,-1,-5,2021-08-05 17:22:20,828605
2,-46,-12,0,0,2,2,5,2021-08-05 17:22:20,828714
-7,28,13,7,1,-2,1,-5,2021-08-05 17:22:20,828937
4,0,-9,-5,-2,2,1,3,2021-08-05 17:22:20,828937
3,12,-9,-7,2,3,3,2,2021-08-05 17:22:20,828937
-7,-6,5,0,-5,-3,-5,-10,2021-08-05 17:22:20,828937
2,-9,8,12,5,3,4,5,2021-08-05 17:22:20,828937
-5,0,6,0,-2,-1,-2,-1,2021-08-05 17:22:20,844658
-2,-6,-22,-15,-8,-2,-6,-7,2021-08-05 17:22:20,860693
8,13,1,-1,3,2,3,8,2021-08-05 17:22:20,860781
-5,-6,-5,-2,-3,-3,-2,-5,2021-08-05 17:22:20,860781
-1,0,20,11,1,0,1,-1,2021-08-05 17:22:20,860781
0,-12,-10,-3,-1,-2,0,-1,2021-08-05 17:22:20,860781
3,13,-11,-5,2,1,2,2,2021-08-05 17:22:20,860781
-5,-4,2,6,-2,-1,-3,-5,2021-08-05 17:22:20,860781
6,4,21,13,8,6,5,11,2021-08-05 17:22:20,891659
-4,-4,-6,-4,-5,-4,-4,-4,2021-08-05 17:22:20,907659
-2,7,-13,-12,-6,-3,-3,-3,2021-08-05 17:22:20,907659
4,-5,-5,-5,2,4,2,3,2021-08-05 17:22:20,907659
-8,-12,-1,0,-4,-5,-4,-8,2021-08-05 17:22:20,907659
1,2,4,-1,1,-2,-1,3,2021-08-05 17:22:20,907659
5,10,2,3,5,3,3,4,2021-08-05 17:22:20,907659
-1,-2,6,-2,-5,-3,-4,-3,2021-08-05 17:22:20,907659
-6,-9,-7,-6,-5,-5,-2,-2,2021-08-05 17:22:20,923739
2,13,4,4,1,0,0,0,2021-08-05 17:22:20,923739
-7,-12,-13,-10,-3,-2,-5,-9,2021-08-05 17:22:20,923739
1,-4,-7,-5,1,-2,0,0,2021-08-05 17:22:20,923955
4,2,0,6,2,2,4,4,2021-08-05 17:22:20,953658
-4,-40,13,20,3,0,3,3,2021-08-05 17:22:20,953658
4,26,21,-7,2,3,2,4,2021-08-05 17:22:20,953658
3,11,-26,-16,-5,-4,-5,-7,2021-08-05 17:22:20,953658
-4,-2,-7,-4,-2,0,-2,-1,2021-08-05 17:22:20,953658
2,0,13,0,1,0,1,4,2021-08-05 17:22:20,953658
-11,-17,-12,2,-4,-5,-3,-5,2021-08-05 17:22:20,985739
5,-5,-14,-10,0,1,3,4,2021-08-05 17:22:20,985739
-4,-14,-14,-6,-4,-4,-3,-5,2021-08-05 17:22:20,985902
-1,9,6,1,1,1,-1,0,2021-08-05 17:22:20,986058
5,5,6,5,0,2,1,3,2021-08-05 17:22:20,986058
-3,3,25,13,0,-2,-1,0,2021-08-05 17:22:20,986058
-2,-1,-2,13,2,-3,-4,-4,2021-08-05 17:22:21,016642
-6,-9,-40,-29,-6,-2,-4,-8,2021-08-05 17:22:21,032693
9,12,12,4,2,1,6,7,2021-08-05 17:22:21,032693
2,-5,7,9,1,1,1,6,2021-08-05 17:22:21,032693
-2,-9,14,4,0,-1,-2,0,2021-08-05 17:22:21,032693
4,20,0,3,2,1,-1,-1,2021-08-05 17:22:21,032693
-7,-7,-12,-16,-9,-7,-8,-11,2021-08-05 17:22:21,032693
4,2,16,15,6,5,4,4,2021-08-05 17:22:21,032693
3,-1,-1,-7,-2,-1,1,1,2021-08-05 17:22:21,048723
-3,-2,3,16,-3,-1,0,-2,2021-08-05 17:22:21,048723
-6,-9,-30,-44,-6,-2,-5,-7,2021-08-05 17:22:21,048723
-5,2,25,13,-1,-3,-3,-3,2021-08-05 17:22:21,048723
3,11,-29,-15,1,3,0,-2,2021-08-05 17:22:21,094817
3,-4,-7,0,0,0,1,3,2021-08-05 17:22:21,109726
1,1,53,46,7,1,3,8,2021-08-05 17:22:21,109726
-3,3,-7,9,4,2,-1,-4,2021-08-05 17:22:21,109726
15,1,-36,-38,-3,0,-1,-1,2021-08-05 17:22:21,109726
-13,3,-3,-8,-2,0,-1,-1,2021-08-05 17:22:21,109726
-4,12,9,4,-2,-1,-2,-4,2021-08-05 17:22:21,109726
2,-10,1,8,2,-1,0,2,2021-08-05 17:22:21,109726
-5,9,20,20,-1,-4,-3,-3,2021-08-05 17:22:21,110606
5,-13,-19,-17,-1,3,1,0,2021-08-05 17:22:21,110606
-6,-8,-2,8,-3,-3,-2,-3,2021-08-05 17:22:21,110606
5,11,20,4,0,1,4,7,2021-08-05 17:22:21,110606
-5,-14,-27,-17,-4,-1,-2,-5,2021-08-05 17:22:21,124746
2,14,9,1,0,-3,-1,-1,2021-08-05 17:22:21,139751
-1,-2,4,11,0,-2,-3,-3,2021-08-05 17:22:21,139876
-6,-2,-7,-10,-5,-4,-6,-8,2021-08-05 17:22:21,139876
4,-9,-4,-4,3,3,5,8,2021-08-05 17:22:21,139876
-2,1,3,2,2,1,-1,-2,2021-08-05 17:22:21,140245
-2,-8,-12,8,0,-2,-2,-4,2021-08-05 17:22:21,155659
11,-1,-20,-26,0,3,5,8,2021-08-05 17:22:21,155659
-8,1,21,10,-2,-4,-3,-2,2021-08-05 17:22:21,155659
-2,-17,6,-1,-1,-2,-1,-2,2021-08-05 17:22:21,155659
4,25,0,-1,0,2,0,2,2021-08-05 17:22:21,171658
-3,-3,-22,-4,-1,-4,-3,-6,2021-08-05 17:22:21,171658
-6,-7,11,-1,-6,0,-4,-4,2021-08-05 17:22:21,186643
6,11,-19,-12,1,1,2,4,2021-08-05 17:22:21,201622
-2,-16,7,10,-1,-2,-1,-2,2021-08-05 17:22:21,201622
-8,-11,13,-11,-4,-5,-4,-1,2021-08-05 17:22:21,201622
-2,5,-34,-8,6,7,4,-2,2021-08-05 17:22:21,201622
-1,4,8,-4,-4,-5,-3,-4,2021-08-05 17:22:21,201622
2,-5,6,1,0,0,0,3,2021-08-05 17:22:21,201622
-2,7,-1,7,-1,-3,-2,-3,2021-08-05 17:22:21,201622
-2,-5,16,7,-1,-2,0,0,2021-08-05 17:22:21,231680
-2,-4,5,8,-1,-1,-1,-2,2021-08-05 17:22:21,231680
3,11,25,10,8,3,4,7,2021-08-05 17:22:21,231680
5,-7,-49,-30,-7,1,-1,0,2021-08-05 17:22:21,231680
-9,-2,-13,-11,-6,-7,-4,-9,2021-08-05 17:22:21,247716
2,-7,10,8,1,1,2,3,2021-08-05 17:22:21,247961
2,20,17,15,-1,0,0,1,2021-08-05 17:22:21,247961
-10,-32,-24,-49,-4,0,-2,-5,2021-08-05 17:22:21,247961
2,23,12,7,-3,-1,-1,-3,2021-08-05 17:22:21,262645
2,-2,-6,-6,-1,0,0,1,2021-08-05 17:22:21,277717
2,1,20,9,0,-1,0,0,2021-08-05 17:22:21,277717
-4,-12,-11,12,0,-1,0,-1,2021-08-05 17:22:21,277717
4,-3,-3,6,3,0,-1,1,2021-08-05 17:22:21,277717
-1,4,22,10,0,-2,-1,-4,2021-08-05 17:22:21,277717
-3,-19,-44,-27,-6,-3,-4,-6,2021-08-05 17:22:21,277717
-1,6,15,9,0,1,-1,0,2021-08-05 17:22:21,277717
-2,-2,10,4,-1,-2,-3,-1,2021-08-05 17:22:21,309658
5,15,30,37,8,3,5,12,2021-08-05 17:22:21,309658
-6,-9,-39,-27,-6,-2,-4,-10,2021-08-05 17:22:21,309658
-1,-4,-10,-8,-7,-3,-4,-6,2021-08-05 17:22:21,309658
-4,-5,14,8,-2,-3,-3,-2,2021-08-05 17:22:21,325642
0,8,-2,-9,-4,-1,-1,-1,2021-08-05 17:22:21,340658
1,3,12,16,5,2,3,2,2021-08-05 17:22:21,356711
-9,-4,-12,-14,-6,-6,-5,-8,2021-08-05 17:22:21,356711
-5,-10,-15,-16,-5,-3,-4,-4,2021-08-05 17:22:21,356711
1,-5,-23,-14,-5,-1,-1,0,2021-08-05 17:22:21,356711
-3,-4,4,-7,-2,0,-3,-2,2021-08-05 17:22:21,356711
5,11,32,35,5,3,3,5,2021-08-05 17:22:21,356711
-2,3,9,1,-1,-2,-1,-2,2021-08-05 17:22:21,371658
0,-6,-31,-16,-2,-1,-1,-3,2021-08-05 17:22:21,371658
-4,-10,-23,-23,-5,-4,-3,-2,2021-08-05 17:22:21,371658
1,2,25,18,4,1,1,3,2021-08-05 17:22:21,372607
-2,1,5,7,0,-2,0,1,2021-08-05 17:22:21,388739
-1,-2,0,-7,-5,-3,-1,3,2021-08-05 17:22:21,388912
-2,-4,5,-6,-4,0,-4,-9,2021-08-05 17:22:21,388912
-6,-6,-8,20,2,-2,-1,-3,2021-08-05 17:22:21,388912
11,12,2,-1,7,7,7,10,2021-08-05 17:22:21,404659
-3,-3,-6,-4,-7,-4,-7,-11,2021-08-05 17:22:21,404659
6,-1,-13,5,3,2,6,8,2021-08-05 17:22:21,404659
-1,2,5,-10,-2,-3,-3,-2,2021-08-05 17:22:21,404659
-1,-1,22,12,2,-2,1,2,2021-08-05 17:22:21,435697
-2,4,-6,2,4,1,-3,-3,2021-08-05 17:22:21,435697
0,-4,12,-7,-3,-1,0,1,2021-08-05 17:22:21,435697
-1,-1,-22,0,-3,-1,0,-2,2021-08-05 17:22:21,435697
-3,-3,8,7,-4,-3,-3,-3,2021-08-05 17:22:21,450623
-1,1,-6,-8,2,-1,0,-2,2021-08-05 17:22:21,450623
-1,2,16,18,2,0,-1,3,2021-08-05 17:22:21,450623
0,5,-8,-19,1,1,-2,-1,2021-08-05 17:22:21,450623
-5,-7,-21,-8,-5,-2,-3,-5,2021-08-05 17:22:21,465716
-4,-8,2,-6,-3,0,-1,-1,2021-08-05 17:22:21,465716
-5,-3,18,20,0,-5,-4,-5,2021-08-05 17:22:21,465716
11,14,2,5,4,5,7,12,2021-08-05 17:22:21,465716
0,4,10,9,2,-2,-1,-2,2021-08-05 17:22:21,497648
-1,-7,-27,-32,-7,-3,-2,1,2021-08-05 17:22:21,497925
0,-6,-18,-6,-4,-1,-1,-3,2021-08-05 17:22:21,498017
-1,1,19,12,0,-1,0,-3,2021-08-05 17:22:21,498102
-1,0,16,13,-1,-1,0,2,2021-08-05 17:22:21,512642
-2,1,-6,4,3,2,2,-2,2021-08-05 17:22:21,512642
-1,-13,-20,-16,-2,2,0,1,2021-08-05 17:22:21,512642
-4,3,14,7,2,0,-1,-4,2021-08-05 17:22:21,512642
-7,-1,-18,-10,-2,-1,-8,-11,2021-08-05 17:22:21,527663
3,-2,0,9,0,-2,-1,1,2021-08-05 17:22:21,527663
5,8,6,-2,0,-2,-2,2,2021-08-05 17:22:21,527663
-2,-6,1,7,-4,-5,-4,-3,2021-08-05 17:22:21,527663
-2,-4,1,-18,-1,0,1,-1,2021-08-05 17:22:21,557658
-1,-1,12,11,0,1,0,2,2021-08-05 17:22:21,573641
-1,-4,-31,-18,-2,1,0,-3,2021-08-05 17:22:21,588641
3,0,28,19,3,0,1,2,2021-08-05 17:22:21,588641
-1,1,-17,-14,-3,-3,-1,0,2021-08-05 17:22:21,588641
-7,-6,7,3,-4,-6,-5,-7,2021-08-05 17:22:21,588641
3,6,-5,-13,3,5,4,2,2021-08-05 17:22:21,589230
-3,-2,-18,-4,-2,-2,-3,-3,2021-08-05 17:22:21,589230
2,-6,-8,-7,-4,-1,-1,1,2021-08-05 17:22:21,589230
-6,-11,-13,-1,-2,-2,-2,-7,2021-08-05 17:22:21,589230
3,9,27,17,2,-1,-1,3,2021-08-05 17:22:21,589608
0,3,14,9,-2,2,0,4,2021-08-05 17:22:21,589608
-4,-3,-7,-13,-5,-3,-3,-7,2021-08-05 17:22:21,619729
3,-2,-15,-7,2,5,4,4,2021-08-05 17:22:21,619729
-4,-2,-1,-2,-4,-2,-2,-3,2021-08-05 17:22:21,619729
-1,-1,-3,-7,-2,-2,-1,-1,2021-08-05 17:22:21,619729
0,-1,3,12,-1,1,-1,1,2021-08-05 17:22:21,619729
-5,1,14,4,-4,-5,-5,-5,2021-08-05 17:22:21,619729
6,8,2,9,5,4,6,7,2021-08-05 17:22:21,635830
-4,-13,-14,-12,-5,0,-2,-2,2021-08-05 17:22:21,635830
1,-9,16,9,0,-1,0,-1,2021-08-05 17:22:21,636121
3,16,-15,-10,0,2,2,2,2021-08-05 17:22:21,636229
-7,-8,-10,-9,-5,-4,-4,-5,2021-08-05 17:22:21,666778
1,1,6,3,1,-3,-3,-2,2021-08-05 17:22:21,682790
-1,-2,0,4,2,2,2,1,2021-08-05 17:22:21,684737
-1,-1,28,19,1,-1,-1,0,2021-08-05 17:22:21,684737
0,-1,-14,-1,-1,-2,-2,0,2021-08-05 17:22:21,684737
-3,-8,-23,-16,-4,-3,-4,-6,2021-08-05 17:22:21,684737
4,5,2,4,3,3,3,5,2021-08-05 17:22:21,685773
-2,-7,-10,-3,0,0,0,-2,2021-08-05 17:22:21,685773
-5,-2,2,0,-3,-4,-5,-7,2021-08-05 17:22:21,685773
5,8,14,7,3,2,3,7,2021-08-05 17:22:21,685773
-4,-18,-3,3,1,-1,1,0,2021-08-05 17:22:21,698777
2,24,17,11,0,-1,0,0,2021-08-05 17:22:21,714804
4,-2,-20,-22,-4,0,-1,-1,2021-08-05 17:22:21,729963
-2,-1,1,0,0,-2,0,-1,2021-08-05 17:22:21,730133
1,6,-4,-5,-2,-1,-2,-1,2021-08-05 17:22:21,730133
2,-8,5,-3,-1,2,2,6,2021-08-05 17:22:21,730133
-6,-5,0,2,-2,-3,-5,-6,2021-08-05 17:22:21,730333
1,2,-3,2,2,1,0,0,2021-08-05 17:22:21,730508
-5,2,5,0,-3,-4,-3,-2,2021-08-05 17:22:21,745868
2,-6,-14,-8,0,-1,1,1,2021-08-05 17:22:21,745961
-1,-1,-8,-3,-4,-1,-3,-1,2021-08-05 17:22:21,745961
-1,-3,2,-1,-1,0,0,1,2021-08-05 17:22:21,745961
-1,-2,1,3,-1,-1,0,-2,2021-08-05 17:22:21,761811
1,4,14,9,0,0,1,0,2021-08-05 17:22:21,761973
-8,-5,-19,-16,-9,-5,-6,-10,2021-08-05 17:22:21,761973
6,4,7,5,5,5,6,8,2021-08-05 17:22:21,761973
-5,-26,-2,1,-2,-2,-3,-3,2021-08-05 17:22:21,791774
1,18,-1,-6,-3,-3,-3,-3,2021-08-05 17:22:21,807772
3,10,6,4,1,0,2,1,2021-08-05 17:22:21,823771
-5,-4,-3,-6,-5,-3,-4,-8,2021-08-05 17:22:21,823771
4,8,-12,-5,3,5,3,5,2021-08-05 17:22:21,823771
-3,-15,10,5,0,-2,-2,-1,2021-08-05 17:22:21,823771
-1,-3,5,6,2,-1,2,1,2021-08-05 17:22:21,823771
-5,-4,-17,-17,-9,-4,-4,-8,2021-08-05 17:22:21,823771
2,-9,-1,0,2,0,1,2,2021-08-05 17:22:21,823771
-3,7,1,0,-1,-2,-2,-1,2021-08-05 17:22:21,823771
-2,3,4,2,2,-1,0,2,2021-08-05 17:22:21,824756
0,-5,-5,-3,-4,-4,-2,-1,2021-08-05 17:22:21,824756
-5,6,-5,-7,-6,-3,-4,-5,2021-08-05 17:22:21,854771
0,-6,-10,-4,-2,1,-2,-2,2021-08-05 17:22:21,869827
2,-4,6,4,1,1,1,3,2021-08-05 17:22:21,885876
1,5,6,3,1,0,2,2,2021-08-05 17:22:21,885876
4,8,-3,0,1,-2,0,0,2021-08-05 17:22:21,885876
-5,-12,-5,-3,-1,-1,-1,-4,2021-08-05 17:22:21,885876
0,9,5,4,-1,-1,3,3,2021-08-05 17:22:21,885876
0,-3,-1,-2,0,-1,-2,-3,2021-08-05 17:22:21,885876
0,11,0,-3,-1,1,-1,-1,2021-08-05 17:22:21,886755
0,-4,1,4,-2,-2,0,-2,2021-08-05 17:22:21,886793
-1,-7,4,8,2,1,-1,1,2021-08-05 17:22:21,901721
-3,-1,3,-7,-2,-2,-2,-2,2021-08-05 17:22:21,901862
-1,3,-18,-5,-4,-2,-2,-2,2021-08-05 17:22:21,901862
-2,-8,-6,-4,-1,0,-2,-1,2021-08-05 17:22:21,902102
-2,2,9,7,0,-1,1,1,2021-08-05 17:22:21,902102
0,0,3,7,-1,-2,-3,-4,2021-08-05 17:22:21,902102
3,1,2,-6,-1,1,2,3,2021-08-05 17:22:21,933771
-2,2,-1,-5,-3,-1,-1,-2,2021-08-05 17:22:21,933771
0,-2,-13,-8,-3,-1,-2,-2,2021-08-05 17:22:21,933771
1,-1,-1,-1,-1,-1,-1,-2,2021-08-05 17:22:21,933771
-4,-1,4,4,1,0,0,-3,2021-08-05 17:22:21,933771
1,-3,4,5,0,1,1,1,2021-08-05 17:22:21,933771
1,-3,10,-1,-1,-1,-1,1,2021-08-05 17:22:21,949839
-4,-1,-15,-4,-4,-1,-3,-4,2021-08-05 17:22:21,950103
0,-10,-15,-9,-1,-2,-1,-2,2021-08-05 17:22:21,965772
-2,2,-1,-5,-1,-2,-3,-5,2021-08-05 17:22:21,965772
-2,-2,3,3,1,-2,0,-2,2021-08-05 17:22:21,965772
2,-1,9,11,3,2,2,2,2021-08-05 17:22:21,965772
1,10,6,-3,-1,-2,1,1,2021-08-05 17:22:21,997755
-4,-10,-10,-7,-2,-4,-2,-4,2021-08-05 17:22:21,997755
3,5,7,9,2,2,2,3,2021-08-05 17:22:21,997755
0,7,-13,-12,1,1,0,0,2021-08-05 17:22:21,998220
-1,-3,4,4,-2,-1,-3,-2,2021-08-05 17:22:21,998304
1,-1,-7,-8,-1,-2,-2,-1,2021-08-05 17:22:21,998304
-1,-6,1,1,0,-2,-4,-2,2021-08-05 17:22:22,013756
-1,-2,0,3,0,-1,0,0,2021-08-05 17:22:22,013756
-4,-12,3,1,-3,-2,-2,-3,2021-08-05 17:22:22,029772
4,12,5,3,1,2,4,6,2021-08-05 17:22:22,029772
-1,-10,-7,-3,-1,-2,-2,-4,2021-08-05 17:22:22,029772
-4,6,0,-1,-2,-3,-2,-5,2021-08-05 17:22:22,029772
-1,2,7,5,-1,-3,0,-1,2021-08-05 17:22:22,045865
-2,-16,-14,-9,-3,-1,0,2,2021-08-05 17:22:22,045983
0,6,-10,-9,-1,0,1,-1,2021-08-05 17:22:22,045983
2,2,6,1,-1,0,-3,1,2021-08-05 17:22:22,045983
-2,0,12,6,1,-2,-4,-2,2021-08-05 17:22:22,061786
0,8,-2,1,-1,-2,-2,0,2021-08-05 17:22:22,077758
-2,-15,-20,-13,-3,1,-1,-2,2021-08-05 17:22:22,077758
-3,-9,-2,-3,0,0,0,-1,2021-08-05 17:22:22,078097
1,4,-2,4,-1,-3,1,0,2021-08-05 17:22:22,078097
-2,-5,10,4,-4,-2,-1,-2,2021-08-05 17:22:22,078221
-1,-2,5,2,-2,-3,-2,-2,2021-08-05 17:22:22,093755
1,5,-2,0,0,1,1,0,2021-08-05 17:22:22,093755
2,7,-5,-5,-2,0,-1,-1,2021-08-05 17:22:22,109974
0,1,5,7,1,1,0,-1,2021-08-05 17:22:22,109974
-2,0,-3,-9,-6,0,-4,-3,2021-08-05 17:22:22,110098
-1,-8,-1,0,1,0,2,1,2021-08-05 17:22:22,110098
2,1,0,0,2,1,1,3,2021-08-05 17:22:22,124761
1,2,-1,-5,-1,-2,-3,-1,2021-08-05 17:22:22,124761
0,2,2,4,-1,-1,-3,0,2021-08-05 17:22:22,124761
-3,-3,4,4,-3,-1,-1,-2,2021-08-05 17:22:22,124761
-5,-9,-13,-9,-3,-3,-4,-5,2021-08-05 17:22:22,156912
6,4,5,2,4,2,4,8,2021-08-05 17:22:22,172863
-2,0,6,4,1,-2,-4,-3,2021-08-05 17:22:22,172863
1,-2,-7,-2,-1,-1,-1,2,2021-08-05 17:22:22,172863
-2,1,6,2,-4,2,-1,-2,2021-08-05 17:22:22,172863
1,-3,-9,-1,-2,1,-2,-2,2021-08-05 17:22:22,172863
-2,6,-7,-5,2,0,2,0,2021-08-05 17:22:22,172863
-1,-4,3,-2,-1,-3,-2,0,2021-08-05 17:22:22,172863
1,-5,-3,0,0,-1,-1,-1,2021-08-05 17:22:22,187826
-2,18,14,2,-2,-3,-2,-1,2021-08-05 17:22:22,187826
1,0,4,2,-2,0,1,0,2021-08-05 17:22:22,187826
-4,-11,-12,-6,1,1,0,1,2021-08-05 17:22:22,187826
1,2,0,-1,-3,-1,-1,1,2021-08-05 17:22:22,202752
-2,-6,-1,-3,-2,0,-2,-3,2021-08-05 17:22:22,217772
-3,-5,2,2,-1,-1,0,-1,2021-08-05 17:22:22,217772
3,6,6,4,0,0,-1,1,2021-08-05 17:22:22,217772
-1,-2,-4,2,1,0,0,1,2021-08-05 17:22:22,233722
-4,-9,-12,-9,-3,-1,-1,-3,2021-08-05 17:22:22,249749
-2,1,-1,-3,-3,-3,-2,-3,2021-08-05 17:22:22,249976
-1,4,2,-1,-2,-4,0,-1,2021-08-05 17:22:22,249976
-2,-4,-1,-2,-2,0,-1,0,2021-08-05 17:22:22,250212
3,3,9,6,2,-1,1,-1,2021-08-05 17:22:22,250342
1,-8,-23,-17,-3,1,1,0,2021-08-05 17:22:22,250342
-5,-6,1,0,-1,-1,-1,-3,2021-08-05 17:22:22,250342
-3,-2,0,1,0,0,-1,-3,2021-08-05 17:22:22,265773
-5,-1,5,2,1,-3,-4,-5,2021-08-05 17:22:22,281796
3,3,12,7,-1,-2,-4,-2,2021-08-05 17:22:22,308718
5,6,-6,-6,-5,-4,-2,-1,2021-08-05 17:22:22,308718
5,3,-4,-1,1,2,4,6,2021-08-05 17:22:22,308718
-6,-9,-2,-2,-2,-2,-2,-3,2021-08-05 17:22:22,308718
-4,-1,4,4,0,1,1,3,2021-08-05 17:22:22,313756
-3,-1,-10,-5,2,3,1,-2,2021-08-05 17:22:22,313756
-1,9,4,1,1,-3,-3,-3,2021-08-05 17:22:22,314035
3,-4,-6,-2,0,2,1,2,2021-08-05 17:22:22,314232
0,-7,1,3,-1,0,0,0,2021-08-05 17:22:22,314354
-2,-5,4,0,-3,-1,0,-2,2021-08-05 17:22:22,314400
-1,-3,-9,-5,-2,-3,-2,-1,2021-08-05 17:22:22,329755
-4,-3,-1,-2,-3,-3,-4,-5,2021-08-05 17:22:22,329755
0,0,2,-2,0,0,0,0,2021-08-05 17:22:22,329755
-3,-1,1,4,-1,-1,-1,-3,2021-08-05 17:22:22,329755
-5,-3,-10,-8,-6,-2,-2,-5,2021-08-05 17:22:22,359865
5,2,0,1,3,2,2,4,2021-08-05 17:22:22,360089
-1,3,4,3,1,1,-2,1,2021-08-05 17:22:22,360089
-3,-4,-10,-7,-2,1,-1,0,2021-08-05 17:22:22,360089
-1,0,5,4,0,-1,-2,-4,2021-08-05 17:22:22,375799
-3,-6,-6,-3,-3,-3,0,-1,2021-08-05 17:22:22,375872
4,8,4,2,0,0,2,2,2021-08-05 17:22:22,375872
1,2,4,6,2,1,0,1,2021-08-05 17:22:22,375872
-3,1,-2,-4,-3,-1,0,-1,2021-08-05 17:22:22,390755
0,2,-5,-2,-1,0,-1,-1,2021-08-05 17:22:22,390755
-4,-4,-4,-2,-1,-3,-2,-3,2021-08-05 17:22:22,390755
-1,-3,2,-2,0,-2,0,0,2021-08-05 17:22:22,390755
1,-3,0,1,1,0,-1,2,2021-08-05 17:22:22,405831
-3,-11,4,0,1,0,0,-2,2021-08-05 17:22:22,405831
-2,6,0,-6,-3,-2,-1,-2,2021-08-05 17:22:22,406045
-1,0,-1,2,2,2,0,-1,2021-08-05 17:22:22,406045
-3,-16,-2,-1,-3,-2,-1,-1,2021-08-05 17:22:22,436840
5,9,-2,0,2,2,2,3,2021-08-05 17:22:22,451779
2,-1,-1,-1,-1,-2,-1,-1,2021-08-05 17:22:22,451779
-5,-1,-1,-4,-3,-4,-1,-2,2021-08-05 17:22:22,451779
-1,-4,-1,0,0,0,-1,0,2021-08-05 17:22:22,452255
-2,-11,3,5,1,0,1,2,2021-08-05 17:22:22,452280
-2,8,-3,-3,-3,-2,-4,-5,2021-08-05 17:22:22,452280
5,7,4,3,1,1,1,5,2021-08-05 17:22:22,452280
-7,-10,-3,-3,-2,-2,-1,-4,2021-08-05 17:22:22,467722
3,13,1,0,-2,-2,-2,-1,2021-08-05 17:22:22,483773
3,-2,-6,-7,-2,-2,-2,-1,2021-08-05 17:22:22,499963
-2,-8,-2,-1,-4,-1,-2,-2,2021-08-05 17:22:22,499963
-1,2,-2,0,-1,2,0,1,2021-08-05 17:22:22,500133
-2,-1,4,3,0,0,-1,-3,2021-08-05 17:22:22,500133
-3,-10,-5,0,1,-1,3,-1,2021-08-05 17:22:22,500263
-2,3,3,2,-2,-1,-1,-3,2021-08-05 17:22:22,500263
2,5,4,4,4,1,3,3,2021-08-05 17:22:22,500367
0,-1,-5,-6,-3,-4,-4,-3,2021-08-05 17:22:22,500367
-7,-10,-6,-5,-6,-2,-5,-4,2021-08-05 17:22:22,514812
0,-3,3,1,3,0,0,0,2021-08-05 17:22:22,514812
2,12,3,0,-3,-1,-1,-1,2021-08-05 17:22:22,530774
0,4,-3,-1,-2,-2,-2,-2,2021-08-05 17:22:22,546756
0,-1,5,6,1,0,2,3,2021-08-05 17:22:22,561830
-4,-2,-7,-7,-1,-1,-2,-3,2021-08-05 17:22:22,561830
5,2,-1,-1,0,0,2,2,2021-08-05 17:22:22,561830
-4,-7,-8,-6,-1,-1,1,1,2021-08-05 17:22:22,561830
-1,7,2,1,2,0,0,-2,2021-08-05 17:22:22,561830
0,-9,2,1,-2,-3,-2,-2,2021-08-05 17:22:22,561830
5,13,7,2,1,-1,1,2,2021-08-05 17:22:22,561830
-6,-8,-7,-6,-5,-2,-5,-5,2021-08-05 17:22:22,561830
4,8,0,4,3,2,1,4,2021-08-05 17:22:22,577894
-1,5,0,-2,-2,-3,-3,-1,2021-08-05 17:22:22,578006
-1,-9,-5,-3,-3,0,-1,-2,2021-08-05 17:22:22,593829
0,12,4,2,0,0,1,1,2021-08-05 17:22:22,609886
-7,-10,0,-1,-6,-4,-4,-7,2021-08-05 17:22:22,609886
8,0,-1,1,3,2,5,9,2021-08-05 17:22:22,609886
-4,1,1,-1,-3,-3,-5,-5,2021-08-05 17:22:22,609886
1,-3,-1,2,0,1,2,1,2021-08-05 17:22:22,609886
2,-3,-3,-3,0,-1,-1,-1,2021-08-05 17:22:22,609886
-7,-2,-9,-8,-4,-4,-3,-2,2021-08-05 17:22:22,609886
-6,-16,-5,-1,0,-2,-1,-3,2021-08-05 17:22:22,616777
1,6,5,3,0,-1,-1,-1,2021-08-05 17:22:22,616777
0,3,-1,-1,0,0,0,-4,2021-08-05 17:22:22,639812
3,-3,-1,1,0,3,2,3,2021-08-05 17:22:22,639812
-1,5,-1,-2,-2,-1,-4,-3,2021-08-05 17:22:22,640216
1,-5,0,2,-1,-2,0,-1,2021-08-05 17:22:22,640216
-2,-5,5,-1,-2,-1,-1,0,2021-08-05 17:22:22,654775
-3,-3,1,2,1,-1,0,-1,2021-08-05 17:22:22,654775
0,1,-1,-3,-1,0,2,1,2021-08-05 17:22:22,669775
-5,-7,-4,-4,-3,-2,-3,-2,2021-08-05 17:22:22,669775
-2,7,4,-1,-1,-3,-1,1,2021-08-05 17:22:22,669775
3,2,-15,0,0,1,-1,-1,2021-08-05 17:22:22,669775
2,11,12,-4,-6,-3,-1,-2,2021-08-05 17:22:22,685811
-4,-5,-10,-6,-4,-1,-1,-4,2021-08-05 17:22:22,686066
2,3,12,5,4,5,2,4,2021-08-05 17:22:22,686066
-5,-15,-6,-1,-2,-3,-2,-1,2021-08-05 17:22:22,686256
3,15,-12,1,3,0,2,1,2021-08-05 17:22:22,716849
8,9,16,-2,-5,-3,-2,3,2021-08-05 17:22:22,732780
-6,-6,-7,-2,0,-2,-2,-4,2021-08-05 17:22:22,764811
-4,-1,4,0,-2,-1,-4,-5,2021-08-05 17:22:22,764811
-3,-12,-5,0,3,3,3,5,2021-08-05 17:22:22,764811
-4,4,1,-2,-3,-4,-3,-4,2021-08-05 17:22:22,764811
7,-5,-8,4,4,4,3,6,2021-08-05 17:22:22,764811
-1,2,1,-3,-2,-2,-1,-4,2021-08-05 17:22:22,764811
-4,-5,1,-3,-5,-3,-2,-4,2021-08-05 17:22:22,764811
-6,-3,1,-2,1,-2,-2,-3,2021-08-05 17:22:22,764811
2,1,8,2,2,1,2,2,2021-08-05 17:22:22,765758
-1,0,-13,-3,-2,-3,-2,-3,2021-08-05 17:22:22,765758
7,4,6,2,1,0,-1,1,2021-08-05 17:22:22,765758
3,-1,-2,0,1,1,2,3,2021-08-05 17:22:22,765758
-1,-1,-6,-2,0,-1,-2,-2,2021-08-05 17:22:22,780773
-2,-15,5,-1,-3,-1,1,-1,2021-08-05 17:22:22,796796
-7,-3,-7,-2,-2,-2,-2,-2,2021-08-05 17:22:22,811874
0,23,5,-1,-1,0,0,-1,2021-08-05 17:22:22,827837
-2,-42,-10,-1,-3,-2,0,0,2021-08-05 17:22:22,842722
-2,23,3,2,1,0,1,1,2021-08-05 17:22:22,842722
-3,-5,-8,-4,-5,-3,-2,-4,2021-08-05 17:22:22,842722
3,-12,-7,-2,-1,-1,-1,0,2021-08-05 17:22:22,842722
-5,15,17,-2,-5,-1,-3,-3,2021-08-05 17:22:22,842722
2,6,-12,1,0,0,-1,0,2021-08-05 17:22:22,842722
-3,-8,5,-1,0,2,0,2,2021-08-05 17:22:22,842722
-1,-31,-7,1,2,3,1,1,2021-08-05 17:22:22,842722
-1,20,6,2,-1,-2,0,-3,2021-08-05 17:22:22,843757
1,-4,6,-2,-5,-3,-3,-4,2021-08-05 17:22:22,843757
1,9,-2,2,4,2,0,3,2021-08-05 17:22:22,843757
-3,1,1,-2,-3,-2,-2,-3,2021-08-05 17:22:22,843757
0,-5,-6,-1,-1,0,1,-1,2021-08-05 17:22:22,857774
-3,-3,0,0,0,-1,-1,0,2021-08-05 17:22:22,873180
2,6,1,-1,0,1,2,0,2021-08-05 17:22:22,873180
2,-1,-2,5,4,3,3,2,2021-08-05 17:22:22,873568
-4,-11,-15,-5,-4,-2,-2,-3,2021-08-05 17:22:22,873568
2,4,8,1,-1,-1,2,1,2021-08-05 17:22:22,873722
1,4,4,1,-2,-2,-2,-2,2021-08-05 17:22:22,888755
-3,56,22,1,0,-2,-2,-3,2021-08-05 17:22:22,904815
1,-63,-26,-3,1,1,2,3,2021-08-05 17:22:22,919772
-5,-9,-25,-6,-1,-3,-1,-3,2021-08-05 17:22:22,919772
0,41,3,-3,-5,-5,-2,-4,2021-08-05 17:22:22,919772
3,-62,7,1,2,2,2,2,2021-08-05 17:22:22,919772
-4,25,-4,-1,-5,-5,-4,-5,2021-08-05 17:22:22,919772
-2,8,11,-5,-5,-1,-3,-3,2021-08-05 17:22:22,919772
2,-18,-6,2,3,3,2,2,2021-08-05 17:22:22,928758
-3,19,-2,-3,0,1,1,-1,2021-08-05 17:22:22,928758
1,9,4,-1,1,2,0,0,2021-08-05 17:22:22,928758
1,-22,0,1,1,-1,0,1,2021-08-05 17:22:22,928758
-2,11,8,0,0,0,-1,-1,2021-08-05 17:22:22,966761
-2,-7,-13,0,-1,-2,-1,-2,2021-08-05 17:22:22,981852
-5,0,8,-1,-4,-4,-2,-3,2021-08-05 17:22:22,997784
2,15,-1,5,2,2,2,2,2021-08-05 17:22:22,997784
-3,18,-10,-3,-1,-1,0,0,2021-08-05 17:22:23,012719
-4,-26,8,0,-1,-3,-2,0,2021-08-05 17:22:23,012719
3,35,-20,-1,4,1,0,0,2021-08-05 17:22:23,012719
-1,-40,9,-5,-4,-4,-3,-3,2021-08-05 17:22:23,012719
-4,-11,0,-1,-4,-3,-4,-4,2021-08-05 17:22:23,012719
-2,9,-6,-4,-6,-2,-5,-5,2021-08-05 17:22:23,012719
-3,15,7,-3,-4,-3,-1,0,2021-08-05 17:22:23,027721
4,22,14,3,5,4,2,2,2021-08-05 17:22:23,027721
-1,-20,-8,-1,-1,1,-1,-1,2021-08-05 17:22:23,027721
-2,-21,-23,-5,-2,-1,-1,3,2021-08-05 17:22:23,027721
-2,2,15,0,-2,-1,-3,-5,2021-08-05 17:22:23,027721
1,8,-3,1,2,2,0,-2,2021-08-05 17:22:23,027721
0,-9,1,1,1,2,3,2,2021-08-05 17:22:23,043880
1,9,-5,-2,-3,-1,0,-1,2021-08-05 17:22:23,059755
-2,-10,-4,-4,-1,-2,-2,-2,2021-08-05 17:22:23,075802
-5,7,3,-2,-3,-3,-2,-1,2021-08-05 17:22:23,075802
-4,-9,1,-2,-4,-3,-3,-2,2021-08-05 17:22:23,075802
3,6,2,3,2,2,2,0,2021-08-05 17:22:23,076115
-3,-7,1,-1,-3,-3,-2,-2,2021-08-05 17:22:23,076115
3,4,0,0,0,0,1,4,2021-08-05 17:22:23,076115
0,-11,-2,-3,2,-2,1,-2,2021-08-05 17:22:23,076115
-1,-4,-6,-3,0,0,-2,-1,2021-08-05 17:22:23,076115
-3,-5,-3,-3,-4,-3,-3,-3,2021-08-05 17:22:23,076115
-1,4,-1,-3,-4,-3,-1,1,2021-08-05 17:22:23,076115
3,13,1,1,4,4,2,5,2021-08-05 17:22:23,107758
-6,-28,4,4,2,4,1,-4,2021-08-05 17:22:23,123359
0,4,0,4,1,1,0,-1,2021-08-05 17:22:23,123359
-3,20,2,-1,-5,-5,-5,-7,2021-08-05 17:22:23,123359
1,-13,1,1,-4,-3,-5,1,2021-08-05 17:22:23,123719
1,8,-12,-4,-3,-5,-1,1,2021-08-05 17:22:23,123886
2,-6,0,-2,-3,-2,-2,1,2021-08-05 17:22:23,123886
-2,24,4,-2,0,0,0,-2,2021-08-05 17:22:23,123886
-3,-35,4,4,3,1,1,2,2021-08-05 17:22:23,123886
0,11,-6,-3,-3,-2,-1,-2,2021-08-05 17:22:23,123886
1,-6,-4,-1,1,1,0,-2,2021-08-05 17:22:23,123886
2,2,-1,0,2,1,0,2,2021-08-05 17:22:23,123886
-1,3,-1,-2,1,1,1,-1,2021-08-05 17:22:23,154755
-2,-1,4,0,1,-1,-2,-1,2021-08-05 17:22:23,170761
2,7,-3,-2,-1,0,0,2,2021-08-05 17:22:23,186871
3,-7,-1,1,1,1,3,0,2021-08-05 17:22:23,186993
0,20,6,0,-1,-1,0,-2,2021-08-05 17:22:23,186993
0,-12,-6,1,2,0,-2,2,2021-08-05 17:22:23,186993
-1,-9,0,-4,-3,-4,-4,-2,2021-08-05 17:22:23,186993
-4,-18,-15,-4,-4,-2,0,-1,2021-08-05 17:22:23,186993
-2,-3,-4,-4,-4,-2,-2,-3,2021-08-05 17:22:23,186993
4,18,6,-1,-2,-2,1,-3,2021-08-05 17:22:23,186993
-1,10,7,2,-2,-2,-2,-1,2021-08-05 17:22:23,186993
3,-11,20,7,4,2,2,5,2021-08-05 17:22:23,186993
-5,-23,-22,-3,-2,-3,-1,-4,2021-08-05 17:22:23,217719
-1,15,0,-5,-5,-4,-4,-4,2021-08-05 17:22:23,232755
2,-13,-10,1,3,3,3,3,2021-08-05 17:22:23,232755
-4,15,5,-5,-6,-4,-5,-4,2021-08-05 17:22:23,232755
2,1,8,2,1,-1,1,-1,2021-08-05 17:22:23,232755
-6,-30,-7,-3,-4,-2,-2,-2,2021-08-05 17:22:23,232755
4,26,10,1,1,0,1,1,2021-08-05 17:22:23,232755
0,-13,-2,2,1,1,-1,-2,2021-08-05 17:22:23,232755
-3,-20,-13,0,0,1,1,1,2021-08-05 17:22:23,239723
-2,21,9,-1,-3,-1,-2,-1,2021-08-05 17:22:23,240740
-3,-11,-6,-6,-8,-6,-6,-5,2021-08-05 17:22:23,247789
0,5,-8,2,3,2,1,2,2021-08-05 17:22:23,262720
-3,-3,2,-5,-3,-3,-3,-5,2021-08-05 17:22:23,262831
-2,-6,-4,1,2,1,1,2,2021-08-05 17:22:23,262831
-5,6,8,3,-1,-2,-1,0,2021-08-05 17:22:23,278822
0,-4,6,1,0,-2,-1,-2,2021-08-05 17:22:23,278822
1,0,-18,-3,-1,-2,0,-1,2021-08-05 17:22:23,294813
-4,-1,2,-3,-3,-2,-3,-2,2021-08-05 17:22:23,310777
-1,3,2,-2,-1,0,-1,-1,2021-08-05 17:22:23,326721
1,0,1,5,3,2,2,4,2021-08-05 17:22:23,326721
-2,-12,-1,0,-1,1,0,0,2021-08-05 17:22:23,326721
0,12,0,-2,-3,-2,-2,-3,2021-08-05 17:22:23,326721
-2,-13,-1,-2,-2,0,-1,-4,2021-08-05 17:22:23,326721
-5,15,-11,-7,-5,-6,-5,-8,2021-08-05 17:22:23,326721
7,-15,12,6,6,5,6,8,2021-08-05 17:22:23,326721
1,-1,-2,0,-1,0,1,2,2021-08-05 17:22:23,326721
1,7,-3,0,-1,1,0,-1,2021-08-05 17:22:23,326721
-4,-9,-4,-5,-6,-4,-3,-6,2021-08-05 17:22:23,326721
-1,18,5,1,-2,-3,-4,-2,2021-08-05 17:22:23,357826
-1,-10,-12,-2,1,0,-1,1,2021-08-05 17:22:23,372850
2,-3,3,3,3,1,2,3,2021-08-05 17:22:23,372850
-1,-10,-7,-5,-1,-1,-1,-1,2021-08-05 17:22:23,372850
-1,8,4,-2,-3,-1,-2,-1,2021-08-05 17:22:23,372850
-1,-2,1,0,0,-1,1,-1,2021-08-05 17:22:23,372850
1,25,9,1,1,0,2,3,2021-08-05 17:22:23,372850
-4,-22,-7,-1,-2,-2,-2,-3,2021-08-05 17:22:23,372850
-2,17,-5,-3,-1,-1,-1,-2,2021-08-05 17:22:23,387756
-4,-21,-1,-4,-3,-1,-2,-4,2021-08-05 17:22:23,387756
-1,-5,-10,-3,1,0,2,1,2021-08-05 17:22:23,387756
-2,-1,17,0,-1,-4,-3,-3,2021-08-05 17:22:23,387756
0,6,3,2,1,0,-2,0,2021-08-05 17:22:23,419758
1,-5,-25,0,1,2,1,-1,2021-08-05 17:22:23,419906
-6,-1,7,-4,-6,-5,-5,-4,2021-08-05 17:22:23,419906
1,-5,-6,0,2,2,1,0,2021-08-05 17:22:23,419906
-3,-2,0,-5,-3,-3,-1,-4,2021-08-05 17:22:23,419906
4,15,9,5,3,1,1,4,2021-08-05 17:22:23,419906
-3,4,-5,-2,-2,-1,-2,-4,2021-08-05 17:22:23,435781
0,-14,10,2,0,0,-1,2,2021-08-05 17:22:23,435781
-4,-8,-15,-5,-4,-4,-4,-5,2021-08-05 17:22:23,467719
-4,3,-1,-4,-2,-4,-2,-2,2021-08-05 17:22:23,467823
1,5,-3,2,3,1,0,1,2021-08-05 17:22:23,468028
2,-10,0,2,1,1,1,3,2021-08-05 17:22:23,468064
1,6,6,0,1,0,-2,-1,2021-08-05 17:22:23,468064
-1,-4,2,-5,-4,-5,-4,-2,2021-08-05 17:22:23,468064
-6,-9,-5,-1,-1,-3,-2,-2,2021-08-05 17:22:23,468064
-1,-4,-4,-1,0,1,-1,0,2021-08-05 17:22:23,468064
-1,-6,2,0,2,1,1,-2,2021-08-05 17:22:23,498847
1,12,2,1,0,-1,-2,0,2021-08-05 17:22:23,498847
0,-14,-3,-2,0,3,0,0,2021-08-05 17:22:23,499210
-3,7,-8,-3,-5,-4,-3,-6,2021-08-05 17:22:23,499210
1,1,-1,-3,-5,-4,-2,1,2021-08-05 17:22:23,514783
-1,3,7,1,-2,0,-1,-1,2021-08-05 17:22:23,529925
-2,-4,-3,-1,1,-2,1,0,2021-08-05 17:22:23,544802
5,3,-4,2,2,2,2,1,2021-08-05 17:22:23,544802
-2,1,1,-1,-4,-3,-4,-5,2021-08-05 17:22:23,544802
1,6,3,2,0,1,2,2,2021-08-05 17:22:23,544802
0,-11,-2,-2,-2,-1,-1,0,2021-08-05 17:22:23,544802
-2,1,-5,-5,-3,-3,-3,-4,2021-08-05 17:22:23,544802
3,0,3,2,2,2,1,3,2021-08-05 17:22:23,544802
2,2,2,2,2,3,1,0,2021-08-05 17:22:23,544802
-3,-8,-4,-2,0,-1,-2,0,2021-08-05 17:22:23,548597
4,58,14,2,0,1,1,2,2021-08-05 17:22:23,548597
-6,-63,-24,-4,-2,-1,0,-2,2021-08-05 17:22:23,576778
-2,24,-6,-3,-3,-4,1,-1,2021-08-05 17:22:23,576778
2,7,10,0,-4,-1,-3,-3,2021-08-05 17:22:23,576778
-2,-15,-3,0,2,1,1,1,2021-08-05 17:22:23,576778
-1,17,-4,-4,-2,-1,-3,-5,2021-08-05 17:22:23,591813
2,22,6,2,3,2,3,6,2021-08-05 17:22:23,591813
0,-34,-1,5,1,1,1,0,2021-08-05 17:22:23,591813
-2,17,-2,-2,-3,-3,-4,-4,2021-08-05 17:22:23,591813
1,13,6,-3,0,0,-1,1,2021-08-05 17:22:23,607913
-2,-40,5,0,0,-1,-3,-2,2021-08-05 17:22:23,623502
5,18,-2,1,0,0,0,0,2021-08-05 17:22:23,623502
-6,-42,-27,-2,-1,0,1,3,2021-08-05 17:22:23,623778
-7,7,5,-6,-8,-9,-5,-6,2021-08-05 17:22:23,623910
2,12,1,-4,-2,-1,-3,-3,2021-08-05 17:22:23,623910
-3,-1,3,0,2,2,0,-2,2021-08-05 17:22:23,638818
3,-4,2,-1,0,0,0,3,2021-08-05 17:22:23,654812
-1,2,-5,0,1,1,2,2,2021-08-05 17:22:23,670812
-3,-4,9,2,0,-1,0,-1,2021-08-05 17:22:23,670812
6,17,1,1,-1,1,0,1,2021-08-05 17:22:23,670812
-3,-17,1,-2,0,-1,-1,-2,2021-08-05 17:22:23,670812
-3,8,-3,-1,-1,-3,-2,-3,2021-08-05 17:22:23,670812
3,-10,-9,0,3,1,2,0,2021-08-05 17:22:23,670812
-2,-15,-12,-3,-1,-2,-3,-1,2021-08-05 17:22:23,670812
5,51,8,-2,-2,1,-1,0,2021-08-05 17:22:23,670812
-1,-29,11,2,2,1,2,2,2021-08-05 17:22:23,702931
-2,7,-7,-3,-1,1,0,0,2021-08-05 17:22:23,717779
-3,-26,-6,-3,-1,-1,-1,0,2021-08-05 17:22:23,732830
-3,-12,4,0,-3,-4,-2,-4,2021-08-05 17:22:23,732830
0,9,-1,2,-3,-2,-2,-2,2021-08-05 17:22:23,732830
5,11,10,4,4,6,4,4,2021-08-05 17:22:23,732830
-4,-1,-13,-5,-2,-2,-1,-2,2021-08-05 17:22:23,732830
-5,-9,-4,-6,-5,-5,-3,-6,2021-08-05 17:22:23,732830
1,3,3,-1,-1,-1,-1,1,2021-08-05 17:22:23,732830
-3,1,7,-1,-3,-2,-3,-6,2021-08-05 17:22:23,733813
3,5,8,5,6,5,4,5,2021-08-05 17:22:23,733813
1,-20,-19,-1,2,0,-1,1,2021-08-05 17:22:23,733813
-1,4,-4,-3,1,-1,-1,-2,2021-08-05 17:22:23,748861
-5,13,0,-7,-7,-8,-6,-6,2021-08-05 17:22:23,748861
5,-1,11,5,4,4,3,3,2021-08-05 17:22:23,749038
-1,-28,-9,4,3,5,3,3,2021-08-05 17:22:23,749038
2,24,-5,0,-1,-1,-1,-1,2021-08-05 17:22:23,778779
1,-30,-2,-3,0,-2,-2,-1,2021-08-05 17:22:23,794889
-13,18,4,-5,-5,-6,-4,-4,2021-08-05 17:22:23,810825
0,-13,-19,-2,0,-2,-1,-2,2021-08-05 17:22:23,810825
0,10,9,-3,-3,-3,-3,-2,2021-08-05 17:22:23,810825
2,0,-6,1,0,0,2,-1,2021-08-05 17:22:23,810825
13,0,-1,-2,-4,-1,-1,2,2021-08-05 17:22:23,810825
-16,14,14,0,0,0,1,-3,2021-08-05 17:22:23,810825
2,0,2,2,1,1,1,0,2021-08-05 17:22:23,810825
-1,-17,2,-1,0,1,-2,-1,2021-08-05 17:22:23,810825
1,-6,-16,-2,-1,-2,-2,-4,2021-08-05 17:22:23,825777
4,-7,-2,-1,-3,-1,-1,2,2021-08-05 17:22:23,825952
0,26,2,1,1,1,1,1,2021-08-05 17:22:23,826042
-6,-19,-4,-5,-7,-6,-5,-2,2021-08-05 17:22:23,826131
4,7,14,6,2,4,3,4,2021-08-05 17:22:23,840814
4,57,-2,-1,-1,0,1,0,2021-08-05 17:22:23,840814
-6,-74,-7,-1,1,0,0,-1,2021-08-05 17:22:23,841120
1,9,4,5,3,2,1,3,2021-08-05 17:22:23,841120
-4,14,-10,-6,-4,-4,-3,-5,2021-08-05 17:22:23,856939
0,1,5,-2,-3,-2,-2,-3,2021-08-05 17:22:23,856939
-1,12,6,0,1,-1,-1,-2,2021-08-05 17:22:23,872926
1,-8,4,0,1,0,0,0,2021-08-05 17:22:23,873224
-4,-12,-17,-1,-1,-2,0,-2,2021-08-05 17:22:23,873224
4,-4,5,-3,-2,-1,-1,-2,2021-08-05 17:22:23,873224
-4,-4,-9,-5,-5,-1,-1,-1,2021-08-05 17:22:23,904831
-5,3,0,-4,-4,-2,-2,-3,2021-08-05 17:22:23,904831
2,17,13,1,1,2,2,5,2021-08-05 17:22:23,904831
-1,-27,-13,5,4,2,1,1,2021-08-05 17:22:23,904831
1,10,3,0,2,1,1,-1,2021-08-05 17:22:23,904831
-3,5,-3,-1,-1,-2,-4,-7,2021-08-05 17:22:23,904831
-2,-3,4,-4,-5,-6,-5,-6,2021-08-05 17:22:23,920829
5,-4,5,-3,-2,-2,-2,1,2021-08-05 17:22:23,920972
4,0,-1,0,-1,-1,0,2,2021-08-05 17:22:23,936064
2,87,12,3,0,2,2,3,2021-08-05 17:22:23,936064
-3,-103,-21,-2,-5,0,0,1,2021-08-05 17:22:23,936064
-16,-10,-18,-5,-2,-3,-1,-4,2021-08-05 17:22:23,936064
-8,29,16,-2,-3,-2,-2,-5,2021-08-05 17:22:23,952018
5,14,-6,0,1,0,-1,-1,2021-08-05 17:22:23,967030
4,-4,0,4,3,1,0,1,2021-08-05 17:22:23,967030
0,-17,2,-5,-4,-2,-5,-4,2021-08-05 17:22:23,967030
0,-23,-14,-5,-3,-3,-2,0,2021-08-05 17:22:23,967030
1,0,0,0,2,1,3,2,2021-08-05 17:22:23,967030
0,20,6,0,-1,-2,-2,-4,2021-08-05 17:22:23,983030
0,5,15,4,1,0,2,1,2021-08-05 17:22:23,999141
-3,0,-9,2,1,0,0,-1,2021-08-05 17:22:23,999288
-5,-32,-8,-3,-2,-2,-3,-2,2021-08-05 17:22:23,999331
-1,54,10,-3,-2,-1,-1,-3,2021-08-05 17:22:23,999331
-2,-42,-14,-3,-2,-1,-2,-1,2021-08-05 17:22:23,999331
-4,1,-2,-4,-1,-3,-2,-2,2021-08-05 17:22:24,015076
-6,-23,-18,-5,-5,-4,-4,-2,2021-08-05 17:22:24,030980
3,14,6,3,3,1,1,1,2021-08-05 17:22:24,046977
8,28,8,1,-2,-2,-1,0,2021-08-05 17:22:24,046977
-10,-8,5,1,0,1,-1,1,2021-08-05 17:22:24,047420
1,-8,-5,-2,-2,-4,-4,-3,2021-08-05 17:22:24,047420
-4,-27,-5,-3,-2,0,0,0,2021-08-05 17:22:24,047420
9,18,7,-1,-1,0,1,1,2021-08-05 17:22:24,047420
-1,-4,-4,0,-2,0,-1,-1,2021-08-05 17:22:24,047420
-5,-9,-5,-3,0,-2,1,0,2021-08-05 17:22:24,047991
2,28,21,0,-3,-2,-1,0,2021-08-05 17:22:24,047991
-6,-27,-18,1,0,-1,-1,0,2021-08-05 17:22:24,047991
2,-1,-6,0,0,-1,-1,0,2021-08-05 17:22:24,079014
-4,-3,12,-2,-4,-2,-4,-4,2021-08-05 17:22:24,094014
2,8,-13,-2,2,1,-1,1,2021-08-05 17:22:24,109016
1,30,9,0,1,1,0,-1,2021-08-05 17:22:24,109016
2,-26,6,-3,-1,-2,0,-1,2021-08-05 17:22:24,109016
2,3,-18,-1,1,0,3,4,2021-08-05 17:22:24,109016
-3,-4,3,-4,-4,-5,-5,-5,2021-08-05 17:22:24,109016
-5,11,4,-1,0,1,2,1,2021-08-05 17:22:24,109016
3,10,9,3,2,1,2,0,2021-08-05 17:22:24,109016
3,-13,-7,1,0,1,1,-1,2021-08-05 17:22:24,109990
-9,-14,-12,-4,-7,-5,-4,-5,2021-08-05 17:22:24,125229
0,-3,4,1,3,1,-1,1,2021-08-05 17:22:24,141063
5,34,16,2,0,0,1,0,2021-08-05 17:22:24,141063
-3,-42,-10,-1,-2,-1,-1,-1,2021-08-05 17:22:24,141063
-3,1,-9,-1,-1,-1,-1,-1,2021-08-05 17:22:24,141404
-2,21,4,-1,-5,-5,-3,-5,2021-08-05 17:22:24,141404
6,-7,-1,3,2,3,1,3,2021-08-05 17:22:24,141575
3,-6,-2,-1,-1,0,0,1,2021-08-05 17:22:24,141575
-17,-5,-7,-4,-3,-3,-1,-2,2021-08-05 17:22:24,173136
1,-11,0,-6,-4,-2,-4,-6,2021-08-05 17:22:24,173319
7,29,11,5,6,6,3,6,2021-08-05 17:22:24,173319
0,-15,-12,0,0,-1,1,1,2021-08-05 17:22:24,173319
5,4,1,-2,-2,-3,-1,-4,2021-08-05 17:22:24,173319
-2,53,2,-2,0,-1,0,1,2021-08-05 17:22:24,173319
7,-27,8,1,2,-1,0,3,2021-08-05 17:22:24,205144
-5,-32,-16,2,2,1,1,1,2021-08-05 17:22:24,221031
-7,-11,-10,-4,-4,-2,-2,-4,2021-08-05 17:22:24,237098
-2,11,0,-10,-7,-4,-4,-7,2021-08-05 17:22:24,237266
-2,6,-13,-6,-4,-2,-5,-3,2021-08-05 17:22:24,237266
5,22,20,4,2,3,2,2,2021-08-05 17:22:24,237266
4,-4,0,6,1,2,1,4,2021-08-05 17:22:24,237266
-1,-9,4,4,0,0,3,2,2021-08-05 17:22:24,237266
-4,-22,-11,-2,-2,-3,-3,-5,2021-08-05 17:22:24,237266
-5,-2,1,-4,-5,-4,-3,-4,2021-08-05 17:22:24,237266
1,13,1,-1,2,-1,-1,0,2021-08-05 17:22:24,238013
0,-17,2,3,2,2,-1,2,2021-08-05 17:22:24,238013
-3,11,-6,-1,-1,-2,-3,-1,2021-08-05 17:22:24,253129
-3,-10,-6,-4,-2,-2,-3,-5,2021-08-05 17:22:24,269058
10,3,0,-1,1,2,2,2,2021-08-05 17:22:24,269058
-12,-3,5,4,4,-1,-1,1,2021-08-05 17:22:24,269058
-1,-11,-13,-4,-4,-4,-3,-5,2021-08-05 17:22:24,269058
0,14,8,-2,0,0,-1,4,2021-08-05 17:22:24,269058
1,30,9,1,2,3,0,-1,2021-08-05 17:22:24,269058
4,-46,-3,3,3,2,2,3,2021-08-05 17:22:24,269058
-7,-2,-31,-7,-4,-1,-2,-2,2021-08-05 17:22:24,300067
-5,9,11,-6,-6,-5,-5,-7,2021-08-05 17:22:24,316031
-1,15,3,0,1,0,-1,-2,2021-08-05 17:22:24,332029
3,-12,11,2,3,1,2,4,2021-08-05 17:22:24,332288
4,5,-1,6,1,-1,0,1,2021-08-05 17:22:24,332288
-6,-8,0,-2,-3,-3,-3,-3,2021-08-05 17:22:24,332526
-2,-22,-17,-8,-2,1,0,0,2021-08-05 17:22:24,332526
-4,-5,-11,-9,-6,-3,-4,-6,2021-08-05 17:22:24,332526
5,9,6,0,0,1,2,2,2021-08-05 17:22:24,332526
4,11,15,7,4,2,2,4,2021-08-05 17:22:24,332526
-1,2,6,5,0,-1,-2,-1,2021-08-05 17:22:24,333016
-2,0,-8,-5,-1,-2,-1,0,2021-08-05 17:22:24,333016
-1,-8,-1,0,-1,0,1,-2,2021-08-05 17:22:24,348036
-1,11,0,3,2,2,2,-1,2021-08-05 17:22:24,348036
2,-7,5,-2,-3,-2,-1,-1,2021-08-05 17:22:24,348209
12,26,-1,1,0,0,-2,2,2021-08-05 17:22:24,348209
-26,-32,-1,-2,-5,-4,-3,-8,2021-08-05 17:22:24,378077
0,4,3,0,-1,-2,-3,-4,2021-08-05 17:22:24,394093
-4,-2,-14,-6,-2,-5,-3,-5,2021-08-05 17:22:24,394093
5,-21,0,-1,-2,-3,0,0,2021-08-05 17:22:24,394093
7,16,9,10,5,2,4,6,2021-08-05 17:22:24,409979
-2,-5,-16,-5,1,1,2,1,2021-08-05 17:22:24,426016
-6,-16,-7,-15,-11,-5,-5,-5,2021-08-05 17:22:24,442034
0,29,1,3,-1,-2,-1,1,2021-08-05 17:22:24,442034
-1,-8,14,-2,-3,-2,-3,-4,2021-08-05 17:22:24,442034
1,-7,-6,5,2,0,0,3,2021-08-05 17:22:24,442034
7,36,14,10,4,1,2,1,2021-08-05 17:22:24,442034
-6,-40,-11,3,4,0,2,-1,2021-08-05 17:22:24,442034
-10,1,-12,-17,-6,-4,-3,-5,2021-08-05 17:22:24,458031
6,9,-1,-1,-2,0,-1,-2,2021-08-05 17:22:24,458031
3,1,1,3,1,1,0,4,2021-08-05 17:22:24,458031
-2,4,7,4,-2,-1,-1,-2,2021-08-05 17:22:24,458031
4,2,5,3,0,-2,-2,1,2021-08-05 17:22:24,458031
-3,34,0,-5,-1,-3,0,-1,2021-08-05 17:22:24,458031
-2,-32,4,-2,-1,1,1,1,2021-08-05 17:22:24,458031
-2,-2,-4,4,-1,0,-2,-3,2021-08-05 17:22:24,458031
-1,-2,-11,-6,0,-2,-2,-3,2021-08-05 17:22:24,473216
-1,1,-7,-8,-6,-2,-2,-3,2021-08-05 17:22:24,473240
1,15,9,10,0,0,0,1,2021-08-05 17:22:24,473240
-4,-11,-2,3,1,-2,-2,-1,2021-08-05 17:22:24,473240
0,-6,-4,-10,2,1,-1,-2,2021-08-05 17:22:24,488123
1,14,15,3,-3,-3,-1,0,2021-08-05 17:22:24,488123
5,-24,-7,4,2,0,-1,-1,2021-08-05 17:22:24,488123
-17,11,-16,-15,-10,-5,-2,-5,2021-08-05 17:22:24,488123
1,3,0,0,-2,-2,-2,-1,2021-08-05 17:22:24,520075
4,-8,13,7,3,1,2,3,2021-08-05 17:22:24,536049
3,-3,-11,-1,1,0,3,1,2021-08-05 17:22:24,536049
0,0,3,-4,-5,-4,-4,-7,2021-08-05 17:22:24,536049
-7,-5,-15,-2,1,0,0,0,2021-08-05 17:22:24,536049
-5,-9,2,-1,-2,-1,-3,-2,2021-08-05 17:22:24,536049
-1,6,9,6,-2,-3,-3,-1,2021-08-05 17:22:24,536049
2,-3,0,-4,2,3,-1,1,2021-08-05 17:22:24,536049
2,9,1,3,-1,0,0,0,2021-08-05 17:22:24,552016
-1,-4,2,1,-2,-2,-3,-3,2021-08-05 17:22:24,552016
-5,-11,-12,-8,-2,0,-1,-1,2021-08-05 17:22:24,552369
5,30,14,7,2,3,3,4,2021-08-05 17:22:24,552469
1,-21,-9,0,-1,-1,0,-2,2021-08-05 17:22:24,583980
-6,-4,-9,-9,-3,-4,-3,-3,2021-08-05 17:22:24,599015
-6,-13,-8,-3,-3,-3,-2,-5,2021-08-05 17:22:24,615086
3,6,0,0,1,0,1,3,2021-08-05 17:22:24,631070
0,11,1,-4,-2,-1,-1,-2,2021-08-05 17:22:24,646018
3,13,3,7,4,1,1,1,2021-08-05 17:22:24,646018
-6,-24,4,0,0,-1,1,2,2021-08-05 17:22:24,646018
0,-53,7,6,-2,-1,-1,1,2021-08-05 17:22:24,646018
4,22,8,0,1,2,1,1,2021-08-05 17:22:24,646018
-4,-19,-26,-14,-6,-6,-3,-4,2021-08-05 17:22:24,646018
-1,1,0,-3,-1,-3,-1,-1,2021-08-05 17:22:24,646018
0,21,8,0,-1,-3,-3,-3,2021-08-05 17:22:24,646018
2,-6,8,11,0,0,0,0,2021-08-05 17:22:24,646980
2,-11,0,-4,-2,1,0,2,2021-08-05 17:22:24,646980
-2,30,-17,-7,2,1,1,-1,2021-08-05 17:22:24,646980
-8,-11,-1,-2,-2,-3,-2,-3,2021-08-05 17:22:24,646980
4,4,3,-1,-2,-4,-2,-2,2021-08-05 17:22:24,646980
3,2,15,8,4,1,2,4,2021-08-05 17:22:24,646980
5,3,1,3,-1,-1,0,-1,2021-08-05 17:22:24,646980
-2,-10,-20,-14,-3,-3,-2,-5,2021-08-05 17:22:24,646980
-5,-3,-6,-7,-2,1,0,1,2021-08-05 17:22:24,692031
-3,0,0,7,3,2,0,-4,2021-08-05 17:22:24,708031
-1,-5,11,5,-1,-1,-1,-2,2021-08-05 17:22:24,708031
1,7,2,-2,-1,-2,-3,-3,2021-08-05 17:22:24,708031
3,0,3,7,-2,-2,-2,-1,2021-08-05 17:22:24,708031
-1,-9,-14,-11,-6,-5,-6,-3,2021-08-05 17:22:24,708031
4,18,10,-5,-4,0,1,2,2021-08-05 17:22:24,708031
-4,5,-4,3,-1,0,-1,-2,2021-08-05 17:22:24,708031
-7,-15,-6,-3,-1,-1,-2,-2,2021-08-05 17:22:24,708031
5,-3,2,3,2,2,2,0,2021-08-05 17:22:24,708031
-17,-6,-3,-2,-2,0,-1,-2,2021-08-05 17:22:24,709016
5,1,-1,-2,-5,-1,-1,-1,2021-08-05 17:22:24,709016
8,5,-1,4,3,0,1,2,2021-08-05 17:22:24,739982
-4,0,33,4,2,1,2,0,2021-08-05 17:22:24,755086
-3,-9,-43,-13,-4,-3,-4,-4,2021-08-05 17:22:24,770092
1,2,5,-1,-2,-1,-1,-1,2021-08-05 17:22:24,785981
2,6,4,0,3,2,1,4,2021-08-05 17:22:24,802063
-3,6,3,-3,-4,0,-1,-2,2021-08-05 17:22:24,802063
2,-5,15,9,4,1,2,1,2021-08-05 17:22:24,802063
-3,-8,-5,-2,0,1,1,-3,2021-08-05 17:22:24,802063
-4,7,-4,-2,-3,-2,-1,-1,2021-08-05 17:22:24,804013
-3,-8,-11,-3,-2,-1,-4,-2,2021-08-05 17:22:24,804013
1,-5,10,5,1,2,1,3,2021-08-05 17:22:24,804013
4,10,-1,6,3,1,0,2,2021-08-05 17:22:24,804013
-2,-7,-1,-5,-6,-4,-5,-3,2021-08-05 17:22:24,804013
-4,2,-15,-8,-2,-1,0,-1,2021-08-05 17:22:24,804013
-1,-4,4,-4,0,-2,-2,-3,2021-08-05 17:22:24,804013
-1,1,-5,3,2,0,1,0,2021-08-05 17:22:24,805019
1,4,5,-2,1,1,0,-1,2021-08-05 17:22:24,818045
-3,-12,-12,3,0,-3,0,1,2021-08-05 17:22:24,818045
8,3,6,1,0,-2,-1,1,2021-08-05 17:22:24,833978
-4,-8,6,1,-3,0,-1,-1,2021-08-05 17:22:24,850014
-12,6,-2,5,4,3,1,-2,2021-08-05 17:22:24,866033
6,-9,-4,-9,-1,0,-2,0,2021-08-05 17:22:24,866033
-2,-1,-5,-1,2,3,-1,-2,2021-08-05 17:22:24,866033
7,-4,-3,0,0,0,0,1,2021-08-05 17:22:24,866033
5,19,15,4,-6,-5,-3,-3,2021-08-05 17:22:24,882030
-6,0,-7,-3,1,0,0,-1,2021-08-05 17:22:24,882030
-4,0,-3,-6,-5,-3,-2,-4,2021-08-05 17:22:24,882311
-4,-11,-13,-5,-3,-1,-2,-2,2021-08-05 17:22:24,882311
-1,-2,13,1,0,-1,-2,-1,2021-08-05 17:22:24,898042
5,8,3,17,5,2,2,4,2021-08-05 17:22:24,898042
11,-6,0,-1,-3,-4,-2,0,2021-08-05 17:22:24,898042
-13,-7,-19,-14,-2,0,0,-5,2021-08-05 17:22:24,898042
-7,-8,-7,-7,-3,-2,0,-1,2021-08-05 17:22:24,898651
-1,-4,-3,-8,-6,-5,-4,-4,2021-08-05 17:22:24,898651
-2,4,9,10,3,2,1,1,2021-08-05 17:22:24,898651
7,9,19,8,0,0,1,2,2021-08-05 17:22:24,898651
3,-10,-15,-9,-4,-1,-1,-4,2021-08-05 17:22:24,913094
0,-2,-22,-6,0,1,2,2,2021-08-05 17:22:24,913094
-4,-1,-7,-12,-5,-2,-3,-3,2021-08-05 17:22:24,913094
5,10,10,8,2,0,0,3,2021-08-05 17:22:24,913094
0,2,12,7,4,0,1,1,2021-08-05 17:22:24,944106
-2,4,7,9,0,-1,-2,-3,2021-08-05 17:22:24,959979
-10,-12,-12,-19,-3,-2,-2,-5,2021-08-05 17:22:24,975014
1,1,-10,-6,-2,-2,-2,-1,2021-08-05 17:22:24,991039
0,1,-1,2,0,0,0,0,2021-08-05 17:22:24,991039
3,5,12,8,0,-1,-1,1,2021-08-05 17:22:24,991039
2,5,20,15,4,0,1,3,2021-08-05 17:22:24,991039
-8,-10,-17,-11,-3,-1,0,-5,2021-08-05 17:22:24,991039
2,-4,-14,-10,-2,-1,0,-1,2021-08-05 17:22:24,991039
5,15,16,6,2,0,4,3,2021-08-05 17:22:24,991039
-8,-3,-11,-3,-4,-2,-4,-6,2021-08-05 17:22:24,991039
3,4,2,-1,0,0,0,1,2021-08-05 17:22:24,991039
1,-10,4,6,3,2,1,2,2021-08-05 17:22:24,992014
-4,2,19,5,-1,-1,-3,-3,2021-08-05 17:22:24,992014
3,-5,-15,-7,-1,-1,0,1,2021-08-05 17:22:24,992014
-4,1,-8,-5,-4,-2,-3,-4,2021-08-05 17:22:24,992014
2,-2,-6,-6,1,-1,0,0,2021-08-05 17:22:25,007085
-1,-1,10,5,1,-1,0,2,2021-08-05 17:22:25,007085
-3,-3,-1,2,-2,-2,-2,-4,2021-08-05 17:22:25,023051
-3,-8,-12,-9,-1,-2,-1,-4,2021-08-05 17:22:25,038078
0,2,3,1,-4,-1,0,0,2021-08-05 17:22:25,053014
-2,-8,-7,-5,-2,-1,-1,-3,2021-08-05 17:22:25,053282
0,7,22,17,2,-1,0,-1,2021-08-05 17:22:25,053376
2,6,10,12,4,0,1,2,2021-08-05 17:22:25,053460
-6,-8,-33,-20,-7,-4,-2,-4,2021-08-05 17:22:25,053460
-4,-7,-12,-9,-4,-3,-3,-2,2021-08-05 17:22:25,053460
-4,-1,-9,-6,-4,-2,-3,-4,2021-08-05 17:22:25,053460
5,10,27,12,-1,-1,-1,0,2021-08-05 17:22:25,053980
0,1,0,0,-2,-1,-1,-2,2021-08-05 17:22:25,069163
0,-5,-14,-14,-3,1,0,0,2021-08-05 17:22:25,069163
0,1,18,5,0,-1,0,2,2021-08-05 17:22:25,084979
-5,-6,-25,-14,-2,-2,-3,-5,2021-08-05 17:22:25,084979
-1,-6,5,11,1,-2,-1,-3,2021-08-05 17:22:25,084979
1,2,-3,-2,1,2,3,0,2021-08-05 17:22:25,084979
2,4,17,11,1,1,3,3,2021-08-05 17:22:25,084979
1,4,6,6,0,-1,-1,0,2021-08-05 17:22:25,084979
-4,-5,-21,-18,-7,-3,-4,-3,2021-08-05 17:22:25,115058
-4,-3,-8,-4,0,-1,-2,-4,2021-08-05 17:22:25,122029
0,-1,5,3,1,1,0,2,2021-08-05 17:22:25,122029
3,4,13,9,3,-2,0,2,2021-08-05 17:22:25,122029
-1,-2,-12,-8,-2,-3,-3,-2,2021-08-05 17:22:25,122029
-1,-1,6,1,-1,-2,-1,-2,2021-08-05 17:22:25,122029
-3,-3,-14,-5,-3,-2,-2,-2,2021-08-05 17:22:25,146030
-2,-6,1,0,-2,0,1,1,2021-08-05 17:22:25,146030
0,1,17,8,2,0,0,3,2021-08-05 17:22:25,146030
-4,-4,-16,-15,-4,0,-3,-4,2021-08-05 17:22:25,146030
2,2,7,2,-1,-1,0,1,2021-08-05 17:22:25,146030
-3,-5,-33,-20,-8,-2,-2,-3,2021-08-05 17:22:25,146030
0,3,5,4,2,1,1,0,2021-08-05 17:22:25,178130
0,1,13,12,0,0,-2,1,2021-08-05 17:22:25,193033
0,6,15,6,2,0,0,1,2021-08-05 17:22:25,209032
-2,-5,-7,-7,-4,-2,-2,-2,2021-08-05 17:22:25,209032
-3,-2,-17,-8,-1,1,-1,-2,2021-08-05 17:22:25,209032
1,-1,0,4,1,2,2,5,2021-08-05 17:22:25,209032
2,1,6,7,-1,0,-1,2,2021-08-05 17:22:25,209032
2,13,43,28,9,2,3,2,2021-08-05 17:22:25,209032
-3,-8,-34,-39,-7,-4,-2,-3,2021-08-05 17:22:25,209979
-6,-14,-33,-15,-4,-4,-2,-7,2021-08-05 17:22:25,209979
2,3,30,16,1,1,2,6,2021-08-05 17:22:25,209979
1,4,-3,14,0,1,-2,1,2021-08-05 17:22:25,209979
1,6,21,5,1,-1,0,2,2021-08-05 17:22:25,241038
-3,-12,-49,-29,-3,2,1,-3,2021-08-05 17:22:25,256065
-5,-7,-20,-12,-5,-4,-5,-7,2021-08-05 17:22:25,256182
-1,-2,24,14,2,0,-4,-1,2021-08-05 17:22:25,256182
2,9,30,29,6,4,2,2,2021-08-05 17:22:25,256182
-3,0,4,-8,-2,-4,-2,-4,2021-08-05 17:22:25,256182
0,1,-12,-2,-1,1,0,0,2021-08-05 17:22:25,271138
-3,-5,0,-13,-2,-1,0,2,2021-08-05 17:22:25,271138
5,5,15,10,2,1,2,3,2021-08-05 17:22:25,271379
0,1,-6,7,-5,-3,-3,-2,2021-08-05 17:22:25,271379
-6,-10,-33,-19,-4,2,-1,-6,2021-08-05 17:22:25,271379
1,-2,-14,-16,-2,1,3,4,2021-08-05 17:22:25,271379
-2,-2,13,13,1,1,-2,-3,2021-08-05 17:22:25,302028
3,7,19,13,3,0,2,4,2021-08-05 17:22:25,317030
-3,1,1,-5,-1,-2,-3,-4,2021-08-05 17:22:25,317030
-3,-4,-5,5,-4,-4,-1,-2,2021-08-05 17:22:25,317370
-2,-2,-13,-11,-1,-2,-3,-6,2021-08-05 17:22:25,317370
-3,-2,4,-8,-4,-3,-2,-2,2021-08-05 17:22:25,317370
2,-6,-7,12,0,0,0,1,2021-08-05 17:22:25,317370
-2,1,-6,-24,-4,-1,-2,-5,2021-08-05 17:22:25,317370
0,-2,-1,-7,-5,-4,-2,-2,2021-08-05 17:22:25,348980
-1,2,18,11,1,-2,-3,0,2021-08-05 17:22:25,348980
-1,-6,-23,-20,-2,0,1,-1,2021-08-05 17:22:25,348980
-1,-2,7,8,-1,0,0,-1,2021-08-05 17:22:25,348980
4,8,23,17,0,0,3,7,2021-08-05 17:22:25,348980
-5,2,-5,-3,0,0,-4,-8,2021-08-05 17:22:25,348980
-2,-3,-15,-9,-5,-3,-2,-2,2021-08-05 17:22:25,348980
-2,-3,-5,-2,-1,0,-2,-3,2021-08-05 17:22:25,348980
-3,-9,-20,-10,-3,0,-1,-3,2021-08-05 17:22:25,396073
4,8,54,34,1,-3,2,8,2021-08-05 17:22:25,396073
0,5,-12,-5,2,2,1,-3,2021-08-05 17:22:25,396073
-1,-9,-35,-18,-2,2,0,1,2021-08-05 17:22:25,396073
-4,-2,1,-9,-3,-2,-3,0,2021-08-05 17:22:25,396073
-1,-3,-2,-5,-2,-1,-3,-2,2021-08-05 17:22:25,396073
0,2,18,14,0,1,0,0,2021-08-05 17:22:25,396073
-1,-3,4,-9,-4,-3,-3,-3,2021-08-05 17:22:25,396073
4,2,-7,13,2,2,4,4,2021-08-05 17:22:25,427006
-1,-2,-5,-10,3,1,2,-3,2021-08-05 17:22:25,427235
-1,3,24,6,-2,-3,-2,-1,2021-08-05 17:22:25,427235
-1,0,-27,-12,-3,-2,-1,-3,2021-08-05 17:22:25,427467
-3,-5,10,11,-1,-2,-2,-2,2021-08-05 17:22:25,437003
0,-1,-18,-17,-3,-1,-1,-1,2021-08-05 17:22:25,437003
3,2,0,1,2,1,3,5,2021-08-05 17:22:25,437979
1,-5,-7,-3,1,0,1,2,2021-08-05 17:22:25,457132
-3,-8,-11,-4,1,-1,-1,-3,2021-08-05 17:22:25,457132
-3,-1,16,15,1,0,-2,0,2021-08-05 17:22:25,457132
-4,1,1,-8,-2,-2,-3,-6,2021-08-05 17:22:25,457132
2,2,3,2,-1,-1,-2,-2,2021-08-05 17:22:25,457132
0,5,1,0,-1,-1,-2,-4,2021-08-05 17:22:25,473028
4,4,18,7,1,-1,-2,3,2021-08-05 17:22:25,473028
0,0,-9,11,-2,-4,-3,0,2021-08-05 17:22:25,473028
-2,5,29,9,0,-1,-1,0,2021-08-05 17:22:25,473028
2,-13,-70,-62,-9,-1,-1,1,2021-08-05 17:22:25,505085
2,-7,1,13,2,3,2,2,2021-08-05 17:22:25,505085
-3,-3,1,-9,-4,-2,-1,-1,2021-08-05 17:22:25,505085
2,0,17,18,2,-2,0,0,2021-08-05 17:22:25,505085
0,5,22,18,3,-1,1,-1,2021-08-05 17:22:25,505085
-2,1,-13,-6,-3,-1,-1,-1,2021-08-05 17:22:25,505085
-3,-4,-3,-4,-1,0,-1,-1,2021-08-05 17:22:25,505085
1,0,2,6,2,1,0,1,2021-08-05 17:22:25,505085
-3,3,22,19,3,-2,-1,0,2021-08-05 17:22:25,536162
0,-12,-45,-36,-4,-1,-2,-1,2021-08-05 17:22:25,552004
2,2,15,11,1,-1,-1,1,2021-08-05 17:22:25,566980
-4,-5,-14,-15,-3,-2,-2,-6,2021-08-05 17:22:25,582179
1,8,8,7,1,2,0,3,2021-08-05 17:22:25,596991
0,3,18,14,2,0,1,2,2021-08-05 17:22:25,596991
0,1,5,2,-1,0,-2,-4,2021-08-05 17:22:25,596991
3,1,4,2,1,1,2,4,2021-08-05 17:22:25,596991
-5,-10,-23,-14,-5,-4,-4,-6,2021-08-05 17:22:25,596991
-3,-2,-8,-7,-4,-2,-2,-3,2021-08-05 17:22:25,596991
-3,1,2,3,3,-4,1,2,2021-08-05 17:22:25,596991
0,1,4,0,-2,-1,0,-1,2021-08-05 17:22:25,596991
-4,-5,-7,-2,1,1,-2,0,2021-08-05 17:22:25,598015
0,-3,-2,-1,-2,-2,1,-1,2021-08-05 17:22:25,598015
-3,-3,0,-10,-4,-4,-2,-4,2021-08-05 17:22:25,598184
-1,6,27,17,5,3,2,2,2021-08-05 17:22:25,598184
-2,-7,-24,-10,-5,-4,-2,-4,2021-08-05 17:22:25,628103
2,6,18,17,3,0,0,3,2021-08-05 17:22:25,628103
-2,-3,-9,-16,-5,-1,-1,-1,2021-08-05 17:22:25,628280
0,2,-16,1,-1,-2,0,0,2021-08-05 17:22:25,628280
-1,-6,6,4,-1,-1,1,0,2021-08-05 17:22:25,628280
2,4,12,10,1,0,0,0,2021-08-05 17:22:25,628280
-4,-9,-17,-13,-4,-1,-3,-3,2021-08-05 17:22:25,628280
1,4,0,-17,3,2,0,0,2021-08-05 17:22:25,628280
0,-3,-4,-4,-5,-1,-2,0,2021-08-05 17:22:25,659979
-2,-1,0,0,-1,-1,-1,-1,2021-08-05 17:22:25,676069
-2,-3,22,30,2,-1,-2,0,2021-08-05 17:22:25,676069
2,3,-18,-12,-3,-4,-1,0,2021-08-05 17:22:25,676495
-1,-3,-10,-18,1,2,-1,-4,2021-08-05 17:22:25,676553
-2,-5,-4,-6,-2,-3,-2,-2,2021-08-05 17:22:25,676553
4,7,9,4,2,2,-1,1,2021-08-05 17:22:25,676553
-6,-8,-3,7,-1,-2,-2,-4,2021-08-05 17:22:25,676553
1,12,22,17,2,0,-1,1,2021-08-05 17:22:25,691093
-1,-8,-26,-20,-5,-1,0,-1,2021-08-05 17:22:25,691093
1,1,2,3,3,0,0,-1,2021-08-05 17:22:25,691093
1,-1,4,7,-1,0,0,0,2021-08-05 17:22:25,691093
-2,0,13,12,0,-2,-2,-2,2021-08-05 17:22:25,722031
-4,0,0,-6,-2,-2,-1,-2,2021-08-05 17:22:25,738172
3,1,-12,-4,-1,1,1,2,2021-08-05 17:22:25,753052
0,-7,-2,-7,-2,1,1,0,2021-08-05 17:22:25,753052
-1,0,5,4,0,-1,0,0,2021-08-05 17:22:25,753052
-1,2,1,6,1,-2,1,-1,2021-08-05 17:22:25,753052
-6,-5,-15,-17,-7,-5,-3,-7,2021-08-05 17:22:25,753052
-2,-6,-14,-11,-4,-3,-2,0,2021-08-05 17:22:25,753559
7,7,31,25,8,5,3,7,2021-08-05 17:22:25,753559
-3,0,-9,-1,0,-1,-2,-5,2021-08-05 17:22:25,753559
0,-1,-4,-4,-1,0,0,-1,2021-08-05 17:22:25,753559
-2,-2,7,4,0,-2,-2,-2,2021-08-05 17:22:25,753559
-2,-2,0,4,1,-3,-1,-3,2021-08-05 17:22:25,784031
3,4,5,1,-1,2,1,2,2021-08-05 17:22:25,784031
-2,-3,-8,-7,-1,1,0,0,2021-08-05 17:22:25,784031
-2,-1,8,2,-1,-2,-1,-1,2021-08-05 17:22:25,784031
0,1,0,-1,-1,-1,-2,-3,2021-08-05 17:22:25,800196
2,2,15,8,3,2,0,1,2021-08-05 17:22:25,816021
0,-3,-24,-13,-4,-3,-2,3,2021-08-05 17:22:25,831023
-3,1,-4,1,0,0,0,-3,2021-08-05 17:22:25,831023
0,-1,1,-5,-5,-2,-2,-2,2021-08-05 17:22:25,831023
-3,0,1,0,-3,-1,-2,0,2021-08-05 17:22:25,831578
1,1,-2,0,-2,1,0,-2,2021-08-05 17:22:25,831578
-1,-2,-7,2,0,-1,-3,-2,2021-08-05 17:22:25,831578
0,1,-5,-7,-3,-1,1,2,2021-08-05 17:22:25,832004
-3,-4,-2,-1,-3,-4,-3,-5,2021-08-05 17:22:25,832004
1,4,17,8,2,3,2,1,2021-08-05 17:22:25,832004
-3,-5,-16,-3,0,0,-1,-2,2021-08-05 17:22:25,832004
-4,-2,-3,-13,-4,-2,-4,-3,2021-08-05 17:22:25,862203
3,4,11,9,-2,-2,1,3,2021-08-05 17:22:25,878112
-5,-3,-8,2,1,-4,-4,-7,2021-08-05 17:22:25,878220
4,-1,-13,-24,-4,1,1,3,2021-08-05 17:22:25,878291
-4,-3,2,2,-1,-2,-3,-2,2021-08-05 17:22:25,878436
2,1,-4,-1,4,4,2,3,2021-08-05 17:22:25,878436
-1,-1,8,4,0,-3,-2,1,2021-08-05 17:22:25,878436
1,5,15,9,0,1,-2,-2,2021-08-05 17:22:25,878436
0,-3,-3,0,-2,-2,0,-3,2021-08-05 17:22:25,910090
-3,-7,-12,-12,-1,-1,-1,-5,2021-08-05 17:22:25,910090
-4,-4,-11,-10,-2,-3,-1,-5,2021-08-05 17:22:25,910090
-1,-3,-2,5,-1,-3,-1,-3,2021-08-05 17:22:25,910090
2,7,8,2,-1,-1,1,1,2021-08-05 17:22:25,910090
-1,-1,-4,3,1,0,1,-1,2021-08-05 17:22:25,910090
-1,-5,-3,-6,-2,0,-1,-1,2021-08-05 17:22:25,926101
-2,-2,2,0,-6,-4,-4,-1,2021-08-05 17:22:25,942103
2,4,13,11,6,0,3,2,2021-08-05 17:22:25,958107
-2,-6,-19,-17,-4,-1,-3,-4,2021-08-05 17:22:25,958107
1,-2,2,-1,-2,0,-1,1,2021-08-05 17:22:25,958107
-1,-1,-2,0,0,1,0,-1,2021-08-05 17:22:25,958107
-5,-8,-11,-9,-5,-4,-4,-3,2021-08-05 17:22:25,958107
2,3,8,5,2,-1,0,3,2021-08-05 17:22:25,958107
3,2,13,9,4,0,2,3,2021-08-05 17:22:25,958107
-3,-4,-11,-16,-5,-2,-2,-3,2021-08-05 17:22:25,959013
-1,-1,1,4,1,0,-1,1,2021-08-05 17:22:25,988018
-1,6,9,7,-2,-1,0,-2,2021-08-05 17:22:26,004071
-1,-13,-34,-28,-4,-1,-2,0,2021-08-05 17:22:26,019044
1,4,16,9,3,0,0,1,2021-08-05 17:22:26,019044
-1,-2,-9,-3,0,1,-1,-2,2021-08-05 17:22:26,019044
-4,-1,14,5,1,-3,-2,-1,2021-08-05 17:22:26,019044
4,8,7,4,-2,0,2,3,2021-08-05 17:22:26,019044
-2,-5,-14,-5,-2,0,-1,-1,2021-08-05 17:22:26,019044
-2,-1,-4,-8,0,1,-2,-1,2021-08-05 17:22:26,019044
-2,-2,1,4,0,-2,-1,0,2021-08-05 17:22:26,019044
-1,4,4,1,4,2,2,0,2021-08-05 17:22:26,020001
-1,-1,-4,-4,-1,-3,-2,-2,2021-08-05 17:22:26,020001
1,-1,5,7,1,0,2,3,2021-08-05 17:22:26,048985
0,-1,-3,-2,-1,-2,0,0,2021-08-05 17:22:26,063951
-3,-4,-13,-9,-4,-2,-2,-1,2021-08-05 17:22:26,078009
1,4,10,10,2,0,1,0,2021-08-05 17:22:26,078009
0,-1,-2,-4,0,0,1,0,2021-08-05 17:22:26,078009
-1,-2,-5,-5,-2,0,-2,0,2021-08-05 17:22:26,078009
-2,-2,7,9,1,0,-2,-3,2021-08-05 17:22:26,078009
-5,2,2,-6,-8,-5,-4,-2,2021-08-05 17:22:26,078009
0,-1,-3,0,1,0,2,2,2021-08-05 17:22:26,096000
-1,-2,-5,-8,-2,-2,-1,-2,2021-08-05 17:22:26,111026
0,-2,1,4,0,-2,-2,-1,2021-08-05 17:22:26,126114
3,2,4,9,3,0,2,3,2021-08-05 17:22:26,126180
-3,1,6,-8,-2,0,-2,-2,2021-08-05 17:22:26,126180
0,-1,-8,0,-1,1,-1,-2,2021-08-05 17:22:26,126473
-5,-7,-17,-15,-6,-3,-4,-5,2021-08-05 17:22:26,142110
-1,1,6,2,-1,-2,-1,-2,2021-08-05 17:22:26,142110
1,-1,-3,2,0,0,-1,2,2021-08-05 17:22:26,142110
2,3,6,4,2,0,-1,3,2021-08-05 17:22:26,142110
-2,0,8,7,-1,-2,0,-3,2021-08-05 17:22:26,142110
1,-4,-14,-6,0,0,-1,1,2021-08-05 17:22:26,142110
-1,0,-4,-5,-3,-1,0,-4,2021-08-05 17:22:26,142110
-1,-3,-9,-5,-2,-2,-1,-3,2021-08-05 17:22:26,142110
2,3,5,5,0,1,2,1,2021-08-05 17:22:26,142985
2,4,21,10,3,3,1,2,2021-08-05 17:22:26,142985
-2,1,-12,-4,-4,-2,-3,-4,2021-08-05 17:22:26,157003
-1,-8,-10,-5,-1,1,1,0,2021-08-05 17:22:26,157003
0,0,-1,2,3,-1,1,1,2021-08-05 17:22:26,157003
-2,-4,-4,-5,-3,-3,-2,-3,2021-08-05 17:22:26,157003
1,0,8,4,1,-2,-1,0,2021-08-05 17:22:26,187984
-2,0,3,-3,-2,-1,-1,0,2021-08-05 17:22:26,187984
0,-1,-3,-1,-1,-1,-2,-2,2021-08-05 17:22:26,187984
6,4,1,3,4,3,4,6,2021-08-05 17:22:26,187984
-2,-6,-4,-1,-1,-2,-1,-3,2021-08-05 17:22:26,187984
1,1,1,3,2,2,0,2,2021-08-05 17:22:26,188501
-4,0,-2,-3,-5,-3,-3,-4,2021-08-05 17:22:26,204094
-6,-4,-6,-13,-4,-3,-3,-4,2021-08-05 17:22:26,204198
1,5,5,3,-1,0,1,2,2021-08-05 17:22:26,218973
-3,-7,-13,-10,-2,1,-1,-2,2021-08-05 17:22:26,219253
-3,-2,3,5,4,0,0,-1,2021-08-05 17:22:26,219253
-6,-3,-3,-4,-3,-2,-4,-8,2021-08-05 17:22:26,219253
0,1,3,2,-3,-1,-2,-3,2021-08-05 17:22:26,250355
2,0,1,0,-3,-3,-4,-4,2021-08-05 17:22:26,266367
4,2,1,-1,-5,-5,-3,2,2021-08-05 17:22:26,282367
-2,-1,-2,1,-5,-1,0,-2,2021-08-05 17:22:26,282367
-1,2,0,2,3,-1,2,2,2021-08-05 17:22:26,282367
-2,-3,-7,-6,-3,-2,1,-1,2021-08-05 17:22:26,282367
-1,0,2,-2,1,2,0,0,2021-08-05 17:22:26,282367
-6,-7,-9,-4,-4,-3,-4,-6,2021-08-05 17:22:26,282367
-1,-2,-3,1,0,1,0,0,2021-08-05 17:22:26,282367
-1,-1,1,-1,-2,-1,-1,-1,2021-08-05 17:22:26,282367
0,-1,-2,-1,-1,0,-3,-1,2021-08-05 17:22:26,283351
2,1,7,7,3,1,2,2,2021-08-05 17:22:26,283351
-1,-3,-2,-2,-3,-3,-2,-3,2021-08-05 17:22:26,298400
-1,1,-6,-11,-5,-2,-1,-2,2021-08-05 17:22:26,314315
-1,-3,-6,-1,-2,1,1,0,2021-08-05 17:22:26,314651
-1,0,6,7,2,0,-1,0,2021-08-05 17:22:26,314744
-3,-4,-5,-5,-3,-3,-3,-4,2021-08-05 17:22:26,314744
0,-2,-2,4,1,-1,1,-1,2021-08-05 17:22:26,314744
1,6,5,-4,1,0,1,0,2021-08-05 17:22:26,314744
1,-2,-6,1,1,2,3,2,2021-08-05 17:22:26,314744
0,-1,4,0,0,-2,1,-1,2021-08-05 17:22:26,345428
-2,-1,2,-1,-3,-2,-3,-3,2021-08-05 17:22:26,345428
-3,0,2,0,0,-2,-1,0,2021-08-05 17:22:26,345428
2,4,0,2,4,1,1,3,2021-08-05 17:22:26,345428
-2,-6,-6,-2,1,-1,0,0,2021-08-05 17:22:26,361350
-1,-1,1,0,0,-2,-2,2,2021-08-05 17:22:26,377445
3,1,1,2,-1,0,0,-1,2021-08-05 17:22:26,392352
-1,-1,0,1,-2,-1,-1,0,2021-08-05 17:22:26,392352
0,1,-4,-6,-3,0,1,-1,2021-08-05 17:22:26,392352
-7,-5,-2,-5,-4,-2,-2,-6,2021-08-05 17:22:26,392352
0,1,0,0,-1,0,-1,2,2021-08-05 17:22:26,392352
-3,1,1,-1,-2,-2,-3,-3,2021-08-05 17:22:26,392352
1,0,-1,1,0,-1,-1,-1,2021-08-05 17:22:26,392352
-1,-1,3,2,-1,-3,-1,1,2021-08-05 17:22:26,392352
-2,1,4,-1,0,-1,0,-2,2021-08-05 17:22:26,392352
-2,-3,-2,-1,-2,0,-2,-4,2021-08-05 17:22:26,392352
-2,-3,-9,-5,-2,1,-2,-2,2021-08-05 17:22:26,423350
0,2,3,3,1,1,0,2,2021-08-05 17:22:26,439375
-1,-2,5,1,-2,-1,-1,1,2021-08-05 17:22:26,455339
-2,-4,-4,-2,-2,-2,0,0,2021-08-05 17:22:26,455339
-1,-2,0,-1,0,1,-1,0,2021-08-05 17:22:26,455339
0,0,1,0,-1,1,-2,-2,2021-08-05 17:22:26,455849
-2,-5,-9,-2,-1,-1,-3,-5,2021-08-05 17:22:26,455849
6,6,11,7,5,2,3,6,2021-08-05 17:22:26,455849
-3,0,-3,-7,-5,-5,-3,-3,2021-08-05 17:22:26,455849
1,-1,5,4,1,0,2,0,2021-08-05 17:22:26,455849
1,3,-11,-2,1,0,1,-1,2021-08-05 17:22:26,455849
-3,-4,-12,-11,-4,-2,-1,-1,2021-08-05 17:22:26,455849
0,0,4,2,-1,-2,-4,-3,2021-08-05 17:22:26,487409
-3,1,3,3,-1,-2,1,-1,2021-08-05 17:22:26,503350
-1,-1,3,-1,-4,-3,-2,-1,2021-08-05 17:22:26,518359
0,-2,-2,2,2,1,2,0,2021-08-05 17:22:26,518484
0,1,-5,1,0,0,0,0,2021-08-05 17:22:26,518484
-1,1,1,0,-3,-2,-1,-1,2021-08-05 17:22:26,518484
0,-2,-4,-4,-1,0,1,2,2021-08-05 17:22:26,518484
0,-1,0,-1,0,1,0,0,2021-08-05 17:22:26,518484
0,-2,-2,-1,0,-1,0,1,2021-08-05 17:22:26,518484
1,0,0,2,3,1,-1,-1,2021-08-05 17:22:26,518484
-2,-7,-4,-2,-2,-3,-3,-4,2021-08-05 17:22:26,518484
2,4,3,-4,-1,0,-1,3,2021-08-05 17:22:26,519344
-3,0,-2,1,0,-1,-2,-2,2021-08-05 17:22:26,549455
-2,-4,-4,-3,-3,-1,-2,-1,2021-08-05 17:22:26,549600
-1,-1,3,3,0,-1,0,1,2021-08-05 17:22:26,549707
-2,2,-1,-3,-4,-3,-2,-4,2021-08-05 17:22:26,549707
-6,-20,-8,-4,-1,0,2,-1,2021-08-05 17:22:26,549888
1,15,-4,-1,-1,-2,-1,-3,2021-08-05 17:22:26,549888
10,8,6,1,2,2,3,7,2021-08-05 17:22:26,565404
-2,5,3,0,-4,-3,-2,-6,2021-08-05 17:22:26,565586
-3,-4,1,0,-2,-3,-1,-2,2021-08-05 17:22:26,581350
-3,-8,-4,-2,-2,-2,-2,-1,2021-08-05 17:22:26,596350
-4,-5,-5,0,-2,-2,-3,-3,2021-08-05 17:22:26,596350
-1,-3,2,2,0,-1,-2,-2,2021-08-05 17:22:26,596350
5,7,8,7,4,2,3,5,2021-08-05 17:22:26,596350
-2,-4,-10,-12,-5,-1,-2,-4,2021-08-05 17:22:26,596350
-1,1,4,2,1,0,-1,0,2021-08-05 17:22:26,596350
1,-8,-7,-4,1,1,-1,-1,2021-08-05 17:22:26,596350
-2,1,-1,-7,-4,-4,-3,-5,2021-08-05 17:22:26,611351
3,3,8,8,5,1,2,1,2021-08-05 17:22:26,611351
-4,-4,3,-1,-2,-1,-2,0,2021-08-05 17:22:26,627487
-5,-4,-2,1,-3,-2,-2,-4,2021-08-05 17:22:26,627639
2,4,-3,-2,0,-1,0,0,2021-08-05 17:22:26,643444
-2,-7,-4,-2,0,1,0,2,2021-08-05 17:22:26,643444
-1,-2,-5,-3,-2,-3,2,0,2021-08-05 17:22:26,643444
-2,-3,2,3,0,-1,-1,-3,2021-08-05 17:22:26,643444
-1,5,7,5,-1,-1,0,-1,2021-08-05 17:22:26,659367
3,-2,0,0,1,2,2,2,2021-08-05 17:22:26,659367
0,-2,-11,-6,-3,1,-1,-2,2021-08-05 17:22:26,659367
-2,-3,-5,-1,-2,-4,-1,1,2021-08-05 17:22:26,659367
-1,-2,-2,-1,-2,-2,-2,-1,2021-08-05 17:22:26,674316
-4,-3,0,-5,-1,-3,-3,-3,2021-08-05 17:22:26,674541
1,1,5,4,0,-2,-2,-3,2021-08-05 17:22:26,689317
1,0,0,-2,-1,1,0,-2,2021-08-05 17:22:26,705367
1,1,-2,-2,-1,0,-1,0,2021-08-05 17:22:26,708366
3,5,-1,0,2,2,3,5,2021-08-05 17:22:26,708366
-3,-5,-4,-2,-2,-2,-3,-4,2021-08-05 17:22:26,709350
-1,-2,-2,-2,0,-1,-1,0,2021-08-05 17:22:26,709350
2,3,3,2,0,0,-2,0,2021-08-05 17:22:26,720422
-2,1,0,0,-2,-2,-2,-2,2021-08-05 17:22:26,736391
-1,-3,-3,-1,0,0,1,0,2021-08-05 17:22:26,752394
-2,0,-4,-3,-3,-2,-2,-2,2021-08-05 17:22:26,752394
1,-5,-9,-6,0,2,0,0,2021-08-05 17:22:26,752394
0,0,2,0,-3,-2,-2,-2,2021-08-05 17:22:26,752394
-2,-1,1,0,-5,-1,-2,-2,2021-08-05 17:22:26,767314
-1,-2,-1,-5,-3,-2,-2,0,2021-08-05 17:22:26,782937
-8,-33,0,-2,-3,-2,-1,-2,2021-08-05 17:22:26,798173
3,23,-6,-1,3,1,0,1,2021-08-05 17:22:26,798414
1,2,0,-2,-2,-1,0,-2,2021-08-05 17:22:26,798414
-2,4,6,3,-1,-2,-2,-2,2021-08-05 17:22:26,798414
0,0,-7,-2,2,1,-2,-1,2021-08-05 17:22:26,798414
-3,-13,-8,-3,-1,-1,2,1,2021-08-05 17:22:26,798414
-1,0,1,-2,-1,0,-3,-1,2021-08-05 17:22:26,798414
1,0,8,4,2,3,3,3,2021-08-05 17:22:26,798898
-2,6,-2,-1,-4,-3,-2,-4,2021-08-05 17:22:26,798898
-2,-8,0,-2,-3,-2,-2,-2,2021-08-05 17:22:26,798898
1,5,-1,2,5,3,1,0,2021-08-05 17:22:26,798898
-2,-8,-16,-14,-5,-2,-1,-2,2021-08-05 17:22:26,798898
-1,8,5,3,0,-1,-2,-1,2021-08-05 17:22:26,829935
1,-1,3,3,0,0,1,0,2021-08-05 17:22:26,829935
-2,2,4,2,-1,-2,-2,-2,2021-08-05 17:22:26,829935
2,-2,1,4,2,1,1,1,2021-08-05 17:22:26,829935
-2,-5,-5,-8,-3,-2,-1,-2,2021-08-05 17:22:26,845989
-3,2,1,-1,-1,-1,-3,-6,2021-08-05 17:22:26,845989
-4,-3,-2,-1,0,0,-2,-1,2021-08-05 17:22:26,845989
-1,1,6,3,0,1,1,3,2021-08-05 17:22:26,845989
2,8,-2,1,0,0,1,1,2021-08-05 17:22:26,845989
0,-3,-5,-5,-4,-2,-2,-3,2021-08-05 17:22:26,845989
-3,-7,-2,-5,-3,-3,-3,-3,2021-08-05 17:22:26,877009
-1,-10,-4,1,1,0,0,1,2021-08-05 17:22:26,892933
4,12,8,9,2,1,1,3,2021-08-05 17:22:26,892933
-2,-5,-2,0,0,1,-2,-2,2021-08-05 17:22:26,892933
0,0,-8,-6,-4,0,0,-1,2021-08-05 17:22:26,893338
-3,-3,-3,-3,-3,-3,-4,-5,2021-08-05 17:22:26,893338
-1,-11,-2,-2,-1,-1,-1,1,2021-08-05 17:22:26,908932
-2,10,9,6,-1,-1,-1,0,2021-08-05 17:22:26,908932
4,6,7,6,3,1,1,3,2021-08-05 17:22:26,908932
-4,-3,-18,-14,-4,-3,-2,-3,2021-08-05 17:22:26,908932
0,1,-5,-2,0,1,1,-1,2021-08-05 17:22:26,908932
0,-4,4,-2,-1,0,1,2,2021-08-05 17:22:26,908932
-3,-6,1,0,-1,0,-1,-1,2021-08-05 17:22:26,940933
2,11,9,9,4,-1,-1,-2,2021-08-05 17:22:26,940933
2,4,0,1,2,0,2,4,2021-08-05 17:22:26,940933
-1,-7,-5,-2,0,-1,-1,-4,2021-08-05 17:22:26,940933
-1,2,2,2,-3,-3,0,-1,2021-08-05 17:22:26,940933
-1,0,-2,1,-1,-1,-1,-4,2021-08-05 17:22:26,940933
-1,1,-1,-17,-5,-3,-3,-1,2021-08-05 17:22:26,970932
-3,-3,-1,4,-1,0,-4,-3,2021-08-05 17:22:26,970932
2,-1,-2,-2,-1,-1,2,3,2021-08-05 17:22:26,970932
-1,0,-1,0,-4,-4,-3,-3,2021-08-05 17:22:26,970932
-2,-9,-12,-3,-1,-4,0,1,2021-08-05 17:22:26,987016
0,6,5,-1,-2,-4,-1,-3,2021-08-05 17:22:26,987016
-2,-4,-8,-4,-2,-2,-3,-4,2021-08-05 17:22:27,003009
6,0,11,8,1,3,3,6,2021-08-05 17:22:27,018971
-1,2,9,7,-1,0,-2,-3,2021-08-05 17:22:27,018971
0,-3,-9,-9,-2,1,0,2,2021-08-05 17:22:27,018971
-5,-5,-3,-2,-1,0,-2,-2,2021-08-05 17:22:27,019423
-1,11,11,-3,-1,0,0,2,2021-08-05 17:22:27,019423
1,-8,-12,1,1,1,0,1,2021-08-05 17:22:27,019423
-2,-33,-3,-3,-1,-1,-1,-3,2021-08-05 17:22:27,019423
1,7,2,4,6,2,3,-2,2021-08-05 17:22:27,019423
-6,5,-2,-2,-3,-2,-5,-6,2021-08-05 17:22:27,019423
-3,4,6,2,-2,-2,-4,-6,2021-08-05 17:22:27,032933
2,8,2,0,-4,-5,-3,1,2021-08-05 17:22:27,051184
1,38,15,-1,-5,-3,-1,0,2021-08-05 17:22:27,066932
-2,-40,-13,-4,0,-1,-1,1,2021-08-05 17:22:27,066932
-2,-6,-11,-3,0,0,0,-2,2021-08-05 17:22:27,066932
3,4,-11,3,4,3,3,1,2021-08-05 17:22:27,067397
-3,-13,-10,-3,-1,2,-1,0,2021-08-05 17:22:27,067397
-3,14,11,-2,-4,-3,-2,-6,2021-08-05 17:22:27,067397
-3,1,6,1,-1,1,-1,-1,2021-08-05 17:22:27,082932
0,1,5,1,-2,-2,-4,-1,2021-08-05 17:22:27,098932
1,1,-7,0,0,0,1,0,2021-08-05 17:22:27,115045
-1,21,2,-1,-3,0,0,-3,2021-08-05 17:22:27,115045
3,-27,-12,2,5,4,3,3,2021-08-05 17:22:27,115045
4,3,-8,-1,0,-1,-1,-1,2021-08-05 17:22:27,115045
-3,0,10,-6,-7,-4,-3,-2,2021-08-05 17:22:27,115045
13,67,0,4,6,6,5,5,2021-08-05 17:22:27,115045
-20,-65,-4,4,0,-1,0,-1,2021-08-05 17:22:27,115897
-3,14,2,3,1,3,0,1,2021-08-05 17:22:27,115897
6,-17,-11,-3,-1,-2,-2,3,2021-08-05 17:22:27,115897
-6,5,-9,-16,-11,-6,-7,-10,2021-08-05 17:22:27,115897
12,33,16,2,0,2,0,3,2021-08-05 17:22:27,145936
-4,-11,2,3,3,3,2,2,2021-08-05 17:22:27,177936
-6,-1,-4,1,-3,-4,-3,-4,2021-08-05 17:22:27,177936
0,-12,3,2,1,0,2,2,2021-08-05 17:22:27,178253
-3,3,-4,0,-2,-4,-2,-2,2021-08-05 17:22:27,178253
-3,-21,-7,-2,-2,-3,-2,1,2021-08-05 17:22:27,178473
4,32,2,3,4,3,1,2,2021-08-05 17:22:27,178473
-4,-50,-14,-1,-2,-1,-1,-1,2021-08-05 17:22:27,178473
-3,1,6,-5,-7,-5,-3,-7,2021-08-05 17:22:27,178473
-2,29,14,-8,-9,-4,-4,-2,2021-08-05 17:22:27,178937
-8,-58,-30,0,3,3,0,-2,2021-08-05 17:22:27,178937
1,36,6,-1,-1,0,2,3,2021-08-05 17:22:27,178937
3,-37,-17,-1,0,0,2,3,2021-08-05 17:22:27,210019
2,18,10,-3,-2,-3,-2,-3,2021-08-05 17:22:27,210019
-1,18,12,-3,-4,-3,-2,-1,2021-08-05 17:22:27,210019
-4,-25,-1,3,2,1,-2,-1,2021-08-05 17:22:27,210019
-1,33,7,0,-2,-2,-3,-3,2021-08-05 17:22:27,226008
-3,-11,-5,-1,0,0,0,-1,2021-08-05 17:22:27,226008
2,-12,0,0,2,2,3,2,2021-08-05 17:22:27,226008
0,6,-4,-1,0,-2,-3,1,2021-08-05 17:22:27,226008
-1,-12,4,-4,-1,-1,-3,-2,2021-08-05 17:22:27,241952
0,-5,4,7,5,4,2,2,2021-08-05 17:22:27,258055
-1,-5,-20,-5,-4,-2,-2,-2,2021-08-05 17:22:27,288045
-2,-8,-2,-3,-2,-2,-1,-2,2021-08-05 17:22:27,303949
-3,19,1,-2,-5,-3,-4,-4,2021-08-05 17:22:27,320031
8,-4,0,1,3,4,7,8,2021-08-05 17:22:27,335899
-1,25,20,6,2,-2,-1,-2,2021-08-05 17:22:27,345949
5,1,-12,3,5,4,4,4,2021-08-05 17:22:27,345949
-1,-36,2,-3,-2,0,-1,-1,2021-08-05 17:22:27,345949
-5,-22,-23,-9,-4,-6,-6,-7,2021-08-05 17:22:27,345949
3,21,17,0,-2,-1,-3,0,2021-08-05 17:22:27,345949
-2,13,15,2,0,-2,-3,-3,2021-08-05 17:22:27,346899
4,31,-1,2,2,0,1,1,2021-08-05 17:22:27,346899
1,13,9,0,-1,-1,0,-4,2021-08-05 17:22:27,346899
-12,-36,-27,-1,-1,1,2,2,2021-08-05 17:22:27,351983
1,-12,-8,-8,-7,-3,-3,0,2021-08-05 17:22:27,351983
2,15,8,0,0,-1,0,-1,2021-08-05 17:22:27,351983
-3,3,5,-2,-4,-5,-3,-5,2021-08-05 17:22:27,351983
10,9,14,6,7,7,7,8,2021-08-05 17:22:27,351983
-6,-18,5,1,0,-1,0,1,2021-08-05 17:22:27,351983
0,18,-10,1,3,0,1,2,2021-08-05 17:22:27,351983
-2,-22,-8,-1,1,-1,0,-1,2021-08-05 17:22:27,351983
-6,-24,-10,-6,-3,-5,-3,-5,2021-08-05 17:22:27,351983
-1,4,9,2,0,1,0,1,2021-08-05 17:22:27,352899
1,10,-5,-2,-1,-1,0,-3,2021-08-05 17:22:27,352899
-3,8,-4,0,0,0,-2,-1,2021-08-05 17:22:27,353071
-2,-3,6,-6,-6,-4,-4,-2,2021-08-05 17:22:27,383899
-1,-7,-4,-2,-1,-1,0,-2,2021-08-05 17:22:27,398716
1,12,8,1,-2,0,-1,0,2021-08-05 17:22:27,398898
-2,-4,1,1,3,2,1,1,2021-08-05 17:22:27,398898
2,1,-2,-1,0,1,1,0,2021-08-05 17:22:27,398898
-4,-3,-5,-1,-2,-2,-4,-4,2021-08-05 17:22:27,398898
-2,-3,0,-1,-4,-2,-2,-3,2021-08-05 17:22:27,399273
0,18,5,0,-2,0,-1,1,2021-08-05 17:22:27,399273
1,-29,-3,-2,-3,-2,-1,-1,2021-08-05 17:22:27,399498
-2,5,-5,-2,-1,-1,1,-2,2021-08-05 17:22:27,399560
-1,18,12,0,0,-1,-1,-1,2021-08-05 17:22:27,428935
-4,-49,-28,-5,-4,-3,-3,-2,2021-08-05 17:22:27,444901
0,12,3,2,2,0,-2,-2,2021-08-05 17:22:27,444901
2,3,-12,-4,-1,0,-2,-2,2021-08-05 17:22:27,444901
-3,-4,3,-6,-6,-4,-3,-4,2021-08-05 17:22:27,444901
1,-10,30,3,1,1,-1,2,2021-08-05 17:22:27,444901
-1,-49,-53,0,2,2,-1,0,2021-08-05 17:22:27,444901
-4,27,1,-6,-3,-3,-3,-2,2021-08-05 17:22:27,444901
-3,-2,-4,0,-1,-3,-3,-2,2021-08-05 17:22:27,461000
4,41,15,1,0,0,1,0,2021-08-05 17:22:27,476981
-2,9,18,0,-3,-3,-2,-1,2021-08-05 17:22:27,477039
1,-24,-4,5,5,3,2,5,2021-08-05 17:22:27,477039
0,13,-1,1,0,1,1,2,2021-08-05 17:22:27,477039
0,8,-1,-1,-1,0,1,2,2021-08-05 17:22:27,477039
-3,-11,9,2,0,0,-1,-2,2021-08-05 17:22:27,477039
2,2,-10,-3,-3,-3,-2,-3,2021-08-05 17:22:27,477039
-2,-15,-8,-2,-1,-1,-3,-2,2021-08-05 17:22:27,507040
-4,17,15,-1,-6,-3,-3,-6,2021-08-05 17:22:27,507261
13,5,-21,2,4,6,5,5,2021-08-05 17:22:27,507261
-7,16,10,-1,-1,-2,1,1,2021-08-05 17:22:27,507261
-3,-34,-6,-2,-1,-1,-1,-1,2021-08-05 17:22:27,522996
-4,11,-5,-1,-1,-3,-3,-5,2021-08-05 17:22:27,522996
6,45,31,4,3,2,2,5,2021-08-05 17:22:27,522996
0,-68,-28,-2,0,0,-2,-4,2021-08-05 17:22:27,522996
1,26,0,1,4,4,5,8,2021-08-05 17:22:27,539105
-2,-23,-3,2,0,0,-2,-1,2021-08-05 17:22:27,539264
-6,4,3,-6,-4,-4,-5,-6,2021-08-05 17:22:27,539346
0,20,3,-3,-3,-3,-1,-3,2021-08-05 17:22:27,539405
-2,-11,-1,0,-2,-1,-1,-1,2021-08-05 17:22:27,569932
3,6,-2,0,2,0,0,2,2021-08-05 17:22:27,586011
-1,13,7,2,-2,0,0,-1,2021-08-05 17:22:27,600932
-2,-9,11,6,3,1,1,1,2021-08-05 17:22:27,616049
1,0,-4,-1,-1,1,2,2,2021-08-05 17:22:27,632061
0,-8,-17,-1,2,2,0,1,2021-08-05 17:22:27,648067
-9,-6,4,-8,-7,-7,-4,-4,2021-08-05 17:22:27,648101
-4,-3,5,-1,-3,-2,-2,-4,2021-08-05 17:22:27,648246
5,0,-15,3,5,5,2,-3,2021-08-05 17:22:27,648310
0,3,2,3,3,2,2,4,2021-08-05 17:22:27,648310
-1,16,-2,-1,-1,-3,-2,-3,2021-08-05 17:22:27,648310
-1,-45,-1,-3,-3,-3,-1,1,2021-08-05 17:22:27,648310
-1,2,7,1,0,-2,-1,-2,2021-08-05 17:22:27,654932
-1,-3,-9,-3,-1,0,-1,2,2021-08-05 17:22:27,654932
-3,1,-8,-2,-2,-2,-1,-4,2021-08-05 17:22:27,654932
4,26,7,2,1,2,1,3,2021-08-05 17:22:27,654932
-4,-14,-10,-2,-1,-1,-1,-2,2021-08-05 17:22:27,654932
-1,-2,0,-1,1,1,1,1,2021-08-05 17:22:27,654932
0,29,14,2,1,1,1,-2,2021-08-05 17:22:27,662997
0,7,-1,3,1,2,1,1,2021-08-05 17:22:27,663141
-3,-19,-10,-1,-3,1,1,-1,2021-08-05 17:22:27,663141
4,-17,-5,-1,1,2,2,1,2021-08-05 17:22:27,663141
-2,-7,2,-5,-6,-4,-5,-3,2021-08-05 17:22:27,663141
-7,4,-1,1,4,2,3,1,2021-08-05 17:22:27,663141
2,27,15,-4,-3,-3,-3,-3,2021-08-05 17:22:27,678924
-3,0,-10,-6,-5,-3,-1,-2,2021-08-05 17:22:27,694922
5,-3,1,3,0,2,0,1,2021-08-05 17:22:27,694922
0,-14,-15,-3,-5,-1,0,0,2021-08-05 17:22:27,694922
-2,3,12,0,0,-3,-3,-3,2021-08-05 17:22:27,694922
1,4,-13,-1,1,-1,-1,1,2021-08-05 17:22:27,694922
3,-13,5,-1,4,2,3,4,2021-08-05 17:22:27,710958
-2,13,12,2,0,-1,-2,-2,2021-08-05 17:22:27,710958
2,-5,-9,0,2,2,3,2,2021-08-05 17:22:27,710958
-5,9,8,1,-3,-4,-5,-6,2021-08-05 17:22:27,710958
-2,18,11,1,-2,-3,-4,-4,2021-08-05 17:22:27,725935
2,-58,-34,-2,1,1,0,0,2021-08-05 17:22:27,725935
1,3,-9,-9,-8,-7,-6,-5,2021-08-05 17:22:27,740933
-15,1,7,-1,-2,-1,-1,1,2021-08-05 17:22:27,740933
0,3,3,-1,-1,-1,-1,-4,2021-08-05 17:22:27,740933
4,36,28,7,3,3,2,1,2021-08-05 17:22:27,740933
-2,-37,-17,0,2,0,-1,2,2021-08-05 17:22:27,771934
2,-4,-6,0,-3,-2,-4,-5,2021-08-05 17:22:27,771934
-3,8,-3,-6,-3,-4,-2,-2,2021-08-05 17:22:27,771934
1,-16,-13,-3,-2,0,-2,-2,2021-08-05 17:22:27,771934
1,19,11,0,0,1,1,2,2021-08-05 17:22:27,771934
-3,5,11,0,-2,-1,-3,-5,2021-08-05 17:22:27,772609
-1,-8,-9,-2,-2,0,0,4,2021-08-05 17:22:27,787057
2,6,-3,0,1,0,-2,-2,2021-08-05 17:22:27,787176
-2,11,6,-1,-2,-1,-2,0,2021-08-05 17:22:27,803102
2,-20,-16,-3,-1,-1,-1,-3,2021-08-05 17:22:27,819001
-9,-7,-4,-2,-1,-4,-1,-1,2021-08-05 17:22:27,850933
-1,20,14,-7,-9,-8,-5,-4,2021-08-05 17:22:27,850933
-2,-31,-3,5,6,4,4,5,2021-08-05 17:22:27,850933
-4,6,-18,-1,1,2,0,0,2021-08-05 17:22:27,850933
1,-39,-6,-7,-3,-3,-1,-1,2021-08-05 17:22:27,850933
-3,20,1,-2,-1,-1,1,0,2021-08-05 17:22:27,850933
-4,23,13,0,-2,-4,-4,-5,2021-08-05 17:22:27,850933
14,3,10,8,6,8,5,9,2021-08-05 17:22:27,850933
1,2,-6,7,3,0,-2,-4,2021-08-05 17:22:27,850933
0,7,6,-2,0,-2,-3,0,2021-08-05 17:22:27,851899
-1,22,3,-2,-5,-6,-5,-4,2021-08-05 17:22:27,865933
-2,-32,-2,-4,-2,-3,0,1,2021-08-05 17:22:27,865933
0,27,7,1,0,-1,3,1,2021-08-05 17:22:27,865933
0,-43,-31,-5,-1,-1,1,1,2021-08-05 17:22:27,866305
-3,-21,-10,-5,-4,-2,-1,-4,2021-08-05 17:22:27,880959
-6,8,-1,-4,-4,-5,-3,-6,2021-08-05 17:22:27,881326
-2,8,6,1,-3,0,0,-2,2021-08-05 17:22:27,881326
2,9,11,5,4,3,2,2,2021-08-05 17:22:27,881326
3,3,-1,5,2,5,5,6,2021-08-05 17:22:27,896899
2,12,17,1,-2,-2,-1,-2,2021-08-05 17:22:27,896899
-4,-42,-15,-4,-3,-1,-4,-3,2021-08-05 17:22:27,911932
-3,3,-24,-3,-1,-3,-3,-2,2021-08-05 17:22:27,912077
-3,-5,2,-4,-3,-1,-3,-3,2021-08-05 17:22:27,926993
2,13,7,2,0,-1,-1,0,2021-08-05 17:22:27,926993
3,7,4,3,5,3,2,5,2021-08-05 17:22:27,926993
-5,4,2,-1,-2,-2,0,-2,2021-08-05 17:22:27,927319
4,-5,3,0,3,-1,3,1,2021-08-05 17:22:27,941985
-2,-12,-11,-6,-7,-4,-4,-4,2021-08-05 17:22:27,957958
-1,-9,-15,-3,-2,0,0,-1,2021-08-05 17:22:27,967932
-11,-5,8,-4,-5,-4,-4,-3,2021-08-05 17:22:27,967932
-2,6,4,-1,-2,-1,-2,-1,2021-08-05 17:22:27,967932
2,37,7,3,2,1,1,2,2021-08-05 17:22:27,967932
1,-32,-5,-4,-1,-2,-3,-2,2021-08-05 17:22:27,967932
9,15,7,6,2,1,2,0,2021-08-05 17:22:27,967932
0,10,-4,3,3,4,1,1,2021-08-05 17:22:27,987936
-18,-25,-1,0,-2,-1,-2,-3,2021-08-05 17:22:27,987936
1,74,15,-1,-2,0,-1,-2,2021-08-05 17:22:27,987936
5,-37,6,1,0,1,1,4,2021-08-05 17:22:27,987936
1,-28,-15,-2,3,2,1,2,2021-08-05 17:22:28,019932
6,-17,-41,-11,-4,-4,-4,-3,2021-08-05 17:22:28,035973
-1,11,10,-2,-1,-1,0,-2,2021-08-05 17:22:28,067995
-4,23,9,-3,-5,-3,-5,-5,2021-08-05 17:22:28,067995
0,14,18,3,-3,-4,-1,-3,2021-08-05 17:22:28,067995
8,11,5,7,5,6,6,13,2021-08-05 17:22:28,067995
-7,-33,-4,-2,-3,-3,-1,-3,2021-08-05 17:22:28,067995
3,13,-9,-2,0,1,1,1,2021-08-05 17:22:28,068424
-5,-4,-12,-1,2,0,0,-3,2021-08-05 17:22:28,068424
-7,-24,1,-2,-5,-6,-4,-7,2021-08-05 17:22:28,068424
-1,1,-6,-1,-1,-1,-1,-1,2021-08-05 17:22:28,068424
1,44,14,-3,-4,-2,-4,-4,2021-08-05 17:22:28,068424
2,-74,-3,5,5,5,1,1,2021-08-05 17:22:28,068424
0,14,-4,-2,-2,-2,-1,-2,2021-08-05 17:22:28,068424
-8,-11,-6,-2,-1,-2,-3,-3,2021-08-05 17:22:28,068941
0,-6,3,0,1,-1,0,1,2021-08-05 17:22:28,068941
0,54,4,-5,-5,-3,-2,-2,2021-08-05 17:22:28,098948
12,21,26,6,-2,0,2,3,2021-08-05 17:22:28,113899
-11,-39,-26,0,-1,2,2,3,2021-08-05 17:22:28,113899
-8,-51,-15,-19,-9,-4,-4,-11,2021-08-05 17:22:28,113899
-3,13,3,1,-2,-4,-2,-2,2021-08-05 17:22:28,113899
3,1,-7,-2,1,1,0,-1,2021-08-05 17:22:28,113899
6,26,10,1,-3,-1,-2,-1,2021-08-05 17:22:28,113899
-3,4,-1,7,2,0,0,1,2021-08-05 17:22:28,113899
8,90,16,5,5,4,4,7,2021-08-05 17:22:28,129960
-15,-122,-27,-8,-5,-4,-4,-7,2021-08-05 17:22:28,145933
2,42,-8,-2,3,0,0,2,2021-08-05 17:22:28,145933
-4,22,14,-6,-9,-8,-7,-6,2021-08-05 17:22:28,145933
-2,-25,-14,-7,-5,-5,-6,-6,2021-08-05 17:22:28,145933
6,104,30,7,7,2,4,5,2021-08-05 17:22:28,145933
4,-105,-3,11,6,3,5,4,2021-08-05 17:22:28,145933
-4,-22,-13,3,4,6,3,3,2021-08-05 17:22:28,145933
-9,7,1,-7,-9,-7,-8,-5,2021-08-05 17:22:28,161015
-3,-9,-4,-7,-4,-2,-5,-1,2021-08-05 17:22:28,161136
2,16,-5,-6,-2,-2,-3,-1,2021-08-05 17:22:28,161136
5,25,35,10,2,2,3,4,2021-08-05 17:22:28,161136
5,27,-21,-4,-2,1,1,1,2021-08-05 17:22:28,191950
4,-25,-14,-1,4,2,-1,-1,2021-08-05 17:22:28,207949
-14,-44,2,0,-3,-3,-1,-2,2021-08-05 17:22:28,208104
-7,-3,-18,-8,-2,-4,-3,-4,2021-08-05 17:22:28,208104
8,56,35,4,-1,0,0,1,2021-08-05 17:22:28,208104
1,-35,1,6,7,4,5,3,2021-08-05 17:22:28,208104
9,12,-22,-9,-2,-1,0,-4,2021-08-05 17:22:28,208104
-19,-1,-2,-5,-3,-1,0,0,2021-08-05 17:22:28,208104
-1,4,4,-1,-4,-4,-5,-4,2021-08-05 17:22:28,239969
6,2,18,7,1,-1,-2,0,2021-08-05 17:22:28,239969
5,76,12,2,5,3,2,3,2021-08-05 17:22:28,239969
1,-102,-20,5,4,2,1,2,2021-08-05 17:22:28,239969
0,-3,-24,-4,1,1,1,1,2021-08-05 17:22:28,239969
-5,-3,8,-8,-12,-10,-7,-7,2021-08-05 17:22:28,239969
-4,5,-9,-7,-3,-2,-2,-4,2021-08-05 17:22:28,239969
10,54,20,1,-2,-1,-1,1,2021-08-05 17:22:28,239969
-4,-19,-4,2,1,1,1,-1,2021-08-05 17:22:28,272042
-8,-26,-6,3,2,3,3,2,2021-08-05 17:22:28,283934
1,64,0,-3,-2,-3,-1,-1,2021-08-05 17:22:28,283934
2,-76,-13,-2,0,-2,0,1,2021-08-05 17:22:28,283934
-5,-24,-9,-2,2,-1,-1,-3,2021-08-05 17:22:28,283934
-2,49,4,-4,-6,-6,-5,-5,2021-08-05 17:22:28,283934
-1,-16,15,3,-1,-2,-3,-2,2021-08-05 17:22:28,284925
5,15,-9,4,3,2,1,5,2021-08-05 17:22:28,284925
12,13,6,1,-1,1,1,1,2021-08-05 17:22:28,303945
-20,14,-3,-2,-1,0,-1,-5,2021-08-05 17:22:28,304124
-6,-51,-5,0,1,3,1,2,2021-08-05 17:22:28,304124
3,19,-7,-3,-5,-5,-2,-6,2021-08-05 17:22:28,304124
-6,-28,2,-3,-3,-2,-1,0,2021-08-05 17:22:28,335469
8,34,2,-3,0,0,-2,1,2021-08-05 17:22:28,351479
4,1,8,8,3,0,1,0,2021-08-05 17:22:28,351479
-3,5,4,2,4,3,1,0,2021-08-05 17:22:28,351479
-3,-30,-20,-5,-2,-4,-2,-1,2021-08-05 17:22:28,351479
2,5,-5,-6,-5,-5,-4,-4,2021-08-05 17:22:28,351479
-2,-8,8,-1,0,1,0,3,2021-08-05 17:22:28,351479
1,52,14,4,0,1,1,0,2021-08-05 17:22:28,351479
-2,-44,-10,8,5,4,3,6,2021-08-05 17:22:28,367596
-2,-15,-12,-7,-7,-4,-4,-4,2021-08-05 17:22:28,382496
4,17,21,2,1,1,1,0,2021-08-05 17:22:28,382496
-2,-40,-26,-5,-3,-4,-4,-4,2021-08-05 17:22:28,382496
-13,9,8,1,-1,-1,0,-4,2021-08-05 17:22:28,382496
2,-3,-6,0,1,1,1,3,2021-08-05 17:22:28,382496
3,34,8,-2,-3,-3,-2,-4,2021-08-05 17:22:28,398443
-5,-39,-10,-4,-5,-6,-5,-5,2021-08-05 17:22:28,413560
0,8,-1,-2,-1,2,2,4,2021-08-05 17:22:28,429495
8,-13,5,5,1,2,0,0,2021-08-05 17:22:28,429752
-6,-8,-8,-5,-2,0,0,2,2021-08-05 17:22:28,445496
-15,13,0,-6,-2,-2,-2,-1,2021-08-05 17:22:28,445496
15,50,11,-2,-4,-6,-5,-4,2021-08-05 17:22:28,445496
-4,-37,-11,-2,0,-2,1,1,2021-08-05 17:22:28,445496
0,-23,-5,-4,-2,-1,-1,-2,2021-08-05 17:22:28,445496
-4,9,4,2,1,2,1,0,2021-08-05 17:22:28,445496
-3,21,11,0,-2,-3,-3,-3,2021-08-05 17:22:28,445496
6,21,-3,6,3,4,4,4,2021-08-05 17:22:28,445496
1,-33,-13,-5,-5,-4,-2,-2,2021-08-05 17:22:28,461480
4,0,-9,-5,-4,-3,-3,0,2021-08-05 17:22:28,476482
-7,-7,12,-1,-1,1,-1,-5,2021-08-05 17:22:28,476699
2,22,9,0,0,0,-2,0,2021-08-05 17:22:28,476699
-5,-5,-20,-4,-2,-2,-3,-1,2021-08-05 17:22:28,476699
5,53,3,-1,-2,-2,-1,-1,2021-08-05 17:22:28,476699
1,-36,10,6,3,1,3,1,2021-08-05 17:22:28,476699
-13,-73,-20,-4,-1,1,0,-1,2021-08-05 17:22:28,476699
0,42,7,0,-1,-1,-1,-5,2021-08-05 17:22:28,477444
10,36,12,-1,-1,0,-2,0,2021-08-05 17:22:28,477444
9,-42,-14,-1,3,1,0,2,2021-08-05 17:22:28,508590
-24,19,6,-5,-4,-3,-4,-5,2021-08-05 17:22:28,524481
10,28,14,4,-2,-1,1,-1,2021-08-05 17:22:28,540482
-6,-51,-20,0,-2,-1,-1,-3,2021-08-05 17:22:28,540482
0,-8,-12,-8,-5,0,-1,1,2021-08-05 17:22:28,540808
6,10,16,6,3,-1,-1,-1,2021-08-05 17:22:28,540808
2,9,0,-5,-5,-3,-4,-2,2021-08-05 17:22:28,556575
4,10,3,8,6,4,4,2,2021-08-05 17:22:28,556575
-8,30,-4,-6,-5,-7,-5,-5,2021-08-05 17:22:28,556575
3,-17,-11,-5,1,0,0,1,2021-08-05 17:22:28,556575
-5,0,-9,-1,0,-1,-2,-1,2021-08-05 17:22:28,556575
-3,-9,26,4,4,0,-1,-1,2021-08-05 17:22:28,556575
-4,-2,-18,2,1,2,3,3,2021-08-05 17:22:28,571483
1,-7,-10,-3,-3,-1,0,-3,2021-08-05 17:22:28,587479
-1,-38,2,-4,-2,-1,-3,0,2021-08-05 17:22:28,587479
1,15,3,-2,-5,-5,-4,-3,2021-08-05 17:22:28,587699
-1,67,14,2,1,-1,-2,-2,2021-08-05 17:22:28,587699
9,-55,0,2,1,2,2,4,2021-08-05 17:22:28,587699
-13,-6,-5,5,3,3,3,2,2021-08-05 17:22:28,602482
3,43,17,0,-1,-1,1,1,2021-08-05 17:22:28,603478
-1,-13,-9,0,-1,-3,-2,-3,2021-08-05 17:22:28,604445
3,-7,5,-1,-3,-3,-1,-2,2021-08-05 17:22:28,604445
-8,-27,-29,-5,2,0,0,-4,2021-08-05 17:22:28,618494
6,-3,-1,-6,-6,-2,-2,1,2021-08-05 17:22:28,634498
-3,-7,21,3,-1,-1,-2,0,2021-08-05 17:22:28,650524
5,24,2,-2,0,0,-1,0,2021-08-05 17:22:28,666576
2,-5,-12,3,2,1,1,1,2021-08-05 17:22:28,682496
-10,-2,4,-3,-3,-4,-1,-4,2021-08-05 17:22:28,682496
2,4,-12,5,7,4,4,0,2021-08-05 17:22:28,682496
-7,-27,6,-3,-7,-6,-6,-6,2021-08-05 17:22:28,682496
4,43,2,3,-3,-2,-4,-3,2021-08-05 17:22:28,682496
0,-52,-15,-7,-5,-6,-8,-7,2021-08-05 17:22:28,682496
-2,46,16,-3,-4,-3,0,5,2021-08-05 17:22:28,682496
5,-25,-15,0,2,2,2,4,2021-08-05 17:22:28,682496
4,47,9,0,0,0,-1,-1,2021-08-05 17:22:28,683445
-18,-54,-7,3,4,2,0,-3,2021-08-05 17:22:28,683445
1,-16,-6,-8,-7,-3,-3,-7,2021-08-05 17:22:28,683445
-2,49,4,-4,-2,-2,-1,0,2021-08-05 17:22:28,683445
11,85,24,1,-1,1,2,2,2021-08-05 17:22:28,683445
8,-78,-19,6,10,9,7,8,2021-08-05 17:22:28,683445
-15,-22,-12,-3,-4,-5,-4,-5,2021-08-05 17:22:28,714532
4,54,-9,-1,1,2,0,-3,2021-08-05 17:22:28,730503
-2,-27,-8,-6,-7,-8,-5,-5,2021-08-05 17:22:28,746565
2,46,12,1,-1,-1,0,3,2021-08-05 17:22:28,746642
0,-31,6,1,3,1,3,4,2021-08-05 17:22:28,746642
1,66,2,2,0,0,1,-1,2021-08-05 17:22:28,746642
-8,-96,7,-4,-7,-5,-5,-5,2021-08-05 17:22:28,746642
5,22,-9,1,3,2,1,-1,2021-08-05 17:22:28,746642
-8,-36,-5,-1,-1,2,0,1,2021-08-05 17:22:28,746642
7,33,6,1,-1,-3,0,-1,2021-08-05 17:22:28,747450
-22,-21,-8,-4,-5,-6,-4,-9,2021-08-05 17:22:28,747450
4,-1,-3,-3,-1,-1,-2,-1,2021-08-05 17:22:28,747666
18,3,14,5,4,3,2,4,2021-08-05 17:22:28,762527
-3,27,-12,-1,1,1,0,0,2021-08-05 17:22:28,762721
-12,-56,-8,-6,-1,-2,-2,-1,2021-08-05 17:22:28,762721
6,55,9,0,-3,-5,-1,2,2021-08-05 17:22:28,762721
0,-47,-3,10,7,3,0,-1,2021-08-05 17:22:28,794495
-7,-3,-14,-4,-2,-3,0,-1,2021-08-05 17:22:28,810549
8,-19,-3,-5,-3,-3,-3,-1,2021-08-05 17:22:28,810549
-3,24,-4,-4,-1,1,-3,-3,2021-08-05 17:22:28,810549
1,9,10,-4,-2,0,-1,-2,2021-08-05 17:22:28,810549
-3,-2,19,7,4,1,1,1,2021-08-05 17:22:28,810549
2,45,3,3,2,4,4,3,2021-08-05 17:22:28,810549
5,-39,-26,2,3,4,5,6,2021-08-05 17:22:28,810549
-15,-5,-4,-8,-8,-7,-6,-8,2021-08-05 17:22:28,826481
-7,-31,-2,-5,-6,-6,-6,-8,2021-08-05 17:22:28,826628
3,33,19,3,0,0,-1,-1,2021-08-05 17:22:28,826808
8,48,21,5,4,6,5,8,2021-08-05 17:22:28,826827
7,-8,-11,6,8,6,4,5,2021-08-05 17:22:28,841894
-1,-40,-16,-1,-2,-1,-1,0,2021-08-05 17:22:28,841894
-3,-16,-5,-4,-4,-4,-2,-4,2021-08-05 17:22:28,841894
-8,4,-6,-5,-5,-5,-5,-6,2021-08-05 17:22:28,841894
1,-2,19,0,-4,-5,-4,-4,2021-08-05 17:22:28,872505
5,-15,1,2,4,4,4,4,2021-08-05 17:22:28,888564
-4,-19,-15,5,4,2,1,1,2021-08-05 17:22:28,888769
-8,-21,-6,-5,-6,-4,-2,-4,2021-08-05 17:22:28,888769
0,36,12,-2,-4,-2,-2,-6,2021-08-05 17:22:28,888769
5,5,-10,-3,0,1,1,2,2021-08-05 17:22:28,888769
15,-1,15,0,0,1,1,1,2021-08-05 17:22:28,889296
-4,104,15,0,-1,-1,-1,-2,2021-08-05 17:22:28,889472
-24,-100,-28,-3,-2,-3,-2,-3,2021-08-05 17:22:28,904562
-11,24,-4,-8,-7,-4,-5,-6,2021-08-05 17:22:28,904562
9,5,-5,-3,-3,-2,-2,0,2021-08-05 17:22:28,904850
1,21,18,-2,-3,-1,-1,-1,2021-08-05 17:22:28,904850
12,30,4,3,0,1,-1,3,2021-08-05 17:22:28,936443
-5,-18,9,8,3,-1,0,0,2021-08-05 17:22:28,951497
-1,-16,0,3,4,3,3,4,2021-08-05 17:22:28,951497
3,6,-15,-5,0,-2,-1,-3,2021-08-05 17:22:28,951497
-4,-21,2,-5,-5,-4,-1,-1,2021-08-05 17:22:28,951497
-4,-24,3,-3,-3,-2,-3,-5,2021-08-05 17:22:28,951497
-1,-3,-20,0,2,1,-1,0,2021-08-05 17:22:28,951497
-1,-23,10,-1,-4,-4,-4,-5,2021-08-05 17:22:28,951497
5,18,-15,-1,2,3,3,4,2021-08-05 17:22:28,955446
-7,2,1,-4,-4,-4,-2,0,2021-08-05 17:22:28,955446
2,9,14,1,0,-1,1,-1,2021-08-05 17:22:28,966520
-7,-46,-17,0,0,1,0,-1,2021-08-05 17:22:28,982537
0,21,1,-4,-2,-2,-2,-1,2021-08-05 17:22:28,998497
8,18,24,2,0,1,-1,0,2021-08-05 17:22:29,013482
-3,-1,-18,-1,0,0,0,-1,2021-08-05 17:22:29,028608
-2,-20,0,-1,-3,-3,-2,-1,2021-08-05 17:22:29,028709
-4,23,6,2,8,4,5,5,2021-08-05 17:22:29,028709
3,-40,-17,-4,-6,-4,-4,-5,2021-08-05 17:22:29,028709
-14,-28,-6,-5,-3,0,-1,-2,2021-08-05 17:22:29,028709
1,13,-4,1,1,0,-1,-4,2021-08-05 17:22:29,028709
9,23,4,3,0,-3,-1,2,2021-08-05 17:22:29,028709
-1,13,9,-3,-2,0,-1,0,2021-08-05 17:22:29,029444
-1,9,-9,4,3,0,0,1,2021-08-05 17:22:29,029444
2,-81,-15,-3,-2,1,1,-2,2021-08-05 17:22:29,029760
-22,18,-4,-6,-8,-6,-7,-13,2021-08-05 17:22:29,043508
11,-9,5,2,3,4,3,6,2021-08-05 17:22:29,059606
4,22,13,-1,-3,-1,-4,-1,2021-08-05 17:22:29,075497
2,12,-2,1,0,1,1,1,2021-08-05 17:22:29,075666
-1,-20,-8,-3,-1,-3,-1,-1,2021-08-05 17:22:29,075666
0,27,4,0,0,-1,-3,-2,2021-08-05 17:22:29,075666
-3,-17,-3,3,0,-2,1,0,2021-08-05 17:22:29,075666
-6,-12,5,0,2,1,0,2,2021-08-05 17:22:29,075666
6,-3,-22,-6,-5,-1,-3,-4,2021-08-05 17:22:29,075666
-16,38,12,-1,-1,-1,-2,-3,2021-08-05 17:22:29,075666
5,-68,7,3,1,1,2,4,2021-08-05 17:22:29,091442
-3,-2,-15,-1,2,-1,-1,-2,2021-08-05 17:22:29,106507
5,20,16,0,-5,-4,-5,-3,2021-08-05 17:22:29,122518
1,-6,-19,-4,1,0,-1,-2,2021-08-05 17:22:29,122518
-2,32,8,1,-1,-1,-2,-2,2021-08-05 17:22:29,122518
-5,6,2,-6,-8,-5,-4,-3,2021-08-05 17:22:29,122518
1,-23,-17,-3,-2,2,1,1,2021-08-05 17:22:29,122518
-2,-4,3,2,-2,-2,-1,-1,2021-08-05 17:22:29,122518
4,73,22,1,-1,0,1,2,2021-08-05 17:22:29,122518
-2,-84,10,7,5,3,2,0,2021-08-05 17:22:29,122518
-9,-26,-58,-10,-3,-3,-2,-2,2021-08-05 17:22:29,153611
-2,27,15,-7,-9,-8,-5,-7,2021-08-05 17:22:29,169560
5,68,11,3,2,-1,0,-2,2021-08-05 17:22:29,169560
6,-22,-2,-2,-3,-2,-2,1,2021-08-05 17:22:29,169560
5,2,9,-1,-3,-1,-1,-3,2021-08-05 17:22:29,169560
-12,-33,-8,4,4,5,4,1,2021-08-05 17:22:29,169560
-10,19,6,-3,0,1,0,0,2021-08-05 17:22:29,169560
13,95,13,7,4,3,4,6,2021-08-05 17:22:29,169560
-10,-117,-11,-3,-3,-4,-4,-1,2021-08-05 17:22:29,185483
-1,33,-8,-2,-2,-2,-2,-2,2021-08-05 17:22:29,185701
4,-24,-4,-6,-6,-4,-3,-5,2021-08-05 17:22:29,185732
-3,21,-13,0,1,0,-1,-1,2021-08-05 17:22:29,185917
7,14,-2,-2,-2,-1,0,2,2021-08-05 17:22:29,201444
4,2,12,1,1,0,1,4,2021-08-05 17:22:29,201444
-7,-28,-11,2,1,1,0,0,2021-08-05 17:22:29,201819
-2,38,10,-4,-5,-4,-2,-2,2021-08-05 17:22:29,201854
1,-13,-6,3,1,1,2,0,2021-08-05 17:22:29,232502
-5,-25,1,-1,-1,2,-1,-3,2021-08-05 17:22:29,248545
2,0,-20,-3,1,1,1,1,2021-08-05 17:22:29,264446
3,78,20,-2,-3,-4,-4,-2,2021-08-05 17:22:29,264446
-3,-85,2,3,2,0,2,-2,2021-08-05 17:22:29,264446
-2,-5,-23,2,3,1,-1,0,2021-08-05 17:22:29,264446
11,5,1,-6,-7,-4,-3,-3,2021-08-05 17:22:29,264446
-16,25,-1,0,-4,-1,-1,-3,2021-08-05 17:22:29,264446
-1,36,8,0,-2,-1,-2,-1,2021-08-05 17:22:29,264446
8,43,28,2,2,0,1,2,2021-08-05 17:22:29,264446
-2,-123,-33,-2,2,0,-2,1,2021-08-05 17:22:29,265483
-6,-15,-15,-5,-2,-2,-2,-3,2021-08-05 17:22:29,265483
6,57,28,5,3,3,-1,0,2021-08-05 17:22:29,294494
-7,-25,-22,-3,-4,-4,-4,-3,2021-08-05 17:22:29,310570
-1,29,17,3,0,-2,-1,-1,2021-08-05 17:22:29,310570
4,23,15,4,1,2,2,1,2021-08-05 17:22:29,310570
-8,-52,-22,-5,-1,0,0,1,2021-08-05 17:22:29,310570
8,-11,-24,-7,1,2,1,2,2021-08-05 17:22:29,310570
-17,3,10,-3,-4,-3,-4,-6,2021-08-05 17:22:29,310570
7,21,11,2,2,1,1,1,2021-08-05 17:22:29,310570
3,79,2,4,2,1,2,4,2021-08-05 17:22:29,315496
9,-91,-19,-3,-3,-1,0,-4,2021-08-05 17:22:29,315496
-23,9,-2,-8,-5,-4,-3,-5,2021-08-05 17:22:29,341495
2,-33,-13,-2,-1,-2,0,-2,2021-08-05 17:22:29,341495
4,57,25,0,-2,0,-3,-1,2021-08-05 17:22:29,341495
1,37,8,2,0,1,0,3,2021-08-05 17:22:29,341495
5,-22,-10,0,0,2,1,1,2021-08-05 17:22:29,341495
-4,-38,4,-4,-1,-3,0,0,2021-08-05 17:22:29,341495
1,-9,-15,-1,0,-1,2,2,2021-08-05 17:22:29,373539
-2,33,3,-1,-2,-3,-2,-4,2021-08-05 17:22:29,388481
-2,-24,8,4,1,1,1,-1,2021-08-05 17:22:29,403530
-2,16,-8,-1,0,-1,-1,-2,2021-08-05 17:22:29,403530
5,1,20,5,2,2,4,5,2021-08-05 17:22:29,403530
5,-24,-9,0,-1,-2,-4,-2,2021-08-05 17:22:29,403530
-9,61,23,0,-5,-4,-4,-3,2021-08-05 17:22:29,403530
12,-63,-47,-2,0,1,2,5,2021-08-05 17:22:29,403530
-17,24,-5,-6,-7,-3,-3,-5,2021-08-05 17:22:29,403530
2,32,31,5,0,3,2,1,2021-08-05 17:22:29,403530
21,-29,17,5,6,6,5,9,2021-08-05 17:22:29,404480
-6,-47,-39,-3,-1,1,-1,-2,2021-08-05 17:22:29,404480
-14,-4,-3,-10,-7,-5,-6,-10,2021-08-05 17:22:29,433533
-3,-4,1,3,-1,-1,0,0,2021-08-05 17:22:29,433533
2,63,1,1,-4,-2,-3,-2,2021-08-05 17:22:29,449479
0,-17,28,3,0,1,0,2,2021-08-05 17:22:29,449713
1,-48,-19,0,-1,0,-1,0,2021-08-05 17:22:29,449713
-8,-8,-2,-3,-4,0,-1,-1,2021-08-05 17:22:29,449713
-1,16,-1,-1,0,-3,0,-2,2021-08-05 17:22:29,449713
1,-4,-5,0,0,-1,-1,0,2021-08-05 17:22:29,450079
0,21,10,1,-1,-1,-1,-3,2021-08-05 17:22:29,465496
-4,-10,-3,-3,-1,-3,0,-1,2021-08-05 17:22:29,465496
9,-31,-11,2,7,4,4,6,2021-08-05 17:22:29,465496
-6,-14,4,0,2,0,-1,-1,2021-08-05 17:22:29,465496
-11,-15,-9,0,2,1,0,-4,2021-08-05 17:22:29,497552
-8,10,-7,-6,-6,-7,-7,-8,2021-08-05 17:22:29,497657
4,-55,-14,-5,-5,-1,-2,-2,2021-08-05 17:22:29,497657
-4,24,3,-2,-1,-2,-2,-1,2021-08-05 17:22:29,497853
9,6,15,3,1,1,0,2,2021-08-05 17:22:29,497853
2,55,5,2,1,-1,0,1,2021-08-05 17:22:29,497853
-7,-39,-9,-1,1,1,1,1,2021-08-05 17:22:29,512570
-1,-15,-3,-4,-4,-4,-4,-5,2021-08-05 17:22:29,512570
3,-22,1,0,0,1,1,2,2021-08-05 17:22:29,527642
-3,33,-2,-2,-2,-3,-1,-2,2021-08-05 17:22:29,543445
-1,-17,-4,0,0,-1,0,-2,2021-08-05 17:22:29,543445
-3,26,9,3,0,-1,0,-2,2021-08-05 17:22:29,543445
4,12,-8,-6,-4,-4,-4,-3,2021-08-05 17:22:29,543445
1,-12,15,1,0,2,-1,2,2021-08-05 17:22:29,543445
6,52,-17,0,-1,-2,-1,2,2021-08-05 17:22:29,543445
-9,-91,-6,-4,-2,-1,1,0,2021-08-05 17:22:29,543445
-10,17,-9,-1,-2,-1,0,-4,2021-08-05 17:22:29,558496
-1,-19,-5,-2,1,1,1,1,2021-08-05 17:22:29,558496
12,27,12,-4,-6,-5,-6,-4,2021-08-05 17:22:29,574586
-3,70,34,10,6,6,2,3,2021-08-05 17:22:29,574659
-1,-55,-42,-1,-1,0,-1,3,2021-08-05 17:22:29,589681
-6,-41,-6,-6,-2,-1,0,-2,2021-08-05 17:22:29,605485
1,19,1,6,3,4,-1,0,2021-08-05 17:22:29,633477
9,16,6,-4,-3,-4,-3,-4,2021-08-05 17:22:29,634480
-6,15,22,4,0,-1,0,0,2021-08-05 17:22:29,634480
-3,-2,-6,-1,-2,-3,0,-1,2021-08-05 17:22:29,634480
-5,-50,-13,1,0,2,4,4,2021-08-05 17:22:29,634480
4,38,-3,-5,0,0,1,2,2021-08-05 17:22:29,634480
5,-39,5,-1,-2,0,-3,-4,2021-08-05 17:22:29,634480
-3,21,3,-2,-2,0,-4,-3,2021-08-05 17:22:29,634480
-7,43,10,-4,-5,-6,-3,-3,2021-08-05 17:22:29,635425
2,-67,-25,3,4,3,2,3,2021-08-05 17:22:29,635466
-2,25,4,-1,-1,-1,-1,-2,2021-08-05 17:22:29,652702
-1,-61,-2,-4,-4,-4,-3,-2,2021-08-05 17:22:29,668427
-4,8,5,-6,-4,-3,-5,-6,2021-08-05 17:22:29,668427
-3,17,-1,-2,-6,-3,-4,-4,2021-08-05 17:22:29,668427
5,33,10,3,3,1,2,3,2021-08-05 17:22:29,668427
4,4,-1,1,2,1,2,1,2021-08-05 17:22:29,668427
-3,23,8,3,2,2,2,1,2021-08-05 17:22:29,668427
-3,4,1,0,-1,-1,0,1,2021-08-05 17:22:29,668427
4,-37,-8,-4,0,0,-3,-1,2021-08-05 17:22:29,683461
-8,-2,-20,-3,-4,-4,-3,-4,2021-08-05 17:22:29,683791
2,-10,-4,0,0,0,1,1,2021-08-05 17:22:29,683791
6,29,12,-2,-6,-4,-5,-5,2021-08-05 17:22:29,683791
-10,48,30,4,1,0,0,-1,2021-08-05 17:22:29,714122
-6,-66,-42,-1,4,3,2,2,2021-08-05 17:22:29,714122
6,53,2,-1,-1,0,1,2,2021-08-05 17:22:29,714427
-6,-77,-2,-1,-3,-4,-4,-4,2021-08-05 17:22:29,714427
8,6,-10,-2,1,1,2,1,2021-08-05 17:22:29,729477
3,26,24,1,0,-1,-1,-2,2021-08-05 17:22:29,729477
-15,-12,-16,-5,-2,-3,-1,-4,2021-08-05 17:22:29,729477
6,2,1,4,3,2,3,5,2021-08-05 17:22:29,729477
-6,0,-1,-4,-8,-7,-4,-5,2021-08-05 17:22:29,760452
4,1,0,6,6,7,5,7,2021-08-05 17:22:29,775431
1,18,10,-2,-1,0,-1,-3,2021-08-05 17:22:29,775675
-3,-48,6,-1,-1,-1,0,-1,2021-08-05 17:22:29,775675
-9,-4,-26,-7,-3,-4,-2,-4,2021-08-05 17:22:29,775881
-1,50,21,2,-4,-1,-1,2,2021-08-05 17:22:29,775881
5,8,-17,0,1,-2,0,-2,2021-08-05 17:22:29,775881
-6,-17,1,-4,-5,-2,-1,-2,2021-08-05 17:22:29,775881
4,-4,-5,2,2,1,-1,1,2021-08-05 17:22:29,790452
2,0,12,-5,-6,-5,-1,-2,2021-08-05 17:22:29,806626
-5,10,2,-1,0,-1,-1,-3,2021-08-05 17:22:29,822544
0,-14,-10,-2,-1,-2,-3,-1,2021-08-05 17:22:29,822544
1,11,12,3,3,1,1,4,2021-08-05 17:22:29,822544
-2,-1,-16,-4,-2,-3,-4,-2,2021-08-05 17:22:29,822544
2,12,6,2,-2,0,1,1,2021-08-05 17:22:29,822544
-3,-18,-9,-2,-2,2,1,-1,2021-08-05 17:22:29,822544
3,7,12,-1,-1,-2,-2,-2,2021-08-05 17:22:29,822544
0,27,-6,-1,0,-1,-1,-2,2021-08-05 17:22:29,822544
-4,-52,-7,1,2,0,2,0,2021-08-05 17:22:29,822544
-2,46,6,0,0,1,-1,1,2021-08-05 17:22:29,822544
12,-7,4,-3,-6,-3,-3,-1,2021-08-05 17:22:29,854588
-13,-4,-17,1,0,0,1,-2,2021-08-05 17:22:29,854588
2,-3,10,-3,-2,0,0,-1,2021-08-05 17:22:29,854588
9,22,-7,1,2,-1,0,0,2021-08-05 17:22:29,854588
-14,33,15,3,2,-1,2,2,2021-08-05 17:22:29,869575
6,-49,-8,0,-2,-2,-2,-3,2021-08-05 17:22:29,869575
-1,-21,-5,-5,-3,-1,-3,-5,2021-08-05 17:22:29,869575
-9,4,-6,-2,-1,-1,-1,-2,2021-08-05 17:22:29,869575
8,21,15,3,0,-1,0,0,2021-08-05 17:22:29,884579
-1,-16,-10,1,-1,-1,-1,0,2021-08-05 17:22:29,884579
-5,-8,-8,-7,-7,-6,-5,-4,2021-08-05 17:22:29,884579
1,45,19,1,2,0,0,-1,2021-08-05 17:22:29,884579
-3,-80,-18,-1,-1,1,0,-1,2021-08-05 17:22:29,915554
-1,-27,6,8,10,7,5,4,2021-08-05 17:22:29,931685
-5,38,17,-2,-5,-5,-3,-5,2021-08-05 17:22:29,947667
-2,-29,-22,-4,-4,0,0,0,2021-08-05 17:22:29,947667
5,13,-6,-4,-4,-2,-2,-3,2021-08-05 17:22:29,947667
-11,36,17,-1,-3,-1,-3,-2,2021-08-05 17:22:29,947667
0,-43,-5,0,3,4,2,2,2021-08-05 17:22:29,947667
2,20,-8,-2,0,-1,-1,-1,2021-08-05 17:22:29,947667
4,28,8,0,-1,-3,-2,3,2021-08-05 17:22:29,948112
13,-15,-17,-2,-2,1,1,1,2021-08-05 17:22:29,948182
-22,-10,6,-3,-3,-4,-4,-6,2021-08-05 17:22:29,948182
-6,14,17,3,1,1,0,-1,2021-08-05 17:22:29,948182
9,-7,-18,-2,-2,1,-2,-1,2021-08-05 17:22:29,960975
-1,-5,6,-3,-2,-1,0,-1,2021-08-05 17:22:29,961552
6,-23,0,5,4,4,1,4,2021-08-05 17:22:29,961552
-4,39,3,-3,-3,-3,-2,-4,2021-08-05 17:22:29,961552
-8,-43,-14,-3,-1,0,-1,-2,2021-08-05 17:22:29,994776
1,41,11,-4,-2,0,-2,-2,2021-08-05 17:22:30,010650
1,-32,-8,1,3,2,1,1,2021-08-05 17:22:30,010650
-4,-49,1,0,-1,-1,0,-2,2021-08-05 17:22:30,010869
6,88,4,-2,-2,-1,1,-3,2021-08-05 17:22:30,011034
-15,-65,-4,-6,-5,-4,-4,-3,2021-08-05 17:22:30,011034
7,43,0,2,1,1,0,1,2021-08-05 17:22:30,011034
-7,-8,-14,0,2,1,-1,-1,2021-08-05 17:22:30,011034
2,22,6,-2,-2,-4,-3,-4,2021-08-05 17:22:30,026675
8,16,12,1,4,2,2,4,2021-08-05 17:22:30,041578
-4,-65,-26,-5,-5,-2,-1,2,2021-08-05 17:22:30,041578
2,27,16,-2,-1,-2,0,-2,2021-08-05 17:22:30,041578
-9,-31,2,3,2,3,1,1,2021-08-05 17:22:30,057732
2,2,-21,-2,-2,-3,-1,-3,2021-08-05 17:22:30,057732
-12,25,21,1,-1,-1,-2,-3,2021-08-05 17:22:30,057732
4,-15,-14,-3,0,-1,0,2,2021-08-05 17:22:30,057970
1,-2,3,-1,0,0,0,-1,2021-08-05 17:22:30,072611
4,-4,16,1,-4,-3,-3,-2,2021-08-05 17:22:30,072699
5,22,-7,1,2,-1,1,4,2021-08-05 17:22:30,072699
-3,13,0,-1,-2,-2,-1,-2,2021-08-05 17:22:30,072699
-6,-23,-6,2,1,3,0,-1,2021-08-05 17:22:30,088552
7,-4,-5,-1,-1,-1,1,-1,2021-08-05 17:22:30,088769
-12,7,-1,-4,-5,-4,-3,-2,2021-08-05 17:22:30,088952
8,29,0,-3,-3,-2,-2,0,2021-08-05 17:22:30,088952
1,-14,-1,4,8,7,5,7,2021-08-05 17:22:30,119681
-8,5,-9,0,1,2,-2,-4,2021-08-05 17:22:30,135659
6,16,4,1,-1,-3,-4,-6,2021-08-05 17:22:30,151673
-1,-16,3,0,-2,-5,-6,-3,2021-08-05 17:22:30,167604
-3,7,13,-3,-7,-7,-6,-4,2021-08-05 17:22:30,167799
5,-12,-8,0,2,-1,0,2,2021-08-05 17:22:30,167799
8,0,-12,4,4,5,5,5,2021-08-05 17:22:30,167799
-14,-21,-5,-4,-4,-1,-2,-4,2021-08-05 17:22:30,167799
0,24,18,1,1,1,2,0,2021-08-05 17:22:30,167799
-4,17,2,-2,-3,-3,-4,-2,2021-08-05 17:22:30,167799
1,-25,-18,-5,-2,-3,-3,-2,2021-08-05 17:22:30,168589
9,15,-7,2,3,2,3,3,2021-08-05 17:22:30,168589
-13,-83,3,1,-1,-1,0,0,2021-08-05 17:22:30,168989
-5,38,2,-1,1,1,-1,-2,2021-08-05 17:22:30,169014
-2,5,4,-1,-2,-2,-4,-3,2021-08-05 17:22:30,169014
3,8,3,-4,-2,-3,-3,-3,2021-08-05 17:22:30,169014
3,20,-15,-1,0,-2,0,3,2021-08-05 17:22:30,182715
3,28,20,0,-1,0,-1,-1,2021-08-05 17:22:30,197638
-1,-51,-14,2,5,4,4,3,2021-08-05 17:22:30,197638
-3,14,-6,-4,-6,-3,-2,-4,2021-08-05 17:22:30,197638
-2,-50,6,-5,-3,-3,-3,-3,2021-08-05 17:22:30,213637
-10,-12,-18,5,6,3,2,0,2021-08-05 17:22:30,213637
1,16,14,-4,-7,-4,-3,-4,2021-08-05 17:22:30,213637
-5,-18,-3,0,-2,-1,-3,-2,2021-08-05 17:22:30,214037
9,75,17,2,2,2,2,5,2021-08-05 17:22:30,229629
5,-34,-19,2,1,1,0,4,2021-08-05 17:22:30,229629
-3,-14,20,0,2,2,1,2,2021-08-05 17:22:30,229840
11,0,-20,3,4,3,2,1,2021-08-05 17:22:30,229840
-35,-24,-31,-10,-8,-5,-5,-10,2021-08-05 17:22:30,244663
9,76,32,-3,-6,-5,-5,-3,2021-08-05 17:22:30,260670
6,-21,-15,-2,0,0,-1,2,2021-08-05 17:22:30,260770
-2,-11,11,0,-1,-2,-1,0,2021-08-05 17:22:30,260770
6,53,17,1,0,0,-1,-2,2021-08-05 17:22:30,260770
0,-69,-27,1,2,5,5,5,2021-08-05 17:22:30,260770
-2,21,-3,0,-4,-2,-3,-2,2021-08-05 17:22:30,260770
-1,58,15,-3,-1,-1,-2,0,2021-08-05 17:22:30,260770
10,-46,-20,1,0,-1,0,0,2021-08-05 17:22:30,291589
-28,-1,18,-3,-6,-7,-4,-7,2021-08-05 17:22:30,291927
