EMG 1,EMG 2,EMG 3,EMG 4,EMG 5,EMG 6,EMG 7,EMG 8,Timestamp,Milliseconds
-19,13,5,4,2,-2,-1,1,2021-08-05 17:20:14,212115
2,10,-4,-5,-7,-7,-5,-4,2021-08-05 17:20:14,212115
1,8,0,-1,-1,-2,1,2,2021-08-05 17:20:14,212115
6,34,12,0,-1,-1,1,-1,2021-08-05 17:20:14,212115
3,-74,-12,-2,2,4,2,2,2021-08-05 17:20:14,212115
-3,23,-17,-1,1,1,-1,-1,2021-08-05 17:20:14,212619
-5,-50,0,-6,-4,-3,-5,-4,2021-08-05 17:20:14,243124
-4,-1,8,0,0,-2,-4,-2,2021-08-05 17:20:14,243124
7,36,-8,-4,-2,-1,0,0,2021-08-05 17:20:14,243124
-8,-31,-22,-1,0,1,1,3,2021-08-05 17:20:14,243124
-2,9,2,-3,-3,-1,-4,-7,2021-08-05 17:20:14,243505
-1,24,16,2,0,-1,-1,-1,2021-08-05 17:20:14,243596
4,31,10,0,-4,-2,-2,-1,2021-08-05 17:20:14,243596
4,-8,-8,-1,2,2,1,2,2021-08-05 17:20:14,243677
-2,-11,-10,-1,-2,-1,1,-1,2021-08-05 17:20:14,258366
-13,-37,-14,-4,0,-1,-2,-3,2021-08-05 17:20:14,258366
6,36,17,1,0,-1,1,-2,2021-08-05 17:20:14,258366
2,30,6,-1,-4,-2,-2,-1,2021-08-05 17:20:14,258366
3,-12,1,9,6,4,2,3,2021-08-05 17:20:14,290163
1,-16,-9,-4,-3,0,0,0,2021-08-05 17:20:14,305066
-1,11,-4,-2,-4,-3,-3,-2,2021-08-05 17:20:14,305066
4,-38,14,3,1,0,-1,-1,2021-08-05 17:20:14,305066
-12,44,-1,-2,-1,-2,-1,-3,2021-08-05 17:20:14,336293
4,-12,7,-2,-4,-4,-3,-3,2021-08-05 17:20:14,336384
3,-1,-22,-2,2,2,1,0,2021-08-05 17:20:14,336431
5,10,10,2,2,-1,1,0,2021-08-05 17:20:14,336534
-2,2,9,-1,3,2,2,2,2021-08-05 17:20:14,336534
-4,-3,-17,-4,-2,-3,0,-2,2021-08-05 17:20:14,336690
-1,3,8,-4,-8,-6,-7,-5,2021-08-05 17:20:14,336690
7,26,4,2,2,2,0,2,2021-08-05 17:20:14,336690
-1,-30,7,0,2,0,-3,0,2021-08-05 17:20:14,336690
-14,-22,-15,-1,2,1,1,-1,2021-08-05 17:20:14,336690
2,8,2,-5,-3,-4,-1,-2,2021-08-05 17:20:14,351148
-5,-1,-8,-1,-3,-2,-1,-1,2021-08-05 17:20:14,366224
3,48,3,2,-2,-2,-2,-3,2021-08-05 17:20:14,366224
3,-21,15,1,-1,-4,0,-1,2021-08-05 17:20:14,366500
-6,-17,-13,1,1,1,0,1,2021-08-05 17:20:14,366500
1,0,-15,-5,-1,-1,0,-1,2021-08-05 17:20:14,366500
3,-25,4,0,-2,0,0,-1,2021-08-05 17:20:14,382236
0,39,1,-1,-2,0,-1,-2,2021-08-05 17:20:14,397167
5,-43,-3,1,1,-1,0,-1,2021-08-05 17:20:14,412067
-25,-3,4,-4,-4,-4,-4,-5,2021-08-05 17:20:14,444065
10,10,-2,0,1,0,0,2,2021-08-05 17:20:14,459475
1,-5,10,2,1,1,-1,-1,2021-08-05 17:20:14,459475
5,25,0,1,1,2,0,1,2021-08-05 17:20:14,459475
3,-8,-4,-3,-1,-2,-2,1,2021-08-05 17:20:14,459475
-7,-27,-9,-7,-6,-4,-4,-5,2021-08-05 17:20:14,459475
3,29,9,4,6,5,3,3,2021-08-05 17:20:14,459475
0,25,25,4,1,0,1,1,2021-08-05 17:20:14,459475
-1,-32,-32,-1,-1,0,0,-3,2021-08-05 17:20:14,460103
-1,51,8,-3,-2,-2,-1,0,2021-08-05 17:20:14,460103
2,5,-4,-3,-4,-4,-4,-1,2021-08-05 17:20:14,460103
1,-1,2,2,5,3,2,2,2021-08-05 17:20:14,475194
-9,-69,-9,0,-5,-3,-3,-4,2021-08-05 17:20:14,475194
6,12,1,-3,-4,-3,0,1,2021-08-05 17:20:14,475194
-17,17,-2,1,0,-2,-2,-6,2021-08-05 17:20:14,475194
8,13,12,1,0,3,1,5,2021-08-05 17:20:14,475194
7,35,19,1,0,1,0,-1,2021-08-05 17:20:14,475194
3,-28,-30,1,3,2,1,2,2021-08-05 17:20:14,475194
-1,-33,-1,-6,-6,-4,-5,-3,2021-08-05 17:20:14,475194
-10,8,0,0,-1,-3,-1,-3,2021-08-05 17:20:14,505309
7,67,27,6,5,4,2,2,2021-08-05 17:20:14,521350
4,-70,-7,3,1,2,2,2,2021-08-05 17:20:14,537241
-9,-6,-33,-7,-4,-1,0,-2,2021-08-05 17:20:14,537390
-8,-1,10,-7,-8,-8,-6,-10,2021-08-05 17:20:14,537495
-6,36,17,2,0,0,-1,0,2021-08-05 17:20:14,537564
4,-27,-9,0,0,0,0,0,2021-08-05 17:20:14,537630
11,79,14,2,0,1,-1,0,2021-08-05 17:20:14,537630
1,-119,-30,-1,0,2,0,3,2021-08-05 17:20:14,537630
-11,15,-7,4,5,2,2,2,2021-08-05 17:20:14,537630
-3,57,19,-5,-7,-5,-6,-7,2021-08-05 17:20:14,553159
8,-10,-1,-1,0,1,0,0,2021-08-05 17:20:14,553159
6,64,16,-1,-2,-3,-1,0,2021-08-05 17:20:14,569271
-7,-13,-5,-1,-2,-2,-2,0,2021-08-05 17:20:14,569271
0,-56,-13,4,9,5,5,2,2021-08-05 17:20:14,569271
-5,-26,-13,-5,-6,-6,-5,-2,2021-08-05 17:20:14,569271
-2,27,5,-6,-4,-3,-4,-6,2021-08-05 17:20:14,585158
6,-29,-8,3,0,0,1,2,2021-08-05 17:20:14,585158
-6,37,10,0,-2,-3,-4,-5,2021-08-05 17:20:14,585158
6,-8,17,3,2,0,1,2,2021-08-05 17:20:14,585158
-3,-25,-32,-3,-2,-1,-2,-3,2021-08-05 17:20:14,615344
-5,-8,4,-5,-3,-4,-3,-4,2021-08-05 17:20:14,631271
-1,87,27,3,0,0,2,1,2021-08-05 17:20:14,631271
-5,-102,-24,2,1,-1,2,-1,2021-08-05 17:20:14,631271
-8,-11,-23,-7,-5,-4,-3,-3,2021-08-05 17:20:14,631271
9,81,20,2,-1,1,-2,-2,2021-08-05 17:20:14,646226
-5,-93,-30,-5,-4,-4,-3,-6,2021-08-05 17:20:14,646226
2,51,26,2,0,1,1,3,2021-08-05 17:20:14,646226
2,10,-1,-1,0,1,-2,-1,2021-08-05 17:20:14,646226
6,-20,2,-3,-1,-1,1,3,2021-08-05 17:20:14,646226
-11,47,-3,3,1,0,1,0,2021-08-05 17:20:14,646226
1,-43,7,1,0,-1,1,0,2021-08-05 17:20:14,646226
-10,-10,-19,-2,0,0,1,-2,2021-08-05 17:20:14,661196
1,-15,-1,-5,-4,-3,-5,-4,2021-08-05 17:20:14,661196
11,8,7,1,-1,-2,-2,0,2021-08-05 17:20:14,661196
-2,7,-6,0,2,3,3,4,2021-08-05 17:20:14,661196
8,79,22,4,3,2,2,3,2021-08-05 17:20:14,692484
-8,-92,-7,2,0,-2,1,1,2021-08-05 17:20:14,708507
-7,33,-13,-4,-4,0,-1,-6,2021-08-05 17:20:14,724681
1,-46,-8,-3,-2,-1,-3,-2,2021-08-05 17:20:14,724681
-3,1,9,0,-4,-4,-4,-2,2021-08-05 17:20:14,724681
-3,5,-12,-8,1,1,0,0,2021-08-05 17:20:14,724681
-5,41,39,8,1,0,-1,-4,2021-08-05 17:20:14,724681
7,-40,-42,0,6,5,3,4,2021-08-05 17:20:14,724681
-2,7,14,3,-1,0,0,0,2021-08-05 17:20:14,724681
2,31,3,-2,-5,-5,-4,-3,2021-08-05 17:20:14,724681
2,-88,-21,-7,-2,1,-3,-4,2021-08-05 17:20:14,724681
-11,54,7,-4,-3,-2,-3,-4,2021-08-05 17:20:14,725449
-3,-23,-5,-2,1,0,-1,1,2021-08-05 17:20:14,740553
-1,12,8,2,0,1,3,1,2021-08-05 17:20:14,740553
-6,11,1,0,-1,-2,-1,2,2021-08-05 17:20:14,740553
11,13,3,3,1,0,-2,1,2021-08-05 17:20:14,740553
-1,-48,-10,0,1,-1,-1,-1,2021-08-05 17:20:14,756684
2,23,5,-8,-6,-6,-5,-4,2021-08-05 17:20:14,756684
4,-5,-2,5,5,2,3,3,2021-08-05 17:20:14,771483
-7,-10,-4,-3,-2,-2,-1,-3,2021-08-05 17:20:14,786678
4,38,16,7,2,1,3,1,2021-08-05 17:20:14,786678
3,-15,-8,-1,0,1,-1,-3,2021-08-05 17:20:14,786843
-4,-35,-6,-4,-3,-2,-1,1,2021-08-05 17:20:14,786916
-1,38,9,-2,-3,-3,-4,-4,2021-08-05 17:20:14,786987
-2,-43,-8,1,2,1,1,0,2021-08-05 17:20:14,816449
-5,6,-18,-4,-3,-2,-2,-1,2021-08-05 17:20:14,832715
-4,-40,-8,-7,-9,-5,-5,-4,2021-08-05 17:20:14,848556
1,45,13,1,-2,0,-1,1,2021-08-05 17:20:14,864601
0,15,20,1,0,-1,0,-1,2021-08-05 17:20:14,864601
-1,-54,-40,-5,0,0,-2,-1,2021-08-05 17:20:14,864741
2,34,14,-2,1,-1,-1,-1,2021-08-05 17:20:14,864741
0,-5,14,4,3,1,1,1,2021-08-05 17:20:14,864998
-1,-34,-26,-5,-3,-1,-1,0,2021-08-05 17:20:14,864998
-2,22,2,0,0,2,-1,-2,2021-08-05 17:20:14,864998
-7,14,15,1,-2,-1,-1,-1,2021-08-05 17:20:14,864998
-5,-39,-10,-4,0,1,-3,-6,2021-08-05 17:20:14,864998
1,35,5,-1,-5,-7,-6,-5,2021-08-05 17:20:14,864998
6,10,8,3,-2,-3,-5,-1,2021-08-05 17:20:14,865449
9,-44,-18,-2,0,-2,0,3,2021-08-05 17:20:14,865449
-13,28,14,-4,-6,-4,-3,-5,2021-08-05 17:20:14,865449
4,-13,-18,-3,1,2,3,3,2021-08-05 17:20:14,895447
-6,3,6,-3,-1,0,0,-2,2021-08-05 17:20:14,910449
4,19,1,2,4,2,1,0,2021-08-05 17:20:14,926482
2,-4,-3,4,1,0,2,1,2021-08-05 17:20:14,942584
-4,-5,5,1,1,2,-1,0,2021-08-05 17:20:14,957624
6,40,2,0,-1,0,-1,0,2021-08-05 17:20:14,957865
-3,-34,-2,-1,0,2,1,2,2021-08-05 17:20:14,957952
5,-7,-10,-1,-1,0,1,0,2021-08-05 17:20:14,957952
-5,31,10,-5,-7,-4,-3,-3,2021-08-05 17:20:14,958130
-4,-36,-17,0,3,2,2,0,2021-08-05 17:20:14,958130
3,67,33,3,-4,-3,-4,-1,2021-08-05 17:20:14,958130
-6,-55,-20,2,0,-1,-1,4,2021-08-05 17:20:14,958130
6,56,-15,-3,-2,1,-1,-1,2021-08-05 17:20:14,958483
-21,-94,-1,-10,-5,-4,-6,-7,2021-08-05 17:20:14,958483
-2,5,-14,-6,-4,-2,-2,-3,2021-08-05 17:20:14,958483
7,29,20,1,0,-1,-1,-1,2021-08-05 17:20:14,958483
4,8,7,6,1,0,-1,3,2021-08-05 17:20:14,972505
4,14,6,3,2,3,4,5,2021-08-05 17:20:14,972505
0,-19,-13,1,1,0,-1,0,2021-08-05 17:20:14,972505
-6,9,1,-2,-3,-2,-1,-1,2021-08-05 17:20:14,972505
-6,-18,5,-2,-2,-4,-3,-5,2021-08-05 17:20:14,988484
5,16,-11,3,2,-2,1,2,2021-08-05 17:20:15,004447
-4,36,-5,-8,-5,-3,-3,-2,2021-08-05 17:20:15,004447
1,-73,-4,2,-2,1,0,1,2021-08-05 17:20:15,004447
-3,-37,2,-2,-1,1,-1,-2,2021-08-05 17:20:15,004447
4,17,14,6,2,1,1,0,2021-08-05 17:20:15,004447
-1,6,-14,-5,-3,-4,-4,-4,2021-08-05 17:20:15,004447
0,28,-2,-3,-3,-2,-2,-3,2021-08-05 17:20:15,004447
0,48,31,2,1,0,0,0,2021-08-05 17:20:15,019516
5,-25,-6,7,5,5,5,6,2021-08-05 17:20:15,035449
-11,-61,-37,-9,-5,-5,-4,-5,2021-08-05 17:20:15,051448
7,89,28,0,-1,0,-1,0,2021-08-05 17:20:15,067593
-6,-71,-25,0,0,-1,-1,0,2021-08-05 17:20:15,083525
1,43,10,-5,-7,-7,-4,-5,2021-08-05 17:20:15,083525
1,32,7,4,2,1,3,5,2021-08-05 17:20:15,083525
-4,-63,-14,0,4,1,1,-1,2021-08-05 17:20:15,083525
2,31,2,-2,-2,1,-2,-1,2021-08-05 17:20:15,083525
-2,-11,-6,-6,-3,-2,-3,-3,2021-08-05 17:20:15,083525
0,-3,14,2,0,2,0,1,2021-08-05 17:20:15,083525
2,12,0,3,3,0,0,0,2021-08-05 17:20:15,083525
1,-7,-5,3,2,2,2,3,2021-08-05 17:20:15,083525
-4,-16,-2,-2,-2,-3,-1,-4,2021-08-05 17:20:15,084483
-2,-1,3,-4,-3,-3,-2,-5,2021-08-05 17:20:15,084483
1,22,0,-2,-4,-1,-4,-3,2021-08-05 17:20:15,084483
0,-39,-10,0,1,-1,1,1,2021-08-05 17:20:15,099527
7,11,11,0,-3,-2,-1,-1,2021-08-05 17:20:15,114482
-17,1,-1,0,-1,-1,-2,-4,2021-08-05 17:20:15,114482
1,-19,-12,-5,1,-2,-1,0,2021-08-05 17:20:15,114798
-3,20,8,3,-1,-1,-1,-4,2021-08-05 17:20:15,130525
2,-19,-15,-6,-3,-2,-1,3,2021-08-05 17:20:15,130525
8,-13,5,4,2,0,0,0,2021-08-05 17:20:15,130525
0,35,7,-2,-1,-1,0,0,2021-08-05 17:20:15,130525
5,32,-11,-3,-2,-3,-1,-1,2021-08-05 17:20:15,145447
-17,-49,-5,-3,0,2,-3,-3,2021-08-05 17:20:15,145447
-3,4,-3,-3,1,0,0,-2,2021-08-05 17:20:15,145447
-2,32,17,-2,-4,-3,-2,-1,2021-08-05 17:20:15,145447
1,2,-18,4,2,0,2,2,2021-08-05 17:20:15,176547
5,-3,10,5,0,0,0,-1,2021-08-05 17:20:15,206574
-2,-51,-22,-5,-3,-2,-2,-1,2021-08-05 17:20:15,206574
-3,30,10,-1,-1,0,1,-2,2021-08-05 17:20:15,206574
-3,-26,10,-1,0,1,-2,-1,2021-08-05 17:20:15,206574
-2,14,-18,6,4,2,2,0,2021-08-05 17:20:15,206574
4,16,11,-1,-2,-2,-1,0,2021-08-05 17:20:15,206574
-2,-31,-8,-3,-2,-3,-2,-2,2021-08-05 17:20:15,206574
-3,44,8,-6,-3,-4,-1,-1,2021-08-05 17:20:15,206574
9,23,5,1,1,-2,-1,2,2021-08-05 17:20:15,206574
-7,-40,-7,1,-1,0,-2,0,2021-08-05 17:20:15,206574
-7,-4,-17,-3,-3,-1,-3,-1,2021-08-05 17:20:15,206574
-7,-10,-4,-11,-7,-5,-5,-7,2021-08-05 17:20:15,237569
-1,28,8,-2,-1,-2,-1,-2,2021-08-05 17:20:15,237569
12,5,6,6,6,5,5,4,2021-08-05 17:20:15,237767
1,27,18,4,-3,-2,-1,1,2021-08-05 17:20:15,237841
0,-59,-26,5,2,3,1,2,2021-08-05 17:20:15,237841
-6,-12,7,-6,-7,-3,-5,-6,2021-08-05 17:20:15,237957
-2,60,1,-2,-1,-2,-3,-4,2021-08-05 17:20:15,237957
0,-82,-26,-7,0,1,-1,2,2021-08-05 17:20:15,238055
-3,28,20,-3,-3,-2,-3,-1,2021-08-05 17:20:15,253560
11,51,20,2,1,0,4,4,2021-08-05 17:20:15,253560
-6,-54,-20,5,3,1,2,3,2021-08-05 17:20:15,268613
-2,14,-3,-2,0,-3,0,-2,2021-08-05 17:20:15,268613
-8,-8,-1,2,1,1,0,-4,2021-08-05 17:20:15,283587
0,17,2,-3,-2,-4,-2,-1,2021-08-05 17:20:15,283587
2,-25,9,0,-2,-1,-3,1,2021-08-05 17:20:15,283587
8,0,-3,3,2,2,-1,1,2021-08-05 17:20:15,283587
-2,-6,-6,-5,-3,-3,-3,-1,2021-08-05 17:20:15,314484
-5,25,1,0,0,1,-3,-2,2021-08-05 17:20:15,314484
7,-7,6,-2,-3,-3,0,0,2021-08-05 17:20:15,314484
4,27,-19,-4,-2,-2,-1,-2,2021-08-05 17:20:15,314484
-17,-42,13,3,-2,0,-2,-1,2021-08-05 17:20:15,330654
3,15,11,3,0,0,0,0,2021-08-05 17:20:15,330654
4,-26,-4,3,3,3,3,3,2021-08-05 17:20:15,330776
-9,-7,-23,-6,-3,-3,-2,-2,2021-08-05 17:20:15,330776
5,23,5,-8,-3,-4,-3,-2,2021-08-05 17:20:15,360557
0,-10,6,0,-3,-3,-4,-3,2021-08-05 17:20:15,360557
4,6,4,0,-1,1,1,2,2021-08-05 17:20:15,360557
-1,-11,9,8,3,2,2,3,2021-08-05 17:20:15,360557
-3,3,-12,4,4,3,1,1,2021-08-05 17:20:15,360557
-2,-43,-13,-9,-2,0,1,0,2021-08-05 17:20:15,360557
-4,60,-3,-6,-8,-8,-6,-7,2021-08-05 17:20:15,360557
3,-34,-3,-3,1,0,-1,-1,2021-08-05 17:20:15,360557
5,12,5,2,0,-1,0,0,2021-08-05 17:20:15,392500
-3,-6,-2,1,1,1,0,0,2021-08-05 17:20:15,392500
0,27,6,2,1,3,1,1,2021-08-05 17:20:15,392500
-2,-14,2,3,-1,-1,-2,0,2021-08-05 17:20:15,392500
3,-2,2,-1,-1,-2,-2,-3,2021-08-05 17:20:15,407496
3,-17,-10,-5,-5,-5,-2,-4,2021-08-05 17:20:15,407496
-16,4,-4,-4,-2,-2,0,-3,2021-08-05 17:20:15,407496
2,14,31,5,3,1,0,-2,2021-08-05 17:20:15,407496
-1,-48,-16,1,5,5,2,4,2021-08-05 17:20:15,422473
0,-25,-34,-1,-2,0,0,-1,2021-08-05 17:20:15,422473
-7,-7,6,-8,-6,-6,-7,-7,2021-08-05 17:20:15,422473
0,45,1,-2,-4,-2,-4,-4,2021-08-05 17:20:15,422473
3,24,12,-7,-3,-4,-1,2,2021-08-05 17:20:15,454507
8,40,41,10,6,4,4,6,2021-08-05 17:20:15,454507
6,-84,-46,3,4,3,3,6,2021-08-05 17:20:15,454507
-10,6,-7,-6,-5,-2,0,-6,2021-08-05 17:20:15,454507
-10,25,17,1,-3,-4,-5,-6,2021-08-05 17:20:15,485450
3,-6,-4,0,-2,-2,-1,0,2021-08-05 17:20:15,485630
4,13,5,-3,3,-1,-1,-2,2021-08-05 17:20:15,485893
7,-4,10,4,3,2,3,1,2021-08-05 17:20:15,486019
0,-36,-27,-1,-3,-3,-1,-2,2021-08-05 17:20:15,486238
-10,-8,2,-5,-1,-1,-4,-4,2021-08-05 17:20:15,486238
2,49,17,2,-1,0,-2,-3,2021-08-05 17:20:15,486450
0,-52,-9,1,1,1,2,5,2021-08-05 17:20:15,486450
2,28,5,-1,-3,-2,-1,-2,2021-08-05 17:20:15,516524
9,45,13,6,0,-1,-1,0,2021-08-05 17:20:15,532611
-17,-54,-15,0,-1,0,1,3,2021-08-05 17:20:15,532611
-8,33,5,-8,-3,-3,-4,-5,2021-08-05 17:20:15,532611
2,-34,-4,-1,2,-1,-1,-1,2021-08-05 17:20:15,532611
-2,-8,-5,-5,-3,-3,-1,-1,2021-08-05 17:20:15,532611
12,36,-2,-3,-2,-1,-1,-2,2021-08-05 17:20:15,533054
0,-27,3,0,-4,-1,-1,2,2021-08-05 17:20:15,533054
-2,-16,3,-2,2,0,0,2,2021-08-05 17:20:15,548494
-6,-15,-16,-7,-1,-1,-1,-3,2021-08-05 17:20:15,563571
-1,-3,1,-3,-3,-5,-2,-1,2021-08-05 17:20:15,579449
-6,3,-10,-4,-1,-2,-1,-1,2021-08-05 17:20:15,579639
7,31,10,8,4,4,4,2,2021-08-05 17:20:15,579639
-9,-39,-12,-1,-3,-2,-2,-6,2021-08-05 17:20:15,579639
-3,30,38,2,-4,-4,-3,-6,2021-08-05 17:20:15,579639
7,36,-20,-1,-2,-2,-5,0,2021-08-05 17:20:15,579639
2,-74,-9,-1,-2,-2,-2,-1,2021-08-05 17:20:15,594851
-6,6,-4,-1,-3,-2,0,1,2021-08-05 17:20:15,610758
5,-5,-9,-1,1,2,1,4,2021-08-05 17:20:15,610758
-2,5,3,-2,-4,-3,-1,-5,2021-08-05 17:20:15,610758
-3,55,23,-11,-9,-5,-4,-6,2021-08-05 17:20:15,610758
4,-45,-35,3,5,5,3,5,2021-08-05 17:20:15,610758
-9,9,17,0,1,0,0,-4,2021-08-05 17:20:15,610758
7,23,-2,-1,-1,-2,-2,-3,2021-08-05 17:20:15,610758
-14,-14,-8,-3,-4,0,1,1,2021-08-05 17:20:15,626885
-2,8,9,-3,-1,-2,-4,-4,2021-08-05 17:20:15,627150
12,4,-14,4,2,1,2,2,2021-08-05 17:20:15,627264
10,37,7,3,2,-1,-1,0,2021-08-05 17:20:15,642842
-12,-35,9,2,0,-1,1,1,2021-08-05 17:20:15,657989
1,-25,-12,0,1,1,1,0,2021-08-05 17:20:15,657989
-4,13,-5,-10,-5,-3,-3,-3,2021-08-05 17:20:15,657989
0,-6,4,0,0,0,3,1,2021-08-05 17:20:15,657989
7,23,0,1,1,0,-1,1,2021-08-05 17:20:15,657989
-6,-2,15,2,-1,-1,-1,0,2021-08-05 17:20:15,657989
-1,-33,-35,-4,-1,0,0,-2,2021-08-05 17:20:15,673748
-5,2,7,-7,-6,-4,-4,-5,2021-08-05 17:20:15,673748
1,-1,-9,-2,-1,-1,-2,-3,2021-08-05 17:20:15,688711
2,70,34,10,3,2,2,5,2021-08-05 17:20:15,703604
5,-49,-5,7,5,4,3,3,2021-08-05 17:20:15,703712
-8,-21,-12,-7,-3,-1,-4,-4,2021-08-05 17:20:15,703712
3,11,-2,1,0,-1,-1,0,2021-08-05 17:20:15,703712
1,7,-7,-1,-2,-1,-2,-4,2021-08-05 17:20:15,703712
-1,30,21,2,-4,-2,-1,0,2021-08-05 17:20:15,703712
1,-34,-9,5,3,2,4,7,2021-08-05 17:20:15,703712
4,36,6,1,2,0,-1,-1,2021-08-05 17:20:15,715712
-12,71,7,-7,-1,-1,-1,-2,2021-08-05 17:20:15,716352
-1,-97,-29,-1,-1,-4,-1,-2,2021-08-05 17:20:15,734767
-6,-29,-23,-4,-5,-2,-2,-3,2021-08-05 17:20:15,750644
7,39,18,0,-1,-2,-2,0,2021-08-05 17:20:15,765688
1,20,4,6,1,-1,-1,1,2021-08-05 17:20:15,765688
-2,16,13,-4,0,1,-1,0,2021-08-05 17:20:15,765688
17,-10,7,6,4,3,3,4,2021-08-05 17:20:15,766254
-28,-24,-33,2,1,-1,0,-2,2021-08-05 17:20:15,781712
0,-25,6,-8,-7,-5,-4,-6,2021-08-05 17:20:15,797808
0,33,16,5,0,1,0,0,2021-08-05 17:20:15,797808
3,-23,9,5,1,1,2,2,2021-08-05 17:20:15,797808
7,-3,-29,-12,-3,1,1,1,2021-08-05 17:20:15,797808
-4,-22,1,0,0,-1,-3,-2,2021-08-05 17:20:15,797808
-3,10,-7,-2,0,-1,-2,-2,2021-08-05 17:20:15,797808
-2,28,15,2,-1,-2,-2,-2,2021-08-05 17:20:15,798507
3,-25,5,5,3,2,2,4,2021-08-05 17:20:15,812729
-1,-40,-27,-6,-3,-1,-1,0,2021-08-05 17:20:15,812729
3,33,13,-3,-3,-1,-3,-3,2021-08-05 17:20:15,812729
-7,-5,9,5,1,1,1,1,2021-08-05 17:20:15,812729
-1,-1,-10,2,-1,-4,-3,-4,2021-08-05 17:20:15,827741
2,-66,-2,-4,-1,-2,0,-1,2021-08-05 17:20:15,843666
5,31,16,4,1,0,2,3,2021-08-05 17:20:15,843666
-13,26,-9,-6,-1,-3,-3,-4,2021-08-05 17:20:15,843666
2,-20,-7,-3,-6,-4,-3,-3,2021-08-05 17:20:15,843666
4,0,-1,-3,0,1,-1,0,2021-08-05 17:20:15,843666
1,10,-5,1,0,-2,-3,-2,2021-08-05 17:20:15,843666
-14,-20,-5,0,0,-3,0,-5,2021-08-05 17:20:15,843666
7,8,6,1,3,3,4,5,2021-08-05 17:20:15,859719
-4,15,16,0,-2,-1,-2,-3,2021-08-05 17:20:15,859719
0,-7,-29,-7,-2,-1,-3,-1,2021-08-05 17:20:15,859869
6,-1,0,-3,-5,-3,-2,1,2021-08-05 17:20:15,859869
0,16,13,1,-1,0,-3,-4,2021-08-05 17:20:15,890799
-3,-9,4,9,2,1,2,0,2021-08-05 17:20:15,890935
-3,-26,-12,-4,-1,0,0,0,2021-08-05 17:20:15,890935
0,16,-4,-10,-4,-5,-3,-4,2021-08-05 17:20:15,890935
1,6,3,1,0,-2,-1,1,2021-08-05 17:20:15,922807
2,-2,10,1,-1,-1,-1,0,2021-08-05 17:20:15,922913
-2,20,7,8,2,1,2,2,2021-08-05 17:20:15,922913
-1,-77,-21,-6,-1,-2,-1,-1,2021-08-05 17:20:15,922913
-1,19,1,-9,-6,-3,-1,-3,2021-08-05 17:20:15,922913
2,18,4,-4,-1,-3,-2,-2,2021-08-05 17:20:15,922913
-2,-15,7,5,3,1,3,1,2021-08-05 17:20:15,922913
3,34,13,6,1,1,0,0,2021-08-05 17:20:15,922913
14,-38,-27,-7,-1,0,-1,0,2021-08-05 17:20:15,954837
-17,40,-1,-7,-7,-8,-5,-5,2021-08-05 17:20:15,970680
-11,-15,10,2,1,-1,-2,-4,2021-08-05 17:20:15,985845
5,-45,0,5,4,4,1,2,2021-08-05 17:20:15,985845
-5,24,7,-2,-3,-2,-3,-2,2021-08-05 17:20:15,986097
7,8,-18,-1,1,3,1,1,2021-08-05 17:20:15,986235
4,3,2,-7,0,-2,-1,0,2021-08-05 17:20:16,000722
-1,19,13,1,-2,-3,0,-1,2021-08-05 17:20:16,003642
2,-12,-9,5,4,0,0,0,2021-08-05 17:20:16,003642
0,-29,-9,-1,1,1,0,0,2021-08-05 17:20:16,003642
-6,22,25,5,-1,-1,0,0,2021-08-05 17:20:16,003642
2,-19,-24,0,2,1,2,2,2021-08-05 17:20:16,003642
-3,8,6,-4,-4,-2,-3,-3,2021-08-05 17:20:16,003642
0,6,-1,-3,1,1,1,2,2021-08-05 17:20:16,003642
0,33,-7,-5,-3,-2,-3,-2,2021-08-05 17:20:16,003642
1,12,10,1,-3,-2,-4,0,2021-08-05 17:20:16,004666
-5,-7,8,11,2,1,1,-1,2021-08-05 17:20:16,030761
3,-18,-27,-7,0,2,2,3,2021-08-05 17:20:16,030761
1,5,4,-7,-5,-2,-2,-1,2021-08-05 17:20:16,030761
-4,13,3,2,-1,-1,0,-3,2021-08-05 17:20:16,030761
-2,2,21,7,5,2,1,1,2021-08-05 17:20:16,046689
-1,4,-10,-2,-3,-2,-1,-2,2021-08-05 17:20:16,061667
1,-27,-24,-4,-3,-1,0,-1,2021-08-05 17:20:16,076668
-5,15,4,-7,-3,-1,-1,-1,2021-08-05 17:20:16,076668
-2,-8,0,2,0,-1,-1,-2,2021-08-05 17:20:16,077111
1,2,4,9,5,3,2,4,2021-08-05 17:20:16,077111
1,-7,6,4,0,0,0,1,2021-08-05 17:20:16,077111
-2,3,-1,-5,-4,-2,-3,-3,2021-08-05 17:20:16,077111
-4,0,-13,-2,-1,0,2,1,2021-08-05 17:20:16,092659
-5,-11,8,-1,-3,-3,-4,-3,2021-08-05 17:20:16,108709
5,-16,-19,-6,0,-3,-2,-2,2021-08-05 17:20:16,124920
-8,-2,-8,1,3,1,2,2,2021-08-05 17:20:16,124920
1,-5,6,-3,-3,-3,-2,1,2021-08-05 17:20:16,125156
-2,-5,0,-3,-4,-3,-4,-4,2021-08-05 17:20:16,125156
4,51,24,9,0,0,2,1,2021-08-05 17:20:16,125156
6,-19,-16,-2,-2,0,-2,-1,2021-08-05 17:20:16,125156
1,-4,-13,-8,-2,0,0,-3,2021-08-05 17:20:16,125156
-2,-2,9,3,2,-1,1,0,2021-08-05 17:20:16,125631
-2,3,0,-2,-1,0,-1,-2,2021-08-05 17:20:16,125631
0,16,13,4,0,-1,-1,1,2021-08-05 17:20:16,125631
-5,-5,-4,-2,0,1,-1,1,2021-08-05 17:20:16,155630
1,4,-11,0,-1,-1,-1,-3,2021-08-05 17:20:16,170687
1,-12,-4,-6,-3,-2,1,1,2021-08-05 17:20:16,170687
-2,5,4,1,-3,-2,-1,-1,2021-08-05 17:20:16,170687
0,-9,7,4,-1,-1,0,-2,2021-08-05 17:20:16,170687
-1,-3,-10,2,-2,0,-1,-1,2021-08-05 17:20:16,170687
0,-9,-2,-3,0,3,2,3,2021-08-05 17:20:16,170687
1,1,-10,-2,1,0,0,-1,2021-08-05 17:20:16,170687
-1,6,1,-7,-6,-3,-2,-5,2021-08-05 17:20:16,201878
1,-1,7,4,0,1,0,1,2021-08-05 17:20:16,201878
-6,3,3,0,-1,-2,-2,-2,2021-08-05 17:20:16,201878
-2,-3,-10,-3,-3,0,1,-2,2021-08-05 17:20:16,201878
0,-2,6,-1,-2,-2,-1,1,2021-08-05 17:20:16,218024
5,1,1,-3,-1,-3,-1,-2,2021-08-05 17:20:16,218141
-4,-20,-15,-6,-3,-1,-3,-3,2021-08-05 17:20:16,218202
-2,7,3,-6,-2,-2,-1,-3,2021-08-05 17:20:16,218202
-5,-5,0,3,-2,-3,-2,-2,2021-08-05 17:20:16,233894
5,4,2,11,1,2,4,5,2021-08-05 17:20:16,249925
-1,0,-1,-1,-3,-3,-2,-4,2021-08-05 17:20:16,249925
2,-1,-4,-6,-2,2,0,0,2021-08-05 17:20:16,249925
4,-1,-15,-8,-3,-2,-2,-1,2021-08-05 17:20:16,249925
-12,-5,14,1,1,-1,-2,-2,2021-08-05 17:20:16,249925
-1,24,13,6,0,-2,-1,0,2021-08-05 17:20:16,249925
-4,-26,-9,3,1,-3,-3,-4,2021-08-05 17:20:16,249925
9,19,5,-4,0,-1,-1,-2,2021-08-05 17:20:16,280933
0,-12,-14,-8,-2,-2,-1,-1,2021-08-05 17:20:16,286430
1,-6,-3,-3,1,0,1,1,2021-08-05 17:20:16,286430
-6,14,23,7,-1,-1,0,-1,2021-08-05 17:20:16,286430
-8,-7,0,7,0,-1,0,-2,2021-08-05 17:20:16,286430
4,-14,-21,-9,-2,0,2,-1,2021-08-05 17:20:16,287430
4,4,-3,-3,-3,-4,-2,-1,2021-08-05 17:20:16,287430
1,1,4,1,1,-2,0,-1,2021-08-05 17:20:16,287605
-2,-5,-3,-5,-2,0,-1,-1,2021-08-05 17:20:16,312429
-6,6,24,1,-2,-2,-1,0,2021-08-05 17:20:16,312642
-1,-9,-16,6,1,1,1,0,2021-08-05 17:20:16,312721
3,5,3,-11,-6,-2,-1,1,2021-08-05 17:20:16,312721
-6,1,4,2,-1,1,0,-5,2021-08-05 17:20:16,343430
-3,12,-1,4,2,3,1,-2,2021-08-05 17:20:16,359551
-2,-5,4,-3,-1,0,-2,-2,2021-08-05 17:20:16,359551
0,4,0,4,-2,-4,-3,-3,2021-08-05 17:20:16,359551
-1,-9,-10,-4,-2,-4,-3,0,2021-08-05 17:20:16,359551
1,4,-7,-3,-4,-3,-2,1,2021-08-05 17:20:16,359551
-4,-12,5,-1,0,-2,-1,-1,2021-08-05 17:20:16,359551
3,13,-15,-8,-1,2,2,2,2021-08-05 17:20:16,359551
4,-5,-3,-3,2,0,3,2,2021-08-05 17:20:16,375517
1,-14,-8,-4,-2,-3,-1,-1,2021-08-05 17:20:16,375517
4,-2,9,8,4,2,0,2,2021-08-05 17:20:16,375517
-7,3,4,2,0,-3,-3,-3,2021-08-05 17:20:16,375517
5,7,2,2,3,3,3,2,2021-08-05 17:20:16,391429
0,7,3,-1,-2,-1,-2,2,2021-08-05 17:20:16,391429
-7,-6,-6,-3,-1,0,1,-1,2021-08-05 17:20:16,391429
-8,-10,-10,-7,-2,0,-3,-2,2021-08-05 17:20:16,391429
3,9,8,6,-1,2,0,0,2021-08-05 17:20:16,407560
6,19,10,6,1,0,-1,0,2021-08-05 17:20:16,407560
2,3,-8,-6,-5,-3,-3,-1,2021-08-05 17:20:16,407560
4,-3,-4,-5,2,3,3,6,2021-08-05 17:20:16,407560
-9,-1,-3,2,0,-2,-1,-3,2021-08-05 17:20:16,423470
-1,-15,-4,-2,1,0,-2,-2,2021-08-05 17:20:16,438429
3,6,8,4,-1,-1,0,1,2021-08-05 17:20:16,438429
2,1,-1,5,2,1,0,0,2021-08-05 17:20:16,438429
-5,-32,-13,-3,2,0,1,1,2021-08-05 17:20:16,453532
2,35,-3,-6,-3,-1,-3,-2,2021-08-05 17:20:16,453532
-3,-6,-3,-1,0,-3,-2,-5,2021-08-05 17:20:16,453532
-2,10,5,-1,-6,-3,-3,-4,2021-08-05 17:20:16,453532
3,-2,2,-1,-2,-1,0,2,2021-08-05 17:20:16,469560
-7,-32,2,3,-2,-2,0,-1,2021-08-05 17:20:16,485499
-3,14,-15,-18,-7,-2,-2,-3,2021-08-05 17:20:16,501514
5,4,6,2,1,1,0,-3,2021-08-05 17:20:16,516471
1,1,14,16,5,2,2,1,2021-08-05 17:20:16,516471
-5,-11,-8,-13,-4,-1,0,-3,2021-08-05 17:20:16,516471
-4,-34,-15,-8,-5,-1,-1,-1,2021-08-05 17:20:16,516471
0,-2,1,-3,1,-2,-1,-1,2021-08-05 17:20:16,516471
-2,20,5,1,-2,-3,-3,-2,2021-08-05 17:20:16,516471
2,7,4,3,2,1,1,3,2021-08-05 17:20:16,516471
1,1,3,0,0,-3,0,1,2021-08-05 17:20:16,516471
-3,-11,-3,3,-2,0,0,-3,2021-08-05 17:20:16,516471
2,4,-10,-9,-2,1,-2,0,2021-08-05 17:20:16,531536
6,-5,3,2,-1,-1,-1,-3,2021-08-05 17:20:16,547473
-14,-4,11,10,3,2,1,0,2021-08-05 17:20:16,547473
4,14,8,7,0,-2,-2,0,2021-08-05 17:20:16,547473
6,-7,-15,-14,-6,-3,-3,-1,2021-08-05 17:20:16,547473
-7,-15,-1,4,2,1,-1,-1,2021-08-05 17:20:16,547473
5,21,-9,-9,-4,-2,-3,-3,2021-08-05 17:20:16,547473
4,-1,14,10,2,0,0,4,2021-08-05 17:20:16,547473
-5,3,2,-7,-2,-3,-1,-5,2021-08-05 17:20:16,577501
-4,-9,-26,-15,-6,-4,-1,-3,2021-08-05 17:20:16,577560
-6,-15,10,6,1,-1,-1,-1,2021-08-05 17:20:16,577560
-8,2,-11,-5,-1,-1,-4,-3,2021-08-05 17:20:16,577560
8,-32,7,6,0,0,1,4,2021-08-05 17:20:16,592482
1,17,2,4,1,-1,0,-2,2021-08-05 17:20:16,592482
-6,-7,1,-2,-3,-3,-4,-5,2021-08-05 17:20:16,592482
6,-13,0,3,4,2,3,4,2021-08-05 17:20:16,592482
-9,1,-27,-21,-6,-2,-2,-7,2021-08-05 17:20:16,608557
0,-5,6,2,0,-1,1,1,2021-08-05 17:20:16,608557
7,9,12,14,3,-1,-1,3,2021-08-05 17:20:16,608557
-5,-28,-1,-2,-3,-3,-2,-4,2021-08-05 17:20:16,608763
-3,21,1,6,1,0,-4,-3,2021-08-05 17:20:16,639588
-3,-15,-18,-25,-5,-3,-1,0,2021-08-05 17:20:16,639588
5,16,-2,0,2,0,1,0,2021-08-05 17:20:16,639588
1,-4,10,3,0,0,-1,4,2021-08-05 17:20:16,639588
-2,11,16,12,0,-1,-2,-2,2021-08-05 17:20:16,639588
-6,1,-15,-2,-3,-4,-3,-6,2021-08-05 17:20:16,639588
-1,-17,-5,-2,1,-1,0,1,2021-08-05 17:20:16,654430
-1,-10,21,14,2,0,1,4,2021-08-05 17:20:16,654430
1,19,-19,-13,-3,-1,-1,-1,2021-08-05 17:20:16,670431
5,-3,11,4,-2,-1,0,2,2021-08-05 17:20:16,686325
-9,-19,-1,-4,-2,-1,-2,-3,2021-08-05 17:20:16,686430
-2,7,-9,-3,-4,-1,1,-1,2021-08-05 17:20:16,686430
21,24,6,1,1,0,4,5,2021-08-05 17:20:16,686430
-10,3,11,10,-1,-2,-2,-3,2021-08-05 17:20:16,686430
-8,-65,-16,-16,-6,-1,-2,-2,2021-08-05 17:20:16,686969
-2,49,0,-3,-1,-2,-3,-5,2021-08-05 17:20:16,687045
-8,-43,-2,9,2,2,2,1,2021-08-05 17:20:16,717740
8,24,2,7,1,-1,1,-1,2021-08-05 17:20:16,733485
6,1,27,10,1,-1,-1,-1,2021-08-05 17:20:16,733485
-5,-7,-42,-26,-2,3,0,-2,2021-08-05 17:20:16,733485
-2,-11,-5,-7,-4,-2,-2,-1,2021-08-05 17:20:16,733485
-3,-7,7,6,-1,-1,-2,1,2021-08-05 17:20:16,733485
-2,15,6,13,3,2,1,0,2021-08-05 17:20:16,733485
0,-6,12,9,2,0,2,-2,2021-08-05 17:20:16,733485
-8,5,-24,-26,-7,-3,-4,-7,2021-08-05 17:20:16,764482
3,-6,6,6,4,2,2,2,2021-08-05 17:20:16,764482
3,24,-6,-4,-1,-3,-2,-3,2021-08-05 17:20:16,764482
-1,-5,2,1,0,-2,-2,-1,2021-08-05 17:20:16,764482
-2,0,61,47,5,-1,0,3,2021-08-05 17:20:16,780483
2,-3,-50,-40,-8,-1,-4,-5,2021-08-05 17:20:16,796806
1,-6,-32,-26,-7,-1,-2,1,2021-08-05 17:20:16,796920
0,-11,-4,-5,-3,-2,-4,-4,2021-08-05 17:20:16,796920
-2,-14,-4,-1,1,0,0,5,2021-08-05 17:20:16,796920
-1,33,40,25,0,-1,-1,1,2021-08-05 17:20:16,796920
4,26,-7,8,3,2,1,0,2021-08-05 17:20:16,796920
2,-14,-18,-31,-7,-4,-3,-1,2021-08-05 17:20:16,796920
-2,4,13,14,4,0,2,2,2021-08-05 17:20:16,812660
-2,-15,4,2,1,1,1,0,2021-08-05 17:20:16,812660
0,-3,-13,-8,0,-1,-2,-2,2021-08-05 17:20:16,812660
0,11,14,14,2,0,1,2,2021-08-05 17:20:16,812660
14,3,22,10,2,-2,-1,1,2021-08-05 17:20:16,844651
-18,-8,-23,-19,-3,-2,-3,-6,2021-08-05 17:20:16,860732
-3,-9,-23,-10,-2,1,1,0,2021-08-05 17:20:16,876730
1,-14,17,18,2,0,1,1,2021-08-05 17:20:16,876730
0,-5,-23,-19,-1,1,1,1,2021-08-05 17:20:16,876730
7,9,11,13,1,-1,-2,-1,2021-08-05 17:20:16,876730
-1,7,21,5,-2,-4,-4,-2,2021-08-05 17:20:16,877136
-2,17,-26,-16,-3,-2,-2,-1,2021-08-05 17:20:16,877136
1,11,7,6,3,2,0,2,2021-08-05 17:20:16,877136
-1,-4,14,16,1,-3,0,0,2021-08-05 17:20:16,877136
3,8,-12,-17,-4,-1,0,-1,2021-08-05 17:20:16,877136
-10,-37,9,11,0,-2,0,-3,2021-08-05 17:20:16,877599
0,12,10,5,-1,-1,0,0,2021-08-05 17:20:16,892597
2,14,-35,-27,-5,-2,-3,-4,2021-08-05 17:20:16,892597
5,-8,11,9,-3,0,1,4,2021-08-05 17:20:16,892597
1,10,20,0,-1,0,0,1,2021-08-05 17:20:16,892597
-9,-13,-50,-22,-3,-2,-4,-12,2021-08-05 17:20:16,907727
3,-13,19,14,4,2,1,4,2021-08-05 17:20:16,907829
-2,-1,4,-1,-2,-2,-3,-2,2021-08-05 17:20:16,907912
-5,5,23,20,2,0,-3,-3,2021-08-05 17:20:16,907912
1,5,-30,-24,-6,1,1,4,2021-08-05 17:20:16,939683
3,-8,-9,-1,3,0,1,2,2021-08-05 17:20:16,939683
-4,8,-3,-1,-1,-3,0,-3,2021-08-05 17:20:16,939899
6,13,25,18,3,-2,3,5,2021-08-05 17:20:16,940061
0,-5,5,-3,-2,-2,-2,0,2021-08-05 17:20:16,955658
-7,-13,-16,-13,-9,-6,-5,-7,2021-08-05 17:20:16,955658
6,-3,-3,2,3,7,5,8,2021-08-05 17:20:16,955658
-2,-5,-14,-15,0,1,1,-3,2021-08-05 17:20:16,955658
-5,16,16,7,-1,-3,-4,-5,2021-08-05 17:20:16,971598
11,-38,-13,-8,-3,0,2,6,2021-08-05 17:20:16,987634
-13,26,14,4,-1,-4,-5,-7,2021-08-05 17:20:16,987634
6,3,-12,-1,-1,-1,-2,0,2021-08-05 17:20:16,987997
-3,-5,-4,-3,-2,-2,-1,0,2021-08-05 17:20:16,988124
0,4,25,8,2,1,-3,0,2021-08-05 17:20:16,988196
-1,-5,13,21,2,-1,0,2,2021-08-05 17:20:16,988307
-4,-19,-59,-44,-10,-2,0,-3,2021-08-05 17:20:16,988491
-1,3,10,5,0,-1,-1,-2,2021-08-05 17:20:17,018712
-4,6,1,0,-2,-1,-1,-1,2021-08-05 17:20:17,018712
3,-7,15,12,5,-1,1,3,2021-08-05 17:20:17,018712
-4,16,17,-4,-4,-5,-4,-4,2021-08-05 17:20:17,018712
3,-16,-40,-14,-3,2,0,3,2021-08-05 17:20:17,033672
0,-4,-9,-5,2,1,1,1,2021-08-05 17:20:17,048680
-1,-1,6,1,1,1,-2,-1,2021-08-05 17:20:17,048680
1,1,21,18,2,-1,-2,1,2021-08-05 17:20:17,048680
-4,-15,11,10,0,-2,-1,-2,2021-08-05 17:20:17,048680
-2,21,-8,-4,5,4,1,-1,2021-08-05 17:20:17,048680
-2,-4,-31,-27,-12,-8,-5,-7,2021-08-05 17:20:17,048680
4,13,-5,2,1,0,0,1,2021-08-05 17:20:17,048680
-4,-14,8,6,1,0,-1,-3,2021-08-05 17:20:17,079648
1,22,37,21,3,-2,0,0,2021-08-05 17:20:17,079648
-5,-28,-16,-2,-4,-1,-3,-4,2021-08-05 17:20:17,079648
0,7,-33,-33,-5,-1,0,-1,2021-08-05 17:20:17,079648
1,13,10,5,3,1,2,3,2021-08-05 17:20:17,095673
-3,-10,9,2,-2,-2,-1,0,2021-08-05 17:20:17,095788
-3,0,5,7,0,-1,-2,-1,2021-08-05 17:20:17,110599
-3,-31,-2,4,1,2,2,4,2021-08-05 17:20:17,110599
-1,15,-9,-8,-3,0,-2,-2,2021-08-05 17:20:17,110599
-1,-7,-4,-4,-3,-3,-2,-2,2021-08-05 17:20:17,110599
-1,8,20,6,0,-2,0,-3,2021-08-05 17:20:17,110599
0,0,-9,13,4,-1,1,1,2021-08-05 17:20:17,110599
3,0,3,-6,-2,0,0,-1,2021-08-05 17:20:17,140647
4,-2,-6,-5,-3,1,1,2,2021-08-05 17:20:17,140647
-1,1,-7,-14,0,1,0,0,2021-08-05 17:20:17,140647
-7,-5,16,18,3,2,-1,-6,2021-08-05 17:20:17,140647
-2,6,4,7,1,1,2,1,2021-08-05 17:20:17,155652
0,6,9,3,-2,-2,-4,-5,2021-08-05 17:20:17,155652
3,1,-8,-1,0,-3,-1,2,2021-08-05 17:20:17,155652
-6,-6,-17,-14,-7,-6,-8,-9,2021-08-05 17:20:17,155652
4,-3,3,0,2,1,2,5,2021-08-05 17:20:17,171651
-4,-8,-17,-10,-1,1,2,1,2021-08-05 17:20:17,171651
1,-2,10,-1,-1,3,2,1,2021-08-05 17:20:17,171651
-1,2,2,3,-1,-1,1,-2,2021-08-05 17:20:17,171651
0,-1,21,10,0,-3,0,1,2021-08-05 17:20:17,201713
-4,-16,-21,-4,-3,-4,-1,-2,2021-08-05 17:20:17,201713
0,12,-1,-3,1,0,1,-1,2021-08-05 17:20:17,201996
-3,-17,-1,-4,0,-2,1,0,2021-08-05 17:20:17,201996
2,25,12,15,1,-3,-2,0,2021-08-05 17:20:17,202117
5,10,-17,-23,-4,2,0,1,2021-08-05 17:20:17,202174
-6,-12,-13,-7,-3,1,-3,-5,2021-08-05 17:20:17,217634
5,-1,1,-2,-1,2,-1,3,2021-08-05 17:20:17,217634
-7,-19,3,4,-3,-2,-2,-4,2021-08-05 17:20:17,233597
4,9,60,49,8,-1,2,6,2021-08-05 17:20:17,244598
-6,5,-61,-50,-6,-2,-1,-9,2021-08-05 17:20:17,244598
7,13,-12,-8,0,0,2,4,2021-08-05 17:20:17,245599
-3,-11,-4,-5,-1,-2,-3,-4,2021-08-05 17:20:17,265663
-5,-14,0,0,0,-2,1,0,2021-08-05 17:20:17,281600
4,0,25,20,3,0,-1,2,2021-08-05 17:20:17,281600
0,9,12,6,-1,-1,-2,0,2021-08-05 17:20:17,281600
-1,-4,-21,-19,-3,-1,-3,-4,2021-08-05 17:20:17,281600
1,-4,9,9,4,4,2,3,2021-08-05 17:20:17,281600
1,0,17,11,-1,-2,0,0,2021-08-05 17:20:17,281600
-2,-6,-32,-19,-7,-2,-3,-5,2021-08-05 17:20:17,281600
0,-1,3,0,-1,-1,1,1,2021-08-05 17:20:17,297598
-5,-4,-8,-9,-2,-3,-1,-4,2021-08-05 17:20:17,312721
4,-7,1,8,1,-3,-1,1,2021-08-05 17:20:17,312721
1,13,13,7,-1,-2,-3,-1,2021-08-05 17:20:17,312721
-1,-6,18,10,2,-2,-1,-1,2021-08-05 17:20:17,312721
-5,-8,-50,-30,-6,1,0,-4,2021-08-05 17:20:17,312721
4,7,17,10,-1,-2,-1,2,2021-08-05 17:20:17,312721
0,1,-1,2,0,1,2,1,2021-08-05 17:20:17,312721
-3,-2,4,13,2,1,-1,-1,2021-08-05 17:20:17,327601
0,-1,-12,-13,-4,-2,-2,-3,2021-08-05 17:20:17,343598
-3,1,4,2,-1,0,0,0,2021-08-05 17:20:17,359697
0,1,26,13,0,-3,-1,0,2021-08-05 17:20:17,359697
-3,-18,-32,-13,-3,1,0,-2,2021-08-05 17:20:17,359697
3,19,-1,-3,2,-1,-1,-2,2021-08-05 17:20:17,359697
0,2,4,-4,-2,-2,0,-1,2021-08-05 17:20:17,359697
-2,6,8,2,0,-2,-3,-1,2021-08-05 17:20:17,359697
-4,2,15,14,1,-3,-2,-1,2021-08-05 17:20:17,375774
-3,-6,-23,-18,-6,-2,-5,-5,2021-08-05 17:20:17,375969
-1,-7,-3,-4,-1,0,-1,0,2021-08-05 17:20:17,376132
2,-3,3,1,1,0,1,-2,2021-08-05 17:20:17,376251
-1,0,0,0,0,-1,0,0,2021-08-05 17:20:17,390598
-3,-1,11,6,0,-4,-2,-3,2021-08-05 17:20:17,405599
-4,-6,-11,-5,-3,0,0,-2,2021-08-05 17:20:17,421852
0,-8,-5,-3,-1,1,1,-1,2021-08-05 17:20:17,422039
1,4,-10,-12,-6,-3,-4,-4,2021-08-05 17:20:17,422039
-4,0,16,9,2,-1,0,0,2021-08-05 17:20:17,422039
-3,-10,6,-7,-2,-3,-1,-2,2021-08-05 17:20:17,422397
5,19,-15,-5,-2,-1,-2,-2,2021-08-05 17:20:17,422499
2,-6,-4,-8,-3,-2,-1,0,2021-08-05 17:20:17,437733
2,11,11,11,1,1,-1,1,2021-08-05 17:20:17,437733
-1,-6,-1,1,0,-1,-1,-1,2021-08-05 17:20:17,437733
-9,-11,-9,-5,-3,-1,-1,-3,2021-08-05 17:20:17,437733
-1,5,13,4,0,-1,-2,-1,2021-08-05 17:20:17,453666
0,-3,-11,-5,-3,-4,-2,-3,2021-08-05 17:20:17,469634
3,-5,5,4,4,4,4,8,2021-08-05 17:20:17,469634
-2,0,-10,-11,0,-2,0,-3,2021-08-05 17:20:17,469634
0,0,-13,-10,-2,-1,-1,-2,2021-08-05 17:20:17,469634
2,-2,13,9,3,0,-1,-1,2021-08-05 17:20:17,469634
2,5,2,4,0,-1,0,0,2021-08-05 17:20:17,469634
-4,-7,4,4,2,-2,-2,-4,2021-08-05 17:20:17,469634
1,0,-12,-12,-1,1,0,1,2021-08-05 17:20:17,501600
1,-2,2,-2,0,-1,2,1,2021-08-05 17:20:17,501835
-2,3,11,6,0,-2,-2,0,2021-08-05 17:20:17,501835
-1,-2,-5,-1,-1,0,-1,0,2021-08-05 17:20:17,501835
-2,4,-2,-2,-2,-2,-1,-2,2021-08-05 17:20:17,501835
0,-19,5,9,2,-2,0,1,2021-08-05 17:20:17,501835
1,26,-5,-3,-1,-1,-3,-1,2021-08-05 17:20:17,517599
2,5,1,-6,-3,-3,-3,-5,2021-08-05 17:20:17,517599
-1,1,-1,5,0,0,2,2,2021-08-05 17:20:17,533598
1,5,9,-2,1,-3,1,2,2021-08-05 17:20:17,548600
-8,-22,-25,-9,-4,1,0,-4,2021-08-05 17:20:17,563665
-2,-5,2,1,-1,-2,-2,0,2021-08-05 17:20:17,563665
-3,11,1,-4,-1,-2,-3,-4,2021-08-05 17:20:17,563665
0,0,5,5,-3,1,0,0,2021-08-05 17:20:17,563665
-2,-18,7,7,2,0,1,-3,2021-08-05 17:20:17,563665
0,11,4,0,-1,0,2,3,2021-08-05 17:20:17,572652
1,-3,-20,-12,-3,-1,-1,-3,2021-08-05 17:20:17,573188
-1,1,1,-2,-4,-2,-4,-4,2021-08-05 17:20:17,573220
2,-1,-3,-2,0,0,-2,0,2021-08-05 17:20:17,594708
-2,-30,3,2,1,2,4,5,2021-08-05 17:20:17,594708
-2,18,9,6,-2,-2,-2,-3,2021-08-05 17:20:17,594708
0,1,-10,-11,-4,0,-1,-3,2021-08-05 17:20:17,594708
1,7,3,4,0,-1,-1,1,2021-08-05 17:20:17,594708
-5,-9,4,1,-1,-3,-2,-4,2021-08-05 17:20:17,594708
-1,-2,-6,-3,1,0,2,2,2021-08-05 17:20:17,626711
-1,0,-6,-3,-1,-2,-2,-2,2021-08-05 17:20:17,642712
4,5,13,12,1,-1,1,2,2021-08-05 17:20:17,642977
-8,-3,-13,-10,-7,-2,-5,-8,2021-08-05 17:20:17,642977
0,-10,-9,-8,-5,-2,-2,2,2021-08-05 17:20:17,642977
1,4,6,10,3,1,1,2,2021-08-05 17:20:17,643258
-1,-6,-12,-10,-2,-2,1,-2,2021-08-05 17:20:17,643393
4,8,7,5,1,0,-1,2,2021-08-05 17:20:17,643482
-4,-7,4,1,-3,-4,-3,-4,2021-08-05 17:20:17,657741
2,3,-1,-1,0,2,1,3,2021-08-05 17:20:17,657741
-2,0,5,5,1,-1,-1,-1,2021-08-05 17:20:17,657741
0,1,-10,-8,-2,0,-3,-2,2021-08-05 17:20:17,657741
-2,-2,2,-3,0,0,-1,-2,2021-08-05 17:20:17,672653
-2,-5,4,4,1,-1,0,0,2021-08-05 17:20:17,673119
-3,-3,-7,-3,-1,-1,0,0,2021-08-05 17:20:17,673119
7,24,4,1,0,-2,0,3,2021-08-05 17:20:17,673318
-1,2,10,6,3,1,-2,-3,2021-08-05 17:20:17,688766
-1,1,-17,-13,-5,-2,-3,-3,2021-08-05 17:20:17,704601
-1,-9,-8,-2,1,3,-1,-2,2021-08-05 17:20:17,704601
-1,-8,-1,2,-1,-1,1,-1,2021-08-05 17:20:17,720650
3,2,3,6,2,0,3,3,2021-08-05 17:20:17,736635
-3,-20,0,1,0,-2,-1,-2,2021-08-05 17:20:17,767739
-1,12,1,-1,-1,-1,-2,0,2021-08-05 17:20:17,767739
1,-5,-1,-1,0,0,-1,-2,2021-08-05 17:20:17,767739
2,1,-5,-6,-1,0,0,1,2021-08-05 17:20:17,767739
-3,5,-7,-7,-4,-1,-1,-3,2021-08-05 17:20:17,767739
2,1,10,3,-3,-3,-3,0,2021-08-05 17:20:17,767739
-1,-10,7,6,5,2,2,2,2021-08-05 17:20:17,767739
1,11,-5,0,-3,1,3,1,2021-08-05 17:20:17,767739
-1,6,-2,0,-2,-3,-3,-3,2021-08-05 17:20:17,767739
2,2,-1,-1,2,1,-1,3,2021-08-05 17:20:17,767739
-2,-3,-4,1,-2,-2,-2,-4,2021-08-05 17:20:17,782678
-2,-12,1,0,0,-1,-1,-1,2021-08-05 17:20:17,797787
-3,-2,0,1,0,-2,-2,-2,2021-08-05 17:20:17,797787
-2,5,-2,-4,-4,-4,-2,-3,2021-08-05 17:20:17,797787
2,1,3,0,1,1,1,2,2021-08-05 17:20:17,797787
-1,-7,-1,1,-1,-2,-1,-2,2021-08-05 17:20:17,797787
1,9,-1,0,0,-1,0,-2,2021-08-05 17:20:17,797787
-2,-4,4,2,-2,-3,-1,-3,2021-08-05 17:20:17,797787
-1,-1,-9,-8,-4,-1,-1,0,2021-08-05 17:20:17,797787
4,2,11,13,1,1,0,-2,2021-08-05 17:20:17,829761
0,-2,-17,-13,-1,1,3,3,2021-08-05 17:20:17,844834
-2,-5,-1,-2,-2,-1,-2,-4,2021-08-05 17:20:17,859761
-5,-3,-5,-3,-2,-1,-3,-2,2021-08-05 17:20:17,859761
-1,6,3,4,1,-1,0,0,2021-08-05 17:20:17,859761
2,-2,13,8,3,0,-2,1,2021-08-05 17:20:17,859761
0,10,-10,-8,-4,1,-2,0,2021-08-05 17:20:17,859761
0,2,-4,1,-1,0,-3,-2,2021-08-05 17:20:17,859761
-1,-9,-1,-4,-1,0,-1,3,2021-08-05 17:20:17,859761
-2,-14,3,2,-1,-1,0,0,2021-08-05 17:20:17,859761
-2,9,-1,-1,-1,-2,0,-1,2021-08-05 17:20:17,860709
0,3,7,2,-2,-1,-1,-2,2021-08-05 17:20:17,860709
-1,-4,-5,-3,-3,-2,-2,-3,2021-08-05 17:20:17,874745
3,3,-2,1,0,-1,0,1,2021-08-05 17:20:17,889709
1,-5,4,0,-2,-1,-2,-1,2021-08-05 17:20:17,904761
-3,-6,-12,-5,0,-2,0,-2,2021-08-05 17:20:17,904761
-2,4,7,3,1,0,0,-1,2021-08-05 17:20:17,904761
-3,-5,-12,-11,-3,-2,0,0,2021-08-05 17:20:17,905747
-2,-3,1,1,2,0,1,-1,2021-08-05 17:20:17,905747
0,10,1,-2,0,0,0,-2,2021-08-05 17:20:17,905747
-5,-10,-14,-4,-3,-4,-3,-4,2021-08-05 17:20:17,921764
-1,3,3,4,-1,-1,-4,-4,2021-08-05 17:20:17,937847
3,-7,4,2,-1,-1,-1,0,2021-08-05 17:20:17,937930
0,-3,7,-1,-2,-3,-2,0,2021-08-05 17:20:17,938039
5,13,4,4,3,0,3,4,2021-08-05 17:20:17,938039
-4,-9,-4,-10,-3,0,1,-1,2021-08-05 17:20:17,938039
-2,-6,-9,-4,-1,1,2,1,2021-08-05 17:20:17,938367
0,2,1,0,1,0,0,2,2021-08-05 17:20:17,938452
-1,-4,-2,-1,0,0,0,1,2021-08-05 17:20:17,953747
-1,-3,5,5,-1,-2,-1,-2,2021-08-05 17:20:17,953747
1,7,1,1,-1,0,-1,0,2021-08-05 17:20:17,953747
-4,-7,-6,1,-2,-3,-3,-5,2021-08-05 17:20:17,953747
-2,-5,-3,-7,-4,-1,-2,-1,2021-08-05 17:20:17,983917
0,3,2,2,-1,0,-1,1,2021-08-05 17:20:17,998868
-5,-13,-4,-1,-2,-3,-4,-4,2021-08-05 17:20:18,014893
7,25,4,3,2,1,3,5,2021-08-05 17:20:18,014893
-3,-2,-2,-6,-3,-4,-2,-6,2021-08-05 17:20:18,014893
3,6,1,0,0,1,3,4,2021-08-05 17:20:18,014893
-2,-13,-2,0,-2,-3,-2,-4,2021-08-05 17:20:18,014893
-3,-5,-5,-1,-2,0,-1,0,2021-08-05 17:20:18,014893
2,7,-5,1,2,1,-1,0,2021-08-05 17:20:18,014893
-2,1,6,0,-1,-2,1,-2,2021-08-05 17:20:18,014893
0,-1,7,1,-2,-1,-2,-2,2021-08-05 17:20:18,015857
-1,-8,-3,0,-2,0,1,0,2021-08-05 17:20:18,015857
1,-5,-5,-2,0,0,-2,2,2021-08-05 17:20:18,046979
-2,-5,-7,-7,-2,-1,-2,-2,2021-08-05 17:20:18,047134
-3,-16,-1,-1,-2,0,0,0,2021-08-05 17:20:18,047134
0,14,5,3,-2,0,-2,-2,2021-08-05 17:20:18,047134
-4,3,4,-3,-6,-3,-2,-3,2021-08-05 17:20:18,061870
2,-5,-7,-1,3,0,0,1,2021-08-05 17:20:18,061870
5,9,8,1,3,0,2,3,2021-08-05 17:20:18,061870
-2,-10,-7,-4,0,-2,-2,0,2021-08-05 17:20:18,061870
-3,-9,-4,-2,-2,-2,-1,-1,2021-08-05 17:20:18,077926
1,9,4,3,0,-2,-4,-2,2021-08-05 17:20:18,077926
-3,4,3,2,-1,-1,0,-2,2021-08-05 17:20:18,077926
0,-8,-8,-4,-2,1,-1,-1,2021-08-05 17:20:18,077926
-2,-2,-3,-2,-1,-1,-1,-2,2021-08-05 17:20:18,092870
-2,0,2,4,0,2,-1,0,2021-08-05 17:20:18,092870
3,4,-3,-1,-1,-1,0,-1,2021-08-05 17:20:18,092870
-2,-5,4,-1,0,-1,-1,1,2021-08-05 17:20:18,092870
-4,-3,-4,-3,-2,-1,-2,-4,2021-08-05 17:20:18,124645
0,-3,0,2,0,0,0,1,2021-08-05 17:20:18,139819
-5,-21,-5,-3,-1,-1,-3,0,2021-08-05 17:20:18,156020
-1,28,-1,-1,0,1,0,-2,2021-08-05 17:20:18,171820
3,9,5,0,0,0,0,1,2021-08-05 17:20:18,171820
-4,-6,-1,2,-3,-2,-3,-5,2021-08-05 17:20:18,171820
2,8,5,5,-1,-1,-1,1,2021-08-05 17:20:18,171820
-1,-19,-4,-11,-4,-2,-1,-1,2021-08-05 17:20:18,171820
-1,-8,-6,0,-2,0,-1,-2,2021-08-05 17:20:18,171820
1,0,-7,-3,0,1,0,0,2021-08-05 17:20:18,171820
-2,11,-1,-3,-3,-2,-2,-3,2021-08-05 17:20:18,171820
-2,-10,7,4,0,-3,0,-3,2021-08-05 17:20:18,172819
-1,0,-2,0,0,2,-2,1,2021-08-05 17:20:18,172819
2,17,6,2,0,-3,-1,0,2021-08-05 17:20:18,172819
3,3,-2,1,1,1,1,2,2021-08-05 17:20:18,172819
1,1,-2,0,0,0,0,1,2021-08-05 17:20:18,172819
-2,-11,2,-2,-2,-1,-1,-2,2021-08-05 17:20:18,201819
-5,-13,-4,-1,-2,-1,-1,-2,2021-08-05 17:20:18,216930
-2,7,-3,-6,-1,-2,-1,-1,2021-08-05 17:20:18,231822
-1,-4,-4,1,0,-1,0,1,2021-08-05 17:20:18,231822
-2,-3,0,0,-1,-2,-1,-1,2021-08-05 17:20:18,231822
-2,-1,1,-1,-1,-1,0,-2,2021-08-05 17:20:18,231822
1,5,-1,-1,1,0,-1,0,2021-08-05 17:20:18,231822
0,-10,0,-1,-1,-2,-1,1,2021-08-05 17:20:18,231822
0,5,-3,-1,-1,-1,-2,-1,2021-08-05 17:20:18,231822
0,0,0,2,-2,0,-2,-1,2021-08-05 17:20:18,231822
-1,0,2,2,-2,-2,0,-1,2021-08-05 17:20:18,232855
-6,-9,-13,-14,-7,-5,-3,-7,2021-08-05 17:20:18,232961
3,1,0,1,3,1,1,2,2021-08-05 17:20:18,248980
4,1,2,0,1,1,4,8,2021-08-05 17:20:18,248980
-2,-5,-1,0,-1,-1,0,-2,2021-08-05 17:20:18,264859
0,1,4,4,1,1,-1,-2,2021-08-05 17:20:18,264859
-7,-5,-4,-5,-4,-4,-5,-5,2021-08-05 17:20:18,280945
-2,-1,-1,-1,-1,-2,-2,-1,2021-08-05 17:20:18,281180
-3,-3,-6,-2,-3,-1,-5,-6,2021-08-05 17:20:18,281180
10,13,11,12,7,6,9,14,2021-08-05 17:20:18,281331
0,-3,0,0,-2,-1,2,0,2021-08-05 17:20:18,310819
1,0,-1,0,-2,0,-1,0,2021-08-05 17:20:18,310819
-6,-6,-9,-7,-5,-4,-4,-5,2021-08-05 17:20:18,310819
-4,-5,-3,-2,-4,-3,-4,-7,2021-08-05 17:20:18,310819
-1,-1,0,0,0,2,0,1,2021-08-05 17:20:18,310819
-3,1,-1,-2,0,-2,-1,-3,2021-08-05 17:20:18,310819
-4,-17,-3,0,1,-2,-2,0,2021-08-05 17:20:18,326857
4,11,-3,0,0,-1,0,0,2021-08-05 17:20:18,327160
-3,-15,0,-3,-4,-5,-3,-3,2021-08-05 17:20:18,327160
4,17,1,-1,3,2,1,1,2021-08-05 17:20:18,327160
0,-4,0,-2,0,-1,1,1,2021-08-05 17:20:18,342907
-1,-7,0,0,-1,0,-1,1,2021-08-05 17:20:18,342907
0,3,2,-1,1,-2,-1,-2,2021-08-05 17:20:18,358919
-7,-8,-3,-1,-4,-2,-4,-4,2021-08-05 17:20:18,358919
1,1,1,1,4,2,2,3,2021-08-05 17:20:18,390819
-2,8,-1,-1,-2,-2,-4,-3,2021-08-05 17:20:18,406820
5,19,8,2,0,3,2,5,2021-08-05 17:20:18,422911
-3,-12,-3,-4,-3,-4,-2,-3,2021-08-05 17:20:18,422911
1,4,-3,-1,-1,0,0,1,2021-08-05 17:20:18,422911
-3,-4,1,0,-3,-2,-2,-2,2021-08-05 17:20:18,422911
-3,-10,-8,-2,-3,-2,-3,-6,2021-08-05 17:20:18,422911
6,1,2,2,1,3,1,4,2021-08-05 17:20:18,422911
-1,-4,-3,-4,-3,-2,-1,-3,2021-08-05 17:20:18,422911
-4,-7,-4,-2,1,-1,-2,-1,2021-08-05 17:20:18,422911
0,-1,-1,-2,-1,-2,-2,0,2021-08-05 17:20:18,422911
-1,-4,0,0,-2,-3,-2,-3,2021-08-05 17:20:18,423821
-1,4,-2,0,-1,-2,0,-1,2021-08-05 17:20:18,423821
1,-2,1,-4,-2,-1,0,-2,2021-08-05 17:20:18,423821
1,2,1,1,1,0,1,1,2021-08-05 17:20:18,423821
-4,-3,-3,-4,-3,-2,-3,-2,2021-08-05 17:20:18,423821
-2,-2,2,1,-2,-1,-2,-1,2021-08-05 17:20:18,438936
-1,-4,-2,-3,1,-2,-1,-3,2021-08-05 17:20:18,439060
3,1,-1,1,2,1,1,0,2021-08-05 17:20:18,454872
-2,0,-2,-1,-1,0,-2,0,2021-08-05 17:20:18,470871
1,4,1,2,0,0,0,4,2021-08-05 17:20:18,471151
-3,0,5,2,-2,-1,-3,-3,2021-08-05 17:20:18,471151
-2,-2,-6,-2,0,0,-1,-1,2021-08-05 17:20:18,471151
-3,-5,-1,-2,0,-2,-2,-4,2021-08-05 17:20:18,471151
1,-16,2,3,0,1,-2,-2,2021-08-05 17:20:18,471151
2,21,-1,-2,-3,-1,0,1,2021-08-05 17:20:18,471151
2,4,2,-1,-1,-1,0,0,2021-08-05 17:20:18,502871
-2,-3,-2,-3,-3,-5,-3,-3,2021-08-05 17:20:18,517871
0,3,-4,-5,-2,0,-1,-1,2021-08-05 17:20:18,517871
-1,-16,-4,0,-2,-1,-3,-2,2021-08-05 17:20:18,517871
-4,-3,1,1,0,0,0,-3,2021-08-05 17:20:18,517871
-1,2,-2,0,-1,-1,1,-2,2021-08-05 17:20:18,517871
0,0,1,1,0,-1,-1,-2,2021-08-05 17:20:18,518405
2,-3,0,1,1,4,2,5,2021-08-05 17:20:18,518591
0,6,2,1,-1,-2,-1,-1,2021-08-05 17:20:18,561820
-2,-6,-3,-1,-3,-2,-2,-3,2021-08-05 17:20:18,561820
4,8,0,5,5,3,2,2,2021-08-05 17:20:18,562821
-4,-25,-4,-3,-3,-3,-3,-2,2021-08-05 17:20:18,562821
1,14,-3,-2,-3,-1,-2,0,2021-08-05 17:20:18,562821
4,2,4,4,3,4,3,4,2021-08-05 17:20:18,563270
-2,2,-3,-5,-3,-2,-2,-2,2021-08-05 17:20:18,563270
-1,-1,0,1,0,-1,-1,-1,2021-08-05 17:20:18,563270
-2,-14,-4,0,-1,-1,-1,-1,2021-08-05 17:20:18,581745
-1,-1,-1,-1,-2,-3,-3,-3,2021-08-05 17:20:18,597742
-2,3,-5,-3,-2,0,-1,-2,2021-08-05 17:20:18,613698
2,6,2,2,2,0,1,0,2021-08-05 17:20:18,613698
-1,-3,0,-2,-2,-1,-1,-1,2021-08-05 17:20:18,613913
-2,1,-3,-1,-4,0,-1,-1,2021-08-05 17:20:18,614016
-2,-5,1,-2,-3,-2,-4,-1,2021-08-05 17:20:18,614096
-2,1,0,0,-3,-4,-2,-2,2021-08-05 17:20:18,614168
1,-1,-2,-1,2,0,1,1,2021-08-05 17:20:18,614264
1,-2,-3,-4,1,-2,-1,1,2021-08-05 17:20:18,614264
0,5,1,-3,-1,0,0,-1,2021-08-05 17:20:18,614361
1,2,-3,1,0,0,1,2,2021-08-05 17:20:18,614458
-1,-2,1,-3,-2,-3,-3,-1,2021-08-05 17:20:18,644702
0,-5,0,-1,1,2,2,2,2021-08-05 17:20:18,644702
0,-15,-3,-3,-3,-3,-2,0,2021-08-05 17:20:18,644971
-4,13,3,3,4,1,2,-3,2021-08-05 17:20:18,645054
-4,-21,-2,2,1,0,-1,-2,2021-08-05 17:20:18,660684
-1,11,0,0,-1,-3,-1,-3,2021-08-05 17:20:18,660797
6,11,1,0,-3,-1,-1,1,2021-08-05 17:20:18,660888
-2,0,-1,-7,-6,-4,-6,-6,2021-08-05 17:20:18,660993
2,-2,1,0,0,-1,-2,3,2021-08-05 17:20:18,676732
-1,-3,-1,0,-1,0,0,0,2021-08-05 17:20:18,676930
-2,-3,-2,-1,0,0,0,1,2021-08-05 17:20:18,677039
0,-6,-3,0,1,2,3,0,2021-08-05 17:20:18,677039
-4,5,-3,-3,-2,-1,-3,-4,2021-08-05 17:20:18,692586
-1,0,1,3,1,2,-1,-2,2021-08-05 17:20:18,708585
0,1,-2,1,1,0,1,-1,2021-08-05 17:20:18,708909
-2,-4,-2,-3,-4,-3,-3,-1,2021-08-05 17:20:18,708909
1,4,2,-2,-3,-2,-1,1,2021-08-05 17:20:18,723674
1,-13,-5,2,5,3,4,5,2021-08-05 17:20:18,738659
-1,12,4,0,-1,0,0,0,2021-08-05 17:20:18,754586
3,0,2,2,1,1,2,3,2021-08-05 17:20:18,754962
-1,4,-4,-3,-1,-1,-1,-4,2021-08-05 17:20:18,755081
-1,-2,-2,-5,-4,-2,-3,-3,2021-08-05 17:20:18,755270
-1,-7,3,3,1,3,1,1,2021-08-05 17:20:18,755406
-5,-2,-6,-4,-3,-3,-3,-4,2021-08-05 17:20:18,755552
-4,-6,-3,-3,-3,-1,-1,-2,2021-08-05 17:20:18,755587
-2,9,5,0,-1,-1,-2,-3,2021-08-05 17:20:18,755587
-2,-6,-3,0,3,1,2,0,2021-08-05 17:20:18,755587
4,-2,-2,-5,-1,-4,-3,-4,2021-08-05 17:20:18,755587
7,13,5,4,3,0,4,4,2021-08-05 17:20:18,786586
-2,-17,-5,-1,-2,-4,-4,-4,2021-08-05 17:20:18,802710
-2,11,-3,-2,-4,-4,-1,-1,2021-08-05 17:20:18,818586
-4,-13,3,2,-1,-1,-4,-4,2021-08-05 17:20:18,818813
0,-3,-8,-1,3,2,0,1,2021-08-05 17:20:18,818933
-4,-5,-2,-3,-2,-2,0,-1,2021-08-05 17:20:18,819000
-1,-2,2,2,1,-2,-2,-4,2021-08-05 17:20:18,819048
-1,-4,-5,-1,0,-1,1,0,2021-08-05 17:20:18,819048
1,-3,2,1,-2,-1,-1,-3,2021-08-05 17:20:18,819048
-2,6,1,1,-2,1,0,0,2021-08-05 17:20:18,819048
-2,-10,-6,-5,-2,-3,0,-2,2021-08-05 17:20:18,819516
2,11,3,2,0,-2,-1,0,2021-08-05 17:20:18,819629
-2,0,1,-1,1,0,-1,0,2021-08-05 17:20:18,849680
-1,-1,-1,0,-1,-2,-2,0,2021-08-05 17:20:18,865722
-4,-4,-9,-4,-2,-2,-3,-4,2021-08-05 17:20:18,881745
-1,0,5,-4,-3,-1,-2,-1,2021-08-05 17:20:18,881861
-2,-2,1,0,-3,-1,0,-2,2021-08-05 17:20:18,882028
3,3,0,0,3,2,1,0,2021-08-05 17:20:18,882028
-1,4,3,-1,-2,1,-1,-1,2021-08-05 17:20:18,882028
-1,-5,-7,-4,-1,1,-1,-2,2021-08-05 17:20:18,882028
-3,-7,-2,0,-1,0,1,0,2021-08-05 17:20:18,882028
-4,-12,0,-2,-6,-3,-3,-4,2021-08-05 17:20:18,882587
2,16,5,3,-1,-1,-1,0,2021-08-05 17:20:18,882587
-3,-1,1,4,-1,0,1,1,2021-08-05 17:20:18,882587
3,1,-4,1,0,-1,-1,0,2021-08-05 17:20:18,897669
0,-1,0,-3,-4,-3,-4,-3,2021-08-05 17:20:18,900585
1,-17,-2,1,1,2,2,3,2021-08-05 17:20:18,900585
0,15,8,3,0,0,2,1,2021-08-05 17:20:18,900585
-1,-5,-9,-3,-1,-2,-1,-4,2021-08-05 17:20:18,928634
-1,6,6,-1,-2,-1,-1,-2,2021-08-05 17:20:18,928807
3,-4,-8,1,1,2,2,4,2021-08-05 17:20:18,929002
-3,-7,-4,-4,-4,-4,-3,-3,2021-08-05 17:20:18,929002
0,0,3,1,2,1,1,0,2021-08-05 17:20:18,929002
-1,6,-1,-1,0,-3,0,-1,2021-08-05 17:20:18,929002
-1,0,0,-2,-1,2,-1,-2,2021-08-05 17:20:18,944685
-1,-5,-4,-1,0,2,1,1,2021-08-05 17:20:18,960586
-3,1,-1,-2,-2,-3,-2,0,2021-08-05 17:20:18,960586
2,1,-4,-1,0,-1,-1,-1,2021-08-05 17:20:18,960836
-3,-2,2,-2,-4,-2,-3,-1,2021-08-05 17:20:18,960836
-2,0,-4,-2,-1,-1,-1,-1,2021-08-05 17:20:18,960836
-2,-5,-5,-3,-1,-1,-1,-2,2021-08-05 17:20:18,990668
1,4,3,1,1,0,0,1,2021-08-05 17:20:18,990818
-2,-1,3,-2,-3,-2,-1,-3,2021-08-05 17:20:18,990908
-3,-9,-4,-3,-3,-2,-1,-2,2021-08-05 17:20:18,991013
2,8,-1,-2,1,2,0,2,2021-08-05 17:20:18,991013
0,5,4,3,2,0,1,1,2021-08-05 17:20:18,991179
0,-4,-4,-3,-2,-3,-1,1,2021-08-05 17:20:19,006586
-3,-8,-2,1,1,-2,-2,-3,2021-08-05 17:20:19,006586
-5,0,-2,-3,-3,-1,-4,-3,2021-08-05 17:20:19,021585
2,8,4,1,1,2,2,3,2021-08-05 17:20:19,021812
-3,-6,-3,-2,-1,-3,-4,-4,2021-08-05 17:20:19,021812
10,0,-4,3,3,5,5,12,2021-08-05 17:20:19,021812
0,1,2,-2,-2,-1,0,-2,2021-08-05 17:20:19,052668
-1,2,-3,-2,-2,-3,-1,-1,2021-08-05 17:20:19,068696
1,6,0,-1,-1,0,-1,0,2021-08-05 17:20:19,084585
-6,-4,-1,-2,-2,-2,-2,-6,2021-08-05 17:20:19,084585
1,-1,-1,0,-1,1,1,1,2021-08-05 17:20:19,084585
-3,-7,-6,-4,-1,-1,0,0,2021-08-05 17:20:19,084585
0,0,3,-1,1,0,0,1,2021-08-05 17:20:19,084585
1,3,1,1,-1,-2,-1,-2,2021-08-05 17:20:19,084585
-4,-4,0,0,-2,-3,-2,-2,2021-08-05 17:20:19,084585
-6,-5,-4,-3,-5,-3,-3,-6,2021-08-05 17:20:19,084585
-1,-2,-3,0,0,2,-1,-1,2021-08-05 17:20:19,085587
0,1,-5,0,-1,0,-1,0,2021-08-05 17:20:19,085587
0,1,7,-1,-1,-3,-1,0,2021-08-05 17:20:19,099696
2,-1,8,0,-1,0,-1,3,2021-08-05 17:20:19,099812
-3,-3,-13,0,-1,-1,-2,-2,2021-08-05 17:20:19,099880
-1,5,3,-4,-3,-3,-2,-3,2021-08-05 17:20:19,099880
-1,-3,4,3,1,0,1,1,2021-08-05 17:20:19,115586
4,-1,-2,1,2,2,1,3,2021-08-05 17:20:19,131211
1,5,6,1,0,-2,0,1,2021-08-05 17:20:19,131294
-9,1,-4,-1,-1,-1,-2,-8,2021-08-05 17:20:19,131699
1,-13,-5,-2,-1,-2,-3,0,2021-08-05 17:20:19,131823
-3,-9,-7,-2,-1,-3,-1,0,2021-08-05 17:20:19,131823
4,11,5,-2,-2,-1,-1,-1,2021-08-05 17:20:19,146782
4,-3,-6,-1,0,0,2,4,2021-08-05 17:20:19,146943
-4,-4,-5,-2,-5,-3,-4,-5,2021-08-05 17:20:19,162665
-1,4,7,3,-2,0,-1,-2,2021-08-05 17:20:19,177586
-2,-11,-2,-3,-4,-2,-1,-1,2021-08-05 17:20:19,192585
-1,6,6,0,0,-1,-1,0,2021-08-05 17:20:19,192585
-3,0,-2,-1,-3,-2,-2,0,2021-08-05 17:20:19,192585
3,-2,-8,0,2,2,3,4,2021-08-05 17:20:19,192585
-2,0,0,-3,-2,-1,-2,-4,2021-08-05 17:20:19,192585
2,3,4,2,2,0,-1,1,2021-08-05 17:20:19,192585
-1,0,-3,-1,-1,-1,0,-2,2021-08-05 17:20:19,192585
-1,-3,-5,-2,1,0,-1,0,2021-08-05 17:20:19,193587
-4,0,2,-1,-3,-2,-2,-3,2021-08-05 17:20:19,193587
1,-5,-1,-3,-2,0,-3,0,2021-08-05 17:20:19,193587
4,7,6,0,1,2,2,1,2021-08-05 17:20:19,222585
-1,-4,-9,-3,-2,-2,-1,-5,2021-08-05 17:20:19,228768
-1,-7,-1,4,3,1,1,1,2021-08-05 17:20:19,228919
0,3,2,-1,-3,-2,-1,-1,2021-08-05 17:20:19,228919
-3,-3,0,0,-1,-1,-1,-1,2021-08-05 17:20:19,228919
0,8,-2,-3,-4,0,-2,0,2021-08-05 17:20:19,228919
1,-5,-4,-3,0,0,-2,1,2021-08-05 17:20:19,238617
-3,2,-5,1,2,-1,-1,-2,2021-08-05 17:20:19,238881
-4,-4,2,-2,-1,-1,0,-2,2021-08-05 17:20:19,269654
1,29,6,0,-2,0,-1,-1,2021-08-05 17:20:19,285586
1,-24,-4,1,-1,0,1,2,2021-08-05 17:20:19,285586
-4,-1,-5,-5,-3,-2,-3,-4,2021-08-05 17:20:19,285586
4,6,0,-1,0,-1,-1,1,2021-08-05 17:20:19,285586
-5,5,-1,-1,0,-2,0,-3,2021-08-05 17:20:19,285586
-2,1,1,0,0,-1,0,0,2021-08-05 17:20:19,285586
-1,-6,0,2,0,0,0,1,2021-08-05 17:20:19,285586
0,-12,-7,-2,2,3,1,0,2021-08-05 17:20:19,285586
-3,-15,-5,-4,-5,-4,-3,-4,2021-08-05 17:20:19,285586
0,10,5,0,-2,-1,-2,-1,2021-08-05 17:20:19,301585
-2,-6,-2,-2,-2,-2,-3,-3,2021-08-05 17:20:19,301585
0,5,-1,2,-3,0,0,1,2021-08-05 17:20:19,316687
0,-5,4,-1,-2,-2,-1,-3,2021-08-05 17:20:19,316687
-3,1,-2,-2,0,-1,0,0,2021-08-05 17:20:19,316687
4,2,-2,0,-1,1,1,1,2021-08-05 17:20:19,316687
-1,0,-1,-4,-2,-1,-2,-2,2021-08-05 17:20:19,348586
1,-7,0,5,3,2,1,2,2021-08-05 17:20:19,364590
-2,2,0,-1,-3,-2,-2,-2,2021-08-05 17:20:19,380713
-4,-1,-3,-3,-3,-1,-1,-2,2021-08-05 17:20:19,380713
3,-2,-1,0,1,1,0,1,2021-08-05 17:20:19,380713
-3,-10,-3,-3,-2,-2,-1,-3,2021-08-05 17:20:19,380713
-2,1,-2,-3,-3,-2,-1,-2,2021-08-05 17:20:19,380713
3,3,4,0,3,0,2,3,2021-08-05 17:20:19,380713
-4,10,0,1,1,1,0,-1,2021-08-05 17:20:19,380713
-5,-14,-2,-2,-3,-3,-3,-3,2021-08-05 17:20:19,380713
6,-4,-17,2,3,2,3,3,2021-08-05 17:20:19,381587
0,10,7,-3,-2,-2,-2,-2,2021-08-05 17:20:19,381587
-2,-10,-4,-2,-3,-1,-2,-2,2021-08-05 17:20:19,396586
0,-4,9,-2,1,3,-1,1,2021-08-05 17:20:19,411678
-2,5,-1,-3,-1,-1,-2,-3,2021-08-05 17:20:19,411800
0,-5,-10,-1,-2,0,-1,2,2021-08-05 17:20:19,411950
-1,1,2,-3,-3,-3,-2,0,2021-08-05 17:20:19,412109
1,5,1,2,3,2,3,2,2021-08-05 17:20:19,412275
-5,-5,2,-3,-3,-2,-2,-3,2021-08-05 17:20:19,427664
-5,-7,1,3,3,2,2,-2,2021-08-05 17:20:19,427664
3,10,-1,5,2,2,0,0,2021-08-05 17:20:19,442712
2,-2,-6,-2,-2,-3,-5,-2,2021-08-05 17:20:19,442712
3,9,3,0,-4,-6,-4,-1,2021-08-05 17:20:19,442712
4,29,5,0,1,-1,1,2,2021-08-05 17:20:19,442931
-5,-47,1,-1,-3,-3,-1,-1,2021-08-05 17:20:19,457585
1,-1,-11,1,4,2,4,4,2021-08-05 17:20:19,472585
2,26,9,0,0,1,-1,0,2021-08-05 17:20:19,472585
0,-34,-11,-1,-2,0,-2,-3,2021-08-05 17:20:19,472585
-9,-5,-23,-4,0,0,1,-3,2021-08-05 17:20:19,472585
4,12,19,4,-11,-4,-4,-1,2021-08-05 17:20:19,472585
-1,9,4,-5,5,-2,-2,-3,2021-08-05 17:20:19,503697
-2,-1,0,-3,-6,-3,-2,-3,2021-08-05 17:20:19,518701
-1,6,5,-1,1,1,1,0,2021-08-05 17:20:19,533714
-5,-16,-18,-2,-3,-3,-2,-2,2021-08-05 17:20:19,533825
-1,4,7,0,-1,1,-1,-1,2021-08-05 17:20:19,533825
-2,19,0,0,-2,-1,-1,0,2021-08-05 17:20:19,534224
1,-10,7,-3,-3,-1,-3,-1,2021-08-05 17:20:19,534338
-2,5,-9,-2,2,0,0,2,2021-08-05 17:20:19,534458
0,-4,-2,-4,-4,-2,-1,-2,2021-08-05 17:20:19,534588
-3,-10,1,-1,2,0,0,-1,2021-08-05 17:20:19,534602
-2,21,7,-1,-5,-4,-4,-5,2021-08-05 17:20:19,534602
3,-13,-1,-2,-2,0,0,1,2021-08-05 17:20:19,534602
-3,-8,-8,1,2,3,2,1,2021-08-05 17:20:19,534602
-1,-6,-4,-2,-3,-3,-2,-3,2021-08-05 17:20:19,534602
5,12,0,-1,1,1,2,3,2021-08-05 17:20:19,553586
-3,-1,3,0,1,1,-2,-2,2021-08-05 17:20:19,553586
-1,-7,-6,0,-3,-2,-2,0,2021-08-05 17:20:19,553586
1,-2,1,1,-1,-1,1,-2,2021-08-05 17:20:19,554587
3,-16,0,2,0,0,-1,-2,2021-08-05 17:20:19,579586
0,10,1,-2,3,-1,-1,-1,2021-08-05 17:20:19,595262
-1,-3,9,2,-1,-2,0,1,2021-08-05 17:20:19,595445
0,3,-6,2,1,0,-1,-1,2021-08-05 17:20:19,595586
-3,-6,-16,-2,0,-3,-1,0,2021-08-05 17:20:19,595586
-3,38,1,-4,-5,-3,-3,-5,2021-08-05 17:20:19,595586
2,-79,11,4,4,2,2,3,2021-08-05 17:20:19,610640
-7,-17,-18,-5,-2,-2,-3,-3,2021-08-05 17:20:19,610740
6,29,1,-1,0,2,1,3,2021-08-05 17:20:19,610740
-3,-10,1,-4,-6,-5,-3,-6,2021-08-05 17:20:19,610740
-2,33,0,4,2,-2,-2,-1,2021-08-05 17:20:19,610740
0,1,8,0,-1,0,0,2,2021-08-05 17:20:19,610740
-3,-20,-3,0,2,-2,-1,-1,2021-08-05 17:20:19,641585
0,5,2,-1,1,0,3,2,2021-08-05 17:20:19,656586
-5,7,-6,-5,-4,-3,-4,-5,2021-08-05 17:20:19,687658
3,-7,-2,0,1,-1,1,2,2021-08-05 17:20:19,703804
0,11,1,-2,-4,-3,-3,-2,2021-08-05 17:20:19,703804
0,-6,-2,1,3,3,3,1,2021-08-05 17:20:19,703804
0,1,-8,-2,0,0,0,-2,2021-08-05 17:20:19,703804
-4,4,8,0,-1,-1,-3,-5,2021-08-05 17:20:19,703804
-7,34,-10,-5,-8,-6,-5,-3,2021-08-05 17:20:19,703804
5,-41,-2,3,5,5,2,4,2021-08-05 17:20:19,703804
-3,4,-6,-3,-1,-1,-1,-2,2021-08-05 17:20:19,703804
3,-2,-10,-3,-2,-1,0,0,2021-08-05 17:20:19,703804
-2,4,6,-1,-4,-2,-2,-3,2021-08-05 17:20:19,703804
-2,0,0,-2,-3,-3,-5,-4,2021-08-05 17:20:19,704587
3,10,0,2,2,2,1,2,2021-08-05 17:20:19,704587
-1,-1,8,0,0,-2,-2,1,2021-08-05 17:20:19,704846
-3,-11,0,-2,-2,-4,-2,-1,2021-08-05 17:20:19,734585
2,1,-3,2,1,2,1,3,2021-08-05 17:20:19,749672
2,6,1,1,-1,-1,0,3,2021-08-05 17:20:19,749904
-3,-2,6,0,-1,0,-1,-1,2021-08-05 17:20:19,750047
-2,-16,-11,-1,-1,-2,-2,-2,2021-08-05 17:20:19,750177
-4,-5,0,-3,-2,-3,-2,-5,2021-08-05 17:20:19,750275
-1,11,4,-3,-4,-3,-3,-3,2021-08-05 17:20:19,750388
-1,-7,-15,-3,-1,-1,-1,2,2021-08-05 17:20:19,750388
3,0,7,2,2,4,2,2,2021-08-05 17:20:19,765586
-3,5,-5,-2,-1,-1,-3,-2,2021-08-05 17:20:19,781703
-2,-10,-3,0,-1,1,2,1,2021-08-05 17:20:19,781822
0,40,8,0,-1,-2,-2,-3,2021-08-05 17:20:19,781972
-1,-42,-2,0,-1,-1,2,-1,2021-08-05 17:20:19,782055
0,9,-1,-3,-5,-3,-1,-1,2021-08-05 17:20:19,782055
-1,-6,-3,-3,-1,-1,-3,-1,2021-08-05 17:20:19,782055
-1,1,1,-2,-2,-1,-2,-2,2021-08-05 17:20:19,782055
4,17,8,5,5,4,4,4,2021-08-05 17:20:19,797332
-3,-5,-2,-1,0,-1,-1,-1,2021-08-05 17:20:19,812391
-3,0,-7,-1,-3,-2,-1,-2,2021-08-05 17:20:19,843432
-1,-4,-2,-3,-5,-3,-3,-2,2021-08-05 17:20:19,843432
5,-4,5,6,5,3,3,6,2021-08-05 17:20:19,859537
-6,-8,0,-3,-2,0,-3,-4,2021-08-05 17:20:19,875335
-1,4,-1,1,4,2,1,1,2021-08-05 17:20:19,875335
3,15,0,-1,-1,1,-2,-2,2021-08-05 17:20:19,875335
-4,-19,17,-1,-1,0,-2,-3,2021-08-05 17:20:19,875335
1,12,-14,0,1,0,0,1,2021-08-05 17:20:19,875335
-1,-30,-22,-8,-5,-3,-2,-4,2021-08-05 17:20:19,875335
-1,-6,5,-1,-2,-1,-3,1,2021-08-05 17:20:19,875335
-1,16,-2,-5,-3,-2,-3,-3,2021-08-05 17:20:19,875335
3,10,11,1,-1,0,-2,-1,2021-08-05 17:20:19,875335
0,3,2,3,1,3,2,6,2021-08-05 17:20:19,875335
2,-13,-7,-1,-1,-1,1,0,2021-08-05 17:20:19,875335
-1,8,1,-2,-2,-1,-2,-2,2021-08-05 17:20:19,875335
-7,-10,-4,-4,-1,-1,-1,-4,2021-08-05 17:20:19,876336
2,14,3,0,1,0,2,2,2021-08-05 17:20:19,876336
-1,-38,-1,2,1,2,1,-1,2021-08-05 17:20:19,876336
-1,7,-8,-3,-2,-1,-2,-2,2021-08-05 17:20:19,907459
2,2,-1,3,2,1,2,2,2021-08-05 17:20:19,907459
-3,1,0,-3,-4,-4,-5,-5,2021-08-05 17:20:19,907459
2,12,10,-2,0,-1,2,3,2021-08-05 17:20:19,907459
-6,-6,-11,-2,-3,-3,-5,-5,2021-08-05 17:20:19,923426
2,-3,6,0,-2,1,2,1,2021-08-05 17:20:19,923618
-2,-3,-11,0,0,1,-1,-1,2021-08-05 17:20:19,923690
-1,-2,-3,-1,-3,-2,-4,-4,2021-08-05 17:20:19,923690
1,7,0,-1,0,0,-2,1,2021-08-05 17:20:19,939394
1,29,8,0,-2,-4,0,-1,2021-08-05 17:20:19,939437
-1,-47,1,0,-2,-1,0,1,2021-08-05 17:20:19,939437
-3,-4,-12,1,2,3,-1,0,2021-08-05 17:20:19,939437
-2,10,0,-3,-6,-5,-5,-4,2021-08-05 17:20:19,970332
2,2,5,-2,-2,0,-1,3,2021-08-05 17:20:19,986449
-4,11,5,-1,-4,-2,-1,-5,2021-08-05 17:20:19,986688
0,-5,-4,-1,1,-2,2,2,2021-08-05 17:20:19,986840
2,-7,-1,2,3,2,1,3,2021-08-05 17:20:19,986998
-1,-6,-4,2,1,0,-1,-4,2021-08-05 17:20:19,987088
-1,6,2,0,-2,-3,-2,0,2021-08-05 17:20:19,987088
-1,-2,1,-2,1,0,-2,0,2021-08-05 17:20:19,987088
1,5,-1,-2,-2,-4,-1,-1,2021-08-05 17:20:20,002390
1,-10,-1,2,1,1,0,1,2021-08-05 17:20:20,002595
0,4,0,0,0,1,1,-3,2021-08-05 17:20:20,002708
0,5,1,-2,-3,-1,0,2,2021-08-05 17:20:20,002821
0,-2,-1,0,2,0,1,1,2021-08-05 17:20:20,034486
0,-11,-3,-2,-2,-2,-1,-2,2021-08-05 17:20:20,034614
0,4,3,-2,0,1,-1,-5,2021-08-05 17:20:20,034729
-3,2,-1,-1,-2,-3,-2,-3,2021-08-05 17:20:20,034838
-2,-8,-4,-2,-3,-2,-3,-4,2021-08-05 17:20:20,035006
1,-5,-3,-2,-1,-1,1,4,2021-08-05 17:20:20,035123
-2,2,-4,-1,-1,-1,-2,-2,2021-08-05 17:20:20,050332
1,1,2,1,-3,-2,-2,-2,2021-08-05 17:20:20,050332
1,11,-2,1,4,2,2,0,2021-08-05 17:20:20,066447
-5,-19,-5,-2,-1,-3,-2,-1,2021-08-05 17:20:20,066529
-2,3,0,-3,-3,-3,-3,-3,2021-08-05 17:20:20,066622
1,11,4,2,1,0,1,-1,2021-08-05 17:20:20,066704
-4,-13,-2,0,-3,-1,-2,-1,2021-08-05 17:20:20,081484
1,3,-3,-2,0,0,-2,-2,2021-08-05 17:20:20,081678
1,0,4,4,2,0,1,0,2021-08-05 17:20:20,097399
0,2,0,-1,1,1,1,0,2021-08-05 17:20:20,112459
1,1,1,2,3,2,4,2,2021-08-05 17:20:20,128469
-2,-3,0,0,-2,0,-3,-4,2021-08-05 17:20:20,128469
-1,-4,-1,0,-1,-1,0,-1,2021-08-05 17:20:20,128469
0,-2,-2,-2,-2,-1,-1,-3,2021-08-05 17:20:20,128469
2,-2,0,-3,-3,-3,0,0,2021-08-05 17:20:20,128738
-2,-7,-4,-1,-2,1,-1,-1,2021-08-05 17:20:20,128830
3,9,0,1,1,1,-1,1,2021-08-05 17:20:20,128904
-1,-2,-1,-2,-1,-1,-1,1,2021-08-05 17:20:20,128904
-4,-5,-2,0,0,-1,-3,-2,2021-08-05 17:20:20,144385
0,8,-1,-1,-3,-3,-2,-1,2021-08-05 17:20:20,144385
0,0,-1,-1,0,1,1,2,2021-08-05 17:20:20,144385
-1,-5,-3,-1,-3,-1,0,-2,2021-08-05 17:20:20,144385
0,-1,0,-2,-1,0,1,-3,2021-08-05 17:20:20,160332
-4,25,-2,-4,-4,-5,-3,-5,2021-08-05 17:20:20,160332
3,-24,7,2,2,2,1,0,2021-08-05 17:20:20,160332
3,25,11,6,3,6,5,5,2021-08-05 17:20:20,160332
0,-42,-27,-3,-3,-2,-2,0,2021-08-05 17:20:20,176370
-2,4,-4,-5,-4,-2,-3,-4,2021-08-05 17:20:20,192443
-1,6,6,0,-1,-3,-4,-5,2021-08-05 17:20:20,192443
-1,12,5,0,-1,-1,-2,-1,2021-08-05 17:20:20,192443
0,20,16,1,-2,-1,0,-1,2021-08-05 17:20:20,208332
1,-22,-10,3,2,1,3,2,2021-08-05 17:20:20,208332
-1,6,-11,-2,-2,-2,0,0,2021-08-05 17:20:20,208332
-3,-16,1,-4,-2,-2,-2,-2,2021-08-05 17:20:20,208332
-1,8,1,-1,-2,0,-2,-2,2021-08-05 17:20:20,224471
0,-7,7,2,1,0,1,0,2021-08-05 17:20:20,224471
0,7,-4,-5,-2,-2,-1,0,2021-08-05 17:20:20,224471
-3,-11,-9,-1,-3,-1,-3,-2,2021-08-05 17:20:20,224757
-1,-3,0,-2,0,-1,1,0,2021-08-05 17:20:20,255333
-2,3,0,-5,-5,-5,-3,-2,2021-08-05 17:20:20,271444
2,3,2,0,3,4,3,7,2021-08-05 17:20:20,287530
-3,-11,-4,1,1,1,1,-3,2021-08-05 17:20:20,287530
-7,4,1,0,0,1,-3,-3,2021-08-05 17:20:20,287530
0,22,11,5,1,2,-1,-2,2021-08-05 17:20:20,287530
-4,-27,12,-1,-3,-5,-5,-5,2021-08-05 17:20:20,287530
0,-26,-32,-8,-5,-6,-4,-1,2021-08-05 17:20:20,287530
-2,3,-4,-7,-6,-6,-4,-3,2021-08-05 17:20:20,287530
0,-1,2,-2,1,1,2,-1,2021-08-05 17:20:20,288214
1,23,4,1,0,1,1,3,2021-08-05 17:20:20,303408
1,5,21,4,1,2,3,0,2021-08-05 17:20:20,319431
-2,-28,-20,-1,3,0,1,-1,2021-08-05 17:20:20,351421
-1,-5,-1,-4,-2,-1,-1,0,2021-08-05 17:20:20,367332
-3,12,-12,-4,-3,-6,-4,-4,2021-08-05 17:20:20,367332
-6,-16,4,-2,-1,-2,-2,-2,2021-08-05 17:20:20,367332
5,20,9,3,2,3,2,2,2021-08-05 17:20:20,367332
0,-13,-2,-1,0,0,0,0,2021-08-05 17:20:20,367332
1,14,0,0,1,2,0,1,2021-08-05 17:20:20,367332
-3,5,-2,-4,-2,-4,-3,-3,2021-08-05 17:20:20,367332
1,-6,-1,-1,1,2,0,1,2021-08-05 17:20:20,367332
1,1,-2,-1,0,-1,-1,0,2021-08-05 17:20:20,368334
-4,-12,-4,-2,-4,-2,-3,-3,2021-08-05 17:20:20,368334
1,7,0,0,-1,-2,0,0,2021-08-05 17:20:20,368334
-4,1,6,3,2,0,-2,-4,2021-08-05 17:20:20,368334
7,8,-1,3,6,3,2,8,2021-08-05 17:20:20,368334
-5,-16,-5,-6,-5,-4,-4,-4,2021-08-05 17:20:20,368334
-1,-2,-3,-5,-4,-2,-3,-3,2021-08-05 17:20:20,368334
1,10,10,-1,-1,-1,-1,-3,2021-08-05 17:20:20,383332
-2,22,5,1,-3,-2,-2,-3,2021-08-05 17:20:20,383522
-3,-42,-13,1,1,0,3,1,2021-08-05 17:20:20,383656
0,4,-5,-5,-2,-1,-2,-4,2021-08-05 17:20:20,383656
1,21,3,-3,-1,-2,-1,-1,2021-08-05 17:20:20,399409
-3,-22,3,1,-1,0,-1,-2,2021-08-05 17:20:20,415510
1,3,-10,0,3,2,2,2,2021-08-05 17:20:20,431409
0,19,13,5,1,-1,0,0,2021-08-05 17:20:20,431409
0,-20,-16,-1,0,-2,1,1,2021-08-05 17:20:20,431738
-2,-1,-6,-6,-2,-2,-2,-1,2021-08-05 17:20:20,431738
-1,5,-12,-8,-5,-4,-2,-3,2021-08-05 17:20:20,431738
2,-7,-2,0,1,1,1,0,2021-08-05 17:20:20,431738
-1,12,10,0,-1,-1,-1,-1,2021-08-05 17:20:20,447492
-2,-9,0,0,0,-2,-2,-1,2021-08-05 17:20:20,447666
1,2,10,5,4,2,1,0,2021-08-05 17:20:20,447666
0,5,-2,-2,0,0,0,-1,2021-08-05 17:20:20,447666
-2,-4,0,-2,-3,-1,-1,2,2021-08-05 17:20:20,463410
-3,-10,-8,-2,-3,-1,-1,-2,2021-08-05 17:20:20,463671
-1,9,2,-2,-3,-1,-1,-3,2021-08-05 17:20:20,463765
-1,0,-1,-1,-1,-3,-3,-3,2021-08-05 17:20:20,463888
3,-2,1,3,0,1,2,2,2021-08-05 17:20:20,479410
1,2,-3,2,2,2,0,0,2021-08-05 17:20:20,495512
-1,-2,-1,-2,0,-1,-1,-1,2021-08-05 17:20:20,510408
-2,-5,0,1,0,1,1,2,2021-08-05 17:20:20,510722
-3,-10,-6,-4,-6,-3,-3,-6,2021-08-05 17:20:20,510722
0,7,4,0,-2,-2,-1,-2,2021-08-05 17:20:20,510722
0,10,8,1,-1,-1,0,0,2021-08-05 17:20:20,510722
-3,21,-2,-4,-3,-4,-3,0,2021-08-05 17:20:20,510722
0,-48,-1,1,2,2,1,2,2021-08-05 17:20:20,540491
-3,-6,-6,0,0,2,0,0,2021-08-05 17:20:20,540491
-1,22,6,-6,-4,-4,-4,-5,2021-08-05 17:20:20,540491
-1,-27,-8,0,0,0,0,0,2021-08-05 17:20:20,540491
-2,29,6,-2,-1,-2,-4,-2,2021-08-05 17:20:20,540491
1,2,8,2,-1,-1,0,-3,2021-08-05 17:20:20,540491
1,-19,-11,3,3,2,1,3,2021-08-05 17:20:20,540491
-1,6,-5,-2,-2,1,0,-1,2021-08-05 17:20:20,540491
-4,4,-1,-5,-4,-4,-3,-4,2021-08-05 17:20:20,571462
-1,-10,-4,-1,0,-1,-1,-1,2021-08-05 17:20:20,571462
3,16,11,0,-1,1,2,3,2021-08-05 17:20:20,571462
1,-5,-7,2,2,2,0,0,2021-08-05 17:20:20,571462
0,-3,-4,-2,0,-1,-2,-2,2021-08-05 17:20:20,571462
-3,-1,-4,-3,-3,-1,-2,-4,2021-08-05 17:20:20,571462
-2,1,3,0,-1,-2,-3,-4,2021-08-05 17:20:20,587521
1,-7,2,2,2,1,-2,2,2021-08-05 17:20:20,587521
4,22,2,2,-1,1,3,5,2021-08-05 17:20:20,618411
-3,-19,-2,-1,-1,-2,-1,-1,2021-08-05 17:20:20,618411
-1,-1,3,2,1,1,-1,2,2021-08-05 17:20:20,618411
0,5,5,0,-1,-3,-1,-2,2021-08-05 17:20:20,618411
-4,7,1,-2,-4,-5,-2,-3,2021-08-05 17:20:20,618852
2,66,6,-1,0,-1,1,-2,2021-08-05 17:20:20,618852
-3,-101,-19,0,0,3,1,3,2021-08-05 17:20:20,619018
-2,-3,-12,-1,0,2,1,-1,2021-08-05 17:20:20,619048
1,17,6,-5,-5,-3,-3,-3,2021-08-05 17:20:20,649457
-2,-3,-2,-6,-3,-2,-1,0,2021-08-05 17:20:20,649457
2,31,1,1,-1,-1,0,-1,2021-08-05 17:20:20,649457
-1,2,11,5,0,2,1,1,2021-08-05 17:20:20,649457
-1,-28,-13,-1,0,0,-1,0,2021-08-05 17:20:20,664454
2,0,2,0,0,1,0,1,2021-08-05 17:20:20,679484
-4,18,4,-3,-6,-6,-6,-6,2021-08-05 17:20:20,695513
-1,-15,-6,-3,0,-2,-2,-4,2021-08-05 17:20:20,695624
1,8,3,7,4,4,2,4,2021-08-05 17:20:20,695768
-2,-21,-5,-1,-4,-2,-1,-2,2021-08-05 17:20:20,695768
2,24,2,1,-2,-1,0,-1,2021-08-05 17:20:20,695768
-3,-17,0,-3,-3,-2,-3,-2,2021-08-05 17:20:20,695768
-3,-1,-2,-7,-1,-2,-2,-5,2021-08-05 17:20:20,725475
1,-4,-3,-3,-2,-1,-2,-2,2021-08-05 17:20:20,740651
2,2,2,2,-1,0,1,1,2021-08-05 17:20:20,740791
-5,8,4,1,-1,-2,-1,2,2021-08-05 17:20:20,741063
-1,-3,-6,-4,0,0,0,-1,2021-08-05 17:20:20,756409
-4,-15,-9,-4,-3,-1,-1,-2,2021-08-05 17:20:20,756673
-1,13,1,-6,-2,-2,-2,-2,2021-08-05 17:20:20,771409
0,-8,2,3,0,0,0,-2,2021-08-05 17:20:20,771409
0,-2,3,3,0,0,-1,0,2021-08-05 17:20:20,771409
0,-1,8,3,1,-2,-2,-1,2021-08-05 17:20:20,771409
-3,4,-3,-2,-2,-1,-2,-4,2021-08-05 17:20:20,771409
1,1,-6,-3,-2,-2,-2,-1,2021-08-05 17:20:20,771409
-3,26,3,-3,-1,-1,-1,0,2021-08-05 17:20:20,772094
1,-49,-8,1,3,3,0,1,2021-08-05 17:20:20,772094
-7,-4,-9,0,-1,-3,-2,-5,2021-08-05 17:20:20,772094
2,9,9,3,2,1,2,3,2021-08-05 17:20:20,772094
-1,1,-6,-5,-3,-1,-1,-1,2021-08-05 17:20:20,772410
-4,5,4,-3,-6,-4,-4,-2,2021-08-05 17:20:20,772410
-1,-14,-11,-4,-1,0,-1,-1,2021-08-05 17:20:20,772410
-2,7,10,3,-3,-1,0,-2,2021-08-05 17:20:20,772410
4,12,-2,7,1,0,1,1,2021-08-05 17:20:20,801871
-3,-23,-9,-8,-1,0,2,-1,2021-08-05 17:20:20,802008
-4,-6,-10,-11,-6,-6,-3,-2,2021-08-05 17:20:20,802008
-2,10,-2,-3,-1,-3,0,-3,2021-08-05 17:20:20,802130
2,-1,10,6,3,0,-2,0,2021-08-05 17:20:20,833741
3,11,5,9,3,2,1,2,2021-08-05 17:20:20,849827
0,9,7,0,-1,-1,0,0,2021-08-05 17:20:20,849827
1,-9,-11,-6,-1,0,0,-2,2021-08-05 17:20:20,849827
-1,-14,-3,2,0,1,-1,0,2021-08-05 17:20:20,849827
-3,9,-4,-2,-2,1,-2,-2,2021-08-05 17:20:20,849827
1,-1,5,1,-1,0,0,0,2021-08-05 17:20:20,849827
-2,8,0,-5,-4,-2,-2,-2,2021-08-05 17:20:20,849827
-2,-13,0,4,1,1,-1,-3,2021-08-05 17:20:20,865924
1,9,-4,2,1,0,1,-1,2021-08-05 17:20:20,874739
2,6,7,-1,1,2,-2,3,2021-08-05 17:20:20,874739
-4,-23,-12,-5,-2,-3,-4,-2,2021-08-05 17:20:20,874739
-1,-10,-10,-6,-4,-5,-2,-4,2021-08-05 17:20:20,881740
-2,6,0,-3,0,-1,-1,-2,2021-08-05 17:20:20,881908
1,15,21,3,1,-3,0,-1,2021-08-05 17:20:20,882026
3,11,-8,4,2,2,3,2,2021-08-05 17:20:20,882026
-7,-35,-14,-7,-3,-2,-2,-2,2021-08-05 17:20:20,897844
3,8,-5,1,0,-2,-1,-2,2021-08-05 17:20:20,912818
1,9,5,0,-2,-5,-3,-3,2021-08-05 17:20:20,912818
-1,4,5,3,2,3,2,4,2021-08-05 17:20:20,912818
-6,6,3,-1,-1,-1,0,-3,2021-08-05 17:20:20,928889
1,-4,1,1,-1,2,4,0,2021-08-05 17:20:20,928889
-1,-2,-12,-8,-1,0,-2,-3,2021-08-05 17:20:20,928889
-1,-4,2,-3,-2,-4,-3,-3,2021-08-05 17:20:20,928889
1,-4,5,7,0,-1,1,4,2021-08-05 17:20:20,943741
0,6,-1,-3,0,-3,-2,2,2021-08-05 17:20:20,959861
-2,-7,-1,0,0,1,0,0,2021-08-05 17:20:20,975819
1,-1,1,0,-1,-1,-1,-2,2021-08-05 17:20:20,991837
-1,25,-2,1,1,3,2,0,2021-08-05 17:20:21,007816
-5,-27,5,-2,-2,-2,-3,-1,2021-08-05 17:20:21,008052
2,-9,-18,0,1,2,1,3,2021-08-05 17:20:21,008184
-1,-3,0,-3,-1,-1,-1,-2,2021-08-05 17:20:21,008184
-3,14,13,-2,-3,-3,-3,-2,2021-08-05 17:20:21,008184
-1,-25,-13,1,0,0,0,-1,2021-08-05 17:20:21,008184
-1,-9,-10,-2,0,0,0,-1,2021-08-05 17:20:21,008184
0,-4,-7,-8,-8,-4,-5,-4,2021-08-05 17:20:21,008184
4,-1,1,-2,0,-1,-2,-3,2021-08-05 17:20:21,008741
-3,19,8,0,-2,-2,-1,0,2021-08-05 17:20:21,008741
3,-4,15,6,3,3,2,4,2021-08-05 17:20:21,008741
-2,-1,-12,4,1,-1,1,1,2021-08-05 17:20:21,008741
-1,-3,0,-6,-2,0,0,0,2021-08-05 17:20:21,022739
-2,27,-6,-1,3,2,1,0,2021-08-05 17:20:21,022739
-5,-12,-3,0,-1,-1,-2,-5,2021-08-05 17:20:21,022739
2,-2,5,2,-1,-3,-3,-4,2021-08-05 17:20:21,022739
0,-5,-2,0,-3,-6,-4,-2,2021-08-05 17:20:21,053840
3,6,0,-1,-3,-4,-2,-1,2021-08-05 17:20:21,053934
0,5,0,-2,-3,-2,-1,0,2021-08-05 17:20:21,053934
0,5,0,-3,3,3,2,0,2021-08-05 17:20:21,053934
-1,-9,-4,-2,0,1,1,0,2021-08-05 17:20:21,068850
0,2,2,-2,-5,-1,-3,-2,2021-08-05 17:20:21,083739
-1,4,0,-2,-3,-1,-3,-3,2021-08-05 17:20:21,083739
2,-7,0,0,1,3,1,2,2021-08-05 17:20:21,083739
-2,28,-3,0,-1,-2,-3,-3,2021-08-05 17:20:21,083739
1,-26,3,4,3,2,2,1,2021-08-05 17:20:21,083739
-2,-7,5,4,-3,-3,-1,-2,2021-08-05 17:20:21,083739
1,6,5,0,0,0,-1,0,2021-08-05 17:20:21,083739
-5,-11,-24,-10,-3,1,-1,-3,2021-08-05 17:20:21,099783
-2,6,3,-4,-2,-3,-2,-4,2021-08-05 17:20:21,099783
1,21,9,3,2,1,0,0,2021-08-05 17:20:21,099783
-2,-18,-3,0,-1,-2,-1,-3,2021-08-05 17:20:21,099783
4,-3,14,0,-1,0,0,0,2021-08-05 17:20:21,131504
-2,-9,-27,-5,-1,1,0,0,2021-08-05 17:20:21,131717
0,1,0,-3,-3,0,1,2,2021-08-05 17:20:21,131824
-2,15,18,4,-4,-1,-1,-1,2021-08-05 17:20:21,131824
-2,-12,-1,-3,2,3,1,-1,2021-08-05 17:20:21,132087
-1,33,5,0,0,-2,1,2,2021-08-05 17:20:21,132087
0,-28,-5,0,-1,-1,0,-3,2021-08-05 17:20:21,146747
4,6,-4,1,2,1,2,4,2021-08-05 17:20:21,146747
2,-2,8,-1,-2,-5,-2,-2,2021-08-05 17:20:21,162880
-1,-1,-4,-5,-2,-3,-3,-4,2021-08-05 17:20:21,162880
1,2,-10,-3,2,1,1,1,2021-08-05 17:20:21,162880
-4,-6,3,0,-1,0,-1,-2,2021-08-05 17:20:21,162880
-1,8,4,2,-1,-2,0,1,2021-08-05 17:20:21,193809
6,-4,8,8,4,3,3,6,2021-08-05 17:20:21,200120
-7,-4,-4,-3,-6,-4,-3,-4,2021-08-05 17:20:21,200120
-4,-15,-19,-12,-4,-3,-3,-4,2021-08-05 17:20:21,209907
1,6,9,6,2,0,2,3,2021-08-05 17:20:21,209907
-1,5,16,-2,-2,-4,-3,-3,2021-08-05 17:20:21,209907
8,-1,-19,-1,6,7,6,9,2021-08-05 17:20:21,209907
0,-5,3,0,0,-1,0,-1,2021-08-05 17:20:21,209907
-4,-4,-3,1,-2,-3,-3,-5,2021-08-05 17:20:21,225748
-2,-1,8,1,-2,0,-2,2,2021-08-05 17:20:21,240937
-4,9,11,4,1,-1,-2,-3,2021-08-05 17:20:21,240937
-2,-5,-21,-1,1,0,1,1,2021-08-05 17:20:21,240937
3,-25,-9,-7,-2,-2,0,0,2021-08-05 17:20:21,240937
1,-22,-1,-2,-3,-1,-2,-3,2021-08-05 17:20:21,240937
-2,16,7,-3,-3,-4,-4,-3,2021-08-05 17:20:21,240937
-5,-14,5,0,-1,-2,-1,-3,2021-08-05 17:20:21,240937
-5,-4,-2,3,1,-2,-1,-2,2021-08-05 17:20:21,256899
4,9,-3,2,3,3,4,7,2021-08-05 17:20:21,257026
0,-10,1,-6,-5,-3,-1,-2,2021-08-05 17:20:21,271747
-1,4,0,0,3,2,1,1,2021-08-05 17:20:21,286861
0,-1,-8,5,2,2,0,2,2021-08-05 17:20:21,302813
-4,-6,-4,-10,-6,-5,-5,-10,2021-08-05 17:20:21,303019
1,10,-5,1,1,1,-1,-1,2021-08-05 17:20:21,303019
3,3,-5,-2,-3,-3,-1,2,2021-08-05 17:20:21,303019
3,9,8,-1,0,0,-1,0,2021-08-05 17:20:21,318805
-6,-5,-5,2,-2,1,-1,-2,2021-08-05 17:20:21,334897
-1,0,14,9,2,-1,0,0,2021-08-05 17:20:21,350840
0,24,11,2,1,0,0,-1,2021-08-05 17:20:21,365845
-2,-16,-17,-11,-5,-2,-4,-2,2021-08-05 17:20:21,396868
-6,-12,-11,-6,1,0,-1,-2,2021-08-05 17:20:21,412953
2,4,6,-2,-2,-2,0,1,2021-08-05 17:20:21,428939
-2,-2,-3,2,-2,0,-2,-2,2021-08-05 17:20:21,444869
2,24,18,9,2,2,1,2,2021-08-05 17:20:21,444994
2,-4,-6,-1,0,-1,0,-2,2021-08-05 17:20:21,444994
-4,-2,-20,-9,-2,-1,-4,-2,2021-08-05 17:20:21,444994
-4,-19,4,1,-3,-4,-4,-4,2021-08-05 17:20:21,444994
3,3,-6,-5,1,3,3,3,2021-08-05 17:20:21,444994
-2,-2,-3,-4,-2,-3,-4,-2,2021-08-05 17:20:21,444994
2,0,9,6,4,1,1,5,2021-08-05 17:20:21,444994
3,10,2,5,1,0,2,1,2021-08-05 17:20:21,444994
-2,-7,-8,-6,-5,-1,0,-3,2021-08-05 17:20:21,445870
-3,5,4,-1,-2,-2,-2,-1,2021-08-05 17:20:21,445870
-2,-5,-4,-1,-2,-1,-1,-3,2021-08-05 17:20:21,445870
-2,-3,-5,-2,-2,-3,-1,-1,2021-08-05 17:20:21,445870
-4,-8,-1,1,-2,1,-2,-1,2021-08-05 17:20:21,445870
3,10,2,2,0,0,1,3,2021-08-05 17:20:21,445870
-4,-10,0,-4,-3,-4,-4,-7,2021-08-05 17:20:21,445870
-3,5,1,-3,-2,-1,-2,-3,2021-08-05 17:20:21,445870
-1,-4,2,3,3,0,-2,1,2021-08-05 17:20:21,445870
1,9,2,1,-1,0,0,2,2021-08-05 17:20:21,446871
-1,-4,-2,-2,-3,-3,-1,-3,2021-08-05 17:20:21,446871
1,-1,-3,-7,-3,-2,-1,-2,2021-08-05 17:20:21,446871
-4,-2,-4,-2,-3,-3,-2,-3,2021-08-05 17:20:21,446871
-4,-3,1,3,-1,-2,-1,-2,2021-08-05 17:20:21,446871
0,-7,-8,-1,2,1,2,2,2021-08-05 17:20:21,446871
2,0,5,-3,-2,2,0,-1,2021-08-05 17:20:21,446871
-6,-5,-5,0,-4,-3,-3,-3,2021-08-05 17:20:21,460869
3,9,6,0,-2,1,1,-1,2021-08-05 17:20:21,461141
-2,-7,-3,0,0,-2,-1,-2,2021-08-05 17:20:21,475869
1,-2,-7,-8,1,1,0,3,2021-08-05 17:20:21,490969
-2,0,3,2,0,-2,0,-2,2021-08-05 17:20:21,491168
0,-5,0,3,1,0,0,-1,2021-08-05 17:20:21,491313
0,4,-4,-3,-2,0,-2,-2,2021-08-05 17:20:21,491463
-4,0,0,-1,-4,-3,-2,-4,2021-08-05 17:20:21,491630
2,-3,5,2,0,2,2,2,2021-08-05 17:20:21,491749
-3,2,7,0,-1,-1,-1,-2,2021-08-05 17:20:21,491870
-1,-7,-13,-1,0,-1,-1,-1,2021-08-05 17:20:21,506948
-3,-1,-4,-4,-3,-1,-4,-3,2021-08-05 17:20:21,522943
3,5,-8,-4,0,0,-2,-2,2021-08-05 17:20:21,522943
-1,-4,-3,1,1,-1,1,2,2021-08-05 17:20:21,522943
2,2,9,5,0,-1,1,3,2021-08-05 17:20:21,522943
-2,-2,5,5,1,3,2,1,2021-08-05 17:20:21,522943
1,-1,-7,-7,-5,-7,-6,-5,2021-08-05 17:20:21,553970
0,-3,-6,-2,1,3,1,-1,2021-08-05 17:20:21,554174
-3,0,-2,-3,-2,2,1,-2,2021-08-05 17:20:21,554269
-2,-5,5,2,-2,-2,-1,0,2021-08-05 17:20:21,554371
-3,-3,8,6,1,0,0,-1,2021-08-05 17:20:21,554499
-1,1,-9,-8,-5,-6,-4,-3,2021-08-05 17:20:21,554620
3,5,-4,-8,-2,-2,1,4,2021-08-05 17:20:21,569868
1,-4,0,3,3,1,-1,1,2021-08-05 17:20:21,585906
4,9,13,9,3,1,0,0,2021-08-05 17:20:21,601912
-5,-12,-4,-8,-2,-2,-3,-6,2021-08-05 17:20:21,601912
-5,-8,-24,-8,-6,-1,-4,-5,2021-08-05 17:20:21,601912
4,6,5,-1,1,1,1,3,2021-08-05 17:20:21,601912
2,-1,0,-1,0,-2,0,2,2021-08-05 17:20:21,601912
0,5,4,6,-2,0,-2,0,2021-08-05 17:20:21,601912
-4,-8,7,3,-1,-3,-2,-3,2021-08-05 17:20:21,601912
1,14,1,-2,-1,-1,0,-1,2021-08-05 17:20:21,601912
1,-9,-7,5,0,1,0,-1,2021-08-05 17:20:21,633972
3,-1,-9,-7,0,-2,-1,-1,2021-08-05 17:20:21,633972
-1,-2,1,-6,-5,-2,0,-1,2021-08-05 17:20:21,634283
-3,-7,-2,3,-1,-1,-1,0,2021-08-05 17:20:21,634364
-6,-6,8,0,0,2,0,0,2021-08-05 17:20:21,634482
1,9,10,12,1,1,1,2,2021-08-05 17:20:21,634570
2,-1,2,0,-1,1,-2,-1,2021-08-05 17:20:21,649995
2,4,-15,-9,0,0,1,-2,2021-08-05 17:20:21,665982
-4,-3,-11,-12,-6,-3,-4,-7,2021-08-05 17:20:21,681914
-1,-6,1,0,0,-1,1,1,2021-08-05 17:20:21,697988
-3,0,10,6,2,-1,-2,1,2021-08-05 17:20:21,697988
0,-1,10,11,2,1,-1,3,2021-08-05 17:20:21,714036
-2,-6,-8,-6,0,-2,-1,-2,2021-08-05 17:20:21,729131
-2,9,0,-3,-1,1,-1,-4,2021-08-05 17:20:21,744915
-1,-4,-7,-5,-1,1,-1,-2,2021-08-05 17:20:21,745113
-2,2,0,-1,0,-1,0,-1,2021-08-05 17:20:21,745182
0,-6,-9,-2,-1,-1,-1,0,2021-08-05 17:20:21,745237
-1,-3,2,3,0,1,-2,-1,2021-08-05 17:20:21,745292
1,9,10,6,1,0,0,2,2021-08-05 17:20:21,745385
-6,-2,11,7,-2,-4,-4,-5,2021-08-05 17:20:21,745385
3,4,-12,-7,0,-1,1,1,2021-08-05 17:20:21,745475
-2,-9,-12,-16,-6,-3,-3,-3,2021-08-05 17:20:21,745550
-1,-12,-2,1,2,1,-1,1,2021-08-05 17:20:21,745611
-5,2,9,0,-2,-2,-1,-1,2021-08-05 17:20:21,745679
8,27,12,15,3,1,3,3,2021-08-05 17:20:21,745775
-2,1,-5,-10,-4,-3,-2,-3,2021-08-05 17:20:21,745913
-6,-16,-9,-3,-2,-4,-3,-6,2021-08-05 17:20:21,745913
-1,2,1,0,-1,-1,0,-1,2021-08-05 17:20:21,745913
1,-6,16,6,1,2,2,3,2021-08-05 17:20:21,760957
-1,0,-15,-9,-1,0,0,3,2021-08-05 17:20:21,760957
-4,-4,-3,0,-1,-2,-1,-3,2021-08-05 17:20:21,760957
-6,-12,-11,-3,-1,-1,-2,-6,2021-08-05 17:20:21,760957
-4,3,-3,-6,-1,1,1,-2,2021-08-05 17:20:21,790941
3,-2,6,9,1,0,-2,-2,2021-08-05 17:20:21,791166
0,7,7,3,-3,-3,-3,0,2021-08-05 17:20:21,791166
3,-4,-8,-6,-3,-3,-3,0,2021-08-05 17:20:21,791166
-2,-3,-6,-13,-7,-4,-5,-4,2021-08-05 17:20:21,805955
1,0,8,8,1,1,3,2,2021-08-05 17:20:21,806174
0,2,-8,-2,-2,0,2,1,2021-08-05 17:20:21,806228
2,3,-5,-5,0,0,3,3,2021-08-05 17:20:21,806324
-4,-6,1,-1,-1,-1,-1,-3,2021-08-05 17:20:21,821986
-3,-4,2,3,2,0,0,-2,2021-08-05 17:20:21,821986
3,7,10,5,1,-1,-1,-1,2021-08-05 17:20:21,821986
-1,-1,6,1,0,0,-2,-1,2021-08-05 17:20:21,821986
-5,-8,-18,-12,-3,0,-1,2,2021-08-05 17:20:21,853912
-2,-2,-6,0,-1,0,-1,0,2021-08-05 17:20:21,855724
0,5,3,1,-1,1,1,-1,2021-08-05 17:20:21,855724
2,-15,-1,-1,-3,-2,-3,-4,2021-08-05 17:20:21,855724
-1,8,9,5,3,1,1,4,2021-08-05 17:20:21,869912
-2,3,7,7,1,-2,-2,-1,2021-08-05 17:20:21,870219
6,7,-7,-11,0,2,3,4,2021-08-05 17:20:21,870219
-1,-4,-12,-9,-2,-2,-1,-1,2021-08-05 17:20:21,870219
-1,-7,-4,2,-1,-1,-2,-1,2021-08-05 17:20:21,885997
-3,-7,2,3,-2,0,-1,-1,2021-08-05 17:20:21,885997
0,6,9,7,2,-3,-1,0,2021-08-05 17:20:21,885997
-1,5,-6,-8,-1,-1,-1,-3,2021-08-05 17:20:21,885997
0,-6,-9,-2,0,1,2,-1,2021-08-05 17:20:21,902004
-6,-1,-6,-7,-3,-4,-1,-4,2021-08-05 17:20:21,902163
-2,-3,4,3,0,-1,0,-3,2021-08-05 17:20:21,902258
1,2,3,4,2,2,1,0,2021-08-05 17:20:21,902344
-2,-3,8,3,-1,-3,-2,-4,2021-08-05 17:20:21,933002
1,-3,2,0,-2,1,-2,0,2021-08-05 17:20:21,948044
-4,0,-12,-9,-4,-1,-2,-1,2021-08-05 17:20:21,948209
1,0,-4,0,2,0,1,2,2021-08-05 17:20:21,948209
-1,-1,3,-2,-1,-2,-2,-4,2021-08-05 17:20:21,948209
2,1,8,9,0,0,-2,1,2021-08-05 17:20:21,948209
-4,0,-7,-4,-1,-2,-2,-3,2021-08-05 17:20:21,948209
-4,-3,-15,-15,-4,1,0,-4,2021-08-05 17:20:21,948209
-1,-5,0,1,-2,-1,0,1,2021-08-05 17:20:21,964103
1,2,-1,-1,-2,-3,-1,0,2021-08-05 17:20:21,980002
3,2,11,9,2,3,3,5,2021-08-05 17:20:21,995762
0,1,5,7,2,-1,0,2,2021-08-05 17:20:21,995873
-5,-10,-2,-4,-1,-2,-2,-3,2021-08-05 17:20:21,995991
-3,-18,-2,1,0,1,0,1,2021-08-05 17:20:21,996094
2,9,-8,-10,-4,0,-2,-1,2021-08-05 17:20:21,996164
-1,18,6,3,-1,-1,-2,-3,2021-08-05 17:20:21,996282
-2,-17,8,5,0,0,0,0,2021-08-05 17:20:21,996448
2,19,-5,-2,-1,-3,0,1,2021-08-05 17:20:21,996588
-4,-12,-21,-14,-4,0,-3,-6,2021-08-05 17:20:22,010694
3,-3,5,3,3,2,1,8,2021-08-05 17:20:22,010834
-1,4,0,-1,-2,-1,0,-3,2021-08-05 17:20:22,025587
-2,0,16,10,2,-1,0,1,2021-08-05 17:20:22,025587
-4,-4,-5,-7,-2,-2,-4,-5,2021-08-05 17:20:22,025587
-2,-6,-14,-7,-3,-3,-3,-4,2021-08-05 17:20:22,025587
0,5,3,3,0,1,0,0,2021-08-05 17:20:22,056587
2,-4,-4,-7,-1,-1,-1,-1,2021-08-05 17:20:22,072683
1,2,10,9,1,-1,-1,-1,2021-08-05 17:20:22,072683
-1,-5,11,9,0,-2,0,-1,2021-08-05 17:20:22,072683
1,7,-7,-3,-1,0,0,-1,2021-08-05 17:20:22,072683
0,-6,-13,-3,1,1,2,-2,2021-08-05 17:20:22,072683
0,-17,2,0,0,0,-1,1,2021-08-05 17:20:22,088587
3,33,5,4,0,-1,1,3,2021-08-05 17:20:22,104587
3,3,-10,-5,-1,-1,0,1,2021-08-05 17:20:22,119587
-4,-3,-6,-2,-1,-2,-3,-4,2021-08-05 17:20:22,135587
0,-4,6,5,3,1,2,2,2021-08-05 17:20:22,150588
-1,-10,2,4,-1,-1,-2,0,2021-08-05 17:20:22,150588
1,7,8,4,-1,-1,-2,2,2021-08-05 17:20:22,150588
-2,-3,-23,-28,-9,-3,-3,-4,2021-08-05 17:20:22,150588
-2,-11,-1,3,-3,-1,-1,0,2021-08-05 17:20:22,150588
-1,2,3,-1,-2,-2,-2,-3,2021-08-05 17:20:22,150588
-1,0,-1,4,2,1,0,0,2021-08-05 17:20:22,150588
0,5,9,6,0,-2,0,-3,2021-08-05 17:20:22,150588
-4,-7,-21,-11,-5,-1,-1,-5,2021-08-05 17:20:22,151588
-2,-6,-3,-4,-1,-2,-1,-2,2021-08-05 17:20:22,151588
-4,-4,1,1,-1,-1,-2,-5,2021-08-05 17:20:22,151588
0,1,11,8,2,2,3,2,2021-08-05 17:20:22,151588
-2,5,1,7,-1,-3,-1,-1,2021-08-05 17:20:22,152035
-2,-4,-11,-15,-3,-1,-3,-2,2021-08-05 17:20:22,152035
4,-1,-8,-9,-2,1,1,4,2021-08-05 17:20:22,166588
1,-2,0,1,0,2,-2,-1,2021-08-05 17:20:22,182110
-1,-2,8,3,-2,-1,-1,-2,2021-08-05 17:20:22,182110
-2,5,3,7,-1,-2,-1,0,2021-08-05 17:20:22,182300
-6,-3,-6,-6,-4,-3,-2,-7,2021-08-05 17:20:22,182300
-1,-4,-6,-4,1,-2,-2,-3,2021-08-05 17:20:22,182588
3,4,3,3,3,4,2,6,2021-08-05 17:20:22,182588
-6,-11,0,0,-2,-3,-4,-5,2021-08-05 17:20:22,182588
3,6,7,4,-1,0,2,4,2021-08-05 17:20:22,213590
-1,2,2,0,-3,-1,-3,-4,2021-08-05 17:20:22,229587
-3,-1,-18,-10,-4,-2,-2,-4,2021-08-05 17:20:22,244588
2,-5,-2,0,0,1,2,1,2021-08-05 17:20:22,244588
-1,2,4,3,-1,-2,-2,-2,2021-08-05 17:20:22,244588
0,-3,14,5,-2,-3,-2,2,2021-08-05 17:20:22,244588
2,6,-7,-1,1,2,1,-1,2021-08-05 17:20:22,244588
-1,-8,-12,-10,-1,1,1,1,2021-08-05 17:20:22,244588
-2,-5,-10,-2,0,-3,-1,-2,2021-08-05 17:20:22,244588
1,4,6,2,3,0,2,5,2021-08-05 17:20:22,245588
1,7,24,14,1,-2,-2,-3,2021-08-05 17:20:22,259733
1,-1,-4,1,0,1,0,-3,2021-08-05 17:20:22,259733
-3,-5,-14,-18,-3,0,-2,-2,2021-08-05 17:20:22,259733
-1,-1,0,3,-3,-1,-3,-1,2021-08-05 17:20:22,259733
-2,3,4,-3,-1,-3,0,-1,2021-08-05 17:20:22,259733
-1,-5,0,2,-3,1,-2,-1,2021-08-05 17:20:22,260360
1,-3,0,3,1,-1,0,0,2021-08-05 17:20:22,289588
1,-1,-15,-6,1,1,2,1,2021-08-05 17:20:22,305719
-6,0,9,2,1,-4,-5,-4,2021-08-05 17:20:22,321749
2,-2,5,5,2,0,1,2,2021-08-05 17:20:22,321919
1,0,-5,4,-1,0,0,0,2021-08-05 17:20:22,322035
1,4,24,20,0,-1,1,2,2021-08-05 17:20:22,322191
1,8,10,0,3,-1,-2,-2,2021-08-05 17:20:22,322389
-7,-26,-71,-59,-15,-1,-1,-6,2021-08-05 17:20:22,322496
-6,2,8,2,-2,-2,-4,-4,2021-08-05 17:20:22,322588
-1,-5,-9,-3,0,1,2,-1,2021-08-05 17:20:22,322588
3,7,24,19,1,1,0,4,2021-08-05 17:20:22,322588
0,8,24,16,2,-1,-1,-1,2021-08-05 17:20:22,322588
-4,-2,-14,-11,-5,-4,-4,-6,2021-08-05 17:20:22,352667
4,1,7,10,4,2,3,5,2021-08-05 17:20:22,367732
-1,-6,-21,-17,-4,1,1,-1,2021-08-05 17:20:22,367813
-5,-5,2,1,-2,-3,-4,-6,2021-08-05 17:20:22,368031
2,-3,1,0,0,0,2,4,2021-08-05 17:20:22,368160
6,8,34,22,4,-1,1,6,2021-08-05 17:20:22,368279
-3,-1,-13,-14,-4,-3,-3,-6,2021-08-05 17:20:22,368279
-2,-8,-32,-6,2,1,0,1,2021-08-05 17:20:22,368538
-2,-1,2,-7,-1,-3,-3,-4,2021-08-05 17:20:22,382622
-2,1,-10,-9,-1,2,0,-2,2021-08-05 17:20:22,382622
-1,1,4,6,-1,-2,-1,2,2021-08-05 17:20:22,397738
5,13,40,23,4,0,3,5,2021-08-05 17:20:22,412587
-6,-7,-22,-15,-4,0,-2,-3,2021-08-05 17:20:22,428742
-6,-13,-22,-17,-6,-3,-5,-5,2021-08-05 17:20:22,443587
3,0,4,4,0,2,3,2,2021-08-05 17:20:22,458707
4,15,59,36,8,-2,3,3,2021-08-05 17:20:22,458707
-4,-8,-50,-32,-11,-1,-1,-3,2021-08-05 17:20:22,458707
-4,-9,-26,-21,-4,-1,-4,-5,2021-08-05 17:20:22,458707
1,-4,-4,-2,2,0,-1,0,2021-08-05 17:20:22,458707
2,4,13,5,0,-1,0,2,2021-08-05 17:20:22,458707
3,8,35,28,5,-3,3,3,2021-08-05 17:20:22,458707
-8,-2,-17,-15,-6,-5,-4,-10,2021-08-05 17:20:22,458707
3,-2,-4,-3,1,4,3,3,2021-08-05 17:20:22,459588
-3,-1,-4,-8,-2,0,-4,-4,2021-08-05 17:20:22,459588
1,5,20,8,4,0,-1,2,2021-08-05 17:20:22,459588
0,-8,-26,-10,-2,1,1,-2,2021-08-05 17:20:22,459588
-3,0,3,1,-1,-2,-3,-1,2021-08-05 17:20:22,474667
-4,-1,1,-3,-4,-3,-5,-4,2021-08-05 17:20:22,474667
3,-2,-3,9,4,3,3,5,2021-08-05 17:20:22,490630
-3,-3,1,-11,-2,-2,-2,-4,2021-08-05 17:20:22,490630
-2,0,3,2,-3,-1,-1,-2,2021-08-05 17:20:22,490630
0,-1,10,9,1,-1,1,0,2021-08-05 17:20:22,490630
-1,-2,-21,-12,-3,0,-1,-5,2021-08-05 17:20:22,506782
1,2,4,3,2,0,-1,2,2021-08-05 17:20:22,506782
-2,-6,6,-2,-2,-2,-1,1,2021-08-05 17:20:22,506782
-1,0,-7,-7,-2,-1,-3,-4,2021-08-05 17:20:22,506782
-1,3,13,15,2,0,-2,-2,2021-08-05 17:20:22,537615
3,1,-9,-10,1,0,2,2,2021-08-05 17:20:22,537615
0,-8,-15,-14,-3,-3,-3,-4,2021-08-05 17:20:22,538029
-2,-1,-4,5,1,0,1,3,2021-08-05 17:20:22,538029
0,1,18,3,2,-1,-1,-1,2021-08-05 17:20:22,553787
1,11,37,22,0,-3,-1,2,2021-08-05 17:20:22,553787
0,-2,-31,-15,-4,0,0,-2,2021-08-05 17:20:22,553787
1,-14,-34,-17,0,0,3,2,2021-08-05 17:20:22,553787
-4,-6,3,0,0,-2,-1,-1,2021-08-05 17:20:22,569587
-3,3,13,13,3,1,0,2,2021-08-05 17:20:22,569803
-1,3,17,16,5,-2,0,-2,2021-08-05 17:20:22,569884
-5,-2,-15,-15,-7,-5,-6,-10,2021-08-05 17:20:22,569884
3,2,-4,-5,-4,-3,-4,-1,2021-08-05 17:20:22,599718
4,1,7,1,-3,-2,-1,1,2021-08-05 17:20:22,615651
0,3,7,6,-1,-2,-1,3,2021-08-05 17:20:22,646755
-2,-7,-24,-11,0,1,0,1,2021-08-05 17:20:22,662652
-2,1,21,14,1,-2,0,-1,2021-08-05 17:20:22,662652
-5,-8,-22,-20,-7,-3,-3,-6,2021-08-05 17:20:22,662882
2,-1,-3,1,1,1,1,4,2021-08-05 17:20:22,662900
2,6,12,12,2,0,0,-1,2021-08-05 17:20:22,662900
1,0,16,-1,0,0,-1,0,2021-08-05 17:20:22,663063
-6,-9,-29,-13,-4,0,-3,-6,2021-08-05 17:20:22,663063
0,4,-5,-6,-2,0,1,0,2021-08-05 17:20:22,663063
0,2,11,5,-1,-2,-2,0,2021-08-05 17:20:22,663236
2,3,12,11,1,0,-1,0,2021-08-05 17:20:22,663334
1,-4,-2,1,1,-2,1,2,2021-08-05 17:20:22,663508
-3,4,12,-6,-3,-2,-4,-5,2021-08-05 17:20:22,663608
-6,-27,-75,-43,-11,0,-1,-4,2021-08-05 17:20:22,663608
0,1,7,1,-1,-2,-2,-1,2021-08-05 17:20:22,663608
2,2,6,8,1,1,1,1,2021-08-05 17:20:22,663608
-3,1,22,19,1,-1,-1,2,2021-08-05 17:20:22,678641
-1,3,29,10,-1,-2,-2,-2,2021-08-05 17:20:22,678908
1,-3,-30,-16,-1,2,3,-2,2021-08-05 17:20:22,678908
0,-5,0,3,-3,-1,-1,0,2021-08-05 17:20:22,678908
-2,-6,-10,-3,-1,-4,-1,-4,2021-08-05 17:20:22,710587
0,6,17,8,2,-2,-2,-2,2021-08-05 17:20:22,725587
-1,-1,-2,2,1,0,-1,2,2021-08-05 17:20:22,740668
1,5,13,8,1,1,0,2,2021-08-05 17:20:22,756587
-5,-7,-20,-11,-3,-2,-2,-4,2021-08-05 17:20:22,756815
-2,0,3,6,1,-1,-1,-3,2021-08-05 17:20:22,771715
0,-1,-5,-11,-2,1,-1,2,2021-08-05 17:20:22,786680
-3,-7,-6,-4,-2,-2,-1,-4,2021-08-05 17:20:22,786784
3,3,13,7,1,0,0,2,2021-08-05 17:20:22,786784
-4,-7,-14,-18,-6,-1,-3,-5,2021-08-05 17:20:22,786784
5,9,17,14,2,1,2,8,2021-08-05 17:20:22,786784
4,5,7,5,3,2,1,4,2021-08-05 17:20:22,786784
-6,-8,-17,-3,-3,0,-3,-7,2021-08-05 17:20:22,786784
-1,-1,-11,-19,-3,-1,0,2,2021-08-05 17:20:22,786784
-4,-4,-2,3,-3,-3,-3,-6,2021-08-05 17:20:22,786784
-2,-4,-8,-14,-5,-2,-2,-2,2021-08-05 17:20:22,786784
3,10,18,12,5,2,3,6,2021-08-05 17:20:22,786784
1,3,0,4,-2,-1,-2,1,2021-08-05 17:20:22,787811
-2,-5,-1,0,-2,-2,1,-1,2021-08-05 17:20:22,787811
0,7,13,9,0,-4,-2,-1,2021-08-05 17:20:22,787811
-5,-7,-23,-19,-6,-2,-3,-6,2021-08-05 17:20:22,802732
0,-2,6,6,2,-1,0,2,2021-08-05 17:20:22,818686
-7,-10,-23,-17,-5,-1,0,-3,2021-08-05 17:20:22,818686
-4,-1,10,6,0,-2,-3,-6,2021-08-05 17:20:22,818686
3,1,4,-3,-1,-1,0,1,2021-08-05 17:20:22,818686
-1,5,13,12,1,-2,-1,-1,2021-08-05 17:20:22,818686
-1,-5,-6,-5,-1,-1,-1,-1,2021-08-05 17:20:22,833686
-5,-4,-10,-1,1,-1,-3,-3,2021-08-05 17:20:22,833977
-2,-7,-16,-17,-5,-1,-1,-1,2021-08-05 17:20:22,834090
1,1,7,2,1,2,1,1,2021-08-05 17:20:22,834119
1,4,20,15,2,0,-2,0,2021-08-05 17:20:22,849831
0,-1,-19,-17,-4,0,-1,-4,2021-08-05 17:20:22,864625
-1,-11,-15,-8,-3,-3,0,0,2021-08-05 17:20:22,879811
3,7,26,17,3,1,2,3,2021-08-05 17:20:22,879811
-3,4,-13,-12,-2,-3,-4,-4,2021-08-05 17:20:22,879811
3,-9,-9,6,3,4,5,7,2021-08-05 17:20:22,879811
1,1,14,8,0,-3,-3,-2,2021-08-05 17:20:22,879811
-2,-5,-14,-9,1,1,0,-4,2021-08-05 17:20:22,879811
5,3,12,10,1,1,1,4,2021-08-05 17:20:22,895062
-2,2,2,-1,-2,-3,-1,-1,2021-08-05 17:20:22,911131
-2,1,-8,-3,1,-1,0,-2,2021-08-05 17:20:22,927130
-1,-1,13,12,0,0,-1,1,2021-08-05 17:20:22,927130
-2,1,4,-3,-5,-4,-3,0,2021-08-05 17:20:22,927130
-4,-5,-26,-10,-3,0,-1,-4,2021-08-05 17:20:22,927130
0,-4,-1,-7,-1,0,0,1,2021-08-05 17:20:22,927130
-2,3,8,4,-1,-2,-2,0,2021-08-05 17:20:22,927130
-1,3,5,1,0,-1,1,-1,2021-08-05 17:20:22,927130
-5,-6,-16,-9,-7,-5,-5,-6,2021-08-05 17:20:22,927130
4,6,12,10,5,4,3,5,2021-08-05 17:20:22,927130
2,0,-7,-5,-2,1,1,1,2021-08-05 17:20:22,927130
-3,-5,-2,0,1,1,-1,-1,2021-08-05 17:20:22,957063
0,6,17,5,2,-1,-2,0,2021-08-05 17:20:22,973062
-2,-4,-7,-2,0,0,-1,-2,2021-08-05 17:20:22,989112
-1,-4,-8,-9,-4,-4,-3,-5,2021-08-05 17:20:22,989349
2,0,-3,0,0,1,2,1,2021-08-05 17:20:22,989469
-2,0,8,1,1,-2,0,-2,2021-08-05 17:20:22,989469
0,2,-1,1,-2,0,0,1,2021-08-05 17:20:22,989469
-3,-4,-5,-2,-1,-1,-3,-4,2021-08-05 17:20:22,989469
0,0,-2,0,-1,-2,-1,-1,2021-08-05 17:20:22,989469
-1,1,-2,-3,0,-1,0,1,2021-08-05 17:20:22,989469
-3,-2,1,-1,-3,-5,-4,-5,2021-08-05 17:20:22,990063
-4,-1,0,-3,-4,-2,-1,0,2021-08-05 17:20:22,990063
6,-2,-2,6,4,1,3,1,2021-08-05 17:20:23,005062
3,3,2,-2,2,2,1,5,2021-08-05 17:20:23,021149
-5,-4,-2,-2,-4,-2,-1,-1,2021-08-05 17:20:23,036286
0,-2,-3,-4,0,0,-1,-2,2021-08-05 17:20:23,036488
1,2,0,-1,-2,2,1,4,2021-08-05 17:20:23,036770
0,-1,6,5,-2,-3,-1,-2,2021-08-05 17:20:23,036770
-1,0,3,2,0,-1,-2,-2,2021-08-05 17:20:23,036770
-2,0,-6,-5,-1,-2,-1,0,2021-08-05 17:20:23,037063
-4,-4,-4,-3,0,0,-2,-3,2021-08-05 17:20:23,052107
-1,-3,-1,-1,-3,-3,-2,-3,2021-08-05 17:20:23,052173
0,1,-4,-2,1,1,1,1,2021-08-05 17:20:23,052173
1,-2,2,7,1,0,1,1,2021-08-05 17:20:23,052173
-3,-5,-7,-10,-4,-3,-3,-5,2021-08-05 17:20:23,068155
-5,-1,2,5,-1,-3,-1,-2,2021-08-05 17:20:23,083556
2,1,1,-5,-1,1,1,-1,2021-08-05 17:20:23,083855
1,0,-1,-1,-2,1,-1,0,2021-08-05 17:20:23,083855
-2,-5,-10,-5,-1,-2,0,-1,2021-08-05 17:20:23,084063
0,4,9,2,0,0,-2,-1,2021-08-05 17:20:23,084063
-2,-9,-5,2,1,1,1,1,2021-08-05 17:20:23,084063
3,9,-6,-1,-2,-2,1,0,2021-08-05 17:20:23,084063
-4,2,-3,-1,-3,-1,-2,-1,2021-08-05 17:20:23,115160
-2,-5,-4,-4,-2,-1,-1,-3,2021-08-05 17:20:23,131168
0,-2,6,3,1,-2,-1,-1,2021-08-05 17:20:23,131381
-3,-4,-1,0,1,-1,-1,-2,2021-08-05 17:20:23,131607
0,-4,1,1,0,-1,-3,0,2021-08-05 17:20:23,131735
-2,6,2,2,1,1,2,1,2021-08-05 17:20:23,131845
-6,-12,-5,-4,-8,-2,-4,-5,2021-08-05 17:20:23,132012
2,11,-1,1,0,0,-1,1,2021-08-05 17:20:23,132161
-1,1,-3,-1,0,-1,-1,1,2021-08-05 17:20:23,161261
1,-1,1,1,2,0,0,-1,2021-08-05 17:20:23,161261
0,-1,-7,-3,0,-2,-1,-2,2021-08-05 17:20:23,161261
-3,-2,2,1,-2,0,-2,-1,2021-08-05 17:20:23,161261
-4,-10,-2,-1,-2,-1,-3,-4,2021-08-05 17:20:23,161261
5,0,-3,-4,-1,1,1,5,2021-08-05 17:20:23,161769
2,9,5,5,-1,0,2,1,2021-08-05 17:20:23,173062
-4,-7,-4,-7,-3,-2,-1,-1,2021-08-05 17:20:23,173062
-2,0,1,-1,0,-1,-2,-2,2021-08-05 17:20:23,192062
-1,-3,-4,-1,-1,0,-1,0,2021-08-05 17:20:23,207167
0,4,-2,-1,1,-1,-1,-1,2021-08-05 17:20:23,223062
1,-2,5,2,2,0,0,2,2021-08-05 17:20:23,223062
-1,-2,0,-2,-3,-4,-2,-4,2021-08-05 17:20:23,223062
2,3,-3,-3,-1,-2,1,0,2021-08-05 17:20:23,223062
-1,0,-1,1,1,-1,0,0,2021-08-05 17:20:23,223704
-3,-2,-8,-5,0,-2,-1,-5,2021-08-05 17:20:23,223792
-4,-4,-4,-5,-3,-2,-3,-5,2021-08-05 17:20:23,223792
-1,3,2,3,0,1,1,2,2021-08-05 17:20:23,223984
1,1,2,1,-1,0,-1,-3,2021-08-05 17:20:23,239167
-3,-7,-2,0,-2,0,-1,-1,2021-08-05 17:20:23,254189
-1,2,1,2,-2,0,0,-1,2021-08-05 17:20:23,270139
-3,-3,-4,-6,-2,-2,-2,-5,2021-08-05 17:20:23,286062
-2,2,-2,0,2,1,1,3,2021-08-05 17:20:23,302189
-1,0,2,-2,-1,1,0,-2,2021-08-05 17:20:23,302189
-1,-16,-1,-1,-1,-2,2,1,2021-08-05 17:20:23,302189
2,11,5,3,-2,-2,-2,-2,2021-08-05 17:20:23,302189
1,1,-3,-3,0,-1,0,-1,2021-08-05 17:20:23,302189
0,-2,2,-2,-3,-1,-2,-1,2021-08-05 17:20:23,302189
-1,-8,-10,-5,1,0,-1,-2,2021-08-05 17:20:23,302189
0,1,0,1,1,0,0,0,2021-08-05 17:20:23,302189
-1,2,3,0,0,-3,-2,-1,2021-08-05 17:20:23,317185
0,1,4,4,1,-2,-2,-2,2021-08-05 17:20:23,317388
2,4,1,-2,-2,1,3,4,2021-08-05 17:20:23,317508
-2,-5,-3,-3,-1,-1,0,-3,2021-08-05 17:20:23,317667
-2,1,-2,-1,-3,0,-2,1,2021-08-05 17:20:23,317840
-1,-9,-2,2,0,-1,2,1,2021-08-05 17:20:23,317944
-2,9,-2,-1,-1,-1,-2,-3,2021-08-05 17:20:23,348169
-2,-1,0,1,0,-2,-2,-1,2021-08-05 17:20:23,348169
0,-3,1,-2,-2,-1,-2,-2,2021-08-05 17:20:23,348316
-5,-4,0,0,-2,-4,-1,-4,2021-08-05 17:20:23,348477
2,3,-1,1,1,0,0,1,2021-08-05 17:20:23,348655
-3,-2,0,0,-2,0,0,-1,2021-08-05 17:20:23,348772
-1,-6,-8,-8,-3,-1,-3,-4,2021-08-05 17:20:23,348885
1,-13,-1,-1,0,0,0,3,2021-08-05 17:20:23,364062
0,17,4,2,0,1,-1,-2,2021-08-05 17:20:23,364062
-2,-6,-1,0,0,0,-3,-1,2021-08-05 17:20:23,364062
-2,-1,-3,-2,-3,0,-1,0,2021-08-05 17:20:23,364478
4,3,0,0,4,2,5,6,2021-08-05 17:20:23,364478
-4,-8,0,0,-1,0,-2,-4,2021-08-05 17:20:23,396185
-2,-3,2,3,3,1,0,-5,2021-08-05 17:20:23,411182
-3,1,2,3,-3,-1,-4,-5,2021-08-05 17:20:23,411182
-1,6,-1,-4,-5,-5,-7,-4,2021-08-05 17:20:23,411182
2,-15,0,0,-3,-2,-1,2,2021-08-05 17:20:23,411182
3,12,-1,-5,-2,-1,-1,2,2021-08-05 17:20:23,411182
-1,-10,-2,0,-1,-2,0,-1,2021-08-05 17:20:23,411182
1,16,-3,0,-2,0,1,1,2021-08-05 17:20:23,411182
-3,6,-2,-1,2,-2,-1,1,2021-08-05 17:20:23,427095
-2,-7,1,0,-1,-1,-3,-1,2021-08-05 17:20:23,427182
0,2,0,-2,0,1,1,2,2021-08-05 17:20:23,427182
1,-5,-2,0,1,0,1,1,2021-08-05 17:20:23,427182
-2,-2,-1,-2,-1,0,-1,-1,2021-08-05 17:20:23,459063
-2,-3,-4,-1,-1,-1,0,-1,2021-08-05 17:20:23,474062
1,1,2,2,3,1,2,1,2021-08-05 17:20:23,474062
-4,-5,-1,-3,-3,-2,-2,-4,2021-08-05 17:20:23,474062
1,2,-3,-3,-3,-1,-2,-2,2021-08-05 17:20:23,474062
0,-3,0,0,-1,0,-1,0,2021-08-05 17:20:23,474062
0,-1,-2,1,-1,-1,-1,1,2021-08-05 17:20:23,474062
-1,-1,0,0,1,-1,-2,-3,2021-08-05 17:20:23,474062
0,0,1,-2,-1,-1,-2,-1,2021-08-05 17:20:23,503745
2,-3,-3,-2,2,1,0,0,2021-08-05 17:20:23,503745
-3,2,-1,-4,-4,-2,-2,-1,2021-08-05 17:20:23,503745
3,6,4,6,1,3,2,0,2021-08-05 17:20:23,503745
2,0,2,2,-1,1,1,2,2021-08-05 17:20:23,503745
-2,-5,-2,-1,-3,-3,-2,-3,2021-08-05 17:20:23,503745
-2,1,3,2,1,-1,-1,1,2021-08-05 17:20:23,503745
-1,-6,-4,-4,-2,-1,-3,0,2021-08-05 17:20:23,504804
-3,-3,-3,-3,-2,-1,-3,-3,2021-08-05 17:20:23,535838
-2,-15,-4,-2,-3,-1,0,2,2021-08-05 17:20:23,535838
3,15,0,2,1,3,2,2,2021-08-05 17:20:23,535838
-1,0,2,-4,-6,-4,-3,-4,2021-08-05 17:20:23,535838
-2,1,1,1,0,1,0,-3,2021-08-05 17:20:23,551745
-2,-1,-1,-1,0,-1,-1,-1,2021-08-05 17:20:23,566917
-3,-7,1,-2,0,-1,-4,-4,2021-08-05 17:20:23,582745
-4,-19,-11,-4,0,0,1,1,2021-08-05 17:20:23,583026
0,24,-1,-4,-1,-2,0,-2,2021-08-05 17:20:23,583128
0,3,3,1,-1,1,0,2,2021-08-05 17:20:23,583128
-1,-4,-1,0,-2,-1,-1,-2,2021-08-05 17:20:23,597818
1,7,2,2,2,0,-1,-2,2021-08-05 17:20:23,613944
-5,-12,-1,-1,-2,-2,-1,1,2021-08-05 17:20:23,629864
3,1,1,1,-1,0,0,-1,2021-08-05 17:20:23,644946
-1,5,-4,-1,-2,-2,1,-1,2021-08-05 17:20:23,660880
-2,2,-1,1,0,0,-2,-3,2021-08-05 17:20:23,660976
-1,-7,-2,1,-3,-1,-1,-2,2021-08-05 17:20:23,660976
-4,-19,-3,-2,-1,-2,0,-1,2021-08-05 17:20:23,660976
2,9,2,0,-1,-2,-2,-1,2021-08-05 17:20:23,660976
1,-1,0,-1,-1,-1,-2,-4,2021-08-05 17:20:23,660976
-2,0,-5,-3,-1,-2,-3,-4,2021-08-05 17:20:23,660976
1,0,0,0,1,2,0,2,2021-08-05 17:20:23,660976
-1,-3,4,2,0,1,-2,0,2021-08-05 17:20:23,661747
2,5,-4,-4,-1,2,0,3,2021-08-05 17:20:23,661747
-3,-6,-1,-2,-4,-2,-4,-3,2021-08-05 17:20:23,661747
2,4,-4,0,2,1,3,2,2021-08-05 17:20:23,661747
-2,-6,0,0,0,0,0,-2,2021-08-05 17:20:23,661747
-1,6,2,2,-1,-1,-1,-2,2021-08-05 17:20:23,661747
-1,-5,0,0,1,1,0,1,2021-08-05 17:20:23,661747
-4,1,-3,-5,-3,-5,-3,-5,2021-08-05 17:20:23,661747
-2,-4,-4,-4,-2,-1,-2,-3,2021-08-05 17:20:23,676928
2,-1,2,3,2,3,4,3,2021-08-05 17:20:23,676928
1,-3,-7,-4,0,-1,0,-3,2021-08-05 17:20:23,706907
0,5,0,0,-1,-1,-1,-3,2021-08-05 17:20:23,706907
1,-2,0,0,-2,1,0,-1,2021-08-05 17:20:23,706907
-4,-2,-1,-2,-4,-2,-3,-3,2021-08-05 17:20:23,706907
1,0,3,3,-2,-1,-2,1,2021-08-05 17:20:23,706907
0,5,1,-1,1,0,0,1,2021-08-05 17:20:23,706907
-1,-2,-8,-5,-2,-3,-1,-3,2021-08-05 17:20:23,738820
-1,-4,-2,-2,-2,0,-2,-1,2021-08-05 17:20:23,738910
0,0,0,0,-1,-2,0,-1,2021-08-05 17:20:23,738910
1,0,1,1,-1,-3,-1,1,2021-08-05 17:20:23,738910
-1,-4,-2,-2,0,-1,1,-1,2021-08-05 17:20:23,738910
-1,1,4,4,0,0,0,-2,2021-08-05 17:20:23,738910
0,1,-1,-2,-1,0,-2,-2,2021-08-05 17:20:23,754787
-1,-18,-9,-8,-5,-1,-2,1,2021-08-05 17:20:23,754787
-1,13,-2,-1,1,-1,0,-1,2021-08-05 17:20:23,754787
1,2,1,0,0,0,0,0,2021-08-05 17:20:23,755219
-1,-3,1,2,1,-1,1,0,2021-08-05 17:20:23,769745
-3,0,3,1,-3,-3,-4,-2,2021-08-05 17:20:23,769745
-1,-7,-1,0,-1,0,-1,0,2021-08-05 17:20:23,769745
-3,-3,-4,-5,-2,-3,-3,-2,2021-08-05 17:20:23,769745
-2,3,0,1,0,1,2,2,2021-08-05 17:20:23,784745
-3,1,1,-2,0,-1,0,-4,2021-08-05 17:20:23,784745
1,3,1,1,2,0,0,1,2021-08-05 17:20:23,800630
0,0,2,0,0,-1,0,-1,2021-08-05 17:20:23,815682
2,2,0,-2,-2,0,-2,2,2021-08-05 17:20:23,815778
-1,4,-3,0,0,-2,-1,-1,2021-08-05 17:20:23,815778
-4,-9,-2,0,-3,-1,-1,-2,2021-08-05 17:20:23,815778
-3,0,-3,-3,-4,-2,0,-2,2021-08-05 17:20:23,815778
2,3,0,0,-2,-2,-1,-1,2021-08-05 17:20:23,831630
3,7,5,1,-1,0,0,0,2021-08-05 17:20:23,833629
-1,-7,-1,-4,-3,-2,-3,0,2021-08-05 17:20:23,834630
-5,-7,-5,-3,-2,-2,-3,-3,2021-08-05 17:20:23,834630
-1,-2,-1,-2,-2,-2,-2,-4,2021-08-05 17:20:23,846630
2,0,1,1,0,0,1,2,2021-08-05 17:20:23,861683
-1,-3,-3,-2,1,1,0,-1,2021-08-05 17:20:23,877681
1,1,1,-1,0,1,2,3,2021-08-05 17:20:23,877681
-1,-2,-1,0,0,0,-2,0,2021-08-05 17:20:23,877681
-4,0,0,-1,-2,-2,-4,-5,2021-08-05 17:20:23,877681
3,-4,-1,-1,0,0,-1,1,2021-08-05 17:20:23,877681
-1,0,-4,-1,-1,-2,-3,-2,2021-08-05 17:20:23,877681
1,0,-1,-2,1,1,-1,0,2021-08-05 17:20:23,892920
2,2,-2,0,1,3,2,4,2021-08-05 17:20:23,908681
-1,-4,0,0,-2,-4,-1,-2,2021-08-05 17:20:23,939682
-2,3,-4,-3,-1,-3,0,-3,2021-08-05 17:20:23,939682
-2,-6,-6,-3,0,-1,0,-1,2021-08-05 17:20:23,939682
-3,2,1,-2,-2,-3,-5,-5,2021-08-05 17:20:23,939682
0,-1,2,1,-1,0,0,2,2021-08-05 17:20:23,939682
2,-2,3,4,1,2,2,2,2021-08-05 17:20:23,939682
-3,0,-2,-1,-2,-2,-1,-4,2021-08-05 17:20:23,939682
-3,-6,-4,-1,-1,-1,0,-1,2021-08-05 17:20:23,939682
-2,1,-3,-2,-2,-2,-3,-1,2021-08-05 17:20:23,939682
-2,0,-1,-2,0,0,1,0,2021-08-05 17:20:23,940682
-3,-2,-2,-3,-1,-3,0,-1,2021-08-05 17:20:23,955824
0,3,3,2,0,-1,0,-2,2021-08-05 17:20:23,970681
-2,1,0,-3,0,-1,0,2,2021-08-05 17:20:23,985680
1,2,2,1,1,0,0,0,2021-08-05 17:20:23,985680
-2,-4,-3,0,-1,-1,-1,-1,2021-08-05 17:20:23,985680
-1,-1,-4,0,-2,-1,2,-1,2021-08-05 17:20:23,985680
-1,-2,-2,-3,-2,-2,-2,-5,2021-08-05 17:20:23,985680
1,-3,-2,-2,0,-1,-2,0,2021-08-05 17:20:23,985680
-2,-4,-1,2,0,-1,0,1,2021-08-05 17:20:24,001925
-3,-2,-1,-4,-1,-3,-1,-3,2021-08-05 17:20:24,002049
-1,-1,-2,-2,0,0,1,0,2021-08-05 17:20:24,002049
0,0,1,-2,-1,-3,0,1,2021-08-05 17:20:24,002049
-3,0,0,-3,-2,0,-2,-2,2021-08-05 17:20:24,017797
0,-1,-2,-3,-2,-2,-3,0,2021-08-05 17:20:24,018053
2,1,-1,3,1,2,2,1,2021-08-05 17:20:24,018140
-2,-1,-3,0,-3,-2,-2,-1,2021-08-05 17:20:24,018214
-2,-2,-2,-3,-3,-3,0,-1,2021-08-05 17:20:24,033891
1,-3,1,1,0,0,-1,0,2021-08-05 17:20:24,033891
-2,2,3,0,0,0,0,0,2021-08-05 17:20:24,049814
1,0,1,-2,0,-2,0,-2,2021-08-05 17:20:24,064577
0,1,3,3,0,2,0,1,2021-08-05 17:20:24,064738
-1,-3,-3,0,0,1,1,2,2021-08-05 17:20:24,064786
-2,0,1,1,-1,0,-1,-2,2021-08-05 17:20:24,064866
-4,-3,-3,-2,-2,-4,-2,-3,2021-08-05 17:20:24,064936
5,3,0,1,2,3,2,3,2021-08-05 17:20:24,064960
-3,-5,-4,-2,-2,-4,-4,-3,2021-08-05 17:20:24,065058
-1,-7,-1,-1,-1,1,-2,0,2021-08-05 17:20:24,079832
0,2,-4,-1,-3,0,-2,-2,2021-08-05 17:20:24,079941
0,-3,-5,-1,-1,-1,-1,-1,2021-08-05 17:20:24,079941
0,7,5,0,-2,-1,-1,-1,2021-08-05 17:20:24,079941
2,0,-3,-1,0,-1,1,0,2021-08-05 17:20:24,095635
-1,-2,2,2,-1,-1,1,0,2021-08-05 17:20:24,095635
-1,-1,-2,-2,-3,-3,-3,-2,2021-08-05 17:20:24,110620
2,0,1,5,3,2,2,0,2021-08-05 17:20:24,110620
-6,-2,-2,-4,-5,-5,-5,-6,2021-08-05 17:20:24,110620
2,0,0,-2,-1,0,-2,-1,2021-08-05 17:20:24,110620
-2,-1,-1,-3,-1,0,0,1,2021-08-05 17:20:24,142735
-1,-4,-7,-3,-1,0,0,1,2021-08-05 17:20:24,158679
0,2,6,3,0,-1,0,-1,2021-08-05 17:20:24,167566
-4,-1,1,-2,-3,-2,-2,-3,2021-08-05 17:20:24,167566
-2,-6,-8,-5,-1,-2,0,-2,2021-08-05 17:20:24,167566
0,-4,-3,-5,-1,0,-1,-1,2021-08-05 17:20:24,167566
2,2,1,2,1,-1,-2,0,2021-08-05 17:20:24,173566
-3,-3,0,-1,-2,-1,-3,-4,2021-08-05 17:20:24,173738
-3,0,6,1,-4,-2,-1,-5,2021-08-05 17:20:24,173738
2,-1,-2,7,8,4,2,6,2021-08-05 17:20:24,173738
-1,-5,-5,-1,-1,-2,0,0,2021-08-05 17:20:24,173738
-4,-1,1,-1,-1,0,-1,-1,2021-08-05 17:20:24,173738
0,1,0,-1,-3,-1,-1,2,2021-08-05 17:20:24,189675
-3,-1,-4,-5,-4,-6,-3,-4,2021-08-05 17:20:24,205566
1,1,3,0,-1,0,0,0,2021-08-05 17:20:24,205566
0,-6,-6,-2,-1,-3,-2,-1,2021-08-05 17:20:24,205566
4,4,5,4,7,2,2,4,2021-08-05 17:20:24,205566
-3,-1,-3,-2,-5,-3,-1,-3,2021-08-05 17:20:24,205566
-6,-6,-7,-4,-4,-5,-4,-5,2021-08-05 17:20:24,221566
6,12,4,3,3,5,5,3,2021-08-05 17:20:24,221566
-1,-2,-1,0,0,1,-1,-1,2021-08-05 17:20:24,237566
-1,-24,1,-1,-3,0,0,0,2021-08-05 17:20:24,253686
-2,1,-6,-5,-4,-2,-2,-3,2021-08-05 17:20:24,269567
-3,2,-2,-1,0,-2,-3,-4,2021-08-05 17:20:24,284566
0,0,2,-1,0,-3,-2,-1,2021-08-05 17:20:24,299675
-2,6,-1,-1,-1,-3,-2,-3,2021-08-05 17:20:24,299803
0,-1,-3,-2,1,1,1,2,2021-08-05 17:20:24,299803
-2,-10,-4,-5,-3,-3,-1,-1,2021-08-05 17:20:24,299803
-2,1,-5,-3,0,1,0,-1,2021-08-05 17:20:24,299803
-5,-1,1,-1,1,1,-1,-2,2021-08-05 17:20:24,299803
1,2,1,5,5,5,2,2,2021-08-05 17:20:24,300201
-1,2,3,4,-1,0,-1,-3,2021-08-05 17:20:24,300201
-2,-5,-1,0,-4,-5,-3,-5,2021-08-05 17:20:24,300201
3,4,-1,-4,-3,-4,-2,0,2021-08-05 17:20:24,300201
-2,2,9,-3,-4,-4,-4,-2,2021-08-05 17:20:24,300567
0,-4,-12,0,2,0,-1,2,2021-08-05 17:20:24,300567
-2,-4,-2,-1,-1,-1,1,-1,2021-08-05 17:20:24,315679
-1,7,1,4,2,0,0,0,2021-08-05 17:20:24,315679
-1,-5,1,-2,0,-1,0,1,2021-08-05 17:20:24,315679
-3,-11,1,-1,-1,-1,-2,-1,2021-08-05 17:20:24,315679
-3,3,-6,-1,-2,0,-1,-3,2021-08-05 17:20:24,331672
-2,5,1,0,-2,-1,-3,-2,2021-08-05 17:20:24,346566
-2,-1,0,-1,0,-1,-1,-2,2021-08-05 17:20:24,392883
2,4,0,-1,-2,1,1,2,2021-08-05 17:20:24,408720
1,-5,-2,-2,0,-1,-1,0,2021-08-05 17:20:24,424796
2,2,1,1,-1,0,2,2,2021-08-05 17:20:24,440720
0,0,-3,-2,0,0,-2,1,2021-08-05 17:20:24,471720
-1,20,1,0,-1,-3,-1,-1,2021-08-05 17:20:24,471720
-1,-12,3,4,3,1,2,3,2021-08-05 17:20:24,471720
0,5,-3,-3,-1,-2,-2,-1,2021-08-05 17:20:24,471720
-2,-5,-5,-2,-1,-1,0,-1,2021-08-05 17:20:24,471720
0,3,1,1,1,1,0,1,2021-08-05 17:20:24,471720
-1,2,-3,-1,-1,-2,-2,0,2021-08-05 17:20:24,471720
-1,-4,0,-2,0,-2,-1,-2,2021-08-05 17:20:24,471720
2,2,-2,1,1,2,1,0,2021-08-05 17:20:24,472721
-3,-7,0,-3,-4,-5,-2,-1,2021-08-05 17:20:24,472721
-3,1,0,-3,-2,-1,-5,-7,2021-08-05 17:20:24,472721
5,-2,3,7,8,6,8,10,2021-08-05 17:20:24,472721
1,2,-2,-1,-1,-2,1,1,2021-08-05 17:20:24,472721
-1,-10,-5,-5,-2,-2,-2,-1,2021-08-05 17:20:24,472721
0,2,3,0,-1,-1,1,-2,2021-08-05 17:20:24,472721
-5,9,-1,-4,-4,-4,-5,-5,2021-08-05 17:20:24,472721
-1,-14,0,1,-1,-1,-2,1,2021-08-05 17:20:24,472721
0,0,2,-4,-2,-1,0,-2,2021-08-05 17:20:24,472721
-2,0,-6,-1,-1,-1,-2,1,2021-08-05 17:20:24,472721
-2,-1,-3,-2,0,1,-1,-4,2021-08-05 17:20:24,472721
-3,3,0,-2,-3,-2,-2,-2,2021-08-05 17:20:24,473721
-1,-6,4,0,0,-1,-1,-2,2021-08-05 17:20:24,473721
0,0,-6,-2,-2,-3,-3,-4,2021-08-05 17:20:24,473721
2,2,3,2,2,4,4,4,2021-08-05 17:20:24,473721
-4,-4,-7,-5,-5,-4,-5,-5,2021-08-05 17:20:24,473721
-3,-13,-6,-5,-2,-1,-2,-2,2021-08-05 17:20:24,473721
4,2,8,4,5,3,3,4,2021-08-05 17:20:24,500788
-4,-5,-3,-5,-5,-7,-5,-5,2021-08-05 17:20:24,501697
0,6,6,1,3,1,-2,0,2021-08-05 17:20:24,501841
-1,0,-4,2,-2,-1,-4,-2,2021-08-05 17:20:24,518787
0,0,-5,-2,-1,0,0,0,2021-08-05 17:20:24,518787
-4,-11,-2,-1,-3,-3,-4,-6,2021-08-05 17:20:24,518787
0,6,-1,-1,-1,-1,-1,-1,2021-08-05 17:20:24,518787
6,8,6,6,4,5,2,4,2021-08-05 17:20:24,518787
-3,-2,-2,-3,-1,-2,-2,-1,2021-08-05 17:20:24,534914
-3,0,-2,-1,-3,-1,-1,-1,2021-08-05 17:20:24,550787
-1,0,-3,-3,-3,-3,-2,-5,2021-08-05 17:20:24,550787
2,1,0,2,3,2,1,4,2021-08-05 17:20:24,550787
1,-2,2,1,0,-1,1,0,2021-08-05 17:20:24,550787
4,1,-1,0,1,2,2,3,2021-08-05 17:20:24,550787
-2,-4,-1,1,1,1,2,1,2021-08-05 17:20:24,550787
-2,-9,-3,-3,-4,-3,-2,-3,2021-08-05 17:20:24,550787
1,4,-1,-1,-2,0,-2,-1,2021-08-05 17:20:24,582925
-4,-4,-3,-4,-2,-3,-3,-3,2021-08-05 17:20:24,582925
3,2,-1,-1,-1,0,-1,2,2021-08-05 17:20:24,582925
-4,0,-1,-2,0,-1,1,-2,2021-08-05 17:20:24,582925
1,1,3,2,1,1,-1,1,2021-08-05 17:20:24,582925
-1,-3,1,-2,-1,-2,0,1,2021-08-05 17:20:24,582925
0,-8,-4,3,3,1,3,1,2021-08-05 17:20:24,598850
2,1,3,-1,-1,-1,1,-1,2021-08-05 17:20:24,598850
-2,16,-1,-3,-4,-3,-1,-1,2021-08-05 17:20:24,615018
0,-29,-4,-2,0,-1,0,1,2021-08-05 17:20:24,630849
-3,5,-4,-3,-4,0,-3,-2,2021-08-05 17:20:24,631088
-3,3,6,-3,-5,-2,-2,-3,2021-08-05 17:20:24,631209
-3,-12,-15,-1,-1,-2,-2,-5,2021-08-05 17:20:24,631382
-1,9,2,-4,-5,-4,-5,-3,2021-08-05 17:20:24,631515
1,1,0,2,2,2,3,4,2021-08-05 17:20:24,631629
0,32,16,1,3,-1,-1,-1,2021-08-05 17:20:24,631769
-3,-32,-11,-2,-1,-2,-2,-3,2021-08-05 17:20:24,646921
1,-3,-12,-1,1,1,2,0,2021-08-05 17:20:24,646921
6,3,7,2,2,2,2,4,2021-08-05 17:20:24,661925
-2,37,-3,-3,-4,-4,-4,-2,2021-08-05 17:20:24,662006
-1,-39,13,3,0,1,0,3,2021-08-05 17:20:24,676988
-2,3,7,0,-3,-1,-1,-4,2021-08-05 17:20:24,692721
2,-6,-21,-1,4,3,3,3,2021-08-05 17:20:24,692721
2,-10,-9,-1,-1,0,2,1,2021-08-05 17:20:24,692721
-1,28,10,-2,-2,-2,-1,-3,2021-08-05 17:20:24,692721
-1,15,-1,1,0,0,0,-3,2021-08-05 17:20:24,692721
5,75,70,8,2,-2,2,2,2021-08-05 17:20:24,692721
-10,-102,-57,-1,3,1,1,-4,2021-08-05 17:20:24,692721
-6,16,-35,-10,-3,-3,-2,-2,2021-08-05 17:20:24,708722
-4,5,2,-15,-13,-10,-9,-10,2021-08-05 17:20:24,723722
0,17,-2,-2,-1,-4,-3,-4,2021-08-05 17:20:24,738795
6,17,20,0,1,0,0,2,2021-08-05 17:20:24,738795
4,-12,17,7,4,5,4,5,2021-08-05 17:20:24,738795
-3,4,-10,0,1,1,1,1,2021-08-05 17:20:24,738795
-6,-27,-12,-4,-3,-5,-3,-6,2021-08-05 17:20:24,738795
0,2,11,4,1,0,-1,-1,2021-08-05 17:20:24,738795
1,-1,-4,1,3,1,3,4,2021-08-05 17:20:24,754865
3,7,9,8,4,3,1,2,2021-08-05 17:20:24,769807
-2,56,36,-1,-4,-1,-3,-1,2021-08-05 17:20:24,769807
-1,-106,-44,-7,-7,-5,-2,-2,2021-08-05 17:20:24,770125
-4,6,-37,-11,-8,-7,-6,-11,2021-08-05 17:20:24,770125
-5,7,21,7,4,6,4,7,2021-08-05 17:20:24,770125
-3,-18,-16,-3,-1,-2,-3,-2,2021-08-05 17:20:24,770125
1,50,29,3,-1,-1,-2,0,2021-08-05 17:20:24,770125
3,35,27,2,-3,-1,-4,-2,2021-08-05 17:20:24,801785
5,0,-23,-1,2,1,2,3,2021-08-05 17:20:24,801964
-6,-82,-30,-5,-3,-1,-2,-6,2021-08-05 17:20:24,801964
-6,34,9,-4,-3,-2,-3,-3,2021-08-05 17:20:24,801964
0,-23,0,3,3,1,0,-1,2021-08-05 17:20:24,817822
3,20,1,5,4,2,1,4,2021-08-05 17:20:24,817822
0,-6,-9,-6,-4,-2,-3,-2,2021-08-05 17:20:24,817822
0,3,0,-1,-2,0,0,0,2021-08-05 17:20:24,817822
0,15,8,2,1,0,1,1,2021-08-05 17:20:24,832720
-5,-10,5,-2,-2,-3,-3,-4,2021-08-05 17:20:24,832720
8,-9,-10,0,2,2,0,7,2021-08-05 17:20:24,832720
-4,-5,-5,-2,-3,-3,-3,-3,2021-08-05 17:20:24,832720
0,14,16,5,1,2,1,2,2021-08-05 17:20:24,865806
-1,-19,-9,-1,0,-2,-2,1,2021-08-05 17:20:24,865806
-6,-21,-13,-4,-4,-3,-2,-5,2021-08-05 17:20:24,865806
0,20,6,0,-1,-1,0,-2,2021-08-05 17:20:24,865806
0,-9,7,-1,-1,0,1,2,2021-08-05 17:20:24,881797
-1,-13,-9,-4,-4,-5,-4,-4,2021-08-05 17:20:24,897721
-1,1,-8,-3,1,1,0,-3,2021-08-05 17:20:24,912805
1,8,9,4,3,2,1,2,2021-08-05 17:20:24,912805
-5,-6,-6,-6,-6,-4,-5,-6,2021-08-05 17:20:24,912805
5,0,5,1,3,3,1,3,2021-08-05 17:20:24,912805
-3,18,16,5,0,0,-1,1,2021-08-05 17:20:24,913378
-4,-23,-36,-5,-1,-2,0,-1,2021-08-05 17:20:24,913533
-3,-18,-3,-3,-3,-1,-3,-2,2021-08-05 17:20:24,913650
1,7,3,-1,-1,1,-1,-2,2021-08-05 17:20:24,913772
1,4,8,2,-1,0,-1,-3,2021-08-05 17:20:24,913772
5,46,17,4,2,1,0,1,2021-08-05 17:20:24,913772
-1,-51,-14,-1,2,3,4,4,2021-08-05 17:20:24,943721
-5,2,9,0,-2,-3,-1,-4,2021-08-05 17:20:24,943721
-6,-44,-30,-4,-4,-2,-3,-4,2021-08-05 17:20:24,943721
4,-4,-2,-1,1,2,1,2,2021-08-05 17:20:24,943721
1,18,-2,-2,-1,-2,-3,-2,2021-08-05 17:20:24,943721
-1,21,19,-1,-3,-3,-1,-1,2021-08-05 17:20:24,943721
7,11,12,8,8,6,5,6,2021-08-05 17:20:24,959909
2,-20,-8,1,-2,-2,-1,1,2021-08-05 17:20:24,959909
-3,8,-4,-5,0,1,0,-1,2021-08-05 17:20:24,975721
-11,-19,-22,-10,-7,-4,-4,-6,2021-08-05 17:20:24,991889
-10,0,-1,-5,-5,-3,-2,-4,2021-08-05 17:20:24,991980
4,13,14,2,-1,-1,-2,0,2021-08-05 17:20:24,991980
11,20,18,9,7,5,4,7,2021-08-05 17:20:24,992216
5,22,-11,0,0,0,0,0,2021-08-05 17:20:24,992327
-8,-77,-30,-5,-3,-1,-2,-4,2021-08-05 17:20:24,992443
-11,-7,1,-7,-4,-4,-6,-7,2021-08-05 17:20:24,992569
1,5,-3,-3,-2,-3,-2,-1,2021-08-05 17:20:25,008039
3,1,7,-1,-3,-1,-2,0,2021-08-05 17:20:25,022832
7,47,14,6,5,3,4,4,2021-08-05 17:20:25,022832
-6,-12,-10,1,0,-1,1,-3,2021-08-05 17:20:25,022832
-6,-22,-7,-6,-6,-5,-3,-5,2021-08-05 17:20:25,037834
3,6,-7,2,3,0,0,4,2021-08-05 17:20:25,038015
-1,4,6,-1,-1,-3,-1,-2,2021-08-05 17:20:25,038015
-4,-7,4,-2,-3,-3,-2,-1,2021-08-05 17:20:25,038154
4,104,35,4,-1,-2,0,0,2021-08-05 17:20:25,053833
1,-113,-21,7,3,3,3,3,2021-08-05 17:20:25,053833
-7,-12,-39,-10,-5,-1,-1,-1,2021-08-05 17:20:25,068832
-2,31,5,-11,-9,-7,-8,-8,2021-08-05 17:20:25,068832
-3,20,5,-3,-6,-7,-4,-5,2021-08-05 17:20:25,068832
5,48,24,5,1,0,0,-3,2021-08-05 17:20:25,068832
5,-47,9,6,5,4,4,8,2021-08-05 17:20:25,099832
-5,-10,-40,1,7,5,4,1,2021-08-05 17:20:25,116030
2,-40,3,-4,-3,1,-1,-1,2021-08-05 17:20:25,130895
-14,-21,-7,-5,-1,-2,-1,-2,2021-08-05 17:20:25,130999
1,27,5,-4,-8,-8,-7,-7,2021-08-05 17:20:25,131148
9,16,13,1,3,3,4,10,2021-08-05 17:20:25,131148
-4,-8,-10,2,1,-1,-1,-4,2021-08-05 17:20:25,131148
3,21,2,1,3,4,1,0,2021-08-05 17:20:25,131148
-8,-29,0,-1,-4,-5,-4,-5,2021-08-05 17:20:25,131148
-4,-35,-5,-1,-3,-2,-3,-4,2021-08-05 17:20:25,131148
2,14,-2,-2,0,1,2,2,2021-08-05 17:20:25,131148
7,4,4,-4,-2,0,1,2,2021-08-05 17:20:25,131834
-5,26,-11,-1,0,1,2,0,2021-08-05 17:20:25,131834
3,18,17,2,-2,-1,1,-1,2021-08-05 17:20:25,131834
-11,-84,-9,0,1,1,3,1,2021-08-05 17:20:25,159832
-2,43,13,7,5,2,-2,-5,2021-08-05 17:20:25,159832
5,16,-6,-1,-3,-1,-3,-3,2021-08-05 17:20:25,159832
-4,-26,0,1,-1,-3,-3,-2,2021-08-05 17:20:25,160391
-1,3,-14,-7,-4,-3,-5,0,2021-08-05 17:20:25,176887
7,-3,4,-2,0,-2,1,5,2021-08-05 17:20:25,192940
9,6,21,6,2,1,2,7,2021-08-05 17:20:25,209027
-16,-62,-54,-7,-1,0,-2,-6,2021-08-05 17:20:25,209027
-19,26,-8,-10,-3,-2,-3,-7,2021-08-05 17:20:25,209027
-2,-16,1,-1,-2,-2,-2,-1,2021-08-05 17:20:25,209027
6,52,12,-1,1,1,-1,1,2021-08-05 17:20:25,209027
15,3,20,5,0,1,1,7,2021-08-05 17:20:25,209027
7,4,8,5,0,-2,-1,0,2021-08-05 17:20:25,209027
-9,-27,-30,-1,-3,-1,-2,-6,2021-08-05 17:20:25,209027
-9,13,6,-1,0,0,0,0,2021-08-05 17:20:25,209942
10,64,11,5,3,4,2,1,2021-08-05 17:20:25,209942
-4,-57,-7,-1,0,-1,0,-1,2021-08-05 17:20:25,241052
-4,5,3,-5,-5,-4,-2,-2,2021-08-05 17:20:25,257007
4,21,-22,-8,-4,-5,-4,-3,2021-08-05 17:20:25,257179
-5,-36,19,-1,-1,-1,0,-2,2021-08-05 17:20:25,257397
4,59,-11,-1,0,0,-1,1,2021-08-05 17:20:25,257547
1,-58,6,-1,-2,-4,-1,0,2021-08-05 17:20:25,257671
-2,-30,-18,-2,-2,-1,1,-2,2021-08-05 17:20:25,257671
-8,27,3,-3,-5,-2,-2,-2,2021-08-05 17:20:25,257671
2,22,10,-2,-3,-2,-1,-5,2021-08-05 17:20:25,271940
-1,-27,-3,0,1,0,0,-1,2021-08-05 17:20:25,271940
-4,10,-2,-1,-1,-3,-3,-5,2021-08-05 17:20:25,271940
0,22,10,1,2,2,1,3,2021-08-05 17:20:25,271940
-3,-38,-16,1,1,1,1,1,2021-08-05 17:20:25,303084
-4,30,-9,-6,-3,-3,-3,-6,2021-08-05 17:20:25,303084
5,13,26,-1,-4,-2,-2,2,2021-08-05 17:20:25,303084
3,-35,-7,-3,0,-2,3,3,2021-08-05 17:20:25,303460
-1,18,-8,3,1,2,0,-2,2021-08-05 17:20:25,303675
-7,-21,-4,-2,-3,-1,-2,-1,2021-08-05 17:20:25,303870
2,-12,-11,-2,-4,-3,-4,-4,2021-08-05 17:20:25,334881
5,40,22,3,0,-1,-3,-1,2021-08-05 17:20:25,349881
8,17,0,6,8,9,9,11,2021-08-05 17:20:25,349881
-19,-49,-14,-4,-3,-2,-3,-6,2021-08-05 17:20:25,349881
-1,16,-5,-6,-4,-4,-6,-4,2021-08-05 17:20:25,349881
8,-4,1,-1,3,2,0,2,2021-08-05 17:20:25,349881
5,-8,6,1,-2,-4,-3,-1,2021-08-05 17:20:25,366007
-2,64,15,2,-1,1,2,1,2021-08-05 17:20:25,382034
-1,-42,-3,5,6,5,4,2,2021-08-05 17:20:25,382034
-8,-47,-8,-2,-3,-3,-3,-6,2021-08-05 17:20:25,382034
4,9,-6,-4,-5,-3,-4,-3,2021-08-05 17:20:25,382034
0,13,4,-1,-3,-3,0,0,2021-08-05 17:20:25,382034
-4,35,4,-2,-4,-3,-2,-3,2021-08-05 17:20:25,382034
-2,-62,-16,-1,1,1,1,-1,2021-08-05 17:20:25,382034
-5,40,6,-2,-5,-2,-5,-7,2021-08-05 17:20:25,397939
-1,-32,-11,-4,-3,-2,-4,-4,2021-08-05 17:20:25,397939
1,16,5,-3,0,1,0,3,2021-08-05 17:20:25,398284
2,25,0,1,3,2,1,2,2021-08-05 17:20:25,398423
0,-13,7,3,2,1,3,5,2021-08-05 17:20:25,413881
-4,0,2,1,0,-2,-1,0,2021-08-05 17:20:25,428881
5,-9,6,6,6,3,5,2,2021-08-05 17:20:25,443946
-7,35,6,-4,-8,-7,-5,-5,2021-08-05 17:20:25,443946
-8,-54,-15,-2,1,-2,-2,-4,2021-08-05 17:20:25,443946
9,35,1,0,0,0,0,-1,2021-08-05 17:20:25,459965
1,-19,1,-2,-2,1,-1,-2,2021-08-05 17:20:25,460107
-11,-11,11,-4,-5,-4,-4,-3,2021-08-05 17:20:25,460107
-4,6,-21,-2,0,-1,-2,-1,2021-08-05 17:20:25,460297
7,-5,-2,3,3,1,2,6,2021-08-05 17:20:25,460379
-4,-13,-4,1,3,2,2,-3,2021-08-05 17:20:25,460379
1,5,-6,-2,-3,-1,-2,-3,2021-08-05 17:20:25,460379
5,60,36,3,0,-1,-3,0,2021-08-05 17:20:25,475881
-3,-41,-25,-2,-4,-1,0,3,2021-08-05 17:20:25,487881
-2,-3,-10,-4,-2,-1,-1,-2,2021-08-05 17:20:25,488409
4,-13,5,2,-1,-1,0,0,2021-08-05 17:20:25,488409
-3,-3,4,0,-1,-2,0,-1,2021-08-05 17:20:25,506457
-2,7,2,-3,-2,-3,-2,-5,2021-08-05 17:20:25,506709
2,19,6,5,5,3,3,4,2021-08-05 17:20:25,506709
-8,-36,-31,-2,-1,1,-2,-3,2021-08-05 17:20:25,506709
-3,18,14,-6,-6,-4,-4,-3,2021-08-05 17:20:25,506709
10,10,6,2,3,0,1,3,2021-08-05 17:20:25,506709
-2,-18,-8,-3,-2,-1,-1,0,2021-08-05 17:20:25,506709
13,63,11,1,3,0,1,1,2021-08-05 17:20:25,506709
-14,-51,-10,-1,0,1,-1,-2,2021-08-05 17:20:25,536500
1,0,3,-2,-2,-3,-3,-3,2021-08-05 17:20:25,536500
-6,1,4,2,0,-1,-2,-2,2021-08-05 17:20:25,536500
5,12,9,2,3,2,3,4,2021-08-05 17:20:25,536500
2,-16,-9,-1,0,0,1,1,2021-08-05 17:20:25,567502
1,2,-3,1,1,0,0,0,2021-08-05 17:20:25,582414
-10,-12,-20,-2,-2,-1,-2,-2,2021-08-05 17:20:25,598007
4,93,19,-6,-7,-5,-5,-3,2021-08-05 17:20:25,598007
-1,-115,6,5,6,3,1,4,2021-08-05 17:20:25,598007
2,40,-11,0,-2,0,1,-3,2021-08-05 17:20:25,598007
-8,-27,7,-2,-5,-5,-3,-4,2021-08-05 17:20:25,598007
5,27,-7,3,2,1,1,3,2021-08-05 17:20:25,598007
-14,-7,-9,-8,-8,-6,-7,-7,2021-08-05 17:20:25,598007
11,-2,15,1,3,2,1,3,2021-08-05 17:20:25,598007
-16,13,2,2,0,1,0,-3,2021-08-05 17:20:25,598944
4,-42,-16,-7,-2,-3,-2,-2,2021-08-05 17:20:25,598944
10,54,3,3,2,0,1,2,2021-08-05 17:20:25,613993
-4,-20,7,0,0,-2,-1,0,2021-08-05 17:20:25,613993
5,-2,5,1,-1,-2,-1,2,2021-08-05 17:20:25,613993
-5,-17,-18,-4,-4,-2,-4,-2,2021-08-05 17:20:25,613993
7,17,3,-1,1,0,2,-2,2021-08-05 17:20:25,629110
-6,52,13,1,-4,-2,-3,-2,2021-08-05 17:20:25,629211
2,-41,21,2,1,1,1,1,2021-08-05 17:20:25,644024
-11,-59,-27,-1,-5,-3,-4,-5,2021-08-05 17:20:25,660061
10,29,-10,-7,-1,2,0,3,2021-08-05 17:20:25,676011
-5,11,-23,-2,-1,0,0,-1,2021-08-05 17:20:25,690943
-8,-28,6,-8,-7,-4,-5,-7,2021-08-05 17:20:25,705943
-4,13,4,-1,3,0,-1,-4,2021-08-05 17:20:25,706116
-1,9,13,3,-1,0,1,2,2021-08-05 17:20:25,706116
3,-4,16,3,2,2,1,7,2021-08-05 17:20:25,706116
14,13,-21,0,-1,0,3,3,2021-08-05 17:20:25,706116
-15,-21,8,-1,0,0,0,1,2021-08-05 17:20:25,706116
3,6,8,4,0,1,-1,-2,2021-08-05 17:20:25,706116
-3,-10,-12,-4,1,-1,0,-3,2021-08-05 17:20:25,706116
4,24,0,-1,-1,-2,-1,0,2021-08-05 17:20:25,706116
-5,-42,21,1,-2,-2,-1,-3,2021-08-05 17:20:25,706116
-2,-24,-35,-1,1,1,1,-1,2021-08-05 17:20:25,706945
-1,10,-6,-8,-8,-5,-6,-5,2021-08-05 17:20:25,706945
-5,-22,6,-5,-4,-5,-6,-4,2021-08-05 17:20:25,721943
2,43,2,5,5,5,3,2,2021-08-05 17:20:25,721943
-3,-15,21,-2,-6,-6,-4,-3,2021-08-05 17:20:25,737985
0,-26,-14,1,0,1,0,-2,2021-08-05 17:20:25,738099
2,39,-18,-4,-2,0,-2,1,2021-08-05 17:20:25,738099
-1,26,18,3,1,1,2,2,2021-08-05 17:20:25,738099
2,-9,-6,-1,-3,-3,-1,-1,2021-08-05 17:20:25,753518
-15,-66,-12,-3,1,0,1,-4,2021-08-05 17:20:25,753690
6,20,3,3,4,1,1,2,2021-08-05 17:20:25,753945
-3,33,7,-3,-4,-3,-2,-4,2021-08-05 17:20:25,753945
-5,-51,-4,0,1,0,-1,1,2021-08-05 17:20:25,768943
1,102,18,-6,-9,-7,-6,-5,2021-08-05 17:20:25,769135
3,-75,-21,2,3,5,4,6,2021-08-05 17:20:25,769135
2,-25,-24,-7,-3,-1,-1,-2,2021-08-05 17:20:25,769135
1,71,27,0,-2,-4,-4,-2,2021-08-05 17:20:25,800943
3,43,14,4,2,0,0,4,2021-08-05 17:20:25,800943
-5,-85,-12,3,1,3,2,0,2021-08-05 17:20:25,800943
0,-6,-24,-5,-2,-5,-2,-2,2021-08-05 17:20:25,800943
1,71,16,0,-2,0,0,0,2021-08-05 17:20:25,816126
-4,-66,-8,-3,-2,-2,-4,-2,2021-08-05 17:20:25,816126
1,53,7,-1,-2,-2,-1,-5,2021-08-05 17:20:25,816126
-3,-57,-2,5,4,2,3,1,2021-08-05 17:20:25,816126
5,5,-9,0,0,-1,0,1,2021-08-05 17:20:25,831842
-9,22,18,1,-1,-2,0,-2,2021-08-05 17:20:25,847751
-3,-43,6,1,0,-2,-2,-1,2021-08-05 17:20:25,847751
6,23,-30,-8,-2,1,1,2,2021-08-05 17:20:25,847751
-1,-25,-13,-2,-3,-3,-3,-3,2021-08-05 17:20:25,863832
4,40,12,-3,-3,-3,-2,-5,2021-08-05 17:20:25,879881
0,12,12,1,1,0,-1,2,2021-08-05 17:20:25,895054
2,-12,5,6,4,5,3,3,2021-08-05 17:20:25,910911
-3,-2,15,2,2,2,3,0,2021-08-05 17:20:25,911032
1,-28,-41,-3,1,0,1,-2,2021-08-05 17:20:25,911032
-4,51,9,-5,-5,-4,-2,-3,2021-08-05 17:20:25,911032
1,-10,9,2,-2,-1,0,0,2021-08-05 17:20:25,911032
-5,-44,-28,-7,-4,-3,-1,-1,2021-08-05 17:20:25,911032
3,5,18,2,0,-2,-4,-3,2021-08-05 17:20:25,911623
-4,76,27,4,1,0,-1,0,2021-08-05 17:20:25,911688
1,-45,-33,0,1,3,4,5,2021-08-05 17:20:25,911688
1,-34,-1,-4,-3,0,-1,-3,2021-08-05 17:20:25,911908
-5,19,2,0,0,0,-1,-2,2021-08-05 17:20:25,911908
0,-4,-11,-2,4,1,0,-2,2021-08-05 17:20:25,911908
-13,24,25,0,-1,-3,-4,-4,2021-08-05 17:20:25,911908
0,-26,-20,0,-2,-5,-5,-3,2021-08-05 17:20:25,927068
4,-17,-8,2,0,0,2,4,2021-08-05 17:20:25,927068
6,20,7,-2,-5,-2,-1,0,2021-08-05 17:20:25,942214
0,1,26,2,-2,-1,-1,-2,2021-08-05 17:20:25,956907
1,21,-26,-6,-2,0,-1,0,2021-08-05 17:20:25,972907
1,-27,4,5,6,6,6,7,2021-08-05 17:20:25,972907
-4,-16,-11,-1,-3,-2,-2,-2,2021-08-05 17:20:25,972907
2,21,4,-1,0,-1,-3,-3,2021-08-05 17:20:25,972907
-4,19,12,-2,1,0,-1,0,2021-08-05 17:20:25,972907
6,-18,-2,-2,-3,-7,-3,-5,2021-08-05 17:20:25,972907
-19,42,12,4,2,1,2,-1,2021-08-05 17:20:25,973998
11,-31,-26,-3,0,-1,-1,2,2021-08-05 17:20:25,974125
-5,-4,-9,-6,-4,-4,-5,-5,2021-08-05 17:20:25,988907
-8,-15,-12,-4,-2,0,-2,0,2021-08-05 17:20:25,988907
7,14,4,-4,-3,-3,-3,-4,2021-08-05 17:20:26,004985
-1,21,15,0,-1,-3,-2,-2,2021-08-05 17:20:26,019908
3,-6,12,5,0,0,1,1,2021-08-05 17:20:26,035907
3,3,-8,3,4,3,5,6,2021-08-05 17:20:26,036146
0,19,19,-1,-5,-2,-2,-1,2021-08-05 17:20:26,036215
-9,-40,-34,-5,-6,-4,-1,-3,2021-08-05 17:20:26,036215
2,-6,7,-1,4,3,3,1,2021-08-05 17:20:26,036215
-4,-27,1,2,-1,0,-2,-3,2021-08-05 17:20:26,036215
2,-5,-23,-6,-5,-2,-3,-1,2021-08-05 17:20:26,036215
3,20,31,0,-4,-2,-4,-2,2021-08-05 17:20:26,036215
-3,17,-13,-1,-1,0,0,-1,2021-08-05 17:20:26,052011
1,38,16,0,0,-2,-1,-2,2021-08-05 17:20:26,052063
4,-95,-15,-1,2,0,1,1,2021-08-05 17:20:26,052063
-5,16,-4,-5,-3,-1,-3,-2,2021-08-05 17:20:26,052371
-4,-2,9,-2,-5,-5,-3,-4,2021-08-05 17:20:26,083908
0,18,-18,-6,-2,-2,-4,-3,2021-08-05 17:20:26,098907
7,-22,-2,-1,-3,0,0,3,2021-08-05 17:20:26,098907
4,27,9,4,5,5,3,3,2021-08-05 17:20:26,114004
-20,-25,32,8,3,1,-1,0,2021-08-05 17:20:26,114004
10,-35,-55,-3,0,3,2,2,2021-08-05 17:20:26,114004
-5,52,9,-14,-12,-8,-7,-5,2021-08-05 17:20:26,114004
0,-33,-20,3,5,3,1,0,2021-08-05 17:20:26,114004
2,27,8,3,1,1,1,2,2021-08-05 17:20:26,114004
1,-4,17,-2,-2,-3,-3,0,2021-08-05 17:20:26,114623
7,39,11,3,5,3,4,2,2021-08-05 17:20:26,114722
-7,-36,-12,-1,-3,-3,-2,-5,2021-08-05 17:20:26,114794
5,-20,-23,-2,3,2,1,3,2021-08-05 17:20:26,144960
-8,-16,0,-1,0,1,0,-2,2021-08-05 17:20:26,145176
5,38,5,0,-1,0,-2,0,2021-08-05 17:20:26,145202
-4,14,12,-1,-6,-4,-3,-4,2021-08-05 17:20:26,145202
8,-7,7,4,4,2,4,3,2021-08-05 17:20:26,158027
-7,-47,-8,-6,-5,-1,-1,2,2021-08-05 17:20:26,158027
-8,-29,-44,-7,-2,-1,-2,-3,2021-08-05 17:20:26,158027
0,51,20,3,1,-4,-5,-3,2021-08-05 17:20:26,158027
-1,57,27,0,-5,-5,-3,-3,2021-08-05 17:20:26,176028
4,-38,-5,3,3,3,1,2,2021-08-05 17:20:26,176198
4,-42,-13,-1,1,-1,0,-1,2021-08-05 17:20:26,176505
-4,16,10,6,5,4,5,6,2021-08-05 17:20:26,176635
8,60,-9,-4,-4,-2,-2,-1,2021-08-05 17:20:26,192250
1,-9,35,3,-2,-4,-2,0,2021-08-05 17:20:26,192250
-9,-19,-15,4,5,5,1,0,2021-08-05 17:20:26,192250
7,-22,-15,-6,-4,-3,-4,-4,2021-08-05 17:20:26,192250
-9,-13,-8,-6,-6,-4,-2,-2,2021-08-05 17:20:26,223193
-9,66,43,-1,-7,-7,-7,-7,2021-08-05 17:20:26,223291
8,-56,-37,3,3,1,0,1,2021-08-05 17:20:26,223291
3,-13,-13,-6,-1,2,1,2,2021-08-05 17:20:26,223515
-6,8,8,2,-2,-1,-2,-3,2021-08-05 17:20:26,223556
0,-15,-7,-2,-1,-2,-1,-2,2021-08-05 17:20:26,223556
-1,15,53,5,-3,-4,-2,-4,2021-08-05 17:20:26,239140
3,64,-8,0,2,2,2,4,2021-08-05 17:20:26,239140
0,-51,-40,-8,-2,-2,0,0,2021-08-05 17:20:26,255139
-4,-9,8,-4,-4,-1,-1,-4,2021-08-05 17:20:26,270192
2,6,-13,-2,-1,-2,0,1,2021-08-05 17:20:26,270192
-2,-22,-8,-7,-5,-6,-6,-5,2021-08-05 17:20:26,270192
-2,16,-5,-3,-1,-2,-2,-2,2021-08-05 17:20:26,270192
7,78,23,1,-2,-2,-2,1,2021-08-05 17:20:26,270192
-8,-78,4,2,2,3,2,1,2021-08-05 17:20:26,270192
5,4,0,9,1,2,1,0,2021-08-05 17:20:26,270192
-6,-15,-11,-6,1,1,-1,-2,2021-08-05 17:20:26,286218
0,51,0,0,2,1,2,-1,2021-08-05 17:20:26,286218
-2,-60,7,-2,-3,-2,-1,1,2021-08-05 17:20:26,302228
-5,31,-4,-4,-1,-2,2,-1,2021-08-05 17:20:26,302228
18,-39,4,1,-1,-2,-2,1,2021-08-05 17:20:26,318190
-7,34,-4,0,2,0,1,-2,2021-08-05 17:20:26,318190
-20,-16,-16,-6,-3,-4,-5,-7,2021-08-05 17:20:26,318190
-2,-9,25,-1,-2,-2,-2,-2,2021-08-05 17:20:26,334139
12,4,-11,6,3,2,1,4,2021-08-05 17:20:26,334369
-1,58,5,-6,-5,-4,-6,-5,2021-08-05 17:20:26,334369
15,-47,-5,5,4,4,3,6,2021-08-05 17:20:26,334369
-9,-25,-22,-5,-3,-1,-2,-5,2021-08-05 17:20:26,334369
-4,6,14,-6,-5,-4,-4,-6,2021-08-05 17:20:26,366285
-1,46,20,12,7,3,2,6,2021-08-05 17:20:26,382283
1,11,4,5,-1,0,0,2,2021-08-05 17:20:26,382402
-3,-28,-12,-3,-3,-2,0,0,2021-08-05 17:20:26,382561
1,-25,-6,-11,-7,-4,-3,-5,2021-08-05 17:20:26,382561
1,-24,-3,7,7,6,2,2,2021-08-05 17:20:26,382561
-8,78,2,-5,-5,-5,-4,-6,2021-08-05 17:20:26,382561
1,-22,-4,-2,-2,0,-2,-3,2021-08-05 17:20:26,382561
-2,2,-3,-1,-3,2,4,4,2021-08-05 17:20:26,397880
3,-8,2,-4,-5,-5,-3,-5,2021-08-05 17:20:26,397880
0,-19,8,3,3,3,4,1,2021-08-05 17:20:26,397880
-8,-28,-13,-3,-5,-5,-5,-3,2021-08-05 17:20:26,397880
1,15,19,2,-1,-1,-5,-4,2021-08-05 17:20:26,427995
-3,-67,-53,-10,-6,-1,-2,-4,2021-08-05 17:20:26,428159
-3,70,33,0,-6,-6,-6,-5,2021-08-05 17:20:26,428262
-1,18,14,4,2,-1,0,1,2021-08-05 17:20:26,428321
0,-10,10,6,3,2,2,0,2021-08-05 17:20:26,428396
-1,-6,-6,-4,-3,-2,-1,-1,2021-08-05 17:20:26,428526
2,-19,-14,-3,2,1,0,0,2021-08-05 17:20:26,428658
3,-4,18,8,5,5,3,3,2021-08-05 17:20:26,428743
-4,25,-7,1,1,-1,0,-1,2021-08-05 17:20:26,474883
1,-25,-2,-3,-5,-3,-2,-2,2021-08-05 17:20:26,475094
-2,14,-5,-4,-5,-2,-1,-3,2021-08-05 17:20:26,475094
-1,21,-12,-2,-5,-1,-1,-2,2021-08-05 17:20:26,475190
-2,-47,-14,-7,-3,-3,-3,-3,2021-08-05 17:20:26,475288
2,-12,8,7,7,5,5,4,2021-08-05 17:20:26,475366
0,22,-9,-1,2,1,0,0,2021-08-05 17:20:26,475442
2,17,14,-6,-4,-4,-3,-1,2021-08-05 17:20:26,475473
-4,4,-4,-3,-3,-2,-5,-4,2021-08-05 17:20:26,489879
-6,-22,1,-2,-1,-1,-1,0,2021-08-05 17:20:26,489879
2,-9,-13,7,5,3,2,3,2021-08-05 17:20:26,489879
4,43,-8,-1,2,4,2,2,2021-08-05 17:20:26,489879
-5,-55,5,-2,-4,-3,-3,-3,2021-08-05 17:20:26,521879
-3,-31,-22,-9,-4,-3,-5,-4,2021-08-05 17:20:26,521879
-5,5,21,2,-1,-2,-4,-3,2021-08-05 17:20:26,521879
6,2,-12,-3,0,-1,-1,-2,2021-08-05 17:20:26,521879
-11,21,8,3,1,2,1,2,2021-08-05 17:20:26,552002
4,55,20,7,3,3,1,1,2021-08-05 17:20:26,552043
6,-11,-12,-1,3,3,2,2,2021-08-05 17:20:26,552194
-9,-22,-10,-2,0,-2,-1,-3,2021-08-05 17:20:26,552276
4,20,12,3,-2,-2,-2,0,2021-08-05 17:20:26,552371
-1,-13,2,-1,-1,-3,0,-3,2021-08-05 17:20:26,552371
1,10,-7,-4,-4,-3,-2,-3,2021-08-05 17:20:26,552371
1,-17,21,8,7,5,3,4,2021-08-05 17:20:26,552371
-7,-9,-47,-15,-10,-7,-6,-4,2021-08-05 17:20:26,582972
-3,-28,-18,-3,1,1,0,0,2021-08-05 17:20:26,598990
1,34,24,7,1,0,-1,1,2021-08-05 17:20:26,615044
-2,4,7,-4,-4,-4,-4,-3,2021-08-05 17:20:26,629986
4,53,19,13,6,4,3,2,2021-08-05 17:20:26,630100
-2,-79,-7,-10,-10,-6,-4,-2,2021-08-05 17:20:26,630100
-3,46,-18,-1,-1,2,2,-1,2021-08-05 17:20:26,630100
-1,-41,-2,-4,-3,-1,-4,-3,2021-08-05 17:20:26,630100
3,16,22,8,7,5,2,3,2021-08-05 17:20:26,630100
-1,-16,-27,-5,-3,0,1,3,2021-08-05 17:20:26,630100
3,19,10,-4,-2,-2,-2,1,2021-08-05 17:20:26,630100
8,1,9,7,3,1,0,0,2021-08-05 17:20:26,630100
-15,1,-13,-6,-5,-4,-4,-3,2021-08-05 17:20:26,630100
-6,3,18,4,5,5,4,-1,2021-08-05 17:20:26,630100
-2,-35,-35,-12,-6,-5,-6,-4,2021-08-05 17:20:26,630946
3,62,29,-6,-10,-8,-4,-4,2021-08-05 17:20:26,631063
9,-66,-24,8,12,9,8,6,2021-08-05 17:20:26,660881
-5,24,-5,-1,-1,-2,-3,-3,2021-08-05 17:20:26,660993
-1,4,25,2,0,-3,-1,-1,2021-08-05 17:20:26,660993
0,2,-4,-1,-2,1,0,2,2021-08-05 17:20:26,660993
-4,-33,-10,-10,-8,-4,-2,-3,2021-08-05 17:20:26,676945
