EMG 1,EMG 2,EMG 3,EMG 4,EMG 5,EMG 6,EMG 7,EMG 8,Timestamp,Milliseconds
-1,-94,-2,-1,-4,-2,-1,-1,2021-08-05 17:19:28,692048
3,32,2,6,5,2,1,0,2021-08-05 17:19:28,692209
9,28,26,1,1,0,1,2,2021-08-05 17:19:28,692209
-3,-61,-44,-5,-3,-3,-2,-5,2021-08-05 17:19:28,692468
4,32,-1,0,4,3,0,2,2021-08-05 17:19:28,692718
-2,-22,0,1,0,2,0,-1,2021-08-05 17:19:28,692940
-1,25,4,-1,-2,-3,-2,-2,2021-08-05 17:19:28,708011
3,8,15,2,3,1,3,2,2021-08-05 17:19:28,708011
-4,29,-1,-3,-3,-3,-2,-4,2021-08-05 17:19:28,708011
-1,-31,-5,-1,0,-1,-4,-1,2021-08-05 17:19:28,708348
4,14,13,7,5,6,4,6,2021-08-05 17:19:28,722941
-3,-10,-10,-3,-4,-2,-2,-2,2021-08-05 17:19:28,722941
-5,4,-7,-2,-5,-4,-3,-4,2021-08-05 17:19:28,722941
1,10,5,0,0,-2,-1,-1,2021-08-05 17:19:28,722941
-3,-30,-15,-2,-1,-1,-3,-3,2021-08-05 17:19:28,737938
1,29,20,3,-1,0,-3,-1,2021-08-05 17:19:28,737938
-1,-30,-12,-1,0,0,0,-3,2021-08-05 17:19:28,753975
-1,17,-4,-8,-4,-2,-1,-3,2021-08-05 17:19:28,754230
-5,2,-1,-4,-5,-5,-2,-4,2021-08-05 17:19:28,769070
-1,-41,-11,-2,0,0,-1,0,2021-08-05 17:19:28,769208
1,45,13,1,-1,-1,-1,-1,2021-08-05 17:19:28,769208
-2,-48,0,0,-1,0,2,1,2021-08-05 17:19:28,769208
-1,-56,-10,3,2,-2,-2,-2,2021-08-05 17:19:28,809945
2,25,-6,-4,-1,0,2,1,2021-08-05 17:19:28,809945
2,-59,-9,-2,-1,0,1,0,2021-08-05 17:19:28,810964
-12,50,-1,-3,-5,-4,-3,-4,2021-08-05 17:19:28,810964
3,10,15,2,0,-1,-1,-2,2021-08-05 17:19:28,830055
-5,-34,6,3,0,-1,-1,0,2021-08-05 17:19:28,830055
3,28,-14,-3,0,0,0,-2,2021-08-05 17:19:28,830055
4,-23,4,1,1,-1,0,1,2021-08-05 17:19:28,830055
1,21,-9,1,4,3,1,1,2021-08-05 17:19:28,830055
0,1,-6,-5,-5,-5,-4,-2,2021-08-05 17:19:28,830055
-2,15,21,-1,-2,-1,-3,-1,2021-08-05 17:19:28,830055
2,13,-9,2,0,0,-1,1,2021-08-05 17:19:28,830055
-9,-15,-3,-2,-1,-1,0,1,2021-08-05 17:19:28,845989
1,-12,-7,0,1,-1,-2,-5,2021-08-05 17:19:28,845989
-4,-9,-4,-3,-3,0,-2,-1,2021-08-05 17:19:28,861076
2,5,16,5,4,3,2,1,2021-08-05 17:19:28,875973
1,-12,-13,-1,-3,2,0,3,2021-08-05 17:19:28,875973
0,25,-5,-4,-3,-2,-1,-1,2021-08-05 17:19:28,875973
-2,32,22,3,-1,-3,-2,-4,2021-08-05 17:19:28,892065
1,-47,-10,2,2,-1,-1,0,2021-08-05 17:19:28,908092
3,16,7,1,-1,-1,-1,0,2021-08-05 17:19:28,940047
-11,-36,-22,-6,-4,-3,-3,-5,2021-08-05 17:19:28,956114
1,34,-2,-3,2,-1,-2,0,2021-08-05 17:19:28,970989
9,-62,-7,1,1,3,2,2,2021-08-05 17:19:28,987105
-18,2,8,-6,-5,-3,-2,-5,2021-08-05 17:19:29,001975
0,24,10,2,0,-2,0,0,2021-08-05 17:19:29,018029
4,12,8,-1,-1,-1,-2,0,2021-08-05 17:19:29,018198
-2,-2,-31,-5,0,-1,-1,2,2021-08-05 17:19:29,018198
3,-46,-6,-7,-6,-5,-3,-3,2021-08-05 17:19:29,018198
-1,29,16,-1,-1,0,-2,0,2021-08-05 17:19:29,018198
-7,-14,-2,6,4,2,1,2,2021-08-05 17:19:29,018198
7,41,16,2,-2,1,0,1,2021-08-05 17:19:29,018198
-1,-9,-22,-2,-1,-1,0,1,2021-08-05 17:19:29,050105
-3,12,8,2,-3,-2,-2,-2,2021-08-05 17:19:29,050105
2,-31,6,5,2,2,3,3,2021-08-05 17:19:29,050105
-3,-8,-7,-1,2,2,0,1,2021-08-05 17:19:29,050105
-2,16,5,1,0,-1,1,-2,2021-08-05 17:19:29,050105
-1,-25,-16,-7,-3,-3,-4,-2,2021-08-05 17:19:29,050105
2,-21,2,-1,-1,0,2,3,2021-08-05 17:19:29,050105
0,43,-7,-5,-4,-2,0,0,2021-08-05 17:19:29,050105
6,16,11,-1,-3,-2,-4,-2,2021-08-05 17:19:29,064984
-15,-32,-32,-3,4,4,3,1,2021-08-05 17:19:29,064984
-6,-17,10,-3,-5,-4,-5,-8,2021-08-05 17:19:29,064984
-7,-12,0,0,0,-2,-4,-7,2021-08-05 17:19:29,064984
4,54,33,4,0,-4,-4,-1,2021-08-05 17:19:29,064984
22,2,-18,3,2,3,1,6,2021-08-05 17:19:29,064984
-10,6,-10,-7,-9,-7,-4,-2,2021-08-05 17:19:29,064984
-2,-6,5,-1,-3,-1,-2,-2,2021-08-05 17:19:29,064984
6,64,6,-1,-1,-1,0,0,2021-08-05 17:19:29,064984
-4,-57,8,3,5,4,5,3,2021-08-05 17:19:29,064984
-1,-22,-14,6,7,5,4,4,2021-08-05 17:19:29,064984
2,51,3,-2,-2,-2,0,-2,2021-08-05 17:19:29,064984
-2,-70,-8,0,2,2,-1,1,2021-08-05 17:19:29,066158
-6,12,-1,-2,-1,-2,-3,-2,2021-08-05 17:19:29,066158
1,20,-8,-3,-5,-4,-5,-5,2021-08-05 17:19:29,080048
0,-4,9,-3,-2,-3,-3,0,2021-08-05 17:19:29,080048
-2,38,-3,2,2,1,1,0,2021-08-05 17:19:29,080271
1,-44,8,0,0,0,0,2,2021-08-05 17:19:29,080496
-2,-26,-15,0,4,2,2,0,2021-08-05 17:19:29,080496
6,71,6,-3,-3,-1,-1,2,2021-08-05 17:19:29,080496
-6,-86,-15,-8,-7,-5,-3,-4,2021-08-05 17:19:29,080496
-2,28,7,7,7,4,3,3,2021-08-05 17:19:29,080496
-3,49,8,-1,-3,-3,-3,-3,2021-08-05 17:19:29,110973
-4,-51,-5,0,0,-2,-2,-2,2021-08-05 17:19:29,122940
6,39,11,2,2,0,1,-1,2021-08-05 17:19:29,122940
10,53,35,3,-2,-2,3,2,2021-08-05 17:19:29,123937
-8,-94,-54,-8,0,1,-1,-2,2021-08-05 17:19:29,123937
-1,-7,-16,-6,-4,-1,-1,-1,2021-08-05 17:19:29,123937
0,12,8,-2,-1,-1,-1,0,2021-08-05 17:19:29,123937
-3,10,11,3,0,-1,-2,-3,2021-08-05 17:19:29,124590
3,30,11,3,2,1,2,2,2021-08-05 17:19:29,158462
-3,-46,-3,-1,-2,-3,-2,-3,2021-08-05 17:19:29,173074
-4,-15,-20,-2,-2,-2,-1,-1,2021-08-05 17:19:29,173074
5,65,25,-1,-2,-2,-1,0,2021-08-05 17:19:29,173074
0,-40,-2,0,-1,-2,1,-2,2021-08-05 17:19:29,173074
0,0,-8,1,3,2,1,2,2021-08-05 17:19:29,173074
-4,-52,-10,-3,0,-1,-2,0,2021-08-05 17:19:29,173074
4,1,-1,-3,-3,-4,-3,-3,2021-08-05 17:19:29,173074
-10,33,10,-3,-4,-3,-4,-2,2021-08-05 17:19:29,188973
0,-13,8,0,1,-1,0,0,2021-08-05 17:19:29,188973
3,75,-8,0,1,1,2,-1,2021-08-05 17:19:29,188973
-7,-89,-15,0,1,2,-2,2,2021-08-05 17:19:29,188973
-3,8,-19,-6,-4,-5,-3,-3,2021-08-05 17:19:29,204990
3,9,22,7,2,2,0,-3,2021-08-05 17:19:29,220989
-3,-29,4,0,1,2,-1,0,2021-08-05 17:19:29,220989
5,18,-7,-7,-6,-2,-3,0,2021-08-05 17:19:29,221302
4,27,-3,0,3,1,1,4,2021-08-05 17:19:29,221302
-8,-13,-5,-3,-5,-2,-1,-2,2021-08-05 17:19:29,221302
0,-12,-7,-3,-4,-2,-2,0,2021-08-05 17:19:29,221302
-4,7,14,4,-1,-1,-1,-2,2021-08-05 17:19:29,221302
5,26,-15,2,2,2,1,2,2021-08-05 17:19:29,253007
-1,-3,0,-5,-4,-5,-4,-5,2021-08-05 17:19:29,269052
-6,-64,-8,-2,1,0,0,0,2021-08-05 17:19:29,269052
-5,16,1,-2,-4,-2,-2,-4,2021-08-05 17:19:29,269052
4,39,31,4,1,0,-1,-1,2021-08-05 17:19:29,269052
0,-35,-39,-1,2,2,3,4,2021-08-05 17:19:29,269052
-5,17,9,-6,-7,-5,-3,-4,2021-08-05 17:19:29,269052
-2,24,2,3,1,0,-2,-2,2021-08-05 17:19:29,269052
-1,-5,3,-6,-3,-1,-1,-1,2021-08-05 17:19:29,283973
4,-60,-13,-7,-5,-4,-5,-3,2021-08-05 17:19:29,298975
-13,38,7,0,0,-3,-1,-3,2021-08-05 17:19:29,299194
1,56,-2,-2,0,-4,-2,-2,2021-08-05 17:19:29,299194
8,-72,-6,4,6,4,2,2,2021-08-05 17:19:29,314939
-21,12,13,-1,-4,-3,0,0,2021-08-05 17:19:29,330089
12,1,-19,0,4,5,2,0,2021-08-05 17:19:29,346105
-5,-23,11,4,-1,-2,-1,-2,2021-08-05 17:19:29,346105
2,13,-3,-5,-6,-5,-2,-4,2021-08-05 17:19:29,346105
3,6,16,3,4,3,2,-1,2021-08-05 17:19:29,346105
0,-1,-7,1,-1,-2,0,0,2021-08-05 17:19:29,346105
-3,-29,-32,-8,-1,-1,0,0,2021-08-05 17:19:29,346105
-1,-3,6,-6,-4,-3,-1,-2,2021-08-05 17:19:29,346105
1,22,12,0,-1,-1,-1,-3,2021-08-05 17:19:29,346976
0,1,11,4,2,2,3,3,2021-08-05 17:19:29,346976
2,-12,-4,3,1,1,1,0,2021-08-05 17:19:29,346976
-1,13,-15,-4,-4,-5,-4,-2,2021-08-05 17:19:29,377940
-3,-11,13,-1,-2,-3,-3,-2,2021-08-05 17:19:29,394023
4,36,-8,2,1,1,1,1,2021-08-05 17:19:29,410049
-4,-69,-4,-2,-1,-1,-1,0,2021-08-05 17:19:29,410049
-3,3,0,-4,-2,0,-1,-1,2021-08-05 17:19:29,410049
3,24,-1,2,1,1,0,3,2021-08-05 17:19:29,410049
3,80,20,3,0,-1,-2,-4,2021-08-05 17:19:29,410049
1,-67,-19,-1,1,2,1,2,2021-08-05 17:19:29,410049
9,-11,3,2,-1,0,-2,-4,2021-08-05 17:19:29,410049
-27,-20,-18,-6,-3,-3,-3,-2,2021-08-05 17:19:29,410049
-4,27,3,-6,-7,-5,-6,-7,2021-08-05 17:19:29,410049
4,-10,0,-4,-3,-3,-3,-3,2021-08-05 17:19:29,410049
2,35,26,9,7,4,4,4,2021-08-05 17:19:29,426041
13,-19,-11,0,-3,-1,0,0,2021-08-05 17:19:29,426199
1,-23,-11,1,3,4,3,3,2021-08-05 17:19:29,426199
-2,96,24,2,-3,-2,-2,-4,2021-08-05 17:19:29,426199
0,-64,-3,2,3,0,0,2,2021-08-05 17:19:29,442049
-3,-17,-23,2,1,-1,1,0,2021-08-05 17:19:29,442049
-5,-5,17,-2,-5,-5,-3,-4,2021-08-05 17:19:29,474120
1,0,-16,-6,-4,-4,-3,-4,2021-08-05 17:19:29,474120
-5,23,10,-1,1,0,1,0,2021-08-05 17:19:29,474120
4,30,27,5,3,2,2,0,2021-08-05 17:19:29,474648
-2,-41,-29,-5,-3,-1,-3,-1,2021-08-05 17:19:29,474648
0,-6,-2,-4,-1,-1,0,0,2021-08-05 17:19:29,474648
-6,-7,3,2,-3,-2,-1,-4,2021-08-05 17:19:29,488975
-1,-5,1,-1,0,1,-2,-2,2021-08-05 17:19:29,488975
5,26,6,1,-2,-2,-3,-1,2021-08-05 17:19:29,488975
-1,0,0,2,4,3,4,4,2021-08-05 17:19:29,488975
-5,-70,-21,-5,-4,-2,-1,-2,2021-08-05 17:19:29,520028
1,43,3,-3,-1,-2,-3,0,2021-08-05 17:19:29,520028
1,-23,7,-1,0,0,-1,-1,2021-08-05 17:19:29,520028
0,5,-12,-2,-3,-2,-3,-3,2021-08-05 17:19:29,520028
-13,29,14,1,-3,-2,0,-1,2021-08-05 17:19:29,520028
6,-8,-14,0,0,-2,-1,-3,2021-08-05 17:19:29,520028
-3,10,25,4,2,1,1,1,2021-08-05 17:19:29,520028
7,-17,-15,2,2,0,2,2,2021-08-05 17:19:29,520028
-7,-31,-18,-8,-4,-2,-2,-4,2021-08-05 17:19:29,566047
-6,22,1,-3,-2,-2,-3,-2,2021-08-05 17:19:29,566047
-4,-15,-1,2,2,1,2,1,2021-08-05 17:19:29,566047
-1,6,18,1,-1,0,-1,-2,2021-08-05 17:19:29,566047
4,17,-8,-2,-2,0,-1,1,2021-08-05 17:19:29,566047
0,13,19,-4,-1,-3,0,-3,2021-08-05 17:19:29,566047
4,-24,-17,5,4,3,4,5,2021-08-05 17:19:29,566047
-4,-12,-17,-7,-5,-1,-1,-2,2021-08-05 17:19:29,566047
-1,24,5,0,-1,-2,-3,-2,2021-08-05 17:19:29,595978
-1,10,17,0,-1,0,-2,-2,2021-08-05 17:19:29,611051
-2,-36,-26,-2,-2,-3,-1,-3,2021-08-05 17:19:29,625960
-1,46,4,-2,-1,0,-1,-1,2021-08-05 17:19:29,626147
1,-73,0,5,2,1,2,2,2021-08-05 17:19:29,641962
-7,-7,-16,-5,-4,-2,-2,-2,2021-08-05 17:19:29,658103
2,66,16,-3,-4,-1,-3,-5,2021-08-05 17:19:29,688958
-3,-7,-12,-2,0,0,0,1,2021-08-05 17:19:29,688958
4,60,16,1,0,-1,1,-3,2021-08-05 17:19:29,688958
3,-7,9,5,1,0,0,-1,2021-08-05 17:19:29,689383
-4,-50,-20,-4,-2,-1,-1,1,2021-08-05 17:19:29,689523
-4,-13,-3,0,0,-1,-2,-2,2021-08-05 17:19:29,689574
3,27,4,-3,-2,-2,0,1,2021-08-05 17:19:29,689574
-1,-50,-4,-2,-2,-2,-1,-5,2021-08-05 17:19:29,689854
-3,1,-6,-3,1,-1,-1,-2,2021-08-05 17:19:29,689960
5,25,23,8,6,2,3,2,2021-08-05 17:19:29,689960
3,0,-8,-3,-1,1,-3,-2,2021-08-05 17:19:29,689960
-4,41,-10,0,-2,-2,-1,0,2021-08-05 17:19:29,689960
-4,-69,7,1,0,-1,2,0,2021-08-05 17:19:29,689960
-3,50,6,-4,-2,0,-4,-1,2021-08-05 17:19:29,689960
-3,-8,-15,-3,-1,-2,-2,-1,2021-08-05 17:19:29,689960
5,-44,-12,1,4,6,3,4,2021-08-05 17:19:29,689960
1,40,12,-1,0,-2,-1,-2,2021-08-05 17:19:29,690830
-3,-28,7,2,-2,-2,-1,-2,2021-08-05 17:19:29,690909
1,16,-6,-1,0,0,1,1,2021-08-05 17:19:29,703998
1,49,-1,-6,-6,-5,-4,-3,2021-08-05 17:19:29,703998
-1,-35,-1,2,0,1,0,1,2021-08-05 17:19:29,703998
-3,-9,-5,-9,-5,-3,-3,-5,2021-08-05 17:19:29,703998
6,14,-9,11,9,5,5,10,2021-08-05 17:19:29,736038
-2,-35,-8,-4,-3,-4,0,1,2021-08-05 17:19:29,752076
-1,25,10,2,3,2,1,-1,2021-08-05 17:19:29,752076
-2,17,3,0,-3,-3,-4,-6,2021-08-05 17:19:29,752076
-3,-31,-2,-1,-3,-1,-4,-5,2021-08-05 17:19:29,752076
1,9,1,3,0,-4,-3,-2,2021-08-05 17:19:29,752076
4,17,0,-2,-3,-4,-4,2,2021-08-05 17:19:29,752076
2,13,12,1,0,-1,1,3,2021-08-05 17:19:29,752076
-6,-45,-8,-3,-2,-2,2,-2,2021-08-05 17:19:29,766995
3,11,6,0,2,3,1,1,2021-08-05 17:19:29,772962
10,18,-19,-11,-10,-4,-4,-6,2021-08-05 17:19:29,772962
-26,-53,-9,-3,1,1,2,0,2021-08-05 17:19:29,772962
0,-5,-9,-4,-1,-1,-1,-3,2021-08-05 17:19:29,798161
4,34,25,6,3,3,3,2,2021-08-05 17:19:29,814095
1,-19,-4,0,-1,-1,-2,-2,2021-08-05 17:19:29,829996
10,12,2,0,-1,1,0,0,2021-08-05 17:19:29,830163
-9,9,13,-1,-4,-6,-4,-3,2021-08-05 17:19:29,830163
-6,-20,-16,-5,-1,-1,-1,-1,2021-08-05 17:19:29,830163
-2,-1,-10,-1,0,-1,-1,0,2021-08-05 17:19:29,830163
2,4,-3,1,-2,0,-2,-3,2021-08-05 17:19:29,830163
-2,41,14,-2,-5,-3,-3,-2,2021-08-05 17:19:29,830163
-1,-61,-8,0,-2,0,-2,-1,2021-08-05 17:19:29,830163
-5,48,7,1,1,0,1,0,2021-08-05 17:19:29,830995
0,-41,-10,2,1,0,0,0,2021-08-05 17:19:29,830995
2,0,3,-3,-3,-2,-1,-3,2021-08-05 17:19:29,861104
5,43,8,-4,-4,-2,-1,-1,2021-08-05 17:19:29,861154
-3,3,-6,-4,-1,-2,-1,-1,2021-08-05 17:19:29,861154
-3,-53,-12,-5,0,1,-2,-1,2021-08-05 17:19:29,861154
1,59,15,4,1,1,3,1,2021-08-05 17:19:29,875997
-2,-58,-15,-1,-2,1,-1,-2,2021-08-05 17:19:29,891028
-6,0,8,-3,-5,-5,-4,-5,2021-08-05 17:19:29,906960
6,75,10,-6,-7,-6,-3,-3,2021-08-05 17:19:29,906960
1,-78,-17,-1,6,3,3,5,2021-08-05 17:19:29,907354
-4,13,-14,-4,-3,-2,-2,-1,2021-08-05 17:19:29,907354
-1,-16,8,1,2,2,0,-1,2021-08-05 17:19:29,907354
0,14,-7,-1,-1,0,0,-1,2021-08-05 17:19:29,907354
1,28,0,-5,-5,-4,-3,-4,2021-08-05 17:19:29,907606
4,-19,9,1,0,0,0,2,2021-08-05 17:19:29,907634
-15,9,3,2,3,0,-1,3,2021-08-05 17:19:29,907711
6,-27,-15,-1,-2,-2,-2,-1,2021-08-05 17:19:29,907910
-8,-11,-4,2,1,3,-1,-1,2021-08-05 17:19:29,938994
-2,3,6,0,0,-1,-2,-2,2021-08-05 17:19:29,938994
10,10,-11,-3,-3,-3,1,-3,2021-08-05 17:19:29,938994
-9,-13,4,-4,-4,-3,-1,-1,2021-08-05 17:19:29,938994
4,9,-3,-1,-1,-1,-1,-3,2021-08-05 17:19:29,971010
-1,22,7,4,2,2,3,1,2021-08-05 17:19:29,985994
2,1,8,5,1,2,2,3,2021-08-05 17:19:29,985994
0,-16,1,3,3,1,0,1,2021-08-05 17:19:29,985994
-2,-3,-13,-7,-7,-5,-4,-3,2021-08-05 17:19:29,985994
-4,16,7,-3,-2,-3,-3,-2,2021-08-05 17:19:29,985994
3,24,-1,0,0,1,0,1,2021-08-05 17:19:29,985994
1,-43,-10,4,2,1,1,1,2021-08-05 17:19:29,985994
0,15,6,-2,0,-1,-2,-2,2021-08-05 17:19:29,985994
-1,1,-12,-7,-5,-5,-2,-2,2021-08-05 17:19:29,985994
4,3,13,7,3,3,1,1,2021-08-05 17:19:29,985994
0,-44,-11,4,1,1,0,2,2021-08-05 17:19:29,985994
1,0,-2,-8,-1,0,-4,-2,2021-08-05 17:19:30,016136
-4,15,-1,-2,-4,-2,-4,-3,2021-08-05 17:19:30,016136
-3,-11,2,-4,-4,-2,-3,-3,2021-08-05 17:19:30,016262
0,35,21,6,2,0,1,1,2021-08-05 17:19:30,016262
3,-7,0,3,1,1,2,2,2021-08-05 17:19:30,032150
2,-24,-18,-2,0,-2,2,0,2021-08-05 17:19:30,048186
0,31,3,-1,-1,-1,-3,-1,2021-08-05 17:19:30,048293
1,-26,-13,-6,-3,-2,-1,-1,2021-08-05 17:19:30,048487
-16,39,13,-1,-4,-3,-4,-5,2021-08-05 17:19:30,048487
10,31,6,2,3,0,1,1,2021-08-05 17:19:30,048738
-6,-84,-27,3,6,7,7,4,2021-08-05 17:19:30,048738
3,36,22,-1,-3,-3,-1,-5,2021-08-05 17:19:30,048738
1,-22,-25,-2,-1,-2,0,-1,2021-08-05 17:19:30,078076
-8,29,9,-9,-7,-4,-6,-7,2021-08-05 17:19:30,093132
4,-10,2,-3,0,1,-1,3,2021-08-05 17:19:30,093132
1,11,6,6,4,3,1,1,2021-08-05 17:19:30,093132
12,54,18,4,1,-1,1,2,2021-08-05 17:19:30,094078
-18,-74,-23,0,2,3,2,-1,2021-08-05 17:19:30,094078
-9,25,-6,-10,-9,-8,-5,-10,2021-08-05 17:19:30,094078
-2,-38,-10,-5,-3,-2,-2,-1,2021-08-05 17:19:30,094078
3,17,9,3,-1,0,0,2,2021-08-05 17:19:30,108174
11,7,6,6,2,-2,0,1,2021-08-05 17:19:30,123142
-2,21,-3,0,0,-2,-1,0,2021-08-05 17:19:30,123232
-5,-13,-3,-2,1,-1,-1,-1,2021-08-05 17:19:30,123365
1,-7,4,0,1,1,0,1,2021-08-05 17:19:30,139162
2,6,6,5,1,2,0,1,2021-08-05 17:19:30,139162
-4,-35,-19,-2,-1,-1,-2,0,2021-08-05 17:19:30,139447
-2,33,-2,-13,-8,-6,-4,-4,2021-08-05 17:19:30,139447
-3,-32,-15,-1,0,1,1,-1,2021-08-05 17:19:30,171231
-1,14,24,3,0,0,0,0,2021-08-05 17:19:30,186142
0,0,-4,3,1,-2,-1,1,2021-08-05 17:19:30,201243
8,-1,-17,-6,-3,-2,-3,-3,2021-08-05 17:19:30,201243
-18,-13,7,3,0,-2,-2,-2,2021-08-05 17:19:30,201243
5,57,8,-3,0,-1,-1,0,2021-08-05 17:19:30,201243
2,-31,5,2,0,0,0,-1,2021-08-05 17:19:30,201243
-1,-29,-4,4,2,2,2,2,2021-08-05 17:19:30,201730
-1,-9,-14,-7,-6,-4,-2,-4,2021-08-05 17:19:30,201730
2,48,2,-2,-2,-3,-1,-2,2021-08-05 17:19:30,201730
3,-37,14,1,3,3,3,3,2021-08-05 17:19:30,202079
4,100,20,4,2,-1,0,2,2021-08-05 17:19:30,202313
-1,-103,-34,-2,2,3,0,-1,2021-08-05 17:19:30,217210
-10,30,-6,-3,-3,-2,-3,-2,2021-08-05 17:19:30,233206
0,-35,-5,-7,-7,-4,-5,-4,2021-08-05 17:19:30,233297
-4,28,1,2,1,1,1,1,2021-08-05 17:19:30,249111
14,63,57,7,5,5,3,4,2021-08-05 17:19:30,264115
-7,-68,-53,-1,0,1,1,1,2021-08-05 17:19:30,280112
-5,9,-5,-4,-4,-3,-1,-2,2021-08-05 17:19:30,296262
-2,59,17,-4,-6,-6,-3,-4,2021-08-05 17:19:30,296262
-1,-65,-10,1,1,-1,1,0,2021-08-05 17:19:30,296262
2,-11,13,2,3,0,1,1,2021-08-05 17:19:30,296262
0,19,9,-1,0,0,-3,-2,2021-08-05 17:19:30,296262
-4,4,-5,-4,-4,-3,-4,-3,2021-08-05 17:19:30,296262
7,17,-9,-7,-4,-3,-2,-2,2021-08-05 17:19:30,296262
-7,-33,1,-2,0,2,1,1,2021-08-05 17:19:30,297129
-7,-27,-11,5,2,-1,0,-2,2021-08-05 17:19:30,297151
0,-20,-18,-5,-3,-1,-3,-4,2021-08-05 17:19:30,297151
-1,35,7,-4,-5,-4,-5,-5,2021-08-05 17:19:30,297151
6,-9,3,1,0,0,0,2,2021-08-05 17:19:30,297151
1,50,10,1,-1,-2,-1,0,2021-08-05 17:19:30,297151
-4,-4,15,2,1,2,2,4,2021-08-05 17:19:30,297151
-5,-62,-11,0,1,-1,-2,-2,2021-08-05 17:19:30,312111
-2,9,-33,-5,-7,-5,-3,-2,2021-08-05 17:19:30,326997
6,26,27,2,3,3,1,3,2021-08-05 17:19:30,327114
0,-54,-18,0,-1,0,0,0,2021-08-05 17:19:30,327230
-9,8,2,0,-1,0,-2,-2,2021-08-05 17:19:30,327230
0,15,16,-1,-2,-2,-3,-3,2021-08-05 17:19:30,327230
-1,5,-18,-6,-2,-2,-2,-3,2021-08-05 17:19:30,341886
1,-15,1,1,-1,1,1,0,2021-08-05 17:19:30,342087
3,26,-1,2,2,0,1,1,2021-08-05 17:19:30,342087
0,-25,22,0,2,0,1,-1,2021-08-05 17:19:30,342087
-3,1,-30,-4,-1,-1,-1,-2,2021-08-05 17:19:30,357139
1,-6,15,6,4,2,0,-2,2021-08-05 17:19:30,357139
3,11,-16,-2,-3,-3,-1,2,2021-08-05 17:19:30,389111
-13,-27,1,-9,-1,-3,-5,-3,2021-08-05 17:19:30,389111
3,4,5,-4,-3,-3,-3,-3,2021-08-05 17:19:30,389111
0,2,4,2,2,2,2,2,2021-08-05 17:19:30,389411
-1,-12,-12,-2,-3,-2,-1,-1,2021-08-05 17:19:30,389501
5,14,-3,3,1,2,2,1,2021-08-05 17:19:30,389575
1,-15,18,4,1,1,2,0,2021-08-05 17:19:30,389575
-7,-33,-20,-3,0,-1,-1,-2,2021-08-05 17:19:30,389575
0,37,8,-5,-3,-2,0,-2,2021-08-05 17:19:30,413078
9,5,0,2,1,2,2,2,2021-08-05 17:19:30,413078
-23,-38,-16,-2,-3,-5,-4,-6,2021-08-05 17:19:30,413078
9,30,16,4,2,2,3,5,2021-08-05 17:19:30,413078
-3,3,6,2,1,2,0,0,2021-08-05 17:19:30,450744
5,22,-21,-5,-2,-1,-2,-1,2021-08-05 17:19:30,450744
2,8,2,-2,-4,-4,-1,-3,2021-08-05 17:19:30,450744
-11,-37,-5,-2,-3,-3,-3,-5,2021-08-05 17:19:30,450744
5,2,11,1,2,1,0,1,2021-08-05 17:19:30,481799
6,-7,-15,-4,-2,1,0,0,2021-08-05 17:19:30,481967
-5,5,-1,1,-1,0,-1,0,2021-08-05 17:19:30,481967
-2,10,-3,-2,0,-3,-2,0,2021-08-05 17:19:30,481967
-1,-3,-7,-2,2,1,-1,3,2021-08-05 17:19:30,481967
0,17,39,8,2,0,0,0,2021-08-05 17:19:30,481967
3,-66,-31,-2,3,3,1,3,2021-08-05 17:19:30,481967
-2,52,-6,-8,-6,-3,-1,-1,2021-08-05 17:19:30,481967
-3,-37,4,-3,-5,-4,-2,-4,2021-08-05 17:19:30,496777
-5,32,-14,2,6,3,2,0,2021-08-05 17:19:30,496777
1,-32,1,-2,-1,-3,-3,-4,2021-08-05 17:19:30,496777
-1,39,12,5,1,-2,-2,-4,2021-08-05 17:19:30,496777
3,0,11,0,-2,-3,-4,-3,2021-08-05 17:19:30,528776
-3,-48,-15,-7,-6,-5,-2,-1,2021-08-05 17:19:30,528776
5,46,9,1,1,3,3,5,2021-08-05 17:19:30,528776
-2,-24,-15,-3,0,0,1,2,2021-08-05 17:19:30,528776
0,56,17,-1,-3,-1,1,0,2021-08-05 17:19:30,558893
-3,-26,-3,3,-1,-1,0,-1,2021-08-05 17:19:30,574782
5,1,0,-3,-2,0,-2,0,2021-08-05 17:19:30,590782
-7,-10,-12,-4,-2,0,1,1,2021-08-05 17:19:30,606876
3,-7,-10,-4,-2,-4,-3,-3,2021-08-05 17:19:30,622941
-15,10,7,-1,-2,-1,-2,-2,2021-08-05 17:19:30,622941
2,4,8,-2,-3,-3,-2,-6,2021-08-05 17:19:30,622941
6,13,1,-2,-1,-1,-1,0,2021-08-05 17:19:30,622941
2,-35,-2,2,2,1,1,0,2021-08-05 17:19:30,622941
-5,-25,-27,-1,0,0,1,2,2021-08-05 17:19:30,622941
-2,16,11,-1,-4,-4,-5,-4,2021-08-05 17:19:30,622941
-2,8,11,1,0,-1,-2,-1,2021-08-05 17:19:30,622941
-3,-24,-23,-4,0,1,-1,-1,2021-08-05 17:19:30,622941
6,-7,10,-2,-2,0,-2,-2,2021-08-05 17:19:30,637835
-4,7,-13,-5,-1,-2,-1,0,2021-08-05 17:19:30,637835
0,15,12,0,0,-1,-1,-3,2021-08-05 17:19:30,637835
2,16,2,6,6,3,1,5,2021-08-05 17:19:30,637835
-3,-25,-11,-1,0,0,1,-2,2021-08-05 17:19:30,637835
-1,12,-4,-3,-3,-1,-1,-1,2021-08-05 17:19:30,653986
-1,-21,-6,-5,-2,-1,-1,-3,2021-08-05 17:19:30,654077
-4,65,20,1,-1,-2,-1,1,2021-08-05 17:19:30,654077
-1,-81,-8,-1,-3,-2,-2,-3,2021-08-05 17:19:30,654077
1,2,-10,1,4,4,3,3,2021-08-05 17:19:30,654077
2,-6,-9,-4,-4,-5,-6,-6,2021-08-05 17:19:30,654077
-3,1,4,-2,-1,0,-1,-3,2021-08-05 17:19:30,654077
4,51,15,2,3,0,1,3,2021-08-05 17:19:30,654077
0,41,21,0,-2,-2,-1,-2,2021-08-05 17:19:30,654077
-5,-128,-34,-1,1,-1,1,1,2021-08-05 17:19:30,654077
-10,0,-28,-7,-5,-1,1,0,2021-08-05 17:19:30,669180
1,28,17,-6,-6,-6,-7,-6,2021-08-05 17:19:30,669180
5,3,8,6,5,3,4,3,2021-08-05 17:19:30,669180
0,18,4,1,-1,1,-2,1,2021-08-05 17:19:30,669180
-1,-11,1,1,-1,-2,-1,0,2021-08-05 17:19:30,701225
0,-6,-1,1,0,0,1,0,2021-08-05 17:19:30,701225
0,36,-6,-2,-2,-2,-1,1,2021-08-05 17:19:30,701225
8,7,19,3,-1,2,0,0,2021-08-05 17:19:30,701225
-9,-47,-27,-3,-3,-1,-2,-2,2021-08-05 17:19:30,716182
0,16,-5,-3,-2,0,-3,-2,2021-08-05 17:19:30,716182
-4,19,15,-1,-2,-4,-3,-2,2021-08-05 17:19:30,716182
-1,2,-3,2,0,-1,1,0,2021-08-05 17:19:30,716182
2,0,17,1,2,0,0,1,2021-08-05 17:19:30,742147
-1,11,-5,-2,3,-1,1,-1,2021-08-05 17:19:30,742147
2,-53,-22,-6,-2,0,-1,0,2021-08-05 17:19:30,742147
-3,13,0,-2,-2,-1,-3,-1,2021-08-05 17:19:30,743182
4,-9,-2,1,-2,-2,-4,-3,2021-08-05 17:19:30,762600
-3,15,10,3,2,0,1,0,2021-08-05 17:19:30,778224
-10,-16,2,-3,-3,-2,-2,-3,2021-08-05 17:19:30,778224
7,15,3,-1,3,2,2,0,2021-08-05 17:19:30,778224
1,-1,17,-1,0,-1,-2,0,2021-08-05 17:19:30,778224
5,-40,-14,2,1,1,0,2,2021-08-05 17:19:30,778224
-8,-3,-11,-1,-2,-3,-1,-1,2021-08-05 17:19:30,778224
-3,-6,-5,-3,-4,-6,-5,-5,2021-08-05 17:19:30,778224
-2,23,7,-1,-1,-2,-1,-4,2021-08-05 17:19:30,809807
7,31,9,0,-3,-1,1,0,2021-08-05 17:19:30,825095
-3,0,-10,-1,2,1,2,2,2021-08-05 17:19:30,839761
-4,-6,19,1,0,1,1,1,2021-08-05 17:19:30,854836
3,-54,-35,-3,-1,1,0,-1,2021-08-05 17:19:30,885829
-5,-2,-4,-7,-5,-4,-4,-2,2021-08-05 17:19:30,900768
9,36,34,7,0,0,-2,-1,2021-08-05 17:19:30,916855
-10,15,-27,-3,1,0,1,4,2021-08-05 17:19:30,932326
-2,36,9,1,-1,-1,1,-2,2021-08-05 17:19:30,932326
-4,-75,-13,0,1,0,0,0,2021-08-05 17:19:30,932616
3,2,11,0,-4,-4,-3,-3,2021-08-05 17:19:30,932853
9,50,8,2,2,2,1,3,2021-08-05 17:19:30,932853
2,-39,-28,-3,2,2,0,1,2021-08-05 17:19:30,948319
-24,26,2,-4,-3,-4,-3,-6,2021-08-05 17:19:30,948319
6,-4,-1,-6,-3,-3,-2,-1,2021-08-05 17:19:30,948319
6,40,20,6,2,1,2,1,2021-08-05 17:19:30,948319
-1,-14,0,2,-1,1,1,1,2021-08-05 17:19:30,948826
10,22,3,6,2,4,2,2,2021-08-05 17:19:30,948890
-6,-10,-3,-6,-3,0,-3,-2,2021-08-05 17:19:30,948890
-6,-42,-26,-6,-2,-3,-1,-2,2021-08-05 17:19:30,948890
-2,13,10,-1,-3,-3,-2,-2,2021-08-05 17:19:30,964323
2,8,16,3,2,-1,1,1,2021-08-05 17:19:30,964482
2,22,0,0,1,0,0,-1,2021-08-05 17:19:30,964482
-8,-38,-11,-1,-2,-3,-2,-2,2021-08-05 17:19:30,964635
2,23,-5,-8,-6,-5,-5,-4,2021-08-05 17:19:30,964776
-5,44,8,-2,-3,-2,-3,-4,2021-08-05 17:19:30,964776
-5,-61,-9,2,3,2,2,1,2021-08-05 17:19:30,964776
2,19,11,-3,-1,0,-1,-2,2021-08-05 17:19:30,965056
0,8,-14,2,-1,-1,-1,-1,2021-08-05 17:19:30,965284
4,24,18,-4,-6,-3,-5,-2,2021-08-05 17:19:30,965284
1,-12,-23,-2,0,-2,-2,-1,2021-08-05 17:19:30,965284
-5,-21,-3,-2,0,-1,0,-2,2021-08-05 17:19:30,965284
-4,21,15,2,1,-1,-3,-3,2021-08-05 17:19:30,980288
3,-27,-8,0,2,0,1,0,2021-08-05 17:19:30,980288
0,-12,2,1,0,1,0,1,2021-08-05 17:19:30,980288
0,31,13,1,-1,-1,1,-2,2021-08-05 17:19:30,980288
-3,-14,-9,-4,-1,1,0,-3,2021-08-05 17:19:30,980288
4,3,-10,0,2,-1,-1,3,2021-08-05 17:19:30,980288
-5,15,17,4,-1,1,0,0,2021-08-05 17:19:30,980288
8,1,-11,-1,-4,-2,-5,-3,2021-08-05 17:19:30,980288
-11,10,8,-5,-3,-3,-1,0,2021-08-05 17:19:30,996335
-3,-14,-5,-1,0,0,-2,-2,2021-08-05 17:19:30,996335
3,7,11,4,0,-2,-1,-1,2021-08-05 17:19:30,996335
0,-19,-22,-3,-1,1,-1,-1,2021-08-05 17:19:30,996335
20,55,10,0,-1,0,-1,1,2021-08-05 17:19:31,012369
-18,-39,-19,-1,1,0,2,2,2021-08-05 17:19:31,012369
4,-8,-16,-3,-1,-2,-2,-1,2021-08-05 17:19:31,012570
-5,-12,12,1,1,1,-3,-3,2021-08-05 17:19:31,012570
1,3,-2,-4,-3,-3,-1,-2,2021-08-05 17:19:31,058345
2,10,5,-5,0,0,0,-2,2021-08-05 17:19:31,058345
-2,9,-4,0,-1,0,0,-2,2021-08-05 17:19:31,058345
7,15,12,4,0,2,1,2,2021-08-05 17:19:31,058345
-12,-77,-20,-2,-1,0,0,-1,2021-08-05 17:19:31,058345
3,16,7,-1,-3,-3,-1,-2,2021-08-05 17:19:31,058345
-6,-10,-11,-5,0,-3,-1,-4,2021-08-05 17:19:31,058345
-4,-11,8,-5,-3,-2,-3,0,2021-08-05 17:19:31,058345
3,14,2,5,4,4,2,2,2021-08-05 17:19:31,090376
6,-7,-2,-2,-3,-1,-3,-1,2021-08-05 17:19:31,105286
-1,-8,-7,-3,-2,-1,-2,-1,2021-08-05 17:19:31,121405
-8,-8,-2,-1,-1,-2,-1,-1,2021-08-05 17:19:31,137376
-2,25,29,2,0,1,2,1,2021-08-05 17:19:31,137376
1,-8,-26,1,1,0,0,1,2021-08-05 17:19:31,137376
3,-24,-6,-4,-3,-1,-2,-2,2021-08-05 17:19:31,137376
-3,3,3,-4,-2,-3,-2,-2,2021-08-05 17:19:31,137376
2,-10,-1,3,1,0,-2,0,2021-08-05 17:19:31,137376
-1,4,13,-1,-1,-2,-1,-3,2021-08-05 17:19:31,137376
-6,-4,-3,1,-1,-1,-1,-2,2021-08-05 17:19:31,137376
8,-9,-4,3,0,0,1,3,2021-08-05 17:19:31,138284
0,-15,1,-1,1,1,1,2,2021-08-05 17:19:31,138429
0,37,3,-1,-1,-1,1,0,2021-08-05 17:19:31,138609
-3,-18,-10,-3,-3,-2,-2,-3,2021-08-05 17:19:31,138609
-9,15,8,-4,-1,-2,-3,-2,2021-08-05 17:19:31,138609
-1,-6,-6,-1,-1,-2,-4,-6,2021-08-05 17:19:31,167319
2,-2,15,-1,-2,-1,-3,-1,2021-08-05 17:19:31,167319
6,2,-8,6,3,4,5,6,2021-08-05 17:19:31,167319
3,-13,3,-4,-4,-3,-3,-2,2021-08-05 17:19:31,167319
0,7,-2,-2,-3,-2,-2,-3,2021-08-05 17:19:31,167884
-3,-24,-4,0,1,0,-2,-3,2021-08-05 17:19:31,167987
-5,0,6,-3,0,0,0,-1,2021-08-05 17:19:31,183336
-4,14,-2,0,1,-1,1,1,2021-08-05 17:19:31,199417
0,-19,-7,1,2,0,1,0,2021-08-05 17:19:31,199605
-2,-11,-6,-1,-2,-2,-1,-1,2021-08-05 17:19:31,199692
2,26,14,-2,-2,-2,-1,1,2021-08-05 17:19:31,199692
1,6,-5,2,-1,0,-1,-2,2021-08-05 17:19:31,199692
-4,-5,-3,-8,-7,-3,-3,-3,2021-08-05 17:19:31,214321
7,6,3,0,-1,1,2,4,2021-08-05 17:19:31,230319
-5,-1,-6,-4,-1,0,0,-2,2021-08-05 17:19:31,246321
-2,-3,-4,-1,-1,-2,-2,-4,2021-08-05 17:19:31,262337
-15,5,5,5,5,2,1,-2,2021-08-05 17:19:31,292397
-6,-15,-15,0,-1,-1,-4,-4,2021-08-05 17:19:31,308319
9,9,5,0,0,-3,-3,2,2021-08-05 17:19:31,323393
7,-10,-11,-7,-5,-4,-5,-1,2021-08-05 17:19:31,338358
7,19,6,-1,0,-1,0,1,2021-08-05 17:19:31,354285
-2,-2,12,3,0,1,2,3,2021-08-05 17:19:31,354285
-2,-21,-9,0,-2,-2,-1,0,2021-08-05 17:19:31,354285
-4,0,2,2,3,4,4,2,2021-08-05 17:19:31,354285
-6,4,-8,-7,-4,-3,-4,-4,2021-08-05 17:19:31,354285
-3,-8,-3,-4,-1,1,-1,-2,2021-08-05 17:19:31,354285
-1,5,-1,0,0,-2,0,-3,2021-08-05 17:19:31,354285
5,0,1,3,-1,0,1,2,2021-08-05 17:19:31,354285
-3,4,-8,-1,-3,-3,-3,-2,2021-08-05 17:19:31,355320
-4,-6,3,4,0,-1,-1,0,2021-08-05 17:19:31,355320
2,-1,0,3,3,2,1,2,2021-08-05 17:19:31,355320
-5,3,-5,-1,2,0,2,0,2021-08-05 17:19:31,355320
1,3,0,-4,-2,0,0,-2,2021-08-05 17:19:31,355320
-4,-12,-25,-6,-4,-5,-5,-8,2021-08-05 17:19:31,355320
0,5,15,5,3,3,4,6,2021-08-05 17:19:31,355320
-6,-6,0,2,-1,1,-1,-2,2021-08-05 17:19:31,355320
5,16,8,5,1,-1,-1,0,2021-08-05 17:19:31,355320
0,-1,-10,-8,-3,-4,-2,-3,2021-08-05 17:19:31,355320
-1,-7,-6,-8,-4,-3,-3,-3,2021-08-05 17:19:31,356286
-7,-7,-4,2,0,3,-1,1,2021-08-05 17:19:31,356286
-1,-18,2,1,2,-1,0,2,2021-08-05 17:19:31,356286
4,11,8,3,-1,-1,0,-1,2021-08-05 17:19:31,356286
1,16,1,1,0,-2,1,2,2021-08-05 17:19:31,356286
2,-5,-11,-8,-4,0,-1,-1,2021-08-05 17:19:31,356790
-4,-14,5,3,0,0,-1,1,2021-08-05 17:19:31,386415
0,4,2,0,0,0,-1,0,2021-08-05 17:19:31,386630
0,5,2,1,0,1,-1,0,2021-08-05 17:19:31,386630
1,-5,-6,-1,3,1,0,-1,2021-08-05 17:19:31,386938
0,-20,14,1,-1,0,0,-1,2021-08-05 17:19:31,387042
-8,-24,-17,0,0,-1,2,1,2021-08-05 17:19:31,401378
0,21,2,-7,-5,-3,-4,-6,2021-08-05 17:19:31,416319
1,-2,4,-2,-4,-5,-2,-2,2021-08-05 17:19:31,416319
0,-4,-6,-3,-2,-2,0,0,2021-08-05 17:19:31,416319
1,-4,5,-1,-2,-3,-1,-1,2021-08-05 17:19:31,416319
5,1,-7,3,2,0,0,0,2021-08-05 17:19:31,416319
10,5,-3,0,-2,-4,-4,-2,2021-08-05 17:19:31,416319
-14,17,1,-4,-5,-2,-3,-3,2021-08-05 17:19:31,448318
-1,13,7,-4,-1,0,-2,-3,2021-08-05 17:19:31,448662
-3,-35,-11,0,1,0,0,1,2021-08-05 17:19:31,448835
-6,7,0,-1,-3,-2,-1,-1,2021-08-05 17:19:31,448872
6,6,-13,0,1,-1,1,1,2021-08-05 17:19:31,449093
5,3,0,0,0,1,0,1,2021-08-05 17:19:31,449191
-6,8,1,-5,-2,-1,-3,-4,2021-08-05 17:19:31,449285
-4,-25,2,1,3,-1,0,-1,2021-08-05 17:19:31,449285
-1,7,1,-2,-3,-3,-2,0,2021-08-05 17:19:31,478319
0,2,13,5,2,2,2,1,2021-08-05 17:19:31,494326
0,0,-13,-1,-3,-2,-2,-3,2021-08-05 17:19:31,510335
5,-1,-4,-4,-1,0,-1,1,2021-08-05 17:19:31,510541
-7,-21,-7,-6,-1,-1,-2,-5,2021-08-05 17:19:31,510541
4,18,6,1,1,2,0,1,2021-08-05 17:19:31,510541
-3,-7,-5,4,-2,2,0,0,2021-08-05 17:19:31,510541
11,28,10,-2,-4,-3,-3,0,2021-08-05 17:19:31,510541
-6,7,-12,-7,-1,-2,-1,3,2021-08-05 17:19:31,510541
-7,-2,-4,-5,-1,-1,-2,-3,2021-08-05 17:19:31,510541
-4,-2,5,2,0,0,-3,-3,2021-08-05 17:19:31,510541
-2,-5,-5,0,-3,-4,-3,-2,2021-08-05 17:19:31,510541
20,13,7,6,3,3,1,1,2021-08-05 17:19:31,541358
11,-20,-6,-1,1,0,2,3,2021-08-05 17:19:31,541526
-28,3,1,-9,-4,-4,-3,-6,2021-08-05 17:19:31,541526
-7,-30,2,3,5,2,1,1,2021-08-05 17:19:31,541526
15,0,2,0,-3,-1,-1,-2,2021-08-05 17:19:31,557416
-7,7,10,3,-1,-1,-2,0,2021-08-05 17:19:31,573442
14,12,-5,-1,-2,0,-1,2,2021-08-05 17:19:31,573442
-6,-10,-3,-5,-3,-4,-4,-2,2021-08-05 17:19:31,573442
-7,-15,-5,-3,1,1,0,-1,2021-08-05 17:19:31,573442
2,4,-3,-3,-2,-2,-2,1,2021-08-05 17:19:31,573442
2,1,16,6,0,0,2,0,2021-08-05 17:19:31,573442
-12,-6,-14,-3,-2,-2,-2,-4,2021-08-05 17:19:31,588366
2,3,-2,-7,-1,-1,1,2,2021-08-05 17:19:31,603324
-2,6,0,2,-2,-4,-3,-4,2021-08-05 17:19:31,603324
8,19,5,0,2,1,1,5,2021-08-05 17:19:31,603324
-4,-12,0,-1,1,2,1,-3,2021-08-05 17:19:31,603324
-2,-4,-2,1,-2,-2,-3,-2,2021-08-05 17:19:31,619432
3,2,7,7,3,1,0,3,2021-08-05 17:19:31,619432
-3,-17,-19,-13,-4,-2,-1,-3,2021-08-05 17:19:31,619432
-4,-4,-9,-4,-1,-1,1,1,2021-08-05 17:19:31,619432
1,4,4,1,1,-2,-1,-1,2021-08-05 17:19:31,635412
2,10,11,4,-3,-3,-1,-2,2021-08-05 17:19:31,635412
2,-7,6,3,1,0,-1,0,2021-08-05 17:19:31,635412
0,10,-8,-3,-2,0,0,0,2021-08-05 17:19:31,635412
-7,-13,-1,0,-3,-2,-3,-3,2021-08-05 17:19:31,651491
-7,29,-13,-5,1,2,1,2,2021-08-05 17:19:31,667540
-6,-9,15,4,2,-1,-2,-2,2021-08-05 17:19:31,667540
7,26,0,-1,-2,-3,-4,-6,2021-08-05 17:19:31,667540
2,25,9,1,-2,-1,-1,0,2021-08-05 17:19:31,683461
4,-23,4,1,0,0,0,-1,2021-08-05 17:19:31,698418
-1,-6,-6,-4,-4,-2,-1,-4,2021-08-05 17:19:31,708463
-7,1,-5,-5,-3,1,-1,0,2021-08-05 17:19:31,708463
0,6,6,14,2,-1,-2,3,2021-08-05 17:19:31,708463
6,-6,-19,-20,-5,-2,-4,-1,2021-08-05 17:19:31,709213
-3,10,10,2,-1,-1,-1,0,2021-08-05 17:19:31,709298
3,-6,11,4,1,-1,0,1,2021-08-05 17:19:31,709298
-2,-16,-20,-7,-1,-1,-2,-2,2021-08-05 17:19:31,709409
-11,-40,-2,5,2,0,-1,-2,2021-08-05 17:19:31,709409
4,25,-4,0,-1,0,1,2,2021-08-05 17:19:31,709409
3,5,18,2,-4,-2,-3,-4,2021-08-05 17:19:31,709409
-5,-6,-2,-3,-4,-4,-2,-5,2021-08-05 17:19:31,743466
5,7,-4,1,2,2,3,7,2021-08-05 17:19:31,743466
-6,-26,-8,0,1,0,-2,-2,2021-08-05 17:19:31,743466
0,6,4,5,3,1,2,3,2021-08-05 17:19:31,743466
-2,2,16,8,-2,0,-1,-3,2021-08-05 17:19:31,743466
-2,6,-15,-18,-4,-3,-3,-6,2021-08-05 17:19:31,743466
2,-18,-7,1,-1,0,0,2,2021-08-05 17:19:31,759668
-6,70,-5,4,1,-3,1,0,2021-08-05 17:19:31,774525
8,-3,6,0,1,0,2,5,2021-08-05 17:19:31,789446
-4,-1,6,3,0,-3,-1,-3,2021-08-05 17:19:31,789446
-1,3,-2,0,-2,-2,0,-2,2021-08-05 17:19:31,789446
-5,-48,-17,-9,-4,-4,-3,-5,2021-08-05 17:19:31,789830
-1,4,4,4,4,1,3,1,2021-08-05 17:19:31,789934
-1,-73,3,7,-2,-2,0,0,2021-08-05 17:19:31,789934
-4,97,-3,-8,0,-1,-1,-3,2021-08-05 17:19:31,789934
5,-9,6,2,-2,-2,-1,3,2021-08-05 17:19:31,789934
4,16,7,-3,-3,-2,-3,-3,2021-08-05 17:19:31,821507
4,-7,-9,-9,-4,-3,0,-3,2021-08-05 17:19:31,837494
-12,-51,-11,0,-1,0,-2,-2,2021-08-05 17:19:31,852451
3,0,2,3,2,1,3,2,2021-08-05 17:19:31,867535
-7,1,-7,-5,-1,-2,-2,-1,2021-08-05 17:19:31,867762
-1,19,10,9,2,0,1,1,2021-08-05 17:19:31,867762
2,-29,7,-3,-3,-2,-4,-3,2021-08-05 17:19:31,867762
-1,26,-2,-4,0,2,-1,0,2021-08-05 17:19:31,867762
-2,-27,-11,-8,-3,-4,-1,0,2021-08-05 17:19:31,867762
-6,15,4,8,2,1,0,-1,2021-08-05 17:19:31,867762
5,-1,-12,-14,-3,-1,1,-1,2021-08-05 17:19:31,868409
0,-3,3,4,1,2,-1,2,2021-08-05 17:19:31,868409
-5,-4,4,-3,-2,-1,-4,-5,2021-08-05 17:19:31,868409
-1,15,5,8,-2,-1,-1,0,2021-08-05 17:19:31,868409
-1,5,-14,-10,-3,-1,-4,-4,2021-08-05 17:19:31,883698
-2,-18,-3,-6,-4,-3,-2,-2,2021-08-05 17:19:31,883698
-2,-2,3,6,0,1,-1,-2,2021-08-05 17:19:31,898548
-2,36,-1,-7,-1,-2,-3,-2,2021-08-05 17:19:31,898548
1,-23,-2,-2,-4,0,-1,-1,2021-08-05 17:19:31,913408
-2,-23,-5,-6,0,1,-1,-2,2021-08-05 17:19:31,913408
3,-5,-10,0,0,0,1,3,2021-08-05 17:19:31,913408
0,18,14,2,-2,-2,-1,-3,2021-08-05 17:19:31,913408
-9,-53,2,14,2,-1,-1,-2,2021-08-05 17:19:31,913408
7,61,-1,-6,2,1,2,4,2021-08-05 17:19:31,913408
7,16,14,4,-2,-2,-2,-1,2021-08-05 17:19:31,929537
-1,-46,-19,-10,-4,-1,-1,1,2021-08-05 17:19:31,929537
-7,10,2,4,2,2,0,0,2021-08-05 17:19:31,945460
-4,-2,1,7,-2,-3,-4,-3,2021-08-05 17:19:31,945460
5,-5,-3,-4,-2,-2,-1,2,2021-08-05 17:19:31,961444
21,-32,12,-2,0,-1,-1,1,2021-08-05 17:19:31,961444
-16,63,-12,-4,-1,-1,-1,-1,2021-08-05 17:19:31,961444
-4,-33,-12,-1,0,2,-2,-3,2021-08-05 17:19:31,961444
-5,9,3,0,1,2,2,3,2021-08-05 17:19:31,976461
-3,-3,1,1,0,1,0,-2,2021-08-05 17:19:31,976461
10,7,8,4,0,0,0,4,2021-08-05 17:19:31,976461
-8,-11,0,-6,1,1,-1,-5,2021-08-05 17:19:31,976461
0,18,-18,-1,-2,-2,-2,-5,2021-08-05 17:19:31,991919
-4,6,9,3,-2,-3,-3,-1,2021-08-05 17:19:31,991919
8,-8,17,9,-3,-6,-3,-4,2021-08-05 17:19:31,991919
-1,-2,-15,-4,-2,-1,0,2,2021-08-05 17:19:31,991919
1,-19,-5,-16,0,3,2,3,2021-08-05 17:19:32,031410
-12,11,21,14,2,0,-1,0,2021-08-05 17:19:32,031410
13,20,8,-3,0,-1,0,0,2021-08-05 17:19:32,031410
2,-25,-11,-3,1,0,4,1,2021-08-05 17:19:32,038478
-10,-21,1,0,-1,0,-2,-4,2021-08-05 17:19:32,053742
-1,26,-30,-13,-1,2,2,1,2021-08-05 17:19:32,053742
0,-17,-7,-12,-4,-1,-2,-3,2021-08-05 17:19:32,053993
-4,2,9,2,-2,-3,0,-1,2021-08-05 17:19:32,053993
5,11,3,8,2,2,0,2,2021-08-05 17:19:32,053993
-11,11,-7,-7,-3,-2,-3,-3,2021-08-05 17:19:32,053993
4,-5,12,9,2,1,1,1,2021-08-05 17:19:32,053993
4,4,4,-7,-3,0,0,-2,2021-08-05 17:19:32,054408
-5,-4,-14,-2,-1,-2,0,-1,2021-08-05 17:19:32,085504
0,-24,7,4,1,0,1,-1,2021-08-05 17:19:32,085504
2,-27,-8,1,0,0,-1,0,2021-08-05 17:19:32,085504
3,69,20,15,2,0,0,2,2021-08-05 17:19:32,085504
-9,-16,-7,-21,-5,-4,-4,-6,2021-08-05 17:19:32,100490
4,9,-6,-3,-4,-2,-1,-3,2021-08-05 17:19:32,115520
-10,-39,-4,-1,1,1,0,1,2021-08-05 17:19:32,130447
-3,-29,-4,1,-4,-3,-4,-3,2021-08-05 17:19:32,146460
0,8,1,4,2,1,1,3,2021-08-05 17:19:32,162537
3,4,-3,2,0,-1,0,1,2021-08-05 17:19:32,162537
0,-2,-15,-22,-4,-2,-1,-1,2021-08-05 17:19:32,162537
-3,2,17,12,2,-2,-4,-4,2021-08-05 17:19:32,162537
-1,1,-7,-2,1,-1,1,-2,2021-08-05 17:19:32,162537
-4,-25,-15,-2,-1,0,-2,0,2021-08-05 17:19:32,162537
3,24,13,8,1,-1,0,-3,2021-08-05 17:19:32,162537
3,-9,1,-2,-1,0,0,3,2021-08-05 17:19:32,162537
-10,-37,2,1,0,-1,-5,-6,2021-08-05 17:19:32,162537
3,37,9,5,2,0,-1,1,2021-08-05 17:19:32,162537
6,10,4,3,-2,-4,-2,0,2021-08-05 17:19:32,162537
-10,-45,-16,-15,-2,0,1,-3,2021-08-05 17:19:32,163410
9,36,12,7,2,2,4,3,2021-08-05 17:19:32,178460
-11,-17,-19,-8,-3,0,-1,-5,2021-08-05 17:19:32,178460
1,14,2,-6,-2,-1,-1,2,2021-08-05 17:19:32,178460
-7,-43,-6,2,0,-5,-3,-3,2021-08-05 17:19:32,178460
2,49,-2,-15,-6,-3,2,1,2021-08-05 17:19:32,194509
10,-46,11,5,3,1,0,2,2021-08-05 17:19:32,209410
-8,67,-2,1,0,1,-2,-4,2021-08-05 17:19:32,224461
3,-25,-2,10,1,0,-2,0,2021-08-05 17:19:32,224461
-11,-18,2,1,-2,-2,-2,-4,2021-08-05 17:19:32,224461
-2,10,-8,-9,-3,-2,-2,0,2021-08-05 17:19:32,224461
0,-24,8,7,1,0,2,4,2021-08-05 17:19:32,224461
-8,-14,7,4,-1,-1,-1,-1,2021-08-05 17:19:32,224461
-9,14,-19,-4,0,-2,-5,-7,2021-08-05 17:19:32,240570
7,7,4,-1,2,2,4,9,2021-08-05 17:19:32,240570
1,-17,0,3,1,-2,-2,-2,2021-08-05 17:19:32,240570
0,22,-2,-3,1,-2,0,1,2021-08-05 17:19:32,240570
6,-12,16,17,1,0,0,1,2021-08-05 17:19:32,256489
-11,-48,0,0,-1,-1,-2,-1,2021-08-05 17:19:32,256489
-6,43,-24,-26,-10,-4,-5,-11,2021-08-05 17:19:32,256489
8,12,-3,-12,-1,0,1,2,2021-08-05 17:19:32,256489
0,-11,6,4,0,-1,-2,2,2021-08-05 17:19:32,286613
-2,7,5,5,-3,-4,-3,-5,2021-08-05 17:19:32,302507
4,-12,30,28,6,2,5,6,2021-08-05 17:19:32,302507
-8,-24,-54,-45,-8,0,-3,-8,2021-08-05 17:19:32,302720
10,12,-6,-3,-1,-1,2,3,2021-08-05 17:19:32,302720
-3,17,9,5,-2,-2,-2,-3,2021-08-05 17:19:32,302720
-2,-8,-5,-13,-2,-1,-3,-1,2021-08-05 17:19:32,302720
3,11,9,5,0,-1,1,3,2021-08-05 17:19:32,302720
-9,-23,-15,-3,0,1,-2,-3,2021-08-05 17:19:32,317548
7,12,3,2,0,-2,-1,1,2021-08-05 17:19:32,333583
-3,12,36,22,2,0,-1,0,2021-08-05 17:19:32,333583
3,-12,-9,-13,-5,-2,-3,-5,2021-08-05 17:19:32,333583
6,28,-25,-12,-3,-1,-1,0,2021-08-05 17:19:32,333583
-4,12,5,0,-2,-1,-2,-5,2021-08-05 17:19:32,333583
-2,-66,-18,5,3,0,2,2,2021-08-05 17:19:32,349444
-9,80,11,8,1,0,0,-1,2021-08-05 17:19:32,355429
1,-45,11,8,1,-1,-1,2,2021-08-05 17:19:32,355429
-1,15,-14,-12,-4,-2,-2,-4,2021-08-05 17:19:32,355429
2,8,1,-2,-2,-1,0,2,2021-08-05 17:19:32,356445
0,-7,12,6,-1,-2,0,-3,2021-08-05 17:19:32,356445
5,-4,5,1,-1,0,0,1,2021-08-05 17:19:32,380471
-7,0,-16,-1,0,0,0,-3,2021-08-05 17:19:32,380605
-6,-7,-6,-6,-2,-1,0,-1,2021-08-05 17:19:32,380605
-1,0,3,5,1,0,-1,-2,2021-08-05 17:19:32,380605
-6,-16,5,2,1,-1,-1,-2,2021-08-05 17:19:32,395461
-1,9,5,3,0,-1,0,0,2021-08-05 17:19:32,411444
-1,0,-8,-9,-1,0,-1,0,2021-08-05 17:19:32,427001
3,-5,-22,-9,-1,0,1,2,2021-08-05 17:19:32,427001
-3,-1,-2,-9,-6,-2,-5,-3,2021-08-05 17:19:32,442462
-2,-6,0,4,1,-3,-2,0,2021-08-05 17:19:32,458475
3,-1,20,16,1,-1,0,2,2021-08-05 17:19:32,474410
7,-10,-19,-12,-1,-1,-2,-3,2021-08-05 17:19:32,474548
-12,-16,6,2,-1,1,0,-2,2021-08-05 17:19:32,474724
-3,10,0,-7,-4,-1,-3,-4,2021-08-05 17:19:32,474724
5,-9,-12,-2,1,0,0,0,2021-08-05 17:19:32,474724
14,27,12,5,-2,1,-3,3,2021-08-05 17:19:32,474724
3,-4,-1,2,0,-1,1,1,2021-08-05 17:19:32,474724
-5,-44,-4,1,-1,0,1,-2,2021-08-05 17:19:32,474724
-5,34,6,-3,-2,-1,-4,-5,2021-08-05 17:19:32,475444
-7,-14,15,14,1,1,2,2,2021-08-05 17:19:32,475444
7,31,-29,-19,-5,-2,-2,0,2021-08-05 17:19:32,475444
2,-6,9,2,0,-1,-1,1,2021-08-05 17:19:32,475444
1,-19,-17,-3,3,0,1,-1,2021-08-05 17:19:32,475444
-2,1,20,18,0,-2,1,0,2021-08-05 17:19:32,475444
-5,-8,-7,-11,-3,-2,-2,-2,2021-08-05 17:19:32,504489
1,7,-13,-7,-1,1,1,-1,2021-08-05 17:19:32,504489
4,-4,0,-4,-3,-3,-4,-1,2021-08-05 17:19:32,519525
1,7,2,0,0,-2,-1,-2,2021-08-05 17:19:32,519525
-8,10,11,12,3,0,1,-2,2021-08-05 17:19:32,519525
8,19,-3,-1,-2,-1,0,0,2021-08-05 17:19:32,519525
0,-6,0,-5,0,1,2,1,2021-08-05 17:19:32,519525
-3,-5,5,4,-1,-3,-2,-2,2021-08-05 17:19:32,519525
4,-4,2,-5,0,0,1,1,2021-08-05 17:19:32,550573
-5,2,1,-3,-2,0,-2,-3,2021-08-05 17:19:32,566568
1,13,2,3,-1,0,-2,1,2021-08-05 17:19:32,582569
-5,-29,-17,2,0,-1,-3,-4,2021-08-05 17:19:32,582825
2,5,21,10,4,1,3,0,2021-08-05 17:19:32,582981
-4,13,-13,-10,-4,-2,-2,-4,2021-08-05 17:19:32,582981
4,-10,-12,-6,-2,-2,-1,0,2021-08-05 17:19:32,582981
-6,5,-5,-7,-2,-1,-2,-2,2021-08-05 17:19:32,582981
-5,-8,0,5,-1,-2,-3,0,2021-08-05 17:19:32,582981
0,-15,12,10,0,0,0,2,2021-08-05 17:19:32,582981
-1,17,-9,-10,-3,-1,-2,-7,2021-08-05 17:19:32,582981
10,11,7,-2,-2,1,2,7,2021-08-05 17:19:32,583568
0,-2,5,7,1,-2,-1,-5,2021-08-05 17:19:32,598674
5,4,-3,-5,-1,-2,0,3,2021-08-05 17:19:32,598674
-10,-23,-15,-5,-1,-2,0,-3,2021-08-05 17:19:32,598815
-4,-5,4,1,-1,1,-1,0,2021-08-05 17:19:32,598815
1,5,-7,-7,-2,1,0,0,2021-08-05 17:19:32,613584
-1,-10,-10,-4,-2,0,-2,-2,2021-08-05 17:19:32,613584
2,8,5,4,-1,1,-1,-1,2021-08-05 17:19:32,628572
-3,10,21,12,0,-1,1,0,2021-08-05 17:19:32,628572
1,13,-9,-3,-7,-5,-3,-1,2021-08-05 17:19:32,644583
2,17,-8,-13,0,-1,0,0,2021-08-05 17:19:32,644800
-10,4,2,-3,0,-2,-3,-3,2021-08-05 17:19:32,660608
-2,-27,-2,4,0,0,-2,-2,2021-08-05 17:19:32,660608
-5,-51,-1,6,0,-1,-1,0,2021-08-05 17:19:32,660608
13,33,8,8,2,2,2,4,2021-08-05 17:19:32,660608
-13,13,-11,-4,-4,-2,1,-2,2021-08-05 17:19:32,676536
-2,7,-7,-12,-2,-1,0,-3,2021-08-05 17:19:32,676682
4,-4,0,1,1,1,3,6,2021-08-05 17:19:32,677534
-6,-10,-3,-3,-2,-3,-3,-5,2021-08-05 17:19:32,677534
5,-19,7,6,1,-1,0,1,2021-08-05 17:19:32,678278
-11,-54,-4,3,2,-2,-2,-2,2021-08-05 17:19:32,678534
4,63,-7,-10,0,2,-2,0,2021-08-05 17:19:32,708566
4,-17,10,4,0,0,-1,0,2021-08-05 17:19:32,724586
-2,6,-2,1,-1,-1,-1,-2,2021-08-05 17:19:32,724586
-1,3,-4,-3,1,-1,-1,-2,2021-08-05 17:19:32,724586
7,-22,-1,2,1,0,0,3,2021-08-05 17:19:32,724586
-7,1,-4,1,-2,-1,0,-2,2021-08-05 17:19:32,724586
1,-8,4,-3,-3,-2,-2,0,2021-08-05 17:19:32,724586
-3,-19,-13,-1,-2,-1,1,2,2021-08-05 17:19:32,724586
-5,6,-4,-11,0,1,0,-3,2021-08-05 17:19:32,740611
-7,3,5,4,2,2,2,-2,2021-08-05 17:19:32,740764
7,11,3,2,-1,-1,-2,-2,2021-08-05 17:19:32,740764
3,4,7,3,-4,-5,-5,0,2021-08-05 17:19:32,740764
2,12,10,8,0,-1,-3,-1,2021-08-05 17:19:32,756532
1,-13,-15,-9,-5,-1,-1,2,2021-08-05 17:19:32,756532
-2,-16,-6,-6,0,1,1,4,2021-08-05 17:19:32,756532
-1,17,5,7,2,2,2,0,2021-08-05 17:19:32,756532
-7,-21,-5,-4,-2,-2,-2,-5,2021-08-05 17:19:32,803538
-5,6,3,1,-3,-3,-2,-3,2021-08-05 17:19:32,803836
1,-8,4,7,2,2,2,2,2021-08-05 17:19:32,803836
-2,22,-2,-8,-4,-1,-2,-4,2021-08-05 17:19:32,803836
-3,-7,7,4,-1,0,-2,-3,2021-08-05 17:19:32,803836
0,4,0,2,2,-2,-1,-1,2021-08-05 17:19:32,803836
3,-10,-16,-12,0,1,1,3,2021-08-05 17:19:32,803836
-1,-5,-3,5,2,1,0,-2,2021-08-05 17:19:32,803836
-2,17,2,0,-2,-3,-2,-2,2021-08-05 17:19:32,833534
-2,3,-2,-4,-7,-3,-3,-3,2021-08-05 17:19:32,849639
-1,4,7,5,1,0,0,-2,2021-08-05 17:19:32,849639
-1,-5,-5,-3,2,1,0,1,2021-08-05 17:19:32,849639
-1,-5,1,0,2,0,-1,-2,2021-08-05 17:19:32,849639
0,0,-6,5,0,-1,0,1,2021-08-05 17:19:32,849639
-1,-16,2,2,-2,-1,-1,-1,2021-08-05 17:19:32,849639
-2,16,-5,-7,-1,-1,0,-1,2021-08-05 17:19:32,849639
4,5,7,2,1,-2,3,2,2021-08-05 17:19:32,849639
-2,-6,-4,0,0,1,-1,-2,2021-08-05 17:19:32,849639
-5,-12,-16,-5,-1,1,-2,-3,2021-08-05 17:19:32,865569
1,3,19,5,1,1,0,-1,2021-08-05 17:19:32,865569
-5,-8,-23,-8,-5,-3,-3,-3,2021-08-05 17:19:32,881650
0,1,7,1,-1,-1,-1,-1,2021-08-05 17:19:32,897704
0,2,6,4,-1,0,-3,-1,2021-08-05 17:19:32,913591
-2,-11,3,6,0,-1,-2,-2,2021-08-05 17:19:32,913591
-1,-3,-5,-6,-2,0,2,2,2021-08-05 17:19:32,913591
-3,9,-3,-1,1,-2,-2,-3,2021-08-05 17:19:32,913591
0,10,-6,-13,-5,-3,-2,-3,2021-08-05 17:19:32,913591
1,-5,6,1,0,-2,1,0,2021-08-05 17:19:32,913591
-9,-8,2,4,-1,-2,-3,-4,2021-08-05 17:19:32,913591
11,9,-1,-7,-2,1,-1,2,2021-08-05 17:19:32,913591
-3,-1,5,10,1,-1,0,-1,2021-08-05 17:19:32,929536
-2,12,-13,-19,-3,-2,-1,0,2021-08-05 17:19:32,929536
4,2,0,1,-1,-1,0,-1,2021-08-05 17:19:32,944584
-6,-13,-2,1,0,0,1,-1,2021-08-05 17:19:32,944584
-1,12,4,0,-2,-2,-2,-2,2021-08-05 17:19:32,944584
-1,-16,-7,5,0,0,0,-1,2021-08-05 17:19:32,944584
0,3,-3,-8,-3,-2,-3,-2,2021-08-05 17:19:32,960625
0,-3,-2,-6,1,0,0,0,2021-08-05 17:19:32,960625
-8,-35,-5,2,0,-1,-3,-6,2021-08-05 17:19:32,960625
-3,8,-14,-6,-2,-1,0,-2,2021-08-05 17:19:32,960625
7,19,10,6,3,1,1,6,2021-08-05 17:19:32,991632
1,1,10,4,0,-3,-1,1,2021-08-05 17:19:33,004570
-4,-17,-5,-3,-2,-3,-1,1,2021-08-05 17:19:33,021588
-2,6,2,1,0,-1,-2,0,2021-08-05 17:19:33,021588
-6,-29,-8,2,-1,-1,-1,-2,2021-08-05 17:19:33,021588
0,27,1,-3,-2,0,0,0,2021-08-05 17:19:33,021588
4,10,9,-2,-1,0,-2,-1,2021-08-05 17:19:33,021588
0,1,2,1,-1,-1,-2,0,2021-08-05 17:19:33,021588
-1,-5,4,2,-1,1,-2,-2,2021-08-05 17:19:33,021588
-5,-22,-22,-7,-1,-1,0,-2,2021-08-05 17:19:33,022570
4,13,-1,-1,-1,0,1,2,2021-08-05 17:19:33,022570
3,-1,-2,-3,-2,-1,-2,0,2021-08-05 17:19:33,022570
-3,-12,1,2,0,1,0,-1,2021-08-05 17:19:33,053532
-4,6,13,5,0,-1,-1,-4,2021-08-05 17:19:33,068584
9,20,-1,-3,-2,-3,1,2,2021-08-05 17:19:33,068584
-3,-4,-1,-8,-1,1,0,-2,2021-08-05 17:19:33,068584
-4,0,0,0,2,-3,-2,-3,2021-08-05 17:19:33,068584
1,-11,3,5,1,0,-1,1,2021-08-05 17:19:33,068584
-4,-1,0,-1,-2,0,-1,0,2021-08-05 17:19:33,068584
-1,-4,-10,-1,2,0,-2,-2,2021-08-05 17:19:33,068584
-1,-2,-1,-5,-3,-1,1,0,2021-08-05 17:19:33,084585
-3,-4,-4,-2,-1,-1,-3,-3,2021-08-05 17:19:33,100626
-1,0,0,2,0,-1,-1,-1,2021-08-05 17:19:33,100626
4,2,10,4,0,-1,2,4,2021-08-05 17:19:33,100626
-3,1,-3,-3,-1,0,-2,-2,2021-08-05 17:19:33,100626
-4,-9,-2,-2,-1,-1,-3,-2,2021-08-05 17:19:33,100626
1,19,-3,-1,0,0,2,2,2021-08-05 17:19:33,100626
1,-17,3,2,-3,-2,-1,-2,2021-08-05 17:19:33,100626
2,11,-6,-1,0,0,0,-1,2021-08-05 17:19:33,116650
-2,-1,2,-3,-3,-1,0,0,2021-08-05 17:19:33,132656
-7,-8,-5,-2,-1,-2,-2,-5,2021-08-05 17:19:33,147730
0,12,0,-5,-2,-2,-2,-1,2021-08-05 17:19:33,147730
4,4,-3,2,1,-3,0,-1,2021-08-05 17:19:33,147730
0,-4,-8,-3,2,2,2,1,2021-08-05 17:19:33,147730
-1,-7,3,-2,-1,-1,-3,-1,2021-08-05 17:19:33,147730
-2,-2,-8,-2,0,0,0,-2,2021-08-05 17:19:33,147730
-3,0,3,-3,-4,-2,-2,-3,2021-08-05 17:19:33,162654
-1,0,2,0,1,-2,0,0,2021-08-05 17:19:33,162654
1,-5,1,1,-2,-1,-2,-2,2021-08-05 17:19:33,162880
-3,3,7,4,0,-1,0,0,2021-08-05 17:19:33,163008
-3,6,-4,-3,-1,-1,0,0,2021-08-05 17:19:33,178571
2,-2,-3,-2,-2,-1,1,-2,2021-08-05 17:19:33,194590
0,13,3,2,-1,-2,-1,-3,2021-08-05 17:19:33,224585
2,9,1,-2,-1,-1,-1,0,2021-08-05 17:19:33,224585
-4,-11,-6,-3,-1,1,-1,-2,2021-08-05 17:19:33,224585
-4,-5,-2,-4,-3,-2,-2,-4,2021-08-05 17:19:33,224585
3,-4,1,3,2,3,3,1,2021-08-05 17:19:33,224585
-3,-3,-7,-5,-2,0,-1,-2,2021-08-05 17:19:33,224585
2,5,11,4,-1,-1,-1,0,2021-08-05 17:19:33,224585
-1,-1,12,10,1,-2,-4,-3,2021-08-05 17:19:33,224585
-1,-8,-20,-12,-2,-2,1,2,2021-08-05 17:19:33,224585
2,0,-10,-9,-1,1,-1,1,2021-08-05 17:19:33,225568
0,-4,1,3,2,0,0,0,2021-08-05 17:19:33,240672
1,6,1,2,-1,-1,-2,0,2021-08-05 17:19:33,240672
-5,-6,6,8,1,-1,-2,-2,2021-08-05 17:19:33,255535
-3,-7,0,1,0,0,-2,-3,2021-08-05 17:19:33,255535
-1,-7,-8,-3,-2,-2,-1,-2,2021-08-05 17:19:33,255535
3,24,0,0,-1,1,0,1,2021-08-05 17:19:33,255535
3,5,7,-3,-1,-2,-2,-1,2021-08-05 17:19:33,255535
-4,-10,-1,-1,-1,0,-1,-1,2021-08-05 17:19:33,255535
-2,3,0,0,-1,0,-1,-4,2021-08-05 17:19:33,286646
-1,-8,-5,-3,-1,1,2,1,2021-08-05 17:19:33,286646
-4,-3,-4,-2,-1,-2,0,-2,2021-08-05 17:19:33,286646
-2,2,4,2,1,-1,-2,-1,2021-08-05 17:19:33,286646
2,-8,-2,0,1,1,1,1,2021-08-05 17:19:33,302568
-3,-5,-1,-3,0,0,-1,-1,2021-08-05 17:19:33,302568
-2,-1,-2,-3,-3,-2,-2,-4,2021-08-05 17:19:33,302568
-3,-19,3,4,0,1,0,0,2021-08-05 17:19:33,302568
2,22,5,4,-1,-2,-1,1,2021-08-05 17:19:33,318584
5,2,-9,-9,-2,-1,-1,1,2021-08-05 17:19:33,318584
-1,-9,-1,1,0,2,0,0,2021-08-05 17:19:33,318584
-2,1,-3,-5,-3,-2,-1,-3,2021-08-05 17:19:33,318584
-2,-7,-2,2,2,1,-2,1,2021-08-05 17:19:33,348544
-1,-5,-4,1,-1,-2,-1,-1,2021-08-05 17:19:33,364597
-2,-2,2,0,-2,-1,-1,-1,2021-08-05 17:19:33,380679
0,4,-2,0,-1,1,-1,-1,2021-08-05 17:19:33,380679
1,0,0,-3,-2,-1,0,0,2021-08-05 17:19:33,380679
-1,-7,-3,0,0,0,-4,-3,2021-08-05 17:19:33,380679
-4,-4,-4,-4,-2,-1,-2,-1,2021-08-05 17:19:33,380679
0,8,3,1,-2,-2,-1,-2,2021-08-05 17:19:33,380679
-2,-16,-7,-2,-3,-2,-3,-3,2021-08-05 17:19:33,380679
-1,9,3,0,-2,0,1,1,2021-08-05 17:19:33,380679
5,4,11,2,0,-1,-1,1,2021-08-05 17:19:33,380679
-4,-28,-1,1,-1,-1,-1,-1,2021-08-05 17:19:33,380679
1,27,-7,-8,-2,-3,-2,-3,2021-08-05 17:19:33,412642
0,6,-3,-1,-3,-4,-2,-2,2021-08-05 17:19:33,427653
1,-3,0,2,1,1,1,2,2021-08-05 17:19:33,427653
0,2,1,1,0,-2,-2,-1,2021-08-05 17:19:33,427653
-4,-12,-2,-1,-1,0,0,-3,2021-08-05 17:19:33,427653
-6,-8,-2,-2,-1,-1,-2,-4,2021-08-05 17:19:33,427653
-2,-2,-2,-3,-2,-2,-2,-2,2021-08-05 17:19:33,427653
6,7,0,-1,1,0,0,1,2021-08-05 17:19:33,427653
1,-7,-1,-2,1,1,-1,3,2021-08-05 17:19:33,443632
-1,12,2,2,-1,0,0,1,2021-08-05 17:19:33,459586
-3,-4,-2,-1,-3,-3,-1,-1,2021-08-05 17:19:33,474805
-5,1,-7,-6,-3,-3,-3,-6,2021-08-05 17:19:33,474805
2,-15,4,4,0,1,1,5,2021-08-05 17:19:33,474805
4,7,6,2,1,2,2,2,2021-08-05 17:19:33,474805
-3,-1,-7,-4,-2,1,-1,-2,2021-08-05 17:19:33,474805
1,9,-3,-2,-2,-1,-3,-1,2021-08-05 17:19:33,474805
-2,-4,-4,-7,-2,0,-1,0,2021-08-05 17:19:33,474805
-5,-18,-6,-3,-2,0,-1,-3,2021-08-05 17:19:33,474805
-1,1,1,4,3,2,2,-2,2021-08-05 17:19:33,504569
3,11,9,7,1,-3,1,0,2021-08-05 17:19:33,519567
-2,0,1,-2,-4,-5,-5,-7,2021-08-05 17:19:33,534592
4,-8,0,0,-1,-2,1,3,2021-08-05 17:19:33,534754
2,8,-4,-5,-2,-3,-3,0,2021-08-05 17:19:33,534754
0,-3,-2,-2,-2,1,1,2,2021-08-05 17:19:33,534754
-2,7,9,4,1,-1,1,0,2021-08-05 17:19:33,534754
-4,-5,-6,-6,0,-1,-1,-2,2021-08-05 17:19:33,534754
-1,-6,-7,-4,-3,0,0,-1,2021-08-05 17:19:33,534754
-1,1,0,0,1,-1,1,1,2021-08-05 17:19:33,535535
-4,-3,0,-1,-3,-2,-2,-4,2021-08-05 17:19:33,535535
-1,1,4,1,0,0,-1,-2,2021-08-05 17:19:33,535535
0,2,0,1,0,-2,-2,-1,2021-08-05 17:19:33,550585
-1,-3,-7,-3,0,0,-1,0,2021-08-05 17:19:33,550585
3,8,0,1,1,0,3,2,2021-08-05 17:19:33,565568
-2,-6,-1,-2,-2,-2,-1,-2,2021-08-05 17:19:33,580568
-2,-2,-1,-1,-1,0,0,-2,2021-08-05 17:19:33,596586
-3,0,-3,-1,-5,-2,-2,-1,2021-08-05 17:19:33,596586
-2,-11,1,0,-1,-2,-1,-1,2021-08-05 17:19:33,611727
-1,11,-8,-2,-1,-1,-2,-1,2021-08-05 17:19:33,627629
-2,2,2,-2,-2,-3,-4,-2,2021-08-05 17:19:33,641569
0,1,2,0,0,0,1,0,2021-08-05 17:19:33,641569
0,0,-1,1,1,3,1,0,2021-08-05 17:19:33,641569
0,-5,6,1,-1,-1,-1,0,2021-08-05 17:19:33,642532
-2,-6,-4,-5,-1,-2,-1,-1,2021-08-05 17:19:33,642532
-2,20,-1,-4,-2,-1,-1,-1,2021-08-05 17:19:33,642532
0,2,-3,-3,-1,-2,-1,-2,2021-08-05 17:19:33,642532
-3,-7,0,1,0,1,0,0,2021-08-05 17:19:33,642532
4,5,3,4,1,3,4,4,2021-08-05 17:19:33,642532
1,-8,0,1,-1,-2,-2,-1,2021-08-05 17:19:33,642532
-4,-2,-6,-4,-2,-1,-2,-1,2021-08-05 17:19:33,642532
-1,-1,-2,-5,-5,-3,-4,-4,2021-08-05 17:19:33,642532
-3,-7,-1,0,0,0,1,-1,2021-08-05 17:19:33,643535
-3,-10,-1,-1,0,-1,-1,0,2021-08-05 17:19:33,643535
1,12,2,0,0,-1,-1,1,2021-08-05 17:19:33,657600
0,-5,1,-1,-1,-2,-1,0,2021-08-05 17:19:33,672532
2,-2,-1,1,0,0,-2,1,2021-08-05 17:19:33,672532
-2,-3,-1,-4,-1,-1,-3,-3,2021-08-05 17:19:33,672532
-4,-3,-6,-5,-3,-3,-2,-2,2021-08-05 17:19:33,672532
1,-3,-5,-1,0,0,0,2,2021-08-05 17:19:33,672532
-3,-3,0,1,-1,-1,-1,-1,2021-08-05 17:19:33,687633
0,0,-1,4,-1,-2,-1,0,2021-08-05 17:19:33,687633
0,-3,0,0,-2,1,1,1,2021-08-05 17:19:33,703659
0,-1,-4,-2,-2,-2,-1,-2,2021-08-05 17:19:33,718710
-1,-15,3,1,-1,-1,-3,-1,2021-08-05 17:19:33,718814
0,13,-2,-3,0,0,-1,-2,2021-08-05 17:19:33,718951
1,2,2,-2,-2,0,-1,0,2021-08-05 17:19:33,718951
-1,-10,0,1,0,-1,0,-2,2021-08-05 17:19:33,718951
-1,11,-1,-1,-1,-1,0,-1,2021-08-05 17:19:33,718951
0,-4,11,0,-2,1,1,0,2021-08-05 17:19:33,718951
2,-3,-13,-3,0,2,-1,1,2021-08-05 17:19:33,748681
1,8,4,-1,-3,-4,-3,-3,2021-08-05 17:19:33,764624
2,-3,-3,1,-1,-2,0,1,2021-08-05 17:19:33,764624
-1,-2,-1,0,0,0,1,0,2021-08-05 17:19:33,764624
-4,-17,1,1,-2,-1,-1,-3,2021-08-05 17:19:33,764624
-3,-1,-1,0,0,0,0,0,2021-08-05 17:19:33,764624
1,13,-1,-4,-2,-2,-2,-2,2021-08-05 17:19:33,764624
0,-12,-8,-2,0,-2,-1,-1,2021-08-05 17:19:33,764624
5,4,3,2,2,2,2,3,2021-08-05 17:19:33,780581
-4,-4,-3,-4,-3,-2,-2,-3,2021-08-05 17:19:33,796464
-3,-3,1,-3,-1,1,-3,-1,2021-08-05 17:19:33,811498
-1,-3,-3,0,1,-1,1,0,2021-08-05 17:19:33,811498
-3,-2,1,-2,1,-2,-2,-2,2021-08-05 17:19:33,811498
-2,2,0,0,-1,0,0,-1,2021-08-05 17:19:33,811498
0,2,1,2,-1,1,-1,-1,2021-08-05 17:19:33,811498
-1,-2,0,0,1,-1,-1,1,2021-08-05 17:19:33,811498
-3,1,-4,-6,-3,0,-3,-4,2021-08-05 17:19:33,827572
1,0,-1,0,1,1,0,4,2021-08-05 17:19:33,827677
-2,-5,4,1,-2,-4,-3,-4,2021-08-05 17:19:33,827787
0,-1,-5,-1,0,1,2,3,2021-08-05 17:19:33,827984
3,2,1,2,0,0,2,1,2021-08-05 17:19:33,827984
0,-4,-16,-5,0,0,0,1,2021-08-05 17:19:33,827984
-3,-4,-2,-2,-2,-2,-4,-6,2021-08-05 17:19:33,842466
-3,-16,8,4,0,-1,-2,-3,2021-08-05 17:19:33,842466
-1,18,6,2,0,-1,0,-1,2021-08-05 17:19:33,857521
-2,-4,3,1,1,-2,-1,-3,2021-08-05 17:19:33,857521
0,2,-1,-1,-2,-2,2,2,2021-08-05 17:19:33,873465
0,3,-4,-3,-2,0,-3,-2,2021-08-05 17:19:33,873465
-2,-7,-2,-3,-2,-1,-1,0,2021-08-05 17:19:33,889535
-2,-3,-1,2,0,-1,-2,-2,2021-08-05 17:19:33,889535
-1,-2,-4,-2,-1,-1,-1,1,2021-08-05 17:19:33,889535
2,-7,-2,0,1,0,0,0,2021-08-05 17:19:33,889535
-2,4,-4,1,-2,-1,-4,-3,2021-08-05 17:19:33,905568
1,8,5,1,1,2,-1,1,2021-08-05 17:19:33,905568
0,-1,-1,-3,-3,-1,0,1,2021-08-05 17:19:33,905857
-4,-5,-6,-5,-3,-2,-2,-6,2021-08-05 17:19:33,905857
2,0,2,1,2,0,0,1,2021-08-05 17:19:33,921516
-3,3,0,-3,-4,-4,-2,-3,2021-08-05 17:19:33,936562
0,4,-3,-1,0,1,2,1,2021-08-05 17:19:33,951565
-2,3,1,-3,-4,-1,-1,-2,2021-08-05 17:19:33,951565
-1,-3,-2,2,0,-1,1,-1,2021-08-05 17:19:33,951565
0,-3,2,0,-1,-2,0,-1,2021-08-05 17:19:33,951565
-1,-6,-4,0,1,1,-2,-1,2021-08-05 17:19:33,951565
-1,6,-2,1,1,-1,0,1,2021-08-05 17:19:33,951565
-2,-5,0,-3,-2,0,-2,0,2021-08-05 17:19:33,964499
2,0,-2,2,0,2,0,2,2021-08-05 17:19:33,964499
-2,-5,-3,-2,-1,-1,-1,-1,2021-08-05 17:19:33,965502
-3,1,-1,0,-2,-1,-3,-2,2021-08-05 17:19:33,965502
-1,-1,2,1,-3,-3,0,0,2021-08-05 17:19:33,982604
0,0,-1,1,0,-1,-2,1,2021-08-05 17:19:33,998567
0,2,0,-4,0,-1,0,-2,2021-08-05 17:19:33,998567
-3,1,-4,-2,-3,-3,-4,-4,2021-08-05 17:19:33,998567
2,-4,2,4,5,2,3,3,2021-08-05 17:19:33,998567
1,14,3,2,-1,1,1,1,2021-08-05 17:19:33,998567
-2,-2,-2,-3,0,2,-2,-1,2021-08-05 17:19:34,013568
0,0,-2,-2,-4,-2,-3,-2,2021-08-05 17:19:34,013568
2,3,-1,-3,-1,-1,1,4,2021-08-05 17:19:34,028576
-2,-10,-1,-1,-1,-2,-2,-3,2021-08-05 17:19:34,044585
-3,-3,-1,1,-3,-2,-2,0,2021-08-05 17:19:34,059645
4,8,2,1,2,0,1,0,2021-08-05 17:19:34,059645
-5,-6,-2,-1,0,-3,-3,-6,2021-08-05 17:19:34,059645
-4,-4,-2,-2,-1,0,-1,-1,2021-08-05 17:19:34,059645
-1,0,0,-1,0,-1,-1,-2,2021-08-05 17:19:34,059645
-1,-2,0,-1,-1,-1,-1,-1,2021-08-05 17:19:34,059645
0,2,-1,0,-1,0,-1,-1,2021-08-05 17:19:34,059645
2,0,0,0,1,0,2,0,2021-08-05 17:19:34,060465
-1,-3,-2,-2,-3,-1,0,-1,2021-08-05 17:19:34,060515
-3,4,1,0,-4,-2,-4,-2,2021-08-05 17:19:34,060515
3,1,1,0,3,3,3,4,2021-08-05 17:19:34,090568
-1,-2,-3,1,0,0,0,0,2021-08-05 17:19:34,105669
0,4,-1,-2,-1,-1,-1,-3,2021-08-05 17:19:34,120625
0,-2,-1,-1,0,-2,2,2,2021-08-05 17:19:34,136577
-4,1,0,-1,-3,-2,-4,-3,2021-08-05 17:19:34,136577
-2,-3,-1,0,-2,0,0,-2,2021-08-05 17:19:34,136577
-1,-5,1,2,-2,-4,-2,-2,2021-08-05 17:19:34,136577
2,1,4,3,0,1,0,2,2021-08-05 17:19:34,136577
-6,-4,-8,-8,-5,-3,-2,-8,2021-08-05 17:19:34,151986
0,-3,-2,-2,0,0,-1,2,2021-08-05 17:19:34,152297
-1,-2,1,1,1,2,-1,-1,2021-08-05 17:19:34,152468
-2,-10,-2,1,-1,-2,-1,-1,2021-08-05 17:19:34,152581
-1,3,1,0,-3,-2,-2,-3,2021-08-05 17:19:34,152581
-1,0,0,0,-2,-1,-1,-2,2021-08-05 17:19:34,152581
0,0,-2,-3,-2,-2,-1,-1,2021-08-05 17:19:34,152581
1,5,0,0,-1,-1,1,0,2021-08-05 17:19:34,152581
-2,-4,-4,-1,-1,0,0,-2,2021-08-05 17:19:34,152581
-3,-7,1,0,0,-1,-2,-3,2021-08-05 17:19:34,152581
2,-1,-1,2,2,2,-1,2,2021-08-05 17:19:34,167498
0,2,1,-1,1,0,1,0,2021-08-05 17:19:34,183598
0,-3,-2,-3,-3,-3,-1,-3,2021-08-05 17:19:34,183598
-2,7,7,-3,-2,-1,-1,-1,2021-08-05 17:19:34,183762
-3,-6,-9,-3,-2,-2,0,-3,2021-08-05 17:19:34,183762
-2,-2,-2,-4,-1,-2,-1,1,2021-08-05 17:19:34,183762
1,-1,-1,0,-1,-1,-1,2,2021-08-05 17:19:34,214502
2,2,4,1,0,-1,0,-1,2021-08-05 17:19:34,214502
-2,1,-1,-1,-2,-2,1,-1,2021-08-05 17:19:34,214837
3,-4,2,3,2,2,3,3,2021-08-05 17:19:34,214837
-2,2,2,-3,-2,-4,-3,0,2021-08-05 17:19:34,214837
0,-4,3,-3,0,-1,0,-1,2021-08-05 17:19:34,214837
-1,-2,-11,-1,-3,-3,-1,-3,2021-08-05 17:19:34,230595
-2,-5,-9,-7,-3,-1,-2,-2,2021-08-05 17:19:34,230595
-1,3,6,4,2,3,2,2,2021-08-05 17:19:34,246585
-5,-4,-1,1,-2,-1,-3,-6,2021-08-05 17:19:34,262498
2,5,7,4,3,-2,0,0,2021-08-05 17:19:34,262498
-1,2,0,0,-1,-2,-4,-2,2021-08-05 17:19:34,262498
1,-3,-2,-1,-2,-4,-2,0,2021-08-05 17:19:34,262498
-3,-1,-7,-6,-4,-2,-4,0,2021-08-05 17:19:34,262498
0,5,1,-1,-2,1,-2,2,2021-08-05 17:19:34,262498
1,1,2,0,-1,2,1,1,2021-08-05 17:19:34,262498
-1,-8,-6,0,1,0,0,0,2021-08-05 17:19:34,277548
1,-3,-4,3,2,2,2,2,2021-08-05 17:19:34,277644
1,3,1,-2,-1,-1,-2,-2,2021-08-05 17:19:34,283501
-2,4,4,-2,-1,-1,-1,-4,2021-08-05 17:19:34,283501
-2,-5,-8,-2,-3,-1,-1,0,2021-08-05 17:19:34,308620
1,-7,-5,-2,-2,-2,0,1,2021-08-05 17:19:34,323634
-1,-2,4,3,2,1,-1,-2,2021-08-05 17:19:34,323756
2,2,2,2,3,0,3,2,2021-08-05 17:19:34,323885
-3,0,-1,-3,-2,-1,0,-1,2021-08-05 17:19:34,324044
-2,2,1,-3,-3,-4,-3,-3,2021-08-05 17:19:34,324044
2,7,0,2,1,3,1,4,2021-08-05 17:19:34,324270
-5,-27,-4,0,-1,-2,-3,-3,2021-08-05 17:19:34,324357
2,3,0,-2,3,2,-1,0,2021-08-05 17:19:34,338570
-1,4,-4,-4,-3,-3,-1,-3,2021-08-05 17:19:34,338570
-3,-6,0,-3,-3,-2,-3,-3,2021-08-05 17:19:34,338570
-1,8,1,1,-1,-1,1,0,2021-08-05 17:19:34,338570
-2,1,3,0,-1,-1,-1,-4,2021-08-05 17:19:34,368600
0,-7,-3,1,1,1,2,0,2021-08-05 17:19:34,368600
-1,-4,-3,-3,-3,-2,-1,-2,2021-08-05 17:19:34,399466
-1,3,-3,-2,-1,-1,-2,0,2021-08-05 17:19:34,399466
-3,-1,0,0,-1,-2,-3,-4,2021-08-05 17:19:34,414615
0,4,-1,2,-1,0,-1,-3,2021-08-05 17:19:34,414615
-2,-20,2,1,-1,-1,0,1,2021-08-05 17:19:34,414615
1,4,-5,-1,1,0,-1,-1,2021-08-05 17:19:34,414615
1,21,0,0,-1,-1,-1,-1,2021-08-05 17:19:34,414615
-5,-14,5,1,1,-1,-1,0,2021-08-05 17:19:34,414615
2,-4,-11,2,2,0,3,2,2021-08-05 17:19:34,414615
-1,-8,-11,-4,-4,-3,-3,-6,2021-08-05 17:19:34,414615
1,8,10,2,-2,-1,-1,0,2021-08-05 17:19:34,414615
-2,6,2,-3,0,0,-3,-1,2021-08-05 17:19:34,415466
-1,4,0,-1,-2,-2,-2,-2,2021-08-05 17:19:34,430584
-3,-6,3,0,-1,-2,-1,-1,2021-08-05 17:19:34,430690
-1,-11,-12,-2,-3,-2,1,-3,2021-08-05 17:19:34,446598
4,5,3,3,1,2,3,2,2021-08-05 17:19:34,446598
-2,-3,2,-2,-1,-2,-1,-4,2021-08-05 17:19:34,461501
0,9,6,3,2,0,0,0,2021-08-05 17:19:34,461501
0,-10,-5,1,2,0,-1,-2,2021-08-05 17:19:34,461501
0,-3,2,-1,-2,0,0,1,2021-08-05 17:19:34,461501
2,4,-10,-4,-1,-2,-1,1,2021-08-05 17:19:34,461501
0,5,2,-2,-3,-2,-2,-3,2021-08-05 17:19:34,461501
-2,28,7,1,-1,-1,-3,-2,2021-08-05 17:19:34,492564
-2,-30,-7,-1,-1,-3,-1,-1,2021-08-05 17:19:34,492564
-4,1,2,-4,-1,-2,-2,-4,2021-08-05 17:19:34,492564
2,4,0,1,1,0,-2,1,2021-08-05 17:19:34,492564
0,10,-1,-1,-2,0,-1,4,2021-08-05 17:19:34,508553
1,0,-4,4,-2,1,2,-1,2021-08-05 17:19:34,523524
-1,-3,1,0,0,1,-1,-1,2021-08-05 17:19:34,523682
-3,-8,-6,-1,-2,1,1,0,2021-08-05 17:19:34,523682
-3,0,7,1,-1,-2,-2,-4,2021-08-05 17:19:34,523682
1,1,-11,-3,-2,-3,-2,-3,2021-08-05 17:19:34,523682
-3,-2,-4,-3,-3,-3,-1,-3,2021-08-05 17:19:34,523682
-1,15,5,-4,-3,-2,-3,-1,2021-08-05 17:19:34,523682
-1,-22,-7,2,1,1,0,2,2021-08-05 17:19:34,555481
-2,-9,-9,-1,-1,-2,-2,-1,2021-08-05 17:19:34,570517
1,9,8,-1,-2,-2,-2,-3,2021-08-05 17:19:34,586570
1,-2,-3,0,0,-1,0,1,2021-08-05 17:19:34,586570
1,1,2,-3,-3,-3,-1,-2,2021-08-05 17:19:34,586570
-2,6,1,-3,0,-3,-2,-3,2021-08-05 17:19:34,586570
3,-4,-7,2,2,2,4,3,2021-08-05 17:19:34,586570
-2,-5,5,1,-1,1,-2,-4,2021-08-05 17:19:34,586570
-1,-8,-1,0,-2,-2,0,-1,2021-08-05 17:19:34,586570
1,12,-2,1,0,0,1,2,2021-08-05 17:19:34,586570
0,-14,0,-1,-1,-1,-2,-1,2021-08-05 17:19:34,601560
-4,0,-3,0,-2,-3,-4,-5,2021-08-05 17:19:34,601560
-1,-5,-5,-2,0,1,1,1,2021-08-05 17:19:34,601560
-1,1,-3,-2,0,0,0,0,2021-08-05 17:19:34,601560
0,10,7,-1,-1,-2,-2,-1,2021-08-05 17:19:34,602177
0,30,-2,-1,-1,-1,1,1,2021-08-05 17:19:34,602177
-1,-50,-4,-1,1,0,2,-1,2021-08-05 17:19:34,632599
-1,4,-1,4,-2,-1,-1,1,2021-08-05 17:19:34,632599
-1,1,-3,-4,-4,-2,-3,-3,2021-08-05 17:19:34,632599
-2,19,-4,-3,-2,-2,-1,-2,2021-08-05 17:19:34,632599
0,-10,10,-2,0,0,-1,1,2021-08-05 17:19:34,633216
-3,-7,-6,-3,-1,0,-3,-1,2021-08-05 17:19:34,633342
-1,16,5,0,-1,-1,0,-3,2021-08-05 17:19:34,663580
1,-30,-10,0,1,2,1,2,2021-08-05 17:19:34,663580
-3,11,-2,-3,-4,-3,-2,-3,2021-08-05 17:19:34,663580
3,6,5,1,2,2,2,1,2021-08-05 17:19:34,663580
-1,-5,-1,1,0,-1,-1,-3,2021-08-05 17:19:34,663580
-2,-1,2,-3,-1,-2,-2,-3,2021-08-05 17:19:34,663580
-1,3,-3,0,2,0,0,-1,2021-08-05 17:19:34,694520
1,-1,3,4,5,1,1,3,2021-08-05 17:19:34,694658
-3,1,-4,-1,-2,-1,-1,0,2021-08-05 17:19:34,694658
-1,-11,-4,-3,-2,-1,-2,-1,2021-08-05 17:19:34,694658
0,9,0,-4,-5,-2,-2,-3,2021-08-05 17:19:34,710565
-2,-2,-7,-1,-1,-1,-1,-2,2021-08-05 17:19:34,725516
-1,-3,-3,0,-1,0,0,1,2021-08-05 17:19:34,725516
-2,-8,2,3,2,1,2,3,2021-08-05 17:19:34,725516
-2,22,-4,-3,-3,0,-1,-4,2021-08-05 17:19:34,725516
3,-22,10,0,1,2,2,4,2021-08-05 17:19:34,725516
0,-4,-6,1,1,0,0,1,2021-08-05 17:19:34,726091
1,21,-3,-4,-3,-3,-4,-4,2021-08-05 17:19:34,726091
2,-14,3,3,1,0,1,2,2021-08-05 17:19:34,741572
-4,-3,-8,-1,0,-1,-2,-6,2021-08-05 17:19:34,741572
0,1,-2,-4,-6,-4,-1,-2,2021-08-05 17:19:34,741572
6,-8,0,1,3,2,5,6,2021-08-05 17:19:34,741572
0,13,3,1,0,-2,-2,-2,2021-08-05 17:19:34,757515
-1,9,14,-2,-2,-2,-1,-1,2021-08-05 17:19:34,757716
-1,-18,-16,2,3,3,2,4,2021-08-05 17:19:34,773395
-1,-3,3,-3,-3,-5,-4,-2,2021-08-05 17:19:34,773467
-2,-5,-11,-1,0,-2,-2,-2,2021-08-05 17:19:34,773467
-3,-2,0,-6,-5,-5,-1,-3,2021-08-05 17:19:34,773467
2,10,7,1,2,2,1,3,2021-08-05 17:19:34,820652
-3,-5,1,0,-3,-1,-2,-1,2021-08-05 17:19:34,835465
2,-6,-3,2,0,2,1,2,2021-08-05 17:19:34,850598
-2,4,-2,-3,-4,-3,-3,-4,2021-08-05 17:19:34,850598
-3,2,-1,-1,-2,0,-1,-2,2021-08-05 17:19:34,850598
-1,-10,0,2,0,1,0,0,2021-08-05 17:19:34,850598
0,-4,-1,-4,-2,-3,-3,-5,2021-08-05 17:19:34,850598
4,12,-1,2,3,2,4,9,2021-08-05 17:19:34,850598
-3,-14,3,-4,-4,-4,-2,-4,2021-08-05 17:19:34,851439
2,16,-1,1,0,1,1,1,2021-08-05 17:19:34,851465
-3,-9,-3,-5,-4,-3,-2,-2,2021-08-05 17:19:34,851668
-1,12,3,2,0,-1,-1,-4,2021-08-05 17:19:34,851668
-2,-17,6,1,1,1,0,-2,2021-08-05 17:19:34,851668
1,-32,-20,-4,0,0,0,2,2021-08-05 17:19:34,851668
-1,8,3,-1,-5,-2,-1,-3,2021-08-05 17:19:34,866635
-4,7,-1,-7,-8,-5,-3,-4,2021-08-05 17:19:34,881523
1,15,8,3,4,3,3,5,2021-08-05 17:19:34,896603
-3,1,-5,-1,-1,-3,-2,-3,2021-08-05 17:19:34,896603
0,-6,1,1,0,-1,-1,2,2021-08-05 17:19:34,896603
-2,-8,-2,0,-3,-1,-2,-3,2021-08-05 17:19:34,896603
0,24,7,0,-2,-3,-2,-3,2021-08-05 17:19:34,896603
-2,-9,0,-2,1,3,-1,-2,2021-08-05 17:19:34,896603
3,-8,-4,1,2,2,3,4,2021-08-05 17:19:34,912503
-2,-5,-11,-4,-3,0,-1,0,2021-08-05 17:19:34,912503
-4,-2,0,-4,-4,-5,-4,-6,2021-08-05 17:19:34,912503
-1,1,2,-1,0,-1,-2,1,2021-08-05 17:19:34,912503
-5,5,0,-5,-4,-2,-4,-5,2021-08-05 17:19:34,928499
1,2,3,3,2,4,1,1,2021-08-05 17:19:34,929499
1,-7,-5,0,-1,0,-1,-2,2021-08-05 17:19:34,929499
1,31,5,0,-1,-1,1,2,2021-08-05 17:19:34,930432
-3,-24,0,-1,0,-2,-1,-2,2021-08-05 17:19:34,959642
-1,0,-1,1,0,-2,1,0,2021-08-05 17:19:34,975499
-1,12,-4,-1,-2,-2,-2,-1,2021-08-05 17:19:34,990593
-2,-23,4,-1,-5,-4,-3,-5,2021-08-05 17:19:34,990751
0,13,-1,2,2,-1,1,3,2021-08-05 17:19:34,990751
-1,-7,-2,-1,-1,1,-2,-1,2021-08-05 17:19:34,990751
-1,-13,-10,-3,0,-1,-1,-1,2021-08-05 17:19:34,990751
0,6,0,-3,-4,-1,-1,-4,2021-08-05 17:19:34,990751
0,4,0,-2,-1,-1,-1,-1,2021-08-05 17:19:34,990751
-2,-10,0,-3,-2,-2,0,-2,2021-08-05 17:19:34,990751
-1,5,-1,2,2,3,1,0,2021-08-05 17:19:34,991514
-4,-8,-2,4,0,1,-2,-4,2021-08-05 17:19:34,991514
-1,2,0,1,-2,-2,-1,-2,2021-08-05 17:19:35,006510
0,13,6,1,-4,-5,-5,-4,2021-08-05 17:19:35,006510
2,-2,-1,-2,-2,-2,-3,1,2021-08-05 17:19:35,006510
0,-3,-6,-3,-1,-3,0,-1,2021-08-05 17:19:35,006510
1,6,0,1,1,1,1,2,2021-08-05 17:19:35,021650
-4,-9,2,-4,-3,-3,-2,-5,2021-08-05 17:19:35,021650
0,-12,-10,-2,1,2,2,4,2021-08-05 17:19:35,021650
2,1,3,-1,1,-1,-1,1,2021-08-05 17:19:35,021650
-3,13,9,-1,-2,0,-2,-2,2021-08-05 17:19:35,053501
3,55,-9,2,2,1,1,0,2021-08-05 17:19:35,053501
-4,-72,-10,-1,-2,0,-2,-1,2021-08-05 17:19:35,053841
-1,4,-9,-4,-3,0,-1,1,2021-08-05 17:19:35,053908
-1,-10,-5,-1,-2,-1,-1,-4,2021-08-05 17:19:35,083583
0,16,8,-2,-2,-3,-2,-2,2021-08-05 17:19:35,099672
2,20,8,3,4,3,1,0,2021-08-05 17:19:35,114577
-1,-3,1,1,0,1,1,-1,2021-08-05 17:19:35,114577
-2,3,-3,-3,-1,-1,0,0,2021-08-05 17:19:35,114963
3,-15,2,3,2,3,1,2,2021-08-05 17:19:35,114963
1,11,2,2,-1,-2,-1,-3,2021-08-05 17:19:35,114963
-4,-13,-1,-1,-2,-3,-1,-1,2021-08-05 17:19:35,114963
-2,2,-8,-2,0,-1,0,-1,2021-08-05 17:19:35,129619
0,-14,1,-3,-2,-2,-2,-1,2021-08-05 17:19:35,129619
-4,18,2,-3,-5,-4,-2,-3,2021-08-05 17:19:35,129619
0,-12,-3,5,3,4,2,1,2021-08-05 17:19:35,129619
0,-6,-10,-2,-2,-3,1,0,2021-08-05 17:19:35,129917
-3,-13,-6,-3,-1,-1,-2,-2,2021-08-05 17:19:35,129917
0,14,7,0,-2,-2,-2,-1,2021-08-05 17:19:35,129917
-2,9,5,-5,-6,-5,-5,-3,2021-08-05 17:19:35,130118
1,-2,-3,2,4,3,2,4,2021-08-05 17:19:35,145515
0,-12,-3,1,-1,-2,-1,-1,2021-08-05 17:19:35,161571
-1,5,1,0,-1,-1,1,-2,2021-08-05 17:19:35,176467
0,2,0,0,0,-1,-2,1,2021-08-05 17:19:35,176467
0,-6,-2,-2,-1,1,-1,-3,2021-08-05 17:19:35,176467
-1,-3,-4,-4,-1,-1,-2,1,2021-08-05 17:19:35,177081
-3,-4,-1,-1,-1,-1,-3,-2,2021-08-05 17:19:35,177081
0,-1,-2,1,-1,-2,0,0,2021-08-05 17:19:35,177211
-1,2,4,3,0,1,-1,1,2021-08-05 17:19:35,191563
1,-4,2,3,1,0,-1,-2,2021-08-05 17:19:35,207599
-3,-4,-7,-5,-3,-3,-2,0,2021-08-05 17:19:35,223641
-3,-2,-1,-1,-1,-2,-2,-1,2021-08-05 17:19:35,223881
0,24,1,-1,-3,-1,-1,-2,2021-08-05 17:19:35,223881
-3,-32,0,1,1,1,0,-2,2021-08-05 17:19:35,223881
0,-3,0,1,-1,-1,0,3,2021-08-05 17:19:35,224221
0,-6,-9,-1,2,2,2,0,2021-08-05 17:19:35,224321
-1,2,-1,-4,-4,-4,-2,-2,2021-08-05 17:19:35,224495
-1,-1,-4,-1,0,-3,0,-2,2021-08-05 17:19:35,224495
0,11,3,-2,-2,-3,-2,-4,2021-08-05 17:19:35,224495
0,1,3,-1,0,-1,-1,0,2021-08-05 17:19:35,224495
0,-9,2,6,5,3,2,0,2021-08-05 17:19:35,253499
-3,8,-2,-2,-5,-2,-3,-1,2021-08-05 17:19:35,254464
-1,-6,1,-2,-1,-2,-1,0,2021-08-05 17:19:35,254464
-2,6,-1,-5,-2,-4,-2,-4,2021-08-05 17:19:35,254464
0,-6,-3,-4,-3,-3,-1,-4,2021-08-05 17:19:35,270498
1,4,2,1,2,1,3,4,2021-08-05 17:19:35,285465
1,-3,-2,-1,0,0,-2,-2,2021-08-05 17:19:35,285465
1,2,-1,2,3,5,1,2,2021-08-05 17:19:35,285465
-3,-3,4,-1,-2,-3,0,-2,2021-08-05 17:19:35,285465
-1,-3,-13,1,0,-1,0,-2,2021-08-05 17:19:35,285465
0,14,9,0,-3,-2,0,0,2021-08-05 17:19:35,285465
-1,-11,-5,1,2,0,0,2,2021-08-05 17:19:35,285465
-3,-21,-5,-3,-1,0,-2,0,2021-08-05 17:19:35,317567
-4,-6,0,-5,-3,-4,-2,-3,2021-08-05 17:19:35,333633
-2,17,-2,-1,-2,-1,-2,-5,2021-08-05 17:19:35,348618
1,-19,5,2,-1,1,0,2,2021-08-05 17:19:35,348618
2,26,4,2,1,1,1,1,2021-08-05 17:19:35,348618
-1,-14,6,-2,0,0,-1,0,2021-08-05 17:19:35,348618
-3,-25,-19,0,2,0,1,-1,2021-08-05 17:19:35,348618
-3,15,-3,-5,-3,-6,-4,-3,2021-08-05 17:19:35,348618
-2,-10,-2,0,-2,-2,-2,-3,2021-08-05 17:19:35,348618
2,13,5,0,-2,1,0,2,2021-08-05 17:19:35,348618
-1,6,5,1,0,2,1,2,2021-08-05 17:19:35,349504
0,1,6,2,-3,-1,1,-1,2021-08-05 17:19:35,349504
2,3,-11,0,1,-2,0,-1,2021-08-05 17:19:35,364502
-1,1,-1,0,2,0,-1,-2,2021-08-05 17:19:35,364502
0,-5,12,3,2,1,1,1,2021-08-05 17:19:35,364502
-3,-15,-26,-2,-3,-2,-2,-3,2021-08-05 17:19:35,364502
-2,-5,3,-4,-3,-2,-1,-1,2021-08-05 17:19:35,380501
1,11,3,-2,-1,-1,-1,0,2021-08-05 17:19:35,395499
1,28,8,0,-1,-1,1,0,2021-08-05 17:19:35,410521
-1,-18,8,3,3,2,0,-1,2021-08-05 17:19:35,410521
2,-7,-12,1,1,1,1,4,2021-08-05 17:19:35,410521
-2,-7,-8,-3,-2,-3,-2,-5,2021-08-05 17:19:35,410521
-2,-3,-5,-5,-3,-2,-2,-2,2021-08-05 17:19:35,410521
1,20,10,-1,-3,-2,-1,-2,2021-08-05 17:19:35,410521
0,27,16,4,1,0,0,-2,2021-08-05 17:19:35,442643
1,-19,-7,1,1,0,1,4,2021-08-05 17:19:35,442877
-3,-22,-18,-7,-7,-3,-5,-4,2021-08-05 17:19:35,442998
-4,0,-3,-1,0,-1,0,-1,2021-08-05 17:19:35,443085
-2,-23,-5,0,0,-1,-4,-4,2021-08-05 17:19:35,443085
-1,24,12,0,-3,-2,-1,0,2021-08-05 17:19:35,443223
0,-9,-1,-2,-1,-1,0,-1,2021-08-05 17:19:35,443415
-1,4,4,0,-1,-1,-2,-1,2021-08-05 17:19:35,443464
4,29,18,-1,0,0,1,1,2021-08-05 17:19:35,473463
0,-12,-5,4,2,0,1,-2,2021-08-05 17:19:35,473463
-8,-39,-36,-2,1,1,2,2,2021-08-05 17:19:35,473463
-4,56,18,-10,-8,-6,-5,-5,2021-08-05 17:19:35,473463
2,-62,-10,1,2,2,1,4,2021-08-05 17:19:35,488794
3,-16,-17,-4,1,0,0,-7,2021-08-05 17:19:35,504814
-13,15,8,-12,-9,-7,-9,-7,2021-08-05 17:19:35,520775
2,-11,-2,3,2,0,-1,-1,2021-08-05 17:19:35,520775
-2,33,12,-1,-2,-1,-2,-2,2021-08-05 17:19:35,520775
4,16,6,2,-1,1,3,3,2021-08-05 17:19:35,520775
3,-35,-6,4,3,2,2,1,2021-08-05 17:19:35,520775
-3,5,-3,0,0,-1,-1,0,2021-08-05 17:19:35,520775
-1,4,0,1,-2,-3,-3,-3,2021-08-05 17:19:35,520775
-3,-11,-7,-3,-1,1,-2,-1,2021-08-05 17:19:35,521760
2,20,7,2,1,1,0,0,2021-08-05 17:19:35,521760
2,3,9,3,1,0,0,-1,2021-08-05 17:19:35,521760
0,-17,-9,-1,0,2,1,3,2021-08-05 17:19:35,550765
-6,-8,-11,-6,-4,-2,-2,-3,2021-08-05 17:19:35,550916
-1,20,13,-1,-2,-2,-2,0,2021-08-05 17:19:35,551059
1,-16,-6,0,-1,1,1,-2,2021-08-05 17:19:35,551059
-4,-6,-9,-3,-1,-4,-4,-4,2021-08-05 17:19:35,579723
-1,17,16,1,0,-2,2,3,2021-08-05 17:19:35,580759
3,-2,-3,2,3,2,1,1,2021-08-05 17:19:35,580759
2,0,0,0,0,1,1,5,2021-08-05 17:19:35,580759
-6,1,-2,-2,-2,0,-3,-5,2021-08-05 17:19:35,580759
-2,-10,-19,-3,-2,-3,-2,-2,2021-08-05 17:19:35,580759
1,2,10,0,-1,-3,-2,-3,2021-08-05 17:19:35,596846
-1,7,-1,-1,0,1,-1,2,2021-08-05 17:19:35,596946
-1,-35,-1,0,0,0,1,-1,2021-08-05 17:19:35,612752
4,49,18,5,2,2,3,3,2021-08-05 17:19:35,612891
4,-60,-10,2,-1,1,-1,1,2021-08-05 17:19:35,612891
-13,-16,-30,-12,-3,-4,-4,-8,2021-08-05 17:19:35,612891
-11,18,3,-10,-8,-6,-6,-6,2021-08-05 17:19:35,628836
7,11,4,4,3,1,-2,0,2021-08-05 17:19:35,644776
2,24,5,2,0,-2,1,1,2021-08-05 17:19:35,660735
6,-7,10,8,2,3,3,5,2021-08-05 17:19:35,660735
0,-2,-5,0,1,-1,0,2,2021-08-05 17:19:35,660735
-7,-9,-1,-5,-6,-5,-5,-6,2021-08-05 17:19:35,660735
1,26,18,1,1,-1,0,-3,2021-08-05 17:19:35,660735
0,-18,-18,0,2,0,1,2,2021-08-05 17:19:35,676843
4,9,-3,2,0,2,2,2,2021-08-05 17:19:35,676843
-6,-12,1,-4,-5,-2,-5,-4,2021-08-05 17:19:35,676843
0,11,6,-1,-2,-1,-2,-2,2021-08-05 17:19:35,677211
-1,-12,-7,-2,-1,-2,0,-1,2021-08-05 17:19:35,677211
0,-9,1,0,1,1,1,-1,2021-08-05 17:19:35,677211
-2,0,-5,-1,1,-1,-1,2,2021-08-05 17:19:35,677211
-1,-1,-5,-4,1,1,0,0,2021-08-05 17:19:35,692923
-2,13,7,-4,-4,-5,-1,-5,2021-08-05 17:19:35,708876
2,6,0,2,2,3,1,2,2021-08-05 17:19:35,709002
-6,-34,-7,-4,-3,-3,-2,-4,2021-08-05 17:19:35,709002
-6,4,-8,-4,-2,-3,-1,-1,2021-08-05 17:19:35,709002
6,9,9,3,1,4,0,4,2021-08-05 17:19:35,709002
2,8,1,2,-1,-2,-2,-3,2021-08-05 17:19:35,724775
1,3,3,1,0,1,2,2,2021-08-05 17:19:35,740889
0,8,-6,-2,-1,-3,-1,2,2021-08-05 17:19:35,756757
-4,-3,10,-2,-6,-4,-3,-4,2021-08-05 17:19:35,756757
0,-7,-14,-1,1,3,3,2,2021-08-05 17:19:35,756757
1,-3,2,-1,1,0,1,1,2021-08-05 17:19:35,756757
-1,17,-4,-3,-3,0,2,-1,2021-08-05 17:19:35,756757
-1,-8,6,4,3,1,0,-3,2021-08-05 17:19:35,756757
-3,-35,-11,-2,-2,-2,-2,-7,2021-08-05 17:19:35,756757
-1,4,0,-2,-4,-7,-6,-9,2021-08-05 17:19:35,757643
-12,-5,-1,-3,-4,-5,-5,-4,2021-08-05 17:19:35,771843
7,40,12,-4,-4,-4,-4,1,2021-08-05 17:19:35,787806
1,-19,4,2,0,-2,1,4,2021-08-05 17:19:35,787806
4,-5,-17,0,2,3,3,4,2021-08-05 17:19:35,787806
4,-3,4,0,4,1,1,0,2021-08-05 17:19:35,788255
-5,0,-6,-1,-1,0,-1,-1,2021-08-05 17:19:35,788346
-1,14,9,1,0,-1,-1,0,2021-08-05 17:19:35,819502
-2,0,4,-2,-1,-1,-1,-2,2021-08-05 17:19:35,819786
2,-10,-4,1,1,1,1,0,2021-08-05 17:19:35,819786
-3,-7,-4,-1,0,-2,1,-1,2021-08-05 17:19:35,819786
2,32,3,-2,-2,-1,-1,-2,2021-08-05 17:19:35,819786
-6,-38,-7,-6,0,0,-1,-2,2021-08-05 17:19:35,819786
-3,-2,-11,-1,-3,-1,-1,-1,2021-08-05 17:19:35,819786
1,2,4,3,2,1,1,-1,2021-08-05 17:19:35,819786
0,6,2,-2,-2,-2,-2,3,2021-08-05 17:19:35,850831
-2,23,4,1,0,-1,1,-2,2021-08-05 17:19:35,850831
3,-17,3,2,1,2,1,3,2021-08-05 17:19:35,850831
0,-9,-8,0,1,0,1,-2,2021-08-05 17:19:35,851209
-3,2,-2,-2,-1,-1,-1,-2,2021-08-05 17:19:35,880829
1,10,7,0,2,1,1,2,2021-08-05 17:19:35,881065
2,-2,1,2,0,-1,-2,0,2021-08-05 17:19:35,881065
-4,-11,-12,-1,-1,-1,-1,-1,2021-08-05 17:19:35,881065
-2,-4,-1,-4,-2,-3,-2,-2,2021-08-05 17:19:35,881065
0,-5,1,2,-2,0,-1,1,2021-08-05 17:19:35,881065
0,6,0,-2,-1,-1,-2,-2,2021-08-05 17:19:35,881361
-2,4,5,-2,-4,-3,-1,-2,2021-08-05 17:19:35,881361
0,-5,-4,1,3,2,2,-2,2021-08-05 17:19:35,909846
-1,-3,8,1,0,-1,1,-1,2021-08-05 17:19:35,909846
2,-11,-10,4,2,2,2,2,2021-08-05 17:19:35,909846
-3,-5,-9,-9,-4,-3,-5,-3,2021-08-05 17:19:35,909846
1,8,16,1,-3,-1,-1,0,2021-08-05 17:19:35,927805
2,15,-1,4,1,0,0,1,2021-08-05 17:19:35,927805
0,-5,-10,-1,-1,0,0,0,2021-08-05 17:19:35,927805
-1,21,5,-4,-3,-1,-2,-3,2021-08-05 17:19:35,943795
-4,-26,-8,-3,-4,-2,-2,-2,2021-08-05 17:19:35,959316
-3,18,12,-1,-3,-2,-3,-1,2021-08-05 17:19:35,959447
6,-8,3,3,5,5,5,6,2021-08-05 17:19:35,959549
3,7,-3,4,3,-1,0,0,2021-08-05 17:19:35,959794
-2,-6,3,-3,-2,-3,-2,-5,2021-08-05 17:19:35,974875
-1,0,-12,-2,-2,-1,0,-1,2021-08-05 17:19:35,990897
-2,-4,4,-2,-3,-3,-3,-4,2021-08-05 17:19:35,990897
2,11,10,7,1,2,2,4,2021-08-05 17:19:35,990897
0,-9,-20,-3,-1,-1,-1,0,2021-08-05 17:19:35,990897
-6,-20,-11,-12,-7,-7,-5,-6,2021-08-05 17:19:35,990897
1,17,2,-1,1,1,0,2,2021-08-05 17:19:35,991410
-1,-13,0,2,0,-1,-1,0,2021-08-05 17:19:35,991410
-1,4,1,1,-2,-2,1,-2,2021-08-05 17:19:36,022864
3,-1,-1,2,2,3,2,3,2021-08-05 17:19:36,037829
-2,-6,0,-3,-3,-2,-2,-3,2021-08-05 17:19:36,052891
-1,0,7,3,1,2,1,-1,2021-08-05 17:19:36,068795
-3,-11,-6,1,-1,-1,-1,-2,2021-08-05 17:19:36,084015
3,-1,-3,0,1,3,1,6,2021-08-05 17:19:36,084015
0,0,11,3,-1,-2,-2,-1,2021-08-05 17:19:36,084015
-2,-21,-24,-2,-1,-1,-1,-2,2021-08-05 17:19:36,084015
-1,19,-3,-7,-3,0,-2,-2,2021-08-05 17:19:36,084015
3,3,2,0,-3,-4,-2,-1,2021-08-05 17:19:36,084015
-2,4,6,-1,-4,-2,-3,-3,2021-08-05 17:19:36,084015
0,-7,10,4,3,-1,-1,2,2021-08-05 17:19:36,084827
-1,-12,-10,-1,1,2,1,0,2021-08-05 17:19:36,084827
1,3,0,0,-2,0,1,0,2021-08-05 17:19:36,084827
-3,-5,-3,-4,-5,-4,-1,-2,2021-08-05 17:19:36,084827
-2,3,1,-2,-1,-1,0,-3,2021-08-05 17:19:36,084827
1,12,6,1,1,0,-1,2,2021-08-05 17:19:36,099828
-1,-11,-1,-2,-1,-1,-1,-2,2021-08-05 17:19:36,099828
-1,9,-8,1,0,0,1,0,2021-08-05 17:19:36,099828
4,-2,3,-1,-2,3,0,1,2021-08-05 17:19:36,099828
0,1,5,0,0,0,-2,1,2021-08-05 17:19:36,129793
-5,-4,-7,1,0,-1,-2,-1,2021-08-05 17:19:36,144921
-2,-1,1,0,-2,0,-3,-5,2021-08-05 17:19:36,160901
0,3,-1,-5,-1,-2,0,3,2021-08-05 17:19:36,160901
2,4,12,2,0,-2,-1,-1,2021-08-05 17:19:36,160901
-2,-9,-8,-2,1,-1,1,-2,2021-08-05 17:19:36,160901
-1,-6,-7,-4,1,0,-1,-2,2021-08-05 17:19:36,160901
-3,-14,-5,-2,-1,-2,-3,-3,2021-08-05 17:19:36,176904
2,5,0,5,4,3,1,1,2021-08-05 17:19:36,191864
-1,9,3,-2,-2,-2,0,-2,2021-08-05 17:19:36,191864
-1,-9,0,-4,-3,-2,-2,-3,2021-08-05 17:19:36,191864
-2,17,5,1,-1,-1,2,2,2021-08-05 17:19:36,191864
-2,8,-8,-3,-2,-2,-2,-3,2021-08-05 17:19:36,191864
0,-29,5,1,1,1,2,3,2021-08-05 17:19:36,191864
0,12,-21,-8,-1,-2,-2,-2,2021-08-05 17:19:36,191864
1,-19,3,-4,-3,-4,-3,-3,2021-08-05 17:19:36,191864
0,2,6,3,0,-2,1,2,2021-08-05 17:19:36,192830
-3,13,6,3,0,-2,-2,-3,2021-08-05 17:19:36,192830
-1,5,14,6,0,-1,-1,2,2021-08-05 17:19:36,206876
-3,-10,-16,-6,-1,1,-1,-2,2021-08-05 17:19:36,222868
-1,-9,-12,-2,-3,-2,-3,-4,2021-08-05 17:19:36,222921
0,1,5,0,0,0,1,0,2021-08-05 17:19:36,222921
0,-3,5,6,0,-1,0,-1,2021-08-05 17:19:36,222921
-3,1,-15,-6,-3,-1,-4,-3,2021-08-05 17:19:36,222921
1,1,-2,-10,-5,-4,-4,-3,2021-08-05 17:19:36,222921
-3,-17,-4,-1,-1,-2,-2,-3,2021-08-05 17:19:36,222921
-2,3,4,-2,2,-2,1,1,2021-08-05 17:19:36,222921
1,3,6,7,2,3,1,3,2021-08-05 17:19:36,222921
0,-1,-3,2,2,1,2,1,2021-08-05 17:19:36,254940
-2,4,11,3,-2,-3,-2,-1,2021-08-05 17:19:36,270845
2,1,-11,2,0,1,3,0,2021-08-05 17:19:36,270845
-4,-14,-1,-9,-7,-8,-5,-8,2021-08-05 17:19:36,270845
-1,10,1,1,3,0,0,0,2021-08-05 17:19:36,270845
4,18,5,2,-2,0,1,0,2021-08-05 17:19:36,270845
1,-32,6,6,1,0,1,4,2021-08-05 17:19:36,270845
-3,7,-13,-9,-4,-3,-3,-5,2021-08-05 17:19:36,270845
-3,3,-5,-11,-3,-4,-4,-5,2021-08-05 17:19:36,286829
-3,-15,-3,-1,1,-1,-1,-2,2021-08-05 17:19:36,302800
1,29,10,-1,-1,1,0,0,2021-08-05 17:19:36,317829
2,-9,-1,6,1,-1,1,0,2021-08-05 17:19:36,333795
-2,-14,9,7,1,1,3,4,2021-08-05 17:19:36,348866
-1,4,-13,-4,-3,-3,-2,-4,2021-08-05 17:19:36,348866
0,8,-1,-8,-4,-1,-2,-3,2021-08-05 17:19:36,348866
0,7,12,3,0,0,-2,-1,2021-08-05 17:19:36,348866
2,-6,-9,1,0,0,2,1,2021-08-05 17:19:36,348866
1,7,-5,-1,0,2,1,0,2021-08-05 17:19:36,348866
-3,-9,-2,-1,-1,-2,-2,-1,2021-08-05 17:19:36,348866
-3,4,7,2,2,1,-1,-1,2021-08-05 17:19:36,348866
-4,-24,-1,-5,-6,-4,-3,-4,2021-08-05 17:19:36,349795
-1,4,3,2,3,1,1,2,2021-08-05 17:19:36,349795
4,26,1,3,0,-2,0,1,2021-08-05 17:19:36,349795
1,-28,-25,-13,-3,-1,0,-2,2021-08-05 17:19:36,349795
-3,19,9,0,-2,-1,-1,-2,2021-08-05 17:19:36,363831
-4,1,-3,-2,-1,-3,-2,-3,2021-08-05 17:19:36,363831
0,25,19,5,0,0,-1,0,2021-08-05 17:19:36,363831
-2,-2,3,9,4,-1,0,1,2021-08-05 17:19:36,363831
0,-5,-21,-13,-3,-3,-2,2,2021-08-05 17:19:36,393864
0,-9,-5,-4,-2,1,-1,-3,2021-08-05 17:19:36,408965
-2,-3,-4,-2,0,0,-2,-2,2021-08-05 17:19:36,423794
0,12,13,7,1,1,1,0,2021-08-05 17:19:36,423794
0,-6,-1,3,2,1,0,0,2021-08-05 17:19:36,423794
-1,6,-3,-3,-5,-4,-4,-3,2021-08-05 17:19:36,423794
0,-13,-6,-2,-1,0,1,3,2021-08-05 17:19:36,423794
-1,-4,1,-1,1,0,-2,-1,2021-08-05 17:19:36,423794
-1,12,11,2,-3,-2,-3,-2,2021-08-05 17:19:36,438878
4,26,15,7,4,3,2,4,2021-08-05 17:19:36,438949
-2,-27,-13,-5,-2,0,-1,-2,2021-08-05 17:19:36,439006
-4,-7,-25,-10,-8,-6,-4,-6,2021-08-05 17:19:36,439006
1,-23,12,1,2,-2,1,-1,2021-08-05 17:19:36,439006
-1,-14,-7,0,0,1,-1,1,2021-08-05 17:19:36,439006
-2,7,4,-4,0,-4,-2,-2,2021-08-05 17:19:36,454829
-1,10,12,5,1,0,0,-1,2021-08-05 17:19:36,469916
4,15,-1,3,0,1,1,2,2021-08-05 17:19:36,485847
-9,-16,-15,-6,-4,-2,-1,-1,2021-08-05 17:19:36,501888
-2,-9,0,-5,-5,-4,-1,-5,2021-08-05 17:19:36,501888
1,-7,-9,1,2,1,0,1,2021-08-05 17:19:36,501888
2,58,22,5,2,1,-1,0,2021-08-05 17:19:36,501888
2,-43,-3,3,3,0,3,1,2021-08-05 17:19:36,501888
-5,-7,-11,-1,-3,-2,-2,-4,2021-08-05 17:19:36,501888
0,14,11,0,-2,-1,-1,-3,2021-08-05 17:19:36,501888
-4,-6,-12,-6,-4,-2,-3,-5,2021-08-05 17:19:36,516827
5,20,9,-4,-1,-3,-3,1,2021-08-05 17:19:36,532837
0,-8,-7,1,1,0,0,1,2021-08-05 17:19:36,548792
-1,-8,-2,1,-1,-1,1,2,2021-08-05 17:19:36,548932
-3,2,-9,0,0,0,0,-1,2021-08-05 17:19:36,548932
-4,-10,2,-2,-6,-5,-3,-5,2021-08-05 17:19:36,548932
3,6,1,3,2,0,2,2,2021-08-05 17:19:36,548932
0,19,9,3,-1,1,0,1,2021-08-05 17:19:36,548932
-3,-21,-13,0,-1,-3,0,0,2021-08-05 17:19:36,548932
-1,21,2,-5,-4,-1,-2,-4,2021-08-05 17:19:36,548932
0,-9,1,1,-1,2,0,-2,2021-08-05 17:19:36,548932
0,1,-4,-7,-4,-2,-3,-1,2021-08-05 17:19:36,549828
0,-1,9,3,2,2,3,3,2021-08-05 17:19:36,563905
3,6,-5,-1,-1,-2,-2,-2,2021-08-05 17:19:36,579913
-1,34,-2,1,0,-1,-2,-1,2021-08-05 17:19:36,594830
-1,-17,6,-1,0,-1,1,1,2021-08-05 17:19:36,594830
-3,-8,2,-2,-4,-4,-1,-1,2021-08-05 17:19:36,594830
1,-19,-9,2,3,2,2,3,2021-08-05 17:19:36,594830
-6,-2,-25,-10,-1,-3,-3,-4,2021-08-05 17:19:36,594830
-1,8,-2,-3,2,2,1,-3,2021-08-05 17:19:36,594830
-4,-4,7,5,2,2,-2,-3,2021-08-05 17:19:36,594830
-2,21,15,6,0,-2,-3,-5,2021-08-05 17:19:36,594830
2,-5,6,2,-3,-3,-2,0,2021-08-05 17:19:36,610896
2,2,-8,-7,-6,-3,-5,-2,2021-08-05 17:19:36,611078
-1,-19,-10,-5,-4,-4,-2,-3,2021-08-05 17:19:36,627045
0,0,2,0,1,2,2,1,2021-08-05 17:19:36,627085
1,-6,3,1,1,2,1,2,2021-08-05 17:19:36,627085
-2,-18,13,4,0,-3,-1,1,2021-08-05 17:19:36,627085
-1,15,-11,-3,-1,1,-2,-2,2021-08-05 17:19:36,657849
-4,-5,-11,-6,-3,-3,-3,-1,2021-08-05 17:19:36,657849
0,-10,1,-2,1,-2,2,0,2021-08-05 17:19:36,657849
-2,9,3,2,1,-1,0,0,2021-08-05 17:19:36,657849
1,5,7,1,-1,-2,0,0,2021-08-05 17:19:36,657849
-2,-9,-10,-1,-3,-3,-3,-3,2021-08-05 17:19:36,657849
-1,-6,2,1,-1,-1,-1,-2,2021-08-05 17:19:36,672941
-3,-3,-5,-1,-1,-3,-3,-1,2021-08-05 17:19:36,672941
6,1,5,3,6,3,3,6,2021-08-05 17:19:36,688842
-4,-2,-5,1,2,0,0,1,2021-08-05 17:19:36,704921
-4,11,12,0,-5,-3,-4,-4,2021-08-05 17:19:36,705121
2,-19,-25,-8,-2,0,-1,2,2021-08-05 17:19:36,705121
3,-3,1,-4,-4,-2,0,-4,2021-08-05 17:19:36,705121
-7,2,4,2,0,1,0,1,2021-08-05 17:19:36,705121
1,-11,-12,-3,2,2,-1,1,2021-08-05 17:19:36,705454
-1,22,10,-1,-4,-5,-4,-4,2021-08-05 17:19:36,705454
-2,-5,2,3,-2,-3,-4,-4,2021-08-05 17:19:36,720845
2,4,1,-2,-1,1,-1,1,2021-08-05 17:19:36,720845
-4,-10,3,1,-2,-1,1,-2,2021-08-05 17:19:36,736897
0,-2,-5,0,0,1,1,-1,2021-08-05 17:19:36,736897
2,5,5,-1,2,2,2,4,2021-08-05 17:19:36,752208
-6,-20,2,5,1,-1,1,1,2021-08-05 17:19:36,767794
-2,-2,-6,-3,-2,0,-2,-6,2021-08-05 17:19:36,783827
7,19,8,0,-1,0,2,3,2021-08-05 17:19:36,783827
-4,-9,-26,-9,-3,-4,-3,-4,2021-08-05 17:19:36,783827
3,-1,-1,-2,-1,0,1,-1,2021-08-05 17:19:36,783827
-1,-4,9,5,1,-1,2,3,2021-08-05 17:19:36,783827
-4,-9,6,10,3,0,1,-1,2021-08-05 17:19:36,799901
-5,8,1,-2,-4,-4,-5,-4,2021-08-05 17:19:36,815828
4,-6,-8,-3,-3,1,0,1,2021-08-05 17:19:36,815828
2,0,-8,-10,-2,-1,-2,-1,2021-08-05 17:19:36,815828
-4,-2,2,-2,0,1,-1,0,2021-08-05 17:19:36,815828
-2,-1,5,4,0,-2,0,2,2021-08-05 17:19:36,815828
-1,9,5,2,0,-1,1,-1,2021-08-05 17:19:36,815828
-3,-1,-5,-6,-2,-2,-1,-3,2021-08-05 17:19:36,815828
0,-5,-6,0,-1,0,1,0,2021-08-05 17:19:36,815828
0,0,-3,2,2,2,-1,3,2021-08-05 17:19:36,831906
2,11,-12,0,-1,1,0,-1,2021-08-05 17:19:36,832024
7,10,10,4,1,0,-1,2,2021-08-05 17:19:36,832024
-3,3,11,0,-1,-4,-3,-5,2021-08-05 17:19:36,832024
-2,-2,-10,-5,-3,-3,-3,-4,2021-08-05 17:19:36,861828
-7,-39,3,1,-1,0,0,-1,2021-08-05 17:19:36,870829
-7,19,-22,-11,-4,-1,-2,-6,2021-08-05 17:19:36,871802
3,8,-1,-2,-4,0,-2,-1,2021-08-05 17:19:36,871802
0,-3,15,5,1,0,-1,-1,2021-08-05 17:19:36,871802
1,-17,18,6,3,0,3,3,2021-08-05 17:19:36,871802
-1,4,-29,-8,-2,-2,0,0,2021-08-05 17:19:36,871802
1,-2,-3,-7,-3,-1,-1,-2,2021-08-05 17:19:36,871802
1,1,-2,-3,-1,0,-2,-3,2021-08-05 17:19:36,892828
-1,8,-3,-6,-4,-3,-4,-3,2021-08-05 17:19:36,908006
0,-9,20,15,3,2,1,4,2021-08-05 17:19:36,923863
-3,0,4,10,1,1,0,0,2021-08-05 17:19:36,923863
-1,-1,-23,-13,-4,-2,-1,-2,2021-08-05 17:19:36,923863
-5,1,-10,-12,-4,-3,-3,-8,2021-08-05 17:19:36,923863
-3,-6,9,7,1,-1,1,1,2021-08-05 17:19:36,923863
-3,-5,6,7,1,0,1,0,2021-08-05 17:19:36,923863
-2,1,-10,-6,-2,0,-1,-2,2021-08-05 17:19:36,923863
0,11,-8,-7,-3,-3,-3,0,2021-08-05 17:19:36,923863
-4,-15,-2,-7,-4,-2,-4,-3,2021-08-05 17:19:36,924829
5,15,-1,3,1,1,0,1,2021-08-05 17:19:36,924829
-3,-13,9,-2,0,-1,-1,2,2021-08-05 17:19:36,953825
3,23,10,11,2,0,0,2,2021-08-05 17:19:36,969833
0,-9,-9,-5,-1,-3,-3,-5,2021-08-05 17:19:36,985961
-4,-12,-13,-12,-3,-1,-1,-1,2021-08-05 17:19:36,986023
-2,1,4,6,0,0,1,-2,2021-08-05 17:19:36,986158
-2,-4,0,-1,-2,-2,-2,-2,2021-08-05 17:19:36,986291
1,3,16,11,5,1,1,4,2021-08-05 17:19:36,986291
0,-8,-15,-6,-1,-2,-2,-2,2021-08-05 17:19:36,986291
-3,2,2,-4,-1,-2,-2,-4,2021-08-05 17:19:36,986291
0,6,-4,-5,-3,-3,-2,-1,2021-08-05 17:19:36,986753
-1,-19,13,14,2,2,2,4,2021-08-05 17:19:36,986865
-2,3,-16,-13,-1,-1,-2,-4,2021-08-05 17:19:36,986865
5,4,9,5,0,1,2,3,2021-08-05 17:19:37,016831
-1,18,7,6,2,0,-1,-1,2021-08-05 17:19:37,016831
4,6,-3,-6,2,1,0,-1,2021-08-05 17:19:37,017187
0,-13,-18,-7,-1,-2,-2,-2,2021-08-05 17:19:37,017187
-1,0,7,6,-2,-2,-1,-1,2021-08-05 17:19:37,031951
0,-17,14,6,-1,-1,-1,0,2021-08-05 17:19:37,031951
-4,2,-27,-17,-5,0,-1,-3,2021-08-05 17:19:37,031951
0,5,10,5,1,-1,0,1,2021-08-05 17:19:37,031951
-1,-4,-7,-3,-2,-2,-3,-2,2021-08-05 17:19:37,047915
2,-10,1,-1,0,1,1,1,2021-08-05 17:19:37,047915
-1,12,12,6,0,-4,-3,-1,2021-08-05 17:19:37,047915
-4,1,4,4,1,1,1,1,2021-08-05 17:19:37,047915
-3,-2,-6,-14,-6,0,-1,-3,2021-08-05 17:19:37,078917
0,2,-8,-3,-2,-1,-1,-2,2021-08-05 17:19:37,078917
-3,-5,-5,-3,-1,-1,-2,-2,2021-08-05 17:19:37,078917
-2,-13,2,3,-1,-4,-2,-1,2021-08-05 17:19:37,078917
3,4,14,18,4,2,2,1,2021-08-05 17:19:37,108820
-2,1,-4,-12,0,1,-1,-4,2021-08-05 17:19:37,124794
2,-2,-21,-23,-6,-1,1,1,2021-08-05 17:19:37,139992
-1,-1,3,2,2,0,0,0,2021-08-05 17:19:37,155924
-3,-3,19,11,1,-3,0,0,2021-08-05 17:19:37,155924
1,4,-9,-1,2,0,0,4,2021-08-05 17:19:37,155924
-4,-7,-9,-4,-2,0,-3,-5,2021-08-05 17:19:37,155924
-1,0,7,3,-1,0,-1,-1,2021-08-05 17:19:37,155924
-1,2,-9,-5,-2,-1,-2,-3,2021-08-05 17:19:37,155924
1,-1,11,8,0,0,0,0,2021-08-05 17:19:37,155924
2,2,17,14,2,0,2,3,2021-08-05 17:19:37,155924
-3,-7,-28,-21,-4,-1,-1,-5,2021-08-05 17:19:37,155924
-1,-3,1,-1,-2,-1,-2,-3,2021-08-05 17:19:37,155924
2,7,2,5,-1,-1,1,1,2021-08-05 17:19:37,155924
5,4,4,1,-2,-3,0,2,2021-08-05 17:19:37,155924
-5,4,-4,-6,-4,-2,-2,-5,2021-08-05 17:19:37,156928
-3,-8,-7,-2,0,-1,0,2,2021-08-05 17:19:37,172003
0,6,4,4,0,0,-1,-2,2021-08-05 17:19:37,172003
-4,-4,-7,-10,-5,-3,-4,-4,2021-08-05 17:19:37,172003
-1,-4,7,10,4,2,1,3,2021-08-05 17:19:37,172003
-4,1,-8,-6,-2,-3,-4,-3,2021-08-05 17:19:37,187000
3,2,-1,1,1,1,2,3,2021-08-05 17:19:37,187924
-1,-8,15,14,4,0,-1,0,2021-08-05 17:19:37,188891
1,9,-4,-7,-2,0,-2,-1,2021-08-05 17:19:37,189080
-5,-15,-7,-2,0,-3,-2,-2,2021-08-05 17:19:37,218005
2,20,4,-3,1,-1,0,0,2021-08-05 17:19:37,233593
2,14,-1,1,0,0,-1,-2,2021-08-05 17:19:37,233593
-2,-8,1,4,-1,0,1,-1,2021-08-05 17:19:37,233778
-1,-3,-1,-9,-1,-1,1,-1,2021-08-05 17:19:37,233778
-5,-12,-3,2,-1,-2,-2,-2,2021-08-05 17:19:37,233778
-2,-27,1,-6,-2,0,-1,0,2021-08-05 17:19:37,233778
5,25,5,7,-2,0,1,2,2021-08-05 17:19:37,233778
2,-5,-13,-10,-4,-1,-4,-3,2021-08-05 17:19:37,249568
-1,-9,0,1,1,0,0,2,2021-08-05 17:19:37,249568
-3,3,9,6,-1,1,-1,-4,2021-08-05 17:19:37,249568
-1,-10,-9,-6,-1,1,0,2,2021-08-05 17:19:37,249568
-1,3,11,9,2,-2,0,0,2021-08-05 17:19:37,280587
-3,-8,-24,-18,-7,-2,-3,-4,2021-08-05 17:19:37,295509
0,-1,2,6,0,-2,0,2,2021-08-05 17:19:37,311508
-3,-3,11,6,0,-2,-1,-3,2021-08-05 17:19:37,327509
-2,9,-2,-2,-2,-2,-1,-1,2021-08-05 17:19:37,327509
0,0,4,4,0,0,-1,-1,2021-08-05 17:19:37,327509
-1,1,9,4,-1,-1,-3,-1,2021-08-05 17:19:37,327509
1,-2,-12,-8,0,1,-1,-3,2021-08-05 17:19:37,327509
5,-2,-8,-4,0,2,1,2,2021-08-05 17:19:37,327509
0,-4,3,5,1,0,0,-1,2021-08-05 17:19:37,327509
0,5,-6,-8,-2,0,-1,-2,2021-08-05 17:19:37,327509
-1,3,4,3,-3,-3,-3,-1,2021-08-05 17:19:37,328508
7,14,7,6,2,0,0,4,2021-08-05 17:19:37,328508
-5,-8,-10,-5,-1,0,-1,-3,2021-08-05 17:19:37,328508
-4,8,9,11,1,0,-2,-2,2021-08-05 17:19:37,343585
0,-17,-27,-23,-3,-3,0,-3,2021-08-05 17:19:37,359640
-3,-4,-1,-1,-3,-1,-1,-1,2021-08-05 17:19:37,359778
6,12,20,10,0,-2,1,4,2021-08-05 17:19:37,359973
-2,-5,-18,-18,-4,0,-1,-3,2021-08-05 17:19:37,360070
-2,-2,12,17,0,0,0,0,2021-08-05 17:19:37,360070
-2,-4,-14,-5,0,0,1,0,2021-08-05 17:19:37,375571
0,-3,-7,-15,0,-2,-2,-2,2021-08-05 17:19:37,391538
0,-5,13,10,0,1,-1,2,2021-08-05 17:19:37,391538
0,6,5,5,-1,0,-3,-1,2021-08-05 17:19:37,391538
-2,0,-7,-9,-5,-1,-2,-1,2021-08-05 17:19:37,391538
-3,-2,-5,-3,-4,-3,-4,-8,2021-08-05 17:19:37,391538
-2,-3,-9,-7,-1,-4,1,0,2021-08-05 17:19:37,391538
0,4,25,13,1,-1,-1,2,2021-08-05 17:19:37,391538
3,-1,8,10,3,-1,0,1,2021-08-05 17:19:37,406798
-6,-5,-20,-18,-6,-4,-2,-8,2021-08-05 17:19:37,406997
-2,-7,-26,-14,-4,-1,-1,-1,2021-08-05 17:19:37,406997
3,-8,4,3,3,4,2,6,2021-08-05 17:19:37,406997
-5,7,12,7,-1,-2,-2,-3,2021-08-05 17:19:37,437474
-4,1,-13,-5,-1,1,-4,-5,2021-08-05 17:19:37,437577
1,8,9,5,1,0,-2,-3,2021-08-05 17:19:37,437734
-1,2,5,5,-2,-4,-3,-5,2021-08-05 17:19:37,437734
0,0,17,15,2,-2,-3,-1,2021-08-05 17:19:37,452544
-1,-3,-8,-5,-5,-3,-3,-1,2021-08-05 17:19:37,468508
3,1,-7,-4,-3,0,1,2,2021-08-05 17:19:37,484683
-3,-8,-6,-13,-4,-3,-1,0,2021-08-05 17:19:37,500512
-2,-5,-5,-6,-1,0,0,-3,2021-08-05 17:19:37,500896
-1,-1,-5,-5,-1,-1,-1,-2,2021-08-05 17:19:37,501073
0,-1,5,10,1,-1,2,4,2021-08-05 17:19:37,501222
-3,-15,-8,-11,0,0,-3,-4,2021-08-05 17:19:37,501336
-4,11,-7,-4,-3,2,-1,-1,2021-08-05 17:19:37,501440
0,3,14,9,-1,-1,-1,3,2021-08-05 17:19:37,501479
0,-2,4,3,0,-1,-1,-3,2021-08-05 17:19:37,515570
0,3,11,6,0,-1,1,1,2021-08-05 17:19:37,519518
0,-3,-7,-5,-4,-2,-1,-1,2021-08-05 17:19:37,519518
-5,-4,-8,-2,-1,-1,-2,-4,2021-08-05 17:19:37,519518
8,8,1,1,4,3,5,7,2021-08-05 17:19:37,519518
-3,-19,0,4,0,-1,-1,1,2021-08-05 17:19:37,520509
0,1,-5,-2,0,-2,-2,-2,2021-08-05 17:19:37,520509
1,13,10,-1,-2,0,-1,3,2021-08-05 17:19:37,520509
-5,-3,-9,-6,-2,-2,-4,-7,2021-08-05 17:19:37,545691
1,12,4,2,0,0,0,-1,2021-08-05 17:19:37,545691
-1,-12,-5,1,2,2,1,1,2021-08-05 17:19:37,545691
-1,-6,11,7,0,0,0,1,2021-08-05 17:19:37,545691
-3,1,1,0,-2,-2,-4,-5,2021-08-05 17:19:37,561508
1,-5,-22,-8,-1,-1,1,1,2021-08-05 17:19:37,577645
5,6,10,8,2,2,3,6,2021-08-05 17:19:37,593509
-2,-2,-2,-6,-2,-2,0,0,2021-08-05 17:19:37,609514
2,-1,29,19,3,0,1,5,2021-08-05 17:19:37,609683
-7,1,-7,-11,-8,-5,-5,-10,2021-08-05 17:19:37,609683
2,-13,-52,-36,-6,-3,-1,-1,2021-08-05 17:19:37,609683
2,3,7,5,2,-1,0,2,2021-08-05 17:19:37,609683
-5,-6,2,1,-3,-2,-2,-6,2021-08-05 17:19:37,609683
6,13,24,28,7,3,2,5,2021-08-05 17:19:37,610320
0,-1,6,-3,-4,-2,-3,-1,2021-08-05 17:19:37,610320
-8,-24,-29,-12,-1,1,-1,-4,2021-08-05 17:19:37,610475
3,17,3,-7,-4,-3,-2,-1,2021-08-05 17:19:37,610475
0,18,4,-10,1,1,0,0,2021-08-05 17:19:37,610475
-2,0,3,5,-4,-1,0,-2,2021-08-05 17:19:37,640511
2,-4,-3,1,2,1,-1,-1,2021-08-05 17:19:37,655475
0,-5,-2,1,-2,-1,1,3,2021-08-05 17:19:37,671676
-2,0,2,1,1,-2,-2,-1,2021-08-05 17:19:37,671676
0,-1,11,8,3,0,2,1,2021-08-05 17:19:37,671676
-1,2,-10,-5,-1,-3,-1,-4,2021-08-05 17:19:37,671676
-1,-13,-10,-11,0,0,1,-3,2021-08-05 17:19:37,671676
0,11,8,5,-2,-3,-2,-4,2021-08-05 17:19:37,671676
-1,-1,16,15,6,2,1,3,2021-08-05 17:19:37,687558
4,7,3,15,1,-1,-1,2,2021-08-05 17:19:37,703615
-8,-25,-49,-47,-11,-4,-4,-5,2021-08-05 17:19:37,719593
1,8,6,4,0,1,0,1,2021-08-05 17:19:37,719593
-3,5,13,7,0,-2,-3,-5,2021-08-05 17:19:37,719593
4,3,8,-2,0,0,2,3,2021-08-05 17:19:37,719593
-2,2,4,12,-1,-4,-2,0,2021-08-05 17:19:37,719593
-3,-11,-7,-7,0,-1,0,-1,2021-08-05 17:19:37,719593
-4,-4,-1,-1,-1,-2,-2,-2,2021-08-05 17:19:37,719593
1,-1,6,4,-2,-1,0,0,2021-08-05 17:19:37,719593
4,6,-4,-7,-3,-1,-1,-2,2021-08-05 17:19:37,720510
1,-6,-8,0,-3,-2,-1,2,2021-08-05 17:19:37,720510
2,12,28,23,3,0,1,2,2021-08-05 17:19:37,735532
-6,-6,-10,-26,-4,-2,-2,-5,2021-08-05 17:19:37,735532
-8,-13,-46,-18,-5,0,-2,-4,2021-08-05 17:19:37,735532
-1,-1,-3,-7,-2,-2,-3,0,2021-08-05 17:19:37,735532
0,-14,7,3,0,1,-1,0,2021-08-05 17:19:37,751711
-3,15,0,8,0,-2,-1,-1,2021-08-05 17:19:37,751762
2,5,14,0,0,-1,2,2,2021-08-05 17:19:37,751762
-1,-7,-6,-1,-1,-2,0,-1,2021-08-05 17:19:37,751762
0,-6,-13,-18,-3,-1,-2,0,2021-08-05 17:19:37,781610
0,5,19,19,2,0,0,-1,2021-08-05 17:19:37,797471
-3,14,10,5,-1,-2,-2,-4,2021-08-05 17:19:37,812737
4,-1,-12,-5,-1,0,1,3,2021-08-05 17:19:37,828476
-2,-3,-8,-4,1,0,1,1,2021-08-05 17:19:37,828476
-1,-11,-10,-7,-4,-3,-3,-6,2021-08-05 17:19:37,828476
-1,-6,-9,-6,0,1,-1,-2,2021-08-05 17:19:37,828476
2,8,33,11,2,1,0,2,2021-08-05 17:19:37,828476
-4,1,-15,-7,-3,-1,-3,-6,2021-08-05 17:19:37,828476
1,-2,-26,-11,-5,-1,0,2,2021-08-05 17:19:37,828967
1,3,21,15,1,-1,-1,0,2021-08-05 17:19:37,828967
-2,-4,-6,-4,-1,-1,-2,-2,2021-08-05 17:19:37,828967
3,-2,7,4,3,1,1,2,2021-08-05 17:19:37,828967
-2,-2,-2,-7,-4,-1,-2,1,2021-08-05 17:19:37,828967
0,12,8,7,0,-2,-2,-2,2021-08-05 17:19:37,828967
5,7,-1,-4,0,-2,0,-2,2021-08-05 17:19:37,828967
-3,0,-17,-5,-4,-2,-3,-2,2021-08-05 17:19:37,858591
-1,-1,11,9,3,0,2,2,2021-08-05 17:19:37,858591
-3,-17,-4,-4,-3,0,-1,-1,2021-08-05 17:19:37,858591
-6,-4,-4,2,-3,-2,-2,-2,2021-08-05 17:19:37,858591
2,11,23,10,0,0,1,1,2021-08-05 17:19:37,874653
-4,-11,-28,-17,-3,0,-2,-6,2021-08-05 17:19:37,874653
1,-12,-2,-1,0,-2,0,2,2021-08-05 17:19:37,874653
-2,7,-3,1,0,-2,-3,-3,2021-08-05 17:19:37,874653
0,-4,-4,-5,0,-1,-2,-1,2021-08-05 17:19:37,905663
-1,2,15,11,0,-1,-2,2,2021-08-05 17:19:37,905663
0,-1,9,12,3,1,0,2,2021-08-05 17:19:37,905663
-6,-15,-19,-12,-7,-1,-3,-2,2021-08-05 17:19:37,905663
2,11,-2,-1,-1,-2,0,0,2021-08-05 17:19:37,905663
3,4,1,-1,2,1,0,1,2021-08-05 17:19:37,905663
-1,10,1,1,-1,-1,-2,0,2021-08-05 17:19:37,921710
-2,-9,7,5,2,-1,0,1,2021-08-05 17:19:37,921779
-7,0,-3,-3,-3,-3,-5,-6,2021-08-05 17:19:37,936654
1,-8,-5,-2,0,3,2,3,2021-08-05 17:19:37,951651
-6,6,-7,-7,-3,-3,-3,-4,2021-08-05 17:19:37,983732
0,-5,2,-2,0,1,0,0,2021-08-05 17:19:37,999719
-1,-1,-2,1,-1,-1,1,0,2021-08-05 17:19:37,999719
1,3,6,2,0,-3,-2,-2,2021-08-05 17:19:37,999719
-1,-2,2,5,0,-1,-1,-2,2021-08-05 17:19:37,999719
-2,-6,-5,3,0,0,-1,-1,2021-08-05 17:19:37,999719
-2,-6,-4,-10,-4,-2,-3,-2,2021-08-05 17:19:37,999719
-1,-4,-10,-10,-4,-1,1,2,2021-08-05 17:19:38,000308
3,7,6,5,1,-1,-2,1,2021-08-05 17:19:38,014617
-5,-17,-5,-5,-3,-2,-4,-5,2021-08-05 17:19:38,014617
0,0,-4,2,2,1,0,2,2021-08-05 17:19:38,014853
0,21,12,3,-1,-3,-1,-1,2021-08-05 17:19:38,014853
2,-6,1,-3,-1,-2,-1,0,2021-08-05 17:19:38,014853
-3,-4,-7,-5,0,-1,0,0,2021-08-05 17:19:38,014853
-5,-10,-5,-1,-2,-3,-1,-5,2021-08-05 17:19:38,014853
1,-6,-3,-7,3,1,1,4,2021-08-05 17:19:38,014853
-2,-9,0,1,0,3,1,-1,2021-08-05 17:19:38,014853
4,23,4,2,1,-1,0,2,2021-08-05 17:19:38,014853
1,5,-2,-3,-4,-3,-3,-3,2021-08-05 17:19:38,029790
-4,-4,0,1,-5,-3,-4,-5,2021-08-05 17:19:38,045650
1,2,5,5,1,0,1,2,2021-08-05 17:19:38,045650
-2,-9,-2,-3,-1,0,1,0,2021-08-05 17:19:38,045650
-2,7,-12,-4,1,1,4,4,2021-08-05 17:19:38,045650
2,9,5,2,-1,-1,0,-1,2021-08-05 17:19:38,045650
-6,-10,5,-3,-1,-2,0,-1,2021-08-05 17:19:38,045650
0,9,4,5,0,-1,-1,0,2021-08-05 17:19:38,045650
3,-2,-6,-7,0,-1,0,-3,2021-08-05 17:19:38,076650
-2,-10,9,2,-1,-2,-1,1,2021-08-05 17:19:38,107711
-1,5,-13,0,-1,-1,-1,-3,2021-08-05 17:19:38,123732
3,-1,-3,-5,1,2,1,2,2021-08-05 17:19:38,123732
-1,-12,1,0,-1,0,1,0,2021-08-05 17:19:38,123732
-3,7,1,1,1,0,-1,0,2021-08-05 17:19:38,123732
0,2,0,0,-1,-1,-1,-1,2021-08-05 17:19:38,123732
0,1,-5,-5,-5,-2,-3,-3,2021-08-05 17:19:38,123732
2,-2,0,3,-1,-2,-1,1,2021-08-05 17:19:38,123732
0,-7,-4,-1,-1,-1,0,-3,2021-08-05 17:19:38,123732
-1,0,1,-1,0,0,0,1,2021-08-05 17:19:38,124651
-2,-2,-3,-1,-1,0,-2,-4,2021-08-05 17:19:38,124651
-1,-2,-3,-3,-2,-2,0,0,2021-08-05 17:19:38,139677
-2,-3,1,5,0,0,0,0,2021-08-05 17:19:38,139677
-2,-6,-3,-2,1,0,0,-1,2021-08-05 17:19:38,139677
-2,5,-7,-5,-2,-3,-2,-4,2021-08-05 17:19:38,139677
-2,-8,-1,-1,-3,-3,-2,-2,2021-08-05 17:19:38,154651
1,16,3,4,2,0,0,1,2021-08-05 17:19:38,154817
1,3,-2,0,0,-1,1,2,2021-08-05 17:19:38,154817
-2,-6,1,2,-1,-1,0,-1,2021-08-05 17:19:38,154817
-7,-3,-8,-7,-4,-2,-6,-5,2021-08-05 17:19:38,169652
-2,-14,0,1,1,1,2,4,2021-08-05 17:19:38,169652
2,10,1,-2,-1,0,-1,0,2021-08-05 17:19:38,169652
-3,0,1,-2,-2,-2,0,0,2021-08-05 17:19:38,169977
2,7,0,0,1,0,1,2,2021-08-05 17:19:38,200725
-2,-13,-1,1,0,-1,0,-1,2021-08-05 17:19:38,216697
-3,-9,-8,-4,-1,-1,-1,0,2021-08-05 17:19:38,216697
-2,9,-3,3,2,2,0,0,2021-08-05 17:19:38,216697
-4,-4,3,2,0,1,-2,-4,2021-08-05 17:19:38,216697
-4,0,1,0,-3,-2,-3,-6,2021-08-05 17:19:38,217020
2,3,6,1,-3,-4,-3,-3,2021-08-05 17:19:38,217020
4,4,-4,-1,-3,-3,-3,0,2021-08-05 17:19:38,217020
0,-1,-1,0,-4,-1,0,2,2021-08-05 17:19:38,231740
2,5,-2,-1,-1,0,0,0,2021-08-05 17:19:38,231740
-2,-1,2,-3,-2,1,1,-1,2021-08-05 17:19:38,231740
-2,-13,-2,0,2,1,1,0,2021-08-05 17:19:38,231740
-3,0,-4,0,0,0,-1,-4,2021-08-05 17:19:38,262650
1,-3,-3,-3,-1,-1,-2,0,2021-08-05 17:19:38,262650
-3,-6,-2,0,-1,0,-2,-1,2021-08-05 17:19:38,262650
-3,-6,-6,-6,-3,-2,-3,-5,2021-08-05 17:19:38,262650
4,5,7,0,4,1,2,6,2021-08-05 17:19:38,262650
1,-2,-3,-3,-2,-2,0,-2,2021-08-05 17:19:38,262650
-3,0,2,2,-1,0,0,0,2021-08-05 17:19:38,277712
0,2,5,2,-2,0,0,0,2021-08-05 17:19:38,277712
-3,-8,-7,-3,0,0,0,-3,2021-08-05 17:19:38,293811
-1,-13,-1,2,2,1,-1,-1,2021-08-05 17:19:38,293811
0,12,-2,-5,-2,-1,-1,-3,2021-08-05 17:19:38,293811
-2,-16,3,0,-2,-2,-1,0,2021-08-05 17:19:38,293811
0,16,-2,-4,-3,-2,-1,-3,2021-08-05 17:19:38,323795
-1,-1,0,-1,0,-2,0,0,2021-08-05 17:19:38,323795
1,-1,-2,1,0,-1,-2,-2,2021-08-05 17:19:38,323795
-1,-8,0,0,-1,-3,-3,0,2021-08-05 17:19:38,323795
-5,-12,0,1,0,-1,-1,-2,2021-08-05 17:19:38,323795
-1,0,-8,-7,-1,0,-1,1,2021-08-05 17:19:38,323795
-2,-9,3,3,-1,-1,-2,0,2021-08-05 17:19:38,338702
0,13,-2,-6,-3,-2,-2,-3,2021-08-05 17:19:38,338702
0,-6,-5,-1,-3,0,-3,-1,2021-08-05 17:19:38,354765
1,9,3,2,0,0,1,2,2021-08-05 17:19:38,354765
-2,-10,-2,-1,-1,0,1,-2,2021-08-05 17:19:38,354765
1,2,5,2,2,1,1,1,2021-08-05 17:19:38,354765
0,6,3,-1,-1,-3,-1,-1,2021-08-05 17:19:38,385650
-4,-10,-8,-5,-3,-2,-1,-3,2021-08-05 17:19:38,401652
-1,-2,-1,0,1,-1,-2,-1,2021-08-05 17:19:38,432658
-3,-1,-1,2,-2,-1,0,-3,2021-08-05 17:19:38,432816
1,-4,-2,-2,0,-2,1,0,2021-08-05 17:19:38,432816
-1,2,2,1,-3,-1,-2,0,2021-08-05 17:19:38,432816
-1,-4,-3,-2,-1,0,-1,0,2021-08-05 17:19:38,432816
1,3,-2,1,1,0,1,1,2021-08-05 17:19:38,432816
-3,-5,2,-1,0,-1,-2,0,2021-08-05 17:19:38,432816
-1,5,2,0,-2,-3,-2,0,2021-08-05 17:19:38,432816
-2,5,0,-1,-1,-3,0,-5,2021-08-05 17:19:38,432816
-4,-28,-2,-3,1,1,-2,-2,2021-08-05 17:19:38,432816
-1,16,-3,0,1,0,0,1,2021-08-05 17:19:38,432816
4,2,0,2,-2,-1,0,-2,2021-08-05 17:19:38,432816
1,-1,-2,0,0,0,-2,0,2021-08-05 17:19:38,448690
-2,-6,-1,-2,-2,0,0,0,2021-08-05 17:19:38,448895
-1,12,1,-4,-4,-3,-1,-2,2021-08-05 17:19:38,448895
2,-1,1,1,-1,-2,-1,-1,2021-08-05 17:19:38,449112
-5,-17,-2,-1,-1,-1,0,-1,2021-08-05 17:19:38,464617
1,14,1,3,1,-2,1,0,2021-08-05 17:19:38,464617
1,-8,-3,-4,-3,-1,-2,-2,2021-08-05 17:19:38,464617
-3,4,-1,-2,-1,-1,-1,0,2021-08-05 17:19:38,465037
4,-1,1,0,2,1,0,3,2021-08-05 17:19:38,480616
-2,-2,-3,-3,-1,-1,-3,0,2021-08-05 17:19:38,480616
0,-6,0,2,0,-1,-1,0,2021-08-05 17:19:38,495650
-4,-6,-2,-2,-2,-2,-3,-3,2021-08-05 17:19:38,495846
2,1,-1,0,0,-1,0,1,2021-08-05 17:19:38,510652
-1,14,-1,0,-3,-1,-2,-2,2021-08-05 17:19:38,510652
-2,3,1,0,0,-1,-1,-1,2021-08-05 17:19:38,510652
2,-6,-1,0,0,1,-1,1,2021-08-05 17:19:38,510652
-4,1,7,-1,-2,-3,-2,0,2021-08-05 17:19:38,510652
0,8,-5,-3,-2,-1,-2,0,2021-08-05 17:19:38,510652
-2,-9,1,0,-5,-2,-1,-2,2021-08-05 17:19:38,542652
-3,-3,-3,0,1,0,1,-1,2021-08-05 17:19:38,542652
4,10,5,1,1,1,1,2,2021-08-05 17:19:38,542907
0,-3,-2,-1,0,-3,-1,-2,2021-08-05 17:19:38,542907
-1,-8,-3,0,0,0,1,2,2021-08-05 17:19:38,558784
1,-2,-3,-4,-3,-1,-1,-2,2021-08-05 17:19:38,573650
-3,-34,-8,-3,-1,0,-2,-3,2021-08-05 17:19:38,588616
3,26,0,1,-1,-2,1,-1,2021-08-05 17:19:38,588616
3,0,1,3,2,0,0,2,2021-08-05 17:19:38,588616
-5,-3,0,-1,-3,-1,-2,-5,2021-08-05 17:19:38,588616
1,7,2,3,0,0,1,4,2021-08-05 17:19:38,588616
-3,-10,-2,-3,-2,-2,-3,-2,2021-08-05 17:19:38,588616
-3,-5,-9,-10,-2,-2,-2,-4,2021-08-05 17:19:38,588616
-1,-6,-3,3,3,0,-1,2,2021-08-05 17:19:38,589617
-1,5,-2,0,-1,-1,-3,0,2021-08-05 17:19:38,589617
-1,-5,1,0,-1,1,0,0,2021-08-05 17:19:38,589617
0,-15,1,1,-1,1,0,-1,2021-08-05 17:19:38,620852
-3,18,1,-2,-3,-4,-2,-3,2021-08-05 17:19:38,636650
-1,5,-3,-1,0,-1,-1,-2,2021-08-05 17:19:38,636650
2,-6,0,-1,1,-2,0,0,2021-08-05 17:19:38,636650
0,-7,3,1,0,1,0,0,2021-08-05 17:19:38,636650
-2,3,0,-1,-1,0,-2,1,2021-08-05 17:19:38,636650
-1,2,-1,-1,-3,0,0,0,2021-08-05 17:19:38,636650
-1,0,-1,0,-1,-1,-1,0,2021-08-05 17:19:38,636650
-5,-2,-4,-4,-3,-2,-2,-5,2021-08-05 17:19:38,651653
1,-2,4,2,1,-1,0,0,2021-08-05 17:19:38,667660
0,8,-3,-3,-3,-2,1,-1,2021-08-05 17:19:38,682652
0,-13,-3,2,0,1,0,1,2021-08-05 17:19:38,697720
1,8,2,1,-2,-3,-1,-1,2021-08-05 17:19:38,713707
-2,-4,-11,3,-1,0,-2,-2,2021-08-05 17:19:38,713707
-5,-21,-6,-3,1,-1,-2,0,2021-08-05 17:19:38,713707
0,8,0,-1,-2,0,0,0,2021-08-05 17:19:38,713707
-1,4,5,-2,-2,-2,-3,-2,2021-08-05 17:19:38,713707
1,5,1,-1,-1,0,2,2,2021-08-05 17:19:38,713707
-3,-1,2,0,-1,-1,0,-4,2021-08-05 17:19:38,713707
-3,-5,-4,-3,-1,-2,-1,-2,2021-08-05 17:19:38,713707
1,0,-2,-1,1,0,0,-1,2021-08-05 17:19:38,713707
-1,-9,2,1,-2,-2,-1,-2,2021-08-05 17:19:38,713707
1,6,1,-1,0,0,-1,-2,2021-08-05 17:19:38,713707
3,-1,-2,0,2,1,1,3,2021-08-05 17:19:38,714617
-3,-4,-2,-1,-3,0,-1,-2,2021-08-05 17:19:38,744650
-2,-4,-1,-2,-1,-2,-1,0,2021-08-05 17:19:38,759649
1,9,2,1,0,0,1,1,2021-08-05 17:19:38,775693
0,-13,0,-2,-2,-1,-1,0,2021-08-05 17:19:38,775693
-1,-10,0,1,0,0,1,2,2021-08-05 17:19:38,775693
-3,7,-9,-4,-3,-2,-3,-4,2021-08-05 17:19:38,775693
5,5,0,1,0,1,2,6,2021-08-05 17:19:38,775693
1,-6,2,0,0,0,-1,0,2021-08-05 17:19:38,775693
-2,-5,-3,-1,-2,-4,-1,-4,2021-08-05 17:19:38,775693
0,-7,5,-1,-1,0,-1,0,2021-08-05 17:19:38,775693
-2,9,-1,-1,0,-1,0,-3,2021-08-05 17:19:38,776657
-4,-3,-2,-2,-4,-2,-3,-3,2021-08-05 17:19:38,776657
2,2,-2,1,0,0,0,3,2021-08-05 17:19:38,800653
0,-2,-1,0,1,1,1,1,2021-08-05 17:19:38,801681
-2,1,-3,-1,-1,-1,-1,-2,2021-08-05 17:19:38,801681
-5,7,0,-1,-4,-3,-3,-2,2021-08-05 17:19:38,801681
-2,13,2,-1,0,-1,-2,-4,2021-08-05 17:19:38,823616
4,-7,0,-2,-2,0,0,2,2021-08-05 17:19:38,823616
-2,-14,-4,-1,0,0,-1,1,2021-08-05 17:19:38,823616
-1,6,2,1,0,1,0,0,2021-08-05 17:19:38,823616
-1,3,-11,-3,-1,0,-2,-2,2021-08-05 17:19:38,823616
-2,2,2,3,0,-1,1,0,2021-08-05 17:19:38,823616
0,-4,1,0,-1,-2,0,0,2021-08-05 17:19:38,838644
-1,-9,-8,-4,-1,-1,0,-2,2021-08-05 17:19:38,838644
1,10,8,3,3,5,2,4,2021-08-05 17:19:38,854758
-1,3,2,-2,-3,-2,-1,-2,2021-08-05 17:19:38,854890
-5,-3,-7,-2,-5,-2,-2,-2,2021-08-05 17:19:38,854985
3,-4,0,1,1,-1,2,1,2021-08-05 17:19:38,854985
1,-6,-2,-1,-2,0,0,1,2021-08-05 17:19:38,885682
-1,2,-1,0,-1,1,2,0,2021-08-05 17:19:38,885682
-1,2,6,1,-2,-2,-2,-2,2021-08-05 17:19:38,885682
-2,-2,-4,-2,0,0,-1,-2,2021-08-05 17:19:38,885682
-2,-3,-3,0,-2,-1,-1,-2,2021-08-05 17:19:38,885682
1,3,-1,0,0,-1,-1,1,2021-08-05 17:19:38,885682
-1,4,1,-2,-1,-1,1,-1,2021-08-05 17:19:38,900704
0,-3,-1,0,-2,-1,0,1,2021-08-05 17:19:38,900704
-3,-4,-4,0,1,1,-1,-1,2021-08-05 17:19:38,932615
-1,3,0,-3,-1,-4,-3,-3,2021-08-05 17:19:38,947773
-1,4,-3,-3,1,-2,-4,-2,2021-08-05 17:19:38,947773
2,3,4,-1,0,1,-1,0,2021-08-05 17:19:38,947773
-2,-5,-1,-1,-3,-2,0,-1,2021-08-05 17:19:38,947773
0,-4,-1,1,0,-1,0,0,2021-08-05 17:19:38,947773
3,2,1,3,-1,1,0,1,2021-08-05 17:19:38,947773
-1,3,9,0,-1,0,0,1,2021-08-05 17:19:38,947773
-1,4,-15,3,1,1,0,0,2021-08-05 17:19:38,977697
0,-7,-2,-2,1,3,1,-1,2021-08-05 17:19:38,977697
-4,-11,-10,-4,-3,-4,-4,-5,2021-08-05 17:19:38,977697
-3,5,3,-2,-3,-3,-2,-6,2021-08-05 17:19:38,977697
3,0,10,-1,0,-1,0,2,2021-08-05 17:19:38,977697
-3,0,-2,-2,-1,-2,-2,-2,2021-08-05 17:19:38,978209
0,3,0,-1,1,0,0,1,2021-08-05 17:19:38,978209
-2,-4,-5,-1,-2,0,-3,-2,2021-08-05 17:19:38,978428
0,-1,0,-2,-1,-2,-1,-1,2021-08-05 17:19:39,008874
-1,1,-1,1,-1,0,-3,-5,2021-08-05 17:19:39,025000
1,-3,1,-1,-1,-1,0,0,2021-08-05 17:19:39,039939
-2,0,-4,-1,0,-2,0,-1,2021-08-05 17:19:39,039939
1,5,3,0,-2,-2,-1,0,2021-08-05 17:19:39,039939
-3,-19,-1,-3,-2,-3,-2,-1,2021-08-05 17:19:39,039939
0,-3,-4,-1,-2,2,1,0,2021-08-05 17:19:39,039939
-2,1,-2,-3,-3,-2,0,1,2021-08-05 17:19:39,039939
2,2,1,-1,2,0,0,1,2021-08-05 17:19:39,039939
-3,-1,0,1,0,-3,1,-3,2021-08-05 17:19:39,039939
-3,4,0,1,1,-1,-2,0,2021-08-05 17:19:39,055874
1,-1,4,3,0,-2,-3,-1,2021-08-05 17:19:39,055874
-2,4,-4,0,-3,-2,-3,-2,2021-08-05 17:19:39,055874
2,7,-17,-4,-4,-3,-3,-1,2021-08-05 17:19:39,055874
4,-6,12,0,-1,-1,1,2,2021-08-05 17:19:39,055874
1,1,-4,-2,1,1,1,0,2021-08-05 17:19:39,055874
-3,-2,6,-1,-1,-2,0,-1,2021-08-05 17:19:39,070874
-3,1,4,-1,-1,1,0,0,2021-08-05 17:19:39,086966
0,-1,-14,0,0,-1,0,-1,2021-08-05 17:19:39,118036
0,3,2,1,-1,-1,-1,0,2021-08-05 17:19:39,118036
-3,-12,1,0,1,0,-1,0,2021-08-05 17:19:39,118036
0,-7,-7,-1,2,0,-1,1,2021-08-05 17:19:39,118036
0,-8,7,-1,1,1,1,1,2021-08-05 17:19:39,118036
-6,-12,-6,-2,0,-4,-2,-3,2021-08-05 17:19:39,118036
1,0,-2,-5,-4,-1,-2,0,2021-08-05 17:19:39,133245
-3,-2,3,0,0,-1,-2,-2,2021-08-05 17:19:39,148895
-2,8,-2,-4,-3,-3,-4,-5,2021-08-05 17:19:39,149074
3,7,1,1,2,1,2,3,2021-08-05 17:19:39,149195
-1,-9,-5,0,-1,0,0,0,2021-08-05 17:19:39,149244
3,18,5,1,-2,-1,1,1,2021-08-05 17:19:39,149244
-1,-16,3,-2,-4,-2,-1,-4,2021-08-05 17:19:39,149423
1,0,-6,1,0,-1,1,2,2021-08-05 17:19:39,149423
-2,-2,-4,-4,-2,-2,-2,-3,2021-08-05 17:19:39,149423
3,-4,7,2,2,-1,0,1,2021-08-05 17:19:39,149423
-2,4,-15,-1,-1,0,0,-3,2021-08-05 17:19:39,164906
0,-5,5,-3,-3,-1,-1,-2,2021-08-05 17:19:39,180875
0,-10,-7,-1,-2,-1,0,-1,2021-08-05 17:19:39,197077
-2,6,1,0,0,-3,-3,-3,2021-08-05 17:19:39,212484
1,2,4,1,3,1,3,5,2021-08-05 17:19:39,227558
0,5,2,0,0,1,-1,-1,2021-08-05 17:19:39,227558
2,31,8,2,3,1,2,2,2021-08-05 17:19:39,227558
0,-29,-13,0,-1,0,0,-1,2021-08-05 17:19:39,227558
-5,-9,-8,-6,-5,-3,-3,-6,2021-08-05 17:19:39,227558
-2,-1,-4,-5,-4,-3,-2,-1,2021-08-05 17:19:39,227558
1,6,6,-1,-1,1,1,0,2021-08-05 17:19:39,227558
0,4,1,-1,-2,-2,-1,2,2021-08-05 17:19:39,227558
-1,10,3,0,-1,-1,-2,-3,2021-08-05 17:19:39,273542
3,-11,6,3,2,3,3,3,2021-08-05 17:19:39,273542
-1,-14,-7,2,-1,0,-2,-3,2021-08-05 17:19:39,273542
0,5,5,0,1,0,2,0,2021-08-05 17:19:39,273542
-1,-1,-6,0,-2,-2,-1,-2,2021-08-05 17:19:39,273542
-3,3,0,-3,-2,-2,-2,-2,2021-08-05 17:19:39,273542
-1,-7,-2,-2,1,-2,-1,0,2021-08-05 17:19:39,274136
1,0,3,0,0,2,0,-1,2021-08-05 17:19:39,274136
-1,17,4,0,-2,-4,-1,-1,2021-08-05 17:19:39,288451
-1,-30,-2,1,1,0,2,0,2021-08-05 17:19:39,303485
0,27,-1,1,3,2,2,2,2021-08-05 17:19:39,303485
-2,-29,1,-3,-2,-2,-1,-2,2021-08-05 17:19:39,303485
-2,2,-9,-1,-3,-1,-5,-3,2021-08-05 17:19:39,303787
-3,9,-3,-3,-4,-3,-2,-4,2021-08-05 17:19:39,303787
-2,-1,-1,-2,-3,-3,-3,-4,2021-08-05 17:19:39,333594
0,4,12,2,1,2,1,2,2021-08-05 17:19:39,333594
0,-19,-8,-1,0,0,-1,1,2021-08-05 17:19:39,333594
1,-6,-7,1,2,0,-2,-2,2021-08-05 17:19:39,333594
-2,-9,0,-1,-1,-2,-3,-3,2021-08-05 17:19:39,333594
-1,17,-4,-1,-1,-2,0,-1,2021-08-05 17:19:39,333594
-1,-5,5,-1,-2,-1,1,2,2021-08-05 17:19:39,333594
-1,7,-3,0,-3,-1,-2,-1,2021-08-05 17:19:39,333594
-1,-5,0,-2,-3,-2,0,-2,2021-08-05 17:19:39,348639
-1,-1,-2,-1,-1,-1,-2,-2,2021-08-05 17:19:39,348639
2,4,5,1,-1,-1,1,2,2021-08-05 17:19:39,348639
-2,0,-5,0,2,0,1,-1,2021-08-05 17:19:39,348639
-2,-6,1,1,1,-1,0,1,2021-08-05 17:19:39,363597
-2,-1,-3,-1,-3,-3,-2,-2,2021-08-05 17:19:39,363597
1,-1,1,0,0,0,-2,1,2021-08-05 17:19:39,363597
0,9,1,1,0,-1,-2,-2,2021-08-05 17:19:39,363597
-1,-13,-7,-2,0,-1,0,2,2021-08-05 17:19:39,363597
-1,1,-3,-1,1,1,0,-1,2021-08-05 17:19:39,363597
-1,4,4,-1,-2,-2,-1,-3,2021-08-05 17:19:39,378560
-1,-2,-2,-3,-3,-1,-2,-2,2021-08-05 17:19:39,378560
-2,1,3,0,-2,-3,-3,-4,2021-08-05 17:19:39,394563
4,31,-1,0,3,2,0,2,2021-08-05 17:19:39,409596
-6,-45,-3,-2,-2,0,-1,-3,2021-08-05 17:19:39,409596
1,5,1,0,0,-1,3,2,2021-08-05 17:19:39,409596
-1,3,2,0,-2,-1,-3,-3,2021-08-05 17:19:39,440596
-1,3,-1,-2,-3,-1,-1,0,2021-08-05 17:19:39,445562
-2,23,2,-3,-2,-3,-2,0,2021-08-05 17:19:39,445562
0,-34,0,2,2,1,0,0,2021-08-05 17:19:39,445562
-1,-2,1,1,0,2,0,0,2021-08-05 17:19:39,445562
-1,-3,-5,-3,-5,-3,-2,-4,2021-08-05 17:19:39,445562
-2,-7,-24,-2,2,1,0,2,2021-08-05 17:19:39,446596
-3,11,10,-3,-5,-5,-4,-6,2021-08-05 17:19:39,446596
0,-1,-5,-1,0,-2,-2,0,2021-08-05 17:19:39,456633
-1,-4,10,2,0,0,-1,-2,2021-08-05 17:19:39,471683
-1,0,2,-2,-1,-2,0,-2,2021-08-05 17:19:39,471746
-1,6,-6,0,-1,-1,0,1,2021-08-05 17:19:39,472008
0,9,6,-1,0,0,-2,1,2021-08-05 17:19:39,486658
-3,-25,-10,-3,-2,0,-2,-1,2021-08-05 17:19:39,486755
-3,11,6,-2,-2,-3,-3,-2,2021-08-05 17:19:39,486755
-3,-7,-8,-2,0,-1,1,-3,2021-08-05 17:19:39,486755
2,-1,4,3,0,0,2,4,2021-08-05 17:19:39,486755
0,-8,-6,-2,0,-2,1,1,2021-08-05 17:19:39,486755
3,1,2,4,4,1,2,2,2021-08-05 17:19:39,517596
-3,7,2,-2,-3,-1,-3,-5,2021-08-05 17:19:39,533596
-3,-5,-5,-4,-4,-3,-4,-4,2021-08-05 17:19:39,549697
0,8,-1,2,2,1,0,0,2021-08-05 17:19:39,565597
0,-1,2,0,1,0,-2,-1,2021-08-05 17:19:39,581683
1,4,-1,-1,-1,-1,-3,-1,2021-08-05 17:19:39,581788
2,-3,-2,0,-1,-1,-3,-1,2021-08-05 17:19:39,581788
-3,-4,-3,-2,-2,-1,-2,0,2021-08-05 17:19:39,581788
0,4,4,0,-4,-2,-3,0,2021-08-05 17:19:39,581788
-1,1,-2,-1,0,0,-1,0,2021-08-05 17:19:39,581788
-2,-7,-6,-3,-1,-1,0,-1,2021-08-05 17:19:39,581788
-3,23,1,0,0,-1,-2,-3,2021-08-05 17:19:39,581788
-5,-26,2,2,-2,0,-2,-4,2021-08-05 17:19:39,582598
5,9,3,3,4,3,4,11,2021-08-05 17:19:39,582598
-1,-2,4,-1,0,0,1,-2,2021-08-05 17:19:39,582598
-3,1,-5,1,-1,-4,-1,-2,2021-08-05 17:19:39,582598
1,12,-2,-2,-2,0,-1,-3,2021-08-05 17:19:39,582598
-3,-19,0,-2,-3,-3,-4,-3,2021-08-05 17:19:39,582598
-1,-7,-15,-2,-1,-2,0,-1,2021-08-05 17:19:39,597704
1,-6,7,0,-2,-1,0,0,2021-08-05 17:19:39,612696
1,13,-1,-2,-1,0,0,0,2021-08-05 17:19:39,628707
-3,3,5,1,-1,-1,0,-3,2021-08-05 17:19:39,628707
1,-4,-1,0,0,0,-1,2,2021-08-05 17:19:39,628707
-1,-3,-5,-5,-4,-2,-2,-3,2021-08-05 17:19:39,628944
-1,-2,1,-2,-2,-2,-1,-3,2021-08-05 17:19:39,629072
0,5,-1,0,0,-1,-1,-1,2021-08-05 17:19:39,629118
-1,4,5,2,1,0,-2,-1,2021-08-05 17:19:39,629118
2,-4,-10,0,3,3,1,2,2021-08-05 17:19:39,629336
0,-24,-1,-3,0,-2,-1,0,2021-08-05 17:19:39,629336
-5,-1,-6,-4,-3,-4,-4,-4,2021-08-05 17:19:39,629336
1,6,0,-2,-2,-2,0,2,2021-08-05 17:19:39,658596
-1,-6,8,-2,-1,-1,-3,-1,2021-08-05 17:19:39,674596
4,64,20,3,1,1,1,3,2021-08-05 17:19:39,689612
1,-60,-22,5,3,4,2,1,2021-08-05 17:19:39,689612
-7,-38,-13,-3,-5,-3,-2,-5,2021-08-05 17:19:39,689612
-4,32,23,-4,-5,-4,-2,-2,2021-08-05 17:19:39,689612
1,-25,-31,-2,1,1,1,1,2021-08-05 17:19:39,704597
0,27,3,-4,-2,-3,-2,-5,2021-08-05 17:19:39,720699
2,8,6,-2,-2,-1,-1,1,2021-08-05 17:19:39,736706
-2,-28,-6,0,-1,0,0,-2,2021-08-05 17:19:39,736706
1,16,8,-3,-2,-1,-2,-2,2021-08-05 17:19:39,736907
2,6,3,2,2,2,3,4,2021-08-05 17:19:39,736907
-1,-6,-4,-1,-1,-1,0,-4,2021-08-05 17:19:39,736907
-2,5,2,-1,-1,-3,1,0,2021-08-05 17:19:39,736907
-2,-5,3,3,-2,-2,0,-3,2021-08-05 17:19:39,736907
-4,0,-6,-2,-4,-1,-3,-2,2021-08-05 17:19:39,736907
1,4,3,-1,2,1,0,-1,2021-08-05 17:19:39,737618
0,-2,-6,1,1,-1,0,0,2021-08-05 17:19:39,737637
-3,3,-5,-1,0,-2,-1,-5,2021-08-05 17:19:39,737737
0,-15,3,0,-2,-3,1,0,2021-08-05 17:19:39,737737
-4,0,5,-3,-3,-2,-2,-4,2021-08-05 17:19:39,760562
5,16,-15,2,3,2,1,3,2021-08-05 17:19:39,761563
-2,-36,-5,-3,-1,-1,-4,-4,2021-08-05 17:19:39,761563
0,80,35,1,-3,-2,-2,1,2021-08-05 17:19:39,761563
1,-73,-45,2,4,4,2,3,2021-08-05 17:19:39,783613
-1,-11,-7,-6,-4,-2,-2,1,2021-08-05 17:19:39,799660
-1,8,6,2,-3,-2,-2,-3,2021-08-05 17:19:39,815771
0,12,7,0,-5,-1,-2,-2,2021-08-05 17:19:39,831679
-2,24,15,2,1,-1,0,-4,2021-08-05 17:19:39,846709
-1,-13,-6,0,0,1,0,1,2021-08-05 17:19:39,862596
0,1,-5,-2,1,2,0,2,2021-08-05 17:19:39,862596
0,-11,-1,-3,1,-4,-1,-1,2021-08-05 17:19:39,862596
1,12,2,-1,0,-1,0,-1,2021-08-05 17:19:39,862596
-1,-10,-3,0,-1,-1,0,-2,2021-08-05 17:19:39,862596
-1,3,6,1,-3,-2,-2,-1,2021-08-05 17:19:39,862596
-4,-12,-12,-1,-1,-1,0,-2,2021-08-05 17:19:39,862596
2,7,1,0,-2,-1,2,3,2021-08-05 17:19:39,862596
-1,2,6,-5,-3,-3,-3,-6,2021-08-05 17:19:39,862596
2,-1,1,3,2,2,1,3,2021-08-05 17:19:39,863599
-1,-12,-10,-4,-2,-2,-3,-4,2021-08-05 17:19:39,863599
0,12,9,4,0,-2,-2,1,2021-08-05 17:19:39,863599
-3,-2,1,-2,-2,-2,-1,0,2021-08-05 17:19:39,863599
-1,-3,-5,-1,1,0,0,0,2021-08-05 17:19:39,863599
-1,-6,-6,-1,-3,-1,-1,-2,2021-08-05 17:19:39,863599
-2,8,7,-4,-3,-2,-1,-1,2021-08-05 17:19:39,878752
2,-1,-1,1,-1,1,1,2,2021-08-05 17:19:39,893596
-1,-1,-2,0,4,2,1,1,2021-08-05 17:19:39,893596
-4,-15,-3,0,0,1,0,-3,2021-08-05 17:19:39,893596
-2,5,5,5,1,0,-3,-3,2021-08-05 17:19:39,893596
-2,1,-2,0,-4,-5,-6,-7,2021-08-05 17:19:39,893596
1,6,9,-1,-3,-2,-4,0,2021-08-05 17:19:39,908719
1,13,-4,-3,-3,-2,-1,1,2021-08-05 17:19:39,924704
0,-29,-15,-5,0,1,3,5,2021-08-05 17:19:39,939629
-3,-4,0,-5,-2,-2,0,-1,2021-08-05 17:19:39,954756
-4,-2,-1,-2,-2,-3,-2,-3,2021-08-05 17:19:39,969758
4,63,19,3,2,2,1,2,2021-08-05 17:19:39,969758
-3,-53,-11,0,1,0,0,0,2021-08-05 17:19:39,969758
0,11,0,3,3,3,2,2,2021-08-05 17:19:39,969758
0,15,3,-1,0,-1,0,0,2021-08-05 17:19:39,969758
0,-51,-31,-7,-3,-1,-2,-1,2021-08-05 17:19:39,969758
-1,17,0,-4,-4,-4,-3,-7,2021-08-05 17:19:39,969758
-1,6,12,0,-3,-1,-3,-2,2021-08-05 17:19:39,969758
0,0,-8,-1,1,0,0,0,2021-08-05 17:19:39,970709
0,3,18,1,0,0,1,1,2021-08-05 17:19:39,970709
-1,6,-1,1,1,0,-2,-1,2021-08-05 17:19:39,985739
2,14,-2,-2,1,-1,-1,1,2021-08-05 17:19:40,001851
3,-2,10,2,-5,-3,0,-3,2021-08-05 17:19:40,017856
-1,-58,-24,1,1,-1,0,-3,2021-08-05 17:19:40,018184
-16,31,2,-8,-3,0,-3,-3,2021-08-05 17:19:40,018297
0,-24,7,4,3,1,1,1,2021-08-05 17:19:40,018297
3,0,-21,2,4,3,1,3,2021-08-05 17:19:40,018297
2,6,4,-5,-5,-5,-2,0,2021-08-05 17:19:40,018628
8,7,9,2,-1,0,1,1,2021-08-05 17:19:40,018705
-2,13,-2,2,1,-2,0,0,2021-08-05 17:19:40,018705
-3,7,-4,-2,-2,0,0,-1,2021-08-05 17:19:40,018705
3,25,21,9,5,1,1,2,2021-08-05 17:19:40,018705
-6,-76,-32,-6,-4,-5,-4,-4,2021-08-05 17:19:40,048703
-1,46,-2,-6,-6,-1,-1,0,2021-08-05 17:19:40,064706
-1,-39,9,2,-1,-3,-4,-6,2021-08-05 17:19:40,080860
4,65,-1,4,4,5,5,7,2021-08-05 17:19:40,080946
3,-4,9,-2,0,-1,-3,-2,2021-08-05 17:19:40,080946
-5,-67,-41,-9,-3,-2,-3,-2,2021-08-05 17:19:40,080946
-2,25,5,-2,-5,-1,-2,-1,2021-08-05 17:19:40,080946
-17,-5,14,-5,-5,-5,-6,-7,2021-08-05 17:19:40,080946
7,35,19,8,4,1,2,6,2021-08-05 17:19:40,080946
8,-39,-24,-1,-3,-2,-1,-2,2021-08-05 17:19:40,080946
-7,14,-3,-6,-2,-4,-2,-4,2021-08-05 17:19:40,081705
-8,-30,-3,4,0,-2,-1,-2,2021-08-05 17:19:40,081705
2,35,9,0,-2,-1,2,-1,2021-08-05 17:19:40,126738
-2,-22,4,2,0,-1,0,4,2021-08-05 17:19:40,142755
7,56,4,0,0,2,0,1,2021-08-05 17:19:40,142755
-3,-96,-3,-2,-3,-2,-2,0,2021-08-05 17:19:40,142755
-10,28,-4,-5,-5,-6,-6,-7,2021-08-05 17:19:40,142755
-1,10,-11,-9,-1,-1,-2,-2,2021-08-05 17:19:40,142755
-4,-46,-6,3,3,3,2,4,2021-08-05 17:19:40,142755
-2,57,-1,-7,-2,-1,-3,-4,2021-08-05 17:19:40,142755
4,-19,9,2,-1,2,1,6,2021-08-05 17:19:40,142755
3,40,28,14,4,2,2,2,2021-08-05 17:19:40,143706
1,-16,5,-2,-3,-2,0,0,2021-08-05 17:19:40,143706
-2,-82,-65,3,8,4,2,0,2021-08-05 17:19:40,143706
-7,63,1,-17,-15,-10,-7,-11,2021-08-05 17:19:40,158705
-10,-54,-2,-1,2,2,1,-2,2021-08-05 17:19:40,158705
-3,22,14,-4,-5,-3,-4,-2,2021-08-05 17:19:40,158705
25,45,20,17,10,6,4,6,2021-08-05 17:19:40,158705
-14,39,12,3,-1,-1,-1,0,2021-08-05 17:19:40,174935
3,-44,-11,-2,2,2,1,-1,2021-08-05 17:19:40,174935
-13,-24,-23,-12,-10,-9,-7,-9,2021-08-05 17:19:40,190739
-4,2,11,-9,-10,-6,-6,-5,2021-08-05 17:19:40,190739
9,14,22,11,10,5,3,5,2021-08-05 17:19:40,190739
8,108,19,9,3,3,5,6,2021-08-05 17:19:40,191151
-4,-120,-22,0,0,1,1,2,2021-08-05 17:19:40,206783
-5,4,-23,-5,-3,-2,-2,-3,2021-08-05 17:19:40,206783
-5,-2,-11,-15,-7,-7,-6,-9,2021-08-05 17:19:40,221812
-4,25,17,-2,-4,-4,-5,-4,2021-08-05 17:19:40,221812
6,23,2,4,5,2,2,1,2021-08-05 17:19:40,221812
-2,-3,-1,-2,-3,-2,-2,0,2021-08-05 17:19:40,221812
8,-26,13,11,9,5,3,6,2021-08-05 17:19:40,236916
0,-8,-3,2,1,0,-1,-4,2021-08-05 17:19:40,236916
-4,16,-3,0,-2,-2,-2,-4,2021-08-05 17:19:40,237068
-4,17,21,-3,-6,-3,-4,-4,2021-08-05 17:19:40,237068
3,-11,-23,0,2,2,3,0,2021-08-05 17:19:40,266862
-4,-12,-7,-4,-5,-5,-3,-3,2021-08-05 17:19:40,267152
-2,-15,12,-2,-3,-2,0,0,2021-08-05 17:19:40,267152
1,22,-3,0,2,3,3,2,2021-08-05 17:19:40,267152
2,-24,-6,2,1,1,-1,0,2021-08-05 17:19:40,281910
-2,31,-8,0,1,1,0,2,2021-08-05 17:19:40,281910
-3,-15,3,-5,-4,-3,-4,-4,2021-08-05 17:19:40,281910
1,3,6,-4,-2,-2,-2,-2,2021-08-05 17:19:40,281910
2,-21,-6,1,-1,0,-1,2,2021-08-05 17:19:40,297862
-2,1,-1,-5,-5,-5,-3,-1,2021-08-05 17:19:40,298092
1,22,3,4,4,2,2,0,2021-08-05 17:19:40,298164
1,-11,2,-2,-1,1,0,1,2021-08-05 17:19:40,298164
-1,8,6,-2,-3,-3,-1,-3,2021-08-05 17:19:40,328822
3,11,0,5,0,0,0,1,2021-08-05 17:19:40,343872
-2,-33,-12,-1,-1,-1,-2,-1,2021-08-05 17:19:40,343872
0,-10,-12,-3,1,-2,0,1,2021-08-05 17:19:40,343872
0,52,1,-6,-6,-4,-3,-5,2021-08-05 17:19:40,343872
-2,-70,-8,1,1,-1,0,-1,2021-08-05 17:19:40,343872
-2,25,1,-2,-1,-1,-3,-1,2021-08-05 17:19:40,343872
5,76,35,3,-2,-3,-2,-2,2021-08-05 17:19:40,343872
-7,-91,-23,2,3,3,2,4,2021-08-05 17:19:40,359872
-6,1,-10,0,4,2,1,-1,2021-08-05 17:19:40,375858
5,51,3,-2,-1,-2,-3,-2,2021-08-05 17:19:40,375858
-2,-74,-10,-7,-6,-4,-4,-3,2021-08-05 17:19:40,375858
-14,32,12,0,-4,-1,-2,-3,2021-08-05 17:19:40,375858
5,8,12,3,2,0,0,1,2021-08-05 17:19:40,375858
-2,-10,-12,0,2,2,0,-1,2021-08-05 17:19:40,375858
6,36,0,0,1,2,3,2,2021-08-05 17:19:40,375858
3,14,-9,0,0,-1,-3,-3,2021-08-05 17:19:40,402872
-6,-33,11,-5,-4,-2,-1,-2,2021-08-05 17:19:40,402872
4,-7,2,3,1,0,1,3,2021-08-05 17:19:40,402872
-13,-26,-10,-4,-1,-3,-4,-4,2021-08-05 17:19:40,403856
-4,0,-9,-4,-3,-5,-5,-3,2021-08-05 17:19:40,421969
2,95,25,-4,-5,-4,-4,-5,2021-08-05 17:19:40,438129
7,-67,-5,7,10,6,4,9,2021-08-05 17:19:40,469030
-10,-46,-35,-7,-4,-1,-1,-1,2021-08-05 17:19:40,469030
7,15,7,-3,-2,-2,-1,-1,2021-08-05 17:19:40,469030
1,-17,-6,4,2,-2,-1,0,2021-08-05 17:19:40,469030
-7,31,13,2,-1,-1,0,-1,2021-08-05 17:19:40,469030
-8,11,-2,-10,-3,-3,-4,-2,2021-08-05 17:19:40,469030
-1,-45,0,0,1,1,-1,-1,2021-08-05 17:19:40,469030
6,43,10,3,-3,2,0,2,2021-08-05 17:19:40,469030
3,-25,-9,0,-2,-1,0,-1,2021-08-05 17:19:40,469947
0,7,0,3,-3,-1,-1,-3,2021-08-05 17:19:40,469947
-1,10,-7,-3,-4,-4,-3,-3,2021-08-05 17:19:40,469947
0,-4,1,-2,0,-2,-1,0,2021-08-05 17:19:40,469947
-2,2,22,7,5,3,1,-1,2021-08-05 17:19:40,484965
3,14,-3,2,2,1,1,5,2021-08-05 17:19:40,484965
1,-32,-20,-3,-4,-2,-1,-2,2021-08-05 17:19:40,530738
-5,-16,-1,-8,-9,-7,-5,-8,2021-08-05 17:19:40,546800
-6,66,-7,0,2,1,0,-3,2021-08-05 17:19:40,561738
2,-51,15,4,2,2,-1,0,2021-08-05 17:19:40,561738
4,27,11,4,1,3,3,4,2021-08-05 17:19:40,561738
-6,-41,-9,-3,-1,-3,-1,-4,2021-08-05 17:19:40,562060
3,26,0,-4,-6,-3,-1,1,2021-08-05 17:19:40,562166
-1,9,-3,-5,-2,-1,0,-3,2021-08-05 17:19:40,562259
4,-11,-2,1,1,1,1,2,2021-08-05 17:19:40,562259
-2,5,-11,0,-2,0,-1,-2,2021-08-05 17:19:40,562394
-14,-26,5,-3,-2,-3,-3,-3,2021-08-05 17:19:40,562394
1,-23,-7,0,-3,-3,-2,-3,2021-08-05 17:19:40,562687
0,21,20,-1,-1,-1,-2,-2,2021-08-05 17:19:40,562687
13,81,-11,4,9,4,3,5,2021-08-05 17:19:40,562687
-2,-80,-12,-5,0,-1,0,-2,2021-08-05 17:19:40,562687
-7,15,-2,-2,-4,-4,-2,-3,2021-08-05 17:19:40,562687
3,11,13,4,4,0,1,0,2021-08-05 17:19:40,576672
-4,9,14,-1,-3,-4,-1,-1,2021-08-05 17:19:40,576672
-2,36,-21,-6,-3,-3,-2,-5,2021-08-05 17:19:40,576672
8,-45,10,8,7,4,6,7,2021-08-05 17:19:40,576672
-8,-8,-21,-9,-6,-1,-2,-4,2021-08-05 17:19:40,607741
-1,26,11,-1,-2,-1,0,-2,2021-08-05 17:19:40,623731
2,-2,-7,-2,-1,-1,-1,0,2021-08-05 17:19:40,623731
0,3,18,-2,-5,-4,-2,-3,2021-08-05 17:19:40,623731
3,41,5,5,3,2,1,1,2021-08-05 17:19:40,623731
-4,-92,-34,-9,-3,0,-3,-1,2021-08-05 17:19:40,623731
0,7,11,2,1,1,0,-1,2021-08-05 17:19:40,623731
-12,56,17,1,-2,-3,-4,-4,2021-08-05 17:19:40,623731
9,-28,-23,0,2,2,4,6,2021-08-05 17:19:40,638673
-2,-10,-5,-2,1,0,-1,-2,2021-08-05 17:19:40,638982
8,12,0,0,-2,-2,0,0,2021-08-05 17:19:40,638982
-2,9,5,-2,-1,-3,-4,-2,2021-08-05 17:19:40,638982
-8,-5,3,-4,-3,-3,-4,-2,2021-08-05 17:19:40,669770
3,27,16,2,1,1,2,1,2021-08-05 17:19:40,669770
-5,-46,-17,1,1,2,3,2,2021-08-05 17:19:40,685672
5,-2,-11,-1,3,2,3,1,2021-08-05 17:19:40,701673
-8,-17,12,-2,-3,-4,-4,-7,2021-08-05 17:19:40,701841
1,21,-12,3,3,3,2,0,2021-08-05 17:19:40,701841
-3,-39,-1,-4,-4,-5,-7,-4,2021-08-05 17:19:40,701841
1,39,4,-2,-6,-5,-4,-4,2021-08-05 17:19:40,701841
9,36,7,4,3,0,-1,1,2021-08-05 17:19:40,701841
-3,-59,-1,0,-1,0,-1,2,2021-08-05 17:19:40,701841
-7,15,-6,-4,-2,1,1,1,2021-08-05 17:19:40,701841
0,0,-17,-11,-5,-2,-2,-3,2021-08-05 17:19:40,701841
6,-13,7,3,0,0,1,-1,2021-08-05 17:19:40,729638
-14,15,6,2,-2,-1,-1,-4,2021-08-05 17:19:40,729638
0,6,2,-1,-2,-1,0,0,2021-08-05 17:19:40,729638
2,-1,-1,0,-3,-2,-3,0,2021-08-05 17:19:40,729638
2,23,2,2,-1,-1,-1,0,2021-08-05 17:19:40,729638
-5,-80,-17,-5,-3,-3,-4,-3,2021-08-05 17:19:40,729638
3,16,-2,-2,-4,-3,-2,2,2021-08-05 17:19:40,749677
-2,20,9,-3,-2,-1,0,-1,2021-08-05 17:19:40,779690
1,55,5,6,6,5,4,4,2021-08-05 17:19:40,795690
2,-44,10,1,0,-1,-1,-2,2021-08-05 17:19:40,795690
1,10,-12,0,0,0,1,-1,2021-08-05 17:19:40,795690
0,30,13,2,1,1,1,0,2021-08-05 17:19:40,795690
-4,-90,-16,-5,-4,-3,-1,-2,2021-08-05 17:19:40,795690
-2,-1,-21,4,1,0,0,-1,2021-08-05 17:19:40,795690
-2,36,25,-5,-4,-8,-8,-6,2021-08-05 17:19:40,795690
1,14,-9,1,2,2,1,1,2021-08-05 17:19:40,795690
-3,28,18,-3,-2,-1,1,1,2021-08-05 17:19:40,796672
5,-13,-14,-3,-1,-1,-2,2,2021-08-05 17:19:40,796672
-12,-36,-18,-6,-6,-7,-6,-7,2021-08-05 17:19:40,811722
0,6,6,4,2,2,0,-1,2021-08-05 17:19:40,811722
0,-16,11,3,3,0,0,2,2021-08-05 17:19:40,811722
11,65,9,-1,0,2,1,1,2021-08-05 17:19:40,811722
1,7,4,5,2,2,3,3,2021-08-05 17:19:40,858432
-13,-98,-33,-6,-4,-5,-3,-4,2021-08-05 17:19:40,873441
-4,1,-5,-8,-9,-6,-6,-5,2021-08-05 17:19:40,873535
4,17,2,1,1,2,0,1,2021-08-05 17:19:40,873672
2,45,12,5,3,3,1,1,2021-08-05 17:19:40,873672
-1,-12,10,2,-1,0,-3,0,2021-08-05 17:19:40,873822
-5,-31,-26,-5,-2,1,0,0,2021-08-05 17:19:40,873822
1,32,0,-4,-4,-5,-2,-1,2021-08-05 17:19:40,873822
1,-2,8,2,1,2,2,0,2021-08-05 17:19:40,873822
0,-10,12,5,-1,1,1,2,2021-08-05 17:19:40,873822
-7,-41,-30,-6,-4,-4,-4,-4,2021-08-05 17:19:40,873822
-3,8,10,0,2,1,1,1,2021-08-05 17:19:40,874432
5,-3,-21,-6,0,0,-1,-1,2021-08-05 17:19:40,874432
-1,27,2,-3,-2,-4,-3,-3,2021-08-05 17:19:40,874432
-8,10,7,-2,-3,-5,-3,-4,2021-08-05 17:19:40,919467
3,28,21,14,8,4,6,7,2021-08-05 17:19:40,934489
-2,-36,2,2,-2,-1,-1,-1,2021-08-05 17:19:40,950587
10,-23,-35,-7,0,2,0,0,2021-08-05 17:19:40,950669
-7,-12,6,1,-1,-2,-2,-4,2021-08-05 17:19:40,950669
-12,5,-2,-9,-4,-5,-5,-6,2021-08-05 17:19:40,951050
11,96,22,-1,-2,-3,-1,0,2021-08-05 17:19:40,951197
0,-61,9,9,5,3,3,5,2021-08-05 17:19:40,951197
1,6,-13,4,4,3,4,2,2021-08-05 17:19:40,965556
-3,-49,-15,-9,-9,-7,-4,-3,2021-08-05 17:19:40,981536
-4,8,0,-7,-7,-4,-4,-5,2021-08-05 17:19:40,997537
1,22,-1,-1,-2,-1,0,2,2021-08-05 17:19:40,997537
3,33,11,3,3,2,1,1,2021-08-05 17:19:40,997537
3,-8,35,2,-2,-2,-3,-2,2021-08-05 17:19:40,997537
-11,-69,-42,1,4,6,2,2,2021-08-05 17:19:40,997537
5,26,1,-3,-3,-4,-3,-7,2021-08-05 17:19:40,997537
-12,56,-2,-3,-5,-5,-3,-5,2021-08-05 17:19:40,997537
3,-73,-2,-2,-1,2,2,0,2021-08-05 17:19:40,997537
8,34,13,-1,-2,-2,0,3,2021-08-05 17:19:40,997537
-1,-24,-19,1,3,2,3,3,2021-08-05 17:19:40,997537
0,15,0,-1,-2,-2,-4,-3,2021-08-05 17:19:40,997537
-4,-2,-13,-4,-3,-5,-3,-4,2021-08-05 17:19:40,998478
1,2,18,5,4,1,0,0,2021-08-05 17:19:40,998478
-2,10,7,-1,-4,-5,-3,-2,2021-08-05 17:19:40,998652
8,18,2,2,6,7,4,7,2021-08-05 17:19:41,027536
-6,-52,-9,-2,1,1,2,2,2021-08-05 17:19:41,042940
-3,-14,-16,-5,-5,-4,-2,-2,2021-08-05 17:19:41,043162
-4,18,3,-3,-3,-3,-4,-3,2021-08-05 17:19:41,043162
0,-3,12,-3,-2,-2,-2,-2,2021-08-05 17:19:41,043430
1,23,0,2,2,1,0,-1,2021-08-05 17:19:41,043430
-1,-14,-10,1,1,0,1,-1,2021-08-05 17:19:41,043430
-3,21,0,-4,-2,-2,-2,-5,2021-08-05 17:19:41,043430
3,-70,7,-2,-3,-3,-2,-1,2021-08-05 17:19:41,056986
-4,21,-13,-2,-2,-1,-3,-2,2021-08-05 17:19:41,056986
-2,-20,25,5,2,1,2,3,2021-08-05 17:19:41,057557
-1,5,-28,-2,0,0,-1,0,2021-08-05 17:19:41,057872
-1,15,9,-2,-3,-3,-3,-3,2021-08-05 17:19:41,106077
-1,-4,-4,0,0,1,-1,-2,2021-08-05 17:19:41,106077
0,6,-5,-5,-3,-4,-3,-5,2021-08-05 17:19:41,106077
3,27,22,3,0,1,2,2,2021-08-05 17:19:41,106077
2,-19,-6,4,4,3,2,5,2021-08-05 17:19:41,106077
-3,-13,-17,-5,-6,-4,-5,-3,2021-08-05 17:19:41,106077
-4,25,3,-4,-3,-2,-4,-3,2021-08-05 17:19:41,106077
2,-15,13,7,3,3,2,3,2021-08-05 17:19:41,106985
-4,-32,-22,-2,-2,-1,-1,-2,2021-08-05 17:19:41,121998
-4,21,10,-4,-5,-5,-4,-7,2021-08-05 17:19:41,138008
2,24,0,-4,-3,-2,-2,-2,2021-08-05 17:19:41,138171
-3,-55,-12,-2,2,2,1,0,2021-08-05 17:19:41,138171
3,26,2,-3,-1,0,0,0,2021-08-05 17:19:41,168065
4,61,24,9,3,1,1,2,2021-08-05 17:19:41,183998
-2,-77,-18,-2,-1,-1,0,1,2021-08-05 17:19:41,199946
4,53,-2,-6,-5,-3,-3,-7,2021-08-05 17:19:41,200089
-22,-54,-25,-9,-7,-6,-4,-7,2021-08-05 17:19:41,215031
