EMG 1,EMG 2,EMG 3,EMG 4,EMG 5,EMG 6,EMG 7,EMG 8,Timestamp,Milliseconds
-3,-1,2,1,4,1,-2,-3,2021-08-07 11:38:45,837066
3,4,6,14,13,6,4,3,2021-08-07 11:38:45,837066
2,2,1,4,3,3,2,1,2021-08-07 11:38:45,837066
-2,-1,-1,-2,-2,-2,-1,-2,2021-08-07 11:38:45,837066
-3,-3,-3,-2,0,-1,-1,0,2021-08-07 11:38:45,837066
-2,-1,0,-2,-4,-3,-3,-1,2021-08-07 11:38:45,837066
1,2,3,7,4,0,-1,2,2021-08-07 11:38:45,837066
0,0,-1,5,4,2,1,2,2021-08-07 11:38:45,837066
-1,-1,-3,-6,-4,-1,-1,-1,2021-08-07 11:38:45,837066
0,-1,3,9,6,2,1,-2,2021-08-07 11:38:45,838065
-2,-2,-3,-5,-4,-2,0,1,2021-08-07 11:38:45,838065
-3,-4,-4,-7,-8,-6,-3,-1,2021-08-07 11:38:45,838065
-1,-1,-2,-5,-5,-4,-2,-1,2021-08-07 11:38:45,853064
-1,0,-3,-2,0,-1,-3,-1,2021-08-07 11:38:45,853064
0,-2,-1,-4,-2,-1,-2,-4,2021-08-07 11:38:45,868065
1,-1,1,-1,-1,-1,-1,-3,2021-08-07 11:38:45,884068
-3,-4,-3,-4,-4,-3,-1,-2,2021-08-07 11:38:45,884068
-3,-3,-5,-7,-8,-4,-1,-1,2021-08-07 11:38:45,884068
6,7,4,-2,1,2,3,3,2021-08-07 11:38:45,884068
-2,-2,0,-2,-5,-3,-3,-3,2021-08-07 11:38:45,884068
3,0,0,9,12,5,2,1,2021-08-07 11:38:45,900066
1,2,3,7,7,4,2,0,2021-08-07 11:38:45,900066
-7,-6,-6,-4,-10,-5,-5,-4,2021-08-07 11:38:45,900066
-2,-2,-4,-2,0,-2,-1,-3,2021-08-07 11:38:45,900066
-1,1,0,2,7,4,0,-2,2021-08-07 11:38:45,947063
0,0,0,-2,-1,-2,0,1,2021-08-07 11:38:45,947063
-3,-2,-3,-7,-9,-3,-1,-2,2021-08-07 11:38:45,947063
1,1,3,14,14,5,1,2,2021-08-07 11:38:45,947063
0,-1,-1,-4,-3,-2,-1,0,2021-08-07 11:38:45,947063
-3,-3,-4,-3,-3,-4,-2,-2,2021-08-07 11:38:45,947063
-1,-1,0,0,-3,-2,-4,0,2021-08-07 11:38:45,947063
-1,-2,-3,-13,-12,-5,0,-1,2021-08-07 11:38:45,947063
1,0,2,1,3,1,0,1,2021-08-07 11:38:45,963066
-1,-4,-2,6,2,1,0,-2,2021-08-07 11:38:45,963066
-1,0,-1,1,5,1,1,0,2021-08-07 11:38:45,963066
-2,-3,-2,-3,-4,-3,-3,-3,2021-08-07 11:38:45,963066
0,-1,0,5,4,1,0,0,2021-08-07 11:38:45,979065
1,2,3,-2,-2,0,-1,0,2021-08-07 11:38:45,979065
-2,-1,-4,-1,-4,-3,-2,-2,2021-08-07 11:38:45,979065
-2,-4,-5,-3,-8,-3,-4,-3,2021-08-07 11:38:45,979065
2,4,4,14,22,10,3,3,2021-08-07 11:38:45,995065
-1,-2,0,-3,-4,-3,-2,-1,2021-08-07 11:38:45,995065
-1,-5,-1,-2,-2,0,-2,-3,2021-08-07 11:38:46,027067
-1,0,-4,-7,-6,-3,-1,0,2021-08-07 11:38:46,027067
-4,-4,-3,-11,-17,-8,-4,-3,2021-08-07 11:38:46,027067
1,2,2,6,8,4,1,2,2021-08-07 11:38:46,027067
1,1,1,-2,-3,0,-2,1,2021-08-07 11:38:46,041065
0,0,-1,-1,1,-2,-1,-1,2021-08-07 11:38:46,041065
1,0,-1,1,2,0,1,1,2021-08-07 11:38:46,041065
-2,-2,-1,4,7,2,-1,0,2021-08-07 11:38:46,041065
-4,-3,-7,-13,-10,-5,-3,-4,2021-08-07 11:38:46,059064
0,-1,2,5,1,-1,0,-1,2021-08-07 11:38:46,059064
-1,-3,-1,-2,-5,-2,-2,-2,2021-08-07 11:38:46,059064
1,2,1,-3,-4,-1,1,0,2021-08-07 11:38:46,059064
-3,-3,0,8,10,0,-2,-2,2021-08-07 11:38:46,090065
-3,-5,-2,1,-2,-1,-2,0,2021-08-07 11:38:46,090065
-2,-2,-1,-4,-8,-4,-2,-1,2021-08-07 11:38:46,090065
-1,-1,-4,-1,-3,0,-3,0,2021-08-07 11:38:46,090065
2,4,3,3,1,2,1,1,2021-08-07 11:38:46,106065
-1,2,1,1,2,1,-1,-1,2021-08-07 11:38:46,106065
-2,-4,-3,-7,-8,-4,-2,0,2021-08-07 11:38:46,106065
-2,-2,-3,0,-2,-2,-2,-1,2021-08-07 11:38:46,106065
-3,-2,-4,-4,-3,-3,-3,-1,2021-08-07 11:38:46,106065
-2,-1,-3,-6,-1,-1,0,0,2021-08-07 11:38:46,106065
0,1,1,4,1,0,0,0,2021-08-07 11:38:46,122065
-3,-2,-3,-7,-7,-3,1,0,2021-08-07 11:38:46,138065
-1,-1,-2,0,9,4,0,-1,2021-08-07 11:38:46,138065
3,7,9,11,7,1,-1,0,2021-08-07 11:38:46,138065
-1,-1,-2,2,2,-2,-1,0,2021-08-07 11:38:46,138065
0,1,0,-2,-7,-2,-1,2,2021-08-07 11:38:46,138065
-5,-6,-7,-15,-20,-14,-8,-7,2021-08-07 11:38:46,170065
-3,-2,-2,-5,-2,-3,-4,-3,2021-08-07 11:38:46,170065
3,3,3,9,10,6,2,2,2021-08-07 11:38:46,170065
3,2,3,5,16,7,2,0,2021-08-07 11:38:46,170065
0,-3,-1,1,-1,2,2,1,2021-08-07 11:38:46,186066
0,-3,-6,-12,-12,-1,-1,0,2021-08-07 11:38:46,186066
-1,-3,-3,-2,-9,-3,-1,0,2021-08-07 11:38:46,186066
-3,-3,-3,-9,-3,-2,-2,-2,2021-08-07 11:38:46,186066
-1,2,7,15,11,4,0,-1,2021-08-07 11:38:46,202065
-2,-2,1,1,-1,-1,-2,-3,2021-08-07 11:38:46,202065
-2,-2,-2,-8,-5,-3,-4,-4,2021-08-07 11:38:46,202065
1,0,3,2,-4,-3,-5,0,2021-08-07 11:38:46,202065
3,2,-2,-7,-5,-2,0,2,2021-08-07 11:38:46,218064
0,1,-1,2,0,-1,0,1,2021-08-07 11:38:46,218064
1,0,3,15,15,5,3,1,2021-08-07 11:38:46,218064
-3,-4,-5,-6,-6,-4,-1,-3,2021-08-07 11:38:46,218064
-2,1,2,2,2,-1,0,-1,2021-08-07 11:38:46,250065
-1,-2,-2,-5,-3,-1,1,0,2021-08-07 11:38:46,266066
-4,-4,-6,-18,-18,-9,-4,-1,2021-08-07 11:38:46,282065
1,1,4,10,10,3,1,0,2021-08-07 11:38:46,282065
1,-1,1,6,9,6,2,2,2021-08-07 11:38:46,298066
-1,-1,-3,2,7,2,1,0,2021-08-07 11:38:46,298066
-1,-2,-3,-7,-6,-4,-2,-3,2021-08-07 11:38:46,298066
1,-1,-2,-3,-6,-3,-1,0,2021-08-07 11:38:46,298066
-1,-2,-4,-6,-6,-3,-2,-1,2021-08-07 11:38:46,298066
1,1,3,9,5,2,-1,2,2021-08-07 11:38:46,298066
0,0,-1,-4,-5,-2,-2,-1,2021-08-07 11:38:46,299065
-4,-4,-6,-7,1,0,-2,-2,2021-08-07 11:38:46,299065
3,4,4,7,1,0,1,1,2021-08-07 11:38:46,299065
1,0,-1,0,-1,-1,-1,-1,2021-08-07 11:38:46,299065
-2,0,-2,-1,-2,0,-1,-2,2021-08-07 11:38:46,314066
-3,0,-2,-5,-7,-4,-1,-3,2021-08-07 11:38:46,329067
-3,-2,-3,-4,-8,-4,-2,-2,2021-08-07 11:38:46,329067
1,1,2,4,11,5,3,2,2021-08-07 11:38:46,329067
-1,0,1,-2,-2,-2,-2,-1,2021-08-07 11:38:46,329067
-2,-2,-2,1,-4,-2,0,-2,2021-08-07 11:38:46,329067
-1,-3,1,2,1,1,-2,-1,2021-08-07 11:38:46,345065
0,-2,-3,-4,-5,-3,-1,-2,2021-08-07 11:38:46,345065
0,0,-1,-2,-2,2,1,0,2021-08-07 11:38:46,361069
-1,-1,0,3,0,-2,-1,0,2021-08-07 11:38:46,377067
-3,-2,-1,-2,-4,-2,-1,-2,2021-08-07 11:38:46,408067
-1,1,0,-2,-2,0,-3,-1,2021-08-07 11:38:46,408067
3,4,5,3,8,4,3,2,2021-08-07 11:38:46,408067
-1,-2,0,-5,-6,-3,-2,-3,2021-08-07 11:38:46,408067
-2,-3,-1,1,1,0,-2,0,2021-08-07 11:38:46,424067
2,-2,1,6,7,0,0,0,2021-08-07 11:38:46,424067
-1,0,-3,-1,-3,-2,-1,0,2021-08-07 11:38:46,424067
-1,-2,-1,-2,0,-1,-3,-1,2021-08-07 11:38:46,424067
-1,0,-3,-7,-5,-3,-2,0,2021-08-07 11:38:46,424067
-3,-1,-1,-3,-4,-2,-1,0,2021-08-07 11:38:46,425066
-1,-2,0,4,4,-1,0,-2,2021-08-07 11:38:46,425066
0,1,0,1,-1,-2,-1,0,2021-08-07 11:38:46,425066
-2,-3,-1,0,6,2,1,-1,2021-08-07 11:38:46,425066
1,2,1,1,-2,-2,0,-1,2021-08-07 11:38:46,425066
-1,-1,-4,-7,-9,-4,-2,-2,2021-08-07 11:38:46,425066
-1,-1,-3,-8,-10,-7,-2,-2,2021-08-07 11:38:46,425066
1,0,3,8,12,6,2,0,2021-08-07 11:38:46,440065
-1,-1,-2,-2,0,1,1,0,2021-08-07 11:38:46,456066
-3,-4,0,1,-1,-3,-2,-1,2021-08-07 11:38:46,456066
-5,-6,-9,-13,-13,-6,-6,-5,2021-08-07 11:38:46,456066
4,6,7,8,3,3,2,3,2021-08-07 11:38:46,456066
-2,-4,-2,2,6,1,1,0,2021-08-07 11:38:46,456066
2,1,2,1,0,1,1,2,2021-08-07 11:38:46,456066
-5,-2,-3,3,5,0,-1,-2,2021-08-07 11:38:46,457066
-1,1,-2,-2,-4,-3,0,0,2021-08-07 11:38:46,487066
-1,0,-1,-4,-4,-3,-1,-1,2021-08-07 11:38:46,502065
-2,-1,0,-1,-2,-2,-2,-2,2021-08-07 11:38:46,518066
-1,0,0,2,3,2,-1,-1,2021-08-07 11:38:46,518066
-2,-2,-6,-6,-5,-3,-3,-1,2021-08-07 11:38:46,518066
-1,-4,-5,-12,-11,-4,-2,-2,2021-08-07 11:38:46,518066
3,3,4,8,11,5,1,1,2021-08-07 11:38:46,518066
0,2,2,3,5,4,3,2,2021-08-07 11:38:46,519067
-1,-2,-1,-3,-4,-4,-3,-2,2021-08-07 11:38:46,519067
-5,-3,-5,-8,-9,-5,-3,-3,2021-08-07 11:38:46,519067
-4,-3,-6,-9,-6,-3,-3,-2,2021-08-07 11:38:46,519067
-2,-1,-1,1,3,0,-1,1,2021-08-07 11:38:46,519067
2,1,0,3,3,2,1,0,2021-08-07 11:38:46,550067
-1,1,3,0,-1,-2,-2,0,2021-08-07 11:38:46,550067
-1,0,-1,-7,-5,0,1,-1,2021-08-07 11:38:46,566066
1,0,4,6,7,3,0,1,2021-08-07 11:38:46,566066
-1,-2,-1,-2,2,1,0,-1,2021-08-07 11:38:46,566066
0,1,2,7,2,1,0,-1,2021-08-07 11:38:46,566066
-3,-4,-1,-1,-6,-3,-2,-3,2021-08-07 11:38:46,582066
-2,-2,-4,-8,-3,-3,0,-1,2021-08-07 11:38:46,582066
0,0,-1,-2,-6,-3,-2,-1,2021-08-07 11:38:46,598065
0,0,-1,3,1,2,0,1,2021-08-07 11:38:46,598065
-2,-2,-2,3,11,2,1,-1,2021-08-07 11:38:46,598065
-3,-5,-4,-6,-6,-4,-2,-3,2021-08-07 11:38:46,599065
-1,1,1,0,-1,-3,-2,0,2021-08-07 11:38:46,599065
-1,0,0,-2,-4,-4,0,-1,2021-08-07 11:38:46,599065
3,1,-2,-4,-4,0,0,0,2021-08-07 11:38:46,599065
-2,-1,-2,0,-2,0,0,-1,2021-08-07 11:38:46,600067
-7,-6,-6,-9,-12,-7,-3,-4,2021-08-07 11:38:46,629067
3,2,3,8,20,11,4,3,2021-08-07 11:38:46,629067
-3,-4,0,-1,-2,-1,-1,0,2021-08-07 11:38:46,629067
2,1,3,4,2,0,-1,0,2021-08-07 11:38:46,629067
-2,-3,-3,-2,-4,-3,-3,-2,2021-08-07 11:38:46,645065
-1,-2,1,0,-5,-2,-1,-1,2021-08-07 11:38:46,661067
-2,-3,-5,-8,-13,-6,-3,-3,2021-08-07 11:38:46,692066
2,3,4,10,11,4,0,-1,2021-08-07 11:38:46,708067
-1,-1,-3,-7,-6,-2,2,-2,2021-08-07 11:38:46,708067
-3,-2,-2,0,-4,-2,-3,-3,2021-08-07 11:38:46,708067
-2,-1,-2,3,4,0,-3,-1,2021-08-07 11:38:46,708067
4,5,5,9,6,5,3,3,2021-08-07 11:38:46,708067
1,1,1,1,5,2,-1,1,2021-08-07 11:38:46,709064
-1,-2,-1,-3,-4,-2,-2,0,2021-08-07 11:38:46,709064
-4,-2,-4,-6,-6,-2,-2,-1,2021-08-07 11:38:46,709064
-4,-5,-5,-9,-12,-6,-4,-3,2021-08-07 11:38:46,709064
-1,-1,1,6,10,3,-1,-2,2021-08-07 11:38:46,709064
4,4,2,-5,-6,-2,0,-1,2021-08-07 11:38:46,709064
2,-1,-1,1,4,2,-1,-1,2021-08-07 11:38:46,710066
0,0,0,-2,-3,-3,-2,-2,2021-08-07 11:38:46,710066
0,0,-1,-3,-4,-1,-1,1,2021-08-07 11:38:46,723066
-3,-3,-4,-7,-8,-4,-4,-4,2021-08-07 11:38:46,738071
1,1,3,7,4,2,1,-1,2021-08-07 11:38:46,738071
0,1,-1,1,10,4,2,1,2021-08-07 11:38:46,738071
-1,2,4,12,7,1,1,-2,2021-08-07 11:38:46,738071
-2,-2,-4,-6,-9,-3,-1,-2,2021-08-07 11:38:46,738071
2,0,-1,0,1,-1,-1,0,2021-08-07 11:38:46,738071
-4,-5,-6,-12,-14,-6,-3,-1,2021-08-07 11:38:46,739066
1,1,3,0,0,0,0,0,2021-08-07 11:38:46,770064
0,-1,2,3,7,4,1,2,2021-08-07 11:38:46,786066
-3,-1,1,3,3,0,-1,-1,2021-08-07 11:38:46,801066
-1,-1,-2,-6,-11,-6,-2,-1,2021-08-07 11:38:46,801066
-4,-5,-11,-25,-26,-11,-5,-4,2021-08-07 11:38:46,801066
0,0,0,0,1,-1,0,1,2021-08-07 11:38:46,801066
2,2,5,11,-4,-2,0,1,2021-08-07 11:38:46,817066
3,1,1,9,20,9,3,1,2021-08-07 11:38:46,817066
-2,-2,-2,1,16,10,1,1,2021-08-07 11:38:46,817066
1,3,6,21,34,13,5,0,2021-08-07 11:38:46,817066
-6,-5,-8,-19,-39,-18,-8,-4,2021-08-07 11:38:46,817066
0,0,1,2,2,0,0,0,2021-08-07 11:38:46,817066
-3,-4,-4,-9,-21,-10,-5,-2,2021-08-07 11:38:46,818069
-3,-3,-4,-11,-11,-6,-3,-2,2021-08-07 11:38:46,818069
1,0,0,1,8,4,0,0,2021-08-07 11:38:46,818069
-3,-2,-1,-11,-28,-14,-5,-4,2021-08-07 11:38:46,818069
0,-1,1,2,2,1,-1,1,2021-08-07 11:38:46,849066
-2,-1,-2,5,5,2,-1,-1,2021-08-07 11:38:46,849066
3,3,3,2,4,4,3,2,2021-08-07 11:38:46,864064
-3,-3,-3,-3,-3,-1,-2,-2,2021-08-07 11:38:46,864064
1,0,1,0,0,-2,0,0,2021-08-07 11:38:46,864064
-2,-3,-1,-1,-2,0,0,1,2021-08-07 11:38:46,864064
-3,-3,-6,-7,-7,-7,-2,-2,2021-08-07 11:38:46,864064
2,1,1,5,12,5,2,-1,2021-08-07 11:38:46,864064
4,7,7,13,10,4,3,2,2021-08-07 11:38:46,880068
-6,-8,-10,-22,-42,-19,-7,-5,2021-08-07 11:38:46,896067
1,-1,4,21,49,19,4,1,2021-08-07 11:38:46,896067
3,1,-2,-10,-12,-3,-1,3,2021-08-07 11:38:46,896067
-2,-4,-3,4,-8,-5,0,1,2021-08-07 11:38:46,896067
-4,-3,-4,-3,-12,-3,-2,-2,2021-08-07 11:38:46,897066
-2,2,5,7,23,6,0,-3,2021-08-07 11:38:46,897066
-3,-1,3,8,7,3,1,-1,2021-08-07 11:38:46,897066
-2,-1,-1,-2,6,1,0,-3,2021-08-07 11:38:46,928066
1,0,-2,-9,-15,-8,-6,-2,2021-08-07 11:38:46,928066
0,-1,-3,-8,-19,-11,-5,-3,2021-08-07 11:38:46,928066
0,-1,-1,3,0,-2,-2,-1,2021-08-07 11:38:46,928066
1,-3,-4,-6,-2,1,2,3,2021-08-07 11:38:46,944066
1,-3,-3,1,3,2,3,-1,2021-08-07 11:38:46,960070
-2,-3,-5,-10,-11,-5,-5,-2,2021-08-07 11:38:46,960070
3,3,3,7,6,5,2,2,2021-08-07 11:38:46,960070
-2,-4,-2,-8,-10,-5,-2,-2,2021-08-07 11:38:46,960070
1,3,1,-1,12,4,2,0,2021-08-07 11:38:46,960070
-4,-4,-5,-8,-20,-8,-3,-2,2021-08-07 11:38:46,961067
0,2,6,19,28,13,4,0,2021-08-07 11:38:46,976066
-4,-2,-3,3,3,1,-2,-2,2021-08-07 11:38:46,992068
-2,0,-2,-8,-11,-4,-4,-1,2021-08-07 11:38:46,992068
-1,-1,-1,5,-1,-1,-1,2,2021-08-07 11:38:46,992068
-2,-2,-5,-9,-12,-6,-3,-2,2021-08-07 11:38:46,992068
0,-2,-1,4,10,3,-1,-1,2021-08-07 11:38:46,992068
-2,-3,2,7,13,3,0,-2,2021-08-07 11:38:46,993068
2,2,-1,-12,-12,-2,0,1,2021-08-07 11:38:47,023066
-1,-1,0,0,-2,-4,-2,1,2021-08-07 11:38:47,039068
1,2,2,5,0,1,-3,0,2021-08-07 11:38:47,055066
2,3,5,13,15,7,3,2,2021-08-07 11:38:47,059064
-1,-2,-2,-2,4,0,1,-3,2021-08-07 11:38:47,059064
-4,-6,-9,-29,-44,-19,-8,-3,2021-08-07 11:38:47,060069
2,1,3,8,20,7,3,2,2021-08-07 11:38:47,060069
-1,-1,-1,4,13,8,1,-2,2021-08-07 11:38:47,060069
1,1,4,9,10,4,1,1,2021-08-07 11:38:47,061067
-3,-4,-4,-10,-24,-11,-6,-4,2021-08-07 11:38:47,061067
1,0,0,4,13,4,1,0,2021-08-07 11:38:47,061067
0,-3,-3,-16,-24,-9,-4,-2,2021-08-07 11:38:47,061067
0,-1,-1,3,7,2,0,-1,2021-08-07 11:38:47,087066
-1,-1,-2,-2,-1,-2,-2,-2,2021-08-07 11:38:47,087066
-2,-1,-2,-8,-15,-8,-3,-1,2021-08-07 11:38:47,087066
0,-1,-1,0,3,0,1,0,2021-08-07 11:38:47,103067
-3,-4,-7,-15,-19,-9,-4,-3,2021-08-07 11:38:47,119065
-1,-3,-2,1,-1,-2,-2,-1,2021-08-07 11:38:47,119065
3,2,6,13,30,14,2,1,2021-08-07 11:38:47,119065
2,2,0,2,-2,-3,-2,1,2021-08-07 11:38:47,119065
-5,-4,-5,-10,-18,-7,-3,-4,2021-08-07 11:38:47,119065
0,0,2,3,8,4,3,2,2021-08-07 11:38:47,120067
-2,-1,-3,-4,-15,-5,-4,0,2021-08-07 11:38:47,135067
1,-1,4,15,24,11,4,3,2021-08-07 11:38:47,135067
2,3,3,-4,-2,0,1,0,2021-08-07 11:38:47,135067
-1,-1,-6,-8,-8,-5,-2,-1,2021-08-07 11:38:47,135067
1,2,0,5,2,2,3,0,2021-08-07 11:38:47,135067
0,0,0,6,12,3,0,1,2021-08-07 11:38:47,135067
-1,-3,-2,-3,-3,-2,-1,-1,2021-08-07 11:38:47,151068
0,1,3,9,11,5,0,1,2021-08-07 11:38:47,151068
-5,-6,-8,-25,-39,-17,-8,-4,2021-08-07 11:38:47,167068
-1,1,2,9,6,2,0,0,2021-08-07 11:38:47,183065
0,0,1,8,16,8,1,1,2021-08-07 11:38:47,183065
-1,-3,-4,-7,-8,-3,-3,-2,2021-08-07 11:38:47,183065
1,0,0,0,0,-1,1,1,2021-08-07 11:38:47,183065
-3,-3,-5,-8,-8,-4,-2,-3,2021-08-07 11:38:47,183065
0,0,1,2,-1,-2,-1,0,2021-08-07 11:38:47,184067
-8,-8,-8,-12,-14,-6,-6,-6,2021-08-07 11:38:47,184067
6,7,8,21,23,12,7,4,2021-08-07 11:38:47,199067
1,1,2,1,0,1,-2,-2,2021-08-07 11:38:47,215066
1,1,0,-2,-4,-1,1,-1,2021-08-07 11:38:47,231066
-1,-2,-3,-1,-4,-3,0,-1,2021-08-07 11:38:47,247066
-4,-8,-6,-10,-14,-7,-4,-4,2021-08-07 11:38:47,247066
-1,0,-5,-14,-6,-4,-1,-1,2021-08-07 11:38:47,247066
2,2,5,19,15,4,1,1,2021-08-07 11:38:47,247066
0,-2,2,10,13,5,2,0,2021-08-07 11:38:47,247066
-1,2,1,-3,-8,-4,-2,0,2021-08-07 11:38:47,263066
-3,-3,-4,-8,-12,-5,-2,-2,2021-08-07 11:38:47,263066
0,-1,0,-3,1,-2,-3,-1,2021-08-07 11:38:47,263066
1,-1,-1,-4,-6,-2,-1,0,2021-08-07 11:38:47,263066
-1,-1,-2,1,6,-1,-1,0,2021-08-07 11:38:47,263066
0,1,4,9,8,5,1,0,2021-08-07 11:38:47,263066
0,-1,-3,-5,-3,0,-1,0,2021-08-07 11:38:47,263066
0,-1,0,0,-4,0,-1,0,2021-08-07 11:38:47,263066
-1,0,-1,2,13,2,0,-1,2021-08-07 11:38:47,295066
-1,-2,-1,-4,-9,-5,-1,-2,2021-08-07 11:38:47,311066
-1,-3,-1,-2,-4,-2,-1,0,2021-08-07 11:38:47,311066
-1,-2,-4,-8,-6,-3,-2,0,2021-08-07 11:38:47,311066
4,4,4,6,7,4,3,2,2021-08-07 11:38:47,311066
2,4,4,8,3,1,1,-1,2021-08-07 11:38:47,311066
-3,-1,-2,3,4,2,0,0,2021-08-07 11:38:47,311066
-2,-2,0,3,1,-2,-1,-2,2021-08-07 11:38:47,311066
-2,0,-3,-15,-19,-7,-2,-2,2021-08-07 11:38:47,326066
0,-3,-6,-15,-17,-8,-3,2,2021-08-07 11:38:47,326066
1,2,4,15,29,12,4,0,2021-08-07 11:38:47,341065
0,3,8,24,14,7,4,2,2021-08-07 11:38:47,341065
-1,-2,-2,1,2,1,0,0,2021-08-07 11:38:47,341065
-1,-2,-1,-6,-9,-6,-2,-1,2021-08-07 11:38:47,356066
-5,-5,-9,-21,-25,-12,-8,-5,2021-08-07 11:38:47,356066
-2,2,0,1,13,4,1,0,2021-08-07 11:38:47,356066
-2,-2,-2,-4,-6,-1,0,-2,2021-08-07 11:38:47,371066
-1,-2,-2,10,11,3,0,-2,2021-08-07 11:38:47,371066
-2,-1,-1,0,-2,-1,-1,-1,2021-08-07 11:38:47,371066
3,5,3,0,6,3,1,2,2021-08-07 11:38:47,371066
-3,-2,-4,-13,-26,-8,-4,-2,2021-08-07 11:38:47,387066
0,-2,-3,1,22,7,0,-1,2021-08-07 11:38:47,387066
0,-3,-1,1,-6,-3,0,0,2021-08-07 11:38:47,387066
-1,-2,-6,-9,-4,-1,-3,-1,2021-08-07 11:38:47,387066
-2,-2,0,6,6,2,0,-1,2021-08-07 11:38:47,403066
-3,-2,-3,-3,-11,-6,0,-2,2021-08-07 11:38:47,419067
-1,1,-1,-3,-10,-5,-1,-1,2021-08-07 11:38:47,419067
4,6,1,0,4,3,1,2,2021-08-07 11:38:47,419067
-4,-4,-3,2,2,-1,-2,-2,2021-08-07 11:38:47,435066
-2,0,-2,-2,-5,-2,-2,-2,2021-08-07 11:38:47,451066
3,2,3,4,6,3,1,0,2021-08-07 11:38:47,467069
-2,-5,-4,-4,-8,-5,-2,-2,2021-08-07 11:38:47,467069
0,2,0,-1,1,0,0,1,2021-08-07 11:38:47,467069
-1,-1,-2,-5,-11,-4,-2,-1,2021-08-07 11:38:47,467069
-5,-4,-5,-8,-4,-2,-4,-1,2021-08-07 11:38:47,467069
2,4,5,6,5,2,2,2,2021-08-07 11:38:47,468066
0,-1,-1,0,-2,0,1,-1,2021-08-07 11:38:47,468066
-1,-1,-3,-11,-11,-4,-2,0,2021-08-07 11:38:47,468066
-1,-3,-5,-6,-8,-4,-3,-4,2021-08-07 11:38:47,468066
1,0,4,13,25,10,1,0,2021-08-07 11:38:47,468066
0,0,3,18,23,8,1,1,2021-08-07 11:38:47,499065
-3,-4,-2,-3,-9,-2,-2,0,2021-08-07 11:38:47,499065
1,3,2,-2,2,0,1,1,2021-08-07 11:38:47,499065
-5,-5,-5,-15,-19,-10,-5,-5,2021-08-07 11:38:47,499065
-2,-1,-4,-11,-18,-8,-4,-2,2021-08-07 11:38:47,515065
-1,0,-1,3,4,2,0,-1,2021-08-07 11:38:47,531065
-1,-2,-1,5,16,7,6,3,2021-08-07 11:38:47,547067
1,0,2,5,0,0,-1,0,2021-08-07 11:38:47,547067
-1,1,0,-2,0,-3,-2,-2,2021-08-07 11:38:47,547067
4,3,2,0,-3,3,8,4,2021-08-07 11:38:47,547067
2,0,-2,-4,-8,0,-2,0,2021-08-07 11:38:47,547067
-5,-4,-2,-2,-1,-9,-13,-9,2021-08-07 11:38:47,547067
-10,-11,-12,-10,-12,-14,-13,-7,2021-08-07 11:38:47,547067
1,2,4,-5,-12,-7,-1,0,2021-08-07 11:38:47,548067
1,1,3,8,10,6,2,0,2021-08-07 11:38:47,548067
-2,-2,0,9,15,11,6,1,2021-08-07 11:38:47,563066
6,5,4,-4,-7,8,11,7,2021-08-07 11:38:47,563066
2,1,3,13,15,13,9,4,2021-08-07 11:38:47,563066
-2,-1,-2,-5,-12,-10,-10,-6,2021-08-07 11:38:47,563066
-13,-10,-9,-16,-26,-25,-21,-13,2021-08-07 11:38:47,564066
-2,1,-3,-8,-2,-4,-4,-3,2021-08-07 11:38:47,594065
-2,-2,3,16,18,6,3,-1,2021-08-07 11:38:47,610067
5,3,2,4,3,9,9,6,2021-08-07 11:38:47,610067
0,-3,-6,-13,-11,-2,2,1,2021-08-07 11:38:47,610067
3,0,3,11,4,3,5,3,2021-08-07 11:38:47,610067
2,0,0,-6,0,2,0,1,2021-08-07 11:38:47,610067
-8,-7,-5,-3,-5,-6,-9,-9,2021-08-07 11:38:47,611069
-1,2,5,8,7,5,0,-2,2021-08-07 11:38:47,618065
-4,-4,-5,-14,-18,-7,-3,-5,2021-08-07 11:38:47,618065
3,4,3,8,10,1,-2,1,2021-08-07 11:38:47,618065
-4,-4,0,5,5,-3,-3,-2,2021-08-07 11:38:47,641065
5,2,-4,-16,-17,-4,5,4,2021-08-07 11:38:47,641065
1,0,4,10,19,4,1,1,2021-08-07 11:38:47,656066
-4,-2,-3,-9,-10,-6,-8,-3,2021-08-07 11:38:47,672066
-2,-2,-1,6,12,3,2,-1,2021-08-07 11:38:47,687063
5,5,6,14,12,9,5,4,2021-08-07 11:38:47,687063
-3,-1,-1,-1,-11,-6,-3,-3,2021-08-07 11:38:47,688069
-5,-5,-7,-8,-12,-8,-5,-4,2021-08-07 11:38:47,703065
0,-1,-1,-8,-8,-4,1,0,2021-08-07 11:38:47,703065
-1,-1,1,4,6,4,3,2,2021-08-07 11:38:47,703065
0,-1,2,7,12,4,-1,-1,2021-08-07 11:38:47,703065
-5,-7,-5,-6,-12,-7,-6,-5,2021-08-07 11:38:47,703065
4,5,4,7,6,3,1,3,2021-08-07 11:38:47,704068
0,0,2,4,7,4,2,0,2021-08-07 11:38:47,704068
-2,-3,-3,-2,0,-1,-1,-1,2021-08-07 11:38:47,704068
-1,-1,-2,-4,-4,-3,-2,-2,2021-08-07 11:38:47,704068
-2,-3,-1,-4,-2,-3,-2,-2,2021-08-07 11:38:47,719065
1,1,0,-4,-7,-2,-1,1,2021-08-07 11:38:47,735066
1,-1,-1,1,0,1,-1,0,2021-08-07 11:38:47,735066
-1,1,3,3,7,2,-1,-1,2021-08-07 11:38:47,735066
-6,-5,-8,-17,-20,-10,-5,-3,2021-08-07 11:38:47,735066
3,2,2,6,10,5,3,3,2021-08-07 11:38:47,735066
1,0,-1,1,5,4,0,0,2021-08-07 11:38:47,736066
-5,-5,-6,-10,-14,-10,-6,-6,2021-08-07 11:38:47,736066
1,3,2,-1,-4,0,0,1,2021-08-07 11:38:47,767066
1,2,1,6,13,7,3,2,2021-08-07 11:38:47,783068
1,0,4,8,24,7,1,0,2021-08-07 11:38:47,783068
0,1,0,4,2,1,1,0,2021-08-07 11:38:47,783068
-3,-5,-4,-6,-11,-5,-2,-4,2021-08-07 11:38:47,783068
-2,-4,-7,-5,-11,-8,-3,-1,2021-08-07 11:38:47,783068
-3,-3,-5,-11,-15,-7,-3,-3,2021-08-07 11:38:47,784066
5,5,2,6,7,1,2,5,2021-08-07 11:38:47,784066
-3,-3,-5,-1,1,-2,-2,0,2021-08-07 11:38:47,784066
-3,-3,-1,4,3,-1,-1,-2,2021-08-07 11:38:47,784066
1,3,1,-3,-8,-3,0,1,2021-08-07 11:38:47,799066
0,1,-1,-5,-2,-1,-1,1,2021-08-07 11:38:47,815064
-1,-1,-1,1,-1,-2,-1,-2,2021-08-07 11:38:47,815064
-2,-6,-7,-15,-14,-8,-4,-4,2021-08-07 11:38:47,815064
0,-2,1,4,2,0,-1,0,2021-08-07 11:38:47,831064
0,0,3,11,13,8,0,0,2021-08-07 11:38:47,847066
0,-2,0,0,7,1,0,0,2021-08-07 11:38:47,863069
0,1,1,-1,-2,-1,1,1,2021-08-07 11:38:47,863069
-2,-1,-3,-6,-6,-3,-2,-2,2021-08-07 11:38:47,863069
-3,-3,0,-4,-8,-4,-3,-2,2021-08-07 11:38:47,863069
-1,0,0,-3,-5,-2,-1,-1,2021-08-07 11:38:47,863069
-2,0,1,3,3,0,-1,-2,2021-08-07 11:38:47,863069
-1,-2,-2,2,-3,-1,1,-1,2021-08-07 11:38:47,864067
0,1,1,8,7,1,1,0,2021-08-07 11:38:47,864067
-2,-1,-3,-5,-5,-3,-3,-1,2021-08-07 11:38:47,864067
-1,-2,-3,-3,-9,-4,-3,-2,2021-08-07 11:38:47,864067
2,3,1,-2,2,4,0,1,2021-08-07 11:38:47,895066
-3,-3,1,13,19,7,1,-2,2021-08-07 11:38:47,895066
-1,0,0,-1,-3,-1,-1,-1,2021-08-07 11:38:47,911066
0,0,0,0,0,0,0,-1,2021-08-07 11:38:47,927066
-1,0,-3,-7,-14,-6,-1,-2,2021-08-07 11:38:47,927066
-4,-4,-7,-17,-13,-7,-4,-3,2021-08-07 11:38:47,927066
3,3,6,16,12,6,4,3,2021-08-07 11:38:47,927066
-5,-5,-7,-17,-15,-7,-3,-1,2021-08-07 11:38:47,927066
1,0,7,26,21,7,3,0,2021-08-07 11:38:47,927066
1,1,0,0,5,2,0,0,2021-08-07 11:38:47,927066
-2,-2,-3,-3,-7,-4,-2,-2,2021-08-07 11:38:47,943065
0,-2,-3,-3,2,2,0,0,2021-08-07 11:38:47,959066
0,0,0,-8,-7,-2,0,1,2021-08-07 11:38:47,975066
1,-2,-4,-6,-5,-4,-1,-2,2021-08-07 11:38:47,991065
-1,-2,-3,-3,-8,-4,-3,-3,2021-08-07 11:38:47,991065
-2,-1,-2,1,-3,-2,-2,-1,2021-08-07 11:38:47,991065
0,2,2,0,-2,-1,0,0,2021-08-07 11:38:47,991065
0,-1,1,3,3,1,0,0,2021-08-07 11:38:47,991065
-1,0,-2,-1,1,0,-1,0,2021-08-07 11:38:47,992067
-1,-3,0,-3,1,-1,-2,-2,2021-08-07 11:38:47,992067
0,-2,1,5,7,2,1,0,2021-08-07 11:38:47,992067
0,1,-1,-8,-16,-6,-1,0,2021-08-07 11:38:47,992067
1,-1,0,1,4,1,0,0,2021-08-07 11:38:48,007066
0,0,0,3,3,1,0,0,2021-08-07 11:38:48,007066
-5,-7,-7,-10,-11,-5,-5,-3,2021-08-07 11:38:48,007066
1,1,1,-5,-6,-1,-1,2,2021-08-07 11:38:48,007066
0,-1,0,2,3,1,-1,-1,2021-08-07 11:38:48,007066
0,1,3,9,11,3,2,0,2021-08-07 11:38:48,007066
-2,-2,-5,-5,-8,-3,-2,-3,2021-08-07 11:38:48,038067
-2,-2,-1,2,6,0,-2,0,2021-08-07 11:38:48,054068
-3,-1,-3,-5,-4,-2,-2,-1,2021-08-07 11:38:48,070066
1,2,1,5,8,1,0,0,2021-08-07 11:38:48,070066
-1,-1,-2,-2,-1,-1,-3,0,2021-08-07 11:38:48,070066
-4,-2,-4,-7,-5,-4,-3,-4,2021-08-07 11:38:48,070066
-1,1,0,-4,-8,-3,-3,0,2021-08-07 11:38:48,071067
2,3,2,2,2,1,1,1,2021-08-07 11:38:48,071067
-2,-4,-9,-14,-6,-3,-2,-2,2021-08-07 11:38:48,086065
2,2,6,9,1,2,0,-1,2021-08-07 11:38:48,086065
-2,-3,-1,2,1,2,0,-1,2021-08-07 11:38:48,086065
-2,-2,-1,-2,-1,-1,-1,-1,2021-08-07 11:38:48,086065
-1,0,-3,-4,-4,-3,-3,-1,2021-08-07 11:38:48,086065
-2,-3,-4,-7,-7,-5,-3,-2,2021-08-07 11:38:48,086065
2,0,0,4,8,4,3,1,2021-08-07 11:38:48,087067
-1,-1,1,0,-2,-1,-2,-2,2021-08-07 11:38:48,087067
-2,-2,-4,-6,-11,-5,-1,-1,2021-08-07 11:38:48,118066
-2,-1,-2,-1,-2,-2,-3,-2,2021-08-07 11:38:48,134066
2,1,2,5,11,2,2,3,2021-08-07 11:38:48,134066
-2,-3,-4,-6,-6,-2,0,-3,2021-08-07 11:38:48,134066
1,0,1,-3,-9,-2,0,1,2021-08-07 11:38:48,134066
-1,-1,-1,6,8,4,1,-1,2021-08-07 11:38:48,134066
-3,0,-1,0,-3,-2,-2,-1,2021-08-07 11:38:48,135067
-3,-1,2,5,4,3,-1,0,2021-08-07 11:38:48,135067
1,6,8,11,6,2,1,0,2021-08-07 11:38:48,150069
-6,-10,-15,-30,-26,-12,-3,-3,2021-08-07 11:38:48,150069
0,-4,-6,-12,-17,-5,-3,-1,2021-08-07 11:38:48,160065
1,0,0,8,14,5,2,3,2021-08-07 11:38:48,160065
-2,-2,0,-2,-6,-4,-3,-2,2021-08-07 11:38:48,182066
5,5,10,24,25,10,4,3,2021-08-07 11:38:48,182066
-5,-3,-3,-6,-4,-2,-2,-3,2021-08-07 11:38:48,182066
-1,-1,-1,-2,-5,-2,-1,-1,2021-08-07 11:38:48,182066
-2,1,0,2,4,1,1,-1,2021-08-07 11:38:48,182066
-3,-3,-1,-5,-3,-1,-2,-2,2021-08-07 11:38:48,182066
-2,-1,-2,-5,-6,-3,-1,0,2021-08-07 11:38:48,198066
2,4,2,-4,-7,-4,-1,0,2021-08-07 11:38:48,214068
0,-2,-4,-6,2,1,1,0,2021-08-07 11:38:48,230068
1,-1,3,7,-2,1,1,0,2021-08-07 11:38:48,230068
1,1,0,3,6,1,-1,-1,2021-08-07 11:38:48,246066
-2,-3,0,2,-5,-3,-2,-2,2021-08-07 11:38:48,262066
2,-1,0,7,6,4,1,2,2021-08-07 11:38:48,262066
0,1,-1,-8,-9,-3,0,0,2021-08-07 11:38:48,262066
-2,-2,2,8,21,6,0,-2,2021-08-07 11:38:48,262066
-2,-2,-3,-3,1,0,-1,0,2021-08-07 11:38:48,263066
0,-2,-7,-17,-17,-3,3,2,2021-08-07 11:38:48,263066
1,1,3,7,9,9,4,3,2021-08-07 11:38:48,263066
1,1,6,14,12,1,-5,-3,2021-08-07 11:38:48,263066
-9,-8,-6,-8,-11,-17,-16,-13,2021-08-07 11:38:48,263066
-6,-5,-4,-2,-2,-6,-6,-5,2021-08-07 11:38:48,263066
-2,-2,-5,-11,-8,-5,-1,0,2021-08-07 11:38:48,264069
1,0,-2,-9,-11,2,7,5,2021-08-07 11:38:48,264069
2,-1,1,-2,-4,2,3,3,2021-08-07 11:38:48,264069
3,0,0,11,17,8,3,2,2021-08-07 11:38:48,293069
2,1,3,5,4,2,1,-1,2021-08-07 11:38:48,309067
-1,1,0,-1,-6,-3,-2,-1,2021-08-07 11:38:48,309067
-2,-1,-3,-9,-11,-5,-2,-1,2021-08-07 11:38:48,309067
2,2,3,3,6,1,1,0,2021-08-07 11:38:48,325067
-3,-4,-5,-2,-2,-3,-2,-1,2021-08-07 11:38:48,325067
-3,-5,-6,-8,-9,-5,-5,-2,2021-08-07 11:38:48,325067
0,1,0,0,0,1,2,0,2021-08-07 11:38:48,325067
-1,0,0,5,6,3,-1,0,2021-08-07 11:38:48,326066
0,1,1,0,3,-1,-3,1,2021-08-07 11:38:48,326066
-1,-4,-1,-8,-21,-9,-2,-3,2021-08-07 11:38:48,326066
2,-2,-3,3,15,7,4,3,2021-08-07 11:38:48,326066
-1,-1,0,2,1,1,0,-1,2021-08-07 11:38:48,357065
-3,-1,1,9,12,5,-1,-2,2021-08-07 11:38:48,357065
-1,0,2,5,9,4,2,0,2021-08-07 11:38:48,357065
-1,-2,0,-3,-7,0,-2,-2,2021-08-07 11:38:48,357065
-5,-5,-1,-5,-8,-6,-5,-5,2021-08-07 11:38:48,373066
0,0,-2,-6,-9,-6,-5,-3,2021-08-07 11:38:48,373066
0,0,-2,-6,-7,-5,-1,-1,2021-08-07 11:38:48,389065
4,5,4,2,1,3,4,4,2021-08-07 11:38:48,405065
0,0,0,2,1,0,3,0,2021-08-07 11:38:48,405065
-1,-2,-4,-5,-8,-7,-2,-4,2021-08-07 11:38:48,405065
-2,-5,-3,-1,4,0,0,-3,2021-08-07 11:38:48,405065
0,0,1,6,-6,-2,-1,-2,2021-08-07 11:38:48,405065
-2,-1,-3,-3,7,2,0,0,2021-08-07 11:38:48,405065
0,-1,4,8,4,2,1,2,2021-08-07 11:38:48,406064
-1,0,-2,-3,-2,-1,-1,1,2021-08-07 11:38:48,406064
-5,-4,-5,-2,-1,-2,-1,-2,2021-08-07 11:38:48,406064
0,1,3,6,4,1,-2,0,2021-08-07 11:38:48,437065
-1,0,-3,-6,-9,-5,-2,-1,2021-08-07 11:38:48,437065
1,0,2,1,3,-1,-2,0,2021-08-07 11:38:48,437065
1,1,1,1,-1,2,1,1,2021-08-07 11:38:48,437065
-1,-2,-4,-8,-6,-3,-2,-3,2021-08-07 11:38:48,453065
-2,-2,-3,-8,-17,-10,-2,-1,2021-08-07 11:38:48,469066
0,2,2,14,19,11,2,1,2021-08-07 11:38:48,485065
0,0,0,3,5,0,2,0,2021-08-07 11:38:48,485065
-2,-1,-5,-9,-12,-6,-3,-2,2021-08-07 11:38:48,485065
1,2,2,4,8,4,0,1,2021-08-07 11:38:48,485065
1,0,0,1,-7,-4,-1,-2,2021-08-07 11:38:48,485065
-2,-1,-2,-2,-1,-2,-2,0,2021-08-07 11:38:48,485065
1,0,1,5,2,2,1,1,2021-08-07 11:38:48,486069
-3,-3,-4,-8,-10,-5,-2,-1,2021-08-07 11:38:48,486069
-4,-4,-5,-8,-8,-4,-2,-3,2021-08-07 11:38:48,486069
3,-1,5,9,10,3,1,0,2021-08-07 11:38:48,486069
2,1,0,0,-2,-2,-1,0,2021-08-07 11:38:48,517066
-1,-1,-3,-1,1,3,0,-3,2021-08-07 11:38:48,533066
-2,0,0,-2,-1,-1,-1,0,2021-08-07 11:38:48,533066
-1,-2,-3,-4,-4,-3,-1,-1,2021-08-07 11:38:48,533066
-2,-2,-2,-4,-4,-1,-2,0,2021-08-07 11:38:48,533066
1,-1,3,6,6,2,1,0,2021-08-07 11:38:48,533066
-1,1,1,1,2,2,1,0,2021-08-07 11:38:48,534067
-2,0,-2,-5,-7,-5,-2,-2,2021-08-07 11:38:48,534067
0,-1,0,1,3,0,1,-2,2021-08-07 11:38:48,548065
-1,-2,-2,0,1,0,-2,-1,2021-08-07 11:38:48,564064
3,2,2,1,-3,-2,0,1,2021-08-07 11:38:48,564064
-3,-1,0,-1,0,1,-1,1,2021-08-07 11:38:48,564064
-3,-3,-1,0,1,-1,0,-3,2021-08-07 11:38:48,564064
1,2,1,-1,0,1,2,0,2021-08-07 11:38:48,564064
-1,0,-2,-3,-4,-2,-1,-2,2021-08-07 11:38:48,564064
-1,-1,-1,0,0,-1,-1,-1,2021-08-07 11:38:48,565065
-1,-2,-2,1,-2,-1,0,-1,2021-08-07 11:38:48,596066
-4,-1,-5,-6,-6,-3,-3,-2,2021-08-07 11:38:48,612065
0,-1,-1,1,5,2,0,-1,2021-08-07 11:38:48,644068
0,-1,-1,0,0,0,-1,0,2021-08-07 11:38:48,676065
-2,1,-1,1,0,-1,-2,-1,2021-08-07 11:38:48,676065
-3,-3,-3,-4,-2,-4,-1,-2,2021-08-07 11:38:48,676065
-1,0,-1,0,-3,-1,0,0,2021-08-07 11:38:48,676065
-1,-2,-1,-1,-1,0,0,0,2021-08-07 11:38:48,677067
0,1,0,0,-1,0,0,4,2021-08-07 11:38:48,677067
-1,-3,-3,-1,-1,-1,-1,-2,2021-08-07 11:38:48,677067
-3,-2,-5,-8,-8,-4,-4,-5,2021-08-07 11:38:48,677067
0,1,1,1,-2,0,-1,-1,2021-08-07 11:38:48,677067
0,-2,-2,3,4,0,-2,-1,2021-08-07 11:38:48,677067
-1,0,0,0,2,-1,0,0,2021-08-07 11:38:48,677067
-6,-4,-1,-3,-1,-3,0,-1,2021-08-07 11:38:48,691064
-1,1,-3,0,-3,0,1,-2,2021-08-07 11:38:48,691064
-1,-1,0,-1,-1,0,0,0,2021-08-07 11:38:48,691064
-1,-2,-1,0,-1,-2,-1,1,2021-08-07 11:38:48,691064
4,2,-2,-2,-4,-1,0,1,2021-08-07 11:38:48,707065
2,1,0,-1,-1,-2,2,2,2021-08-07 11:38:48,707065
-1,-2,-3,-6,-2,-2,-1,-4,2021-08-07 11:38:48,707065
1,0,0,4,3,2,0,0,2021-08-07 11:38:48,707065
-1,-2,-4,-9,-14,-5,-1,4,2021-08-07 11:38:48,707065
2,3,2,7,14,7,1,-3,2021-08-07 11:38:48,708068
-5,-3,-1,6,-2,-3,-4,-6,2021-08-07 11:38:48,708068
-5,-4,-3,-5,-8,-5,-1,-4,2021-08-07 11:38:48,708068
1,2,2,6,10,2,2,2,2021-08-07 11:38:48,708068
1,0,-4,-11,-14,-6,-2,3,2021-08-07 11:38:48,714066
0,2,-3,-8,-9,-4,1,2,2021-08-07 11:38:48,723066
4,4,9,24,29,13,4,3,2021-08-07 11:38:48,723066
-1,-2,-1,5,1,-1,0,-1,2021-08-07 11:38:48,738065
-2,-1,-1,-3,-5,-2,1,0,2021-08-07 11:38:48,738065
-1,2,-1,-9,-8,-4,-2,-3,2021-08-07 11:38:48,754068
-1,-3,-6,-2,-1,-1,-2,0,2021-08-07 11:38:48,770066
-1,-1,0,1,2,2,-2,-3,2021-08-07 11:38:48,786066
-2,-2,-1,1,0,-1,-1,-1,2021-08-07 11:38:48,786066
5,5,5,6,3,3,3,4,2021-08-07 11:38:48,786066
-4,-4,-8,-18,-14,-7,-4,-2,2021-08-07 11:38:48,786066
-2,-4,-6,-12,-12,-8,-2,-2,2021-08-07 11:38:48,786066
-2,-2,3,14,18,8,0,-1,2021-08-07 11:38:48,787066
0,-1,2,9,4,1,1,0,2021-08-07 11:38:48,787066
5,5,2,-2,-4,0,2,2,2021-08-07 11:38:48,787066
-1,1,-1,4,4,1,0,-4,2021-08-07 11:38:48,787066
-3,-5,-3,-3,-3,1,2,1,2021-08-07 11:38:48,802067
2,3,3,3,8,4,1,2,2021-08-07 11:38:48,802067
-7,-7,-5,-6,-7,-9,-8,-7,2021-08-07 11:38:48,802067
-4,-5,-4,-5,-9,-8,-7,-6,2021-08-07 11:38:48,802067
3,3,-2,-6,-4,-3,1,2,2021-08-07 11:38:48,802067
-4,-4,-2,0,0,-1,2,-1,2021-08-07 11:38:48,833069
3,4,5,4,2,4,5,4,2021-08-07 11:38:48,833069
0,1,-3,-5,-9,-3,-1,-1,2021-08-07 11:38:48,833069
-3,-5,-5,-8,-3,-1,-2,-2,2021-08-07 11:38:48,833069
1,3,3,11,15,6,1,2,2021-08-07 11:38:48,849065
-2,-2,-2,-1,-6,-2,-4,-2,2021-08-07 11:38:48,849065
-1,-2,1,4,8,2,2,-2,2021-08-07 11:38:48,849065
-1,-1,-3,-9,-17,-7,-3,-2,2021-08-07 11:38:48,849065
-5,-5,-9,-19,-16,-8,-5,-5,2021-08-07 11:38:48,880066
-2,-1,1,9,9,4,2,1,2021-08-07 11:38:48,896067
5,8,7,8,8,3,1,3,2021-08-07 11:38:48,912065
0,-1,0,2,1,3,-1,-2,2021-08-07 11:38:48,912065
-2,-5,-4,-5,-4,-4,-3,-1,2021-08-07 11:38:48,912065
-1,-1,0,-6,-4,-4,0,-1,2021-08-07 11:38:48,912065
-3,-2,-3,-4,-3,0,-2,0,2021-08-07 11:38:48,912065
-2,-4,-3,-6,-7,-5,-2,-2,2021-08-07 11:38:48,913067
2,1,1,-2,-1,1,1,0,2021-08-07 11:38:48,913067
-2,-2,-2,1,1,0,-1,-1,2021-08-07 11:38:48,913067
0,-2,0,5,6,3,2,0,2021-08-07 11:38:48,913067
-1,2,2,0,0,-1,-2,-1,2021-08-07 11:38:48,913067
1,1,-1,2,-1,0,2,2,2021-08-07 11:38:48,928065
-1,0,1,4,0,-2,0,0,2021-08-07 11:38:48,944068
0,-3,-3,1,-3,0,0,0,2021-08-07 11:38:48,976067
0,-1,9,11,12,3,0,0,2021-08-07 11:38:48,976067
2,4,8,11,4,3,1,0,2021-08-07 11:38:48,976067
0,-1,-21,-22,-7,0,-2,-1,2021-08-07 11:38:48,976067
-13,-16,-29,-56,-32,-19,-11,-9,2021-08-07 11:38:48,976067
-4,-5,-13,-12,-14,-6,-4,-3,2021-08-07 11:38:48,977066
1,-2,1,3,2,0,-2,2,2021-08-07 11:38:48,977066
4,5,13,20,10,5,2,2,2021-08-07 11:38:48,977066
4,3,9,20,6,5,4,2,2021-08-07 11:38:48,977066
0,1,7,11,15,6,2,1,2021-08-07 11:38:48,977066
-2,0,3,12,2,-1,0,-1,2021-08-07 11:38:48,992067
1,3,4,4,5,4,3,2,2021-08-07 11:38:48,992067
1,4,2,-3,-2,0,1,2,2021-08-07 11:38:49,008068
-2,-4,-3,-10,-11,-7,-2,-3,2021-08-07 11:38:49,008068
-5,-8,-10,-11,-6,-4,-5,-5,2021-08-07 11:38:49,024065
2,1,-2,-5,-3,-1,2,0,2021-08-07 11:38:49,040065
-1,-1,2,10,4,-1,-2,-3,2021-08-07 11:38:49,056065
0,0,-1,-3,2,1,-1,1,2021-08-07 11:38:49,072067
0,-1,0,6,0,0,-1,0,2021-08-07 11:38:49,072067
-5,-4,-1,-5,-6,-7,-5,-4,2021-08-07 11:38:49,072067
-1,0,0,-9,-7,-4,-2,-2,2021-08-07 11:38:49,072067
1,0,0,10,4,1,2,1,2021-08-07 11:38:49,072067
0,-3,-4,-8,3,3,2,-3,2021-08-07 11:38:49,073066
0,-1,1,-2,-7,-4,-2,-1,2021-08-07 11:38:49,073066
2,2,3,7,8,3,3,-1,2021-08-07 11:38:49,073066
-1,-1,-3,-4,-3,-3,-2,-1,2021-08-07 11:38:49,073066
-4,-4,-7,-13,-10,-6,-4,-2,2021-08-07 11:38:49,073066
-4,-2,-1,1,3,3,-2,-1,2021-08-07 11:38:49,073066
-2,1,3,3,5,2,0,0,2021-08-07 11:38:49,074068
-1,-1,-1,-3,-6,-2,-2,-3,2021-08-07 11:38:49,074068
-1,0,-1,-7,-7,-2,-2,-1,2021-08-07 11:38:49,103064
1,3,5,10,4,0,-1,0,2021-08-07 11:38:49,119067
0,-1,6,6,0,2,1,2,2021-08-07 11:38:49,135066
-6,-7,-18,-21,-7,-5,-3,-3,2021-08-07 11:38:49,135066
3,5,2,5,7,3,3,1,2021-08-07 11:38:49,135066
-4,-5,-8,-11,-6,-3,-1,-2,2021-08-07 11:38:49,151066
0,-2,1,9,8,4,0,-3,2021-08-07 11:38:49,151066
5,9,17,25,18,8,4,3,2021-08-07 11:38:49,167067
-2,-1,-4,-8,-7,-4,-2,-1,2021-08-07 11:38:49,167067
-4,-5,-7,-14,-13,-8,-4,-3,2021-08-07 11:38:49,167067
4,0,0,0,1,2,2,2,2021-08-07 11:38:49,167067
-2,-5,-2,-3,-1,-3,-2,0,2021-08-07 11:38:49,167067
-5,-1,-1,0,-2,-1,-1,-5,2021-08-07 11:38:49,168065
0,1,4,4,4,4,0,-3,2021-08-07 11:38:49,168065
-5,-3,-2,0,-2,-1,-4,-3,2021-08-07 11:38:49,168065
1,1,-2,-6,-9,-4,-3,-3,2021-08-07 11:38:49,168065
-1,-2,-2,-8,-8,-6,-2,-3,2021-08-07 11:38:49,168065
1,1,4,10,7,4,2,1,2021-08-07 11:38:49,168065
2,0,0,9,12,3,2,2,2021-08-07 11:38:49,169065
2,2,2,2,-2,0,0,1,2021-08-07 11:38:49,169065
0,-1,-1,-5,-4,-2,-1,0,2021-08-07 11:38:49,199067
-5,-6,-7,-12,-15,-7,-6,-4,2021-08-07 11:38:49,199067
1,2,0,-3,2,1,-1,2,2021-08-07 11:38:49,199067
-2,0,3,8,5,2,1,0,2021-08-07 11:38:49,199067
1,-1,-1,0,-1,0,0,0,2021-08-07 11:38:49,215065
-2,-3,-4,-6,-7,-3,-2,-3,2021-08-07 11:38:49,231123
1,-1,-3,-4,-6,-4,-2,1,2021-08-07 11:38:49,247125
2,2,4,7,11,4,2,1,2021-08-07 11:38:49,247125
-2,-1,-2,2,0,0,-1,-1,2021-08-07 11:38:49,263125
-1,-1,-1,-3,-6,-3,-1,-1,2021-08-07 11:38:49,267128
-4,-2,-2,-7,-13,-8,-3,-2,2021-08-07 11:38:49,267128
-1,-2,-4,0,0,2,-2,-1,2021-08-07 11:38:49,267128
0,2,1,0,0,0,0,2,2021-08-07 11:38:49,268125
0,0,2,10,11,3,1,0,2021-08-07 11:38:49,268125
-4,-5,-10,-24,-34,-14,-6,-2,2021-08-07 11:38:49,268125
3,3,13,35,45,17,5,3,2021-08-07 11:38:49,268125
2,2,6,11,8,5,1,-1,2021-08-07 11:38:49,268125
-3,-2,-7,-8,-10,-6,-4,-1,2021-08-07 11:38:49,269125
-1,-3,-5,-9,-8,-6,-2,-4,2021-08-07 11:38:49,269125
-6,-6,-9,-22,-27,-12,-7,-5,2021-08-07 11:38:49,269125
5,4,8,18,17,6,2,1,2021-08-07 11:38:49,295124
-2,-2,-5,-6,-6,-3,-2,0,2021-08-07 11:38:49,295124
6,9,6,10,9,7,5,5,2021-08-07 11:38:49,295124
0,0,0,2,5,0,-1,1,2021-08-07 11:38:49,295124
-3,-2,3,-4,-9,-6,-3,-4,2021-08-07 11:38:49,311125
-5,-5,-6,-4,-4,-2,-2,-3,2021-08-07 11:38:49,311125
-1,-1,-1,-1,4,0,-2,-2,2021-08-07 11:38:49,327127
-1,-3,-3,-14,-17,-7,-2,-1,2021-08-07 11:38:49,327127
-2,-3,-8,-10,-8,-5,-3,-2,2021-08-07 11:38:49,327127
0,-1,-2,-5,-9,-5,-1,-1,2021-08-07 11:38:49,327127
-3,-4,-4,-7,2,3,-2,-2,2021-08-07 11:38:49,327127
2,3,7,11,2,1,2,1,2021-08-07 11:38:49,328124
-1,0,0,6,14,4,0,0,2021-08-07 11:38:49,343127
1,2,8,4,-2,-1,-1,0,2021-08-07 11:38:49,343127
0,0,-8,-1,3,-2,0,-1,2021-08-07 11:38:49,343127
-3,-5,-5,-13,-13,-6,-2,-3,2021-08-07 11:38:49,343127
-2,-3,0,11,10,5,0,0,2021-08-07 11:38:49,375126
3,2,0,-4,3,2,0,1,2021-08-07 11:38:49,375126
0,-1,4,7,4,1,1,-1,2021-08-07 11:38:49,375126
-3,-1,-4,-17,-18,-7,-3,-2,2021-08-07 11:38:49,375126
-7,-8,-9,-13,-13,-9,-3,-4,2021-08-07 11:38:49,391123
2,4,6,13,13,8,3,3,2021-08-07 11:38:49,406125
-1,-3,1,2,1,-1,-2,-2,2021-08-07 11:38:49,421129
0,2,-3,5,5,1,0,0,2021-08-07 11:38:49,421129
1,0,2,3,5,3,0,0,2021-08-07 11:38:49,421129
-7,-6,-2,-8,-10,-6,-5,-4,2021-08-07 11:38:49,421129
3,3,-3,3,8,3,3,4,2021-08-07 11:38:49,421129
1,-2,-9,-11,-12,-3,-2,-2,2021-08-07 11:38:49,422126
-1,1,0,5,10,3,-1,1,2021-08-07 11:38:49,422126
0,1,5,5,3,0,2,0,2021-08-07 11:38:49,422126
-4,-5,6,6,1,-2,-3,-2,2021-08-07 11:38:49,436124
0,-1,-3,-14,-14,-6,0,-1,2021-08-07 11:38:49,436380
-4,-4,-9,-15,-11,-6,-3,-2,2021-08-07 11:38:49,451646
-1,-2,-4,-6,-3,-2,-2,-1,2021-08-07 11:38:49,451646
1,2,6,13,15,5,1,-1,2021-08-07 11:38:49,451646
-3,-3,1,0,-2,-1,-2,-1,2021-08-07 11:38:49,451646
-2,-3,-5,-11,-10,2,9,4,2021-08-07 11:38:49,467647
5,4,2,5,4,8,7,5,2021-08-07 11:38:49,483646
4,5,0,-4,-3,-2,-8,0,2021-08-07 11:38:49,483646
-13,-9,-2,9,4,-19,-23,-19,2021-08-07 11:38:49,483646
-4,-6,-5,-8,-10,-7,-7,-5,2021-08-07 11:38:49,483646
-2,-3,-6,-8,-7,-4,-1,-2,2021-08-07 11:38:49,483646
3,4,2,1,-2,9,10,7,2021-08-07 11:38:49,483646
8,8,3,5,13,11,8,8,2021-08-07 11:38:49,484648
-2,-2,-2,-5,-5,-2,-4,-2,2021-08-07 11:38:49,531644
-5,-6,-9,-9,-4,-3,-1,-3,2021-08-07 11:38:49,531644
0,0,4,-1,-11,-3,-1,0,2021-08-07 11:38:49,531644
-3,-2,-5,-10,-9,-2,0,-1,2021-08-07 11:38:49,531644
2,5,7,18,24,10,4,3,2021-08-07 11:38:49,531644
-2,-1,-3,-6,-6,-3,-1,-1,2021-08-07 11:38:49,532645
-5,-4,-2,-5,0,-5,-4,-5,2021-08-07 11:38:49,532645
1,-1,-1,3,-7,-3,2,1,2021-08-07 11:38:49,532645
2,0,-2,-9,-4,0,-1,-1,2021-08-07 11:38:49,547645
-3,-2,-2,2,7,0,-4,-4,2021-08-07 11:38:49,547645
-1,2,2,11,19,6,2,-1,2021-08-07 11:38:49,547645
6,6,7,8,8,9,7,5,2021-08-07 11:38:49,547645
8,6,4,-3,-13,12,22,10,2021-08-07 11:38:49,579646
4,0,3,9,21,14,2,2,2021-08-07 11:38:49,595704
-10,-10,-8,-3,-7,-24,-29,-17,2021-08-07 11:38:49,610703
-31,-22,-17,-22,-32,-52,-46,-34,2021-08-07 11:38:49,610703
-3,0,0,-7,-7,-8,-8,-3,2021-08-07 11:38:49,610703
4,2,-1,-6,-2,8,13,9,2021-08-07 11:38:49,610703
23,14,14,25,24,53,53,32,2021-08-07 11:38:49,626704
16,12,8,14,19,18,7,12,2021-08-07 11:38:49,626704
-27,-18,-13,-22,-43,-68,-62,-46,2021-08-07 11:38:49,626704
-11,-9,-8,-10,-16,-17,-9,-8,2021-08-07 11:38:49,626704
-4,-6,-6,-9,-3,-2,-2,-2,2021-08-07 11:38:49,626704
2,0,3,9,15,20,19,9,2021-08-07 11:38:49,627704
25,20,15,22,34,49,43,31,2021-08-07 11:38:49,627704
10,7,5,5,0,-4,-9,4,2021-08-07 11:38:49,627704
-33,-26,-19,-27,-41,-55,-49,-41,2021-08-07 11:38:49,627704
4,-2,-4,-6,0,5,11,7,2021-08-07 11:38:49,627704
3,-2,-4,-6,-7,3,4,7,2021-08-07 11:38:49,642707
3,4,5,9,8,3,1,-3,2021-08-07 11:38:49,642707
1,5,2,11,17,13,9,4,2021-08-07 11:38:49,658704
2,-2,-5,-12,-12,-1,1,3,2021-08-07 11:38:49,674704
0,0,0,2,-4,-5,-5,-3,2021-08-07 11:38:49,690701
2,4,6,14,21,24,17,7,2021-08-07 11:38:49,706703
5,3,-4,-15,-21,-5,1,6,2021-08-07 11:38:49,721703
-24,-18,-14,-22,-24,-42,-39,-30,2021-08-07 11:38:49,736704
1,4,10,34,34,9,1,1,2021-08-07 11:38:49,736704
1,1,4,10,9,3,0,-1,2021-08-07 11:38:49,736704
3,4,4,9,6,2,4,3,2021-08-07 11:38:49,736704
1,1,0,-1,-1,5,8,3,2021-08-07 11:38:49,737705
5,0,-5,-9,-11,8,9,9,2021-08-07 11:38:49,737705
2,3,5,-1,0,-9,-8,-4,2021-08-07 11:38:49,737705
-15,-13,-12,-18,-22,-15,-9,-12,2021-08-07 11:38:49,737705
19,15,15,24,28,49,41,27,2021-08-07 11:38:49,737705
7,2,-3,-7,-3,-6,-8,2,2021-08-07 11:38:49,738703
-28,-20,-14,-11,-22,-60,-57,-42,2021-08-07 11:38:49,738703
-7,-6,-5,-7,-8,-8,-5,-3,2021-08-07 11:38:49,738703
-1,-3,-1,-1,-8,-10,-8,-5,2021-08-07 11:38:49,738703
-4,-5,-11,-20,-14,2,9,1,2021-08-07 11:38:49,752702
15,8,2,-16,-9,22,22,19,2021-08-07 11:38:49,752702
18,16,22,50,63,26,12,11,2021-08-07 11:38:49,752702
-16,-16,-13,-12,-20,-12,-10,-14,2021-08-07 11:38:49,752702
8,8,7,3,-7,5,8,8,2021-08-07 11:38:49,768703
-1,0,2,16,26,6,0,0,2021-08-07 11:38:49,768703
-5,-7,-13,-42,-49,-20,-9,-4,2021-08-07 11:38:49,768703
14,17,17,24,45,27,17,15,2021-08-07 11:38:49,768703
-9,-9,-4,8,12,-9,-9,-9,2021-08-07 11:38:49,799705
-9,-8,-11,-34,-22,-9,-4,-6,2021-08-07 11:38:49,799977
6,6,6,14,8,11,7,6,2021-08-07 11:38:49,799977
-4,-9,-12,-20,-40,-18,-9,-5,2021-08-07 11:38:49,815223
4,8,19,57,76,22,3,1,2021-08-07 11:38:49,831222
-2,-2,-4,-15,-37,-12,-2,-2,2021-08-07 11:38:49,831222
7,3,-2,0,30,21,11,9,2021-08-07 11:38:49,846223
-4,-2,-3,-1,6,-5,-6,-2,2021-08-07 11:38:49,846223
-9,-7,-1,-16,-38,-16,-11,-7,2021-08-07 11:38:49,846223
8,12,20,46,39,19,14,9,2021-08-07 11:38:49,846223
5,2,1,16,2,4,0,3,2021-08-07 11:38:49,846223
-11,-18,-39,-75,-48,-22,-11,-11,2021-08-07 11:38:49,847224
-8,-7,-5,-8,12,6,-1,-3,2021-08-07 11:38:49,847224
-8,-13,-14,-19,-33,-18,-8,-4,2021-08-07 11:38:49,847224
2,7,13,11,4,-3,-1,0,2021-08-07 11:38:49,847224
9,14,19,31,9,9,7,6,2021-08-07 11:38:49,847224
4,3,4,15,8,4,1,1,2021-08-07 11:38:49,878222
-4,-8,-15,-19,-12,-4,-1,0,2021-08-07 11:38:49,878222
-6,-7,-12,-15,-6,-5,-4,-4,2021-08-07 11:38:49,878222
5,8,14,25,32,13,5,3,2021-08-07 11:38:49,894222
-9,-7,-9,-28,-44,-20,-11,-9,2021-08-07 11:38:49,894222
1,3,4,14,18,7,0,0,2021-08-07 11:38:49,894222
-4,-8,-10,-10,-10,-1,-3,-3,2021-08-07 11:38:49,894222
4,7,9,15,0,-3,1,2,2021-08-07 11:38:49,894222
-1,-3,-6,-18,-21,-8,-7,-4,2021-08-07 11:38:49,926222
-1,1,1,15,32,12,5,0,2021-08-07 11:38:49,926222
-5,-5,-4,-8,-7,-5,-4,-6,2021-08-07 11:38:49,926222
1,2,7,11,2,2,0,3,2021-08-07 11:38:49,926222
-1,-4,-11,-17,-17,-8,-2,-3,2021-08-07 11:38:49,926222
0,0,-4,-16,-16,-4,-2,1,2021-08-07 11:38:49,927222
0,-1,3,0,5,-1,-1,-2,2021-08-07 11:38:49,927222
-1,-2,0,0,0,1,-1,1,2021-08-07 11:38:49,927222
-3,-3,-7,-5,-5,0,1,1,2021-08-07 11:38:49,958225
2,0,1,0,-1,6,4,4,2021-08-07 11:38:49,974220
-8,-5,-3,-14,-27,-15,-8,-6,2021-08-07 11:38:49,974220
2,4,5,12,20,7,2,1,2021-08-07 11:38:49,974220
-5,-4,-4,-2,3,-1,-3,-3,2021-08-07 11:38:49,974220
-2,-1,-5,-9,-11,-8,-4,-3,2021-08-07 11:38:49,974220
5,7,8,13,7,5,3,4,2021-08-07 11:38:49,975226
1,0,-4,-5,1,1,0,1,2021-08-07 11:38:49,975226
-3,-5,-7,-13,-15,-9,-4,-3,2021-08-07 11:38:49,990222
1,1,1,-4,-6,-1,2,1,2021-08-07 11:38:49,990222
6,1,4,6,1,4,3,4,2021-08-07 11:38:49,990222
-1,-1,0,11,11,3,0,-1,2021-08-07 11:38:49,990222
2,3,6,12,14,5,1,-1,2021-08-07 11:38:50,021223
-5,-7,-8,-16,-28,-12,-3,-3,2021-08-07 11:38:50,021223
-3,-3,-4,-1,26,8,-2,-3,2021-08-07 11:38:50,021223
5,3,7,11,7,6,7,2,2021-08-07 11:38:50,021223
-2,0,-1,-8,-16,-9,-4,-1,2021-08-07 11:38:50,037223
-1,1,5,18,27,7,1,-2,2021-08-07 11:38:50,053223
-1,0,-2,-10,-18,-9,-4,-2,2021-08-07 11:38:50,053223
-3,-3,-5,-4,0,0,-5,-4,2021-08-07 11:38:50,053223
-1,-1,-2,-6,-2,0,2,-2,2021-08-07 11:38:50,053223
-2,-2,-1,-2,-11,-2,-1,-1,2021-08-07 11:38:50,054223
6,4,8,14,17,9,4,4,2021-08-07 11:38:50,054223
-7,-9,-10,-13,-15,-9,-6,-5,2021-08-07 11:38:50,054223
2,4,3,11,18,9,3,3,2021-08-07 11:38:50,085225
1,0,1,1,-2,-2,-1,-1,2021-08-07 11:38:50,101222
-3,-4,-8,-15,-20,-8,-2,-2,2021-08-07 11:38:50,101222
-3,-3,-3,-2,-2,-4,-2,-3,2021-08-07 11:38:50,101222
0,2,2,-1,-3,0,0,1,2021-08-07 11:38:50,101222
-2,2,1,2,14,5,1,1,2021-08-07 11:38:50,101222
-3,-3,1,10,3,1,-1,-1,2021-08-07 11:38:50,102223
0,0,0,-5,-9,-6,-3,0,2021-08-07 11:38:50,102223
-6,-6,-10,-19,-23,-9,-5,-5,2021-08-07 11:38:50,117223
4,0,3,4,10,6,3,1,2021-08-07 11:38:50,133223
3,2,4,6,5,0,2,0,2021-08-07 11:38:50,133223
2,-1,-2,-9,-10,0,0,1,2021-08-07 11:38:50,133223
-3,-4,-1,5,5,1,-1,-2,2021-08-07 11:38:50,133223
-4,-3,-7,-9,-3,-3,-3,-2,2021-08-07 11:38:50,133223
1,2,2,9,0,-2,0,1,2021-08-07 11:38:50,134223
-1,-1,-2,-7,-2,-1,-2,-1,2021-08-07 11:38:50,134223
3,5,2,3,11,5,2,2,2021-08-07 11:38:50,149226
2,-1,1,3,0,2,2,0,2021-08-07 11:38:50,149226
-3,0,0,4,7,2,1,0,2021-08-07 11:38:50,149226
-1,0,-4,-6,6,-1,0,1,2021-08-07 11:38:50,149226
-8,-9,-11,-24,-29,-14,-7,-8,2021-08-07 11:38:50,180223
4,6,7,17,18,8,4,3,2021-08-07 11:38:50,196225
-3,-3,-4,-7,-7,-2,-2,-3,2021-08-07 11:38:50,212222
0,1,6,14,9,7,2,1,2021-08-07 11:38:50,228222
-1,-1,1,9,2,-1,0,-1,2021-08-07 11:38:50,243226
-3,-6,-4,-9,-6,-5,-4,-3,2021-08-07 11:38:50,243226
-2,0,0,-6,5,3,0,0,2021-08-07 11:38:50,243226
-4,-4,-5,-3,-14,-7,-5,-4,2021-08-07 11:38:50,243226
3,5,3,2,11,3,2,2,2021-08-07 11:38:50,243226
-1,0,0,1,-4,-2,-2,-1,2021-08-07 11:38:50,243226
-3,-3,-5,-8,-12,-7,-5,-2,2021-08-07 11:38:50,243226
-1,-3,-3,-8,-3,-2,-1,0,2021-08-07 11:38:50,244225
3,4,7,21,24,11,5,2,2021-08-07 11:38:50,244225
-7,-9,-8,-15,-26,-12,-6,-4,2021-08-07 11:38:50,244225
-1,1,-5,-23,-36,-12,-4,-2,2021-08-07 11:38:50,244225
5,6,8,10,17,9,4,5,2021-08-07 11:38:50,244225
0,-1,0,12,18,7,1,-1,2021-08-07 11:38:50,259225
-3,-1,0,3,1,-2,-1,-3,2021-08-07 11:38:50,259225
-5,-3,-3,-10,-16,-7,-5,-3,2021-08-07 11:38:50,259225
-4,-4,-8,-8,1,-3,-1,-2,2021-08-07 11:38:50,259882
-1,-2,-6,-17,-18,-7,-3,-1,2021-08-07 11:38:50,275270
-1,-2,-1,2,-5,-4,-2,-2,2021-08-07 11:38:50,291270
1,0,2,8,14,4,2,1,2021-08-07 11:38:50,307268
2,1,0,-3,-7,-2,0,-1,2021-08-07 11:38:50,322269
-1,-2,0,7,11,2,0,1,2021-08-07 11:38:50,338269
-3,-2,-1,-3,-9,-5,-3,-2,2021-08-07 11:38:50,338269
-8,-12,-13,-21,-12,-9,-7,-7,2021-08-07 11:38:50,338269
10,13,11,18,25,14,7,6,2021-08-07 11:38:50,338269
2,2,7,11,-6,-4,-1,-1,2021-08-07 11:38:50,338269
3,2,-2,-8,-6,-1,0,1,2021-08-07 11:38:50,338269
-5,-6,-7,-6,-6,-5,-3,-3,2021-08-07 11:38:50,339271
-7,-8,-8,-5,-13,-5,-4,-7,2021-08-07 11:38:50,339271
0,3,6,16,19,5,1,0,2021-08-07 11:38:50,339271
-2,-2,-3,-9,-13,-3,-1,0,2021-08-07 11:38:50,339271
-3,-2,-7,-23,-32,-13,-5,-3,2021-08-07 11:38:50,339271
5,5,14,39,59,21,6,5,2021-08-07 11:38:50,339271
-1,-2,-3,-1,-6,-2,0,-1,2021-08-07 11:38:50,353267
-4,-6,-11,-18,-7,-4,-3,-3,2021-08-07 11:38:50,353267
-1,2,4,-3,-6,-1,0,-1,2021-08-07 11:38:50,353267
-3,-7,-11,-18,-27,-14,-4,-3,2021-08-07 11:38:50,353267
1,0,4,6,6,4,0,1,2021-08-07 11:38:50,369269
-2,-4,-5,-4,-10,-6,-4,-2,2021-08-07 11:38:50,369269
-4,-6,-6,-11,-12,-5,0,0,2021-08-07 11:38:50,374269
14,23,30,55,72,30,14,11,2021-08-07 11:38:50,375269
1,-1,-1,-2,1,-1,1,-1,2021-08-07 11:38:50,401269
-1,0,-2,3,-4,-1,-1,-1,2021-08-07 11:38:50,417269
0,0,1,5,-6,-1,-2,0,2021-08-07 11:38:50,433271
-11,-13,-17,-41,-58,-25,-12,-9,2021-08-07 11:38:50,433271
-1,-2,-1,5,25,6,1,0,2021-08-07 11:38:50,433271
8,11,14,27,36,16,7,6,2021-08-07 11:38:50,433271
1,-1,-1,3,-3,-1,0,0,2021-08-07 11:38:50,433271
-6,-6,-4,-4,-6,-2,-4,-2,2021-08-07 11:38:50,434271
-5,-5,-6,-12,-13,-5,-3,-5,2021-08-07 11:38:50,434271
0,2,-1,2,-1,0,1,0,2021-08-07 11:38:50,434271
3,3,7,22,29,10,4,0,2021-08-07 11:38:50,434271
-8,-8,-10,-29,-56,-22,-9,-7,2021-08-07 11:38:50,434271
-5,-4,-8,-14,-17,-7,-3,-1,2021-08-07 11:38:50,449271
4,3,10,25,47,17,7,4,2021-08-07 11:38:50,464267
1,0,-2,3,1,1,1,1,2021-08-07 11:38:50,480270
0,0,-3,-7,-3,-2,-2,-3,2021-08-07 11:38:50,480491
-8,-7,-7,-19,-31,-11,-7,-5,2021-08-07 11:38:50,480491
-1,-1,-2,-5,10,3,0,-1,2021-08-07 11:38:50,496267
2,3,4,8,10,5,2,2,2021-08-07 11:38:50,512270
-4,-3,2,-3,-22,-10,-4,-3,2021-08-07 11:38:50,512270
-1,-4,-7,6,14,3,-1,-1,2021-08-07 11:38:50,528269
0,1,-5,-24,-34,-11,-3,-2,2021-08-07 11:38:50,528269
1,-2,3,15,22,7,1,-1,2021-08-07 11:38:50,528269
-1,-2,-2,2,1,-1,0,-2,2021-08-07 11:38:50,528269
-3,-3,-5,-18,-21,-11,-5,-3,2021-08-07 11:38:50,528269
2,0,7,25,35,14,5,3,2021-08-07 11:38:50,529269
-2,-2,-2,-6,6,2,-4,-3,2021-08-07 11:38:50,529269
5,5,4,3,8,5,3,3,2021-08-07 11:38:50,529269
1,-1,-2,-3,-17,-6,-2,-1,2021-08-07 11:38:50,529269
-9,-10,-17,-39,-49,-20,-9,-7,2021-08-07 11:38:50,529269
-1,0,4,26,55,15,2,0,2021-08-07 11:38:50,530269
2,3,3,-5,-1,0,2,2,2021-08-07 11:38:50,544269
2,1,-3,8,11,7,3,0,2021-08-07 11:38:50,560268
0,1,1,-1,-11,-4,-1,0,2021-08-07 11:38:50,576268
0,-2,-2,2,-4,-1,0,-1,2021-08-07 11:38:50,576605
-7,-7,-4,2,-4,-3,-4,-3,2021-08-07 11:38:50,591269
3,1,2,-7,0,0,0,0,2021-08-07 11:38:50,591269
1,3,3,-2,-6,-4,-2,0,2021-08-07 11:38:50,591269
1,3,3,-3,-14,-5,-2,0,2021-08-07 11:38:50,592269
-2,-3,-3,0,9,0,-2,-2,2021-08-07 11:38:50,607270
-1,-3,-2,-6,-18,-6,-2,0,2021-08-07 11:38:50,607270
-4,-7,-11,-6,13,3,-1,-1,2021-08-07 11:38:50,607270
-1,0,-2,-15,-21,-5,-2,-2,2021-08-07 11:38:50,622268
3,3,2,17,25,8,3,2,2021-08-07 11:38:50,622268
-2,-1,1,4,1,2,0,0,2021-08-07 11:38:50,622268
0,1,5,0,-11,-5,-2,-2,2021-08-07 11:38:50,622268
6,7,8,10,6,2,3,3,2021-08-07 11:38:50,623269
-4,-6,-11,-23,-30,-11,-6,-3,2021-08-07 11:38:50,638270
-2,-4,-1,18,35,11,0,-2,2021-08-07 11:38:50,654269
-6,-6,-5,-9,-21,-7,-4,-3,2021-08-07 11:38:50,654269
-4,-3,-3,-9,5,-1,-2,0,2021-08-07 11:38:50,654269
0,1,2,10,9,5,0,-2,2021-08-07 11:38:50,654269
1,5,5,-2,-4,-1,1,1,2021-08-07 11:38:50,654269
0,-1,2,-1,-7,-5,-2,-1,2021-08-07 11:38:50,654269
-4,-3,-5,-7,-10,-4,-2,-3,2021-08-07 11:38:50,655271
3,4,10,17,4,2,0,3,2021-08-07 11:38:50,655271
5,4,10,22,27,11,4,2,2021-08-07 11:38:50,685269
0,0,-1,9,3,0,1,-1,2021-08-07 11:38:50,701269
-9,-12,-23,-51,-38,-15,-7,-5,2021-08-07 11:38:50,717268
-11,-16,-12,-18,0,-7,-7,-8,2021-08-07 11:38:50,717268
2,3,-6,-18,-20,-5,0,2,2021-08-07 11:38:50,733270
5,6,19,48,52,21,7,4,2021-08-07 11:38:50,733270
6,6,12,37,27,7,4,3,2021-08-07 11:38:50,733270
-4,-2,-2,-9,-14,-5,-3,-3,2021-08-07 11:38:50,733270
-6,-6,-6,-17,-20,-11,-7,-5,2021-08-07 11:38:50,733270
0,-1,-5,-10,-6,-3,-1,0,2021-08-07 11:38:50,734269
1,0,-1,-9,-13,-4,-1,1,2021-08-07 11:38:50,734269
-1,-1,-2,0,5,3,1,1,2021-08-07 11:38:50,749269
-1,-1,4,7,-5,-2,-2,0,2021-08-07 11:38:50,765268
2,3,4,8,21,9,0,1,2021-08-07 11:38:50,765268
-2,-2,-4,-5,-12,-4,-3,-2,2021-08-07 11:38:50,765268
2,3,1,6,15,6,2,2,2021-08-07 11:38:50,765268
0,-2,-1,-3,-5,-3,0,0,2021-08-07 11:38:50,765268
-5,-7,-8,-19,-28,-11,-5,-4,2021-08-07 11:38:50,766271
4,5,12,28,36,14,7,7,2021-08-07 11:38:50,766271
0,-2,-6,-11,-15,-7,-1,-3,2021-08-07 11:38:50,766271
-4,-4,-3,-11,-26,-6,-2,-2,2021-08-07 11:38:50,766271
-6,-3,2,21,44,13,1,-3,2021-08-07 11:38:50,766271
-4,1,1,0,0,0,-3,-4,2021-08-07 11:38:50,767270
-3,2,2,3,2,0,-3,-1,2021-08-07 11:38:50,780269
-1,1,3,0,-1,-3,-2,-1,2021-08-07 11:38:50,811270
0,-3,-8,-20,-29,-12,-2,-1,2021-08-07 11:38:50,811270
-1,-3,-5,-11,-19,-7,-2,-2,2021-08-07 11:38:50,811270
7,8,11,28,36,14,8,5,2021-08-07 11:38:50,811270
-3,-4,-4,-5,6,0,-3,-4,2021-08-07 11:38:50,811270
-7,-9,-13,-7,-5,-5,-5,-5,2021-08-07 11:38:50,812269
11,14,11,3,1,5,5,6,2021-08-07 11:38:50,812269
-4,-5,-11,-26,-31,-12,-4,-5,2021-08-07 11:38:50,812269
0,2,7,16,14,4,3,2,2021-08-07 11:38:50,842271
0,1,2,8,13,4,1,1,2021-08-07 11:38:50,842271
-3,0,-1,9,3,0,-1,0,2021-08-07 11:38:50,842271
-3,-6,-8,-25,-35,-14,-6,-3,2021-08-07 11:38:50,842271
-2,-1,-2,-5,5,3,2,0,2021-08-07 11:38:50,858271
-1,-1,2,1,-4,0,0,0,2021-08-07 11:38:50,858271
-3,-2,8,1,19,4,0,-3,2021-08-07 11:38:50,858271
2,2,-4,1,4,3,1,1,2021-08-07 11:38:50,858271
-4,-7,-14,-7,-5,-4,-4,-3,2021-08-07 11:38:50,874269
-2,-3,-8,-14,-20,-6,-3,0,2021-08-07 11:38:50,874269
-1,-2,-4,-12,-15,-5,-3,-1,2021-08-07 11:38:50,874269
-2,-2,4,8,3,1,-2,-3,2021-08-07 11:38:50,874269
0,1,7,0,-6,-2,-2,-1,2021-08-07 11:38:50,890270
3,1,0,7,10,4,1,1,2021-08-07 11:38:50,890270
4,2,4,9,7,5,4,1,2021-08-07 11:38:50,906269
-6,-7,-6,-16,-13,-7,-3,-3,2021-08-07 11:38:50,921271
2,1,1,9,13,3,1,0,2021-08-07 11:38:50,931270
0,3,7,9,5,2,0,1,2021-08-07 11:38:50,931270
-5,-7,-9,-8,-10,-6,-3,-3,2021-08-07 11:38:50,932271
-1,-3,-2,-8,-23,-9,-4,-2,2021-08-07 11:38:50,932271
1,0,-3,-14,4,3,1,0,2021-08-07 11:38:50,932271
4,3,12,22,14,5,1,1,2021-08-07 11:38:50,932271
0,0,0,17,17,6,1,0,2021-08-07 11:38:50,932271
-5,-6,-12,-30,-23,-7,-4,-2,2021-08-07 11:38:50,933269
-2,-1,0,11,21,3,-1,-1,2021-08-07 11:38:50,969270
-3,0,-3,-14,-8,-2,-2,-2,2021-08-07 11:38:50,969270
2,2,5,15,1,2,1,1,2021-08-07 11:38:50,969270
-1,-2,1,2,-5,-4,-2,-3,2021-08-07 11:38:50,969270
-1,-2,-4,-6,3,-1,-2,-3,2021-08-07 11:38:50,969270
-2,-3,-1,-5,-17,-7,-4,-3,2021-08-07 11:38:50,970269
5,8,8,15,11,5,6,4,2021-08-07 11:38:50,970269
2,1,-3,-1,7,2,1,1,2021-08-07 11:38:50,970269
-6,-9,-13,-17,-19,-9,-5,-5,2021-08-07 11:38:51,001268
-7,-8,-7,-18,-15,-11,-7,-6,2021-08-07 11:38:51,017272
-5,-11,-15,-16,-18,-7,-6,-5,2021-08-07 11:38:51,033269
7,12,18,45,49,17,6,6,2021-08-07 11:38:51,033269
0,0,4,10,-6,-2,0,0,2021-08-07 11:38:51,033269
3,5,3,-6,-6,-2,1,1,2021-08-07 11:38:51,033269
-2,-2,-3,4,23,6,1,0,2021-08-07 11:38:51,049267
1,1,1,1,3,3,1,2,2021-08-07 11:38:51,049267
-3,-2,-7,-9,-10,-4,-3,-1,2021-08-07 11:38:51,065270
0,-1,-1,-6,3,0,0,0,2021-08-07 11:38:51,065270
0,0,3,12,12,2,4,2,2021-08-07 11:38:51,065270
0,1,1,-5,-9,-2,-3,-1,2021-08-07 11:38:51,065270
-1,0,6,8,-4,-2,0,0,2021-08-07 11:38:51,065270
1,3,-3,-11,-8,-3,1,0,2021-08-07 11:38:51,066269
-5,-6,-7,-9,-3,-3,-3,-5,2021-08-07 11:38:51,066269
1,2,6,13,18,8,4,1,2021-08-07 11:38:51,066269
-1,-3,-1,-4,-14,-6,-3,-1,2021-08-07 11:38:51,066269
2,0,-6,-5,-5,-2,-1,2,2021-08-07 11:38:51,066269
-4,-6,-8,-17,-17,-8,-4,-3,2021-08-07 11:38:51,081268
-3,-2,-1,8,8,0,0,-3,2021-08-07 11:38:51,097269
1,5,5,7,20,8,3,3,2021-08-07 11:38:51,113271
0,0,3,7,-5,-2,-1,0,2021-08-07 11:38:51,113271
-2,-3,-4,-11,-15,-6,-4,-1,2021-08-07 11:38:51,113271
-5,-9,-14,-29,-25,-8,-5,-4,2021-08-07 11:38:51,113271
3,5,4,1,21,5,1,0,2021-08-07 11:38:51,113271
-4,-3,-4,-6,-6,-2,-4,-3,2021-08-07 11:38:51,114269
2,2,1,16,21,9,2,1,2021-08-07 11:38:51,114269
0,-1,1,6,1,-1,0,-1,2021-08-07 11:38:51,114269
0,-1,3,-1,-13,-6,-2,0,2021-08-07 11:38:51,144269
3,3,7,9,5,3,3,2,2021-08-07 11:38:51,160268
-4,-6,-13,-34,-39,-15,-8,-5,2021-08-07 11:38:51,160268
5,6,4,19,42,20,9,5,2021-08-07 11:38:51,160268
-6,-7,-2,-10,-12,-6,-5,-5,2021-08-07 11:38:51,160268
0,1,-1,9,12,4,1,2,2021-08-07 11:38:51,160268
-2,0,-2,-17,-28,-12,-3,-3,2021-08-07 11:38:51,160268
-2,-3,-2,-3,-12,-4,-3,-2,2021-08-07 11:38:51,161269
2,4,9,27,34,16,4,3,2021-08-07 11:38:51,176269
1,2,4,8,4,2,3,2,2021-08-07 11:38:51,192269
-1,-3,-7,1,5,1,-1,-1,2021-08-07 11:38:51,208268
-4,-4,-7,-24,-35,-16,-5,-4,2021-08-07 11:38:51,223268
-5,-5,-9,-19,-21,-9,-4,-5,2021-08-07 11:38:51,223268
9,11,13,36,54,20,10,7,2021-08-07 11:38:51,223268
-4,-3,-1,-2,-8,-3,-2,-4,2021-08-07 11:38:51,239267
0,1,2,0,9,1,-2,0,2021-08-07 11:38:51,239267
0,-1,4,1,-12,-3,-1,-2,2021-08-07 11:38:51,239267
-2,-2,-5,-3,-13,-6,-3,-2,2021-08-07 11:38:51,239267
-5,-8,-16,-30,-39,-16,-5,-3,2021-08-07 11:38:51,239267
1,1,3,7,31,13,4,3,2021-08-07 11:38:51,255269
2,-2,-5,0,8,5,2,0,2021-08-07 11:38:51,255269
-6,-6,-7,-18,-18,-9,-6,-4,2021-08-07 11:38:51,255269
3,4,9,19,19,6,2,1,2021-08-07 11:38:51,255269
-6,-6,-6,-16,-29,-11,-5,-4,2021-08-07 11:38:51,255269
0,0,-1,0,-12,-5,-1,0,2021-08-07 11:38:51,271272
0,0,-2,-11,-17,-2,-1,0,2021-08-07 11:38:51,271272
6,5,14,37,64,23,7,6,2021-08-07 11:38:51,271272
0,1,-1,-2,-10,-5,-2,-1,2021-08-07 11:38:51,271272
0,1,-2,-2,13,7,1,0,2021-08-07 11:38:51,271272
-5,-8,-10,-19,-36,-15,-7,-6,2021-08-07 11:38:51,271272
3,5,8,1,-17,-7,-1,2,2021-08-07 11:38:51,272268
0,-1,4,34,41,17,6,0,2021-08-07 11:38:51,272268
4,6,4,1,8,4,1,0,2021-08-07 11:38:51,303268
-10,-11,-21,-43,-16,-6,-6,-6,2021-08-07 11:38:51,303268
-4,-6,-10,-19,-15,-7,-5,-3,2021-08-07 11:38:51,303268
-4,-3,-2,-5,-15,-10,-3,-5,2021-08-07 11:38:51,303268
1,4,8,13,-13,-3,1,2,2021-08-07 11:38:51,319269
4,4,8,16,22,8,2,4,2021-08-07 11:38:51,335269
2,5,7,15,15,8,3,0,2021-08-07 11:38:51,335269
-2,-4,-5,-11,-21,-8,-3,-1,2021-08-07 11:38:51,335269
-4,-6,-7,-9,-6,-2,-1,-3,2021-08-07 11:38:51,335269
-3,-2,-2,-8,-15,-6,-2,-3,2021-08-07 11:38:51,335269
-1,1,5,22,41,12,3,3,2021-08-07 11:38:51,336270
2,2,6,11,1,2,1,1,2021-08-07 11:38:51,336270
0,-1,-3,-5,3,-2,-1,1,2021-08-07 11:38:51,366270
-2,-4,-2,10,16,5,-1,-3,2021-08-07 11:38:51,366270
-2,-3,-6,-18,-23,-8,-4,-3,2021-08-07 11:38:51,382271
-3,-2,-2,-6,-5,-5,-3,-2,2021-08-07 11:38:51,398268
0,1,-1,1,0,-3,-2,0,2021-08-07 11:38:51,398268
-2,-4,-10,-15,-12,-3,-2,-2,2021-08-07 11:38:51,398268
-2,-4,-6,-6,-1,-1,-3,-3,2021-08-07 11:38:51,414267
2,0,1,-2,6,0,-1,-2,2021-08-07 11:38:51,414267
0,0,1,-5,-12,-6,-1,-1,2021-08-07 11:38:51,414267
2,6,18,15,5,2,1,0,2021-08-07 11:38:51,414267
2,6,18,10,4,1,2,1,2021-08-07 11:38:51,414267
-3,-11,-26,-7,-6,-2,-2,-2,2021-08-07 11:38:51,415270
-3,-4,-17,-7,-5,-2,-2,-1,2021-08-07 11:38:51,415270
5,18,34,13,7,4,3,3,2021-08-07 11:38:51,415270
1,0,-5,-7,-6,-2,1,2,2021-08-07 11:38:51,415270
-10,-35,-35,-13,-12,-7,-4,-4,2021-08-07 11:38:51,415270
-7,-16,-39,-9,1,-1,-3,-2,2021-08-07 11:38:51,430269
-2,-4,-16,0,6,-1,-1,-2,2021-08-07 11:38:51,446267
1,10,17,-11,-27,-8,-2,-1,2021-08-07 11:38:51,446267
4,17,25,13,24,5,1,1,2021-08-07 11:38:51,446267
4,5,11,15,16,8,4,3,2021-08-07 11:38:51,462269
1,3,15,15,14,5,2,-1,2021-08-07 11:38:51,478268
-2,-3,-14,-11,-16,-6,-1,-2,2021-08-07 11:38:51,478268
-3,0,-6,-16,-23,-11,-4,-2,2021-08-07 11:38:51,478268
-2,2,11,10,13,6,0,0,2021-08-07 11:38:51,478268
0,-1,0,7,3,-1,-2,-1,2021-08-07 11:38:51,478268
-3,-5,-7,1,1,1,-1,0,2021-08-07 11:38:51,478268
-3,0,-1,-11,-15,-6,-5,-3,2021-08-07 11:38:51,479270
-4,-3,3,-9,-9,-5,-4,-3,2021-08-07 11:38:51,493271
1,0,-1,-1,-4,1,1,1,2021-08-07 11:38:51,493271
2,-1,0,7,11,3,1,2,2021-08-07 11:38:51,493271
1,7,5,-4,-11,-2,0,1,2021-08-07 11:38:51,493271
-3,-2,-2,-8,-6,-8,-5,-4,2021-08-07 11:38:51,524268
-3,-9,-17,-23,-18,-8,-3,-3,2021-08-07 11:38:51,540268
-4,-6,2,12,9,4,0,-2,2021-08-07 11:38:51,540268
7,11,19,42,55,22,8,4,2021-08-07 11:38:51,540268
4,9,10,2,-2,-1,3,4,2021-08-07 11:38:51,540268
-8,-11,-19,-18,-13,-9,-7,-4,2021-08-07 11:38:51,540268
0,0,-6,-16,-12,-3,-1,-2,2021-08-07 11:38:51,540268
-6,-5,-6,-36,-41,-19,-6,-4,2021-08-07 11:38:51,541269
0,1,7,28,34,12,2,0,2021-08-07 11:38:51,571270
1,-1,-7,4,-3,-1,0,-1,2021-08-07 11:38:51,571270
-2,-2,-6,-13,-11,-5,-3,-4,2021-08-07 11:38:51,571270
-2,-4,-2,-8,-4,0,-2,-1,2021-08-07 11:38:51,571270
1,0,7,-6,-17,-6,2,0,2021-08-07 11:38:51,571270
0,1,2,6,1,2,3,2,2021-08-07 11:38:51,587271
1,1,2,10,19,7,3,1,2021-08-07 11:38:51,603269
-4,-6,-8,-10,-5,-4,-1,-4,2021-08-07 11:38:51,603269
-4,-2,-2,-2,-6,-4,-3,-4,2021-08-07 11:38:51,603269
2,1,4,2,-7,-6,-2,0,2021-08-07 11:38:51,603269
3,4,4,19,26,12,5,4,2021-08-07 11:38:51,619271
-3,-1,1,-12,-14,-8,-4,-4,2021-08-07 11:38:51,619271
2,0,1,5,-3,-1,-1,1,2021-08-07 11:38:51,619271
2,0,-3,2,8,5,1,0,2021-08-07 11:38:51,635269
-2,-2,-9,-20,-21,-10,-5,0,2021-08-07 11:38:51,635269
-3,-8,-3,2,4,0,-1,-1,2021-08-07 11:38:51,635269
-3,1,3,-11,-13,-6,-2,-3,2021-08-07 11:38:51,635269
-1,-4,-6,6,7,5,0,-2,2021-08-07 11:38:51,636270
0,-3,3,8,13,5,0,-2,2021-08-07 11:38:51,636270
4,8,10,8,3,1,2,3,2021-08-07 11:38:51,636270
-7,-10,-27,-17,-12,-7,-5,-5,2021-08-07 11:38:51,667271
1,5,8,-3,-12,-3,-1,0,2021-08-07 11:38:51,667271
0,-2,-1,-3,-7,-3,-3,1,2021-08-07 11:38:51,667271
0,-1,0,10,25,10,2,-1,2021-08-07 11:38:51,667271
-1,-2,-1,-23,-26,-10,-5,-3,2021-08-07 11:38:51,667271
2,2,5,9,20,8,5,1,2021-08-07 11:38:51,667271
-4,-4,-3,10,16,4,-1,-3,2021-08-07 11:38:51,683270
3,7,7,2,-3,1,1,3,2021-08-07 11:38:51,683270
-2,0,-3,3,4,2,0,-2,2021-08-07 11:38:51,699268
-4,-4,-5,-12,-21,-9,-3,-4,2021-08-07 11:38:51,699268
-1,-2,-1,4,13,2,0,1,2021-08-07 11:38:51,699268
-2,-1,-8,-6,-16,-6,-3,-1,2021-08-07 11:38:51,699268
-2,-3,-1,-5,9,3,0,-1,2021-08-07 11:38:51,730271
-2,-3,-1,3,12,1,-1,0,2021-08-07 11:38:51,730271
1,3,3,-3,-16,-6,-2,-1,2021-08-07 11:38:51,746268
-5,-8,-10,-10,-17,-8,-6,-4,2021-08-07 11:38:51,746268
8,10,8,18,38,19,11,8,2021-08-07 11:38:51,746268
0,-1,3,3,0,-3,-1,-2,2021-08-07 11:38:51,746268
-1,-2,2,-1,-9,-3,0,0,2021-08-07 11:38:51,746268
-4,-1,-9,-5,-4,-3,-2,-1,2021-08-07 11:38:51,747269
-5,-8,-6,-10,-22,-11,-5,-4,2021-08-07 11:38:51,747269
-3,-3,-3,-11,-8,-1,-2,-2,2021-08-07 11:38:51,747269
-1,-1,-3,-3,-2,-4,0,-1,2021-08-07 11:38:51,762270
-3,-4,-3,-3,-5,-3,-1,-2,2021-08-07 11:38:51,778268
2,4,6,13,10,4,2,0,2021-08-07 11:38:51,778268
2,3,9,25,17,3,2,-1,2021-08-07 11:38:51,778268
1,2,0,-4,-18,-3,0,1,2021-08-07 11:38:51,779273
1,0,4,11,31,9,2,0,2021-08-07 11:38:51,779273
-3,-5,-11,-22,-9,-4,-3,-3,2021-08-07 11:38:51,794270
0,0,-9,-3,-4,-3,-1,-1,2021-08-07 11:38:51,810268
-3,-2,1,-7,-13,-5,-4,-3,2021-08-07 11:38:51,810268
3,3,11,15,12,5,4,2,2021-08-07 11:38:51,810268
5,4,8,10,-4,1,4,4,2021-08-07 11:38:51,810268
-1,-8,-13,-1,14,2,0,-1,2021-08-07 11:38:51,810268
-5,-8,2,-28,-18,-8,-7,-7,2021-08-07 11:38:51,811269
-1,-5,-26,-5,-10,-4,-3,0,2021-08-07 11:38:51,811269
-5,-2,3,-1,-6,-5,-5,-3,2021-08-07 11:38:51,841269
-2,-5,-4,-9,-13,-4,-2,-1,2021-08-07 11:38:51,857268
10,13,15,41,42,18,10,7,2021-08-07 11:38:51,873268
1,5,14,8,6,1,0,-1,2021-08-07 11:38:51,873268
-1,-2,-3,-4,-3,-3,-1,-2,2021-08-07 11:38:51,888269
-2,0,1,-6,-9,-5,-2,0,2021-08-07 11:38:51,888269
-8,-10,-16,-16,-16,-10,-5,-8,2021-08-07 11:38:51,888269
-3,-4,1,-6,-19,-5,-3,-2,2021-08-07 11:38:51,888269
-4,-7,-8,-5,0,-3,-2,-2,2021-08-07 11:38:51,888269
6,11,19,30,30,15,6,6,2021-08-07 11:38:51,889269
-2,-2,-2,-1,-1,-1,-2,-2,2021-08-07 11:38:51,889269
1,3,2,3,5,0,1,0,2021-08-07 11:38:51,889269
-3,-7,-13,-18,-7,-1,-3,-2,2021-08-07 11:38:51,904270
-7,-7,-10,-24,-17,-8,-6,-5,2021-08-07 11:38:51,904270
1,1,-5,1,-3,-2,0,1,2021-08-07 11:38:51,920268
-2,-1,0,-4,-10,-8,-3,-2,2021-08-07 11:38:51,920268
-3,-2,0,-12,-12,-3,-2,-4,2021-08-07 11:38:51,920268
12,18,26,61,79,32,15,10,2021-08-07 11:38:51,920268
2,3,-3,0,-5,-2,1,1,2021-08-07 11:38:51,920268
-4,-4,-4,-6,-2,-1,-2,-3,2021-08-07 11:38:51,921270
-4,-4,-5,-15,-28,-13,-6,-5,2021-08-07 11:38:51,935268
-3,-5,-10,-11,-4,-2,-2,-2,2021-08-07 11:38:51,951272
-6,-7,-11,-19,-19,-8,-5,-3,2021-08-07 11:38:51,951272
4,7,12,27,27,8,4,2,2021-08-07 11:38:51,951272
4,5,10,20,17,7,4,3,2021-08-07 11:38:51,951272
1,0,2,-5,-12,-5,-2,-1,2021-08-07 11:38:51,951272
-5,-7,-8,-7,-4,-3,-2,-5,2021-08-07 11:38:51,952269
-3,-4,-1,-18,-25,-8,-4,-3,2021-08-07 11:38:51,952269
1,0,-8,8,15,0,0,0,2021-08-07 11:38:51,983271
-3,-4,-2,3,2,-1,-2,-2,2021-08-07 11:38:51,983271
9,8,12,20,21,10,5,6,2021-08-07 11:38:51,983271
-1,-3,-7,-9,-6,-1,-1,0,2021-08-07 11:38:51,983271
0,3,4,0,-4,-3,-2,-2,2021-08-07 11:38:51,999270
-7,-10,-16,-36,-43,-19,-8,-5,2021-08-07 11:38:51,999270
-3,-2,-4,1,10,2,-1,-3,2021-08-07 11:38:51,999270
1,0,3,7,20,6,4,1,2021-08-07 11:38:51,999270
2,1,7,18,3,5,3,-1,2021-08-07 11:38:52,015271
4,5,4,0,2,2,2,2,2021-08-07 11:38:52,015271
-1,-2,0,-10,-10,-2,0,-3,2021-08-07 11:38:52,015271
1,3,2,5,6,2,2,0,2021-08-07 11:38:52,015271
-6,-9,-9,-8,-5,-3,-4,-4,2021-08-07 11:38:52,047269
-1,-1,-1,-8,-20,-8,-3,-2,2021-08-07 11:38:52,047269
0,1,0,-1,0,0,-1,0,2021-08-07 11:38:52,047269
-1,-2,-2,7,6,2,0,1,2021-08-07 11:38:52,047269
0,1,1,1,-7,-1,0,-2,2021-08-07 11:38:52,047269
1,2,8,14,12,5,2,0,2021-08-07 11:38:52,048269
-4,-6,-13,-7,-10,-6,-4,-4,2021-08-07 11:38:52,062267
-2,-2,-1,3,2,0,-2,-1,2021-08-07 11:38:52,078269
-1,-4,-5,-9,-1,-2,-2,1,2021-08-07 11:38:52,078269
4,5,4,-5,-7,-2,2,2,2021-08-07 11:38:52,078269
-3,-2,-2,0,3,0,-2,-3,2021-08-07 11:38:52,078269
-2,0,8,-8,-12,-5,-2,-3,2021-08-07 11:38:52,078269
1,0,-7,7,10,4,2,2,2021-08-07 11:38:52,110269
-3,-3,-7,-15,-16,-7,-2,-3,2021-08-07 11:38:52,110269
-5,-5,-1,4,-3,-4,-3,-5,2021-08-07 11:38:52,110269
9,11,12,24,34,15,8,6,2021-08-07 11:38:52,110269
-2,-3,-4,-4,1,-2,-2,-1,2021-08-07 11:38:52,110269
-4,-5,-7,-11,-13,-4,-4,-4,2021-08-07 11:38:52,111270
-2,2,1,-5,-6,-1,1,-2,2021-08-07 11:38:52,126268
-5,-7,-9,-18,-22,-9,-3,-2,2021-08-07 11:38:52,142270
3,9,15,23,16,5,3,3,2021-08-07 11:38:52,158270
-5,-6,-8,-5,-5,-5,-3,-4,2021-08-07 11:38:52,158270
2,2,3,3,11,4,3,3,2021-08-07 11:38:52,158270
-5,-6,-10,-17,-17,-8,-5,-5,2021-08-07 11:38:52,158270
4,5,8,4,3,3,3,4,2021-08-07 11:38:52,158270
-2,-2,1,-6,-11,-5,-3,-3,2021-08-07 11:38:52,159271
-3,-4,-7,-10,-4,-5,-4,-2,2021-08-07 11:38:52,159271
2,2,-3,13,12,7,3,2,2021-08-07 11:38:52,159271
-3,0,5,-5,-4,1,-1,-3,2021-08-07 11:38:52,174267
-2,-6,-16,-1,-1,-2,-1,-2,2021-08-07 11:38:52,174267
-1,0,0,-3,-2,-4,-2,-1,2021-08-07 11:38:52,174267
-3,-4,-4,-8,-8,-5,-3,-1,2021-08-07 11:38:52,174267
0,4,8,-4,-11,-4,-1,1,2021-08-07 11:38:52,205269
-2,-1,6,0,6,0,-1,-2,2021-08-07 11:38:52,205269
0,-2,-7,0,-10,-3,-1,0,2021-08-07 11:38:52,205269
-2,-6,-17,-11,-7,-5,-4,-3,2021-08-07 11:38:52,205269
-1,0,1,5,17,5,0,0,2021-08-07 11:38:52,220270
-4,-5,-3,-14,-14,-7,-2,-4,2021-08-07 11:38:52,236267
-1,0,3,0,-8,-4,-3,-2,2021-08-07 11:38:52,236267
2,5,13,23,15,7,3,1,2021-08-07 11:38:52,236267
0,-1,-2,-4,-4,-2,0,-1,2021-08-07 11:38:52,236267
2,2,2,5,15,4,3,0,2021-08-07 11:38:52,236267
-5,-8,-4,-10,-15,-9,-3,-3,2021-08-07 11:38:52,236267
-3,-3,-11,-14,-8,-3,-2,-1,2021-08-07 11:38:52,252272
3,3,5,15,13,3,2,1,2021-08-07 11:38:52,252272
5,8,11,20,17,8,4,3,2021-08-07 11:38:52,252272
0,1,1,4,6,4,1,-1,2021-08-07 11:38:52,252272
-10,-12,-18,-36,-26,-15,-9,-6,2021-08-07 11:38:52,252272
-7,-13,-24,-25,-16,-9,-5,-5,2021-08-07 11:38:52,283272
-3,-5,-1,-6,-2,-1,-2,-3,2021-08-07 11:38:52,283272
3,5,3,16,12,5,2,1,2021-08-07 11:38:52,315269
3,6,13,-2,-12,-4,0,1,2021-08-07 11:38:52,315269
4,7,11,22,26,10,5,2,2021-08-07 11:38:52,315269
-1,-6,-14,-4,1,0,0,0,2021-08-07 11:38:52,315269
-2,4,10,1,-1,-3,-5,-3,2021-08-07 11:38:52,315269
3,2,7,18,16,9,4,1,2021-08-07 11:38:52,316268
-2,-6,-5,-33,-40,-17,-7,-2,2021-08-07 11:38:52,316268
-2,-6,-18,-21,-27,-11,-5,-2,2021-08-07 11:38:52,316268
2,3,17,30,43,15,6,1,2021-08-07 11:38:52,331267
0,7,22,13,-3,-4,-1,-2,2021-08-07 11:38:52,331267
-7,-12,-23,-1,-2,-2,-6,-4,2021-08-07 11:38:52,347270
-4,-6,-24,-15,-13,-4,-2,0,2021-08-07 11:38:52,347270
-4,-8,-13,-31,-36,-13,-4,-3,2021-08-07 11:38:52,347270
-4,-6,-14,-10,8,0,-2,-4,2021-08-07 11:38:52,347270
3,6,20,5,-6,-1,1,1,2021-08-07 11:38:52,347270
3,9,16,15,12,5,2,2,2021-08-07 11:38:52,348270
0,2,7,22,27,12,3,1,2021-08-07 11:38:52,363271
-3,-7,-14,-7,-2,-4,0,0,2021-08-07 11:38:52,363271
-4,-6,-16,-31,-27,-12,-5,-1,2021-08-07 11:38:52,379269
3,4,11,14,13,6,2,2,2021-08-07 11:38:52,395269
1,2,1,-6,-9,-6,-1,0,2021-08-07 11:38:52,410267
1,1,7,19,18,9,3,1,2021-08-07 11:38:52,410267
1,-1,-1,12,4,1,1,0,2021-08-07 11:38:52,410267
0,1,-6,-9,-1,-1,-1,-2,2021-08-07 11:38:52,410267
-6,-8,-8,-36,-48,-18,-9,-4,2021-08-07 11:38:52,410267
3,2,-7,31,42,16,4,2,2021-08-07 11:38:52,411268
3,4,1,11,15,6,3,2,2021-08-07 11:38:52,425272
0,2,11,8,3,2,0,0,2021-08-07 11:38:52,425272
-2,-4,1,-12,-8,-2,-1,1,2021-08-07 11:38:52,425272
-3,-7,-9,-18,-26,-9,-3,-2,2021-08-07 11:38:52,425272
-3,-5,-5,5,5,1,-1,-3,2021-08-07 11:38:52,441267
-4,2,5,-4,-12,-7,-4,-6,2021-08-07 11:38:52,441267
2,2,-4,28,37,14,4,1,2021-08-07 11:38:52,441267
-2,2,9,-2,-9,-4,-3,0,2021-08-07 11:38:52,441267
1,5,14,21,21,6,0,0,2021-08-07 11:38:52,457267
-4,-4,-5,-11,-21,-10,-6,-3,2021-08-07 11:38:52,457267
-4,-5,-16,-34,-32,-11,-4,-1,2021-08-07 11:38:52,457267
2,0,-7,3,19,7,3,1,2021-08-07 11:38:52,457267
-1,-3,-1,1,2,2,0,0,2021-08-07 11:38:52,489266
-2,-5,-5,-10,-10,-5,-2,-2,2021-08-07 11:38:52,505266
3,6,14,30,22,7,4,3,2021-08-07 11:38:52,505266
-5,-4,1,-11,-26,-11,-6,-3,2021-08-07 11:38:52,505266
0,-1,-6,-15,-11,-7,-2,-1,2021-08-07 11:38:52,505266
6,7,9,44,53,21,8,6,2021-08-07 11:38:52,505266
-4,-4,-7,-10,-11,-5,-3,-2,2021-08-07 11:38:52,505266
-6,-6,-7,-20,-22,-9,-7,-6,2021-08-07 11:38:52,506268
0,0,8,7,-3,-3,-2,-1,2021-08-07 11:38:52,520266
-2,-5,-11,-23,-14,-3,-2,-3,2021-08-07 11:38:52,536267
1,0,-4,12,18,6,2,2,2021-08-07 11:38:52,550268
0,4,6,5,5,-1,0,-1,2021-08-07 11:38:52,550268
3,3,11,-3,-12,-3,-2,0,2021-08-07 11:38:52,550268
-1,-4,4,10,-2,-4,1,0,2021-08-07 11:38:52,551268
