EMG 1,EMG 2,EMG 3,EMG 4,EMG 5,EMG 6,EMG 7,EMG 8,Timestamp,Milliseconds
-2,-2,-7,-14,-5,-2,-3,-3,2021-08-06 13:44:41,927250
-7,-6,-7,-13,-9,-5,-5,-5,2021-08-06 13:44:41,927250
0,0,2,-3,-2,-1,0,-2,2021-08-06 13:44:41,927250
-3,-2,-4,-10,-9,-4,-5,-4,2021-08-06 13:44:41,927250
3,2,7,18,6,4,2,2,2021-08-06 13:44:41,927250
-1,-1,-3,0,-8,-8,-4,-1,2021-08-06 13:44:41,927250
2,1,-3,-4,8,9,5,3,2021-08-06 13:44:41,927250
-2,-3,-2,1,-7,-3,-3,-1,2021-08-06 13:44:41,927250
-2,-1,-5,-13,-12,-4,-3,0,2021-08-06 13:44:41,927250
-2,-3,-1,2,-1,-3,-2,-6,2021-08-06 13:44:41,927250
-4,-3,-3,0,0,-2,1,-2,2021-08-06 13:44:41,927250
4,5,7,12,22,15,10,5,2021-08-06 13:44:41,928263
-5,-6,-3,-4,-12,-10,-7,-5,2021-08-06 13:44:41,928263
-2,-2,-3,-9,-11,-7,-2,0,2021-08-06 13:44:41,928263
1,4,7,8,4,1,0,0,2021-08-06 13:44:41,943263
3,1,-5,3,32,16,6,3,2021-08-06 13:44:41,943263
2,3,4,4,2,3,0,0,2021-08-06 13:44:41,943263
-3,-2,-4,-2,-2,-1,-2,-2,2021-08-06 13:44:41,943263
-6,-6,-6,-9,-15,-12,-8,-5,2021-08-06 13:44:41,959250
-2,-1,0,-6,-14,-11,-6,-2,2021-08-06 13:44:41,959250
1,0,-2,-3,-6,-5,0,1,2021-08-06 13:44:41,974251
5,6,7,11,22,14,6,3,2021-08-06 13:44:41,974251
-1,-1,-1,4,-11,-3,-4,-1,2021-08-06 13:44:41,990214
0,0,1,1,11,8,1,1,2021-08-06 13:44:41,990214
-2,-4,-6,-8,-6,-4,-4,-3,2021-08-06 13:44:41,990214
-1,-3,-2,-7,-16,-7,-3,-2,2021-08-06 13:44:41,990214
-4,-5,-7,-14,-25,-15,-9,-5,2021-08-06 13:44:42,006261
3,1,4,14,18,8,3,4,2021-08-06 13:44:42,006261
5,5,7,24,56,33,16,8,2021-08-06 13:44:42,037216
-2,1,-3,-3,-4,-3,0,-1,2021-08-06 13:44:42,037216
-3,0,4,-7,-9,-4,-1,-2,2021-08-06 13:44:42,037216
-2,-2,-8,-3,-6,-7,-2,-2,2021-08-06 13:44:42,037216
-3,-4,-14,-19,-16,-9,-5,-4,2021-08-06 13:44:42,037216
-3,-4,-4,-5,-5,-2,-1,-4,2021-08-06 13:44:42,037216
2,1,4,4,3,3,0,0,2021-08-06 13:44:42,052282
-2,0,6,7,0,-1,-3,-2,2021-08-06 13:44:42,052282
0,-1,-5,-9,-11,-8,-2,-1,2021-08-06 13:44:42,052282
-1,-1,3,14,20,14,4,1,2021-08-06 13:44:42,052282
1,0,2,8,8,3,1,1,2021-08-06 13:44:42,060214
4,5,8,5,3,6,5,3,2021-08-06 13:44:42,060214
-1,1,1,-7,-18,-11,-4,0,2021-08-06 13:44:42,084253
-1,-4,-2,0,-2,-5,-4,-3,2021-08-06 13:44:42,100216
0,0,-2,-1,3,2,1,0,2021-08-06 13:44:42,100216
-6,-7,-12,-18,-22,-10,-6,-5,2021-08-06 13:44:42,100216
3,4,13,38,54,28,12,6,2021-08-06 13:44:42,100216
2,2,2,7,3,2,0,1,2021-08-06 13:44:42,100216
-3,-3,-7,-20,-6,-2,-2,-1,2021-08-06 13:44:42,116252
-6,-7,-10,-17,-20,-15,-10,-8,2021-08-06 13:44:42,132249
-3,-2,-3,-14,-30,-16,-7,-5,2021-08-06 13:44:42,148217
2,2,5,13,19,10,4,2,2021-08-06 13:44:42,164218
-1,-1,-4,-6,-22,-15,-7,-4,2021-08-06 13:44:42,180252
5,1,4,13,41,25,12,5,2021-08-06 13:44:42,180252
-2,-3,1,6,-1,0,-1,-2,2021-08-06 13:44:42,180252
1,2,-2,-8,-6,-1,1,0,2021-08-06 13:44:42,180252
-2,-3,-6,-2,-9,-6,-4,-3,2021-08-06 13:44:42,180252
-4,-4,-4,-6,-12,-11,-4,-3,2021-08-06 13:44:42,180252
3,4,5,6,8,7,6,3,2021-08-06 13:44:42,196217
0,2,1,0,-1,-3,-3,0,2021-08-06 13:44:42,196217
-6,-7,-8,-13,-22,-14,-7,-4,2021-08-06 13:44:42,212215
2,3,5,13,27,16,8,6,2021-08-06 13:44:42,212215
-4,-4,-3,-1,-4,-1,-5,-4,2021-08-06 13:44:42,212215
-2,-2,-4,-14,-20,-12,-3,-1,2021-08-06 13:44:42,212215
-2,-1,1,6,7,4,0,-1,2021-08-06 13:44:42,212215
-5,-4,-2,-6,-28,-22,-11,-7,2021-08-06 13:44:42,212215
1,0,-12,-15,-9,-2,1,0,2021-08-06 13:44:42,212215
4,2,7,14,34,22,9,4,2021-08-06 13:44:42,213219
0,0,3,13,15,7,4,-1,2021-08-06 13:44:42,213219
0,2,1,-4,-5,-3,0,0,2021-08-06 13:44:42,213219
-4,-3,0,-11,-25,-19,-10,-6,2021-08-06 13:44:42,213219
-2,-1,0,1,-4,-6,-3,-2,2021-08-06 13:44:42,213219
4,2,5,14,24,17,8,4,2021-08-06 13:44:42,228253
2,4,4,9,5,3,-1,1,2021-08-06 13:44:42,228253
-5,-6,-11,-16,-14,-12,-9,-5,2021-08-06 13:44:42,244260
-2,-5,-7,-23,-29,-10,-4,-1,2021-08-06 13:44:42,260219
-1,-1,-3,2,13,5,0,-2,2021-08-06 13:44:42,276252
-3,-2,-2,-4,-3,-2,-1,-2,2021-08-06 13:44:42,276252
-3,-2,1,-3,-13,-8,-3,-3,2021-08-06 13:44:42,276252
-2,1,5,11,-1,-7,-3,-2,2021-08-06 13:44:42,276252
0,0,-5,-2,-1,0,-2,1,2021-08-06 13:44:42,276252
-4,-4,-8,-16,-27,-15,-7,-4,2021-08-06 13:44:42,276252
4,5,11,34,56,28,9,5,2021-08-06 13:44:42,277250
-3,-5,-5,-19,-16,-8,-6,-4,2021-08-06 13:44:42,277250
-1,-2,1,2,-1,-1,1,-2,2021-08-06 13:44:42,292252
2,0,-1,4,8,2,0,1,2021-08-06 13:44:42,308254
-1,-3,4,0,-13,-9,-4,-3,2021-08-06 13:44:42,308254
1,1,-5,-1,1,0,1,0,2021-08-06 13:44:42,308254
0,1,1,3,2,0,-1,-1,2021-08-06 13:44:42,324249
-3,-2,-9,-22,-15,-9,-3,-4,2021-08-06 13:44:42,340252
-4,-4,-4,-10,-10,-7,-4,-2,2021-08-06 13:44:42,340252
1,1,2,18,17,14,7,3,2021-08-06 13:44:42,340252
-1,0,3,-1,-15,-6,-1,-1,2021-08-06 13:44:42,340252
5,3,6,-2,9,7,3,2,2021-08-06 13:44:42,340252
0,-1,-7,-11,-9,-6,-1,1,2021-08-06 13:44:42,340252
-9,-13,-16,-33,-61,-34,-16,-10,2021-08-06 13:44:42,340252
2,4,12,29,47,22,8,4,2021-08-06 13:44:42,356251
5,5,10,25,17,14,5,4,2021-08-06 13:44:42,356251
4,2,-3,-4,9,12,7,2,2021-08-06 13:44:42,356251
-3,-7,-10,-17,-22,-18,-9,-5,2021-08-06 13:44:42,356251
-6,-9,-9,-17,-47,-34,-14,-6,2021-08-06 13:44:42,372261
2,4,15,33,28,15,5,1,2021-08-06 13:44:42,372261
5,7,5,-6,10,15,8,4,2021-08-06 13:44:42,372261
-1,-2,-12,-37,-15,-8,1,-1,2021-08-06 13:44:42,372261
-10,-13,-18,-37,-53,-41,-19,-10,2021-08-06 13:44:42,404214
-1,-1,-1,1,5,3,3,2,2021-08-06 13:44:42,404214
-2,-1,13,43,16,6,-2,-2,2021-08-06 13:44:42,404214
6,9,5,9,36,25,10,6,2021-08-06 13:44:42,404214
1,-1,-2,-8,14,15,4,-2,2021-08-06 13:44:42,420261
-4,-7,-9,-5,-29,-18,-10,-6,2021-08-06 13:44:42,436251
7,6,10,28,58,30,13,8,2021-08-06 13:44:42,452215
3,3,10,25,19,8,3,2,2021-08-06 13:44:42,468252
-1,-1,-8,-17,-17,-10,-3,-2,2021-08-06 13:44:42,468252
-7,-6,-7,-12,-21,-13,-6,-5,2021-08-06 13:44:42,468252
-4,-6,-4,-15,-30,-21,-8,-4,2021-08-06 13:44:42,468252
-2,0,4,5,-3,-4,-4,-1,2021-08-06 13:44:42,468252
6,7,3,10,18,14,6,5,2021-08-06 13:44:42,468252
-1,-1,-4,-8,5,2,-1,-2,2021-08-06 13:44:42,468252
-5,-8,-16,-28,-18,-13,-8,-6,2021-08-06 13:44:42,469249
-3,-1,-4,-24,-26,-9,-4,-3,2021-08-06 13:44:42,469249
3,4,12,26,29,17,6,4,2021-08-06 13:44:42,469249
5,5,6,15,19,12,7,6,2021-08-06 13:44:42,469249
-2,0,-3,-1,-12,-7,-1,-1,2021-08-06 13:44:42,484217
0,0,2,4,-11,-4,-2,1,2021-08-06 13:44:42,484217
0,1,3,8,20,10,4,1,2021-08-06 13:44:42,499261
0,1,-3,-5,-2,0,1,-1,2021-08-06 13:44:42,499261
-9,-7,-7,-18,-27,-23,-13,-8,2021-08-06 13:44:42,499261
3,3,4,17,23,11,7,2,2021-08-06 13:44:42,499261
1,2,6,8,1,2,2,3,2021-08-06 13:44:42,515217
-2,-3,-3,-3,-3,-1,-2,0,2021-08-06 13:44:42,531252
-2,-2,-10,-24,-14,-4,-1,-2,2021-08-06 13:44:42,547215
-1,-1,6,17,13,1,-1,-1,2021-08-06 13:44:42,547215
0,0,-2,-3,-1,2,1,0,2021-08-06 13:44:42,547215
-4,-5,-11,-18,-13,-9,-4,-5,2021-08-06 13:44:42,547215
-4,-2,0,0,-15,-10,-5,-4,2021-08-06 13:44:42,547215
0,2,2,8,14,7,2,-1,2021-08-06 13:44:42,547215
-1,2,4,8,3,1,0,-1,2021-08-06 13:44:42,562240
2,2,3,-1,3,3,1,1,2021-08-06 13:44:42,562240
-1,-1,-3,-4,-7,-2,-2,-1,2021-08-06 13:44:42,562240
-3,-4,-3,-3,-4,-8,-4,-2,2021-08-06 13:44:42,562240
-2,-4,-4,-8,-10,-5,-4,-4,2021-08-06 13:44:42,578214
2,1,4,21,22,14,4,3,2021-08-06 13:44:42,594249
2,1,1,0,12,9,4,2,2021-08-06 13:44:42,594249
-1,-1,-1,-1,4,2,-1,-2,2021-08-06 13:44:42,594249
-6,-5,-5,-11,-19,-14,-6,-4,2021-08-06 13:44:42,594249
0,0,1,-3,-9,-6,-2,1,2021-08-06 13:44:42,594249
2,2,-1,7,8,4,3,2,2021-08-06 13:44:42,594249
-4,-4,-5,-7,-3,-1,-4,-2,2021-08-06 13:44:42,594249
-2,-3,-5,-6,-3,-2,0,-1,2021-08-06 13:44:42,609215
-1,0,0,-1,0,1,0,-1,2021-08-06 13:44:42,609215
-3,-2,0,-3,-16,-10,-5,-2,2021-08-06 13:44:42,624251
2,2,0,8,16,9,4,3,2021-08-06 13:44:42,624251
4,2,1,6,11,9,5,3,2021-08-06 13:44:42,640251
-2,-1,-2,-3,1,-1,-1,-1,2021-08-06 13:44:42,640251
-2,-2,0,3,0,-1,-1,-4,2021-08-06 13:44:42,640251
-5,-5,-5,-2,-6,-5,-4,-5,2021-08-06 13:44:42,640251
-2,-2,-1,0,0,-3,-3,-2,2021-08-06 13:44:42,655249
1,1,2,-3,-1,-2,-1,-1,2021-08-06 13:44:42,670249
-2,-2,-2,-5,-10,-5,-2,-2,2021-08-06 13:44:42,670249
2,1,0,5,8,2,2,1,2021-08-06 13:44:42,670249
2,1,-2,-13,-12,-5,-1,1,2021-08-06 13:44:42,670249
-4,-5,-7,-9,-8,-4,-2,-2,2021-08-06 13:44:42,670249
2,1,4,11,7,4,2,3,2021-08-06 13:44:42,670249
-1,-1,3,9,12,7,3,-2,2021-08-06 13:44:42,670249
0,-1,-1,0,4,1,0,2,2021-08-06 13:44:42,700249
-2,-2,-3,-9,-8,-8,-4,-4,2021-08-06 13:44:42,700249
-5,-6,-7,-13,-29,-15,-9,-4,2021-08-06 13:44:42,700249
5,7,10,27,39,22,9,6,2021-08-06 13:44:42,700249
0,1,5,-5,-9,-4,-1,0,2021-08-06 13:44:42,716249
-3,-2,-8,-4,0,0,-2,-3,2021-08-06 13:44:42,732249
-4,-3,-1,8,-3,-6,-4,-2,2021-08-06 13:44:42,748218
0,-1,-7,-27,-19,-6,-1,-1,2021-08-06 13:44:42,748218
-4,-3,-5,-19,-12,-5,-3,-4,2021-08-06 13:44:42,764218
1,2,5,5,11,10,6,3,2021-08-06 13:44:42,764218
-7,-9,-9,-19,-31,-24,-12,-8,2021-08-06 13:44:42,764218
-1,-4,-3,9,6,7,3,2,2021-08-06 13:44:42,764218
4,6,9,30,33,18,8,4,2021-08-06 13:44:42,780215
-5,-3,4,-3,-13,-8,-4,-3,2021-08-06 13:44:42,796217
4,6,1,10,25,10,5,2,2021-08-06 13:44:42,812256
-1,0,-4,-18,-20,-10,-3,-1,2021-08-06 13:44:42,828215
-2,-2,-4,-8,-2,-3,-2,-2,2021-08-06 13:44:42,828215
0,-2,-4,-1,-3,-3,-4,-2,2021-08-06 13:44:42,828215
2,5,12,19,33,21,9,5,2021-08-06 13:44:42,828215
-3,0,0,-1,-4,-6,-5,-3,2021-08-06 13:44:42,828215
0,0,1,7,1,3,1,1,2021-08-06 13:44:42,829216
-3,-2,-2,-1,-6,-7,-4,-2,2021-08-06 13:44:42,829216
-1,-3,-3,-19,-16,-9,-5,-2,2021-08-06 13:44:42,829216
-2,-3,-1,-3,-9,-7,-3,-1,2021-08-06 13:44:42,829216
1,1,-7,6,14,8,4,1,2021-08-06 13:44:42,844249
-2,-4,-4,-4,-12,-7,-3,-3,2021-08-06 13:44:42,844249
1,1,-2,-15,-4,2,1,1,2021-08-06 13:44:42,844249
-2,-1,4,0,-11,-8,-4,-1,2021-08-06 13:44:42,844249
-1,0,-2,9,2,3,1,1,2021-08-06 13:44:42,844249
-2,-1,1,10,12,4,2,1,2021-08-06 13:44:42,844249
0,0,-3,-17,-4,2,3,0,2021-08-06 13:44:42,844249
0,3,0,3,-1,-3,0,-1,2021-08-06 13:44:42,845217
-6,-6,-6,-18,-30,-19,-10,-6,2021-08-06 13:44:42,845217
2,1,-2,1,-1,3,2,2,2021-08-06 13:44:42,845217
4,4,8,21,15,9,4,2,2021-08-06 13:44:42,860217
-4,-3,-3,-5,-6,-2,-2,-2,2021-08-06 13:44:42,876250
-4,-4,-6,-14,-14,-10,-6,-3,2021-08-06 13:44:42,878216
2,3,2,7,7,9,4,3,2021-08-06 13:44:42,878216
1,2,5,17,30,14,2,1,2021-08-06 13:44:42,878216
-2,-3,-4,-6,-12,-8,-4,-3,2021-08-06 13:44:42,878216
0,2,2,7,13,5,3,-1,2021-08-06 13:44:42,908262
-5,-5,-2,-10,-18,-13,-7,-5,2021-08-06 13:44:42,908262
-1,-1,-9,-4,-7,-5,-1,0,2021-08-06 13:44:42,908262
-1,0,7,14,5,1,-2,-2,2021-08-06 13:44:42,908262
1,2,0,-3,-5,0,1,-2,2021-08-06 13:44:42,924255
-1,-1,-10,-26,-6,-4,-2,1,2021-08-06 13:44:42,940262
-2,-2,-3,-1,-9,-5,-1,-2,2021-08-06 13:44:42,940262
0,-3,-2,4,12,2,0,-1,2021-08-06 13:44:42,940262
0,0,5,7,-7,-3,0,0,2021-08-06 13:44:42,940262
4,4,10,22,31,15,6,1,2021-08-06 13:44:42,940262
0,0,-1,-2,6,4,1,-1,2021-08-06 13:44:42,940262
-4,-4,-6,-11,-16,-8,-4,-4,2021-08-06 13:44:42,940262
0,-3,-1,-1,-1,0,0,-2,2021-08-06 13:44:42,972216
-1,1,-2,-1,0,-1,-1,-2,2021-08-06 13:44:42,987252
-1,-2,0,-1,-9,-6,-4,-1,2021-08-06 13:44:43,003247
1,-1,-1,-3,0,0,1,0,2021-08-06 13:44:43,003247
-1,0,-1,0,9,4,-1,0,2021-08-06 13:44:43,019252
-1,-1,-3,-3,-5,-4,-1,-2,2021-08-06 13:44:43,019252
0,2,1,2,-1,-1,0,-1,2021-08-06 13:44:43,019252
-2,-1,-2,-3,-3,-1,0,0,2021-08-06 13:44:43,019252
-2,-2,-4,-2,-4,-1,0,0,2021-08-06 13:44:43,019252
0,-2,0,2,0,-1,-2,-2,2021-08-06 13:44:43,019252
-4,-5,-5,-8,-12,-8,-4,-3,2021-08-06 13:44:43,020249
5,7,9,22,34,21,10,5,2021-08-06 13:44:43,020249
-3,-3,-1,-6,-9,-5,-5,-2,2021-08-06 13:44:43,020249
-1,0,-1,-4,-10,-5,-3,-2,2021-08-06 13:44:43,020249
-2,-2,-3,-4,-7,-5,-2,-3,2021-08-06 13:44:43,020249
0,-2,-3,-3,-1,3,0,1,2021-08-06 13:44:43,020249
-3,-2,-3,-3,-5,-2,-1,-1,2021-08-06 13:44:43,051217
2,-1,1,3,8,3,0,2,2021-08-06 13:44:43,051217
0,0,-1,-1,-5,-3,-3,-2,2021-08-06 13:44:43,051217
-3,-5,-4,-7,-10,-6,-3,-3,2021-08-06 13:44:43,051217
2,1,1,0,1,0,-2,0,2021-08-06 13:44:43,051217
-2,-1,-2,-6,-9,-4,-2,-3,2021-08-06 13:44:43,067219
-3,-3,0,5,5,2,1,-2,2021-08-06 13:44:43,083244
-1,1,-4,-12,-13,-9,-3,-2,2021-08-06 13:44:43,099252
2,1,0,6,15,7,3,1,2021-08-06 13:44:43,115216
-3,-4,-5,-5,-13,-8,-4,-4,2021-08-06 13:44:43,115216
1,2,4,9,22,15,7,3,2021-08-06 13:44:43,131212
-2,-3,-7,-5,-4,-4,-3,-4,2021-08-06 13:44:43,131212
2,2,2,0,-1,-3,0,1,2021-08-06 13:44:43,131212
-3,-1,-7,-12,-7,-4,-1,0,2021-08-06 13:44:43,131212
0,1,-3,0,8,2,0,1,2021-08-06 13:44:43,131212
-1,-2,1,5,7,3,-2,-1,2021-08-06 13:44:43,131212
0,-1,-1,5,0,1,0,-1,2021-08-06 13:44:43,132219
0,1,6,-1,0,1,1,-2,2021-08-06 13:44:43,132219
-1,-1,-12,-9,-5,-3,-2,1,2021-08-06 13:44:43,132219
-2,0,0,-9,-8,-6,-3,-2,2021-08-06 13:44:43,132219
-4,-4,-6,-7,-17,-8,-2,-3,2021-08-06 13:44:43,147219
0,-1,4,14,9,5,1,-1,2021-08-06 13:44:43,147219
0,-1,3,-4,-12,-6,-2,0,2021-08-06 13:44:43,147219
4,5,7,23,34,14,7,4,2021-08-06 13:44:43,147219
-2,-2,0,-2,-4,-1,0,0,2021-08-06 13:44:43,163251
0,0,1,0,5,4,1,1,2021-08-06 13:44:43,163251
-2,-2,-7,-9,-12,-6,-2,-1,2021-08-06 13:44:43,163251
-6,-7,-8,-22,-26,-15,-7,-6,2021-08-06 13:44:43,163251
3,4,8,16,30,16,7,3,2021-08-06 13:44:43,194262
-1,-1,-2,2,-1,-3,-2,-1,2021-08-06 13:44:43,210235
1,3,6,11,13,9,4,0,2021-08-06 13:44:43,210235
-2,-3,-2,-5,-15,-6,-3,-2,2021-08-06 13:44:43,210235
-3,-1,-4,-8,-6,-6,-4,-3,2021-08-06 13:44:43,210235
-3,-4,-7,-11,-18,-14,-6,-6,2021-08-06 13:44:43,210235
4,2,10,9,13,10,5,1,2021-08-06 13:44:43,210235
5,3,-5,14,30,18,6,5,2021-08-06 13:44:43,211217
0,-1,2,-2,1,0,0,-1,2021-08-06 13:44:43,225215
-2,0,1,2,-7,-6,-4,-2,2021-08-06 13:44:43,225215
-4,-5,-4,-7,-32,-20,-8,-3,2021-08-06 13:44:43,225215
6,5,4,4,30,17,9,4,2021-08-06 13:44:43,225215
-2,-4,-7,-14,-4,-1,-3,-4,2021-08-06 13:44:43,240250
-1,-2,-4,-4,-6,-2,0,-1,2021-08-06 13:44:43,256250
-1,-3,0,-4,-8,-6,-5,-4,2021-08-06 13:44:43,272250
-3,0,3,5,-10,-5,-3,-1,2021-08-06 13:44:43,287217
0,0,-4,0,-4,-3,0,-1,2021-08-06 13:44:43,287217
1,0,4,6,12,8,3,3,2021-08-06 13:44:43,287217
-1,0,-1,5,12,5,2,-1,2021-08-06 13:44:43,287217
-3,-3,-4,-4,-9,-6,-5,-3,2021-08-06 13:44:43,287217
-2,-2,-4,-9,-15,-10,-3,-1,2021-08-06 13:44:43,288216
0,2,0,0,6,5,2,0,2021-08-06 13:44:43,288216
1,2,3,9,12,6,2,2,2021-08-06 13:44:43,288216
-4,-5,-7,-14,-24,-15,-7,-5,2021-08-06 13:44:43,288216
1,3,3,9,20,12,4,2,2021-08-06 13:44:43,302220
0,0,1,6,6,3,0,1,2021-08-06 13:44:43,315250
-1,-3,-6,-11,-8,-5,-3,-3,2021-08-06 13:44:43,316215
-5,-3,-4,-10,-13,-9,-5,-2,2021-08-06 13:44:43,316215
-2,-3,-2,-3,-12,-8,-3,-4,2021-08-06 13:44:43,334215
2,3,4,9,21,13,6,2,2021-08-06 13:44:43,334215
0,-1,0,0,-3,-1,-1,-1,2021-08-06 13:44:43,334215
0,-1,1,0,-4,-1,-1,-1,2021-08-06 13:44:43,334215
-2,-1,-2,-1,-1,-1,-3,1,2021-08-06 13:44:43,349250
-1,-2,-2,-6,-8,-5,-3,-2,2021-08-06 13:44:43,349250
-4,-3,-1,-5,-16,-9,-5,-4,2021-08-06 13:44:43,349250
3,4,0,1,6,5,4,2,2021-08-06 13:44:43,349250
0,1,2,4,13,7,2,1,2021-08-06 13:44:43,365215
1,1,2,15,8,3,1,1,2021-08-06 13:44:43,365215
-2,-4,-15,-25,-15,-7,-3,-1,2021-08-06 13:44:43,365215
-3,-6,-6,-18,-10,-5,-3,-3,2021-08-06 13:44:43,365215
-5,-4,-3,-7,-14,-10,-5,-3,2021-08-06 13:44:43,381252
2,3,6,11,13,6,2,0,2021-08-06 13:44:43,397250
1,3,10,20,11,3,-1,0,2021-08-06 13:44:43,412256
0,1,3,2,-6,-5,0,-2,2021-08-06 13:44:43,412256
0,-1,-2,-7,-6,-6,-4,-2,2021-08-06 13:44:43,412256
-4,-5,-3,-8,-17,-8,-4,-2,2021-08-06 13:44:43,412256
1,2,1,3,12,7,4,3,2021-08-06 13:44:43,412256
-1,-4,-5,-6,0,-1,-1,-1,2021-08-06 13:44:43,412256
3,3,7,6,6,5,2,0,2021-08-06 13:44:43,428215
-3,-5,-10,-17,-28,-16,-9,-4,2021-08-06 13:44:43,428215
2,3,5,11,29,17,5,2,2021-08-06 13:44:43,428215
-1,0,6,6,0,-4,-3,-1,2021-08-06 13:44:43,428215
-3,-1,-6,-12,-10,-6,-4,-1,2021-08-06 13:44:43,443250
2,3,3,11,20,11,5,3,2021-08-06 13:44:43,443250
0,-1,-6,4,-4,-5,-3,-3,2021-08-06 13:44:43,459219
-2,-4,-7,-1,-12,-7,-3,-4,2021-08-06 13:44:43,459219
0,0,-1,-9,3,3,1,0,2021-08-06 13:44:43,475233
-3,-4,-4,-15,-21,-11,-5,-3,2021-08-06 13:44:43,475233
2,0,5,3,-2,1,0,1,2021-08-06 13:44:43,475233
-1,2,1,10,8,6,0,1,2021-08-06 13:44:43,475233
-3,-2,-5,-1,-13,-10,-4,-2,2021-08-06 13:44:43,475233
-2,-3,-3,-6,-5,-3,-2,-4,2021-08-06 13:44:43,476216
1,0,-2,-3,9,7,5,3,2021-08-06 13:44:43,490250
0,0,0,7,7,4,2,1,2021-08-06 13:44:43,506250
0,-2,-3,-2,-4,-3,-1,-1,2021-08-06 13:44:43,522261
2,1,0,-5,-5,-3,0,-1,2021-08-06 13:44:43,522261
-3,-3,-4,-11,-8,-8,-4,-2,2021-08-06 13:44:43,522261
-2,-3,-7,-13,-17,-6,-2,-3,2021-08-06 13:44:43,522261
4,3,6,20,28,11,7,3,2021-08-06 13:44:43,522261
-3,-2,-3,-2,4,2,1,-1,2021-08-06 13:44:43,522261
-4,-4,-4,-13,-24,-16,-8,-5,2021-08-06 13:44:43,523215
0,1,8,9,1,4,3,2,2021-08-06 13:44:43,523215
0,-1,0,13,-1,0,-1,0,2021-08-06 13:44:43,553261
-3,-5,-14,-26,-14,-9,-5,-2,2021-08-06 13:44:43,569250
0,1,0,2,0,5,3,0,2021-08-06 13:44:43,569250
-2,0,1,8,23,7,1,-1,2021-08-06 13:44:43,569250
3,2,5,9,18,12,5,1,2021-08-06 13:44:43,569250
-1,1,6,16,3,0,0,0,2021-08-06 13:44:43,569250
-6,-5,-7,-10,-23,-14,-7,-5,2021-08-06 13:44:43,570215
-1,-1,-2,-13,-10,-6,-3,-1,2021-08-06 13:44:43,570215
-5,-4,-7,-16,-25,-15,-6,-5,2021-08-06 13:44:43,585250
4,5,6,10,27,18,8,4,2021-08-06 13:44:43,601261
-2,-2,1,6,6,0,0,0,2021-08-06 13:44:43,601261
2,2,3,10,4,2,2,1,2021-08-06 13:44:43,601261
-1,-1,-2,-8,0,0,-2,-1,2021-08-06 13:44:43,601261
-4,-4,-5,-10,-12,-5,-5,-2,2021-08-06 13:44:43,601261
-3,-2,2,1,-1,-1,-2,-1,2021-08-06 13:44:43,601261
-6,-4,-5,-11,-17,-11,-5,-4,2021-08-06 13:44:43,601261
5,6,5,10,19,14,9,5,2021-08-06 13:44:43,633218
2,1,3,11,6,3,1,0,2021-08-06 13:44:43,633218
0,2,0,-5,2,2,1,0,2021-08-06 13:44:43,633218
-2,-2,-3,-7,-10,-7,-3,-2,2021-08-06 13:44:43,633218
-2,-3,1,0,-5,-2,-4,-2,2021-08-06 13:44:43,649250
1,1,3,11,6,-1,0,1,2021-08-06 13:44:43,665250
2,2,-2,6,20,12,5,3,2021-08-06 13:44:43,681250
-2,-3,-13,-20,-11,-7,-4,-3,2021-08-06 13:44:43,697270
-4,-2,0,-6,-16,-10,-4,-2,2021-08-06 13:44:43,713215
0,0,3,8,12,5,0,-1,2021-08-06 13:44:43,713215
-2,-4,-4,-21,-36,-17,-6,-4,2021-08-06 13:44:43,713215
-3,-4,-1,2,3,-1,-3,-3,2021-08-06 13:44:43,713215
2,4,4,11,23,13,6,3,2021-08-06 13:44:43,713215
-1,-3,-6,-6,-8,-5,-3,-2,2021-08-06 13:44:43,713215
-1,0,2,5,2,0,0,-2,2021-08-06 13:44:43,714219
3,3,4,7,3,1,0,1,2021-08-06 13:44:43,714219
-7,-4,-7,-20,-26,-15,-7,-4,2021-08-06 13:44:43,714219
3,4,-2,2,14,7,5,4,2021-08-06 13:44:43,714219
-4,-2,-5,-7,-4,-5,-3,-4,2021-08-06 13:44:43,714219
1,3,6,14,21,12,5,2,2021-08-06 13:44:43,714219
-2,-2,-2,-2,-10,-9,-7,-4,2021-08-06 13:44:43,729214
-2,-2,-3,-10,-11,-5,-2,-4,2021-08-06 13:44:43,729214
-2,-3,-1,1,6,-1,-2,-2,2021-08-06 13:44:43,729214
-3,-1,-4,0,-2,-3,-2,0,2021-08-06 13:44:43,729214
-1,-1,-2,-4,-12,-4,0,1,2021-08-06 13:44:43,743249
-1,-2,-3,-7,-6,-6,-4,-3,2021-08-06 13:44:43,743249
0,0,4,1,4,-1,-1,0,2021-08-06 13:44:43,743249
1,2,3,4,-2,5,4,1,2021-08-06 13:44:43,761215
-3,-6,-8,-11,-13,-10,-7,-5,2021-08-06 13:44:43,761215
-1,0,1,3,4,5,1,2,2021-08-06 13:44:43,761215
1,2,7,13,16,7,2,1,2021-08-06 13:44:43,761215
0,1,-2,0,-1,1,1,1,2021-08-06 13:44:43,761215
1,0,-10,-17,6,2,-1,0,2021-08-06 13:44:43,793249
-5,-3,-3,-5,-13,-8,-3,-5,2021-08-06 13:44:43,809250
-1,-1,-6,-7,-11,-5,-1,-2,2021-08-06 13:44:43,809250
-1,0,8,11,0,1,-1,-1,2021-08-06 13:44:43,809250
2,-1,0,5,5,5,3,-1,2021-08-06 13:44:43,809250
-3,-3,-5,-15,-9,-5,-4,-2,2021-08-06 13:44:43,809250
-1,-1,-2,2,7,1,1,0,2021-08-06 13:44:43,809250
-2,-4,-6,-13,-15,-11,-4,-3,2021-08-06 13:44:43,809250
-2,-1,1,6,4,0,1,0,2021-08-06 13:44:43,840244
2,1,3,5,5,5,1,0,2021-08-06 13:44:43,840244
1,2,2,3,6,3,3,0,2021-08-06 13:44:43,840244
-2,-2,-2,-5,3,0,-2,-2,2021-08-06 13:44:43,840244
-2,-4,-2,-3,-12,-5,-4,-4,2021-08-06 13:44:43,840244
-1,-3,-1,0,-6,-4,-5,-2,2021-08-06 13:44:43,840244
0,-3,-6,-13,-22,-10,-4,-2,2021-08-06 13:44:43,841240
2,4,6,20,35,20,8,3,2021-08-06 13:44:43,841240
1,1,2,6,13,5,2,0,2021-08-06 13:44:43,856244
-1,-1,0,-1,-3,-2,-1,-1,2021-08-06 13:44:43,856244
-1,-1,0,2,0,-2,-5,0,2021-08-06 13:44:43,872256
-2,-4,0,-11,-12,-7,-3,-2,2021-08-06 13:44:43,872256
0,-1,-7,0,2,-1,1,0,2021-08-06 13:44:43,888216
-1,-1,-5,-1,-3,-5,-2,-1,2021-08-06 13:44:43,904215
1,0,-2,0,14,8,1,0,2021-08-06 13:44:43,920262
-5,-4,-2,-14,-13,-7,-3,-2,2021-08-06 13:44:43,920262
-2,0,3,4,0,-2,-3,-2,2021-08-06 13:44:43,920262
2,1,2,4,5,2,3,1,2021-08-06 13:44:43,920262
-1,0,1,5,-3,-3,1,-1,2021-08-06 13:44:43,920262
0,-2,-5,-3,-11,-7,-3,-2,2021-08-06 13:44:43,920262
-2,-2,-2,-7,-5,-3,0,-2,2021-08-06 13:44:43,920262
4,4,4,16,23,15,7,4,2021-08-06 13:44:43,920262
-4,-3,-4,-9,-20,-14,-6,-4,2021-08-06 13:44:43,936215
4,2,0,-6,3,4,2,1,2021-08-06 13:44:43,936215
1,0,3,10,10,2,1,0,2021-08-06 13:44:43,936215
-1,-1,-1,0,8,3,1,1,2021-08-06 13:44:43,936215
0,2,7,24,27,13,5,2,2021-08-06 13:44:43,967261
-3,-2,-5,-7,-17,-11,-5,-4,2021-08-06 13:44:43,983252
-3,-2,-6,-10,-12,-5,-5,-2,2021-08-06 13:44:43,983252
-3,-2,-3,-7,-16,-9,-6,-4,2021-08-06 13:44:43,983252
-3,-2,-6,-12,-18,-7,-3,-4,2021-08-06 13:44:43,983252
0,-3,-3,1,6,2,-2,0,2021-08-06 13:44:43,983252
-2,-1,3,6,1,4,0,-2,2021-08-06 13:44:43,983252
-3,-1,3,8,6,-4,-2,-2,2021-08-06 13:44:43,984217
6,6,-3,5,30,27,15,11,2021-08-06 13:44:43,984217
0,2,6,8,-2,0,2,-1,2021-08-06 13:44:43,984217
0,1,0,3,7,3,0,0,2021-08-06 13:44:43,999250
-3,-5,-5,-24,-30,-15,-8,-4,2021-08-06 13:44:44,015250
1,0,1,3,2,-2,-3,1,2021-08-06 13:44:44,015250
-4,-2,-6,-7,-11,-10,-6,-4,2021-08-06 13:44:44,015250
-2,-1,-2,1,8,4,1,-1,2021-08-06 13:44:44,031216
-1,1,6,8,-1,2,1,-2,2021-08-06 13:44:44,046249
-2,-2,3,4,-3,-1,-3,-3,2021-08-06 13:44:44,046249
1,-2,-9,-10,5,6,1,2,2021-08-06 13:44:44,046249
-4,-6,-9,-11,-15,-12,-8,-4,2021-08-06 13:44:44,046249
1,-1,-3,-7,-7,-5,-2,-1,2021-08-06 13:44:44,046249
0,-1,1,-1,-1,-2,-2,-1,2021-08-06 13:44:44,046249
0,2,7,16,17,4,0,-2,2021-08-06 13:44:44,046249
3,3,2,-2,-7,-2,0,0,2021-08-06 13:44:44,062250
-2,0,-5,-2,7,3,1,0,2021-08-06 13:44:44,062250
0,1,1,-4,-17,-6,0,0,2021-08-06 13:44:44,062250
-2,-3,-1,0,-7,-5,-2,0,2021-08-06 13:44:44,062250
1,0,3,6,1,0,0,2,2021-08-06 13:44:44,093260
1,0,-9,2,17,12,4,3,2021-08-06 13:44:44,093260
-9,-10,-8,-22,-19,-13,-8,-9,2021-08-06 13:44:44,093260
-2,1,3,8,12,6,3,-1,2021-08-06 13:44:44,093260
-1,0,3,0,-6,-5,-2,0,2021-08-06 13:44:44,109250
-3,-2,2,-6,-19,-11,-7,-3,2021-08-06 13:44:44,125215
4,0,1,9,19,7,2,1,2021-08-06 13:44:44,140249
1,2,1,2,6,1,2,0,2021-08-06 13:44:44,140249
0,-1,0,1,10,6,4,0,2021-08-06 13:44:44,140249
-2,-3,-4,-4,-7,-5,-2,-2,2021-08-06 13:44:44,140249
0,-1,-2,2,2,1,1,1,2021-08-06 13:44:44,140249
-3,-4,-3,-6,-7,-2,-2,-2,2021-08-06 13:44:44,140249
1,3,5,10,7,5,5,3,2021-08-06 13:44:44,140249
0,1,-2,-1,-1,0,1,1,2021-08-06 13:44:44,140249
-4,-6,-7,-13,-19,-13,-7,-4,2021-08-06 13:44:44,140249
3,2,1,1,-6,-1,-2,1,2021-08-06 13:44:44,140249
-2,-3,-1,2,9,4,0,-2,2021-08-06 13:44:44,159216
-2,-2,1,-2,-4,-6,-3,-2,2021-08-06 13:44:44,159216
6,7,11,29,46,29,13,5,2021-08-06 13:44:44,160217
-1,-3,-6,-9,-11,-6,-4,1,2021-08-06 13:44:44,160217
-3,-2,-2,-7,-11,-6,-4,-2,2021-08-06 13:44:44,187215
-1,-2,0,-2,-8,-4,-3,0,2021-08-06 13:44:44,187215
-5,-6,-7,-16,-23,-14,-7,-6,2021-08-06 13:44:44,187215
2,0,1,7,8,3,1,2,2021-08-06 13:44:44,187215
-1,-1,0,1,1,3,1,-1,2021-08-06 13:44:44,203255
-1,-1,-1,3,6,4,0,0,2021-08-06 13:44:44,203255
-3,-2,-5,-11,-17,-10,-7,-3,2021-08-06 13:44:44,203255
0,-1,-1,-2,-2,0,1,0,2021-08-06 13:44:44,203255
0,1,-2,-2,-4,-2,-1,0,2021-08-06 13:44:44,235216
-3,0,0,-2,0,1,1,-2,2021-08-06 13:44:44,250215
-1,-1,-1,-2,1,-3,-3,-2,2021-08-06 13:44:44,250215
0,-1,-2,-5,-12,-6,-2,-2,2021-08-06 13:44:44,250215
1,-1,0,11,18,8,1,3,2021-08-06 13:44:44,250215
-4,-4,-2,-14,-8,-5,-5,-4,2021-08-06 13:44:44,250215
1,1,-4,10,-7,2,2,0,2021-08-06 13:44:44,250215
-5,-5,-7,-18,-12,-9,-5,-4,2021-08-06 13:44:44,250215
-1,0,2,2,5,2,0,0,2021-08-06 13:44:44,266254
3,-1,-1,6,5,4,2,2,2021-08-06 13:44:44,282250
-5,-5,-5,-14,-25,-15,-8,-4,2021-08-06 13:44:44,282250
0,2,2,15,11,4,0,-2,2021-08-06 13:44:44,282250
-6,-8,-9,-18,-29,-18,-11,-6,2021-08-06 13:44:44,282250
2,5,8,15,23,13,6,3,2021-08-06 13:44:44,282250
1,3,1,2,9,6,3,3,2021-08-06 13:44:44,282250
0,-1,-1,2,6,4,3,2,2021-08-06 13:44:44,282250
0,-1,-2,-8,-10,-6,-3,-2,2021-08-06 13:44:44,314211
1,0,-1,0,3,4,2,-1,2021-08-06 13:44:44,330249
-4,-4,-1,1,6,1,0,-1,2021-08-06 13:44:44,346218
-3,-3,-4,-12,-21,-9,-5,-4,2021-08-06 13:44:44,346218
4,4,7,22,37,15,5,3,2021-08-06 13:44:44,346218
-3,-3,-3,-10,-16,-7,-4,-3,2021-08-06 13:44:44,346218
0,2,-1,-4,-5,-3,-2,0,2021-08-06 13:44:44,346218
2,3,4,9,13,9,4,1,2021-08-06 13:44:44,346218
-2,-5,-3,-5,-6,-3,-1,-3,2021-08-06 13:44:44,346218
2,0,-8,-9,-7,-2,-1,1,2021-08-06 13:44:44,362249
2,3,8,19,28,10,4,1,2021-08-06 13:44:44,362249
-2,-4,-4,-10,-11,-7,-5,-3,2021-08-06 13:44:44,362249
0,0,-2,-14,-6,0,-2,-1,2021-08-06 13:44:44,362249
-1,-1,3,11,11,5,2,-1,2021-08-06 13:44:44,362249
0,-1,0,-4,0,-2,-1,1,2021-08-06 13:44:44,362249
-2,1,3,3,-2,0,0,0,2021-08-06 13:44:44,362249
2,2,-2,6,9,3,2,1,2021-08-06 13:44:44,393239
-2,-5,-11,-16,-20,-14,-5,-3,2021-08-06 13:44:44,409250
-3,-6,-5,-9,-16,-10,-8,-5,2021-08-06 13:44:44,441250
3,4,9,18,27,15,5,2,2021-08-06 13:44:44,441250
-6,-5,-6,-18,-28,-16,-9,-6,2021-08-06 13:44:44,441250
0,1,-2,1,-3,1,3,3,2021-08-06 13:44:44,441250
4,5,2,1,7,5,5,3,2021-08-06 13:44:44,441250
-1,-1,1,15,26,14,3,-1,2021-08-06 13:44:44,441250
1,3,5,6,8,4,2,0,2021-08-06 13:44:44,441250
-3,-3,-2,-3,-4,-5,-2,0,2021-08-06 13:44:44,441250
-4,-6,-10,-27,-41,-30,-12,-6,2021-08-06 13:44:44,442219
-1,-2,-4,-8,-7,-2,-2,1,2021-08-06 13:44:44,442219
-1,-2,1,10,5,2,1,-2,2021-08-06 13:44:44,442219
2,4,7,15,23,14,5,2,2021-08-06 13:44:44,442219
-3,-3,-5,-8,-3,-1,-1,-2,2021-08-06 13:44:44,457261
-2,-4,-8,-14,-24,-16,-5,-3,2021-08-06 13:44:44,457261
1,0,-1,0,6,6,4,1,2021-08-06 13:44:44,473250
-5,-6,-3,-9,-15,-10,-8,-7,2021-08-06 13:44:44,473250
4,4,6,10,26,20,9,4,2021-08-06 13:44:44,473250
4,4,8,23,34,10,2,2,2021-08-06 13:44:44,473250
3,1,0,-2,-1,2,2,4,2021-08-06 13:44:44,473250
-2,-4,-2,3,-4,-5,-4,-3,2021-08-06 13:44:44,473250
1,-1,-1,2,0,1,-1,0,2021-08-06 13:44:44,489250
-5,-4,-8,-23,-34,-18,-7,-4,2021-08-06 13:44:44,505217
1,2,5,8,18,13,6,3,2021-08-06 13:44:44,505217
-1,0,-6,-11,-11,-10,-6,-1,2021-08-06 13:44:44,505217
-5,-6,-8,-7,-10,-6,-6,-4,2021-08-06 13:44:44,505217
-3,0,7,14,13,8,0,-2,2021-08-06 13:44:44,505217
0,0,-7,-6,-11,-8,-3,-2,2021-08-06 13:44:44,537249
-2,0,3,-2,0,0,0,-1,2021-08-06 13:44:44,537249
-2,-2,1,12,10,1,-2,-5,2021-08-06 13:44:44,537249
4,1,-8,-21,-11,0,3,5,2021-08-06 13:44:44,537249
-10,-10,-12,-32,-51,-30,-14,-8,2021-08-06 13:44:44,537249
0,1,1,15,25,13,6,2,2021-08-06 13:44:44,537249
-1,-1,5,7,2,0,-1,-1,2021-08-06 13:44:44,553247
1,2,1,2,-7,-4,1,0,2021-08-06 13:44:44,553247
3,5,2,-1,13,14,6,4,2021-08-06 13:44:44,568217
-3,-3,-5,-8,-9,-9,-5,-4,2021-08-06 13:44:44,569249
-3,-2,1,2,-2,0,-1,-1,2021-08-06 13:44:44,569249
1,2,3,10,14,6,3,2,2021-08-06 13:44:44,570261
-2,-6,-2,2,-4,-2,-3,-2,2021-08-06 13:44:44,598842
3,4,3,-3,0,1,2,2,2021-08-06 13:44:44,598842
-1,1,-3,-6,-8,-7,-3,-1,2021-08-06 13:44:44,598842
-4,-4,-4,-4,-16,-7,-4,-3,2021-08-06 13:44:44,598842
3,4,3,11,22,7,3,4,2021-08-06 13:44:44,598842
-1,-2,-2,-5,-3,-2,-1,-1,2021-08-06 13:44:44,598842
-6,-6,-10,-16,-23,-17,-8,-5,2021-08-06 13:44:44,614805
1,1,-1,-2,4,0,1,0,2021-08-06 13:44:44,614805
0,0,1,4,1,0,-1,-2,2021-08-06 13:44:44,630840
-1,0,2,12,11,10,4,0,2021-08-06 13:44:44,646839
2,4,-2,-8,-5,-1,0,2,2021-08-06 13:44:44,646839
-6,-8,-8,-13,-13,-14,-8,-6,2021-08-06 13:44:44,646839
-1,0,0,1,1,0,0,0,2021-08-06 13:44:44,646839
-3,-5,-3,-12,-23,-17,-10,-5,2021-08-06 13:44:44,646839
0,-2,-4,-10,-5,5,2,1,2021-08-06 13:44:44,646839
10,11,18,49,68,44,17,8,2021-08-06 13:44:44,646839
-3,-3,-2,-1,-11,-5,-3,-3,2021-08-06 13:44:44,662842
-4,-2,-4,-7,-15,-8,-3,-4,2021-08-06 13:44:44,678840
0,-1,-1,-5,-12,-6,-1,1,2021-08-06 13:44:44,678840
-5,-6,-7,-18,-22,-15,-7,-3,2021-08-06 13:44:44,678840
-2,-2,-3,-6,-6,-3,-1,-1,2021-08-06 13:44:44,678840
-2,-5,-2,-2,5,0,-2,-4,2021-08-06 13:44:44,678840
3,3,4,10,5,4,1,1,2021-08-06 13:44:44,678840
0,1,0,-2,-3,1,0,1,2021-08-06 13:44:44,679841
1,0,3,9,9,4,1,1,2021-08-06 13:44:44,725839
-2,-3,-7,-6,-6,-4,-2,-2,2021-08-06 13:44:44,741840
1,2,3,8,10,7,4,2,2021-08-06 13:44:44,741840
-2,-2,-4,-2,-1,-3,-1,-3,2021-08-06 13:44:44,741840
-4,-3,-4,-10,-16,-11,-5,-3,2021-08-06 13:44:44,741840
0,0,0,3,4,3,1,0,2021-08-06 13:44:44,741840
2,1,1,1,7,3,1,1,2021-08-06 13:44:44,741840
-4,-4,3,-11,-24,-15,-8,-4,2021-08-06 13:44:44,741840
0,-2,-12,-3,11,6,2,0,2021-08-06 13:44:44,742852
5,3,7,11,24,12,6,4,2021-08-06 13:44:44,742852
-1,-1,-3,2,4,0,-1,-4,2021-08-06 13:44:44,742852
-4,-4,-5,-14,-24,-11,-6,-3,2021-08-06 13:44:44,742852
1,5,9,8,6,2,0,1,2021-08-06 13:44:44,773847
-2,0,-3,-10,-18,-9,-4,1,2021-08-06 13:44:44,789840
1,1,2,4,10,6,2,1,2021-08-06 13:44:44,805448
-1,-3,-4,2,7,0,-1,-1,2021-08-06 13:44:44,805448
-2,-7,-6,-12,-18,-10,-4,-3,2021-08-06 13:44:44,805448
3,6,6,14,19,13,9,4,2021-08-06 13:44:44,805448
-3,-4,-1,2,7,3,-2,-3,2021-08-06 13:44:44,805448
-2,-1,-3,-2,-1,-1,-3,-2,2021-08-06 13:44:44,805448
-2,-1,1,1,-1,0,-2,-2,2021-08-06 13:44:44,805448
0,1,1,-5,-11,-7,-4,-3,2021-08-06 13:44:44,806459
-2,0,-2,-4,-3,-3,-1,0,2021-08-06 13:44:44,806459
2,0,-2,-2,1,1,0,-1,2021-08-06 13:44:44,806459
-1,-2,-1,-5,-11,-12,-5,-2,2021-08-06 13:44:44,837425
2,0,-2,1,7,6,5,4,2021-08-06 13:44:44,837425
1,0,3,8,7,5,3,0,2021-08-06 13:44:44,837425
-3,-4,-8,-12,-9,-10,-3,-4,2021-08-06 13:44:44,837425
1,4,5,1,1,6,4,3,2021-08-06 13:44:44,837425
-3,-1,0,6,7,4,-3,-4,2021-08-06 13:44:44,837425
0,0,-3,-5,-9,-8,-3,-1,2021-08-06 13:44:44,869459
-3,-2,-4,-8,-11,-4,-1,-2,2021-08-06 13:44:44,885424
-1,-2,-3,-1,2,-1,-3,-1,2021-08-06 13:44:44,885424
1,0,-1,-3,-5,0,-1,0,2021-08-06 13:44:44,885424
-1,-1,2,9,12,6,2,2,2021-08-06 13:44:44,885424
-7,-7,-7,-14,-27,-18,-12,-6,2021-08-06 13:44:44,885424
-2,0,-2,-9,-12,-6,-1,-1,2021-08-06 13:44:44,885424
3,4,6,17,37,19,8,4,2021-08-06 13:44:44,901423
-1,1,-2,-2,-1,1,2,0,2021-08-06 13:44:44,901423
2,-1,-2,4,8,6,3,1,2021-08-06 13:44:44,901423
-3,-6,-5,-5,-13,-8,-7,-5,2021-08-06 13:44:44,901423
-4,-4,-5,-12,-20,-12,-5,-4,2021-08-06 13:44:44,901423
-1,0,6,9,13,8,0,-1,2021-08-06 13:44:44,933427
2,4,6,15,21,14,5,2,2021-08-06 13:44:44,933427
-3,-6,-21,-19,-18,-13,-4,-3,2021-08-06 13:44:44,933427
0,-2,-4,-27,-41,-26,-10,-5,2021-08-06 13:44:44,933427
-1,-2,-2,1,6,1,-1,-1,2021-08-06 13:44:44,933427
1,2,3,0,-6,-1,-2,1,2021-08-06 13:44:44,934428
1,5,13,30,44,25,9,4,2021-08-06 13:44:44,949460
-1,-1,-4,3,8,4,1,0,2021-08-06 13:44:44,949460
0,0,1,-5,-6,-3,-2,1,2021-08-06 13:44:44,949460
1,1,2,3,10,4,0,2,2021-08-06 13:44:44,965460
-5,-6,-4,-9,-17,-11,-3,-4,2021-08-06 13:44:44,981460
-1,-3,-2,4,1,2,-1,-1,2021-08-06 13:44:44,990426
-2,0,-1,0,0,0,-3,-1,2021-08-06 13:44:44,990426
1,1,-5,-2,-1,-4,-1,2,2021-08-06 13:44:44,991425
-7,-5,-7,-22,-36,-28,-14,-8,2021-08-06 13:44:44,991425
-2,-2,-3,-15,-17,0,2,0,2021-08-06 13:44:44,991425
2,4,6,20,30,15,6,3,2021-08-06 13:44:44,991425
-2,-4,-4,-4,-2,-1,-1,-3,2021-08-06 13:44:44,991425
1,3,5,9,10,8,2,2,2021-08-06 13:44:45,013460
-2,0,-1,-2,-10,-7,-2,-1,2021-08-06 13:44:45,013460
-5,-6,-12,-19,-32,-20,-10,-7,2021-08-06 13:44:45,013460
2,-1,0,-6,0,3,3,2,2021-08-06 13:44:45,013460
2,2,8,22,33,17,4,0,2021-08-06 13:44:45,029475
-1,0,2,9,9,4,-1,-1,2021-08-06 13:44:45,045471
-2,-2,-4,-4,-2,-1,-1,0,2021-08-06 13:44:45,045471
0,1,4,1,-10,-6,-3,0,2021-08-06 13:44:45,045471
1,1,0,-4,0,4,3,0,2021-08-06 13:44:45,045471
-2,-3,-2,-2,0,-4,-3,-1,2021-08-06 13:44:45,045471
-4,-5,-4,-9,-16,-10,-5,-3,2021-08-06 13:44:45,045471
-3,-2,-5,-4,-4,-2,-2,-2,2021-08-06 13:44:45,045471
0,-1,1,5,8,6,2,1,2021-08-06 13:44:45,076429
1,2,2,8,10,4,0,1,2021-08-06 13:44:45,076429
-1,-2,-3,-12,-24,-14,-3,-2,2021-08-06 13:44:45,076429
2,4,6,23,42,27,11,4,2021-08-06 13:44:45,076429
3,2,0,-5,-3,-1,-1,1,2021-08-06 13:44:45,091470
-3,-4,-2,-3,-11,-12,-6,-6,2021-08-06 13:44:45,091470
-2,-2,-5,-8,-1,-3,-1,-2,2021-08-06 13:44:45,091470
0,0,1,0,1,-3,0,0,2021-08-06 13:44:45,091470
0,1,3,11,7,5,2,0,2021-08-06 13:44:45,107470
0,0,6,4,4,2,-1,0,2021-08-06 13:44:45,107470
-4,-5,-16,-24,-30,-15,-6,-4,2021-08-06 13:44:45,107470
-4,-4,-8,-10,-9,-5,-3,-3,2021-08-06 13:44:45,107470
3,5,6,7,15,11,5,4,2021-08-06 13:44:45,123460
3,6,9,22,29,18,5,2,2021-08-06 13:44:45,123460
2,2,12,13,19,9,3,2,2021-08-06 13:44:45,123460
-9,-15,-28,-43,-66,-44,-19,-12,2021-08-06 13:44:45,123460
0,-2,-5,-13,-13,-6,-2,1,2021-08-06 13:44:45,153460
-2,-2,-1,1,8,1,-1,-1,2021-08-06 13:44:45,153460
3,4,10,21,25,19,7,2,2021-08-06 13:44:45,169459
5,6,12,22,30,16,8,5,2021-08-06 13:44:45,169459
-1,-2,-4,-10,-14,-7,-3,-4,2021-08-06 13:44:45,169459
-1,-2,-4,1,2,3,2,0,2021-08-06 13:44:45,169459
-3,-5,-7,-15,-23,-15,-9,-4,2021-08-06 13:44:45,169459
4,5,9,19,34,15,7,4,2021-08-06 13:44:45,169459
0,-1,1,7,11,6,1,0,2021-08-06 13:44:45,185427
-1,0,-5,-8,-4,-1,0,1,2021-08-06 13:44:45,201460
0,-1,-2,3,6,2,0,0,2021-08-06 13:44:45,201460
-2,-3,-1,-6,-11,-7,-5,-2,2021-08-06 13:44:45,201460
-2,-2,-2,-7,-18,-12,-6,-3,2021-08-06 13:44:45,201460
-2,-1,-4,-4,-1,1,0,-1,2021-08-06 13:44:45,201460
0,-1,-1,2,5,4,1,-1,2021-08-06 13:44:45,217425
-1,1,1,-3,-2,0,0,0,2021-08-06 13:44:45,232440
2,1,5,14,18,9,3,2,2021-08-06 13:44:45,232440
-3,-6,-6,-18,-31,-19,-9,-4,2021-08-06 13:44:45,232440
-1,1,0,2,2,2,2,0,2021-08-06 13:44:45,232440
-4,-3,-2,-4,-11,-5,-4,-3,2021-08-06 13:44:45,232440
-6,-8,-9,-16,-14,-11,-6,-5,2021-08-06 13:44:45,248425
6,6,6,8,12,9,6,5,2021-08-06 13:44:45,248425
3,3,5,15,24,14,6,3,2021-08-06 13:44:45,248425
-1,-2,0,-4,-9,-5,-2,-3,2021-08-06 13:44:45,248425
-2,-1,-5,-8,-6,-4,-2,0,2021-08-06 13:44:45,280457
-4,-5,-7,-5,-7,-6,-4,-5,2021-08-06 13:44:45,280457
-1,1,2,-1,-3,-1,-1,-1,2021-08-06 13:44:45,280457
-2,-1,-2,-2,-5,-2,-2,-1,2021-08-06 13:44:45,280457
-2,-4,-5,-12,-22,-16,-9,-4,2021-08-06 13:44:45,280457
2,3,5,16,30,20,7,3,2021-08-06 13:44:45,280457
-1,0,-3,-4,-5,-1,0,2,2021-08-06 13:44:45,296425
-2,0,-1,0,2,0,0,0,2021-08-06 13:44:45,312424
2,1,3,4,8,4,3,0,2021-08-06 13:44:45,328472
0,0,0,-2,-6,-7,-4,-2,2021-08-06 13:44:45,344471
-4,-7,-7,-11,-16,-10,-7,-5,2021-08-06 13:44:45,360483
0,3,2,6,8,2,2,1,2021-08-06 13:44:45,360483
2,3,2,2,0,1,3,2,2021-08-06 13:44:45,360483
-3,-4,-6,-8,-6,-6,-4,-4,2021-08-06 13:44:45,360483
-1,-2,-3,-5,-7,-3,-3,0,2021-08-06 13:44:45,360483
1,1,5,4,4,2,0,1,2021-08-06 13:44:45,360483
-1,0,0,0,-1,-1,0,1,2021-08-06 13:44:45,360483
-3,-2,-1,1,-1,0,-2,-1,2021-08-06 13:44:45,361425
-1,-1,-4,-2,-4,-4,-1,-3,2021-08-06 13:44:45,361425
-1,-2,2,-3,-7,-4,-2,-3,2021-08-06 13:44:45,361425
-4,-6,1,-2,-8,-4,-2,-2,2021-08-06 13:44:45,361425
2,-1,-10,-8,-4,-4,0,0,2021-08-06 13:44:45,361425
-1,-2,1,-1,-3,-1,0,-1,2021-08-06 13:44:45,361425
-1,1,0,9,13,7,4,0,2021-08-06 13:44:45,361425
-1,-1,-10,-12,-9,-4,-3,-4,2021-08-06 13:44:45,390472
-4,-3,0,-7,-15,-9,-6,-4,2021-08-06 13:44:45,406459
1,0,1,3,7,4,1,1,2021-08-06 13:44:45,421428
-2,-3,-2,-12,-14,-5,-4,-4,2021-08-06 13:44:45,421428
-1,1,3,10,11,5,2,1,2021-08-06 13:44:45,421428
-1,-2,-3,2,4,1,1,-1,2021-08-06 13:44:45,421428
1,1,4,5,3,1,0,0,2021-08-06 13:44:45,421428
0,-1,0,1,-2,0,0,0,2021-08-06 13:44:45,421428
0,-2,-1,-2,1,0,-2,-1,2021-08-06 13:44:45,421428
-1,-4,-2,-3,-1,-2,0,0,2021-08-06 13:44:45,422458
-2,0,1,7,3,-1,-1,-2,2021-08-06 13:44:45,422458
2,1,1,-7,-12,-4,-2,0,2021-08-06 13:44:45,422458
0,2,1,1,21,12,5,2,2021-08-06 13:44:45,451660
-2,-3,-1,-8,-15,-10,-4,-2,2021-08-06 13:44:45,451660
-1,-1,-2,-7,-4,-3,-1,1,2021-08-06 13:44:45,451660
0,-2,-4,0,-3,-3,-3,-3,2021-08-06 13:44:45,451660
-3,-1,-2,-10,-22,-15,-7,-4,2021-08-06 13:44:45,483664
1,3,7,18,23,17,7,4,2021-08-06 13:44:45,499662
2,-1,1,5,8,5,4,1,2021-08-06 13:44:45,499662
-2,-2,-3,-2,-1,-2,-1,-1,2021-08-06 13:44:45,499662
-3,-4,-2,-1,-9,-6,-5,-3,2021-08-06 13:44:45,499662
-8,-6,-12,-19,-23,-14,-7,-6,2021-08-06 13:44:45,499662
6,6,9,15,22,12,6,3,2021-08-06 13:44:45,499662
0,1,1,3,5,2,1,0,2021-08-06 13:44:45,499662
-1,-2,-3,-2,-2,-1,-1,-4,2021-08-06 13:44:45,515662
0,-2,-1,1,-3,-3,-3,-4,2021-08-06 13:44:45,531696
-1,-2,-3,-5,-5,-1,0,0,2021-08-06 13:44:45,531696
2,-2,-3,-5,0,0,3,0,2021-08-06 13:44:45,531696
-3,-5,-8,-4,-6,-4,-1,-2,2021-08-06 13:44:45,531696
4,6,8,12,15,11,7,5,2021-08-06 13:44:45,531696
-3,-2,-2,-5,-6,-4,-5,-3,2021-08-06 13:44:45,531696
-1,-2,0,4,2,-2,-2,-2,2021-08-06 13:44:45,531696
-4,0,0,3,-2,-2,-3,-3,2021-08-06 13:44:45,547662
1,1,0,-3,-7,-4,-1,0,2021-08-06 13:44:45,547662
0,-1,-2,-1,5,1,-1,-1,2021-08-06 13:44:45,547662
0,-2,-3,-3,-9,-4,-3,-2,2021-08-06 13:44:45,547662
4,4,5,14,28,17,8,6,2021-08-06 13:44:45,579663
-2,-3,-1,-4,-6,-3,-1,-2,2021-08-06 13:44:45,595708
-8,-7,-8,-18,-27,-20,-11,-5,2021-08-06 13:44:45,595708
-1,1,0,4,6,7,3,2,2021-08-06 13:44:45,595708
0,2,5,10,9,4,0,0,2021-08-06 13:44:45,595708
-1,0,-2,-1,1,1,0,-1,2021-08-06 13:44:45,595708
0,0,-2,-1,2,0,1,0,2021-08-06 13:44:45,595708
-4,-2,-2,-5,-7,-5,-3,-3,2021-08-06 13:44:45,595708
0,1,-3,-5,-1,-2,0,0,2021-08-06 13:44:45,611687
0,-1,-2,1,6,4,1,0,2021-08-06 13:44:45,627662
-1,-5,-4,-6,-11,-8,-3,-2,2021-08-06 13:44:45,627662
-2,-3,-2,-2,-1,-3,-4,-2,2021-08-06 13:44:45,627662
-1,0,1,0,0,4,2,1,2021-08-06 13:44:45,627662
1,2,1,5,6,2,1,-2,2021-08-06 13:44:45,627662
1,2,1,2,0,1,-1,0,2021-08-06 13:44:45,627662
-1,-1,-3,-5,2,2,1,1,2021-08-06 13:44:45,627662
-2,-3,-2,-4,-8,-6,-3,-1,2021-08-06 13:44:45,642695
-1,-1,-1,-6,-7,-5,-2,-1,2021-08-06 13:44:45,642695
0,1,0,5,7,6,3,0,2021-08-06 13:44:45,658662
1,1,2,6,5,1,1,-1,2021-08-06 13:44:45,674219
-5,-4,-2,-3,-8,-3,-4,-1,2021-08-06 13:44:45,689253
-4,-6,-6,-10,-11,-13,-5,-4,2021-08-06 13:44:45,705222
3,2,3,1,1,2,1,1,2021-08-06 13:44:45,705222
1,0,0,4,10,7,2,0,2021-08-06 13:44:45,705222
1,2,4,10,15,9,4,0,2021-08-06 13:44:45,705222
-1,0,1,3,3,3,1,0,2021-08-06 13:44:45,705222
-3,-3,-3,-6,-7,-4,-3,-3,2021-08-06 13:44:45,705222
-2,-2,-3,-8,-9,-7,-4,-2,2021-08-06 13:44:45,705222
1,0,3,1,1,0,-1,0,2021-08-06 13:44:45,706220
1,2,-1,4,2,0,0,-1,2021-08-06 13:44:45,706220
-3,-4,-6,-10,-11,-10,-6,-2,2021-08-06 13:44:45,706220
0,1,1,2,2,1,1,0,2021-08-06 13:44:45,706220
-1,0,0,-6,-7,-2,-2,-2,2021-08-06 13:44:45,737221
-1,-3,-4,-7,-4,-2,-2,-2,2021-08-06 13:44:45,737221
2,3,4,9,15,11,5,1,2021-08-06 13:44:45,737221
-1,-3,-3,-3,-5,-4,-3,-2,2021-08-06 13:44:45,737221
-2,-5,-5,-12,-26,-17,-9,-4,2021-08-06 13:44:45,753266
8,9,15,37,67,42,17,9,2021-08-06 13:44:45,753266
-2,1,-2,-4,-12,-7,-3,-2,2021-08-06 13:44:45,753266
2,3,8,22,38,20,7,4,2021-08-06 13:44:45,753266
-3,-3,-6,1,-2,-6,-3,-2,2021-08-06 13:44:45,769249
-1,-2,-13,-17,-26,-15,-6,-1,2021-08-06 13:44:45,769249
-6,-7,-6,-23,-39,-22,-10,-6,2021-08-06 13:44:45,769249
1,3,4,14,32,16,6,1,2021-08-06 13:44:45,769249
-1,-2,1,-4,-9,-5,-1,-3,2021-08-06 13:44:45,785222
-2,-2,1,-1,-9,-5,-3,-3,2021-08-06 13:44:45,785222
0,-1,-5,-1,3,2,0,1,2021-08-06 13:44:45,785222
-2,-4,-4,-17,-33,-17,-9,-3,2021-08-06 13:44:45,785222
3,0,1,5,11,7,2,1,2021-08-06 13:44:45,816269
-4,-3,-3,0,-7,-5,-4,-3,2021-08-06 13:44:45,832257
-1,0,1,-2,7,3,1,-1,2021-08-06 13:44:45,847219
-4,-4,-1,-5,-3,-2,-3,0,2021-08-06 13:44:45,847219
1,0,-7,-1,6,3,1,0,2021-08-06 13:44:45,847219
4,4,8,6,4,2,-1,1,2021-08-06 13:44:45,847219
-4,-2,1,7,4,-1,-2,-2,2021-08-06 13:44:45,847219
0,1,2,0,0,0,2,1,2021-08-06 13:44:45,847219
-4,-6,-7,-11,-16,-8,-3,-3,2021-08-06 13:44:45,847219
-6,-8,-9,-24,-37,-23,-8,-5,2021-08-06 13:44:45,848256
8,8,13,32,49,29,13,6,2021-08-06 13:44:45,848256
-1,-2,-2,-4,-15,-10,-5,-4,2021-08-06 13:44:45,848256
0,0,-1,-3,1,2,1,0,2021-08-06 13:44:45,878254
-1,-2,0,6,15,7,2,-2,2021-08-06 13:44:45,894266
-2,-5,-4,-8,-15,-7,-4,-2,2021-08-06 13:44:45,910219
-3,-4,-4,1,0,-2,0,-1,2021-08-06 13:44:45,910219
3,4,4,1,-2,-2,0,1,2021-08-06 13:44:45,910219
-3,-5,-9,-20,-30,-17,-8,-4,2021-08-06 13:44:45,910219
4,6,17,23,34,18,7,4,2021-08-06 13:44:45,910219
-1,-3,-17,-6,-8,-2,-2,-3,2021-08-06 13:44:45,910219
0,0,2,2,9,7,3,1,2021-08-06 13:44:45,910219
-1,-2,0,1,1,0,-1,-2,2021-08-06 13:44:45,910219
-7,-10,-14,-24,-29,-24,-11,-6,2021-08-06 13:44:45,911255
1,2,6,-4,-8,-3,-1,1,2021-08-06 13:44:45,911255
3,4,6,8,18,8,3,2,2021-08-06 13:44:45,926253
1,2,3,10,13,9,4,1,2021-08-06 13:44:45,926253
-3,-3,-4,-6,-8,-3,-2,-2,2021-08-06 13:44:45,926253
-7,-8,-8,-17,-30,-20,-9,-6,2021-08-06 13:44:45,926253
0,1,0,12,30,16,6,3,2021-08-06 13:44:45,942259
-2,-1,4,1,-4,-2,-3,-2,2021-08-06 13:44:45,958257
1,0,-3,3,-4,-1,0,-1,2021-08-06 13:44:45,958257
-1,0,2,-2,-2,1,-1,0,2021-08-06 13:44:45,958257
1,1,2,-2,3,0,1,1,2021-08-06 13:44:45,958257
-4,-3,-2,3,8,0,-2,0,2021-08-06 13:44:45,958257
0,-1,-2,-7,-4,0,0,0,2021-08-06 13:44:45,974253
-3,-4,-6,-14,-27,-16,-8,-3,2021-08-06 13:44:45,989219
1,5,7,6,2,5,3,1,2021-08-06 13:44:46,004221
1,0,1,8,17,9,1,1,2021-08-06 13:44:46,020219
-2,-5,-6,-9,-15,-10,-6,-3,2021-08-06 13:44:46,035223
4,4,7,19,25,14,5,3,2021-08-06 13:44:46,035223
-3,0,-2,-2,-14,-11,-6,-3,2021-08-06 13:44:46,035223
-2,-3,-6,-13,-13,-9,-2,-1,2021-08-06 13:44:46,035223
-3,-3,-6,-11,-13,-7,-4,-2,2021-08-06 13:44:46,051221
0,-1,-1,-3,1,2,0,-1,2021-08-06 13:44:46,066383
-3,-4,-2,0,-4,-3,-4,-1,2021-08-06 13:44:46,066383
2,4,4,7,8,7,3,1,2021-08-06 13:44:46,066383
1,0,0,1,13,4,3,0,2021-08-06 13:44:46,066383
-2,-2,-6,-10,-11,-5,-1,-1,2021-08-06 13:44:46,066383
-2,-3,-1,-2,-1,-1,-1,-1,2021-08-06 13:44:46,066383
0,1,2,0,0,-1,1,1,2021-08-06 13:44:46,066383
-2,-1,-2,-4,-10,-6,-3,-2,2021-08-06 13:44:46,067335
3,4,7,15,26,13,4,2,2021-08-06 13:44:46,067335
-4,-4,-5,-6,-9,-6,-4,-3,2021-08-06 13:44:46,067335
-5,-7,-11,-16,-16,-7,-7,-3,2021-08-06 13:44:46,067335
3,6,6,7,4,4,3,3,2021-08-06 13:44:46,067335
0,2,4,8,5,2,0,0,2021-08-06 13:44:46,067335
-1,-2,-4,-7,-8,-5,-2,-4,2021-08-06 13:44:46,096370
-1,-1,-1,-4,-3,-1,0,-2,2021-08-06 13:44:46,096370
-4,-6,-6,-4,-6,-4,-4,-3,2021-08-06 13:44:46,096370
-3,-3,-2,-4,-4,-1,-1,-2,2021-08-06 13:44:46,096370
1,0,-1,-3,-5,-4,-1,0,2021-08-06 13:44:46,112378
1,1,0,2,1,2,1,1,2021-08-06 13:44:46,112378
-1,0,1,3,2,2,0,-1,2021-08-06 13:44:46,112378
-1,-1,1,-7,-9,-6,-3,-2,2021-08-06 13:44:46,112378
-2,1,1,3,5,2,0,-2,2021-08-06 13:44:46,127334
0,-2,1,3,-1,0,1,0,2021-08-06 13:44:46,127334
-1,-1,-1,3,7,2,0,1,2021-08-06 13:44:46,128370
-4,-5,-4,-9,-14,-11,-4,-3,2021-08-06 13:44:46,128370
-2,-4,-4,-8,-10,-3,-3,-2,2021-08-06 13:44:46,144382
6,8,12,21,29,18,9,7,2021-08-06 13:44:46,144382
-1,-2,0,0,-1,-2,1,-2,2021-08-06 13:44:46,144382
2,1,-1,-2,-3,-1,1,0,2021-08-06 13:44:46,144382
-3,-5,-4,-2,-9,-8,-7,-3,2021-08-06 13:44:46,176369
1,2,2,0,2,2,0,-2,2021-08-06 13:44:46,176369
1,0,-1,0,5,1,0,0,2021-08-06 13:44:46,176369
-1,-1,-1,-2,-6,-3,-4,-1,2021-08-06 13:44:46,176369
-1,-2,-2,-10,-10,-6,-1,-1,2021-08-06 13:44:46,192382
0,1,0,0,2,0,-1,1,2021-08-06 13:44:46,208334
-1,-2,-1,2,4,1,0,-2,2021-08-06 13:44:46,208334
-1,-2,-4,-2,0,0,0,-1,2021-08-06 13:44:46,208334
1,0,-2,-1,-4,-4,0,1,2021-08-06 13:44:46,208334
-3,-5,-6,-15,-19,-11,-5,-3,2021-08-06 13:44:46,208334
-1,2,1,6,12,6,2,0,2021-08-06 13:44:46,208334
3,2,3,10,15,10,6,4,2021-08-06 13:44:46,208334
-2,-1,1,4,5,1,0,-2,2021-08-06 13:44:46,239368
-7,-5,-9,-20,-37,-20,-12,-7,2021-08-06 13:44:46,255380
3,4,6,11,16,9,5,2,2021-08-06 13:44:46,271368
0,0,-1,-1,-1,1,-1,-2,2021-08-06 13:44:46,271368
-1,-2,-1,-1,-2,-2,-1,1,2021-08-06 13:44:46,271368
0,-1,-4,-5,-8,-3,0,0,2021-08-06 13:44:46,271368
0,-2,-3,-5,-6,-3,-3,-2,2021-08-06 13:44:46,271368
-1,0,1,2,8,4,2,1,2021-08-06 13:44:46,271368
2,0,-2,2,3,3,0,1,2021-08-06 13:44:46,271368
-2,-3,-3,-3,2,-2,-3,-1,2021-08-06 13:44:46,272370
1,-1,0,-5,-5,-3,-3,-1,2021-08-06 13:44:46,272370
0,1,-2,-4,-10,-4,-1,0,2021-08-06 13:44:46,272370
-1,-1,0,0,3,1,0,-1,2021-08-06 13:44:46,287694
-2,-1,-1,4,12,5,2,0,2021-08-06 13:44:46,303335
-1,-1,-3,-3,-5,-3,-2,-3,2021-08-06 13:44:46,303335
-3,-4,-5,-9,-14,-11,-5,-2,2021-08-06 13:44:46,303335
0,1,-2,-9,-15,-6,-2,0,2021-08-06 13:44:46,303335
6,8,15,35,57,33,14,7,2021-08-06 13:44:46,303335
-3,-2,-3,-2,-6,-5,-3,-1,2021-08-06 13:44:46,319380
-1,-3,-1,-3,-1,-1,-1,-1,2021-08-06 13:44:46,319380
-1,-2,-4,-6,-8,-8,-4,-2,2021-08-06 13:44:46,319380
-2,-1,-2,-11,-23,-13,-5,-2,2021-08-06 13:44:46,319380
-2,-3,-4,-9,-15,-6,-2,-1,2021-08-06 13:44:46,335334
2,3,4,10,17,9,5,3,2021-08-06 13:44:46,351368
-4,-3,-3,-5,-4,0,-1,-1,2021-08-06 13:44:46,351368
-2,-4,-1,4,1,-1,-4,-4,2021-08-06 13:44:46,351368
-2,-2,-3,-7,-14,-8,-4,-1,2021-08-06 13:44:46,351368
-5,-6,-7,-16,-23,-12,-7,-6,2021-08-06 13:44:46,351368
5,6,10,25,41,24,11,5,2021-08-06 13:44:46,383334
0,1,0,-3,-7,-3,-1,0,2021-08-06 13:44:46,383334
0,-1,-2,-2,-5,1,-2,1,2021-08-06 13:44:46,399369
0,-2,-3,-5,-6,-5,-2,-2,2021-08-06 13:44:46,415349
-1,-1,1,3,5,2,-1,-1,2021-08-06 13:44:46,431382
-1,-3,-5,-3,-12,-8,-3,-3,2021-08-06 13:44:46,447335
0,1,1,-3,-4,-3,-1,0,2021-08-06 13:44:46,462334
3,5,8,20,38,20,8,5,2021-08-06 13:44:46,462334
-1,-3,-4,-9,-12,-8,-3,-1,2021-08-06 13:44:46,462334
-2,-3,-3,-6,-9,-6,-4,-2,2021-08-06 13:44:46,462334
-1,-2,-2,-4,2,-2,0,-2,2021-08-06 13:44:46,462334
-3,-4,-2,-3,-11,-6,-5,-3,2021-08-06 13:44:46,462334
-4,-3,-6,-10,-4,-6,-4,-2,2021-08-06 13:44:46,462334
-1,-2,1,6,5,4,2,2,2021-08-06 13:44:46,462334
1,-1,0,2,9,8,3,0,2021-08-06 13:44:46,462334
0,1,2,3,3,3,0,0,2021-08-06 13:44:46,462334
0,2,1,11,15,8,4,1,2021-08-06 13:44:46,463336
-4,-5,-9,-22,-33,-19,-8,-6,2021-08-06 13:44:46,463336
1,0,0,5,7,2,0,-1,2021-08-06 13:44:46,477381
-2,-1,0,-2,-7,-6,-2,-3,2021-08-06 13:44:46,477381
-2,-4,-4,-8,-14,-5,-3,-3,2021-08-06 13:44:46,477381
2,2,3,10,22,8,6,3,2021-08-06 13:44:46,477381
-1,-1,0,3,6,6,1,1,2021-08-06 13:44:46,477381
-2,-1,-2,-1,0,-4,-3,-1,2021-08-06 13:44:46,477381
0,-3,-2,0,2,3,2,-1,2021-08-06 13:44:46,493381
1,2,5,12,16,12,3,1,2021-08-06 13:44:46,506335
1,1,1,3,0,-1,-1,0,2021-08-06 13:44:46,506335
-4,-3,-6,-9,-15,-8,-3,-4,2021-08-06 13:44:46,506335
-3,-2,-5,-7,-10,-4,-4,-3,2021-08-06 13:44:46,507371
-3,-2,-2,1,4,1,-2,0,2021-08-06 13:44:46,507371
-3,-2,-2,0,-5,-2,-1,0,2021-08-06 13:44:46,507371
-1,-3,-3,-7,-12,-6,-3,-2,2021-08-06 13:44:46,507371
1,1,2,3,5,1,0,2,2021-08-06 13:44:46,540334
1,2,2,4,8,3,2,2,2021-08-06 13:44:46,555381
-4,-4,-5,-12,-22,-11,-5,-3,2021-08-06 13:44:46,571350
2,1,4,11,23,10,5,1,2021-08-06 13:44:46,571350
-3,-4,-4,-6,-7,-5,-2,-4,2021-08-06 13:44:46,571350
1,-2,0,-6,-11,-7,-3,0,2021-08-06 13:44:46,571350
0,1,4,5,7,6,4,2,2021-08-06 13:44:46,571350
-1,-1,-1,0,1,1,-1,0,2021-08-06 13:44:46,571350
0,1,1,3,2,2,2,-1,2021-08-06 13:44:46,572337
-2,-4,-8,-13,-13,-9,-5,-2,2021-08-06 13:44:46,572337
0,0,1,5,8,3,0,0,2021-08-06 13:44:46,572337
-1,-1,0,-1,-3,-1,-1,-1,2021-08-06 13:44:46,572337
-2,-2,0,0,-1,-2,-2,-2,2021-08-06 13:44:46,586368
1,3,1,-1,-2,0,2,0,2021-08-06 13:44:46,586368
0,-2,-2,-6,-8,-6,-4,-2,2021-08-06 13:44:46,602364
1,0,2,9,17,10,3,2,2021-08-06 13:44:46,602364
-2,-2,-3,-7,-14,-10,-4,-2,2021-08-06 13:44:46,618381
0,-4,0,-1,0,-1,0,-2,2021-08-06 13:44:46,634369
0,-1,-1,-2,0,-1,-1,0,2021-08-06 13:44:46,634369
-3,-1,-2,-3,-6,-4,-2,-1,2021-08-06 13:44:46,634369
1,0,0,4,3,1,-1,-1,2021-08-06 13:44:46,634369
-2,0,-4,-12,-14,-7,-4,-2,2021-08-06 13:44:46,634369
0,2,4,14,22,8,3,1,2021-08-06 13:44:46,634369
1,-1,-1,0,1,1,3,-1,2021-08-06 13:44:46,634369
-2,-2,-1,-3,-7,-4,-2,-2,2021-08-06 13:44:46,650368
2,2,3,6,11,9,4,2,2021-08-06 13:44:46,650368
-2,-2,-2,-2,2,3,-1,-2,2021-08-06 13:44:46,650368
-1,0,-1,-5,-9,-5,-3,-1,2021-08-06 13:44:46,650368
-2,-1,0,2,0,-3,-2,-1,2021-08-06 13:44:46,682381
-5,-7,-8,-15,-18,-10,-6,-3,2021-08-06 13:44:46,698334
2,5,9,22,37,18,6,4,2021-08-06 13:44:46,698334
1,0,-2,-2,-1,0,-1,0,2021-08-06 13:44:46,698334
1,-1,1,-4,-6,-2,-2,1,2021-08-06 13:44:46,698334
-4,-3,-3,-5,-9,-5,-5,-2,2021-08-06 13:44:46,698334
-2,-2,-4,-9,-13,-8,-2,-1,2021-08-06 13:44:46,698334
-1,-1,-3,-6,-11,-5,-3,-2,2021-08-06 13:44:46,698334
0,2,0,3,5,6,2,1,2021-08-06 13:44:46,714334
-1,-1,0,7,15,6,2,0,2021-08-06 13:44:46,714334
0,0,-4,-7,-9,-5,-1,0,2021-08-06 13:44:46,714334
0,1,1,0,1,1,0,0,2021-08-06 13:44:46,714334
-1,-2,-3,-11,-13,-7,-4,-3,2021-08-06 13:44:46,730368
0,1,1,-3,-4,-4,-1,-1,2021-08-06 13:44:46,746338
0,-3,-1,-1,-8,1,1,0,2021-08-06 13:44:46,746338
0,-1,0,3,4,-2,0,-1,2021-08-06 13:44:46,746338
-2,-1,1,5,8,4,2,-1,2021-08-06 13:44:46,746338
-1,-3,-1,-2,-3,-2,-2,-3,2021-08-06 13:44:46,746338
-5,-7,-7,-14,-18,-14,-6,-5,2021-08-06 13:44:46,746338
1,1,2,4,12,7,2,1,2021-08-06 13:44:46,746338
2,3,3,4,5,1,3,2,2021-08-06 13:44:46,778382
-2,0,1,0,-9,-4,-1,-1,2021-08-06 13:44:46,778382
-1,0,-2,0,4,0,-1,-2,2021-08-06 13:44:46,778382
0,0,1,2,4,2,0,0,2021-08-06 13:44:46,778382
-1,-1,-2,2,7,2,0,-2,2021-08-06 13:44:46,794382
0,2,1,6,11,7,3,0,2021-08-06 13:44:46,810369
-2,-3,-4,-11,-12,-7,-4,-3,2021-08-06 13:44:46,810369
-2,-2,-2,-2,2,2,0,1,2021-08-06 13:44:46,810369
-1,-2,-1,-7,-14,-8,-4,-2,2021-08-06 13:44:46,810369
1,0,-2,2,9,4,2,1,2021-08-06 13:44:46,810369
-1,-2,-2,-7,-9,-5,-2,-4,2021-08-06 13:44:46,810369
4,1,2,5,6,2,0,0,2021-08-06 13:44:46,810369
0,1,-1,-1,-4,-2,-2,0,2021-08-06 13:44:46,826382
-2,-4,1,6,0,-3,-3,-3,2021-08-06 13:44:46,826382
3,3,2,8,10,7,2,2,2021-08-06 13:44:46,826382
-4,-7,-10,-14,-13,-8,-3,-3,2021-08-06 13:44:46,826382
1,2,11,16,3,2,-2,1,2021-08-06 13:44:46,858333
0,0,0,-3,5,1,1,0,2021-08-06 13:44:46,874381
-9,-8,-18,-43,-37,-24,-10,-7,2021-08-06 13:44:46,881381
-2,-1,0,-8,-15,-8,-3,-1,2021-08-06 13:44:46,881381
0,-2,-9,-3,9,7,3,-1,2021-08-06 13:44:46,881381
-1,0,6,9,1,1,-2,-3,2021-08-06 13:44:46,881381
3,3,11,23,18,10,2,2,2021-08-06 13:44:46,881381
-2,-2,-2,0,1,2,0,-2,2021-08-06 13:44:46,882375
-3,-2,1,7,8,1,1,-2,2021-08-06 13:44:46,882375
2,0,-2,-1,-4,-2,-2,0,2021-08-06 13:44:46,882375
2,2,2,3,5,4,3,2,2021-08-06 13:44:46,882375
-4,-5,-7,-9,-17,-12,-6,-4,2021-08-06 13:44:46,882375
2,0,0,2,5,2,0,0,2021-08-06 13:44:46,920382
-3,-5,-7,-12,-12,-9,-6,-2,2021-08-06 13:44:46,936368
-1,-1,-4,-2,-4,0,1,1,2021-08-06 13:44:46,936368
2,2,5,14,17,9,4,0,2021-08-06 13:44:46,936368
-2,-3,-3,-9,-8,-6,-4,-4,2021-08-06 13:44:46,936368
2,4,5,7,17,12,5,4,2021-08-06 13:44:46,936368
-3,-4,-4,-5,-13,-8,-4,-4,2021-08-06 13:44:46,936368
-2,2,3,-2,-5,-3,-2,-1,2021-08-06 13:44:46,936368
-1,-1,-8,-11,-8,-5,-1,1,2021-08-06 13:44:46,968334
0,0,-5,-5,-12,-6,-1,-1,2021-08-06 13:44:46,968334
1,2,2,4,6,3,0,1,2021-08-06 13:44:46,968334
0,-1,1,3,5,3,0,-2,2021-08-06 13:44:46,968334
-2,-3,-2,-5,-5,-2,-1,0,2021-08-06 13:44:46,968334
-2,-2,-2,0,-3,1,1,1,2021-08-06 13:44:46,968334
1,-1,0,2,5,2,1,0,2021-08-06 13:44:46,968334
-2,-4,-3,-8,-3,0,-2,-2,2021-08-06 13:44:46,968334
-4,-4,0,-3,-6,-3,-4,-3,2021-08-06 13:44:47,014371
-1,0,2,4,8,3,-1,-1,2021-08-06 13:44:47,030369
1,1,1,6,2,0,-1,0,2021-08-06 13:44:47,046335
2,1,2,3,3,2,1,-1,2021-08-06 13:44:47,046335
0,0,-2,-2,-3,0,0,0,2021-08-06 13:44:47,046335
-2,-5,-7,-11,-17,-11,-5,-3,2021-08-06 13:44:47,046335
1,0,0,3,4,2,2,-1,2021-08-06 13:44:47,046335
0,1,-2,-3,-4,-2,-2,0,2021-08-06 13:44:47,046335
-1,2,5,10,9,5,3,1,2021-08-06 13:44:47,046335
-1,-3,-2,-3,0,0,-1,-1,2021-08-06 13:44:47,046335
-1,-1,2,0,-1,-2,-2,-3,2021-08-06 13:44:47,047336
-1,1,0,4,3,2,1,0,2021-08-06 13:44:47,047336
-1,-3,-5,-8,-7,-5,-4,-3,2021-08-06 13:44:47,047336
-1,-2,-1,-1,2,0,1,0,2021-08-06 13:44:47,047336
-1,-1,-1,0,1,0,-2,-1,2021-08-06 13:44:47,047336
1,0,0,4,4,3,1,0,2021-08-06 13:44:47,047336
-1,-1,0,3,0,-1,-2,-1,2021-08-06 13:44:47,078382
-1,-1,-1,-1,-3,-3,0,-1,2021-08-06 13:44:47,078382
-2,0,-1,2,3,3,0,-2,2021-08-06 13:44:47,078382
-1,-1,-2,-2,-2,-3,0,-2,2021-08-06 13:44:47,078382
-2,-1,-3,-3,-2,-1,-1,1,2021-08-06 13:44:47,094381
0,1,-2,-2,-3,-1,-1,-1,2021-08-06 13:44:47,110370
0,-2,0,2,1,0,-1,-1,2021-08-06 13:44:47,126371
-2,-3,-1,-3,-5,-5,-4,-1,2021-08-06 13:44:47,126371
-1,-3,-2,-4,-1,-2,-2,-1,2021-08-06 13:44:47,126371
1,1,2,3,3,4,2,-1,2021-08-06 13:44:47,126371
-2,-2,-3,-2,-5,-6,-2,0,2021-08-06 13:44:47,126371
0,0,-3,-2,-1,-1,0,0,2021-08-06 13:44:47,142380
1,0,1,6,11,7,2,1,2021-08-06 13:44:47,142380
0,2,4,7,8,5,0,1,2021-08-06 13:44:47,142380
-1,0,-3,-5,-6,-3,-2,0,2021-08-06 13:44:47,142380
-2,-4,-4,-9,-11,-6,-3,-3,2021-08-06 13:44:47,142380
1,2,4,6,6,3,2,1,2021-08-06 13:44:47,158333
-2,-2,-2,-2,-4,-3,-1,-2,2021-08-06 13:44:47,174372
-1,-2,-2,-2,-5,-4,-3,0,2021-08-06 13:44:47,222334
1,2,2,6,6,4,2,1,2021-08-06 13:44:47,222334
-2,-1,-4,-5,-7,-5,-2,-1,2021-08-06 13:44:47,222334
0,-1,-1,-2,0,-1,-2,-1,2021-08-06 13:44:47,222334
-2,1,1,1,-1,-2,-1,1,2021-08-06 13:44:47,222334
-2,-2,-1,-4,-4,-2,-3,-1,2021-08-06 13:44:47,222334
0,-2,-2,-2,-1,-1,-3,-1,2021-08-06 13:44:47,223346
-3,-4,-2,0,1,-1,-1,-1,2021-08-06 13:44:47,223346
0,-1,1,-2,-2,-1,1,-1,2021-08-06 13:44:47,223346
0,1,2,1,-3,-1,-1,-1,2021-08-06 13:44:47,223346
-1,-2,0,2,0,-1,-1,-2,2021-08-06 13:44:47,223346
-1,0,-2,-8,-7,-1,-1,1,2021-08-06 13:44:47,223346
0,-3,-2,1,6,3,-1,-3,2021-08-06 13:44:47,223346
-1,-2,-2,0,4,2,1,1,2021-08-06 13:44:47,223346
1,1,0,2,-1,2,1,1,2021-08-06 13:44:47,238371
-1,-4,-4,-7,-11,-8,-5,-3,2021-08-06 13:44:47,254334
-1,2,2,8,10,5,2,2,2021-08-06 13:44:47,254334
0,0,1,-2,-2,0,0,-1,2021-08-06 13:44:47,254334
-2,0,-3,-4,-7,-3,-2,-2,2021-08-06 13:44:47,254334
-1,-1,-1,-1,0,1,0,-1,2021-08-06 13:44:47,254334
-2,-2,-6,-6,-6,-3,0,-1,2021-08-06 13:44:47,254334
-2,-3,-2,-1,-5,-5,-4,-3,2021-08-06 13:44:47,254334
1,0,0,-1,2,0,1,1,2021-08-06 13:44:47,270370
0,0,0,4,7,4,2,0,2021-08-06 13:44:47,286369
-1,0,-1,-3,-5,-4,-4,-1,2021-08-06 13:44:47,302371
0,0,0,3,5,3,0,0,2021-08-06 13:44:47,302371
-2,-3,-6,-11,-13,-8,-4,-3,2021-08-06 13:44:47,302371
-1,1,4,12,15,8,2,0,2021-08-06 13:44:47,302371
0,-2,-2,-5,-6,-3,-2,-2,2021-08-06 13:44:47,302371
-1,-2,0,-6,-6,-2,-3,-1,2021-08-06 13:44:47,302371
1,0,1,3,0,-3,0,-2,2021-08-06 13:44:47,303368
1,2,-1,0,4,2,1,-1,2021-08-06 13:44:47,303368
0,1,1,2,1,0,0,-1,2021-08-06 13:44:47,318333
-2,-2,-3,-4,-4,-5,-4,-1,2021-08-06 13:44:47,334337
-2,0,1,1,2,2,0,-1,2021-08-06 13:44:47,334337
-2,-2,-2,-6,-7,-7,-4,-2,2021-08-06 13:44:47,334337
-1,-1,1,-4,-2,0,-1,0,2021-08-06 13:44:47,334337
-2,-3,-2,2,3,1,-1,0,2021-08-06 13:44:47,334337
-3,-3,-3,-3,-5,-2,-2,-1,2021-08-06 13:44:47,366334
0,-2,-3,-11,-11,-6,-2,0,2021-08-06 13:44:47,366334
3,2,0,8,13,7,3,1,2021-08-06 13:44:47,366334
1,1,0,1,1,-1,-1,-1,2021-08-06 13:44:47,366334
1,0,3,5,8,4,2,0,2021-08-06 13:44:47,366334
-2,-1,-1,-1,-2,-3,-2,-1,2021-08-06 13:44:47,366334
-2,-3,-3,-7,-10,-8,-5,-4,2021-08-06 13:44:47,398383
-2,-1,0,0,4,1,-2,-1,2021-08-06 13:44:47,414370
-2,-1,-1,-1,-4,-1,-2,0,2021-08-06 13:44:47,430335
3,3,3,4,5,3,2,3,2021-08-06 13:44:47,446338
0,-1,0,1,-1,1,3,0,2021-08-06 13:44:47,446338
1,-1,-1,-6,-11,-6,-1,-1,2021-08-06 13:44:47,446338
-1,1,0,6,16,6,-1,0,2021-08-06 13:44:47,446338
-1,-2,-2,-3,-4,-4,-3,-2,2021-08-06 13:44:47,446338
-4,-2,-3,-3,-4,-3,-6,-4,2021-08-06 13:44:47,446338
-2,0,-2,-2,-5,-4,0,-3,2021-08-06 13:44:47,446338
0,-1,-2,-6,-7,1,6,2,2021-08-06 13:44:47,447368
1,0,1,6,7,6,1,3,2021-08-06 13:44:47,447368
-4,-2,-1,0,1,-8,-11,-6,2021-08-06 13:44:47,447368
-2,-2,-2,-5,-5,-3,-3,-2,2021-08-06 13:44:47,447368
-2,-2,0,-4,-8,-6,-3,-3,2021-08-06 13:44:47,447368
0,1,-1,3,4,5,7,2,2021-08-06 13:44:47,447368
1,0,1,-1,-2,2,2,2,2021-08-06 13:44:47,447368
2,2,-1,-2,1,2,1,2,2021-08-06 13:44:47,447368
-1,-2,0,1,-6,-4,-2,0,2021-08-06 13:44:47,477383
-1,-2,-1,-5,2,-1,-2,-2,2021-08-06 13:44:47,477383
1,-1,-1,3,5,4,3,-1,2021-08-06 13:44:47,477383
0,-1,0,3,4,0,-3,-2,2021-08-06 13:44:47,477383
1,0,0,1,1,-1,-2,-1,2021-08-06 13:44:47,493373
-5,-3,-5,-12,-20,-12,-8,-3,2021-08-06 13:44:47,508333
-1,0,-1,-3,3,3,3,2,2021-08-06 13:44:47,523369
-1,0,-1,6,9,5,3,1,2021-08-06 13:44:47,523369
0,0,-1,-1,-6,-4,-3,-2,2021-08-06 13:44:47,523369
-3,-2,-4,-5,-14,-9,-7,-3,2021-08-06 13:44:47,523369
2,1,0,2,12,7,4,2,2021-08-06 13:44:47,523369
0,-2,0,-4,-7,-3,0,0,2021-08-06 13:44:47,523369
-2,-2,-2,-2,0,-1,1,-3,2021-08-06 13:44:47,539334
-2,-4,-3,-6,-11,-7,-6,-4,2021-08-06 13:44:47,555368
3,3,6,13,16,8,4,3,2021-08-06 13:44:47,571345
-3,-1,-1,-1,-3,-2,-1,-2,2021-08-06 13:44:47,571345
0,1,0,3,6,3,-1,0,2021-08-06 13:44:47,571345
1,1,0,1,1,0,0,1,2021-08-06 13:44:47,571345
-2,-3,-5,-10,-17,-9,-6,-2,2021-08-06 13:44:47,571345
1,2,3,8,11,8,3,2,2021-08-06 13:44:47,571345
-2,-6,-7,-12,-13,-9,-7,-3,2021-08-06 13:44:47,586371
1,1,2,7,11,6,2,1,2021-08-06 13:44:47,586371
0,0,-1,2,-1,1,-1,-1,2021-08-06 13:44:47,586371
-3,-2,-5,-7,-9,-5,-5,-3,2021-08-06 13:44:47,586371
0,1,-1,-1,-2,0,0,-1,2021-08-06 13:44:47,586371
-4,-5,-6,-12,-14,-11,-5,-5,2021-08-06 13:44:47,586371
3,2,4,11,9,7,4,2,2021-08-06 13:44:47,586371
1,1,2,5,5,3,1,0,2021-08-06 13:44:47,587375
-1,-2,-2,-3,-1,0,-2,0,2021-08-06 13:44:47,616334
-2,0,-1,1,1,-2,-1,-2,2021-08-06 13:44:47,616334
-4,-4,-6,-13,-16,-11,-4,-3,2021-08-06 13:44:47,616334
-2,-2,-3,-2,-4,-3,-2,-2,2021-08-06 13:44:47,616334
-1,0,1,3,0,1,1,0,2021-08-06 13:44:47,627368
0,0,0,2,6,2,1,-1,2021-08-06 13:44:47,628369
-1,-3,-4,-2,-3,-1,-1,-1,2021-08-06 13:44:47,628369
-1,0,4,12,17,10,3,3,2021-08-06 13:44:47,628369
-3,-1,-2,-9,-13,-8,-4,-3,2021-08-06 13:44:47,647381
-1,-2,-1,-6,-11,-3,-2,-1,2021-08-06 13:44:47,647381
0,2,4,9,15,3,-1,-1,2021-08-06 13:44:47,647381
4,1,0,1,3,0,0,1,2021-08-06 13:44:47,647381
-1,1,0,4,7,3,0,-1,2021-08-06 13:44:47,679375
-1,-4,-4,-5,-6,-3,-2,0,2021-08-06 13:44:47,679375
-1,-4,-4,-7,-9,-6,-4,-3,2021-08-06 13:44:47,679375
-1,-1,-2,-7,-9,-4,-3,-2,2021-08-06 13:44:47,679375
3,3,3,3,5,3,1,2,2021-08-06 13:44:47,695381
2,2,2,6,8,5,1,-1,2021-08-06 13:44:47,695381
-4,-2,-2,-5,-9,-6,-2,-3,2021-08-06 13:44:47,695381
-3,-3,-4,-4,-7,-4,-3,-2,2021-08-06 13:44:47,695381
-1,-3,-3,-3,-2,2,-1,1,2021-08-06 13:44:47,711333
-1,1,2,7,12,3,2,1,2021-08-06 13:44:47,711333
-2,0,0,-4,-3,0,1,0,2021-08-06 13:44:47,711333
-1,0,1,3,-3,-2,-1,1,2021-08-06 13:44:47,711333
-1,-1,-2,0,1,0,-2,-1,2021-08-06 13:44:47,742381
0,2,0,3,3,0,0,-1,2021-08-06 13:44:47,758333
0,0,1,5,7,3,1,-1,2021-08-06 13:44:47,758333
-3,-5,-4,-10,-13,-9,-6,-3,2021-08-06 13:44:47,758333
0,1,1,-2,0,0,1,1,2021-08-06 13:44:47,758333
0,-2,-1,1,3,3,1,2,2021-08-06 13:44:47,758333
-1,-2,-6,-10,-16,-8,-3,-2,2021-08-06 13:44:47,758333
0,-3,-3,-2,3,1,0,-2,2021-08-06 13:44:47,758333
0,-2,-1,1,-1,1,0,-2,2021-08-06 13:44:47,774368
-1,0,-1,-2,-1,0,1,-2,2021-08-06 13:44:47,789334
-2,-2,1,2,0,-1,-4,-1,2021-08-06 13:44:47,804335
-3,-2,-2,-7,-8,-4,-3,-3,2021-08-06 13:44:47,820382
-1,1,3,10,13,4,0,-1,2021-08-06 13:44:47,836368
0,-1,-2,-1,-1,1,0,0,2021-08-06 13:44:47,836368
2,3,2,0,1,1,2,2,2021-08-06 13:44:47,836368
-2,-3,-5,-9,-10,-9,-2,-2,2021-08-06 13:44:47,836368
1,0,0,0,6,2,2,0,2021-08-06 13:44:47,836368
1,1,2,6,1,1,1,0,2021-08-06 13:44:47,836368
-1,-2,-2,-1,0,-1,-2,-1,2021-08-06 13:44:47,836368
1,3,2,0,1,1,1,0,2021-08-06 13:44:47,837338
-2,-4,-4,-10,-13,-7,-3,-3,2021-08-06 13:44:47,837338
0,1,1,5,10,3,2,1,2021-08-06 13:44:47,837338
-1,-2,-2,-5,-10,-5,-5,-3,2021-08-06 13:44:47,837338
-2,1,2,7,12,7,2,0,2021-08-06 13:44:47,837338
-1,-2,-4,-2,-2,-1,0,0,2021-08-06 13:44:47,868331
-3,-2,-3,-6,-8,-6,-5,-3,2021-08-06 13:44:47,884368
-1,-4,-3,-3,-2,-2,-2,-1,2021-08-06 13:44:47,884368
1,0,2,3,2,1,-1,0,2021-08-06 13:44:47,884368
0,1,2,3,3,3,-1,0,2021-08-06 13:44:47,884368
0,0,-1,-2,0,2,0,0,2021-08-06 13:44:47,884368
-3,-2,-3,-5,-8,-7,-4,-3,2021-08-06 13:44:47,884368
0,-1,-2,-1,-2,1,1,1,2021-08-06 13:44:47,884368
-1,0,2,1,2,0,0,-1,2021-08-06 13:44:47,900368
-1,0,0,-3,-3,-2,0,1,2021-08-06 13:44:47,900368
-1,1,0,1,2,3,0,1,2021-08-06 13:44:47,900368
-2,-2,0,-1,-1,-1,0,0,2021-08-06 13:44:47,900368
1,0,-2,-1,1,0,2,-1,2021-08-06 13:44:47,916335
0,-2,-1,0,-2,-1,-3,-2,2021-08-06 13:44:47,932368
-1,-1,-3,-1,-2,-1,-1,-1,2021-08-06 13:44:47,932368
2,4,3,2,1,2,0,-1,2021-08-06 13:44:47,932368
0,-2,0,-2,1,0,-3,-1,2021-08-06 13:44:47,932368
0,-2,-1,-3,-5,-3,-4,-2,2021-08-06 13:44:47,932368
0,0,1,1,0,0,0,0,2021-08-06 13:44:47,932368
0,-1,-2,0,1,0,0,-1,2021-08-06 13:44:47,932368
-3,-2,-2,-4,-5,-4,-3,-2,2021-08-06 13:44:47,964335
-2,-2,-4,-4,-4,0,0,-2,2021-08-06 13:44:47,980335
3,4,4,7,11,6,3,2,2021-08-06 13:44:48,001375
0,1,1,-1,-3,-1,0,1,2021-08-06 13:44:48,002370
0,-1,-3,-3,-3,-2,0,-1,2021-08-06 13:44:48,002370
-3,-4,-1,-1,-3,-3,-2,-1,2021-08-06 13:44:48,002370
-2,-2,-3,-4,-5,-3,-1,-2,2021-08-06 13:44:48,002370
-1,-3,-1,-6,-7,-4,-2,-1,2021-08-06 13:44:48,002370
-1,-2,-2,0,0,-3,-2,-2,2021-08-06 13:44:48,002370
-1,0,0,-4,0,0,1,0,2021-08-06 13:44:48,002370
-1,0,1,3,6,4,1,-1,2021-08-06 13:44:48,002370
-2,-1,1,2,4,2,0,0,2021-08-06 13:44:48,002370
-2,-1,-1,-1,-6,-3,-1,-1,2021-08-06 13:44:48,012369
-2,-3,-2,-3,-7,-5,-2,0,2021-08-06 13:44:48,012369
-2,-1,-2,-12,-12,-7,-2,-2,2021-08-06 13:44:48,012369
2,2,1,6,13,8,4,2,2021-08-06 13:44:48,012369
-2,-3,-4,-3,-2,-1,0,-2,2021-08-06 13:44:48,058333
-2,-2,0,0,0,-1,-2,-2,2021-08-06 13:44:48,058333
-1,-4,-3,-5,-4,-2,-2,0,2021-08-06 13:44:48,058333
-2,0,-3,-2,-4,-4,-1,-3,2021-08-06 13:44:48,058333
0,-1,-1,1,3,1,-2,-2,2021-08-06 13:44:48,058333
-2,-2,-1,-5,-6,-4,-4,-2,2021-08-06 13:44:48,058333
1,2,2,5,1,2,3,1,2021-08-06 13:44:48,058333
-2,0,1,2,7,3,-1,0,2021-08-06 13:44:48,058333
-1,0,2,4,5,4,0,0,2021-08-06 13:44:48,074368
-3,-3,-3,-2,-4,-3,-2,-2,2021-08-06 13:44:48,090334
-2,-4,-3,-1,-3,-3,-1,-2,2021-08-06 13:44:48,105334
0,-2,-3,-7,-11,-8,-3,-1,2021-08-06 13:44:48,105334
-2,-2,0,2,5,0,-1,-2,2021-08-06 13:44:48,105334
4,4,5,8,12,8,5,3,2021-08-06 13:44:48,105334
0,0,-1,-2,1,0,0,1,2021-08-06 13:44:48,105334
-3,-3,-3,-9,-17,-11,-7,-3,2021-08-06 13:44:48,105334
0,-2,0,2,10,8,3,2,2021-08-06 13:44:48,105334
-1,-1,-2,1,-4,-2,-2,-2,2021-08-06 13:44:48,105334
3,5,5,6,7,6,2,4,2021-08-06 13:44:48,105334
-2,-3,-1,0,-1,-1,-2,-3,2021-08-06 13:44:48,105334
-1,0,-2,-7,-13,-7,-2,-1,2021-08-06 13:44:48,152368
-1,-1,-3,-1,-3,-2,0,-1,2021-08-06 13:44:48,152368
-3,-4,-4,1,3,-1,-2,-2,2021-08-06 13:44:48,152368
-1,0,-2,0,-2,0,-1,-1,2021-08-06 13:44:48,152368
-2,0,1,2,3,3,1,0,2021-08-06 13:44:48,152368
4,4,4,3,3,3,1,2,2021-08-06 13:44:48,152368
-3,-1,-5,-8,-9,-7,-4,-2,2021-08-06 13:44:48,152368
-1,-2,-1,-1,-1,-2,0,0,2021-08-06 13:44:48,152368
0,-2,-3,-3,-2,-2,-1,-2,2021-08-06 13:44:48,168381
-2,-2,-3,-6,-9,-5,-5,-3,2021-08-06 13:44:48,184369
1,0,0,-2,-1,1,0,1,2021-08-06 13:44:48,200369
1,2,2,10,16,9,4,2,2021-08-06 13:44:48,216383
-1,-1,1,-1,-3,-2,-2,0,2021-08-06 13:44:48,216383
-1,0,1,2,6,3,0,-1,2021-08-06 13:44:48,216383
-3,-3,-3,-5,-11,-8,-4,-3,2021-08-06 13:44:48,216383
-1,-1,-3,-6,-1,0,-1,-1,2021-08-06 13:44:48,216383
2,3,3,5,5,1,0,1,2021-08-06 13:44:48,217334
-1,-1,-2,-4,-3,-2,-3,-2,2021-08-06 13:44:48,217334
2,2,3,3,9,5,1,0,2021-08-06 13:44:48,217334
-4,-3,-4,-6,-10,-4,-3,-3,2021-08-06 13:44:48,217334
-1,-2,-3,-8,-8,-5,-1,-1,2021-08-06 13:44:48,248382
1,-1,0,1,5,1,3,0,2021-08-06 13:44:48,263368
-4,-5,-4,-3,-11,-6,-3,-3,2021-08-06 13:44:48,278371
3,2,2,1,2,1,2,1,2021-08-06 13:44:48,278371
-4,-4,-4,-2,-4,-2,-3,-3,2021-08-06 13:44:48,278371
0,1,0,-4,-3,-1,0,-1,2021-08-06 13:44:48,278371
4,5,4,4,4,7,10,5,2021-08-06 13:44:48,278371
-2,-2,1,0,0,1,-1,0,2021-08-06 13:44:48,278371
-2,-3,-1,-1,-2,-4,-6,-3,2021-08-06 13:44:48,278371
-6,-7,-6,-4,-4,-7,-6,-4,2021-08-06 13:44:48,278371
-6,-6,-3,-3,3,-1,-4,-3,2021-08-06 13:44:48,279335
2,1,0,0,1,-1,-2,0,2021-08-06 13:44:48,279335
2,2,2,3,1,1,3,2,2021-08-06 13:44:48,294333
0,1,1,1,1,2,0,-1,2021-08-06 13:44:48,309368
0,1,-2,-1,-2,-1,-1,-2,2021-08-06 13:44:48,325334
-1,-5,-3,1,3,2,3,2,2021-08-06 13:44:48,341380
-1,-2,-3,0,2,0,-3,0,2021-08-06 13:44:48,357386
3,6,3,2,3,7,3,2,2021-08-06 13:44:48,357386
1,5,1,-4,-7,-9,-1,0,2021-08-06 13:44:48,357386
-2,2,3,-1,-4,-7,-4,-4,2021-08-06 13:44:48,357386
-3,-3,-2,1,-1,-2,-1,-3,2021-08-06 13:44:48,357386
-2,-5,-4,-2,-2,0,0,0,2021-08-06 13:44:48,357386
-3,-3,-4,0,3,3,-1,-3,2021-08-06 13:44:48,357386
0,-1,-3,-2,-2,-4,-2,-2,2021-08-06 13:44:48,358333
0,1,3,-1,-1,-2,0,-1,2021-08-06 13:44:48,358333
0,-4,0,2,3,1,0,1,2021-08-06 13:44:48,358333
-3,-3,-3,-5,-7,-3,-5,-1,2021-08-06 13:44:48,358333
-2,-1,-2,-4,0,0,-1,-2,2021-08-06 13:44:48,358333
-1,-1,-1,-2,-5,0,-1,1,2021-08-06 13:44:48,373368
1,0,-2,-8,-11,-6,-3,0,2021-08-06 13:44:48,379373
4,3,5,13,24,13,7,4,2021-08-06 13:44:48,389334
-4,-5,-6,-7,-14,-8,-3,-5,2021-08-06 13:44:48,389334
2,5,2,3,2,0,2,2,2021-08-06 13:44:48,389334
-3,-2,-2,-4,-2,-3,-1,1,2021-08-06 13:44:48,389334
0,0,1,-2,-2,-3,-1,-1,2021-08-06 13:44:48,389334
-1,-1,-1,-3,-5,-2,-1,-1,2021-08-06 13:44:48,389334
-1,0,-3,-5,-9,-2,-2,-2,2021-08-06 13:44:48,405368
-3,-4,-2,-4,-8,-7,-3,-2,2021-08-06 13:44:48,405368
1,-2,-1,-1,0,-1,-2,-1,2021-08-06 13:44:48,405368
0,-2,0,2,2,4,0,-1,2021-08-06 13:44:48,405368
0,-1,-2,-5,-6,-4,-1,-1,2021-08-06 13:44:48,436336
0,0,3,7,10,4,2,1,2021-08-06 13:44:48,451335
-2,-3,-2,-6,-8,-3,-3,0,2021-08-06 13:44:48,466368
1,-1,1,2,3,0,0,-1,2021-08-06 13:44:48,482387
0,-2,-1,1,4,3,1,0,2021-08-06 13:44:48,482387
1,2,2,3,3,1,-2,-3,2021-08-06 13:44:48,482387
-4,-4,-2,-5,-13,-6,-4,-3,2021-08-06 13:44:48,482387
2,1,1,6,17,5,2,2,2021-08-06 13:44:48,482387
-2,-1,1,4,1,-2,-1,-1,2021-08-06 13:44:48,482387
3,2,5,5,6,7,5,2,2021-08-06 13:44:48,482387
-4,-6,-8,-8,-9,-3,-2,-3,2021-08-06 13:44:48,482387
-1,1,-2,-2,1,-1,0,0,2021-08-06 13:44:48,483333
1,1,0,0,1,1,0,0,2021-08-06 13:44:48,498382
-2,0,-2,-4,-5,-5,-2,-2,2021-08-06 13:44:48,514347
0,-1,-1,-3,-5,-4,-2,-1,2021-08-06 13:44:48,530334
0,1,1,1,-3,1,-1,0,2021-08-06 13:44:48,546337
-1,0,2,3,4,4,0,-1,2021-08-06 13:44:48,562370
-4,-3,-4,-2,-8,-5,-4,-1,2021-08-06 13:44:48,562370
0,-1,-4,-2,1,-2,1,-2,2021-08-06 13:44:48,562370
-3,-3,-3,-4,-6,-2,-1,-3,2021-08-06 13:44:48,562370
-1,-2,0,-3,0,-3,-2,0,2021-08-06 13:44:48,562370
0,2,3,2,1,2,1,-1,2021-08-06 13:44:48,562370
0,0,1,5,6,5,0,1,2021-08-06 13:44:48,562370
-2,-2,-3,-4,-5,-3,-2,-1,2021-08-06 13:44:48,562370
-2,-3,-3,-2,-1,0,0,-1,2021-08-06 13:44:48,563371
3,5,6,11,14,7,3,2,2021-08-06 13:44:48,563371
-4,-6,-7,-17,-21,-18,-8,-3,2021-08-06 13:44:48,563371
-1,-2,-2,0,6,5,0,0,2021-08-06 13:44:48,563371
-3,-4,-4,-6,-11,-5,-3,-4,2021-08-06 13:44:48,578382
-1,-1,-1,6,14,8,3,0,2021-08-06 13:44:48,578382
1,2,5,8,8,5,2,0,2021-08-06 13:44:48,578382
0,0,0,-1,-5,-2,-1,0,2021-08-06 13:44:48,578382
2,-1,-2,-3,4,1,1,0,2021-08-06 13:44:48,594381
-1,-4,-4,-7,-6,-3,-3,-1,2021-08-06 13:44:48,610368
2,3,4,7,5,3,3,2,2021-08-06 13:44:48,626368
0,1,2,1,1,-2,0,0,2021-08-06 13:44:48,641369
-2,0,0,-1,-2,-2,-2,-1,2021-08-06 13:44:48,641369
-1,-3,-6,-10,-13,-10,-6,-4,2021-08-06 13:44:48,641369
0,1,0,2,2,3,1,1,2021-08-06 13:44:48,641369
-3,-2,-5,-5,-7,-4,-2,0,2021-08-06 13:44:48,641369
1,0,2,3,7,5,5,2,2021-08-06 13:44:48,641369
0,-4,-4,-6,-10,-6,-2,0,2021-08-06 13:44:48,641369
-2,-1,-2,1,3,-1,-1,-1,2021-08-06 13:44:48,641369
0,-1,0,1,6,4,0,-1,2021-08-06 13:44:48,641369
-4,-1,-1,-1,-6,-6,-4,-3,2021-08-06 13:44:48,657381
-3,-3,-2,-3,-4,-4,-3,-2,2021-08-06 13:44:48,657381
-3,-3,-4,-10,-20,-12,-7,-4,2021-08-06 13:44:48,657381
-1,0,1,6,10,5,3,0,2021-08-06 13:44:48,657381
1,1,-1,0,1,0,-1,0,2021-08-06 13:44:48,673336
2,2,2,6,14,7,3,0,2021-08-06 13:44:48,673336
0,-1,2,4,5,4,0,0,2021-08-06 13:44:48,673336
-1,-2,-4,-5,-12,-6,-2,-1,2021-08-06 13:44:48,673336
0,-2,-3,-6,-6,-5,-3,0,2021-08-06 13:44:48,705344
-1,-2,-2,-1,0,-1,-1,-1,2021-08-06 13:44:48,720381
-2,-1,-5,-4,-4,-2,-2,-2,2021-08-06 13:44:48,736368
0,-3,-1,-6,-6,-1,-1,0,2021-08-06 13:44:48,736368
1,3,2,6,7,5,2,0,2021-08-06 13:44:48,736368
-3,-2,-3,-3,-10,-5,-2,-1,2021-08-06 13:44:48,736368
0,0,1,6,10,8,2,2,2021-08-06 13:44:48,736368
0,0,2,5,1,0,-1,-1,2021-08-06 13:44:48,736368
-3,-3,-6,-9,-8,-5,-1,-3,2021-08-06 13:44:48,736368
-2,-3,-3,-5,-2,-2,-1,-1,2021-08-06 13:44:48,736368
-1,1,-2,-1,2,-1,0,-3,2021-08-06 13:44:48,737335
-1,-3,-2,-3,-2,-1,-1,-3,2021-08-06 13:44:48,737335
1,0,2,1,3,3,2,1,2021-08-06 13:44:48,748367
0,-1,2,7,12,6,3,1,2021-08-06 13:44:48,749337
0,-1,0,1,-1,0,1,0,2021-08-06 13:44:48,749337
-3,-2,-4,-7,-14,-10,-5,-4,2021-08-06 13:44:48,749337
0,0,1,4,10,3,2,2,2021-08-06 13:44:48,784368
-1,-1,-3,-8,-11,-4,-3,-3,2021-08-06 13:44:48,800368
0,-1,1,8,13,7,2,-1,2021-08-06 13:44:48,800368
1,1,2,1,-3,-1,-2,-1,2021-08-06 13:44:48,800368
0,1,1,-2,-1,1,0,-1,2021-08-06 13:44:48,800368
-4,-5,-7,-11,-16,-11,-5,-4,2021-08-06 13:44:48,800368
0,1,0,-4,-3,-1,-2,-1,2021-08-06 13:44:48,800368
0,0,-2,2,3,1,-1,-1,2021-08-06 13:44:48,800368
-2,-2,-1,-1,-2,-2,-1,-2,2021-08-06 13:44:48,816381
-1,-1,1,-1,-1,0,0,-1,2021-08-06 13:44:48,816381
1,0,1,1,2,4,3,0,2021-08-06 13:44:48,816381
0,0,1,0,1,1,-1,0,2021-08-06 13:44:48,816381
-1,-2,-2,-2,-1,-2,0,1,2021-08-06 13:44:48,832383
-2,-1,-2,-4,-7,-5,-4,-1,2021-08-06 13:44:48,832383
0,0,1,0,1,1,-1,0,2021-08-06 13:44:48,832383
0,0,1,2,3,2,0,-1,2021-08-06 13:44:48,832383
1,0,2,7,9,3,2,0,2021-08-06 13:44:48,864368
0,-1,-2,-2,0,0,1,-2,2021-08-06 13:44:48,880334
-2,-2,-3,-5,-9,-6,-4,-1,2021-08-06 13:44:48,896337
0,-1,-1,-3,-2,-2,-1,1,2021-08-06 13:44:48,896337
-3,-3,-2,-2,-7,-4,-3,-1,2021-08-06 13:44:48,896337
-1,-1,-1,0,2,0,-1,1,2021-08-06 13:44:48,896337
-1,-2,-1,-1,-1,-2,-2,-1,2021-08-06 13:44:48,896337
0,1,0,4,9,5,3,0,2021-08-06 13:44:48,896337
-2,-2,-3,-4,-5,-3,-2,-1,2021-08-06 13:44:48,896337
-1,1,-1,5,5,2,2,-1,2021-08-06 13:44:48,896337
-1,-2,-1,-3,-5,-3,-2,0,2021-08-06 13:44:48,896337
-2,-1,-1,0,-4,-3,-1,-1,2021-08-06 13:44:48,897368
0,1,0,1,0,-2,0,-1,2021-08-06 13:44:48,912334
-1,0,2,2,2,3,1,-1,2021-08-06 13:44:48,912334
0,-2,-3,0,-1,-1,0,-1,2021-08-06 13:44:48,912334
-2,-1,-1,-1,-3,-3,-2,-2,2021-08-06 13:44:48,912334
-1,-1,-1,-1,1,2,-1,0,2021-08-06 13:44:48,942368
-1,0,-2,0,-2,-2,0,-1,2021-08-06 13:44:48,957334
-1,-1,0,0,-2,-1,0,1,2021-08-06 13:44:48,957334
1,0,1,1,1,2,1,1,2021-08-06 13:44:48,957334
-2,0,-1,-2,-4,-1,-1,-1,2021-08-06 13:44:48,957334
0,-2,-1,-1,-2,-2,-4,-4,2021-08-06 13:44:48,957334
-3,0,0,-1,-2,-4,-2,-1,2021-08-06 13:44:48,957334
1,1,-1,3,9,5,2,0,2021-08-06 13:44:48,957334
0,1,-3,0,0,1,-2,-2,2021-08-06 13:44:48,973338
-1,0,-1,0,-2,-2,-1,1,2021-08-06 13:44:48,973338
-2,-2,-1,0,-1,0,0,-1,2021-08-06 13:44:48,973338
-2,-1,-2,-6,-7,-5,-4,-1,2021-08-06 13:44:48,973338
-1,-2,-1,-1,-2,-2,0,-1,2021-08-06 13:44:49,005370
-1,0,-2,1,2,2,1,2,2021-08-06 13:44:49,021335
-2,-2,-4,-5,-12,-9,-8,-3,2021-08-06 13:44:49,021335
-3,-2,-4,-12,-17,-10,-3,-2,2021-08-06 13:44:49,021335
2,5,9,24,42,21,8,3,2021-08-06 13:44:49,021335
0,-1,0,3,2,1,-1,0,2021-08-06 13:44:49,021335
-1,-1,-2,1,5,2,0,-1,2021-08-06 13:44:49,021335
-2,-4,-5,-6,-10,-6,-5,-1,2021-08-06 13:44:49,021335
-4,-2,-5,-10,-17,-11,-6,-3,2021-08-06 13:44:49,037376
-1,-1,0,0,1,1,0,0,2021-08-06 13:44:49,053370
-1,1,1,1,3,2,1,0,2021-08-06 13:44:49,069388
-1,-1,0,3,5,0,1,0,2021-08-06 13:44:49,085337
-2,-2,-3,-8,-9,-5,-3,-2,2021-08-06 13:44:49,085337
-2,0,0,2,3,0,-1,0,2021-08-06 13:44:49,085337
-1,-3,-2,-4,-3,-1,-1,-1,2021-08-06 13:44:49,085337
1,-1,1,-1,0,-1,1,-1,2021-08-06 13:44:49,085337
-2,-2,-2,-3,-6,-2,-3,0,2021-08-06 13:44:49,085337
0,0,-1,2,6,3,2,-1,2021-08-06 13:44:49,085337
2,1,1,2,4,1,2,1,2021-08-06 13:44:49,085337
-1,1,2,2,3,0,0,1,2021-08-06 13:44:49,085337
-1,-2,-2,-4,-10,-8,-6,-3,2021-08-06 13:44:49,085337
-2,-1,-2,-5,-7,-3,-2,-2,2021-08-06 13:44:49,085337
-1,-3,-3,-4,0,0,-1,-2,2021-08-06 13:44:49,086374
-2,0,1,4,1,3,0,0,2021-08-06 13:44:49,086374
-1,-1,-2,-4,-4,-1,0,-2,2021-08-06 13:44:49,117381
1,0,1,2,6,4,0,1,2021-08-06 13:44:49,117381
1,1,1,1,1,0,0,-1,2021-08-06 13:44:49,117381
-2,-1,-2,-1,0,-2,-1,-1,2021-08-06 13:44:49,117381
0,0,1,1,1,0,0,0,2021-08-06 13:44:49,147363
2,0,0,2,2,-1,0,-2,2021-08-06 13:44:49,163335
-2,0,-2,-2,-4,-3,-3,-1,2021-08-06 13:44:49,163335
-2,0,1,1,4,3,-1,0,2021-08-06 13:44:49,163335
-3,-3,-3,-3,-5,-3,-2,-2,2021-08-06 13:44:49,163335
-1,-1,-3,-4,-4,-3,-1,-1,2021-08-06 13:44:49,163335
1,1,0,-1,-1,-1,1,-1,2021-08-06 13:44:49,163335
-1,-2,-2,1,-3,1,0,-1,2021-08-06 13:44:49,163335
-1,-1,-1,0,0,0,0,0,2021-08-06 13:44:49,179335
0,2,2,0,-4,-2,1,-1,2021-08-06 13:44:49,179335
-1,-1,-2,-2,-3,-4,-2,-3,2021-08-06 13:44:49,179335
-1,-1,0,-4,-2,-2,-2,-1,2021-08-06 13:44:49,179335
-1,-1,1,-2,-3,-2,1,0,2021-08-06 13:44:49,210368
-3,-5,-1,-7,-7,-5,-4,-4,2021-08-06 13:44:49,226368
2,2,2,8,10,7,3,4,2021-08-06 13:44:49,242381
0,-1,-1,2,4,1,1,0,2021-08-06 13:44:49,242381
0,-2,-2,-2,-4,-3,-1,-2,2021-08-06 13:44:49,242381
-2,-2,-3,-1,-1,-1,0,0,2021-08-06 13:44:49,242381
-3,-3,-3,-5,-6,-5,-5,-2,2021-08-06 13:44:49,242381
4,3,3,7,8,2,2,2,2021-08-06 13:44:49,242381
-1,-2,-2,-3,-5,-3,-2,-2,2021-08-06 13:44:49,242381
-3,-1,-1,-1,-7,-4,-1,-1,2021-08-06 13:44:49,243383
-1,-2,-1,4,9,5,1,0,2021-08-06 13:44:49,243383
-2,-2,-3,-6,-7,-5,-3,-4,2021-08-06 13:44:49,243383
-2,-1,1,3,3,1,0,-1,2021-08-06 13:44:49,274368
0,-2,0,-1,-3,-1,0,-2,2021-08-06 13:44:49,274368
-1,-1,-1,-2,-3,-1,-1,0,2021-08-06 13:44:49,274368
-3,-1,0,-1,-3,-3,-3,-2,2021-08-06 13:44:49,274368
-1,0,-1,0,1,1,0,0,2021-08-06 13:44:49,274368
-1,-2,-3,-4,-2,-1,-2,-1,2021-08-06 13:44:49,274368
-1,-1,-1,-1,0,-1,-1,-2,2021-08-06 13:44:49,274368
-1,1,0,1,-1,1,1,0,2021-08-06 13:44:49,274368
-2,-2,-2,-5,-6,-6,-2,-1,2021-08-06 13:44:49,304374
1,0,1,4,7,6,1,-1,2021-08-06 13:44:49,304374
-1,-2,1,2,-1,0,0,-2,2021-08-06 13:44:49,304374
-1,-2,-3,-5,-5,-3,-1,-2,2021-08-06 13:44:49,304374
-1,-1,-1,-5,-8,-4,-3,-3,2021-08-06 13:44:49,320380
1,2,2,5,7,4,3,3,2021-08-06 13:44:49,336345
0,0,1,1,5,2,1,0,2021-08-06 13:44:49,336345
-3,-4,-3,0,-3,-1,-1,-2,2021-08-06 13:44:49,336345
1,2,0,-1,5,5,1,2,2021-08-06 13:44:49,336345
-2,-1,-1,-3,-7,-6,-3,0,2021-08-06 13:44:49,336345
-1,-1,-1,-3,-4,0,0,0,2021-08-06 13:44:49,336345
-2,-1,0,1,3,0,-1,-2,2021-08-06 13:44:49,336345
2,0,1,-1,1,1,0,1,2021-08-06 13:44:49,368381
-3,-2,-1,-1,0,-1,-2,-2,2021-08-06 13:44:49,384368
-1,-1,-1,-1,-7,-3,-2,-2,2021-08-06 13:44:49,384368
-2,-1,0,-1,1,0,-1,1,2021-08-06 13:44:49,384368
-1,-3,-3,-7,-12,-5,-3,-1,2021-08-06 13:44:49,384368
2,5,4,16,28,15,5,4,2021-08-06 13:44:49,384368
-2,-3,0,-3,-2,-2,-2,-2,2021-08-06 13:44:49,384368
-1,-1,-1,0,-1,-2,-2,-3,2021-08-06 13:44:49,384368
-3,-1,-1,0,-4,-4,-3,-3,2021-08-06 13:44:49,385334
-1,-2,-3,-7,-8,-5,-2,-2,2021-08-06 13:44:49,385334
0,0,-2,-2,-2,-1,-2,-1,2021-08-06 13:44:49,400374
-1,0,-2,-1,-2,-1,-2,0,2021-08-06 13:44:49,400374
1,-1,0,1,4,3,2,0,2021-08-06 13:44:49,416382
-3,-2,-3,-4,-6,-4,-3,-2,2021-08-06 13:44:49,432371
-1,0,-1,2,3,0,2,0,2021-08-06 13:44:49,432371
0,-2,-2,-3,-3,-2,-1,-1,2021-08-06 13:44:49,432371
-2,1,0,3,3,1,1,-1,2021-08-06 13:44:49,432371
-1,-2,-1,-3,-4,-2,-2,-1,2021-08-06 13:44:49,432371
-2,-2,-1,-3,-2,-3,-1,-2,2021-08-06 13:44:49,448382
1,1,2,1,1,0,1,1,2021-08-06 13:44:49,464371
-1,-4,-1,1,0,0,-1,1,2021-08-06 13:44:49,480382
-3,-2,-3,-4,-4,-3,-1,0,2021-08-06 13:44:49,480382
0,0,-1,1,-1,0,1,0,2021-08-06 13:44:49,480382
-2,-2,-2,-1,1,0,-1,-2,2021-08-06 13:44:49,480382
-1,-2,-2,1,2,0,-1,-2,2021-08-06 13:44:49,480382
-3,0,1,2,-1,-2,-4,-3,2021-08-06 13:44:49,480382
-2,0,-4,-3,-1,-2,-2,-1,2021-08-06 13:44:49,480382
0,-1,-1,-3,-4,-3,-1,-1,2021-08-06 13:44:49,481381
-1,0,-1,-2,-3,0,-3,-2,2021-08-06 13:44:49,496337
1,0,-1,-2,-4,-2,-1,1,2021-08-06 13:44:49,496337
1,2,1,0,2,1,1,0,2021-08-06 13:44:49,496337
0,-2,-2,-1,0,1,0,-2,2021-08-06 13:44:49,496337
-2,-4,-3,-5,-8,-6,-4,-3,2021-08-06 13:44:49,512341
2,0,0,5,9,7,2,0,2021-08-06 13:44:49,512341
-2,-2,-1,-3,-6,-3,-1,-1,2021-08-06 13:44:49,528374
0,1,1,1,1,1,1,1,2021-08-06 13:44:49,528374
1,1,3,7,11,7,3,0,2021-08-06 13:44:49,528374
-3,-3,-4,-8,-12,-8,-4,-3,2021-08-06 13:44:49,528374
-1,-1,-2,-2,-5,-3,-2,-3,2021-08-06 13:44:49,544381
0,-2,-2,1,1,1,0,0,2021-08-06 13:44:49,544381
-1,0,-2,-4,-7,-5,-1,0,2021-08-06 13:44:49,576368
0,-1,-2,-4,0,-2,-1,-2,2021-08-06 13:44:49,576368
1,0,1,5,5,5,1,2,2021-08-06 13:44:49,576368
0,-3,-3,-3,-6,-5,-3,-1,2021-08-06 13:44:49,576368
-2,-1,0,2,3,3,0,0,2021-08-06 13:44:49,576368
0,0,0,-4,-5,-3,-2,0,2021-08-06 13:44:49,576368
-2,-1,-1,-2,-2,-1,-1,-2,2021-08-06 13:44:49,576368
-1,0,-1,1,1,1,1,-2,2021-08-06 13:44:49,576368
-1,-1,0,-5,-3,-3,-1,0,2021-08-06 13:44:49,608333
-1,-2,-1,0,-4,-1,-2,-2,2021-08-06 13:44:49,608333
0,0,0,2,4,1,-1,-1,2021-08-06 13:44:49,608333
-1,-1,-1,-3,-5,-2,-2,0,2021-08-06 13:44:49,608333
0,0,1,4,8,3,-1,0,2021-08-06 13:44:49,624333
-1,-1,1,2,6,3,1,0,2021-08-06 13:44:49,640368
0,2,2,4,7,4,2,1,2021-08-06 13:44:49,640368
-4,-2,-3,0,1,-1,-2,-2,2021-08-06 13:44:49,640368
-2,-2,-4,-10,-11,-6,-4,-2,2021-08-06 13:44:49,640368
1,-1,-1,-1,-5,-4,-2,0,2021-08-06 13:44:49,640368
-1,-1,-2,-2,-4,-2,0,-2,2021-08-06 13:44:49,640368
0,0,3,4,9,3,0,1,2021-08-06 13:44:49,640368
-1,-1,-2,-2,-1,0,0,0,2021-08-06 13:44:49,656371
-1,-1,-1,-2,-3,-1,-1,-1,2021-08-06 13:44:49,656371
0,-2,-2,-5,-4,-3,-1,-1,2021-08-06 13:44:49,656371
-2,-1,-1,-2,-5,-3,-2,-3,2021-08-06 13:44:49,656371
-2,0,-1,1,3,0,0,-1,2021-08-06 13:44:49,688333
-2,-1,-1,-1,-3,-3,-1,-2,2021-08-06 13:44:49,704367
-1,-2,0,5,4,0,0,0,2021-08-06 13:44:49,704367
-2,-2,-2,-4,-6,-4,-2,-2,2021-08-06 13:44:49,704367
2,3,2,4,12,7,4,2,2021-08-06 13:44:49,704367
-3,-3,-2,-3,-7,-4,-1,-1,2021-08-06 13:44:49,704367
-1,-1,0,1,9,3,-1,0,2021-08-06 13:44:49,704367
-1,0,-1,4,8,2,1,0,2021-08-06 13:44:49,704367
0,-2,-2,-2,-6,-4,-4,-2,2021-08-06 13:44:49,720381
-2,-1,-2,-4,-11,-6,-4,-2,2021-08-06 13:44:49,736371
-2,-5,-6,-15,-21,-11,-6,-3,2021-08-06 13:44:49,736371
7,6,7,12,23,15,7,6,2021-08-06 13:44:49,736371
-2,-1,0,-1,-5,-5,-3,-3,2021-08-06 13:44:49,736371
-3,1,-1,-2,0,-1,0,-1,2021-08-06 13:44:49,736371
-1,0,0,3,4,1,0,0,2021-08-06 13:44:49,736371
-1,-1,-2,-5,-6,-4,-5,-1,2021-08-06 13:44:49,736371
-2,0,0,2,3,1,0,-1,2021-08-06 13:44:49,752370
-1,-2,-2,0,-2,-1,-1,0,2021-08-06 13:44:49,768367
-2,-3,-1,-5,-7,-4,-2,-1,2021-08-06 13:44:49,768367
-2,-2,-1,-4,-6,-4,-2,-2,2021-08-06 13:44:49,768367
2,0,-2,3,5,4,0,0,2021-08-06 13:44:49,768367
0,0,-3,-6,-4,-3,-1,-1,2021-08-06 13:44:49,768367
1,0,-1,3,9,6,2,-1,2021-08-06 13:44:49,783333
-1,1,1,1,-2,-3,-3,0,2021-08-06 13:44:49,783333
0,-1,1,-2,-4,-2,-1,-1,2021-08-06 13:44:49,798382
1,-2,1,-1,3,0,-1,0,2021-08-06 13:44:49,814334
-1,-1,-2,-5,-7,-5,-2,-1,2021-08-06 13:44:49,845382
-3,-3,-2,-11,-13,-7,-3,-4,2021-08-06 13:44:49,861368
1,4,3,12,16,10,4,3,2021-08-06 13:44:49,861368
-1,-2,-2,1,1,1,-3,-3,2021-08-06 13:44:49,861368
0,-1,-1,-1,-2,-4,0,-1,2021-08-06 13:44:49,861368
-1,-4,-4,-5,-8,-3,-2,-2,2021-08-06 13:44:49,861368
-3,-4,-6,-10,-17,-12,-4,-4,2021-08-06 13:44:49,861368
1,1,3,8,20,14,6,2,2021-08-06 13:44:49,861368
-1,0,-1,3,6,1,0,-1,2021-08-06 13:44:49,861368
2,1,-1,-1,-5,-5,-2,0,2021-08-06 13:44:49,862371
0,-3,-1,-3,-4,-1,-1,0,2021-08-06 13:44:49,862371
0,-3,-3,-5,-8,-4,-2,-1,2021-08-06 13:44:49,862371
-2,-2,-2,-4,-4,-1,-4,-1,2021-08-06 13:44:49,862371
0,-3,-1,3,7,4,1,-2,2021-08-06 13:44:49,862371
0,0,0,0,-3,-2,0,-1,2021-08-06 13:44:49,893382
-1,0,0,0,3,-2,-1,0,2021-08-06 13:44:49,909337
-2,-3,-2,-1,-7,-5,-1,-3,2021-08-06 13:44:49,925338
-2,0,-2,-4,-1,-1,-1,0,2021-08-06 13:44:49,925338
-3,-1,-2,-5,-11,-5,-4,-5,2021-08-06 13:44:49,925338
2,4,4,16,26,13,6,4,2021-08-06 13:44:49,925338
1,0,0,-2,-1,-2,0,-1,2021-08-06 13:44:49,925338
-3,-6,-5,-10,-26,-13,-5,-4,2021-08-06 13:44:49,925338
1,1,-3,-5,9,5,3,1,2021-08-06 13:44:49,925338
1,1,2,6,7,4,2,0,2021-08-06 13:44:49,926371
-3,-1,-3,-1,-9,-5,-4,-2,2021-08-06 13:44:49,926371
1,1,1,5,14,10,3,4,2021-08-06 13:44:49,926371
-6,-5,-9,-21,-35,-20,-9,-4,2021-08-06 13:44:49,941382
3,3,7,18,26,17,6,2,2021-08-06 13:44:49,941382
1,1,1,3,8,1,-2,-1,2021-08-06 13:44:49,941382
-2,-1,1,-1,3,-1,2,-1,2021-08-06 13:44:49,941382
-1,0,0,0,-2,-1,-1,0,2021-08-06 13:44:49,957368
-5,-5,-10,-25,-38,-19,-9,-5,2021-08-06 13:44:49,972370
-4,-4,-3,-9,-13,-7,-4,-2,2021-08-06 13:44:49,988367
-1,-1,-1,0,1,-3,-2,-2,2021-08-06 13:44:49,988367
1,0,2,5,7,3,2,1,2021-08-06 13:44:49,988367
-2,-2,2,-1,-2,-4,-2,-3,2021-08-06 13:44:49,988367
0,0,0,1,2,3,0,1,2021-08-06 13:44:49,988367
-1,-1,1,1,0,1,0,-1,2021-08-06 13:44:49,988367
-1,1,0,-5,-2,-2,-2,1,2021-08-06 13:44:50,020383
-4,-7,-9,-21,-30,-13,-7,-4,2021-08-06 13:44:50,036370
1,1,5,17,33,16,7,3,2021-08-06 13:44:50,051334
-1,0,-1,3,9,5,1,0,2021-08-06 13:44:50,051334
0,0,3,8,7,1,0,0,2021-08-06 13:44:50,051334
-2,0,-3,-7,-7,-5,-2,-1,2021-08-06 13:44:50,051334
-3,-3,-3,-7,-9,-4,1,-1,2021-08-06 13:44:50,051334
-1,-3,-5,-7,-10,-8,-4,-3,2021-08-06 13:44:50,051334
1,2,1,1,6,4,3,3,2021-08-06 13:44:50,051334
-4,-1,-1,-7,-11,-8,-5,-3,2021-08-06 13:44:50,051334
-2,-3,-3,-9,-18,-11,-6,-3,2021-08-06 13:44:50,052359
3,2,5,17,28,17,6,4,2021-08-06 13:44:50,052359
0,-1,0,5,6,2,-1,-2,2021-08-06 13:44:50,066369
0,-1,0,3,0,-1,-1,-1,2021-08-06 13:44:50,066369
0,1,0,0,0,2,1,-2,2021-08-06 13:44:50,066369
-3,0,-3,-7,-15,-10,-2,-2,2021-08-06 13:44:50,066369
-3,-4,-5,-7,-11,-7,-4,-2,2021-08-06 13:44:50,082349
4,2,4,11,17,7,5,4,2021-08-06 13:44:50,082349
-2,-1,-1,1,5,-1,-2,-1,2021-08-06 13:44:50,082349
0,-1,2,3,-2,3,1,0,2021-08-06 13:44:50,082349
0,-2,0,3,4,4,1,-1,2021-08-06 13:44:50,098382
-3,-3,-3,-8,-14,-9,-4,-4,2021-08-06 13:44:50,114336
1,2,2,1,6,3,2,2,2021-08-06 13:44:50,114336
-2,-2,-5,-12,-14,-10,-5,-1,2021-08-06 13:44:50,114336
1,2,4,19,28,15,5,1,2021-08-06 13:44:50,114336
-3,-2,-3,-5,-5,-4,-3,-3,2021-08-06 13:44:50,114336
1,0,2,1,1,3,0,-1,2021-08-06 13:44:50,114336
-3,-2,0,-3,-6,-5,-3,-4,2021-08-06 13:44:50,114336
0,-1,-1,-7,-8,-6,-3,-3,2021-08-06 13:44:50,146333
1,0,0,2,1,1,1,-1,2021-08-06 13:44:50,146333
-2,-1,-2,0,3,2,-1,-1,2021-08-06 13:44:50,146333
2,2,1,11,13,7,4,3,2021-08-06 13:44:50,146333
1,0,0,-1,-1,1,0,3,2021-08-06 13:44:50,162366
-1,0,0,0,0,1,0,0,2021-08-06 13:44:50,178368
-1,0,-2,-3,-3,-1,0,-1,2021-08-06 13:44:50,194381
-2,-2,-3,-9,-10,-5,-4,-3,2021-08-06 13:44:50,194381
-2,-3,-4,-8,-12,-5,-3,-3,2021-08-06 13:44:50,194381
-2,-4,-2,-2,1,-1,-2,-3,2021-08-06 13:44:50,194381
-1,-2,-1,-1,-8,-6,-3,-4,2021-08-06 13:44:50,194381
3,2,2,5,10,8,4,3,2021-08-06 13:44:50,194381
-3,-1,-1,4,0,-3,0,-1,2021-08-06 13:44:50,194381
-1,1,-2,-2,-3,-2,-2,1,2021-08-06 13:44:50,195368
-2,-3,-2,-3,0,2,-2,0,2021-08-06 13:44:50,210367
-1,-1,1,2,4,1,-2,-1,2021-08-06 13:44:50,210367
-2,-2,-4,-10,-13,-6,-4,-3,2021-08-06 13:44:50,226368
1,0,3,11,16,6,2,-1,2021-08-06 13:44:50,226368
-1,-2,-3,-7,-10,-9,-3,-2,2021-08-06 13:44:50,226368
-3,-3,-3,-12,-12,-8,-4,-3,2021-08-06 13:44:50,226368
1,2,3,8,9,7,5,1,2021-08-06 13:44:50,242381
0,-1,1,0,4,1,-1,-1,2021-08-06 13:44:50,242381
-1,-1,0,0,2,3,0,-2,2021-08-06 13:44:50,242381
-2,-2,-2,-5,-8,-4,-2,-2,2021-08-06 13:44:50,242381
-1,-1,-2,-4,-4,-5,-3,-3,2021-08-06 13:44:50,258334
1,0,1,1,2,1,-1,-1,2021-08-06 13:44:50,258334
3,2,2,3,4,3,2,1,2021-08-06 13:44:50,258334
-2,-2,-2,1,-4,-2,-2,0,2021-08-06 13:44:50,258334
-2,-3,-2,-2,-2,-2,-2,-2,2021-08-06 13:44:50,290381
0,-2,-1,3,3,2,0,0,2021-08-06 13:44:50,306368
-1,1,0,-4,-1,-3,0,-1,2021-08-06 13:44:50,338368
0,0,1,0,2,-1,0,-2,2021-08-06 13:44:50,354336
-4,-4,-4,-7,-10,-7,-3,-2,2021-08-06 13:44:50,369381
-2,-2,-5,-10,-13,-5,-4,-1,2021-08-06 13:44:50,385371
1,3,3,8,7,7,3,1,2021-08-06 13:44:50,401334
0,-1,-2,-2,3,1,2,0,2021-08-06 13:44:50,401334
0,1,2,1,0,1,1,0,2021-08-06 13:44:50,401334
-5,-4,-5,-9,-12,-11,-6,-4,2021-08-06 13:44:50,401334
0,0,2,4,6,3,0,1,2021-08-06 13:44:50,401334
1,-1,0,2,0,1,-1,0,2021-08-06 13:44:50,402342
0,-1,0,-1,7,5,1,0,2021-08-06 13:44:50,402342
0,-1,-4,-6,-7,-3,-1,-1,2021-08-06 13:44:50,402342
-1,-2,-2,-3,-3,-3,-1,0,2021-08-06 13:44:50,402342
1,0,-1,-1,-2,-3,-3,-2,2021-08-06 13:44:50,402342
-1,-3,-5,-9,-12,-7,-4,-4,2021-08-06 13:44:50,402342
-2,-1,-2,-4,0,0,-1,-1,2021-08-06 13:44:50,402342
2,2,2,5,-1,3,4,0,2021-08-06 13:44:50,402342
1,1,-1,2,10,6,1,2,2021-08-06 13:44:50,402342
-3,-3,-3,1,-2,-4,-3,-2,2021-08-06 13:44:50,402342
0,3,5,6,6,5,4,0,2021-08-06 13:44:50,403359
-5,-4,-5,-12,-17,-11,-9,-6,2021-08-06 13:44:50,403359
-3,-1,-3,-9,-14,-7,-4,-3,2021-08-06 13:44:50,403359
0,1,3,5,3,4,-1,-1,2021-08-06 13:44:50,403359
-1,-1,0,6,8,1,-1,0,2021-08-06 13:44:50,403359
0,0,-4,-8,-7,-6,-2,1,2021-08-06 13:44:50,417333
-2,-1,0,2,2,2,2,2,2021-08-06 13:44:50,433333
0,-1,-3,-7,-8,-4,-2,-1,2021-08-06 13:44:50,449371
2,-1,-2,0,1,-1,1,1,2021-08-06 13:44:50,465334
-1,-1,1,7,9,3,-1,-2,2021-08-06 13:44:50,481334
-1,-2,-1,1,2,-1,-1,-2,2021-08-06 13:44:50,481334
-4,-3,-5,-13,-18,-11,-5,-3,2021-08-06 13:44:50,481334
-1,1,3,6,4,0,1,1,2021-08-06 13:44:50,481334
1,0,2,8,17,10,3,1,2021-08-06 13:44:50,481334
0,0,-2,-3,-7,-4,-2,-1,2021-08-06 13:44:50,481334
3,3,2,13,19,11,3,3,2021-08-06 13:44:50,481334
-1,-3,-6,-16,-24,-15,-5,-3,2021-08-06 13:44:50,481334
3,2,5,14,22,10,4,2,2021-08-06 13:44:50,481334
-2,0,3,2,0,1,0,-2,2021-08-06 13:44:50,481334
-2,-1,-2,-3,-1,-2,-3,0,2021-08-06 13:44:50,482338
-3,-3,-5,-9,-15,-7,-6,-5,2021-08-06 13:44:50,482338
0,0,-1,2,5,2,1,1,2021-08-06 13:44:50,482338
0,1,2,9,15,5,1,0,2021-08-06 13:44:50,482338
1,0,0,-1,-3,0,0,-1,2021-08-06 13:44:50,497382
0,2,1,4,7,3,0,0,2021-08-06 13:44:50,497382
-5,-4,-4,-14,-23,-14,-7,-4,2021-08-06 13:44:50,497382
1,0,-1,-1,0,1,0,-1,2021-08-06 13:44:50,497382
2,0,3,9,13,4,2,0,2021-08-06 13:44:50,528381
1,0,3,9,13,6,2,1,2021-08-06 13:44:50,544381
-3,-3,-4,-11,-15,-10,-5,-3,2021-08-06 13:44:50,560368
-3,-2,-3,-8,-10,-2,-2,1,2021-08-06 13:44:50,560368
-3,-3,-5,-9,-3,-3,0,-1,2021-08-06 13:44:50,560368
3,5,8,23,27,15,8,3,2021-08-06 13:44:50,560368
-3,-3,-3,-7,-12,-6,-3,-2,2021-08-06 13:44:50,560368
-1,-2,-3,-9,-12,-8,-3,-2,2021-08-06 13:44:50,560368
-3,-3,-6,-10,-14,-10,-5,-4,2021-08-06 13:44:50,560368
1,0,3,8,12,9,3,1,2021-08-06 13:44:50,561354
-2,-2,-3,-6,-6,-5,-3,-4,2021-08-06 13:44:50,561354
-3,-5,-3,-3,-11,-4,-3,-2,2021-08-06 13:44:50,561354
4,5,6,8,8,5,2,3,2021-08-06 13:44:50,590368
-2,-2,-4,-9,-12,-6,-3,-1,2021-08-06 13:44:50,590368
1,0,-4,-7,-6,-2,0,0,2021-08-06 13:44:50,590368
-3,-5,-4,-2,-3,-5,-4,-3,2021-08-06 13:44:50,590368
1,0,3,9,18,10,5,1,2021-08-06 13:44:50,605362
-1,-1,-2,-3,-2,-1,-1,-2,2021-08-06 13:44:50,617359
-1,-4,-3,2,2,0,0,1,2021-08-06 13:44:50,637370
2,4,5,10,18,9,4,1,2021-08-06 13:44:50,637370
-2,-3,-6,-12,-9,-9,-5,-2,2021-08-06 13:44:50,637370
-1,-1,-1,-8,-19,-8,-4,-2,2021-08-06 13:44:50,637370
1,1,1,9,12,6,0,-1,2021-08-06 13:44:50,637370
0,-2,-1,2,4,0,-1,-1,2021-08-06 13:44:50,637370
-3,0,0,-1,-3,-2,0,0,2021-08-06 13:44:50,637370
-3,-4,-4,-15,-21,-10,-3,-4,2021-08-06 13:44:50,638370
-1,0,2,3,2,-2,1,0,2021-08-06 13:44:50,638370
0,2,2,7,7,3,1,1,2021-08-06 13:44:50,638370
-4,-4,-1,-2,-5,-2,-3,-4,2021-08-06 13:44:50,669371
-1,-1,-3,-3,3,1,-1,0,2021-08-06 13:44:50,701334
0,-1,-1,-7,-13,-4,-2,1,2021-08-06 13:44:50,701334
2,3,2,7,12,5,3,0,2021-08-06 13:44:50,701334
-6,-6,-8,-15,-22,-15,-7,-4,2021-08-06 13:44:50,701334
-1,1,1,12,9,7,2,1,2021-08-06 13:44:50,701334
8,9,13,25,39,26,13,6,2021-08-06 13:44:50,701334
-2,-1,-3,-3,-6,-3,-3,-1,2021-08-06 13:44:50,701334
1,1,1,2,2,2,1,0,2021-08-06 13:44:50,701334
-2,-5,-6,-9,-3,-7,-5,-3,2021-08-06 13:44:50,701334
-5,-5,-11,-25,-36,-18,-9,-6,2021-08-06 13:44:50,701334
3,3,6,17,16,9,3,0,2021-08-06 13:44:50,701334
1,2,4,8,15,8,4,3,2021-08-06 13:44:50,733333
0,2,1,2,2,1,0,1,2021-08-06 13:44:50,733333
-3,-3,-3,-7,-10,-8,-4,-1,2021-08-06 13:44:50,749383
-2,-2,-6,-16,-16,-9,-3,-2,2021-08-06 13:44:50,749383
-3,-4,-3,-3,-5,-2,-4,-3,2021-08-06 13:44:50,749383
0,2,1,2,2,2,2,1,2021-08-06 13:44:50,749383
-1,-1,-3,-6,-9,-5,0,-4,2021-08-06 13:44:50,749383
-2,-4,-4,-6,-5,-1,-3,-1,2021-08-06 13:44:50,749383
4,4,5,14,14,11,5,4,2021-08-06 13:44:50,765371
-1,-2,-1,-1,3,2,-1,-1,2021-08-06 13:44:50,781384
2,3,3,7,10,5,1,2,2021-08-06 13:44:50,781384
-2,-2,-2,-6,-2,-5,-3,-1,2021-08-06 13:44:50,781384
0,-2,0,5,12,3,1,-2,2021-08-06 13:44:50,781384
-4,-5,-7,-14,-29,-13,-6,-5,2021-08-06 13:44:50,781384
-3,-3,0,5,6,0,-2,-2,2021-08-06 13:44:50,781384
1,0,-1,-4,-6,-2,0,0,2021-08-06 13:44:50,781384
-2,-1,-6,-11,-12,-7,-3,-2,2021-08-06 13:44:50,813343
-2,-1,-2,0,7,2,-1,-2,2021-08-06 13:44:50,829337
-1,-2,-3,-4,-6,-4,-2,0,2021-08-06 13:44:50,829337
0,-2,-1,-3,-4,0,-2,-1,2021-08-06 13:44:50,829337
-1,1,2,2,-1,-2,-1,0,2021-08-06 13:44:50,829337
-3,-4,-4,-11,-15,-11,-5,-2,2021-08-06 13:44:50,829337
0,0,1,4,14,11,4,1,2021-08-06 13:44:50,845396
0,0,1,8,9,3,-1,0,2021-08-06 13:44:50,845396
-2,-2,-2,-2,-4,-2,-1,-2,2021-08-06 13:44:50,845396
-1,1,0,0,-6,0,0,-1,2021-08-06 13:44:50,845396
-1,1,0,5,8,6,0,1,2021-08-06 13:44:50,845396
-3,-2,-2,-3,-5,-3,-1,-2,2021-08-06 13:44:50,845396
2,1,2,3,6,2,1,-1,2021-08-06 13:44:50,861370
1,-2,-2,-4,-9,-4,0,0,2021-08-06 13:44:50,877368
-5,-4,-5,-11,-16,-10,-6,-3,2021-08-06 13:44:50,877368
-1,-1,-3,-4,-3,1,0,0,2021-08-06 13:44:50,877368
2,1,1,5,10,6,2,2,2021-08-06 13:44:50,877368
0,-3,-2,1,4,0,-1,-1,2021-08-06 13:44:50,877368
1,-1,1,4,-2,0,1,0,2021-08-06 13:44:50,877368
3,5,3,12,23,11,5,3,2021-08-06 13:44:50,877368
-3,-1,-2,-10,-14,-6,-4,-3,2021-08-06 13:44:50,908333
-2,-2,-3,-5,-7,-5,-2,-3,2021-08-06 13:44:50,923338
0,-1,-2,2,14,9,3,1,2021-08-06 13:44:50,923338
0,0,0,-3,-8,-3,-3,-1,2021-08-06 13:44:50,923338
2,1,4,11,9,3,2,1,2021-08-06 13:44:50,923338
0,2,1,4,10,4,2,2,2021-08-06 13:44:50,923338
-3,-5,-5,-12,-21,-13,-5,-5,2021-08-06 13:44:50,923338
-2,-2,-2,-4,-4,-4,-3,-1,2021-08-06 13:44:50,923338
-3,-4,-3,-3,-2,0,0,0,2021-08-06 13:44:50,939368
1,1,2,2,2,2,2,0,2021-08-06 13:44:50,939368
-3,-1,-1,-4,-8,-6,-4,-2,2021-08-06 13:44:50,939368
-1,-2,-3,0,2,0,-1,-3,2021-08-06 13:44:50,939368
-2,-1,-2,-5,-8,-7,-5,-3,2021-08-06 13:44:50,969383
0,-1,-1,0,2,2,3,1,2021-08-06 13:44:50,985334
-1,1,3,10,11,6,1,-1,2021-08-06 13:44:50,986333
-1,0,-1,-2,-10,-6,-3,-1,2021-08-06 13:44:50,987334
1,3,2,5,12,7,2,0,2021-08-06 13:44:50,987334
-2,-2,-2,-4,-2,-2,-2,-4,2021-08-06 13:44:50,987334
-2,-3,-6,-11,-16,-8,-6,-2,2021-08-06 13:44:50,987334
0,1,1,4,8,2,-1,0,2021-08-06 13:44:50,987334
0,-2,0,1,-5,-3,-1,-1,2021-08-06 13:44:51,001334
0,1,0,0,3,-1,-1,-1,2021-08-06 13:44:51,017336
-1,-1,-1,2,11,2,-1,-1,2021-08-06 13:44:51,033333
0,0,1,1,-6,1,2,0,2021-08-06 13:44:51,033333
-1,-1,-2,-4,-7,-2,-1,-1,2021-08-06 13:44:51,033333
1,-1,1,7,7,3,0,0,2021-08-06 13:44:51,033333
-3,-2,-3,0,2,-1,0,-2,2021-08-06 13:44:51,033333
0,0,-1,-6,-12,-6,-1,-1,2021-08-06 13:44:51,033333
3,2,1,4,10,7,4,2,2021-08-06 13:44:51,048381
-4,-2,0,0,0,-3,-3,-2,2021-08-06 13:44:51,064378
0,-1,-1,-3,-4,-3,-2,-3,2021-08-06 13:44:51,064378
1,-1,1,2,3,2,0,1,2021-08-06 13:44:51,064378
-2,-1,-2,2,1,5,2,0,2021-08-06 13:44:51,064378
0,0,-5,-3,6,1,0,0,2021-08-06 13:44:51,064944
-4,-3,-1,0,-8,-8,-4,-5,2021-08-06 13:44:51,064944
-5,-3,-6,-14,-13,-12,-6,-4,2021-08-06 13:44:51,064944
-4,-4,-5,-4,-11,-2,-1,-1,2021-08-06 13:44:51,079997
3,5,7,9,10,6,3,5,2021-08-06 13:44:51,095952
3,3,5,11,18,10,5,2,2021-08-06 13:44:51,111950
-8,-8,-8,-15,-24,-14,-6,-7,2021-08-06 13:44:51,127946
-1,-3,-4,-11,-9,-6,-4,-4,2021-08-06 13:44:51,142983
0,-1,0,8,9,4,1,0,2021-08-06 13:44:51,158950
0,-1,0,-5,-7,-5,-3,0,2021-08-06 13:44:51,158950
0,-1,-1,-2,-5,3,2,-1,2021-08-06 13:44:51,158950
-3,0,2,8,18,5,1,-1,2021-08-06 13:44:51,158950
-4,-3,-6,-14,-22,-13,-6,-3,2021-08-06 13:44:51,158950
2,1,2,10,22,10,4,1,2021-08-06 13:44:51,158950
1,0,-1,3,3,0,0,1,2021-08-06 13:44:51,158950
-4,-4,-4,-17,-25,-14,-5,-3,2021-08-06 13:44:51,158950
3,4,7,27,35,18,6,2,2021-08-06 13:44:51,158950
-3,-4,-7,-18,-24,-12,-7,-4,2021-08-06 13:44:51,158950
0,0,-1,7,24,9,2,1,2021-08-06 13:44:51,158950
0,-1,-1,-1,0,-1,-1,-2,2021-08-06 13:44:51,160007
-2,-6,-7,-16,-19,-7,-3,-2,2021-08-06 13:44:51,160007
4,3,6,12,15,9,5,4,2021-08-06 13:44:51,173989
-2,-1,2,2,-2,-3,-1,-2,2021-08-06 13:44:51,188988
1,-1,3,7,12,7,1,1,2021-08-06 13:44:51,188988
-5,-7,-10,-23,-37,-18,-9,-5,2021-08-06 13:44:51,188988
6,4,6,13,28,15,8,7,2021-08-06 13:44:51,188988
1,4,3,8,8,4,1,-1,2021-08-06 13:44:51,188988
-2,0,0,2,-5,-4,0,-1,2021-08-06 13:44:51,204950
-4,-4,-1,-5,-9,-4,-2,-5,2021-08-06 13:44:51,220950
-4,-5,-6,-19,-31,-17,-9,-5,2021-08-06 13:44:51,236987
4,5,11,23,36,17,7,4,2021-08-06 13:44:51,236987
4,-1,-3,4,10,6,5,2,2021-08-06 13:44:51,236987
-2,-3,-5,-7,-4,-4,-3,-2,2021-08-06 13:44:51,236987
-2,-4,-3,-1,-4,-1,0,-3,2021-08-06 13:44:51,236987
-7,-9,-11,-25,-35,-20,-9,-5,2021-08-06 13:44:51,236987
-2,-2,-4,-14,-20,-10,-5,-4,2021-08-06 13:44:51,236987
6,7,11,24,34,19,10,5,2021-08-06 13:44:51,236987
-2,1,-1,0,1,0,-2,-3,2021-08-06 13:44:51,252953
-1,-1,-1,-6,-18,-6,-3,-2,2021-08-06 13:44:51,252953
-2,-1,-2,3,-3,-3,-1,0,2021-08-06 13:44:51,268983
-3,-1,-5,-13,-8,-7,-3,-2,2021-08-06 13:44:51,284984
3,4,4,14,25,14,7,4,2021-08-06 13:44:51,300953
-2,0,1,7,19,9,2,0,2021-08-06 13:44:51,300953
0,2,0,1,-3,1,0,0,2021-08-06 13:44:51,300953
1,1,4,6,2,0,1,0,2021-08-06 13:44:51,300953
-7,-9,-9,-13,-22,-15,-8,-6,2021-08-06 13:44:51,300953
2,0,-3,-7,-13,-6,-2,-1,2021-08-06 13:44:51,300953
-2,-1,-3,-8,0,-2,-4,-1,2021-08-06 13:44:51,300953
1,-2,-1,-6,-5,-3,-3,-2,2021-08-06 13:44:51,300953
0,2,1,12,17,7,1,0,2021-08-06 13:44:51,300953
-2,-5,-6,-5,-10,-7,-2,-3,2021-08-06 13:44:51,300953
-1,0,-1,-5,-14,-8,-3,-2,2021-08-06 13:44:51,332545
-1,-2,0,5,4,0,-1,1,2021-08-06 13:44:51,348592
-1,-1,-5,-5,-5,2,2,1,2021-08-06 13:44:51,348592
-6,-5,-8,-14,-3,-3,-5,-6,2021-08-06 13:44:51,348592
-4,-2,2,9,10,3,-2,-3,2021-08-06 13:44:51,348592
-4,-3,0,2,1,-1,-3,-2,2021-08-06 13:44:51,348592
5,6,6,9,1,1,2,2,2021-08-06 13:44:51,348592
5,1,0,1,1,3,4,4,2021-08-06 13:44:51,348592
-4,-6,-10,-23,-30,-19,-10,-5,2021-08-06 13:44:51,380585
-3,-2,-1,-2,2,1,-1,-2,2021-08-06 13:44:51,396545
0,1,4,13,7,6,4,3,2021-08-06 13:44:51,412544
-2,-1,0,1,5,3,0,0,2021-08-06 13:44:51,412544
1,2,3,7,10,3,0,-1,2021-08-06 13:44:51,412544
-2,-4,-4,-8,-16,-9,-4,-3,2021-08-06 13:44:51,412544
-4,-5,-9,-24,-24,-13,-6,-4,2021-08-06 13:44:51,412544
2,4,2,11,21,12,5,4,2021-08-06 13:44:51,412544
5,6,9,22,29,19,12,7,2021-08-06 13:44:51,413579
0,2,1,5,10,4,-1,-1,2021-08-06 13:44:51,413579
-6,-8,-8,-20,-26,-17,-8,-6,2021-08-06 13:44:51,413579
-7,-5,-7,-15,-25,-15,-9,-8,2021-08-06 13:44:51,413579
0,0,1,4,8,4,1,1,2021-08-06 13:44:51,413579
-7,-6,-7,-5,-4,-5,-4,-3,2021-08-06 13:44:51,413579
7,6,4,5,5,3,4,4,2021-08-06 13:44:51,428585
-2,-3,-2,-8,-23,-15,-8,-5,2021-08-06 13:44:51,428585
-3,-3,-1,4,17,9,2,0,2021-08-06 13:44:51,460579
3,4,3,-5,-17,-3,0,1,2021-08-06 13:44:51,460579
0,-2,-1,2,2,-3,-4,-2,2021-08-06 13:44:51,475578
0,0,3,11,20,7,2,0,2021-08-06 13:44:51,475578
-4,-5,-5,-14,-25,-9,-4,-4,2021-08-06 13:44:51,475578
0,-1,-2,4,5,3,0,0,2021-08-06 13:44:51,475578
-1,-1,-2,-4,-6,-4,-4,-3,2021-08-06 13:44:51,475578
2,1,3,4,6,6,3,4,2021-08-06 13:44:51,475578
-5,-5,-5,-9,-13,-10,-5,-4,2021-08-06 13:44:51,476547
5,7,9,23,43,24,12,8,2021-08-06 13:44:51,476547
-4,0,1,2,2,2,0,-2,2021-08-06 13:44:51,490591
0,0,-1,2,1,0,0,0,2021-08-06 13:44:51,490591
-4,-4,-7,-16,-26,-15,-9,-5,2021-08-06 13:44:51,506592
3,2,4,8,9,3,4,2,2021-08-06 13:44:51,522578
-4,-5,-5,-12,-16,-8,-3,-2,2021-08-06 13:44:51,538544
-2,-3,2,3,6,2,2,1,2021-08-06 13:44:51,538544
-1,-4,-5,-4,1,4,3,-1,2021-08-06 13:44:51,538544
7,10,8,9,12,9,6,5,2021-08-06 13:44:51,538544
1,-1,1,3,8,2,0,-1,2021-08-06 13:44:51,538544
-5,-5,-6,-15,-29,-14,-7,-6,2021-08-06 13:44:51,538544
3,3,8,23,34,14,7,4,2021-08-06 13:44:51,538544
-6,-8,-6,-13,-21,-13,-8,-6,2021-08-06 13:44:51,539544
-2,-3,-5,-10,-8,-6,-3,-1,2021-08-06 13:44:51,539544
2,4,0,-8,-9,-4,0,0,2021-08-06 13:44:51,539544
0,0,1,9,16,7,2,-1,2021-08-06 13:44:51,569591
-3,-3,-4,-9,-11,-8,-4,-1,2021-08-06 13:44:51,585546
-1,-1,1,2,3,3,0,0,2021-08-06 13:44:51,601557
2,1,2,5,12,7,4,2,2021-08-06 13:44:51,601557
0,1,2,6,4,3,1,1,2021-08-06 13:44:51,601557
-3,-5,-7,-8,-13,-10,-6,-4,2021-08-06 13:44:51,601557
-6,-3,-4,-6,-15,-9,-4,-3,2021-08-06 13:44:51,601557
1,0,-1,-1,0,1,1,1,2021-08-06 13:44:51,601557
5,5,4,3,11,8,6,2,2021-08-06 13:44:51,601557
-1,0,1,10,16,6,2,0,2021-08-06 13:44:51,602579
-5,-7,-8,-12,-15,-8,-6,-5,2021-08-06 13:44:51,617579
0,-1,4,10,13,6,1,0,2021-08-06 13:44:51,617579
3,2,3,3,-1,-1,0,1,2021-08-06 13:44:51,617579
-2,-2,-6,-10,-14,-6,-1,-1,2021-08-06 13:44:51,617579
-3,-4,-4,-6,-9,-7,-6,-4,2021-08-06 13:44:51,617579
3,3,2,3,3,4,2,2,2021-08-06 13:44:51,617579
1,1,2,0,-1,1,-1,0,2021-08-06 13:44:51,649545
1,-1,-4,-7,-4,-1,-1,-2,2021-08-06 13:44:51,649545
-4,-8,-12,-10,-9,-6,-5,-5,2021-08-06 13:44:51,649545
-2,-1,-2,-11,-18,-10,-4,-3,2021-08-06 13:44:51,649545
-1,1,2,1,-2,-4,-3,0,2021-08-06 13:44:51,649545
1,2,2,-1,-8,-2,1,1,2021-08-06 13:44:51,649545
4,5,9,25,35,15,8,5,2021-08-06 13:44:51,665592
-4,-6,-8,-4,-7,-7,-5,-6,2021-08-06 13:44:51,665592
0,1,0,-5,-9,-3,1,0,2021-08-06 13:44:51,681592
1,2,6,14,20,7,0,2,2021-08-06 13:44:51,681592
-1,0,0,-2,-14,-5,-3,-1,2021-08-06 13:44:51,681592
-4,-4,-7,-16,-11,-7,-3,-4,2021-08-06 13:44:51,681592
0,-3,-5,-12,-5,-2,-3,0,2021-08-06 13:44:51,712546
0,-2,-2,-5,-9,-4,-1,-3,2021-08-06 13:44:51,712546
3,4,4,10,18,10,5,3,2021-08-06 13:44:51,712546
-6,-5,-5,-11,-21,-15,-9,-6,2021-08-06 13:44:51,712546
-1,-2,-1,7,3,-2,-2,-4,2021-08-06 13:44:51,730544
-2,-3,0,-3,-8,-1,-1,-2,2021-08-06 13:44:51,730544
1,5,6,12,15,11,3,2,2021-08-06 13:44:51,744595
-2,-2,-1,-6,-7,-4,-3,-2,2021-08-06 13:44:51,760577
-7,-4,-4,-18,-24,-15,-8,-5,2021-08-06 13:44:51,760577
-1,0,-8,7,19,8,3,3,2021-08-06 13:44:51,760577
0,-4,-8,3,12,5,3,2,2021-08-06 13:44:51,775578
2,3,6,5,-2,3,3,1,2021-08-06 13:44:51,775578
-4,-1,-2,-10,-19,-15,-7,-6,2021-08-06 13:44:51,775578
-1,3,9,0,2,-1,0,0,2021-08-06 13:44:51,775578
2,11,6,-2,-2,1,2,0,2021-08-06 13:44:51,791581
2,14,25,14,20,7,1,2,2021-08-06 13:44:51,807591
0,-17,-24,1,-8,-4,-3,0,2021-08-06 13:44:51,807591
-2,-17,-38,-6,11,8,5,0,2021-08-06 13:44:51,807591
-6,-15,-17,-12,-9,-8,-6,-5,2021-08-06 13:44:51,807591
1,6,11,9,11,7,3,1,2021-08-06 13:44:51,807591
-7,3,11,-2,-6,-5,-5,-7,2021-08-06 13:44:51,807591
-2,1,9,-8,-22,-11,-5,-3,2021-08-06 13:44:51,807591
2,1,-4,1,-1,0,4,7,2021-08-06 13:44:51,807591
2,2,1,8,16,8,5,2,2021-08-06 13:44:51,808544
2,2,2,-4,-2,1,0,0,2021-08-06 13:44:51,823582
-4,-3,-1,-3,-12,-6,-7,-4,2021-08-06 13:44:51,823582
1,5,9,2,2,2,0,-1,2021-08-06 13:44:51,823582
-5,-8,-12,-7,-14,-10,-6,-2,2021-08-06 13:44:51,823582
1,1,0,7,13,12,7,5,2021-08-06 13:44:51,854547
-3,3,3,3,8,1,-4,-2,2021-08-06 13:44:51,869581
-2,1,3,-9,-20,-10,-4,-1,2021-08-06 13:44:51,885581
-1,-4,-8,6,14,8,3,1,2021-08-06 13:44:51,885581
2,5,4,9,15,8,4,3,2021-08-06 13:44:51,885581
1,3,11,10,8,0,-1,-2,2021-08-06 13:44:51,885581
3,2,0,8,10,10,5,3,2021-08-06 13:44:51,885581
-2,-8,-16,-10,-5,-1,1,1,2021-08-06 13:44:51,885581
-10,-10,-12,-21,-29,-20,-11,-8,2021-08-06 13:44:51,885581
-1,1,6,-7,-11,-8,-4,-2,2021-08-06 13:44:51,885581
-3,-5,-11,-2,0,-6,-5,-4,2021-08-06 13:44:51,901543
3,-1,1,8,9,6,3,0,2021-08-06 13:44:51,901543
1,3,3,0,4,6,4,3,2021-08-06 13:44:51,901543
0,-2,-4,0,-2,0,0,0,2021-08-06 13:44:51,901543
7,30,60,12,2,3,2,2,2021-08-06 13:44:51,901543
1,-7,-11,8,1,-1,-2,0,2021-08-06 13:44:51,901543
-10,-26,-47,-33,-35,-22,-12,-9,2021-08-06 13:44:51,917546
-4,-14,-25,-26,-5,1,0,-1,2021-08-06 13:44:51,917546
-2,1,0,19,30,17,6,0,2021-08-06 13:44:51,933544
5,14,41,25,17,11,6,4,2021-08-06 13:44:51,933544
3,6,10,10,8,2,3,1,2021-08-06 13:44:51,949581
-4,-7,-16,-20,-20,-14,-8,-3,2021-08-06 13:44:51,949581
-6,-12,-24,-28,-28,-18,-9,-5,2021-08-06 13:44:51,949581
-3,-5,-10,-1,-3,-2,-2,-3,2021-08-06 13:44:51,949581
3,3,13,18,21,10,3,0,2021-08-06 13:44:51,965581
4,12,17,16,10,9,5,4,2021-08-06 13:44:51,981543
-3,-6,0,-11,-19,-12,-4,-3,2021-08-06 13:44:52,012547
-2,-4,-11,-7,0,-4,-2,-1,2021-08-06 13:44:52,028589
0,1,-3,-3,0,-3,-2,-2,2021-08-06 13:44:52,028589
-3,1,5,7,-6,-5,-3,-3,2021-08-06 13:44:52,028589
5,0,-1,8,23,14,6,5,2021-08-06 13:44:52,028589
-5,-8,-12,-11,-13,-6,-4,-5,2021-08-06 13:44:52,028589
5,11,16,17,24,16,8,5,2021-08-06 13:44:52,028589
2,8,13,3,-2,1,1,1,2021-08-06 13:44:52,028589
-5,-8,-4,1,-22,-19,-10,-5,2021-08-06 13:44:52,028589
-3,-9,-19,-11,-13,-6,-3,-2,2021-08-06 13:44:52,028589
-2,-7,-14,-22,-7,-2,-2,-3,2021-08-06 13:44:52,028589
-7,-13,-15,-23,-15,-11,-7,-8,2021-08-06 13:44:52,029587
-2,-7,-16,-3,-1,3,1,-1,2021-08-06 13:44:52,029587
0,6,18,7,2,-2,0,-1,2021-08-06 13:44:52,029587
-1,3,13,12,-3,-6,-2,0,2021-08-06 13:44:52,044592
4,2,-10,-6,-3,2,2,2,2021-08-06 13:44:52,060583
4,4,8,13,30,17,8,2,2021-08-06 13:44:52,060583
-5,-5,-10,-16,-26,-17,-9,-4,2021-08-06 13:44:52,060583
-1,2,7,24,36,15,6,2,2021-08-06 13:44:52,060583
1,4,11,7,6,4,2,1,2021-08-06 13:44:52,060583
-5,-5,-13,-14,-18,-10,-6,-3,2021-08-06 13:44:52,060583
0,0,0,-11,-10,-3,0,2,2021-08-06 13:44:52,060583
3,9,26,11,5,1,-1,0,2021-08-06 13:44:52,090592
-5,-8,-13,-1,-12,-10,-7,-5,2021-08-06 13:44:52,090592
1,-5,-25,-3,10,11,5,5,2021-08-06 13:44:52,090592
-10,-12,-22,-39,-35,-25,-15,-10,2021-08-06 13:44:52,090592
-5,-3,-4,-15,-27,-15,-4,-4,2021-08-06 13:44:52,097591
2,6,15,18,18,8,3,1,2021-08-06 13:44:52,097591
0,2,12,7,6,6,2,0,2021-08-06 13:44:52,106591
-5,-4,-7,-9,-18,-15,-7,-5,2021-08-06 13:44:52,106591
14,14,16,42,74,49,26,15,2021-08-06 13:44:52,122581
4,4,12,26,38,20,9,4,2021-08-06 13:44:52,122581
1,-2,-5,-8,-5,-2,2,0,2021-08-06 13:44:52,122581
-1,0,1,6,8,0,-2,0,2021-08-06 13:44:52,122581
-9,-10,-15,-31,-50,-32,-16,-9,2021-08-06 13:44:52,154578
-2,-3,-6,-7,-16,-5,0,-3,2021-08-06 13:44:52,154578
0,0,2,4,10,0,-3,1,2021-08-06 13:44:52,154578
1,2,5,9,13,8,2,2,2021-08-06 13:44:52,154578
-2,-4,-3,-9,-18,-11,-7,-2,2021-08-06 13:44:52,154578
0,0,-1,2,-1,0,2,3,2021-08-06 13:44:52,154578
-3,-5,-11,-13,-11,-7,-3,-3,2021-08-06 13:44:52,170578
-2,-1,1,2,7,3,-1,-1,2021-08-06 13:44:52,170578
-6,-7,-5,-19,-25,-11,-8,-7,2021-08-06 13:44:52,186582
7,7,6,16,28,16,9,5,2021-08-06 13:44:52,202578
-6,-1,3,5,-8,-7,-7,-6,2021-08-06 13:44:52,218591
8,9,17,27,38,23,10,5,2021-08-06 13:44:52,218591
-3,-5,-21,-33,-21,-16,-7,-2,2021-08-06 13:44:52,218591
-3,-4,-5,-4,3,5,3,-1,2021-08-06 13:44:52,218591
-4,-6,-10,-12,-31,-21,-7,-7,2021-08-06 13:44:52,218591
10,11,16,33,46,27,15,10,2021-08-06 13:44:52,218591
-2,-1,6,8,4,1,0,-2,2021-08-06 13:44:52,218591
-2,-1,5,-6,-20,-11,-5,-3,2021-08-06 13:44:52,219578
-3,-4,-14,-29,-31,-13,-7,-3,2021-08-06 13:44:52,234578
-2,-6,-11,-3,11,3,4,0,2021-08-06 13:44:52,234578
-5,-6,-8,-14,-20,-11,-7,-4,2021-08-06 13:44:52,250545
-3,-4,-9,-10,-7,-11,-5,-3,2021-08-06 13:44:52,266554
1,3,10,9,7,4,0,0,2021-08-06 13:44:52,266554
0,4,7,8,4,7,1,-1,2021-08-06 13:44:52,266554
5,4,4,15,8,9,5,3,2021-08-06 13:44:52,266554
-1,0,9,-5,-9,-6,-1,-1,2021-08-06 13:44:52,266554
-1,-1,10,8,2,-3,-4,-3,2021-08-06 13:44:52,266554
7,12,10,8,12,5,6,4,2021-08-06 13:44:52,266554
4,5,6,12,23,17,9,6,2021-08-06 13:44:52,282544
-6,-15,-44,-14,-2,-3,-6,-4,2021-08-06 13:44:52,282544
-3,11,45,-12,-36,-23,-12,-6,2021-08-06 13:44:52,282544
-3,-10,-17,7,11,5,2,-2,2021-08-06 13:44:52,282544
-4,-29,-82,-28,-12,-8,-4,-4,2021-08-06 13:44:52,312544
0,-4,-5,0,22,14,6,1,2021-08-06 13:44:52,312544
-6,-10,-13,-7,10,5,-1,-5,2021-08-06 13:44:52,312544
-8,2,22,-26,-66,-38,-18,-11,2021-08-06 13:44:52,312544
8,23,60,32,32,16,10,5,2021-08-06 13:44:52,328578
6,13,27,24,17,9,7,3,2021-08-06 13:44:52,328578
4,3,-1,8,15,9,6,3,2021-08-06 13:44:52,328578
-3,-8,-26,-14,-15,-8,-4,-4,2021-08-06 13:44:52,328578
0,-3,-4,6,11,4,2,2,2021-08-06 13:44:52,344579
-3,-7,-11,-13,-23,-14,-10,-6,2021-08-06 13:44:52,360581
7,8,12,23,36,21,10,8,2021-08-06 13:44:52,360581
-4,-5,-7,-12,-21,-13,-7,-4,2021-08-06 13:44:52,360581
-1,-2,-2,5,17,7,2,0,2021-08-06 13:44:52,360581
-3,1,8,-8,-18,-11,-5,-3,2021-08-06 13:44:52,360581
0,-2,-6,-4,-2,-6,-1,0,2021-08-06 13:44:52,360581
-2,-8,-17,-14,-18,-6,-4,-3,2021-08-06 13:44:52,360581
2,9,20,15,14,11,6,3,2021-08-06 13:44:52,392595
1,5,13,10,4,0,-1,-1,2021-08-06 13:44:52,408578
-1,-8,-31,-23,-14,-1,-1,-1,2021-08-06 13:44:52,438546
-2,3,9,5,4,-1,0,-1,2021-08-06 13:44:52,438546
-5,6,34,5,-24,-14,-7,-5,2021-08-06 13:44:52,438546
-4,-17,-75,-30,-20,-17,-12,-5,2021-08-06 13:44:52,438546
4,-8,-22,-1,27,22,13,7,2021-08-06 13:44:52,438546
-2,-2,10,3,20,13,5,-1,2021-08-06 13:44:52,438546
-7,-2,3,-18,-36,-26,-13,-10,2021-08-06 13:44:52,438546
6,17,64,36,21,12,5,4,2021-08-06 13:44:52,438546
5,-1,-23,7,-8,-4,-1,1,2021-08-06 13:44:52,439544
-3,-13,-34,-16,-5,-2,-2,-1,2021-08-06 13:44:52,439544
-8,-14,-23,-16,-14,-12,-8,-7,2021-08-06 13:44:52,439544
-5,-3,2,-13,-10,-4,-2,-1,2021-08-06 13:44:52,439544
-2,5,20,1,-5,-4,-3,-1,2021-08-06 13:44:52,454544
3,8,23,15,10,7,4,2,2021-08-06 13:44:52,454544
-5,-6,-15,-14,-13,-11,-8,-5,2021-08-06 13:44:52,454544
6,6,15,33,32,24,12,7,2021-08-06 13:44:52,454544
-1,3,10,0,-6,-6,-4,-2,2021-08-06 13:44:52,469579
-2,-2,-5,-13,-17,-9,-6,-1,2021-08-06 13:44:52,469579
5,6,-10,7,27,15,5,6,2021-08-06 13:44:52,485544
-2,10,67,5,-18,-10,-5,-4,2021-08-06 13:44:52,501578
1,-5,-33,26,23,12,5,3,2021-08-06 13:44:52,517577
-2,-13,-41,-35,-13,-9,-6,-2,2021-08-06 13:44:52,517577
-7,-8,-5,-23,-29,-17,-10,-8,2021-08-06 13:44:52,517577
-4,-11,-36,-16,-7,-4,0,-1,2021-08-06 13:44:52,517577
-2,-2,18,-13,-13,-9,-6,-3,2021-08-06 13:44:52,517577
-5,-2,5,2,-5,-9,-5,-5,2021-08-06 13:44:52,517577
1,5,15,10,8,7,4,3,2021-08-06 13:44:52,517577
3,10,22,15,3,1,0,2,2021-08-06 13:44:52,518582
1,-2,-24,6,17,10,4,0,2021-08-06 13:44:52,549544
2,-2,-14,-8,8,8,4,3,2021-08-06 13:44:52,549544
-2,-9,-11,-11,-1,0,1,-2,2021-08-06 13:44:52,549544
-9,-10,-9,-31,-50,-32,-16,-10,2021-08-06 13:44:52,549544
6,12,37,43,64,29,12,6,2021-08-06 13:44:52,549544
4,10,24,25,1,5,4,2,2021-08-06 13:44:52,549544
4,4,-1,15,12,8,4,4,2021-08-06 13:44:52,565582
-6,-10,-34,-30,-15,-12,-6,-5,2021-08-06 13:44:52,581595
-10,-14,-24,-34,-44,-24,-13,-10,2021-08-06 13:44:52,581595
0,3,17,14,12,7,3,1,2021-08-06 13:44:52,597546
0,0,6,3,4,-1,-1,-2,2021-08-06 13:44:52,597546
-1,-4,-18,-18,-9,-5,-2,0,2021-08-06 13:44:52,597546
0,2,9,-2,-7,-6,-2,-2,2021-08-06 13:44:52,597546
6,9,11,18,25,15,10,4,2021-08-06 13:44:52,597546
1,3,11,21,10,7,-1,1,2021-08-06 13:44:52,597546
1,0,-9,-4,4,6,2,0,2021-08-06 13:44:52,598544
0,1,2,7,1,0,0,0,2021-08-06 13:44:52,598544
-9,-12,-20,-36,-34,-26,-14,-9,2021-08-06 13:44:52,598544
-2,-9,-14,-20,-9,-2,0,0,2021-08-06 13:44:52,627579
-6,-11,-33,-2,-2,-4,-5,-6,2021-08-06 13:44:52,643591
2,14,47,10,3,3,2,1,2021-08-06 13:44:52,659579
2,1,-6,22,14,9,3,0,2021-08-06 13:44:52,659579
2,3,2,0,5,2,3,3,2021-08-06 13:44:52,659579
-4,-7,0,-5,-7,-5,-4,-4,2021-08-06 13:44:52,659579
0,5,28,9,0,1,2,-1,2021-08-06 13:44:52,659579
4,9,5,11,17,11,4,2,2021-08-06 13:44:52,659579
-1,-5,-35,-13,-3,-1,0,-1,2021-08-06 13:44:52,659579
0,-4,-9,-5,2,1,4,2,2021-08-06 13:44:52,660578
-12,-13,-20,-25,-35,-27,-16,-10,2021-08-06 13:44:52,660578
1,6,28,8,10,6,4,3,2021-08-06 13:44:52,660578
-1,2,6,10,-2,-4,-4,-3,2021-08-06 13:44:52,691572
5,7,5,16,11,9,6,6,2021-08-06 13:44:52,707580
1,-3,-5,-17,-9,-1,1,-1,2021-08-06 13:44:52,707580
0,-3,-4,2,13,4,2,1,2021-08-06 13:44:52,707580
-3,-2,-4,-14,-20,-15,-7,-5,2021-08-06 13:44:52,707580
-2,0,-1,2,-7,-7,-5,-2,2021-08-06 13:44:52,707580
-2,-3,-1,0,-7,-2,-4,-3,2021-08-06 13:44:52,707580
-2,-1,-3,0,-3,0,-2,-1,2021-08-06 13:44:52,707580
-4,-3,1,-9,-5,-4,-3,-4,2021-08-06 13:44:52,723544
5,6,15,10,14,7,5,3,2021-08-06 13:44:52,723544
2,1,-13,1,5,1,-1,-1,2021-08-06 13:44:52,723544
-5,-5,-4,-5,-10,-6,-4,-3,2021-08-06 13:44:52,723544
-1,0,7,8,3,1,1,0,2021-08-06 13:44:52,755578
0,2,6,8,10,5,2,1,2021-08-06 13:44:52,771578
-1,-5,-14,-8,-4,-3,-2,0,2021-08-06 13:44:52,787543
-3,-3,-6,-22,-14,-10,-5,-3,2021-08-06 13:44:52,787543
-4,-5,-2,-8,-16,-11,-6,-4,2021-08-06 13:44:52,787543
3,3,8,15,13,14,4,3,2021-08-06 13:44:52,787543
5,7,9,28,35,21,9,3,2021-08-06 13:44:52,787543
-2,-3,-5,-10,-15,-5,0,-1,2021-08-06 13:44:52,787543
-6,-6,-11,-23,-23,-20,-8,-6,2021-08-06 13:44:52,787543
-2,-3,1,1,5,0,-1,0,2021-08-06 13:44:52,787543
-3,-4,-11,-10,-17,-13,-7,-3,2021-08-06 13:44:52,788579
6,9,14,27,32,22,10,6,2021-08-06 13:44:52,788579
2,2,0,-2,16,14,9,5,2021-08-06 13:44:52,818546
-4,-2,-1,-1,0,-2,-4,-4,2021-08-06 13:44:52,834578
-1,-1,-3,-10,-10,-8,-2,-1,2021-08-06 13:44:52,850548
-2,-2,-1,-1,-10,-9,-5,-4,2021-08-06 13:44:52,850548
5,4,5,13,6,7,4,4,2021-08-06 13:44:52,850548
-1,-2,-2,-9,-4,-5,-3,-4,2021-08-06 13:44:52,850548
-1,-2,-4,-1,-1,0,-1,-1,2021-08-06 13:44:52,850548
-2,-5,-7,-9,-14,-10,-4,-4,2021-08-06 13:44:52,850548
1,2,5,8,5,4,1,2,2021-08-06 13:44:52,850548
1,2,2,5,7,4,2,0,2021-08-06 13:44:52,850548
-1,-2,-3,-3,-6,-5,-4,-1,2021-08-06 13:44:52,851578
-4,-5,-3,-7,-8,-7,-5,-5,2021-08-06 13:44:52,851578
-3,-5,-3,-8,-9,-4,-3,-2,2021-08-06 13:44:52,866562
-5,-5,-7,-4,-6,-3,-1,-3,2021-08-06 13:44:52,866562
2,4,3,7,12,9,7,4,2021-08-06 13:44:52,866562
1,4,8,11,11,8,2,2,2021-08-06 13:44:52,866562
0,1,4,9,9,8,0,-1,2021-08-06 13:44:52,897543
2,0,-5,-9,-10,-5,-1,2,2021-08-06 13:44:52,913584
-9,-10,-12,-20,-25,-21,-11,-7,2021-08-06 13:44:52,929584
-4,-6,-6,-12,-15,-10,-5,-4,2021-08-06 13:44:52,929584
-2,0,3,7,5,2,0,-1,2021-08-06 13:44:52,929584
1,2,6,8,12,11,5,1,2021-08-06 13:44:52,929584
4,4,6,11,22,15,4,4,2021-08-06 13:44:52,929584
-1,0,0,1,2,-1,1,0,2021-08-06 13:44:52,929584
0,-1,-2,0,-1,0,0,0,2021-08-06 13:44:52,930581
-1,-2,-4,-7,-6,-3,-4,-1,2021-08-06 13:44:52,930581
-3,-2,-2,-4,-5,-5,-4,-1,2021-08-06 13:44:52,930581
2,1,0,0,5,3,2,2,2021-08-06 13:44:52,930581
-1,-1,0,-1,-6,-7,-2,-1,2021-08-06 13:44:52,945544
-2,-2,-4,-9,-16,-9,-3,-1,2021-08-06 13:44:52,945544
-1,-1,3,11,10,4,1,-1,2021-08-06 13:44:52,960702
1,3,0,1,7,4,3,1,2021-08-06 13:44:52,975668
0,3,6,9,16,9,3,3,2021-08-06 13:44:52,990671
-2,-1,4,12,2,0,-3,-1,2021-08-06 13:44:52,990671
1,-1,-7,-24,-12,-3,1,2,2021-08-06 13:44:52,990671
-4,-6,-13,-13,-19,-17,-9,-5,2021-08-06 13:44:52,990671
0,-2,-2,0,2,1,0,2,2021-08-06 13:44:52,990671
-1,2,9,16,12,4,2,-1,2021-08-06 13:44:52,990671
1,1,3,6,1,5,3,0,2021-08-06 13:44:52,990671
-3,-4,-3,-11,-4,-2,-1,-3,2021-08-06 13:44:52,990671
-1,-1,-3,-2,-8,-5,-5,-3,2021-08-06 13:44:53,006718
-1,-1,-1,1,6,2,-1,1,2021-08-06 13:44:53,022670
-3,-4,-4,-4,-14,-13,-5,-3,2021-08-06 13:44:53,038716
4,4,6,8,2,4,3,3,2021-08-06 13:44:53,038716
3,5,1,0,8,6,5,1,2021-08-06 13:44:53,038716
-2,-1,-4,-13,-8,-4,-1,-3,2021-08-06 13:44:53,038716
-3,-4,-4,-6,-7,-4,-3,-5,2021-08-06 13:44:53,038716
-2,-1,-1,3,1,0,-1,-1,2021-08-06 13:44:53,038716
1,1,6,13,10,6,1,0,2021-08-06 13:44:53,039703
1,2,0,0,8,5,3,2,2021-08-06 13:44:53,039703
-2,-3,-5,-8,-10,-5,-5,-2,2021-08-06 13:44:53,054687
-2,-1,5,5,-1,-2,-2,-2,2021-08-06 13:44:53,054687
-1,-1,-2,3,4,5,1,-1,2021-08-06 13:44:53,070727
-3,-7,-9,-12,-14,-13,-6,-3,2021-08-06 13:44:53,070727
-2,-3,-2,-8,-9,-8,-1,0,2021-08-06 13:44:53,070727
1,-2,-3,-6,3,5,1,2,2021-08-06 13:44:53,070727
-3,0,2,2,-1,-2,-2,-2,2021-08-06 13:44:53,102706
0,2,-1,3,-3,1,0,-1,2021-08-06 13:44:53,118701
6,10,16,33,43,25,11,6,2021-08-06 13:44:53,118701
0,1,3,3,9,5,2,0,2021-08-06 13:44:53,118701
-5,-9,-17,-25,-28,-24,-10,-6,2021-08-06 13:44:53,118701
-5,-10,-11,-23,-34,-22,-9,-6,2021-08-06 13:44:53,118701
-1,1,4,11,8,6,0,0,2021-08-06 13:44:53,118701
0,2,2,2,5,5,-1,1,2021-08-06 13:44:53,118701
2,1,4,12,17,12,4,1,2021-08-06 13:44:53,134669
-1,0,2,3,4,1,-1,-1,2021-08-06 13:44:53,134669
2,2,0,-1,-8,-5,-2,1,2021-08-06 13:44:53,134669
0,-1,1,3,2,3,2,-1,2021-08-06 13:44:53,134669
-4,-6,-9,-18,-23,-14,-7,-3,2021-08-06 13:44:53,150670
0,-1,-5,-2,5,1,0,0,2021-08-06 13:44:53,150670
-1,-2,-2,-2,1,2,-1,-1,2021-08-06 13:44:53,150670
0,0,1,5,6,4,0,0,2021-08-06 13:44:53,150670
2,3,5,2,1,1,3,0,2021-08-06 13:44:53,166670
-1,3,6,11,12,6,-1,0,2021-08-06 13:44:53,182304
0,1,0,1,3,1,2,0,2021-08-06 13:44:53,182304
-4,-6,-9,-16,-18,-12,-5,-3,2021-08-06 13:44:53,182304
-5,-7,-15,-14,-18,-9,-5,-3,2021-08-06 13:44:53,182304
0,0,0,-4,5,1,1,-1,2021-08-06 13:44:53,182304
-1,-1,0,0,-5,-4,-3,-3,2021-08-06 13:44:53,182304
1,3,7,8,6,6,2,0,2021-08-06 13:44:53,182304
2,4,7,7,11,8,4,0,2021-08-06 13:44:53,212300
1,1,0,4,5,3,1,1,2021-08-06 13:44:53,212300
-2,-2,-4,-5,-5,-3,-3,-1,2021-08-06 13:44:53,212300
0,-2,-4,-5,-9,-4,-2,0,2021-08-06 13:44:53,212300
0,-1,-1,3,3,2,0,-1,2021-08-06 13:44:53,228299
1,0,-1,-1,0,0,-1,0,2021-08-06 13:44:53,238265
0,-1,-1,-2,-3,-2,-1,-1,2021-08-06 13:44:53,238265
-2,1,0,2,1,-2,-3,-1,2021-08-06 13:44:53,238265
