EMG 1,EMG 2,EMG 3,EMG 4,EMG 5,EMG 6,EMG 7,EMG 8,Timestamp,Milliseconds
3,1,2,4,1,-1,0,-1,2021-08-06 13:45:59,821954
-1,-1,-2,-2,-5,-4,-2,-1,2021-08-06 13:45:59,821954
-3,-4,-2,-4,-10,-7,-4,-3,2021-08-06 13:45:59,837919
-3,-2,-6,-12,-17,-11,-3,-3,2021-08-06 13:45:59,837919
-2,0,-2,-2,2,1,0,-2,2021-08-06 13:45:59,837919
1,1,0,2,3,1,1,2,2021-08-06 13:45:59,837919
-6,-6,-9,-13,-13,-7,-6,-4,2021-08-06 13:45:59,837919
3,2,6,17,21,14,6,3,2021-08-06 13:45:59,837919
1,1,4,6,7,3,1,0,2021-08-06 13:45:59,837919
1,1,-1,5,0,1,0,2,2021-08-06 13:45:59,837919
-4,-2,-7,-15,-9,-6,-5,-2,2021-08-06 13:45:59,853919
-5,-6,-7,-15,-15,-9,-6,-3,2021-08-06 13:45:59,853919
1,2,1,1,-6,2,1,0,2021-08-06 13:45:59,853919
5,5,15,36,28,10,5,3,2021-08-06 13:45:59,853919
3,3,1,9,0,4,4,1,2021-08-06 13:45:59,869918
-1,-1,-5,-19,-6,-3,-4,-2,2021-08-06 13:45:59,869918
-10,-11,-15,-31,-32,-12,-8,-6,2021-08-06 13:45:59,869918
-1,-1,-2,-8,22,11,4,0,2021-08-06 13:45:59,869918
-4,-7,-10,-2,-7,-5,-4,-3,2021-08-06 13:45:59,900920
-1,1,0,5,-2,-5,-3,-3,2021-08-06 13:45:59,916920
2,3,7,9,-8,-7,-2,0,2021-08-06 13:45:59,932919
1,-1,-1,-2,-8,-5,-2,-3,2021-08-06 13:45:59,946920
5,4,8,13,19,10,4,4,2021-08-06 13:45:59,946920
-5,-4,-2,-4,-12,-7,-5,-4,2021-08-06 13:45:59,946920
-4,-5,-5,-4,-4,-9,-4,-1,2021-08-06 13:45:59,946920
8,13,18,37,41,28,16,10,2021-08-06 13:45:59,946920
-1,-4,-7,-11,-11,-8,-4,-3,2021-08-06 13:45:59,978921
-4,-6,-18,-36,-23,-11,-6,-4,2021-08-06 13:45:59,978921
-11,-13,-6,-32,-22,-15,-11,-10,2021-08-06 13:45:59,978921
-3,-5,-25,-9,-5,-2,0,-1,2021-08-06 13:45:59,978921
1,3,9,10,10,4,2,1,2021-08-06 13:45:59,978921
4,5,9,24,11,6,4,2,2021-08-06 13:45:59,978921
-4,-3,-5,-17,-36,-21,-11,-6,2021-08-06 13:45:59,978921
2,3,-1,-24,-21,-4,1,4,2021-08-06 13:45:59,978921
7,8,17,50,65,36,15,7,2021-08-06 13:45:59,994918
1,-1,2,4,-6,0,-1,-1,2021-08-06 13:45:59,994918
4,3,9,23,21,13,6,3,2021-08-06 13:46:00,010918
-6,-6,-8,-18,-35,-26,-12,-6,2021-08-06 13:46:00,010918
-1,-3,-10,-26,-25,-11,-4,-1,2021-08-06 13:46:00,010918
-3,-2,0,-7,3,0,-3,-2,2021-08-06 13:46:00,010918
-3,-3,-10,-13,-21,-10,-6,-2,2021-08-06 13:46:00,010918
-2,-1,0,-1,11,5,0,-2,2021-08-06 13:46:00,010918
-3,-3,-3,1,2,1,-1,-3,2021-08-06 13:46:00,010918
-1,-1,-2,2,9,2,0,-1,2021-08-06 13:46:00,011921
3,2,3,9,2,4,2,1,2021-08-06 13:46:00,042921
2,3,7,19,20,8,3,2,2021-08-06 13:46:00,058919
-3,-2,-2,-4,-11,-11,-4,-4,2021-08-06 13:46:00,074919
-3,-3,-6,-13,-38,-20,-6,-4,2021-08-06 13:46:00,074919
7,6,8,30,60,31,15,6,2021-08-06 13:46:00,074919
-3,-5,-2,-10,2,2,-2,-3,2021-08-06 13:46:00,074919
-4,-5,-11,-34,-35,-16,-7,-4,2021-08-06 13:46:00,074919
-2,-5,-11,-2,0,2,1,0,2021-08-06 13:46:00,074919
2,3,0,6,5,0,-1,0,2021-08-06 13:46:00,074919
-1,-2,7,4,2,-1,-3,-4,2021-08-06 13:46:00,075920
-9,-9,-10,-22,-29,-21,-14,-8,2021-08-06 13:46:00,075920
-2,-4,-8,-3,-3,-2,-2,-2,2021-08-06 13:46:00,075920
7,11,10,16,14,12,9,7,2021-08-06 13:46:00,106919
4,2,5,13,12,7,3,-1,2021-08-06 13:46:00,122919
1,2,4,10,7,4,2,1,2021-08-06 13:46:00,122919
0,2,7,7,15,6,2,1,2021-08-06 13:46:00,122919
-5,-6,-10,-14,-15,-11,-7,-5,2021-08-06 13:46:00,122919
-5,-5,-4,-12,-22,-15,-7,-7,2021-08-06 13:46:00,122919
-1,-1,-4,-6,-13,-6,-1,-2,2021-08-06 13:46:00,122919
7,7,9,23,39,20,10,6,2021-08-06 13:46:00,123920
-2,-3,-4,-6,-8,-1,-2,-2,2021-08-06 13:46:00,138919
0,-1,-5,-11,-13,-8,-4,-2,2021-08-06 13:46:00,154921
7,10,11,27,32,22,12,8,2021-08-06 13:46:00,185919
-8,-6,-5,-12,-21,-12,-8,-7,2021-08-06 13:46:00,185919
-4,-4,-6,-10,-13,-8,-3,-4,2021-08-06 13:46:00,200920
-2,-2,-8,-13,-3,-2,-1,-2,2021-08-06 13:46:00,216920
-3,-3,-3,-6,-10,-6,-3,-2,2021-08-06 13:46:00,216920
-2,-2,0,-6,-6,-5,-3,-3,2021-08-06 13:46:00,216920
0,2,3,5,-1,2,1,-1,2021-08-06 13:46:00,216920
0,2,8,20,2,-4,-1,-1,2021-08-06 13:46:00,216920
-4,-6,-8,-8,-20,-13,-7,-4,2021-08-06 13:46:00,216920
2,2,-5,-18,-4,4,3,1,2021-08-06 13:46:00,216920
-6,-11,-14,-25,7,3,-3,-3,2021-08-06 13:46:00,217921
1,0,0,5,7,2,1,0,2021-08-06 13:46:00,217921
0,3,4,11,12,6,1,0,2021-08-06 13:46:00,217921
2,2,10,20,-5,-5,-2,2,2021-08-06 13:46:00,217921
0,3,-1,-3,-6,-5,-1,0,2021-08-06 13:46:00,217921
-4,-4,-3,-14,-13,-6,-5,-2,2021-08-06 13:46:00,217921
2,2,7,18,25,13,4,0,2021-08-06 13:46:00,217921
-2,-2,-5,-10,-10,-6,-2,-3,2021-08-06 13:46:00,217921
-1,-1,-1,-1,-5,-4,-2,-1,2021-08-06 13:46:00,232919
-3,0,-1,3,5,1,0,3,2021-08-06 13:46:00,232919
-2,-4,-5,-8,-10,-6,-2,-2,2021-08-06 13:46:00,232919
0,-1,-1,-6,1,-1,-1,0,2021-08-06 13:46:00,232919
-1,-2,3,9,13,3,-1,-2,2021-08-06 13:46:00,264920
-1,-2,-1,5,2,0,1,-1,2021-08-06 13:46:00,264920
-3,-6,-8,-22,-23,-7,-3,-2,2021-08-06 13:46:00,264920
5,6,14,38,56,30,10,7,2021-08-06 13:46:00,264920
-3,-3,-1,-5,-16,-11,-5,-2,2021-08-06 13:46:00,280919
-5,-7,-11,-21,-22,-11,-7,-5,2021-08-06 13:46:00,296919
5,7,10,18,21,10,4,6,2021-08-06 13:46:00,296919
-1,-1,1,2,7,0,-1,-1,2021-08-06 13:46:00,296919
-2,-3,-3,-4,-6,-2,-2,-2,2021-08-06 13:46:00,296919
-3,-1,-1,-5,-6,-1,0,-1,2021-08-06 13:46:00,296919
2,1,0,2,3,2,1,0,2021-08-06 13:46:00,296919
-2,-1,-3,-8,-14,-7,-4,-3,2021-08-06 13:46:00,296919
-1,1,-1,4,0,-1,0,-1,2021-08-06 13:46:00,306919
-2,-2,-2,-1,-1,0,-1,-2,2021-08-06 13:46:00,307920
-1,-2,-7,-10,-8,-5,-2,-2,2021-08-06 13:46:00,307920
1,2,0,6,8,7,4,2,2021-08-06 13:46:00,307920
-1,1,-1,-2,-4,-2,-2,-1,2021-08-06 13:46:00,344919
-2,-3,-3,-6,-17,-8,-4,-3,2021-08-06 13:46:00,344919
-1,0,-2,-9,-4,0,0,1,2021-08-06 13:46:00,344919
3,3,4,20,30,14,7,3,2021-08-06 13:46:00,344919
-1,-3,-1,-3,5,2,1,-1,2021-08-06 13:46:00,344919
-1,-1,-1,1,3,0,-1,-1,2021-08-06 13:46:00,344919
-1,-2,-5,2,-1,0,0,-1,2021-08-06 13:46:00,360918
-4,-4,-3,-12,-27,-17,-8,-4,2021-08-06 13:46:00,360918
2,1,3,8,13,7,4,4,2021-08-06 13:46:00,375920
1,2,7,8,9,5,3,0,2021-08-06 13:46:00,375920
-11,-11,-12,-31,-40,-28,-14,-11,2021-08-06 13:46:00,375920
3,4,5,23,36,20,9,5,2021-08-06 13:46:00,375920
1,2,-1,-5,-17,-8,-2,-1,2021-08-06 13:46:00,391921
5,7,7,18,35,21,7,3,2021-08-06 13:46:00,391921
-3,-3,-3,-7,-2,-5,-4,-4,2021-08-06 13:46:00,391921
-8,-8,-10,-24,-32,-20,-12,-7,2021-08-06 13:46:00,391921
1,0,3,7,0,0,0,1,2021-08-06 13:46:00,423919
1,2,3,12,16,6,3,4,2021-08-06 13:46:00,439921
0,0,-2,1,0,1,-2,-1,2021-08-06 13:46:00,439921
-4,-6,-4,-11,-17,-14,-8,-6,2021-08-06 13:46:00,439921
-5,-6,-7,-5,-17,-11,-6,-5,2021-08-06 13:46:00,439921
4,1,3,-13,1,3,7,5,2021-08-06 13:46:00,439921
9,10,18,45,68,36,16,9,2021-08-06 13:46:00,439921
-3,-6,-16,-24,-33,-19,-8,-5,2021-08-06 13:46:00,439921
-6,-6,-8,-14,-23,-17,-10,-7,2021-08-06 13:46:00,455919
5,7,4,15,20,15,10,7,2021-08-06 13:46:00,455919
-2,-4,-2,-9,-10,-6,-3,-2,2021-08-06 13:46:00,455919
0,0,0,0,1,2,-1,-1,2021-08-06 13:46:00,455919
0,0,2,5,4,2,0,-1,2021-08-06 13:46:00,470921
-5,-5,-5,-9,-20,-12,-7,-4,2021-08-06 13:46:00,486921
-2,-3,-3,-4,-7,-5,-3,-3,2021-08-06 13:46:00,486921
-2,-4,-3,1,-2,-2,0,-1,2021-08-06 13:46:00,486921
-1,-1,-5,-14,-11,-4,1,-1,2021-08-06 13:46:00,502921
1,2,5,12,9,4,1,0,2021-08-06 13:46:00,502921
0,-1,-1,3,4,1,0,-1,2021-08-06 13:46:00,502921
-2,0,3,7,2,-1,-2,-2,2021-08-06 13:46:00,502921
-3,-4,-6,-7,0,-3,-3,-2,2021-08-06 13:46:00,518919
1,1,-5,-4,6,6,2,1,2021-08-06 13:46:00,534919
-5,-7,-8,-24,-28,-12,-9,-4,2021-08-06 13:46:00,550920
0,-2,1,0,12,5,2,1,2021-08-06 13:46:00,566921
1,-2,-5,6,5,3,2,3,2021-08-06 13:46:00,566921
-1,-1,0,3,-9,-4,-4,-2,2021-08-06 13:46:00,566921
-1,0,2,3,2,-4,-1,0,2021-08-06 13:46:00,566921
-1,1,3,0,-3,-3,-2,-2,2021-08-06 13:46:00,566921
-3,-1,3,2,-2,0,-1,-3,2021-08-06 13:46:00,566921
-6,-7,-11,-34,-18,-14,-8,-7,2021-08-06 13:46:00,566921
-4,-3,-8,-5,-7,-4,-2,0,2021-08-06 13:46:00,566921
2,1,3,6,13,10,4,2,2021-08-06 13:46:00,566921
8,8,9,22,28,14,8,7,2021-08-06 13:46:00,582920
0,-2,1,7,0,0,0,-1,2021-08-06 13:46:00,582920
-1,0,2,-1,-1,0,-1,-1,2021-08-06 13:46:00,582920
1,-1,-5,-8,-10,-6,-2,-2,2021-08-06 13:46:00,582920
-1,-2,-2,-7,-9,-4,-2,-2,2021-08-06 13:46:00,582920
-1,-1,3,6,5,0,-2,-2,2021-08-06 13:46:00,582920
-1,-2,-5,-8,-9,-4,-2,0,2021-08-06 13:46:00,598919
0,3,4,10,14,8,4,0,2021-08-06 13:46:00,614919
0,0,-1,-6,2,1,-2,-1,2021-08-06 13:46:00,614919
-2,-1,-4,1,-1,-1,-2,-3,2021-08-06 13:46:00,614919
-3,-3,-2,2,0,-2,-2,-3,2021-08-06 13:46:00,614919
-3,-5,-5,-13,-18,-10,-5,-4,2021-08-06 13:46:00,614919
3,6,7,11,22,13,4,1,2021-08-06 13:46:00,630919
-2,-2,0,5,0,-4,-3,-2,2021-08-06 13:46:00,630919
-1,-1,-3,-7,-8,-6,-1,-2,2021-08-06 13:46:00,630919
-3,-3,-5,-9,-8,-4,-2,-1,2021-08-06 13:46:00,630919
-2,-6,-3,-2,-4,-3,-2,-2,2021-08-06 13:46:00,646920
2,3,1,0,-2,0,3,2,2021-08-06 13:46:00,646920
2,2,5,10,13,9,3,1,2021-08-06 13:46:00,662919
-3,-4,-4,-9,-11,-6,-4,-2,2021-08-06 13:46:00,668919
-1,-1,-4,-8,-14,-9,-4,-1,2021-08-06 13:46:00,668919
-4,-3,-3,-8,-3,-4,-2,-3,2021-08-06 13:46:00,668919
4,3,5,16,25,14,7,3,2021-08-06 13:46:00,669920
0,1,2,4,4,3,2,2,2021-08-06 13:46:00,669920
-2,0,1,6,3,1,0,0,2021-08-06 13:46:00,692919
-4,-4,-3,-5,-12,-9,-6,-3,2021-08-06 13:46:00,692919
1,2,0,-4,-8,-7,-3,0,2021-08-06 13:46:00,692919
-6,-5,-9,-19,-20,-11,-7,-7,2021-08-06 13:46:00,692919
3,2,0,-3,9,5,2,3,2021-08-06 13:46:00,708919
1,0,0,5,-2,3,1,1,2021-08-06 13:46:00,708919
-2,-3,-2,0,-2,0,-2,-4,2021-08-06 13:46:00,724919
1,4,3,8,11,4,2,2,2021-08-06 13:46:00,740919
-2,-5,-2,-7,-7,-4,0,-3,2021-08-06 13:46:00,772920
0,0,2,6,8,2,-2,0,2021-08-06 13:46:00,772920
-1,-5,-4,-11,-17,-9,-4,-1,2021-08-06 13:46:00,772920
6,6,6,14,24,15,5,4,2021-08-06 13:46:00,772920
0,0,1,6,14,5,1,-1,2021-08-06 13:46:00,772920
0,-3,-1,0,-1,0,-1,-2,2021-08-06 13:46:00,772920
-5,-3,-5,-8,-14,-10,-5,-4,2021-08-06 13:46:00,772920
-1,-1,-1,-8,-15,-9,-3,-2,2021-08-06 13:46:00,772920
2,3,5,13,17,11,5,3,2021-08-06 13:46:00,772920
-1,-2,-1,-2,1,-1,-2,-3,2021-08-06 13:46:00,772920
-3,-1,-2,-7,-8,-7,-4,-3,2021-08-06 13:46:00,772920
-2,-4,-2,2,-3,-1,-2,-3,2021-08-06 13:46:00,773920
-2,1,-1,-4,-7,-5,-2,0,2021-08-06 13:46:00,788919
0,0,-1,-8,-8,-2,0,-2,2021-08-06 13:46:00,788919
3,3,5,17,24,11,4,4,2021-08-06 13:46:00,788919
-3,-6,-6,-13,-17,-13,-8,-3,2021-08-06 13:46:00,788919
-3,-5,-5,-11,-20,-6,-2,-2,2021-08-06 13:46:00,819918
2,0,3,18,31,16,6,3,2021-08-06 13:46:00,819918
-1,-1,-1,0,-2,0,0,-1,2021-08-06 13:46:00,819918
-3,-3,-3,-2,-7,-4,-2,-3,2021-08-06 13:46:00,819918
-6,-5,-7,-14,-16,-12,-8,-5,2021-08-06 13:46:00,849920
0,0,-2,-2,-4,-3,0,1,2021-08-06 13:46:00,849920
1,3,3,5,4,5,1,1,2021-08-06 13:46:00,849920
-1,0,-2,-3,-5,-2,0,-1,2021-08-06 13:46:00,849920
-3,-1,-2,-3,-2,-2,-3,-3,2021-08-06 13:46:00,849920
-7,-5,-3,0,-5,-4,-4,-7,2021-08-06 13:46:00,849920
-1,-2,-2,-3,-2,-2,-4,-2,2021-08-06 13:46:00,849920
1,1,-1,-7,-4,-1,0,3,2021-08-06 13:46:00,849920
3,1,5,10,11,6,4,2,2021-08-06 13:46:00,879951
2,2,-1,2,1,4,3,3,2021-08-06 13:46:00,879951
-1,-1,-2,-3,-3,-5,-1,-2,2021-08-06 13:46:00,879951
0,2,2,3,4,5,2,0,2021-08-06 13:46:00,879951
0,0,2,0,1,-2,-1,-2,2021-08-06 13:46:00,909919
-7,-8,-7,-18,-34,-21,-9,-10,2021-08-06 13:46:00,909919
4,5,8,23,37,21,10,4,2021-08-06 13:46:00,909919
0,0,1,1,2,0,-2,0,2021-08-06 13:46:00,909919
-4,-3,-4,-6,-9,-6,-4,-2,2021-08-06 13:46:00,909919
0,1,0,-1,3,0,0,0,2021-08-06 13:46:00,909919
-2,-5,-4,-11,-14,-8,-4,0,2021-08-06 13:46:00,909919
-1,-2,2,13,21,6,3,0,2021-08-06 13:46:00,909919
-2,-2,-4,-12,-15,-8,-5,-2,2021-08-06 13:46:00,940970
2,2,3,9,19,10,3,1,2021-08-06 13:46:00,940970
2,1,3,12,14,6,2,2,2021-08-06 13:46:00,940970
-2,-5,-4,-3,-7,1,0,-4,2021-08-06 13:46:00,940970
-2,0,-2,-5,-7,-7,-5,-2,2021-08-06 13:46:00,956958
0,1,-3,-14,-16,-8,-1,1,2021-08-06 13:46:00,956958
1,4,6,9,13,8,4,2,2021-08-06 13:46:00,972919
-3,0,-3,-6,-13,-5,-2,-2,2021-08-06 13:46:00,988919
4,2,3,12,22,11,5,1,2021-08-06 13:46:01,004920
-2,-5,-7,-13,-15,-10,-8,-6,2021-08-06 13:46:01,004920
0,0,0,-12,-24,-10,-1,-1,2021-08-06 13:46:01,004920
-2,-3,0,3,6,-2,-3,-2,2021-08-06 13:46:01,004920
-1,1,0,4,6,5,4,1,2021-08-06 13:46:01,004920
1,2,3,12,15,7,3,3,2021-08-06 13:46:01,004920
-6,-6,-9,-19,-28,-15,-7,-6,2021-08-06 13:46:01,004920
1,0,1,1,4,1,0,0,2021-08-06 13:46:01,005921
0,2,1,5,10,5,1,-2,2021-08-06 13:46:01,019919
0,2,2,2,3,0,-1,0,2021-08-06 13:46:01,022919
-2,-2,-4,-7,-9,-6,-5,-2,2021-08-06 13:46:01,022919
-1,0,-2,-5,-13,-10,-3,-1,2021-08-06 13:46:01,022919
0,1,1,9,25,13,4,1,2021-08-06 13:46:01,050921
1,1,4,10,10,6,2,2,2021-08-06 13:46:01,050921
-4,-4,-6,-8,-8,-5,-2,-4,2021-08-06 13:46:01,050921
1,1,0,-3,-1,-1,-2,0,2021-08-06 13:46:01,050921
-3,-5,-5,-9,-17,-12,-6,-6,2021-08-06 13:46:01,050921
1,3,1,4,9,9,5,4,2021-08-06 13:46:01,050921
1,2,2,7,13,4,1,-1,2021-08-06 13:46:01,066922
-1,1,-2,-5,-8,-4,-1,-1,2021-08-06 13:46:01,066922
-1,0,2,8,7,1,2,0,2021-08-06 13:46:01,082919
-2,-5,-7,-9,-12,-7,-3,-4,2021-08-06 13:46:01,082919
-2,-3,-4,-3,-1,0,-1,-2,2021-08-06 13:46:01,082919
1,2,4,0,-3,-2,-1,0,2021-08-06 13:46:01,082919
-2,-2,-4,-11,-24,-11,-3,-1,2021-08-06 13:46:01,098919
1,0,1,0,3,1,0,0,2021-08-06 13:46:01,098919
-2,-1,-2,5,16,8,2,-1,2021-08-06 13:46:01,098919
-4,-5,-8,-7,-3,-3,-3,-2,2021-08-06 13:46:01,098919
-1,-1,2,3,4,3,0,1,2021-08-06 13:46:01,114920
-3,-4,-3,-12,-24,-15,-6,-5,2021-08-06 13:46:01,114920
3,4,3,10,14,7,4,4,2021-08-06 13:46:01,130922
1,2,1,5,8,6,3,1,2021-08-06 13:46:01,146919
2,1,1,1,1,-1,1,0,2021-08-06 13:46:01,146919
-1,-3,-2,-2,-1,-1,-2,-2,2021-08-06 13:46:01,146919
-4,-5,-5,-12,-20,-10,-7,-6,2021-08-06 13:46:01,146919
-1,-1,-1,0,-2,-2,-1,-1,2021-08-06 13:46:01,146919
5,4,7,13,21,13,5,5,2021-08-06 13:46:01,161920
-1,-1,-1,5,7,3,2,1,2021-08-06 13:46:01,161920
-3,-2,-2,-8,-12,-8,-3,-2,2021-08-06 13:46:01,161920
-3,-2,-4,-1,2,1,-2,-2,2021-08-06 13:46:01,161920
-8,-8,-9,-18,-19,-11,-10,-7,2021-08-06 13:46:01,193918
6,7,10,12,11,8,5,4,2021-08-06 13:46:01,208919
1,-1,1,2,1,1,0,0,2021-08-06 13:46:01,224919
-1,-1,0,1,-4,-2,0,-1,2021-08-06 13:46:01,224919
-3,-4,-3,0,-2,-6,-4,-3,2021-08-06 13:46:01,224919
-4,-3,-4,-5,-3,-3,-5,-4,2021-08-06 13:46:01,224919
-2,-2,-4,-23,-26,-12,-4,-1,2021-08-06 13:46:01,224919
1,-1,-2,22,32,15,5,0,2021-08-06 13:46:01,224919
0,0,0,-4,-3,-1,0,-1,2021-08-06 13:46:01,224919
1,2,6,9,10,3,1,2,2021-08-06 13:46:01,224919
-3,-1,-1,-5,-19,-13,-6,-3,2021-08-06 13:46:01,224919
6,9,12,28,52,26,12,6,2021-08-06 13:46:01,225921
1,2,0,5,3,3,2,1,2021-08-06 13:46:01,240919
-4,-2,-5,-8,0,-1,0,-4,2021-08-06 13:46:01,256919
-4,-5,-7,-11,-12,-8,-6,-4,2021-08-06 13:46:01,271919
-3,-5,-6,-23,-25,-14,-4,-2,2021-08-06 13:46:01,271919
1,1,-1,1,-3,-1,-1,0,2021-08-06 13:46:01,271919
-2,-3,-2,-2,-9,-6,-3,-1,2021-08-06 13:46:01,271919
6,7,7,12,11,10,6,4,2021-08-06 13:46:01,271919
0,0,0,-2,-6,-4,-2,0,2021-08-06 13:46:01,271919
-3,-3,-3,-7,-7,-5,-3,-3,2021-08-06 13:46:01,287919
-2,-3,-2,-2,-3,-2,-1,-3,2021-08-06 13:46:01,303919
0,0,4,3,15,9,4,0,2021-08-06 13:46:01,319918
-1,-4,-10,-14,-20,-10,-4,-3,2021-08-06 13:46:01,335918
-4,-7,-6,-7,-4,-4,-3,-4,2021-08-06 13:46:01,350919
-2,-1,1,1,-3,2,0,0,2021-08-06 13:46:01,350919
7,9,9,24,34,21,11,8,2021-08-06 13:46:01,350919
-2,-1,2,-7,-16,-9,-4,-3,2021-08-06 13:46:01,350919
-1,-1,-3,-8,-10,-5,-1,-2,2021-08-06 13:46:01,350919
-4,-9,-8,-12,-20,-12,-8,-5,2021-08-06 13:46:01,350919
-3,-2,-2,-3,-7,-6,-2,-3,2021-08-06 13:46:01,351920
2,1,-1,2,9,5,2,1,2021-08-06 13:46:01,351920
-1,-1,-6,-7,-12,-6,-4,-2,2021-08-06 13:46:01,351920
2,3,2,2,7,5,1,1,2021-08-06 13:46:01,351920
-2,-3,0,-4,3,-1,-3,-1,2021-08-06 13:46:01,351920
-4,-3,-7,-3,-3,0,-1,0,2021-08-06 13:46:01,351920
0,2,4,11,18,7,3,1,2021-08-06 13:46:01,381921
1,3,0,-3,-3,1,1,0,2021-08-06 13:46:01,381921
-3,-4,-4,-3,-7,-4,-2,-2,2021-08-06 13:46:01,382920
-1,-1,2,-1,-2,-6,-2,-1,2021-08-06 13:46:01,382920
0,1,4,5,0,3,0,1,2021-08-06 13:46:01,382920
-1,-3,-6,-3,-5,-1,-2,-1,2021-08-06 13:46:01,382920
-3,-4,-13,-21,-18,-8,-4,-2,2021-08-06 13:46:01,382920
5,4,10,15,26,19,6,4,2021-08-06 13:46:01,382920
-3,-3,-4,-6,-9,-4,-2,-2,2021-08-06 13:46:01,398920
-5,-3,-1,-1,-3,-5,-5,-6,2021-08-06 13:46:01,398920
-4,-2,0,5,1,-2,-2,-4,2021-08-06 13:46:01,398920
-1,0,4,1,-14,-9,-3,-3,2021-08-06 13:46:01,398920
-2,0,-7,-2,3,1,-1,1,2021-08-06 13:46:01,430921
1,1,0,1,1,1,1,0,2021-08-06 13:46:01,446919
-1,-2,4,-11,-12,-6,-3,-3,2021-08-06 13:46:01,446919
-7,-8,-21,-24,-28,-15,-7,-5,2021-08-06 13:46:01,446919
0,1,3,12,24,9,4,2,2021-08-06 13:46:01,446919
0,0,2,7,9,4,2,-1,2021-08-06 13:46:01,446919
1,1,2,14,10,6,2,0,2021-08-06 13:46:01,446919
0,3,9,3,2,0,-2,0,2021-08-06 13:46:01,446919
-3,-5,-5,-16,-29,-14,-6,-4,2021-08-06 13:46:01,462919
0,2,-2,6,7,5,1,2,2021-08-06 13:46:01,462919
0,-2,-1,6,13,7,0,0,2021-08-06 13:46:01,462919
-2,-4,-3,-9,-5,-2,-1,-3,2021-08-06 13:46:01,462919
-2,-2,-4,-9,-13,-10,-4,-2,2021-08-06 13:46:01,494922
4,5,9,12,3,1,2,3,2021-08-06 13:46:01,494922
5,5,1,12,4,4,2,2,2021-08-06 13:46:01,494922
-4,-5,-11,-18,-14,-7,-4,-4,2021-08-06 13:46:01,494922
-4,-6,-6,-15,-5,-2,-3,-3,2021-08-06 13:46:01,494922
-2,-2,0,-4,-3,-4,-2,-1,2021-08-06 13:46:01,494922
-3,-2,-1,3,-1,-5,-3,-2,2021-08-06 13:46:01,494922
1,2,5,20,19,7,5,2,2021-08-06 13:46:01,494922
2,0,3,2,-1,1,0,-1,2021-08-06 13:46:01,526501
-1,2,-2,-4,4,2,2,0,2021-08-06 13:46:01,541942
-2,-4,-6,-8,-13,-5,-4,-2,2021-08-06 13:46:01,541942
-2,-3,-4,-9,-11,-8,-4,-3,2021-08-06 13:46:01,541942
3,4,4,6,6,2,3,4,2021-08-06 13:46:01,541942
2,1,4,11,17,9,4,3,2021-08-06 13:46:01,541942
-3,-3,-5,-10,-14,-7,-3,-2,2021-08-06 13:46:01,541942
0,2,4,4,2,2,-1,1,2021-08-06 13:46:01,541942
0,-2,-1,0,2,0,-2,-1,2021-08-06 13:46:01,557941
-2,-3,-6,-7,-12,-7,-3,-3,2021-08-06 13:46:01,573942
0,-1,-2,1,7,2,0,-1,2021-08-06 13:46:01,588941
-3,-2,-1,-5,-8,-5,-5,-2,2021-08-06 13:46:01,603941
1,1,2,3,-1,0,1,2,2021-08-06 13:46:01,634943
2,1,1,0,6,3,1,2,2021-08-06 13:46:01,634943
-2,-1,-1,2,3,2,-1,-1,2021-08-06 13:46:01,634943
-2,-3,-4,-1,-1,0,-2,-2,2021-08-06 13:46:01,634943
-1,0,0,-4,-5,-1,-1,-3,2021-08-06 13:46:01,634943
0,-2,-3,-4,-4,-5,-3,0,2021-08-06 13:46:01,635944
0,-2,-4,-9,-8,-6,-1,0,2021-08-06 13:46:01,635944
-1,-3,-4,-2,-13,-6,-3,0,2021-08-06 13:46:01,635944
2,3,6,15,25,14,6,4,2021-08-06 13:46:01,635944
-4,-5,-5,-9,-11,-8,-4,-5,2021-08-06 13:46:01,635944
0,-1,-2,-2,-1,-1,-1,1,2021-08-06 13:46:01,635944
1,1,2,0,2,1,1,-1,2021-08-06 13:46:01,635944
-1,0,-1,-2,-2,0,-1,1,2021-08-06 13:46:01,635944
-4,-2,-3,-8,-8,-8,-5,-3,2021-08-06 13:46:01,636943
0,2,0,2,3,0,2,2,2021-08-06 13:46:01,636943
-2,0,-1,-4,-15,-2,0,-1,2021-08-06 13:46:01,636943
0,-1,0,5,10,4,1,0,2021-08-06 13:46:01,666944
-2,-3,-3,0,1,-1,-2,-2,2021-08-06 13:46:01,682942
-3,-2,0,-4,-4,-4,-2,-1,2021-08-06 13:46:01,682942
-2,-2,-2,-5,-8,-6,-2,-2,2021-08-06 13:46:01,682942
0,1,3,6,7,0,0,0,2021-08-06 13:46:01,682942
0,0,-1,-2,-2,2,1,1,2021-08-06 13:46:01,682942
-3,-4,-5,-9,-11,-8,-4,-4,2021-08-06 13:46:01,682942
2,1,2,2,1,1,1,2,2021-08-06 13:46:01,682942
0,1,2,5,9,7,1,0,2021-08-06 13:46:01,698942
-2,-3,-1,-4,-4,-3,-2,-1,2021-08-06 13:46:01,714942
0,0,-1,0,1,1,1,0,2021-08-06 13:46:01,730942
-3,-3,-2,9,16,6,-2,-3,2021-08-06 13:46:01,746941
-1,-3,-4,-13,-21,-11,-4,-3,2021-08-06 13:46:01,747197
1,-1,2,0,0,0,-1,0,2021-08-06 13:46:01,747197
0,1,-1,5,7,4,0,0,2021-08-06 13:46:01,747197
-3,-4,-3,-6,-4,-3,-2,-1,2021-08-06 13:46:01,747197
0,1,0,2,4,0,1,1,2021-08-06 13:46:01,747197
1,2,3,3,5,4,2,2,2021-08-06 13:46:01,747197
0,-2,1,2,-1,1,0,0,2021-08-06 13:46:01,747943
-1,-1,-1,-3,0,-3,-2,0,2021-08-06 13:46:01,747943
-1,-3,-3,-4,-10,-5,-2,-1,2021-08-06 13:46:01,757452
-1,-1,-1,0,-2,-2,-1,-2,2021-08-06 13:46:01,758452
-2,0,1,-1,1,1,-2,-1,2021-08-06 13:46:01,758452
1,3,5,6,12,8,4,2,2021-08-06 13:46:01,758452
0,3,2,7,2,0,1,1,2021-08-06 13:46:01,794451
-2,-1,-2,-4,-9,-5,-1,-1,2021-08-06 13:46:01,794451
0,-3,-2,-4,-2,-2,0,-1,2021-08-06 13:46:01,794451
-5,-5,-7,-18,-25,-15,-8,-5,2021-08-06 13:46:01,794451
0,0,1,10,19,8,3,0,2021-08-06 13:46:01,794451
6,5,7,12,21,12,5,3,2021-08-06 13:46:01,794451
1,3,3,7,3,2,0,-1,2021-08-06 13:46:01,794451
1,2,2,5,8,3,1,0,2021-08-06 13:46:01,794451
-2,-6,-9,-20,-25,-15,-8,-3,2021-08-06 13:46:01,825452
-5,-4,-7,-10,-12,-4,-4,-1,2021-08-06 13:46:01,841452
-3,-4,-3,-4,-5,-4,-2,-3,2021-08-06 13:46:01,841452
3,5,6,13,20,11,6,3,2021-08-06 13:46:01,841452
0,0,0,1,-4,1,0,0,2021-08-06 13:46:01,857452
0,1,-1,1,4,1,1,1,2021-08-06 13:46:01,873452
-2,-2,-4,-9,-12,-9,-6,-1,2021-08-06 13:46:01,873452
3,2,5,6,10,10,6,3,2021-08-06 13:46:01,873452
0,-2,4,0,3,2,5,0,2021-08-06 13:46:01,873452
0,-3,-11,-4,-5,-2,-2,0,2021-08-06 13:46:01,873452
1,-1,-2,-1,-2,-1,1,-2,2021-08-06 13:46:01,873452
-7,-8,-9,-9,-14,-13,-7,-6,2021-08-06 13:46:01,873452
2,6,6,1,-6,-1,0,3,2021-08-06 13:46:01,874453
1,2,6,8,19,8,3,1,2021-08-06 13:46:01,874453
2,2,3,4,3,4,3,3,2021-08-06 13:46:01,889451
-1,-4,-3,-6,-8,-6,-2,-1,2021-08-06 13:46:01,905452
-3,-3,-3,-6,-14,-6,-4,-3,2021-08-06 13:46:01,921452
-2,-2,2,4,1,-1,-4,-3,2021-08-06 13:46:01,921452
0,0,0,10,6,3,2,2,2021-08-06 13:46:01,921452
-1,-1,-5,-4,-5,-5,-4,-2,2021-08-06 13:46:01,921452
-3,-6,-10,-18,-10,0,0,-1,2021-08-06 13:46:01,921452
1,-3,-2,-9,-3,-4,-1,-2,2021-08-06 13:46:01,921452
-2,-2,-4,-10,-10,-6,-4,-2,2021-08-06 13:46:01,921452
0,1,6,21,13,5,3,0,2021-08-06 13:46:01,922454
2,3,0,9,12,5,2,1,2021-08-06 13:46:01,953451
-1,-1,0,-3,-10,-4,-2,-2,2021-08-06 13:46:01,969451
-1,0,1,2,7,2,0,-2,2021-08-06 13:46:01,985451
-2,-5,-8,-22,-29,-13,-7,-4,2021-08-06 13:46:02,001453
3,6,6,24,39,17,7,6,2021-08-06 13:46:02,001453
-1,-2,2,-1,-4,-2,1,-2,2021-08-06 13:46:02,001453
-2,-1,-2,0,0,1,0,-2,2021-08-06 13:46:02,001453
0,0,0,-7,-6,-3,-3,0,2021-08-06 13:46:02,001453
-7,-9,-8,-13,-19,-15,-9,-5,2021-08-06 13:46:02,001453
3,3,1,-5,-2,0,4,1,2021-08-06 13:46:02,001453
0,-1,-1,5,2,1,2,0,2021-08-06 13:46:02,002452
-2,-1,-2,-2,-1,0,0,-1,2021-08-06 13:46:02,002452
-5,-4,-3,-11,-17,-12,-7,-5,2021-08-06 13:46:02,002452
-6,-6,-6,-2,-10,-5,-4,-3,2021-08-06 13:46:02,002452
3,1,0,6,13,8,4,3,2021-08-06 13:46:02,002452
3,5,6,13,22,14,7,3,2021-08-06 13:46:02,002452
0,-1,-1,-3,-1,-1,1,0,2021-08-06 13:46:02,033452
-6,-6,-7,-14,-24,-15,-9,-4,2021-08-06 13:46:02,033452
-3,-5,-1,-11,-16,-10,-4,-4,2021-08-06 13:46:02,033452
3,4,8,19,22,10,5,4,2021-08-06 13:46:02,033452
-2,-2,-3,-2,-10,-8,-3,-2,2021-08-06 13:46:02,033452
3,4,1,-4,4,8,4,5,2021-08-06 13:46:02,033452
-1,-1,1,-3,14,7,2,-2,2021-08-06 13:46:02,049452
-4,-7,-13,-6,-8,-7,-6,-3,2021-08-06 13:46:02,049452
0,1,3,2,-1,2,1,0,2021-08-06 13:46:02,065453
1,1,3,14,11,5,1,1,2021-08-06 13:46:02,081455
-2,-2,-1,-4,-13,-10,-4,-2,2021-08-06 13:46:02,081455
3,4,3,4,6,6,5,2,2021-08-06 13:46:02,081455
-1,-1,-3,-6,2,-1,-1,-1,2021-08-06 13:46:02,081455
-2,-1,0,5,8,2,1,0,2021-08-06 13:46:02,081455
-1,-1,0,8,9,2,-2,-1,2021-08-06 13:46:02,081455
-2,-1,0,-4,-8,-5,-3,-4,2021-08-06 13:46:02,081455
-2,-3,-3,-1,-4,-2,-3,-2,2021-08-06 13:46:02,097452
3,3,3,5,9,6,4,3,2021-08-06 13:46:02,113453
-2,-4,-5,-6,-10,-5,-1,-3,2021-08-06 13:46:02,122477
-1,0,2,4,6,1,2,0,2021-08-06 13:46:02,122477
-3,-3,-4,-4,3,0,-2,-1,2021-08-06 13:46:02,122477
-6,-9,-12,-17,-20,-14,-8,-7,2021-08-06 13:46:02,122477
2,4,3,4,1,3,2,2,2021-08-06 13:46:02,122477
0,0,0,-2,1,-1,-1,1,2021-08-06 13:46:02,123479
-2,-2,0,-1,-6,-4,-2,-2,2021-08-06 13:46:02,145477
-1,-1,2,5,3,0,0,0,2021-08-06 13:46:02,145477
-3,-1,-4,-11,-10,-6,-2,-2,2021-08-06 13:46:02,145477
-2,-3,-3,-13,-13,-5,-5,-1,2021-08-06 13:46:02,145477
-2,-2,-1,4,7,5,1,0,2021-08-06 13:46:02,161480
0,2,3,7,1,1,-1,0,2021-08-06 13:46:02,161480
1,0,-3,3,1,1,0,1,2021-08-06 13:46:02,161480
-3,-4,-4,-9,-17,-10,-8,-4,2021-08-06 13:46:02,161480
0,-3,-1,-5,-8,-1,0,0,2021-08-06 13:46:02,193477
-2,-3,1,4,6,2,-1,-2,2021-08-06 13:46:02,209520
-2,-2,-1,0,-2,0,-2,-1,2021-08-06 13:46:02,209520
0,0,2,8,11,4,1,-1,2021-08-06 13:46:02,209520
-1,-3,-4,-8,-17,-10,-8,-4,2021-08-06 13:46:02,209520
2,3,1,0,-3,0,0,-1,2021-08-06 13:46:02,209520
4,4,5,16,25,14,6,4,2021-08-06 13:46:02,209520
-2,-3,-7,-6,-5,-4,-1,-1,2021-08-06 13:46:02,209520
-3,0,-2,-11,-9,-8,-2,-2,2021-08-06 13:46:02,225477
-2,-2,-3,-7,-6,-4,-2,-1,2021-08-06 13:46:02,225477
1,2,-1,-3,-5,-2,-1,0,2021-08-06 13:46:02,225477
0,0,2,7,5,5,2,-2,2021-08-06 13:46:02,225477
-2,0,2,6,3,1,1,1,2021-08-06 13:46:02,241477
-6,-5,-4,-5,-1,-3,-3,-4,2021-08-06 13:46:02,241477
-2,-4,-5,-17,-26,-12,-7,-4,2021-08-06 13:46:02,241477
2,3,2,5,20,10,5,2,2021-08-06 13:46:02,241477
1,0,0,4,6,5,1,-1,2021-08-06 13:46:02,272478
2,3,1,0,-2,-2,0,1,2021-08-06 13:46:02,287477
-3,-4,1,7,4,1,-2,-3,2021-08-06 13:46:02,303477
-3,-3,-4,-10,-22,-11,-5,-2,2021-08-06 13:46:02,303477
1,-1,-2,-1,4,0,0,0,2021-08-06 13:46:02,303477
-1,-1,-2,0,7,5,2,1,2021-08-06 13:46:02,303477
0,-1,-4,-8,-6,-2,-2,0,2021-08-06 13:46:02,303477
-3,-5,1,-4,-13,-9,-6,-4,2021-08-06 13:46:02,303477
-3,-2,-1,-6,-14,-7,-4,-2,2021-08-06 13:46:02,303477
3,3,0,5,10,6,2,3,2021-08-06 13:46:02,303477
-1,-2,-3,-1,6,3,1,0,2021-08-06 13:46:02,304479
1,2,1,3,5,3,2,1,2021-08-06 13:46:02,304479
3,2,7,2,0,0,0,2,2021-08-06 13:46:02,335477
-5,-6,-11,-13,-18,-10,-6,-4,2021-08-06 13:46:02,350987
-4,-6,-4,-6,-5,-3,-4,-1,2021-08-06 13:46:02,350987
0,1,3,8,10,3,1,0,2021-08-06 13:46:02,350987
-1,1,-1,-1,-2,2,1,2,2021-08-06 13:46:02,350987
4,3,4,12,17,12,5,1,2021-08-06 13:46:02,350987
0,0,2,5,10,1,1,-1,2021-08-06 13:46:02,350987
-3,-6,-7,-9,-21,-10,-5,-4,2021-08-06 13:46:02,350987
-1,-2,0,3,7,0,-2,-3,2021-08-06 13:46:02,366988
0,2,5,5,6,3,1,1,2021-08-06 13:46:02,382986
-2,-3,-4,-6,-14,-8,-2,-1,2021-08-06 13:46:02,414987
1,4,1,7,19,9,4,2,2021-08-06 13:46:02,430986
-4,-4,-9,-18,-2,-1,-4,-4,2021-08-06 13:46:02,430986
-5,-6,-5,-8,-13,-10,-6,-4,2021-08-06 13:46:02,430986
0,3,4,8,10,8,5,1,2021-08-06 13:46:02,430986
2,2,5,5,5,1,1,2,2021-08-06 13:46:02,430986
3,2,3,15,14,9,5,1,2021-08-06 13:46:02,430986
-1,-1,-2,-3,-6,-6,-5,-2,2021-08-06 13:46:02,430986
-2,-2,0,-6,-10,-5,-4,-2,2021-08-06 13:46:02,431988
-4,-5,-7,-14,-23,-11,-5,-4,2021-08-06 13:46:02,431988
4,5,4,19,36,21,10,4,2021-08-06 13:46:02,431988
-1,-1,-2,-7,-15,-5,-1,0,2021-08-06 13:46:02,431988
-1,0,-1,-8,-14,-7,-5,-1,2021-08-06 13:46:02,431988
-2,-5,-3,9,15,8,0,-1,2021-08-06 13:46:02,431988
-1,-1,5,9,9,2,0,-1,2021-08-06 13:46:02,446987
4,2,3,1,0,1,0,1,2021-08-06 13:46:02,462987
0,0,-3,0,-1,-3,-1,0,2021-08-06 13:46:02,462987
-3,-2,-3,-12,-17,-9,-4,-3,2021-08-06 13:46:02,462987
-4,-3,-3,-4,-6,-4,-4,-3,2021-08-06 13:46:02,462987
-1,-1,-3,6,8,6,2,0,2021-08-06 13:46:02,462987
5,6,4,9,14,8,5,3,2021-08-06 13:46:02,462987
-3,-4,-7,-21,-13,-6,-4,-3,2021-08-06 13:46:02,462987
-1,-1,-4,-1,-5,-3,0,0,2021-08-06 13:46:02,478987
1,1,5,2,5,1,0,0,2021-08-06 13:46:02,487987
-1,-1,3,4,4,2,-1,-1,2021-08-06 13:46:02,488989
3,3,-3,8,6,3,1,2,2021-08-06 13:46:02,488989
-4,-5,-8,-14,-15,-12,-7,-4,2021-08-06 13:46:02,510986
-4,-4,-4,-12,-17,-9,-4,-4,2021-08-06 13:46:02,510986
-1,-1,3,10,20,10,4,-1,2021-08-06 13:46:02,510986
0,0,-1,-4,-4,0,-1,-1,2021-08-06 13:46:02,510986
1,0,-2,-4,-9,-4,-1,1,2021-08-06 13:46:02,526987
-3,-4,-3,-2,-9,-6,-2,-1,2021-08-06 13:46:02,526987
2,1,6,16,25,12,4,2,2021-08-06 13:46:02,526987
-1,-1,4,6,6,2,0,0,2021-08-06 13:46:02,526987
-3,-3,-4,-6,-12,-8,-5,-3,2021-08-06 13:46:02,542986
-2,-2,-5,-13,-11,-6,-3,-2,2021-08-06 13:46:02,558986
-2,0,-4,-11,-20,-10,-3,-1,2021-08-06 13:46:02,574986
-1,-3,-2,-2,5,3,0,0,2021-08-06 13:46:02,574986
0,2,2,3,-3,-2,1,-1,2021-08-06 13:46:02,574986
-4,-7,-6,-8,-16,-12,-6,-4,2021-08-06 13:46:02,574986
2,1,1,6,10,8,5,3,2021-08-06 13:46:02,574986
2,1,0,-2,-1,3,2,1,2021-08-06 13:46:02,574986
-2,-3,-4,-3,-3,-1,-2,-2,2021-08-06 13:46:02,590987
-2,0,1,8,14,5,-1,-1,2021-08-06 13:46:02,590987
-1,0,-3,-8,-28,-13,-4,-2,2021-08-06 13:46:02,590987
4,6,11,20,42,21,10,6,2021-08-06 13:46:02,590987
-1,1,-1,-9,-1,0,0,0,2021-08-06 13:46:02,620988
-1,0,-1,-1,-4,-2,0,0,2021-08-06 13:46:02,620988
-6,-8,-7,-17,-20,-15,-9,-8,2021-08-06 13:46:02,620988
-2,0,-2,-6,-18,-10,-5,-3,2021-08-06 13:46:02,620988
0,2,5,7,6,4,1,0,2021-08-06 13:46:02,620988
-1,1,-2,4,13,4,2,0,2021-08-06 13:46:02,620988
-1,-4,-7,-6,-3,-1,-1,-2,2021-08-06 13:46:02,620988
1,2,4,5,5,0,0,1,2021-08-06 13:46:02,620988
-2,-5,-6,-12,-18,-10,-5,-2,2021-08-06 13:46:02,652987
-1,1,3,1,-1,-2,-2,-2,2021-08-06 13:46:02,652987
2,3,3,2,6,2,2,1,2021-08-06 13:46:02,652987
-5,-7,-10,-10,-12,-9,-5,-5,2021-08-06 13:46:02,652987
-1,1,3,3,-1,-3,-1,1,2021-08-06 13:46:02,652987
2,2,4,12,24,13,4,3,2021-08-06 13:46:02,652987
-1,-1,-2,-2,0,1,1,-1,2021-08-06 13:46:02,668986
-2,-1,0,-4,-4,-5,-4,-2,2021-08-06 13:46:02,668986
0,-1,-2,1,-1,-2,0,-2,2021-08-06 13:46:02,699990
-1,-1,-2,1,0,1,0,-1,2021-08-06 13:46:02,699990
2,1,-1,-2,1,1,0,2,2021-08-06 13:46:02,699990
-6,-5,-9,-12,-14,-9,-4,-3,2021-08-06 13:46:02,699990
0,-2,-1,-2,-3,-2,-1,0,2021-08-06 13:46:02,699990
3,0,4,2,8,7,2,1,2021-08-06 13:46:02,699990
4,4,10,11,12,6,3,2,2021-08-06 13:46:02,715987
-2,-3,-5,-4,-7,-4,-2,-4,2021-08-06 13:46:02,715987
-1,-1,-6,0,-2,-3,-3,-2,2021-08-06 13:46:02,715987
-1,-2,-3,-4,-2,0,0,0,2021-08-06 13:46:02,715987
-5,-4,-4,-4,-4,-6,-6,-4,2021-08-06 13:46:02,731988
5,5,12,27,38,20,9,5,2021-08-06 13:46:02,731988
-2,-2,-3,-9,-8,-3,0,-1,2021-08-06 13:46:02,747986
1,-1,0,1,-2,1,-1,0,2021-08-06 13:46:02,763987
-6,-5,-7,-14,-20,-14,-8,-4,2021-08-06 13:46:02,779987
-1,-4,-6,-16,-23,-10,-4,-2,2021-08-06 13:46:02,779987
-2,-5,-6,-6,-6,-5,-3,0,2021-08-06 13:46:02,779987
4,5,8,10,15,9,3,3,2021-08-06 13:46:02,779987
-1,-1,-1,4,1,2,-1,-1,2021-08-06 13:46:02,779987
0,-2,-1,0,-4,-1,-4,-2,2021-08-06 13:46:02,779987
-3,-5,-1,-8,-13,-9,-4,-4,2021-08-06 13:46:02,780988
-4,-3,-6,-8,-16,-11,-5,-3,2021-08-06 13:46:02,780988
1,-1,-1,1,5,3,0,-2,2021-08-06 13:46:02,795987
-1,-3,-5,-2,-1,-1,-1,-1,2021-08-06 13:46:02,795987
7,10,10,13,11,9,6,5,2021-08-06 13:46:02,795987
-3,-4,-2,-8,-9,-8,-5,-4,2021-08-06 13:46:02,795987
-5,-5,-8,-2,0,-2,-2,-4,2021-08-06 13:46:02,827989
4,4,6,9,16,11,6,1,2021-08-06 13:46:02,827989
-1,-2,-1,2,7,2,-1,-2,2021-08-06 13:46:02,827989
0,-1,0,0,-4,-2,-1,2,2021-08-06 13:46:02,827989
-1,-1,0,-9,-17,-10,-3,-2,2021-08-06 13:46:02,827989
-1,-1,0,10,13,2,2,1,2021-08-06 13:46:02,827989
-1,0,1,2,6,2,-1,-1,2021-08-06 13:46:02,843986
-4,0,-5,-2,-1,-1,0,-1,2021-08-06 13:46:02,843986
-1,-2,-1,-2,-8,-2,-2,-1,2021-08-06 13:46:02,843986
-3,-2,-3,-16,-13,-5,-4,-2,2021-08-06 13:46:02,843986
1,-2,-6,-1,0,-1,0,0,2021-08-06 13:46:02,875988
-2,-3,-1,2,6,2,0,-3,2021-08-06 13:46:02,891986
3,5,5,6,5,3,3,3,2021-08-06 13:46:02,891986
0,-1,1,2,-4,0,1,2,2021-08-06 13:46:02,891986
0,2,2,2,6,2,1,-1,2021-08-06 13:46:02,891986
-4,-3,-9,-18,-30,-18,-7,-3,2021-08-06 13:46:02,891986
1,0,2,7,14,7,4,3,2021-08-06 13:46:02,907986
-3,-5,-4,-4,-7,-3,-5,-6,2021-08-06 13:46:02,907986
-1,-1,-2,-7,-10,-3,-4,-1,2021-08-06 13:46:02,907986
-2,-2,-6,-7,-7,-5,-4,-1,2021-08-06 13:46:02,907986
2,1,5,16,26,13,4,2,2021-08-06 13:46:02,907986
0,2,2,9,7,4,2,1,2021-08-06 13:46:02,907986
1,1,2,8,7,6,1,1,2021-08-06 13:46:02,922986
2,0,2,-2,-6,-2,1,-2,2021-08-06 13:46:02,922986
-2,-4,-10,-15,-11,-6,-4,-2,2021-08-06 13:46:02,922986
-5,-6,-8,-17,-8,-8,-4,-2,2021-08-06 13:46:02,922986
-3,-2,-2,-3,-4,-2,-1,-2,2021-08-06 13:46:02,954987
2,4,7,14,13,8,0,2,2021-08-06 13:46:02,954987
-1,-3,-3,-5,-12,-6,-1,-1,2021-08-06 13:46:02,954987
-1,-1,-3,-4,-6,-5,-1,-2,2021-08-06 13:46:02,954987
4,2,4,6,18,9,5,3,2021-08-06 13:46:02,954987
0,-2,-2,0,2,2,2,0,2021-08-06 13:46:02,954987
0,0,0,2,-2,-1,-2,-1,2021-08-06 13:46:02,970986
3,2,3,8,-2,-1,1,2,2021-08-06 13:46:02,986988
-3,-4,-6,-10,-11,-5,-1,-5,2021-08-06 13:46:02,986988
1,-1,-1,-6,-4,-4,-1,-1,2021-08-06 13:46:02,986988
-2,-2,-1,-1,-1,-4,-2,-3,2021-08-06 13:46:02,986988
-3,-4,-3,-7,-12,-8,-5,-5,2021-08-06 13:46:02,986988
-4,-2,1,7,5,2,-1,-2,2021-08-06 13:46:03,016987
3,3,6,11,16,11,5,2,2021-08-06 13:46:03,032986
-3,-3,-5,-14,-14,-10,-6,-3,2021-08-06 13:46:03,032986
1,0,-3,-7,-9,-1,1,1,2021-08-06 13:46:03,032986
1,-2,-2,2,8,5,0,1,2021-08-06 13:46:03,032986
1,0,3,10,1,0,1,-1,2021-08-06 13:46:03,032986
0,0,1,1,4,2,-1,0,2021-08-06 13:46:03,032986
-2,0,-5,-17,-22,-14,-6,-1,2021-08-06 13:46:03,032986
3,2,3,11,10,7,5,4,2021-08-06 13:46:03,048988
-3,-4,-3,-7,-4,-1,0,-1,2021-08-06 13:46:03,048988
-2,-3,-3,-1,-1,2,0,-2,2021-08-06 13:46:03,048988
-2,0,0,2,5,1,-1,-2,2021-08-06 13:46:03,048988
-5,-4,-4,-12,-24,-15,-6,-5,2021-08-06 13:46:03,080988
0,-1,0,6,14,4,0,1,2021-08-06 13:46:03,096987
1,2,5,10,7,5,1,1,2021-08-06 13:46:03,112987
2,2,2,5,14,9,4,2,2021-08-06 13:46:03,112987
-4,-2,-2,-4,-5,-6,-4,-3,2021-08-06 13:46:03,112987
-4,-6,-10,-17,-21,-12,-5,-5,2021-08-06 13:46:03,112987
0,-2,-8,-13,-8,-6,-3,-1,2021-08-06 13:46:03,112987
0,0,4,9,9,5,2,1,2021-08-06 13:46:03,112987
3,2,4,6,12,9,5,1,2021-08-06 13:46:03,112987
0,1,1,9,7,4,0,0,2021-08-06 13:46:03,113988
-7,-5,-6,-1,-17,-13,-8,-6,2021-08-06 13:46:03,113988
7,7,4,4,13,13,7,8,2021-08-06 13:46:03,113988
-2,-4,-5,-22,-14,-10,-4,-4,2021-08-06 13:46:03,128988
-2,-1,-4,-6,-11,-6,-2,-2,2021-08-06 13:46:03,128988
1,0,1,2,7,2,0,-1,2021-08-06 13:46:03,128988
-4,-7,-4,0,-13,-10,-8,-5,2021-08-06 13:46:03,128988
-2,-2,-2,1,-2,-4,-3,-1,2021-08-06 13:46:03,144988
1,2,3,4,8,5,1,0,2021-08-06 13:46:03,144988
-2,1,1,-2,-7,-1,1,1,2021-08-06 13:46:03,144988
-6,-2,-3,-5,-12,-9,-3,-4,2021-08-06 13:46:03,144988
2,2,5,14,25,12,4,4,2021-08-06 13:46:03,160989
-2,-2,-3,-6,-2,0,0,-2,2021-08-06 13:46:03,160989
1,-1,-4,-5,1,1,1,0,2021-08-06 13:46:03,160989
-3,-2,-3,-7,-15,-10,-4,-3,2021-08-06 13:46:03,160989
-2,1,-1,-6,-13,-4,-3,-2,2021-08-06 13:46:03,206026
0,0,0,-1,-1,-1,0,0,2021-08-06 13:46:03,206026
4,3,8,18,28,16,8,5,2021-08-06 13:46:03,206026
0,0,-1,0,2,0,0,-2,2021-08-06 13:46:03,206026
-5,-5,-8,-6,-18,-11,-7,-5,2021-08-06 13:46:03,206026
1,2,1,0,0,1,0,1,2021-08-06 13:46:03,206026
0,1,-2,-5,-2,0,2,-1,2021-08-06 13:46:03,221986
-1,-1,0,0,2,-1,0,-1,2021-08-06 13:46:03,221986
2,-1,1,4,1,2,2,1,2021-08-06 13:46:03,221986
-4,-6,-6,-8,-8,-6,-5,-5,2021-08-06 13:46:03,221986
-1,0,-3,-7,-9,-6,-3,-1,2021-08-06 13:46:03,221986
-1,0,1,5,13,4,-1,-1,2021-08-06 13:46:03,221986
2,3,2,5,-1,1,1,1,2021-08-06 13:46:03,252986
-1,1,1,4,11,6,2,0,2021-08-06 13:46:03,252986
-2,-2,-2,-3,-6,-3,-1,-1,2021-08-06 13:46:03,252986
-2,-4,-3,-4,-3,-3,-1,-4,2021-08-06 13:46:03,252986
-3,-4,-6,-9,-11,-7,-5,-2,2021-08-06 13:46:03,268986
-2,-4,-2,-5,-5,-3,-2,0,2021-08-06 13:46:03,284986
2,3,5,7,16,9,3,1,2021-08-06 13:46:03,300986
0,2,0,-3,-5,-2,-1,1,2021-08-06 13:46:03,300986
0,1,0,2,5,2,0,-1,2021-08-06 13:46:03,300986
3,0,-1,4,6,2,3,1,2021-08-06 13:46:03,300986
-3,-3,-3,-4,-4,-4,-3,-2,2021-08-06 13:46:03,300986
-2,-2,-1,1,-2,-1,-2,-1,2021-08-06 13:46:03,300986
-2,-4,-4,-6,-10,-4,-2,-1,2021-08-06 13:46:03,300986
-2,-4,-4,-9,-4,0,-2,-2,2021-08-06 13:46:03,301988
1,3,4,8,9,5,2,1,2021-08-06 13:46:03,301988
1,0,1,7,8,4,2,0,2021-08-06 13:46:03,301988
2,3,0,-4,-5,-1,-2,1,2021-08-06 13:46:03,331987
-1,-2,0,2,-1,-2,-3,-2,2021-08-06 13:46:03,347986
-2,-3,-4,1,1,0,0,-1,2021-08-06 13:46:03,363986
-2,0,-2,-3,-6,-3,-4,-2,2021-08-06 13:46:03,363986
-2,-3,-4,-6,-4,-5,-2,-4,2021-08-06 13:46:03,363986
1,1,-2,-1,-2,-2,1,2,2021-08-06 13:46:03,363986
-2,-4,-3,-5,-4,-5,-3,-3,2021-08-06 13:46:03,363986
0,-1,-1,1,1,0,0,0,2021-08-06 13:46:03,363986
1,1,3,6,7,3,2,0,2021-08-06 13:46:03,364988
0,1,1,1,-5,-2,-2,-1,2021-08-06 13:46:03,364988
-3,-2,-2,-3,-12,-6,-2,-2,2021-08-06 13:46:03,364988
0,-1,-1,2,5,4,2,0,2021-08-06 13:46:03,364988
1,2,3,6,16,7,2,2,2021-08-06 13:46:03,395988
-1,1,1,2,4,2,1,1,2021-08-06 13:46:03,395988
-2,-3,-4,-7,-11,-5,-4,-2,2021-08-06 13:46:03,395988
1,-2,-2,-5,-10,-6,-2,-2,2021-08-06 13:46:03,395988
-5,-4,-3,-5,-13,-5,-1,-1,2021-08-06 13:46:03,395988
4,4,8,12,21,8,4,3,2021-08-06 13:46:03,395988
0,0,0,1,6,4,1,1,2021-08-06 13:46:03,411987
-2,-1,-2,0,-2,-1,-1,0,2021-08-06 13:46:03,427987
-2,-3,-2,-2,-5,-4,-3,-2,2021-08-06 13:46:03,443986
-6,-6,-9,-16,-23,-16,-8,-6,2021-08-06 13:46:03,459986
2,3,4,5,7,4,4,1,2021-08-06 13:46:03,459986
0,1,4,7,10,3,0,0,2021-08-06 13:46:03,459986
-2,-1,-4,0,2,-1,1,0,2021-08-06 13:46:03,459986
2,2,-3,-7,-6,0,0,1,2021-08-06 13:46:03,459986
-4,-6,-8,-9,-9,-7,-4,-3,2021-08-06 13:46:03,459986
-1,-3,-4,-6,-7,-3,-2,-2,2021-08-06 13:46:03,459986
0,2,6,5,-1,0,-1,0,2021-08-06 13:46:03,459986
3,4,4,15,17,10,5,2,2021-08-06 13:46:03,460990
-2,-3,-6,-14,-11,-4,-3,-4,2021-08-06 13:46:03,475987
1,0,2,-2,-1,1,0,-1,2021-08-06 13:46:03,475987
2,3,6,14,27,13,3,1,2021-08-06 13:46:03,491988
-2,-3,-2,-3,-10,-4,-1,-3,2021-08-06 13:46:03,507987
3,1,3,10,3,1,0,-1,2021-08-06 13:46:03,507987
-5,-6,-8,-11,-14,-10,-6,-4,2021-08-06 13:46:03,507987
-4,-4,-8,-20,-16,-10,-3,-3,2021-08-06 13:46:03,523987
-1,1,2,0,1,1,-1,0,2021-08-06 13:46:03,539986
-5,-6,-7,-6,-5,-4,-6,-4,2021-08-06 13:46:03,555986
2,4,7,7,4,3,4,2,2021-08-06 13:46:03,555986
0,-1,0,2,-2,-3,-1,-1,2021-08-06 13:46:03,555986
0,-1,-1,-5,-6,-5,-2,0,2021-08-06 13:46:03,555986
0,3,4,4,7,5,3,0,2021-08-06 13:46:03,555986
-1,-1,-2,2,8,2,-2,0,2021-08-06 13:46:03,555986
0,-1,-3,-3,-6,-3,0,0,2021-08-06 13:46:03,555986
0,-1,-1,-5,-8,-3,-2,-2,2021-08-06 13:46:03,556988
0,-1,-2,-2,-3,-3,-3,-1,2021-08-06 13:46:03,556988
-4,-3,-2,-1,-5,-4,-3,-4,2021-08-06 13:46:03,556988
2,2,2,6,15,10,4,1,2021-08-06 13:46:03,567986
0,-1,-1,-1,0,-1,-1,-2,2021-08-06 13:46:03,587986
-1,-1,0,-5,-5,-2,-1,0,2021-08-06 13:46:03,618986
-2,-1,-3,-5,-3,-2,0,-1,2021-08-06 13:46:03,633988
-5,-4,-5,-8,-15,-10,-6,-2,2021-08-06 13:46:03,633988
-6,-8,-6,-7,-10,-7,-5,-3,2021-08-06 13:46:03,633988
8,12,13,21,32,18,10,7,2021-08-06 13:46:03,649988
1,0,1,1,-3,0,-1,-3,2021-08-06 13:46:03,649988
0,0,0,1,-2,-3,-1,-2,2021-08-06 13:46:03,649988
-2,-1,-6,-9,-10,-7,-1,-1,2021-08-06 13:46:03,649988
-3,-7,-6,-8,-13,-8,-4,-3,2021-08-06 13:46:03,649988
0,-2,-3,-3,2,2,-2,0,2021-08-06 13:46:03,649988
2,2,2,10,13,8,5,1,2021-08-06 13:46:03,649988
-2,-3,-3,-5,-6,-2,-2,-2,2021-08-06 13:46:03,649988
-3,-3,-4,-5,-11,-7,-2,-1,2021-08-06 13:46:03,649988
1,4,4,3,2,-2,1,1,2021-08-06 13:46:03,649988
-1,-2,0,3,2,1,-1,-2,2021-08-06 13:46:03,649988
-3,-1,-2,2,3,1,1,-3,2021-08-06 13:46:03,650987
-1,-1,-5,-11,-3,1,0,0,2021-08-06 13:46:03,650987
1,1,1,1,5,4,0,0,2021-08-06 13:46:03,650987
-2,-3,1,-2,-3,-5,-3,-1,2021-08-06 13:46:03,681987
-2,0,1,2,-1,-1,-2,-2,2021-08-06 13:46:03,697986
-1,2,2,4,0,-1,-1,0,2021-08-06 13:46:03,713987
-2,-2,-3,-8,-5,-3,0,-1,2021-08-06 13:46:03,713987
-1,-4,-4,-7,-4,-3,-5,-4,2021-08-06 13:46:03,713987
1,0,1,1,-1,2,1,-1,2021-08-06 13:46:03,713987
4,5,10,18,23,13,5,3,2021-08-06 13:46:03,729987
-1,0,0,-1,2,1,0,0,2021-08-06 13:46:03,745987
-2,-3,-3,-8,-8,-5,-3,-1,2021-08-06 13:46:03,761989
-2,-3,-3,-1,0,-1,-1,-1,2021-08-06 13:46:03,761989
-2,-5,-5,-7,-8,-5,-2,-2,2021-08-06 13:46:03,761989
2,3,3,8,8,7,4,2,2021-08-06 13:46:03,761989
0,1,0,-3,-8,-6,-2,-1,2021-08-06 13:46:03,761989
-1,-1,2,6,11,7,2,2,2021-08-06 13:46:03,761989
1,-1,1,4,2,0,1,-2,2021-08-06 13:46:03,761989
-2,-4,-2,-3,-4,-3,-2,0,2021-08-06 13:46:03,762987
-3,-2,-5,-6,-5,-5,-2,-3,2021-08-06 13:46:03,762987
0,0,-4,-6,-8,-5,-2,0,2021-08-06 13:46:03,762987
-3,-1,-1,0,2,-1,-1,-2,2021-08-06 13:46:03,762987
0,1,1,-3,-2,2,-1,0,2021-08-06 13:46:03,762987
1,0,0,-4,-3,0,-2,-1,2021-08-06 13:46:03,777987
-2,-2,-4,-1,-2,-1,-2,-2,2021-08-06 13:46:03,793986
-2,-4,-3,-5,-12,-10,-6,-5,2021-08-06 13:46:03,793986
-1,-1,-3,-5,-11,-4,-2,-1,2021-08-06 13:46:03,793986
2,2,4,16,29,16,6,2,2021-08-06 13:46:03,793986
2,2,4,5,8,4,2,-1,2021-08-06 13:46:03,793986
-3,-4,-5,-6,-8,-3,-3,-1,2021-08-06 13:46:03,793986
-2,-4,-6,-12,-18,-14,-5,-4,2021-08-06 13:46:03,793986
1,3,4,4,3,3,1,1,2021-08-06 13:46:03,809986
1,0,-3,-1,2,0,-1,-1,2021-08-06 13:46:03,825986
-1,0,-4,-6,-7,-3,-1,-1,2021-08-06 13:46:03,841986
-2,-2,0,4,0,0,-1,-2,2021-08-06 13:46:03,841986
-2,0,-1,6,3,2,1,1,2021-08-06 13:46:03,841986
-3,-2,-4,-11,-15,-11,-5,-3,2021-08-06 13:46:03,841986
0,-2,-2,-13,-11,-2,1,0,2021-08-06 13:46:03,841986
4,3,4,15,23,13,6,4,2021-08-06 13:46:03,841986
1,0,0,1,-2,0,1,0,2021-08-06 13:46:03,841986
-1,-1,1,5,-1,0,-1,0,2021-08-06 13:46:03,842988
-1,-2,-2,-1,-4,-2,-4,-3,2021-08-06 13:46:03,857986
-5,-3,-4,-6,-4,-3,-3,-3,2021-08-06 13:46:03,857986
-2,1,3,5,1,-2,-2,-2,2021-08-06 13:46:03,873988
-1,-2,-3,-5,-4,-3,-1,-1,2021-08-06 13:46:03,889986
-1,-2,-4,-4,-6,-3,-3,-2,2021-08-06 13:46:03,889986
2,1,1,3,3,2,1,2,2021-08-06 13:46:03,889986
1,-2,-2,-3,-4,-1,0,1,2021-08-06 13:46:03,889986
-3,-3,-1,-4,-4,-3,-4,-2,2021-08-06 13:46:03,889986
4,7,6,9,7,4,3,3,2021-08-06 13:46:03,889986
-2,-1,-4,2,0,-3,-2,-2,2021-08-06 13:46:03,889986
-5,-6,-4,-9,-4,-4,-5,-5,2021-08-06 13:46:03,905986
3,4,-3,-5,-4,1,2,2,2021-08-06 13:46:03,921988
-2,-2,-1,4,4,2,2,-1,2021-08-06 13:46:03,921988
-1,-1,1,-1,2,1,1,0,2021-08-06 13:46:03,921988
-1,-1,-2,-4,-8,-4,0,-1,2021-08-06 13:46:03,921988
-1,-2,3,5,5,3,0,0,2021-08-06 13:46:03,921988
-2,-1,1,2,1,0,-2,-3,2021-08-06 13:46:03,929988
1,0,-1,-2,-9,-6,-2,0,2021-08-06 13:46:03,929988
-4,-3,-5,-8,-11,-7,-4,-3,2021-08-06 13:46:03,953986
-2,-2,0,-6,-6,-2,-1,-1,2021-08-06 13:46:03,969986
1,0,2,9,18,8,2,2,2021-08-06 13:46:03,985986
1,1,4,7,8,5,1,0,2021-08-06 13:46:03,985986
1,1,-1,-4,0,1,4,2,2021-08-06 13:46:03,985986
-1,-2,-4,-11,-14,-9,-4,-2,2021-08-06 13:46:03,985986
-2,-1,-2,-4,-6,-6,-3,-3,2021-08-06 13:46:03,985986
-2,-1,1,6,7,1,0,0,2021-08-06 13:46:03,985986
-2,-2,-6,6,3,1,-3,-1,2021-08-06 13:46:03,986988
1,1,2,-1,4,3,0,-1,2021-08-06 13:46:03,986988
-2,-2,-5,-15,-9,-6,-2,-1,2021-08-06 13:46:03,986988
-3,-2,-2,-6,-7,-5,-1,-3,2021-08-06 13:46:03,986988
4,4,4,4,1,0,1,2,2021-08-06 13:46:04,001988
-3,-3,0,14,11,4,1,0,2021-08-06 13:46:04,017986
2,2,1,8,8,4,0,1,2021-08-06 13:46:04,032987
-3,-3,-3,-10,-12,-8,-4,-4,2021-08-06 13:46:04,032987
-4,-5,-5,-8,-6,-6,-4,-2,2021-08-06 13:46:04,032987
1,1,-1,6,9,4,0,0,2021-08-06 13:46:04,032987
-3,-2,-2,-2,-5,-4,-1,0,2021-08-06 13:46:04,032987
1,1,0,3,3,4,1,0,2021-08-06 13:46:04,032987
-2,0,1,0,0,1,0,-1,2021-08-06 13:46:04,048988
-1,-2,-2,-5,-5,-1,-1,-2,2021-08-06 13:46:04,048988
-4,-6,-6,-12,-11,-7,-5,-2,2021-08-06 13:46:04,048988
0,0,1,2,-1,1,-1,0,2021-08-06 13:46:04,048988
2,5,9,6,7,4,1,2,2021-08-06 13:46:04,080988
0,1,-4,-2,-1,-1,0,0,2021-08-06 13:46:04,080988
-4,-4,-6,-6,-10,-6,-5,-3,2021-08-06 13:46:04,080988
-2,-4,-4,1,11,5,2,-1,2021-08-06 13:46:04,080988
1,-1,-1,-2,-3,-1,-2,-1,2021-08-06 13:46:04,080988
-2,-2,2,-5,-9,-6,-5,-2,2021-08-06 13:46:04,080988
3,2,7,17,19,11,5,2,2021-08-06 13:46:04,081988
-2,0,-1,-3,-3,-2,-2,0,2021-08-06 13:46:04,081988
0,0,-1,1,1,1,-1,1,2021-08-06 13:46:04,110987
0,0,0,0,1,1,1,-1,2021-08-06 13:46:04,126986
-2,-3,-2,-6,-10,-5,-3,-2,2021-08-06 13:46:04,126986
-2,-2,-4,-7,-9,-6,-3,-3,2021-08-06 13:46:04,126986
-2,-3,-3,-3,2,-2,-1,-1,2021-08-06 13:46:04,126986
-1,-1,-3,-3,-4,-3,0,-1,2021-08-06 13:46:04,126986
3,4,4,8,13,6,4,1,2021-08-06 13:46:04,126986
-2,-2,-2,-2,-5,-3,-2,-2,2021-08-06 13:46:04,126986
-3,-4,-7,-9,-9,-7,-4,-3,2021-08-06 13:46:04,158988
0,-2,-1,3,11,5,2,1,2021-08-06 13:46:04,158988
3,5,5,2,1,2,1,3,2021-08-06 13:46:04,158988
-2,-4,-4,-6,-8,-5,-3,-2,2021-08-06 13:46:04,158988
4,4,5,7,13,6,4,2,2021-08-06 13:46:04,174988
-4,0,1,5,1,0,-2,-1,2021-08-06 13:46:04,190986
-2,-4,-4,-2,0,-1,-1,-2,2021-08-06 13:46:04,190986
3,1,1,-4,-4,0,1,1,2021-08-06 13:46:04,190986
-2,-2,-4,-7,-10,-5,-3,-2,2021-08-06 13:46:04,190986
-3,-5,-3,-7,-9,-5,-3,-2,2021-08-06 13:46:04,190986
1,1,3,5,3,2,1,0,2021-08-06 13:46:04,190986
-1,-2,-2,-2,-3,-3,-3,-2,2021-08-06 13:46:04,191987
-1,-1,-2,-3,1,2,1,-2,2021-08-06 13:46:04,221987
-1,0,3,3,3,1,1,-1,2021-08-06 13:46:04,221987
-3,-3,-4,-4,-8,-4,-3,-2,2021-08-06 13:46:04,221987
1,2,2,5,8,2,1,3,2021-08-06 13:46:04,221987
-3,-4,-5,-3,-6,-3,-4,-3,2021-08-06 13:46:04,221987
-1,1,-2,5,8,5,1,1,2021-08-06 13:46:04,221987
-5,-5,-6,-11,-15,-9,-7,-4,2021-08-06 13:46:04,237987
2,1,2,5,6,3,2,1,2021-08-06 13:46:04,253986
0,2,7,5,5,3,2,0,2021-08-06 13:46:04,253986
0,1,-2,0,-4,-2,-2,-1,2021-08-06 13:46:04,253986
-4,-4,-4,0,0,0,-2,-1,2021-08-06 13:46:04,253986
-5,-3,-3,-1,-2,-2,-3,-3,2021-08-06 13:46:04,253986
2,3,-1,-6,-4,-2,2,3,2021-08-06 13:46:04,269986
0,-1,3,0,-1,-2,-2,-4,2021-08-06 13:46:04,284986
0,1,-1,1,1,-1,-1,0,2021-08-06 13:46:04,284986
-4,-4,-5,-3,-5,-4,-4,-3,2021-08-06 13:46:04,284986
1,1,0,4,3,2,1,1,2021-08-06 13:46:04,284986
0,-1,-3,-2,0,0,0,1,2021-08-06 13:46:04,284986
-2,-1,1,-1,0,-1,-2,-1,2021-08-06 13:46:04,284986
0,-1,1,2,2,1,0,-2,2021-08-06 13:46:04,284986
-3,-4,-5,-5,-8,-6,-3,-3,2021-08-06 13:46:04,315989
2,0,2,1,3,2,1,2,2021-08-06 13:46:04,331987
1,-1,0,0,-2,0,0,-1,2021-08-06 13:46:04,331987
-1,0,1,2,0,0,0,0,2021-08-06 13:46:04,331987
0,-1,0,0,0,-2,-2,-1,2021-08-06 13:46:04,331987
-2,-1,-1,0,0,-3,-1,0,2021-08-06 13:46:04,331987
-1,0,-5,-4,1,2,1,1,2021-08-06 13:46:04,331987
-2,-1,-2,-6,-10,-5,-2,-1,2021-08-06 13:46:04,331987
-2,-4,-2,-1,1,0,-1,-3,2021-08-06 13:46:04,347989
-1,-2,0,-1,0,1,1,-2,2021-08-06 13:46:04,347989
3,3,4,5,2,0,2,0,2021-08-06 13:46:04,347989
0,1,1,0,0,-2,0,1,2021-08-06 13:46:04,347989
-4,-3,-2,-10,-9,-5,-3,-4,2021-08-06 13:46:04,377987
-2,-2,-3,0,1,2,0,-1,2021-08-06 13:46:04,377987
-1,-2,-1,1,-2,-1,-2,-2,2021-08-06 13:46:04,377987
-2,-1,-1,-1,-3,-4,-2,-3,2021-08-06 13:46:04,377987
-1,-2,-7,-3,-5,-3,-2,1,2021-08-06 13:46:04,377987
-1,0,-1,-1,2,-1,-1,-1,2021-08-06 13:46:04,377987
2,0,3,4,8,5,3,1,2021-08-06 13:46:04,409986
1,-1,1,2,2,1,-1,-1,2021-08-06 13:46:04,424988
-2,-1,2,1,-5,-3,-4,1,2021-08-06 13:46:04,424988
1,0,0,4,6,2,-1,0,2021-08-06 13:46:04,424988
-3,-4,-3,-6,-5,-3,-2,0,2021-08-06 13:46:04,424988
-1,-2,-3,-3,-2,1,-3,-1,2021-08-06 13:46:04,424988
-2,-1,-1,-1,1,0,1,-3,2021-08-06 13:46:04,424988
0,0,0,-3,-4,-3,-1,0,2021-08-06 13:46:04,424988
2,2,0,-1,1,-2,1,2,2021-08-06 13:46:04,424988
1,0,-2,-2,2,1,0,0,2021-08-06 13:46:04,424988
-1,-2,-2,0,0,1,-1,-4,2021-08-06 13:46:04,455986
1,0,0,-2,-2,-1,2,1,2021-08-06 13:46:04,470986
-2,-2,-3,-4,-2,-4,-2,-2,2021-08-06 13:46:04,470986
0,-1,0,-1,-3,0,0,0,2021-08-06 13:46:04,470986
1,2,3,3,4,1,0,0,2021-08-06 13:46:04,470986
-1,-2,-3,-4,-2,0,-2,-2,2021-08-06 13:46:04,470986
-1,-2,-2,-2,-4,-2,-1,-1,2021-08-06 13:46:04,470986
0,-1,-3,-2,-3,-1,0,-1,2021-08-06 13:46:04,470986
-1,-1,2,5,8,4,0,0,2021-08-06 13:46:04,502986
0,-2,1,-2,-1,-2,-1,-1,2021-08-06 13:46:04,518988
-3,-1,-2,-3,-4,-1,-3,-1,2021-08-06 13:46:04,534986
0,-1,1,1,2,0,1,1,2021-08-06 13:46:04,534986
-1,0,2,1,1,2,3,1,2021-08-06 13:46:04,534986
-3,-3,-5,-5,-9,-7,-3,-5,2021-08-06 13:46:04,534986
-1,-2,-3,-3,-1,0,0,-2,2021-08-06 13:46:04,534986
1,3,2,-2,0,1,1,1,2021-08-06 13:46:04,534986
0,2,0,-1,-1,2,0,2,2021-08-06 13:46:04,534986
-1,0,0,1,1,1,1,0,2021-08-06 13:46:04,535986
-2,-1,-2,-3,-6,-6,-3,-3,2021-08-06 13:46:04,535986
-1,-2,-2,1,2,0,-1,-1,2021-08-06 13:46:04,535986
-1,-1,-3,1,2,1,-1,0,2021-08-06 13:46:04,550987
0,-1,-1,-2,-2,-2,-3,-2,2021-08-06 13:46:04,550987
2,2,2,0,-1,3,2,1,2021-08-06 13:46:04,566989
-1,0,-1,-2,0,-2,-1,1,2021-08-06 13:46:04,566989
1,-3,-1,-2,-2,-2,1,0,2021-08-06 13:46:04,566989
-1,0,0,0,0,0,-2,-2,2021-08-06 13:46:04,566989
-2,-2,-3,-2,-6,-4,-2,-1,2021-08-06 13:46:04,566989
-1,-1,0,8,10,5,1,0,2021-08-06 13:46:04,566989
1,0,2,1,0,-2,-2,-1,2021-08-06 13:46:04,598989
1,0,-5,-6,-7,-3,0,1,2021-08-06 13:46:04,598989
0,-1,-2,-4,-4,-4,-2,-1,2021-08-06 13:46:04,598989
-3,-1,-3,-3,-6,-2,-2,-3,2021-08-06 13:46:04,598989
0,-4,-3,-1,-2,-1,-2,-2,2021-08-06 13:46:04,614990
1,2,5,6,4,4,3,1,2021-08-06 13:46:04,630992
-1,2,2,6,8,3,1,0,2021-08-06 13:46:04,647037
-2,-3,-3,-3,-2,-3,-2,-1,2021-08-06 13:46:04,647037
0,0,1,2,4,0,1,-1,2021-08-06 13:46:04,647037
-3,-2,-2,0,-1,-2,-2,-1,2021-08-06 13:46:04,647037
-1,-4,-5,-9,-8,-5,-5,-5,2021-08-06 13:46:04,647037
3,0,0,-2,-4,0,1,0,2021-08-06 13:46:04,647037
-1,-1,-1,3,5,3,1,-2,2021-08-06 13:46:04,647037
-2,-3,-2,-3,-3,0,-1,-2,2021-08-06 13:46:04,647037
-2,-1,-1,8,6,4,1,1,2021-08-06 13:46:04,647037
-2,-3,-1,-4,-2,-1,0,0,2021-08-06 13:46:04,654986
-1,-1,-2,-6,-10,-5,-3,-1,2021-08-06 13:46:04,677027
0,-2,-1,0,-1,1,0,-1,2021-08-06 13:46:04,693037
0,-1,-1,-2,0,1,-1,-1,2021-08-06 13:46:04,709024
-1,-1,-1,-4,-3,-3,-3,-2,2021-08-06 13:46:04,709024
-2,-3,-4,-5,-6,-2,-1,-1,2021-08-06 13:46:04,709024
0,1,3,4,5,2,1,0,2021-08-06 13:46:04,709024
1,0,-1,-2,-1,-2,-1,0,2021-08-06 13:46:04,709024
-3,-3,-2,0,-1,-3,-1,-2,2021-08-06 13:46:04,709024
-5,-3,-5,-5,-10,-7,-4,-3,2021-08-06 13:46:04,709024
4,3,1,1,3,3,2,2,2021-08-06 13:46:04,709024
2,1,1,2,4,2,2,1,2021-08-06 13:46:04,709989
0,2,0,3,3,2,0,-2,2021-08-06 13:46:04,709989
-2,-2,-3,0,-2,-3,-2,-4,2021-08-06 13:46:04,740986
-4,-1,-2,-3,-6,-5,-5,-2,2021-08-06 13:46:04,740986
-1,0,0,0,-1,-1,0,-1,2021-08-06 13:46:04,740986
-1,-3,-4,-3,-2,-1,-1,0,2021-08-06 13:46:04,740986
1,-2,-3,-2,0,0,2,1,2021-08-06 13:46:04,740986
-2,-3,-1,-2,2,1,0,1,2021-08-06 13:46:04,740986
0,-1,1,-1,-4,-3,-3,-1,2021-08-06 13:46:04,756987
-2,-2,-1,-2,-3,-2,-3,-3,2021-08-06 13:46:04,756987
-3,0,-2,-2,-1,0,-2,-3,2021-08-06 13:46:04,772986
-2,-2,-2,-5,-6,-6,-3,-3,2021-08-06 13:46:04,788986
0,0,2,7,7,3,2,1,2021-08-06 13:46:04,788986
5,6,4,2,1,2,2,3,2021-08-06 13:46:04,788986
-2,-3,-1,-5,-4,1,-1,-1,2021-08-06 13:46:04,788986
1,0,0,0,0,-1,1,0,2021-08-06 13:46:04,788986
-2,-2,-4,-5,-6,-2,-2,-2,2021-08-06 13:46:04,788986
1,-1,-1,0,0,-2,-1,-1,2021-08-06 13:46:04,788986
-1,-1,0,2,3,3,1,0,2021-08-06 13:46:04,804988
-2,-1,-1,-2,-2,-1,-1,-2,2021-08-06 13:46:04,820986
-1,-1,0,-2,-2,-3,-2,-2,2021-08-06 13:46:04,820986
-1,-2,-1,-2,-2,-3,-2,-2,2021-08-06 13:46:04,820986
1,0,0,-2,-4,-3,-1,-1,2021-08-06 13:46:04,820986
-1,-1,-2,1,6,3,-1,0,2021-08-06 13:46:04,820986
0,0,1,2,2,3,2,0,2021-08-06 13:46:04,836986
-1,-3,-2,1,0,-1,-1,-1,2021-08-06 13:46:04,836986
0,-1,2,2,1,-2,-1,0,2021-08-06 13:46:04,852987
0,-1,-1,-1,-3,-3,-3,0,2021-08-06 13:46:04,868988
0,-2,-4,-3,-2,-2,-2,-2,2021-08-06 13:46:04,884986
-3,-1,-1,-3,-4,-1,-1,-1,2021-08-06 13:46:04,884986
-4,-3,-5,-9,-13,-8,-5,-2,2021-08-06 13:46:04,884986
1,3,4,15,26,14,5,1,2021-08-06 13:46:04,884986
-3,1,-2,-1,-3,-2,-1,-1,2021-08-06 13:46:04,884986
-1,-2,-1,-3,-2,-2,-1,-1,2021-08-06 13:46:04,884986
-2,-2,0,0,0,-2,1,0,2021-08-06 13:46:04,884986
1,1,-1,-4,-8,-4,-1,-1,2021-08-06 13:46:04,885987
-2,-4,0,-1,1,-1,-2,-3,2021-08-06 13:46:04,885987
3,3,3,7,4,3,3,1,2021-08-06 13:46:04,885987
-3,-3,-7,-8,-9,-6,-3,-2,2021-08-06 13:46:04,915987
-2,-5,-7,-11,-10,-7,-4,-3,2021-08-06 13:46:04,931987
0,-2,1,0,1,-2,0,0,2021-08-06 13:46:04,931987
-1,-1,-1,-2,-1,-2,-3,-1,2021-08-06 13:46:04,931987
1,3,4,6,10,6,3,1,2021-08-06 13:46:04,931987
0,-1,-2,-3,-3,0,3,1,2021-08-06 13:46:04,931987
0,-1,-1,-1,-2,-1,-3,-1,2021-08-06 13:46:04,931987
-4,-3,-2,-2,-1,-2,-2,-2,2021-08-06 13:46:04,931987
4,2,2,7,5,4,0,2,2021-08-06 13:46:04,947986
-2,-3,-2,-4,-6,-4,-1,-3,2021-08-06 13:46:04,962987
-3,-2,-3,-2,-5,-3,0,-1,2021-08-06 13:46:04,978986
0,-1,-1,4,8,5,2,0,2021-08-06 13:46:04,978986
3,3,3,2,2,1,0,1,2021-08-06 13:46:04,978986
1,2,0,0,0,-2,-1,1,2021-08-06 13:46:04,978986
3,1,5,6,3,3,0,0,2021-08-06 13:46:04,978986
-1,-1,1,1,0,0,-2,-1,2021-08-06 13:46:04,978986
-4,-4,-12,-13,-13,-10,-5,-3,2021-08-06 13:46:04,978986
-1,-3,-1,-4,-4,-2,-1,-1,2021-08-06 13:46:04,978986
-2,-2,-5,-4,-3,-4,-2,0,2021-08-06 13:46:04,994987
-1,1,1,0,0,1,-1,-1,2021-08-06 13:46:04,994987
1,0,4,7,8,4,0,0,2021-08-06 13:46:05,010987
-3,-2,-5,-5,-5,-2,-2,-1,2021-08-06 13:46:05,015987
-3,-4,-5,-8,-9,-7,-3,-3,2021-08-06 13:46:05,015987
4,4,3,3,8,4,3,2,2021-08-06 13:46:05,015987
2,1,2,4,4,3,4,0,2021-08-06 13:46:05,042987
-2,-2,-1,1,-1,-2,-4,-3,2021-08-06 13:46:05,058986
-4,-3,-4,-7,-7,-3,-1,-5,2021-08-06 13:46:05,058986
-1,-1,-3,-3,-4,-2,-1,1,2021-08-06 13:46:05,058986
0,1,2,3,5,2,0,-2,2021-08-06 13:46:05,058986
0,-3,-2,-1,-1,-2,-2,0,2021-08-06 13:46:05,058986
-1,-2,-1,0,-3,0,0,-2,2021-08-06 13:46:05,058986
-3,-3,-3,-7,-9,-7,-3,-3,2021-08-06 13:46:05,058986
-5,-4,-4,-3,-5,-2,-1,-3,2021-08-06 13:46:05,074986
2,1,3,8,11,7,3,2,2021-08-06 13:46:05,090986
3,4,1,3,5,3,2,2,2021-08-06 13:46:05,122987
0,0,-3,-1,-1,-2,1,1,2021-08-06 13:46:05,137987
-1,-2,0,-2,0,-1,-3,1,2021-08-06 13:46:05,137987
-5,-3,-5,-6,-10,-6,-5,-5,2021-08-06 13:46:05,137987
1,0,0,1,-2,-1,1,1,2021-08-06 13:46:05,137987
1,0,1,3,3,4,-1,-1,2021-08-06 13:46:05,137987
-2,-1,1,-4,-2,-2,-2,-1,2021-08-06 13:46:05,137987
0,0,0,-2,-3,-2,0,-2,2021-08-06 13:46:05,137987
0,-2,-3,-5,-5,-3,-2,-1,2021-08-06 13:46:05,138988
-2,-4,-5,-6,-9,-3,-3,-3,2021-08-06 13:46:05,138988
4,0,1,3,14,6,3,2,2021-08-06 13:46:05,138988
3,2,3,1,6,2,0,0,2021-08-06 13:46:05,138988
1,1,2,4,4,2,0,-1,2021-08-06 13:46:05,138988
-3,-1,1,-1,-3,-2,-1,-2,2021-08-06 13:46:05,138988
-4,-3,-4,-9,-15,-8,-5,-3,2021-08-06 13:46:05,152988
-2,-4,-2,-7,-3,-1,0,0,2021-08-06 13:46:05,168988
1,0,-1,2,3,2,1,1,2021-08-06 13:46:05,184988
-1,-4,-3,-7,-3,-3,0,-1,2021-08-06 13:46:05,184988
-2,0,0,2,-1,-2,0,0,2021-08-06 13:46:05,184988
-1,0,1,3,-1,-2,-2,-1,2021-08-06 13:46:05,184988
-1,-1,-4,-3,-4,-2,-1,-1,2021-08-06 13:46:05,184988
2,2,-3,4,7,5,0,2,2021-08-06 13:46:05,184988
0,-1,1,-2,-2,-3,-1,-1,2021-08-06 13:46:05,184988
-5,-3,-4,-6,-7,-6,-2,-1,2021-08-06 13:46:05,185991
-2,-4,0,-3,-4,-2,-2,-4,2021-08-06 13:46:05,185991
-1,-1,1,2,1,0,-1,0,2021-08-06 13:46:05,185991
1,4,1,3,3,4,0,1,2021-08-06 13:46:05,216987
-1,-1,-1,0,-2,0,0,-3,2021-08-06 13:46:05,216987
-2,-1,0,-3,-3,-2,-3,0,2021-08-06 13:46:05,216987
-3,-5,-3,-5,-8,-6,-4,-3,2021-08-06 13:46:05,216987
0,-1,-2,2,10,3,0,0,2021-08-06 13:46:05,232988
0,-1,-1,2,3,0,0,0,2021-08-06 13:46:05,232988
1,2,0,3,1,1,2,2,2021-08-06 13:46:05,232988
-1,2,-2,-2,-1,0,0,1,2021-08-06 13:46:05,232988
-3,-4,-5,-7,-10,-6,-1,-2,2021-08-06 13:46:05,248988
-1,-1,0,4,5,2,-1,0,2021-08-06 13:46:05,248988
-1,0,1,2,4,0,-1,-1,2021-08-06 13:46:05,248988
-2,-3,-3,-6,-8,-4,-2,-1,2021-08-06 13:46:05,248988
2,1,2,4,5,3,2,1,2021-08-06 13:46:05,280988
-2,-1,-3,-2,-2,-1,-3,-1,2021-08-06 13:46:05,296986
-1,1,0,1,4,3,0,0,2021-08-06 13:46:05,296986
-1,-1,1,0,-3,-4,-1,-2,2021-08-06 13:46:05,296986
-4,-3,-5,-7,-10,-8,-5,-4,2021-08-06 13:46:05,296986
3,4,5,4,6,5,3,1,2021-08-06 13:46:05,296986
-1,-3,0,0,4,0,-2,-1,2021-08-06 13:46:05,296986
2,2,2,4,7,5,1,1,2021-08-06 13:46:05,297988
-2,-3,-1,1,-3,-1,-2,-1,2021-08-06 13:46:05,312988
-3,-3,-5,-6,-10,-6,-4,-3,2021-08-06 13:46:05,312988
0,0,-1,-3,-2,0,0,-1,2021-08-06 13:46:05,312988
0,-2,1,-4,-3,-1,-2,-1,2021-08-06 13:46:05,312988
2,1,1,1,-1,-2,-2,1,2021-08-06 13:46:05,343986
-1,-1,-2,-2,-3,-2,-1,-2,2021-08-06 13:46:05,359986
1,2,1,0,-3,0,1,2,2021-08-06 13:46:05,370987
-1,-2,0,1,0,-2,-2,-2,2021-08-06 13:46:05,370987
0,-2,0,0,1,2,0,-1,2021-08-06 13:46:05,370987
-1,-1,1,1,1,0,-1,-1,2021-08-06 13:46:05,370987
-2,-1,-3,-4,-3,-2,-1,-1,2021-08-06 13:46:05,370987
-2,-1,-3,-2,-2,-1,-1,-2,2021-08-06 13:46:05,370987
1,0,1,1,3,3,0,1,2021-08-06 13:46:05,371988
-2,0,0,-1,0,-1,0,-1,2021-08-06 13:46:05,371988
-1,-1,0,-2,0,-1,-2,-2,2021-08-06 13:46:05,371988
-1,0,0,-1,-3,-2,-2,-2,2021-08-06 13:46:05,371988
-1,-1,0,-2,-3,-4,-2,0,2021-08-06 13:46:05,391986
0,-1,-3,1,-2,-2,-1,-1,2021-08-06 13:46:05,391986
0,-2,0,0,-2,-2,0,1,2021-08-06 13:46:05,391986
-1,-2,-2,0,1,-1,0,0,2021-08-06 13:46:05,391986
-1,-1,-3,-1,-3,1,1,-3,2021-08-06 13:46:05,423986
-1,0,0,-1,-3,-2,0,0,2021-08-06 13:46:05,439986
-2,-3,0,0,0,-1,0,-1,2021-08-06 13:46:05,455986
0,-2,1,-1,-2,-1,-1,0,2021-08-06 13:46:05,455986
-3,-3,-2,-1,-1,0,0,1,2021-08-06 13:46:05,455986
-1,-1,1,0,0,0,0,0,2021-08-06 13:46:05,455986
-2,-2,-1,0,0,0,0,-1,2021-08-06 13:46:05,455986
-2,-1,-2,-1,-2,-1,-1,-2,2021-08-06 13:46:05,455986
0,0,-1,-3,-3,-2,-1,-2,2021-08-06 13:46:05,455986
0,0,1,2,4,3,-1,0,2021-08-06 13:46:05,456988
-1,-1,-2,0,1,1,0,0,2021-08-06 13:46:05,456988
-3,-1,-2,-1,-2,-1,0,0,2021-08-06 13:46:05,456988
-1,-1,0,-2,-2,-2,-3,-1,2021-08-06 13:46:05,471986
-2,-1,-3,-5,-7,-5,-2,-3,2021-08-06 13:46:05,471986
-3,-1,0,1,-1,0,-2,-1,2021-08-06 13:46:05,471986
-1,-1,-2,-4,-2,-1,-2,-2,2021-08-06 13:46:05,471986
1,2,2,1,5,1,2,-1,2021-08-06 13:46:05,487986
-1,0,0,-1,0,-1,1,0,2021-08-06 13:46:05,502987
0,-1,-2,-1,-2,-2,2,-1,2021-08-06 13:46:05,518986
0,-1,-1,-1,-5,-2,-1,0,2021-08-06 13:46:05,518986
-1,-1,-1,2,2,0,-1,-2,2021-08-06 13:46:05,518986
0,-3,-4,-4,-3,-2,-1,-2,2021-08-06 13:46:05,518986
-1,1,2,-1,-1,-1,-2,1,2021-08-06 13:46:05,518986
1,0,0,1,1,0,-1,0,2021-08-06 13:46:05,518986
-1,-2,-1,-2,-6,-5,-3,-2,2021-08-06 13:46:05,533987
0,-2,0,2,5,1,1,1,2021-08-06 13:46:05,533987
1,0,-2,0,0,-1,-1,-2,2021-08-06 13:46:05,533987
0,-1,0,1,4,2,0,1,2021-08-06 13:46:05,533987
-3,-1,0,1,-1,-2,-1,-1,2021-08-06 13:46:05,548987
-4,-3,-2,-1,-4,-3,-3,-3,2021-08-06 13:46:05,548987
-1,-2,-3,-3,-3,-2,-4,-1,2021-08-06 13:46:05,548987
0,2,0,0,0,0,0,1,2021-08-06 13:46:05,548987
-2,-1,0,-3,-3,-1,0,-1,2021-08-06 13:46:05,580986
1,0,-1,-2,-3,-2,-2,-1,2021-08-06 13:46:05,595987
-1,-3,-1,-1,-1,-1,-1,-1,2021-08-06 13:46:05,595987
1,-1,-1,1,6,2,1,-1,2021-08-06 13:46:05,595987
1,0,0,0,-2,0,-1,1,2021-08-06 13:46:05,595987
-1,-1,0,-2,-2,0,1,1,2021-08-06 13:46:05,595987
-1,0,0,-2,-3,-2,-2,-2,2021-08-06 13:46:05,595987
-5,-3,-3,-4,-4,-4,-2,-2,2021-08-06 13:46:05,595987
-2,-3,-2,-4,-4,-2,-1,-2,2021-08-06 13:46:05,611987
1,2,3,5,12,7,3,0,2021-08-06 13:46:05,611987
0,1,1,3,-2,1,0,1,2021-08-06 13:46:05,643989
1,0,0,1,-1,-1,1,0,2021-08-06 13:46:05,643989
-1,-2,-4,0,1,-1,0,-3,2021-08-06 13:46:05,643989
1,0,-3,-3,-5,-4,-1,0,2021-08-06 13:46:05,643989
-1,-2,-2,-1,-1,-2,-1,-1,2021-08-06 13:46:05,643989
1,0,0,0,-2,0,0,0,2021-08-06 13:46:05,643989
-2,-1,-2,-4,-4,-1,-1,0,2021-08-06 13:46:05,659986
-1,-3,-1,-2,-2,-1,-2,0,2021-08-06 13:46:05,659986
-1,0,-1,-1,2,2,2,-1,2021-08-06 13:46:05,659986
-3,-1,0,-2,-3,-2,-2,0,2021-08-06 13:46:05,659986
-1,0,1,2,1,-1,-2,-2,2021-08-06 13:46:05,659986
-2,-1,2,0,-2,-2,-2,-3,2021-08-06 13:46:05,659986
-1,1,-1,-2,-2,-3,-2,-2,2021-08-06 13:46:05,674988
0,-1,-2,-3,-4,-3,-1,-2,2021-08-06 13:46:05,674988
1,-1,-1,1,2,-1,0,-1,2021-08-06 13:46:05,690986
1,1,1,-1,-2,0,1,0,2021-08-06 13:46:05,690986
-1,-1,-2,0,3,1,0,-3,2021-08-06 13:46:05,690986
1,-2,-1,0,-1,0,-2,-1,2021-08-06 13:46:05,690986
1,2,1,0,0,0,-1,0,2021-08-06 13:46:05,722986
-1,1,0,-1,-3,-1,1,0,2021-08-06 13:46:05,722986
-2,-2,0,0,2,0,0,-1,2021-08-06 13:46:05,722986
-4,-1,-2,1,0,-1,-1,-3,2021-08-06 13:46:05,722986
-1,-1,-1,-1,4,1,-1,0,2021-08-06 13:46:05,731987
-2,-2,-3,-2,-4,-2,-3,-3,2021-08-06 13:46:05,731987
0,-1,1,-2,-3,-2,0,-1,2021-08-06 13:46:05,731987
0,1,1,0,1,0,-1,0,2021-08-06 13:46:05,731987
1,0,0,0,-3,-2,0,-1,2021-08-06 13:46:05,754987
-2,-2,-1,0,-1,-1,-1,-3,2021-08-06 13:46:05,754987
-1,-1,-3,-4,-2,0,-2,0,2021-08-06 13:46:05,754987
-2,-1,-3,-4,-6,-3,-2,-1,2021-08-06 13:46:05,754987
-1,-2,-3,-4,-7,-4,-2,-1,2021-08-06 13:46:05,785986
2,1,5,8,8,6,2,3,2021-08-06 13:46:05,785986
2,1,2,6,6,3,2,0,2021-08-06 13:46:05,785986
-2,-1,-1,-4,-2,-2,-2,-2,2021-08-06 13:46:05,785986
-5,-4,-2,-3,-4,-1,-3,-2,2021-08-06 13:46:05,785986
0,-1,-3,-4,-3,-3,-2,0,2021-08-06 13:46:05,785986
0,1,0,0,-2,0,-1,-1,2021-08-06 13:46:05,816989
0,-1,1,3,1,0,1,0,2021-08-06 13:46:05,816989
0,-1,0,-1,-1,-2,1,-1,2021-08-06 13:46:05,832988
-2,-4,-2,-3,-4,-4,-1,-2,2021-08-06 13:46:05,832988
-1,-1,-1,-1,-2,0,-1,-1,2021-08-06 13:46:05,832988
-1,-2,-3,-2,1,-1,-2,-4,2021-08-06 13:46:05,832988
0,0,0,-1,-2,-1,-2,1,2021-08-06 13:46:05,832988
1,1,-1,-1,1,0,-1,0,2021-08-06 13:46:05,832988
-2,-2,-1,0,-1,-2,-1,-1,2021-08-06 13:46:05,832988
1,-2,-2,-2,-1,1,-1,0,2021-08-06 13:46:05,832988
0,-1,0,0,2,1,0,-2,2021-08-06 13:46:05,864988
2,1,-1,-1,1,1,0,1,2021-08-06 13:46:05,864988
1,-1,1,-2,-3,-2,-1,-2,2021-08-06 13:46:05,864988
0,-2,0,0,0,-1,1,1,2021-08-06 13:46:05,864988
-3,-1,-2,-2,-4,-4,-1,-2,2021-08-06 13:46:05,864988
0,-1,-3,-3,-5,-1,1,0,2021-08-06 13:46:05,864988
-2,-3,-4,-2,0,0,-2,-4,2021-08-06 13:46:05,864988
-1,-2,1,0,-3,-2,-1,-1,2021-08-06 13:46:05,864988
1,4,2,1,5,3,2,1,2021-08-06 13:46:05,897037
-3,-2,-1,-2,-4,-3,-4,-3,2021-08-06 13:46:05,897037
-2,-2,-5,-5,-7,-3,-2,-1,2021-08-06 13:46:05,897037
0,1,2,0,-1,-1,-1,0,2021-08-06 13:46:05,897037
0,1,-1,-1,0,0,0,0,2021-08-06 13:46:05,927987
-2,0,-2,2,0,0,-1,0,2021-08-06 13:46:05,927987
-1,-1,0,0,3,-1,0,-1,2021-08-06 13:46:05,927987
-1,-2,-4,-3,-4,-3,-2,-2,2021-08-06 13:46:05,927987
-2,-1,0,1,-2,0,0,-3,2021-08-06 13:46:05,927987
-1,-2,0,-1,1,0,-1,-2,2021-08-06 13:46:05,927987
-1,0,-2,-3,-4,-2,-1,2,2021-08-06 13:46:05,927987
0,0,0,0,0,-1,0,-1,2021-08-06 13:46:05,927987
-2,-3,-2,-5,-7,-5,-4,0,2021-08-06 13:46:05,959026
-1,0,0,1,1,2,2,0,2021-08-06 13:46:05,959026
1,0,0,4,5,2,-1,-1,2021-08-06 13:46:05,959026
-2,0,-1,-2,-2,-1,-1,-1,2021-08-06 13:46:05,959026
-1,-3,-2,-1,2,0,-1,-1,2021-08-06 13:46:05,974987
-1,-2,0,-3,-3,-2,-2,-2,2021-08-06 13:46:05,990986
0,1,0,0,-3,-2,-2,-1,2021-08-06 13:46:06,006986
0,1,0,5,6,4,3,1,2021-08-06 13:46:06,006986
-1,-3,-4,1,-1,-1,-1,-1,2021-08-06 13:46:06,006986
-3,-2,-3,-6,-8,-5,-2,-1,2021-08-06 13:46:06,006986
-1,-2,-1,-3,-5,-6,-1,0,2021-08-06 13:46:06,006986
0,-1,-3,-3,-3,-2,-1,-2,2021-08-06 13:46:06,006986
1,-1,0,2,4,0,0,-1,2021-08-06 13:46:06,006986
0,0,-1,0,1,0,-1,-1,2021-08-06 13:46:06,006986
0,0,0,-1,1,1,0,1,2021-08-06 13:46:06,007988
0,0,-2,-2,-4,-2,-2,0,2021-08-06 13:46:06,007988
-1,0,-2,-4,-4,-1,-1,-1,2021-08-06 13:46:06,037987
-2,1,3,3,10,6,1,0,2021-08-06 13:46:06,052986
-1,-2,-2,0,-1,0,-1,-1,2021-08-06 13:46:06,068986
0,0,1,3,1,-2,0,0,2021-08-06 13:46:06,084986
0,1,-1,-4,-9,-3,-1,-2,2021-08-06 13:46:06,095987
1,0,1,9,16,7,2,2,2021-08-06 13:46:06,096988
-2,-1,-1,-2,-6,-4,-2,-1,2021-08-06 13:46:06,096988
0,0,0,-1,-1,0,0,0,2021-08-06 13:46:06,096988
0,-2,-1,0,-3,-2,-2,-1,2021-08-06 13:46:06,096988
-2,-1,-1,-4,-8,-5,-2,-2,2021-08-06 13:46:06,096988
1,0,0,3,5,1,-1,0,2021-08-06 13:46:06,096988
-1,0,-1,0,0,2,-1,-2,2021-08-06 13:46:06,096988
-1,0,0,0,1,-2,-1,-1,2021-08-06 13:46:06,096988
1,-1,-1,-5,-6,-1,-1,-3,2021-08-06 13:46:06,116986
-2,-1,-1,-2,-3,-2,0,-2,2021-08-06 13:46:06,116986
-2,-2,-1,-4,-2,-2,-3,-2,2021-08-06 13:46:06,116986
-2,-3,-1,0,1,1,1,-1,2021-08-06 13:46:06,116986
1,0,0,2,-1,-1,-2,1,2021-08-06 13:46:06,116986
-1,0,-1,0,-2,-2,-1,-1,2021-08-06 13:46:06,116986
0,0,-1,0,0,0,0,0,2021-08-06 13:46:06,116986
-2,-2,-1,1,2,3,0,0,2021-08-06 13:46:06,131988
-4,-3,-3,-2,-6,-5,-3,-2,2021-08-06 13:46:06,131988
-1,-1,0,-1,-1,0,-1,-2,2021-08-06 13:46:06,131988
2,0,0,-1,-2,-2,-1,-1,2021-08-06 13:46:06,131988
-1,1,-1,-1,1,0,1,0,2021-08-06 13:46:06,163987
-1,-1,-1,2,5,1,1,-1,2021-08-06 13:46:06,179986
-2,-3,-2,-1,-3,-1,-1,-2,2021-08-06 13:46:06,195987
-1,0,1,1,0,0,0,0,2021-08-06 13:46:06,211986
1,-2,-2,-2,-1,-2,-3,-1,2021-08-06 13:46:06,227987
-2,-3,-1,-6,-12,-8,-4,-2,2021-08-06 13:46:06,227987
0,1,1,4,7,4,3,1,2021-08-06 13:46:06,227987
-1,-3,-3,1,3,2,-1,-2,2021-08-06 13:46:06,227987
0,2,1,0,1,-1,-2,-3,2021-08-06 13:46:06,227987
0,0,-1,-1,-3,-1,-1,-1,2021-08-06 13:46:06,227987
0,-1,1,0,-1,-1,0,0,2021-08-06 13:46:06,227987
1,1,2,-2,-5,1,-1,0,2021-08-06 13:46:06,228989
0,0,0,3,4,1,-1,0,2021-08-06 13:46:06,228989
-3,-2,-2,-1,0,-2,0,-2,2021-08-06 13:46:06,228989
-2,-2,-1,-2,-4,-2,-2,-2,2021-08-06 13:46:06,228989
-2,-1,-3,-2,0,-2,0,-1,2021-08-06 13:46:06,228989
0,-1,-1,0,0,0,1,-2,2021-08-06 13:46:06,228989
-2,1,-1,-2,-3,-1,-1,0,2021-08-06 13:46:06,228989
-1,-1,-1,-2,-3,-1,-3,-1,2021-08-06 13:46:06,228989
-1,0,1,-1,1,-2,0,-2,2021-08-06 13:46:06,228989
1,-2,-1,-4,-2,0,1,1,2021-08-06 13:46:06,257987
1,0,-2,-2,-2,1,1,0,2021-08-06 13:46:06,257987
-3,-4,-4,-3,0,0,-1,-2,2021-08-06 13:46:06,273986
-1,1,1,1,-2,-2,-1,-2,2021-08-06 13:46:06,288986
-1,2,5,2,1,1,0,2,2021-08-06 13:46:06,288986
0,-1,0,0,0,-1,-2,-1,2021-08-06 13:46:06,288986
0,-3,-2,-2,-4,-4,-1,-2,2021-08-06 13:46:06,288986
-1,-3,-2,0,1,1,-1,-1,2021-08-06 13:46:06,288986
-2,-2,-2,-2,-4,-3,-1,-2,2021-08-06 13:46:06,288986
1,1,1,-1,-4,-2,1,3,2021-08-06 13:46:06,288986
-1,-2,-2,-1,1,-1,0,0,2021-08-06 13:46:06,288986
-2,-2,-2,-1,-3,-1,-2,0,2021-08-06 13:46:06,288986
0,-3,-3,0,2,3,1,-1,2021-08-06 13:46:06,319986
0,-1,0,-2,-2,-3,-2,-2,2021-08-06 13:46:06,335986
1,1,-1,0,-3,-2,-1,-1,2021-08-06 13:46:06,350986
1,2,1,1,0,1,0,1,2021-08-06 13:46:06,350986
-3,0,0,-2,0,-1,-1,-1,2021-08-06 13:46:06,350986
-3,-4,-3,0,0,-3,-2,-3,2021-08-06 13:46:06,350986
2,2,0,-1,2,2,1,1,2021-08-06 13:46:06,350986
-1,-1,1,-3,-3,0,-2,0,2021-08-06 13:46:06,350986
-2,0,-1,-1,-3,-2,-1,-1,2021-08-06 13:46:06,350986
1,-1,-2,0,0,1,0,-2,2021-08-06 13:46:06,350986
-1,-1,-1,-4,-4,-1,-2,0,2021-08-06 13:46:06,351988
0,-1,-1,-1,-1,-1,1,-1,2021-08-06 13:46:06,351988
-2,-3,-4,-4,-1,-4,-2,-1,2021-08-06 13:46:06,366987
2,1,2,3,1,1,0,0,2021-08-06 13:46:06,366987
-1,-2,-2,0,-2,-3,-1,-1,2021-08-06 13:46:06,366987
-2,-1,0,0,-1,-1,0,-1,2021-08-06 13:46:06,366987
0,0,0,1,-1,0,-1,0,2021-08-06 13:46:06,397988
-2,-1,-2,-1,0,-1,0,-1,2021-08-06 13:46:06,397988
0,-1,-2,-2,-1,-2,-1,0,2021-08-06 13:46:06,397988
-2,-3,-2,-2,0,-1,-2,-2,2021-08-06 13:46:06,397988
1,0,-1,-1,-2,-1,-2,-3,2021-08-06 13:46:06,413987
0,0,-1,2,-1,-1,-1,-1,2021-08-06 13:46:06,413987
0,0,1,0,3,0,0,-1,2021-08-06 13:46:06,413987
-1,-4,-5,-3,-4,-3,-2,0,2021-08-06 13:46:06,413987
-1,-1,0,-2,-1,-1,-1,0,2021-08-06 13:46:06,429987
0,0,0,-1,-2,0,-1,-1,2021-08-06 13:46:06,445987
0,0,0,1,-1,0,1,0,2021-08-06 13:46:06,445987
2,1,0,1,1,2,1,-1,2021-08-06 13:46:06,445987
1,-2,-1,-2,-1,-3,-1,0,2021-08-06 13:46:06,458987
0,0,-1,-2,-1,-1,-2,-1,2021-08-06 13:46:06,458987
-2,-1,1,-1,-2,-1,-1,1,2021-08-06 13:46:06,459987
-3,-1,-1,-1,-2,-1,-1,-1,2021-08-06 13:46:06,459987
0,1,-2,-1,-4,-1,-2,0,2021-08-06 13:46:06,477988
-1,-3,-2,1,5,5,2,2,2021-08-06 13:46:06,492987
0,-1,1,0,-1,2,1,0,2021-08-06 13:46:06,507986
0,-1,0,0,-1,-2,-2,-1,2021-08-06 13:46:06,507986
-3,-1,0,0,0,-1,0,-1,2021-08-06 13:46:06,522987
-4,-1,-2,-1,-2,-3,-2,-2,2021-08-06 13:46:06,522987
-2,-1,-2,-1,-3,-2,-3,-3,2021-08-06 13:46:06,522987
-1,-2,-3,-3,-2,-4,-1,-1,2021-08-06 13:46:06,522987
3,3,1,2,-1,1,1,3,2021-08-06 13:46:06,522987
-1,0,-1,-4,-3,-1,-1,-1,2021-08-06 13:46:06,522987
-1,1,-1,0,-2,0,0,0,2021-08-06 13:46:06,522987
-1,-2,-1,-1,-1,-1,-1,0,2021-08-06 13:46:06,522987
-2,-1,-1,-2,-1,-1,-2,-1,2021-08-06 13:46:06,537987
-3,-2,-3,-1,-2,-1,0,-3,2021-08-06 13:46:06,537987
-1,-3,-3,-1,-1,-1,-3,-2,2021-08-06 13:46:06,537987
-1,-1,-1,-2,0,0,-2,0,2021-08-06 13:46:06,537987
-5,-2,-1,-3,-3,-2,-1,-3,2021-08-06 13:46:06,553988
3,5,4,5,5,3,3,5,2021-08-06 13:46:06,553988
1,0,0,0,0,-1,-1,-2,2021-08-06 13:46:06,553988
0,1,-2,2,-1,0,0,0,2021-08-06 13:46:06,553988
0,-2,-2,0,-1,0,-1,-2,2021-08-06 13:46:06,586021
-2,-3,-4,-3,-5,-4,-3,-2,2021-08-06 13:46:06,586021
0,-1,-2,-1,0,-1,-3,0,2021-08-06 13:46:06,586021
0,0,1,-1,0,0,0,1,2021-08-06 13:46:06,586021
0,0,0,1,1,1,0,-2,2021-08-06 13:46:06,586021
0,-1,-2,-1,-3,-2,-2,-1,2021-08-06 13:46:06,586021
-1,-3,-2,-2,-1,-2,-1,1,2021-08-06 13:46:06,586021
-2,-1,-1,-2,1,-2,-2,-1,2021-08-06 13:46:06,586021
0,0,-1,-1,-1,-1,0,-1,2021-08-06 13:46:06,618021
0,-3,-1,0,0,1,0,0,2021-08-06 13:46:06,634022
-2,-1,-1,-2,-4,-1,-2,-2,2021-08-06 13:46:06,650020
1,3,3,2,1,2,2,1,2021-08-06 13:46:06,666021
1,-2,-1,-2,-1,-1,1,0,2021-08-06 13:46:06,698021
-1,-1,0,-2,-2,-2,-2,-1,2021-08-06 13:46:06,698021
-3,-4,-2,-4,-2,-1,-2,-2,2021-08-06 13:46:06,698021
0,-1,0,0,-1,0,1,-1,2021-08-06 13:46:06,698021
1,1,2,2,1,1,2,1,2021-08-06 13:46:06,698021
-2,0,0,-2,-3,-1,-1,-2,2021-08-06 13:46:06,698021
-1,-1,0,-1,-3,-2,-2,-1,2021-08-06 13:46:06,698021
-2,-3,-3,0,-1,-3,-4,-3,2021-08-06 13:46:06,698021
1,1,1,1,6,2,-1,0,2021-08-06 13:46:06,698021
0,-1,-1,1,0,-1,-1,0,2021-08-06 13:46:06,698021
-2,0,-1,0,-1,-1,1,-1,2021-08-06 13:46:06,699021
-2,-3,-3,-3,-4,-1,-1,-1,2021-08-06 13:46:06,699021
-2,-3,-2,-3,-3,-3,-3,-1,2021-08-06 13:46:06,699021
-2,-2,-1,-2,-3,-1,0,-1,2021-08-06 13:46:06,699021
3,4,1,-2,-2,-2,-1,1,2021-08-06 13:46:06,699021
-1,-3,-3,-1,-1,1,-1,-3,2021-08-06 13:46:06,699021
-1,-1,-3,-1,-3,0,-1,-1,2021-08-06 13:46:06,714021
0,-2,1,0,-2,-2,-1,-1,2021-08-06 13:46:06,714021
0,0,0,-2,-3,1,1,0,2021-08-06 13:46:06,714021
-2,-2,-1,1,1,-1,0,-1,2021-08-06 13:46:06,714021
-2,0,-1,0,-4,-3,-3,-1,2021-08-06 13:46:06,730023
0,-1,-3,-2,-1,0,-1,0,2021-08-06 13:46:06,730023
0,-2,-2,-2,-2,-3,-1,-3,2021-08-06 13:46:06,730023
-4,-2,-2,-3,-5,-2,-2,-3,2021-08-06 13:46:06,730023
1,3,3,3,2,1,3,2,2021-08-06 13:46:06,778021
2,1,0,0,-1,-1,1,-2,2021-08-06 13:46:06,778021
-2,-1,-3,-3,-4,-3,-1,0,2021-08-06 13:46:06,778299
3,1,2,3,10,6,4,1,2021-08-06 13:46:06,778299
-3,-4,-4,-1,2,1,-2,-2,2021-08-06 13:46:06,778299
-2,0,0,-3,-1,-2,-2,0,2021-08-06 13:46:06,778299
-1,-1,-3,-1,-1,1,-2,0,2021-08-06 13:46:06,778299
-2,-2,-2,0,0,-2,-1,-2,2021-08-06 13:46:06,778299
-1,0,1,4,4,1,1,-1,2021-08-06 13:46:06,793538
0,0,0,1,2,1,0,-1,2021-08-06 13:46:06,793538
2,2,0,1,0,1,2,0,2021-08-06 13:46:06,793538
-1,1,-3,-4,-8,-4,-3,-1,2021-08-06 13:46:06,793538
-1,-2,-3,-3,-3,-3,-1,-3,2021-08-06 13:46:06,825536
-1,-1,-1,0,0,-1,-2,-1,2021-08-06 13:46:06,830536
-1,-1,-2,0,0,-2,-3,0,2021-08-06 13:46:06,830536
3,2,2,2,1,0,-1,1,2021-08-06 13:46:06,830536
0,-2,-2,-3,-5,-2,-2,0,2021-08-06 13:46:06,830536
-3,-2,-1,-3,-3,-2,-1,-2,2021-08-06 13:46:06,830536
0,-2,-1,0,3,1,-1,0,2021-08-06 13:46:06,841535
-2,1,-1,0,1,2,0,0,2021-08-06 13:46:06,857535
-1,0,0,-1,-2,-3,0,0,2021-08-06 13:46:06,857535
1,0,-1,1,1,-2,-1,1,2021-08-06 13:46:06,857535
-1,0,-2,-1,-1,1,0,-4,2021-08-06 13:46:06,857535
-3,-4,-5,-5,-11,-7,-3,-4,2021-08-06 13:46:06,857535
-4,-4,-2,3,3,2,0,-2,2021-08-06 13:46:06,888536
4,5,5,3,2,2,2,2,2021-08-06 13:46:06,904535
0,-1,-2,-3,-7,-4,1,-2,2021-08-06 13:46:06,920535
2,2,3,0,6,5,1,0,2021-08-06 13:46:06,936535
-3,0,-2,-2,-3,-3,-3,1,2021-08-06 13:46:06,951535
-5,-4,-3,-2,-5,-3,-4,-3,2021-08-06 13:46:06,951535
-3,-1,2,2,1,-1,-3,0,2021-08-06 13:46:06,951535
0,-3,-2,-5,-6,-6,-2,-2,2021-08-06 13:46:06,951535
1,-2,-2,-2,-1,0,1,-1,2021-08-06 13:46:06,951535
0,-2,-2,-4,-1,0,-1,-1,2021-08-06 13:46:06,951535
-1,0,1,0,0,-1,0,0,2021-08-06 13:46:06,951535
-1,-1,-2,-1,-1,-1,0,-1,2021-08-06 13:46:06,951535
0,0,-2,-2,-3,-1,0,-1,2021-08-06 13:46:06,952537
-1,-2,0,1,1,-1,-3,1,2021-08-06 13:46:06,952537
1,0,0,1,4,2,1,0,2021-08-06 13:46:06,952537
0,-1,-2,2,1,0,-1,0,2021-08-06 13:46:06,952537
-2,-1,0,-1,-1,-4,-2,0,2021-08-06 13:46:06,952537
-1,0,-1,-3,-2,0,1,-1,2021-08-06 13:46:06,952537
-3,-1,-2,0,3,-1,1,-1,2021-08-06 13:46:06,952537
-3,-4,-3,-5,-6,-5,-3,-1,2021-08-06 13:46:06,952537
0,-1,-1,-1,-3,1,1,-2,2021-08-06 13:46:06,983536
0,-1,-1,2,2,-1,-1,-1,2021-08-06 13:46:06,983536
-2,-2,-2,-2,-1,-1,-2,0,2021-08-06 13:46:06,983536
0,0,2,3,0,1,-1,-1,2021-08-06 13:46:06,983536
-1,-2,-2,-5,-6,-5,-3,-1,2021-08-06 13:46:06,999535
2,2,0,1,7,4,3,1,2021-08-06 13:46:07,015536
1,1,-1,0,-2,-2,-1,-2,2021-08-06 13:46:07,031536
-2,0,-1,-2,-3,-1,-1,0,2021-08-06 13:46:07,047535
0,0,1,0,1,-1,-1,0,2021-08-06 13:46:07,047535
-2,-2,-4,-4,-5,-5,-1,-2,2021-08-06 13:46:07,047535
-2,-2,-1,-1,-3,-1,-2,-2,2021-08-06 13:46:07,047535
1,0,-1,2,4,2,-1,1,2021-08-06 13:46:07,047535
1,0,0,3,2,2,0,2,2021-08-06 13:46:07,047535
0,-1,0,-1,-1,0,-1,0,2021-08-06 13:46:07,047535
-1,-1,-1,-1,1,-3,0,0,2021-08-06 13:46:07,047535
-1,-1,-2,-3,-3,-2,-2,-3,2021-08-06 13:46:07,047535
-2,-1,-1,-1,-2,-1,-1,-1,2021-08-06 13:46:07,062535
-1,-2,-1,0,2,0,0,-1,2021-08-06 13:46:07,077536
-1,-2,-3,-2,-1,-1,-1,-1,2021-08-06 13:46:07,093535
0,-1,1,-1,0,0,1,1,2021-08-06 13:46:07,109535
0,-2,-2,-2,-1,-1,-2,-1,2021-08-06 13:46:07,109535
-2,-2,-3,1,0,-1,-2,-3,2021-08-06 13:46:07,109535
-1,-1,-2,-2,-4,-1,-1,-3,2021-08-06 13:46:07,109535
0,-2,-2,-3,-2,-2,-1,-1,2021-08-06 13:46:07,109535
0,-1,-1,1,2,1,0,0,2021-08-06 13:46:07,109535
-2,-2,0,-3,-3,-2,-1,0,2021-08-06 13:46:07,109535
-2,-4,-2,-4,-7,-2,-3,-1,2021-08-06 13:46:07,110536
-1,1,1,1,2,2,2,0,2021-08-06 13:46:07,110536
0,3,3,1,-1,0,-1,0,2021-08-06 13:46:07,110536
-1,-1,-2,-1,0,0,2,-1,2021-08-06 13:46:07,110536
-1,0,0,-1,-2,-1,-1,-1,2021-08-06 13:46:07,110536
-1,-3,-3,-4,-3,-3,0,-1,2021-08-06 13:46:07,110536
1,0,-1,2,4,3,1,0,2021-08-06 13:46:07,141558
-1,-2,-3,1,-3,-2,-2,-2,2021-08-06 13:46:07,141558
0,0,-1,-1,0,0,-1,-2,2021-08-06 13:46:07,141558
0,-1,1,1,1,0,-1,0,2021-08-06 13:46:07,141558
-2,-3,-2,-4,-4,-4,-2,-2,2021-08-06 13:46:07,157558
1,1,1,-1,-2,0,0,1,2021-08-06 13:46:07,157558
0,0,-1,1,2,-1,-1,0,2021-08-06 13:46:07,157558
-2,-2,-3,0,-1,-1,-2,-1,2021-08-06 13:46:07,157558
-4,-5,-3,-2,-2,-1,1,-1,2021-08-06 13:46:07,173559
0,-2,0,-3,-3,-4,-3,-1,2021-08-06 13:46:07,173559
-1,1,0,1,3,1,1,0,2021-08-06 13:46:07,173559
-1,-1,0,1,-1,0,0,-2,2021-08-06 13:46:07,173559
2,1,-1,0,1,-1,1,1,2021-08-06 13:46:07,203558
-3,0,-2,-1,-1,0,-2,-4,2021-08-06 13:46:07,218558
-1,-1,2,0,1,0,-1,-1,2021-08-06 13:46:07,234558
0,0,-2,-2,-5,-4,-2,-2,2021-08-06 13:46:07,234558
-3,-4,-4,-7,-6,-4,-3,-4,2021-08-06 13:46:07,234558
2,1,2,4,4,2,1,1,2021-08-06 13:46:07,234558
0,0,-2,-2,2,3,0,0,2021-08-06 13:46:07,234558
1,3,2,3,0,-1,0,0,2021-08-06 13:46:07,234558
1,-1,-2,-2,-4,-5,-3,0,2021-08-06 13:46:07,234558
-2,-3,-3,-2,-4,-4,-3,-4,2021-08-06 13:46:07,234558
0,-1,1,-1,1,2,0,-2,2021-08-06 13:46:07,234558
-2,-5,-3,-3,-4,-3,-2,0,2021-08-06 13:46:07,234558
0,1,1,1,2,1,1,1,2021-08-06 13:46:07,266560
-1,1,-1,0,-1,1,-1,0,2021-08-06 13:46:07,266560
0,-1,-1,1,-2,-1,0,-1,2021-08-06 13:46:07,266560
-2,0,-1,-1,-1,1,-1,-1,2021-08-06 13:46:07,282560
-1,0,0,-1,-4,-2,-3,-2,2021-08-06 13:46:07,282560
-1,-2,-1,-2,0,1,1,0,2021-08-06 13:46:07,282560
0,-1,0,1,0,-2,-1,-1,2021-08-06 13:46:07,282560
0,-2,-1,-1,2,-1,1,-1,2021-08-06 13:46:07,282560
1,0,-1,1,0,0,-1,-1,2021-08-06 13:46:07,298560
-3,-3,-4,-5,-5,-2,-1,-2,2021-08-06 13:46:07,298560
0,0,0,1,1,0,-1,3,2021-08-06 13:46:07,298560
-1,0,-1,-2,-2,-1,-2,0,2021-08-06 13:46:07,298560
0,0,1,0,1,0,0,-2,2021-08-06 13:46:07,330559
0,-1,0,0,-1,0,-2,-1,2021-08-06 13:46:07,330559
-2,-2,-2,0,-1,-4,1,-2,2021-08-06 13:46:07,330559
-1,-2,-1,-2,-1,0,-1,0,2021-08-06 13:46:07,330559
0,-3,1,0,-1,0,-1,1,2021-08-06 13:46:07,330559
-1,0,0,-2,2,1,1,2,2021-08-06 13:46:07,330559
-2,-1,-2,0,1,0,2,0,2021-08-06 13:46:07,331561
-1,0,-2,0,-1,0,-3,-2,2021-08-06 13:46:07,331561
-3,0,-2,2,4,2,0,-4,2021-08-06 13:46:07,362560
-2,0,0,-1,-2,-4,-3,-3,2021-08-06 13:46:07,378558
-1,0,-3,-1,-4,-3,-2,-1,2021-08-06 13:46:07,394559
0,2,3,1,1,-1,1,1,2021-08-06 13:46:07,410560
2,0,1,-1,-1,0,0,0,2021-08-06 13:46:07,410560
0,-1,-1,-2,-1,-2,0,-1,2021-08-06 13:46:07,410560
-3,-4,-4,-3,-1,-1,-3,-2,2021-08-06 13:46:07,410560
2,2,2,1,0,0,3,3,2021-08-06 13:46:07,410560
-3,0,-1,-3,-4,-2,0,1,2021-08-06 13:46:07,410560
1,0,0,0,0,1,0,-1,2021-08-06 13:46:07,410560
1,0,-2,0,0,1,-2,-2,2021-08-06 13:46:07,410560
-2,-3,-2,-1,-1,-2,-1,-1,2021-08-06 13:46:07,411559
2,-1,0,0,1,1,0,1,2021-08-06 13:46:07,411559
-1,1,0,0,1,0,0,2,2021-08-06 13:46:07,411559
-3,-1,-2,-1,-1,-1,1,1,2021-08-06 13:46:07,411559
1,-1,-1,0,2,-1,-1,-1,2021-08-06 13:46:07,411559
-1,-1,0,-3,-4,-2,-2,-1,2021-08-06 13:46:07,441073
-1,-3,-5,-3,0,-1,-3,-2,2021-08-06 13:46:07,457072
1,1,3,0,1,0,2,2,2021-08-06 13:46:07,457072
0,1,0,1,1,0,-1,0,2021-08-06 13:46:07,457072
-1,0,-3,-4,-4,-2,-1,-1,2021-08-06 13:46:07,457072
1,0,0,5,9,3,1,-1,2021-08-06 13:46:07,457072
-1,0,-1,-1,-3,-2,-1,-3,2021-08-06 13:46:07,457072
2,-1,2,-1,-2,-1,-2,-1,2021-08-06 13:46:07,457072
-2,-1,-2,-2,-5,-3,-2,0,2021-08-06 13:46:07,489074
-3,-1,0,-1,-3,-1,-3,-1,2021-08-06 13:46:07,504074
0,-1,0,1,1,-2,1,-2,2021-08-06 13:46:07,504074
-3,-2,-3,-2,-2,-1,-1,-2,2021-08-06 13:46:07,504074
-1,0,0,2,2,0,0,-2,2021-08-06 13:46:07,504074
0,-1,0,-2,-2,0,1,-1,2021-08-06 13:46:07,504074
-1,0,-1,-1,-3,0,-1,-2,2021-08-06 13:46:07,504074
-2,-3,-4,-4,-5,-2,-2,-2,2021-08-06 13:46:07,504074
-2,0,-1,0,2,0,1,-1,2021-08-06 13:46:07,520072
2,4,4,2,0,-2,0,1,2021-08-06 13:46:07,536073
1,1,1,-2,0,-1,-1,-1,2021-08-06 13:46:07,550073
-1,-1,-1,0,-2,-2,-1,-1,2021-08-06 13:46:07,550073
-4,-4,-5,-1,3,0,-2,-1,2021-08-06 13:46:07,550073
1,-2,-2,-1,-1,0,1,0,2021-08-06 13:46:07,550073
-2,-2,-3,-2,-3,-2,-2,-2,2021-08-06 13:46:07,551074
0,1,2,0,0,0,-1,-1,2021-08-06 13:46:07,551074
0,-2,0,1,-2,-1,0,0,2021-08-06 13:46:07,567074
-3,-3,-2,-4,-6,-4,-3,-2,2021-08-06 13:46:07,567074
1,2,-1,1,0,-1,-2,0,2021-08-06 13:46:07,567074
-1,-2,-4,-2,-2,0,-1,-3,2021-08-06 13:46:07,567074
-2,1,0,2,1,-1,-2,-2,2021-08-06 13:46:07,567074
-1,0,-1,-1,-5,-2,-1,1,2021-08-06 13:46:07,567074
-1,-3,0,0,5,0,0,-1,2021-08-06 13:46:07,582074
-1,-2,-1,0,-1,0,-2,0,2021-08-06 13:46:07,597074
2,1,1,0,1,0,0,1,2021-08-06 13:46:07,613074
-2,-2,-2,-2,-2,-1,-1,-2,2021-08-06 13:46:07,613074
-1,-1,-2,-4,-3,-2,-1,-1,2021-08-06 13:46:07,613074
2,1,3,4,5,2,0,1,2021-08-06 13:46:07,613074
1,0,1,2,-1,1,0,1,2021-08-06 13:46:07,613074
-2,-2,-3,-1,-2,0,-1,-1,2021-08-06 13:46:07,613074
-1,-1,-2,-1,-3,-1,-1,-2,2021-08-06 13:46:07,613074
-3,-2,-2,-4,-1,-2,-1,-2,2021-08-06 13:46:07,614074
0,-1,-2,1,-1,-2,0,0,2021-08-06 13:46:07,645073
-1,0,0,-2,0,-2,-2,-1,2021-08-06 13:46:07,661074
-1,-1,0,0,-2,-1,-2,0,2021-08-06 13:46:07,677073
-3,-2,-1,-1,0,-3,0,-1,2021-08-06 13:46:07,677073
-1,-2,-1,-3,0,-1,0,-1,2021-08-06 13:46:07,677073
-1,-1,-3,-2,-5,-2,-1,-2,2021-08-06 13:46:07,677073
-1,0,0,-1,0,1,-1,1,2021-08-06 13:46:07,677073
0,-2,-1,-2,-1,0,0,-1,2021-08-06 13:46:07,677073
-2,0,-2,-1,-1,-1,-1,0,2021-08-06 13:46:07,677073
0,-2,0,-1,-1,-1,0,-1,2021-08-06 13:46:07,678074
-2,-2,-1,-3,-3,-2,-2,-1,2021-08-06 13:46:07,678074
-1,0,-2,-1,-1,0,-1,-1,2021-08-06 13:46:07,678074
0,-3,-3,-3,-2,-2,-1,-2,2021-08-06 13:46:07,693072
-1,-3,-2,-2,-1,-2,-1,-2,2021-08-06 13:46:07,693072
-2,-2,1,1,1,0,-1,-1,2021-08-06 13:46:07,709074
0,0,-1,0,-1,-1,-2,-1,2021-08-06 13:46:07,709074
0,-3,0,-3,-2,0,0,-2,2021-08-06 13:46:07,709074
0,-1,-3,-2,-2,-1,-2,-1,2021-08-06 13:46:07,709074
-1,-2,-1,-2,-4,-2,-2,-1,2021-08-06 13:46:07,725073
-1,0,-2,-2,0,0,0,-1,2021-08-06 13:46:07,741073
-1,0,-2,0,0,0,-1,-1,2021-08-06 13:46:07,757073
-1,-1,0,0,1,0,0,0,2021-08-06 13:46:07,757073
-2,-2,-3,-3,-3,-3,-2,-2,2021-08-06 13:46:07,757073
1,1,1,1,4,1,-1,0,2021-08-06 13:46:07,757073
1,2,1,2,2,-1,0,-1,2021-08-06 13:46:07,757073
0,-3,-1,-3,0,-1,-1,-2,2021-08-06 13:46:07,757073
-1,-2,-1,-1,-3,-3,-1,-3,2021-08-06 13:46:07,757073
0,-2,-3,-2,-2,1,-1,0,2021-08-06 13:46:07,758074
0,2,1,1,4,4,1,0,2021-08-06 13:46:07,787074
-1,-1,-1,0,0,0,0,-2,2021-08-06 13:46:07,787074
0,0,-1,1,0,0,1,-1,2021-08-06 13:46:07,787074
-2,-1,-1,-2,-6,-4,-2,-2,2021-08-06 13:46:07,787074
-1,-2,0,-3,-1,-2,-3,-1,2021-08-06 13:46:07,803074
0,0,0,-1,-1,-1,-2,0,2021-08-06 13:46:07,803074
-1,-2,0,-1,0,0,0,0,2021-08-06 13:46:07,803074
0,2,1,1,-1,2,2,0,2021-08-06 13:46:07,803074
0,0,-1,-1,-2,-1,-1,0,2021-08-06 13:46:07,818072
-3,-1,1,-2,-3,-1,-2,-1,2021-08-06 13:46:07,833073
-1,1,0,-1,1,-1,0,0,2021-08-06 13:46:07,833073
-1,-2,-2,0,-1,0,-1,-2,2021-08-06 13:46:07,833073
-2,-3,-4,-6,-8,-7,-3,-3,2021-08-06 13:46:07,833073
0,0,-2,-1,3,4,2,1,2021-08-06 13:46:07,833073
5,5,5,4,2,3,1,2,2021-08-06 13:46:07,833073
-1,-1,-1,-2,-3,-2,0,-3,2021-08-06 13:46:07,833073
-2,-2,-1,0,-1,-2,0,0,2021-08-06 13:46:07,865074
-2,-2,-3,-4,-5,-4,-1,-3,2021-08-06 13:46:07,881073
0,-2,-2,-1,0,0,-1,0,2021-08-06 13:46:07,897073
0,-1,0,-3,-2,-3,-2,-2,2021-08-06 13:46:07,897073
0,-1,-1,0,-1,-1,0,-1,2021-08-06 13:46:07,897073
-1,-1,0,0,-1,0,-2,0,2021-08-06 13:46:07,897073
-1,0,-2,-2,-3,-2,-2,0,2021-08-06 13:46:07,897073
0,-2,0,-1,1,-2,-1,0,2021-08-06 13:46:07,897073
-3,-2,-1,1,0,0,1,-1,2021-08-06 13:46:07,897073
2,0,1,-1,-1,-2,0,0,2021-08-06 13:46:07,897073
-2,-2,-3,-2,-4,-2,-3,-1,2021-08-06 13:46:07,910075
1,1,0,2,6,3,0,1,2021-08-06 13:46:07,911074
-1,-2,-1,0,0,-1,0,-2,2021-08-06 13:46:07,929074
-1,0,-3,-2,0,0,-1,-2,2021-08-06 13:46:07,929074
-3,-2,-3,-2,-3,0,-1,-3,2021-08-06 13:46:07,929074
-1,1,1,-1,-1,-2,-1,-1,2021-08-06 13:46:07,929074
-1,0,-1,0,1,0,-1,1,2021-08-06 13:46:07,945074
0,-1,1,2,-1,-2,-1,-1,2021-08-06 13:46:07,961073
-1,-2,-3,-2,-2,-3,1,-2,2021-08-06 13:46:07,977079
-2,-1,-1,0,-3,-1,0,0,2021-08-06 13:46:07,977079
1,2,1,1,-1,3,2,1,2021-08-06 13:46:07,977079
-1,-1,-2,0,-2,-2,-3,-2,2021-08-06 13:46:07,977079
0,0,-3,-3,-1,-2,-2,-1,2021-08-06 13:46:07,977079
-1,-2,1,2,1,-1,1,0,2021-08-06 13:46:07,977079
1,-1,0,-2,1,1,0,0,2021-08-06 13:46:07,977079
-2,-2,-2,0,-1,0,-1,-1,2021-08-06 13:46:07,978073
1,1,2,2,2,1,0,-1,2021-08-06 13:46:07,978073
-3,-2,-2,-3,-5,-4,-3,-3,2021-08-06 13:46:07,978073
-2,-2,-3,-3,-5,-3,-1,-1,2021-08-06 13:46:08,009074
-1,0,1,1,2,1,-1,2,2021-08-06 13:46:08,025073
-2,-2,-2,0,-1,0,-2,0,2021-08-06 13:46:08,025073
-2,-1,-3,0,-1,0,-2,0,2021-08-06 13:46:08,025073
0,-1,1,-1,0,0,-2,-3,2021-08-06 13:46:08,025073
0,0,-1,-1,-3,-3,-3,-1,2021-08-06 13:46:08,025073
-1,0,-2,-2,-4,-3,0,-3,2021-08-06 13:46:08,025073
0,-2,0,0,2,1,-2,0,2021-08-06 13:46:08,025073
0,1,-1,-4,-1,0,-2,-1,2021-08-06 13:46:08,041072
1,0,1,2,0,-1,0,0,2021-08-06 13:46:08,041072
0,-1,0,-1,-1,0,-1,0,2021-08-06 13:46:08,041072
-1,-1,-1,-1,-3,-1,0,-1,2021-08-06 13:46:08,041072
-3,-1,-1,0,1,0,-1,0,2021-08-06 13:46:08,072074
0,1,0,0,1,1,-1,0,2021-08-06 13:46:08,072074
1,-1,-1,-1,0,-1,-1,0,2021-08-06 13:46:08,072074
-2,-2,-3,-5,-4,-2,-2,0,2021-08-06 13:46:08,072074
-2,0,1,3,1,-1,-2,-2,2021-08-06 13:46:08,072074
-1,0,-3,0,0,0,2,-1,2021-08-06 13:46:08,072074
0,-2,0,2,3,1,0,-1,2021-08-06 13:46:08,088073
-2,-3,-4,-4,-4,-3,-4,0,2021-08-06 13:46:08,104073
0,1,2,-2,-4,-2,0,1,2021-08-06 13:46:08,120072
-2,0,0,-3,-3,-2,1,-1,2021-08-06 13:46:08,136073
0,1,0,4,8,4,0,2,2021-08-06 13:46:08,151073
-1,-2,-2,-1,-4,0,0,-1,2021-08-06 13:46:08,151073
1,-2,-2,-1,2,1,0,0,2021-08-06 13:46:08,151073
-2,-1,-2,0,-3,-1,0,0,2021-08-06 13:46:08,151073
-2,-2,1,-2,4,1,0,-1,2021-08-06 13:46:08,151073
-1,-2,-3,-2,-2,1,0,-2,2021-08-06 13:46:08,151073
-2,-2,-1,-2,-4,-6,-7,-2,2021-08-06 13:46:08,151073
0,-2,0,-2,-2,-2,-1,-1,2021-08-06 13:46:08,152074
-1,-1,1,-2,-3,-3,-1,-1,2021-08-06 13:46:08,152074
2,2,3,1,2,1,1,2,2021-08-06 13:46:08,152074
-2,-2,-2,0,-3,0,1,-1,2021-08-06 13:46:08,152074
1,0,0,-2,0,0,1,1,2021-08-06 13:46:08,152074
-1,1,-3,-1,-3,-3,-1,0,2021-08-06 13:46:08,167074
0,-1,-1,1,3,1,-1,-1,2021-08-06 13:46:08,167074
0,-1,1,1,1,0,2,0,2021-08-06 13:46:08,183073
-1,-1,0,3,0,-2,-2,-1,2021-08-06 13:46:08,183073
0,-1,-1,-3,-2,0,-1,0,2021-08-06 13:46:08,183073
0,0,0,-1,-2,-4,-1,-1,2021-08-06 13:46:08,183073
-2,-1,-3,0,1,-2,0,-2,2021-08-06 13:46:08,199073
-1,1,-1,-1,0,-1,-1,-2,2021-08-06 13:46:08,199073
-1,-1,1,-1,-3,-3,-1,-2,2021-08-06 13:46:08,199073
-2,-1,-1,-3,-3,-1,-2,0,2021-08-06 13:46:08,199073
0,-2,-1,-4,-4,-2,-1,0,2021-08-06 13:46:08,231075
0,-1,-1,3,4,2,2,-1,2021-08-06 13:46:08,247073
-1,-3,-4,-2,-2,-1,-2,-1,2021-08-06 13:46:08,263073
0,-2,-2,-2,0,1,1,0,2021-08-06 13:46:08,269075
-3,-3,-2,0,0,-1,-2,-1,2021-08-06 13:46:08,269075
0,-2,-2,-1,-2,-1,-3,-1,2021-08-06 13:46:08,270074
-3,-1,-1,1,-2,-1,-2,-2,2021-08-06 13:46:08,270074
0,0,1,2,1,-3,-1,-1,2021-08-06 13:46:08,270074
-1,-1,-2,0,-2,-1,-1,-2,2021-08-06 13:46:08,270074
0,-1,-1,-4,-3,-2,-1,0,2021-08-06 13:46:08,270074
1,1,1,1,6,2,2,1,2021-08-06 13:46:08,270074
0,1,-1,-3,-3,-1,1,0,2021-08-06 13:46:08,270074
0,0,1,0,-1,0,0,1,2021-08-06 13:46:08,279074
-2,-2,0,-1,-1,-2,-2,-1,2021-08-06 13:46:08,295073
-3,-2,-1,-2,-3,-1,-2,-1,2021-08-06 13:46:08,310074
2,3,3,1,2,1,2,1,2021-08-06 13:46:08,310074
-1,-1,-2,-2,0,0,0,-1,2021-08-06 13:46:08,310074
-1,-2,0,-2,-1,-1,-2,-1,2021-08-06 13:46:08,326073
-2,-2,-3,-1,-3,-3,-1,-2,2021-08-06 13:46:08,326073
-1,-2,-2,0,-2,-4,-2,-2,2021-08-06 13:46:08,326073
1,0,-1,2,2,1,-1,0,2021-08-06 13:46:08,326073
-1,-2,-2,-2,-3,-2,-2,-2,2021-08-06 13:46:08,326073
1,0,-2,-2,-2,0,-1,-1,2021-08-06 13:46:08,326073
-2,-3,-3,-1,-3,-1,-1,-3,2021-08-06 13:46:08,326073
-2,-2,-2,-1,-3,-1,-1,0,2021-08-06 13:46:08,342073
-1,1,0,2,2,1,1,2,2021-08-06 13:46:08,358072
-1,-1,-2,0,-1,-2,-3,-1,2021-08-06 13:46:08,358072
-2,0,1,-1,0,0,-1,0,2021-08-06 13:46:08,358072
0,1,0,-4,-2,0,0,-2,2021-08-06 13:46:08,358072
-1,-1,-2,0,-3,0,0,-1,2021-08-06 13:46:08,358072
-1,-1,0,0,-1,-2,-1,-1,2021-08-06 13:46:08,358072
-3,-4,-5,-2,-2,-4,-3,-1,2021-08-06 13:46:08,358072
0,1,-1,-1,0,-2,-1,-1,2021-08-06 13:46:08,374073
0,2,2,1,1,2,0,0,2021-08-06 13:46:08,374073
-1,-1,0,-2,-2,-1,-2,-1,2021-08-06 13:46:08,390073
0,-2,-1,-2,-1,0,-1,-2,2021-08-06 13:46:08,406072
-1,-3,-5,-2,0,0,0,-1,2021-08-06 13:46:08,422073
-2,-3,-4,-3,-3,-4,-3,-1,2021-08-06 13:46:08,438073
2,0,1,1,0,1,1,-1,2021-08-06 13:46:08,454073
-1,-1,0,-1,0,1,-2,0,2021-08-06 13:46:08,454073
-1,1,1,0,1,-2,0,-1,2021-08-06 13:46:08,454073
-2,-3,-2,-3,-2,0,0,-1,2021-08-06 13:46:08,454073
-1,-1,-2,-1,0,0,1,1,2021-08-06 13:46:08,454073
-1,0,-1,0,-1,-1,0,-1,2021-08-06 13:46:08,454073
-2,-2,-1,-1,-4,-3,-3,-1,2021-08-06 13:46:08,454073
1,1,2,1,2,-1,1,-1,2021-08-06 13:46:08,455074
-2,-1,-3,-1,-1,0,-1,-2,2021-08-06 13:46:08,455074
0,0,-2,0,0,-1,0,1,2021-08-06 13:46:08,455074
-1,-3,-2,-3,-3,-2,-1,-1,2021-08-06 13:46:08,455074
-1,-1,-3,0,-2,-1,0,-1,2021-08-06 13:46:08,455074
-1,-2,0,-2,-1,0,-2,-1,2021-08-06 13:46:08,455074
-2,0,-3,-1,-3,-2,0,-1,2021-08-06 13:46:08,455074
2,2,1,3,1,3,2,2,2021-08-06 13:46:08,484073
-1,-2,-1,-2,0,-1,-2,-2,2021-08-06 13:46:08,499073
-1,1,-1,-1,0,-2,0,-1,2021-08-06 13:46:08,499073
-2,-3,-4,-3,-3,-1,-1,-1,2021-08-06 13:46:08,499073
1,0,1,0,0,-1,1,2,2021-08-06 13:46:08,499073
0,2,0,2,3,1,1,1,2021-08-06 13:46:08,499073
-1,-2,-1,-1,0,0,-3,-1,2021-08-06 13:46:08,499073
-1,-1,0,2,2,0,-1,-1,2021-08-06 13:46:08,499073
-2,-1,-2,-2,-1,-1,-1,-3,2021-08-06 13:46:08,531074
0,-2,0,-1,-3,-1,-1,-2,2021-08-06 13:46:08,547074
-2,-2,-1,-2,-2,-2,0,-2,2021-08-06 13:46:08,563073
-1,-1,0,-1,-1,-2,-2,-1,2021-08-06 13:46:08,563073
0,-2,-3,-2,0,-2,-1,-2,2021-08-06 13:46:08,563073
-1,-2,-2,-2,-2,-2,-2,-2,2021-08-06 13:46:08,563073
-1,-2,-3,-1,0,0,-2,-1,2021-08-06 13:46:08,563073
1,1,2,2,1,1,-1,0,2021-08-06 13:46:08,563073
-1,-2,-1,-1,-1,-2,-2,-1,2021-08-06 13:46:08,563073
-2,-1,-1,-2,-2,-3,0,0,2021-08-06 13:46:08,563073
0,2,0,0,1,-1,3,1,2021-08-06 13:46:08,563073
-2,-1,-1,-1,0,-2,-1,0,2021-08-06 13:46:08,563073
-1,0,0,-3,-1,-1,-1,-1,2021-08-06 13:46:08,579074
-2,-2,-1,-1,-2,1,-2,-1,2021-08-06 13:46:08,579074
-3,-3,-2,-2,-2,-3,-2,0,2021-08-06 13:46:08,579074
1,0,1,-1,-2,-2,-1,0,2021-08-06 13:46:08,579074
1,0,-1,0,1,1,1,-2,2021-08-06 13:46:08,611074
-1,-2,0,1,-1,0,-1,0,2021-08-06 13:46:08,611074
0,0,0,1,0,1,0,0,2021-08-06 13:46:08,611074
0,-2,-1,-1,-2,-2,-2,-3,2021-08-06 13:46:08,611074
0,-2,-2,0,-1,1,-1,2,2021-08-06 13:46:08,611074
2,1,2,0,0,1,1,1,2021-08-06 13:46:08,611074
0,-1,-1,-2,-3,-1,1,0,2021-08-06 13:46:08,630077
-2,0,0,1,3,1,-1,-1,2021-08-06 13:46:08,630077
0,2,1,1,-1,-1,-1,-1,2021-08-06 13:46:08,643076
-2,-1,-3,-1,0,-2,-2,-2,2021-08-06 13:46:08,643076
0,0,0,-2,-1,-2,-2,0,2021-08-06 13:46:08,643076
-3,-4,-3,-2,-3,-2,-2,-1,2021-08-06 13:46:08,643076
-2,-1,-2,-1,-2,-1,-1,-1,2021-08-06 13:46:08,659074
1,0,2,1,0,0,-1,-2,2021-08-06 13:46:08,659074
-1,0,-1,-3,-1,-3,-2,-2,2021-08-06 13:46:08,659074
1,0,1,-1,-2,1,1,-1,2021-08-06 13:46:08,659074
-3,-2,-2,-2,-3,-2,-2,0,2021-08-06 13:46:08,675073
-1,-1,-2,-1,-3,-1,-1,0,2021-08-06 13:46:08,675073
-2,-1,0,0,-4,-2,-1,0,2021-08-06 13:46:08,691072
0,-1,-1,2,5,2,1,0,2021-08-06 13:46:08,691072
-2,-1,-1,0,-2,-1,-2,0,2021-08-06 13:46:08,691072
0,-1,-1,0,0,-2,-3,-2,2021-08-06 13:46:08,691072
-2,0,-2,-3,-1,0,0,0,2021-08-06 13:46:08,723074
0,-1,-3,-2,-2,-1,-2,-1,2021-08-06 13:46:08,739073
1,0,-1,1,1,1,1,-2,2021-08-06 13:46:08,755072
-1,-1,-4,-7,-4,-3,-1,0,2021-08-06 13:46:08,771072
1,1,2,3,2,1,-1,0,2021-08-06 13:46:08,787073
-1,0,-2,-3,-4,-2,-2,-1,2021-08-06 13:46:08,787073
0,-2,1,1,4,2,1,0,2021-08-06 13:46:08,803074
-2,0,-2,-2,-5,-4,-2,-3,2021-08-06 13:46:08,803074
-2,-3,-1,-1,-2,-2,-2,-4,2021-08-06 13:46:08,803074
-1,-1,-3,-3,-1,-1,0,-2,2021-08-06 13:46:08,803074
-2,-2,-1,-1,-4,-2,-1,-2,2021-08-06 13:46:08,803074
0,-2,-1,0,2,2,2,1,2021-08-06 13:46:08,803074
-1,0,-3,0,0,-1,-2,-2,2021-08-06 13:46:08,803074
-1,0,-2,-1,-3,-3,-1,-2,2021-08-06 13:46:08,803074
-2,-3,-1,-2,-1,-2,-2,-1,2021-08-06 13:46:08,804074
1,-1,-1,-2,-2,0,0,-1,2021-08-06 13:46:08,804074
-2,1,1,2,1,-1,-3,-1,2021-08-06 13:46:08,804074
0,-2,1,-1,-1,-1,-2,-1,2021-08-06 13:46:08,804074
-1,-1,-2,-2,0,-1,0,-2,2021-08-06 13:46:08,804074
-1,-4,-1,-3,-1,-1,-1,1,2021-08-06 13:46:08,804074
1,0,0,-2,4,2,2,0,2021-08-06 13:46:08,804074
0,2,0,1,0,-1,1,1,2021-08-06 13:46:08,804074
-1,-1,-1,-1,-1,-1,-2,0,2021-08-06 13:46:08,818073
-2,-2,-3,-1,-3,-2,-1,-2,2021-08-06 13:46:08,833072
0,-1,0,-4,-4,-1,0,0,2021-08-06 13:46:08,833072
3,0,3,6,5,1,0,-1,2021-08-06 13:46:08,833072
0,0,0,-1,-3,-2,-2,-1,2021-08-06 13:46:08,849074
-2,-2,-2,-2,0,0,-2,-1,2021-08-06 13:46:08,849074
-2,-4,-2,-4,-6,-7,-4,-2,2021-08-06 13:46:08,849074
0,0,-3,2,0,3,6,2,2021-08-06 13:46:08,849074
1,2,1,0,1,2,2,3,2021-08-06 13:46:08,864075
-2,0,0,1,1,-2,-5,-2,2021-08-06 13:46:08,864075
0,0,-1,-2,-3,-3,-2,-1,2021-08-06 13:46:08,864075
-3,-3,-1,-4,-3,-1,-5,-2,2021-08-06 13:46:08,864075
-1,-3,-1,-2,-4,-3,-1,-3,2021-08-06 13:46:08,880074
1,2,1,3,0,3,3,3,2021-08-06 13:46:08,880074
0,1,0,0,2,2,0,1,2021-08-06 13:46:08,880074
-4,-4,-3,-2,-5,-4,-5,-5,2021-08-06 13:46:08,880074
1,2,2,-1,0,1,1,1,2021-08-06 13:46:08,911074
1,1,0,1,3,1,0,-1,2021-08-06 13:46:08,926073
0,-1,1,3,1,1,0,0,2021-08-06 13:46:08,958074
0,-1,-1,-1,-2,-2,-1,-1,2021-08-06 13:46:08,958074
-4,-4,-3,-4,-4,-3,-4,-3,2021-08-06 13:46:08,958074
-1,-2,1,0,0,0,0,-1,2021-08-06 13:46:08,958074
1,2,1,4,4,1,3,0,2021-08-06 13:46:08,958074
0,-2,-1,-1,-3,-4,-6,-3,2021-08-06 13:46:08,958074
-1,-2,-3,-1,-3,-7,-6,-4,2021-08-06 13:46:08,958074
-1,-2,-3,0,3,-1,-1,-1,2021-08-06 13:46:08,959074
-1,0,-3,-3,-1,1,1,1,2021-08-06 13:46:08,959074
-1,0,-1,-1,-4,-2,-3,0,2021-08-06 13:46:08,959074
0,-2,-2,-2,-3,-2,-2,-2,2021-08-06 13:46:08,959074
-2,-2,-1,1,0,0,-2,-1,2021-08-06 13:46:08,959074
0,-1,-1,1,4,4,3,0,2021-08-06 13:46:08,959074
3,2,2,2,3,1,4,2,2021-08-06 13:46:08,959074
-1,1,-1,-1,0,1,1,0,2021-08-06 13:46:08,989073
-1,-1,0,-2,-5,-4,-1,-2,2021-08-06 13:46:08,989073
-2,-1,-1,-4,-3,0,-3,0,2021-08-06 13:46:08,990074
-2,-1,-1,-3,-1,-1,-1,-1,2021-08-06 13:46:08,990074
0,-1,-2,1,1,0,1,0,2021-08-06 13:46:09,005074
0,1,-1,-1,-2,-1,-1,-2,2021-08-06 13:46:09,021073
0,-2,-4,-2,-2,-3,-4,-2,2021-08-06 13:46:09,021073
-4,-4,-2,-2,-4,-3,-1,-3,2021-08-06 13:46:09,021073
-2,1,-1,4,12,7,2,2,2021-08-06 13:46:09,021073
1,1,0,-3,-7,-5,-3,-2,2021-08-06 13:46:09,021073
0,-1,-1,0,2,2,2,0,2021-08-06 13:46:09,021073
1,1,1,2,5,3,0,0,2021-08-06 13:46:09,021073
0,1,0,0,-1,0,0,-1,2021-08-06 13:46:09,051073
-4,-3,-5,-2,-1,-2,-4,-4,2021-08-06 13:46:09,067073
-1,-2,-1,0,-5,-5,-5,-2,2021-08-06 13:46:09,083073
-2,0,0,-2,0,-1,0,0,2021-08-06 13:46:09,083073
-1,-1,-1,0,-4,-3,-2,-1,2021-08-06 13:46:09,083073
-3,-1,-2,-2,-2,2,0,-1,2021-08-06 13:46:09,083073
0,1,2,4,2,2,2,1,2021-08-06 13:46:09,083073
1,1,-2,-2,-1,1,1,0,2021-08-06 13:46:09,083073
0,0,3,4,4,3,0,1,2021-08-06 13:46:09,084075
-1,0,-2,-5,-3,-1,-3,0,2021-08-06 13:46:09,084075
-3,-4,-3,-3,-7,-4,-4,-5,2021-08-06 13:46:09,084075
1,0,-3,-2,-5,-1,-2,-1,2021-08-06 13:46:09,084075
-2,1,1,0,1,0,1,1,2021-08-06 13:46:09,115076
1,1,5,2,4,1,2,3,2021-08-06 13:46:09,115076
-1,-1,-2,-1,-2,-2,-1,-2,2021-08-06 13:46:09,115076
-2,-4,-4,-8,-7,-4,-2,-1,2021-08-06 13:46:09,115076
1,-1,1,3,4,-3,-3,-1,2021-08-06 13:46:09,115076
0,-1,-2,-2,0,-1,0,0,2021-08-06 13:46:09,115076
-1,-2,-3,-3,0,0,-2,-2,2021-08-06 13:46:09,131075
-4,-5,-1,-1,-1,0,-1,-3,2021-08-06 13:46:09,131075
-4,-3,-2,-2,-3,0,-2,-1,2021-08-06 13:46:09,147073
-3,-1,-2,-4,-6,-6,-5,-4,2021-08-06 13:46:09,147073
3,7,6,6,8,7,6,6,2021-08-06 13:46:09,147073
-2,0,-5,-4,-4,0,-4,-2,2021-08-06 13:46:09,147073
2,1,-1,-2,-4,-8,-6,-1,2021-08-06 13:46:09,163076
2,1,3,7,10,8,3,2,2021-08-06 13:46:09,163076
-1,-1,-1,4,5,1,0,-1,2021-08-06 13:46:09,179074
2,1,0,1,1,3,3,2,2021-08-06 13:46:09,179074
-2,-2,-2,-3,-1,-1,1,-1,2021-08-06 13:46:09,179074
-2,-2,-3,-5,-10,-6,-3,-3,2021-08-06 13:46:09,179074
-2,-1,-3,-3,-2,-2,-1,-1,2021-08-06 13:46:09,179074
-2,-2,0,1,4,0,1,0,2021-08-06 13:46:09,179074
1,0,-2,-4,-8,-2,-2,-2,2021-08-06 13:46:09,211123
0,0,-1,-1,-1,0,1,0,2021-08-06 13:46:09,211123
-1,-3,-3,-3,-5,-3,-3,-2,2021-08-06 13:46:09,211123
-1,-1,1,-1,-3,-4,-1,0,2021-08-06 13:46:09,211123
-2,-2,-3,-4,-5,-1,-1,-2,2021-08-06 13:46:09,227074
1,1,1,4,8,5,3,4,2021-08-06 13:46:09,243079
-2,-2,-1,-3,-3,-2,-2,-1,2021-08-06 13:46:09,243079
-1,-1,-3,0,-3,-4,-3,-3,2021-08-06 13:46:09,243079
-4,-3,-4,-9,-10,-3,-1,-1,2021-08-06 13:46:09,243079
2,1,4,4,7,5,3,1,2021-08-06 13:46:09,243079
-1,-3,-4,-5,-3,-4,-5,-5,2021-08-06 13:46:09,243079
1,1,1,3,3,2,1,0,2021-08-06 13:46:09,243079
0,1,0,2,2,2,1,0,2021-08-06 13:46:09,259073
-3,-2,-3,-6,-7,-6,-5,-3,2021-08-06 13:46:09,274073
-1,-1,1,-2,-2,0,-1,0,2021-08-06 13:46:09,289073
-3,-4,-2,-1,-1,-2,-3,-3,2021-08-06 13:46:09,289073
2,3,3,-1,-4,-3,0,0,2021-08-06 13:46:09,289073
-1,-3,-2,-1,-1,0,-2,-3,2021-08-06 13:46:09,289073
1,0,2,4,7,3,0,-1,2021-08-06 13:46:09,289073
-2,1,0,-1,2,1,0,-1,2021-08-06 13:46:09,289073
1,-2,-2,1,0,-1,0,-1,2021-08-06 13:46:09,305074
0,-1,-2,1,-1,0,0,-1,2021-08-06 13:46:09,321073
-3,-3,-2,-3,-4,-4,-3,-2,2021-08-06 13:46:09,321073
1,1,2,3,1,2,2,2,2021-08-06 13:46:09,321073
0,-1,0,-1,7,3,0,0,2021-08-06 13:46:09,321073
-1,-2,-2,0,-4,-2,-1,-1,2021-08-06 13:46:09,321073
-2,-2,-2,-5,-6,-4,-2,-1,2021-08-06 13:46:09,321073
-2,-3,-2,-3,-6,-7,-5,-3,2021-08-06 13:46:09,321073
1,0,0,5,10,6,2,0,2021-08-06 13:46:09,345073
-1,-1,-2,-2,-2,-3,-2,-2,2021-08-06 13:46:09,345073
0,0,-1,-1,1,-1,-1,2,2021-08-06 13:46:09,345073
0,0,-1,-1,3,0,-1,-2,2021-08-06 13:46:09,345073
-1,1,1,0,0,0,0,2,2021-08-06 13:46:09,368074
-2,-3,-2,-2,-2,-2,-2,-3,2021-08-06 13:46:09,384073
-2,0,0,-1,-9,-2,-1,-1,2021-08-06 13:46:09,400073
4,4,5,2,3,3,2,3,2021-08-06 13:46:09,400073
0,-2,-5,-4,-7,-1,-1,-3,2021-08-06 13:46:09,400073
-1,-2,-3,-4,-4,-2,-2,-1,2021-08-06 13:46:09,400073
-2,-3,-4,-3,-7,-5,-2,-5,2021-08-06 13:46:09,400073
-1,-2,-1,2,4,2,0,-1,2021-08-06 13:46:09,400073
0,-1,3,5,5,1,0,-2,2021-08-06 13:46:09,400073
1,1,2,0,-1,1,0,1,2021-08-06 13:46:09,400073
-1,-1,-2,0,-2,-1,-1,-2,2021-08-06 13:46:09,416072
-3,-3,-2,-1,0,0,1,0,2021-08-06 13:46:09,432074
-2,-1,-4,-1,-4,-4,-3,-1,2021-08-06 13:46:09,432074
-1,0,-3,-6,-6,-3,-1,-1,2021-08-06 13:46:09,432074
-2,-3,-2,3,5,1,-1,-3,2021-08-06 13:46:09,432074
0,1,0,-2,0,-1,1,1,2021-08-06 13:46:09,432074
-5,-4,-3,-3,0,1,-2,-2,2021-08-06 13:46:09,448075
1,-1,0,0,3,-1,0,0,2021-08-06 13:46:09,448075
1,-1,1,-2,1,-1,0,0,2021-08-06 13:46:09,448075
-1,0,-2,-3,-4,-2,-2,-2,2021-08-06 13:46:09,448075
-2,-3,0,-3,-7,-3,-3,-2,2021-08-06 13:46:09,464073
-3,-3,0,2,4,-2,-2,-3,2021-08-06 13:46:09,464073
0,0,1,-3,-2,-1,0,1,2021-08-06 13:46:09,464073
-1,-1,-2,0,-1,-1,0,0,2021-08-06 13:46:09,464073
-3,-1,2,2,3,0,-1,-1,2021-08-06 13:46:09,480076
0,2,1,-2,-2,0,0,1,2021-08-06 13:46:09,480076
1,1,0,-6,-6,-4,-2,-2,2021-08-06 13:46:09,496074
-2,-1,-3,4,4,0,-1,-3,2021-08-06 13:46:09,511073
0,-4,-3,1,1,2,1,0,2021-08-06 13:46:09,511073
-4,-4,-3,-4,0,-2,0,0,2021-08-06 13:46:09,511073
-1,1,-1,-6,-8,-4,-3,-1,2021-08-06 13:46:09,511073
0,-1,-2,-3,-2,-1,-2,-1,2021-08-06 13:46:09,511073
-2,-3,-4,-4,-10,-8,-3,-3,2021-08-06 13:46:09,526073
4,4,5,16,28,17,7,3,2021-08-06 13:46:09,542074
1,1,2,6,3,2,1,1,2021-08-06 13:46:09,542074
-1,0,1,-3,0,2,-1,-1,2021-08-06 13:46:09,542074
1,-1,-2,-3,-2,-1,2,0,2021-08-06 13:46:09,542074
-5,-6,-8,-17,-29,-20,-9,-6,2021-08-06 13:46:09,542074
2,1,-1,0,3,3,2,1,2021-08-06 13:46:09,542074
-2,-1,0,-1,-3,-2,-2,-2,2021-08-06 13:46:09,542074
-1,0,1,-1,-1,0,-2,1,2021-08-06 13:46:09,558074
0,1,0,4,5,3,1,0,2021-08-06 13:46:09,574073
-3,-3,-2,0,-1,-2,-2,-3,2021-08-06 13:46:09,574073
1,0,6,9,1,-2,-1,-1,2021-08-06 13:46:09,574073
4,7,17,16,7,1,0,1,2021-08-06 13:46:09,590073
1,3,-6,5,6,6,3,2,2021-08-06 13:46:09,590073
-5,-12,-30,-44,-10,-5,-3,-3,2021-08-06 13:46:09,590073
-10,-14,-18,-28,-27,-17,-9,-7,2021-08-06 13:46:09,590073
-2,0,0,-7,-7,-5,-2,-2,2021-08-06 13:46:09,590073
3,6,16,23,7,3,1,3,2021-08-06 13:46:09,590073
6,10,12,22,18,13,5,2,2021-08-06 13:46:09,606072
-1,-2,-4,-11,-2,-1,-3,-1,2021-08-06 13:46:09,606072
-4,-7,-7,-11,-16,-13,-6,-5,2021-08-06 13:46:09,622072
0,1,-1,-3,-2,0,0,-1,2021-08-06 13:46:09,637073
4,4,9,18,13,8,5,4,2021-08-06 13:46:09,653072
1,-1,-2,1,-1,1,0,0,2021-08-06 13:46:09,653072
-3,-2,-5,-9,-7,-3,-2,-3,2021-08-06 13:46:09,653072
-7,-8,-10,-11,-12,-7,-6,-6,2021-08-06 13:46:09,653072
3,2,4,10,12,6,3,3,2021-08-06 13:46:09,669072
2,4,7,13,11,6,0,3,2021-08-06 13:46:09,669072
-3,-2,-9,-8,-5,-1,-1,0,2021-08-06 13:46:09,669072
-2,-3,-4,-7,-4,-3,-1,-1,2021-08-06 13:46:09,669072
-3,-4,-1,-4,-3,-4,-1,-2,2021-08-06 13:46:09,669072
2,5,9,18,11,7,4,2,2021-08-06 13:46:09,669072
2,3,11,23,19,8,3,1,2021-08-06 13:46:09,685073
-1,-4,-9,-21,-24,-13,-6,-3,2021-08-06 13:46:09,685073
-8,-13,-23,-23,-18,-11,-7,-8,2021-08-06 13:46:09,685073
-4,-5,-16,-30,-6,0,0,-1,2021-08-06 13:46:09,685073
-1,-1,1,-8,4,3,2,0,2021-08-06 13:46:09,702075
1,4,12,19,16,6,1,2,2021-08-06 13:46:09,702075
0,-2,1,7,-8,-5,-4,-3,2021-08-06 13:46:09,702075
-1,-2,1,8,0,-1,1,-1,2021-08-06 13:46:09,703074
-2,1,-5,-5,-10,-9,-5,-3,2021-08-06 13:46:09,716073
-1,0,5,5,4,0,1,0,2021-08-06 13:46:09,731073
3,5,7,6,10,8,4,3,2021-08-06 13:46:09,747074
-2,-2,-3,-5,-6,-6,-5,-2,2021-08-06 13:46:09,747074
0,-1,-2,-3,2,2,1,0,2021-08-06 13:46:09,763077
2,1,-2,-1,3,0,0,-1,2021-08-06 13:46:09,763077
-2,0,1,2,-6,-2,-2,1,2021-08-06 13:46:09,763077
0,1,0,-6,-8,-5,-3,-2,2021-08-06 13:46:09,763077
-3,-5,-2,-2,-3,-3,-3,-4,2021-08-06 13:46:09,763077
-1,-1,-2,4,10,6,2,-1,2021-08-06 13:46:09,763077
-1,-1,-2,0,-6,1,-1,0,2021-08-06 13:46:09,763077
0,-1,-2,-4,0,2,1,0,2021-08-06 13:46:09,763077
-4,-4,-10,-15,-13,-9,-6,-4,2021-08-06 13:46:09,793074
-3,-3,-4,-7,-11,-3,-2,-1,2021-08-06 13:46:09,793074
1,4,9,11,10,1,1,0,2021-08-06 13:46:09,793074
0,2,6,11,-2,-4,-1,-1,2021-08-06 13:46:09,793074
1,2,6,17,9,8,2,3,2021-08-06 13:46:09,793074
-4,-4,-11,-13,-9,-6,-3,-3,2021-08-06 13:46:09,793074
-3,-5,-4,-27,-14,-6,-2,-2,2021-08-06 13:46:09,809073
0,-1,-8,-7,-1,-2,-1,-2,2021-08-06 13:46:09,809073
1,-1,0,5,7,3,0,1,2021-08-06 13:46:09,825073
1,4,13,19,8,2,0,2,2021-08-06 13:46:09,841073
-3,-3,-6,-4,-13,-5,-2,-3,2021-08-06 13:46:09,857072
-3,-5,-5,-14,-7,-5,-1,0,2021-08-06 13:46:09,857072
1,-3,-7,-2,2,2,2,2,2021-08-06 13:46:09,857072
-3,-2,-6,-2,-6,-3,-4,-2,2021-08-06 13:46:09,857072
0,3,7,7,10,5,0,0,2021-08-06 13:46:09,857072
1,2,5,9,-1,0,0,0,2021-08-06 13:46:09,857072
5,6,4,5,11,8,5,4,2021-08-06 13:46:09,857072
-2,-2,-4,-16,-3,-2,-2,-2,2021-08-06 13:46:09,858075
-3,-1,-1,0,1,-3,-3,-2,2021-08-06 13:46:09,858075
-1,-1,4,10,2,-1,-3,-1,2021-08-06 13:46:09,858075
-1,-1,-3,-1,-4,-3,-1,-1,2021-08-06 13:46:09,888073
1,-1,-3,-3,0,2,0,0,2021-08-06 13:46:09,903073
-3,-3,-2,-4,-5,-4,-2,-2,2021-08-06 13:46:09,918074
-3,-1,-1,2,-2,-1,-2,-1,2021-08-06 13:46:09,918074
-2,-1,-5,-6,-10,-6,-1,-1,2021-08-06 13:46:09,918074
2,-2,-4,-10,3,2,2,0,2021-08-06 13:46:09,918074
-3,-3,-3,-4,-6,-3,0,-2,2021-08-06 13:46:09,918074
2,2,0,10,15,7,2,2,2021-08-06 13:46:09,918074
-2,-1,4,2,-5,-1,-1,-1,2021-08-06 13:46:09,918074
-1,1,2,0,7,1,0,1,2021-08-06 13:46:09,919074
2,1,3,9,9,5,3,1,2021-08-06 13:46:09,934074
-2,-2,-1,-2,-3,-1,-1,-2,2021-08-06 13:46:09,950073
-3,-2,-1,-4,-10,-5,-3,-4,2021-08-06 13:46:09,950073
-3,-3,-2,1,-4,-4,-2,-4,2021-08-06 13:46:09,950073
-1,0,-1,-1,-4,-4,-2,-1,2021-08-06 13:46:09,950073
1,1,1,-2,0,1,1,1,2021-08-06 13:46:09,950073
-1,-2,-6,-9,-2,-1,-1,-3,2021-08-06 13:46:09,966074
-1,-3,-1,-3,-8,-4,-2,-1,2021-08-06 13:46:09,966074
0,1,1,3,-1,1,-1,-1,2021-08-06 13:46:09,982074
1,2,1,1,5,1,2,1,2021-08-06 13:46:09,998075
0,-1,-4,-2,-2,-2,-1,1,2021-08-06 13:46:09,998075
-1,-1,-2,-2,0,-2,0,-1,2021-08-06 13:46:09,998075
1,0,-1,-2,-12,-4,0,-1,2021-08-06 13:46:09,998075
-1,-2,-2,1,3,1,1,-1,2021-08-06 13:46:09,998075
-3,-3,-1,-5,-5,-5,-4,-4,2021-08-06 13:46:09,998075
-3,-1,2,7,8,2,-1,-2,2021-08-06 13:46:09,998075
-4,-1,-4,-6,-10,-8,-3,-3,2021-08-06 13:46:09,998075
5,4,6,12,14,11,5,4,2021-08-06 13:46:09,998075
0,-1,-1,-8,0,-1,1,-1,2021-08-06 13:46:10,029074
-2,-2,5,13,0,-1,-4,-2,2021-08-06 13:46:10,029074
0,0,0,10,10,2,-1,0,2021-08-06 13:46:10,029074
1,1,-6,-16,-12,0,0,2,2021-08-06 13:46:10,029074
-7,-12,-14,-42,-14,-9,-6,-5,2021-08-06 13:46:10,045073
-3,-7,-18,-11,-12,-9,-4,-2,2021-08-06 13:46:10,061073
-2,-3,3,1,1,1,0,-2,2021-08-06 13:46:10,065073
-3,0,5,16,7,0,0,-2,2021-08-06 13:46:10,065073
5,6,11,21,16,11,5,3,2021-08-06 13:46:10,065073
3,2,3,-5,-7,-3,0,0,2021-08-06 13:46:10,065073
1,3,3,9,6,2,2,1,2021-08-06 13:46:10,066074
-3,-3,-3,-6,-3,-2,-4,-2,2021-08-06 13:46:10,066074
1,2,1,5,4,2,2,1,2021-08-06 13:46:10,093073
-3,-4,0,-2,0,0,-1,-2,2021-08-06 13:46:10,093073
2,2,-1,5,8,4,3,0,2021-08-06 13:46:10,093073
-4,-4,-6,-20,-22,-14,-7,-4,2021-08-06 13:46:10,093073
3,6,11,23,21,12,6,2,2021-08-06 13:46:10,093073
5,11,23,47,25,14,6,4,2021-08-06 13:46:10,093073
1,-1,-13,-2,-5,1,2,2,2021-08-06 13:46:10,109073
-9,-15,-29,-92,-41,-17,-7,-7,2021-08-06 13:46:10,109073
-14,-16,-25,-34,-26,-19,-13,-10,2021-08-06 13:46:10,125074
-1,-4,-6,-8,-7,-5,-1,-1,2021-08-06 13:46:10,125074
2,7,22,26,18,5,1,2,2021-08-06 13:46:10,125074
5,6,13,45,20,9,5,3,2021-08-06 13:46:10,125074
3,5,10,17,8,5,5,3,2021-08-06 13:46:10,157073
0,0,-1,-7,-3,1,1,-2,2021-08-06 13:46:10,173073
-5,-6,-9,-16,-8,-7,-6,-4,2021-08-06 13:46:10,173073
2,3,6,14,13,8,4,3,2021-08-06 13:46:10,173073
0,2,6,8,4,3,0,1,2021-08-06 13:46:10,173073
0,1,1,2,-3,-2,0,1,2021-08-06 13:46:10,173073
-1,-3,-5,-9,-5,-3,-5,-2,2021-08-06 13:46:10,173073
-1,-3,-5,-3,-8,-4,-2,0,2021-08-06 13:46:10,173073
-3,-5,-4,-11,-8,-4,-4,-4,2021-08-06 13:46:10,189074
3,4,10,19,18,10,5,1,2021-08-06 13:46:10,189074
1,1,1,-7,-10,-3,0,1,2021-08-06 13:46:10,189074
4,4,-8,-10,6,7,5,3,2021-08-06 13:46:10,189074
-6,-7,-7,-11,-15,-14,-8,-4,2021-08-06 13:46:10,221075
-3,-1,-3,-2,-8,-5,-3,0,2021-08-06 13:46:10,221075
-4,-2,3,16,16,8,2,0,2021-08-06 13:46:10,221075
-1,-1,3,-10,-1,-2,-1,-1,2021-08-06 13:46:10,221075
-4,-7,-24,-21,-13,-7,-2,-4,2021-08-06 13:46:10,221075
-2,-5,-8,-18,-12,-6,-4,-4,2021-08-06 13:46:10,221075
-3,0,7,14,-4,-6,-4,-3,2021-08-06 13:46:10,236072
5,7,10,32,28,15,6,4,2021-08-06 13:46:10,236072
2,4,8,-3,-2,2,2,3,2021-08-06 13:46:10,251074
-6,-9,-14,-11,-9,-5,-4,-2,2021-08-06 13:46:10,251074
-1,-1,-4,-5,-4,-4,-3,-2,2021-08-06 13:46:10,251074
-4,-2,5,6,-5,-5,-3,-3,2021-08-06 13:46:10,251074
2,6,11,18,13,7,3,3,2021-08-06 13:46:10,267073
1,3,3,11,10,5,2,2,2021-08-06 13:46:10,267073
-1,-3,-7,-19,-14,-4,0,-2,2021-08-06 13:46:10,267073
-4,-7,-4,-13,-18,-13,-8,-4,2021-08-06 13:46:10,267073
1,1,-7,-5,1,3,2,2,2021-08-06 13:46:10,283074
-5,-8,-11,-16,0,-1,-2,-3,2021-08-06 13:46:10,283074
-6,-11,-14,-36,-22,-10,-6,-7,2021-08-06 13:46:10,283074
-4,-2,-2,11,5,-2,-3,-3,2021-08-06 13:46:10,283074
2,3,12,24,7,2,2,0,2021-08-06 13:46:10,314075
4,7,9,1,-2,-1,0,0,2021-08-06 13:46:10,314075
2,0,1,7,8,3,0,1,2021-08-06 13:46:10,314075
-1,-1,4,-2,-7,-4,-3,-3,2021-08-06 13:46:10,314075
-3,-6,-15,-12,-13,-7,-3,-3,2021-08-06 13:46:10,346075
3,2,10,15,12,6,2,2,2021-08-06 13:46:10,346075
9,11,16,30,34,20,12,9,2021-08-06 13:46:10,346075
-1,-1,-15,-19,-12,-3,0,-1,2021-08-06 13:46:10,346075
-8,-7,-9,-18,-13,-10,-8,-6,2021-08-06 13:46:10,346075
-4,-3,-5,-12,-14,-7,-3,-4,2021-08-06 13:46:10,346075
-2,-2,2,4,-7,-3,-2,-3,2021-08-06 13:46:10,346075
4,7,14,23,23,10,6,4,2021-08-06 13:46:10,346075
3,4,4,13,7,7,5,3,2021-08-06 13:46:10,362073
-2,-5,-16,-39,-17,-6,-4,-1,2021-08-06 13:46:10,362073
-10,-11,3,-21,-9,-9,-7,-8,2021-08-06 13:46:10,362073
-3,-3,-11,13,10,2,0,-2,2021-08-06 13:46:10,362073
3,1,4,20,9,2,0,-1,2021-08-06 13:46:10,394124
-1,1,2,9,-1,0,1,0,2021-08-06 13:46:10,394124
-3,-3,-10,-30,-19,-10,-4,-2,2021-08-06 13:46:10,394124
-2,-2,8,3,4,1,-2,0,2021-08-06 13:46:10,394124
2,4,9,12,11,7,4,3,2021-08-06 13:46:10,394124
3,3,1,13,14,7,3,2,2021-08-06 13:46:10,394124
0,0,-6,0,1,0,-2,0,2021-08-06 13:46:10,410073
-4,-8,-6,-7,-15,-10,-4,-6,2021-08-06 13:46:10,410073
3,8,4,5,0,0,0,2,2021-08-06 13:46:10,419072
1,0,3,3,6,3,1,2,2021-08-06 13:46:10,419072
0,1,-4,-1,-7,-2,-1,-1,2021-08-06 13:46:10,442073
-2,-2,-5,-6,-4,-4,-3,-2,2021-08-06 13:46:10,442073
-1,-4,4,-3,4,3,-1,-1,2021-08-06 13:46:10,442073
-4,-3,-6,-1,-11,-9,-5,-4,2021-08-06 13:46:10,442073
1,1,-6,-14,0,3,1,1,2021-08-06 13:46:10,442073
-6,-9,-14,-29,-18,-9,-7,-5,2021-08-06 13:46:10,442073
-2,-3,0,-8,-9,-6,-3,-4,2021-08-06 13:46:10,458074
-2,2,8,13,3,-1,0,-2,2021-08-06 13:46:10,458074
5,9,12,35,15,6,3,6,2021-08-06 13:46:10,474074
6,6,5,15,21,13,6,4,2021-08-06 13:46:10,474074
-3,-6,-11,-20,-9,-7,-4,-2,2021-08-06 13:46:10,490073
-3,-6,-2,-2,-1,-1,-1,-2,2021-08-06 13:46:10,506072
2,-1,-9,-6,2,0,1,0,2021-08-06 13:46:10,521073
-2,-3,6,-9,-13,-8,-3,-2,2021-08-06 13:46:10,521073
1,3,2,9,0,-1,-1,0,2021-08-06 13:46:10,521073
0,1,-2,3,14,9,3,0,2021-08-06 13:46:10,521073
-3,-1,9,18,6,0,0,-3,2021-08-06 13:46:10,521073
3,3,-1,5,-9,-4,-2,-1,2021-08-06 13:46:10,521073
0,-1,-7,-8,6,7,3,0,2021-08-06 13:46:10,521073
-5,-7,-12,-26,-24,-13,-7,-6,2021-08-06 13:46:10,522075
-1,-3,0,-3,-1,-4,-3,-1,2021-08-06 13:46:10,522075
2,6,11,20,18,8,4,2,2021-08-06 13:46:10,522075
-2,-2,10,2,0,0,-1,-1,2021-08-06 13:46:10,551073
0,1,-16,0,-3,-2,-3,-2,2021-08-06 13:46:10,551073
0,0,2,-2,5,2,1,-2,2021-08-06 13:46:10,551073
-1,-3,-9,-6,-9,-2,1,2,2021-08-06 13:46:10,551073
-7,-10,-19,-40,-25,-14,-7,-6,2021-08-06 13:46:10,567073
-7,-8,-2,-20,-17,-11,-8,-6,2021-08-06 13:46:10,567073
4,5,12,28,12,5,4,2,2021-08-06 13:46:10,567073
4,8,17,35,23,13,6,3,2021-08-06 13:46:10,567073
5,5,2,1,7,8,5,3,2021-08-06 13:46:10,599073
-2,-9,-17,-19,-6,-4,-2,-4,2021-08-06 13:46:10,614073
-6,-9,-13,-10,-10,-8,-7,-4,2021-08-06 13:46:10,629073
-2,-2,7,2,-4,-6,-3,-3,2021-08-06 13:46:10,629073
1,0,7,23,7,1,0,0,2021-08-06 13:46:10,629073
6,6,7,0,11,8,5,6,2021-08-06 13:46:10,629073
3,1,-6,-16,-6,1,0,0,2021-08-06 13:46:10,629073
-3,-6,-10,-11,-6,-5,-4,-3,2021-08-06 13:46:10,629073
-1,1,7,12,1,-3,-2,-1,2021-08-06 13:46:10,629073
5,8,22,47,23,12,5,5,2021-08-06 13:46:10,630075
-2,-4,-17,-29,-16,-5,-3,-1,2021-08-06 13:46:10,630075
-5,-8,-15,-42,-10,-4,-2,-3,2021-08-06 13:46:10,630075
-8,-10,-16,-6,-9,-12,-7,-7,2021-08-06 13:46:10,645073
4,6,19,33,24,11,5,3,2021-08-06 13:46:10,661073
5,8,14,30,18,8,5,3,2021-08-06 13:46:10,661073
-4,-3,-10,-20,-15,-6,-3,-1,2021-08-06 13:46:10,661073
-8,-10,-14,-41,-25,-15,-8,-7,2021-08-06 13:46:10,677074
-2,-4,-17,-19,-19,-10,-3,-2,2021-08-06 13:46:10,677074
-1,-1,3,10,3,1,2,-1,2021-08-06 13:46:10,677074
1,3,6,15,0,1,0,-1,2021-08-06 13:46:10,677074
6,7,9,17,10,6,5,5,2021-08-06 13:46:10,693074
-2,-2,1,-6,-4,-2,-2,-4,2021-08-06 13:46:10,709073
-2,-3,-2,-4,-4,-3,-3,-3,2021-08-06 13:46:10,725074
2,3,8,17,9,1,0,0,2021-08-06 13:46:10,725074
1,4,9,21,11,5,1,2,2021-08-06 13:46:10,725074
-1,-1,-12,-24,-16,-3,-1,1,2021-08-06 13:46:10,725074
-10,-15,-20,-59,-31,-15,-8,-7,2021-08-06 13:46:10,725074
-9,-12,-22,-22,-24,-17,-10,-7,2021-08-06 13:46:10,725074
3,4,6,8,-2,3,2,0,2021-08-06 13:46:10,725074
5,8,19,42,38,18,11,4,2021-08-06 13:46:10,725074
2,3,5,15,14,9,3,3,2021-08-06 13:46:10,726074
-3,-1,0,-8,-7,-5,-4,-4,2021-08-06 13:46:10,726074
0,-1,-3,-1,0,-2,0,-1,2021-08-06 13:46:10,756072
-4,-4,-5,-13,-13,-7,-5,-4,2021-08-06 13:46:10,756072
3,4,12,28,20,9,4,2,2021-08-06 13:46:10,756072
2,4,5,14,2,1,2,2,2021-08-06 13:46:10,756072
0,-2,-16,-18,1,3,2,1,2021-08-06 13:46:10,771074
-7,-12,-17,-42,-21,-12,-6,-6,2021-08-06 13:46:10,771074
-8,-8,-10,-19,-17,-13,-8,-6,2021-08-06 13:46:10,771074
1,0,0,11,2,2,0,1,2021-08-06 13:46:10,771074
-2,0,11,17,4,-1,-2,-3,2021-08-06 13:46:10,776073
2,6,13,21,12,9,3,1,2021-08-06 13:46:10,777075
2,3,-2,-1,-2,1,0,1,2021-08-06 13:46:10,787073
-1,-2,-4,-13,-7,-5,0,0,2021-08-06 13:46:10,787073
0,0,0,4,1,-1,0,-2,2021-08-06 13:46:10,819072
2,1,1,-5,5,1,1,2,2021-08-06 13:46:10,835072
3,3,0,6,3,2,1,2,2021-08-06 13:46:10,835072
-4,-3,-6,-10,-11,-7,-6,-3,2021-08-06 13:46:10,835072
4,2,4,11,22,13,4,2,2021-08-06 13:46:10,835072
1,-1,1,3,-1,-1,0,0,2021-08-06 13:46:10,835072
0,-1,2,13,-7,-5,-2,-1,2021-08-06 13:46:10,835072
-1,-2,-1,-8,2,1,0,-2,2021-08-06 13:46:10,835072
0,0,-11,-23,-5,-1,-1,0,2021-08-06 13:46:10,851074
-7,-5,-10,-19,-15,-9,-8,-6,2021-08-06 13:46:10,851074
1,0,7,6,3,-1,-1,-2,2021-08-06 13:46:10,851074
1,2,8,26,12,6,3,1,2021-08-06 13:46:10,851074
0,-1,3,7,6,5,2,0,2021-08-06 13:46:10,867074
-1,-1,-8,-25,-15,-5,0,0,2021-08-06 13:46:10,883072
-3,-7,-1,-17,-14,-9,-2,-5,2021-08-06 13:46:10,899072
-1,-1,-7,-4,-2,-5,-2,-1,2021-08-06 13:46:10,899072
4,5,8,25,20,11,6,4,2021-08-06 13:46:10,899072
2,2,1,16,10,6,2,3,2021-08-06 13:46:10,899072
-4,-3,-10,-24,-3,1,-1,-3,2021-08-06 13:46:10,899072
-1,0,2,-2,0,-2,0,-1,2021-08-06 13:46:10,899072
-1,0,5,4,-8,-3,-1,1,2021-08-06 13:46:10,899072
2,4,8,32,21,9,3,1,2021-08-06 13:46:10,899072
-2,-2,-7,-14,-3,1,1,1,2021-08-06 13:46:10,915074
-3,-5,-13,-25,-12,-5,-4,-4,2021-08-06 13:46:10,915074
-3,-2,-6,-5,-7,-4,-2,-3,2021-08-06 13:46:10,931075
-1,0,8,5,-2,-3,-3,-1,2021-08-06 13:46:10,947074
1,2,4,19,8,1,-1,0,2021-08-06 13:46:10,963076
2,1,5,8,9,9,4,1,2021-08-06 13:46:10,963076
-3,-4,-1,-5,-14,-8,-3,-2,2021-08-06 13:46:10,963076
-3,-1,0,-3,-10,-8,-4,-3,2021-08-06 13:46:10,963076
3,2,-8,-9,5,6,4,5,2021-08-06 13:46:10,963076
-4,-7,-7,-15,-10,-4,-4,-3,2021-08-06 13:46:10,963076
-3,-2,2,1,-3,-5,-4,-1,2021-08-06 13:46:10,964074
0,0,4,-3,-5,-3,-2,-1,2021-08-06 13:46:10,964074
-7,-8,-19,-26,-21,-10,-7,-5,2021-08-06 13:46:10,964074
1,3,9,22,10,1,1,3,2021-08-06 13:46:10,964074
2,0,5,23,23,15,4,3,2021-08-06 13:46:10,993074
0,-2,-9,-17,2,2,2,1,2021-08-06 13:46:11,009074
-2,-1,10,13,-6,-7,-5,-3,2021-08-06 13:46:11,025073
1,0,-2,12,11,6,1,0,2021-08-06 13:46:11,025073
-3,-4,-11,-48,-28,-16,-9,-5,2021-08-06 13:46:11,025073
-4,-4,-11,-14,-10,-7,-3,-3,2021-08-06 13:46:11,025073
4,4,5,15,24,14,7,3,2021-08-06 13:46:11,025073
-1,0,11,15,2,-2,-2,-1,2021-08-06 13:46:11,025073
4,2,2,17,0,1,0,1,2021-08-06 13:46:11,025073
-2,-5,-11,-27,-11,-4,-1,-3,2021-08-06 13:46:11,026074
-7,-8,-5,-9,-14,-11,-7,-5,2021-08-06 13:46:11,026074
-1,1,-1,9,-3,-1,-2,-2,2021-08-06 13:46:11,026074
2,7,14,25,12,6,3,3,2021-08-06 13:46:11,056074
3,4,7,12,7,5,1,2,2021-08-06 13:46:11,056074
-1,-2,-12,-21,-3,0,-1,-2,2021-08-06 13:46:11,056074
-3,-6,-8,-23,-17,-6,-4,-3,2021-08-06 13:46:11,056074
-4,-5,-5,-3,-3,-4,-4,-5,2021-08-06 13:46:11,071072
0,2,3,10,3,2,1,-1,2021-08-06 13:46:11,071072
-2,0,6,15,0,-3,-2,-2,2021-08-06 13:46:11,071072
-2,-1,-1,0,-11,-7,-2,-2,2021-08-06 13:46:11,071072
-1,-2,-13,-39,-5,1,1,1,2021-08-06 13:46:11,086073
-1,-5,3,14,6,1,0,-1,2021-08-06 13:46:11,102073
0,3,12,38,15,9,2,1,2021-08-06 13:46:11,102073
7,6,-6,-13,3,10,6,7,2021-08-06 13:46:11,102073
-11,-16,-26,-48,-30,-17,-8,-8,2021-08-06 13:46:11,102073
-9,-8,-4,-15,-15,-15,-9,-6,2021-08-06 13:46:11,102073
0,1,-1,-2,-4,-2,0,-1,2021-08-06 13:46:11,102073
1,5,18,38,22,6,1,0,2021-08-06 13:46:11,102073
9,11,18,33,18,14,8,7,2021-08-06 13:46:11,130074
0,-1,-9,-26,-13,-4,0,1,2021-08-06 13:46:11,130074
-4,-5,0,-5,-6,-3,-3,-2,2021-08-06 13:46:11,130074
-1,-1,-1,-5,-3,-7,-4,-1,2021-08-06 13:46:11,130074
0,-1,-3,5,7,4,4,2,2021-08-06 13:46:11,149073
-3,-2,3,20,18,9,1,-1,2021-08-06 13:46:11,165072
0,2,2,-5,0,-1,0,1,2021-08-06 13:46:11,181073
-2,-6,-8,-21,-10,-4,-2,-1,2021-08-06 13:46:11,181073
-7,-6,-8,-29,-24,-17,-9,-8,2021-08-06 13:46:11,181073
3,4,5,20,5,-1,1,3,2021-08-06 13:46:11,181073
1,2,-3,3,-8,-5,-1,1,2021-08-06 13:46:11,181073
-1,-4,2,-1,22,14,4,-3,2021-08-06 13:46:11,181073
-2,-2,-1,4,5,-1,-3,-2,2021-08-06 13:46:11,197073
-3,-4,-4,-15,-10,-5,-3,-2,2021-08-06 13:46:11,213074
0,1,3,12,1,-2,0,0,2021-08-06 13:46:11,229073
2,6,14,28,9,4,1,0,2021-08-06 13:46:11,229073
1,-1,-13,-17,-7,1,2,2,2021-08-06 13:46:11,229073
-10,-15,-21,-52,-27,-16,-7,-10,2021-08-06 13:46:11,229073
-7,-7,-10,-21,-25,-18,-10,-6,2021-08-06 13:46:11,229073
6,6,12,21,22,15,10,6,2021-08-06 13:46:11,229073
4,11,26,48,27,9,2,0,2021-08-06 13:46:11,230073
7,8,1,16,9,14,6,5,2021-08-06 13:46:11,230073
-1,-6,-8,-21,-2,0,-1,-2,2021-08-06 13:46:11,230073
-10,-13,-16,-29,-28,-18,-11,-9,2021-08-06 13:46:11,230073
9,8,17,38,20,11,7,6,2021-08-06 13:46:11,261073
1,3,1,6,7,4,1,3,2021-08-06 13:46:11,276073
-4,-7,-19,-48,-30,-12,-5,-2,2021-08-06 13:46:11,292073
-5,-5,-12,-8,7,1,-3,-2,2021-08-06 13:46:11,292073
-7,-7,-3,-8,-15,-12,-6,-5,2021-08-06 13:46:11,292073
2,6,16,40,10,1,1,0,2021-08-06 13:46:11,292073
6,7,9,16,15,14,7,6,2021-08-06 13:46:11,292073
-5,-8,-11,-49,-29,-13,-6,-5,2021-08-06 13:46:11,292073
-3,-1,10,24,4,-3,-4,-2,2021-08-06 13:46:11,292073
4,6,8,37,29,18,8,4,2021-08-06 13:46:11,292073
1,-1,-21,-45,-19,-7,-3,-3,2021-08-06 13:46:11,292073
-5,-8,-11,-12,-2,-1,-1,-4,2021-08-06 13:46:11,293075
-5,-6,-10,-12,-6,-6,-4,-5,2021-08-06 13:46:11,308074
-2,0,12,8,-5,-4,-4,-1,2021-08-06 13:46:11,308074
5,6,16,38,22,10,6,5,2021-08-06 13:46:11,308074
5,8,7,4,-4,-2,1,2,2021-08-06 13:46:11,308074
-1,-2,-5,-13,5,5,2,-2,2021-08-06 13:46:11,338073
-7,-10,-17,-26,-27,-17,-10,-7,2021-08-06 13:46:11,353073
-3,-3,8,24,14,5,-1,-1,2021-08-06 13:46:11,353073
2,6,5,16,9,4,2,4,2021-08-06 13:46:11,353073
-1,-1,-14,-26,-14,-4,0,0,2021-08-06 13:46:11,353073
-6,-6,-4,-20,-18,-8,-5,-5,2021-08-06 13:46:11,353073
0,0,3,14,16,6,3,-1,2021-08-06 13:46:11,353073
-1,-3,-9,-14,-8,-5,-2,-3,2021-08-06 13:46:11,353073
-1,1,2,6,2,1,-1,-3,2021-08-06 13:46:11,368072
-2,-1,-5,-14,-19,-10,-7,-4,2021-08-06 13:46:11,368072
2,-3,1,-3,19,11,2,0,2021-08-06 13:46:11,368072
1,4,7,18,-3,-4,-1,0,2021-08-06 13:46:11,368072
2,0,0,-3,-4,-2,2,3,2021-08-06 13:46:11,398074
1,0,-1,-3,3,1,2,2,2021-08-06 13:46:11,398074
-4,-2,1,4,-6,-5,-6,-3,2021-08-06 13:46:11,398074
-2,-2,0,1,-4,-2,-3,-1,2021-08-06 13:46:11,398074
0,1,-1,8,11,6,1,0,2021-08-06 13:46:11,414074
1,0,-6,-7,5,1,2,1,2021-08-06 13:46:11,414074
-3,-1,-2,-3,-7,-6,-3,-3,2021-08-06 13:46:11,414074
-3,-3,-3,-2,0,1,1,-3,2021-08-06 13:46:11,414074
-3,-4,1,-4,-8,-5,-5,-3,2021-08-06 13:46:11,430077
3,6,15,26,12,5,3,2,2021-08-06 13:46:11,430077
1,0,-7,-2,-2,-2,2,0,2021-08-06 13:46:11,430077
0,-2,-14,-32,-11,-5,-2,0,2021-08-06 13:46:11,430077
-9,-12,-14,-15,-15,-9,-8,-6,2021-08-06 13:46:11,461073
0,-1,-6,-14,3,4,2,3,2021-08-06 13:46:11,461073
-1,-3,4,2,-6,-5,-4,-2,2021-08-06 13:46:11,461073
2,7,21,43,8,-1,-2,0,2021-08-06 13:46:11,461073
6,7,9,21,27,14,8,5,2021-08-06 13:46:11,476077
1,2,0,1,27,14,5,0,2021-08-06 13:46:11,483072
-1,4,8,3,-3,-2,-2,-2,2021-08-06 13:46:11,492073
-6,-6,-8,-3,-1,-3,-3,-2,2021-08-06 13:46:11,492073
1,-1,-6,-11,-4,-3,-1,0,2021-08-06 13:46:11,492073
-1,-1,7,-3,-8,-6,-3,-1,2021-08-06 13:46:11,492073
1,-1,-19,-15,-4,0,2,2,2021-08-06 13:46:11,492073
-6,-7,-8,-26,-23,-14,-7,-6,2021-08-06 13:46:11,492073
2,5,14,24,2,3,2,1,2021-08-06 13:46:11,508074
8,9,9,43,32,19,10,6,2021-08-06 13:46:11,508074
0,-2,-17,-54,-14,-2,-1,-1,2021-08-06 13:46:11,508074
-7,-7,-8,-12,-15,-12,-7,-7,2021-08-06 13:46:11,508074
-4,-4,-1,3,2,-3,-1,-3,2021-08-06 13:46:11,524074
4,6,14,11,-3,-2,0,1,2021-08-06 13:46:11,540072
2,2,10,28,11,5,2,0,2021-08-06 13:46:11,540072
0,-1,-3,-19,-6,-1,-1,0,2021-08-06 13:46:11,540072
-4,-4,-4,-2,-15,-9,-4,-4,2021-08-06 13:46:11,556072
-1,0,-2,5,9,1,-1,0,2021-08-06 13:46:11,571073
-3,-1,-6,-6,-15,-6,-2,-3,2021-08-06 13:46:11,571073
4,3,6,20,36,23,10,5,2021-08-06 13:46:11,571073
-4,-4,-6,-20,-20,-12,-8,-5,2021-08-06 13:46:11,571073
-4,-6,-6,-19,-19,-11,-5,-5,2021-08-06 13:46:11,571073
0,7,18,46,14,0,0,3,2021-08-06 13:46:11,571073
5,6,11,20,11,11,6,5,2021-08-06 13:46:11,571073
-8,-15,-33,-86,-38,-19,-10,-9,2021-08-06 13:46:11,586103
-12,-17,-28,-34,-30,-17,-9,-11,2021-08-06 13:46:11,586103
-5,-6,-7,-2,-7,-10,-7,-5,2021-08-06 13:46:11,586103
14,15,26,47,31,23,13,10,2021-08-06 13:46:11,586103
9,13,17,37,32,21,9,9,2021-08-06 13:46:11,617102
-3,-4,-3,-13,-9,-3,0,-3,2021-08-06 13:46:11,617102
-6,-9,-5,1,-7,-7,-5,-5,2021-08-06 13:46:11,617102
2,5,2,-2,-7,-5,0,2,2021-08-06 13:46:11,617102
5,9,15,14,7,2,2,3,2021-08-06 13:46:11,632103
-1,-4,-20,-30,-17,-3,0,0,2021-08-06 13:46:11,632103
-9,-14,-23,-38,-7,-5,-6,-7,2021-08-06 13:46:11,632103
-8,-11,-11,-14,-18,-13,-6,-7,2021-08-06 13:46:11,632103
-3,0,2,8,4,1,1,-1,2021-08-06 13:46:11,648105
3,7,26,45,14,2,2,0,2021-08-06 13:46:11,648105
7,9,18,37,19,15,9,6,2021-08-06 13:46:11,663108
-2,-7,-22,-44,-9,-1,-1,-2,2021-08-06 13:46:11,679105
-8,-14,-22,-33,-25,-18,-10,-9,2021-08-06 13:46:11,679105
-7,-7,-7,-27,-27,-11,-9,-5,2021-08-06 13:46:11,679105
2,5,11,16,17,7,4,0,2021-08-06 13:46:11,679105
0,3,13,29,17,6,1,0,2021-08-06 13:46:11,679105
7,9,17,47,33,15,5,5,2021-08-06 13:46:11,695102
1,2,-3,8,8,3,1,2,2021-08-06 13:46:11,711102
0,-4,-2,-29,-20,-7,-3,1,2021-08-06 13:46:11,711102
-11,-15,-24,-46,-42,-25,-16,-11,2021-08-06 13:46:11,711102
0,-4,-11,-24,-15,-4,-2,-2,2021-08-06 13:46:11,711102
-4,-6,-2,-6,-7,-9,-7,-5,2021-08-06 13:46:11,711102
3,7,9,21,9,7,5,3,2021-08-06 13:46:11,711102
5,6,14,38,40,19,8,2,2021-08-06 13:46:11,711102
-3,-4,-5,-7,-12,-7,-4,-2,2021-08-06 13:46:11,727104
0,-1,0,-14,-7,-2,-1,-2,2021-08-06 13:46:11,727104
-1,1,5,8,13,5,2,0,2021-08-06 13:46:11,727104
3,3,-2,3,-5,-4,1,2,2021-08-06 13:46:11,727104
-1,0,7,13,4,3,-2,-1,2021-08-06 13:46:11,759106
-1,-2,0,-10,-8,-8,-4,-1,2021-08-06 13:46:11,759106
5,2,-7,-1,0,7,5,4,2021-08-06 13:46:11,759106
-8,-9,-15,-25,-1,-5,-6,-5,2021-08-06 13:46:11,759106
-3,-5,3,12,-4,-4,-1,0,2021-08-06 13:46:11,759106
3,5,11,21,20,10,6,2,2021-08-06 13:46:11,759106
-4,-4,-9,-22,-17,-8,-4,-4,2021-08-06 13:46:11,759106
-4,-7,-10,-29,-32,-17,-8,-6,2021-08-06 13:46:11,760103
2,2,-3,1,9,7,6,1,2021-08-06 13:46:11,807105
-3,-3,2,9,1,-6,-4,-4,2021-08-06 13:46:11,807105
4,7,13,23,4,2,3,2,2021-08-06 13:46:11,807410
1,2,4,8,8,7,3,0,2021-08-06 13:46:11,807410
2,3,8,17,21,10,5,3,2021-08-06 13:46:11,807410
5,4,-1,10,9,11,6,4,2021-08-06 13:46:11,807410
-4,-6,-9,-36,-21,-12,-9,-5,2021-08-06 13:46:11,807410
-8,-7,-10,-14,-25,-19,-12,-7,2021-08-06 13:46:11,807410
0,0,-6,-9,-4,6,4,1,2021-08-06 13:46:11,822612
-1,1,6,17,14,2,0,-1,2021-08-06 13:46:11,822612
1,4,12,32,20,9,4,1,2021-08-06 13:46:11,822612
2,2,-4,-8,1,3,1,2,2021-08-06 13:46:11,822612
-8,-12,-15,-45,-39,-20,-10,-9,2021-08-06 13:46:11,853649
-4,-7,-17,-19,-12,-4,-2,-3,2021-08-06 13:46:11,853649
-3,-5,-1,-7,-2,-4,-3,-2,2021-08-06 13:46:11,853649
0,3,11,30,11,5,1,2,2021-08-06 13:46:11,853649
4,6,8,25,15,3,1,2,2021-08-06 13:46:11,870633
4,8,11,13,4,7,5,5,2021-08-06 13:46:11,870633
0,-1,-6,-9,2,0,-1,0,2021-08-06 13:46:11,870633
1,-3,-15,-34,-9,0,1,2,2021-08-06 13:46:11,870633
-13,-16,-15,-27,-21,-17,-12,-10,2021-08-06 13:46:11,886633
-5,-7,-12,-5,-13,-10,-6,-5,2021-08-06 13:46:11,886633
5,10,19,36,25,11,6,3,2021-08-06 13:46:11,886633
10,11,11,15,18,15,9,6,2021-08-06 13:46:11,886633
0,-1,-3,-5,0,4,1,-2,2021-08-06 13:46:11,918633
-8,-6,1,7,-7,-8,-8,-6,2021-08-06 13:46:11,934633
-1,-2,-6,-9,-6,-2,-2,0,2021-08-06 13:46:11,934633
-4,-5,-8,-16,-11,-6,-4,-3,2021-08-06 13:46:11,934633
0,1,7,1,-1,-1,-1,2,2021-08-06 13:46:11,934633
-1,-2,-4,0,3,0,-1,0,2021-08-06 13:46:11,934633
-1,0,7,19,-2,-4,-3,-1,2021-08-06 13:46:11,934633
1,1,4,3,10,5,2,3,2021-08-06 13:46:11,934633
0,0,-10,-20,-5,-1,0,-1,2021-08-06 13:46:11,949633
1,-3,-3,-11,10,4,3,1,2021-08-06 13:46:11,949633
-3,-6,-6,-12,-20,-14,-6,-3,2021-08-06 13:46:11,949633
5,9,19,46,27,11,6,5,2021-08-06 13:46:11,949633
2,4,4,11,12,8,2,-1,2021-08-06 13:46:11,980636
-4,-7,-19,-40,-20,-8,-5,-3,2021-08-06 13:46:11,980636
-6,-8,0,-15,-14,-11,-5,-5,2021-08-06 13:46:11,980636
-2,-3,-4,12,0,-5,-4,-3,2021-08-06 13:46:11,980636
6,8,8,13,17,10,8,6,2021-08-06 13:46:11,996634
0,0,2,-3,-3,-2,-3,-1,2021-08-06 13:46:12,012634
-1,-1,-2,1,3,0,-1,-2,2021-08-06 13:46:12,012634
-1,0,11,18,1,2,0,-1,2021-08-06 13:46:12,012634
0,-2,-6,1,0,-1,-1,-1,2021-08-06 13:46:12,012634
-2,-4,-3,-20,-18,-8,-3,-1,2021-08-06 13:46:12,012634
-1,-3,-11,-19,-8,-4,-3,-2,2021-08-06 13:46:12,012634
-1,-1,5,9,5,-3,-1,-1,2021-08-06 13:46:12,013635
2,3,3,17,9,4,2,1,2021-08-06 13:46:12,028634
-1,-1,-5,-15,-2,3,0,-2,2021-08-06 13:46:12,028634
0,0,3,10,10,5,3,0,2021-08-06 13:46:12,028634
-2,-4,-7,-5,-11,-6,-2,-3,2021-08-06 13:46:12,028634
2,2,-6,-27,-6,-3,-2,2,2021-08-06 13:46:12,059635
-2,-4,-3,-4,-12,-10,-4,-3,2021-08-06 13:46:12,059635
-6,-8,-11,-18,-15,-7,-4,-4,2021-08-06 13:46:12,059635
-2,-5,-4,5,9,6,2,-1,2021-08-06 13:46:12,059635
0,1,10,19,7,0,2,0,2021-08-06 13:46:12,059635
1,4,6,14,5,5,0,1,2021-08-06 13:46:12,059635
2,2,-4,-5,7,4,2,2,2021-08-06 13:46:12,059635
0,-2,6,-3,-3,-2,-3,-2,2021-08-06 13:46:12,060635
0,-2,-9,-3,-9,-5,-5,-2,2021-08-06 13:46:12,091146
3,4,2,4,10,5,4,3,2021-08-06 13:46:12,107144
-2,-2,6,10,-9,-5,-5,-5,2021-08-06 13:46:12,123145
-1,0,-7,-11,-9,-5,-4,-2,2021-08-06 13:46:12,155164
-4,-7,-9,-8,-13,-8,-5,-4,2021-08-06 13:46:12,171165
1,1,1,-4,6,5,4,3,2021-08-06 13:46:12,171165
2,2,3,18,25,12,5,2,2021-08-06 13:46:12,171165
6,6,7,-5,1,7,6,3,2021-08-06 13:46:12,187165
0,0,8,10,-4,-8,-5,-1,2021-08-06 13:46:12,187165
2,6,8,24,12,4,2,1,2021-08-06 13:46:12,187165
-1,-1,-3,2,-5,-2,-2,-1,2021-08-06 13:46:12,187165
-4,-4,-12,-36,-6,-3,-2,-3,2021-08-06 13:46:12,187165
-10,-14,-27,-39,-30,-17,-8,-5,2021-08-06 13:46:12,187165
0,-3,7,4,4,4,2,0,2021-08-06 13:46:12,187165
0,-1,-6,2,4,2,0,-3,2021-08-06 13:46:12,187165
0,2,13,31,10,3,-2,-1,2021-08-06 13:46:12,188166
1,2,7,11,-1,-4,-2,-2,2021-08-06 13:46:12,188166
5,4,1,0,9,8,7,4,2021-08-06 13:46:12,188166
-4,-4,-5,-9,-7,-2,-3,-3,2021-08-06 13:46:12,188166
1,0,1,3,9,3,1,0,2021-08-06 13:46:12,188166
4,4,4,16,15,8,2,2,2021-08-06 13:46:12,188166
-1,-1,0,8,2,2,-2,-2,2021-08-06 13:46:12,188166
-3,-6,-10,-34,-17,-9,-3,-2,2021-08-06 13:46:12,188166
-7,-9,-19,-18,-23,-16,-8,-6,2021-08-06 13:46:12,189166
-1,1,10,9,2,4,0,0,2021-08-06 13:46:12,210165
2,1,0,2,8,1,1,-1,2021-08-06 13:46:12,211165
1,1,3,2,1,2,1,0,2021-08-06 13:46:12,211165
-2,-5,-6,-7,2,-2,-2,-3,2021-08-06 13:46:12,211165
-2,-3,-3,-5,-7,-5,-3,-4,2021-08-06 13:46:12,235164
-2,-2,-2,2,-10,-7,-4,-4,2021-08-06 13:46:12,250166
2,5,7,9,12,6,4,2,2021-08-06 13:46:12,250166
-2,-2,-7,-8,-5,-2,-1,-2,2021-08-06 13:46:12,250166
-2,-3,1,9,10,7,3,1,2021-08-06 13:46:12,250166
-2,-1,0,-7,-10,-4,-3,-2,2021-08-06 13:46:12,250166
1,2,5,13,7,3,-1,0,2021-08-06 13:46:12,250166
5,7,9,25,6,5,4,3,2021-08-06 13:46:12,250166
1,0,-16,-43,-8,0,2,3,2021-08-06 13:46:12,266164
-10,-13,-19,-39,-25,-18,-10,-7,2021-08-06 13:46:12,266164
-2,0,4,5,2,-2,-1,0,2021-08-06 13:46:12,266164
