EMG 1,EMG 2,EMG 3,EMG 4,EMG 5,EMG 6,EMG 7,EMG 8,Timestamp,Milliseconds
-5,-7,-11,-30,-19,-10,-7,-6,2021-08-06 14:06:47,305490
1,1,1,1,3,1,2,4,2021-08-06 14:06:47,305490
-1,-3,-1,2,-6,-3,-2,-3,2021-08-06 14:06:47,305490
2,3,12,27,27,13,6,3,2021-08-06 14:06:47,305490
2,1,5,21,21,12,5,2,2021-08-06 14:06:47,305490
-1,-2,-6,-14,-6,-4,-4,-4,2021-08-06 14:06:47,305490
-6,-7,-8,-18,-15,-11,-8,-5,2021-08-06 14:06:47,305490
0,1,2,-1,-11,-5,-2,1,2021-08-06 14:06:47,305490
5,6,12,36,46,24,7,3,2021-08-06 14:06:47,337489
-3,-5,-4,-6,-18,-11,-6,-5,2021-08-06 14:06:47,337489
0,-4,-11,-32,-9,-1,1,0,2021-08-06 14:06:47,337489
-8,-9,-18,-37,-41,-25,-12,-11,2021-08-06 14:06:47,337489
4,5,9,13,6,5,5,5,2021-08-06 14:06:47,337489
6,6,14,33,23,13,5,4,2021-08-06 14:06:47,338535
2,3,11,20,4,0,0,0,2021-08-06 14:06:47,353492
-1,-1,-1,-3,-7,-6,-4,-2,2021-08-06 14:06:47,353492
-1,-3,-18,-21,-15,-4,0,-1,2021-08-06 14:06:47,353492
-7,-10,-20,-51,-7,0,-4,-7,2021-08-06 14:06:47,353492
-2,-4,4,4,-3,-4,-3,-2,2021-08-06 14:06:47,385528
-1,-1,-1,1,-4,0,0,0,2021-08-06 14:06:47,401528
1,1,14,26,11,-1,-1,-1,2021-08-06 14:06:47,417527
2,4,4,11,-10,-6,-3,0,2021-08-06 14:06:47,417527
1,1,2,16,14,10,2,1,2021-08-06 14:06:47,417527
1,2,1,-5,5,5,4,3,2021-08-06 14:06:47,417527
2,2,7,11,-3,-1,0,0,2021-08-06 14:06:47,433491
1,3,-4,0,4,6,2,0,2021-08-06 14:06:47,433491
-4,-5,-10,-20,-22,-14,-6,-4,2021-08-06 14:06:47,433491
7,9,15,35,55,29,14,7,2021-08-06 14:06:47,433491
-1,-2,1,5,0,-3,-3,-1,2021-08-06 14:06:47,449493
-1,-2,1,2,-10,-5,-3,-2,2021-08-06 14:06:47,449493
-4,-3,-6,-19,-18,-15,-9,-6,2021-08-06 14:06:47,449493
-2,-1,-2,2,-4,0,0,0,2021-08-06 14:06:47,449493
1,0,1,10,10,6,4,0,2021-08-06 14:06:47,449493
-2,-2,-4,-5,-5,-3,-2,-2,2021-08-06 14:06:47,449493
1,1,2,8,7,7,2,1,2021-08-06 14:06:47,449493
-3,-6,0,-16,-16,-8,-4,-3,2021-08-06 14:06:47,449493
0,0,-5,3,3,1,0,1,2021-08-06 14:06:47,465538
0,-1,-3,-4,0,-3,1,-1,2021-08-06 14:06:47,481534
-5,-6,-5,-19,-19,-10,-7,-5,2021-08-06 14:06:47,481534
1,1,-11,-9,16,5,0,0,2021-08-06 14:06:47,481534
-8,-9,1,-16,-30,-14,-10,-8,2021-08-06 14:06:47,481534
3,2,-3,-1,18,9,4,3,2021-08-06 14:06:47,481534
0,2,6,26,16,6,3,0,2021-08-06 14:06:47,513538
-3,-2,5,9,-9,-8,-6,-5,2021-08-06 14:06:47,515494
4,4,-5,-6,16,11,6,4,2021-08-06 14:06:47,515494
-6,-4,0,-7,-13,-12,-7,-4,2021-08-06 14:06:47,515494
5,4,11,19,16,12,7,5,2021-08-06 14:06:47,529494
1,2,-6,-5,-1,1,0,0,2021-08-06 14:06:47,529494
-3,-3,-4,-2,-11,-10,-6,-2,2021-08-06 14:06:47,529494
-3,-3,2,-5,-16,-9,-4,-3,2021-08-06 14:06:47,529494
4,4,8,20,25,17,9,3,2021-08-06 14:06:47,544530
0,0,-7,4,12,8,4,1,2021-08-06 14:06:47,560489
-6,-8,-23,-60,-23,-8,-5,-6,2021-08-06 14:06:47,576530
-8,-8,-6,-9,-22,-17,-11,-6,2021-08-06 14:06:47,592491
-2,-3,1,3,-11,-7,-4,-1,2021-08-06 14:06:47,592491
2,3,6,14,12,5,2,0,2021-08-06 14:06:47,592491
2,6,4,24,27,12,5,2,2021-08-06 14:06:47,592491
2,3,2,9,11,7,3,2,2021-08-06 14:06:47,592491
-3,-2,0,-7,-17,-12,-6,-4,2021-08-06 14:06:47,592491
-1,0,3,-3,-17,-8,-2,-1,2021-08-06 14:06:47,592491
-2,0,0,-3,3,3,1,0,2021-08-06 14:06:47,592491
2,0,3,9,17,12,5,0,2021-08-06 14:06:47,593493
-4,-3,-13,-16,-12,-7,-3,-2,2021-08-06 14:06:47,608491
-4,-5,-1,1,-17,-10,-6,-4,2021-08-06 14:06:47,608491
3,1,-4,-7,7,3,2,3,2021-08-06 14:06:47,608491
-2,-2,-3,-6,6,4,3,-2,2021-08-06 14:06:47,608491
-2,-2,-1,3,2,-3,-3,-3,2021-08-06 14:06:47,640493
-3,-3,-1,-12,-22,-14,-8,-4,2021-08-06 14:06:47,640493
2,5,15,28,3,2,2,2,2021-08-06 14:06:47,640493
1,2,1,13,12,8,0,3,2021-08-06 14:06:47,640493
-3,-2,-12,-14,-1,0,-2,-2,2021-08-06 14:06:47,640493
-6,-9,-19,-39,-30,-16,-8,-6,2021-08-06 14:06:47,640493
-1,-4,-1,-4,2,-3,-2,-1,2021-08-06 14:06:47,640493
3,2,8,11,4,5,5,2,2021-08-06 14:06:47,641493
1,3,11,33,42,22,7,0,2021-08-06 14:06:47,671529
-2,-3,-2,-2,-15,-10,-5,-3,2021-08-06 14:06:47,671529
4,8,8,15,12,10,5,4,2021-08-06 14:06:47,671529
-4,-6,-10,-16,-11,-9,-6,-3,2021-08-06 14:06:47,671529
0,-2,-3,-2,-3,1,-1,2,2021-08-06 14:06:47,702491
-1,1,5,0,2,-1,-1,-2,2021-08-06 14:06:47,718490
-2,-4,-1,3,-5,-5,-3,-4,2021-08-06 14:06:47,734490
-1,-1,-7,-15,-17,-8,-3,0,2021-08-06 14:06:47,734490
-2,-4,-5,-15,-7,-4,-2,-1,2021-08-06 14:06:47,734490
-2,-4,0,4,3,2,1,-1,2021-08-06 14:06:47,734490
-2,-2,-3,6,-4,-3,-5,-3,2021-08-06 14:06:47,734490
0,2,6,15,13,6,0,0,2021-08-06 14:06:47,749490
-1,-2,-5,2,-4,-4,-2,0,2021-08-06 14:06:47,765490
0,-1,-9,-18,-15,-5,-2,0,2021-08-06 14:06:47,765490
-2,-3,-14,-43,-13,-3,1,-2,2021-08-06 14:06:47,765490
-7,-7,-1,1,1,-5,-6,-5,2021-08-06 14:06:47,765490
1,0,4,-6,-6,-2,1,-2,2021-08-06 14:06:47,781490
5,8,14,43,45,21,10,8,2021-08-06 14:06:47,781490
1,3,9,22,5,2,3,1,2021-08-06 14:06:47,781490
3,5,1,-1,7,7,4,3,2021-08-06 14:06:47,781490
-1,0,-1,4,2,-1,0,-2,2021-08-06 14:06:47,781490
-4,-7,-9,-16,-16,-11,-7,-5,2021-08-06 14:06:47,781490
-9,-11,-10,-31,-31,-21,-12,-9,2021-08-06 14:06:47,782491
7,8,14,25,28,18,11,7,2021-08-06 14:06:47,782491
1,1,5,7,4,2,2,1,2021-08-06 14:06:47,782491
3,3,4,15,6,2,2,3,2021-08-06 14:06:47,782491
-2,-3,-1,3,3,1,-2,-2,2021-08-06 14:06:47,782491
-6,-8,-14,-39,-34,-16,-8,-6,2021-08-06 14:06:47,782491
-5,-6,-9,-12,-14,-11,-7,-5,2021-08-06 14:06:47,813490
1,-1,-7,-25,-6,1,3,1,2021-08-06 14:06:47,829526
4,4,21,51,38,17,7,3,2021-08-06 14:06:47,845532
3,5,7,24,7,1,1,2,2021-08-06 14:06:47,845532
3,1,-5,-5,15,12,5,3,2021-08-06 14:06:47,845532
-13,-14,-20,-45,-46,-27,-19,-12,2021-08-06 14:06:47,845532
2,1,1,2,-5,-4,-2,2,2021-08-06 14:06:47,845532
2,1,6,5,-4,-2,-1,-1,2021-08-06 14:06:47,845532
1,2,3,6,7,3,3,1,2021-08-06 14:06:47,845532
1,-2,-4,4,13,7,2,1,2021-08-06 14:06:47,845532
-4,-4,-12,-20,-13,-4,-2,-1,2021-08-06 14:06:47,845532
-3,-1,2,2,-4,-6,-4,-2,2021-08-06 14:06:47,845532
-5,-5,-7,-14,-26,-16,-8,-3,2021-08-06 14:06:47,877490
8,8,17,31,41,25,13,9,2021-08-06 14:06:47,877490
-5,-3,-3,-4,-13,-10,-5,-5,2021-08-06 14:06:47,877490
-1,-2,-6,-7,-5,-2,-1,1,2021-08-06 14:06:47,877490
1,1,7,18,27,15,6,2,2021-08-06 14:06:47,877490
-3,-3,-1,2,-2,-2,-2,-2,2021-08-06 14:06:47,877490
1,2,-1,-4,-8,-6,-3,-1,2021-08-06 14:06:47,893490
-3,-2,-5,-9,-16,-12,-6,-2,2021-08-06 14:06:47,893490
-1,1,-1,-9,-10,-2,-2,-1,2021-08-06 14:06:47,909489
2,4,9,26,28,16,9,3,2021-08-06 14:06:47,924491
-2,-5,-15,-17,-15,-8,-5,-3,2021-08-06 14:06:47,927491
-9,-14,-23,-54,-29,-20,-13,-10,2021-08-06 14:06:47,927491
0,1,6,3,-7,3,3,4,2021-08-06 14:06:47,927491
2,1,5,7,5,2,0,1,2021-08-06 14:06:47,928490
4,3,15,32,16,6,3,2,2021-08-06 14:06:47,928490
-1,0,4,26,3,4,2,0,2021-08-06 14:06:47,928490
-4,-4,-19,-29,1,2,0,-4,2021-08-06 14:06:47,956490
-5,-4,0,-6,-8,-9,-6,-6,2021-08-06 14:06:47,972490
8,14,27,40,31,18,9,5,2021-08-06 14:06:47,988493
5,4,-9,-11,4,6,3,4,2021-08-06 14:06:48,004493
-7,-15,-29,-60,-37,-19,-9,-8,2021-08-06 14:06:48,004493
-9,-14,-17,-29,-41,-29,-12,-10,2021-08-06 14:06:48,004493
-5,-5,-2,-14,-6,-6,-6,-4,2021-08-06 14:06:48,004493
3,6,23,61,41,18,9,5,2021-08-06 14:06:48,004493
11,15,22,41,17,9,8,8,2021-08-06 14:06:48,020494
2,3,-5,-7,12,10,5,4,2021-08-06 14:06:48,036490
-9,-11,-10,-30,-20,-11,-7,-5,2021-08-06 14:06:48,052539
-1,1,1,-2,-9,-5,-1,-1,2021-08-06 14:06:48,052539
1,1,2,9,-1,-4,-2,0,2021-08-06 14:06:48,052539
-1,0,-3,-1,-6,-4,-5,-2,2021-08-06 14:06:48,052539
-4,-4,-10,-14,-10,-3,-3,-4,2021-08-06 14:06:48,052539
2,0,-2,-22,-2,2,2,3,2021-08-06 14:06:48,052539
-2,-1,13,26,20,3,-2,-3,2021-08-06 14:06:48,052539
1,2,4,12,11,4,1,0,2021-08-06 14:06:48,052539
1,-2,-5,-5,-5,-1,2,3,2021-08-06 14:06:48,053528
-4,-4,-5,9,18,11,2,-1,2021-08-06 14:06:48,053528
0,-1,2,-16,-13,-6,-4,1,2021-08-06 14:06:48,053528
-1,0,1,0,-16,-9,-4,-3,2021-08-06 14:06:48,053528
-4,-4,-13,-30,-29,-18,-8,-4,2021-08-06 14:06:48,053528
4,6,20,44,41,23,12,5,2021-08-06 14:06:48,053528
-1,1,-2,11,5,2,-1,-1,2021-08-06 14:06:48,068532
0,-3,-8,-22,-4,1,-1,-1,2021-08-06 14:06:48,068532
-7,-7,-10,-18,-31,-21,-12,-7,2021-08-06 14:06:48,068532
3,1,1,0,-2,1,4,2,2021-08-06 14:06:48,068532
3,6,7,10,10,6,2,0,2021-08-06 14:06:48,099528
-2,-3,-2,-3,-2,-3,-3,-2,2021-08-06 14:06:48,115490
1,0,1,11,7,7,3,0,2021-08-06 14:06:48,131493
-6,-9,-14,-33,-33,-23,-10,-3,2021-08-06 14:06:48,131493
0,1,9,27,30,17,6,2,2021-08-06 14:06:48,131493
2,3,6,10,5,3,4,2,2021-08-06 14:06:48,146491
-2,-2,-2,5,11,8,2,-2,2021-08-06 14:06:48,161530
-7,-7,-12,-14,-17,-13,-10,-8,2021-08-06 14:06:48,161530
-2,-4,-6,-35,-38,-21,-7,-5,2021-08-06 14:06:48,161530
4,6,10,26,19,12,6,4,2021-08-06 14:06:48,161530
-1,-2,-1,-6,8,4,1,0,2021-08-06 14:06:48,161530
-5,-3,2,1,-12,-7,-5,-6,2021-08-06 14:06:48,177493
3,3,-4,4,15,5,3,3,2021-08-06 14:06:48,192491
-5,-7,-21,-38,-18,-8,-4,-4,2021-08-06 14:06:48,192491
1,1,2,14,21,9,3,0,2021-08-06 14:06:48,192491
6,8,19,26,18,7,3,3,2021-08-06 14:06:48,192491
-5,-4,3,12,-13,-12,-7,-6,2021-08-06 14:06:48,192491
-3,-1,-2,-4,-20,-7,-4,-1,2021-08-06 14:06:48,193491
-2,-2,-12,-34,0,3,2,1,2021-08-06 14:06:48,193491
-5,-6,-13,-18,-16,-10,-6,-6,2021-08-06 14:06:48,193491
2,0,6,23,27,12,4,2,2021-08-06 14:06:48,193491
5,6,10,25,6,2,1,3,2021-08-06 14:06:48,193491
-2,-1,2,-12,-13,-5,-2,0,2021-08-06 14:06:48,193491
-8,-6,0,-13,-14,-11,-8,-8,2021-08-06 14:06:48,193491
-1,-4,-14,-3,-10,-7,-1,0,2021-08-06 14:06:48,207491
4,6,4,-6,7,7,6,4,2021-08-06 14:06:48,207491
3,4,12,28,20,12,4,3,2021-08-06 14:06:48,207491
0,1,-7,-6,2,1,0,0,2021-08-06 14:06:48,207491
-12,-13,-23,-52,-37,-23,-15,-11,2021-08-06 14:06:48,239542
1,0,6,16,17,10,5,3,2021-08-06 14:06:48,239542
9,10,13,24,15,10,7,7,2021-08-06 14:06:48,239542
-1,-1,0,0,-12,-13,-7,-4,2021-08-06 14:06:48,239542
-1,-1,6,19,2,7,5,2,2021-08-06 14:06:48,255529
-4,-1,1,4,-1,-3,-6,-5,2021-08-06 14:06:48,255529
0,-1,-3,4,4,2,1,-1,2021-08-06 14:06:48,255529
-3,-7,-17,-38,-22,-6,-3,-3,2021-08-06 14:06:48,255529
-3,-2,-2,-20,-18,-11,-5,-5,2021-08-06 14:06:48,271493
2,1,5,12,14,5,0,0,2021-08-06 14:06:48,271493
3,1,-2,8,8,5,5,2,2021-08-06 14:06:48,287518
-5,-11,-6,-16,-7,-5,-5,-6,2021-08-06 14:06:48,303529
1,0,-6,-6,-5,-5,-3,0,2021-08-06 14:06:48,303529
0,1,9,27,16,10,2,1,2021-08-06 14:06:48,303529
2,2,6,19,0,-2,-1,2,2021-08-06 14:06:48,303529
2,3,-6,-21,-9,-1,2,2,2021-08-06 14:06:48,303529
-11,-11,-13,-35,-12,-9,-9,-9,2021-08-06 14:06:48,319493
4,6,11,17,11,6,4,5,2021-08-06 14:06:48,319493
-6,-7,-6,-11,-30,-22,-11,-7,2021-08-06 14:06:48,319493
5,6,9,34,46,26,12,6,2021-08-06 14:06:48,319493
1,0,1,-3,-5,1,3,2,2021-08-06 14:06:48,319493
-5,-3,-6,-10,-15,-12,-7,-4,2021-08-06 14:06:48,319493
1,1,0,4,4,4,2,0,2021-08-06 14:06:48,335529
-3,-4,-4,-22,-11,-2,-1,-2,2021-08-06 14:06:48,335529
-3,-4,-4,4,-2,-3,-3,-2,2021-08-06 14:06:48,351540
-3,-8,-10,-21,-20,-14,-8,-5,2021-08-06 14:06:48,367529
3,5,12,25,19,9,4,3,2021-08-06 14:06:48,367529
2,3,3,19,-2,-4,-1,0,2021-08-06 14:06:48,367529
-2,-3,-9,-24,-11,-4,-3,-2,2021-08-06 14:06:48,367529
0,-1,2,-8,5,6,3,0,2021-08-06 14:06:48,367529
-6,-8,-15,-12,-8,-7,-6,-4,2021-08-06 14:06:48,367529
0,-1,-1,-9,1,0,0,0,2021-08-06 14:06:48,367529
-2,0,6,21,0,-3,-4,-2,2021-08-06 14:06:48,398534
5,5,13,21,22,14,8,5,2021-08-06 14:06:48,398534
-1,1,-6,-15,3,3,1,0,2021-08-06 14:06:48,398534
2,3,0,6,1,1,1,1,2021-08-06 14:06:48,398534
2,4,5,8,19,11,6,3,2021-08-06 14:06:48,414535
-8,-11,-24,-38,-38,-21,-12,-9,2021-08-06 14:06:48,414535
-3,-3,-5,0,5,3,0,-1,2021-08-06 14:06:48,430527
0,1,10,10,6,0,1,1,2021-08-06 14:06:48,430527
1,-1,6,8,-8,-3,0,-1,2021-08-06 14:06:48,430527
0,1,4,16,9,4,1,-1,2021-08-06 14:06:48,430527
-2,1,-1,-10,-6,-5,-4,-4,2021-08-06 14:06:48,430527
2,4,5,9,12,7,4,1,2021-08-06 14:06:48,430527
1,3,7,23,18,8,1,2,2021-08-06 14:06:48,462532
-5,-6,-15,-39,-23,-12,-4,-3,2021-08-06 14:06:48,478539
-2,-4,-8,-6,-3,-1,-2,-1,2021-08-06 14:06:48,510490
1,-1,1,3,8,3,1,0,2021-08-06 14:06:48,510490
2,4,9,11,3,1,-1,-1,2021-08-06 14:06:48,510490
1,2,7,15,4,2,1,0,2021-08-06 14:06:48,510490
-3,-3,-3,-3,-11,-7,-3,-2,2021-08-06 14:06:48,510490
3,5,4,8,1,4,3,1,2021-08-06 14:06:48,510490
-1,-5,-9,-11,8,7,2,1,2021-08-06 14:06:48,510490
-6,-10,-19,-33,-27,-17,-10,-8,2021-08-06 14:06:48,511529
1,-1,1,-9,-4,1,1,2,2021-08-06 14:06:48,511529
-5,-6,-7,0,9,2,-1,-3,2021-08-06 14:06:48,511529
5,8,15,26,15,4,4,3,2021-08-06 14:06:48,511529
-1,-1,0,7,1,-2,-2,-3,2021-08-06 14:06:48,511529
0,2,0,-5,-14,-8,-4,-2,2021-08-06 14:06:48,511529
-2,1,10,19,-4,-6,-2,-1,2021-08-06 14:06:48,511529
6,6,7,22,16,12,8,7,2021-08-06 14:06:48,541533
-5,-5,-16,-19,-16,-10,-7,-2,2021-08-06 14:06:48,557527
-9,-14,-28,-85,-22,-6,-6,-7,2021-08-06 14:06:48,572528
-3,-3,-9,-14,-14,-10,-6,-5,2021-08-06 14:06:48,572528
4,6,4,6,4,4,3,4,2021-08-06 14:06:48,572528
5,8,30,73,35,14,6,4,2021-08-06 14:06:48,572528
8,7,15,39,10,3,2,2,2021-08-06 14:06:48,572528
0,-2,-19,-46,-15,-4,0,-1,2021-08-06 14:06:48,573491
-8,-11,-9,-36,-23,-14,-9,-8,2021-08-06 14:06:48,573491
-6,-6,-15,-13,-20,-12,-6,-4,2021-08-06 14:06:48,573491
1,1,9,21,20,9,3,3,2021-08-06 14:06:48,573491
5,5,15,43,33,18,8,5,2021-08-06 14:06:48,573491
0,-2,-7,-26,-20,-8,-4,-2,2021-08-06 14:06:48,588540
2,0,-5,-29,0,6,5,1,2021-08-06 14:06:48,604527
-1,0,5,23,12,6,3,1,2021-08-06 14:06:48,620492
-1,0,3,11,-6,-3,-3,-2,2021-08-06 14:06:48,620492
1,3,3,17,14,6,4,3,2021-08-06 14:06:48,620492
-6,-7,-6,-24,-28,-16,-9,-5,2021-08-06 14:06:48,620492
2,4,-1,0,5,1,3,2,2021-08-06 14:06:48,620492
-3,-3,-5,-21,-8,-4,-2,-2,2021-08-06 14:06:48,620492
-2,-4,3,2,-3,-6,-5,-4,2021-08-06 14:06:48,636492
5,8,21,37,14,4,4,3,2021-08-06 14:06:48,636492
1,1,-8,9,-1,1,1,2,2021-08-06 14:06:48,636492
-12,-18,-39,-90,-34,-16,-11,-10,2021-08-06 14:06:48,636492
-8,-9,-13,-16,-5,-5,-5,-5,2021-08-06 14:06:48,652539
3,4,8,13,17,9,4,2,2021-08-06 14:06:48,652539
2,2,20,41,14,5,2,1,2021-08-06 14:06:48,652539
7,9,12,31,12,7,5,4,2021-08-06 14:06:48,652539
4,5,2,-4,-3,-1,3,2,2021-08-06 14:06:48,683493
-6,-7,-3,-18,-17,-11,-6,-6,2021-08-06 14:06:48,683493
-4,-5,-13,-17,-18,-11,-6,-4,2021-08-06 14:06:48,683493
-3,-3,2,15,11,6,1,-2,2021-08-06 14:06:48,683493
0,4,14,26,15,6,1,0,2021-08-06 14:06:48,698528
-2,-1,-2,9,5,2,-1,-1,2021-08-06 14:06:48,698528
2,4,-6,-36,-15,-4,0,1,2021-08-06 14:06:48,698528
-7,-7,-7,-13,-14,-11,-7,-5,2021-08-06 14:06:48,698528
-3,-3,-4,-10,-7,-2,-2,-3,2021-08-06 14:06:48,724492
-2,-5,-4,-8,-3,-3,-3,-3,2021-08-06 14:06:48,724492
-2,0,6,10,6,0,-1,-3,2021-08-06 14:06:48,724492
11,9,12,35,30,17,10,9,2021-08-06 14:06:48,724492
3,2,4,9,2,3,2,2,2021-08-06 14:06:48,744529
-2,-3,-4,-6,-9,-8,-3,-3,2021-08-06 14:06:48,744529
-4,-2,-2,7,8,3,-1,-3,2021-08-06 14:06:48,744529
-3,-4,-7,-24,-15,-8,-5,-3,2021-08-06 14:06:48,744529
-6,-6,-4,-15,-12,-8,-7,-4,2021-08-06 14:06:48,760511
5,7,16,1,9,6,5,4,2021-08-06 14:06:48,776527
1,-2,-8,15,4,2,1,1,2021-08-06 14:06:48,776527
-4,-10,-10,9,-1,-1,-3,-3,2021-08-06 14:06:48,792536
2,-3,-20,-12,-4,0,-1,0,2021-08-06 14:06:48,792536
1,1,-11,-6,1,1,1,3,2021-08-06 14:06:48,792536
-7,-3,12,-10,-17,-13,-5,-6,2021-08-06 14:06:48,792536
-6,-3,3,-14,-35,-22,-12,-7,2021-08-06 14:06:48,792536
6,10,21,41,46,32,17,10,2021-08-06 14:06:48,792536
5,4,2,10,26,14,4,3,2021-08-06 14:06:48,793492
-1,-1,-5,-9,4,7,1,0,2021-08-06 14:06:48,808493
-5,-3,-7,-18,-14,-10,-4,-4,2021-08-06 14:06:48,808493
-8,-8,-6,-17,-34,-23,-11,-8,2021-08-06 14:06:48,808493
2,3,5,9,14,9,5,4,2021-08-06 14:06:48,808493
-2,-3,-2,1,-11,-7,-4,-3,2021-08-06 14:06:48,824530
-1,-2,-1,-5,-10,-6,-5,-3,2021-08-06 14:06:48,840540
2,3,4,15,29,14,6,3,2021-08-06 14:06:48,840540
-1,-6,-13,-8,-10,-2,-3,-4,2021-08-06 14:06:48,840540
0,3,-2,-18,-2,-1,0,2,2021-08-06 14:06:48,840540
-2,0,-1,1,10,5,1,0,2021-08-06 14:06:48,840540
-5,-4,-6,-9,-15,-11,-6,-4,2021-08-06 14:06:48,856490
-4,-4,1,-1,-5,-4,-1,-3,2021-08-06 14:06:48,872530
0,0,6,2,-9,-5,-4,-2,2021-08-06 14:06:48,888525
6,8,5,28,30,18,9,5,2021-08-06 14:06:48,888525
-1,-1,-1,-4,-2,-2,-2,-3,2021-08-06 14:06:48,888525
-3,-2,-5,-1,0,-1,-2,-3,2021-08-06 14:06:48,888525
0,-2,-1,-6,-10,-9,-3,-2,2021-08-06 14:06:48,888525
-2,-1,0,-6,-10,-8,-4,-1,2021-08-06 14:06:48,888525
-2,-3,-7,-17,-26,-10,-4,-2,2021-08-06 14:06:48,903543
4,5,9,24,41,19,7,3,2021-08-06 14:06:48,919527
-1,-1,-2,-1,7,3,0,0,2021-08-06 14:06:48,919527
-7,-7,-5,-5,-15,-12,-7,-6,2021-08-06 14:06:48,919527
1,0,-4,-9,-13,-7,-2,-1,2021-08-06 14:06:48,919527
2,2,0,-12,-11,-3,0,2,2021-08-06 14:06:48,919527
-1,-1,2,3,7,2,1,0,2021-08-06 14:06:48,919527
2,3,2,7,9,2,2,2,2021-08-06 14:06:48,919527
-2,-2,-3,-1,-6,-1,-3,-1,2021-08-06 14:06:48,934880
-3,-4,-5,-7,1,0,0,-1,2021-08-06 14:06:48,950440
0,1,0,1,4,3,0,-1,2021-08-06 14:06:48,966474
0,1,2,7,1,1,0,-1,2021-08-06 14:06:48,966474
0,-3,-4,-8,-5,-3,-2,-1,2021-08-06 14:06:48,966474
-1,-4,-4,-6,-8,-5,-2,-3,2021-08-06 14:06:48,966474
-8,-7,-9,-16,-25,-12,-8,-6,2021-08-06 14:06:48,966474
8,9,13,26,33,19,11,7,2021-08-06 14:06:48,966474
0,0,-2,-2,4,0,0,-2,2021-08-06 14:06:48,966474
-3,-3,-4,-5,-7,-5,-3,-2,2021-08-06 14:06:48,966474
1,-3,-4,-1,-1,-2,-1,-1,2021-08-06 14:06:48,982477
-1,0,3,2,-1,0,0,0,2021-08-06 14:06:48,998477
3,2,1,1,-4,-3,1,0,2021-08-06 14:06:49,014486
-3,-3,-5,-7,5,2,-2,-3,2021-08-06 14:06:49,030473
1,3,3,8,12,5,2,2,2021-08-06 14:06:49,046477
-6,-5,-7,-11,-19,-11,-5,-4,2021-08-06 14:06:49,046477
0,2,4,13,22,9,3,1,2021-08-06 14:06:49,046477
5,6,4,1,1,1,4,6,2021-08-06 14:06:49,046477
0,0,-2,-1,1,3,0,-1,2021-08-06 14:06:49,046477
2,3,1,4,2,1,0,1,2021-08-06 14:06:49,046477
-5,-8,-7,-9,-12,-11,-7,-4,2021-08-06 14:06:49,046477
-2,-2,-2,-5,-7,-4,-4,-3,2021-08-06 14:06:49,046477
0,-2,-2,-1,0,-2,1,0,2021-08-06 14:06:49,046477
0,0,2,-6,-7,-3,0,-2,2021-08-06 14:06:49,046477
0,3,2,8,12,6,5,2,2021-08-06 14:06:49,062487
-3,-6,-6,-8,-13,-6,-4,-5,2021-08-06 14:06:49,078486
0,0,3,13,16,8,2,0,2021-08-06 14:06:49,078486
0,-2,0,-6,-10,-7,-3,-2,2021-08-06 14:06:49,078486
-2,-5,-6,-10,-7,-6,-1,-1,2021-08-06 14:06:49,078486
5,8,8,13,15,10,6,2,2021-08-06 14:06:49,078486
-1,-5,-2,1,1,1,-3,-2,2021-08-06 14:06:49,078486
-1,1,-3,-4,-6,-4,0,2,2021-08-06 14:06:49,078486
-2,-2,2,1,4,2,-2,-1,2021-08-06 14:06:49,094444
-3,-2,-2,-7,-15,-11,-5,-2,2021-08-06 14:06:49,094444
-3,-1,-2,-6,-6,-2,-1,-3,2021-08-06 14:06:49,094444
-1,-3,-3,3,6,4,-1,-2,2021-08-06 14:06:49,094444
1,5,6,10,14,10,6,5,2021-08-06 14:06:49,109438
-7,-8,-7,-11,-20,-13,-7,-4,2021-08-06 14:06:49,109438
3,2,4,7,13,6,3,3,2021-08-06 14:06:49,109438
-2,-3,-3,2,0,0,-2,-1,2021-08-06 14:06:49,109438
-8,-7,-9,-18,-22,-11,-8,-6,2021-08-06 14:06:49,142477
4,4,6,18,27,14,6,3,2021-08-06 14:06:49,142477
3,6,2,0,-2,-2,1,3,2021-08-06 14:06:49,158441
-6,-7,-7,-13,-21,-11,-7,-6,2021-08-06 14:06:49,158441
8,6,10,23,38,16,10,8,2021-08-06 14:06:49,158441
-4,-4,-2,-1,-3,3,1,-2,2021-08-06 14:06:49,158441
-1,-3,-1,-1,5,1,1,0,2021-08-06 14:06:49,158441
-4,-1,0,-2,-3,-5,-5,-4,2021-08-06 14:06:49,158441
-1,-2,-3,-8,-12,-4,0,1,2021-08-06 14:06:49,174487
3,0,-2,-12,-14,-8,-1,1,2021-08-06 14:06:49,174487
-4,-5,-5,-2,-5,-3,-2,-2,2021-08-06 14:06:49,174487
-1,0,-2,-5,-3,0,-1,-1,2021-08-06 14:06:49,174487
0,2,3,8,11,6,0,-1,2021-08-06 14:06:49,206476
-2,-1,2,2,3,-1,-1,-1,2021-08-06 14:06:49,206476
-3,-4,-5,-6,-11,-5,-4,-3,2021-08-06 14:06:49,206476
0,-2,1,0,0,0,0,0,2021-08-06 14:06:49,206476
1,-2,-3,-5,-9,-4,-3,-1,2021-08-06 14:06:49,206476
-3,-2,-6,-12,-13,-8,-4,-4,2021-08-06 14:06:49,206476
-2,-1,-1,1,2,-3,-1,-3,2021-08-06 14:06:49,222474
1,0,5,16,20,15,7,2,2021-08-06 14:06:49,222474
1,2,2,-3,-8,-5,-1,-1,2021-08-06 14:06:49,238487
-3,-2,-5,-7,-12,-8,-6,-5,2021-08-06 14:06:49,254476
2,1,0,-3,-4,-2,-1,1,2021-08-06 14:06:49,254476
-2,-1,-1,-4,-6,-6,-2,-2,2021-08-06 14:06:49,254476
-1,-5,-8,-16,-19,-8,-5,-3,2021-08-06 14:06:49,254476
-3,-3,1,7,5,6,2,0,2021-08-06 14:06:49,254476
0,3,5,7,14,5,1,-1,2021-08-06 14:06:49,270494
-1,-2,-3,1,0,-1,-2,-2,2021-08-06 14:06:49,286439
3,3,0,-4,-6,-1,-2,1,2021-08-06 14:06:49,301473
-3,-4,-4,-2,-6,-5,-6,-3,2021-08-06 14:06:49,301473
-4,-3,-2,-2,-5,0,0,-1,2021-08-06 14:06:49,301473
3,6,6,7,9,5,2,2,2021-08-06 14:06:49,301473
-6,-5,-5,-7,-14,-11,-6,-5,2021-08-06 14:06:49,301473
1,0,2,-8,1,1,1,0,2021-08-06 14:06:49,301473
0,-1,-5,-4,-3,1,-1,0,2021-08-06 14:06:49,301473
-1,-3,-7,-5,-1,-1,-2,-3,2021-08-06 14:06:49,301473
0,1,7,15,6,3,1,1,2021-08-06 14:06:49,317474
2,9,21,24,13,6,3,3,2021-08-06 14:06:49,317474
-4,-4,-10,-6,-11,-6,-3,-3,2021-08-06 14:06:49,333439
-4,-6,-20,-33,-17,-7,0,-2,2021-08-06 14:06:49,333439
-5,-10,-14,-20,2,-1,-3,-5,2021-08-06 14:06:49,333439
-4,-7,-14,-13,-19,-13,-6,-5,2021-08-06 14:06:49,333439
2,4,17,21,18,8,3,1,2021-08-06 14:06:49,333439
5,8,18,28,15,8,6,3,2021-08-06 14:06:49,333439
0,0,-4,5,1,2,-1,-1,2021-08-06 14:06:49,364487
-2,-3,-3,-1,0,-1,-1,-2,2021-08-06 14:06:49,380474
0,0,-1,-10,-18,-11,-4,-1,2021-08-06 14:06:49,396474
1,3,4,15,22,11,5,2,2021-08-06 14:06:49,396474
0,0,3,1,3,1,1,0,2021-08-06 14:06:49,396474
-2,-4,-9,-11,-13,-8,-3,-4,2021-08-06 14:06:49,396474
-5,-6,-12,-27,-36,-21,-9,-5,2021-08-06 14:06:49,396474
3,3,11,25,42,20,8,2,2021-08-06 14:06:49,396474
3,4,5,9,9,8,2,3,2021-08-06 14:06:49,397475
2,5,6,19,18,10,3,2,2021-08-06 14:06:49,397475
0,0,5,7,-1,-1,-2,-2,2021-08-06 14:06:49,397475
-1,-6,-20,-35,-30,-14,-8,-1,2021-08-06 14:06:49,397475
-9,-11,-15,-33,-32,-19,-8,-8,2021-08-06 14:06:49,428492
-2,-7,-9,-4,6,2,3,1,2021-08-06 14:06:49,444483
2,3,1,5,8,4,1,2,2021-08-06 14:06:49,460493
1,2,9,15,-1,0,0,1,2021-08-06 14:06:49,460493
1,3,2,6,3,3,1,0,2021-08-06 14:06:49,460493
0,3,7,-4,-2,2,1,-1,2021-08-06 14:06:49,460493
-2,0,3,12,14,8,1,-1,2021-08-06 14:06:49,461262
-3,-2,-4,0,-6,-3,-3,-2,2021-08-06 14:06:49,461262
-1,0,0,-1,-6,-5,-4,-2,2021-08-06 14:06:49,461439
2,1,-1,-2,-8,-5,-1,0,2021-08-06 14:06:49,461439
-1,-5,-10,-16,-14,-4,0,1,2021-08-06 14:06:49,461439
0,1,0,0,9,4,0,-1,2021-08-06 14:06:49,461439
2,1,5,16,22,8,1,0,2021-08-06 14:06:49,475644
-1,-2,0,3,6,2,0,-1,2021-08-06 14:06:49,476647
-1,-1,-4,-3,1,-1,-1,-2,2021-08-06 14:06:49,476647
-4,-2,-2,-14,-25,-15,-7,-3,2021-08-06 14:06:49,476647
-3,-4,-2,-6,-12,-9,-3,-3,2021-08-06 14:06:49,507645
0,0,-2,4,13,7,3,2,2021-08-06 14:06:49,507645
1,-1,0,0,4,2,0,-1,2021-08-06 14:06:49,507645
-4,-4,-2,-9,-16,-9,-4,-4,2021-08-06 14:06:49,507645
6,6,5,18,22,14,8,5,2021-08-06 14:06:49,507645
-1,-1,-1,-4,-4,-3,-1,0,2021-08-06 14:06:49,507645
-1,-1,-2,-4,-4,-2,-1,-1,2021-08-06 14:06:49,523649
-2,-4,-3,1,-3,-2,-2,-3,2021-08-06 14:06:49,523649
-7,-7,-9,-20,-30,-18,-10,-4,2021-08-06 14:06:49,539595
5,6,6,14,26,18,9,5,2021-08-06 14:06:49,539595
1,0,3,8,8,4,1,0,2021-08-06 14:06:49,539595
0,-2,-2,-1,-2,0,0,0,2021-08-06 14:06:49,539595
0,-1,0,-1,3,2,-1,-1,2021-08-06 14:06:49,555631
-8,-9,-8,-14,-24,-18,-10,-5,2021-08-06 14:06:49,571632
-2,-1,-2,-5,-6,-2,0,0,2021-08-06 14:06:49,571632
4,4,7,15,24,11,5,3,2021-08-06 14:06:49,571632
0,-2,0,0,-2,2,-2,-3,2021-08-06 14:06:49,571632
2,2,0,-2,-7,0,2,2,2021-08-06 14:06:49,571632
-5,-5,-5,-3,0,-5,-6,-6,2021-08-06 14:06:49,587596
1,0,0,-10,-14,-4,-1,1,2021-08-06 14:06:49,603631
4,8,5,14,17,7,2,0,2021-08-06 14:06:49,603631
-3,-5,-5,-11,-16,-11,-7,-4,2021-08-06 14:06:49,603631
-6,-5,-1,-2,0,-4,-3,-1,2021-08-06 14:06:49,619596
2,3,2,7,13,10,5,3,2021-08-06 14:06:49,619596
-1,-1,1,1,2,0,0,-2,2021-08-06 14:06:49,619596
-2,-2,-4,-11,-12,-6,-5,-3,2021-08-06 14:06:49,619596
2,3,4,6,6,2,2,2,2021-08-06 14:06:49,620631
-2,-3,-4,-8,-8,-6,-5,-3,2021-08-06 14:06:49,620631
-2,-2,0,2,-2,0,1,1,2021-08-06 14:06:49,635631
-2,-3,-2,0,5,0,-1,-2,2021-08-06 14:06:49,635631
-4,-3,-3,-1,-5,-1,-1,-4,2021-08-06 14:06:49,635631
0,0,0,-1,-4,-2,-2,0,2021-08-06 14:06:49,635631
2,1,-1,-2,1,0,2,1,2021-08-06 14:06:49,667630
-4,-2,-5,-6,-8,-7,-3,-3,2021-08-06 14:06:49,683631
3,1,0,-4,-4,-3,-1,0,2021-08-06 14:06:49,698737
0,0,0,3,9,5,1,-1,2021-08-06 14:06:49,698737
0,-2,-3,-1,-1,0,0,2,2021-08-06 14:06:49,698737
1,-2,1,1,2,2,0,0,2021-08-06 14:06:49,698737
3,4,3,1,3,2,3,1,2021-08-06 14:06:49,698737
-1,-3,-4,-5,-13,-8,-3,-3,2021-08-06 14:06:49,698737
-4,-4,-4,-4,-6,-5,-3,-3,2021-08-06 14:06:49,699737
-2,-2,-3,0,3,1,-1,-2,2021-08-06 14:06:49,699737
1,4,2,5,5,4,3,2,2021-08-06 14:06:49,699737
-2,-4,-3,-3,-10,-7,-3,-5,2021-08-06 14:06:49,699737
1,3,1,5,11,8,5,2,2021-08-06 14:06:49,714749
-2,-3,-3,3,4,1,0,-4,2021-08-06 14:06:49,730736
-2,-3,-4,-3,-4,-3,-4,-4,2021-08-06 14:06:49,730736
-4,0,1,-3,-5,-4,-1,-2,2021-08-06 14:06:49,730736
-3,-2,0,-1,-6,-7,-3,-1,2021-08-06 14:06:49,730736
0,-1,-1,-4,-5,0,1,1,2021-08-06 14:06:49,730736
2,0,3,6,12,6,3,2,2021-08-06 14:06:49,762701
-1,-2,-1,1,1,-1,-1,-2,2021-08-06 14:06:49,794736
-1,-3,-4,-6,-8,-5,-4,-2,2021-08-06 14:06:49,810736
-1,2,0,-3,-5,-4,-1,-1,2021-08-06 14:06:49,810736
-2,-2,-5,-4,-4,-3,-1,-2,2021-08-06 14:06:49,825739
-2,-1,0,-1,0,-1,-1,-2,2021-08-06 14:06:49,838737
-2,-2,-2,0,1,0,-1,-2,2021-08-06 14:06:49,838737
2,2,3,4,3,2,0,1,2021-08-06 14:06:49,838737
-2,-3,-1,-2,-3,-1,0,0,2021-08-06 14:06:49,838737
-3,-3,-2,-2,-4,-2,-1,-1,2021-08-06 14:06:49,838737
-4,-2,1,-5,-8,-5,-3,-4,2021-08-06 14:06:49,838737
3,3,4,6,13,7,3,3,2021-08-06 14:06:49,838737
-1,-4,-9,-4,-1,0,-2,-2,2021-08-06 14:06:49,839701
0,0,1,2,2,0,-1,0,2021-08-06 14:06:49,839701
-1,-1,0,3,3,0,1,-1,2021-08-06 14:06:49,839701
0,-1,3,0,-6,-5,-2,-1,2021-08-06 14:06:49,839701
0,1,4,7,-2,-1,1,-1,2021-08-06 14:06:49,839701
1,2,-4,-1,4,4,2,0,2021-08-06 14:06:49,839701
-3,-4,-7,-9,-3,0,-1,-3,2021-08-06 14:06:49,839701
-5,-4,-9,-16,-13,-6,-7,-4,2021-08-06 14:06:49,839701
-1,-2,-3,-3,-4,-3,-1,-4,2021-08-06 14:06:49,840702
-4,-2,3,8,2,-1,-2,-3,2021-08-06 14:06:49,840702
2,2,6,2,-9,-8,-2,0,2021-08-06 14:06:49,857739
3,3,5,12,20,13,10,3,2021-08-06 14:06:49,857739
-3,-5,-7,-8,-7,-5,-3,-2,2021-08-06 14:06:49,857739
-2,-1,3,3,5,3,-1,-1,2021-08-06 14:06:49,857739
-2,-1,-3,2,2,2,-1,0,2021-08-06 14:06:49,889701
-2,-1,-1,-3,-10,-6,-4,-3,2021-08-06 14:06:49,905739
0,0,1,-2,-2,-1,-1,0,2021-08-06 14:06:49,921750
-2,-2,-4,-6,-12,-7,-4,-1,2021-08-06 14:06:49,921750
6,7,9,17,27,18,6,3,2021-08-06 14:06:49,921750
-1,-1,-1,5,2,1,-1,-1,2021-08-06 14:06:49,921750
-2,-1,2,-11,-7,-5,-1,-1,2021-08-06 14:06:49,921750
-4,-2,-8,-16,-18,-13,-7,-3,2021-08-06 14:06:49,921750
3,9,17,27,15,10,3,6,2021-08-06 14:06:49,921750
1,-9,-23,13,16,11,4,1,2021-08-06 14:06:49,922737
-4,-10,-25,-32,-9,-4,-1,-3,2021-08-06 14:06:49,922737
-9,-14,-16,-36,-37,-25,-13,-9,2021-08-06 14:06:49,922737
-2,-2,-2,-13,-15,-11,-2,-3,2021-08-06 14:06:49,937738
2,9,22,16,10,2,1,-1,2021-08-06 14:06:49,953751
2,5,12,24,10,8,0,2,2021-08-06 14:06:49,985739
10,10,10,17,27,20,12,10,2021-08-06 14:06:50,001745
-3,-5,-5,-4,-7,-4,-3,-4,2021-08-06 14:06:50,001745
-1,1,7,2,-6,-4,-2,-1,2021-08-06 14:06:50,001745
2,3,4,7,4,2,0,0,2021-08-06 14:06:50,001745
-2,-1,-1,1,2,2,1,-1,2021-08-06 14:06:50,001745
-4,-9,-20,-30,-20,-13,-8,-5,2021-08-06 14:06:50,001745
-4,-5,-9,-12,-12,-7,-3,-2,2021-08-06 14:06:50,001745
-2,1,9,10,3,-1,-4,-2,2021-08-06 14:06:50,001745
7,6,10,18,23,17,10,6,2021-08-06 14:06:50,002738
1,-3,-7,-2,7,7,5,1,2021-08-06 14:06:50,002738
-7,-8,-13,-27,-27,-18,-10,-8,2021-08-06 14:06:50,002738
1,5,8,12,7,3,1,1,2021-08-06 14:06:50,002738
-1,-3,5,5,-3,-3,-4,-2,2021-08-06 14:06:50,002738
2,-7,-12,-12,-2,-1,1,0,2021-08-06 14:06:50,017742
0,-1,-3,-11,-4,-2,0,2,2021-08-06 14:06:50,033739
-2,0,-1,8,6,4,0,-1,2021-08-06 14:06:50,033739
3,4,3,3,13,8,3,2,2021-08-06 14:06:50,033739
0,4,7,7,5,2,0,-2,2021-08-06 14:06:50,033739
-3,-1,1,1,-7,-7,-4,-2,2021-08-06 14:06:50,033739
-3,-6,-10,-16,-22,-14,-6,-2,2021-08-06 14:06:50,033739
0,-1,-10,-12,-3,-2,-1,-1,2021-08-06 14:06:50,033739
-4,-2,-2,-2,-3,-2,-3,-2,2021-08-06 14:06:50,064749
2,3,4,9,12,7,1,0,2021-08-06 14:06:50,080736
1,0,5,1,3,5,3,3,2021-08-06 14:06:50,080736
-6,-8,-5,-11,-22,-18,-9,-5,2021-08-06 14:06:50,080736
-1,-3,-8,1,1,-1,0,1,2021-08-06 14:06:50,080736
1,5,8,14,18,10,4,1,2021-08-06 14:06:50,080736
-1,-2,-3,-4,2,1,1,-2,2021-08-06 14:06:50,080736
-2,-4,-6,-9,-7,-7,-3,-3,2021-08-06 14:06:50,080736
-1,2,6,2,-8,-5,-3,0,2021-08-06 14:06:50,096736
1,0,3,6,2,1,0,1,2021-08-06 14:06:50,096736
2,0,-4,-9,2,1,0,-1,2021-08-06 14:06:50,096736
-1,-3,-3,-2,-2,-1,0,-1,2021-08-06 14:06:50,096736
-4,-4,-2,-12,-13,-5,-4,-4,2021-08-06 14:06:50,128749
4,2,1,1,1,2,2,1,2021-08-06 14:06:50,128749
1,0,10,17,15,8,3,0,2021-08-06 14:06:50,128749
0,4,5,13,8,5,3,0,2021-08-06 14:06:50,128749
-3,-4,-11,-8,3,1,-3,-2,2021-08-06 14:06:50,128749
-8,-8,-11,-21,-21,-13,-10,-7,2021-08-06 14:06:50,128749
-1,1,-3,-7,-7,-5,-2,-2,2021-08-06 14:06:50,144736
3,6,9,17,17,10,5,5,2021-08-06 14:06:50,144736
2,3,7,11,2,0,0,0,2021-08-06 14:06:50,160699
1,0,-4,-6,-5,-2,-1,0,2021-08-06 14:06:50,176736
-3,-3,-1,-4,-6,-4,-3,-3,2021-08-06 14:06:50,176736
-1,-4,-6,-10,-8,-3,-3,-2,2021-08-06 14:06:50,176736
-3,-3,-8,-13,-10,-6,-4,-2,2021-08-06 14:06:50,176736
0,-1,0,-2,0,-1,-1,-1,2021-08-06 14:06:50,176736
-2,0,1,5,3,0,0,-2,2021-08-06 14:06:50,176736
-1,0,5,10,1,1,-1,-2,2021-08-06 14:06:50,176736
0,2,1,-3,1,0,0,0,2021-08-06 14:06:50,192736
-4,-3,-5,-6,-5,0,0,-1,2021-08-06 14:06:50,192736
-1,0,-1,1,1,0,-1,0,2021-08-06 14:06:50,203750
-1,0,-1,3,1,1,0,0,2021-08-06 14:06:50,203750
-1,0,4,4,4,-1,-1,0,2021-08-06 14:06:50,224753
-3,-3,1,-7,-9,-3,-1,-3,2021-08-06 14:06:50,224753
0,0,-7,0,-2,-3,-2,-1,2021-08-06 14:06:50,224753
-3,-3,-7,-8,-2,-2,-2,-3,2021-08-06 14:06:50,224753
1,-1,1,3,0,-1,-1,-1,2021-08-06 14:06:50,240701
0,0,0,4,0,-3,-2,-1,2021-08-06 14:06:50,240701
-2,-2,0,4,8,4,2,0,2021-08-06 14:06:50,240701
-1,-1,0,4,1,1,0,-2,2021-08-06 14:06:50,240701
0,-2,-4,-10,-5,-3,1,0,2021-08-06 14:06:50,256702
-4,-7,-9,-11,-14,-11,-4,-4,2021-08-06 14:06:50,256702
-2,-4,-4,-4,-6,-3,-2,-2,2021-08-06 14:06:50,256702
0,0,-3,-1,2,0,-1,0,2021-08-06 14:06:50,256702
-1,1,7,13,8,4,0,0,2021-08-06 14:06:50,287701
-1,2,0,-2,0,0,0,0,2021-08-06 14:06:50,287701
0,-3,-2,-8,-7,-4,-4,-1,2021-08-06 14:06:50,287701
1,0,2,4,3,2,1,0,2021-08-06 14:06:50,287701
-1,-1,1,4,3,3,0,-3,2021-08-06 14:06:50,303749
0,0,5,6,2,0,1,1,2021-08-06 14:06:50,303749
-1,-2,-11,-14,-11,-6,-1,1,2021-08-06 14:06:50,303749
-2,-1,-1,-2,-5,-3,-4,-2,2021-08-06 14:06:50,303749
0,0,-1,-4,0,0,-2,-1,2021-08-06 14:06:50,319741
-1,0,0,4,6,3,1,-1,2021-08-06 14:06:50,319741
2,2,5,5,0,-1,1,1,2021-08-06 14:06:50,319741
-2,-2,-1,-2,-4,-4,-2,-2,2021-08-06 14:06:50,319741
-3,-3,-4,-3,-2,-1,-2,-1,2021-08-06 14:06:50,335737
3,1,3,3,5,3,2,3,2021-08-06 14:06:50,335737
0,2,0,0,0,1,-1,0,2021-08-06 14:06:50,335737
1,0,0,2,2,3,1,1,2021-08-06 14:06:50,335737
-1,0,3,4,-1,-1,-1,0,2021-08-06 14:06:50,365738
-3,-4,-7,-10,-10,-9,-4,-2,2021-08-06 14:06:50,381736
-2,-2,-4,-2,0,0,-2,-1,2021-08-06 14:06:50,381736
-5,-3,-4,-11,-14,-10,-4,-5,2021-08-06 14:06:50,381736
3,3,2,10,20,12,5,3,2021-08-06 14:06:50,381736
-2,0,5,5,6,5,0,0,2021-08-06 14:06:50,381736
-1,-1,-1,1,5,2,0,-1,2021-08-06 14:06:50,381736
-1,-3,-6,-3,-3,-3,-2,-1,2021-08-06 14:06:50,381736
-2,-3,0,1,-5,-7,-4,-2,2021-08-06 14:06:50,397739
-1,-1,-5,0,-2,-1,0,-2,2021-08-06 14:06:50,413749
0,2,4,-3,-2,0,0,0,2021-08-06 14:06:50,413749
1,0,3,1,5,2,1,-1,2021-08-06 14:06:50,413749
-1,-2,-5,-12,-11,-8,-1,0,2021-08-06 14:06:50,413749
-2,-3,-3,2,-1,-4,-4,-2,2021-08-06 14:06:50,413749
-1,-1,1,2,-5,-2,-2,-2,2021-08-06 14:06:50,429736
1,0,2,6,14,10,4,1,2021-08-06 14:06:50,429736
1,-1,-1,2,-4,1,0,0,2021-08-06 14:06:50,429736
-3,-2,-3,-12,-13,-9,-3,-2,2021-08-06 14:06:50,429736
-4,-2,-6,-10,-4,-3,0,-2,2021-08-06 14:06:50,444736
-1,-1,-1,-2,-4,-4,-3,-1,2021-08-06 14:06:50,444736
0,2,6,9,8,4,1,0,2021-08-06 14:06:50,459758
1,0,-3,1,4,3,2,1,2021-08-06 14:06:50,459758
-2,-2,-5,-7,-11,-8,-4,-1,2021-08-06 14:06:50,459758
-1,-2,-1,-2,3,2,1,0,2021-08-06 14:06:50,459758
1,-3,-3,2,0,0,-1,0,2021-08-06 14:06:50,490749
1,1,3,3,7,4,2,2,2021-08-06 14:06:50,490749
-2,0,-1,-1,-3,-3,0,-1,2021-08-06 14:06:50,490749
-1,-3,-3,-5,-10,-7,-3,-1,2021-08-06 14:06:50,490749
-3,-1,-1,-4,-5,-4,-1,-1,2021-08-06 14:06:50,506704
-1,1,13,10,9,4,0,0,2021-08-06 14:06:50,522739
-1,-3,-5,-1,1,-1,0,-2,2021-08-06 14:06:50,538750
2,3,-9,-3,2,3,3,1,2021-08-06 14:06:50,538750
-2,-2,-3,-2,-5,-5,-1,-1,2021-08-06 14:06:50,538750
-1,-1,-3,0,0,0,-2,-2,2021-08-06 14:06:50,538750
0,-1,5,0,0,0,-1,-1,2021-08-06 14:06:50,538750
-3,-2,2,0,-1,-3,-3,-3,2021-08-06 14:06:50,539701
-1,0,-5,-4,-2,-2,-1,-1,2021-08-06 14:06:50,539701
0,0,-1,4,3,3,0,-1,2021-08-06 14:06:50,539701
0,0,-1,3,2,0,-2,-2,2021-08-06 14:06:50,539701
0,-2,-3,-2,-4,0,0,0,2021-08-06 14:06:50,539701
-2,-2,0,-7,-3,-1,-4,-3,2021-08-06 14:06:50,564750
-1,-2,-6,-13,-9,-4,-3,-4,2021-08-06 14:06:50,564750
1,1,1,5,6,3,2,1,2021-08-06 14:06:50,565750
-1,-2,2,4,0,-2,-2,-1,2021-08-06 14:06:50,565750
0,0,-2,6,3,1,1,-1,2021-08-06 14:06:50,586701
0,-1,-2,0,1,-1,1,0,2021-08-06 14:06:50,586701
-2,-1,0,-4,-4,-1,-1,-1,2021-08-06 14:06:50,586701
-1,0,1,-3,-4,-2,0,0,2021-08-06 14:06:50,586701
-1,0,-4,-1,-1,0,-2,-1,2021-08-06 14:06:50,602701
1,-2,-1,-2,-1,-1,-1,-2,2021-08-06 14:06:50,602701
0,0,0,1,2,0,0,-1,2021-08-06 14:06:50,602701
-2,-1,2,1,-1,-1,-2,-1,2021-08-06 14:06:50,602701
-2,-2,0,-2,-2,0,-1,-1,2021-08-06 14:06:50,618698
0,0,-2,0,4,2,2,0,2021-08-06 14:06:50,634736
-1,-2,1,-2,-2,-2,-2,1,2021-08-06 14:06:50,650738
0,0,1,3,3,0,-1,-3,2021-08-06 14:06:50,650738
1,0,3,-4,-1,-1,-1,1,2021-08-06 14:06:50,650738
1,-1,-7,-2,0,2,-1,-1,2021-08-06 14:06:50,650738
-2,0,0,1,-1,-1,0,-2,2021-08-06 14:06:50,650738
0,-2,-2,-4,-4,-2,-1,-2,2021-08-06 14:06:50,650738
-3,-2,-1,-3,-4,-2,-4,-3,2021-08-06 14:06:50,666701
-1,2,5,7,2,0,-1,1,2021-08-06 14:06:50,666701
-1,0,-11,-9,-1,0,0,3,2021-08-06 14:06:50,666701
0,-1,-3,-9,-1,-2,0,-1,2021-08-06 14:06:50,666701
-1,0,2,3,1,-1,2,-1,2021-08-06 14:06:50,697736
-1,-2,0,1,-1,-2,0,-2,2021-08-06 14:06:50,697736
-2,-4,0,4,1,0,0,-1,2021-08-06 14:06:50,697736
0,1,0,3,-1,0,1,0,2021-08-06 14:06:50,697736
-2,-2,1,-4,-6,-3,-1,-1,2021-08-06 14:06:50,697736
-2,0,-4,-3,1,0,-3,0,2021-08-06 14:06:50,697736
0,0,3,6,5,3,1,-1,2021-08-06 14:06:50,698736
-2,-1,0,-1,-2,-2,-1,1,2021-08-06 14:06:50,698736
0,0,4,6,0,1,0,0,2021-08-06 14:06:50,729737
-2,-1,-7,-11,-6,-3,-1,0,2021-08-06 14:06:50,761699
0,-1,-1,-4,-2,0,-3,0,2021-08-06 14:06:50,761699
-2,-1,0,-2,-2,0,-1,-1,2021-08-06 14:06:50,761699
0,-1,-2,-3,-1,-2,1,-1,2021-08-06 14:06:50,761699
-2,-2,-2,3,0,0,0,-1,2021-08-06 14:06:50,761699
-2,-1,-1,-2,-2,-1,-1,-1,2021-08-06 14:06:50,761699
-3,-2,-4,-1,-5,-2,-1,-1,2021-08-06 14:06:50,761699
-1,-1,1,5,10,5,2,0,2021-08-06 14:06:50,761699
1,1,0,1,1,0,0,0,2021-08-06 14:06:50,762750
0,0,0,1,-1,-3,-1,-1,2021-08-06 14:06:50,762750
-1,1,5,5,-1,-1,-1,-1,2021-08-06 14:06:50,762750
-2,-1,-10,-12,-4,-4,-1,-2,2021-08-06 14:06:50,777736
0,0,1,-3,-1,-1,-1,-2,2021-08-06 14:06:50,777736
-1,0,2,0,-2,-1,0,-1,2021-08-06 14:06:50,777736
0,-2,-5,1,1,0,-1,-1,2021-08-06 14:06:50,777736
-1,-2,-3,1,-3,-2,-2,-1,2021-08-06 14:06:50,809702
-1,0,0,-3,-2,-1,0,-1,2021-08-06 14:06:50,825699
0,-2,-2,1,1,1,0,0,2021-08-06 14:06:50,825699
0,-1,-3,-1,-2,0,-1,-2,2021-08-06 14:06:50,825699
0,3,2,3,0,0,1,1,2021-08-06 14:06:50,825699
-1,-1,2,0,-3,-1,-2,-2,2021-08-06 14:06:50,825699
-1,-3,-5,-1,-3,-3,-1,-1,2021-08-06 14:06:50,825699
-1,-2,0,-3,0,-1,0,0,2021-08-06 14:06:50,825699
-3,-2,-3,-1,-1,-1,-4,-2,2021-08-06 14:06:50,841701
-2,-3,0,-2,-1,-1,-1,0,2021-08-06 14:06:50,857736
0,-2,1,1,-2,-2,0,0,2021-08-06 14:06:50,873730
3,1,-1,-4,2,3,2,4,2021-08-06 14:06:50,873730
-1,-1,-2,-5,-3,0,1,0,2021-08-06 14:06:50,873730
-2,-2,0,1,1,1,0,-1,2021-08-06 14:06:50,873730
-1,-2,1,5,1,0,-3,-2,2021-08-06 14:06:50,873730
-3,-3,-4,-8,-1,-3,-1,-3,2021-08-06 14:06:50,874701
-2,-3,-1,-3,-7,-6,-3,-3,2021-08-06 14:06:50,874701
1,1,-1,3,4,1,0,0,2021-08-06 14:06:50,874701
-1,0,-1,-2,-1,-2,1,0,2021-08-06 14:06:50,889737
0,1,1,-1,-3,-3,-3,0,2021-08-06 14:06:50,905702
0,-1,-2,-4,-4,-3,-2,1,2021-08-06 14:06:50,905702
-2,-1,-4,-4,-4,-1,-2,-3,2021-08-06 14:06:50,905702
-1,0,1,-1,-3,-1,-1,0,2021-08-06 14:06:50,905702
-1,-3,-2,3,6,3,2,-1,2021-08-06 14:06:50,905702
1,2,2,6,11,7,4,2,2021-08-06 14:06:50,920737
-1,-2,-1,-1,-3,-3,-1,0,2021-08-06 14:06:50,920737
-2,-1,-1,-3,-4,-3,-2,-1,2021-08-06 14:06:50,920737
-1,0,-1,-4,-8,-4,-1,-2,2021-08-06 14:06:50,920737
-1,-2,-2,-2,-4,-3,-2,-1,2021-08-06 14:06:50,933736
0,1,1,1,1,0,1,1,2021-08-06 14:06:50,933736
-1,-2,-1,-4,-1,-1,-3,-3,2021-08-06 14:06:50,951748
0,-2,-1,1,0,0,-2,-1,2021-08-06 14:06:50,967732
0,-2,-2,1,-1,-1,-2,-2,2021-08-06 14:06:50,983737
2,0,0,0,-1,-1,0,1,2021-08-06 14:06:50,999737
-2,-3,-2,-5,-2,-2,-1,0,2021-08-06 14:06:51,015753
1,2,2,5,2,1,0,0,2021-08-06 14:06:51,015753
-2,-2,-1,-4,0,1,1,-1,2021-08-06 14:06:51,015753
-3,-3,-4,-4,-3,-4,-2,-1,2021-08-06 14:06:51,015753
-1,-2,-3,-3,-3,-2,0,-1,2021-08-06 14:06:51,015753
-2,0,0,0,0,-1,-1,-1,2021-08-06 14:06:51,015753
0,0,0,2,4,1,-1,-1,2021-08-06 14:06:51,016701
0,-1,0,2,1,1,1,0,2021-08-06 14:06:51,016701
2,-1,-1,-2,-2,1,-1,-1,2021-08-06 14:06:51,016701
-1,0,0,1,-2,0,-3,-1,2021-08-06 14:06:51,016701
-1,-1,-1,1,-5,-2,-2,-1,2021-08-06 14:06:51,016701
-1,-1,-7,-12,-6,-3,-3,-1,2021-08-06 14:06:51,016701
0,0,0,-1,1,-1,-2,0,2021-08-06 14:06:51,016701
-3,-2,-4,-4,-2,-2,0,-1,2021-08-06 14:06:51,016701
0,-1,2,1,0,1,-2,-1,2021-08-06 14:06:51,047740
-1,0,1,7,2,1,0,0,2021-08-06 14:06:51,063753
0,2,0,-1,-1,-1,0,1,2021-08-06 14:06:51,079736
-1,-1,-1,-2,0,-1,0,-1,2021-08-06 14:06:51,079736
-2,-2,-1,0,0,0,-1,-1,2021-08-06 14:06:51,079736
2,3,3,3,1,-1,-1,0,2021-08-06 14:06:51,079736
1,1,-1,0,-1,2,0,0,2021-08-06 14:06:51,079736
-1,0,1,3,1,-1,0,0,2021-08-06 14:06:51,079736
-3,-2,-3,-1,-2,-3,-1,-1,2021-08-06 14:06:51,080736
-3,-3,-2,-5,-5,-2,-3,-3,2021-08-06 14:06:51,080736
-2,0,0,1,0,0,1,1,2021-08-06 14:06:51,080736
1,0,2,2,5,3,2,1,2021-08-06 14:06:51,080736
0,1,-1,-3,-3,-1,0,0,2021-08-06 14:06:51,109707
-1,-3,-2,-3,-2,-2,-1,-2,2021-08-06 14:06:51,109707
-1,-1,0,0,0,0,-2,-1,2021-08-06 14:06:51,109707
-2,-1,-1,-3,-4,-4,-1,-3,2021-08-06 14:06:51,109707
-1,-1,-1,-2,-3,-4,-1,0,2021-08-06 14:06:51,109707
1,1,1,1,0,-1,0,1,2021-08-06 14:06:51,109707
-2,-3,-3,-4,-3,-1,0,-2,2021-08-06 14:06:51,125705
-2,-1,-1,-3,-6,-4,-3,-2,2021-08-06 14:06:51,125705
0,0,0,3,4,3,1,0,2021-08-06 14:06:51,141701
-4,-2,0,1,-1,0,-2,0,2021-08-06 14:06:51,157737
1,-1,0,2,3,1,0,2,2021-08-06 14:06:51,157737
-1,-1,-3,-3,-3,-1,-2,-1,2021-08-06 14:06:51,157737
-1,-1,0,-1,1,0,-1,-2,2021-08-06 14:06:51,157737
-2,-2,-2,-2,0,-1,1,-2,2021-08-06 14:06:51,157737
-2,-1,0,0,1,-1,0,-1,2021-08-06 14:06:51,157737
3,3,2,1,0,2,0,4,2021-08-06 14:06:51,157737
-2,-3,-2,-4,-2,-2,-1,-2,2021-08-06 14:06:51,188750
-2,-2,-4,-1,-1,-2,-2,0,2021-08-06 14:06:51,203750
-4,-3,-3,-2,-7,-5,-3,-4,2021-08-06 14:06:51,219739
-2,-2,-2,-3,-1,0,-1,-2,2021-08-06 14:06:51,219739
1,1,-1,-1,-2,-1,0,0,2021-08-06 14:06:51,219739
1,0,2,-1,2,1,0,3,2021-08-06 14:06:51,219739
-1,-3,0,1,2,0,0,0,2021-08-06 14:06:51,219739
-3,-1,-4,-1,1,-2,-3,-1,2021-08-06 14:06:51,219739
1,4,1,1,1,1,-1,-1,2021-08-06 14:06:51,220705
-1,-2,-2,-1,-2,-2,-1,-3,2021-08-06 14:06:51,220705
1,3,0,-1,-2,-2,1,1,2021-08-06 14:06:51,220705
1,-2,-1,-2,0,0,1,-2,2021-08-06 14:06:51,220705
-4,-4,-3,-5,-11,-5,-2,-1,2021-08-06 14:06:51,235750
1,2,3,6,8,5,1,1,2021-08-06 14:06:51,235750
-2,-2,-1,0,-2,1,-1,-3,2021-08-06 14:06:51,251749
2,1,1,1,-1,1,0,1,2021-08-06 14:06:51,251749
0,-1,-1,-2,-3,-2,-2,0,2021-08-06 14:06:51,267742
-2,1,-1,-3,-2,-2,-2,0,2021-08-06 14:06:51,283744
1,-3,-1,-1,-1,-1,0,-2,2021-08-06 14:06:51,283744
-2,-2,-2,-2,-4,-2,-2,-2,2021-08-06 14:06:51,283744
-1,-3,-3,-4,-2,-2,0,0,2021-08-06 14:06:51,283744
-1,-3,-4,0,-1,0,-2,0,2021-08-06 14:06:51,283744
0,1,0,-1,-2,-3,-1,-2,2021-08-06 14:06:51,283744
-1,0,0,1,0,-2,-1,0,2021-08-06 14:06:51,283744
-2,-3,-1,1,-1,-2,-2,-2,2021-08-06 14:06:51,299750
-1,0,-1,-3,-1,-2,0,-2,2021-08-06 14:06:51,299750
-1,-1,-2,-1,0,1,-1,1,2021-08-06 14:06:51,299750
-1,-1,0,-2,-3,-1,-1,0,2021-08-06 14:06:51,299750
0,1,0,0,3,1,0,1,2021-08-06 14:06:51,331736
1,0,-1,-2,-2,0,0,0,2021-08-06 14:06:51,331736
-2,-1,0,-1,-2,-2,-2,0,2021-08-06 14:06:51,331736
-3,-4,-4,-5,-3,-2,-2,-2,2021-08-06 14:06:51,331736
1,1,1,2,6,4,1,1,2021-08-06 14:06:51,347739
-1,-1,-1,-2,-4,-2,-3,-2,2021-08-06 14:06:51,363748
0,1,1,-1,1,0,1,-3,2021-08-06 14:06:51,379703
-2,-2,-3,-2,-4,-2,-1,-2,2021-08-06 14:06:51,379703
0,0,-3,-1,-2,-1,-2,-1,2021-08-06 14:06:51,379703
1,0,-1,1,0,2,2,1,2021-08-06 14:06:51,379703
1,0,0,-2,-1,0,-1,-2,2021-08-06 14:06:51,379703
-2,-1,-2,-1,-2,-2,-2,-2,2021-08-06 14:06:51,379703
-1,-2,-2,0,0,-3,-1,-3,2021-08-06 14:06:51,379703
-1,-2,0,-1,-3,-1,-1,-1,2021-08-06 14:06:51,380702
-2,-1,-2,-2,-2,0,0,-1,2021-08-06 14:06:51,380702
-1,-1,-2,1,-1,-1,-1,-3,2021-08-06 14:06:51,380702
-1,0,-2,0,-2,-1,0,0,2021-08-06 14:06:51,411738
-3,-3,-1,-1,-2,-3,-2,-1,2021-08-06 14:06:51,411738
-2,-2,0,0,-2,-3,-1,-1,2021-08-06 14:06:51,411738
1,0,-3,0,3,1,1,0,2021-08-06 14:06:51,411738
0,2,2,0,0,-1,1,0,2021-08-06 14:06:51,411738
0,-2,-2,0,-3,-2,-2,-1,2021-08-06 14:06:51,411738
-4,-2,-2,-2,-3,-2,-3,-1,2021-08-06 14:06:51,427750
-2,-2,-3,1,0,-1,-1,0,2021-08-06 14:06:51,427750
0,-1,-1,-2,0,0,-1,-1,2021-08-06 14:06:51,443739
2,2,3,2,3,1,3,-1,2021-08-06 14:06:51,443739
0,1,0,0,0,-1,0,1,2021-08-06 14:06:51,443739
-2,-1,-2,-2,-3,-2,-2,-1,2021-08-06 14:06:51,443739
-3,-4,-3,-2,-4,-4,-2,-3,2021-08-06 14:06:51,474749
-3,-1,1,-2,0,0,-2,-1,2021-08-06 14:06:51,490749
1,-1,0,-1,-2,0,0,-2,2021-08-06 14:06:51,506701
0,1,2,0,1,-1,0,1,2021-08-06 14:06:51,522737
-1,-1,-2,-3,-4,-2,-2,-1,2021-08-06 14:06:51,554701
-1,0,1,0,0,-3,-2,0,2021-08-06 14:06:51,554701
0,-1,-2,0,-1,-2,-1,0,2021-08-06 14:06:51,554701
-2,-2,0,-2,-1,-1,-1,-2,2021-08-06 14:06:51,554701
2,-1,2,2,2,1,1,1,2021-08-06 14:06:51,554701
-4,-2,-5,-3,-4,-3,-2,-3,2021-08-06 14:06:51,554701
0,1,-2,1,1,0,-1,-1,2021-08-06 14:06:51,554701
-1,-1,0,1,0,-1,-3,-1,2021-08-06 14:06:51,554701
-1,-2,-4,-4,-4,-2,-3,-4,2021-08-06 14:06:51,554701
-2,0,-4,-2,-1,-2,-2,-2,2021-08-06 14:06:51,554701
-1,-2,2,0,-1,0,0,-2,2021-08-06 14:06:51,555738
0,0,1,1,2,1,1,0,2021-08-06 14:06:51,555738
-2,-1,-1,-1,-3,-1,-2,-2,2021-08-06 14:06:51,555738
1,-2,0,-1,-1,0,0,0,2021-08-06 14:06:51,555738
-2,-1,-1,0,1,-1,-2,-1,2021-08-06 14:06:51,555738
-2,0,-1,0,-2,-1,-2,-1,2021-08-06 14:06:51,555738
0,-1,-1,-1,0,-1,-1,1,2021-08-06 14:06:51,555738
-1,-2,0,0,0,0,-2,-1,2021-08-06 14:06:51,555738
1,-1,1,0,3,0,0,0,2021-08-06 14:06:51,555738
0,0,0,0,-1,1,1,-1,2021-08-06 14:06:51,555738
-2,-1,1,0,-3,-2,-2,-1,2021-08-06 14:06:51,602736
0,3,4,7,9,4,2,1,2021-08-06 14:06:51,602736
-1,-2,-2,-2,3,1,0,-1,2021-08-06 14:06:51,602736
-3,-4,-9,-17,-22,-10,-2,0,2021-08-06 14:06:51,602736
-3,-2,-7,-10,-13,-8,-4,-2,2021-08-06 14:06:51,602736
2,1,3,1,-4,-3,0,0,2021-08-06 14:06:51,602736
-1,2,1,2,5,1,0,-1,2021-08-06 14:06:51,602736
3,1,3,8,11,8,3,2,2021-08-06 14:06:51,603729
0,-1,0,3,7,3,1,1,2021-08-06 14:06:51,634700
1,0,-2,-4,-5,-3,0,0,2021-08-06 14:06:51,634700
0,0,0,2,1,0,0,0,2021-08-06 14:06:51,634700
-2,-1,-1,1,2,-1,-2,-2,2021-08-06 14:06:51,634700
-2,-3,-2,-1,-3,-3,-3,-3,2021-08-06 14:06:51,634700
-4,-1,-1,-3,-3,-3,-4,-4,2021-08-06 14:06:51,635700
3,1,2,0,2,3,3,4,2021-08-06 14:06:51,649751
-1,-2,0,1,-2,-4,-3,-2,2021-08-06 14:06:51,649751
0,0,1,0,5,1,2,1,2021-08-06 14:06:51,665749
0,-2,-4,-4,-7,-5,-3,-1,2021-08-06 14:06:51,665749
-1,2,-1,-4,-4,-1,2,1,2021-08-06 14:06:51,665749
1,2,1,5,9,5,3,1,2021-08-06 14:06:51,665749
-1,-2,-1,-3,-1,-2,-1,0,2021-08-06 14:06:51,681738
-1,0,-1,0,3,1,2,0,2021-08-06 14:06:51,681738
-2,-2,-2,-3,-4,-4,-3,-2,2021-08-06 14:06:51,681738
-1,-2,-3,-3,-1,-2,-2,-1,2021-08-06 14:06:51,681738
1,1,1,2,0,1,0,-1,2021-08-06 14:06:51,713751
-4,-4,-3,-4,-4,-1,-2,-2,2021-08-06 14:06:51,713751
-1,-1,-3,0,-2,-2,-3,-3,2021-08-06 14:06:51,713751
0,1,1,1,1,-1,-1,-1,2021-08-06 14:06:51,713751
-1,0,1,0,-1,-2,-1,-1,2021-08-06 14:06:51,729736
-1,-1,0,-1,0,1,-1,0,2021-08-06 14:06:51,729736
-1,-2,0,0,2,0,-2,0,2021-08-06 14:06:51,729736
-3,-3,-2,-4,-6,-7,-4,-2,2021-08-06 14:06:51,729736
-3,-2,-2,-2,-3,0,-2,-1,2021-08-06 14:06:51,745331
-1,-2,-4,-5,-7,-3,1,-1,2021-08-06 14:06:51,745331
-1,-1,2,8,13,3,-1,-1,2021-08-06 14:06:51,745331
2,0,2,0,3,3,2,0,2021-08-06 14:06:51,745331
1,-1,0,0,1,-1,-2,-2,2021-08-06 14:06:51,791915
-2,-4,-3,-4,-6,-3,-3,-2,2021-08-06 14:06:51,791915
0,-2,-2,-3,-8,-5,-1,1,2021-08-06 14:06:51,791915
-1,0,-2,-2,-3,-1,-2,-2,2021-08-06 14:06:51,791915
1,-1,0,0,-1,0,1,-1,2021-08-06 14:06:51,791915
-2,-2,-3,0,0,-2,-1,-1,2021-08-06 14:06:51,791915
0,2,1,0,-1,2,1,0,2021-08-06 14:06:51,791915
0,-1,-2,-2,-1,-3,-1,-2,2021-08-06 14:06:51,791915
-2,-1,-1,-2,-3,-2,-1,1,2021-08-06 14:06:51,807918
0,-2,-2,0,-3,-2,-4,-1,2021-08-06 14:06:51,807918
-1,-1,-2,-1,2,0,0,1,2021-08-06 14:06:51,807918
2,1,2,0,1,2,1,1,2021-08-06 14:06:51,807918
-1,1,-2,0,0,-3,-2,-1,2021-08-06 14:06:51,823880
0,0,0,0,1,0,0,-1,2021-08-06 14:06:51,823880
-3,-4,-3,-5,-10,-7,-5,-4,2021-08-06 14:06:51,823880
0,0,1,0,0,0,-1,-1,2021-08-06 14:06:51,823880
0,-1,0,1,5,2,1,0,2021-08-06 14:06:51,855915
0,2,1,-1,3,2,0,-2,2021-08-06 14:06:51,871934
-1,-2,-3,-4,-5,-3,-1,-2,2021-08-06 14:06:51,871934
-2,-2,-1,-1,-4,-4,-3,-4,2021-08-06 14:06:51,871934
0,-1,-1,-2,-1,0,-1,-1,2021-08-06 14:06:51,871934
1,0,1,0,4,1,2,0,2021-08-06 14:06:51,871934
-3,-3,-2,0,-4,-2,-2,-3,2021-08-06 14:06:51,871934
0,0,-1,-1,-2,-2,-3,-2,2021-08-06 14:06:51,872878
-1,0,-1,-2,-6,-6,-3,-1,2021-08-06 14:06:51,887878
-1,-1,2,2,3,3,1,1,2021-08-06 14:06:51,903880
0,1,0,0,2,1,0,-1,2021-08-06 14:06:51,903880
-1,0,-1,-1,-1,0,0,0,2021-08-06 14:06:51,903880
-1,0,0,1,0,1,-1,0,2021-08-06 14:06:51,903880
-2,-1,-2,-2,-5,-1,0,-2,2021-08-06 14:06:51,903880
-1,-2,-1,-1,-2,-1,-1,-2,2021-08-06 14:06:51,903880
-2,-3,-3,0,0,1,-1,-2,2021-08-06 14:06:51,903880
-1,0,-3,-2,-3,0,0,-1,2021-08-06 14:06:51,919915
0,1,-1,1,-1,-1,-2,-1,2021-08-06 14:06:51,935915
-2,0,-1,-1,1,0,-1,-1,2021-08-06 14:06:51,935915
-2,-1,-1,-1,-1,0,-1,-1,2021-08-06 14:06:51,935915
-1,-2,-1,0,2,0,0,1,2021-08-06 14:06:51,935915
0,-1,-4,-1,0,1,0,0,2021-08-06 14:06:51,935915
0,0,-1,-1,-1,-2,-1,0,2021-08-06 14:06:51,936878
-2,-2,0,-3,-1,0,-2,-1,2021-08-06 14:06:51,936878
0,-1,-1,-1,2,1,1,-1,2021-08-06 14:06:51,967915
-2,-3,-1,0,1,-1,-1,0,2021-08-06 14:06:51,967915
-1,-2,-3,-3,-6,-1,-1,-1,2021-08-06 14:06:51,967915
-1,-3,0,0,1,0,1,0,2021-08-06 14:06:51,967915
1,0,2,2,2,2,0,-1,2021-08-06 14:06:51,983924
2,2,2,0,1,0,0,0,2021-08-06 14:06:51,999928
0,-2,-2,-3,-2,-1,0,-2,2021-08-06 14:06:52,015928
-1,-1,-1,-2,-1,-2,-2,0,2021-08-06 14:06:52,031880
-1,-2,-2,-2,-1,0,1,-1,2021-08-06 14:06:52,031880
-3,-3,-2,-2,-2,-2,-1,0,2021-08-06 14:06:52,031880
0,1,0,1,3,1,0,1,2021-08-06 14:06:52,031880
-1,-1,-1,-2,-3,-3,0,-3,2021-08-06 14:06:52,031880
-2,-1,-2,1,0,1,-1,-1,2021-08-06 14:06:52,032879
-1,0,-2,-1,-4,-1,-1,-2,2021-08-06 14:06:52,046917
0,-2,0,-1,-2,-3,-1,-1,2021-08-06 14:06:52,061914
-1,0,-1,1,2,0,-1,0,2021-08-06 14:06:52,061914
-1,-2,-4,-4,-5,-4,-2,-1,2021-08-06 14:06:52,061914
-3,-1,-1,0,5,1,-1,0,2021-08-06 14:06:52,061914
0,-1,-1,0,-2,1,0,0,2021-08-06 14:06:52,061914
0,1,1,2,1,-1,0,0,2021-08-06 14:06:52,061914
-1,-2,-1,-3,-5,-4,-3,-2,2021-08-06 14:06:52,061914
-2,-2,-3,-2,-1,0,0,0,2021-08-06 14:06:52,061914
1,2,1,1,4,3,2,1,2021-08-06 14:06:52,061914
-3,-2,-3,-4,-5,-3,-4,-3,2021-08-06 14:06:52,062917
3,3,1,2,3,2,0,1,2021-08-06 14:06:52,093878
-2,-2,1,-2,-6,-5,-1,-2,2021-08-06 14:06:52,093878
-2,-2,-3,-3,-4,-4,-2,-1,2021-08-06 14:06:52,093878
1,1,-1,2,10,5,1,0,2021-08-06 14:06:52,093878
-3,-2,-1,-1,-3,-2,-2,-2,2021-08-06 14:06:52,108916
0,1,0,0,-2,-1,-2,-2,2021-08-06 14:06:52,124928
-2,-3,-2,-2,-4,-4,-3,-2,2021-08-06 14:06:52,140928
0,-2,-1,-1,-2,-1,0,0,2021-08-06 14:06:52,156914
-1,-1,0,-1,1,1,0,0,2021-08-06 14:06:52,172929
0,1,2,1,4,2,2,0,2021-08-06 14:06:52,172929
-2,-3,-3,-1,-2,-1,-1,-2,2021-08-06 14:06:52,172929
-4,-3,-4,-2,-4,-4,-3,-4,2021-08-06 14:06:52,172929
-2,0,-1,0,2,2,1,0,2021-08-06 14:06:52,188882
0,0,0,-1,-3,-1,-1,-1,2021-08-06 14:06:52,204929
1,2,1,-1,1,1,-1,0,2021-08-06 14:06:52,220878
-2,-2,-2,-2,-1,0,1,-1,2021-08-06 14:06:52,236928
-2,-2,-3,-1,-4,-4,-2,-1,2021-08-06 14:06:52,252910
0,0,-2,-2,-1,0,0,1,2021-08-06 14:06:52,252910
1,1,-1,2,5,5,0,1,2021-08-06 14:06:52,252910
1,1,1,3,2,0,-2,1,2021-08-06 14:06:52,252910
-6,-3,-3,-2,-4,-6,-6,-6,2021-08-06 14:06:52,252910
-1,-4,-2,-5,-7,-5,-3,-2,2021-08-06 14:06:52,252910
0,1,2,1,5,2,3,1,2021-08-06 14:06:52,252910
0,-1,-1,-2,-2,3,3,0,2021-08-06 14:06:52,253917
1,-1,0,-1,-3,-1,-1,0,2021-08-06 14:06:52,268878
-3,-2,0,0,-1,0,-1,-2,2021-08-06 14:06:52,300928
-3,-2,-1,-1,0,2,1,1,2021-08-06 14:06:52,316915
0,2,-1,-4,-6,-4,0,0,2021-08-06 14:06:52,331917
-1,0,0,2,7,3,1,-1,2021-08-06 14:06:52,331917
0,0,-2,0,-1,-1,1,0,2021-08-06 14:06:52,331917
-2,-4,-2,-1,-2,-4,-2,-3,2021-08-06 14:06:52,331917
1,-2,2,0,-1,1,-1,1,2021-08-06 14:06:52,331917
0,-1,-3,-3,-5,-2,0,-1,2021-08-06 14:06:52,331917
-1,-2,0,1,1,0,-2,-1,2021-08-06 14:06:52,331917
-3,-2,-5,-5,-6,-4,-3,-2,2021-08-06 14:06:52,331917
3,3,1,1,1,2,1,1,2021-08-06 14:06:52,332919
1,-1,1,-2,-1,0,-1,-1,2021-08-06 14:06:52,332919
0,2,1,2,1,1,-1,-1,2021-08-06 14:06:52,332919
-2,-3,0,-2,-3,-3,-3,-2,2021-08-06 14:06:52,332919
-2,-3,-3,-2,-3,-2,-1,-1,2021-08-06 14:06:52,332919
1,0,1,1,4,2,1,0,2021-08-06 14:06:52,332919
-2,0,-3,0,-1,0,-1,0,2021-08-06 14:06:52,332919
-2,-5,-3,-2,-4,-2,-2,-4,2021-08-06 14:06:52,332919
-1,0,0,-1,-2,-3,-2,-2,2021-08-06 14:06:52,333915
0,-2,-2,-2,-2,0,0,1,2021-08-06 14:06:52,333915
1,1,1,2,2,2,1,1,2021-08-06 14:06:52,333915
0,2,2,3,1,0,0,0,2021-08-06 14:06:52,333915
-4,-2,-2,-3,-4,-3,-2,-3,2021-08-06 14:06:52,333915
-3,-2,-4,-3,-8,-5,-2,-2,2021-08-06 14:06:52,333915
-1,-1,-1,-2,2,0,-1,-2,2021-08-06 14:06:52,333915
1,2,-1,0,3,1,1,1,2021-08-06 14:06:52,333915
-3,-2,-3,0,0,-1,-2,0,2021-08-06 14:06:52,333915
-3,-4,-4,-2,-2,-2,-2,-1,2021-08-06 14:06:52,334915
-3,-3,-3,-5,-5,-5,-2,-1,2021-08-06 14:06:52,334915
3,4,3,3,3,2,1,0,2021-08-06 14:06:52,346921
-1,-1,0,-2,-1,-2,-1,0,2021-08-06 14:06:52,346921
1,1,-1,-1,0,1,0,-1,2021-08-06 14:06:52,362928
0,-4,-3,-2,-1,-2,-3,-2,2021-08-06 14:06:52,378929
-2,-2,-2,-2,-1,0,0,0,2021-08-06 14:06:52,391914
-1,-1,-2,-1,0,-1,1,-1,2021-08-06 14:06:52,392880
-1,0,1,3,2,-2,1,2,2021-08-06 14:06:52,392880
1,0,0,0,0,1,-1,1,2021-08-06 14:06:52,392880
0,-2,-3,-4,-6,-6,-3,-5,2021-08-06 14:06:52,392880
0,0,1,1,0,0,2,1,2021-08-06 14:06:52,392880
1,1,2,-2,1,1,1,0,2021-08-06 14:06:52,392880
-1,-1,-1,-2,-4,-4,-1,-3,2021-08-06 14:06:52,392880
-2,-2,-2,1,2,2,1,0,2021-08-06 14:06:52,410928
0,-1,-2,0,1,0,-1,-2,2021-08-06 14:06:52,410928
0,0,0,0,-1,0,0,-1,2021-08-06 14:06:52,426914
-1,0,-1,1,-2,-3,0,-1,2021-08-06 14:06:52,442914
-1,0,0,1,1,-1,0,-1,2021-08-06 14:06:52,442914
-2,-1,-3,-1,-1,-2,-1,1,2021-08-06 14:06:52,442914
-1,-2,-1,-2,-4,-1,0,1,2021-08-06 14:06:52,442914
-1,0,0,0,3,3,1,-1,2021-08-06 14:06:52,442914
0,-3,-3,-3,-3,-3,-3,-1,2021-08-06 14:06:52,442914
0,-1,0,0,1,2,0,-2,2021-08-06 14:06:52,442914
-4,-5,-2,-3,-2,-1,-2,-2,2021-08-06 14:06:52,458916
-2,1,2,1,-1,-2,-2,-2,2021-08-06 14:06:52,474881
0,0,2,0,0,-1,0,1,2021-08-06 14:06:52,474881
0,2,1,3,0,1,0,0,2021-08-06 14:06:52,474881
-3,-4,-5,-4,-4,-6,-5,-4,2021-08-06 14:06:52,474881
5,4,0,-2,0,2,1,1,2021-08-06 14:06:52,474881
2,1,2,-2,-1,0,0,2,2021-08-06 14:06:52,474881
2,1,2,-1,-1,0,1,2,2021-08-06 14:06:52,474881
1,0,0,0,2,2,1,0,2021-08-06 14:06:52,506916
-3,-4,-4,-2,-3,-3,-1,-3,2021-08-06 14:06:52,506916
-3,-3,-3,-3,-2,-2,-2,-5,2021-08-06 14:06:52,506916
-4,-5,-4,-4,-3,-1,-3,-2,2021-08-06 14:06:52,506916
-1,0,0,3,2,1,0,-2,2021-08-06 14:06:52,538880
-1,-2,-1,1,0,-1,-2,1,2021-08-06 14:06:52,538880
-1,-1,-1,-2,-3,-2,-1,-1,2021-08-06 14:06:52,538880
-2,-2,0,0,-1,-2,-1,-2,2021-08-06 14:06:52,538880
1,-1,0,2,1,1,0,-1,2021-08-06 14:06:52,553927
0,0,0,0,-2,0,-1,-2,2021-08-06 14:06:52,553927
-4,-2,-4,0,0,0,-2,-2,2021-08-06 14:06:52,553927
-2,-2,0,0,-1,-1,-2,-1,2021-08-06 14:06:52,553927
1,4,0,-2,0,1,0,1,2021-08-06 14:06:52,569915
-2,-3,-1,0,1,0,0,-1,2021-08-06 14:06:52,584915
-1,-3,-2,-3,-3,-2,-3,-1,2021-08-06 14:06:52,600928
0,-1,-2,-3,-1,0,-2,1,2021-08-06 14:06:52,616914
-3,-1,-1,-2,-1,-2,-3,-1,2021-08-06 14:06:52,616914
1,1,1,1,2,3,2,1,2021-08-06 14:06:52,616914
0,-2,-1,-1,0,1,-1,-1,2021-08-06 14:06:52,616914
1,-2,-2,-3,-5,-3,-3,-3,2021-08-06 14:06:52,616914
1,-1,0,0,-2,-1,-2,0,2021-08-06 14:06:52,616914
-2,0,-1,0,-2,-1,-1,-1,2021-08-06 14:06:52,616914
-1,-2,-1,-1,-1,-3,-1,0,2021-08-06 14:06:52,616914
0,0,0,-1,2,1,0,0,2021-08-06 14:06:52,617879
0,1,0,1,2,0,1,0,2021-08-06 14:06:52,617879
0,0,-2,0,0,-2,-2,-2,2021-08-06 14:06:52,617879
-1,1,-3,-1,-1,0,-1,-2,2021-08-06 14:06:52,632915
-2,-1,-2,-3,-1,-2,-2,-1,2021-08-06 14:06:52,647914
-1,-1,0,0,0,0,-2,-1,2021-08-06 14:06:52,678928
-1,-2,-2,-2,-2,-1,-2,-1,2021-08-06 14:06:52,694914
-2,-1,-1,0,-1,-1,0,1,2021-08-06 14:06:52,694914
2,0,0,-1,0,0,0,-1,2021-08-06 14:06:52,694914
2,1,1,0,0,-1,-1,0,2021-08-06 14:06:52,694914
-1,-2,-3,-1,-2,-2,-3,-4,2021-08-06 14:06:52,694914
-2,0,-1,-2,-1,1,-1,-2,2021-08-06 14:06:52,695880
-3,-2,-4,-1,0,-1,-1,-1,2021-08-06 14:06:52,695880
0,3,-1,-1,0,2,2,2,2021-08-06 14:06:52,695880
-2,-2,0,0,-1,-1,-2,0,2021-08-06 14:06:52,695880
2,3,4,2,2,1,1,0,2021-08-06 14:06:52,695880
0,0,0,1,-1,0,1,0,2021-08-06 14:06:52,695880
-5,-6,-4,-2,-1,-2,-1,-2,2021-08-06 14:06:52,709921
-1,1,-1,-1,-1,-1,-1,-1,2021-08-06 14:06:52,709921
2,2,1,1,-2,-1,1,2,2021-08-06 14:06:52,709921
0,-1,-1,-1,-1,-2,0,-2,2021-08-06 14:06:52,709921
-1,-1,-1,-2,-1,-2,-2,0,2021-08-06 14:06:52,725927
-2,-3,-3,-3,1,-1,-1,-1,2021-08-06 14:06:52,725927
-3,-4,-3,-1,-1,0,-1,-2,2021-08-06 14:06:52,725927
1,1,0,0,-2,-1,0,3,2021-08-06 14:06:52,725927
0,1,-1,-1,-1,-1,-3,-2,2021-08-06 14:06:52,751927
0,-1,-3,-1,0,-1,2,-1,2021-08-06 14:06:52,751927
-1,-4,-3,0,1,0,-3,-3,2021-08-06 14:06:52,751927
-4,-2,-3,-1,-3,-3,-5,-5,2021-08-06 14:06:52,751927
0,0,0,0,0,-1,-1,0,2021-08-06 14:06:52,773880
0,0,-1,-2,-2,-1,1,1,2021-08-06 14:06:52,773880
1,1,0,-1,0,-1,2,3,2021-08-06 14:06:52,773880
-2,-3,-2,-3,0,0,-1,-2,2021-08-06 14:06:52,773880
-1,-1,0,2,0,-1,-2,-3,2021-08-06 14:06:52,789880
-1,0,0,-2,-1,1,-2,1,2021-08-06 14:06:52,789880
-1,1,-2,-3,-3,-2,-1,0,2021-08-06 14:06:52,789880
-2,-3,-1,0,-2,-1,1,-1,2021-08-06 14:06:52,789880
1,-1,-2,-2,-1,0,2,0,2021-08-06 14:06:52,805879
0,-2,-1,0,0,0,-1,0,2021-08-06 14:06:52,805879
0,-2,-1,-1,-2,-3,-1,-2,2021-08-06 14:06:52,805879
1,-1,-2,-1,0,0,-1,0,2021-08-06 14:06:52,805879
-2,-3,-1,-2,-3,-2,-3,-3,2021-08-06 14:06:52,837880
-1,1,-2,-1,0,0,2,1,2021-08-06 14:06:52,837880
1,0,0,0,0,0,-1,0,2021-08-06 14:06:52,837880
-2,0,0,-1,0,-1,0,0,2021-08-06 14:06:52,837880
-2,-3,-3,-1,-2,-3,-2,-2,2021-08-06 14:06:52,837880
1,-1,1,-1,-3,-2,-2,-1,2021-08-06 14:06:52,837880
2,2,1,1,1,1,0,-1,2021-08-06 14:06:52,837880
-2,-2,-1,-1,-2,-2,-2,-2,2021-08-06 14:06:52,837880
0,0,-1,-3,-3,-2,1,0,2021-08-06 14:06:52,868880
-2,-2,0,1,1,1,-3,-3,2021-08-06 14:06:52,868880
-2,-1,-2,-1,1,0,-1,-1,2021-08-06 14:06:52,868880
-1,-1,-1,-1,-3,-1,-1,-1,2021-08-06 14:06:52,884915
-1,0,1,0,-1,-2,-2,0,2021-08-06 14:06:52,916915
-2,-1,-2,-1,-3,-3,1,-1,2021-08-06 14:06:52,932915
0,-2,-1,0,-2,2,0,-1,2021-08-06 14:06:52,948915
0,-2,-2,0,-1,0,0,-2,2021-08-06 14:06:52,964915
0,1,0,0,0,0,0,-1,2021-08-06 14:06:52,980915
-1,-2,-1,0,-1,-2,0,-1,2021-08-06 14:06:52,980915
-3,-1,-3,-3,-2,-2,-3,-2,2021-08-06 14:06:52,980915
-1,0,0,0,-1,-1,-1,-1,2021-08-06 14:06:52,980915
-1,0,1,0,3,1,1,2,2021-08-06 14:06:52,980915
-1,0,0,1,0,0,0,-1,2021-08-06 14:06:52,980915
-1,-4,-3,-2,-4,-2,-1,-3,2021-08-06 14:06:52,980915
3,3,0,-1,-1,0,2,1,2021-08-06 14:06:52,980915
-3,-4,-3,-2,-2,0,-2,-2,2021-08-06 14:06:52,980915
-2,0,-2,-4,-2,-1,-1,-1,2021-08-06 14:06:52,980915
1,3,3,2,0,-1,0,-1,2021-08-06 14:06:52,980915
-1,0,-1,0,-1,-2,-2,-3,2021-08-06 14:06:52,981929
-2,-3,-1,1,1,1,0,1,2021-08-06 14:06:52,981929
-1,-1,-1,-2,-2,-1,-1,-1,2021-08-06 14:06:52,981929
-4,-3,-3,-3,-2,-2,-3,0,2021-08-06 14:06:52,981929
-1,-1,-1,-1,-1,-2,-1,0,2021-08-06 14:06:52,981929
1,0,0,0,0,1,0,-1,2021-08-06 14:06:52,981929
0,0,0,-1,0,0,0,-2,2021-08-06 14:06:52,981929
0,1,-1,0,1,-1,-1,-2,2021-08-06 14:06:52,981929
0,-2,-1,0,-2,-3,-2,-1,2021-08-06 14:06:52,981929
-2,-2,-4,-1,-1,0,0,-1,2021-08-06 14:06:53,012914
0,0,-1,-1,0,-2,-2,1,2021-08-06 14:06:53,012914
-2,0,0,-1,-1,0,1,-1,2021-08-06 14:06:53,012914
-2,-2,-1,-2,-1,0,-1,-1,2021-08-06 14:06:53,012914
1,0,-1,0,1,-1,2,-1,2021-08-06 14:06:53,028932
2,3,1,1,2,2,1,0,2021-08-06 14:06:53,044914
-2,-2,-1,-1,-4,-1,-3,-2,2021-08-06 14:06:53,059914
-2,-1,-1,2,2,1,1,-1,2021-08-06 14:06:53,059914
1,0,2,-1,1,0,-1,0,2021-08-06 14:06:53,059914
-2,0,-3,-2,-1,-1,-2,-2,2021-08-06 14:06:53,059914
-1,-1,-1,0,0,-2,-2,0,2021-08-06 14:06:53,059914
-1,0,-1,-2,1,-1,0,-1,2021-08-06 14:06:53,059914
-3,-1,-2,-1,-3,-3,-2,-2,2021-08-06 14:06:53,059914
0,0,1,0,-1,-1,0,-2,2021-08-06 14:06:53,059914
0,1,0,-1,-1,0,0,0,2021-08-06 14:06:53,075880
-2,0,-1,0,1,0,0,1,2021-08-06 14:06:53,075880
-1,-1,-3,-1,-2,-3,1,-1,2021-08-06 14:06:53,075880
-1,-2,-2,1,0,-1,-1,-1,2021-08-06 14:06:53,075880
-2,-1,-1,-1,-2,0,1,0,2021-08-06 14:06:53,075880
-2,-2,-1,-1,-2,0,-2,-1,2021-08-06 14:06:53,075880
-1,0,-1,-2,-2,-1,0,-1,2021-08-06 14:06:53,107916
-2,-1,-2,0,-2,0,-1,-4,2021-08-06 14:06:53,107916
1,-2,-1,0,0,0,0,0,2021-08-06 14:06:53,107916
-1,-2,-2,-1,-1,0,1,-1,2021-08-06 14:06:53,107916
1,2,1,-2,-2,-1,-1,-1,2021-08-06 14:06:53,139878
0,-1,0,0,3,-1,0,0,2021-08-06 14:06:53,139878
-2,0,-2,0,0,-2,0,0,2021-08-06 14:06:53,139878
0,0,-1,0,0,-2,0,-1,2021-08-06 14:06:53,139878
-2,-1,-2,-1,0,-1,-2,-2,2021-08-06 14:06:53,139878
0,-2,-1,-3,-4,-2,-1,-1,2021-08-06 14:06:53,139878
1,1,-1,-1,0,-1,-1,-1,2021-08-06 14:06:53,155881
0,-1,-3,-3,-1,-1,-2,-3,2021-08-06 14:06:53,155881
0,-2,2,-1,2,0,-1,0,2021-08-06 14:06:53,171878
-2,-1,-1,-1,-2,-2,-1,-1,2021-08-06 14:06:53,171878
-2,-1,-1,-2,-2,-1,-1,-1,2021-08-06 14:06:53,171878
-1,-1,-1,-2,-3,0,-1,-1,2021-08-06 14:06:53,171878
0,2,0,2,0,-1,-1,-1,2021-08-06 14:06:53,187878
-3,-2,-2,-1,-1,1,-1,0,2021-08-06 14:06:53,203929
1,0,0,-1,0,-2,0,-1,2021-08-06 14:06:53,203929
1,1,-1,1,0,0,1,-1,2021-08-06 14:06:53,203929
1,-1,-1,0,-1,-1,-1,-1,2021-08-06 14:06:53,203929
-2,-3,-2,-2,-2,-2,0,-1,2021-08-06 14:06:53,203929
0,0,0,1,2,1,0,-1,2021-08-06 14:06:53,203929
-1,-1,1,-1,0,-2,-2,-2,2021-08-06 14:06:53,203929
-2,-2,-1,-1,-3,-1,-2,-1,2021-08-06 14:06:53,234915
0,-1,-1,1,-1,1,-2,-1,2021-08-06 14:06:53,234915
-1,0,-2,-3,-1,-1,-2,-1,2021-08-06 14:06:53,234915
0,1,3,0,0,0,-1,2,2021-08-06 14:06:53,234915
1,-1,-2,-1,-2,0,0,-1,2021-08-06 14:06:53,249877
-2,-1,-2,-2,-2,-1,-1,0,2021-08-06 14:06:53,265915
-1,-2,-2,-1,-1,-1,-1,1,2021-08-06 14:06:53,281915
1,-1,-2,0,0,-1,-1,1,2021-08-06 14:06:53,281915
-1,-3,-3,0,1,-1,0,-2,2021-08-06 14:06:53,281915
-1,-3,0,0,0,-2,-1,-1,2021-08-06 14:06:53,281915
-1,-2,-1,1,-1,0,-1,-1,2021-08-06 14:06:53,281915
-3,-3,0,0,0,-2,-1,-3,2021-08-06 14:06:53,281915
-2,0,-1,0,-2,0,0,0,2021-08-06 14:06:53,281915
1,0,0,-1,0,-2,-1,0,2021-08-06 14:06:53,282915
0,-2,-4,-1,-3,-3,-2,-2,2021-08-06 14:06:53,297915
1,1,0,0,0,0,0,1,2021-08-06 14:06:53,313877
0,1,-2,0,1,1,0,0,2021-08-06 14:06:53,313877
3,1,1,-1,0,2,2,1,2021-08-06 14:06:53,313877
-2,-2,-1,-1,-1,-1,-1,-3,2021-08-06 14:06:53,313877
-4,-3,-2,0,-2,-3,-2,-2,2021-08-06 14:06:53,313877
-3,0,-3,-2,0,-1,-2,-2,2021-08-06 14:06:53,313877
-1,-1,-1,-1,-1,-1,-1,0,2021-08-06 14:06:53,313877
1,0,-1,-1,-1,-1,1,-2,2021-08-06 14:06:53,345880
-1,0,0,0,0,1,1,-2,2021-08-06 14:06:53,361919
-2,-1,1,2,-1,-2,1,1,2021-08-06 14:06:53,377914
-2,-1,-2,-2,-1,-2,-1,-3,2021-08-06 14:06:53,393878
0,-2,0,0,0,-2,-1,-1,2021-08-06 14:06:53,393878
2,-1,1,-2,0,0,0,0,2021-08-06 14:06:53,393878
-2,-1,-1,-3,-1,0,-2,0,2021-08-06 14:06:53,393878
-2,0,-2,0,1,-1,1,-1,2021-08-06 14:06:53,393878
-1,0,0,1,0,0,2,2,2021-08-06 14:06:53,393878
-1,-1,-2,-1,-2,0,-2,-2,2021-08-06 14:06:53,394915
-2,-2,1,-1,0,0,-1,-2,2021-08-06 14:06:53,394915
1,0,0,1,-2,-2,0,-1,2021-08-06 14:06:53,394915
-2,-2,-2,-2,-2,-2,-2,0,2021-08-06 14:06:53,394915
0,-2,-3,-2,-2,-1,-2,-1,2021-08-06 14:06:53,394915
0,0,0,0,-1,-2,-4,-1,2021-08-06 14:06:53,409915
-1,-1,0,-2,1,-1,-1,-2,2021-08-06 14:06:53,424917
-2,-1,1,-1,-2,1,0,0,2021-08-06 14:06:53,456917
-1,0,-1,-1,-1,1,0,-1,2021-08-06 14:06:53,456917
-1,-2,1,-1,-2,-1,-2,-2,2021-08-06 14:06:53,456917
0,-1,-1,0,0,1,-2,0,2021-08-06 14:06:53,456917
-2,-1,-1,-2,0,0,-1,-2,2021-08-06 14:06:53,456917
-1,-2,-1,-1,0,-3,-2,-2,2021-08-06 14:06:53,456917
1,1,-1,0,-1,-1,1,-1,2021-08-06 14:06:53,456917
-2,0,0,1,-2,-1,0,-1,2021-08-06 14:06:53,456917
-1,0,0,0,0,1,0,0,2021-08-06 14:06:53,456917
-1,-2,-2,-1,-2,0,-2,-1,2021-08-06 14:06:53,457879
-1,-2,-1,-1,0,-2,-2,-3,2021-08-06 14:06:53,457879
-2,0,-2,-2,-2,1,-1,-1,2021-08-06 14:06:53,457879
-1,1,1,0,0,-2,-2,1,2021-08-06 14:06:53,472880
-1,0,0,-1,-1,0,1,0,2021-08-06 14:06:53,472880
-2,-1,-2,-2,-1,-2,-3,-1,2021-08-06 14:06:53,488919
0,0,0,-2,-1,-2,1,0,2021-08-06 14:06:53,488919
1,3,1,2,2,1,2,1,2021-08-06 14:06:53,488919
-1,0,0,-1,-1,-1,-1,0,2021-08-06 14:06:53,488919
0,-1,0,2,-1,0,-1,-1,2021-08-06 14:06:53,520880
-3,-4,-2,-1,-1,-2,-1,-3,2021-08-06 14:06:53,535882
-2,-2,-6,-2,-3,-2,-1,-3,2021-08-06 14:06:53,551878
-1,-3,-2,-1,-1,-1,1,-1,2021-08-06 14:06:53,551878
-2,-1,0,-2,-2,1,0,0,2021-08-06 14:06:53,551878
0,-2,0,1,0,0,0,-1,2021-08-06 14:06:53,551878
-2,-1,-1,-3,0,0,-2,-1,2021-08-06 14:06:53,551878
-1,-1,-2,0,-1,0,-2,-1,2021-08-06 14:06:53,551878
1,1,-1,-1,0,0,-1,-1,2021-08-06 14:06:53,552918
-1,1,0,-1,0,-1,-2,-1,2021-08-06 14:06:53,552918
-1,-3,-1,-2,-4,-2,-1,-2,2021-08-06 14:06:53,552918
-2,-2,-1,-2,-1,-2,-2,-2,2021-08-06 14:06:53,552918
-1,-3,-3,-3,0,-1,0,-1,2021-08-06 14:06:53,582914
1,-1,0,1,-2,-1,0,-1,2021-08-06 14:06:53,582914
0,0,0,0,0,1,1,1,2021-08-06 14:06:53,582914
0,0,-1,-3,-2,0,-1,-3,2021-08-06 14:06:53,582914
0,-1,-2,1,-2,0,-1,0,2021-08-06 14:06:53,582914
-4,-3,-3,-3,-2,-3,-3,-4,2021-08-06 14:06:53,582914
2,1,-1,-1,0,-2,-1,-2,2021-08-06 14:06:53,582914
1,2,1,0,-2,0,-1,0,2021-08-06 14:06:53,583915
-2,-1,-3,-1,1,0,-1,-2,2021-08-06 14:06:53,614928
0,-1,-4,-2,-1,-1,-2,0,2021-08-06 14:06:53,630917
-4,-3,-2,-2,-3,-1,-1,-2,2021-08-06 14:06:53,630917
-1,1,-2,-2,0,-1,-1,0,2021-08-06 14:06:53,630917
-1,2,0,0,-3,0,-1,1,2021-08-06 14:06:53,630917
0,1,0,-1,0,1,0,1,2021-08-06 14:06:53,630917
-4,-2,1,1,0,-1,-1,-3,2021-08-06 14:06:53,630917
0,0,-3,-3,-1,-1,0,0,2021-08-06 14:06:53,630917
0,0,-1,-1,-1,-1,0,0,2021-08-06 14:06:53,646916
-2,0,0,0,-1,-1,-3,-2,2021-08-06 14:06:53,662921
0,-1,-1,0,1,0,-3,-1,2021-08-06 14:06:53,677928
-1,-1,-1,0,-2,-1,-1,-3,2021-08-06 14:06:53,693877
1,0,1,1,-1,-1,0,1,2021-08-06 14:06:53,693877
0,0,-1,2,0,0,-1,3,2021-08-06 14:06:53,693877
0,-1,-2,-3,-3,-1,-2,0,2021-08-06 14:06:53,693877
-1,-1,0,2,1,1,1,-1,2021-08-06 14:06:53,693877
-1,-3,-2,-1,0,0,-1,0,2021-08-06 14:06:53,693877
0,-1,0,-1,-2,0,0,0,2021-08-06 14:06:53,694881
-1,-2,-1,-2,-1,0,-1,0,2021-08-06 14:06:53,694881
-1,1,0,-1,0,-2,0,0,2021-08-06 14:06:53,694881
0,-1,-2,-2,-2,-2,-2,-3,2021-08-06 14:06:53,709914
0,-2,-2,-1,-1,-1,0,0,2021-08-06 14:06:53,724916
-1,-1,0,0,-1,-1,-2,-1,2021-08-06 14:06:53,740929
-2,-2,-1,0,-1,-3,-1,-1,2021-08-06 14:06:53,756901
-2,-1,0,0,0,-2,-1,-1,2021-08-06 14:06:53,772883
-2,-3,-1,-1,-2,-2,-2,-2,2021-08-06 14:06:53,772883
0,0,-1,0,-1,-1,0,1,2021-08-06 14:06:53,772883
0,0,-1,-2,-2,0,0,2,2021-08-06 14:06:53,772883
-1,-1,2,-1,1,0,0,0,2021-08-06 14:06:53,772883
1,0,0,-2,-1,0,1,-2,2021-08-06 14:06:53,772883
-1,0,0,1,-1,0,-2,0,2021-08-06 14:06:53,772883
0,-1,1,0,1,0,0,-1,2021-08-06 14:06:53,772883
-2,-1,-2,-3,-2,-1,-1,-1,2021-08-06 14:06:53,772883
-2,1,0,-3,-2,1,-1,0,2021-08-06 14:06:53,772883
-1,-2,-2,-1,-2,-1,-1,-3,2021-08-06 14:06:53,772883
-2,-2,-2,-2,-1,-1,-2,-2,2021-08-06 14:06:53,772883
-2,-1,-1,0,-2,-3,-2,-1,2021-08-06 14:06:53,787881
-1,0,1,2,0,-1,0,-1,2021-08-06 14:06:53,787881
1,4,2,1,0,-1,1,1,2021-08-06 14:06:53,787881
0,0,1,0,0,-1,-1,0,2021-08-06 14:06:53,787881
-1,-2,-1,0,1,0,-2,0,2021-08-06 14:06:53,818916
-3,-1,-2,-2,-2,-2,-4,-3,2021-08-06 14:06:53,818916
-2,-2,-3,-1,-1,-4,-2,-2,2021-08-06 14:06:53,834915
-1,0,0,-1,-2,0,-1,1,2021-08-06 14:06:53,834915
0,-1,-4,-4,-1,-1,-1,0,2021-08-06 14:06:53,834915
2,0,-1,0,0,1,2,0,2021-08-06 14:06:53,834915
-1,-2,-1,0,-2,-1,-1,-1,2021-08-06 14:06:53,834915
-1,-1,-2,0,0,0,-2,-1,2021-08-06 14:06:53,834915
-2,-2,-3,-1,-1,-1,-2,-3,2021-08-06 14:06:53,850915
0,1,-1,-1,0,0,-1,1,2021-08-06 14:06:53,850915
0,-2,-1,0,1,0,1,-2,2021-08-06 14:06:53,850915
-1,-1,-2,-3,-3,-1,0,-2,2021-08-06 14:06:53,850915
0,0,0,2,-2,-1,0,0,2021-08-06 14:06:53,882915
-1,-2,0,-1,0,-1,-2,-1,2021-08-06 14:06:53,897917
0,-1,-1,-2,-2,-2,-1,1,2021-08-06 14:06:53,913927
0,0,0,-1,0,-1,-1,-1,2021-08-06 14:06:53,913927
0,0,1,-1,-1,-1,0,0,2021-08-06 14:06:53,913927
-3,-2,-2,-2,0,-1,-2,-2,2021-08-06 14:06:53,913927
0,1,0,0,-1,2,-1,-1,2021-08-06 14:06:53,913927
-1,-1,-2,1,-1,-1,-1,-2,2021-08-06 14:06:53,913927
-3,-4,-2,-2,1,0,-2,-2,2021-08-06 14:06:53,913927
-2,-2,-2,-2,-2,-1,-1,0,2021-08-06 14:06:53,914915
2,3,3,2,2,1,1,3,2021-08-06 14:06:53,914915
-1,-1,-1,-1,-1,-3,0,0,2021-08-06 14:06:53,914915
-1,0,1,2,0,-1,1,0,2021-08-06 14:06:53,928930
-2,-3,-3,-4,-2,-1,-1,-2,2021-08-06 14:06:53,928930
-4,-4,-5,-5,-2,-1,-2,-3,2021-08-06 14:06:53,928930
1,0,1,1,-1,0,0,0,2021-08-06 14:06:53,928930
0,-1,-1,-2,-1,-1,0,-1,2021-08-06 14:06:53,944915
-2,1,-1,0,0,0,1,1,2021-08-06 14:06:53,960323
-1,-1,-2,-2,-2,-2,-2,-2,2021-08-06 14:06:53,960323
-1,-2,-2,0,0,0,-1,-1,2021-08-06 14:06:53,960323
0,-1,0,-1,-2,-1,-1,0,2021-08-06 14:06:53,960323
2,0,1,1,-1,-1,0,0,2021-08-06 14:06:53,960323
-1,-1,0,-2,-2,-2,-1,-1,2021-08-06 14:06:53,976324
-2,-2,-4,-1,0,-2,-3,-3,2021-08-06 14:06:53,976324
0,-1,0,-2,-1,0,0,1,2021-08-06 14:06:53,991372
0,-1,-1,-1,-1,0,0,-1,2021-08-06 14:06:54,007362
-1,-2,-2,-1,-2,-1,-1,-2,2021-08-06 14:06:54,007362
-1,-1,0,-2,-2,-1,0,-1,2021-08-06 14:06:54,007362
-1,0,-1,0,-1,-2,0,1,2021-08-06 14:06:54,007362
-1,-1,0,-1,-1,-2,-1,0,2021-08-06 14:06:54,007362
-1,-3,-4,-1,-2,-2,-2,-3,2021-08-06 14:06:54,023364
1,-1,-3,-4,-3,0,0,0,2021-08-06 14:06:54,023364
3,4,2,2,2,3,4,2,2021-08-06 14:06:54,023364
0,-1,-1,0,-1,0,1,-1,2021-08-06 14:06:54,023364
-2,-3,-3,-2,0,0,-1,-2,2021-08-06 14:06:54,023364
-4,-3,0,3,0,1,-1,-3,2021-08-06 14:06:54,023364
-3,-3,-3,-1,-2,-3,-3,-4,2021-08-06 14:06:54,053374
0,1,2,2,1,-2,-1,-1,2021-08-06 14:06:54,069325
-1,0,1,-2,-1,-2,1,-1,2021-08-06 14:06:54,085362
-1,0,-2,-1,-1,-3,-2,0,2021-08-06 14:06:54,085362
1,1,0,3,2,2,0,-1,2021-08-06 14:06:54,101376
-1,-1,-2,-1,-4,-1,-1,0,2021-08-06 14:06:54,117361
-2,-5,-4,-8,-8,-5,-2,1,2021-08-06 14:06:54,117361
0,3,2,4,4,3,-1,2,2021-08-06 14:06:54,117361
1,4,7,15,13,5,1,1,2021-08-06 14:06:54,117361
-2,-4,-4,-2,-1,2,1,1,2021-08-06 14:06:54,117361
-3,-6,-10,-20,-21,-12,-5,-3,2021-08-06 14:06:54,117361
-1,-3,-3,-9,-7,-4,0,-2,2021-08-06 14:06:54,117361
-2,1,5,9,12,4,0,0,2021-08-06 14:06:54,118361
1,6,8,18,23,14,4,2,2021-08-06 14:06:54,118361
-3,-4,-7,-15,-19,-11,-3,-2,2021-08-06 14:06:54,118361
-3,-1,-3,-9,-18,-12,-4,-3,2021-08-06 14:06:54,118361
-2,-1,-3,-5,-6,-1,0,0,2021-08-06 14:06:54,118361
-2,0,1,-2,-2,-2,-1,-2,2021-08-06 14:06:54,133326
0,1,5,14,16,9,2,1,2021-08-06 14:06:54,149376
2,2,3,3,3,1,1,2,2021-08-06 14:06:54,149376
-2,-4,-4,-4,-4,-4,-2,-2,2021-08-06 14:06:54,149376
-1,-2,-4,-1,-1,-1,-1,-2,2021-08-06 14:06:54,149376
0,2,0,4,5,2,0,2,2021-08-06 14:06:54,149376
-1,0,-1,1,4,2,0,0,2021-08-06 14:06:54,149376
-1,-2,-4,-6,-5,-2,-2,0,2021-08-06 14:06:54,180734
0,-3,-3,-7,-6,-7,-3,0,2021-08-06 14:06:54,180734
-1,-2,2,6,4,2,-1,-2,2021-08-06 14:06:54,180734
-2,-1,-1,-1,0,1,-2,0,2021-08-06 14:06:54,180734
-1,-2,-3,-6,-4,-1,-2,0,2021-08-06 14:06:54,180734
-1,-1,-4,-5,-8,-4,-3,-3,2021-08-06 14:06:54,180734
1,4,3,3,4,3,1,-1,2021-08-06 14:06:54,196738
0,-2,0,2,3,2,0,-2,2021-08-06 14:06:54,196738
0,0,-2,-4,-6,-1,0,-1,2021-08-06 14:06:54,205700
-1,0,-1,-3,-4,-1,-2,-2,2021-08-06 14:06:54,205700
0,2,3,4,4,2,1,2,2021-08-06 14:06:54,206737
-1,-1,-3,-2,-1,1,-1,-1,2021-08-06 14:06:54,206737
-3,-4,-2,-6,-3,-3,-3,-3,2021-08-06 14:06:54,228698
-2,-2,-2,-2,-2,-1,-1,0,2021-08-06 14:06:54,244700
-1,1,1,3,3,3,0,0,2021-08-06 14:06:54,244700
-1,-1,-2,-2,-3,-1,0,0,2021-08-06 14:06:54,244700
-1,-2,-4,-3,-3,-2,1,-2,2021-08-06 14:06:54,244700
0,2,1,-1,0,0,0,0,2021-08-06 14:06:54,244700
-2,-1,-2,0,-2,-2,-1,-2,2021-08-06 14:06:54,260697
0,-1,0,2,1,-2,-1,-1,2021-08-06 14:06:54,260697
-1,-1,-2,-2,-2,-3,-1,-2,2021-08-06 14:06:54,260697
-2,-2,-3,-3,-2,-2,0,-1,2021-08-06 14:06:54,260697
2,1,0,0,2,0,0,0,2021-08-06 14:06:54,276747
-2,1,-1,0,1,-1,-1,-2,2021-08-06 14:06:54,292735
-1,0,-2,-2,-3,-1,-1,1,2021-08-06 14:06:54,308734
-3,-4,-4,-1,-1,-2,-2,-2,2021-08-06 14:06:54,324740
-1,-1,-1,-2,0,0,-1,1,2021-08-06 14:06:54,356697
0,1,0,2,2,0,0,0,2021-08-06 14:06:54,372700
0,-3,-3,-3,-3,-1,-1,-2,2021-08-06 14:06:54,388748
-1,0,1,-2,-2,-1,-1,0,2021-08-06 14:06:54,404699
-2,-2,0,1,0,2,0,-1,2021-08-06 14:06:54,420735
1,-1,-2,-1,0,1,-1,-2,2021-08-06 14:06:54,420735
-2,-1,0,-2,-1,-1,-1,-1,2021-08-06 14:06:54,420735
-1,-2,-1,-2,-2,-1,0,0,2021-08-06 14:06:54,420735
-3,-1,-2,-1,0,-1,-1,-2,2021-08-06 14:06:54,420735
-2,-2,-1,-1,0,0,-1,-1,2021-08-06 14:06:54,420735
0,-1,-1,0,0,0,1,-1,2021-08-06 14:06:54,420735
-1,-2,-3,-4,-3,-1,-2,-3,2021-08-06 14:06:54,421742
2,2,1,2,1,1,1,1,2021-08-06 14:06:54,421742
2,1,0,0,0,-1,0,1,2021-08-06 14:06:54,421742
0,-1,-1,-1,-2,-3,-1,1,2021-08-06 14:06:54,421742
-1,-1,-1,-2,-3,-2,-1,-1,2021-08-06 14:06:54,421742
-1,-1,-2,-2,-1,-1,-2,-1,2021-08-06 14:06:54,421742
-2,-2,-2,-1,0,-2,-2,-1,2021-08-06 14:06:54,421742
-2,-2,-3,-2,-1,-2,-1,-2,2021-08-06 14:06:54,421742
0,0,0,-1,-1,-2,0,0,2021-08-06 14:06:54,421742
-2,-1,-2,-1,-1,-2,-3,-3,2021-08-06 14:06:54,421742
1,1,2,-1,0,0,0,1,2021-08-06 14:06:54,422739
-1,-2,-2,1,-1,-1,-1,-1,2021-08-06 14:06:54,422739
-2,0,-1,-1,-1,-2,-2,-1,2021-08-06 14:06:54,422739
0,-1,-1,-2,0,0,0,-3,2021-08-06 14:06:54,422739
-2,-1,-2,-1,-2,-3,-1,-1,2021-08-06 14:06:54,422739
-3,-2,1,0,-1,0,-3,-1,2021-08-06 14:06:54,436748
-2,-1,0,0,0,0,0,0,2021-08-06 14:06:54,452747
-1,0,-2,-2,-1,1,-1,0,2021-08-06 14:06:54,468736
-2,-3,-1,-2,-2,-2,-2,-3,2021-08-06 14:06:54,468736
-3,0,-1,-1,-2,-1,0,0,2021-08-06 14:06:54,469297
-2,-3,0,0,-1,-2,-2,-1,2021-08-06 14:06:54,469297
1,1,0,0,1,1,2,2,2021-08-06 14:06:54,469297
1,0,0,-1,-2,1,2,0,2021-08-06 14:06:54,469737
1,0,-1,-1,0,1,1,1,2021-08-06 14:06:54,469737
-1,1,0,-1,-2,-3,-4,-2,2021-08-06 14:06:54,469737
-3,-2,-1,-1,-1,3,10,2,2021-08-06 14:06:54,469737
1,-2,-2,0,2,1,-3,0,2021-08-06 14:06:54,469737
0,-1,0,1,-2,-11,-11,-4,2021-08-06 14:06:54,500700
-1,0,-2,-3,-4,-3,-4,-1,2021-08-06 14:06:54,516699
0,-1,1,-1,-1,-5,-3,-2,2021-08-06 14:06:54,516699
-3,-1,-2,1,0,1,3,0,2021-08-06 14:06:54,516699
1,0,0,0,2,6,6,4,2021-08-06 14:06:54,516699
0,0,1,3,3,2,1,-2,2021-08-06 14:06:54,516699
0,0,-4,-2,-3,-2,-2,0,2021-08-06 14:06:54,516699
1,0,0,-2,-1,0,0,0,2021-08-06 14:06:54,516699
-3,-1,0,0,0,-2,-2,-2,2021-08-06 14:06:54,532737
-1,1,-2,-3,1,1,2,0,2021-08-06 14:06:54,532737
-4,-3,-1,-1,-2,0,-2,-1,2021-08-06 14:06:54,532737
-3,-2,0,0,-4,-4,-3,0,2021-08-06 14:06:54,532737
-1,-1,-2,0,1,1,-1,-1,2021-08-06 14:06:54,562747
0,-3,-3,1,0,0,0,-2,2021-08-06 14:06:54,562747
2,2,3,0,0,0,-1,0,2021-08-06 14:06:54,562747
0,-2,0,0,-2,-2,-1,-2,2021-08-06 14:06:54,562747
0,1,0,-1,-2,0,0,1,2021-08-06 14:06:54,562747
1,-1,1,-3,-3,-2,2,-1,2021-08-06 14:06:54,562747
-3,-2,-1,1,0,-3,-4,-3,2021-08-06 14:06:54,578747
-2,-1,-1,-1,-2,-1,1,0,2021-08-06 14:06:54,578747
1,0,-1,-1,0,1,1,1,2021-08-06 14:06:54,594746
-1,-3,0,-1,-1,-1,-1,0,2021-08-06 14:06:54,594746
1,-1,1,1,-1,0,-2,0,2021-08-06 14:06:54,610734
-1,-1,-1,0,0,0,-2,0,2021-08-06 14:06:54,610734
-1,-1,-2,-3,-2,0,0,-2,2021-08-06 14:06:54,610734
1,0,0,1,0,1,0,1,2021-08-06 14:06:54,610734
0,-1,-1,0,-2,-2,0,-1,2021-08-06 14:06:54,610734
-2,0,0,1,0,0,-1,-2,2021-08-06 14:06:54,610734
-1,-1,0,-1,-1,-3,-2,0,2021-08-06 14:06:54,626700
-1,-2,-1,0,1,-1,0,-1,2021-08-06 14:06:54,641697
-2,-3,-1,0,0,-1,-3,-2,2021-08-06 14:06:54,641697
2,-1,-1,-1,-1,0,1,-1,2021-08-06 14:06:54,641697
0,1,-1,-3,-1,0,0,-3,2021-08-06 14:06:54,672713
-2,0,1,0,-2,-1,-1,0,2021-08-06 14:06:54,688749
0,0,-3,1,-2,0,0,-1,2021-08-06 14:06:54,688985
0,-2,0,-2,0,-3,-2,-1,2021-08-06 14:06:54,688985
0,-1,-1,0,-1,1,0,0,2021-08-06 14:06:54,688985
-2,-2,-2,-1,-2,-1,-1,-1,2021-08-06 14:06:54,688985
-2,-1,-2,-2,-1,-1,-1,-2,2021-08-06 14:06:54,688985
-1,-1,0,0,1,0,-2,-2,2021-08-06 14:06:54,689697
1,-1,1,0,-1,-1,0,-1,2021-08-06 14:06:54,689697
-1,0,1,0,0,0,-1,-2,2021-08-06 14:06:54,689697
-1,-3,-3,-3,-2,0,-2,0,2021-08-06 14:06:54,689697
-2,0,-1,-1,-2,-1,0,0,2021-08-06 14:06:54,689697
0,0,-2,-1,-1,-1,1,1,2021-08-06 14:06:54,720169
1,0,-3,-2,-1,-1,1,-2,2021-08-06 14:06:54,720169
0,-2,0,-1,-2,-2,-4,-2,2021-08-06 14:06:54,720169
-2,0,-1,0,-1,-1,-1,-1,2021-08-06 14:06:54,720169
-1,-2,-3,-1,-1,-1,0,-3,2021-08-06 14:06:54,736169
-1,0,0,-2,-2,-1,-1,0,2021-08-06 14:06:54,752173
0,-1,-1,1,0,-2,0,0,2021-08-06 14:06:54,768175
-2,-4,-2,0,0,-1,-1,-1,2021-08-06 14:06:54,768175
-3,-2,-1,-1,-2,-1,-2,-2,2021-08-06 14:06:54,768175
-1,-1,-1,-1,1,-1,1,-2,2021-08-06 14:06:54,768175
-1,0,0,0,0,-1,0,0,2021-08-06 14:06:54,768175
0,-1,-1,-2,-2,-1,-1,-1,2021-08-06 14:06:54,768175
-1,2,2,3,-1,0,-1,-1,2021-08-06 14:06:54,768175
-2,-1,-1,-2,-2,-1,0,-1,2021-08-06 14:06:54,768175
0,-3,-1,0,-1,-1,-1,0,2021-08-06 14:06:54,768175
-1,0,-3,-1,1,-2,-1,-1,2021-08-06 14:06:54,769133
-1,-3,-2,-2,-2,-2,-1,0,2021-08-06 14:06:54,800135
0,0,0,1,-1,-1,-1,-1,2021-08-06 14:06:54,800135
-2,0,0,-1,-3,-1,-2,-1,2021-08-06 14:06:54,800135
0,-2,-3,-3,-2,-1,0,-2,2021-08-06 14:06:54,800135
0,-1,-1,0,-1,-1,-1,0,2021-08-06 14:06:54,800135
0,-1,1,0,0,-1,-2,-1,2021-08-06 14:06:54,800135
2,-1,-2,1,0,0,-1,-2,2021-08-06 14:06:54,816181
0,-1,1,-2,-2,-1,-3,-2,2021-08-06 14:06:54,816181
-3,-5,-1,-1,-3,-1,-2,-1,2021-08-06 14:06:54,832172
1,0,-2,-4,-2,0,0,3,2021-08-06 14:06:54,832172
0,-1,0,0,0,0,1,-2,2021-08-06 14:06:54,832172
-1,-1,-1,0,-1,-2,-2,0,2021-08-06 14:06:54,832172
1,0,-1,-2,0,0,-1,0,2021-08-06 14:06:54,862135
-2,-2,-1,1,-1,1,0,-1,2021-08-06 14:06:54,878182
-2,-1,-2,-2,-2,-2,-1,1,2021-08-06 14:06:54,878182
-1,0,-3,2,1,-1,0,0,2021-08-06 14:06:54,878182
0,0,0,0,0,-1,-1,-1,2021-08-06 14:06:54,878182
1,-1,-2,-2,-1,-2,-1,-1,2021-08-06 14:06:54,878182
-1,-1,0,0,1,1,0,-1,2021-08-06 14:06:54,878182
-1,-2,-3,-1,-2,0,0,0,2021-08-06 14:06:54,878182
-2,-2,-2,-3,-2,-2,-1,1,2021-08-06 14:06:54,894132
-2,0,0,1,0,0,-1,-2,2021-08-06 14:06:54,894132
-1,-1,1,-2,0,-1,-2,-3,2021-08-06 14:06:54,894132
-1,1,1,4,4,0,0,0,2021-08-06 14:06:54,894132
0,2,5,14,12,6,2,-2,2021-08-06 14:06:54,925134
1,1,10,-1,-3,0,-1,1,2021-08-06 14:06:54,934168
-3,-6,-18,-30,-35,-22,-8,-4,2021-08-06 14:06:54,935133
-1,0,-5,3,-6,-3,-2,-2,2021-08-06 14:06:54,935133
1,-1,-2,4,3,1,1,0,2021-08-06 14:06:54,935133
-1,1,-7,-16,4,4,2,-1,2021-08-06 14:06:54,935133
-1,1,12,6,6,5,0,0,2021-08-06 14:06:54,935133
-3,-1,1,-4,-1,-1,-1,-1,2021-08-06 14:06:54,935133
-4,-2,-2,5,-4,-2,-2,-2,2021-08-06 14:06:54,957168
-1,-1,1,13,7,2,0,1,2021-08-06 14:06:54,973183
-1,0,-3,0,3,3,1,0,2021-08-06 14:06:55,005168
-1,-2,-3,-2,-3,-1,1,-1,2021-08-06 14:06:55,020182
0,1,2,-1,0,1,-1,0,2021-08-06 14:06:55,020182
-1,-2,-3,-3,-4,-4,-2,0,2021-08-06 14:06:55,020182
0,0,-2,2,2,1,0,0,2021-08-06 14:06:55,020182
-2,-1,3,1,1,1,0,-2,2021-08-06 14:06:55,020182
-2,-1,-4,-9,-5,-3,-1,-1,2021-08-06 14:06:55,021134
0,0,0,-3,-3,-2,-1,-1,2021-08-06 14:06:55,021134
0,0,2,5,4,1,-1,1,2021-08-06 14:06:55,021134
0,-1,1,-1,4,2,1,-1,2021-08-06 14:06:55,021134
0,-3,-5,-8,-8,-5,-1,-1,2021-08-06 14:06:55,021134
-3,-2,-4,2,-3,-3,-3,-2,2021-08-06 14:06:55,021134
-1,0,2,7,6,2,2,-1,2021-08-06 14:06:55,021134
0,-1,-2,-10,-6,-2,0,-1,2021-08-06 14:06:55,021134
-1,-1,-2,-4,-4,-2,0,-2,2021-08-06 14:06:55,036169
-2,-1,0,1,-1,-1,2,-3,2021-08-06 14:06:55,052177
-2,0,-1,4,3,2,0,-3,2021-08-06 14:06:55,068154
1,1,-1,-1,-1,0,0,-1,2021-08-06 14:06:55,068154
0,0,0,-1,0,-1,-2,0,2021-08-06 14:06:55,068154
-2,-4,-1,1,-1,-1,-2,-2,2021-08-06 14:06:55,068154
-1,0,-1,-1,0,0,-1,-1,2021-08-06 14:06:55,068154
0,0,0,0,0,-1,-1,0,2021-08-06 14:06:55,068154
1,-1,-2,-1,1,-1,-1,0,2021-08-06 14:06:55,068154
-1,0,-4,-3,-4,0,-3,0,2021-08-06 14:06:55,068154
1,-2,-2,-1,0,0,-1,-1,2021-08-06 14:06:55,069169
-2,0,0,0,0,0,-2,1,2021-08-06 14:06:55,069169
-2,-2,0,-2,0,-2,0,-1,2021-08-06 14:06:55,100131
1,0,-2,-2,-2,-3,-1,-2,2021-08-06 14:06:55,100131
-1,0,1,0,-2,1,2,0,2021-08-06 14:06:55,116177
1,0,0,0,0,1,0,-1,2021-08-06 14:06:55,116177
-2,-2,-2,-1,-2,-1,-3,-2,2021-08-06 14:06:55,116177
-1,0,-2,1,1,0,-1,0,2021-08-06 14:06:55,116177
0,-1,0,0,0,0,-1,1,2021-08-06 14:06:55,116177
-1,-2,0,0,0,-2,-2,-2,2021-08-06 14:06:55,116177
-2,0,0,-3,1,-3,0,0,2021-08-06 14:06:55,132168
-1,-2,-1,-1,0,0,0,0,2021-08-06 14:06:55,147134
-1,-1,0,1,-1,-1,0,-1,2021-08-06 14:06:55,147134
-1,0,-2,-2,-1,-3,-1,-1,2021-08-06 14:06:55,147134
1,0,0,0,-2,-2,-1,-1,2021-08-06 14:06:55,147134
-2,-3,0,-1,-2,-1,-1,-1,2021-08-06 14:06:55,147134
-3,-1,0,1,-1,1,-1,-1,2021-08-06 14:06:55,147134
-1,-3,-1,-1,-1,-1,-2,0,2021-08-06 14:06:55,147134
-1,-1,1,-1,-2,2,1,-1,2021-08-06 14:06:55,178182
-2,0,0,-1,-1,-2,-2,-2,2021-08-06 14:06:55,194136
0,-2,-4,-3,-1,-2,-1,-1,2021-08-06 14:06:55,194136
1,0,1,1,0,-1,0,-1,2021-08-06 14:06:55,194136
-1,-1,-1,-1,0,-1,-2,0,2021-08-06 14:06:55,194136
-1,-1,-2,-1,-1,0,-1,-1,2021-08-06 14:06:55,194136
-1,0,-2,-2,0,-1,-1,0,2021-08-06 14:06:55,194136
-1,0,-2,-1,-2,0,0,-1,2021-08-06 14:06:55,194136
-2,-2,-1,-3,-1,1,-3,-2,2021-08-06 14:06:55,210170
-1,1,1,2,-1,0,1,-1,2021-08-06 14:06:55,210170
2,0,0,-2,0,-1,1,1,2021-08-06 14:06:55,210170
-1,0,-1,-2,-3,0,0,0,2021-08-06 14:06:55,210170
-1,-2,1,-2,-1,-2,0,1,2021-08-06 14:06:55,226184
-1,-2,-1,-2,-3,-1,-1,-1,2021-08-06 14:06:55,242171
-2,0,0,1,0,-1,-2,0,2021-08-06 14:06:55,242171
-1,0,-1,-2,-2,-1,-1,0,2021-08-06 14:06:55,242171
0,-1,-2,-1,-1,0,-1,-1,2021-08-06 14:06:55,257186
-1,-2,-1,1,-2,-1,0,-1,2021-08-06 14:06:55,273136
0,-1,-3,0,-2,-1,0,1,2021-08-06 14:06:55,273136
-1,-2,-1,-3,0,0,0,0,2021-08-06 14:06:55,273136
-2,1,-1,-1,-1,-1,0,-1,2021-08-06 14:06:55,273136
0,-2,-1,-3,-2,-3,1,0,2021-08-06 14:06:55,273136
-1,-1,0,-1,-1,-2,-2,-1,2021-08-06 14:06:55,273136
-2,-2,0,-1,0,-1,-2,-1,2021-08-06 14:06:55,273136
-1,0,0,3,1,-1,-1,-3,2021-08-06 14:06:55,289182
1,0,0,-3,-1,-1,1,0,2021-08-06 14:06:55,294132
-2,0,0,-1,0,0,0,-1,2021-08-06 14:06:55,294132
2,0,0,3,2,1,-1,1,2021-08-06 14:06:55,294132
-1,1,-1,0,-2,-1,0,-1,2021-08-06 14:06:55,320171
-2,-3,-2,-3,-2,1,-4,-1,2021-08-06 14:06:55,336171
1,0,0,-1,-1,0,0,-1,2021-08-06 14:06:55,336171
-1,0,-1,-2,-1,-1,0,-1,2021-08-06 14:06:55,336171
-3,-1,0,-1,-2,1,0,1,2021-08-06 14:06:55,336171
-1,-1,0,-2,0,-1,0,-1,2021-08-06 14:06:55,336171
-2,-3,-2,-1,-2,-2,-2,0,2021-08-06 14:06:55,336171
-2,-3,0,4,1,1,0,-1,2021-08-06 14:06:55,336171
-1,-3,-1,-2,-2,-1,-1,-1,2021-08-06 14:06:55,352161
-2,-1,0,-1,-2,-1,-3,-1,2021-08-06 14:06:55,368134
0,1,1,0,2,2,0,-1,2021-08-06 14:06:55,400133
-2,-2,-1,-3,0,-2,0,-1,2021-08-06 14:06:55,416170
-1,0,-1,-1,-1,-1,-1,-1,2021-08-06 14:06:55,432168
-1,-1,0,0,0,0,-1,-1,2021-08-06 14:06:55,432168
-1,-2,-1,-1,1,-2,0,-1,2021-08-06 14:06:55,432168
-1,-1,0,0,0,-1,-2,-2,2021-08-06 14:06:55,432168
0,-2,-2,0,-1,0,1,1,2021-08-06 14:06:55,432168
-2,-1,-1,0,-1,-1,0,-1,2021-08-06 14:06:55,432168
-3,-1,-2,-1,-2,-1,-1,0,2021-08-06 14:06:55,432168
-1,0,-1,-3,-3,-1,-1,-2,2021-08-06 14:06:55,432168
0,-1,-1,0,0,0,0,-1,2021-08-06 14:06:55,432168
0,1,-1,-1,0,1,0,0,2021-08-06 14:06:55,433165
-1,0,1,0,1,0,-2,-1,2021-08-06 14:06:55,433165
-2,-1,-2,1,-1,0,-1,-2,2021-08-06 14:06:55,433165
-1,-2,-1,0,-1,0,-2,0,2021-08-06 14:06:55,447168
-1,-1,-3,3,1,0,0,-1,2021-08-06 14:06:55,447168
-1,0,-2,-5,-2,0,-1,0,2021-08-06 14:06:55,447168
-1,-2,-2,-1,-1,-2,-1,0,2021-08-06 14:06:55,447168
0,-1,-1,-3,-1,0,-1,-1,2021-08-06 14:06:55,447168
-1,-1,-1,-1,1,-2,-1,-2,2021-08-06 14:06:55,462134
0,0,1,0,-1,-1,1,1,2021-08-06 14:06:55,478183
-3,-2,-2,-1,-1,-1,-2,-1,2021-08-06 14:06:55,478183
-2,-3,-1,-2,-3,-4,-2,-2,2021-08-06 14:06:55,478183
0,1,-2,-1,0,1,1,0,2021-08-06 14:06:55,478183
-1,1,-2,-3,-2,-1,-2,-1,2021-08-06 14:06:55,478183
0,1,1,-1,0,-1,1,-1,2021-08-06 14:06:55,478183
-1,-1,-2,2,1,-2,-1,-3,2021-08-06 14:06:55,494133
-1,-2,-1,-4,-2,-3,0,-1,2021-08-06 14:06:55,510160
-2,-4,-3,1,-1,0,-1,-2,2021-08-06 14:06:55,510160
0,1,1,-3,-1,0,0,3,2021-08-06 14:06:55,510160
0,-2,-2,0,1,-1,-1,1,2021-08-06 14:06:55,510160
0,-2,-1,-2,-2,-2,0,-3,2021-08-06 14:06:55,510160
-1,-1,0,2,0,1,0,2,2021-08-06 14:06:55,510160
-2,-3,-2,-1,-3,-1,-1,-2,2021-08-06 14:06:55,510160
-1,1,-2,-3,0,-2,0,0,2021-08-06 14:06:55,542170
-1,-1,0,2,1,-1,-2,-2,2021-08-06 14:06:55,542170
-2,-1,-3,-2,-3,-3,0,0,2021-08-06 14:06:55,542170
1,0,-1,-1,0,-1,0,-1,2021-08-06 14:06:55,542170
0,1,-1,0,-3,0,-1,2,2021-08-06 14:06:55,558170
0,-2,0,0,1,0,-1,-1,2021-08-06 14:06:55,574182
-2,-1,-1,1,1,0,-1,0,2021-08-06 14:06:55,590169
0,-1,-2,1,-1,-1,-1,0,2021-08-06 14:06:55,590169
-2,0,-2,-5,-2,0,0,-2,2021-08-06 14:06:55,590169
0,-1,0,-1,-1,-2,-1,0,2021-08-06 14:06:55,590169
-1,-1,0,-1,-1,-2,-1,-2,2021-08-06 14:06:55,590169
-1,-3,-4,-3,-2,-1,-2,-1,2021-08-06 14:06:55,590169
1,1,2,1,1,1,0,1,2021-08-06 14:06:55,590169
-4,0,-4,-2,-1,-2,-1,0,2021-08-06 14:06:55,590169
-1,-1,-1,-2,-1,-1,-1,-2,2021-08-06 14:06:55,606169
-1,-2,0,1,2,2,0,-1,2021-08-06 14:06:55,606169
-2,-3,1,-2,-1,-2,-1,-2,2021-08-06 14:06:55,606169
-2,-2,-2,-3,-2,0,-1,-2,2021-08-06 14:06:55,606169
-1,1,1,1,0,0,-1,0,2021-08-06 14:06:55,622171
2,0,-3,-2,0,-2,-1,-1,2021-08-06 14:06:55,622171
1,2,1,1,0,1,1,1,2021-08-06 14:06:55,638183
-1,-1,1,0,-1,-2,-1,-1,2021-08-06 14:06:55,638183
0,-2,-3,-1,0,-1,0,-1,2021-08-06 14:06:55,638183
-3,-3,-1,-1,-2,-2,-2,-3,2021-08-06 14:06:55,638183
-2,-2,-1,-1,-2,0,-2,-1,2021-08-06 14:06:55,654162
0,0,-1,0,0,1,1,0,2021-08-06 14:06:55,654162
0,-2,0,1,-1,0,-1,-1,2021-08-06 14:06:55,654162
0,1,-1,-4,-2,-1,0,0,2021-08-06 14:06:55,654162
-2,-3,-4,-2,-1,-3,-3,-2,2021-08-06 14:06:55,670169
-1,0,-1,-1,-3,-1,-3,0,2021-08-06 14:06:55,670169
-1,0,0,-2,-1,-1,0,-1,2021-08-06 14:06:55,670169
-2,-3,1,-1,-1,0,0,1,2021-08-06 14:06:55,670169
0,-2,1,0,2,0,-2,-2,2021-08-06 14:06:55,702169
0,-2,0,-1,-1,1,-1,0,2021-08-06 14:06:55,702169
0,0,1,-2,0,-1,1,0,2021-08-06 14:06:55,702169
-2,-1,-2,-3,-3,-3,-1,-1,2021-08-06 14:06:55,702169
-1,-1,-2,-1,-2,0,-1,-1,2021-08-06 14:06:55,718134
-1,0,-1,0,1,-1,0,-2,2021-08-06 14:06:55,718134
0,0,-1,-1,0,-3,-1,-1,2021-08-06 14:06:55,718134
-1,0,0,3,1,2,1,0,2021-08-06 14:06:55,718134
-2,0,0,0,-1,-1,-1,-2,2021-08-06 14:06:55,733169
-1,-3,-1,-3,-2,-2,-2,-2,2021-08-06 14:06:55,733169
-2,-1,0,0,-1,1,-3,0,2021-08-06 14:06:55,733169
1,0,0,0,0,-2,0,-2,2021-08-06 14:06:55,733169
-1,1,-1,0,-1,-3,-1,-2,2021-08-06 14:06:55,765169
-1,0,0,0,-1,-1,2,0,2021-08-06 14:06:55,765169
-2,-1,-3,-1,-2,-2,0,-2,2021-08-06 14:06:55,765169
-1,-1,-2,1,0,2,0,1,2021-08-06 14:06:55,765169
-1,-3,-3,-2,-1,0,0,0,2021-08-06 14:06:55,781169
-1,-2,-2,-1,1,0,0,0,2021-08-06 14:06:55,797168
0,0,0,-2,0,1,1,0,2021-08-06 14:06:55,813169
-3,-2,-1,1,-1,0,-3,-3,2021-08-06 14:06:55,813169
-1,1,3,5,2,-1,-1,-3,2021-08-06 14:06:55,813169
-1,1,-1,-1,0,0,-3,-2,2021-08-06 14:06:55,813169
-1,-1,-2,-5,-5,-1,-1,-1,2021-08-06 14:06:55,813169
0,-1,0,-4,-4,-2,0,-2,2021-08-06 14:06:55,813169
0,-1,-4,-4,-2,-3,-1,0,2021-08-06 14:06:55,813169
1,1,2,8,6,2,1,1,2021-08-06 14:06:55,814169
0,1,1,3,4,3,0,1,2021-08-06 14:06:55,814169
-1,-1,0,-5,-6,-5,-2,-2,2021-08-06 14:06:55,814169
-2,-2,4,-3,-3,-3,-2,-1,2021-08-06 14:06:55,845169
1,1,-5,6,4,2,0,-3,2021-08-06 14:06:55,860168
0,-3,-1,0,2,3,0,-1,2021-08-06 14:06:55,875133
-5,-5,-13,-15,-14,-7,-2,-1,2021-08-06 14:06:55,875133
-1,-3,-2,-2,-4,-1,0,0,2021-08-06 14:06:55,875133
-1,-3,1,-4,-3,-2,-1,-2,2021-08-06 14:06:55,875133
-2,0,2,6,4,1,-1,-2,2021-08-06 14:06:55,875133
-1,0,3,5,6,2,-1,0,2021-08-06 14:06:55,875133
-1,0,0,-1,0,0,-2,-1,2021-08-06 14:06:55,875133
-1,-3,1,-1,-3,-2,-1,0,2021-08-06 14:06:55,876169
-1,-2,0,-2,-3,-2,-1,-2,2021-08-06 14:06:55,876169
-1,0,1,3,1,1,0,0,2021-08-06 14:06:55,876169
-1,0,-2,-1,1,0,-3,0,2021-08-06 14:06:55,907170
-1,0,1,-1,-1,-1,0,0,2021-08-06 14:06:55,923182
-1,-2,-2,-4,-4,-3,-3,-2,2021-08-06 14:06:55,939131
0,0,1,2,1,0,0,0,2021-08-06 14:06:55,939131
-1,-1,-2,0,1,1,1,-1,2021-08-06 14:06:55,939131
-2,-2,0,-3,-4,0,-2,-1,2021-08-06 14:06:55,939131
0,-1,-3,-3,-2,-2,0,-1,2021-08-06 14:06:55,939131
0,-1,0,2,2,0,-2,-2,2021-08-06 14:06:55,939131
-3,-1,-1,2,0,-1,-1,-1,2021-08-06 14:06:55,939131
0,-2,-1,-4,-3,-2,-1,0,2021-08-06 14:06:55,940137
0,0,-2,0,-1,-1,-1,-2,2021-08-06 14:06:55,940137
-1,-1,1,3,1,2,-1,1,2021-08-06 14:06:55,940137
0,0,-2,-2,-3,-2,-1,1,2021-08-06 14:06:55,955171
-2,-2,-2,-2,-3,-2,-2,-1,2021-08-06 14:06:55,971134
-1,0,-3,1,1,1,-1,0,2021-08-06 14:06:55,971134
0,0,-2,-1,1,0,-1,0,2021-08-06 14:06:55,971134
3,1,0,1,1,1,0,2,2021-08-06 14:06:55,971134
-2,0,-3,-2,-2,-1,-1,-3,2021-08-06 14:06:55,971134
-1,-2,0,-1,-1,-1,-2,-2,2021-08-06 14:06:55,971134
-1,-2,-2,0,0,1,-1,-1,2021-08-06 14:06:55,971134
-2,-2,-1,-3,-1,0,0,-1,2021-08-06 14:06:56,002172
0,2,-1,0,0,-2,1,1,2021-08-06 14:06:56,018170
-1,-1,-1,-1,-2,-1,-1,1,2021-08-06 14:06:56,019172
-1,0,0,1,0,-1,0,-2,2021-08-06 14:06:56,020134
-1,-2,-4,-5,-2,1,0,-2,2021-08-06 14:06:56,020134
-1,-1,0,-1,-2,-2,-1,-1,2021-08-06 14:06:56,020134
-1,-1,-1,-2,-3,0,-1,-1,2021-08-06 14:06:56,020134
1,0,-1,3,0,-1,-2,0,2021-08-06 14:06:56,020134
-1,-1,-1,1,0,0,1,1,2021-08-06 14:06:56,034173
-1,0,1,0,0,1,-1,-1,2021-08-06 14:06:56,034173
-1,-2,-2,-1,-3,-4,-1,0,2021-08-06 14:06:56,034173
0,1,-1,-1,-1,1,-2,-1,2021-08-06 14:06:56,034173
-2,-1,-1,-1,-2,-1,0,-1,2021-08-06 14:06:56,050135
-1,-1,-1,-1,-1,0,-1,-2,2021-08-06 14:06:56,050135
-1,1,0,-1,0,0,-2,-2,2021-08-06 14:06:56,050135
0,-2,-1,-2,-1,-2,-1,-2,2021-08-06 14:06:56,050135
0,0,0,-3,0,-1,-1,0,2021-08-06 14:06:56,082168
0,-3,-1,-1,-3,0,-1,1,2021-08-06 14:06:56,082168
-2,-2,-1,0,0,0,-1,-1,2021-08-06 14:06:56,082168
-1,-1,-2,-2,0,-2,-1,-1,2021-08-06 14:06:56,082168
0,-1,-1,0,0,1,-3,0,2021-08-06 14:06:56,082168
0,1,-1,0,0,-3,-1,0,2021-08-06 14:06:56,082168
0,-1,-1,-3,-1,-1,-1,-1,2021-08-06 14:06:56,098171
-2,-4,-2,-1,-2,-3,0,-1,2021-08-06 14:06:56,098171
-2,0,-1,1,1,0,1,0,2021-08-06 14:06:56,114168
-2,-3,-2,-1,-1,0,-1,-1,2021-08-06 14:06:56,130168
0,-1,2,-1,-1,-2,1,0,2021-08-06 14:06:56,146168
-2,-1,-2,-1,1,-1,1,-1,2021-08-06 14:06:56,146168
-1,-2,0,-3,-2,-2,0,-1,2021-08-06 14:06:56,146168
-1,0,-2,-1,0,0,1,-1,2021-08-06 14:06:56,146168
-1,-2,-1,1,-2,-1,-2,0,2021-08-06 14:06:56,146168
-1,0,1,1,0,2,0,0,2021-08-06 14:06:56,146168
-2,1,-1,-1,-2,-3,-3,-2,2021-08-06 14:06:56,146168
0,1,0,-2,0,-1,-2,0,2021-08-06 14:06:56,146168
-2,-1,-2,0,-1,-2,1,-1,2021-08-06 14:06:56,162134
0,-1,2,-1,-1,-1,0,0,2021-08-06 14:06:56,162134
-2,-2,-3,-1,-1,-1,-2,-1,2021-08-06 14:06:56,177181
-1,-2,-1,-1,0,0,-2,-1,2021-08-06 14:06:56,193158
-1,0,0,-2,-2,-2,-1,-1,2021-08-06 14:06:56,193158
-1,0,-1,-1,-2,1,-3,1,2021-08-06 14:06:56,193158
0,-2,-1,1,0,-1,1,-1,2021-08-06 14:06:56,193158
-2,-1,1,0,-1,-2,-2,-2,2021-08-06 14:06:56,193158
-1,-1,-3,0,-2,-1,-3,-1,2021-08-06 14:06:56,193158
1,0,0,0,1,1,1,1,2021-08-06 14:06:56,193158
-1,-1,0,0,-3,-1,-2,-3,2021-08-06 14:06:56,209134
-1,-1,-1,-1,0,0,-1,1,2021-08-06 14:06:56,224182
-2,-1,-1,-1,0,0,0,0,2021-08-06 14:06:56,240168
0,1,1,-1,-1,-2,-1,-2,2021-08-06 14:06:56,240168
-2,-1,-1,-1,-1,0,-1,0,2021-08-06 14:06:56,240168
-1,-1,0,-1,-2,-1,1,-1,2021-08-06 14:06:56,240168
-1,-1,-2,-1,0,-2,0,-2,2021-08-06 14:06:56,240168
-1,-1,-1,-2,-2,-2,-1,-1,2021-08-06 14:06:56,240168
-1,-1,-1,-1,1,-1,0,-1,2021-08-06 14:06:56,255134
-2,-1,1,0,-1,-3,-1,-1,2021-08-06 14:06:56,270169
-2,0,0,0,-1,0,-2,0,2021-08-06 14:06:56,270169
-1,-3,-3,-5,-4,0,-2,-1,2021-08-06 14:06:56,270169
0,0,0,0,-1,0,-1,0,2021-08-06 14:06:56,270169
-1,0,-2,-3,-1,0,-1,-1,2021-08-06 14:06:56,270169
-1,-2,-1,2,0,-1,0,-1,2021-08-06 14:06:56,270169
-1,-3,0,1,-2,-1,0,2,2021-08-06 14:06:56,270169
-1,-1,-3,0,1,-1,0,-1,2021-08-06 14:06:56,302169
-2,-2,-2,0,-3,-1,1,1,2021-08-06 14:06:56,318169
-2,-2,-1,-2,0,0,-1,-2,2021-08-06 14:06:56,318169
-1,-1,-2,0,0,-2,-1,-3,2021-08-06 14:06:56,318169
-1,-2,-1,0,0,1,0,-1,2021-08-06 14:06:56,318169
-2,-3,-2,-3,-2,-1,-1,-1,2021-08-06 14:06:56,318169
1,-1,0,0,2,1,1,1,2021-08-06 14:06:56,318169
-1,1,-1,0,-1,-2,-1,-1,2021-08-06 14:06:56,318169
-1,0,-1,-3,-2,0,-1,1,2021-08-06 14:06:56,350134
1,2,1,1,0,0,1,0,2021-08-06 14:06:56,365182
-2,-2,-1,0,-1,-1,-1,-1,2021-08-06 14:06:56,381170
0,-1,-1,-1,1,0,0,-1,2021-08-06 14:06:56,381170
-1,-1,0,1,0,-2,-2,0,2021-08-06 14:06:56,381170
-2,0,-3,-3,-3,-1,-2,-1,2021-08-06 14:06:56,381170
0,-1,0,-2,-1,-1,-2,-1,2021-08-06 14:06:56,381170
-1,-1,0,0,1,-2,-1,0,2021-08-06 14:06:56,381170
0,-1,1,-2,-1,0,0,-2,2021-08-06 14:06:56,381170
-1,-2,0,-1,-1,-1,1,-1,2021-08-06 14:06:56,382176
0,-2,-2,-1,-2,-1,-1,-2,2021-08-06 14:06:56,382176
0,-1,0,0,-2,-2,-1,-1,2021-08-06 14:06:56,382176
0,0,0,-2,-2,-1,-1,0,2021-08-06 14:06:56,397168
1,-1,0,-1,-2,-2,-2,-2,2021-08-06 14:06:56,413181
1,1,-2,-1,-1,0,0,-1,2021-08-06 14:06:56,429148
-1,-2,-3,0,-1,0,0,-2,2021-08-06 14:06:56,429148
-1,-1,-2,-1,1,0,-1,-1,2021-08-06 14:06:56,429148
-2,-2,-2,0,-3,-2,-1,-2,2021-08-06 14:06:56,429148
-1,0,-2,2,1,0,0,1,2021-08-06 14:06:56,429148
-2,0,0,-1,-2,0,0,-1,2021-08-06 14:06:56,429148
-3,-4,0,-1,-1,-3,-1,-1,2021-08-06 14:06:56,429148
2,2,0,0,1,1,-1,1,2021-08-06 14:06:56,429148
1,0,1,0,-1,0,1,0,2021-08-06 14:06:56,445168
-1,-1,-1,-1,-2,-2,-1,-1,2021-08-06 14:06:56,445168
-1,-1,-1,-1,-1,-2,-1,-2,2021-08-06 14:06:56,460170
-2,-3,-3,-3,0,-2,-1,-1,2021-08-06 14:06:56,460170
-2,0,-2,-3,-1,-3,-1,-2,2021-08-06 14:06:56,460170
0,0,0,0,2,0,-2,2,2021-08-06 14:06:56,460170
0,-2,-2,-1,0,-1,-1,-1,2021-08-06 14:06:56,476183
0,0,-1,0,-1,-2,-1,-1,2021-08-06 14:06:56,476183
-1,-1,0,-1,1,0,0,-2,2021-08-06 14:06:56,476183
-1,-2,-1,-1,-1,-1,0,-2,2021-08-06 14:06:56,476183
-2,0,1,-1,-2,-1,-3,0,2021-08-06 14:06:56,492168
-1,-1,-2,1,-1,-1,-1,-2,2021-08-06 14:06:56,492168
-1,-3,-1,-1,-1,-1,0,-1,2021-08-06 14:06:56,492605
1,0,2,0,0,0,0,-1,2021-08-06 14:06:56,492605
0,-1,0,1,-1,-1,-1,1,2021-08-06 14:06:56,523783
-1,0,-2,-6,0,0,-1,1,2021-08-06 14:06:56,523783
-1,-1,-1,-2,-2,-1,0,-1,2021-08-06 14:06:56,523783
-2,-1,-2,-1,0,1,0,-1,2021-08-06 14:06:56,523783
-1,0,0,-2,0,1,1,0,2021-08-06 14:06:56,539762
-2,-1,0,2,1,1,-2,-1,2021-08-06 14:06:56,539762
-1,-1,-1,-1,-2,-1,-2,-1,2021-08-06 14:06:56,539762
-1,0,-3,1,-1,-1,-2,0,2021-08-06 14:06:56,539762
0,2,0,0,0,0,0,-1,2021-08-06 14:06:56,555782
1,-1,-2,-1,-2,-1,-1,-1,2021-08-06 14:06:56,555782
-1,0,-1,-2,0,-1,-1,-1,2021-08-06 14:06:56,555782
-1,-3,0,-1,-1,-1,0,-2,2021-08-06 14:06:56,555782
-1,-3,-1,1,0,-2,0,-1,2021-08-06 14:06:56,587791
-1,-2,-1,-2,-2,-2,-3,-2,2021-08-06 14:06:56,587791
0,2,1,3,1,0,-1,1,2021-08-06 14:06:56,587791
-2,-2,-2,-2,-1,-2,-2,0,2021-08-06 14:06:56,587791
0,0,-2,-3,-2,-1,1,-1,2021-08-06 14:06:56,603796
-2,-1,-1,2,0,-1,-1,1,2021-08-06 14:06:56,603796
-2,-1,-2,-2,0,-1,-2,-1,2021-08-06 14:06:56,603796
-2,-1,-1,-2,-1,0,0,-1,2021-08-06 14:06:56,603796
-2,-1,-2,0,0,-2,-1,-2,2021-08-06 14:06:56,618783
0,-1,-2,0,0,-1,-1,-1,2021-08-06 14:06:56,618783
-1,0,-2,-2,-3,0,-2,-1,2021-08-06 14:06:56,618783
0,-1,0,-1,-1,-1,-1,0,2021-08-06 14:06:56,618783
-1,-2,0,-1,-2,-1,-4,0,2021-08-06 14:06:56,649787
2,0,2,-2,0,1,0,1,2021-08-06 14:06:56,665795
-1,0,-1,0,1,-1,-1,1,2021-08-06 14:06:56,697785
-1,0,-1,-1,-2,-1,0,0,2021-08-06 14:06:56,697785
-2,-2,-1,-2,-3,-1,0,-1,2021-08-06 14:06:56,697785
-1,-1,-2,0,1,0,1,1,2021-08-06 14:06:56,697785
-2,-3,-3,0,-1,-1,-2,-2,2021-08-06 14:06:56,697785
-3,-2,0,0,0,-1,-2,-3,2021-08-06 14:06:56,697785
-2,1,-2,1,-1,-1,-2,-2,2021-08-06 14:06:56,697785
0,0,-1,-1,-1,-1,-2,-1,2021-08-06 14:06:56,697785
1,-1,1,-1,-2,-1,-1,0,2021-08-06 14:06:56,698783
0,-1,0,-2,-4,-2,-1,0,2021-08-06 14:06:56,698783
0,-1,-3,-2,-1,0,0,-2,2021-08-06 14:06:56,698783
-1,-1,-2,0,0,-1,0,-1,2021-08-06 14:06:56,698783
-1,0,0,0,-2,-1,-1,-2,2021-08-06 14:06:56,698783
-1,-1,-2,-1,-1,0,0,1,2021-08-06 14:06:56,698783
0,-2,0,-2,0,-1,0,-2,2021-08-06 14:06:56,713796
-2,-2,-2,-2,-1,-1,-1,0,2021-08-06 14:06:56,714025
-1,-2,-2,-2,-2,-1,-1,-1,2021-08-06 14:06:56,714025
1,2,1,0,1,-2,0,-1,2021-08-06 14:06:56,714025
-1,-2,1,-1,0,0,-1,-1,2021-08-06 14:06:56,745215
-2,-1,0,1,-2,-2,0,-1,2021-08-06 14:06:56,748213
-2,-1,0,-2,-2,-2,0,-1,2021-08-06 14:06:56,748213
0,-1,0,0,-1,0,-1,0,2021-08-06 14:06:56,748213
0,-2,-1,0,-1,0,-1,0,2021-08-06 14:06:56,761215
-1,-1,-2,0,-2,-2,-1,-3,2021-08-06 14:06:56,761215
0,-1,1,-3,-1,0,0,-1,2021-08-06 14:06:56,761215
-1,-1,-1,-1,0,-3,-1,0,2021-08-06 14:06:56,761215
1,-1,-2,-2,0,-1,-1,-3,2021-08-06 14:06:56,777225
-1,-2,1,0,0,-2,1,-2,2021-08-06 14:06:56,793217
1,0,-3,-2,-1,-1,-2,-1,2021-08-06 14:06:56,793217
-1,0,-1,0,-1,-1,-2,-1,2021-08-06 14:06:56,793217
0,-1,-1,-1,-1,-1,-2,-1,2021-08-06 14:06:56,793217
0,0,-2,-1,-2,0,-1,-2,2021-08-06 14:06:56,793217
-1,-1,-1,-1,0,0,0,-1,2021-08-06 14:06:56,793217
0,0,-1,1,-1,0,-1,-1,2021-08-06 14:06:56,793217
0,-2,0,-1,0,0,-3,1,2021-08-06 14:06:56,825181
-1,-1,-1,-2,1,1,-2,0,2021-08-06 14:06:56,825181
-2,1,1,0,1,0,-1,1,2021-08-06 14:06:56,825181
1,-1,-3,-4,-2,1,0,-1,2021-08-06 14:06:56,825181
-1,1,-1,-1,0,-2,-1,-2,2021-08-06 14:06:56,825181
-2,-3,-1,-1,-2,0,-1,-1,2021-08-06 14:06:56,825181
-2,-4,-1,-1,-2,-1,-2,-3,2021-08-06 14:06:56,841231
0,0,0,-1,0,-1,1,0,2021-08-06 14:06:56,841231
-1,-1,-1,-2,-3,0,0,-1,2021-08-06 14:06:56,857216
-1,-1,0,-2,-2,0,-1,0,2021-08-06 14:06:56,873219
0,0,-3,1,0,-1,0,0,2021-08-06 14:06:56,889181
-2,-2,-1,-2,0,0,-2,-1,2021-08-06 14:06:56,889181
0,0,0,-2,-2,-2,0,-1,2021-08-06 14:06:56,889181
-1,1,-1,1,-1,0,0,-1,2021-08-06 14:06:56,889181
-1,-2,-1,0,-1,-2,0,-1,2021-08-06 14:06:56,889181
0,-3,-2,-1,-1,-2,1,-2,2021-08-06 14:06:56,889181
0,-1,-1,-1,-3,1,-1,0,2021-08-06 14:06:56,889181
0,0,-1,-1,-1,-1,1,-1,2021-08-06 14:06:56,889181
2,1,1,-1,-1,0,0,0,2021-08-06 14:06:56,905181
-1,0,-1,-3,0,2,-1,-2,2021-08-06 14:06:56,905181
-3,-2,-3,0,-1,-2,-1,-3,2021-08-06 14:06:56,921183
-1,-1,-1,-1,0,-4,0,-1,2021-08-06 14:06:56,937221
1,-1,-1,-2,-2,-1,-2,-1,2021-08-06 14:06:56,937221
-1,-1,0,0,-1,-1,-1,0,2021-08-06 14:06:56,937221
-1,0,-1,-1,-1,-2,-2,-1,2021-08-06 14:06:56,937221
0,-1,-2,-1,1,2,-2,-1,2021-08-06 14:06:56,937221
-3,-1,-3,-2,-1,-2,-1,-1,2021-08-06 14:06:56,937221
0,0,-1,0,-1,-1,-1,-2,2021-08-06 14:06:56,937221
0,0,0,3,2,0,0,-1,2021-08-06 14:06:56,969230
0,-2,-2,0,-1,-2,-2,0,2021-08-06 14:06:56,969230
-1,0,0,-3,-1,-2,0,-1,2021-08-06 14:06:56,969230
-1,0,1,1,0,1,-1,-2,2021-08-06 14:06:56,969230
-2,-2,-2,-3,-1,-2,-1,-2,2021-08-06 14:06:56,969230
-1,1,0,-1,-2,-2,-1,-1,2021-08-06 14:06:56,969230
-4,-1,-2,0,0,-1,-1,0,2021-08-06 14:06:56,969230
-1,-2,-5,-3,0,-1,1,-1,2021-08-06 14:06:56,969230
1,0,1,-1,-1,-2,0,1,2021-08-06 14:06:57,001182
0,0,0,0,0,2,-1,0,2021-08-06 14:06:57,001182
-1,0,0,1,-1,-1,1,-1,2021-08-06 14:06:57,001182
-2,0,-1,0,-3,-2,-1,1,2021-08-06 14:06:57,001182
-1,-1,0,-2,-2,-1,-1,0,2021-08-06 14:06:57,032216
-1,-1,-1,-2,-1,-1,-2,-2,2021-08-06 14:06:57,047215
0,-1,-1,-1,-1,-1,-2,-1,2021-08-06 14:06:57,047215
-2,-2,-2,0,0,-1,-2,-1,2021-08-06 14:06:57,047215
0,0,-1,-2,0,-1,-1,-2,2021-08-06 14:06:57,047215
-1,0,-1,-2,-1,-1,-2,0,2021-08-06 14:06:57,047215
-1,-2,-3,0,-2,-2,-3,-3,2021-08-06 14:06:57,047215
0,0,1,0,2,1,1,0,2021-08-06 14:06:57,047215
1,-2,-2,-1,0,3,2,2,2021-08-06 14:06:57,063228
4,3,3,0,-1,-1,2,2,2021-08-06 14:06:57,079180
0,-2,-2,-1,1,6,6,1,2021-08-06 14:06:57,079180
2,2,0,0,1,1,-2,3,2021-08-06 14:06:57,079180
-3,-3,-5,-7,-11,-22,-20,-9,2021-08-06 14:06:57,079180
-12,-10,-6,-4,-6,-8,-10,-8,2021-08-06 14:06:57,079180
4,2,2,0,3,6,5,5,2021-08-06 14:06:57,079180
-6,-3,1,4,5,10,5,-4,2021-08-06 14:06:57,079180
10,2,3,3,10,22,29,18,2021-08-06 14:06:57,109217
13,7,-2,-3,-4,-6,0,8,2021-08-06 14:06:57,109217
-16,-9,-9,-12,-19,-33,-30,-21,2021-08-06 14:06:57,109217
0,2,5,7,11,21,10,-1,2021-08-06 14:06:57,109217
16,13,11,11,9,4,9,20,2021-08-06 14:06:57,109217
-26,-24,-19,-18,-29,-41,-38,-29,2021-08-06 14:06:57,109217
-2,-3,-3,-6,0,4,-1,3,2021-08-06 14:06:57,126229
8,2,0,4,6,11,10,8,2021-08-06 14:06:57,126229
13,14,12,11,17,28,27,17,2021-08-06 14:06:57,142217
3,7,11,12,16,12,5,-14,2021-08-06 14:06:57,142217
15,7,7,7,7,9,12,13,2021-08-06 14:06:57,142217
-28,-6,-5,-11,-24,-50,-41,-12,2021-08-06 14:06:57,142217
-13,-19,-18,-15,-11,3,3,0,2021-08-06 14:06:57,158216
11,4,3,5,9,5,6,19,2021-08-06 14:06:57,158216
-2,-2,-2,-3,-4,-3,-16,-22,2021-08-06 14:06:57,158216
30,12,12,12,25,41,34,18,2021-08-06 14:06:57,158216
8,7,-2,-3,-17,-32,-21,5,2021-08-06 14:06:57,174229
-21,-14,-10,-10,-9,-8,-10,-15,2021-08-06 14:06:57,174229
8,8,11,15,19,24,18,9,2021-08-06 14:06:57,174229
-3,-3,-3,-5,-7,-5,-1,-3,2021-08-06 14:06:57,174229
-10,-3,-1,-2,-3,-7,-14,-18,2021-08-06 14:06:57,206215
-7,-6,-6,-3,1,10,5,-12,2021-08-06 14:06:57,222181
18,11,5,3,-1,-2,28,39,2021-08-06 14:06:57,238181
-45,-33,-23,-26,-37,-50,-54,-42,2021-08-06 14:06:57,253228
-3,-5,-4,-1,3,-1,-13,-13,2021-08-06 14:06:57,253228
21,16,13,10,17,23,19,16,2021-08-06 14:06:57,253228
-3,1,0,3,4,8,-7,-5,2021-08-06 14:06:57,253228
25,11,8,10,21,38,43,25,2021-08-06 14:06:57,253228
-19,-7,-6,-11,-31,-53,-26,-14,2021-08-06 14:06:57,253228
-15,-16,-8,-10,-7,6,-9,-7,2021-08-06 14:06:57,254180
9,12,7,5,2,-9,6,16,2021-08-06 14:06:57,254180
3,-3,-6,-10,-12,-23,-11,0,2021-08-06 14:06:57,254180
-2,-4,0,6,14,23,8,-6,2021-08-06 14:06:57,269229
-1,5,7,8,10,7,0,-2,2021-08-06 14:06:57,285219
19,7,1,-3,-4,4,3,7,2021-08-06 14:06:57,301181
-7,-9,-2,1,0,3,6,2,2021-08-06 14:06:57,317218
-6,-5,-11,-26,-37,-28,-7,-2,2021-08-06 14:06:57,333216
-14,-9,-2,15,27,9,5,-3,2021-08-06 14:06:57,333216
0,-3,0,5,11,18,5,-2,2021-08-06 14:06:57,333216
0,3,-2,-2,-10,-25,-25,-16,2021-08-06 14:06:57,333216
10,3,3,3,7,16,19,12,2021-08-06 14:06:57,333216
-7,-1,-7,-20,-37,-44,-33,-14,2021-08-06 14:06:57,334181
-22,-22,-10,0,5,9,-8,-23,2021-08-06 14:06:57,334181
20,26,15,15,22,39,35,20,2021-08-06 14:06:57,334181
-33,-25,-19,-17,-32,-62,-38,-21,2021-08-06 14:06:57,334181
13,11,7,1,3,18,23,19,2021-08-06 14:06:57,334181
0,0,1,2,1,-22,-14,-1,2021-08-06 14:06:57,334181
7,4,1,-2,2,17,3,-2,2021-08-06 14:06:57,334181
1,1,7,13,20,29,9,-6,2021-08-06 14:06:57,334181
4,0,-2,-3,-7,-7,0,5,2021-08-06 14:06:57,334181
-9,-4,-3,-5,-6,-3,-3,-5,2021-08-06 14:06:57,334181
-2,-5,-3,2,3,-3,-3,-2,2021-08-06 14:06:57,335219
7,7,5,10,16,18,3,1,2021-08-06 14:06:57,365229
6,2,1,2,1,3,10,9,2021-08-06 14:06:57,365229
-5,-9,-11,-14,-20,-17,-14,-9,2021-08-06 14:06:57,365229
-3,-2,0,3,3,-8,-7,-3,2021-08-06 14:06:57,365229
0,2,1,2,7,3,9,7,2021-08-06 14:06:57,381217
4,0,-2,-2,-3,4,-1,-3,2021-08-06 14:06:57,381217
-10,-6,-4,-5,-7,-4,-1,-3,2021-08-06 14:06:57,381217
-7,-7,-6,-8,-11,-13,-11,-4,2021-08-06 14:06:57,381217
2,4,3,4,9,12,-2,-7,2021-08-06 14:06:57,413225
2,3,5,7,11,12,5,1,2021-08-06 14:06:57,413225
-3,-3,-1,0,-2,-5,0,0,2021-08-06 14:06:57,413225
-4,1,-3,-2,-8,-10,-10,-5,2021-08-06 14:06:57,413225
7,5,4,0,0,4,10,12,2021-08-06 14:06:57,413225
1,0,-2,-2,0,-5,4,6,2021-08-06 14:06:57,413225
-3,-1,0,1,2,0,-1,-3,2021-08-06 14:06:57,413225
1,1,2,3,8,12,10,5,2021-08-06 14:06:57,414215
0,-1,-1,-1,2,6,-5,-8,2021-08-06 14:06:57,445218
0,-1,-2,-4,-5,-6,2,3,2021-08-06 14:06:57,461215
-7,-5,-4,-7,-7,-5,-6,-8,2021-08-06 14:06:57,472181
3,0,3,2,0,1,2,3,2021-08-06 14:06:57,472181
4,5,3,6,10,11,0,-2,2021-08-06 14:06:57,472181
-4,-5,-1,-1,-1,-1,-2,-5,2021-08-06 14:06:57,472181
-4,-1,-2,-6,-10,-11,-11,-9,2021-08-06 14:06:57,472181
-8,-7,-6,-6,-6,-7,-8,-7,2021-08-06 14:06:57,473180
5,2,0,2,4,3,5,5,2021-08-06 14:06:57,473180
1,1,0,-3,-5,-1,-2,-2,2021-08-06 14:06:57,473180
-5,-4,-2,-1,1,6,2,-4,2021-08-06 14:06:57,473180
-2,-1,-2,-2,-9,-16,-8,-3,2021-08-06 14:06:57,473180
0,-2,-3,-1,-1,0,3,3,2021-08-06 14:06:57,493217
1,3,-2,-2,-3,-1,1,2,2021-08-06 14:06:57,493217
2,2,-1,0,7,8,5,5,2021-08-06 14:06:57,493217
-4,-5,-3,-3,-3,-5,-2,-1,2021-08-06 14:06:57,493217
-5,-4,-3,-2,0,3,-3,-6,2021-08-06 14:06:57,509221
-4,-4,-3,-1,-4,-5,-7,-7,2021-08-06 14:06:57,509221
0,3,0,0,-2,-6,-2,2,2021-08-06 14:06:57,509221
-7,-5,-2,0,-4,-4,-4,-5,2021-08-06 14:06:57,509221
0,1,2,-1,-3,-5,-4,0,2021-08-06 14:06:57,541229
5,5,4,6,5,7,7,5,2021-08-06 14:06:57,541229
-4,-1,-2,-4,-7,-5,-5,-7,2021-08-06 14:06:57,541229
7,7,3,2,6,6,6,6,2021-08-06 14:06:57,541229
-3,-4,-2,-1,2,2,0,-2,2021-08-06 14:06:57,557217
-6,-4,-4,-3,-7,-9,-5,-3,2021-08-06 14:06:57,557217
0,-1,-2,2,2,1,2,1,2021-08-06 14:06:57,557217
-3,-2,-4,-8,-9,-6,-2,-3,2021-08-06 14:06:57,557217
-2,0,0,-1,-5,-4,-3,-2,2021-08-06 14:06:57,573181
2,1,2,5,6,5,0,1,2021-08-06 14:06:57,573181
-1,-3,-1,-2,1,1,1,1,2021-08-06 14:06:57,573181
1,-1,-1,0,2,4,2,0,2021-08-06 14:06:57,573181
-2,-4,-3,-2,-6,-4,-4,-3,2021-08-06 14:06:57,605218
-2,-3,-4,-6,-4,-4,-3,-2,2021-08-06 14:06:57,621181
-2,-1,0,1,-1,1,1,2,2021-08-06 14:06:57,637230
-2,-4,-2,4,5,2,0,0,2021-08-06 14:06:57,653229
0,0,1,-1,3,3,1,1,2021-08-06 14:06:57,669286
-2,-1,-1,-2,-6,-4,-5,-2,2021-08-06 14:06:57,669286
0,0,-1,0,3,2,2,0,2021-08-06 14:06:57,669286
-1,0,-1,-4,-3,-4,-2,-2,2021-08-06 14:06:57,669286
-4,-5,-4,-1,-2,0,0,-2,2021-08-06 14:06:57,669286
0,1,3,-1,-1,-2,-2,-2,2021-08-06 14:06:57,670285
1,0,-4,-8,-12,-9,-4,0,2021-08-06 14:06:57,670285
0,4,5,7,9,6,4,3,2021-08-06 14:06:57,670285
-4,-4,-1,-1,2,1,0,-2,2021-08-06 14:06:57,670285
-3,-3,-5,-3,-6,-6,-5,-7,2021-08-06 14:06:57,670285
-1,-1,1,0,-4,1,7,8,2021-08-06 14:06:57,670285
1,0,-1,1,5,2,-2,-1,2021-08-06 14:06:57,670285
2,2,2,2,5,5,4,2,2021-08-06 14:06:57,685285
0,-1,0,-2,-2,-6,-3,0,2021-08-06 14:06:57,701299
-5,-6,-5,-4,-7,-8,-8,-6,2021-08-06 14:06:57,717288
0,-1,-4,-8,-12,-7,-3,-2,2021-08-06 14:06:57,717288
0,1,1,3,1,3,-2,0,2021-08-06 14:06:57,717288
1,1,2,11,13,7,5,3,2021-08-06 14:06:57,717288
2,1,0,4,3,2,-2,-4,2021-08-06 14:06:57,717288
-1,-3,-1,-5,-5,-4,1,4,2021-08-06 14:06:57,717288
-2,-1,2,-3,-7,-7,-6,-7,2021-08-06 14:06:57,717288
-2,-1,-6,-7,-5,-1,1,3,2021-08-06 14:06:57,717288
0,-1,-2,2,4,2,1,0,2021-08-06 14:06:57,717288
-2,-3,-3,-2,-4,-2,-4,-4,2021-08-06 14:06:57,717288
-1,0,1,3,6,3,2,-1,2021-08-06 14:06:57,747294
1,1,2,1,2,2,2,-1,2021-08-06 14:06:57,747294
-2,-1,-1,0,1,3,1,0,2021-08-06 14:06:57,763285
0,0,-1,-1,-3,-6,-4,-2,2021-08-06 14:06:57,779250
0,-2,-3,-5,-5,-7,-7,-5,2021-08-06 14:06:57,779250
3,2,0,1,4,5,3,5,2021-08-06 14:06:57,779250
-4,-1,-1,-5,-7,-6,-9,-9,2021-08-06 14:06:57,779250
-2,-3,-2,2,1,0,1,0,2021-08-06 14:06:57,779250
-4,-2,-4,-5,-8,-4,1,0,2021-08-06 14:06:57,779250
2,0,2,6,10,6,0,-2,2021-08-06 14:06:57,779250
-17,-13,-2,-1,-4,-4,-9,-19,2021-08-06 14:06:57,779250
-13,-9,-4,-3,-3,-5,-14,-14,2021-08-06 14:06:57,779250
29,22,4,1,2,6,16,33,2021-08-06 14:06:57,810285
9,6,0,-2,-1,4,9,11,2021-08-06 14:06:57,825262
10,8,4,4,7,4,6,5,2021-08-06 14:06:57,840285
-6,-3,-3,-4,-4,-2,-2,-6,2021-08-06 14:06:57,840285
-14,-12,-7,-4,-7,-8,-9,-15,2021-08-06 14:06:57,840285
-4,-3,-3,-2,-1,0,-1,-3,2021-08-06 14:06:57,841285
4,2,4,8,9,3,2,3,2021-08-06 14:06:57,841285
-4,-3,-3,-4,-11,-6,-4,-4,2021-08-06 14:06:57,841285
-1,-1,0,2,5,0,-2,-3,2021-08-06 14:06:57,841285
-3,-4,-3,-6,-11,-8,-4,-2,2021-08-06 14:06:57,841285
0,-1,-2,-4,0,0,1,0,2021-08-06 14:06:57,841285
6,3,3,5,3,4,5,6,2021-08-06 14:06:57,841285
-4,-3,-3,-3,-7,-6,-4,-6,2021-08-06 14:06:57,857290
0,-1,3,2,3,2,0,-2,2021-08-06 14:06:57,873298
-1,-2,-6,-6,-8,-4,-3,1,2021-08-06 14:06:57,889298
4,2,1,2,4,2,3,5,2021-08-06 14:06:57,905249
-1,-1,0,2,3,1,-2,-3,2021-08-06 14:06:57,920285
-5,-4,-3,-5,-7,-9,-5,-5,2021-08-06 14:06:57,920285
-2,-2,-2,-5,-9,-6,-1,-1,2021-08-06 14:06:57,920285
5,2,0,4,10,7,8,8,2021-08-06 14:06:57,920285
-2,-3,-1,2,4,-1,0,-3,2021-08-06 14:06:57,920285
0,0,0,-2,1,1,0,1,2021-08-06 14:06:57,920285
2,4,2,3,0,1,0,1,2021-08-06 14:06:57,920285
-3,-2,-3,-4,-6,-4,-2,-3,2021-08-06 14:06:57,920285
-3,-1,0,2,1,1,-1,-4,2021-08-06 14:06:57,920285
-1,-2,-4,-4,-9,-9,-5,-1,2021-08-06 14:06:57,921288
1,2,1,2,11,6,4,4,2021-08-06 14:06:57,921288
-3,-1,-2,-3,-8,-6,-6,-6,2021-08-06 14:06:57,921288
-1,1,1,0,-1,1,1,0,2021-08-06 14:06:57,936286
0,1,2,3,5,3,1,-1,2021-08-06 14:06:57,952298
-4,-5,-2,-6,-9,-5,-3,-2,2021-08-06 14:06:57,968250
0,0,0,-5,0,-1,-1,1,2021-08-06 14:06:57,968250
-1,-3,0,2,2,0,0,-1,2021-08-06 14:06:57,968250
-2,-2,-2,-5,-10,-7,-5,-4,2021-08-06 14:06:57,968250
0,-1,-1,1,1,2,3,2,2021-08-06 14:06:57,968250
1,-1,-1,-3,-1,-3,-1,-1,2021-08-06 14:06:57,968250
-1,-2,-1,-1,1,0,0,0,2021-08-06 14:06:57,984250
-1,0,-1,2,2,2,0,-2,2021-08-06 14:06:57,984250
-2,-2,-2,-3,0,-1,-1,1,2021-08-06 14:06:57,984250
1,1,3,-1,-3,-3,-3,-3,2021-08-06 14:06:57,984250
0,-1,-1,-2,-1,-1,-2,-3,2021-08-06 14:06:58,000299
-2,-2,0,-1,-1,-1,0,0,2021-08-06 14:06:58,000299
0,-1,0,-2,-1,-2,-2,-1,2021-08-06 14:06:58,000299
2,1,1,-2,-2,0,0,1,2021-08-06 14:06:58,000299
-2,-3,-1,-1,-2,-2,-2,-3,2021-08-06 14:06:58,016250
1,1,1,2,3,3,-1,1,2021-08-06 14:06:58,016250
0,2,2,4,3,0,2,0,2021-08-06 14:06:58,016250
1,-4,-1,0,0,0,0,-2,2021-08-06 14:06:58,016250
-1,-1,-2,0,-2,-1,-1,0,2021-08-06 14:06:58,048274
-2,-2,-2,-1,2,-1,-2,-4,2021-08-06 14:06:58,048274
-3,-3,-3,-7,-8,-6,-3,-1,2021-08-06 14:06:58,048274
3,0,0,5,8,7,5,2,2021-08-06 14:06:58,048274
1,-2,0,-1,-1,-2,-2,0,2021-08-06 14:06:58,048274
-1,0,-2,-1,-3,-2,-3,-3,2021-08-06 14:06:58,048274
0,2,2,6,9,4,1,0,2021-08-06 14:06:58,063558
-3,-2,-3,-5,-7,-2,-1,-2,2021-08-06 14:06:58,063558
-1,1,0,-1,1,1,2,-1,2021-08-06 14:06:58,078712
-1,-1,1,-3,-6,-2,0,1,2021-08-06 14:06:58,078712
0,-1,-2,0,-1,0,1,0,2021-08-06 14:06:58,078712
-1,0,0,1,-2,-2,-1,-2,2021-08-06 14:06:58,078712
-2,-1,0,0,3,-1,0,-1,2021-08-06 14:06:58,109697
-2,-5,-4,-2,-4,-5,0,-1,2021-08-06 14:06:58,125662
-1,0,0,-4,-5,-4,-5,-3,2021-08-06 14:06:58,141660
-3,-2,-2,2,3,0,-1,0,2021-08-06 14:06:58,156711
2,0,1,1,1,1,2,1,2021-08-06 14:06:58,156711
1,1,0,3,7,2,1,-2,2021-08-06 14:06:58,156711
0,-1,-1,-3,-3,-2,0,1,2021-08-06 14:06:58,156711
-1,-1,-2,0,-2,-2,-2,-3,2021-08-06 14:06:58,156711
-3,-2,-3,-6,-6,-4,-5,-3,2021-08-06 14:06:58,156711
-2,-1,-2,1,1,0,0,0,2021-08-06 14:06:58,156711
0,0,0,-1,-3,-3,-1,-2,2021-08-06 14:06:58,157700
1,2,-1,-3,-1,-2,0,0,2021-08-06 14:06:58,157700
-1,-1,0,3,1,0,0,-1,2021-08-06 14:06:58,157700
0,0,-2,-1,0,1,1,0,2021-08-06 14:06:58,157700
0,0,-2,-1,0,-1,-2,-1,2021-08-06 14:06:58,157700
-3,-3,0,0,0,-3,1,-1,2021-08-06 14:06:58,157700
-2,-2,-3,-2,-4,-3,-2,0,2021-08-06 14:06:58,187663
-1,-1,-3,-6,-7,-4,-3,-1,2021-08-06 14:06:58,187663
4,3,3,10,16,10,6,5,2021-08-06 14:06:58,187663
0,-1,1,-1,-4,-2,-1,-1,2021-08-06 14:06:58,187663
0,-1,1,2,4,2,0,-1,2021-08-06 14:06:58,202699
-1,-2,0,-2,-4,-3,-2,-1,2021-08-06 14:06:58,202699
-4,-4,-3,-6,-10,-6,-3,-2,2021-08-06 14:06:58,202699
-1,2,2,2,5,4,3,0,2021-08-06 14:06:58,202699
-2,-2,-3,-6,-6,-4,-1,-1,2021-08-06 14:06:58,219711
0,0,2,4,9,6,3,3,2021-08-06 14:06:58,235661
2,-1,-2,-2,-1,-1,0,-2,2021-08-06 14:06:58,250664
-1,0,-1,0,-3,-1,-2,-2,2021-08-06 14:06:58,266674
-2,0,0,-5,-6,-5,-2,-3,2021-08-06 14:06:58,282698
-2,-4,-2,-1,-4,-2,-3,-5,2021-08-06 14:06:58,282698
2,1,-1,1,3,4,4,3,2021-08-06 14:06:58,282698
0,-1,-1,0,1,-2,-1,-1,2021-08-06 14:06:58,282698
-1,-1,-4,-2,-2,-3,-2,0,2021-08-06 14:06:58,282698
1,1,2,-2,-4,-1,-1,0,2021-08-06 14:06:58,282698
-2,-3,-2,-3,-4,-3,-3,-4,2021-08-06 14:06:58,282698
-3,0,-1,4,6,3,1,-1,2021-08-06 14:06:58,283700
-1,0,-3,-1,1,3,1,1,2021-08-06 14:06:58,283700
-3,-1,-3,1,-2,-4,-2,-2,2021-08-06 14:06:58,283700
-1,-2,-3,-3,-6,-5,-3,-2,2021-08-06 14:06:58,283700
1,0,-2,-8,-6,-2,-2,0,2021-08-06 14:06:58,283700
-2,-3,0,1,-2,-1,-1,-2,2021-08-06 14:06:58,314710
1,-1,-1,3,5,2,2,1,2021-08-06 14:06:58,314710
-1,1,3,7,12,6,1,1,2021-08-06 14:06:58,314710
-1,-1,-1,1,-2,-2,-2,0,2021-08-06 14:06:58,314710
-1,-2,1,-1,0,-1,-2,-2,2021-08-06 14:06:58,314710
-1,-2,-3,-6,-4,-2,-3,-1,2021-08-06 14:06:58,314710
-3,1,0,1,-4,-3,-2,-2,2021-08-06 14:06:58,314710
1,-1,-1,1,1,1,0,1,2021-08-06 14:06:58,315699
-2,-1,-4,-4,-5,-1,-3,-1,2021-08-06 14:06:58,346702
1,-1,1,2,5,3,2,0,2021-08-06 14:06:58,362696
-3,-3,-3,-8,-11,-8,-3,-4,2021-08-06 14:06:58,362696
1,0,1,1,6,3,1,1,2021-08-06 14:06:58,362696
1,2,1,3,5,3,2,3,2021-08-06 14:06:58,378714
-2,-2,-4,0,-2,0,0,-1,2021-08-06 14:06:58,394663
-1,1,0,2,4,3,1,0,2021-08-06 14:06:58,409695
0,1,0,-9,-2,-4,-2,-1,2021-08-06 14:06:58,425710
-3,-4,-4,-2,0,-2,-1,-2,2021-08-06 14:06:58,441660
0,-2,-6,-4,-4,-4,-2,0,2021-08-06 14:06:58,441660
-4,-4,-2,-7,-14,-8,-4,-4,2021-08-06 14:06:58,441660
2,1,0,0,5,5,4,4,2021-08-06 14:06:58,441660
2,3,5,6,7,4,0,-1,2021-08-06 14:06:58,441660
-1,1,1,2,3,3,0,-1,2021-08-06 14:06:58,441660
0,-4,-3,-3,-4,1,-1,0,2021-08-06 14:06:58,441660
-3,-5,-3,-5,-10,-7,-3,-3,2021-08-06 14:06:58,441660
0,-2,-2,-1,-3,-1,0,0,2021-08-06 14:06:58,442697
-2,-1,-1,-4,-4,0,-1,-1,2021-08-06 14:06:58,442697
0,0,3,5,7,4,0,-1,2021-08-06 14:06:58,442697
-4,-2,1,2,-5,-2,-3,-4,2021-08-06 14:06:58,442697
0,1,0,0,-1,0,1,-2,2021-08-06 14:06:58,442697
-3,-1,0,-1,2,-4,-2,-1,2021-08-06 14:06:58,442697
0,2,0,0,3,1,0,-1,2021-08-06 14:06:58,442697
0,1,-1,2,2,1,1,0,2021-08-06 14:06:58,442697
0,-1,-1,-12,-19,-10,-5,-4,2021-08-06 14:06:58,472660
2,2,6,5,14,8,4,2,2021-08-06 14:06:58,488663
1,3,-2,5,9,4,1,-2,2021-08-06 14:06:58,504661
-1,-6,-9,-3,-4,-5,-1,-1,2021-08-06 14:06:58,520711
0,-4,-8,-3,-1,0,-1,0,2021-08-06 14:06:58,536661
-3,-3,-2,-10,-12,-7,-5,-2,2021-08-06 14:06:58,536661
0,1,3,2,4,1,2,2,2021-08-06 14:06:58,536661
-2,0,5,1,-3,-4,-3,-3,2021-08-06 14:06:58,536661
-4,-1,3,3,3,-1,-1,-1,2021-08-06 14:06:58,536661
0,-1,-8,-3,-3,-1,1,0,2021-08-06 14:06:58,536661
-2,-5,-6,-4,-4,-4,-3,-1,2021-08-06 14:06:58,536661
1,-1,-1,1,3,4,1,0,2021-08-06 14:06:58,537663
-2,-2,3,3,1,-3,-1,-3,2021-08-06 14:06:58,537663
1,1,4,3,3,0,1,0,2021-08-06 14:06:58,537663
4,4,4,13,9,10,5,4,2021-08-06 14:06:58,537663
-1,-3,-5,-10,0,0,0,-2,2021-08-06 14:06:58,537663
-3,-3,-4,-8,-6,-4,-2,1,2021-08-06 14:06:58,538663
1,1,2,6,3,2,1,0,2021-08-06 14:06:58,538663
-2,-5,0,-1,-4,-5,-4,-3,2021-08-06 14:06:58,538663
1,-1,3,3,-3,-1,0,1,2021-08-06 14:06:58,538663
-1,0,-2,3,6,2,0,0,2021-08-06 14:06:58,565698
-2,-4,-4,-8,-6,-5,-2,-3,2021-08-06 14:06:58,565698
1,2,3,-5,-4,-1,-1,0,2021-08-06 14:06:58,565698
-1,1,2,1,-2,-2,-1,0,2021-08-06 14:06:58,565698
0,-2,-9,-4,3,4,0,0,2021-08-06 14:06:58,584697
-4,-4,-5,-4,-6,-3,-5,-3,2021-08-06 14:06:58,584697
2,3,5,7,12,7,4,3,2021-08-06 14:06:58,584697
-1,-1,1,0,-5,-1,-1,-1,2021-08-06 14:06:58,584697
-2,-2,0,-10,-10,-7,-5,-3,2021-08-06 14:06:58,600663
-1,-1,-1,-6,-10,-6,-2,-1,2021-08-06 14:06:58,600663
0,-1,3,5,-2,-1,-1,-1,2021-08-06 14:06:58,600663
1,4,-2,10,18,8,3,4,2021-08-06 14:06:58,600663
4,3,2,8,11,8,8,5,2021-08-06 14:06:58,616660
-7,0,3,-14,-14,-10,-6,-6,2021-08-06 14:06:58,616660
0,6,12,-8,-22,-15,-6,-4,2021-08-06 14:06:58,616660
3,-10,-19,26,30,18,8,3,2021-08-06 14:06:58,616660
0,-2,-4,-8,-3,2,1,1,2021-08-06 14:06:58,648698
-14,-22,-42,-32,-25,-21,-14,-10,2021-08-06 14:06:58,648698
-4,-15,-23,-19,-20,-12,-6,-3,2021-08-06 14:06:58,648698
-3,4,13,-9,-1,-1,-3,-2,2021-08-06 14:06:58,648698
3,5,7,4,8,6,1,0,2021-08-06 14:06:58,664714
8,18,38,29,13,7,4,3,2021-08-06 14:06:58,664714
0,4,10,10,7,3,2,2,2021-08-06 14:06:58,664714
2,-1,-3,7,10,5,4,2,2021-08-06 14:06:58,664714
-4,-6,-11,-10,-7,-4,-4,-3,2021-08-06 14:06:58,680696
-1,-4,-12,-11,-9,-4,-2,-1,2021-08-06 14:06:58,680696
1,2,14,10,4,2,2,1,2021-08-06 14:06:58,680696
0,4,10,13,8,4,1,-1,2021-08-06 14:06:58,680696
0,2,-9,-3,-4,-4,-1,0,2021-08-06 14:06:58,712662
1,3,7,15,13,6,2,2,2021-08-06 14:06:58,728677
-4,-11,-23,-5,1,0,-3,-2,2021-08-06 14:06:58,728677
-8,-15,-13,-44,-35,-17,-9,-7,2021-08-06 14:06:58,728677
-7,-8,-14,-28,-18,-10,-7,-8,2021-08-06 14:06:58,728677
-3,-4,-8,0,-5,-4,-3,-3,2021-08-06 14:06:58,728677
-1,3,8,-1,1,1,0,-1,2021-08-06 14:06:58,728677
3,9,18,21,5,6,3,2,2021-08-06 14:06:58,728677
4,7,14,18,9,6,3,3,2021-08-06 14:06:58,729661
3,2,6,5,9,8,5,4,2021-08-06 14:06:58,729661
0,0,-2,5,14,5,1,-2,2021-08-06 14:06:58,744697
-5,-8,-11,-11,-9,-4,-4,-4,2021-08-06 14:06:58,744697
2,3,4,6,1,-2,1,3,2021-08-06 14:06:58,760676
2,-1,2,7,11,22,13,7,2021-08-06 14:06:58,760676
0,1,-8,-15,-13,-9,-5,-2,2021-08-06 14:06:58,776698
-2,0,-6,-11,-19,-22,-8,-1,2021-08-06 14:06:58,792662
-15,-10,-4,-5,-20,-46,-33,-18,2021-08-06 14:06:58,808697
4,4,3,3,0,-3,-3,3,2021-08-06 14:06:58,808697
1,-1,-7,-5,1,3,0,1,2021-08-06 14:06:58,808697
-1,-1,-1,-3,3,8,4,-2,2021-08-06 14:06:58,808697
5,3,5,5,3,9,7,4,2021-08-06 14:06:58,808697
-2,-3,-2,-4,0,-1,-1,-2,2021-08-06 14:06:58,808697
-6,-4,-4,-2,-3,1,-1,-4,2021-08-06 14:06:58,808697
1,3,0,-7,-9,-5,-1,1,2021-08-06 14:06:58,808697
-2,-5,-1,3,-2,6,3,-1,2021-08-06 14:06:58,824697
4,4,3,13,29,15,8,2,2021-08-06 14:06:58,840710
0,1,1,-1,-2,-1,0,0,2021-08-06 14:06:58,856697
-3,-1,3,4,1,-5,-3,-2,2021-08-06 14:06:58,856697
1,-1,-8,-10,-17,-4,-1,-1,2021-08-06 14:06:58,856697
-2,-3,-5,-2,1,-1,-3,-2,2021-08-06 14:06:58,856697
-1,-2,2,-3,-2,-3,-2,-2,2021-08-06 14:06:58,856697
-3,-4,-11,-6,-8,-8,-7,-5,2021-08-06 14:06:58,856697
-2,0,6,2,0,4,2,1,2021-08-06 14:06:58,857700
1,3,0,-3,-5,-1,-2,1,2021-08-06 14:06:58,857700
-2,-2,-1,4,5,1,-1,0,2021-08-06 14:06:58,872661
-2,-2,-1,-2,-6,-3,-4,-2,2021-08-06 14:06:58,872661
2,0,-1,-6,2,4,4,2,2021-08-06 14:06:58,872661
-1,-3,1,3,4,1,0,-1,2021-08-06 14:06:58,872661
-1,0,2,5,-3,-4,-2,0,2021-08-06 14:06:58,888662
0,0,2,6,5,4,2,0,2021-08-06 14:06:58,888662
-1,-1,-3,-2,6,5,1,-2,2021-08-06 14:06:58,904696
-3,2,16,-1,-20,-16,-9,-4,2021-08-06 14:06:58,904696
-1,-5,-11,4,3,1,-4,-3,2021-08-06 14:06:58,904696
4,-3,-22,-29,-2,8,6,5,2021-08-06 14:06:58,904696
-5,-7,2,2,13,7,2,-1,2021-08-06 14:06:58,920662
-4,-6,-20,-7,-8,-9,-3,-5,2021-08-06 14:06:58,920662
-1,2,14,5,3,1,1,-1,2021-08-06 14:06:58,936713
-2,1,12,16,3,-4,-4,-4,2021-08-06 14:06:58,936713
0,3,3,0,0,2,2,1,2021-08-06 14:06:58,936713
-1,-2,5,-2,3,3,1,-1,2021-08-06 14:06:58,936713
-2,0,-2,2,-4,-5,-4,-2,2021-08-06 14:06:58,936713
1,0,1,-1,-5,-2,-2,1,2021-08-06 14:06:58,936713
0,3,2,8,5,2,-2,1,2021-08-06 14:06:58,968711
-2,-3,-6,-4,-3,0,-3,-1,2021-08-06 14:06:58,968711
-4,-5,-13,-24,-14,-6,-3,-3,2021-08-06 14:06:58,968711
-5,-5,-3,-5,-2,-5,-6,-4,2021-08-06 14:06:58,968711
-1,1,2,6,-4,-2,-1,-2,2021-08-06 14:06:58,968711
2,2,-4,13,11,7,4,2,2021-08-06 14:06:58,968711
-1,1,-1,-7,-2,-1,-1,-1,2021-08-06 14:06:58,984662
1,1,4,2,0,0,1,0,2021-08-06 14:06:58,984662
0,2,0,5,1,-1,0,-1,2021-08-06 14:06:59,000182
0,-2,1,-8,-6,-5,-3,-2,2021-08-06 14:06:59,015728
-1,0,-1,11,3,0,0,-1,2021-08-06 14:06:59,015728
1,3,12,14,3,0,-1,1,2021-08-06 14:06:59,015728
4,7,6,9,6,4,3,3,2021-08-06 14:06:59,015728
-3,-6,-23,-34,-16,-7,-1,-1,2021-08-06 14:06:59,015728
-8,-15,-20,-45,-17,-6,-4,-5,2021-08-06 14:06:59,031729
-7,-9,7,-11,-2,-1,-4,-6,2021-08-06 14:06:59,031729
-1,-4,-16,16,9,3,1,1,2021-08-06 14:06:59,031729
0,2,12,9,-9,-10,-3,-2,2021-08-06 14:06:59,031729
10,12,11,25,18,15,11,9,2021-08-06 14:06:59,062731
-1,-2,-2,-2,-4,-4,-1,-1,2021-08-06 14:06:59,062731
-1,0,8,-7,-6,-3,-3,-2,2021-08-06 14:06:59,062731
0,1,4,15,8,2,2,-1,2021-08-06 14:06:59,062731
-2,-4,-4,-2,-7,-3,-1,-1,2021-08-06 14:06:59,062731
0,2,-1,1,7,6,3,1,2021-08-06 14:06:59,062731
-2,-1,-1,0,0,-1,-3,-1,2021-08-06 14:06:59,094736
-3,-1,-3,-3,-1,0,-1,1,2021-08-06 14:06:59,094736
-1,-1,1,-9,-6,-3,-3,-3,2021-08-06 14:06:59,094736
1,0,-3,-4,-3,0,1,1,2021-08-06 14:06:59,094736
2,2,4,11,7,2,1,1,2021-08-06 14:06:59,094736
1,1,11,12,6,4,0,1,2021-08-06 14:06:59,094736
0,-2,-11,-9,-4,0,-2,0,2021-08-06 14:06:59,110732
-5,-6,-7,-36,-26,-14,-9,-7,2021-08-06 14:06:59,110732
-6,-6,0,-10,5,1,-2,-2,2021-08-06 14:06:59,126745
0,-2,-17,7,4,2,-1,0,2021-08-06 14:06:59,142722
-2,-5,-5,4,-2,-1,-1,0,2021-08-06 14:06:59,158732
3,4,-5,6,7,2,2,1,2021-08-06 14:06:59,158732
-2,0,16,1,-3,-2,-1,-2,2021-08-06 14:06:59,158732
2,3,7,12,9,9,5,2,2021-08-06 14:06:59,158732
-1,1,5,8,0,-5,-2,-2,2021-08-06 14:06:59,158732
-5,-6,-17,-18,-13,-13,-6,-5,2021-08-06 14:06:59,158732
0,-2,-1,-5,-6,-3,-1,0,2021-08-06 14:06:59,158732
0,4,5,-1,0,-4,-3,0,2021-08-06 14:06:59,159735
2,1,3,5,0,1,2,1,2021-08-06 14:06:59,159735
3,1,6,8,3,2,4,2,2021-08-06 14:06:59,159735
-3,-5,-7,-4,-6,-4,-3,-4,2021-08-06 14:06:59,190746
-5,-4,-8,-15,-14,-7,-2,-3,2021-08-06 14:06:59,206731
1,3,6,8,20,12,6,4,2021-08-06 14:06:59,207012
0,3,2,10,0,1,0,2,2021-08-06 14:06:59,207012
4,2,-4,-6,6,5,4,3,2021-08-06 14:06:59,207012
-2,-1,3,-7,-12,-7,-4,-2,2021-08-06 14:06:59,207012
0,1,9,17,7,1,-2,-1,2021-08-06 14:06:59,222119
0,-3,-11,-4,-4,-2,-2,-1,2021-08-06 14:06:59,222119
-8,-10,-14,-39,-20,-7,-6,-4,2021-08-06 14:06:59,222119
-2,-6,-13,-19,-6,-3,-2,-1,2021-08-06 14:06:59,222119
0,5,17,18,13,1,-3,0,2021-08-06 14:06:59,222119
3,8,21,58,26,13,5,5,2021-08-06 14:06:59,222119
2,0,-5,19,2,1,2,3,2021-08-06 14:06:59,238121
-6,-13,-27,-73,-34,-15,-7,-6,2021-08-06 14:06:59,238121
-14,-19,-28,-55,-35,-24,-16,-12,2021-08-06 14:06:59,238121
1,4,6,11,13,4,2,0,2021-08-06 14:06:59,238121
10,13,28,46,34,17,10,7,2021-08-06 14:06:59,286133
3,5,10,24,21,10,4,3,2021-08-06 14:06:59,286133
1,-3,-16,-20,-23,-12,-4,0,2021-08-06 14:06:59,286133
-5,-5,3,2,9,6,0,-1,2021-08-06 14:06:59,286133
0,1,-1,7,3,1,0,0,2021-08-06 14:06:59,286133
1,2,14,25,7,2,0,-1,2021-08-06 14:06:59,286133
-1,-3,-5,-18,-10,-7,-5,-3,2021-08-06 14:06:59,286133
-2,-2,-11,-12,-9,-7,-4,-1,2021-08-06 14:06:59,286133
-2,2,-3,-4,-3,-2,-1,-1,2021-08-06 14:06:59,302133
-2,-3,-1,4,-4,-3,-3,-1,2021-08-06 14:06:59,302133
4,6,10,14,18,12,6,1,2021-08-06 14:06:59,302133
2,0,-7,-11,-3,-1,0,1,2021-08-06 14:06:59,302133
-3,-6,-11,-18,-7,-3,-2,-2,2021-08-06 14:06:59,334085
0,-3,4,-7,-7,-7,-3,-1,2021-08-06 14:06:59,350085
1,3,11,25,9,3,2,2,2021-08-06 14:06:59,350085
0,2,5,19,7,6,2,1,2021-08-06 14:06:59,350085
-4,-4,-8,-10,-16,-10,-5,-4,2021-08-06 14:06:59,350085
2,4,-4,-28,6,7,3,1,2021-08-06 14:06:59,350085
-5,-8,-9,-4,-5,-2,-4,-3,2021-08-06 14:06:59,350085
-6,-9,-15,-29,-17,-9,-6,-5,2021-08-06 14:06:59,350085
-6,-9,-9,0,-12,-10,-6,-7,2021-08-06 14:06:59,366132
4,4,12,20,11,8,5,5,2021-08-06 14:06:59,366132
4,7,11,10,4,4,4,2,2021-08-06 14:06:59,366132
-1,1,3,-2,-11,-8,-4,-2,2021-08-06 14:06:59,366132
2,2,2,-6,3,2,1,1,2021-08-06 14:06:59,382125
-3,-3,-2,6,3,0,0,-2,2021-08-06 14:06:59,398126
-3,-1,-2,0,2,-1,-1,1,2021-08-06 14:06:59,414133
0,-2,-1,-1,-4,-2,0,0,2021-08-06 14:06:59,414133
1,1,-1,-2,4,2,1,1,2021-08-06 14:06:59,414133
2,1,0,7,5,1,2,1,2021-08-06 14:06:59,414133
-1,0,4,2,-2,-2,-1,-1,2021-08-06 14:06:59,414133
0,0,-1,-1,-6,-4,-1,-2,2021-08-06 14:06:59,414133
4,7,2,16,26,17,8,4,2021-08-06 14:06:59,414133
-3,-6,-12,-2,2,3,0,0,2021-08-06 14:06:59,415119
-5,-7,-14,-40,-12,-6,-3,-4,2021-08-06 14:06:59,430120
-5,-8,-12,-23,-15,-10,-6,-5,2021-08-06 14:06:59,446120
-1,-2,0,-3,-6,-5,-1,0,2021-08-06 14:06:59,462086
3,9,26,38,10,1,0,0,2021-08-06 14:06:59,462086
2,3,3,26,5,3,3,1,2021-08-06 14:06:59,462086
-1,-3,-8,-36,-15,-5,-3,-2,2021-08-06 14:06:59,462086
-3,-8,-18,-14,-6,-5,-4,-4,2021-08-06 14:06:59,462086
-3,-3,2,1,-1,1,-1,0,2021-08-06 14:06:59,462086
2,7,13,12,5,3,1,3,2021-08-06 14:06:59,463119
2,3,12,18,4,-1,1,1,2021-08-06 14:06:59,463119
-2,-6,-9,-12,-12,-7,-4,-4,2021-08-06 14:06:59,478133
-1,-3,-8,-4,3,-1,-2,0,2021-08-06 14:06:59,493853
2,0,1,14,22,11,3,1,2021-08-06 14:06:59,493853
-1,2,5,16,7,3,3,1,2021-08-06 14:06:59,493853
0,2,4,-5,5,1,1,1,2021-08-06 14:06:59,509855
-3,-4,-8,-17,-20,-13,-7,-6,2021-08-06 14:06:59,509855
-3,-5,-12,-34,-14,-7,-3,-3,2021-08-06 14:06:59,509855
3,10,27,25,15,5,2,1,2021-08-06 14:06:59,509855
1,1,0,24,-5,-4,-3,0,2021-08-06 14:06:59,525856
0,-9,-25,-30,-8,0,1,3,2021-08-06 14:06:59,541818
-6,-10,-30,-46,-22,-11,-8,-5,2021-08-06 14:06:59,556818
-7,-7,-8,-3,-3,-5,-5,-4,2021-08-06 14:06:59,556818
0,6,24,12,4,1,1,1,2021-08-06 14:06:59,556818
3,8,11,27,14,6,5,2,2021-08-06 14:06:59,556818
1,0,5,13,-3,-1,0,-1,2021-08-06 14:06:59,556818
0,-3,-13,-28,-9,-2,-2,-1,2021-08-06 14:06:59,556818
-2,-2,6,8,5,2,0,1,2021-08-06 14:06:59,556818
1,3,4,13,7,3,0,0,2021-08-06 14:06:59,556818
0,2,5,15,-1,-1,0,-1,2021-08-06 14:06:59,556818
2,1,2,11,15,7,4,1,2021-08-06 14:06:59,556818
2,4,9,15,11,6,3,2,2021-08-06 14:06:59,586853
-2,-2,-15,-26,-14,-7,-4,-1,2021-08-06 14:06:59,602853
-7,-12,-8,-34,-10,-3,-1,-1,2021-08-06 14:06:59,602853
-7,-10,-7,-2,-20,-18,-10,-7,2021-08-06 14:06:59,602853
2,1,-5,14,9,4,2,2,2021-08-06 14:06:59,602853
2,7,19,16,13,5,3,1,2021-08-06 14:06:59,602853
0,1,-4,2,-6,-5,-2,-1,2021-08-06 14:06:59,602853
-6,-9,-21,-43,-21,-9,-6,-6,2021-08-06 14:06:59,603855
-4,-9,-10,-33,-9,-5,-6,-4,2021-08-06 14:06:59,633816
-3,1,0,17,5,1,-2,-4,2021-08-06 14:06:59,648855
4,5,15,24,15,6,3,3,2021-08-06 14:06:59,664852
8,14,32,55,24,12,8,7,2021-08-06 14:06:59,664852
7,15,27,52,20,8,5,5,2021-08-06 14:06:59,664852
-4,-8,-18,-26,-25,-8,-2,-2,2021-08-06 14:06:59,664852
-8,-15,-36,-92,-37,-11,-8,-6,2021-08-06 14:06:59,664852
-9,-17,-40,-56,-11,-8,-6,-7,2021-08-06 14:06:59,664852
2,6,9,15,3,-2,-2,-1,2021-08-06 14:06:59,664852
2,5,28,49,15,4,1,1,2021-08-06 14:06:59,665866
3,8,9,31,13,5,3,3,2021-08-06 14:06:59,665866
0,-3,2,-4,-4,-2,0,0,2021-08-06 14:06:59,665866
-5,-10,-23,-30,-16,-7,-2,-3,2021-08-06 14:06:59,679856
1,3,2,7,15,5,2,0,2021-08-06 14:06:59,679856
-3,-1,8,18,12,8,3,1,2021-08-06 14:06:59,679856
10,14,8,15,6,4,0,2,2021-08-06 14:06:59,679856
-5,-5,-4,-20,-12,-9,-4,-4,2021-08-06 14:06:59,712855
1,2,9,23,6,1,1,1,2021-08-06 14:06:59,712855
8,8,0,-11,1,2,4,5,2021-08-06 14:06:59,712855
-7,-5,-7,-19,-17,-11,-7,-5,2021-08-06 14:06:59,712855
-7,-10,-13,-13,-17,-9,-8,-6,2021-08-06 14:06:59,712855
-4,-7,-7,-44,-14,-1,-2,-2,2021-08-06 14:06:59,712855
-2,-3,-15,25,17,4,-3,-4,2021-08-06 14:06:59,728816
2,4,12,24,8,4,2,2,2021-08-06 14:06:59,728816
4,9,17,17,1,-2,2,-1,2021-08-06 14:06:59,744852
-1,-7,-13,16,8,6,-1,-1,2021-08-06 14:06:59,744852
-2,-5,-8,-43,-18,-6,-3,-2,2021-08-06 14:06:59,744852
-6,-11,-12,-27,-14,-7,-5,-4,2021-08-06 14:06:59,744852
-5,-7,-17,-18,-15,-8,-5,-4,2021-08-06 14:06:59,776857
1,6,16,15,16,6,4,1,2021-08-06 14:06:59,776857
4,8,22,58,14,2,2,1,2021-08-06 14:06:59,776857
4,6,5,27,14,8,6,3,2021-08-06 14:06:59,776857
2,-3,-12,-40,-22,-4,-2,1,2021-08-06 14:06:59,792866
