EMG 1,EMG 2,EMG 3,EMG 4,EMG 5,EMG 6,EMG 7,EMG 8,Timestamp,Milliseconds
-1,-3,-4,-10,-11,-3,1,-1,2021-08-07 12:56:56,740807
5,7,7,2,0,2,3,4,2021-08-07 12:56:56,740807
0,2,2,5,6,4,3,1,2021-08-07 12:56:56,740807
-1,-2,-2,3,4,1,-1,-3,2021-08-07 12:56:56,740807
1,2,3,5,2,1,1,1,2021-08-07 12:56:56,740807
-2,-3,-5,-9,-10,-6,-3,-2,2021-08-07 12:56:56,740807
1,0,3,8,8,6,4,1,2021-08-07 12:56:56,741808
-1,-2,-3,-3,-4,-3,-3,-2,2021-08-07 12:56:56,741808
-3,-4,-4,-8,-8,-6,-4,-4,2021-08-07 12:56:56,756806
2,2,3,7,9,4,2,1,2021-08-07 12:56:56,756806
1,2,1,-1,-5,-4,-2,-1,2021-08-07 12:56:56,756806
-4,-5,-6,-4,-5,-1,-2,-3,2021-08-07 12:56:56,756806
2,2,2,1,2,0,1,0,2021-08-07 12:56:56,756806
-2,-2,-3,-8,-9,-3,-3,-1,2021-08-07 12:56:56,756806
0,1,1,-4,-7,-4,-1,0,2021-08-07 12:56:56,772807
-3,-2,-2,-13,-23,-14,-5,-3,2021-08-07 12:56:56,772807
-1,0,0,6,16,9,4,2,2021-08-07 12:56:56,788807
-2,-3,1,8,10,2,1,-1,2021-08-07 12:56:56,788807
-1,-3,-2,-4,-1,0,0,0,2021-08-07 12:56:56,804806
1,1,2,1,6,2,2,0,2021-08-07 12:56:56,804806
-3,-2,-3,-7,-13,-7,-4,-3,2021-08-07 12:56:56,804806
-1,0,0,-1,-2,-2,-1,-1,2021-08-07 12:56:56,804806
-2,-2,-3,-5,-6,-6,-3,-2,2021-08-07 12:56:56,835807
0,-1,-2,-5,-11,-6,-3,-1,2021-08-07 12:56:56,835807
0,-2,-1,4,12,7,3,1,2021-08-07 12:56:56,835807
2,1,1,2,3,2,2,-1,2021-08-07 12:56:56,835807
-2,-4,-4,-5,-7,-2,-1,-1,2021-08-07 12:56:56,867807
-2,-4,-5,-5,-5,-3,-1,-1,2021-08-07 12:56:56,867807
0,2,3,2,-1,0,0,1,2021-08-07 12:56:56,867807
-3,-1,0,-3,-5,-3,-3,-2,2021-08-07 12:56:56,867807
0,1,3,1,0,-1,-1,-3,2021-08-07 12:56:56,867807
-3,-3,-3,1,0,-3,-3,-1,2021-08-07 12:56:56,867807
1,3,1,1,0,2,1,-1,2021-08-07 12:56:56,868807
1,1,-2,-5,-1,1,1,2,2021-08-07 12:56:56,868807
4,4,6,15,18,9,6,3,2021-08-07 12:56:56,883807
-2,-1,-4,-7,-10,-8,-5,-1,2021-08-07 12:56:56,883807
-1,-3,-2,1,3,2,0,0,2021-08-07 12:56:56,899807
-4,-3,-3,-7,-14,-10,-4,-1,2021-08-07 12:56:56,899807
-1,-3,-4,-3,2,3,-1,-2,2021-08-07 12:56:56,899807
0,3,2,6,8,4,3,1,2021-08-07 12:56:56,899807
0,-1,-3,-4,-6,-3,-1,-1,2021-08-07 12:56:56,914808
-2,-1,-1,0,2,1,-1,-1,2021-08-07 12:56:56,914808
-2,0,-2,-6,-12,-9,-4,-1,2021-08-07 12:56:56,914808
-2,-3,-3,-5,-12,-8,-4,-2,2021-08-07 12:56:56,914808
-1,0,-2,-2,-1,0,2,-2,2021-08-07 12:56:56,946806
1,-2,-1,0,4,2,0,0,2021-08-07 12:56:56,962806
-2,-1,-1,0,-2,-2,-2,1,2021-08-07 12:56:56,978807
-1,0,0,1,4,4,0,-1,2021-08-07 12:56:56,978807
2,2,2,3,-1,-5,-1,2,2021-08-07 12:56:56,978807
0,-1,2,8,12,7,1,-1,2021-08-07 12:56:56,978807
-5,-6,-5,-9,-5,-4,-3,-3,2021-08-07 12:56:56,978807
0,0,-1,-7,-12,-6,-4,-2,2021-08-07 12:56:56,978807
-1,-1,-3,-4,-4,-3,-3,-1,2021-08-07 12:56:56,978807
2,3,2,7,10,6,5,1,2021-08-07 12:56:56,979808
-1,-1,-1,-1,-2,-3,-2,-1,2021-08-07 12:56:56,979808
0,0,1,0,0,0,-2,-1,2021-08-07 12:56:56,979808
-5,-4,-4,-7,-12,-9,-5,-3,2021-08-07 12:56:57,010806
-2,-3,-6,-16,-20,-9,-7,-2,2021-08-07 12:56:57,010806
4,5,7,19,29,16,10,3,2021-08-07 12:56:57,010806
4,3,4,5,12,10,5,2,2021-08-07 12:56:57,010806
3,4,4,9,16,10,4,2,2021-08-07 12:56:57,026807
-5,-6,-6,-5,-13,-12,-5,-6,2021-08-07 12:56:57,026807
-4,-3,-5,-10,-19,-12,-8,-4,2021-08-07 12:56:57,026807
2,0,1,-2,1,2,0,1,2021-08-07 12:56:57,042807
-4,-5,-4,-2,-5,-5,-3,-3,2021-08-07 12:56:57,042807
4,5,5,2,1,1,4,2,2021-08-07 12:56:57,042807
1,0,2,1,2,4,3,2,2021-08-07 12:56:57,042807
0,1,1,5,12,6,2,1,2021-08-07 12:56:57,042807
0,0,1,-3,-4,-1,-3,-1,2021-08-07 12:56:57,074808
-3,-3,-2,0,-2,-1,-1,0,2021-08-07 12:56:57,074808
-3,-3,-6,-6,-7,-6,-5,-1,2021-08-07 12:56:57,074808
-1,-1,0,-3,-7,-4,-3,-1,2021-08-07 12:56:57,074808
-1,-3,-1,-1,-2,-2,1,-1,2021-08-07 12:56:57,074808
0,-1,0,0,-3,-3,-1,-1,2021-08-07 12:56:57,074808
0,0,-1,8,20,13,5,1,2021-08-07 12:56:57,074808
-2,-1,-3,1,1,-1,-1,-3,2021-08-07 12:56:57,075806
3,4,3,1,3,-1,2,2,2021-08-07 12:56:57,106806
-2,-1,-1,-3,-6,-5,-5,-1,2021-08-07 12:56:57,106806
-2,-1,-2,-9,-15,-10,-5,-2,2021-08-07 12:56:57,106806
-3,-4,-4,-5,-10,-5,-2,-3,2021-08-07 12:56:57,106806
-2,-2,-1,1,3,1,-1,-1,2021-08-07 12:56:57,122806
2,2,3,10,15,10,2,1,2021-08-07 12:56:57,122806
-3,-4,-4,-10,-16,-10,-5,-3,2021-08-07 12:56:57,122806
-1,0,0,7,12,6,3,-1,2021-08-07 12:56:57,138807
0,0,-1,-5,-7,-6,-4,-2,2021-08-07 12:56:57,138807
-4,-5,-5,-3,-1,-2,-4,-1,2021-08-07 12:56:57,138807
4,6,7,8,9,4,1,3,2021-08-07 12:56:57,138807
-3,-1,-1,0,-2,-1,-1,1,2021-08-07 12:56:57,138807
-1,-2,-2,-1,0,1,0,0,2021-08-07 12:56:57,170807
-3,-4,-3,-7,-6,-5,-2,-4,2021-08-07 12:56:57,186808
-1,0,0,0,-3,-2,-1,0,2021-08-07 12:56:57,202808
-1,-1,-2,-4,-3,-2,-1,-1,2021-08-07 12:56:57,202808
-2,-1,-3,-5,-5,-4,0,0,2021-08-07 12:56:57,202808
2,2,4,6,8,7,3,2,2021-08-07 12:56:57,202808
-1,-2,-2,0,5,1,-1,-1,2021-08-07 12:56:57,202808
0,0,0,3,4,4,2,1,2021-08-07 12:56:57,202808
0,0,0,9,13,9,4,0,2021-08-07 12:56:57,202808
2,3,0,-1,-4,-5,1,0,2021-08-07 12:56:57,203810
-2,-3,-5,-11,-18,-10,-6,-3,2021-08-07 12:56:57,203810
-3,-4,-3,-8,-12,-9,-7,-3,2021-08-07 12:56:57,203810
1,1,6,7,11,9,4,2,2021-08-07 12:56:57,218807
0,2,0,4,7,3,0,1,2021-08-07 12:56:57,218807
-1,0,0,2,4,3,0,1,2021-08-07 12:56:57,218807
-1,-2,-4,-7,-10,-9,-5,-2,2021-08-07 12:56:57,219297
-1,-3,-4,-10,-15,-10,-5,-3,2021-08-07 12:56:57,250842
0,2,3,5,7,6,4,2,2021-08-07 12:56:57,250842
-2,-3,-3,0,-3,-2,-1,-2,2021-08-07 12:56:57,250842
0,-1,0,-5,-9,-5,0,1,2021-08-07 12:56:57,250842
-1,-1,-2,1,4,3,1,1,2021-08-07 12:56:57,250842
2,4,4,17,19,10,5,3,2021-08-07 12:56:57,250842
-1,0,-3,-3,-5,-4,-3,-2,2021-08-07 12:56:57,266843
0,2,1,0,0,0,-1,-1,2021-08-07 12:56:57,282841
-1,-2,-3,-8,-10,-7,-5,-3,2021-08-07 12:56:57,298842
-2,-3,-2,-2,-1,-3,-2,-1,2021-08-07 12:56:57,298842
1,-1,0,-1,0,2,1,-1,2021-08-07 12:56:57,298842
1,0,3,4,8,4,1,1,2021-08-07 12:56:57,298842
1,-1,-2,-1,-6,-6,-4,0,2021-08-07 12:56:57,298842
-3,-7,-7,-11,-14,-9,-5,-4,2021-08-07 12:56:57,299844
1,1,2,3,4,4,1,1,2021-08-07 12:56:57,299844
3,2,4,6,10,4,4,4,2021-08-07 12:56:57,299844
-4,-3,-2,-4,0,-1,0,-4,2021-08-07 12:56:57,345843
0,-1,-2,-5,-10,-7,-5,-2,2021-08-07 12:56:57,361843
1,-1,-2,-2,-4,-2,-1,-1,2021-08-07 12:56:57,361843
2,7,5,6,9,6,3,3,2021-08-07 12:56:57,361843
-1,-1,0,-3,-10,-9,-3,-1,2021-08-07 12:56:57,361843
-1,1,1,1,13,10,5,-1,2021-08-07 12:56:57,361843
-4,-3,-2,-1,0,-3,-3,-1,2021-08-07 12:56:57,361843
-1,-2,-2,2,2,2,1,-3,2021-08-07 12:56:57,361843
-1,-1,-3,-1,-2,1,-1,0,2021-08-07 12:56:57,362844
-1,-3,-3,-9,-15,-9,-4,-4,2021-08-07 12:56:57,362844
-1,-1,-2,-2,1,0,-1,-2,2021-08-07 12:56:57,362844
1,-2,-2,-6,-13,-7,-2,-1,2021-08-07 12:56:57,362844
-1,2,2,3,12,8,2,1,2021-08-07 12:56:57,377844
0,0,2,6,8,3,1,1,2021-08-07 12:56:57,377844
-1,0,0,0,-1,-2,0,-1,2021-08-07 12:56:57,393843
-4,-6,-7,-8,-13,-9,-5,-3,2021-08-07 12:56:57,393843
1,1,3,6,12,9,5,1,2021-08-07 12:56:57,393843
1,1,0,-2,-4,-3,0,2,2021-08-07 12:56:57,393843
-1,0,1,2,6,4,3,-1,2021-08-07 12:56:57,393843
0,-3,-3,-3,-6,-2,-2,-2,2021-08-07 12:56:57,393843
-1,0,-2,-7,-9,-4,-1,-1,2021-08-07 12:56:57,442087
-3,-5,-2,3,3,1,-2,-2,2021-08-07 12:56:57,457363
2,1,0,-1,-1,0,-1,0,2021-08-07 12:56:57,473361
2,8,10,6,8,4,5,3,2021-08-07 12:56:57,489361
1,2,3,1,3,0,1,1,2021-08-07 12:56:57,505363
-1,-3,-4,-8,-12,-7,-3,-4,2021-08-07 12:56:57,505363
-4,-6,-8,-8,-9,-8,-6,-6,2021-08-07 12:56:57,505363
-3,-5,-3,-3,-2,-3,-3,-2,2021-08-07 12:56:57,505363
-1,-2,-3,-4,-8,-2,-1,-2,2021-08-07 12:56:57,506362
0,1,0,-1,5,5,2,-1,2021-08-07 12:56:57,506362
0,-1,-1,7,11,4,1,-1,2021-08-07 12:56:57,506362
1,2,1,5,10,6,4,0,2021-08-07 12:56:57,506362
-1,-2,-1,-2,-5,-5,-3,-1,2021-08-07 12:56:57,506362
-1,-2,-2,-4,-10,-8,-4,-2,2021-08-07 12:56:57,506362
-1,-3,-1,0,3,4,1,1,2021-08-07 12:56:57,507364
-2,-1,-1,-3,-5,-3,-2,-2,2021-08-07 12:56:57,507364
0,0,-2,0,-1,-2,-2,-1,2021-08-07 12:56:57,507364
1,-3,-3,-2,0,-1,0,-1,2021-08-07 12:56:57,507364
2,3,1,-1,-4,-2,-3,-1,2021-08-07 12:56:57,507364
-5,-6,-6,-4,-2,-3,-2,-4,2021-08-07 12:56:57,507364
5,7,6,6,7,6,3,3,2021-08-07 12:56:57,521361
1,3,2,2,3,1,0,0,2021-08-07 12:56:57,537361
-2,-2,-3,-4,-6,-4,-1,-3,2021-08-07 12:56:57,537361
-2,-3,-4,-3,-1,-1,-1,-2,2021-08-07 12:56:57,537361
-3,-3,-4,0,1,0,-1,-1,2021-08-07 12:56:57,537361
-3,-3,-1,0,-1,-1,-1,0,2021-08-07 12:56:57,537361
0,-3,-3,-4,-5,-3,-1,-1,2021-08-07 12:56:57,537361
-1,-2,-2,-1,3,2,0,0,2021-08-07 12:56:57,537361
-4,-6,-5,-3,1,-1,-2,-4,2021-08-07 12:56:57,585360
3,8,6,1,-1,0,2,2,2021-08-07 12:56:57,585360
0,3,1,1,0,-2,0,1,2021-08-07 12:56:57,585360
1,1,0,0,0,2,0,0,2021-08-07 12:56:57,585360
-2,-3,-2,-1,-2,-2,-2,-2,2021-08-07 12:56:57,585360
-1,-2,-4,-5,-3,-4,-2,-3,2021-08-07 12:56:57,586361
-1,-3,-1,-3,-1,0,0,0,2021-08-07 12:56:57,586361
4,5,5,6,3,2,2,2,2021-08-07 12:56:57,586361
-4,-5,-4,-6,-11,-7,-5,-3,2021-08-07 12:56:57,616361
1,-1,-1,1,5,3,2,1,2021-08-07 12:56:57,616361
0,2,4,5,3,2,1,1,2021-08-07 12:56:57,616361
0,-2,-4,-6,-6,-2,-4,-1,2021-08-07 12:56:57,616361
-2,-2,0,5,7,3,1,-1,2021-08-07 12:56:57,616361
-3,0,1,-3,-6,-5,-4,-2,2021-08-07 12:56:57,616361
-4,-2,-3,-9,-12,-7,-6,-2,2021-08-07 12:56:57,632361
1,2,0,5,7,5,2,1,2021-08-07 12:56:57,648360
2,2,1,1,6,3,1,0,2021-08-07 12:56:57,664359
-3,-7,-4,2,0,-1,-3,-1,2021-08-07 12:56:57,664359
3,3,4,1,2,1,2,1,2021-08-07 12:56:57,664359
0,1,1,-4,-8,-5,-2,0,2021-08-07 12:56:57,664359
-4,-3,-3,-12,-19,-13,-8,-3,2021-08-07 12:56:57,664359
0,-1,-2,6,15,10,6,1,2021-08-07 12:56:57,664359
-1,1,0,9,18,9,3,1,2021-08-07 12:56:57,664359
-1,-3,-3,-2,0,-2,-2,-2,2021-08-07 12:56:57,664359
1,2,1,3,3,2,1,0,2021-08-07 12:56:57,680360
-3,-3,-3,-11,-18,-13,-8,-5,2021-08-07 12:56:57,680360
-2,-4,-4,-12,-15,-6,-4,-4,2021-08-07 12:56:57,680360
2,2,5,11,15,7,5,2,2021-08-07 12:56:57,680360
2,2,-1,1,7,4,0,3,2021-08-07 12:56:57,712361
0,1,-1,-3,-7,-3,-3,-1,2021-08-07 12:56:57,728361
1,-2,-2,-6,-10,-6,-2,0,2021-08-07 12:56:57,736360
-2,-4,-2,2,6,3,1,-2,2021-08-07 12:56:57,736360
-3,-2,1,1,3,1,2,-1,2021-08-07 12:56:57,736360
-1,-1,2,1,1,1,2,-1,2021-08-07 12:56:57,737360
-1,0,1,2,1,0,1,-3,2021-08-07 12:56:57,737360
-5,-3,-2,-8,-12,-9,-7,-5,2021-08-07 12:56:57,737360
3,1,0,-2,-2,0,0,-1,2021-08-07 12:56:57,737360
-1,0,-1,4,6,4,1,1,2021-08-07 12:56:57,737360
1,-2,0,4,3,-1,0,1,2021-08-07 12:56:57,737360
-3,-3,-5,-4,-4,-5,-2,-2,2021-08-07 12:56:57,737360
3,5,4,3,2,2,1,2,2021-08-07 12:56:57,776361
0,-1,-1,-7,-11,-5,-3,-1,2021-08-07 12:56:57,776361
-1,-1,-1,0,5,3,1,0,2021-08-07 12:56:57,776361
-2,-2,-3,4,8,2,-1,-1,2021-08-07 12:56:57,776361
-4,-5,-3,-1,-2,-3,-2,-2,2021-08-07 12:56:57,776361
1,1,2,-2,-1,0,0,1,2021-08-07 12:56:57,776361
-3,-1,-3,-2,0,0,-2,-1,2021-08-07 12:56:57,776361
0,0,0,-1,-6,-2,-1,0,2021-08-07 12:56:57,777361
0,0,0,2,3,4,2,-2,2021-08-07 12:56:57,792361
-4,-4,-2,-4,-5,-4,-3,-3,2021-08-07 12:56:57,792361
1,1,3,6,2,-2,1,1,2021-08-07 12:56:57,808361
1,0,2,2,7,7,4,1,2021-08-07 12:56:57,824361
-1,-1,-1,0,-1,-1,0,-1,2021-08-07 12:56:57,840361
-4,-3,-4,-6,-8,-7,-4,-3,2021-08-07 12:56:57,840361
-5,-6,-8,-12,-19,-8,-7,-4,2021-08-07 12:56:57,840361
6,11,13,17,23,13,7,5,2021-08-07 12:56:57,840361
-3,-4,-3,-2,-7,-6,-4,-3,2021-08-07 12:56:57,840361
1,2,2,-2,3,4,2,1,2021-08-07 12:56:57,840361
-1,-1,0,1,4,-1,0,1,2021-08-07 12:56:57,840361
-1,-4,-3,-6,-9,-5,-4,-2,2021-08-07 12:56:57,840361
-1,-2,-2,-4,-4,-5,-4,-3,2021-08-07 12:56:57,872361
0,-1,-1,1,1,1,-1,0,2021-08-07 12:56:57,872361
-1,-2,-1,3,6,4,1,-1,2021-08-07 12:56:57,872361
2,1,-1,-3,-2,-2,1,2,2021-08-07 12:56:57,872361
2,4,5,6,5,3,3,2,2021-08-07 12:56:57,903361
0,-1,-4,-3,-1,-2,-3,-1,2021-08-07 12:56:57,919364
0,2,3,3,4,2,2,0,2021-08-07 12:56:57,919364
-3,-5,-6,-6,-6,-5,-4,-3,2021-08-07 12:56:57,919364
-2,-4,-4,-4,-3,-3,-4,-2,2021-08-07 12:56:57,919364
1,-1,1,-1,0,-1,0,-1,2021-08-07 12:56:57,919364
1,3,3,2,1,1,1,0,2021-08-07 12:56:57,919364
-1,-4,-1,-4,-10,-5,-3,-2,2021-08-07 12:56:57,919364
0,-2,-2,-2,3,1,-1,-1,2021-08-07 12:56:57,919364
-3,-2,-3,-2,-3,-1,-1,-3,2021-08-07 12:56:57,919364
1,0,0,3,6,3,-1,-1,2021-08-07 12:56:57,919364
-4,-3,-4,-7,-14,-10,-4,-2,2021-08-07 12:56:57,919364
2,1,1,2,6,3,2,2,2021-08-07 12:56:57,951359
0,-2,-2,2,8,3,2,-1,2021-08-07 12:56:57,967360
2,2,2,-2,-6,-1,1,1,2021-08-07 12:56:57,983360
-1,0,-2,-5,-7,-5,-3,-2,2021-08-07 12:56:57,983360
-3,-4,-4,-3,-7,-6,-2,-3,2021-08-07 12:56:57,983360
-2,-5,-3,-4,-4,-5,-2,-2,2021-08-07 12:56:57,983360
2,1,2,4,12,8,3,1,2021-08-07 12:56:57,983360
1,0,-2,-3,-4,-3,-2,0,2021-08-07 12:56:57,983360
-1,-1,0,-2,-3,-4,-2,-1,2021-08-07 12:56:57,983360
0,1,3,9,14,7,4,1,2021-08-07 12:56:57,983360
-1,-2,1,1,0,-1,-1,-2,2021-08-07 12:56:57,983360
-2,-1,-2,-5,-10,-7,-4,-3,2021-08-07 12:56:57,984362
1,0,0,5,11,9,3,2,2021-08-07 12:56:58,015359
-4,-1,-3,-2,-3,-1,-2,0,2021-08-07 12:56:58,031360
-2,0,-1,-1,-3,-3,-2,-1,2021-08-07 12:56:58,031360
-2,0,1,3,3,1,-1,-1,2021-08-07 12:56:58,046359
-2,-3,-1,-8,-14,-10,-6,-3,2021-08-07 12:56:58,046359
0,0,-2,-1,1,1,-1,-1,2021-08-07 12:56:58,046359
2,4,6,6,10,10,6,3,2021-08-07 12:56:58,046359
1,3,4,5,10,4,1,0,2021-08-07 12:56:58,046359
-3,-1,-2,-2,-2,-2,-2,-1,2021-08-07 12:56:58,046359
1,-1,-1,-2,-7,-6,-2,-2,2021-08-07 12:56:58,047362
-3,-4,-5,-8,-15,-10,-5,-2,2021-08-07 12:56:58,047362
-1,-3,-5,-4,-2,1,0,0,2021-08-07 12:56:58,047362
0,-1,0,-1,0,0,0,0,2021-08-07 12:56:58,078364
0,1,0,-2,-3,-4,-2,0,2021-08-07 12:56:58,078364
-1,-1,-3,-3,-6,-3,-3,-3,2021-08-07 12:56:58,078364
2,4,3,7,9,6,5,2,2021-08-07 12:56:58,094359
0,1,2,2,4,3,0,0,2021-08-07 12:56:58,125359
0,0,0,-4,-5,-3,-3,0,2021-08-07 12:56:58,125359
-3,-3,-4,-4,-5,-3,-3,-3,2021-08-07 12:56:58,125359
-2,-4,-2,-2,1,2,-1,-1,2021-08-07 12:56:58,125359
-1,-2,-2,-4,-3,-2,-1,-2,2021-08-07 12:56:58,125359
-1,-1,0,1,0,0,-1,-1,2021-08-07 12:56:58,125359
3,5,3,-1,0,0,1,2,2021-08-07 12:56:58,125359
-2,-5,-3,-3,-4,-4,-2,-4,2021-08-07 12:56:58,126361
-1,-1,-2,-2,-3,-1,-2,1,2021-08-07 12:56:58,126361
3,4,3,6,8,7,2,2,2021-08-07 12:56:58,126361
1,2,2,7,13,4,2,0,2021-08-07 12:56:58,126361
-1,0,-1,-4,-6,-2,0,-1,2021-08-07 12:56:58,141361
-2,-2,-3,-1,0,0,-1,1,2021-08-07 12:56:58,141361
-2,-5,-3,-9,-13,-10,-5,-5,2021-08-07 12:56:58,141361
-3,-4,-4,-3,-5,-6,-4,-2,2021-08-07 12:56:58,157359
0,2,3,9,12,7,1,2,2021-08-07 12:56:58,157359
0,-1,-3,2,9,7,2,-2,2021-08-07 12:56:58,160360
-1,-1,0,2,1,1,-1,-2,2021-08-07 12:56:58,161369
0,0,-1,-2,-2,0,0,0,2021-08-07 12:56:58,161369
-2,-1,0,-4,-6,-3,1,-1,2021-08-07 12:56:58,161369
1,1,2,0,-4,-3,0,0,2021-08-07 12:56:58,189361
0,1,-1,1,0,1,0,-2,2021-08-07 12:56:58,204361
0,-4,-4,-3,-4,-2,0,0,2021-08-07 12:56:58,204361
-2,-1,-2,-2,-3,-3,-2,-1,2021-08-07 12:56:58,204361
2,2,3,0,1,2,2,0,2021-08-07 12:56:58,204361
-2,-1,0,1,0,0,-1,0,2021-08-07 12:56:58,204361
-1,-2,-2,-3,1,1,-1,-1,2021-08-07 12:56:58,204361
-1,-1,-1,2,1,2,-1,-1,2021-08-07 12:56:58,205362
0,2,-1,-1,-1,-1,-1,0,2021-08-07 12:56:58,236361
-1,-1,1,-1,1,1,-1,0,2021-08-07 12:56:58,236361
-2,-2,-1,-2,-5,-3,-2,-2,2021-08-07 12:56:58,236361
0,-2,-2,1,1,0,1,1,2021-08-07 12:56:58,236361
-1,-2,0,3,1,2,-1,0,2021-08-07 12:56:58,252361
0,-2,-2,-2,-2,-1,-2,-1,2021-08-07 12:56:58,268361
-1,-1,0,-1,-3,1,0,-1,2021-08-07 12:56:58,284360
0,-2,0,-2,0,0,-1,-1,2021-08-07 12:56:58,284360
-1,-2,-3,-4,-4,-4,-3,-2,2021-08-07 12:56:58,284360
-3,-2,-3,0,1,-1,1,-1,2021-08-07 12:56:58,299360
0,1,2,0,0,-1,-1,0,2021-08-07 12:56:58,299360
1,1,3,0,0,0,-2,1,2021-08-07 12:56:58,299360
-2,0,-1,1,0,0,0,0,2021-08-07 12:56:58,299360
-1,0,-1,-2,-3,-2,-1,0,2021-08-07 12:56:58,299360
-3,-5,-3,-3,-2,-1,-2,-1,2021-08-07 12:56:58,299360
-1,-1,-2,-1,-2,0,1,-1,2021-08-07 12:56:58,299360
0,-2,-2,0,0,-1,0,-1,2021-08-07 12:56:58,315360
-1,-1,-1,0,-1,1,-1,-1,2021-08-07 12:56:58,315360
-2,-1,-2,-1,-3,0,1,-1,2021-08-07 12:56:58,315360
0,0,-1,-1,0,-2,-2,0,2021-08-07 12:56:58,315360
0,-1,0,-1,0,-1,-2,0,2021-08-07 12:56:58,315360
-1,-1,-1,0,2,0,1,1,2021-08-07 12:56:58,315360
-2,0,-1,1,-2,-1,-3,-1,2021-08-07 12:56:58,331361
-2,-2,-3,-3,-1,-2,-1,-2,2021-08-07 12:56:58,331361
-1,-2,0,0,-2,-2,-1,-1,2021-08-07 12:56:58,347360
0,0,-1,-1,0,-1,0,0,2021-08-07 12:56:58,347360
-1,0,0,-1,-2,-2,-1,-1,2021-08-07 12:56:58,347360
-2,-2,-2,-1,-1,-2,1,-1,2021-08-07 12:56:58,347360
1,1,1,-2,-1,-1,1,0,2021-08-07 12:56:58,379360
1,2,2,1,-1,2,0,0,2021-08-07 12:56:58,379360
-2,-2,0,-1,0,-1,-1,-1,2021-08-07 12:56:58,379360
-1,-1,-1,0,-2,-1,-1,0,2021-08-07 12:56:58,379360
1,0,1,-2,-1,-2,-1,-1,2021-08-07 12:56:58,395361
-2,-1,1,-1,0,0,-1,-2,2021-08-07 12:56:58,395361
-2,0,-1,-3,-3,-3,-1,-3,2021-08-07 12:56:58,395361
-2,-3,-3,-1,1,2,-1,-1,2021-08-07 12:56:58,395361
0,0,2,3,1,1,0,2,2021-08-07 12:56:58,410359
2,3,0,-2,0,-1,0,0,2021-08-07 12:56:58,425361
-3,0,-1,-1,2,-2,-2,-2,2021-08-07 12:56:58,441361
-1,-3,-1,-7,-8,-7,-5,-2,2021-08-07 12:56:58,457362
-2,-3,-4,1,7,4,1,0,2021-08-07 12:56:58,473396
-1,-4,-3,-2,2,-1,-1,-1,2021-08-07 12:56:58,473396
3,1,2,2,5,4,2,2,2021-08-07 12:56:58,473396
1,1,1,1,-1,-1,0,-1,2021-08-07 12:56:58,473396
-3,-1,-1,-2,-2,-2,-1,-1,2021-08-07 12:56:58,473396
-1,-2,-1,-2,-3,-4,-1,-2,2021-08-07 12:56:58,474395
-1,-2,-3,-5,-5,-3,-3,-1,2021-08-07 12:56:58,474395
0,-1,-1,-1,-1,-1,-1,1,2021-08-07 12:56:58,474395
-2,-2,-1,-3,-6,-4,-2,-2,2021-08-07 12:56:58,489395
-1,1,0,0,4,2,1,0,2021-08-07 12:56:58,489395
-2,-2,0,2,2,0,-1,0,2021-08-07 12:56:58,489395
1,1,0,-1,0,-1,0,0,2021-08-07 12:56:58,489395
-4,-2,-2,-5,-11,-7,-5,-3,2021-08-07 12:56:58,489395
2,3,4,7,16,11,5,2,2021-08-07 12:56:58,489395
1,1,1,5,8,5,1,1,2021-08-07 12:56:58,490398
0,1,2,3,3,2,1,-1,2021-08-07 12:56:58,490398
0,-2,-1,-3,-2,-2,-2,0,2021-08-07 12:56:58,520396
-3,-3,-3,-7,-11,-10,-6,-4,2021-08-07 12:56:58,520396
-2,-3,-2,-5,-6,-4,-2,-1,2021-08-07 12:56:58,520396
0,1,0,3,6,3,3,0,2021-08-07 12:56:58,520396
1,4,2,2,1,0,0,1,2021-08-07 12:56:58,520396
-2,-2,-3,-2,-4,-3,-1,-2,2021-08-07 12:56:58,520396
-1,-1,-2,-3,-2,-1,0,0,2021-08-07 12:56:58,520396
-4,-4,-4,-3,-7,-6,-2,-3,2021-08-07 12:56:58,520396
4,3,3,5,12,5,4,1,2021-08-07 12:56:58,552394
-2,-1,-1,-2,-5,-4,-2,-1,2021-08-07 12:56:58,552394
0,-2,-3,-6,-10,-6,-3,-2,2021-08-07 12:56:58,552394
1,1,-1,0,6,2,2,1,2021-08-07 12:56:58,552394
2,2,1,1,2,2,2,1,2021-08-07 12:56:58,568395
-2,-3,-3,-1,-2,0,0,2,2021-08-07 12:56:58,568395
-2,-2,-2,1,-2,-1,0,-3,2021-08-07 12:56:58,568395
-3,-3,-2,-8,-8,-4,-4,-3,2021-08-07 12:56:58,568395
-3,-2,0,6,11,8,1,-2,2021-08-07 12:56:58,584394
-2,1,0,-1,2,-1,-2,-1,2021-08-07 12:56:58,584394
0,0,1,-1,-4,-2,-2,-1,2021-08-07 12:56:58,584394
1,0,0,-2,-5,-3,-2,0,2021-08-07 12:56:58,584394
-2,-4,-7,-13,-20,-15,-8,-4,2021-08-07 12:56:58,616394
2,2,3,7,14,14,5,1,2021-08-07 12:56:58,632393
0,1,2,6,10,4,2,2,2021-08-07 12:56:58,647395
0,0,0,1,3,2,0,-1,2021-08-07 12:56:58,647395
-4,-2,-2,-3,-5,-4,-3,-1,2021-08-07 12:56:58,647395
1,0,-1,1,-7,-4,-2,-1,2021-08-07 12:56:58,647395
-1,0,-3,-1,0,-1,-1,-2,2021-08-07 12:56:58,647395
-1,-1,1,0,-2,-2,-2,0,2021-08-07 12:56:58,647395
-1,1,0,2,-4,-3,-3,-1,2021-08-07 12:56:58,647395
-1,-2,0,-4,-1,0,0,0,2021-08-07 12:56:58,647395
-1,-2,-1,0,1,1,0,-1,2021-08-07 12:56:58,647395
-1,0,0,1,-1,0,1,1,2021-08-07 12:56:58,648398
-1,-3,-2,-3,1,2,0,-3,2021-08-07 12:56:58,679395
-2,-1,-1,1,-1,0,0,0,2021-08-07 12:56:58,694914
0,-1,-1,-2,-3,-4,-2,-2,2021-08-07 12:56:58,710914
-2,-3,-1,-2,1,0,-1,-2,2021-08-07 12:56:58,710914
0,-1,-2,-1,1,0,0,1,2021-08-07 12:56:58,710914
-1,-1,-1,-2,-4,-2,-2,-1,2021-08-07 12:56:58,710914
1,1,0,-1,1,0,0,0,2021-08-07 12:56:58,710914
0,0,0,2,1,0,-2,-1,2021-08-07 12:56:58,711916
-1,1,-2,-2,0,3,1,-2,2021-08-07 12:56:58,711916
-2,-3,-3,1,-1,-3,-1,-3,2021-08-07 12:56:58,711916
1,3,5,4,6,5,2,1,2021-08-07 12:56:58,711916
-1,0,2,2,1,0,0,-1,2021-08-07 12:56:58,711916
-1,-3,-2,-3,-1,-2,-1,-1,2021-08-07 12:56:58,726913
-1,-3,-3,-8,-10,-7,-4,-3,2021-08-07 12:56:58,726913
-1,-2,0,-2,0,0,0,0,2021-08-07 12:56:58,726913
0,-1,-2,1,-1,1,-1,-1,2021-08-07 12:56:58,726913
-1,-2,-1,-2,-7,-5,-3,-1,2021-08-07 12:56:58,758912
4,4,5,8,12,8,5,1,2021-08-07 12:56:58,774912
1,2,3,-2,-2,-2,-1,1,2021-08-07 12:56:58,790914
-2,0,0,1,3,2,0,0,2021-08-07 12:56:58,806913
-1,-3,-3,-3,-2,-4,-3,-2,2021-08-07 12:56:58,822912
-2,-3,-2,-1,-3,-3,-2,-2,2021-08-07 12:56:58,822912
-1,-2,-2,-4,-5,-4,-1,-1,2021-08-07 12:56:58,822912
-1,0,-2,-2,-3,0,0,-1,2021-08-07 12:56:58,822912
0,-1,1,3,0,0,0,0,2021-08-07 12:56:58,822912
-3,-2,-3,-3,-3,-3,-3,-2,2021-08-07 12:56:58,823917
2,1,1,2,3,3,1,2,2021-08-07 12:56:58,823917
-2,-2,0,-2,0,-1,-1,0,2021-08-07 12:56:58,823917
-1,0,-1,-1,2,1,0,1,2021-08-07 12:56:58,838914
-1,-2,1,-2,-1,-2,-2,-1,2021-08-07 12:56:58,854912
-2,-1,-1,3,1,0,0,-3,2021-08-07 12:56:58,869913
1,-1,-2,-4,-2,-2,0,0,2021-08-07 12:56:58,885912
-1,-2,-1,0,6,2,0,-2,2021-08-07 12:56:58,885912
-3,-3,-3,-5,-6,-4,-2,-1,2021-08-07 12:56:58,885912
0,2,0,-2,-3,1,1,0,2021-08-07 12:56:58,901912
2,3,0,5,2,0,0,0,2021-08-07 12:56:58,917914
1,3,1,1,0,2,3,-1,2021-08-07 12:56:58,917914
1,-1,-3,-3,-3,-1,0,-1,2021-08-07 12:56:58,917914
-2,-3,-6,-7,-6,-5,-4,-4,2021-08-07 12:56:58,917914
0,-2,1,1,0,1,0,-1,2021-08-07 12:56:58,917914
0,0,1,-1,-2,-1,0,0,2021-08-07 12:56:58,917914
0,0,-1,2,2,0,0,0,2021-08-07 12:56:58,918914
-2,-4,-1,0,2,0,-3,-2,2021-08-07 12:56:58,918914
0,-1,-4,-9,-11,-8,-3,-2,2021-08-07 12:56:58,918914
1,1,1,5,12,9,4,0,2021-08-07 12:56:58,918914
0,0,1,3,5,3,2,-1,2021-08-07 12:56:58,918914
-1,-1,-3,-1,-5,-5,-2,-1,2021-08-07 12:56:58,918914
0,0,-2,2,5,6,2,1,2021-08-07 12:56:58,918914
-2,-2,-3,-2,-7,-4,-5,-1,2021-08-07 12:56:58,933913
-1,0,0,-2,-3,0,-2,-1,2021-08-07 12:56:58,933913
-1,1,0,1,2,2,1,-1,2021-08-07 12:56:58,933913
-3,-2,-2,-3,-4,-3,-3,-3,2021-08-07 12:56:58,933913
0,0,-2,-2,-2,-4,-2,-1,2021-08-07 12:56:58,933913
0,1,-1,1,0,-1,0,0,2021-08-07 12:56:58,933913
-1,1,-3,-2,-2,-2,-2,-1,2021-08-07 12:56:58,933913
0,-3,0,-1,-1,-2,1,-1,2021-08-07 12:56:58,933913
-2,-3,-3,-1,-1,-1,-2,-1,2021-08-07 12:56:58,949913
-2,1,2,-1,-2,-2,-2,0,2021-08-07 12:56:58,949913
1,2,4,1,0,2,0,1,2021-08-07 12:56:58,949913
0,3,1,1,3,2,1,0,2021-08-07 12:56:58,949913
-3,-3,-1,-2,-1,-2,-2,-2,2021-08-07 12:56:58,980912
0,-3,-3,-4,-3,-1,0,-1,2021-08-07 12:56:58,980912
-3,-5,-5,-5,-4,-3,-2,-1,2021-08-07 12:56:58,980912
3,6,8,4,5,4,1,2,2021-08-07 12:56:58,980912
-2,-1,0,-2,-3,-1,-3,-2,2021-08-07 12:56:58,996912
-2,1,-2,-1,-3,0,1,-1,2021-08-07 12:56:59,012913
-3,-1,-2,-2,0,-1,-1,0,2021-08-07 12:56:59,012913
-1,-3,-4,-4,-4,-3,-3,-2,2021-08-07 12:56:59,012913
-1,-2,-3,-5,-3,-2,0,-1,2021-08-07 12:56:59,012913
-2,0,2,5,3,1,1,-1,2021-08-07 12:56:59,012913
-2,-3,-3,-8,-10,-5,-3,-4,2021-08-07 12:56:59,012913
4,5,6,16,22,14,7,3,2021-08-07 12:56:59,013914
0,-1,-3,-3,-7,-5,-2,-2,2021-08-07 12:56:59,028913
-1,-1,-2,3,5,2,1,0,2021-08-07 12:56:59,028913
-2,-2,0,-2,-4,-4,-1,-3,2021-08-07 12:56:59,028913
-3,-3,-3,-6,-12,-9,-4,-3,2021-08-07 12:56:59,028913
-4,-4,-3,-5,-3,-3,-1,-3,2021-08-07 12:56:59,075914
1,2,1,2,4,4,2,1,2021-08-07 12:56:59,091913
3,3,1,1,2,3,0,1,2021-08-07 12:56:59,091913
-3,-4,-2,-4,-3,-1,-3,-1,2021-08-07 12:56:59,091913
0,-1,0,-1,-1,-3,-2,-1,2021-08-07 12:56:59,091913
-3,-5,-7,-12,-15,-9,-4,-2,2021-08-07 12:56:59,091913
-1,-1,0,6,9,4,2,2,2021-08-07 12:56:59,091913
-1,0,-2,-5,-3,-3,-1,1,2021-08-07 12:56:59,092913
1,2,2,4,3,1,0,2,2021-08-07 12:56:59,092913
3,4,4,6,8,5,2,2,2021-08-07 12:56:59,092913
-2,-1,1,0,2,1,1,0,2021-08-07 12:56:59,092913
-2,-3,-5,-1,-1,0,-1,-1,2021-08-07 12:56:59,092913
-1,-1,-2,-3,-3,-2,-2,0,2021-08-07 12:56:59,122914
-2,-1,-1,-3,-2,-2,-3,-2,2021-08-07 12:56:59,138913
0,0,0,-3,-4,-2,-2,-2,2021-08-07 12:56:59,138913
0,-2,-2,1,-1,0,0,-2,2021-08-07 12:56:59,138913
2,2,3,2,9,6,2,2,2021-08-07 12:56:59,138913
-3,-3,-3,-5,-7,-5,-2,-3,2021-08-07 12:56:59,138913
2,4,3,6,8,5,3,3,2021-08-07 12:56:59,138913
-2,-2,-3,-5,-4,-4,-1,-3,2021-08-07 12:56:59,138913
-1,0,3,4,7,4,0,0,2021-08-07 12:56:59,154912
-2,-4,-4,-3,-4,-3,-2,-2,2021-08-07 12:56:59,169914
-1,-1,-1,-1,-5,-3,-1,-1,2021-08-07 12:56:59,169914
2,2,-1,-6,-10,-4,-3,-1,2021-08-07 12:56:59,169914
-2,0,0,3,4,3,0,0,2021-08-07 12:56:59,169914
0,1,0,4,8,4,1,0,2021-08-07 12:56:59,170913
-3,-5,-5,-1,-4,-3,-2,-2,2021-08-07 12:56:59,170913
0,3,4,4,0,-1,1,1,2021-08-07 12:56:59,170913
0,-1,-1,-6,-6,-2,0,-1,2021-08-07 12:56:59,185914
-1,-3,-3,-3,-7,-3,-4,-1,2021-08-07 12:56:59,201914
2,1,-1,0,-1,2,0,1,2021-08-07 12:56:59,201914
-3,-3,-2,-1,2,-1,-3,-2,2021-08-07 12:56:59,201914
-3,-2,-3,-2,0,-1,-1,-2,2021-08-07 12:56:59,201914
1,0,3,0,-2,-2,0,-1,2021-08-07 12:56:59,217914
0,0,0,0,2,1,-1,-1,2021-08-07 12:56:59,217914
-2,-5,-2,-2,1,3,-1,-1,2021-08-07 12:56:59,217914
-1,-4,-3,-2,-5,-5,-3,-3,2021-08-07 12:56:59,233913
1,3,2,-1,0,1,1,3,2021-08-07 12:56:59,249916
2,4,6,3,-3,-4,0,1,2021-08-07 12:56:59,249916
1,2,0,0,2,2,1,1,2021-08-07 12:56:59,249916
-2,-2,-5,-2,-1,-1,-1,-2,2021-08-07 12:56:59,249916
-2,-1,-4,-1,0,-2,0,-3,2021-08-07 12:56:59,249916
-1,1,0,-2,2,0,1,0,2021-08-07 12:56:59,250913
-2,-1,-1,-2,-2,-2,-2,-1,2021-08-07 12:56:59,250913
0,0,2,-1,-2,-1,0,0,2021-08-07 12:56:59,280912
0,-2,-1,-3,-6,-5,-2,0,2021-08-07 12:56:59,296913
-2,-3,-3,-2,-1,-1,-1,-1,2021-08-07 12:56:59,312912
-2,-2,-2,2,0,-2,-2,-2,2021-08-07 12:56:59,312912
0,0,-1,-3,-5,-1,1,0,2021-08-07 12:56:59,312912
0,-2,-3,-2,2,0,-2,-1,2021-08-07 12:56:59,312912
1,1,4,4,6,6,1,0,2021-08-07 12:56:59,312912
-1,-3,-2,1,1,1,-1,0,2021-08-07 12:56:59,312912
1,2,2,-1,-3,-2,0,1,2021-08-07 12:56:59,312912
-1,0,-2,-3,2,2,2,1,2021-08-07 12:56:59,312912
-1,-2,-3,-1,-2,-3,-2,0,2021-08-07 12:56:59,313915
2,3,3,0,2,1,2,1,2021-08-07 12:56:59,313915
0,-1,2,0,-2,-3,-2,-1,2021-08-07 12:56:59,328913
1,3,2,1,-1,2,0,1,2021-08-07 12:56:59,328913
-1,-1,-3,-2,-1,-1,-1,-1,2021-08-07 12:56:59,328913
-1,-4,-3,-6,-7,-5,-4,-4,2021-08-07 12:56:59,328913
0,2,0,4,4,4,1,-2,2021-08-07 12:56:59,359913
-1,-2,-1,2,1,1,0,-2,2021-08-07 12:56:59,359913
-1,-2,-1,-1,-3,-3,-2,-3,2021-08-07 12:56:59,359913
-2,-1,-4,-3,-6,-3,-1,-2,2021-08-07 12:56:59,359913
-2,0,1,1,3,3,1,0,2021-08-07 12:56:59,374914
-1,-2,-2,-2,-3,-5,-2,0,2021-08-07 12:56:59,374914
0,3,4,2,4,2,2,1,2021-08-07 12:56:59,374914
-1,-2,-1,-5,-7,-6,-4,-1,2021-08-07 12:56:59,374914
-2,-3,-2,1,1,-1,-2,-2,2021-08-07 12:56:59,390913
1,0,-1,0,0,1,0,-1,2021-08-07 12:56:59,405913
0,0,0,2,0,0,1,0,2021-08-07 12:56:59,421912
0,0,0,2,6,4,2,0,2021-08-07 12:56:59,437912
-3,-6,-6,-10,-10,-7,-5,-4,2021-08-07 12:56:59,453913
5,4,4,3,2,2,1,2,2021-08-07 12:56:59,453913
1,2,0,-1,-2,-2,-1,1,2021-08-07 12:56:59,453913
0,-1,-3,0,1,2,0,1,2021-08-07 12:56:59,453913
1,-1,-4,0,-3,0,0,0,2021-08-07 12:56:59,453913
-2,-3,-2,-2,-1,0,0,0,2021-08-07 12:56:59,453913
-3,-5,-5,-8,-2,-3,-3,-4,2021-08-07 12:56:59,453913
-5,-4,-1,2,3,1,-2,-3,2021-08-07 12:56:59,453913
2,6,8,8,8,4,2,2,2021-08-07 12:56:59,454914
-3,1,0,-2,-4,-5,-3,-2,2021-08-07 12:56:59,454914
1,2,1,0,-1,1,1,1,2021-08-07 12:56:59,454914
-2,-4,-2,-5,-5,-5,-1,-1,2021-08-07 12:56:59,454914
-1,-2,-3,-3,-1,-3,-1,0,2021-08-07 12:56:59,485915
1,2,2,4,2,1,-2,0,2021-08-07 12:56:59,501914
-1,-1,-1,-2,-2,0,-1,1,2021-08-07 12:56:59,517914
0,-3,-1,-3,-4,-2,-1,-2,2021-08-07 12:56:59,533913
-1,0,1,3,4,2,-1,0,2021-08-07 12:56:59,533913
0,0,1,2,5,3,2,0,2021-08-07 12:56:59,533913
-1,-1,-2,-1,1,1,0,-2,2021-08-07 12:56:59,533913
-1,0,-1,-3,-6,-5,-2,1,2021-08-07 12:56:59,533913
0,-1,0,3,8,5,2,0,2021-08-07 12:56:59,533913
-4,-4,-2,-2,-5,-4,-3,-3,2021-08-07 12:56:59,533913
0,0,-1,-6,-8,-4,-3,-2,2021-08-07 12:56:59,534914
1,3,2,1,5,3,3,1,2021-08-07 12:56:59,534914
-2,-1,1,3,6,4,2,0,2021-08-07 12:56:59,534914
-1,-1,-1,3,3,1,1,2,2021-08-07 12:56:59,534914
1,-2,1,-1,-2,-2,0,0,2021-08-07 12:56:59,534914
-2,-1,-2,-3,-5,-5,-3,-2,2021-08-07 12:56:59,534914
-1,-2,-4,-7,-9,-7,-4,-1,2021-08-07 12:56:59,549916
-1,1,1,0,-1,1,0,-1,2021-08-07 12:56:59,549916
-1,0,-1,-1,1,0,1,-1,2021-08-07 12:56:59,549916
-1,0,-2,0,1,1,0,1,2021-08-07 12:56:59,550914
-3,-3,-2,-3,-4,-3,-4,-2,2021-08-07 12:56:59,565913
2,4,3,4,3,3,3,2,2021-08-07 12:56:59,565913
-2,-1,0,-1,0,0,-1,-1,2021-08-07 12:56:59,565913
2,-1,-1,4,3,3,1,1,2021-08-07 12:56:59,565913
1,0,0,0,-3,-1,0,-1,2021-08-07 12:56:59,597911
-2,-5,-4,-4,-5,-3,-4,-3,2021-08-07 12:56:59,597911
-3,-3,-4,-4,-3,-2,-1,-2,2021-08-07 12:56:59,597911
0,0,0,-1,4,2,1,-1,2021-08-07 12:56:59,597911
4,5,3,-3,-2,-1,2,1,2021-08-07 12:56:59,613912
1,0,0,-1,-1,-1,-1,2,2021-08-07 12:56:59,629915
0,1,-1,3,0,0,0,-1,2021-08-07 12:56:59,645913
-5,-5,-5,-1,1,-1,-2,-3,2021-08-07 12:56:59,645913
0,-1,-2,-6,-4,-2,0,-1,2021-08-07 12:56:59,645913
-3,-1,-2,2,4,2,-1,-1,2021-08-07 12:56:59,645913
0,1,1,4,3,2,-1,1,2021-08-07 12:56:59,645913
0,-1,1,-3,-4,-1,-2,-2,2021-08-07 12:56:59,645913
-2,-2,-3,-2,-5,-5,-2,-2,2021-08-07 12:56:59,646914
-2,-2,-3,-7,-8,-5,0,-2,2021-08-07 12:56:59,646914
0,-2,0,3,7,8,3,2,2021-08-07 12:56:59,646914
1,4,3,6,8,3,2,2,2021-08-07 12:56:59,646914
-1,-2,-1,4,3,-2,-2,-2,2021-08-07 12:56:59,677912
-4,-5,-6,-9,-6,-3,-5,-3,2021-08-07 12:56:59,693913
0,1,-1,-1,-7,-3,0,-1,2021-08-07 12:56:59,693913
0,1,1,-2,-2,0,0,0,2021-08-07 12:56:59,693913
-2,-1,-1,-3,-7,-2,-1,0,2021-08-07 12:56:59,693913
2,2,3,8,9,8,5,2,2021-08-07 12:56:59,693913
-1,0,-1,-1,7,5,0,0,2021-08-07 12:56:59,693913
1,1,2,3,4,1,0,1,2021-08-07 12:56:59,693913
-4,-3,-1,-4,-7,-6,-3,-2,2021-08-07 12:56:59,724913
0,-2,-3,-4,-5,-2,4,-1,2021-08-07 12:56:59,739914
1,-2,-1,-3,-2,-2,-2,0,2021-08-07 12:56:59,755913
-2,-3,-2,1,3,-3,-8,-5,2021-08-07 12:56:59,755913
-3,-2,-1,-5,-5,-6,-6,-4,2021-08-07 12:56:59,755913
-2,-3,-1,-1,-4,-2,-3,-3,2021-08-07 12:56:59,771912
-2,-3,1,1,1,0,2,2,2021-08-07 12:56:59,771912
3,1,2,-1,0,2,5,5,2021-08-07 12:56:59,771912
0,1,0,2,2,0,1,-2,2021-08-07 12:56:59,771912
0,-1,1,1,6,3,1,1,2021-08-07 12:56:59,771912
-5,-3,-6,-9,-9,-5,-5,-2,2021-08-07 12:56:59,771912
-1,-3,-1,1,-3,-1,-2,-2,2021-08-07 12:56:59,771912
-2,-1,0,2,1,0,1,0,2021-08-07 12:56:59,772913
2,1,4,0,-1,0,1,2,2021-08-07 12:56:59,772913
-1,1,-1,2,5,1,-2,-1,2021-08-07 12:56:59,772913
-4,-4,-5,-5,-5,-5,-3,-2,2021-08-07 12:56:59,772913
1,4,0,-2,0,3,1,2,2021-08-07 12:56:59,803912
-2,1,0,3,-1,-1,-3,-1,2021-08-07 12:56:59,819914
0,-2,0,-2,-4,-4,-3,-2,2021-08-07 12:56:59,835913
-1,0,-2,-2,-6,0,1,1,2021-08-07 12:56:59,835913
-2,-7,-4,0,6,2,-1,-3,2021-08-07 12:56:59,835913
2,3,0,-4,1,0,0,0,2021-08-07 12:56:59,835913
4,4,7,10,9,5,3,3,2021-08-07 12:56:59,835913
-4,-4,-3,-6,-9,-9,-3,-4,2021-08-07 12:56:59,835913
0,-1,-3,-2,-4,-2,-2,-2,2021-08-07 12:56:59,835913
0,0,1,1,4,2,1,2,2021-08-07 12:56:59,835913
-3,-2,-3,-1,-2,-4,-2,-4,2021-08-07 12:56:59,835913
0,2,-1,-1,-2,-1,0,-1,2021-08-07 12:56:59,836915
0,0,1,3,3,3,0,0,2021-08-07 12:56:59,851913
-2,-3,-3,-6,-6,-6,-4,-4,2021-08-07 12:56:59,867915
-2,-5,-4,-10,-13,-6,-2,-2,2021-08-07 12:56:59,882914
3,4,4,11,17,10,5,4,2021-08-07 12:56:59,882914
0,2,1,3,3,2,0,1,2021-08-07 12:56:59,882914
1,0,-2,1,3,1,-2,1,2021-08-07 12:56:59,882914
0,1,0,0,-2,-2,-1,-1,2021-08-07 12:56:59,882914
-4,-2,-2,-3,-6,-3,-2,-1,2021-08-07 12:56:59,883914
-4,-5,-5,-6,-6,-6,-5,-4,2021-08-07 12:56:59,883914
-1,1,3,-3,-3,-2,4,0,2021-08-07 12:56:59,883914
1,2,1,3,4,3,3,3,2021-08-07 12:56:59,883914
-2,-1,-2,-1,-1,-2,-2,-2,2021-08-07 12:56:59,883914
-2,-1,-2,2,2,-1,0,-1,2021-08-07 12:56:59,914914
-1,-1,0,-4,-6,-4,-4,-1,2021-08-07 12:56:59,914914
-1,-1,0,-4,-1,-1,-1,-1,2021-08-07 12:56:59,914914
0,0,-1,-1,1,1,0,-1,2021-08-07 12:56:59,914914
1,0,-1,-3,-3,-1,-1,0,2021-08-07 12:56:59,930913
-2,-2,-2,1,-1,-2,-2,-4,2021-08-07 12:56:59,930913
1,-1,1,2,3,1,1,0,2021-08-07 12:56:59,930913
-1,-2,-1,-2,-1,-3,-2,0,2021-08-07 12:56:59,930913
0,1,2,4,3,2,1,2,2021-08-07 12:56:59,962912
-3,-3,-3,-2,-3,-3,-1,0,2021-08-07 12:56:59,962912
-2,-2,-3,-1,-1,-3,-2,-1,2021-08-07 12:56:59,962912
1,1,1,0,1,3,1,0,2021-08-07 12:56:59,962912
4,3,4,1,0,2,1,1,2021-08-07 12:56:59,978915
-2,0,-1,3,4,2,1,0,2021-08-07 12:56:59,994912
-2,-2,-2,-3,-3,-4,-4,-1,2021-08-07 12:56:59,994912
-3,-5,-4,-3,-5,-3,-5,-3,2021-08-07 12:56:59,994912
0,1,0,-2,-1,-1,-2,-2,2021-08-07 12:57:00,009913
0,1,0,-3,-2,-1,0,0,2021-08-07 12:57:00,009913
-1,-1,-3,-2,-1,0,-1,-1,2021-08-07 12:57:00,009913
0,0,1,-2,-2,0,0,0,2021-08-07 12:57:00,025912
0,-1,-1,-1,1,-1,1,-1,2021-08-07 12:57:00,041914
-2,-2,-3,-2,-1,-2,-1,-2,2021-08-07 12:57:00,041914
-1,0,0,-1,0,0,-2,-1,2021-08-07 12:57:00,041914
-2,-3,-4,-2,-4,-4,-2,-3,2021-08-07 12:57:00,041914
-1,0,-2,-1,0,2,0,3,2021-08-07 12:57:00,041914
-3,1,0,1,1,2,0,0,2021-08-07 12:57:00,042913
-2,0,-2,0,0,-1,1,-2,2021-08-07 12:57:00,042913
-1,-2,-1,-7,-8,-7,-3,-2,2021-08-07 12:57:00,042913
1,0,0,3,4,2,1,1,2021-08-07 12:57:00,042913
4,3,3,5,5,3,1,-1,2021-08-07 12:57:00,057914
1,-1,0,4,4,1,0,0,2021-08-07 12:57:00,073914
0,-1,-1,-1,-1,-1,-1,0,2021-08-07 12:57:00,089913
-3,-5,-6,-6,-9,-7,-4,-3,2021-08-07 12:57:00,105914
0,-2,-3,-4,1,-1,-1,-1,2021-08-07 12:57:00,105914
0,-1,1,0,-2,-1,-1,0,2021-08-07 12:57:00,105914
-2,-4,-4,-1,1,-1,0,-2,2021-08-07 12:57:00,105914
2,2,4,3,2,0,0,0,2021-08-07 12:57:00,105914
1,-2,0,0,-1,-1,1,-1,2021-08-07 12:57:00,105914
1,1,0,-1,2,3,1,0,2021-08-07 12:57:00,106914
-1,0,1,-3,-3,-1,0,-1,2021-08-07 12:57:00,106914
-2,-2,-3,-2,0,1,0,0,2021-08-07 12:57:00,106914
-2,-3,-3,-3,-4,-4,-4,-2,2021-08-07 12:57:00,106914
0,-1,-2,-1,0,-1,-2,-1,2021-08-07 12:57:00,121916
2,3,2,1,1,3,2,2,2021-08-07 12:57:00,137914
0,-1,-1,-3,-4,-2,0,0,2021-08-07 12:57:00,153912
0,0,-1,1,0,1,-2,0,2021-08-07 12:57:00,153912
-3,-2,-2,-1,0,0,-1,-3,2021-08-07 12:57:00,153912
-2,-1,-1,0,-1,0,0,1,2021-08-07 12:57:00,153912
-3,-4,-2,-3,-2,-2,-2,-2,2021-08-07 12:57:00,153912
-2,-2,-3,-4,-5,-3,-2,-1,2021-08-07 12:57:00,153912
-1,-1,-1,-4,-5,-3,-3,-1,2021-08-07 12:57:00,154914
0,-1,1,3,3,0,-1,0,2021-08-07 12:57:00,154914
1,1,3,2,3,1,2,1,2021-08-07 12:57:00,169914
-1,1,-1,3,2,2,0,0,2021-08-07 12:57:00,169914
0,-1,-1,-1,-5,-4,-2,-1,2021-08-07 12:57:00,169914
-5,-4,-4,-11,-13,-8,-5,-4,2021-08-07 12:57:00,169914
2,4,3,7,10,4,4,2,2021-08-07 12:57:00,200914
0,0,-1,4,10,7,1,-1,2021-08-07 12:57:00,216913
0,1,-3,-2,-1,-1,2,0,2021-08-07 12:57:00,232912
0,1,0,-4,-4,-3,-2,-2,2021-08-07 12:57:00,248913
-2,-3,-2,-4,-8,-3,-3,-2,2021-08-07 12:57:00,248913
-1,-2,-1,0,-1,-3,-2,-1,2021-08-07 12:57:00,263914
0,0,-1,0,2,0,-2,0,2021-08-07 12:57:00,279915
1,0,3,5,7,4,1,2,2021-08-07 12:57:00,279915
0,0,0,-2,-2,0,-1,1,2021-08-07 12:57:00,279915
1,-1,-1,-3,-2,-1,0,0,2021-08-07 12:57:00,279915
-2,-4,-1,3,1,-1,0,-2,2021-08-07 12:57:00,279915
-1,-2,-1,1,2,2,-1,-1,2021-08-07 12:57:00,279915
0,0,-1,-5,-6,-3,-2,-1,2021-08-07 12:57:00,280913
-1,0,-4,-5,-8,-4,-1,0,2021-08-07 12:57:00,280913
1,3,4,5,10,9,8,3,2021-08-07 12:57:00,280913
-1,-1,-2,0,0,-3,-4,-3,2021-08-07 12:57:00,280913
-3,-3,-3,0,1,-2,-6,-4,2021-08-07 12:57:00,280913
-2,-1,1,-2,-3,-5,-5,-2,2021-08-07 12:57:00,280913
-1,-2,-4,-8,-10,-6,-5,-3,2021-08-07 12:57:00,280913
1,1,1,0,-6,-2,-1,0,2021-08-07 12:57:00,280913
4,3,0,3,15,11,6,2,2021-08-07 12:57:00,280913
-1,-3,-4,-5,-8,-5,-1,0,2021-08-07 12:57:00,280913
1,0,2,5,10,6,3,2,2021-08-07 12:57:00,295913
-3,-1,-1,0,-3,0,0,0,2021-08-07 12:57:00,311914
-4,-4,-1,0,-3,-4,-1,-4,2021-08-07 12:57:00,311914
-2,0,1,-2,-3,0,-1,-2,2021-08-07 12:57:00,311914
-1,1,3,1,-1,0,-2,0,2021-08-07 12:57:00,311914
-1,1,-1,1,3,2,-1,0,2021-08-07 12:57:00,311914
-1,-2,-2,-5,-7,-4,-1,0,2021-08-07 12:57:00,340914
2,3,2,3,7,2,2,2,2021-08-07 12:57:00,340914
2,-1,-2,-3,-7,-6,-2,0,2021-08-07 12:57:00,340914
-4,-2,0,-1,1,0,-2,-1,2021-08-07 12:57:00,341917
-3,-2,-3,-1,-5,-3,1,-1,2021-08-07 12:57:00,341917
2,2,2,2,5,6,3,0,2021-08-07 12:57:00,341917
-1,1,-1,-3,-3,-3,-3,-1,2021-08-07 12:57:00,359914
-1,-2,-4,-1,0,-1,0,0,2021-08-07 12:57:00,375915
-3,-3,-4,-5,-1,0,0,-1,2021-08-07 12:57:00,391915
-1,0,3,11,7,2,-1,0,2021-08-07 12:57:00,391915
0,0,0,0,2,1,1,1,2021-08-07 12:57:00,391915
-2,0,-1,-6,-4,-4,-1,-1,2021-08-07 12:57:00,391915
1,1,2,2,-3,-2,-1,-1,2021-08-07 12:57:00,391915
2,-1,-2,-1,0,0,-2,1,2021-08-07 12:57:00,391915
-2,-4,-3,-2,-3,-2,-3,-3,2021-08-07 12:57:00,391915
0,-2,-4,-5,-4,-3,0,-2,2021-08-07 12:57:00,392914
0,1,-1,-4,2,4,1,1,2021-08-07 12:57:00,423913
-2,-1,0,-2,-6,-4,2,0,2021-08-07 12:57:00,439914
-3,-4,-3,3,8,6,4,-2,2021-08-07 12:57:00,455915
9,11,12,10,10,11,13,10,2021-08-07 12:57:00,471914
-1,-2,-3,-5,-8,-9,-15,-4,2021-08-07 12:57:00,503914
-9,-9,-6,0,1,-3,-7,-8,2021-08-07 12:57:00,519912
0,-1,-1,3,7,19,26,9,2021-08-07 12:57:00,535916
18,5,6,4,8,15,15,18,2021-08-07 12:57:00,535916
0,4,2,2,-4,-24,-42,-36,2021-08-07 12:57:00,551914
-29,-20,-17,-24,-31,-42,-41,-32,2021-08-07 12:57:00,551914
-6,-4,1,0,-6,-16,-19,10,2021-08-07 12:57:00,551914
-33,-18,-17,-16,-19,-20,-15,-29,2021-08-07 12:57:00,551914
53,17,10,12,22,62,79,41,2021-08-07 12:57:00,551914
17,15,19,16,22,22,18,36,2021-08-07 12:57:00,552913
-43,-16,-9,-13,-23,-48,-43,-17,2021-08-07 12:57:00,552913
1,-9,-12,-6,-7,-4,-8,-10,2021-08-07 12:57:00,552913
-2,-1,-4,-2,-2,-5,-10,-15,2021-08-07 12:57:00,552913
-23,-7,-4,-1,-3,-2,-3,-23,2021-08-07 12:57:00,552913
29,16,13,12,25,54,58,17,2021-08-07 12:57:00,552913
45,10,16,21,36,72,89,93,2021-08-07 12:57:00,552913
-2,-5,-10,-13,-24,-62,-65,15,2021-08-07 12:57:00,552913
-31,-13,-18,-28,-45,-71,-62,-52,2021-08-07 12:57:00,553913
16,4,-8,-11,-18,-26,-34,-31,2021-08-07 12:57:00,553913
-31,-7,-1,4,5,9,0,-34,2021-08-07 12:57:00,553913
-28,-9,7,15,29,60,65,26,2021-08-07 12:57:00,553913
16,10,8,9,17,28,33,36,2021-08-07 12:57:00,553913
10,8,3,0,-2,-8,-7,-8,2021-08-07 12:57:00,553913
6,-3,-10,-8,-9,-14,-25,-39,2021-08-07 12:57:00,567912
0,-9,1,2,2,-5,-3,19,2021-08-07 12:57:00,567912
13,13,2,-4,-7,-12,-9,13,2021-08-07 12:57:00,567912
8,0,-3,-1,-7,7,13,2,2021-08-07 12:57:00,567912
12,9,7,14,22,9,2,10,2021-08-07 12:57:00,567912
-28,-4,-4,-8,-10,-22,-26,-30,2021-08-07 12:57:00,567912
0,-7,-7,-11,-13,2,4,-9,2021-08-07 12:57:00,567912
6,-7,-7,-36,-56,-20,-2,7,2021-08-07 12:57:00,567912
-2,15,19,53,82,39,6,8,2021-08-07 12:57:00,568916
-6,6,20,41,26,4,-1,-15,2021-08-07 12:57:00,599913
29,18,22,67,59,46,38,23,2021-08-07 12:57:00,599913
-8,-3,-9,17,-12,-14,-8,3,2021-08-07 12:57:00,599913
-32,-30,-38,-111,-100,-71,-54,-33,2021-08-07 12:57:00,615915
3,-1,14,-15,-16,-8,1,-4,2021-08-07 12:57:00,615915
18,14,11,43,37,40,27,17,2021-08-07 12:57:00,615915
-10,-6,-24,-32,-4,1,-7,-5,2021-08-07 12:57:00,615915
-19,-30,-12,-53,-51,-43,-29,-21,2021-08-07 12:57:00,616916
7,-9,-63,-30,-6,8,8,3,2021-08-07 12:57:00,631913
-19,-30,-24,-90,-63,-30,-20,-14,2021-08-07 12:57:00,631913
-14,-7,10,6,12,3,-7,-9,2021-08-07 12:57:00,631913
20,22,9,41,38,23,18,16,2021-08-07 12:57:00,631913
12,26,63,81,40,12,10,9,2021-08-07 12:57:00,662914
3,17,18,99,40,8,3,1,2021-08-07 12:57:00,678914
1,-1,2,-36,-14,4,5,0,2021-08-07 12:57:00,694912
-6,-13,-8,-57,-36,-17,-15,-8,2021-08-07 12:57:00,694912
-8,-13,-50,-45,-20,-10,-8,-9,2021-08-07 12:57:00,694912
6,4,-6,-4,10,10,9,4,2021-08-07 12:57:00,694912
6,8,15,35,27,10,8,8,2021-08-07 12:57:00,694912
-4,6,19,37,-1,-12,-6,0,2021-08-07 12:57:00,694912
0,0,9,8,-1,3,1,-1,2021-08-07 12:57:00,694912
0,-5,-5,-24,-10,5,4,-7,2021-08-07 12:57:00,694912
0,-3,-2,2,5,-1,-4,2,2021-08-07 12:57:00,694912
-1,3,4,23,5,-5,-4,0,2021-08-07 12:57:00,695913
-4,-5,-7,-13,-8,-3,1,-2,2021-08-07 12:57:00,726913
-3,-9,-8,-26,-21,-10,-5,-3,2021-08-07 12:57:00,726913
-3,-1,7,12,17,6,0,-2,2021-08-07 12:57:00,726913
8,10,5,29,24,14,9,7,2021-08-07 12:57:00,726913
-2,-4,-6,-15,-13,-8,-5,-4,2021-08-07 12:57:00,726913
-4,-4,3,-14,-5,-4,-5,-1,2021-08-07 12:57:00,726913
-1,0,-1,7,4,1,-1,-3,2021-08-07 12:57:00,727915
-1,-1,-6,3,-1,1,2,-6,2021-08-07 12:57:00,727915
3,-4,-1,-15,-16,-8,0,8,2021-08-07 12:57:00,758913
-4,-6,-4,-9,-8,-6,-5,-4,2021-08-07 12:57:00,774912
4,3,1,10,7,1,1,3,2021-08-07 12:57:00,774912
2,4,2,13,14,4,2,-1,2021-08-07 12:57:00,774912
-2,0,5,3,5,4,1,-3,2021-08-07 12:57:00,775913
-1,-5,-11,-24,-17,-7,-2,-1,2021-08-07 12:57:00,775913
-1,0,-1,-5,-1,0,1,0,2021-08-07 12:57:00,775913
-2,-1,2,0,-8,-7,-4,-3,2021-08-07 12:57:00,775913
-1,-1,0,12,6,2,0,-4,2021-08-07 12:57:00,790913
4,1,-3,-1,2,2,1,4,2021-08-07 12:57:00,806914
-8,-10,-11,-26,-14,-8,-5,-5,2021-08-07 12:57:00,822914
2,0,1,6,3,3,1,4,2021-08-07 12:57:00,838913
0,3,1,-6,-2,-1,1,0,2021-08-07 12:57:00,838913
2,3,6,11,7,4,2,2,2021-08-07 12:57:00,838913
-1,1,-1,4,0,0,0,-2,2021-08-07 12:57:00,838913
-1,0,-2,3,2,-1,0,1,2021-08-07 12:57:00,838913
0,2,3,11,-1,1,1,-1,2021-08-07 12:57:00,838913
0,0,-2,-7,9,6,2,0,2021-08-07 12:57:00,838913
1,1,1,-1,2,1,0,1,2021-08-07 12:57:00,838913
0,-2,-4,-11,-11,-5,-3,1,2021-08-07 12:57:00,838913
-7,-6,-3,-9,-10,-4,-5,-4,2021-08-07 12:57:00,854914
-3,1,1,1,-3,-2,-3,-3,2021-08-07 12:57:00,870912
2,0,4,20,20,10,6,3,2021-08-07 12:57:00,870912
0,-1,-4,-1,-2,-2,-2,0,2021-08-07 12:57:00,870912
-2,-3,-3,-12,-9,-5,-4,-4,2021-08-07 12:57:00,886913
1,1,0,-11,-3,-1,1,2,2021-08-07 12:57:00,886913
-3,-2,-3,-4,-2,-4,-2,-4,2021-08-07 12:57:00,886913
1,0,0,1,-7,-5,-2,-2,2021-08-07 12:57:00,886913
-1,2,4,18,21,6,2,1,2021-08-07 12:57:00,902914
0,-1,-1,-3,-12,-6,-2,-1,2021-08-07 12:57:00,918913
4,8,8,20,15,8,6,4,2021-08-07 12:57:00,934913
-8,-9,-13,-37,-26,-11,-7,-6,2021-08-07 12:57:00,934913
-3,-3,-5,-9,-10,-4,-5,-4,2021-08-07 12:57:00,934913
1,0,1,5,14,5,2,0,2021-08-07 12:57:00,934913
6,12,21,51,28,10,6,5,2021-08-07 12:57:00,934913
1,2,1,22,9,3,1,2,2021-08-07 12:57:00,934913
-4,-9,-19,-56,-35,-11,-6,-3,2021-08-07 12:57:00,934913
-11,-19,-21,-61,-39,-22,-15,-11,2021-08-07 12:57:00,934913
-1,-5,-16,-17,-10,-4,-3,-2,2021-08-07 12:57:00,934913
1,2,7,13,5,1,-1,0,2021-08-07 12:57:00,935915
2,7,13,29,14,5,1,0,2021-08-07 12:57:00,966913
5,11,14,34,28,14,8,7,2021-08-07 12:57:00,966913
-2,0,0,-2,4,2,0,1,2021-08-07 12:57:00,966913
1,2,1,17,13,4,2,-1,2021-08-07 12:57:00,966913
-2,-3,-7,-17,-11,-5,-2,-1,2021-08-07 12:57:00,966913
1,0,0,-4,-5,-3,-1,-1,2021-08-07 12:57:00,966913
-5,-8,-9,-16,-18,-10,-7,-6,2021-08-07 12:57:00,982913
-3,-3,-3,-10,-9,-4,-2,-2,2021-08-07 12:57:00,982913
3,5,5,16,15,6,2,1,2021-08-07 12:57:01,013913
-1,1,2,3,2,3,0,1,2021-08-07 12:57:01,028915
2,2,5,9,6,2,2,2,2021-08-07 12:57:01,060913
0,-2,-6,-10,-6,-2,0,-1,2021-08-07 12:57:01,076912
-6,-7,-6,-9,-12,-8,-4,-3,2021-08-07 12:57:01,092913
-1,-3,-6,-11,-4,0,-1,-1,2021-08-07 12:57:01,092913
-2,-4,-1,-3,-1,1,0,-2,2021-08-07 12:57:01,092913
-2,-2,-2,-10,-6,-5,-4,-2,2021-08-07 12:57:01,092913
0,-2,0,13,7,1,1,-2,2021-08-07 12:57:01,092913
3,6,7,21,15,8,5,2,2021-08-07 12:57:01,092913
3,2,3,-6,-3,1,3,5,2021-08-07 12:57:01,093915
-1,3,4,0,4,2,2,1,2021-08-07 12:57:01,093915
-1,-2,3,0,-4,-2,-3,-1,2021-08-07 12:57:01,093915
-3,-5,-15,-12,-13,-7,-4,-3,2021-08-07 12:57:01,093915
-4,-4,-3,-16,-8,-4,-5,-5,2021-08-07 12:57:01,093915
0,-1,-6,-1,-2,-2,-1,-2,2021-08-07 12:57:01,108915
-1,0,4,-6,-16,-8,-4,-2,2021-08-07 12:57:01,108915
8,12,11,20,18,12,8,8,2021-08-07 12:57:01,108915
6,9,10,38,41,23,11,4,2021-08-07 12:57:01,108915
-2,0,-1,-7,1,0,2,3,2021-08-07 12:57:01,108915
-3,-3,-6,-7,-8,-4,-2,-3,2021-08-07 12:57:01,108915
-6,-7,-11,-33,-27,-11,-7,-7,2021-08-07 12:57:01,108915
-5,-8,-9,-18,-21,-11,-6,-5,2021-08-07 12:57:01,109913
-1,1,0,6,2,-1,-2,-1,2021-08-07 12:57:01,109913
0,3,1,6,8,4,2,2,2021-08-07 12:57:01,109913
1,4,8,27,14,5,1,3,2021-08-07 12:57:01,124912
1,1,1,-4,-3,1,1,3,2021-08-07 12:57:01,140913
-2,-4,-5,-13,-13,-5,-4,-3,2021-08-07 12:57:01,156912
-1,-2,-3,-6,-1,-1,-1,-2,2021-08-07 12:57:01,172914
-2,-1,1,13,9,4,2,-1,2021-08-07 12:57:01,187914
-1,-1,0,5,2,-4,-3,-1,2021-08-07 12:57:01,202914
1,0,-3,-5,-3,1,1,1,2021-08-07 12:57:01,202914
3,4,0,-7,-3,-1,2,3,2021-08-07 12:57:01,202914
1,-1,4,14,8,2,1,-1,2021-08-07 12:57:01,202914
-5,-6,-5,-5,-13,-8,-5,-4,2021-08-07 12:57:01,202914
0,1,1,-10,-5,0,-1,1,2021-08-07 12:57:01,203917
-2,-4,-5,-9,-15,-10,-6,-4,2021-08-07 12:57:01,203917
-5,-5,-4,-25,-12,-1,-3,-5,2021-08-07 12:57:01,203917
1,2,6,19,27,9,3,0,2021-08-07 12:57:01,203917
-1,-2,-4,6,7,1,0,-1,2021-08-07 12:57:01,203917
3,4,-4,5,11,5,4,3,2021-08-07 12:57:01,216913
-1,0,1,5,-11,-9,-4,1,2021-08-07 12:57:01,216913
-4,-2,-6,-12,-11,-6,-4,-4,2021-08-07 12:57:01,216913
2,1,4,-2,6,4,3,0,2021-08-07 12:57:01,216913
-3,-5,-2,2,2,-1,-2,-3,2021-08-07 12:57:01,216913
-2,-3,-4,1,-6,-4,-3,-1,2021-08-07 12:57:01,216913
0,0,-1,-16,-10,-4,-2,-1,2021-08-07 12:57:01,217913
-3,-2,0,3,-2,-6,-3,-4,2021-08-07 12:57:01,217913
1,1,1,5,4,2,1,-1,2021-08-07 12:57:01,234913
3,4,4,8,12,4,2,0,2021-08-07 12:57:01,234913
2,2,0,4,6,6,3,1,2021-08-07 12:57:01,234913
0,0,-2,0,-8,-2,-1,0,2021-08-07 12:57:01,234913
-2,-1,-1,-7,-3,1,-2,0,2021-08-07 12:57:01,265913
-6,-7,-7,-19,-17,-12,-6,-4,2021-08-07 12:57:01,265913
0,1,-2,10,14,8,3,1,2021-08-07 12:57:01,265913
-3,-5,-4,-11,-17,-12,-6,-2,2021-08-07 12:57:01,265913
-1,-2,1,5,9,6,2,-1,2021-08-07 12:57:01,281913
2,3,5,13,11,4,5,3,2021-08-07 12:57:01,281913
-3,-4,-5,-2,-5,-3,-2,-1,2021-08-07 12:57:01,281913
-1,-1,-1,-3,-1,1,-2,-2,2021-08-07 12:57:01,281913
-1,3,3,-3,-2,0,0,1,2021-08-07 12:57:01,296913
-2,-3,-4,-6,-1,-1,-1,-2,2021-08-07 12:57:01,312913
-4,-5,-4,-14,-18,-12,-6,-5,2021-08-07 12:57:01,328913
4,7,13,30,31,15,7,3,2021-08-07 12:57:01,344912
-3,-3,-8,8,-2,-4,-2,-2,2021-08-07 12:57:01,360912
1,-1,-6,-31,-12,-3,0,1,2021-08-07 12:57:01,360912
-3,-2,-1,-9,-12,-8,-5,-3,2021-08-07 12:57:01,360912
-1,-2,-3,-1,5,0,-1,-2,2021-08-07 12:57:01,360912
4,4,9,11,9,4,1,2,2021-08-07 12:57:01,360912
3,5,5,31,15,6,3,2,2021-08-07 12:57:01,360912
-2,-6,-14,-33,-20,-7,-4,-2,2021-08-07 12:57:01,361913
-5,-6,-2,-16,-13,-6,-4,-4,2021-08-07 12:57:01,361913
0,1,2,3,6,4,2,-2,2021-08-07 12:57:01,361913
-1,1,0,3,-8,-5,-4,-2,2021-08-07 12:57:01,361913
-1,-2,-3,-10,-13,-7,-5,-3,2021-08-07 12:57:01,361913
4,2,1,1,9,7,6,5,2021-08-07 12:57:01,361913
1,1,4,5,13,5,1,1,2021-08-07 12:57:01,376914
-2,0,-5,9,0,2,0,-1,2021-08-07 12:57:01,392914
2,1,4,10,15,5,3,2,2021-08-07 12:57:01,392914
-5,-3,-5,-7,-16,-11,-6,-4,2021-08-07 12:57:01,392914
-1,-2,0,-5,-1,-1,-2,0,2021-08-07 12:57:01,392914
0,1,3,-8,-3,-2,-2,0,2021-08-07 12:57:01,392914
-3,-4,-5,-6,-19,-12,-7,-3,2021-08-07 12:57:01,393915
3,5,5,9,16,11,6,3,2021-08-07 12:57:01,393915
1,1,0,-2,-1,-2,1,0,2021-08-07 12:57:01,424913
-7,-6,-4,-10,-6,-5,-3,-5,2021-08-07 12:57:01,424913
3,2,2,10,5,3,0,1,2021-08-07 12:57:01,424913
-2,-5,-6,-7,-9,-6,-4,-4,2021-08-07 12:57:01,424913
-3,-2,-1,-4,-5,-2,-2,-2,2021-08-07 12:57:01,440913
5,4,5,3,8,5,3,3,2021-08-07 12:57:01,456915
-3,-2,-5,-7,-10,-5,-4,-2,2021-08-07 12:57:01,472915
-1,0,1,10,5,2,0,-2,2021-08-07 12:57:01,487913
0,0,0,4,8,5,2,2,2021-08-07 12:57:01,487913
2,2,8,19,15,7,3,1,2021-08-07 12:57:01,487913
1,1,1,7,2,2,1,1,2021-08-07 12:57:01,487913
-5,-7,-13,-30,-20,-9,-7,-5,2021-08-07 12:57:01,487913
-4,-8,-8,-19,-16,-10,-8,-5,2021-08-07 12:57:01,487913
0,-1,0,0,7,4,1,-1,2021-08-07 12:57:01,488914
5,6,7,18,16,8,6,4,2021-08-07 12:57:01,488914
3,5,6,13,9,4,2,3,2021-08-07 12:57:01,488914
1,1,4,15,3,-2,0,1,2021-08-07 12:57:01,488914
0,-2,-6,-25,-23,-8,-4,-2,2021-08-07 12:57:01,488914
-5,-4,-4,-7,-1,-3,-4,-4,2021-08-07 12:57:01,488914
0,0,-3,1,1,2,2,1,2021-08-07 12:57:01,488914
-1,0,1,-2,8,3,1,0,2021-08-07 12:57:01,534914
-1,-2,-1,8,5,3,1,-1,2021-08-07 12:57:01,534914
2,3,6,7,17,6,5,1,2021-08-07 12:57:01,534914
-1,0,1,7,2,1,1,-2,2021-08-07 12:57:01,534914
0,-1,-3,1,-4,-1,1,0,2021-08-07 12:57:01,534914
-1,-2,-4,-12,-8,-4,-1,0,2021-08-07 12:57:01,534914
-3,-4,-3,-9,-8,-4,-3,-3,2021-08-07 12:57:01,550914
-3,-1,4,5,-3,-3,-4,-1,2021-08-07 12:57:01,550914
0,-1,-2,0,1,1,1,-1,2021-08-07 12:57:01,550914
-2,-2,0,-6,-8,-5,-2,-2,2021-08-07 12:57:01,550914
-1,-4,-2,-6,-5,-3,-4,-2,2021-08-07 12:57:01,550914
7,9,11,19,21,11,7,7,2021-08-07 12:57:01,566914
-1,-1,-4,-3,-7,-2,-1,-1,2021-08-07 12:57:01,582913
-2,-4,-4,-18,-5,-3,-3,-3,2021-08-07 12:57:01,582913
0,0,-1,1,3,5,2,2,2021-08-07 12:57:01,582913
-4,-7,-6,-3,-6,-7,-5,-4,2021-08-07 12:57:01,597914
1,1,0,-6,-7,-6,-4,-1,2021-08-07 12:57:01,613912
4,8,11,21,16,9,4,6,2021-08-07 12:57:01,613912
-3,-2,-3,-3,-4,-4,-3,-4,2021-08-07 12:57:01,613912
-2,-1,0,1,1,2,0,-2,2021-08-07 12:57:01,613912
-2,-4,-7,-18,-4,0,0,-2,2021-08-07 12:57:01,613912
-3,-2,-3,4,-2,-5,-2,-2,2021-08-07 12:57:01,613912
-2,0,1,-1,-3,-1,-1,-2,2021-08-07 12:57:01,613912
-4,-7,-9,-10,-9,-6,-5,-3,2021-08-07 12:57:01,613912
-4,-5,-5,-14,-20,-10,-7,-4,2021-08-07 12:57:01,639913
-1,0,0,3,2,1,0,0,2021-08-07 12:57:01,639913
2,2,3,5,13,8,5,2,2021-08-07 12:57:01,639913
0,2,0,4,0,0,0,-2,2021-08-07 12:57:01,639913
3,4,4,16,14,4,3,1,2021-08-07 12:57:01,660912
-4,-5,-3,5,-4,-3,-4,-3,2021-08-07 12:57:01,675912
1,-1,-9,-20,-9,-3,0,0,2021-08-07 12:57:01,690913
-5,-6,-6,-14,-9,-2,-4,-4,2021-08-07 12:57:01,706914
1,1,4,4,1,1,2,1,2021-08-07 12:57:01,706914
1,5,7,17,6,1,1,0,2021-08-07 12:57:01,706914
-1,0,4,18,1,-1,-2,0,2021-08-07 12:57:01,706914
1,-5,-7,-25,-12,-4,-2,0,2021-08-07 12:57:01,706914
-2,-4,-6,-16,7,6,3,-2,2021-08-07 12:57:01,706914
-1,-5,-10,-8,0,-1,1,-1,2021-08-07 12:57:01,707913
-4,-4,-2,4,-5,-7,-5,-2,2021-08-07 12:57:01,707913
0,1,6,17,13,4,1,2,2021-08-07 12:57:01,707913
3,7,9,15,7,4,3,2,2021-08-07 12:57:01,707913
3,3,2,0,3,5,5,3,2021-08-07 12:57:01,707913
-2,-2,-5,-9,-10,-7,-3,-3,2021-08-07 12:57:01,707913
-4,-4,-3,-20,-11,-5,-3,-3,2021-08-07 12:57:01,707913
-5,-6,-8,-7,-9,-7,-6,-4,2021-08-07 12:57:01,737913
-2,-1,-6,2,-1,-3,-3,0,2021-08-07 12:57:01,737913
-3,-3,0,-7,-16,-9,-4,-1,2021-08-07 12:57:01,737913
2,2,3,15,5,2,1,2,2021-08-07 12:57:01,737913
5,7,12,21,38,21,10,6,2021-08-07 12:57:01,768913
-2,-1,0,-6,-10,-7,-3,-3,2021-08-07 12:57:01,784913
1,0,0,3,0,1,-1,-2,2021-08-07 12:57:01,800914
-2,-3,-2,-8,-10,-8,-3,-1,2021-08-07 12:57:01,816912
-2,-1,-7,-16,-19,-10,-3,-2,2021-08-07 12:57:01,832913
-6,-7,-8,-17,-4,-1,-3,-4,2021-08-07 12:57:01,832913
-2,-4,0,-10,-10,-6,-2,-1,2021-08-07 12:57:01,832913
5,10,9,24,23,11,8,4,2021-08-07 12:57:01,832913
-2,-3,-5,3,-6,-4,-3,-3,2021-08-07 12:57:01,832913
-1,-2,-2,-6,-2,-2,-2,-1,2021-08-07 12:57:01,833913
-2,-3,-3,-8,-9,-5,-4,-1,2021-08-07 12:57:01,833913
-2,-3,1,-4,-12,-8,-6,-2,2021-08-07 12:57:01,833913
2,3,4,19,20,13,4,4,2021-08-07 12:57:01,833913
-3,-4,-8,-10,-6,-3,-4,-4,2021-08-07 12:57:01,833913
2,0,-1,4,6,3,2,2,2021-08-07 12:57:01,833913
1,3,1,3,5,4,1,1,2021-08-07 12:57:01,833913
-2,-2,3,1,-6,-8,-4,-2,2021-08-07 12:57:01,833913
1,2,5,7,4,4,1,2,2021-08-07 12:57:01,834913
-2,-2,-6,-11,-9,-7,-2,-2,2021-08-07 12:57:01,834913
-2,-7,-10,-17,-19,-6,-4,-2,2021-08-07 12:57:01,834913
-1,0,2,7,7,1,-1,-1,2021-08-07 12:57:01,848914
7,8,10,21,26,16,9,6,2021-08-07 12:57:01,848914
-1,-2,-4,0,2,2,0,-1,2021-08-07 12:57:01,848914
-7,-12,-16,-30,-23,-14,-9,-8,2021-08-07 12:57:01,848914
-5,-5,-5,-20,-23,-11,-5,-1,2021-08-07 12:57:01,880914
1,1,4,11,8,3,0,0,2021-08-07 12:57:01,880914
1,3,7,22,22,8,4,1,2021-08-07 12:57:01,880914
3,5,6,17,11,5,2,2,2021-08-07 12:57:01,880914
0,-2,-7,-16,-9,-4,-1,0,2021-08-07 12:57:01,896912
-5,-5,-7,-17,-19,-13,-6,-4,2021-08-07 12:57:01,912913
2,4,3,5,10,8,3,2,2021-08-07 12:57:01,928914
-3,0,-1,6,1,0,0,-1,2021-08-07 12:57:01,944914
0,-1,-1,-10,-8,-4,-2,0,2021-08-07 12:57:01,976912
0,3,7,8,4,0,-1,-1,2021-08-07 12:57:01,992915
-5,-8,-10,-12,-6,-3,-5,-5,2021-08-07 12:57:01,992915
6,11,13,24,26,12,6,7,2021-08-07 12:57:02,008913
0,2,1,5,-8,-3,-2,1,2021-08-07 12:57:02,024913
0,-2,-2,2,6,4,1,2,2021-08-07 12:57:02,024913
0,-1,-1,-3,5,3,1,-2,2021-08-07 12:57:02,024913
-1,-2,-2,-7,-14,-6,-2,-2,2021-08-07 12:57:02,024913
-4,-6,-6,-2,-9,-5,-3,-4,2021-08-07 12:57:02,040913
-1,-2,1,-8,13,8,3,-1,2021-08-07 12:57:02,040913
-2,0,1,1,-1,-5,-4,-2,2021-08-07 12:57:02,040913
-4,-6,-11,-9,-11,-7,-7,-4,2021-08-07 12:57:02,040913
1,2,2,7,7,3,2,0,2021-08-07 12:57:02,040913
-2,-4,-6,-9,-23,-11,-7,-2,2021-08-07 12:57:02,040913
5,7,7,8,7,6,6,4,2021-08-07 12:57:02,041915
1,3,0,-6,4,1,2,2,2021-08-07 12:57:02,041915
0,1,3,15,8,2,-1,-1,2021-08-07 12:57:02,041915
0,-2,-1,4,-1,-3,-1,0,2021-08-07 12:57:02,041915
-3,-5,-8,-25,-19,-8,-1,0,2021-08-07 12:57:02,041915
1,0,2,-8,-3,1,0,-1,2021-08-07 12:57:02,041915
0,-3,-4,-5,-2,-1,-3,-2,2021-08-07 12:57:02,041915
4,6,11,17,11,4,4,3,2021-08-07 12:57:02,041915
0,2,1,23,16,6,2,-1,2021-08-07 12:57:02,041915
0,-1,-3,-7,1,2,1,1,2021-08-07 12:57:02,042913
-5,-7,-10,-37,-19,-7,-5,-4,2021-08-07 12:57:02,042913
-4,-6,-5,-13,-18,-14,-8,-5,2021-08-07 12:57:02,042913
0,-1,2,6,-8,-5,-3,-1,2021-08-07 12:57:02,042913
1,0,5,19,17,11,4,2,2021-08-07 12:57:02,042913
5,8,4,6,9,6,6,3,2021-08-07 12:57:02,056913
-4,-5,-7,-8,-8,-3,-3,-3,2021-08-07 12:57:02,056913
-1,3,4,2,1,1,0,0,2021-08-07 12:57:02,056913
-1,-2,-1,1,-7,-5,-3,-4,2021-08-07 12:57:02,056913
3,4,6,16,19,9,5,3,2021-08-07 12:57:02,072914
-1,-2,-7,-5,-7,-4,0,-1,2021-08-07 12:57:02,087913
-1,-3,-2,-8,7,9,2,0,2021-08-07 12:57:02,102913
-7,-6,-9,-16,-21,-16,-9,-7,2021-08-07 12:57:02,102913
0,-1,-7,-7,1,1,-1,0,2021-08-07 12:57:02,102913
3,3,3,12,16,11,6,3,2021-08-07 12:57:02,102913
-2,-2,-3,3,-5,-6,-3,-1,2021-08-07 12:57:02,102913
2,2,6,0,2,0,0,-1,2021-08-07 12:57:02,102913
-4,-2,-4,-8,-11,-8,-5,-3,2021-08-07 12:57:02,118913
-2,-5,-6,-5,-8,-3,-1,-3,2021-08-07 12:57:02,118913
1,2,1,-8,-1,0,-1,2,2021-08-07 12:57:02,118913
-2,-1,-2,6,4,2,0,-1,2021-08-07 12:57:02,118913
-2,-2,-1,7,-1,-1,-1,-3,2021-08-07 12:57:02,150913
0,0,-1,-8,3,1,-1,-2,2021-08-07 12:57:02,165914
-1,1,1,0,-8,-6,-1,-1,2021-08-07 12:57:02,165914
1,2,3,12,11,6,4,2,2021-08-07 12:57:02,165914
0,1,2,6,1,0,-2,1,2021-08-07 12:57:02,165914
-2,-2,-3,3,1,0,-1,-2,2021-08-07 12:57:02,165914
-6,-9,-13,-26,-17,-7,-7,-6,2021-08-07 12:57:02,166916
0,-3,-2,-11,-8,-3,-3,-3,2021-08-07 12:57:02,166916
2,0,3,5,1,2,1,2,2021-08-07 12:57:02,181913
0,4,6,11,5,0,2,2,2021-08-07 12:57:02,181913
-1,-3,-4,-4,-3,-4,-3,-3,2021-08-07 12:57:02,181913
-2,0,-1,-1,2,3,2,3,2021-08-07 12:57:02,181913
1,-1,-1,-1,6,4,2,-1,2021-08-07 12:57:02,197915
-4,-4,-3,-5,-12,-10,-6,-4,2021-08-07 12:57:02,197915
-1,0,0,6,2,1,0,-2,2021-08-07 12:57:02,197915
0,0,-3,-8,-8,0,-1,0,2021-08-07 12:57:02,197915
0,-1,1,1,-1,-2,-1,-1,2021-08-07 12:57:02,213913
1,1,0,3,2,2,1,2,2021-08-07 12:57:02,213913
-2,-2,-2,-18,-13,-9,-4,-3,2021-08-07 12:57:02,213913
0,0,1,6,9,5,3,-1,2021-08-07 12:57:02,213913
-2,-2,-1,1,0,-2,-1,-2,2021-08-07 12:57:02,245939
-2,-2,-2,-8,-9,0,-1,-1,2021-08-07 12:57:02,261940
-1,-1,-1,6,9,4,1,0,2021-08-07 12:57:02,277942
0,-1,-2,2,-2,-5,-2,-2,2021-08-07 12:57:02,293942
4,6,8,15,8,6,5,2,2021-08-07 12:57:02,309941
1,2,1,-2,3,2,-1,0,2021-08-07 12:57:02,309941
-2,-3,-2,-2,-6,-4,-2,-1,2021-08-07 12:57:02,309941
-4,-5,-6,-18,-19,-9,-5,-3,2021-08-07 12:57:02,309941
-3,-4,-6,-2,6,2,0,-2,2021-08-07 12:57:02,309941
0,2,1,2,1,1,-1,0,2021-08-07 12:57:02,309941
0,-1,2,11,7,1,-2,-1,2021-08-07 12:57:02,309941
3,4,7,24,29,15,5,5,2021-08-07 12:57:02,309941
0,-2,-2,-15,-17,-8,-4,-2,2021-08-07 12:57:02,309941
0,0,-1,-5,1,0,0,-1,2021-08-07 12:57:02,310941
-1,-2,-5,-6,-12,-8,-4,-4,2021-08-07 12:57:02,310941
0,-1,-2,2,2,2,3,1,2021-08-07 12:57:02,310941
-4,-5,-7,-9,-6,-3,-4,-5,2021-08-07 12:57:02,325941
-1,-3,-4,-4,-1,0,0,-1,2021-08-07 12:57:02,341940
0,1,3,2,3,4,1,0,2021-08-07 12:57:02,341940
1,2,2,4,0,0,-1,-1,2021-08-07 12:57:02,341940
1,0,-2,-9,-13,-7,-4,0,2021-08-07 12:57:02,341940
0,-2,-1,1,-1,-1,0,-1,2021-08-07 12:57:02,341940
3,4,4,11,13,7,6,5,2021-08-07 12:57:02,341940
-2,0,2,10,5,-1,0,-1,2021-08-07 12:57:02,342942
-3,1,-2,-6,-9,-7,-5,-1,2021-08-07 12:57:02,357940
0,-3,-1,-5,4,5,-1,-2,2021-08-07 12:57:02,357940
1,0,0,-4,-8,-5,-2,1,2021-08-07 12:57:02,357940
-4,-6,-8,-13,-10,-3,-4,-2,2021-08-07 12:57:02,357940
0,0,0,0,8,2,0,0,2021-08-07 12:57:02,388941
1,0,4,-1,-13,-7,-3,-1,2021-08-07 12:57:02,388941
0,1,3,12,19,12,4,1,2021-08-07 12:57:02,388941
2,4,1,8,8,1,2,2,2021-08-07 12:57:02,388941
-2,-2,-5,-2,-9,-7,-2,-2,2021-08-07 12:57:02,388941
-2,-4,-7,-9,-4,-2,-1,-1,2021-08-07 12:57:02,388941
-4,-9,-11,-33,-22,-9,-6,-4,2021-08-07 12:57:02,389941
-2,-2,1,-5,-13,-8,-5,-3,2021-08-07 12:57:02,389941
3,3,7,15,24,14,5,3,2021-08-07 12:57:02,420941
0,2,4,16,11,3,1,0,2021-08-07 12:57:02,420941
-1,0,0,6,-1,0,0,0,2021-08-07 12:57:02,420941
3,5,3,-4,-3,-1,2,0,2021-08-07 12:57:02,420941
1,1,3,9,13,6,2,0,2021-08-07 12:57:02,451941
-2,-1,-1,5,-3,-5,-3,-1,2021-08-07 12:57:02,452188
-6,-10,-12,-24,-18,-10,-6,-6,2021-08-07 12:57:02,452188
-3,-5,-7,-14,-14,-8,-5,-5,2021-08-07 12:57:02,452188
0,-1,-2,-5,-3,2,1,0,2021-08-07 12:57:02,452188
0,2,4,10,9,5,2,1,2021-08-07 12:57:02,452188
4,7,7,20,21,10,6,3,2021-08-07 12:57:02,467458
1,1,2,5,4,2,0,0,2021-08-07 12:57:02,483459
-1,-1,-4,-5,-6,-1,0,-1,2021-08-07 12:57:02,489458
-5,-5,-6,-16,-17,-10,-5,-5,2021-08-07 12:57:02,489458
-5,-3,-3,-11,-15,-7,-5,-2,2021-08-07 12:57:02,489458
0,-2,-8,-2,6,1,1,-2,2021-08-07 12:57:02,490458
-1,-1,1,6,0,-4,-1,-2,2021-08-07 12:57:02,499456
1,0,2,-1,-3,-1,-3,-1,2021-08-07 12:57:02,499456
5,9,9,17,21,8,7,4,2021-08-07 12:57:02,499456
2,4,3,0,3,4,2,4,2021-08-07 12:57:02,499456
-2,-6,-9,-12,-12,-6,-4,-2,2021-08-07 12:57:02,515457
-1,-2,-5,-9,-4,-1,0,-3,2021-08-07 12:57:02,531460
-3,-4,-1,-4,-13,-8,-6,-4,2021-08-07 12:57:02,547461
-3,-2,2,4,-1,-4,-4,-2,2021-08-07 12:57:02,563456
3,2,2,14,3,2,0,1,2021-08-07 12:57:02,579458
0,1,-2,1,26,13,5,2,2021-08-07 12:57:02,579458
-1,0,-2,4,6,4,3,1,2021-08-07 12:57:02,579458
-2,-5,-6,-8,-8,-6,-2,-2,2021-08-07 12:57:02,579458
-7,-8,-8,-21,-19,-11,-6,-5,2021-08-07 12:57:02,579458
0,-1,-1,-8,-12,-4,0,0,2021-08-07 12:57:02,579458
1,1,2,11,13,5,1,2,2021-08-07 12:57:02,579458
0,0,2,13,13,5,2,0,2021-08-07 12:57:02,580459
-2,-1,-2,2,-5,-5,-4,-3,2021-08-07 12:57:02,580459
0,3,0,-4,-4,-1,1,1,2021-08-07 12:57:02,580459
2,3,0,-1,0,2,2,1,2021-08-07 12:57:02,580459
-1,-1,1,-5,-8,-2,-2,-2,2021-08-07 12:57:02,580459
2,2,1,5,6,1,-1,2,2021-08-07 12:57:02,595458
-1,-2,-1,6,-6,-3,0,-1,2021-08-07 12:57:02,611458
-3,-7,-8,-24,-12,-5,-5,-6,2021-08-07 12:57:02,611458
0,2,0,-2,9,6,4,1,2021-08-07 12:57:02,611458
0,3,2,3,7,4,4,2,2021-08-07 12:57:02,627457
-2,-1,2,8,2,-4,-4,-3,2021-08-07 12:57:02,642456
2,3,3,11,4,1,1,0,2021-08-07 12:57:02,642456
2,1,2,1,-3,-1,0,1,2021-08-07 12:57:02,642456
-3,-4,-5,-13,-15,-12,-7,-3,2021-08-07 12:57:02,642456
-1,-2,-2,1,11,10,3,1,2021-08-07 12:57:02,642456
-1,-1,0,5,9,3,1,-2,2021-08-07 12:57:02,642456
0,0,-1,-7,-3,-2,0,0,2021-08-07 12:57:02,642456
2,2,5,14,4,1,2,2,2021-08-07 12:57:02,674458
-2,-2,-3,-7,-12,-7,-5,-3,2021-08-07 12:57:02,690456
-4,-4,-5,-10,-11,-6,-4,-3,2021-08-07 12:57:02,690456
-3,-5,-6,-2,-1,1,-2,-2,2021-08-07 12:57:02,690456
-3,-3,-4,-22,-8,-4,-2,-3,2021-08-07 12:57:02,690456
0,-2,2,3,-5,-4,-2,-1,2021-08-07 12:57:02,690456
3,5,5,20,17,8,6,3,2021-08-07 12:57:02,690456
-2,-1,-1,-4,-9,-9,-4,-1,2021-08-07 12:57:02,690456
1,-1,1,1,-2,2,0,0,2021-08-07 12:57:02,691457
-1,-1,-4,-8,-2,-2,-1,-1,2021-08-07 12:57:02,691457
0,-1,0,-1,2,1,-2,0,2021-08-07 12:57:02,691457
-4,-4,-2,2,2,-1,-1,-1,2021-08-07 12:57:02,691457
2,3,4,2,3,0,2,3,2021-08-07 12:57:02,721458
2,3,5,14,12,8,5,0,2021-08-07 12:57:02,737458
-3,-2,-3,-5,-7,-6,-4,-2,2021-08-07 12:57:02,737458
0,-1,1,-3,-5,-4,-4,0,2021-08-07 12:57:02,737458
-2,-3,-5,-10,-14,-6,-6,-4,2021-08-07 12:57:02,737458
0,0,-1,4,-1,1,0,0,2021-08-07 12:57:02,737458
-3,-2,-3,-6,-4,-3,-3,-1,2021-08-07 12:57:02,738459
3,3,4,16,13,8,2,1,2021-08-07 12:57:02,738459
2,3,2,15,9,4,4,2,2021-08-07 12:57:02,753458
-3,-6,-9,-39,-20,-9,-3,-1,2021-08-07 12:57:02,768458
-3,-6,-8,-3,-5,-3,-4,-4,2021-08-07 12:57:02,784458
-3,-1,1,-4,1,0,1,-2,2021-08-07 12:57:02,800458
-3,1,3,8,5,1,-1,-3,2021-08-07 12:57:02,816460
-2,-2,1,11,4,1,-2,-3,2021-08-07 12:57:02,816460
3,1,3,-2,-1,0,2,3,2021-08-07 12:57:02,816460
0,0,0,-7,-5,-4,-3,0,2021-08-07 12:57:02,816460
-1,-2,-1,-1,2,2,1,1,2021-08-07 12:57:02,816460
1,1,0,6,6,1,-1,1,2021-08-07 12:57:02,816460
0,-1,-1,1,-2,-2,-1,-1,2021-08-07 12:57:02,817460
-2,0,-3,0,-3,-2,-1,-1,2021-08-07 12:57:02,817460
0,0,-3,-11,1,2,2,0,2021-08-07 12:57:02,817460
-3,-2,-5,-6,-8,-6,-4,-2,2021-08-07 12:57:02,817460
1,1,2,3,1,1,1,1,2021-08-07 12:57:02,817460
-2,-1,-1,3,0,0,-1,0,2021-08-07 12:57:02,817460
-2,-3,-1,-6,-3,-3,-2,0,2021-08-07 12:57:02,848461
-2,-2,-2,-6,-10,-5,-5,-2,2021-08-07 12:57:02,864459
-1,1,1,12,8,3,2,0,2021-08-07 12:57:02,880458
1,1,0,-5,2,2,2,1,2021-08-07 12:57:02,880458
-1,1,2,9,12,6,1,-2,2021-08-07 12:57:02,880458
-1,-3,-4,-7,-1,-4,-2,-2,2021-08-07 12:57:02,880458
-1,-1,-4,-6,-14,-9,-5,-3,2021-08-07 12:57:02,880458
-1,-4,-5,-11,-5,3,2,-1,2021-08-07 12:57:02,880458
-1,0,4,10,6,-1,-3,-2,2021-08-07 12:57:02,880458
2,5,5,16,10,3,2,3,2021-08-07 12:57:02,880458
-1,-3,-5,-8,-6,-4,-3,-1,2021-08-07 12:57:02,881460
-3,-6,-8,-26,-20,-12,-6,-4,2021-08-07 12:57:02,881460
-2,-3,-2,-12,-9,-3,-2,-1,2021-08-07 12:57:02,895459
-1,-1,1,1,-2,-2,-1,-1,2021-08-07 12:57:02,895459
-1,2,7,15,16,6,3,0,2021-08-07 12:57:02,895459
2,2,2,16,14,5,3,2,2021-08-07 12:57:02,895459
2,3,4,3,5,8,3,1,2021-08-07 12:57:02,927457
-1,0,-3,0,8,2,-1,0,2021-08-07 12:57:02,927457
1,-1,-2,-2,-6,-3,-1,-1,2021-08-07 12:57:02,927457
-2,-2,-4,-8,-9,-6,-3,-2,2021-08-07 12:57:02,927457
1,-1,2,8,11,6,3,0,2021-08-07 12:57:02,942459
-3,-2,-2,-6,-9,-4,-2,-3,2021-08-07 12:57:02,942459
-2,-1,0,5,2,1,-1,-2,2021-08-07 12:57:02,942459
-1,-1,0,-1,-5,-5,-2,0,2021-08-07 12:57:02,942459
2,2,0,4,6,2,2,2,2021-08-07 12:57:02,958462
-1,1,-2,-6,-2,-2,-1,-1,2021-08-07 12:57:02,958462
-3,-4,-3,-10,-11,-6,-5,-4,2021-08-07 12:57:02,958462
-2,-2,-1,-4,-10,-4,-4,-3,2021-08-07 12:57:02,958462
-1,-1,-5,-4,5,1,1,1,2021-08-07 12:57:02,989458
-1,-2,-2,0,4,2,-1,-1,2021-08-07 12:57:03,005459
3,7,8,3,5,3,2,3,2021-08-07 12:57:03,005459
0,1,0,2,-5,-3,0,0,2021-08-07 12:57:03,005459
-3,-1,2,7,4,1,-2,0,2021-08-07 12:57:03,005459
-1,-4,-3,-7,-9,-5,-3,-4,2021-08-07 12:57:03,005459
1,1,-2,11,14,9,3,3,2021-08-07 12:57:03,005459
-4,-6,-7,-7,0,-2,-3,-6,2021-08-07 12:57:03,005459
-3,-3,-4,-14,-11,-6,-2,-1,2021-08-07 12:57:03,021458
0,2,2,-3,-10,-5,-2,1,2021-08-07 12:57:03,036460
-2,-1,-2,-6,-9,-4,-1,-2,2021-08-07 12:57:03,052457
-1,-1,-1,3,-11,-6,-3,-3,2021-08-07 12:57:03,052457
5,4,2,14,29,17,8,6,2021-08-07 12:57:03,052457
1,1,3,1,3,2,3,2,2021-08-07 12:57:03,052457
-3,-3,-3,-5,-5,-2,-1,-3,2021-08-07 12:57:03,052457
1,0,3,5,4,0,-1,2,2021-08-07 12:57:03,052457
-5,-3,-5,-16,-22,-12,-8,-3,2021-08-07 12:57:03,052457
-1,-2,0,5,2,0,-1,0,2021-08-07 12:57:03,053460
2,3,3,7,10,4,2,1,2021-08-07 12:57:03,068458
-3,-4,-5,0,-1,-1,-2,-2,2021-08-07 12:57:03,084458
-2,-4,-6,-9,-10,-5,-3,-4,2021-08-07 12:57:03,084458
-3,-6,-6,-11,-4,-2,-4,-6,2021-08-07 12:57:03,084458
0,2,3,0,3,1,1,1,2021-08-07 12:57:03,084458
1,4,1,9,10,6,4,1,2021-08-07 12:57:03,084458
1,2,3,7,-2,-2,-1,0,2021-08-07 12:57:03,100458
-3,-3,-3,0,-4,-4,-4,-3,2021-08-07 12:57:03,116460
-2,-4,-4,-12,-3,-2,0,-2,2021-08-07 12:57:03,116460
1,3,3,-1,-1,-2,-2,1,2021-08-07 12:57:03,116460
1,0,-1,2,5,2,1,0,2021-08-07 12:57:03,116460
1,2,4,4,2,3,3,2,2021-08-07 12:57:03,116460
-3,-5,-7,-4,5,3,-2,-2,2021-08-07 12:57:03,117459
0,2,1,-6,-1,0,1,2,2021-08-07 12:57:03,117459
0,3,3,7,4,0,0,1,2021-08-07 12:57:03,147461
-3,-2,0,1,-5,-6,-3,-3,2021-08-07 12:57:03,163456
0,2,0,-4,-11,-6,-3,-1,2021-08-07 12:57:03,163456
0,1,0,3,11,4,1,0,2021-08-07 12:57:03,163456
-1,-4,-2,-6,-10,-7,-3,-2,2021-08-07 12:57:03,163456
1,-1,-3,-11,-8,-4,-3,-2,2021-08-07 12:57:03,163456
0,-1,1,8,13,8,5,0,2021-08-07 12:57:03,163456
1,2,5,8,5,1,1,0,2021-08-07 12:57:03,164459
-1,-2,-4,4,-8,-6,-4,-3,2021-08-07 12:57:03,194456
-2,-2,-5,-8,-11,-4,-1,-1,2021-08-07 12:57:03,210458
2,1,-4,-24,1,2,0,2,2021-08-07 12:57:03,226456
-1,-1,1,5,4,3,0,-1,2021-08-07 12:57:03,241456
2,1,3,2,0,0,0,1,2021-08-07 12:57:03,257458
-3,-1,0,3,-9,-6,-6,-3,2021-08-07 12:57:03,257458
-1,-2,0,19,15,5,2,0,2021-08-07 12:57:03,257458
2,2,2,-4,2,2,3,3,2021-08-07 12:57:03,257458
-3,-3,-6,-11,-12,-7,-4,-4,2021-08-07 12:57:03,273458
-2,-2,-2,0,11,6,2,-1,2021-08-07 12:57:03,289465
0,-1,0,1,-6,-7,-3,-2,2021-08-07 12:57:03,305499
-1,-1,-1,0,-1,-2,-3,-2,2021-08-07 12:57:03,321497
0,-1,0,0,0,-2,0,-1,2021-08-07 12:57:03,321497
2,2,2,8,15,10,4,1,2021-08-07 12:57:03,321497
-4,-4,-4,-7,-12,-9,-5,-5,2021-08-07 12:57:03,321497
-1,1,-3,0,-1,0,-1,0,2021-08-07 12:57:03,321497
1,3,0,-4,0,0,0,1,2021-08-07 12:57:03,321497
0,3,3,2,6,2,2,1,2021-08-07 12:57:03,321497
-1,-1,-2,2,-9,-5,-3,-2,2021-08-07 12:57:03,321497
-4,-7,-10,-20,-8,-4,-5,-5,2021-08-07 12:57:03,322460
-3,-1,0,-4,-4,-2,-1,-4,2021-08-07 12:57:03,322460
3,4,2,10,17,8,5,4,2021-08-07 12:57:03,322460
-4,-8,-5,-8,-15,-9,-4,-4,2021-08-07 12:57:03,322460
-3,-2,-3,-5,-5,-3,-2,-1,2021-08-07 12:57:03,322460
-1,-1,-1,-10,-2,-1,-2,-2,2021-08-07 12:57:03,322460
-1,0,0,4,-1,0,0,0,2021-08-07 12:57:03,322460
-2,2,1,4,3,2,1,-2,2021-08-07 12:57:03,322460
1,4,7,13,9,5,3,1,2021-08-07 12:57:03,322460
-2,-2,-1,-1,-12,-8,-4,1,2021-08-07 12:57:03,322460
2,3,2,5,10,4,2,2,2021-08-07 12:57:03,323464
-4,-3,-6,-13,-15,-8,-6,-2,2021-08-07 12:57:03,323464
-1,-4,-7,0,-6,-3,-2,-2,2021-08-07 12:57:03,323464
0,-1,-5,-1,14,9,2,1,2021-08-07 12:57:03,337457
2,4,5,12,9,4,2,0,2021-08-07 12:57:03,337457
0,0,3,-9,-19,-10,-6,-1,2021-08-07 12:57:03,338463
2,3,5,15,20,13,7,1,2021-08-07 12:57:03,338463
