EMG 1,EMG 2,EMG 3,EMG 4,EMG 5,EMG 6,EMG 7,EMG 8,Timestamp,Milliseconds
-2,-1,-2,-2,-4,-4,-2,-2,2021-08-07 12:55:46,552291
2,1,0,2,6,4,2,2,2021-08-07 12:55:46,568291
-1,-4,-1,0,2,3,0,0,2021-08-07 12:55:46,568291
-2,1,0,0,1,0,1,0,2021-08-07 12:55:46,568291
-1,-1,-2,-2,-4,-2,-1,-1,2021-08-07 12:55:46,568291
1,0,3,1,-1,-1,-1,0,2021-08-07 12:55:46,568291
-2,2,-3,-7,-9,-5,0,1,2021-08-07 12:55:46,568291
-2,-3,-2,-2,-2,-2,-1,-1,2021-08-07 12:55:46,568291
0,-2,-2,-1,-3,0,-2,0,2021-08-07 12:55:46,569290
-2,-1,-3,-1,-1,-1,-2,-1,2021-08-07 12:55:46,569290
-1,-1,1,2,3,2,0,1,2021-08-07 12:55:46,569290
-2,-1,-2,-2,-3,-3,0,-2,2021-08-07 12:55:46,569290
0,2,1,0,1,0,1,0,2021-08-07 12:55:46,569290
-1,1,1,1,1,1,1,0,2021-08-07 12:55:46,569290
-2,-4,-1,0,1,-1,-1,-3,2021-08-07 12:55:46,598292
-2,-1,-1,-4,-6,-2,-3,-3,2021-08-07 12:55:46,614290
1,0,-2,-1,1,0,1,1,2021-08-07 12:55:46,614290
0,2,0,-5,-8,-7,-3,0,2021-08-07 12:55:46,614290
0,4,1,2,5,4,3,1,2021-08-07 12:55:46,614290
-1,-3,-3,4,7,2,-1,-1,2021-08-07 12:55:46,614290
-1,-2,-1,1,9,6,3,-1,2021-08-07 12:55:46,614290
1,0,1,0,0,0,2,0,2021-08-07 12:55:46,614290
-2,-4,-4,-6,-7,-8,-5,-4,2021-08-07 12:55:46,630289
-1,-4,-3,-9,-12,-6,-4,-2,2021-08-07 12:55:46,630289
0,1,1,3,7,5,3,2,2021-08-07 12:55:46,676290
-4,-5,-7,-9,-9,-7,-4,-4,2021-08-07 12:55:46,676290
2,1,2,4,7,5,2,1,2021-08-07 12:55:46,676290
1,1,1,2,2,2,1,0,2021-08-07 12:55:46,676290
0,0,-1,-1,-4,-3,-1,0,2021-08-07 12:55:46,676290
0,-3,-2,0,-2,-3,-2,-2,2021-08-07 12:55:46,676290
-5,-6,-6,-2,-2,-5,-3,-2,2021-08-07 12:55:46,677291
3,4,5,0,-1,1,1,3,2021-08-07 12:55:46,677291
-3,-3,-3,-3,2,1,-2,-3,2021-08-07 12:55:46,677291
2,5,6,6,8,7,3,3,2021-08-07 12:55:46,677291
-1,0,-2,-3,-5,-4,0,-2,2021-08-07 12:55:46,692291
-1,-1,-2,-1,-1,-1,-2,-2,2021-08-07 12:55:46,708290
-2,0,1,2,2,-1,-1,-3,2021-08-07 12:55:46,708290
-4,-6,-5,-6,-6,-5,-4,-2,2021-08-07 12:55:46,708290
2,4,3,11,16,9,3,2,2021-08-07 12:55:46,708290
1,2,0,-3,-3,-1,1,0,2021-08-07 12:55:46,708290
1,-2,-2,-3,-6,-5,-3,-3,2021-08-07 12:55:46,724290
-2,-1,-2,-3,-3,-2,-2,-1,2021-08-07 12:55:46,740291
-3,-2,-2,-3,-2,-1,-1,0,2021-08-07 12:55:46,772289
-2,-3,-3,-2,0,-1,-1,-3,2021-08-07 12:55:46,772289
0,0,0,0,-3,0,1,2,2021-08-07 12:55:46,788289
-1,0,1,0,1,-1,-1,-1,2021-08-07 12:55:46,804289
0,-1,-2,-9,-15,-10,-5,-2,2021-08-07 12:55:46,804289
2,2,1,5,11,6,3,3,2021-08-07 12:55:46,804289
0,1,0,2,5,2,2,2,2021-08-07 12:55:46,804289
1,1,1,7,9,7,3,2,2021-08-07 12:55:46,805292
-4,-4,-3,-9,-12,-9,-5,-4,2021-08-07 12:55:46,805292
-2,-2,-2,-2,-3,-3,-2,-2,2021-08-07 12:55:46,805292
2,0,1,-1,-4,-1,-2,2,2021-08-07 12:55:46,805292
-1,2,0,0,1,1,1,0,2021-08-07 12:55:46,805292
-1,-2,-2,-1,-1,-1,-1,-3,2021-08-07 12:55:46,805292
-2,-3,-4,-5,-4,-4,-3,0,2021-08-07 12:55:46,805292
-2,-2,-3,-2,-4,-3,-3,-2,2021-08-07 12:55:46,806293
2,-1,2,3,6,3,2,0,2021-08-07 12:55:46,806293
0,1,-2,-1,0,0,0,0,2021-08-07 12:55:46,820289
-1,-2,0,1,0,0,-1,-1,2021-08-07 12:55:46,836290
1,-1,-1,1,1,-1,0,-1,2021-08-07 12:55:46,851293
-2,-2,-2,-4,-5,-4,-3,-2,2021-08-07 12:55:46,851293
2,2,-1,0,3,2,1,1,2021-08-07 12:55:46,867291
2,3,2,1,3,2,4,3,2021-08-07 12:55:46,883292
-1,-2,-2,-3,-1,1,1,-1,2021-08-07 12:55:46,899291
-4,-3,-3,0,-5,-4,-3,-4,2021-08-07 12:55:46,899291
-3,-2,1,0,-2,-2,-2,-2,2021-08-07 12:55:46,899291
-2,1,1,5,7,4,1,-2,2021-08-07 12:55:46,899291
-1,-2,1,1,-2,-2,-1,-1,2021-08-07 12:55:46,899291
1,0,0,0,0,1,0,2,2021-08-07 12:55:46,899291
1,1,1,1,5,2,1,2,2021-08-07 12:55:46,900291
-2,-2,-2,-6,-7,-6,-3,0,2021-08-07 12:55:46,900291
-1,0,1,0,3,1,1,1,2021-08-07 12:55:46,900291
-1,-1,-2,-3,-4,-3,-2,0,2021-08-07 12:55:46,900291
0,0,-1,-2,-4,-1,-2,-1,2021-08-07 12:55:46,900291
-1,-2,-1,2,-1,-1,0,-2,2021-08-07 12:55:46,900291
0,-1,-2,1,0,0,0,-2,2021-08-07 12:55:46,900291
-1,0,-2,-2,-1,-2,-1,-1,2021-08-07 12:55:46,900291
0,1,-1,-1,0,0,0,0,2021-08-07 12:55:46,931291
-1,-2,-1,-1,-1,0,0,0,2021-08-07 12:55:46,931291
-1,0,-1,0,-2,-1,-2,-1,2021-08-07 12:55:46,931291
0,-1,0,0,-3,0,-2,-1,2021-08-07 12:55:46,931291
0,-1,-1,0,0,1,0,-1,2021-08-07 12:55:46,931291
-1,0,-1,0,-1,-1,-1,1,2021-08-07 12:55:46,931291
-1,-1,-1,-2,-2,-1,-1,0,2021-08-07 12:55:46,947289
-2,0,-1,-1,0,0,0,-1,2021-08-07 12:55:46,947289
-1,-1,-1,0,-1,-3,-1,0,2021-08-07 12:55:46,962292
-1,-1,-3,-2,-6,-4,-2,-1,2021-08-07 12:55:46,962292
0,0,1,2,9,6,3,1,2021-08-07 12:55:46,962292
-1,0,-2,-4,-7,-2,-3,-1,2021-08-07 12:55:46,962292
-1,1,1,3,7,4,1,0,2021-08-07 12:55:46,994289
-1,-1,0,-1,-3,0,-2,-1,2021-08-07 12:55:47,010320
-1,1,0,0,-3,-2,-3,-1,2021-08-07 12:55:47,010320
-1,1,1,-1,3,3,1,-1,2021-08-07 12:55:47,010320
-1,-2,-1,-2,-4,-3,-1,0,2021-08-07 12:55:47,010320
-1,-1,-2,-3,-4,-2,-2,-3,2021-08-07 12:55:47,010320
-1,0,-3,-2,-3,-1,-2,-1,2021-08-07 12:55:47,010320
0,-1,-2,-6,-7,-3,-1,0,2021-08-07 12:55:47,010320
0,2,1,0,-1,-2,-1,0,2021-08-07 12:55:47,026320
-1,-3,-3,-3,0,1,0,-1,2021-08-07 12:55:47,042318
-2,-2,1,1,-1,-2,-1,-1,2021-08-07 12:55:47,058319
-3,-1,-1,-1,0,-2,-3,-2,2021-08-07 12:55:47,058319
0,1,0,0,0,-1,-1,0,2021-08-07 12:55:47,058319
-2,-2,-1,-1,-3,-4,-4,-1,2021-08-07 12:55:47,058319
0,3,1,-1,0,2,3,1,2021-08-07 12:55:47,058319
0,-4,-3,1,-1,-1,0,-2,2021-08-07 12:55:47,059320
-1,-1,-2,-3,-4,-1,-1,-2,2021-08-07 12:55:47,059320
1,3,3,5,10,6,3,1,2021-08-07 12:55:47,059320
-2,-3,-2,-3,-7,-5,-4,-2,2021-08-07 12:55:47,059320
0,-1,0,3,6,0,1,1,2021-08-07 12:55:47,059320
-1,-1,-1,-2,-3,0,1,1,2021-08-07 12:55:47,090319
-1,-5,-5,-3,-6,-6,-5,-2,2021-08-07 12:55:47,106322
3,3,4,4,6,4,2,2,2021-08-07 12:55:47,112320
2,3,1,0,0,2,1,0,2021-08-07 12:55:47,112320
1,-1,-1,0,-1,-1,-2,0,2021-08-07 12:55:47,113320
-2,-3,-1,0,-1,-4,-1,-1,2021-08-07 12:55:47,113320
-3,-4,-5,-7,-6,-2,-1,-2,2021-08-07 12:55:47,113320
0,-1,2,-2,-3,-1,-1,-1,2021-08-07 12:55:47,113320
0,0,0,5,7,3,0,2,2021-08-07 12:55:47,113320
0,0,0,1,-2,-1,-2,0,2021-08-07 12:55:47,113320
-2,-5,-5,-3,-1,-3,-2,-4,2021-08-07 12:55:47,122319
-3,-3,-4,-4,-7,-6,-2,-1,2021-08-07 12:55:47,138322
-2,1,1,5,7,5,1,0,2021-08-07 12:55:47,138322
0,2,1,1,1,1,-1,-2,2021-08-07 12:55:47,138322
0,0,1,2,4,-1,-1,0,2021-08-07 12:55:47,138322
1,-2,-2,-3,-6,-1,1,-2,2021-08-07 12:55:47,138322
-3,-2,-1,-2,-2,-3,-1,-3,2021-08-07 12:55:47,169321
0,-1,1,-1,3,4,2,1,2021-08-07 12:55:47,169321
0,0,-1,-2,-3,0,-2,0,2021-08-07 12:55:47,169321
0,-1,0,1,0,-1,-1,0,2021-08-07 12:55:47,169321
2,-1,1,-2,-4,-1,-1,0,2021-08-07 12:55:47,185320
-1,-1,-1,-4,-6,-4,-2,-1,2021-08-07 12:55:47,185320
-2,-2,-3,-3,-5,-2,-1,-2,2021-08-07 12:55:47,185320
0,2,3,6,6,3,1,1,2021-08-07 12:55:47,185320
-2,-1,-3,-6,-6,-6,-3,-1,2021-08-07 12:55:47,201320
-3,-1,-3,-4,-5,-4,-3,-1,2021-08-07 12:55:47,201320
0,0,1,0,0,0,-1,-2,2021-08-07 12:55:47,201320
-2,-1,-2,-2,-3,-3,-3,-2,2021-08-07 12:55:47,201320
2,1,2,2,2,3,1,-1,2021-08-07 12:55:47,232831
-1,-1,-2,0,0,1,-1,-1,2021-08-07 12:55:47,248832
-1,-2,-2,-5,-8,-7,-4,-1,2021-08-07 12:55:47,263833
0,0,-1,2,5,3,1,1,2021-08-07 12:55:47,263833
1,0,2,8,8,4,2,1,2021-08-07 12:55:47,263833
-1,0,0,0,2,0,0,1,2021-08-07 12:55:47,263833
-3,-3,-2,0,-3,-3,-3,-3,2021-08-07 12:55:47,263833
-1,-2,-2,-3,-7,-4,-3,-3,2021-08-07 12:55:47,264833
0,-1,-2,2,4,2,1,0,2021-08-07 12:55:47,264833
1,0,0,1,3,1,2,0,2021-08-07 12:55:47,264833
-2,0,0,-1,-1,0,0,-1,2021-08-07 12:55:47,264833
-2,-3,-4,-6,-9,-7,-4,-2,2021-08-07 12:55:47,264833
0,-1,3,2,0,-1,1,0,2021-08-07 12:55:47,279833
0,2,2,3,2,0,2,-1,2021-08-07 12:55:47,279833
0,3,2,5,11,5,2,3,2021-08-07 12:55:47,295831
-3,-4,-2,-1,0,-2,-1,-2,2021-08-07 12:55:47,295831
0,0,-2,-5,-8,-4,-3,-2,2021-08-07 12:55:47,295831
0,0,-2,-5,-5,-4,-2,0,2021-08-07 12:55:47,295831
-2,-4,-4,-5,-9,-6,-4,-2,2021-08-07 12:55:47,311833
1,0,1,8,12,8,3,2,2021-08-07 12:55:47,311833
-1,1,-1,-1,2,0,0,0,2021-08-07 12:55:47,327834
-2,0,-1,-2,0,-2,1,1,2021-08-07 12:55:47,343833
1,0,0,1,2,0,-1,0,2021-08-07 12:55:47,343833
-1,-2,-4,-2,-4,-4,-3,-2,2021-08-07 12:55:47,343833
-1,-4,-3,-8,-9,-5,-4,-3,2021-08-07 12:55:47,343833
-1,0,-1,0,2,0,0,0,2021-08-07 12:55:47,343833
-1,-2,-1,-1,-2,-2,0,-1,2021-08-07 12:55:47,343833
3,3,2,1,2,2,4,2,2021-08-07 12:55:47,344833
-2,-2,-3,-3,-9,-6,-3,-2,2021-08-07 12:55:47,359833
-1,0,0,2,5,3,1,0,2021-08-07 12:55:47,375833
-2,-3,-4,-6,-4,-4,-2,-1,2021-08-07 12:55:47,375833
-1,1,1,2,8,3,1,0,2021-08-07 12:55:47,375833
0,1,0,2,3,2,1,1,2021-08-07 12:55:47,375833
0,-2,-1,2,-2,-2,-1,-1,2021-08-07 12:55:47,375833
-2,-3,-2,-3,-6,-6,-2,-3,2021-08-07 12:55:47,375833
0,-1,-2,0,2,1,-1,0,2021-08-07 12:55:47,376833
0,1,-1,-2,-1,0,1,1,2021-08-07 12:55:47,406831
0,-1,2,2,1,1,-1,-1,2021-08-07 12:55:47,406831
-1,-1,-1,-1,1,0,-1,0,2021-08-07 12:55:47,406831
-4,-2,-1,-2,-10,-7,-5,-2,2021-08-07 12:55:47,406831
1,-1,0,-3,0,2,0,0,2021-08-07 12:55:47,422833
-1,1,1,0,-1,0,0,-2,2021-08-07 12:55:47,422833
0,0,-1,1,1,1,0,-1,2021-08-07 12:55:47,422833
-1,-2,-2,-1,-2,-1,1,-1,2021-08-07 12:55:47,422833
-1,-2,-3,1,4,3,0,1,2021-08-07 12:55:47,453833
0,-2,-2,-2,-5,-3,-3,-2,2021-08-07 12:55:47,469832
-1,-1,-1,-4,-5,-3,-3,-3,2021-08-07 12:55:47,484832
0,3,4,4,8,6,1,0,2021-08-07 12:55:47,484832
1,1,3,4,3,3,1,-2,2021-08-07 12:55:47,484832
-3,-1,-4,-3,-2,-2,0,-2,2021-08-07 12:55:47,484832
-1,1,-1,1,-1,-1,-1,0,2021-08-07 12:55:47,484832
-1,-2,-2,-2,-4,-2,-2,-1,2021-08-07 12:55:47,484832
-2,-2,-3,-6,-7,-6,-2,0,2021-08-07 12:55:47,484832
-2,-1,-1,-2,0,-1,-1,-2,2021-08-07 12:55:47,484832
2,0,-1,-1,1,1,1,0,2021-08-07 12:55:47,485834
0,0,1,0,-2,1,0,1,2021-08-07 12:55:47,485834
-2,-2,-3,1,0,-1,-3,-1,2021-08-07 12:55:47,500833
0,0,0,-1,-2,-1,-1,0,2021-08-07 12:55:47,516833
-3,-2,-3,-1,1,0,1,0,2021-08-07 12:55:47,516833
2,1,-1,-2,-1,-1,1,0,2021-08-07 12:55:47,516833
0,-1,0,1,-2,-2,-2,0,2021-08-07 12:55:47,516833
1,-2,-1,0,-2,-4,-2,-1,2021-08-07 12:55:47,516833
3,2,3,4,6,5,4,1,2021-08-07 12:55:47,531834
-2,0,-3,0,1,1,0,-1,2021-08-07 12:55:47,531834
-2,-2,-3,-4,-3,-1,0,1,2021-08-07 12:55:47,531834
-2,-1,-1,-1,-2,-3,-3,0,2021-08-07 12:55:47,536833
-2,-3,-3,-5,-8,-4,-5,-2,2021-08-07 12:55:47,547833
2,1,0,3,2,1,1,0,2021-08-07 12:55:47,547833
1,3,4,8,7,2,1,-1,2021-08-07 12:55:47,563832
-3,-5,-8,-8,-5,0,-1,-3,2021-08-07 12:55:47,578833
-4,-5,-7,-15,-19,-10,-7,-1,2021-08-07 12:55:47,593831
0,0,0,2,5,3,1,1,2021-08-07 12:55:47,593831
-2,-3,-2,-1,-1,-1,0,-1,2021-08-07 12:55:47,593831
3,5,5,8,7,6,3,2,2021-08-07 12:55:47,593831
-1,0,-1,1,-1,-2,-2,-4,2021-08-07 12:55:47,593831
-1,-3,-2,-2,-2,-3,-1,-3,2021-08-07 12:55:47,594833
0,2,1,-1,1,0,-1,1,2021-08-07 12:55:47,594833
-1,-2,0,2,0,-2,-1,1,2021-08-07 12:55:47,594833
-1,0,1,3,5,2,-1,1,2021-08-07 12:55:47,625831
-4,-3,-3,-4,-8,-6,-5,-4,2021-08-07 12:55:47,641833
-1,-2,-2,-6,-6,-2,-1,-2,2021-08-07 12:55:47,657834
1,2,1,-2,-3,-3,-3,0,2021-08-07 12:55:47,657834
-2,-1,0,-3,-4,-3,-1,0,2021-08-07 12:55:47,657834
3,0,2,6,9,5,2,1,2021-08-07 12:55:47,657834
0,-2,-3,-2,-3,-3,-1,-1,2021-08-07 12:55:47,657834
0,-4,-3,-1,2,1,1,2,2021-08-07 12:55:47,658837
0,1,0,0,-2,0,1,2,2021-08-07 12:55:47,673831
-3,-3,-1,-1,-2,-1,-1,-3,2021-08-07 12:55:47,689833
-2,-1,1,4,5,3,-1,-5,2021-08-07 12:55:47,705835
-1,0,1,-3,-4,-4,-3,-3,2021-08-07 12:55:47,721833
2,3,0,3,5,1,2,0,2021-08-07 12:55:47,721833
-1,-2,-3,-7,-9,-7,-4,0,2021-08-07 12:55:47,721833
1,1,1,-3,-4,0,-1,1,2021-08-07 12:55:47,721833
0,0,-2,-3,-2,-1,0,0,2021-08-07 12:55:47,721833
-1,-1,0,2,3,1,-1,-2,2021-08-07 12:55:47,737834
2,3,0,-1,1,2,0,2,2021-08-07 12:55:47,753834
-1,-2,-2,-3,-6,-5,-1,-1,2021-08-07 12:55:47,769833
-3,-1,-1,0,3,4,1,-1,2021-08-07 12:55:47,785834
2,3,3,4,6,3,2,2,2021-08-07 12:55:47,817833
-3,-1,-2,-3,-4,-3,-3,-3,2021-08-07 12:55:47,833834
-2,-1,-2,-5,0,-3,-1,-1,2021-08-07 12:55:47,849833
-1,1,-1,-3,-5,-5,-3,-1,2021-08-07 12:55:47,849833
-2,-2,-4,-4,-7,-4,-1,-2,2021-08-07 12:55:47,849833
1,3,1,6,6,4,1,2,2021-08-07 12:55:47,849833
0,-2,-2,-2,0,3,-1,0,2021-08-07 12:55:47,849833
-1,0,0,2,4,2,1,0,2021-08-07 12:55:47,849833
0,2,0,-1,3,1,0,0,2021-08-07 12:55:47,850835
-3,-1,0,-2,-6,-5,-4,0,2021-08-07 12:55:47,850835
-4,-5,-5,-5,-10,-8,-4,-3,2021-08-07 12:55:47,850835
1,0,0,-2,-3,0,0,0,2021-08-07 12:55:47,850835
-2,-2,-1,2,2,2,-1,-1,2021-08-07 12:55:47,850835
2,2,2,1,6,3,2,3,2021-08-07 12:55:47,850835
0,-2,-1,2,1,-1,-2,1,2021-08-07 12:55:47,850835
0,-1,-1,1,-1,-2,-2,-1,2021-08-07 12:55:47,850835
-1,0,-2,-3,-6,-3,-3,-1,2021-08-07 12:55:47,850835
-1,-3,-1,-3,-4,-2,-2,-2,2021-08-07 12:55:47,851834
1,2,3,0,1,-1,3,1,2021-08-07 12:55:47,851834
-1,-1,-3,-3,-5,-4,-3,-3,2021-08-07 12:55:47,851834
0,1,3,5,12,7,2,1,2021-08-07 12:55:47,851834
0,0,-1,1,1,2,1,0,2021-08-07 12:55:47,851834
-1,1,0,-1,0,0,1,0,2021-08-07 12:55:47,851834
-2,-2,-3,-3,-4,-3,-1,0,2021-08-07 12:55:47,852834
-1,-2,1,5,4,-2,0,0,2021-08-07 12:55:47,852834
-1,-3,-2,-3,-5,-5,-1,-3,2021-08-07 12:55:47,852834
0,-2,0,-1,1,-2,1,0,2021-08-07 12:55:47,852834
1,3,1,-1,-1,1,1,1,2021-08-07 12:55:47,852834
-1,0,-2,-4,-3,-3,-1,-1,2021-08-07 12:55:47,852834
0,-1,0,0,0,1,1,1,2021-08-07 12:55:47,852834
0,-1,-1,1,-1,2,-2,0,2021-08-07 12:55:47,880831
-2,-3,-3,-6,-11,-7,-4,-2,2021-08-07 12:55:47,896833
-1,-3,-1,-1,1,3,0,-3,2021-08-07 12:55:47,896833
3,4,6,11,19,13,6,3,2021-08-07 12:55:47,896833
-1,-1,-1,1,3,1,-2,-1,2021-08-07 12:55:47,896833
-2,0,-1,0,0,0,0,-2,2021-08-07 12:55:47,896833
-1,-1,-2,-8,-14,-9,-3,-2,2021-08-07 12:55:47,896833
-3,-2,-5,-9,-15,-10,-6,-4,2021-08-07 12:55:47,897833
0,0,0,3,8,5,3,0,2021-08-07 12:55:47,912833
0,1,2,4,6,3,2,1,2021-08-07 12:55:47,928833
-1,-1,-1,1,2,0,0,-2,2021-08-07 12:55:47,944832
-2,-2,-1,-3,-4,-3,-1,-1,2021-08-07 12:55:47,944832
-1,1,1,2,1,0,0,-1,2021-08-07 12:55:47,944832
-2,-5,-8,-8,-10,-6,-4,-3,2021-08-07 12:55:47,944832
2,5,3,5,10,7,3,2,2021-08-07 12:55:47,944832
0,-1,-1,1,2,0,-2,-1,2021-08-07 12:55:47,944832
-1,-2,-3,-7,-7,-2,-2,-2,2021-08-07 12:55:47,945832
-1,-2,0,4,7,5,3,0,2021-08-07 12:55:47,945832
-2,-2,-4,-1,-1,-1,-1,-1,2021-08-07 12:55:47,945832
0,0,-1,-2,-6,-3,-1,-3,2021-08-07 12:55:47,945832
0,0,0,-2,-3,-3,-2,-1,2021-08-07 12:55:47,973833
0,-2,1,1,0,-2,-1,-2,2021-08-07 12:55:47,973833
-2,-4,-5,-8,-10,-6,-5,-2,2021-08-07 12:55:47,974833
3,2,2,3,4,1,3,2,2021-08-07 12:55:47,974833
2,3,4,2,0,1,1,2,2021-08-07 12:55:48,007834
1,3,4,8,16,10,4,1,2021-08-07 12:55:48,007834
-1,-3,-2,-1,-4,-4,-2,-2,2021-08-07 12:55:48,008372
-2,-5,-5,-7,-8,-5,-4,-4,2021-08-07 12:55:48,008372
0,1,-1,-1,-3,-1,-1,-1,2021-08-07 12:55:48,008372
-1,-2,-1,-3,-5,-3,-2,-1,2021-08-07 12:55:48,008372
-2,0,2,1,2,1,1,0,2021-08-07 12:55:48,023870
-2,-4,-2,2,1,-1,-2,-2,2021-08-07 12:55:48,023870
-2,0,-1,-2,-2,-2,-1,-1,2021-08-07 12:55:48,023870
-2,-2,-2,-7,-5,-4,-2,-2,2021-08-07 12:55:48,023870
-2,-2,-2,-2,-2,0,0,-1,2021-08-07 12:55:48,023870
-1,-1,0,0,0,1,-1,-1,2021-08-07 12:55:48,023870
0,2,1,1,-2,0,0,0,2021-08-07 12:55:48,055868
0,1,2,1,5,2,1,0,2021-08-07 12:55:48,055868
2,0,-1,-1,-3,-2,0,1,2021-08-07 12:55:48,055868
-4,-4,-4,-6,-7,-6,-2,-4,2021-08-07 12:55:48,055868
0,-1,-2,5,9,3,1,1,2021-08-07 12:55:48,055868
-1,-1,-1,-8,-9,-5,-3,-2,2021-08-07 12:55:48,056870
1,0,2,5,5,3,1,-1,2021-08-07 12:55:48,071867
1,0,2,1,2,-1,0,0,2021-08-07 12:55:48,071867
-4,-5,-3,-3,-3,-2,-2,-1,2021-08-07 12:55:48,087871
0,0,-2,-2,-3,-1,-2,-1,2021-08-07 12:55:48,087871
0,-1,0,-2,-2,-1,-2,0,2021-08-07 12:55:48,103871
1,1,3,-3,-3,-1,0,1,2021-08-07 12:55:48,103871
-1,-3,-1,-3,-1,-2,-2,-2,2021-08-07 12:55:48,103871
0,-1,0,0,-3,-2,1,3,2021-08-07 12:55:48,103871
0,-1,0,3,7,1,0,-1,2021-08-07 12:55:48,103871
-1,1,-3,-3,-9,-5,-2,-1,2021-08-07 12:55:48,103871
3,2,3,5,16,11,4,1,2021-08-07 12:55:48,134868
-3,-2,0,1,0,-1,-2,-3,2021-08-07 12:55:48,150868
0,-1,-2,-3,-1,-1,-1,0,2021-08-07 12:55:48,182870
-4,-2,-2,-6,-5,-3,-2,-1,2021-08-07 12:55:48,198869
1,-1,-3,-6,-10,-5,-3,-1,2021-08-07 12:55:48,214868
0,0,0,2,2,2,0,0,2021-08-07 12:55:48,214868
0,-2,-3,0,-1,0,1,-1,2021-08-07 12:55:48,214868
-1,-1,0,1,0,-1,0,0,2021-08-07 12:55:48,214868
0,-1,-1,-1,-4,-2,-1,-1,2021-08-07 12:55:48,214868
-1,-1,-1,3,4,2,-1,0,2021-08-07 12:55:48,214868
-1,-1,0,-3,-2,-2,-2,-1,2021-08-07 12:55:48,215870
-1,-2,-3,-2,-3,-1,-2,-1,2021-08-07 12:55:48,215870
-1,2,1,1,-2,0,0,-1,2021-08-07 12:55:48,215870
-1,0,-1,1,1,2,0,0,2021-08-07 12:55:48,215870
-1,-1,-1,0,-1,-2,-1,-1,2021-08-07 12:55:48,215870
-2,-1,-1,1,0,-1,-1,0,2021-08-07 12:55:48,215870
1,0,-3,-2,-5,-4,-2,1,2021-08-07 12:55:48,216870
-2,-2,-2,-4,-1,-1,0,-2,2021-08-07 12:55:48,216870
-2,-3,-3,-7,-8,-5,-3,-2,2021-08-07 12:55:48,216870
5,6,7,14,17,12,7,4,2021-08-07 12:55:48,216870
0,-2,-1,1,-1,0,-1,0,2021-08-07 12:55:48,229869
-1,-1,-3,-3,-5,-4,-2,-2,2021-08-07 12:55:48,230114
-2,-2,0,-1,-3,-4,-3,-3,2021-08-07 12:55:48,230114
-3,-3,-3,-3,-1,-1,-1,-1,2021-08-07 12:55:48,230114
-1,-1,-1,-2,0,-2,-1,-1,2021-08-07 12:55:48,261383
-1,-3,-3,-7,-9,-4,-3,0,2021-08-07 12:55:48,261383
3,3,4,5,14,9,4,2,2021-08-07 12:55:48,261383
0,1,0,-2,0,-1,0,0,2021-08-07 12:55:48,261383
1,1,1,3,1,1,0,-1,2021-08-07 12:55:48,261383
-2,-1,-1,-3,-2,-5,-2,-2,2021-08-07 12:55:48,261383
0,-1,0,1,-1,1,0,0,2021-08-07 12:55:48,277381
0,0,0,1,6,5,-1,0,2021-08-07 12:55:48,277381
-3,-4,-3,-7,-10,-7,-4,-3,2021-08-07 12:55:48,293382
-2,-2,-2,-1,-4,-3,-4,-2,2021-08-07 12:55:48,309382
2,6,5,13,8,4,1,1,2021-08-07 12:55:48,325383
2,3,2,6,5,3,2,-1,2021-08-07 12:55:48,325383
-7,-10,-9,-19,-14,-8,-5,-3,2021-08-07 12:55:48,325383
-1,-3,-3,-11,-11,-5,-2,-3,2021-08-07 12:55:48,325383
1,2,4,1,1,1,0,0,2021-08-07 12:55:48,325383
1,-1,0,3,5,3,1,1,2021-08-07 12:55:48,326382
1,1,0,2,-4,-3,1,1,2021-08-07 12:55:48,326382
0,-1,0,1,-1,-2,0,-2,2021-08-07 12:55:48,326382
-3,-4,-7,-8,-7,-4,-2,-2,2021-08-07 12:55:48,326382
1,0,-1,1,0,-1,0,0,2021-08-07 12:55:48,326382
0,1,3,5,9,4,1,1,2021-08-07 12:55:48,356383
-1,0,-1,1,2,0,1,-1,2021-08-07 12:55:48,372383
-1,1,-1,-1,-1,-2,0,1,2021-08-07 12:55:48,372383
-2,-3,-3,-11,-9,-5,-3,-2,2021-08-07 12:55:48,372383
0,-1,1,3,3,1,-1,0,2021-08-07 12:55:48,372383
0,1,1,3,1,-2,0,1,2021-08-07 12:55:48,372383
-2,-3,-3,-4,-7,-4,-3,-2,2021-08-07 12:55:48,372383
-1,-2,-3,-4,-2,-1,-1,1,2021-08-07 12:55:48,372383
-1,-1,-1,-5,-8,-6,-4,-3,2021-08-07 12:55:48,404381
4,5,8,14,23,15,7,4,2021-08-07 12:55:48,418381
-1,-3,-2,-3,-2,0,-1,-2,2021-08-07 12:55:48,418381
0,2,0,-3,-5,-4,1,1,2021-08-07 12:55:48,419384
-3,-1,-2,-1,-3,-3,-3,-3,2021-08-07 12:55:48,419384
-2,-3,-3,-5,-7,-5,-2,-2,2021-08-07 12:55:48,419384
-2,-1,0,-3,0,0,0,-1,2021-08-07 12:55:48,419384
-1,-3,-1,-2,-2,-3,-1,-2,2021-08-07 12:55:48,419384
0,1,0,1,3,0,2,0,2021-08-07 12:55:48,435382
-1,-1,-4,-4,-6,-2,-2,0,2021-08-07 12:55:48,435382
1,-2,-5,-5,-7,-3,-2,3,2021-08-07 12:55:48,435382
0,-1,-1,3,4,4,4,2,2021-08-07 12:55:48,435382
1,1,0,1,2,4,3,1,2021-08-07 12:55:48,450381
-4,-4,0,-5,0,-2,-3,-3,2021-08-07 12:55:48,466382
0,2,3,7,12,8,3,-1,2021-08-07 12:55:48,482381
0,1,-1,1,0,1,3,1,2021-08-07 12:55:48,482381
-2,-1,-3,0,-1,0,-2,-2,2021-08-07 12:55:48,482381
-1,2,2,0,-5,-6,-10,-5,2021-08-07 12:55:48,483382
-4,-2,-3,-7,-10,-9,-8,-5,2021-08-07 12:55:48,483382
-2,-3,-2,-4,-5,-3,-3,-3,2021-08-07 12:55:48,483382
1,1,2,1,3,5,4,1,2021-08-07 12:55:48,483382
2,1,-3,-3,-1,1,3,2,2021-08-07 12:55:48,483382
2,2,2,2,4,2,3,2,2021-08-07 12:55:48,514381
-1,-2,-3,-1,-1,-2,-2,-1,2021-08-07 12:55:48,514381
0,-1,-2,-2,-2,-4,-1,-1,2021-08-07 12:55:48,514381
-3,-3,-1,-5,-11,-7,-3,-3,2021-08-07 12:55:48,514381
-1,-1,-1,-2,-1,3,1,1,2021-08-07 12:55:48,514381
1,3,3,13,16,8,3,2,2021-08-07 12:55:48,514381
0,1,1,6,7,3,1,1,2021-08-07 12:55:48,530381
-1,-2,-3,-4,-1,-1,-2,-1,2021-08-07 12:55:48,546381
-1,0,-3,-4,-11,-7,-4,-1,2021-08-07 12:55:48,561381
-3,-3,-2,-4,-9,-4,-4,-1,2021-08-07 12:55:48,561381
0,-2,0,0,1,0,0,-1,2021-08-07 12:55:48,561381
0,-1,-1,0,-1,-1,-1,1,2021-08-07 12:55:48,561381
-2,-2,-3,-1,-2,-1,1,1,2021-08-07 12:55:48,561381
0,-1,-1,-2,-4,-1,-2,0,2021-08-07 12:55:48,561381
-1,-1,-2,-3,1,-1,-1,-3,2021-08-07 12:55:48,577382
0,-1,-2,1,0,1,3,1,2021-08-07 12:55:48,593383
-1,-2,0,0,6,0,1,-2,2021-08-07 12:55:48,593383
1,1,1,-1,0,-3,-2,0,2021-08-07 12:55:48,593383
0,-1,-1,-3,-8,-4,-4,-1,2021-08-07 12:55:48,593383
1,0,0,8,10,6,1,2,2021-08-07 12:55:48,593383
2,1,2,-2,-3,-3,0,0,2021-08-07 12:55:48,609384
-1,-1,-2,-2,0,0,-1,-2,2021-08-07 12:55:48,609384
1,1,2,2,8,3,1,1,2021-08-07 12:55:48,609893
-1,0,-1,-3,-3,-1,-1,0,2021-08-07 12:55:48,625415
-3,-3,-4,2,3,3,-1,-1,2021-08-07 12:55:48,657414
1,2,2,-3,-4,-1,0,1,2021-08-07 12:55:48,657414
-4,-2,-3,-5,-12,-8,-5,-3,2021-08-07 12:55:48,657414
1,2,2,3,8,6,3,1,2021-08-07 12:55:48,657414
0,-3,0,1,0,-2,0,0,2021-08-07 12:55:48,673414
0,-2,-1,-1,1,2,0,0,2021-08-07 12:55:48,673414
0,0,0,-1,-2,-3,-1,-1,2021-08-07 12:55:48,673414
1,-1,-1,-1,-3,-4,-1,-2,2021-08-07 12:55:48,673414
0,-1,-4,-3,-6,-3,-3,-2,2021-08-07 12:55:48,673414
0,-1,-1,-1,0,-1,-1,-1,2021-08-07 12:55:48,674415
1,1,1,3,2,1,1,1,2021-08-07 12:55:48,674415
-2,1,-2,-2,-2,-2,-1,-2,2021-08-07 12:55:48,674415
-1,2,1,-3,0,-1,-1,-1,2021-08-07 12:55:48,674415
-2,-3,-3,-4,-6,-4,-2,-1,2021-08-07 12:55:48,674415
-1,1,1,2,4,2,1,1,2021-08-07 12:55:48,689414
-2,-2,1,-5,-4,-1,-1,-2,2021-08-07 12:55:48,705413
2,4,3,6,6,3,3,2,2021-08-07 12:55:48,737414
-3,-2,-4,-5,-9,-6,-2,-3,2021-08-07 12:55:48,737414
-3,-3,-4,-2,2,0,-1,-2,2021-08-07 12:55:48,753415
0,-1,1,4,10,5,2,0,2021-08-07 12:55:48,753415
0,-1,0,-1,0,-1,-2,0,2021-08-07 12:55:48,753415
-3,-2,-1,-4,-5,-4,-2,-2,2021-08-07 12:55:48,769414
-3,-6,-5,-8,-6,-4,-4,-3,2021-08-07 12:55:48,785414
0,-1,-2,4,5,2,1,1,2021-08-07 12:55:48,785414
-2,0,0,-1,-1,1,0,-1,2021-08-07 12:55:48,785414
-1,1,1,-2,-2,-2,-1,-1,2021-08-07 12:55:48,785414
-1,-1,0,1,3,1,0,0,2021-08-07 12:55:48,785414
0,-1,-1,-5,-6,-4,-2,1,2021-08-07 12:55:48,786417
1,0,0,1,3,4,0,1,2021-08-07 12:55:48,786417
-3,-2,-3,-3,-5,-3,-3,-2,2021-08-07 12:55:48,786417
0,-1,1,2,0,0,0,0,2021-08-07 12:55:48,786417
-1,-1,-2,-3,-7,-5,-4,-2,2021-08-07 12:55:48,786417
-1,-1,-2,-2,-3,-1,0,-1,2021-08-07 12:55:48,786417
3,1,5,10,15,9,4,3,2021-08-07 12:55:48,801415
0,-2,-2,-1,-4,-2,-1,-3,2021-08-07 12:55:48,801415
2,1,0,0,-3,0,1,1,2021-08-07 12:55:48,801415
1,0,0,-1,-1,-1,0,1,2021-08-07 12:55:48,801415
1,-1,-2,-2,-2,1,-1,0,2021-08-07 12:55:48,801415
0,1,2,-1,0,0,1,0,2021-08-07 12:55:48,832933
-3,-4,-3,-3,-3,-2,-3,-2,2021-08-07 12:55:48,848931
-1,0,-2,-3,-4,-3,-2,-1,2021-08-07 12:55:48,864932
-1,1,0,-1,-2,-1,-1,-2,2021-08-07 12:55:48,864932
-1,-1,-1,1,1,1,0,-1,2021-08-07 12:55:48,864932
-3,-3,-3,1,1,-2,-2,-2,2021-08-07 12:55:48,880932
-2,-1,-1,3,0,1,-1,-1,2021-08-07 12:55:48,896930
-1,0,-2,-5,-6,-4,-3,1,2021-08-07 12:55:48,896930
-1,1,0,-1,3,5,1,1,2021-08-07 12:55:48,896930
-1,-3,-1,2,1,-2,-3,-1,2021-08-07 12:55:48,912932
0,0,0,-1,3,2,2,1,2021-08-07 12:55:48,928932
0,-2,-1,2,2,0,-1,-2,2021-08-07 12:55:48,928932
-1,-2,-4,-6,-8,-3,-4,-1,2021-08-07 12:55:48,928932
1,2,0,3,7,3,4,1,2021-08-07 12:55:48,928932
0,-2,-2,-2,-1,-1,-2,-1,2021-08-07 12:55:48,928932
-1,-1,-4,-3,-3,-3,-1,-2,2021-08-07 12:55:48,929931
1,0,1,1,1,0,0,-1,2021-08-07 12:55:48,929931
-2,-1,-2,-4,-3,-1,-3,-2,2021-08-07 12:55:48,929931
-1,-1,-1,-2,-2,-3,-1,-1,2021-08-07 12:55:48,929931
-2,-1,0,-3,-5,-4,0,-1,2021-08-07 12:55:48,929931
-1,-1,-4,-4,-2,-1,0,-1,2021-08-07 12:55:48,929931
-1,1,-1,4,7,4,3,1,2021-08-07 12:55:48,930931
0,4,3,2,1,1,1,-1,2021-08-07 12:55:48,930931
-1,-1,0,1,1,2,-1,-1,2021-08-07 12:55:48,930931
-1,-2,-3,-3,-8,-6,-5,-2,2021-08-07 12:55:48,935934
0,0,-1,-4,-3,0,0,-2,2021-08-07 12:55:48,935934
0,-2,-1,-1,2,0,1,0,2021-08-07 12:55:48,935934
0,-1,-1,0,-1,0,-1,-1,2021-08-07 12:55:48,935934
-2,-1,0,-4,-2,-2,-2,1,2021-08-07 12:55:48,960931
1,1,0,-2,-3,-3,-1,0,2021-08-07 12:55:48,975932
-3,-3,-5,-2,-5,-5,-2,-4,2021-08-07 12:55:48,991931
0,1,1,3,8,5,3,2,2021-08-07 12:55:48,991931
3,3,1,2,2,2,2,1,2021-08-07 12:55:48,991931
-2,-1,0,-4,-4,-3,-1,-2,2021-08-07 12:55:48,991931
-1,0,0,-3,-6,-2,-4,-1,2021-08-07 12:55:48,991931
-2,-1,-2,-1,-1,-1,-1,-2,2021-08-07 12:55:48,992932
-2,-2,-1,1,-1,-4,-3,-1,2021-08-07 12:55:48,992932
1,0,1,1,1,3,1,0,2021-08-07 12:55:48,992932
-1,-1,0,-2,-2,-3,-2,-1,2021-08-07 12:55:48,992932
-1,-3,-4,-5,-5,-4,-3,-1,2021-08-07 12:55:48,992932
0,0,1,3,9,4,1,0,2021-08-07 12:55:49,007932
-2,-1,-1,5,9,3,1,0,2021-08-07 12:55:49,023931
0,0,0,-4,-10,-4,-2,1,2021-08-07 12:55:49,055932
0,2,2,5,13,6,5,2,2021-08-07 12:55:49,055932
-3,-3,-2,-7,-8,-5,-3,-4,2021-08-07 12:55:49,055932
1,0,0,-1,2,-1,1,0,2021-08-07 12:55:49,056932
-1,-2,-3,-2,1,5,0,-2,2021-08-07 12:55:49,056932
-1,-1,-2,-4,-4,-4,-3,-1,2021-08-07 12:55:49,056932
0,-1,2,5,-1,0,0,0,2021-08-07 12:55:49,056932
0,-1,-2,-2,-5,-4,-3,-3,2021-08-07 12:55:49,056932
0,-1,-2,-1,0,0,0,0,2021-08-07 12:55:49,057933
-1,-4,-5,-5,-10,-6,-4,-3,2021-08-07 12:55:49,057933
-1,1,1,-2,-3,-2,0,0,2021-08-07 12:55:49,071930
0,2,0,0,0,2,1,1,2021-08-07 12:55:49,087931
1,1,-1,-2,-1,-1,1,0,2021-08-07 12:55:49,103933
0,0,1,1,2,3,0,0,2021-08-07 12:55:49,119930
0,-1,-1,1,3,1,1,0,2021-08-07 12:55:49,119930
-3,-3,-3,-2,-4,-5,-3,-2,2021-08-07 12:55:49,119930
2,1,0,1,2,0,1,-1,2021-08-07 12:55:49,119930
-3,-4,-3,-2,-4,-4,-2,-3,2021-08-07 12:55:49,119930
3,2,1,2,5,5,4,2,2021-08-07 12:55:49,119930
0,1,0,-1,-3,-1,-1,0,2021-08-07 12:55:49,120933
-2,-2,-2,-3,-4,-4,-4,-4,2021-08-07 12:55:49,120933
-1,0,1,2,1,-1,-2,0,2021-08-07 12:55:49,120933
-3,-3,-3,-5,-11,-7,-4,-5,2021-08-07 12:55:49,135932
2,3,2,8,18,13,9,3,2021-08-07 12:55:49,150931
1,3,3,11,16,11,5,5,2021-08-07 12:55:49,166932
1,0,0,1,0,-1,-2,-1,2021-08-07 12:55:49,166932
-3,-2,-3,-6,-7,-7,-7,-2,2021-08-07 12:55:49,166932
-1,-1,-1,-8,-15,-9,-4,-3,2021-08-07 12:55:49,167931
-2,-2,-3,-3,-3,-2,0,-2,2021-08-07 12:55:49,167931
2,1,0,0,-2,0,-2,1,2021-08-07 12:55:49,167931
-1,0,-1,1,4,2,0,-1,2021-08-07 12:55:49,167931
-2,-2,0,-4,-6,-3,-4,-1,2021-08-07 12:55:49,167931
1,-1,2,0,0,1,2,1,2021-08-07 12:55:49,167931
-2,-1,-1,-1,-1,-1,0,1,2021-08-07 12:55:49,182931
-3,-4,-3,0,1,0,0,-2,2021-08-07 12:55:49,182931
0,0,1,-4,-5,-2,-1,0,2021-08-07 12:55:49,182931
1,1,0,2,2,0,0,1,2021-08-07 12:55:49,214930
0,1,1,-1,2,3,2,-1,2021-08-07 12:55:49,230930
-1,-1,-2,-1,-1,-2,-2,0,2021-08-07 12:55:49,230930
-2,-3,-3,0,-2,-3,-3,-2,2021-08-07 12:55:49,230930
-1,-1,-3,-5,-11,-10,-6,-4,2021-08-07 12:55:49,230930
1,1,2,-2,6,6,5,0,2021-08-07 12:55:49,230930
3,4,3,11,18,8,3,3,2021-08-07 12:55:49,230930
-3,-2,-3,-3,-4,-5,-3,-2,2021-08-07 12:55:49,230930
0,2,1,2,3,1,0,-1,2021-08-07 12:55:49,230930
-1,-1,-1,-8,-15,-10,-4,0,2021-08-07 12:55:49,231932
-2,-2,-3,-3,-6,-2,-2,-2,2021-08-07 12:55:49,246932
0,1,0,2,5,4,0,0,2021-08-07 12:55:49,246932
0,-1,-1,-1,-4,-2,-1,-1,2021-08-07 12:55:49,246932
1,-1,-3,2,6,2,0,0,2021-08-07 12:55:49,246932
0,-2,-3,-1,-2,0,2,-2,2021-08-07 12:55:49,278932
-2,-3,-4,-3,-3,-3,-1,0,2021-08-07 12:55:49,278932
-5,-2,1,-1,-5,-3,-3,-3,2021-08-07 12:55:49,278932
-1,0,1,4,4,3,2,-1,2021-08-07 12:55:49,294932
0,2,2,0,-1,-2,0,0,2021-08-07 12:55:49,310930
-1,-1,-2,-4,-8,-5,-3,-1,2021-08-07 12:55:49,310930
2,0,-3,1,2,2,0,2,2021-08-07 12:55:49,310930
0,-1,0,0,-2,-4,-1,0,2021-08-07 12:55:49,310930
1,1,0,-4,-6,-1,-2,1,2021-08-07 12:55:49,310930
-1,-3,-3,-2,0,0,-1,-1,2021-08-07 12:55:49,311932
-2,-1,-2,-4,-2,-1,-1,1,2021-08-07 12:55:49,311932
0,1,2,0,-2,-3,-2,-2,2021-08-07 12:55:49,311932
0,-1,1,0,2,1,-1,0,2021-08-07 12:55:49,342931
-1,0,-1,-3,-6,-3,-2,0,2021-08-07 12:55:49,358930
1,-2,-2,3,8,5,1,0,2021-08-07 12:55:49,374931
-1,0,-1,-3,-8,-5,-4,-1,2021-08-07 12:55:49,374931
-1,-1,-1,-5,0,1,1,-1,2021-08-07 12:55:49,374931
1,2,4,11,18,8,4,2,2021-08-07 12:55:49,374931
0,-1,-1,-2,-5,-2,-2,-1,2021-08-07 12:55:49,374931
1,1,1,1,4,4,2,1,2021-08-07 12:55:49,374931
-1,-2,-2,-4,-9,-6,-4,-2,2021-08-07 12:55:49,375931
-2,-4,-5,-7,-9,-6,-3,-3,2021-08-07 12:55:49,375931
-1,0,0,2,4,1,2,1,2021-08-07 12:55:49,375931
1,-3,0,1,0,2,0,0,2021-08-07 12:55:49,375931
-3,-3,-2,-3,-3,-5,-2,-2,2021-08-07 12:55:49,384931
2,2,3,1,2,2,-1,0,2021-08-07 12:55:49,384931
1,-1,0,-1,1,1,1,2,2021-08-07 12:55:49,384931
0,-1,-4,2,3,2,-3,1,2021-08-07 12:55:49,385933
-1,-1,-2,1,0,1,-1,-2,2021-08-07 12:55:49,422931
-2,-1,-1,-2,-1,0,0,0,2021-08-07 12:55:49,438933
0,0,0,-2,-5,-4,-2,-1,2021-08-07 12:55:49,438933
-1,-2,-1,-3,-4,-2,0,0,2021-08-07 12:55:49,438933
-1,-2,-2,-4,1,2,1,0,2021-08-07 12:55:49,438933
-1,-2,-2,-5,-4,-5,-1,-2,2021-08-07 12:55:49,438933
-1,2,2,0,3,2,-1,-1,2021-08-07 12:55:49,438933
-1,-1,-1,-1,2,1,0,0,2021-08-07 12:55:49,439933
-2,-1,-2,1,0,-1,-3,-1,2021-08-07 12:55:49,454932
-2,-3,-4,-5,-9,-6,-4,-3,2021-08-07 12:55:49,454932
-3,-2,0,-1,-6,-3,0,-3,2021-08-07 12:55:49,454932
3,4,1,4,17,10,7,2,2021-08-07 12:55:49,454932
0,2,1,3,5,0,0,0,2021-08-07 12:55:49,485931
-1,-1,-1,-2,-4,-3,-2,-1,2021-08-07 12:55:49,485931
-1,-2,-2,-1,0,-1,-1,-2,2021-08-07 12:55:49,485931
-3,-2,-2,-4,-11,-7,-4,-1,2021-08-07 12:55:49,485931
0,-1,-1,0,0,2,2,0,2021-08-07 12:55:49,485931
1,1,1,2,1,1,1,1,2021-08-07 12:55:49,485931
-1,-1,-3,-1,-5,0,0,-1,2021-08-07 12:55:49,501931
-2,-1,-1,-5,-7,-5,-4,-2,2021-08-07 12:55:49,517931
-1,0,1,1,1,0,0,-1,2021-08-07 12:55:49,533932
0,-1,-1,-1,2,2,0,-1,2021-08-07 12:55:49,533932
-1,1,-1,2,3,3,1,-1,2021-08-07 12:55:49,533932
1,0,0,-1,-2,-1,0,-1,2021-08-07 12:55:49,533932
-2,-1,-2,0,1,1,0,-1,2021-08-07 12:55:49,533932
0,0,0,-2,-1,-2,-1,0,2021-08-07 12:55:49,533932
-2,-1,-1,-1,0,0,-2,-1,2021-08-07 12:55:49,534933
-1,0,0,-2,-4,-2,0,-1,2021-08-07 12:55:49,534933
0,-3,-1,-2,-4,-3,-3,1,2021-08-07 12:55:49,549931
-2,-1,0,-4,-4,-4,-1,-1,2021-08-07 12:55:49,549931
-2,-3,-2,1,5,3,-1,-1,2021-08-07 12:55:49,549931
1,1,5,10,17,11,5,1,2021-08-07 12:55:49,549931
-2,0,-1,-2,-3,-1,-1,0,2021-08-07 12:55:49,596931
0,0,-2,-1,-1,-1,0,1,2021-08-07 12:55:49,596931
1,0,-2,-3,-4,-3,0,1,2021-08-07 12:55:49,596931
-1,-1,-3,-1,-7,-4,-3,-2,2021-08-07 12:55:49,596931
0,-1,-2,0,0,-1,-2,0,2021-08-07 12:55:49,596931
-2,0,-1,2,-1,-1,-1,-1,2021-08-07 12:55:49,597932
-1,1,0,-2,2,1,1,1,2021-08-07 12:55:49,597932
-3,-1,-2,-3,-4,-3,-2,-1,2021-08-07 12:55:49,597932
0,-1,-1,0,0,-1,1,-1,2021-08-07 12:55:49,611932
-2,-2,-2,-1,-3,-3,-2,-2,2021-08-07 12:55:49,627931
2,1,2,0,0,2,2,0,2021-08-07 12:55:49,627931
-2,-1,-3,-6,-7,-6,-3,-2,2021-08-07 12:55:49,627931
-1,0,1,1,2,2,1,1,2021-08-07 12:55:49,627931
0,1,2,6,6,3,-1,-2,2021-08-07 12:55:49,627931
-1,-4,-3,-2,-5,-3,-2,0,2021-08-07 12:55:49,627931
0,1,1,3,8,6,2,3,2021-08-07 12:55:49,628932
-3,-4,-4,-9,-14,-10,-6,-3,2021-08-07 12:55:49,659931
-1,-4,1,4,6,6,1,2,2021-08-07 12:55:49,675932
1,1,0,-5,-6,-4,-2,1,2021-08-07 12:55:49,675932
-2,-3,-1,0,5,4,1,-3,2021-08-07 12:55:49,675932
0,0,1,5,4,1,0,1,2021-08-07 12:55:49,675932
1,2,0,0,2,0,-1,2,2021-08-07 12:55:49,675932
-1,0,-2,-2,-5,-5,-1,-1,2021-08-07 12:55:49,676932
-2,-4,-4,-5,-11,-5,-4,-2,2021-08-07 12:55:49,691930
1,-1,-1,-4,-1,1,0,-1,2021-08-07 12:55:49,707934
-4,-2,-3,-2,-3,-5,-3,-2,2021-08-07 12:55:49,723932
1,2,1,3,4,3,2,1,2021-08-07 12:55:49,739930
3,0,1,-1,-3,-3,-1,0,2021-08-07 12:55:49,739930
-1,-3,-2,0,2,-2,-2,-2,2021-08-07 12:55:49,739930
-2,1,-2,-5,-7,-4,-3,-2,2021-08-07 12:55:49,739930
-1,-2,0,4,3,3,0,-1,2021-08-07 12:55:49,739930
1,1,3,2,7,4,2,1,2021-08-07 12:55:49,740934
-2,-2,-2,-2,-5,-4,-1,-3,2021-08-07 12:55:49,740934
1,0,0,-1,-1,0,2,1,2021-08-07 12:55:49,740934
0,0,1,5,12,5,3,0,2021-08-07 12:55:49,740934
-2,-2,-2,0,-3,-3,-2,-1,2021-08-07 12:55:49,740934
1,0,0,1,-1,0,0,-1,2021-08-07 12:55:49,755932
1,2,-1,-1,1,2,1,-1,2021-08-07 12:55:49,771932
-3,-2,-2,-5,-7,-3,-3,-2,2021-08-07 12:55:49,787931
-2,-2,-2,-1,-6,-6,-3,0,2021-08-07 12:55:49,787931
-1,0,0,-1,1,4,1,0,2021-08-07 12:55:49,787931
3,-2,1,0,0,1,0,1,2021-08-07 12:55:49,787931
-2,-4,-2,-1,-1,-4,-3,-3,2021-08-07 12:55:49,787931
-1,0,-1,-6,-6,-3,-2,-1,2021-08-07 12:55:49,787931
1,3,1,-1,3,2,1,3,2021-08-07 12:55:49,788932
2,4,4,9,11,5,4,1,2021-08-07 12:55:49,788932
-1,-2,-2,-2,-6,-4,-3,-1,2021-08-07 12:55:49,788932
-4,-5,-8,-8,-10,-8,-4,-3,2021-08-07 12:55:49,788932
-1,-1,-1,-3,-6,-5,-2,-2,2021-08-07 12:55:49,818931
0,0,-1,2,6,5,1,0,2021-08-07 12:55:49,818931
7,7,7,4,7,15,23,13,2021-08-07 12:55:49,818931
7,3,3,6,7,8,4,4,2021-08-07 12:55:49,818931
1,-2,-2,0,-1,-13,-19,-8,2021-08-07 12:55:49,834931
-13,-11,-10,-15,-15,-6,4,-7,2021-08-07 12:55:49,834931
16,10,10,16,24,36,37,23,2021-08-07 12:55:49,850931
13,7,5,5,9,-4,-17,3,2021-08-07 12:55:49,850931
-38,-20,-21,-28,-42,-73,-75,-54,2021-08-07 12:55:49,850931
17,10,5,2,4,17,24,16,2021-08-07 12:55:49,850931
6,0,-1,-2,-4,-5,-7,0,2021-08-07 12:55:49,850931
-26,-13,-5,-3,-9,-13,-12,-15,2021-08-07 12:55:49,850931
-10,-7,-4,-2,0,6,3,-6,2021-08-07 12:55:49,881932
3,-1,-1,-1,-2,-2,-5,-2,2021-08-07 12:55:49,896931
1,1,1,-4,-3,4,11,10,2021-08-07 12:55:49,911932
4,-1,0,3,6,15,24,21,2021-08-07 12:55:49,911932
9,4,5,7,12,17,18,13,2021-08-07 12:55:49,911932
0,-1,-1,-2,-4,-2,-4,-1,2021-08-07 12:55:49,911932
6,4,1,1,2,0,-5,-6,2021-08-07 12:55:49,911932
5,6,6,5,8,5,1,-1,2021-08-07 12:55:49,927931
13,9,9,15,25,28,27,15,2021-08-07 12:55:49,927931
-23,-19,-17,-10,-15,-30,-36,-27,2021-08-07 12:55:49,927931
-11,-4,-6,-8,-11,-24,-35,-18,2021-08-07 12:55:49,927931
-11,-6,-8,-6,-9,-13,-10,-14,2021-08-07 12:55:49,927931
4,1,-1,-6,-8,14,24,13,2021-08-07 12:55:49,928931
22,13,10,10,11,14,14,15,2021-08-07 12:55:49,928931
-14,-10,-6,-7,-10,-17,-18,-13,2021-08-07 12:55:49,943931
-8,-3,-3,-7,-10,-6,1,-3,2021-08-07 12:55:49,959931
13,6,6,9,12,20,23,19,2021-08-07 12:55:49,974931
-7,-2,-1,-2,-6,-5,-6,-2,2021-08-07 12:55:49,990932
1,-1,-1,1,5,-2,-4,2,2021-08-07 12:55:50,006932
4,2,-4,-7,-6,-4,-3,-4,2021-08-07 12:55:50,006932
-4,-2,-2,1,-2,-11,-14,-6,2021-08-07 12:55:50,006932
-9,-5,-5,-7,-15,-13,-9,-5,2021-08-07 12:55:50,006932
0,5,0,5,14,22,17,4,2021-08-07 12:55:50,006932
10,5,6,15,18,14,10,9,2021-08-07 12:55:50,007933
-11,-13,-15,-15,-22,-25,-21,-14,2021-08-07 12:55:50,007933
-5,-5,-7,-9,-13,-7,-4,-5,2021-08-07 12:55:50,007933
5,1,3,4,-3,1,5,3,2021-08-07 12:55:50,022931
-2,-1,0,3,18,8,-1,-2,2021-08-07 12:55:50,022931
1,4,1,6,7,7,5,1,2021-08-07 12:55:50,022931
4,3,3,5,6,8,8,7,2021-08-07 12:55:50,022931
-8,-8,-7,-16,-26,-22,-17,-9,2021-08-07 12:55:50,022931
-3,-3,-4,-5,-6,-4,-2,-4,2021-08-07 12:55:50,023932
4,3,4,7,15,14,12,8,2021-08-07 12:55:50,038930
1,1,0,-5,1,1,-2,0,2021-08-07 12:55:50,038930
-4,-1,-1,0,-4,-5,-5,-5,2021-08-07 12:55:50,038930
-5,-6,-4,-5,-15,-11,-6,-5,2021-08-07 12:55:50,038930
1,-1,-4,-10,-16,-3,1,2,2021-08-07 12:55:50,054930
3,7,6,9,18,10,3,2,2021-08-07 12:55:50,070930
-5,-4,-3,5,13,2,-3,-4,2021-08-07 12:55:50,086931
11,11,10,13,15,12,11,10,2021-08-07 12:55:50,102932
-1,-2,-2,-8,-10,-6,-5,-2,2021-08-07 12:55:50,102932
-4,-6,-4,-9,-17,-14,-7,-5,2021-08-07 12:55:50,102932
0,1,0,4,5,3,2,1,2021-08-07 12:55:50,102932
0,-3,-4,-1,-3,-1,-2,-3,2021-08-07 12:55:50,102932
3,4,3,3,4,4,3,4,2021-08-07 12:55:50,102932
0,0,1,5,4,4,2,1,2021-08-07 12:55:50,103932
-2,-4,-2,-5,-5,-3,-2,-1,2021-08-07 12:55:50,103932
-6,-6,-3,-10,-13,-9,-7,-4,2021-08-07 12:55:50,103932
0,-1,1,2,4,1,1,-1,2021-08-07 12:55:50,103932
-1,0,0,0,3,2,1,-1,2021-08-07 12:55:50,103932
-1,0,0,-3,-6,-6,-4,-3,2021-08-07 12:55:50,118932
-2,-5,-3,-2,-8,-3,-4,-2,2021-08-07 12:55:50,118932
5,5,3,6,7,4,3,4,2021-08-07 12:55:50,134930
1,3,1,2,8,5,2,2,2021-08-07 12:55:50,134930
-2,-2,-3,-5,-11,-8,-5,-3,2021-08-07 12:55:50,134930
1,0,2,2,8,6,1,1,2021-08-07 12:55:50,149930
-3,-2,-3,-4,-9,-8,-3,-2,2021-08-07 12:55:50,165930
-5,-4,-4,-8,-10,-3,-3,-3,2021-08-07 12:55:50,165930
2,4,4,14,33,19,8,4,2021-08-07 12:55:50,165930
-1,0,-1,-6,-10,-6,-2,-2,2021-08-07 12:55:50,165930
0,-1,1,2,3,4,1,1,2021-08-07 12:55:50,165930
-3,-2,0,-5,-7,-8,-3,-4,2021-08-07 12:55:50,166933
-3,-2,-6,-8,-12,-7,-3,-1,2021-08-07 12:55:50,181932
0,-3,-3,-2,0,-1,0,1,2021-08-07 12:55:50,196932
0,2,3,1,3,3,1,0,2021-08-07 12:55:50,212932
1,1,2,3,5,4,2,2,2021-08-07 12:55:50,212932
0,-2,-6,-6,-6,-3,-2,-2,2021-08-07 12:55:50,212932
0,2,1,-4,0,0,0,1,2021-08-07 12:55:50,212932
-2,-5,-5,-4,-9,-8,-5,-2,2021-08-07 12:55:50,212932
-1,1,0,5,3,2,2,0,2021-08-07 12:55:50,212932
3,2,3,4,12,8,5,2,2021-08-07 12:55:50,213932
-1,0,-5,-10,-15,-7,-6,-2,2021-08-07 12:55:50,213932
0,-1,1,6,10,5,1,0,2021-08-07 12:55:50,243932
0,0,2,4,2,0,0,0,2021-08-07 12:55:50,243932
-3,-4,-4,-10,-16,-9,-5,-2,2021-08-07 12:55:50,243932
0,0,-1,-1,-3,-1,0,-1,2021-08-07 12:55:50,243932
0,0,0,-1,2,1,-1,0,2021-08-07 12:55:50,253932
-1,-2,-2,-2,-2,-3,-3,0,2021-08-07 12:55:50,253932
0,-1,0,0,-1,1,1,2,2021-08-07 12:55:50,253932
-3,-4,-4,-3,-4,-4,-2,-3,2021-08-07 12:55:50,254932
1,3,4,5,8,3,2,1,2021-08-07 12:55:50,275931
2,0,-1,7,11,5,1,1,2021-08-07 12:55:50,275931
-1,-3,-4,-9,-8,-4,-3,-2,2021-08-07 12:55:50,275931
0,0,1,4,7,4,1,0,2021-08-07 12:55:50,275931
-3,-3,-3,-10,-14,-8,-5,-2,2021-08-07 12:55:50,291931
1,-1,1,-4,-8,-3,-1,2,2021-08-07 12:55:50,291931
-1,0,0,3,9,3,-1,0,2021-08-07 12:55:50,291931
-1,-2,-3,1,2,1,1,-1,2021-08-07 12:55:50,291931
-1,-1,-1,-2,-1,-2,-1,0,2021-08-07 12:55:50,322932
-2,-2,-3,-4,-8,-4,-2,-2,2021-08-07 12:55:50,322932
-1,0,0,1,2,2,1,-2,2021-08-07 12:55:50,322932
0,-1,-4,-8,-12,-5,-3,-1,2021-08-07 12:55:50,322932
0,0,2,7,11,7,3,0,2021-08-07 12:55:50,338931
2,2,0,-3,7,4,3,1,2021-08-07 12:55:50,354933
1,1,1,5,2,0,0,0,2021-08-07 12:55:50,370934
-1,2,2,5,7,3,2,-1,2021-08-07 12:55:50,370934
-1,-1,-3,-1,-2,-2,-3,0,2021-08-07 12:55:50,370934
-1,-2,-3,-4,-7,-3,-3,-2,2021-08-07 12:55:50,370934
0,-1,-1,-5,-9,-5,-3,-3,2021-08-07 12:55:50,370934
0,-2,-1,-4,-3,-4,-1,0,2021-08-07 12:55:50,370934
-3,-2,-3,-8,-13,-6,-3,-3,2021-08-07 12:55:50,370934
0,1,3,11,14,4,2,0,2021-08-07 12:55:50,370934
-2,1,-1,2,-3,-3,-1,-1,2021-08-07 12:55:50,371932
0,1,2,4,9,4,-1,0,2021-08-07 12:55:50,371932
1,0,2,-2,2,1,-1,1,2021-08-07 12:55:50,402932
1,-2,-3,-10,-10,-6,-2,1,2021-08-07 12:55:50,418931
-1,-1,0,7,4,-2,-1,-1,2021-08-07 12:55:50,434933
-4,-5,-5,-14,-17,-10,-5,-4,2021-08-07 12:55:50,450932
0,1,1,9,17,9,3,1,2021-08-07 12:55:50,466930
-3,-1,-1,-3,-7,-5,-5,-4,2021-08-07 12:55:50,466930
1,-1,-4,-9,-7,-3,-2,1,2021-08-07 12:55:50,466930
1,3,4,13,9,4,1,1,2021-08-07 12:55:50,466930
-1,-3,-4,-6,-7,-5,-2,-4,2021-08-07 12:55:50,466930
1,1,-1,-2,2,1,-1,2,2021-08-07 12:55:50,466930
-3,-4,-3,-8,-16,-9,-5,-4,2021-08-07 12:55:50,466930
-1,1,-1,-1,2,1,2,0,2021-08-07 12:55:50,467931
1,2,2,4,7,5,2,0,2021-08-07 12:55:50,467931
0,1,3,11,10,4,2,-1,2021-08-07 12:55:50,467931
1,0,-1,-5,1,0,0,0,2021-08-07 12:55:50,467931
1,-2,-5,-12,-10,-5,-2,1,2021-08-07 12:55:50,467931
-4,-6,-6,-13,-16,-9,-6,-3,2021-08-07 12:55:50,482932
-4,-4,-3,0,-5,-5,-3,-3,2021-08-07 12:55:50,498935
1,3,4,4,1,4,0,3,2021-08-07 12:55:50,498935
0,1,0,4,7,5,3,-1,2021-08-07 12:55:50,498935
0,3,3,6,-2,-1,-2,0,2021-08-07 12:55:50,498935
1,2,-1,3,11,8,3,3,2021-08-07 12:55:50,498935
0,-1,-3,-2,-7,-5,0,-1,2021-08-07 12:55:50,499931
-2,-4,-5,-5,-5,-4,-2,-3,2021-08-07 12:55:50,499931
-2,-2,-2,-2,-3,-4,-3,-3,2021-08-07 12:55:50,514932
-1,-1,0,-5,-6,-2,-2,-1,2021-08-07 12:55:50,514932
-1,-4,-2,3,2,1,-1,-2,2021-08-07 12:55:50,530931
1,-1,1,3,2,-1,1,1,2021-08-07 12:55:50,530931
0,1,0,-4,-5,-1,2,0,2021-08-07 12:55:50,530931
0,2,1,2,1,-1,-1,-2,2021-08-07 12:55:50,530931
0,0,-2,-2,-5,-4,-2,-1,2021-08-07 12:55:50,530931
-2,-1,0,8,4,0,-1,-2,2021-08-07 12:55:50,530931
0,1,1,1,-1,-1,-2,0,2021-08-07 12:55:50,562931
-1,-1,-3,-8,-4,-1,0,0,2021-08-07 12:55:50,594931
-2,-4,-1,-3,0,1,0,-2,2021-08-07 12:55:50,610930
-1,-2,-2,1,11,7,4,-1,2021-08-07 12:55:50,626932
5,7,7,16,19,9,6,5,2021-08-07 12:55:50,642930
-2,1,0,-1,-2,-1,1,0,2021-08-07 12:55:50,642930
0,-1,0,2,4,-1,-1,-4,2021-08-07 12:55:50,642930
-3,-4,-4,-7,-14,-8,-5,-3,2021-08-07 12:55:50,642930
-3,-7,-6,-8,-12,-7,-3,-3,2021-08-07 12:55:50,642930
3,3,2,2,2,2,2,0,2021-08-07 12:55:50,642930
2,6,4,4,12,7,5,4,2021-08-07 12:55:50,643932
-1,0,-1,-4,1,0,0,0,2021-08-07 12:55:50,643932
-1,-3,-6,-9,-5,-4,-3,-4,2021-08-07 12:55:50,643932
-3,-3,-2,-5,-13,-9,-5,-2,2021-08-07 12:55:50,643932
-3,-4,-1,2,-1,2,-1,-2,2021-08-07 12:55:50,643932
0,1,3,2,1,0,-1,1,2021-08-07 12:55:50,643932
-3,-5,-4,-9,-7,-4,-3,-2,2021-08-07 12:55:50,643932
1,0,-1,0,5,4,1,0,2021-08-07 12:55:50,643932
7,7,10,10,19,14,8,5,2021-08-07 12:55:50,644932
0,0,-1,1,-2,-1,-1,0,2021-08-07 12:55:50,644932
-1,-1,-2,3,-1,-2,-1,-2,2021-08-07 12:55:50,658930
-5,-5,-4,-9,-8,-7,-4,-3,2021-08-07 12:55:50,658930
-4,-5,-5,-5,-11,-8,-5,-4,2021-08-07 12:55:50,658930
-2,-2,-2,1,-2,0,-2,0,2021-08-07 12:55:50,658930
2,2,1,-1,4,4,3,2,2021-08-07 12:55:50,674930
2,2,3,3,2,3,2,2,2021-08-07 12:55:50,685934
-1,-2,-2,-1,1,-2,-1,1,2021-08-07 12:55:50,685934
0,-2,1,-2,-1,0,-2,-2,2021-08-07 12:55:50,686934
-2,-2,-2,1,-1,-1,0,-1,2021-08-07 12:55:50,705931
-1,-2,0,-1,-2,-2,0,0,2021-08-07 12:55:50,721931
-1,-1,-1,-2,1,1,0,-1,2021-08-07 12:55:50,737931
-2,-3,-4,-3,-11,-6,-5,-4,2021-08-07 12:55:50,737931
1,1,2,2,0,0,1,1,2021-08-07 12:55:50,737931
0,0,-1,-1,2,1,-1,-2,2021-08-07 12:55:50,737931
-2,-1,-3,-1,-4,-2,-1,1,2021-08-07 12:55:50,737931
-1,-2,-5,-6,-3,-3,0,-1,2021-08-07 12:55:50,738932
-1,1,0,3,9,5,1,2,2021-08-07 12:55:50,738932
-4,-5,-4,-6,-14,-8,-4,-5,2021-08-07 12:55:50,738932
-1,2,4,5,15,8,3,0,2021-08-07 12:55:50,738932
3,4,4,8,8,7,5,4,2021-08-07 12:55:50,738932
-1,0,0,2,4,-1,0,0,2021-08-07 12:55:50,753930
-3,-2,-2,-2,-3,-2,-4,-2,2021-08-07 12:55:50,769932
-5,-8,-9,-14,-21,-13,-7,-6,2021-08-07 12:55:50,784931
1,3,3,4,8,3,2,1,2021-08-07 12:55:50,800931
1,2,4,3,-2,-1,0,0,2021-08-07 12:55:50,816932
2,1,-1,5,6,4,2,1,2021-08-07 12:55:50,816932
-3,-6,-5,-14,-14,-9,-5,-2,2021-08-07 12:55:50,816932
-5,-8,-6,-6,-6,-5,-2,-4,2021-08-07 12:55:50,816932
-1,0,-1,-3,2,0,1,-1,2021-08-07 12:55:50,816932
3,3,6,14,15,7,6,3,2021-08-07 12:55:50,816932
0,1,-1,2,-2,-2,-2,0,2021-08-07 12:55:50,817932
-2,-3,-4,-8,-15,-10,-5,-3,2021-08-07 12:55:50,817932
-1,-2,-2,0,-4,-1,-1,-2,2021-08-07 12:55:50,817932
-2,-3,-1,-5,-3,-1,-1,-1,2021-08-07 12:55:50,817932
2,2,1,6,5,2,1,1,2021-08-07 12:55:50,817932
1,1,0,-4,-7,-5,-3,-1,2021-08-07 12:55:50,817932
-1,-3,-1,-3,-6,-3,-2,-4,2021-08-07 12:55:50,848931
0,-1,-1,4,12,5,0,1,2021-08-07 12:55:50,863932
0,0,0,2,-2,-2,1,2,2021-08-07 12:55:50,879930
-1,0,-1,-6,-4,-2,-2,0,2021-08-07 12:55:50,879930
-1,0,-1,0,4,-2,-1,-1,2021-08-07 12:55:50,879930
0,-3,-4,-6,-8,-1,-2,-3,2021-08-07 12:55:50,879930
-1,3,4,9,12,8,4,1,2021-08-07 12:55:50,879930
1,3,4,2,1,0,1,2,2021-08-07 12:55:50,879930
1,0,2,8,10,6,3,0,2021-08-07 12:55:50,880932
-1,-1,-1,2,-3,-5,-3,-2,2021-08-07 12:55:50,880932
-4,-2,-7,-5,-8,-5,-5,-4,2021-08-07 12:55:50,880932
-2,-1,-2,-6,-2,0,-2,0,2021-08-07 12:55:50,880932
-3,-1,4,-12,-16,-8,-7,-2,2021-08-07 12:55:50,895929
1,0,-3,-3,-4,-2,-1,-1,2021-08-07 12:55:50,895929
0,-2,-5,-1,6,4,0,0,2021-08-07 12:55:50,895929
1,2,3,13,10,4,3,1,2021-08-07 12:55:50,895929
-1,1,-2,5,-3,-3,-2,-1,2021-08-07 12:55:50,910932
1,1,4,-2,5,3,2,2,2021-08-07 12:55:50,910932
0,-2,-4,-11,-7,-3,-2,-2,2021-08-07 12:55:50,910932
-2,-6,-9,-11,-9,-6,-2,-4,2021-08-07 12:55:50,910932
-1,-3,-3,0,2,1,1,1,2021-08-07 12:55:50,942932
-2,-2,2,2,1,1,-1,-2,2021-08-07 12:55:50,958931
-1,-1,1,4,-2,-2,-2,-3,2021-08-07 12:55:50,974931
-2,2,4,6,11,6,1,0,2021-08-07 12:55:50,990931
1,2,1,3,1,0,0,-2,2021-08-07 12:55:51,005931
-3,1,-1,-1,-2,-1,-2,-2,2021-08-07 12:55:51,005931
1,1,1,-1,-3,-3,-1,0,2021-08-07 12:55:51,005931
0,-1,-2,-2,-5,-4,-5,-1,2021-08-07 12:55:51,005931
-1,-2,-5,-6,-1,1,0,-1,2021-08-07 12:55:51,005931
1,2,-2,-5,-2,0,0,3,2021-08-07 12:55:51,005931
2,2,5,12,19,10,4,1,2021-08-07 12:55:51,006932
0,0,-1,2,-4,-4,-1,-1,2021-08-07 12:55:51,006932
0,1,0,-6,-5,-3,1,2,2021-08-07 12:55:51,006932
-1,-3,-3,-4,0,2,0,0,2021-08-07 12:55:51,006932
-2,1,2,3,-1,-2,-2,0,2021-08-07 12:55:51,006932
-1,-1,0,5,6,2,3,-1,2021-08-07 12:55:51,006932
0,-2,-4,-5,1,2,-1,-1,2021-08-07 12:55:51,021932
-1,-2,-2,-4,-10,-4,-1,-2,2021-08-07 12:55:51,037931
-2,-2,0,0,-1,-4,-2,0,2021-08-07 12:55:51,037931
-2,-1,-2,0,2,1,-1,-2,2021-08-07 12:55:51,037931
-2,-1,-2,-8,-8,-5,-3,-1,2021-08-07 12:55:51,037931
0,1,1,-1,2,2,-1,1,2021-08-07 12:55:51,037931
1,2,2,4,6,5,4,0,2021-08-07 12:55:51,037931
-3,-3,-1,-5,-6,-3,-3,-2,2021-08-07 12:55:51,053931
0,-1,-2,-4,-2,0,0,2,2021-08-07 12:55:51,084931
1,1,-1,1,5,2,0,0,2021-08-07 12:55:51,100932
-2,-1,-2,-4,-11,-6,-4,-2,2021-08-07 12:55:51,115930
1,0,1,0,4,2,0,1,2021-08-07 12:55:51,116933
-1,-1,0,3,0,1,0,-1,2021-08-07 12:55:51,116933
-1,0,-1,2,-3,-4,-3,0,2021-08-07 12:55:51,116933
-4,-4,-7,-10,-11,-6,-4,-3,2021-08-07 12:55:51,116933
0,-1,3,0,0,0,0,-1,2021-08-07 12:55:51,116933
-2,-1,1,0,-4,-2,-1,-2,2021-08-07 12:55:51,116933
1,2,4,7,10,4,3,0,2021-08-07 12:55:51,117931
-1,0,-3,-7,-6,-1,-1,-1,2021-08-07 12:55:51,117931
1,-1,-2,-2,1,1,1,0,2021-08-07 12:55:51,117931
-1,0,-1,4,4,0,-1,-1,2021-08-07 12:55:51,117931
0,-1,-1,6,0,1,1,1,2021-08-07 12:55:51,117931
-3,-5,-5,-8,-4,-2,-3,-3,2021-08-07 12:55:51,117931
0,1,2,-2,-2,0,0,-1,2021-08-07 12:55:51,118932
-2,0,0,0,-8,-6,-5,-3,2021-08-07 12:55:51,132931
-2,-1,-1,-7,1,1,0,-1,2021-08-07 12:55:51,132931
1,0,0,3,2,-2,-1,0,2021-08-07 12:55:51,132931
-1,-3,-5,-5,-5,-1,-2,0,2021-08-07 12:55:51,132931
1,-2,0,4,8,4,2,0,2021-08-07 12:55:51,148930
-2,-2,-2,-5,-10,-7,-6,-3,2021-08-07 12:55:51,148930
-2,-2,1,1,-4,-2,-2,-2,2021-08-07 12:55:51,148930
0,1,-2,0,2,0,0,1,2021-08-07 12:55:51,148930
0,1,-2,-2,0,2,0,-1,2021-08-07 12:55:51,195931
2,4,3,7,4,2,1,1,2021-08-07 12:55:51,210931
0,-3,-4,-6,-8,-3,-1,-1,2021-08-07 12:55:51,226932
-2,-1,-2,-5,-8,-7,-4,-1,2021-08-07 12:55:51,242932
-2,0,5,4,4,2,1,-1,2021-08-07 12:55:51,242932
0,1,0,6,7,8,3,0,2021-08-07 12:55:51,242932
0,-1,-6,1,10,4,2,0,2021-08-07 12:55:51,242932
-3,-2,-2,1,-3,-3,-3,-2,2021-08-07 12:55:51,242932
-2,-2,-3,-6,-5,-3,-2,-1,2021-08-07 12:55:51,242932
0,-2,3,-1,-5,-3,-1,2,2021-08-07 12:55:51,242932
-1,-1,-1,5,-3,-3,-2,-1,2021-08-07 12:55:51,242932
1,0,-3,-4,-6,0,-2,-1,2021-08-07 12:55:51,242932
0,0,0,-8,-4,-5,-1,0,2021-08-07 12:55:51,243933
-3,-3,-3,-1,-5,-4,-4,-2,2021-08-07 12:55:51,258931
0,1,4,-3,-3,-1,0,1,2021-08-07 12:55:51,258931
-1,-1,-1,7,10,3,1,1,2021-08-07 12:55:51,258931
-1,1,1,5,4,1,-1,-1,2021-08-07 12:55:51,258931
-1,0,-1,-1,-1,2,0,0,2021-08-07 12:55:51,258931
2,1,4,7,10,5,1,2,2021-08-07 12:55:51,258931
1,2,1,-2,-2,-1,0,0,2021-08-07 12:55:51,259932
-3,-3,-6,-7,-5,-4,-2,-2,2021-08-07 12:55:51,274933
-4,-5,-7,-10,-10,-8,-5,-3,2021-08-07 12:55:51,290931
-1,-1,1,-5,-8,-4,-1,-1,2021-08-07 12:55:51,306932
1,1,2,3,7,6,3,2,2021-08-07 12:55:51,322931
4,2,0,6,7,5,3,2,2021-08-07 12:55:51,322931
0,1,0,1,2,0,0,-1,2021-08-07 12:55:51,322931
-2,-2,-1,-4,-5,-4,-1,-3,2021-08-07 12:55:51,322931
-4,-4,-3,-9,-11,-7,-5,-5,2021-08-07 12:55:51,322931
0,1,-1,0,-2,0,0,2,2021-08-07 12:55:51,323932
1,0,0,1,1,-1,0,-1,2021-08-07 12:55:51,323932
-1,-1,-2,1,1,-2,-2,-2,2021-08-07 12:55:51,323932
-1,0,0,2,6,5,3,1,2021-08-07 12:55:51,323932
-2,-3,-3,-10,-12,-7,-5,-3,2021-08-07 12:55:51,338931
-1,1,0,-1,-2,1,0,1,2021-08-07 12:55:51,338931
0,0,2,1,2,-1,-1,0,2021-08-07 12:55:51,338931
-2,0,2,11,8,1,-1,-1,2021-08-07 12:55:51,338931
1,0,-1,4,3,1,2,1,2021-08-07 12:55:51,369932
0,-2,-3,-5,-5,-4,-2,-2,2021-08-07 12:55:51,369932
-2,-1,-2,-8,-9,-4,-3,-1,2021-08-07 12:55:51,369932
-1,-4,-2,-2,0,1,-2,-2,2021-08-07 12:55:51,369932
1,1,3,4,4,1,2,1,2021-08-07 12:55:51,385932
-2,-1,-2,-3,0,-2,0,-1,2021-08-07 12:55:51,401930
-1,-3,-2,-1,-2,0,0,-2,2021-08-07 12:55:51,401930
0,0,-1,0,1,2,0,0,2021-08-07 12:55:51,401930
0,1,1,-1,-3,0,1,0,2021-08-07 12:55:51,401930
2,-1,2,7,10,1,0,0,2021-08-07 12:55:51,401930
0,1,-2,-2,-2,0,0,0,2021-08-07 12:55:51,401930
0,-2,-2,-3,-7,-4,-1,-2,2021-08-07 12:55:51,402932
-4,-4,-6,-7,-7,-5,-3,-3,2021-08-07 12:55:51,417931
0,2,3,1,0,1,0,-2,2021-08-07 12:55:51,433932
-2,-2,-2,-3,-5,-2,-2,0,2021-08-07 12:55:51,433932
-1,-2,-1,-9,-9,-4,-4,-2,2021-08-07 12:55:51,433932
-1,-2,0,-2,-4,-3,-2,-3,2021-08-07 12:55:51,433932
-1,1,2,9,9,4,3,1,2021-08-07 12:55:51,433932
-1,0,-2,3,-3,-2,-3,0,2021-08-07 12:55:51,433932
-1,0,-1,-6,-1,0,-1,0,2021-08-07 12:55:51,433932
1,-2,0,2,3,1,-1,-1,2021-08-07 12:55:51,449931
-3,-3,-3,-3,-3,-2,-2,-1,2021-08-07 12:55:51,449931
-1,-1,1,4,1,1,1,-1,2021-08-07 12:55:51,465931
-1,0,-1,2,0,-1,-2,0,2021-08-07 12:55:51,465931
-1,0,0,3,4,1,-1,1,2021-08-07 12:55:51,481932
-3,-2,-2,-4,-5,-3,-4,-3,2021-08-07 12:55:51,481932
0,-1,-3,-5,1,-1,1,0,2021-08-07 12:55:51,481932
0,-1,-2,-4,-8,-4,-2,-1,2021-08-07 12:55:51,481932
2,3,1,11,14,7,1,2,2021-08-07 12:55:51,497931
1,1,-2,-4,-9,-5,-3,-1,2021-08-07 12:55:51,497931
-1,0,0,-4,2,0,-1,0,2021-08-07 12:55:51,497931
0,2,0,4,5,2,1,1,2021-08-07 12:55:51,497931
-1,-2,-1,-4,-4,-1,-1,0,2021-08-07 12:55:51,513930
-1,-2,-2,2,2,0,0,-2,2021-08-07 12:55:51,529931
-1,1,0,2,1,-2,-1,-3,2021-08-07 12:55:51,541931
-2,-3,-4,-5,-3,-2,-1,-1,2021-08-07 12:55:51,541931
1,2,0,-5,-2,-1,0,0,2021-08-07 12:55:51,541931
0,-2,-2,-5,-5,-4,-3,-1,2021-08-07 12:55:51,561931
-1,-2,0,-4,-6,-4,0,1,2021-08-07 12:55:51,577930
0,2,5,15,14,7,3,2,2021-08-07 12:55:51,577930
-1,-2,-2,-4,-4,-2,-1,-3,2021-08-07 12:55:51,577930
-2,-1,1,-5,3,4,1,1,2021-08-07 12:55:51,577930
1,2,2,5,6,1,0,-1,2021-08-07 12:55:51,577930
-1,-2,-2,-1,-2,-4,0,-2,2021-08-07 12:55:51,577930
-1,-1,-2,-2,-2,0,1,0,2021-08-07 12:55:51,593929
-1,-1,-2,-5,-3,-2,-3,-2,2021-08-07 12:55:51,609930
-1,-3,-1,-2,-5,-3,-1,-1,2021-08-07 12:55:51,625932
-3,-1,-3,-2,-5,-3,-2,-2,2021-08-07 12:55:51,625932
-1,-1,0,4,6,2,-2,-1,2021-08-07 12:55:51,625932
1,0,0,-2,-9,-5,-2,-2,2021-08-07 12:55:51,625932
3,4,4,12,17,14,6,3,2021-08-07 12:55:51,625932
-1,-3,-2,-8,-8,-4,-3,-2,2021-08-07 12:55:51,625932
-2,-1,-2,-5,-4,-3,-1,-1,2021-08-07 12:55:51,626931
0,-1,5,6,6,2,1,0,2021-08-07 12:55:51,641930
0,2,-4,-1,-2,-3,-1,0,2021-08-07 12:55:51,657934
1,-1,-3,2,0,0,-1,1,2021-08-07 12:55:51,657934
0,0,-1,2,1,-1,1,0,2021-08-07 12:55:51,657934
-3,-4,-3,-7,-6,-3,-3,-3,2021-08-07 12:55:51,657934
0,0,2,-4,1,0,-2,1,2021-08-07 12:55:51,657934
1,0,2,4,8,4,2,0,2021-08-07 12:55:51,657934
-1,-1,-3,-3,-11,-9,-3,-2,2021-08-07 12:55:51,658932
0,-1,-1,-4,-12,-6,-2,-1,2021-08-07 12:55:51,658932
-4,-4,-3,-2,2,5,0,-2,2021-08-07 12:55:51,658932
-1,0,1,3,5,3,1,2,2021-08-07 12:55:51,658932
-1,-1,0,-1,3,3,0,0,2021-08-07 12:55:51,689930
-2,-1,-3,-2,1,-2,0,-3,2021-08-07 12:55:51,705930
-1,-3,-2,-8,-12,-8,-2,-3,2021-08-07 12:55:51,721931
-1,-1,-2,-4,-8,-5,-2,0,2021-08-07 12:55:51,721931
-2,-2,2,5,-4,-1,-1,-3,2021-08-07 12:55:51,721931
5,3,0,0,9,6,4,3,2021-08-07 12:55:51,721931
0,0,-2,3,4,0,0,-1,2021-08-07 12:55:51,721931
-2,-4,-1,-11,-4,-3,-2,-2,2021-08-07 12:55:51,721931
-2,-2,-2,1,-2,-1,-3,-1,2021-08-07 12:55:51,722933
-1,0,-1,3,-1,-1,-2,0,2021-08-07 12:55:51,722933
-1,-2,0,-2,-5,-4,-3,-3,2021-08-07 12:55:51,737931
0,0,0,7,4,2,2,-2,2021-08-07 12:55:51,753932
0,0,-2,-5,-3,-1,0,0,2021-08-07 12:55:51,753932
2,3,3,9,10,5,1,2,2021-08-07 12:55:51,753932
-2,-1,-1,-2,-1,-4,-2,0,2021-08-07 12:55:51,753932
-1,-3,-3,-12,-12,-7,-4,-3,2021-08-07 12:55:51,753932
-4,-6,-7,-12,-16,-9,-6,-4,2021-08-07 12:55:51,753932
-2,0,0,6,6,4,0,-1,2021-08-07 12:55:51,754932
1,1,3,8,2,1,-1,-1,2021-08-07 12:55:51,754932
1,1,0,7,9,7,3,2,2021-08-07 12:55:51,754932
3,1,1,6,7,6,3,2,2021-08-07 12:55:51,769931
0,-1,1,7,4,2,3,2,2021-08-07 12:55:51,769931
-3,-3,-5,-10,-8,-4,-3,-3,2021-08-07 12:55:51,769931
-4,-4,2,-2,-5,-5,-2,-6,2021-08-07 12:55:51,769931
-3,0,5,3,2,-1,-2,-4,2021-08-07 12:55:51,801932
-3,-3,-11,-6,-6,-6,-3,-4,2021-08-07 12:55:51,817931
-2,-2,-1,-1,-2,-3,-2,-1,2021-08-07 12:55:51,833931
2,4,0,-3,-4,-3,-1,2,2021-08-07 12:55:51,849930
3,2,2,-3,4,1,2,1,2021-08-07 12:55:51,865929
0,2,1,-2,-3,-3,0,1,2021-08-07 12:55:51,865929
-2,-3,-2,-1,-1,-3,0,0,2021-08-07 12:55:51,865929
-2,-3,-2,-2,-5,-3,-3,-2,2021-08-07 12:55:51,865929
1,-2,-1,-2,6,0,0,-1,2021-08-07 12:55:51,865929
-1,-1,-1,-2,-1,1,1,-1,2021-08-07 12:55:51,865929
-2,0,-3,-2,0,-1,-1,-3,2021-08-07 12:55:51,866932
0,2,0,3,2,0,0,1,2021-08-07 12:55:51,866932
0,1,-1,2,0,0,-2,-1,2021-08-07 12:55:51,866932
-2,-4,-4,-12,-10,-5,-3,-3,2021-08-07 12:55:51,866932
-1,-1,0,0,-3,-2,-1,-1,2021-08-07 12:55:51,866932
-2,-2,-4,-5,-4,-3,-2,-2,2021-08-07 12:55:51,866932
-1,2,0,2,4,2,1,3,2021-08-07 12:55:51,881932
1,0,4,-2,-2,-3,-2,0,2021-08-07 12:55:51,881932
-1,-1,-1,0,1,2,1,-2,2021-08-07 12:55:51,881932
-1,-2,-3,-5,-8,-3,-2,-3,2021-08-07 12:55:51,881932
3,2,5,17,22,13,5,1,2021-08-07 12:55:51,897930
-1,0,2,-3,-7,-6,-2,-2,2021-08-07 12:55:51,913932
0,-2,-1,0,0,-1,-2,-1,2021-08-07 12:55:51,928931
-2,-1,-1,-1,1,-2,0,-1,2021-08-07 12:55:51,928931
-2,-2,-5,-4,-6,-4,-1,-1,2021-08-07 12:55:51,928931
-1,-2,-1,-5,-3,0,-2,-1,2021-08-07 12:55:51,928931
1,-1,-1,-6,-4,-3,-2,-1,2021-08-07 12:55:51,928931
0,-2,0,0,-3,-2,-3,-1,2021-08-07 12:55:51,928931
-1,0,0,2,-2,-1,-1,-1,2021-08-07 12:55:51,944930
1,1,-3,4,6,2,1,0,2021-08-07 12:55:51,959930
0,-2,0,-3,1,2,-1,-1,2021-08-07 12:55:51,969932
0,1,-1,6,3,0,0,0,2021-08-07 12:55:51,969932
-3,-3,-5,-9,-11,-7,-5,-4,2021-08-07 12:55:51,969932
-5,-4,-3,-9,-11,-7,-6,-4,2021-08-07 12:55:51,969932
1,2,2,7,13,9,4,0,2021-08-07 12:55:51,969932
1,3,3,3,6,6,3,1,2021-08-07 12:55:51,970931
-1,-2,-4,-2,-3,-2,-4,-1,2021-08-07 12:55:51,970931
-1,-2,-2,2,1,1,-1,-2,2021-08-07 12:55:51,970931
-2,0,-1,-8,-11,-6,-3,-2,2021-08-07 12:55:51,970931
2,7,6,18,19,8,5,4,2021-08-07 12:55:51,970931
0,0,-2,-3,-2,-1,1,0,2021-08-07 12:55:52,006931
-1,-2,0,-4,1,3,-1,-1,2021-08-07 12:55:52,006931
-2,-2,2,-3,-5,-5,-2,0,2021-08-07 12:55:52,006931
-3,-5,-13,-9,-9,-6,-5,-3,2021-08-07 12:55:52,007506
-3,-5,-1,-8,-12,-8,-5,-2,2021-08-07 12:55:52,022962
2,2,3,6,6,6,3,4,2021-08-07 12:55:52,038963
-2,0,0,1,2,1,1,0,2021-08-07 12:55:52,054960
0,0,3,2,1,0,1,1,2021-08-07 12:55:52,070961
-1,-1,-2,-1,-3,0,-1,-2,2021-08-07 12:55:52,086962
-2,-2,-2,-7,-3,-1,-2,-3,2021-08-07 12:55:52,086962
2,3,3,8,6,5,2,2,2021-08-07 12:55:52,086962
0,-4,-3,-7,-12,-5,-4,-2,2021-08-07 12:55:52,086962
0,1,2,2,8,3,1,1,2021-08-07 12:55:52,087962
-1,-3,-2,-1,-1,-3,-2,-3,2021-08-07 12:55:52,087962
1,1,-2,0,0,2,1,1,2021-08-07 12:55:52,087962
-1,-2,1,-1,-2,-2,-1,1,2021-08-07 12:55:52,087962
1,-1,1,3,3,3,1,-1,2021-08-07 12:55:52,087962
-2,-1,-2,4,0,-3,-1,-2,2021-08-07 12:55:52,087962
-1,-5,-8,-8,-3,-2,-3,-3,2021-08-07 12:55:52,087962
-2,-2,-4,-9,-7,-5,-3,-5,2021-08-07 12:55:52,087962
1,3,5,-1,-1,-2,-1,2,2021-08-07 12:55:52,102961
2,3,2,4,13,10,4,4,2021-08-07 12:55:52,102961
-1,-2,-2,-1,-6,-4,-4,-1,2021-08-07 12:55:52,102961
0,-2,2,4,7,4,0,-1,2021-08-07 12:55:52,102961
-1,-2,-2,1,-2,-1,-2,-2,2021-08-07 12:55:52,118965
0,0,-3,-1,0,-1,0,-1,2021-08-07 12:55:52,134962
-2,-3,-7,-7,-3,0,-1,-1,2021-08-07 12:55:52,150962
-1,1,1,-1,-1,0,-1,0,2021-08-07 12:55:52,150962
-3,-5,-3,-4,-5,-5,-3,-2,2021-08-07 12:55:52,150962
-3,1,5,0,-5,-4,-2,-1,2021-08-07 12:55:52,150962
0,1,-2,2,2,2,1,1,2021-08-07 12:55:52,150962
0,0,-2,2,2,3,1,2,2021-08-07 12:55:52,150962
2,2,1,5,5,2,1,0,2021-08-07 12:55:52,151963
-1,-2,-3,0,-4,-3,-3,-1,2021-08-07 12:55:52,151963
0,-1,-1,-5,-6,-4,-2,-2,2021-08-07 12:55:52,151963
0,2,3,6,8,6,1,1,2021-08-07 12:55:52,151963
-1,-1,-2,-1,1,-2,-1,0,2021-08-07 12:55:52,198962
-2,-3,-2,-7,-8,-6,-2,-3,2021-08-07 12:55:52,214962
-1,0,-1,2,3,0,0,0,2021-08-07 12:55:52,214962
-2,-1,-1,-2,-3,-2,-1,0,2021-08-07 12:55:52,214962
2,2,1,0,2,4,3,2,2021-08-07 12:55:52,214962
-1,0,0,-1,2,0,0,-1,2021-08-07 12:55:52,214962
-4,-3,-3,-4,-9,-7,-2,-2,2021-08-07 12:55:52,214962
1,-1,0,-4,-3,0,0,1,2021-08-07 12:55:52,214962
1,0,2,3,10,4,3,0,2021-08-07 12:55:52,214962
-1,-3,-3,-6,-8,-5,-3,-1,2021-08-07 12:55:52,214962
-2,-2,-2,-1,-3,-2,-1,-1,2021-08-07 12:55:52,215961
-1,1,3,7,7,2,1,0,2021-08-07 12:55:52,215961
-2,0,-2,2,2,2,1,-1,2021-08-07 12:55:52,246477
3,3,0,3,1,1,1,1,2021-08-07 12:55:52,262476
-1,-2,-1,3,1,-1,-1,-1,2021-08-07 12:55:52,262476
-1,-4,-7,-14,-7,-4,-2,-3,2021-08-07 12:55:52,262476
-6,-7,-4,-15,-20,-11,-10,-6,2021-08-07 12:55:52,262476
1,1,4,10,16,8,4,1,2021-08-07 12:55:52,262476
0,2,3,1,4,-2,0,-1,2021-08-07 12:55:52,262476
1,2,1,8,0,-3,-1,0,2021-08-07 12:55:52,263478
0,-1,-3,0,1,0,0,-2,2021-08-07 12:55:52,278478
0,-3,-5,-16,-11,-4,-3,0,2021-08-07 12:55:52,278478
-3,-2,-1,-6,-5,-3,-3,-4,2021-08-07 12:55:52,278478
-1,-2,2,2,3,2,1,-1,2021-08-07 12:55:52,278478
-2,0,1,0,-6,-3,-3,-1,2021-08-07 12:55:52,309477
0,-1,1,5,9,2,1,1,2021-08-07 12:55:52,325476
1,0,-1,0,0,1,0,1,2021-08-07 12:55:52,325476
-2,-1,-1,-2,-4,-5,-4,-3,2021-08-07 12:55:52,325476
3,2,0,1,1,-1,2,-1,2021-08-07 12:55:52,325476
-1,-3,-3,-2,-5,-2,0,-2,2021-08-07 12:55:52,325476
-1,-1,3,5,5,4,0,0,2021-08-07 12:55:52,325476
-1,-1,2,-10,-4,-4,-2,-1,2021-08-07 12:55:52,326478
-3,-3,-11,-3,-3,-2,-2,-2,2021-08-07 12:55:52,341477
0,1,4,7,7,4,2,3,2021-08-07 12:55:52,341477
-2,-1,-2,-1,-2,-4,-1,-2,2021-08-07 12:55:52,341477
0,-1,1,3,-3,-2,-1,-2,2021-08-07 12:55:52,341477
2,2,4,3,6,3,1,2,2021-08-07 12:55:52,357477
-2,-2,-4,-2,2,0,1,-2,2021-08-07 12:55:52,373476
-1,-1,0,-2,-6,-3,-3,-3,2021-08-07 12:55:52,389476
-2,-1,-3,-5,-8,-5,-2,-2,2021-08-07 12:55:52,395477
2,3,4,5,7,6,4,3,2021-08-07 12:55:52,395477
-1,0,1,4,3,-1,-1,0,2021-08-07 12:55:52,395477
0,0,1,1,0,1,2,2,2021-08-07 12:55:52,396478
-2,-3,-6,-15,-9,-5,-4,-1,2021-08-07 12:55:52,396478
1,2,1,-2,-6,-2,-1,1,2021-08-07 12:55:52,396478
-1,-1,1,1,-2,0,0,-3,2021-08-07 12:55:52,396478
-1,0,2,4,6,2,2,0,2021-08-07 12:55:52,396478
3,0,0,5,5,3,2,1,2021-08-07 12:55:52,396478
-2,-2,-1,-6,-8,-6,-3,-1,2021-08-07 12:55:52,421477
3,2,0,-4,3,3,1,0,2021-08-07 12:55:52,421477
-2,-2,-2,-4,-3,-3,-2,-1,2021-08-07 12:55:52,421477
1,1,0,8,8,3,2,1,2021-08-07 12:55:52,421477
-2,-4,-2,-3,-1,-2,-3,-2,2021-08-07 12:55:52,453478
-3,-2,-3,-1,-10,-9,-7,-4,2021-08-07 12:55:52,469477
-1,-4,-7,-5,-8,-3,-2,-2,2021-08-07 12:55:52,485479
3,4,5,4,12,9,4,2,2021-08-07 12:55:52,501477
1,2,0,-3,-4,0,2,1,2021-08-07 12:55:52,501477
-1,-3,-2,-5,-6,-4,-1,-2,2021-08-07 12:55:52,501477
1,1,2,3,1,-2,0,0,2021-08-07 12:55:52,501477
-4,-2,-3,2,-1,0,-1,-1,2021-08-07 12:55:52,501477
3,2,3,8,10,6,2,1,2021-08-07 12:55:52,517478
-2,-2,-3,-1,-1,0,0,-1,2021-08-07 12:55:52,517478
-3,-3,-5,-12,-11,-6,-4,-3,2021-08-07 12:55:52,517478
-2,-1,-3,-7,-4,-2,0,-1,2021-08-07 12:55:52,517478
1,0,-2,0,1,-1,1,0,2021-08-07 12:55:52,517478
0,-1,0,3,3,-2,0,0,2021-08-07 12:55:52,518477
-1,-1,-1,3,2,-2,-2,-1,2021-08-07 12:55:52,518477
-3,-2,-3,-4,-15,-10,-5,-3,2021-08-07 12:55:52,518477
1,3,2,4,12,9,3,1,2021-08-07 12:55:52,518477
0,1,0,-3,0,1,1,-1,2021-08-07 12:55:52,518477
-1,-1,-1,-3,-2,-2,-1,0,2021-08-07 12:55:52,518477
0,-2,-2,0,0,1,1,0,2021-08-07 12:55:52,518477
-4,-7,-5,-2,-8,-8,-6,-4,2021-08-07 12:55:52,548478
3,3,3,5,4,4,3,2,2021-08-07 12:55:52,548478
-1,2,2,-2,2,0,0,-1,2021-08-07 12:55:52,548478
0,-1,-1,-1,-1,-2,-2,1,2021-08-07 12:55:52,548478
0,2,1,1,2,2,1,1,2021-08-07 12:55:52,548478
-2,-1,0,-3,3,1,1,0,2021-08-07 12:55:52,548478
-4,-4,-2,-1,-5,-2,-3,-2,2021-08-07 12:55:52,564475
0,1,-2,1,2,0,1,1,2021-08-07 12:55:52,564475
-1,-3,-1,-4,-4,-4,-2,-2,2021-08-07 12:55:52,580476
-2,-2,-2,-2,-9,-4,-5,-3,2021-08-07 12:55:52,596477
3,2,3,6,5,3,2,4,2021-08-07 12:55:52,612477
1,2,0,1,-1,0,2,0,2021-08-07 12:55:52,612477
-1,-2,0,-1,-1,1,0,-2,2021-08-07 12:55:52,612477
-1,-1,-2,0,-5,-2,-3,-3,2021-08-07 12:55:52,612477
-1,-3,-1,-3,-2,0,-1,-1,2021-08-07 12:55:52,612477
0,0,-1,3,1,-2,-1,0,2021-08-07 12:55:52,613477
-4,-5,-4,-6,-12,-10,-5,-3,2021-08-07 12:55:52,613477
2,4,4,11,18,11,5,2,2021-08-07 12:55:52,613477
3,4,1,7,12,6,6,3,2021-08-07 12:55:52,628476
1,-2,-3,-10,-6,0,0,0,2021-08-07 12:55:52,644477
-4,-4,-7,-13,-10,-6,-1,-2,2021-08-07 12:55:52,644477
-5,-5,-3,-9,-15,-11,-7,-5,2021-08-07 12:55:52,644477
-3,0,0,3,-4,-1,-2,-4,2021-08-07 12:55:52,644477
-1,2,5,13,13,5,1,-2,2021-08-07 12:55:52,644477
-3,-3,-3,-6,-9,-6,-5,-2,2021-08-07 12:55:52,660477
6,4,5,9,15,13,7,5,2021-08-07 12:55:52,675476
1,0,-2,-2,3,-1,0,1,2021-08-07 12:55:52,691479
-2,-1,-2,-6,-8,-4,-4,0,2021-08-07 12:55:52,707477
1,2,0,3,4,3,1,0,2021-08-07 12:55:52,723479
-3,-6,-7,-7,-9,-5,-3,-3,2021-08-07 12:55:52,723479
-2,-1,-2,-6,-4,-1,-2,-2,2021-08-07 12:55:52,723479
0,0,-1,1,-1,-1,-1,-1,2021-08-07 12:55:52,723479
2,3,2,2,5,4,3,1,2021-08-07 12:55:52,723479
-1,0,-1,-3,-6,-4,-2,0,2021-08-07 12:55:52,723479
-3,-4,-2,-1,-1,-5,-4,-2,2021-08-07 12:55:52,724477
0,0,0,0,2,1,0,-2,2021-08-07 12:55:52,724477
-1,-1,-1,0,5,2,0,-2,2021-08-07 12:55:52,724477
-2,-3,-2,-1,-7,-6,-3,-2,2021-08-07 12:55:52,724477
-1,-1,-3,-10,5,5,0,-2,2021-08-07 12:55:52,724477
-1,-2,-2,2,1,-2,-1,-2,2021-08-07 12:55:52,724477
1,2,4,7,5,2,2,3,2021-08-07 12:55:52,739479
-1,-1,-2,-2,-5,-4,-2,-1,2021-08-07 12:55:52,739479
-2,-2,-1,-5,-9,-5,-2,-1,2021-08-07 12:55:52,739479
-4,-5,-5,-5,-10,-7,-4,-3,2021-08-07 12:55:52,739479
3,2,2,10,18,14,6,1,2021-08-07 12:55:52,755477
-1,-2,-1,2,-1,-2,-3,0,2021-08-07 12:55:52,755477
1,1,1,2,0,0,1,1,2021-08-07 12:55:52,755477
1,2,0,0,-1,0,1,1,2021-08-07 12:55:52,755477
-1,1,-1,-2,-3,-1,0,0,2021-08-07 12:55:52,787476
-3,-3,-2,-7,-7,-5,-4,-4,2021-08-07 12:55:52,787476
-3,-3,4,-2,-5,-3,-3,-3,2021-08-07 12:55:52,803478
-2,-2,-9,-4,-2,-3,-2,-1,2021-08-07 12:55:52,814478
-3,-5,-2,-3,-8,-9,-6,-1,2021-08-07 12:55:52,815477
0,0,-1,5,1,5,2,2,2021-08-07 12:55:52,815477
3,2,3,7,5,3,2,2,2021-08-07 12:55:52,815477
-2,1,2,-10,0,4,1,-1,2021-08-07 12:55:52,815477
1,3,3,7,5,0,1,1,2021-08-07 12:55:52,815477
-2,-1,-5,-11,-11,-8,-4,-3,2021-08-07 12:55:52,816478
-1,1,2,9,5,0,-1,-1,2021-08-07 12:55:52,816478
-1,-2,-1,6,5,2,1,1,2021-08-07 12:55:52,816478
-2,-2,-2,-4,-6,-5,-2,-2,2021-08-07 12:55:52,835478
0,1,2,0,-3,-4,-1,-1,2021-08-07 12:55:52,835478
3,1,-1,3,13,9,3,-1,2021-08-07 12:55:52,835478
2,0,1,0,2,0,2,0,2021-08-07 12:55:52,835478
-3,-4,-4,-16,-20,-9,-5,-3,2021-08-07 12:55:52,867477
-2,-3,-3,-5,4,1,-1,-1,2021-08-07 12:55:52,882479
-1,-1,-2,4,1,1,-1,0,2021-08-07 12:55:52,898476
0,0,3,7,1,-1,-2,-1,2021-08-07 12:55:52,914476
0,-2,-2,-3,-5,-3,-2,-1,2021-08-07 12:55:52,914476
-1,-2,-5,-8,-11,-5,-1,0,2021-08-07 12:55:52,914476
3,4,2,3,6,4,2,3,2021-08-07 12:55:52,914476
-1,-1,2,-1,-1,-2,-2,-1,2021-08-07 12:55:52,914476
-1,-1,5,0,-2,1,0,-1,2021-08-07 12:55:52,914476
-2,-3,-8,-2,-1,0,0,-2,2021-08-07 12:55:52,914476
-3,-5,-6,-5,-3,-3,-1,-1,2021-08-07 12:55:52,914476
-1,-3,0,3,-1,-2,-1,-2,2021-08-07 12:55:52,915478
3,5,5,10,11,6,3,3,2021-08-07 12:55:52,915478
1,0,3,-2,4,2,-1,-2,2021-08-07 12:55:52,915478
-1,-1,-2,-6,-9,-5,-2,-1,2021-08-07 12:55:52,930478
-1,-3,-1,0,-3,0,-3,-1,2021-08-07 12:55:52,930478
1,-1,-1,5,10,4,1,-1,2021-08-07 12:55:52,930478
-1,1,3,7,3,0,-1,-2,2021-08-07 12:55:52,930478
0,-1,-5,-2,-7,-5,-2,-3,2021-08-07 12:55:52,946477
0,0,0,2,3,3,1,0,2021-08-07 12:55:52,946477
-6,-8,-8,-17,-15,-7,-5,-5,2021-08-07 12:55:52,962478
-1,-1,0,-3,-2,-1,-2,-1,2021-08-07 12:55:52,962478
3,4,5,11,19,11,6,2,2021-08-07 12:55:52,962478
0,2,3,0,-1,-1,1,1,2021-08-07 12:55:52,962478
0,3,3,9,8,3,2,2,2021-08-07 12:55:52,994477
-3,-2,-5,-5,-5,-4,-2,-1,2021-08-07 12:55:53,010476
-6,-7,-5,-17,-16,-10,-6,-4,2021-08-07 12:55:53,026506
0,1,0,2,3,3,0,-1,2021-08-07 12:55:53,026506
0,-1,-2,1,-1,-1,-3,-2,2021-08-07 12:55:53,026506
-2,-1,-2,-2,-3,-2,1,-2,2021-08-07 12:55:53,026506
0,0,-1,-1,-2,0,-1,0,2021-08-07 12:55:53,026506
1,3,2,2,8,4,3,2,2021-08-07 12:55:53,027507
0,1,0,-2,-7,-4,-1,-1,2021-08-07 12:55:53,042507
0,1,3,6,15,7,4,1,2021-08-07 12:55:53,042507
-1,-3,-3,-6,-7,-6,-3,-1,2021-08-07 12:55:53,042507
-3,-3,-6,-12,-8,-5,-3,-3,2021-08-07 12:55:53,042507
-2,-2,-2,4,6,2,1,-2,2021-08-07 12:55:53,042507
-1,-2,-2,-2,-7,-4,-3,-2,2021-08-07 12:55:53,042507
1,4,5,11,14,7,4,2,2021-08-07 12:55:53,043507
-1,-4,-1,-3,-2,-1,-2,-2,2021-08-07 12:55:53,043507
-1,-2,-3,-7,-7,-4,-1,0,2021-08-07 12:55:53,058508
1,1,-1,2,4,3,3,0,2021-08-07 12:55:53,058508
-2,-2,-3,-9,-10,-6,-4,-3,2021-08-07 12:55:53,058508
-1,0,-1,1,3,0,-2,-1,2021-08-07 12:55:53,058508
1,0,0,6,5,6,3,1,2021-08-07 12:55:53,090508
-2,-1,1,5,-1,-4,-4,-2,2021-08-07 12:55:53,106506
-1,-1,0,1,0,3,0,1,2021-08-07 12:55:53,106506
1,1,-2,-3,-6,-2,1,0,2021-08-07 12:55:53,106506
-2,-1,-5,-8,-2,0,-3,0,2021-08-07 12:55:53,106506
-1,-1,-1,-4,-4,-1,-2,0,2021-08-07 12:55:53,106506
0,2,1,1,-2,-2,0,-1,2021-08-07 12:55:53,106506
-2,-2,0,-1,-3,-1,-1,-1,2021-08-07 12:55:53,107510
0,1,2,2,2,0,1,-1,2021-08-07 12:55:53,122508
-4,-4,-2,0,-2,-1,-1,-1,2021-08-07 12:55:53,122508
-2,-2,-5,-10,-9,-8,-3,-2,2021-08-07 12:55:53,122508
0,1,1,-5,-2,2,1,-1,2021-08-07 12:55:53,122508
1,3,3,10,17,9,4,2,2021-08-07 12:55:53,137507
3,2,2,3,7,4,2,3,2021-08-07 12:55:53,153506
-1,-2,0,6,-6,-3,-2,-3,2021-08-07 12:55:53,169508
-2,-2,-2,-12,-12,-6,-4,-2,2021-08-07 12:55:53,185506
0,-1,0,8,13,6,1,-1,2021-08-07 12:55:53,201506
2,2,2,4,7,5,4,0,2021-08-07 12:55:53,201506
-2,-3,-2,-2,-2,-2,-3,-1,2021-08-07 12:55:53,201506
2,1,1,2,2,1,1,0,2021-08-07 12:55:53,201506
-1,-2,-1,-9,-10,-7,-2,-3,2021-08-07 12:55:53,216506
-2,-1,-3,-4,-3,-3,-2,-1,2021-08-07 12:55:53,216506
-2,-1,-3,-7,-6,-6,-2,-1,2021-08-07 12:55:53,216506
-2,-2,-2,-1,-4,-2,-2,-1,2021-08-07 12:55:53,216506
-1,-2,-2,-5,-8,-5,-2,0,2021-08-07 12:55:53,216506
0,-2,-1,2,4,2,0,-2,2021-08-07 12:55:53,216506
-2,-1,0,-2,-1,1,0,-1,2021-08-07 12:55:53,217506
1,2,1,5,6,2,2,0,2021-08-07 12:55:53,217506
1,2,2,6,3,2,0,1,2021-08-07 12:55:53,232508
1,-1,-1,-2,-3,-1,-1,0,2021-08-07 12:55:53,248508
0,-2,-4,-4,-5,-1,0,0,2021-08-07 12:55:53,250508
-2,-2,0,4,4,0,-1,-1,2021-08-07 12:55:53,250508
