EMG 1,EMG 2,EMG 3,EMG 4,EMG 5,EMG 6,EMG 7,EMG 8,Timestamp,Milliseconds
-1,1,-3,11,-14,-10,-3,0,2021-08-06 13:53:06,543066
5,5,4,15,41,22,9,6,2021-08-06 13:53:06,543066
-3,-4,-11,-33,-7,-4,-4,-3,2021-08-06 13:53:06,559103
-8,-8,-3,-26,-22,-13,-9,-6,2021-08-06 13:53:06,559103
-1,1,6,11,13,5,2,1,2021-08-06 13:53:06,559103
0,2,-8,-6,-16,-8,-4,-4,2021-08-06 13:53:06,559103
-4,-8,-8,-1,-10,-5,-2,-3,2021-08-06 13:53:06,559103
1,-1,0,27,31,15,8,4,2021-08-06 13:53:06,559103
-2,1,16,-4,-14,-10,-6,-4,2021-08-06 13:53:06,559103
-1,4,9,16,-3,-6,-4,-2,2021-08-06 13:53:06,559103
0,2,-8,-1,6,6,2,1,2021-08-06 13:53:06,575101
2,-8,-27,-48,-17,-5,1,0,2021-08-06 13:53:06,591100
-6,-8,9,2,4,2,-3,-6,2021-08-06 13:53:06,607116
4,20,64,27,-4,-6,0,1,2021-08-06 13:53:06,623066
2,-17,-92,12,-5,-5,-2,0,2021-08-06 13:53:06,655067
-6,-16,-8,-43,-13,-5,-4,-2,2021-08-06 13:53:06,671110
-2,19,54,10,6,3,-1,-2,2021-08-06 13:53:06,684101
-9,-29,-94,-24,-14,-10,-5,-5,2021-08-06 13:53:06,684101
0,-4,-7,2,-14,-6,-2,-2,2021-08-06 13:53:06,684101
-6,-10,-23,22,28,11,2,-6,2021-08-06 13:53:06,685103
2,0,2,-24,-9,-2,1,2,2021-08-06 13:53:06,685103
-3,9,61,4,-5,-4,-2,-2,2021-08-06 13:53:06,685103
4,5,12,13,14,8,4,2,2021-08-06 13:53:06,685103
1,3,11,15,10,2,0,-1,2021-08-06 13:53:06,685103
1,-1,0,-7,-7,-5,-1,-1,2021-08-06 13:53:06,685103
-1,-2,-6,-13,-15,-10,-6,-1,2021-08-06 13:53:06,685103
-1,-1,-4,-4,-8,-2,0,-1,2021-08-06 13:53:06,685103
-3,-3,-3,0,-1,-2,-2,-1,2021-08-06 13:53:06,686067
5,3,-3,-7,-7,-1,2,3,2021-08-06 13:53:06,686067
0,-2,1,14,26,12,5,1,2021-08-06 13:53:06,686067
-2,3,12,12,2,-1,-1,0,2021-08-06 13:53:06,686067
-1,-4,-17,-4,-9,-5,-1,0,2021-08-06 13:53:06,686067
-7,-8,-18,-44,-32,-16,-9,-7,2021-08-06 13:53:06,686067
6,9,17,20,28,17,9,6,2021-08-06 13:53:06,686067
0,-1,-12,-6,0,0,-1,-1,2021-08-06 13:53:06,686067
-3,2,26,9,-8,-7,-5,-4,2021-08-06 13:53:06,686067
-7,-9,-6,-5,-26,-16,-9,-6,2021-08-06 13:53:06,719115
5,-6,-49,-17,31,21,11,7,2021-08-06 13:53:06,719115
-3,-8,0,-7,-1,0,-1,-2,2021-08-06 13:53:06,719115
5,8,9,20,26,14,5,3,2021-08-06 13:53:06,719115
1,7,23,26,10,3,2,1,2021-08-06 13:53:06,735101
-3,1,20,-4,-33,-18,-8,-6,2021-08-06 13:53:06,751104
6,8,20,41,29,12,7,5,2021-08-06 13:53:06,767117
0,-10,-51,15,13,5,2,1,2021-08-06 13:53:06,767117
-7,-15,-31,-72,-23,-4,-4,-4,2021-08-06 13:53:06,767117
-20,-24,-41,-69,-35,-20,-15,-15,2021-08-06 13:53:06,767117
-5,-6,2,-44,-34,-18,-8,-6,2021-08-06 13:53:06,767117
6,13,33,16,0,1,6,6,2021-08-06 13:53:06,767117
9,17,31,78,47,20,10,6,2021-08-06 13:53:06,767117
3,8,21,22,-9,-8,-1,0,2021-08-06 13:53:06,768101
-12,-16,-30,-14,-24,-16,-12,-10,2021-08-06 13:53:06,768101
7,6,13,7,25,16,11,11,2021-08-06 13:53:06,768101
5,7,2,29,24,13,7,4,2021-08-06 13:53:06,797064
-1,-3,11,-16,-15,-5,-2,-1,2021-08-06 13:53:06,812067
-3,2,17,10,3,-2,-4,-1,2021-08-06 13:53:06,812067
-5,-2,-7,12,-18,-15,-9,-5,2021-08-06 13:53:06,812067
9,5,-27,2,23,20,11,12,2021-08-06 13:53:06,812067
-10,-20,-51,-78,-26,-10,-8,-6,2021-08-06 13:53:06,812067
-13,-16,-24,-1,-13,-11,-8,-6,2021-08-06 13:53:06,812067
1,4,14,-8,-5,-1,0,-1,2021-08-06 13:53:06,812067
8,20,64,80,49,16,10,6,2021-08-06 13:53:06,844067
8,15,29,47,14,7,5,2,2021-08-06 13:53:06,844067
1,-7,-37,-33,-13,0,1,0,2021-08-06 13:53:06,844067
-5,-11,-5,-36,-25,-10,-6,-3,2021-08-06 13:53:06,844067
-6,-8,-15,-23,-24,-17,-12,-8,2021-08-06 13:53:06,860065
3,1,0,21,13,10,2,2,2021-08-06 13:53:06,860065
5,11,23,16,12,5,3,2,2021-08-06 13:53:06,860065
1,4,0,12,5,1,2,-1,2021-08-06 13:53:06,860065
-1,-6,-15,-16,4,7,3,-1,2021-08-06 13:53:06,876065
-9,-11,-7,-12,-16,-10,-7,-7,2021-08-06 13:53:06,892116
0,-1,-1,0,-2,-1,-1,-1,2021-08-06 13:53:06,908068
-4,-2,-4,-15,-9,-8,-7,-3,2021-08-06 13:53:06,908068
-8,-7,-11,-3,-26,-15,-8,-6,2021-08-06 13:53:06,908068
6,14,33,12,14,7,4,4,2021-08-06 13:53:06,908068
3,8,8,15,14,6,3,3,2021-08-06 13:53:06,908068
-3,-1,10,-35,-18,-8,-3,-3,2021-08-06 13:53:06,908068
-4,-1,10,-6,-8,-7,-5,-5,2021-08-06 13:53:06,908068
-9,-23,-79,-1,1,-1,-4,-3,2021-08-06 13:53:06,908068
5,-4,-18,-31,18,16,9,6,2021-08-06 13:53:06,909105
-12,-12,-8,-12,-34,-23,-13,-11,2021-08-06 13:53:06,909105
2,9,26,17,5,0,1,3,2021-08-06 13:53:06,940067
6,17,47,31,26,15,6,2,2021-08-06 13:53:06,956116
6,7,6,12,12,5,2,2,2021-08-06 13:53:06,956116
-8,-10,-10,-2,1,-2,-5,-6,2021-08-06 13:53:06,956116
1,2,0,-2,0,0,-1,0,2021-08-06 13:53:06,956116
4,10,13,18,-11,-10,-4,0,2021-08-06 13:53:06,956116
-4,-3,-1,-10,-12,-7,-4,-2,2021-08-06 13:53:06,956116
1,2,-1,-9,4,3,-1,2,2021-08-06 13:53:06,957067
-8,-15,-41,-4,2,-1,-2,-5,2021-08-06 13:53:06,987104
-3,-8,-14,-38,-21,-12,-5,-1,2021-08-06 13:53:07,003109
-3,1,18,25,10,5,-1,-2,2021-08-06 13:53:07,019115
7,9,22,35,22,12,7,5,2021-08-06 13:53:07,019115
2,-1,-19,-33,6,8,3,3,2021-08-06 13:53:07,019115
-11,-9,-13,15,-2,-8,-8,-8,2021-08-06 13:53:07,019115
8,17,27,-11,-17,-7,-1,3,2021-08-06 13:53:07,019115
-2,-9,-17,12,1,0,-1,0,2021-08-06 13:53:07,019115
-2,-6,-10,-19,1,1,-1,-3,2021-08-06 13:53:07,019115
1,0,9,1,-4,-1,1,-1,2021-08-06 13:53:07,019115
1,8,27,32,51,22,7,3,2021-08-06 13:53:07,019115
8,9,-7,24,20,15,9,7,2021-08-06 13:53:07,019115
-7,-11,-18,-11,-11,-7,-6,-7,2021-08-06 13:53:07,035101
-3,-4,5,-36,-24,-11,-6,-1,2021-08-06 13:53:07,035101
-2,0,-10,10,-14,-9,-3,-3,2021-08-06 13:53:07,035101
3,2,-7,-22,-3,2,2,2,2021-08-06 13:53:07,035101
-1,-3,12,2,-1,-2,-2,-1,2021-08-06 13:53:07,048102
1,3,9,20,11,3,0,1,2021-08-06 13:53:07,049067
-1,-2,-13,7,9,4,1,0,2021-08-06 13:53:07,049067
-2,-2,5,-20,0,3,-1,0,2021-08-06 13:53:07,049067
-6,-6,-6,-6,-23,-15,-6,-4,2021-08-06 13:53:07,081116
6,10,1,10,9,5,3,3,2021-08-06 13:53:07,097117
-3,-2,12,8,-26,-19,-8,-5,2021-08-06 13:53:07,097117
-10,-12,-22,-19,-34,-20,-12,-10,2021-08-06 13:53:07,097117
13,15,20,33,83,48,21,15,2021-08-06 13:53:07,097117
1,2,19,30,22,8,3,1,2021-08-06 13:53:07,097117
-7,-18,-61,-16,-12,-5,-3,-2,2021-08-06 13:53:07,097117
-6,-7,-12,-81,-43,-21,-10,-6,2021-08-06 13:53:07,097117
-9,-9,4,-6,-27,-18,-10,-9,2021-08-06 13:53:07,113128
1,3,6,26,14,7,5,4,2021-08-06 13:53:07,129103
-1,3,12,-4,-8,-6,-2,-1,2021-08-06 13:53:07,144115
0,0,10,19,1,0,-1,-1,2021-08-06 13:53:07,144115
4,5,-3,11,10,4,4,1,2021-08-06 13:53:07,144115
-1,-2,-6,-12,-18,-8,-4,-4,2021-08-06 13:53:07,144115
1,-6,-12,-21,-11,-2,-1,0,2021-08-06 13:53:07,144115
4,7,23,19,40,23,11,4,2021-08-06 13:53:07,144115
0,9,21,21,-4,-3,-1,-1,2021-08-06 13:53:07,160068
-5,-16,-60,-39,-14,-9,-5,-4,2021-08-06 13:53:07,176067
-11,-21,-33,-43,-31,-17,-9,-8,2021-08-06 13:53:07,191118
-9,-8,-3,22,16,7,-1,-5,2021-08-06 13:53:07,207102
13,23,58,47,36,18,11,8,2021-08-06 13:53:07,207102
2,4,7,15,-10,-4,-1,0,2021-08-06 13:53:07,207102
-1,-4,-9,-22,4,5,3,2,2021-08-06 13:53:07,207102
-4,-7,-27,-33,-40,-26,-11,-5,2021-08-06 13:53:07,207102
-12,-14,-11,-29,-30,-20,-12,-10,2021-08-06 13:53:07,207102
11,17,36,25,25,17,6,5,2021-08-06 13:53:07,207102
-2,-1,-3,4,-2,-1,1,1,2021-08-06 13:53:07,207102
6,8,22,44,25,11,5,3,2021-08-06 13:53:07,208080
-5,-6,-15,2,-25,-14,-7,-4,2021-08-06 13:53:07,223067
-4,-5,-20,-50,-30,-9,-5,-2,2021-08-06 13:53:07,223067
-2,-2,3,-19,12,8,-1,-3,2021-08-06 13:53:07,223067
-1,6,17,31,11,1,-1,-1,2021-08-06 13:53:07,239115
-2,-5,-26,-8,-8,-5,-4,-2,2021-08-06 13:53:07,255115
0,4,15,-1,9,5,2,1,2021-08-06 13:53:07,255115
-5,-14,-60,-19,-15,-6,-5,-5,2021-08-06 13:53:07,255115
1,-2,22,-5,16,10,5,3,2021-08-06 13:53:07,255115
-8,-11,-26,-30,-31,-20,-11,-8,2021-08-06 13:53:07,255115
-1,0,3,9,5,3,2,0,2021-08-06 13:53:07,255115
7,15,50,36,30,15,6,4,2021-08-06 13:53:07,255115
4,4,-18,-1,1,2,0,1,2021-08-06 13:53:07,256065
-2,0,15,-1,-12,-5,-1,-2,2021-08-06 13:53:07,287102
0,6,28,30,6,-3,-2,-2,2021-08-06 13:53:07,302105
2,10,17,29,8,2,0,2,2021-08-06 13:53:07,302105
2,-8,-26,-32,-12,-1,1,1,2021-08-06 13:53:07,302105
-8,-17,-35,-58,-43,-21,-10,-6,2021-08-06 13:53:07,318115
-2,0,11,17,18,6,1,-1,2021-08-06 13:53:07,318115
-1,4,1,15,8,1,0,-3,2021-08-06 13:53:07,318115
6,8,-4,8,9,8,9,7,2021-08-06 13:53:07,318115
-6,-4,0,-18,-13,-4,-2,-4,2021-08-06 13:53:07,318115
-4,-9,-12,-17,-26,-15,-7,-4,2021-08-06 13:53:07,318115
6,8,30,36,25,11,5,4,2021-08-06 13:53:07,318115
-3,1,4,-1,-13,-7,-5,-3,2021-08-06 13:53:07,319102
1,1,-3,-6,11,8,3,2,2021-08-06 13:53:07,334102
-4,-7,-31,-8,-2,0,-3,-3,2021-08-06 13:53:07,334102
-5,-4,2,-23,-23,-10,-6,-4,2021-08-06 13:53:07,334102
0,4,12,18,1,-2,-1,-2,2021-08-06 13:53:07,334102
8,8,13,23,24,12,7,7,2021-08-06 13:53:07,350099
-3,-5,-4,-12,-4,-4,-2,-2,2021-08-06 13:53:07,350099
-7,-8,-7,-16,-16,-11,-8,-7,2021-08-06 13:53:07,350099
-3,-9,-28,-13,-6,-3,-3,-2,2021-08-06 13:53:07,350099
-3,-8,-8,-9,0,2,-3,-2,2021-08-06 13:53:07,366067
-4,-4,-12,-30,-44,-25,-10,-5,2021-08-06 13:53:07,366067
11,15,30,56,67,37,17,10,2021-08-06 13:53:07,366067
-2,-1,15,25,-12,-8,-6,-4,2021-08-06 13:53:07,366067
0,0,1,2,4,4,0,0,2021-08-06 13:53:07,397101
2,-3,-17,-56,-17,-5,-1,1,2021-08-06 13:53:07,397101
-6,-9,-14,-23,-27,-17,-10,-5,2021-08-06 13:53:07,397101
-1,-1,1,13,8,0,0,-1,2021-08-06 13:53:07,397101
2,6,14,30,13,3,3,0,2021-08-06 13:53:07,412102
5,15,47,47,31,13,4,3,2021-08-06 13:53:07,412102
14,9,-10,25,40,30,18,15,2021-08-06 13:53:07,412102
-3,-11,-34,-41,-9,1,-1,-1,2021-08-06 13:53:07,412102
-18,-24,-23,-58,-42,-26,-18,-14,2021-08-06 13:53:07,444067
-11,-13,-25,-22,-30,-20,-12,-8,2021-08-06 13:53:07,444067
8,17,34,49,45,24,13,8,2021-08-06 13:53:07,444067
3,6,8,18,7,4,3,2,2021-08-06 13:53:07,444067
6,9,14,4,11,5,5,3,2021-08-06 13:53:07,460067
1,4,15,20,1,-2,-2,-1,2021-08-06 13:53:07,476102
-2,-4,-3,-16,-30,-19,-8,-4,2021-08-06 13:53:07,492068
3,6,24,17,27,14,5,3,2021-08-06 13:53:07,492068
3,-2,-42,-13,8,8,4,2,2021-08-06 13:53:07,492068
-12,-24,-28,-43,-19,-9,-7,-7,2021-08-06 13:53:07,492068
-12,-14,-26,-33,-36,-23,-14,-11,2021-08-06 13:53:07,493069
4,6,21,17,22,10,6,5,2021-08-06 13:53:07,493069
6,12,33,39,9,2,3,1,2021-08-06 13:53:07,493069
1,4,-2,15,6,5,2,0,2021-08-06 13:53:07,493069
3,-3,5,-17,0,1,2,2,2021-08-06 13:53:07,493069
-1,5,1,5,5,-3,-3,-3,2021-08-06 13:53:07,493069
1,0,-9,4,-6,-4,-1,2,2021-08-06 13:53:07,524106
4,3,-4,-6,6,6,4,3,2021-08-06 13:53:07,540066
-8,-6,-5,-8,-7,-7,-6,-6,2021-08-06 13:53:07,555114
-3,-4,-1,-16,-1,1,-1,-2,2021-08-06 13:53:07,571103
-7,-9,-21,-13,-16,-10,-8,-7,2021-08-06 13:53:07,587102
2,3,12,22,31,18,9,3,2021-08-06 13:53:07,587102
-2,-1,1,-1,-18,-10,-4,-5,2021-08-06 13:53:07,587102
2,9,36,23,2,0,-2,1,2021-08-06 13:53:07,587102
8,12,16,34,17,7,5,7,2021-08-06 13:53:07,587102
-1,-7,-31,-6,3,4,0,0,2021-08-06 13:53:07,587102
-10,-15,-30,-75,-36,-15,-8,-6,2021-08-06 13:53:07,588067
-10,-17,-38,-42,-32,-20,-11,-9,2021-08-06 13:53:07,588067
3,6,32,19,17,8,5,2,2021-08-06 13:53:07,588067
4,9,28,45,17,5,4,2,2021-08-06 13:53:07,588067
3,3,0,2,0,1,4,3,2021-08-06 13:53:07,588067
-3,-3,-11,-19,-20,-11,-5,-4,2021-08-06 13:53:07,588067
-1,1,1,8,20,10,2,1,2021-08-06 13:53:07,603102
3,4,6,20,17,10,4,4,2021-08-06 13:53:07,619115
-3,-3,-4,-2,-7,-5,-6,-5,2021-08-06 13:53:07,619115
-7,-11,-14,-24,-25,-15,-9,-6,2021-08-06 13:53:07,619115
-1,-1,-9,-11,-21,-11,-2,-1,2021-08-06 13:53:07,619115
6,7,16,37,70,36,14,7,2021-08-06 13:53:07,619115
-6,-5,1,-3,-23,-13,-7,-8,2021-08-06 13:53:07,619115
-2,-3,-11,-13,-7,-3,-1,-2,2021-08-06 13:53:07,619115
3,4,2,-5,-2,2,1,2,2021-08-06 13:53:07,635126
-5,-3,-1,-21,-32,-18,-9,-4,2021-08-06 13:53:07,635126
5,9,18,35,27,13,7,5,2021-08-06 13:53:07,635126
-1,-5,-17,-1,3,0,0,0,2021-08-06 13:53:07,635126
-6,-3,3,-23,-21,-8,-6,-5,2021-08-06 13:53:07,665067
1,-1,-6,0,-3,-4,-1,-1,2021-08-06 13:53:07,681116
2,-2,-20,-2,-3,-2,1,1,2021-08-06 13:53:07,681116
-3,-7,-7,-17,-7,0,-1,-2,2021-08-06 13:53:07,681116
1,8,25,20,12,1,1,1,2021-08-06 13:53:07,681116
2,6,13,27,7,1,1,1,2021-08-06 13:53:07,681116
-3,-3,-8,-37,-22,-10,-4,-2,2021-08-06 13:53:07,681116
-3,-9,-21,-25,-5,-2,-3,-3,2021-08-06 13:53:07,681116
-7,-13,-29,-39,-16,-5,-5,-6,2021-08-06 13:53:07,697102
-3,1,6,5,-8,-7,-4,-2,2021-08-06 13:53:07,713102
3,9,26,37,9,0,0,2,2021-08-06 13:53:07,728065
5,10,21,36,17,8,4,4,2021-08-06 13:53:07,728065
-3,-9,-23,-8,-9,-4,-3,-1,2021-08-06 13:53:07,728065
0,-9,-15,-23,5,10,5,2,2021-08-06 13:53:07,728065
-9,-12,-27,-34,-21,-12,-8,-7,2021-08-06 13:53:07,728065
-3,-2,7,-4,-9,-8,-3,-3,2021-08-06 13:53:07,728065
3,5,13,31,19,12,5,2,2021-08-06 13:53:07,759068
0,2,5,-1,-15,-6,-3,-1,2021-08-06 13:53:07,775102
1,2,12,6,13,5,1,-1,2021-08-06 13:53:07,791116
-1,-1,-4,-6,-14,-8,-4,-2,2021-08-06 13:53:07,791116
-2,-2,-7,-11,-36,-23,-9,-4,2021-08-06 13:53:07,791116
-5,-5,-4,-15,-18,-9,-10,-5,2021-08-06 13:53:07,791116
10,9,13,23,53,36,20,12,2021-08-06 13:53:07,791116
-7,-7,-16,-5,-8,-1,-2,-5,2021-08-06 13:53:07,792102
-1,-4,-6,-11,-7,-5,-4,-2,2021-08-06 13:53:07,792102
2,4,7,9,-4,-4,0,1,2021-08-06 13:53:07,792102
0,4,4,13,-18,-10,-3,0,2021-08-06 13:53:07,792102
6,6,1,20,27,17,10,7,2021-08-06 13:53:07,792102
-6,-9,-16,-67,-19,-3,-4,-4,2021-08-06 13:53:07,795066
-11,-12,-16,-29,-42,-24,-15,-11,2021-08-06 13:53:07,795066
-1,0,-1,5,-1,-5,-5,-2,2021-08-06 13:53:07,795066
3,5,11,21,6,2,1,2,2021-08-06 13:53:07,795066
3,4,5,28,29,14,10,6,2021-08-06 13:53:07,822103
-4,-6,-6,-12,1,2,1,-1,2021-08-06 13:53:07,838103
3,0,4,4,6,3,3,1,2021-08-06 13:53:07,854111
3,4,8,17,-12,-7,-3,-1,2021-08-06 13:53:07,854111
2,3,4,-3,8,3,1,1,2021-08-06 13:53:07,854111
-5,-9,-12,-33,-6,0,-2,-3,2021-08-06 13:53:07,854111
1,2,-1,24,22,11,3,1,2021-08-06 13:53:07,854111
-4,-4,-5,-20,-20,-13,-8,-6,2021-08-06 13:53:07,854111
1,3,16,30,18,9,6,1,2021-08-06 13:53:07,854111
2,2,-5,-11,-21,-13,-2,0,2021-08-06 13:53:07,854111
-4,-7,-12,-21,-20,-10,-5,-4,2021-08-06 13:53:07,870102
1,2,5,17,31,13,4,1,2021-08-06 13:53:07,886068
1,4,10,34,15,4,2,0,2021-08-06 13:53:07,902102
3,3,-2,3,5,-1,0,1,2021-08-06 13:53:07,918114
-10,-10,-14,-52,-39,-16,-10,-7,2021-08-06 13:53:07,934114
-4,-5,-7,-23,9,3,0,-1,2021-08-06 13:53:07,934114
-7,-10,-16,-14,-24,-16,-10,-7,2021-08-06 13:53:07,934114
6,8,21,55,44,26,12,8,2021-08-06 13:53:07,934114
8,12,18,33,18,4,4,3,2021-08-06 13:53:07,934114
1,1,-3,-10,0,4,0,1,2021-08-06 13:53:07,934114
1,-3,-3,-31,-5,-1,-1,1,2021-08-06 13:53:07,934114
-9,-14,-26,-34,-33,-22,-12,-10,2021-08-06 13:53:07,935106
-2,-4,2,8,-1,-2,-2,-2,2021-08-06 13:53:07,935106
2,7,10,29,24,13,6,5,2021-08-06 13:53:07,935106
6,8,9,3,4,1,2,2,2021-08-06 13:53:07,935106
-1,-4,-12,-12,-7,-2,-1,0,2021-08-06 13:53:07,935106
-5,-9,-11,-6,5,0,-1,-4,2021-08-06 13:53:07,950103
-6,-6,-6,-5,-27,-18,-9,-7,2021-08-06 13:53:07,950103
-1,-1,4,11,17,9,3,0,2021-08-06 13:53:07,966114
3,6,14,15,26,13,5,3,2021-08-06 13:53:07,982102
-4,-4,-3,-6,-18,-10,-7,-4,2021-08-06 13:53:07,982102
6,4,7,15,18,11,6,3,2021-08-06 13:53:07,982102
-6,-7,-13,-13,-13,-8,-7,-5,2021-08-06 13:53:07,982102
-2,0,1,-12,-12,-6,-2,-4,2021-08-06 13:53:07,982102
-3,-5,-8,-19,-31,-16,-8,-4,2021-08-06 13:53:07,982102
5,10,12,28,37,16,8,6,2021-08-06 13:53:07,982102
0,3,4,9,8,6,2,0,2021-08-06 13:53:08,014104
1,0,-5,-15,0,0,0,1,2021-08-06 13:53:08,030119
-4,-4,-5,-15,-16,-7,-2,-3,2021-08-06 13:53:08,046103
-7,-9,-9,-22,-18,-11,-5,-5,2021-08-06 13:53:08,046103
1,1,-2,22,5,1,1,-1,2021-08-06 13:53:08,046103
3,3,8,18,13,6,2,2,2021-08-06 13:53:08,046103
-1,0,-2,-14,-2,1,-1,-2,2021-08-06 13:53:08,046103
1,0,2,-2,2,1,1,1,2021-08-06 13:53:08,046103
-2,-1,-1,-8,-19,-9,-3,-1,2021-08-06 13:53:08,046103
-3,-1,4,17,14,5,2,-1,2021-08-06 13:53:08,046103
4,2,9,25,31,17,9,4,2021-08-06 13:53:08,046103
2,1,-3,-10,-5,-1,0,0,2021-08-06 13:53:08,047105
-6,-4,-7,-16,-21,-14,-8,-6,2021-08-06 13:53:08,062117
1,3,4,-3,-6,-5,0,0,2021-08-06 13:53:08,078104
-2,-1,0,9,11,3,-1,-1,2021-08-06 13:53:08,094087
-7,-10,-17,-30,-35,-20,-10,-9,2021-08-06 13:53:08,094087
6,5,11,25,39,21,11,5,2021-08-06 13:53:08,094087
-3,0,3,-2,-11,-4,0,-2,2021-08-06 13:53:08,094087
-1,2,1,6,-3,-1,-1,0,2021-08-06 13:53:08,094087
-3,-4,-4,-14,-16,-9,-4,-4,2021-08-06 13:53:08,094087
-1,-2,-2,-4,3,0,-3,-2,2021-08-06 13:53:08,095066
-1,1,4,7,-1,-4,-1,-1,2021-08-06 13:53:08,095066
7,9,4,5,9,6,6,5,2021-08-06 13:53:08,095066
-2,-2,-4,-6,7,5,1,0,2021-08-06 13:53:08,095066
-7,-8,-8,-14,-23,-14,-9,-6,2021-08-06 13:53:08,126067
4,7,13,27,9,6,5,4,2021-08-06 13:53:08,142114
2,0,-3,-3,5,5,2,0,2021-08-06 13:53:08,142114
-5,-8,-3,-44,-32,-16,-8,-5,2021-08-06 13:53:08,142114
1,-1,-17,31,36,17,5,2,2021-08-06 13:53:08,142114
-1,-1,0,-1,-5,-6,-3,-2,2021-08-06 13:53:08,142114
-6,-7,-18,-42,-41,-20,-10,-7,2021-08-06 13:53:08,142114
0,-1,-2,-7,9,9,3,0,2021-08-06 13:53:08,142114
-7,-4,6,-6,-21,-14,-7,-6,2021-08-06 13:53:08,173102
1,1,2,18,21,9,2,3,2021-08-06 13:53:08,173102
-1,-2,6,12,12,3,1,0,2021-08-06 13:53:08,173102
-2,-1,-8,0,-9,-7,-3,-3,2021-08-06 13:53:08,173102
0,1,3,-2,-2,0,0,0,2021-08-06 13:53:08,189105
3,3,5,14,12,7,3,2,2021-08-06 13:53:08,189105
-1,-2,-1,-10,-12,-6,-3,-1,2021-08-06 13:53:08,189105
-3,-5,-7,-1,-3,-1,-2,-2,2021-08-06 13:53:08,189105
-5,-3,5,-3,3,-1,-3,-4,2021-08-06 13:53:08,205115
2,1,-4,2,3,3,2,2,2021-08-06 13:53:08,221105
-1,2,-3,-3,5,2,-2,-2,2021-08-06 13:53:08,237146
-1,1,5,20,3,-3,-2,-2,2021-08-06 13:53:08,237146
2,1,-1,-4,-7,0,2,4,2021-08-06 13:53:08,237146
-6,-7,-9,-45,-22,-12,-6,-6,2021-08-06 13:53:08,237146
-3,-1,-3,1,-12,-8,-4,-3,2021-08-06 13:53:08,237146
4,6,9,33,39,16,6,5,2021-08-06 13:53:08,237146
0,1,-6,1,-5,-3,0,2,2021-08-06 13:53:08,237146
-6,-9,-13,-27,-24,-14,-10,-8,2021-08-06 13:53:08,238107
1,2,10,18,29,17,5,1,2021-08-06 13:53:08,238107
-4,-4,-2,-10,-23,-14,-8,-5,2021-08-06 13:53:08,238107
1,-1,4,8,13,8,6,3,2021-08-06 13:53:08,269115
1,3,6,17,14,6,3,2,2021-08-06 13:53:08,269115
-1,1,-1,4,-1,-2,0,0,2021-08-06 13:53:08,269115
-3,-3,-3,-8,-15,-7,-4,-1,2021-08-06 13:53:08,269115
-1,-1,-2,-2,12,3,0,0,2021-08-06 13:53:08,284101
0,1,-4,-7,-11,-4,-3,-2,2021-08-06 13:53:08,284101
0,-2,1,2,1,2,0,-1,2021-08-06 13:53:08,299105
3,1,-1,2,-1,1,1,1,2021-08-06 13:53:08,299105
-3,-5,-8,-19,-28,-14,-8,-5,2021-08-06 13:53:08,299105
0,1,5,11,20,11,6,0,2021-08-06 13:53:08,299105
-4,-6,-8,-16,-31,-22,-11,-3,2021-08-06 13:53:08,299105
3,4,9,11,15,17,9,6,2021-08-06 13:53:08,299105
0,0,-7,-10,11,3,-1,-2,2021-08-06 13:53:08,330115
-5,-4,-6,-7,-15,-9,-4,-5,2021-08-06 13:53:08,346102
5,5,10,32,41,21,9,7,2021-08-06 13:53:08,346102
-4,-3,-7,-12,-22,-15,-6,-5,2021-08-06 13:53:08,346102
-2,0,2,-8,-13,-6,-3,-1,2021-08-06 13:53:08,346102
-4,-4,-5,-8,-7,-7,-5,-5,2021-08-06 13:53:08,346102
-3,-4,-5,-10,-17,-10,-6,-3,2021-08-06 13:53:08,346102
6,8,11,34,38,18,8,5,2021-08-06 13:53:08,346102
4,4,7,19,10,8,3,2,2021-08-06 13:53:08,362067
-5,-4,-11,-31,-20,-9,-7,-5,2021-08-06 13:53:08,362067
-5,-6,-9,-21,-21,-8,-2,-3,2021-08-06 13:53:08,377069
-2,0,4,3,-3,-5,-2,-1,2021-08-06 13:53:08,377069
8,9,13,45,49,23,10,8,2021-08-06 13:53:08,377069
2,2,-3,-10,-9,-1,1,0,2021-08-06 13:53:08,377069
-6,-10,-5,-40,-25,-15,-8,-8,2021-08-06 13:53:08,377069
-5,-6,-18,-11,4,1,-3,-5,2021-08-06 13:53:08,377069
-2,-2,-3,3,-3,-5,-2,-2,2021-08-06 13:53:08,408067
4,6,19,34,22,8,4,4,2021-08-06 13:53:08,424116
0,1,-10,-3,-16,-8,-2,-1,2021-08-06 13:53:08,440066
-3,-6,-4,-27,-10,-5,-3,-3,2021-08-06 13:53:08,440066
-2,-1,-1,-1,9,5,0,-2,2021-08-06 13:53:08,440066
1,0,2,4,9,5,2,0,2021-08-06 13:53:08,440066
-2,1,4,4,-2,-2,-2,-1,2021-08-06 13:53:08,440066
-1,-2,-3,-9,-23,-12,-3,-1,2021-08-06 13:53:08,440066
2,5,7,21,38,19,7,5,2021-08-06 13:53:08,440066
1,1,3,4,1,0,0,1,2021-08-06 13:53:08,440066
0,1,1,9,8,3,0,0,2021-08-06 13:53:08,441103
-3,-1,-4,-7,-10,-9,-2,-3,2021-08-06 13:53:08,441103
-10,-11,-12,-34,-44,-24,-12,-9,2021-08-06 13:53:08,471102
5,5,10,18,26,16,7,7,2021-08-06 13:53:08,486067
1,1,0,7,11,4,0,1,2021-08-06 13:53:08,501103
-1,-2,0,6,7,3,0,-3,2021-08-06 13:53:08,501103
-3,-3,-4,-7,-17,-9,-4,-4,2021-08-06 13:53:08,501103
-2,-3,-5,4,3,0,-1,-1,2021-08-06 13:53:08,501103
-5,-3,-7,-17,-19,-11,-5,-3,2021-08-06 13:53:08,501103
1,1,2,-13,-10,-1,0,1,2021-08-06 13:53:08,501103
-7,-6,-14,-12,-9,-6,-6,-6,2021-08-06 13:53:08,501103
-1,-2,1,18,20,8,5,0,2021-08-06 13:53:08,501103
5,6,9,30,30,13,7,3,2021-08-06 13:53:08,502100
-5,-5,-7,-12,-28,-17,-9,-6,2021-08-06 13:53:08,502100
4,1,5,-6,3,2,1,0,2021-08-06 13:53:08,532102
-2,-3,-5,-9,-13,-3,-3,-1,2021-08-06 13:53:08,547104
-1,-1,2,5,-2,-2,-1,-2,2021-08-06 13:53:08,548102
3,4,7,20,19,8,4,3,2021-08-06 13:53:08,548102
-2,-6,-12,-39,-32,-17,-6,-2,2021-08-06 13:53:08,548102
-8,-12,-8,-30,-43,-24,-13,-10,2021-08-06 13:53:08,549104
3,2,0,15,43,24,9,4,2021-08-06 13:53:08,549104
3,2,11,35,25,11,4,3,2021-08-06 13:53:08,549104
8,13,22,37,19,11,8,7,2021-08-06 13:53:08,563102
0,2,-15,-21,-25,-12,-4,-1,2021-08-06 13:53:08,579102
-10,-12,-18,-58,-44,-23,-12,-8,2021-08-06 13:53:08,595102
0,0,-1,10,30,13,3,1,2021-08-06 13:53:08,595102
0,-2,1,2,-5,-3,-1,0,2021-08-06 13:53:08,595102
1,7,21,34,19,7,4,2,2021-08-06 13:53:08,595102
4,3,-2,12,4,6,5,4,2021-08-06 13:53:08,595102
-4,-7,-17,-41,-27,-10,-6,-2,2021-08-06 13:53:08,595102
-6,-8,-3,-25,-20,-10,-6,-5,2021-08-06 13:53:08,611102
1,-1,-9,7,13,5,1,2,2021-08-06 13:53:08,611102
2,3,8,23,20,9,3,1,2021-08-06 13:53:08,611102
5,2,2,16,13,8,5,3,2021-08-06 13:53:08,611102
1,0,-2,-1,-8,-3,-1,-2,2021-08-06 13:53:08,611102
-5,-9,-5,-28,-20,-11,-5,-6,2021-08-06 13:53:08,611102
-1,0,1,15,15,7,2,0,2021-08-06 13:53:08,627067
-2,2,7,1,-12,-8,-3,-2,2021-08-06 13:53:08,627067
1,5,8,15,2,0,0,1,2021-08-06 13:53:08,675102
3,1,-13,-8,12,8,3,1,2021-08-06 13:53:08,691114
-3,-4,-7,-16,-20,-10,-5,-3,2021-08-06 13:53:08,691114
-7,-8,-5,-10,-9,-4,-5,-5,2021-08-06 13:53:08,691114
1,0,-4,5,5,1,1,3,2021-08-06 13:53:08,691114
-1,-1,6,0,2,1,0,-2,2021-08-06 13:53:08,691114
1,1,-1,-2,-5,-3,-1,-2,2021-08-06 13:53:08,692109
-4,-2,0,-17,-16,-10,-6,-4,2021-08-06 13:53:08,692109
-2,-3,-5,-1,-3,-3,-1,0,2021-08-06 13:53:08,692109
2,0,1,14,17,7,3,1,2021-08-06 13:53:08,692109
-6,-3,7,-9,-24,-18,-10,-7,2021-08-06 13:53:08,692109
9,5,1,23,37,23,12,9,2021-08-06 13:53:08,692109
-8,-10,-20,-13,-10,-6,-4,-5,2021-08-06 13:53:08,707103
0,0,1,-2,2,4,2,0,2021-08-06 13:53:08,707103
2,0,-4,-9,-4,-4,-1,0,2021-08-06 13:53:08,707103
-3,-3,1,-30,-36,-16,-5,-3,2021-08-06 13:53:08,707103
-1,0,4,18,37,16,4,-1,2021-08-06 13:53:08,723069
-1,2,2,9,2,-1,0,0,2021-08-06 13:53:08,723069
1,-1,7,10,2,0,-2,-1,2021-08-06 13:53:08,723069
1,0,-4,8,-6,-4,-2,0,2021-08-06 13:53:08,723069
2,0,1,-9,-6,-2,-1,2,2021-08-06 13:53:08,739067
-5,-3,-8,-22,-16,-7,-6,-4,2021-08-06 13:53:08,739067
-1,-3,2,1,-1,-3,0,-1,2021-08-06 13:53:08,739067
-2,-4,-5,3,13,7,1,-3,2021-08-06 13:53:08,739067
-1,2,2,3,-5,-1,1,0,2021-08-06 13:53:08,770102
0,1,6,9,1,-1,-1,-1,2021-08-06 13:53:08,786067
-6,-6,-9,-16,-10,-7,-6,-5,2021-08-06 13:53:08,786067
7,13,15,-2,-7,-2,1,4,2021-08-06 13:53:08,786067
5,4,5,28,41,22,9,4,2021-08-06 13:53:08,786067
-4,-13,-23,-35,-29,-15,-5,-4,2021-08-06 13:53:08,786067
-2,-8,-11,-5,4,3,1,-1,2021-08-06 13:53:08,786067
-4,-4,0,14,11,1,-2,-3,2021-08-06 13:53:08,786067
1,6,13,3,-3,-2,-1,-1,2021-08-06 13:53:08,802103
-1,2,6,4,-2,-2,-1,0,2021-08-06 13:53:08,818115
-2,-2,-3,-12,-19,-9,-4,-2,2021-08-06 13:53:08,833110
5,4,11,34,51,26,11,5,2021-08-06 13:53:08,833110
-2,-1,-4,-7,-6,-1,-1,-1,2021-08-06 13:53:08,833110
2,0,2,6,9,7,1,3,2021-08-06 13:53:08,833110
-4,-4,7,-15,-16,-10,-7,-5,2021-08-06 13:53:08,833110
-7,-10,-25,-13,-22,-14,-8,-6,2021-08-06 13:53:08,833110
5,3,-1,10,7,4,2,3,2021-08-06 13:53:08,848103
-4,-5,-5,-5,-3,-2,-2,-5,2021-08-06 13:53:08,864101
3,4,10,18,10,6,2,3,2021-08-06 13:53:08,879064
1,2,1,-14,-9,-3,0,-1,2021-08-06 13:53:08,879064
-6,-7,-6,-17,-14,-10,-6,-3,2021-08-06 13:53:08,894102
0,3,7,14,5,2,1,1,2021-08-06 13:53:08,894102
2,4,1,11,12,6,3,3,2021-08-06 13:53:08,894102
-5,-10,-10,-20,-18,-11,-7,-7,2021-08-06 13:53:08,894102
-3,-5,-15,-30,-23,-10,-5,-3,2021-08-06 13:53:08,894102
0,-1,4,4,18,7,2,-1,2021-08-06 13:53:08,894102
-1,0,2,20,15,8,5,1,2021-08-06 13:53:08,895104
-2,1,5,10,0,-1,-1,0,2021-08-06 13:53:08,895104
1,-2,-3,-18,-15,-5,-4,-2,2021-08-06 13:53:08,910067
-6,-7,-8,-19,-30,-18,-10,-6,2021-08-06 13:53:08,926067
5,6,3,15,22,16,7,6,2021-08-06 13:53:08,927110
-2,-3,-6,-9,-17,-10,-5,-3,2021-08-06 13:53:08,927110
-1,-2,5,15,16,7,3,-1,2021-08-06 13:53:08,928067
2,1,-1,-4,0,0,0,0,2021-08-06 13:53:08,928067
-2,-2,-5,-13,-15,-8,-3,-2,2021-08-06 13:53:08,928067
-3,-1,-3,-1,12,6,1,0,2021-08-06 13:53:08,928067
1,0,2,1,-8,-4,-1,0,2021-08-06 13:53:08,942102
0,-1,0,11,5,3,2,0,2021-08-06 13:53:08,942102
4,5,5,8,2,1,1,3,2021-08-06 13:53:08,942102
2,1,10,1,1,-1,0,1,2021-08-06 13:53:08,942102
-3,-3,-8,-6,1,5,0,-2,2021-08-06 13:53:08,973674
-3,-4,-13,-18,-14,-6,-4,-3,2021-08-06 13:53:08,973674
-6,-8,-9,-17,-11,-8,-5,-5,2021-08-06 13:53:08,973674
-3,-5,-9,3,1,-2,-3,-3,2021-08-06 13:53:08,973674
1,2,2,7,-6,-8,-2,-1,2021-08-06 13:53:08,989711
1,5,8,10,6,3,3,2,2021-08-06 13:53:09,005675
-1,0,2,-6,10,6,3,2,2021-08-06 13:53:09,021710
-1,0,-2,-2,2,3,2,1,2021-08-06 13:53:09,021710
-2,-3,1,-8,-12,-8,-3,-1,2021-08-06 13:53:09,021710
4,6,7,28,23,12,6,4,2021-08-06 13:53:09,021710
0,-1,-2,18,5,1,-1,-1,2021-08-06 13:53:09,021710
-1,-4,-5,-29,-11,-4,-2,-2,2021-08-06 13:53:09,021710
-4,-6,-17,-24,-18,-11,-5,-5,2021-08-06 13:53:09,021710
-4,-3,2,0,-1,-2,-2,-2,2021-08-06 13:53:09,021710
0,-1,1,4,-1,1,0,-2,2021-08-06 13:53:09,022675
1,3,8,21,-1,0,1,1,2021-08-06 13:53:09,022675
1,2,8,17,21,12,5,2,2021-08-06 13:53:09,052675
4,4,-8,-27,-4,1,2,2,2021-08-06 13:53:09,068723
-3,-6,-3,-11,-11,-8,-7,-5,2021-08-06 13:53:09,084715
-1,2,8,18,1,0,-1,0,2021-08-06 13:53:09,084715
-2,0,2,9,-13,-9,-5,-1,2021-08-06 13:53:09,084715
-1,-5,-20,-18,15,10,4,3,2021-08-06 13:53:09,084715
-3,-6,-10,-25,-12,-7,-3,-1,2021-08-06 13:53:09,084715
1,-1,-7,-1,4,1,1,-2,2021-08-06 13:53:09,084715
-1,0,9,11,1,1,1,1,2021-08-06 13:53:09,084715
-2,2,10,11,-11,-8,-4,-2,2021-08-06 13:53:09,085711
4,8,10,28,25,13,4,2,2021-08-06 13:53:09,085711
-2,-5,-5,-11,-10,-3,-3,-1,2021-08-06 13:53:09,085711
-6,-7,-10,-43,-28,-15,-8,-6,2021-08-06 13:53:09,116722
0,0,-8,7,14,7,1,-2,2021-08-06 13:53:09,132712
0,2,4,10,7,3,4,2,2021-08-06 13:53:09,148712
5,6,7,22,14,7,5,3,2021-08-06 13:53:09,148712
-2,-2,-8,-17,-13,-7,-4,-3,2021-08-06 13:53:09,148712
-8,-6,-1,-13,-17,-11,-7,-3,2021-08-06 13:53:09,148712
-8,-9,-4,-3,-6,-5,-5,-6,2021-08-06 13:53:09,148712
11,18,22,29,25,13,9,9,2021-08-06 13:53:09,148712
0,-1,-4,-1,-1,0,0,1,2021-08-06 13:53:09,148712
0,-2,1,-23,-10,-3,-2,-2,2021-08-06 13:53:09,148712
0,-1,-14,-5,-5,-2,-1,0,2021-08-06 13:53:09,148712
-6,-9,-10,-6,-5,-3,-5,-3,2021-08-06 13:53:09,149713
0,2,9,6,2,0,0,0,2021-08-06 13:53:09,164729
1,2,3,16,3,-3,-1,0,2021-08-06 13:53:09,180710
3,4,-1,-6,14,14,6,4,2021-08-06 13:53:09,196676
-8,-11,-10,-22,-11,-8,-6,-6,2021-08-06 13:53:09,196676
3,4,10,32,17,9,3,2,2021-08-06 13:53:09,196676
1,4,17,26,9,5,1,-1,2021-08-06 13:53:09,196676
-1,0,-12,-23,-10,-1,-1,0,2021-08-06 13:53:09,196676
-10,-12,-21,-47,-39,-25,-11,-8,2021-08-06 13:53:09,196676
-1,-2,-14,-11,-4,-3,0,0,2021-08-06 13:53:09,196676
0,-1,5,13,3,1,-1,0,2021-08-06 13:53:09,197676
4,7,16,34,12,3,2,0,2021-08-06 13:53:09,197676
2,4,4,-6,7,10,6,4,2021-08-06 13:53:09,197676
-4,-7,-7,-21,-19,-11,-8,-4,2021-08-06 13:53:09,228715
-3,-2,-3,8,-1,-2,-1,-1,2021-08-06 13:53:09,244710
1,3,8,7,6,2,1,1,2021-08-06 13:53:09,260713
-1,-2,-1,-3,4,5,-2,1,2021-08-06 13:53:09,260713
3,1,0,-1,4,4,2,1,2021-08-06 13:53:09,260713
-1,-5,-13,-16,-14,-8,-5,-3,2021-08-06 13:53:09,260713
-5,-6,-8,-7,-12,-10,-6,-6,2021-08-06 13:53:09,260713
-3,1,5,19,2,-3,-2,-2,2021-08-06 13:53:09,260713
2,4,5,5,10,7,3,3,2021-08-06 13:53:09,260713
1,3,-2,-12,4,4,2,1,2021-08-06 13:53:09,260713
-4,-3,0,-17,-20,-12,-5,-4,2021-08-06 13:53:09,261676
-2,-5,-13,-5,3,1,-2,-3,2021-08-06 13:53:09,261676
1,-2,6,14,4,1,-1,-1,2021-08-06 13:53:09,290713
0,0,1,5,5,0,-1,1,2021-08-06 13:53:09,306712
1,-1,-2,-10,-6,-1,1,1,2021-08-06 13:53:09,306712
1,4,9,17,6,0,1,0,2021-08-06 13:53:09,306712
-3,-5,-6,6,9,2,0,-2,2021-08-06 13:53:09,311713
-2,-1,-3,-15,-8,-5,-1,-3,2021-08-06 13:53:09,311713
3,1,1,-10,-10,-5,-1,1,2021-08-06 13:53:09,311713
-1,-3,3,-10,-6,-3,-1,0,2021-08-06 13:53:09,312675
-3,-2,-13,-9,-11,-8,-3,-5,2021-08-06 13:53:09,321711
-4,-4,0,7,0,-1,-3,-3,2021-08-06 13:53:09,321711
1,1,4,23,10,5,2,0,2021-08-06 13:53:09,321711
3,5,5,0,21,14,6,3,2021-08-06 13:53:09,321711
-3,-5,-11,-23,-16,-8,-4,-1,2021-08-06 13:53:09,352676
1,-2,-8,-14,-9,-5,0,-1,2021-08-06 13:53:09,352918
-1,-1,4,5,2,0,-1,-2,2021-08-06 13:53:09,352918
0,3,6,19,5,0,0,-1,2021-08-06 13:53:09,352918
1,3,7,21,13,8,1,0,2021-08-06 13:53:09,352918
-3,-3,3,0,1,0,-1,-1,2021-08-06 13:53:09,352918
0,1,-14,-11,-2,1,0,0,2021-08-06 13:53:09,368051
-3,-5,-8,-14,-17,-12,-6,-5,2021-08-06 13:53:09,368051
0,1,2,-1,2,0,-1,0,2021-08-06 13:53:09,384038
0,2,5,25,8,2,1,0,2021-08-06 13:53:09,384038
2,3,8,10,15,7,3,1,2021-08-06 13:53:09,384038
-3,-2,-5,-20,-10,-3,-2,-1,2021-08-06 13:53:09,384038
-5,-4,-5,-11,-6,-6,-1,-3,2021-08-06 13:53:09,416040
-1,-3,2,-7,-9,-6,-4,-1,2021-08-06 13:53:09,432059
-3,-6,-5,6,1,-2,-3,-2,2021-08-06 13:53:09,448038
4,3,-6,-8,-4,2,4,4,2021-08-06 13:53:09,448038
-1,-2,4,3,1,0,-2,-2,2021-08-06 13:53:09,448038
0,1,0,-2,-2,0,-2,-1,2021-08-06 13:53:09,448038
2,2,0,4,2,2,1,3,2021-08-06 13:53:09,448038
2,1,6,21,6,1,1,-1,2021-08-06 13:53:09,448038
2,0,1,-5,1,3,2,0,2021-08-06 13:53:09,449006
-4,-6,-6,-19,-16,-8,-5,-4,2021-08-06 13:53:09,449006
-1,-3,1,-3,-7,-5,-2,-2,2021-08-06 13:53:09,449006
-3,-6,-16,-5,0,0,-2,-3,2021-08-06 13:53:09,449006
0,0,2,3,4,3,1,0,2021-08-06 13:53:09,464039
1,3,11,16,10,4,2,1,2021-08-06 13:53:09,464039
0,-1,-4,-15,-3,0,1,1,2021-08-06 13:53:09,464039
-5,-4,-9,-9,-11,-7,-4,-3,2021-08-06 13:53:09,464039
-2,0,-5,3,3,-1,-1,-2,2021-08-06 13:53:09,496002
0,-1,-8,-8,-5,-1,-1,-2,2021-08-06 13:53:09,511003
-2,-1,8,2,-5,-4,-4,-2,2021-08-06 13:53:09,511003
1,1,4,5,1,0,0,0,2021-08-06 13:53:09,511003
1,0,1,0,2,0,1,-1,2021-08-06 13:53:09,511003
2,1,2,9,6,3,2,3,2021-08-06 13:53:09,511003
-3,-1,-4,-2,-4,-3,-3,-4,2021-08-06 13:53:09,511003
0,-1,-2,-4,-2,-3,-1,-2,2021-08-06 13:53:09,512038
-2,-2,-1,-4,1,-2,0,-1,2021-08-06 13:53:09,527051
0,-2,-2,0,-3,-3,-1,0,2021-08-06 13:53:09,559041
-1,-1,-3,-4,-7,-5,-1,0,2021-08-06 13:53:09,559041
-4,-4,-4,-2,-3,-2,0,-2,2021-08-06 13:53:09,559041
2,5,8,17,19,9,3,1,2021-08-06 13:53:09,559041
3,1,1,6,3,5,2,3,2021-08-06 13:53:09,559041
-4,-5,-9,-23,-15,-8,-4,-4,2021-08-06 13:53:09,559041
0,-3,1,6,-12,-10,-4,-2,2021-08-06 13:53:09,559041
-4,-4,-5,-22,-9,-3,-2,-2,2021-08-06 13:53:09,560004
0,-1,-3,0,7,3,2,-1,2021-08-06 13:53:09,560004
1,3,5,15,12,4,2,3,2021-08-06 13:53:09,560004
0,1,9,2,0,0,-1,0,2021-08-06 13:53:09,560004
-2,-4,-15,-13,-7,-4,-3,-3,2021-08-06 13:53:09,591001
-3,-4,-3,1,0,-1,-1,-3,2021-08-06 13:53:09,607039
2,1,-2,0,0,0,2,3,2021-08-06 13:53:09,607039
-1,1,4,7,2,-1,-2,-2,2021-08-06 13:53:09,607039
1,3,10,10,0,-1,1,0,2021-08-06 13:53:09,607039
-1,-2,-5,-15,-10,-6,-2,-3,2021-08-06 13:53:09,607039
-7,-8,-17,-17,-13,-7,-5,-5,2021-08-06 13:53:09,607039
-1,-1,-3,-2,9,7,3,1,2021-08-06 13:53:09,607039
1,0,6,6,1,1,2,1,2021-08-06 13:53:09,623003
0,1,3,5,1,0,0,0,2021-08-06 13:53:09,623003
1,1,6,8,4,0,2,0,2021-08-06 13:53:09,623003
1,0,1,-2,1,0,-2,-1,2021-08-06 13:53:09,623003
-2,-2,-2,-5,-5,-1,-2,-1,2021-08-06 13:53:09,655050
-2,-3,-3,5,-3,-3,0,1,2021-08-06 13:53:09,671038
0,0,1,9,5,1,0,-1,2021-08-06 13:53:09,687049
-1,1,2,-17,-6,-2,0,0,2021-08-06 13:53:09,687049
0,-2,-4,2,8,5,3,-1,2021-08-06 13:53:09,687049
-3,-2,-6,-13,-6,-3,-2,-3,2021-08-06 13:53:09,687049
2,3,8,10,2,1,0,-1,2021-08-06 13:53:09,687049
0,-2,-7,1,1,-1,0,0,2021-08-06 13:53:09,687049
2,1,1,5,-5,-2,-2,-1,2021-08-06 13:53:09,687049
-2,-2,-5,-14,-4,0,0,-1,2021-08-06 13:53:09,687049
3,1,4,11,12,6,4,1,2021-08-06 13:53:09,687049
-1,-2,-7,-4,-2,-2,-2,-1,2021-08-06 13:53:09,687049
-3,-2,-4,-6,-4,-4,-4,0,2021-08-06 13:53:09,699038
-2,-3,-2,-1,-2,-5,-3,-3,2021-08-06 13:53:09,719050
-1,-1,8,4,-4,-1,-1,-1,2021-08-06 13:53:09,719050
1,0,-1,13,6,3,3,1,2021-08-06 13:53:09,719050
0,1,-5,-10,-4,2,2,1,2021-08-06 13:53:09,719050
-2,-3,-2,-5,-3,-2,-4,-1,2021-08-06 13:53:09,719050
-3,-3,-2,-7,-2,0,-2,-3,2021-08-06 13:53:09,735038
-1,-2,0,5,2,1,0,-2,2021-08-06 13:53:09,735038
-2,-1,-1,1,-5,-4,-4,-1,2021-08-06 13:53:09,751041
-1,0,3,6,2,0,0,0,2021-08-06 13:53:09,751041
-2,0,-5,-7,-4,-3,-1,0,2021-08-06 13:53:09,751041
-1,0,-2,-5,-2,-1,0,-1,2021-08-06 13:53:09,751041
0,-1,2,3,0,0,-1,2,2021-08-06 13:53:09,767050
0,0,0,3,-2,0,0,1,2021-08-06 13:53:09,783050
-2,-1,-4,-5,-3,-2,-2,-1,2021-08-06 13:53:09,799038
0,1,-1,-4,5,3,-1,1,2021-08-06 13:53:09,799038
-3,-2,-4,-4,-6,-6,-2,-2,2021-08-06 13:53:09,799038
-3,-3,2,4,3,-1,-3,-2,2021-08-06 13:53:09,799038
-1,0,-1,3,0,-1,-1,2,2021-08-06 13:53:09,799038
1,2,8,5,1,2,0,0,2021-08-06 13:53:09,799038
2,1,-9,-4,3,2,0,1,2021-08-06 13:53:09,799038
-3,-3,-6,-9,-8,-5,-2,-3,2021-08-06 13:53:09,800038
0,-1,-2,-5,-5,-2,-3,-2,2021-08-06 13:53:09,800038
0,-1,0,-3,-3,-3,-1,-1,2021-08-06 13:53:09,800038
-1,-1,5,3,1,-1,1,0,2021-08-06 13:53:09,830038
-1,-1,0,1,-1,0,-1,-2,2021-08-06 13:53:09,830038
-2,-2,-3,-4,0,1,-1,-1,2021-08-06 13:53:09,830038
-1,0,1,1,3,2,3,0,2021-08-06 13:53:09,830038
-2,-3,-1,2,0,-1,0,-3,2021-08-06 13:53:09,846043
1,-1,-3,-5,-4,-2,-2,0,2021-08-06 13:53:09,846043
2,0,1,1,4,2,1,-1,2021-08-06 13:53:09,846043
-3,-2,-2,1,-7,-6,-5,-2,2021-08-06 13:53:09,846043
2,-1,2,-2,4,5,3,2,2021-08-06 13:53:09,862038
-1,0,7,2,-6,-2,0,-1,2021-08-06 13:53:09,862038
1,0,-12,-3,5,1,1,0,2021-08-06 13:53:09,862038
-3,-4,-1,-8,-10,-6,-5,-2,2021-08-06 13:53:09,877004
3,3,4,11,14,7,2,1,2021-08-06 13:53:09,892050
-2,-1,-2,-1,-7,-6,-3,-2,2021-08-06 13:53:09,892050
-2,-1,5,0,-2,-1,0,0,2021-08-06 13:53:09,892050
0,0,-6,-5,1,2,2,1,2021-08-06 13:53:09,892050
-3,-5,-9,-8,-11,-8,-5,-4,2021-08-06 13:53:09,908054
1,2,5,10,9,5,1,1,2021-08-06 13:53:09,908054
-3,-2,-2,-10,-4,-3,0,-4,2021-08-06 13:53:09,908054
-1,-2,1,0,-1,-2,-3,0,2021-08-06 13:53:09,908054
-3,-1,3,-3,-4,-3,-2,-2,2021-08-06 13:53:09,924039
2,1,0,8,10,5,3,2,2021-08-06 13:53:09,924039
-1,-3,1,1,-5,-4,-2,-1,2021-08-06 13:53:09,924039
-2,-1,-1,0,-1,0,0,-2,2021-08-06 13:53:09,924039
-2,-1,0,0,-3,-2,-1,-1,2021-08-06 13:53:09,955051
0,0,-3,-4,-3,-2,0,0,2021-08-06 13:53:09,955051
-2,-2,-3,-4,-5,-3,-2,0,2021-08-06 13:53:09,955051
0,-1,1,1,2,1,1,1,2021-08-06 13:53:09,955051
-2,-4,-2,-1,-3,-2,-2,-2,2021-08-06 13:53:09,970038
1,2,3,1,4,4,1,3,2021-08-06 13:53:09,970038
-1,0,1,0,0,1,0,0,2021-08-06 13:53:09,970038
-2,0,-1,2,0,-1,-3,-4,2021-08-06 13:53:09,970038
-2,0,-1,-7,-11,-6,-4,-2,2021-08-06 13:53:09,985042
0,2,0,1,8,3,1,1,2021-08-06 13:53:09,985042
-1,-1,0,1,-1,-1,-1,1,2021-08-06 13:53:09,985042
2,-1,-2,3,-1,-1,2,1,2021-08-06 13:53:09,985042
-1,-1,0,-4,-5,-2,-1,0,2021-08-06 13:53:10,015035
-3,-3,-4,-10,-5,-3,0,-2,2021-08-06 13:53:10,031037
-1,-1,-1,0,-2,-2,-1,-1,2021-08-06 13:53:10,063038
-1,0,-2,-1,3,2,0,0,2021-08-06 13:53:10,063038
1,1,1,3,0,0,1,-1,2021-08-06 13:53:10,063038
0,0,-1,4,2,1,-1,0,2021-08-06 13:53:10,063038
-3,-2,-1,-1,-2,-2,0,-2,2021-08-06 13:53:10,063038
0,-1,-1,1,-1,0,0,1,2021-08-06 13:53:10,063038
-3,-1,-3,2,4,0,-3,-2,2021-08-06 13:53:10,063038
2,1,2,2,0,0,1,-1,2021-08-06 13:53:10,064040
0,-2,-1,-4,-5,-4,-2,-4,2021-08-06 13:53:10,064040
1,2,1,-1,0,2,0,-1,2021-08-06 13:53:10,064040
2,1,1,4,6,3,3,2,2021-08-06 13:53:10,064040
-4,-4,-2,-3,-5,-2,-2,-3,2021-08-06 13:53:10,064040
-1,-2,-1,0,1,0,-3,-1,2021-08-06 13:53:10,064040
-2,-3,-3,-2,-7,-5,-4,-1,2021-08-06 13:53:10,064040
-1,-3,-1,-4,-4,-3,-2,-2,2021-08-06 13:53:10,094050
0,-1,-1,-1,1,2,1,-2,2021-08-06 13:53:10,094050
-1,-2,-2,-1,-1,-2,-1,-1,2021-08-06 13:53:10,094050
1,3,2,0,1,3,0,-1,2021-08-06 13:53:10,094050
-1,-2,-2,-2,-3,-1,-1,-1,2021-08-06 13:53:10,110039
-3,-4,-5,-3,-4,-4,-2,-1,2021-08-06 13:53:10,110039
1,-1,-2,-1,1,-1,-2,1,2021-08-06 13:53:10,110039
-2,-3,-2,-2,-2,-3,-2,-2,2021-08-06 13:53:10,110039
-1,-1,0,0,-2,-1,0,0,2021-08-06 13:53:10,126003
1,0,-1,-2,-3,-1,0,-1,2021-08-06 13:53:10,142004
-1,-2,-1,0,2,2,0,1,2021-08-06 13:53:10,142004
-2,-1,-2,-2,0,-1,0,-1,2021-08-06 13:53:10,142004
-1,0,-1,-1,0,-1,-2,0,2021-08-06 13:53:10,142004
0,0,-2,-1,-1,-1,-3,-1,2021-08-06 13:53:10,142004
-1,-2,-2,-1,1,0,1,0,2021-08-06 13:53:10,158002
-2,-1,-1,-1,-1,-2,0,-1,2021-08-06 13:53:10,174040
1,1,3,1,0,-1,0,-1,2021-08-06 13:53:10,190034
0,0,2,3,3,0,0,0,2021-08-06 13:53:10,206045
-1,1,-2,-2,-2,0,0,1,2021-08-06 13:53:10,222003
0,-2,-2,-4,-3,-3,-1,-1,2021-08-06 13:53:10,222003
-2,0,-3,-1,2,1,-1,-2,2021-08-06 13:53:10,222003
0,-3,-1,-1,-4,-3,-1,-1,2021-08-06 13:53:10,222003
-2,-2,-1,-1,-2,-2,-2,-2,2021-08-06 13:53:10,222003
2,1,2,2,2,1,0,0,2021-08-06 13:53:10,222003
-2,-1,-2,-3,-2,-2,-2,-1,2021-08-06 13:53:10,222003
-2,-2,-3,-3,-2,-2,-2,0,2021-08-06 13:53:10,223004
0,-1,-1,1,0,0,-1,-1,2021-08-06 13:53:10,223004
-1,-1,-2,-1,-3,-2,-2,-1,2021-08-06 13:53:10,223004
0,0,0,-1,-2,1,0,1,2021-08-06 13:53:10,223004
-2,-1,-1,2,5,3,0,-1,2021-08-06 13:53:10,223004
-1,-1,0,0,-1,0,-1,-2,2021-08-06 13:53:10,223004
-2,-2,-1,-1,0,-1,0,-1,2021-08-06 13:53:10,223004
-1,-1,0,-1,-1,-2,-1,0,2021-08-06 13:53:10,253051
1,2,0,-2,-2,-2,-1,0,2021-08-06 13:53:10,253051
-1,-3,-1,-2,-2,-1,0,0,2021-08-06 13:53:10,253051
1,1,1,2,0,1,1,0,2021-08-06 13:53:10,253051
-6,-6,-5,-2,-5,-2,-3,-4,2021-08-06 13:53:10,269051
-3,-2,-2,-1,-3,-2,-1,-1,2021-08-06 13:53:10,285038
2,5,1,-3,0,1,1,1,2021-08-06 13:53:10,301004
-2,0,-2,0,-2,-2,0,-1,2021-08-06 13:53:10,301004
1,-2,-2,-1,1,0,0,-1,2021-08-06 13:53:10,301004
-2,-1,-2,-4,-7,-4,-2,-3,2021-08-06 13:53:10,301004
-3,-3,-4,-9,-15,-9,-5,-2,2021-08-06 13:53:10,301004
2,2,3,10,16,9,4,4,2021-08-06 13:53:10,301004
1,1,2,3,7,2,2,2,2021-08-06 13:53:10,301004
-2,-2,-2,-2,-3,-2,-3,-3,2021-08-06 13:53:10,302039
-3,-2,-2,-1,-6,-3,-1,-2,2021-08-06 13:53:10,302039
-2,-2,-2,-5,-5,-5,-3,-2,2021-08-06 13:53:10,302039
-1,0,-1,0,-1,1,0,-1,2021-08-06 13:53:10,332038
1,0,-1,0,-3,-2,0,-1,2021-08-06 13:53:10,332038
-3,-3,-2,0,0,-1,-1,-2,2021-08-06 13:53:10,332038
-1,-1,-1,-1,-1,1,-1,-2,2021-08-06 13:53:10,332038
0,0,0,-1,0,-1,-1,0,2021-08-06 13:53:10,348037
-1,-1,1,0,0,0,-1,0,2021-08-06 13:53:10,348037
0,1,0,0,0,1,-1,-2,2021-08-06 13:53:10,348037
-1,-1,-1,0,-1,-1,-1,0,2021-08-06 13:53:10,348037
0,-1,-3,-2,0,0,1,0,2021-08-06 13:53:10,364038
0,0,0,0,2,2,1,2,2021-08-06 13:53:10,380038
1,-2,0,1,3,1,1,2,2021-08-06 13:53:10,396038
-1,-1,-3,-3,-2,-1,0,-2,2021-08-06 13:53:10,396038
-1,-1,-2,-4,-8,-4,-2,-2,2021-08-06 13:53:10,396038
-1,0,-1,-1,0,-1,-3,0,2021-08-06 13:53:10,396038
-1,1,-1,2,4,2,2,0,2021-08-06 13:53:10,396038
-1,-2,-2,-2,-6,-3,-1,-1,2021-08-06 13:53:10,396038
-2,0,0,-2,-3,-1,-2,-2,2021-08-06 13:53:10,396038
1,-1,0,-1,2,1,0,0,2021-08-06 13:53:10,397039
-2,-2,-1,-3,-9,-5,-4,-2,2021-08-06 13:53:10,426001
-1,-1,-1,-1,2,1,-1,-3,2021-08-06 13:53:10,426001
-1,2,3,6,8,4,2,1,2021-08-06 13:53:10,426001
0,-2,-1,-1,0,1,0,0,2021-08-06 13:53:10,426001
1,-1,-1,0,3,1,-1,-1,2021-08-06 13:53:10,426001
-1,-3,-3,-6,-8,-6,-3,-2,2021-08-06 13:53:10,427039
2,0,1,0,-3,-2,-2,0,2021-08-06 13:53:10,453003
0,1,-1,0,0,-1,0,-1,2021-08-06 13:53:10,453003
-3,0,0,-3,-3,-1,-2,-2,2021-08-06 13:53:10,453003
0,-2,-2,-2,-3,-1,-2,-1,2021-08-06 13:53:10,453003
0,-3,-1,-2,0,-1,-1,-2,2021-08-06 13:53:10,474039
2,-1,1,3,7,3,1,0,2021-08-06 13:53:10,474039
0,-1,-1,2,2,0,1,0,2021-08-06 13:53:10,474039
-3,0,-2,-4,-3,-1,-1,-1,2021-08-06 13:53:10,474039
-1,-1,-3,-7,-8,-5,-3,-2,2021-08-06 13:53:10,490033
-2,0,1,1,2,1,0,1,2021-08-06 13:53:10,490033
-1,1,-1,-2,-1,-1,0,1,2021-08-06 13:53:10,490033
-1,-3,0,3,6,3,0,-1,2021-08-06 13:53:10,490033
-3,0,0,-1,-3,-2,0,-1,2021-08-06 13:53:10,506039
-3,-2,-3,-5,-8,-5,-1,-1,2021-08-06 13:53:10,506039
2,0,0,3,3,0,1,-1,2021-08-06 13:53:10,506039
-3,-2,-2,-5,-10,-5,-3,-2,2021-08-06 13:53:10,506039
0,0,2,3,9,4,3,2,2021-08-06 13:53:10,522003
-2,0,-2,-1,-1,-2,-1,-2,2021-08-06 13:53:10,522003
-1,0,1,1,0,-1,1,-1,2021-08-06 13:53:10,538040
-1,-1,1,1,-2,-1,-1,-1,2021-08-06 13:53:10,538040
-2,-3,-3,1,3,0,-1,-2,2021-08-06 13:53:10,554050
-3,-5,-4,-1,-1,0,-2,-3,2021-08-06 13:53:10,570038
4,5,6,5,5,4,1,3,2021-08-06 13:53:10,586003
-3,0,-2,-2,-4,-3,-2,-1,2021-08-06 13:53:10,586003
-1,-1,-2,-1,-2,-1,-3,-2,2021-08-06 13:53:10,586003
-1,-2,-2,-3,-4,-2,-3,-1,2021-08-06 13:53:10,586003
-1,-2,-2,-3,-2,1,0,-3,2021-08-06 13:53:10,586003
1,0,0,-1,-2,-1,-2,0,2021-08-06 13:53:10,586003
0,0,-2,0,2,-1,1,-2,2021-08-06 13:53:10,587039
-2,-2,-2,-2,-3,-3,-2,1,2021-08-06 13:53:10,587039
-4,-2,-1,2,0,0,-1,-2,2021-08-06 13:53:10,601046
1,0,0,0,-2,0,0,0,2021-08-06 13:53:10,616052
-2,-2,-1,-3,-6,-4,-2,-3,2021-08-06 13:53:10,632004
1,2,1,1,1,1,3,0,2021-08-06 13:53:10,648001
0,-1,-2,-1,-1,0,-1,0,2021-08-06 13:53:10,664038
0,-2,-1,-1,1,0,-1,0,2021-08-06 13:53:10,664038
-3,-1,0,-1,-3,-1,-2,0,2021-08-06 13:53:10,664038
-1,0,0,-1,-2,-1,0,0,2021-08-06 13:53:10,664038
-1,-4,-5,-1,0,-3,-2,-2,2021-08-06 13:53:10,664038
-3,-2,-1,-2,0,0,0,-2,2021-08-06 13:53:10,664038
1,1,1,-1,-3,0,-1,1,2021-08-06 13:53:10,664038
-2,-1,-2,-1,-2,-2,-2,-2,2021-08-06 13:53:10,665020
-3,-4,-4,-3,-5,-3,-2,-2,2021-08-06 13:53:10,665020
2,4,2,1,1,0,1,0,2021-08-06 13:53:10,665020
1,1,2,0,3,0,-1,2,2021-08-06 13:53:10,665020
-1,-2,1,-1,-2,-2,0,-2,2021-08-06 13:53:10,665020
-1,-3,0,-1,1,0,-2,-2,2021-08-06 13:53:10,665020
-1,-3,-3,-2,-2,-3,-1,-2,2021-08-06 13:53:10,665020
-1,-2,-3,-1,-4,-2,0,-2,2021-08-06 13:53:10,695004
1,2,1,-1,-1,0,1,0,2021-08-06 13:53:10,711003
-1,0,-2,1,0,-1,1,0,2021-08-06 13:53:10,711003
-2,0,-1,1,1,2,-1,0,2021-08-06 13:53:10,711003
-1,-3,-2,-2,-3,-5,-2,-2,2021-08-06 13:53:10,711003
-1,0,-1,-1,0,-1,-1,0,2021-08-06 13:53:10,711003
2,0,1,1,2,1,2,0,2021-08-06 13:53:10,711003
0,0,-2,1,2,0,2,-1,2021-08-06 13:53:10,712038
-3,-4,-2,-2,-2,-1,0,-3,2021-08-06 13:53:10,727051
-3,-4,-3,-2,-5,-3,-1,-3,2021-08-06 13:53:10,727051
1,0,2,1,3,0,-4,0,2021-08-06 13:53:10,727051
-2,-2,-3,-1,1,-2,0,-2,2021-08-06 13:53:10,727051
-2,0,-2,1,2,1,-1,-1,2021-08-06 13:53:10,759038
1,1,0,-3,-2,-1,-2,0,2021-08-06 13:53:10,775040
-1,-1,-1,-4,-3,-2,-1,0,2021-08-06 13:53:10,791051
0,0,1,-1,1,-1,-2,0,2021-08-06 13:53:10,791051
-2,-1,-2,-2,-4,-3,-1,-2,2021-08-06 13:53:10,791051
-1,-2,-1,-1,3,2,1,0,2021-08-06 13:53:10,791051
-1,-3,-3,0,-3,-2,0,-2,2021-08-06 13:53:10,791051
1,-1,-1,-1,-1,0,0,0,2021-08-06 13:53:10,792001
-3,-4,-2,1,-1,-1,0,-1,2021-08-06 13:53:10,792001
3,4,3,1,-1,1,0,1,2021-08-06 13:53:10,792001
-1,0,-2,1,-1,1,0,0,2021-08-06 13:53:10,792001
-1,-1,-2,0,0,0,-1,-2,2021-08-06 13:53:10,792001
1,0,0,-1,0,1,-1,0,2021-08-06 13:53:10,807045
-1,-2,-2,-2,-2,-2,-2,-2,2021-08-06 13:53:10,807045
-1,-1,-1,0,-3,-2,-1,0,2021-08-06 13:53:10,807045
0,-1,0,-1,-2,1,-1,0,2021-08-06 13:53:10,807045
-1,-1,-2,1,1,0,-1,1,2021-08-06 13:53:10,823004
-2,-2,-3,-2,-4,-2,-2,-1,2021-08-06 13:53:10,823004
0,1,1,0,2,0,0,0,2021-08-06 13:53:10,833050
0,-1,0,4,4,1,0,-1,2021-08-06 13:53:10,833050
0,0,-1,-4,-2,-2,-2,-2,2021-08-06 13:53:10,855051
-2,-1,0,0,-1,0,-2,-2,2021-08-06 13:53:10,871040
-2,1,-2,-3,-4,-2,-1,-1,2021-08-06 13:53:10,887043
-2,0,3,0,0,-1,1,1,2021-08-06 13:53:10,887043
2,-2,-1,-1,-1,0,0,-1,2021-08-06 13:53:10,887043
-1,-1,-4,1,4,2,2,-2,2021-08-06 13:53:10,887043
-2,-3,-3,-1,0,-2,0,-1,2021-08-06 13:53:10,887043
-3,-2,-3,-2,-1,-1,-2,-3,2021-08-06 13:53:10,887043
-1,-1,0,-1,-2,0,-2,0,2021-08-06 13:53:10,888038
-4,-5,-3,-2,-3,-3,-4,-3,2021-08-06 13:53:10,888038
3,1,4,1,0,1,0,0,2021-08-06 13:53:10,888038
2,1,1,0,-3,-3,-2,0,2021-08-06 13:53:10,888038
-1,-1,-1,-2,-3,-2,1,-1,2021-08-06 13:53:10,918052
-1,-3,-3,-2,-4,-3,-1,-1,2021-08-06 13:53:10,934038
-1,2,1,2,3,3,3,1,2021-08-06 13:53:10,934038
-2,0,-2,-2,0,-1,0,-2,2021-08-06 13:53:10,934038
-1,0,-1,-1,-1,0,0,-1,2021-08-06 13:53:10,934038
-3,-2,0,-3,-4,-1,-2,-1,2021-08-06 13:53:10,934038
-2,-2,-2,1,-2,0,-1,-1,2021-08-06 13:53:10,934038
-2,-3,-2,-2,-1,-1,-1,-1,2021-08-06 13:53:10,934038
1,0,0,0,1,0,-3,1,2021-08-06 13:53:10,950039
-3,0,-1,0,1,-4,-2,-2,2021-08-06 13:53:10,950039
-1,-2,0,-2,-4,-2,-2,-2,2021-08-06 13:53:10,950039
-1,-2,-1,-2,-3,0,-3,-1,2021-08-06 13:53:10,950039
1,2,3,4,6,3,1,1,2021-08-06 13:53:10,966050
-1,0,-1,-1,0,0,0,0,2021-08-06 13:53:10,982002
-1,1,-1,1,3,1,1,0,2021-08-06 13:53:10,982002
-1,-3,-3,-4,-4,-4,-2,-1,2021-08-06 13:53:10,982002
-2,-1,-3,-1,-4,-4,0,-1,2021-08-06 13:53:10,982002
0,0,1,2,-1,0,0,0,2021-08-06 13:53:10,982002
-2,-1,-3,-5,-3,-2,-2,-2,2021-08-06 13:53:10,998000
-2,-1,1,-2,-3,-2,0,0,2021-08-06 13:53:11,014038
-1,-1,-3,-3,-2,-2,-2,-2,2021-08-06 13:53:11,030039
2,0,-1,1,3,1,1,1,2021-08-06 13:53:11,046039
-1,-4,-2,-2,-1,-2,-3,-3,2021-08-06 13:53:11,046039
1,-1,0,1,-1,-1,2,0,2021-08-06 13:53:11,046039
-1,-1,0,0,2,2,0,1,2021-08-06 13:53:11,046039
2,2,1,-1,-2,1,0,0,2021-08-06 13:53:11,046039
-3,-3,-3,-3,-1,-1,-3,-2,2021-08-06 13:53:11,046039
1,0,2,0,0,0,-1,0,2021-08-06 13:53:11,046039
-3,-3,-2,-3,-4,-3,0,-1,2021-08-06 13:53:11,046039
0,-2,-1,-1,-1,0,-2,-1,2021-08-06 13:53:11,046039
2,1,0,2,3,2,1,2,2021-08-06 13:53:11,046039
-3,-2,-1,-2,-2,-1,-3,0,2021-08-06 13:53:11,046039
0,-1,1,1,1,-1,-1,-1,2021-08-06 13:53:11,078002
-2,-1,0,-2,-2,-2,0,0,2021-08-06 13:53:11,078002
-3,-1,-3,-1,-1,-2,0,-2,2021-08-06 13:53:11,078002
1,-1,-2,-1,-1,-2,-1,-2,2021-08-06 13:53:11,078002
-1,-1,-1,-3,-7,-3,-3,-2,2021-08-06 13:53:11,078002
0,-1,0,-1,2,1,-1,0,2021-08-06 13:53:11,078002
1,1,1,0,-1,-1,0,0,2021-08-06 13:53:11,094001
0,-1,-3,-1,3,5,6,1,2021-08-06 13:53:11,094001
1,0,1,2,2,3,1,-3,2021-08-06 13:53:11,110038
-2,0,-1,2,0,-10,-8,-3,2021-08-06 13:53:11,125003
-1,-2,-2,-3,-4,-2,-3,-2,2021-08-06 13:53:11,125003
-3,-1,-2,-3,-3,-4,-4,-2,2021-08-06 13:53:11,125003
-1,-2,-2,-1,2,3,3,0,2021-08-06 13:53:11,125003
-1,-2,-2,0,-1,2,0,-1,2021-08-06 13:53:11,125003
0,2,1,1,-1,1,0,0,2021-08-06 13:53:11,125003
0,0,-1,1,6,1,2,0,2021-08-06 13:53:11,125003
0,-1,-2,-2,-2,-1,0,-1,2021-08-06 13:53:11,156039
-1,0,-1,-2,-2,-2,-4,-4,2021-08-06 13:53:11,172041
0,-2,-3,-2,0,-3,-2,-1,2021-08-06 13:53:11,188042
-1,-2,-2,-2,-5,-1,-2,-1,2021-08-06 13:53:11,188042
-2,0,-1,2,2,0,-1,-1,2021-08-06 13:53:11,188042
-1,-2,-1,1,-1,1,2,1,2021-08-06 13:53:11,188042
-1,2,2,-1,-3,-2,1,-3,2021-08-06 13:53:11,188042
0,-1,-2,0,0,-1,-2,-1,2021-08-06 13:53:11,188042
-1,-6,-5,-2,-3,-3,-1,-2,2021-08-06 13:53:11,188042
-1,-1,1,-1,-2,-1,0,0,2021-08-06 13:53:11,188042
-1,-1,0,-1,0,1,-3,1,2021-08-06 13:53:11,188042
-1,0,0,-1,-2,-3,-2,-2,2021-08-06 13:53:11,188042
-2,0,1,2,1,-2,0,0,2021-08-06 13:53:11,204051
-1,-2,-2,0,-1,0,1,0,2021-08-06 13:53:11,204051
0,-2,0,0,1,-2,1,-1,2021-08-06 13:53:11,213038
-1,0,-1,0,-1,-2,-3,-1,2021-08-06 13:53:11,213038
-3,-1,-3,-4,-8,-4,-4,0,2021-08-06 13:53:11,236003
-3,-1,-1,2,5,3,0,-2,2021-08-06 13:53:11,236003
0,0,1,3,4,2,0,-2,2021-08-06 13:53:11,236003
-1,-1,-2,0,-2,0,-1,0,2021-08-06 13:53:11,236003
0,0,0,0,-2,-1,-1,0,2021-08-06 13:53:11,251053
-1,0,-1,-3,-5,-2,0,-2,2021-08-06 13:53:11,267050
-2,-2,-2,-2,-1,1,-1,0,2021-08-06 13:53:11,267050
0,-1,-2,-5,-4,0,-2,-1,2021-08-06 13:53:11,267050
0,0,1,4,5,1,0,-1,2021-08-06 13:53:11,267050
0,0,-3,-2,-2,-1,-1,-1,2021-08-06 13:53:11,267050
0,-1,-2,-1,-1,-3,-1,-1,2021-08-06 13:53:11,267050
-1,-3,0,-2,-2,-1,-1,-1,2021-08-06 13:53:11,267050
-2,0,0,-2,-3,-2,-2,0,2021-08-06 13:53:11,298041
0,0,-1,-2,-3,0,0,-2,2021-08-06 13:53:11,298041
-1,-1,-2,-1,-1,1,0,1,2021-08-06 13:53:11,298041
-2,-1,-2,2,1,0,0,-1,2021-08-06 13:53:11,298041
0,1,-1,-4,-3,-2,0,0,2021-08-06 13:53:11,314051
-1,-1,0,1,5,1,0,-1,2021-08-06 13:53:11,330040
-1,-4,0,0,-3,-3,-2,-1,2021-08-06 13:53:11,346041
0,0,0,1,0,0,0,-1,2021-08-06 13:53:11,346041
-1,1,0,-1,0,1,1,0,2021-08-06 13:53:11,346041
0,-1,-1,-4,-6,-2,-1,0,2021-08-06 13:53:11,346041
-3,-2,-2,-3,-5,-2,-2,-4,2021-08-06 13:53:11,346041
-2,-2,-3,-3,-3,-2,-1,-2,2021-08-06 13:53:11,346041
3,2,1,1,4,4,1,1,2021-08-06 13:53:11,346041
0,-1,0,1,0,0,0,0,2021-08-06 13:53:11,347003
-2,-1,0,0,0,0,0,0,2021-08-06 13:53:11,347003
-1,-2,-3,0,0,-1,-1,-1,2021-08-06 13:53:11,347003
-3,-3,-3,-5,-7,-4,-3,-4,2021-08-06 13:53:11,378051
1,0,1,2,1,1,1,0,2021-08-06 13:53:11,378051
0,-2,-2,-1,-3,-1,-1,0,2021-08-06 13:53:11,378051
0,-1,0,0,-3,-1,0,-1,2021-08-06 13:53:11,378051
2,-1,-1,-1,0,1,-2,-1,2021-08-06 13:53:11,378051
-3,-3,-3,-2,-1,0,0,0,2021-08-06 13:53:11,378051
0,1,-1,-2,-1,-3,-3,0,2021-08-06 13:53:11,393003
-1,-1,1,-1,2,2,-1,0,2021-08-06 13:53:11,393003
-1,-1,-1,-1,0,-1,-4,-1,2021-08-06 13:53:11,408053
-1,-2,-2,0,-2,-3,-2,0,2021-08-06 13:53:11,408053
0,-1,-2,-3,-3,-1,0,1,2021-08-06 13:53:11,408053
1,0,1,1,0,-1,-1,-3,2021-08-06 13:53:11,408053
0,-2,0,-2,-2,-1,-1,-1,2021-08-06 13:53:11,440031
-2,1,-1,-1,0,0,-2,1,2021-08-06 13:53:11,440031
-1,0,-2,0,0,1,1,0,2021-08-06 13:53:11,440031
1,-2,-2,0,0,-2,0,-1,2021-08-06 13:53:11,440031
-2,-3,-3,-1,-3,-3,-1,-1,2021-08-06 13:53:11,456001
2,2,0,-1,-1,-1,0,0,2021-08-06 13:53:11,456001
0,-1,-1,0,-1,-2,-2,0,2021-08-06 13:53:11,456001
2,0,1,0,1,1,0,-1,2021-08-06 13:53:11,456001
-3,-1,-2,-2,-2,-1,0,-1,2021-08-06 13:53:11,472035
-3,-2,-1,0,-1,-1,-1,-1,2021-08-06 13:53:11,472035
-1,-2,-1,0,0,-1,0,-3,2021-08-06 13:53:11,472035
-2,-2,-1,0,-2,0,-3,-1,2021-08-06 13:53:11,472035
1,1,0,2,0,-2,0,0,2021-08-06 13:53:11,488041
-1,-2,0,0,-3,-1,0,-1,2021-08-06 13:53:11,488041
-1,-1,0,-1,-1,0,0,0,2021-08-06 13:53:11,488041
-3,-1,-4,-3,-2,-2,-2,0,2021-08-06 13:53:11,488041
0,-1,-1,-1,1,1,-1,-3,2021-08-06 13:53:11,520037
-1,0,0,0,0,0,-2,-2,2021-08-06 13:53:11,520037
-1,0,1,3,6,2,0,-1,2021-08-06 13:53:11,520037
1,0,0,-1,0,0,0,0,2021-08-06 13:53:11,520037
-1,-1,-1,1,-1,0,-1,0,2021-08-06 13:53:11,520037
-1,-2,-3,-3,-1,-1,0,-1,2021-08-06 13:53:11,520037
-1,-1,1,0,0,0,-2,-1,2021-08-06 13:53:11,536003
-3,-1,-2,-4,-8,-5,-3,-3,2021-08-06 13:53:11,552051
0,-1,0,-4,0,-1,0,0,2021-08-06 13:53:11,552051
0,0,-3,-2,-1,-3,-2,-1,2021-08-06 13:53:11,552051
-1,-1,-1,0,-1,0,1,0,2021-08-06 13:53:11,552051
-1,1,1,3,3,1,1,0,2021-08-06 13:53:11,552051
0,1,0,2,-1,-2,0,-1,2021-08-06 13:53:11,582041
0,-2,0,0,1,-1,0,-1,2021-08-06 13:53:11,582041
0,-1,0,-1,0,-1,-1,0,2021-08-06 13:53:11,583003
-1,-1,0,1,0,-2,1,0,2021-08-06 13:53:11,583003
-1,1,0,-1,-1,0,0,0,2021-08-06 13:53:11,583003
0,0,0,-1,0,0,0,1,2021-08-06 13:53:11,583003
-1,-2,0,-3,-5,-1,-1,0,2021-08-06 13:53:11,583003
-1,-1,-1,2,4,3,-1,0,2021-08-06 13:53:11,583003
0,-1,-1,1,1,-1,-1,-1,2021-08-06 13:53:11,616000
0,0,-2,-1,-3,-1,-1,-2,2021-08-06 13:53:11,616000
-1,0,-2,0,-2,-3,-1,0,2021-08-06 13:53:11,616000
-1,0,-1,-1,0,1,0,-1,2021-08-06 13:53:11,616000
-2,1,0,0,0,0,-1,-1,2021-08-06 13:53:11,632040
-2,0,-1,-1,-2,-3,-4,-1,2021-08-06 13:53:11,632040
-1,-1,-2,-3,-2,-1,-2,-2,2021-08-06 13:53:11,632040
-1,0,-1,-1,0,0,-2,-1,2021-08-06 13:53:11,632040
-1,-1,-1,-1,-2,0,-2,-3,2021-08-06 13:53:11,648003
-1,-3,0,-2,-1,-1,0,0,2021-08-06 13:53:11,648003
-2,0,-3,0,0,-2,-2,-1,2021-08-06 13:53:11,648003
-1,-1,1,-1,-1,-1,0,-1,2021-08-06 13:53:11,648003
-2,-2,-3,-1,-2,-2,-1,-1,2021-08-06 13:53:11,679052
-2,1,0,-1,-1,-1,-1,0,2021-08-06 13:53:11,679052
0,0,1,1,0,0,-2,-2,2021-08-06 13:53:11,679052
2,-1,1,-1,-1,-1,-1,-1,2021-08-06 13:53:11,679052
-1,-1,-3,-4,-5,-3,-3,-1,2021-08-06 13:53:11,695040
0,0,-1,1,-1,1,-1,0,2021-08-06 13:53:11,710043
-2,-2,-1,-4,1,-1,0,-1,2021-08-06 13:53:11,726053
-2,0,0,1,2,-1,-2,-1,2021-08-06 13:53:11,726053
0,-1,-1,-2,0,0,-1,0,2021-08-06 13:53:11,726053
-1,-3,-1,1,-2,-3,-3,-2,2021-08-06 13:53:11,726053
-2,-1,-1,-1,-4,-1,-2,-1,2021-08-06 13:53:11,726053
-1,0,0,-1,-2,-2,0,0,2021-08-06 13:53:11,726053
-1,-2,-2,-2,-3,-2,-1,-1,2021-08-06 13:53:11,727005
-1,0,-2,-3,-5,-1,-2,-2,2021-08-06 13:53:11,727005
0,-2,-3,2,2,0,1,0,2021-08-06 13:53:11,727005
-1,-2,-1,-1,1,-2,-1,-2,2021-08-06 13:53:11,727005
0,3,2,1,2,1,1,1,2021-08-06 13:53:11,742045
0,-1,-2,-3,-2,-2,0,0,2021-08-06 13:53:11,742045
1,-1,0,-1,-2,-2,-1,-1,2021-08-06 13:53:11,758002
-2,0,-1,-2,-2,-1,0,0,2021-08-06 13:53:11,774039
0,-1,-1,1,0,-1,-2,-1,2021-08-06 13:53:11,789002
1,-1,-1,-1,-2,0,0,0,2021-08-06 13:53:11,789002
0,0,0,-1,0,0,1,-1,2021-08-06 13:53:11,789002
-2,-1,-3,-2,-1,-1,1,1,2021-08-06 13:53:11,789002
-1,0,0,-1,0,0,-2,1,2021-08-06 13:53:11,789002
-2,-2,0,0,1,-2,-2,1,2021-08-06 13:53:11,789002
-1,-1,-1,-2,-1,0,1,0,2021-08-06 13:53:11,790001
-1,-1,-2,-1,-2,0,-1,0,2021-08-06 13:53:11,790001
-1,-3,-2,-1,0,1,2,0,2021-08-06 13:53:11,820038
1,1,2,2,3,1,1,0,2021-08-06 13:53:11,835041
-2,-1,-1,0,-1,-2,-3,-2,2021-08-06 13:53:11,851041
-3,0,0,2,0,0,-3,-4,2021-08-06 13:53:11,866039
-1,-1,0,0,-2,-3,-4,-2,2021-08-06 13:53:11,881003
-1,-1,0,1,-2,-2,0,0,2021-08-06 13:53:11,881003
1,1,-1,-1,3,1,1,-1,2021-08-06 13:53:11,881003
-1,-3,-4,-5,-5,-4,-2,-2,2021-08-06 13:53:11,881003
2,1,0,0,3,2,1,0,2021-08-06 13:53:11,881003
0,-1,1,2,4,2,2,-2,2021-08-06 13:53:11,881003
-1,-1,-2,-1,-2,-1,-1,0,2021-08-06 13:53:11,881003
0,0,-1,-1,-1,0,-2,0,2021-08-06 13:53:11,881003
-1,-2,-2,-3,-6,-2,0,-2,2021-08-06 13:53:11,882038
-1,0,-1,-1,-1,-1,-2,-1,2021-08-06 13:53:11,882038
0,-2,-1,0,-1,-1,-1,0,2021-08-06 13:53:11,882038
0,-1,0,0,0,0,0,-1,2021-08-06 13:53:11,882038
-1,-1,1,0,0,-2,-1,0,2021-08-06 13:53:11,882038
-2,-2,-1,-2,-1,0,0,-2,2021-08-06 13:53:11,897038
-2,-2,-2,-2,-2,-1,-1,-1,2021-08-06 13:53:11,913047
2,0,1,1,0,-1,-1,1,2021-08-06 13:53:11,913047
0,1,-2,-1,-2,1,1,1,2021-08-06 13:53:11,913047
-1,1,-2,2,2,2,0,0,2021-08-06 13:53:11,913047
-1,0,-2,-1,-2,-4,-5,-2,2021-08-06 13:53:11,913047
-2,-2,1,0,-1,-2,-2,-1,2021-08-06 13:53:11,913047
-2,-1,-4,-2,-2,-3,-2,-3,2021-08-06 13:53:11,943038
-1,-3,-3,-5,-4,-1,-1,0,2021-08-06 13:53:11,943038
0,1,-1,-2,-1,1,0,0,2021-08-06 13:53:11,943038
0,-1,-2,-3,-2,-1,-1,0,2021-08-06 13:53:11,943038
-1,-2,0,3,4,2,-1,0,2021-08-06 13:53:11,943038
0,0,-1,0,1,0,-1,1,2021-08-06 13:53:11,943038
-2,-1,-2,0,-3,0,-1,-1,2021-08-06 13:53:11,943038
-1,0,-1,-1,2,1,-1,-1,2021-08-06 13:53:11,943038
-1,-1,-1,-3,-3,-2,-2,-1,2021-08-06 13:53:11,991003
-1,-1,-1,0,0,-1,0,0,2021-08-06 13:53:12,007001
0,0,-1,1,-4,-2,-1,0,2021-08-06 13:53:12,023004
-2,-1,-2,-3,-3,-3,0,-2,2021-08-06 13:53:12,039004
0,-1,-2,-1,-3,-4,-1,-1,2021-08-06 13:53:12,054038
1,3,2,3,4,3,1,0,2021-08-06 13:53:12,054038
-1,-1,1,0,-1,1,0,-1,2021-08-06 13:53:12,054038
-1,-1,-1,0,0,0,-1,-1,2021-08-06 13:53:12,054038
-2,-2,-1,0,2,0,-1,0,2021-08-06 13:53:12,054038
-1,-2,-2,-3,-4,-2,-1,-1,2021-08-06 13:53:12,054038
0,-1,0,-1,0,1,-1,-1,2021-08-06 13:53:12,054038
0,-2,-2,-1,-1,-1,0,-2,2021-08-06 13:53:12,054038
-2,0,0,-3,-4,-2,-2,-2,2021-08-06 13:53:12,070038
2,0,3,7,9,4,2,-1,2021-08-06 13:53:12,070038
0,-1,0,-1,0,1,-1,0,2021-08-06 13:53:12,070038
-1,-1,-1,-1,-2,0,-2,-1,2021-08-06 13:53:12,070038
-2,0,-4,-4,-3,-1,0,1,2021-08-06 13:53:12,070038
0,1,-2,-2,-5,-3,-2,-2,2021-08-06 13:53:12,070038
-2,-3,-1,0,-1,-1,-2,-1,2021-08-06 13:53:12,070038
0,-2,0,-4,-7,-3,0,1,2021-08-06 13:53:12,070038
-2,-1,3,6,7,3,2,1,2021-08-06 13:53:12,071042
-3,-3,-3,-3,-1,-3,-2,-1,2021-08-06 13:53:12,071042
-2,-1,0,-1,1,-2,0,-1,2021-08-06 13:53:12,071042
-2,0,-2,-3,-5,-4,-1,-1,2021-08-06 13:53:12,071042
-1,-1,0,-1,-2,0,-3,-3,2021-08-06 13:53:12,102053
0,0,0,-4,-2,-2,0,-1,2021-08-06 13:53:12,118051
-1,-1,0,-1,-1,-1,0,1,2021-08-06 13:53:12,134038
0,-3,-1,2,0,1,0,0,2021-08-06 13:53:12,150004
1,-1,0,-1,0,-2,-2,-1,2021-08-06 13:53:12,150004
-2,-3,-3,-1,-4,-4,-3,-2,2021-08-06 13:53:12,150004
-1,1,1,-1,-1,-1,-1,-1,2021-08-06 13:53:12,150004
1,3,2,-1,2,3,-1,1,2021-08-06 13:53:12,150004
-1,-3,-2,0,0,-2,-1,1,2021-08-06 13:53:12,150004
-2,-3,-3,-4,-7,-3,-3,-1,2021-08-06 13:53:12,150004
-1,0,-4,-3,-1,-1,-1,-3,2021-08-06 13:53:12,151042
0,0,2,1,2,0,0,-1,2021-08-06 13:53:12,151042
0,1,0,-1,-2,-1,1,-2,2021-08-06 13:53:12,151042
-2,0,-2,0,0,-1,0,-1,2021-08-06 13:53:12,151042
-1,0,0,0,-3,-1,-1,-2,2021-08-06 13:53:12,151042
0,-1,-1,1,2,1,-2,-1,2021-08-06 13:53:12,151042
-1,-1,-2,-1,-1,1,-1,0,2021-08-06 13:53:12,181003
0,-1,-1,-1,-3,-1,-3,-1,2021-08-06 13:53:12,181003
1,0,-2,-1,-1,-1,0,-1,2021-08-06 13:53:12,181003
-1,-1,-1,-1,2,-1,0,0,2021-08-06 13:53:12,181003
-1,-1,0,-3,-4,-2,-1,-1,2021-08-06 13:53:12,181003
1,0,0,2,4,2,2,0,2021-08-06 13:53:12,181003
0,-2,-1,-2,-2,-3,-2,0,2021-08-06 13:53:12,181003
-2,-2,-2,-2,0,0,0,-1,2021-08-06 13:53:12,181003
-1,-2,-2,-1,0,0,-1,-1,2021-08-06 13:53:12,213038
-2,-2,-3,-5,-5,-2,-1,0,2021-08-06 13:53:12,213038
0,0,0,2,6,1,0,1,2021-08-06 13:53:12,213038
0,1,0,0,-2,0,-1,0,2021-08-06 13:53:12,213038
0,-1,0,0,1,0,0,-1,2021-08-06 13:53:12,245038
-1,-1,0,-3,-3,-4,-3,-1,2021-08-06 13:53:12,261003
-1,0,-1,0,1,1,0,-1,2021-08-06 13:53:12,276004
-1,0,1,0,1,1,-1,-1,2021-08-06 13:53:12,276004
-1,-1,-2,-1,-1,0,0,-1,2021-08-06 13:53:12,276004
-3,-4,-5,-5,-6,-4,-2,-1,2021-08-06 13:53:12,276004
-1,0,0,-1,-1,-1,0,-1,2021-08-06 13:53:12,276004
0,0,-1,-1,1,0,0,0,2021-08-06 13:53:12,276004
0,-2,-1,3,1,-1,-1,-2,2021-08-06 13:53:12,276004
-1,-1,0,3,2,2,1,-1,2021-08-06 13:53:12,277039
-1,0,-1,-2,-2,-3,-1,0,2021-08-06 13:53:12,277039
-3,-4,-3,-6,-8,-5,-1,-2,2021-08-06 13:53:12,277039
-2,-2,-1,0,0,0,-2,-1,2021-08-06 13:53:12,292002
-1,1,0,0,0,1,-1,-1,2021-08-06 13:53:12,308043
0,-3,0,0,-4,-1,-2,-2,2021-08-06 13:53:12,324004
0,0,-3,0,-1,0,0,0,2021-08-06 13:53:12,330004
0,1,0,0,-2,-3,-2,-1,2021-08-06 13:53:12,331011
-1,-2,0,1,0,-1,-1,-2,2021-08-06 13:53:12,331011
-1,1,0,-2,-1,1,0,-1,2021-08-06 13:53:12,331011
-1,0,1,0,1,-2,-1,-1,2021-08-06 13:53:12,331011
-2,-1,-1,-2,-2,-1,-2,-2,2021-08-06 13:53:12,331011
1,2,0,-1,2,0,-1,0,2021-08-06 13:53:12,331011
0,0,-1,1,0,1,0,1,2021-08-06 13:53:12,331011
-2,-2,0,0,-2,-2,-2,-2,2021-08-06 13:53:12,332038
-2,-2,-2,-1,0,-2,0,-1,2021-08-06 13:53:12,356057
0,1,1,-1,0,-3,-2,-2,2021-08-06 13:53:12,356057
1,-1,1,-2,-4,-3,-1,-1,2021-08-06 13:53:12,356057
0,-1,0,-4,-1,0,-1,-1,2021-08-06 13:53:12,356057
0,0,0,3,3,1,0,-1,2021-08-06 13:53:12,372038
0,-1,-2,-1,-2,0,0,-2,2021-08-06 13:53:12,388044
-2,-2,-2,-1,-4,-2,-1,-2,2021-08-06 13:53:12,388044
-1,0,-1,2,3,1,1,0,2021-08-06 13:53:12,388044
-1,-2,-1,-2,-3,-1,0,1,2021-08-06 13:53:12,388044
0,-1,0,0,0,-1,-1,-1,2021-08-06 13:53:12,388044
0,-1,-1,-3,0,-1,-1,1,2021-08-06 13:53:12,388044
-1,0,-2,1,0,1,-2,-3,2021-08-06 13:53:12,388044
1,-2,-2,-3,-1,1,-1,1,2021-08-06 13:53:12,420004
0,-1,0,0,0,-1,0,1,2021-08-06 13:53:12,436003
0,-2,1,-1,0,-1,-3,0,2021-08-06 13:53:12,452050
-1,-1,1,0,1,0,-1,-1,2021-08-06 13:53:12,468049
0,1,-1,0,-2,-1,0,-1,2021-08-06 13:53:12,484038
-1,-2,-2,-2,-4,0,-3,-2,2021-08-06 13:53:12,484038
0,-2,0,0,1,-1,-1,1,2021-08-06 13:53:12,484038
-1,-2,-2,0,0,-2,0,-1,2021-08-06 13:53:12,484038
-1,0,1,-1,0,-3,0,-1,2021-08-06 13:53:12,484038
-1,0,0,0,-1,0,-1,1,2021-08-06 13:53:12,484038
-1,-1,-1,1,1,0,-1,-1,2021-08-06 13:53:12,484038
-1,-1,-1,0,-1,-2,-1,-1,2021-08-06 13:53:12,484038
-2,-2,0,-1,0,-1,0,-2,2021-08-06 13:53:12,484038
0,-2,-2,0,-1,-1,0,-2,2021-08-06 13:53:12,484038
-2,-2,-1,-1,2,0,-1,-1,2021-08-06 13:53:12,484038
1,0,-1,0,-2,0,-1,-1,2021-08-06 13:53:12,484038
0,1,0,-1,-2,0,0,-1,2021-08-06 13:53:12,485041
-2,-1,-1,-1,0,0,0,0,2021-08-06 13:53:12,485041
-2,-1,-1,0,-2,0,-1,-1,2021-08-06 13:53:12,499038
-2,-1,-1,0,-1,-1,-1,0,2021-08-06 13:53:12,499038
-1,-1,-2,-1,-3,-1,-2,-1,2021-08-06 13:53:12,514051
-1,0,-2,-2,1,0,-1,0,2021-08-06 13:53:12,514051
0,-1,-3,-1,-2,-3,-1,-2,2021-08-06 13:53:12,514051
-1,0,-2,-2,0,0,-1,0,2021-08-06 13:53:12,514051
0,0,-1,0,0,0,0,-1,2021-08-06 13:53:12,546041
-2,-2,0,1,-2,-1,-1,-1,2021-08-06 13:53:12,562041
-1,0,-2,-1,-2,1,-1,-1,2021-08-06 13:53:12,578050
1,0,1,1,1,-1,-1,2,2021-08-06 13:53:12,578050
-1,-1,-3,0,-1,0,0,-1,2021-08-06 13:53:12,578050
0,-1,-1,-1,1,-1,1,0,2021-08-06 13:53:12,578050
-1,0,-1,1,0,-1,0,-1,2021-08-06 13:53:12,578514
-1,-1,1,0,-3,0,0,-1,2021-08-06 13:53:12,578514
-1,-1,-1,-1,-3,-1,-1,1,2021-08-06 13:53:12,578514
-1,0,-2,-2,-2,-2,0,-1,2021-08-06 13:53:12,578514
0,0,0,-2,-1,-1,-1,1,2021-08-06 13:53:12,579039
-2,-1,-2,-2,-1,-1,-1,-3,2021-08-06 13:53:12,579039
-2,-1,-1,-2,-1,0,-1,0,2021-08-06 13:53:12,593225
-2,-1,-1,0,-2,0,-1,0,2021-08-06 13:53:12,593225
-1,-2,0,-1,0,0,-2,-1,2021-08-06 13:53:12,593225
0,-1,-1,-1,-1,0,0,-1,2021-08-06 13:53:12,593225
-1,1,-2,-1,-2,-2,0,0,2021-08-06 13:53:12,609199
-1,-2,-1,-2,-1,-2,-2,-1,2021-08-06 13:53:12,609199
0,0,-1,-1,-1,-1,0,0,2021-08-06 13:53:12,609199
-1,-2,-1,0,-1,-1,-1,1,2021-08-06 13:53:12,609199
-2,-1,-1,-1,0,1,-1,0,2021-08-06 13:53:12,641221
-2,-1,0,-1,-2,-1,0,-1,2021-08-06 13:53:12,641221
-2,-2,-1,-2,-1,-1,0,-2,2021-08-06 13:53:12,641221
0,0,-1,-1,-2,-1,-1,-1,2021-08-06 13:53:12,641221
1,-1,-2,-1,0,0,-2,0,2021-08-06 13:53:12,657208
-1,-1,-2,-1,0,-1,-1,1,2021-08-06 13:53:12,673211
-2,-1,-3,1,0,1,0,-2,2021-08-06 13:53:12,689208
-2,-2,-1,0,0,0,-1,-1,2021-08-06 13:53:12,705210
-2,-2,1,-1,0,0,-3,-1,2021-08-06 13:53:12,705210
-1,-1,1,1,1,0,-1,-4,2021-08-06 13:53:12,705210
0,0,-1,-1,0,-2,-1,-2,2021-08-06 13:53:12,705210
0,-1,0,-1,-1,-3,-2,-1,2021-08-06 13:53:12,705210
1,0,0,-1,0,-2,-1,-2,2021-08-06 13:53:12,705210
-1,0,-1,0,0,0,-1,0,2021-08-06 13:53:12,705210
1,0,-1,-2,-1,-1,2,0,2021-08-06 13:53:12,706174
-1,0,-3,-2,-2,-2,0,1,2021-08-06 13:53:12,706174
0,0,-3,-3,-3,-2,-1,-2,2021-08-06 13:53:12,706174
0,-1,0,1,1,-1,-2,-1,2021-08-06 13:53:12,706174
-1,0,-2,-1,-1,-1,0,-2,2021-08-06 13:53:12,707210
-1,-1,0,0,-1,-2,-1,-1,2021-08-06 13:53:12,707210
-1,0,0,-1,-2,-1,-1,-1,2021-08-06 13:53:12,736209
-1,-2,-2,-2,-3,-2,-1,1,2021-08-06 13:53:12,736209
0,-1,-1,-2,-3,-2,-2,-1,2021-08-06 13:53:12,736209
0,-1,-1,2,4,1,-1,0,2021-08-06 13:53:12,736209
-2,-2,-2,0,1,0,-2,-1,2021-08-06 13:53:12,752214
3,2,-1,0,0,1,-1,-1,2021-08-06 13:53:12,768221
-1,0,-1,1,0,-1,-1,2,2021-08-06 13:53:12,768221
1,-2,-3,-2,-4,-1,-1,-1,2021-08-06 13:53:12,768221
-1,-1,-2,0,1,-1,1,-1,2021-08-06 13:53:12,768221
-2,-1,-1,0,2,1,0,0,2021-08-06 13:53:12,768221
0,-1,-1,-2,-3,0,-1,-2,2021-08-06 13:53:12,768221
0,0,-2,0,-3,-1,-1,-2,2021-08-06 13:53:12,768221
0,-2,-1,-2,-1,-2,0,-1,2021-08-06 13:53:12,798208
0,0,-2,-2,-3,-2,0,-1,2021-08-06 13:53:12,813571
0,0,-1,1,0,-1,0,0,2021-08-06 13:53:12,813571
-1,-1,0,-1,-1,0,-2,0,2021-08-06 13:53:12,813571
0,0,1,1,0,0,-2,-1,2021-08-06 13:53:12,813571
-1,-1,0,-1,-2,0,-3,-1,2021-08-06 13:53:12,813571
-1,0,2,0,-1,-1,-1,0,2021-08-06 13:53:12,813571
0,0,-1,0,1,1,0,0,2021-08-06 13:53:12,813571
1,-1,0,0,0,0,0,1,2021-08-06 13:53:12,845534
0,-2,-1,-3,-2,-3,-2,0,2021-08-06 13:53:12,861571
-1,-1,-1,-1,0,0,-1,-1,2021-08-06 13:53:12,877534
-2,0,0,1,-3,-3,-2,-1,2021-08-06 13:53:12,877534
-1,0,-1,-1,0,-1,-1,0,2021-08-06 13:53:12,877534
-1,-2,-3,-2,-3,-3,0,-2,2021-08-06 13:53:12,877534
-1,-2,-2,-1,-1,2,-2,-2,2021-08-06 13:53:12,877534
0,-1,-1,-1,-4,-3,0,0,2021-08-06 13:53:12,877534
0,-1,0,0,-1,-3,-1,-3,2021-08-06 13:53:12,877534
-1,-2,-4,-1,1,-2,-2,-2,2021-08-06 13:53:12,877534
0,-1,-3,-2,-2,-3,0,0,2021-08-06 13:53:12,877534
1,-1,0,1,2,1,0,1,2021-08-06 13:53:12,878584
-1,-1,-1,0,-3,-1,1,1,2021-08-06 13:53:12,893585
1,0,1,-2,0,-1,0,0,2021-08-06 13:53:12,909539
-1,0,-1,-2,-6,-2,-2,-3,2021-08-06 13:53:12,909539
1,1,1,5,11,5,1,-1,2021-08-06 13:53:12,909539
1,2,2,1,-1,0,-1,0,2021-08-06 13:53:12,909539
-1,0,-2,0,-3,1,-1,-2,2021-08-06 13:53:12,909539
-1,-3,-2,-2,0,-2,-1,-1,2021-08-06 13:53:12,909539
-2,-1,-1,-4,-5,-4,-1,-2,2021-08-06 13:53:12,909539
-1,-1,0,0,1,0,-1,0,2021-08-06 13:53:12,941536
-1,-1,0,1,2,1,2,2,2021-08-06 13:53:12,957537
-1,-2,0,-3,-1,0,-2,-3,2021-08-06 13:53:12,957537
-2,-2,-2,-5,-5,-4,-2,-2,2021-08-06 13:53:12,957537
-1,-1,-2,-1,-1,0,-1,-1,2021-08-06 13:53:12,957537
0,-1,0,-1,-1,0,0,-1,2021-08-06 13:53:12,957537
0,0,-2,-1,0,0,-2,0,2021-08-06 13:53:12,957537
-2,-1,-2,0,3,2,1,-1,2021-08-06 13:53:12,958534
0,-2,-2,-4,-4,-2,1,-1,2021-08-06 13:53:12,988574
-1,0,-1,0,-2,-2,-2,-1,2021-08-06 13:53:12,988574
0,0,2,-1,1,0,0,-1,2021-08-06 13:53:12,988574
-3,-2,0,-3,-5,-2,-3,-1,2021-08-06 13:53:12,988574
0,-1,-1,0,-1,-2,0,-1,2021-08-06 13:53:12,988574
-3,0,-2,-1,-2,0,-1,-3,2021-08-06 13:53:12,988574
1,0,0,-1,0,-2,1,0,2021-08-06 13:53:12,988574
-1,0,-2,-2,-2,-2,-2,-2,2021-08-06 13:53:12,988574
-2,0,-1,-1,-1,0,-2,-1,2021-08-06 13:53:13,020574
0,1,0,1,1,-1,0,-2,2021-08-06 13:53:13,020574
-1,-2,-2,0,-2,0,-1,-1,2021-08-06 13:53:13,020574
-1,-1,-2,-2,-4,-2,-2,-1,2021-08-06 13:53:13,020574
-1,-3,0,0,2,2,1,0,2021-08-06 13:53:13,036572
-1,-2,-3,-3,-2,-1,-2,-1,2021-08-06 13:53:13,036572
0,0,0,-1,-2,-2,1,1,2021-08-06 13:53:13,036572
0,0,-1,0,3,1,0,0,2021-08-06 13:53:13,036572
-1,-2,-3,-2,-4,-1,-3,-1,2021-08-06 13:53:13,052537
0,-1,1,-1,-3,0,0,-1,2021-08-06 13:53:13,052537
-1,-2,-3,-1,-2,-3,-2,-1,2021-08-06 13:53:13,052537
-2,-2,0,-1,0,0,0,1,2021-08-06 13:53:13,052537
-2,-2,-3,0,-2,-1,-3,-1,2021-08-06 13:53:13,081570
0,-2,-1,0,-1,-1,0,0,2021-08-06 13:53:13,081570
-2,-2,-2,1,2,0,0,-1,2021-08-06 13:53:13,081570
1,0,-2,-1,-3,0,-1,-1,2021-08-06 13:53:13,081570
0,0,-1,-3,1,-2,-1,-2,2021-08-06 13:53:13,100571
-2,-2,1,-1,-1,-1,-2,-1,2021-08-06 13:53:13,100571
-1,-2,-1,-3,-1,-1,-1,0,2021-08-06 13:53:13,100571
-2,-2,1,-1,-1,-1,-1,-2,2021-08-06 13:53:13,100571
0,0,1,2,3,2,1,0,2021-08-06 13:53:13,116573
-2,0,-1,-1,-3,-1,-1,0,2021-08-06 13:53:13,116573
-1,-1,0,0,1,0,-2,-1,2021-08-06 13:53:13,116573
-1,1,0,1,0,2,0,0,2021-08-06 13:53:13,116573
-1,0,-1,-2,-2,-1,-1,0,2021-08-06 13:53:13,132573
0,-1,-1,-1,0,-1,0,0,2021-08-06 13:53:13,148537
1,-2,-2,-1,1,0,-1,-2,2021-08-06 13:53:13,148537
0,-2,-1,-1,-1,-2,-1,0,2021-08-06 13:53:13,148537
-2,-1,-1,-1,-1,-2,-3,-2,2021-08-06 13:53:13,148537
1,-2,-1,-2,-3,-2,-2,-1,2021-08-06 13:53:13,148537
1,0,1,5,9,5,2,1,2021-08-06 13:53:13,164584
0,-1,0,-1,-1,-1,0,-1,2021-08-06 13:53:13,180573
-2,0,0,0,-1,-2,-1,-2,2021-08-06 13:53:13,210584
-1,-1,-3,-1,-1,-2,-2,-1,2021-08-06 13:53:13,210584
0,-1,0,-3,-5,-4,-3,-2,2021-08-06 13:53:13,210584
-1,-2,-3,-3,-4,-3,-1,-1,2021-08-06 13:53:13,210584
-1,-2,0,1,-1,1,0,-1,2021-08-06 13:53:13,210584
-1,-1,1,0,1,1,0,-2,2021-08-06 13:53:13,210584
-3,-1,0,-1,-3,-2,-1,-1,2021-08-06 13:53:13,210584
-2,-1,0,0,-1,-1,-1,-1,2021-08-06 13:53:13,210584
-1,-1,-1,-4,-6,-2,0,0,2021-08-06 13:53:13,226536
0,0,-2,1,0,-2,-2,0,2021-08-06 13:53:13,226536
-1,-1,-1,-4,-1,-1,-1,-2,2021-08-06 13:53:13,226536
1,0,-1,0,2,-2,-1,0,2021-08-06 13:53:13,226536
0,-1,-1,-4,-3,0,0,-1,2021-08-06 13:53:13,226536
1,-1,1,3,5,3,0,2,2021-08-06 13:53:13,226536
-3,-1,-2,0,-1,0,-1,-3,2021-08-06 13:53:13,242536
-1,-1,-2,0,-1,0,-2,-1,2021-08-06 13:53:13,242536
-1,0,-2,-1,0,-2,1,-1,2021-08-06 13:53:13,258536
-2,0,1,-2,-1,-1,1,-1,2021-08-06 13:53:13,258536
-1,-1,-2,-3,-1,-1,0,-1,2021-08-06 13:53:13,258536
-1,-3,-2,-2,-1,-1,-1,-2,2021-08-06 13:53:13,258536
0,-1,0,2,1,0,0,0,2021-08-06 13:53:13,274536
-1,-2,-2,-2,-2,-1,-1,-2,2021-08-06 13:53:13,274536
2,0,-1,2,0,-2,1,0,2021-08-06 13:53:13,274536
0,0,0,0,-1,0,-1,-2,2021-08-06 13:53:13,274536
-1,1,-1,-2,-1,-1,0,1,2021-08-06 13:53:13,290538
-1,-1,-1,-1,0,0,-1,-1,2021-08-06 13:53:13,306577
-1,-1,1,-2,-1,0,-1,-1,2021-08-06 13:53:13,306577
-1,-1,-1,0,-1,-1,-1,-1,2021-08-06 13:53:13,306577
0,-2,-3,-1,0,-1,-2,-1,2021-08-06 13:53:13,306577
-1,-1,-1,-1,-1,0,-1,-1,2021-08-06 13:53:13,306577
-1,1,-2,1,-2,-1,-1,0,2021-08-06 13:53:13,322575
-1,-2,-1,-2,-1,0,0,-2,2021-08-06 13:53:13,338576
-2,-1,-1,1,1,0,-1,-1,2021-08-06 13:53:13,354542
0,1,0,-1,-2,-2,-2,0,2021-08-06 13:53:13,370574
-1,-1,-1,0,-1,1,-2,0,2021-08-06 13:53:13,370574
-1,-1,-2,0,0,0,-1,-1,2021-08-06 13:53:13,370574
0,-1,-1,0,-2,-2,-1,0,2021-08-06 13:53:13,370574
-1,-2,-2,-1,-1,-1,-1,-1,2021-08-06 13:53:13,370574
-2,1,-2,0,0,0,-1,-2,2021-08-06 13:53:13,370574
1,-1,0,-2,-1,-1,0,0,2021-08-06 13:53:13,386580
-2,-1,0,-1,1,-1,-2,-2,2021-08-06 13:53:13,386580
-1,-1,-2,-2,-2,-2,1,-1,2021-08-06 13:53:13,386580
-1,-2,-1,-1,-1,-3,-2,-1,2021-08-06 13:53:13,386580
-2,-1,-2,-2,-1,0,-1,0,2021-08-06 13:53:13,386580
-1,-1,1,-1,-2,1,-1,0,2021-08-06 13:53:13,402534
0,0,0,0,-1,0,0,-2,2021-08-06 13:53:13,417586
0,-1,-2,-3,-4,-1,0,0,2021-08-06 13:53:13,433571
-1,-1,-1,-2,-1,-4,-1,-1,2021-08-06 13:53:13,433571
0,0,-1,-1,2,-1,0,1,2021-08-06 13:53:13,433571
-2,-2,0,-1,2,0,0,-1,2021-08-06 13:53:13,433571
-1,-1,0,-1,-2,-1,-1,-1,2021-08-06 13:53:13,433571
-1,-1,1,-2,-1,1,-1,0,2021-08-06 13:53:13,433571
-1,-1,-2,-1,-4,0,-1,-1,2021-08-06 13:53:13,433571
-1,-2,-2,-2,-1,-3,-1,-2,2021-08-06 13:53:13,434572
0,0,-1,-2,0,-2,-1,-1,2021-08-06 13:53:13,434572
-1,-2,-1,-1,-2,0,-2,-1,2021-08-06 13:53:13,434572
0,-2,-2,0,-1,0,-2,-2,2021-08-06 13:53:13,451585
0,-2,-1,0,-1,-1,-1,0,2021-08-06 13:53:13,465586
-2,-3,-1,-2,-2,-1,-1,-1,2021-08-06 13:53:13,481583
1,1,1,0,0,-1,0,0,2021-08-06 13:53:13,481583
-1,-1,-2,-1,0,1,0,-2,2021-08-06 13:53:13,481583
-1,0,-3,-1,-2,-1,-2,-2,2021-08-06 13:53:13,481583
0,0,-2,1,1,-1,0,0,2021-08-06 13:53:13,481583
-1,-1,-2,-1,0,-1,-1,-1,2021-08-06 13:53:13,481583
-2,0,-1,0,0,-1,-1,-1,2021-08-06 13:53:13,497571
0,-1,-1,-1,-1,0,0,-1,2021-08-06 13:53:13,513573
-1,-2,-2,-3,-3,-2,-2,-1,2021-08-06 13:53:13,513573
0,-1,-1,-1,1,0,-1,-1,2021-08-06 13:53:13,513573
0,-2,-1,1,2,-2,0,1,2021-08-06 13:53:13,513573
-2,-1,-2,-3,-8,-6,-4,-2,2021-08-06 13:53:13,513573
1,3,2,8,9,5,2,3,2021-08-06 13:53:13,513573
-2,-1,-1,-2,-5,-3,-3,-2,2021-08-06 13:53:13,514573
-1,0,-3,-4,-1,0,-1,-2,2021-08-06 13:53:13,544574
0,1,0,1,5,2,0,0,2021-08-06 13:53:13,559536
0,-2,-2,-2,-5,-4,-1,-2,2021-08-06 13:53:13,591537
-2,0,-1,0,0,-1,-1,-2,2021-08-06 13:53:13,607536
-2,-1,0,-3,-3,-3,-1,0,2021-08-06 13:53:13,607536
-1,-2,-2,-2,-3,-2,-2,0,2021-08-06 13:53:13,607536
0,-2,0,-1,-1,0,0,-1,2021-08-06 13:53:13,607536
1,-2,-1,0,2,1,0,0,2021-08-06 13:53:13,607536
-2,-1,-2,-2,-3,0,-1,-1,2021-08-06 13:53:13,607536
-2,-1,-1,-1,1,0,-2,-2,2021-08-06 13:53:13,607536
-1,-1,0,-1,-2,0,-2,-2,2021-08-06 13:53:13,607536
-2,1,-1,0,-2,-1,-2,-3,2021-08-06 13:53:13,608536
1,-1,0,-2,-4,-3,-1,-1,2021-08-06 13:53:13,608536
0,2,2,3,3,2,1,0,2021-08-06 13:53:13,608536
0,-1,-2,0,1,0,0,1,2021-08-06 13:53:13,608536
1,1,1,5,9,4,3,2,2021-08-06 13:53:13,608536
-1,-1,-1,1,-1,0,-1,0,2021-08-06 13:53:13,608536
-1,-2,-3,-3,-5,-2,1,-1,2021-08-06 13:53:13,608536
-3,-2,-2,-3,-7,-5,-3,-2,2021-08-06 13:53:13,608536
-3,-2,-4,-8,-8,-4,-2,0,2021-08-06 13:53:13,608536
1,1,1,5,13,8,2,1,2021-08-06 13:53:13,638571
-1,-1,-3,-10,-15,-10,-5,-1,2021-08-06 13:53:13,654536
1,1,6,13,28,17,6,1,2021-08-06 13:53:13,654536
-1,-1,-2,0,-6,-3,-2,-2,2021-08-06 13:53:13,654536
-1,-2,-2,-4,-4,-2,-2,-2,2021-08-06 13:53:13,654536
0,-1,-1,1,2,-1,-1,-1,2021-08-06 13:53:13,654536
0,0,-4,-7,-8,-6,-3,-1,2021-08-06 13:53:13,655571
2,-1,1,2,3,3,1,-1,2021-08-06 13:53:13,655571
-1,0,0,1,-1,-1,0,-2,2021-08-06 13:53:13,670594
-1,-1,-2,-1,-3,0,2,0,2021-08-06 13:53:13,686574
-3,0,0,-4,-6,-5,-4,-2,2021-08-06 13:53:13,686574
-2,0,0,-1,0,0,0,-1,2021-08-06 13:53:13,686574
-2,-1,0,-1,-1,-1,-1,-1,2021-08-06 13:53:13,702536
0,0,1,-1,0,1,0,0,2021-08-06 13:53:13,718584
-2,-1,-2,-1,-2,-1,0,-2,2021-08-06 13:53:13,734571
0,0,-1,-3,-4,-4,-2,1,2021-08-06 13:53:13,734571
0,-1,-2,2,1,-1,-1,-1,2021-08-06 13:53:13,734571
-1,-1,0,1,2,1,0,0,2021-08-06 13:53:13,734571
-1,-2,-1,-3,-4,-2,-2,-1,2021-08-06 13:53:13,734571
-2,-2,-4,-6,-6,-4,-3,-2,2021-08-06 13:53:13,734571
0,-1,0,0,0,-1,-1,1,2021-08-06 13:53:13,735572
0,-1,1,3,7,3,4,-1,2021-08-06 13:53:13,735572
-1,-1,-2,-2,-4,-2,-2,-1,2021-08-06 13:53:13,735572
-1,-1,0,3,2,0,1,0,2021-08-06 13:53:13,735572
-2,-2,-1,-2,-3,-2,-1,-1,2021-08-06 13:53:13,765583
-2,-2,0,-3,-2,-2,-1,-1,2021-08-06 13:53:13,781575
-1,-2,-2,-1,-6,-2,-2,0,2021-08-06 13:53:13,797533
1,-1,0,1,3,1,1,0,2021-08-06 13:53:13,797533
0,1,-2,-3,-3,-1,-4,-3,2021-08-06 13:53:13,797533
0,0,0,-1,-1,1,-2,-2,2021-08-06 13:53:13,797533
-1,-1,-3,-3,-2,-2,0,-1,2021-08-06 13:53:13,797533
-1,-2,-2,-1,-1,0,0,-1,2021-08-06 13:53:13,797533
0,-1,-1,-1,-5,-3,0,0,2021-08-06 13:53:13,797533
-1,1,0,5,7,3,1,-1,2021-08-06 13:53:13,797533
-1,-1,-1,0,-1,-2,-2,-3,2021-08-06 13:53:13,797533
1,0,0,-1,1,1,-1,-1,2021-08-06 13:53:13,797533
-2,-2,-2,-1,-1,-2,0,0,2021-08-06 13:53:13,813571
0,0,-3,-3,-5,-2,-1,-1,2021-08-06 13:53:13,828536
1,0,-1,0,-1,0,0,0,2021-08-06 13:53:13,828536
-2,-2,-3,-4,-3,-4,-3,-3,2021-08-06 13:53:13,828536
-1,0,1,1,1,0,0,0,2021-08-06 13:53:13,844571
-2,0,-1,1,0,0,-2,0,2021-08-06 13:53:13,844571
0,-1,0,0,0,-1,-1,-2,2021-08-06 13:53:13,844571
0,0,0,0,-4,-2,-1,-1,2021-08-06 13:53:13,844571
1,-1,-3,-2,-2,-2,-3,-2,2021-08-06 13:53:13,876537
-1,-1,-1,1,0,0,1,0,2021-08-06 13:53:13,876537
-1,-1,0,1,4,2,0,-1,2021-08-06 13:53:13,876537
-2,-1,-2,-2,-4,-3,-2,-1,2021-08-06 13:53:13,876537
-1,-1,-2,-2,-2,-2,0,0,2021-08-06 13:53:13,876537
-1,-1,-1,-1,0,-1,0,-1,2021-08-06 13:53:13,876537
1,-1,-1,-3,-6,-4,-2,1,2021-08-06 13:53:13,876537
-1,-1,0,2,4,2,1,-1,2021-08-06 13:53:13,876537
0,0,1,1,1,2,0,0,2021-08-06 13:53:13,908536
-1,-1,-2,-2,-3,-2,1,-3,2021-08-06 13:53:13,908536
0,-1,-2,-3,-3,-2,-2,-1,2021-08-06 13:53:13,908536
0,-1,-1,-3,-4,-1,-2,0,2021-08-06 13:53:13,908536
2,1,1,2,7,2,0,0,2021-08-06 13:53:13,908536
-1,-1,0,2,1,0,-2,1,2021-08-06 13:53:13,908536
-3,-2,-5,-6,-12,-6,-4,-2,2021-08-06 13:53:13,924585
1,0,-3,-5,1,0,0,0,2021-08-06 13:53:13,940571
-2,1,0,6,9,4,2,-1,2021-08-06 13:53:13,940571
0,-2,-2,-2,-2,0,-2,-1,2021-08-06 13:53:13,940571
-1,0,-1,0,-1,-1,-1,0,2021-08-06 13:53:13,940993
-2,-2,-1,-7,-15,-9,-6,-4,2021-08-06 13:53:13,940993
-1,-1,-2,-5,-7,-3,0,-1,2021-08-06 13:53:13,956156
-1,-1,-2,-4,-2,-3,-2,-1,2021-08-06 13:53:13,956156
-4,-2,-4,-6,-16,-7,-3,-2,2021-08-06 13:53:13,956156
2,4,5,13,24,13,6,2,2021-08-06 13:53:13,956156
-2,-2,-2,-4,-5,-3,-3,-1,2021-08-06 13:53:13,972109
-1,-1,0,-2,-3,-2,-2,-1,2021-08-06 13:53:13,987148
-2,-2,-3,-6,-9,-5,-3,-1,2021-08-06 13:53:13,987148
-1,-2,-4,-7,-8,-7,-3,-3,2021-08-06 13:53:13,987148
2,1,4,16,20,13,6,2,2021-08-06 13:53:14,003109
-2,0,1,0,0,0,-1,-1,2021-08-06 13:53:14,003109
-1,0,1,1,5,2,1,-1,2021-08-06 13:53:14,003109
0,-2,-2,-3,-6,-3,-4,-1,2021-08-06 13:53:14,003109
-2,-4,-3,-8,-10,-7,-4,-1,2021-08-06 13:53:14,019147
-1,-1,-3,-1,-1,-1,0,-1,2021-08-06 13:53:14,019147
1,0,1,4,7,1,1,-2,2021-08-06 13:53:14,019147
-2,1,0,3,1,1,1,-1,2021-08-06 13:53:14,035145
-1,-1,-3,-3,-8,-4,-2,0,2021-08-06 13:53:14,051148
-1,-2,2,1,0,2,1,1,2021-08-06 13:53:14,067156
0,-1,1,1,4,3,2,0,2021-08-06 13:53:14,083148
-2,-3,-2,0,0,0,0,1,2021-08-06 13:53:14,083148
-3,1,-1,-3,-4,-2,-1,0,2021-08-06 13:53:14,083148
-1,0,-3,-1,-3,-1,-2,-3,2021-08-06 13:53:14,083148
-1,-2,0,1,2,0,0,0,2021-08-06 13:53:14,083148
0,1,2,6,7,3,0,1,2021-08-06 13:53:14,083148
-2,-3,-3,-2,-3,-2,-1,-3,2021-08-06 13:53:14,083148
-2,-2,-2,-1,-4,-4,-2,-3,2021-08-06 13:53:14,083148
-1,1,-1,-5,-4,-2,-2,0,2021-08-06 13:53:14,084144
-2,2,-1,1,4,4,0,2,2021-08-06 13:53:14,084144
0,-1,-1,-3,-4,-3,-2,-1,2021-08-06 13:53:14,099144
1,-1,0,-1,0,-1,-1,1,2021-08-06 13:53:14,114146
0,-1,1,6,7,1,2,-1,2021-08-06 13:53:14,129157
0,0,0,-2,-5,-2,0,0,2021-08-06 13:53:14,129157
0,-1,-1,-1,-2,-2,-1,-2,2021-08-06 13:53:14,129157
0,0,-1,-4,-4,-2,-1,-1,2021-08-06 13:53:14,129157
1,0,-1,-1,-1,0,0,-1,2021-08-06 13:53:14,129157
-2,-2,-1,-3,-2,-5,0,-1,2021-08-06 13:53:14,129157
-1,0,-2,-3,-4,-4,-3,0,2021-08-06 13:53:14,145132
0,-1,-1,2,5,0,-1,1,2021-08-06 13:53:14,145132
-1,-1,0,2,4,3,0,0,2021-08-06 13:53:14,145132
0,-1,0,-2,-1,0,-2,-2,2021-08-06 13:53:14,145132
0,-2,-3,-3,-5,-3,-3,0,2021-08-06 13:53:14,145132
0,0,-2,1,-1,1,-1,1,2021-08-06 13:53:14,145132
1,-1,-1,0,0,0,-1,-1,2021-08-06 13:53:14,161144
0,-2,0,-1,-4,-4,-2,-2,2021-08-06 13:53:14,161144
-2,0,-3,-3,-4,-3,-1,-2,2021-08-06 13:53:14,177157
0,-1,1,1,3,1,-1,-1,2021-08-06 13:53:14,193107
0,-1,-1,-1,-4,0,-2,0,2021-08-06 13:53:14,209144
0,-1,0,2,1,1,-1,-1,2021-08-06 13:53:14,209144
-1,-2,0,2,1,1,0,0,2021-08-06 13:53:14,209144
-2,-1,0,1,-1,0,-2,0,2021-08-06 13:53:14,209144
-1,0,-3,-4,-5,-4,-2,-1,2021-08-06 13:53:14,209144
0,0,1,7,12,4,-1,0,2021-08-06 13:53:14,209144
-2,-1,1,-1,2,0,0,0,2021-08-06 13:53:14,209144
-1,-1,-4,-4,-6,-5,-1,-1,2021-08-06 13:53:14,210144
1,-3,-3,-2,-1,-1,-2,0,2021-08-06 13:53:14,222145
0,-1,-1,0,0,1,1,1,2021-08-06 13:53:14,222145
0,0,0,-1,-3,-1,-1,-2,2021-08-06 13:53:14,240107
0,1,1,0,3,1,0,-1,2021-08-06 13:53:14,240107
-1,-2,-1,-3,-3,-3,-2,0,2021-08-06 13:53:14,240107
-2,-3,-3,-3,-5,-3,-1,-2,2021-08-06 13:53:14,240107
-1,-2,-1,0,1,0,-1,-1,2021-08-06 13:53:14,271109
-2,-2,-1,-2,-6,-3,-2,-2,2021-08-06 13:53:14,271109
1,-1,-1,1,4,3,1,0,2021-08-06 13:53:14,271109
0,-2,-2,-3,-5,-3,-4,-1,2021-08-06 13:53:14,271109
-1,-1,0,2,0,0,0,0,2021-08-06 13:53:14,271109
-1,-1,-2,-2,-1,0,-1,0,2021-08-06 13:53:14,271109
-1,0,2,1,1,-1,1,0,2021-08-06 13:53:14,287145
-2,-2,-3,-5,-7,-5,-3,-1,2021-08-06 13:53:14,287145
-1,-1,0,-1,-2,-1,0,1,2021-08-06 13:53:14,303145
-2,-2,-1,-1,-1,-4,-1,-2,2021-08-06 13:53:14,303145
-1,0,1,3,7,2,-1,0,2021-08-06 13:53:14,303145
-1,-3,-1,-3,-4,-1,0,0,2021-08-06 13:53:14,303145
0,0,-2,-2,2,1,-1,-1,2021-08-06 13:53:14,319157
1,-1,-1,-2,-6,-2,0,0,2021-08-06 13:53:14,319157
-2,0,-2,1,0,-2,-2,-1,2021-08-06 13:53:14,319157
0,0,0,1,-1,1,0,0,2021-08-06 13:53:14,335147
-2,-4,-1,-2,0,-1,-1,-1,2021-08-06 13:53:14,335147
0,-2,-2,-1,0,0,0,0,2021-08-06 13:53:14,335147
-2,0,-1,2,4,0,1,-2,2021-08-06 13:53:14,351145
-1,0,-2,-1,-3,-1,-1,-1,2021-08-06 13:53:14,351145
0,0,0,-1,-1,0,-1,-2,2021-08-06 13:53:14,351145
0,-1,1,0,1,-1,1,-2,2021-08-06 13:53:14,351145
-2,-2,-2,-5,-4,-2,0,0,2021-08-06 13:53:14,351145
-1,-1,-2,-1,-3,-1,-2,-2,2021-08-06 13:53:14,351145
-1,0,-1,-1,1,-1,-1,-1,2021-08-06 13:53:14,382583
-2,-1,-2,-2,-2,-2,-3,-2,2021-08-06 13:53:14,398583
0,-1,-1,-2,-2,-1,0,-2,2021-08-06 13:53:14,414596
-2,-1,0,0,0,-1,0,-1,2021-08-06 13:53:14,414596
-1,-1,-2,-4,-4,-4,-2,-1,2021-08-06 13:53:14,414596
-1,-2,-2,-3,-3,-2,-2,1,2021-08-06 13:53:14,414596
0,1,2,8,12,6,3,0,2021-08-06 13:53:14,430595
2,0,-1,-1,-2,0,1,2,2021-08-06 13:53:14,430595
0,0,-1,-2,0,-2,0,0,2021-08-06 13:53:14,430595
-2,-3,-4,-5,-9,-5,-3,-1,2021-08-06 13:53:14,430595
0,-1,-1,-7,-6,-4,-2,0,2021-08-06 13:53:14,430595
-2,0,0,3,7,2,1,0,2021-08-06 13:53:14,430595
0,1,1,2,3,1,0,-1,2021-08-06 13:53:14,430595
-2,-1,-2,-1,-2,0,-1,0,2021-08-06 13:53:14,430595
-2,-1,-1,-1,-2,-1,-1,-1,2021-08-06 13:53:14,446547
1,0,0,0,-3,-2,-1,0,2021-08-06 13:53:14,446547
-1,0,0,0,0,1,0,1,2021-08-06 13:53:14,446547
-2,-1,0,-1,0,0,-1,-1,2021-08-06 13:53:14,446547
-1,-1,0,-1,-3,-1,-1,-1,2021-08-06 13:53:14,462582
0,-3,-4,-3,-1,-3,-2,-2,2021-08-06 13:53:14,478544
-1,-3,-1,-1,-2,-2,-1,-1,2021-08-06 13:53:14,494582
1,0,0,1,3,2,2,1,2021-08-06 13:53:14,509582
0,-2,-1,-3,-2,-2,-2,1,2021-08-06 13:53:14,509582
-3,-2,-2,-5,-7,-3,-2,-3,2021-08-06 13:53:14,509582
-3,-1,-1,1,0,-1,-1,-3,2021-08-06 13:53:14,509582
-1,-1,0,5,6,2,-2,-2,2021-08-06 13:53:14,509582
-3,-3,-2,-6,-6,-4,-4,-1,2021-08-06 13:53:14,509582
0,2,2,2,-1,-1,-2,-2,2021-08-06 13:53:14,509582
0,2,0,5,9,2,1,1,2021-08-06 13:53:14,509582
0,0,-1,-3,-1,-2,0,0,2021-08-06 13:53:14,510583
-2,0,-2,0,-2,-1,-2,-1,2021-08-06 13:53:14,524587
-1,-2,-2,-4,-7,-5,-1,-2,2021-08-06 13:53:14,524587
-2,-3,-3,-7,-8,-3,-2,-2,2021-08-06 13:53:14,540583
-1,-1,-1,0,2,1,0,-1,2021-08-06 13:53:14,540583
0,0,-1,0,-1,0,-1,-1,2021-08-06 13:53:14,540583
-1,-2,-2,-3,-2,0,-1,-2,2021-08-06 13:53:14,540583
-1,-1,-1,-2,-3,-2,-3,-2,2021-08-06 13:53:14,556547
0,0,0,3,5,3,2,1,2021-08-06 13:53:14,556547
0,-1,0,1,-1,1,-1,-2,2021-08-06 13:53:14,572582
-1,-1,0,-1,0,-1,-1,-1,2021-08-06 13:53:14,572582
-3,-3,-2,-5,-6,-4,-3,-2,2021-08-06 13:53:14,572582
-1,-1,-1,-2,-3,-2,0,-2,2021-08-06 13:53:14,572582
1,1,-1,1,0,-3,-1,0,2021-08-06 13:53:14,588546
1,1,1,7,12,5,1,1,2021-08-06 13:53:14,588546
0,-1,-1,1,-2,-1,-1,-2,2021-08-06 13:53:14,588546
-2,-2,-3,-2,-3,-2,-3,-2,2021-08-06 13:53:14,588546
-1,-2,-3,-6,-7,-4,-1,-2,2021-08-06 13:53:14,600583
-1,-1,0,1,4,2,-1,2,2021-08-06 13:53:14,600583
0,-2,-2,-4,-5,-3,-2,-1,2021-08-06 13:53:14,620585
-1,1,-2,-3,-6,0,0,0,2021-08-06 13:53:14,620585
2,0,2,10,13,8,5,3,2021-08-06 13:53:14,620585
-1,-3,-3,-5,-3,-2,0,-2,2021-08-06 13:53:14,620585
0,0,-2,2,0,0,0,-1,2021-08-06 13:53:14,636587
-2,-2,0,-3,-2,-3,-2,-4,2021-08-06 13:53:14,652547
-2,1,-2,-3,-7,-4,-1,0,2021-08-06 13:53:14,668595
0,0,0,-1,-4,-2,0,0,2021-08-06 13:53:14,668595
0,-2,-1,-1,0,-2,-3,0,2021-08-06 13:53:14,668595
-1,-2,-2,-4,-4,-3,0,-1,2021-08-06 13:53:14,668595
-1,-1,-1,0,2,2,-2,-2,2021-08-06 13:53:14,668595
-2,-1,1,3,8,4,1,2,2021-08-06 13:53:14,668595
-2,-2,-4,-12,-19,-10,-5,-2,2021-08-06 13:53:14,684582
0,1,4,9,17,11,3,5,2021-08-06 13:53:14,684582
3,0,1,7,8,5,2,-1,2021-08-06 13:53:14,684582
-2,-1,-4,-3,-4,0,3,0,2021-08-06 13:53:14,684582
0,-1,2,0,0,0,0,1,2021-08-06 13:53:14,699592
-2,-2,-4,-8,-11,-14,-10,-4,2021-08-06 13:53:14,699592
-6,-4,-3,-6,-11,-12,-10,-8,2021-08-06 13:53:14,699592
-1,-1,-2,-2,-2,-2,-3,-2,2021-08-06 13:53:14,699592
-1,-2,-1,-1,-1,1,3,-1,2021-08-06 13:53:14,715595
0,0,2,1,0,4,4,1,2021-08-06 13:53:14,731596
0,0,1,1,1,0,0,0,2021-08-06 13:53:14,731596
0,-1,-1,-4,-7,-4,-2,-1,2021-08-06 13:53:14,731596
0,1,1,2,5,4,3,0,2021-08-06 13:53:14,731596
1,-2,-1,4,7,3,1,0,2021-08-06 13:53:14,731596
-2,-2,-2,-2,-2,0,0,0,2021-08-06 13:53:14,747582
-1,-3,-1,-4,-6,-3,-2,0,2021-08-06 13:53:14,763583
3,2,2,6,5,3,2,2,2021-08-06 13:53:14,779584
-1,-1,-1,0,-3,-3,-1,-2,2021-08-06 13:53:14,795582
-1,0,-4,-5,-2,-2,0,1,2021-08-06 13:53:14,810583
-2,-3,-3,-9,-10,-7,-4,-3,2021-08-06 13:53:14,810583
-1,-1,1,8,15,5,1,1,2021-08-06 13:53:14,810583
0,-1,0,0,-1,0,0,0,2021-08-06 13:53:14,810583
-1,1,-2,-2,-2,-1,-1,-1,2021-08-06 13:53:14,826545
0,-1,-1,-1,-2,-2,-2,-2,2021-08-06 13:53:14,842548
-3,-2,-2,-2,-3,0,-1,-5,2021-08-06 13:53:14,858583
-2,-2,-1,-2,-3,-2,1,0,2021-08-06 13:53:14,858583
0,-3,0,0,-2,-2,-1,-1,2021-08-06 13:53:14,858583
-2,0,-1,-2,-1,-2,-2,0,2021-08-06 13:53:14,858583
0,0,1,1,2,0,0,1,2021-08-06 13:53:14,858583
1,1,-2,-4,-2,-2,-1,-1,2021-08-06 13:53:14,858583
-1,-1,-2,-2,-4,-4,-1,-1,2021-08-06 13:53:14,858583
0,1,2,3,3,2,0,-1,2021-08-06 13:53:14,874548
-1,-1,0,-2,0,-1,0,0,2021-08-06 13:53:14,890587
-2,-1,-3,-2,-2,-1,-3,0,2021-08-06 13:53:14,890587
-1,-1,0,-1,-2,0,-1,-1,2021-08-06 13:53:14,890587
-2,-1,-2,0,-1,-1,-2,-3,2021-08-06 13:53:14,890587
0,-2,-2,-2,0,-1,-1,0,2021-08-06 13:53:14,890587
-1,-1,-1,-4,-5,-3,-2,-1,2021-08-06 13:53:14,890587
0,1,2,5,10,7,2,1,2021-08-06 13:53:14,890587
0,2,1,4,4,1,0,0,2021-08-06 13:53:14,890587
0,-2,-2,-3,-5,-4,-3,-1,2021-08-06 13:53:14,890587
-1,-2,-2,-7,-8,-4,-3,-1,2021-08-06 13:53:14,890587
-1,-4,-3,-7,-8,-4,-2,-1,2021-08-06 13:53:14,891546
2,1,-1,5,8,4,1,2,2021-08-06 13:53:14,891546
-2,0,-2,-1,-3,-2,-2,-2,2021-08-06 13:53:14,891546
-1,-2,-2,-1,1,-2,-1,-1,2021-08-06 13:53:14,891546
-1,0,-1,-3,-4,-3,-2,-2,2021-08-06 13:53:14,906595
0,-2,-2,-1,-4,-2,-2,-3,2021-08-06 13:53:14,906595
-3,-1,1,-4,-6,-3,-2,-1,2021-08-06 13:53:14,922587
0,2,2,4,8,4,2,1,2021-08-06 13:53:14,938596
-1,0,-1,0,0,1,0,-1,2021-08-06 13:53:14,954548
-2,-1,-2,-3,-2,-1,0,0,2021-08-06 13:53:14,954548
-1,-2,-2,-1,-3,-3,1,-2,2021-08-06 13:53:14,954548
-1,-1,-1,-4,-4,-2,0,-4,2021-08-06 13:53:14,954548
0,1,3,7,8,4,1,0,2021-08-06 13:53:14,954548
-2,-1,-1,-2,-1,1,0,0,2021-08-06 13:53:14,954548
0,0,0,-1,-1,-1,-3,0,2021-08-06 13:53:14,955583
0,0,-1,-4,-5,-3,-3,0,2021-08-06 13:53:14,955583
-1,0,-4,-2,-4,-2,-1,-1,2021-08-06 13:53:14,955583
-1,-4,-2,-4,-3,-4,-3,-4,2021-08-06 13:53:14,955583
0,0,1,4,9,4,2,0,2021-08-06 13:53:14,972548
2,2,1,1,1,2,1,1,2021-08-06 13:53:14,972548
0,0,1,0,-1,1,-1,0,2021-08-06 13:53:14,972548
-2,-1,0,-2,-4,-3,-1,0,2021-08-06 13:53:14,972548
-2,-1,-2,-2,-2,-2,-2,-3,2021-08-06 13:53:15,001585
-3,-2,-2,1,1,-1,0,-3,2021-08-06 13:53:15,017544
0,0,1,-3,-2,-1,0,0,2021-08-06 13:53:15,017544
-1,-1,-2,-4,-5,-4,-2,-1,2021-08-06 13:53:15,017544
0,1,-1,1,6,3,1,1,2021-08-06 13:53:15,017544
-2,-1,-2,0,1,0,-3,-1,2021-08-06 13:53:15,017544
-2,-2,-1,-4,-2,-1,-3,-2,2021-08-06 13:53:15,017544
2,1,1,3,1,2,1,1,2021-08-06 13:53:15,017544
-2,0,-1,-1,-2,-1,-1,1,2021-08-06 13:53:15,048583
-1,-2,0,0,-2,-2,0,-1,2021-08-06 13:53:15,048583
-2,-2,-4,-2,-3,-5,0,-1,2021-08-06 13:53:15,048583
-1,-2,-2,0,0,-3,-2,-2,2021-08-06 13:53:15,048583
-1,0,-2,0,3,2,0,-1,2021-08-06 13:53:15,063595
0,-1,0,-3,-8,-3,-2,0,2021-08-06 13:53:15,063595
2,1,3,5,16,7,1,2,2021-08-06 13:53:15,063595
-2,-1,-2,0,-3,-1,-1,-1,2021-08-06 13:53:15,063595
0,-1,1,2,3,2,1,-1,2021-08-06 13:53:15,079595
-3,-1,-2,-4,-6,-5,-3,-3,2021-08-06 13:53:15,095584
-1,-2,-3,-3,-6,-2,-1,-2,2021-08-06 13:53:15,095584
-1,-2,0,-1,0,1,1,-2,2021-08-06 13:53:15,095584
0,-2,-1,-2,-2,-1,0,-1,2021-08-06 13:53:15,095584
-2,-1,-3,-1,3,0,1,-2,2021-08-06 13:53:15,095584
-1,-1,-3,-3,-6,-3,-2,-1,2021-08-06 13:53:15,095584
0,1,-2,-3,-3,-2,-2,-1,2021-08-06 13:53:15,095584
-3,-3,-2,1,1,-1,-1,-1,2021-08-06 13:53:15,126600
0,-1,-1,0,0,0,0,0,2021-08-06 13:53:15,142595
-1,0,-2,-5,-5,-3,-3,-2,2021-08-06 13:53:15,174548
0,-2,-1,-1,1,0,0,-1,2021-08-06 13:53:15,174548
1,0,2,3,4,1,0,1,2021-08-06 13:53:15,174548
0,-1,-1,1,1,-1,-2,-1,2021-08-06 13:53:15,174548
-2,0,1,6,6,3,0,1,2021-08-06 13:53:15,174548
-1,0,-2,-2,-1,-2,-1,-2,2021-08-06 13:53:15,174548
-3,-1,-2,-6,-7,-4,-1,-2,2021-08-06 13:53:15,175546
-1,-1,-4,-4,-1,-3,0,-1,2021-08-06 13:53:15,175546
-1,0,0,-1,-3,-1,0,0,2021-08-06 13:53:15,175546
-2,-3,-1,-1,-2,0,-2,-1,2021-08-06 13:53:15,175546
0,1,0,1,1,1,0,-1,2021-08-06 13:53:15,175546
-1,0,1,0,-2,-2,-1,1,2021-08-06 13:53:15,175546
1,-2,-2,-7,-9,-6,-2,-1,2021-08-06 13:53:15,175546
0,0,0,3,6,0,0,1,2021-08-06 13:53:15,175546
-2,-3,-2,-3,-6,-3,-3,-1,2021-08-06 13:53:15,206596
0,1,3,12,17,10,3,1,2021-08-06 13:53:15,206596
-1,-1,-1,-3,-4,-1,-1,-2,2021-08-06 13:53:15,206596
0,-2,-2,-1,-7,-3,0,-1,2021-08-06 13:53:15,206596
-1,0,-1,-3,-1,-2,-1,-2,2021-08-06 13:53:15,222583
-2,-2,-2,-4,-6,-1,-3,-1,2021-08-06 13:53:15,238582
-1,-4,-3,0,2,0,1,0,2021-08-06 13:53:15,270583
0,1,0,0,0,1,0,0,2021-08-06 13:53:15,270583
-1,0,-3,-2,-2,0,1,-1,2021-08-06 13:53:15,270583
0,-1,-2,-3,0,-1,0,-1,2021-08-06 13:53:15,270583
-2,0,-2,0,-1,-1,-1,-2,2021-08-06 13:53:15,270583
-2,-1,-2,-2,-3,-2,-1,-1,2021-08-06 13:53:15,271546
-1,-1,-1,2,3,0,-1,1,2021-08-06 13:53:15,271546
0,-1,0,1,0,0,0,-2,2021-08-06 13:53:15,271546
-4,-3,-4,-4,-3,-1,-1,-3,2021-08-06 13:53:15,271546
1,1,2,0,0,-1,1,1,2021-08-06 13:53:15,271546
0,-1,-2,-4,-5,-3,-1,-2,2021-08-06 13:53:15,271546
-2,-2,-2,-4,-10,-7,-5,-3,2021-08-06 13:53:15,271546
1,2,4,13,15,10,2,0,2021-08-06 13:53:15,286583
-1,-2,0,0,1,0,-2,-2,2021-08-06 13:53:15,286583
-1,-1,-1,3,3,2,0,-1,2021-08-06 13:53:15,302545
-1,-3,-1,-1,-1,-1,1,-1,2021-08-06 13:53:15,302545
-1,-1,-1,-6,-7,-5,-1,-1,2021-08-06 13:53:15,302545
0,0,0,0,1,1,0,0,2021-08-06 13:53:15,302545
-2,-3,-2,-4,-4,-3,-2,-2,2021-08-06 13:53:15,318595
-2,-1,-2,-5,-7,-2,-1,1,2021-08-06 13:53:15,318595
-2,-1,-1,-2,-2,-3,-2,-3,2021-08-06 13:53:15,318595
0,-1,0,3,3,4,1,1,2021-08-06 13:53:15,318595
0,-2,-2,-1,-4,-3,-2,0,2021-08-06 13:53:15,342598
-2,-1,-1,4,4,2,1,0,2021-08-06 13:53:15,342598
0,-1,-3,-3,-8,-4,-1,-1,2021-08-06 13:53:15,342598
-1,-1,-3,-2,0,-1,-1,-3,2021-08-06 13:53:15,342598
0,0,-2,-2,-5,-2,-2,-2,2021-08-06 13:53:15,365583
0,1,2,1,5,2,0,1,2021-08-06 13:53:15,381596
1,1,1,1,0,0,0,1,2021-08-06 13:53:15,381596
-1,-1,0,-1,-1,1,-2,0,2021-08-06 13:53:15,381596
-1,0,-1,-3,-5,-2,-3,0,2021-08-06 13:53:15,381596
0,0,2,2,4,0,0,-1,2021-08-06 13:53:15,381596
0,0,1,-1,-2,0,0,-1,2021-08-06 13:53:15,381596
0,0,-1,1,0,-1,0,0,2021-08-06 13:53:15,381596
-1,-1,-2,-3,-3,-1,1,-1,2021-08-06 13:53:15,397582
-2,-1,-3,-1,-1,-1,-1,1,2021-08-06 13:53:15,413583
0,-2,-1,-2,2,1,0,0,2021-08-06 13:53:15,413583
-1,-3,-3,-3,-4,-2,-1,-2,2021-08-06 13:53:15,413583
-4,-3,-1,-1,-1,-2,-2,-3,2021-08-06 13:53:15,413583
0,-1,3,8,13,6,1,-2,2021-08-06 13:53:15,413583
-3,-1,-1,-2,-3,-3,-3,-2,2021-08-06 13:53:15,428582
0,2,0,-1,-1,-2,-1,1,2021-08-06 13:53:15,428582
0,0,-2,-3,-7,-5,-2,-1,2021-08-06 13:53:15,428582
-1,0,-2,-7,-8,-2,-1,-1,2021-08-06 13:53:15,428582
0,-1,1,3,5,3,1,1,2021-08-06 13:53:15,443594
-1,-1,-2,1,1,2,0,0,2021-08-06 13:53:15,443594
-1,0,-1,-1,-1,0,1,1,2021-08-06 13:53:15,459548
0,-2,-1,-1,0,-2,-1,0,2021-08-06 13:53:15,475546
0,-1,-3,-3,-4,-2,-2,-1,2021-08-06 13:53:15,475546
-1,-3,0,-2,-2,-3,-1,-1,2021-08-06 13:53:15,475546
0,-1,0,-1,2,0,-1,1,2021-08-06 13:53:15,475546
-2,-2,0,-2,-2,-1,-2,-1,2021-08-06 13:53:15,475546
-2,-3,-3,-4,-7,-3,-1,-1,2021-08-06 13:53:15,475546
-1,-1,2,3,5,2,-1,0,2021-08-06 13:53:15,475546
-2,-2,-2,-4,-5,-3,-4,-3,2021-08-06 13:53:15,506596
2,1,-2,-2,0,2,2,1,2021-08-06 13:53:15,506596
1,0,2,4,6,4,1,0,2021-08-06 13:53:15,506596
-1,0,0,-1,-1,-3,1,0,2021-08-06 13:53:15,506596
1,-2,-1,-1,1,1,1,-1,2021-08-06 13:53:15,522586
-2,-1,-1,-4,-7,-5,-4,-1,2021-08-06 13:53:15,538585
-2,-3,-1,-4,-5,-4,-1,-3,2021-08-06 13:53:15,538585
-1,1,-2,-1,0,0,1,0,2021-08-06 13:53:15,538585
-1,-3,-1,0,0,-1,0,-1,2021-08-06 13:53:15,538585
0,-2,-2,0,-1,0,1,0,2021-08-06 13:53:15,538585
0,-1,-1,-1,0,-1,0,0,2021-08-06 13:53:15,538585
0,-1,-1,-2,-3,-2,0,-2,2021-08-06 13:53:15,538585
-1,0,1,0,3,1,1,0,2021-08-06 13:53:15,554583
-1,0,0,0,-1,-2,0,-1,2021-08-06 13:53:15,570585
-1,1,-1,-2,-2,0,0,0,2021-08-06 13:53:15,586586
-1,-1,-2,-1,-1,1,-1,-1,2021-08-06 13:53:15,586586
-2,0,-1,-2,-4,-3,-1,0,2021-08-06 13:53:15,586586
0,0,2,4,4,2,-1,2,2021-08-06 13:53:15,586586
0,0,-1,-3,-2,-1,-1,0,2021-08-06 13:53:15,586586
0,-1,-1,-5,-5,-2,-1,-2,2021-08-06 13:53:15,586586
1,1,0,2,4,2,0,1,2021-08-06 13:53:15,602547
-3,-1,-1,-6,-8,-5,-2,-2,2021-08-06 13:53:15,602547
-2,-1,-1,-1,-2,0,0,0,2021-08-06 13:53:15,602547
-1,-1,1,2,3,3,-1,0,2021-08-06 13:53:15,602547
0,-1,0,0,-1,-2,-2,0,2021-08-06 13:53:15,634602
0,0,0,-1,-2,0,1,-2,2021-08-06 13:53:15,634602
0,-2,-2,0,2,0,-3,0,2021-08-06 13:53:15,634602
-2,-2,-3,-5,-5,-3,-4,-1,2021-08-06 13:53:15,634602
0,-1,0,0,1,0,-1,0,2021-08-06 13:53:15,634602
-1,0,-2,-3,-2,-1,-2,-2,2021-08-06 13:53:15,634602
-1,-2,-1,-1,-4,0,0,-2,2021-08-06 13:53:15,634602
-1,-2,-1,1,-1,-1,-1,0,2021-08-06 13:53:15,635582
-1,-1,-1,1,0,-1,0,0,2021-08-06 13:53:15,666594
1,-1,-2,-1,1,-1,1,-1,2021-08-06 13:53:15,666594
-2,0,-1,-1,0,0,-1,-1,2021-08-06 13:53:15,666594
-2,0,-1,-2,-1,-1,-3,-1,2021-08-06 13:53:15,666594
-1,-1,-1,-2,-2,2,0,-2,2021-08-06 13:53:15,682581
0,-2,-3,-1,-5,-6,-2,-2,2021-08-06 13:53:15,682581
0,0,0,2,1,1,1,-1,2021-08-06 13:53:15,682581
-3,-1,0,1,0,-1,0,-2,2021-08-06 13:53:15,682581
-1,-1,0,1,2,0,0,1,2021-08-06 13:53:15,698590
0,-1,-1,-3,-3,1,-1,1,2021-08-06 13:53:15,713551
-2,-2,0,1,0,-1,-1,-1,2021-08-06 13:53:15,713551
0,0,-1,-2,-1,-1,-2,-1,2021-08-06 13:53:15,713551
-1,2,-1,0,0,0,0,0,2021-08-06 13:53:15,713551
0,-1,0,-1,-1,0,0,-2,2021-08-06 13:53:15,714548
-1,-1,-2,-3,-2,-3,-2,-1,2021-08-06 13:53:15,729595
0,-2,0,0,0,0,-1,-2,2021-08-06 13:53:15,745583
0,-1,0,-2,-3,0,-1,-1,2021-08-06 13:53:15,760583
-1,-2,-1,-3,-2,-3,0,0,2021-08-06 13:53:15,775548
-1,1,-2,-2,-5,-2,-1,-1,2021-08-06 13:53:15,775548
1,-1,4,7,12,6,3,1,2021-08-06 13:53:15,775548
0,-1,-1,-2,-1,-1,-1,-2,2021-08-06 13:53:15,775548
-2,-1,-3,-1,-3,-2,-1,0,2021-08-06 13:53:15,775548
-2,-2,-1,-3,-5,-4,-2,-3,2021-08-06 13:53:15,775548
-2,0,-5,-4,-6,-3,-2,-3,2021-08-06 13:53:15,775548
0,-1,2,7,8,1,0,1,2021-08-06 13:53:15,775548
-1,0,0,2,5,3,-2,0,2021-08-06 13:53:15,776547
-1,-1,-1,-1,0,-2,-1,-1,2021-08-06 13:53:15,776547
-2,-3,-4,-4,-9,-4,0,-2,2021-08-06 13:53:15,776547
-2,0,-1,-2,0,1,0,-2,2021-08-06 13:53:15,806596
-1,-2,-2,-1,0,-1,-1,-2,2021-08-06 13:53:15,806596
1,1,1,3,7,2,2,1,2021-08-06 13:53:15,806596
0,0,-1,-5,-2,-1,0,-1,2021-08-06 13:53:15,806596
-1,-2,-1,-1,-3,-3,-2,-1,2021-08-06 13:53:15,822584
-1,-1,-1,-2,-3,-2,-1,-2,2021-08-06 13:53:15,854586
-2,-3,-2,-4,-2,-2,-1,-1,2021-08-06 13:53:15,854586
0,-2,0,-1,1,-1,0,0,2021-08-06 13:53:15,854586
-2,-2,-3,-5,-9,-5,-3,-1,2021-08-06 13:53:15,854586
1,1,-1,0,5,3,0,0,2021-08-06 13:53:15,854586
-4,-2,0,0,-1,0,-2,-1,2021-08-06 13:53:15,854586
2,1,1,2,1,0,-1,0,2021-08-06 13:53:15,854586
-1,-1,-2,-2,-3,-1,1,-1,2021-08-06 13:53:15,870545
-2,-3,-2,-3,-6,-3,-2,0,2021-08-06 13:53:15,886584
0,0,-2,-1,-1,1,-1,0,2021-08-06 13:53:15,901595
-2,-2,-2,-1,0,-1,-2,0,2021-08-06 13:53:15,901595
-1,-1,-1,-2,-1,-2,-1,-2,2021-08-06 13:53:15,901595
-1,0,1,3,1,0,0,-1,2021-08-06 13:53:15,901595
-1,1,0,0,-1,-1,-2,-1,2021-08-06 13:53:15,901595
-1,-1,-1,-3,-3,-3,0,1,2021-08-06 13:53:15,901595
-1,-2,-3,-4,-3,0,-1,0,2021-08-06 13:53:15,902547
-1,0,-1,-2,-5,-3,-1,-3,2021-08-06 13:53:15,902547
1,2,3,6,12,5,3,0,2021-08-06 13:53:15,902547
-3,-1,-1,-1,-6,-3,-3,-1,2021-08-06 13:53:15,902547
-1,-1,1,1,5,3,0,-1,2021-08-06 13:53:15,933582
-1,-1,-1,-2,-1,-1,-1,0,2021-08-06 13:53:15,933582
-2,-2,-2,-7,-8,-6,-2,-3,2021-08-06 13:53:15,933582
0,1,-1,2,2,1,-1,-1,2021-08-06 13:53:15,933582
0,-2,-2,1,-2,-3,-1,-1,2021-08-06 13:53:15,933582
-1,-2,1,-2,-4,-2,-1,0,2021-08-06 13:53:15,933582
0,1,2,1,1,0,0,0,2021-08-06 13:53:15,949583
-2,-1,-2,1,1,1,1,-1,2021-08-06 13:53:15,965595
-3,-1,-4,-5,-7,-4,-2,-2,2021-08-06 13:53:15,981610
1,0,1,1,5,1,-1,0,2021-08-06 13:53:15,981610
-1,-2,-1,6,10,6,3,-1,2021-08-06 13:53:15,981610
-3,0,0,1,0,-1,1,-1,2021-08-06 13:53:15,981610
0,-2,0,0,0,-3,-2,0,2021-08-06 13:53:15,981610
-2,-2,-2,-1,-3,-4,-1,-1,2021-08-06 13:53:15,981610
-2,-1,-3,-9,-12,-9,-4,-2,2021-08-06 13:53:15,997586
1,0,0,1,4,2,1,1,2021-08-06 13:53:15,997586
0,0,2,3,4,2,1,-3,2021-08-06 13:53:15,997586
0,-1,-1,1,9,7,5,2,2021-08-06 13:53:15,997586
1,3,2,5,4,8,5,2,2021-08-06 13:53:15,997586
2,2,-2,-4,-7,-12,-8,0,2021-08-06 13:53:15,997586
-16,-12,-8,-10,-15,-17,-18,-14,2021-08-06 13:53:16,027547
-2,-3,-1,-2,-2,-3,-4,-1,2021-08-06 13:53:16,043546
-1,-2,-2,-5,-4,-2,-2,0,2021-08-06 13:53:16,043546
4,1,1,0,0,5,5,3,2021-08-06 13:53:16,043546
5,4,3,0,3,5,6,3,2021-08-06 13:53:16,043546
0,2,-1,1,-1,0,0,0,2021-08-06 13:53:16,043546
-3,-3,-2,-2,-2,0,-1,-1,2021-08-06 13:53:16,043546
-2,0,1,1,-1,0,1,0,2021-08-06 13:53:16,043546
2,0,2,1,3,2,3,1,2021-08-06 13:53:16,059548
0,-1,-1,-2,-3,-1,-1,-3,2021-08-06 13:53:16,075548
2,0,0,0,-1,1,1,1,2021-08-06 13:53:16,075548
-5,-2,-1,-2,-2,-1,0,-3,2021-08-06 13:53:16,075548
-2,-2,-3,-2,-2,-2,-2,-1,2021-08-06 13:53:16,075548
-1,-1,0,-2,-3,0,-2,-2,2021-08-06 13:53:16,075548
2,0,1,1,3,0,-2,-1,2021-08-06 13:53:16,075548
2,-1,1,1,-2,-1,0,0,2021-08-06 13:53:16,075548
-8,-8,-7,-4,-7,-8,-5,-5,2021-08-06 13:53:16,106544
-1,-2,-3,-2,-3,-3,-2,-1,2021-08-06 13:53:16,122590
-4,-4,-3,-4,-4,-5,-5,-3,2021-08-06 13:53:16,138584
4,3,3,0,1,5,2,0,2021-08-06 13:53:16,138584
4,4,4,6,4,6,5,4,2021-08-06 13:53:16,138584
-1,0,1,1,0,-1,-1,-1,2021-08-06 13:53:16,138584
-4,-2,-3,-2,-2,-2,-1,-1,2021-08-06 13:53:16,138584
-2,-6,-4,-1,0,-1,-1,-1,2021-08-06 13:53:16,139588
2,3,2,3,1,0,2,2,2021-08-06 13:53:16,139588
-1,-2,-1,-1,-1,-1,-1,-1,2021-08-06 13:53:16,139588
0,0,0,-1,-1,2,1,1,2021-08-06 13:53:16,139588
-4,-2,-2,-1,-3,-5,-5,-4,2021-08-06 13:53:16,139588
-1,0,1,0,0,0,1,1,2021-08-06 13:53:16,170547
0,1,-1,3,1,1,1,1,2021-08-06 13:53:16,170547
-1,0,-3,0,-1,-2,-1,-1,2021-08-06 13:53:16,170547
0,-1,-3,-2,0,0,-1,0,2021-08-06 13:53:16,170547
-1,1,-2,-1,1,0,0,0,2021-08-06 13:53:16,170547
1,0,-1,-1,0,-1,-1,0,2021-08-06 13:53:16,170547
0,-1,-1,-3,-7,-6,-2,-1,2021-08-06 13:53:16,186584
-1,-1,0,5,10,6,1,0,2021-08-06 13:53:16,186584
1,1,-1,-1,-2,0,0,0,2021-08-06 13:53:16,202548
-3,-4,-2,-4,-8,-5,-4,-3,2021-08-06 13:53:16,218606
0,-1,-2,-2,3,1,0,-1,2021-08-06 13:53:16,248548
-3,-2,-1,1,-2,-2,-1,-2,2021-08-06 13:53:16,248548
1,-1,-1,-6,-7,-2,-1,0,2021-08-06 13:53:16,248548
3,3,3,11,16,6,3,3,2021-08-06 13:53:16,248548
0,-1,-3,-3,-6,-6,-5,-3,2021-08-06 13:53:16,248548
-2,-2,-1,-6,-7,-4,-4,0,2021-08-06 13:53:16,248548
-1,-1,0,0,2,3,1,1,2021-08-06 13:53:16,248548
-1,-2,-2,-4,-5,-2,-1,-1,2021-08-06 13:53:16,248548
-1,0,-1,0,1,-1,0,-1,2021-08-06 13:53:16,249586
-2,-2,-3,-4,-4,-5,-3,-4,2021-08-06 13:53:16,249586
-1,-1,-3,-2,-6,-4,-1,0,2021-08-06 13:53:16,264593
2,-1,-2,-1,4,2,1,0,2021-08-06 13:53:16,280595
0,1,0,7,8,4,2,1,2021-08-06 13:53:16,296547
-3,-5,-3,-2,-4,-1,-2,-1,2021-08-06 13:53:16,296547
1,-1,-1,0,0,1,0,-2,2021-08-06 13:53:16,296547
-1,-1,-4,-3,-5,-2,-1,-2,2021-08-06 13:53:16,296547
-3,-1,0,1,-1,-1,-2,-1,2021-08-06 13:53:16,311547
-2,0,-3,-1,-5,-3,-2,-3,2021-08-06 13:53:16,327545
-2,-3,-4,-4,-3,-3,-2,-2,2021-08-06 13:53:16,327545
-1,-2,2,1,2,2,1,-1,2021-08-06 13:53:16,327545
0,-1,0,4,1,2,0,0,2021-08-06 13:53:16,327545
0,0,-1,-1,-2,-2,-1,0,2021-08-06 13:53:16,327545
3,3,3,8,11,4,2,3,2021-08-06 13:53:16,327545
-3,-2,-2,-4,-4,-2,-1,-2,2021-08-06 13:53:16,327545
0,0,-1,-4,-5,-2,3,2,2021-08-06 13:53:16,327545
-1,-2,0,-1,0,-1,1,-1,2021-08-06 13:53:16,327545
-1,-2,-3,-1,0,1,-1,-2,2021-08-06 13:53:16,358547
-3,-1,-1,-3,-7,-3,-4,-2,2021-08-06 13:53:16,374547
-1,-1,0,-2,-2,0,-4,-4,2021-08-06 13:53:16,390596
-3,-1,-1,0,2,1,-2,-1,2021-08-06 13:53:16,390596
0,0,-1,-2,-2,-2,1,-1,2021-08-06 13:53:16,390596
1,1,0,2,2,1,1,3,2021-08-06 13:53:16,390596
-2,-3,-2,-3,-2,-3,-2,-1,2021-08-06 13:53:16,390596
0,-1,-2,-2,-2,-4,-1,-3,2021-08-06 13:53:16,390596
-2,-1,1,-1,-1,1,-1,-1,2021-08-06 13:53:16,391559
0,0,0,-1,0,-1,-2,0,2021-08-06 13:53:16,391559
-1,-2,-3,-2,-5,-2,-3,0,2021-08-06 13:53:16,391559
2,-1,0,2,4,2,1,0,2021-08-06 13:53:16,391559
-1,-2,-1,0,1,-1,-1,-1,2021-08-06 13:53:16,405596
-1,-1,-2,0,-4,-3,-1,-2,2021-08-06 13:53:16,405596
0,-1,-1,-3,-2,-2,-1,-2,2021-08-06 13:53:16,405596
-1,0,-2,0,0,0,1,1,2021-08-06 13:53:16,405596
-2,-2,0,-1,-1,-1,-2,0,2021-08-06 13:53:16,420547
-2,0,0,-2,-2,0,-1,0,2021-08-06 13:53:16,436583
-4,-3,-2,-4,-6,-5,-4,-3,2021-08-06 13:53:16,467598
0,-1,-1,0,1,2,-1,0,2021-08-06 13:53:16,467598
0,0,0,0,-1,0,-2,-1,2021-08-06 13:53:16,467598
-2,-1,0,-1,0,-1,0,0,2021-08-06 13:53:16,468582
0,0,1,-1,1,0,1,1,2021-08-06 13:53:16,468582
0,-1,0,-3,-4,-3,-1,-3,2021-08-06 13:53:16,468582
0,0,0,3,5,3,1,-1,2021-08-06 13:53:16,468582
0,-3,-3,-4,-3,-2,-2,-1,2021-08-06 13:53:16,468582
0,-1,-1,1,-1,-1,-1,-3,2021-08-06 13:53:16,468582
-1,-2,1,0,1,-1,-2,-1,2021-08-06 13:53:16,468582
0,1,-2,-3,-2,-2,-2,-2,2021-08-06 13:53:16,483582
-2,0,-1,-1,-3,-2,0,-1,2021-08-06 13:53:16,483582
-2,0,-1,-1,0,0,-1,-2,2021-08-06 13:53:16,483582
-1,-1,0,-3,-3,-3,-3,-2,2021-08-06 13:53:16,483582
1,-1,-1,-1,-2,1,2,1,2021-08-06 13:53:16,498584
-1,-2,0,-1,-1,-2,-2,-1,2021-08-06 13:53:16,514594
-2,-2,-2,-1,0,1,2,1,2021-08-06 13:53:16,546547
-1,-1,1,2,0,-1,-1,-2,2021-08-06 13:53:16,546547
-2,0,-2,-2,-3,-2,-1,1,2021-08-06 13:53:16,546547
-1,-2,-2,-1,-2,1,0,0,2021-08-06 13:53:16,546547
-2,-3,-1,0,-1,-1,-2,-1,2021-08-06 13:53:16,546547
-1,0,-1,0,2,0,-1,0,2021-08-06 13:53:16,546547
-1,-1,0,-1,-2,-2,-1,-2,2021-08-06 13:53:16,546547
-4,-3,-4,-6,-8,-5,-3,-4,2021-08-06 13:53:16,547546
0,2,2,4,7,5,3,2,2021-08-06 13:53:16,578583
-2,0,0,1,1,1,0,1,2021-08-06 13:53:16,593583
-1,-1,0,2,-2,0,-1,0,2021-08-06 13:53:16,609548
0,-1,-2,1,0,0,0,-1,2021-08-06 13:53:16,625545
-1,-1,-2,-7,-11,-5,-3,-2,2021-08-06 13:53:16,641547
1,0,2,6,7,3,3,0,2021-08-06 13:53:16,641547
-3,-1,-1,-4,-1,2,-1,-2,2021-08-06 13:53:16,641547
0,-1,-1,1,2,1,0,1,2021-08-06 13:53:16,641547
-1,-1,-2,-3,-4,-3,-2,-2,2021-08-06 13:53:16,641547
-1,-1,-1,0,6,4,2,1,2021-08-06 13:53:16,641547
0,-1,0,-2,-3,-3,-4,-1,2021-08-06 13:53:16,641547
-1,0,1,2,-1,-1,0,-1,2021-08-06 13:53:16,641547
2,0,0,-1,0,0,0,1,2021-08-06 13:53:16,641547
-1,-1,-2,-4,-8,-5,-2,-2,2021-08-06 13:53:16,642582
0,0,0,1,5,1,0,1,2021-08-06 13:53:16,642582
0,1,-1,1,4,2,1,-1,2021-08-06 13:53:16,642582
1,1,-1,1,2,0,0,-1,2021-08-06 13:53:16,642582
-1,-2,-2,-6,-7,-4,-2,-1,2021-08-06 13:53:16,642582
-1,0,-5,-8,-9,-6,-2,0,2021-08-06 13:53:16,642582
0,0,2,6,4,0,1,0,2021-08-06 13:53:16,642582
-1,-2,0,1,5,2,0,-1,2021-08-06 13:53:16,642582
-1,0,0,-1,-2,-1,-1,-1,2021-08-06 13:53:16,642582
-1,1,2,10,11,5,3,0,2021-08-06 13:53:16,673545
0,1,-2,-4,-2,-2,-1,0,2021-08-06 13:53:16,673545
0,-2,-2,-1,-1,-1,-1,-1,2021-08-06 13:53:16,673545
-3,-2,-2,-5,-5,-2,-3,-2,2021-08-06 13:53:16,673545
0,-1,-3,-5,-4,0,-2,0,2021-08-06 13:53:16,673545
-1,0,-1,-4,-2,-2,-2,-1,2021-08-06 13:53:16,673545
0,0,1,1,0,-2,-2,-2,2021-08-06 13:53:16,689547
-1,0,-3,-5,-6,-3,-1,-3,2021-08-06 13:53:16,689547
-1,-1,0,3,4,3,2,0,2021-08-06 13:53:16,705546
-2,-1,0,-1,-1,-1,-3,-1,2021-08-06 13:53:16,705546
-1,1,-1,0,-2,-2,2,0,2021-08-06 13:53:16,705546
0,2,-1,3,7,4,2,0,2021-08-06 13:53:16,705546
-1,-3,-2,-4,-5,-6,-2,-4,2021-08-06 13:53:16,737545
1,-1,1,2,1,1,-1,-1,2021-08-06 13:53:16,737545
-3,-2,-2,-7,-9,-6,-4,-3,2021-08-06 13:53:16,737545
-1,2,6,3,3,3,1,1,2021-08-06 13:53:16,737545
0,-1,-1,2,3,1,2,1,2021-08-06 13:53:16,737545
-1,-4,-5,1,0,0,1,0,2021-08-06 13:53:16,737545
-1,-2,-3,-5,-7,-4,-3,-2,2021-08-06 13:53:16,753546
-1,-1,-3,-4,-7,-5,-2,-2,2021-08-06 13:53:16,753546
-1,1,2,3,-1,-2,-3,-1,2021-08-06 13:53:16,769547
0,2,1,-1,1,1,1,0,2021-08-06 13:53:16,785547
0,-2,-1,0,0,3,-1,-1,2021-08-06 13:53:16,817547
-2,-1,0,-3,0,0,1,1,2021-08-06 13:53:16,833546
-2,-2,-1,-1,-2,-3,-2,-2,2021-08-06 13:53:16,849546
-1,-3,-1,-1,0,-2,-1,-1,2021-08-06 13:53:16,865546
-2,1,-1,1,0,-1,-1,-1,2021-08-06 13:53:16,897060
-1,-3,-2,-4,-4,-2,-3,-2,2021-08-06 13:53:16,897060
0,-3,-3,-3,-5,-2,-3,-2,2021-08-06 13:53:16,897060
2,1,2,1,6,3,1,1,2021-08-06 13:53:16,897060
-1,0,2,0,4,1,2,0,2021-08-06 13:53:16,897060
0,-1,-2,2,1,-1,-2,-1,2021-08-06 13:53:16,897060
-4,-1,-3,-3,-4,-3,-2,0,2021-08-06 13:53:16,897060
-3,-2,-2,-5,-4,-5,-2,-3,2021-08-06 13:53:16,898060
-2,-2,-2,-3,-1,-4,-2,-4,2021-08-06 13:53:16,898060
-1,-2,-1,-2,-8,-2,-3,0,2021-08-06 13:53:16,898060
3,2,4,10,16,9,4,2,2021-08-06 13:53:16,898060
-3,-3,-7,-9,-11,-5,-5,-1,2021-08-06 13:53:16,898060
-1,-6,-8,-1,1,1,-2,1,2021-08-06 13:53:16,898060
-2,-2,-3,-5,-6,-3,-3,-3,2021-08-06 13:53:16,899060
0,0,0,-4,-9,-8,-3,-2,2021-08-06 13:53:16,899060
1,1,6,8,12,5,2,1,2021-08-06 13:53:16,899060
-2,2,0,0,-3,-2,0,-1,2021-08-06 13:53:16,899060
-1,-1,0,1,1,1,-1,-2,2021-08-06 13:53:16,899060
-2,-1,1,0,0,1,-1,0,2021-08-06 13:53:16,899060
-2,-2,-2,-3,-7,-3,-2,-1,2021-08-06 13:53:16,899060
-1,-1,-1,-3,-4,-2,-2,0,2021-08-06 13:53:16,899060
1,0,0,5,7,3,1,0,2021-08-06 13:53:16,899060
0,0,-1,0,3,3,0,1,2021-08-06 13:53:16,899060
-2,-1,-4,-3,-6,-4,-3,-1,2021-08-06 13:53:16,899060
1,0,1,4,4,4,1,-1,2021-08-06 13:53:16,900060
0,0,-1,2,1,-1,-1,0,2021-08-06 13:53:16,900060
0,-2,-3,-7,-3,-3,-1,-1,2021-08-06 13:53:16,913061
-2,-2,-1,-4,-6,-4,-2,-3,2021-08-06 13:53:16,913061
-1,0,2,4,8,4,1,0,2021-08-06 13:53:16,929061
-1,0,1,1,3,1,0,-1,2021-08-06 13:53:16,944060
0,-1,-1,-2,-1,-2,-1,-2,2021-08-06 13:53:16,944060
-1,0,1,-2,-3,-2,-2,-1,2021-08-06 13:53:16,944060
-1,-1,-1,-3,-4,-4,-2,1,2021-08-06 13:53:16,944060
-3,-4,-5,-4,-8,-6,-3,-3,2021-08-06 13:53:16,945061
-1,-1,-1,0,-1,3,0,1,2021-08-06 13:53:16,975060
1,1,1,6,5,3,1,-1,2021-08-06 13:53:16,975060
1,0,0,-4,-5,-3,-2,-2,2021-08-06 13:53:16,975060
2,0,0,-1,3,0,1,1,2021-08-06 13:53:16,975060
-2,-1,-3,-6,-11,-8,-5,-3,2021-08-06 13:53:16,976061
-3,-2,-2,-2,-3,-2,0,-1,2021-08-06 13:53:16,976061
0,-1,1,2,2,1,-1,0,2021-08-06 13:53:16,991100
-3,-2,-1,0,-1,-1,-2,-2,2021-08-06 13:53:16,991100
-2,0,0,-1,-3,-2,0,-1,2021-08-06 13:53:17,007063
2,0,0,3,7,3,2,1,2021-08-06 13:53:17,007063
-1,-2,0,0,-3,-2,-1,-2,2021-08-06 13:53:17,007063
-1,-2,-1,-4,-5,-3,-2,-1,2021-08-06 13:53:17,007063
0,1,2,2,6,3,0,0,2021-08-06 13:53:17,023105
0,1,0,-3,-2,-1,-2,-1,2021-08-06 13:53:17,023105
-2,0,2,-2,-3,0,-2,-1,2021-08-06 13:53:17,023105
-2,-4,-9,-3,-3,-3,-2,-2,2021-08-06 13:53:17,023105
0,-1,0,0,1,0,1,-1,2021-08-06 13:53:17,039064
-1,-2,-1,-2,0,-1,0,0,2021-08-06 13:53:17,039064
1,1,2,4,1,2,0,1,2021-08-06 13:53:17,055099
-1,0,1,-2,-4,-1,-2,-1,2021-08-06 13:53:17,071061
-1,-1,-1,0,1,0,-2,-2,2021-08-06 13:53:17,071061
0,0,1,2,2,3,1,-2,2021-08-06 13:53:17,071061
-2,-1,0,-2,-3,-3,-2,-1,2021-08-06 13:53:17,071061
-1,-1,-4,-2,-1,-1,1,-1,2021-08-06 13:53:17,071061
-2,-3,-6,-8,-7,-5,-1,-1,2021-08-06 13:53:17,087060
-1,0,-1,-5,-7,-2,-1,-1,2021-08-06 13:53:17,087060
-1,0,-1,-1,-2,-1,-2,-1,2021-08-06 13:53:17,087060
0,2,4,9,11,5,2,1,2021-08-06 13:53:17,087060
0,1,2,1,-2,-1,-1,-1,2021-08-06 13:53:17,103097
1,-1,0,0,-1,0,-1,0,2021-08-06 13:53:17,119109
-1,-2,-3,-3,2,-2,-2,0,2021-08-06 13:53:17,119109
0,-1,-2,-5,-4,-2,-2,-2,2021-08-06 13:53:17,119109
-1,-2,0,-2,-2,-2,-1,-2,2021-08-06 13:53:17,119109
1,-1,-1,0,0,-1,-1,-2,2021-08-06 13:53:17,119109
-1,0,0,4,3,2,0,0,2021-08-06 13:53:17,119109
-1,-1,0,-2,0,-3,-1,-1,2021-08-06 13:53:17,119109
-1,-2,-1,1,-1,1,-1,-2,2021-08-06 13:53:17,166109
-2,-3,-2,-3,-2,-1,-2,-1,2021-08-06 13:53:17,182062
-2,-2,-3,-3,-2,-1,-2,-3,2021-08-06 13:53:17,182062
0,1,0,1,1,-1,0,-1,2021-08-06 13:53:17,198063
-1,-1,-1,-3,-4,-4,-1,0,2021-08-06 13:53:17,230109
-1,-1,-3,-1,-5,-4,-3,0,2021-08-06 13:53:17,246100
0,-1,-2,-1,5,0,-2,0,2021-08-06 13:53:17,278102
0,0,1,3,3,4,0,-1,2021-08-06 13:53:17,294100
2,-1,-1,1,1,0,0,-1,2021-08-06 13:53:17,294100
-1,-3,-2,-4,-6,-4,-1,-1,2021-08-06 13:53:17,294100
-2,-3,-4,-2,-3,0,2,0,2021-08-06 13:53:17,294100
0,-1,0,0,-2,0,0,-1,2021-08-06 13:53:17,294100
-3,-1,0,0,2,-1,-2,-3,2021-08-06 13:53:17,294100
-3,-2,-1,-1,-3,-3,-2,-4,2021-08-06 13:53:17,294100
-1,-1,-1,-2,-9,-5,-3,-4,2021-08-06 13:53:17,294100
0,0,1,-2,-1,-3,-2,-1,2021-08-06 13:53:17,295098
0,0,-2,-3,-2,-1,-1,2,2021-08-06 13:53:17,295098
3,2,1,4,7,4,1,2,2021-08-06 13:53:17,295098
-1,-1,-2,-6,-8,-5,-2,-1,2021-08-06 13:53:17,295098
2,2,2,6,13,7,3,2,2021-08-06 13:53:17,295098
0,1,1,0,1,-1,-1,0,2021-08-06 13:53:17,295098
-2,-2,-2,-2,-1,-1,-1,-2,2021-08-06 13:53:17,295098
2,-1,0,-2,-1,-1,-2,-1,2021-08-06 13:53:17,295098
-3,-5,-5,-7,-10,-7,-3,-3,2021-08-06 13:53:17,295098
-1,-2,-2,-3,-4,-2,-1,-1,2021-08-06 13:53:17,295098
2,3,0,4,8,4,2,0,2021-08-06 13:53:17,296062
-1,-2,0,-5,-3,-3,-3,-2,2021-08-06 13:53:17,296062
-1,0,3,1,0,2,-1,0,2021-08-06 13:53:17,296062
0,-2,-5,2,1,2,1,-1,2021-08-06 13:53:17,296062
-2,-4,-4,-4,-5,-4,-2,-1,2021-08-06 13:53:17,296062
0,1,0,3,5,4,0,0,2021-08-06 13:53:17,296062
0,0,-1,-3,-5,-3,-1,-1,2021-08-06 13:53:17,296062
-1,1,3,-2,-2,1,-1,-1,2021-08-06 13:53:17,297098
0,1,3,9,12,7,2,2,2021-08-06 13:53:17,297098
0,0,-4,-6,-3,-2,-1,-2,2021-08-06 13:53:17,297098
-2,-2,-3,-6,-11,-5,-3,-2,2021-08-06 13:53:17,297098
1,2,3,1,5,3,2,0,2021-08-06 13:53:17,326062
1,0,2,2,1,0,1,0,2021-08-06 13:53:17,326062
-1,1,0,4,5,1,0,1,2021-08-06 13:53:17,326062
-3,-3,-2,-3,-3,-2,-3,-3,2021-08-06 13:53:17,326062
-2,-3,-6,-6,-7,-6,-3,-2,2021-08-06 13:53:17,342108
-1,-1,0,1,-2,-2,0,-1,2021-08-06 13:53:17,358059
-1,0,0,1,4,0,0,0,2021-08-06 13:53:17,373103
-1,-2,-5,-7,-6,-4,-2,-2,2021-08-06 13:53:17,374061
1,-2,1,1,0,2,-1,-3,2021-08-06 13:53:17,374061
-1,0,0,0,-3,-3,-4,-2,2021-08-06 13:53:17,374061
1,3,4,9,8,3,2,2,2021-08-06 13:53:17,374061
-1,1,0,2,4,3,2,3,2021-08-06 13:53:17,374061
-3,-6,-5,-10,-7,-6,-4,-3,2021-08-06 13:53:17,390060
-1,-3,-4,-6,-8,-6,-3,-1,2021-08-06 13:53:17,390060
-2,-3,-2,-6,-8,-5,-2,-2,2021-08-06 13:53:17,390060
1,6,11,16,17,8,3,2,2021-08-06 13:53:17,390060
1,2,4,5,4,4,2,2,2021-08-06 13:53:17,406109
0,-1,-2,-5,-1,3,0,0,2021-08-06 13:53:17,422100
-2,-4,-9,-8,-3,-3,-1,-2,2021-08-06 13:53:17,438062
-3,-7,-17,-3,0,0,-2,-3,2021-08-06 13:53:17,438062
-3,-4,0,-6,-6,-3,-5,-3,2021-08-06 13:53:17,438062
-2,2,3,2,3,0,0,-1,2021-08-06 13:53:17,438062
-2,-1,3,-2,-11,-7,-2,-2,2021-08-06 13:53:17,438062
0,1,6,2,2,1,-1,-1,2021-08-06 13:53:17,438062
-1,0,-4,-1,2,0,2,-1,2021-08-06 13:53:17,438062
1,1,-1,0,5,5,2,1,2021-08-06 13:53:17,439062
0,-2,-2,0,1,0,0,-3,2021-08-06 13:53:17,439062
-2,-1,-2,-4,-6,-2,-2,-1,2021-08-06 13:53:17,439062
-3,-3,1,4,1,-2,-2,-2,2021-08-06 13:53:17,454097
-2,-2,-1,-2,-3,-3,-2,-2,2021-08-06 13:53:17,454097
-2,1,3,1,-1,-1,-2,-1,2021-08-06 13:53:17,470099
2,5,10,1,-6,-4,-1,1,2021-08-06 13:53:17,486100
0,-1,-8,-5,2,0,2,2,2021-08-06 13:53:17,518061
-1,-4,-12,-4,4,-2,0,1,2021-08-06 13:53:17,518061
-1,-4,-8,0,3,3,-1,-1,2021-08-06 13:53:17,518061
-2,-3,-3,-8,-6,-3,-2,-2,2021-08-06 13:53:17,518061
-1,2,10,5,-8,-6,-3,-2,2021-08-06 13:53:17,518061
-1,0,2,8,1,2,1,-1,2021-08-06 13:53:17,518061
0,1,-1,-8,0,1,0,1,2021-08-06 13:53:17,519096
2,2,6,13,11,5,2,1,2021-08-06 13:53:17,519096
0,-2,-8,3,1,0,-1,-1,2021-08-06 13:53:17,534099
2,11,24,14,17,6,3,2,2021-08-06 13:53:17,550101
-4,-5,-3,1,-4,-4,-6,-5,2021-08-06 13:53:17,566108
2,-6,-20,-14,-7,1,2,3,2021-08-06 13:53:17,582062
-11,-18,-25,-42,-42,-29,-15,-11,2021-08-06 13:53:17,582062
-6,-9,-10,-22,-30,-18,-9,-6,2021-08-06 13:53:17,582062
-4,2,5,-1,-12,-8,-3,-2,2021-08-06 13:53:17,582062
8,11,20,32,45,24,9,6,2021-08-06 13:53:17,582062
5,8,8,23,22,15,7,6,2021-08-06 13:53:17,582062
3,2,2,3,3,2,1,1,2021-08-06 13:53:17,582062
-1,-4,-3,-12,-14,-9,-3,-2,2021-08-06 13:53:17,582062
-3,0,2,-6,1,0,-1,-1,2021-08-06 13:53:17,582062
3,8,10,19,18,10,4,3,2021-08-06 13:53:17,582062
0,-1,-1,1,-2,0,-1,0,2021-08-06 13:53:17,582062
-2,-12,-26,-17,-12,-3,-3,0,2021-08-06 13:53:17,582062
-12,-19,-17,-38,-40,-27,-12,-9,2021-08-06 13:53:17,598099
-4,-2,-5,-4,1,0,-1,-2,2021-08-06 13:53:17,598099
-1,2,7,11,4,-2,-2,-3,2021-08-06 13:53:17,598099
7,13,24,40,23,11,7,5,2021-08-06 13:53:17,598099
4,5,11,16,6,6,1,1,2021-08-06 13:53:17,598099
2,-3,-10,-10,4,5,3,4,2021-08-06 13:53:17,629096
-8,-15,-33,-61,-29,-11,-6,-5,2021-08-06 13:53:17,645096
-5,-6,-6,-20,-10,-6,-3,-4,2021-08-06 13:53:17,661097
-2,-2,-4,7,-1,-2,-1,-2,2021-08-06 13:53:17,677086
-4,2,14,13,-7,-8,-4,-2,2021-08-06 13:53:17,693108
7,8,8,24,24,15,9,7,2021-08-06 13:53:17,693108
0,0,2,-5,-8,-4,-1,0,2021-08-06 13:53:17,693108
-4,-2,1,-9,-19,-8,-5,-5,2021-08-06 13:53:17,693108
2,0,-13,8,14,8,4,1,2021-08-06 13:53:17,693108
-3,-3,4,7,0,-2,-2,-3,2021-08-06 13:53:17,693108
3,5,10,16,24,12,5,1,2021-08-06 13:53:17,693108
1,1,-2,1,-4,-2,-1,-1,2021-08-06 13:53:17,693108
0,-3,-3,-15,-10,-5,-2,-2,2021-08-06 13:53:17,693108
-5,-4,-1,0,-4,-4,-1,-1,2021-08-06 13:53:17,693108
1,1,0,9,4,1,0,1,2021-08-06 13:53:17,694062
-3,-5,-13,-18,-11,-7,-3,-2,2021-08-06 13:53:17,694062
2,7,19,7,7,6,2,1,2021-08-06 13:53:17,709108
2,0,-1,15,4,-1,-1,1,2021-08-06 13:53:17,709108
-1,0,-18,-7,5,8,4,3,2021-08-06 13:53:17,709108
-11,-18,-26,-56,-31,-18,-10,-7,2021-08-06 13:53:17,709108
-4,-4,-6,-8,1,0,-2,-1,2021-08-06 13:53:17,725066
0,2,9,11,2,2,-1,-2,2021-08-06 13:53:17,725066
1,0,7,11,5,0,2,1,2021-08-06 13:53:17,725066
3,5,7,19,6,4,2,1,2021-08-06 13:53:17,725066
1,1,8,8,9,5,1,-1,2021-08-06 13:53:17,757062
-2,-3,-5,-4,-8,-8,-3,-4,2021-08-06 13:53:17,773083
0,-1,0,1,3,1,0,-2,2021-08-06 13:53:17,778580
0,2,1,3,2,0,0,1,2021-08-06 13:53:17,778580
-1,-3,1,1,-7,-6,-3,-2,2021-08-06 13:53:17,779579
0,0,-4,-4,3,3,3,2,2021-08-06 13:53:17,779579
-4,-7,-7,-20,-23,-14,-8,-6,2021-08-06 13:53:17,779579
5,7,13,27,33,18,10,6,2021-08-06 13:53:17,779579
1,0,-2,0,-3,-1,-1,-1,2021-08-06 13:53:17,779579
-1,1,-4,1,4,2,-1,-1,2021-08-06 13:53:17,779579
-2,-3,-4,-12,-16,-9,-4,0,2021-08-06 13:53:17,788617
3,6,12,22,13,2,-1,0,2021-08-06 13:53:17,804580
2,3,1,21,20,10,5,2,2021-08-06 13:53:17,836617
-3,-7,-16,-32,-9,-1,-2,-3,2021-08-06 13:53:17,852583
-8,-10,-13,-25,-17,-11,-5,-6,2021-08-06 13:53:17,852583
-6,-10,-15,-15,-19,-12,-7,-6,2021-08-06 13:53:17,852583
0,3,8,0,3,1,2,2,2021-08-06 13:53:17,852583
1,2,14,8,0,-3,-3,-2,2021-08-06 13:53:17,852583
6,11,11,28,28,17,7,4,2021-08-06 13:53:17,853580
4,1,-4,-13,-6,1,2,1,2021-08-06 13:53:17,853580
-11,-19,-24,-32,-33,-22,-11,-9,2021-08-06 13:53:17,853580
-7,-9,-17,-14,-21,-16,-6,-4,2021-08-06 13:53:17,853580
2,2,10,16,15,8,4,0,2021-08-06 13:53:17,853580
0,7,13,23,8,3,-1,1,2021-08-06 13:53:17,853580
7,9,7,6,11,10,5,3,2021-08-06 13:53:17,868618
-4,-3,-2,-10,-8,-3,-2,-1,2021-08-06 13:53:17,884579
-3,0,2,8,7,1,-2,-1,2021-08-06 13:53:17,900622
3,1,-4,-6,3,4,3,1,2021-08-06 13:53:17,916627
-1,-1,-3,0,0,0,-2,0,2021-08-06 13:53:17,916627
-2,-3,-3,-8,-7,-4,-3,-3,2021-08-06 13:53:17,916627
4,9,24,46,21,9,2,3,2021-08-06 13:53:17,916627
1,4,10,22,18,7,2,2,2021-08-06 13:53:17,916627
-1,-6,-26,-39,-23,-5,-2,1,2021-08-06 13:53:17,916627
-16,-24,-38,-82,-51,-27,-16,-14,2021-08-06 13:53:17,917628
-7,-9,-17,-26,-23,-14,-7,-4,2021-08-06 13:53:17,917628
0,2,8,11,8,2,0,-1,2021-08-06 13:53:17,917628
5,10,25,45,19,8,4,2,2021-08-06 13:53:17,932617
9,9,17,36,26,17,9,7,2021-08-06 13:53:17,948617
-2,-4,-13,-22,-19,-10,-5,-4,2021-08-06 13:53:17,948617
0,1,9,18,1,-5,-2,-3,2021-08-06 13:53:17,948617
4,5,2,16,7,5,3,2,2021-08-06 13:53:17,948617
3,0,-8,-21,11,11,7,3,2021-08-06 13:53:17,948617
-10,-14,-15,-37,-25,-13,-8,-8,2021-08-06 13:53:17,948617
-2,-4,-14,-6,-6,-2,-3,-3,2021-08-06 13:53:17,948617
-1,0,3,-4,-1,-5,-3,-1,2021-08-06 13:53:17,964617
5,7,15,29,3,5,4,3,2021-08-06 13:53:17,980615
2,2,2,9,8,4,1,1,2021-08-06 13:53:17,996617
-3,-6,-8,-18,-14,-7,-3,-3,2021-08-06 13:53:18,012617
-2,0,6,14,14,6,2,-1,2021-08-06 13:53:18,012617
2,6,8,23,16,7,1,1,2021-08-06 13:53:18,012617
3,4,2,1,6,4,4,4,2021-08-06 13:53:18,012617
-4,-3,-10,-20,-16,-7,-3,-4,2021-08-06 13:53:18,012617
-5,-7,-7,-13,-15,-13,-7,-5,2021-08-06 13:53:18,012617
2,1,6,18,11,6,1,2,2021-08-06 13:53:18,013615
2,1,0,-10,2,4,3,1,2021-08-06 13:53:18,013615
-6,-8,-5,-15,-19,-11,-7,-4,2021-08-06 13:53:18,013615
-1,-2,-5,0,-2,0,2,1,2021-08-06 13:53:18,028578
1,2,4,3,5,1,1,-1,2021-08-06 13:53:18,028808
0,-2,-11,7,7,5,4,1,2021-08-06 13:53:18,028808
-4,-9,-10,-20,-1,-2,-2,-2,2021-08-06 13:53:18,028808
-4,-4,-5,-16,-15,-9,-4,-5,2021-08-06 13:53:18,044046
4,5,10,18,4,0,0,0,2021-08-06 13:53:18,044046
2,4,9,9,1,0,-2,-1,2021-08-06 13:53:18,044046
3,2,3,6,1,2,0,2,2021-08-06 13:53:18,044046
-4,-5,-5,-7,-7,-2,-3,-3,2021-08-06 13:53:18,076036
5,9,13,34,36,14,8,5,2021-08-06 13:53:18,092000
0,0,1,7,1,1,1,0,2021-08-06 13:53:18,092000
-2,-4,-11,-23,-11,-1,-3,-2,2021-08-06 13:53:18,092000
-3,0,11,-3,-5,-9,-5,-4,2021-08-06 13:53:18,092000
0,1,0,4,-7,-3,-2,-1,2021-08-06 13:53:18,092000
0,-4,-12,-16,-5,-2,-1,-1,2021-08-06 13:53:18,092000
-12,-15,-12,-27,-22,-17,-8,-7,2021-08-06 13:53:18,092000
-1,-2,-6,-12,-10,-6,-4,-1,2021-08-06 13:53:18,108000
-1,-1,-4,4,1,1,0,-1,2021-08-06 13:53:18,124035
4,8,17,33,19,9,3,2,2021-08-06 13:53:18,124035
1,3,2,9,3,3,3,0,2021-08-06 13:53:18,124035
3,4,10,0,0,0,2,2,2021-08-06 13:53:18,124035
-1,-1,2,14,17,8,3,1,2021-08-06 13:53:18,124035
-12,-16,-20,-28,-21,-12,-9,-9,2021-08-06 13:53:18,124035
11,9,5,17,23,15,9,8,2021-08-06 13:53:18,124035
0,0,3,3,4,4,1,-1,2021-08-06 13:53:18,140011
-5,-3,-1,-21,-31,-19,-10,-5,2021-08-06 13:53:18,155999
3,7,15,4,10,4,2,2,2021-08-06 13:53:18,172035
-3,-3,-5,3,0,-2,-3,-1,2021-08-06 13:53:18,172035
0,-7,-21,0,0,-1,-1,-1,2021-08-06 13:53:18,172035
-4,-11,-7,-19,-15,-6,-3,-4,2021-08-06 13:53:18,172035
-7,-8,-15,-26,-28,-15,-9,-7,2021-08-06 13:53:18,172035
5,8,4,15,16,11,8,4,2021-08-06 13:53:18,172035
1,6,16,12,15,8,3,1,2021-08-06 13:53:18,188042
-3,-2,-13,-15,-12,-7,-3,-3,2021-08-06 13:53:18,201035
0,1,9,11,3,-4,-2,0,2021-08-06 13:53:18,201035
3,7,10,5,-10,-4,0,1,2021-08-06 13:53:18,201035
-2,-2,-9,-6,12,11,5,1,2021-08-06 13:53:18,201035
-9,-11,-19,-33,-18,-13,-6,-6,2021-08-06 13:53:18,201035
6,5,14,19,13,6,4,3,2021-08-06 13:53:18,235996
0,2,0,7,4,0,-3,-2,2021-08-06 13:53:18,235996
-2,-5,-2,-14,-19,-7,-6,-2,2021-08-06 13:53:18,235996
-2,2,10,14,15,6,1,-1,2021-08-06 13:53:18,235996
4,6,-2,10,9,6,4,3,2021-08-06 13:53:18,235996
-1,4,16,22,5,0,0,-2,2021-08-06 13:53:18,235996
-1,-4,-18,-13,-10,-7,-4,-2,2021-08-06 13:53:18,252048
-4,-9,-24,-56,-34,-13,-7,-5,2021-08-06 13:53:18,268048
-4,-6,-3,0,6,0,-3,-3,2021-08-06 13:53:18,284034
1,1,9,23,16,5,1,2,2021-08-06 13:53:18,284034
2,6,9,11,5,4,2,-1,2021-08-06 13:53:18,284034
-2,-5,-13,-18,-17,-8,-5,-3,2021-08-06 13:53:18,284034
-3,-5,-3,-10,-10,-7,-6,-2,2021-08-06 13:53:18,284034
-2,0,3,-2,-7,-5,-4,-2,2021-08-06 13:53:18,284034
4,5,11,36,25,13,5,5,2021-08-06 13:53:18,284034
2,3,4,-1,5,5,3,1,2021-08-06 13:53:18,285034
-5,-5,-10,-16,-21,-14,-5,-4,2021-08-06 13:53:18,285034
-1,-1,-4,2,-2,-3,0,0,2021-08-06 13:53:18,285034
1,0,-3,-2,-7,-5,-2,0,2021-08-06 13:53:18,316034
1,1,12,14,21,12,5,2,2021-08-06 13:53:18,332035
0,-3,-17,-11,-5,1,-2,1,2021-08-06 13:53:18,332035
-5,-5,-12,-20,-8,-5,-4,-3,2021-08-06 13:53:18,332035
-1,-3,6,7,2,-3,0,-1,2021-08-06 13:53:18,332035
2,4,11,28,7,2,2,2,2021-08-06 13:53:18,332035
0,0,0,-14,-8,-5,-2,-2,2021-08-06 13:53:18,332035
2,4,9,22,25,15,4,3,2021-08-06 13:53:18,332035
2,2,3,-14,-9,-1,1,2,2021-08-06 13:53:18,348035
-6,-10,-18,-25,-24,-16,-9,-6,2021-08-06 13:53:18,363036
-3,-2,-6,-5,-3,0,0,-1,2021-08-06 13:53:18,363036
-2,-3,-3,1,-5,-4,-3,-2,2021-08-06 13:53:18,363036
-3,-3,-14,-17,4,2,0,-1,2021-08-06 13:53:18,363036
5,8,12,18,17,8,5,4,2021-08-06 13:53:18,363036
-1,1,4,-1,-14,-9,-3,-3,2021-08-06 13:53:18,363036
2,2,2,18,23,16,7,5,2021-08-06 13:53:18,363036
-1,-1,2,1,0,-2,-4,-2,2021-08-06 13:53:18,395036
-2,-3,0,1,-5,-3,-3,-2,2021-08-06 13:53:18,395036
-3,-5,-9,-10,-7,-5,-2,-2,2021-08-06 13:53:18,395036
-4,-9,-5,-22,-24,-15,-7,-4,2021-08-06 13:53:18,395036
0,2,-4,15,11,5,2,1,2021-08-06 13:53:18,410999
2,4,9,20,11,5,1,1,2021-08-06 13:53:18,410999
6,7,7,3,13,9,4,4,2021-08-06 13:53:18,410999
0,-1,1,-6,-5,-2,-2,-2,2021-08-06 13:53:18,410999
-5,-6,-9,-16,-13,-8,-4,-4,2021-08-06 13:53:18,427051
-1,0,-10,-14,-13,-7,-6,-1,2021-08-06 13:53:18,443048
0,-4,0,10,17,14,6,1,2021-08-06 13:53:18,459000
-1,1,-1,-2,-2,-4,-3,-2,2021-08-06 13:53:18,459000
4,5,24,15,-6,-2,2,0,2021-08-06 13:53:18,459000
-5,-11,-25,-31,-13,-9,-6,-3,2021-08-06 13:53:18,459000
-5,-11,-22,-15,-10,-7,-6,-3,2021-08-06 13:53:18,459000
-3,-3,-3,-14,-7,-4,-2,-4,2021-08-06 13:53:18,459000
1,4,12,37,24,9,1,1,2021-08-06 13:53:18,460000
2,6,16,16,-2,0,0,2,2021-08-06 13:53:18,460000
0,4,1,-15,4,4,1,0,2021-08-06 13:53:18,460000
-2,-4,-4,-11,-10,-7,-3,-1,2021-08-06 13:53:18,460000
1,4,11,7,1,-2,-3,-3,2021-08-06 13:53:18,490999
4,2,1,19,10,6,4,3,2021-08-06 13:53:18,506999
0,-2,-13,-16,-4,0,-1,0,2021-08-06 13:53:18,506999
-9,-11,-18,-20,-14,-12,-8,-9,2021-08-06 13:53:18,506999
-1,-1,-1,-4,1,-1,-2,0,2021-08-06 13:53:18,506999
5,10,15,14,1,-2,0,2,2021-08-06 13:53:18,506999
4,6,12,11,8,12,7,5,2021-08-06 13:53:18,507998
-1,-1,-2,-3,3,-1,0,-2,2021-08-06 13:53:18,507998
-7,-6,-14,-15,-13,-9,-6,-6,2021-08-06 13:53:18,523048
-3,-2,9,16,7,1,0,-2,2021-08-06 13:53:18,539048
-2,-2,7,12,-14,-11,-5,-4,2021-08-06 13:53:18,555048
5,3,-10,-16,16,13,8,5,2021-08-06 13:53:18,571035
-1,-5,-15,-25,-10,-2,-2,-2,2021-08-06 13:53:18,582035
-3,-4,-9,-11,-7,-4,-2,-3,2021-08-06 13:53:18,582035
-3,-3,-6,5,-6,-7,-5,-4,2021-08-06 13:53:18,582999
2,3,11,21,8,5,4,2,2021-08-06 13:53:18,582999
0,2,9,14,-1,-5,0,-1,2021-08-06 13:53:18,582999
8,7,15,18,16,14,9,7,2021-08-06 13:53:18,582999
-5,-2,-1,-21,-17,-9,-4,-3,2021-08-06 13:53:18,582999
-3,-5,-16,-10,-4,-1,-2,-1,2021-08-06 13:53:18,582999
-5,-7,-14,-24,-12,-7,-5,-4,2021-08-06 13:53:18,582999
-2,-4,-2,4,5,3,0,-3,2021-08-06 13:53:18,584036
4,6,15,22,18,8,4,3,2021-08-06 13:53:18,584036
2,4,14,6,-16,-11,-3,0,2021-08-06 13:53:18,584036
0,-3,-12,-4,9,7,1,1,2021-08-06 13:53:18,619048
-5,-9,-18,-14,2,1,-3,-3,2021-08-06 13:53:18,619048
-3,-4,3,-5,-3,-2,-2,-1,2021-08-06 13:53:18,619048
-1,-1,-2,-6,-5,-3,-1,-2,2021-08-06 13:53:18,619048
0,0,4,1,-11,-5,0,0,2021-08-06 13:53:18,651035
5,6,10,31,36,15,7,2,2021-08-06 13:53:18,651035
0,2,-1,0,3,6,3,-1,2021-08-06 13:53:18,651035
-5,-8,-10,-35,-29,-13,-7,-4,2021-08-06 13:53:18,651035
-5,-5,-6,-16,-9,-6,-3,-5,2021-08-06 13:53:18,651035
-2,-1,-8,6,1,-2,-3,-2,2021-08-06 13:53:18,651035
7,5,16,31,17,6,4,3,2021-08-06 13:53:18,652034
-2,-1,-4,5,3,2,-1,-1,2021-08-06 13:53:18,652034
1,1,3,-11,9,6,3,1,2021-08-06 13:53:18,667047
-2,0,6,-1,-6,-3,-2,-1,2021-08-06 13:53:18,667047
-1,0,-10,6,-2,-2,0,-1,2021-08-06 13:53:18,667047
-4,-9,-8,-12,-12,-6,-3,-4,2021-08-06 13:53:18,667047
-3,-1,3,8,1,-4,-5,-1,2021-08-06 13:53:18,699035
2,11,16,13,12,6,2,3,2021-08-06 13:53:18,699035
4,0,1,11,7,5,4,3,2021-08-06 13:53:18,699035
-3,-7,-18,-29,-10,-4,-4,-3,2021-08-06 13:53:18,699035
-8,-11,-21,-29,-24,-15,-8,-6,2021-08-06 13:53:18,699035
-7,-9,-8,-18,-21,-11,-7,-5,2021-08-06 13:53:18,699035
-4,-1,15,9,0,-5,-5,-1,2021-08-06 13:53:18,714048
9,12,14,44,31,17,9,7,2021-08-06 13:53:18,714048
7,5,6,9,10,9,6,5,2021-08-06 13:53:18,730048
-7,-9,-14,-31,-35,-18,-9,-6,2021-08-06 13:53:18,744999
-4,-1,1,-6,-6,-4,-4,-4,2021-08-06 13:53:18,744999
0,-2,3,-4,1,-1,-1,0,2021-08-06 13:53:18,744999
1,1,-10,4,0,1,1,1,2021-08-06 13:53:18,744999
3,4,0,11,7,2,2,1,2021-08-06 13:53:18,744999
0,0,-4,2,4,3,1,-1,2021-08-06 13:53:18,744999
-4,-2,4,-14,-7,-6,-5,-4,2021-08-06 13:53:18,744999
-6,-8,-3,-23,-29,-15,-6,-5,2021-08-06 13:53:18,776048
5,4,3,22,35,18,9,5,2021-08-06 13:53:18,792049
5,11,20,30,25,10,5,4,2021-08-06 13:53:18,792049
3,4,-4,23,8,6,3,3,2021-08-06 13:53:18,792049
-3,-8,-9,-33,-16,-8,-1,-1,2021-08-06 13:53:18,792049
-9,-13,-15,-30,-40,-23,-11,-9,2021-08-06 13:53:18,792049
2,2,-3,-2,2,0,0,1,2021-08-06 13:53:18,792049
1,2,11,8,9,3,1,2,2021-08-06 13:53:18,808184
-2,0,-4,6,10,5,1,-1,2021-08-06 13:53:18,808184
-3,-5,-6,-5,-6,-5,-2,-3,2021-08-06 13:53:18,808184
-2,-2,-1,1,3,0,-2,-1,2021-08-06 13:53:18,824182
1,1,0,10,-4,-1,-1,-1,2021-08-06 13:53:18,824182
1,0,-5,-18,2,1,-2,1,2021-08-06 13:53:18,824182
0,2,6,5,9,3,2,3,2021-08-06 13:53:18,824182
-2,-2,-5,-1,-14,-9,-5,-5,2021-08-06 13:53:18,840148
0,0,-5,-22,-5,0,1,1,2021-08-06 13:53:18,840148
1,0,14,26,16,10,2,2,2021-08-06 13:53:18,856148
-4,-2,-4,-6,-13,-8,-4,-5,2021-08-06 13:53:18,856148
1,0,-2,0,4,0,1,-2,2021-08-06 13:53:18,856148
-2,-4,-12,-3,-14,-11,-5,-1,2021-08-06 13:53:18,856148
1,2,2,-1,12,10,6,1,2021-08-06 13:53:18,871188
-6,-7,-8,-25,-14,-11,-7,-4,2021-08-06 13:53:18,887158
0,-1,3,14,10,4,2,-1,2021-08-06 13:53:18,903172
2,7,18,17,4,0,1,0,2021-08-06 13:53:18,903172
-1,-1,-7,-6,-6,-3,-2,0,2021-08-06 13:53:18,903172
-2,-8,-16,-19,-12,-4,-3,-2,2021-08-06 13:53:18,903172
-5,-5,-7,-17,-11,-7,-4,-5,2021-08-06 13:53:18,903172
1,5,11,9,12,6,3,1,2021-08-06 13:53:18,903172
-4,-5,1,16,-12,-13,-8,-5,2021-08-06 13:53:18,904186
8,8,8,18,26,19,12,7,2021-08-06 13:53:18,904186
-4,-6,-17,-16,-1,0,-2,-1,2021-08-06 13:53:18,904186
-4,-4,-4,-9,-16,-10,-7,-7,2021-08-06 13:53:18,904186
-1,-1,2,8,-2,-2,-1,-4,2021-08-06 13:53:18,934185
2,8,13,7,5,3,1,2,2021-08-06 13:53:18,950184
3,3,4,2,0,4,2,2,2021-08-06 13:53:18,950184
0,-2,-7,-8,3,1,0,0,2021-08-06 13:53:18,950184
-3,-2,-3,-10,-13,-9,-5,-3,2021-08-06 13:53:18,950184
-9,-13,-17,-4,-19,-17,-9,-7,2021-08-06 13:53:18,950184
2,-2,-4,-28,-8,2,4,3,2021-08-06 13:53:18,950184
-2,-1,0,9,14,5,0,-1,2021-08-06 13:53:18,950184
2,3,5,20,11,2,2,0,2021-08-06 13:53:18,966196
