EMG 1,EMG 2,EMG 3,EMG 4,EMG 5,EMG 6,EMG 7,EMG 8,Timestamp,Milliseconds
6,8,10,20,27,12,5,4,2021-08-06 13:56:54,664112
3,5,5,9,3,1,1,1,2021-08-06 13:56:54,664112
2,2,4,7,0,0,0,0,2021-08-06 13:56:54,664112
0,-3,-5,2,-6,-2,-1,0,2021-08-06 13:56:54,664112
3,2,-9,-36,-9,2,2,3,2021-08-06 13:56:54,664112
-4,-8,-9,-13,-6,-3,-3,-3,2021-08-06 13:56:54,664112
-3,-2,5,7,-5,-9,-5,-3,2021-08-06 13:56:54,664112
0,2,7,34,11,6,3,2,2021-08-06 13:56:54,664112
-2,-4,-11,-26,-8,-1,1,-1,2021-08-06 13:56:54,680113
-4,-9,-3,-38,-21,-12,-6,-4,2021-08-06 13:56:54,680113
-3,-3,-26,-10,-6,-4,-4,-1,2021-08-06 13:56:54,680113
-7,-8,0,-12,-19,-15,-10,-7,2021-08-06 13:56:54,680113
4,7,6,40,20,10,6,3,2021-08-06 13:56:54,696100
2,3,7,0,1,1,0,-1,2021-08-06 13:56:54,712099
-3,-5,7,6,6,2,1,0,2021-08-06 13:56:54,712099
3,6,9,-3,-13,-8,-2,0,2021-08-06 13:56:54,712099
0,3,4,22,32,16,3,1,2021-08-06 13:56:54,712099
-2,0,-4,-6,-6,-2,-1,-1,2021-08-06 13:56:54,712099
-3,-1,1,0,-2,-1,1,-1,2021-08-06 13:56:54,728117
-3,-3,-3,-1,-5,-8,-5,-4,2021-08-06 13:56:54,728117
5,5,15,29,23,16,8,6,2021-08-06 13:56:54,744097
3,5,2,0,8,8,4,3,2021-08-06 13:56:54,744097
-4,-9,-21,-23,-22,-10,-6,-5,2021-08-06 13:56:54,744097
-10,-16,-32,-67,-31,-17,-8,-8,2021-08-06 13:56:54,744097
9,10,19,42,27,16,9,6,2021-08-06 13:56:54,806063
3,7,9,18,12,9,4,1,2021-08-06 13:56:54,812060
-2,-2,-1,-6,-1,1,-1,1,2021-08-06 13:56:54,812060
-3,-4,1,-2,0,1,0,-2,2021-08-06 13:56:54,812060
-6,-7,-13,-12,-12,-11,-4,-2,2021-08-06 13:56:54,812060
4,2,9,13,8,4,3,3,2021-08-06 13:56:54,812060
-1,0,4,23,19,7,-2,-2,2021-08-06 13:56:54,813098
3,4,3,-7,-5,-1,2,1,2021-08-06 13:56:54,813098
2,2,-1,-2,1,0,1,2,2021-08-06 13:56:54,813098
-2,-3,-6,1,0,0,-1,-1,2021-08-06 13:56:54,813098
-5,-8,-24,-54,-39,-18,-7,-4,2021-08-06 13:56:54,813098
-8,-13,-11,-19,3,1,-2,-7,2021-08-06 13:56:54,813098
-6,-6,-3,-1,0,-6,-4,-6,2021-08-06 13:56:54,813098
1,3,4,9,0,-1,-1,0,2021-08-06 13:56:54,813098
3,6,15,27,8,4,2,3,2021-08-06 13:56:54,837062
5,7,14,20,7,2,0,4,2021-08-06 13:56:54,853097
1,0,-6,-2,-13,-2,0,0,2021-08-06 13:56:54,853097
-4,-7,-8,-16,-4,-4,-4,-3,2021-08-06 13:56:54,853097
2,2,5,2,21,12,9,4,2021-08-06 13:56:54,869099
-2,1,-9,-11,-11,-7,-4,-2,2021-08-06 13:56:54,885098
5,10,21,35,30,16,8,5,2021-08-06 13:56:54,885098
1,0,-7,2,1,0,2,0,2021-08-06 13:56:54,885098
-8,-10,-13,-38,-31,-17,-10,-8,2021-08-06 13:56:54,885098
-5,-1,-3,-1,-2,-4,-3,-3,2021-08-06 13:56:54,885098
0,1,5,12,9,4,1,0,2021-08-06 13:56:54,885098
2,7,9,19,2,-3,-1,0,2021-08-06 13:56:54,885098
3,-3,-14,9,5,4,3,1,2021-08-06 13:56:54,901111
-6,-8,-4,-26,-16,-7,-6,-3,2021-08-06 13:56:54,901111
-8,-8,-10,-33,-14,-8,-6,-6,2021-08-06 13:56:54,901111
-3,-3,-17,-8,-2,0,1,-1,2021-08-06 13:56:54,901111
-4,-2,-1,-13,-9,-10,-5,-2,2021-08-06 13:56:54,933098
1,1,4,22,4,1,1,1,2021-08-06 13:56:54,933098
1,1,7,-5,-12,-8,-3,-1,2021-08-06 13:56:54,933098
-4,-2,2,-8,-15,-3,-3,-4,2021-08-06 13:56:54,933098
6,8,16,53,61,29,11,3,2021-08-06 13:56:54,933098
5,3,3,8,-5,1,4,4,2021-08-06 13:56:54,933098
3,5,5,8,17,9,4,3,2021-08-06 13:56:54,949097
-4,-6,-4,-15,-35,-23,-10,-6,2021-08-06 13:56:54,965097
1,3,2,2,-6,0,3,1,2021-08-06 13:56:54,981063
-2,-6,-9,-17,-1,-1,-1,-3,2021-08-06 13:56:54,997097
-7,-7,-17,-28,-27,-15,-9,-6,2021-08-06 13:56:54,997097
-1,-3,12,41,29,5,-2,-1,2021-08-06 13:56:54,997097
-1,3,4,16,-13,-7,-1,-1,2021-08-06 13:56:54,997097
1,0,-17,-71,-17,-2,-1,1,2021-08-06 13:56:54,997097
-12,-17,-22,-47,-51,-28,-15,-11,2021-08-06 13:56:54,997097
7,11,16,19,43,26,14,9,2021-08-06 13:56:54,997097
1,0,-3,22,10,3,0,-1,2021-08-06 13:56:54,997097
2,-1,5,27,12,6,2,1,2021-08-06 13:56:54,997097
-5,-9,-15,-10,-8,-6,-6,-5,2021-08-06 13:56:55,013112
-7,-7,0,-24,-31,-18,-11,-5,2021-08-06 13:56:55,013112
9,14,19,29,27,17,11,7,2021-08-06 13:56:55,045097
2,5,6,30,29,16,7,2,2021-08-06 13:56:55,060062
5,3,8,-4,3,5,2,1,2021-08-06 13:56:55,060062
-4,-5,-8,-14,-13,-9,-5,-5,2021-08-06 13:56:55,060062
0,-2,-3,-16,-15,-5,-3,-1,2021-08-06 13:56:55,060062
-6,-6,-3,3,-13,-11,-7,-5,2021-08-06 13:56:55,060062
-3,-3,3,6,-9,-4,-3,-3,2021-08-06 13:56:55,060062
9,11,18,40,58,27,14,9,2021-08-06 13:56:55,060062
-5,-5,-12,-15,-23,-12,-7,-3,2021-08-06 13:56:55,060062
-4,-5,-20,-52,-32,-15,-8,-4,2021-08-06 13:56:55,060062
-3,-2,4,-3,5,1,-1,-2,2021-08-06 13:56:55,060062
-3,-4,-19,-19,-19,-8,-3,-3,2021-08-06 13:56:55,061062
-2,-1,13,21,11,4,-1,-2,2021-08-06 13:56:55,091112
2,5,19,60,22,6,1,0,2021-08-06 13:56:55,107097
-1,-6,-22,-33,-7,-1,-2,-1,2021-08-06 13:56:55,123100
5,2,-7,-41,-24,-4,1,1,2021-08-06 13:56:55,123100
-5,-2,7,-6,-11,-11,-7,-6,2021-08-06 13:56:55,123100
4,6,9,23,20,10,5,4,2021-08-06 13:56:55,123100
-2,-2,-11,11,-4,-2,-1,-2,2021-08-06 13:56:55,123100
-1,-1,18,9,-1,-1,-2,-1,2021-08-06 13:56:55,123100
2,-3,-10,-1,6,1,0,2,2021-08-06 13:56:55,123100
-1,-4,-2,-10,-6,-2,0,-2,2021-08-06 13:56:55,124100
-5,-6,-12,-28,-15,-7,-4,-2,2021-08-06 13:56:55,124100
-8,-10,-28,-15,-12,-11,-7,-7,2021-08-06 13:56:55,124100
0,2,13,3,13,6,1,0,2021-08-06 13:56:55,154062
-2,0,11,24,-8,-9,-6,-3,2021-08-06 13:56:55,154062
21,28,47,83,74,43,24,17,2021-08-06 13:56:55,154062
3,2,-6,-22,-11,-2,1,1,2021-08-06 13:56:55,154062
-8,-14,-23,-64,-35,-15,-8,-6,2021-08-06 13:56:55,160060
-8,-10,-11,-22,-11,-8,-8,-7,2021-08-06 13:56:55,160060
1,2,1,28,21,5,1,2,2021-08-06 13:56:55,160060
1,8,33,59,30,11,3,1,2021-08-06 13:56:55,160060
8,7,-10,6,-6,5,7,7,2021-08-06 13:56:55,185111
-3,-9,-25,-85,-7,2,2,-1,2021-08-06 13:56:55,185111
-22,-28,-36,-46,-51,-36,-24,-19,2021-08-06 13:56:55,185111
-1,-1,-8,-3,-5,-4,-2,-2,2021-08-06 13:56:55,185111
-3,1,17,20,-6,-9,-4,-3,2021-08-06 13:56:55,201111
9,12,18,48,22,12,8,6,2021-08-06 13:56:55,217061
11,15,27,39,34,21,12,9,2021-08-06 13:56:55,217061
-5,-8,-13,-39,-16,-4,-4,-4,2021-08-06 13:56:55,217061
-7,-8,-8,-17,-20,-11,-9,-7,2021-08-06 13:56:55,217061
1,4,5,15,2,-1,-1,2,2021-08-06 13:56:55,217061
4,4,12,27,27,14,7,4,2021-08-06 13:56:55,233060
-3,-4,2,10,1,-2,-3,-3,2021-08-06 13:56:55,233060
7,6,6,3,20,12,6,5,2021-08-06 13:56:55,233060
-7,-5,-16,-7,-10,-5,-6,-5,2021-08-06 13:56:55,233060
-9,-14,-21,-52,-47,-24,-12,-8,2021-08-06 13:56:55,249103
-3,-5,-10,-13,10,7,3,1,2021-08-06 13:56:55,249103
-4,-4,3,-2,-8,-8,-4,-5,2021-08-06 13:56:55,265111
9,9,16,46,29,14,10,7,2021-08-06 13:56:55,281062
3,5,18,2,-8,-2,0,0,2021-08-06 13:56:55,313096
1,-3,-18,4,11,1,1,-1,2021-08-06 13:56:55,313096
-2,-4,10,-4,-2,-3,-2,-3,2021-08-06 13:56:55,313096
1,4,0,23,22,11,3,2,2021-08-06 13:56:55,313096
0,-5,-19,-5,-1,0,-1,-1,2021-08-06 13:56:55,313096
-4,-5,-9,-36,-29,-12,-6,-5,2021-08-06 13:56:55,313096
-5,-6,-7,-27,-18,-12,-5,-6,2021-08-06 13:56:55,313096
-1,-2,3,-4,-2,-2,-1,-1,2021-08-06 13:56:55,313096
0,4,13,2,-10,-7,-1,-2,2021-08-06 13:56:55,314101
1,5,14,50,38,14,4,1,2021-08-06 13:56:55,314101
12,14,14,42,27,22,11,9,2021-08-06 13:56:55,329096
2,0,4,-20,14,12,5,1,2021-08-06 13:56:55,345096
-5,-3,-13,-15,-20,-9,-6,-3,2021-08-06 13:56:55,345096
-9,-14,-17,-46,-39,-20,-11,-7,2021-08-06 13:56:55,345096
-5,-7,-3,2,-2,-4,-4,-1,2021-08-06 13:56:55,345096
1,2,2,14,-6,-10,-4,0,2021-08-06 13:56:55,345096
2,1,-5,8,18,10,4,3,2021-08-06 13:56:55,345096
1,-1,11,-6,-9,-4,0,0,2021-08-06 13:56:55,345096
-3,-2,-14,0,5,2,-2,-1,2021-08-06 13:56:55,360063
-2,-5,0,-3,-16,-10,-5,-4,2021-08-06 13:56:55,360063
1,6,11,11,13,6,4,2,2021-08-06 13:56:55,360063
1,-1,0,-4,-19,-8,-2,-1,2021-08-06 13:56:55,360063
-3,-3,-10,-27,-6,-4,-3,-2,2021-08-06 13:56:55,390290
-5,-6,-13,-6,-6,-6,-3,-3,2021-08-06 13:56:55,390290
-1,-3,0,0,3,2,1,0,2021-08-06 13:56:55,390290
6,7,10,7,-2,0,3,5,2021-08-06 13:56:55,390290
0,2,0,8,5,3,1,-2,2021-08-06 13:56:55,405863
-1,0,1,0,4,1,0,-2,2021-08-06 13:56:55,405863
-3,-4,-3,-6,-2,-6,-4,-4,2021-08-06 13:56:55,405863
-3,-4,-5,-1,-6,-2,-3,-2,2021-08-06 13:56:55,405863
0,0,-2,3,-3,-2,0,0,2021-08-06 13:56:55,421815
-3,-4,-3,-15,-25,-14,-8,-4,2021-08-06 13:56:55,437815
-1,0,1,2,10,5,1,-2,2021-08-06 13:56:55,437815
5,5,2,6,8,9,6,4,2021-08-06 13:56:55,437815
1,-1,-6,-13,-9,-6,-2,-1,2021-08-06 13:56:55,437815
-2,-2,1,2,-6,-3,-2,-1,2021-08-06 13:56:55,437815
1,0,-1,1,-1,-2,-2,0,2021-08-06 13:56:55,437815
-1,0,-2,1,-4,-3,-4,-1,2021-08-06 13:56:55,437815
-4,-5,-5,-9,-7,-4,-5,-5,2021-08-06 13:56:55,469866
0,-2,-6,-11,-7,-3,0,0,2021-08-06 13:56:55,485850
0,-1,1,-1,-2,0,-1,1,2021-08-06 13:56:55,500816
-3,-2,-4,-4,-1,0,-1,-2,2021-08-06 13:56:55,500816
2,3,6,4,3,-1,-1,0,2021-08-06 13:56:55,501818
-4,-1,3,5,-2,-3,-1,-2,2021-08-06 13:56:55,501818
2,2,1,-2,-1,0,0,1,2021-08-06 13:56:55,501818
-7,-9,-10,-14,-5,-4,-4,-7,2021-08-06 13:56:55,501818
3,5,8,20,22,12,6,5,2021-08-06 13:56:55,517815
0,0,0,-10,-11,-4,-2,0,2021-08-06 13:56:55,517815
-2,-1,7,9,-4,-4,-3,-1,2021-08-06 13:56:55,517815
4,11,26,37,17,4,3,0,2021-08-06 13:56:55,517815
-4,-8,-26,-26,-23,-12,-6,-5,2021-08-06 13:56:55,517815
-4,-10,-26,-47,-6,3,1,0,2021-08-06 13:56:55,517815
-10,-15,-7,-31,-21,-14,-9,-8,2021-08-06 13:56:55,533814
1,1,-13,8,22,10,4,3,2021-08-06 13:56:55,549816
-1,1,17,23,7,1,0,0,2021-08-06 13:56:55,565863
6,11,18,29,4,2,0,3,2021-08-06 13:56:55,581850
2,3,3,6,4,3,3,2,2021-08-06 13:56:55,597815
2,2,6,0,7,6,2,3,2021-08-06 13:56:55,597815
0,0,-5,-5,0,-1,-1,0,2021-08-06 13:56:55,597815
-2,-4,-4,0,-4,-5,-4,-2,2021-08-06 13:56:55,597815
-3,-1,-4,-7,-6,-5,-2,-3,2021-08-06 13:56:55,597815
1,2,3,2,-4,-3,-1,-2,2021-08-06 13:56:55,597815
2,1,-1,11,30,15,8,3,2021-08-06 13:56:55,597815
-4,-5,-3,-6,-7,-5,-4,-3,2021-08-06 13:56:55,598816
-2,0,-5,4,-2,-1,-2,-1,2021-08-06 13:56:55,598816
-1,-2,-4,-11,-12,-7,-3,-2,2021-08-06 13:56:55,598816
-4,-7,-5,-13,-9,-3,-4,-2,2021-08-06 13:56:55,613850
0,5,8,11,6,3,0,1,2021-08-06 13:56:55,613850
4,4,3,4,2,2,0,3,2021-08-06 13:56:55,613850
-4,-6,-10,-15,-16,-10,-6,-4,2021-08-06 13:56:55,613850
7,7,11,18,25,14,8,4,2021-08-06 13:56:55,628864
0,-1,3,19,11,4,1,-2,2021-08-06 13:56:55,629094
4,3,6,-3,4,4,3,4,2021-08-06 13:56:55,629094
-5,-8,-16,-19,-16,-9,-5,-4,2021-08-06 13:56:55,629094
-8,-9,-14,-23,-29,-18,-9,-6,2021-08-06 13:56:55,644850
0,-1,0,11,15,7,0,-1,2021-08-06 13:56:55,644850
1,2,6,14,10,3,3,1,2021-08-06 13:56:55,660816
3,4,8,15,9,3,2,1,2021-08-06 13:56:55,660816
-4,-3,-8,-26,-25,-16,-6,-3,2021-08-06 13:56:55,660816
0,0,1,9,16,10,5,0,2021-08-06 13:56:55,660816
0,0,-2,-10,-3,-1,0,-2,2021-08-06 13:56:55,660816
-2,0,4,7,7,2,1,0,2021-08-06 13:56:55,660816
-3,-1,-1,0,-6,-5,-1,0,2021-08-06 13:56:55,691864
-3,-1,-2,-11,-17,-11,-3,-2,2021-08-06 13:56:55,707851
1,1,-1,12,13,6,3,2,2021-08-06 13:56:55,723853
-1,-2,-3,-2,6,2,1,1,2021-08-06 13:56:55,723853
-1,-2,1,-3,-6,-2,-3,-4,2021-08-06 13:56:55,723853
2,2,1,-8,-13,-7,-4,0,2021-08-06 13:56:55,723853
2,2,-4,2,3,3,2,1,2021-08-06 13:56:55,723853
1,1,2,2,6,4,3,2,2021-08-06 13:56:55,723853
-4,-4,-2,1,-2,-3,-4,-3,2021-08-06 13:56:55,723853
0,-1,-2,-1,0,-2,0,-2,2021-08-06 13:56:55,723853
-2,-2,-4,-11,-9,-6,-3,-3,2021-08-06 13:56:55,724850
-4,-4,-4,-7,-5,-3,-3,-3,2021-08-06 13:56:55,724850
2,3,5,5,4,4,4,-1,2021-08-06 13:56:55,755863
3,5,3,1,-1,1,3,1,2021-08-06 13:56:55,755863
-1,-5,-4,-6,-7,-3,-1,0,2021-08-06 13:56:55,755863
-2,0,3,0,2,0,1,-1,2021-08-06 13:56:55,755863
1,2,4,9,9,7,5,1,2021-08-06 13:56:55,771815
-1,-3,-3,-3,-4,-3,-3,-3,2021-08-06 13:56:55,771815
-3,-3,-3,-3,-4,-3,-2,-3,2021-08-06 13:56:55,771815
0,1,0,-5,-3,-2,-1,0,2021-08-06 13:56:55,771815
1,1,0,-1,-1,-1,0,0,2021-08-06 13:56:55,787816
-3,-3,-4,-4,-6,-5,-4,-3,2021-08-06 13:56:55,803813
-1,0,-2,-1,4,2,-1,0,2021-08-06 13:56:55,803813
-1,1,2,1,-3,0,-1,-1,2021-08-06 13:56:55,803813
-1,-1,-1,1,0,-1,-2,-1,2021-08-06 13:56:55,803813
0,-1,-1,-4,-4,-3,-1,0,2021-08-06 13:56:55,803813
1,0,0,8,6,2,3,0,2021-08-06 13:56:55,803813
-1,-2,-3,-4,-2,-1,-2,-4,2021-08-06 13:56:55,803813
-3,-1,-1,-1,-3,-2,0,-1,2021-08-06 13:56:55,835816
-3,-3,-3,-2,-1,-2,-3,-1,2021-08-06 13:56:55,851822
-2,-1,-1,-1,-3,-3,-2,-3,2021-08-06 13:56:55,851822
1,0,0,-1,0,-2,-2,-2,2021-08-06 13:56:55,851822
-2,-1,-1,-1,-2,-2,-2,-1,2021-08-06 13:56:55,851822
-1,-1,-3,0,3,-1,-1,0,2021-08-06 13:56:55,851822
-1,-1,-1,-2,0,-1,-1,-1,2021-08-06 13:56:55,851822
0,-1,0,0,-1,-1,-1,-1,2021-08-06 13:56:55,851822
-3,-6,-8,-8,-6,-4,-3,-3,2021-08-06 13:56:55,867815
-1,-2,-2,3,4,0,0,0,2021-08-06 13:56:55,883816
4,5,4,6,7,7,4,3,2021-08-06 13:56:55,883816
-2,0,0,2,0,-1,0,1,2021-08-06 13:56:55,883816
-3,-5,-6,-8,-12,-8,-6,-4,2021-08-06 13:56:55,899814
0,2,0,2,7,5,3,1,2021-08-06 13:56:55,899814
1,0,1,3,0,1,1,2,2021-08-06 13:56:55,899814
-3,0,-1,-2,3,2,-3,-4,2021-08-06 13:56:55,899814
-1,-1,1,2,3,0,0,-2,2021-08-06 13:56:55,899814
-3,-5,-4,-2,-6,-3,-2,-2,2021-08-06 13:56:55,899814
-4,-5,-6,-8,-10,-12,-6,-4,2021-08-06 13:56:55,899814
0,-1,0,-2,-4,0,0,1,2021-08-06 13:56:55,899814
4,5,7,10,19,12,5,4,2021-08-06 13:56:55,931852
-3,-3,-3,-3,-5,-2,-3,-2,2021-08-06 13:56:55,931852
-4,-2,-3,-7,-11,-10,-8,-5,2021-08-06 13:56:55,931852
0,0,0,3,5,-3,-3,-2,2021-08-06 13:56:55,931852
0,-3,-3,-8,-13,-6,-1,-4,2021-08-06 13:56:55,962852
-2,1,2,2,-4,0,0,-2,2021-08-06 13:56:55,962852
3,3,5,16,24,11,4,2,2021-08-06 13:56:55,962852
0,-3,-1,-1,-3,-1,0,1,2021-08-06 13:56:55,962852
-3,-2,-3,-5,-6,-6,-4,-1,2021-08-06 13:56:55,962852
0,1,-2,-7,-7,-4,-2,-3,2021-08-06 13:56:55,962852
-6,-4,-5,-11,-14,-9,-4,-5,2021-08-06 13:56:55,962852
-3,-4,-5,-5,-8,-4,-3,-4,2021-08-06 13:56:55,962852
2,2,3,10,10,7,2,1,2021-08-06 13:56:55,992850
0,-1,-1,-4,-6,-3,-1,-3,2021-08-06 13:56:55,992850
1,0,1,0,4,4,1,0,2021-08-06 13:56:55,992850
2,0,0,2,2,1,2,1,2021-08-06 13:56:55,992850
-3,-5,-7,-21,-27,-17,-8,-3,2021-08-06 13:56:56,023853
0,2,5,19,31,18,7,2,2021-08-06 13:56:56,039855
-2,-1,-2,-2,-5,-3,-1,0,2021-08-06 13:56:56,039855
1,2,2,4,3,2,2,0,2021-08-06 13:56:56,039855
-1,-1,0,0,0,0,-2,-4,2021-08-06 13:56:56,039855
-4,-5,-7,-15,-25,-16,-7,-4,2021-08-06 13:56:56,039855
2,0,1,7,18,9,4,2,2021-08-06 13:56:56,039855
0,2,2,4,5,3,1,0,2021-08-06 13:56:56,039855
0,-2,0,0,2,-1,0,0,2021-08-06 13:56:56,055850
-2,-4,-3,-7,-12,-11,-4,-2,2021-08-06 13:56:56,071813
-1,0,-4,-5,-7,-1,1,0,2021-08-06 13:56:56,071813
0,-2,1,7,16,6,0,-2,2021-08-06 13:56:56,071813
-1,0,0,4,5,2,-1,-1,2021-08-06 13:56:56,071813
1,3,2,2,7,2,0,1,2021-08-06 13:56:56,071813
-2,-3,-4,-10,-18,-9,-8,-2,2021-08-06 13:56:56,071813
-4,-6,-6,-13,-19,-17,-9,-4,2021-08-06 13:56:56,071813
1,3,3,4,7,5,2,1,2021-08-06 13:56:56,087815
2,3,5,9,14,8,2,2,2021-08-06 13:56:56,087815
1,0,1,0,0,3,0,1,2021-08-06 13:56:56,087815
0,1,-1,-2,-4,1,0,-1,2021-08-06 13:56:56,087815
-1,-2,-2,0,0,-3,-2,-1,2021-08-06 13:56:56,103853
-1,0,-3,-5,-6,-4,-1,-1,2021-08-06 13:56:56,103853
-1,0,1,3,4,2,0,-1,2021-08-06 13:56:56,103853
-3,-5,-5,-7,-11,-6,-3,-1,2021-08-06 13:56:56,103853
2,3,3,6,10,6,3,0,2021-08-06 13:56:56,135813
1,-1,0,1,1,2,-1,-1,2021-08-06 13:56:56,151813
1,3,4,1,1,-2,1,2,2021-08-06 13:56:56,167865
-1,0,-3,-4,-6,-5,-1,0,2021-08-06 13:56:56,183816
-1,-3,-5,-3,-1,0,0,2,2021-08-06 13:56:56,183816
0,-1,-4,-2,-2,1,0,1,2021-08-06 13:56:56,183816
-3,-5,-4,1,-1,1,-4,-3,2021-08-06 13:56:56,183816
-4,-2,0,-4,-2,-1,-2,-4,2021-08-06 13:56:56,183816
0,-1,2,2,2,1,-1,-1,2021-08-06 13:56:56,183816
-4,0,0,2,1,-1,-2,-2,2021-08-06 13:56:56,183816
0,-2,-2,-4,-4,-5,0,0,2021-08-06 13:56:56,183816
2,3,2,2,0,2,1,2,2021-08-06 13:56:56,184814
0,-1,-1,2,3,1,1,0,2021-08-06 13:56:56,184814
0,-3,-1,-1,-3,-3,-1,-1,2021-08-06 13:56:56,184814
0,-1,-2,0,0,-1,0,0,2021-08-06 13:56:56,184814
-1,-1,-2,-1,2,2,1,-1,2021-08-06 13:56:56,184814
-2,-4,-2,-1,-3,-2,-2,-1,2021-08-06 13:56:56,199814
-1,0,0,0,-1,0,0,-1,2021-08-06 13:56:56,199814
0,-1,-1,0,-1,-2,0,-2,2021-08-06 13:56:56,199814
-2,-2,-3,0,1,1,-1,-1,2021-08-06 13:56:56,199814
0,-1,-1,-1,-4,-3,1,-1,2021-08-06 13:56:56,231852
1,1,1,-1,1,-1,0,0,2021-08-06 13:56:56,247815
-1,0,1,1,0,1,1,-2,2021-08-06 13:56:56,263853
-1,0,-1,0,-3,0,-1,-1,2021-08-06 13:56:56,263853
-2,-1,-2,-3,-7,-3,-2,1,2021-08-06 13:56:56,263853
1,0,-4,-2,1,1,1,1,2021-08-06 13:56:56,263853
-4,-3,-4,-5,-12,-8,-4,-4,2021-08-06 13:56:56,263853
2,3,5,14,22,12,5,1,2021-08-06 13:56:56,263853
1,2,2,1,1,1,-1,-1,2021-08-06 13:56:56,279866
0,-1,0,-3,-6,-3,0,-1,2021-08-06 13:56:56,279866
-1,-1,1,3,2,0,-2,-1,2021-08-06 13:56:56,279866
0,-3,-3,-5,-8,-5,-3,-2,2021-08-06 13:56:56,279866
-3,-2,-3,-7,-7,-8,-1,-2,2021-08-06 13:56:56,295852
-3,-1,-2,0,3,0,-3,-3,2021-08-06 13:56:56,311815
1,3,0,-1,1,3,1,0,2021-08-06 13:56:56,326815
0,-1,1,2,4,2,0,0,2021-08-06 13:56:56,326815
0,0,-2,1,0,-1,-1,-1,2021-08-06 13:56:56,326815
-4,-2,-5,-7,-7,-7,-2,-1,2021-08-06 13:56:56,326815
-4,-3,-4,-5,-6,-5,-5,-3,2021-08-06 13:56:56,326815
3,3,1,2,3,3,2,3,2021-08-06 13:56:56,326815
-1,0,-2,-2,-1,-1,-2,-1,2021-08-06 13:56:56,326815
-1,-1,2,4,-1,0,1,0,2021-08-06 13:56:56,326815
-5,-6,-5,-7,-8,-7,-5,-4,2021-08-06 13:56:56,327852
0,3,3,2,5,3,0,1,2021-08-06 13:56:56,327852
0,1,0,0,1,2,0,1,2021-08-06 13:56:56,356854
1,0,1,5,10,6,2,1,2021-08-06 13:56:56,356854
0,-2,0,-1,3,0,-2,-3,2021-08-06 13:56:56,356854
-2,-2,-4,-7,-12,-6,-1,-2,2021-08-06 13:56:56,356854
0,0,-2,3,2,2,-1,0,2021-08-06 13:56:56,372815
0,-1,-2,-1,-2,-2,-3,-1,2021-08-06 13:56:56,372815
-1,0,-3,-4,-5,-2,1,-1,2021-08-06 13:56:56,372815
-5,-6,-5,-9,-12,-7,-5,-5,2021-08-06 13:56:56,372815
-1,-1,0,7,14,6,1,0,2021-08-06 13:56:56,388863
0,1,0,0,2,0,1,0,2021-08-06 13:56:56,388863
-2,-1,-1,2,4,3,0,0,2021-08-06 13:56:56,388863
0,0,0,-3,-3,-3,-1,0,2021-08-06 13:56:56,388863
-1,-2,-1,-3,-7,-2,-1,-1,2021-08-06 13:56:56,420815
-2,-2,-1,-3,-2,-2,-4,-1,2021-08-06 13:56:56,436815
-2,-1,-1,-1,0,0,0,-1,2021-08-06 13:56:56,452854
3,4,1,3,1,0,0,1,2021-08-06 13:56:56,468851
-1,-2,-2,-4,-4,-3,-1,0,2021-08-06 13:56:56,468851
-1,-1,-1,-1,-2,-1,2,-1,2021-08-06 13:56:56,468851
-2,-1,-3,-6,-9,-7,-5,-2,2021-08-06 13:56:56,468851
-1,-1,3,12,15,8,1,0,2021-08-06 13:56:56,468851
1,0,1,3,4,2,2,1,2021-08-06 13:56:56,468851
-2,0,-1,-1,-2,0,-1,-1,2021-08-06 13:56:56,468851
0,0,0,-1,-3,0,0,1,2021-08-06 13:56:56,468851
-2,-5,-6,-7,-9,-6,-5,-4,2021-08-06 13:56:56,468851
0,0,0,-3,-2,-1,-2,0,2021-08-06 13:56:56,469813
-1,0,-1,2,0,2,0,0,2021-08-06 13:56:56,469813
-1,0,2,1,-2,-2,-1,0,2021-08-06 13:56:56,469813
0,0,-1,-1,-2,-1,-1,1,2021-08-06 13:56:56,469813
0,0,-1,-1,-3,-1,0,0,2021-08-06 13:56:56,498815
-2,-4,-5,-5,-6,-3,-1,-3,2021-08-06 13:56:56,498815
1,3,4,2,5,1,0,0,2021-08-06 13:56:56,498815
-2,0,-2,-3,-2,-2,-1,1,2021-08-06 13:56:56,498815
-1,-1,1,-2,-5,-4,-2,-3,2021-08-06 13:56:56,498815
-1,-1,0,0,-2,-1,-1,-2,2021-08-06 13:56:56,498815
2,-1,-2,4,4,5,3,2,2021-08-06 13:56:56,514864
-4,-3,-2,-5,-4,-7,-4,-3,2021-08-06 13:56:56,530865
-1,0,-1,-1,-2,-2,0,0,2021-08-06 13:56:56,546850
0,0,0,-3,-2,-1,-1,-2,2021-08-06 13:56:56,546850
1,-1,0,1,6,2,3,1,2021-08-06 13:56:56,546850
-1,-1,-2,-2,-3,0,0,-1,2021-08-06 13:56:56,546850
-3,-3,-3,-5,-3,-3,-2,-1,2021-08-06 13:56:56,546850
1,0,2,3,6,3,-1,2,2021-08-06 13:56:56,546850
-1,-1,-1,-2,-2,0,0,0,2021-08-06 13:56:56,546850
-1,-1,0,0,0,-2,-1,-1,2021-08-06 13:56:56,546850
0,-1,-1,-1,-1,-1,-1,-2,2021-08-06 13:56:56,561865
-3,-2,-2,-1,-3,-4,-1,-2,2021-08-06 13:56:56,561865
-2,-1,0,1,-2,0,-2,-1,2021-08-06 13:56:56,561865
-1,-2,-1,-1,-1,-2,0,0,2021-08-06 13:56:56,561865
-1,0,-2,0,1,-1,0,0,2021-08-06 13:56:56,593850
-2,0,-1,-2,-2,-3,-2,0,2021-08-06 13:56:56,593850
-1,-1,0,1,1,-1,0,-1,2021-08-06 13:56:56,593850
-1,-2,0,-2,-2,-1,-3,-1,2021-08-06 13:56:56,593850
0,-1,-1,0,-1,-2,-2,-2,2021-08-06 13:56:56,623850
0,-1,0,0,-1,-1,-4,-3,2021-08-06 13:56:56,623850
-1,2,-3,-1,0,-1,-1,-1,2021-08-06 13:56:56,623850
-1,-3,-1,-2,-2,-1,1,-2,2021-08-06 13:56:56,624243
-1,-1,-2,-1,-1,0,-1,1,2021-08-06 13:56:56,624243
0,-1,0,-1,0,-1,-1,1,2021-08-06 13:56:56,624243
-3,-1,1,0,0,-1,-1,0,2021-08-06 13:56:56,624243
0,0,0,-2,-3,-2,0,1,2021-08-06 13:56:56,624243
0,0,0,-1,0,0,-1,-1,2021-08-06 13:56:56,655865
-2,-2,-1,-2,-3,-1,-3,-3,2021-08-06 13:56:56,671816
1,-1,-3,-1,-1,-1,0,-1,2021-08-06 13:56:56,671816
-2,-2,-2,-2,-1,-3,1,-1,2021-08-06 13:56:56,671816
-2,-4,-1,-3,-2,-2,0,-2,2021-08-06 13:56:56,671816
-2,-1,-2,-3,-1,0,1,1,2021-08-06 13:56:56,671816
-1,0,0,0,-1,-3,-2,0,2021-08-06 13:56:56,671816
-1,-1,-3,1,-2,2,-2,-1,2021-08-06 13:56:56,671816
-1,-1,-2,0,-2,-1,-2,-2,2021-08-06 13:56:56,687813
1,-1,1,1,0,0,1,0,2021-08-06 13:56:56,687813
1,0,0,-1,-1,0,0,-1,2021-08-06 13:56:56,687813
1,-1,0,0,2,-2,1,-1,2021-08-06 13:56:56,687813
-1,-1,0,-1,-3,-2,-2,-3,2021-08-06 13:56:56,703850
0,0,-2,-2,-1,-2,0,-2,2021-08-06 13:56:56,703850
0,-2,-1,0,1,3,-2,1,2021-08-06 13:56:56,703850
-3,-2,-4,-2,-3,-2,0,0,2021-08-06 13:56:56,703850
0,1,1,0,0,1,-1,0,2021-08-06 13:56:56,735815
-2,1,-2,1,-3,0,-1,-1,2021-08-06 13:56:56,735815
0,-1,2,0,-2,-1,-1,-2,2021-08-06 13:56:56,735815
-1,-1,-2,-2,-6,-2,-1,-2,2021-08-06 13:56:56,735815
-1,-2,1,2,5,3,-1,1,2021-08-06 13:56:56,751816
0,-1,1,-1,-2,-1,0,-1,2021-08-06 13:56:56,751816
-2,-1,-3,-4,-2,-2,-1,0,2021-08-06 13:56:56,751816
0,-1,0,-1,-1,-1,-2,-1,2021-08-06 13:56:56,751816
-2,-1,-2,-3,-4,-3,0,-1,2021-08-06 13:56:56,767852
-1,0,-3,-1,0,0,-2,0,2021-08-06 13:56:56,767852
0,-1,0,-2,0,0,-1,-1,2021-08-06 13:56:56,767852
0,0,-1,-2,0,0,-2,0,2021-08-06 13:56:56,767852
0,0,0,-1,-2,0,0,-2,2021-08-06 13:56:56,799851
-2,-3,-1,-2,-3,-2,-1,-2,2021-08-06 13:56:56,799851
-3,-2,-1,-3,-4,-3,-2,-3,2021-08-06 13:56:56,799851
-1,0,0,4,7,4,1,1,2021-08-06 13:56:56,799851
-1,1,1,1,0,0,1,-1,2021-08-06 13:56:56,799851
-2,-2,-2,-4,-1,0,0,-1,2021-08-06 13:56:56,799851
0,2,0,1,-2,1,2,1,2021-08-06 13:56:56,815865
-1,-3,0,-1,-3,-3,-2,-1,2021-08-06 13:56:56,832058
-1,-2,-2,-3,0,-1,-1,0,2021-08-06 13:56:56,847815
0,-1,-2,-2,-5,-6,-2,-1,2021-08-06 13:56:56,863865
1,0,0,0,1,3,2,0,2021-08-06 13:56:56,879865
-1,1,1,0,-1,0,-1,-2,2021-08-06 13:56:56,895864
-1,0,2,2,4,4,1,2,2021-08-06 13:56:56,895864
0,1,0,2,2,0,-1,1,2021-08-06 13:56:56,895864
-1,-3,-1,-2,-3,-5,-2,0,2021-08-06 13:56:56,895864
-2,0,1,-3,-3,-2,-1,-1,2021-08-06 13:56:56,895864
-2,-2,-3,-4,-5,-4,-2,-3,2021-08-06 13:56:56,895864
-1,1,0,2,0,1,-1,-1,2021-08-06 13:56:56,895864
0,1,1,1,1,0,1,-1,2021-08-06 13:56:56,895864
-1,-1,1,-3,0,1,-1,0,2021-08-06 13:56:56,895864
-2,-3,-2,-5,-5,-2,-2,-2,2021-08-06 13:56:56,895864
1,0,1,1,5,4,-1,0,2021-08-06 13:56:56,895864
-1,0,-2,1,0,1,0,0,2021-08-06 13:56:56,895864
0,0,-1,2,0,0,2,1,2021-08-06 13:56:56,896856
-1,-2,-2,-4,-3,-2,1,1,2021-08-06 13:56:56,911854
-1,-3,-2,-2,-3,-3,-3,-1,2021-08-06 13:56:56,911854
2,1,2,1,3,-1,0,1,2021-08-06 13:56:56,916813
-1,-1,-1,-1,-2,-1,0,-1,2021-08-06 13:56:56,917816
1,0,-1,0,0,-2,-2,-1,2021-08-06 13:56:56,927849
-1,0,-2,-4,-3,-1,0,-2,2021-08-06 13:56:56,943850
-2,-3,-4,-2,-3,-1,-2,-1,2021-08-06 13:56:56,959851
0,-2,-3,-2,-2,-2,-3,-2,2021-08-06 13:56:56,975851
0,1,3,7,7,5,0,1,2021-08-06 13:56:56,991870
0,-1,1,0,0,-3,-2,0,2021-08-06 13:56:56,991870
-4,-1,-1,0,2,-1,-2,-1,2021-08-06 13:56:56,991870
0,-1,0,-1,-2,-3,-1,-1,2021-08-06 13:56:56,991870
-1,-1,-1,-2,-3,-1,1,0,2021-08-06 13:56:56,991870
3,-1,-3,-3,-2,-2,1,0,2021-08-06 13:56:56,992853
-1,-1,-2,-3,-3,-2,-1,0,2021-08-06 13:56:56,992853
-1,-1,-2,-2,2,2,-1,-1,2021-08-06 13:56:56,992853
-2,-1,-1,2,2,-2,-2,-1,2021-08-06 13:56:56,992853
-2,-2,-1,1,1,0,-2,-1,2021-08-06 13:56:56,992853
-1,-2,0,-1,-3,-3,-4,-4,2021-08-06 13:56:56,992853
-1,-1,1,2,-1,-1,-1,-1,2021-08-06 13:56:56,992853
1,0,1,-1,-3,-3,-3,-2,2021-08-06 13:56:57,007850
0,1,0,0,-2,0,-1,-1,2021-08-06 13:56:57,022815
0,-2,-3,-2,-2,-1,0,-2,2021-08-06 13:56:57,037851
0,-1,-2,-5,-2,-3,-1,0,2021-08-06 13:56:57,053816
0,3,1,2,1,0,2,1,2021-08-06 13:56:57,069815
-2,0,-1,0,0,1,0,0,2021-08-06 13:56:57,069815
0,-1,-2,0,0,0,0,-1,2021-08-06 13:56:57,069815
-1,-2,-3,-4,-3,-2,-1,-2,2021-08-06 13:56:57,069815
-2,-1,-3,-3,0,-2,-1,1,2021-08-06 13:56:57,069815
-2,-1,0,-1,-2,-2,-2,-3,2021-08-06 13:56:57,069815
0,0,-2,2,1,1,1,0,2021-08-06 13:56:57,069815
0,1,0,1,1,2,-1,1,2021-08-06 13:56:57,069815
-1,-1,-1,-1,-4,-1,-2,-2,2021-08-06 13:56:57,070816
-2,-2,0,-1,-3,-3,-1,-2,2021-08-06 13:56:57,070816
-1,0,-1,-2,-1,-1,0,0,2021-08-06 13:56:57,070816
0,-1,2,0,0,1,0,1,2021-08-06 13:56:57,070816
0,-2,-2,-2,-3,-2,0,-1,2021-08-06 13:56:57,084814
-1,-2,-3,-1,-1,-1,1,-1,2021-08-06 13:56:57,084814
-1,-1,-1,-2,-3,-3,-2,-1,2021-08-06 13:56:57,099853
0,1,-1,-2,-1,-2,0,-1,2021-08-06 13:56:57,115815
0,-2,-1,-1,0,-1,-2,-1,2021-08-06 13:56:57,115815
-3,0,1,3,-2,-2,-2,0,2021-08-06 13:56:57,115815
1,-1,-3,-2,0,1,0,0,2021-08-06 13:56:57,115815
1,0,0,0,-2,-1,-1,0,2021-08-06 13:56:57,115815
-1,-1,-1,-2,-5,-2,-2,-2,2021-08-06 13:56:57,131852
-1,0,-1,0,1,-1,0,0,2021-08-06 13:56:57,147815
-1,-1,1,0,-1,-1,-1,-1,2021-08-06 13:56:57,162856
-2,-1,0,1,-1,0,-1,-1,2021-08-06 13:56:57,178815
0,0,0,-2,-1,0,0,-1,2021-08-06 13:56:57,210850
0,-1,0,-1,1,-1,0,-2,2021-08-06 13:56:57,210850
-3,-2,-1,-1,-1,-2,-1,0,2021-08-06 13:56:57,210850
-1,-2,-2,0,-1,0,-1,-2,2021-08-06 13:56:57,210850
1,-1,-3,-2,-2,-1,0,1,2021-08-06 13:56:57,210850
1,1,1,0,3,4,1,1,2021-08-06 13:56:57,210850
0,0,-1,1,1,0,-1,-1,2021-08-06 13:56:57,210850
0,-1,0,-1,-1,-1,-1,0,2021-08-06 13:56:57,210850
-3,-1,-1,1,-1,-1,-1,-2,2021-08-06 13:56:57,210850
-1,-2,-1,-2,-1,0,-2,-1,2021-08-06 13:56:57,226816
0,0,0,0,-4,-1,-2,-1,2021-08-06 13:56:57,242812
-1,-1,0,3,5,2,1,-1,2021-08-06 13:56:57,258816
-1,-2,-1,0,1,0,-1,-1,2021-08-06 13:56:57,274855
-1,-1,-3,-1,-3,-2,-1,-1,2021-08-06 13:56:57,274855
-2,-1,1,0,-1,-3,0,-2,2021-08-06 13:56:57,274855
-2,-1,-3,-4,-5,-2,-1,0,2021-08-06 13:56:57,274855
1,1,0,0,1,0,0,0,2021-08-06 13:56:57,274855
0,-1,-2,-2,-1,-1,1,1,2021-08-06 13:56:57,275848
-2,-1,-2,-1,-1,1,0,-2,2021-08-06 13:56:57,275848
-2,1,-2,-1,-2,0,0,0,2021-08-06 13:56:57,275848
-1,-2,-2,-1,-1,-2,-2,-1,2021-08-06 13:56:57,275848
-2,-1,-1,0,-2,-3,-2,1,2021-08-06 13:56:57,275848
0,-2,-2,-2,0,-1,-1,-1,2021-08-06 13:56:57,275848
-1,-2,-1,0,-1,-2,-2,0,2021-08-06 13:56:57,275848
-1,-1,1,1,1,0,1,0,2021-08-06 13:56:57,275848
-2,-1,-1,-2,-1,-3,-1,-1,2021-08-06 13:56:57,276820
0,-1,1,-3,-2,-1,-1,0,2021-08-06 13:56:57,276820
1,-1,-2,-1,0,-2,-1,-2,2021-08-06 13:56:57,276820
-1,-1,-1,-1,-3,-2,-1,0,2021-08-06 13:56:57,306850
0,-1,-1,-1,1,1,1,-1,2021-08-06 13:56:57,306850
0,-1,-1,1,0,0,0,-1,2021-08-06 13:56:57,306850
0,-1,1,-1,-1,-1,-1,-2,2021-08-06 13:56:57,306850
-3,0,-1,-1,-2,-2,-2,-3,2021-08-06 13:56:57,306850
0,-1,-1,-2,-3,-1,1,-2,2021-08-06 13:56:57,306850
0,-2,-2,-2,-1,0,-2,-2,2021-08-06 13:56:57,306850
-2,-1,-1,0,-1,-2,-1,0,2021-08-06 13:56:57,306850
1,1,0,0,-1,0,-1,-1,2021-08-06 13:56:57,336813
0,-1,-3,-1,-2,0,-1,0,2021-08-06 13:56:57,336813
-2,0,0,-2,0,-1,1,-1,2021-08-06 13:56:57,352851
0,0,0,0,0,0,0,-1,2021-08-06 13:56:57,368850
0,0,1,-1,-2,-3,0,-1,2021-08-06 13:56:57,368850
-2,-1,-1,0,-1,-2,-2,-3,2021-08-06 13:56:57,368850
0,-1,0,0,-1,-2,-1,-1,2021-08-06 13:56:57,368850
-1,-1,0,-1,0,-2,-1,-2,2021-08-06 13:56:57,368850
-1,1,-2,-3,-2,0,0,-1,2021-08-06 13:56:57,383850
0,-1,-1,-1,-1,0,0,0,2021-08-06 13:56:57,383850
-1,0,-1,0,-2,0,0,0,2021-08-06 13:56:57,383850
0,0,0,0,0,0,0,-2,2021-08-06 13:56:57,383850
0,-1,-1,-1,-1,-1,-1,0,2021-08-06 13:56:57,399851
1,0,-1,0,0,-1,-1,-2,2021-08-06 13:56:57,399851
-1,-3,-1,1,-2,-1,-2,-3,2021-08-06 13:56:57,399851
2,0,-1,-2,-2,0,1,2,2021-08-06 13:56:57,399851
-1,0,-3,-1,0,-2,-2,-2,2021-08-06 13:56:57,415832
1,0,0,-3,-3,0,-2,-1,2021-08-06 13:56:57,415832
0,0,0,1,4,0,-1,0,2021-08-06 13:56:57,415832
0,0,-1,-2,-1,0,-1,0,2021-08-06 13:56:57,415832
-2,-1,0,0,0,-1,-1,-2,2021-08-06 13:56:57,431816
-1,-1,0,-1,-2,-1,-1,-2,2021-08-06 13:56:57,431816
-1,0,1,-2,-1,-1,0,-1,2021-08-06 13:56:57,431816
-1,-1,-2,-2,-3,-2,-2,-2,2021-08-06 13:56:57,431816
0,-1,0,1,3,1,1,0,2021-08-06 13:56:57,462855
-1,0,-3,-1,-1,-1,-2,-1,2021-08-06 13:56:57,478850
-2,-1,-3,0,-1,-2,-1,-1,2021-08-06 13:56:57,478850
-1,0,-2,-1,0,1,-1,-1,2021-08-06 13:56:57,478850
-3,-3,-2,-2,-3,0,-1,0,2021-08-06 13:56:57,478850
-2,0,0,1,-1,-3,-1,-1,2021-08-06 13:56:57,478850
-1,1,-1,-1,-1,0,2,0,2021-08-06 13:56:57,478850
0,-1,-1,-2,0,-1,0,0,2021-08-06 13:56:57,478850
-1,-1,0,-2,0,-1,-2,0,2021-08-06 13:56:57,494850
-1,-3,-1,-1,0,1,0,0,2021-08-06 13:56:57,510851
0,-1,-2,-1,-2,-2,-1,1,2021-08-06 13:56:57,526814
-2,-1,0,-1,0,-1,-2,0,2021-08-06 13:56:57,526814
0,0,-2,-1,-3,-2,1,-2,2021-08-06 13:56:57,526814
0,-1,-1,1,7,3,0,0,2021-08-06 13:56:57,526814
-1,-2,-2,1,0,-1,-2,-1,2021-08-06 13:56:57,526814
-2,0,-1,1,0,-1,-2,0,2021-08-06 13:56:57,526814
0,0,-1,0,-2,-1,-2,1,2021-08-06 13:56:57,526814
-1,-2,-2,0,-2,-3,0,0,2021-08-06 13:56:57,526814
0,-1,-1,-3,-2,-1,-1,-2,2021-08-06 13:56:57,542850
0,0,1,-1,-1,-1,0,0,2021-08-06 13:56:57,542850
0,0,-1,-1,-1,-1,-1,1,2021-08-06 13:56:57,542850
-1,0,-1,-2,-3,-2,-2,-2,2021-08-06 13:56:57,542850
-2,-2,0,1,0,0,0,0,2021-08-06 13:56:57,558816
-1,-1,-2,-1,-1,1,-1,-1,2021-08-06 13:56:57,558816
-2,-2,-2,0,0,0,-1,-2,2021-08-06 13:56:57,574850
-1,-1,1,-4,-1,1,0,0,2021-08-06 13:56:57,590850
-1,-2,-1,-1,-2,0,-1,-2,2021-08-06 13:56:57,606850
-1,-1,-3,-1,-1,1,1,0,2021-08-06 13:56:57,606850
-1,-1,0,-2,-1,-1,1,-1,2021-08-06 13:56:57,606850
-1,0,-3,1,1,0,0,-1,2021-08-06 13:56:57,606850
-2,-2,-2,1,-1,-1,-2,-3,2021-08-06 13:56:57,606850
-1,-1,0,-2,-2,-1,-2,-1,2021-08-06 13:56:57,606850
-1,1,1,1,4,2,0,1,2021-08-06 13:56:57,606850
0,0,-1,-1,-2,-1,0,-2,2021-08-06 13:56:57,606850
-1,0,-1,-2,-1,-2,0,0,2021-08-06 13:56:57,622815
-1,-1,0,-1,-1,-2,-2,-2,2021-08-06 13:56:57,622815
-1,-1,0,-1,-2,-1,-2,-1,2021-08-06 13:56:57,630863
0,0,0,-2,-1,-2,-1,-1,2021-08-06 13:56:57,630863
0,0,0,-2,-1,1,0,2,2021-08-06 13:56:57,631815
-1,0,1,-1,-1,-2,0,-1,2021-08-06 13:56:57,631815
0,-1,-2,-1,-2,-2,0,-1,2021-08-06 13:56:57,654816
-2,-1,-1,1,-1,-1,1,-1,2021-08-06 13:56:57,670851
0,0,-2,-1,-1,-1,-1,-1,2021-08-06 13:56:57,670851
-2,0,-1,-1,-2,-1,-1,-2,2021-08-06 13:56:57,670851
1,0,0,0,-1,0,0,0,2021-08-06 13:56:57,670851
0,-2,1,1,-2,-1,-1,0,2021-08-06 13:56:57,670851
-2,-1,0,-2,-1,1,-2,0,2021-08-06 13:56:57,670851
-1,0,-1,1,-1,0,-1,0,2021-08-06 13:56:57,670851
0,-2,-1,0,-2,-1,-1,-2,2021-08-06 13:56:57,701813
-1,0,-3,-3,-1,0,1,0,2021-08-06 13:56:57,701813
2,0,1,-3,-2,-2,1,0,2021-08-06 13:56:57,701813
-1,-2,-2,0,1,-2,-1,1,2021-08-06 13:56:57,701813
-1,-2,-3,-1,-1,-1,-2,-1,2021-08-06 13:56:57,732853
0,-1,0,0,-2,-2,-1,-1,2021-08-06 13:56:57,732853
-2,-1,-2,-2,-2,0,-2,-2,2021-08-06 13:56:57,732853
-2,-3,-1,0,-1,-1,-2,-1,2021-08-06 13:56:57,732853
-1,0,0,-3,-2,-2,-2,-2,2021-08-06 13:56:57,732853
-1,0,0,1,2,0,-1,-1,2021-08-06 13:56:57,732853
-2,0,-1,-1,-2,-2,-1,-1,2021-08-06 13:56:57,732853
1,1,1,0,5,0,1,1,2021-08-06 13:56:57,732853
-1,-1,-1,-2,-3,-2,0,-2,2021-08-06 13:56:57,764863
-3,-1,0,0,0,0,-1,-1,2021-08-06 13:56:57,764863
-1,-2,-1,-1,-1,-2,-1,-1,2021-08-06 13:56:57,764863
0,-2,-2,-1,-3,-2,-2,-2,2021-08-06 13:56:57,764863
-1,-1,-2,-2,0,0,0,0,2021-08-06 13:56:57,780815
-1,-1,-2,2,2,1,0,-1,2021-08-06 13:56:57,796853
0,-2,-2,-1,-2,0,-1,-2,2021-08-06 13:56:57,811815
-1,-1,-1,0,0,0,-2,0,2021-08-06 13:56:57,811815
0,-1,1,-1,-2,-2,-2,-2,2021-08-06 13:56:57,811815
-1,-2,-2,-3,-5,-4,-2,-3,2021-08-06 13:56:57,811815
0,0,-1,1,2,0,1,0,2021-08-06 13:56:57,811815
0,1,-2,-1,-3,0,-1,-2,2021-08-06 13:56:57,811815
-1,0,-1,-1,-1,0,-2,0,2021-08-06 13:56:57,811815
-2,-1,-2,-3,-1,0,0,1,2021-08-06 13:56:57,811815
2,-1,-2,-2,-2,-3,0,1,2021-08-06 13:56:57,812850
-1,-3,-1,0,-1,0,1,-1,2021-08-06 13:56:57,812850
-4,-3,-2,0,0,-1,-2,0,2021-08-06 13:56:57,842864
-1,0,-1,2,1,1,-2,-1,2021-08-06 13:56:57,858816
-4,0,0,1,0,0,-2,-2,2021-08-06 13:56:57,874851
-1,0,0,0,-3,0,-1,-1,2021-08-06 13:56:57,874851
1,-2,1,1,-1,-2,-1,-1,2021-08-06 13:56:57,874851
0,0,-1,-4,-3,-2,-1,-1,2021-08-06 13:56:57,874851
1,1,-2,-2,-1,0,-1,-1,2021-08-06 13:56:57,874851
0,-1,0,-1,0,1,0,1,2021-08-06 13:56:57,874851
0,-1,-2,0,-1,-1,-1,-1,2021-08-06 13:56:57,874851
-1,-1,-1,-2,-2,-3,-1,0,2021-08-06 13:56:57,874851
0,1,0,1,4,-1,0,0,2021-08-06 13:56:57,875852
-2,-2,0,1,5,3,0,-1,2021-08-06 13:56:57,875852
-1,0,-2,-2,-1,-1,-1,0,2021-08-06 13:56:57,905864
-3,-2,-1,0,-1,0,-3,-2,2021-08-06 13:56:57,905864
-1,-1,-1,-2,-1,-2,-1,0,2021-08-06 13:56:57,905864
0,-1,0,-2,-2,-3,-1,-1,2021-08-06 13:56:57,905864
-1,0,0,-1,-1,-1,0,1,2021-08-06 13:56:57,905864
-1,-1,0,-3,-4,-3,-1,0,2021-08-06 13:56:57,906814
-3,-1,2,1,1,1,-1,1,2021-08-06 13:56:57,937815
-1,1,-3,1,-1,-1,-1,-2,2021-08-06 13:56:57,953814
-2,0,-2,0,-2,0,-2,0,2021-08-06 13:56:57,953814
1,0,-1,2,1,-3,0,-1,2021-08-06 13:56:57,953814
1,-1,-2,0,-2,-2,0,-2,2021-08-06 13:56:57,953814
-1,0,0,-1,0,-1,-1,0,2021-08-06 13:56:57,954817
-2,-1,0,1,0,0,0,-1,2021-08-06 13:56:57,954817
0,0,-1,0,0,-2,-1,-1,2021-08-06 13:56:57,954817
-1,-2,-2,-1,-2,-1,-1,0,2021-08-06 13:56:57,954817
0,0,1,-2,0,-1,0,-1,2021-08-06 13:56:57,954817
0,0,-2,-3,-2,-1,2,0,2021-08-06 13:56:57,969813
-1,0,0,-1,0,-2,-2,0,2021-08-06 13:56:57,969813
0,-1,0,-2,-1,-1,-1,-2,2021-08-06 13:56:57,969813
-1,-2,-2,-2,-2,-2,-1,0,2021-08-06 13:56:57,985814
-1,-2,0,0,-2,0,-1,1,2021-08-06 13:56:58,001814
0,-1,-1,-1,-1,0,0,0,2021-08-06 13:56:58,001814
-1,0,-2,-1,-2,-1,0,0,2021-08-06 13:56:58,001814
-1,0,-2,-1,-3,-1,-1,-1,2021-08-06 13:56:58,001814
0,-2,-1,0,1,1,0,0,2021-08-06 13:56:58,017814
-1,0,0,-1,-1,0,0,-1,2021-08-06 13:56:58,033814
-3,-1,-1,-1,-1,1,-1,0,2021-08-06 13:56:58,033814
-1,-2,0,-2,-1,-1,-1,-1,2021-08-06 13:56:58,033814
0,-1,-1,-1,0,-2,-2,-1,2021-08-06 13:56:58,033814
-1,-2,-1,-1,-2,0,-1,-1,2021-08-06 13:56:58,033814
0,0,-2,0,-1,-1,0,-1,2021-08-06 13:56:58,033814
-1,2,0,-1,0,-2,-1,-1,2021-08-06 13:56:58,033814
1,-1,-2,0,0,-1,-2,-2,2021-08-06 13:56:58,049819
-1,0,-2,1,3,0,-1,0,2021-08-06 13:56:58,049819
0,4,6,12,12,5,0,-2,2021-08-06 13:56:58,049819
1,-1,-3,0,-1,3,3,2,2021-08-06 13:56:58,049819
-8,-12,-18,-34,-41,-23,-9,-7,2021-08-06 13:56:58,081818
-1,-4,-3,-8,-8,-5,-1,-1,2021-08-06 13:56:58,081818
1,-3,-2,-5,-2,-2,1,-1,2021-08-06 13:56:58,081818
1,2,4,8,8,4,1,-1,2021-08-06 13:56:58,081818
1,3,6,10,13,6,4,2,2021-08-06 13:56:58,097815
-3,-1,0,0,-1,1,-2,-1,2021-08-06 13:56:58,097815
-3,-2,-1,-2,-1,-3,-1,-1,2021-08-06 13:56:58,097815
-1,1,-1,-1,-2,-1,-1,0,2021-08-06 13:56:58,097815
0,0,2,5,6,2,0,0,2021-08-06 13:56:58,113817
-1,-2,-1,2,-1,-2,-2,-1,2021-08-06 13:56:58,113817
-2,-2,-1,-1,0,0,0,0,2021-08-06 13:56:58,113817
0,-3,-5,-8,-6,-2,-1,-2,2021-08-06 13:56:58,113817
-1,-1,1,0,2,2,-2,1,2021-08-06 13:56:58,145854
0,1,-1,1,3,1,-1,0,2021-08-06 13:56:58,161852
0,-3,0,-1,-4,-1,-2,-3,2021-08-06 13:56:58,177868
0,-3,-1,-3,-4,-4,-1,-3,2021-08-06 13:56:58,177868
-2,2,1,2,3,0,1,-2,2021-08-06 13:56:58,177868
0,-2,0,0,0,0,0,-2,2021-08-06 13:56:58,177868
-1,0,-2,-3,-5,-2,-1,-1,2021-08-06 13:56:58,177868
-1,-1,0,-1,-3,-1,-2,-1,2021-08-06 13:56:58,177868
3,2,1,3,4,2,0,-1,2021-08-06 13:56:58,178852
-1,-1,-2,-3,-3,-2,0,1,2021-08-06 13:56:58,178852
-3,-1,-3,-2,-3,-1,-2,-2,2021-08-06 13:56:58,178852
-1,-1,-1,-1,-2,-2,-1,0,2021-08-06 13:56:58,178852
-1,-1,-2,1,0,0,-1,0,2021-08-06 13:56:58,193851
1,0,-2,-1,-2,-1,1,1,2021-08-06 13:56:58,193851
0,-1,-2,-4,-3,-3,-1,-1,2021-08-06 13:56:58,193851
-2,1,0,2,0,0,-1,-3,2021-08-06 13:56:58,193851
-1,-2,1,3,2,2,-2,0,2021-08-06 13:56:58,225851
0,1,-1,0,-1,0,0,-1,2021-08-06 13:56:58,241857
-1,-3,-3,-5,-4,-2,-2,0,2021-08-06 13:56:58,257850
0,1,-1,-4,-4,-1,-1,0,2021-08-06 13:56:58,257850
0,0,0,0,0,0,1,0,2021-08-06 13:56:58,257850
-1,-1,0,0,1,-1,-1,-2,2021-08-06 13:56:58,257850
-1,0,-1,2,0,0,-1,0,2021-08-06 13:56:58,257850
-2,0,0,0,1,0,0,0,2021-08-06 13:56:58,257850
-2,-2,-2,-1,-1,-3,-1,-1,2021-08-06 13:56:58,272816
-1,-2,-1,-4,-2,-1,-1,-2,2021-08-06 13:56:58,287816
0,-2,-2,-2,-1,-2,0,0,2021-08-06 13:56:58,303852
-1,-1,0,0,-1,-1,-2,0,2021-08-06 13:56:58,303852
0,0,0,3,1,2,1,0,2021-08-06 13:56:58,303852
-1,-1,0,1,0,-1,-1,0,2021-08-06 13:56:58,319813
0,-1,-1,-2,-3,-3,0,-1,2021-08-06 13:56:58,351820
0,-1,0,0,0,0,-1,0,2021-08-06 13:56:58,351820
0,-1,1,-1,-1,-1,-1,0,2021-08-06 13:56:58,351820
-1,0,-1,-2,-1,-1,-1,0,2021-08-06 13:56:58,351820
0,0,1,1,-1,0,-2,-1,2021-08-06 13:56:58,351820
0,-1,-1,-2,1,-1,-1,0,2021-08-06 13:56:58,351820
0,0,-2,-3,0,-1,-1,0,2021-08-06 13:56:58,352851
0,-1,-1,0,-1,-1,0,0,2021-08-06 13:56:58,352851
-1,-1,0,-1,-1,-1,0,1,2021-08-06 13:56:58,352851
-1,-1,0,-1,-3,-2,-1,-2,2021-08-06 13:56:58,352851
-2,-1,-1,-1,1,-1,-1,0,2021-08-06 13:56:58,352851
0,-1,0,1,0,1,0,0,2021-08-06 13:56:58,352851
0,-1,-1,-1,0,1,-1,0,2021-08-06 13:56:58,352851
0,-1,-2,0,-1,-1,-1,-3,2021-08-06 13:56:58,352851
-1,0,0,0,-2,-1,-1,-1,2021-08-06 13:56:58,352851
-3,-1,1,-1,-1,-1,-1,0,2021-08-06 13:56:58,353816
-1,-1,-1,-1,-1,-1,-2,-1,2021-08-06 13:56:58,353816
-1,-2,-1,-1,0,-1,-2,-2,2021-08-06 13:56:58,353816
-1,0,0,0,-1,-2,-1,0,2021-08-06 13:56:58,383851
-1,-1,-1,-3,-2,-3,-1,-1,2021-08-06 13:56:58,399815
0,0,-1,-2,-2,-1,2,1,2021-08-06 13:56:58,403814
-2,-1,-3,1,0,0,-1,1,2021-08-06 13:56:58,403814
0,0,-4,-1,0,-1,-1,-1,2021-08-06 13:56:58,404814
0,-1,-2,-1,0,-1,-2,-1,2021-08-06 13:56:58,404814
-1,0,-2,-2,0,-3,-1,-1,2021-08-06 13:56:58,404814
-1,-1,0,-2,0,-2,0,0,2021-08-06 13:56:58,404814
0,-2,-1,-1,-1,0,0,-2,2021-08-06 13:56:58,404814
0,-1,-1,0,1,-1,1,0,2021-08-06 13:56:58,404814
0,-1,-1,0,-1,-2,-1,-1,2021-08-06 13:56:58,430850
0,-1,-2,-3,-1,-1,0,-2,2021-08-06 13:56:58,430850
-1,1,-1,-1,0,0,-1,1,2021-08-06 13:56:58,430850
0,-1,-1,-1,-2,-1,-2,-2,2021-08-06 13:56:58,430850
-1,-1,0,1,0,0,0,-2,2021-08-06 13:56:58,430850
0,0,-1,0,-2,-1,-1,0,2021-08-06 13:56:58,430850
-2,-1,-1,-5,-3,-2,0,-3,2021-08-06 13:56:58,461854
-1,0,1,-1,-1,0,0,1,2021-08-06 13:56:58,461854
-1,-2,-1,0,-1,-1,-2,-1,2021-08-06 13:56:58,461854
-1,0,1,0,0,0,-2,0,2021-08-06 13:56:58,461854
1,-1,0,1,1,-2,-1,0,2021-08-06 13:56:58,491863
-1,1,-1,1,0,0,-2,-1,2021-08-06 13:56:58,491863
0,0,-1,-1,-2,0,1,0,2021-08-06 13:56:58,491863
1,0,0,0,0,-2,0,-1,2021-08-06 13:56:58,491863
0,-1,-1,-2,-2,-2,0,0,2021-08-06 13:56:58,491863
-1,-2,-3,0,-2,0,-1,-3,2021-08-06 13:56:58,491863
-1,-1,-1,0,0,0,-2,-1,2021-08-06 13:56:58,491863
-1,-2,-2,-1,0,-2,1,0,2021-08-06 13:56:58,492858
-1,-1,-2,1,-1,-1,-2,-1,2021-08-06 13:56:58,521852
-1,0,0,-1,0,-1,1,1,2021-08-06 13:56:58,521852
0,-1,-1,0,-1,1,2,0,2021-08-06 13:56:58,521852
-2,-2,-1,0,-1,-1,-1,-3,2021-08-06 13:56:58,521852
0,0,0,0,1,3,3,1,2021-08-06 13:56:58,537815
1,0,1,1,2,6,7,3,2021-08-06 13:56:58,537815
0,-1,1,1,0,-3,-3,0,2021-08-06 13:56:58,537815
-5,-3,-5,-4,-8,-18,-16,-10,2021-08-06 13:56:58,537815
-2,-2,-2,0,-2,-1,-1,-1,2021-08-06 13:56:58,553816
4,1,0,1,1,4,1,2,2021-08-06 13:56:58,553816
-3,-1,0,-2,-1,-4,-4,-2,2021-08-06 13:56:58,553816
-8,-6,-3,-6,-6,-8,-8,-7,2021-08-06 13:56:58,553816
3,2,4,1,1,0,-1,1,2021-08-06 13:56:58,585866
-1,-1,-1,-1,0,0,0,-1,2021-08-06 13:56:58,601815
4,3,0,-1,1,8,7,4,2021-08-06 13:56:58,633816
2,-1,0,0,2,3,3,2,2021-08-06 13:56:58,633816
-2,-2,-3,-1,-2,-1,2,-2,2021-08-06 13:56:58,633816
-1,0,1,-1,-1,0,-1,1,2021-08-06 13:56:58,633816
-1,-2,-1,-1,-2,-3,-5,-2,2021-08-06 13:56:58,633816
-2,-1,-1,-1,0,-1,-3,-1,2021-08-06 13:56:58,633816
-2,-1,-1,-1,-1,0,-1,1,2021-08-06 13:56:58,633816
1,2,-1,-1,1,4,7,2,2021-08-06 13:56:58,634813
-1,-1,-2,-1,0,-5,-6,-2,2021-08-06 13:56:58,634813
-2,-2,-2,-1,-1,-6,-4,-2,2021-08-06 13:56:58,634813
2,0,-2,-1,0,-1,-1,-2,2021-08-06 13:56:58,634813
-4,-2,-1,-3,-4,-9,-6,-4,2021-08-06 13:56:58,634813
-3,-1,-1,-2,-1,2,2,-1,2021-08-06 13:56:58,634813
4,3,0,1,1,14,10,7,2021-08-06 13:56:58,634813
-1,-3,0,-2,-2,-3,-4,0,2021-08-06 13:56:58,648852
-2,-3,-2,-1,-2,-6,-7,-4,2021-08-06 13:56:58,648852
-1,-2,-1,0,1,2,2,-1,2021-08-06 13:56:58,664863
-1,-1,2,3,4,0,1,1,2021-08-06 13:56:58,664863
-3,-2,-1,0,-2,-3,-2,-2,2021-08-06 13:56:58,680864
-2,-2,0,0,-2,-2,-2,-3,2021-08-06 13:56:58,680864
0,1,-2,-1,-3,-1,-3,0,2021-08-06 13:56:58,680864
2,-1,0,0,-1,1,3,1,2021-08-06 13:56:58,680864
0,-1,-1,0,0,1,1,0,2021-08-06 13:56:58,696851
-1,-1,-1,-2,-1,-3,-3,0,2021-08-06 13:56:58,696851
-2,0,-2,-2,-3,-3,-2,0,2021-08-06 13:56:58,711816
-1,1,-1,-2,0,1,3,-1,2021-08-06 13:56:58,711816
1,0,0,-1,-2,1,-2,0,2021-08-06 13:56:58,711816
-1,-2,-2,1,-1,-3,-2,-2,2021-08-06 13:56:58,711816
-1,-2,-1,0,-1,1,1,-2,2021-08-06 13:56:58,726820
0,1,0,2,1,1,1,2,2021-08-06 13:56:58,742865
-3,-1,-2,0,-2,-2,-5,-3,2021-08-06 13:56:58,758816
-2,0,-2,0,1,-2,-2,-1,2021-08-06 13:56:58,758816
-1,-2,-1,-1,1,-1,1,-2,2021-08-06 13:56:58,758816
1,0,-1,0,0,2,1,2,2021-08-06 13:56:58,758816
-1,-2,0,-1,1,-1,0,-1,2021-08-06 13:56:58,758816
-1,0,-3,-2,-2,-1,0,-1,2021-08-06 13:56:58,758816
-1,0,-1,-2,-1,0,-4,0,2021-08-06 13:56:58,758816
-2,0,-1,-2,1,0,0,0,2021-08-06 13:56:58,758816
0,-1,-1,0,-1,-2,-1,0,2021-08-06 13:56:58,762868
1,-1,-1,0,0,0,-2,1,2021-08-06 13:56:58,763815
-1,1,0,-2,-1,-1,0,1,2021-08-06 13:56:58,790852
1,-2,0,0,-1,-1,-1,-2,2021-08-06 13:56:58,790852
0,0,0,0,0,-1,0,-2,2021-08-06 13:56:58,790852
-1,-2,-1,-1,-2,-1,-1,-2,2021-08-06 13:56:58,790852
-1,-2,-1,0,-1,-3,-1,-1,2021-08-06 13:56:58,790852
1,-1,0,-1,1,1,0,1,2021-08-06 13:56:58,790852
-1,-1,0,0,-1,0,-1,0,2021-08-06 13:56:58,821844
-2,-1,0,0,0,-1,-1,0,2021-08-06 13:56:58,837850
-1,0,0,-1,0,-1,-1,-1,2021-08-06 13:56:58,837850
-1,-1,-2,-2,-1,-2,-2,-3,2021-08-06 13:56:58,837850
-1,-1,0,-1,-1,-3,-2,-2,2021-08-06 13:56:58,837850
-2,0,-1,-2,0,0,0,-1,2021-08-06 13:56:58,837850
0,-3,-1,-1,-1,-1,-1,0,2021-08-06 13:56:58,837850
0,0,0,-1,-1,-1,0,0,2021-08-06 13:56:58,837850
-1,-2,-2,-1,-1,1,-1,0,2021-08-06 13:56:58,853816
0,-1,0,-1,-2,-1,-2,-1,2021-08-06 13:56:58,868853
-1,0,-1,-1,1,-1,1,-1,2021-08-06 13:56:58,898813
-3,0,-1,1,-2,0,-1,-1,2021-08-06 13:56:58,898813
-2,-1,1,0,-2,-1,-1,0,2021-08-06 13:56:58,898813
-2,-2,-1,1,-1,-3,-2,0,2021-08-06 13:56:58,898813
1,-1,-1,-1,-2,-1,0,0,2021-08-06 13:56:58,898813
-1,-1,-2,-3,-1,0,-1,-1,2021-08-06 13:56:58,898813
0,0,-3,-2,0,0,1,-2,2021-08-06 13:56:58,898813
-1,0,-1,-3,-1,-1,-1,-2,2021-08-06 13:56:58,899851
1,0,-3,1,-2,-2,0,-2,2021-08-06 13:56:58,899851
1,-1,-1,-1,-1,-1,-2,1,2021-08-06 13:56:58,899851
-1,0,-3,-2,-1,-2,-1,0,2021-08-06 13:56:58,913870
0,-1,0,-1,-1,-1,0,0,2021-08-06 13:56:58,913870
-3,-2,-1,0,0,-2,-2,-1,2021-08-06 13:56:58,913870
1,0,0,-1,0,-2,-1,-1,2021-08-06 13:56:58,913870
-2,-2,-2,-2,0,0,0,-1,2021-08-06 13:56:58,943850
-2,-1,-1,-1,-1,0,-1,-2,2021-08-06 13:56:58,943850
-1,-2,-1,-2,-1,0,-2,-1,2021-08-06 13:56:58,943850
1,0,0,1,0,0,-1,0,2021-08-06 13:56:58,943850
0,-2,1,-2,-1,-1,1,-1,2021-08-06 13:56:58,959851
-2,-1,0,-1,-1,-1,1,0,2021-08-06 13:56:58,974851
-2,-1,-2,-1,-2,-1,-1,0,2021-08-06 13:56:58,974851
-1,0,-2,0,-3,-1,-3,-1,2021-08-06 13:56:58,974851
-1,-1,-1,-1,-1,-1,-1,1,2021-08-06 13:56:58,974851
0,-1,-1,-1,-2,0,-1,0,2021-08-06 13:56:58,974851
0,1,1,0,-1,0,-1,0,2021-08-06 13:56:58,974851
-2,-1,-1,-1,-2,-2,0,-1,2021-08-06 13:56:58,974851
-1,-1,-1,-2,-1,-1,0,-2,2021-08-06 13:56:59,005853
-1,-1,-1,0,-1,-1,-1,-1,2021-08-06 13:56:59,021850
-1,0,-2,0,-1,0,-2,-1,2021-08-06 13:56:59,021850
0,-1,1,1,2,-2,-2,-3,2021-08-06 13:56:59,021850
-3,-1,0,0,0,0,-1,0,2021-08-06 13:56:59,021850
-1,-1,-2,-3,-4,-4,-2,1,2021-08-06 13:56:59,021850
-1,-1,-1,-2,-2,-1,1,0,2021-08-06 13:56:59,021850
0,-1,0,2,2,1,1,-1,2021-08-06 13:56:59,021850
1,1,1,3,3,1,1,0,2021-08-06 13:56:59,037864
2,-2,-1,0,-2,0,-1,0,2021-08-06 13:56:59,037864
-1,-1,-3,-6,-5,-4,-2,-1,2021-08-06 13:56:59,037864
-2,-1,-2,-2,-2,0,-2,-2,2021-08-06 13:56:59,037864
1,-2,1,2,0,0,-4,-1,2021-08-06 13:56:59,069853
1,1,0,1,3,2,1,-2,2021-08-06 13:56:59,085852
0,0,1,-1,2,-1,2,0,2021-08-06 13:56:59,085852
-1,-1,-1,-3,-2,-3,0,-1,2021-08-06 13:56:59,085852
-1,1,-2,-2,-1,-1,1,-1,2021-08-06 13:56:59,085852
-3,0,0,1,0,1,-1,-2,2021-08-06 13:56:59,085852
-1,0,0,1,0,-2,-2,0,2021-08-06 13:56:59,085852
0,0,-1,-3,-2,1,0,1,2021-08-06 13:56:59,085852
-3,-1,-1,0,0,-1,-1,-1,2021-08-06 13:56:59,101829
-1,-2,0,0,-2,-2,0,1,2021-08-06 13:56:59,101829
-1,-3,-1,-1,0,1,-1,-2,2021-08-06 13:56:59,101829
-2,-1,0,-1,-1,-1,0,0,2021-08-06 13:56:59,101829
0,1,-2,-2,-1,-2,-1,-1,2021-08-06 13:56:59,117864
-2,1,-1,-2,0,-2,-2,-2,2021-08-06 13:56:59,117864
-1,0,0,1,-1,-1,0,-2,2021-08-06 13:56:59,117864
0,-1,-2,0,-1,-1,-2,1,2021-08-06 13:56:59,117864
-1,0,-2,-1,-3,-1,-2,0,2021-08-06 13:56:59,149850
-1,1,-2,0,0,0,0,0,2021-08-06 13:56:59,165855
0,-1,0,-1,-1,0,0,0,2021-08-06 13:56:59,197815
-3,-1,0,-2,-2,-2,-3,-2,2021-08-06 13:56:59,197815
-2,-2,-3,-2,-3,-1,0,0,2021-08-06 13:56:59,197815
1,-1,0,-1,-1,0,-1,-2,2021-08-06 13:56:59,197815
-1,0,-1,-1,-2,-1,-2,1,2021-08-06 13:56:59,197815
-1,1,0,-1,0,1,1,0,2021-08-06 13:56:59,197815
-1,-2,0,-2,-2,0,-1,-1,2021-08-06 13:56:59,197815
-1,-1,-1,0,0,-2,-1,-1,2021-08-06 13:56:59,197815
-1,-2,-2,-1,0,1,0,-2,2021-08-06 13:56:59,198814
-1,0,-2,-1,-2,-1,0,-1,2021-08-06 13:56:59,198814
-1,-1,-1,-1,-2,-1,1,-2,2021-08-06 13:56:59,198814
0,-1,-2,0,-1,0,0,-2,2021-08-06 13:56:59,198814
0,0,-1,-1,1,0,-1,-1,2021-08-06 13:56:59,198814
0,-2,-1,0,1,-1,-1,0,2021-08-06 13:56:59,198814
0,0,-1,-1,0,-1,-1,0,2021-08-06 13:56:59,213850
-2,-2,-1,-1,-2,0,-2,1,2021-08-06 13:56:59,213850
-1,-1,0,0,0,-2,0,-1,2021-08-06 13:56:59,213850
0,-1,-1,-1,0,0,0,0,2021-08-06 13:56:59,213850
0,-2,-2,0,-1,1,-1,-2,2021-08-06 13:56:59,243855
1,-1,-1,0,-1,-1,-2,-2,2021-08-06 13:56:59,243855
-2,-1,0,-1,0,-2,-3,0,2021-08-06 13:56:59,243855
-1,-1,-2,0,-2,-1,1,-2,2021-08-06 13:56:59,243855
-1,0,-1,-2,0,0,0,0,2021-08-06 13:56:59,258816
-1,1,1,-2,-2,-1,0,-1,2021-08-06 13:56:59,274816
0,0,-1,1,-1,-1,-1,0,2021-08-06 13:56:59,289815
1,-1,0,-1,-1,0,-1,-1,2021-08-06 13:56:59,289815
-1,-1,1,-2,-1,0,-2,0,2021-08-06 13:56:59,289815
-1,-1,-1,0,0,-1,-2,-1,2021-08-06 13:56:59,289815
-1,0,-2,-2,0,1,2,-2,2021-08-06 13:56:59,289815
-1,0,1,-2,-1,0,0,1,2021-08-06 13:56:59,289815
0,-1,-2,2,-1,0,-2,-2,2021-08-06 13:56:59,289815
0,-2,-2,0,0,1,-1,1,2021-08-06 13:56:59,289815
-1,0,-2,-1,-2,0,-1,0,2021-08-06 13:56:59,304815
-1,-1,-1,-1,-1,-2,-3,-1,2021-08-06 13:56:59,320815
-1,-1,0,-1,-1,-1,-1,0,2021-08-06 13:56:59,336818
-2,-2,0,-1,-1,0,1,1,2021-08-06 13:56:59,336818
-2,0,-1,0,-1,-1,-3,-1,2021-08-06 13:56:59,336818
-2,0,-1,-1,2,-2,0,0,2021-08-06 13:56:59,336818
0,0,1,0,-2,-1,-1,-1,2021-08-06 13:56:59,336818
-1,-2,-1,-2,0,-2,-1,-1,2021-08-06 13:56:59,336818
-2,-2,0,-1,-2,0,0,-1,2021-08-06 13:56:59,336818
-3,1,0,-1,-1,0,-1,-1,2021-08-06 13:56:59,337851
-1,1,-2,0,-1,-3,-1,0,2021-08-06 13:56:59,368858
-1,-2,-2,-2,0,0,-1,0,2021-08-06 13:56:59,383857
-1,-1,0,-1,0,-1,1,-2,2021-08-06 13:56:59,383857
-1,-1,-2,0,0,-2,-1,-2,2021-08-06 13:56:59,383857
-1,-1,-1,-3,0,-1,0,-1,2021-08-06 13:56:59,383857
1,1,-1,-2,-1,0,0,-1,2021-08-06 13:56:59,383857
0,-1,-1,-1,0,0,-2,1,2021-08-06 13:56:59,383857
-2,-1,0,-1,-1,-1,0,-2,2021-08-06 13:56:59,383857
-1,0,-1,-1,-1,0,-1,-2,2021-08-06 13:56:59,398816
-2,0,0,0,-1,-1,-2,-2,2021-08-06 13:56:59,398816
0,-2,-1,0,-1,-2,-1,0,2021-08-06 13:56:59,398816
1,-2,0,-2,-1,1,-1,1,2021-08-06 13:56:59,398816
0,-1,-1,-2,-1,-2,-1,0,2021-08-06 13:56:59,429863
1,-2,-1,-1,-1,-1,-1,0,2021-08-06 13:56:59,445816
-1,0,-2,0,-1,0,-1,-1,2021-08-06 13:56:59,445816
-1,-3,-2,1,-2,-1,2,-2,2021-08-06 13:56:59,445816
-3,-3,-1,1,-1,1,-1,-1,2021-08-06 13:56:59,445816
-1,1,1,0,-1,0,-3,-2,2021-08-06 13:56:59,445816
-1,-1,0,-1,0,-1,-3,-3,2021-08-06 13:56:59,445816
0,1,-1,-2,-2,-1,-2,-2,2021-08-06 13:56:59,445816
-1,-1,2,-1,-2,-2,-1,-1,2021-08-06 13:56:59,445816
-1,1,-1,-1,0,-3,1,1,2021-08-06 13:56:59,446853
-1,0,-1,0,-2,-1,0,-1,2021-08-06 13:56:59,461851
0,-3,-1,-1,-1,0,-1,-1,2021-08-06 13:56:59,461851
1,0,-2,-2,-1,-1,-1,0,2021-08-06 13:56:59,474852
0,-1,-1,-1,-1,0,0,0,2021-08-06 13:56:59,475813
0,-1,-2,-1,0,-1,-1,-3,2021-08-06 13:56:59,475813
-2,-1,-1,0,0,0,-1,0,2021-08-06 13:56:59,475813
-1,-2,0,0,0,-1,0,-1,2021-08-06 13:56:59,509814
-2,-3,-2,-2,0,-1,-1,-1,2021-08-06 13:56:59,509814
-2,0,0,0,-1,0,-2,-1,2021-08-06 13:56:59,509814
0,-1,-2,-1,-2,-1,-1,-1,2021-08-06 13:56:59,509814
-1,0,-1,-1,-1,-1,-1,0,2021-08-06 13:56:59,509814
0,0,-1,0,0,-2,-2,1,2021-08-06 13:56:59,509814
0,0,-1,-1,0,-1,-1,-1,2021-08-06 13:56:59,541863
-1,1,0,-1,-1,-1,-1,-1,2021-08-06 13:56:59,557858
-1,0,-1,0,0,-1,0,-2,2021-08-06 13:56:59,573851
0,-2,-1,-1,0,0,1,0,2021-08-06 13:56:59,589864
0,-1,0,-2,-1,0,2,1,2021-08-06 13:56:59,605864
0,-1,-1,0,-1,-1,-1,-1,2021-08-06 13:56:59,605864
-3,-1,-2,-3,-2,-4,-5,-3,2021-08-06 13:56:59,605864
-2,-1,-1,-2,-1,-2,-2,-2,2021-08-06 13:56:59,605864
-3,1,0,-1,2,-2,1,-2,2021-08-06 13:56:59,605864
0,1,-1,-2,-1,0,-2,1,2021-08-06 13:56:59,605864
0,-1,-1,0,-1,1,1,0,2021-08-06 13:56:59,605864
0,-1,-1,1,-1,-1,-1,0,2021-08-06 13:56:59,605864
1,-3,-1,-2,-2,0,-1,-1,2021-08-06 13:56:59,605864
-1,-2,0,-1,0,-1,-1,-1,2021-08-06 13:56:59,605864
1,1,-1,-1,0,-1,-1,-1,2021-08-06 13:56:59,605864
0,0,0,-1,-2,-2,1,0,2021-08-06 13:56:59,606852
-2,0,-1,-1,-1,-1,0,0,2021-08-06 13:56:59,606852
-2,0,-1,-2,-1,-4,-3,-2,2021-08-06 13:56:59,606852
-1,-2,-2,-1,0,1,-1,-1,2021-08-06 13:56:59,637850
-1,0,-1,-1,-1,-1,-1,-1,2021-08-06 13:56:59,637850
-1,0,0,0,-1,0,-2,-2,2021-08-06 13:56:59,637850
-2,-3,-1,-1,0,0,0,-2,2021-08-06 13:56:59,637850
-2,0,0,0,-1,0,-1,-1,2021-08-06 13:56:59,637850
0,-1,-1,0,-2,-1,-2,-1,2021-08-06 13:56:59,637850
0,-2,-1,-1,1,-2,-1,0,2021-08-06 13:56:59,638852
0,0,0,-1,1,0,-1,-2,2021-08-06 13:56:59,638852
0,-3,-1,1,-2,0,1,-1,2021-08-06 13:56:59,669851
-2,-2,0,-1,0,-1,0,-2,2021-08-06 13:56:59,685815
0,-2,-1,0,-1,-1,-2,0,2021-08-06 13:56:59,701816
-2,-1,1,1,-1,0,-1,0,2021-08-06 13:56:59,701816
-1,-1,0,-2,-2,-2,-1,-1,2021-08-06 13:56:59,701816
-2,0,-2,-2,-1,-1,1,0,2021-08-06 13:56:59,701816
-1,-3,-2,-1,-2,-1,-1,-2,2021-08-06 13:56:59,701816
-1,-1,-2,-3,-2,0,0,-1,2021-08-06 13:56:59,701816
-1,0,-1,1,1,0,-1,0,2021-08-06 13:56:59,701816
0,-3,-1,1,-1,-1,0,-2,2021-08-06 13:56:59,701816
-1,0,0,0,-1,-2,-2,0,2021-08-06 13:56:59,701816
0,-2,-1,0,-2,-1,-1,-1,2021-08-06 13:56:59,701816
1,0,-1,0,-1,0,0,-2,2021-08-06 13:56:59,717868
-1,-2,-1,-2,-2,-1,-1,-1,2021-08-06 13:56:59,733856
0,-1,-2,-1,0,-2,0,-1,2021-08-06 13:56:59,733856
-2,0,0,-1,-1,-2,0,0,2021-08-06 13:56:59,733856
-1,0,-2,-3,0,-2,-1,-2,2021-08-06 13:56:59,733856
-1,0,-1,-1,-2,-1,-1,-1,2021-08-06 13:56:59,733856
0,-1,-1,-2,-1,-1,0,0,2021-08-06 13:56:59,733856
1,-1,-1,0,-1,-1,0,0,2021-08-06 13:56:59,733856
-2,-1,0,-1,-1,0,-1,-1,2021-08-06 13:56:59,765851
-2,-1,0,1,-1,0,-2,-1,2021-08-06 13:56:59,781850
0,-2,-2,-2,-1,1,-1,-1,2021-08-06 13:56:59,781850
-1,0,-2,-2,-1,-1,-2,0,2021-08-06 13:56:59,781850
0,-2,-2,-1,-2,-1,0,0,2021-08-06 13:56:59,781850
0,-1,-2,-1,0,0,-1,-1,2021-08-06 13:56:59,781850
0,0,0,1,-1,0,0,0,2021-08-06 13:56:59,781850
1,-1,0,0,1,-1,-1,0,2021-08-06 13:56:59,782816
-1,0,0,0,-2,-1,1,1,2021-08-06 13:56:59,797815
-1,1,-1,-1,-1,-1,1,-1,2021-08-06 13:56:59,797815
-2,-1,-1,0,-2,-1,0,-1,2021-08-06 13:56:59,813813
0,0,-2,-1,-2,-1,0,-1,2021-08-06 13:56:59,813813
-3,-1,0,-2,-1,-1,-1,-1,2021-08-06 13:56:59,813813
-1,0,1,0,-1,0,0,0,2021-08-06 13:56:59,813813
-1,-1,0,-1,1,-1,-1,-2,2021-08-06 13:56:59,824841
-1,0,0,1,-1,0,-1,-2,2021-08-06 13:56:59,825857
-2,0,0,-3,0,-1,0,-1,2021-08-06 13:56:59,845864
-1,0,-1,-2,-2,1,0,0,2021-08-06 13:56:59,861816
-1,-1,-1,0,-2,-2,-1,0,2021-08-06 13:56:59,876815
0,-2,-1,0,0,-1,-2,-2,2021-08-06 13:56:59,876815
0,-1,-2,0,-1,-1,-1,-1,2021-08-06 13:56:59,876815
0,1,-1,0,0,-1,-1,-1,2021-08-06 13:56:59,876815
0,-1,0,-2,-1,-2,0,0,2021-08-06 13:56:59,876815
-1,-3,-1,1,-2,-2,0,-1,2021-08-06 13:56:59,876815
0,-1,1,0,-1,0,-2,-1,2021-08-06 13:56:59,876815
-2,-2,0,-2,0,-1,-1,-1,2021-08-06 13:56:59,877851
-2,0,-1,-1,-1,-1,-1,-1,2021-08-06 13:56:59,907853
0,-1,0,-2,-1,0,1,0,2021-08-06 13:56:59,907853
-1,0,-1,0,-1,-1,-1,-1,2021-08-06 13:56:59,907853
-2,0,-1,-1,-2,-2,-1,-2,2021-08-06 13:56:59,907853
0,-1,0,0,-1,-2,-1,-1,2021-08-06 13:56:59,907853
-2,-1,-1,-1,-2,-1,1,0,2021-08-06 13:56:59,907853
-1,-1,-1,0,-1,-1,0,-2,2021-08-06 13:56:59,939850
0,-2,-2,0,-1,-1,0,-2,2021-08-06 13:56:59,939850
-1,-1,0,-1,-1,-1,1,-1,2021-08-06 13:56:59,955867
-1,-2,-1,-2,0,-1,-1,0,2021-08-06 13:56:59,955867
-1,-3,0,-1,0,-1,-1,1,2021-08-06 13:56:59,955867
-1,-1,-1,-1,0,-1,-2,0,2021-08-06 13:56:59,955867
-3,0,-1,-1,0,-1,0,0,2021-08-06 13:56:59,955867
-1,0,-1,-1,0,-1,-1,0,2021-08-06 13:56:59,955867
-2,-1,-1,-1,-1,-3,-1,0,2021-08-06 13:56:59,971816
-2,-3,-1,1,-1,-1,0,-1,2021-08-06 13:56:59,987850
-1,-1,0,-1,-2,1,-1,-1,2021-08-06 13:56:59,987850
-2,0,0,0,0,0,-1,-3,2021-08-06 13:56:59,987850
-1,-1,-1,-1,-1,0,-1,-2,2021-08-06 13:56:59,987850
1,-2,-1,-2,-1,-2,-1,-1,2021-08-06 13:56:59,987850
0,-1,-2,0,-1,1,-1,0,2021-08-06 13:56:59,987850
-1,1,0,-2,-1,0,0,-2,2021-08-06 13:56:59,987850
0,-1,-1,1,0,0,-1,0,2021-08-06 13:57:00,003816
-1,0,0,0,0,-1,-1,-1,2021-08-06 13:57:00,019813
-2,0,-1,-1,-2,0,-2,-1,2021-08-06 13:57:00,019813
0,-3,-1,-1,-2,-2,-1,-2,2021-08-06 13:57:00,019813
-1,-2,-1,0,0,-2,0,-2,2021-08-06 13:57:00,019813
-2,0,-1,1,-2,0,-2,0,2021-08-06 13:57:00,019813
-1,-1,-1,-2,0,-2,-2,-1,2021-08-06 13:57:00,019813
-1,0,-2,-1,-1,-1,-1,0,2021-08-06 13:57:00,019813
1,-1,0,-2,0,0,-2,0,2021-08-06 13:57:00,050864
0,-1,0,-1,0,-1,0,0,2021-08-06 13:57:00,066863
0,-1,0,-1,-1,-1,1,-1,2021-08-06 13:57:00,066863
-1,-1,-1,-1,-1,-1,-1,0,2021-08-06 13:57:00,066863
-2,-2,-1,-1,-1,0,0,-1,2021-08-06 13:57:00,066863
-1,-1,-1,0,-1,0,0,-1,2021-08-06 13:57:00,066863
1,-2,-1,-2,0,0,-3,-1,2021-08-06 13:57:00,067815
-2,-1,0,0,0,-1,-1,0,2021-08-06 13:57:00,067815
1,1,-1,1,-1,-1,-2,-1,2021-08-06 13:57:00,082814
0,0,-1,3,-1,-1,-1,-2,2021-08-06 13:57:00,082814
-2,-2,0,-2,0,-2,0,-1,2021-08-06 13:57:00,082814
0,0,-1,-1,0,0,1,-1,2021-08-06 13:57:00,082814
-2,-2,-2,-1,-2,-1,-1,-1,2021-08-06 13:57:00,098850
0,-1,-2,-2,-1,-2,-2,-2,2021-08-06 13:57:00,114863
0,0,-1,0,-1,-1,-1,-1,2021-08-06 13:57:00,130863
0,0,0,1,0,-1,0,-1,2021-08-06 13:57:00,130863
-2,0,1,0,0,0,-1,-1,2021-08-06 13:57:00,130863
-1,-1,0,-2,-2,-1,0,0,2021-08-06 13:57:00,130863
1,-2,0,-1,-1,0,0,0,2021-08-06 13:57:00,130863
-1,-2,-1,0,0,1,-1,-2,2021-08-06 13:57:00,130863
0,-2,-1,0,-1,0,1,-1,2021-08-06 13:57:00,130863
-1,-1,-2,0,-1,-3,-3,-3,2021-08-06 13:57:00,131832
0,0,-1,-2,-1,-1,0,-2,2021-08-06 13:57:00,146812
0,-1,-1,0,0,0,-1,0,2021-08-06 13:57:00,161851
-1,1,0,-1,-2,-2,0,1,2021-08-06 13:57:00,161851
1,-1,-1,0,0,2,0,-1,2021-08-06 13:57:00,161851
0,0,-2,0,0,0,3,0,2021-08-06 13:57:00,161851
0,0,0,-1,-1,2,1,0,2021-08-06 13:57:00,161851
-2,-1,-2,0,1,-5,-9,-3,2021-08-06 13:57:00,188813
-4,-1,-2,-5,-4,-3,-4,-3,2021-08-06 13:57:00,188813
-1,0,0,-1,-2,-2,-2,-2,2021-08-06 13:57:00,189814
-2,-1,0,-1,-2,1,1,0,2021-08-06 13:57:00,189814
2,1,-1,1,-1,3,6,4,2021-08-06 13:57:00,189814
0,0,0,1,0,0,-1,2,2021-08-06 13:57:00,189814
1,0,-2,0,1,1,1,0,2021-08-06 13:57:00,209851
1,1,-1,0,-2,-1,-1,1,2021-08-06 13:57:00,225850
-1,-2,0,-3,-1,-4,-3,-3,2021-08-06 13:57:00,241863
-2,-1,-1,1,0,0,0,-1,2021-08-06 13:57:00,241863
-1,-1,-1,-1,-1,-1,-1,0,2021-08-06 13:57:00,241863
-1,-2,-1,-3,0,-3,-1,0,2021-08-06 13:57:00,241863
0,-2,-2,-1,-1,2,0,-3,2021-08-06 13:57:00,241863
-1,-1,-1,0,-1,-1,1,0,2021-08-06 13:57:00,241863
-2,-2,-1,-1,-2,0,-1,-1,2021-08-06 13:57:00,257850
-1,0,0,-2,-2,-4,0,-1,2021-08-06 13:57:00,257850
1,1,-1,-2,0,-2,0,2,2021-08-06 13:57:00,257850
0,-2,-1,-2,0,0,0,-2,2021-08-06 13:57:00,257850
-2,-3,-1,0,-1,-2,-2,-1,2021-08-06 13:57:00,257850
0,3,0,2,4,3,4,1,2021-08-06 13:57:00,257850
0,-1,1,2,2,1,1,1,2021-08-06 13:57:00,287851
0,-1,1,0,2,-1,-1,0,2021-08-06 13:57:00,287851
-7,-5,-5,-3,-6,-6,-8,-6,2021-08-06 13:57:00,287851
6,3,2,2,2,7,11,5,2021-08-06 13:57:00,287851
7,6,2,3,2,5,3,5,2021-08-06 13:57:00,319816
2,2,3,3,1,-5,-3,1,2021-08-06 13:57:00,335853
-14,-11,-11,-12,-15,-20,-19,-15,2021-08-06 13:57:00,335853
-4,-3,-2,-4,-3,-4,-6,-2,2021-08-06 13:57:00,351815
0,-1,-1,0,1,4,4,1,2021-08-06 13:57:00,367864
8,6,5,2,6,12,12,9,2021-08-06 13:57:00,367864
3,3,2,3,4,5,5,2,2021-08-06 13:57:00,367864
-4,-2,-1,-1,0,-2,-4,-3,2021-08-06 13:57:00,367864
1,-1,0,0,-1,0,2,1,2021-08-06 13:57:00,367864
-4,-3,-2,-3,-2,-5,-5,-4,2021-08-06 13:57:00,367864
2,1,0,-2,1,1,3,2,2021-08-06 13:57:00,383864
-2,-2,-1,-1,-1,-4,-4,-2,2021-08-06 13:57:00,383864
-2,-2,-2,-2,0,-3,-3,-3,2021-08-06 13:57:00,383864
-5,-2,-2,-1,-4,-3,-3,-4,2021-08-06 13:57:00,383864
1,1,1,2,2,4,3,2,2021-08-06 13:57:00,383864
2,0,-2,1,0,0,-1,0,2021-08-06 13:57:00,383864
-5,-3,-2,-3,-4,-6,-4,-4,2021-08-06 13:57:00,383864
-3,-2,-3,-1,-3,-1,-2,-1,2021-08-06 13:57:00,383864
3,1,1,3,2,4,2,4,2021-08-06 13:57:00,383864
-2,-4,-1,-1,-4,-3,-4,-3,2021-08-06 13:57:00,383864
-3,-2,-2,-2,-2,-3,-3,-4,2021-08-06 13:57:00,399864
0,-1,-1,-3,-2,-1,-1,-2,2021-08-06 13:57:00,415844
2,1,1,2,2,1,2,1,2021-08-06 13:57:00,431814
-1,-1,-2,-3,-1,-2,-3,-2,2021-08-06 13:57:00,431814
-2,-2,-1,-2,-2,0,-3,-2,2021-08-06 13:57:00,431814
-1,0,0,-1,0,1,1,-1,2021-08-06 13:57:00,431814
0,-1,-1,0,-1,-1,1,-2,2021-08-06 13:57:00,431814
-2,-2,-1,-1,-1,-3,-2,-2,2021-08-06 13:57:00,431814
-2,1,0,-2,0,-2,1,0,2021-08-06 13:57:00,447817
-3,0,-1,-1,-2,-1,-1,0,2021-08-06 13:57:00,447817
-1,-1,-1,-1,-1,0,-1,-1,2021-08-06 13:57:00,447817
-1,-1,0,-1,-1,0,0,0,2021-08-06 13:57:00,447817
-1,-1,0,1,-1,-1,-3,-1,2021-08-06 13:57:00,463863
0,-2,-1,-1,-2,-3,-2,0,2021-08-06 13:57:00,479863
0,-1,0,-1,0,-1,-1,0,2021-08-06 13:57:00,495853
1,1,-2,0,0,-2,-1,-1,2021-08-06 13:57:00,495853
-2,-1,-1,-1,-3,-2,-1,-1,2021-08-06 13:57:00,495853
-2,0,-3,-1,-2,-1,1,0,2021-08-06 13:57:00,495853
1,0,1,1,0,1,-1,0,2021-08-06 13:57:00,495853
-1,-2,0,-1,-1,-2,-1,-2,2021-08-06 13:57:00,495853
-1,-2,0,0,-1,0,-2,-2,2021-08-06 13:57:00,511853
-1,1,-1,-3,-1,0,-1,-2,2021-08-06 13:57:00,511853
0,-2,-1,-1,-1,-2,0,0,2021-08-06 13:57:00,511853
-2,-1,0,-1,-2,-2,0,-1,2021-08-06 13:57:00,511853
-1,0,-2,-1,0,-1,-1,-2,2021-08-06 13:57:00,511853
-2,-1,0,0,0,1,-2,0,2021-08-06 13:57:00,511853
0,1,-1,0,-1,1,-1,-1,2021-08-06 13:57:00,526815
0,-2,-1,0,0,-1,-2,-1,2021-08-06 13:57:00,526815
-1,0,-4,-1,-2,-1,0,-1,2021-08-06 13:57:00,545855
-2,0,-2,0,-1,0,0,0,2021-08-06 13:57:00,545855
-2,0,1,-1,-1,1,-1,0,2021-08-06 13:57:00,545855
-1,-1,-1,-1,-1,-1,-1,0,2021-08-06 13:57:00,545855
-2,-1,-1,-1,-2,-1,0,-1,2021-08-06 13:57:00,572816
-1,-2,-1,0,-2,-2,-1,0,2021-08-06 13:57:00,587865
-1,-1,1,0,-1,-2,0,-2,2021-08-06 13:57:00,603858
-1,0,0,0,-1,-1,0,-1,2021-08-06 13:57:00,603858
0,-1,0,0,-1,0,-2,-1,2021-08-06 13:57:00,603858
1,-1,-1,0,-1,-1,-1,-2,2021-08-06 13:57:00,603858
1,-1,0,-2,-1,1,-1,-1,2021-08-06 13:57:00,603858
-2,-1,-2,0,0,0,-1,-2,2021-08-06 13:57:00,603858
-1,-2,0,-1,-1,-2,0,-1,2021-08-06 13:57:00,620023
1,-1,-1,-2,0,-1,0,0,2021-08-06 13:57:00,620023
1,1,-2,-1,-2,0,0,0,2021-08-06 13:57:00,620023
-1,1,-1,0,0,-2,-1,-1,2021-08-06 13:57:00,620023
-1,-2,-1,-1,-1,-2,-2,-1,2021-08-06 13:57:00,620023
-1,-1,-1,-1,-1,0,-1,-2,2021-08-06 13:57:00,635814
-1,1,-1,-1,0,-2,1,-2,2021-08-06 13:57:00,650866
-2,-1,0,-2,-2,-1,-1,-2,2021-08-06 13:57:00,650866
1,2,1,-1,-2,-2,-1,-1,2021-08-06 13:57:00,666864
-2,-1,-2,-1,0,-2,-1,0,2021-08-06 13:57:00,682851
0,-5,-3,-1,0,0,0,0,2021-08-06 13:57:00,682851
-1,-2,-4,-1,0,-1,0,-2,2021-08-06 13:57:00,682851
-1,2,-1,0,-1,-1,0,-1,2021-08-06 13:57:00,682851
-1,1,0,-1,-1,-2,-2,-1,2021-08-06 13:57:00,682851
-2,0,1,-1,-1,-1,0,0,2021-08-06 13:57:00,682851
0,-2,0,0,-1,-1,-2,-1,2021-08-06 13:57:00,682851
0,-2,-3,0,1,0,0,-1,2021-08-06 13:57:00,682851
-1,-2,-1,-2,-1,-1,0,-2,2021-08-06 13:57:00,683852
0,0,-1,1,-2,0,-2,-1,2021-08-06 13:57:00,683852
0,-2,0,-2,-2,0,-2,-1,2021-08-06 13:57:00,683852
1,-2,0,0,-2,-2,1,-1,2021-08-06 13:57:00,698813
0,0,0,0,0,-1,0,-1,2021-08-06 13:57:00,698813
0,-1,0,-1,-1,-1,1,0,2021-08-06 13:57:00,698813
-2,1,1,-1,-1,1,-1,1,2021-08-06 13:57:00,698813
-2,-1,-3,-1,0,-1,-1,-1,2021-08-06 13:57:00,729863
0,-3,-3,-1,-1,1,-2,0,2021-08-06 13:57:00,744852
0,-1,-2,-2,-2,-1,-3,-2,2021-08-06 13:57:00,744852
-1,0,-1,0,-2,0,-1,-1,2021-08-06 13:57:00,744852
-2,-2,0,1,-2,0,-2,0,2021-08-06 13:57:00,744852
-1,-2,0,0,-1,-1,-1,-1,2021-08-06 13:57:00,744852
-3,1,-1,0,-1,-1,0,-1,2021-08-06 13:57:00,744852
0,-1,-1,-2,-2,-1,-2,-2,2021-08-06 13:57:00,744852
0,-1,-3,-3,-1,-1,-1,-1,2021-08-06 13:57:00,759851
-2,-1,0,-1,-2,-2,-1,-1,2021-08-06 13:57:00,775858
-1,0,0,-2,-1,-2,-1,0,2021-08-06 13:57:00,775858
-1,-3,-1,0,-1,-1,-1,0,2021-08-06 13:57:00,775858
-1,0,-2,-2,-1,1,0,-1,2021-08-06 13:57:00,775858
0,0,-2,-1,0,-1,1,-2,2021-08-06 13:57:00,775858
-2,-2,-1,-1,-1,-1,-2,-1,2021-08-06 13:57:00,775858
-2,-1,-1,0,0,-2,1,-1,2021-08-06 13:57:00,775858
0,-2,0,-1,0,-2,-1,-1,2021-08-06 13:57:00,807850
-2,-1,0,-2,-1,-2,0,-1,2021-08-06 13:57:00,823850
-1,0,-2,-1,0,0,-1,0,2021-08-06 13:57:00,823850
0,0,0,-1,-1,0,-1,-1,2021-08-06 13:57:00,823850
-1,0,0,-2,-2,-1,-3,1,2021-08-06 13:57:00,823850
-1,0,-1,-1,-1,0,-1,-2,2021-08-06 13:57:00,823850
-1,-1,0,0,-1,-1,-1,-1,2021-08-06 13:57:00,823850
-1,-1,-1,-2,-2,0,0,0,2021-08-06 13:57:00,823850
-2,-2,-1,0,-1,-1,-1,-1,2021-08-06 13:57:00,839863
-1,-1,-1,-1,-1,-1,-2,-1,2021-08-06 13:57:00,839863
0,0,-1,-1,0,-2,0,-1,2021-08-06 13:57:00,839863
-1,-1,0,0,-1,0,-1,0,2021-08-06 13:57:00,839863
-1,-2,0,0,-2,1,0,-2,2021-08-06 13:57:00,871850
0,-1,-1,1,-2,2,-3,-1,2021-08-06 13:57:00,871850
-1,-2,-1,-1,0,0,-2,-1,2021-08-06 13:57:00,871850
-2,1,-1,-1,0,-1,-1,0,2021-08-06 13:57:00,871850
-1,0,0,-1,1,0,2,1,2021-08-06 13:57:00,871850
0,-1,-1,-2,-1,-1,0,2,2021-08-06 13:57:00,871850
0,-2,-2,-3,-2,-3,-6,-2,2021-08-06 13:57:00,887850
-1,-1,-2,-2,-1,-1,-1,-3,2021-08-06 13:57:00,887850
-1,0,0,0,-1,-1,-1,0,2021-08-06 13:57:00,903816
-2,-1,-2,-1,1,1,1,-1,2021-08-06 13:57:00,903816
1,0,0,-1,-1,0,1,1,2021-08-06 13:57:00,903816
1,-1,-1,-1,0,-2,-1,1,2021-08-06 13:57:00,903816
0,-2,-1,0,-3,0,-2,-2,2021-08-06 13:57:00,935815
0,0,0,2,0,0,0,-1,2021-08-06 13:57:00,951813
-3,-1,-1,0,-3,1,-1,-2,2021-08-06 13:57:00,951813
-2,-1,-1,0,-1,-1,-1,-2,2021-08-06 13:57:00,951813
-1,-1,-2,-1,0,-2,-1,0,2021-08-06 13:57:00,951813
-1,-2,0,-2,-2,-2,-3,-1,2021-08-06 13:57:00,951813
-1,-2,-1,-2,1,1,0,0,2021-08-06 13:57:00,951813
-1,0,0,0,-1,1,-1,-1,2021-08-06 13:57:00,952816
-1,0,-1,-1,-1,-2,0,1,2021-08-06 13:57:00,967864
-2,-1,1,-1,-1,0,1,-1,2021-08-06 13:57:00,983817
-1,-1,0,0,-1,-1,1,-1,2021-08-06 13:57:00,983817
0,-1,-1,-1,-1,0,-2,0,2021-08-06 13:57:00,983817
0,-2,-2,-1,0,0,-1,-3,2021-08-06 13:57:00,984244
0,-1,0,-1,-1,-1,-1,-1,2021-08-06 13:57:00,984244
-2,-2,-2,-2,-3,-2,-2,-2,2021-08-06 13:57:00,984244
-1,-2,-1,1,-1,-1,-1,0,2021-08-06 13:57:00,984244
-2,-2,0,-2,0,-1,-1,-2,2021-08-06 13:57:00,999850
-2,0,0,0,-1,-1,-2,0,2021-08-06 13:57:01,015814
-2,0,1,0,0,-3,-3,-1,2021-08-06 13:57:01,031816
-1,0,-1,-2,0,0,-2,-2,2021-08-06 13:57:01,047816
-1,0,-1,-2,-2,-1,-2,-1,2021-08-06 13:57:01,063864
0,0,-1,-1,0,-1,-1,1,2021-08-06 13:57:01,079863
0,-1,-3,0,-1,-1,-1,1,2021-08-06 13:57:01,095853
-2,0,0,-1,0,-1,-1,-1,2021-08-06 13:57:01,095853
-1,-1,-2,0,-2,-1,-3,-1,2021-08-06 13:57:01,095853
0,-3,-2,-1,-1,-1,-1,-2,2021-08-06 13:57:01,095853
0,0,-2,1,-1,1,-1,0,2021-08-06 13:57:01,095853
-1,0,-3,-1,-3,-1,-1,0,2021-08-06 13:57:01,095853
0,1,0,-1,0,-1,0,-1,2021-08-06 13:57:01,095853
0,-1,-1,0,-2,0,-1,-2,2021-08-06 13:57:01,096853
-1,0,0,-1,-1,0,2,0,2021-08-06 13:57:01,096853
0,-1,-2,-1,0,0,-1,0,2021-08-06 13:57:01,096853
-1,0,1,-1,0,-1,-2,0,2021-08-06 13:57:01,096853
-1,-1,-2,-1,-2,-2,-2,0,2021-08-06 13:57:01,096853
0,-1,-1,-3,-1,0,0,-1,2021-08-06 13:57:01,096853
0,-1,-1,1,1,-2,-1,1,2021-08-06 13:57:01,096853
-1,0,-1,0,-3,0,0,-2,2021-08-06 13:57:01,141863
-1,-2,0,-1,-2,-2,0,1,2021-08-06 13:57:01,141863
0,-2,-1,0,-1,0,-1,-1,2021-08-06 13:57:01,141863
0,0,-2,-2,-1,-1,1,-1,2021-08-06 13:57:01,141863
0,0,-2,-2,-2,0,-2,1,2021-08-06 13:57:01,141863
0,0,-1,0,-1,-2,-2,-1,2021-08-06 13:57:01,141863
-1,-2,-1,0,0,-1,0,1,2021-08-06 13:57:01,141863
-2,-4,-3,-1,-1,0,1,-1,2021-08-06 13:57:01,141863
-2,-2,-1,0,0,0,1,-3,2021-08-06 13:57:01,141863
-2,-2,-2,0,0,0,-2,-3,2021-08-06 13:57:01,142859
-3,1,0,0,1,-1,-2,-2,2021-08-06 13:57:01,173851
-2,1,1,0,-1,-3,-3,-3,2021-08-06 13:57:01,173851
1,-1,0,-1,-2,-2,-1,-1,2021-08-06 13:57:01,173851
-1,1,-1,-2,-3,-2,-2,-1,2021-08-06 13:57:01,173851
0,-1,-1,-1,-3,0,0,-1,2021-08-06 13:57:01,173851
0,-1,-2,-1,-2,-1,0,0,2021-08-06 13:57:01,173851
1,0,-2,-3,-2,-2,0,0,2021-08-06 13:57:01,173851
-2,-1,1,-1,-3,-1,0,-1,2021-08-06 13:57:01,173851
0,-1,-2,0,0,-1,-1,-1,2021-08-06 13:57:01,204863
-1,1,1,-2,1,0,-1,-2,2021-08-06 13:57:01,204863
-1,-1,-1,0,-2,-2,-1,-1,2021-08-06 13:57:01,204863
0,-1,0,0,-1,0,-2,-2,2021-08-06 13:57:01,204863
-2,-1,0,-2,-1,-2,-1,-2,2021-08-06 13:57:01,204863
-1,-1,0,0,-2,-1,-1,0,2021-08-06 13:57:01,205814
-2,-2,-2,1,1,-1,0,0,2021-08-06 13:57:01,236815
0,-1,-2,-2,-1,-1,0,-1,2021-08-06 13:57:01,236815
-1,-1,-1,-1,-2,-1,-1,-1,2021-08-06 13:57:01,236815
0,-3,1,-2,-1,0,-1,1,2021-08-06 13:57:01,236815
0,-1,0,-1,0,0,0,1,2021-08-06 13:57:01,252815
-1,-1,-3,-2,0,-1,-2,0,2021-08-06 13:57:01,252815
-1,0,-3,-1,0,-1,0,-1,2021-08-06 13:57:01,252815
0,0,-4,-1,-1,-1,-1,0,2021-08-06 13:57:01,252815
-1,0,1,-1,-1,-1,0,-1,2021-08-06 13:57:01,263873
-1,1,-1,0,1,0,0,-1,2021-08-06 13:57:01,263873
1,-1,-1,0,0,-2,-2,1,2021-08-06 13:57:01,264852
-1,-1,-1,-1,0,-2,-1,-1,2021-08-06 13:57:01,264852
-1,0,-1,0,0,-1,-2,1,2021-08-06 13:57:01,284853
-1,0,-1,0,0,-1,-2,-1,2021-08-06 13:57:01,284853
0,-2,0,-2,-1,-2,1,-2,2021-08-06 13:57:01,284853
-1,-2,0,0,-2,0,0,-2,2021-08-06 13:57:01,284853
-1,-1,-3,-1,0,0,-2,-1,2021-08-06 13:57:01,300866
0,-1,-1,-2,0,-1,0,-1,2021-08-06 13:57:01,300866
-1,0,0,-2,-1,1,-1,0,2021-08-06 13:57:01,300866
0,0,-1,-1,-2,0,-1,-1,2021-08-06 13:57:01,300866
0,0,-1,-1,-2,-1,0,-2,2021-08-06 13:57:01,332851
0,0,0,1,-1,-1,0,-1,2021-08-06 13:57:01,332851
-1,0,-1,-1,0,-1,-2,-2,2021-08-06 13:57:01,332851
1,-1,-1,-2,0,1,-1,0,2021-08-06 13:57:01,332851
-1,-1,0,1,0,-1,-1,-1,2021-08-06 13:57:01,348852
-1,-1,-1,-2,-1,-2,0,2,2021-08-06 13:57:01,364853
-2,0,-1,1,-3,0,-1,-2,2021-08-06 13:57:01,380865
-2,-1,0,1,0,-2,-3,-1,2021-08-06 13:57:01,380865
0,-1,-1,-1,0,-1,-1,-1,2021-08-06 13:57:01,380865
-1,0,0,1,2,0,0,0,2021-08-06 13:57:01,380865
1,3,6,11,9,3,0,0,2021-08-06 13:57:01,380865
-1,0,-3,-3,-1,1,3,1,2021-08-06 13:57:01,380865
-5,-8,-10,-22,-28,-16,-8,-4,2021-08-06 13:57:01,380865
-2,-1,-1,-2,-3,-4,-2,-1,2021-08-06 13:57:01,381817
2,3,4,6,7,2,-2,-1,2021-08-06 13:57:01,381817
2,3,4,8,13,8,0,0,2021-08-06 13:57:01,381817
-1,-4,-7,-12,-8,-2,2,1,2021-08-06 13:57:01,410850
-2,-2,0,-5,-9,-4,-2,-2,2021-08-06 13:57:01,410850
-2,0,-1,0,-3,-1,0,-1,2021-08-06 13:57:01,410850
1,-4,1,2,4,0,0,-1,2021-08-06 13:57:01,410850
0,-2,-2,5,8,4,0,-1,2021-08-06 13:57:01,426815
-3,-1,-1,-5,-3,-2,-2,-2,2021-08-06 13:57:01,426815
-2,-1,-1,-2,-1,-1,1,1,2021-08-06 13:57:01,426815
-2,1,0,-1,-3,-3,0,-2,2021-08-06 13:57:01,426815
-1,2,4,5,5,2,0,0,2021-08-06 13:57:01,442863
0,-2,-2,2,1,0,-1,-2,2021-08-06 13:57:01,458819
-1,-2,-2,-5,-2,-3,0,-1,2021-08-06 13:57:01,458819
-1,-1,-3,-4,-6,-3,-2,-2,2021-08-06 13:57:01,458819
0,0,1,4,3,1,-1,-1,2021-08-06 13:57:01,458819
1,-1,-1,2,0,-1,-1,0,2021-08-06 13:57:01,458819
-2,-2,-4,-5,-5,-1,-2,-2,2021-08-06 13:57:01,458819
-3,-4,-1,-4,-4,-2,-1,1,2021-08-06 13:57:01,458819
-1,0,3,4,4,2,-1,-1,2021-08-06 13:57:01,474850
1,1,1,1,0,0,0,1,2021-08-06 13:57:01,474850
-1,-1,-4,-3,-4,-3,0,-2,2021-08-06 13:57:01,490863
-2,-1,-1,-1,-3,-4,-2,-2,2021-08-06 13:57:01,490863
-1,1,2,3,2,0,0,-1,2021-08-06 13:57:01,506850
-1,-1,-1,-1,0,0,0,0,2021-08-06 13:57:01,522815
-1,-4,-2,-4,-2,-2,-1,-1,2021-08-06 13:57:01,522815
-2,-2,-2,-1,-2,-2,-2,-2,2021-08-06 13:57:01,522815
0,0,1,1,0,1,0,-1,2021-08-06 13:57:01,554817
-1,-1,-4,-2,-1,-1,0,-2,2021-08-06 13:57:01,554817
-2,-1,-1,-2,-3,-3,-1,0,2021-08-06 13:57:01,554817
0,-1,-1,-2,-3,-3,-2,-1,2021-08-06 13:57:01,554817
0,-1,1,1,0,-1,1,-1,2021-08-06 13:57:01,554817
0,0,0,1,1,0,-2,-1,2021-08-06 13:57:01,554817
-2,-1,-2,-2,-1,-2,-1,-1,2021-08-06 13:57:01,554817
0,-1,-1,-2,-3,0,-1,-1,2021-08-06 13:57:01,554817
0,0,-1,-1,0,2,-1,0,2021-08-06 13:57:01,555851
-1,-1,-2,-1,-1,-1,-1,-1,2021-08-06 13:57:01,555851
0,-1,-1,-3,-1,-2,0,0,2021-08-06 13:57:01,555851
0,0,-2,-1,-1,-1,-1,-1,2021-08-06 13:57:01,555851
0,-1,-2,0,0,-1,0,-1,2021-08-06 13:57:01,586815
0,-1,-1,1,0,-1,-2,-2,2021-08-06 13:57:01,586815
1,-2,-1,-1,-2,0,0,-1,2021-08-06 13:57:01,586815
-1,0,-1,-1,-2,-2,-3,-1,2021-08-06 13:57:01,586815
-1,0,0,1,0,-1,-1,-1,2021-08-06 13:57:01,602815
0,-1,0,-1,0,0,1,0,2021-08-06 13:57:01,602815
0,-2,0,0,0,-3,0,-1,2021-08-06 13:57:01,602815
-1,0,-2,-2,0,0,0,0,2021-08-06 13:57:01,602815
-2,-1,-1,0,0,1,0,-1,2021-08-06 13:57:01,620815
-2,1,0,-2,-1,-1,-1,1,2021-08-06 13:57:01,620815
-1,-1,0,-1,-1,-1,-1,0,2021-08-06 13:57:01,633853
0,-1,-2,0,-1,-2,0,0,2021-08-06 13:57:01,633853
0,0,1,-1,-1,-3,-2,-2,2021-08-06 13:57:01,649853
0,-1,0,-1,-1,0,0,-1,2021-08-06 13:57:01,665868
0,-1,-2,0,-1,0,-1,-1,2021-08-06 13:57:01,665868
-2,-1,-1,0,0,0,0,1,2021-08-06 13:57:01,665868
0,-1,-1,-1,0,1,0,2,2021-08-06 13:57:01,665868
-2,0,-1,0,-1,-1,0,0,2021-08-06 13:57:01,665868
-1,1,1,-2,-2,1,-2,-1,2021-08-06 13:57:01,665868
0,0,-1,-1,1,0,-1,-1,2021-08-06 13:57:01,665868
1,-1,0,0,-1,-1,-1,0,2021-08-06 13:57:01,681853
-2,0,-2,0,-1,0,0,-1,2021-08-06 13:57:01,697815
-2,0,-2,0,-2,-1,-1,-1,2021-08-06 13:57:01,713863
-1,-2,-2,-3,-2,0,-2,-2,2021-08-06 13:57:01,729863
-2,1,0,1,-2,-1,-2,-1,2021-08-06 13:57:01,745871
0,-1,0,-2,-1,1,-1,-1,2021-08-06 13:57:01,745871
-1,-1,1,-1,0,-1,-1,-1,2021-08-06 13:57:01,745871
0,-1,0,1,-1,-1,1,-2,2021-08-06 13:57:01,745871
-1,-1,-1,-2,0,0,1,-1,2021-08-06 13:57:01,745871
1,-2,-2,-1,-1,-1,-1,-1,2021-08-06 13:57:01,745871
-1,-2,-1,-1,-1,0,0,-2,2021-08-06 13:57:01,746850
1,1,-1,0,-2,-1,-1,1,2021-08-06 13:57:01,746850
-1,0,0,0,1,0,-2,-1,2021-08-06 13:57:01,746850
-1,-2,-3,-1,-1,-1,-1,0,2021-08-06 13:57:01,746850
0,0,-2,-1,1,-1,-1,-1,2021-08-06 13:57:01,746850
-1,-1,-2,-1,-2,-1,-1,0,2021-08-06 13:57:01,746850
-1,-2,-3,-1,-1,0,-1,0,2021-08-06 13:57:01,761853
0,-1,0,0,-1,1,0,-1,2021-08-06 13:57:01,777863
1,-1,-2,0,0,-1,0,-2,2021-08-06 13:57:01,793813
-2,0,-1,-2,-1,0,0,-1,2021-08-06 13:57:01,809850
-2,-1,0,-1,-1,-2,0,-2,2021-08-06 13:57:01,825853
-1,-1,0,-2,-3,-1,0,-1,2021-08-06 13:57:01,826056
0,1,-2,-2,-2,-1,-1,-1,2021-08-06 13:57:01,826056
-3,-1,0,0,0,-2,-1,-1,2021-08-06 13:57:01,826056
-1,-3,-1,-1,0,-1,-1,-2,2021-08-06 13:57:01,826056
0,3,1,-2,-1,-2,-1,-1,2021-08-06 13:57:01,826056
-1,-9,-7,2,0,0,0,-1,2021-08-06 13:57:01,826056
-1,-4,0,-1,1,1,-1,0,2021-08-06 13:57:01,826056
0,4,-4,-5,0,0,0,-1,2021-08-06 13:57:01,826813
0,3,3,3,-3,-3,-3,-3,2021-08-06 13:57:01,826813
-2,2,1,1,-2,-1,-2,0,2021-08-06 13:57:01,826813
1,-2,-4,-11,-1,0,-1,-2,2021-08-06 13:57:01,826813
-1,-3,-1,3,0,0,0,0,2021-08-06 13:57:01,856851
-2,-1,-2,-4,0,0,1,0,2021-08-06 13:57:01,871852
0,0,2,2,1,-1,0,0,2021-08-06 13:57:01,887850
0,0,-1,5,0,-1,0,0,2021-08-06 13:57:01,903853
-2,0,0,-2,0,-1,0,-1,2021-08-06 13:57:01,903853
-2,-3,-2,1,-1,-1,-1,0,2021-08-06 13:57:01,903853
-1,-1,0,-1,-2,0,-2,0,2021-08-06 13:57:01,903853
1,1,-2,0,-1,-1,-2,-1,2021-08-06 13:57:01,903853
0,0,-1,-1,-1,-2,-2,-1,2021-08-06 13:57:01,903853
1,-1,0,1,0,-2,-3,-1,2021-08-06 13:57:01,903853
-1,-2,-2,-2,0,-2,-1,0,2021-08-06 13:57:01,904815
-2,0,1,-1,-2,-2,-1,-2,2021-08-06 13:57:01,904815
-1,-1,0,1,-1,0,-1,-1,2021-08-06 13:57:01,904815
-2,-3,-2,-2,-1,-1,0,-1,2021-08-06 13:57:01,904815
0,2,-1,-4,-2,-2,-2,-1,2021-08-06 13:57:01,904815
-1,0,1,0,0,-1,-2,-2,2021-08-06 13:57:01,904815
-1,-3,1,1,-1,-1,-1,-1,2021-08-06 13:57:01,919848
0,-2,0,0,-1,1,1,-1,2021-08-06 13:57:01,935815
-1,0,0,-3,-1,-1,-3,-1,2021-08-06 13:57:01,951815
-1,0,-3,1,-1,-1,-2,-2,2021-08-06 13:57:01,967848
0,0,-1,0,-2,0,0,0,2021-08-06 13:57:01,979850
0,-1,0,-3,0,-2,-1,0,2021-08-06 13:57:01,979850
-1,0,0,1,-1,1,0,0,2021-08-06 13:57:01,979850
0,0,-1,0,0,0,-2,0,2021-08-06 13:57:01,979850
0,-1,0,-2,-2,-3,-2,0,2021-08-06 13:57:01,979850
-1,0,-1,0,0,-1,-2,-1,2021-08-06 13:57:01,980814
-1,1,0,-1,-2,-1,-1,-1,2021-08-06 13:57:01,980814
-1,0,-1,-1,-1,-1,1,0,2021-08-06 13:57:01,980814
-2,0,0,-1,-3,-2,-4,0,2021-08-06 13:57:01,980814
-1,0,-1,-1,-2,-1,0,0,2021-08-06 13:57:01,980814
0,1,-2,-1,0,0,0,-1,2021-08-06 13:57:01,980814
-1,-1,1,-2,-2,-1,1,-1,2021-08-06 13:57:01,980814
1,-3,0,0,-1,1,1,0,2021-08-06 13:57:02,014818
-1,-3,-10,-1,1,0,0,-1,2021-08-06 13:57:02,030863
-2,-3,-3,-1,2,-1,-2,-3,2021-08-06 13:57:02,046865
-2,-1,1,1,0,0,-3,0,2021-08-06 13:57:02,046865
-1,-1,1,2,-1,-1,-1,-2,2021-08-06 13:57:02,046865
-4,-1,3,-2,0,-2,-3,-1,2021-08-06 13:57:02,046865
1,0,0,1,-4,-1,0,1,2021-08-06 13:57:02,046865
1,1,-1,-3,-2,-3,0,0,2021-08-06 13:57:02,046865
-3,1,-1,-6,-4,-2,-1,-1,2021-08-06 13:57:02,046865
-2,0,-2,-2,-1,0,-1,-1,2021-08-06 13:57:02,046865
-1,-1,-2,-2,-2,-2,0,-1,2021-08-06 13:57:02,046865
0,-2,1,2,-1,-1,-1,-1,2021-08-06 13:57:02,046865
-1,-2,-1,1,1,1,-1,-2,2021-08-06 13:57:02,062815
-1,0,0,0,-1,0,0,-2,2021-08-06 13:57:02,062815
-3,-2,-2,-1,0,1,-3,0,2021-08-06 13:57:02,062815
0,0,-1,0,-1,0,0,-1,2021-08-06 13:57:02,062815
-2,0,-3,-2,0,-2,-1,-1,2021-08-06 13:57:02,093816
0,-1,-2,-1,0,-1,-1,0,2021-08-06 13:57:02,093816
0,1,0,-1,-1,-1,-1,-1,2021-08-06 13:57:02,093816
-1,-1,-3,0,-2,-1,-1,0,2021-08-06 13:57:02,093816
-1,0,1,0,-1,0,-1,-1,2021-08-06 13:57:02,093816
0,1,1,0,-1,-2,-2,-2,2021-08-06 13:57:02,093816
0,-2,-1,1,0,-1,-2,0,2021-08-06 13:57:02,109853
-1,0,0,0,0,1,2,0,2021-08-06 13:57:02,109853
1,0,-2,0,1,-2,-1,-1,2021-08-06 13:57:02,125856
-1,-1,-1,1,-1,0,1,0,2021-08-06 13:57:02,141866
-2,-1,1,-2,-1,-1,0,0,2021-08-06 13:57:02,141866
-3,-1,-4,-5,0,-2,-4,-2,2021-08-06 13:57:02,141866
0,1,-1,0,-1,0,-1,-2,2021-08-06 13:57:02,141866
0,-1,-1,-3,-3,-1,1,0,2021-08-06 13:57:02,141866
-1,-1,0,-2,-1,-1,-2,0,2021-08-06 13:57:02,141866
0,-1,-2,1,1,-2,0,1,2021-08-06 13:57:02,141866
0,-1,-1,0,0,-1,1,-1,2021-08-06 13:57:02,173853
-2,-1,5,-1,-2,-1,-2,0,2021-08-06 13:57:02,173853
0,-2,-7,0,-2,1,-1,0,2021-08-06 13:57:02,173853
0,-2,-2,-1,0,0,0,-1,2021-08-06 13:57:02,173853
-1,-1,4,9,3,1,-2,0,2021-08-06 13:57:02,188864
0,4,2,0,-1,-1,0,-1,2021-08-06 13:57:02,204864
-3,-2,-9,-16,-10,-6,-3,-3,2021-08-06 13:57:02,219851
0,-6,-5,-11,-3,-2,0,-1,2021-08-06 13:57:02,219851
-1,0,-3,-6,-3,-2,0,-1,2021-08-06 13:57:02,234850
-2,0,2,4,3,0,-1,0,2021-08-06 13:57:02,250815
-1,2,4,6,3,1,2,0,2021-08-06 13:57:02,266864
0,1,0,3,-2,0,-1,0,2021-08-06 13:57:02,266864
-1,-3,-1,1,1,-1,-2,0,2021-08-06 13:57:02,266864
0,-1,-3,1,-1,-1,-1,0,2021-08-06 13:57:02,266864
-1,0,1,0,-1,-1,-1,0,2021-08-06 13:57:02,266864
-2,-2,-1,0,0,-1,0,0,2021-08-06 13:57:02,266864
0,0,0,-2,-1,-1,-1,-1,2021-08-06 13:57:02,266864
-1,-1,-2,-3,-1,-2,-3,-2,2021-08-06 13:57:02,266864
-1,-1,-1,2,0,-1,0,-2,2021-08-06 13:57:02,267864
-2,0,2,2,0,-2,-2,0,2021-08-06 13:57:02,267864
-1,-1,-1,-3,-2,-1,1,0,2021-08-06 13:57:02,267864
-1,-1,-4,-3,-1,-2,-1,0,2021-08-06 13:57:02,267864
-1,0,0,0,1,-1,0,0,2021-08-06 13:57:02,267864
0,2,1,1,-1,1,-1,0,2021-08-06 13:57:02,267864
-1,-1,-4,-5,-1,-1,-2,-1,2021-08-06 13:57:02,282853
0,-4,-2,-2,-1,0,0,-2,2021-08-06 13:57:02,282853
0,-1,1,1,0,1,-1,0,2021-08-06 13:57:02,282853
0,1,0,0,-1,-2,-1,0,2021-08-06 13:57:02,282853
-1,-1,-3,-2,-1,-2,-1,-2,2021-08-06 13:57:02,314816
0,-2,-1,0,-1,0,0,-1,2021-08-06 13:57:02,314816
-1,0,0,-1,-1,-1,0,-1,2021-08-06 13:57:02,314816
-1,0,-2,0,-2,-1,0,-2,2021-08-06 13:57:02,314816
0,-1,-1,-1,-2,-1,0,-1,2021-08-06 13:57:02,330860
-2,-2,0,-3,-1,-1,0,-1,2021-08-06 13:57:02,330860
0,-1,-1,0,-1,-1,1,-1,2021-08-06 13:57:02,336855
-1,0,0,0,0,-1,-2,-2,2021-08-06 13:57:02,336855
0,0,1,0,-2,0,0,0,2021-08-06 13:57:02,336855
-2,-1,-2,-2,-2,0,0,-1,2021-08-06 13:57:02,337815
-1,-1,-1,-2,-1,-1,-1,-1,2021-08-06 13:57:02,346853
-3,0,-1,-2,0,-2,1,-2,2021-08-06 13:57:02,346853
-1,-1,-1,-2,-2,0,-1,0,2021-08-06 13:57:02,362850
0,-1,-3,-2,0,-1,-2,-1,2021-08-06 13:57:02,362850
0,-1,1,1,-1,-1,0,-2,2021-08-06 13:57:02,362850
0,-1,1,-1,-1,-1,-2,0,2021-08-06 13:57:02,362850
-2,1,1,-1,-1,-2,-1,-1,2021-08-06 13:57:02,393850
1,0,-2,1,-2,-2,-1,0,2021-08-06 13:57:02,393850
1,0,-2,0,-1,-1,0,0,2021-08-06 13:57:02,393850
-1,-1,-1,0,-1,1,0,-1,2021-08-06 13:57:02,393850
0,-1,0,0,-1,-1,0,2,2021-08-06 13:57:02,408853
-2,-1,-1,1,-1,-1,0,0,2021-08-06 13:57:02,424864
-1,-3,-1,-4,-2,-2,1,-2,2021-08-06 13:57:02,439816
0,-1,0,0,0,-1,2,1,2021-08-06 13:57:02,454868
0,-2,-2,-2,0,-1,1,-2,2021-08-06 13:57:02,486855
-1,-1,-1,0,-1,0,-1,-2,2021-08-06 13:57:02,486855
-3,0,-1,0,0,0,0,-1,2021-08-06 13:57:02,502815
0,-1,-2,-3,-2,-1,-2,-1,2021-08-06 13:57:02,502815
-1,-2,-2,0,0,-2,-1,-1,2021-08-06 13:57:02,502815
-1,0,-2,0,-3,0,-1,0,2021-08-06 13:57:02,502815
1,1,0,0,0,-1,-1,1,2021-08-06 13:57:02,502815
0,-2,-2,-1,0,1,1,-1,2021-08-06 13:57:02,502815
-1,0,0,-2,0,-1,0,-1,2021-08-06 13:57:02,502815
-1,0,-2,-1,-1,-1,-1,1,2021-08-06 13:57:02,503832
-1,-1,-1,0,-3,-1,-2,0,2021-08-06 13:57:02,503832
0,-1,0,-1,-1,-2,-1,-1,2021-08-06 13:57:02,503832
-2,-1,0,-1,-3,1,-1,-1,2021-08-06 13:57:02,503832
-1,-1,0,-3,0,-2,-1,-1,2021-08-06 13:57:02,503832
-2,-1,-1,0,1,1,-1,-1,2021-08-06 13:57:02,503832
-1,-3,-1,0,-1,-1,-2,-1,2021-08-06 13:57:02,503832
0,-1,-2,-1,0,-1,-1,-1,2021-08-06 13:57:02,503832
-1,-3,0,-1,0,-1,0,0,2021-08-06 13:57:02,503832
-2,-1,-1,-1,-1,0,-1,-1,2021-08-06 13:57:02,504864
1,1,-1,-3,-1,-1,0,0,2021-08-06 13:57:02,504864
-1,1,-1,-1,-1,1,0,1,2021-08-06 13:57:02,518854
0,0,-2,0,-1,-1,0,0,2021-08-06 13:57:02,518854
-1,-1,1,-1,0,-1,-3,-3,2021-08-06 13:57:02,534850
-2,1,-1,-1,-3,0,-2,-1,2021-08-06 13:57:02,550867
0,-1,-2,-2,0,3,1,1,2021-08-06 13:57:02,566867
-1,-1,1,-3,-2,1,-1,-2,2021-08-06 13:57:02,566867
0,-1,0,-1,1,0,4,0,2021-08-06 13:57:02,566867
1,1,2,1,2,-3,-4,1,2021-08-06 13:57:02,566867
-6,-7,-6,-5,-10,-14,-14,-11,2021-08-06 13:57:02,566867
-4,-4,-1,-3,-2,-4,-3,-3,2021-08-06 13:57:02,566867
2,2,1,3,3,9,10,1,2021-08-06 13:57:02,566867
5,5,1,4,6,14,15,8,2021-08-06 13:57:02,567850
5,4,0,1,1,-9,-6,1,2021-08-06 13:57:02,582867
-17,-14,-10,-12,-18,-29,-26,-18,2021-08-06 13:57:02,582867
0,-2,0,-2,-3,-6,-8,-3,2021-08-06 13:57:02,582867
1,0,-2,-3,-1,2,1,-1,2021-08-06 13:57:02,582867
2,4,4,5,8,16,15,8,2021-08-06 13:57:02,614816
4,4,3,4,2,7,7,3,2021-08-06 13:57:02,629865
0,0,0,1,2,0,2,0,2021-08-06 13:57:02,645850
-1,-2,-3,-1,-1,-3,0,-2,2021-08-06 13:57:02,661850
-2,-1,-3,-4,-2,-5,-2,-3,2021-08-06 13:57:02,661850
0,2,0,2,2,1,2,1,2021-08-06 13:57:02,661850
-2,-2,-3,0,0,-2,-3,0,2021-08-06 13:57:02,661850
0,0,0,-1,-1,-1,-1,-1,2021-08-06 13:57:02,661850
-3,-2,-1,-3,-2,0,-1,-2,2021-08-06 13:57:02,661850
2,1,1,1,2,5,4,1,2021-08-06 13:57:02,661850
0,-3,-2,-3,-1,0,-2,-1,2021-08-06 13:57:02,662851
-5,-4,-2,-1,-4,-7,-5,-5,2021-08-06 13:57:02,662851
-2,-2,0,0,0,-1,0,-1,2021-08-06 13:57:02,662851
4,2,0,-2,-1,2,2,1,2021-08-06 13:57:02,662851
-2,-1,-2,-2,-3,-2,-1,-2,2021-08-06 13:57:02,662851
-2,-2,-2,0,1,-3,-3,-4,2021-08-06 13:57:02,662851
-2,-1,0,-2,-1,0,-1,-1,2021-08-06 13:57:02,691865
1,-1,1,1,4,3,2,1,2021-08-06 13:57:02,691865
-2,-2,-2,-1,-5,-5,-4,-2,2021-08-06 13:57:02,691865
0,-1,-3,0,-1,1,-2,0,2021-08-06 13:57:02,691865
1,0,0,-2,0,0,1,0,2021-08-06 13:57:02,708850
0,1,0,-2,-2,-1,0,-1,2021-08-06 13:57:02,724850
-1,0,-1,0,1,-1,-1,-1,2021-08-06 13:57:02,740863
-2,-2,1,0,0,-2,0,1,2021-08-06 13:57:02,740863
0,-2,-2,-1,-1,-2,-2,-3,2021-08-06 13:57:02,740863
0,0,-3,-2,-2,0,-1,0,2021-08-06 13:57:02,740863
-1,-1,-2,-5,-6,-3,-3,-1,2021-08-06 13:57:02,740863
-2,-2,0,-2,-5,-4,-3,-2,2021-08-06 13:57:02,740863
3,3,2,5,8,6,4,3,2021-08-06 13:57:02,740863
1,0,1,2,3,0,1,2,2021-08-06 13:57:02,740863
-1,-2,-1,-2,-6,-2,-3,-1,2021-08-06 13:57:02,740863
0,-1,1,1,2,-1,-2,0,2021-08-06 13:57:02,741850
-1,-2,-2,-3,-2,-1,-1,-1,2021-08-06 13:57:02,772815
0,0,0,-1,0,1,1,0,2021-08-06 13:57:02,788863
1,0,0,1,-1,-1,0,-2,2021-08-06 13:57:02,804864
-3,-2,-3,-3,-4,-2,-3,-2,2021-08-06 13:57:02,804864
1,-2,-3,0,0,2,0,0,2021-08-06 13:57:02,804864
-1,0,0,-1,-1,1,1,1,2021-08-06 13:57:02,804864
-1,-1,0,-1,1,-2,-2,0,2021-08-06 13:57:02,804864
-4,-4,-3,-4,-7,-6,-4,-3,2021-08-06 13:57:02,804864
-3,-1,-2,-7,-10,-3,-2,-3,2021-08-06 13:57:02,804864
3,4,3,7,9,7,3,4,2021-08-06 13:57:02,805850
-1,-1,-1,-7,-9,-8,-2,-1,2021-08-06 13:57:02,805850
2,1,-2,-1,6,6,6,1,2021-08-06 13:57:02,805850
0,0,1,7,9,2,0,1,2021-08-06 13:57:02,836850
-1,-1,-3,-2,-4,-3,0,-1,2021-08-06 13:57:02,836850
-1,1,0,1,3,0,-1,-1,2021-08-06 13:57:02,836850
-1,-1,-2,-7,-11,-7,-4,-1,2021-08-06 13:57:02,836850
-1,-3,-5,-5,-8,-5,0,-1,2021-08-06 13:57:02,852815
0,-1,-2,-1,-1,-2,0,-1,2021-08-06 13:57:02,868851
-1,0,1,6,4,4,1,-1,2021-08-06 13:57:02,868851
-2,1,2,9,11,6,1,-1,2021-08-06 13:57:02,868851
-3,-3,-2,-6,-8,-5,-6,-3,2021-08-06 13:57:02,868851
-1,1,-2,-2,1,-1,-1,1,2021-08-06 13:57:02,868851
1,1,2,5,5,2,2,2,2021-08-06 13:57:02,868851
-1,-1,-1,-3,-6,-3,0,2,2021-08-06 13:57:02,868851
-1,-1,0,2,5,4,2,0,2021-08-06 13:57:02,900863
0,-1,0,-1,-5,-3,-1,0,2021-08-06 13:57:02,916813
-3,-2,-3,-3,0,1,-1,0,2021-08-06 13:57:02,932853
0,0,-2,1,1,0,-1,-2,2021-08-06 13:57:02,948814
-1,-1,-1,-5,-8,-5,-2,-1,2021-08-06 13:57:02,948814
-1,1,3,0,4,3,0,0,2021-08-06 13:57:02,948814
0,-3,-2,-1,1,1,-1,-1,2021-08-06 13:57:02,948814
-1,-5,-6,-3,-3,-2,-1,-3,2021-08-06 13:57:02,948814
-3,-1,-1,-3,-3,-1,-2,-2,2021-08-06 13:57:02,948814
-3,-3,-1,-2,-3,-3,-2,-3,2021-08-06 13:57:02,948814
0,-1,1,1,0,2,0,0,2021-08-06 13:57:02,948814
0,0,-1,-4,-6,-4,-4,-1,2021-08-06 13:57:02,948814
0,0,-2,-1,3,1,2,1,2021-08-06 13:57:02,949850
-3,-2,-2,4,4,0,-1,-3,2021-08-06 13:57:02,949850
0,1,-1,-5,-4,-1,0,-1,2021-08-06 13:57:02,949850
0,0,0,0,2,0,-1,-3,2021-08-06 13:57:02,949850
-2,0,0,1,3,0,0,-1,2021-08-06 13:57:02,964850
-2,-1,0,-1,-4,-3,-2,-2,2021-08-06 13:57:02,964850
-1,-4,-5,-5,-4,-3,-2,-2,2021-08-06 13:57:02,964850
0,-2,-1,-1,-2,-1,-1,-1,2021-08-06 13:57:02,964850
0,0,3,1,-2,2,0,-1,2021-08-06 13:57:02,996851
0,-1,-3,-5,-4,-2,-2,0,2021-08-06 13:57:03,011850
1,-1,1,-1,0,0,0,1,2021-08-06 13:57:03,026815
0,1,1,1,2,0,-2,0,2021-08-06 13:57:03,026815
0,-2,-3,-1,-1,-2,0,-1,2021-08-06 13:57:03,026815
-1,-1,-3,0,-1,0,-1,-1,2021-08-06 13:57:03,026815
-2,-2,-2,-1,0,-1,0,0,2021-08-06 13:57:03,026815
-3,0,-1,-1,-4,-3,0,-3,2021-08-06 13:57:03,026815
1,1,2,3,2,1,-1,0,2021-08-06 13:57:03,026815
0,-2,-1,-2,-2,-2,-2,-3,2021-08-06 13:57:03,026815
0,-1,-2,1,0,-1,-2,-2,2021-08-06 13:57:03,026815
0,-2,-2,0,-4,0,2,2,2021-08-06 13:57:03,026815
-1,-3,-3,-2,-1,-1,-1,-2,2021-08-06 13:57:03,045853
0,0,-2,0,1,0,1,1,2021-08-06 13:57:03,045853
-1,0,1,2,2,-2,-2,-1,2021-08-06 13:57:03,045853
-1,-1,-1,0,-1,-1,0,-1,2021-08-06 13:57:03,045853
-2,-1,-1,-2,-2,-2,0,-1,2021-08-06 13:57:03,074850
-3,-3,-2,-2,-4,0,-2,-1,2021-08-06 13:57:03,074850
-2,-1,0,-2,-4,-1,-2,-2,2021-08-06 13:57:03,074850
0,0,1,3,3,1,-1,-3,2021-08-06 13:57:03,074850
-2,0,-3,-1,-1,-1,-1,-1,2021-08-06 13:57:03,090864
0,-1,-2,-1,2,0,-2,-1,2021-08-06 13:57:03,090864
-2,-1,-2,0,-3,-3,-2,-3,2021-08-06 13:57:03,090864
-2,-2,-1,-1,-1,-1,-1,-2,2021-08-06 13:57:03,090864
-1,0,-2,-3,-3,-3,-1,0,2021-08-06 13:57:03,106850
0,-1,-2,0,-1,0,0,-1,2021-08-06 13:57:03,122815
-1,0,0,2,0,0,1,-1,2021-08-06 13:57:03,122815
-1,0,-1,-2,0,0,-2,0,2021-08-06 13:57:03,122815
-2,-2,-3,-4,-6,-3,-3,-1,2021-08-06 13:57:03,122815
0,1,2,4,3,1,0,0,2021-08-06 13:57:03,122815
0,-2,-3,-4,-3,-1,-1,0,2021-08-06 13:57:03,137852
0,0,1,5,8,4,0,1,2021-08-06 13:57:03,137852
-1,1,1,5,5,1,-1,-2,2021-08-06 13:57:03,137852
-1,0,-1,-4,-2,-1,-1,-1,2021-08-06 13:57:03,137852
-1,-3,-3,-5,-5,-5,-3,-2,2021-08-06 13:57:03,153864
-1,-5,-3,-4,-5,-1,-2,-2,2021-08-06 13:57:03,153864
0,-1,0,0,0,-1,1,-3,2021-08-06 13:57:03,169815
-1,0,0,-1,-3,-1,-1,-1,2021-08-06 13:57:03,185814
1,0,0,-1,1,1,2,0,2021-08-06 13:57:03,201814
0,-1,0,-2,-3,-2,-3,-3,2021-08-06 13:57:03,201814
-1,-2,-4,-5,-7,-3,-2,-2,2021-08-06 13:57:03,201814
0,0,0,1,2,1,0,1,2021-08-06 13:57:03,201814
-3,-2,-1,-3,-4,0,-2,0,2021-08-06 13:57:03,201814
2,1,3,6,8,3,1,1,2021-08-06 13:57:03,201814
-3,-2,0,-2,-3,-3,-1,-2,2021-08-06 13:57:03,201814
-1,-2,-2,-2,-2,-1,-1,-4,2021-08-06 13:57:03,201814
-1,1,-3,-3,-3,-2,0,-1,2021-08-06 13:57:03,217843
-1,-1,-2,-3,-3,-2,-1,-1,2021-08-06 13:57:03,217843
-1,0,0,1,1,0,0,0,2021-08-06 13:57:03,233853
-3,-2,-2,-4,-4,-3,-1,0,2021-08-06 13:57:03,249864
0,2,0,3,5,1,1,1,2021-08-06 13:57:03,265863
-1,-2,-1,-5,-5,-3,0,-1,2021-08-06 13:57:03,265863
1,1,0,0,0,1,-1,-1,2021-08-06 13:57:03,265863
-1,-4,-2,-3,-6,-6,-3,-1,2021-08-06 13:57:03,265863
3,0,0,2,5,4,1,1,2021-08-06 13:57:03,265863
-2,-2,-2,-2,-6,-2,-2,-1,2021-08-06 13:57:03,265863
0,-1,0,-2,1,0,-2,0,2021-08-06 13:57:03,265863
-1,0,0,1,2,0,0,0,2021-08-06 13:57:03,266864
-3,-1,0,0,-1,-1,-1,-2,2021-08-06 13:57:03,266864
1,0,1,-1,0,-1,-1,0,2021-08-06 13:57:03,266864
1,1,0,1,3,4,2,1,2021-08-06 13:57:03,296851
1,-2,-3,-4,-5,-2,-2,0,2021-08-06 13:57:03,311855
-1,0,2,0,3,0,-1,-1,2021-08-06 13:57:03,311855
-3,-2,-4,1,1,-1,-1,-2,2021-08-06 13:57:03,311855
-1,-3,-6,0,0,-2,2,-1,2021-08-06 13:57:03,311855
-1,2,3,-1,-1,-1,-1,-1,2021-08-06 13:57:03,311855
0,0,1,0,1,2,0,0,2021-08-06 13:57:03,311855
-3,-1,1,-2,-5,-4,-3,-2,2021-08-06 13:57:03,311855
2,1,0,-1,0,-1,-1,2,2021-08-06 13:57:03,327863
0,-1,0,2,4,3,0,-1,2021-08-06 13:57:03,343855
-3,-3,-1,-2,-4,-2,-2,-1,2021-08-06 13:57:03,343855
1,0,-1,0,1,0,-1,-1,2021-08-06 13:57:03,343855
-4,-2,-2,-1,-2,-2,-3,0,2021-08-06 13:57:03,343855
-1,1,-3,-1,0,0,-1,1,2021-08-06 13:57:03,343855
-1,0,-4,-4,-7,-1,-1,-1,2021-08-06 13:57:03,343855
-1,-1,-2,0,2,1,1,-2,2021-08-06 13:57:03,343855
-2,-1,-1,-4,-5,-2,-3,-1,2021-08-06 13:57:03,375814
-3,-3,0,-1,0,-1,-1,-2,2021-08-06 13:57:03,391864
1,2,0,1,1,0,1,1,2021-08-06 13:57:03,398869
-1,1,-2,2,4,0,1,0,2021-08-06 13:57:03,398869
0,0,1,1,2,-1,-2,-1,2021-08-06 13:57:03,398869
-3,-2,-2,-2,-5,-4,-2,-2,2021-08-06 13:57:03,399816
-1,-2,-2,-1,-1,-1,-2,-2,2021-08-06 13:57:03,399816
-2,-1,-3,-5,-7,-3,-2,-1,2021-08-06 13:57:03,399816
1,1,2,1,1,2,2,-2,2021-08-06 13:57:03,399816
-2,-1,-1,-5,-6,-1,-2,-2,2021-08-06 13:57:03,399816
0,-2,-1,-1,-3,-3,-3,-1,2021-08-06 13:57:03,407849
2,2,2,5,7,5,2,1,2021-08-06 13:57:03,407849
0,0,-2,-1,-1,0,0,-1,2021-08-06 13:57:03,438850
2,-1,1,5,5,2,-1,1,2021-08-06 13:57:03,453863
-1,-2,-2,-3,-5,-3,-1,-2,2021-08-06 13:57:03,453863
-1,-2,0,-6,-3,-1,-1,-2,2021-08-06 13:57:03,453863
-4,-3,-3,-6,-12,-8,-3,-4,2021-08-06 13:57:03,453863
1,1,1,5,10,5,3,2,2021-08-06 13:57:03,453863
1,1,1,3,5,2,2,1,2021-08-06 13:57:03,469817
-1,-2,-2,-2,-4,-3,-3,-2,2021-08-06 13:57:03,485854
-1,-1,1,0,-1,-1,-1,0,2021-08-06 13:57:03,485854
-1,-1,-1,-3,-5,-4,-2,-1,2021-08-06 13:57:03,485854
-1,-1,0,-4,-2,-2,-1,1,2021-08-06 13:57:03,485854
-2,-2,-1,-6,-4,0,-1,-1,2021-08-06 13:57:03,485854
-1,-5,-10,-5,-3,-1,0,-1,2021-08-06 13:57:03,485854
-3,-1,-2,-3,-5,-3,-1,-2,2021-08-06 13:57:03,486853
0,0,0,4,3,2,2,1,2021-08-06 13:57:03,486853
2,2,1,2,1,-1,-1,-1,2021-08-06 13:57:03,486853
-2,-1,2,-1,-4,-4,-2,-3,2021-08-06 13:57:03,501815
1,-2,1,-1,-1,0,0,0,2021-08-06 13:57:03,501815
-2,-3,-2,-4,-2,-2,-1,-3,2021-08-06 13:57:03,517865
2,3,6,9,5,3,4,3,2021-08-06 13:57:03,517865
-2,0,1,6,4,3,0,-1,2021-08-06 13:57:03,533850
-2,-3,-7,-14,-10,-6,-1,-2,2021-08-06 13:57:03,549865
-3,-2,-2,-9,-7,-4,-3,-3,2021-08-06 13:57:03,565851
-3,-4,-3,-3,-3,-3,-4,-1,2021-08-06 13:57:03,565851
0,2,5,5,5,0,0,0,2021-08-06 13:57:03,565851
-2,0,1,3,-2,-3,-2,0,2021-08-06 13:57:03,565851
2,0,1,7,9,5,0,-1,2021-08-06 13:57:03,565851
0,-1,-3,-5,-5,-3,-1,-2,2021-08-06 13:57:03,565851
-1,-1,1,-1,-3,-1,-1,-2,2021-08-06 13:57:03,565851
-1,2,2,7,9,4,1,0,2021-08-06 13:57:03,566851
-1,0,-2,-1,-3,-3,-1,0,2021-08-06 13:57:03,566851
-5,-5,-7,-7,-6,-4,-3,-3,2021-08-06 13:57:03,566851
6,10,22,34,21,11,4,5,2021-08-06 13:57:03,596851
3,3,9,24,7,1,0,1,2021-08-06 13:57:03,596851
1,-2,-14,-15,-7,0,2,1,2021-08-06 13:57:03,596851
-13,-17,-23,-82,-41,-21,-12,-10,2021-08-06 13:57:03,596851
-7,-12,-22,-25,-13,-9,-8,-5,2021-08-06 13:57:03,627863
1,4,11,22,13,5,1,1,2021-08-06 13:57:03,627863
4,7,13,41,16,6,4,0,2021-08-06 13:57:03,627863
4,3,-13,-2,4,6,4,4,2021-08-06 13:57:03,627863
-9,-12,-8,-39,-20,-11,-8,-8,2021-08-06 13:57:03,627863
-2,-2,0,-2,-3,-1,-3,-2,2021-08-06 13:57:03,627863
0,0,6,12,4,1,-2,-2,2021-08-06 13:57:03,627863
5,9,14,30,11,4,4,2,2021-08-06 13:57:03,628850
2,3,1,6,1,3,4,1,2021-08-06 13:57:03,659852
1,0,-4,-1,2,1,1,-1,2021-08-06 13:57:03,675854
-6,-3,-1,-9,-9,-7,-4,-1,2021-08-06 13:57:03,691864
4,4,3,10,9,5,1,3,2021-08-06 13:57:03,691864
1,1,0,3,0,-1,-1,1,2021-08-06 13:57:03,691864
-1,-2,-5,-10,-5,-5,-3,-1,2021-08-06 13:57:03,691864
-2,-3,-3,-12,-7,-3,-2,-3,2021-08-06 13:57:03,691864
0,2,4,17,13,7,2,0,2021-08-06 13:57:03,691864
0,1,-3,3,2,0,1,0,2021-08-06 13:57:03,692816
-4,-3,-7,-21,-10,-5,-4,-3,2021-08-06 13:57:03,692816
-4,-5,-3,-12,-6,-6,-4,-2,2021-08-06 13:57:03,692816
-1,-1,-1,6,4,1,-2,0,2021-08-06 13:57:03,692816
1,1,-1,3,-4,-1,1,0,2021-08-06 13:57:03,723814
1,-1,-2,-1,2,1,1,0,2021-08-06 13:57:03,723814
-1,0,1,4,7,3,1,1,2021-08-06 13:57:03,723814
-1,-2,1,3,-3,-3,-3,-4,2021-08-06 13:57:03,723814
-5,-5,-9,-16,-5,-3,-3,-4,2021-08-06 13:57:03,723814
-3,-1,-1,-3,-5,-3,-5,-3,2021-08-06 13:57:03,723814
0,1,0,-1,-5,-2,-2,-3,2021-08-06 13:57:03,724850
2,3,6,13,-1,-3,-2,1,2021-08-06 13:57:03,724850
6,6,4,7,18,10,6,5,2021-08-06 13:57:03,750816
-3,-3,-8,-17,-13,-6,-1,-3,2021-08-06 13:57:03,751813
-2,-4,-2,-3,-3,-2,-1,-1,2021-08-06 13:57:03,751813
-2,-1,0,8,4,0,-1,0,2021-08-06 13:57:03,751813
-1,-1,0,-1,-8,-4,-3,0,2021-08-06 13:57:03,770815
-2,-4,2,-10,-1,-1,-1,-1,2021-08-06 13:57:03,770815
-1,1,-5,-3,-1,0,-1,-1,2021-08-06 13:57:03,770815
-3,-6,-9,-7,-7,-4,0,-1,2021-08-06 13:57:03,770815
0,0,3,7,4,2,0,0,2021-08-06 13:57:03,786852
3,2,1,6,5,3,2,3,2021-08-06 13:57:03,786852
-1,-1,3,-4,-5,-4,-3,0,2021-08-06 13:57:03,786852
1,1,2,1,1,-1,-1,2,2021-08-06 13:57:03,786852
-1,0,0,3,-1,-1,-1,0,2021-08-06 13:57:03,818815
-1,0,-3,-4,-2,-1,1,-2,2021-08-06 13:57:03,818815
-2,-3,-1,0,0,0,-1,-2,2021-08-06 13:57:03,818815
-3,-2,0,-2,-7,-3,-3,-4,2021-08-06 13:57:03,818815
1,-2,1,-1,-1,-1,-1,-1,2021-08-06 13:57:03,834816
-4,-3,-4,-8,-4,-4,-2,-3,2021-08-06 13:57:03,834816
1,1,0,1,2,0,0,2,2021-08-06 13:57:03,834816
0,0,1,12,4,1,3,0,2021-08-06 13:57:03,834816
-3,-2,-5,-23,-11,-5,-4,-2,2021-08-06 13:57:03,850864
-1,-2,-1,-4,-4,-2,-2,-2,2021-08-06 13:57:03,850864
-4,-3,-7,-8,-3,-3,-2,-1,2021-08-06 13:57:03,850864
-3,-3,2,-1,-2,-2,-2,-2,2021-08-06 13:57:03,850864
2,0,4,9,4,2,1,1,2021-08-06 13:57:03,880870
0,0,-3,3,0,1,1,1,2021-08-06 13:57:03,880870
0,-2,-2,-2,-2,0,0,1,2021-08-06 13:57:03,880870
0,1,-1,-3,-2,-1,-2,-1,2021-08-06 13:57:03,880870
-2,1,2,6,3,1,0,0,2021-08-06 13:57:03,880870
0,-1,0,1,-3,-1,-1,-2,2021-08-06 13:57:03,880870
2,0,3,4,4,3,1,0,2021-08-06 13:57:03,896851
0,0,0,1,3,2,0,0,2021-08-06 13:57:03,896851
-1,1,-1,-1,-2,-2,1,-1,2021-08-06 13:57:03,911850
-4,-4,-3,-9,-3,0,-2,0,2021-08-06 13:57:03,911850
-2,-3,-1,-8,-3,-2,-3,-2,2021-08-06 13:57:03,911850
-1,-2,-6,-5,-4,-2,-2,-2,2021-08-06 13:57:03,911850
0,-1,4,10,3,0,-1,-2,2021-08-06 13:57:03,942856
1,1,1,12,7,2,1,1,2021-08-06 13:57:03,942856
-1,0,-1,-7,-6,-3,0,-2,2021-08-06 13:57:03,942856
-2,-2,1,-10,-3,0,2,0,2021-08-06 13:57:03,942856
-3,-3,-3,-5,-5,-4,-3,-3,2021-08-06 13:57:03,942856
-1,-2,-7,4,3,-1,-1,-1,2021-08-06 13:57:03,942856
0,0,2,1,-1,0,0,-1,2021-08-06 13:57:03,957850
0,0,3,5,6,2,-1,0,2021-08-06 13:57:03,957850
1,1,4,8,5,3,1,-3,2021-08-06 13:57:03,972816
-2,-3,-2,-4,-7,-5,-3,-2,2021-08-06 13:57:03,972816
-1,-1,-5,-8,0,1,0,-2,2021-08-06 13:57:03,972816
-1,0,-2,-2,-4,-2,-1,0,2021-08-06 13:57:03,972816
-2,-1,-2,-3,-2,-3,-1,0,2021-08-06 13:57:04,003858
0,0,5,6,-2,0,-2,-3,2021-08-06 13:57:04,019813
1,0,1,11,6,2,2,0,2021-08-06 13:57:04,019813
0,0,-3,-5,-1,0,1,1,2021-08-06 13:57:04,019813
-3,-5,-10,-21,-8,-4,-4,-4,2021-08-06 13:57:04,019813
0,1,0,-2,-1,-1,-1,0,2021-08-06 13:57:04,019813
-2,-2,-1,0,-6,-5,-3,-2,2021-08-06 13:57:04,019813
0,2,10,19,13,6,1,1,2021-08-06 13:57:04,019813
2,1,-1,7,2,-1,2,3,2021-08-06 13:57:04,035851
0,-2,-4,-6,3,2,2,0,2021-08-06 13:57:04,051815
-5,-6,-6,-22,-12,-9,-6,-5,2021-08-06 13:57:04,051815
-3,-4,-9,-9,-7,-1,-3,-2,2021-08-06 13:57:04,051815
-2,0,0,4,2,0,-1,0,2021-08-06 13:57:04,051815
5,6,5,10,8,3,3,2,2021-08-06 13:57:04,051815
1,1,5,12,4,1,1,2,2021-08-06 13:57:04,051815
0,-2,-1,-6,-1,0,1,-2,2021-08-06 13:57:04,051815
0,1,-1,0,4,2,2,2,2021-08-06 13:57:04,066864
-2,-2,-3,1,-4,-3,-3,-2,2021-08-06 13:57:04,066864
0,0,-1,1,-5,-1,-1,-1,2021-08-06 13:57:04,066864
-3,-2,-2,-14,-3,-3,-3,-1,2021-08-06 13:57:04,066864
0,-1,-2,-2,-2,-1,-3,-2,2021-08-06 13:57:04,098864
-1,1,-2,0,-1,1,-2,1,2021-08-06 13:57:04,101813
0,0,2,-4,1,1,0,-1,2021-08-06 13:57:04,101813
0,-1,-4,6,-4,-4,-1,-1,2021-08-06 13:57:04,101813
-1,-2,-1,1,-1,0,2,-1,2021-08-06 13:57:04,114889
-1,-4,-1,-5,-4,-2,-1,-2,2021-08-06 13:57:04,130857
1,0,-1,2,4,1,0,-1,2021-08-06 13:57:04,146850
-1,-1,2,-4,-8,-6,-1,-2,2021-08-06 13:57:04,146850
1,3,3,10,13,7,3,0,2021-08-06 13:57:04,146850
0,2,5,9,5,2,2,1,2021-08-06 13:57:04,146850
1,0,-3,2,4,3,1,1,2021-08-06 13:57:04,146850
-2,-6,-7,-16,-8,-4,-3,-2,2021-08-06 13:57:04,146850
-4,-5,-6,-19,-16,-9,-5,-2,2021-08-06 13:57:04,162863
-3,-3,-2,-8,-9,-4,-1,-1,2021-08-06 13:57:04,162863
-1,0,4,7,8,3,0,1,2021-08-06 13:57:04,162863
1,1,1,8,6,1,-3,-1,2021-08-06 13:57:04,162863
-2,-2,-3,7,-1,-2,-1,-2,2021-08-06 13:57:04,178867
-1,-2,0,0,-2,1,-1,-1,2021-08-06 13:57:04,193852
0,-1,-6,-12,-7,-2,-2,0,2021-08-06 13:57:04,208850
-3,-3,-2,-7,-4,-3,-3,-3,2021-08-06 13:57:04,208850
1,-1,3,-1,-1,-1,1,-1,2021-08-06 13:57:04,208850
-1,0,-1,2,4,1,-1,1,2021-08-06 13:57:04,208850
-1,0,1,8,1,-2,-2,-1,2021-08-06 13:57:04,208850
0,1,0,1,3,1,0,0,2021-08-06 13:57:04,208850
-1,1,3,0,0,-1,-1,-1,2021-08-06 13:57:04,208850
-1,-3,-2,-3,-1,-2,1,0,2021-08-06 13:57:04,209853
-2,-1,-3,-4,-3,-2,-1,-1,2021-08-06 13:57:04,209853
-2,-1,2,4,0,2,0,1,2021-08-06 13:57:04,209853
0,0,0,1,-1,-1,-2,1,2021-08-06 13:57:04,240864
0,0,-3,0,1,0,0,-1,2021-08-06 13:57:04,256850
-2,0,-1,2,-1,0,-1,-1,2021-08-06 13:57:04,272812
-3,-1,2,-9,-4,-2,-2,-1,2021-08-06 13:57:04,272812
-5,-3,-10,-10,-8,-5,-4,-1,2021-08-06 13:57:04,272812
-3,-2,-2,-6,-2,-2,-3,-2,2021-08-06 13:57:04,272812
0,0,0,4,4,1,0,-1,2021-08-06 13:57:04,272812
2,2,5,12,5,2,2,0,2021-08-06 13:57:04,272812
-3,-1,2,-4,-3,-3,-1,0,2021-08-06 13:57:04,272812
-3,-3,-7,-5,-8,-3,-3,-3,2021-08-06 13:57:04,272812
-3,-5,-11,-23,-7,-6,-3,0,2021-08-06 13:57:04,273849
0,0,2,4,1,2,1,0,2021-08-06 13:57:04,273849
-1,-1,2,0,4,2,-1,-1,2021-08-06 13:57:04,303815
-1,-2,-1,8,-1,-1,-1,-1,2021-08-06 13:57:04,303815
1,2,4,9,5,4,1,1,2021-08-06 13:57:04,303815
-2,-3,-4,-8,-7,-4,-4,-2,2021-08-06 13:57:04,303815
0,-1,-2,-3,-4,-1,-1,0,2021-08-06 13:57:04,303815
-2,0,0,-1,0,-1,-1,-2,2021-08-06 13:57:04,303815
0,0,4,5,3,0,0,0,2021-08-06 13:57:04,319816
-1,3,2,8,7,2,3,1,2021-08-06 13:57:04,319816
3,3,9,14,4,2,2,0,2021-08-06 13:57:04,335816
1,2,-4,-6,1,1,3,1,2021-08-06 13:57:04,335816
-5,-9,-16,-32,-15,-7,-4,-5,2021-08-06 13:57:04,335816
-2,-5,-2,-4,-3,-3,-2,-4,2021-08-06 13:57:04,336228
1,-1,1,3,-3,-2,-1,-3,2021-08-06 13:57:04,351030
1,3,6,10,4,2,1,1,2021-08-06 13:57:04,367042
1,2,2,10,3,1,1,1,2021-08-06 13:57:04,367042
1,0,-6,-16,-6,0,1,1,2021-08-06 13:57:04,367042
-2,-1,-3,-4,-2,-2,-2,-1,2021-08-06 13:57:04,367042
1,2,3,0,0,-2,0,1,2021-08-06 13:57:04,367042
-2,-1,2,7,1,2,0,-1,2021-08-06 13:57:04,367042
0,-1,0,8,1,-3,-2,-2,2021-08-06 13:57:04,367993
0,0,-3,-2,0,1,1,1,2021-08-06 13:57:04,398993
0,-1,1,-4,3,1,-1,1,2021-08-06 13:57:04,414992
-4,-2,-2,-3,-11,-9,-5,-2,2021-08-06 13:57:04,430992
2,3,4,9,3,4,1,1,2021-08-06 13:57:04,430992
1,-1,2,1,15,7,4,1,2021-08-06 13:57:04,430992
-2,-2,-14,-8,-5,-2,-1,-1,2021-08-06 13:57:04,430992
-5,-6,-7,-21,-13,-8,-4,-5,2021-08-06 13:57:04,430992
-1,-3,-5,2,0,-3,-2,-3,2021-08-06 13:57:04,430992
0,2,5,8,-2,-1,-2,-3,2021-08-06 13:57:04,431993
0,1,7,7,5,2,1,1,2021-08-06 13:57:04,431993
2,2,6,11,5,3,1,1,2021-08-06 13:57:04,431993
-1,-1,-3,-3,-3,-2,-1,0,2021-08-06 13:57:04,431993
-3,-3,-7,-7,-8,-5,-3,-3,2021-08-06 13:57:04,447036
-1,-1,0,-15,-6,-4,-2,-1,2021-08-06 13:57:04,447036
1,2,8,10,4,2,0,0,2021-08-06 13:57:04,447036
0,-2,-7,6,8,4,0,1,2021-08-06 13:57:04,447036
-2,-5,-9,-12,-7,-3,-2,1,2021-08-06 13:57:04,476993
-3,-5,-8,-10,-11,-6,-4,-3,2021-08-06 13:57:04,493044
0,2,2,2,6,1,0,-1,2021-08-06 13:57:04,493044
0,2,9,3,-1,1,-1,-1,2021-08-06 13:57:04,493044
-1,1,-2,4,-3,-2,0,0,2021-08-06 13:57:04,493044
-4,-4,-12,-10,-11,-7,-3,-3,2021-08-06 13:57:04,493044
-1,-2,-1,-4,1,0,1,0,2021-08-06 13:57:04,493044
-1,-1,-4,-4,-3,-4,-2,-3,2021-08-06 13:57:04,493044
3,3,6,6,2,0,1,2,2021-08-06 13:57:04,509030
2,1,7,7,4,1,1,1,2021-08-06 13:57:04,524994
-2,-2,-5,-1,-2,1,-2,-3,2021-08-06 13:57:04,541040
0,-1,0,3,5,1,1,-1,2021-08-06 13:57:04,541040
-2,-1,2,2,-1,-1,-1,0,2021-08-06 13:57:04,541040
0,1,3,-1,0,1,-1,1,2021-08-06 13:57:04,541040
-1,-1,-4,-6,-5,-2,-2,-2,2021-08-06 13:57:04,541040
0,-3,-2,-8,-4,-3,-1,-1,2021-08-06 13:57:04,541040
-1,-1,1,4,-1,-1,-1,-1,2021-08-06 13:57:04,542041
2,3,8,16,15,6,3,2,2021-08-06 13:57:04,542041
0,0,-4,-2,-9,-4,-2,0,2021-08-06 13:57:04,557030
-6,-7,-13,-24,-10,-3,-3,-3,2021-08-06 13:57:04,557030
-4,-7,-8,-17,-10,-7,-5,-5,2021-08-06 13:57:04,573143
-1,-1,-4,1,1,1,-1,-3,2021-08-06 13:57:04,573143
1,0,4,11,3,-2,-1,0,2021-08-06 13:57:04,573143
1,3,4,9,1,1,2,3,2021-08-06 13:57:04,573143
1,0,3,11,15,7,2,0,2021-08-06 13:57:04,589157
1,1,1,-12,-4,0,-1,1,2021-08-06 13:57:04,589157
3,4,5,11,14,8,4,2,2021-08-06 13:57:04,589157
1,2,-4,4,-8,-4,-1,0,2021-08-06 13:57:04,589157
0,1,2,-9,-7,-3,-2,0,2021-08-06 13:57:04,605144
-4,-4,0,7,2,-2,-2,-1,2021-08-06 13:57:04,605144
-1,-1,-7,-3,2,3,2,0,2021-08-06 13:57:04,621144
-5,-4,-5,-18,-3,-4,-2,-4,2021-08-06 13:57:04,621144
-1,0,-4,11,0,-1,-2,-2,2021-08-06 13:57:04,637143
-1,1,7,-5,-3,-3,-2,-3,2021-08-06 13:57:04,653156
1,1,-2,0,-3,-2,0,1,2021-08-06 13:57:04,669110
-2,-5,-6,-9,-3,-2,-2,-1,2021-08-06 13:57:04,669110
-5,-6,-17,-24,-20,-10,-4,-2,2021-08-06 13:57:04,669110
-4,-9,-8,-4,-12,-11,-6,-5,2021-08-06 13:57:04,669110
5,7,12,11,12,7,4,5,2021-08-06 13:57:04,669110
2,4,11,13,4,1,-1,-1,2021-08-06 13:57:04,670146
3,9,19,27,24,14,6,5,2021-08-06 13:57:04,670146
0,-1,-5,10,5,4,0,0,2021-08-06 13:57:04,670146
-6,-7,-14,-32,-18,-9,-5,-4,2021-08-06 13:57:04,670146
-2,-5,-9,-17,-8,-7,-6,-3,2021-08-06 13:57:04,670146
-3,-4,-2,-7,-7,-5,-2,-1,2021-08-06 13:57:04,701109
1,6,8,23,18,8,4,2,2021-08-06 13:57:04,717157
1,1,7,22,9,2,1,0,2021-08-06 13:57:04,733110
-2,-1,-14,-15,-8,-3,0,-3,2021-08-06 13:57:04,733110
0,0,3,2,2,0,-1,0,2021-08-06 13:57:04,733110
0,3,5,-8,-4,-3,-2,-1,2021-08-06 13:57:04,733110
-2,-1,3,7,0,0,-3,-2,2021-08-06 13:57:04,733110
0,2,0,-2,2,3,2,1,2021-08-06 13:57:04,733110
-9,-11,-16,-39,-19,-12,-7,-7,2021-08-06 13:57:04,734108
0,4,13,-4,-1,-3,-1,0,2021-08-06 13:57:04,734108
1,-1,-26,6,3,1,2,1,2021-08-06 13:57:04,734108
0,-4,6,14,7,2,2,1,2021-08-06 13:57:04,734108
-2,-2,5,5,1,-2,0,-1,2021-08-06 13:57:04,749153
-3,-7,-23,-13,-9,-5,-2,-4,2021-08-06 13:57:04,764107
-3,-3,12,-7,-11,-9,-5,-3,2021-08-06 13:57:04,779146
4,8,11,23,17,9,6,5,2021-08-06 13:57:04,779146
5,7,13,16,7,6,3,3,2021-08-06 13:57:04,779146
-1,0,0,-16,-5,-1,0,0,2021-08-06 13:57:04,779146
-1,-3,-8,-16,-4,-2,-3,-1,2021-08-06 13:57:04,779146
-2,-1,5,13,1,-3,-4,-4,2021-08-06 13:57:04,779146
4,4,5,17,6,2,3,2,2021-08-06 13:57:04,795144
0,-2,-5,-12,0,3,0,0,2021-08-06 13:57:04,795144
-3,-6,-20,-31,-10,-1,-2,-2,2021-08-06 13:57:04,795144
-3,0,9,11,3,-1,-2,-1,2021-08-06 13:57:04,795144
2,6,7,5,3,0,1,0,2021-08-06 13:57:04,809143
1,-2,-13,0,-6,-1,1,0,2021-08-06 13:57:04,809143
-5,-8,-1,-14,-5,-5,0,-3,2021-08-06 13:57:04,809143
-6,-5,-11,-7,-6,-6,-5,-9,2021-08-06 13:57:04,809143
2,3,8,14,6,1,0,2,2021-08-06 13:57:04,842156
2,6,21,21,10,3,3,3,2021-08-06 13:57:04,842156
1,-4,-16,0,0,2,1,-3,2021-08-06 13:57:04,842156
5,-2,-12,-13,-10,-6,0,9,2021-08-06 13:57:04,842156
1,1,-2,-5,-4,-1,0,1,2021-08-06 13:57:04,857146
1,10,23,6,0,1,0,-1,2021-08-06 13:57:04,857146
-4,-10,-13,-20,-4,-3,-2,-3,2021-08-06 13:57:04,857146
-7,-12,-25,-4,1,1,-2,-6,2021-08-06 13:57:04,857146
-7,-13,-29,-22,-8,-4,-5,-6,2021-08-06 13:57:04,873144
0,2,9,8,9,5,2,1,2021-08-06 13:57:04,873144
-1,11,28,27,6,-1,-1,-4,2021-08-06 13:57:04,873144
6,10,34,24,8,4,3,1,2021-08-06 13:57:04,873144
2,3,9,-2,-3,0,2,2,2021-08-06 13:57:04,889147
-6,-11,-47,-50,-25,-11,-5,-6,2021-08-06 13:57:04,889147
-10,-12,-21,-27,-7,-8,-7,-6,2021-08-06 13:57:04,889147
-3,-1,1,-2,0,-1,-1,-1,2021-08-06 13:57:04,889147
1,6,23,37,17,6,2,-1,2021-08-06 13:57:04,921141
3,2,7,29,4,4,0,1,2021-08-06 13:57:04,921141
1,-4,-10,-26,-23,-10,-3,0,2021-08-06 13:57:04,921141
-3,-3,-3,-16,-16,-9,-6,-4,2021-08-06 13:57:04,921141
-4,-4,-7,-3,-2,-2,-2,-2,2021-08-06 13:57:04,921141
-1,-4,1,10,8,3,0,0,2021-08-06 13:57:04,921141
5,10,19,34,21,10,5,4,2021-08-06 13:57:04,937144
4,9,14,21,9,6,3,3,2021-08-06 13:57:04,937144
0,-4,-16,-28,-11,-3,-1,-1,2021-08-06 13:57:04,953142
-5,-9,-15,-21,-5,-2,-4,-3,2021-08-06 13:57:04,969110
-6,-4,5,-14,-15,-11,-9,-3,2021-08-06 13:57:04,985120
0,2,-8,-9,-4,-2,0,0,2021-08-06 13:57:04,985120
0,-1,-2,15,3,2,0,0,2021-08-06 13:57:04,985120
2,3,9,16,6,3,3,1,2021-08-06 13:57:04,985120
-1,-2,-19,-14,-5,-1,0,0,2021-08-06 13:57:04,985120
-3,-6,-10,-29,-12,-5,-2,-4,2021-08-06 13:57:04,985120
-7,-8,-11,-22,-8,-5,-5,-6,2021-08-06 13:57:04,985120
-3,-4,9,17,-1,-5,-2,-1,2021-08-06 13:57:04,985120
6,11,16,38,23,11,7,4,2021-08-06 13:57:05,001164
2,2,-1,-6,3,3,2,2,2021-08-06 13:57:05,017165
-1,2,5,8,5,0,-1,-1,2021-08-06 13:57:05,033110
-1,-4,-12,3,-8,-5,-2,-3,2021-08-06 13:57:05,049158
-1,-2,-3,-16,-11,-2,-1,0,2021-08-06 13:57:05,064109
-8,-10,-7,-20,-16,-11,-7,-6,2021-08-06 13:57:05,064109
4,7,6,7,11,4,3,2,2021-08-06 13:57:05,064109
1,3,10,22,12,2,1,2,2021-08-06 13:57:05,064109
8,6,2,30,17,12,7,5,2021-08-06 13:57:05,064109
-8,-11,-22,-49,-28,-11,-8,-4,2021-08-06 13:57:05,064109
-8,-11,-7,-36,-17,-12,-7,-6,2021-08-06 13:57:05,064109
0,2,-13,7,7,1,1,0,2021-08-06 13:57:05,064109
2,6,17,17,6,3,1,2,2021-08-06 13:57:05,065144
1,3,11,16,12,6,3,0,2021-08-06 13:57:05,065144
-2,-4,1,2,-7,-4,-2,-3,2021-08-06 13:57:05,065144
3,5,11,11,9,2,2,2,2021-08-06 13:57:05,065144
2,3,10,32,15,5,2,2,2021-08-06 13:57:05,079157
4,4,-5,3,10,10,5,5,2021-08-06 13:57:05,094144
-7,-9,-25,-55,-31,-12,-7,-7,2021-08-06 13:57:05,094144
-9,-9,-8,-21,-18,-11,-7,-8,2021-08-06 13:57:05,094144
0,-1,2,-1,-3,-4,-2,-1,2021-08-06 13:57:05,094144
3,5,14,37,20,8,3,0,2021-08-06 13:57:05,094144
6,7,5,28,14,9,6,6,2021-08-06 13:57:05,109149
-1,-3,2,-20,-15,-6,-4,-3,2021-08-06 13:57:05,109149
-5,-7,-9,-32,-16,-5,-2,-3,2021-08-06 13:57:05,109149
1,3,-9,0,6,1,1,1,2021-08-06 13:57:05,109149
-1,-5,-5,21,6,1,-1,0,2021-08-06 13:57:05,155106
-2,-3,-3,-12,-2,2,2,0,2021-08-06 13:57:05,155106
-5,-7,-15,-22,-18,-10,-7,-5,2021-08-06 13:57:05,155106
-3,-5,-4,-32,-19,-10,-5,-4,2021-08-06 13:57:05,155106
0,3,2,8,2,-2,0,0,2021-08-06 13:57:05,155106
2,3,12,28,14,4,1,1,2021-08-06 13:57:05,155106
4,6,15,27,17,7,2,2,2021-08-06 13:57:05,155106
2,1,3,3,1,2,1,-1,2021-08-06 13:57:05,156109
-3,-3,-10,-15,-11,-8,-4,-2,2021-08-06 13:57:05,166145
-1,0,3,-5,-2,-1,-1,-2,2021-08-06 13:57:05,187144
2,5,7,12,7,3,2,4,2021-08-06 13:57:05,202107
-1,-1,-6,8,-6,-3,-2,-1,2021-08-06 13:57:05,202107
-3,-5,1,-20,-7,-2,-1,-3,2021-08-06 13:57:05,202107
-4,-6,-16,-2,0,0,-2,-2,2021-08-06 13:57:05,202107
-2,-3,-8,-32,-9,-5,-3,-3,2021-08-06 13:57:05,202107
-1,-1,3,19,13,5,0,-2,2021-08-06 13:57:05,202107
-1,-2,-3,-9,-16,-9,-1,0,2021-08-06 13:57:05,217157
-2,-1,3,-13,-5,-4,0,-1,2021-08-06 13:57:05,217157
-4,-6,-17,1,-1,-2,-1,-3,2021-08-06 13:57:05,217157
-4,-7,-4,-19,-15,-10,-5,-2,2021-08-06 13:57:05,217157
3,6,10,23,23,15,5,4,2021-08-06 13:57:05,233144
2,-1,-8,-1,-1,-2,-1,-1,2021-08-06 13:57:05,233144
0,2,15,16,5,1,-1,-1,2021-08-06 13:57:05,233144
2,5,17,33,10,1,0,3,2021-08-06 13:57:05,233144
7,11,22,22,18,10,5,4,2021-08-06 13:57:05,263144
0,-6,-17,-18,5,9,2,2,2021-08-06 13:57:05,279157
-13,-18,-27,-50,-30,-15,-9,-10,2021-08-06 13:57:05,295149
-13,-15,-23,-31,-29,-19,-11,-8,2021-08-06 13:57:05,311106
0,-2,-4,-5,2,3,0,2,2021-08-06 13:57:05,311106
2,6,11,8,14,7,3,3,2021-08-06 13:57:05,311106
4,4,11,18,4,1,3,1,2021-08-06 13:57:05,311106
6,7,13,31,14,6,4,2,2021-08-06 13:57:05,311106
1,0,-1,5,-7,-4,-1,0,2021-08-06 13:57:05,311106
-2,1,-2,-17,-12,-5,-3,-1,2021-08-06 13:57:05,311106
-2,-3,3,7,2,-3,-3,0,2021-08-06 13:57:05,311106
1,-1,-7,-20,-5,1,1,0,2021-08-06 13:57:05,311106
-2,-1,2,8,11,4,1,-1,2021-08-06 13:57:05,311106
3,3,3,14,8,3,0,-1,2021-08-06 13:57:05,311106
-3,-5,-3,-3,-7,-7,-4,-2,2021-08-06 13:57:05,311106
1,-1,-5,-16,-1,1,1,2,2021-08-06 13:57:05,311106
-4,-6,-13,-17,-8,-1,-3,-6,2021-08-06 13:57:05,343144
-4,-4,-1,-3,-3,-5,-3,-2,2021-08-06 13:57:05,359144
5,9,17,24,10,4,3,3,2021-08-06 13:57:05,359144
-3,0,6,0,3,1,-1,-2,2021-08-06 13:57:05,359144
-1,-5,-19,-25,-14,-8,-3,1,2021-08-06 13:57:05,359144
-2,-3,5,2,-3,-1,-1,-1,2021-08-06 13:57:05,359144
-2,0,-6,25,5,0,0,-2,2021-08-06 13:57:05,359144
2,2,8,-12,4,4,3,1,2021-08-06 13:57:05,359144
0,2,8,2,3,6,2,2,2021-08-06 13:57:05,374151
0,-1,-9,-5,1,-1,1,0,2021-08-06 13:57:05,390143
-3,-2,1,-13,-16,-11,-5,-4,2021-08-06 13:57:05,406109
5,5,2,39,31,17,10,6,2021-08-06 13:57:05,406109
-3,-5,-6,-3,-14,-9,-5,-5,2021-08-06 13:57:05,406109
-4,-7,-17,-27,-21,-10,-6,-5,2021-08-06 13:57:05,406109
-3,-2,1,-21,-4,-2,-2,-1,2021-08-06 13:57:05,406109
4,10,23,43,23,6,3,2,2021-08-06 13:57:05,406109
5,9,7,14,10,6,3,3,2021-08-06 13:57:05,406109
0,-4,-4,-17,-1,7,4,2,2021-08-06 13:57:05,406109
-15,-19,-22,-57,-41,-28,-15,-14,2021-08-06 13:57:05,421144
-4,-7,-26,-7,-11,-10,-7,-4,2021-08-06 13:57:05,421144
3,4,16,32,13,8,6,2,2021-08-06 13:57:05,436156
6,14,26,48,24,10,3,4,2021-08-06 13:57:05,452159
5,5,2,6,5,7,6,3,2021-08-06 13:57:05,468196
-7,-10,-16,-50,-15,-5,-3,-3,2021-08-06 13:57:05,468196
-8,-9,-11,-13,-18,-14,-10,-7,2021-08-06 13:57:05,468196
-2,1,6,21,5,-2,-1,-3,2021-08-06 13:57:05,468196
8,10,10,37,24,18,10,9,2021-08-06 13:57:05,468196
-4,-7,-13,-65,-31,-10,-5,-4,2021-08-06 13:57:05,468196
-3,-4,-10,-6,0,0,-1,-3,2021-08-06 13:57:05,468196
-4,-6,-8,-28,-14,-9,-6,-5,2021-08-06 13:57:05,469157
2,5,9,28,16,6,2,3,2021-08-06 13:57:05,499207
2,5,15,37,7,1,0,0,2021-08-06 13:57:05,499207
0,8,18,10,7,0,0,1,2021-08-06 13:57:05,499207
0,-1,-9,4,-2,0,0,1,2021-08-06 13:57:05,499207
-2,-9,-26,-40,-16,-4,-1,-1,2021-08-06 13:57:05,499207
-8,-13,-9,-17,-14,-9,-7,-7,2021-08-06 13:57:05,499207
-6,-6,-6,-3,3,1,-1,-3,2021-08-06 13:57:05,515207
1,6,19,42,19,6,2,1,2021-08-06 13:57:05,526206
3,7,11,16,6,5,4,2,2021-08-06 13:57:05,526206
2,0,-9,-25,-9,-3,0,0,2021-08-06 13:57:05,527158
-5,-4,-4,-7,-6,-6,-4,-3,2021-08-06 13:57:05,527158
-2,-4,-1,-10,-13,-8,-4,-3,2021-08-06 13:57:05,527158
1,2,4,5,13,5,0,0,2021-08-06 13:57:05,547170
1,5,12,39,16,6,3,3,2021-08-06 13:57:05,547170
2,-5,-13,-4,1,1,1,-2,2021-08-06 13:57:05,547170
-9,-11,-17,-51,-37,-19,-8,-5,2021-08-06 13:57:05,547170
-3,-4,-1,-10,0,0,-2,-2,2021-08-06 13:57:05,547170
-2,-1,-3,5,-3,-3,-2,-1,2021-08-06 13:57:05,547170
-1,0,4,-1,0,-4,-3,-1,2021-08-06 13:57:05,578210
3,3,2,11,8,7,4,3,2021-08-06 13:57:05,594192
3,5,7,14,19,13,6,4,2021-08-06 13:57:05,610157
-2,-3,3,13,3,1,0,-3,2021-08-06 13:57:05,610157
-4,-5,-7,-17,-18,-10,-5,-3,2021-08-06 13:57:05,610157
-2,-4,-14,-23,-7,-4,-4,-2,2021-08-06 13:57:05,610157
1,1,8,4,-2,-3,-2,-1,2021-08-06 13:57:05,610157
2,4,7,18,16,8,3,2,2021-08-06 13:57:05,610157
3,7,7,29,16,7,5,4,2021-08-06 13:57:05,610157
-1,-2,0,-11,-11,-5,-4,-2,2021-08-06 13:57:05,626199
0,-2,-4,-20,-12,-5,-3,-2,2021-08-06 13:57:05,642200
-8,-9,-10,-6,-5,-6,-5,-4,2021-08-06 13:57:05,642496
0,-4,-16,-24,-11,-4,-1,-2,2021-08-06 13:57:05,642496
-7,-8,-15,-26,-12,-9,-5,-7,2021-08-06 13:57:05,642496
-2,0,2,8,6,2,0,1,2021-08-06 13:57:05,642496
4,5,17,12,-6,-5,-1,1,2021-08-06 13:57:05,642496
1,4,7,18,4,1,0,-1,2021-08-06 13:57:05,657506
1,4,7,20,13,6,2,2,2021-08-06 13:57:05,673502
0,1,0,3,7,3,0,-2,2021-08-06 13:57:05,673502
3,4,1,5,2,6,5,3,2021-08-06 13:57:05,673502
-5,-10,-13,-42,-14,-4,-3,-4,2021-08-06 13:57:05,673502
-5,-8,-7,-4,-9,-9,-4,-4,2021-08-06 13:57:05,673502
1,0,6,12,6,0,2,0,2021-08-06 13:57:05,673502
1,3,6,26,8,2,1,2,2021-08-06 13:57:05,673502
2,4,4,-2,3,3,1,1,2021-08-06 13:57:05,704515
-1,-1,-3,-18,-6,-3,-2,-1,2021-08-06 13:57:05,720467
-3,-2,-3,8,-4,-5,-3,-3,2021-08-06 13:57:05,720467
-2,-6,-13,-15,-12,-6,-3,-2,2021-08-06 13:57:05,720467
-1,-3,-2,-20,-1,1,0,0,2021-08-06 13:57:05,720467
-4,-5,-5,-25,-4,-3,-4,-2,2021-08-06 13:57:05,720467
-4,-5,-26,-2,0,-2,-3,-1,2021-08-06 13:57:05,720467
2,0,8,4,-7,-5,1,1,2021-08-06 13:57:05,720467
-10,-8,-4,9,-13,-14,-10,-9,2021-08-06 13:57:05,736510
17,19,32,48,30,23,17,12,2021-08-06 13:57:05,752505
-3,-3,-5,-10,5,1,-1,-4,2021-08-06 13:57:05,784468
10,7,8,3,12,14,9,9,2021-08-06 13:57:05,784468
-2,2,4,2,-2,-2,-4,-2,2021-08-06 13:57:05,784468
-5,-8,-12,-6,-8,-6,-2,-3,2021-08-06 13:57:05,784468
3,5,8,8,7,2,2,1,2021-08-06 13:57:05,784468
-9,-8,-16,-22,-21,-14,-8,-8,2021-08-06 13:57:05,784468
2,4,5,12,17,9,5,2,2021-08-06 13:57:05,785466
-3,0,0,4,-5,-6,-5,-4,2021-08-06 13:57:05,785466
-3,-5,-3,-7,-14,-7,-3,-2,2021-08-06 13:57:05,785466
-1,3,3,-4,27,12,2,1,2021-08-06 13:57:05,785466
6,5,8,22,19,11,8,7,2021-08-06 13:57:05,785466
2,9,13,48,20,8,3,1,2021-08-06 13:57:05,785466
-4,-8,-14,-57,-31,-13,-8,-5,2021-08-06 13:57:05,800515
-7,-7,-20,-47,-26,-11,-9,-7,2021-08-06 13:57:05,816518
-7,-13,-8,-2,-9,-7,-5,-4,2021-08-06 13:57:05,832505
4,6,9,20,14,3,3,4,2021-08-06 13:57:05,832505
6,9,13,21,10,8,6,7,2021-08-06 13:57:05,832505
-9,-14,-16,-45,-29,-15,-7,-7,2021-08-06 13:57:05,832505
-2,-1,-13,-12,-1,-4,-4,-2,2021-08-06 13:57:05,832505
1,-1,5,15,3,3,1,1,2021-08-06 13:57:05,832505
3,6,13,43,23,9,4,1,2021-08-06 13:57:05,833467
-1,3,4,1,10,4,1,-2,2021-08-06 13:57:05,833467
4,7,6,25,5,1,0,0,2021-08-06 13:57:05,848516
-3,-4,-7,-25,-23,-9,-5,-2,2021-08-06 13:57:05,864467
-7,-15,-30,-84,-35,-11,-5,-6,2021-08-06 13:57:05,880466
-8,-11,-1,23,4,-3,-7,-7,2021-08-06 13:57:05,880466
0,0,1,1,-4,-3,-1,0,2021-08-06 13:57:05,880466
8,12,19,37,23,7,4,4,2021-08-06 13:57:05,880466
4,6,11,27,-1,3,0,1,2021-08-06 13:57:05,880466
-1,-4,-10,-34,-15,-7,-3,-2,2021-08-06 13:57:05,880466
-7,-6,-13,-30,-11,-5,-5,-4,2021-08-06 13:57:05,896509
-1,-1,-4,-3,5,2,0,-2,2021-08-06 13:57:05,912502
-3,-2,3,6,-6,-7,-4,-4,2021-08-06 13:57:05,927505
4,5,16,42,13,6,4,2,2021-08-06 13:57:05,927505
3,7,16,34,12,6,3,4,2021-08-06 13:57:05,927505
-4,-6,-21,-57,-19,-4,-2,-1,2021-08-06 13:57:05,927505
-8,-14,-26,-48,-21,-15,-8,-7,2021-08-06 13:57:05,927505
0,2,3,23,12,1,1,-2,2021-08-06 13:57:05,927505
1,-3,-10,-9,-4,-2,0,-2,2021-08-06 13:57:05,943467
-3,-2,15,25,12,4,0,-1,2021-08-06 13:57:05,943467
-1,1,8,11,-5,-6,-4,-4,2021-08-06 13:57:05,943467
11,12,16,24,21,16,10,10,2021-08-06 13:57:05,943467
1,0,-2,-20,-4,1,1,-1,2021-08-06 13:57:05,959503
-8,-10,-24,-34,-22,-11,-6,-7,2021-08-06 13:57:05,974504
-4,-3,7,14,18,2,-2,-1,2021-08-06 13:57:05,974504
-1,3,-1,14,2,-2,-2,-2,2021-08-06 13:57:05,974504
2,-1,5,7,-1,-1,1,-1,2021-08-06 13:57:05,974504
3,2,2,0,5,6,2,1,2021-08-06 13:57:05,974504
-1,-1,-5,9,0,3,-1,1,2021-08-06 13:57:05,974504
-3,-4,-12,-53,-25,-12,-6,-5,2021-08-06 13:57:05,974504
-1,1,2,11,-4,-5,-5,-1,2021-08-06 13:57:06,006523
2,-2,-10,-18,-9,-5,0,1,2021-08-06 13:57:06,022523
0,-2,9,24,13,6,1,-1,2021-08-06 13:57:06,022523
-3,-2,0,5,-4,-3,-3,-1,2021-08-06 13:57:06,022523
-2,-1,-8,-15,3,4,2,0,2021-08-06 13:57:06,022523
-1,-2,-3,-10,-8,-6,-3,-2,2021-08-06 13:57:06,022523
0,2,6,18,8,-1,1,1,2021-08-06 13:57:06,022523
5,11,23,30,13,4,2,4,2021-08-06 13:57:06,022523
-1,0,-5,5,3,5,3,3,2021-08-06 13:57:06,038539
-10,-12,-16,-38,-31,-15,-7,-5,2021-08-06 13:57:06,054541
-6,-7,-12,-31,-14,-7,-3,-4,2021-08-06 13:57:06,070489
-3,-7,-20,-6,-11,-10,-6,-4,2021-08-06 13:57:06,070489
1,-1,12,15,10,7,4,2,2021-08-06 13:57:06,070489
6,10,18,35,30,15,6,4,2021-08-06 13:57:06,070489
2,4,6,-2,-3,-2,0,0,2021-08-06 13:57:06,070489
-3,-5,-5,-6,-5,-3,-2,0,2021-08-06 13:57:06,070489
1,2,5,6,5,2,1,2,2021-08-06 13:57:06,070489
-2,-1,-5,0,0,1,1,0,2021-08-06 13:57:06,070489
-2,-2,-6,-23,-7,-4,-1,-1,2021-08-06 13:57:06,071489
-3,-2,1,19,3,-1,-1,-4,2021-08-06 13:57:06,071489
-3,-5,-2,-11,-9,-4,-3,-3,2021-08-06 13:57:06,102486
1,1,-3,-5,-5,-3,0,0,2021-08-06 13:57:06,102486
-5,-7,-11,-13,-10,-7,-6,-5,2021-08-06 13:57:06,102486
9,12,10,11,9,7,6,7,2021-08-06 13:57:06,102486
-4,-2,-4,-14,-5,-4,-2,-3,2021-08-06 13:57:06,118488
-5,-2,6,9,0,-4,-6,-5,2021-08-06 13:57:06,118488
4,3,3,16,7,8,3,4,2021-08-06 13:57:06,118488
-3,-5,-7,-6,0,-2,-2,-1,2021-08-06 13:57:06,118488
-1,-2,-1,-5,-5,-5,-3,-3,2021-08-06 13:57:06,150539
1,-1,0,1,1,-3,-2,-1,2021-08-06 13:57:06,150539
2,2,0,5,1,0,0,3,2021-08-06 13:57:06,150539
-1,-2,-5,-7,-6,-4,-2,-1,2021-08-06 13:57:06,150539
-2,-4,-1,-4,0,-2,-2,-2,2021-08-06 13:57:06,150539
-4,-6,-10,-16,-15,-7,-4,-4,2021-08-06 13:57:06,150539
4,6,17,41,48,24,12,5,2021-08-06 13:57:06,166539
-1,0,-4,4,-9,-6,-3,-3,2021-08-06 13:57:06,166539
-1,1,2,-14,-10,-6,-2,-3,2021-08-06 13:57:06,182486
1,-3,-9,-3,-7,-5,-1,1,2021-08-06 13:57:06,198524
-2,-8,-18,-32,-26,-9,-4,-3,2021-08-06 13:57:06,214492
-8,-10,-9,-50,-8,-6,-6,-6,2021-08-06 13:57:06,229801
-3,-2,-9,25,8,1,0,-1,2021-08-06 13:57:06,237802
4,10,28,34,24,9,7,5,2021-08-06 13:57:06,237802
5,9,10,17,0,1,2,1,2021-08-06 13:57:06,238788
-2,-5,-3,-4,-5,-1,0,-1,2021-08-06 13:57:06,238788
0,1,-6,-22,-14,-4,-1,0,2021-08-06 13:57:06,238788
-11,-13,-15,-17,-18,-14,-10,-7,2021-08-06 13:57:06,238788
0,1,5,27,27,16,3,2,2021-08-06 13:57:06,238788
-2,0,6,-11,-13,-6,-4,-3,2021-08-06 13:57:06,238788
2,0,5,21,17,7,3,1,2021-08-06 13:57:06,238788
6,6,-11,6,18,10,6,5,2021-08-06 13:57:06,238788
-4,-5,-6,-49,-27,-13,-6,-3,2021-08-06 13:57:06,239788
-4,-3,2,13,4,0,-4,-3,2021-08-06 13:57:06,239788
-3,-7,-10,-8,-11,-7,-4,-3,2021-08-06 13:57:06,261788
-1,-2,0,-13,-12,-5,-3,-3,2021-08-06 13:57:06,261788
-2,1,3,8,-7,-8,-5,-3,2021-08-06 13:57:06,261788
4,8,11,30,19,10,5,4,2021-08-06 13:57:06,277801
0,-2,2,-5,-2,-1,-1,1,2021-08-06 13:57:06,293787
-5,-9,-3,-11,-3,3,0,-2,2021-08-06 13:57:06,293787
-4,-7,-24,3,-6,-6,-2,-2,2021-08-06 13:57:06,293787
2,2,5,-4,-7,-3,-1,1,2021-08-06 13:57:06,293787
4,5,5,18,15,8,4,3,2021-08-06 13:57:06,293787
-1,0,1,-6,7,4,1,-1,2021-08-06 13:57:06,293787
3,6,7,-13,-6,0,2,2,2021-08-06 13:57:06,293787
-8,-12,-17,-20,-22,-18,-10,-9,2021-08-06 13:57:06,308788
-1,-2,-1,4,-3,-2,-1,0,2021-08-06 13:57:06,324791
0,4,13,29,21,6,0,-1,2021-08-06 13:57:06,340801
6,8,18,21,12,9,6,2,2021-08-06 13:57:06,340801
2,-1,-28,-33,-5,2,2,2,2021-08-06 13:57:06,340801
-14,-15,-18,-46,-29,-17,-13,-11,2021-08-06 13:57:06,340801
-1,1,6,23,6,1,0,1,2021-08-06 13:57:06,340801
4,3,14,20,13,5,3,2,2021-08-06 13:57:06,340801
1,-1,12,0,-2,3,2,-1,2021-08-06 13:57:06,340801
-2,-2,-16,-11,-9,-6,-3,-2,2021-08-06 13:57:06,372753
-3,-7,-7,9,0,-1,-1,-2,2021-08-06 13:57:06,388801
6,7,10,15,14,8,5,4,2021-08-06 13:57:06,404801
3,3,3,7,13,9,6,3,2021-08-06 13:57:06,404801
-2,0,9,-12,-1,2,0,-3,2021-08-06 13:57:06,404801
-7,-6,-14,-27,-24,-14,-10,-8,2021-08-06 13:57:06,404801
5,8,2,4,2,4,2,4,2021-08-06 13:57:06,404801
2,-1,-3,19,20,8,5,1,2021-08-06 13:57:06,404801
-2,-6,-4,-2,-8,-6,-1,-2,2021-08-06 13:57:06,420751
-2,-5,-4,-9,-17,-12,-3,-2,2021-08-06 13:57:06,436788
-8,-10,-3,-18,-27,-18,-10,-7,2021-08-06 13:57:06,436788
5,8,11,29,29,17,5,4,2021-08-06 13:57:06,436788
4,6,11,24,21,12,6,4,2021-08-06 13:57:06,436788
-1,-2,-3,-23,-7,0,-1,-1,2021-08-06 13:57:06,436788
-7,-12,-24,-35,-20,-12,-7,-6,2021-08-06 13:57:06,436788
3,6,24,31,14,6,3,1,2021-08-06 13:57:06,436788
3,5,14,44,17,5,2,2,2021-08-06 13:57:06,436788
1,-2,-24,-36,-7,1,0,0,2021-08-06 13:57:06,436788
-13,-17,-26,-54,-32,-20,-11,-11,2021-08-06 13:57:06,436788
-4,-8,-7,-17,-18,-10,-5,-2,2021-08-06 13:57:06,436788
3,4,4,4,12,6,2,1,2021-08-06 13:57:06,452790
4,8,18,41,22,9,5,2,2021-08-06 13:57:06,452790
-2,-5,-6,10,8,3,2,0,2021-08-06 13:57:06,452790
-4,-3,1,-10,-15,-10,-7,-4,2021-08-06 13:57:06,452790
-1,0,2,2,-21,-11,-6,-3,2021-08-06 13:57:06,483794
8,11,13,22,36,21,11,9,2021-08-06 13:57:06,483794
2,1,5,8,19,8,4,2,2021-08-06 13:57:06,483794
-3,-4,-3,0,-5,-6,-5,-3,2021-08-06 13:57:06,483794
1,1,-4,-8,-2,2,2,3,2021-08-06 13:57:06,499751
-9,-13,-26,-51,-41,-19,-10,-6,2021-08-06 13:57:06,515801
-11,-15,-11,-23,-18,-12,-9,-7,2021-08-06 13:57:06,531753
8,13,18,49,36,19,10,7,2021-08-06 13:57:06,531753
5,5,5,4,8,6,3,3,2021-08-06 13:57:06,531753
-2,-2,-3,-28,-12,-6,-3,-3,2021-08-06 13:57:06,531753
4,4,-1,31,11,5,4,4,2021-08-06 13:57:06,531753
1,2,1,6,-7,-2,0,1,2021-08-06 13:57:06,531753
-7,-7,-16,-32,-4,-4,-6,-5,2021-08-06 13:57:06,531753
-2,-1,5,5,-1,2,-1,-1,2021-08-06 13:57:06,532790
1,0,-2,-2,4,0,0,0,2021-08-06 13:57:06,532790
-3,-5,-4,6,3,1,1,0,2021-08-06 13:57:06,532790
7,14,20,20,14,6,5,7,2021-08-06 13:57:06,563753
-1,5,13,30,5,-2,-3,-1,2021-08-06 13:57:06,579801
1,-1,-12,-7,-2,4,-1,-1,2021-08-06 13:57:06,595788
-12,-18,-30,-67,-42,-21,-12,-9,2021-08-06 13:57:06,595788
-7,-9,-7,-12,-3,-3,-4,-3,2021-08-06 13:57:06,595788
-2,-1,1,-4,0,-4,-3,-3,2021-08-06 13:57:06,595788
2,10,22,49,11,4,2,0,2021-08-06 13:57:06,595788
7,10,8,11,11,9,9,7,2021-08-06 13:57:06,595788
2,-3,-11,-16,-2,3,2,1,2021-08-06 13:57:06,595788
-6,-9,-7,-19,-10,-8,-5,-5,2021-08-06 13:57:06,595788
-1,2,8,16,11,4,-2,0,2021-08-06 13:57:06,595788
0,5,4,18,5,-3,-2,-1,2021-08-06 13:57:06,595788
1,-2,-7,6,-5,1,4,1,2021-08-06 13:57:06,626752
-6,-13,-21,-47,-23,-12,-7,-6,2021-08-06 13:57:06,626752
-6,-7,-24,-38,-19,-7,-4,-6,2021-08-06 13:57:06,626752
-2,0,7,3,2,0,-1,-2,2021-08-06 13:57:06,626752
3,8,23,37,9,1,-1,1,2021-08-06 13:57:06,641801
4,9,17,41,7,3,3,3,2021-08-06 13:57:06,657788
0,-3,-6,-28,4,7,5,2,2021-08-06 13:57:06,657788
-6,-9,-17,-15,-7,-6,-3,-5,2021-08-06 13:57:06,657788
-5,-4,-8,-17,-12,-4,-1,-2,2021-08-06 13:57:06,657788
-2,-2,4,15,4,-1,0,0,2021-08-06 13:57:06,657788
-1,3,12,16,-2,-5,-3,-1,2021-08-06 13:57:06,657788
2,1,-3,-7,4,2,1,2,2021-08-06 13:57:06,657788
2,-1,-4,-19,-2,2,2,0,2021-08-06 13:57:06,689787
-1,-2,-4,-1,-2,-3,-2,-2,2021-08-06 13:57:06,689787
-1,2,4,10,0,-1,0,0,2021-08-06 13:57:06,689787
-9,-10,-13,8,-1,-5,-7,-7,2021-08-06 13:57:06,689787
6,5,12,13,11,4,2,5,2021-08-06 13:57:06,705801
0,3,6,5,-5,3,1,1,2021-08-06 13:57:06,705801
-1,-7,-10,-37,-15,-8,-2,-2,2021-08-06 13:57:06,705801
2,3,-4,-11,1,-1,0,2,2021-08-06 13:57:06,705801
-7,-9,-15,-10,-15,-13,-8,-8,2021-08-06 13:57:06,721788
3,6,6,27,21,12,5,3,2021-08-06 13:57:06,737801
-2,-2,2,-5,1,1,-2,-2,2021-08-06 13:57:06,753801
-2,-4,-4,-23,-24,-11,-3,-2,2021-08-06 13:57:06,753801
-1,3,0,-3,5,1,0,1,2021-08-06 13:57:06,753801
8,12,16,35,26,15,7,7,2021-08-06 13:57:06,753801
0,0,2,8,2,1,0,-1,2021-08-06 13:57:06,753801
2,2,3,8,20,10,4,2,2021-08-06 13:57:06,753801
-3,-4,-4,8,2,-3,-3,-4,2021-08-06 13:57:06,753801
-2,0,-4,-18,-21,-11,-6,-2,2021-08-06 13:57:06,753801
1,6,17,8,6,2,1,1,2021-08-06 13:57:06,753801
-4,-8,-24,-6,2,1,-2,-2,2021-08-06 13:57:06,753801
-8,-16,-23,-35,-16,-7,-4,-5,2021-08-06 13:57:06,785788
-3,-4,-3,-5,1,-2,-1,0,2021-08-06 13:57:06,785788
1,4,4,29,5,2,2,2,2021-08-06 13:57:06,785788
2,5,10,-13,-4,-3,-2,-1,2021-08-06 13:57:06,785788
-6,-4,0,0,-7,-6,-7,-5,2021-08-06 13:57:06,801772
-2,-3,-10,-15,-11,-6,-2,-2,2021-08-06 13:57:06,801772
3,4,9,5,18,8,4,3,2021-08-06 13:57:06,801772
0,3,10,15,-7,0,-1,0,2021-08-06 13:57:06,801772
6,11,13,20,24,14,8,5,2021-08-06 13:57:06,817801
-3,-6,-5,-7,-12,-8,-6,-4,2021-08-06 13:57:06,833789
-3,-4,-10,2,-7,-3,-1,-2,2021-08-06 13:57:06,849751
-8,-12,-19,-43,-24,-14,-9,-7,2021-08-06 13:57:06,865801
1,2,2,4,0,-1,0,-1,2021-08-06 13:57:06,881801
6,8,16,33,22,10,5,3,2021-08-06 13:57:06,881801
-2,0,-1,2,-11,-7,-3,-2,2021-08-06 13:57:06,881801
-3,-4,0,5,-2,0,0,-1,2021-08-06 13:57:06,881801
-5,-10,-17,-28,-4,0,-3,-3,2021-08-06 13:57:06,881801
0,1,1,6,0,1,2,1,2021-08-06 13:57:06,881801
3,0,0,-1,8,4,0,0,2021-08-06 13:57:06,882808
4,9,11,23,15,8,5,4,2021-08-06 13:57:06,882808
0,0,1,-5,9,4,1,0,2021-08-06 13:57:06,882808
-1,-2,-4,-1,3,2,2,1,2021-08-06 13:57:06,882808
-3,-6,-4,-25,-30,-21,-8,-3,2021-08-06 13:57:06,882808
-4,-4,-3,-14,-20,-11,-7,-6,2021-08-06 13:57:06,882808
0,1,6,12,5,4,2,2,2021-08-06 13:57:06,897753
1,4,7,18,20,7,0,0,2021-08-06 13:57:06,913753
1,2,2,22,12,6,3,2,2021-08-06 13:57:06,913753
0,-1,-11,-31,-13,-4,-2,0,2021-08-06 13:57:06,913753
-6,-6,-3,-15,-16,-11,-9,-6,2021-08-06 13:57:06,913753
-5,-7,-13,-13,-8,-6,-5,-4,2021-08-06 13:57:06,929801
2,2,9,22,6,2,2,1,2021-08-06 13:57:06,945753
3,3,3,5,8,5,0,1,2021-08-06 13:57:06,955787
6,7,1,2,18,14,8,5,2021-08-06 13:57:06,956789
-7,-11,-7,-14,-15,-10,-8,-6,2021-08-06 13:57:06,956789
-1,0,-3,-2,-2,-2,0,-1,2021-08-06 13:57:06,956789
2,6,12,19,12,5,2,1,2021-08-06 13:57:06,956789
-1,-2,5,23,-3,-4,-1,-1,2021-08-06 13:57:06,956789
3,2,-6,-29,-15,-5,-2,3,2021-08-06 13:57:06,956789
-8,-14,-25,-47,-21,-7,-4,-5,2021-08-06 13:57:06,957790
-2,-1,2,0,6,-2,0,-3,2021-08-06 13:57:06,957790
0,0,6,12,-8,-3,0,0,2021-08-06 13:57:06,977801
3,6,10,30,22,11,6,4,2021-08-06 13:57:06,993788
0,0,-1,7,-7,-3,-4,-4,2021-08-06 13:57:07,009795
-6,-11,-32,-53,-26,-11,-5,-2,2021-08-06 13:57:07,025807
-15,-17,-19,-25,-36,-30,-19,-13,2021-08-06 13:57:07,041800
-2,-1,0,1,1,-3,-3,-1,2021-08-06 13:57:07,041800
6,10,18,21,27,17,8,6,2021-08-06 13:57:07,041800
5,9,22,37,17,10,5,4,2021-08-06 13:57:07,041800
5,6,-1,-2,2,1,2,2,2021-08-06 13:57:07,041800
-1,-5,-3,17,6,3,2,-1,2021-08-06 13:57:07,041800
-1,-2,-8,-7,3,-1,-1,-2,2021-08-06 13:57:07,041800
-3,-5,-11,-31,-20,-9,-5,-4,2021-08-06 13:57:07,042789
-4,-5,-6,-29,-16,-7,-4,-4,2021-08-06 13:57:07,042789
2,1,1,-6,14,9,4,1,2021-08-06 13:57:07,042789
-3,-3,-3,7,0,-4,-2,-2,2021-08-06 13:57:07,042789
3,2,13,39,15,6,3,2,2021-08-06 13:57:07,042789
4,8,16,30,9,5,2,3,2021-08-06 13:57:07,057751
-6,-6,-18,-39,-24,-12,-8,-6,2021-08-06 13:57:07,073788
0,-4,1,-16,-9,1,5,1,2021-08-06 13:57:07,073788
-5,-6,-13,-8,-14,-13,-8,-7,2021-08-06 13:57:07,073788
3,3,10,14,6,3,3,2,2021-08-06 13:57:07,073788
3,3,0,12,19,9,5,2,2021-08-06 13:57:07,073788
3,3,6,6,3,2,-1,-1,2021-08-06 13:57:07,073788
1,-1,3,21,15,4,1,1,2021-08-06 13:57:07,073788
-2,-2,-8,-27,-28,-12,-3,-2,2021-08-06 13:57:07,089755
0,-1,4,-14,-2,2,1,1,2021-08-06 13:57:07,089755
-5,-6,-9,-16,-10,-7,-4,-4,2021-08-06 13:57:07,089755
-3,-5,-5,-10,4,1,-1,-2,2021-08-06 13:57:07,089755
3,2,-1,34,24,12,4,3,2021-08-06 13:57:07,121795
2,4,5,-4,-6,-3,-1,0,2021-08-06 13:57:07,121795
