EMG 1,EMG 2,EMG 3,EMG 4,EMG 5,EMG 6,EMG 7,EMG 8,Timestamp,Milliseconds
-3,-4,-3,12,24,6,-1,-2,2021-08-07 11:41:05,728117
-4,-4,-2,0,-5,-2,-3,-2,2021-08-07 11:41:05,728117
2,3,3,3,4,4,1,1,2021-08-07 11:41:05,744118
6,11,16,20,10,4,2,3,2021-08-07 11:41:05,760119
2,2,7,10,0,2,4,1,2021-08-07 11:41:05,760119
-8,-14,-19,-25,-13,-9,-5,-5,2021-08-07 11:41:05,760119
-4,-5,0,-8,-9,-7,-5,-4,2021-08-07 11:41:05,760119
1,0,-3,14,14,6,2,2,2021-08-07 11:41:05,760119
2,4,4,-15,-10,-3,-1,-1,2021-08-07 11:41:05,760119
-2,0,5,-10,-9,-9,-4,-1,2021-08-07 11:41:05,760119
-1,-3,-12,15,6,3,2,0,2021-08-07 11:41:05,760119
-4,-1,3,6,-2,-1,-2,-3,2021-08-07 11:41:05,761118
1,1,3,6,11,6,1,1,2021-08-07 11:41:05,776118
-1,-2,-7,-5,-7,0,0,-2,2021-08-07 11:41:05,776118
-3,-5,6,-5,2,-7,-4,-2,2021-08-07 11:41:05,776118
6,9,-1,13,15,11,7,4,2021-08-07 11:41:05,776118
-5,-6,-12,-6,-13,-6,-4,-4,2021-08-07 11:41:05,776118
0,1,9,-4,-15,-8,-3,-1,2021-08-07 11:41:05,776118
5,7,10,17,31,17,6,3,2021-08-07 11:41:05,776118
-6,-5,-11,-20,-13,-8,-3,-3,2021-08-07 11:41:05,776118
-4,-2,2,-6,0,-3,-5,-2,2021-08-07 11:41:05,792118
0,4,-1,2,3,1,0,-1,2021-08-07 11:41:05,792118
-2,-2,-1,-4,-16,-7,-2,-2,2021-08-07 11:41:05,808117
-4,-5,0,3,2,0,-1,-3,2021-08-07 11:41:05,824119
-1,2,-4,-14,-9,-3,-1,2,2021-08-07 11:41:05,840120
-1,-3,4,4,8,1,-1,-1,2021-08-07 11:41:05,840120
0,-1,-5,4,-2,1,0,0,2021-08-07 11:41:05,840120
2,2,4,11,15,8,4,3,2021-08-07 11:41:05,840120
-3,-4,-4,-9,-7,-2,-2,-2,2021-08-07 11:41:05,840120
-1,0,-2,-14,-12,-5,-2,-2,2021-08-07 11:41:05,840120
-4,-4,-2,-14,-20,-8,-4,-4,2021-08-07 11:41:05,856119
3,2,7,27,32,12,3,3,2021-08-07 11:41:05,856119
2,3,4,19,12,4,3,1,2021-08-07 11:41:05,856119
0,0,5,2,4,-1,0,0,2021-08-07 11:41:05,856119
-5,-7,-13,-14,-11,-8,-5,-3,2021-08-07 11:41:05,856119
-4,-1,-4,-14,-27,-12,-5,-4,2021-08-07 11:41:05,856119
-4,-5,2,-3,-5,-4,-5,-5,2021-08-07 11:41:05,872119
3,2,-4,11,30,12,5,1,2021-08-07 11:41:05,875118
4,4,7,6,6,5,4,2,2021-08-07 11:41:05,888118
-1,-2,-7,-23,-26,-12,-6,-3,2021-08-07 11:41:05,904119
3,4,2,8,1,-3,1,2,2021-08-07 11:41:05,920120
-6,-8,-9,-10,-15,-8,-6,-5,2021-08-07 11:41:05,936119
4,7,4,13,16,7,3,3,2021-08-07 11:41:05,952117
3,5,5,-1,-3,-1,1,2,2021-08-07 11:41:05,952117
-5,-7,-7,-12,-14,-5,-5,-5,2021-08-07 11:41:05,952117
3,4,4,13,17,7,5,2,2021-08-07 11:41:05,952117
-8,-11,-11,-5,-3,-3,-3,-5,2021-08-07 11:41:05,952117
1,-1,-3,-14,-12,-7,-2,0,2021-08-07 11:41:05,952117
2,2,2,3,1,1,1,0,2021-08-07 11:41:05,952117
-2,0,-4,-11,-28,-11,-3,-1,2021-08-07 11:41:05,952117
2,5,10,19,32,15,5,1,2021-08-07 11:41:05,953118
-6,-6,-2,9,2,-1,-4,-6,2021-08-07 11:41:05,953118
0,-1,-8,-13,7,-1,1,1,2021-08-07 11:41:05,953118
-3,-4,-7,-14,-13,-7,-5,-2,2021-08-07 11:41:05,953118
-2,-3,0,-3,-10,-5,-5,-3,2021-08-07 11:41:05,983120
-1,0,-1,12,12,4,1,0,2021-08-07 11:41:05,999118
6,7,11,22,14,9,4,5,2021-08-07 11:41:05,999118
0,-1,-6,-28,-23,-9,-3,-2,2021-08-07 11:41:05,999118
-7,-9,-4,-15,-23,-14,-8,-5,2021-08-07 11:41:05,999118
3,3,0,9,11,6,2,3,2021-08-07 11:41:06,015118
-2,-1,-1,0,-10,-4,-3,-2,2021-08-07 11:41:06,015118
6,9,8,31,38,18,7,7,2021-08-07 11:41:06,031119
-3,-2,-6,-7,-3,-2,-2,-5,2021-08-07 11:41:06,047118
-7,-10,-8,-15,-13,-7,-6,-5,2021-08-07 11:41:06,047118
4,4,2,-3,2,0,2,2,2021-08-07 11:41:06,047118
-2,-3,-1,-11,-19,-8,-4,-1,2021-08-07 11:41:06,047118
0,3,3,-1,7,0,0,0,2021-08-07 11:41:06,047118
-3,-2,5,14,-1,-3,-1,-2,2021-08-07 11:41:06,047118
1,1,2,14,16,10,3,1,2021-08-07 11:41:06,048119
0,-1,1,6,4,1,1,-1,2021-08-07 11:41:06,048119
4,4,4,13,17,7,3,3,2021-08-07 11:41:06,048119
-6,-7,-11,-31,-32,-14,-7,-5,2021-08-07 11:41:06,048119
-2,-1,1,-1,11,2,0,0,2021-08-07 11:41:06,048119
1,1,5,20,17,7,1,0,2021-08-07 11:41:06,048119
-4,-4,-8,-10,-13,-6,-2,-2,2021-08-07 11:41:06,079119
-5,-6,-6,-14,-10,-6,-6,-5,2021-08-07 11:41:06,095119
7,8,4,-12,-11,-1,2,6,2021-08-07 11:41:06,111118
1,4,1,-6,-2,-2,-1,0,2021-08-07 11:41:06,111118
4,3,2,2,-3,-1,0,2,2021-08-07 11:41:06,111118
-4,-5,-1,10,12,4,1,-1,2021-08-07 11:41:06,111118
-5,-8,-5,3,-3,-4,-3,-3,2021-08-07 11:41:06,111118
4,3,-5,-7,-4,0,1,2,2021-08-07 11:41:06,111118
-3,-4,5,-10,-9,-7,-1,-1,2021-08-07 11:41:06,112119
-4,-3,-10,-10,1,1,-2,-3,2021-08-07 11:41:06,112119
-8,-8,-1,6,2,-3,-5,-5,2021-08-07 11:41:06,112119
-4,-4,1,-4,-15,-6,-3,-3,2021-08-07 11:41:06,112119
-2,-3,-7,12,18,5,-2,-1,2021-08-07 11:41:06,142120
5,6,8,6,12,8,3,3,2021-08-07 11:41:06,158117
8,9,4,-4,-5,1,4,3,2021-08-07 11:41:06,158117
0,-1,-1,7,5,2,1,0,2021-08-07 11:41:06,174118
-1,-2,-3,-12,-13,-6,-1,-3,2021-08-07 11:41:06,174118
-3,-4,-6,-3,-1,-3,-3,-3,2021-08-07 11:41:06,174118
-6,-6,-7,-3,-4,-3,-5,-5,2021-08-07 11:41:06,174118
0,0,2,-4,-2,-1,-2,0,2021-08-07 11:41:06,174118
-3,-4,-5,-6,-7,-5,-5,-2,2021-08-07 11:41:06,174118
5,5,5,0,2,5,5,3,2021-08-07 11:41:06,174118
-4,-4,-6,-9,-10,-7,-3,-5,2021-08-07 11:41:06,174118
-6,-7,-5,-6,-7,-4,-2,-2,2021-08-07 11:41:06,175119
5,9,7,4,-1,3,4,5,2021-08-07 11:41:06,205118
4,5,7,22,26,8,5,2,2021-08-07 11:41:06,221119
-3,-4,-7,-22,-23,-11,-5,-3,2021-08-07 11:41:06,221119
-2,-3,2,20,24,9,2,0,2021-08-07 11:41:06,221119
0,0,-3,-7,-17,-5,-2,-3,2021-08-07 11:41:06,221119
2,2,0,-2,-4,-2,0,1,2021-08-07 11:41:06,221119
-4,-6,-9,-23,-27,-13,-6,-5,2021-08-07 11:41:06,221119
-2,-1,2,14,7,1,-2,-4,2021-08-07 11:41:06,221119
0,-1,-4,0,9,4,2,1,2021-08-07 11:41:06,237119
3,7,6,0,1,3,1,2,2021-08-07 11:41:06,237119
1,2,2,6,4,2,1,0,2021-08-07 11:41:06,253145
-2,-5,-8,-25,-27,-13,-5,-4,2021-08-07 11:41:06,253145
-7,-7,-6,3,3,0,-3,-4,2021-08-07 11:41:06,253145
2,0,2,-1,0,-2,1,1,2021-08-07 11:41:06,253145
4,5,7,13,11,7,5,3,2021-08-07 11:41:06,253145
-3,-2,-3,-8,-7,-3,-2,-2,2021-08-07 11:41:06,253145
-2,-3,0,-2,-1,-1,-3,-2,2021-08-07 11:41:06,282144
-4,-5,-6,-8,-16,-9,-5,-4,2021-08-07 11:41:06,282144
0,-1,2,7,16,5,3,1,2021-08-07 11:41:06,283145
3,5,5,15,19,9,4,3,2021-08-07 11:41:06,283145
-1,-1,-2,-11,-10,-5,-3,-1,2021-08-07 11:41:06,283145
-3,-3,-3,0,0,0,-1,-1,2021-08-07 11:41:06,283145
-3,-4,-1,-5,-2,-1,-3,-4,2021-08-07 11:41:06,301143
0,-1,-2,-3,2,1,1,0,2021-08-07 11:41:06,317144
1,3,3,10,18,5,2,2,2021-08-07 11:41:06,333145
-1,0,-1,-4,-6,-3,-2,-2,2021-08-07 11:41:06,333145
1,2,3,12,20,8,2,0,2021-08-07 11:41:06,333145
-2,0,0,-8,-10,-4,-2,-2,2021-08-07 11:41:06,333145
2,1,4,6,-2,-1,-1,-1,2021-08-07 11:41:06,333145
-3,-6,-12,-22,-24,-13,-7,-3,2021-08-07 11:41:06,333145
-2,-4,-5,8,23,10,2,-1,2021-08-07 11:41:06,333145
0,1,1,6,5,2,0,0,2021-08-07 11:41:06,333145
-5,-6,-5,-7,-9,-3,-4,-5,2021-08-07 11:41:06,365143
1,5,10,15,6,0,3,2,2021-08-07 11:41:06,365143
-2,-1,2,6,-2,-2,-4,-3,2021-08-07 11:41:06,365143
1,-1,-4,-7,-3,2,0,1,2021-08-07 11:41:06,365143
-1,-1,-4,-10,-20,-10,-4,-2,2021-08-07 11:41:06,365143
-1,-2,1,12,26,11,3,1,2021-08-07 11:41:06,366145
2,4,3,2,0,0,1,1,2021-08-07 11:41:06,366145
1,1,4,4,-3,0,0,2,2021-08-07 11:41:06,366145
-6,-8,-6,-3,-2,-3,-2,-4,2021-08-07 11:41:06,397142
-3,-1,-6,-10,-10,-4,-2,-2,2021-08-07 11:41:06,397142
-5,-6,-4,-7,-9,-4,-5,-3,2021-08-07 11:41:06,397142
-7,-8,-5,-1,-1,-4,-6,-7,2021-08-07 11:41:06,397142
8,11,6,0,-1,2,4,7,2021-08-07 11:41:06,413145
-1,-4,-2,-1,2,-1,-2,-2,2021-08-07 11:41:06,413145
2,2,4,3,2,2,2,1,2021-08-07 11:41:06,413145
-5,-8,-8,-14,-13,-8,-3,-4,2021-08-07 11:41:06,413145
2,3,5,9,10,5,1,2,2021-08-07 11:41:06,445144
-2,-1,2,3,2,0,0,-1,2021-08-07 11:41:06,461143
-1,0,-2,-3,-4,-2,-1,0,2021-08-07 11:41:06,476656
-3,-5,-5,-3,-3,-3,-2,-3,2021-08-07 11:41:06,476656
4,4,4,4,5,4,1,2,2021-08-07 11:41:06,476656
-1,-2,-1,-2,-1,-2,-1,-2,2021-08-07 11:41:06,476656
-3,-2,-3,-6,-8,-4,-3,-3,2021-08-07 11:41:06,476656
1,1,2,3,2,0,-1,0,2021-08-07 11:41:06,476656
-2,-4,-3,0,3,1,-1,-3,2021-08-07 11:41:06,476656
-1,-1,-3,-5,-4,-1,-2,-1,2021-08-07 11:41:06,476656
2,2,1,1,1,-1,0,2,2021-08-07 11:41:06,477657
1,1,3,0,0,0,-1,-1,2021-08-07 11:41:06,477657
-2,-1,-3,-1,-1,-2,1,-1,2021-08-07 11:41:06,492657
-2,-2,-4,-1,-2,0,-2,-1,2021-08-07 11:41:06,492657
-2,-3,-3,-3,-6,-3,-2,0,2021-08-07 11:41:06,492657
1,2,-3,-5,2,0,1,1,2021-08-07 11:41:06,492657
0,1,5,6,2,0,2,1,2021-08-07 11:41:06,523657
-2,-4,-3,0,1,-1,-1,-3,2021-08-07 11:41:06,523657
1,1,0,0,-1,0,0,0,2021-08-07 11:41:06,523657
-1,0,0,0,-5,-2,-2,0,2021-08-07 11:41:06,523657
-4,-3,-3,-5,-3,-3,-3,-3,2021-08-07 11:41:06,523657
-4,-3,-3,-3,-1,-3,-2,-3,2021-08-07 11:41:06,523657
4,4,5,6,2,3,2,3,2021-08-07 11:41:06,539655
-1,1,1,0,1,2,1,2,2021-08-07 11:41:06,539655
-1,0,-2,1,1,1,-1,-2,2021-08-07 11:41:06,554655
2,1,3,0,0,0,0,2,2021-08-07 11:41:06,554655
-5,-4,-6,-10,-10,-6,-3,-2,2021-08-07 11:41:06,554655
-6,-8,-10,-11,-10,-7,-6,-4,2021-08-07 11:41:06,554655
10,13,14,22,23,14,8,8,2021-08-07 11:41:06,586655
1,0,0,3,-1,0,-2,0,2021-08-07 11:41:06,586655
-3,-2,-2,-4,-4,-2,-2,-2,2021-08-07 11:41:06,586655
0,-2,-2,-10,-5,-3,-1,-3,2021-08-07 11:41:06,586655
-5,-3,-3,-1,-3,-5,-3,-4,2021-08-07 11:41:06,586655
1,0,-3,-4,-2,0,-1,-1,2021-08-07 11:41:06,586655
0,-2,-2,-3,-5,-2,-1,-3,2021-08-07 11:41:06,602655
-2,1,1,10,7,3,0,0,2021-08-07 11:41:06,602655
-2,-5,-5,-11,-7,-2,-2,-1,2021-08-07 11:41:06,618655
-3,-3,0,2,2,1,-1,-2,2021-08-07 11:41:06,618655
-2,-2,-4,-5,-5,-3,-3,-2,2021-08-07 11:41:06,618655
6,5,5,4,3,1,0,3,2021-08-07 11:41:06,618655
-3,-2,-4,-5,-5,-2,-3,-2,2021-08-07 11:41:06,634656
-1,1,2,1,-2,-2,1,-1,2021-08-07 11:41:06,634656
-2,-4,-3,-5,0,0,0,0,2021-08-07 11:41:06,650657
-3,-1,1,2,-2,-2,-1,-3,2021-08-07 11:41:06,650657
-5,-8,-7,-6,-9,-8,-4,-3,2021-08-07 11:41:06,650657
3,3,3,9,9,5,2,3,2021-08-07 11:41:06,666657
-1,1,-2,4,2,-1,0,0,2021-08-07 11:41:06,666657
-6,-5,-3,4,-1,-2,-1,-2,2021-08-07 11:41:06,666657
7,9,9,6,2,4,3,5,2021-08-07 11:41:06,666657
2,5,5,5,-1,2,3,2,2021-08-07 11:41:06,666657
-2,-1,1,2,8,2,0,0,2021-08-07 11:41:06,666657
-6,-9,-13,-20,-22,-13,-5,-4,2021-08-07 11:41:06,666657
-3,-7,-4,0,10,3,-2,-1,2021-08-07 11:41:06,698655
2,2,1,0,0,0,1,1,2021-08-07 11:41:06,698655
-1,2,0,4,2,1,0,1,2021-08-07 11:41:06,698655
-3,0,-1,-2,-2,-1,-2,-3,2021-08-07 11:41:06,698655
4,6,7,5,3,3,1,2,2021-08-07 11:41:06,730658
-7,-7,-12,-12,-7,-6,-4,-3,2021-08-07 11:41:06,746657
0,1,3,5,3,3,1,-1,2021-08-07 11:41:06,746657
7,8,6,6,7,6,5,4,2021-08-07 11:41:06,746657
-6,-8,-11,-13,-10,-7,-5,-3,2021-08-07 11:41:06,746657
-2,-3,0,6,-1,-1,-2,-3,2021-08-07 11:41:06,746657
-9,-13,-14,-15,-16,-14,-8,-5,2021-08-07 11:41:06,746657
1,0,0,-7,-3,-3,-3,0,2021-08-07 11:41:06,746657
9,12,12,22,15,11,7,4,2021-08-07 11:41:06,762657
1,1,1,0,7,7,4,2,2021-08-07 11:41:06,762657
-4,-5,-10,-19,-17,-9,-5,-3,2021-08-07 11:41:06,762657
2,2,4,10,0,-2,0,2,2021-08-07 11:41:06,762657
-9,-7,-9,-8,-13,-10,-8,-5,2021-08-07 11:41:06,778657
-2,-3,-5,-15,-12,-7,-3,-3,2021-08-07 11:41:06,778657
6,5,9,28,33,16,8,5,2021-08-07 11:41:06,778657
1,1,2,2,6,5,3,3,2021-08-07 11:41:06,778657
2,1,-1,-4,-7,-1,0,1,2021-08-07 11:41:06,794656
-2,-3,-2,-1,-2,-1,-3,-2,2021-08-07 11:41:06,810657
-4,-1,0,-5,1,1,0,-1,2021-08-07 11:41:06,826657
-5,-4,-3,-2,-3,-4,-2,-2,2021-08-07 11:41:06,842656
-1,1,-2,-4,0,0,1,-2,2021-08-07 11:41:06,858656
-2,-2,-4,-7,-9,-8,-2,-2,2021-08-07 11:41:06,874655
-3,-4,-6,-11,-3,1,-2,0,2021-08-07 11:41:06,890655
-1,-2,0,9,7,2,0,-3,2021-08-07 11:41:06,890655
1,2,4,2,0,1,0,1,2021-08-07 11:41:06,906656
3,5,6,4,3,3,0,0,2021-08-07 11:41:06,906656
-4,-5,-8,-11,-12,-5,-2,-2,2021-08-07 11:41:06,906656
-5,-6,-4,-2,-4,-4,-2,-4,2021-08-07 11:41:06,906656
-1,-2,-2,-3,-4,-4,0,0,2021-08-07 11:41:06,906656
3,3,5,13,15,5,4,2,2021-08-07 11:41:06,906656
4,1,3,6,0,-1,0,0,2021-08-07 11:41:06,906656
-3,-1,-1,-4,1,1,-1,-2,2021-08-07 11:41:06,906656
-4,-5,-6,-6,-5,-4,-3,-4,2021-08-07 11:41:06,906656
-8,-8,-7,-6,-6,-7,-6,-6,2021-08-07 11:41:06,907657
11,15,12,14,6,5,7,9,2021-08-07 11:41:06,907657
0,2,-1,-10,-5,-2,-1,-1,2021-08-07 11:41:06,907657
-3,-6,-8,-10,-8,-6,-5,-4,2021-08-07 11:41:06,907657
-2,-3,-5,-14,-5,-2,-1,0,2021-08-07 11:41:06,907657
-2,-2,1,6,3,2,-1,-4,2021-08-07 11:41:06,936657
1,-2,4,13,9,4,1,3,2021-08-07 11:41:06,952657
-4,-2,-1,2,2,1,1,-1,2021-08-07 11:41:06,952657
-2,-2,-1,-2,0,0,1,-3,2021-08-07 11:41:06,952657
-6,-6,-2,-4,-11,-7,-3,-6,2021-08-07 11:41:06,967657
2,4,3,0,3,2,0,0,2021-08-07 11:41:06,967657
-6,-5,-4,-7,-7,-7,-7,-6,2021-08-07 11:41:06,967657
6,8,7,9,13,7,3,6,2021-08-07 11:41:06,967657
2,-1,-1,1,5,-1,0,2,2021-08-07 11:41:06,968657
-1,-1,-3,-2,-2,4,7,2,2021-08-07 11:41:06,968657
0,-2,-4,-9,-7,1,2,2,2021-08-07 11:41:06,968657
1,0,1,1,1,-2,-4,-1,2021-08-07 11:41:06,968657
0,2,-1,-5,-5,-6,-8,-3,2021-08-07 11:41:06,968657
-7,-11,-7,-1,-3,-8,-10,-8,2021-08-07 11:41:06,968657
0,2,-1,-1,-1,0,1,2,2021-08-07 11:41:06,983659
3,3,0,-1,-7,2,5,4,2021-08-07 11:41:06,983659
-2,-1,1,7,8,3,3,0,2021-08-07 11:41:06,983659
0,0,-3,-6,-4,-3,-3,-1,2021-08-07 11:41:06,983659
0,1,3,3,5,2,2,0,2021-08-07 11:41:06,999657
-2,-1,0,-1,-2,-3,-2,-3,2021-08-07 11:41:06,999657
-3,-3,-1,-7,-6,-3,-1,-2,2021-08-07 11:41:07,015656
-1,-1,-1,-2,-1,0,-1,-1,2021-08-07 11:41:07,031657
-2,-3,-2,4,1,-2,-2,-2,2021-08-07 11:41:07,031657
-2,-1,-4,-3,-1,-1,-2,0,2021-08-07 11:41:07,047656
0,-1,-1,-4,-3,-1,-3,-1,2021-08-07 11:41:07,047656
2,4,2,-1,2,2,1,1,2021-08-07 11:41:07,047656
1,3,8,19,13,5,0,-1,2021-08-07 11:41:07,047656
1,0,2,6,2,2,2,1,2021-08-07 11:41:07,047656
-10,-13,-20,-31,-31,-22,-10,-7,2021-08-07 11:41:07,048657
-1,-3,-5,-10,-6,-3,-3,-2,2021-08-07 11:41:07,048657
2,1,5,9,11,5,2,0,2021-08-07 11:41:07,063655
4,2,8,14,18,12,4,1,2021-08-07 11:41:07,079657
0,-1,0,4,-5,-7,-4,-3,2021-08-07 11:41:07,079657
-4,-7,-10,-13,-17,-9,-5,-4,2021-08-07 11:41:07,079657
1,2,1,-2,-5,-3,-2,0,2021-08-07 11:41:07,079657
1,1,4,8,7,7,2,1,2021-08-07 11:41:07,079657
1,-1,-5,-8,-5,-1,3,2,2021-08-07 11:41:07,079657
1,0,3,13,12,3,0,-1,2021-08-07 11:41:07,079657
-5,-5,-3,-8,-7,-2,-3,-2,2021-08-07 11:41:07,111658
1,6,4,1,1,1,0,2,2021-08-07 11:41:07,111658
2,3,4,8,9,6,2,1,2021-08-07 11:41:07,111658
-2,0,-2,-9,-5,-4,1,2,2021-08-07 11:41:07,111658
-3,-3,-5,-5,-9,-7,-5,-2,2021-08-07 11:41:07,112658
-6,-9,-9,-12,-14,-11,-6,-5,2021-08-07 11:41:07,112658
2,3,1,3,5,5,1,-1,2021-08-07 11:41:07,127656
2,0,1,1,1,0,0,1,2021-08-07 11:41:07,127656
-8,-10,-11,-18,-7,-5,-4,-5,2021-08-07 11:41:07,143658
5,3,4,7,0,-1,2,3,2021-08-07 11:41:07,143658
2,1,4,7,9,6,1,-1,2021-08-07 11:41:07,143658
2,4,3,5,4,4,2,1,2021-08-07 11:41:07,143658
-5,-5,-8,-15,-17,-9,-5,-4,2021-08-07 11:41:07,159657
-1,-2,-2,1,10,2,1,0,2021-08-07 11:41:07,175657
-1,2,5,11,10,4,2,0,2021-08-07 11:41:07,191656
-1,-2,0,0,-3,-2,-2,-2,2021-08-07 11:41:07,191656
-2,-6,-6,-8,-8,-5,-2,-1,2021-08-07 11:41:07,191656
-1,0,-4,-18,-14,-4,-2,0,2021-08-07 11:41:07,191656
3,2,6,11,10,7,3,3,2021-08-07 11:41:07,191656
-3,-5,-3,-3,-3,-2,-3,-4,2021-08-07 11:41:07,192657
0,4,2,3,1,1,-1,0,2021-08-07 11:41:07,192657
-1,-1,-1,-1,-4,-4,-3,0,2021-08-07 11:41:07,192657
-2,-2,-4,-7,-9,-4,-1,1,2021-08-07 11:41:07,192657
1,0,1,1,3,2,-1,-1,2021-08-07 11:41:07,192657
-1,-3,0,2,6,2,0,-1,2021-08-07 11:41:07,223655
-6,-8,-7,-5,-5,-5,-5,-6,2021-08-07 11:41:07,239655
11,13,12,13,12,6,5,7,2021-08-07 11:41:07,254655
-4,-4,-7,-13,-16,-10,-4,-2,2021-08-07 11:41:07,254655
0,-2,-8,-15,-7,0,1,-1,2021-08-07 11:41:07,269657
0,1,3,9,4,2,0,-1,2021-08-07 11:41:07,269657
-7,-10,-9,-6,-6,-6,-4,-6,2021-08-07 11:41:07,269657
2,5,4,2,6,3,0,1,2021-08-07 11:41:07,269657
5,4,3,3,2,1,1,1,2021-08-07 11:41:07,269657
-2,-4,-1,1,-1,1,-1,-1,2021-08-07 11:41:07,269657
-1,-1,2,2,7,3,0,-1,2021-08-07 11:41:07,269657
-2,-3,-5,-3,-3,-5,-2,-1,2021-08-07 11:41:07,270657
-1,0,-1,-4,-8,-4,-3,0,2021-08-07 11:41:07,285656
-1,1,-2,-3,-3,-2,-1,1,2021-08-07 11:41:07,285656
-4,-4,-4,-7,-5,-2,-2,0,2021-08-07 11:41:07,285656
2,4,6,11,9,6,2,2,2021-08-07 11:41:07,285656
-2,-4,-3,1,1,1,2,-2,2021-08-07 11:41:07,301657
-2,-1,-6,-17,-17,-7,-3,1,2021-08-07 11:41:07,301657
9,12,17,36,35,18,8,6,2021-08-07 11:41:07,301657
-3,-2,0,4,3,1,0,-1,2021-08-07 11:41:07,301657
0,-1,1,4,7,1,0,0,2021-08-07 11:41:07,317656
-2,-4,-3,-3,-7,-3,-2,-2,2021-08-07 11:41:07,332657
-6,-6,-7,-12,-8,-5,-4,-4,2021-08-07 11:41:07,348655
-3,-2,-8,-12,-11,-6,-1,0,2021-08-07 11:41:07,348655
-2,-1,-1,-1,0,-1,-1,-2,2021-08-07 11:41:07,348655
-5,-5,-5,-2,3,-1,-3,-3,2021-08-07 11:41:07,348655
-3,-4,-4,-11,-12,-3,-5,-2,2021-08-07 11:41:07,364657
7,8,16,24,28,17,8,6,2021-08-07 11:41:07,380659
1,0,2,5,1,-1,0,-1,2021-08-07 11:41:07,380659
-2,-3,-3,-3,-2,-3,0,-3,2021-08-07 11:41:07,380659
-5,-3,-4,-10,-11,-7,-3,-3,2021-08-07 11:41:07,380659
-4,-5,-7,-8,-8,-6,-3,-4,2021-08-07 11:41:07,380659
-1,-1,-1,-2,-4,-2,-1,-2,2021-08-07 11:41:07,380659
2,2,4,5,7,5,3,0,2021-08-07 11:41:07,381658
3,3,-1,-8,-8,-5,-1,0,2021-08-07 11:41:07,396657
-3,-1,-1,2,-1,1,-2,-3,2021-08-07 11:41:07,396657
-4,-3,-2,7,8,0,-2,-2,2021-08-07 11:41:07,396657
3,4,-2,-5,-7,-4,0,2,2021-08-07 11:41:07,396657
-1,-2,-3,-6,-8,-4,-2,0,2021-08-07 11:41:07,396657
-2,-3,-5,-16,-14,-4,-1,-2,2021-08-07 11:41:07,396657
-3,0,2,9,12,5,1,-1,2021-08-07 11:41:07,427656
-1,-2,1,5,-1,-2,-2,-1,2021-08-07 11:41:07,427656
-1,-3,-2,0,3,1,0,0,2021-08-07 11:41:07,427656
3,3,3,3,3,2,0,0,2021-08-07 11:41:07,427656
1,-2,-1,-4,-7,-3,-2,-2,2021-08-07 11:41:07,443655
-3,-3,-3,-7,-6,-4,-3,-2,2021-08-07 11:41:07,443655
0,-1,-2,-2,-1,-1,0,0,2021-08-07 11:41:07,443655
-2,-2,-2,1,-3,-2,-3,-2,2021-08-07 11:41:07,443655
2,2,1,-2,1,-1,1,1,2021-08-07 11:41:07,459657
-1,-2,-2,1,-1,-1,-3,0,2021-08-07 11:41:07,475656
-3,-3,-3,1,-4,-2,-2,-2,2021-08-07 11:41:07,475656
1,0,2,6,8,5,5,1,2021-08-07 11:41:07,475656
4,3,0,-4,1,6,5,4,2021-08-07 11:41:07,491656
-1,-1,-1,-5,-4,-4,-6,-4,2021-08-07 11:41:07,491656
-12,-11,-9,-6,-13,-17,-16,-13,2021-08-07 11:41:07,491656
3,4,2,0,6,0,-3,0,2021-08-07 11:41:07,491656
1,-1,0,8,4,3,3,1,2021-08-07 11:41:07,491656
1,0,0,-1,-1,5,6,2,2021-08-07 11:41:07,491656
1,0,-3,-6,-5,-3,-4,-1,2021-08-07 11:41:07,507655
-8,-4,-4,-5,-9,-7,-7,-5,2021-08-07 11:41:07,507655
0,1,2,0,1,1,-1,0,2021-08-07 11:41:07,523657
-2,0,-3,-3,-1,-1,2,1,2021-08-07 11:41:07,523657
1,3,2,2,1,4,3,3,2021-08-07 11:41:07,523657
2,1,1,1,2,2,1,1,2021-08-07 11:41:07,523657
-1,-1,-1,-2,-3,-2,0,-1,2021-08-07 11:41:07,554655
-4,-3,-4,-7,-6,-4,-3,-4,2021-08-07 11:41:07,554655
1,2,4,5,12,7,3,3,2021-08-07 11:41:07,554655
0,1,1,1,-5,-2,-1,-2,2021-08-07 11:41:07,554655
-3,-3,-1,1,1,-2,-1,-2,2021-08-07 11:41:07,554655
0,-1,-1,-1,-5,-5,-4,-1,2021-08-07 11:41:07,554655
-3,-5,-7,-3,3,1,1,-4,2021-08-07 11:41:07,570658
-2,-2,-2,-6,-7,-3,-2,-2,2021-08-07 11:41:07,570658
-2,0,0,2,0,-2,-2,-1,2021-08-07 11:41:07,586657
1,2,5,6,3,2,-1,-1,2021-08-07 11:41:07,586657
0,0,-2,-1,6,4,2,1,2021-08-07 11:41:07,594657
-1,-2,-1,4,2,0,0,1,2021-08-07 11:41:07,595657
1,2,1,-2,0,-1,-1,0,2021-08-07 11:41:07,595657
-3,-4,-3,-3,-1,-1,-2,0,2021-08-07 11:41:07,595657
-3,-3,-1,-4,-8,-4,-3,-3,2021-08-07 11:41:07,602657
-2,-1,-1,-1,-2,0,-2,-1,2021-08-07 11:41:07,602657
1,1,1,1,3,1,1,1,2021-08-07 11:41:07,618655
0,0,0,1,1,1,1,0,2021-08-07 11:41:07,634656
3,3,3,2,-5,-2,-1,1,2021-08-07 11:41:07,634656
-1,-2,-4,-9,-2,0,1,0,2021-08-07 11:41:07,634656
-1,-1,-1,5,3,1,-2,-1,2021-08-07 11:41:07,634656
-2,-1,-1,-2,1,0,0,0,2021-08-07 11:41:07,634656
-3,-3,-3,-5,-4,-3,-1,-1,2021-08-07 11:41:07,635657
-3,-4,-4,-7,-14,-7,-4,-2,2021-08-07 11:41:07,635657
4,4,4,4,5,2,1,1,2021-08-07 11:41:07,665657
1,0,-1,2,6,4,2,2,2021-08-07 11:41:07,665657
-1,-2,-3,-6,-7,-5,-2,-1,2021-08-07 11:41:07,665657
-1,-3,-3,0,3,-1,-2,-2,2021-08-07 11:41:07,665657
-3,-3,-1,-3,1,1,-1,-2,2021-08-07 11:41:07,681656
1,2,-1,5,4,1,0,0,2021-08-07 11:41:07,681656
0,0,-1,-4,-9,-4,-1,-1,2021-08-07 11:41:07,681656
4,2,6,9,9,6,2,4,2021-08-07 11:41:07,681656
1,3,2,15,10,5,2,1,2021-08-07 11:41:07,713656
-2,-6,-12,-20,-18,-9,-3,-2,2021-08-07 11:41:07,729656
-3,-5,-6,-10,-9,-5,-3,-1,2021-08-07 11:41:07,729656
-6,-4,-5,-9,-7,-6,-5,-4,2021-08-07 11:41:07,729656
-2,1,-1,0,2,1,0,-2,2021-08-07 11:41:07,729656
-1,2,7,16,9,4,-1,-2,2021-08-07 11:41:07,729656
0,-1,1,-2,7,0,0,-1,2021-08-07 11:41:07,729656
5,7,9,18,10,3,2,2,2021-08-07 11:41:07,729656
1,0,-1,-8,-7,-3,-1,2,2021-08-07 11:41:07,730658
-1,1,-3,-3,-3,-2,-1,-1,2021-08-07 11:41:07,730658
-2,-6,-6,-5,-4,-3,-2,-3,2021-08-07 11:41:07,745659
-5,-6,-6,-8,-4,-4,-1,-3,2021-08-07 11:41:07,745659
-4,-4,-3,-8,-9,-5,-3,-4,2021-08-07 11:41:07,761656
0,-1,2,2,2,2,0,1,2021-08-07 11:41:07,761656
-1,2,3,6,4,2,2,-2,2021-08-07 11:41:07,761656
2,0,-1,-1,0,0,0,0,2021-08-07 11:41:07,761656
0,-1,-3,-3,-12,-6,-3,-1,2021-08-07 11:41:07,793655
-2,-4,-4,0,9,-1,-2,-2,2021-08-07 11:41:07,793655
0,1,-1,-1,-7,-2,0,0,2021-08-07 11:41:07,793655
-1,-1,0,0,8,3,0,-2,2021-08-07 11:41:07,793655
0,-1,-2,-2,-3,-1,2,1,2021-08-07 11:41:07,793655
-1,0,1,3,-4,-2,-1,-2,2021-08-07 11:41:07,793655
1,0,-1,4,5,2,0,-1,2021-08-07 11:41:07,808657
-5,-3,-4,-14,-16,-7,-3,-4,2021-08-07 11:41:07,808657
0,0,5,12,9,3,-1,-2,2021-08-07 11:41:07,824657
4,4,8,12,17,10,6,3,2021-08-07 11:41:07,840657
-8,-10,-15,-27,-37,-17,-9,-5,2021-08-07 11:41:07,840657
-2,-2,-6,-12,-9,-5,-4,-2,2021-08-07 11:41:07,840657
1,2,2,5,11,4,0,-2,2021-08-07 11:41:07,840657
-2,-2,-1,-6,-6,-2,-3,-2,2021-08-07 11:41:07,840657
0,-2,3,14,13,9,3,1,2021-08-07 11:41:07,840657
1,3,6,14,7,5,2,1,2021-08-07 11:41:07,841657
-5,-3,-6,-8,-5,-3,0,-1,2021-08-07 11:41:07,855657
-1,-1,0,0,-7,-6,-2,-1,2021-08-07 11:41:07,855657
-3,-2,-2,-5,-3,-5,-4,-1,2021-08-07 11:41:07,871655
3,2,1,3,2,3,-1,1,2021-08-07 11:41:07,871655
2,3,3,3,5,3,0,1,2021-08-07 11:41:07,886655
0,0,0,1,-1,0,-1,-3,2021-08-07 11:41:07,902660
-1,0,1,2,4,3,2,1,2021-08-07 11:41:07,918657
-3,-7,-9,-11,-8,-5,-4,-4,2021-08-07 11:41:07,918657
-3,-5,-7,-11,-8,-4,-4,0,2021-08-07 11:41:07,918657
1,1,-2,-11,-12,-5,0,1,2021-08-07 11:41:07,918657
3,6,7,14,16,7,2,1,2021-08-07 11:41:07,918657
1,0,2,6,6,5,3,0,2021-08-07 11:41:07,919657
-3,-6,-6,-8,-11,-7,-5,-6,2021-08-07 11:41:07,919657
-4,-4,-6,-8,-9,-4,-4,-4,2021-08-07 11:41:07,919657
1,2,1,-2,-3,1,2,2,2021-08-07 11:41:07,919657
-2,-2,0,0,3,1,-2,-1,2021-08-07 11:41:07,919657
-1,-2,-4,-2,-6,-5,-3,-3,2021-08-07 11:41:07,950657
0,-2,1,0,-6,-3,-1,0,2021-08-07 11:41:07,965655
6,7,10,26,36,18,7,5,2021-08-07 11:41:07,981659
-3,0,-2,-7,-10,-6,-4,-3,2021-08-07 11:41:07,997655
-3,-3,-3,-6,-5,-1,-2,-3,2021-08-07 11:41:08,013656
-2,-2,-5,-5,-4,-2,-1,-2,2021-08-07 11:41:08,013656
-5,-6,-7,-12,-14,-7,-4,-5,2021-08-07 11:41:08,013656
-2,-5,-7,2,4,1,-1,0,2021-08-07 11:41:08,013656
6,9,9,6,5,4,4,6,2021-08-07 11:41:08,013656
1,-2,-1,0,-2,-1,0,-3,2021-08-07 11:41:08,013656
-4,-2,-3,-8,-7,-5,-4,-2,2021-08-07 11:41:08,013656
-3,-1,-2,1,0,-2,1,-1,2021-08-07 11:41:08,014659
-3,-3,-2,-4,-9,-4,-3,-2,2021-08-07 11:41:08,014659
-1,0,-2,2,6,6,4,2,2021-08-07 11:41:08,014659
0,-2,-3,-3,0,3,2,-3,2021-08-07 11:41:08,014659
3,3,4,11,7,6,-1,2,2021-08-07 11:41:08,014659
-9,-5,-6,-6,-8,-17,-16,-12,2021-08-07 11:41:08,028656
-3,-2,0,3,2,-2,-4,-1,2021-08-07 11:41:08,032656
1,0,0,8,4,2,1,1,2021-08-07 11:41:08,032656
3,3,1,-3,-6,0,5,3,2021-08-07 11:41:08,032656
1,-1,-4,-4,-2,3,4,1,2021-08-07 11:41:08,033658
-1,-2,-4,-5,-2,-2,-3,-3,2021-08-07 11:41:08,033658
3,4,1,-2,-5,-1,-3,1,2021-08-07 11:41:08,044657
-2,-4,-3,-7,-2,0,-1,-1,2021-08-07 11:41:08,044657
2,0,-1,0,0,2,3,4,2021-08-07 11:41:08,076656
0,-1,3,8,8,-1,-5,-3,2021-08-07 11:41:08,076656
-5,-5,-5,-7,-9,-8,-5,-6,2021-08-07 11:41:08,076656
-1,-3,0,0,1,2,1,0,2021-08-07 11:41:08,076656
2,1,-3,-5,-1,0,1,1,2021-08-07 11:41:08,076656
-8,-4,-4,-2,-7,-5,-8,-7,2021-08-07 11:41:08,076656
0,3,3,1,1,-2,-4,-3,2021-08-07 11:41:08,092656
-2,-2,-2,-4,-7,-5,-2,0,2021-08-07 11:41:08,107656
0,-2,0,6,5,4,5,2,2021-08-07 11:41:08,123657
2,0,-1,-3,5,7,3,1,2021-08-07 11:41:08,139659
3,2,2,0,5,4,5,5,2021-08-07 11:41:08,155656
-5,-5,-3,-7,-8,-6,-7,-7,2021-08-07 11:41:08,155656
2,3,5,7,6,0,-1,1,2021-08-07 11:41:08,155656
-2,-3,-4,-4,-8,-9,-4,-3,2021-08-07 11:41:08,155656
0,0,0,1,5,2,-1,0,2021-08-07 11:41:08,155656
0,1,-3,-2,-2,0,4,1,2021-08-07 11:41:08,155656
-3,-4,-3,3,5,2,0,-3,2021-08-07 11:41:08,155656
1,2,0,-3,-7,-1,-1,2,2021-08-07 11:41:08,156657
-1,-2,0,3,-3,0,4,0,2021-08-07 11:41:08,156657
3,2,2,-2,1,2,-2,1,2021-08-07 11:41:08,156657
-2,-1,4,13,13,5,-1,-1,2021-08-07 11:41:08,171656
1,1,2,5,9,4,4,1,2021-08-07 11:41:08,187656
-3,-3,-6,-7,-9,-6,-3,-1,2021-08-07 11:41:08,187656
-3,-4,-1,-2,-7,-8,-6,-5,2021-08-07 11:41:08,187656
-1,-3,-8,-17,-13,-4,0,0,2021-08-07 11:41:08,187656
8,10,9,15,18,12,8,7,2021-08-07 11:41:08,187656
-4,-4,-4,-7,-10,-6,-4,-5,2021-08-07 11:41:08,187656
-1,-2,1,6,5,2,-2,-1,2021-08-07 11:41:08,187656
-4,-2,-3,-5,-2,-4,0,-3,2021-08-07 11:41:08,203656
-1,-3,-1,-3,1,1,2,1,2021-08-07 11:41:08,203656
-4,-5,-5,-7,-7,-6,-6,-4,2021-08-07 11:41:08,203656
-2,1,0,0,0,-1,0,-1,2021-08-07 11:41:08,203656
5,5,6,12,9,7,3,4,2021-08-07 11:41:08,235657
-1,0,-1,-2,-4,-1,0,0,2021-08-07 11:41:08,250656
-3,-4,-4,-5,-7,-6,-3,-3,2021-08-07 11:41:08,250656
-4,-6,-7,-14,-11,-8,-4,-4,2021-08-07 11:41:08,250656
0,2,5,5,5,1,1,1,2021-08-07 11:41:08,266655
-2,-1,-1,0,-3,-1,-2,-2,2021-08-07 11:41:08,266655
0,1,3,3,5,2,1,0,2021-08-07 11:41:08,266655
0,0,-3,-3,-4,-1,0,1,2021-08-07 11:41:08,266655
-1,-1,-4,-8,0,1,0,0,2021-08-07 11:41:08,266655
-2,-2,-1,2,4,1,-2,-2,2021-08-07 11:41:08,266655
0,2,1,0,-2,1,1,2,2021-08-07 11:41:08,281656
-1,1,0,2,7,1,1,0,2021-08-07 11:41:08,297657
-4,-6,-6,-10,-14,-9,-5,-3,2021-08-07 11:41:08,313657
-3,-2,-5,-12,-10,-4,-2,-2,2021-08-07 11:41:08,313657
1,0,1,6,11,3,1,1,2021-08-07 11:41:08,313657
-3,-3,-3,-6,-6,-3,-3,-3,2021-08-07 11:41:08,313657
0,1,-2,-9,-7,-3,-1,-1,2021-08-07 11:41:08,313657
2,0,1,10,12,3,0,1,2021-08-07 11:41:08,313657
0,-3,0,3,3,1,0,0,2021-08-07 11:41:08,314658
-1,2,4,10,7,3,1,-1,2021-08-07 11:41:08,314658
0,-2,0,-2,-5,-1,0,-1,2021-08-07 11:41:08,329658
-2,-3,-5,-10,-9,-4,-2,-4,2021-08-07 11:41:08,329658
0,-2,-2,-1,1,-1,-2,-1,2021-08-07 11:41:08,329658
0,-2,-2,-1,-2,-3,-1,-2,2021-08-07 11:41:08,329658
-2,-2,-3,1,4,2,-2,-2,2021-08-07 11:41:08,345657
-4,-2,-4,-10,-9,-4,-2,-3,2021-08-07 11:41:08,345657
-1,-2,-2,1,-7,0,0,0,2021-08-07 11:41:08,345657
2,3,0,1,9,4,1,1,2021-08-07 11:41:08,345657
2,1,5,13,10,3,-1,-2,2021-08-07 11:41:08,376657
0,0,-1,2,0,0,2,0,2021-08-07 11:41:08,376657
-4,-3,-5,-8,-9,-5,-4,-3,2021-08-07 11:41:08,376657
0,1,-2,-2,-2,0,0,0,2021-08-07 11:41:08,376657
-3,-2,-3,-2,2,2,-1,-2,2021-08-07 11:41:08,376657
3,2,4,3,2,0,0,1,2021-08-07 11:41:08,376657
-3,-5,-3,-8,-3,-4,-1,-3,2021-08-07 11:41:08,392657
-3,-4,-6,-8,-8,-4,-3,-1,2021-08-07 11:41:08,392657
1,-1,-1,3,3,1,0,0,2021-08-07 11:41:08,423657
0,0,1,4,2,1,0,1,2021-08-07 11:41:08,423657
2,1,1,3,4,2,0,-1,2021-08-07 11:41:08,439655
-1,0,-1,0,-7,-3,0,-1,2021-08-07 11:41:08,439655
-4,-4,-8,-17,-26,-14,-7,-3,2021-08-07 11:41:08,439655
1,0,5,20,27,12,4,2,2021-08-07 11:41:08,439655
4,4,2,5,5,3,1,3,2021-08-07 11:41:08,439655
1,1,1,-2,-7,-5,-2,0,2021-08-07 11:41:08,439655
-5,-5,-7,-24,-53,-30,-15,-6,2021-08-07 11:41:08,440657
2,1,3,13,31,15,9,5,2021-08-07 11:41:08,440657
0,1,2,12,30,20,7,0,2021-08-07 11:41:08,440657
1,-1,0,12,25,17,6,3,2021-08-07 11:41:08,440657
-2,-1,2,7,14,9,5,0,2021-08-07 11:41:08,470657
-5,-3,-4,-16,-32,-19,-8,-5,2021-08-07 11:41:08,479655
-3,-1,0,-6,-15,-13,-7,-5,2021-08-07 11:41:08,479655
-2,-1,0,-8,-18,-12,-7,-2,2021-08-07 11:41:08,479655
-4,-5,-6,-7,-3,-3,-3,-3,2021-08-07 11:41:08,480657
-1,1,-3,-7,-7,-5,-2,-1,2021-08-07 11:41:08,480657
2,2,1,1,1,1,1,2,2021-08-07 11:41:08,500657
-2,-4,-5,-8,-7,-6,-2,-2,2021-08-07 11:41:08,516656
11,12,7,13,19,13,8,8,2021-08-07 11:41:08,532657
-3,-4,-6,-9,-12,-4,-3,-3,2021-08-07 11:41:08,547655
-3,-5,-6,-8,-4,-3,-4,-4,2021-08-07 11:41:08,547655
-1,-2,1,5,7,2,0,-3,2021-08-07 11:41:08,547655
-2,-5,0,0,6,2,2,-1,2021-08-07 11:41:08,547655
1,1,-1,1,0,0,-1,0,2021-08-07 11:41:08,547655
0,1,0,1,-9,-5,-3,-1,2021-08-07 11:41:08,548657
-5,-6,-8,-15,-13,-8,-5,-5,2021-08-07 11:41:08,548657
7,8,15,40,55,25,8,6,2021-08-07 11:41:08,548657
-2,-4,-6,-11,-13,-8,-3,-4,2021-08-07 11:41:08,548657
0,-1,0,3,9,2,2,0,2021-08-07 11:41:08,548657
0,2,0,-3,-5,-3,-1,1,2021-08-07 11:41:08,548657
1,0,0,-2,-2,4,6,2,2021-08-07 11:41:08,579657
-3,-3,-3,-9,-10,-1,0,-1,2021-08-07 11:41:08,579657
1,0,0,4,1,-1,-5,-1,2021-08-07 11:41:08,579657
-9,-9,-5,-3,-9,-17,-17,-12,2021-08-07 11:41:08,579657
-2,0,-2,-10,-13,-8,-6,-4,2021-08-07 11:41:08,579657
-1,1,2,6,7,4,2,2,2021-08-07 11:41:08,579657
6,8,3,-2,-6,2,7,5,2021-08-07 11:41:08,580658
3,2,2,2,3,6,4,4,2021-08-07 11:41:08,580658
-5,-7,-8,-8,-5,-4,-1,-2,2021-08-07 11:41:08,626660
1,-2,1,1,6,3,2,0,2021-08-07 11:41:08,641657
-2,2,1,-1,-6,-3,-5,-2,2021-08-07 11:41:08,641657
1,3,3,9,8,4,1,2,2021-08-07 11:41:08,641657
-2,-2,-4,-4,-5,-2,-3,-3,2021-08-07 11:41:08,641657
-3,-2,-3,-1,15,2,-1,-2,2021-08-07 11:41:08,641657
-3,-3,-1,-5,-2,-1,-3,-3,2021-08-07 11:41:08,641657
5,3,7,33,30,12,7,3,2021-08-07 11:41:08,641657
-3,-1,-5,-15,-22,-6,-1,-1,2021-08-07 11:41:08,641657
-2,-3,-6,-15,-29,-13,-6,-4,2021-08-07 11:41:08,642657
-4,-5,1,6,13,2,-6,-3,2021-08-07 11:41:08,642657
1,1,-2,-8,-8,0,5,3,2021-08-07 11:41:08,642657
2,2,1,5,13,5,-2,0,2021-08-07 11:41:08,657657
-3,-2,-1,-1,-6,-11,-11,-7,2021-08-07 11:41:08,673658
-1,-2,-5,-12,-13,-4,3,1,2021-08-07 11:41:08,689655
2,3,3,8,14,7,4,1,2021-08-07 11:41:08,689655
-4,-4,-2,-1,-4,-11,-10,-5,2021-08-07 11:41:08,689655
-5,-2,-3,-7,-7,-4,-6,-5,2021-08-07 11:41:08,689655
-3,-5,-7,-7,-9,-5,-2,-2,2021-08-07 11:41:08,689655
-2,-2,-2,-5,-5,3,4,1,2021-08-07 11:41:08,689655
4,4,1,-1,1,7,7,5,2021-08-07 11:41:08,705657
-1,0,1,4,-4,-1,-1,0,2021-08-07 11:41:08,721657
1,0,-6,-18,-9,-1,2,1,2021-08-07 11:41:08,721657
2,4,11,26,30,10,1,2,2021-08-07 11:41:08,721657
0,-1,-1,2,-5,-7,-2,-5,2021-08-07 11:41:08,721657
-2,-3,-5,-12,-18,-5,-1,-2,2021-08-07 11:41:08,721657
-2,-3,-6,-2,14,4,2,-3,2021-08-07 11:41:08,721657
-1,-3,-6,-8,-2,-2,-4,-4,2021-08-07 11:41:08,721657
-1,-2,2,5,3,0,-1,0,2021-08-07 11:41:08,752656
2,0,2,5,7,1,3,2,2021-08-07 11:41:08,752656
-1,1,-3,-8,-21,-10,-3,0,2021-08-07 11:41:08,752656
-1,-1,-3,-10,-13,-5,-3,-1,2021-08-07 11:41:08,752656
-2,0,-2,-3,-4,-1,-2,-1,2021-08-07 11:41:08,768657
4,2,2,7,24,11,4,6,2021-08-07 11:41:08,768657
0,-1,3,7,1,-2,-2,0,2021-08-07 11:41:08,768657
0,2,2,4,0,-2,-1,-1,2021-08-07 11:41:08,768657
-2,-3,-1,-2,-11,-1,0,-1,2021-08-07 11:41:08,784657
-1,-3,-6,-8,-5,-3,-1,-1,2021-08-07 11:41:08,784657
-3,-2,2,5,6,1,-1,-1,2021-08-07 11:41:08,784657
-2,-2,-3,-3,-11,-3,-1,-1,2021-08-07 11:41:08,784657
4,3,5,5,11,6,4,3,2021-08-07 11:41:08,815657
3,3,5,9,10,4,4,2,2021-08-07 11:41:08,815657
-4,-1,-2,0,-5,-3,-2,-3,2021-08-07 11:41:08,815657
-3,-2,-4,-11,-15,-7,-2,-2,2021-08-07 11:41:08,815657
-4,-3,-5,-13,-19,-11,-5,-4,2021-08-07 11:41:08,831657
-2,-4,-2,7,21,11,2,-1,2021-08-07 11:41:08,831657
4,7,5,7,13,6,4,5,2021-08-07 11:41:08,847658
0,-2,-2,-6,-8,-3,-4,-2,2021-08-07 11:41:08,847658
-1,-2,0,-3,1,1,-2,-2,2021-08-07 11:41:08,847658
2,-1,1,1,-12,-6,-1,0,2021-08-07 11:41:08,847658
-7,-7,-7,-9,-11,-6,-3,-4,2021-08-07 11:41:08,863655
-1,-3,-5,-13,-12,-7,-5,-1,2021-08-07 11:41:08,863655
-1,-1,-2,0,1,-2,0,1,2021-08-07 11:41:08,863655
-1,-1,-2,-1,3,0,-2,-2,2021-08-07 11:41:08,863655
4,4,9,25,17,8,3,1,2021-08-07 11:41:08,863655
-1,-1,-4,-4,-1,-1,1,-3,2021-08-07 11:41:08,863655
-2,0,-1,2,-2,-1,-2,-1,2021-08-07 11:41:08,895657
-1,0,-1,-8,-12,-3,-3,1,2021-08-07 11:41:08,911657
-3,-5,-9,-13,-15,-9,-3,-4,2021-08-07 11:41:08,911657
5,8,9,6,19,8,5,5,2021-08-07 11:41:08,926656
-4,-4,-4,-2,-8,-4,-2,-4,2021-08-07 11:41:08,926656
-4,-3,-7,-18,-16,-5,-4,-3,2021-08-07 11:41:08,926656
3,3,8,23,26,10,3,3,2021-08-07 11:41:08,926656
-3,-5,-3,-3,-5,-3,-3,-2,2021-08-07 11:41:08,926656
-2,-3,-5,-10,-4,-3,-2,-1,2021-08-07 11:41:08,927658
0,0,1,10,5,2,0,-1,2021-08-07 11:41:08,927658
-1,-1,-4,-10,-10,-5,-3,-2,2021-08-07 11:41:08,927658
-1,-1,-2,2,6,3,1,-2,2021-08-07 11:41:08,927658
0,-1,0,1,2,0,-1,1,2021-08-07 11:41:08,958656
-2,-1,1,-1,-7,-5,-2,-2,2021-08-07 11:41:08,958656
-1,-3,-2,-7,-10,-3,-2,-2,2021-08-07 11:41:08,958656
0,0,-1,4,7,1,0,0,2021-08-07 11:41:08,958656
-1,-2,0,4,15,6,0,-2,2021-08-07 11:41:08,958656
1,0,-1,3,8,1,1,0,2021-08-07 11:41:08,958656
1,1,4,2,5,1,2,1,2021-08-07 11:41:08,990659
-1,-2,-6,-7,-17,-8,-1,-1,2021-08-07 11:41:08,990659
-2,-2,-5,-6,-7,-5,-2,-1,2021-08-07 11:41:08,990659
-6,-4,-6,-10,-8,-5,-4,-3,2021-08-07 11:41:08,990659
3,3,4,8,8,7,3,3,2021-08-07 11:41:08,991659
0,1,4,7,-1,0,-1,0,2021-08-07 11:41:08,991659
0,-1,-2,-9,-10,-6,0,0,2021-08-07 11:41:09,006656
-1,-2,-3,-3,0,-4,-2,-2,2021-08-07 11:41:09,006656
-3,-2,-5,-7,0,0,-2,-3,2021-08-07 11:41:09,006656
2,3,3,2,8,4,1,1,2021-08-07 11:41:09,006656
2,3,6,11,8,3,1,1,2021-08-07 11:41:09,022657
-1,-2,-2,-3,-11,-4,-1,-1,2021-08-07 11:41:09,022657
-3,-6,-7,-10,-4,-5,-3,-3,2021-08-07 11:41:09,022657
0,2,3,11,13,5,3,1,2021-08-07 11:41:09,022657
-2,-2,-3,-8,-7,-4,-2,-1,2021-08-07 11:41:09,052657
2,1,1,3,2,2,2,0,2021-08-07 11:41:09,052657
-3,-5,-4,-8,-11,-5,-4,-2,2021-08-07 11:41:09,052657
0,1,3,3,1,1,0,-1,2021-08-07 11:41:09,052657
2,-1,-1,-10,-2,-2,1,1,2021-08-07 11:41:09,068655
2,0,-1,1,-1,-1,0,1,2021-08-07 11:41:09,083657
-2,-3,-2,-3,-9,-4,-1,-3,2021-08-07 11:41:09,083657
-4,-6,-6,-7,-2,-3,-4,-2,2021-08-07 11:41:09,083657
-3,-3,-3,-2,0,-1,-2,-3,2021-08-07 11:41:09,083657
3,3,5,5,3,3,1,1,2021-08-07 11:41:09,083657
-2,-1,-1,1,-3,-1,0,0,2021-08-07 11:41:09,083657
0,1,0,1,2,1,-1,1,2021-08-07 11:41:09,083657
1,0,-2,-2,-7,-3,-2,-1,2021-08-07 11:41:09,115657
-3,-3,-5,-4,1,0,-2,-2,2021-08-07 11:41:09,115657
-1,0,1,10,13,2,-1,-1,2021-08-07 11:41:09,115657
0,0,0,-1,-7,-2,-2,0,2021-08-07 11:41:09,115657
-4,-4,-4,4,5,2,-1,0,2021-08-07 11:41:09,131656
-5,-6,-8,-18,-27,-11,-5,-3,2021-08-07 11:41:09,147655
-3,-3,-5,-10,-8,-4,-2,1,2021-08-07 11:41:09,147655
3,0,1,4,2,1,0,2,2021-08-07 11:41:09,147655
4,7,7,11,15,10,5,2,2021-08-07 11:41:09,147655
0,-1,1,4,-1,-1,1,-1,2021-08-07 11:41:09,147655
2,2,1,0,1,2,1,1,2021-08-07 11:41:09,147655
-2,-4,0,2,-3,-4,-3,-2,2021-08-07 11:41:09,147655
0,-2,-3,-10,-9,-1,-3,0,2021-08-07 11:41:09,163655
5,6,8,20,26,11,5,3,2021-08-07 11:41:09,163655
-1,-1,-1,8,12,1,-1,-1,2021-08-07 11:41:09,163655
-4,-5,-8,-14,-13,-8,-4,-3,2021-08-07 11:41:09,163655
-5,-5,-4,-3,-8,-6,-1,-3,2021-08-07 11:41:09,195657
3,3,4,5,4,3,1,2,2021-08-07 11:41:09,227657
0,-2,-5,-11,-15,-10,-5,-4,2021-08-07 11:41:09,259657
-5,-6,-7,-16,-22,-9,-5,-4,2021-08-07 11:41:09,259657
3,2,7,23,33,12,6,3,2021-08-07 11:41:09,259657
2,2,1,-1,-2,4,6,4,2021-08-07 11:41:09,259657
-2,-1,-1,4,4,1,-2,-2,2021-08-07 11:41:09,259657
-4,-4,-6,-10,-6,-9,-8,-6,2021-08-07 11:41:09,259657
-7,-6,-6,-4,-6,-8,-6,-5,2021-08-07 11:41:09,259657
-3,-5,-5,-3,-5,-2,0,-2,2021-08-07 11:41:09,259657
5,4,0,-10,-10,-2,0,1,2021-08-07 11:41:09,260658
-1,3,-1,-5,-11,-4,-3,-1,2021-08-07 11:41:09,260658
7,7,7,16,26,22,24,15,2021-08-07 11:41:09,260658
7,7,3,3,3,13,10,8,2021-08-07 11:41:09,260658
2,0,0,-1,-3,-5,-16,-6,2021-08-07 11:41:09,260658
-22,-16,-11,-12,-19,-39,-37,-27,2021-08-07 11:41:09,260658
-6,-6,-5,-10,-13,-10,-9,-3,2021-08-07 11:41:09,260658
0,-2,-1,-1,2,7,13,7,2021-08-07 11:41:09,261657
5,3,-1,-8,-6,12,17,10,2021-08-07 11:41:09,275658
5,4,6,11,16,13,4,2,2021-08-07 11:41:09,275658
-6,-1,3,15,9,-4,-9,-9,2021-08-07 11:41:09,275658
3,6,4,1,-1,-3,-2,-1,2021-08-07 11:41:09,275658
-3,1,0,4,2,2,1,-1,2021-08-07 11:41:09,290655
2,2,-2,-3,-3,3,8,4,2021-08-07 11:41:09,290655
-2,-3,-6,-10,-6,-4,-3,-2,2021-08-07 11:41:09,306656
-5,-5,-5,-6,-3,-5,-7,-4,2021-08-07 11:41:09,306656
-2,-5,-4,-2,1,-1,0,1,2021-08-07 11:41:09,321657
2,3,6,11,12,11,8,4,2021-08-07 11:41:09,321657
8,7,3,-4,-11,-2,-2,2,2021-08-07 11:41:09,321657
-9,-8,-6,-3,-8,-14,-15,-12,2021-08-07 11:41:09,321657
-2,-2,-3,-1,0,-3,-1,-1,2021-08-07 11:41:09,337656
3,0,-3,-2,9,13,13,8,2021-08-07 11:41:09,337656
-1,-3,-3,-18,-32,-9,-4,-4,2021-08-07 11:41:09,337656
-3,0,5,22,33,8,-7,-4,2021-08-07 11:41:09,337656
-7,-5,0,7,10,-7,-5,-8,2021-08-07 11:41:09,352657
2,0,0,4,5,6,5,3,2021-08-07 11:41:09,352657
-2,-2,-2,-7,-15,-8,-4,-2,2021-08-07 11:41:09,367659
-4,-5,-7,-16,-19,-10,-5,-3,2021-08-07 11:41:09,367659
2,0,1,1,1,9,11,6,2021-08-07 11:41:09,368658
6,5,5,7,8,10,5,3,2021-08-07 11:41:09,368658
3,4,5,9,14,-4,-8,-2,2021-08-07 11:41:09,400657
-6,-6,-5,-8,-16,-13,-9,-5,2021-08-07 11:41:09,416656
-1,-1,-2,-7,-1,-2,-3,-2,2021-08-07 11:41:09,416656
2,4,4,-2,-5,0,4,3,2021-08-07 11:41:09,416656
-4,-6,-5,0,4,5,4,-1,2021-08-07 11:41:09,416656
4,5,2,-2,1,3,-1,2,2021-08-07 11:41:09,416656
0,3,3,-1,-8,-4,-2,0,2021-08-07 11:41:09,416656
-2,-4,-4,-4,-3,-3,-2,-2,2021-08-07 11:41:09,416656
-1,-3,-3,-2,-3,-1,-1,-1,2021-08-07 11:41:09,432657
-4,-6,-6,-9,-11,-8,-4,-5,2021-08-07 11:41:09,432657
0,2,4,16,19,10,3,1,2021-08-07 11:41:09,432657
-2,-1,0,-1,-14,-7,-3,-2,2021-08-07 11:41:09,432657
1,1,3,13,28,14,4,4,2021-08-07 11:41:09,448658
-1,-1,-1,0,-8,-4,-1,-2,2021-08-07 11:41:09,464655
-4,-4,-6,-16,-20,-12,-5,-3,2021-08-07 11:41:09,495656
2,0,1,5,23,11,4,2,2021-08-07 11:41:09,511655
-4,-4,-6,-10,-14,-8,-4,-5,2021-08-07 11:41:09,511655
2,4,4,1,0,3,3,2,2021-08-07 11:41:09,511655
1,0,2,2,1,-1,-3,0,2021-08-07 11:41:09,527657
-5,-5,-7,-11,-15,-6,-3,-2,2021-08-07 11:41:09,527657
-1,-1,-2,-8,-10,-3,0,-2,2021-08-07 11:41:09,527657
-3,-3,-4,-4,3,1,0,-2,2021-08-07 11:41:09,527657
0,-1,1,5,3,-2,-2,-2,2021-08-07 11:41:09,527657
0,-1,2,3,3,2,1,0,2021-08-07 11:41:09,527657
3,4,2,0,4,3,3,2,2021-08-07 11:41:09,527657
-1,-1,0,4,-1,-1,0,0,2021-08-07 11:41:09,527657
-4,-3,-5,-1,-4,-3,-3,-3,2021-08-07 11:41:09,527657
-3,-3,-6,-16,-18,-8,-4,-3,2021-08-07 11:41:09,528657
2,4,4,11,8,1,2,3,2021-08-07 11:41:09,528657
2,1,4,9,10,2,2,1,2021-08-07 11:41:09,528657
-4,-3,-4,-10,-7,-5,-3,-3,2021-08-07 11:41:09,528657
0,1,4,10,9,4,-2,-1,2021-08-07 11:41:09,528657
-3,-2,-6,-18,-30,-13,-6,-2,2021-08-07 11:41:09,558656
-1,1,5,10,19,9,4,1,2021-08-07 11:41:09,558656
3,0,3,11,7,3,2,2,2021-08-07 11:41:09,558656
-4,-4,-5,-7,-8,-4,-1,-1,2021-08-07 11:41:09,558656
1,3,1,1,0,1,0,0,2021-08-07 11:41:09,574658
-5,-9,-13,-30,-39,-18,-9,-4,2021-08-07 11:41:09,574658
3,5,7,19,35,16,5,3,2021-08-07 11:41:09,574658
6,8,10,19,28,12,6,5,2021-08-07 11:41:09,574658
-3,-5,-6,-12,-10,-6,-2,-2,2021-08-07 11:41:09,574658
-1,-2,-3,-6,-5,-5,-2,-1,2021-08-07 11:41:09,574658
-5,-6,-5,-11,-15,-8,-5,-2,2021-08-07 11:41:09,590655
-3,-2,-4,-4,-11,-6,-2,-1,2021-08-07 11:41:09,590655
-1,0,5,11,20,9,3,1,2021-08-07 11:41:09,606657
-1,0,-2,1,1,1,0,-2,2021-08-07 11:41:09,606657
0,-2,0,-2,-7,-3,-1,0,2021-08-07 11:41:09,606657
2,2,-1,-6,-11,-6,-1,1,2021-08-07 11:41:09,606657
-3,-4,-4,-15,-20,-7,-5,-3,2021-08-07 11:41:09,637657
6,5,12,32,51,21,9,5,2021-08-07 11:41:09,653659
-3,0,-1,2,-14,-7,-2,-3,2021-08-07 11:41:09,669658
-2,-1,-2,4,7,1,0,-1,2021-08-07 11:41:09,669658
-1,-1,-4,-12,-19,-7,-1,-1,2021-08-07 11:41:09,669658
-5,-4,-7,-16,-21,-12,-7,-4,2021-08-07 11:41:09,669658
3,2,3,11,28,12,5,0,2021-08-07 11:41:09,669658
-1,0,2,6,0,0,0,-2,2021-08-07 11:41:09,669658
1,-1,1,11,21,8,2,1,2021-08-07 11:41:09,669658
0,0,0,-4,-10,-2,-3,0,2021-08-07 11:41:09,670657
-4,-5,-8,-24,-35,-16,-7,-4,2021-08-07 11:41:09,670657
0,-2,-1,-2,3,1,-1,-1,2021-08-07 11:41:09,670657
-1,-1,0,7,7,2,1,1,2021-08-07 11:41:09,700656
-1,-1,-1,-3,-6,-2,-1,-2,2021-08-07 11:41:09,716656
-2,-1,-4,-8,-10,-5,-2,-2,2021-08-07 11:41:09,716656
2,0,0,-1,2,2,0,0,2021-08-07 11:41:09,716656
1,0,2,8,11,3,3,-1,2021-08-07 11:41:09,716656
-1,-1,-2,2,-6,-5,-2,-1,2021-08-07 11:41:09,716656
-1,-1,-1,-7,-14,-6,-3,-1,2021-08-07 11:41:09,716656
1,-1,0,5,18,6,0,1,2021-08-07 11:41:09,716656
-1,0,-1,-1,1,0,-3,-1,2021-08-07 11:41:09,732660
3,2,7,15,21,6,5,2,2021-08-07 11:41:09,748655
-3,-1,-4,-10,-15,-7,-3,-1,2021-08-07 11:41:09,764657
-1,-1,-3,-7,0,-4,-1,-1,2021-08-07 11:41:09,764657
-1,-2,-2,-1,-7,-3,-3,-3,2021-08-07 11:41:09,764657
-2,0,-3,-10,-14,-5,-2,-1,2021-08-07 11:41:09,764657
0,0,0,8,18,6,1,1,2021-08-07 11:41:09,764657
-3,-4,-5,-10,-16,-5,-3,-3,2021-08-07 11:41:09,764657
1,2,4,11,14,7,3,3,2021-08-07 11:41:09,780657
-3,-3,-3,-1,-8,-4,-2,-3,2021-08-07 11:41:09,780657
1,1,0,-3,-8,-2,2,0,2021-08-07 11:41:09,780657
2,2,4,10,17,5,0,2,2021-08-07 11:41:09,780657
-2,-5,-8,-9,-9,-3,-4,-4,2021-08-07 11:41:09,780657
0,1,-1,-3,-3,0,-2,-2,2021-08-07 11:41:09,780657
-5,-6,-5,-5,-4,-2,-3,-5,2021-08-07 11:41:09,780657
1,3,6,8,5,1,2,1,2021-08-07 11:41:09,781677
-1,-1,0,1,-5,-3,-2,1,2021-08-07 11:41:09,808658
-2,-1,-3,-1,6,2,0,-1,2021-08-07 11:41:09,808658
-3,-4,-3,-2,-1,-2,-4,-3,2021-08-07 11:41:09,808658
-3,-4,-5,-10,-17,-9,-3,-5,2021-08-07 11:41:09,809657
-1,-2,-3,-9,-14,-6,-4,-3,2021-08-07 11:41:09,828657
0,-1,-3,-4,9,5,1,-1,2021-08-07 11:41:09,844657
5,5,11,31,36,13,5,3,2021-08-07 11:41:09,859658
-1,-3,1,-2,-1,1,0,0,2021-08-07 11:41:09,875657
-2,-1,-1,-6,-17,-9,-2,-3,2021-08-07 11:41:09,891656
-3,-5,-6,-9,-6,-1,-1,-1,2021-08-07 11:41:09,891656
2,0,2,7,8,4,0,0,2021-08-07 11:41:09,891656
2,3,0,-5,-10,-3,-1,0,2021-08-07 11:41:09,891656
0,-2,-2,-1,4,1,2,-2,2021-08-07 11:41:09,891656
-2,-2,-1,-4,-2,3,2,0,2021-08-07 11:41:09,892658
1,-2,0,5,8,1,-2,0,2021-08-07 11:41:09,892658
-4,-2,-1,3,-1,-5,-5,-4,2021-08-07 11:41:09,892658
3,3,1,-1,0,2,7,5,2021-08-07 11:41:09,892658
2,-1,0,-1,-7,-1,3,2,2021-08-07 11:41:09,892658
-3,-2,-5,-10,-10,-7,-6,-3,2021-08-07 11:41:09,892658
-7,-5,-8,-7,-7,-6,-4,-4,2021-08-07 11:41:09,892658
3,5,4,3,-1,-3,-7,-3,2021-08-07 11:41:09,907657
-3,-3,0,1,6,-4,-8,-7,2021-08-07 11:41:09,907657
5,5,5,2,-1,10,16,10,2021-08-07 11:41:09,907657
0,0,1,4,3,9,2,3,2021-08-07 11:41:09,907657
-4,-3,-8,-10,-16,-15,-12,-6,2021-08-07 11:41:09,923656
-3,2,6,20,28,1,-3,0,2021-08-07 11:41:09,923656
1,2,-1,-10,-9,1,5,3,2021-08-07 11:41:09,923656
5,3,-2,-5,-7,10,16,8,2021-08-07 11:41:09,939656
6,4,5,7,17,15,4,5,2021-08-07 11:41:09,954655
-21,-15,-7,-6,-25,-42,-39,-29,2021-08-07 11:41:09,954655
-7,-6,-4,-7,-4,-10,-11,-7,2021-08-07 11:41:09,954655
0,-5,-3,0,-2,2,7,4,2021-08-07 11:41:09,954655
-2,-6,-7,-11,-14,1,5,2,2021-08-07 11:41:09,970656
9,9,5,1,-3,10,8,9,2021-08-07 11:41:09,970656
3,4,4,6,27,11,3,2,2021-08-07 11:41:09,970656
2,3,4,5,0,-4,-3,-2,2021-08-07 11:41:09,970656
0,1,0,3,6,2,1,-1,2021-08-07 11:41:09,986658
0,-1,-2,-4,-9,0,3,2,2021-08-07 11:41:10,002656
-5,-7,-8,-11,-24,-10,-5,-4,2021-08-07 11:41:10,002656
-3,-2,-4,-6,2,-1,-4,-2,2021-08-07 11:41:10,002656
-3,-1,3,9,11,-2,-2,-3,2021-08-07 11:41:10,002656
4,3,2,7,9,10,8,5,2021-08-07 11:41:10,002656
-3,-4,-4,-11,-18,-8,-4,-3,2021-08-07 11:41:10,018657
-6,-4,-6,-10,-10,-11,-13,-9,2021-08-07 11:41:10,018657
0,0,4,20,28,9,3,0,2021-08-07 11:41:10,018657
1,-2,-3,-9,-10,1,5,2,2021-08-07 11:41:10,018657
-2,-3,-2,8,13,3,-1,-4,2021-08-07 11:41:10,018657
3,5,9,2,-3,-2,-2,0,2021-08-07 11:41:10,018657
-3,-3,-1,-4,-8,-3,0,-1,2021-08-07 11:41:10,050658
4,1,-3,-4,-3,3,3,3,2021-08-07 11:41:10,066656
-3,-2,-4,-10,-4,-4,-3,-3,2021-08-07 11:41:10,066656
-1,0,0,-4,-3,-3,-1,2,2021-08-07 11:41:10,066656
0,0,0,-2,4,3,2,1,2021-08-07 11:41:10,066656
1,0,1,3,-2,-1,-1,0,2021-08-07 11:41:10,066656
-4,-6,-6,-5,-7,-5,-4,-3,2021-08-07 11:41:10,066656
-3,-6,-5,-4,-2,-4,-3,-4,2021-08-07 11:41:10,066656
0,3,4,-1,-4,-2,0,1,2021-08-07 11:41:10,082657
-4,-4,-5,-11,-11,-2,-3,-3,2021-08-07 11:41:10,098656
1,4,1,6,13,4,1,0,2021-08-07 11:41:10,114655
2,3,4,6,7,3,2,1,2021-08-07 11:41:10,114655
2,-1,1,13,24,7,4,2,2021-08-07 11:41:10,114655
-3,-5,-10,-15,-16,-9,-2,-2,2021-08-07 11:41:10,114655
1,-1,-2,-3,-6,0,0,0,2021-08-07 11:41:10,114655
-4,-3,-3,-7,-8,-5,-4,-3,2021-08-07 11:41:10,114655
-5,-7,-6,-3,-14,-6,-5,-6,2021-08-07 11:41:10,130655
-3,-3,-2,-2,11,4,0,-2,2021-08-07 11:41:10,130655
1,1,0,-3,0,-4,-3,-2,2021-08-07 11:41:10,130655
2,3,8,16,12,4,1,2,2021-08-07 11:41:10,130655
2,4,4,-3,-12,-3,0,2,2021-08-07 11:41:10,146656
3,-1,0,-2,2,1,2,1,2021-08-07 11:41:10,162657
1,1,0,8,3,3,0,0,2021-08-07 11:41:10,162657
-2,-1,-2,1,1,0,0,-1,2021-08-07 11:41:10,162657
-4,-2,-1,-4,-4,-3,-3,-2,2021-08-07 11:41:10,162657
0,0,-3,-6,-9,-2,1,1,2021-08-07 11:41:10,162657
-5,-4,-5,-15,-13,-6,-5,-4,2021-08-07 11:41:10,162657
1,0,0,9,12,3,0,0,2021-08-07 11:41:10,162657
-1,0,-2,-2,-2,-1,0,1,2021-08-07 11:41:10,194656
1,2,1,5,1,1,2,-1,2021-08-07 11:41:10,194656
-1,0,0,-3,-7,-5,-2,-2,2021-08-07 11:41:10,194656
-3,-3,-3,-3,0,0,-1,-2,2021-08-07 11:41:10,194656
-3,-3,-5,-14,-9,-2,-2,-1,2021-08-07 11:41:10,210657
1,1,8,18,15,6,2,1,2021-08-07 11:41:10,226657
0,-2,-1,-1,-6,-4,-2,0,2021-08-07 11:41:10,226657
-2,-5,-7,-15,-14,-7,-4,-1,2021-08-07 11:41:10,226657
2,2,2,0,4,1,1,0,2021-08-07 11:41:10,226657
1,3,4,13,11,4,2,1,2021-08-07 11:41:10,226657
1,2,4,7,3,5,2,1,2021-08-07 11:41:10,226657
-5,-3,-4,-9,-11,-8,-4,-3,2021-08-07 11:41:10,226657
-1,0,-2,-8,-3,-3,-1,-1,2021-08-07 11:41:10,258658
-3,-4,-4,-8,-6,-5,-3,-2,2021-08-07 11:41:10,258658
1,0,3,11,19,7,3,3,2021-08-07 11:41:10,258658
-2,-3,-4,-8,-5,-3,-2,-1,2021-08-07 11:41:10,258658
-3,-3,-2,2,3,-1,-2,-1,2021-08-07 11:41:10,258658
2,3,3,15,20,8,4,3,2021-08-07 11:41:10,258658
-1,0,-1,-11,-18,-7,-3,-2,2021-08-07 11:41:10,258658
2,2,4,11,14,7,1,-1,2021-08-07 11:41:10,258658
-4,-4,-5,-8,-9,-8,-2,-4,2021-08-07 11:41:10,290656
-1,-2,-6,-22,-24,-11,-3,-1,2021-08-07 11:41:10,290656
0,0,-3,-3,-5,-5,-1,0,2021-08-07 11:41:10,290656
-2,-1,-3,-3,-5,-3,1,-4,2021-08-07 11:41:10,290656
2,0,6,11,10,7,1,0,2021-08-07 11:41:10,322657
-5,-3,-6,-11,-14,-5,-4,-3,2021-08-07 11:41:10,337655
-5,-5,-2,0,-4,-4,-5,-3,2021-08-07 11:41:10,353655
4,3,5,4,-2,-2,-1,0,2021-08-07 11:41:10,369656
-1,-1,-2,1,-5,1,-1,-2,2021-08-07 11:41:10,384655
-2,-2,-5,-2,14,4,0,-1,2021-08-07 11:41:10,384655
0,1,2,4,2,-1,-1,1,2021-08-07 11:41:10,384655
-4,-6,-7,-14,-26,-12,-5,-3,2021-08-07 11:41:10,384655
2,3,5,7,4,1,0,1,2021-08-07 11:41:10,384655
1,1,5,18,30,12,2,2,2021-08-07 11:41:10,384655
-3,-5,-11,-22,-24,-11,-4,-3,2021-08-07 11:41:10,385657
0,1,2,4,13,4,0,2,2021-08-07 11:41:10,385657
-3,-3,-6,-10,-11,-7,-3,-1,2021-08-07 11:41:10,385657
2,1,1,-4,-16,-5,0,1,2021-08-07 11:41:10,385657
-1,-1,1,4,12,5,3,0,2021-08-07 11:41:10,385657
-2,-1,-3,0,-8,-5,-3,-1,2021-08-07 11:41:10,385657
-3,-3,-7,-20,-20,-9,-6,-5,2021-08-07 11:41:10,385657
2,3,6,15,18,10,4,2,2021-08-07 11:41:10,385657
-2,-1,0,0,2,2,1,-1,2021-08-07 11:41:10,385657
2,-1,3,17,22,9,3,0,2021-08-07 11:41:10,386656
-3,-3,-9,-19,-15,-7,-5,-3,2021-08-07 11:41:10,415657
2,1,6,7,-5,-1,-2,0,2021-08-07 11:41:10,431655
0,-1,-2,2,12,6,0,0,2021-08-07 11:41:10,447655
-2,0,-1,-1,2,1,-1,-1,2021-08-07 11:41:10,463692
-2,0,-2,3,15,8,2,1,2021-08-07 11:41:10,479692
-2,-3,-2,-1,-15,-7,-3,-2,2021-08-07 11:41:10,479692
2,3,1,-5,-8,-1,0,1,2021-08-07 11:41:10,479692
0,-1,1,1,6,2,-1,0,2021-08-07 11:41:10,479692
1,0,-1,0,-3,0,1,2,2021-08-07 11:41:10,479692
-4,-5,-5,-10,-11,-5,-3,-3,2021-08-07 11:41:10,479692
-6,-5,-4,-4,-2,-5,-5,-5,2021-08-07 11:41:10,480692
3,3,2,0,-4,-6,-2,-2,2021-08-07 11:41:10,480692
4,4,7,9,1,2,2,1,2021-08-07 11:41:10,480692
-1,-1,-3,-6,-6,-2,3,0,2021-08-07 11:41:10,480692
4,3,-2,5,0,9,14,9,2021-08-07 11:41:10,480692
7,4,7,12,16,17,7,6,2021-08-07 11:41:10,480692
-12,-8,-7,-8,-15,-25,-27,-19,2021-08-07 11:41:10,495692
-11,-6,-1,1,6,-8,-15,-10,2021-08-07 11:41:10,511691
-2,-1,4,14,10,1,-2,-2,2021-08-07 11:41:10,527692
1,0,-6,-16,-20,0,15,8,2021-08-07 11:41:10,543693
6,4,7,15,17,18,13,9,2021-08-07 11:41:10,559692
2,-2,-3,-8,-8,-6,-6,-2,2021-08-07 11:41:10,559692
-4,-1,1,2,3,-10,-11,-7,2021-08-07 11:41:10,559692
-4,-1,-2,3,6,2,1,0,2021-08-07 11:41:10,559692
1,-1,-3,-7,-3,4,9,4,2021-08-07 11:41:10,559692
3,2,-4,-15,-26,-5,2,4,2021-08-07 11:41:10,559692
-2,-4,-2,-5,2,-1,-8,-6,2021-08-07 11:41:10,559692
0,3,6,14,15,0,-5,-4,2021-08-07 11:41:10,559692
0,-1,-2,-1,1,3,6,3,2021-08-07 11:41:10,559692
0,-1,-4,-2,4,6,6,2,2021-08-07 11:41:10,560691
-2,-4,-4,-8,-8,-2,-4,-2,2021-08-07 11:41:10,560691
-3,-2,1,3,-5,-12,-11,-7,2021-08-07 11:41:10,560691
-1,1,0,5,8,2,-5,0,2021-08-07 11:41:10,560691
1,0,0,0,2,1,2,-1,2021-08-07 11:41:10,560691
2,3,0,0,-5,4,7,3,2021-08-07 11:41:10,560691
-2,-4,-6,-15,-16,-5,-5,-2,2021-08-07 11:41:10,560691
1,0,3,5,8,0,-1,0,2021-08-07 11:41:10,591691
-3,-4,-2,-4,-4,0,1,-1,2021-08-07 11:41:10,591691
1,-3,-4,-11,-2,1,-3,-1,2021-08-07 11:41:10,591691
-6,-5,-6,-3,-12,-14,-11,-7,2021-08-07 11:41:10,591691
0,3,3,5,8,-2,-2,-2,2021-08-07 11:41:10,638692
-2,1,-1,-2,2,1,0,1,2021-08-07 11:41:10,638692
-1,-1,-1,-11,-32,-11,-2,2,2021-08-07 11:41:10,638692
0,-3,2,6,33,18,9,2,2021-08-07 11:41:10,638692
1,2,3,11,11,5,4,0,2021-08-07 11:41:10,638692
1,2,2,6,7,3,1,0,2021-08-07 11:41:10,638692
-4,-2,-6,-16,-20,-9,-4,-2,2021-08-07 11:41:10,638692
-3,-3,1,9,-2,-4,-4,-2,2021-08-07 11:41:10,639691
-5,-9,-7,-9,-3,-6,-3,-4,2021-08-07 11:41:10,654691
10,12,14,22,24,11,6,5,2021-08-07 11:41:10,669691
-1,-2,-3,-3,-5,-2,2,-1,2021-08-07 11:41:10,669949
-2,-2,-6,-14,-14,-5,-2,-3,2021-08-07 11:41:10,669949
0,0,-2,-6,-1,1,1,1,2021-08-07 11:41:10,669949
-4,-4,-3,0,-14,-7,-3,-4,2021-08-07 11:41:10,669949
1,2,4,14,21,7,1,-1,2021-08-07 11:41:10,669949
-3,-2,-5,-7,-5,-1,-2,-2,2021-08-07 11:41:10,669949
-4,-4,-4,-6,-11,-5,0,0,2021-08-07 11:41:10,701201
-3,-4,-9,-13,-8,-7,-3,-4,2021-08-07 11:41:10,715202
5,7,6,2,8,3,3,4,2021-08-07 11:41:10,716202
0,0,0,9,7,4,1,-1,2021-08-07 11:41:10,716202
0,-2,-3,-2,-6,-1,0,0,2021-08-07 11:41:10,733203
-5,-5,-3,-3,-3,-2,-5,-4,2021-08-07 11:41:10,733203
1,2,4,10,18,5,1,0,2021-08-07 11:41:10,733203
-1,-2,-3,-12,-13,-4,0,1,2021-08-07 11:41:10,733203
1,-2,-2,-10,-17,-9,-6,-1,2021-08-07 11:41:10,733203
-2,-2,-6,-18,-12,-8,-5,-3,2021-08-07 11:41:10,733203
3,6,11,39,46,19,8,4,2021-08-07 11:41:10,734203
0,0,2,5,2,1,-1,-1,2021-08-07 11:41:10,734203
-2,-3,0,6,5,2,-1,-1,2021-08-07 11:41:10,749203
-4,-8,-12,-27,-30,-15,-6,-4,2021-08-07 11:41:10,765202
-3,-2,-1,-5,-20,-8,-6,-3,2021-08-07 11:41:10,781201
-1,-1,-2,-1,-2,2,-1,-2,2021-08-07 11:41:10,781201
-1,-1,-3,3,8,2,-1,-1,2021-08-07 11:41:10,781201
-2,1,3,10,6,3,-1,1,2021-08-07 11:41:10,781201
3,3,3,4,2,2,3,4,2021-08-07 11:41:10,781201
-2,-3,-2,-5,-7,-3,-1,-1,2021-08-07 11:41:10,781201
-1,2,1,-5,-7,-2,-1,-2,2021-08-07 11:41:10,797202
2,1,1,4,7,3,1,2,2021-08-07 11:41:10,797202
-8,-7,-8,-11,-13,-8,-6,-5,2021-08-07 11:41:10,797202
3,4,4,10,13,6,3,2,2021-08-07 11:41:10,797202
0,2,1,3,4,1,1,0,2021-08-07 11:41:10,798201
-3,-4,-1,1,-1,-2,-1,-2,2021-08-07 11:41:10,798201
-3,-3,-4,-7,-1,-4,-4,-3,2021-08-07 11:41:10,829202
2,2,3,-1,-6,-2,2,2,2021-08-07 11:41:10,845202
0,-1,0,2,5,4,1,0,2021-08-07 11:41:10,845202
-2,-1,-1,1,-2,-2,-2,-1,2021-08-07 11:41:10,845202
-5,-7,-7,-13,-16,-7,-2,-4,2021-08-07 11:41:10,845202
-2,-3,-3,-8,-4,-3,-2,-1,2021-08-07 11:41:10,845202
5,4,7,18,16,8,3,1,2021-08-07 11:41:10,845202
0,-1,0,-1,-4,0,-1,0,2021-08-07 11:41:10,845202
3,5,5,13,13,7,1,3,2021-08-07 11:41:10,845202
-2,-3,-3,-6,-2,-1,-2,-3,2021-08-07 11:41:10,845202
-4,-5,-5,-9,-11,-5,-2,-3,2021-08-07 11:41:10,876204
1,0,2,8,3,1,0,0,2021-08-07 11:41:10,876204
0,-1,-1,-3,-1,0,-2,-1,2021-08-07 11:41:10,876204
-1,-4,-3,-9,-10,-5,-2,-2,2021-08-07 11:41:10,876204
-1,-3,-4,-2,-5,-6,-3,-1,2021-08-07 11:41:10,892203
1,1,2,2,17,6,3,0,2021-08-07 11:41:10,892203
-1,-2,-2,-2,-1,0,0,-1,2021-08-07 11:41:10,892203
0,3,0,2,0,1,-1,1,2021-08-07 11:41:10,892203
-5,-3,-5,-14,-17,-6,-4,-3,2021-08-07 11:41:10,908203
-1,2,2,-1,2,3,-2,-2,2021-08-07 11:41:10,924201
2,1,1,3,1,0,1,-1,2021-08-07 11:41:10,940203
-6,-11,-3,-1,2,1,-2,-5,2021-08-07 11:41:10,940203
3,4,2,-2,-2,-1,2,4,2021-08-07 11:41:10,956200
-1,0,-3,-4,-4,-5,-2,-2,2021-08-07 11:41:10,956200
-2,1,-5,-5,-9,-5,-2,0,2021-08-07 11:41:10,956200
2,10,13,7,4,1,-1,0,2021-08-07 11:41:10,956200
-1,-3,3,11,5,2,-1,-3,2021-08-07 11:41:10,956200
-6,-7,-16,-11,-2,1,1,-1,2021-08-07 11:41:10,956200
-3,-11,-9,-22,-14,-6,-4,-3,2021-08-07 11:41:10,957202
-2,-2,-5,0,4,2,0,-1,2021-08-07 11:41:10,957202
0,3,8,5,2,-1,-1,-1,2021-08-07 11:41:10,971204
4,8,8,11,-1,-4,0,3,2021-08-07 11:41:10,987203
-2,-3,-3,0,-1,-2,-1,-2,2021-08-07 11:41:10,987203
0,-2,-3,-6,-5,-3,1,2,2021-08-07 11:41:10,987203
0,-2,-2,2,7,6,4,2,2021-08-07 11:41:10,987203
-1,-3,1,3,3,-2,-1,-1,2021-08-07 11:41:10,987203
-1,-1,4,4,9,5,-1,-2,2021-08-07 11:41:10,987203
-4,-3,-3,-6,-9,-5,-4,-3,2021-08-07 11:41:10,988203
-3,-1,-3,-6,-9,-6,-3,-4,2021-08-07 11:41:11,019202
2,1,2,-2,2,0,0,0,2021-08-07 11:41:11,035203
-1,-1,1,-3,-1,-1,-1,-2,2021-08-07 11:41:11,051202
7,7,11,28,24,9,5,3,2021-08-07 11:41:11,067203
-2,-5,-8,-3,-3,0,-1,-1,2021-08-07 11:41:11,098203
1,1,-1,-9,-7,-1,1,2,2021-08-07 11:41:11,129203
1,1,3,5,7,3,2,0,2021-08-07 11:41:11,145203
-2,-4,-10,-17,-15,-8,-1,-1,2021-08-07 11:41:11,158203
-3,-3,-3,-4,-5,-2,0,-1,2021-08-07 11:41:11,159203
0,0,2,6,3,1,-2,-1,2021-08-07 11:41:11,159203
-1,1,-1,-2,0,-2,1,1,2021-08-07 11:41:11,159203
-1,-2,0,10,19,5,1,0,2021-08-07 11:41:11,159203
0,0,2,2,4,3,3,1,2021-08-07 11:41:11,159203
0,0,1,0,-1,0,-1,0,2021-08-07 11:41:11,160203
-4,-2,-8,-14,-23,-11,-5,-4,2021-08-07 11:41:11,160203
-4,-7,-10,-25,-21,-10,-3,-1,2021-08-07 11:41:11,160203
5,1,3,17,20,10,6,4,2021-08-07 11:41:11,160203
1,1,5,17,20,9,0,2,2021-08-07 11:41:11,160203
-2,-2,-1,-2,-7,-12,-10,-4,2021-08-07 11:41:11,160203
0,1,-1,1,-2,-1,2,-1,2021-08-07 11:41:11,160203
-3,-2,-6,-14,-18,-8,-1,-1,2021-08-07 11:41:11,161203
-4,-6,-6,-7,-9,-4,1,-3,2021-08-07 11:41:11,161203
1,0,1,8,1,-3,-3,-3,2021-08-07 11:41:11,161203
0,1,-1,-6,-10,-5,-1,-2,2021-08-07 11:41:11,161203
-2,-1,2,8,9,5,0,-2,2021-08-07 11:41:11,161203
-1,-4,-1,3,1,-1,0,-1,2021-08-07 11:41:11,161203
3,3,3,8,20,13,8,4,2021-08-07 11:41:11,162205
2,3,0,-4,-11,-2,1,0,2021-08-07 11:41:11,162205
3,2,2,-4,2,0,0,0,2021-08-07 11:41:11,162205
-5,-4,-5,-10,-13,-7,-4,-5,2021-08-07 11:41:11,162205
-3,-2,-2,-2,13,6,1,-1,2021-08-07 11:41:11,162205
2,1,2,9,6,3,0,2,2021-08-07 11:41:11,162205
-5,-3,-5,-13,-12,-8,-5,-3,2021-08-07 11:41:11,176201
-3,-2,-1,-1,-5,-3,-4,-3,2021-08-07 11:41:11,192202
-5,-7,-7,-17,-35,-14,-4,-4,2021-08-07 11:41:11,192202
5,6,8,27,58,24,8,6,2021-08-07 11:41:11,192202
3,4,3,0,-1,-2,-3,-1,2021-08-07 11:41:11,192202
-2,-2,-2,2,5,1,-1,-1,2021-08-07 11:41:11,192202
-5,-6,-5,-6,-14,-6,-1,-2,2021-08-07 11:41:11,192202
8,9,7,5,-5,-1,1,4,2021-08-07 11:41:11,192202
2,1,2,6,3,0,0,0,2021-08-07 11:41:11,208202
-2,-4,-6,-12,-13,-7,-3,-2,2021-08-07 11:41:11,224202
-4,-5,-9,-13,-13,-6,-3,-3,2021-08-07 11:41:11,240201
0,0,2,0,0,-3,-1,-3,2021-08-07 11:41:11,240201
-3,-4,-5,-2,-3,-1,-3,-2,2021-08-07 11:41:11,240201
5,4,6,12,11,7,6,2,2021-08-07 11:41:11,240201
-1,3,3,14,30,9,4,0,2021-08-07 11:41:11,272235
-4,-5,-7,-26,-29,-3,8,4,2021-08-07 11:41:11,272235
1,-1,-2,15,24,10,-2,1,2021-08-07 11:41:11,272235
-2,1,3,2,-5,-20,-20,-11,2021-08-07 11:41:11,272235
-7,-5,-4,-3,-10,-11,-9,-5,2021-08-07 11:41:11,272235
-6,-6,-11,-13,-15,-9,-7,-4,2021-08-07 11:41:11,272235
-9,-10,-9,-18,-16,-7,-2,-5,2021-08-07 11:41:11,272235
5,6,4,1,3,13,13,8,2021-08-07 11:41:11,273234
12,8,10,15,22,19,14,11,2021-08-07 11:41:11,273234
-2,-5,-5,-2,-9,-5,-7,-5,2021-08-07 11:41:11,273234
4,5,4,1,-4,-11,-8,-3,2021-08-07 11:41:11,304235
-4,-2,-1,2,6,-1,-2,-3,2021-08-07 11:41:11,304235
0,0,1,4,1,9,12,4,2021-08-07 11:41:11,304235
0,-2,-1,-2,0,6,2,4,2021-08-07 11:41:11,304235
-6,-6,-5,-6,-11,-23,-21,-13,2021-08-07 11:41:11,304235
-2,-2,-3,-17,-21,-13,-5,-2,2021-08-07 11:41:11,304235
1,1,1,1,4,2,-1,0,2021-08-07 11:41:11,320233
-5,-8,-10,-14,-11,0,0,-2,2021-08-07 11:41:11,320233
9,9,14,33,42,30,20,14,2021-08-07 11:41:11,336236
6,7,5,20,27,19,10,7,2021-08-07 11:41:11,352235
-3,-4,-6,-19,-34,-29,-18,-12,2021-08-07 11:41:11,368233
-13,-10,-13,-31,-49,-29,-18,-13,2021-08-07 11:41:11,368233
-2,-2,-2,-2,19,2,1,-2,2021-08-07 11:41:11,368233
-1,-2,3,10,18,9,7,4,2021-08-07 11:41:11,368233
8,10,8,21,34,23,14,10,2021-08-07 11:41:11,368233
1,3,1,2,0,-4,-3,-3,2021-08-07 11:41:11,368233
-6,-7,-10,-29,-50,-16,-4,-3,2021-08-07 11:41:11,368233
-4,-7,-8,0,5,-2,-1,-4,2021-08-07 11:41:11,368233
-3,-6,-9,-12,-12,-11,-7,-2,2021-08-07 11:41:11,369235
11,14,19,26,29,15,8,5,2021-08-07 11:41:11,369235
0,0,4,14,15,20,12,5,2021-08-07 11:41:11,398235
-2,1,3,-8,-17,-10,-9,-5,2021-08-07 11:41:11,414233
-9,-5,3,1,-9,-18,-14,-10,2021-08-07 11:41:11,430234
6,4,7,19,0,0,3,3,2021-08-07 11:41:11,446236
2,-3,-10,-1,3,5,3,0,2021-08-07 11:41:11,462235
-5,1,-2,-18,8,2,-2,-3,2021-08-07 11:41:11,478437
4,3,1,-4,0,7,3,1,2021-08-07 11:41:11,493236
-17,-32,-57,-80,-68,-29,-13,-10,2021-08-07 11:41:11,493236
-7,-16,-10,-8,10,-3,-6,-4,2021-08-07 11:41:11,493236
-3,0,2,26,20,7,-1,2,2021-08-07 11:41:11,493236
11,23,38,39,29,17,10,7,2021-08-07 11:41:11,493236
11,23,37,54,37,22,11,8,2021-08-07 11:41:11,493236
9,7,16,16,-8,-3,3,5,2021-08-07 11:41:11,494237
-12,-29,-47,-80,-42,-8,-4,-8,2021-08-07 11:41:11,494237
-7,-7,-1,-8,-2,-5,0,-2,2021-08-07 11:41:11,509235
16,42,54,78,51,2,-3,2,2021-08-07 11:41:11,525234
17,37,66,82,39,13,5,10,2021-08-07 11:41:11,541234
9,-7,-18,55,10,17,14,10,2021-08-07 11:41:11,541234
-32,-45,-81,-105,-102,-54,-24,-24,2021-08-07 11:41:11,541234
-25,-25,-3,-55,-44,-25,-16,-14,2021-08-07 11:41:11,541234
-11,-35,-88,-27,-8,-7,-5,-5,2021-08-07 11:41:11,541234
-7,-27,-34,3,17,7,-2,-1,2021-08-07 11:41:11,541234
0,-17,-64,24,23,18,2,1,2021-08-07 11:41:11,541234
4,4,-19,2,6,2,2,3,2021-08-07 11:41:11,542236
5,34,86,16,2,1,-2,-1,2021-08-07 11:41:11,542236
16,27,28,24,7,7,9,9,2021-08-07 11:41:11,542236
9,18,50,14,9,13,7,6,2021-08-07 11:41:11,542236
-2,3,15,3,5,-2,-3,-3,2021-08-07 11:41:11,542236
-3,-8,-2,-9,-1,-2,1,0,2021-08-07 11:41:11,542236
5,8,16,-10,-13,-9,-1,-2,2021-08-07 11:41:11,542236
0,4,9,6,8,-1,-2,-1,2021-08-07 11:41:11,543236
-3,-10,-3,11,12,10,4,1,2021-08-07 11:41:11,543236
-13,-16,-40,-60,-65,-33,-15,-12,2021-08-07 11:41:11,543236
-10,-7,-1,-12,5,-5,-7,-5,2021-08-07 11:41:11,543236
13,19,31,56,54,24,11,9,2021-08-07 11:41:11,557233
1,-9,-16,2,11,11,3,-1,2021-08-07 11:41:11,557233
-1,-1,-12,-14,-3,1,7,3,2021-08-07 11:41:11,573234
-3,2,7,-18,-33,-18,-9,-4,2021-08-07 11:41:11,573234
3,2,4,-3,-10,0,2,4,2021-08-07 11:41:11,573234
-5,-10,-21,-22,-4,-3,-5,-6,2021-08-07 11:41:11,573234
-5,-5,-12,-16,-27,-19,-10,-8,2021-08-07 11:41:11,604236
2,9,20,26,18,9,1,1,2021-08-07 11:41:11,604236
5,1,7,26,40,14,4,4,2021-08-07 11:41:11,604236
-5,-9,-9,-5,-7,-5,-2,-2,2021-08-07 11:41:11,604236
2,1,-2,1,1,5,1,1,2021-08-07 11:41:11,604236
-6,-6,-10,-19,-25,-13,-6,-5,2021-08-07 11:41:11,605235
2,5,18,8,-6,-3,-4,-1,2021-08-07 11:41:11,620234
5,9,23,26,14,6,3,3,2021-08-07 11:41:11,620234
-1,-5,-32,-30,-13,-3,-1,0,2021-08-07 11:41:11,636234
-9,-13,-16,-32,-7,-4,-3,-5,2021-08-07 11:41:11,636234
-7,-7,-23,-22,-19,-8,-4,-3,2021-08-07 11:41:11,636234
3,5,9,14,4,3,2,5,2021-08-07 11:41:11,652234
-2,1,14,14,1,-1,-2,-4,2021-08-07 11:41:11,667236
8,13,15,21,17,8,6,4,2021-08-07 11:41:11,667236
-3,-7,-3,-12,-10,-5,-5,-3,2021-08-07 11:41:11,683238
-5,-10,-20,-39,-31,-11,-2,-2,2021-08-07 11:41:11,683238
-5,-2,2,21,32,7,-4,-5,2021-08-07 11:41:11,683238
7,12,22,32,23,11,7,4,2021-08-07 11:41:11,683238
2,5,8,4,4,3,2,2,2021-08-07 11:41:11,683238
0,1,-4,4,4,-1,0,-1,2021-08-07 11:41:11,684234
-4,-5,-4,-13,-17,-5,-3,-2,2021-08-07 11:41:11,684234
-2,0,-2,-9,-22,-11,-4,0,2021-08-07 11:41:11,699234
-3,-8,-5,-7,5,3,0,-2,2021-08-07 11:41:11,699234
12,18,19,25,28,12,7,7,2021-08-07 11:41:11,699234
2,1,4,16,9,6,4,1,2021-08-07 11:41:11,715234
-5,-11,-19,-21,-20,-7,-5,-5,2021-08-07 11:41:11,715234
-21,-26,-40,-82,-69,-33,-16,-13,2021-08-07 11:41:11,715234
2,3,13,7,19,7,0,3,2021-08-07 11:41:11,715234
1,4,0,0,-2,0,-1,-1,2021-08-07 11:41:11,731234
3,3,9,44,30,8,5,3,2021-08-07 11:41:11,747233
7,5,-6,19,20,14,9,4,2021-08-07 11:41:11,747233
-7,-10,-6,-9,-1,-3,-5,-4,2021-08-07 11:41:11,747233
0,2,17,13,9,2,0,1,2021-08-07 11:41:11,747233
-6,-4,-16,-17,-20,-10,-6,-5,2021-08-07 11:41:11,747233
2,3,13,12,-7,-3,-2,0,2021-08-07 11:41:11,747233
-1,-2,-6,-7,-3,-4,0,-2,2021-08-07 11:41:11,748235
-1,0,-8,-14,1,1,1,-1,2021-08-07 11:41:11,779235
-3,-5,-10,-21,-14,-4,-2,-2,2021-08-07 11:41:11,794238
1,-2,6,1,11,2,2,0,2021-08-07 11:41:11,794238
4,6,5,23,11,6,2,0,2021-08-07 11:41:11,794238
0,2,9,-1,-17,-6,0,-1,2021-08-07 11:41:11,794238
3,-1,-5,-20,-5,-1,1,-1,2021-08-07 11:41:11,794238
-10,-16,-18,-13,-15,-10,-7,-5,2021-08-07 11:41:11,795238
-8,-10,-20,-48,-54,-17,-6,-4,2021-08-07 11:41:11,795238
10,11,24,62,85,31,12,10,2021-08-07 11:41:11,810233
2,3,11,23,7,2,0,-1,2021-08-07 11:41:11,810233
9,11,6,12,10,6,4,4,2021-08-07 11:41:11,810233
-10,-18,-16,-34,-33,-17,-10,-8,2021-08-07 11:41:11,810233
-1,-3,-10,-11,-6,0,-1,-1,2021-08-07 11:41:11,858234
1,3,13,14,24,7,0,-1,2021-08-07 11:41:11,858234
-1,2,4,0,-8,-7,-2,-3,2021-08-07 11:41:11,858234
2,3,0,5,6,3,1,2,2021-08-07 11:41:11,858234
-2,-3,0,-10,-21,-6,-3,-3,2021-08-07 11:41:11,858234
0,2,-5,6,11,3,0,1,2021-08-07 11:41:11,858234
2,-1,3,15,12,5,3,2,2021-08-07 11:41:11,858234
-5,-11,-20,-3,-4,-3,-1,-5,2021-08-07 11:41:11,858234
-12,-14,-20,-37,-35,-16,-9,-8,2021-08-07 11:41:11,874236
1,9,22,28,27,6,1,1,2021-08-07 11:41:11,874236
3,7,9,5,-2,0,0,0,2021-08-07 11:41:11,874236
2,1,-3,10,14,9,3,2,2021-08-07 11:41:11,874236
-2,-4,-13,-32,-30,-16,-6,-1,2021-08-07 11:41:11,906234
-2,-1,-1,-19,-25,-10,-2,-1,2021-08-07 11:41:11,906234
4,3,3,10,12,5,2,0,2021-08-07 11:41:11,937235
5,6,14,38,29,12,7,4,2021-08-07 11:41:11,953236
-4,-8,-5,-13,-4,-2,-3,-4,2021-08-07 11:41:11,969235
-4,-6,-20,-16,-27,-13,-4,-3,2021-08-07 11:41:11,985237
2,4,4,5,4,1,1,0,2021-08-07 11:41:11,985237
-3,-7,-11,6,9,0,-2,-3,2021-08-07 11:41:11,985237
-2,0,2,-3,-11,-2,-3,-1,2021-08-07 11:41:11,985237
-1,-4,-10,-32,-20,-8,-4,-1,2021-08-07 11:41:11,985237
-4,-1,4,22,30,9,-1,-2,2021-08-07 11:41:11,985237
-1,2,3,-1,-5,-3,-1,0,2021-08-07 11:41:11,986236
9,10,19,30,34,14,6,7,2021-08-07 11:41:11,986236
1,-1,13,7,-9,-3,-1,0,2021-08-07 11:41:11,986236
2,-1,-13,-9,-14,-4,0,2,2021-08-07 11:41:12,000236
-14,-19,-26,-51,-25,-13,-10,-10,2021-08-07 11:41:12,000236
2,9,12,18,2,-1,1,1,2021-08-07 11:41:12,000236
-1,4,12,17,17,7,1,0,2021-08-07 11:41:12,000236
9,13,31,22,13,7,6,6,2021-08-07 11:41:12,000236
-2,-7,-19,-14,-12,-3,-1,-2,2021-08-07 11:41:12,000236
-9,-19,-43,-40,-16,-9,-6,-7,2021-08-07 11:41:12,000236
-8,-10,-5,-19,-8,-6,-5,-6,2021-08-07 11:41:12,000236
-2,-5,-20,0,-8,-5,-3,-1,2021-08-07 11:41:12,000236
6,12,26,16,-5,1,1,3,2021-08-07 11:41:12,000236
2,4,10,16,25,7,5,2,2021-08-07 11:41:12,016235
4,4,3,6,10,7,4,3,2021-08-07 11:41:12,016235
-4,-5,3,-12,-6,-2,-1,-2,2021-08-07 11:41:12,016235
1,3,-1,5,5,0,-3,0,2021-08-07 11:41:12,016235
-3,-1,-4,-6,-14,-5,-3,-2,2021-08-07 11:41:12,044234
-2,1,1,7,4,-1,-2,-1,2021-08-07 11:41:12,045236
-2,0,4,4,-6,-4,-3,-2,2021-08-07 11:41:12,045236
-4,-4,-12,-21,-15,-7,-3,-2,2021-08-07 11:41:12,045236
5,3,1,-6,6,5,4,7,2021-08-07 11:41:12,045236
-3,-6,-11,-6,13,4,-3,-3,2021-08-07 11:41:12,045236
-6,-3,-9,-14,-14,-7,-3,-4,2021-08-07 11:41:12,045236
-1,1,14,10,-3,-3,-1,-3,2021-08-07 11:41:12,045236
2,7,10,21,-6,-2,1,1,2021-08-07 11:41:12,080234
-2,-1,2,-1,4,-1,0,0,2021-08-07 11:41:12,080234
7,6,11,24,10,8,3,6,2021-08-07 11:41:12,080234
2,-1,0,10,39,14,6,2,2021-08-07 11:41:12,080234
-8,-10,-15,-39,-32,-15,-7,-6,2021-08-07 11:41:12,095235
-12,-14,-33,-34,-29,-16,-7,-7,2021-08-07 11:41:12,111234
-3,-3,2,-8,-9,-5,-4,-2,2021-08-07 11:41:12,111234
5,8,13,25,10,2,2,3,2021-08-07 11:41:12,111234
2,0,8,10,1,3,1,0,2021-08-07 11:41:12,111234
0,2,17,4,-1,-1,0,1,2021-08-07 11:41:12,111234
7,13,16,19,27,12,6,4,2021-08-07 11:41:12,111234
14,19,28,44,24,13,10,8,2021-08-07 11:41:12,111234
-4,-10,-20,-18,-6,-4,-3,-3,2021-08-07 11:41:12,142235
-11,-21,-31,-53,-35,-15,-9,-8,2021-08-07 11:41:12,142235
-12,-18,-28,-28,-23,-13,-8,-9,2021-08-07 11:41:12,142235
-3,-2,0,-10,2,1,-3,-1,2021-08-07 11:41:12,142235
-4,-1,4,-8,-47,-21,-9,-7,2021-08-07 11:41:12,158235
23,29,48,99,94,50,22,17,2021-08-07 11:41:12,158235
3,4,5,0,16,7,3,1,2021-08-07 11:41:12,174235
-5,-8,-13,-19,-12,-4,-3,-5,2021-08-07 11:41:12,174235
-5,-6,-3,-7,2,-2,-3,-4,2021-08-07 11:41:12,190234
-3,-2,-13,-26,-40,-17,-5,-2,2021-08-07 11:41:12,190234
-5,-9,-10,-14,-14,-6,-3,-4,2021-08-07 11:41:12,190234
1,-2,-2,14,7,2,2,3,2021-08-07 11:41:12,190234
-3,-2,-4,-4,11,2,-1,-2,2021-08-07 11:41:12,190234
0,4,8,-8,-16,-8,-2,0,2021-08-07 11:41:12,190234
2,4,5,19,15,8,3,1,2021-08-07 11:41:12,190234
-7,-7,0,-28,-22,-10,-4,-4,2021-08-07 11:41:12,191235
-3,-4,-8,6,15,5,0,-1,2021-08-07 11:41:12,222233
0,1,4,14,7,-1,-1,-5,2021-08-07 11:41:12,238234
-1,-2,-15,-27,-38,-17,-5,-3,2021-08-07 11:41:12,238234
4,2,-5,6,20,10,4,3,2021-08-07 11:41:12,238234
3,2,5,15,24,11,3,1,2021-08-07 11:41:12,238234
-1,-2,0,7,-5,-2,-1,0,2021-08-07 11:41:12,238234
-2,-2,9,0,0,-4,-1,-3,2021-08-07 11:41:12,238234
-6,-7,-12,-18,-24,-14,-8,-5,2021-08-07 11:41:12,238234
3,7,20,6,-2,4,2,3,2021-08-07 11:41:12,253235
-5,-9,-11,-17,-10,-6,-5,-5,2021-08-07 11:41:12,269235
-3,-10,-29,-9,2,0,-2,-1,2021-08-07 11:41:12,269235
-4,-3,-7,-16,-17,-8,-6,-2,2021-08-07 11:41:12,269235
6,6,10,31,31,16,6,6,2021-08-07 11:41:12,269235
1,4,10,5,-9,-1,0,0,2021-08-07 11:41:12,269235
1,4,14,-2,-4,-1,-3,0,2021-08-07 11:41:12,285235
-3,-3,-7,9,14,1,-2,-3,2021-08-07 11:41:12,285235
0,1,3,12,-3,-2,0,1,2021-08-07 11:41:12,285235
6,6,17,17,22,9,5,4,2021-08-07 11:41:12,285235
-5,-5,-9,-21,-18,-7,-4,-4,2021-08-07 11:41:12,301235
-2,-2,-16,-33,-22,-9,-3,-2,2021-08-07 11:41:12,317234
-6,-10,-12,-33,-23,-12,-9,-6,2021-08-07 11:41:12,317234
-3,-3,-11,15,5,2,-3,-2,2021-08-07 11:41:12,317234
5,6,24,34,21,7,3,3,2021-08-07 11:41:12,317234
2,11,29,16,-2,1,0,-1,2021-08-07 11:41:12,317234
9,11,9,22,23,12,7,6,2021-08-07 11:41:12,333235
-5,-17,-42,-47,-27,-10,-4,-4,2021-08-07 11:41:12,333235
-18,-27,-37,-59,-48,-22,-14,-12,2021-08-07 11:41:12,333235
-4,-5,-11,10,15,7,-2,-1,2021-08-07 11:41:12,333235
2,5,10,13,12,3,1,-1,2021-08-07 11:41:12,349235
2,7,17,15,0,-2,-1,1,2021-08-07 11:41:12,349235
8,12,13,16,15,9,7,3,2021-08-07 11:41:12,365235
0,-3,4,-3,-3,-5,0,-2,2021-08-07 11:41:12,381236
1,5,8,-3,0,1,-1,1,2021-08-07 11:41:12,397235
1,1,-4,12,-1,0,-1,0,2021-08-07 11:41:12,413234
-2,-10,-8,-23,-5,-4,-1,-1,2021-08-07 11:41:12,443235
-6,-12,-20,-14,-11,-5,-3,-5,2021-08-07 11:41:12,459233
0,-3,-12,2,12,2,0,0,2021-08-07 11:41:12,475233
-5,-3,-1,-13,-15,-8,-4,-5,2021-08-07 11:41:12,475233
1,8,13,24,10,3,-1,2,2021-08-07 11:41:12,475233
10,14,27,27,18,9,8,6,2021-08-07 11:41:12,475233
-3,-9,-9,-2,-6,-5,-3,-2,2021-08-07 11:41:12,475233
-5,-11,-27,-40,-21,-5,-5,-4,2021-08-07 11:41:12,475233
-8,-7,3,-17,-13,-8,-5,-7,2021-08-07 11:41:12,475233
-4,-7,-15,-14,-16,-6,-5,-3,2021-08-07 11:41:12,476237
1,5,8,15,10,1,0,-2,2021-08-07 11:41:12,476237
14,20,35,36,24,10,9,8,2021-08-07 11:41:12,476237
2,-4,-15,4,19,8,4,3,2021-08-07 11:41:12,476237
-9,-14,-18,-29,-27,-12,-7,-5,2021-08-07 11:41:12,476237
-5,-8,-16,-33,-17,-9,-4,-3,2021-08-07 11:41:12,476237
-8,-8,1,2,5,-5,-4,-4,2021-08-07 11:41:12,476237
3,8,3,-2,-10,-1,0,2,2021-08-07 11:41:12,476237
9,14,25,58,51,21,10,7,2021-08-07 11:41:12,477236
-1,-2,-2,10,-5,-1,0,-1,2021-08-07 11:41:12,479236
0,-2,5,-10,5,3,1,-1,2021-08-07 11:41:12,479236
1,0,-3,-5,-14,-6,-1,0,2021-08-07 11:41:12,479236
-5,-9,-11,-14,-18,-9,-5,-5,2021-08-07 11:41:12,479236
