EMG 1,EMG 2,EMG 3,EMG 4,EMG 5,EMG 6,EMG 7,EMG 8,Timestamp,Milliseconds
0,-1,2,16,24,9,2,0,2021-08-07 11:41:15,710961
0,0,-2,-5,-3,-1,0,1,2021-08-07 11:41:15,726472
2,4,5,6,7,3,3,2,2021-08-07 11:41:15,726472
-6,-4,-4,-5,-7,-4,-2,-3,2021-08-07 11:41:15,726472
-2,-1,0,4,-5,-6,-4,-1,2021-08-07 11:41:15,726472
5,6,6,15,24,11,4,5,2021-08-07 11:41:15,726472
-2,-5,-5,-17,-17,-9,-4,-2,2021-08-07 11:41:15,726472
1,1,4,16,17,7,2,1,2021-08-07 11:41:15,726472
-1,-3,-1,-5,-3,-1,-1,0,2021-08-07 11:41:15,727473
-1,-2,-3,-5,-10,-5,-3,-3,2021-08-07 11:41:15,727473
-2,-3,-2,-7,-13,-5,-3,-1,2021-08-07 11:41:15,727473
-2,-1,-1,4,15,3,0,-1,2021-08-07 11:41:15,727473
4,3,-3,-18,-25,-10,-3,0,2021-08-07 11:41:15,742472
2,3,6,17,24,11,4,3,2021-08-07 11:41:15,742472
0,-1,-2,0,-4,1,1,-3,2021-08-07 11:41:15,742472
-1,-2,-4,-13,-9,-2,-3,-3,2021-08-07 11:41:15,742472
-2,0,3,12,10,2,0,-1,2021-08-07 11:41:15,758474
-2,-4,-6,-15,-24,-10,-5,-3,2021-08-07 11:41:15,774473
1,3,-1,-3,-6,-2,-1,0,2021-08-07 11:41:15,774473
2,1,2,3,0,-1,1,2,2021-08-07 11:41:15,774473
-2,0,-1,-1,8,8,3,0,2021-08-07 11:41:15,774473
-1,-1,-1,1,9,3,0,-2,2021-08-07 11:41:15,774473
-4,-4,-3,4,7,0,-2,-3,2021-08-07 11:41:15,790475
-7,-7,-9,-17,-23,-13,-8,-6,2021-08-07 11:41:15,806474
-5,-6,-8,-11,-11,-5,-3,-4,2021-08-07 11:41:15,837473
2,1,3,9,15,8,4,1,2021-08-07 11:41:15,837473
1,1,1,6,9,4,1,-1,2021-08-07 11:41:15,837473
1,2,3,2,0,0,1,1,2021-08-07 11:41:15,837473
-1,-1,-5,-13,-22,-8,-3,-2,2021-08-07 11:41:15,837473
-7,-9,-11,-19,-14,-9,-6,-5,2021-08-07 11:41:15,837473
2,2,10,28,13,6,2,2,2021-08-07 11:41:15,837473
3,5,5,12,19,8,4,5,2021-08-07 11:41:15,838474
0,1,2,1,-3,0,-1,-1,2021-08-07 11:41:15,838474
-2,-2,-4,-5,-4,-3,-2,-1,2021-08-07 11:41:15,838474
-5,-6,-12,-25,-28,-12,-4,-4,2021-08-07 11:41:15,853474
-6,-6,-7,-1,-6,-4,-4,-5,2021-08-07 11:41:15,853474
2,2,2,0,10,5,2,2,2021-08-07 11:41:15,853474
3,4,5,15,15,6,3,1,2021-08-07 11:41:15,853474
0,-3,-5,-10,-11,-3,-2,-1,2021-08-07 11:41:15,869474
0,-1,1,1,-2,-2,0,0,2021-08-07 11:41:15,871474
-4,-4,-4,-6,-6,-4,-4,-1,2021-08-07 11:41:15,885472
-3,-2,-2,-5,-8,-3,-3,-3,2021-08-07 11:41:15,901475
-2,-1,-2,0,8,1,-1,0,2021-08-07 11:41:15,917473
-1,-1,-5,-17,-20,-9,-2,-2,2021-08-07 11:41:15,917473
-1,-2,-1,-1,6,0,0,-2,2021-08-07 11:41:15,917473
-1,3,7,17,11,4,1,2,2021-08-07 11:41:15,932474
-1,-2,-4,-17,-14,-7,-3,-2,2021-08-07 11:41:15,932474
2,2,7,22,11,8,1,1,2021-08-07 11:41:15,932474
0,3,3,13,18,4,2,1,2021-08-07 11:41:15,932474
-5,-5,-6,-14,-20,-10,-4,-5,2021-08-07 11:41:15,933474
-4,-3,-7,-18,-19,-8,-2,-1,2021-08-07 11:41:15,948473
4,5,7,22,44,17,5,4,2021-08-07 11:41:15,964474
-1,-1,-1,-2,-6,-3,-2,-1,2021-08-07 11:41:15,980474
-6,-6,-8,-16,-25,-13,-7,-5,2021-08-07 11:41:15,980474
4,4,5,5,8,8,3,3,2021-08-07 11:41:15,980474
4,3,3,5,18,5,3,1,2021-08-07 11:41:15,980474
-1,-1,1,3,1,1,-1,-1,2021-08-07 11:41:15,980474
1,4,1,0,5,0,0,1,2021-08-07 11:41:15,980474
-5,-5,-7,-16,-27,-10,-5,-4,2021-08-07 11:41:15,981474
0,-2,-4,-3,5,0,1,1,2021-08-07 11:41:15,981474
2,0,0,5,11,4,2,2,2021-08-07 11:41:15,981474
-2,-4,-4,-10,-15,-5,-1,-1,2021-08-07 11:41:15,981474
-5,-6,-4,-11,-6,-6,-4,-4,2021-08-07 11:41:15,996473
0,1,7,20,16,9,2,1,2021-08-07 11:41:15,996473
-4,-1,-2,-2,-10,-7,-3,-5,2021-08-07 11:41:15,996473
-3,-2,-6,-21,-22,-7,-7,-4,2021-08-07 11:41:15,996473
6,7,11,33,48,18,6,5,2021-08-07 11:41:16,028474
0,-3,-6,-14,-14,-5,-1,-2,2021-08-07 11:41:16,044473
-3,-5,-7,-12,-19,-8,-4,-2,2021-08-07 11:41:16,060474
3,6,7,14,15,7,5,5,2021-08-07 11:41:16,076473
-1,0,-1,-3,-1,0,0,1,2021-08-07 11:41:16,108474
-2,-2,-3,-14,-22,-8,-3,0,2021-08-07 11:41:16,124474
-3,-4,-3,-1,1,0,0,-1,2021-08-07 11:41:16,140473
-4,-7,-10,-15,-12,-8,-5,-5,2021-08-07 11:41:16,140473
3,4,7,17,17,6,2,2,2021-08-07 11:41:16,140473
0,-2,-3,-8,-13,-5,-3,-2,2021-08-07 11:41:16,140473
-1,-1,0,2,5,1,-2,-2,2021-08-07 11:41:16,140473
-3,-5,-6,-4,-14,-5,-4,-2,2021-08-07 11:41:16,141473
1,2,0,-2,17,5,0,-1,2021-08-07 11:41:16,141473
-2,-2,-3,-4,-2,-2,-1,-2,2021-08-07 11:41:16,141473
-2,1,4,15,6,3,1,0,2021-08-07 11:41:16,141473
1,0,5,13,11,6,2,-1,2021-08-07 11:41:16,141473
-2,-2,-3,4,3,-1,-1,-3,2021-08-07 11:41:16,141473
-3,-3,-8,-19,-22,-11,-5,-3,2021-08-07 11:41:16,141473
-2,-2,-1,-1,-3,-2,-3,-2,2021-08-07 11:41:16,142474
2,5,5,4,9,4,4,2,2021-08-07 11:41:16,156474
-2,-2,-2,-3,-10,-5,0,-1,2021-08-07 11:41:16,156474
-2,-2,-4,-8,-10,-6,-2,-2,2021-08-07 11:41:16,156474
-1,-1,-4,-7,-10,-3,-2,-1,2021-08-07 11:41:16,156474
1,1,4,13,19,9,3,3,2021-08-07 11:41:16,156474
0,-3,0,1,6,3,0,-1,2021-08-07 11:41:16,157476
-4,-5,-6,-8,-10,-5,-4,-4,2021-08-07 11:41:16,157476
3,2,5,10,7,3,3,4,2021-08-07 11:41:16,157476
0,-2,-2,-2,-4,-4,-2,-2,2021-08-07 11:41:16,157476
-2,0,-6,-10,-20,-9,-3,0,2021-08-07 11:41:16,157476
-5,-5,-6,-10,-19,-6,-3,-5,2021-08-07 11:41:16,157476
7,5,6,16,41,17,9,4,2021-08-07 11:41:16,172474
-3,-1,-5,-16,-20,-9,-4,-3,2021-08-07 11:41:16,188475
-2,-4,-1,3,8,1,-1,-3,2021-08-07 11:41:16,220474
-1,0,2,5,-1,-2,-2,1,2021-08-07 11:41:16,236474
-1,-2,-3,-6,-11,-6,-4,-2,2021-08-07 11:41:16,236474
2,-1,0,3,11,5,1,0,2021-08-07 11:41:16,237476
0,-4,-4,-7,-18,-9,-3,-2,2021-08-07 11:41:16,237476
1,1,1,-4,-5,-2,0,0,2021-08-07 11:41:16,237476
0,0,-2,-6,-3,-2,1,0,2021-08-07 11:41:16,237476
-1,0,0,2,-3,-1,-1,1,2021-08-07 11:41:16,238474
-4,-3,-3,1,-8,-1,-4,-4,2021-08-07 11:41:16,238474
2,4,5,16,27,10,5,2,2021-08-07 11:41:16,238474
3,3,2,11,10,3,3,4,2021-08-07 11:41:16,238474
-3,-4,-5,-7,-10,-8,-2,-3,2021-08-07 11:41:16,238474
-2,1,2,-3,-18,-8,-4,-4,2021-08-07 11:41:16,238474
-2,-2,-4,-9,-7,-2,-3,0,2021-08-07 11:41:16,238474
0,3,7,21,25,9,0,-2,2021-08-07 11:41:16,238474
-1,0,-1,-3,-8,-2,0,1,2021-08-07 11:41:16,238474
3,3,4,10,13,3,2,2,2021-08-07 11:41:16,268474
0,-3,-5,-18,-21,-12,-5,-3,2021-08-07 11:41:16,278509
0,-2,-2,-16,-16,-6,-2,-1,2021-08-07 11:41:16,278509
2,0,1,7,2,6,5,2,2021-08-07 11:41:16,278509
-3,-3,-4,0,23,6,-1,1,2021-08-07 11:41:16,279509
-1,0,4,5,1,-3,-5,-3,2021-08-07 11:41:16,299506
-1,-1,1,1,-9,-5,-4,-3,2021-08-07 11:41:16,299506
1,1,2,4,12,3,2,-2,2021-08-07 11:41:16,299506
-2,-4,-9,-14,-17,-5,-1,-1,2021-08-07 11:41:16,299506
-4,-3,-6,-12,-9,-3,-2,-1,2021-08-07 11:41:16,299506
-1,-1,-1,4,10,2,1,0,2021-08-07 11:41:16,299506
0,3,5,8,-3,1,2,2,2021-08-07 11:41:16,300509
-1,-2,-2,-6,-11,-6,-3,-3,2021-08-07 11:41:16,331508
1,5,14,49,55,23,7,1,2021-08-07 11:41:16,331508
-3,-3,-9,-20,-33,-12,-5,-3,2021-08-07 11:41:16,331508
-3,-3,-3,-2,7,2,-2,-1,2021-08-07 11:41:16,331508
2,2,3,8,7,0,3,1,2021-08-07 11:41:16,331508
-2,-4,-7,-8,-9,-4,-2,-2,2021-08-07 11:41:16,332508
2,2,1,0,-10,-4,-3,0,2021-08-07 11:41:16,347507
1,0,-3,-6,-2,2,-2,-1,2021-08-07 11:41:16,347507
-2,-2,-5,-12,-4,-1,-3,-1,2021-08-07 11:41:16,362508
-1,-3,-5,-8,-7,-3,-3,-3,2021-08-07 11:41:16,377508
3,1,4,8,8,6,3,2,2021-08-07 11:41:16,393507
1,-1,3,9,11,2,2,2,2021-08-07 11:41:16,409507
0,2,1,-1,-6,-2,1,1,2021-08-07 11:41:16,425508
-5,-5,-6,-9,-9,-5,-4,-5,2021-08-07 11:41:16,425508
-1,-1,-3,-13,-14,-5,-1,1,2021-08-07 11:41:16,425508
3,1,4,11,15,4,0,-1,2021-08-07 11:41:16,425508
-2,-3,0,1,0,1,-1,-1,2021-08-07 11:41:16,425508
-2,-4,-6,-14,-21,-9,-4,-4,2021-08-07 11:41:16,425508
-2,-2,2,12,25,8,1,1,2021-08-07 11:41:16,425508
-2,-2,-4,-10,-12,-7,-2,-2,2021-08-07 11:41:16,426509
2,4,7,19,26,11,4,3,2021-08-07 11:41:16,426509
-2,0,-4,-10,-13,-5,-3,-1,2021-08-07 11:41:16,426509
-1,-2,-5,-4,-3,-1,-2,-1,2021-08-07 11:41:16,426509
-2,-3,-5,-22,-30,-11,-5,-1,2021-08-07 11:41:16,426509
2,1,3,18,25,7,2,-1,2021-08-07 11:41:16,457508
3,1,4,8,4,2,3,2,2021-08-07 11:41:16,457508
0,0,-3,1,10,2,-2,0,2021-08-07 11:41:16,473509
-3,-4,-4,0,-1,-1,-2,-3,2021-08-07 11:41:16,488508
-1,-1,-2,-12,-24,-5,-4,0,2021-08-07 11:41:16,520029
1,2,3,6,10,3,3,1,2021-08-07 11:41:16,520029
-1,-2,1,3,-8,-5,-2,-1,2021-08-07 11:41:16,520029
0,1,1,3,9,5,2,0,2021-08-07 11:41:16,520029
0,-1,1,0,-2,-2,-1,-1,2021-08-07 11:41:16,520029
-1,0,-2,-3,1,4,1,-1,2021-08-07 11:41:16,521030
-3,-2,-3,-10,-10,-7,-3,-2,2021-08-07 11:41:16,521030
-2,0,0,1,0,-4,-3,-1,2021-08-07 11:41:16,521030
2,2,-3,-4,-8,-1,-2,-1,2021-08-07 11:41:16,521030
-2,-1,-2,-3,-5,-4,-3,-2,2021-08-07 11:41:16,521030
-2,-2,0,2,5,2,1,-2,2021-08-07 11:41:16,521030
-1,0,-3,3,10,2,1,-1,2021-08-07 11:41:16,522029
-2,-4,-5,-10,-9,-4,0,-1,2021-08-07 11:41:16,522029
-2,-2,-2,-1,-5,-5,-2,-1,2021-08-07 11:41:16,522029
1,0,3,6,0,-1,1,0,2021-08-07 11:41:16,522029
-3,-2,-1,-3,-1,0,0,-1,2021-08-07 11:41:16,522029
2,1,3,10,16,5,2,1,2021-08-07 11:41:16,552029
2,0,2,8,20,5,2,2,2021-08-07 11:41:16,552029
-3,0,0,-3,-5,1,-2,-2,2021-08-07 11:41:16,552029
0,0,-1,-5,-6,-3,-2,0,2021-08-07 11:41:16,552029
-7,-7,-9,-15,-25,-14,-7,-6,2021-08-07 11:41:16,568031
2,1,2,1,-3,2,0,3,2021-08-07 11:41:16,584029
-2,-4,-5,-6,0,-1,-2,-4,2021-08-07 11:41:16,584029
-2,-3,-5,-8,-12,-5,-3,-1,2021-08-07 11:41:16,584029
2,4,4,5,11,7,3,2,2021-08-07 11:41:16,584029
1,1,3,7,9,4,1,1,2021-08-07 11:41:16,584029
-3,-3,-5,-10,-10,-5,-3,-2,2021-08-07 11:41:16,585031
-1,-2,-2,1,-3,0,-1,-1,2021-08-07 11:41:16,585031
0,-3,-3,-7,-8,-4,-2,0,2021-08-07 11:41:16,615067
1,0,0,4,2,2,-1,0,2021-08-07 11:41:16,615067
-3,-4,-4,-12,-5,-5,-2,-1,2021-08-07 11:41:16,615067
-2,-1,0,5,8,2,-2,-1,2021-08-07 11:41:16,615067
-1,0,2,14,13,4,1,0,2021-08-07 11:41:16,631028
1,2,0,0,-4,-1,0,-1,2021-08-07 11:41:16,647027
0,1,-5,-26,-29,-8,-3,1,2021-08-07 11:41:16,662030
0,-2,0,1,9,-1,-2,-1,2021-08-07 11:41:16,678027
-1,-1,-4,-4,-2,-2,-3,-1,2021-08-07 11:41:16,694029
-3,-2,3,6,0,0,-1,-4,2021-08-07 11:41:16,694029
-1,-3,0,6,4,1,-1,-1,2021-08-07 11:41:16,694029
-2,-5,-8,-17,-17,-10,-3,0,2021-08-07 11:41:16,694029
-3,-2,-1,-2,-5,-2,-3,-3,2021-08-07 11:41:16,694029
3,4,5,6,7,3,2,2,2021-08-07 11:41:16,694029
-2,-3,-4,-6,-17,-6,-2,-2,2021-08-07 11:41:16,694029
2,2,-1,-6,-2,0,1,0,2021-08-07 11:41:16,695029
-2,-4,-6,-6,-7,-3,0,-2,2021-08-07 11:41:16,710029
-3,-3,-6,-11,-2,-3,-3,-1,2021-08-07 11:41:16,726029
0,3,9,31,28,10,1,0,2021-08-07 11:41:16,740032
2,3,4,11,10,6,3,-1,2021-08-07 11:41:16,740032
1,3,4,9,11,4,1,0,2021-08-07 11:41:16,740032
-6,-9,-17,-49,-73,-30,-11,-7,2021-08-07 11:41:16,740032
10,9,16,53,94,43,23,12,2021-08-07 11:41:16,740032
-1,-4,-5,-10,-27,-6,-3,-4,2021-08-07 11:41:16,741029
-5,-3,-2,-11,-14,-15,-19,-8,2021-08-07 11:41:16,741029
-6,-3,0,7,8,-10,-10,-8,2021-08-07 11:41:16,741029
-5,-5,-11,-28,-38,-17,-10,-6,2021-08-07 11:41:16,741029
0,1,1,5,10,4,6,4,2021-08-07 11:41:16,741029
2,0,1,-2,-5,4,9,5,2021-08-07 11:41:16,741029
1,-3,-4,-8,-3,3,3,1,2021-08-07 11:41:16,742029
-4,-6,-8,-12,-16,-10,-6,-5,2021-08-07 11:41:16,742029
8,10,18,39,41,19,8,6,2021-08-07 11:41:16,742029
-2,-1,-2,-6,-10,-4,-3,-3,2021-08-07 11:41:16,772028
0,-1,2,7,12,4,1,-1,2021-08-07 11:41:16,772028
-2,-2,-5,-16,-26,-9,-4,-1,2021-08-07 11:41:16,772028
-4,-6,-6,-2,8,0,-2,-4,2021-08-07 11:41:16,772028
3,2,0,-3,-3,-2,1,2,2021-08-07 11:41:16,788029
4,3,6,15,17,7,2,-1,2021-08-07 11:41:16,803028
-5,-6,-9,-15,-24,-12,-6,-5,2021-08-07 11:41:16,803028
6,7,3,-12,-20,-6,0,3,2021-08-07 11:41:16,803028
0,-2,1,11,24,10,7,2,2021-08-07 11:41:16,803028
2,1,2,15,36,16,8,4,2021-08-07 11:41:16,803028
-3,-2,-2,-5,-1,-2,-2,-4,2021-08-07 11:41:16,819028
-10,-8,-9,-18,-17,-13,-12,-11,2021-08-07 11:41:16,819028
-1,4,9,23,20,9,2,0,2021-08-07 11:41:16,835029
-4,-2,-2,-8,-14,-3,-1,-2,2021-08-07 11:41:16,835029
-4,-3,-4,-7,-10,-5,-2,-1,2021-08-07 11:41:16,835029
5,4,3,6,11,0,-1,1,2021-08-07 11:41:16,835029
4,3,1,-7,3,3,1,1,2021-08-07 11:41:16,851029
-4,-5,-6,-6,-16,-7,-4,-4,2021-08-07 11:41:16,867029
3,1,1,4,8,5,2,3,2021-08-07 11:41:16,867029
-5,-7,-4,-6,-2,-1,-1,-4,2021-08-07 11:41:16,867029
-1,-3,-6,-5,-17,-7,0,-1,2021-08-07 11:41:16,867029
-2,-4,-6,-11,-1,-2,-2,-1,2021-08-07 11:41:16,867029
6,6,8,16,9,3,-2,0,2021-08-07 11:41:16,867029
-3,-4,-5,-1,-2,-4,-3,-3,2021-08-07 11:41:16,868031
-2,-2,-1,0,0,-2,-2,-3,2021-08-07 11:41:16,898028
-1,-1,-8,-19,-25,-11,-3,0,2021-08-07 11:41:16,914028
-2,-2,-6,-28,-26,-8,-2,0,2021-08-07 11:41:16,914028
-1,2,7,29,38,12,2,-1,2021-08-07 11:41:16,914028
-3,-4,-4,-1,-10,-2,-3,-3,2021-08-07 11:41:16,914028
-2,-3,-5,-12,-16,-8,-3,-1,2021-08-07 11:41:16,914028
1,1,3,12,24,7,0,0,2021-08-07 11:41:16,914028
2,3,2,5,12,6,1,1,2021-08-07 11:41:16,915029
0,-1,-2,-7,-9,-4,-1,-1,2021-08-07 11:41:16,930030
-3,-3,-2,-3,-8,-4,-4,-3,2021-08-07 11:41:16,930030
-1,-1,-1,-4,-14,-6,-4,-2,2021-08-07 11:41:16,946029
-1,-2,-1,1,-1,-1,1,1,2021-08-07 11:41:16,946029
-5,-7,-8,-12,-10,-7,-3,-1,2021-08-07 11:41:16,946029
5,5,11,29,43,16,6,4,2021-08-07 11:41:16,946029
1,0,-3,-6,-6,-4,1,-2,2021-08-07 11:41:16,946029
-2,-1,-3,-3,-10,-4,-3,-2,2021-08-07 11:41:16,946029
-3,-2,-5,-19,-21,-9,-4,-1,2021-08-07 11:41:16,978029
2,2,1,10,12,5,3,2,2021-08-07 11:41:16,978029
1,2,2,7,5,1,2,1,2021-08-07 11:41:16,978029
0,0,-2,-9,-12,-4,-2,-2,2021-08-07 11:41:16,978029
-3,-1,1,2,3,0,-2,-3,2021-08-07 11:41:16,994029
-3,-3,-4,-15,-15,-4,-3,-2,2021-08-07 11:41:17,010029
-2,-1,0,9,9,1,0,-2,2021-08-07 11:41:17,010029
0,0,0,-4,-1,0,2,0,2021-08-07 11:41:17,010029
-4,-4,-10,-24,-36,-13,-6,-3,2021-08-07 11:41:17,010029
5,8,14,49,67,27,9,4,2021-08-07 11:41:17,010029
-2,-5,-1,-3,-6,-3,-1,-2,2021-08-07 11:41:17,010029
-2,-2,1,-3,-6,-2,-1,-1,2021-08-07 11:41:17,010029
-4,-5,-8,-13,-15,-8,-4,-2,2021-08-07 11:41:17,042029
-1,-1,-5,-21,-28,-9,-4,-3,2021-08-07 11:41:17,042029
3,3,5,19,35,13,3,3,2021-08-07 11:41:17,058028
0,-3,-6,-5,-11,-6,-3,-2,2021-08-07 11:41:17,058028
4,5,12,18,15,6,5,2,2021-08-07 11:41:17,058028
-2,-4,-3,1,-2,-4,-3,-4,2021-08-07 11:41:17,058028
1,0,2,-2,-2,-1,0,-1,2021-08-07 11:41:17,058028
-1,-1,-1,-5,-4,-1,-1,0,2021-08-07 11:41:17,058028
0,0,-1,3,7,2,-1,0,2021-08-07 11:41:17,074029
-3,-3,-2,-7,-12,-5,-2,-3,2021-08-07 11:41:17,074029
-4,-5,-9,-12,-15,-6,-3,-1,2021-08-07 11:41:17,074029
-1,-1,2,10,6,0,0,0,2021-08-07 11:41:17,074029
2,4,7,20,26,10,4,0,2021-08-07 11:41:17,090031
0,-1,0,-6,-8,-2,-1,1,2021-08-07 11:41:17,090031
-5,-6,-6,-17,-18,-10,-5,-5,2021-08-07 11:41:17,090031
2,4,3,11,9,6,3,2,2021-08-07 11:41:17,090031
-1,-1,-3,-4,1,-1,-2,-1,2021-08-07 11:41:17,121028
-1,-1,2,-2,-7,-3,0,-1,2021-08-07 11:41:17,121028
-1,0,-1,-1,1,-1,0,0,2021-08-07 11:41:17,121028
-2,-3,-2,-6,-4,-1,-1,-1,2021-08-07 11:41:17,121028
0,-2,1,0,3,0,-3,-2,2021-08-07 11:41:17,121028
-4,-4,-5,-14,-14,-7,-4,-3,2021-08-07 11:41:17,121028
0,2,5,17,14,6,1,1,2021-08-07 11:41:17,152027
-2,-2,0,1,1,-1,0,-2,2021-08-07 11:41:17,152027
2,1,0,-10,-23,-7,-2,0,2021-08-07 11:41:17,152027
3,2,5,22,38,17,5,3,2021-08-07 11:41:17,152027
0,-2,1,6,8,2,-2,-2,2021-08-07 11:41:17,152027
-3,-3,-2,3,9,0,-2,-2,2021-08-07 11:41:17,152027
1,1,0,-7,-5,-3,1,2,2021-08-07 11:41:17,184029
-3,-5,-6,-15,-34,-17,-7,-4,2021-08-07 11:41:17,184029
3,0,0,5,16,11,3,1,2021-08-07 11:41:17,184029
2,1,-2,-1,5,1,-1,-1,2021-08-07 11:41:17,184029
-3,-4,-5,-9,-8,-3,-2,-2,2021-08-07 11:41:17,200028
-4,-5,-6,-14,-17,-7,-4,-3,2021-08-07 11:41:17,200028
-1,0,5,15,12,3,0,0,2021-08-07 11:41:17,200028
-2,0,-2,-10,-22,-10,-4,-2,2021-08-07 11:41:17,200028
2,5,5,13,22,7,2,3,2021-08-07 11:41:17,215028
1,1,0,-3,-3,0,-1,0,2021-08-07 11:41:17,215028
-1,-2,-5,-4,-5,-4,-3,-3,2021-08-07 11:41:17,215028
-2,-3,-2,-8,-11,-2,-4,-1,2021-08-07 11:41:17,215028
0,-1,-1,-2,-1,-1,0,0,2021-08-07 11:41:17,246031
2,2,4,16,21,8,3,1,2021-08-07 11:41:17,262029
-5,-6,-7,-17,-25,-12,-5,-4,2021-08-07 11:41:17,278029
1,1,2,13,21,9,3,1,2021-08-07 11:41:17,278029
0,-2,-2,5,7,3,1,-1,2021-08-07 11:41:17,278029
-3,-5,-8,-23,-19,-11,-5,-4,2021-08-07 11:41:17,278029
5,9,11,19,26,12,5,3,2021-08-07 11:41:17,278029
4,5,6,13,4,3,2,3,2021-08-07 11:41:17,279029
-3,-3,-5,-12,-9,-4,-2,1,2021-08-07 11:41:17,279029
-2,-2,0,4,-2,-3,-2,-2,2021-08-07 11:41:17,279029
-6,-10,-15,-43,-35,-15,-7,-4,2021-08-07 11:41:17,279029
-1,0,5,21,20,7,-1,-1,2021-08-07 11:41:17,279029
2,1,0,2,-2,2,2,1,2021-08-07 11:41:17,294027
3,4,5,7,16,11,10,7,2021-08-07 11:41:17,294027
1,-1,-3,-13,-30,-3,2,1,2021-08-07 11:41:17,294027
3,2,2,9,29,9,-2,0,2021-08-07 11:41:17,294027
-6,-5,0,8,8,-12,-14,-10,2021-08-07 11:41:17,310028
-6,-4,-10,-21,-28,-14,-9,-6,2021-08-07 11:41:17,310028
-3,-4,-4,-13,-32,-15,-3,-3,2021-08-07 11:41:17,310028
-3,-5,-9,-31,-34,-8,2,-1,2021-08-07 11:41:17,310028
6,4,9,24,21,16,11,6,2021-08-07 11:41:17,342028
3,3,7,25,45,18,6,3,2021-08-07 11:41:17,342028
-5,-4,-5,-9,-7,-6,-4,-6,2021-08-07 11:41:17,342028
-2,1,2,-4,-19,-10,-8,-5,2021-08-07 11:41:17,342028
-2,-2,-5,-19,-24,-9,-1,0,2021-08-07 11:41:17,358029
1,0,2,5,5,3,0,0,2021-08-07 11:41:17,374029
1,3,5,19,18,4,0,0,2021-08-07 11:41:17,389029
-8,-7,-8,-14,-11,-11,-8,-7,2021-08-07 11:41:17,389029
-1,-2,-1,2,17,10,11,3,2021-08-07 11:41:17,389029
7,6,2,1,-7,3,4,4,2021-08-07 11:41:17,389029
-6,-5,-8,-16,-27,-14,-11,-5,2021-08-07 11:41:17,389029
0,2,2,12,42,8,0,-1,2021-08-07 11:41:17,390028
-4,-2,-4,-6,-14,-6,-4,-3,2021-08-07 11:41:17,390028
-1,0,1,8,11,6,3,0,2021-08-07 11:41:17,390028
0,-3,-1,3,11,5,4,1,2021-08-07 11:41:17,390028
2,2,-3,-11,-15,-6,0,0,2021-08-07 11:41:17,390028
1,-1,-4,-10,-21,-7,-4,-2,2021-08-07 11:41:17,421030
-3,-4,-1,3,20,3,-3,-3,2021-08-07 11:41:17,421030
2,4,5,11,4,2,0,1,2021-08-07 11:41:17,421030
-2,-3,-5,-7,-3,1,2,0,2021-08-07 11:41:17,421030
3,6,7,20,34,12,2,2,2021-08-07 11:41:17,421030
-6,-7,-13,-41,-66,-25,-12,-8,2021-08-07 11:41:17,421030
6,5,9,34,51,17,8,6,2021-08-07 11:41:17,437029
1,2,2,8,7,5,3,2,2021-08-07 11:41:17,453030
-2,-3,-5,-9,-10,-6,-6,-3,2021-08-07 11:41:17,453030
-1,2,2,2,-3,-2,-3,-2,2021-08-07 11:41:17,453030
-2,-3,-5,-15,-18,-6,-2,-2,2021-08-07 11:41:17,453030
-2,-5,-4,-8,-22,-9,-2,-1,2021-08-07 11:41:17,453030
-4,-6,-6,0,3,2,-3,-1,2021-08-07 11:41:17,485029
3,6,7,15,21,7,4,2,2021-08-07 11:41:17,501028
-1,0,-2,-8,-20,-5,-2,-2,2021-08-07 11:41:17,501028
-1,0,-1,-2,13,4,1,1,2021-08-07 11:41:17,501028
-4,-6,-3,2,-3,-3,-3,-4,2021-08-07 11:41:17,501028
-1,0,2,7,5,1,-2,0,2021-08-07 11:41:17,501028
1,1,-3,-7,2,2,0,-1,2021-08-07 11:41:17,502029
0,-1,-2,2,-7,-5,0,-2,2021-08-07 11:41:17,502029
-4,-4,-7,-15,-24,-10,-4,-4,2021-08-07 11:41:17,517029
6,8,7,14,24,6,3,5,2021-08-07 11:41:17,532027
0,0,5,13,17,5,0,-1,2021-08-07 11:41:17,548028
-2,-4,-4,-7,-20,-7,-1,-3,2021-08-07 11:41:17,548028
-1,2,1,-2,3,1,0,1,2021-08-07 11:41:17,548028
-6,-9,-9,-13,-26,-15,-5,-4,2021-08-07 11:41:17,548028
-3,-3,-4,-9,4,-1,-2,-1,2021-08-07 11:41:17,548028
-1,0,1,3,3,2,0,0,2021-08-07 11:41:17,548028
1,0,1,0,-1,0,-2,-1,2021-08-07 11:41:17,549029
-1,-2,0,3,0,-2,-1,-2,2021-08-07 11:41:17,549029
-1,-3,-2,-2,-2,-1,-1,0,2021-08-07 11:41:17,549029
2,3,-1,-6,-8,-3,1,0,2021-08-07 11:41:17,549029
0,2,4,7,10,3,0,0,2021-08-07 11:41:17,580030
-4,-4,-5,-16,-22,-9,-4,-3,2021-08-07 11:41:17,596028
-2,-4,-4,0,-7,-3,-3,-2,2021-08-07 11:41:17,612030
3,5,5,11,12,5,3,4,2021-08-07 11:41:17,612030
4,3,8,28,47,18,6,4,2021-08-07 11:41:17,612030
0,0,-2,-4,-7,-2,0,0,2021-08-07 11:41:17,612030
-3,-3,-5,-7,-11,-6,-2,-3,2021-08-07 11:41:17,612030
-6,-4,-4,-12,-13,-8,-3,-5,2021-08-07 11:41:17,612030
-3,-1,6,20,19,7,-1,-2,2021-08-07 11:41:17,612030
-4,-4,-3,-12,-7,-6,-3,-5,2021-08-07 11:41:17,613029
4,8,8,14,12,2,1,3,2021-08-07 11:41:17,613029
-2,-3,-6,-15,-20,-8,-5,-3,2021-08-07 11:41:17,628029
1,2,1,3,3,0,1,1,2021-08-07 11:41:17,630029
0,-2,-4,-1,1,3,0,1,2021-08-07 11:41:17,630029
-3,-5,-6,-13,-16,-8,-3,-2,2021-08-07 11:41:17,630029
1,-1,0,-8,-3,0,1,1,2021-08-07 11:41:17,630029
4,4,3,13,17,7,5,2,2021-08-07 11:41:17,660030
-3,-3,-1,-2,-5,-2,-3,-1,2021-08-07 11:41:17,676029
0,0,0,3,7,2,2,2,2021-08-07 11:41:17,676029
-4,-5,-8,-9,-14,-7,-5,-3,2021-08-07 11:41:17,676029
-2,-3,-5,-16,-17,-6,-1,-1,2021-08-07 11:41:17,676029
-2,-4,0,14,13,6,0,-1,2021-08-07 11:41:17,676029
1,3,0,-11,-18,-5,-2,0,2021-08-07 11:41:17,676029
5,6,8,25,40,17,6,3,2021-08-07 11:41:17,677029
-5,-5,-7,-16,-22,-11,-6,-3,2021-08-07 11:41:17,692029
0,1,4,9,11,4,3,0,2021-08-07 11:41:17,692029
-5,-6,-8,-19,-31,-13,-5,-5,2021-08-07 11:41:17,692029
-3,-4,-5,-10,-4,0,-2,-2,2021-08-07 11:41:17,692029
4,7,14,35,37,13,6,2,2021-08-07 11:41:17,724028
0,1,-5,-4,-5,-3,-1,0,2021-08-07 11:41:17,740029
-3,-8,-1,0,-3,-1,-1,-1,2021-08-07 11:41:17,755030
-5,-4,-8,-18,-24,-12,-4,-4,2021-08-07 11:41:17,755030
-2,-3,-5,-16,-21,-11,-3,-2,2021-08-07 11:41:17,755030
-1,2,2,-8,-7,-2,-1,0,2021-08-07 11:41:17,755030
5,7,8,21,30,14,7,6,2021-08-07 11:41:17,755030
-1,1,1,4,-2,0,0,1,2021-08-07 11:41:17,755030
-4,-4,-5,-10,-8,-4,-3,-5,2021-08-07 11:41:17,755030
-2,-1,-4,-9,-18,-8,-2,-2,2021-08-07 11:41:17,755030
2,3,3,7,20,7,3,2,2021-08-07 11:41:17,756029
0,0,0,8,12,6,3,2,2021-08-07 11:41:17,756029
-3,-3,-4,-6,-9,-3,-3,-4,2021-08-07 11:41:17,786027
0,-3,-2,0,-6,-3,-2,-2,2021-08-07 11:41:17,802029
-4,-2,-2,-1,4,-1,-4,-4,2021-08-07 11:41:17,833028
2,3,1,1,-5,-4,-2,1,2021-08-07 11:41:17,849028
-1,-3,-6,-15,-13,-5,-3,1,2021-08-07 11:41:17,849028
-2,-2,1,9,16,8,0,0,2021-08-07 11:41:17,849028
-1,0,0,-1,3,0,-1,-2,2021-08-07 11:41:17,849028
0,-1,0,-3,-6,-2,0,0,2021-08-07 11:41:17,849028
-3,-2,-3,-12,-17,-7,-2,-2,2021-08-07 11:41:17,849028
-1,2,4,6,12,3,0,-1,2021-08-07 11:41:17,849028
-2,-2,0,2,-3,-3,-1,-2,2021-08-07 11:41:17,850028
-3,-6,-7,-17,-22,-9,-2,-3,2021-08-07 11:41:17,850028
-1,-2,-5,-4,0,-3,-3,-2,2021-08-07 11:41:17,850028
1,0,4,8,3,5,1,1,2021-08-07 11:41:17,850028
1,1,1,5,18,6,3,1,2021-08-07 11:41:17,850028
-2,-2,-2,-1,-2,-1,-2,-2,2021-08-07 11:41:17,850028
-1,-2,1,4,5,2,0,0,2021-08-07 11:41:17,850028
-2,-3,-8,-10,-14,-7,-3,-3,2021-08-07 11:41:17,851028
-1,-3,-6,-15,-18,-5,-2,-3,2021-08-07 11:41:17,851028
-1,-2,-1,4,7,0,-1,-1,2021-08-07 11:41:17,851028
1,0,-2,-9,-11,-4,-3,-1,2021-08-07 11:41:17,881029
1,1,-1,-3,4,0,-1,0,2021-08-07 11:41:17,897028
-3,-3,-3,-5,-16,-7,-3,-3,2021-08-07 11:41:17,897028
0,2,4,12,16,6,3,0,2021-08-07 11:41:17,897028
1,0,1,1,-2,-1,-1,-2,2021-08-07 11:41:17,897028
-1,-3,-3,-6,-8,-6,-3,-1,2021-08-07 11:41:17,897028
-2,-1,-1,-3,-8,-4,-3,-2,2021-08-07 11:41:17,897028
1,1,1,4,7,6,2,2,2021-08-07 11:41:17,898028
-2,1,4,19,23,9,2,2,2021-08-07 11:41:17,913028
-1,0,0,1,0,0,0,0,2021-08-07 11:41:17,913028
0,1,-1,-8,-6,-5,-3,-1,2021-08-07 11:41:17,913028
2,0,-1,-5,-10,-5,-2,-1,2021-08-07 11:41:17,913028
-1,-3,-5,-16,-29,-11,-5,-2,2021-08-07 11:41:17,929029
-2,-3,0,6,20,6,0,-1,2021-08-07 11:41:17,944029
-2,-3,0,6,15,5,0,-1,2021-08-07 11:41:17,960029
0,0,1,7,1,1,0,2,2021-08-07 11:41:17,960029
-2,-3,-6,-10,-16,-8,-1,-1,2021-08-07 11:41:17,976027
-1,-1,-3,-14,-15,-9,-4,-2,2021-08-07 11:41:17,976027
-1,-2,2,12,13,1,-2,-2,2021-08-07 11:41:17,976027
2,1,4,6,10,6,1,0,2021-08-07 11:41:17,976027
-1,-1,-1,-2,-1,3,4,1,2021-08-07 11:41:17,976027
1,1,0,-3,-2,3,6,4,2021-08-07 11:41:17,976027
2,-2,-1,-3,-5,1,-3,1,2021-08-07 11:41:17,991027
-5,-4,-8,-13,-21,-17,-12,-8,2021-08-07 11:41:18,007030
-3,-2,2,10,19,2,-4,-4,2021-08-07 11:41:18,023029
-2,-2,0,2,1,1,1,-2,2021-08-07 11:41:18,023029
1,2,-3,-6,-6,1,4,1,2021-08-07 11:41:18,023029
0,-2,0,0,3,3,3,0,2021-08-07 11:41:18,023029
-1,-1,-2,-4,-6,-3,-1,-1,2021-08-07 11:41:18,023029
3,2,0,-3,3,2,1,2,2021-08-07 11:41:18,024029
0,1,2,10,5,3,1,0,2021-08-07 11:41:18,024029
-1,0,-1,-8,-17,-2,1,0,2021-08-07 11:41:18,024029
1,4,3,3,9,2,-3,-2,2021-08-07 11:41:18,039028
-3,-3,-2,11,24,4,-2,-3,2021-08-07 11:41:18,039028
-5,-3,-3,-10,-16,-7,-4,-3,2021-08-07 11:41:18,039028
-1,-2,-2,-3,2,1,1,1,2021-08-07 11:41:18,039028
-3,-4,-7,-18,-18,-7,-2,-2,2021-08-07 11:41:18,055029
2,-1,4,11,-1,0,-1,1,2021-08-07 11:41:18,070028
2,3,2,2,9,0,-1,1,2021-08-07 11:41:18,070028
-3,-4,-4,-2,-7,-5,-3,-3,2021-08-07 11:41:18,070028
0,-1,-1,-4,5,2,2,1,2021-08-07 11:41:18,070028
0,-1,-1,-2,1,-2,-2,-3,2021-08-07 11:41:18,071028
-1,0,-2,-4,-1,3,1,0,2021-08-07 11:41:18,071028
-1,-1,5,20,15,7,0,-1,2021-08-07 11:41:18,071028
-3,-3,-3,-10,-14,-6,-4,-3,2021-08-07 11:41:18,103029
-3,-2,-4,-5,-10,-3,-3,-2,2021-08-07 11:41:18,103029
-1,-2,-3,-8,-11,-7,-1,-2,2021-08-07 11:41:18,119028
4,3,1,-1,5,2,2,3,2021-08-07 11:41:18,119028
3,2,5,17,23,11,5,3,2021-08-07 11:41:18,119028
-2,-2,-2,-5,-7,-4,-3,-3,2021-08-07 11:41:18,119028
0,0,0,4,6,4,1,-1,2021-08-07 11:41:18,119028
-5,-5,-4,-9,-7,-5,-4,-4,2021-08-07 11:41:18,119028
0,-1,1,5,4,1,1,1,2021-08-07 11:41:18,135028
2,3,1,1,-3,-1,0,1,2021-08-07 11:41:18,151028
-2,-2,-5,-8,-10,-4,-3,0,2021-08-07 11:41:18,151028
0,-1,-3,0,2,3,-1,-1,2021-08-07 11:41:18,151028
-1,-1,0,2,6,1,1,1,2021-08-07 11:41:18,151028
-2,-2,-2,-6,-9,-4,-3,-2,2021-08-07 11:41:18,151028
0,1,5,19,18,7,3,1,2021-08-07 11:41:18,151028
-4,-3,-4,-9,-7,-6,-2,-2,2021-08-07 11:41:18,152029
1,1,0,-7,-25,-10,-2,0,2021-08-07 11:41:18,183029
2,3,6,19,39,15,5,2,2021-08-07 11:41:18,199027
1,1,0,-6,-4,-1,-1,1,2021-08-07 11:41:18,199027
-1,0,-2,-3,-3,0,-2,-3,2021-08-07 11:41:18,199027
-3,-2,-3,-1,-7,-5,-3,-2,2021-08-07 11:41:18,199027
1,0,-1,-4,-7,-4,-2,-1,2021-08-07 11:41:18,199027
-2,-2,-3,-4,-4,-3,-3,-3,2021-08-07 11:41:18,199027
-4,-3,-3,-6,-10,-6,-3,-2,2021-08-07 11:41:18,200028
-3,-4,-6,-18,-17,-10,-4,-5,2021-08-07 11:41:18,230029
-2,1,0,-3,-3,0,0,1,2021-08-07 11:41:18,245029
0,-3,0,1,6,4,1,0,2021-08-07 11:41:18,245029
1,1,3,12,8,3,3,1,2021-08-07 11:41:18,245029
1,-1,0,3,7,2,-1,-2,2021-08-07 11:41:18,245029
-5,-5,-5,-11,-21,-12,-5,-3,2021-08-07 11:41:18,245029
-2,-2,-3,-3,4,0,-1,-1,2021-08-07 11:41:18,246029
2,2,3,0,4,1,1,1,2021-08-07 11:41:18,246029
-2,-1,-2,0,3,2,1,0,2021-08-07 11:41:18,246029
-2,-4,-7,-9,-17,-7,-3,-4,2021-08-07 11:41:18,246029
-2,-4,-5,-16,-20,-10,-4,-2,2021-08-07 11:41:18,261028
1,3,8,24,29,14,3,2,2021-08-07 11:41:18,277030
6,8,6,14,12,6,3,4,2021-08-07 11:41:18,293027
-3,-4,-5,-10,-13,-6,-3,-2,2021-08-07 11:41:18,309030
-4,-4,-2,-7,-11,-6,-2,-3,2021-08-07 11:41:18,325030
-2,-3,-6,-17,-14,-6,-4,-3,2021-08-07 11:41:18,325030
1,2,5,23,37,12,3,2,2021-08-07 11:41:18,325030
-1,-3,-1,1,2,0,0,-1,2021-08-07 11:41:18,325030
-1,-1,-4,-8,-16,-6,-4,-1,2021-08-07 11:41:18,325030
1,1,-1,-4,-8,-4,0,0,2021-08-07 11:41:18,326029
0,-1,0,6,9,5,2,1,2021-08-07 11:41:18,326029
-2,-1,2,7,-1,1,-1,-1,2021-08-07 11:41:18,326029
-2,-1,1,10,19,6,1,-1,2021-08-07 11:41:18,326029
0,-2,-1,-4,-6,-1,0,0,2021-08-07 11:41:18,326029
0,-2,-4,-17,-16,-8,-4,-2,2021-08-07 11:41:18,341028
-1,-3,-2,-1,-2,-4,-3,-2,2021-08-07 11:41:18,341028
3,1,1,4,6,8,2,3,2021-08-07 11:41:18,341028
1,1,3,8,8,3,1,1,2021-08-07 11:41:18,341028
-3,-2,-4,-15,-18,-8,-4,-4,2021-08-07 11:41:18,357030
1,3,3,7,8,2,1,2,2021-08-07 11:41:18,357030
-4,-2,-3,-4,-10,-8,-5,-3,2021-08-07 11:41:18,357030
-2,0,-3,-13,-10,-6,-1,-1,2021-08-07 11:41:18,357030
-5,-6,-5,-2,-14,-6,-3,-3,2021-08-07 11:41:18,373029
2,1,0,2,13,5,1,1,2021-08-07 11:41:18,389029
0,0,2,7,6,1,0,-1,2021-08-07 11:41:18,405029
-1,-3,-2,-13,-10,-3,-2,-2,2021-08-07 11:41:18,405029
-1,-2,0,7,11,3,1,1,2021-08-07 11:41:18,405029
-2,-5,-5,-5,-2,-1,-1,-1,2021-08-07 11:41:18,405029
2,1,-2,-5,-2,-1,3,3,2021-08-07 11:41:18,405029
1,0,3,10,10,4,2,2,2021-08-07 11:41:18,405029
-3,-2,0,-5,-9,-2,-2,-1,2021-08-07 11:41:18,406030
-7,-7,-8,-16,-15,-5,-8,-7,2021-08-07 11:41:18,406030
-3,-1,3,7,7,-1,-4,-3,2021-08-07 11:41:18,421028
2,5,3,-4,-8,-3,-1,2,2021-08-07 11:41:18,421028
0,0,-1,-5,-6,-2,-2,0,2021-08-07 11:41:18,436028
1,0,2,6,17,6,2,0,2021-08-07 11:41:18,452029
-1,-4,-3,-2,-8,-4,-2,1,2021-08-07 11:41:18,452029
0,-1,-3,1,0,-1,-1,-2,2021-08-07 11:41:18,452029
-1,-1,-1,-2,-2,-2,-1,-1,2021-08-07 11:41:18,452029
-1,-1,-4,-10,-18,-8,-2,-1,2021-08-07 11:41:18,452029
-2,-3,-3,-7,-10,-4,-1,-1,2021-08-07 11:41:18,452029
2,2,4,11,25,10,3,2,2021-08-07 11:41:18,453032
5,5,5,7,15,9,4,3,2021-08-07 11:41:18,483028
-1,0,2,6,0,1,4,3,2021-08-07 11:41:18,499027
-3,-5,-4,-4,-2,0,-2,-4,2021-08-07 11:41:18,515029
-6,-8,-9,-13,-20,-14,-11,-8,2021-08-07 11:41:18,515029
-2,-1,-1,-8,-3,-6,-6,-3,2021-08-07 11:41:18,515029
3,3,0,3,1,0,1,3,2021-08-07 11:41:18,515029
-1,0,-2,-4,-6,-2,1,1,2021-08-07 11:41:18,521029
-3,-5,-5,4,8,5,4,0,2021-08-07 11:41:18,521029
2,3,1,2,0,2,-1,0,2021-08-07 11:41:18,521029
-2,-3,-2,-7,-13,-6,-4,-3,2021-08-07 11:41:18,521029
5,5,5,14,22,11,5,3,2021-08-07 11:41:18,521029
0,0,3,3,-4,-2,-2,0,2021-08-07 11:41:18,521029
-3,-2,0,7,8,2,-1,-1,2021-08-07 11:41:18,531029
-3,-2,-1,4,13,4,0,-1,2021-08-07 11:41:18,547029
0,-1,-2,-11,-17,-7,-4,-1,2021-08-07 11:41:18,547029
-1,-3,-6,-8,-4,-4,-2,-1,2021-08-07 11:41:18,547029
0,0,2,3,-3,-2,-1,-1,2021-08-07 11:41:18,547029
-2,0,2,-1,-7,-2,0,1,2021-08-07 11:41:18,547029
0,-1,1,7,14,7,0,-1,2021-08-07 11:41:18,548028
0,3,8,27,26,9,5,0,2021-08-07 11:41:18,548028
-2,-2,-5,-4,-9,-4,0,-2,2021-08-07 11:41:18,579031
-2,-2,-6,-19,-17,-11,-6,-5,2021-08-07 11:41:18,595028
-2,-2,1,-2,-14,-3,-3,-2,2021-08-07 11:41:18,595028
3,7,6,12,24,8,3,5,2021-08-07 11:41:18,595028
-2,-3,-7,-14,-5,0,0,-3,2021-08-07 11:41:18,595028
2,3,6,22,15,4,2,2,2021-08-07 11:41:18,595028
3,5,2,0,-4,-1,2,1,2021-08-07 11:41:18,595028
-2,-4,-6,-8,-15,-4,-4,-4,2021-08-07 11:41:18,596031
-6,-6,-6,-9,-8,-5,-3,-4,2021-08-07 11:41:18,626027
1,1,0,-4,2,2,1,2,2021-08-07 11:41:18,626027
2,1,0,-4,-2,-3,0,0,2021-08-07 11:41:18,626027
0,0,2,18,31,10,2,0,2021-08-07 11:41:18,626027
2,2,0,1,-1,1,1,3,2021-08-07 11:41:18,642030
-1,-1,0,0,-4,-2,-2,-2,2021-08-07 11:41:18,658029
-1,-2,-4,-8,-9,-2,1,0,2021-08-07 11:41:18,674030
-3,-5,-8,-16,-6,-6,-1,-4,2021-08-07 11:41:18,674030
0,1,2,11,2,-3,-1,0,2021-08-07 11:41:18,674030
-2,-4,-4,-7,-7,-2,-3,-2,2021-08-07 11:41:18,674030
1,3,2,8,23,8,0,-1,2021-08-07 11:41:18,674030
-3,-4,-4,-14,-21,-8,-5,-2,2021-08-07 11:41:18,675029
-1,1,4,6,2,-2,-2,-3,2021-08-07 11:41:18,675029
1,2,1,-3,-10,-3,0,0,2021-08-07 11:41:18,675029
-2,-2,-3,0,4,-2,-3,-3,2021-08-07 11:41:18,675029
-4,-4,-6,-11,-15,-5,-4,-3,2021-08-07 11:41:18,675029
-1,-2,-2,-1,9,3,0,0,2021-08-07 11:41:18,705028
0,2,3,5,10,4,1,0,2021-08-07 11:41:18,721027
-3,-5,-6,-6,-4,-4,-2,-3,2021-08-07 11:41:18,737029
0,1,5,12,-1,1,1,1,2021-08-07 11:41:18,737029
1,0,-1,-12,-19,-5,0,2,2021-08-07 11:41:18,753028
0,2,4,14,17,8,2,0,2021-08-07 11:41:18,753028
4,4,4,11,14,5,2,2,2021-08-07 11:41:18,769027
-3,-1,-4,-11,-18,-8,-5,-3,2021-08-07 11:41:18,769027
0,-1,2,4,4,1,-2,-1,2021-08-07 11:41:18,769027
-3,-6,-7,-13,-10,-3,-1,-1,2021-08-07 11:41:18,769027
0,1,-1,-2,-7,-5,-2,1,2021-08-07 11:41:18,769027
0,-1,-2,-9,-10,-2,-2,0,2021-08-07 11:41:18,769027
0,1,2,14,16,5,1,-1,2021-08-07 11:41:18,769027
1,2,0,7,13,4,0,0,2021-08-07 11:41:18,769027
-2,0,1,3,0,1,-1,-1,2021-08-07 11:41:18,770029
-2,-3,-5,-9,-12,-4,0,-1,2021-08-07 11:41:18,770029
-1,-2,-6,-12,-11,-3,-1,0,2021-08-07 11:41:18,770029
-2,-3,-4,-4,-7,-3,-3,-2,2021-08-07 11:41:18,784028
1,-1,1,15,10,2,2,1,2021-08-07 11:41:18,816030
0,0,-1,-3,2,0,-1,-3,2021-08-07 11:41:18,832028
-2,-2,-4,-5,-3,-2,-3,-1,2021-08-07 11:41:18,832028
0,-1,1,0,-1,-2,-1,-1,2021-08-07 11:41:18,832028
0,-2,-2,-7,-11,-5,0,-2,2021-08-07 11:41:18,848029
-1,-1,-1,5,11,4,2,-1,2021-08-07 11:41:18,863028
-6,-7,-6,-9,-10,-6,-2,-2,2021-08-07 11:41:18,895029
0,-1,-1,-4,-5,-2,-2,1,2021-08-07 11:41:18,895029
-2,-2,-2,3,9,5,-1,0,2021-08-07 11:41:18,895029
3,6,7,9,4,5,2,2,2021-08-07 11:41:18,895029
-1,-1,-5,-7,-10,-6,-2,-4,2021-08-07 11:41:18,895029
-2,-3,-3,-9,-13,-3,1,0,2021-08-07 11:41:18,895029
-1,-4,2,12,29,11,0,1,2021-08-07 11:41:18,896032
2,3,3,2,1,1,2,1,2021-08-07 11:41:18,896032
1,0,-1,-2,-5,-3,-2,0,2021-08-07 11:41:18,896032
-4,-1,0,1,-3,-2,-2,-3,2021-08-07 11:41:18,896032
-1,-3,-5,-9,-3,0,-2,-1,2021-08-07 11:41:18,896032
-1,-1,3,14,6,0,-1,-2,2021-08-07 11:41:18,896032
0,0,0,-1,-2,0,-1,-1,2021-08-07 11:41:18,897028
-5,-5,-5,-5,-7,-6,-4,-4,2021-08-07 11:41:18,897028
1,2,1,-8,-16,-5,0,0,2021-08-07 11:41:18,897028
-1,-1,0,-6,-2,-1,-2,0,2021-08-07 11:41:18,897028
0,0,0,-2,-7,-3,1,1,2021-08-07 11:41:18,897028
1,1,-2,8,14,5,1,1,2021-08-07 11:41:18,897028
1,2,1,2,16,4,1,0,2021-08-07 11:41:18,897028
-2,-5,-5,-11,-12,-5,-3,-3,2021-08-07 11:41:18,898029
-3,-4,-3,-2,-2,-3,-3,-1,2021-08-07 11:41:18,911027
-4,-3,-5,-10,-4,-6,-4,-2,2021-08-07 11:41:18,911027
-2,-2,-3,-9,-18,-8,-1,0,2021-08-07 11:41:18,959030
-1,-1,0,7,5,2,-1,1,2021-08-07 11:41:18,962030
-2,-6,-3,-2,5,2,-2,-1,2021-08-07 11:41:18,962030
3,6,4,0,-3,1,3,2,2021-08-07 11:41:18,962030
-2,1,-1,-4,-6,-3,-1,-1,2021-08-07 11:41:18,963031
-1,-1,0,3,8,1,-1,1,2021-08-07 11:41:18,963031
-2,-1,-1,-4,2,1,2,1,2021-08-07 11:41:18,963031
-4,-6,-7,-9,-4,-4,-4,-4,2021-08-07 11:41:18,963031
-2,0,-2,-2,-16,-8,-3,-2,2021-08-07 11:41:18,975029
3,1,-1,3,13,6,3,2,2021-08-07 11:41:18,975029
-1,-1,0,2,4,2,0,-1,2021-08-07 11:41:18,975029
-1,-2,-5,-14,-19,-7,-2,-1,2021-08-07 11:41:18,975029
0,1,5,14,18,6,1,0,2021-08-07 11:41:18,991029
-1,-1,-2,-6,-19,-9,-3,-1,2021-08-07 11:41:18,991029
3,1,3,12,30,15,4,2,2021-08-07 11:41:18,991029
1,2,2,3,7,3,2,0,2021-08-07 11:41:18,991029
0,-3,1,-3,-18,-8,-4,0,2021-08-07 11:41:18,991029
-2,-2,-5,-6,0,-1,-1,0,2021-08-07 11:41:18,991029
-1,1,4,15,16,5,0,-1,2021-08-07 11:41:19,022029
-1,-2,0,-1,-6,-3,-1,-2,2021-08-07 11:41:19,022029
-3,-3,-3,-4,1,-2,-1,-3,2021-08-07 11:41:19,038030
-5,-5,-11,-23,-29,-15,-4,-4,2021-08-07 11:41:19,038030
0,3,4,4,-5,-3,-3,1,2021-08-07 11:41:19,038030
5,6,6,17,33,15,6,4,2021-08-07 11:41:19,038030
-1,-4,-2,-2,-4,-2,0,-1,2021-08-07 11:41:19,038030
-1,0,-1,-2,-5,-1,-2,-1,2021-08-07 11:41:19,039031
-3,-3,-2,-4,4,-1,-2,-3,2021-08-07 11:41:19,054028
-3,-5,-5,-6,-6,-3,-3,-2,2021-08-07 11:41:19,070028
4,7,4,4,3,4,4,3,2021-08-07 11:41:19,070028
-2,-3,-2,0,0,-1,-1,-2,2021-08-07 11:41:19,070028
1,-1,-2,-5,-7,-2,-1,-1,2021-08-07 11:41:19,086028
-3,-4,0,0,-6,-1,-3,-2,2021-08-07 11:41:19,086028
-7,-9,-9,-17,-17,-11,-7,-6,2021-08-07 11:41:19,086028
2,1,4,10,17,7,3,2,2021-08-07 11:41:19,086028
-2,-1,-2,-4,-7,-4,-3,-2,2021-08-07 11:41:19,086028
1,0,3,7,4,2,3,1,2021-08-07 11:41:19,087029
-3,-3,-3,-7,-12,-6,-3,-3,2021-08-07 11:41:19,101030
-2,-3,-3,-6,-8,-3,-3,-2,2021-08-07 11:41:19,117029
0,-1,-2,-1,-5,-3,-1,0,2021-08-07 11:41:19,132029
-2,0,-2,-3,-8,-5,-2,-2,2021-08-07 11:41:19,148029
3,7,12,33,46,18,5,3,2021-08-07 11:41:19,148029
2,-2,-1,-1,3,-1,1,0,2021-08-07 11:41:19,148029
-3,-4,-7,-16,-17,-9,-4,-3,2021-08-07 11:41:19,148029
-3,-3,-7,-14,-18,-12,-5,-1,2021-08-07 11:41:19,148029
-2,-3,-4,-9,-18,-6,-4,-3,2021-08-07 11:41:19,148029
-2,-2,-2,-5,3,-1,-4,-4,2021-08-07 11:41:19,149029
1,2,4,9,5,2,2,2,2021-08-07 11:41:19,149029
1,0,1,5,8,6,3,0,2021-08-07 11:41:19,149029
-1,-2,-1,6,2,0,-1,-1,2021-08-07 11:41:19,164028
-2,-1,-5,-6,-11,-5,-3,-3,2021-08-07 11:41:19,164028
1,1,-3,-8,-8,-2,-2,1,2021-08-07 11:41:19,179029
-2,-1,-2,-3,-6,-3,-3,-3,2021-08-07 11:41:19,195065
0,-2,-4,-9,-6,-2,1,1,2021-08-07 11:41:19,195065
-2,-1,0,-3,-6,-3,-1,-1,2021-08-07 11:41:19,195065
-2,-3,-1,-1,-6,-5,-2,-3,2021-08-07 11:41:19,195065
-3,-3,0,-1,6,2,1,-1,2021-08-07 11:41:19,195065
2,3,3,8,15,6,3,1,2021-08-07 11:41:19,195065
0,1,1,9,15,5,1,-1,2021-08-07 11:41:19,196066
-2,-3,-4,-8,-12,-6,-1,-1,2021-08-07 11:41:19,227064
1,1,-4,-12,-10,-3,0,1,2021-08-07 11:41:19,227064
2,0,-1,-6,-1,2,3,0,2021-08-07 11:41:19,242065
0,-3,-1,-1,1,3,1,2,2021-08-07 11:41:19,242065
-1,0,5,18,16,6,-1,-1,2021-08-07 11:41:19,242065
2,3,0,1,-8,1,6,3,2021-08-07 11:41:19,242065
-5,-4,-1,-2,2,3,-2,-3,2021-08-07 11:41:19,242065
2,5,4,4,-2,-9,-8,-2,2021-08-07 11:41:19,242065
-8,-5,-5,-9,-12,-15,-13,-11,2021-08-07 11:41:19,258063
-4,-6,-5,-4,-7,-8,-7,-4,2021-08-07 11:41:19,258063
2,0,-2,-6,-13,-5,1,2,2021-08-07 11:41:19,258063
6,5,2,-2,2,9,9,7,2021-08-07 11:41:19,258063
3,2,0,0,12,9,6,4,2021-08-07 11:41:19,274066
0,0,1,9,5,2,-1,-1,2021-08-07 11:41:19,290065
-3,-5,-6,-10,-15,-6,-3,-3,2021-08-07 11:41:19,290065
-2,-5,-3,1,-3,-5,-3,-3,2021-08-07 11:41:19,290065
2,0,-2,-4,9,5,2,3,2021-08-07 11:41:19,305065
-2,0,5,15,20,7,1,-1,2021-08-07 11:41:19,321064
-1,0,0,4,0,1,-1,-1,2021-08-07 11:41:19,336065
-1,0,-1,-3,-6,-3,-2,0,2021-08-07 11:41:19,336065
-4,-2,-4,-9,-14,-4,-2,-1,2021-08-07 11:41:19,336065
1,0,0,-4,3,-1,-2,-1,2021-08-07 11:41:19,336065
-3,-5,-8,-11,-11,-9,-6,-4,2021-08-07 11:41:19,351063
-2,-2,1,10,17,8,2,-2,2021-08-07 11:41:19,351063
3,3,3,6,-2,0,3,1,2021-08-07 11:41:19,351063
-2,-1,0,5,3,0,-2,-1,2021-08-07 11:41:19,351063
1,2,-2,-8,-15,-7,-2,-1,2021-08-07 11:41:19,351063
-3,-3,-4,-6,-1,-1,-3,-2,2021-08-07 11:41:19,351063
2,0,1,-1,-11,-5,-2,-1,2021-08-07 11:41:19,351063
-1,-4,-2,-3,-2,1,-1,-2,2021-08-07 11:41:19,352065
3,6,7,11,21,7,2,2,2021-08-07 11:41:19,352065
-3,-4,-5,-8,-16,-8,-3,-3,2021-08-07 11:41:19,352065
1,3,4,8,11,4,3,1,2021-08-07 11:41:19,382064
-2,-1,-4,-8,-18,-6,-1,-2,2021-08-07 11:41:19,382064
-4,-8,-5,-4,-1,-1,-3,-3,2021-08-07 11:41:19,398064
4,7,6,5,4,3,1,2,2021-08-07 11:41:19,398290
-4,-3,-4,-6,-9,-4,-1,-4,2021-08-07 11:41:19,398290
2,0,-1,-3,-1,-2,-1,1,2021-08-07 11:41:19,398290
1,4,5,9,8,4,2,0,2021-08-07 11:41:19,398290
-3,-4,-7,-9,-10,-4,-2,-3,2021-08-07 11:41:19,398290
0,0,-2,0,3,1,-1,1,2021-08-07 11:41:19,408585
-1,-1,2,8,9,4,0,1,2021-08-07 11:41:19,408585
-5,-5,-7,-15,-13,-9,-5,-4,2021-08-07 11:41:19,429582
-1,-1,0,-3,-7,-3,0,0,2021-08-07 11:41:19,429582
-1,0,-1,0,1,1,-1,-2,2021-08-07 11:41:19,445585
0,1,3,5,4,4,2,1,2021-08-07 11:41:19,461582
-3,-6,-6,-7,-14,-6,-3,-3,2021-08-07 11:41:19,477581
-2,-2,-6,-18,-10,-7,-3,0,2021-08-07 11:41:19,477581
4,2,4,10,16,8,3,3,2021-08-07 11:41:19,477581
-1,0,0,-4,-1,-3,-2,-2,2021-08-07 11:41:19,477581
3,3,4,7,7,4,0,-1,2021-08-07 11:41:19,477581
-2,-3,2,4,-10,-3,-1,-4,2021-08-07 11:41:19,477581
-6,-8,-8,-10,-5,-3,-3,-2,2021-08-07 11:41:19,478586
1,1,1,-1,-5,-2,-2,1,2021-08-07 11:41:19,478586
-2,-1,-3,-9,-13,-5,-3,-3,2021-08-07 11:41:19,478586
0,2,4,8,25,8,2,0,2021-08-07 11:41:19,478586
0,-2,0,1,-7,-1,0,-3,2021-08-07 11:41:19,509581
-2,-4,-2,3,8,1,0,-1,2021-08-07 11:41:19,509581
-2,-1,-2,-6,-8,-5,-3,-2,2021-08-07 11:41:19,509581
-4,-7,-6,-9,-14,-7,-5,-3,2021-08-07 11:41:19,509581
5,6,8,13,12,7,4,4,2021-08-07 11:41:19,509581
-1,0,0,5,1,1,-1,-1,2021-08-07 11:41:19,509581
0,-1,0,1,2,0,0,-1,2021-08-07 11:41:19,525581
1,0,1,5,4,3,-2,0,2021-08-07 11:41:19,541583
-3,-4,-4,-4,-3,-3,-3,-2,2021-08-07 11:41:19,556583
-3,-4,-6,-7,-6,-4,-2,0,2021-08-07 11:41:19,572582
0,0,2,8,7,2,2,1,2021-08-07 11:41:19,572582
0,1,0,2,3,-1,0,-1,2021-08-07 11:41:19,572582
-3,-1,-4,-11,-14,-6,-2,-2,2021-08-07 11:41:19,572582
1,1,4,10,15,6,3,1,2021-08-07 11:41:19,572582
0,0,1,9,10,3,-1,0,2021-08-07 11:41:19,572582
0,0,1,7,1,1,2,-2,2021-08-07 11:41:19,572582
-4,-3,-9,-13,-14,-10,-5,-1,2021-08-07 11:41:19,572582
-3,-1,-2,-7,-11,-7,-4,-1,2021-08-07 11:41:19,573582
1,4,10,20,17,12,2,2,2021-08-07 11:41:19,587584
1,2,1,5,10,6,3,1,2021-08-07 11:41:19,603581
-9,-10,-18,-32,-34,-22,-11,-7,2021-08-07 11:41:19,603581
-6,-5,-7,-12,-9,-5,-4,-3,2021-08-07 11:41:19,618581
9,10,13,24,23,12,7,6,2021-08-07 11:41:19,634581
3,2,13,18,18,13,7,5,2021-08-07 11:41:19,634581
-7,-11,-17,-42,-41,-27,-11,-8,2021-08-07 11:41:19,634581
-5,-10,-16,-14,-3,-5,-4,-3,2021-08-07 11:41:19,634581
-4,-1,-6,-8,-10,-5,-5,-4,2021-08-07 11:41:19,634581
0,1,5,11,8,4,-2,-1,2021-08-07 11:41:19,634581
8,8,17,26,27,19,8,5,2021-08-07 11:41:19,634581
1,2,2,-3,2,0,-1,-1,2021-08-07 11:41:19,635583
0,-2,-2,-3,-4,0,0,1,2021-08-07 11:41:19,635583
0,-1,-3,-5,-12,-7,-3,-2,2021-08-07 11:41:19,635583
-1,0,4,10,13,6,2,0,2021-08-07 11:41:19,665584
1,0,3,0,-8,-4,-1,-1,2021-08-07 11:41:19,665584
-4,-7,-8,-17,-14,-8,-3,-2,2021-08-07 11:41:19,665584
-1,0,-3,-4,-3,-2,-1,1,2021-08-07 11:41:19,665584
-5,-5,-5,-4,-5,-3,-5,-5,2021-08-07 11:41:19,681582
7,7,13,23,25,15,8,4,2021-08-07 11:41:19,697582
-2,-4,-3,2,12,0,0,-1,2021-08-07 11:41:19,697582
-4,-2,-7,-17,-21,-11,-5,-4,2021-08-07 11:41:19,697582
1,2,6,14,13,7,2,1,2021-08-07 11:41:19,697582
-5,-4,-9,-19,-28,-11,-6,-5,2021-08-07 11:41:19,697582
0,-5,-3,-7,-3,-3,-3,-2,2021-08-07 11:41:19,697582
0,-1,-5,-6,-5,-2,-1,-1,2021-08-07 11:41:19,697582
0,-2,0,8,13,8,3,1,2021-08-07 11:41:19,713584
2,3,3,3,1,-1,-1,-1,2021-08-07 11:41:19,713584
-4,-3,-2,-6,-11,-6,-2,-3,2021-08-07 11:41:19,713584
-4,-4,-6,-6,-10,-6,-4,-1,2021-08-07 11:41:19,713584
1,2,2,3,5,3,1,1,2021-08-07 11:41:19,745583
-2,-3,-4,-6,-9,-4,-3,-3,2021-08-07 11:41:19,761582
4,6,5,9,13,6,4,3,2021-08-07 11:41:19,777583
-2,0,-1,-3,-3,-1,-3,0,2021-08-07 11:41:19,792583
-2,-1,-1,-1,-1,-1,-1,-2,2021-08-07 11:41:19,824583
-5,-6,-4,-3,-1,-3,-3,-3,2021-08-07 11:41:19,840581
2,4,0,-4,-10,-4,0,1,2021-08-07 11:41:19,852582
3,3,5,12,12,5,3,2,2021-08-07 11:41:19,852582
1,-1,2,6,13,2,-2,1,2021-08-07 11:41:19,852582
-2,0,2,0,6,4,2,1,2021-08-07 11:41:19,852582
0,-2,3,7,2,-2,0,-1,2021-08-07 11:41:19,852582
-4,-5,-6,-14,-11,-7,-4,-4,2021-08-07 11:41:19,852582
-1,-1,0,5,-3,-1,0,-1,2021-08-07 11:41:19,853584
-1,-1,-6,-10,-9,-4,-4,-2,2021-08-07 11:41:19,853584
-3,-4,-4,-3,-7,-5,-6,-3,2021-08-07 11:41:19,853584
1,0,2,1,3,0,1,-1,2021-08-07 11:41:19,853584
-1,1,-2,-4,0,1,0,-1,2021-08-07 11:41:19,853584
2,3,1,-2,-3,-1,-1,1,2021-08-07 11:41:19,853584
-1,-1,-1,-1,10,4,-1,-1,2021-08-07 11:41:19,853584
-2,-1,3,10,6,0,-2,-2,2021-08-07 11:41:19,854581
0,-1,-2,-6,-6,-1,0,-1,2021-08-07 11:41:19,854581
-3,0,2,9,1,0,1,1,2021-08-07 11:41:19,854581
-3,-5,-9,-20,-23,-10,-4,-2,2021-08-07 11:41:19,854581
1,0,2,9,22,11,5,2,2021-08-07 11:41:19,854581
1,0,4,13,9,0,0,-2,2021-08-07 11:41:19,854581
6,7,4,7,7,2,1,3,2021-08-07 11:41:19,854581
-3,-5,-6,-9,-8,-5,-2,-4,2021-08-07 11:41:19,854581
-4,-4,-6,-14,-19,-11,-5,-3,2021-08-07 11:41:19,854581
-3,-2,-4,-9,-2,1,-3,-1,2021-08-07 11:41:19,887582
-1,-4,-1,0,-2,-1,-3,-2,2021-08-07 11:41:19,887582
-1,0,0,-2,-3,-2,-1,-1,2021-08-07 11:41:19,887582
0,-3,-2,0,3,0,0,0,2021-08-07 11:41:19,887582
0,1,1,-12,-11,-5,0,2,2021-08-07 11:41:19,887582
-2,-2,1,7,8,2,1,-1,2021-08-07 11:41:19,888583
2,2,2,9,9,3,2,-1,2021-08-07 11:41:19,888583
-4,-4,-3,-5,-4,-3,-1,-3,2021-08-07 11:41:19,888583
-2,-2,0,-2,-10,-3,-3,-2,2021-08-07 11:41:19,918583
-2,0,-2,-2,-2,0,1,-1,2021-08-07 11:41:19,918583
3,1,3,5,16,6,2,2,2021-08-07 11:41:19,918583
-2,1,-2,-5,-5,-4,0,-2,2021-08-07 11:41:19,918583
0,-2,-3,-7,-10,-7,-3,0,2021-08-07 11:41:19,950583
1,1,-1,-10,-13,-7,-3,0,2021-08-07 11:41:19,950583
-2,-2,0,-2,-2,2,-1,-1,2021-08-07 11:41:19,950583
1,-1,2,-1,-6,-3,-2,-2,2021-08-07 11:41:19,950583
-1,-2,-3,-6,-3,-1,0,-1,2021-08-07 11:41:19,950583
3,2,5,12,13,5,2,2,2021-08-07 11:41:19,950583
-2,-3,-4,-8,-5,-2,-2,-2,2021-08-07 11:41:19,951583
0,-1,0,3,6,0,1,0,2021-08-07 11:41:19,951583
0,1,1,7,5,1,1,-1,2021-08-07 11:41:19,982581
-1,-2,-3,-8,-14,-5,-2,-2,2021-08-07 11:41:19,982581
-4,-3,-2,-5,-4,-2,-2,-2,2021-08-07 11:41:19,982581
1,3,7,8,5,3,1,1,2021-08-07 11:41:19,982581
2,3,4,5,8,3,2,1,2021-08-07 11:41:20,013583
-6,-9,-16,-33,-23,-13,-4,-5,2021-08-07 11:41:20,013583
-1,0,4,21,12,0,-2,-1,2021-08-07 11:41:20,013583
0,-1,0,2,1,0,-2,-1,2021-08-07 11:41:20,029582
-1,0,1,7,10,4,0,-1,2021-08-07 11:41:20,029582
2,2,4,3,8,4,1,-1,2021-08-07 11:41:20,029582
0,0,-3,-5,-7,-3,0,0,2021-08-07 11:41:20,029582
-1,-2,-2,-3,-10,-4,-2,-1,2021-08-07 11:41:20,029582
-1,-2,-1,-5,-5,-1,-3,-2,2021-08-07 11:41:20,045582
0,1,4,5,9,3,-1,0,2021-08-07 11:41:20,061581
0,1,-4,-9,-4,-2,-1,-1,2021-08-07 11:41:20,077581
-5,-3,-7,-7,-7,-5,-4,-2,2021-08-07 11:41:20,077581
2,0,-1,-3,-2,1,2,1,2021-08-07 11:41:20,077581
-2,-5,-3,6,3,0,1,-1,2021-08-07 11:41:20,077581
3,1,4,6,6,4,2,4,2021-08-07 11:41:20,092581
1,1,-2,-6,-6,-1,-2,-2,2021-08-07 11:41:20,108583
-6,-3,-2,0,0,-2,-2,-5,2021-08-07 11:41:20,124583
0,2,4,8,11,5,-4,-3,2021-08-07 11:41:20,124583
-4,-1,-3,-10,-16,-8,-3,-2,2021-08-07 11:41:20,124583
-6,-6,-9,-17,-18,-8,-7,-4,2021-08-07 11:41:20,124583
8,5,6,12,27,11,5,6,2021-08-07 11:41:20,124583
4,5,5,19,32,12,5,4,2021-08-07 11:41:20,124583
1,2,0,-8,-9,-2,-1,0,2021-08-07 11:41:20,125581
-1,-1,0,3,7,2,0,-1,2021-08-07 11:41:20,125581
-5,-7,-10,-23,-31,-15,-6,-4,2021-08-07 11:41:20,125581
1,-2,-2,-2,0,-3,1,2,2021-08-07 11:41:20,125581
0,0,3,11,9,3,-1,-1,2021-08-07 11:41:20,125581
-1,1,2,6,3,1,-2,0,2021-08-07 11:41:20,125581
-4,-2,-3,-4,-3,-2,-3,-4,2021-08-07 11:41:20,140583
-4,-4,-6,-14,-19,-6,-3,-2,2021-08-07 11:41:20,140583
-4,-5,-5,-8,1,-1,-2,-3,2021-08-07 11:41:20,140583
6,5,7,11,8,4,2,4,2021-08-07 11:41:20,140583
1,1,1,4,1,1,0,1,2021-08-07 11:41:20,156583
-3,-1,0,0,-3,-2,-1,-1,2021-08-07 11:41:20,156583
-2,-2,-1,-1,1,0,0,-3,2021-08-07 11:41:20,171583
-2,-3,-4,-13,-10,-5,-3,-3,2021-08-07 11:41:20,187581
-1,1,2,7,10,2,1,1,2021-08-07 11:41:20,203583
0,-2,0,-2,-5,-3,-2,-3,2021-08-07 11:41:20,203583
-2,-3,-4,-8,-11,-4,-2,-2,2021-08-07 11:41:20,203583
1,1,0,-3,1,2,3,0,2021-08-07 11:41:20,203583
-1,-1,0,-1,-2,-2,-3,-2,2021-08-07 11:41:20,203583
1,0,3,12,9,3,1,0,2021-08-07 11:41:20,204583
-2,-2,-4,-11,-12,-6,-3,-2,2021-08-07 11:41:20,204583
-1,0,0,2,3,0,-2,-2,2021-08-07 11:41:20,204583
1,0,-4,-8,-21,-9,-2,-1,2021-08-07 11:41:20,219583
1,3,4,11,26,10,2,1,2021-08-07 11:41:20,219583
-1,-2,-3,-2,-6,-1,-1,0,2021-08-07 11:41:20,219583
1,-1,-1,1,2,0,0,1,2021-08-07 11:41:20,219583
-4,-4,-3,-2,-2,-2,-1,-2,2021-08-07 11:41:20,251582
-4,-4,-6,-15,-21,-9,-6,-3,2021-08-07 11:41:20,251582
4,3,1,-3,-3,-1,-1,2,2021-08-07 11:41:20,251582
0,0,4,13,9,5,1,-2,2021-08-07 11:41:20,251582
1,2,6,8,20,9,4,3,2021-08-07 11:41:20,251582
-1,1,4,12,14,5,2,0,2021-08-07 11:41:20,251582
-2,-3,-4,-3,-9,-4,-1,-3,2021-08-07 11:41:20,252583
-2,-2,-2,-7,-9,-5,-3,-1,2021-08-07 11:41:20,252583
-3,-3,-5,-5,0,0,-3,-1,2021-08-07 11:41:20,283582
-2,-1,-1,-3,-5,-4,-2,-3,2021-08-07 11:41:20,299584
-1,0,-2,-3,-5,-2,-1,0,2021-08-07 11:41:20,308584
-1,-1,-3,-7,4,0,-2,-1,2021-08-07 11:41:20,308584
3,3,6,12,16,6,3,2,2021-08-07 11:41:20,308584
0,0,-1,-7,-14,-6,-3,0,2021-08-07 11:41:20,308584
-1,-3,0,3,2,0,-1,-2,2021-08-07 11:41:20,309585
0,0,-3,-5,4,0,-1,0,2021-08-07 11:41:20,309585
-4,-4,-2,1,6,-3,-3,-2,2021-08-07 11:41:20,309585
0,0,2,1,1,2,3,2,2021-08-07 11:41:20,309585
-1,-3,-3,-1,-1,-3,-1,-1,2021-08-07 11:41:20,309585
-2,0,-2,-4,-13,-5,-2,-1,2021-08-07 11:41:20,309585
-2,-4,-3,-9,-16,-7,-4,-2,2021-08-07 11:41:20,347581
7,6,8,23,41,17,5,3,2021-08-07 11:41:20,362584
2,2,3,3,4,2,0,2,2021-08-07 11:41:20,362584
-1,-2,-1,2,3,-1,0,-1,2021-08-07 11:41:20,362584
-5,-4,-7,-15,-23,-11,-5,-6,2021-08-07 11:41:20,362584
-3,-5,-8,-15,-13,-7,-3,-3,2021-08-07 11:41:20,362584
3,6,10,25,24,12,4,1,2021-08-07 11:41:20,362584
1,3,1,3,2,1,0,1,2021-08-07 11:41:20,363584
-5,-6,-7,-6,-12,-2,-4,-4,2021-08-07 11:41:20,378583
-2,-2,-3,-14,-14,-3,0,-1,2021-08-07 11:41:20,378583
3,2,3,8,11,1,2,3,2021-08-07 11:41:20,378583
-1,-1,-3,-5,-11,-5,-2,-1,2021-08-07 11:41:20,378583
1,1,-3,-7,-8,-5,-1,1,2021-08-07 11:41:20,410581
-2,-2,-1,0,-3,-1,-2,-2,2021-08-07 11:41:20,410581
-5,-5,-6,-4,1,-1,-3,-4,2021-08-07 11:41:20,410581
1,4,5,7,10,3,2,1,2021-08-07 11:41:20,410581
1,2,1,-6,-8,-2,-1,1,2021-08-07 11:41:20,426584
-3,-3,-2,2,-6,-2,-1,-1,2021-08-07 11:41:20,442582
-1,-3,-2,-5,-5,-1,0,-1,2021-08-07 11:41:20,458582
-4,-4,-7,-8,-13,-7,-3,-4,2021-08-07 11:41:20,474583
0,-1,0,1,10,3,1,0,2021-08-07 11:41:20,474583
0,0,1,1,-13,-8,-4,-1,2021-08-07 11:41:20,474583
2,3,6,17,20,8,4,3,2021-08-07 11:41:20,474583
-3,-2,-4,-12,-20,-5,-2,-3,2021-08-07 11:41:20,474583
1,0,-1,0,11,4,-2,-1,2021-08-07 11:41:20,475584
-7,-4,-2,7,5,-1,-5,-5,2021-08-07 11:41:20,475584
-5,-3,-6,-14,-7,-4,-3,-3,2021-08-07 11:41:20,475584
2,1,3,5,2,1,2,3,2021-08-07 11:41:20,475584
2,2,3,3,-5,-1,2,0,2021-08-07 11:41:20,475584
-2,-2,-6,-17,-21,-9,-2,-2,2021-08-07 11:41:20,475584
-1,-1,-2,-2,-2,-3,-4,-1,2021-08-07 11:41:20,475584
-4,-5,-7,-11,-12,-6,-3,-4,2021-08-07 11:41:20,476583
-1,-2,4,13,14,7,3,3,2021-08-07 11:41:20,490582
1,1,0,6,14,7,3,2,2021-08-07 11:41:20,490582
1,2,-1,1,-4,-1,0,0,2021-08-07 11:41:20,490582
-4,-6,-1,-2,-1,0,-2,-2,2021-08-07 11:41:20,490582
2,2,-2,-6,-4,-2,0,2,2021-08-07 11:41:20,522584
1,4,1,1,0,-1,3,2,2021-08-07 11:41:20,522584
0,-2,2,8,0,-2,-1,-1,2021-08-07 11:41:20,522584
-1,-1,0,1,6,3,-1,0,2021-08-07 11:41:20,522584
-2,-2,1,9,2,1,0,-1,2021-08-07 11:41:20,538584
-3,-5,-3,-9,-8,-4,-3,-4,2021-08-07 11:41:20,538584
-1,-1,-1,-11,-11,-4,-1,0,2021-08-07 11:41:20,554627
2,3,3,2,9,4,1,2,2021-08-07 11:41:20,570628
0,-4,-3,-5,-8,-2,0,0,2021-08-07 11:41:20,570628
13,12,10,9,18,23,26,17,2021-08-07 11:41:20,570628
0,-2,-4,-5,-13,-4,-7,-4,2021-08-07 11:41:20,570628
-21,-16,-12,-15,-29,-40,-40,-30,2021-08-07 11:41:20,570628
-10,-9,-5,-8,12,-4,-6,-7,2021-08-07 11:41:20,571629
11,7,3,8,11,26,28,19,2021-08-07 11:41:20,571629
26,16,12,7,14,52,50,34,2021-08-07 11:41:20,571629
11,9,2,-4,-13,-4,-2,2,2021-08-07 11:41:20,571629
1,1,7,40,57,-7,-24,-13,2021-08-07 11:41:20,618627
-30,-26,-21,-26,-37,-69,-74,-41,2021-08-07 11:41:20,618627
-45,-23,-17,-22,-30,-75,-73,-58,2021-08-07 11:41:20,618627
31,13,6,6,17,50,47,50,2021-08-07 11:41:20,618627
24,17,9,4,-1,34,37,16,2021-08-07 11:41:20,618627
-23,-7,3,9,10,10,20,-8,2021-08-07 11:41:20,618627
-6,-9,-6,-1,9,51,52,22,2021-08-07 11:41:20,619629
26,13,4,8,10,-17,-28,6,2021-08-07 11:41:20,619629
-33,-18,-19,-26,-54,-102,-94,-60,2021-08-07 11:41:20,650628
-17,-14,-8,-8,-12,-13,-14,-6,2021-08-07 11:41:20,650628
43,102,105,96,70,32,26,19,2021-08-07 11:41:20,650628
36,42,75,117,120,103,79,40,2021-08-07 11:41:20,650628
22,-55,-77,-71,-27,51,53,39,2021-08-07 11:41:20,666628
-45,-23,-49,-79,-70,-81,-61,-43,2021-08-07 11:41:20,682627
-43,-128,-128,-14,-46,-34,-27,-19,2021-08-07 11:41:20,698628
-29,-65,-56,41,-2,-10,-10,-13,2021-08-07 11:41:20,714628
27,96,120,127,96,38,11,12,2021-08-07 11:41:20,714628
54,94,102,111,81,62,45,33,2021-08-07 11:41:20,714628
22,11,-45,-78,-34,11,14,15,2021-08-07 11:41:20,714628
-34,-60,-58,-89,-77,-58,-41,-34,2021-08-07 11:41:20,714628
-2,55,56,64,10,-8,2,-1,2021-08-07 11:41:20,714628
17,35,36,98,26,11,9,10,2021-08-07 11:41:20,730630
-13,-46,-28,-35,-40,-26,-13,-6,2021-08-07 11:41:20,730630
-74,-109,-111,-117,-116,-96,-53,-50,2021-08-07 11:41:20,730630
-46,-68,-126,-9,11,2,-3,-13,2021-08-07 11:41:20,730630
24,38,-38,43,53,33,16,17,2021-08-07 11:41:20,730630
41,78,88,115,89,41,10,17,2021-08-07 11:41:20,731628
13,45,79,43,38,38,18,5,2021-08-07 11:41:20,731628
16,20,81,-16,-10,33,40,24,2021-08-07 11:41:20,731628
40,23,42,5,28,69,54,38,2021-08-07 11:41:20,731628
-37,-42,-16,-51,-50,-88,-81,-48,2021-08-07 11:41:20,731628
-14,23,5,-13,-36,-95,-72,-40,2021-08-07 11:41:20,731628
0,14,28,39,6,-21,-14,-3,2021-08-07 11:41:20,762149
4,-31,-45,-39,-21,4,11,3,2021-08-07 11:41:20,762149
-12,-16,-33,-72,-28,20,32,6,2021-08-07 11:41:20,763149
22,43,38,31,49,55,43,25,2021-08-07 11:41:20,763149
-7,-26,-40,-30,-17,-10,-9,-8,2021-08-07 11:41:20,778148
-24,-44,-19,-18,-29,-19,-17,-18,2021-08-07 11:41:20,778148
10,24,40,20,10,28,26,13,2021-08-07 11:41:20,778148
24,31,15,39,44,18,4,13,2021-08-07 11:41:20,778148
-17,-30,-31,-26,-32,-28,-18,-15,2021-08-07 11:41:20,794148
-16,-21,-9,-30,-20,-28,-23,-11,2021-08-07 11:41:20,794148
-9,5,10,24,15,-20,-21,-13,2021-08-07 11:41:20,794148
7,5,-7,8,6,20,20,8,2021-08-07 11:41:20,794148
0,-5,-9,-18,-16,11,13,4,2021-08-07 11:41:20,810150
-2,-5,5,-16,-21,-14,-8,-3,2021-08-07 11:41:20,810150
3,3,-6,8,7,8,3,2,2021-08-07 11:41:20,810150
0,0,-10,-18,-4,10,10,4,2021-08-07 11:41:20,810150
2,5,23,29,20,5,-3,-1,2021-08-07 11:41:20,842148
0,-9,-6,-5,3,-3,-6,-4,2021-08-07 11:41:20,858148
6,6,1,12,2,0,3,5,2021-08-07 11:41:20,874150
-8,-2,-8,-25,-25,-10,-5,-7,2021-08-07 11:41:20,874150
5,8,3,-18,-1,-1,-4,0,2021-08-07 11:41:20,890147
-9,-19,-17,-16,-22,-9,-5,-7,2021-08-07 11:41:20,890147
0,3,6,16,14,2,0,1,2021-08-07 11:41:20,890147
-1,6,12,19,11,4,2,1,2021-08-07 11:41:20,890147
-1,-6,-11,-12,-8,1,1,0,2021-08-07 11:41:20,890147
-5,-12,-7,-16,-23,-10,-3,-2,2021-08-07 11:41:20,890147
-1,4,10,12,18,-12,-14,-7,2021-08-07 11:41:20,891149
3,6,7,12,11,13,8,2,2021-08-07 11:41:20,891149
-2,-8,-14,-12,-6,5,3,1,2021-08-07 11:41:20,921148
-10,-11,-9,-19,-16,-21,-19,-11,2021-08-07 11:41:20,921148
8,12,6,-2,-9,-6,3,6,2021-08-07 11:41:20,921148
-7,-6,-1,18,8,4,-1,-5,2021-08-07 11:41:20,921148
2,5,7,26,34,15,7,3,2021-08-07 11:41:20,921148
-3,-3,2,-8,-1,2,0,-3,2021-08-07 11:41:20,921148
-3,-4,-2,-5,-5,-1,-2,-4,2021-08-07 11:41:20,921148
-1,0,3,-2,-8,-2,-2,-2,2021-08-07 11:41:20,921148
3,5,1,-18,-25,-10,-1,2,2021-08-07 11:41:20,937148
1,-2,-2,14,13,4,1,2,2021-08-07 11:41:20,937148
-2,-5,0,-7,1,0,0,1,2021-08-07 11:41:20,937148
1,0,-11,-17,-19,-8,0,0,2021-08-07 11:41:20,937148
-4,-9,-10,-9,-7,-6,-6,-3,2021-08-07 11:41:20,968147
5,6,11,30,45,17,8,5,2021-08-07 11:41:20,968147
0,-1,-1,4,-8,-1,0,-2,2021-08-07 11:41:20,968147
1,5,10,16,10,3,2,1,2021-08-07 11:41:20,968147
1,-3,-3,-5,-5,-5,0,-2,2021-08-07 11:41:20,984145
-5,-10,-14,-15,-18,-11,-4,-4,2021-08-07 11:41:20,984145
12,19,15,20,20,15,7,10,2021-08-07 11:41:20,984145
-3,-3,-6,-16,-3,-4,-2,-3,2021-08-07 11:41:20,984145
-9,-10,-9,-16,-30,-13,-9,-6,2021-08-07 11:41:21,000148
-3,-5,1,-2,-4,1,-3,-1,2021-08-07 11:41:21,000148
6,8,10,29,39,13,7,3,2021-08-07 11:41:21,000148
4,2,5,15,8,4,3,2,2021-08-07 11:41:21,000148
1,1,2,-2,8,3,1,1,2021-08-07 11:41:21,031146
-8,-10,-7,-19,-18,-9,-9,-6,2021-08-07 11:41:21,031146
-9,-14,-31,-39,-41,-16,-7,-6,2021-08-07 11:41:21,031146
2,5,4,3,13,4,2,3,2021-08-07 11:41:21,031146
1,0,2,8,1,1,3,1,2021-08-07 11:41:21,047147
1,5,9,13,-2,-1,0,-1,2021-08-07 11:41:21,063149
-1,1,6,6,12,5,2,0,2021-08-07 11:41:21,079147
-1,-1,2,8,2,-1,-1,-1,2021-08-07 11:41:21,095148
-3,-3,-5,-1,13,5,1,-1,2021-08-07 11:41:21,111147
4,4,3,9,13,3,1,4,2021-08-07 11:41:21,111147
-2,0,-6,-30,-33,-14,-6,-3,2021-08-07 11:41:21,111147
3,6,17,40,45,19,7,5,2021-08-07 11:41:21,111147
-2,-1,-2,-4,-6,-4,-1,-2,2021-08-07 11:41:21,111147
-3,-4,-4,-7,-9,-4,-1,-3,2021-08-07 11:41:21,112148
-5,-6,0,-2,-17,-8,-4,-4,2021-08-07 11:41:21,127147
3,3,3,-15,-21,-7,-3,2,2021-08-07 11:41:21,127147
-3,-7,-5,34,30,11,1,-2,2021-08-07 11:41:21,127147
8,10,-4,-2,20,12,7,6,2021-08-07 11:41:21,127147
-10,-11,-14,-29,-17,-10,-7,-7,2021-08-07 11:41:21,127147
-6,-7,-8,-31,-35,-13,-7,-5,2021-08-07 11:41:21,127147
0,-1,-6,-6,-10,-6,-2,0,2021-08-07 11:41:21,128149
-4,-5,-2,-4,-12,-7,-4,-2,2021-08-07 11:41:21,128149
0,0,0,12,7,3,0,0,2021-08-07 11:41:21,128149
4,6,13,24,26,11,5,3,2021-08-07 11:41:21,128149
6,10,18,9,0,4,3,4,2021-08-07 11:41:21,143148
0,1,1,10,4,-1,1,-1,2021-08-07 11:41:21,143148
-2,-5,-10,-10,-15,-6,-2,-1,2021-08-07 11:41:21,143148
-12,-17,-23,-30,-6,-9,-8,-10,2021-08-07 11:41:21,143148
3,6,5,-16,-9,-1,0,3,2021-08-07 11:41:21,175147
-1,-2,-2,-11,-17,-8,-2,0,2021-08-07 11:41:21,191146
-2,-2,-1,17,21,7,0,-2,2021-08-07 11:41:21,197149
-5,-8,-10,-18,-34,-12,-5,-4,2021-08-07 11:41:21,197149
7,11,16,34,54,18,7,6,2021-08-07 11:41:21,198147
2,4,6,-6,-18,-5,1,0,2021-08-07 11:41:21,198147
-2,-4,2,17,25,8,1,-2,2021-08-07 11:41:21,198147
0,0,-2,4,0,-1,0,0,2021-08-07 11:41:21,198147
-6,-8,-8,-18,-18,-8,-5,-8,2021-08-07 11:41:21,199148
-1,-2,-2,2,-8,-3,-2,-3,2021-08-07 11:41:21,199148
-4,-2,-5,-16,-10,-6,-3,-3,2021-08-07 11:41:21,199148
-1,-3,-3,-2,-4,-3,-1,0,2021-08-07 11:41:21,199148
-2,-4,-5,-14,-19,-8,-5,-3,2021-08-07 11:41:21,223147
3,5,14,25,10,3,1,2,2021-08-07 11:41:21,239147
4,8,23,16,8,3,3,2,2021-08-07 11:41:21,239147
2,-3,-14,-8,10,5,2,1,2021-08-07 11:41:21,239147
-10,-17,-31,-34,-29,-14,-7,-8,2021-08-07 11:41:21,239147
-11,-16,-31,-61,-38,-18,-12,-8,2021-08-07 11:41:21,239147
4,4,13,37,38,18,7,4,2021-08-07 11:41:21,239147
2,10,25,45,48,15,4,3,2021-08-07 11:41:21,239147
4,0,-3,17,11,6,5,3,2021-08-07 11:41:21,271146
-1,2,-2,-16,-18,-5,-1,-1,2021-08-07 11:41:21,271146
-5,-4,-9,-31,-37,-17,-9,-2,2021-08-07 11:41:21,271146
0,2,7,7,9,3,1,1,2021-08-07 11:41:21,271146
1,4,10,1,-11,-5,-3,-2,2021-08-07 11:41:21,287148
2,3,9,21,19,8,4,3,2021-08-07 11:41:21,287148
4,2,5,4,5,3,3,1,2021-08-07 11:41:21,287148
1,0,-2,-5,-7,-3,-2,-4,2021-08-07 11:41:21,287700
2,6,7,9,-1,1,2,1,2021-08-07 11:41:21,318185
-3,-8,-9,19,44,14,4,-1,2021-08-07 11:41:21,318185
-2,-2,-17,-43,-25,-10,-5,0,2021-08-07 11:41:21,318185
-12,-15,-15,-29,-24,-11,-10,-7,2021-08-07 11:41:21,318185
0,1,-2,-18,-15,-7,0,2,2021-08-07 11:41:21,318185
8,10,25,39,12,5,1,2,2021-08-07 11:41:21,318185
8,6,11,37,45,18,8,7,2021-08-07 11:41:21,319185
1,-1,-17,-7,-5,-1,2,-1,2021-08-07 11:41:21,319185
-12,-12,-14,-20,-19,-10,-8,-7,2021-08-07 11:41:21,348185
-6,-4,-4,-8,-17,-8,-6,-5,2021-08-07 11:41:21,364183
12,19,34,42,28,10,7,6,2021-08-07 11:41:21,380185
-4,-9,-1,-15,-28,-9,-4,-4,2021-08-07 11:41:21,396185
0,-3,-14,-24,16,5,0,0,2021-08-07 11:41:21,428184
-8,-7,-16,-27,-18,-9,-5,-4,2021-08-07 11:41:21,444185
-5,-6,-10,-1,-9,-3,-3,-4,2021-08-07 11:41:21,444185
3,4,6,21,30,11,3,3,2021-08-07 11:41:21,444185
1,5,11,3,-7,-3,-2,-2,2021-08-07 11:41:21,444185
7,7,15,8,15,7,3,1,2021-08-07 11:41:21,444185
-6,-7,-7,4,-15,-7,-4,-6,2021-08-07 11:41:21,445186
3,4,10,15,2,0,0,3,2021-08-07 11:41:21,445186
2,4,4,5,-2,1,1,3,2021-08-07 11:41:21,445186
-2,-5,-23,-34,-3,-1,-1,-1,2021-08-07 11:41:21,460184
-9,-14,-19,-33,-21,-12,-9,-7,2021-08-07 11:41:21,460184
-6,-4,-6,-8,-16,-7,-3,-5,2021-08-07 11:41:21,460184
5,7,14,39,43,16,6,4,2021-08-07 11:41:21,460184
5,7,13,28,20,8,6,3,2021-08-07 11:41:21,476186
-1,-2,6,16,5,1,1,0,2021-08-07 11:41:21,476186
-1,0,-3,-6,-9,-5,0,-3,2021-08-07 11:41:21,476186
-4,-4,-14,-24,-29,-12,-7,-6,2021-08-07 11:41:21,476186
0,0,1,-18,-16,-8,-4,-1,2021-08-07 11:41:21,476186
-2,-4,-17,-11,-16,-2,-2,-1,2021-08-07 11:41:21,477188
-3,-6,-17,-29,19,3,0,0,2021-08-07 11:41:21,477188
-4,-1,5,8,2,0,-2,-2,2021-08-07 11:41:21,477188
1,1,3,19,29,10,2,2,2021-08-07 11:41:21,477188
3,5,10,22,6,1,0,0,2021-08-07 11:41:21,477188
7,10,18,26,-4,-1,2,3,2021-08-07 11:41:21,477188
-2,-8,-19,-24,-14,-5,-2,-2,2021-08-07 11:41:21,478186
-10,-14,-18,-46,-37,-17,-11,-7,2021-08-07 11:41:21,491186
0,3,-3,-1,6,5,1,1,2021-08-07 11:41:21,491186
2,5,10,25,14,6,1,2,2021-08-07 11:41:21,491186
-3,-3,4,4,-5,-3,-1,-3,2021-08-07 11:41:21,507387
2,-1,-10,-4,-7,-2,0,2,2021-08-07 11:41:21,523185
2,-1,2,-14,-8,-4,0,1,2021-08-07 11:41:21,539186
-4,-6,-8,-8,-8,-5,-5,-4,2021-08-07 11:41:21,539186
0,2,12,21,2,2,-2,0,2021-08-07 11:41:21,539186
3,8,12,14,16,7,4,3,2021-08-07 11:41:21,539186
-3,-3,-8,-24,-17,-6,-4,-3,2021-08-07 11:41:21,539186
1,-2,-14,-16,2,2,-1,1,2021-08-07 11:41:21,540185
-1,-4,0,8,7,0,-1,-1,2021-08-07 11:41:21,540185
-5,-3,15,16,-19,-10,-4,-3,2021-08-07 11:41:21,540185
6,10,13,39,36,15,9,6,2021-08-07 11:41:21,540185
-13,-18,-49,-81,-29,-12,-8,-8,2021-08-07 11:41:21,540185
-14,-18,-12,-36,-15,-12,-10,-10,2021-08-07 11:41:21,570187
0,-2,-23,-4,-6,-3,0,-1,2021-08-07 11:41:21,570187
3,7,21,18,2,0,0,2,2021-08-07 11:41:21,570187
10,11,26,50,25,11,7,6,2021-08-07 11:41:21,570187
8,11,13,16,6,6,7,6,2021-08-07 11:41:21,586188
3,6,15,19,27,12,3,0,2021-08-07 11:41:21,602183
-2,-4,-6,-7,-10,-6,-2,-2,2021-08-07 11:41:21,602183
-1,3,3,3,-3,-1,-3,-3,2021-08-07 11:41:21,602183
2,0,7,11,14,5,0,0,2021-08-07 11:41:21,602183
-2,-3,-3,3,-14,-5,-2,-3,2021-08-07 11:41:21,602183
-11,-17,-32,-52,-19,-11,-7,-7,2021-08-07 11:41:21,602183
-3,-3,1,-12,-4,-4,-3,-1,2021-08-07 11:41:21,603185
2,7,12,19,1,-2,-1,2,2021-08-07 11:41:21,633185
6,7,18,25,9,4,2,4,2021-08-07 11:41:21,648186
2,1,-7,7,11,6,0,0,2021-08-07 11:41:21,649185
-9,-17,-29,-73,-42,-20,-10,-8,2021-08-07 11:41:21,649185
-3,-6,-7,-15,-10,-4,-2,1,2021-08-07 11:41:21,649185
0,-6,-23,1,15,5,2,1,2021-08-07 11:41:21,649185
4,10,25,20,12,4,1,0,2021-08-07 11:41:21,650188
5,8,20,48,23,10,5,3,2021-08-07 11:41:21,650188
4,8,9,6,-1,2,4,1,2021-08-07 11:41:21,650188
-2,-2,-3,-3,0,-2,-2,-2,2021-08-07 11:41:21,650188
-6,-9,-12,-36,-61,-23,-10,-8,2021-08-07 11:41:21,665186
6,9,22,50,71,26,7,6,2021-08-07 11:41:21,665186
-4,-8,-11,-7,-7,-3,-3,-3,2021-08-07 11:41:21,697185
5,10,9,-5,2,5,4,5,2021-08-07 11:41:21,697185
0,4,2,3,0,-3,-1,0,2021-08-07 11:41:21,697185
-1,-2,-4,-3,-29,-10,-2,-2,2021-08-07 11:41:21,697185
-6,-15,-29,-51,-17,-7,-5,-5,2021-08-07 11:41:21,697185
-15,-20,-18,-24,-18,-14,-10,-10,2021-08-07 11:41:21,697185
-3,-1,2,-15,-3,-1,-2,-1,2021-08-07 11:41:21,698184
8,11,3,8,-2,3,5,4,2021-08-07 11:41:21,698184
2,1,-14,6,12,7,2,-1,2021-08-07 11:41:21,729185
4,4,22,21,18,8,2,2,2021-08-07 11:41:21,745186
-3,-5,-19,4,8,3,-2,-2,2021-08-07 11:41:21,761184
-2,-1,14,8,-12,-7,-4,-4,2021-08-07 11:41:21,761184
2,4,0,6,-9,-4,0,2,2021-08-07 11:41:21,761184
4,3,7,-1,-8,-1,1,2,2021-08-07 11:41:21,761184
5,4,19,37,42,17,9,5,2021-08-07 11:41:21,761184
-1,-3,-11,-18,-4,-2,-2,-2,2021-08-07 11:41:21,761184
-8,-10,-19,-35,-24,-11,-6,-6,2021-08-07 11:41:21,762185
-11,-11,-8,-28,-33,-17,-11,-7,2021-08-07 11:41:21,762185
6,11,11,42,48,21,8,6,2021-08-07 11:41:21,762185
-4,0,9,12,-15,-7,-4,-5,2021-08-07 11:41:21,762185
5,10,14,28,29,12,5,2,2021-08-07 11:41:21,776185
-1,-2,-12,-27,-12,-2,-3,-3,2021-08-07 11:41:21,776185
-2,-7,-7,-22,-16,-9,-5,-3,2021-08-07 11:41:21,792185
0,-2,-4,-5,-8,-3,-1,1,2021-08-07 11:41:21,792185
-5,-8,-3,-15,-3,-1,-1,-2,2021-08-07 11:41:21,808184
-6,-6,-8,4,1,2,-1,-2,2021-08-07 11:41:21,840185
0,1,-5,-14,-13,-7,-2,-1,2021-08-07 11:41:21,856185
10,17,29,36,21,9,7,6,2021-08-07 11:41:21,856185
5,8,17,24,-2,-2,-1,2,2021-08-07 11:41:21,856185
-3,-8,-25,-17,-7,-2,-1,-3,2021-08-07 11:41:21,856185
-9,-14,-1,-23,-3,-6,-6,-5,2021-08-07 11:41:21,856185
-8,-9,-20,-1,6,-1,-3,-6,2021-08-07 11:41:21,856185
5,10,6,-1,2,2,2,4,2021-08-07 11:41:21,857186
-2,0,2,2,0,-4,-1,-2,2021-08-07 11:41:21,871186
1,1,5,5,-9,-3,1,2,2021-08-07 11:41:21,887185
0,-2,3,4,13,3,-1,-2,2021-08-07 11:41:21,887185
-4,-2,2,5,-11,-6,-5,-3,2021-08-07 11:41:21,887185
7,11,22,41,29,12,6,4,2021-08-07 11:41:21,887185
-1,-1,-9,-12,-12,-4,-1,-2,2021-08-07 11:41:21,887185
-3,-6,-13,-18,-7,-4,-2,0,2021-08-07 11:41:21,888185
2,6,13,5,10,5,1,3,2021-08-07 11:41:21,888185
1,-2,-12,-6,24,7,2,1,2021-08-07 11:41:21,888185
2,4,5,13,-6,-2,-1,0,2021-08-07 11:41:21,888185
-4,-3,-9,-15,-11,-7,-4,-2,2021-08-07 11:41:21,888185
-3,-7,-10,-4,-15,-8,-3,-3,2021-08-07 11:41:21,918187
-2,-1,4,-8,-12,-5,-1,1,2021-08-07 11:41:21,918187
-2,2,0,-9,6,3,-1,-1,2021-08-07 11:41:21,918187
-1,-1,5,9,9,5,0,-1,2021-08-07 11:41:21,918187
-3,-4,-7,-4,7,4,-1,-3,2021-08-07 11:41:21,918187
-2,-5,-16,-10,-6,-2,-3,0,2021-08-07 11:41:21,919185
-2,-5,-9,-7,-9,-6,-3,-3,2021-08-07 11:41:21,919185
-1,-2,-2,-10,-25,-11,-4,-1,2021-08-07 11:41:21,919185
0,2,7,12,5,3,0,0,2021-08-07 11:41:21,950186
7,9,18,33,30,10,7,3,2021-08-07 11:41:21,966184
-2,-2,0,-4,-2,-3,-2,-3,2021-08-07 11:41:21,966184
1,4,5,-10,-7,-3,-2,0,2021-08-07 11:41:21,966184
-2,-7,-15,-6,1,-4,-2,0,2021-08-07 11:41:21,966184
-6,-9,-21,-13,-13,-7,-4,-5,2021-08-07 11:41:21,966184
-6,-7,-9,-30,-28,-12,-6,-4,2021-08-07 11:41:21,966184
3,6,14,17,26,11,3,2,2021-08-07 11:41:21,967186
0,3,8,-4,-3,1,-1,-2,2021-08-07 11:41:21,982186
-1,1,0,-6,1,1,0,1,2021-08-07 11:41:21,982186
-6,-10,-11,-12,-14,-6,-5,-5,2021-08-07 11:41:21,998185
-3,1,2,0,-10,-5,-4,-1,2021-08-07 11:41:21,998185
5,8,10,30,20,7,3,3,2021-08-07 11:41:21,998185
-1,-3,-8,-8,-10,-2,-1,-3,2021-08-07 11:41:21,998185
-9,-14,-14,-36,-11,-9,-7,-8,2021-08-07 11:41:21,998185
-4,-9,-18,-19,-7,-3,-1,1,2021-08-07 11:41:21,998185
7,9,17,38,34,16,9,4,2021-08-07 11:41:22,029186
0,6,17,17,-3,-3,-3,-1,2021-08-07 11:41:22,029186
4,3,5,0,-6,1,4,2,2021-08-07 11:41:22,029186
-9,-11,-13,-24,-16,-10,-7,-6,2021-08-07 11:41:22,029186
-6,-5,-9,-11,-3,-6,-2,-6,2021-08-07 11:41:22,045186
5,5,12,8,4,2,2,5,2021-08-07 11:41:22,061185
4,5,11,19,12,7,4,3,2021-08-07 11:41:22,061185
-1,1,10,23,10,3,0,-1,2021-08-07 11:41:22,061185
1,-3,-20,-32,-14,-5,-1,-1,2021-08-07 11:41:22,061185
-6,-3,7,11,3,-1,-3,-4,2021-08-07 11:41:22,061185
7,9,7,26,7,2,4,7,2021-08-07 11:41:22,061185
1,-5,-16,-17,-8,-3,0,-1,2021-08-07 11:41:22,061185
-7,-9,-15,-44,-26,-12,-6,-5,2021-08-07 11:41:22,092188
-3,-5,-5,-19,-12,-7,-5,-3,2021-08-07 11:41:22,099184
-1,1,-5,19,6,3,0,-1,2021-08-07 11:41:22,099184
4,7,20,31,22,7,5,3,2021-08-07 11:41:22,100186
3,1,5,4,-7,-3,0,1,2021-08-07 11:41:22,100186
-1,-5,-10,-11,11,4,2,1,2021-08-07 11:41:22,100186
-2,0,3,12,12,3,-2,-1,2021-08-07 11:41:22,100186
-2,-2,-8,-11,-17,-5,-1,-3,2021-08-07 11:41:22,100186
-4,-5,2,-9,-5,-5,-4,-4,2021-08-07 11:41:22,124185
2,4,0,10,9,5,3,1,2021-08-07 11:41:22,140185
-9,-10,-9,-25,-30,-16,-11,-9,2021-08-07 11:41:22,140185
3,2,-1,-3,2,3,3,2,2021-08-07 11:41:22,140185
7,15,26,42,23,9,6,6,2021-08-07 11:41:22,140185
-3,-8,-16,-9,14,7,1,-1,2021-08-07 11:41:22,140185
-7,-11,-28,-25,-8,-6,-5,-4,2021-08-07 11:41:22,140185
-9,-6,7,-16,-22,-13,-8,-7,2021-08-07 11:41:22,141186
-5,-4,-9,6,-14,-8,-4,-3,2021-08-07 11:41:22,172185
11,13,13,7,-8,3,6,6,2021-08-07 11:41:22,188186
1,2,3,-1,17,5,2,0,2021-08-07 11:41:22,204183
0,2,3,-1,0,-1,1,1,2021-08-07 11:41:22,204183
-2,-6,0,0,-6,-3,-3,-2,2021-08-07 11:41:22,204183
-4,-3,0,-3,-10,-4,-3,-3,2021-08-07 11:41:22,204183
-2,-5,-23,-19,-13,-5,-2,-1,2021-08-07 11:41:22,204183
-7,-10,-11,-4,10,1,-2,-6,2021-08-07 11:41:22,204183
4,8,13,28,28,11,4,3,2021-08-07 11:41:22,205190
3,8,14,10,-1,-3,1,2,2021-08-07 11:41:22,205190
6,9,20,16,1,2,4,3,2021-08-07 11:41:22,205190
-2,-4,-7,0,9,2,-2,-1,2021-08-07 11:41:22,205190
-8,-14,-24,-28,-11,-4,-4,-5,2021-08-07 11:41:22,220185
-5,-3,3,0,-14,-7,-3,-5,2021-08-07 11:41:22,220185
5,10,6,2,14,7,4,2,2021-08-07 11:41:22,220185
-5,-5,-12,-15,-15,-6,-5,-4,2021-08-07 11:41:22,220185
-4,-6,-15,-20,-9,-3,-3,-4,2021-08-07 11:41:22,251184
-1,-1,4,-4,-2,-1,0,-2,2021-08-07 11:41:22,251184
2,3,10,25,11,1,2,2,2021-08-07 11:41:22,251184
3,3,2,3,-5,1,1,0,2021-08-07 11:41:22,251184
-2,0,2,-11,-13,-6,-3,-1,2021-08-07 11:41:22,267185
0,0,6,23,26,7,0,0,2021-08-07 11:41:22,267185
0,-2,-5,0,-5,-1,1,1,2021-08-07 11:41:22,267185
2,1,0,3,-3,-1,-1,0,2021-08-07 11:41:22,267185
-4,-6,-12,-19,-12,-8,-5,-3,2021-08-07 11:41:22,283184
-3,-2,-5,-10,-9,-3,-3,-2,2021-08-07 11:41:22,283184
2,1,4,-4,1,0,0,1,2021-08-07 11:41:22,283184
4,4,6,17,2,-2,2,2,2021-08-07 11:41:22,283184
5,7,18,27,23,11,6,4,2021-08-07 11:41:22,314185
-5,-7,-22,-19,-14,-10,-5,-5,2021-08-07 11:41:22,330185
-5,-8,-16,-26,-6,-3,-5,-5,2021-08-07 11:41:22,330185
-7,-10,-13,-17,-10,-7,-5,-6,2021-08-07 11:41:22,330185
3,7,14,8,2,3,3,3,2021-08-07 11:41:22,330185
7,7,22,19,7,3,3,4,2021-08-07 11:41:22,346187
-1,-6,-5,12,1,2,2,0,2021-08-07 11:41:22,362185
-7,-13,-32,-38,-16,-7,-5,-5,2021-08-07 11:41:22,362185
-9,-13,-18,-14,-6,-5,-4,-7,2021-08-07 11:41:22,378183
2,0,-12,-10,-7,0,-1,2,2021-08-07 11:41:22,378183
3,9,26,20,6,3,1,2,2021-08-07 11:41:22,378183
3,4,16,26,12,10,5,2,2021-08-07 11:41:22,378183
5,7,7,4,4,2,3,2,2021-08-07 11:41:22,378183
-2,-1,3,-8,-13,-5,-2,-2,2021-08-07 11:41:22,379186
-4,-3,-4,-1,-5,-6,-6,-2,2021-08-07 11:41:22,394183
3,5,3,-4,-3,-2,2,2,2021-08-07 11:41:22,410183
0,-1,3,24,20,8,2,-1,2021-08-07 11:41:22,426185
0,0,-3,5,6,4,1,1,2021-08-07 11:41:22,442186
-11,-15,-17,-33,-16,-10,-6,-7,2021-08-07 11:41:22,442186
-5,-6,-11,-15,-11,-7,-4,-3,2021-08-07 11:41:22,458185
2,5,8,-4,-15,-4,1,2,2021-08-07 11:41:22,474186
-1,0,-5,-1,-8,-5,0,-1,2021-08-07 11:41:22,474186
3,4,5,18,18,10,4,3,2021-08-07 11:41:22,474186
3,6,19,22,13,3,3,2,2021-08-07 11:41:22,474186
-2,-5,-12,-2,-8,-6,-4,-3,2021-08-07 11:41:22,474186
-1,-4,-11,-13,0,1,1,0,2021-08-07 11:41:22,474186
-11,-13,-15,-37,-30,-16,-11,-8,2021-08-07 11:41:22,474186
-1,2,3,-2,-1,0,-1,0,2021-08-07 11:41:22,474186
5,7,2,17,17,11,5,5,2021-08-07 11:41:22,475186
-3,-2,4,2,2,-1,-2,-2,2021-08-07 11:41:22,475186
5,5,9,25,11,7,4,2,2021-08-07 11:41:22,475186
-1,-5,-7,2,9,4,0,0,2021-08-07 11:41:22,475186
-1,3,9,-4,-1,-2,-2,-1,2021-08-07 11:41:22,475186
1,0,-8,-2,-9,-6,-4,-1,2021-08-07 11:41:22,475186
4,6,10,6,10,4,3,2,2021-08-07 11:41:22,476186
0,1,0,-4,-5,-1,-1,-1,2021-08-07 11:41:22,476186
-5,-8,-8,-16,-13,-6,-4,-3,2021-08-07 11:41:22,476186
-2,-3,0,0,2,1,-1,0,2021-08-07 11:41:22,476186
-3,-2,-1,-8,1,-2,-3,-4,2021-08-07 11:41:22,490184
0,0,4,9,0,-1,-1,-1,2021-08-07 11:41:22,490184
-2,-2,-18,-33,-30,-12,-6,-3,2021-08-07 11:41:22,506185
0,1,10,19,22,5,1,0,2021-08-07 11:41:22,506185
4,1,-7,4,2,3,2,2,2021-08-07 11:41:22,506185
-1,-3,-4,0,10,1,-1,-1,2021-08-07 11:41:22,506185
-6,-9,-12,-10,-21,-11,-5,-4,2021-08-07 11:41:22,521185
2,3,9,7,19,6,3,3,2021-08-07 11:41:22,533183
4,6,5,5,-5,-1,0,2,2021-08-07 11:41:22,533183
5,8,16,35,27,11,4,3,2021-08-07 11:41:22,533183
