EMG 1,EMG 2,EMG 3,EMG 4,EMG 5,EMG 6,EMG 7,EMG 8,Timestamp,Milliseconds
-2,-3,-5,-13,-20,-10,-4,-2,2021-08-07 11:49:06,538963
-2,-3,-6,-26,-34,-14,-4,-2,2021-08-07 11:49:06,538963
5,6,12,33,41,16,6,4,2021-08-07 11:49:06,538963
0,-2,-1,-2,-2,0,0,0,2021-08-07 11:49:06,538963
-1,-4,-4,-7,-14,-3,0,-2,2021-08-07 11:49:06,538963
-7,-6,-5,-6,-4,-1,-2,-4,2021-08-07 11:49:06,538963
-4,-2,3,6,6,-3,-3,-5,2021-08-07 11:49:06,538963
2,3,4,3,10,5,1,2,2021-08-07 11:49:06,538963
2,4,7,23,28,8,3,0,2021-08-07 11:49:06,554912
0,1,0,1,0,-1,-1,-1,2021-08-07 11:49:06,554912
-5,-6,-11,-26,-50,-21,-7,-4,2021-08-07 11:49:06,570911
6,5,4,10,23,8,5,6,2021-08-07 11:49:06,570911
-3,-4,-5,-9,-15,-8,-4,-2,2021-08-07 11:49:06,570911
-1,0,0,4,8,1,-2,-2,2021-08-07 11:49:06,570911
0,0,-3,-8,-6,2,1,0,2021-08-07 11:49:06,586910
-3,-5,-4,-1,-3,-2,-3,-3,2021-08-07 11:49:06,586910
1,1,1,1,3,4,2,2,2021-08-07 11:49:06,586910
2,0,2,13,14,5,2,-1,2021-08-07 11:49:06,586910
-6,-7,-11,-20,-20,-10,-5,-5,2021-08-07 11:49:06,602912
-1,1,3,-7,-22,-9,-3,-1,2021-08-07 11:49:06,602912
2,1,2,9,29,10,3,2,2021-08-07 11:49:06,618912
-1,-2,-2,3,-2,1,-3,-1,2021-08-07 11:49:06,618912
0,0,1,2,5,-1,-2,0,2021-08-07 11:49:06,618912
-1,-1,0,7,19,5,2,-2,2021-08-07 11:49:06,618912
0,-2,-3,-8,-11,-4,-1,-1,2021-08-07 11:49:06,664911
-2,1,0,-10,-18,-7,-3,-1,2021-08-07 11:49:06,664911
-4,-4,-4,-5,-10,-5,-2,-2,2021-08-07 11:49:06,664911
2,-1,-2,-4,-5,-2,0,0,2021-08-07 11:49:06,664911
-1,-2,2,2,0,-3,-1,0,2021-08-07 11:49:06,664911
-3,-3,-2,0,0,-2,-2,-1,2021-08-07 11:49:06,664911
1,0,-6,-19,-20,-4,0,3,2021-08-07 11:49:06,664911
3,3,8,27,33,11,6,1,2021-08-07 11:49:06,665912
-3,-3,-3,1,-2,-1,-2,-4,2021-08-07 11:49:06,680911
-1,-2,-6,-21,-23,-10,-3,-3,2021-08-07 11:49:06,696912
3,4,11,39,46,20,8,1,2021-08-07 11:49:06,696912
-1,0,2,4,15,2,0,-1,2021-08-07 11:49:06,696912
0,1,0,-4,-3,-1,-2,0,2021-08-07 11:49:06,696912
-1,0,-1,-3,-11,-7,-3,-2,2021-08-07 11:49:06,696912
-4,-6,-8,-23,-27,-9,-6,-6,2021-08-07 11:49:06,712911
0,1,0,2,0,1,-1,-1,2021-08-07 11:49:06,712911
1,1,1,2,-1,-1,0,0,2021-08-07 11:49:06,728912
0,-3,-2,-1,9,3,2,0,2021-08-07 11:49:06,744912
0,1,0,2,-1,-5,-3,0,2021-08-07 11:49:06,744912
-8,-9,-16,-37,-50,-20,-9,-5,2021-08-07 11:49:06,744912
0,0,7,28,51,18,4,3,2021-08-07 11:49:06,745345
1,0,0,10,-1,0,-1,0,2021-08-07 11:49:06,745345
2,1,4,6,24,13,5,3,2021-08-07 11:49:06,745345
-4,-6,-6,-2,-14,-12,-6,-5,2021-08-07 11:49:06,745345
-1,-2,-6,-26,-37,-13,-3,-1,2021-08-07 11:49:06,760936
3,3,9,26,45,18,6,3,2021-08-07 11:49:06,760936
-1,-1,-2,-8,-10,-7,-2,-2,2021-08-07 11:49:06,776938
-9,-8,-17,-40,-46,-22,-11,-5,2021-08-07 11:49:06,776938
1,0,0,5,9,4,3,1,2021-08-07 11:49:06,776938
3,2,5,12,-1,4,1,0,2021-08-07 11:49:06,776938
2,2,5,9,15,3,2,0,2021-08-07 11:49:06,792988
1,1,2,7,12,7,2,1,2021-08-07 11:49:06,808975
-2,-2,-4,-7,-7,-5,-4,-2,2021-08-07 11:49:06,824972
-2,0,-3,-3,-11,-6,-1,-1,2021-08-07 11:49:06,840938
-1,-2,-4,-15,-21,-10,-4,-1,2021-08-07 11:49:06,840938
0,-2,-3,-9,-5,0,-1,0,2021-08-07 11:49:06,840938
1,3,5,20,25,9,5,1,2021-08-07 11:49:06,840938
0,1,3,18,39,12,4,2,2021-08-07 11:49:06,840938
-2,-3,-5,-3,-12,-6,-3,-2,2021-08-07 11:49:06,840938
-4,-5,-6,-20,-35,-13,-6,-6,2021-08-07 11:49:06,840938
-6,-6,-10,-31,-51,-24,-12,-6,2021-08-07 11:49:06,841972
4,7,10,23,46,23,7,6,2021-08-07 11:49:06,841972
-2,-3,-4,-4,-4,-2,-3,-3,2021-08-07 11:49:06,855936
3,4,9,22,20,9,5,1,2021-08-07 11:49:06,855936
-1,-4,-3,-7,-9,-5,-3,-2,2021-08-07 11:49:06,871962
-4,-7,-8,-19,-25,-12,-5,-4,2021-08-07 11:49:06,887972
1,1,-1,-12,-15,-6,-1,1,2021-08-07 11:49:06,887972
5,6,10,33,48,21,8,4,2021-08-07 11:49:06,887972
-3,-2,-3,-5,-14,-6,-4,-3,2021-08-07 11:49:06,887972
1,-1,3,7,1,1,0,0,2021-08-07 11:49:06,887972
-3,-5,-6,-15,-34,-12,-4,-2,2021-08-07 11:49:06,887972
2,4,12,44,77,25,7,4,2021-08-07 11:49:06,887972
3,4,-1,-15,-22,-2,1,2,2021-08-07 11:49:06,888972
-2,-2,-1,-1,2,0,-1,-2,2021-08-07 11:49:06,888972
-1,3,5,16,18,6,1,0,2021-08-07 11:49:06,919937
-3,-3,-1,-4,-5,-4,-1,-2,2021-08-07 11:49:06,919937
-3,-4,-6,-6,-5,-2,-2,-1,2021-08-07 11:49:06,919937
-5,-5,-12,-25,-37,-17,-7,-4,2021-08-07 11:49:06,919937
1,0,0,2,14,4,-1,0,2021-08-07 11:49:06,935938
-4,-3,-6,-17,-26,-9,-5,-1,2021-08-07 11:49:06,951938
3,1,3,11,22,10,5,5,2021-08-07 11:49:06,951938
0,2,0,-6,-10,-1,0,0,2021-08-07 11:49:06,951938
-2,-1,1,8,10,2,0,0,2021-08-07 11:49:06,951938
-3,-3,-5,-12,-27,-11,-4,-3,2021-08-07 11:49:06,951938
-4,-5,-6,-10,-5,-4,-4,-4,2021-08-07 11:49:06,951938
3,4,2,-9,3,0,2,1,2021-08-07 11:49:06,951938
3,1,5,21,28,13,4,2,2021-08-07 11:49:06,983973
-4,-5,-10,-28,-40,-15,-6,-3,2021-08-07 11:49:06,999937
12,16,28,85,95,48,18,12,2021-08-07 11:49:06,999937
-4,-6,-5,-10,-28,-12,-6,-4,2021-08-07 11:49:06,999937
-3,-2,-3,-6,-6,-4,-4,-2,2021-08-07 11:49:06,999937
-3,-4,-8,-27,-45,-18,-6,-3,2021-08-07 11:49:06,999937
-3,-4,-6,-9,-15,-9,-5,-4,2021-08-07 11:49:06,999937
-2,-1,-2,4,14,4,1,-1,2021-08-07 11:49:06,999937
1,2,0,-2,2,3,0,2,2021-08-07 11:49:07,012936
-3,-4,-4,-12,-11,-5,-3,-2,2021-08-07 11:49:07,013940
-1,0,2,4,0,-3,-1,-1,2021-08-07 11:49:07,013940
1,2,8,28,39,13,5,1,2021-08-07 11:49:07,013940
-7,-9,-13,-32,-45,-20,-7,-5,2021-08-07 11:49:07,046936
5,8,9,17,37,16,7,6,2021-08-07 11:49:07,046936
-1,-2,-2,-7,-16,-12,-4,-4,2021-08-07 11:49:07,046936
-1,-2,-5,-18,-24,-5,-1,0,2021-08-07 11:49:07,046936
-1,1,2,15,31,11,0,0,2021-08-07 11:49:07,046936
2,4,7,23,28,11,3,1,2021-08-07 11:49:07,046936
-4,-2,-3,-9,-6,-4,-3,-2,2021-08-07 11:49:07,062935
-3,-2,-3,-6,-16,-9,-5,-3,2021-08-07 11:49:07,078938
-5,-7,-9,-31,-56,-22,-10,-3,2021-08-07 11:49:07,078938
-2,-3,-2,0,15,7,1,-1,2021-08-07 11:49:07,078938
3,3,4,12,20,7,3,3,2021-08-07 11:49:07,078938
-3,-4,-6,-11,-15,-6,-3,-2,2021-08-07 11:49:07,078938
-3,-3,-1,-4,-1,-3,0,-1,2021-08-07 11:49:07,094984
2,1,3,7,1,0,1,0,2021-08-07 11:49:07,094984
-3,-5,-3,-7,-2,-3,-2,-2,2021-08-07 11:49:07,094984
1,0,1,-7,-12,-3,0,2,2021-08-07 11:49:07,094984
3,1,5,17,32,10,3,0,2021-08-07 11:49:07,110936
-2,-1,0,4,3,2,0,0,2021-08-07 11:49:07,110936
-7,-5,-8,-15,-15,-8,-4,-4,2021-08-07 11:49:07,110936
-5,-7,-10,-5,-11,-6,-4,-4,2021-08-07 11:49:07,110936
-2,-1,-5,-6,-5,-4,-1,1,2021-08-07 11:49:07,126936
2,2,3,4,5,2,0,0,2021-08-07 11:49:07,126936
1,2,2,8,4,2,2,0,2021-08-07 11:49:07,126936
0,0,2,2,5,0,0,-2,2021-08-07 11:49:07,126936
-1,0,1,5,-2,-1,0,-3,2021-08-07 11:49:07,158936
-1,-1,-3,-4,-5,-4,-2,1,2021-08-07 11:49:07,158936
0,-3,-4,-10,-13,-4,-2,-2,2021-08-07 11:49:07,158936
-2,-2,-3,-7,-5,-3,-3,-1,2021-08-07 11:49:07,158936
-2,0,0,-1,4,3,1,-2,2021-08-07 11:49:07,174935
-1,-1,-1,0,-3,-2,-1,1,2021-08-07 11:49:07,190936
-2,-1,-1,-4,-5,0,-1,-1,2021-08-07 11:49:07,190936
1,-1,1,4,3,-1,-1,0,2021-08-07 11:49:07,190936
0,1,3,5,6,2,0,1,2021-08-07 11:49:07,206936
1,-1,0,-1,-3,0,0,-2,2021-08-07 11:49:07,222937
-1,-2,-4,-11,-15,-5,-2,-1,2021-08-07 11:49:07,238972
-2,-1,-2,-5,-5,-3,-1,-1,2021-08-07 11:49:07,270938
3,5,7,18,26,12,5,3,2021-08-07 11:49:07,270938
-4,-3,-4,-5,-13,-7,-5,-4,2021-08-07 11:49:07,270938
-9,-11,-18,-60,-104,-41,-14,-7,2021-08-07 11:49:07,270938
14,19,36,98,100,77,27,13,2021-08-07 11:49:07,270938
-3,-6,-4,-10,-43,-7,-4,-5,2021-08-07 11:49:07,270938
0,1,0,8,-3,3,1,0,2021-08-07 11:49:07,270938
1,-1,-1,-4,-8,-6,-2,-1,2021-08-07 11:49:07,271973
-6,-7,-15,-45,-44,-28,-11,-7,2021-08-07 11:49:07,271973
-1,-2,-1,-4,-3,-5,-2,-1,2021-08-07 11:49:07,271973
0,1,0,0,-2,1,-1,1,2021-08-07 11:49:07,271973
3,3,5,12,44,15,4,2,2021-08-07 11:49:07,271973
-4,-6,-6,-15,-15,-10,-4,-1,2021-08-07 11:49:07,271973
-3,-3,-4,-1,8,1,-1,-3,2021-08-07 11:49:07,271973
-6,-6,-17,-49,-75,-32,-10,-6,2021-08-07 11:49:07,271973
9,13,24,62,82,36,13,9,2021-08-07 11:49:07,271973
3,2,1,13,27,5,2,1,2021-08-07 11:49:07,272939
-2,-1,-1,-3,-3,-4,-1,-2,2021-08-07 11:49:07,301935
-4,-5,-4,-8,-7,-5,-3,-2,2021-08-07 11:49:07,301935
-3,-4,-11,-26,-35,-13,-5,-3,2021-08-07 11:49:07,301935
-3,-2,-4,-11,-11,-9,-4,-2,2021-08-07 11:49:07,301935
3,3,8,21,35,12,4,2,2021-08-07 11:49:07,317935
1,3,3,11,15,8,4,1,2021-08-07 11:49:07,317935
-1,-2,-1,4,4,3,-1,-1,2021-08-07 11:49:07,317935
-8,-8,-13,-34,-56,-32,-13,-6,2021-08-07 11:49:07,317935
1,0,-4,-16,-20,-6,-3,0,2021-08-07 11:49:07,348971
1,3,5,17,34,13,4,2,2021-08-07 11:49:07,364937
0,1,2,8,10,4,2,-1,2021-08-07 11:49:07,364937
-4,-3,-3,-2,-3,-4,-3,-2,2021-08-07 11:49:07,364937
-3,-5,-7,-19,-27,-11,-5,-2,2021-08-07 11:49:07,364937
4,4,4,8,6,2,0,4,2021-08-07 11:49:07,364937
2,1,2,7,-9,-1,0,2,2021-08-07 11:49:07,364937
2,-1,-1,-3,10,5,2,2,2021-08-07 11:49:07,364937
2,2,4,27,45,21,8,1,2021-08-07 11:49:07,372935
-4,-3,0,4,6,0,0,-3,2021-08-07 11:49:07,372935
-8,-6,-11,-30,-36,-18,-8,-7,2021-08-07 11:49:07,373971
-9,-5,-8,-23,-36,-16,-8,-8,2021-08-07 11:49:07,373971
9,11,21,46,62,29,10,6,2021-08-07 11:49:07,396971
1,-1,-1,-1,0,-1,-2,-2,2021-08-07 11:49:07,412970
0,0,-1,-3,-4,-4,-1,0,2021-08-07 11:49:07,428962
3,0,1,4,3,1,0,1,2021-08-07 11:49:07,444936
-5,-6,-11,-29,-39,-18,-7,-4,2021-08-07 11:49:07,476974
0,0,0,1,4,1,-1,1,2021-08-07 11:49:07,476974
0,-1,1,0,10,4,1,0,2021-08-07 11:49:07,476974
0,-3,-2,-8,-18,-9,-4,-1,2021-08-07 11:49:07,476974
-6,-8,-12,-27,-27,-13,-9,-3,2021-08-07 11:49:07,476974
6,6,12,25,26,15,7,4,2021-08-07 11:49:07,476974
-2,0,3,15,32,11,3,0,2021-08-07 11:49:07,476974
-1,-1,-1,-3,-9,-4,-1,-1,2021-08-07 11:49:07,477937
-1,0,-3,-10,-13,-7,-3,-3,2021-08-07 11:49:07,477937
-4,-7,-7,-12,-22,-13,-6,-4,2021-08-07 11:49:07,477937
1,-1,0,6,11,6,0,-2,2021-08-07 11:49:07,477937
-1,0,1,7,11,4,1,-2,2021-08-07 11:49:07,477937
-2,-1,-4,-13,-22,-10,-3,-3,2021-08-07 11:49:07,492937
-4,-4,-8,-20,-24,-9,-6,-6,2021-08-07 11:49:07,508974
3,3,6,20,25,11,4,2,2021-08-07 11:49:07,508974
0,0,-4,-13,-26,-11,-3,0,2021-08-07 11:49:07,508974
-1,0,6,19,31,10,2,-1,2021-08-07 11:49:07,508974
0,-1,1,3,7,5,2,1,2021-08-07 11:49:07,508974
-1,0,4,5,-6,-3,-1,-1,2021-08-07 11:49:07,508974
1,4,13,26,28,7,2,-2,2021-08-07 11:49:07,508974
3,-1,-2,-2,-10,-1,3,2,2021-08-07 11:49:07,508974
-5,-9,-26,-49,-26,-11,-5,-6,2021-08-07 11:49:07,508974
-15,-20,-29,-73,-63,-29,-18,-12,2021-08-07 11:49:07,524988
3,4,2,22,32,17,5,4,2021-08-07 11:49:07,540973
-2,-2,0,13,-7,-6,-2,-2,2021-08-07 11:49:07,540973
0,1,4,-3,-9,-4,-2,-2,2021-08-07 11:49:07,540973
6,6,9,36,42,18,8,4,2021-08-07 11:49:07,540973
1,2,7,1,0,1,1,0,2021-08-07 11:49:07,540973
0,2,5,7,-1,-2,0,-1,2021-08-07 11:49:07,555984
-5,-3,-5,-16,-26,-12,-5,-2,2021-08-07 11:49:07,571987
3,7,12,20,20,10,6,2,2021-08-07 11:49:07,571987
1,6,15,6,2,2,-1,-1,2021-08-07 11:49:07,571987
-2,0,-1,-2,-9,-3,-1,-1,2021-08-07 11:49:07,571987
-7,-17,-38,-34,-13,-4,-4,-4,2021-08-07 11:49:07,571987
-8,-13,-30,-32,-23,-18,-8,-6,2021-08-07 11:49:07,571987
-3,-3,-3,5,9,5,0,-1,2021-08-07 11:49:07,571987
-1,1,1,-1,15,7,1,-1,2021-08-07 11:49:07,602935
2,8,24,22,2,3,1,2,2021-08-07 11:49:07,618936
3,5,10,22,25,11,4,3,2021-08-07 11:49:07,618936
-3,-4,-9,-22,-30,-13,-4,-3,2021-08-07 11:49:07,618936
0,-3,0,-13,-14,-3,-2,-2,2021-08-07 11:49:07,634972
-1,1,6,18,22,3,1,-1,2021-08-07 11:49:07,634972
0,0,-6,-27,-41,-13,-4,-2,2021-08-07 11:49:07,634972
-2,0,-1,8,12,2,-1,-1,2021-08-07 11:49:07,634972
1,1,4,11,11,6,2,1,2021-08-07 11:49:07,634972
2,2,1,1,6,1,0,0,2021-08-07 11:49:07,634972
0,0,4,3,-6,-4,-3,-1,2021-08-07 11:49:07,650938
-4,-9,-15,-19,-19,-6,-3,-3,2021-08-07 11:49:07,650938
-1,-1,-2,8,11,4,2,0,2021-08-07 11:49:07,650938
3,7,13,29,28,10,5,1,2021-08-07 11:49:07,650938
-2,-1,2,-10,-21,-8,-4,-3,2021-08-07 11:49:07,666972
-1,0,-3,-1,5,2,0,-1,2021-08-07 11:49:07,666972
-2,-2,0,-5,-7,-5,-4,-2,2021-08-07 11:49:07,682935
2,4,3,-3,3,1,1,2,2021-08-07 11:49:07,682935
-4,-5,-10,-24,-29,-12,-5,-4,2021-08-07 11:49:07,682935
-3,-3,-8,-11,15,3,-1,-1,2021-08-07 11:49:07,682935
0,-2,-7,8,15,7,2,2,2021-08-07 11:49:07,698989
1,2,2,7,3,2,0,0,2021-08-07 11:49:07,698989
1,-3,0,16,25,9,1,0,2021-08-07 11:49:07,698989
1,2,0,-10,-17,-7,-1,2,2021-08-07 11:49:07,698989
-6,-6,-8,-23,-27,-15,-7,-6,2021-08-07 11:49:07,729937
3,2,7,19,9,3,2,3,2021-08-07 11:49:07,729937
0,3,6,-8,-19,-9,-3,-3,2021-08-07 11:49:07,729937
1,2,4,7,6,5,2,1,2021-08-07 11:49:07,729937
1,-5,-8,-3,6,2,1,2,2021-08-07 11:49:07,745935
-7,-10,-16,-14,-13,-8,-5,-7,2021-08-07 11:49:07,745935
-2,0,4,5,3,1,-2,-2,2021-08-07 11:49:07,745935
-3,-5,-6,-4,-8,-5,-2,-1,2021-08-07 11:49:07,745935
0,3,5,6,4,1,-1,-1,2021-08-07 11:49:07,761936
1,2,3,0,2,-2,0,3,2021-08-07 11:49:07,777939
-1,-1,-2,-9,-6,0,0,-1,2021-08-07 11:49:07,792937
-3,-2,-5,-16,-19,-11,-5,-1,2021-08-07 11:49:07,792937
3,5,11,34,49,20,8,4,2021-08-07 11:49:07,792937
-4,-2,0,-1,-8,-2,-2,-2,2021-08-07 11:49:07,792937
-2,0,-2,3,13,3,0,0,2021-08-07 11:49:07,792937
-1,-3,-5,-7,-5,-5,-1,-1,2021-08-07 11:49:07,792937
-4,-7,-12,-27,-30,-15,-9,-5,2021-08-07 11:49:07,824978
2,1,5,3,3,2,2,1,2021-08-07 11:49:07,840937
4,3,4,10,7,3,3,3,2021-08-07 11:49:07,855972
1,1,1,7,14,5,2,-1,2021-08-07 11:49:07,855972
-4,-3,-9,-23,-42,-16,-6,-6,2021-08-07 11:49:07,855972
-3,-3,0,-4,8,3,-1,-1,2021-08-07 11:49:07,855972
4,5,7,31,51,22,9,5,2021-08-07 11:49:07,855972
3,2,6,17,13,6,4,0,2021-08-07 11:49:07,855972
-3,-3,-4,-9,-16,-8,-3,-3,2021-08-07 11:49:07,855972
0,2,2,-7,-16,-7,-3,0,2021-08-07 11:49:07,855972
-5,-3,-7,-12,-24,-12,-8,-3,2021-08-07 11:49:07,855972
-1,-2,-2,11,20,10,2,1,2021-08-07 11:49:07,855972
2,1,0,-1,-6,-4,-1,-2,2021-08-07 11:49:07,856937
-2,-3,-4,-2,-4,-2,-2,-2,2021-08-07 11:49:07,856937
-4,-2,-2,-4,-2,-1,-2,-1,2021-08-07 11:49:07,871970
-3,-2,0,-1,-7,-3,-1,-1,2021-08-07 11:49:07,887986
1,3,5,9,14,6,3,2,2021-08-07 11:49:07,903973
-2,-2,-2,5,7,1,1,-3,2021-08-07 11:49:07,919963
-1,-2,-1,-3,-3,1,1,0,2021-08-07 11:49:07,919963
-3,-2,-3,-7,-3,-3,-2,-3,2021-08-07 11:49:07,919963
-3,-3,-4,-3,-2,-3,-3,-1,2021-08-07 11:49:07,919963
-2,-1,-1,-6,-9,-2,-1,-1,2021-08-07 11:49:07,919963
-2,-4,-2,5,0,-2,-1,0,2021-08-07 11:49:07,919963
1,1,-2,-8,-11,-3,-2,1,2021-08-07 11:49:07,919963
2,4,7,22,33,13,5,4,2021-08-07 11:49:07,919963
-2,-5,-2,-1,-3,-1,-1,-1,2021-08-07 11:49:07,919963
-5,-5,-7,-15,-21,-10,-4,-4,2021-08-07 11:49:07,920963
0,-1,-1,-7,-8,-3,-3,-2,2021-08-07 11:49:07,920963
1,2,4,10,12,5,1,1,2021-08-07 11:49:07,950936
0,1,1,5,7,4,1,-1,2021-08-07 11:49:07,965972
-1,-2,-4,-12,-17,-7,-2,-2,2021-08-07 11:49:07,981938
0,2,3,16,22,7,1,1,2021-08-07 11:49:07,981938
-9,-11,-15,-40,-49,-20,-10,-8,2021-08-07 11:49:07,981938
6,7,10,35,51,19,8,7,2021-08-07 11:49:07,981938
3,3,5,8,0,0,1,1,2021-08-07 11:49:07,981938
0,-1,0,0,1,0,0,-3,2021-08-07 11:49:07,981938
-1,-2,-4,-6,-12,-4,-2,-1,2021-08-07 11:49:07,981938
-4,-2,-5,-13,-11,-4,-3,-2,2021-08-07 11:49:07,982937
0,-2,-1,-2,1,-1,0,-1,2021-08-07 11:49:07,982937
-1,-4,-3,-6,-7,-4,-3,-2,2021-08-07 11:49:07,982937
-1,2,0,-4,3,0,1,-1,2021-08-07 11:49:08,013973
1,-1,-1,-4,-8,-5,-1,-2,2021-08-07 11:49:08,013973
3,2,2,10,10,3,2,1,2021-08-07 11:49:08,013973
-5,-7,-5,-5,-6,-3,-2,-5,2021-08-07 11:49:08,013973
1,1,-1,-3,-3,0,1,0,2021-08-07 11:49:08,013973
1,2,1,-4,-6,0,-1,0,2021-08-07 11:49:08,013973
-2,-2,-3,1,12,4,2,-3,2021-08-07 11:49:08,029937
-1,-1,3,6,-4,-3,-3,0,2021-08-07 11:49:08,029937
-1,-2,2,15,18,8,3,0,2021-08-07 11:49:08,060939
-3,-1,-5,-14,-14,-10,-3,-3,2021-08-07 11:49:08,076938
1,1,0,-8,-11,0,0,0,2021-08-07 11:49:08,076938
0,1,0,5,14,4,1,-1,2021-08-07 11:49:08,076938
-1,-2,0,-5,-3,-2,0,1,2021-08-07 11:49:08,076938
-3,-3,-3,0,-5,-4,-4,-2,2021-08-07 11:49:08,076938
-3,-2,-4,-10,-17,-7,-3,-2,2021-08-07 11:49:08,076938
0,0,-1,3,5,2,1,2,2021-08-07 11:49:08,076938
2,0,3,7,8,5,2,1,2021-08-07 11:49:08,077942
0,-2,-3,-8,-3,-1,-2,-1,2021-08-07 11:49:08,077942
-4,-3,-3,6,-5,-3,-3,-3,2021-08-07 11:49:08,077942
3,5,5,6,11,5,4,4,2021-08-07 11:49:08,077942
-4,0,-2,0,0,2,0,-1,2021-08-07 11:49:08,108986
-2,-2,-2,3,-2,-2,-2,-2,2021-08-07 11:49:08,124172
2,1,3,5,17,7,2,3,2021-08-07 11:49:08,140157
-3,-2,-1,-7,-12,-6,-3,-3,2021-08-07 11:49:08,140157
-3,-4,-5,-11,-16,-8,-6,-3,2021-08-07 11:49:08,140157
0,-1,-4,-7,-8,-3,-2,1,2021-08-07 11:49:08,140157
2,1,5,16,21,8,1,0,2021-08-07 11:49:08,140157
-1,-2,-4,0,-2,-1,-1,-2,2021-08-07 11:49:08,140157
0,-1,-2,-3,1,0,-1,0,2021-08-07 11:49:08,140157
-4,-2,-2,-2,-5,-4,-3,-3,2021-08-07 11:49:08,141132
-3,-2,-4,-10,-15,-7,-3,-2,2021-08-07 11:49:08,141132
1,0,-1,-3,-2,1,-1,1,2021-08-07 11:49:08,141132
2,2,3,10,9,3,0,2,2021-08-07 11:49:08,172158
-2,-4,-6,-12,-16,-6,-3,-2,2021-08-07 11:49:08,188160
-4,-4,-6,-9,-12,-5,0,-2,2021-08-07 11:49:08,188160
1,3,4,20,37,15,6,2,2021-08-07 11:49:08,188160
-1,-1,3,5,2,1,2,0,2021-08-07 11:49:08,188160
-2,-1,3,10,10,4,1,-3,2021-08-07 11:49:08,188160
-7,-5,-6,-19,-21,-11,-8,-7,2021-08-07 11:49:08,188160
-2,-1,-2,-5,-13,-3,-2,-2,2021-08-07 11:49:08,188160
-1,0,-2,-6,-3,-4,-3,-3,2021-08-07 11:49:08,204120
2,2,1,-1,2,0,2,1,2021-08-07 11:49:08,204120
3,1,-1,5,8,2,3,2,2021-08-07 11:49:08,204120
-1,-3,-5,-8,-16,-6,-1,-2,2021-08-07 11:49:08,204120
0,-1,-3,-7,-3,-3,-3,-3,2021-08-07 11:49:08,220161
2,3,5,19,25,11,7,4,2021-08-07 11:49:08,220161
1,-1,-2,-4,-2,-1,-1,-1,2021-08-07 11:49:08,220161
0,0,0,-13,-13,-5,-1,1,2021-08-07 11:49:08,220161
-4,-3,-2,-3,-6,-4,-1,-1,2021-08-07 11:49:08,251170
-1,-4,-2,-1,3,0,-2,-2,2021-08-07 11:49:08,251170
1,3,0,-7,1,1,1,2,2021-08-07 11:49:08,251170
-1,-1,0,5,2,-2,-1,-1,2021-08-07 11:49:08,251170
-1,-2,-4,-7,-9,-3,-2,-2,2021-08-07 11:49:08,251170
1,2,-4,-10,-13,-7,-2,-1,2021-08-07 11:49:08,251170
-3,-2,2,8,8,0,-2,-2,2021-08-07 11:49:08,267171
-1,-1,0,-1,-6,-1,-2,0,2021-08-07 11:49:08,267171
-1,1,0,12,22,9,3,1,2021-08-07 11:49:08,283119
-2,-3,-3,-7,-2,-1,-2,-1,2021-08-07 11:49:08,298120
0,-2,-1,-2,-8,-5,-3,1,2021-08-07 11:49:08,298120
-2,-3,-5,-13,-13,-8,-2,-3,2021-08-07 11:49:08,298120
1,1,3,5,-2,-2,-1,1,2021-08-07 11:49:08,298120
-6,-6,-3,2,-3,-3,-6,-4,2021-08-07 11:49:08,298120
4,5,5,3,10,7,5,5,2021-08-07 11:49:08,298120
-2,-2,-2,-3,-4,-3,-4,-2,2021-08-07 11:49:08,298120
-1,-3,-4,-7,-14,-6,-4,-1,2021-08-07 11:49:08,330146
3,3,5,12,17,8,3,3,2021-08-07 11:49:08,330146
-2,-2,0,6,2,0,-1,-3,2021-08-07 11:49:08,330146
-2,-1,-4,-8,-5,-2,-1,-3,2021-08-07 11:49:08,330146
-3,-4,-4,-13,-13,-6,-4,-3,2021-08-07 11:49:08,346121
1,1,4,15,13,3,2,0,2021-08-07 11:49:08,346121
0,-1,2,5,4,0,-4,-2,2021-08-07 11:49:08,346121
-3,-3,-3,0,-4,-2,-2,0,2021-08-07 11:49:08,346121
-1,-1,-4,-8,-10,-4,-2,-1,2021-08-07 11:49:08,362120
-1,-2,-2,-8,1,3,0,0,2021-08-07 11:49:08,378121
1,1,1,5,6,3,1,1,2021-08-07 11:49:08,378121
-3,-6,-3,-6,-10,-7,-5,-2,2021-08-07 11:49:08,378121
1,1,-2,-3,2,2,2,0,2021-08-07 11:49:08,378121
0,0,1,1,-3,-2,1,0,2021-08-07 11:49:08,378121
1,0,-1,2,3,4,1,0,2021-08-07 11:49:08,394121
-2,-3,-3,-4,-3,-4,-3,-3,2021-08-07 11:49:08,394121
2,1,2,-2,-5,-2,1,3,2021-08-07 11:49:08,394121
3,3,3,13,8,4,1,2,2021-08-07 11:49:08,394121
-2,-2,-3,-5,-4,-1,-1,-1,2021-08-07 11:49:08,410173
2,1,3,11,18,7,2,1,2021-08-07 11:49:08,410173
-2,-4,-4,-5,-9,-6,-3,-1,2021-08-07 11:49:08,426160
-1,-2,-1,-12,-1,1,0,-1,2021-08-07 11:49:08,426160
-2,0,1,1,-4,-4,-2,-1,2021-08-07 11:49:08,426160
-2,-2,0,-3,-4,-3,-2,0,2021-08-07 11:49:08,426160
-2,-1,-2,-4,-12,-4,-2,-2,2021-08-07 11:49:08,442155
4,5,5,16,33,14,5,4,2021-08-07 11:49:08,442155
-3,-4,-4,-6,-4,-2,-2,-3,2021-08-07 11:49:08,442155
0,-2,-1,-2,-1,0,0,1,2021-08-07 11:49:08,455158
-3,-1,-1,-2,-2,-4,-1,0,2021-08-07 11:49:08,474176
-5,-5,-5,-3,-15,-8,-4,-3,2021-08-07 11:49:08,490179
-1,-2,-2,-2,3,2,0,1,2021-08-07 11:49:08,505123
-1,0,0,2,1,1,-1,-1,2021-08-07 11:49:08,505123
-2,-1,1,0,-2,-4,-2,-2,2021-08-07 11:49:08,505123
2,1,0,0,6,5,4,3,2021-08-07 11:49:08,505123
-1,0,-2,3,1,-2,-2,0,2021-08-07 11:49:08,505123
-4,-5,-6,-16,-13,-7,-5,-4,2021-08-07 11:49:08,505123
4,3,6,18,20,9,2,0,2021-08-07 11:49:08,505123
-3,-3,-3,-10,-13,-7,-2,-4,2021-08-07 11:49:08,520120
0,-3,0,-5,-8,-4,-2,-3,2021-08-07 11:49:08,520120
-1,0,-1,1,2,2,1,-1,2021-08-07 11:49:08,520447
-1,-1,-2,-1,3,1,1,-1,2021-08-07 11:49:08,520447
-3,-3,-1,-5,-14,-6,-5,-1,2021-08-07 11:49:08,520447
-1,-1,-5,-12,-11,-4,-3,0,2021-08-07 11:49:08,520447
1,4,5,8,11,4,2,2,2021-08-07 11:49:08,520447
-1,-1,0,5,6,2,1,-1,2021-08-07 11:49:08,551629
0,1,1,-2,-8,-5,0,-1,2021-08-07 11:49:08,551629
-3,-3,-3,-8,-9,-5,-2,-2,2021-08-07 11:49:08,551629
0,0,1,5,8,3,1,0,2021-08-07 11:49:08,551629
2,2,5,11,9,4,2,2,2021-08-07 11:49:08,551629
-5,-3,-5,-3,-6,-4,-4,-3,2021-08-07 11:49:08,551629
-1,-3,-4,-9,-5,-3,-2,0,2021-08-07 11:49:08,567666
5,6,4,4,1,0,1,2,2021-08-07 11:49:08,567666
0,-4,-2,-2,-1,-1,-2,-1,2021-08-07 11:49:08,583664
-1,-2,-2,-1,-2,-2,-1,-1,2021-08-07 11:49:08,599630
-3,-4,-4,-3,-3,-4,-2,-4,2021-08-07 11:49:08,599630
-3,-5,-4,-7,-12,-7,-3,-2,2021-08-07 11:49:08,599630
2,1,1,5,20,10,2,1,2021-08-07 11:49:08,599630
1,0,1,2,-4,-2,-2,-1,2021-08-07 11:49:08,599630
0,-1,2,9,8,4,2,1,2021-08-07 11:49:08,599630
-3,-4,-3,-7,-14,-6,-2,-3,2021-08-07 11:49:08,599630
-2,-1,-4,0,0,-3,-2,-1,2021-08-07 11:49:08,615629
-4,-2,-6,-9,-7,-4,-3,-4,2021-08-07 11:49:08,615629
4,8,7,3,5,3,3,4,2021-08-07 11:49:08,631629
-2,-3,-5,-3,-3,-2,-2,-3,2021-08-07 11:49:08,631629
1,0,2,4,0,0,0,0,2021-08-07 11:49:08,647631
-1,-2,-3,-4,-2,1,-1,-2,2021-08-07 11:49:08,647631
0,1,0,2,-2,0,-1,0,2021-08-07 11:49:08,647631
-1,0,-2,4,2,0,-1,-1,2021-08-07 11:49:08,647631
-4,-2,-4,-10,-11,-4,-4,-4,2021-08-07 11:49:08,663631
-3,-2,-2,1,-3,-3,-3,-1,2021-08-07 11:49:08,679630
1,0,1,6,10,4,2,0,2021-08-07 11:49:08,679630
-1,-1,-2,-4,-4,-3,-2,-2,2021-08-07 11:49:08,679630
0,-1,-2,6,4,2,1,0,2021-08-07 11:49:08,679630
-1,0,1,5,0,-2,-1,-3,2021-08-07 11:49:08,679630
-4,-6,-8,-15,-23,-9,-6,-4,2021-08-07 11:49:08,679630
2,3,8,14,11,3,-1,2,2021-08-07 11:49:08,679630
4,4,3,10,22,12,6,5,2021-08-07 11:49:08,710630
-1,-2,-3,-4,-2,0,0,1,2021-08-07 11:49:08,726629
0,1,6,19,16,6,1,1,2021-08-07 11:49:08,726629
-3,-3,-6,-14,-18,-8,-4,-4,2021-08-07 11:49:08,726629
-4,-4,-4,-16,-26,-13,-6,-4,2021-08-07 11:49:08,726629
0,0,-3,-12,-15,-7,-1,0,2021-08-07 11:49:08,726629
-4,-3,-4,-5,-5,-2,-3,-3,2021-08-07 11:49:08,726629
6,5,10,23,49,21,8,5,2021-08-07 11:49:08,726629
-2,1,0,-5,-8,-3,-2,0,2021-08-07 11:49:08,758631
-1,-2,-4,-11,-19,-10,-4,-2,2021-08-07 11:49:08,774629
-2,0,2,7,10,5,2,0,2021-08-07 11:49:08,774629
-2,-2,-2,-2,-5,-2,1,-3,2021-08-07 11:49:08,774629
-1,0,-4,-11,-16,-6,-3,-2,2021-08-07 11:49:08,774629
1,1,1,2,4,2,1,2,2021-08-07 11:49:08,774629
1,0,0,4,10,3,2,1,2021-08-07 11:49:08,774629
0,0,0,1,4,2,1,1,2021-08-07 11:49:08,774629
-1,-2,2,5,0,-2,-1,-2,2021-08-07 11:49:08,789630
-1,-2,-4,-12,-15,-6,-2,-2,2021-08-07 11:49:08,789630
1,1,-1,0,7,2,0,1,2021-08-07 11:49:08,789630
-1,-3,-6,-4,-7,-1,-1,0,2021-08-07 11:49:08,789630
-1,-1,0,-2,-2,-4,-3,-1,2021-08-07 11:49:08,805630
-3,-1,-3,-1,0,-3,-3,-2,2021-08-07 11:49:08,818629
0,0,0,-4,-6,-3,0,0,2021-08-07 11:49:08,818629
-1,-1,2,4,3,4,0,-1,2021-08-07 11:49:08,818629
2,1,2,6,11,5,1,1,2021-08-07 11:49:08,818629
0,1,2,7,9,6,1,2,2021-08-07 11:49:08,818629
-3,-5,-7,-16,-28,-14,-7,-6,2021-08-07 11:49:08,819631
-1,1,-2,-2,0,0,-1,1,2021-08-07 11:49:08,836630
1,-2,-3,-1,-5,-3,1,-2,2021-08-07 11:49:08,836630
0,1,5,8,22,11,3,1,2021-08-07 11:49:08,836630
-3,-1,-1,-1,-6,-5,-3,-4,2021-08-07 11:49:08,867630
-4,-5,-10,-31,-36,-15,-7,-4,2021-08-07 11:49:08,883629
-1,-1,5,19,18,6,1,0,2021-08-07 11:49:08,898630
3,1,5,13,17,7,2,0,2021-08-07 11:49:08,898630
0,-1,-4,-9,-4,-1,3,0,2021-08-07 11:49:08,898630
-3,-1,1,1,-4,-3,-2,-2,2021-08-07 11:49:08,898630
-4,-1,-5,-14,-8,-4,-5,-2,2021-08-07 11:49:08,898630
0,0,-2,-7,-12,-6,-2,-1,2021-08-07 11:49:08,898630
1,2,3,7,11,5,0,2,2021-08-07 11:49:08,898630
-1,0,1,7,10,3,0,-1,2021-08-07 11:49:08,898630
-1,-1,-4,-7,-7,-4,-2,-1,2021-08-07 11:49:08,899669
-1,-1,-2,0,-3,0,-2,-2,2021-08-07 11:49:08,899669
-2,0,-3,-6,-7,-2,-2,-1,2021-08-07 11:49:08,899669
1,2,1,1,2,0,0,0,2021-08-07 11:49:08,899669
-3,-4,-6,-11,-16,-6,-4,-2,2021-08-07 11:49:08,946629
2,1,5,16,18,9,3,1,2021-08-07 11:49:08,962679
5,-1,-3,2,5,4,3,2,2021-08-07 11:49:08,978683
-2,-3,-1,-4,-8,-5,-1,-2,2021-08-07 11:49:08,978683
-5,-3,-2,-3,-5,-2,-3,-4,2021-08-07 11:49:08,978683
-2,-1,-1,1,4,-2,0,1,2021-08-07 11:49:08,978683
-3,0,4,3,1,-1,-2,-3,2021-08-07 11:49:08,978683
-1,0,1,6,1,0,-2,-1,2021-08-07 11:49:08,978683
2,2,0,-9,-10,-3,0,1,2021-08-07 11:49:08,978683
0,1,-1,3,4,0,0,0,2021-08-07 11:49:08,979632
-1,-2,-1,1,12,5,1,0,2021-08-07 11:49:08,979632
1,-1,-1,3,2,-1,1,-1,2021-08-07 11:49:08,979632
-1,-1,-3,-4,-4,-1,0,0,2021-08-07 11:49:08,994630
1,2,5,11,13,5,2,1,2021-08-07 11:49:09,010667
0,0,-3,-9,-8,-5,-2,-2,2021-08-07 11:49:09,026680
-3,-3,-6,-9,-16,-6,-3,-2,2021-08-07 11:49:09,026680
4,3,5,15,34,15,5,3,2021-08-07 11:49:09,026680
-2,-2,-2,-8,-10,-3,-3,-3,2021-08-07 11:49:09,026680
-2,-2,-2,-5,-6,-2,-2,-2,2021-08-07 11:49:09,026680
-3,-3,-4,-11,-12,-7,-4,-2,2021-08-07 11:49:09,026680
-3,-2,-3,-5,-9,-3,-3,-2,2021-08-07 11:49:09,026680
-1,-2,-4,-11,-6,-2,-2,0,2021-08-07 11:49:09,026680
-1,-1,-1,11,7,0,0,-1,2021-08-07 11:49:09,026680
1,1,2,0,6,2,0,-1,2021-08-07 11:49:09,027631
-1,0,-1,2,-3,-2,0,-1,2021-08-07 11:49:09,058629
0,0,-2,-4,-4,-3,-1,-2,2021-08-07 11:49:09,058629
-3,-3,-5,-5,-7,-3,-3,-2,2021-08-07 11:49:09,058629
2,2,5,10,11,5,2,1,2021-08-07 11:49:09,058629
1,0,-2,-3,1,0,-1,-2,2021-08-07 11:49:09,058629
-2,-3,-2,-2,-8,-5,-1,-2,2021-08-07 11:49:09,058629
-4,-1,-4,-9,-9,-7,-5,-2,2021-08-07 11:49:09,074687
-2,-1,-4,-11,-8,-2,-1,0,2021-08-07 11:49:09,074687
1,1,4,10,10,3,0,0,2021-08-07 11:49:09,090632
-4,-1,-6,-10,-12,-6,-3,-3,2021-08-07 11:49:09,106670
0,0,3,7,3,3,-1,1,2021-08-07 11:49:09,122631
-2,-2,-2,3,3,-1,-2,-2,2021-08-07 11:49:09,122631
-2,-3,-4,-8,-11,-4,-3,-2,2021-08-07 11:49:09,122631
-2,0,0,-1,-2,-2,-2,0,2021-08-07 11:49:09,122631
-1,0,-2,-2,-1,0,0,-3,2021-08-07 11:49:09,122631
-1,-3,-2,0,-2,-1,-1,-1,2021-08-07 11:49:09,122631
-1,-2,-2,-1,-6,-3,0,0,2021-08-07 11:49:09,122631
0,-2,0,3,6,2,2,1,2021-08-07 11:49:09,122631
-3,-2,-3,-12,-13,-6,-4,-1,2021-08-07 11:49:09,122631
1,3,2,12,14,6,2,2,2021-08-07 11:49:09,122631
0,1,1,6,4,1,2,0,2021-08-07 11:49:09,153668
-1,-2,-4,-2,-6,-4,-2,-1,2021-08-07 11:49:09,169666
-1,0,-3,-5,-2,0,1,-1,2021-08-07 11:49:09,174681
-3,0,-3,-12,-10,-3,-1,-2,2021-08-07 11:49:09,174681
0,0,4,8,8,4,0,1,2021-08-07 11:49:09,175668
0,-1,-4,-1,-5,-1,-1,-1,2021-08-07 11:49:09,175668
-1,-2,-2,0,4,0,0,-2,2021-08-07 11:49:09,175668
-1,0,0,4,2,2,0,-1,2021-08-07 11:49:09,175668
-2,-2,-1,-6,-9,-4,-2,0,2021-08-07 11:49:09,175668
2,0,5,9,16,7,2,0,2021-08-07 11:49:09,175668
0,-1,2,5,4,0,-1,2,2021-08-07 11:49:09,185631
-1,-4,-6,-14,-17,-7,-3,-3,2021-08-07 11:49:09,185631
-2,-2,-3,-7,-2,-1,-2,-3,2021-08-07 11:49:09,201631
0,2,3,10,8,4,-1,1,2021-08-07 11:49:09,201631
-1,-3,-3,0,-1,-1,0,-1,2021-08-07 11:49:09,217180
2,4,4,3,4,2,1,3,2021-08-07 11:49:09,233181
-3,-1,-6,-13,-15,-9,-3,-2,2021-08-07 11:49:09,249201
-1,-2,-3,-6,-4,-4,-1,-1,2021-08-07 11:49:09,265187
-2,-1,-4,-13,-17,-8,-3,-3,2021-08-07 11:49:09,297193
-1,1,4,18,19,8,2,0,2021-08-07 11:49:09,313147
-1,1,3,12,15,6,2,-1,2021-08-07 11:49:09,313147
-2,-2,-3,-15,-14,-4,-3,-1,2021-08-07 11:49:09,313147
-2,-1,0,1,-4,-4,-3,-2,2021-08-07 11:49:09,313147
-1,-2,-2,-4,-8,-6,-3,-1,2021-08-07 11:49:09,313147
-2,-2,-3,-6,-8,-4,-2,-1,2021-08-07 11:49:09,313147
-2,-3,-2,-4,0,-2,-1,-2,2021-08-07 11:49:09,313147
0,-1,2,4,-4,0,0,0,2021-08-07 11:49:09,313147
0,-1,-2,0,6,3,-1,0,2021-08-07 11:49:09,314182
2,0,3,10,12,4,2,2,2021-08-07 11:49:09,314182
-1,-1,-2,-7,-12,-7,-3,-2,2021-08-07 11:49:09,314182
-1,-2,1,4,5,2,-1,-3,2021-08-07 11:49:09,314182
1,3,-5,-12,-4,-1,2,0,2021-08-07 11:49:09,314182
0,0,1,5,3,2,1,-1,2021-08-07 11:49:09,314182
-1,0,-3,-7,-9,-4,-3,-2,2021-08-07 11:49:09,314182
-1,-2,0,6,5,2,-1,-1,2021-08-07 11:49:09,315147
-2,-1,1,7,5,2,-3,-2,2021-08-07 11:49:09,315147
1,-1,-3,-13,-14,-6,-5,-1,2021-08-07 11:49:09,328144
-1,-1,-1,2,3,-2,-2,-2,2021-08-07 11:49:09,328144
-2,-2,1,1,5,3,1,0,2021-08-07 11:49:09,328144
-3,-3,-3,-6,-6,-5,-1,-3,2021-08-07 11:49:09,328144
-1,0,-1,-2,-3,0,3,1,2021-08-07 11:49:09,360143
0,-1,-1,-2,-5,-2,-1,-1,2021-08-07 11:49:09,360143
2,0,0,-7,-5,-2,-2,-1,2021-08-07 11:49:09,360143
-1,-2,-1,1,3,0,-2,-3,2021-08-07 11:49:09,360143
1,-1,-4,-1,3,2,0,0,2021-08-07 11:49:09,360143
2,3,4,10,12,7,3,2,2021-08-07 11:49:09,360143
-4,-3,-5,-6,-9,-7,-5,-5,2021-08-07 11:49:09,376143
1,0,4,12,9,5,2,2,2021-08-07 11:49:09,376143
-3,-1,-2,-2,-5,-4,-2,-1,2021-08-07 11:49:09,391143
-2,-1,-4,-5,-6,-4,-2,-1,2021-08-07 11:49:09,407179
2,1,-1,1,0,-2,0,1,2021-08-07 11:49:09,423145
-3,-4,-4,-6,-9,-7,-4,-2,2021-08-07 11:49:09,423145
-1,-1,-1,-3,1,1,-1,-2,2021-08-07 11:49:09,423145
0,-1,1,6,4,3,2,1,2021-08-07 11:49:09,423145
-1,-2,-1,-2,-1,0,-1,-1,2021-08-07 11:49:09,423145
-1,-2,-3,-2,-1,-2,-3,-3,2021-08-07 11:49:09,423145
0,0,2,2,2,0,0,0,2021-08-07 11:49:09,423145
-1,-6,-2,-4,-7,-3,-2,-3,2021-08-07 11:49:09,423145
0,1,2,3,9,5,2,0,2021-08-07 11:49:09,423145
-1,-3,-1,-3,-5,-1,-1,0,2021-08-07 11:49:09,423145
2,-1,-1,-7,-7,-3,0,0,2021-08-07 11:49:09,455144
-1,-1,0,4,6,2,0,-1,2021-08-07 11:49:09,471145
2,1,1,5,-1,-1,0,-1,2021-08-07 11:49:09,471145
-1,-1,-4,-6,-8,-5,0,-1,2021-08-07 11:49:09,471145
-1,1,2,13,20,4,0,0,2021-08-07 11:49:09,471145
-1,-1,0,-1,-2,-1,0,0,2021-08-07 11:49:09,471145
-1,-2,-1,-2,-3,0,-1,1,2021-08-07 11:49:09,471145
-2,0,-1,-5,-7,-3,-2,-2,2021-08-07 11:49:09,471145
-1,-3,-2,2,-3,-3,-1,-3,2021-08-07 11:49:09,486144
-2,-1,-2,-3,-3,-2,-2,0,2021-08-07 11:49:09,502146
-1,0,-1,-1,1,0,-2,-1,2021-08-07 11:49:09,518169
1,-1,2,-4,-5,-1,0,2,2021-08-07 11:49:09,518169
-2,-1,0,-2,-6,-4,-2,1,2021-08-07 11:49:09,518169
-1,0,0,2,1,1,-1,-1,2021-08-07 11:49:09,518169
0,0,-1,2,3,0,2,-2,2021-08-07 11:49:09,518169
-1,-1,-3,-7,-2,-3,-1,-1,2021-08-07 11:49:09,518169
-1,-2,-1,8,16,6,0,-2,2021-08-07 11:49:09,533180
0,0,2,-2,-3,-4,-3,-2,2021-08-07 11:49:09,533180
-2,-3,-1,-7,-6,-2,-1,1,2021-08-07 11:49:09,533180
-1,1,2,9,12,6,1,-1,2021-08-07 11:49:09,533180
-3,-2,-1,-3,-7,-2,0,-2,2021-08-07 11:49:09,565143
-2,-2,-5,-5,-6,-4,-3,-2,2021-08-07 11:49:09,565143
-3,0,-2,-1,2,0,0,1,2021-08-07 11:49:09,565143
-2,-1,-1,2,1,1,-1,-3,2021-08-07 11:49:09,565143
0,0,0,-4,-6,-2,-1,0,2021-08-07 11:49:09,565143
0,0,0,1,2,0,1,-1,2021-08-07 11:49:09,565143
-2,0,-1,-1,-1,-1,1,0,2021-08-07 11:49:09,565143
-1,0,-1,-2,-2,-2,-1,0,2021-08-07 11:49:09,565143
-2,-1,-2,-7,-9,-5,-2,1,2021-08-07 11:49:09,597195
1,-1,-2,-3,2,1,1,0,2021-08-07 11:49:09,613146
1,-1,2,9,1,1,0,-1,2021-08-07 11:49:09,629183
-2,-2,0,4,6,2,0,-1,2021-08-07 11:49:09,629183
-4,-5,-7,-17,-21,-11,-7,-5,2021-08-07 11:49:09,629183
5,4,5,6,12,8,5,4,2021-08-07 11:49:09,629183
1,0,1,8,12,3,0,0,2021-08-07 11:49:09,629183
1,-1,-1,0,-5,-2,-2,-2,2021-08-07 11:49:09,629183
-1,-1,-1,3,2,1,-2,-1,2021-08-07 11:49:09,629183
-3,-5,-6,-11,-14,-8,-5,-4,2021-08-07 11:49:09,629183
0,1,-3,-6,-5,-2,-2,-2,2021-08-07 11:49:09,629183
1,1,0,-4,-4,-1,-1,1,2021-08-07 11:49:09,629183
0,-2,-3,-4,-2,-2,0,2,2021-08-07 11:49:09,645195
-1,-2,-2,-2,1,1,1,1,2021-08-07 11:49:09,645195
1,-3,-2,-3,-5,-1,0,1,2021-08-07 11:49:09,645195
-4,-6,-6,-6,-4,-3,-3,-3,2021-08-07 11:49:09,645195
0,1,4,11,12,4,-1,-2,2021-08-07 11:49:09,661146
-5,-2,-2,-3,-5,-4,-4,-3,2021-08-07 11:49:09,676170
-2,-2,-1,-7,-11,-8,-4,-1,2021-08-07 11:49:09,676170
2,3,2,4,8,0,-1,1,2021-08-07 11:49:09,676550
3,1,2,0,0,3,3,2,2021-08-07 11:49:09,691654
1,1,-2,3,3,0,-1,1,2021-08-07 11:49:09,707694
0,-1,0,1,-1,0,0,1,2021-08-07 11:49:09,723714
-1,-4,-1,-4,-5,-4,-2,-2,2021-08-07 11:49:09,723714
-1,-2,-4,-9,-7,-4,-1,0,2021-08-07 11:49:09,723714
1,0,3,8,8,4,0,0,2021-08-07 11:49:09,723714
0,-2,-1,0,2,2,1,-1,2021-08-07 11:49:09,723714
0,0,-1,1,0,-1,0,0,2021-08-07 11:49:09,723714
-2,-2,-1,2,0,1,-1,0,2021-08-07 11:49:09,723714
-2,-4,-6,-14,-17,-9,-1,-1,2021-08-07 11:49:09,724692
-3,1,0,2,14,5,0,-2,2021-08-07 11:49:09,724692
2,2,3,6,6,2,4,1,2021-08-07 11:49:09,724692
-1,-2,-2,-4,-8,-4,-2,-2,2021-08-07 11:49:09,755656
-1,0,-1,0,-3,-2,-1,-2,2021-08-07 11:49:09,755656
-2,-2,-3,-15,-7,-4,-3,-1,2021-08-07 11:49:09,755656
-1,1,3,13,10,3,0,-1,2021-08-07 11:49:09,755656
-1,-2,-4,-9,-9,-2,-1,0,2021-08-07 11:49:09,771654
2,3,3,12,14,4,2,0,2021-08-07 11:49:09,786706
-3,-3,-8,-15,-25,-12,-5,-3,2021-08-07 11:49:09,818656
2,2,4,6,5,4,2,2,2021-08-07 11:49:09,834706
-2,0,1,7,12,5,0,-3,2021-08-07 11:49:09,849694
-2,-3,-4,-3,-4,-2,1,-2,2021-08-07 11:49:09,865656
0,-1,0,-1,1,0,-1,0,2021-08-07 11:49:09,865656
-1,-2,-5,-12,-14,-7,-4,-1,2021-08-07 11:49:09,865656
-2,-2,-1,-3,-6,-4,-1,-2,2021-08-07 11:49:09,865656
-1,-2,0,2,1,-1,-2,-1,2021-08-07 11:49:09,865656
-2,0,0,1,-3,-4,-1,-3,2021-08-07 11:49:09,865656
-1,0,-2,-6,-7,-4,0,0,2021-08-07 11:49:09,865656
-1,-1,-1,1,4,1,-1,-3,2021-08-07 11:49:09,865656
-1,-1,1,4,5,1,0,-1,2021-08-07 11:49:09,866656
-1,1,2,5,4,1,1,1,2021-08-07 11:49:09,866656
-2,-2,-1,0,-1,0,-2,-2,2021-08-07 11:49:09,866656
0,-1,0,-1,0,-2,-2,-2,2021-08-07 11:49:09,866656
0,-1,-2,-8,-11,-4,-3,-1,2021-08-07 11:49:09,866656
-2,-2,-4,-12,-1,0,-2,-2,2021-08-07 11:49:09,866656
1,2,3,2,5,2,2,1,2021-08-07 11:49:09,866656
1,2,3,10,9,3,1,1,2021-08-07 11:49:09,866656
-1,-2,-1,-3,-4,-4,-1,-2,2021-08-07 11:49:09,866656
-2,-5,-2,1,-1,-1,-2,-2,2021-08-07 11:49:09,867656
-3,-4,-4,-11,-12,-4,-4,-3,2021-08-07 11:49:09,867656
-2,-3,-4,-11,-11,-6,-4,-1,2021-08-07 11:49:09,897655
4,4,5,6,15,8,3,2,2021-08-07 11:49:09,902692
1,1,2,10,9,4,3,1,2021-08-07 11:49:09,902692
-2,-2,-4,-3,0,-2,-1,-2,2021-08-07 11:49:09,902692
-2,-2,-3,-3,-9,-4,-2,-2,2021-08-07 11:49:09,902692
-2,-1,-5,-4,-8,-3,-2,0,2021-08-07 11:49:09,902692
-1,1,0,-1,0,-1,-2,0,2021-08-07 11:49:09,913694
-3,-3,-3,-2,-4,-1,-3,-2,2021-08-07 11:49:09,913694
2,0,0,-4,1,-1,2,1,2021-08-07 11:49:09,929654
-2,-1,0,1,1,1,-1,-2,2021-08-07 11:49:09,929654
1,1,0,0,1,0,0,1,2021-08-07 11:49:09,929654
0,2,1,8,8,2,1,1,2021-08-07 11:49:09,929654
-1,0,-2,3,-2,-1,-1,-2,2021-08-07 11:49:09,945656
-1,-2,-3,-5,-6,-3,-1,-1,2021-08-07 11:49:09,961657
-1,-4,0,-5,-5,0,-2,0,2021-08-07 11:49:09,977685
1,-1,2,0,0,-1,0,-1,2021-08-07 11:49:09,977685
-2,1,0,5,4,2,-1,0,2021-08-07 11:49:09,977685
-2,-2,-5,-13,-20,-10,-5,-4,2021-08-07 11:49:09,977685
2,2,2,15,18,7,1,0,2021-08-07 11:49:09,977685
-1,-3,-3,-4,-4,-3,-1,-1,2021-08-07 11:49:09,978656
0,1,1,2,2,1,1,2,2021-08-07 11:49:09,978656
-5,-2,-3,-7,-7,-4,-2,-1,2021-08-07 11:49:09,978656
0,-1,-2,4,1,1,0,-1,2021-08-07 11:49:10,009705
-1,-2,-1,-1,3,1,-2,-1,2021-08-07 11:49:10,025694
-3,-3,-4,-1,-3,-1,-1,-2,2021-08-07 11:49:10,041656
-1,-1,-1,2,0,-1,-3,0,2021-08-07 11:49:10,041656
2,-3,-4,-13,-11,-7,-2,-1,2021-08-07 11:49:10,041656
3,3,3,12,12,4,1,1,2021-08-07 11:49:10,041656
-1,-3,-2,-6,-6,-4,-3,-2,2021-08-07 11:49:10,041656
-1,-2,-2,0,1,-1,0,-1,2021-08-07 11:49:10,041656
-4,-1,-2,-6,-2,-1,-2,-1,2021-08-07 11:49:10,041656
2,1,0,-2,-1,1,0,0,2021-08-07 11:49:10,042655
-1,1,3,6,4,2,-1,-1,2021-08-07 11:49:10,042655
0,-2,-2,1,3,0,1,1,2021-08-07 11:49:10,042655
-2,-2,-2,-2,-3,-2,-1,-1,2021-08-07 11:49:10,042655
-2,-3,-5,-9,-14,-8,-4,-2,2021-08-07 11:49:10,042655
1,0,1,0,6,3,1,-1,2021-08-07 11:49:10,073701
0,0,1,12,14,5,0,-1,2021-08-07 11:49:10,073701
0,0,-1,2,-3,0,0,0,2021-08-07 11:49:10,073701
-2,-2,-2,-5,-4,-1,1,0,2021-08-07 11:49:10,073701
-1,-4,-3,-6,-9,-6,-3,-1,2021-08-07 11:49:10,089656
0,-1,-1,-2,-1,1,0,-1,2021-08-07 11:49:10,089656
0,0,3,9,11,4,1,1,2021-08-07 11:49:10,089656
-2,-2,-1,4,0,0,-1,-2,2021-08-07 11:49:10,089656
-1,0,-2,-2,-2,-2,0,-1,2021-08-07 11:49:10,105654
0,0,-2,-10,-8,-3,0,-1,2021-08-07 11:49:10,105654
-1,-1,-1,-6,-8,-6,-2,-3,2021-08-07 11:49:10,105654
3,2,4,13,16,8,3,1,2021-08-07 11:49:10,105654
0,1,0,3,7,3,1,1,2021-08-07 11:49:10,137706
0,1,-1,-3,-4,-1,-3,-1,2021-08-07 11:49:10,153683
-2,-2,-1,-3,-11,-5,-1,-2,2021-08-07 11:49:10,169657
-1,0,-2,-4,-1,-2,0,-2,2021-08-07 11:49:10,169657
-4,-4,-5,-1,12,5,0,-2,2021-08-07 11:49:10,169657
6,6,8,7,8,5,4,3,2021-08-07 11:49:10,169657
-1,-1,-2,-3,-7,-4,-1,-2,2021-08-07 11:49:10,169657
-2,0,-2,-11,-11,-5,-3,-2,2021-08-07 11:49:10,169657
-3,-3,-1,-1,-3,-2,-2,-2,2021-08-07 11:49:10,169657
-4,-5,-3,-5,-8,-6,-3,-2,2021-08-07 11:49:10,169657
-1,-2,-2,0,4,1,-2,-1,2021-08-07 11:49:10,169657
-2,-3,-4,-4,-5,-4,-1,-2,2021-08-07 11:49:10,169657
1,2,3,3,1,0,0,-1,2021-08-07 11:49:10,185654
2,1,0,0,2,2,1,2,2021-08-07 11:49:10,185654
0,-1,-1,-2,-9,-4,-1,-2,2021-08-07 11:49:10,201656
-4,-4,-4,-10,-1,-3,-2,-2,2021-08-07 11:49:10,201656
2,2,5,6,11,5,3,1,2021-08-07 11:49:10,201656
-4,-1,-2,4,-2,-1,-2,-2,2021-08-07 11:49:10,201656
1,1,2,7,16,7,1,0,2021-08-07 11:49:10,217708
1,-5,-2,-4,-6,-1,-1,-1,2021-08-07 11:49:10,217708
-2,-1,-5,-8,-10,-7,-3,-1,2021-08-07 11:49:10,217708
-3,-4,-2,-9,-6,-3,-2,-2,2021-08-07 11:49:10,217708
0,2,4,7,3,2,1,-2,2021-08-07 11:49:10,233654
-1,1,0,-2,-4,-2,-1,1,2021-08-07 11:49:10,233654
-2,-2,-1,2,-3,-3,-2,0,2021-08-07 11:49:10,249655
-3,-5,-3,0,6,3,1,-2,2021-08-07 11:49:10,249655
1,1,1,-4,-1,0,0,0,2021-08-07 11:49:10,249655
0,-1,-1,3,-1,-2,-2,-1,2021-08-07 11:49:10,249655
-2,0,0,-3,-6,-3,-2,-1,2021-08-07 11:49:10,265657
-1,-2,-1,-1,1,-2,-2,-1,2021-08-07 11:49:10,265657
-1,-3,-3,-1,-1,0,-1,-1,2021-08-07 11:49:10,265657
0,1,1,3,2,1,0,1,2021-08-07 11:49:10,265657
-2,-2,-4,-1,2,2,-1,-1,2021-08-07 11:49:10,280657
-2,-1,-3,-3,-8,-5,-3,-4,2021-08-07 11:49:10,296656
-1,-2,-1,3,2,0,-2,-1,2021-08-07 11:49:10,296656
1,3,1,-3,3,2,0,2,2021-08-07 11:49:10,296656
2,2,3,8,3,0,-1,0,2021-08-07 11:49:10,312705
-2,-2,-1,0,1,-1,-2,-2,2021-08-07 11:49:10,328693
-2,-3,-3,-7,-12,-6,-3,-2,2021-08-07 11:49:10,328693
0,1,2,14,21,8,2,0,2021-08-07 11:49:10,328693
0,-1,-2,-11,-8,-2,-2,-1,2021-08-07 11:49:10,328693
2,2,-1,-2,3,1,2,0,2021-08-07 11:49:10,328693
-2,-1,-4,-8,-13,-7,-2,-2,2021-08-07 11:49:10,328693
-4,-4,-4,-13,-19,-9,-5,-4,2021-08-07 11:49:10,328693
2,2,3,3,8,5,2,1,2021-08-07 11:49:10,344658
0,-1,2,10,14,5,3,2,2021-08-07 11:49:10,344658
0,0,0,0,2,1,1,2,2021-08-07 11:49:10,344658
-3,-3,-2,0,-2,-1,-1,-1,2021-08-07 11:49:10,344658
-2,-4,-4,-7,-8,-5,-3,-3,2021-08-07 11:49:10,375692
-2,-1,-3,-10,-13,-6,-3,-3,2021-08-07 11:49:10,391655
3,3,4,7,12,4,2,1,2021-08-07 11:49:10,406659
2,-1,0,1,3,2,0,1,2021-08-07 11:49:10,406659
-2,-3,-4,-5,-7,-3,0,0,2021-08-07 11:49:10,406659
1,0,-2,9,7,3,1,3,2021-08-07 11:49:10,406659
-4,-5,-2,-6,-1,-1,0,-3,2021-08-07 11:49:10,406659
-2,1,4,9,-4,-1,-1,-1,2021-08-07 11:49:10,406659
-5,-1,-1,-2,3,0,-3,-5,2021-08-07 11:49:10,406659
-4,-2,0,-2,-4,-4,-5,-5,2021-08-07 11:49:10,406659
1,1,2,-1,1,-1,-1,-3,2021-08-07 11:49:10,406659
0,0,-4,-5,-3,-4,-3,-1,2021-08-07 11:49:10,407696
2,0,-3,-4,-1,0,0,0,2021-08-07 11:49:10,438695
1,1,3,5,2,2,2,2,2021-08-07 11:49:10,438695
-1,-1,-3,-4,-3,-1,0,-1,2021-08-07 11:49:10,438695
0,-1,-1,-4,-3,-1,0,0,2021-08-07 11:49:10,438695
-2,-2,-2,-1,-6,-4,-1,-1,2021-08-07 11:49:10,454694
-1,-2,-3,-6,-4,-2,-1,-2,2021-08-07 11:49:10,454694
-1,0,1,2,2,0,0,1,2021-08-07 11:49:10,454694
-1,-1,-2,-3,-2,-3,-1,-1,2021-08-07 11:49:10,454694
0,-2,-1,-3,-3,-3,-2,-2,2021-08-07 11:49:10,470656
0,-1,-1,0,0,-1,-1,0,2021-08-07 11:49:10,486692
-2,-2,-4,-3,-3,-3,-3,-1,2021-08-07 11:49:10,502694
1,0,0,0,1,1,1,-1,2021-08-07 11:49:10,502694
2,2,2,6,5,1,1,0,2021-08-07 11:49:10,502694
3,2,1,-1,-2,-2,0,1,2021-08-07 11:49:10,502694
-2,-3,-3,0,-1,-2,-2,-2,2021-08-07 11:49:10,502694
-5,-4,-6,-12,-9,-4,-2,-3,2021-08-07 11:49:10,502694
-2,-2,-1,3,-4,-3,-4,-3,2021-08-07 11:49:10,502694
4,5,7,4,0,4,1,1,2021-08-07 11:49:10,503692
0,1,0,6,-3,-2,-2,-1,2021-08-07 11:49:10,518656
-3,-10,-5,-6,1,2,-2,-3,2021-08-07 11:49:10,518656
-3,-2,-3,1,-1,-1,-2,-2,2021-08-07 11:49:10,518656
-5,-5,-7,-13,-19,-9,-6,-4,2021-08-07 11:49:10,518656
2,2,5,9,18,7,1,1,2021-08-07 11:49:10,534655
-2,0,-4,-12,-18,-6,-4,-2,2021-08-07 11:49:10,534655
1,1,3,6,7,2,2,1,2021-08-07 11:49:10,565656
-2,-3,-3,0,3,3,0,-1,2021-08-07 11:49:10,581657
2,1,-1,-4,-7,-3,0,1,2021-08-07 11:49:10,597659
-1,0,-3,-6,-8,-5,0,0,2021-08-07 11:49:10,597659
-2,-4,-8,-19,-31,-13,-7,-4,2021-08-07 11:49:10,597659
1,3,6,32,51,19,5,2,2021-08-07 11:49:10,597659
-3,-3,-6,-18,-20,-8,-5,-4,2021-08-07 11:49:10,597659
5,8,13,35,34,13,6,5,2021-08-07 11:49:10,597659
-2,-5,-7,-15,-23,-11,-5,-1,2021-08-07 11:49:10,597659
-2,-3,-1,-3,5,1,-2,-2,2021-08-07 11:49:10,597659
-6,-6,-9,-12,-24,-12,-4,-3,2021-08-07 11:49:10,598694
6,5,5,0,17,9,4,3,2021-08-07 11:49:10,598694
0,2,1,-11,-16,-5,-3,-1,2021-08-07 11:49:10,598694
2,-3,-1,5,-5,-4,1,2,2021-08-07 11:49:10,598694
0,-4,6,37,67,29,10,3,2021-08-07 11:49:10,626695
-3,-1,-4,-14,-33,-13,-7,-4,2021-08-07 11:49:10,626695
0,3,6,17,25,10,3,1,2021-08-07 11:49:10,626695
-4,-5,-12,-33,-30,-14,-5,-4,2021-08-07 11:49:10,627658
2,4,7,11,0,1,1,2,2021-08-07 11:49:10,627658
-4,-5,-5,1,-1,-3,-3,-3,2021-08-07 11:49:10,627658
2,1,0,1,11,4,1,-1,2021-08-07 11:49:10,661703
-3,-1,-3,-12,-20,-10,-4,-2,2021-08-07 11:49:10,677658
0,-1,-4,-8,-8,-4,-1,-2,2021-08-07 11:49:10,693656
1,0,-1,-4,-5,-2,-1,-2,2021-08-07 11:49:10,693656
0,0,2,10,18,6,2,3,2021-08-07 11:49:10,693656
-3,-3,-4,-5,-6,-3,-2,-2,2021-08-07 11:49:10,693656
-4,-3,-3,-8,-9,-4,-4,-1,2021-08-07 11:49:10,693656
2,3,3,13,18,5,4,2,2021-08-07 11:49:10,693656
-1,-1,-1,-4,-10,-3,-1,0,2021-08-07 11:49:10,693656
4,3,6,12,9,6,3,2,2021-08-07 11:49:10,693656
0,0,-2,-2,5,0,1,-1,2021-08-07 11:49:10,694657
-6,-6,-5,-8,-10,-7,-5,-4,2021-08-07 11:49:10,709692
0,-1,-2,3,3,2,0,0,2021-08-07 11:49:10,725659
-2,0,0,1,5,1,-1,0,2021-08-07 11:49:10,725659
2,1,1,-2,-10,-4,-1,-1,2021-08-07 11:49:10,725659
-3,-4,-3,-4,0,1,-1,-2,2021-08-07 11:49:10,725659
0,-1,-4,-9,-7,-3,-1,-2,2021-08-07 11:49:10,725659
2,2,6,19,15,5,1,1,2021-08-07 11:49:10,725659
0,2,-2,-7,-8,-2,-1,0,2021-08-07 11:49:10,725659
-2,-3,-2,-6,-7,-4,-2,-2,2021-08-07 11:49:10,726657
-1,2,3,12,17,7,1,1,2021-08-07 11:49:10,772657
0,-2,-3,-6,-5,-3,-3,-2,2021-08-07 11:49:10,788654
0,1,1,-9,-9,-5,-2,0,2021-08-07 11:49:10,804656
-2,-1,-2,-1,3,-1,-2,-1,2021-08-07 11:49:10,804656
-1,-1,-1,0,-5,-3,-2,-2,2021-08-07 11:49:10,804656
-4,-4,-7,-15,-24,-12,-5,-6,2021-08-07 11:49:10,804656
1,1,3,1,5,5,2,3,2021-08-07 11:49:10,804656
2,3,8,27,32,11,4,1,2021-08-07 11:49:10,804656
-2,-1,-4,-4,-7,-5,-3,-1,2021-08-07 11:49:10,804656
-2,-1,-1,0,3,0,1,0,2021-08-07 11:49:10,820656
-4,-6,-7,-16,-25,-12,-7,-5,2021-08-07 11:49:10,820656
1,2,-1,-7,-8,0,2,2,2021-08-07 11:49:10,820656
-1,0,2,5,9,3,1,-1,2021-08-07 11:49:10,820656
-3,-2,-2,-2,-6,-2,-2,-3,2021-08-07 11:49:10,820656
-2,-1,-2,-5,-3,-2,-2,-1,2021-08-07 11:49:10,820656
2,3,3,7,6,5,2,1,2021-08-07 11:49:10,820656
-3,-3,-3,3,13,2,1,-1,2021-08-07 11:49:10,836654
-1,-1,-5,-11,-7,-2,-1,0,2021-08-07 11:49:10,836654
1,0,2,10,5,2,2,2,2021-08-07 11:49:10,837049
-2,-4,-6,-12,-6,-4,-3,-3,2021-08-07 11:49:10,837049
-1,0,2,-1,-9,-4,-1,-1,2021-08-07 11:49:10,851690
1,1,3,14,13,6,1,1,2021-08-07 11:49:10,851690
-3,-2,-2,-3,8,0,0,-3,2021-08-07 11:49:10,851690
3,4,-2,-9,-20,-6,0,2,2021-08-07 11:49:10,851690
-1,-1,2,6,6,3,1,-1,2021-08-07 11:49:10,867690
-1,-2,-4,-10,-7,-4,-3,-2,2021-08-07 11:49:10,882690
-4,-4,-5,-10,-16,-8,-6,-4,2021-08-07 11:49:10,882690
-1,-3,-2,2,3,2,-1,0,2021-08-07 11:49:10,882690
-1,1,-2,4,22,7,3,1,2021-08-07 11:49:10,898689
0,0,1,-1,3,1,0,0,2021-08-07 11:49:10,914689
-1,0,0,5,2,0,3,0,2021-08-07 11:49:10,914689
-6,-6,-11,-26,-27,-15,-7,-6,2021-08-07 11:49:10,930690
3,2,7,11,14,6,2,1,2021-08-07 11:49:10,946689
-4,-5,-5,-13,-18,-8,-5,-3,2021-08-07 11:49:10,946689
0,-1,1,5,8,5,0,1,2021-08-07 11:49:10,946689
0,3,5,15,17,4,0,2,2021-08-07 11:49:10,946689
1,0,-1,0,-2,-2,0,-1,2021-08-07 11:49:10,946689
-2,-3,-2,-1,0,0,0,-2,2021-08-07 11:49:10,946689
-3,-2,-2,-11,-13,-8,-5,-3,2021-08-07 11:49:10,947690
1,1,0,1,0,-1,1,0,2021-08-07 11:49:10,947690
-2,-3,-3,-2,-3,0,-2,-2,2021-08-07 11:49:10,947690
2,2,-1,-7,-12,-4,-3,0,2021-08-07 11:49:10,947690
1,0,2,9,8,4,1,1,2021-08-07 11:49:10,947690
0,0,1,9,10,6,2,1,2021-08-07 11:49:10,947690
-2,-2,-3,-10,-15,-7,-2,-2,2021-08-07 11:49:10,962689
-4,-6,-4,-6,-8,-5,-3,-5,2021-08-07 11:49:10,962689
3,2,-1,4,8,3,1,1,2021-08-07 11:49:10,962689
-1,0,1,3,5,2,0,-1,2021-08-07 11:49:10,962689
-2,-2,-1,-12,-19,-6,-3,-3,2021-08-07 11:49:10,994690
0,3,2,13,20,7,3,2,2021-08-07 11:49:10,994690
-4,-2,-1,-3,-5,-4,-1,-4,2021-08-07 11:49:10,994690
2,1,0,-4,0,1,1,-1,2021-08-07 11:49:10,994690
0,-5,-8,-9,-11,-5,-3,-1,2021-08-07 11:49:11,010689
-3,-3,-7,-13,-14,-5,-3,-2,2021-08-07 11:49:11,010689
1,4,5,17,15,6,0,1,2021-08-07 11:49:11,010689
0,-1,0,-1,-2,-1,-1,-2,2021-08-07 11:49:11,010689
-3,-1,-2,0,5,1,-2,-1,2021-08-07 11:49:11,042688
-3,-4,-3,-5,1,-2,-1,-1,2021-08-07 11:49:11,042688
1,-1,-2,-4,-7,-3,-1,-2,2021-08-07 11:49:11,042688
-3,-4,-3,-4,-5,-2,-4,-3,2021-08-07 11:49:11,042688
-1,0,-1,-1,-6,-3,-1,0,2021-08-07 11:49:11,042688
-1,-1,-2,-7,-9,-5,-2,-1,2021-08-07 11:49:11,042688
-1,-1,2,-3,3,0,0,0,2021-08-07 11:49:11,043692
3,2,8,19,23,9,4,3,2021-08-07 11:49:11,043692
-1,-3,-2,-5,2,0,0,-2,2021-08-07 11:49:11,074200
-2,1,2,5,1,1,-1,-1,2021-08-07 11:49:11,089201
-1,-1,-1,-7,-12,-4,0,-2,2021-08-07 11:49:11,089201
-1,-4,-6,-9,-12,-6,-3,-3,2021-08-07 11:49:11,089201
0,-1,-2,-4,-1,1,-1,1,2021-08-07 11:49:11,089201
2,2,5,10,7,2,1,0,2021-08-07 11:49:11,089201
-2,-3,-6,-10,-13,-5,-2,-2,2021-08-07 11:49:11,089201
-1,0,1,8,6,2,-3,-1,2021-08-07 11:49:11,089201
-1,0,-3,-13,-11,-5,-2,0,2021-08-07 11:49:11,121200
3,4,5,16,14,5,2,2,2021-08-07 11:49:11,137201
-3,-2,-4,1,-2,-2,-2,-1,2021-08-07 11:49:11,153200
1,2,1,1,3,2,2,0,2021-08-07 11:49:11,153200
-1,-2,-2,-3,-4,-3,-1,1,2021-08-07 11:49:11,153200
-1,-3,0,0,2,-1,0,0,2021-08-07 11:49:11,153200
1,1,1,4,6,3,1,2,2021-08-07 11:49:11,153200
-3,-3,-6,-13,-16,-8,-4,-1,2021-08-07 11:49:11,153200
-1,-1,-3,-6,-10,-2,-3,-2,2021-08-07 11:49:11,153200
3,3,7,18,26,12,4,2,2021-08-07 11:49:11,153200
2,0,1,4,7,3,1,1,2021-08-07 11:49:11,153200
-3,-3,-2,-4,-6,-3,-2,-1,2021-08-07 11:49:11,153200
0,0,1,-1,-6,-4,-3,-2,2021-08-07 11:49:11,168202
-2,-2,-3,-6,-5,-2,-1,-1,2021-08-07 11:49:11,168202
-1,-1,-3,-9,-6,-4,-2,0,2021-08-07 11:49:11,184201
-1,-3,-5,-11,-15,-7,-1,-1,2021-08-07 11:49:11,184201
1,1,4,14,24,10,5,1,2021-08-07 11:49:11,184201
-4,-4,-4,-6,-1,-1,-1,-3,2021-08-07 11:49:11,184201
0,2,4,13,10,4,2,0,2021-08-07 11:49:11,184201
-4,-2,0,-5,-10,-7,-6,-5,2021-08-07 11:49:11,184201
-2,-2,-3,-8,-15,-7,-4,-2,2021-08-07 11:49:11,200201
2,5,7,11,12,5,2,2,2021-08-07 11:49:11,200201
-1,-1,-4,-4,-4,-2,-4,-1,2021-08-07 11:49:11,216203
0,0,-2,-5,-8,-2,-2,1,2021-08-07 11:49:11,216203
0,-1,-2,4,5,1,1,0,2021-08-07 11:49:11,232202
-1,-4,-5,-10,-15,-6,-1,-1,2021-08-07 11:49:11,248200
2,0,3,4,15,4,1,0,2021-08-07 11:49:11,263202
-1,-1,-4,-6,-9,-5,-2,-2,2021-08-07 11:49:11,279200
0,0,3,12,15,6,1,1,2021-08-07 11:49:11,279200
-3,-2,-5,-10,-18,-8,-3,-4,2021-08-07 11:49:11,279200
-3,-3,-4,-8,-10,-2,-3,-2,2021-08-07 11:49:11,279200
2,2,1,7,16,7,2,2,2021-08-07 11:49:11,279200
-2,-2,0,-3,-9,-5,0,-1,2021-08-07 11:49:11,279200
1,1,0,-3,1,0,0,0,2021-08-07 11:49:11,279200
-2,-4,-3,-5,-6,-3,-3,-5,2021-08-07 11:49:11,279200
2,4,6,14,16,7,3,2,2021-08-07 11:49:11,280202
-3,-4,-3,-6,-8,-7,-4,-4,2021-08-07 11:49:11,295201
3,1,1,0,1,0,0,2,2021-08-07 11:49:11,295201
-1,1,2,0,-9,-3,1,1,2021-08-07 11:49:11,295201
-4,-4,-7,-10,-6,-4,-5,-4,2021-08-07 11:49:11,295201
0,3,0,9,13,4,1,1,2021-08-07 11:49:11,311200
-3,-2,-1,-2,-7,-3,-4,-2,2021-08-07 11:49:11,311200
-1,-2,-2,-6,-1,-1,0,0,2021-08-07 11:49:11,311200
1,0,4,5,5,1,2,0,2021-08-07 11:49:11,311200
-2,-4,-6,-11,-13,-7,-2,-2,2021-08-07 11:49:11,327202
-2,-5,-5,-6,-7,-2,-3,-2,2021-08-07 11:49:11,327202
3,1,4,12,15,6,2,-1,2021-08-07 11:49:11,327202
-1,-2,-1,-2,1,0,-1,-2,2021-08-07 11:49:11,327202
-2,-2,-2,0,0,-3,-3,-2,2021-08-07 11:49:11,359201
0,0,0,0,0,0,1,0,2021-08-07 11:49:11,375202
1,0,-3,-1,-4,1,2,2,2021-08-07 11:49:11,391201
-1,-3,-2,-5,-6,-2,-2,-2,2021-08-07 11:49:11,407200
1,-1,3,7,4,0,-2,-1,2021-08-07 11:49:11,407200
-4,-2,-2,-3,-2,-6,-3,-1,2021-08-07 11:49:11,407200
0,0,-4,-12,-8,0,3,1,2021-08-07 11:49:11,407200
1,0,0,6,12,5,4,3,2021-08-07 11:49:11,407200
0,1,2,4,-4,-1,-2,-2,2021-08-07 11:49:11,407200
-6,-5,-7,-11,-9,-13,-10,-8,2021-08-07 11:49:11,408202
0,1,3,11,10,2,-1,-1,2021-08-07 11:49:11,408202
-1,0,-5,-6,-9,-5,-1,-1,2021-08-07 11:49:11,408202
2,2,2,-3,1,2,5,3,2021-08-07 11:49:11,408202
-1,-2,-2,0,2,3,2,0,2021-08-07 11:49:11,408202
-1,-4,-2,-6,-5,-4,-2,-1,2021-08-07 11:49:11,408202
-1,-3,0,-1,-4,-1,0,-2,2021-08-07 11:49:11,408202
0,0,1,4,2,2,0,1,2021-08-07 11:49:11,439201
0,0,0,0,4,2,2,0,2021-08-07 11:49:11,439201
-2,-1,-1,0,-1,-1,-1,1,2021-08-07 11:49:11,448202
1,0,1,-1,-11,-6,-2,0,2021-08-07 11:49:11,448202
-1,0,1,5,10,2,-2,-3,2021-08-07 11:49:11,448202
2,1,1,-3,-1,2,2,2,2021-08-07 11:49:11,449201
-4,-3,-3,-8,-7,-4,-4,-3,2021-08-07 11:49:11,449201
-2,-2,1,5,10,2,-1,-1,2021-08-07 11:49:11,449201
1,-1,-2,-1,0,1,0,1,2021-08-07 11:49:11,471203
0,-1,-1,1,-2,0,1,1,2021-08-07 11:49:11,471203
-1,-1,0,0,-4,-4,-2,-2,2021-08-07 11:49:11,471203
-2,-4,-8,-21,-29,-12,-4,-4,2021-08-07 11:49:11,471203
-4,-5,0,5,1,-1,1,0,2021-08-07 11:49:11,502201
2,2,4,15,29,14,5,4,2021-08-07 11:49:11,502201
0,-1,-4,-6,-5,-5,-4,-3,2021-08-07 11:49:11,502201
-1,0,0,1,5,2,0,-1,2021-08-07 11:49:11,502201
-1,-1,-8,-17,-20,-11,-4,0,2021-08-07 11:49:11,502201
4,0,3,5,-8,-1,0,0,2021-08-07 11:49:11,502201
-1,-1,0,0,5,-1,-1,0,2021-08-07 11:49:11,518202
-2,-2,-2,-1,1,-5,-6,-5,2021-08-07 11:49:11,533201
0,-1,-1,-4,-6,-2,-2,-2,2021-08-07 11:49:11,549200
-2,-2,-4,-5,-4,-4,-3,-2,2021-08-07 11:49:11,549200
0,1,2,2,2,3,1,3,2021-08-07 11:49:11,549200
-2,-2,0,0,-2,-1,0,-1,2021-08-07 11:49:11,549200
-2,-1,-2,-6,-8,-1,-1,0,2021-08-07 11:49:11,549200
-1,-2,0,6,6,1,1,-2,2021-08-07 11:49:11,550201
2,2,4,5,8,3,1,2,2021-08-07 11:49:11,565202
-1,-1,-1,-3,3,1,0,-1,2021-08-07 11:49:11,581202
1,-2,-1,-8,-6,-4,0,1,2021-08-07 11:49:11,581202
-1,-3,-1,-9,-7,-4,-2,-1,2021-08-07 11:49:11,581202
-2,-2,1,14,13,6,0,-2,2021-08-07 11:49:11,581202
0,1,0,-3,-1,-2,0,0,2021-08-07 11:49:11,582201
-4,-2,-5,-4,0,-1,-2,-1,2021-08-07 11:49:11,597200
0,-1,-4,-12,-14,-9,-4,-2,2021-08-07 11:49:11,597200
0,-1,0,0,-2,-2,-2,1,2021-08-07 11:49:11,597200
-2,2,3,6,2,2,0,-1,2021-08-07 11:49:11,597200
-1,-2,1,3,7,2,-1,-2,2021-08-07 11:49:11,612203
-1,-1,-1,-3,-2,0,-1,0,2021-08-07 11:49:11,612203
-1,0,-2,1,-1,-2,0,-2,2021-08-07 11:49:11,612203
-2,-2,-2,0,2,0,0,1,2021-08-07 11:49:11,612203
1,1,1,0,-2,0,-1,-2,2021-08-07 11:49:11,644202
-4,0,-1,0,0,0,0,-1,2021-08-07 11:49:11,644202
3,3,4,7,4,1,0,0,2021-08-07 11:49:11,644202
-1,-3,0,-1,-1,-1,0,-1,2021-08-07 11:49:11,644202
-1,-1,0,1,5,2,1,-1,2021-08-07 11:49:11,644202
0,-1,-3,-4,-11,-6,-4,-2,2021-08-07 11:49:11,644202
-2,-1,-1,1,3,2,0,0,2021-08-07 11:49:11,644202
-2,0,-3,-3,3,0,-1,-2,2021-08-07 11:49:11,645202
3,1,4,11,11,5,1,0,2021-08-07 11:49:11,676200
-1,2,2,0,2,1,0,-1,2021-08-07 11:49:11,676200
-3,-2,-5,-8,-12,-5,-3,0,2021-08-07 11:49:11,676200
-2,-3,-1,1,0,-4,0,0,2021-08-07 11:49:11,676200
-3,-2,-1,-3,-2,-1,-3,-1,2021-08-07 11:49:11,708200
-1,-3,-2,-8,-3,-2,-3,-2,2021-08-07 11:49:11,708200
0,0,-1,-4,-8,-2,-2,-1,2021-08-07 11:49:11,708200
-1,-1,-1,2,4,2,-1,-1,2021-08-07 11:49:11,708200
-2,-4,-5,-9,-6,-5,-4,-2,2021-08-07 11:49:11,708200
1,0,2,7,7,2,1,0,2021-08-07 11:49:11,709202
-1,-1,-3,-7,-4,-2,0,-1,2021-08-07 11:49:11,709202
1,-1,-1,2,-2,-2,-1,0,2021-08-07 11:49:11,709202
-1,1,-2,-4,-4,-2,-2,-1,2021-08-07 11:49:11,740204
2,2,2,10,8,3,1,-1,2021-08-07 11:49:11,756201
-4,-4,-3,-8,-10,-4,-2,-4,2021-08-07 11:49:11,756201
3,3,3,5,7,5,2,1,2021-08-07 11:49:11,756201
1,0,-2,-4,-7,-4,0,-1,2021-08-07 11:49:11,756201
0,-2,-1,1,-2,-1,0,0,2021-08-07 11:49:11,756201
-1,-4,-4,-11,-13,-7,-3,-3,2021-08-07 11:49:11,756201
0,0,3,2,5,1,-1,0,2021-08-07 11:49:11,757203
-1,1,1,12,6,2,1,0,2021-08-07 11:49:11,772201
0,0,-2,-3,-1,0,0,1,2021-08-07 11:49:11,772201
0,-1,-3,2,3,0,-1,-1,2021-08-07 11:49:11,772201
-2,-3,-6,-12,-15,-4,-2,-3,2021-08-07 11:49:11,772201
0,-2,-3,-8,-10,-5,-2,-1,2021-08-07 11:49:11,788203
0,0,3,13,14,4,-1,0,2021-08-07 11:49:11,788203
-2,-1,-2,0,0,-3,-2,-2,2021-08-07 11:49:11,788203
-2,0,1,1,-3,-1,-1,1,2021-08-07 11:49:11,788203
-3,-2,-4,-8,-11,-5,-1,-2,2021-08-07 11:49:11,820201
2,-1,-2,-3,5,1,0,-1,2021-08-07 11:49:11,836201
5,3,8,23,34,16,6,4,2021-08-07 11:49:11,852200
-2,-2,-2,-2,-2,-2,-3,-1,2021-08-07 11:49:11,867200
-2,-1,0,-2,-3,-3,0,-2,2021-08-07 11:49:11,867200
-3,-4,-4,-11,-18,-9,-3,-3,2021-08-07 11:49:11,867200
-4,-4,-6,-8,-10,-6,-3,-4,2021-08-07 11:49:11,867200
1,1,2,5,13,7,4,0,2021-08-07 11:49:11,867200
2,0,1,-1,2,2,0,1,2021-08-07 11:49:11,867200
0,2,0,2,-1,-1,-2,-2,2021-08-07 11:49:11,867200
-1,-1,-1,-4,-3,-2,0,-3,2021-08-07 11:49:11,868202
-3,-3,-4,-4,-15,-7,-3,-2,2021-08-07 11:49:11,868202
-3,-2,-1,1,10,3,-2,-1,2021-08-07 11:49:11,883201
0,-1,-1,1,-1,0,0,1,2021-08-07 11:49:11,883201
-1,0,-1,-3,-5,-2,0,0,2021-08-07 11:49:11,890202
-1,-2,-5,-10,-8,-4,-2,-1,2021-08-07 11:49:11,890202
0,1,1,8,5,1,1,-1,2021-08-07 11:49:11,890202
-2,-1,1,4,1,0,-2,-1,2021-08-07 11:49:11,891202
-1,-1,-1,0,-4,-1,-1,0,2021-08-07 11:49:11,891202
0,-1,-1,0,0,-1,-1,0,2021-08-07 11:49:11,891202
-2,0,-3,-3,-6,-2,-2,-2,2021-08-07 11:49:11,915200
-2,-1,-1,-3,-1,-2,1,-1,2021-08-07 11:49:11,931201
0,1,-1,-2,-5,-4,0,1,2021-08-07 11:49:11,931201
2,0,5,12,9,4,0,-1,2021-08-07 11:49:11,931201
0,0,-2,-8,-7,-5,-2,0,2021-08-07 11:49:11,931201
-2,0,1,3,10,4,0,-1,2021-08-07 11:49:11,931201
1,0,-1,-4,-4,-1,0,-1,2021-08-07 11:49:11,931201
-2,-3,-4,-7,-11,-7,-2,-1,2021-08-07 11:49:11,932203
-3,-5,-3,-7,-18,-6,-3,-1,2021-08-07 11:49:11,947202
0,-3,-3,3,14,5,3,1,2021-08-07 11:49:11,947202
-1,-1,3,10,14,5,-1,-5,2021-08-07 11:49:11,947202
-5,-1,-2,-4,-7,-5,-5,-6,2021-08-07 11:49:11,947202
-1,-1,-3,1,-13,-9,-3,-3,2021-08-07 11:49:11,977202
3,4,2,3,-8,-4,0,0,2021-08-07 11:49:11,993202
4,3,2,4,10,6,2,3,2021-08-07 11:49:11,993202
0,-2,-4,-6,4,-2,-1,-2,2021-08-07 11:49:11,993202
-1,0,-1,3,5,0,0,0,2021-08-07 11:49:11,993202
0,-1,-4,-12,-18,-6,0,2,2021-08-07 11:49:11,993202
-2,-1,-5,-10,-7,-3,-3,-4,2021-08-07 11:49:11,993202
-1,4,7,21,27,11,4,1,2021-08-07 11:49:11,993202
1,-1,-3,-12,1,4,2,2,2021-08-07 11:49:12,025201
-2,-5,-5,-10,-19,-6,-4,-3,2021-08-07 11:49:12,041200
-3,-2,2,13,25,6,1,-2,2021-08-07 11:49:12,057202
2,0,-2,-3,-2,6,8,5,2021-08-07 11:49:12,057202
-3,-2,-2,-5,-6,-3,-3,-4,2021-08-07 11:49:12,057202
-5,-4,-5,-16,-26,-14,-13,-6,2021-08-07 11:49:12,057202
0,0,1,3,11,-1,2,1,2021-08-07 11:49:12,057202
0,-3,-2,-3,2,0,-3,-3,2021-08-07 11:49:12,057202
-5,-5,-2,5,7,-2,-4,-4,2021-08-07 11:49:12,058202
3,3,4,2,-2,1,2,2,2021-08-07 11:49:12,058202
-1,-4,-6,-15,-24,-8,-3,-2,2021-08-07 11:49:12,058202
0,1,2,5,12,3,3,0,2021-08-07 11:49:12,058202
2,1,0,-3,3,6,5,2,2021-08-07 11:49:12,073201
0,1,0,3,15,5,0,-1,2021-08-07 11:49:12,073201
4,4,11,24,10,4,2,2,2021-08-07 11:49:12,073201
1,0,-2,-9,-25,-9,-1,2,2021-08-07 11:49:12,073201
4,2,5,16,33,16,6,3,2021-08-07 11:49:12,089201
0,0,0,0,1,-1,-3,-1,2021-08-07 11:49:12,089201
-10,-8,-10,-24,-37,-21,-12,-9,2021-08-07 11:49:12,089201
1,-2,-3,-2,12,3,-1,0,2021-08-07 11:49:12,089201
1,0,2,9,7,1,1,-2,2021-08-07 11:49:12,121202
1,1,2,6,14,5,4,2,2021-08-07 11:49:12,121202
-13,-8,-6,-11,-13,-13,-12,-10,2021-08-07 11:49:12,121202
-7,-4,-7,-21,-31,-13,-9,-6,2021-08-07 11:49:12,121202
-1,-1,2,11,11,4,1,2,2021-08-07 11:49:12,121202
3,2,2,7,11,7,7,2,2021-08-07 11:49:12,137202
3,1,-2,-4,-11,1,2,4,2021-08-07 11:49:12,137202
-3,-2,-3,-4,-2,-1,-1,-3,2021-08-07 11:49:12,137202
4,3,2,-5,-3,0,2,1,2021-08-07 11:49:12,152200
-3,-2,-2,-2,-12,-3,-1,-4,2021-08-07 11:49:12,167200
2,2,1,5,9,3,2,1,2021-08-07 11:49:12,167200
-2,-2,-3,0,0,-1,-2,-2,2021-08-07 11:49:12,167200
1,2,0,-11,-13,-3,1,1,2021-08-07 11:49:12,183200
-4,-3,-1,-5,-6,-5,-3,-3,2021-08-07 11:49:12,183200
2,-2,-4,-10,0,2,1,0,2021-08-07 11:49:12,183200
1,1,2,10,5,1,-1,0,2021-08-07 11:49:12,183200
0,-1,3,11,12,4,-3,-2,2021-08-07 11:49:12,199201
-2,0,0,-4,0,-2,-1,0,2021-08-07 11:49:12,215202
-1,-1,-2,-6,-8,-1,-1,0,2021-08-07 11:49:12,231202
0,-1,-3,-8,-16,-6,-2,-1,2021-08-07 11:49:12,231202
0,0,2,2,5,0,-2,0,2021-08-07 11:49:12,231202
-1,0,0,11,16,6,2,0,2021-08-07 11:49:12,231202
-1,1,0,-4,-8,-4,-1,0,2021-08-07 11:49:12,231202
0,0,0,0,5,1,-2,-2,2021-08-07 11:49:12,231202
-4,-4,-5,-9,-14,-8,-3,-2,2021-08-07 11:49:12,232202
2,-1,0,0,-5,-2,0,-1,2021-08-07 11:49:12,232202
0,1,-1,4,7,4,3,2,2021-08-07 11:49:12,232202
-2,-2,-4,-11,-12,-5,-5,-3,2021-08-07 11:49:12,232202
4,2,4,7,8,4,2,1,2021-08-07 11:49:12,247202
-2,-1,-1,-1,-6,-4,-3,0,2021-08-07 11:49:12,247202
-1,-1,-1,0,0,0,-1,-1,2021-08-07 11:49:12,263202
0,0,0,2,-1,0,-1,0,2021-08-07 11:49:12,279201
-2,1,-5,-11,-6,-5,-3,-1,2021-08-07 11:49:12,279201
-2,0,-2,-10,-10,-4,-3,-3,2021-08-07 11:49:12,279201
3,3,3,14,12,7,2,3,2021-08-07 11:49:12,279201
1,0,2,3,15,7,3,1,2021-08-07 11:49:12,279201
-1,-1,0,0,-5,-4,-1,-2,2021-08-07 11:49:12,295202
-2,-1,-3,-6,-3,-2,0,-3,2021-08-07 11:49:12,295202
0,-1,0,5,3,1,0,0,2021-08-07 11:49:12,295202
-2,-4,-5,-15,-21,-11,-5,-3,2021-08-07 11:49:12,295202
-2,-4,-7,-9,-12,-8,-3,-3,2021-08-07 11:49:12,311202
4,5,7,24,37,17,6,5,2021-08-07 11:49:12,311202
-1,0,0,-1,-5,-2,-1,-2,2021-08-07 11:49:12,311202
0,1,0,5,7,2,-1,1,2021-08-07 11:49:12,312201
-1,-1,-3,-10,-17,-7,-4,-4,2021-08-07 11:49:12,329203
-3,-3,-4,-7,-10,-5,-4,-1,2021-08-07 11:49:12,329203
-1,-3,-1,-9,-7,-3,-2,-2,2021-08-07 11:49:12,330202
-1,1,2,2,-1,1,2,-1,2021-08-07 11:49:12,330202
1,-1,4,14,20,5,1,-1,2021-08-07 11:49:12,359203
-2,-1,-4,-7,-7,-4,-2,-2,2021-08-07 11:49:12,375202
0,-2,0,0,1,0,0,0,2021-08-07 11:49:12,391201
-3,-2,-3,-9,-12,-7,-3,-1,2021-08-07 11:49:12,391201
-3,-1,-6,-8,-10,-4,-1,-1,2021-08-07 11:49:12,391201
2,2,3,10,15,6,3,-1,2021-08-07 11:49:12,391201
-2,-3,-6,-14,-13,-6,-4,-4,2021-08-07 11:49:12,391201
2,2,3,7,6,2,0,1,2021-08-07 11:49:12,391201
-1,-3,-3,-5,-6,0,-1,0,2021-08-07 11:49:12,391201
0,0,3,10,11,4,0,0,2021-08-07 11:49:12,391201
0,1,2,5,2,-1,0,-1,2021-08-07 11:49:12,392201
-1,-2,-1,2,5,1,0,-2,2021-08-07 11:49:12,392201
-2,-2,-3,-3,-7,-4,-1,-2,2021-08-07 11:49:12,422202
2,1,-1,-11,-16,-5,1,1,2021-08-07 11:49:12,422202
1,1,-1,-2,7,4,2,2,2021-08-07 11:49:12,422202
-4,-5,-2,1,1,-2,-2,-4,2021-08-07 11:49:12,422202
-6,-6,-2,-4,-6,-4,-5,-4,2021-08-07 11:49:12,422202
-3,-3,-4,-5,-6,-3,-3,-1,2021-08-07 11:49:12,422202
1,1,-1,1,5,1,1,2,2021-08-07 11:49:12,438202
1,2,1,0,3,0,0,2,2021-08-07 11:49:12,454200
-1,1,1,1,0,2,-1,0,2021-08-07 11:49:12,469200
-1,-2,-2,-3,-6,-3,-1,-2,2021-08-07 11:49:12,469200
1,-1,0,-2,-5,-3,-2,0,2021-08-07 11:49:12,469200
-3,-4,-4,-9,-16,-7,-3,-3,2021-08-07 11:49:12,469200
0,0,-1,-1,10,3,-2,-1,2021-08-07 11:49:12,469200
3,2,7,28,23,8,4,3,2021-08-07 11:49:12,469200
-1,-1,-2,-6,-8,-1,-1,-1,2021-08-07 11:49:12,469200
0,1,2,5,4,4,3,0,2021-08-07 11:49:12,469200
-5,-5,-7,-14,-21,-12,-5,-3,2021-08-07 11:49:12,485202
-1,-5,-5,-12,-16,-10,-4,-2,2021-08-07 11:49:12,485202
-2,-3,0,-2,-7,-4,0,0,2021-08-07 11:49:12,501204
2,3,5,18,40,17,4,2,2021-08-07 11:49:12,501204
1,2,1,7,3,3,2,0,2021-08-07 11:49:12,517201
-1,0,-4,-10,-7,0,-2,-2,2021-08-07 11:49:12,517201
0,-2,0,2,8,2,1,-2,2021-08-07 11:49:12,517201
-1,-2,-2,-8,-14,-5,-4,-1,2021-08-07 11:49:12,517201
0,-1,2,2,6,-1,0,2,2021-08-07 11:49:12,533201
-2,-4,-5,-9,-6,-5,-3,-3,2021-08-07 11:49:12,533201
-2,0,-1,1,-5,-1,-1,0,2021-08-07 11:49:12,533201
1,-1,-1,1,-4,-1,0,-1,2021-08-07 11:49:12,533201
1,0,-1,-2,1,1,-1,0,2021-08-07 11:49:12,564201
-2,-4,-2,-8,-12,-5,-4,-2,2021-08-07 11:49:12,564201
0,1,1,9,9,2,1,-1,2021-08-07 11:49:12,564201
2,-1,-3,-10,-12,-4,-1,-2,2021-08-07 11:49:12,564201
1,1,6,23,25,11,4,-2,2021-08-07 11:49:12,564201
1,-1,0,3,3,0,0,-2,2021-08-07 11:49:12,564201
-2,-2,-3,-5,-6,-4,-3,-4,2021-08-07 11:49:12,580201
-1,-3,-1,-2,0,-3,-2,0,2021-08-07 11:49:12,580201
-3,-5,-7,-14,-21,-9,-2,-3,2021-08-07 11:49:12,595202
2,1,0,-5,-2,1,2,4,2021-08-07 11:49:12,611202
1,1,-1,8,11,5,0,-1,2021-08-07 11:49:12,627203
-1,0,-1,-5,-11,-5,-3,-2,2021-08-07 11:49:12,627203
-4,-3,-4,-8,-14,-7,-6,-3,2021-08-07 11:49:12,627203
-4,-3,-6,-3,8,1,0,-2,2021-08-07 11:49:12,627203
-2,0,-1,-4,-7,-3,-1,-1,2021-08-07 11:49:12,627203
-3,0,0,1,-5,-3,0,-2,2021-08-07 11:49:12,627203
-1,-1,0,7,9,4,-1,-2,2021-08-07 11:49:12,628202
-2,1,1,-5,-1,0,0,0,2021-08-07 11:49:12,628202
-1,-4,-4,-7,-8,-4,-3,-1,2021-08-07 11:49:12,643201
0,-1,1,7,9,3,3,2,2021-08-07 11:49:12,643201
5,4,3,0,-5,3,6,5,2021-08-07 11:49:12,658200
-3,-3,-4,-14,-19,-6,-2,-2,2021-08-07 11:49:12,674203
-3,-3,2,14,22,4,-6,-6,2021-08-07 11:49:12,674203
-3,-1,-2,-2,-6,-5,-3,-2,2021-08-07 11:49:12,674203
0,-4,-3,-6,-7,-3,-3,-1,2021-08-07 11:49:12,674203
-2,-2,-1,1,3,0,-2,-1,2021-08-07 11:49:12,674203
0,0,1,-1,-3,-3,-1,-1,2021-08-07 11:49:12,674203
1,-3,-1,1,-2,0,-1,-1,2021-08-07 11:49:12,674203
3,1,-3,-6,-6,0,4,3,2021-08-07 11:49:12,690202
6,6,8,11,17,12,7,6,2021-08-07 11:49:12,690202
-9,-7,-7,-12,-18,-10,-8,-7,2021-08-07 11:49:12,690202
-1,1,-1,5,14,4,2,0,2021-08-07 11:49:12,690202
-1,1,1,-4,-7,0,-2,-1,2021-08-07 11:49:12,720201
4,3,3,15,16,3,0,-1,2021-08-07 11:49:12,736200
-2,-2,-7,-15,-11,-9,-3,-3,2021-08-07 11:49:12,736200
1,1,4,16,3,1,1,2,2021-08-07 11:49:12,736200
-1,-2,-3,-2,2,0,2,-1,2021-08-07 11:49:12,736200
0,-1,-2,1,-2,1,5,3,2021-08-07 11:49:12,736200
4,2,-1,-2,2,6,6,4,2021-08-07 11:49:12,736200
-6,-5,-4,-10,-10,-4,-1,-4,2021-08-07 11:49:12,736200
-4,1,3,11,7,0,-4,-4,2021-08-07 11:49:12,752202
-5,-4,-4,-8,-12,-7,-7,-6,2021-08-07 11:49:12,752202
4,4,6,15,10,8,6,4,2021-08-07 11:49:12,752202
1,0,-2,-7,-9,-4,-4,-2,2021-08-07 11:49:12,752202
-1,0,0,4,9,-3,-5,-4,2021-08-07 11:49:12,783203
-6,-5,-4,-6,-7,-8,-6,-5,2021-08-07 11:49:12,799201
-2,-4,-5,-9,-9,-4,-1,-2,2021-08-07 11:49:12,799201
4,1,-2,-12,-13,-2,5,2,2021-08-07 11:49:12,799201
7,6,13,25,25,12,7,6,2021-08-07 11:49:12,799201
0,-2,-1,8,6,2,1,-2,2021-08-07 11:49:12,799201
-1,-2,-2,-5,-5,-3,-1,0,2021-08-07 11:49:12,799201
-3,-2,-2,-5,-4,-1,-3,-2,2021-08-07 11:49:12,800204
-1,-3,-5,-13,-4,-5,-1,-1,2021-08-07 11:49:12,815203
0,1,0,-5,-8,-3,0,0,2021-08-07 11:49:12,815203
-1,-2,-2,-1,-6,-3,-1,-1,2021-08-07 11:49:12,815203
-1,0,0,6,17,5,-1,-2,2021-08-07 11:49:12,815203
-4,-4,-4,-5,-8,-7,-3,-3,2021-08-07 11:49:12,846201
-1,-3,-4,-7,-7,-3,-3,-3,2021-08-07 11:49:12,846201
2,2,5,13,8,5,5,1,2021-08-07 11:49:12,846201
-1,-1,-1,-5,-4,-2,-1,1,2021-08-07 11:49:12,846201
-2,-1,-3,-1,-1,-3,-5,-5,2021-08-07 11:49:12,878202
-5,-3,-2,-4,-6,-7,-5,-5,2021-08-07 11:49:12,878202
-1,-1,-3,-6,-5,-3,-1,0,2021-08-07 11:49:12,878202
0,-1,-4,-5,-8,-4,-1,1,2021-08-07 11:49:12,878202
0,-3,1,12,10,6,3,0,2021-08-07 11:49:12,878202
0,0,-1,-1,-3,-1,-1,-2,2021-08-07 11:49:12,878202
-1,0,1,2,4,1,-2,-2,2021-08-07 11:49:12,878202
-3,-2,1,6,7,3,2,-3,2021-08-07 11:49:12,878202
0,-1,-5,-16,-15,-5,-1,0,2021-08-07 11:49:12,894202
0,0,1,4,-1,-1,0,-1,2021-08-07 11:49:12,894202
1,-1,0,-2,2,2,0,0,2021-08-07 11:49:12,894202
-2,-2,-1,-1,-3,-3,-2,-2,2021-08-07 11:49:12,894202
-3,-3,-2,-5,-5,-5,-3,-3,2021-08-07 11:49:12,926200
0,1,-3,-4,-5,-1,1,-1,2021-08-07 11:49:12,926200
-3,-1,-3,-9,-12,-6,-3,-1,2021-08-07 11:49:12,926200
2,0,3,18,20,6,2,1,2021-08-07 11:49:12,926200
0,1,1,3,4,5,1,1,2021-08-07 11:49:12,926200
-2,0,1,5,6,2,1,-1,2021-08-07 11:49:12,926200
-2,-1,-3,-6,-8,-4,-2,0,2021-08-07 11:49:12,957203
-1,-2,-3,-9,-16,-7,-5,-1,2021-08-07 11:49:12,973201
-2,-2,-4,-16,-6,-3,-1,0,2021-08-07 11:49:12,989202
0,1,4,18,11,5,1,2,2021-08-07 11:49:13,005201
-2,0,-1,1,-1,0,-2,-2,2021-08-07 11:49:13,005201
-2,-2,-4,-13,-7,-3,0,0,2021-08-07 11:49:13,005201
1,0,1,9,9,4,2,-2,2021-08-07 11:49:13,005201
-1,-3,-4,-11,-11,-4,-2,-1,2021-08-07 11:49:13,005201
0,0,2,8,12,4,1,0,2021-08-07 11:49:13,005201
-2,-3,-3,-5,-5,-4,-3,-1,2021-08-07 11:49:13,005201
-1,-1,-1,-4,-8,-4,-1,0,2021-08-07 11:49:13,005201
-1,-1,0,-3,-1,-1,0,-1,2021-08-07 11:49:13,006202
0,-1,1,10,10,3,1,0,2021-08-07 11:49:13,036203
0,-1,-2,-2,-1,1,-1,-2,2021-08-07 11:49:13,036203
-3,-2,-2,-7,-9,-5,-2,-2,2021-08-07 11:49:13,036203
2,2,4,13,11,4,0,2,2021-08-07 11:49:13,052201
1,-1,-4,-12,-9,-5,0,0,2021-08-07 11:49:13,052201
0,0,2,10,6,2,-2,0,2021-08-07 11:49:13,052201
-1,-3,-3,-7,-14,-5,-2,-3,2021-08-07 11:49:13,068200
0,-1,-2,-1,12,5,1,1,2021-08-07 11:49:13,068200
-2,-2,-2,-3,0,0,-1,-2,2021-08-07 11:49:13,068200
-2,-2,-2,-4,-9,-5,-3,-2,2021-08-07 11:49:13,084202
0,0,1,2,4,1,-1,0,2021-08-07 11:49:13,084202
1,1,1,3,5,1,0,0,2021-08-07 11:49:13,084202
0,-2,-2,-4,-3,-2,-1,-3,2021-08-07 11:49:13,084202
-1,-2,0,2,4,-1,0,-1,2021-08-07 11:49:13,084202
0,-1,-4,-10,-15,-7,-6,0,2021-08-07 11:49:13,084202
-2,-1,-1,-5,-4,-3,-1,-2,2021-08-07 11:49:13,085203
0,0,0,6,12,6,0,0,2021-08-07 11:49:13,085203
0,1,0,1,-3,-1,0,0,2021-08-07 11:49:13,085203
0,-1,2,6,10,5,0,-1,2021-08-07 11:49:13,100202
-1,-1,-3,-7,-12,-7,-2,-1,2021-08-07 11:49:13,116202
-2,-2,-1,-5,-5,-3,-3,0,2021-08-07 11:49:13,116202
1,1,0,7,6,1,0,0,2021-08-07 11:49:13,116202
1,-1,-1,-1,3,2,1,0,2021-08-07 11:49:13,116202
-1,-4,-2,-3,-4,-4,-1,-3,2021-08-07 11:49:13,116202
-3,-2,-2,-3,-5,-2,-2,-2,2021-08-07 11:49:13,116202
-2,-3,-6,-11,-8,-3,-1,-1,2021-08-07 11:49:13,116202
1,2,5,12,12,3,4,1,2021-08-07 11:49:13,132201
-4,-3,-5,-9,-11,-4,-5,-4,2021-08-07 11:49:13,148201
1,2,2,1,-4,-1,-1,1,2021-08-07 11:49:13,148201
-2,-2,-1,-2,-2,0,-2,-2,2021-08-07 11:49:13,164203
0,1,2,8,12,6,2,1,2021-08-07 11:49:13,164203
0,0,-1,3,2,0,0,0,2021-08-07 11:49:13,164203
-2,-2,0,-1,-2,-2,-1,-1,2021-08-07 11:49:13,164203
-1,1,-1,-1,-1,1,-2,-1,2021-08-07 11:49:13,164203
-1,-2,0,-3,-7,-5,-3,0,2021-08-07 11:49:13,164203
-1,-1,-2,-7,-10,-5,-1,0,2021-08-07 11:49:13,164203
-1,-3,-2,-3,1,2,-1,-1,2021-08-07 11:49:13,180202
-1,2,3,5,2,1,0,0,2021-08-07 11:49:13,196200
-1,1,0,2,10,5,1,0,2021-08-07 11:49:13,196200
-1,0,0,5,0,1,1,-1,2021-08-07 11:49:13,196200
-2,-3,-5,-9,-11,-8,-3,-3,2021-08-07 11:49:13,196200
0,0,-2,-6,-7,-2,-2,-1,2021-08-07 11:49:13,196200
1,3,2,8,13,4,2,0,2021-08-07 11:49:13,228202
-2,-2,-5,-9,-8,-3,-2,0,2021-08-07 11:49:13,244203
1,1,1,7,6,3,2,0,2021-08-07 11:49:13,244203
-1,-3,-3,-6,-6,-4,-2,-2,2021-08-07 11:49:13,244203
0,-1,-3,-4,-4,-3,-1,-1,2021-08-07 11:49:13,244203
-1,1,2,-2,0,1,-1,-1,2021-08-07 11:49:13,244203
-2,-4,-2,-3,-13,-6,-3,-2,2021-08-07 11:49:13,244203
0,1,3,18,33,11,2,1,2021-08-07 11:49:13,244203
-3,-3,-3,-5,-11,-6,-4,-3,2021-08-07 11:49:13,260203
-1,-3,-5,-19,-21,-10,-3,-3,2021-08-07 11:49:13,276203
2,3,4,14,14,6,2,2,2021-08-07 11:49:13,292200
1,1,4,7,5,3,3,0,2021-08-07 11:49:13,292200
-1,-1,-2,-2,-4,-4,0,-2,2021-08-07 11:49:13,292200
-3,-1,-3,3,3,0,-2,-3,2021-08-07 11:49:13,292200
0,0,-1,-10,-11,-6,-1,0,2021-08-07 11:49:13,292200
1,0,-4,-7,-6,-1,0,1,2021-08-07 11:49:13,292200
0,1,3,6,0,2,0,1,2021-08-07 11:49:13,292200
-3,-5,-2,1,-4,-4,-4,-4,2021-08-07 11:49:13,293202
-4,-3,-5,-4,0,-2,1,-2,2021-08-07 11:49:13,293202
2,1,0,1,2,5,5,4,2021-08-07 11:49:13,293202
3,2,0,-1,-1,1,0,2,2021-08-07 11:49:13,323200
-6,-2,-1,1,1,-7,-10,-8,2021-08-07 11:49:13,339202
-5,-3,-3,-4,-2,-8,-8,-8,2021-08-07 11:49:13,355202
-5,-5,-3,-13,-16,-9,-2,-4,2021-08-07 11:49:13,355202
1,1,0,0,-6,-1,4,2,2021-08-07 11:49:13,355202
6,5,6,15,28,18,9,6,2021-08-07 11:49:13,355202
2,0,1,6,9,6,5,1,2021-08-07 11:49:13,355202
-6,-5,-4,-8,-15,-10,-6,-5,2021-08-07 11:49:13,355202
0,-2,-5,-7,-5,-1,1,0,2021-08-07 11:49:13,356202
2,1,2,7,4,2,3,2,2021-08-07 11:49:13,356202
-2,0,-4,-7,-9,-3,-4,-3,2021-08-07 11:49:13,356733
-2,1,3,6,7,-1,-4,-2,2021-08-07 11:49:13,356733
-3,-3,-2,0,0,-2,-3,0,2021-08-07 11:49:13,386239
1,-1,-2,-1,-1,1,2,2,2021-08-07 11:49:13,402238
2,1,-1,-2,4,4,5,2,2021-08-07 11:49:13,418240
0,-2,-4,-10,-16,-4,0,1,2021-08-07 11:49:13,418240
0,-1,1,5,4,1,-2,-3,2021-08-07 11:49:13,418240
-6,-5,-6,-16,-11,-10,-10,-8,2021-08-07 11:49:13,418240
-2,-3,-1,2,5,-1,-3,-2,2021-08-07 11:49:13,418240
-1,-1,-2,0,0,0,-1,-3,2021-08-07 11:49:13,418240
0,0,-4,-13,-10,-4,-2,-1,2021-08-07 11:49:13,418240
3,2,4,8,1,4,4,4,2021-08-07 11:49:13,419239
-2,-1,-2,-8,-12,-5,-3,-4,2021-08-07 11:49:13,419239
0,-1,1,7,17,5,1,1,2021-08-07 11:49:13,419239
1,0,-3,-9,-9,0,2,1,2021-08-07 11:49:13,449241
1,0,3,10,10,4,1,0,2021-08-07 11:49:13,449241
-2,-3,-2,-3,-8,-5,-3,-4,2021-08-07 11:49:13,449241
-1,-1,-3,-4,-10,-4,-1,-2,2021-08-07 11:49:13,449241
2,2,2,13,25,8,3,1,2021-08-07 11:49:13,449241
0,-1,-1,-4,-2,-1,0,-1,2021-08-07 11:49:13,449241
2,3,3,8,5,2,0,0,2021-08-07 11:49:13,465239
-2,-1,-3,-8,-11,-5,-3,-3,2021-08-07 11:49:13,465239
-6,-5,-6,-12,-14,-8,-6,-5,2021-08-07 11:49:13,481240
-1,0,-2,1,-2,-3,-1,1,2021-08-07 11:49:13,481240
0,0,-1,-5,-2,1,3,3,2021-08-07 11:49:13,481240
1,2,0,4,5,1,-1,0,2021-08-07 11:49:13,481240
-1,0,2,10,10,3,0,-1,2021-08-07 11:49:13,497237
0,-2,-2,-7,-6,-3,0,0,2021-08-07 11:49:13,513239
-1,-1,0,-2,-1,0,-2,-3,2021-08-07 11:49:13,529239
-1,-2,-3,-5,-5,-2,-3,-2,2021-08-07 11:49:13,529239
1,0,1,2,4,0,-1,-1,2021-08-07 11:49:13,529239
-1,-2,0,-5,-7,0,0,0,2021-08-07 11:49:13,529239
-2,-3,-6,-8,-8,-6,-2,-2,2021-08-07 11:49:13,529239
2,2,4,8,11,6,3,1,2021-08-07 11:49:13,545237
-2,-2,-1,0,-5,-3,-2,-3,2021-08-07 11:49:13,561240
-1,-2,-3,-5,-6,-3,-3,-3,2021-08-07 11:49:13,561240
1,0,-2,-5,0,-2,-3,-1,2021-08-07 11:49:13,561240
1,1,3,7,3,2,1,1,2021-08-07 11:49:13,561240
-3,-3,-4,-5,-6,-3,-2,0,2021-08-07 11:49:13,561240
-1,-1,-6,-13,-11,-5,-1,-1,2021-08-07 11:49:13,562240
3,4,6,15,8,6,5,3,2021-08-07 11:49:13,562240
-1,-2,6,21,23,10,5,-1,2021-08-07 11:49:13,562240
-3,1,4,5,2,0,-1,-4,2021-08-07 11:49:13,577238
-6,-4,-1,0,-2,-3,-5,-3,2021-08-07 11:49:13,593239
-2,-1,1,0,-4,-3,-3,-1,2021-08-07 11:49:13,593239
-1,1,-3,-12,-12,-8,-5,-2,2021-08-07 11:49:13,593239
-2,-2,-1,-4,-8,-4,-2,-3,2021-08-07 11:49:13,593239
3,3,-1,-1,5,2,2,3,2021-08-07 11:49:13,593239
-1,0,-1,0,1,0,1,-1,2021-08-07 11:49:13,594239
1,-2,-1,-3,0,0,-1,0,2021-08-07 11:49:13,594239
-1,-2,-5,-10,-11,-4,-2,-1,2021-08-07 11:49:13,625238
2,1,4,9,9,3,2,1,2021-08-07 11:49:13,641242
0,-2,-1,2,5,1,1,1,2021-08-07 11:49:13,654239
-1,1,0,-1,1,0,-1,0,2021-08-07 11:49:13,654239
-3,-2,-2,-3,-3,-3,-1,-4,2021-08-07 11:49:13,654239
-1,-3,-4,-4,-2,-1,-1,-1,2021-08-07 11:49:13,673240
1,0,1,-1,-9,-2,-1,0,2021-08-07 11:49:13,673240
0,-1,-1,4,4,1,0,0,2021-08-07 11:49:13,673240
0,-1,-2,-2,0,-1,-1,0,2021-08-07 11:49:13,673240
-2,-2,-2,0,0,1,-1,-2,2021-08-07 11:49:13,673240
-3,-1,-2,4,9,1,0,-2,2021-08-07 11:49:13,673240
-1,-1,-5,-17,-16,-5,-2,-1,2021-08-07 11:49:13,674240
-1,1,3,8,4,1,0,-1,2021-08-07 11:49:13,674240
0,-2,-2,-5,-6,-2,0,-1,2021-08-07 11:49:13,674240
1,-1,2,7,4,2,-2,-1,2021-08-07 11:49:13,674240
-1,-1,-2,-4,-3,-4,0,-1,2021-08-07 11:49:13,674240
0,-2,-2,-2,1,-1,0,0,2021-08-07 11:49:13,704239
-1,-1,-1,2,1,1,1,1,2021-08-07 11:49:13,720238
-2,-3,-2,-4,-2,-1,-1,-1,2021-08-07 11:49:13,720238
-3,-2,-1,-6,-8,-6,-3,-3,2021-08-07 11:49:13,720238
0,-2,-3,-5,-3,-2,-4,-1,2021-08-07 11:49:13,720238
1,2,4,17,12,3,2,-2,2021-08-07 11:49:13,720238
0,1,-2,0,0,0,-1,-2,2021-08-07 11:49:13,720238
1,2,5,1,7,3,3,1,2021-08-07 11:49:13,720238
-3,-4,-7,-18,-17,-7,-4,-2,2021-08-07 11:49:13,735494
0,0,-1,1,5,2,0,0,2021-08-07 11:49:13,735494
-1,-1,-2,-1,-1,0,-1,-1,2021-08-07 11:49:13,766756
0,0,1,4,2,1,-2,0,2021-08-07 11:49:13,766756
1,2,2,7,6,2,0,0,2021-08-07 11:49:13,766756
0,0,-1,-3,2,1,-1,0,2021-08-07 11:49:13,766756
1,1,3,9,8,2,1,0,2021-08-07 11:49:13,766756
-3,-5,-5,-11,-14,-7,-3,-2,2021-08-07 11:49:13,766756
0,-1,-1,3,1,0,0,-1,2021-08-07 11:49:13,782754
-2,-2,-2,-1,-1,-3,-2,-1,2021-08-07 11:49:13,798754
-2,-3,-4,-10,-3,-2,0,-2,2021-08-07 11:49:13,814753
-2,-2,-4,0,1,0,-1,-2,2021-08-07 11:49:13,814753
-2,0,0,-2,-9,-2,-1,0,2021-08-07 11:49:13,830752
1,-1,0,-5,-1,-1,0,1,2021-08-07 11:49:13,830752
-1,-2,-1,-1,2,-1,-1,-1,2021-08-07 11:49:13,830752
-1,0,0,1,0,-2,-1,0,2021-08-07 11:49:13,830752
1,-1,-2,0,2,0,0,-1,2021-08-07 11:49:13,830752
-2,0,-2,-10,-12,-6,-2,-2,2021-08-07 11:49:13,830752
0,-1,-1,3,0,-1,0,0,2021-08-07 11:49:13,830752
1,2,0,3,5,3,1,1,2021-08-07 11:49:13,830752
0,-1,1,1,0,1,1,1,2021-08-07 11:49:13,846753
-3,-4,-5,-7,-7,-4,-2,-1,2021-08-07 11:49:13,846753
1,1,2,0,-2,-1,-1,1,2021-08-07 11:49:13,846753
-1,-1,1,7,4,3,1,-1,2021-08-07 11:49:13,846753
-5,-5,-6,-10,-9,-5,-3,-3,2021-08-07 11:49:13,846753
0,1,1,-1,2,1,-1,0,2021-08-07 11:49:13,846753
-2,-1,-1,-5,-3,-1,-1,-2,2021-08-07 11:49:13,862754
0,1,1,2,2,2,1,0,2021-08-07 11:49:13,878754
-1,-1,0,1,3,-1,0,-3,2021-08-07 11:49:13,894755
-2,-3,0,2,-3,0,0,-1,2021-08-07 11:49:13,894755
-3,-2,-5,-6,-7,-3,-2,-2,2021-08-07 11:49:13,894755
3,2,2,9,9,2,4,2,2021-08-07 11:49:13,894755
1,0,-1,-2,0,-2,-1,0,2021-08-07 11:49:13,894755
-5,-3,-4,-2,-3,-5,-7,-6,2021-08-07 11:49:13,894755
-3,-1,-5,-11,-9,-7,-5,-2,2021-08-07 11:49:13,895754
-1,-2,-3,-1,-1,-2,-1,-1,2021-08-07 11:49:13,895754
0,1,1,3,3,3,2,2,2021-08-07 11:49:13,910755
2,0,-3,-9,-6,-1,2,2,2021-08-07 11:49:13,910755
0,-1,1,6,5,6,4,1,2021-08-07 11:49:13,926754
0,-1,-1,3,-1,1,2,0,2021-08-07 11:49:13,942753
-3,-1,-1,1,-7,-7,-8,-5,2021-08-07 11:49:13,958754
-3,-2,-2,-3,-5,-9,-8,-5,2021-08-07 11:49:13,974754
-2,-2,-3,-5,-2,-3,-4,-2,2021-08-07 11:49:13,974754
0,-4,-6,-10,-15,-7,-2,-1,2021-08-07 11:49:13,974754
0,0,-3,-4,-4,2,2,2,2021-08-07 11:49:13,974754
3,2,8,21,18,7,5,3,2021-08-07 11:49:13,974754
2,2,4,6,4,2,2,1,2021-08-07 11:49:13,974754
-3,-3,-5,-16,-14,-7,-4,-2,2021-08-07 11:49:13,974754
2,4,5,20,20,8,4,2,2021-08-07 11:49:13,975753
-3,-4,-2,-7,-11,-5,-3,-1,2021-08-07 11:49:13,975753
2,1,0,3,4,3,2,1,2021-08-07 11:49:13,975753
-1,-2,-2,-3,-3,-2,-4,-2,2021-08-07 11:49:13,975753
-3,-2,-4,-11,-6,-8,-3,-3,2021-08-07 11:49:14,005754
0,-1,-2,-4,0,2,1,1,2021-08-07 11:49:14,021753
-1,-4,-2,0,-2,-3,-2,0,2021-08-07 11:49:14,021753
0,-1,0,0,-2,0,0,0,2021-08-07 11:49:14,021753
-1,-4,-3,-6,-3,-3,-2,0,2021-08-07 11:49:14,021753
-1,0,2,8,10,2,2,-1,2021-08-07 11:49:14,021753
-3,-2,-1,-5,-6,-4,-1,-1,2021-08-07 11:49:14,021753
-3,-3,-2,-2,-4,-5,-3,-3,2021-08-07 11:49:14,021753
-1,-1,-6,-16,-11,-2,-1,1,2021-08-07 11:49:14,036755
2,1,4,5,0,0,0,0,2021-08-07 11:49:14,036755
1,2,4,22,21,8,2,0,2021-08-07 11:49:14,036755
-2,0,-1,-2,3,2,0,0,2021-08-07 11:49:14,036755
-1,-2,-2,-7,-10,-4,-2,-2,2021-08-07 11:49:14,068753
-2,-2,-5,-9,-1,-1,-1,0,2021-08-07 11:49:14,068753
-3,-1,-1,-5,-7,-3,-4,-1,2021-08-07 11:49:14,068753
2,2,1,6,11,4,1,0,2021-08-07 11:49:14,068753
0,-1,-1,5,8,3,0,0,2021-08-07 11:49:14,084754
-4,-3,-4,-7,-12,-4,-2,-2,2021-08-07 11:49:14,084754
-1,-2,-6,-13,-14,-7,-2,-1,2021-08-07 11:49:14,084754
0,3,6,11,2,2,1,0,2021-08-07 11:49:14,084754
-1,1,1,2,1,1,0,-2,2021-08-07 11:49:14,100756
0,1,-1,5,6,2,2,-2,2021-08-07 11:49:14,100756
-2,-2,-5,-8,-6,-2,-2,-3,2021-08-07 11:49:14,100756
-4,-3,-8,-19,-26,-11,-4,-3,2021-08-07 11:49:14,100756
2,3,9,29,41,17,6,4,2021-08-07 11:49:14,116754
0,2,1,-1,-6,0,0,1,2021-08-07 11:49:14,131752
-1,-3,-1,2,1,-1,-2,-1,2021-08-07 11:49:14,131752
-2,-4,-3,-5,-6,-4,-3,-1,2021-08-07 11:49:14,131752
-3,-1,1,1,3,-2,-1,-1,2021-08-07 11:49:14,131752
-3,-3,-1,-1,-5,-2,-2,-2,2021-08-07 11:49:14,131752
-2,-2,-3,-7,-3,-3,0,0,2021-08-07 11:49:14,147754
1,-1,2,3,4,3,1,0,2021-08-07 11:49:14,147754
1,-1,-1,2,-4,-2,-1,-2,2021-08-07 11:49:14,163755
-1,-1,-2,0,-1,-2,-1,0,2021-08-07 11:49:14,179755
-2,-1,-2,-4,-6,-2,-1,-1,2021-08-07 11:49:14,195753
0,-2,-2,-2,5,2,0,-1,2021-08-07 11:49:14,195753
0,1,0,4,-4,-2,-1,0,2021-08-07 11:49:14,195753
-1,-2,-3,-3,-5,-1,-1,-1,2021-08-07 11:49:14,195753
-1,-1,1,1,1,0,-1,-2,2021-08-07 11:49:14,195753
-4,-2,-2,0,1,-3,-2,-3,2021-08-07 11:49:14,195753
0,-1,0,-7,-3,1,0,0,2021-08-07 11:49:14,195753
0,0,3,11,10,4,2,-1,2021-08-07 11:49:14,195753
-2,-2,-3,-4,-5,-1,-2,-1,2021-08-07 11:49:14,196756
-1,0,1,3,6,2,0,-1,2021-08-07 11:49:14,196756
-3,-3,-3,-8,-9,-5,-4,0,2021-08-07 11:49:14,211754
-2,-3,-7,-17,-17,-7,-3,0,2021-08-07 11:49:14,227756
0,1,4,7,14,5,0,2,2021-08-07 11:49:14,227756
1,0,1,6,7,2,0,0,2021-08-07 11:49:14,227756
-2,-1,-3,-7,-8,-4,-3,-1,2021-08-07 11:49:14,243754
0,-2,-3,-2,2,0,-1,-1,2021-08-07 11:49:14,259755
-1,-3,-2,-1,-4,-1,-1,-1,2021-08-07 11:49:14,259755
1,0,2,5,4,3,2,2,2021-08-07 11:49:14,259755
-4,-1,-2,-2,-8,-5,-2,-4,2021-08-07 11:49:14,275754
-1,-1,0,0,1,1,0,0,2021-08-07 11:49:14,275754
0,0,-1,3,4,-1,0,-3,2021-08-07 11:49:14,275754
-1,-1,-2,-1,-2,-1,-1,-1,2021-08-07 11:49:14,275754
1,-1,-1,-6,-5,-2,0,-2,2021-08-07 11:49:14,275754
-2,1,0,2,0,-2,0,-2,2021-08-07 11:49:14,275754
-1,-2,-1,1,2,0,-1,0,2021-08-07 11:49:14,275754
-2,-2,-3,-9,-7,-5,-3,-2,2021-08-07 11:49:14,275754
-1,-1,2,8,5,2,1,0,2021-08-07 11:49:14,306754
-3,-2,-1,0,-1,-3,-1,-2,2021-08-07 11:49:14,322754
1,1,2,-2,-3,-1,-1,0,2021-08-07 11:49:14,322754
-2,-3,-4,-9,-11,-6,-3,-3,2021-08-07 11:49:14,322754
1,0,0,2,4,2,0,1,2021-08-07 11:49:14,322754
-1,-1,1,4,2,2,-1,0,2021-08-07 11:49:14,322754
-2,-1,-3,-2,1,0,-1,-3,2021-08-07 11:49:14,322754
0,0,2,5,0,0,1,-1,2021-08-07 11:49:14,322754
0,0,-1,-3,-3,-3,-1,-2,2021-08-07 11:49:14,338754
-2,-4,-5,-10,-14,-6,-2,-1,2021-08-07 11:49:14,338754
1,1,2,4,5,2,1,-1,2021-08-07 11:49:14,338754
0,0,-1,-2,1,1,1,0,2021-08-07 11:49:14,339384
-1,-1,-2,3,-1,-2,-1,-2,2021-08-07 11:49:14,354789
2,1,2,8,18,7,1,1,2021-08-07 11:49:14,386788
-3,-3,-5,-8,-15,-7,-3,-1,2021-08-07 11:49:14,402788
-2,-2,-4,-9,-7,-3,-3,0,2021-08-07 11:49:14,402788
1,3,10,20,19,9,2,2,2021-08-07 11:49:14,402788
-2,-2,-3,-10,-11,-6,-3,-3,2021-08-07 11:49:14,402788
-2,-2,-4,-5,-4,-1,-1,0,2021-08-07 11:49:14,402788
1,-1,0,6,3,-1,1,1,2021-08-07 11:49:14,402788
-1,-6,-8,-13,-12,-4,-1,-1,2021-08-07 11:49:14,403788
2,2,3,10,13,8,4,3,2021-08-07 11:49:14,417786
0,-2,1,7,5,2,2,2,2021-08-07 11:49:14,433787
-6,-2,-1,2,0,1,-2,-3,2021-08-07 11:49:14,433787
-2,-2,-1,-5,1,-2,-2,-4,2021-08-07 11:49:14,433787
-3,0,2,0,-7,-4,-2,-3,2021-08-07 11:49:14,433787
0,-2,-3,-12,-11,-6,-5,-3,2021-08-07 11:49:14,433787
3,3,2,7,5,2,1,2,2021-08-07 11:49:14,433787
1,-3,-3,-10,-5,-3,0,1,2021-08-07 11:49:14,433787
2,-1,0,4,7,2,2,-1,2021-08-07 11:49:14,433787
0,-1,-3,-6,-3,-1,-1,0,2021-08-07 11:49:14,434788
1,0,0,4,0,1,-1,-2,2021-08-07 11:49:14,434788
-1,-2,-10,-19,-18,-7,-3,-1,2021-08-07 11:49:14,464790
2,2,5,18,17,9,6,3,2021-08-07 11:49:14,464790
9,7,4,3,4,18,23,15,2021-08-07 11:49:14,464790
6,3,1,3,7,7,-2,1,2021-08-07 11:49:14,464790
-31,-21,-10,-8,-18,-41,-48,-40,2021-08-07 11:49:14,480789
-13,-10,-14,-27,-23,-20,-15,-10,2021-08-07 11:49:14,480789
2,-2,-7,-18,-26,-1,10,9,2021-08-07 11:49:14,480789
9,8,11,26,25,24,12,9,2021-08-07 11:49:14,480789
-6,0,4,9,11,-16,-22,-17,2021-08-07 11:49:14,496786
-3,-2,-1,-5,-4,-5,-6,-4,2021-08-07 11:49:14,511786
-4,-2,-1,-2,-4,-7,-3,-3,2021-08-07 11:49:14,527788
2,-2,-7,-18,-15,5,19,11,2021-08-07 11:49:14,527788
12,5,5,13,8,18,17,13,2021-08-07 11:49:14,527788
2,1,0,-1,1,2,4,0,2021-08-07 11:49:14,527788
3,2,0,2,6,10,9,3,2021-08-07 11:49:14,527788
-4,-6,-6,-12,-18,-10,-12,-7,2021-08-07 11:49:14,527788
-4,0,3,13,24,-1,-3,-2,2021-08-07 11:49:14,539787
2,2,2,5,9,22,31,17,2021-08-07 11:49:14,539787
33,21,14,21,35,71,71,49,2021-08-07 11:49:14,539787
23,13,9,12,19,15,2,14,2021-08-07 11:49:14,540790
-44,-26,-18,-30,-54,-84,-84,-75,2021-08-07 11:49:14,559788
-43,-25,-19,-28,-37,-65,-60,-51,2021-08-07 11:49:14,559788
6,4,4,5,15,51,58,32,2021-08-07 11:49:14,560127
36,24,13,15,36,58,44,41,2021-08-07 11:49:14,560127
6,-1,-4,-14,-38,-44,-44,-14,2021-08-07 11:49:14,591788
-34,-23,-16,-25,-40,-48,-52,-41,2021-08-07 11:49:14,591788
-15,-4,6,29,32,-12,-22,-19,2021-08-07 11:49:14,591788
3,0,0,2,17,23,33,18,2021-08-07 11:49:14,591788
38,22,15,21,39,72,71,58,2021-08-07 11:49:14,591788
19,10,4,-5,-13,8,10,11,2021-08-07 11:49:14,591788
-10,-10,-7,-7,-10,-23,-25,-18,2021-08-07 11:49:14,622788
-13,-7,-2,1,-10,-21,-16,-16,2021-08-07 11:49:14,622788
-5,-5,-9,-10,-7,1,2,0,2021-08-07 11:49:14,638788
10,7,3,3,5,15,17,13,2021-08-07 11:49:14,654787
-1,0,1,7,13,-5,-18,-9,2021-08-07 11:49:14,654787
-15,-9,-10,-26,-32,-37,-30,-22,2021-08-07 11:49:14,654787
-2,-1,1,4,4,13,17,8,2021-08-07 11:49:14,654787
12,6,3,8,11,20,17,16,2021-08-07 11:49:14,654787
-6,-6,-5,-8,-4,-18,-26,-14,2021-08-07 11:49:14,654787
-21,-13,-11,-17,-25,-34,-27,-24,2021-08-07 11:49:14,655789
6,3,-2,-9,-5,19,27,17,2021-08-07 11:49:14,670788
13,6,8,18,28,27,17,12,2021-08-07 11:49:14,670788
-9,-3,-4,-10,-19,-28,-27,-18,2021-08-07 11:49:14,670788
-13,-7,-8,-14,-20,-18,-8,-12,2021-08-07 11:49:14,670788
10,6,4,10,23,28,24,18,2021-08-07 11:49:14,686787
5,5,5,3,5,1,-2,2,2021-08-07 11:49:14,686787
-4,0,0,-6,-18,-15,-13,-9,2021-08-07 11:49:14,686787
-8,-7,-2,6,14,0,-3,-6,2021-08-07 11:49:14,686787
-1,0,-6,-24,-42,-8,3,4,2021-08-07 11:49:14,702788
4,7,13,34,53,23,9,5,2021-08-07 11:49:14,702788
-5,-7,-7,-9,-7,-11,-10,-8,2021-08-07 11:49:14,702788
-3,-1,-2,2,7,0,-2,-3,2021-08-07 11:49:14,702788
5,4,6,20,21,11,7,4,2021-08-07 11:49:14,718786
-3,-5,-13,-38,-52,-20,-4,-1,2021-08-07 11:49:14,718786
-5,-5,1,-1,-8,-3,-8,-6,2021-08-07 11:49:14,734786
4,7,10,25,49,19,4,2,2021-08-07 11:49:14,734786
0,0,-2,0,-1,3,3,0,2021-08-07 11:49:14,734786
1,-4,-8,-18,-24,-6,0,0,2021-08-07 11:49:14,734786
4,6,12,25,29,7,-1,0,2021-08-07 11:49:14,734786
-7,-4,-4,-8,-34,-19,-10,-9,2021-08-07 11:49:14,735788
-2,-1,1,5,29,15,5,4,2021-08-07 11:49:14,765789
4,1,-1,-6,-23,-6,2,3,2021-08-07 11:49:14,765789
-6,-8,-13,-28,-34,-16,-11,-8,2021-08-07 11:49:14,765789
-4,-3,-1,5,-9,-11,-6,-4,2021-08-07 11:49:14,765789
13,11,17,47,84,41,20,13,2021-08-07 11:49:14,781788
-1,0,-4,-21,-17,-10,-5,-2,2021-08-07 11:49:14,781788
-6,-10,-11,0,6,-1,-5,-5,2021-08-07 11:49:14,781788
-1,-1,-1,0,-6,0,-2,-2,2021-08-07 11:49:14,781788
-3,-5,-4,-11,-37,-15,-3,-4,2021-08-07 11:49:14,797786
-1,3,-1,4,5,3,-1,0,2021-08-07 11:49:14,797786
2,1,3,0,-4,-7,-2,-1,2021-08-07 11:49:14,812788
-1,-1,-1,-13,-9,-2,-2,1,2021-08-07 11:49:14,828786
0,-2,1,2,-10,-7,-2,-1,2021-08-07 11:49:14,828786
6,3,6,29,47,18,6,4,2021-08-07 11:49:14,828786
-2,-3,-7,-11,-18,-7,-4,-3,2021-08-07 11:49:14,844788
-3,-8,-15,-27,-22,-10,-5,-5,2021-08-07 11:49:14,844788
-2,-2,-5,-18,-17,-5,-2,-3,2021-08-07 11:49:14,844788
4,4,7,14,25,12,6,4,2021-08-07 11:49:14,844788
0,0,6,12,5,-3,-3,-1,2021-08-07 11:49:14,844788
-3,-3,-2,-3,-10,-4,-3,-2,2021-08-07 11:49:14,844788
0,1,-1,10,26,8,2,2,2021-08-07 11:49:14,859788
0,1,1,6,3,4,0,2,2021-08-07 11:49:14,859788
-3,0,-4,-11,-10,-7,-4,-1,2021-08-07 11:49:14,859788
-1,-1,-2,-5,-14,-8,-3,-3,2021-08-07 11:49:14,859788
-3,-3,-5,-12,-16,-4,-3,-2,2021-08-07 11:49:14,891788
-1,-2,0,10,23,9,3,0,2021-08-07 11:49:14,907787
-1,0,0,-4,7,0,-1,-2,2021-08-07 11:49:14,922787
-3,-1,-2,0,-5,-3,-2,-3,2021-08-07 11:49:14,938789
1,4,5,14,3,1,0,1,2021-08-07 11:49:14,954788
-2,-4,-5,-12,-16,-6,-2,-2,2021-08-07 11:49:14,954788
1,2,4,3,5,2,0,2,2021-08-07 11:49:14,954788
-2,-6,-6,-14,-18,-9,-4,-2,2021-08-07 11:49:14,954788
3,3,5,8,25,8,3,2,2021-08-07 11:49:14,954788
0,-2,-2,2,0,1,1,-2,2021-08-07 11:49:14,954788
-3,-3,-2,-3,-4,-2,-1,-3,2021-08-07 11:49:14,955788
-2,-2,2,-3,-17,-8,-6,-4,2021-08-07 11:49:14,955788
-8,-7,-9,-19,-12,-6,-4,-3,2021-08-07 11:49:14,970788
-2,0,-2,-8,-23,-5,-4,-1,2021-08-07 11:49:14,970788
5,6,9,30,52,16,9,5,2021-08-07 11:49:14,970788
0,-1,-1,0,3,-1,0,-1,2021-08-07 11:49:14,970788
-3,-4,-13,-33,-48,-20,-6,-4,2021-08-07 11:49:14,970788
4,3,12,30,39,14,6,2,2021-08-07 11:49:14,970788
-3,-1,-1,5,3,4,-3,-2,2021-08-07 11:49:14,970788
1,2,3,4,7,7,3,2,2021-08-07 11:49:14,970788
-5,-4,-7,-13,-20,-9,-4,-3,2021-08-07 11:49:14,980787
-3,-5,-3,-4,-21,-10,-3,-3,2021-08-07 11:49:14,980787
3,2,-1,-13,-11,-3,-2,0,2021-08-07 11:49:14,980787
6,4,8,28,33,14,5,1,2021-08-07 11:49:14,981789
-1,-1,0,1,3,1,-1,-2,2021-08-07 11:49:15,002788
-3,-4,-7,-10,-11,-9,-4,-2,2021-08-07 11:49:15,002788
-5,-5,-7,-19,-25,-8,-5,-2,2021-08-07 11:49:15,002788
-1,0,-2,5,17,3,1,-1,2021-08-07 11:49:15,002788
0,-3,-2,-3,-9,-2,-1,-1,2021-08-07 11:49:15,017788
1,0,2,4,11,5,1,0,2021-08-07 11:49:15,033788
-5,-4,-6,-28,-44,-18,-6,-5,2021-08-07 11:49:15,033788
-1,-2,2,0,10,8,-1,-1,2021-08-07 11:49:15,033788
2,1,-1,18,18,2,1,1,2021-08-07 11:49:15,033788
0,0,-3,-1,4,2,0,0,2021-08-07 11:49:15,033788
4,4,7,18,8,6,2,1,2021-08-07 11:49:15,033788
-1,-1,-1,-5,-6,-5,-3,-1,2021-08-07 11:49:15,033788
-1,-1,-1,-8,-12,-7,-2,-2,2021-08-07 11:49:15,064788
-4,-5,-7,-13,-14,-8,-4,-3,2021-08-07 11:49:15,080789
-1,-4,-5,-2,-1,-2,0,0,2021-08-07 11:49:15,080789
0,0,-2,-8,0,1,1,1,2021-08-07 11:49:15,080789
0,0,-1,-2,-9,-4,-1,-1,2021-08-07 11:49:15,080789
-4,-5,-5,-7,-1,-2,-2,-5,2021-08-07 11:49:15,080789
4,5,13,37,33,12,5,1,2021-08-07 11:49:15,080789
0,-3,-3,-8,-32,-12,-3,-1,2021-08-07 11:49:15,096787
3,2,4,19,37,16,7,2,2021-08-07 11:49:15,112787
-3,-1,-6,-14,19,4,0,0,2021-08-07 11:49:15,112787
-3,-2,-1,1,-10,-4,-3,-2,2021-08-07 11:49:15,112787
0,1,0,-2,-2,-4,0,0,2021-08-07 11:49:15,112787
-3,-2,1,7,7,-2,-3,-1,2021-08-07 11:49:15,128788
1,1,1,-2,-18,-5,-2,1,2021-08-07 11:49:15,128788
-3,-3,-6,-13,-5,-3,0,-3,2021-08-07 11:49:15,144787
1,3,5,24,29,8,4,1,2021-08-07 11:49:15,144787
-2,2,-4,-9,-17,-5,0,-2,2021-08-07 11:49:15,144787
0,0,3,6,4,3,2,3,2021-08-07 11:49:15,144787
-5,-6,-13,-21,-17,-10,-7,-2,2021-08-07 11:49:15,144787
-6,-4,-5,-16,-18,-10,-6,-4,2021-08-07 11:49:15,144787
0,1,3,9,9,2,1,1,2021-08-07 11:49:15,160787
0,1,0,1,-5,-2,-2,-1,2021-08-07 11:49:15,160787
0,-1,-5,-16,-26,-9,-3,-2,2021-08-07 11:49:15,160787
-1,-2,-4,-4,5,4,-2,0,2021-08-07 11:49:15,160787
-1,-1,0,4,20,8,0,1,2021-08-07 11:49:15,192788
-1,0,3,3,-3,1,-1,0,2021-08-07 11:49:15,207787
0,1,4,12,15,6,3,1,2021-08-07 11:49:15,223787
1,3,3,6,11,1,1,0,2021-08-07 11:49:15,223787
-4,-5,-5,-13,-21,-9,-4,-5,2021-08-07 11:49:15,223787
0,-3,-7,-15,-17,-5,-1,1,2021-08-07 11:49:15,223787
1,0,-1,11,27,10,2,1,2021-08-07 11:49:15,223787
2,2,-1,1,0,3,3,4,2021-08-07 11:49:15,223787
-3,-2,-1,0,-6,-1,1,-1,2021-08-07 11:49:15,223787
-4,-3,1,6,7,3,1,-3,2021-08-07 11:49:15,223787
-1,1,4,4,3,-1,-2,0,2021-08-07 11:49:15,224790
-4,-4,-4,-12,-23,-11,-7,-6,2021-08-07 11:49:15,224790
2,0,-1,5,19,6,1,0,2021-08-07 11:49:15,239788
2,3,3,14,5,3,2,1,2021-08-07 11:49:15,255789
2,1,1,4,-1,0,2,1,2021-08-07 11:49:15,271788
-1,-3,-4,-7,-2,-1,-2,-2,2021-08-07 11:49:15,271788
-5,-7,-13,-35,-43,-18,-8,-6,2021-08-07 11:49:15,271788
2,1,2,10,11,4,1,2,2021-08-07 11:49:15,271788
3,2,2,10,14,7,4,2,2021-08-07 11:49:15,271788
-2,-2,-2,4,0,1,-1,-2,2021-08-07 11:49:15,271788
-1,1,6,2,14,4,2,2,2021-08-07 11:49:15,271788
-3,-5,-9,-19,-28,-13,-6,-6,2021-08-07 11:49:15,271788
-1,-3,-5,-1,-1,-2,-2,-1,2021-08-07 11:49:15,287787
0,-3,-5,-16,-11,-5,-1,-1,2021-08-07 11:49:15,287787
6,8,12,36,44,17,6,4,2021-08-07 11:49:15,303788
0,3,6,13,15,4,0,0,2021-08-07 11:49:15,319788
-5,-6,-11,-33,-40,-15,-6,-3,2021-08-07 11:49:15,319788
-1,-1,1,12,19,3,1,0,2021-08-07 11:49:15,319788
-7,-7,-14,-36,-47,-20,-9,-5,2021-08-07 11:49:15,319788
3,2,6,13,20,5,2,0,2021-08-07 11:49:15,319788
0,0,2,7,10,5,1,-1,2021-08-07 11:49:15,319788
6,5,9,15,16,9,4,4,2021-08-07 11:49:15,319788
-3,-3,-4,-5,-16,-6,-3,-2,2021-08-07 11:49:15,351788
-1,-2,-4,-3,-4,-3,-1,1,2021-08-07 11:49:15,351788
-8,-8,-11,-26,-30,-14,-7,-6,2021-08-07 11:49:15,351788
0,1,3,9,23,6,3,1,2021-08-07 11:49:15,351788
0,-3,-3,-6,-10,-1,-2,-1,2021-08-07 11:49:15,367788
-3,-4,-8,-28,-39,-13,-7,-3,2021-08-07 11:49:15,367788
5,6,9,28,39,13,4,3,2021-08-07 11:49:15,367788
-1,1,1,3,-3,-2,0,0,2021-08-07 11:49:15,367788
-2,0,1,-3,2,-2,-2,-3,2021-08-07 11:49:15,382788
0,0,0,-1,-5,-1,1,0,2021-08-07 11:49:15,398787
-4,-2,-1,-3,-15,-8,-6,-5,2021-08-07 11:49:15,398787
0,-3,-7,-10,-14,-4,-2,0,2021-08-07 11:49:15,398787
-1,-3,-3,-5,4,0,-2,0,2021-08-07 11:49:15,398787
1,1,-1,-8,-5,-1,0,3,2021-08-07 11:49:15,398787
0,1,7,15,8,3,0,2,2021-08-07 11:49:15,398787
0,1,-1,3,12,8,2,0,2021-08-07 11:49:15,398787
-3,-2,-6,-15,-19,-7,-4,-3,2021-08-07 11:49:15,419787
0,0,2,12,12,4,1,1,2021-08-07 11:49:15,419787
1,1,4,13,15,7,3,1,2021-08-07 11:49:15,419787
-7,-8,-11,-27,-39,-19,-8,-5,2021-08-07 11:49:15,419787
3,2,3,7,4,8,3,2,2021-08-07 11:49:15,445788
5,5,11,33,53,16,8,4,2021-08-07 11:49:15,445788
-3,-4,-7,-16,-25,-9,-5,-2,2021-08-07 11:49:15,445788
0,-1,1,8,9,1,-3,-1,2021-08-07 11:49:15,445788
4,4,6,8,5,3,5,0,2021-08-07 11:49:15,461786
-8,-7,-13,-31,-39,-14,-9,-5,2021-08-07 11:49:15,477788
3,3,3,17,29,9,3,2,2021-08-07 11:49:15,492787
0,0,-1,3,1,0,-1,1,2021-08-07 11:49:15,492787
-1,-2,-2,2,5,-1,-2,0,2021-08-07 11:49:15,492787
-5,-3,0,-11,-23,-7,-5,-4,2021-08-07 11:49:15,492787
-2,-2,-3,-19,-6,-5,-1,-3,2021-08-07 11:49:15,492787
1,1,-2,16,16,10,3,2,2021-08-07 11:49:15,492787
-2,-1,-2,-5,-13,-5,-3,-1,2021-08-07 11:49:15,508787
-5,-7,-6,-2,-3,-8,-5,-5,2021-08-07 11:49:15,524788
7,8,9,14,23,13,9,6,2021-08-07 11:49:15,524788
-1,-1,5,9,3,-2,-1,-1,2021-08-07 11:49:15,524788
-4,-5,-6,-11,-6,-3,-2,-3,2021-08-07 11:49:15,524788
-4,-5,-5,-12,-15,-7,-6,-4,2021-08-07 11:49:15,524788
-5,-5,-11,-23,-29,-11,-6,-2,2021-08-07 11:49:15,524788
4,6,10,27,36,15,6,3,2021-08-07 11:49:15,524788
0,1,0,2,-9,-3,-1,-1,2021-08-07 11:49:15,540790
1,1,2,9,4,0,0,1,2021-08-07 11:49:15,555789
1,0,-2,0,-1,1,0,-1,2021-08-07 11:49:15,571789
2,2,1,-1,9,3,0,0,2021-08-07 11:49:15,587788
0,-1,-1,2,3,-1,-1,1,2021-08-07 11:49:15,587788
-5,-6,-11,-21,-18,-9,-4,-5,2021-08-07 11:49:15,587788
1,3,4,16,21,12,5,2,2021-08-07 11:49:15,587788
-3,-2,-3,-12,-20,-7,-2,-2,2021-08-07 11:49:15,587788
-1,1,1,4,4,2,1,0,2021-08-07 11:49:15,588788
0,-1,2,5,-2,0,-2,-1,2021-08-07 11:49:15,603788
-1,-1,-4,-10,-16,-8,-3,-1,2021-08-07 11:49:15,603788
-2,0,0,3,0,-2,-2,-1,2021-08-07 11:49:15,603788
-1,-2,-3,-3,-3,-2,-1,-2,2021-08-07 11:49:15,603788
-2,-2,-4,-21,-28,-9,-5,-4,2021-08-07 11:49:15,603788
-5,-7,-8,-9,2,-1,-3,-5,2021-08-07 11:49:15,603788
4,2,5,22,29,11,5,2,2021-08-07 11:49:15,603788
1,1,2,12,-2,-1,0,0,2021-08-07 11:49:15,635788
2,1,1,7,14,5,1,2,2021-08-07 11:49:15,635788
-3,-3,-2,-19,-30,-11,-6,-4,2021-08-07 11:49:15,635788
-3,-5,-7,-18,-28,-11,-3,-3,2021-08-07 11:49:15,650789
2,2,1,9,27,11,2,1,2021-08-07 11:49:15,650789
-2,-2,0,0,-5,-2,-1,-3,2021-08-07 11:49:15,650789
1,-1,3,7,23,9,3,2,2021-08-07 11:49:15,650789
-1,1,-2,-2,-1,-2,-2,-2,2021-08-07 11:49:15,650789
-2,-3,-1,-1,-6,-4,-2,-3,2021-08-07 11:49:15,666787
-2,-2,-6,-14,-9,-2,-2,0,2021-08-07 11:49:15,681787
0,1,0,3,1,-3,0,0,2021-08-07 11:49:15,681787
-4,-2,-2,-7,-9,-4,-3,-3,2021-08-07 11:49:15,681787
0,0,5,7,6,2,3,0,2021-08-07 11:49:15,681787
1,2,-2,-4,5,0,2,1,2021-08-07 11:49:15,681787
-5,-4,-9,-13,-22,-10,-5,-3,2021-08-07 11:49:15,697791
-3,-4,-5,-12,-8,-3,-2,-2,2021-08-07 11:49:15,697791
-1,1,2,8,4,1,-1,-1,2021-08-07 11:49:15,697791
2,3,0,-1,-2,3,2,3,2021-08-07 11:49:15,697791
-3,0,4,11,6,-1,-3,-3,2021-08-07 11:49:15,697791
2,2,5,19,28,11,4,3,2021-08-07 11:49:15,697791
-5,-5,-9,-25,-27,-10,-6,-4,2021-08-07 11:49:15,728789
0,0,3,21,24,8,2,0,2021-08-07 11:49:15,744788
-1,-3,-7,-31,-44,-15,-5,-1,2021-08-07 11:49:15,760787
3,4,7,15,18,5,2,2,2021-08-07 11:49:15,760787
-2,-3,0,-3,-6,-3,-2,-2,2021-08-07 11:49:15,760787
-2,0,5,2,5,2,-2,0,2021-08-07 11:49:15,760787
2,0,-5,10,6,3,2,2,2021-08-07 11:49:15,760787
-4,-4,-6,-17,-18,-9,-4,-4,2021-08-07 11:49:15,760787
-2,-1,-1,-1,-2,-2,-2,-1,2021-08-07 11:49:15,760787
1,0,2,7,3,1,0,0,2021-08-07 11:49:15,760787
0,0,2,2,4,1,2,-2,2021-08-07 11:49:15,761789
-2,-2,-3,-10,-15,-7,-3,-2,2021-08-07 11:49:15,761789
1,2,5,22,20,6,2,1,2021-08-07 11:49:15,791788
-1,-1,-4,-7,-7,-3,-2,0,2021-08-07 11:49:15,807787
-6,-6,-7,-18,-22,-12,-5,-5,2021-08-07 11:49:15,822787
3,4,6,12,14,6,1,1,2021-08-07 11:49:15,822787
0,1,4,12,7,2,0,0,2021-08-07 11:49:15,822787
1,1,-1,9,13,7,2,0,2021-08-07 11:49:15,822787
4,2,8,26,37,13,5,3,2021-08-07 11:49:15,822787
-7,-6,-12,-26,-38,-15,-7,-6,2021-08-07 11:49:15,838787
-6,-8,-10,-23,-25,-13,-7,-3,2021-08-07 11:49:15,853787
4,5,13,34,41,16,7,3,2021-08-07 11:49:15,853787
2,3,2,8,6,3,1,1,2021-08-07 11:49:15,853787
-3,-5,-7,-19,-17,-8,-5,-2,2021-08-07 11:49:15,853787
-4,-2,-6,-15,-20,-9,-4,-3,2021-08-07 11:49:15,853787
-4,-3,1,-10,-11,-7,-3,-4,2021-08-07 11:49:15,853787
0,-2,-8,-6,3,1,-1,-1,2021-08-07 11:49:15,853787
-1,0,4,11,11,5,1,0,2021-08-07 11:49:15,854788
-1,0,-2,-3,-3,0,0,-1,2021-08-07 11:49:15,870787
-1,-2,-6,-12,-14,-5,-1,-1,2021-08-07 11:49:15,870787
3,5,10,17,21,11,4,2,2021-08-07 11:49:15,870787
-2,-2,-6,-5,-9,-5,-2,-1,2021-08-07 11:49:15,870787
0,-1,-3,-2,-3,-2,-3,-1,2021-08-07 11:49:15,870787
0,2,2,16,25,12,3,1,2021-08-07 11:49:15,870787
-1,0,2,6,2,-1,-2,-2,2021-08-07 11:49:15,901788
1,1,-4,-22,-35,-12,-5,-1,2021-08-07 11:49:15,901788
2,0,5,17,35,10,4,2,2021-08-07 11:49:15,901788
-2,-2,-9,-14,-24,-9,-3,-1,2021-08-07 11:49:15,901788
1,1,1,-1,8,2,0,0,2021-08-07 11:49:15,901788
-1,-2,-1,-2,5,2,2,-3,2021-08-07 11:49:15,901788
1,-1,0,-3,-8,-2,-2,-1,2021-08-07 11:49:15,933788
0,-1,0,-5,-7,-3,-1,-1,2021-08-07 11:49:15,933788
-3,-6,-7,-14,-25,-10,-5,-4,2021-08-07 11:49:15,933788
1,-1,0,6,6,3,0,-1,2021-08-07 11:49:15,933788
1,1,2,3,13,3,1,1,2021-08-07 11:49:15,933788
1,0,0,3,-9,-7,-3,-2,2021-08-07 11:49:15,933788
-2,0,2,7,18,9,3,0,2021-08-07 11:49:15,949788
2,5,10,24,9,4,4,4,2021-08-07 11:49:15,949788
-4,-5,-10,-20,-26,-14,-5,-6,2021-08-07 11:49:15,965786
2,4,4,6,13,12,4,2,2021-08-07 11:49:15,965786
1,3,7,19,16,4,0,1,2021-08-07 11:49:15,965786
2,1,7,18,27,9,3,0,2021-08-07 11:49:15,965786
0,0,0,2,5,2,0,1,2021-08-07 11:49:15,981788
-2,-4,-8,-22,-29,-12,-5,-2,2021-08-07 11:49:15,997789
-4,-4,-10,-25,-27,-9,-5,-1,2021-08-07 11:49:16,013786
-3,-3,-3,0,5,-1,-2,-2,2021-08-07 11:49:16,013786
0,2,5,5,-3,0,0,0,2021-08-07 11:49:16,013786
1,2,-1,6,20,6,2,2,2021-08-07 11:49:16,013786
-2,-3,0,3,1,-1,0,-1,2021-08-07 11:49:16,013786
-4,-3,-9,-25,-21,-7,-4,-2,2021-08-07 11:49:16,013786
-5,-6,-8,-21,-27,-10,-6,-3,2021-08-07 11:49:16,014788
4,4,6,20,21,9,5,3,2021-08-07 11:49:16,014788
1,4,7,19,25,7,2,1,2021-08-07 11:49:16,029788
-1,-1,-2,-15,-21,-7,-3,-1,2021-08-07 11:49:16,045788
-3,-5,-7,-14,-17,-6,-2,-2,2021-08-07 11:49:16,045788
-4,-8,-13,-22,-17,-8,-4,-5,2021-08-07 11:49:16,045788
2,0,2,10,7,3,1,1,2021-08-07 11:49:16,045788
0,1,2,15,23,7,1,0,2021-08-07 11:49:16,045788
1,4,5,10,11,7,3,2,2021-08-07 11:49:16,060789
-6,-5,-5,-14,-23,-13,-6,-3,2021-08-07 11:49:16,076789
-5,-5,-5,-16,-21,-10,-6,-4,2021-08-07 11:49:16,076789
0,1,-1,-5,0,-2,-1,-2,2021-08-07 11:49:16,076789
5,5,5,16,23,8,4,3,2021-08-07 11:49:16,076789
0,2,5,10,0,1,3,0,2021-08-07 11:49:16,077790
-1,-1,-4,-11,-14,-6,-1,0,2021-08-07 11:49:16,077790
-1,-2,-1,4,7,2,1,0,2021-08-07 11:49:16,077790
1,-2,-4,0,2,3,2,-1,2021-08-07 11:49:16,123788
-1,-2,-5,-10,-2,-4,-1,0,2021-08-07 11:49:16,139787
-4,-3,-4,-12,-22,-12,-5,-3,2021-08-07 11:49:16,155787
-5,-6,-6,-25,-35,-12,-4,-4,2021-08-07 11:49:16,155787
3,5,12,43,67,28,8,5,2021-08-07 11:49:16,155787
-3,-2,-4,-2,-5,-4,0,-2,2021-08-07 11:49:16,155787
1,-1,0,5,3,1,-2,-1,2021-08-07 11:49:16,155787
-1,-3,-5,-9,-17,-8,-4,-1,2021-08-07 11:49:16,155787
-3,-3,-2,-12,-20,-9,-6,-1,2021-08-07 11:49:16,155787
2,2,2,1,3,0,1,1,2021-08-07 11:49:16,156789
3,2,1,7,13,7,3,1,2021-08-07 11:49:16,156789
-2,-2,-5,-4,-10,-6,-5,-3,2021-08-07 11:49:16,156789
1,1,2,7,2,1,0,0,2021-08-07 11:49:16,156789
4,3,6,15,24,7,1,3,2021-08-07 11:49:16,156789
1,-2,-6,-16,-17,-6,-2,-2,2021-08-07 11:49:16,171788
-1,0,2,6,-1,0,-1,-2,2021-08-07 11:49:16,171788
-1,-4,-4,-2,3,0,1,-2,2021-08-07 11:49:16,171788
-2,-2,1,2,8,1,0,0,2021-08-07 11:49:16,171788
-1,0,0,-3,-9,-3,-1,-2,2021-08-07 11:49:16,187789
2,2,0,12,14,5,2,2,2021-08-07 11:49:16,187789
-9,-11,-15,-53,-62,-27,-11,-8,2021-08-07 11:49:16,203788
1,4,9,26,34,15,6,2,2021-08-07 11:49:16,203788
2,-2,-9,0,9,4,2,2,2021-08-07 11:49:16,219788
-2,-3,-2,0,2,-2,-2,-2,2021-08-07 11:49:16,219788
-2,1,-1,-8,-27,-10,-5,-2,2021-08-07 11:49:16,219788
5,4,10,20,27,15,5,3,2021-08-07 11:49:16,219788
0,1,2,3,1,-1,0,0,2021-08-07 11:49:16,219788
0,-2,-2,-5,-5,-2,-2,-1,2021-08-07 11:49:16,220788
-1,-1,2,5,12,4,1,-1,2021-08-07 11:49:16,251788
-5,-7,-8,-27,-37,-14,-8,-4,2021-08-07 11:49:16,283788
-2,-1,0,2,-2,-1,-1,-2,2021-08-07 11:49:16,290788
1,2,4,6,1,1,3,2,2021-08-07 11:49:16,290788
2,2,1,11,23,8,3,2,2021-08-07 11:49:16,291789
-3,-5,-6,-9,-16,-9,-5,-4,2021-08-07 11:49:16,291789
-1,-1,1,4,1,1,-2,-2,2021-08-07 11:49:16,291789
-2,-3,-5,-18,-12,-7,-4,-3,2021-08-07 11:49:16,291789
-2,1,0,7,-2,1,0,-1,2021-08-07 11:49:16,291789
1,-1,-1,6,10,3,0,-1,2021-08-07 11:49:16,291789
0,-1,-4,-19,-13,-8,-2,-1,2021-08-07 11:49:16,291789
-4,-5,-7,-8,-2,-3,-4,-3,2021-08-07 11:49:16,292789
4,4,8,20,27,10,5,4,2021-08-07 11:49:16,315788
-4,-4,-4,-11,-33,-11,-6,-4,2021-08-07 11:49:16,331789
-4,-5,-6,-19,-13,-7,-6,-4,2021-08-07 11:49:16,347786
4,6,7,21,34,18,9,6,2021-08-07 11:49:16,363788
-2,-1,-3,-5,0,-3,0,-1,2021-08-07 11:49:16,363788
2,4,6,30,38,11,3,2,2021-08-07 11:49:16,363788
-2,-2,-3,-7,-17,-5,-3,-2,2021-08-07 11:49:16,363788
-3,-2,-6,-17,-25,-11,-4,-3,2021-08-07 11:49:16,363788
-2,-5,-5,-12,-13,-6,-3,-1,2021-08-07 11:49:16,363788
-2,-3,1,0,1,2,1,-1,2021-08-07 11:49:16,363788
1,1,1,5,7,4,0,1,2021-08-07 11:49:16,364789
-1,-1,-4,-2,11,2,0,-1,2021-08-07 11:49:16,379788
-4,-5,-5,-12,-19,-7,-5,-4,2021-08-07 11:49:16,395789
-2,-2,-6,-22,-33,-15,-6,-3,2021-08-07 11:49:16,395789
1,2,9,14,23,8,2,1,2021-08-07 11:49:16,395789
-1,-1,-1,1,-4,-2,-1,-2,2021-08-07 11:49:16,395789
0,2,1,0,6,1,0,1,2021-08-07 11:49:16,395789
-1,-3,-7,-14,-11,-3,-1,0,2021-08-07 11:49:16,395789
-4,-3,-2,-4,-5,-6,-1,-1,2021-08-07 11:49:16,396788
-4,-2,-5,-10,-9,-4,-4,-3,2021-08-07 11:49:16,396788
3,2,3,5,2,-2,-1,-1,2021-08-07 11:49:16,396788
1,0,2,7,2,2,0,0,2021-08-07 11:49:16,396788
2,2,5,15,23,10,4,2,2021-08-07 11:49:16,411788
-5,-5,-4,-6,-7,-5,-4,-5,2021-08-07 11:49:16,427787
-2,-1,0,5,1,-1,-3,-1,2021-08-07 11:49:16,427787
0,2,-2,-9,-3,-3,0,3,2021-08-07 11:49:16,427787
-4,-5,-6,-15,-21,-8,-3,-3,2021-08-07 11:49:16,427787
1,1,4,17,20,9,3,1,2021-08-07 11:49:16,427787
-1,-1,-2,-6,-13,-6,-3,-2,2021-08-07 11:49:16,459789
-1,-2,-3,-7,4,0,-1,-1,2021-08-07 11:49:16,474787
1,2,2,6,-7,0,2,1,2021-08-07 11:49:16,490788
4,2,8,23,21,6,3,1,2021-08-07 11:49:16,490788
0,-2,-1,-2,0,1,0,0,2021-08-07 11:49:16,490788
-3,-3,-6,-10,-16,-4,-3,-4,2021-08-07 11:49:16,490788
-2,-1,-3,-8,-1,-1,0,-1,2021-08-07 11:49:16,490788
-4,-2,-3,-2,-8,-4,-3,-2,2021-08-07 11:49:16,490788
2,3,2,2,0,1,0,3,2021-08-07 11:49:16,490788
-3,-3,-6,-15,-12,-7,-5,-3,2021-08-07 11:49:16,490788
2,2,5,17,30,11,3,3,2021-08-07 11:49:16,490788
1,4,4,8,2,2,2,1,2021-08-07 11:49:16,491789
-2,-5,-6,-10,-15,-6,-3,-3,2021-08-07 11:49:16,522788
1,0,2,9,18,5,0,0,2021-08-07 11:49:16,537787
-4,-6,-11,-22,-24,-11,-5,-4,2021-08-07 11:49:16,537787
0,-1,0,3,8,3,0,-1,2021-08-07 11:49:16,537787
1,0,0,3,6,1,1,-1,2021-08-07 11:49:16,537787
0,0,1,3,-11,-2,0,0,2021-08-07 11:49:16,537787
-1,-1,0,2,1,-1,-3,-1,2021-08-07 11:49:16,538788
-4,-2,0,-4,-12,-8,-1,-2,2021-08-07 11:49:16,538788
0,0,3,9,8,3,0,0,2021-08-07 11:49:16,538788
-2,-2,-1,2,8,0,-1,-3,2021-08-07 11:49:16,538788
1,1,-1,-2,-4,0,1,1,2021-08-07 11:49:16,538788
-5,-5,-6,-10,-4,-2,-5,-3,2021-08-07 11:49:16,538788
2,7,8,18,25,7,4,4,2021-08-07 11:49:16,569788
-1,-1,-1,1,2,-3,-2,0,2021-08-07 11:49:16,585788
-3,-5,-7,-17,-29,-9,-6,-4,2021-08-07 11:49:16,601786
6,5,8,14,19,9,3,5,2021-08-07 11:49:16,601786
-4,-3,-4,-4,-5,-2,-2,-4,2021-08-07 11:49:16,601786
1,-1,-3,-7,-8,-3,-1,0,2021-08-07 11:49:16,601786
0,1,2,9,7,1,1,-1,2021-08-07 11:49:16,601786
-1,-2,-5,-16,-22,-9,-3,-1,2021-08-07 11:49:16,602789
0,-1,-1,-5,-5,-2,-1,-1,2021-08-07 11:49:16,602789
0,0,-2,-3,-4,-1,-1,0,2021-08-07 11:49:16,602789
3,0,2,6,15,8,1,2,2021-08-07 11:49:16,602789
-2,-4,-5,-8,-4,-2,-1,-4,2021-08-07 11:49:16,602789
0,1,0,3,2,-2,-2,-2,2021-08-07 11:49:16,633788
-3,-2,-2,-5,-15,-6,-3,-3,2021-08-07 11:49:16,649786
1,2,0,2,1,-2,0,1,2021-08-07 11:49:16,665787
1,0,-3,-9,-12,-5,-1,1,2021-08-07 11:49:16,665787
-3,-5,-5,-3,6,4,-2,-2,2021-08-07 11:49:16,665787
2,2,3,4,9,4,3,2,2021-08-07 11:49:16,665787
-1,-1,4,15,1,-1,-2,-2,2021-08-07 11:49:16,665787
0,-2,-3,-1,3,1,0,-3,2021-08-07 11:49:16,665787
-2,-1,-4,-11,-9,-6,-3,-1,2021-08-07 11:49:16,665787
-2,0,0,5,4,0,0,1,2021-08-07 11:49:16,666788
0,-2,-3,0,6,1,0,0,2021-08-07 11:49:16,666788
-2,-2,-4,-25,-30,-12,-4,-2,2021-08-07 11:49:16,666788
1,2,5,11,12,4,2,0,2021-08-07 11:49:16,681788
-4,-3,0,-1,-6,-1,-1,-1,2021-08-07 11:49:16,697788
4,5,8,26,41,11,5,3,2021-08-07 11:49:16,713786
-2,0,-1,5,3,0,-2,2,2021-08-07 11:49:16,713786
-2,-3,-5,-12,-14,-4,-1,-1,2021-08-07 11:49:16,713786
0,-2,0,1,8,1,-2,1,2021-08-07 11:49:16,713786
-4,-5,-7,-20,-38,-12,-4,-5,2021-08-07 11:49:16,713786
3,0,2,6,25,9,1,1,2021-08-07 11:49:16,713786
3,5,10,18,14,6,2,4,2021-08-07 11:49:16,729788
1,-3,-2,-2,-10,-3,-1,-2,2021-08-07 11:49:16,729788
-4,-6,-8,-11,-7,-3,-3,-2,2021-08-07 11:49:16,729788
0,-1,-2,-3,-11,-4,1,-1,2021-08-07 11:49:16,729788
-3,-2,-6,-5,8,3,-1,-1,2021-08-07 11:49:16,737790
2,1,3,2,5,2,1,0,2021-08-07 11:49:16,737790
-1,0,-1,-5,-15,-4,-2,-1,2021-08-07 11:49:16,737790
-2,0,3,9,17,6,1,1,2021-08-07 11:49:16,738789
-2,-3,0,0,2,-3,-2,-1,2021-08-07 11:49:16,761788
-2,-2,-5,-17,-13,-5,-2,-2,2021-08-07 11:49:16,761788
0,1,1,0,-1,-2,-2,-1,2021-08-07 11:49:16,761788
-2,-2,-1,-3,1,1,-2,-1,2021-08-07 11:49:16,761788
-2,-2,-4,-6,-14,-4,-1,-2,2021-08-07 11:49:16,793791
2,3,2,14,29,9,4,1,2021-08-07 11:49:16,793791
-3,-4,-7,-10,-4,-3,-2,-2,2021-08-07 11:49:16,793791
0,2,3,2,-3,-1,-2,0,2021-08-07 11:49:16,793791
-3,-4,-6,-6,-5,1,-1,-1,2021-08-07 11:49:16,793791
-1,1,2,4,-5,-5,-1,0,2021-08-07 11:49:16,793791
2,4,5,7,8,2,2,1,2021-08-07 11:49:16,793791
0,-2,-3,-2,1,1,0,0,2021-08-07 11:49:16,794789
-1,-2,-5,-6,-2,-4,0,-2,2021-08-07 11:49:16,825787
-3,-3,-5,-12,-17,-5,-2,-2,2021-08-07 11:49:16,841787
-3,-2,-4,1,9,4,-1,0,2021-08-07 11:49:16,841787
0,0,1,2,-9,-4,-3,-2,2021-08-07 11:49:16,841787
2,2,3,0,-6,-3,-3,1,2021-08-07 11:49:16,841787
-1,0,-1,5,0,-1,-1,-2,2021-08-07 11:49:16,841787
0,2,4,11,17,6,2,1,2021-08-07 11:49:16,841787
-2,-3,-4,-11,-5,-1,-1,-3,2021-08-07 11:49:16,842788
-1,-2,-1,-5,-15,-6,-2,-1,2021-08-07 11:49:16,857786
-1,0,-2,-1,-4,-4,-2,-2,2021-08-07 11:49:16,857786
1,-1,-2,-1,-1,-2,0,-3,2021-08-07 11:49:16,857786
-1,1,1,8,-8,-3,-1,0,2021-08-07 11:49:16,857786
-1,-1,1,5,15,5,0,-2,2021-08-07 11:49:16,889788
1,3,4,7,1,0,-1,0,2021-08-07 11:49:16,905788
-2,-4,-5,-19,-32,-12,-6,-1,2021-08-07 11:49:16,921787
-1,-2,-4,2,16,3,1,-1,2021-08-07 11:49:16,921787
0,0,2,3,2,-2,-2,1,2021-08-07 11:49:16,921787
0,-2,-1,6,7,1,0,0,2021-08-07 11:49:16,921787
-4,-5,-3,-9,-9,-3,-2,-4,2021-08-07 11:49:16,921787
-3,-1,-1,-5,-8,-2,0,-3,2021-08-07 11:49:16,921787
-4,-1,1,2,4,0,-3,-3,2021-08-07 11:49:16,921787
-2,1,1,-2,-1,0,-2,-2,2021-08-07 11:49:16,922788
0,3,3,7,6,-1,-2,0,2021-08-07 11:49:16,922788
-4,-3,-4,-5,-10,-6,-3,-1,2021-08-07 11:49:16,922788
3,0,-2,-11,-3,-1,1,0,2021-08-07 11:49:16,953788
1,2,5,17,12,6,1,1,2021-08-07 11:49:16,969788
1,-3,-4,-10,-11,-3,-2,-1,2021-08-07 11:49:16,985789
-4,-5,-8,-27,-33,-14,-6,-3,2021-08-07 11:49:16,985789
0,2,6,27,30,9,1,0,2021-08-07 11:49:16,985789
-1,-2,-1,-1,3,4,0,-3,2021-08-07 11:49:16,985789
2,0,1,10,21,6,3,1,2021-08-07 11:49:16,985789
0,-1,-2,3,-2,-1,0,1,2021-08-07 11:49:16,985789
-1,-1,-3,-3,-12,-7,-2,-2,2021-08-07 11:49:16,985789
-1,-1,-3,-8,-8,-4,-3,-1,2021-08-07 11:49:16,985789
-1,1,1,3,1,-1,-2,-1,2021-08-07 11:49:16,986788
1,0,-2,5,3,2,0,2,2021-08-07 11:49:16,986788
-1,0,-2,-9,-9,-1,-1,-1,2021-08-07 11:49:17,001788
0,-4,-2,-4,-5,-4,-2,0,2021-08-07 11:49:17,017786
3,1,1,8,11,4,2,1,2021-08-07 11:49:17,017786
-2,-2,0,2,7,-1,-2,-3,2021-08-07 11:49:17,017786
-3,-3,-5,-14,-19,-6,-1,0,2021-08-07 11:49:17,033788
-1,-1,-2,-1,0,-1,-2,0,2021-08-07 11:49:17,033788
0,2,1,6,9,3,-1,0,2021-08-07 11:49:17,033788
0,0,1,1,-8,-3,-2,-2,2021-08-07 11:49:17,033788
0,0,-1,-1,12,3,0,-1,2021-08-07 11:49:17,033788
2,4,4,13,19,7,4,1,2021-08-07 11:49:17,033788
-4,-6,-9,-21,-37,-14,-5,-5,2021-08-07 11:49:17,049788
1,1,4,16,36,12,4,-1,2021-08-07 11:49:17,049788
-2,-2,-2,-10,-27,-9,-4,-3,2021-08-07 11:49:17,065787
-2,-4,-5,-12,-16,-9,-4,-3,2021-08-07 11:49:17,065787
-2,-1,-1,-2,1,-1,-1,1,2021-08-07 11:49:17,065787
2,3,4,10,9,3,1,0,2021-08-07 11:49:17,065787
-1,-2,-3,-7,-18,-7,0,0,2021-08-07 11:49:17,097790
4,3,8,26,34,13,4,3,2021-08-07 11:49:17,113787
-6,-6,-6,-14,-22,-10,-5,-5,2021-08-07 11:49:17,113787
-3,-6,-7,-8,-1,-3,-2,-1,2021-08-07 11:49:17,113787
2,3,4,8,12,4,2,0,2021-08-07 11:49:17,113787
-2,-1,-2,-3,-8,-2,1,0,2021-08-07 11:49:17,113787
-3,-3,-5,-17,-22,-9,-4,-2,2021-08-07 11:49:17,113787
-1,-1,4,12,12,5,-1,0,2021-08-07 11:49:17,113787
2,1,3,9,30,11,2,2,2021-08-07 11:49:17,129788
-1,-3,-7,-12,-8,-4,-2,-2,2021-08-07 11:49:17,145787
3,3,6,20,21,8,3,3,2021-08-07 11:49:17,161788
-1,-1,-5,-15,-24,-9,-3,-3,2021-08-07 11:49:17,161788
0,1,4,9,9,1,1,1,2021-08-07 11:49:17,161788
-5,-4,-7,-19,-21,-9,-5,-4,2021-08-07 11:49:17,161788
0,0,1,4,10,3,1,-2,2021-08-07 11:49:17,161788
8,9,12,27,35,15,7,6,2021-08-07 11:49:17,161788
-1,-1,-5,-16,-18,-7,0,0,2021-08-07 11:49:17,162788
-1,0,2,13,7,-1,-2,0,2021-08-07 11:49:17,162788
-2,-3,-3,-7,-12,-3,-3,-2,2021-08-07 11:49:17,162788
-2,-4,-3,-3,-10,-6,-3,0,2021-08-07 11:49:17,162788
-6,-7,-10,-20,-23,-7,-4,-3,2021-08-07 11:49:17,184788
0,1,4,14,26,10,3,-1,2021-08-07 11:49:17,184788
0,1,3,5,6,3,1,0,2021-08-07 11:49:17,184788
-3,-4,-6,-21,-29,-14,-7,-4,2021-08-07 11:49:17,184788
0,-2,-1,13,27,9,-1,0,2021-08-07 11:49:17,209788
-2,-2,-4,-11,-11,-8,-2,-1,2021-08-07 11:49:17,225787
0,1,1,8,15,4,3,3,2021-08-07 11:49:17,225787
-3,-4,-4,-4,-4,-2,-1,-3,2021-08-07 11:49:17,225787
-3,-3,-1,-9,-22,-9,-5,-2,2021-08-07 11:49:17,225787
-2,-3,-5,-17,-18,-8,-3,-2,2021-08-07 11:49:17,225787
-1,-1,-1,-2,-10,-6,-2,-1,2021-08-07 11:49:17,225787
0,0,-2,4,20,6,1,-2,2021-08-07 11:49:17,225787
2,2,7,13,7,2,2,2,2021-08-07 11:49:17,241789
1,4,5,14,20,8,3,2,2021-08-07 11:49:17,241789
-1,-2,-3,-8,-12,-4,-3,-2,2021-08-07 11:49:17,241789
-2,-3,-3,-9,-15,-5,-3,-1,2021-08-07 11:49:17,241789
-2,-2,-5,-6,-12,-6,-4,-2,2021-08-07 11:49:17,273788
1,0,-3,-14,-23,-6,-1,0,2021-08-07 11:49:17,289788
4,4,9,27,40,17,6,3,2021-08-07 11:49:17,305787
-2,1,2,3,4,3,0,-1,2021-08-07 11:49:17,321789
-2,-1,0,2,2,-1,0,-2,2021-08-07 11:49:17,352788
-3,-5,-10,-18,-21,-8,-5,-3,2021-08-07 11:49:17,352788
-2,-3,-5,-12,-16,-7,-4,-2,2021-08-07 11:49:17,352788
4,4,6,16,14,5,2,2,2021-08-07 11:49:17,353788
-3,-2,-6,-13,-13,-3,-2,-3,2021-08-07 11:49:17,353788
-2,-1,1,2,-4,-3,-1,-2,2021-08-07 11:49:17,353788
2,1,-1,1,9,6,2,0,2021-08-07 11:49:17,353788
-1,-1,0,3,6,2,-1,0,2021-08-07 11:49:17,353788
1,-1,0,-2,-13,-4,-1,-1,2021-08-07 11:49:17,353788
-3,-3,-4,-11,-12,-4,-3,-2,2021-08-07 11:49:17,353788
-3,-2,-1,-2,-14,-6,-3,-2,2021-08-07 11:49:17,354788
-1,0,-3,-9,13,3,2,1,2021-08-07 11:49:17,354788
4,5,12,28,40,14,5,4,2021-08-07 11:49:17,354788
-2,-4,-8,2,5,3,-1,-1,2021-08-07 11:49:17,354788
3,3,6,24,15,6,2,1,2021-08-07 11:49:17,354788
-3,-3,-6,-13,-32,-13,-6,-5,2021-08-07 11:49:17,354788
-4,-5,-7,-23,-21,-9,-5,-2,2021-08-07 11:49:17,368788
1,0,3,3,12,2,0,-1,2021-08-07 11:49:17,368788
-2,-3,-5,-11,-15,-4,-4,-2,2021-08-07 11:49:17,368788
0,0,-1,-3,-2,-1,0,0,2021-08-07 11:49:17,368788
0,2,3,14,28,9,1,-1,2021-08-07 11:49:17,384788
0,-1,1,0,-2,0,0,1,2021-08-07 11:49:17,384788
-1,-2,0,2,7,0,-1,-1,2021-08-07 11:49:17,384788
-1,-3,1,-5,-20,-6,-3,-3,2021-08-07 11:49:17,384788
1,0,-1,3,9,2,0,-1,2021-08-07 11:49:17,416788
-3,-4,-5,-15,-14,-7,-3,-3,2021-08-07 11:49:17,416788
-2,-3,-5,-15,-7,-3,-4,-4,2021-08-07 11:49:17,416788
-2,-3,-7,-17,-21,-8,-2,-1,2021-08-07 11:49:17,416788
0,1,8,28,27,10,1,1,2021-08-07 11:49:17,416788
5,6,7,24,25,9,6,6,2021-08-07 11:49:17,416788
2,1,4,9,14,2,2,1,2021-08-07 11:49:17,416788
-1,1,0,-1,-3,-3,0,0,2021-08-07 11:49:17,416788
-3,-5,-9,-25,-24,-9,-4,-3,2021-08-07 11:49:17,448789
-3,-3,-3,-9,-8,-6,-6,-3,2021-08-07 11:49:17,448789
-2,-2,-3,-9,-10,-4,-2,-1,2021-08-07 11:49:17,448789
-1,-2,-1,-2,-14,-4,-2,-1,2021-08-07 11:49:17,448789
7,2,3,16,30,14,6,3,2021-08-07 11:49:17,480788
0,0,2,9,1,0,0,1,2021-08-07 11:49:17,480788
-3,-2,-4,-8,-9,-6,-2,-1,2021-08-07 11:49:17,480788
-3,-2,-4,-5,-8,-3,-3,-2,2021-08-07 11:49:17,480788
-4,0,4,0,7,3,-1,-1,2021-08-07 11:49:17,480788
-1,-2,1,0,-6,-5,-1,-2,2021-08-07 11:49:17,480788
-3,-4,-9,-14,-30,-9,-3,-2,2021-08-07 11:49:17,480788
5,4,6,23,44,16,4,5,2021-08-07 11:49:17,480788
-1,0,-3,0,-5,-4,-1,-1,2021-08-07 11:49:17,511788
0,-1,-2,-8,-4,0,-3,-1,2021-08-07 11:49:17,511788
-4,-3,0,-6,-11,-9,-3,-3,2021-08-07 11:49:17,511788
-4,-4,-6,-9,-7,-4,-2,-2,2021-08-07 11:49:17,511788
-3,-3,-7,-23,-30,-12,-4,-3,2021-08-07 11:49:17,543789
2,2,8,17,20,9,4,0,2021-08-07 11:49:17,543789
4,1,4,13,30,10,3,2,2021-08-07 11:49:17,543789
-3,-2,-2,-2,-8,-4,-1,-2,2021-08-07 11:49:17,543789
0,2,0,2,-2,1,2,2,2021-08-07 11:49:17,559789
-3,-1,-6,-12,-16,-7,-3,-3,2021-08-07 11:49:17,559789
-4,-4,-10,-17,-11,-5,-3,-3,2021-08-07 11:49:17,559789
1,1,5,9,16,5,1,1,2021-08-07 11:49:17,559789
-1,-3,-3,-9,-15,-8,-4,-4,2021-08-07 11:49:17,559789
-2,-3,-3,-14,-14,-3,-2,-2,2021-08-07 11:49:17,559789
0,1,4,19,16,5,0,-1,2021-08-07 11:49:17,559789
1,1,-1,-3,0,-2,2,0,2021-08-07 11:49:17,559789
-2,-1,-2,-1,-7,0,-2,-1,2021-08-07 11:49:17,591789
0,1,2,8,4,0,0,0,2021-08-07 11:49:17,591789
-4,-4,-8,-23,-23,-8,-4,-4,2021-08-07 11:49:17,591789
-2,-2,0,-2,-1,-2,-2,-3,2021-08-07 11:49:17,591789
0,-1,0,1,-3,-3,0,0,2021-08-07 11:49:17,607789
3,1,0,-1,0,1,0,1,2021-08-07 11:49:17,607789
0,-1,1,3,4,1,2,0,2021-08-07 11:49:17,607789
0,2,4,5,0,0,1,0,2021-08-07 11:49:17,607789
-1,0,-1,-5,3,1,1,0,2021-08-07 11:49:17,622788
-1,-1,1,9,12,4,0,-1,2021-08-07 11:49:17,622788
-3,-2,-6,-12,-14,-7,-3,-2,2021-08-07 11:49:17,622788
-2,0,-1,-6,-5,0,-3,-1,2021-08-07 11:49:17,622788
-1,-1,-4,-4,-11,-7,-4,-3,2021-08-07 11:49:17,655787
-4,-3,-4,-14,-13,-7,-2,-2,2021-08-07 11:49:17,671788
2,5,11,22,18,7,3,2,2021-08-07 11:49:17,671788
-1,-2,-4,-14,-6,-5,-2,-4,2021-08-07 11:49:17,671788
0,2,3,17,10,4,1,1,2021-08-07 11:49:17,671788
0,0,0,5,3,0,0,-1,2021-08-07 11:49:17,671788
-3,-2,-6,-12,4,0,-2,-3,2021-08-07 11:49:17,671788
-3,-4,-4,-7,-10,-5,-3,-3,2021-08-07 11:49:17,671788
-3,-3,-5,-10,-21,-12,-7,-3,2021-08-07 11:49:17,687788
-3,1,-1,6,11,5,1,1,2021-08-07 11:49:17,702787
-2,-2,-2,-1,1,-1,-2,-1,2021-08-07 11:49:17,718791
2,-1,-2,-1,-7,-3,-1,-2,2021-08-07 11:49:17,718791
0,-1,0,-2,5,2,1,-1,2021-08-07 11:49:17,718791
0,0,0,1,-6,0,-2,-2,2021-08-07 11:49:17,718791
0,0,-2,1,0,0,-1,1,2021-08-07 11:49:17,718791
-1,-1,-2,-6,-11,-4,-1,-1,2021-08-07 11:49:17,718791
1,0,0,-4,-4,0,1,1,2021-08-07 11:49:17,718791
0,-1,0,6,8,1,1,0,2021-08-07 11:49:17,719789
-2,-1,1,5,13,6,3,-1,2021-08-07 11:49:17,719789
4,3,4,15,20,4,1,1,2021-08-07 11:49:17,719789
-2,-3,-6,-16,-16,-7,-4,-2,2021-08-07 11:49:17,750789
-1,-3,-6,-23,-23,-9,-2,-2,2021-08-07 11:49:17,766787
2,2,6,17,9,2,2,1,2021-08-07 11:49:17,782788
-1,-4,-2,2,-8,0,1,1,2021-08-07 11:49:17,798786
-1,-3,0,11,25,6,2,-2,2021-08-07 11:49:17,798786
-3,-4,-2,-7,-2,-3,-3,-4,2021-08-07 11:49:17,798786
0,1,2,4,3,1,-2,-2,2021-08-07 11:49:17,798786
-4,-1,-2,-1,-5,-3,-3,-3,2021-08-07 11:49:17,798786
0,1,0,-1,-9,-6,-3,-1,2021-08-07 11:49:17,798786
1,1,-1,-3,-2,0,1,0,2021-08-07 11:49:17,799788
0,0,-3,-6,-7,-4,-3,0,2021-08-07 11:49:17,799788
0,0,-1,2,-3,-1,0,0,2021-08-07 11:49:17,799788
-2,-3,-6,-15,-16,-8,-4,-1,2021-08-07 11:49:17,799788
4,4,6,19,33,17,6,3,2021-08-07 11:49:17,799788
2,1,4,4,5,2,3,0,2021-08-07 11:49:17,799788
1,1,0,7,16,6,1,0,2021-08-07 11:49:17,799788
0,1,1,3,-2,-1,0,0,2021-08-07 11:49:17,830786
-1,-4,-5,-4,-15,-7,-5,-4,2021-08-07 11:49:17,846788
-3,-4,-9,-12,3,3,-1,0,2021-08-07 11:49:17,846788
-2,-1,-2,-4,-10,-4,-1,0,2021-08-07 11:49:17,846788
0,0,4,6,3,0,0,0,2021-08-07 11:49:17,846788
-5,-4,-4,-18,-30,-12,-5,-4,2021-08-07 11:49:17,846788
0,-1,1,15,33,10,2,-1,2021-08-07 11:49:17,846788
-1,1,1,6,8,1,0,0,2021-08-07 11:49:17,846788
-2,0,-2,-2,-6,-1,-2,-2,2021-08-07 11:49:17,878788
-2,-1,-3,-6,-12,-7,-5,-2,2021-08-07 11:49:17,894787
1,-2,-2,-5,-14,-6,-2,0,2021-08-07 11:49:17,910788
0,-1,0,0,8,6,0,-1,2021-08-07 11:49:17,926787
-3,-2,-3,-11,-26,-11,-3,-3,2021-08-07 11:49:17,941788
0,1,2,14,33,10,1,0,2021-08-07 11:49:17,941788
2,2,5,9,4,1,1,0,2021-08-07 11:49:17,941788
-3,-3,-1,-1,2,0,-1,-1,2021-08-07 11:49:17,941788
-1,-1,-5,-20,-24,-11,-4,0,2021-08-07 11:49:17,941788
-2,-3,-6,1,11,4,0,-1,2021-08-07 11:49:17,941788
1,3,4,5,2,4,1,1,2021-08-07 11:49:17,942790
0,0,3,4,7,-1,-1,-2,2021-08-07 11:49:17,942790
-4,-5,-4,-7,-7,-1,-1,-2,2021-08-07 11:49:17,942790
3,3,6,13,18,6,2,4,2021-08-07 11:49:17,942790
-2,-4,-7,-13,-23,-11,-3,-3,2021-08-07 11:49:17,942790
0,0,-1,-1,0,0,1,2,2021-08-07 11:49:17,942790
2,-1,2,7,13,4,2,1,2021-08-07 11:49:17,942790
1,1,0,-2,-1,0,-1,0,2021-08-07 11:49:17,942790
1,-3,-1,0,-7,-3,-3,-2,2021-08-07 11:49:17,943788
-1,-3,-2,-7,-7,-4,-1,-2,2021-08-07 11:49:17,943788
-1,-1,-2,5,5,2,0,0,2021-08-07 11:49:17,973788
-3,-3,-4,-14,-18,-8,-1,-2,2021-08-07 11:49:17,989788
-3,-3,-5,-13,-10,-7,-5,-2,2021-08-07 11:49:18,006036
3,6,11,25,15,8,4,4,2021-08-07 11:49:18,021300
3,2,3,10,24,9,0,1,2021-08-07 11:49:18,037300
2,0,2,9,3,1,0,-1,2021-08-07 11:49:18,037300
-3,-4,-4,-13,-19,-6,-3,-1,2021-08-07 11:49:18,037300
-3,-3,-6,-12,-5,-4,-2,-3,2021-08-07 11:49:18,037300
1,1,1,4,2,1,0,-1,2021-08-07 11:49:18,037300
-1,-1,-3,-9,0,-1,-1,-1,2021-08-07 11:49:18,037300
-3,-2,0,6,4,1,1,-3,2021-08-07 11:49:18,038301
-1,-1,0,0,-7,-2,-2,-1,2021-08-07 11:49:18,038301
0,2,6,10,23,8,5,3,2021-08-07 11:49:18,038301
-4,-4,-10,-20,-24,-10,-5,-4,2021-08-07 11:49:18,038301
-2,1,2,3,-6,-5,-1,0,2021-08-07 11:49:18,038301
-1,-1,0,4,8,3,1,0,2021-08-07 11:49:18,038301
-2,-3,-4,-5,-9,-2,-2,-4,2021-08-07 11:49:18,044300
0,0,2,2,2,-3,-2,-1,2021-08-07 11:49:18,044300
-2,-1,-1,-4,-5,-2,-1,0,2021-08-07 11:49:18,044300
