EMG 1,EMG 2,EMG 3,EMG 4,EMG 5,EMG 6,EMG 7,EMG 8,Timestamp,Milliseconds
-2,-4,-2,0,-2,-2,-1,-2,2021-08-07 12:14:44,822384
0,1,0,0,-1,2,-1,0,2021-08-07 12:14:44,837379
-4,-3,-4,-5,-5,-3,-4,-3,2021-08-07 12:14:44,852425
1,1,-3,-4,-1,-1,0,0,2021-08-07 12:14:44,852425
1,0,2,3,1,2,1,1,2021-08-07 12:14:44,852425
-1,-1,-2,1,1,-1,0,-1,2021-08-07 12:14:44,852425
-1,-2,-1,-6,-7,-5,-3,0,2021-08-07 12:14:44,852425
-2,-1,1,-2,-1,0,-1,-4,2021-08-07 12:14:44,852425
-3,1,-2,2,1,1,0,-1,2021-08-07 12:14:44,852425
3,4,9,9,9,4,3,2,2021-08-07 12:14:44,853382
1,0,-3,0,0,-1,0,0,2021-08-07 12:14:44,853382
-2,-3,-3,-5,-4,-4,-3,-3,2021-08-07 12:14:44,853382
-2,-1,-3,-5,-4,-4,-2,-1,2021-08-07 12:14:44,853382
-2,-4,-4,-7,-9,-6,-2,-2,2021-08-07 12:14:44,853382
3,7,7,17,18,11,5,5,2021-08-07 12:14:44,853382
-1,-4,-4,-3,-3,-2,-2,-4,2021-08-07 12:14:44,853382
-1,0,-3,-7,-4,0,0,0,2021-08-07 12:14:44,853382
-5,-5,-4,-2,-4,-3,-4,-3,2021-08-07 12:14:44,853382
1,2,4,8,7,3,3,0,2021-08-07 12:14:44,868408
1,-1,-1,-3,-2,-1,0,-1,2021-08-07 12:14:44,868408
-2,-2,-3,-5,-7,-5,-4,-2,2021-08-07 12:14:44,884416
0,2,1,-2,-4,-2,1,1,2021-08-07 12:14:44,900407
1,2,1,3,3,1,1,-1,2021-08-07 12:14:44,916409
2,0,0,5,5,2,0,1,2021-08-07 12:14:44,916409
-1,-1,-2,1,-2,0,-1,0,2021-08-07 12:14:44,916409
-1,-3,-2,-4,1,-1,0,-2,2021-08-07 12:14:44,916409
-2,-3,-4,-5,-6,-4,-4,-3,2021-08-07 12:14:44,916409
-4,-3,-4,-9,-11,-6,-3,-2,2021-08-07 12:14:44,932419
3,3,5,11,12,7,2,2,2021-08-07 12:14:44,932419
0,-1,-1,-5,-5,-1,0,-1,2021-08-07 12:14:44,932419
-1,1,1,5,4,-1,-1,0,2021-08-07 12:14:44,932419
2,1,2,5,6,4,0,0,2021-08-07 12:14:44,932419
-2,-2,-3,-6,-5,-3,-3,-2,2021-08-07 12:14:44,932419
-1,1,-3,-7,-8,-4,-3,-2,2021-08-07 12:14:44,932419
2,1,3,9,9,5,0,1,2021-08-07 12:14:44,948420
-3,-2,-2,-6,-7,-5,-3,-3,2021-08-07 12:14:44,948420
1,-2,-3,-8,-2,0,1,1,2021-08-07 12:14:44,964420
3,4,6,12,7,4,2,1,2021-08-07 12:14:44,980380
-3,-6,-4,-5,-3,-3,-2,-4,2021-08-07 12:14:44,997423
0,-1,-1,-2,1,0,-1,0,2021-08-07 12:14:44,997423
0,-1,-1,1,0,0,1,0,2021-08-07 12:14:44,997423
-2,-4,-4,-7,-6,-5,-3,-2,2021-08-07 12:14:44,998419
-2,-2,-1,6,4,1,0,0,2021-08-07 12:14:44,998419
2,4,6,12,7,3,4,4,2021-08-07 12:14:44,998419
-1,-2,-2,-3,-5,-3,-2,-3,2021-08-07 12:14:45,012383
-1,-2,-3,-6,-3,-3,-1,-1,2021-08-07 12:14:45,012383
-1,-2,-4,-9,-6,-6,-3,-3,2021-08-07 12:14:45,012383
-2,-5,-6,-9,-8,-2,-2,0,2021-08-07 12:14:45,012383
0,1,4,7,5,3,1,0,2021-08-07 12:14:45,027381
-2,0,-1,2,0,-2,-1,-1,2021-08-07 12:14:45,042416
-1,-2,0,-3,6,2,1,-1,2021-08-07 12:14:45,058408
-2,0,-3,-6,-4,-2,-1,-1,2021-08-07 12:14:45,058408
0,0,2,0,2,1,1,0,2021-08-07 12:14:45,058408
-2,-3,-2,0,-5,-4,-2,-1,2021-08-07 12:14:45,058408
0,-2,-2,-2,-1,1,1,-1,2021-08-07 12:14:45,058408
0,2,-2,-5,-3,-2,0,-3,2021-08-07 12:14:45,058408
-1,0,2,1,-1,0,-1,1,2021-08-07 12:14:45,074407
-5,-6,-8,-9,-4,-3,-3,-4,2021-08-07 12:14:45,090384
1,2,-2,-7,-4,-1,-1,0,2021-08-07 12:14:45,106382
1,3,3,10,8,4,2,1,2021-08-07 12:14:45,106382
1,0,-2,-8,-6,-3,-1,-2,2021-08-07 12:14:45,106382
1,0,4,11,6,2,0,1,2021-08-07 12:14:45,106382
-3,-3,-5,-7,-9,-5,-2,-2,2021-08-07 12:14:45,106382
-2,-3,-3,-8,-8,-4,-2,-2,2021-08-07 12:14:45,106382
0,0,0,0,6,3,1,-1,2021-08-07 12:14:45,106382
2,2,2,4,5,2,1,2,2021-08-07 12:14:45,107384
2,2,1,-1,-2,1,0,0,2021-08-07 12:14:45,107384
-1,-4,-2,-1,-3,-3,-2,-1,2021-08-07 12:14:45,107384
-2,-1,-3,-10,-9,-5,-4,-1,2021-08-07 12:14:45,137381
0,0,-1,0,-3,-2,-2,-1,2021-08-07 12:14:45,137381
-2,-2,0,8,7,3,-1,-1,2021-08-07 12:14:45,137381
1,-1,0,-1,0,-3,-1,-1,2021-08-07 12:14:45,137381
3,6,6,3,0,-1,1,2,2021-08-07 12:14:45,153402
-1,-2,-3,-4,0,0,-1,-1,2021-08-07 12:14:45,153402
-4,-3,-3,-8,-12,-6,-3,-3,2021-08-07 12:14:45,153402
0,-2,1,8,10,6,1,1,2021-08-07 12:14:45,153402
-4,-4,-5,0,-1,-2,-1,-2,2021-08-07 12:14:45,185380
-1,-1,-2,-2,0,0,-1,0,2021-08-07 12:14:45,201397
-3,-2,-2,-6,-9,-7,-3,-3,2021-08-07 12:14:45,217381
-2,-1,-2,2,1,-1,0,-3,2021-08-07 12:14:45,217381
0,2,2,2,2,1,1,0,2021-08-07 12:14:45,217381
-4,-2,-2,-5,-4,-2,-3,-3,2021-08-07 12:14:45,217381
-2,0,-2,-4,-1,0,1,1,2021-08-07 12:14:45,217381
-3,-4,-7,-14,-11,-7,-3,-3,2021-08-07 12:14:45,217381
1,1,6,13,5,3,1,0,2021-08-07 12:14:45,217381
0,1,5,6,9,6,2,1,2021-08-07 12:14:45,218385
0,-3,0,2,4,3,1,0,2021-08-07 12:14:45,218385
-4,-3,2,1,-3,-3,-3,-3,2021-08-07 12:14:45,218385
2,1,-4,-6,-5,-2,0,1,2021-08-07 12:14:45,233381
-1,-4,0,-6,-8,-5,-2,-3,2021-08-07 12:14:45,249410
2,3,1,-2,2,1,2,1,2021-08-07 12:14:45,265409
0,2,4,3,2,2,-1,2,2021-08-07 12:14:45,265409
-5,-7,-8,-11,-10,-7,-5,-6,2021-08-07 12:14:45,265409
-1,-2,-2,2,3,-1,-1,0,2021-08-07 12:14:45,265409
-4,-3,-5,-11,-14,-8,-4,-1,2021-08-07 12:14:45,265409
1,0,0,6,13,5,2,2,2021-08-07 12:14:45,281382
0,0,3,9,11,5,0,0,2021-08-07 12:14:45,281382
3,3,-1,-1,0,2,0,2,2021-08-07 12:14:45,281382
-1,-2,0,-1,-3,-2,-1,-3,2021-08-07 12:14:45,281382
-4,-4,-6,-10,-15,-7,-3,-3,2021-08-07 12:14:45,281382
-1,0,-2,-1,7,3,0,1,2021-08-07 12:14:45,297382
1,1,1,-4,0,0,-1,-2,2021-08-07 12:14:45,313423
2,3,6,8,7,1,0,1,2021-08-07 12:14:45,313423
-2,0,0,1,1,-1,-1,-2,2021-08-07 12:14:45,313423
-4,-5,-5,-10,-11,-7,-4,-4,2021-08-07 12:14:45,313423
-5,-7,-6,-7,-10,-7,-5,-5,2021-08-07 12:14:45,313423
1,1,0,-1,5,2,3,2,2021-08-07 12:14:45,313423
1,2,4,8,4,2,1,2,2021-08-07 12:14:45,313423
1,0,0,2,1,1,0,-3,2021-08-07 12:14:45,329408
-1,0,1,3,0,1,-2,1,2021-08-07 12:14:45,329408
-1,-4,-2,1,-3,-2,-2,-2,2021-08-07 12:14:45,329408
-1,-1,-3,-3,-1,-1,1,-1,2021-08-07 12:14:45,329408
4,4,1,-5,-8,-2,0,3,2021-08-07 12:14:45,360385
-1,-1,-2,2,-3,-2,-1,-1,2021-08-07 12:14:45,360385
-3,-5,-5,-5,7,4,0,-2,2021-08-07 12:14:45,360385
0,1,4,13,13,6,1,-3,2021-08-07 12:14:45,360385
-3,-1,2,1,-1,-1,-2,-2,2021-08-07 12:14:45,360385
-7,-5,-3,-5,-6,-6,-5,-7,2021-08-07 12:14:45,361382
0,1,0,1,-6,-4,-4,-1,2021-08-07 12:14:45,376381
-1,-2,-4,-9,-7,-3,-2,0,2021-08-07 12:14:45,376381
1,-1,0,1,7,0,1,1,2021-08-07 12:14:45,392381
4,3,3,9,4,1,2,1,2021-08-07 12:14:45,407409
-1,-3,-3,-4,-6,-3,-2,-1,2021-08-07 12:14:45,407409
1,-1,-2,-3,-6,-2,-2,-1,2021-08-07 12:14:45,407409
-3,-4,-5,-5,-6,-3,-3,-3,2021-08-07 12:14:45,407409
0,-1,-1,0,-2,0,0,0,2021-08-07 12:14:45,407409
-1,1,3,5,3,3,0,0,2021-08-07 12:14:45,407409
2,-1,0,-2,-2,-2,-1,0,2021-08-07 12:14:45,407409
-2,-1,-2,-8,-7,-3,-2,-2,2021-08-07 12:14:45,437384
0,0,-1,0,3,2,0,-1,2021-08-07 12:14:45,437384
1,2,2,5,0,-1,-1,-1,2021-08-07 12:14:45,437384
-1,-1,-4,-6,-4,-3,-3,-2,2021-08-07 12:14:45,438411
-1,-3,-3,1,0,-3,-1,-2,2021-08-07 12:14:45,455382
-3,-2,-1,-1,1,0,0,2,2021-08-07 12:14:45,455382
-1,-1,-3,-3,-4,-5,-2,-2,2021-08-07 12:14:45,455382
0,1,-1,-3,0,0,-1,1,2021-08-07 12:14:45,455382
-4,-2,-1,0,0,-2,-2,-2,2021-08-07 12:14:45,471381
1,2,1,-1,-2,0,1,0,2021-08-07 12:14:45,486384
1,0,1,0,-1,0,0,0,2021-08-07 12:14:45,486384
-1,0,-1,0,-1,-1,1,0,2021-08-07 12:14:45,486384
-3,-3,-2,-1,-3,-2,-2,-2,2021-08-07 12:14:45,486384
-3,-4,-5,-7,-7,-4,-3,-2,2021-08-07 12:14:45,486384
0,1,4,7,8,6,3,0,2021-08-07 12:14:45,487383
2,1,2,1,0,0,1,1,2021-08-07 12:14:45,487383
-1,-2,-2,0,0,-2,-1,-1,2021-08-07 12:14:45,517421
-1,-2,-4,-9,-9,-5,-4,-2,2021-08-07 12:14:45,533381
-1,-2,-4,-7,-6,-3,-3,-2,2021-08-07 12:14:45,533381
-3,-2,2,5,3,1,-1,-1,2021-08-07 12:14:45,533381
-1,-1,2,10,10,4,2,0,2021-08-07 12:14:45,533381
-1,-3,-3,2,2,-1,-1,-2,2021-08-07 12:14:45,533381
2,4,0,-2,-1,0,0,1,2021-08-07 12:14:45,533381
-1,-3,-2,-3,-6,-4,-3,-2,2021-08-07 12:14:45,533381
0,-1,-2,-8,-6,-3,-3,-1,2021-08-07 12:14:45,565384
1,1,0,-2,-4,-2,-1,1,2021-08-07 12:14:45,565384
-1,-1,1,6,9,4,0,1,2021-08-07 12:14:45,565384
-2,-2,-3,-3,-1,0,-2,-2,2021-08-07 12:14:45,565384
2,2,3,1,-1,1,0,2,2021-08-07 12:14:45,565384
-2,-1,-3,-5,-1,-2,-2,-1,2021-08-07 12:14:45,565384
2,2,3,4,-1,-1,1,2,2021-08-07 12:14:45,566383
2,0,-1,0,3,3,2,2,2021-08-07 12:14:45,566383
-2,2,2,4,5,3,1,-3,2021-08-07 12:14:45,596383
-2,-2,-1,-1,-2,-1,-1,-1,2021-08-07 12:14:45,596383
-5,-8,-9,-12,-11,-8,-6,-3,2021-08-07 12:14:45,596383
-5,-2,-2,-6,-6,-3,-4,-3,2021-08-07 12:14:45,596383
-1,-1,-4,-5,-2,-3,-2,0,2021-08-07 12:14:45,611389
1,2,6,9,13,8,3,2,2021-08-07 12:14:45,627381
-1,-3,-1,-4,-5,-2,-4,-4,2021-08-07 12:14:45,627381
2,2,2,5,2,3,1,1,2021-08-07 12:14:45,627381
0,1,3,2,-1,-1,-1,0,2021-08-07 12:14:45,627381
0,0,1,6,1,1,0,0,2021-08-07 12:14:45,627381
-2,-4,-3,-1,-2,-2,-3,-1,2021-08-07 12:14:45,627381
-1,-1,-3,-2,-2,-3,0,-2,2021-08-07 12:14:45,627381
0,-2,-3,-1,-3,-3,-1,-2,2021-08-07 12:14:45,658379
2,2,3,2,2,2,1,1,2021-08-07 12:14:45,658379
-3,-3,-2,-3,-4,-3,0,-2,2021-08-07 12:14:45,658379
-3,-1,-4,-4,-1,-1,-2,-1,2021-08-07 12:14:45,658379
-1,-3,-2,-4,-9,-4,-2,-1,2021-08-07 12:14:45,658379
-3,-3,-7,-13,-11,-5,-4,-3,2021-08-07 12:14:45,659382
4,5,9,30,28,13,8,3,2021-08-07 12:14:45,674379
3,1,4,11,7,2,2,0,2021-08-07 12:14:45,674379
-1,-2,-3,0,1,1,0,-2,2021-08-07 12:14:45,690380
-4,-6,-7,-13,-16,-9,-6,-2,2021-08-07 12:14:45,690380
-1,-1,-4,-8,-8,-4,-4,0,2021-08-07 12:14:45,690380
-2,-1,0,-2,1,-1,-2,1,2021-08-07 12:14:45,690380
2,0,-1,-1,2,2,0,1,2021-08-07 12:14:45,721380
-1,-3,0,4,2,-1,-1,-2,2021-08-07 12:14:45,721380
-3,-2,-3,-8,-5,-4,-3,-2,2021-08-07 12:14:45,721380
1,1,0,0,-2,-2,0,0,2021-08-07 12:14:45,721380
-2,-1,-3,-3,-1,0,-1,0,2021-08-07 12:14:45,721380
1,0,-2,-2,0,-1,0,0,2021-08-07 12:14:45,721380
-2,-1,2,0,-2,-1,0,-1,2021-08-07 12:14:45,737381
1,-1,-1,-5,-3,1,0,0,2021-08-07 12:14:45,737381
1,1,1,4,0,1,-1,0,2021-08-07 12:14:45,753380
-4,-4,-2,-1,1,-1,-2,-2,2021-08-07 12:14:45,769384
1,1,1,0,-2,-2,-1,-1,2021-08-07 12:14:45,769384
-1,-2,-7,-12,-7,-2,-3,-1,2021-08-07 12:14:45,769384
-2,-2,0,7,7,4,0,-1,2021-08-07 12:14:45,769384
0,2,0,-2,0,0,1,-2,2021-08-07 12:14:45,769384
0,-1,0,5,1,0,-1,-2,2021-08-07 12:14:45,769384
0,0,2,1,-4,-1,-3,0,2021-08-07 12:14:45,769384
0,-1,-3,-4,-6,-5,-2,0,2021-08-07 12:14:45,784408
-2,-1,-5,-9,-10,-5,-3,0,2021-08-07 12:14:45,784408
-1,0,2,7,17,10,3,1,2021-08-07 12:14:45,800423
-3,-4,0,2,0,-2,-2,-3,2021-08-07 12:14:45,800423
1,2,2,-1,-3,0,0,-1,2021-08-07 12:14:45,816381
-2,-4,-7,-12,-18,-8,-4,-3,2021-08-07 12:14:45,832382
2,2,1,-1,5,1,1,1,2021-08-07 12:14:45,832382
-1,-2,4,13,9,1,0,-2,2021-08-07 12:14:45,832382
-3,-4,-4,-8,-6,-6,-2,-2,2021-08-07 12:14:45,832382
0,0,4,9,8,4,1,0,2021-08-07 12:14:45,832382
-2,-2,-4,-11,-11,-5,-3,-2,2021-08-07 12:14:45,832382
-3,-2,-2,-3,1,-2,-2,-3,2021-08-07 12:14:45,832382
-1,-3,-2,-5,-1,-2,-1,0,2021-08-07 12:14:45,864421
1,-1,-1,-2,1,1,-3,-1,2021-08-07 12:14:45,864421
-1,-3,-4,-6,-11,-3,-1,0,2021-08-07 12:14:45,864421
0,1,1,2,-3,-1,-1,-1,2021-08-07 12:14:45,864421
-2,-1,-2,-1,6,2,0,-2,2021-08-07 12:14:45,880383
0,2,3,7,5,1,0,1,2021-08-07 12:14:45,896408
-1,-1,-4,-7,-8,-3,-1,-1,2021-08-07 12:14:45,896408
1,5,-4,-9,-5,-2,1,1,2021-08-07 12:14:45,896408
1,1,2,6,4,0,0,-1,2021-08-07 12:14:45,896408
-2,-2,-1,-3,-1,-1,-1,-1,2021-08-07 12:14:45,896408
-2,-2,2,5,-4,-2,1,-3,2021-08-07 12:14:45,896408
1,1,1,2,5,1,1,0,2021-08-07 12:14:45,896408
-2,0,-1,-1,-3,-1,-2,-2,2021-08-07 12:14:45,906381
0,0,-1,-1,3,1,1,0,2021-08-07 12:14:45,907412
-1,-1,-4,-8,-9,-4,-2,-1,2021-08-07 12:14:45,927409
-1,-2,-3,-5,-4,-2,0,0,2021-08-07 12:14:45,927409
1,-1,-3,-4,-6,-3,-2,0,2021-08-07 12:14:45,943381
-1,-1,0,4,6,3,1,0,2021-08-07 12:14:45,943381
1,1,1,1,-1,-1,1,1,2021-08-07 12:14:45,943381
-2,-3,-6,-9,-6,-2,-1,-1,2021-08-07 12:14:45,943381
-2,-1,-1,4,2,0,-2,-2,2021-08-07 12:14:45,943381
2,3,3,3,1,1,1,1,2021-08-07 12:14:45,943381
3,2,1,0,2,3,2,2,2021-08-07 12:14:45,959381
-1,-3,-3,-4,-5,-4,-1,-4,2021-08-07 12:14:45,959381
-3,-5,-4,-5,-2,-4,-2,-3,2021-08-07 12:14:45,975381
0,-2,4,11,9,3,1,-1,2021-08-07 12:14:45,975381
1,1,1,1,-1,-2,-1,1,2021-08-07 12:14:45,975381
1,3,5,7,3,3,1,1,2021-08-07 12:14:45,975381
-3,-4,-5,-8,-9,-4,-3,-3,2021-08-07 12:14:46,007384
0,2,0,1,4,0,2,-3,2021-08-07 12:14:46,023408
1,0,0,-1,-2,-1,-1,-2,2021-08-07 12:14:46,039382
-2,-5,-4,-8,-9,-4,-1,-1,2021-08-07 12:14:46,039382
2,1,2,3,2,1,1,2,2021-08-07 12:14:46,039382
-4,-6,-3,-3,-2,-3,-2,-2,2021-08-07 12:14:46,055409
2,3,5,5,8,4,1,2,2021-08-07 12:14:46,055409
-2,-1,-1,-1,-8,-4,-2,-1,2021-08-07 12:14:46,055409
-2,-1,-1,-5,2,2,1,-1,2021-08-07 12:14:46,055409
0,0,2,6,2,2,1,2,2021-08-07 12:14:46,055409
-3,-2,-3,3,2,-1,-2,-3,2021-08-07 12:14:46,055409
2,3,5,12,10,5,1,1,2021-08-07 12:14:46,056383
1,2,3,-3,-6,-1,0,1,2021-08-07 12:14:46,056383
-2,-2,-6,-10,-9,-4,-3,-1,2021-08-07 12:14:46,056383
-4,-8,-4,-6,-2,-5,-4,-4,2021-08-07 12:14:46,056383
4,3,0,0,-3,-1,1,3,2021-08-07 12:14:46,056383
-3,-6,-5,0,3,0,-3,-3,2021-08-07 12:14:46,071421
0,0,-2,-6,-6,-1,-2,-2,2021-08-07 12:14:46,087383
-2,2,2,2,3,2,-3,-4,2021-08-07 12:14:46,087383
-4,-3,0,-1,1,-2,-3,-3,2021-08-07 12:14:46,087383
-3,0,-2,-5,-6,-6,-4,-2,2021-08-07 12:14:46,087383
0,0,0,4,3,-1,-1,0,2021-08-07 12:14:46,087383
0,-3,-3,-5,-8,-5,-3,-2,2021-08-07 12:14:46,087383
1,-1,-6,-14,-12,-6,-3,1,2021-08-07 12:14:46,088383
5,4,8,17,14,11,6,3,2021-08-07 12:14:46,119408
-1,-2,1,5,10,5,0,0,2021-08-07 12:14:46,135409
0,-1,-1,-1,-3,-2,-1,0,2021-08-07 12:14:46,135409
0,-3,-3,-2,-2,-1,-1,-1,2021-08-07 12:14:46,135409
-3,-5,-3,-2,-3,-3,-2,-4,2021-08-07 12:14:46,135409
2,-1,-2,-4,-4,-1,0,-1,2021-08-07 12:14:46,135409
-2,-4,-4,-4,-3,-4,-4,-3,2021-08-07 12:14:46,135409
0,2,0,4,6,2,0,-1,2021-08-07 12:14:46,135409
-3,-3,-6,-10,-9,-4,-3,0,2021-08-07 12:14:46,151381
0,2,4,6,5,2,1,0,2021-08-07 12:14:46,151381
-1,-2,-2,2,3,-1,0,-1,2021-08-07 12:14:46,151381
-3,-2,-2,-2,1,0,-1,-2,2021-08-07 12:14:46,151381
-1,0,-1,1,-1,-1,-2,-3,2021-08-07 12:14:46,199383
-3,-4,-7,-13,-13,-7,-2,-4,2021-08-07 12:14:46,199383
-2,-2,-3,2,-1,-1,2,0,2021-08-07 12:14:46,199383
1,2,3,4,8,4,0,1,2021-08-07 12:14:46,199383
2,2,7,10,11,5,2,2,2021-08-07 12:14:46,199383
-1,0,-1,-3,-5,-3,-2,-1,2021-08-07 12:14:46,200381
-1,0,-2,-6,-5,-2,-2,1,2021-08-07 12:14:46,200381
1,-1,1,2,-1,0,1,-1,2021-08-07 12:14:46,200381
-2,-2,-3,-5,-4,-1,-3,-2,2021-08-07 12:14:46,215421
-1,-1,1,0,0,-1,-1,2,2021-08-07 12:14:46,231398
-1,0,-2,-7,-5,-3,-1,-1,2021-08-07 12:14:46,231398
-4,-6,-4,-3,-1,-1,-2,-3,2021-08-07 12:14:46,247382
-2,2,1,-1,-1,0,0,0,2021-08-07 12:14:46,247382
-1,0,0,0,-2,0,-1,1,2021-08-07 12:14:46,247382
2,1,1,-1,2,2,0,0,2021-08-07 12:14:46,247382
0,0,0,2,2,2,0,-1,2021-08-07 12:14:46,247382
0,-2,1,1,1,0,-2,-2,2021-08-07 12:14:46,247382
-3,-4,-2,0,0,1,-2,-1,2021-08-07 12:14:46,248381
-1,0,-4,-7,-6,-3,-1,0,2021-08-07 12:14:46,263425
-1,2,-2,-7,-7,-5,-3,0,2021-08-07 12:14:46,263425
0,0,-3,3,0,0,0,2,2021-08-07 12:14:46,294384
3,3,2,7,6,3,3,-1,2021-08-07 12:14:46,294384
-2,1,2,5,5,4,0,-2,2021-08-07 12:14:46,294384
1,1,1,1,1,2,1,1,2021-08-07 12:14:46,294384
-3,-5,-8,-12,-11,-6,-4,-3,2021-08-07 12:14:46,294384
2,4,3,3,2,0,-2,1,2021-08-07 12:14:46,294384
1,-2,-1,1,0,0,1,0,2021-08-07 12:14:46,294384
-2,-2,-1,-5,-3,-3,-1,-2,2021-08-07 12:14:46,295409
-2,-1,-3,-3,-1,-2,-1,0,2021-08-07 12:14:46,310383
-2,-4,-5,-1,-2,-2,-2,-2,2021-08-07 12:14:46,310383
-2,0,-1,-2,-3,-3,-1,-2,2021-08-07 12:14:46,326379
-1,-1,0,2,3,1,0,0,2021-08-07 12:14:46,326379
4,5,4,4,8,4,2,2,2021-08-07 12:14:46,342409
-4,-2,-1,-5,-1,-3,0,-1,2021-08-07 12:14:46,358407
0,1,3,4,1,1,0,-2,2021-08-07 12:14:46,358407
-3,-7,-6,-3,-6,-4,-4,-2,2021-08-07 12:14:46,358407
-1,-2,-1,-2,-3,0,1,1,2021-08-07 12:14:46,358407
-2,-3,-6,-10,-11,-8,-3,-3,2021-08-07 12:14:46,358407
-2,-3,-2,-9,-4,-2,-3,-1,2021-08-07 12:14:46,358407
1,1,4,14,17,6,4,0,2021-08-07 12:14:46,359382
-2,-3,-4,-4,-7,-4,-4,-4,2021-08-07 12:14:46,374383
-1,-2,-1,-1,1,1,0,-1,2021-08-07 12:14:46,374383
-4,-5,-7,-11,-10,-8,-5,-5,2021-08-07 12:14:46,374383
-2,0,2,1,3,1,2,-1,2021-08-07 12:14:46,374383
1,0,0,-3,-3,-1,0,0,2021-08-07 12:14:46,406409
0,-1,-1,-1,-3,-3,-1,-1,2021-08-07 12:14:46,422383
0,0,-1,0,5,2,-1,1,2021-08-07 12:14:46,422383
0,0,-1,-2,-4,-1,0,-1,2021-08-07 12:14:46,422383
-3,-1,-3,-2,-3,-3,-2,-3,2021-08-07 12:14:46,438422
1,1,-1,-1,0,2,0,3,2021-08-07 12:14:46,438422
-3,-4,-2,0,-3,-3,-1,0,2021-08-07 12:14:46,438422
4,5,3,3,3,2,0,1,2021-08-07 12:14:46,438422
-3,-3,1,3,1,-3,-2,0,2021-08-07 12:14:46,438422
-2,-2,1,2,3,3,2,0,2021-08-07 12:14:46,439382
1,-1,-2,2,0,1,0,1,2021-08-07 12:14:46,439382
-2,-1,-3,-3,-6,-3,-2,-1,2021-08-07 12:14:46,439382
-1,-4,-6,-8,-8,-4,-4,-2,2021-08-07 12:14:46,454409
2,1,2,6,2,1,0,1,2021-08-07 12:14:46,454409
1,0,2,3,3,1,-1,-1,2021-08-07 12:14:46,454409
-3,-3,-5,-4,-5,-2,-1,-2,2021-08-07 12:14:46,454409
0,0,0,-3,-1,-1,-1,0,2021-08-07 12:14:46,486408
-1,-2,-2,-2,1,1,0,0,2021-08-07 12:14:46,486408
3,5,3,0,0,2,3,3,2021-08-07 12:14:46,486408
-2,-2,0,5,4,1,-1,-2,2021-08-07 12:14:46,486408
0,-2,-3,-4,-3,-2,-2,-4,2021-08-07 12:14:46,501381
-2,-2,-2,-1,-2,-2,-1,-2,2021-08-07 12:14:46,501381
3,3,0,-2,-2,0,2,2,2021-08-07 12:14:46,501381
2,3,5,11,12,5,3,2,2021-08-07 12:14:46,501381
-1,-2,0,0,-3,-2,-1,-1,2021-08-07 12:14:46,517383
-2,-4,-2,0,1,-1,-3,-3,2021-08-07 12:14:46,533406
-5,-5,-4,-5,-5,-4,-3,-3,2021-08-07 12:14:46,533406
1,2,1,-7,-11,-6,-3,1,2021-08-07 12:14:46,533406
1,2,3,11,14,6,3,1,2021-08-07 12:14:46,533406
1,0,1,2,-1,-1,2,0,2021-08-07 12:14:46,533406
-1,0,1,5,4,3,1,1,2021-08-07 12:14:46,533406
-2,-3,-2,-3,-3,-1,-2,-3,2021-08-07 12:14:46,533406
-1,-1,-3,-6,-10,-5,-2,0,2021-08-07 12:14:46,565410
-4,-1,-1,-3,-5,-2,-2,0,2021-08-07 12:14:46,581382
3,3,4,3,3,4,1,1,2021-08-07 12:14:46,581382
-2,-4,-2,-7,-6,-4,-2,-4,2021-08-07 12:14:46,581382
0,-1,-1,-4,-4,-1,0,1,2021-08-07 12:14:46,581382
-1,-1,-1,-5,-3,-2,-2,-2,2021-08-07 12:14:46,581382
4,3,3,7,8,6,2,3,2021-08-07 12:14:46,581382
-4,-5,-3,-3,-4,-3,-3,-4,2021-08-07 12:14:46,581382
0,-1,0,3,0,0,-1,0,2021-08-07 12:14:46,597385
1,3,3,4,4,1,2,1,2021-08-07 12:14:46,597385
-1,-2,0,3,0,0,0,-2,2021-08-07 12:14:46,597385
0,-1,-2,-6,-9,-4,-1,0,2021-08-07 12:14:46,597385
-4,-4,-5,-5,1,-3,-2,-4,2021-08-07 12:14:46,628385
2,2,-2,-7,-4,-1,-1,1,2021-08-07 12:14:46,644422
0,0,1,4,4,0,1,0,2021-08-07 12:14:46,660380
-2,-4,-3,2,1,0,-1,-2,2021-08-07 12:14:46,675381
-3,-2,-3,-6,-8,-4,-3,-2,2021-08-07 12:14:46,675381
0,-1,-3,-5,-6,-4,-1,-2,2021-08-07 12:14:46,675381
-2,-5,-3,-3,-2,-3,-2,-2,2021-08-07 12:14:46,675381
-1,2,-3,-3,1,1,-1,-1,2021-08-07 12:14:46,675381
4,2,6,11,13,6,4,3,2021-08-07 12:14:46,676382
2,2,1,0,-1,-1,-1,-1,2021-08-07 12:14:46,676382
-5,-6,-6,-9,-13,-8,-4,-4,2021-08-07 12:14:46,676382
3,2,0,-4,2,3,2,2,2021-08-07 12:14:46,676382
0,1,1,-2,-2,0,2,1,2021-08-07 12:14:46,676382
-1,-5,0,8,2,1,-2,-4,2021-08-07 12:14:46,676382
2,2,2,0,3,0,1,-1,2021-08-07 12:14:46,676382
-6,-5,-8,-12,-10,-7,-4,-4,2021-08-07 12:14:46,677384
-2,-1,0,0,2,-2,1,-1,2021-08-07 12:14:46,707421
-1,1,0,1,-1,1,0,1,2021-08-07 12:14:46,707421
-1,1,0,4,3,1,-1,0,2021-08-07 12:14:46,707421
0,-3,-1,3,1,-1,-1,-1,2021-08-07 12:14:46,707421
-2,-4,-4,-5,-7,-4,-4,-3,2021-08-07 12:14:46,723409
-1,-1,-1,-4,-2,-2,0,0,2021-08-07 12:14:46,723409
1,2,0,2,-1,1,1,-1,2021-08-07 12:14:46,723409
-3,-4,-3,-6,-7,-5,-1,0,2021-08-07 12:14:46,723409
-1,-2,1,6,7,3,0,-2,2021-08-07 12:14:46,739409
1,-1,-2,-1,-1,0,0,0,2021-08-07 12:14:46,739409
-1,0,-1,-3,-3,-2,-1,0,2021-08-07 12:14:46,739409
-3,-3,-3,-2,-1,-2,-2,-2,2021-08-07 12:14:46,739409
-1,-1,-4,-5,-7,-3,-2,-2,2021-08-07 12:14:46,755408
-1,0,2,3,8,6,3,1,2021-08-07 12:14:46,755408
1,2,5,13,6,1,0,1,2021-08-07 12:14:46,755408
3,4,5,8,4,2,2,2,2021-08-07 12:14:46,755408
-6,-4,-6,-6,-9,-7,-5,-4,2021-08-07 12:14:46,787409
1,2,3,0,-2,-1,-2,-1,2021-08-07 12:14:46,803386
-4,-7,-5,-3,-2,-2,0,-1,2021-08-07 12:14:46,803386
0,0,0,-1,-1,-2,-1,1,2021-08-07 12:14:46,803386
0,-1,-1,0,0,2,1,2,2021-08-07 12:14:46,803386
-2,-4,-4,-4,0,-1,-2,-2,2021-08-07 12:14:46,803386
1,-1,-2,-6,-4,-1,-3,-2,2021-08-07 12:14:46,803386
0,-1,-2,-3,-4,-1,-2,-2,2021-08-07 12:14:46,803386
3,5,5,6,5,3,4,2,2021-08-07 12:14:46,819380
-2,-2,-1,0,3,0,0,-1,2021-08-07 12:14:46,827421
-3,-2,-5,-7,-6,-5,-5,-3,2021-08-07 12:14:46,828421
2,0,3,6,6,3,3,4,2021-08-07 12:14:46,828421
0,2,1,-3,-4,0,1,0,2021-08-07 12:14:46,835421
-2,-3,-4,-3,-3,-2,0,2,2021-08-07 12:14:46,850385
-3,-3,-5,-6,-4,-1,1,-1,2021-08-07 12:14:46,865381
-3,-5,-4,-1,-3,-3,0,-2,2021-08-07 12:14:46,881383
-1,2,2,-2,2,1,-1,-2,2021-08-07 12:14:46,881383
-3,0,5,8,4,0,-1,0,2021-08-07 12:14:46,897421
-1,3,2,-7,-6,-4,-3,-1,2021-08-07 12:14:46,897421
-2,-1,-6,-10,-5,-2,-4,-2,2021-08-07 12:14:46,897421
4,3,5,14,10,3,0,-1,2021-08-07 12:14:46,897421
1,-1,-4,-6,-5,-4,-1,-1,2021-08-07 12:14:46,897421
0,-3,-3,0,-2,0,-2,0,2021-08-07 12:14:46,897421
-2,-5,-3,-4,-2,-2,-2,-1,2021-08-07 12:14:46,898384
-2,-3,-6,-10,-12,-7,-4,-1,2021-08-07 12:14:46,898384
-1,-1,0,5,5,2,-1,0,2021-08-07 12:14:46,898384
0,0,5,12,17,8,5,0,2021-08-07 12:14:46,898384
1,3,0,-1,-4,0,1,0,2021-08-07 12:14:46,898384
-1,-2,-3,-3,-3,-3,-2,-3,2021-08-07 12:14:46,913382
0,0,-2,-4,-7,-2,0,-1,2021-08-07 12:14:46,913382
-2,-3,-5,-8,-6,-3,-3,-2,2021-08-07 12:14:46,913382
-2,0,0,-2,-2,-1,-2,0,2021-08-07 12:14:46,913382
-3,-3,-3,-2,-2,-3,-1,-3,2021-08-07 12:14:46,929410
2,4,5,9,8,3,2,0,2021-08-07 12:14:46,929410
1,0,1,-1,0,-2,0,0,2021-08-07 12:14:46,929410
-2,-1,1,2,0,0,-1,-2,2021-08-07 12:14:46,929410
-4,-4,-4,-3,-8,-2,-3,-3,2021-08-07 12:14:46,961382
0,-1,-2,-5,-5,-3,-1,-3,2021-08-07 12:14:46,961382
-2,-3,-6,-11,-10,-5,-3,-3,2021-08-07 12:14:46,961382
1,2,7,23,20,10,4,0,2021-08-07 12:14:46,961382
-1,0,-2,-5,-4,-4,-2,0,2021-08-07 12:14:46,977420
-1,-2,-1,1,4,1,1,0,2021-08-07 12:14:46,993384
-1,2,1,0,-4,-2,-2,1,2021-08-07 12:14:46,993384
-3,-6,-5,-9,-7,-6,-4,-3,2021-08-07 12:14:46,993384
-5,-6,-3,-3,-1,-1,-3,-3,2021-08-07 12:14:46,993384
5,7,3,4,4,4,3,5,2021-08-07 12:14:46,993384
0,-1,0,0,-1,-2,-1,-2,2021-08-07 12:14:46,993384
-4,-3,-4,-6,-4,-2,-1,-2,2021-08-07 12:14:46,994410
4,2,5,7,6,2,2,1,2021-08-07 12:14:47,025381
-3,-6,-4,-9,-11,-6,-4,-3,2021-08-07 12:14:47,025381
-1,-1,-1,3,2,-1,1,-1,2021-08-07 12:14:47,025381
0,1,-1,0,0,-3,-1,0,2021-08-07 12:14:47,025381
0,0,-1,0,1,0,1,1,2021-08-07 12:14:47,041379
-3,-2,-2,-1,1,-1,-1,-1,2021-08-07 12:14:47,041379
-2,-2,-5,-2,-5,-2,-1,-2,2021-08-07 12:14:47,041379
-3,-4,-2,-1,-1,-1,-3,-3,2021-08-07 12:14:47,041379
-1,1,-2,-2,1,0,0,1,2021-08-07 12:14:47,057408
-1,0,2,1,3,1,1,-1,2021-08-07 12:14:47,057408
-1,-2,1,2,1,-1,-1,-2,2021-08-07 12:14:47,057408
-2,-2,-3,-4,-6,-5,-3,-4,2021-08-07 12:14:47,057408
0,-1,-7,-5,-5,-3,-2,0,2021-08-07 12:14:47,089382
0,-2,1,1,0,-1,-1,-1,2021-08-07 12:14:47,089382
2,1,1,6,8,4,3,1,2021-08-07 12:14:47,089382
-3,-1,-3,-9,-7,-3,-2,-3,2021-08-07 12:14:47,089382
-1,-3,2,5,5,0,0,-1,2021-08-07 12:14:47,105420
1,2,1,3,3,0,1,0,2021-08-07 12:14:47,121384
-2,0,3,1,0,0,-2,1,2021-08-07 12:14:47,121384
2,2,0,-1,0,0,0,1,2021-08-07 12:14:47,121384
-2,0,-1,-1,-3,-2,-2,-2,2021-08-07 12:14:47,121384
-3,-3,-2,1,-2,0,-1,-1,2021-08-07 12:14:47,121384
0,-4,-6,-9,-7,-5,-2,-3,2021-08-07 12:14:47,121384
0,1,6,12,4,3,1,1,2021-08-07 12:14:47,121384
1,3,4,3,6,3,3,0,2021-08-07 12:14:47,136384
-1,-1,-1,-4,-3,-1,0,-1,2021-08-07 12:14:47,136384
0,0,2,2,1,1,0,0,2021-08-07 12:14:47,136384
-2,-3,-6,-11,-9,-5,-2,-4,2021-08-07 12:14:47,136384
-1,-3,-3,-2,-2,0,-1,1,2021-08-07 12:14:47,167383
1,1,-1,2,1,-1,-1,0,2021-08-07 12:14:47,167383
1,0,-1,0,0,0,0,1,2021-08-07 12:14:47,167383
2,3,2,-2,-1,0,1,0,2021-08-07 12:14:47,167383
-3,-5,-2,-5,-7,-3,-2,-1,2021-08-07 12:14:47,167383
-3,-4,-3,1,1,-1,-4,-3,2021-08-07 12:14:47,167383
1,2,1,0,2,1,-1,1,2021-08-07 12:14:47,183381
1,0,0,3,7,2,0,2,2021-08-07 12:14:47,199384
3,3,1,6,3,4,2,2,2021-08-07 12:14:47,215415
-4,-6,-5,-6,-7,-3,-3,-3,2021-08-07 12:14:47,215415
0,0,3,3,6,3,0,-1,2021-08-07 12:14:47,215890
-2,-3,-1,0,-1,-2,1,-2,2021-08-07 12:14:47,215890
-2,-3,-5,-9,-8,-5,-1,0,2021-08-07 12:14:47,215890
-2,-4,-2,-2,-5,-4,-2,-1,2021-08-07 12:14:47,216410
0,1,-2,-4,-3,-1,-1,1,2021-08-07 12:14:47,216410
0,1,-1,0,4,2,1,0,2021-08-07 12:14:47,216410
2,1,4,8,1,1,1,-1,2021-08-07 12:14:47,262310
-1,-3,-3,-5,-2,0,0,-1,2021-08-07 12:14:47,278311
-2,0,-3,-6,-2,-3,-2,-2,2021-08-07 12:14:47,278311
-2,-2,1,-1,-3,-1,-2,-1,2021-08-07 12:14:47,278311
2,5,6,9,10,4,3,3,2021-08-07 12:14:47,278311
-2,-3,0,-2,-3,-3,-1,-2,2021-08-07 12:14:47,286285
3,1,-1,2,3,2,3,2,2021-08-07 12:14:47,286285
-3,-5,-4,-7,-8,-5,-4,-2,2021-08-07 12:14:47,286285
-2,-4,-4,-7,-5,-3,-3,-3,2021-08-07 12:14:47,286285
1,0,0,2,3,3,3,1,2021-08-07 12:14:47,287283
-3,-3,-1,-1,1,0,0,-1,2021-08-07 12:14:47,287283
2,4,5,6,1,2,0,1,2021-08-07 12:14:47,287283
-4,-3,-5,-10,-6,-3,-5,-3,2021-08-07 12:14:47,287283
-2,-3,-6,-7,-6,-4,-2,-2,2021-08-07 12:14:47,287283
0,1,9,14,6,3,2,0,2021-08-07 12:14:47,310284
1,0,0,6,7,2,1,0,2021-08-07 12:14:47,310284
-2,-3,-3,-5,-5,-5,-2,-2,2021-08-07 12:14:47,310284
-1,0,0,-1,-2,-2,-2,0,2021-08-07 12:14:47,310284
-2,-2,-5,-14,-8,-5,-1,-2,2021-08-07 12:14:47,310284
0,0,3,13,14,5,2,-1,2021-08-07 12:14:47,311312
-3,-4,-4,-4,-7,-6,-3,-3,2021-08-07 12:14:47,342285
-1,1,-5,-12,-10,-5,-3,-2,2021-08-07 12:14:47,358283
1,2,3,6,2,2,0,-1,2021-08-07 12:14:47,374322
-2,0,-3,-4,-4,-3,0,-1,2021-08-07 12:14:47,374322
-2,-1,-2,-2,2,-1,0,-1,2021-08-07 12:14:47,374322
1,3,4,4,1,2,1,1,2021-08-07 12:14:47,374322
-3,-4,-5,-6,-6,-4,-3,-3,2021-08-07 12:14:47,374322
-2,-3,-5,-6,-4,-3,-2,-2,2021-08-07 12:14:47,390282
-1,0,-1,-1,-2,-1,-3,-1,2021-08-07 12:14:47,390282
2,2,4,9,7,3,1,1,2021-08-07 12:14:47,390282
-4,-5,-6,-7,-13,-7,-5,-4,2021-08-07 12:14:47,390282
2,1,0,-5,2,1,1,2,2021-08-07 12:14:47,390282
-2,-1,2,9,6,2,1,-2,2021-08-07 12:14:47,405322
-2,-1,-1,-1,-2,-2,-1,-2,2021-08-07 12:14:47,405322
4,3,-1,-1,4,3,3,2,2021-08-07 12:14:47,405322
-5,-4,-5,-7,-11,-6,-3,-4,2021-08-07 12:14:47,405322
-3,-3,-3,-12,-9,-5,-1,-2,2021-08-07 12:14:47,421322
2,4,2,6,5,4,2,2,2021-08-07 12:14:47,421322
-5,-8,-9,-6,-9,-5,-4,-3,2021-08-07 12:14:47,421322
0,1,4,8,9,3,0,1,2021-08-07 12:14:47,422283
3,2,3,3,7,6,3,4,2021-08-07 12:14:47,437490
0,-1,2,5,4,1,0,0,2021-08-07 12:14:47,452284
1,2,2,-1,-4,-2,-1,1,2021-08-07 12:14:47,468288
-2,-2,-4,-5,-7,-5,-3,-1,2021-08-07 12:14:47,484310
-2,-2,-4,-6,-7,-4,-2,-1,2021-08-07 12:14:47,500284
0,1,2,6,11,6,4,2,2021-08-07 12:14:47,500284
-1,-1,0,-2,-1,-2,-2,-1,2021-08-07 12:14:47,500284
0,-2,-2,-2,-3,-2,-2,-2,2021-08-07 12:14:47,500284
-1,-1,-1,0,0,-1,-1,-1,2021-08-07 12:14:47,500284
-4,-4,-6,-11,-8,-5,-4,-2,2021-08-07 12:14:47,500284
1,2,3,5,4,0,2,-1,2021-08-07 12:14:47,500284
-2,-1,-1,-4,-6,-3,-1,0,2021-08-07 12:14:47,500284
0,1,3,10,6,3,0,-1,2021-08-07 12:14:47,500284
0,-1,0,2,0,-2,0,-1,2021-08-07 12:14:47,501282
-3,-2,-1,0,1,-1,-2,-2,2021-08-07 12:14:47,501282
-5,-6,-7,-4,-4,-4,-3,-2,2021-08-07 12:14:47,501282
4,5,2,2,0,0,0,1,2021-08-07 12:14:47,531285
0,0,-3,-3,-4,-3,-2,-3,2021-08-07 12:14:47,531285
-2,-4,-1,2,7,3,0,0,2021-08-07 12:14:47,531285
1,2,2,4,1,1,2,-1,2021-08-07 12:14:47,531285
0,0,1,3,3,2,1,1,2021-08-07 12:14:47,547322
-2,-2,-5,-7,-6,-4,-3,-1,2021-08-07 12:14:47,547322
-1,1,-2,-5,-4,0,0,-1,2021-08-07 12:14:47,547322
0,-1,-3,-4,-4,-2,-3,-1,2021-08-07 12:14:47,547322
-1,0,-3,0,1,0,0,-1,2021-08-07 12:14:47,563310
-2,-2,-2,-5,-6,-4,-2,-2,2021-08-07 12:14:47,563310
-1,-2,-6,-7,-4,-4,-3,-2,2021-08-07 12:14:47,563310
1,4,7,13,10,7,4,2,2021-08-07 12:14:47,579284
-1,-1,-3,-4,-3,-3,-2,-1,2021-08-07 12:14:47,594286
-1,-2,-5,-10,-12,-4,-2,-1,2021-08-07 12:14:47,594286
2,2,9,21,17,7,1,1,2021-08-07 12:14:47,594286
-1,-2,-2,-5,-5,-3,-1,-2,2021-08-07 12:14:47,594286
-1,-1,0,-7,-8,-2,-4,-1,2021-08-07 12:14:47,610285
0,0,0,1,3,0,0,0,2021-08-07 12:14:47,626283
-1,1,0,2,-1,-1,-1,0,2021-08-07 12:14:47,642313
0,0,-1,2,3,1,0,2,2021-08-07 12:14:47,642313
2,1,0,1,-1,1,3,0,2021-08-07 12:14:47,642313
0,-2,-3,-7,-3,0,0,0,2021-08-07 12:14:47,642313
-5,-6,-6,-9,-9,-5,-3,-3,2021-08-07 12:14:47,643284
-4,-4,0,0,-1,-2,-2,-4,2021-08-07 12:14:47,643284
-1,3,4,5,3,1,-1,-1,2021-08-07 12:14:47,643284
1,1,2,5,4,1,-1,-1,2021-08-07 12:14:47,643284
0,1,1,3,-1,-3,-3,-2,2021-08-07 12:14:47,643284
2,2,0,-1,1,-1,0,0,2021-08-07 12:14:47,643284
0,1,-3,-3,0,0,-1,0,2021-08-07 12:14:47,674286
1,2,1,-2,-1,-1,0,2,2021-08-07 12:14:47,689310
0,-1,0,-2,-5,-3,-1,0,2021-08-07 12:14:47,689310
-3,-4,-6,-6,-4,-4,-4,-1,2021-08-07 12:14:47,689310
-2,-4,-1,0,-1,-1,-1,0,2021-08-07 12:14:47,689310
0,0,4,8,5,3,0,-1,2021-08-07 12:14:47,689310
0,-3,-5,-10,-7,-4,-1,1,2021-08-07 12:14:47,689310
0,0,1,-5,-3,-3,-2,-2,2021-08-07 12:14:47,689310
3,-1,1,-1,1,1,1,0,2021-08-07 12:14:47,705312
-2,-1,-3,-2,-2,-2,-3,-1,2021-08-07 12:14:47,705312
0,-1,1,-1,0,0,-1,-1,2021-08-07 12:14:47,705312
-2,-2,-4,-5,-6,-4,-2,-2,2021-08-07 12:14:47,705312
-3,-2,-1,2,0,-1,0,-2,2021-08-07 12:14:47,721313
-2,-4,-5,-4,-5,-3,-2,-2,2021-08-07 12:14:47,737310
2,3,3,5,4,3,0,0,2021-08-07 12:14:47,737310
0,-2,-1,-3,-1,0,1,0,2021-08-07 12:14:47,737310
-3,-2,0,2,0,-2,-2,0,2021-08-07 12:14:47,737310
0,0,2,2,3,3,0,-1,2021-08-07 12:14:47,737310
-3,-5,-4,-6,-7,-1,-1,-2,2021-08-07 12:14:47,737310
2,3,2,2,-3,0,1,0,2021-08-07 12:14:47,737310
-1,-2,-4,-8,-8,-5,-2,-2,2021-08-07 12:14:47,758311
-1,-2,0,1,6,1,-1,0,2021-08-07 12:14:47,758311
-1,-1,-1,3,-1,-1,-1,-1,2021-08-07 12:14:47,758311
-3,-3,-3,-4,-1,-1,-3,-3,2021-08-07 12:14:47,759284
-2,-3,-4,-10,-10,-4,-1,-2,2021-08-07 12:14:47,785284
2,2,4,8,3,3,2,2,2021-08-07 12:14:47,785284
-1,3,2,5,5,1,1,-1,2021-08-07 12:14:47,785284
-1,-1,-3,-3,-8,-3,-3,-2,2021-08-07 12:14:47,785284
0,-1,-2,-1,3,-2,-2,-1,2021-08-07 12:14:47,801310
-2,-2,-1,-1,0,-1,-2,-1,2021-08-07 12:14:47,801534
0,1,-3,-5,-3,-1,-1,1,2021-08-07 12:14:47,801534
1,0,1,6,4,1,1,-2,2021-08-07 12:14:47,801534
0,-3,-4,-3,-2,-1,-1,-1,2021-08-07 12:14:47,817312
-2,-1,-2,-2,-5,-4,-2,-3,2021-08-07 12:14:47,833284
1,-2,-1,-4,0,1,-1,-1,2021-08-07 12:14:47,833284
-2,-1,-1,1,1,-1,-2,-1,2021-08-07 12:14:47,833284
0,1,-1,-1,0,-1,0,0,2021-08-07 12:14:47,849310
0,-2,-1,-1,0,1,-1,-3,2021-08-07 12:14:47,865309
-1,-1,0,0,-2,-2,0,-2,2021-08-07 12:14:47,897286
-2,-4,-4,-4,0,0,-1,-1,2021-08-07 12:14:47,912325
-3,-3,-4,-7,-4,-2,-2,-1,2021-08-07 12:14:47,912325
0,1,1,8,3,2,3,1,2021-08-07 12:14:47,912325
-2,1,-1,0,-3,-2,-1,-2,2021-08-07 12:14:47,912325
-1,-1,0,1,0,0,1,0,2021-08-07 12:14:47,912325
-2,0,2,4,2,0,-2,-1,2021-08-07 12:14:47,912325
-4,-2,-1,-7,-4,-3,-3,-3,2021-08-07 12:14:47,913284
-1,0,-1,-6,1,1,0,0,2021-08-07 12:14:47,913284
0,-2,0,-1,-5,-3,-1,-1,2021-08-07 12:14:47,913284
0,1,4,8,4,2,1,0,2021-08-07 12:14:47,913284
0,-2,-1,-2,-3,-3,-2,-1,2021-08-07 12:14:47,913284
-3,-4,-4,-1,-3,-3,-1,-2,2021-08-07 12:14:47,913284
-3,-2,0,-1,0,-1,2,-2,2021-08-07 12:14:47,913284
0,-1,-1,3,1,2,-1,-1,2021-08-07 12:14:47,914283
-1,-2,-3,-4,-4,-3,0,-1,2021-08-07 12:14:47,914283
-1,-3,-1,-1,-2,-1,-2,-1,2021-08-07 12:14:47,944284
0,0,-3,0,-1,1,0,0,2021-08-07 12:14:47,960284
1,-1,1,0,4,3,1,1,2021-08-07 12:14:47,976282
0,0,1,2,1,1,0,0,2021-08-07 12:14:47,992322
1,2,1,-2,1,-1,1,1,2021-08-07 12:14:48,024312
-2,-4,-4,-4,-8,-6,-3,-4,2021-08-07 12:14:48,024312
-7,-11,-11,-21,-14,-8,-4,-5,2021-08-07 12:14:48,024312
10,13,12,20,20,11,6,6,2021-08-07 12:14:48,024312
-2,-2,-2,0,3,1,-2,-2,2021-08-07 12:14:48,024312
1,2,2,1,1,2,1,2,2021-08-07 12:14:48,024312
-1,0,-2,-4,-8,-3,-1,0,2021-08-07 12:14:48,024312
-3,-6,-7,-10,-8,-4,-3,-3,2021-08-07 12:14:48,024312
-3,-2,-4,-4,-7,-5,-5,-4,2021-08-07 12:14:48,025285
3,0,0,1,2,1,1,2,2021-08-07 12:14:48,025285
0,-1,3,11,9,2,-1,0,2021-08-07 12:14:48,025285
-1,-1,-3,-5,-5,-3,-3,-1,2021-08-07 12:14:48,025285
-2,-2,-2,-1,4,0,1,-2,2021-08-07 12:14:48,025285
-3,-1,-3,-5,-4,-1,-2,-1,2021-08-07 12:14:48,025285
3,4,2,3,1,2,0,1,2021-08-07 12:14:48,025285
-1,-1,-1,2,3,1,-1,0,2021-08-07 12:14:48,026283
0,-1,-2,-7,-11,-6,-2,-2,2021-08-07 12:14:48,026283
-3,-5,-6,-9,-1,-4,-4,-4,2021-08-07 12:14:48,026283
3,3,5,11,14,6,4,4,2021-08-07 12:14:48,039284
-3,-3,-5,-11,-9,-5,-3,-2,2021-08-07 12:14:48,039284
3,2,5,10,5,5,1,2,2021-08-07 12:14:48,039284
-1,-2,1,3,0,1,-1,-2,2021-08-07 12:14:48,039855
-1,0,-2,-8,-8,-3,-3,-3,2021-08-07 12:14:48,070284
2,4,1,-1,-2,-1,2,1,2021-08-07 12:14:48,070284
-2,-1,2,0,-1,-1,-1,-2,2021-08-07 12:14:48,070284
2,2,3,3,3,3,-2,1,2021-08-07 12:14:48,070284
-2,0,-3,-3,-1,-2,-1,-2,2021-08-07 12:14:48,086285
-3,-3,-6,-7,-6,-3,-2,-3,2021-08-07 12:14:48,086285
-3,-5,-3,-1,-1,-1,-1,-1,2021-08-07 12:14:48,086285
-1,-1,0,-2,1,1,-2,-1,2021-08-07 12:14:48,086285
0,0,-3,4,4,1,1,0,2021-08-07 12:14:48,102312
-2,-1,0,0,-3,-1,0,-2,2021-08-07 12:14:48,102312
-1,-2,-4,-6,-4,-2,-1,-1,2021-08-07 12:14:48,102312
1,2,0,-3,-7,-2,0,1,2021-08-07 12:14:48,102312
3,1,4,10,12,6,0,1,2021-08-07 12:14:48,118281
-4,-2,-4,-7,-5,-3,-2,-3,2021-08-07 12:14:48,118281
-4,-4,-5,-1,-6,-2,-5,-4,2021-08-07 12:14:48,118281
-2,-3,-3,-6,3,1,-1,-1,2021-08-07 12:14:48,118281
3,4,3,2,-3,-3,1,1,2021-08-07 12:14:48,150281
-1,-2,1,1,-2,0,0,-1,2021-08-07 12:14:48,150281
-3,-2,-3,-3,-2,-3,-2,-2,2021-08-07 12:14:48,150281
0,2,-2,-9,-4,-1,0,0,2021-08-07 12:14:48,150281
2,1,1,4,3,2,3,3,2021-08-07 12:14:48,150281
0,-3,0,2,-1,-2,-2,-1,2021-08-07 12:14:48,151284
-9,-6,-6,-9,-11,-10,-9,-8,2021-08-07 12:14:48,166321
-6,-6,-4,1,2,-1,-2,-4,2021-08-07 12:14:48,166321
-1,-2,-1,-4,-4,-2,-2,-1,2021-08-07 12:14:48,182283
0,2,2,1,0,-1,-1,0,2021-08-07 12:14:48,198321
3,4,1,5,4,2,3,4,2021-08-07 12:14:48,210310
4,-5,0,-2,2,-1,1,1,2021-08-07 12:14:48,210310
-2,-4,-5,-8,-8,-5,-2,-4,2021-08-07 12:14:48,210310
1,-2,0,2,2,3,0,0,2021-08-07 12:14:48,210310
3,2,5,5,5,1,0,-1,2021-08-07 12:14:48,211312
-2,2,2,2,-5,-3,0,-1,2021-08-07 12:14:48,211312
-5,-5,-5,-9,-8,-4,-3,-3,2021-08-07 12:14:48,211312
-3,-3,1,2,5,2,-1,-3,2021-08-07 12:14:48,211312
0,-1,-5,-8,-8,-4,-1,-1,2021-08-07 12:14:48,230281
2,5,6,12,4,2,2,2,2021-08-07 12:14:48,230281
-2,-4,0,3,8,4,-2,-2,2021-08-07 12:14:48,245282
0,0,0,0,-1,-2,-1,0,2021-08-07 12:14:48,245499
-2,-4,-2,-2,-1,1,0,0,2021-08-07 12:14:48,245499
-2,-2,-1,2,3,0,0,-3,2021-08-07 12:14:48,245499
-2,-1,2,5,0,0,-1,-3,2021-08-07 12:14:48,261283
0,-2,-7,-6,-4,-3,0,1,2021-08-07 12:14:48,277284
-1,-2,1,1,5,2,1,0,2021-08-07 12:14:48,308281
-2,-2,-1,-1,-4,-5,-2,-3,2021-08-07 12:14:48,308281
-3,-3,-3,0,0,0,-1,-2,2021-08-07 12:14:48,308281
4,6,3,-3,0,2,3,3,2021-08-07 12:14:48,308281
0,-1,2,3,1,0,-1,0,2021-08-07 12:14:48,308281
0,0,-2,-2,-2,0,0,0,2021-08-07 12:14:48,308281
-2,-2,-2,-5,-4,-3,-3,-3,2021-08-07 12:14:48,324310
-4,-4,-4,-8,-5,-4,-5,-4,2021-08-07 12:14:48,324310
2,2,1,1,3,1,1,2,2021-08-07 12:14:48,324310
0,-1,-2,-4,-2,-2,0,0,2021-08-07 12:14:48,324310
1,1,1,0,-3,-2,0,1,2021-08-07 12:14:48,324310
-2,-3,-1,1,0,0,0,-1,2021-08-07 12:14:48,324310
0,-1,1,0,-1,0,0,-1,2021-08-07 12:14:48,324310
-3,-5,-1,-3,-8,-5,-3,-2,2021-08-07 12:14:48,324310
-4,-5,-7,-7,-3,-3,-2,-2,2021-08-07 12:14:48,340308
2,4,3,5,8,5,2,2,2021-08-07 12:14:48,340308
0,1,0,3,0,0,-1,0,2021-08-07 12:14:48,356283
-1,-1,-4,-5,-4,-3,-3,-1,2021-08-07 12:14:48,356283
-1,0,-2,-5,-7,-6,-1,0,2021-08-07 12:14:48,356283
-4,-7,-7,-9,-6,-4,-6,-5,2021-08-07 12:14:48,356283
4,3,3,4,5,4,3,1,2021-08-07 12:14:48,356283
-1,-1,-4,-7,-8,-3,-4,0,2021-08-07 12:14:48,356283
2,3,5,8,9,4,1,1,2021-08-07 12:14:48,387281
-3,-4,-1,0,-5,-4,-2,-2,2021-08-07 12:14:48,402283
-2,-5,-4,-5,-4,-3,-2,-2,2021-08-07 12:14:48,402283
2,2,2,3,3,2,1,2,2021-08-07 12:14:48,402283
-1,-5,-4,-4,-3,2,0,-1,2021-08-07 12:14:48,402283
-1,2,4,10,7,3,1,-1,2021-08-07 12:14:48,402283
-2,0,-1,-1,-2,-1,-2,-1,2021-08-07 12:14:48,402283
-3,-1,1,1,0,-1,-5,-4,2021-08-07 12:14:48,403310
-2,-1,-3,-2,-5,-4,-3,-3,2021-08-07 12:14:48,418281
1,4,2,1,3,3,0,0,2021-08-07 12:14:48,418281
0,0,-2,-3,-2,-2,0,1,2021-08-07 12:14:48,418281
0,-2,-3,1,2,1,0,-1,2021-08-07 12:14:48,418281
1,0,-2,-3,-4,-3,-2,0,2021-08-07 12:14:48,450281
-2,-2,-1,-2,-1,-4,-1,1,2021-08-07 12:14:48,465281
-3,-3,-3,-1,-1,-1,0,-3,2021-08-07 12:14:48,481283
-1,-1,-2,-5,-1,-1,-1,-1,2021-08-07 12:14:48,481283
1,4,4,2,1,2,0,2,2021-08-07 12:14:48,481283
-1,0,1,2,0,0,0,-1,2021-08-07 12:14:48,481283
-1,-2,-2,-1,0,-1,1,-2,2021-08-07 12:14:48,481283
-3,-4,-5,-3,-2,-2,-1,-4,2021-08-07 12:14:48,482284
-1,1,0,-4,-1,0,-1,-1,2021-08-07 12:14:48,482284
2,2,0,2,1,1,1,1,2021-08-07 12:14:48,482284
-2,-3,-3,-6,-2,-1,-2,-3,2021-08-07 12:14:48,482284
-1,1,2,5,2,0,0,0,2021-08-07 12:14:48,482284
-1,0,0,0,-1,-1,0,0,2021-08-07 12:14:48,512281
-4,-5,-7,-11,-13,-8,-3,-4,2021-08-07 12:14:48,512281
-1,-2,2,7,7,5,1,1,2021-08-07 12:14:48,512281
1,3,1,3,1,2,1,1,2021-08-07 12:14:48,512281
1,2,0,0,-1,-1,1,0,2021-08-07 12:14:48,528281
-1,-4,-4,-3,-3,-1,-1,-1,2021-08-07 12:14:48,528281
-1,0,-2,-6,-7,-5,-1,-2,2021-08-07 12:14:48,528281
-1,0,-1,1,0,1,0,1,2021-08-07 12:14:48,528281
-5,-5,-3,-3,-3,-2,-3,-6,2021-08-07 12:14:48,543285
1,3,-1,-1,0,0,0,2,2021-08-07 12:14:48,543285
2,3,2,0,0,-1,1,0,2021-08-07 12:14:48,543285
1,-1,0,1,0,2,2,1,2021-08-07 12:14:48,543285
0,-1,-1,-2,1,0,1,-1,2021-08-07 12:14:48,575287
-4,-4,-6,-4,-4,-2,-3,-1,2021-08-07 12:14:48,591325
-2,-1,-2,-1,0,-4,-2,-1,2021-08-07 12:14:48,607324
2,2,2,6,9,4,2,3,2021-08-07 12:14:48,607324
1,-1,-2,-1,0,2,-2,-2,2021-08-07 12:14:48,607324
-1,-1,1,5,4,2,1,-1,2021-08-07 12:14:48,607324
-2,-1,-2,-3,-7,-5,-3,-2,2021-08-07 12:14:48,607324
-2,-2,-1,-6,-6,-4,-2,-1,2021-08-07 12:14:48,607324
1,1,2,8,4,1,1,1,2021-08-07 12:14:48,607324
1,1,1,-4,-3,-1,-2,-1,2021-08-07 12:14:48,623314
-1,1,1,8,10,4,1,0,2021-08-07 12:14:48,639285
-3,-5,-6,-6,-7,-5,-3,-4,2021-08-07 12:14:48,639285
0,0,-2,-9,-8,-4,-1,1,2021-08-07 12:14:48,639285
2,2,6,15,11,4,1,0,2021-08-07 12:14:48,639285
-2,-4,-4,-5,-6,-2,-2,-2,2021-08-07 12:14:48,639285
-3,-2,0,1,-1,-3,-2,-2,2021-08-07 12:14:48,639285
0,-1,-2,-4,-4,-1,-1,1,2021-08-07 12:14:48,640283
-2,-2,-2,-3,-1,0,-1,-2,2021-08-07 12:14:48,640283
-2,0,-2,-4,-1,-1,-2,0,2021-08-07 12:14:48,640283
3,1,1,0,0,-1,1,2,2021-08-07 12:14:48,640283
-1,-1,-4,-5,-7,-5,-3,-2,2021-08-07 12:14:48,670281
-2,-3,-1,1,7,2,0,-2,2021-08-07 12:14:48,680284
-3,-2,-4,-7,-1,-1,-1,-1,2021-08-07 12:14:48,680284
3,3,5,6,4,2,0,1,2021-08-07 12:14:48,680284
-2,-1,-3,-1,-2,-1,1,1,2021-08-07 12:14:48,680284
-2,-4,-4,-3,-5,-3,-2,-4,2021-08-07 12:14:48,681284
-3,-3,-5,-9,-7,-6,-2,-1,2021-08-07 12:14:48,681284
-3,-1,0,2,-2,-2,-3,-3,2021-08-07 12:14:48,681284
0,-2,0,-4,-3,0,-1,0,2021-08-07 12:14:48,717280
-1,-1,-3,3,0,-2,-4,0,2021-08-07 12:14:48,717280
2,2,4,8,8,6,2,1,2021-08-07 12:14:48,717280
-2,0,-2,0,2,0,1,-2,2021-08-07 12:14:48,733283
-1,0,2,2,2,-1,-1,-1,2021-08-07 12:14:48,733283
-2,-2,0,-3,-5,-4,-3,-1,2021-08-07 12:14:48,733283
-2,-3,-3,-9,-7,-3,-3,-3,2021-08-07 12:14:48,733283
0,0,0,1,-2,-2,0,0,2021-08-07 12:14:48,733283
-2,-2,0,4,5,3,0,-1,2021-08-07 12:14:48,749283
0,0,-4,-12,-7,-2,-3,-1,2021-08-07 12:14:48,765283
0,0,-1,-1,-4,-3,-3,-3,2021-08-07 12:14:48,781282
1,1,2,1,2,3,0,-1,2021-08-07 12:14:48,781282
-2,-3,-3,-5,-1,-2,-2,-2,2021-08-07 12:14:48,781282
0,2,2,3,4,1,3,0,2021-08-07 12:14:48,781282
-3,-3,-2,2,1,0,0,-2,2021-08-07 12:14:48,781282
3,1,0,-4,-4,-1,0,2,2021-08-07 12:14:48,781282
0,2,0,3,0,0,1,0,2021-08-07 12:14:48,781282
-5,-6,-6,-5,-5,-3,-3,-4,2021-08-07 12:14:48,782327
3,3,6,6,4,4,2,1,2021-08-07 12:14:48,782327
0,0,1,-3,-1,-2,-2,-1,2021-08-07 12:14:48,782327
0,2,-1,4,3,2,1,-1,2021-08-07 12:14:48,812309
-1,1,2,-1,-3,-2,1,0,2021-08-07 12:14:48,828282
-2,-3,-2,0,0,-1,-3,-2,2021-08-07 12:14:48,828282
-3,-3,-3,1,9,4,0,1,2021-08-07 12:14:48,828282
2,2,3,1,-4,-2,0,1,2021-08-07 12:14:48,828282
-5,-6,-4,1,-1,-2,-3,-2,2021-08-07 12:14:48,828282
2,5,-1,-6,-9,-4,-2,1,2021-08-07 12:14:48,828282
-2,-2,0,4,0,-2,-1,-2,2021-08-07 12:14:48,828282
-1,0,0,-2,4,0,0,-1,2021-08-07 12:14:48,844284
1,-1,-1,0,2,1,1,1,2021-08-07 12:14:48,844284
-2,-4,0,1,-1,-2,-2,-1,2021-08-07 12:14:48,844284
-2,-3,-3,-1,-1,-3,-1,-2,2021-08-07 12:14:48,844284
1,1,0,0,-2,-2,-2,0,2021-08-07 12:14:48,860282
1,0,-2,0,-1,0,-1,0,2021-08-07 12:14:48,860282
-3,-4,-4,-2,-3,-3,-3,-3,2021-08-07 12:14:48,860282
0,-1,-2,-4,-1,0,-2,-1,2021-08-07 12:14:48,860282
0,0,1,0,-2,-3,-1,-1,2021-08-07 12:14:48,892284
-2,-1,0,-3,-1,-2,0,0,2021-08-07 12:14:48,892284
-2,0,-2,-2,0,0,1,0,2021-08-07 12:14:48,892284
0,1,-3,-2,-2,0,0,-1,2021-08-07 12:14:48,892284
-2,-4,-3,-5,-1,-2,0,-2,2021-08-07 12:14:48,893284
2,2,3,1,1,2,0,1,2021-08-07 12:14:48,908284
-4,-5,-6,-8,-7,-5,-3,-4,2021-08-07 12:14:48,924308
-1,1,8,14,8,3,1,-1,2021-08-07 12:14:48,924308
-1,-2,-5,-6,-2,0,0,0,2021-08-07 12:14:48,924308
0,-2,-2,-2,-1,-3,-1,-1,2021-08-07 12:14:48,924308
-3,-4,-2,3,1,-2,-1,-1,2021-08-07 12:14:48,924308
-3,-5,-4,-6,0,-2,-2,-3,2021-08-07 12:14:48,924308
-2,1,-1,2,-3,-3,0,-1,2021-08-07 12:14:48,956282
1,2,0,-4,-4,-1,-1,-1,2021-08-07 12:14:48,972284
0,-1,1,4,2,3,0,0,2021-08-07 12:14:48,987282
-3,-3,-6,-6,-9,-6,-2,-2,2021-08-07 12:14:49,003282
-2,-3,-1,-5,-4,-2,-1,-2,2021-08-07 12:14:49,003282
1,1,3,3,5,1,3,-1,2021-08-07 12:14:49,003282
1,0,1,7,8,4,1,0,2021-08-07 12:14:49,003282
2,4,1,3,0,1,0,4,2021-08-07 12:14:49,003282
0,0,0,-1,-4,-4,-3,0,2021-08-07 12:14:49,003282
-3,-5,-4,-7,-11,-6,-5,-1,2021-08-07 12:14:49,003282
0,2,2,4,7,3,2,2,2021-08-07 12:14:49,019283
-3,-1,-1,-5,-3,-3,-2,-2,2021-08-07 12:14:49,019283
3,2,3,5,6,3,3,2,2021-08-07 12:14:49,019283
0,1,1,-1,-1,-1,0,1,2021-08-07 12:14:49,019283
-2,-3,-3,-7,-5,-4,-2,-1,2021-08-07 12:14:49,019283
0,-1,-2,-3,-4,-3,1,0,2021-08-07 12:14:49,019283
-2,-1,1,3,5,0,-2,-3,2021-08-07 12:14:49,020283
-2,-3,-3,1,0,0,-1,-4,2021-08-07 12:14:49,020283
0,0,0,-2,-3,-3,-1,-1,2021-08-07 12:14:49,035285
-3,-4,-6,-11,-9,-5,-3,-2,2021-08-07 12:14:49,035285
1,0,-1,2,5,2,-1,-1,2021-08-07 12:14:49,035285
-1,1,1,-2,-3,0,0,-1,2021-08-07 12:14:49,035285
1,2,-2,2,3,0,1,-1,2021-08-07 12:14:49,051285
0,-1,-2,-1,0,2,-1,-1,2021-08-07 12:14:49,051285
-4,-5,-5,-7,-11,-6,-5,-3,2021-08-07 12:14:49,067284
-1,2,2,10,20,7,1,0,2021-08-07 12:14:49,067284
-2,-2,2,3,-4,-2,-2,-3,2021-08-07 12:14:49,067284
2,1,-1,-7,-4,-1,0,1,2021-08-07 12:14:49,067284
-2,-4,-7,-4,-5,-3,-2,-2,2021-08-07 12:14:49,083281
1,0,0,-2,-3,-1,-1,1,2021-08-07 12:14:49,099310
-1,-1,0,-4,-4,-3,-1,0,2021-08-07 12:14:49,115324
-1,-3,0,3,1,-1,0,-3,2021-08-07 12:14:49,115324
1,1,2,1,2,2,1,1,2021-08-07 12:14:49,115324
-1,0,-1,1,-1,1,0,-1,2021-08-07 12:14:49,115324
-1,0,1,1,5,1,1,0,2021-08-07 12:14:49,115324
-3,-3,-3,-5,-6,-4,-2,-2,2021-08-07 12:14:49,115324
-2,-2,-1,-6,-2,-2,-2,-1,2021-08-07 12:14:49,131291
-3,-4,-3,0,0,-2,-1,-2,2021-08-07 12:14:49,142283
2,3,2,0,-2,-2,0,0,2021-08-07 12:14:49,142283
-1,1,0,4,-1,-1,0,-1,2021-08-07 12:14:49,142283
-2,-2,-2,-3,-4,-4,-2,-2,2021-08-07 12:14:49,142283
1,0,3,9,6,3,2,0,2021-08-07 12:14:49,143284
-2,-3,-2,-1,0,1,-2,-3,2021-08-07 12:14:49,143284
0,1,1,0,-2,1,-1,1,2021-08-07 12:14:49,143284
1,2,3,10,18,8,2,1,2021-08-07 12:14:49,163323
-3,-5,-6,-14,-17,-9,-5,-3,2021-08-07 12:14:49,163323
-3,-6,-7,-10,-11,-5,-3,-4,2021-08-07 12:14:49,163323
2,2,5,8,11,5,2,1,2021-08-07 12:14:49,163323
0,1,0,2,1,1,1,0,2021-08-07 12:14:49,194322
0,-4,-2,-1,-3,0,0,1,2021-08-07 12:14:49,210284
3,1,1,-1,-1,1,2,2,2021-08-07 12:14:49,226287
-3,-3,-6,-5,-4,-2,-2,-1,2021-08-07 12:14:49,226287
-2,-5,-3,-2,-7,-4,-4,-2,2021-08-07 12:14:49,226287
-5,-6,-7,-7,-2,-3,-4,-4,2021-08-07 12:14:49,226287
-3,0,2,4,4,0,-3,-2,2021-08-07 12:14:49,226287
0,1,2,1,0,-2,-1,0,2021-08-07 12:14:49,227283
1,3,-1,0,0,-1,1,1,2021-08-07 12:14:49,227283
-1,-2,0,1,-5,-3,-1,0,2021-08-07 12:14:49,227283
1,1,-2,-3,2,2,0,1,2021-08-07 12:14:49,227283
3,3,3,4,7,4,1,2,2021-08-07 12:14:49,227283
-2,-2,-1,2,-2,1,-2,0,2021-08-07 12:14:49,257293
-1,-1,-2,-5,-5,-3,-1,-3,2021-08-07 12:14:49,257293
-4,-4,-4,-9,-9,-5,-3,-2,2021-08-07 12:14:49,257293
-2,-4,-6,-9,-10,-5,-2,-1,2021-08-07 12:14:49,257293
0,2,6,17,21,11,6,0,2021-08-07 12:14:49,257293
-1,-1,-3,-8,-4,-3,-1,-2,2021-08-07 12:14:49,257293
0,-1,-1,7,2,-1,-1,-1,2021-08-07 12:14:49,273309
-1,-1,-3,-8,-4,0,0,-2,2021-08-07 12:14:49,273309
1,2,5,7,-4,-2,-1,0,2021-08-07 12:14:49,289285
1,2,1,3,6,3,2,1,2021-08-07 12:14:49,305337
-3,-1,0,0,-3,-4,-1,-1,2021-08-07 12:14:49,321284
-8,-10,-15,-22,-22,-16,-7,-6,2021-08-07 12:14:49,321284
3,5,7,14,17,9,5,3,2021-08-07 12:14:49,321284
0,2,4,1,4,2,1,-1,2021-08-07 12:14:49,321284
2,1,3,1,-2,0,0,0,2021-08-07 12:14:49,321284
1,0,2,5,4,1,-1,-1,2021-08-07 12:14:49,322286
-6,-6,-8,-16,-17,-11,-5,-5,2021-08-07 12:14:49,322286
-7,-8,-9,-8,-5,-4,-4,-5,2021-08-07 12:14:49,322286
4,6,8,11,15,8,4,3,2021-08-07 12:14:49,322286
0,-2,-2,-2,-1,-1,-2,0,2021-08-07 12:14:49,322286
-1,0,-2,-5,-11,-6,-2,-2,2021-08-07 12:14:49,352313
-1,-1,0,2,1,1,-1,0,2021-08-07 12:14:49,368312
-4,-4,-5,-5,0,-1,0,-3,2021-08-07 12:14:49,384325
3,5,8,16,13,7,3,4,2021-08-07 12:14:49,384325
-2,-5,-8,-13,-7,-5,-4,-2,2021-08-07 12:14:49,384325
-2,-1,-3,-1,-2,-1,-2,-1,2021-08-07 12:14:49,384325
0,-1,-2,0,0,-1,-1,1,2021-08-07 12:14:49,384325
-1,2,4,5,5,1,-2,-2,2021-08-07 12:14:49,384325
0,-2,-1,-2,-6,-4,-1,-1,2021-08-07 12:14:49,385284
-3,-3,-5,-10,-8,-7,-4,-2,2021-08-07 12:14:49,385284
-1,-2,-3,-5,-5,-3,-1,-1,2021-08-07 12:14:49,385284
-4,-3,-7,-2,0,0,-2,-3,2021-08-07 12:14:49,385284
-3,-5,-3,-2,1,-1,-3,-2,2021-08-07 12:14:49,415282
5,7,5,7,5,3,2,3,2021-08-07 12:14:49,431318
0,-1,-3,-11,-10,-4,-4,-1,2021-08-07 12:14:49,431318
3,3,4,1,-2,3,1,3,2021-08-07 12:14:49,431318
-1,0,1,0,0,1,-1,-1,2021-08-07 12:14:49,431318
-2,-4,0,3,-2,-1,-1,-1,2021-08-07 12:14:49,431318
-5,-4,-5,-7,-3,-3,-3,-2,2021-08-07 12:14:49,431318
2,2,1,2,7,6,4,1,2021-08-07 12:14:49,431318
0,0,0,1,-1,-1,-1,0,2021-08-07 12:14:49,462283
1,1,1,-1,-2,-1,1,0,2021-08-07 12:14:49,478321
-3,-3,-5,-5,-3,-3,-3,-5,2021-08-07 12:14:49,478321
-2,-2,0,4,-4,-3,-2,-2,2021-08-07 12:14:49,478321
0,2,1,-2,2,1,2,1,2021-08-07 12:14:49,478321
-3,-2,-2,-1,-2,-4,-3,-2,2021-08-07 12:14:49,478321
-2,-3,-4,-3,-9,-3,-4,-1,2021-08-07 12:14:49,478321
0,-1,-1,0,4,1,0,1,2021-08-07 12:14:49,479286
-2,-1,-2,1,0,1,-1,-1,2021-08-07 12:14:49,479286
-1,-1,-2,-3,1,2,1,-1,2021-08-07 12:14:49,479286
1,-1,1,5,3,2,0,0,2021-08-07 12:14:49,479286
-2,0,0,-3,0,0,0,0,2021-08-07 12:14:49,479286
0,-1,-3,-7,-7,-4,-2,-1,2021-08-07 12:14:49,510284
0,-2,-3,-9,-7,-4,-4,-2,2021-08-07 12:14:49,510284
-2,-1,-1,4,5,1,0,-1,2021-08-07 12:14:49,510284
-1,-2,-2,-8,-12,-6,-4,-3,2021-08-07 12:14:49,510284
1,1,3,12,21,11,3,2,2021-08-07 12:14:49,526310
1,3,6,13,8,3,2,1,2021-08-07 12:14:49,526310
-3,-4,-6,-11,-10,-6,-3,-3,2021-08-07 12:14:49,526310
1,1,0,3,0,-3,0,-1,2021-08-07 12:14:49,526310
-4,-3,-5,-6,-11,-4,-3,-2,2021-08-07 12:14:49,558311
-1,-3,-3,-6,-3,-2,-2,-2,2021-08-07 12:14:49,558311
2,4,6,13,8,6,1,2,2021-08-07 12:14:49,558311
-2,-2,-3,-6,-1,-1,-1,-1,2021-08-07 12:14:49,558311
1,1,3,7,8,1,1,0,2021-08-07 12:14:49,574280
-1,-3,-7,-6,-4,-1,-1,-1,2021-08-07 12:14:49,590322
1,1,-1,0,1,-1,1,1,2021-08-07 12:14:49,606285
-2,-2,2,4,0,-1,0,0,2021-08-07 12:14:49,615282
1,2,3,1,-4,-1,1,0,2021-08-07 12:14:49,615282
1,-1,-1,0,-4,-2,-3,-1,2021-08-07 12:14:49,615282
0,0,0,0,4,2,-1,-1,2021-08-07 12:14:49,615282
-3,-6,-6,-8,-12,-7,-4,-2,2021-08-07 12:14:49,615282
-3,-3,-3,-6,-1,-1,-3,-2,2021-08-07 12:14:49,616327
2,1,3,7,9,4,3,3,2021-08-07 12:14:49,616327
-2,-2,-3,-9,-12,-6,-3,-3,2021-08-07 12:14:49,616327
3,2,0,4,15,7,2,1,2021-08-07 12:14:49,616327
-3,-3,-5,-6,-8,-6,-3,-1,2021-08-07 12:14:49,637284
-2,-1,-3,1,-4,-2,0,-1,2021-08-07 12:14:49,653330
1,1,0,1,-4,-3,-1,-1,2021-08-07 12:14:49,669284
-1,-2,-1,-6,-3,-1,0,-4,2021-08-07 12:14:49,669284
0,0,1,3,-1,-1,-1,-2,2021-08-07 12:14:49,669284
-4,-2,-4,-6,-10,-5,-4,-3,2021-08-07 12:14:49,669284
-1,-3,-1,3,11,4,1,-1,2021-08-07 12:14:49,669284
2,2,4,1,-3,-1,1,3,2021-08-07 12:14:49,669284
1,-1,0,3,3,2,0,-2,2021-08-07 12:14:49,670283
-1,-1,0,-1,-1,-2,0,-1,2021-08-07 12:14:49,670283
-2,-3,-4,-11,-14,-8,-1,-1,2021-08-07 12:14:49,670283
0,2,0,2,3,0,-1,0,2021-08-07 12:14:49,670283
-3,-4,-5,-6,2,-1,-3,-3,2021-08-07 12:14:49,685325
1,1,2,1,0,0,0,0,2021-08-07 12:14:49,701282
0,2,0,-4,-6,-1,-1,-2,2021-08-07 12:14:49,701282
0,0,3,10,15,9,4,2,2021-08-07 12:14:49,701282
-3,-2,-6,-16,-18,-8,-4,-3,2021-08-07 12:14:49,701282
0,0,-4,-5,-8,-6,-3,-1,2021-08-07 12:14:49,702283
0,-4,-1,5,9,2,0,0,2021-08-07 12:14:49,702283
-1,-8,-3,5,4,1,2,0,2021-08-07 12:14:49,702283
-3,-3,-2,-3,-3,-2,-2,-3,2021-08-07 12:14:49,732283
-1,0,0,-3,1,0,1,1,2021-08-07 12:14:49,748284
0,1,2,4,-3,-1,-1,0,2021-08-07 12:14:49,764282
-1,4,-6,-9,-9,-6,-2,-4,2021-08-07 12:14:49,780328
0,-6,-1,5,4,0,-1,-2,2021-08-07 12:14:49,796285
-3,-2,-3,0,4,2,-2,-2,2021-08-07 12:14:49,796285
-1,3,2,0,-2,-1,-2,0,2021-08-07 12:14:49,796285
-1,-2,-3,-1,0,0,-1,-1,2021-08-07 12:14:49,796285
0,3,-1,-1,-5,-2,-2,1,2021-08-07 12:14:49,796285
2,4,1,-2,1,2,1,0,2021-08-07 12:14:49,796285
-1,-4,-2,4,0,0,-2,-1,2021-08-07 12:14:49,796285
0,3,4,6,11,4,2,1,2021-08-07 12:14:49,796285
-2,-2,-3,-3,-5,-3,0,-2,2021-08-07 12:14:49,796285
0,-3,2,3,6,4,0,2,2021-08-07 12:14:49,797286
-4,-3,-4,-4,-4,-3,-1,-2,2021-08-07 12:14:49,797286
-3,-1,-2,-8,-7,-4,-5,-1,2021-08-07 12:14:49,797286
-1,1,-1,-6,-11,-5,-1,0,2021-08-07 12:14:49,812284
-1,-3,-1,1,2,0,-1,-1,2021-08-07 12:14:49,828312
2,0,-1,-2,1,2,0,0,2021-08-07 12:14:49,844285
0,-1,3,13,10,3,0,1,2021-08-07 12:14:49,844285
0,-1,-2,-5,2,0,-1,-1,2021-08-07 12:14:49,844285
-4,-5,-4,-2,-9,-8,-5,-3,2021-08-07 12:14:49,844285
2,4,2,2,1,2,2,2,2021-08-07 12:14:49,844285
-1,-1,-2,-4,-6,-2,-2,-2,2021-08-07 12:14:49,844285
0,0,-5,-1,-6,-3,-2,2,2021-08-07 12:14:49,845284
-4,-3,-5,-2,5,1,-1,-2,2021-08-07 12:14:49,845284
0,-1,5,6,4,0,0,-2,2021-08-07 12:14:49,845284
0,1,0,1,-3,0,-1,0,2021-08-07 12:14:49,845284
0,1,2,3,2,0,1,-1,2021-08-07 12:14:49,876310
-1,4,-1,-11,-11,-4,-2,-1,2021-08-07 12:14:49,892284
1,-7,-2,3,8,4,1,1,2021-08-07 12:14:49,892284
-2,-3,1,-1,-4,-2,-2,-1,2021-08-07 12:14:49,892284
1,0,-3,-2,3,1,-2,1,2021-08-07 12:14:49,892284
-2,-3,-1,2,0,-1,-1,-2,2021-08-07 12:14:49,908308
0,6,5,5,5,2,2,1,2021-08-07 12:14:49,924309
2,1,2,1,-2,-1,1,1,2021-08-07 12:14:49,924309
-2,-3,-4,-6,-11,-6,-4,-4,2021-08-07 12:14:49,924309
-1,-1,-1,-2,-3,-2,-3,0,2021-08-07 12:14:49,924309
-1,0,-3,-1,1,1,-2,1,2021-08-07 12:14:49,924309
1,-1,0,0,4,2,1,-1,2021-08-07 12:14:49,925283
-2,2,2,8,9,4,-2,-2,2021-08-07 12:14:49,925283
0,-2,-1,2,0,0,0,0,2021-08-07 12:14:49,925283
-2,-3,-4,-6,-6,-5,-2,-2,2021-08-07 12:14:49,925283
0,2,0,-2,-4,-3,-2,-1,2021-08-07 12:14:49,925283
-2,-1,-2,-4,-3,-2,-1,-1,2021-08-07 12:14:49,940324
2,3,4,6,8,5,5,2,2021-08-07 12:14:49,940324
-3,-2,-1,3,1,-1,-1,-2,2021-08-07 12:14:49,971285
3,6,5,6,7,3,3,1,2021-08-07 12:14:49,987281
1,-1,0,1,1,-1,0,-1,2021-08-07 12:14:49,987281
-1,-3,-5,-8,-7,-4,-2,-3,2021-08-07 12:14:49,987281
-3,-4,-8,-15,-13,-8,-4,-4,2021-08-07 12:14:49,987281
-3,-5,-8,-17,-18,-9,-4,-2,2021-08-07 12:14:49,987281
-2,-1,1,2,8,3,0,0,2021-08-07 12:14:49,987281
1,3,7,21,21,9,5,2,2021-08-07 12:14:49,987281
1,1,4,4,3,2,-2,-1,2021-08-07 12:14:50,003281
-2,-2,-3,-4,-4,-5,-1,-1,2021-08-07 12:14:50,003281
1,0,-1,-4,-6,-4,-2,1,2021-08-07 12:14:50,003281
-2,-2,-3,-6,-8,-6,-4,-2,2021-08-07 12:14:50,003281
-1,1,0,-1,0,-1,-1,1,2021-08-07 12:14:50,003281
-2,-5,-5,-4,-2,-2,-2,-1,2021-08-07 12:14:50,004285
-4,0,2,1,-4,0,-1,0,2021-08-07 12:14:50,034282
-1,-2,0,-3,-1,-1,1,-1,2021-08-07 12:14:50,034282
1,-3,-5,-9,-7,-3,-2,0,2021-08-07 12:14:50,034282
-1,0,0,2,7,4,1,0,2021-08-07 12:14:50,034282
-1,-3,-2,-2,-2,-1,0,-1,2021-08-07 12:14:50,050282
-4,-4,-2,-3,4,2,0,-2,2021-08-07 12:14:50,050282
-4,0,0,4,2,-2,-2,-3,2021-08-07 12:14:50,050282
-2,0,1,1,2,-1,-3,-3,2021-08-07 12:14:50,050282
2,3,8,7,2,1,0,-2,2021-08-07 12:14:50,076320
1,0,2,3,0,-2,2,0,2021-08-07 12:14:50,077285
2,-3,-5,-6,-4,-1,1,-1,2021-08-07 12:14:50,077285
-3,-6,-9,-9,-6,-4,-3,-3,2021-08-07 12:14:50,077285
2,2,-1,2,3,1,0,1,2021-08-07 12:14:50,097282
-1,-1,0,-4,-4,-2,-2,0,2021-08-07 12:14:50,097282
-3,-1,-1,-5,-4,-3,-1,0,2021-08-07 12:14:50,097282
0,0,0,-2,-6,-2,-4,-3,2021-08-07 12:14:50,097282
1,2,6,14,15,8,5,3,2021-08-07 12:14:50,113287
-1,-1,1,3,3,0,-2,-1,2021-08-07 12:14:50,128309
0,1,2,8,9,5,2,1,2021-08-07 12:14:50,144311
-4,-6,-12,-11,-16,-9,-4,-5,2021-08-07 12:14:50,144311
-2,-3,-10,-19,-15,-8,-3,-1,2021-08-07 12:14:50,144311
4,3,6,10,14,8,4,2,2021-08-07 12:14:50,144311
-1,0,5,8,1,1,-3,0,2021-08-07 12:14:50,144311
1,3,6,3,1,2,2,1,2021-08-07 12:14:50,144311
-3,-5,-7,-8,-4,-1,-1,-1,2021-08-07 12:14:50,144311
-5,-6,-13,-14,-17,-13,-7,-4,2021-08-07 12:14:50,145283
-1,1,-3,-4,-1,-2,0,-1,2021-08-07 12:14:50,145283
1,3,5,5,9,5,1,2,2021-08-07 12:14:50,145283
0,-1,0,-1,-2,1,-1,-1,2021-08-07 12:14:50,191281
-3,-2,-1,-8,-10,-4,-3,0,2021-08-07 12:14:50,207321
-1,0,0,1,5,1,2,0,2021-08-07 12:14:50,223310
-3,-5,-3,-4,-2,-2,-2,-1,2021-08-07 12:14:50,223310
0,-2,1,5,3,0,-2,0,2021-08-07 12:14:50,223310
-1,-4,-7,-10,-11,-4,-2,-2,2021-08-07 12:14:50,239310
0,-1,4,3,3,-1,0,0,2021-08-07 12:14:50,255317
2,1,4,7,3,-1,0,0,2021-08-07 12:14:50,255317
2,5,3,2,7,3,4,0,2021-08-07 12:14:50,255317
-3,-3,-8,-6,-11,-6,-3,-3,2021-08-07 12:14:50,255317
-1,-1,2,4,1,0,0,0,2021-08-07 12:14:50,256284
-4,-4,-4,-6,-7,-4,-4,-2,2021-08-07 12:14:50,256284
3,0,4,14,14,8,2,2,2021-08-07 12:14:50,256284
3,4,1,0,-1,-1,1,1,2021-08-07 12:14:50,256284
1,-1,-5,-5,-4,1,0,2,2021-08-07 12:14:50,256284
-2,-1,-3,-6,-4,-3,-2,-1,2021-08-07 12:14:50,256284
-4,-3,0,5,0,-3,-1,-2,2021-08-07 12:14:50,256284
-2,0,1,-4,-5,-1,-1,-2,2021-08-07 12:14:50,271283
-1,0,-3,-3,-4,-5,-2,-1,2021-08-07 12:14:50,271283
0,-1,1,6,5,1,0,-1,2021-08-07 12:14:50,271283
-4,-3,-9,-18,-17,-10,-5,-2,2021-08-07 12:14:50,271283
2,2,7,14,16,6,1,1,2021-08-07 12:14:50,271283
0,-1,-3,1,3,1,-1,-1,2021-08-07 12:14:50,271283
2,0,-3,-5,-6,-2,-1,0,2021-08-07 12:14:50,271283
-4,-3,-1,-4,-9,-4,-4,-5,2021-08-07 12:14:50,287281
1,2,10,11,14,6,2,2,2021-08-07 12:14:50,287281
3,0,-4,-12,-14,-5,-3,0,2021-08-07 12:14:50,287281
1,-1,-4,2,4,1,0,-1,2021-08-07 12:14:50,287281
-2,-3,-3,1,-3,-4,-5,-1,2021-08-07 12:14:50,318284
-4,-6,-7,-15,-14,-8,-5,-4,2021-08-07 12:14:50,318284
-1,1,0,1,4,3,1,0,2021-08-07 12:14:50,318284
1,4,5,9,8,6,2,1,2021-08-07 12:14:50,318284
-5,-11,-11,-12,-8,-3,-2,-3,2021-08-07 12:14:50,318284
2,6,8,9,9,5,4,3,2021-08-07 12:14:50,318284
-1,-2,1,-4,-8,-3,-3,-4,2021-08-07 12:14:50,334285
-4,-3,-4,-6,-7,-5,-2,-2,2021-08-07 12:14:50,334285
2,4,5,7,5,0,1,2,2021-08-07 12:14:50,350281
-3,-4,-3,-5,-6,-3,-2,-4,2021-08-07 12:14:50,350281
-1,-1,0,0,2,0,1,0,2021-08-07 12:14:50,350281
-2,1,0,-1,0,1,0,-1,2021-08-07 12:14:50,350281
-1,-1,-1,2,5,0,1,0,2021-08-07 12:14:50,382284
-3,-3,-7,-5,-10,-5,-1,-1,2021-08-07 12:14:50,382284
-1,-2,0,0,2,0,0,1,2021-08-07 12:14:50,382284
3,1,6,6,4,3,0,1,2021-08-07 12:14:50,382284
1,0,1,-4,-1,0,-1,-1,2021-08-07 12:14:50,382284
-1,-2,-5,-5,-3,-2,-3,-1,2021-08-07 12:14:50,382284
-4,-4,-3,-4,-7,-5,-2,-2,2021-08-07 12:14:50,398282
-3,-1,-3,0,3,0,0,-2,2021-08-07 12:14:50,398282
2,4,3,2,2,2,2,1,2021-08-07 12:14:50,414282
1,0,1,4,2,0,0,1,2021-08-07 12:14:50,414282
-1,0,3,11,7,2,1,1,2021-08-07 12:14:50,414282
-1,-4,-3,1,-3,-3,0,-3,2021-08-07 12:14:50,430281
-4,-1,-3,-8,-6,-5,-3,-2,2021-08-07 12:14:50,445282
-4,-6,-6,-5,-4,-3,-2,-3,2021-08-07 12:14:50,461283
-3,-3,-3,-7,-6,-2,-1,-2,2021-08-07 12:14:50,477282
-1,0,3,0,-2,-2,0,-1,2021-08-07 12:14:50,477282
0,-2,-7,-9,-4,-3,-1,1,2021-08-07 12:14:50,477282
-3,-1,-4,-2,-3,-3,-1,-2,2021-08-07 12:14:50,477282
1,0,2,0,4,3,1,0,2021-08-07 12:14:50,477282
3,1,5,9,9,4,2,3,2021-08-07 12:14:50,477282
-2,0,0,4,5,3,0,-2,2021-08-07 12:14:50,478283
0,0,2,4,6,2,-1,-1,2021-08-07 12:14:50,478283
1,0,-5,-3,0,-2,-2,0,2021-08-07 12:14:50,478283
-3,-1,-6,-9,-12,-7,-4,-1,2021-08-07 12:14:50,478283
-1,-3,-2,-2,-5,-4,-1,-2,2021-08-07 12:14:50,493283
-4,-5,-2,-7,-3,-3,-2,-1,2021-08-07 12:14:50,509282
2,6,6,11,5,4,2,1,2021-08-07 12:14:50,525283
-1,-5,-6,-6,-10,-6,-3,-3,2021-08-07 12:14:50,525283
4,5,5,11,10,5,2,1,2021-08-07 12:14:50,525283
-2,-2,1,5,2,0,-1,-3,2021-08-07 12:14:50,525283
-2,-2,-2,-3,-3,0,0,-2,2021-08-07 12:14:50,525283
-2,-1,-3,-7,-5,-2,-3,-1,2021-08-07 12:14:50,526283
-3,-5,-4,-7,-7,-3,-3,-1,2021-08-07 12:14:50,526283
-3,0,1,-2,-3,-1,-3,-2,2021-08-07 12:14:50,526283
1,0,0,2,3,3,-1,0,2021-08-07 12:14:50,526283
3,4,1,3,1,1,2,1,2021-08-07 12:14:50,526283
-4,-4,-4,-5,-4,-3,-2,0,2021-08-07 12:14:50,557285
-1,-3,-7,-9,-7,-2,-2,-1,2021-08-07 12:14:50,557285
-4,-3,-1,2,0,0,-1,-2,2021-08-07 12:14:50,557285
-2,-1,2,0,1,-1,0,-2,2021-08-07 12:14:50,557285
-1,-3,2,0,-3,-1,-2,-2,2021-08-07 12:14:50,557285
2,3,4,11,14,6,1,-1,2021-08-07 12:14:50,558284
1,-1,-3,-4,-5,-3,0,-1,2021-08-07 12:14:50,573281
0,0,2,6,9,5,1,1,2021-08-07 12:14:50,589310
-3,-3,-3,-5,-8,-6,-3,-2,2021-08-07 12:14:50,604313
-1,-2,-3,-8,-6,-4,-3,-1,2021-08-07 12:14:50,604313
1,1,-2,-1,0,2,1,1,2021-08-07 12:14:50,604313
0,0,1,4,5,1,1,1,2021-08-07 12:14:50,604313
-2,0,-3,-5,-9,-4,-2,-1,2021-08-07 12:14:50,604313
-1,-1,-3,-5,1,1,1,0,2021-08-07 12:14:50,604313
-2,-3,0,1,-4,-4,-3,-2,2021-08-07 12:14:50,620281
-3,-5,-4,-13,-7,-5,-3,-3,2021-08-07 12:14:50,620281
2,2,4,8,7,4,3,2,2021-08-07 12:14:50,620281
-1,0,3,6,1,0,2,2,2021-08-07 12:14:50,620281
0,1,0,-3,-4,-3,-2,-1,2021-08-07 12:14:50,635283
-3,-3,-3,-3,-4,-1,-3,-2,2021-08-07 12:14:50,651315
-2,-4,-5,-8,-6,-4,-6,-2,2021-08-07 12:14:50,651315
-1,-4,-2,-2,-2,-2,0,-1,2021-08-07 12:14:50,651315
-1,0,-5,-8,3,3,1,0,2021-08-07 12:14:50,651315
4,6,6,15,12,7,3,2,2021-08-07 12:14:50,651315
2,1,-1,1,3,1,1,1,2021-08-07 12:14:50,667285
-3,-3,-3,-5,-9,-6,-4,-1,2021-08-07 12:14:50,683286
-4,-6,-1,-6,-6,-3,-2,-4,2021-08-07 12:14:50,715281
-2,-3,-7,-10,-13,-5,-2,0,2021-08-07 12:14:50,731283
1,2,1,4,14,7,2,0,2021-08-07 12:14:50,747282
2,4,4,7,4,4,0,2,2021-08-07 12:14:50,762284
1,-1,0,-1,-5,-3,-2,-1,2021-08-07 12:14:50,762284
-2,-3,-2,-6,-3,-2,-2,-2,2021-08-07 12:14:50,762284
-6,-5,-6,-3,-10,-7,-5,-6,2021-08-07 12:14:50,762284
-1,-2,-3,-2,-6,-1,-1,-1,2021-08-07 12:14:50,762284
-2,0,1,5,8,3,1,0,2021-08-07 12:14:50,793286
-1,-1,0,1,0,1,-1,-1,2021-08-07 12:14:50,809285
0,1,1,-5,-4,-1,-2,-1,2021-08-07 12:14:50,825282
1,3,1,1,2,1,-1,1,2021-08-07 12:14:50,841282
-2,-2,-5,-8,-11,-9,-3,-1,2021-08-07 12:14:50,857322
-1,-2,-1,2,-3,-1,-1,-1,2021-08-07 12:14:50,857322
-4,-3,-1,-1,6,0,0,-1,2021-08-07 12:14:50,857322
1,3,4,10,11,5,1,1,2021-08-07 12:14:50,857322
-1,-3,-4,-6,-6,-1,-1,-1,2021-08-07 12:14:50,857322
-4,-1,-4,-9,-7,-5,-3,-4,2021-08-07 12:14:50,858283
-2,0,-1,-2,-2,-3,-1,0,2021-08-07 12:14:50,858283
4,4,3,4,5,4,2,1,2021-08-07 12:14:50,858283
-1,-2,-1,0,2,-1,-1,-2,2021-08-07 12:14:50,858283
-1,0,1,-2,-1,-2,0,1,2021-08-07 12:14:50,858283
-2,0,-1,5,0,0,0,0,2021-08-07 12:14:50,859283
-3,-4,0,-4,-5,-3,-2,-2,2021-08-07 12:14:50,859283
0,2,2,6,5,2,1,-1,2021-08-07 12:14:50,859283
-2,-3,-4,-7,-6,-3,-2,-2,2021-08-07 12:14:50,859283
-1,1,-2,-10,-11,-7,-3,-2,2021-08-07 12:14:50,859283
-1,-2,-3,-2,1,2,2,0,2021-08-07 12:14:50,859283
-1,-3,3,11,10,6,1,2,2021-08-07 12:14:50,860285
-2,-2,-2,3,4,3,1,-2,2021-08-07 12:14:50,860285
6,8,12,11,8,5,3,3,2021-08-07 12:14:50,860285
1,1,0,3,-5,-1,0,1,2021-08-07 12:14:50,860285
1,2,1,2,5,1,0,0,2021-08-07 12:14:50,860285
-3,-4,-7,-6,-5,-4,-3,-2,2021-08-07 12:14:50,860285
-3,-4,-1,4,2,-1,-2,-1,2021-08-07 12:14:50,860285
-1,-2,-3,-7,-8,-6,-3,-3,2021-08-07 12:14:50,860285
-1,-1,-5,-8,-5,-2,-1,0,2021-08-07 12:14:50,861311
0,-1,4,3,3,1,0,-1,2021-08-07 12:14:50,861311
-7,-9,-13,-22,-22,-12,-8,-6,2021-08-07 12:14:50,861311
5,7,6,8,19,11,7,5,2021-08-07 12:14:50,861311
4,6,13,21,15,8,4,2,2021-08-07 12:14:50,873310
0,0,-2,0,-2,-1,-1,0,2021-08-07 12:14:50,873310
-4,-9,-11,-11,-12,-7,-4,-2,2021-08-07 12:14:50,889284
-6,-9,-11,-19,-20,-12,-7,-4,2021-08-07 12:14:50,889284
4,7,4,1,-2,0,0,1,2021-08-07 12:14:50,889284
0,0,2,3,3,1,-1,0,2021-08-07 12:14:50,905292
-3,-6,-2,2,4,1,1,-2,2021-08-07 12:14:50,905292
3,4,1,5,6,4,0,1,2021-08-07 12:14:50,905292
1,3,3,-2,-2,0,1,1,2021-08-07 12:14:50,905292
1,1,0,3,2,1,0,1,2021-08-07 12:14:50,905292
-5,-5,-7,-8,-6,-3,-2,-3,2021-08-07 12:14:50,921285
-3,-2,-1,5,1,-1,-2,-2,2021-08-07 12:14:50,921285
-6,-7,-10,-12,-15,-10,-6,-4,2021-08-07 12:14:50,937315
1,0,3,7,12,6,1,2,2021-08-07 12:14:50,937315
8,10,12,22,25,14,7,7,2021-08-07 12:14:50,953284
-1,-4,-6,-10,-10,-4,0,-2,2021-08-07 12:14:50,969285
-2,-3,-3,3,7,1,1,-1,2021-08-07 12:14:50,985284
-5,-6,-7,-10,-15,-8,-4,-3,2021-08-07 12:14:50,985284
-4,-4,-3,-10,-6,-2,-3,-5,2021-08-07 12:14:50,985284
-2,1,5,9,7,3,-1,0,2021-08-07 12:14:50,985284
-1,2,2,-4,-7,-5,-2,-2,2021-08-07 12:14:50,985284
3,3,2,0,4,0,-1,-1,2021-08-07 12:14:50,985284
0,1,2,6,5,3,2,0,2021-08-07 12:14:50,985284
2,1,-1,-8,-10,-6,-1,0,2021-08-07 12:14:50,986312
-1,-5,-4,-6,-1,1,-1,-1,2021-08-07 12:14:50,986312
-2,-3,-7,-7,-6,-3,1,-1,2021-08-07 12:14:50,986312
0,-2,-2,-6,-6,-5,-3,0,2021-08-07 12:14:51,001285
2,4,6,10,13,8,3,1,2021-08-07 12:14:51,001285
-1,-4,-3,0,-1,-1,-2,-1,2021-08-07 12:14:51,001285
-3,-3,-2,-3,-3,-4,-2,-3,2021-08-07 12:14:51,002309
0,2,-1,-6,-6,-5,-3,-2,2021-08-07 12:14:51,033284
-5,-6,-7,-10,-10,-7,-6,-2,2021-08-07 12:14:51,049282
1,2,3,7,10,6,3,2,2021-08-07 12:14:51,065310
0,0,-4,-5,-5,-3,-1,0,2021-08-07 12:14:51,065310
-4,-4,0,3,0,-2,0,-3,2021-08-07 12:14:51,065310
-2,-2,-3,-13,-10,-6,-3,-2,2021-08-07 12:14:51,065310
0,0,2,11,9,3,0,-1,2021-08-07 12:14:51,065310
7,9,13,27,21,11,4,3,2021-08-07 12:14:51,065310
1,0,-2,-6,-6,-1,-2,-1,2021-08-07 12:14:51,065310
-1,0,1,2,-1,-1,0,-1,2021-08-07 12:14:51,066282
-4,-4,-5,-11,-12,-6,-2,-3,2021-08-07 12:14:51,066282
-3,-4,-4,-10,-8,-6,-2,-2,2021-08-07 12:14:51,066282
2,1,1,7,7,4,1,2,2021-08-07 12:14:51,097325
-3,-4,-3,-5,-5,-2,-1,-2,2021-08-07 12:14:51,097325
-1,-2,-2,-4,-1,-1,0,1,2021-08-07 12:14:51,097325
0,-1,-1,-3,-3,-2,-2,-1,2021-08-07 12:14:51,097325
0,-1,1,-2,-3,-2,-1,-2,2021-08-07 12:14:51,113310
-1,-1,-3,1,2,-2,0,0,2021-08-07 12:14:51,129311
-1,2,-1,-1,0,1,0,1,2021-08-07 12:14:51,129311
-3,-3,-1,-2,4,2,0,-2,2021-08-07 12:14:51,129311
-2,-3,-7,-4,-2,-2,-3,-1,2021-08-07 12:14:51,129311
1,1,0,-5,-4,-2,1,2,2021-08-07 12:14:51,129311
1,3,5,4,1,-1,-2,-2,2021-08-07 12:14:51,129311
-1,2,4,10,5,4,2,0,2021-08-07 12:14:51,130327
0,-1,1,7,5,2,-1,0,2021-08-07 12:14:51,161311
-5,-8,-5,-4,-5,-4,-6,-5,2021-08-07 12:14:51,177283
-3,0,-4,-11,-12,-7,-2,0,2021-08-07 12:14:51,177283
-2,-3,-6,-9,-6,-2,-1,-2,2021-08-07 12:14:51,177283
-1,0,-1,2,6,4,1,0,2021-08-07 12:14:51,177283
3,3,2,0,-2,0,1,1,2021-08-07 12:14:51,177283
-3,-3,-3,-1,-1,-2,-2,-1,2021-08-07 12:14:51,177283
-1,-2,0,3,3,-1,0,-1,2021-08-07 12:14:51,177283
-2,-1,-2,-7,-6,-3,0,-1,2021-08-07 12:14:51,193281
0,2,4,8,10,5,1,1,2021-08-07 12:14:51,209322
-2,-3,-5,-7,-5,-5,-2,0,2021-08-07 12:14:51,225283
3,3,2,5,3,2,1,0,2021-08-07 12:14:51,225283
-1,-3,-5,-3,-1,0,0,-2,2021-08-07 12:14:51,225283
-4,-3,-5,-10,-12,-9,-5,-3,2021-08-07 12:14:51,225283
-1,-3,-2,-10,-3,-1,-2,0,2021-08-07 12:14:51,225283
-1,-4,0,-1,0,-2,-1,1,2021-08-07 12:14:51,225283
1,0,4,7,3,0,-1,0,2021-08-07 12:14:51,226283
-2,-2,-1,7,4,2,-1,-2,2021-08-07 12:14:51,226283
2,4,6,5,5,4,2,1,2021-08-07 12:14:51,241281
0,1,-3,-5,-6,-4,-3,-1,2021-08-07 12:14:51,241281
-3,-5,-8,-7,-5,-4,-3,-2,2021-08-07 12:14:51,257322
-6,-5,-8,-13,-9,-7,-4,-3,2021-08-07 12:14:51,257322
-1,-2,-1,3,1,1,-2,-1,2021-08-07 12:14:51,289284
-2,-1,5,6,0,1,1,-1,2021-08-07 12:14:51,305332
2,2,3,8,14,7,4,1,2021-08-07 12:14:51,305332
2,1,4,4,1,2,2,1,2021-08-07 12:14:51,305332
0,1,1,3,5,1,1,-2,2021-08-07 12:14:51,305332
-1,0,1,-2,-4,-3,-3,-2,2021-08-07 12:14:51,306285
2,1,1,3,-1,1,-1,-1,2021-08-07 12:14:51,306285
-2,-3,-10,-9,-6,-1,-1,0,2021-08-07 12:14:51,321309
-4,-5,-8,-9,-3,-5,-3,-1,2021-08-07 12:14:51,321309
-5,-6,-6,-10,-12,-9,-6,-2,2021-08-07 12:14:51,321309
2,6,9,8,6,3,2,2,2021-08-07 12:14:51,321309
2,3,2,13,13,7,2,1,2021-08-07 12:14:51,321309
3,0,2,10,5,5,2,1,2021-08-07 12:14:51,322283
-2,-1,-2,-9,-9,-5,-3,-3,2021-08-07 12:14:51,322283
-3,-2,2,0,-3,-2,-1,-1,2021-08-07 12:14:51,322283
-1,-1,0,-3,-6,-2,-2,0,2021-08-07 12:14:51,322283
-7,-8,-12,-15,-17,-9,-6,-5,2021-08-07 12:14:51,337311
0,-1,0,0,5,2,1,1,2021-08-07 12:14:51,337311
1,0,4,5,1,0,0,-1,2021-08-07 12:14:51,353322
3,4,6,14,15,7,5,0,2021-08-07 12:14:51,353322
0,-2,-4,-7,-7,-2,-1,0,2021-08-07 12:14:51,369323
-1,-4,-4,-6,-6,-4,-1,0,2021-08-07 12:14:51,369323
-3,-3,-3,-8,-6,-3,-2,-2,2021-08-07 12:14:51,369323
-2,-2,1,5,3,-1,0,-3,2021-08-07 12:14:51,369323
0,2,2,-3,-3,0,-2,1,2021-08-07 12:14:51,369323
1,2,-1,4,10,6,5,0,2021-08-07 12:14:51,369323
-2,-1,-3,-11,-11,-5,-4,-2,2021-08-07 12:14:51,401282
-2,-2,-3,-3,-3,-4,-3,-2,2021-08-07 12:14:51,401282
-1,-7,-6,0,0,0,-1,-2,2021-08-07 12:14:51,401282
-2,0,-1,-3,-5,-4,-1,-2,2021-08-07 12:14:51,401282
-4,-1,-2,-4,-5,-3,-1,-2,2021-08-07 12:14:51,417309
2,3,7,10,10,3,3,2,2021-08-07 12:14:51,417309
-1,0,3,6,5,2,0,-1,2021-08-07 12:14:51,417309
-4,-7,-11,-9,-11,-5,-4,-2,2021-08-07 12:14:51,417309
-6,-9,-13,-18,-19,-9,-6,-4,2021-08-07 12:14:51,433319
3,3,7,9,18,9,3,3,2021-08-07 12:14:51,433319
3,5,8,8,5,3,3,1,2021-08-07 12:14:51,433319
1,1,1,0,0,1,0,0,2021-08-07 12:14:51,433319
2,0,0,3,0,-3,0,1,2021-08-07 12:14:51,449283
-1,-3,-6,-16,-15,-6,-4,1,2021-08-07 12:14:51,449283
-1,-1,3,4,6,1,1,0,2021-08-07 12:14:51,464282
-5,-4,-4,-12,-15,-9,-4,-4,2021-08-07 12:14:51,465293
-3,-4,-2,2,11,4,-1,-1,2021-08-07 12:14:51,465293
3,2,2,11,8,2,1,-1,2021-08-07 12:14:51,465293
2,2,-1,-2,-3,-1,-1,0,2021-08-07 12:14:51,465293
