EMG 1,EMG 2,EMG 3,EMG 4,EMG 5,EMG 6,EMG 7,EMG 8,Timestamp,Milliseconds
-4,-4,-3,-2,1,-1,-2,-3,2021-08-07 12:15:55,003459
0,2,2,2,4,2,1,2,2021-08-07 12:15:55,019458
1,-1,1,0,-2,0,-1,-1,2021-08-07 12:15:55,035458
1,2,-2,2,7,4,3,2,2021-08-07 12:15:55,035458
-1,-3,-5,-4,-4,-3,-1,0,2021-08-07 12:15:55,035458
-3,-4,-3,-6,-6,-6,-4,-2,2021-08-07 12:15:55,035458
2,3,0,1,-1,1,0,1,2021-08-07 12:15:55,035458
-5,-7,-5,-10,-8,-7,-5,-6,2021-08-07 12:15:55,035458
0,0,2,2,-1,-1,-2,-1,2021-08-07 12:15:55,036459
0,1,0,3,2,1,1,-1,2021-08-07 12:15:55,036459
0,0,-3,-3,-2,-1,-1,0,2021-08-07 12:15:55,036459
0,-1,0,2,3,2,0,2,2021-08-07 12:15:55,036459
-1,-1,0,-1,1,-1,0,-1,2021-08-07 12:15:55,036459
-3,-3,-2,-1,-4,-2,-3,-2,2021-08-07 12:15:55,036459
-2,-1,-3,-7,-5,-4,-1,0,2021-08-07 12:15:55,037459
0,-1,4,10,11,4,2,1,2021-08-07 12:15:55,037459
-2,-3,-1,-6,-7,-3,-2,-2,2021-08-07 12:15:55,037459
2,3,6,12,13,7,3,1,2021-08-07 12:15:55,037459
2,1,-1,-1,-2,-2,1,1,2021-08-07 12:15:55,051459
-1,0,-1,-4,-5,-3,-1,-1,2021-08-07 12:15:55,051459
0,1,1,6,1,1,1,-1,2021-08-07 12:15:55,051459
-3,-3,-4,-5,-3,-1,-2,-3,2021-08-07 12:15:55,051459
-5,-6,-4,-3,0,-1,-2,-2,2021-08-07 12:15:55,067457
1,1,-1,-4,-5,-2,0,0,2021-08-07 12:15:55,067457
-1,0,2,5,3,2,0,0,2021-08-07 12:15:55,130459
-3,-4,-2,-4,-6,-4,-3,-3,2021-08-07 12:15:55,130459
-1,-1,-2,3,5,2,0,1,2021-08-07 12:15:55,130459
-3,-3,0,-1,-1,-1,-2,-2,2021-08-07 12:15:55,130459
0,-3,-3,-2,-2,-1,-1,0,2021-08-07 12:15:55,130459
1,1,1,1,3,0,1,0,2021-08-07 12:15:55,130459
-3,-2,-2,-5,-6,-5,-3,-3,2021-08-07 12:15:55,131459
-4,-6,-5,-14,-13,-7,-4,-3,2021-08-07 12:15:55,131459
5,5,9,16,19,10,4,2,2021-08-07 12:15:55,131459
-1,-2,-3,-6,-9,-4,-3,0,2021-08-07 12:15:55,131459
-1,-1,1,6,7,1,-1,-2,2021-08-07 12:15:55,131459
1,3,2,1,1,2,1,2,2021-08-07 12:15:55,131459
-5,-5,-7,-16,-14,-7,-3,-5,2021-08-07 12:15:55,132458
-1,3,1,2,0,1,1,0,2021-08-07 12:15:55,132458
0,-2,2,1,2,0,-2,0,2021-08-07 12:15:55,146459
-1,-2,-1,5,2,-1,-3,-2,2021-08-07 12:15:55,162459
3,3,1,1,-1,0,2,1,2021-08-07 12:15:55,192457
1,-2,-1,-1,-1,-1,-1,-2,2021-08-07 12:15:55,192457
-3,-4,-5,-9,-8,-5,-2,-2,2021-08-07 12:15:55,193458
-7,-7,-4,-2,0,-4,-3,-6,2021-08-07 12:15:55,193458
5,7,5,2,1,3,2,3,2021-08-07 12:15:55,193458
1,2,3,3,4,2,2,1,2021-08-07 12:15:55,193458
-4,-5,-3,-5,-6,-3,-3,-4,2021-08-07 12:15:55,193458
0,1,-2,-6,-4,-3,-3,-2,2021-08-07 12:15:55,193458
-3,-4,-1,6,3,-1,-3,-1,2021-08-07 12:15:55,194461
1,3,1,-1,-3,-2,-2,1,2021-08-07 12:15:55,194461
3,3,1,2,2,3,1,2,2021-08-07 12:15:55,225457
-1,-1,-3,-4,-1,-4,-1,-3,2021-08-07 12:15:55,225457
0,0,3,11,9,4,1,1,2021-08-07 12:15:55,225457
-2,-2,2,4,3,2,-1,0,2021-08-07 12:15:55,225457
-2,-4,-5,-9,-8,-5,-3,-4,2021-08-07 12:15:55,241457
2,2,3,2,-3,-1,0,0,2021-08-07 12:15:55,257459
1,1,1,-1,7,3,0,2,2021-08-07 12:15:55,273458
-2,-4,-3,0,-1,0,0,-2,2021-08-07 12:15:55,273458
0,1,-1,1,-2,0,-1,-1,2021-08-07 12:15:55,273458
1,-1,-1,-2,-1,1,2,1,2021-08-07 12:15:55,273458
-4,-6,-6,-11,-9,-4,-5,-3,2021-08-07 12:15:55,273458
0,0,1,1,2,0,0,1,2021-08-07 12:15:55,273458
2,5,5,3,5,4,2,1,2021-08-07 12:15:55,274458
-3,-7,-6,-1,-3,-3,-2,-1,2021-08-07 12:15:55,274458
5,3,-3,-17,-15,-9,-2,0,2021-08-07 12:15:55,274458
3,2,4,6,5,4,1,0,2021-08-07 12:15:55,274458
1,0,7,19,21,11,5,1,2021-08-07 12:15:55,305459
-1,0,3,7,4,2,0,0,2021-08-07 12:15:55,305459
-2,-1,-1,3,-2,-2,-2,-2,2021-08-07 12:15:55,305459
-6,-5,-8,-16,-16,-10,-6,-4,2021-08-07 12:15:55,305459
-3,-2,-2,-7,-9,-4,-2,-1,2021-08-07 12:15:55,305459
-1,-1,0,0,4,1,0,0,2021-08-07 12:15:55,305459
-2,-2,-4,-6,-3,-1,-1,0,2021-08-07 12:15:55,321459
-1,-1,-2,1,-1,0,-1,-2,2021-08-07 12:15:55,321459
-1,-3,-4,-3,-3,-2,-3,-2,2021-08-07 12:15:55,337458
-2,1,-2,-4,-5,-2,0,-1,2021-08-07 12:15:55,353461
-2,-2,-4,-11,-9,-6,0,-2,2021-08-07 12:15:55,353461
1,1,5,9,6,3,1,1,2021-08-07 12:15:55,353461
-5,-4,-3,-3,-2,-3,-3,-3,2021-08-07 12:15:55,353461
5,6,5,2,1,3,1,1,2021-08-07 12:15:55,353461
-2,-3,-1,2,0,-4,-3,-3,2021-08-07 12:15:55,353461
-3,-4,0,6,12,6,1,-1,2021-08-07 12:15:55,354459
3,1,-2,-7,-13,-7,0,1,2021-08-07 12:15:55,384457
-1,-2,-5,-6,-6,-2,-1,0,2021-08-07 12:15:55,384457
-1,1,3,8,1,0,1,-1,2021-08-07 12:15:55,384457
-5,-6,-12,-24,-20,-11,-5,-4,2021-08-07 12:15:55,384457
4,4,8,19,19,12,5,3,2021-08-07 12:15:55,400458
2,2,3,2,3,1,0,1,2021-08-07 12:15:55,416459
-3,-3,0,1,-1,-1,-1,-3,2021-08-07 12:15:55,464459
-2,-1,-4,-6,-6,-4,-2,-3,2021-08-07 12:15:55,464459
-1,-3,-6,-12,-10,-8,-2,-2,2021-08-07 12:15:55,480457
-2,-2,0,4,0,0,-2,-2,2021-08-07 12:15:55,480457
0,0,0,4,9,4,1,1,2021-08-07 12:15:55,480457
1,0,-2,-6,-7,-4,0,-1,2021-08-07 12:15:55,480457
-3,-2,-5,-9,-6,-3,-3,-3,2021-08-07 12:15:55,480457
1,1,5,13,12,6,1,1,2021-08-07 12:15:55,480457
0,-1,-4,-8,-11,-5,-4,0,2021-08-07 12:15:55,481460
0,-1,-2,1,2,0,0,0,2021-08-07 12:15:55,481460
1,1,3,5,3,1,-1,1,2021-08-07 12:15:55,481460
-3,-4,-8,-15,-14,-7,-3,-3,2021-08-07 12:15:55,481460
-1,0,0,-1,8,2,2,-1,2021-08-07 12:15:55,481460
6,6,11,22,19,9,5,3,2021-08-07 12:15:55,481460
0,1,1,0,-5,-4,-3,-2,2021-08-07 12:15:55,482459
-7,-6,-6,-7,-6,-4,-3,-5,2021-08-07 12:15:55,482459
-2,-3,-5,-4,-4,-2,-1,0,2021-08-07 12:15:55,482459
0,0,-1,-5,-4,-3,-1,1,2021-08-07 12:15:55,482459
-3,-4,-7,-16,-11,-4,-2,-1,2021-08-07 12:15:55,495459
2,1,5,12,13,6,2,2,2021-08-07 12:15:55,511459
-2,-2,0,1,-1,-2,-3,-2,2021-08-07 12:15:55,543459
-2,-2,-2,2,-2,-2,-2,-3,2021-08-07 12:15:55,558457
-5,-2,-5,-9,-8,-2,-3,-3,2021-08-07 12:15:55,574459
1,3,3,7,11,3,2,2,2021-08-07 12:15:55,574459
-1,1,4,7,4,2,1,1,2021-08-07 12:15:55,574459
0,-3,-1,2,6,3,-1,0,2021-08-07 12:15:55,574459
1,-3,-2,-6,-7,-4,-1,-2,2021-08-07 12:15:55,574459
0,-3,-2,-6,-8,-5,-3,-3,2021-08-07 12:15:55,574459
2,2,2,0,2,2,1,1,2021-08-07 12:15:55,574459
-1,-1,0,-1,-1,-3,-3,-2,2021-08-07 12:15:55,575459
-4,-4,-4,-5,-5,-2,-3,-2,2021-08-07 12:15:55,575459
3,2,6,13,14,7,3,2,2021-08-07 12:15:55,590457
-2,-3,-4,-4,-4,-4,-2,-2,2021-08-07 12:15:55,590457
-5,-6,-5,-9,-10,-6,-4,-4,2021-08-07 12:15:55,590457
2,2,4,1,2,1,2,2,2021-08-07 12:15:55,590457
0,0,0,5,9,3,2,-1,2021-08-07 12:15:55,590457
-2,0,0,-9,-11,-3,-3,-2,2021-08-07 12:15:55,590457
-3,-2,3,11,7,1,-1,-4,2021-08-07 12:15:55,591459
-1,0,-1,4,8,3,-1,-2,2021-08-07 12:15:55,591459
-4,-3,-8,-14,-11,-5,-2,-1,2021-08-07 12:15:55,591459
-1,-3,-2,-1,0,0,-1,-1,2021-08-07 12:15:55,606458
1,1,-4,-10,-4,-1,0,1,2021-08-07 12:15:55,606458
-1,-1,-1,2,-8,-5,-3,-1,2021-08-07 12:15:55,622459
1,0,2,1,9,6,2,2,2021-08-07 12:15:55,622459
-1,-4,-1,6,13,4,1,-2,2021-08-07 12:15:55,622459
-4,-4,-5,-7,-6,-3,-1,-3,2021-08-07 12:15:55,622459
0,2,-1,3,0,0,0,0,2021-08-07 12:15:55,638457
-2,-2,-6,-11,-14,-10,-4,-5,2021-08-07 12:15:55,642458
1,0,-1,0,-1,-2,1,-1,2021-08-07 12:15:55,642458
3,1,-1,0,1,1,-1,2,2021-08-07 12:15:55,643460
-1,-4,-3,-4,-2,-2,-1,0,2021-08-07 12:15:55,668459
-5,-6,-5,-6,-8,-6,-2,-2,2021-08-07 12:15:55,684457
-2,1,2,6,8,5,0,-1,2021-08-07 12:15:55,684457
-4,2,5,7,4,-1,-3,-5,2021-08-07 12:15:55,684457
1,3,2,1,1,-1,-2,0,2021-08-07 12:15:55,684457
0,3,3,1,-2,-2,-3,0,2021-08-07 12:15:55,684457
0,-1,-3,-7,-11,-7,-3,-2,2021-08-07 12:15:55,684457
1,1,-1,-2,-4,-1,0,2,2021-08-07 12:15:55,685460
-2,-3,-2,-1,2,0,0,-2,2021-08-07 12:15:55,700460
-4,-6,-5,-6,-8,-5,-1,-3,2021-08-07 12:15:55,716458
1,2,2,3,2,2,0,0,2021-08-07 12:15:55,748459
-1,0,1,2,2,1,1,1,2021-08-07 12:15:55,748459
1,1,1,-7,-8,-3,-1,0,2021-08-07 12:15:55,748459
4,5,8,17,17,9,5,2,2021-08-07 12:15:55,764458
-1,-1,-1,-7,-6,-1,-1,-2,2021-08-07 12:15:55,764458
-3,-3,-2,3,3,-1,-1,-1,2021-08-07 12:15:55,764458
-5,-5,-5,-3,-2,-3,-2,-3,2021-08-07 12:15:55,764458
0,0,-3,-7,-6,-3,-3,-1,2021-08-07 12:15:55,764458
0,-1,-3,-2,-4,-4,-3,1,2021-08-07 12:15:55,765459
0,0,-2,-7,-2,1,-1,0,2021-08-07 12:15:55,765459
-1,-1,0,1,2,1,0,-1,2021-08-07 12:15:55,765459
0,-1,-3,-6,-5,-2,-1,-1,2021-08-07 12:15:55,780458
-2,-4,0,5,0,-1,-1,-3,2021-08-07 12:15:55,796459
4,3,-2,-11,-13,-6,-2,1,2021-08-07 12:15:55,796459
0,1,5,13,13,6,0,0,2021-08-07 12:15:55,796459
-1,-1,-5,-10,-5,-2,-1,0,2021-08-07 12:15:55,796459
0,1,1,6,2,1,0,-1,2021-08-07 12:15:55,796459
0,-2,-2,-2,-3,-1,-2,-1,2021-08-07 12:15:55,796459
-2,-4,-3,-4,-4,-4,-2,-2,2021-08-07 12:15:55,796459
-1,-1,-1,-5,-3,-2,-3,-2,2021-08-07 12:15:55,797460
0,0,-1,0,1,0,0,1,2021-08-07 12:15:55,797460
-3,-3,-2,-5,-3,-4,-2,-4,2021-08-07 12:15:55,797460
0,2,0,5,4,3,1,1,2021-08-07 12:15:55,827460
-1,-2,1,-5,-8,-4,-2,0,2021-08-07 12:15:55,827460
-2,-1,-1,0,0,0,-2,-1,2021-08-07 12:15:55,827460
0,2,3,5,4,3,1,2,2021-08-07 12:15:55,827460
-3,-3,-2,-4,-9,-6,-3,-3,2021-08-07 12:15:55,843459
2,0,1,1,2,3,0,1,2021-08-07 12:15:55,859458
2,1,0,1,-1,-1,2,-1,2021-08-07 12:15:55,874459
-1,-3,-1,-2,0,0,-1,-1,2021-08-07 12:15:55,874459
-3,-4,-6,-3,-1,-3,-3,-3,2021-08-07 12:15:55,874459
4,6,3,-1,2,0,1,4,2021-08-07 12:15:55,874459
2,2,2,-3,0,1,1,1,2021-08-07 12:15:55,874459
-1,-2,-2,-1,1,0,-3,-2,2021-08-07 12:15:55,874459
0,0,-1,-2,-1,0,-1,0,2021-08-07 12:15:55,875458
-4,-6,-3,-1,-3,-2,-3,-4,2021-08-07 12:15:55,875458
-1,-2,-6,-8,-8,-4,-1,1,2021-08-07 12:15:55,875458
7,10,7,5,11,7,7,5,2021-08-07 12:15:55,875458
1,1,4,7,5,3,2,-1,2021-08-07 12:15:55,904458
-2,-3,-5,-4,-4,-3,-3,-3,2021-08-07 12:15:55,904458
1,1,2,4,1,1,-1,-1,2021-08-07 12:15:55,904458
-5,-6,-6,-5,-7,-4,-4,-3,2021-08-07 12:15:55,904458
1,1,-2,-5,-6,-2,-2,1,2021-08-07 12:15:55,920458
-1,0,4,7,7,3,2,0,2021-08-07 12:15:55,936459
-5,-6,-3,-4,2,-2,-1,-2,2021-08-07 12:15:55,936459
2,2,0,1,-2,-1,1,2,2021-08-07 12:15:55,936459
0,-1,-1,-5,-3,-1,-2,-1,2021-08-07 12:15:55,936459
-3,-3,-6,-13,-14,-8,-4,-4,2021-08-07 12:15:55,936459
2,4,6,9,12,7,1,2,2021-08-07 12:15:55,936459
-3,-2,1,8,6,3,0,-3,2021-08-07 12:15:55,937464
-2,-1,1,4,1,-1,-1,-2,2021-08-07 12:15:55,967458
-2,-3,-5,-6,-7,-3,-3,-1,2021-08-07 12:15:55,983459
0,1,-3,-7,-8,-4,-3,0,2021-08-07 12:15:55,999459
0,-3,0,5,4,1,-2,1,2021-08-07 12:15:56,015458
1,1,1,1,7,2,2,0,2021-08-07 12:15:56,031459
1,2,3,7,3,2,0,0,2021-08-07 12:15:56,047459
-3,-1,-2,-3,-6,-3,-2,-3,2021-08-07 12:15:56,063457
-1,-1,-3,-8,-4,-3,1,0,2021-08-07 12:15:56,063457
2,1,3,3,2,2,3,2,2021-08-07 12:15:56,063457
2,1,2,5,3,2,0,-1,2021-08-07 12:15:56,063457
-3,-3,-3,-6,-4,-5,-2,-2,2021-08-07 12:15:56,063457
-6,-5,-5,-10,-9,-8,-6,-5,2021-08-07 12:15:56,064459
2,1,3,3,2,1,1,2,2021-08-07 12:15:56,064459
1,2,2,2,2,3,4,1,2021-08-07 12:15:56,064459
0,-2,-2,-3,-9,-7,-4,-3,2021-08-07 12:15:56,064459
-3,-5,-3,-4,-1,-1,-2,-4,2021-08-07 12:15:56,064459
-1,1,1,2,4,2,1,0,2021-08-07 12:15:56,064459
-1,-2,2,3,6,0,-3,-1,2021-08-07 12:15:56,064459
4,6,5,5,3,4,4,2,2021-08-07 12:15:56,064459
-2,-1,-4,-4,-4,-4,-3,-1,2021-08-07 12:15:56,065458
-1,-2,-3,-4,-4,-3,-2,-3,2021-08-07 12:15:56,065458
-1,0,-3,-4,-3,-3,-2,1,2021-08-07 12:15:56,065458
-2,-4,-3,-2,-2,-2,1,-1,2021-08-07 12:15:56,065458
-3,-3,-2,0,-2,-2,-2,-2,2021-08-07 12:15:56,065458
-3,-2,-4,-7,-6,-5,-3,-2,2021-08-07 12:15:56,094458
1,0,0,-1,-3,-1,0,0,2021-08-07 12:15:56,103457
-2,-3,2,8,5,3,-2,-2,2021-08-07 12:15:56,104459
0,-1,-4,-16,-17,-6,-1,-2,2021-08-07 12:15:56,104459
2,1,9,24,29,13,4,1,2021-08-07 12:15:56,104459
1,3,-1,-3,2,0,0,0,2021-08-07 12:15:56,104459
-1,0,-1,3,1,0,0,-1,2021-08-07 12:15:56,104459
-4,-3,-5,-6,-8,-4,-4,-2,2021-08-07 12:15:56,105459
-2,-3,-3,-14,-19,-10,-7,-1,2021-08-07 12:15:56,125458
-1,-1,-2,0,4,2,1,1,2021-08-07 12:15:56,125458
0,0,2,2,3,0,-1,1,2021-08-07 12:15:56,125458
1,2,2,3,5,2,0,0,2021-08-07 12:15:56,125458
-7,-8,-8,-11,-7,-3,-2,-4,2021-08-07 12:15:56,157458
4,8,9,11,8,4,4,4,2021-08-07 12:15:56,157458
-3,-4,-7,-11,-12,-6,-2,-4,2021-08-07 12:15:56,172460
5,4,6,18,23,13,9,6,2021-08-07 12:15:56,172460
3,2,-1,-1,-3,1,-1,1,2021-08-07 12:15:56,172460
-8,-8,-6,-7,-7,-9,-11,-8,2021-08-07 12:15:56,172460
-4,-2,-3,-3,-6,-5,-4,-4,2021-08-07 12:15:56,188457
-1,-1,-1,-1,-3,-3,-3,-3,2021-08-07 12:15:56,188457
-3,-5,-5,-1,-2,-1,-1,-1,2021-08-07 12:15:56,188457
3,2,0,-2,-1,3,6,4,2021-08-07 12:15:56,188457
-1,-3,-2,-9,-7,-3,-3,-1,2021-08-07 12:15:56,188457
0,0,2,4,3,0,-1,0,2021-08-07 12:15:56,188457
3,3,4,7,9,4,3,0,2021-08-07 12:15:56,235460
-1,-2,-2,0,-3,-2,-2,-3,2021-08-07 12:15:56,235460
-2,-3,-6,-4,-1,-2,-2,-3,2021-08-07 12:15:56,235460
2,2,-2,-10,-7,-4,-2,1,2021-08-07 12:15:56,235460
-3,-1,-6,-15,-18,-10,-4,-3,2021-08-07 12:15:56,235460
3,2,8,27,27,12,5,1,2021-08-07 12:15:56,236457
0,0,0,4,9,7,3,1,2021-08-07 12:15:56,236457
-2,-3,-1,4,1,2,-1,-1,2021-08-07 12:15:56,236457
-3,-3,-3,-6,-10,-6,-5,-3,2021-08-07 12:15:56,236457
-1,-1,-3,-8,-10,-5,-3,-1,2021-08-07 12:15:56,236457
1,-2,-3,1,2,0,0,1,2021-08-07 12:15:56,236457
-3,-1,-1,-5,-6,-4,-2,-2,2021-08-07 12:15:56,237457
2,1,-1,3,5,1,0,4,2021-08-07 12:15:56,267458
-2,-3,-3,-5,-8,-3,-2,-1,2021-08-07 12:15:56,267458
-3,-3,-3,-4,-5,-5,-3,-3,2021-08-07 12:15:56,283457
-4,-5,-7,-6,-6,-3,-3,-5,2021-08-07 12:15:56,283457
8,11,8,-2,-2,2,4,5,2021-08-07 12:15:56,283457
4,3,7,17,13,6,3,2,2021-08-07 12:15:56,283457
2,0,2,0,0,0,0,-1,2021-08-07 12:15:56,283457
-2,-1,0,5,5,1,0,-2,2021-08-07 12:15:56,284461
-7,-8,-9,-8,-5,-5,-4,-6,2021-08-07 12:15:56,315458
-3,-4,-4,-11,-12,-5,-2,-1,2021-08-07 12:15:56,315458
3,3,3,0,1,1,1,3,2021-08-07 12:15:56,315458
1,-1,-3,-5,-6,-3,-1,-1,2021-08-07 12:15:56,315458
-2,-5,-1,1,2,-1,-1,-1,2021-08-07 12:15:56,331458
-2,0,-3,-1,-3,-3,-1,0,2021-08-07 12:15:56,347458
-1,0,0,4,11,6,1,-1,2021-08-07 12:15:56,379458
2,2,2,0,0,0,2,0,2021-08-07 12:15:56,394458
-2,0,1,0,-4,-2,-2,-2,2021-08-07 12:15:56,410459
-1,0,-1,-7,-5,-2,0,-1,2021-08-07 12:15:56,410459
-4,-5,-3,-4,-2,-3,-4,-2,2021-08-07 12:15:56,410459
3,4,3,5,5,2,0,2,2021-08-07 12:15:56,410459
-1,0,-1,2,3,2,0,-2,2021-08-07 12:15:56,410459
-6,-8,-6,-11,-11,-7,-4,-4,2021-08-07 12:15:56,410459
0,3,2,-1,-2,0,1,1,2021-08-07 12:15:56,411459
-1,0,0,1,1,0,0,-2,2021-08-07 12:15:56,411459
0,0,-3,1,-3,0,-1,-1,2021-08-07 12:15:56,411459
0,1,1,-1,3,2,2,0,2021-08-07 12:15:56,411459
-1,-2,-3,-1,1,-2,-2,-2,2021-08-07 12:15:56,411459
-5,-5,-5,-13,-9,-7,-5,-5,2021-08-07 12:15:56,411459
3,2,4,15,13,6,4,2,2021-08-07 12:15:56,412459
-3,-3,-6,-5,-7,-3,-3,-2,2021-08-07 12:15:56,412459
1,0,-1,-1,-2,-2,-1,-2,2021-08-07 12:15:56,412459
-3,-4,-4,-4,-5,-3,-4,-1,2021-08-07 12:15:56,412459
-3,-1,-1,-5,-3,-3,-1,-1,2021-08-07 12:15:56,426460
0,1,1,2,5,3,3,0,2021-08-07 12:15:56,442460
-1,2,0,0,-5,-3,-2,0,2021-08-07 12:15:56,442460
0,0,-2,-2,-3,0,0,-2,2021-08-07 12:15:56,442460
-3,-3,-4,-8,-1,-1,0,-2,2021-08-07 12:15:56,442460
3,2,3,11,9,4,4,3,2021-08-07 12:15:56,442460
-2,0,1,2,-1,-2,0,-2,2021-08-07 12:15:56,443461
-2,-3,-1,1,-4,-3,-2,-1,2021-08-07 12:15:56,443461
-2,0,-2,-4,-1,-1,-2,-1,2021-08-07 12:15:56,458457
1,-2,0,1,5,-1,-2,1,2021-08-07 12:15:56,458457
-2,-1,-1,-4,-3,-3,-1,-1,2021-08-07 12:15:56,474459
0,-1,1,3,3,0,-2,0,2021-08-07 12:15:56,474459
-3,-5,-5,-7,-9,-5,-4,-4,2021-08-07 12:15:56,490460
4,6,4,-2,0,0,-2,1,2021-08-07 12:15:56,506458
0,-2,-3,-1,-1,0,0,0,2021-08-07 12:15:56,522459
0,0,3,3,2,0,0,-1,2021-08-07 12:15:56,522459
0,-3,-1,-1,-3,-1,-1,-1,2021-08-07 12:15:56,538458
1,2,2,3,-1,0,0,0,2021-08-07 12:15:56,553462
1,2,-4,-6,-4,0,0,1,2021-08-07 12:15:56,553462
0,-2,-1,2,2,1,0,1,2021-08-07 12:15:56,553462
1,-3,-3,2,1,0,1,1,2021-08-07 12:15:56,553462
-3,-4,-3,-4,-2,-1,0,-2,2021-08-07 12:15:56,553462
-6,-4,-2,-2,-2,-1,-2,-4,2021-08-07 12:15:56,553462
-3,0,2,3,4,2,-2,-4,2021-08-07 12:15:56,554460
-3,4,1,2,0,-2,-2,-2,2021-08-07 12:15:56,554460
-1,-3,-4,-6,-8,-6,-5,-4,2021-08-07 12:15:56,554460
0,-6,-3,-3,-4,-3,-2,0,2021-08-07 12:15:56,554460
1,3,-2,-1,1,-1,1,2,2021-08-07 12:15:56,554460
0,0,2,-1,-1,0,-1,0,2021-08-07 12:15:56,562459
-1,0,-3,0,1,1,0,-1,2021-08-07 12:15:56,562459
-1,-1,-1,-2,-1,-3,-1,-2,2021-08-07 12:15:56,562459
1,-2,-1,1,2,0,0,-1,2021-08-07 12:15:56,563459
-1,-1,3,6,2,0,-1,-1,2021-08-07 12:15:56,585459
0,-1,-5,-6,-4,-3,0,0,2021-08-07 12:15:56,601459
0,3,3,3,5,2,-1,1,2021-08-07 12:15:56,601459
-1,0,-1,-2,-2,0,0,0,2021-08-07 12:15:56,601459
0,1,-2,-6,0,0,1,0,2021-08-07 12:15:56,601459
-3,-5,0,4,5,1,-1,-1,2021-08-07 12:15:56,601459
-5,-7,-6,-5,-6,-6,-7,-6,2021-08-07 12:15:56,602459
-1,-3,-5,-3,-3,-3,0,-1,2021-08-07 12:15:56,602459
3,4,3,3,-1,0,0,1,2021-08-07 12:15:56,633459
0,1,2,2,0,1,0,-1,2021-08-07 12:15:56,649458
0,-2,-3,-1,-3,-1,0,-2,2021-08-07 12:15:56,665460
-2,-3,-2,-1,-3,-1,-2,-2,2021-08-07 12:15:56,665460
-5,-6,-4,-4,-5,-4,-3,-4,2021-08-07 12:15:56,665460
2,1,0,-1,1,0,0,2,2021-08-07 12:15:56,665460
2,1,-2,-1,2,1,1,1,2021-08-07 12:15:56,681457
-2,-2,-1,-1,-5,-2,-1,-2,2021-08-07 12:15:56,697459
-1,-1,0,2,0,1,-1,-1,2021-08-07 12:15:56,713457
-5,-6,-7,-15,-10,-5,-5,-3,2021-08-07 12:15:56,728457
-2,0,2,3,-3,0,-1,-1,2021-08-07 12:15:56,744458
2,5,6,13,21,10,5,5,2021-08-07 12:15:56,744458
0,-3,-2,-2,-5,-3,-1,-1,2021-08-07 12:15:56,744458
-2,-2,-2,-8,-3,-1,-2,-3,2021-08-07 12:15:56,744458
-1,-1,1,3,-1,-2,0,-2,2021-08-07 12:15:56,744458
0,3,-2,-4,-6,-2,-2,-1,2021-08-07 12:15:56,744458
-3,-5,-4,-6,-3,-3,-2,-2,2021-08-07 12:15:56,745459
1,2,1,3,5,2,1,0,2021-08-07 12:15:56,745459
-1,1,2,0,-2,0,-1,1,2021-08-07 12:15:56,745459
-4,-6,-3,-2,-2,-2,-4,-3,2021-08-07 12:15:56,745459
0,-1,-2,-5,0,1,1,1,2021-08-07 12:15:56,745459
2,2,-1,-2,-3,-3,-1,0,2021-08-07 12:15:56,745459
-1,-1,-2,2,4,0,1,-1,2021-08-07 12:15:56,745459
-4,-4,-2,-6,-4,-4,-3,-2,2021-08-07 12:15:56,746459
-5,-7,-5,-6,-3,-2,-3,-4,2021-08-07 12:15:56,746459
1,3,3,1,-5,-2,0,0,2021-08-07 12:15:56,746459
3,3,6,14,17,8,4,3,2021-08-07 12:15:56,746459
-3,-5,-6,-10,-13,-7,-3,-3,2021-08-07 12:15:56,746459
-2,0,4,6,10,2,0,-2,2021-08-07 12:15:56,760460
0,0,-3,0,1,-1,-1,0,2021-08-07 12:15:56,760460
-4,-5,-5,-16,-14,-8,-3,-3,2021-08-07 12:15:56,760460
2,5,7,13,7,5,2,1,2021-08-07 12:15:56,760460
0,-1,-1,-1,0,-2,-2,-1,2021-08-07 12:15:56,792459
0,1,2,4,-2,-1,0,0,2021-08-07 12:15:56,792459
2,0,-1,-4,-3,-1,3,1,2021-08-07 12:15:56,792459
-4,-4,-5,-8,-5,-3,-5,-3,2021-08-07 12:15:56,792459
-2,1,4,5,4,-2,-6,-4,2021-08-07 12:15:56,824458
-6,-5,-6,-8,-6,-6,-6,-6,2021-08-07 12:15:56,824458
-2,-1,-3,-6,-5,-4,-2,-2,2021-08-07 12:15:56,824458
1,1,3,2,-2,-1,2,1,2021-08-07 12:15:56,824458
-2,-1,-3,-1,-4,-1,2,0,2021-08-07 12:15:56,824458
1,2,3,6,4,3,1,-1,2021-08-07 12:15:56,840459
-1,-1,0,3,2,1,-1,0,2021-08-07 12:15:56,840459
-1,-1,-7,-18,-12,-5,-2,-1,2021-08-07 12:15:56,840459
2,6,10,18,9,5,3,3,2021-08-07 12:15:56,840459
-5,-6,-3,-5,-6,-6,-7,-4,2021-08-07 12:15:56,840459
-1,0,0,4,2,-2,-2,-2,2021-08-07 12:15:56,856459
-2,-2,-1,-2,-4,-2,-2,-1,2021-08-07 12:15:56,856459
-3,-7,-6,-8,-6,-2,-1,-1,2021-08-07 12:15:56,872459
5,8,8,5,2,4,6,4,2021-08-07 12:15:56,872459
-1,-1,0,0,1,2,3,0,2021-08-07 12:15:56,872459
-1,-3,-1,4,1,1,1,-2,2021-08-07 12:15:56,872459
2,3,0,0,4,2,-1,1,2021-08-07 12:15:56,872459
-6,-7,-3,-3,-3,-7,-11,-8,2021-08-07 12:15:56,873459
-2,-2,-2,-5,-5,-4,-5,-2,2021-08-07 12:15:56,888459
2,0,-1,2,1,1,2,0,2021-08-07 12:15:56,888459
2,-2,-5,-12,-4,0,3,2,2021-08-07 12:15:56,904457
0,-1,1,8,7,5,2,2,2021-08-07 12:15:56,904457
-1,-1,1,5,3,0,1,-1,2021-08-07 12:15:56,904457
2,2,3,3,2,0,0,1,2021-08-07 12:15:56,904457
3,4,2,-2,-6,-1,1,2,2021-08-07 12:15:56,936459
-1,1,-1,5,5,1,0,-1,2021-08-07 12:15:56,952459
-2,-3,-5,-9,-6,-4,-5,-4,2021-08-07 12:15:56,967458
0,0,0,4,10,1,0,1,2021-08-07 12:15:56,967458
-1,1,0,0,-3,-2,0,-2,2021-08-07 12:15:56,967458
-2,-6,-6,-6,-6,-2,1,-1,2021-08-07 12:15:56,967458
-3,-5,-4,-6,-7,-3,-3,-2,2021-08-07 12:15:56,967458
2,2,1,-2,-1,-1,-2,-1,2021-08-07 12:15:56,968458
-1,0,-2,-2,-4,-3,-2,-2,2021-08-07 12:15:56,968458
-5,-6,-8,-14,-12,-4,-3,-2,2021-08-07 12:15:56,968458
3,3,7,21,17,6,5,1,2021-08-07 12:15:56,968458
0,-2,-1,1,3,1,0,-1,2021-08-07 12:15:56,968458
-4,-4,-2,-1,-3,-3,-2,-3,2021-08-07 12:15:56,983457
0,-1,2,0,2,1,1,0,2021-08-07 12:15:56,983457
0,2,-2,-16,-11,-6,-4,0,2021-08-07 12:15:56,999458
-2,1,-2,-5,-6,-3,-1,0,2021-08-07 12:15:56,999458
2,3,7,11,16,9,4,2,2021-08-07 12:15:57,015458
0,-1,0,8,2,0,1,-1,2021-08-07 12:15:57,015458
-1,-1,-2,-5,-3,-2,-2,-1,2021-08-07 12:15:57,015458
-2,-3,-3,1,1,0,-2,-3,2021-08-07 12:15:57,015458
1,0,-1,-2,-6,-4,0,-1,2021-08-07 12:15:57,015458
-1,-1,-2,-3,-2,-1,-1,1,2021-08-07 12:15:57,016459
-2,-2,-2,-2,-4,-3,-2,-3,2021-08-07 12:15:57,017460
-3,-1,0,-2,-6,-3,-3,-2,2021-08-07 12:15:57,017460
-1,-3,-2,3,10,5,1,1,2021-08-07 12:15:57,047460
-3,-7,-7,-8,-8,-7,-3,-2,2021-08-07 12:15:57,063459
-1,0,0,0,-2,-2,-1,0,2021-08-07 12:15:57,094461
1,1,0,-2,-3,-1,0,-2,2021-08-07 12:15:57,110459
1,-1,2,2,1,0,1,-1,2021-08-07 12:15:57,125457
2,5,4,-3,0,3,1,0,2021-08-07 12:15:57,125457
0,0,1,8,5,4,0,1,2021-08-07 12:15:57,125457
1,1,0,4,3,1,2,0,2021-08-07 12:15:57,125457
1,-2,-4,-12,-12,-6,-5,-2,2021-08-07 12:15:57,125457
-2,-3,-2,3,3,0,0,-3,2021-08-07 12:15:57,126460
-4,-6,-5,-5,-5,-2,-2,-2,2021-08-07 12:15:57,126460
2,3,5,9,10,4,2,1,2021-08-07 12:15:57,126460
1,1,-2,0,-3,-1,0,-1,2021-08-07 12:15:57,126460
-1,-2,-1,-2,-3,-2,-2,-1,2021-08-07 12:15:57,126460
-3,-2,-3,-7,-8,-3,-1,-3,2021-08-07 12:15:57,126460
-4,-5,-11,-16,-16,-9,-6,-4,2021-08-07 12:15:57,127460
2,2,2,9,13,6,3,2,2021-08-07 12:15:57,127460
1,1,5,12,14,5,2,1,2021-08-07 12:15:57,127460
0,0,0,0,2,1,1,0,2021-08-07 12:15:57,127460
-3,-1,1,1,-1,-1,0,-2,2021-08-07 12:15:57,127460
-7,-5,-6,-14,-17,-10,-4,-4,2021-08-07 12:15:57,141457
2,3,4,8,8,3,4,2,2021-08-07 12:15:57,157457
1,0,-1,0,0,-2,-3,-1,2021-08-07 12:15:57,157457
-2,-4,-3,-2,-1,-2,-3,-3,2021-08-07 12:15:57,157457
-2,1,-1,-5,-5,-2,-2,-1,2021-08-07 12:15:57,157457
-2,-1,-3,-3,-8,-4,-2,-3,2021-08-07 12:15:57,173457
0,-2,-6,-12,-3,-2,-1,1,2021-08-07 12:15:57,189458
1,2,5,12,9,4,2,-1,2021-08-07 12:15:57,205457
-1,-1,1,7,6,3,0,-1,2021-08-07 12:15:57,205457
-1,-4,-2,-7,-6,-3,-4,-3,2021-08-07 12:15:57,205457
-3,-2,-4,-7,-5,-3,-2,-2,2021-08-07 12:15:57,205457
1,2,0,-3,-1,-1,0,1,2021-08-07 12:15:57,205457
2,2,2,4,1,0,3,2,2021-08-07 12:15:57,206460
-1,0,-3,-8,-4,-2,0,0,2021-08-07 12:15:57,206460
-1,0,0,5,3,2,-2,-1,2021-08-07 12:15:57,206460
-2,-2,-1,-5,-2,-3,0,0,2021-08-07 12:15:57,206460
-3,-5,-4,-8,-4,-4,-3,-2,2021-08-07 12:15:57,237459
1,3,2,4,4,2,1,1,2021-08-07 12:15:57,237459
3,3,6,8,5,2,2,0,2021-08-07 12:15:57,237459
-7,-7,-5,-3,-5,-5,-3,-4,2021-08-07 12:15:57,237459
3,1,1,-1,-2,-1,1,4,2021-08-07 12:15:57,253457
-2,-3,-2,-1,0,-2,-3,-1,2021-08-07 12:15:57,253457
0,3,1,1,2,1,0,0,2021-08-07 12:15:57,253457
1,1,-1,-5,-4,-2,-2,-1,2021-08-07 12:15:57,253457
-2,-3,-2,1,-1,-1,-3,0,2021-08-07 12:15:57,269457
1,-1,0,3,1,1,1,1,2021-08-07 12:15:57,284459
-2,-2,-4,-7,-4,-3,-1,-1,2021-08-07 12:15:57,284459
0,-1,-3,-2,-2,0,0,1,2021-08-07 12:15:57,284459
-1,-2,-2,4,2,2,1,0,2021-08-07 12:15:57,284459
-1,-3,-5,-3,-2,0,-2,-2,2021-08-07 12:15:57,284459
0,2,6,10,5,2,1,-2,2021-08-07 12:15:57,285458
-2,1,3,5,4,2,-1,-2,2021-08-07 12:15:57,285458
-4,-4,-6,-10,-11,-8,-6,-4,2021-08-07 12:15:57,315459
-3,-3,-5,-9,-5,-5,-3,-3,2021-08-07 12:15:57,315459
1,2,2,4,1,-2,-1,-1,2021-08-07 12:15:57,315459
4,2,1,3,2,1,1,3,2021-08-07 12:15:57,315459
2,2,4,7,5,4,4,-1,2021-08-07 12:15:57,315459
1,0,-2,-5,-6,-4,-1,1,2021-08-07 12:15:57,331459
-1,-3,-5,-3,-2,-1,-1,-1,2021-08-07 12:15:57,347458
-1,0,4,5,8,3,0,1,2021-08-07 12:15:57,347458
2,3,1,2,0,1,0,0,2021-08-07 12:15:57,347458
-7,-10,-6,-3,-5,-3,-3,-5,2021-08-07 12:15:57,347458
5,8,9,4,1,2,1,4,2021-08-07 12:15:57,347458
-1,-1,-8,-10,-9,-4,-1,0,2021-08-07 12:15:57,347458
-1,-1,0,2,0,0,-1,-2,2021-08-07 12:15:57,379458
0,0,0,-1,-1,-2,-3,0,2021-08-07 12:15:57,394458
-5,-5,-5,-5,-5,-5,-3,-4,2021-08-07 12:15:57,410459
-2,-4,-5,-9,-4,-2,-1,-3,2021-08-07 12:15:57,410459
0,0,2,6,6,1,-1,-2,2021-08-07 12:15:57,410459
3,5,7,10,9,7,4,3,2021-08-07 12:15:57,410459
-5,-5,-7,-7,-8,-5,-4,-1,2021-08-07 12:15:57,410459
2,3,3,3,4,0,2,1,2021-08-07 12:15:57,410459
-2,-2,-3,-3,-3,-1,-2,0,2021-08-07 12:15:57,411459
-2,0,0,1,0,0,0,-1,2021-08-07 12:15:57,411459
-1,-2,-1,-2,-5,-3,-1,0,2021-08-07 12:15:57,411459
-4,-4,-2,-3,-4,-2,-3,-3,2021-08-07 12:15:57,411459
-4,-5,-5,-8,-7,-4,-3,-2,2021-08-07 12:15:57,442458
-2,-1,-3,-3,-3,-2,-1,0,2021-08-07 12:15:57,442458
2,4,2,4,7,5,3,2,2021-08-07 12:15:57,442953
-2,-2,1,5,0,0,-2,-2,2021-08-07 12:15:57,442953
0,0,-1,0,-1,0,0,-2,2021-08-07 12:15:57,442953
0,-1,-2,-1,-3,-2,-2,-1,2021-08-07 12:15:57,442953
-2,-2,-3,-7,-5,-2,-2,-3,2021-08-07 12:15:57,458483
1,-1,-1,-3,-4,-2,-2,0,2021-08-07 12:15:57,474482
-1,1,1,0,-1,-2,-2,-1,2021-08-07 12:15:57,474482
-1,0,-1,1,2,1,0,0,2021-08-07 12:15:57,475482
-4,-6,-5,-3,0,-1,-2,-2,2021-08-07 12:15:57,475482
-1,0,3,3,-1,-1,0,-1,2021-08-07 12:15:57,475482
-1,0,-2,-2,-2,0,1,1,2021-08-07 12:15:57,490483
1,2,0,-7,-11,-5,-1,-2,2021-08-07 12:15:57,506482
0,-1,1,0,-3,-1,0,0,2021-08-07 12:15:57,522481
0,0,1,9,16,8,3,1,2021-08-07 12:15:57,522481
2,4,6,14,14,6,2,2,2021-08-07 12:15:57,522481
-2,-1,-2,-2,-1,0,0,-2,2021-08-07 12:15:57,522481
-1,-2,-2,-6,-9,-5,-3,-4,2021-08-07 12:15:57,522481
-3,-2,-5,-8,-12,-6,-3,-3,2021-08-07 12:15:57,522481
1,-1,0,-3,-3,-2,-1,-1,2021-08-07 12:15:57,538482
1,3,1,-3,-2,0,0,2,2021-08-07 12:15:57,538482
-5,-8,-2,3,4,-1,0,-2,2021-08-07 12:15:57,538482
2,3,2,-1,2,2,2,3,2021-08-07 12:15:57,538482
-2,-3,-3,0,2,2,0,-1,2021-08-07 12:15:57,553482
-1,0,2,-1,-2,-3,-4,-2,2021-08-07 12:15:57,569482
-1,0,0,-2,-1,-1,-2,0,2021-08-07 12:15:57,585483
-5,-7,-4,-6,-8,-6,-4,-5,2021-08-07 12:15:57,601483
1,3,-1,-1,-2,0,1,1,2021-08-07 12:15:57,601483
1,-1,-1,1,3,2,1,0,2021-08-07 12:15:57,601483
-1,1,2,-1,2,2,-1,-1,2021-08-07 12:15:57,601483
-1,-1,-3,-5,-4,-4,-3,-2,2021-08-07 12:15:57,602483
-1,-2,-2,-7,-5,-3,-2,-2,2021-08-07 12:15:57,602483
-4,-4,-1,3,5,1,1,0,2021-08-07 12:15:57,602483
-2,-4,-1,0,0,0,2,-3,2021-08-07 12:15:57,617483
-2,-1,-3,-6,-12,-6,-4,-1,2021-08-07 12:15:57,633481
-1,0,-1,-3,2,-1,-2,1,2021-08-07 12:15:57,649482
3,5,6,13,11,7,4,2,2021-08-07 12:15:57,649482
-1,-2,-4,-2,-3,-3,-1,-1,2021-08-07 12:15:57,649482
-3,-5,-4,-7,-3,-3,-2,-3,2021-08-07 12:15:57,649482
1,-2,1,4,1,2,2,1,2021-08-07 12:15:57,649482
0,1,0,-1,2,1,0,1,2021-08-07 12:15:57,649482
-2,1,0,2,1,-3,-5,-3,2021-08-07 12:15:57,650483
-3,-4,-5,-7,-7,-6,-4,-5,2021-08-07 12:15:57,650483
-2,-1,-2,-5,-2,-2,0,-2,2021-08-07 12:15:57,650483
1,0,2,-1,-5,-2,1,1,2021-08-07 12:15:57,650483
3,1,-3,-4,-3,3,4,3,2021-08-07 12:15:57,650483
-2,0,2,5,7,3,0,1,2021-08-07 12:15:57,650483
3,2,3,3,0,1,0,2,2021-08-07 12:15:57,665732
-4,-6,-4,-2,-6,-4,-3,-2,2021-08-07 12:15:57,680996
-2,0,0,2,2,1,0,-2,2021-08-07 12:15:57,680996
1,0,-1,1,0,-1,-1,0,2021-08-07 12:15:57,696994
-2,-4,-4,-7,-6,-5,-2,-2,2021-08-07 12:15:57,712996
-3,-1,0,3,-2,-2,-3,-2,2021-08-07 12:15:57,712996
-2,-1,-2,-6,-2,-3,-2,0,2021-08-07 12:15:57,712996
0,-1,1,8,7,3,1,1,2021-08-07 12:15:57,712996
-1,-1,0,1,-3,-1,-1,-1,2021-08-07 12:15:57,712996
-2,-3,-5,-6,-3,-3,-2,-2,2021-08-07 12:15:57,712996
-1,-4,-7,-5,-5,-5,-3,-3,2021-08-07 12:15:57,712996
0,-2,-1,-4,-1,0,2,0,2021-08-07 12:15:57,713996
2,4,6,6,4,2,1,2,2021-08-07 12:15:57,728994
1,2,0,-2,0,-2,-1,-2,2021-08-07 12:15:57,744995
-3,-3,-2,-1,-3,-2,-2,-1,2021-08-07 12:15:57,744995
1,0,-1,-1,-3,-2,-1,1,2021-08-07 12:15:57,744995
-4,-4,-1,2,6,4,0,-3,2021-08-07 12:15:57,744995
-1,0,-3,-6,-3,0,-1,0,2021-08-07 12:15:57,744995
1,1,2,2,-1,-1,-2,1,2021-08-07 12:15:57,745995
-2,-1,-1,2,1,1,-1,-2,2021-08-07 12:15:57,745995
-2,-1,-4,-8,-6,-4,-2,-1,2021-08-07 12:15:57,775994
-1,-1,1,3,-1,-2,-1,0,2021-08-07 12:15:57,791995
2,3,3,0,-3,1,3,0,2021-08-07 12:15:57,791995
-2,-2,-4,-9,-4,-3,-2,-1,2021-08-07 12:15:57,791995
-1,0,5,16,15,5,2,-1,2021-08-07 12:15:57,807995
-3,-4,-5,-3,-2,-2,-1,-2,2021-08-07 12:15:57,807995
-4,-2,-3,-5,-2,-1,-1,-1,2021-08-07 12:15:57,807995
-4,-3,-3,-4,-8,-6,-1,-2,2021-08-07 12:15:57,808996
-2,-3,-4,-7,-8,-4,-2,-3,2021-08-07 12:15:57,808996
5,3,3,2,6,3,1,2,2021-08-07 12:15:57,823995
0,0,1,6,4,2,0,0,2021-08-07 12:15:57,823995
1,0,0,-2,-1,1,-2,1,2021-08-07 12:15:57,823995
-5,-7,-10,-13,-14,-8,-5,-4,2021-08-07 12:15:57,823995
1,2,5,11,9,5,2,2,2021-08-07 12:15:57,823995
-1,0,0,4,4,1,0,-1,2021-08-07 12:15:57,824996
0,-2,1,2,2,1,-1,-1,2021-08-07 12:15:57,824996
-4,-5,-4,-8,-9,-4,-4,-4,2021-08-07 12:15:57,855995
3,0,-4,-8,-5,-3,0,0,2021-08-07 12:15:57,870995
3,3,1,3,7,3,2,1,2021-08-07 12:15:57,886995
-1,1,0,0,-3,0,-1,-2,2021-08-07 12:15:57,902993
-1,0,0,-1,1,0,-2,1,2021-08-07 12:15:57,902993
-3,0,0,4,1,-1,-1,-2,2021-08-07 12:15:57,902993
-2,-4,-3,-4,-2,-3,-2,-1,2021-08-07 12:15:57,902993
0,0,-1,1,1,1,1,0,2021-08-07 12:15:57,902993
1,0,-2,-3,2,1,0,0,2021-08-07 12:15:57,903998
-2,-2,-3,-2,-4,-4,-3,-2,2021-08-07 12:15:57,903998
-2,-3,-1,4,5,1,0,-2,2021-08-07 12:15:57,903998
-2,-1,-5,-12,-10,-3,-1,-1,2021-08-07 12:15:57,903998
8,7,13,18,18,11,4,5,2021-08-07 12:15:57,903998
0,-3,-1,0,-2,-2,-2,-3,2021-08-07 12:15:57,903998
-3,-1,-2,-3,-7,-4,-5,-2,2021-08-07 12:15:57,904996
-3,-4,-5,-6,-3,-1,-4,-1,2021-08-07 12:15:57,904996
1,1,1,-2,-6,-4,0,-2,2021-08-07 12:15:57,918996
-4,-3,-5,-5,-3,-2,-2,-2,2021-08-07 12:15:57,918996
2,1,3,2,-1,1,0,1,2021-08-07 12:15:57,938995
0,0,-1,1,3,2,-1,0,2021-08-07 12:15:57,938995
0,-1,-2,-2,-3,-2,-1,-4,2021-08-07 12:15:57,938995
-2,-2,-1,-5,-5,-2,-4,-3,2021-08-07 12:15:57,938995
-4,-5,-7,-8,-5,-1,-1,-1,2021-08-07 12:15:57,938995
5,6,8,12,4,1,1,3,2021-08-07 12:15:57,949995
-4,-4,-5,-5,-2,-2,-1,-3,2021-08-07 12:15:57,965995
-2,-3,-2,-1,-2,0,-2,-2,2021-08-07 12:15:57,965995
-2,-3,-5,-7,-4,-3,-3,-3,2021-08-07 12:15:57,965995
0,0,0,1,3,1,1,-1,2021-08-07 12:15:57,981993
-1,1,-3,-9,-11,-5,-1,0,2021-08-07 12:15:57,997997
-2,0,2,6,12,4,1,-1,2021-08-07 12:15:57,997997
-1,-1,1,2,4,0,0,-1,2021-08-07 12:15:57,997997
-3,-3,-3,-6,-3,-4,-2,-4,2021-08-07 12:15:57,997997
-1,1,4,12,7,2,1,2,2021-08-07 12:15:57,998996
-3,-4,-7,-12,-15,-7,-4,-4,2021-08-07 12:15:57,998996
5,4,3,3,5,3,2,5,2021-08-07 12:15:57,998996
0,0,1,5,3,1,-1,0,2021-08-07 12:15:57,998996
-3,-7,-8,-11,-11,-7,-5,-3,2021-08-07 12:15:58,029994
0,0,1,0,0,-1,1,2,2021-08-07 12:15:58,029994
-3,-2,-2,0,-1,1,-2,-3,2021-08-07 12:15:58,046031
0,3,2,1,-2,-1,0,-1,2021-08-07 12:15:58,046031
-1,-2,-3,-3,2,1,0,1,2021-08-07 12:15:58,062031
1,0,0,6,4,3,2,0,2021-08-07 12:15:58,062031
-2,-3,-4,-6,-4,-4,-3,-1,2021-08-07 12:15:58,062031
1,2,1,5,8,2,2,2,2021-08-07 12:15:58,062031
-2,-1,-1,-3,-2,-4,-1,-1,2021-08-07 12:15:58,062031
-3,-3,-4,-9,-6,-4,-3,-2,2021-08-07 12:15:58,063032
-4,-3,-3,-3,-3,-2,-1,-3,2021-08-07 12:15:58,063032
1,3,4,6,5,2,0,0,2021-08-07 12:15:58,063032
-1,0,2,4,8,5,1,2,2021-08-07 12:15:58,094032
-1,-2,-3,-7,-10,-5,-2,-1,2021-08-07 12:15:58,094032
0,-1,0,1,5,2,1,0,2021-08-07 12:15:58,094032
0,-5,-3,-2,1,1,1,1,2021-08-07 12:15:58,094032
1,1,-2,-2,-2,0,1,0,2021-08-07 12:15:58,110032
-4,-1,2,4,4,3,0,-3,2021-08-07 12:15:58,126032
-6,-3,1,-3,-8,-6,-4,-4,2021-08-07 12:15:58,126032
-4,-3,-4,-8,-6,-5,-6,-4,2021-08-07 12:15:58,126032
5,5,6,7,6,1,-1,2,2021-08-07 12:15:58,126032
0,-2,-2,-4,-1,-2,-2,0,2021-08-07 12:15:58,126032
0,-1,-2,-2,-6,-5,-1,0,2021-08-07 12:15:58,126032
3,3,0,4,3,3,2,2,2021-08-07 12:15:58,126032
-3,-6,-4,-2,-9,-5,-2,-4,2021-08-07 12:15:58,158033
-3,-5,-8,-13,-5,-3,-4,-3,2021-08-07 12:15:58,174030
7,9,12,21,14,9,6,4,2021-08-07 12:15:58,190031
2,1,0,0,1,1,1,-1,2021-08-07 12:15:58,205030
-5,-4,-2,-5,-2,-3,0,-3,2021-08-07 12:15:58,205030
-3,-4,-3,0,-3,-4,-3,0,2021-08-07 12:15:58,205030
-1,-1,-1,-5,-3,-1,-3,-1,2021-08-07 12:15:58,205030
-1,-1,0,-2,-2,0,-1,-1,2021-08-07 12:15:58,205030
-2,0,0,0,0,-1,-1,-1,2021-08-07 12:15:58,206032
-3,-2,-1,-2,-3,-2,0,-2,2021-08-07 12:15:58,206032
-3,-3,-3,-1,1,-1,0,-3,2021-08-07 12:15:58,206032
-2,-3,-3,-4,-2,-1,-1,0,2021-08-07 12:15:58,206032
-2,-3,-2,-2,-2,-1,-3,-3,2021-08-07 12:15:58,206032
6,7,6,10,15,9,6,3,2021-08-07 12:15:58,206032
0,0,-2,1,-3,-4,-1,-1,2021-08-07 12:15:58,207034
-2,-1,-1,-4,-6,-4,-3,-2,2021-08-07 12:15:58,207034
-4,-4,-5,-5,-6,-3,-3,-3,2021-08-07 12:15:58,236032
-3,-3,-4,-10,-11,-7,-5,-4,2021-08-07 12:15:58,236032
-2,-3,-3,-5,3,2,-1,-2,2021-08-07 12:15:58,236032
0,-1,5,15,10,5,0,1,2021-08-07 12:15:58,236032
0,-1,-1,-5,-3,-1,-2,0,2021-08-07 12:15:58,252034
2,0,-1,2,-1,0,0,1,2021-08-07 12:15:58,267549
0,0,-3,-6,-9,-5,-2,-2,2021-08-07 12:15:58,267549
-2,-2,-4,-3,-5,-3,-1,-1,2021-08-07 12:15:58,267549
0,0,-2,-4,-3,1,3,2,2021-08-07 12:15:58,267549
4,3,6,10,12,7,2,2,2021-08-07 12:15:58,267549
-5,-4,0,7,1,-5,-8,-5,2021-08-07 12:15:58,283550
-2,-3,-1,-4,-2,-4,-5,-4,2021-08-07 12:15:58,283550
-3,-3,-6,-10,-15,-9,-5,-4,2021-08-07 12:15:58,283550
0,0,1,1,7,5,4,2,2021-08-07 12:15:58,283550
1,1,-1,-4,-2,3,4,2,2021-08-07 12:15:58,283550
2,2,5,15,16,8,5,1,2021-08-07 12:15:58,284551
-2,-3,-3,-5,-4,-1,-1,-1,2021-08-07 12:15:58,299550
-1,0,-1,0,1,0,2,-1,2021-08-07 12:15:58,315549
-2,-3,-5,-10,-10,-4,-3,-2,2021-08-07 12:15:58,331550
-1,0,-2,-5,-8,-4,-3,-2,2021-08-07 12:15:58,331550
-1,-1,-1,1,3,2,0,-1,2021-08-07 12:15:58,331550
-4,-4,-3,-1,-3,-3,-3,-4,2021-08-07 12:15:58,331550
-3,-5,-3,-3,-4,-2,-2,-1,2021-08-07 12:15:58,331550
2,0,-1,-4,-1,1,4,2,2021-08-07 12:15:58,331550
1,2,4,9,7,4,0,1,2021-08-07 12:15:58,347550
-3,-3,0,3,0,-1,-2,-3,2021-08-07 12:15:58,379549
4,5,4,1,1,3,2,2,2021-08-07 12:15:58,394549
-2,-3,-2,-4,-6,-4,-1,-3,2021-08-07 12:15:58,394549
2,3,3,2,3,1,0,1,2021-08-07 12:15:58,394549
-4,-6,-6,-5,-7,-6,-5,-5,2021-08-07 12:15:58,394549
-4,-3,-3,-2,0,-1,-3,-1,2021-08-07 12:15:58,394549
-1,-1,-1,-2,-2,0,-2,-2,2021-08-07 12:15:58,395550
2,0,1,1,2,1,1,-2,2021-08-07 12:15:58,395550
-3,-3,-2,-2,-6,-5,-3,-2,2021-08-07 12:15:58,395550
1,-1,-1,1,0,0,2,1,2021-08-07 12:15:58,395550
-1,1,-2,-1,-2,-1,0,1,2021-08-07 12:15:58,395550
0,-1,0,3,4,0,0,0,2021-08-07 12:15:58,409549
0,-1,-1,-1,-2,0,0,0,2021-08-07 12:15:58,410550
0,1,0,1,0,0,-1,0,2021-08-07 12:15:58,410550
-1,-3,-1,-3,-2,0,-1,-2,2021-08-07 12:15:58,410550
1,0,-1,0,0,-1,-1,0,2021-08-07 12:15:58,426551
3,2,-1,0,0,-1,0,3,2021-08-07 12:15:58,426551
-3,-3,-3,-3,-3,-2,0,-2,2021-08-07 12:15:58,426551
2,1,1,-1,-2,-1,1,1,2021-08-07 12:15:58,426551
0,-1,0,0,0,0,-2,-1,2021-08-07 12:15:58,457549
-1,0,1,1,-2,-1,0,0,2021-08-07 12:15:58,473589
1,1,-2,-1,3,1,0,1,2021-08-07 12:15:58,488589
-2,-2,0,0,-2,-2,-1,-2,2021-08-07 12:15:58,504590
2,3,7,9,2,2,1,1,2021-08-07 12:15:58,504590
0,-2,-2,-2,-4,-3,-2,-1,2021-08-07 12:15:58,504590
2,2,5,6,8,5,2,3,2021-08-07 12:15:58,520588
-3,-2,-6,-6,-6,-3,-2,-2,2021-08-07 12:15:58,536588
-1,0,-1,1,5,2,0,-1,2021-08-07 12:15:58,536588
-3,-2,-1,-4,-6,-5,-3,-2,2021-08-07 12:15:58,536588
-5,-4,-5,-3,-3,-3,-2,-3,2021-08-07 12:15:58,536588
-2,-2,-3,-6,-3,-1,-3,-1,2021-08-07 12:15:58,536588
7,10,5,-4,-2,1,4,4,2021-08-07 12:15:58,536588
0,1,2,1,1,0,0,-1,2021-08-07 12:15:58,537590
5,3,2,6,5,4,2,1,2021-08-07 12:15:58,537590
-1,-4,0,5,9,2,0,-2,2021-08-07 12:15:58,537590
-6,-6,-7,-6,-7,-4,-3,-4,2021-08-07 12:15:58,537590
1,0,-1,-1,0,0,-1,0,2021-08-07 12:15:58,537590
-4,-4,-1,-8,-6,-5,-4,-3,2021-08-07 12:15:58,537590
0,0,-2,-1,-3,-1,-2,1,2021-08-07 12:15:58,537590
-1,-1,-4,-2,1,-2,0,1,2021-08-07 12:15:58,537590
-2,-2,-3,-6,-7,-4,-4,-3,2021-08-07 12:15:58,537590
-2,-3,-4,-7,-6,-3,-1,-2,2021-08-07 12:15:58,552588
0,1,2,11,9,2,2,-2,2021-08-07 12:15:58,568590
0,1,4,6,7,2,1,0,2021-08-07 12:15:58,584588
-1,-1,-4,-3,0,-1,-1,0,2021-08-07 12:15:58,584588
-4,-3,-2,-2,-7,-5,-2,-3,2021-08-07 12:15:58,584588
1,0,-1,-5,-1,0,-1,1,2021-08-07 12:15:58,584588
2,0,2,8,5,4,2,0,2021-08-07 12:15:58,600590
-2,-2,-1,-1,2,-1,-1,0,2021-08-07 12:15:58,616588
-2,-1,-4,-5,-4,-4,-3,-1,2021-08-07 12:15:58,616588
2,6,2,-1,-3,1,2,3,2021-08-07 12:15:58,616588
-2,-2,-2,-2,-6,-2,-2,-1,2021-08-07 12:15:58,616588
2,2,1,-2,1,0,-1,-2,2021-08-07 12:15:58,617589
-1,-3,-3,-3,-1,-3,-2,-1,2021-08-07 12:15:58,617589
-2,-2,0,-1,-1,-2,-1,-1,2021-08-07 12:15:58,617589
-5,-7,-5,-7,-4,-3,-4,-4,2021-08-07 12:15:58,632587
-1,-1,-2,0,0,1,-1,-3,2021-08-07 12:15:58,648589
1,1,2,1,1,1,-2,-1,2021-08-07 12:15:58,664589
-1,-1,-2,-5,-3,-1,-1,-2,2021-08-07 12:15:58,680588
0,-1,-2,0,-2,-2,-1,1,2021-08-07 12:15:58,680814
-1,-2,1,3,2,-1,0,0,2021-08-07 12:15:58,680814
2,1,0,5,8,4,2,2,2021-08-07 12:15:58,680814
-2,-4,-2,3,0,0,-1,-2,2021-08-07 12:15:58,680814
-1,3,2,-1,1,-1,1,0,2021-08-07 12:15:58,681590
-1,0,2,0,-2,-2,0,0,2021-08-07 12:15:58,681590
-2,-1,-4,-7,-6,-3,-2,-1,2021-08-07 12:15:58,681590
-1,-2,-2,-2,-3,-2,-2,-1,2021-08-07 12:15:58,681590
-2,-2,-3,-3,0,-2,-3,-2,2021-08-07 12:15:58,681590
0,-1,-1,-1,-1,0,0,-1,2021-08-07 12:15:58,681590
0,0,1,1,1,-1,1,-2,2021-08-07 12:15:58,682589
-4,-5,-6,-7,-5,-2,-2,-4,2021-08-07 12:15:58,682589
1,1,1,2,-1,1,-2,0,2021-08-07 12:15:58,712107
2,4,3,1,1,2,3,1,2021-08-07 12:15:58,728108
-1,-2,-1,1,0,-1,-2,-3,2021-08-07 12:15:58,744109
-1,0,1,0,2,0,0,0,2021-08-07 12:15:58,744109
-1,-1,-4,-3,0,-3,0,-2,2021-08-07 12:15:58,744109
0,-1,-3,-1,-1,-2,0,1,2021-08-07 12:15:58,744109
-1,-1,-1,-1,0,0,0,-1,2021-08-07 12:15:58,745108
-1,1,-1,0,-2,-1,-3,0,2021-08-07 12:15:58,745108
0,-1,0,-2,-3,-2,0,-2,2021-08-07 12:15:58,745108
-3,-2,-1,-2,-3,0,-2,0,2021-08-07 12:15:58,745108
0,1,0,3,1,0,0,-1,2021-08-07 12:15:58,745108
0,0,-1,-1,0,0,-2,-2,2021-08-07 12:15:58,745108
-1,-2,-1,-3,-3,0,1,-2,2021-08-07 12:15:58,776109
-2,-2,-1,0,-1,-1,-2,-2,2021-08-07 12:15:58,776109
-1,-1,-2,-3,-2,-1,-1,-1,2021-08-07 12:15:58,776109
1,-1,0,-1,0,0,0,0,2021-08-07 12:15:58,776109
0,-1,-1,-1,-1,-2,-1,-1,2021-08-07 12:15:58,777111
-1,-1,-1,-3,-3,-1,-1,0,2021-08-07 12:15:58,777111
0,-2,-2,-4,-4,-2,-3,-1,2021-08-07 12:15:58,792110
0,-1,0,5,1,1,0,-1,2021-08-07 12:15:58,792110
-2,-2,-3,-3,-3,-2,-2,0,2021-08-07 12:15:58,808108
0,-1,0,3,1,0,-1,-1,2021-08-07 12:15:58,808108
0,0,0,1,0,1,-1,0,2021-08-07 12:15:58,808108
-1,-1,-4,-8,-3,-2,-2,-1,2021-08-07 12:15:58,808108
0,-1,0,6,1,0,-1,0,2021-08-07 12:15:58,840108
2,2,2,-1,5,5,2,1,2021-08-07 12:15:58,856108
0,0,2,5,0,1,0,0,2021-08-07 12:15:58,856108
-2,0,-3,-7,-8,-5,-1,-2,2021-08-07 12:15:58,856108
-3,-3,-3,4,4,1,-1,-2,2021-08-07 12:15:58,856108
0,2,1,0,1,1,-1,0,2021-08-07 12:15:58,856108
1,-1,2,0,-1,-1,-2,-2,2021-08-07 12:15:58,856108
-2,-3,-1,-1,-3,-2,-2,-1,2021-08-07 12:15:58,857108
-5,-6,-9,-23,-16,-9,-5,-5,2021-08-07 12:15:58,876109
1,0,4,21,14,5,3,1,2021-08-07 12:15:58,876109
0,1,2,5,4,1,0,0,2021-08-07 12:15:58,877109
1,0,1,-1,-1,0,0,-1,2021-08-07 12:15:58,877109
-4,-3,-5,-6,-7,-4,-6,-3,2021-08-07 12:15:58,903109
-6,-6,-8,-14,-15,-9,-7,-6,2021-08-07 12:15:58,903109
6,7,7,13,18,11,7,6,2021-08-07 12:15:58,903109
-1,-2,-2,3,3,-2,1,-2,2021-08-07 12:15:58,903109
0,-4,-6,-9,-9,-4,-2,-1,2021-08-07 12:15:58,919109
4,2,-4,-9,-7,-2,3,3,2021-08-07 12:15:58,919109
-2,-5,-4,0,3,1,0,-1,2021-08-07 12:15:58,919109
0,4,6,11,6,4,1,-1,2021-08-07 12:15:58,919109
-3,-2,1,4,2,1,-2,-5,2021-08-07 12:15:58,935109
-6,-3,-1,-4,-6,-5,-6,-4,2021-08-07 12:15:58,951108
-3,-2,-4,-12,-10,-7,-6,-4,2021-08-07 12:15:58,983108
1,0,3,6,2,-1,0,3,2021-08-07 12:15:58,999108
1,0,0,3,2,1,0,2,2021-08-07 12:15:59,015110
2,1,0,-5,-4,-2,-1,2,2021-08-07 12:15:59,031108
-3,-2,-5,-10,-11,-5,-3,-3,2021-08-07 12:15:59,047110
-2,-2,-3,2,5,3,1,-1,2021-08-07 12:15:59,062108
7,4,7,15,14,9,6,3,2021-08-07 12:15:59,062108
-3,-6,-6,-8,-9,-6,-4,-4,2021-08-07 12:15:59,062108
-1,-1,-1,0,-4,-3,-1,-2,2021-08-07 12:15:59,062108
0,-2,0,0,0,2,1,2,2021-08-07 12:15:59,062108
0,0,1,-1,0,1,0,0,2021-08-07 12:15:59,062108
-1,-1,2,-1,0,-1,1,0,2021-08-07 12:15:59,063111
-4,-5,-5,-8,-5,-5,-5,-5,2021-08-07 12:15:59,063111
0,-1,-2,-1,-2,-2,-2,-2,2021-08-07 12:15:59,063111
2,3,4,8,5,2,4,1,2021-08-07 12:15:59,063111
-2,-4,-4,-5,-6,-4,-3,0,2021-08-07 12:15:59,063111
-3,-2,0,1,-1,-1,-2,-2,2021-08-07 12:15:59,063111
2,2,3,2,4,3,1,1,2021-08-07 12:15:59,063111
-1,-2,-2,-1,-2,0,-1,-2,2021-08-07 12:15:59,064109
-2,-2,-3,-4,-4,-3,-1,-2,2021-08-07 12:15:59,064109
-1,-4,-6,-10,-7,-4,-2,-2,2021-08-07 12:15:59,064109
-2,-2,0,11,7,1,-2,-2,2021-08-07 12:15:59,064109
2,5,3,-3,-6,-3,-1,0,2021-08-07 12:15:59,064109
1,1,0,2,4,2,2,-1,2021-08-07 12:15:59,064109
0,1,1,9,4,3,1,0,2021-08-07 12:15:59,065109
-3,-3,-10,-21,-15,-7,-2,-3,2021-08-07 12:15:59,065109
0,0,7,15,13,7,2,-1,2021-08-07 12:15:59,065109
-5,-10,-6,-4,-5,-4,-4,-6,2021-08-07 12:15:59,065109
7,9,9,6,8,3,4,6,2021-08-07 12:15:59,065109
-2,0,-4,-10,-10,-6,-3,-2,2021-08-07 12:15:59,065109
0,1,-3,-5,-7,-2,-1,1,2021-08-07 12:15:59,094109
-2,0,-4,-1,2,0,-1,-1,2021-08-07 12:15:59,110109
-5,-6,-1,4,0,-2,-2,-4,2021-08-07 12:15:59,110109
-2,-2,0,1,2,1,0,0,2021-08-07 12:15:59,110109
-2,-1,-2,-3,0,-2,0,-2,2021-08-07 12:15:59,110109
-2,-4,-3,-2,1,0,-1,-2,2021-08-07 12:15:59,110109
0,1,0,-3,-6,-3,-1,-1,2021-08-07 12:15:59,111108
-1,-1,1,0,-2,-2,-1,-1,2021-08-07 12:15:59,111108
-5,-6,-3,-9,-9,-5,-3,-3,2021-08-07 12:15:59,142108
1,0,0,6,7,3,1,1,2021-08-07 12:15:59,158107
-2,-2,-3,-1,0,-2,2,-2,2021-08-07 12:15:59,190108
2,2,2,4,4,4,2,1,2021-08-07 12:15:59,190108
-3,-2,-3,-5,-3,-1,-2,-1,2021-08-07 12:15:59,190108
-2,0,1,2,-1,-1,-1,0,2021-08-07 12:15:59,190108
0,-1,0,0,-1,2,0,1,2021-08-07 12:15:59,190108
-3,-1,-1,0,-1,-1,0,-2,2021-08-07 12:15:59,191108
-1,-2,-2,-5,-5,-3,-1,1,2021-08-07 12:15:59,191108
0,0,2,3,0,1,1,-1,2021-08-07 12:15:59,191108
-2,-5,-3,-4,-4,-3,-3,-2,2021-08-07 12:15:59,191108
0,-1,1,-1,0,0,-3,0,2021-08-07 12:15:59,191108
0,-2,0,1,1,0,-1,0,2021-08-07 12:15:59,191108
0,1,0,-3,1,0,1,-1,2021-08-07 12:15:59,206107
-2,0,1,1,2,0,0,-1,2021-08-07 12:15:59,206107
1,-3,-2,-3,-2,-1,-1,-1,2021-08-07 12:15:59,206107
-1,1,0,4,3,1,0,0,2021-08-07 12:15:59,206107
-1,0,0,2,-1,-2,-2,0,2021-08-07 12:15:59,221109
-2,-3,-3,-3,-3,-3,0,0,2021-08-07 12:15:59,237108
0,1,1,0,0,1,1,0,2021-08-07 12:15:59,237108
-1,-3,-1,1,1,0,-2,0,2021-08-07 12:15:59,237108
0,0,-1,-1,-1,0,-1,-1,2021-08-07 12:15:59,237108
1,0,-2,-1,-2,0,-1,-1,2021-08-07 12:15:59,237108
-1,-1,1,-1,-2,1,-1,-1,2021-08-07 12:15:59,238109
-2,-1,-2,-2,-4,-2,-2,-2,2021-08-07 12:15:59,253109
-1,-1,-1,0,-1,-2,-1,-1,2021-08-07 12:15:59,253109
0,1,2,3,5,3,1,1,2021-08-07 12:15:59,253109
0,0,-2,-1,-1,-1,-1,-1,2021-08-07 12:15:59,253109
-2,-1,-4,-6,-6,-3,-1,-1,2021-08-07 12:15:59,285110
0,0,0,1,-1,-2,-1,0,2021-08-07 12:15:59,301108
-2,-1,-2,-5,-3,-1,-2,0,2021-08-07 12:15:59,317109
0,-1,0,0,-2,-2,-2,0,2021-08-07 12:15:59,317109
0,-2,0,0,3,-1,-1,-2,2021-08-07 12:15:59,317109
1,2,-1,0,3,2,1,1,2021-08-07 12:15:59,317109
-1,-1,-1,-2,-4,-2,-2,0,2021-08-07 12:15:59,317109
1,0,1,3,1,-1,0,-1,2021-08-07 12:15:59,318109
-2,-3,-5,-10,-12,-8,-3,-2,2021-08-07 12:15:59,318109
1,-1,0,-2,-1,0,0,0,2021-08-07 12:15:59,318109
0,2,5,11,11,5,3,-1,2021-08-07 12:15:59,318109
-1,-1,1,2,6,1,0,0,2021-08-07 12:15:59,332107
-2,-3,0,-2,-4,-2,-2,-2,2021-08-07 12:15:59,332107
-1,-2,-5,-5,-11,-6,-3,-4,2021-08-07 12:15:59,333108
2,3,1,4,6,2,2,1,2021-08-07 12:15:59,333108
2,2,4,5,3,0,2,0,2021-08-07 12:15:59,333108
1,1,-1,-1,1,1,1,-1,2021-08-07 12:15:59,349107
-2,-2,-2,-4,-5,-3,-3,-1,2021-08-07 12:15:59,364108
-2,-2,-1,0,-2,0,-1,0,2021-08-07 12:15:59,396107
-5,-3,-5,-7,-4,-3,-4,-2,2021-08-07 12:15:59,396107
0,1,0,1,3,-1,0,1,2021-08-07 12:15:59,396107
-2,-2,0,-2,-3,-2,-1,-1,2021-08-07 12:15:59,396107
-1,-4,-3,-3,-5,-4,-1,-3,2021-08-07 12:15:59,396107
0,-1,-1,-7,-7,-3,-1,1,2021-08-07 12:15:59,396107
-1,-2,-4,-4,-4,1,0,-1,2021-08-07 12:15:59,397109
0,1,2,12,11,5,0,0,2021-08-07 12:15:59,397109
2,2,1,-5,-4,-2,1,1,2021-08-07 12:15:59,412107
0,-2,1,5,0,0,0,-3,2021-08-07 12:15:59,412107
-2,-3,-3,-8,-3,-4,-2,-3,2021-08-07 12:15:59,412107
-1,0,2,5,5,4,1,-1,2021-08-07 12:15:59,412107
-4,-6,-7,-6,-5,-2,-3,-3,2021-08-07 12:15:59,412107
0,1,0,0,-4,-4,1,1,2021-08-07 12:15:59,412107
0,0,0,2,2,3,1,3,2021-08-07 12:15:59,443108
-3,-4,-7,-15,-14,-8,-3,-2,2021-08-07 12:15:59,443108
-2,0,4,10,9,2,0,0,2021-08-07 12:15:59,443108
-1,-3,-4,-4,-2,-1,-1,-2,2021-08-07 12:15:59,443108
-1,-1,0,7,4,1,0,-2,2021-08-07 12:15:59,459108
-1,1,1,-2,-1,-1,-3,-1,2021-08-07 12:15:59,459108
-1,-2,-5,-13,-14,-7,-2,-1,2021-08-07 12:15:59,459108
-3,-3,-2,-1,0,-2,-2,-1,2021-08-07 12:15:59,459108
0,2,4,10,16,5,2,0,2021-08-07 12:15:59,459108
-2,-3,-2,-5,-8,-4,-2,-2,2021-08-07 12:15:59,459108
-4,-5,-6,-7,-10,-6,-5,-4,2021-08-07 12:15:59,474107
2,3,1,-1,4,4,1,2,2021-08-07 12:15:59,474107
1,3,4,6,0,1,-1,0,2021-08-07 12:15:59,505107
0,-3,-2,0,-1,-3,0,-1,2021-08-07 12:15:59,505107
0,-2,-2,-3,1,3,1,-1,2021-08-07 12:15:59,505107
-3,-4,-4,-4,-4,-2,-1,-2,2021-08-07 12:15:59,505107
-3,-3,0,3,1,0,0,-1,2021-08-07 12:15:59,506107
2,2,2,6,4,3,1,1,2021-08-07 12:15:59,506107
-1,-2,-3,-3,-5,-3,0,0,2021-08-07 12:15:59,521108
-1,0,-1,-2,-2,-2,-2,-1,2021-08-07 12:15:59,521108
-1,-2,-2,-3,-1,0,0,-1,2021-08-07 12:15:59,521108
-3,-4,0,-1,0,-1,-2,-2,2021-08-07 12:15:59,521108
-1,-3,-3,-5,-7,-3,-2,-2,2021-08-07 12:15:59,537109
0,1,2,0,0,2,-1,-1,2021-08-07 12:15:59,537109
0,-2,0,4,9,2,2,1,2021-08-07 12:15:59,553108
-2,-3,-4,-4,-7,-4,-1,-1,2021-08-07 12:15:59,553108
-1,0,1,7,8,2,0,0,2021-08-07 12:15:59,553108
0,2,2,7,3,1,1,0,2021-08-07 12:15:59,553108
1,1,-4,-9,-10,-4,0,-1,2021-08-07 12:15:59,585109
-4,-1,-1,-4,0,0,-1,-1,2021-08-07 12:15:59,601109
2,5,8,20,14,5,3,3,2021-08-07 12:15:59,601109
-2,-5,-5,-11,-12,-7,-4,-3,2021-08-07 12:15:59,601109
-2,-2,-1,1,-2,-1,-4,-2,2021-08-07 12:15:59,601109
-2,-3,-2,2,4,1,0,0,2021-08-07 12:15:59,617108
0,2,0,-4,-5,-2,-1,2,2021-08-07 12:15:59,633109
-3,-2,-1,1,2,1,1,-1,2021-08-07 12:15:59,633109
-1,-2,-4,-8,-10,-3,-3,-2,2021-08-07 12:15:59,633109
-1,0,-1,0,-3,-2,0,-1,2021-08-07 12:15:59,633109
2,1,2,5,14,7,2,0,2021-08-07 12:15:59,633109
1,0,1,2,1,1,0,-1,2021-08-07 12:15:59,633109
-3,-1,-3,-1,-1,-1,-1,-1,2021-08-07 12:15:59,634109
4,1,0,-1,0,0,-1,-1,2021-08-07 12:15:59,634109
-1,-1,0,-3,-5,-1,-1,-1,2021-08-07 12:15:59,634109
0,-1,-5,-5,-5,-4,0,-2,2021-08-07 12:15:59,634109
-3,-2,-3,-6,-5,-4,-2,-3,2021-08-07 12:15:59,649108
-3,-3,-1,8,8,5,1,-1,2021-08-07 12:15:59,665109
3,4,3,-1,-1,0,1,1,2021-08-07 12:15:59,680107
-1,-1,-1,-1,-2,-1,-1,-1,2021-08-07 12:15:59,680107
-4,-5,-6,-12,-11,-6,-5,-3,2021-08-07 12:15:59,680107
2,1,2,2,5,4,0,2,2021-08-07 12:15:59,680107
1,2,2,8,5,3,-1,-1,2021-08-07 12:15:59,680107
-2,-1,-4,-5,-1,-4,-2,-2,2021-08-07 12:15:59,681109
-2,-2,-1,5,2,-1,-1,-2,2021-08-07 12:15:59,695108
-1,-1,-3,-3,-7,-5,-2,-1,2021-08-07 12:15:59,695108
4,2,-2,-5,1,-1,0,0,2021-08-07 12:15:59,695108
1,1,1,2,2,0,2,2,2021-08-07 12:15:59,695108
4,0,-1,-3,-5,-1,1,2,2021-08-07 12:15:59,711108
-6,-9,-7,-9,-8,-6,-4,-5,2021-08-07 12:15:59,727108
1,1,0,1,5,4,3,1,2021-08-07 12:15:59,727108
-5,-3,-1,-1,0,0,-3,-4,2021-08-07 12:15:59,727108
-1,2,4,2,2,0,-1,-1,2021-08-07 12:15:59,727108
-3,-2,-2,-3,-6,-3,-5,-3,2021-08-07 12:15:59,727108
-1,1,2,1,1,-2,-2,-2,2021-08-07 12:15:59,743109
2,0,-3,-8,-5,-4,-1,0,2021-08-07 12:15:59,743109
2,0,1,4,10,4,3,3,2021-08-07 12:15:59,759108
4,1,2,5,1,0,3,1,2021-08-07 12:15:59,775108
-5,-7,-8,-11,-13,-7,-4,-3,2021-08-07 12:15:59,787107
-3,-2,-2,1,3,-1,-2,0,2021-08-07 12:15:59,787107
0,0,0,5,6,3,0,0,2021-08-07 12:15:59,788108
2,5,2,-6,-2,0,0,1,2021-08-07 12:15:59,788108
-2,-3,-1,-3,-5,-3,-1,-1,2021-08-07 12:15:59,788108
-3,-5,-3,-3,-6,-3,-2,-4,2021-08-07 12:15:59,788108
-1,-2,-1,1,0,0,0,-1,2021-08-07 12:15:59,788108
0,0,-3,0,3,3,0,1,2021-08-07 12:15:59,788108
1,0,-3,-2,-4,-2,3,1,2021-08-07 12:15:59,789108
1,1,0,-1,-6,0,0,2,2021-08-07 12:15:59,789108
-6,-5,-2,-4,-6,-4,-8,-5,2021-08-07 12:15:59,822108
1,3,5,9,7,4,2,1,2021-08-07 12:15:59,822611
-5,-6,-9,-10,0,-2,-4,-2,2021-08-07 12:15:59,822611
5,5,9,16,10,8,5,3,2021-08-07 12:15:59,838142
-1,-1,-4,-1,-6,-2,2,1,2021-08-07 12:15:59,854141
-1,-2,-3,-10,-1,-1,-1,-1,2021-08-07 12:15:59,870143
1,2,0,0,-5,-2,-1,0,2021-08-07 12:15:59,870143
-2,-2,-1,-5,-2,-2,-1,-1,2021-08-07 12:15:59,870143
0,-2,-2,-4,-2,-2,-5,-2,2021-08-07 12:15:59,870143
-3,-4,-2,-2,-4,-2,-2,-3,2021-08-07 12:15:59,870143
0,0,1,4,5,3,3,0,2021-08-07 12:15:59,870143
-2,-1,-4,-5,-5,0,-1,0,2021-08-07 12:15:59,871143
-2,0,-2,0,2,0,0,-3,2021-08-07 12:15:59,871143
2,2,4,9,4,0,-1,1,2021-08-07 12:15:59,871143
-2,-2,-1,-5,-4,-1,-3,0,2021-08-07 12:15:59,871143
-2,-3,-4,2,0,-1,-1,-1,2021-08-07 12:15:59,871143
0,1,-2,-14,-15,-8,-3,0,2021-08-07 12:15:59,902144
-1,1,3,4,11,5,5,0,2021-08-07 12:15:59,934144
-3,-3,1,12,5,2,-2,-1,2021-08-07 12:15:59,950144
0,0,-2,-8,0,-3,-2,0,2021-08-07 12:15:59,950144
2,3,3,2,0,-2,-3,0,2021-08-07 12:15:59,950144
-2,-1,-6,-8,-9,-5,-3,-2,2021-08-07 12:15:59,950144
0,-2,-2,-7,-7,-5,-3,-1,2021-08-07 12:15:59,950144
0,-2,-4,-1,4,3,1,1,2021-08-07 12:15:59,951144
-3,-3,-1,3,1,1,1,-2,2021-08-07 12:15:59,951144
-3,0,0,3,2,-1,-2,-2,2021-08-07 12:15:59,951144
-3,-3,-3,-4,-5,-3,-2,-3,2021-08-07 12:15:59,966143
-1,-1,-2,-2,-2,-1,-2,0,2021-08-07 12:15:59,966143
1,0,-1,0,1,1,-1,0,2021-08-07 12:15:59,966143
0,-3,-1,-3,-6,-2,-2,-2,2021-08-07 12:15:59,966143
-3,-5,-8,-6,-5,-6,-4,-4,2021-08-07 12:15:59,966143
0,0,-1,-10,-4,-4,-1,-3,2021-08-07 12:15:59,966143
6,6,4,7,12,6,4,-1,2021-08-07 12:15:59,966143
-3,-3,-6,-3,-3,-2,-2,-1,2021-08-07 12:15:59,967144
0,2,5,10,5,3,1,1,2021-08-07 12:15:59,967144
0,-1,-3,-1,-5,-2,-3,-1,2021-08-07 12:15:59,967144
6,7,6,5,1,2,3,3,2021-08-07 12:15:59,997143
1,1,-2,-4,-7,-5,-1,-2,2021-08-07 12:15:59,997143
-5,-7,-5,-9,-9,-5,-5,-4,2021-08-07 12:15:59,997143
-2,-2,-1,2,-1,-1,0,-2,2021-08-07 12:15:59,997143
-6,-9,-9,-7,-6,-4,-2,-3,2021-08-07 12:16:00,028143
-3,-4,-5,-6,4,2,0,-2,2021-08-07 12:16:00,044375
4,7,10,13,6,4,2,3,2021-08-07 12:16:00,059660
0,-2,-1,6,5,1,1,-2,2021-08-07 12:16:00,059660
-5,-6,-5,-11,-11,-6,-2,1,2021-08-07 12:16:00,059660
3,4,7,10,6,4,2,1,2021-08-07 12:16:00,059660
-5,-7,-8,-7,-6,-5,-2,-3,2021-08-07 12:16:00,059660
3,3,3,3,5,2,1,1,2021-08-07 12:16:00,060660
-1,-1,-4,-3,-6,-4,-2,-1,2021-08-07 12:16:00,060660
-3,-3,-3,-7,-5,-3,-2,-1,2021-08-07 12:16:00,060660
3,3,6,11,9,4,3,2,2021-08-07 12:16:00,060660
-4,-6,-3,1,-3,-3,-3,-4,2021-08-07 12:16:00,075658
-3,-4,-3,-3,0,-3,-2,-4,2021-08-07 12:16:00,091658
2,3,4,2,6,3,2,2,2021-08-07 12:16:00,091658
1,1,-5,-15,-9,-3,-3,0,2021-08-07 12:16:00,091658
-1,1,1,2,-4,-3,0,1,2021-08-07 12:16:00,091658
-4,-5,-6,-8,-8,-5,-4,-4,2021-08-07 12:16:00,091658
-1,-2,-1,7,4,2,0,-2,2021-08-07 12:16:00,091658
-1,-2,-3,-6,2,2,1,1,2021-08-07 12:16:00,091658
4,4,5,5,3,1,1,0,2021-08-07 12:16:00,091658
0,0,0,-7,-11,-5,-2,-1,2021-08-07 12:16:00,122659
0,2,0,8,5,0,1,0,2021-08-07 12:16:00,138659
-4,-5,-6,-8,-7,-2,-2,-3,2021-08-07 12:16:00,138659
0,1,4,3,1,1,1,1,2021-08-07 12:16:00,138659
0,2,3,8,10,2,0,-1,2021-08-07 12:16:00,138659
-1,-1,-1,3,-1,-1,0,0,2021-08-07 12:16:00,138659
-2,-2,-2,2,-3,-1,0,-1,2021-08-07 12:16:00,138659
-1,-3,-2,-6,-8,-4,-1,-2,2021-08-07 12:16:00,139660
-1,-3,-4,-5,-3,1,0,1,2021-08-07 12:16:00,154659
0,1,-1,-5,10,3,0,-1,2021-08-07 12:16:00,170659
3,4,9,16,9,5,3,2,2021-08-07 12:16:00,186657
-2,-1,-3,-4,-4,-2,-1,-1,2021-08-07 12:16:00,186657
-4,-4,-3,1,-3,-4,-3,-3,2021-08-07 12:16:00,186657
-1,-3,-7,-11,-7,-3,-2,0,2021-08-07 12:16:00,186657
1,1,2,9,13,5,2,0,2021-08-07 12:16:00,186657
1,3,-2,0,1,3,1,1,2021-08-07 12:16:00,186657
0,-1,1,3,2,0,-1,-2,2021-08-07 12:16:00,202658
-5,-6,-12,-19,-25,-15,-8,-4,2021-08-07 12:16:00,202658
1,2,1,0,3,1,2,1,2021-08-07 12:16:00,202658
0,-1,4,8,6,4,0,0,2021-08-07 12:16:00,202658
-1,0,1,4,5,3,0,-1,2021-08-07 12:16:00,202658
1,0,3,1,-2,-1,1,1,2021-08-07 12:16:00,203660
-1,-1,-2,1,-1,-2,-2,-3,2021-08-07 12:16:00,218659
-4,-6,-6,-8,-6,-6,-4,-3,2021-08-07 12:16:00,233658
1,4,5,9,9,6,4,3,2021-08-07 12:16:00,249661
-3,-5,-5,-5,-9,-5,-3,-5,2021-08-07 12:16:00,249661
-4,-3,-7,-15,-16,-9,-5,-3,2021-08-07 12:16:00,249661
1,0,1,-2,-2,1,1,0,2021-08-07 12:16:00,249661
5,4,9,22,29,13,8,4,2021-08-07 12:16:00,249661
-2,-1,-1,1,5,4,0,-2,2021-08-07 12:16:00,249661
-4,-3,-5,-3,0,-3,-2,0,2021-08-07 12:16:00,250659
-3,0,-2,-5,-7,-3,-2,-2,2021-08-07 12:16:00,250659
-3,-3,-6,-11,-14,-7,-2,-1,2021-08-07 12:16:00,281659
3,5,11,13,7,5,2,2,2021-08-07 12:16:00,281659
-1,-3,-3,-5,-5,-3,1,-2,2021-08-07 12:16:00,281659
-3,-3,-4,-6,-3,-4,-2,-2,2021-08-07 12:16:00,281659
-4,-5,-4,-3,-5,-3,-3,-2,2021-08-07 12:16:00,297659
-1,-3,-1,1,4,2,-1,-1,2021-08-07 12:16:00,297659
1,1,1,-4,-7,-1,-2,0,2021-08-07 12:16:00,297659
0,1,1,0,5,4,2,0,2021-08-07 12:16:00,297659
1,3,4,5,2,2,2,0,2021-08-07 12:16:00,329658
-4,-3,-6,-3,-7,-4,-2,-2,2021-08-07 12:16:00,344657
0,1,2,5,2,2,1,0,2021-08-07 12:16:00,344657
-1,-2,-2,-2,5,2,-1,0,2021-08-07 12:16:00,344657
-4,-6,-7,-13,-14,-10,-7,-6,2021-08-07 12:16:00,344657
3,2,-1,-10,-14,-2,-1,2,2021-08-07 12:16:00,344657
3,5,4,7,21,11,5,1,2021-08-07 12:16:00,360661
-1,-1,-1,-1,-5,-2,-1,-2,2021-08-07 12:16:00,360661
-1,-2,-2,8,10,2,0,-2,2021-08-07 12:16:00,360661
-3,-1,-2,-7,-8,-3,-3,-2,2021-08-07 12:16:00,360661
-5,-5,-6,-3,-8,-5,-5,-2,2021-08-07 12:16:00,360661
4,3,2,0,-1,-1,0,3,2021-08-07 12:16:00,361660
-2,-2,-1,-2,-2,-2,-3,-2,2021-08-07 12:16:00,376658
-1,-2,-3,-1,-2,-3,-1,0,2021-08-07 12:16:00,376658
-2,-2,-4,-9,-12,-5,-4,-4,2021-08-07 12:16:00,376658
-1,2,0,3,9,4,0,1,2021-08-07 12:16:00,376658
1,3,4,5,-2,0,1,1,2021-08-07 12:16:00,392659
-1,1,0,-1,1,0,0,1,2021-08-07 12:16:00,392659
-6,-8,-7,-3,-3,-5,-4,-3,2021-08-07 12:16:00,392659
3,4,1,3,0,0,1,3,2021-08-07 12:16:00,392659
1,1,-1,-3,4,4,2,2,2021-08-07 12:16:00,423659
-2,-3,0,2,-7,-4,-4,-4,2021-08-07 12:16:00,439657
-4,-3,-3,-9,-14,-7,-4,-2,2021-08-07 12:16:00,439657
1,1,3,15,19,9,2,0,2021-08-07 12:16:00,439657
0,1,-2,0,7,2,0,0,2021-08-07 12:16:00,439657
-5,-6,-6,-6,-10,-5,-4,-3,2021-08-07 12:16:00,439657
2,3,2,-4,-4,-2,2,2,2021-08-07 12:16:00,439657
2,1,0,3,-1,-2,-1,0,2021-08-07 12:16:00,440659
-1,-1,3,3,0,1,0,0,2021-08-07 12:16:00,455659
-1,-1,-2,-2,-2,-4,-1,-2,2021-08-07 12:16:00,455659
-3,-3,-3,-10,-12,-7,-1,-1,2021-08-07 12:16:00,455659
-4,-5,-7,-6,-3,-3,-4,-5,2021-08-07 12:16:00,455659
1,1,3,7,7,5,2,2,2021-08-07 12:16:00,471659
1,0,0,-1,4,3,0,-1,2021-08-07 12:16:00,487659
3,5,6,13,15,9,3,2,2021-08-07 12:16:00,487659
-2,-2,-4,-7,-11,-5,-2,-3,2021-08-07 12:16:00,487659
-3,-3,-1,-8,-9,-5,-2,-3,2021-08-07 12:16:00,519659
-1,-2,-3,0,0,-3,-2,0,2021-08-07 12:16:00,519659
0,0,0,0,0,-2,-3,0,2021-08-07 12:16:00,519659
-5,-6,-9,-14,-20,-9,-5,-4,2021-08-07 12:16:00,519659
2,0,2,7,11,5,1,2,2021-08-07 12:16:00,519659
1,0,1,2,12,6,5,0,2021-08-07 12:16:00,519659
3,3,9,20,18,8,3,2,2021-08-07 12:16:00,519659
2,3,2,1,-9,0,-1,2,2021-08-07 12:16:00,519659
-4,-6,-3,-1,4,-1,-3,-1,2021-08-07 12:16:00,535659
-4,-1,-3,-10,-13,-7,-5,-3,2021-08-07 12:16:00,551659
-2,-3,-11,-17,-8,-5,-3,-1,2021-08-07 12:16:00,551659
-3,-3,-4,-7,-7,-4,-2,-3,2021-08-07 12:16:00,551659
0,2,1,6,7,4,4,2,2021-08-07 12:16:00,551659
1,1,1,9,13,7,5,2,2021-08-07 12:16:00,551659
-5,-6,-3,4,-1,0,-1,-4,2021-08-07 12:16:00,551659
-4,-4,0,-5,-6,-3,-2,-4,2021-08-07 12:16:00,552659
-3,-2,-4,-12,-15,-9,-8,-6,2021-08-07 12:16:00,566658
2,5,3,9,7,3,1,1,2021-08-07 12:16:00,582658
1,2,0,-2,0,2,1,1,2021-08-07 12:16:00,613659
1,-1,-1,0,1,0,0,-2,2021-08-07 12:16:00,613659
-2,-3,-2,-4,-5,-4,-1,-3,2021-08-07 12:16:00,613659
1,-1,2,9,6,2,1,1,2021-08-07 12:16:00,613659
-2,-5,-7,-8,-11,-7,-1,-2,2021-08-07 12:16:00,613659
2,3,7,14,14,8,4,3,2021-08-07 12:16:00,614659
-2,-3,-8,-12,-16,-8,-4,-2,2021-08-07 12:16:00,614659
1,2,6,9,12,6,2,0,2021-08-07 12:16:00,614659
1,-1,4,13,8,2,1,-3,2021-08-07 12:16:00,614659
-3,-2,-7,-11,-11,-7,-4,-4,2021-08-07 12:16:00,614659
-4,-4,-6,-6,-7,-4,-2,-4,2021-08-07 12:16:00,629659
1,1,-2,-6,-5,-1,-1,2,2021-08-07 12:16:00,629659
-2,0,-2,-5,-6,-2,-2,-1,2021-08-07 12:16:00,645660
-5,-7,-8,-7,-9,-8,-5,-3,2021-08-07 12:16:00,661669
-3,-3,-6,-14,-20,-11,-4,-3,2021-08-07 12:16:00,661669
-1,-1,-2,4,20,3,1,0,2021-08-07 12:16:00,661669
6,5,10,19,22,12,5,4,2021-08-07 12:16:00,661669
-4,-4,-4,-6,-10,-6,-3,-2,2021-08-07 12:16:00,661669
0,2,8,21,20,10,4,3,2021-08-07 12:16:00,677659
-1,-1,-3,-16,-25,-8,-3,-3,2021-08-07 12:16:00,677659
2,3,3,11,10,4,3,2,2021-08-07 12:16:00,677659
-2,0,0,-1,3,1,-1,0,2021-08-07 12:16:00,677659
-3,-4,-3,-3,-3,-2,-2,-3,2021-08-07 12:16:00,693661
4,3,3,4,4,2,2,1,2021-08-07 12:16:00,702660
3,0,-1,0,-5,-1,-1,1,2021-08-07 12:16:00,702660
-3,-6,-8,-11,-12,-6,-4,-2,2021-08-07 12:16:00,702660
-1,1,0,2,5,2,-1,-2,2021-08-07 12:16:00,724658
-6,-6,-6,-5,-3,-3,-5,-4,2021-08-07 12:16:00,740658
-3,1,-1,-12,-16,-7,-4,-2,2021-08-07 12:16:00,755659
1,1,1,6,15,10,4,1,2021-08-07 12:16:00,755659
6,7,8,17,15,6,4,4,2021-08-07 12:16:00,755659
-1,-3,-1,1,-3,-1,-2,-2,2021-08-07 12:16:00,755659
-5,-7,-10,-13,-12,-7,-3,-2,2021-08-07 12:16:00,755659
0,-3,3,6,1,1,1,0,2021-08-07 12:16:00,755659
-4,-4,-7,-13,-14,-8,-6,-1,2021-08-07 12:16:00,755659
1,2,4,6,8,5,1,-1,2021-08-07 12:16:00,755659
0,1,-3,-2,2,2,1,0,2021-08-07 12:16:00,756662
2,3,4,7,12,6,3,1,2021-08-07 12:16:00,756662
-3,-7,-8,-13,-5,-4,-3,-3,2021-08-07 12:16:00,771659
2,1,3,7,1,0,0,2,2021-08-07 12:16:00,771659
-4,-5,-10,-24,-24,-11,-8,-6,2021-08-07 12:16:00,771659
4,5,4,7,12,6,2,0,2021-08-07 12:16:00,771659
3,2,5,6,1,3,3,1,2021-08-07 12:16:00,803660
-8,-10,-16,-26,-22,-15,-9,-8,2021-08-07 12:16:00,803660
2,1,8,15,18,8,0,1,2021-08-07 12:16:00,835660
3,6,6,2,-2,0,1,3,2021-08-07 12:16:00,835660
-3,-4,-11,-22,-23,-12,-6,-4,2021-08-07 12:16:00,835660
3,5,13,39,40,18,7,3,2021-08-07 12:16:00,835660
-5,-4,-3,-7,-9,-3,-2,-2,2021-08-07 12:16:00,835660
-4,-6,-6,-8,-7,-6,-4,-4,2021-08-07 12:16:00,835660
-6,-5,-8,-14,-16,-8,-6,-4,2021-08-07 12:16:00,836661
-2,-3,-3,-11,-13,-3,-3,-1,2021-08-07 12:16:00,836661
3,5,6,8,10,4,1,1,2021-08-07 12:16:00,836661
-4,-3,-4,-4,-3,-3,-2,-3,2021-08-07 12:16:00,836661
2,1,3,10,22,12,5,3,2021-08-07 12:16:00,866658
-2,-1,-1,-2,-8,-3,-2,-2,2021-08-07 12:16:00,866658
-3,-4,-7,-11,-12,-7,-1,-2,2021-08-07 12:16:00,866658
-1,-2,-1,4,10,7,3,1,2021-08-07 12:16:00,866658
2,-1,-4,-12,-10,-7,-3,-1,2021-08-07 12:16:00,882658
-4,-6,-7,-8,-5,-4,-2,-3,2021-08-07 12:16:00,897660
0,3,7,6,-2,-1,0,1,2021-08-07 12:16:00,913658
3,5,8,10,3,4,3,2,2021-08-07 12:16:00,913658
-1,0,-1,10,14,5,1,1,2021-08-07 12:16:00,913658
1,-3,-7,-12,-14,-6,-4,1,2021-08-07 12:16:00,913658
-1,-6,-3,-6,-2,-2,-2,-2,2021-08-07 12:16:00,913658
-2,0,1,1,-3,-3,-2,-2,2021-08-07 12:16:00,913658
-2,-1,2,5,1,2,1,-1,2021-08-07 12:16:00,913658
1,-1,-3,-7,-9,-5,-1,1,2021-08-07 12:16:00,914661
-1,-4,-4,6,9,2,0,0,2021-08-07 12:16:00,929658
-6,-8,-11,-18,-16,-9,-7,-5,2021-08-07 12:16:00,945659
2,5,9,18,14,7,3,1,2021-08-07 12:16:00,960658
-3,-1,3,6,-2,-1,-1,-2,2021-08-07 12:16:00,976662
-1,0,1,-3,-3,-2,3,0,2021-08-07 12:16:00,976662
1,-3,-4,-3,2,-1,-2,0,2021-08-07 12:16:00,976662
-4,-5,-10,-23,-20,-12,-6,-5,2021-08-07 12:16:00,976662
1,2,4,12,13,5,4,3,2021-08-07 12:16:00,977661
0,1,3,9,9,5,1,-1,2021-08-07 12:16:00,977661
0,0,0,3,-5,-1,0,0,2021-08-07 12:16:00,977661
0,0,-1,-6,-5,-2,-1,0,2021-08-07 12:16:00,977661
-2,-2,-5,-13,-17,-8,-3,-4,2021-08-07 12:16:00,977661
-2,-3,-2,3,5,1,-1,-1,2021-08-07 12:16:00,977661
-1,-1,0,1,2,-1,-2,-1,2021-08-07 12:16:00,978660
1,0,2,6,2,1,2,-1,2021-08-07 12:16:01,008660
2,0,1,-6,4,2,0,2,2021-08-07 12:16:01,024661
2,2,9,17,6,2,1,-1,2021-08-07 12:16:01,024661
1,3,4,8,7,3,2,2,2021-08-07 12:16:01,024661
-1,-2,-3,0,-7,-2,-1,-2,2021-08-07 12:16:01,024661
-3,-5,-10,-16,-15,-8,-4,-4,2021-08-07 12:16:01,024661
-3,-5,-11,-16,-11,-7,-4,0,2021-08-07 12:16:01,025660
-1,-2,-4,-16,-8,-4,-3,0,2021-08-07 12:16:01,025660
1,4,10,22,16,7,1,2,2021-08-07 12:16:01,040659
-1,1,1,11,12,7,3,0,2021-08-07 12:16:01,056658
2,2,3,6,5,5,2,-1,2021-08-07 12:16:01,056658
-4,-5,-5,-5,-8,-7,-3,-4,2021-08-07 12:16:01,056658
-3,-5,-4,-12,-14,-7,-4,-3,2021-08-07 12:16:01,056658
-1,0,-5,-15,-9,-6,-3,-1,2021-08-07 12:16:01,056658
0,1,5,16,24,11,4,1,2021-08-07 12:16:01,057661
0,-1,0,5,-2,-2,2,-1,2021-08-07 12:16:01,057661
-2,-2,-3,-6,-2,-2,-2,-2,2021-08-07 12:16:01,071660
-1,-2,0,-6,-9,-4,-3,-2,2021-08-07 12:16:01,086658
-1,-3,-6,-13,-9,-6,-3,-2,2021-08-07 12:16:01,101660
3,6,14,29,23,10,5,2,2021-08-07 12:16:01,101660
1,-3,1,1,0,-2,0,1,2021-08-07 12:16:01,101660
1,0,-3,-1,-3,-2,-2,0,2021-08-07 12:16:01,101660
-2,-3,-8,-17,-26,-12,-6,-3,2021-08-07 12:16:01,101660
-1,0,-2,-4,1,0,-1,-1,2021-08-07 12:16:01,101660
-2,0,-1,-5,-3,-1,-2,-3,2021-08-07 12:16:01,117658
1,3,5,11,15,8,4,3,2021-08-07 12:16:01,117658
-3,-1,0,2,0,0,-3,0,2021-08-07 12:16:01,117658
-2,-5,-8,-12,-12,-6,-6,-4,2021-08-07 12:16:01,117658
-8,-9,-12,-14,-10,-7,-4,-5,2021-08-07 12:16:01,148659
-1,-2,-3,-2,-4,0,0,0,2021-08-07 12:16:01,148659
9,12,17,38,54,24,12,8,2021-08-07 12:16:01,164659
0,-2,1,-2,-6,1,-1,0,2021-08-07 12:16:01,164659
0,0,-2,-5,-3,-4,-1,0,2021-08-07 12:16:01,164659
-3,-4,-9,-21,-23,-11,-5,-5,2021-08-07 12:16:01,164659
-2,-1,-5,-5,-6,-3,-1,-2,2021-08-07 12:16:01,164659
-3,-1,0,-4,-6,-4,0,0,2021-08-07 12:16:01,164659
1,0,4,11,4,1,1,1,2021-08-07 12:16:01,180660
3,7,7,18,20,10,4,2,2021-08-07 12:16:01,196658
-4,-3,-5,-13,-14,-5,-4,-2,2021-08-07 12:16:01,212660
2,2,1,0,2,0,1,2,2021-08-07 12:16:01,228658
0,-1,-4,-14,-16,-8,-5,-1,2021-08-07 12:16:01,244658
-1,-3,0,8,10,3,1,-1,2021-08-07 12:16:01,244658
-2,-3,-4,-5,-5,-3,-3,-3,2021-08-07 12:16:01,244658
-3,-2,-1,0,2,0,-1,-2,2021-08-07 12:16:01,244658
-3,-2,1,8,5,3,1,0,2021-08-07 12:16:01,244658
3,6,6,11,10,7,3,3,2021-08-07 12:16:01,245663
-1,-3,-7,-19,-20,-10,-5,-2,2021-08-07 12:16:01,245663
-2,-2,-1,5,9,2,0,0,2021-08-07 12:16:01,245663
-1,-1,1,2,8,2,-1,-3,2021-08-07 12:16:01,245663
-6,-5,-3,-5,-7,-5,-2,-3,2021-08-07 12:16:01,245663
-1,-3,-5,-14,-20,-10,-3,-2,2021-08-07 12:16:01,245663
3,6,11,20,15,8,4,1,2021-08-07 12:16:01,246660
-3,0,-4,-5,-3,-2,-3,-1,2021-08-07 12:16:01,246660
-3,-4,-2,-4,-7,-6,-5,-3,2021-08-07 12:16:01,246660
1,5,7,13,9,5,4,2,2021-08-07 12:16:01,260659
-5,-6,-8,-6,-8,-5,-4,-4,2021-08-07 12:16:01,276660
1,-1,-5,-10,-7,0,1,-2,2021-08-07 12:16:01,276660
3,4,6,14,10,6,2,1,2021-08-07 12:16:01,276660
-5,-5,-5,-9,-7,-4,-3,-3,2021-08-07 12:16:01,276660
-3,-7,-10,-10,-4,-4,-2,-4,2021-08-07 12:16:01,276660
4,5,2,2,1,1,1,4,2021-08-07 12:16:01,308659
1,1,0,-1,1,-1,2,0,2021-08-07 12:16:01,308659
-4,-5,-5,-12,-12,-5,-5,-4,2021-08-07 12:16:01,308659
1,2,4,15,16,8,3,1,2021-08-07 12:16:01,308659
-3,-3,1,4,0,0,-2,-1,2021-08-07 12:16:01,308659
-4,-4,-7,-8,-8,-4,-2,-1,2021-08-07 12:16:01,308659
-3,-5,-4,-8,-8,-5,-3,-1,2021-08-07 12:16:01,324658
2,3,-5,-12,-17,-8,-2,1,2021-08-07 12:16:01,324658
1,0,3,6,5,2,1,-1,2021-08-07 12:16:01,340659
-2,-2,-1,0,1,3,-2,-2,2021-08-07 12:16:01,340659
1,4,5,13,14,9,4,4,2021-08-07 12:16:01,356659
-4,-5,-7,-13,-18,-11,-5,-5,2021-08-07 12:16:01,356659
1,2,3,6,4,1,1,1,2021-08-07 12:16:01,356659
1,0,1,2,0,-1,0,0,2021-08-07 12:16:01,356659
-2,-1,1,-2,-1,0,0,-2,2021-08-07 12:16:01,356659
-3,-3,-1,-3,-2,1,-3,-2,2021-08-07 12:16:01,356659
-1,-1,-3,-3,-6,-3,-3,-1,2021-08-07 12:16:01,372658
-2,-1,-2,-4,-4,-2,-2,-2,2021-08-07 12:16:01,372658
-2,-2,-2,-2,-2,-3,-2,-1,2021-08-07 12:16:01,388659
1,-1,5,15,13,6,3,3,2021-08-07 12:16:01,388659
5,3,1,1,4,1,3,1,2021-08-07 12:16:01,388659
-1,-2,-1,-5,-4,-3,-2,-1,2021-08-07 12:16:01,388659
0,3,0,-1,-4,-2,0,0,2021-08-07 12:16:01,404661
-3,-4,-1,-7,-10,-5,-3,-2,2021-08-07 12:16:01,420658
1,-2,-2,-2,6,2,2,2,2021-08-07 12:16:01,436657
0,-1,1,2,7,4,3,0,2021-08-07 12:16:01,436657
2,2,-1,2,5,3,2,1,2021-08-07 12:16:01,436657
-4,-5,-2,-6,-2,-2,-2,-1,2021-08-07 12:16:01,436657
-8,-5,0,1,1,-1,-2,-4,2021-08-07 12:16:01,436657
-5,-4,-6,-10,-14,-7,-3,-4,2021-08-07 12:16:01,437660
1,2,0,5,5,3,0,-1,2021-08-07 12:16:01,437660
2,3,2,-5,-9,-5,-2,0,2021-08-07 12:16:01,437660
2,4,5,5,6,4,2,1,2021-08-07 12:16:01,467659
-3,-6,-2,0,-1,-3,-2,-2,2021-08-07 12:16:01,483659
2,1,-1,-6,-15,-8,-3,-2,2021-08-07 12:16:01,499659
-1,-1,-5,-1,4,2,1,0,2021-08-07 12:16:01,499659
-1,2,-2,-7,-1,0,1,1,2021-08-07 12:16:01,499659
2,3,8,14,12,6,2,3,2021-08-07 12:16:01,499659
-3,-4,-2,-3,-4,-2,-2,-2,2021-08-07 12:16:01,499659
-3,-5,-5,-6,-8,-5,-4,-3,2021-08-07 12:16:01,500660
1,-1,0,-5,-3,-2,1,-2,2021-08-07 12:16:01,500660
-1,-1,-3,-6,-7,-5,-1,-1,2021-08-07 12:16:01,500660
3,1,4,13,14,6,2,2,2021-08-07 12:16:01,500660
-2,-1,-3,-3,-6,-1,0,-1,2021-08-07 12:16:01,500660
-4,-5,-5,-3,-5,-5,-5,-2,2021-08-07 12:16:01,515659
0,0,-1,-1,-2,-2,-1,-3,2021-08-07 12:16:01,531659
3,3,2,3,0,1,1,2,2021-08-07 12:16:01,531659
-2,-4,-2,5,8,3,0,-2,2021-08-07 12:16:01,547660
-2,-3,-3,0,0,-2,0,-1,2021-08-07 12:16:01,547660
1,0,1,6,5,4,2,1,2021-08-07 12:16:01,547660
-5,-2,-1,-3,-5,-3,-2,-2,2021-08-07 12:16:01,547660
2,2,0,0,0,0,1,1,2021-08-07 12:16:01,547660
-1,-2,-5,-13,-16,-8,-5,-3,2021-08-07 12:16:01,563658
1,2,0,4,8,4,2,0,2021-08-07 12:16:01,578659
-4,-4,-4,-2,1,0,-1,-2,2021-08-07 12:16:01,610660
-1,1,1,2,3,0,-2,-1,2021-08-07 12:16:01,624660
1,1,0,7,4,3,1,0,2021-08-07 12:16:01,624660
-3,-3,-6,-12,-6,-3,-4,0,2021-08-07 12:16:01,624660
0,1,1,-1,-1,-1,-1,0,2021-08-07 12:16:01,624660
2,0,8,12,11,4,2,1,2021-08-07 12:16:01,624660
